leadI,leadII,leadIII,leadaVR,leadaVL,leadaVF,leadV1,leadV2,leadV3,leadV4,leadV5,leadV6
-2,-5,-2,4,0,-4,3,5,5,-1,0,0
-6,-12,-6,9,0,-9,7,13,13,-4,-1,0
-8,-14,-6,11,-1,-10,9,18,17,-7,-2,0
-9,-12,-3,11,-2,-8,9,20,19,-9,-3,-2
-9,-9,-1,9,-3,-5,8,22,20,-11,-4,-3
-8,-7,0,8,-4,-3,8,24,22,-13,-5,-5
-9,-9,0,9,-4,-4,9,25,24,-13,-6,-6
-12,-13,-1,13,-4,-8,10,28,26,-12,-6,-6
-14,-19,-4,16,-4,-12,12,31,29,-10,-5,-5
-15,-21,-6,18,-4,-14,14,34,32,-9,-5,-4
-14,-20,-5,17,-4,-13,14,37,34,-8,-5,-3
-12,-16,-2,14,-5,-9,14,39,36,-8,-5,-3
-11,-10,2,11,-6,-4,13,40,36,-9,-6,-4
-11,-6,5,9,-8,-1,13,41,37,-9,-6,-5
-12,-7,5,10,-8,-1,13,42,39,-9,-6,-6
-13,-10,3,12,-8,-3,15,45,42,-8,-6,-5
-14,-13,1,13,-7,-6,17,48,46,-6,-6,-4
-14,-15,0,15,-8,-7,18,50,48,-5,-6,-4
-15,-16,0,16,-8,-8,18,52,50,-4,-7,-4
-16,-15,2,15,-9,-6,18,54,51,-4,-7,-4
-15,-11,5,13,-10,-3,18,55,52,-5,-8,-4
-15,-7,8,11,-11,0,18,56,53,-5,-8,-5
-15,-4,10,10,-11,3,18,57,54,-5,-8,-5
-16,-4,11,10,-12,4,18,58,56,-4,-8,-5
-17,-7,10,12,-13,2,19,60,59,-3,-9,-5
-18,-10,8,14,-13,-1,20,61,61,-2,-9,-5
-18,-12,7,15,-13,-2,20,63,62,-1,-9,-5
-17,-10,8,13,-13,-2,20,64,64,-1,-9,-4
-17,-8,10,12,-14,0,20,64,64,-1,-10,-4
-19,-6,13,12,-15,3,19,64,64,-2,-10,-5
-20,-4,15,12,-16,5,19,63,65,-2,-11,-5
-19,-3,15,12,-16,6,19,64,66,-2,-10,-5
-18,-3,14,11,-15,5,20,65,68,-1,-10,-4
-17,-5,12,12,-15,3,20,66,69,0,-9,-3
-17,-7,11,12,-14,2,20,67,71,0,-9,-2
-15,-5,11,10,-14,3,20,68,71,1,-8,-1
-13,-1,13,7,-13,5,20,68,71,1,-7,0
-13,3,15,5,-14,8,19,67,71,1,-7,0
-13,5,17,4,-14,10,17,66,70,1,-7,1
-13,6,18,4,-15,11,16,65,70,1,-6,2
-13,6,18,4,-15,12,15,65,70,2,-6,3
-11,6,17,3,-14,11,15,64,70,3,-5,5
-10,5,16,3,-14,11,14,63,69,3,-4,5
-10,4,15,3,-14,10,12,60,67,2,-4,6
-11,4,15,3,-14,9,11,58,64,2,-3,6
-11,5,16,2,-14,10,9,55,61,1,-2,6
-9,8,17,0,-13,12,7,52,58,1,-1,7
-8,9,17,-1,-12,13,5,49,56,1,0,7
-8,9,16,-1,-11,13,4,46,53,1,0,8
-7,9,15,-1,-11,12,3,44,51,1,2,10
-5,9,14,-2,-10,12,3,42,48,1,3,11
-3,9,13,-3,-8,11,2,40,46,1,4,13
-1,9,12,-4,-7,11,1,37,42,1,5,13
0,11,12,-5,-7,11,0,33,38,0,5,14
0,12,12,-5,-6,11,-1,29,34,0,5,14
0,11,11,-5,-5,10,-2,25,30,-1,5,13
0,10,9,-5,-4,9,-3,22,27,-2,5,13
0,8,7,-4,-3,7,-4,20,24,-3,5,13
0,7,7,-4,-3,6,-4,18,21,-4,5,13
1,6,6,-4,-2,6,-5,15,18,-5,4,13
1,7,6,-4,-2,6,-5,13,15,-6,4,13
1,7,6,-4,-2,6,-6,10,12,-8,3,12
0,6,6,-3,-3,6,-7,7,8,-9,2,11
-2,4,6,-1,-4,5,-8,4,5,-11,1,10
-3,3,5,0,-4,4,-9,2,2,-13,0,9
-3,1,5,0,-4,3,-9,0,0,-14,0,8
-4,0,4,1,-4,2,-10,-1,-2,-16,-1,7
-3,0,3,1,-3,2,-10,-2,-3,-17,-2,6
-1,1,3,0,-2,2,-9,-3,-4,-17,-2,6
0,3,3,-1,-1,3,-9,-5,-6,-18,-3,5
0,5,5,-2,-2,5,-10,-7,-8,-20,-4,4
0,6,6,-3,-2,6,-10,-8,-10,-20,-4,4
0,5,5,-2,-2,6,-10,-9,-11,-21,-4,3
-1,4,5,-1,-2,5,-10,-10,-12,-22,-5,2
-2,3,5,0,-3,5,-10,-11,-12,-23,-6,2
-1,3,5,-1,-3,5,-10,-11,-13,-23,-7,1
-1,2,5,-1,-3,4,-10,-11,-14,-24,-7,1
-2,1,4,0,-3,3,-10,-12,-15,-25,-8,0
-2,1,4,0,-3,3,-10,-13,-16,-25,-9,0
-1,3,4,0,-2,3,-10,-14,-17,-26,-9,0
-1,3,4,0,-2,4,-10,-14,-18,-26,-10,-1
-3,2,5,1,-3,4,-10,-15,-19,-27,-11,-2
-4,1,5,1,-4,4,-10,-15,-19,-28,-11,-3
-3,2,6,1,-4,4,-10,-15,-19,-28,-11,-3
-2,2,6,0,-3,4,-9,-15,-18,-27,-11,-3
-1,3,6,0,-3,4,-9,-14,-18,-27,-10,-3
-1,4,6,0,-3,5,-9,-14,-18,-27,-10,-3
-2,4,7,-1,-3,5,-9,-15,-18,-27,-11,-4
-2,5,7,-1,-4,5,-9,-15,-19,-28,-11,-4
-2,5,6,-1,-4,5,-10,-16,-19,-29,-12,-5
-2,5,6,-1,-4,6,-9,-16,-19,-29,-12,-5
-2,4,6,0,-4,5,-9,-16,-19,-29,-12,-6
-4,1,6,2,-5,3,-9,-16,-20,-30,-13,-7
-5,0,6,3,-5,2,-9,-17,-20,-31,-14,-7
-4,1,6,2,-5,3,-9,-17,-20,-31,-14,-7
-4,1,6,1,-4,3,-9,-17,-20,-31,-14,-7
-3,2,6,0,-4,4,-9,-16,-20,-30,-13,-7
-2,4,6,-1,-4,5,-8,-15,-19,-30,-13,-6
-1,6,7,-2,-4,7,-7,-14,-18,-29,-12,-5
-1,7,7,-3,-4,7,-6,-14,-16,-28,-11,-5
0,6,6,-3,-3,7,-5,-13,-15,-27,-10,-4
0,6,6,-3,-3,6,-5,-13,-15,-26,-10,-4
0,6,7,-3,-3,7,-5,-12,-14,-26,-9,-4
-1,7,8,-3,-4,8,-5,-12,-14,-25,-9,-4
-1,9,10,-4,-5,9,-5,-11,-13,-25,-9,-4
0,10,11,-4,-5,10,-4,-11,-11,-24,-8,-4
0,10,11,-4,-5,10,-4,-10,-10,-22,-7,-4
-1,10,11,-4,-6,10,-3,-9,-8,-21,-6,-4
-1,10,12,-4,-6,11,-3,-8,-6,-20,-6,-4
-1,10,12,-4,-6,11,-2,-7,-5,-19,-5,-3
-1,10,12,-5,-6,11,-1,-6,-3,-17,-4,-3
-1,10,12,-5,-6,11,0,-5,-2,-16,-3,-2
0,11,12,-5,-6,11,0,-4,-1,-15,-2,-2
0,12,11,-6,-5,12,0,-4,0,-14,-1,-1
1,13,11,-7,-4,12,-1,-3,0,-13,0,-1
1,13,11,-7,-4,12,-1,-3,1,-13,0,-1
1,12,11,-7,-4,11,-2,-3,2,-12,0,-1
1,11,10,-6,-4,10,-2,-2,3,-11,0,-1
1,11,10,-6,-4,10,-3,-2,4,-10,1,-1
1,11,10,-6,-4,10,-4,-2,5,-8,2,-1
2,12,10,-7,-4,10,-5,-2,5,-7,2,0
3,12,9,-7,-3,11,-7,-3,5,-7,3,0
3,12,9,-7,-3,11,-9,-4,4,-7,3,-1
4,13,9,-8,-3,11,-11,-5,3,-7,3,-1
5,13,9,-9,-2,11,-14,-6,3,-7,3,-1
5,13,9,-9,-1,10,-16,-7,2,-7,3,-1
5,13,8,-9,-1,10,-18,-8,1,-7,3,-1
5,13,8,-9,-1,10,-18,-8,1,-7,3,-1
5,13,8,-9,-1,10,-18,-9,0,-7,3,-2
6,12,6,-10,0,9,-18,-9,0,-7,3,-2
9,13,4,-11,2,8,-18,-9,0,-7,3,-2
10,13,3,-11,3,8,-18,-8,0,-7,3,-2
11,14,2,-12,4,8,-18,-8,0,-6,3,-2
11,13,1,-12,5,7,-18,-7,0,-6,4,-2
12,13,0,-12,6,6,-18,-6,1,-5,4,-2
13,13,0,-13,7,5,-17,-6,1,-4,4,-2
13,13,0,-14,7,6,-17,-6,2,-4,4,-2
12,13,1,-13,6,7,-17,-6,2,-4,4,-3
12,13,0,-13,6,7,-16,-6,2,-3,5,-3
12,12,-1,-12,6,6,-15,-5,3,-2,6,-2
11,11,-1,-11,6,5,-15,-4,3,-2,6,-2
9,10,0,-9,4,5,-14,-5,3,-2,6,-2
5,7,1,-6,2,4,-14,-6,2,-3,4,-3
0,2,1,-1,0,2,-14,-8,1,-5,2,-5
-3,-1,2,2,-2,0,-14,-9,0,-7,0,-7
-4,-2,2,3,-3,0,-13,-10,-1,-8,0,-8
-4,-1,3,3,-3,1,-11,-10,-1,-8,-1,-9
-4,0,4,2,-4,2,-10,-9,0,-8,-1,-9
-3,0,4,1,-4,2,-8,-8,0,-8,-1,-9
-4,0,3,2,-3,1,-7,-8,0,-8,-1,-10
-4,-1,2,2,-3,0,-6,-8,0,-8,-2,-11
-3,-1,2,1,-1,0,-6,-8,0,-9,-3,-11
-2,-1,1,1,0,0,-6,-8,0,-9,-3,-12
-2,-2,1,2,0,0,-6,-8,0,-9,-3,-12
-2,-2,0,2,0,-1,-6,-8,0,-10,-3,-13
-2,-2,0,2,-1,-1,-6,-9,-1,-10,-4,-13
-3,-3,0,3,-1,-1,-6,-9,-2,-11,-4,-13
-5,-4,0,4,-2,-2,-6,-10,-3,-12,-5,-14
-6,-5,0,6,-2,-3,-7,-11,-3,-13,-6,-14
-7,-7,0,7,-3,-3,-7,-11,-3,-13,-7,-14
-8,-8,0,8,-3,-3,-7,-11,-3,-13,-7,-15
-8,-8,1,8,-4,-3,-6,-11,-3,-13,-7,-15
-8,-8,0,8,-4,-3,-5,-9,-1,-13,-7,-15
-6,-7,0,7,-3,-3,-3,-7,1,-12,-6,-15
-5,-5,1,6,-3,-2,0,-5,3,-11,-6,-15
-6,-4,3,6,-5,-1,3,-3,5,-11,-7,-16
-8,-5,3,7,-5,-2,5,1,7,-11,-7,-17
-7,-5,2,7,-4,-2,8,7,11,-8,-6,-17
-6,-4,2,5,-4,-1,10,14,19,-3,-4,-16
-7,-3,5,4,-5,1,13,23,31,5,0,-15
-8,0,9,4,-8,5,15,33,47,17,7,-11
-10,4,15,2,-12,10,15,41,64,32,16,-6
-9,11,21,-1,-15,16,12,42,76,48,29,2
-6,21,27,-7,-16,24,4,34,78,66,47,14
1,32,31,-16,-15,31,-7,22,70,86,71,29
10,43,32,-26,-11,37,-22,10,55,108,97,46
22,54,32,-38,-5,43,-38,2,38,133,126,65
36,66,30,-51,3,48,-56,-1,21,161,158,85
50,75,26,-63,12,51,-78,-5,1,191,191,105
68,85,18,-77,25,51,-103,-15,-24,218,224,125
90,95,7,-92,42,51,-129,-29,-52,247,260,147
113,107,-5,-110,60,51,-154,-40,-74,283,301,171
137,122,-15,-129,77,53,-177,-51,-90,320,342,197
155,136,-19,-146,88,58,-196,-72,-106,340,368,217
163,147,-16,-155,90,65,-213,-113,-132,325,364,224
161,153,-8,-157,85,72,-228,-176,-168,270,325,217
150,149,0,-150,75,75,-236,-245,-211,185,259,195
132,135,4,-134,65,69,-235,-303,-249,92,180,159
115,112,-1,-113,59,55,-224,-336,-274,9,104,117
99,84,-12,-91,56,36,-209,-346,-289,-64,38,75
81,57,-22,-68,52,18,-193,-344,-300,-129,-19,37
63,36,-26,-49,45,5,-175,-331,-299,-173,-59,9
46,21,-25,-33,35,-2,-157,-308,-280,-188,-80,-9
29,12,-17,-20,23,-3,-139,-278,-252,-183,-87,-21
16,9,-7,-12,12,0,-122,-246,-221,-170,-87,-28
6,7,1,-7,3,3,-106,-215,-190,-154,-84,-32
-1,4,6,-2,-3,5,-91,-185,-161,-137,-79,-35
-6,2,9,2,-7,5,-76,-157,-134,-121,-73,-37
-9,0,10,5,-9,5,-62,-131,-109,-105,-66,-38
-11,-2,9,7,-9,3,-48,-107,-87,-91,-59,-39
-11,-6,5,9,-8,0,-35,-86,-68,-78,-53,-39
-12,-10,1,11,-7,-5,-25,-68,-52,-67,-47,-39
-13,-16,-2,14,-6,-10,-17,-54,-39,-58,-43,-38
-15,-20,-5,17,-5,-13,-10,-42,-28,-50,-39,-37
-14,-20,-6,17,-4,-14,-5,-32,-18,-43,-34,-35
-12,-18,-5,15,-3,-11,-1,-24,-10,-37,-30,-33
-11,-15,-3,14,-3,-9,2,-19,-4,-33,-27,-32
-11,-14,-2,13,-4,-7,4,-15,0,-30,-25,-31
-10,-13,-1,12,-4,-7,5,-12,4,-28,-23,-30
-10,-12,-1,11,-4,-7,6,-10,7,-26,-22,-30
-11,-13,-1,12,-5,-8,7,-8,9,-24,-22,-29
-13,-15,-2,13,-5,-10,7,-6,11,-24,-21,-29
-14,-18,-3,15,-5,-11,7,-5,12,-23,-21,-30
-15,-20,-3,17,-6,-12,7,-5,12,-23,-21,-30
-16,-21,-3,19,-6,-12,8,-4,13,-23,-21,-30
-16,-21,-3,19,-6,-12,8,-2,15,-22,-21,-30
-16,-19,-2,18,-6,-11,9,-1,17,-21,-21,-30
-15,-17,-2,16,-6,-10,10,1,18,-19,-20,-30
-13,-15,-2,14,-5,-9,11,3,14,-17,-19,-29
-11,-14,-2,12,-4,-9,12,4,5,-16,-18,-28
-10,-14,-3,12,-3,-9,12,4,-3,-16,-17,-28
-10,-15,-4,12,-2,-10,12,4,-10,-16,-17,-28
-10,-18,-5,14,-2,-12,12,5,-14,-15,-17,-28
-11,-19,-6,16,-2,-12,13,5,-17,-15,-17,-28
-12,-19,-5,16,-2,-12,12,6,-20,-14,-16,-28
-13,-19,-5,17,-4,-12,12,6,-21,-14,-16,-29
-14,-19,-4,16,-4,-12,12,7,-22,-14,-16,-28
-13,-17,-4,15,-4,-11,12,8,-22,-13,-15,-27
-12,-17,-4,14,-4,-11,13,9,-22,-12,-15,-27
-13,-18,-4,15,-4,-11,13,9,-22,-12,-15,-27
-12,-18,-4,15,-3,-11,13,10,-23,-12,-14,-27
-11,-17,-5,14,-2,-11,13,11,-23,-12,-14,-27
-10,-17,-5,14,-2,-11,14,11,-23,-11,-14,-27
-11,-17,-5,14,-2,-11,13,11,-23,-11,-14,-28
-11,-16,-5,14,-3,-11,13,11,-23,-11,-14,-28
-10,-16,-6,13,-2,-11,14,12,-22,-11,-14,-28
-11,-18,-7,14,-2,-12,14,12,-22,-10,-14,-28
-11,-18,-6,14,-3,-13,14,12,-22,-10,-14,-28
-11,-18,-5,14,-3,-12,14,13,-22,-10,-13,-27
-11,-17,-4,13,-3,-11,14,13,-21,-9,-13,-27
-10,-16,-4,13,-3,-10,14,14,-21,-9,-13,-27
-10,-15,-4,13,-3,-9,14,15,-20,-8,-13,-27
-11,-15,-4,13,-3,-10,15,15,-19,-8,-13,-28
-12,-16,-4,14,-4,-10,15,15,-19,-8,-13,-28
-13,-17,-3,15,-5,-10,14,15,-19,-8,-13,-29
-15,-19,-2,17,-6,-11,14,15,-19,-8,-13,-30
-16,-21,-4,19,-6,-13,13,15,-19,-8,-14,-30
-16,-22,-5,19,-5,-14,14,16,-18,-8,-14,-30
-14,-20,-4,17,-4,-12,14,17,-17,-7,-14,-30
-11,-16,-3,14,-4,-9,14,18,-17,-7,-14,-30
-10,-14,-2,12,-3,-8,15,19,-16,-6,-13,-30
-10,-15,-4,13,-3,-10,15,20,-14,-6,-13,-30
-11,-16,-6,14,-2,-11,16,21,-13,-5,-13,-30
-11,-16,-5,14,-2,-11,16,22,-11,-4,-12,-30
-10,-16,-5,13,-2,-11,17,24,-9,-3,-12,-30
-9,-16,-5,13,-2,-11,18,25,-8,-3,-12,-30
-10,-17,-5,13,-2,-11,18,26,-7,-2,-12,-30
-10,-17,-5,14,-2,-11,18,26,-6,-2,-12,-30
-10,-17,-5,14,-2,-11,18,28,-4,-1,-11,-30
-10,-16,-6,14,-2,-11,19,30,-3,0,-11,-29
-11,-17,-6,15,-3,-11,19,31,-2,0,-11,-30
-13,-18,-5,16,-4,-12,19,32,-1,0,-12,-30
-13,-19,-5,16,-4,-12,19,33,0,0,-12,-31
-12,-19,-5,16,-3,-12,19,35,2,1,-12,-31
-12,-18,-5,15,-3,-11,20,37,4,1,-12,-31
-12,-18,-5,15,-3,-11,21,38,6,2,-12,-31
-13,-19,-5,16,-3,-12,21,39,7,2,-12,-32
-13,-18,-5,16,-3,-12,22,41,9,2,-12,-32
-12,-17,-5,15,-3,-11,23,43,11,3,-12,-32
-12,-17,-4,15,-3,-11,24,45,14,4,-12,-32
-12,-16,-3,14,-4,-10,25,47,16,5,-12,-32
-12,-16,-2,14,-5,-9,26,49,19,5,-12,-32
-13,-16,-1,15,-6,-9,27,50,20,5,-13,-33
-15,-17,0,16,-7,-8,27,51,22,5,-14,-34
-15,-16,0,16,-8,-8,27,52,23,5,-14,-34
-16,-15,1,16,-8,-7,28,53,25,6,-15,-35
-17,-16,1,17,-9,-7,28,54,26,5,-15,-36
-19,-17,1,18,-10,-7,28,54,27,5,-16,-37
-20,-17,2,19,-11,-8,29,55,29,4,-17,-38
-21,-18,2,20,-12,-8,29,55,30,4,-18,-38
-21,-18,3,20,-12,-7,29,56,32,5,-18,-38
-21,-17,5,20,-13,-6,29,56,33,5,-18,-39
-22,-16,6,20,-14,-5,29,56,34,5,-18,-39
-21,-15,7,18,-14,-4,30,57,35,6,-18,-38
-20,-12,8,16,-14,-2,30,58,37,7,-17,-38
-20,-11,9,15,-14,-1,30,58,38,7,-17,-37
-20,-10,10,15,-15,0,30,58,38,7,-17,-37
-20,-10,10,15,-16,0,30,57,39,7,-17,-37
-20,-10,10,16,-16,0,29,56,39,6,-18,-37
-21,-11,11,16,-16,0,28,55,39,6,-18,-37
-21,-11,12,16,-17,0,27,54,38,5,-18,-37
-21,-10,12,16,-17,1,27,54,38,5,-17,-36
-20,-8,12,14,-16,2,26,54,39,6,-16,-35
-16,-4,12,10,-14,4,26,54,40,7,-15,-33
-14,0,13,7,-13,6,26,53,40,8,-13,-32
-12,2,13,5,-13,7,24,52,39,8,-13,-31
-11,3,14,4,-13,8,23,50,38,8,-12,-30
-11,5,15,3,-13,10,21,49,36,8,-10,-29
-10,7,17,1,-13,12,19,47,35,9,-9,-27
-9,7,16,0,-12,12,18,46,33,10,-6,-25
-8,7,15,0,-11,11,16,44,31,11,-4,-23
-8,7,15,0,-11,11,15,42,29,11,-3,-22
-7,8,14,-1,-11,11,13,39,26,11,-2,-21
-6,8,14,-1,-10,10,11,37,23,11,-1,-21
-6,7,13,0,-10,9,9,34,20,10,0,-20
-5,6,12,0,-9,9,8,32,17,10,0,-19
-3,7,11,-2,-7,9,7,31,15,10,1,-18
-1,7,9,-3,-4,9,6,28,12,9,2,-16
0,7,8,-3,-4,8,4,26,9,8,3,-16
-1,7,8,-2,-4,8,3,23,5,6,3,-16
-2,7,8,-2,-5,7,2,20,2,6,3,-16
0,7,7,-3,-4,7,1,18,0,5,3,-16
1,8,7,-5,-3,7,1,16,-2,5,4,-16
2,8,6,-5,-2,7,0,14,-5,4,4,-16
2,7,6,-5,-1,6,0,12,-7,3,4,-16
2,5,5,-4,-1,5,0,9,-10,2,4,-16
1,4,4,-3,-1,4,-1,7,-14,0,3,-16
0,3,3,-2,-1,3,-2,5,-17,-1,3,-16
0,3,2,-2,0,3,-3,3,-19,-2,2,-16
1,3,1,-2,0,2,-3,1,-21,-4,2,-16
2,2,0,-2,0,1,-4,0,-23,-5,1,-17
3,3,0,-3,1,1,-3,-1,-24,-5,0,-18
5,4,0,-4,2,1,-3,-1,-24,-6,0,-17
6,4,0,-5,3,1,-3,-2,-25,-6,0,-17
5,3,-1,-4,3,1,-3,-3,-27,-7,0,-18
4,2,-1,-3,3,0,-3,-4,-28,-8,-1,-19
4,2,-2,-2,3,0,-3,-5,-29,-8,-1,-19
4,2,-2,-2,3,0,-3,-5,-30,-9,-1,-19
5,3,-2,-4,4,0,-3,-6,-30,-9,-1,-19
6,3,-2,-4,4,0,-3,-6,-31,-9,-2,-20
5,1,-2,-2,3,-1,-3,-7,-32,-10,-2,-20
3,0,-2,-1,3,-1,-3,-8,-32,-11,-3,-21
2,-1,-2,0,2,-2,-4,-8,-32,-12,-3,-21
0,-2,-2,1,1,-2,-4,-9,-33,-13,-4,-21
0,-3,-2,2,1,-2,-5,-10,-34,-14,-4,-22
0,-2,-2,1,2,-2,-5,-10,-34,-14,-5,-22
2,-1,-3,0,2,-1,-4,-10,-34,-14,-5,-22
4,0,-3,-2,3,-1,-4,-9,-33,-14,-4,-22
5,0,-4,-2,4,-2,-3,-10,-33,-14,-5,-22
4,-1,-4,-1,3,-3,-3,-10,-33,-14,-5,-23
4,-1,-4,-1,4,-2,-3,-10,-32,-14,-5,-23
4,-1,-5,-1,5,-3,-3,-10,-32,-14,-4,-22
3,-3,-6,0,5,-4,-3,-10,-32,-14,-4,-23
1,-5,-7,2,4,-5,-3,-10,-33,-14,-4,-23
1,-4,-6,2,4,-5,-3,-10,-32,-14,-4,-23
2,-3,-5,1,3,-4,-2,-10,-32,-14,-4,-22
2,-3,-5,1,3,-4,-2,-10,-31,-13,-4,-22
1,-4,-5,2,2,-4,-2,-10,-31,-13,-4,-22
1,-5,-5,2,2,-5,-2,-9,-30,-13,-4,-22
1,-4,-4,2,2,-4,-1,-9,-30,-13,-3,-22
0,-4,-3,2,2,-3,-1,-9,-30,-13,-3,-22
0,-4,-3,2,1,-3,-1,-9,-31,-14,-4,-23
-1,-5,-3,3,0,-4,-1,-9,-31,-14,-4,-23
-2,-7,-4,5,0,-6,-1,-9,-30,-13,-4,-23
-2,-8,-5,5,1,-7,-1,-9,-30,-13,-4,-23
-2,-8,-6,5,1,-7,-1,-9,-29,-13,-4,-24
0,-7,-6,3,2,-6,0,-8,-28,-12,-3,-23
2,-4,-6,1,4,-5,1,-7,-27,-11,-2,-23
3,-4,-7,0,5,-5,1,-7,-26,-10,-1,-22
2,-5,-7,1,5,-6,1,-7,-26,-10,-1,-22
0,-6,-7,2,4,-6,1,-7,-26,-10,-1,-22
0,-5,-6,3,3,-6,1,-8,-26,-10,-1,-22
1,-4,-5,2,3,-5,0,-8,-25,-10,-1,-22
2,-2,-5,0,4,-3,0,-8,-25,-10,-1,-22
3,-1,-4,-1,4,-3,0,-8,-24,-9,-1,-23
2,-2,-4,0,3,-3,0,-8,-24,-9,-1,-23
0,-4,-4,2,2,-4,0,-8,-23,-8,0,-23
0,-4,-3,3,1,-4,1,-8,-23,-7,0,-22
-1,-4,-3,3,1,-3,1,-7,-22,-6,2,-22
0,-4,-4,2,2,-4,1,-7,-21,-5,3,-21
1,-3,-5,1,3,-4,1,-7,-20,-4,4,-21
2,-2,-5,0,4,-4,1,-7,-20,-3,4,-21
3,-1,-5,-1,4,-3,1,-7,-19,-3,4,-21
4,-1,-5,-1,4,-3,1,-7,-19,-3,4,-21
4,-1,-5,-1,4,-3,1,-7,-18,-3,5,-21
4,-1,-5,-1,4,-3,1,-7,-18,-2,5,-20
3,-1,-5,0,4,-3,1,-7,-18,-2,5,-20
2,-2,-4,0,3,-3,1,-7,-18,-2,5,-21
2,-1,-4,0,2,-2,0,-7,-17,-1,6,-21
1,-1,-3,1,1,-2,0,-8,-17,-1,6,-20
0,-2,-2,2,0,-2,0,-8,-17,-1,6,-20
0,-3,-2,2,0,-2,0,-8,-17,-1,6,-20
1,-2,-2,1,1,-2,0,-8,-17,-1,6,-20
1,-1,-2,0,1,-2,0,-9,-17,-1,6,-20
1,-2,-2,0,1,-2,0,-9,-17,-1,6,-21
1,-2,-2,1,1,-2,0,-9,-17,-1,6,-21
1,-3,-3,1,2,-3,0,-9,-17,0,7,-21
1,-2,-2,1,1,-2,-1,-10,-18,-1,6,-21
0,-2,-1,1,0,-1,-1,-10,-18,-1,6,-22
0,-1,0,0,0,0,-1,-10,-18,-1,6,-22
1,0,0,-1,0,0,-1,-10,-18,-1,6,-22
3,2,0,-2,1,1,-1,-10,-18,-1,6,-22
3,2,0,-2,1,1,-1,-10,-18,-1,6,-22
3,3,0,-2,1,1,-1,-10,-17,-1,6,-22
3,3,0,-2,1,1,-1,-11,-17,-1,6,-22
1,1,0,-1,1,0,-2,-12,-18,-1,6,-22
0,-1,0,0,0,0,-3,-13,-19,-2,5,-22
0,-2,-1,1,0,-1,-3,-13,-20,-2,5,-22
-1,-3,-1,2,0,-1,-4,-14,-20,-3,5,-22
0,-2,-1,1,0,-1,-4,-14,-20,-3,5,-21
1,0,0,-1,1,0,-3,-14,-20,-2,6,-21
4,3,0,-3,2,1,-3,-14,-19,-2,7,-20
5,5,0,-5,2,3,-2,-14,-19,-2,7,-20
6,7,1,-7,2,4,-2,-13,-18,-1,7,-19
7,8,1,-7,2,5,-1,-13,-18,-1,7,-19
6,7,1,-6,2,4,-1,-14,-18,-1,7,-19
4,5,1,-4,1,3,-2,-14,-19,-2,7,-20
2,3,1,-3,0,2,-2,-15,-19,-3,6,-21
0,2,1,-1,0,1,-3,-16,-19,-4,5,-21
-1,0,1,0,-1,1,-3,-17,-20,-5,5,-22
-1,0,1,1,-2,1,-4,-17,-20,-5,5,-22
-1,1,2,0,-2,2,-3,-17,-19,-4,5,-21
1,4,3,-2,-2,4,-3,-17,-19,-4,6,-21
2,6,4,-4,-2,6,-2,-16,-18,-3,6,-20
3,8,6,-5,-2,7,-1,-15,-17,-3,7,-19
4,11,7,-7,-2,9,0,-15,-15,-2,8,-18
6,14,8,-10,-1,11,1,-14,-14,-1,9,-17
8,16,9,-12,-1,13,1,-13,-14,0,10,-16
8,17,9,-12,-1,13,1,-13,-14,0,10,-16
8,17,9,-12,-1,13,0,-14,-14,-1,10,-16
9,17,9,-12,-1,13,0,-14,-14,-1,10,-16
8,17,9,-12,-1,13,0,-15,-14,-1,9,-17
7,16,10,-11,-2,13,-1,-16,-15,-2,8,-17
5,15,11,-10,-3,13,-3,-18,-16,-3,8,-18
4,15,11,-9,-3,13,-6,-19,-16,-3,8,-17
5,15,11,-10,-3,13,-7,-19,-15,-2,9,-16
6,17,12,-11,-3,14,-9,-20,-15,-2,10,-16
7,19,13,-13,-3,16,-12,-22,-16,-2,10,-16
8,20,13,-14,-2,16,-14,-23,-16,-2,10,-15
8,21,13,-14,-2,17,-16,-24,-16,-2,11,-14
8,21,13,-14,-2,17,-18,-25,-17,-2,11,-14
9,22,13,-16,-2,18,-19,-26,-17,-3,10,-14
13,26,13,-19,0,19,-19,-26,-17,-3,11,-13
15,28,14,-22,0,21,-19,-26,-17,-3,11,-13
16,28,13,-22,1,20,-19,-26,-18,-3,11,-12
17,28,12,-23,2,20,-19,-26,-18,-3,11,-12
17,28,11,-23,3,20,-19,-26,-18,-3,11,-12
17,27,10,-22,3,19,-19,-26,-18,-3,11,-12
16,24,9,-20,3,17,-19,-26,-18,-3,11,-12
16,22,7,-19,4,15,-19,-25,-17,-2,12,-12
17,22,6,-19,5,14,-18,-24,-16,-2,12,-12
18,21,5,-20,6,13,-17,-23,-17,-2,12,-12
18,20,3,-19,7,11,-16,-23,-17,-2,12,-13
16,18,2,-17,6,10,-15,-23,-17,-2,12,-13
14,17,3,-15,5,10,-14,-23,-16,-2,12,-13
12,16,4,-13,3,10,-12,-23,-16,-2,11,-14
11,15,4,-12,3,10,-10,-23,-16,-3,10,-15
10,14,4,-12,3,9,-8,-23,-16,-4,9,-16
9,12,4,-10,2,8,-7,-24,-17,-4,8,-16
6,9,3,-7,1,6,-7,-25,-18,-6,7,-18
4,6,3,-5,1,4,-6,-26,-19,-7,6,-19
4,5,2,-5,1,3,-6,-26,-19,-7,5,-20
3,4,1,-4,1,2,-6,-26,-20,-8,4,-21
3,3,0,-3,1,2,-5,-27,-20,-9,3,-22
3,3,0,-3,2,2,-5,-27,-21,-9,3,-22
4,3,-1,-3,3,1,-4,-27,-20,-9,3,-22
5,1,-3,-3,4,0,-3,-26,-20,-9,3,-22
4,0,-3,-2,4,-1,-3,-26,-20,-10,3,-22
4,0,-3,-2,3,-1,-2,-26,-20,-10,2,-22
4,0,-3,-2,3,-1,-2,-26,-20,-10,2,-22
5,0,-3,-2,4,-2,-2,-27,-20,-10,2,-22
4,0,-4,-2,4,-2,-2,-27,-20,-10,2,-23
3,-1,-4,0,3,-2,-2,-27,-20,-11,2,-23
1,-3,-4,1,2,-3,-2,-28,-20,-11,1,-24
0,-4,-4,2,2,-4,-2,-28,-19,-11,1,-24
0,-4,-3,2,2,-3,-2,-29,-19,-11,1,-24
0,-3,-2,1,1,-2,-3,-29,-20,-11,1,-24
0,-3,-1,2,1,-2,-3,-29,-20,-11,2,-24
0,-5,-3,2,1,-3,-2,-29,-19,-11,3,-23
0,-5,-4,2,2,-4,-1,-28,-18,-10,3,-22
1,-5,-4,2,2,-4,-1,-28,-18,-9,4,-22
0,-6,-5,3,2,-5,-1,-26,-17,-9,4,-23
0,-8,-7,4,3,-7,0,-22,-14,-6,5,-23
0,-8,-8,4,4,-8,0,-16,-8,-1,8,-23
1,-6,-7,3,4,-7,1,-9,3,7,12,-21
3,-2,-4,0,3,-3,2,0,19,20,19,-17
4,3,0,-3,2,1,2,8,36,33,27,-13
4,9,5,-6,0,7,1,11,46,46,36,-7
5,15,10,-9,-2,13,0,6,44,58,47,0
8,22,14,-14,-3,18,-4,-2,32,71,62,10
12,29,16,-20,-2,23,-10,-9,14,87,81,22
18,35,18,-26,0,27,-16,-12,-5,106,103,36
26,43,18,-34,3,31,-24,-14,-23,130,129,52
37,52,16,-45,10,33,-36,-17,-43,158,160,70
51,60,10,-56,21,34,-54,-27,-69,188,195,90
66,67,2,-67,32,34,-74,-42,-97,219,234,112
82,76,-6,-79,45,35,-96,-58,-121,257,279,139
101,88,-13,-94,57,38,-117,-74,-140,300,328,169
118,103,-15,-110,66,44,-141,-96,-159,336,373,198
128,116,-11,-122,69,53,-167,-135,-184,350,400,219
130,126,-2,-128,65,62,-190,-193,-216,330,394,227
124,130,6,-127,58,68,-207,-257,-253,272,353,216
113,123,11,-118,50,67,-213,-312,-288,187,283,189
100,104,5,-102,47,55,-210,-345,-312,97,200,147
86,76,-9,-81,47,34,-201,-355,-325,14,120,101
72,48,-23,-60,48,13,-188,-353,-333,-63,50,58
58,26,-32,-42,45,-2,-173,-344,-334,-128,-7,23
43,10,-33,-26,38,-11,-156,-326,-319,-164,-43,0
28,0,-27,-14,27,-13,-138,-301,-292,-172,-61,-15
15,-3,-18,-6,16,-10,-121,-271,-258,-165,-67,-25
6,-4,-9,-1,7,-7,-105,-241,-225,-152,-68,-31
0,-4,-3,1,2,-4,-89,-211,-193,-137,-66,-36
-3,-2,1,2,-1,0,-74,-183,-164,-121,-62,-39
-4,-1,3,3,-3,1,-60,-156,-136,-105,-56,-40
-5,-2,3,4,-4,1,-45,-131,-112,-90,-50,-41
-5,-4,0,5,-3,-1,-32,-108,-90,-77,-43,-41
-5,-9,-3,7,-1,-6,-21,-89,-72,-65,-37,-41
-6,-13,-7,10,0,-10,-12,-73,-57,-55,-31,-40
-7,-17,-10,12,0,-14,-5,-60,-44,-47,-27,-40
-8,-21,-12,14,1,-17,0,-50,-34,-40,-23,-39
-9,-21,-11,15,1,-17,3,-42,-26,-35,-20,-37
-10,-20,-9,15,0,-14,5,-36,-20,-30,-18,-36
-10,-18,-6,15,-1,-11,7,-32,-14,-27,-16,-34
-10,-15,-4,14,-2,-9,9,-28,-10,-24,-14,-33
-9,-13,-3,12,-2,-8,12,-25,-6,-21,-12,-31
-8,-12,-3,11,-2,-8,13,-23,-3,-19,-10,-30
-9,-12,-3,10,-3,-8,14,-21,-2,-18,-9,-30
-9,-12,-3,10,-3,-8,15,-19,0,-17,-9,-29
-8,-11,-3,9,-2,-7,16,-17,1,-15,-8,-29
-6,-9,-3,8,-1,-6,16,-15,3,-14,-8,-28
-5,-9,-3,7,0,-6,16,-13,4,-13,-7,-28
-4,-9,-4,7,0,-6,17,-12,6,-12,-7,-28
-5,-9,-3,7,-1,-6,17,-11,6,-12,-6,-28
-6,-9,-3,7,-2,-6,17,-11,7,-12,-6,-28
-7,-11,-3,8,-2,-8,17,-11,7,-11,-6,-28
-7,-12,-4,9,-1,-9,18,-10,8,-11,-6,-27
-6,-13,-5,9,0,-10,18,-9,8,-11,-6,-27
-6,-13,-6,9,0,-10,18,-8,9,-11,-6,-27
-7,-13,-6,10,0,-10,17,-8,9,-11,-6,-27
-7,-14,-5,11,-1,-10,17,-8,10,-11,-6,-27
-8,-13,-5,11,-1,-9,18,-7,11,-10,-6,-27
-8,-13,-4,10,-2,-9,19,-7,12,-9,-5,-27
-8,-12,-4,10,-2,-9,19,-6,12,-9,-5,-27
-8,-12,-4,9,-1,-9,19,-6,13,-9,-5,-27
-8,-12,-4,10,-1,-9,19,-5,13,-9,-5,-27
-9,-14,-4,11,-2,-10,19,-5,13,-9,-6,-27
-11,-17,-4,14,-3,-11,18,-6,12,-10,-6,-28
-13,-20,-5,17,-4,-12,18,-6,12,-10,-6,-29
-14,-20,-5,18,-4,-13,18,-6,12,-10,-6,-29
-13,-19,-5,17,-4,-12,18,-5,13,-10,-6,-28
-11,-17,-5,15,-3,-12,19,-4,14,-9,-5,-27
-10,-16,-5,13,-3,-11,19,-4,15,-9,-5,-27
-9,-15,-5,12,-2,-11,19,-3,16,-9,-5,-26
-8,-14,-5,11,-1,-11,20,-3,16,-8,-4,-26
-7,-13,-5,10,-1,-10,20,-2,17,-8,-4,-25
-6,-13,-5,10,0,-9,21,-1,18,-7,-4,-25
-5,-12,-5,9,0,-9,21,0,19,-7,-4,-24
-5,-12,-5,9,0,-9,22,0,20,-6,-4,-24
-6,-13,-5,10,0,-9,22,1,21,-6,-4,-24
-7,-13,-4,10,-1,-9,22,1,21,-6,-4,-24
-7,-12,-4,10,-2,-9,22,2,21,-6,-4,-24
-6,-11,-4,10,-1,-8,22,2,22,-6,-4,-24
-6,-11,-4,9,-1,-8,22,3,22,-5,-4,-24
-6,-11,-4,9,0,-8,22,4,23,-5,-4,-24
-6,-11,-4,9,0,-8,22,4,24,-5,-4,-24
-6,-11,-4,9,-1,-8,22,5,25,-5,-4,-24
-7,-12,-5,10,-1,-8,23,5,25,-5,-5,-24
-7,-13,-5,10,-1,-9,23,5,26,-6,-5,-25
-8,-13,-5,11,-2,-9,22,5,26,-6,-6,-25
-8,-13,-4,10,-2,-9,22,6,27,-6,-6,-25
-8,-12,-4,10,-2,-8,23,7,28,-6,-5,-24
-8,-11,-3,9,-3,-7,24,9,30,-6,-5,-24
-8,-11,-2,10,-3,-7,24,10,31,-5,-5,-24
-9,-11,-1,11,-4,-7,25,11,32,-5,-5,-24
-11,-13,-2,12,-4,-8,25,12,33,-6,-5,-24
-12,-16,-2,14,-5,-9,24,12,33,-6,-6,-25
-13,-17,-2,15,-5,-10,24,12,33,-7,-7,-25
-13,-17,-3,15,-5,-10,24,13,34,-6,-8,-25
-13,-17,-3,15,-5,-10,25,15,36,-6,-8,-25
-12,-16,-3,14,-5,-9,26,17,38,-5,-8,-25
-11,-14,-2,12,-4,-8,26,19,40,-5,-8,-25
-10,-11,0,11,-5,-6,26,20,42,-5,-8,-25
-10,-9,1,9,-5,-4,26,21,43,-6,-9,-26
-9,-9,0,9,-4,-4,27,23,45,-5,-9,-25
-8,-10,-1,9,-3,-6,29,25,47,-4,-8,-24
-7,-10,-1,8,-2,-6,30,27,49,-3,-8,-24
-6,-9,-1,7,-2,-6,31,29,52,-3,-8,-24
-6,-9,-2,8,-2,-6,32,31,54,-2,-8,-24
-7,-10,-2,8,-2,-6,33,33,56,-2,-8,-24
-7,-10,-2,9,-2,-6,33,35,57,-2,-9,-24
-8,-10,-1,9,-2,-6,33,36,59,-2,-9,-24
-9,-10,-1,10,-3,-6,34,38,60,-2,-10,-24
-9,-10,0,10,-4,-6,34,39,62,-2,-11,-24
-10,-10,1,10,-5,-5,34,40,64,-2,-12,-24
-12,-10,2,10,-7,-4,34,41,65,-3,-13,-25
-12,-10,3,10,-8,-3,35,42,67,-3,-13,-26
-12,-9,4,10,-8,-3,35,44,68,-3,-14,-26
-13,-9,4,11,-9,-3,35,45,70,-3,-14,-26
-14,-9,4,11,-9,-3,35,46,71,-4,-15,-26
-13,-8,5,10,-9,-2,36,47,72,-4,-15,-26
-12,-6,5,9,-9,-1,36,48,74,-4,-16,-25
-12,-6,6,9,-9,0,35,49,75,-4,-16,-25
-12,-5,7,9,-10,0,35,49,75,-5,-17,-25
-12,-4,8,8,-10,1,35,50,76,-5,-17,-25
-12,-3,9,7,-11,3,35,50,76,-5,-17,-24
-13,-2,10,7,-11,3,34,50,77,-5,-17,-24
-13,-3,10,8,-11,3,33,50,77,-5,-17,-24
-12,-2,10,7,-10,3,33,51,77,-5,-16,-23
-10,-1,10,6,-10,4,32,51,78,-5,-16,-22
-10,0,10,5,-10,4,31,51,78,-5,-16,-22
-10,-1,10,5,-10,4,30,51,78,-5,-16,-21
-10,0,10,5,-10,4,29,51,78,-5,-16,-21
-10,0,11,4,-11,5,28,50,78,-4,-15,-20
-9,2,11,3,-11,6,27,50,78,-3,-14,-19
-9,2,11,3,-11,7,26,50,78,-2,-12,-17
-9,4,13,2,-11,8,26,50,77,-1,-10,-15
-7,7,14,0,-11,10,25,49,77,0,-8,-13
-4,10,15,-3,-10,12,24,49,76,1,-6,-11
-1,13,15,-6,-9,13,23,48,75,3,-4,-9
0,14,15,-7,-8,14,21,46,73,4,-2,-7
0,14,15,-7,-7,14,20,44,71,4,-1,-6
0,13,14,-6,-7,13,18,42,68,4,0,-6
0,13,14,-6,-7,13,16,39,64,5,1,-5
0,14,14,-7,-6,14,15,37,61,5,3,-4
2,15,13,-8,-5,14,14,35,59,6,5,-2
2,16,13,-9,-5,14,13,33,56,6,6,-1
3,16,14,-9,-5,15,12,31,53,6,8,0
3,16,13,-9,-5,14,11,28,50,6,8,0
3,15,12,-9,-4,13,10,26,46,6,9,0
2,14,12,-8,-4,13,9,23,42,5,9,0
1,12,11,-6,-5,12,7,20,39,5,8,0
0,10,10,-5,-5,11,6,17,35,4,8,0
0,10,10,-5,-4,10,5,15,32,3,8,0
1,10,10,-6,-4,9,5,13,29,2,8,0
2,11,9,-6,-3,9,5,11,26,2,8,1
2,10,8,-6,-3,9,4,10,24,1,8,1
2,10,7,-6,-3,9,4,8,22,1,8,1
3,10,7,-6,-2,8,4,6,19,0,8,1
4,10,6,-7,-1,8,4,5,17,0,9,1
4,10,6,-7,0,7,4,3,14,-1,8,1
3,9,5,-6,0,6,3,1,11,-2,7,0
2,7,5,-4,-1,5,2,0,9,-4,6,0
2,6,5,-4,-1,5,2,-1,7,-5,6,-1
2,6,5,-4,-1,4,2,-2,6,-6,5,-1
1,5,4,-3,-1,3,2,-3,4,-6,5,-2
1,3,3,-2,-1,3,2,-4,2,-7,4,-3
0,2,3,-1,-1,2,1,-5,0,-8,3,-3
0,2,3,0,-1,2,1,-6,-1,-9,2,-4
-1,1,2,0,-1,2,1,-7,-2,-9,2,-4
-2,0,2,0,-1,1,1,-8,-3,-10,1,-4
-3,-1,2,2,-2,0,0,-9,-4,-12,0,-5
-4,-3,2,3,-2,-1,0,-10,-5,-12,-1,-6
-3,-3,2,3,-2,-1,0,-10,-6,-12,-1,-7
-2,-2,2,2,-2,0,0,-10,-6,-12,-1,-7
0,0,2,0,-1,0,1,-9,-6,-12,-1,-6
1,2,2,-1,-1,1,2,-9,-6,-11,0,-5
1,2,1,-1,-1,1,2,-9,-5,-11,0,-5
1,2,1,-1,0,1,2,-9,-5,-11,0,-5
2,3,1,-2,0,1,3,-9,-5,-11,0,-4
2,2,0,-2,1,1,3,-8,-5,-11,0,-4
2,1,0,-1,1,0,2,-9,-6,-11,0,-5
1,0,0,-1,1,0,2,-9,-7,-12,-1,-5
1,0,0,-1,1,0,2,-10,-8,-13,-1,-6
2,0,-1,-1,1,0,2,-10,-8,-13,-1,-6
1,0,0,-1,0,0,2,-10,-8,-13,-2,-6
-1,0,0,1,-1,0,2,-11,-9,-13,-2,-6
-3,-2,0,2,-1,-1,1,-11,-9,-14,-3,-7
-3,-2,1,3,-2,-1,1,-10,-9,-14,-3,-7
-4,-3,1,3,-2,-1,1,-10,-9,-14,-3,-7
-4,-3,1,3,-2,-1,1,-10,-9,-14,-3,-7
-3,-2,1,2,-2,-1,2,-10,-9,-14,-3,-7
-1,-1,1,1,-2,0,2,-10,-9,-14,-3,-7
-1,0,1,1,-1,0,2,-10,-9,-14,-3,-7
-1,0,1,0,-1,0,2,-10,-9,-14,-3,-7
0,1,1,0,-1,0,2,-10,-9,-14,-3,-7
1,3,2,-2,0,2,2,-10,-8,-14,-3,-7
2,4,2,-3,0,3,3,-9,-8,-13,-3,-6
1,4,2,-2,0,3,4,-8,-7,-12,-2,-6
0,2,3,-1,-1,2,4,-8,-7,-12,-2,-5
-1,2,4,0,-2,3,4,-9,-8,-13,-3,-6
-2,1,4,0,-3,3,3,-9,-8,-13,-3,-6
-3,0,4,1,-3,2,3,-9,-8,-14,-3,-6
-4,-1,4,2,-4,1,3,-9,-8,-14,-3,-6
-4,0,4,2,-4,2,3,-9,-8,-14,-3,-6
-4,0,5,1,-5,2,3,-9,-8,-13,-3,-6
-4,0,5,1,-4,2,3,-9,-8,-13,-3,-7
-4,-1,4,2,-4,1,3,-9,-8,-12,-3,-7
-4,-2,3,3,-4,0,4,-9,-7,-12,-3,-7
-3,-1,3,2,-4,1,4,-9,-7,-11,-3,-7
-3,-1,3,2,-4,1,4,-9,-6,-11,-2,-7
-4,-1,3,2,-4,1,4,-9,-6,-11,-2,-7
-5,-1,4,2,-4,1,4,-9,-6,-11,-2,-7
-6,-1,5,3,-6,1,4,-9,-6,-11,-2,-7
-8,-1,6,4,-7,1,3,-10,-6,-10,-2,-7
-8,-2,6,4,-7,1,3,-10,-6,-10,-2,-7
-6,-1,6,3,-6,1,3,-9,-5,-9,-2,-6
-5,0,6,2,-5,2,4,-9,-5,-8,-1,-6
-5,1,7,2,-6,3,4,-8,-4,-7,-1,-6
-4,3,8,1,-6,4,4,-8,-3,-5,0,-5
-3,5,8,-1,-5,5,5,-7,-2,-4,0,-4
-2,6,8,-2,-5,6,5,-7,-1,-3,0,-3
-3,5,8,-1,-6,6,5,-7,-1,-3,0,-3
-5,4,8,0,-6,6,5,-7,-1,-3,0,-3
-5,3,8,1,-6,6,4,-7,-1,-3,1,-4
-5,2,8,2,-6,5,4,-7,-1,-3,1,-4
-7,0,8,4,-7,4,3,-8,-1,-3,0,-5
-8,0,9,4,-8,5,3,-8,0,-2,0,-5
-6,4,11,1,-9,7,4,-7,1,0,1,-4
-3,9,12,-3,-9,10,5,-5,3,1,3,-3
-1,12,13,-5,-8,12,6,-4,5,3,4,-1
0,14,14,-7,-8,13,7,-2,6,4,6,0
0,15,14,-8,-8,14,8,-1,7,5,6,0
1,15,15,-8,-7,15,8,-1,8,6,6,0
1,15,15,-7,-7,15,7,-1,8,6,6,0
0,15,15,-7,-7,15,7,-1,7,6,6,0
-1,14,15,-6,-8,14,6,-2,7,5,6,0
-1,14,15,-6,-8,15,5,-2,7,5,5,0
-1,15,16,-7,-9,16,5,-2,7,5,5,0
0,16,16,-9,-9,16,5,-2,7,6,6,0
0,17,17,-9,-8,16,3,-3,6,6,6,1
-1,16,18,-8,-9,16,0,-5,5,5,6,1
-2,16,18,-7,-10,17,-3,-6,5,5,6,1
-1,17,19,-8,-10,18,-5,-7,4,5,6,1
1,19,19,-10,-9,19,-7,-8,4,5,6,2
2,20,18,-11,-9,19,-9,-8,3,5,6,2
3,21,18,-12,-8,19,-12,-9,2,4,5,2
3,22,18,-12,-8,19,-13,-10,1,4,5,2
5,23,18,-14,-7,20,-14,-11,0,3,5,3
5,24,18,-15,-7,21,-15,-12,-1,3,5,3
5,24,18,-14,-6,20,-16,-13,-3,2,4,3
5,23,18,-14,-6,20,-16,-13,-4,1,4,2
6,24,18,-15,-5,20,-16,-13,-4,1,4,3
10,27,17,-18,-3,22,-15,-11,-3,2,5,4
13,28,16,-21,-1,22,-14,-10,-2,3,6,4
15,28,13,-21,0,20,-14,-9,-2,2,5,4
15,25,11,-20,1,18,-14,-9,-3,2,5,3
14,24,9,-19,2,16,-14,-8,-3,2,5,3
14,23,8,-18,2,15,-13,-8,-4,2,5,3
15,21,7,-18,4,14,-11,-7,-3,2,5,3
14,19,5,-16,4,12,-10,-6,-3,2,5,3
11,15,5,-13,3,10,-9,-6,-4,1,4,2
6,12,7,-9,0,9,-9,-7,-5,0,2,1
1,9,8,-5,-4,8,-8,-8,-6,-2,0,0
-1,7,8,-3,-5,8,-6,-9,-7,-3,0,-1
-1,7,8,-3,-5,7,-5,-9,-8,-3,-1,-2
-1,7,7,-3,-5,7,-4,-10,-9,-4,-1,-2
0,7,7,-3,-4,6,-2,-9,-9,-4,-2,-3
0,7,6,-3,-3,6,-1,-9,-9,-5,-2,-3
0,5,5,-2,-3,5,0,-9,-10,-6,-3,-4
-1,2,4,0,-3,3,0,-10,-11,-8,-5,-6
-3,0,4,1,-4,2,-1,-11,-13,-10,-7,-7
-4,0,4,2,-5,1,-1,-12,-14,-11,-8,-8
-4,-1,3,2,-5,1,0,-12,-15,-11,-9,-8
-3,-1,3,2,-4,1,0,-12,-15,-12,-9,-8
-3,-1,2,2,-4,1,0,-12,-15,-12,-9,-8
-4,-1,2,2,-4,1,0,-12,-15,-13,-10,-9
-6,-3,2,4,-5,0,0,-12,-16,-13,-10,-9
-9,-6,3,7,-7,-1,0,-13,-17,-14,-11,-10
-11,-7,3,9,-7,-2,0,-13,-17,-14,-11,-10
-10,-6,3,8,-7,-2,0,-13,-17,-14,-11,-10
-8,-5,3,6,-6,-1,1,-12,-17,-13,-11,-9
-7,-4,2,5,-5,-1,2,-12,-17,-13,-11,-9
-7,-4,2,6,-4,-2,2,-12,-17,-13,-11,-10
-8,-6,1,7,-4,-3,2,-11,-17,-14,-12,-10
-9,-7,1,8,-5,-3,4,-10,-16,-14,-12,-11
-8,-6,2,7,-5,-2,7,-8,-15,-14,-12,-11
-8,-5,2,6,-5,-1,10,-6,-13,-14,-13,-11
-8,-7,1,7,-5,-2,13,-2,-11,-14,-14,-12
-10,-9,0,10,-6,-4,16,3,-8,-14,-15,-14
-12,-11,0,12,-7,-5,19,10,-1,-11,-15,-15
-13,-10,2,12,-8,-4,22,19,9,-5,-13,-14
-13,-6,6,10,-10,0,24,30,26,4,-8,-12
-12,1,12,6,-12,6,25,40,44,16,-1,-8
-11,8,17,2,-14,13,23,44,57,29,7,-1
-9,15,23,-3,-16,19,16,39,59,42,19,7
-3,24,27,-10,-16,26,3,30,51,59,35,18
5,35,30,-20,-13,32,-13,24,39,80,57,32
16,46,30,-31,-7,37,-30,23,27,107,84,50
31,60,29,-45,0,43,-49,26,17,140,117,71
51,76,26,-63,12,50,-73,27,5,177,155,95
72,92,20,-82,25,56,-103,20,-15,216,195,119
94,105,11,-100,40,58,-135,7,-40,256,237,144
116,117,1,-117,57,60,-165,-4,-60,301,284,172
137,130,-8,-134,72,61,-193,-14,-72,351,336,202
154,143,-11,-149,82,66,-220,-34,-84,393,382,230
163,156,-7,-159,84,74,-245,-77,-105,410,407,250
163,166,2,-164,79,83,-264,-143,-137,385,398,255
154,167,12,-160,70,89,-273,-216,-178,319,352,243
140,157,16,-148,61,86,-271,-279,-218,224,279,214
124,134,10,-128,56,71,-258,-316,-248,128,196,171
108,104,-4,-106,56,49,-239,-326,-267,44,119,125
90,74,-17,-82,54,28,-217,-324,-281,-33,52,83
72,49,-24,-61,47,13,-195,-316,-289,-97,-3,48
54,31,-22,-43,37,5,-174,-298,-281,-135,-40,22
36,22,-13,-29,24,4,-152,-273,-258,-146,-58,5
20,17,-3,-18,11,6,-131,-243,-229,-142,-66,-5
9,12,3,-11,2,7,-112,-212,-200,-132,-68,-12
0,8,7,-4,-3,7,-94,-183,-171,-120,-67,-18
-6,3,10,1,-8,6,-77,-155,-146,-107,-65,-22
-10,0,10,5,-10,5,-60,-129,-122,-94,-62,-25
-12,-4,7,8,-10,2,-45,-105,-101,-82,-58,-27
-13,-9,3,11,-9,-2,-31,-85,-84,-71,-54,-29
-13,-13,-1,13,-7,-7,-20,-67,-69,-62,-50,-30
-12,-18,-6,15,-5,-12,-10,-51,-55,-53,-45,-30
-12,-21,-9,17,-2,-16,-3,-39,-44,-45,-41,-30
-13,-23,-10,18,-2,-17,2,-29,-35,-39,-38,-29
-13,-21,-8,17,-3,-15,7,-22,-28,-34,-34,-27
-12,-18,-5,15,-4,-11,10,-16,-22,-29,-31,-25
-12,-15,-3,14,-5,-8,13,-11,-17,-26,-29,-23
-13,-15,-2,14,-6,-8,15,-8,-14,-24,-28,-22
-15,-16,-2,16,-7,-9,16,-6,-11,-23,-27,-22
-16,-18,-2,18,-8,-11,16,-5,-10,-23,-27,-22
-18,-20,-2,19,-9,-12,16,-4,-9,-22,-27,-23
-20,-21,-1,20,-9,-12,16,-3,-7,-21,-26,-23
-18,-20,-1,19,-9,-11,17,-1,-5,-19,-25,-22
-16,-18,-1,17,-8,-10,18,1,-3,-17,-24,-21
-16,-17,-1,16,-7,-9,19,3,-1,-16,-24,-20
-16,-17,-1,16,-7,-9,20,4,0,-15,-23,-20
-15,-17,-2,16,-7,-9,20,5,0,-14,-23,-19
-14,-16,-2,15,-6,-9,21,6,0,-14,-22,-19
-12,-15,-2,14,-6,-9,21,6,1,-13,-22,-18
-12,-14,-2,13,-5,-9,21,7,1,-13,-22,-18
-12,-15,-2,14,-5,-10,21,8,2,-12,-21,-18
-13,-15,-2,14,-5,-10,21,9,3,-12,-21,-18
-13,-16,-3,15,-5,-10,22,10,4,-11,-21,-18
-14,-17,-3,16,-5,-11,22,11,5,-10,-21,-18
-16,-19,-4,18,-6,-12,22,11,5,-10,-21,-18
-17,-20,-4,19,-7,-12,22,11,5,-10,-21,-18
-16,-19,-3,18,-7,-12,22,11,6,-10,-21,-18
-15,-19,-3,18,-6,-12,23,11,6,-9,-20,-17
-15,-19,-4,18,-6,-12,23,12,6,-9,-20,-17
-15,-19,-4,17,-6,-12,23,12,7,-8,-20,-17
-15,-19,-4,17,-6,-12,23,12,7,-8,-21,-17
-16,-20,-4,18,-6,-12,23,12,7,-8,-21,-17
-19,-22,-4,21,-7,-14,23,12,8,-9,-21,-17
-22,-25,-3,23,-9,-15,22,12,8,-9,-21,-17
-23,-26,-3,25,-10,-15,22,13,8,-9,-21,-18
-22,-26,-4,23,-9,-15,22,14,8,-9,-21,-17
-17,-22,-4,19,-7,-13,23,15,10,-7,-20,-16
-13,-18,-4,15,-5,-11,24,16,12,-6,-19,-15
-11,-16,-5,13,-4,-11,25,17,13,-6,-19,-14
-11,-16,-5,13,-3,-11,25,17,13,-5,-19,-14
-12,-16,-4,14,-4,-11,25,17,13,-5,-19,-15
-13,-17,-4,15,-5,-11,25,18,14,-5,-19,-15
-14,-17,-3,16,-6,-11,25,18,14,-5,-19,-14
-15,-17,-2,16,-6,-11,25,19,15,-5,-19,-14
-15,-17,-2,17,-7,-11,25,19,15,-5,-19,-14
-15,-18,-2,17,-7,-11,25,19,16,-5,-20,-15
-16,-19,-3,17,-7,-11,25,19,17,-5,-20,-15
-15,-18,-3,17,-6,-11,26,20,18,-4,-20,-15
-14,-19,-4,17,-5,-12,26,21,18,-4,-20,-15
-15,-19,-4,17,-5,-12,26,21,19,-4,-20,-15
-15,-19,-4,17,-6,-11,26,22,19,-4,-20,-15
-16,-19,-3,17,-6,-11,26,22,20,-4,-20,-15
-16,-19,-3,17,-6,-12,27,23,22,-3,-20,-15
-16,-20,-4,17,-6,-12,27,24,23,-2,-20,-15
-17,-20,-4,18,-7,-12,28,25,24,-2,-21,-15
-17,-19,-3,17,-7,-11,29,26,25,-2,-21,-14
-15,-17,-2,16,-7,-10,30,28,27,0,-20,-13
-14,-16,-2,15,-7,-9,31,30,29,0,-20,-13
-14,-15,-2,15,-7,-8,32,31,30,0,-20,-13
-16,-16,-1,17,-8,-9,32,32,31,0,-21,-13
-18,-18,-1,18,-8,-10,31,32,32,0,-21,-14
-19,-19,-1,19,-9,-10,31,33,33,0,-22,-15
-18,-17,0,18,-9,-8,31,34,33,0,-23,-16
-19,-17,1,18,-10,-8,32,35,35,0,-23,-16
-20,-19,0,19,-10,-10,33,38,37,0,-23,-15
-20,-21,0,21,-10,-11,34,40,39,0,-23,-15
-21,-21,0,21,-10,-11,35,41,41,0,-24,-15
-20,-21,0,20,-10,-11,36,42,42,0,-24,-15
-19,-20,0,20,-9,-11,37,44,44,1,-24,-16
-20,-21,0,21,-10,-11,37,45,46,1,-24,-16
-21,-21,0,21,-10,-11,38,46,47,1,-25,-17
-20,-20,0,20,-10,-10,39,48,48,1,-26,-17
-20,-19,1,19,-11,-9,40,50,51,2,-26,-17
-20,-17,2,18,-11,-8,41,52,53,2,-26,-17
-19,-16,4,17,-12,-6,43,54,55,3,-26,-17
-19,-15,5,17,-12,-5,44,55,57,3,-26,-17
-21,-15,6,18,-13,-5,45,56,58,2,-27,-17
-22,-15,7,19,-15,-4,45,57,59,2,-28,-17
-23,-15,8,19,-16,-4,46,57,61,2,-28,-17
-24,-15,9,19,-17,-3,46,58,62,2,-29,-17
-24,-15,9,20,-17,-3,46,58,62,2,-30,-18
-25,-16,9,20,-18,-3,46,58,63,1,-30,-19
-25,-15,10,20,-18,-3,47,59,64,1,-31,-19
-25,-15,10,20,-18,-2,47,60,65,1,-31,-19
-26,-15,10,21,-18,-2,47,60,65,1,-32,-19
-26,-14,12,20,-19,-1,47,60,66,1,-32,-18
-26,-11,13,18,-19,1,47,60,66,1,-32,-18
-25,-10,14,18,-19,2,47,60,67,1,-32,-18
-25,-11,13,18,-19,1,47,60,67,1,-31,-17
-25,-12,14,19,-20,1,47,60,68,1,-31,-16
-25,-11,15,18,-21,2,46,59,68,1,-32,-15
-25,-9,17,18,-22,3,45,59,68,0,-32,-15
-25,-9,17,17,-22,4,45,58,68,0,-31,-14
-25,-8,17,17,-22,4,44,58,67,0,-31,-13
-26,-8,18,17,-22,5,42,56,66,0,-31,-13
-26,-7,18,16,-22,5,41,55,65,0,-31,-13
-24,-5,18,15,-22,6,39,54,64,1,-29,-11
-22,-3,18,13,-21,7,38,53,63,2,-28,-9
-21,-2,19,11,-21,8,37,52,62,3,-26,-8
-20,-1,20,10,-21,9,36,50,61,3,-25,-6
-18,0,20,9,-20,9,34,49,59,4,-23,-4
-17,1,19,8,-19,9,32,47,56,5,-21,-3
-17,1,18,8,-18,9,30,45,54,5,-20,-2
-17,1,17,8,-18,9,28,43,50,5,-18,-1
-17,2,17,7,-17,10,26,40,47,5,-17,0
-15,3,18,5,-17,11,24,38,44,6,-16,1
-13,5,18,3,-16,12,23,36,41,6,-14,3
-10,7,17,1,-15,12,22,34,38,6,-13,5
-8,7,16,0,-13,11,20,31,34,6,-13,5
-8,6,14,0,-11,10,18,29,30,5,-12,6
-8,5,13,1,-11,9,16,26,27,5,-11,7
-8,5,12,1,-10,9,15,24,24,5,-10,7
-8,5,12,1,-9,8,13,22,21,4,-10,7
-8,4,11,2,-9,7,12,19,18,3,-11,7
-8,2,11,2,-9,6,10,16,14,2,-11,7
-7,2,9,2,-8,5,9,14,11,2,-11,8
-5,2,8,1,-7,5,8,12,9,1,-11,8
-4,2,6,0,-5,4,7,11,7,1,-10,8
-3,2,5,0,-4,4,7,9,5,0,-10,9
-2,2,4,0,-3,3,7,9,3,0,-10,10
-1,3,3,-1,-2,4,6,8,1,0,-9,10
0,4,3,-1,-2,4,6,6,-1,0,-9,10
-1,3,3,-1,-2,3,5,4,-3,-1,-10,10
-2,1,3,0,-3,2,5,2,-5,-2,-10,10
-2,0,3,0,-3,2,4,1,-7,-3,-11,9
-3,0,3,1,-3,2,4,0,-8,-3,-11,9
-3,-1,2,1,-3,1,4,0,-9,-4,-12,9
-3,-2,1,2,-3,0,3,-1,-10,-5,-13,9
-3,-2,0,2,-3,-1,3,-2,-12,-5,-13,8
-3,-2,0,2,-3,-1,3,-3,-13,-6,-14,8
-2,-1,0,1,-2,-1,2,-4,-14,-7,-14,7
-1,-2,0,1,-1,-1,2,-5,-15,-7,-15,7
-1,-3,-1,2,0,-2,2,-5,-15,-7,-15,7
0,-3,-2,1,0,-3,2,-5,-15,-7,-15,7
0,-2,-2,1,1,-2,3,-5,-15,-7,-15,7
-1,-3,-1,2,0,-2,2,-5,-16,-8,-16,7
-3,-4,-1,4,-1,-3,2,-6,-17,-9,-17,6
-4,-5,-1,5,-2,-3,2,-6,-17,-9,-17,6
-5,-6,-2,6,-2,-4,2,-6,-18,-10,-17,6
-4,-7,-2,6,-1,-5,2,-6,-18,-10,-17,6
-3,-6,-3,5,0,-5,2,-6,-18,-10,-17,6
-2,-5,-2,4,0,-4,2,-6,-18,-11,-17,6
-2,-4,-2,3,0,-3,3,-6,-18,-11,-18,7
-2,-4,-2,3,0,-3,2,-7,-18,-12,-18,7
-3,-4,-1,4,-1,-3,2,-7,-18,-12,-19,7
-3,-4,-1,4,-1,-3,3,-6,-18,-12,-19,7
-3,-4,-1,4,-1,-3,3,-6,-18,-12,-19,8
-4,-4,-1,4,-2,-3,3,-7,-18,-12,-19,7
-5,-5,0,5,-2,-3,3,-7,-18,-13,-20,7
-4,-6,-1,5,-2,-3,3,-6,-18,-13,-20,7
-3,-4,-1,3,-1,-3,4,-6,-18,-13,-20,8
-2,-4,-1,3,-1,-2,4,-6,-19,-13,-20,8
-3,-5,-1,4,-1,-3,3,-7,-20,-14,-21,8
-4,-5,-1,4,-2,-3,4,-7,-20,-15,-22,7
-3,-4,-1,4,-2,-2,4,-7,-20,-14,-22,8
-3,-4,-1,4,-1,-3,4,-7,-19,-14,-22,8
-3,-5,-2,4,-1,-3,5,-7,-19,-14,-22,8
-2,-3,-1,3,-1,-2,5,-7,-19,-14,-22,7
-2,-2,0,2,-1,-1,4,-7,-20,-15,-23,7
-3,-4,0,4,-2,-3,4,-7,-20,-15,-24,6
-4,-8,-2,6,-1,-5,4,-7,-20,-14,-23,6
-5,-9,-3,7,-1,-6,5,-6,-19,-14,-23,6
-5,-8,-3,6,-1,-5,5,-6,-19,-13,-22,6
-5,-7,-2,6,-2,-4,6,-6,-18,-13,-22,6
-5,-6,-1,6,-2,-4,6,-6,-18,-12,-22,6
-6,-6,0,6,-3,-3,6,-6,-17,-12,-22,6
-5,-5,0,5,-3,-3,6,-5,-17,-11,-22,6
-4,-5,0,5,-2,-3,7,-4,-16,-10,-21,7
-4,-6,0,5,-2,-3,7,-4,-15,-10,-21,7
-5,-7,0,6,-3,-3,6,-4,-15,-9,-21,6
-6,-7,0,7,-3,-4,6,-4,-15,-9,-21,5
-6,-7,0,7,-3,-3,6,-4,-15,-8,-21,5
-7,-7,0,7,-3,-4,6,-4,-15,-8,-21,5
-7,-6,0,6,-3,-4,6,-4,-15,-8,-21,5
-6,-5,0,5,-3,-3,6,-4,-14,-7,-20,5
-6,-5,0,5,-3,-3,6,-3,-13,-6,-20,6
-6,-5,0,5,-3,-3,6,-3,-12,-5,-20,6
-6,-6,0,6,-3,-3,6,-2,-12,-4,-19,5
-7,-7,0,7,-4,-3,6,-2,-12,-4,-19,5
-9,-7,1,8,-5,-3,6,-2,-11,-4,-19,5
-10,-8,1,9,-5,-3,6,-2,-11,-4,-19,5
-10,-8,1,9,-5,-3,6,-2,-11,-3,-19,5
-8,-7,1,7,-4,-3,7,-1,-10,-2,-18,5
-6,-6,1,6,-3,-3,7,0,-10,-1,-18,6
-5,-5,1,5,-3,-3,7,0,-9,-1,-17,6
-4,-4,1,4,-3,-2,7,0,-9,0,-17,6
-4,-4,2,4,-3,-1,7,1,-8,0,-16,7
-4,-4,1,4,-3,-1,7,1,-8,0,-15,8
-5,-4,1,4,-3,-1,7,1,-7,1,-15,8
-4,-3,1,4,-3,-1,7,1,-7,1,-16,8
-3,-3,0,3,-2,-1,6,1,-7,1,-16,8
-3,-2,1,3,-2,-1,6,1,-7,1,-16,8
-3,-1,2,3,-2,0,7,1,-7,1,-15,9
-2,0,3,1,-2,1,7,2,-6,2,-14,10
-2,1,4,0,-2,2,8,2,-6,3,-14,10
-3,1,4,1,-3,3,8,2,-5,4,-14,10
-5,1,6,1,-5,4,8,2,-5,4,-14,10
-5,2,8,1,-6,5,8,2,-5,4,-14,10
-5,2,8,1,-6,5,9,3,-4,4,-13,10
-5,2,7,1,-5,4,10,4,-4,5,-13,11
-4,2,6,1,-4,3,10,4,-4,4,-13,12
-3,3,6,0,-4,4,9,4,-5,4,-13,12
-1,5,6,-2,-3,5,9,4,-4,4,-13,12
0,6,6,-3,-3,5,9,4,-4,4,-13,12
0,6,6,-3,-3,6,9,4,-4,4,-12,12
0,7,6,-4,-3,6,9,4,-4,4,-12,13
1,7,7,-4,-3,7,6,3,-4,4,-12,13
1,8,8,-4,-3,8,3,2,-5,4,-11,13
2,9,8,-5,-3,9,0,1,-5,4,-11,13
2,10,9,-6,-3,9,-2,0,-6,4,-11,13
1,10,9,-6,-4,10,-4,-1,-7,3,-11,13
0,11,10,-6,-5,10,-6,-2,-8,3,-11,13
0,11,11,-6,-5,11,-8,-3,-9,2,-11,13
1,12,10,-7,-4,11,-9,-4,-9,2,-11,14
4,14,10,-9,-2,12,-10,-4,-10,2,-12,14
6,16,10,-10,-1,13,-11,-5,-10,2,-12,14
6,15,9,-10,-1,12,-12,-6,-12,1,-13,14
6,14,8,-10,0,11,-13,-7,-13,0,-13,14
7,14,7,-11,1,11,-13,-7,-13,0,-13,14
9,15,6,-13,2,11,-13,-6,-13,0,-12,14
12,16,4,-14,4,10,-12,-5,-13,0,-12,14
14,15,2,-15,6,8,-11,-4,-12,1,-11,14
14,13,0,-14,7,7,-10,-3,-12,1,-11,14
11,10,0,-11,6,5,-10,-3,-12,0,-11,13
9,7,-1,-9,6,2,-10,-3,-13,0,-12,12
8,5,-3,-7,7,0,-10,-3,-14,-1,-13,12
7,3,-3,-6,6,0,-9,-3,-14,-1,-13,11
7,3,-3,-5,5,0,-7,-3,-14,-2,-14,11
7,4,-2,-5,5,0,-5,-2,-14,-2,-14,10
6,4,-1,-4,4,1,-3,-2,-14,-3,-15,9
4,3,-1,-3,3,1,-2,-2,-14,-3,-16,8
3,2,0,-2,2,1,-1,-3,-15,-4,-16,7
0,0,0,0,1,0,0,-3,-15,-5,-17,6
-4,-5,-1,4,0,-3,0,-4,-16,-7,-19,4
-6,-8,-1,6,-1,-5,0,-5,-17,-8,-20,3
-5,-8,-2,6,-1,-6,1,-5,-18,-9,-21,2
-3,-6,-2,4,0,-5,2,-5,-19,-9,-21,2
0,-4,-3,2,1,-5,3,-4,-18,-9,-21,2
0,-4,-4,2,2,-5,3,-4,-18,-9,-21,1
0,-5,-4,3,2,-6,4,-4,-19,-10,-22,0
-1,-7,-5,4,2,-6,4,-4,-19,-11,-23,0
-2,-9,-5,5,2,-7,4,-5,-19,-12,-24,-1
-3,-10,-6,6,2,-8,4,-5,-20,-12,-24,-2
-3,-11,-7,7,2,-9,4,-6,-20,-13,-25,-2
-4,-12,-7,8,1,-10,3,-6,-21,-13,-25,-3
-5,-13,-7,9,1,-11,3,-7,-22,-13,-26,-3
-6,-15,-8,11,0,-12,3,-7,-22,-13,-26,-4
-8,-17,-8,12,0,-13,3,-7,-22,-14,-26,-4
-8,-17,-8,13,0,-12,3,-7,-21,-14,-26,-4
-7,-14,-7,11,0,-10,3,-6,-21,-13,-26,-4
-6,-12,-6,9,1,-9,3,-6,-20,-13,-25,-4
-5,-12,-7,8,1,-9,3,-6,-20,-12,-25,-4
-5,-12,-7,8,1,-10,4,-6,-19,-12,-25,-4
-5,-12,-6,9,1,-10,4,-5,-19,-12,-25,-4
-6,-13,-7,10,1,-11,5,-3,-19,-11,-25,-4
-6,-15,-8,11,1,-12,6,1,-16,-9,-25,-4
-6,-14,-8,10,2,-12,6,7,-11,-5,-23,-4
-6,-11,-5,8,0,-8,7,16,-1,2,-20,-3
-6,-7,0,7,-2,-4,7,28,14,13,-14,-1
-7,-6,2,6,-4,-2,9,41,33,27,-6,4
-7,-4,5,5,-5,0,9,47,48,41,3,10
-6,1,8,2,-6,4,6,45,52,53,14,18
-2,7,11,-2,-6,9,0,39,47,67,27,26
3,14,12,-8,-4,12,-6,38,39,84,44,36
10,21,11,-16,0,16,-13,41,30,105,65,49
20,31,10,-26,5,20,-21,45,19,130,90,64
34,42,8,-38,13,24,-34,47,5,159,119,81
52,53,1,-52,25,27,-53,40,-17,188,151,99
70,62,-8,-66,39,26,-77,25,-45,218,185,119
89,70,-18,-79,54,25,-103,8,-71,253,224,141
109,80,-28,-94,69,25,-130,-6,-90,295,268,166
128,92,-35,-109,82,28,-158,-25,-106,335,311,191
141,105,-36,-123,89,33,-187,-63,-127,355,338,211
146,115,-31,-131,89,41,-213,-126,-160,336,333,218
141,120,-21,-130,82,48,-231,-208,-203,275,292,210
128,114,-13,-121,71,50,-240,-287,-247,186,224,185
112,97,-15,-104,64,41,-239,-338,-281,94,147,148
98,72,-25,-85,62,23,-229,-358,-302,14,74,107
84,46,-36,-65,60,5,-216,-361,-315,-58,10,68
67,23,-42,-45,55,-9,-200,-354,-321,-121,-43,34
49,7,-41,-28,45,-17,-181,-336,-313,-160,-79,10
33,0,-33,-16,33,-17,-158,-308,-288,-171,-96,-3
19,-3,-22,-7,21,-13,-135,-272,-255,-164,-100,-10
7,-5,-12,-1,10,-9,-113,-236,-220,-150,-98,-14
-2,-7,-5,4,2,-7,-94,-202,-188,-135,-96,-18
-7,-9,-1,8,-2,-5,-76,-170,-159,-120,-91,-20
-10,-11,0,11,-4,-6,-60,-140,-133,-104,-86,-22
-13,-15,-2,14,-5,-8,-46,-113,-110,-90,-80,-22
-14,-20,-4,17,-4,-12,-32,-89,-90,-77,-74,-23
-15,-24,-8,19,-3,-16,-20,-68,-73,-65,-69,-23
-14,-26,-12,20,0,-20,-9,-51,-58,-55,-63,-22
-13,-28,-14,21,1,-22,-1,-37,-46,-46,-58,-21
-13,-28,-15,20,2,-23,4,-26,-36,-39,-54,-19
-12,-26,-14,19,2,-20,8,-17,-28,-34,-50,-17
-12,-22,-11,17,0,-17,11,-11,-22,-29,-47,-15
-12,-19,-8,16,-1,-14,13,-6,-18,-27,-45,-13
-12,-18,-5,15,-2,-12,14,-3,-15,-25,-44,-13
-14,-19,-5,16,-4,-12,15,-1,-12,-23,-43,-12
-16,-21,-5,18,-5,-14,16,1,-10,-22,-42,-12
-17,-22,-5,19,-5,-14,17,3,-8,-20,-41,-11
-16,-22,-5,19,-5,-14,18,5,-6,-19,-40,-11
-15,-20,-5,17,-4,-13,19,7,-4,-18,-39,-10
-14,-19,-5,16,-4,-12,20,9,-2,-17,-39,-10
-14,-19,-5,16,-4,-12,20,11,-1,-16,-39,-10
-14,-19,-5,17,-4,-12,20,11,-1,-16,-39,-10
-14,-19,-4,16,-4,-12,20,12,0,-15,-38,-9
-14,-19,-4,16,-4,-12,21,13,0,-14,-38,-9
-14,-19,-4,16,-4,-12,21,13,1,-14,-38,-9
-14,-19,-4,16,-4,-12,21,14,2,-13,-38,-9
-14,-19,-4,17,-4,-12,21,15,3,-13,-38,-9
-14,-19,-4,17,-4,-12,21,16,4,-13,-37,-8
-14,-19,-4,16,-4,-12,21,17,5,-12,-37,-8
-14,-19,-4,16,-4,-12,22,18,5,-12,-37,-8
-14,-19,-4,16,-5,-12,22,18,6,-12,-37,-8
-14,-19,-4,16,-5,-12,22,19,6,-12,-36,-7
-14,-18,-4,16,-5,-12,22,19,7,-11,-36,-6
-14,-18,-3,16,-5,-11,23,19,8,-10,-35,-6
-13,-17,-3,15,-5,-11,23,20,9,-10,-35,-6
-13,-17,-4,15,-5,-11,23,21,9,-10,-35,-6
-12,-18,-5,15,-4,-12,23,22,9,-10,-35,-6
-11,-18,-6,14,-3,-12,23,23,10,-10,-35,-6
-11,-17,-5,14,-3,-12,23,23,10,-9,-35,-6
-13,-17,-4,15,-4,-11,23,23,10,-9,-35,-5
-14,-17,-3,15,-5,-11,23,23,11,-9,-35,-5
-14,-17,-3,15,-5,-11,23,23,11,-9,-35,-5
-14,-17,-3,15,-5,-11,23,24,12,-9,-35,-5
-14,-17,-3,15,-5,-11,23,25,13,-9,-35,-4
-14,-17,-3,15,-6,-10,23,25,14,-9,-35,-4
-14,-17,-3,15,-6,-10,23,26,15,-9,-35,-4
-14,-17,-3,16,-6,-10,23,26,15,-9,-35,-4
-14,-17,-2,15,-6,-9,23,26,15,-9,-35,-4
-14,-15,-1,15,-6,-8,23,26,15,-9,-36,-4
-14,-15,-1,15,-6,-8,23,26,15,-9,-37,-5
-16,-18,-1,17,-6,-10,22,26,15,-10,-38,-6
-17,-20,-3,18,-6,-12,22,27,16,-10,-38,-6
-16,-19,-3,17,-6,-11,23,28,17,-9,-37,-5
-14,-16,-2,15,-6,-9,23,30,19,-8,-37,-4
-13,-15,-1,14,-6,-8,24,31,20,-7,-36,-3
-13,-14,0,13,-6,-7,25,32,22,-6,-35,-2
-12,-12,0,12,-6,-7,26,33,23,-5,-35,-2
-11,-12,0,11,-5,-7,26,34,24,-5,-34,-2
-12,-13,0,12,-6,-7,26,35,25,-5,-34,-2
-14,-14,0,13,-7,-7,26,36,26,-5,-34,-2
-14,-13,1,13,-8,-6,27,37,27,-4,-34,-2
-15,-13,2,14,-9,-5,27,38,28,-4,-35,-2
-16,-14,2,15,-9,-6,27,39,29,-4,-35,-2
-16,-13,2,14,-9,-6,27,40,30,-3,-35,-2
-15,-13,2,14,-9,-5,27,41,31,-3,-35,-2
-15,-12,3,14,-9,-5,27,42,32,-3,-35,-2
-15,-11,4,13,-9,-4,28,44,34,-3,-35,-2
-15,-10,4,12,-9,-3,29,46,36,-2,-34,-1
-13,-10,3,11,-8,-3,29,48,38,-1,-34,0
-13,-10,2,11,-7,-4,30,50,40,-1,-34,0
-13,-10,3,11,-8,-3,30,51,41,-1,-35,-1
-15,-10,5,12,-10,-2,30,52,42,-1,-35,-1
-16,-10,6,13,-11,-2,31,54,44,0,-35,0
-17,-11,7,14,-12,-2,32,56,45,0,-35,0
-18,-10,8,13,-13,-1,31,57,46,0,-35,-1
-18,-10,9,14,-13,-1,31,59,48,1,-35,-1
-17,-10,8,14,-13,-1,33,62,52,2,-34,-1
-17,-9,7,13,-12,-1,34,65,55,3,-34,0
-16,-8,8,12,-12,0,35,67,57,3,-34,0
-16,-6,9,11,-12,2,36,68,59,4,-34,1
-15,-4,10,10,-13,3,36,70,61,4,-34,1
-16,-4,11,10,-13,3,37,72,62,5,-34,1
-17,-5,12,12,-15,2,37,73,64,5,-34,0
-19,-6,13,13,-16,2,37,75,65,5,-35,0
-18,-5,14,11,-16,4,37,77,67,5,-35,0
-17,-2,15,10,-16,6,38,79,69,6,-35,1
-18,0,16,10,-17,7,38,80,70,7,-35,1
-19,0,18,10,-19,8,38,81,72,7,-34,2
-19,1,19,9,-19,9,38,83,73,8,-34,2
-19,1,19,9,-19,10,38,83,74,8,-34,2
-18,2,20,8,-19,10,38,84,75,8,-33,3
-17,3,20,7,-18,11,38,85,77,9,-33,4
-17,3,21,6,-19,11,39,86,78,10,-32,4
-17,5,22,6,-20,13,39,86,79,10,-32,5
-17,6,24,5,-20,15,38,86,79,9,-32,5
-17,7,25,5,-21,16,37,86,79,9,-32,5
-17,7,24,5,-20,15,37,86,80,9,-32,6
-17,7,24,5,-20,15,36,86,80,9,-32,7
-17,7,24,5,-21,15,35,86,80,9,-31,7
-17,8,25,4,-21,16,34,86,80,9,-31,8
-17,8,26,4,-22,16,33,85,79,9,-31,8
-15,9,26,3,-21,17,33,85,79,10,-30,9
-12,13,26,0,-19,19,32,85,79,11,-29,10
-10,15,26,-2,-19,21,31,84,78,12,-27,12
-10,16,26,-3,-18,21,30,83,77,12,-26,13
-10,17,26,-3,-18,21,28,81,75,13,-25,14
-10,16,26,-2,-18,21,26,78,73,12,-24,14
-10,16,26,-2,-18,21,25,76,70,12,-23,14
-9,16,26,-3,-18,21,24,74,68,12,-22,15
-9,16,26,-3,-17,20,23,72,66,12,-21,17
-8,16,25,-4,-16,20,21,69,64,12,-20,18
-7,16,24,-4,-16,19,20,66,60,11,-19,19
-7,16,23,-4,-15,19,18,63,56,10,-19,19
-6,16,22,-4,-14,19,16,59,52,9,-19,20
-5,16,21,-5,-13,18,15,56,49,9,-18,21
-3,16,20,-6,-11,18,14,53,46,8,-17,21
-1,17,19,-8,-10,18,13,50,43,7,-17,21
-1,16,19,-8,-10,17,12,47,39,6,-17,21
-1,15,17,-8,-9,16,11,44,34,5,-17,21
-1,14,15,-7,-9,15,9,41,30,3,-18,21
-1,13,14,-6,-8,13,8,38,26,1,-19,20
-1,11,13,-5,-7,12,7,35,23,0,-19,20
-1,10,11,-4,-6,10,6,32,20,-1,-19,19
-1,9,10,-4,-5,10,6,30,17,-2,-19,19
0,9,10,-4,-5,9,6,29,15,-2,-19,19
0,8,9,-4,-5,9,6,27,13,-3,-19,19
0,7,9,-4,-5,8,5,25,11,-4,-19,19
0,7,8,-3,-5,8,5,23,8,-5,-20,19
0,6,8,-3,-5,7,4,21,5,-6,-20,19
0,6,7,-2,-4,6,4,19,3,-7,-21,19
0,5,6,-2,-4,5,4,17,1,-8,-21,18
-1,4,5,-1,-4,4,4,16,-1,-10,-22,18
-1,2,4,0,-3,3,4,15,-2,-11,-22,17
-1,1,4,0,-3,2,4,14,-3,-12,-23,16
-2,0,3,1,-3,1,4,13,-5,-13,-24,15
-4,-2,2,3,-3,0,3,11,-7,-14,-25,14
-4,-2,2,3,-3,0,4,11,-8,-15,-25,14
-3,-1,1,2,-3,0,4,10,-8,-15,-24,14
-1,0,1,0,-2,1,5,10,-8,-15,-24,14
0,1,1,0,-2,2,5,10,-9,-16,-24,14
-2,0,1,1,-2,1,5,8,-10,-17,-25,13
-3,-1,1,2,-3,0,4,7,-10,-17,-26,12
-4,-2,1,3,-3,0,5,7,-11,-18,-27,11
-4,-3,1,4,-2,-1,5,7,-11,-18,-27,11
-4,-4,0,4,-2,-1,5,7,-12,-18,-27,11
-4,-4,0,4,-2,-2,6,7,-12,-18,-27,11
-2,-2,0,2,-1,-1,6,7,-12,-18,-26,11
0,0,0,1,0,-1,7,7,-12,-18,-25,12
0,0,0,1,0,0,7,7,-13,-18,-25,11
-1,-1,0,2,-1,-1,7,6,-13,-19,-26,11
-2,-3,0,3,-1,-1,7,6,-13,-20,-26,11
-3,-3,0,4,-1,-1,7,6,-13,-20,-26,11
-3,-4,0,4,-1,-1,7,6,-14,-20,-26,11
-2,-4,-1,3,-1,-2,7,6,-14,-21,-26,10
-2,-3,-1,3,-1,-2,7,6,-14,-21,-26,10
-3,-4,0,4,-2,-2,7,5,-14,-21,-26,10
-4,-5,0,5,-2,-3,6,5,-15,-22,-26,9
-5,-6,0,6,-2,-3,6,4,-15,-22,-26,9
-5,-6,0,6,-2,-3,6,4,-15,-22,-26,9
-6,-6,0,6,-2,-3,6,4,-15,-22,-26,9
-6,-6,0,6,-2,-3,7,4,-15,-22,-26,9
-6,-6,0,5,-2,-2,7,5,-15,-22,-26,9
-5,-4,0,4,-2,-1,7,5,-15,-22,-26,9
-5,-4,0,4,-2,-2,7,4,-15,-22,-26,8
-5,-6,0,6,-2,-3,7,4,-15,-23,-26,8
-6,-7,-1,7,-2,-4,7,4,-15,-23,-26,8
-6,-7,-1,7,-2,-4,7,4,-14,-22,-26,8
-5,-6,-1,6,-1,-3,8,5,-14,-21,-25,8
-3,-4,-1,4,-1,-2,9,5,-13,-20,-24,9
-2,-2,0,3,-1,-1,9,6,-12,-20,-24,10
-2,0,1,2,-2,0,9,6,-12,-19,-23,10
-2,0,1,2,-2,0,10,7,-10,-18,-22,11
-3,-2,1,3,-2,0,11,8,-9,-17,-21,12
-2,-1,2,2,-2,0,11,8,-8,-16,-20,13
0,2,3,-1,-1,3,12,9,-6,-14,-18,14
1,5,5,-3,-1,5,12,10,-4,-12,-16,15
2,7,5,-4,-1,6,13,11,-3,-10,-15,16
2,8,6,-5,-2,7,14,12,-1,-9,-14,16
1,8,6,-4,-2,6,14,14,0,-9,-14,16
1,7,6,-4,-3,6,15,15,0,-8,-13,16
1,6,6,-4,-3,6,16,16,2,-6,-12,17
1,5,5,-3,-2,5,17,17,3,-5,-11,17
0,3,5,-1,-2,4,16,18,3,-4,-11,17
-1,3,5,-1,-2,4,15,18,4,-4,-11,17
1,5,5,-3,-1,5,15,18,5,-3,-10,17
3,7,4,-5,0,5,15,19,6,-2,-9,18
3,7,3,-5,0,5,14,19,6,-2,-9,18
4,7,2,-5,0,5,13,19,6,-1,-8,18
4,7,3,-6,0,5,12,19,6,-1,-8,19
4,7,4,-5,0,5,10,19,7,0,-7,19
3,6,4,-4,0,5,8,18,7,0,-7,19
2,5,4,-4,0,4,5,17,6,0,-7,19
2,5,3,-4,0,4,3,16,5,0,-7,19
2,4,2,-4,0,3,0,14,4,0,-7,18
2,4,2,-3,0,3,-1,13,3,0,-7,18
3,4,1,-4,1,2,-2,13,2,0,-6,18
6,7,0,-6,3,3,-3,12,1,0,-6,19
11,11,0,-10,5,5,-2,13,1,0,-5,20
14,13,0,-13,7,6,-2,13,1,1,-4,21
14,12,0,-13,7,6,-2,13,1,1,-4,21
12,9,-1,-10,6,4,-2,13,0,0,-4,20
10,6,-3,-8,6,1,-2,13,0,0,-4,19
11,6,-5,-8,8,0,-2,13,0,0,-4,19
13,6,-6,-9,9,0,-2,14,0,0,-4,19
13,6,-6,-9,10,-1,-2,14,0,0,-4,19
12,5,-6,-8,9,-1,-2,14,0,0,-4,18
11,4,-6,-7,9,-2,-2,14,-1,0,-4,18
11,3,-7,-7,9,-2,-2,14,-1,0,-4,17
11,2,-7,-6,9,-3,-2,14,-2,-1,-5,17
9,1,-7,-4,8,-3,-2,13,-3,-2,-6,16
6,-1,-7,-2,7,-4,-2,12,-4,-2,-7,15
4,-2,-6,-1,5,-4,-1,12,-4,-3,-8,15
5,0,-5,-2,5,-3,1,12,-3,-3,-8,15
6,2,-4,-3,5,-1,2,12,-3,-3,-8,15
5,1,-3,-3,4,-1,3,12,-4,-5,-9,14
4,0,-2,-1,3,-1,4,11,-4,-5,-10,13
3,0,-2,0,2,-1,5,12,-4,-5,-10,13
1,-2,-2,0,1,-1,6,12,-4,-5,-10,13
0,-4,-2,2,1,-2,6,11,-5,-6,-11,13
-3,-8,-3,6,0,-5,6,11,-6,-7,-12,11
-7,-12,-4,9,-1,-8,6,10,-8,-9,-13,10
-8,-13,-5,11,-1,-9,6,9,-9,-11,-15,9
-7,-13,-5,11,0,-10,6,9,-10,-12,-15,9
-6,-12,-5,10,0,-9,7,9,-9,-12,-15,9
-6,-11,-5,9,0,-8,7,9,-9,-11,-15,10
-6,-11,-4,9,-1,-8,8,8,-9,-11,-15,10
-7,-11,-4,9,-1,-8,8,8,-9,-11,-15,10
-7,-11,-4,9,-1,-8,8,8,-9,-11,-15,10
-7,-12,-4,10,0,-8,8,8,-10,-12,-15,10
-7,-12,-5,10,0,-9,8,8,-10,-12,-15,10
-6,-12,-5,9,0,-9,9,8,-9,-12,-15,10
-5,-11,-5,9,0,-9,9,9,-8,-12,-15,10
-5,-11,-5,9,0,-9,10,9,-8,-12,-16,10
-6,-12,-5,10,-1,-9,12,10,-7,-12,-17,9
-8,-14,-4,11,-2,-9,14,11,-6,-12,-18,9
-10,-15,-4,13,-3,-10,16,13,-5,-13,-19,8
-11,-16,-4,14,-3,-10,19,18,-3,-13,-19,7
-12,-16,-4,14,-3,-11,23,24,1,-11,-19,6
-12,-15,-3,14,-4,-10,26,32,9,-6,-17,7
-13,-12,0,13,-6,-7,29,42,21,1,-13,9
-12,-7,5,10,-9,-2,31,52,37,13,-6,13
-11,-1,11,6,-11,4,30,60,53,27,3,19
-9,7,17,1,-12,12,27,59,64,42,16,28
-6,16,22,-5,-13,19,19,50,64,59,33,39
0,25,26,-12,-11,26,6,37,56,78,54,53
8,35,26,-21,-7,30,-10,27,43,98,78,68
20,46,25,-33,-1,35,-27,22,29,123,105,85
36,58,22,-47,8,39,-46,21,15,150,135,104
54,70,16,-62,20,42,-68,17,-2,179,167,123
76,82,6,-78,36,43,-94,5,-26,207,200,143
101,94,-6,-96,54,43,-122,-9,-52,238,236,165
124,105,-19,-114,72,43,-150,-22,-72,274,276,188
145,117,-29,-131,88,44,-175,-35,-86,311,316,212
163,130,-33,-146,99,49,-196,-57,-102,333,343,232
171,141,-30,-156,101,56,-216,-100,-126,320,341,240
169,147,-21,-158,96,62,-231,-164,-161,267,303,233
157,145,-12,-150,85,65,-237,-237,-203,182,238,210
139,130,-9,-133,74,59,-234,-297,-241,88,159,174
120,104,-15,-111,68,44,-222,-328,-267,5,83,132
102,75,-27,-88,65,24,-206,-336,-285,-66,18,92
84,48,-35,-66,60,7,-189,-333,-297,-128,-35,57
63,27,-36,-45,51,-4,-171,-320,-296,-169,-72,30
43,12,-31,-28,38,-10,-152,-295,-278,-182,-91,13
27,5,-21,-16,24,-9,-132,-264,-250,-176,-96,3
16,5,-10,-10,13,-4,-112,-231,-218,-162,-94,-1
9,6,-3,-7,6,0,-93,-197,-187,-145,-89,-4
3,6,3,-3,0,3,-76,-166,-158,-128,-83,-5
-2,5,8,0,-5,5,-60,-137,-132,-112,-77,-6
-6,3,9,2,-7,6,-45,-110,-109,-97,-71,-7
-8,0,8,4,-8,4,-31,-86,-89,-84,-65,-7
-10,-5,5,7,-7,0,-19,-65,-72,-73,-60,-8
-12,-12,0,11,-6,-6,-8,-47,-58,-63,-55,-8
-14,-17,-4,15,-5,-12,-1,-33,-46,-56,-51,-9
-15,-21,-6,18,-4,-15,4,-22,-37,-50,-48,-9
-16,-23,-7,20,-4,-16,9,-13,-29,-44,-44,-8
-16,-23,-7,20,-4,-16,13,-6,-22,-38,-40,-6
-16,-21,-5,19,-4,-13,16,0,-16,-34,-37,-4
-17,-19,-3,18,-5,-11,18,4,-12,-31,-35,-2
-17,-19,-3,18,-5,-11,19,7,-10,-29,-33,-1
-17,-20,-3,18,-5,-12,20,9,-8,-28,-32,0
-17,-21,-4,19,-5,-13,21,11,-6,-27,-32,0
-16,-21,-4,19,-5,-13,21,12,-4,-26,-31,0
-15,-20,-4,18,-5,-13,22,14,-3,-25,-31,0
-13,-18,-4,17,-4,-12,23,16,-1,-23,-30,1
-12,-16,-3,15,-4,-10,24,18,0,-21,-29,1
-12,-14,-2,14,-4,-8,24,19,1,-20,-28,1
-13,-15,-2,14,-4,-8,25,20,2,-19,-28,2
-14,-18,-3,16,-4,-10,26,21,3,-19,-27,2
-15,-20,-4,18,-5,-13,25,22,3,-19,-28,2
-16,-21,-4,19,-5,-14,25,22,4,-19,-28,2
-16,-21,-4,19,-6,-14,25,22,4,-19,-28,2
-16,-20,-3,19,-6,-13,24,22,4,-19,-29,2
-16,-19,-3,18,-6,-12,25,23,5,-18,-28,2
-15,-20,-4,18,-5,-12,26,24,6,-17,-28,3
-15,-20,-4,18,-4,-12,26,25,7,-16,-27,3
-15,-19,-4,17,-4,-12,26,26,8,-15,-26,3
-15,-18,-4,16,-4,-11,26,27,9,-15,-26,3
-15,-19,-5,17,-4,-12,26,27,9,-15,-26,3
-14,-20,-6,17,-4,-14,26,27,10,-15,-26,3
-13,-20,-7,16,-3,-14,27,28,11,-15,-25,4
-11,-18,-7,15,-2,-13,27,29,11,-14,-24,5
-10,-17,-7,14,-1,-12,27,29,12,-13,-24,5
-11,-17,-7,14,-1,-12,27,30,12,-13,-25,5
-12,-17,-6,14,-2,-11,27,30,12,-13,-25,4
-13,-18,-6,15,-3,-11,26,30,13,-13,-25,4
-14,-19,-5,16,-4,-12,26,30,13,-13,-25,4
-15,-19,-4,17,-5,-12,26,30,13,-13,-25,4
-16,-20,-4,18,-5,-13,26,31,14,-13,-25,4
-16,-21,-5,18,-5,-13,26,31,15,-12,-25,4
-14,-19,-5,17,-4,-12,27,32,16,-12,-24,4
-13,-17,-4,15,-4,-11,28,34,17,-11,-23,4
-13,-16,-4,15,-4,-10,28,35,18,-10,-23,5
-13,-15,-3,14,-5,-9,29,36,19,-9,-22,5
-13,-14,-2,13,-5,-8,29,37,20,-9,-22,6
-12,-14,-2,13,-4,-9,29,37,20,-9,-22,6
-12,-15,-3,14,-4,-10,29,38,20,-9,-22,6
-12,-17,-4,15,-4,-11,28,38,20,-9,-22,5
-13,-19,-4,16,-4,-12,28,38,21,-9,-23,5
-14,-20,-5,17,-4,-12,28,39,22,-9,-23,5
-14,-19,-5,17,-4,-12,29,40,23,-8,-23,5
-14,-18,-4,16,-4,-11,29,41,24,-7,-23,5
-14,-16,-4,15,-5,-10,30,43,25,-7,-23,6
-13,-15,-3,14,-5,-9,30,44,26,-6,-23,6
-12,-14,-3,13,-5,-9,30,44,27,-6,-23,6
-12,-15,-3,13,-5,-9,30,45,27,-5,-23,6
-12,-15,-3,14,-5,-9,31,46,28,-5,-23,6
-13,-16,-3,15,-5,-10,31,47,29,-5,-23,6
-14,-18,-3,16,-6,-10,31,48,30,-5,-23,5
-16,-19,-4,18,-6,-11,30,49,31,-5,-23,5
-17,-20,-4,19,-7,-12,30,51,32,-5,-24,4
-18,-21,-4,19,-7,-13,30,52,33,-5,-24,4
-18,-20,-4,19,-7,-12,31,54,35,-4,-23,4
-16,-19,-3,17,-6,-11,32,57,37,-3,-22,4
-16,-18,-3,17,-7,-10,33,59,39,-2,-22,5
-16,-18,-2,17,-7,-10,34,60,40,-1,-22,4
-16,-18,-2,17,-7,-10,34,62,42,-1,-22,4
-16,-18,-2,17,-7,-10,35,63,43,0,-22,4
-17,-18,-1,18,-8,-10,36,65,45,0,-22,3
-18,-18,0,18,-9,-9,36,67,47,0,-23,3
-17,-16,0,17,-9,-8,38,69,49,1,-23,3
-16,-15,0,17,-9,-7,39,71,51,1,-23,3
-17,-16,0,17,-9,-8,39,73,52,1,-24,2
-17,-16,1,17,-10,-7,40,75,54,2,-24,1
-17,-14,2,16,-10,-6,41,77,56,3,-24,1
-18,-13,3,16,-11,-5,41,78,57,4,-25,0
-18,-13,4,16,-11,-5,42,80,59,4,-25,0
-18,-12,4,15,-11,-4,43,81,61,4,-25,0
-17,-11,5,15,-11,-4,44,83,62,4,-25,0
-18,-12,5,16,-12,-4,44,84,63,4,-26,0
-20,-14,6,17,-14,-4,44,84,64,3,-27,-1
-22,-14,7,18,-15,-4,44,85,65,4,-28,-1
-22,-13,8,18,-15,-3,45,85,66,4,-28,-1
-22,-12,10,17,-15,-1,45,86,67,4,-28,-1
-21,-10,11,16,-15,0,46,86,68,4,-28,-1
-22,-10,12,16,-16,0,46,86,69,4,-28,-1
-25,-12,12,19,-18,-1,45,85,69,4,-29,-1
-28,-15,12,21,-20,-2,44,85,69,3,-29,-1
-30,-15,13,22,-22,-1,44,84,69,3,-30,-1
-30,-14,14,21,-22,0,43,84,69,3,-30,-1
-28,-11,16,20,-22,2,43,84,69,3,-30,0
-27,-9,17,18,-22,3,42,83,69,3,-29,0
-25,-6,18,16,-21,5,42,83,70,3,-29,1
-22,-3,18,13,-20,6,42,83,71,4,-27,3
-20,-1,18,11,-20,8,42,83,71,5,-26,4
-19,-1,18,10,-20,8,41,82,71,6,-25,6
-18,0,19,9,-19,9,40,81,71,7,-23,7
-17,2,19,7,-18,11,39,80,71,8,-22,9
-16,4,20,6,-18,12,38,78,70,9,-20,10
-15,5,20,5,-18,13,36,76,68,9,-19,11
-16,5,20,6,-18,12,34,74,66,9,-18,12
-16,4,20,6,-18,12,32,71,63,9,-17,13
-14,5,20,5,-17,12,31,68,60,9,-16,14
-12,6,19,3,-16,12,29,66,58,9,-14,15
-11,7,19,2,-15,12,28,63,56,8,-13,16
-10,8,18,1,-14,12,26,61,53,8,-12,17
-8,8,17,0,-13,12,25,58,50,7,-11,18
-7,9,16,-1,-11,12,24,56,47,7,-11,19
-5,10,15,-2,-10,12,22,53,43,7,-10,19
-5,9,14,-2,-9,11,21,50,40,5,-10,20
-5,9,14,-1,-9,11,19,46,36,4,-10,20
-5,8,13,-1,-9,10,18,43,32,3,-10,20
-3,9,13,-2,-8,10,17,41,30,3,-9,21
-2,9,12,-3,-7,10,16,39,27,2,-9,21
-2,9,11,-3,-7,10,15,37,24,1,-9,21
-3,7,11,-1,-7,9,13,34,21,-1,-10,20
-4,5,9,0,-7,7,12,32,17,-2,-11,19
-3,4,8,0,-5,6,12,29,14,-3,-11,19
-2,5,7,0,-4,6,11,27,12,-4,-11,19
-2,4,6,0,-4,5,11,25,10,-5,-11,19
-2,3,5,0,-3,4,10,24,8,-6,-11,19
-2,3,5,0,-3,3,10,23,6,-7,-11,19
-2,2,4,0,-3,3,10,22,5,-7,-12,18
-2,1,3,1,-3,2,9,20,3,-9,-12,18
-2,0,2,2,-2,0,8,17,0,-11,-13,17
-3,-2,0,3,-2,0,7,15,-2,-13,-15,15
-3,-2,0,3,-1,-1,6,13,-4,-14,-16,14
-2,-2,0,2,-1,-1,6,12,-5,-14,-16,14
-1,-1,0,1,0,-1,6,12,-5,-14,-16,14
-1,-1,0,1,-1,0,7,12,-5,-14,-16,14
-1,0,0,1,-1,0,7,12,-6,-15,-17,13
0,0,0,0,0,0,8,12,-6,-15,-17,13
2,1,-1,-1,1,0,9,12,-6,-15,-16,14
2,1,-1,-1,1,0,9,12,-6,-15,-16,14
3,1,-1,-2,2,0,9,11,-7,-16,-17,13
2,1,-1,-1,1,0,8,11,-9,-16,-17,13
1,0,-1,0,1,0,8,11,-9,-17,-17,13
1,0,-1,0,0,0,8,11,-9,-17,-17,13
0,-1,-1,1,0,-1,8,11,-9,-17,-17,13
-1,-1,0,1,-1,0,7,10,-10,-18,-18,12
-2,0,3,1,-2,2,6,8,-11,-19,-20,11
-2,0,3,1,-3,2,7,8,-11,-20,-20,10
-3,-3,0,3,-1,-1,8,9,-10,-19,-19,11
-2,-5,-2,3,0,-3,9,10,-10,-19,-19,11
0,-5,-3,3,1,-4,9,10,-10,-19,-19,10
0,-5,-4,2,1,-4,8,9,-11,-19,-19,10
0,-4,-4,2,2,-4,8,9,-10,-19,-19,10
0,-4,-5,2,2,-5,9,10,-10,-19,-19,10
1,-4,-5,2,2,-5,9,10,-10,-20,-19,9
1,-3,-4,2,2,-4,10,10,-10,-20,-19,8
1,-2,-3,2,1,-3,10,9,-10,-20,-20,8
0,-2,-2,2,1,-3,10,9,-10,-20,-20,7
-2,-4,-2,3,0,-4,10,9,-10,-20,-20,7
-4,-6,-2,5,-1,-4,9,9,-11,-21,-20,6
-6,-8,-3,7,-1,-5,9,8,-11,-22,-21,5
-7,-10,-4,9,-2,-7,8,8,-11,-22,-21,4
-7,-11,-4,9,-2,-7,8,8,-10,-22,-21,4
-5,-9,-4,7,-1,-6,9,9,-9,-20,-20,5
-2,-6,-3,5,0,-4,10,10,-8,-19,-19,6
-1,-3,-1,3,0,-2,11,11,-7,-18,-18,6
0,-2,0,2,0,-1,11,11,-7,-18,-18,6
0,-2,-1,2,0,-1,11,12,-6,-17,-17,6
0,-2,-1,2,0,-2,11,12,-6,-16,-17,6
-1,-3,-1,2,0,-2,11,12,-6,-16,-17,5
-2,-3,-1,3,0,-2,11,12,-6,-16,-17,5
-1,-2,-1,2,0,-2,12,12,-5,-15,-17,5
0,-2,-2,1,0,-2,12,13,-4,-14,-16,5
0,-2,-2,2,0,-2,12,13,-4,-14,-16,5
-1,-3,-1,2,0,-2,12,13,-4,-13,-16,4
-1,-3,-1,3,0,-2,12,13,-3,-13,-15,4
-1,-4,-2,3,0,-2,13,14,-3,-12,-15,4
-2,-4,-2,4,0,-3,13,14,-2,-11,-14,4
-2,-5,-2,4,0,-3,13,15,-2,-10,-13,4
-2,-5,-2,4,0,-3,12,15,-2,-9,-13,4
-3,-6,-2,5,0,-4,11,15,-2,-8,-12,4
-5,-8,-2,7,-2,-5,11,15,-2,-8,-12,4
-7,-9,-1,8,-3,-5,11,16,-1,-8,-12,4
-5,-7,-2,7,-2,-4,12,16,-1,-7,-11,4
-3,-5,-2,5,0,-4,12,17,0,-6,-10,4
-1,-3,-3,3,0,-3,13,17,0,-5,-10,4
0,-2,-3,2,1,-3,13,17,0,-4,-9,4
0,-3,-3,2,1,-3,12,17,1,-4,-9,4
0,-3,-3,2,1,-3,12,17,1,-4,-10,4
0,-2,-3,1,1,-3,11,17,1,-4,-10,3
0,-2,-3,1,1,-3,11,17,1,-4,-9,3
0,-2,-3,2,1,-3,11,17,1,-3,-9,3
-1,-3,-3,3,0,-3,11,17,1,-3,-9,3
-3,-5,-3,5,0,-4,11,17,1,-3,-9,2
-5,-8,-3,7,-1,-6,10,16,0,-4,-9,1
-6,-10,-3,8,-2,-7,9,15,0,-4,-9,1
-5,-8,-3,7,-1,-6,9,16,0,-4,-8,1
-2,-5,-3,4,0,-5,10,17,1,-3,-7,3
-1,-3,-2,2,0,-4,11,17,2,-3,-6,3
0,-3,-2,2,0,-3,10,17,1,-3,-7,3
0,-3,-2,2,0,-3,10,16,1,-4,-7,2
0,-2,-2,1,0,-3,10,16,0,-4,-8,2
1,-2,-3,0,1,-3,10,16,0,-4,-8,2
2,-2,-3,0,2,-3,10,16,0,-4,-8,1
3,-1,-4,0,2,-3,10,16,0,-4,-8,1
3,-1,-4,0,2,-3,10,16,0,-4,-8,1
2,-2,-4,0,2,-3,10,16,0,-4,-8,1
0,-3,-4,1,1,-3,9,15,-1,-4,-8,0
0,-4,-4,2,1,-4,9,15,-1,-5,-9,0
0,-4,-4,2,1,-4,9,14,-1,-5,-9,0
0,-4,-3,2,1,-3,9,14,-1,-6,-9,0
0,-3,-3,1,1,-3,9,14,-1,-6,-9,0
0,-4,-3,2,1,-4,8,14,-2,-7,-9,0
-1,-5,-4,3,1,-5,8,13,-3,-7,-10,-1
-2,-6,-4,4,1,-6,7,13,-3,-8,-10,-2
-2,-6,-4,5,1,-6,7,12,-4,-8,-10,-2
-2,-5,-3,4,1,-4,7,12,-4,-7,-10,-2
0,-2,-3,2,1,-2,7,12,-3,-7,-9,-2
1,0,-2,0,1,-1,8,13,-3,-7,-9,-1
1,1,-1,0,1,0,8,13,-2,-6,-9,-1
1,0,-1,0,1,0,9,14,-2,-6,-8,-1
1,0,-1,0,1,-1,9,14,-1,-6,-8,-1
1,0,-1,0,1,-1,9,14,-1,-6,-7,-1
2,0,-1,-1,1,0,10,14,-1,-6,-7,0
3,2,0,-2,1,1,10,14,0,-5,-6,0
3,4,0,-3,1,2,11,15,0,-5,-6,1
2,4,1,-3,0,3,11,15,0,-5,-6,2
2,4,2,-3,0,3,11,15,0,-5,-6,2
2,4,2,-3,-1,4,11,15,0,-5,-6,2
2,5,3,-4,-1,4,11,15,0,-5,-6,2
2,6,4,-4,-1,5,11,15,0,-5,-6,1
2,5,4,-3,-1,4,10,14,0,-5,-6,1
2,4,3,-2,0,3,10,14,0,-5,-6,1
2,4,3,-2,0,3,9,14,0,-5,-6,0
2,5,4,-3,-1,4,7,13,0,-5,-6,0
2,7,5,-4,-1,5,5,12,0,-5,-6,1
3,9,6,-6,-1,7,3,11,0,-5,-5,1
3,9,6,-6,-1,7,1,10,-1,-5,-5,1
3,10,6,-6,-1,7,0,9,-1,-5,-5,2
5,12,6,-8,-1,9,-2,9,-1,-5,-4,3
6,14,7,-9,0,10,-4,9,-1,-4,-4,3
8,16,8,-11,0,12,-6,8,-1,-5,-4,4
9,17,8,-12,0,12,-8,7,-2,-6,-4,4
9,16,6,-12,0,11,-9,6,-3,-6,-4,4
9,15,5,-12,1,10,-9,6,-3,-7,-4,4
10,16,5,-13,1,11,-10,5,-5,-8,-5,3
10,17,6,-14,2,11,-11,4,-6,-8,-5,2
12,17,4,-15,4,10,-10,5,-5,-7,-4,3
15,18,2,-16,6,9,-8,7,-3,-6,-2,5
16,18,2,-16,7,9,-8,8,-2,-5,-1,5
16,18,1,-16,7,9,-8,9,-2,-4,-1,5
18,18,0,-17,7,9,-7,10,-1,-4,0,5
19,19,-1,-18,9,9,-6,11,-1,-3,0,5
20,17,-3,-18,10,7,-5,12,-1,-3,0,5
20,14,-5,-16,11,4,-5,12,-1,-3,-1,4
18,12,-6,-14,11,3,-4,12,-1,-4,-1,3
15,9,-6,-11,10,2,-3,12,-2,-5,-2,2
12,7,-5,-8,8,1,-1,11,-2,-6,-3,1
9,5,-4,-6,6,1,0,11,-3,-7,-4,0
6,3,-3,-4,5,0,1,10,-3,-8,-5,-1
4,0,-4,-1,4,-2,1,9,-4,-9,-6,-2
2,-2,-4,0,3,-3,2,9,-5,-11,-8,-4
2,-2,-4,0,2,-3,3,9,-6,-12,-9,-4
1,-2,-4,0,2,-3,4,9,-6,-12,-10,-5
0,-3,-3,1,1,-3,4,8,-6,-13,-10,-6
0,-3,-3,2,1,-3,4,8,-7,-14,-11,-7
0,-3,-4,2,1,-4,4,8,-8,-14,-12,-7
0,-6,-6,4,2,-6,5,8,-8,-14,-12,-7
-1,-9,-7,6,2,-8,5,8,-8,-15,-12,-8
-3,-11,-7,8,1,-9,5,8,-9,-15,-13,-10
-5,-12,-7,9,0,-10,5,7,-9,-16,-13,-11
-4,-12,-7,8,1,-10,5,8,-9,-15,-13,-11
-2,-9,-7,6,2,-9,6,8,-8,-15,-13,-10
0,-8,-7,4,3,-8,6,9,-8,-14,-12,-9
0,-7,-7,3,4,-8,6,10,-7,-14,-12,-9
1,-6,-7,3,4,-7,7,10,-7,-13,-11,-8
1,-6,-8,3,4,-7,7,10,-6,-13,-10,-8
0,-6,-8,3,4,-7,7,10,-6,-13,-10,-8
0,-7,-7,4,3,-7,6,10,-6,-13,-9,-8
-1,-9,-7,5,2,-7,6,11,-6,-13,-9,-8
-1,-9,-7,5,2,-7,7,11,-6,-13,-9,-8
-1,-9,-8,5,2,-8,7,12,-6,-12,-9,-8
-1,-11,-10,6,3,-10,8,13,-5,-11,-9,-9
0,-12,-12,7,5,-12,8,17,-3,-9,-9,-10
0,-12,-12,6,6,-12,9,22,1,-5,-7,-10
0,-12,-11,6,5,-11,10,29,11,2,-3,-9
0,-8,-8,5,4,-8,11,39,25,13,3,-6
1,-2,-4,1,2,-3,11,50,43,28,12,-1
2,3,1,-2,0,2,11,55,56,42,21,4
2,8,6,-5,-2,7,9,51,57,54,32,12
4,14,10,-9,-3,12,5,41,48,66,47,21
8,19,11,-14,-2,15,0,32,31,81,65,32
13,24,11,-18,0,17,-7,27,13,98,85,45
19,30,11,-25,3,20,-14,25,-5,119,109,58
30,38,9,-34,10,23,-24,24,-24,144,138,75
45,48,3,-46,20,26,-39,18,-49,171,170,94
63,57,-5,-60,34,26,-58,3,-78,198,206,115
83,68,-14,-75,48,26,-79,-13,-104,231,247,139
103,79,-23,-91,63,28,-102,-30,-125,270,293,166
121,91,-29,-106,75,31,-125,-51,-145,304,336,192
133,105,-28,-119,80,38,-149,-87,-169,319,362,213
138,117,-20,-127,78,49,-172,-143,-200,300,356,220
133,124,-9,-128,71,57,-191,-210,-238,242,314,210
122,120,-1,-121,62,59,-201,-273,-275,158,246,185
109,104,-4,-106,56,50,-201,-315,-303,70,167,148
95,78,-17,-87,56,31,-194,-331,-318,-7,91,104
80,49,-31,-64,56,9,-183,-330,-326,-79,24,62
62,22,-40,-42,51,-8,-170,-321,-329,-141,-30,27
44,3,-40,-23,42,-18,-155,-304,-317,-178,-67,1
27,-7,-34,-10,31,-20,-138,-277,-290,-187,-85,-14
14,-9,-24,-2,19,-16,-119,-244,-256,-179,-90,-23
6,-7,-13,1,10,-10,-101,-210,-221,-163,-88,-27
1,-5,-5,2,4,-5,-85,-178,-188,-146,-84,-30
-4,-5,0,5,-1,-2,-70,-147,-158,-129,-78,-32
-8,-6,2,8,-5,-2,-55,-118,-131,-113,-72,-33
-11,-9,2,10,-6,-3,-42,-92,-107,-97,-65,-34
-12,-13,0,13,-6,-6,-29,-69,-85,-83,-58,-34
-13,-16,-3,14,-5,-10,-18,-49,-66,-71,-52,-34
-12,-18,-6,14,-3,-12,-7,-31,-50,-59,-46,-34
-11,-20,-10,15,0,-15,0,-17,-36,-50,-41,-33
-10,-21,-11,15,1,-16,7,-5,-24,-42,-35,-31
-10,-20,-10,15,1,-15,12,4,-14,-35,-30,-29
-9,-18,-9,13,0,-13,15,12,-7,-29,-26,-26
-8,-15,-7,11,0,-10,17,17,-1,-25,-23,-24
-7,-13,-6,10,0,-8,18,21,2,-23,-21,-23
-7,-12,-5,9,-1,-8,19,24,5,-21,-20,-22
-8,-13,-5,10,-2,-9,20,25,8,-20,-19,-22
-10,-15,-5,12,-3,-10,21,26,9,-19,-19,-22
-10,-15,-5,13,-3,-10,21,28,11,-18,-19,-22
-9,-16,-6,13,-2,-11,22,30,13,-16,-18,-22
-9,-16,-7,13,-1,-12,22,31,14,-15,-17,-21
-9,-15,-6,13,-2,-11,22,32,15,-15,-17,-21
-9,-14,-4,12,-3,-9,22,33,16,-14,-16,-21
-9,-14,-4,12,-3,-9,23,33,17,-14,-16,-21
-9,-14,-4,12,-3,-9,23,34,18,-13,-15,-21
-8,-13,-4,11,-2,-8,23,34,19,-13,-15,-21
-6,-11,-5,9,-1,-8,24,35,20,-12,-14,-20
-5,-11,-6,9,0,-8,24,36,20,-11,-14,-20
-7,-13,-6,10,0,-10,24,37,21,-12,-14,-20
-9,-16,-6,13,-1,-11,23,37,21,-12,-15,-21
-10,-17,-6,14,-1,-11,23,37,21,-12,-15,-21
-10,-15,-4,13,-2,-9,23,37,21,-12,-15,-22
-9,-13,-3,12,-3,-8,23,37,22,-12,-15,-22
-9,-13,-4,11,-2,-9,24,38,23,-11,-15,-22
-10,-15,-5,13,-2,-11,24,39,23,-10,-14,-22
-11,-16,-5,14,-3,-12,23,39,23,-11,-14,-22
-12,-19,-6,16,-3,-13,24,39,23,-11,-15,-23
-13,-21,-7,17,-3,-14,24,40,24,-11,-15,-23
-13,-21,-7,17,-3,-14,24,40,24,-11,-15,-23
-12,-19,-6,16,-2,-12,24,41,25,-11,-14,-22
-11,-17,-6,14,-2,-11,24,41,25,-10,-14,-22
-10,-16,-6,14,-2,-11,24,41,25,-10,-13,-22
-9,-16,-6,13,-1,-11,25,41,26,-9,-13,-22
-8,-15,-7,12,0,-11,26,42,27,-8,-12,-22
-5,-12,-7,9,1,-9,26,44,29,-8,-11,-21
-3,-11,-6,7,1,-8,25,44,30,-7,-11,-20
-4,-12,-7,9,1,-9,25,44,30,-8,-11,-20
-6,-14,-7,10,0,-10,24,43,29,-8,-12,-21
-6,-13,-7,11,0,-10,23,42,29,-8,-13,-22
-6,-12,-6,10,0,-9,23,42,30,-8,-13,-22
-6,-11,-6,9,0,-9,22,41,31,-8,-13,-22
-6,-10,-5,8,0,-8,21,40,31,-8,-13,-23
-6,-10,-4,8,-1,-8,20,38,31,-9,-14,-23
-6,-11,-4,8,-1,-8,20,37,32,-8,-13,-23
-5,-11,-6,8,0,-8,21,37,34,-7,-12,-22
-4,-11,-6,8,1,-8,21,37,35,-6,-12,-22
-4,-11,-6,8,1,-8,21,37,36,-6,-12,-21
-4,-11,-6,8,1,-8,21,37,37,-6,-12,-21
-5,-11,-6,8,0,-8,22,36,37,-6,-12,-21
-5,-11,-6,8,0,-8,22,36,38,-6,-12,-22
-6,-11,-6,8,0,-8,22,36,39,-5,-12,-23
-6,-11,-5,9,-1,-8,22,36,40,-5,-12,-23
-6,-11,-5,9,-1,-8,22,37,42,-5,-12,-24
-6,-11,-5,9,-1,-8,22,37,43,-5,-12,-25
-6,-11,-5,9,-1,-8,22,37,43,-5,-12,-26
-6,-11,-4,9,-1,-7,21,38,44,-5,-13,-26
-6,-11,-4,9,-1,-7,21,38,46,-4,-13,-27
-8,-11,-4,9,-2,-7,20,39,47,-4,-13,-28
-9,-11,-3,9,-3,-7,20,39,48,-4,-14,-29
-8,-10,-2,8,-3,-6,20,39,50,-4,-14,-30
-7,-9,-2,8,-2,-6,20,40,52,-3,-14,-31
-6,-9,-2,8,-2,-6,20,42,54,-3,-14,-31
-7,-10,-1,8,-2,-6,20,43,55,-2,-14,-32
-7,-10,-1,9,-3,-6,21,44,57,-2,-14,-32
-8,-10,-1,10,-4,-6,21,45,58,-2,-15,-33
-10,-11,-1,11,-4,-6,21,46,60,-2,-16,-34
-10,-11,0,11,-5,-6,21,47,61,-2,-16,-35
-11,-11,0,11,-6,-5,21,47,63,-2,-17,-35
-12,-11,1,11,-7,-5,21,47,65,-1,-17,-36
-11,-8,3,10,-7,-3,22,49,68,0,-16,-36
-9,-5,4,7,-7,-1,22,51,71,1,-16,-36
-9,-4,4,7,-7,0,23,52,74,2,-16,-36
-9,-4,5,7,-8,0,23,53,76,2,-16,-36
-8,-3,5,6,-7,1,24,54,78,2,-17,-36
-8,-2,5,5,-7,1,24,55,79,2,-17,-36
-7,-1,6,4,-7,2,24,56,81,2,-17,-37
-8,-2,6,5,-7,1,24,57,82,2,-18,-37
-11,-4,6,8,-9,0,24,58,84,2,-19,-38
-13,-6,6,10,-10,0,24,59,85,2,-20,-39
-13,-6,7,9,-10,0,24,60,86,2,-21,-40
-12,-3,8,8,-10,2,25,60,88,2,-21,-39
-11,-1,10,6,-11,5,24,60,89,2,-21,-39
-12,0,11,6,-12,6,23,60,89,1,-22,-39
-13,0,12,7,-12,5,22,60,90,1,-22,-39
-12,0,12,6,-12,6,22,60,91,1,-22,-38
-10,2,12,4,-12,7,22,61,92,1,-21,-37
-9,4,13,2,-11,8,21,61,94,2,-20,-36
-9,4,13,3,-12,8,19,60,94,1,-21,-36
-10,3,14,3,-12,8,18,59,94,0,-22,-37
-9,5,14,2,-12,10,17,59,94,0,-22,-36
-7,7,15,0,-11,11,16,59,94,0,-21,-36
-6,10,16,-1,-11,13,15,58,94,0,-21,-35
-5,11,16,-2,-11,13,14,58,94,1,-21,-34
-6,11,16,-2,-11,13,13,57,94,1,-20,-34
-5,11,16,-2,-11,13,12,56,94,2,-20,-33
-5,12,17,-3,-11,14,10,55,93,3,-19,-32
-5,14,19,-4,-12,16,8,54,93,3,-18,-30
-4,15,19,-5,-12,17,7,52,92,4,-16,-28
-3,15,19,-5,-11,17,6,51,91,5,-14,-26
-4,15,19,-5,-12,17,5,49,89,6,-12,-25
-4,15,19,-5,-12,17,3,47,87,7,-10,-24
-3,16,20,-6,-11,18,2,45,85,9,-9,-23
-1,18,20,-8,-10,18,1,42,83,10,-7,-21
0,18,19,-9,-9,18,0,40,80,10,-6,-20
1,18,17,-9,-8,17,-1,37,76,10,-6,-20
0,16,16,-8,-8,16,-3,34,73,10,-5,-19
0,15,15,-7,-8,15,-5,31,69,10,-4,-19
0,16,15,-7,-8,15,-6,28,66,11,-3,-18
2,18,16,-10,-7,17,-6,26,63,11,-1,-17
5,23,17,-13,-7,19,-7,24,60,11,0,-16
7,25,17,-16,-6,21,-7,23,57,12,0,-16
8,23,14,-15,-4,18,-7,21,55,12,1,-15
7,18,12,-12,-3,15,-7,20,52,13,2,-14
6,16,11,-10,-3,13,-7,18,49,12,2,-14
5,15,11,-9,-3,12,-8,15,45,12,2,-13
4,14,10,-9,-3,12,-9,13,42,11,2,-13
5,15,10,-10,-2,12,-9,11,39,11,3,-12
8,18,10,-13,-1,13,-8,11,37,11,3,-12
9,20,10,-14,-1,14,-8,10,35,10,3,-12
7,17,10,-12,-2,13,-9,7,32,8,2,-14
3,13,9,-8,-3,11,-10,5,29,6,0,-15
2,10,8,-6,-3,9,-11,3,26,5,-1,-16
3,11,8,-7,-2,9,-11,2,23,5,-1,-16
6,13,7,-9,-1,10,-10,1,21,5,-1,-16
7,13,6,-9,0,10,-10,0,19,4,-1,-16
6,12,5,-8,0,8,-10,-1,18,3,-2,-17
5,10,4,-6,0,7,-10,-1,16,2,-3,-18
4,9,4,-6,0,6,-10,-2,15,1,-3,-18
4,8,4,-6,0,5,-10,-2,14,1,-4,-19
4,7,4,-6,0,5,-10,-3,13,1,-4,-19
3,6,4,-4,0,4,-10,-3,12,0,-5,-20
1,5,4,-3,0,4,-10,-4,10,0,-5,-20
0,4,4,-2,-1,3,-10,-5,9,0,-6,-21
1,4,3,-2,-1,3,-10,-5,9,-1,-6,-21
2,4,3,-3,0,3,-9,-5,8,-1,-6,-21
2,5,3,-4,0,3,-9,-5,8,-1,-6,-21
3,7,3,-5,0,4,-8,-4,9,-1,-6,-21
5,9,3,-7,1,5,-7,-3,9,-1,-5,-20
6,11,4,-8,1,7,-7,-3,8,-1,-5,-21
5,10,5,-7,0,7,-7,-4,7,-1,-6,-21
4,8,4,-6,0,6,-7,-3,7,-1,-6,-21
5,7,3,-6,1,5,-6,-3,7,-1,-5,-21
5,7,3,-5,1,5,-6,-3,7,-1,-6,-21
3,5,3,-4,0,3,-7,-3,7,-1,-7,-22
0,2,2,-1,-1,1,-7,-4,6,-2,-8,-23
-1,0,2,0,-1,0,-7,-4,5,-2,-8,-24
-1,0,1,0,-1,0,-7,-4,5,-2,-8,-25
0,1,1,0,0,1,-6,-3,5,-2,-8,-24
1,3,2,-2,0,2,-5,-3,5,-1,-7,-24
2,4,2,-3,0,3,-5,-3,5,-1,-7,-24
1,4,2,-2,0,3,-5,-3,5,-1,-7,-24
1,4,2,-2,-1,3,-5,-3,5,-1,-8,-24
1,4,2,-2,0,3,-5,-2,5,-1,-8,-24
1,3,2,-2,0,2,-4,-2,6,0,-8,-24
1,3,2,-1,0,2,-4,-2,5,-1,-8,-24
1,3,2,-1,0,2,-4,-2,5,-1,-8,-24
2,4,2,-2,0,3,-4,-2,5,0,-7,-24
3,5,2,-4,0,4,-3,-1,5,0,-7,-24
3,6,2,-4,0,4,-2,-1,6,0,-6,-24
3,5,2,-4,0,4,-1,-1,6,1,-6,-23
1,4,3,-2,-1,3,-2,-2,6,0,-7,-24
0,4,4,-2,-2,4,-2,-3,6,0,-7,-24
1,5,4,-3,-1,4,-2,-2,6,1,-7,-24
1,5,4,-3,-1,4,-1,-2,6,1,-6,-24
0,4,4,-1,-2,4,-1,-2,6,1,-6,-24
-1,3,5,0,-3,3,-1,-3,5,1,-6,-24
-2,2,5,0,-3,3,-2,-4,5,1,-7,-25
-3,2,5,0,-4,4,-1,-4,5,1,-6,-24
-3,3,5,0,-4,4,-1,-4,6,2,-6,-24
-3,2,5,0,-4,3,-1,-4,6,2,-6,-24
-3,2,4,0,-4,3,-1,-3,7,2,-5,-24
-3,1,4,0,-4,2,-1,-3,7,3,-5,-24
-3,1,5,0,-4,2,-1,-3,7,3,-5,-24
-3,2,5,0,-4,3,-1,-3,7,4,-5,-24
-3,3,5,0,-3,4,-1,-3,8,5,-4,-24
-2,3,5,0,-3,4,-1,-2,8,6,-4,-24
-3,3,5,0,-4,4,-1,-2,9,6,-3,-24
-4,2,5,1,-4,3,-1,-2,9,6,-3,-24
-5,1,6,2,-5,3,-1,-2,9,7,-3,-24
-5,2,6,1,-5,3,-1,-2,10,8,-3,-23
-2,4,7,-1,-4,5,0,0,11,9,-1,-22
0,6,7,-3,-3,6,1,0,12,11,0,-21
0,6,7,-4,-3,6,1,1,13,12,1,-21
-1,5,7,-3,-4,6,0,1,13,12,1,-21
-1,5,7,-2,-4,6,0,1,13,12,1,-21
-1,6,6,-3,-4,6,0,2,14,13,2,-21
0,6,5,-4,-2,6,1,3,15,15,3,-20
0,6,5,-4,-2,6,1,3,15,16,3,-19
0,6,6,-3,-3,6,0,3,15,16,3,-19
-1,5,6,-2,-4,5,0,2,15,16,3,-20
0,5,6,-3,-3,5,-1,2,15,16,3,-20
1,6,5,-4,-2,6,0,3,16,17,4,-19
2,7,5,-5,-2,6,0,3,17,18,5,-19
2,8,6,-5,-1,7,0,4,18,19,5,-18
3,9,6,-6,-1,7,1,4,18,20,6,-18
3,10,7,-6,-2,8,1,4,19,20,6,-17
3,11,8,-7,-2,10,2,5,20,21,7,-16
2,12,9,-7,-3,11,3,5,21,21,7,-15
1,12,10,-6,-4,11,3,5,21,21,7,-16
0,11,11,-5,-5,11,2,5,21,21,7,-16
0,11,11,-5,-6,11,2,5,21,21,7,-16
0,12,11,-7,-5,12,2,5,21,21,8,-16
2,13,11,-8,-4,12,2,5,21,22,8,-16
3,13,10,-9,-3,11,2,5,21,22,8,-15
4,14,10,-9,-3,12,1,5,21,22,8,-15
6,16,10,-11,-2,13,1,5,22,22,8,-15
7,18,10,-12,-2,14,0,5,22,22,9,-14
6,18,11,-12,-2,14,-3,3,21,22,9,-14
6,18,11,-12,-2,14,-6,2,21,21,9,-14
7,19,12,-13,-2,15,-8,1,20,21,9,-13
7,21,13,-14,-3,17,-10,0,19,21,9,-13
7,22,15,-14,-3,18,-13,-2,17,20,8,-14
8,22,15,-15,-3,18,-14,-3,16,19,7,-13
9,22,14,-15,-2,17,-15,-3,16,18,8,-13
10,23,13,-16,-1,18,-15,-3,16,18,8,-12
11,25,13,-18,-1,19,-15,-4,15,18,8,-12
12,26,13,-19,0,19,-16,-4,14,17,8,-11
12,26,12,-19,0,19,-16,-5,13,16,8,-11
13,25,11,-19,1,18,-16,-5,13,16,8,-11
13,24,10,-19,2,17,-17,-5,12,16,7,-11
13,22,9,-17,2,15,-17,-5,12,16,7,-11
13,21,7,-16,3,13,-17,-4,12,15,7,-11
13,20,6,-16,3,12,-16,-3,12,15,7,-11
13,19,5,-16,4,11,-16,-2,12,15,7,-11
13,17,2,-16,6,10,-15,-1,12,15,8,-11
14,16,0,-16,7,8,-14,0,12,15,8,-11
14,15,0,-15,8,7,-13,0,12,15,8,-12
13,14,0,-14,7,6,-11,1,13,15,8,-12
11,11,0,-12,6,5,-10,0,12,13,7,-13
8,9,0,-9,4,4,-8,0,11,12,5,-15
7,7,1,-7,3,4,-7,0,10,10,3,-17
6,7,1,-6,2,4,-6,0,10,9,2,-17
6,7,1,-6,2,4,-5,0,9,9,1,-18
4,6,1,-5,2,3,-4,0,9,8,1,-18
2,3,0,-3,1,1,-3,-1,9,7,0,-19
0,0,-1,0,1,0,-3,-2,7,5,-1,-21
-2,-4,-2,3,1,-3,-3,-4,6,3,-2,-22
-4,-8,-4,6,0,-6,-3,-5,4,1,-4,-24
-4,-10,-5,7,0,-7,-3,-5,3,0,-5,-25
-3,-10,-5,7,1,-8,-3,-5,3,0,-5,-25
-2,-8,-5,5,1,-7,-2,-5,3,0,-5,-25
0,-5,-5,3,2,-5,-1,-5,4,1,-5,-24
0,-4,-5,2,2,-5,0,-5,4,1,-4,-24
0,-5,-6,2,2,-6,0,-6,4,0,-5,-24
0,-6,-6,3,3,-7,0,-6,4,0,-5,-25
0,-6,-6,2,4,-7,0,-6,4,0,-5,-25
2,-5,-6,1,5,-6,0,-5,4,0,-5,-24
2,-4,-6,1,5,-6,0,-5,4,0,-5,-24
1,-5,-7,2,4,-7,0,-5,4,0,-6,-25
0,-6,-7,3,4,-8,-1,-6,4,0,-6,-25
0,-7,-8,4,3,-8,-1,-6,4,0,-6,-26
-1,-7,-8,4,3,-8,-1,-6,4,0,-6,-26
0,-7,-8,4,3,-8,0,-6,4,0,-5,-26
0,-7,-8,4,4,-8,0,-5,4,0,-5,-26
0,-8,-9,4,5,-8,1,-2,5,0,-5,-26
1,-7,-9,3,5,-8,2,1,7,3,-4,-26
2,-6,-9,2,6,-7,3,7,13,8,-2,-26
2,-6,-10,2,6,-8,3,14,24,16,2,-24
1,-6,-9,2,5,-8,4,23,40,27,8,-22
1,-3,-6,1,4,-5,4,32,58,40,15,-18
2,2,0,-2,2,0,3,36,70,53,23,-13
3,7,4,-5,0,5,0,35,71,67,35,-6
6,13,8,-10,0,10,-4,30,63,82,50,3
10,19,9,-15,0,14,-10,27,49,101,69,14
15,25,10,-20,2,18,-18,27,35,123,91,27
21,32,11,-26,4,21,-27,28,22,149,117,41
29,39,9,-34,10,23,-40,27,7,180,147,58
44,48,4,-46,20,26,-57,20,-13,213,183,79
63,61,-2,-62,33,29,-77,7,-38,250,224,104
83,75,-8,-79,47,33,-100,-8,-60,292,272,133
103,89,-13,-96,59,38,-124,-25,-78,338,323,164
118,105,-12,-111,66,46,-149,-52,-99,375,368,194
127,122,-5,-124,66,58,-175,-100,-127,386,393,215
127,134,6,-130,60,70,-198,-165,-165,360,386,222
120,137,16,-128,51,77,-214,-232,-208,297,344,211
107,128,20,-117,44,74,-220,-286,-248,208,273,183
94,106,12,-100,41,59,-214,-316,-275,116,192,142
80,76,-3,-78,42,36,-202,-324,-290,32,114,96
63,45,-17,-54,41,14,-187,-322,-302,-48,43,54
46,21,-24,-34,35,-1,-171,-313,-306,-115,-15,19
30,6,-24,-18,27,-9,-153,-294,-293,-150,-51,-5
17,-2,-19,-7,17,-10,-136,-268,-265,-157,-68,-21
7,-3,-11,-2,8,-6,-118,-238,-232,-150,-73,-30
2,-1,-4,-1,2,-2,-102,-208,-199,-138,-73,-36
-1,0,1,0,-1,0,-86,-179,-168,-123,-71,-40
-5,-2,3,3,-4,1,-71,-151,-139,-108,-67,-42
-7,-4,4,5,-5,0,-57,-125,-113,-93,-62,-44
-9,-8,2,8,-5,-3,-44,-102,-91,-80,-56,-45
-10,-12,-1,11,-5,-6,-32,-81,-71,-68,-51,-46
-11,-17,-5,14,-4,-11,-21,-63,-54,-57,-46,-47
-10,-19,-9,15,-2,-14,-12,-47,-38,-47,-40,-47
-8,-20,-12,14,1,-16,-4,-34,-25,-38,-35,-45
-7,-19,-13,13,2,-16,1,-24,-15,-30,-30,-44
-7,-18,-11,12,2,-14,5,-17,-7,-25,-27,-42
-6,-16,-9,11,2,-13,8,-11,0,-20,-24,-39
-6,-15,-7,11,1,-11,10,-8,4,-18,-22,-38
-7,-15,-6,11,0,-10,11,-6,6,-16,-21,-38
-9,-16,-6,12,-1,-11,11,-5,8,-15,-21,-38
-10,-16,-6,13,-2,-11,11,-4,9,-15,-21,-38
-11,-16,-6,13,-3,-11,12,-2,11,-14,-20,-38
-10,-16,-7,13,-2,-12,13,0,13,-12,-19,-38
-9,-16,-7,12,-1,-12,14,1,15,-11,-18,-37
-9,-16,-7,12,0,-12,15,3,16,-10,-18,-37
-9,-16,-6,12,0,-11,16,5,17,-9,-17,-37
-9,-15,-6,12,0,-11,16,5,18,-8,-17,-37
-10,-16,-7,13,-1,-12,15,5,18,-8,-17,-37
-10,-17,-7,13,-1,-12,15,5,18,-8,-17,-37
-9,-17,-8,13,0,-12,15,6,19,-8,-16,-36
-8,-16,-8,12,0,-12,15,6,20,-7,-16,-36
-7,-16,-8,12,1,-12,15,6,20,-7,-16,-36
-8,-16,-8,12,0,-13,15,6,21,-7,-16,-36
-10,-18,-8,14,0,-14,15,6,21,-7,-16,-37
-10,-19,-8,15,0,-14,15,6,21,-6,-16,-37
-9,-17,-8,13,0,-12,16,7,22,-5,-15,-36
-7,-14,-7,10,0,-11,17,9,24,-4,-14,-34
-5,-12,-7,9,0,-10,18,9,25,-3,-13,-33
-6,-12,-6,9,0,-9,18,10,25,-3,-13,-33
-6,-12,-6,9,0,-9,18,10,26,-3,-12,-33
-6,-12,-6,9,0,-9,19,10,26,-2,-12,-32
-6,-12,-6,9,0,-10,19,11,27,-2,-12,-32
-7,-13,-6,10,0,-10,19,11,27,-2,-12,-33
-8,-14,-6,11,-1,-10,19,10,27,-2,-12,-33
-8,-14,-6,11,-1,-10,19,10,27,-2,-12,-33
-8,-14,-6,11,-1,-10,19,11,28,-2,-12,-33
-8,-14,-6,11,-1,-10,19,11,29,-2,-12,-33
-10,-15,-6,13,-2,-11,18,11,29,-3,-12,-33
-11,-16,-5,14,-2,-12,17,10,28,-4,-13,-34
-10,-15,-4,13,-2,-10,17,10,29,-3,-13,-34
-9,-13,-4,11,-2,-9,18,10,30,-3,-12,-34
-8,-13,-5,11,-1,-9,19,11,31,-2,-11,-33
-7,-13,-5,10,-1,-9,19,12,32,-1,-11,-32
-6,-11,-5,8,0,-8,20,13,33,-1,-10,-32
-5,-10,-5,7,0,-7,20,13,34,0,-10,-31
-5,-10,-5,7,0,-8,20,14,34,0,-11,-32
-6,-12,-6,9,0,-9,19,14,34,0,-11,-32
-6,-12,-6,9,0,-9,19,14,35,0,-11,-32
-5,-11,-6,8,1,-8,20,15,36,0,-10,-32
-5,-11,-5,8,0,-8,20,15,36,1,-10,-32
-6,-11,-5,9,0,-9,19,15,37,1,-11,-33
-7,-12,-5,9,0,-9,19,16,37,1,-11,-33
-7,-12,-5,9,0,-9,19,16,38,1,-11,-33
-8,-13,-5,10,-1,-9,19,17,38,1,-12,-33
-9,-14,-4,11,-2,-9,20,17,39,1,-12,-33
-7,-13,-5,10,-1,-9,20,18,41,2,-11,-32
-5,-11,-6,8,1,-9,21,20,43,3,-10,-32
-3,-10,-7,7,2,-9,22,21,45,3,-10,-32
-4,-10,-7,7,1,-9,22,22,46,3,-11,-32
-4,-11,-6,8,1,-9,22,22,46,3,-11,-32
-5,-11,-5,8,0,-8,22,23,47,3,-11,-32
-5,-11,-5,8,0,-8,22,24,48,3,-12,-33
-7,-12,-5,9,0,-8,22,25,49,2,-13,-33
-8,-12,-5,10,-1,-8,22,26,51,2,-13,-33
-8,-12,-4,10,-1,-8,23,27,53,3,-13,-33
-7,-11,-4,10,-1,-8,24,29,56,4,-12,-33
-6,-10,-3,9,-1,-7,25,31,58,4,-12,-32
-7,-10,-3,9,-2,-7,26,32,60,5,-12,-32
-9,-12,-2,10,-3,-8,26,33,61,4,-13,-33
-11,-13,-2,12,-3,-8,26,34,62,4,-13,-33
-13,-15,-2,13,-4,-9,26,34,63,4,-14,-34
-13,-16,-2,14,-4,-9,26,36,65,4,-14,-34
-11,-13,-2,12,-3,-7,27,38,69,5,-14,-33
-7,-9,-1,8,-2,-5,29,41,73,7,-13,-32
-5,-7,-1,6,-2,-4,30,43,76,7,-13,-32
-5,-6,0,5,-2,-3,31,44,78,8,-13,-32
-5,-5,0,4,-2,-2,32,46,80,8,-13,-31
-5,-4,1,4,-2,-2,32,47,82,9,-13,-31
-6,-4,2,4,-3,-1,32,47,83,9,-13,-31
-7,-4,3,5,-4,0,32,48,84,9,-14,-32
-8,-3,5,5,-5,0,32,48,85,8,-15,-33
-9,-4,5,6,-6,0,32,49,87,8,-15,-33
-10,-4,5,7,-7,0,32,49,88,8,-16,-33
-9,-3,6,6,-7,1,32,50,89,8,-16,-33
-8,0,7,4,-7,3,32,50,90,8,-16,-32
-8,0,8,3,-8,4,32,50,91,7,-16,-32
-9,1,10,3,-9,5,31,50,91,7,-16,-32
-10,1,11,3,-10,6,31,49,91,7,-17,-32
-11,1,11,4,-10,6,30,49,91,6,-17,-32
-11,0,11,5,-11,6,30,48,91,6,-17,-32
-11,0,11,5,-11,6,29,48,91,6,-17,-32
-12,0,12,6,-11,6,28,47,91,6,-17,-32
-12,0,12,6,-12,6,27,46,91,5,-17,-32
-13,0,13,6,-13,7,26,44,90,5,-17,-32
-13,0,13,7,-13,7,25,43,89,4,-18,-31
-14,0,13,7,-13,7,24,42,88,5,-17,-31
-13,0,14,6,-13,8,23,41,87,5,-16,-29
-11,3,15,4,-13,10,23,42,87,7,-14,-27
-7,9,16,0,-11,13,23,42,87,8,-12,-24
-3,13,16,-5,-10,15,22,41,86,9,-10,-22
-1,15,17,-7,-9,16,20,39,83,9,-9,-21
-1,15,17,-7,-9,16,18,37,81,9,-8,-21
-1,14,16,-6,-8,15,17,35,78,9,-7,-20
-2,13,15,-6,-8,14,16,33,76,10,-5,-19
-1,14,15,-6,-7,14,15,32,73,11,-3,-17
0,14,14,-7,-7,14,14,30,70,11,-2,-16
0,14,14,-7,-7,14,12,28,67,11,0,-15
0,14,13,-7,-6,13,11,26,63,11,0,-14
0,14,13,-7,-6,13,9,23,59,10,1,-14
0,13,13,-7,-6,13,7,21,55,10,1,-13
1,14,13,-8,-5,13,7,19,52,10,2,-12
3,15,12,-9,-4,14,7,17,49,10,3,-12
4,15,11,-9,-3,13,6,15,46,9,3,-11
5,14,9,-9,-2,12,5,13,42,8,4,-11
5,13,8,-9,-1,11,5,12,39,7,4,-11
5,13,7,-9,-1,10,4,10,36,6,4,-11
5,11,7,-8,-1,9,3,8,32,4,3,-11
4,9,6,-7,-1,8,2,5,28,3,3,-12
3,8,6,-6,-1,7,1,3,25,2,2,-12
3,7,5,-5,-1,6,1,2,23,2,2,-12
3,6,4,-5,0,5,1,1,21,1,2,-11
4,5,2,-4,1,4,1,0,19,0,2,-11
3,4,1,-3,1,3,0,-2,16,-1,2,-12
2,3,0,-3,1,2,0,-3,14,-2,1,-12
3,4,0,-3,1,2,0,-5,12,-3,1,-12
3,5,1,-4,2,2,0,-6,9,-4,0,-13
3,5,1,-4,2,2,-1,-8,7,-5,0,-13
3,4,0,-4,2,1,-1,-9,6,-6,0,-13
4,4,0,-4,3,1,-1,-10,5,-7,-1,-13
4,3,-1,-4,3,1,0,-10,4,-8,-1,-13
4,3,-1,-4,3,1,0,-10,3,-9,-2,-13
4,2,-1,-3,3,0,0,-11,2,-10,-3,-14
4,2,-2,-2,3,0,0,-12,0,-11,-3,-14
4,3,-1,-3,3,0,0,-13,0,-12,-4,-14
4,3,-1,-3,3,0,0,-13,-1,-12,-4,-14
4,2,-1,-3,2,0,0,-14,-2,-13,-5,-14
4,2,-1,-3,2,1,0,-14,-2,-14,-5,-14
4,2,-1,-2,2,0,0,-15,-3,-14,-5,-15
2,0,-2,-1,2,-1,0,-15,-4,-15,-6,-15
1,-1,-1,0,1,-1,0,-16,-5,-16,-7,-15
1,0,-1,0,1,-1,0,-16,-5,-17,-7,-15
2,1,-1,-1,1,0,0,-16,-5,-17,-7,-15
2,1,-1,-2,2,0,1,-17,-5,-18,-7,-15
2,1,-2,-2,2,0,1,-17,-6,-18,-8,-15
1,0,-2,-1,1,-1,0,-18,-6,-19,-8,-15
0,-1,-1,0,0,-1,0,-19,-7,-20,-9,-16
-1,-2,-1,1,0,-1,0,-20,-7,-21,-9,-16
-1,-2,-1,2,0,-2,0,-20,-8,-22,-10,-16
0,-1,-1,0,0,-1,1,-20,-8,-22,-10,-15
2,0,-1,-1,1,0,1,-20,-8,-22,-10,-15
2,1,-1,-1,1,0,1,-21,-8,-22,-10,-15
2,1,-1,-2,1,0,1,-22,-9,-23,-11,-16
3,2,0,-2,1,1,0,-22,-9,-23,-12,-16
3,2,-1,-2,2,0,1,-22,-8,-23,-11,-16
2,0,-2,-1,2,-1,2,-22,-8,-23,-11,-15
0,-2,-2,1,1,-2,1,-23,-8,-23,-11,-16
-3,-5,-1,4,-1,-3,0,-24,-9,-24,-12,-16
-4,-6,-1,5,-2,-4,0,-25,-10,-24,-13,-17
-3,-5,-2,4,-1,-4,1,-24,-9,-24,-13,-16
-1,-4,-2,2,0,-4,1,-24,-8,-23,-12,-16
0,-3,-3,1,1,-3,2,-23,-8,-22,-12,-16
0,-2,-3,1,2,-2,2,-23,-7,-22,-11,-15
0,-1,-2,0,2,-1,3,-23,-6,-21,-10,-15
0,-1,-2,0,1,-1,3,-22,-6,-20,-10,-15
-1,-3,-2,2,1,-2,3,-22,-5,-20,-9,-14
-2,-5,-3,3,0,-3,3,-22,-5,-19,-9,-14
-2,-5,-3,3,0,-3,3,-21,-4,-18,-9,-14
-2,-5,-2,3,-1,-3,3,-21,-4,-18,-9,-14
-3,-4,-1,3,-1,-2,3,-22,-4,-17,-9,-14
-2,-3,-1,2,0,-2,3,-21,-3,-16,-8,-14
0,-2,-1,0,1,-1,4,-20,-1,-15,-7,-13
1,-1,-1,0,1,-1,4,-20,0,-13,-6,-12
0,-1,-1,0,1,0,4,-20,0,-12,-5,-12
0,-1,-1,1,0,0,4,-20,0,-12,-5,-13
-1,-1,0,1,0,0,4,-20,0,-11,-5,-13
-1,-2,-1,2,0,-1,5,-20,1,-10,-5,-13
-2,-4,-2,3,0,-3,5,-19,2,-9,-5,-12
-1,-4,-2,3,0,-3,5,-19,3,-9,-4,-12
0,-3,-2,1,0,-2,5,-18,4,-8,-3,-11
1,-1,-2,0,1,-1,5,-18,5,-7,-2,-11
2,0,-2,-1,1,-1,5,-18,5,-6,-2,-11
3,0,-2,-2,2,0,6,-17,6,-5,-1,-10
2,0,-2,-2,2,-1,6,-17,7,-4,0,-10
1,-1,-2,-1,1,-1,6,-17,7,-4,0,-9
0,-2,-3,0,1,-2,6,-17,7,-4,0,-10
0,-4,-3,2,1,-3,5,-18,7,-4,-1,-10
0,-5,-4,2,1,-4,4,-19,6,-4,-1,-11
0,-4,-4,1,1,-4,4,-19,6,-3,0,-11
0,-3,-3,1,1,-3,4,-19,7,-3,0,-10
0,-2,-3,1,1,-2,4,-19,7,-2,0,-10
0,-2,-3,1,1,-2,3,-19,7,-2,0,-10
0,-1,-2,1,1,-1,4,-19,7,-2,0,-10
0,0,-1,0,0,0,4,-18,8,-1,0,-9
1,1,-1,0,0,0,4,-18,9,0,1,-8
1,1,0,-1,0,1,5,-17,10,0,2,-7
2,3,0,-2,0,2,5,-17,11,1,3,-6
2,5,2,-4,0,4,6,-16,12,2,4,-5
3,8,4,-5,0,6,7,-15,13,3,5,-4
5,10,5,-7,0,7,8,-14,14,3,6,-4
4,9,5,-6,0,7,8,-14,14,3,6,-4
3,8,5,-5,-1,7,7,-14,13,3,5,-4
3,8,5,-5,-1,7,6,-15,13,3,5,-4
3,7,5,-5,-1,6,5,-16,12,2,5,-4
2,5,4,-3,-1,5,4,-18,10,1,4,-6
1,5,4,-2,-2,4,3,-19,9,0,3,-6
2,7,5,-4,-1,5,2,-19,9,0,3,-5
4,9,5,-6,-1,7,1,-20,10,0,4,-4
5,12,6,-8,0,8,-1,-21,10,1,5,-3
8,15,7,-11,0,11,-3,-22,10,1,5,-2
9,17,7,-13,0,12,-4,-22,10,1,6,-2
10,17,8,-13,1,13,-6,-23,9,1,6,-1
10,17,8,-13,1,13,-8,-25,7,0,6,-1
9,17,8,-13,1,13,-10,-27,5,0,5,-1
9,17,8,-13,0,13,-12,-29,3,-2,4,-2
10,19,9,-14,0,14,-14,-30,2,-3,3,-2
11,20,9,-15,0,15,-15,-31,1,-4,2,-3
11,19,7,-14,1,13,-15,-31,0,-5,2,-3
11,17,6,-13,1,12,-15,-31,0,-5,2,-3
11,17,6,-14,1,11,-15,-30,0,-5,2,-2
12,18,6,-15,2,12,-15,-29,0,-5,2,-2
14,19,5,-17,4,12,-14,-28,1,-4,3,-1
16,19,3,-18,6,11,-13,-26,2,-3,5,0
17,19,1,-18,8,10,-12,-25,3,-2,6,0
17,17,0,-17,8,8,-11,-24,3,-2,6,0
16,14,-2,-15,9,6,-10,-23,3,-2,5,0
16,12,-4,-14,9,4,-9,-23,3,-2,4,0
15,10,-4,-13,9,3,-8,-22,3,-2,4,-1
14,9,-4,-11,8,2,-6,-22,3,-3,4,-1
10,7,-2,-9,6,2,-5,-23,2,-4,3,-3
7,5,-1,-6,4,2,-4,-24,1,-5,1,-4
5,3,-1,-4,3,1,-3,-25,0,-6,0,-5
4,2,-1,-3,2,1,-2,-25,0,-7,0,-6
3,0,-2,-1,2,0,-1,-26,-1,-8,-1,-7
1,-2,-3,0,2,-2,-1,-26,-2,-9,-2,-8
0,-3,-3,1,1,-3,0,-26,-2,-10,-3,-9
1,-4,-4,1,2,-4,1,-26,-3,-10,-3,-10
1,-5,-5,2,3,-5,1,-26,-4,-11,-4,-11
-1,-8,-6,4,3,-6,1,-27,-5,-13,-5,-12
-2,-10,-7,6,3,-8,1,-27,-6,-13,-6,-13
-2,-10,-8,6,3,-9,1,-27,-6,-14,-7,-13
-1,-9,-9,5,3,-9,1,-26,-6,-14,-7,-13
0,-8,-9,4,4,-8,2,-26,-6,-14,-6,-13
0,-7,-8,3,3,-8,2,-26,-5,-14,-6,-13
0,-8,-8,4,3,-8,2,-26,-5,-13,-6,-14
0,-8,-8,4,3,-8,2,-26,-5,-13,-6,-14
0,-9,-8,5,3,-8,2,-26,-5,-14,-7,-14
-1,-10,-8,6,3,-8,2,-26,-5,-14,-7,-14
-1,-10,-8,5,3,-8,3,-25,-5,-14,-7,-13
-1,-9,-8,5,3,-8,3,-25,-5,-13,-7,-13
-2,-10,-8,6,2,-9,2,-25,-5,-13,-7,-14
-4,-12,-8,8,1,-9,2,-26,-6,-14,-8,-14
-4,-12,-8,8,1,-10,3,-26,-6,-14,-7,-15
-2,-11,-8,7,2,-9,3,-26,-5,-13,-7,-14
0,-9,-8,5,3,-8,4,-24,-4,-12,-6,-14
1,-7,-7,3,4,-7,5,-20,-2,-10,-5,-14
1,-7,-8,2,4,-8,6,-15,2,-6,-4,-14
0,-10,-10,4,4,-10,7,-8,11,0,-1,-13
-2,-11,-9,6,3,-10,8,0,25,9,3,-12
-2,-7,-5,5,1,-6,9,10,43,21,9,-9
-1,-1,0,2,-1,-1,9,17,59,34,17,-5
0,4,4,-2,-2,4,7,18,66,46,26,1
3,10,7,-6,-2,9,2,16,64,60,39,9
7,16,9,-11,-1,13,-4,15,58,79,57,20
13,23,10,-18,1,17,-12,19,51,103,78,33
21,33,12,-28,4,22,-21,25,45,131,104,48
32,44,13,-39,9,28,-34,30,37,164,134,66
45,55,11,-50,16,33,-52,27,21,199,168,86
58,64,6,-62,25,35,-77,12,-6,233,205,108
73,73,0,-73,36,37,-104,-8,-35,270,246,132
91,85,-5,-87,48,40,-132,-25,-58,314,294,160
110,102,-8,-106,59,47,-159,-45,-77,360,345,191
126,121,-5,-123,65,58,-187,-79,-101,392,385,219
132,136,3,-133,64,69,-212,-135,-134,392,400,236
128,142,14,-135,56,78,-231,-207,-177,353,381,237
118,140,22,-129,47,81,-240,-276,-222,280,330,220
105,127,21,-116,41,74,-239,-325,-260,187,257,187
92,103,10,-97,40,57,-229,-347,-284,97,178,145
80,76,-3,-77,41,36,-213,-350,-299,13,104,102
65,51,-13,-58,39,19,-195,-346,-309,-66,37,63
48,31,-16,-39,32,7,-176,-335,-308,-126,-15,32
32,18,-13,-25,22,2,-155,-313,-289,-154,-46,11
18,12,-6,-15,12,2,-134,-283,-258,-157,-60,-2
9,9,0,-9,4,3,-114,-251,-223,-148,-64,-10
4,7,3,-5,0,4,-95,-219,-190,-136,-65,-16
0,6,5,-3,-3,5,-77,-189,-160,-122,-64,-22
-3,3,6,0,-5,4,-62,-162,-133,-108,-61,-26
-6,-2,4,4,-5,1,-48,-136,-109,-95,-57,-29
-8,-7,1,8,-5,-2,-35,-114,-87,-83,-52,-31
-9,-12,-2,11,-4,-7,-24,-94,-69,-72,-48,-32
-9,-17,-6,13,-2,-12,-14,-77,-53,-62,-43,-32
-8,-20,-11,14,0,-16,-5,-63,-39,-53,-39,-32
-7,-22,-14,14,2,-18,1,-51,-28,-45,-35,-31
-7,-21,-14,14,3,-18,6,-42,-20,-39,-31,-30
-7,-20,-13,14,2,-17,9,-36,-13,-34,-28,-28
-8,-19,-10,14,1,-15,11,-32,-7,-31,-26,-27
-8,-18,-8,14,0,-13,13,-28,-3,-29,-24,-27
-9,-18,-7,15,-1,-12,14,-26,-1,-27,-23,-26
-11,-18,-6,15,-3,-12,15,-24,1,-26,-23,-25
-11,-17,-6,14,-3,-12,16,-23,3,-25,-22,-25
-9,-15,-6,12,-2,-11,17,-21,5,-24,-21,-24
-9,-14,-6,11,-2,-11,17,-19,6,-23,-21,-25
-9,-16,-7,12,-2,-12,18,-17,7,-22,-21,-25
-10,-17,-7,13,-2,-12,18,-15,8,-21,-20,-25
-9,-17,-7,13,-1,-12,19,-14,10,-20,-19,-24
-8,-16,-7,13,-1,-11,20,-13,11,-19,-19,-23
-7,-15,-7,12,0,-11,20,-12,12,-19,-18,-23
-6,-13,-7,10,0,-10,21,-11,13,-18,-18,-22
-6,-13,-8,9,0,-10,21,-11,13,-18,-18,-22
-6,-13,-8,9,0,-10,21,-10,14,-17,-18,-21
-6,-13,-8,10,0,-11,22,-9,14,-17,-17,-21
-7,-14,-7,10,-1,-11,22,-8,15,-16,-17,-21
-7,-14,-6,11,-1,-11,22,-8,15,-16,-17,-21
-7,-14,-6,11,-1,-11,22,-8,16,-16,-17,-21
-7,-14,-6,11,-1,-10,22,-8,16,-16,-17,-21
-7,-14,-6,11,-1,-11,22,-8,16,-16,-17,-21
-9,-16,-6,12,-2,-11,22,-8,16,-16,-17,-21
-11,-17,-6,14,-3,-12,22,-8,16,-16,-18,-22
-12,-18,-7,15,-3,-12,22,-7,16,-16,-18,-22
-11,-18,-7,15,-3,-12,22,-7,16,-16,-17,-22
-10,-17,-7,14,-2,-12,22,-6,17,-16,-17,-21
-9,-16,-7,13,-2,-11,23,-5,18,-15,-16,-20
-7,-14,-7,11,-1,-11,23,-4,19,-14,-15,-19
-6,-12,-6,9,-1,-9,24,-3,21,-14,-15,-19
-5,-10,-6,8,-1,-8,24,-3,22,-13,-14,-18
-5,-11,-6,8,-1,-8,25,-2,22,-13,-14,-18
-6,-11,-6,8,-1,-8,25,-2,22,-13,-14,-18
-8,-12,-5,10,-2,-8,25,-3,22,-13,-15,-19
-10,-14,-4,12,-3,-9,24,-3,22,-14,-16,-19
-12,-17,-5,15,-3,-11,23,-3,22,-14,-16,-19
-13,-20,-6,17,-4,-13,23,-2,23,-14,-16,-19
-14,-20,-5,17,-5,-13,23,-2,23,-15,-17,-19
-14,-20,-5,17,-5,-13,23,-2,23,-15,-17,-19
-13,-18,-5,15,-4,-12,24,-1,25,-14,-16,-19
-11,-16,-5,13,-3,-11,25,0,26,-13,-15,-18
-10,-16,-5,13,-3,-11,25,0,27,-12,-15,-18
-9,-15,-5,12,-2,-10,26,1,28,-12,-15,-17
-7,-12,-5,10,-1,-8,26,2,30,-11,-14,-17
-6,-11,-5,9,0,-8,27,3,31,-10,-14,-16
-5,-11,-5,9,0,-8,27,3,31,-10,-14,-16
-6,-11,-5,9,-1,-8,27,4,32,-10,-15,-17
-7,-12,-4,10,-2,-8,27,4,32,-10,-15,-17
-7,-11,-4,9,-3,-7,28,5,33,-10,-15,-16
-7,-10,-3,8,-3,-6,28,5,34,-10,-15,-16
-6,-10,-3,8,-2,-6,28,6,35,-10,-15,-16
-6,-10,-4,8,-2,-6,29,7,37,-9,-15,-16
-7,-10,-4,9,-2,-6,29,9,38,-9,-15,-16
-9,-12,-3,10,-3,-7,29,9,39,-9,-15,-17
-10,-14,-4,12,-4,-9,29,10,40,-10,-16,-17
-11,-15,-4,13,-4,-9,30,11,41,-9,-17,-17
-10,-13,-4,12,-3,-9,30,13,43,-9,-16,-17
-8,-11,-3,10,-3,-7,31,14,45,-8,-16,-17
-7,-9,-2,8,-3,-6,31,16,47,-8,-16,-16
-7,-8,-1,8,-3,-5,32,17,49,-8,-16,-16
-7,-8,-1,8,-4,-4,33,19,51,-7,-16,-16
-7,-8,0,7,-4,-4,35,21,53,-7,-15,-16
-7,-8,0,8,-4,-4,36,23,55,-6,-16,-16
-10,-10,0,10,-6,-5,35,24,57,-6,-17,-17
-13,-13,0,13,-8,-6,35,25,58,-7,-18,-18
-15,-14,0,14,-9,-6,36,26,59,-7,-18,-18
-15,-13,1,14,-9,-6,36,27,61,-7,-19,-18
-13,-11,1,12,-8,-5,37,29,64,-6,-19,-18
-12,-9,2,10,-8,-3,38,31,66,-6,-19,-17
-12,-8,4,10,-8,-1,39,32,68,-6,-19,-18
-13,-9,5,11,-9,-1,39,33,69,-6,-20,-18
-15,-9,6,12,-10,-1,39,34,71,-6,-21,-19
-15,-8,7,11,-11,0,40,36,73,-6,-21,-19
-12,-5,8,9,-11,1,42,38,76,-5,-20,-18
-10,-3,8,7,-10,3,43,40,79,-4,-19,-17
-11,-2,8,7,-11,3,43,41,81,-4,-20,-17
-13,-3,10,8,-13,4,42,42,83,-4,-20,-18
-14,-3,11,9,-14,4,42,42,84,-5,-21,-18
-14,-3,12,8,-14,4,43,43,85,-4,-21,-18
-14,-2,12,7,-14,5,43,43,86,-4,-21,-18
-13,0,13,6,-14,6,43,43,87,-4,-21,-17
-12,1,13,5,-14,7,43,44,88,-4,-20,-17
-11,2,14,4,-14,8,42,44,89,-4,-20,-17
-12,1,14,5,-14,8,41,44,90,-4,-20,-17
-12,2,15,5,-15,9,41,44,91,-4,-20,-16
-11,4,16,3,-15,10,41,45,92,-3,-20,-15
-9,6,17,2,-14,12,41,45,92,-3,-19,-14
-9,8,18,1,-14,13,40,44,92,-3,-19,-14
-11,8,19,2,-15,13,38,43,91,-3,-19,-14
-12,7,19,2,-16,13,37,42,90,-3,-19,-14
-13,6,19,3,-17,13,36,41,90,-3,-18,-13
-13,6,19,4,-17,13,35,40,89,-3,-17,-12
-13,7,20,3,-18,14,33,39,88,-2,-16,-11
-11,10,22,0,-17,16,32,38,87,-2,-15,-10
-10,12,22,-1,-17,17,32,37,86,-1,-13,-8
-9,13,22,-2,-16,17,31,36,84,0,-11,-7
-8,13,21,-3,-15,17,29,34,82,1,-9,-5
-7,13,20,-3,-14,16,27,32,79,1,-8,-4
-6,14,20,-4,-14,16,26,30,76,2,-7,-3
-5,15,19,-5,-13,17,24,28,72,2,-5,-1
-4,15,19,-5,-12,17,22,25,68,2,-4,-1
-4,14,19,-5,-12,16,19,22,63,2,-3,0
-3,15,18,-6,-11,16,17,20,59,2,-2,0
-1,16,18,-7,-10,17,16,17,55,2,-1,1
0,17,18,-8,-9,17,15,15,52,2,0,2
0,17,17,-8,-9,16,14,12,48,1,0,3
0,16,15,-8,-8,15,13,10,44,1,0,3
0,15,14,-8,-7,14,11,7,40,0,0,3
2,15,13,-8,-6,14,10,5,36,0,1,4
3,15,12,-9,-5,14,9,3,32,0,1,4
3,14,12,-8,-4,13,8,1,28,-1,1,4
2,12,11,-7,-4,11,7,-1,25,-2,1,4
2,10,10,-6,-4,9,6,-3,21,-3,0,4
2,9,9,-5,-3,8,6,-5,18,-4,0,4
1,9,8,-5,-3,8,5,-7,16,-5,0,4
1,9,7,-5,-3,7,5,-9,13,-5,0,4
1,8,7,-4,-3,7,4,-10,11,-5,0,3
1,7,6,-4,-3,6,4,-12,8,-6,0,3
1,6,5,-3,-2,5,3,-13,6,-8,-1,2
2,5,4,-3,-1,4,3,-15,4,-9,-2,2
2,4,3,-2,-1,3,2,-16,2,-10,-2,1
2,3,2,-2,0,2,2,-17,0,-11,-3,1
1,2,1,-2,0,1,2,-18,-1,-12,-3,1
0,0,0,0,-1,0,2,-19,-3,-13,-4,0
-2,-1,0,1,-1,-1,1,-20,-4,-14,-5,0
0,1,1,0,-1,0,2,-20,-5,-14,-5,0
2,4,2,-3,0,3,2,-20,-6,-14,-5,0
3,5,2,-4,0,3,2,-21,-7,-15,-5,0
2,4,1,-3,0,2,2,-22,-8,-16,-6,-1
1,1,0,-1,0,1,2,-22,-9,-17,-6,-2
0,0,0,0,0,0,3,-22,-9,-17,-6,-1
1,0,0,0,1,0,3,-22,-9,-17,-5,-1
1,1,0,-1,1,0,4,-22,-10,-17,-6,-1
2,1,-1,-1,1,0,4,-22,-10,-18,-6,-1
2,0,-1,-1,2,-1,4,-22,-11,-18,-7,-2
3,0,-2,-1,2,-1,4,-22,-11,-18,-7,-2
3,0,-2,-1,2,-1,4,-22,-11,-18,-7,-2
2,0,-1,0,1,-1,4,-22,-11,-19,-7,-2
1,0,0,0,0,0,4,-22,-12,-20,-8,-2
1,0,0,-1,0,0,5,-22,-13,-20,-7,-1
1,1,0,-1,0,0,5,-22,-13,-20,-7,-1
1,1,0,-1,0,0,4,-23,-14,-21,-8,-2
1,2,0,-1,0,1,4,-23,-14,-21,-8,-3
1,0,-1,0,0,0,4,-23,-14,-21,-8,-3
0,-2,-2,2,0,-2,4,-24,-14,-22,-8,-3
-1,-3,-2,3,0,-3,4,-24,-15,-22,-9,-4
-2,-5,-2,4,-1,-3,4,-25,-16,-23,-9,-4
-5,-7,-2,6,-2,-4,3,-25,-17,-24,-10,-5
-6,-8,-1,7,-2,-5,3,-25,-17,-24,-11,-5
-5,-6,-1,6,-2,-4,3,-25,-17,-24,-10,-5
-4,-5,-1,5,-1,-3,4,-25,-17,-24,-10,-5
-4,-6,-1,5,-2,-4,4,-25,-17,-24,-11,-6
-3,-5,-1,4,-1,-3,4,-25,-17,-24,-11,-6
-2,-3,0,2,-1,-2,4,-25,-17,-24,-10,-5
-2,-3,0,2,-1,-2,3,-25,-17,-25,-11,-5
-3,-5,-1,4,0,-3,3,-25,-18,-25,-11,-5
-2,-5,-3,3,0,-4,3,-25,-17,-24,-10,-5
0,-3,-3,2,1,-3,4,-24,-16,-23,-9,-4
0,-2,-2,1,1,-2,5,-23,-15,-22,-9,-4
0,-2,-1,1,0,-2,5,-24,-15,-23,-9,-4
-1,-2,-1,2,0,-2,5,-24,-16,-23,-9,-5
-1,-1,0,1,0,-1,5,-24,-16,-22,-9,-5
-1,-1,0,1,-1,0,5,-24,-15,-22,-8,-4
-2,0,1,1,-1,0,6,-24,-14,-21,-8,-4
-1,0,0,1,-1,0,6,-23,-14,-21,-8,-4
-1,0,0,1,0,0,5,-23,-14,-21,-8,-5
-2,-2,-1,3,0,-1,4,-24,-15,-21,-8,-5
-4,-4,0,4,-1,-2,4,-25,-14,-21,-8,-6
-3,-3,0,3,-1,-2,4,-24,-13,-20,-7,-5
-1,-1,0,1,0,-1,5,-23,-12,-18,-6,-4
0,0,0,0,0,-1,5,-22,-11,-17,-5,-4
0,0,0,0,0,0,5,-22,-10,-17,-5,-3
-1,0,0,0,0,0,5,-22,-9,-16,-4,-4
-1,-1,0,1,0,-1,5,-21,-9,-15,-4,-4
0,-1,-1,0,1,-1,6,-20,-8,-14,-3,-4
1,0,-1,0,1,-1,6,-20,-7,-12,-2,-3
1,0,-1,0,1,0,6,-20,-7,-11,-1,-3
0,0,-1,0,1,-1,5,-20,-6,-10,-1,-3
0,-1,-2,0,1,-2,5,-20,-6,-10,-1,-3
0,-1,-2,0,1,-2,5,-19,-5,-9,0,-2
0,0,-1,0,1,-1,5,-18,-3,-8,0,-1
0,0,-1,0,1,-1,5,-17,-3,-7,0,-1
0,0,-1,0,0,0,5,-17,-2,-7,1,-1
0,1,0,-1,0,1,5,-16,-2,-6,1,-1
0,2,1,-1,0,2,5,-16,-1,-5,2,-1
0,2,1,-1,0,2,5,-16,-1,-4,2,-1
0,1,1,0,0,1,5,-16,0,-3,3,0
0,1,1,0,0,1,5,-15,0,-2,4,0
0,1,2,0,0,2,5,-14,1,-2,5,0
0,2,2,-1,-1,2,5,-13,2,-1,5,0
0,3,3,-1,-1,3,5,-13,2,-1,6,1
0,3,3,-1,-2,3,5,-13,3,0,6,1
-1,4,5,-1,-3,4,5,-13,3,0,6,1
-1,6,6,-2,-4,6,6,-12,4,1,7,1
0,9,7,-4,-4,8,6,-11,6,2,8,2
2,10,8,-6,-3,9,6,-10,7,3,8,2
3,11,8,-7,-3,9,6,-10,7,3,9,3
4,11,7,-8,-2,9,6,-9,8,3,9,3
4,11,7,-8,-1,9,6,-9,8,3,9,3
4,11,6,-7,-1,8,5,-9,7,3,9,3
4,10,6,-7,-1,8,4,-10,6,2,8,3
3,11,7,-7,-2,9,3,-11,5,1,8,3
3,12,8,-7,-2,10,1,-12,5,1,9,3
4,13,9,-8,-3,11,-1,-13,5,1,9,3
4,13,10,-9,-3,11,-4,-15,4,1,8,3
5,14,10,-9,-3,12,-6,-16,3,1,8,3
6,15,10,-11,-2,13,-7,-17,2,0,8,3
8,16,9,-12,-1,13,-8,-17,1,0,8,4
8,17,9,-13,0,12,-10,-18,0,0,8,4
9,18,9,-14,0,13,-11,-19,0,-1,8,4
10,19,9,-15,0,14,-12,-20,-1,-1,7,5
11,20,9,-15,1,15,-13,-21,-3,-2,7,5
12,21,8,-16,2,15,-14,-21,-4,-3,7,5
15,22,7,-18,3,15,-14,-21,-4,-3,7,6
16,23,7,-19,4,15,-14,-21,-5,-3,7,6
16,22,5,-19,5,14,-14,-21,-5,-3,7,6
15,19,4,-17,5,12,-13,-20,-5,-2,8,7
14,16,2,-15,5,9,-13,-18,-4,-2,8,7
13,14,0,-13,6,7,-12,-17,-4,-1,8,7
13,12,-1,-12,6,5,-11,-17,-5,-2,8,7
12,11,-2,-11,6,4,-11,-17,-6,-3,7,6
13,11,-3,-12,7,4,-10,-16,-6,-3,7,6
14,11,-4,-13,9,3,-8,-14,-5,-2,8,7
13,10,-4,-11,9,2,-6,-14,-5,-2,7,7
9,6,-3,-8,7,1,-5,-15,-6,-4,6,5
5,2,-3,-4,4,0,-4,-16,-7,-6,4,4
1,-1,-3,0,3,-2,-3,-17,-8,-8,2,2
0,-2,-3,0,2,-3,-3,-18,-10,-9,1,1
0,-2,-2,0,2,-2,-2,-18,-11,-10,0,0
-1,-1,0,1,0,-1,-2,-19,-11,-11,-1,-1
-1,-2,-1,1,0,-2,0,-18,-11,-12,-1,-1
1,-3,-4,0,3,-4,1,-17,-11,-11,-1,0
2,-4,-6,0,4,-5,2,-17,-11,-12,-1,-1
2,-4,-7,0,4,-5,3,-17,-12,-13,-2,-1
2,-5,-7,1,4,-6,3,-17,-12,-14,-3,-2
1,-5,-7,2,3,-6,3,-17,-13,-15,-4,-3
0,-6,-7,3,3,-6,3,-17,-14,-16,-4,-3
0,-8,-8,4,3,-8,3,-17,-14,-16,-4,-4
-1,-10,-8,5,3,-9,3,-18,-14,-17,-5,-4
-2,-11,-8,6,3,-10,3,-18,-15,-17,-6,-4
-1,-9,-7,5,3,-9,3,-19,-16,-17,-6,-5
0,-8,-7,4,3,-8,4,-18,-16,-18,-7,-5
-1,-9,-8,5,3,-9,4,-18,-16,-18,-7,-5
-2,-12,-10,7,4,-12,5,-17,-15,-18,-7,-5
-2,-13,-11,8,4,-12,5,-17,-15,-17,-7,-5
-2,-12,-11,7,5,-12,4,-17,-15,-17,-6,-5
-2,-12,-10,7,4,-11,4,-17,-15,-17,-6,-5
-3,-13,-9,7,3,-11,4,-17,-15,-17,-6,-5
-4,-13,-9,8,3,-11,4,-17,-15,-17,-6,-5
-4,-14,-10,8,3,-12,4,-17,-15,-17,-6,-6
-3,-14,-11,9,4,-13,5,-14,-14,-16,-6,-7
-1,-14,-13,7,6,-13,6,-9,-10,-13,-5,-7
0,-12,-13,6,7,-13,7,-1,-3,-7,-3,-7
1,-11,-12,5,6,-11,8,7,9,1,1,-5
1,-9,-9,3,5,-9,9,17,26,13,7,-3
0,-6,-6,2,3,-6,10,26,43,25,14,0
-2,-4,-1,3,0,-2,8,28,54,36,22,5
-4,0,3,2,-3,1,3,25,55,49,33,11
-1,5,6,-2,-4,6,-4,23,50,65,48,20
6,14,7,-10,-1,11,-12,26,45,88,68,32
16,25,8,-21,4,17,-21,33,41,116,94,47
29,39,9,-34,9,24,-32,41,37,148,123,65
44,51,8,-48,17,30,-47,43,26,183,156,85
58,62,4,-60,27,33,-70,32,2,217,191,105
73,71,-1,-72,37,35,-96,13,-29,251,229,127
88,81,-6,-84,48,37,-123,-6,-55,291,273,153
104,94,-10,-99,58,42,-151,-26,-76,336,322,183
120,112,-9,-116,65,51,-179,-58,-100,372,364,211
128,127,-1,-128,65,63,-206,-112,-133,380,386,231
127,136,9,-132,58,73,-226,-184,-175,350,377,237
119,137,17,-128,50,77,-237,-257,-221,284,334,225
108,126,19,-117,44,72,-238,-313,-262,193,266,197
95,104,10,-99,42,57,-230,-342,-291,101,187,157
82,78,-3,-80,42,37,-216,-349,-308,17,113,114
68,54,-13,-61,41,20,-200,-346,-320,-61,46,75
52,35,-17,-44,34,9,-181,-334,-322,-125,-8,44
36,23,-13,-29,24,5,-160,-313,-306,-158,-42,22
21,16,-5,-19,13,5,-138,-284,-276,-164,-57,8
10,12,0,-11,4,6,-116,-250,-241,-156,-63,-1
3,9,4,-6,-1,6,-96,-217,-207,-144,-64,-8
-2,5,6,-1,-5,5,-79,-186,-176,-130,-64,-14
-5,0,5,3,-6,2,-63,-157,-148,-115,-61,-19
-7,-4,3,6,-6,0,-48,-130,-122,-101,-56,-21
-8,-9,0,9,-5,-4,-34,-106,-99,-87,-51,-23
-9,-14,-5,11,-3,-9,-23,-85,-80,-76,-47,-25
-8,-19,-11,13,0,-14,-13,-67,-64,-66,-42,-26
-8,-23,-16,15,2,-19,-5,-52,-51,-57,-38,-26
-9,-26,-18,17,3,-23,0,-41,-41,-51,-35,-26
-10,-28,-19,19,3,-24,4,-32,-33,-45,-32,-26
-10,-27,-17,18,3,-22,8,-25,-26,-40,-29,-25
-8,-23,-14,15,2,-18,11,-20,-20,-36,-26,-23
-8,-20,-11,13,1,-15,12,-16,-15,-33,-24,-22
-7,-18,-11,12,1,-13,14,-13,-12,-31,-23,-21
-7,-16,-10,11,1,-13,15,-11,-9,-30,-21,-20
-6,-15,-10,10,1,-12,16,-9,-7,-29,-20,-19
-7,-15,-10,11,1,-13,17,-7,-5,-28,-20,-19
-6,-16,-11,11,1,-14,18,-5,-3,-26,-19,-19
-5,-16,-11,10,2,-14,18,-4,-2,-25,-19,-19
-6,-17,-11,11,2,-14,18,-3,-1,-24,-19,-19
-8,-19,-10,13,0,-14,18,-2,0,-24,-19,-19
-9,-20,-10,14,0,-15,19,-1,0,-24,-18,-19
-10,-19,-10,14,-1,-15,19,0,0,-23,-18,-19
-9,-19,-10,14,-1,-15,19,0,1,-23,-18,-19
-8,-19,-11,13,0,-15,19,1,1,-23,-18,-19
-6,-19,-12,12,2,-16,20,2,3,-22,-17,-18
-5,-18,-12,12,3,-15,20,3,4,-21,-16,-18
-6,-17,-11,12,2,-14,20,4,4,-21,-16,-18
-7,-17,-10,12,2,-14,20,4,5,-20,-16,-17
-8,-18,-10,13,1,-14,20,4,5,-20,-16,-17
-10,-19,-9,14,0,-14,20,4,5,-20,-16,-18
-10,-19,-9,14,0,-14,20,4,6,-20,-17,-18
-9,-18,-9,13,0,-13,20,5,6,-20,-17,-18
-10,-19,-9,14,0,-14,20,6,6,-20,-17,-18
-12,-21,-9,16,-1,-16,20,6,6,-20,-17,-19
-12,-22,-9,17,0,-16,20,6,7,-19,-17,-18
-10,-20,-9,15,0,-15,20,7,8,-18,-16,-17
-8,-18,-9,13,1,-14,21,8,10,-18,-15,-16
-7,-16,-9,12,1,-13,21,9,11,-17,-14,-15
-8,-15,-9,12,0,-12,22,9,11,-17,-14,-15
-9,-16,-8,13,-1,-12,22,9,11,-17,-15,-15
-9,-17,-8,13,-1,-13,22,10,11,-17,-15,-15
-10,-19,-8,14,-1,-14,21,10,11,-17,-16,-16
-10,-19,-8,14,-1,-14,21,11,11,-17,-16,-16
-9,-17,-7,13,-1,-13,21,11,12,-17,-16,-16
-8,-13,-5,11,-2,-10,21,12,13,-17,-16,-16
-8,-12,-4,10,-2,-8,21,12,13,-18,-16,-16
-8,-13,-7,11,-1,-10,22,13,15,-16,-15,-15
-7,-13,-9,10,0,-11,23,15,17,-15,-14,-14
-6,-13,-8,9,0,-11,24,16,18,-14,-14,-13
-8,-15,-8,11,0,-11,23,15,18,-15,-14,-14
-9,-16,-8,12,-1,-12,23,16,19,-15,-15,-14
-7,-15,-8,10,0,-11,24,17,20,-14,-14,-14
-7,-14,-8,10,0,-11,24,18,20,-14,-14,-14
-7,-15,-8,11,0,-11,24,18,20,-15,-15,-14
-7,-14,-8,10,0,-11,24,19,21,-15,-15,-14
-6,-12,-7,9,0,-10,25,19,22,-14,-15,-14
-7,-13,-7,10,-1,-10,24,20,23,-15,-16,-15
-8,-14,-6,11,-1,-10,24,20,23,-15,-16,-15
-9,-16,-6,13,-2,-11,24,20,24,-14,-16,-16
-11,-17,-5,14,-3,-11,24,21,25,-15,-17,-16
-11,-18,-6,14,-2,-12,25,22,26,-15,-17,-16
-10,-16,-6,13,-2,-11,26,24,28,-14,-16,-16
-10,-15,-6,12,-2,-11,26,25,29,-14,-16,-16
-12,-16,-6,14,-3,-11,26,26,30,-15,-17,-17
-13,-17,-5,15,-5,-11,27,27,31,-15,-18,-17
-12,-15,-4,14,-5,-10,28,28,34,-14,-17,-16
-9,-12,-4,11,-3,-8,29,30,36,-13,-16,-15
-8,-12,-3,10,-3,-8,30,32,38,-12,-16,-15
-9,-12,-2,11,-4,-7,31,33,40,-12,-16,-15
-9,-11,-1,10,-4,-6,32,35,42,-11,-16,-15
-9,-9,-1,9,-4,-5,33,37,44,-11,-16,-15
-9,-8,0,8,-5,-4,33,39,46,-11,-16,-15
-10,-8,0,9,-6,-4,34,40,48,-11,-17,-15
-11,-9,0,10,-7,-4,34,41,50,-11,-17,-16
-12,-10,0,11,-7,-5,35,42,51,-11,-18,-16
-12,-11,0,12,-6,-5,36,44,53,-11,-18,-16
-10,-10,1,11,-6,-4,37,46,56,-10,-18,-16
-9,-8,2,9,-5,-3,38,48,58,-10,-18,-16
-9,-7,2,8,-6,-2,38,49,60,-10,-19,-16
-12,-8,3,10,-8,-2,38,50,62,-11,-21,-17
-14,-8,3,11,-9,-2,38,51,63,-11,-22,-18
-14,-7,4,10,-10,-1,40,52,66,-10,-21,-17
-13,-6,6,9,-10,0,41,54,68,-9,-21,-17
-13,-6,7,10,-10,0,41,55,69,-9,-21,-17
-15,-7,8,11,-12,0,41,55,70,-10,-22,-18
-16,-8,9,12,-13,1,41,56,71,-11,-23,-18
-16,-6,9,11,-13,2,41,57,73,-11,-23,-18
-15,-4,10,10,-13,3,42,58,74,-11,-23,-18
-15,-2,11,9,-14,4,42,58,76,-11,-23,-17
-16,-2,11,9,-15,4,42,58,77,-11,-23,-17
-16,-3,12,9,-15,4,42,58,77,-11,-24,-17
-17,-3,13,9,-16,5,42,58,78,-11,-24,-17
-18,-3,15,10,-17,5,41,58,78,-11,-25,-17
-18,-2,17,10,-18,6,41,58,78,-11,-25,-17
-17,0,18,8,-17,8,40,58,79,-11,-25,-17
-16,2,17,7,-17,9,40,58,79,-11,-25,-16
-16,2,17,7,-17,9,39,57,79,-12,-25,-16
-16,3,17,7,-17,10,38,56,78,-13,-25,-15
-15,4,18,5,-17,11,37,56,78,-12,-24,-14
-12,6,18,3,-16,12,37,56,79,-11,-22,-12
-10,8,18,1,-14,13,37,56,79,-9,-20,-10
-8,9,19,0,-14,14,36,56,79,-8,-18,-9
-8,11,20,-1,-14,15,35,54,77,-7,-18,-8
-7,12,20,-2,-14,16,33,52,74,-7,-17,-7
-8,13,21,-2,-15,17,31,51,72,-7,-16,-7
-9,13,21,-1,-16,17,30,49,69,-7,-15,-6
-9,13,21,-2,-16,17,28,46,66,-7,-14,-4
-8,13,21,-2,-15,17,26,44,62,-6,-12,-3
-7,13,20,-2,-14,16,24,42,58,-6,-11,-2
-5,13,19,-3,-13,16,23,39,55,-5,-9,-1
-4,13,19,-4,-12,15,21,36,51,-5,-8,0
-5,12,18,-3,-11,14,18,33,46,-6,-8,0
-5,11,16,-2,-11,13,17,30,42,-6,-7,1
-4,11,15,-3,-10,13,16,29,39,-6,-6,2
-2,13,14,-5,-9,14,15,27,36,-6,-4,3
0,15,14,-7,-7,14,14,25,33,-6,-3,4
1,15,13,-8,-6,14,13,22,29,-6,-2,4
2,15,13,-8,-5,13,11,20,25,-6,-2,5
2,14,12,-8,-5,12,10,17,21,-6,-2,5
1,12,10,-6,-4,11,9,15,18,-7,-2,5
1,10,9,-5,-4,9,9,13,15,-7,-2,5
1,10,8,-6,-4,9,8,11,12,-8,-2,5
3,11,7,-7,-3,9,7,9,9,-9,-2,5
4,11,6,-7,-2,8,6,7,6,-10,-2,4
4,9,5,-7,-1,6,5,5,3,-11,-3,4
3,7,4,-5,-1,5,4,3,0,-12,-3,3
2,5,3,-3,-1,4,4,1,-2,-13,-4,3
2,4,3,-2,-1,3,4,0,-4,-14,-4,3
2,4,3,-3,-1,3,4,-1,-5,-14,-4,3
3,5,3,-4,-1,4,4,-2,-7,-15,-4,3
3,6,2,-4,0,3,3,-3,-9,-17,-5,2
3,4,1,-3,0,2,3,-3,-10,-18,-6,2
2,2,0,-2,0,0,3,-4,-11,-18,-6,2
2,2,0,-2,0,0,3,-5,-12,-19,-6,2
3,2,0,-3,1,1,4,-5,-12,-19,-6,3
5,3,-1,-4,2,1,4,-6,-13,-19,-6,3
5,3,-1,-4,3,1,5,-6,-14,-19,-6,3
3,2,-2,-2,2,0,5,-7,-15,-20,-7,2
2,1,-2,-2,2,0,4,-7,-16,-21,-8,1
3,2,-2,-2,2,0,4,-8,-17,-22,-9,1
3,2,-2,-3,2,0,4,-9,-18,-23,-10,0
3,0,-3,-1,2,-2,4,-9,-18,-23,-10,0
1,-2,-4,0,1,-3,3,-10,-19,-24,-11,0
1,-2,-4,1,1,-4,3,-11,-20,-24,-11,0
2,-2,-4,0,2,-4,3,-11,-20,-25,-11,-1
1,-3,-4,1,2,-4,3,-11,-21,-25,-11,-1
0,-3,-4,1,2,-4,4,-11,-21,-26,-11,-1
0,-3,-4,1,2,-3,4,-11,-21,-26,-11,-1
0,-3,-3,1,1,-3,4,-12,-22,-26,-12,-1
-1,-4,-3,2,0,-3,4,-12,-22,-27,-13,-2
0,-3,-2,2,0,-3,4,-12,-22,-27,-13,-2
0,-2,-2,1,0,-2,5,-12,-22,-27,-13,-2
0,-3,-2,2,0,-3,4,-12,-23,-28,-14,-2
-2,-5,-2,4,0,-4,4,-13,-24,-29,-14,-3
-2,-5,-2,3,0,-4,4,-12,-24,-29,-14,-3
0,-3,-2,1,1,-4,5,-11,-24,-29,-13,-3
1,-1,-2,0,1,-3,6,-11,-24,-28,-13,-2
2,0,-2,-1,2,-2,6,-11,-23,-28,-14,-2
3,0,-3,-1,2,-2,6,-11,-23,-28,-14,-2
2,-1,-3,0,1,-2,6,-12,-23,-28,-15,-2
1,-2,-3,0,1,-2,6,-12,-23,-28,-15,-2
0,-4,-3,2,0,-3,6,-13,-24,-29,-16,-3
-2,-5,-2,4,0,-4,5,-14,-25,-30,-17,-4
-2,-5,-2,4,0,-3,5,-14,-25,-30,-17,-5
-2,-4,-2,3,0,-3,6,-14,-24,-29,-17,-4
-2,-3,-2,2,-1,-3,6,-14,-24,-28,-17,-4
-2,-4,-1,3,-1,-3,5,-14,-24,-28,-17,-4
-3,-4,-1,3,-2,-3,5,-14,-24,-28,-17,-4
-3,-4,-1,4,-2,-2,5,-14,-23,-27,-17,-4
-3,-4,-1,4,-1,-2,5,-14,-23,-27,-17,-4
-3,-4,-1,4,-1,-2,5,-14,-23,-27,-17,-4
-3,-5,-1,5,-1,-3,5,-14,-23,-26,-17,-4
-4,-6,-1,5,-1,-3,5,-14,-22,-26,-17,-5
-4,-5,-1,5,-1,-3,6,-13,-21,-25,-16,-4
-3,-4,0,3,-1,-2,7,-11,-19,-23,-14,-3
-3,-2,0,2,-2,-1,7,-10,-17,-21,-12,-2
-3,-2,1,3,-3,0,7,-10,-16,-19,-12,-2
-3,-1,2,3,-3,0,7,-9,-15,-18,-11,-1
-2,1,3,1,-2,2,8,-8,-13,-16,-9,0
0,5,4,-2,-2,4,8,-7,-11,-14,-8,0
1,7,5,-4,-2,6,8,-7,-9,-12,-6,2
3,8,5,-6,-1,6,9,-6,-7,-9,-4,4
4,9,6,-7,-1,7,10,-4,-5,-7,-2,5
4,11,7,-8,-2,9,11,-3,-3,-5,-1,5
4,13,8,-8,-2,11,11,-2,-2,-3,0,5
3,11,8,-7,-3,10,11,-1,-1,-2,0,5
2,8,6,-5,-2,7,12,0,0,-1,0,6
2,6,5,-4,-2,6,12,0,0,-1,0,6
1,7,6,-4,-3,6,11,-1,0,-1,0,5
2,9,6,-6,-2,8,10,-1,0,0,0,5
4,10,5,-7,-1,7,11,0,1,1,1,6
4,8,3,-6,0,6,11,0,2,2,2,7
3,6,2,-5,0,4,10,0,1,3,2,6
3,6,1,-4,0,4,9,0,1,3,2,6
3,5,1,-4,0,4,8,0,1,4,2,6
4,5,1,-5,1,4,6,-1,1,4,2,6
5,5,0,-5,2,3,4,-2,0,4,3,6
4,4,-1,-4,2,2,1,-3,-1,4,2,6
2,1,-1,-1,1,0,-1,-5,-3,2,1,4
1,0,-2,0,1,0,-4,-7,-5,2,0,4
2,2,-2,-2,1,0,-5,-8,-6,2,1,4
6,5,-2,-5,3,1,-6,-9,-7,2,1,5
8,7,-2,-8,5,2,-6,-10,-7,3,1,5
9,7,-2,-8,6,2,-7,-10,-8,2,1,5
9,5,-3,-7,6,1,-7,-11,-10,1,1,5
8,4,-3,-6,6,0,-8,-11,-11,1,0,4
8,4,-3,-6,6,0,-8,-10,-12,1,0,4
10,5,-4,-7,7,0,-8,-9,-12,2,1,4
12,6,-6,-9,9,0,-7,-9,-12,3,2,5
13,5,-7,-9,10,-1,-7,-8,-13,3,2,5
13,4,-8,-8,10,-2,-7,-8,-13,3,3,5
13,3,-9,-7,10,-2,-7,-8,-14,3,2,5
12,2,-9,-7,11,-3,-7,-8,-14,3,2,5
11,0,-10,-5,11,-4,-7,-9,-14,3,2,4
10,0,-8,-5,10,-3,-7,-9,-15,3,2,4
9,2,-6,-6,8,-1,-7,-9,-15,3,2,4
7,1,-5,-4,6,-2,-6,-9,-15,3,1,4
5,-2,-6,-1,5,-4,-5,-9,-15,3,1,4
4,-2,-6,-1,5,-4,-3,-9,-15,3,0,4
4,-2,-5,-1,4,-4,-1,-9,-15,3,0,3
1,-4,-5,1,3,-4,0,-9,-16,3,-1,2
-2,-7,-4,4,1,-6,0,-10,-17,2,-2,0
-4,-9,-4,6,0,-7,1,-10,-18,2,-3,0
-4,-8,-4,6,0,-7,2,-10,-18,2,-3,0
-4,-8,-5,6,0,-7,2,-10,-19,2,-4,-1
-4,-9,-5,7,0,-7,2,-10,-20,2,-5,-2
-5,-10,-5,7,-1,-8,2,-11,-21,2,-5,-3
-5,-10,-5,7,0,-8,2,-11,-22,2,-6,-3
-5,-11,-6,7,0,-8,2,-11,-22,2,-6,-4
-5,-11,-5,8,0,-8,3,-11,-22,2,-6,-4
-6,-11,-5,9,-1,-8,3,-11,-22,2,-6,-5
-6,-11,-5,9,-1,-8,3,-11,-22,3,-6,-5
-6,-11,-5,9,0,-9,4,-11,-22,4,-6,-4
-6,-12,-6,9,0,-9,3,-11,-22,4,-7,-4
-6,-13,-6,10,0,-10,2,-12,-22,4,-7,-5
-7,-13,-6,10,-1,-10,1,-12,-23,5,-7,-6
-7,-12,-6,10,-1,-9,1,-12,-23,5,-7,-6
-6,-12,-5,9,-1,-9,2,-12,-22,5,-7,-5
-5,-10,-5,8,0,-8,3,-11,-22,6,-6,-5
-5,-9,-4,7,0,-7,3,-11,-23,6,-6,-5
-6,-10,-4,8,-1,-8,3,-11,-23,6,-7,-6
-7,-14,-7,10,0,-11,3,-8,-21,7,-7,-6
-6,-15,-9,11,0,-12,4,-2,-17,11,-5,-5
-5,-14,-9,10,1,-12,5,5,-9,17,-2,-4
-5,-13,-7,10,1,-10,6,14,3,27,2,-2
-5,-9,-5,8,0,-7,8,25,19,39,10,1
-4,-4,0,4,-2,-2,9,33,36,53,19,6
-4,1,5,1,-4,3,7,35,46,67,29,12
-3,7,10,-1,-6,8,2,33,48,83,44,21
0,12,12,-6,-6,11,-5,32,45,103,62,32
7,18,12,-13,-2,15,-13,34,39,128,85,44
15,25,11,-20,2,18,-22,40,33,155,110,58
24,33,9,-28,7,21,-33,46,26,185,138,74
34,40,6,-37,14,22,-49,45,10,216,168,91
48,47,0,-47,24,23,-70,33,-16,245,201,110
65,58,-7,-61,36,25,-95,15,-47,277,238,132
86,72,-14,-79,50,29,-121,-1,-71,318,283,158
105,87,-18,-95,61,34,-146,-19,-91,359,328,185
118,100,-18,-108,68,40,-173,-50,-115,385,361,208
124,112,-11,-117,67,49,-198,-106,-148,378,367,221
121,120,0,-121,60,59,-218,-183,-193,327,338,219
111,121,10,-116,50,65,-229,-263,-242,240,277,200
97,110,13,-104,42,62,-230,-322,-285,140,198,168
84,90,6,-87,39,48,-222,-352,-314,48,120,128
71,67,-4,-69,38,31,-209,-360,-333,-31,52,89
57,45,-12,-51,34,17,-194,-357,-344,-101,-5,55
42,28,-13,-35,27,8,-176,-344,-341,-149,-48,28
27,19,-7,-23,17,5,-156,-319,-319,-166,-70,12
14,15,1,-14,6,7,-135,-286,-284,-161,-77,3
4,12,8,-8,-2,9,-114,-250,-247,-147,-76,-3
-2,9,11,-4,-7,10,-94,-215,-212,-131,-74,-8
-7,6,13,0,-10,9,-77,-182,-181,-114,-70,-13
-11,3,13,4,-12,8,-62,-152,-152,-98,-65,-16
-13,-1,12,7,-13,5,-48,-124,-127,-83,-59,-18
-15,-6,9,11,-12,1,-35,-100,-105,-69,-54,-20
-16,-12,4,14,-11,-4,-24,-80,-86,-56,-49,-20
-16,-18,0,17,-8,-9,-14,-62,-70,-46,-44,-21
-16,-22,-5,18,-5,-14,-6,-47,-56,-37,-39,-20
-14,-23,-8,18,-3,-16,0,-34,-45,-29,-35,-19
-14,-22,-8,18,-2,-16,4,-25,-37,-24,-31,-17
-14,-20,-6,18,-3,-14,8,-18,-31,-19,-28,-16
-14,-19,-4,18,-5,-12,10,-13,-26,-16,-25,-14
-15,-19,-2,18,-6,-10,11,-10,-22,-14,-23,-13
-16,-18,-1,18,-7,-10,12,-8,-19,-12,-22,-13
-16,-18,-1,17,-7,-10,13,-6,-17,-11,-22,-12
-15,-18,-2,16,-7,-10,13,-4,-14,-10,-21,-12
-15,-17,-2,16,-7,-9,14,-1,-12,-9,-20,-11
-16,-17,-1,16,-8,-9,15,0,-11,-8,-19,-11
-17,-18,-1,18,-8,-10,16,2,-11,-7,-19,-11
-18,-18,-1,19,-9,-10,16,2,-10,-7,-19,-11
-18,-18,0,18,-9,-9,16,3,-9,-7,-19,-11
-17,-18,-1,18,-8,-9,16,4,-8,-6,-19,-11
-16,-19,-2,18,-7,-11,17,4,-7,-6,-19,-11
-15,-19,-4,17,-6,-12,17,5,-6,-5,-18,-11
-14,-18,-4,16,-6,-12,18,7,-5,-4,-18,-10
-13,-16,-4,14,-5,-10,19,8,-4,-3,-17,-9
-13,-15,-3,14,-5,-9,19,9,-3,-3,-16,-9
-13,-16,-3,15,-4,-10,20,10,-2,-2,-16,-8
-13,-17,-3,15,-5,-10,20,11,0,-2,-15,-8
-12,-16,-2,14,-5,-9,21,12,1,-1,-15,-7
-12,-16,-2,14,-5,-9,21,12,1,-1,-15,-7
-13,-16,-2,14,-6,-9,21,12,2,-2,-15,-7
-13,-15,-1,14,-6,-9,20,12,2,-2,-15,-8
-12,-13,-1,12,-6,-7,20,13,3,-1,-15,-7
-11,-12,-1,11,-5,-7,21,14,3,-1,-14,-7
-11,-14,-3,13,-5,-9,21,15,4,-1,-13,-6
-12,-15,-3,14,-5,-10,21,16,4,-2,-13,-6
-13,-17,-3,15,-5,-10,21,16,4,-4,-14,-6
-15,-19,-3,17,-6,-11,21,15,5,-6,-14,-7
-16,-20,-3,18,-7,-11,21,15,5,-8,-15,-7
-15,-18,-2,16,-7,-10,21,16,5,-9,-14,-6
-14,-16,-2,15,-6,-9,22,17,6,-10,-14,-6
-14,-15,-2,15,-6,-9,22,18,6,-11,-14,-6
-15,-16,-2,16,-7,-10,22,18,7,-11,-14,-6
-15,-17,-2,16,-7,-10,22,18,7,-11,-15,-7
-16,-17,-1,16,-7,-10,22,18,8,-11,-15,-7
-15,-17,-1,15,-7,-9,22,18,9,-11,-15,-7
-14,-16,-1,14,-7,-8,22,19,10,-10,-15,-6
-14,-15,-1,14,-7,-8,22,19,11,-10,-15,-6
-15,-15,0,15,-7,-7,22,20,11,-10,-15,-6
-15,-14,0,15,-8,-7,22,21,12,-9,-15,-6
-15,-14,0,15,-8,-7,23,22,13,-9,-14,-5
-14,-14,0,14,-7,-7,23,22,14,-8,-14,-5
-13,-14,-1,14,-6,-7,23,23,15,-7,-14,-5
-13,-13,-1,13,-6,-7,23,24,17,-6,-14,-5
-13,-14,0,13,-6,-7,24,25,18,-6,-14,-5
-14,-15,0,14,-8,-7,24,25,19,-5,-14,-5
-15,-13,1,14,-8,-6,24,26,20,-5,-14,-5
-12,-10,1,11,-7,-5,25,28,22,-4,-13,-4
-11,-9,0,10,-5,-6,26,30,23,-3,-13,-3
-10,-10,-1,10,-4,-6,26,30,24,-2,-13,-4
-9,-9,0,9,-4,-5,26,31,25,-2,-13,-4
-9,-8,1,9,-5,-4,26,32,26,-1,-13,-4
-10,-9,1,10,-6,-4,27,33,28,0,-13,-4
-13,-12,1,12,-7,-5,27,34,29,-1,-13,-5
-16,-15,1,15,-9,-7,27,34,30,-1,-14,-6
-18,-17,1,17,-9,-8,27,35,31,-1,-15,-6
-17,-15,0,16,-9,-8,27,37,33,0,-14,-6
-14,-12,1,13,-8,-5,28,39,36,1,-14,-6
-14,-10,2,12,-8,-4,29,41,38,2,-14,-6
-16,-12,3,14,-9,-4,29,42,39,2,-15,-6
-16,-13,3,15,-10,-5,30,44,41,2,-15,-7
-15,-12,3,14,-9,-4,31,46,43,3,-15,-7
-13,-10,3,12,-9,-3,32,48,46,4,-14,-6
-12,-8,4,10,-9,-2,33,50,49,5,-14,-6
-13,-7,5,9,-9,-2,34,52,51,5,-15,-6
-14,-7,6,10,-11,-1,34,53,52,5,-15,-7
-14,-6,7,10,-11,0,35,54,54,6,-15,-7
-15,-6,8,10,-12,0,36,56,57,7,-15,-7
-17,-7,9,12,-13,0,36,57,58,7,-16,-8
-19,-8,10,13,-14,1,36,58,60,7,-17,-9
-18,-7,11,13,-14,1,37,60,63,8,-16,-8
-18,-6,12,12,-15,2,38,62,66,8,-16,-8
-19,-6,13,12,-16,3,38,63,67,9,-17,-7
-19,-4,14,11,-16,4,39,65,69,9,-17,-7
-18,-2,15,10,-17,5,40,66,71,10,-16,-7
-17,0,15,8,-16,7,40,67,73,10,-16,-7
-16,0,16,8,-16,7,40,67,74,11,-16,-7
-17,0,16,8,-17,8,40,68,75,11,-16,-7
-17,0,17,8,-17,9,40,69,76,12,-16,-6
-17,1,18,7,-17,10,40,70,78,12,-16,-6
-18,1,19,8,-18,10,39,70,79,12,-17,-6
-19,1,19,8,-19,10,39,71,79,12,-17,-6
-19,2,20,8,-19,10,39,71,80,12,-17,-5
-18,3,20,7,-19,11,38,71,80,12,-16,-4
-17,5,21,6,-19,12,38,71,81,13,-16,-3
-16,6,22,5,-19,13,37,70,81,13,-15,-3
-15,7,22,4,-19,14,36,70,81,13,-15,-2
-15,8,23,3,-19,15,34,70,81,13,-14,-1
-15,8,23,4,-19,15,33,69,80,13,-14,-1
-15,8,23,4,-19,15,31,68,80,14,-13,0
-15,9,23,3,-19,15,30,67,79,14,-12,1
-14,11,24,1,-19,17,30,66,77,15,-10,2
-12,14,25,-1,-18,18,29,66,76,16,-8,5
-11,14,25,-2,-18,19,28,64,73,17,-7,6
-11,14,25,-1,-19,19,25,61,70,17,-6,7
-10,15,25,-2,-18,20,23,59,67,17,-5,8
-9,15,25,-2,-17,19,21,57,64,17,-3,9
-10,14,24,-2,-17,18,19,54,60,17,-2,10
-9,14,23,-2,-17,18,18,52,57,17,-1,11
-7,16,23,-4,-16,19,17,49,53,17,0,12
-5,18,23,-6,-15,20,16,46,48,17,0,13
-3,19,22,-8,-13,20,15,44,44,16,1,15
-1,21,22,-10,-12,20,14,42,41,16,3,16
0,21,22,-11,-11,21,13,39,38,15,3,17
0,21,21,-10,-10,20,11,36,33,14,3,17
0,19,19,-9,-9,18,9,32,29,13,2,16
0,15,16,-7,-8,15,8,29,25,12,2,16
-1,12,14,-5,-8,13,6,26,20,10,2,16
-2,11,13,-4,-9,12,6,23,16,9,1,15
-2,11,13,-4,-9,12,6,22,13,8,1,15
-2,12,14,-4,-9,13,6,20,11,7,1,15
-1,11,12,-4,-8,11,5,19,8,6,1,15
0,9,9,-4,-5,9,5,17,6,5,1,15
0,8,7,-4,-4,7,4,15,3,4,0,15
0,7,7,-4,-3,6,4,13,1,2,0,15
0,6,6,-3,-3,6,4,11,-1,1,-1,14
-1,6,6,-2,-4,6,4,9,-4,0,-2,14
-1,5,5,-2,-3,5,4,8,-7,-1,-2,13
-2,3,5,0,-3,3,3,6,-9,-2,-3,13
-3,0,4,1,-4,2,2,4,-11,-4,-5,12
-3,0,4,2,-4,1,2,3,-13,-6,-6,11
-3,0,4,2,-3,1,1,2,-14,-7,-7,10
-3,0,3,2,-3,1,1,2,-15,-7,-7,10
-3,-1,2,2,-3,0,2,1,-16,-8,-7,10
-2,0,1,2,-2,0,2,1,-17,-8,-7,10
-1,0,1,1,-2,1,3,0,-17,-8,-7,9
-1,0,1,1,-2,0,3,0,-18,-9,-8,9
-1,-1,1,1,-2,0,3,0,-18,-10,-8,9
-1,-1,1,1,-2,0,3,0,-19,-10,-9,9
-2,-2,1,2,-2,0,3,0,-19,-11,-9,9
-2,-2,1,2,-2,0,3,-1,-20,-11,-9,9
-1,-1,0,1,-1,0,3,-1,-20,-11,-10,9
-1,-1,0,1,-1,0,3,-1,-21,-12,-10,9
-3,-2,0,2,-2,0,3,-1,-21,-12,-11,8
-4,-4,0,3,-2,-2,3,-1,-22,-13,-11,8
-4,-5,-1,4,-2,-3,3,-1,-22,-13,-11,7
-4,-6,-1,5,-2,-4,4,-1,-22,-13,-11,7
-4,-6,-1,5,-2,-4,4,-1,-22,-14,-11,7
-4,-5,-1,4,-2,-3,4,-1,-23,-14,-11,6
-3,-4,0,4,-2,-3,3,-1,-23,-14,-12,6
-4,-5,0,5,-2,-3,3,-1,-23,-15,-12,6
-5,-6,0,6,-2,-4,3,-2,-23,-15,-13,6
-5,-5,0,5,-2,-3,3,-2,-24,-15,-13,6
-4,-3,0,4,-2,-2,4,-1,-24,-15,-13,7
-3,-3,0,3,-2,-2,4,-1,-24,-15,-12,7
-3,-3,0,3,-1,-2,5,-1,-23,-15,-12,7
-3,-3,0,3,-1,-2,5,-1,-23,-15,-12,7
-3,-3,0,3,-1,-2,4,-1,-23,-16,-13,7
-5,-5,1,5,-2,-2,4,-2,-24,-16,-13,6
-7,-7,0,7,-3,-3,4,-2,-23,-16,-13,6
-7,-7,0,8,-3,-4,4,-2,-23,-15,-13,7
-7,-8,0,8,-3,-4,5,-2,-23,-15,-13,7
-8,-9,0,9,-3,-5,5,-2,-23,-15,-13,7
-8,-9,0,9,-4,-5,5,-2,-23,-15,-13,7
-7,-8,0,8,-3,-4,6,-2,-22,-15,-12,7
-5,-6,0,5,-2,-3,6,-1,-22,-14,-12,7
-3,-4,0,4,-1,-3,7,-1,-21,-13,-11,8
-2,-3,0,3,-1,-2,7,0,-21,-12,-11,8
-2,-3,0,2,0,-2,7,0,-20,-11,-10,9
-3,-3,0,3,-1,-2,7,0,-20,-11,-10,9
-5,-4,0,5,-3,-2,7,0,-20,-11,-10,8
-6,-5,1,5,-3,-2,7,0,-19,-11,-10,8
-7,-6,1,6,-4,-2,6,0,-19,-11,-10,8
-7,-6,1,6,-4,-2,6,0,-18,-10,-9,9
-7,-6,1,6,-4,-2,6,0,-18,-9,-9,9
-7,-6,1,6,-4,-2,6,0,-17,-9,-9,9
-7,-6,1,6,-4,-2,6,0,-17,-8,-9,9
-7,-6,1,6,-4,-2,6,0,-17,-7,-8,10
-7,-5,2,6,-4,-2,6,1,-16,-7,-7,10
-4,-3,2,3,-3,0,7,2,-15,-5,-6,11
-2,0,2,1,-2,0,8,4,-13,-3,-4,13
-2,0,2,0,-2,1,8,4,-12,-3,-4,13
-3,0,2,1,-2,0,8,4,-12,-2,-4,12
-3,-1,2,2,-2,0,8,5,-11,-2,-4,12
-2,-1,1,2,-2,0,8,5,-11,-1,-4,13
-2,-1,1,2,-2,0,8,5,-11,0,-4,13
-3,-2,1,3,-2,0,7,5,-11,0,-3,13
-4,-2,1,4,-2,-1,7,5,-11,0,-3,13
-4,-3,1,4,-2,-1,7,5,-11,0,-3,13
-6,-5,1,6,-3,-2,6,4,-12,-1,-4,12
-7,-7,0,7,-3,-3,6,4,-12,-1,-4,12
-7,-7,0,7,-3,-3,5,4,-12,0,-3,12
-7,-6,0,7,-3,-3,5,4,-12,0,-3,12
-6,-6,0,6,-3,-3,5,4,-11,0,-3,12
-6,-5,0,6,-3,-2,5,4,-11,0,-3,12
-5,-4,0,4,-2,-1,6,4,-11,0,-2,13
-2,-1,1,2,-1,0,6,5,-11,1,-2,13
-1,0,1,1,-1,0,6,5,-10,1,-1,14
-2,-1,0,2,-1,0,6,5,-10,1,-1,14
-3,-3,0,3,-1,-1,6,5,-10,1,-1,14
-3,-3,0,3,-1,-1,6,6,-10,1,-1,14
-3,-3,0,3,-1,-1,7,6,-10,1,-1,14
-3,-3,0,3,-1,-1,7,6,-10,1,-1,14
-5,-5,0,5,-2,-2,6,5,-11,0,-2,13
-6,-7,0,7,-3,-4,6,5,-12,0,-3,13
-6,-7,0,7,-3,-4,5,4,-13,0,-4,13
-5,-6,0,5,-2,-3,5,4,-13,0,-4,13
-4,-5,0,4,-1,-3,5,4,-14,-1,-4,13
-3,-4,0,3,-1,-2,5,3,-14,-1,-4,13
-2,-3,0,2,-1,-1,5,3,-14,-1,-3,13
-2,-4,-1,3,0,-2,6,3,-14,0,-3,14
-2,-5,-2,4,0,-3,6,3,-14,-1,-3,14
-3,-6,-2,5,-1,-4,5,3,-15,-2,-4,13
-4,-7,-2,5,-1,-4,5,2,-15,-2,-4,13
-4,-7,-1,6,-1,-4,5,2,-15,-3,-4,13
-5,-7,0,6,-2,-3,5,2,-16,-3,-5,12
-7,-6,1,6,-4,-2,4,1,-16,-3,-5,12
-8,-5,3,7,-5,-1,4,1,-16,-3,-6,11
-8,-6,2,7,-5,-2,5,1,-15,-3,-5,12
-6,-5,2,6,-4,-1,6,2,-14,-2,-4,14
-5,-2,3,4,-4,0,7,3,-13,-1,-3,15
-4,0,4,2,-4,2,7,4,-12,-1,-3,15
-3,2,5,0,-4,4,8,4,-12,0,-2,16
-1,4,6,-1,-3,6,8,5,-11,0,-1,17
0,5,6,-2,-3,6,9,6,-10,1,-1,17
0,4,6,-1,-3,6,9,6,-10,1,-1,17
0,4,5,-2,-3,5,9,6,-11,1,-1,17
0,5,5,-2,-3,5,9,5,-11,0,-1,17
0,5,5,-2,-3,6,8,5,-12,0,-1,17
0,6,6,-3,-3,6,8,5,-12,0,-1,17
0,7,7,-3,-3,7,7,4,-12,0,-1,17
0,7,7,-3,-3,7,4,3,-13,-1,-1,17
0,8,8,-4,-3,8,1,2,-13,-1,-2,18
0,9,9,-4,-4,9,0,1,-13,-1,-2,18
0,9,10,-4,-4,9,-2,1,-14,-1,-2,19
0,10,10,-5,-5,10,-4,0,-14,-1,-2,19
1,13,11,-7,-5,12,-6,-1,-15,-1,-2,20
3,16,12,-10,-4,14,-7,-1,-15,-1,-1,20
5,17,12,-11,-3,14,-8,-1,-15,-1,-1,21
6,16,10,-11,-2,13,-9,-2,-16,-2,-1,21
6,14,9,-10,-1,11,-10,-3,-17,-3,-1,21
6,13,7,-10,0,10,-10,-3,-18,-3,-1,21
9,14,6,-11,1,10,-9,-2,-17,-2,0,22
10,15,6,-13,2,11,-9,-1,-17,-1,0,22
11,17,7,-14,2,12,-9,0,-16,0,1,23
11,17,6,-14,3,12,-8,0,-16,0,1,23
11,15,4,-13,4,9,-8,1,-16,0,1,22
9,11,1,-11,4,6,-8,0,-17,-1,0,22
8,8,0,-9,5,3,-8,0,-18,-2,0,21
9,7,-2,-8,6,2,-7,1,-18,-2,-1,20
10,6,-3,-8,6,1,-5,2,-17,-2,-1,20
9,6,-2,-7,5,1,-4,2,-17,-2,-2,19
6,5,0,-5,3,1,-2,2,-17,-3,-3,18
4,4,0,-3,2,1,0,2,-17,-3,-4,18
2,3,0,-2,1,1,1,2,-18,-4,-4,17
2,3,0,-2,1,1,2,1,-18,-4,-5,17
2,2,0,-2,1,1,4,1,-19,-5,-5,16
1,0,0,-1,1,0,5,1,-20,-6,-6,15
-1,-2,-1,1,0,-2,5,0,-21,-7,-8,14
-3,-5,-1,4,0,-4,5,0,-22,-9,-9,13
-5,-8,-2,7,-1,-6,5,0,-23,-10,-11,12
-7,-10,-3,9,-1,-7,5,0,-24,-12,-12,11
-8,-11,-4,10,-1,-8,5,0,-24,-12,-12,10
-9,-13,-4,11,-1,-9,5,0,-25,-13,-13,9
-9,-13,-4,11,-2,-9,5,0,-25,-13,-13,9
-8,-12,-4,10,-2,-8,6,0,-24,-13,-13,9
-7,-10,-3,9,-2,-7,6,0,-24,-13,-13,9
-7,-10,-2,9,-2,-6,6,0,-24,-13,-13,9
-6,-10,-4,9,-1,-7,7,1,-24,-12,-13,9
-4,-9,-5,7,0,-7,8,2,-23,-12,-12,10
-3,-9,-5,7,1,-7,9,3,-22,-12,-12,10
-5,-10,-5,8,0,-8,9,3,-22,-12,-12,10
-5,-10,-5,8,0,-8,9,3,-22,-11,-12,11
-6,-11,-5,8,0,-8,9,3,-22,-11,-12,11
-8,-13,-5,10,-2,-9,8,3,-22,-11,-12,10
-10,-15,-4,13,-3,-10,7,2,-22,-12,-13,9
-11,-16,-4,14,-3,-10,7,2,-23,-12,-13,9
-11,-17,-5,15,-3,-11,7,2,-23,-13,-14,8
-11,-18,-6,15,-2,-12,7,5,-22,-12,-14,8
-9,-17,-8,13,-1,-13,9,11,-18,-8,-12,8
-7,-15,-8,10,0,-11,11,20,-10,-1,-8,9
-5,-11,-6,8,0,-8,12,30,2,8,-3,11
-5,-7,-2,6,-1,-5,13,40,19,20,3,14
-6,-4,2,5,-3,0,13,49,35,33,11,19
-6,0,7,3,-6,4,12,50,45,47,22,25
-4,6,11,-1,-7,8,7,44,45,62,36,34
1,13,12,-6,-5,12,0,39,38,79,53,44
8,20,11,-13,-1,14,-6,38,28,100,74,57
16,26,9,-21,4,17,-14,40,17,125,99,71
26,33,7,-30,10,19,-24,43,5,152,126,86
39,40,1,-40,19,20,-40,40,-14,180,156,103
55,46,-7,-51,31,19,-61,27,-42,207,188,121
74,55,-17,-65,46,19,-86,8,-72,238,224,141
94,66,-27,-80,61,20,-111,-8,-96,275,265,165
114,79,-34,-95,74,22,-137,-24,-115,313,308,190
130,92,-37,-110,84,27,-165,-51,-136,339,340,213
137,104,-33,-120,86,34,-191,-99,-164,331,344,224
136,112,-24,-124,80,42,-212,-170,-204,279,311,220
127,113,-14,-120,71,48,-224,-247,-247,195,249,202
114,103,-10,-109,62,46,-226,-310,-285,101,172,170
100,82,-17,-92,58,33,-220,-343,-309,16,97,130
86,57,-28,-71,57,15,-209,-352,-324,-56,31,89
69,33,-35,-50,52,-1,-195,-349,-332,-121,-24,54
50,13,-36,-31,44,-11,-179,-337,-329,-167,-65,27
33,2,-31,-17,32,-15,-159,-311,-309,-183,-86,11
19,-2,-21,-9,20,-12,-136,-277,-275,-177,-91,3
9,-2,-10,-4,9,-6,-114,-239,-238,-161,-88,0
1,-2,-2,0,2,-2,-94,-204,-204,-144,-84,-3
-3,-2,2,2,-3,0,-75,-170,-172,-126,-78,-6
-7,-3,5,5,-6,0,-59,-139,-143,-109,-72,-7
-11,-7,5,9,-8,-1,-44,-111,-119,-94,-65,-8
-13,-11,3,13,-8,-4,-31,-87,-98,-80,-60,-9
-15,-16,0,16,-8,-9,-19,-66,-81,-69,-55,-10
-16,-20,-4,18,-6,-13,-8,-47,-65,-58,-49,-9
-14,-23,-8,18,-3,-16,1,-32,-51,-48,-44,-8
-13,-24,-10,19,-2,-17,7,-20,-41,-41,-40,-7
-14,-24,-10,19,-2,-17,11,-11,-33,-36,-37,-6
-14,-22,-7,18,-3,-15,13,-5,-27,-31,-35,-5
-15,-20,-4,18,-5,-12,15,-1,-23,-28,-33,-4
-16,-18,-1,17,-6,-10,16,3,-19,-26,-31,-2
-16,-17,-1,17,-7,-9,19,7,-15,-23,-29,0
-16,-18,-2,17,-7,-10,21,9,-13,-21,-27,1
-17,-20,-3,19,-7,-12,21,11,-11,-20,-27,1
-18,-21,-3,19,-7,-13,22,12,-9,-19,-26,1
-17,-20,-3,18,-6,-12,23,14,-7,-18,-26,1
-15,-18,-3,17,-5,-10,24,16,-5,-16,-25,1
-14,-17,-3,16,-5,-10,25,18,-3,-15,-24,1
-14,-18,-3,16,-5,-11,25,20,-1,-14,-24,2
-16,-18,-2,17,-6,-10,25,20,-1,-14,-24,2
-17,-17,-1,17,-8,-9,25,21,-1,-13,-24,2
-16,-17,-1,17,-7,-9,26,21,0,-13,-23,2
-16,-17,-1,17,-7,-9,26,22,0,-12,-23,2
-16,-17,-1,17,-7,-9,26,22,0,-12,-23,2
-17,-18,-2,18,-7,-10,26,22,1,-12,-22,2
-17,-19,-2,18,-7,-11,26,23,2,-12,-22,2
-17,-19,-2,18,-7,-11,26,23,3,-12,-22,2
-16,-18,-2,18,-7,-10,26,24,3,-11,-22,2
-16,-18,-2,17,-7,-10,27,25,4,-10,-21,3
-15,-17,-2,16,-6,-10,28,26,5,-9,-20,4
-14,-18,-3,16,-5,-11,28,27,6,-8,-19,4
-15,-19,-4,17,-5,-12,28,27,7,-8,-19,3
-15,-19,-4,17,-5,-12,28,27,7,-8,-19,3
-13,-18,-4,15,-4,-11,29,28,8,-7,-19,3
-12,-17,-4,14,-3,-10,29,29,9,-7,-19,3
-13,-17,-3,15,-4,-10,29,29,9,-8,-20,2
-14,-17,-3,16,-5,-10,28,29,9,-8,-20,2
-14,-16,-2,15,-5,-9,29,29,9,-7,-20,2
-13,-16,-2,15,-5,-9,29,29,10,-6,-19,3
-13,-15,-3,14,-5,-9,30,30,11,-6,-19,3
-13,-16,-3,14,-5,-10,30,30,12,-6,-19,3
-13,-16,-3,15,-5,-10,29,30,12,-6,-19,3
-14,-17,-3,16,-5,-10,29,30,12,-6,-19,3
-15,-18,-3,17,-5,-10,29,30,12,-7,-20,3
-16,-19,-2,19,-6,-10,29,30,12,-7,-20,2
-19,-21,-2,20,-8,-11,28,30,12,-7,-21,2
-19,-21,-1,20,-9,-10,28,30,13,-7,-21,2
-17,-18,0,17,-8,-9,29,32,15,-6,-20,2
-16,-16,0,15,-8,-8,29,32,16,-5,-19,2
-15,-15,0,14,-7,-8,29,33,17,-5,-19,2
-14,-14,0,14,-7,-7,29,33,18,-5,-19,2
-14,-14,0,14,-7,-7,29,34,19,-4,-19,3
-13,-14,0,14,-7,-7,30,35,20,-3,-19,3
-13,-13,0,13,-6,-6,30,36,21,-3,-19,3
-14,-14,0,14,-7,-6,30,37,21,-3,-19,3
-15,-14,0,14,-7,-7,30,38,22,-3,-19,2
-15,-15,0,15,-8,-7,31,38,23,-3,-19,2
-17,-16,0,16,-8,-8,30,39,23,-3,-19,2
-17,-16,0,16,-9,-8,30,39,24,-3,-19,2
-16,-14,1,15,-8,-7,31,40,26,-2,-19,3
-15,-13,1,14,-8,-6,32,42,27,-1,-19,3
-14,-11,2,12,-7,-5,32,43,29,-1,-19,4
-13,-11,2,12,-7,-5,32,45,30,0,-19,4
-14,-12,2,13,-8,-5,32,46,31,0,-18,4
-14,-12,2,13,-8,-5,32,47,32,0,-18,4
-13,-11,2,12,-8,-4,33,48,33,0,-18,4
-12,-10,2,11,-8,-4,33,49,34,0,-19,3
-12,-10,2,11,-8,-3,33,50,35,0,-20,3
-14,-11,2,12,-9,-4,33,51,36,-1,-21,2
-16,-12,3,14,-10,-4,33,52,37,-1,-22,1
-16,-12,4,15,-11,-3,34,54,39,-1,-22,1
-15,-9,5,12,-11,-1,35,57,41,0,-21,1
-13,-6,7,10,-11,1,36,59,44,0,-20,1
-14,-6,7,10,-11,1,37,61,46,0,-21,1
-15,-9,6,12,-11,0,37,63,48,0,-21,1
-16,-9,6,12,-11,-1,38,64,50,1,-21,1
-16,-9,7,12,-11,0,39,66,52,1,-22,1
-16,-8,7,12,-11,0,40,68,54,2,-22,1
-16,-7,8,12,-12,0,40,70,56,2,-22,1
-17,-7,9,13,-13,1,41,72,58,2,-23,1
-19,-7,10,13,-15,2,41,73,60,2,-23,1
-21,-8,11,14,-16,2,41,74,61,2,-24,1
-21,-8,12,14,-17,2,41,75,62,1,-25,1
-20,-6,13,13,-17,4,41,76,63,1,-25,1
-19,-4,15,11,-17,6,42,78,66,1,-25,2
-19,-3,16,11,-17,7,43,79,67,1,-25,1
-20,-2,17,11,-18,8,43,80,68,0,-26,1
-20,-1,18,11,-19,9,43,81,69,0,-27,0
-20,0,19,10,-20,9,43,82,70,0,-28,0
-20,0,19,10,-20,9,43,83,71,0,-28,0
-19,0,20,9,-20,10,43,84,72,0,-28,0
-18,2,20,8,-20,11,43,85,73,0,-28,1
-16,5,21,6,-19,12,43,86,75,0,-28,1
-15,7,21,4,-18,14,43,87,76,0,-27,2
-15,7,22,5,-18,14,42,87,77,0,-28,2
-17,6,22,6,-19,14,41,87,77,0,-28,3
-17,5,22,6,-20,14,40,87,78,0,-27,4
-16,7,22,5,-19,14,40,88,78,1,-26,5
-15,8,22,4,-19,15,40,87,78,1,-25,6
-16,8,23,4,-20,15,38,86,78,1,-24,7
-16,8,23,4,-20,16,37,85,77,2,-24,7
-15,9,24,3,-20,17,36,84,77,2,-23,8
-14,12,26,1,-20,19,34,84,77,3,-21,10
-12,15,27,0,-19,21,33,83,77,5,-19,11
-11,17,27,-2,-19,22,32,82,77,6,-17,13
-9,18,27,-4,-19,23,31,81,75,8,-14,15
-8,20,28,-6,-18,23,30,78,73,9,-12,16
-8,20,28,-6,-19,24,28,75,70,9,-11,17
-8,20,27,-6,-18,23,26,72,67,9,-10,18
-6,19,24,-6,-15,21,25,70,65,10,-8,20
-4,18,21,-6,-12,20,24,68,62,10,-6,22
-4,17,20,-5,-12,19,23,65,59,10,-5,23
-5,15,20,-4,-13,18,20,61,55,9,-4,23
-5,15,20,-4,-13,17,19,58,51,9,-4,23
-4,15,20,-5,-12,17,18,55,48,9,-3,23
-3,14,19,-5,-11,16,17,52,44,9,-2,23
-2,14,17,-6,-10,15,16,49,40,8,-3,23
-1,14,15,-6,-8,14,15,45,36,7,-3,22
0,15,14,-7,-7,14,14,43,33,6,-3,23
0,16,15,-7,-7,15,13,41,31,6,-3,23
0,15,14,-7,-7,15,13,39,28,5,-2,23
1,15,13,-7,-6,14,12,37,26,4,-2,23
2,14,12,-7,-5,13,12,35,23,3,-2,23
2,13,11,-7,-4,12,11,32,20,3,-2,23
2,12,10,-6,-4,11,11,29,16,1,-3,22
1,11,10,-5,-5,11,10,26,13,0,-4,21
0,9,9,-4,-4,10,10,25,11,-1,-5,21
0,7,7,-3,-3,7,10,24,9,-1,-5,20
-1,5,6,-2,-3,5,9,22,8,-2,-5,19
-3,4,6,0,-4,4,9,21,6,-3,-5,19
-3,4,6,0,-4,4,9,21,5,-3,-4,19
-2,4,6,-1,-4,5,10,20,4,-3,-4,20
-3,3,5,0,-5,4,10,19,2,-4,-4,19
-5,0,4,3,-5,2,9,16,0,-5,-6,18
-6,-2,3,4,-5,0,8,15,-1,-6,-7,17
-5,-2,2,4,-3,0,8,14,-2,-7,-7,17
-4,-1,2,3,-2,0,8,14,-3,-7,-7,17
-2,0,1,1,-1,0,8,14,-3,-7,-7,17
-1,0,0,0,-1,0,9,14,-3,-7,-6,17
-1,0,1,0,-2,0,9,14,-3,-7,-6,17
-3,0,3,1,-4,1,10,14,-3,-7,-5,17
-6,0,5,3,-6,2,11,14,-3,-7,-5,17
-8,0,7,4,-8,3,12,15,-3,-6,-5,18
-9,0,8,5,-9,4,13,16,-2,-5,-4,19
-11,0,11,6,-11,5,14,16,-2,-4,-3,19
-13,0,13,7,-13,6,14,17,-1,-4,-2,20
-14,0,13,7,-13,6,14,17,-2,-4,-3,19
-13,-2,11,7,-12,4,13,16,-3,-5,-4,18
-13,-4,9,8,-11,2,11,14,-4,-7,-5,16
-12,-5,7,8,-9,1,11,13,-5,-8,-6,15
-10,-5,5,7,-7,0,10,12,-6,-9,-7,15
-8,-5,3,6,-5,0,10,11,-7,-9,-8,14
-6,-4,1,5,-3,-1,9,10,-7,-10,-9,13
-4,-2,1,3,-2,-1,9,10,-7,-10,-9,13
-5,-2,2,4,-3,-1,9,11,-7,-10,-8,12
-7,-3,3,5,-5,-1,9,11,-7,-9,-8,12
-7,-4,3,5,-5,-1,10,11,-7,-9,-8,12
-7,-3,3,4,-5,0,10,11,-6,-9,-8,13
-4,-1,2,2,-4,1,11,12,-5,-9,-7,13
-2,-1,1,1,-2,1,11,12,-5,-9,-7,13
-1,-1,0,0,0,0,11,11,-6,-9,-8,12
0,-1,-2,0,1,-2,10,10,-6,-10,-8,11
2,-1,-4,0,3,-3,10,10,-6,-10,-8,10
2,-1,-5,-1,4,-3,10,10,-6,-9,-8,10
2,-1,-3,-1,3,-3,10,10,-6,-9,-8,11
1,-1,-2,-1,2,-1,10,10,-6,-8,-7,11
1,-1,-2,-1,2,-1,10,10,-5,-8,-7,11
0,-2,-2,0,1,-2,10,10,-5,-8,-7,11
-1,-3,-2,2,0,-3,10,9,-5,-8,-7,10
-3,-4,-1,3,-1,-3,9,9,-5,-8,-7,10
-3,-5,-1,4,-1,-4,9,9,-5,-8,-7,10
-3,-5,-2,4,-1,-4,9,9,-4,-8,-7,9
-1,-4,-3,2,0,-4,9,9,-4,-8,-7,9
1,-2,-3,0,1,-3,9,10,-4,-8,-7,9
1,-2,-3,0,1,-2,10,10,-3,-7,-6,9
0,-2,-3,0,1,-2,10,10,-3,-7,-6,9
0,-3,-3,1,1,-2,10,11,-2,-6,-5,8
-1,-2,-2,1,1,-2,10,11,-1,-5,-5,8
-1,-2,-2,1,0,-2,10,11,-1,-4,-5,8
-2,-3,-2,2,0,-2,9,11,-1,-4,-6,8
-1,-3,-2,1,1,-2,9,11,-1,-4,-6,7
0,-1,-2,0,2,-2,9,11,0,-3,-5,7
1,-1,-2,-1,2,-1,9,12,0,-2,-5,7
1,-1,-1,-1,2,-1,9,12,1,-2,-4,7
1,1,0,-2,0,0,9,13,1,-1,-3,7
0,3,3,-2,-1,3,9,14,3,0,-2,7
0,3,3,-2,-2,3,11,15,5,2,0,9
0,1,1,-1,0,1,11,16,6,4,1,9
2,0,-2,-1,2,-1,10,16,5,3,0,8
2,-2,-4,-1,3,-3,9,14,4,2,-1,6
2,-4,-5,0,3,-4,7,13,2,1,-2,4
2,-5,-6,0,4,-5,7,12,2,1,-3,4
2,-5,-7,0,4,-6,7,12,1,1,-3,4
1,-5,-7,1,4,-6,7,12,1,1,-3,4
2,-4,-6,0,4,-5,7,12,2,2,-2,4
3,-3,-6,0,5,-5,7,13,2,2,-2,4
3,-2,-6,-1,5,-4,6,13,3,2,-1,4
3,-2,-5,-1,4,-4,6,13,3,3,-1,3
4,-1,-5,-2,4,-3,6,13,4,3,0,3
6,1,-5,-4,6,-2,7,14,4,4,0,4
8,2,-5,-6,6,-2,7,14,4,4,1,4
7,2,-5,-5,6,-1,6,14,4,4,1,3
7,3,-4,-5,6,0,6,14,4,4,1,3
7,5,-2,-6,5,1,6,14,4,4,1,3
8,7,-1,-7,5,3,6,14,5,4,1,3
9,8,-1,-8,5,3,7,14,6,5,2,4
9,8,-2,-9,6,3,8,15,7,6,3,4
10,7,-3,-9,6,2,9,16,8,6,4,5
10,7,-3,-9,6,2,8,15,8,6,4,5
9,7,-2,-8,6,2,8,15,7,6,3,4
9,6,-3,-7,6,1,7,14,7,5,3,4
8,4,-4,-6,6,0,6,13,6,5,3,3
8,3,-4,-5,6,0,5,12,6,4,2,3
9,5,-4,-7,6,1,5,12,6,4,2,3
10,8,-3,-9,6,2,3,11,6,5,3,3
