leadI,leadII,leadIII,leadaVR,leadaVL,leadaVF,leadV1,leadV2,leadV3,leadV4,leadV5,leadV6
8,4,-3,-6,5,0,-1,-1,-2,-4,-2,-1
20,11,-9,-16,14,1,-2,-3,-5,-10,-5,-4
27,15,-12,-21,20,1,-3,-4,-7,-14,-8,-6
31,16,-14,-24,23,1,-3,-4,-9,-16,-9,-8
33,17,-15,-25,24,1,-2,-3,-10,-17,-10,-9
33,18,-14,-25,24,1,-1,-3,-10,-18,-11,-9
33,19,-14,-26,24,2,-1,-2,-11,-18,-11,-10
34,20,-14,-26,24,2,0,-1,-11,-19,-12,-10
33,20,-14,-26,24,2,1,0,-12,-19,-13,-11
32,18,-14,-25,23,2,2,1,-12,-19,-13,-12
30,16,-14,-23,22,1,2,2,-13,-19,-14,-13
29,15,-14,-22,22,0,3,2,-13,-19,-15,-13
29,15,-14,-22,22,0,3,2,-13,-19,-15,-13
30,15,-14,-22,22,0,4,3,-13,-19,-15,-14
30,15,-15,-22,22,0,4,3,-14,-20,-16,-15
31,15,-16,-23,23,-1,4,3,-15,-20,-16,-15
31,15,-16,-23,23,-1,4,4,-15,-20,-17,-16
30,14,-16,-22,23,-1,5,4,-16,-20,-17,-16
29,13,-16,-21,22,-2,5,5,-16,-20,-17,-16
28,12,-16,-20,22,-2,6,5,-16,-20,-17,-16
27,11,-16,-19,22,-2,7,6,-17,-20,-17,-17
27,11,-16,-19,21,-2,7,6,-18,-20,-17,-17
27,11,-16,-19,21,-2,7,6,-18,-20,-18,-18
28,11,-16,-19,21,-2,7,6,-19,-20,-18,-18
28,12,-15,-19,21,-2,8,6,-19,-19,-17,-18
27,12,-15,-19,20,-2,8,6,-19,-19,-17,-18
26,12,-15,-19,20,-2,8,6,-19,-18,-18,-18
25,11,-14,-18,20,-1,9,7,-19,-18,-18,-18
24,11,-14,-18,19,-1,9,8,-19,-17,-18,-17
24,10,-14,-17,19,-1,10,8,-19,-17,-18,-17
24,10,-14,-17,19,-2,10,8,-20,-17,-18,-18
23,10,-13,-17,18,-1,10,8,-21,-16,-18,-18
23,11,-12,-17,17,-1,10,9,-21,-15,-18,-17
23,11,-12,-17,17,-1,10,9,-22,-15,-18,-17
23,10,-12,-17,17,-1,10,9,-23,-15,-18,-17
23,10,-12,-17,18,-1,10,9,-23,-14,-18,-17
23,11,-12,-17,18,0,11,9,-23,-14,-18,-16
22,12,-11,-17,17,0,11,10,-23,-13,-18,-16
22,12,-10,-17,16,0,11,10,-24,-13,-18,-16
23,13,-11,-18,17,0,11,10,-24,-13,-18,-16
25,13,-11,-19,18,0,11,10,-24,-12,-18,-16
26,14,-12,-20,18,0,11,10,-24,-12,-18,-16
27,14,-12,-20,19,0,11,10,-25,-12,-18,-16
28,14,-14,-21,21,0,10,10,-26,-12,-18,-16
28,14,-15,-21,22,-1,10,10,-27,-12,-18,-17
27,14,-13,-21,21,0,10,10,-27,-11,-18,-16
26,15,-12,-20,19,1,10,10,-27,-11,-17,-16
26,15,-11,-20,19,1,9,9,-27,-11,-17,-16
26,15,-11,-20,18,1,8,8,-28,-11,-18,-16
26,15,-11,-20,18,1,8,8,-28,-11,-18,-16
26,15,-11,-21,18,1,8,8,-28,-11,-18,-16
26,15,-10,-20,18,2,8,7,-29,-11,-18,-16
26,15,-11,-20,18,2,7,7,-30,-11,-18,-16
27,16,-11,-22,19,2,7,7,-30,-11,-18,-16
28,17,-11,-23,20,2,7,7,-31,-11,-18,-16
28,17,-11,-23,20,3,7,7,-31,-11,-18,-16
29,18,-11,-23,20,3,7,7,-31,-11,-18,-16
29,18,-11,-23,20,3,7,7,-32,-11,-18,-16
29,18,-11,-23,20,2,6,7,-32,-12,-19,-17
31,18,-13,-24,22,1,5,6,-34,-12,-20,-17
32,18,-15,-25,23,1,5,6,-35,-13,-20,-18
31,19,-14,-25,23,2,6,7,-35,-13,-20,-18
29,19,-11,-23,20,3,7,8,-34,-12,-20,-17
27,18,-9,-22,18,4,7,8,-34,-12,-20,-17
27,18,-9,-22,18,4,7,7,-35,-12,-20,-17
28,18,-10,-23,18,4,6,6,-35,-12,-20,-17
27,18,-9,-23,18,4,6,6,-35,-12,-20,-17
26,18,-8,-22,17,4,6,6,-35,-12,-20,-17
25,18,-8,-22,16,4,5,6,-36,-12,-20,-17
25,17,-8,-21,16,4,5,5,-36,-12,-20,-17
25,17,-8,-21,16,4,4,5,-37,-13,-21,-18
26,18,-8,-22,17,4,4,4,-37,-13,-21,-18
28,18,-9,-23,18,4,4,4,-37,-14,-22,-19
28,19,-8,-23,18,5,3,3,-37,-13,-22,-19
26,19,-7,-23,16,5,3,3,-36,-13,-21,-19
25,19,-6,-22,15,5,3,3,-36,-12,-21,-19
25,19,-7,-23,16,5,3,3,-36,-13,-22,-19
27,19,-8,-23,18,5,2,2,-36,-13,-22,-19
27,19,-8,-23,17,5,2,1,-36,-13,-22,-19
26,19,-7,-23,16,6,2,1,-36,-12,-22,-19
24,19,-5,-22,15,6,2,1,-35,-12,-22,-19
23,19,-4,-21,13,7,1,1,-35,-12,-22,-19
22,19,-3,-21,12,7,1,1,-35,-12,-22,-19
22,18,-4,-21,13,6,0,0,-35,-12,-22,-19
22,18,-4,-21,13,6,0,0,-35,-12,-22,-19
21,18,-3,-21,12,7,0,0,-34,-12,-21,-18
20,19,-2,-21,11,8,0,0,-33,-11,-21,-17
20,19,-1,-20,11,8,-1,-1,-33,-11,-20,-17
21,18,-1,-20,11,8,-2,-2,-33,-11,-20,-18
21,18,-1,-20,11,8,-3,-3,-33,-11,-20,-18
20,19,0,-20,10,9,-3,-4,-32,-10,-20,-17
19,21,2,-20,8,11,-2,-4,-31,-9,-19,-16
18,21,3,-20,7,12,-2,-3,-30,-9,-18,-16
18,21,3,-20,7,12,-2,-3,-30,-8,-18,-16
18,22,3,-20,7,13,-2,-3,-29,-8,-18,-16
18,22,3,-20,7,13,-3,-4,-29,-8,-18,-16
19,23,3,-21,8,13,-3,-4,-29,-8,-18,-16
21,23,3,-23,9,13,-4,-4,-29,-8,-18,-16
22,24,3,-24,9,14,-4,-4,-29,-8,-18,-16
21,24,3,-23,9,14,-4,-4,-29,-8,-19,-16
20,24,4,-22,8,15,-3,-3,-28,-7,-18,-16
18,24,6,-21,6,15,-3,-3,-27,-7,-18,-15
17,25,7,-21,5,16,-3,-2,-27,-6,-17,-15
17,26,8,-21,5,17,-3,-2,-26,-6,-16,-14
18,27,9,-22,5,18,-3,-3,-26,-6,-16,-14
19,27,9,-23,5,18,-4,-4,-26,-6,-16,-14
18,28,10,-23,4,19,-5,-5,-25,-5,-16,-13
17,28,11,-23,3,19,-6,-7,-25,-5,-16,-13
17,28,11,-23,3,20,-7,-8,-25,-5,-16,-13
18,30,11,-24,4,20,-8,-8,-25,-4,-15,-13
19,31,11,-25,4,21,-8,-8,-24,-4,-15,-12
18,31,12,-24,3,21,-7,-8,-24,-3,-14,-11
16,31,14,-24,1,22,-6,-7,-23,-3,-13,-11
16,31,15,-24,0,23,-6,-7,-22,-3,-13,-10
18,31,15,-25,1,23,-5,-7,-22,-3,-13,-10
19,32,14,-26,1,23,-5,-6,-22,-3,-13,-10
17,31,15,-24,0,24,-5,-6,-22,-3,-13,-10
15,31,17,-23,-1,24,-5,-6,-22,-3,-13,-10
15,32,16,-24,-1,24,-5,-7,-23,-3,-14,-10
15,31,15,-23,0,23,-5,-7,-23,-4,-15,-11
15,29,15,-22,0,22,-6,-8,-24,-5,-16,-12
15,29,15,-22,0,22,-5,-8,-25,-6,-16,-13
15,29,15,-21,0,22,-4,-7,-25,-7,-17,-13
13,28,16,-20,-1,22,-3,-5,-25,-7,-17,-13
10,27,17,-18,-4,22,-2,-4,-25,-7,-17,-13
8,27,18,-17,-5,22,-2,-4,-25,-7,-18,-13
7,27,19,-17,-5,22,-1,-4,-25,-8,-18,-13
7,27,18,-17,-5,22,-1,-4,-25,-8,-18,-14
8,26,18,-17,-4,22,-1,-4,-25,-9,-19,-14
8,26,17,-17,-4,22,-1,-4,-25,-9,-19,-15
7,26,18,-17,-6,22,-1,-4,-24,-9,-19,-15
6,25,20,-16,-7,23,-1,-4,-24,-9,-19,-15
5,25,20,-15,-8,23,-1,-4,-25,-10,-20,-16
5,26,21,-16,-8,23,-1,-4,-24,-10,-20,-15
5,27,21,-16,-8,24,0,-4,-24,-9,-19,-15
4,26,21,-15,-8,24,0,-4,-23,-9,-19,-15
5,25,20,-15,-8,23,-1,-4,-24,-10,-20,-15
5,25,20,-15,-7,23,-1,-4,-24,-10,-20,-16
5,24,20,-15,-8,23,-1,-4,-24,-11,-21,-16
4,24,20,-14,-8,23,-1,-5,-24,-11,-21,-16
4,24,21,-14,-8,23,-1,-5,-24,-11,-21,-16
4,26,21,-15,-9,24,-1,-5,-23,-10,-21,-16
3,27,23,-15,-10,25,-1,-4,-23,-10,-20,-15
2,27,25,-15,-11,26,-1,-4,-22,-9,-20,-14
2,28,26,-15,-11,27,-1,-4,-21,-9,-19,-14
2,28,26,-15,-12,27,-1,-4,-21,-9,-19,-14
1,28,28,-14,-13,28,-1,-4,-20,-8,-19,-13
0,28,29,-14,-15,29,0,-3,-20,-8,-18,-13
-1,28,30,-14,-15,29,0,-3,-19,-8,-18,-12
-1,27,29,-13,-16,28,-1,-4,-19,-8,-18,-12
-1,27,29,-13,-15,28,-1,-4,-19,-8,-18,-12
-1,27,28,-13,-15,28,-2,-5,-19,-8,-18,-12
-1,27,28,-13,-15,27,-3,-6,-19,-9,-18,-13
-2,26,29,-12,-15,28,-2,-6,-19,-9,-18,-13
-2,26,30,-12,-16,28,-2,-7,-18,-9,-18,-12
-2,27,30,-12,-16,29,-2,-7,-18,-9,-18,-12
-2,27,30,-13,-16,29,-2,-7,-18,-9,-18,-12
-3,27,31,-12,-17,29,-2,-7,-18,-9,-17,-12
-4,27,32,-11,-18,30,-1,-7,-18,-8,-17,-11
-6,27,33,-10,-20,30,-1,-6,-17,-8,-17,-11
-7,27,34,-9,-21,30,0,-4,-16,-8,-17,-11
-8,25,33,-9,-20,29,2,-1,-16,-8,-17,-12
-7,24,31,-8,-19,27,5,3,-16,-8,-18,-13
-6,22,28,-8,-17,25,9,8,-16,-9,-19,-14
-6,20,26,-7,-16,23,13,15,-15,-9,-19,-16
-5,18,24,-7,-14,21,18,23,-13,-8,-20,-16
-5,16,22,-6,-14,19,24,32,-11,-7,-19,-17
-5,14,19,-5,-12,17,30,43,-9,-6,-19,-18
-3,13,16,-5,-10,15,38,55,-6,-4,-19,-18
-1,14,16,-6,-8,15,46,67,-1,-1,-17,-17
0,17,18,-8,-9,18,53,78,4,4,-12,-14
1,23,22,-12,-10,23,57,83,10,11,-6,-9
3,31,28,-18,-12,30,55,79,16,19,3,0
8,44,36,-27,-13,41,45,66,21,29,15,11
15,62,46,-39,-15,54,29,44,25,40,29,27
22,81,59,-52,-18,70,7,12,28,51,45,44
26,101,75,-63,-24,88,-18,-24,30,61,60,63
27,121,93,-74,-32,107,-43,-59,31,70,75,81
28,139,110,-83,-40,125,-64,-89,33,78,89,97
29,155,126,-91,-48,141,-83,-114,34,85,100,111
29,166,138,-96,-55,153,-98,-131,35,89,108,119
25,167,143,-95,-59,155,-104,-137,34,88,108,119
17,158,142,-87,-63,150,-103,-134,29,78,97,108
5,143,138,-74,-66,141,-95,-124,23,61,75,88
-4,126,130,-61,-67,128,-84,-110,15,42,51,65
-11,110,121,-49,-66,115,-72,-95,8,26,30,45
-15,96,111,-40,-63,104,-62,-80,1,15,15,30
-16,83,100,-33,-58,92,-52,-65,-4,6,5,18
-18,70,89,-26,-53,80,-43,-50,-9,0,-3,9
-19,58,78,-20,-48,68,-34,-37,-13,-6,-9,0
-19,47,67,-15,-43,58,-27,-27,-17,-11,-15,-7
-20,39,59,-10,-39,49,-20,-18,-19,-14,-20,-12
-22,32,54,-5,-38,43,-14,-12,-21,-17,-23,-16
-23,26,50,-2,-36,38,-9,-9,-22,-18,-25,-19
-23,22,47,0,-35,35,-4,-6,-22,-19,-26,-20
-22,21,44,0,-33,33,-1,-2,-21,-19,-26,-20
-21,20,42,0,-32,32,2,0,-19,-18,-24,-19
-19,20,40,0,-30,31,4,2,-16,-16,-22,-18
-16,19,37,-1,-28,29,5,1,-14,-14,-20,-18
-15,19,36,-2,-26,28,5,0,-12,-12,-19,-17
-16,20,36,-2,-26,28,5,-1,-9,-10,-17,-16
-17,20,37,-1,-26,28,3,-4,-8,-8,-16,-15
-17,19,36,-1,-26,28,2,-6,-7,-7,-15,-14
-15,20,36,-3,-25,29,1,-7,-5,-6,-14,-13
-13,22,36,-5,-24,30,1,-8,-4,-4,-13,-12
-12,22,36,-5,-24,29,0,-8,-3,-4,-13,-12
-10,22,34,-6,-23,28,0,-8,-3,-4,-13,-13
-9,22,33,-6,-21,28,0,-8,-2,-4,-13,-13
-11,22,34,-5,-23,28,0,-8,-1,-3,-12,-12
-15,22,37,-3,-26,29,0,-8,0,-2,-11,-11
-16,22,38,-3,-27,30,0,-8,1,-1,-10,-10
-16,22,38,-3,-27,30,0,-9,1,0,-10,-10
-15,22,37,-3,-27,29,-1,-10,1,0,-10,-10
-15,21,36,-3,-26,29,-1,-10,1,0,-10,-10
-15,20,36,-3,-26,29,-1,-10,1,0,-10,-10
-15,20,36,-3,-26,29,-1,-10,2,0,-9,-10
-14,20,36,-3,-25,28,-1,-10,2,0,-9,-10
-14,20,35,-3,-25,28,-2,-11,3,0,-9,-9
-15,20,36,-3,-25,28,-2,-11,3,0,-8,-9
-16,20,36,-2,-26,28,-2,-11,3,0,-8,-8
-16,19,36,-1,-26,28,-3,-12,3,0,-8,-8
-15,20,35,-2,-25,28,-3,-12,4,1,-8,-8
-14,20,35,-2,-25,28,-3,-11,4,1,-7,-7
-15,19,35,-1,-25,27,-3,-11,5,1,-7,-7
-15,19,34,-1,-25,26,-3,-11,5,1,-6,-7
-14,19,34,-2,-23,26,-3,-11,5,1,-6,-7
-13,19,33,-3,-22,26,-3,-12,5,2,-6,-6
-12,19,32,-4,-22,25,-3,-12,5,2,-6,-6
-13,19,32,-3,-22,25,-3,-12,6,2,-6,-6
-14,18,33,-2,-23,25,-3,-11,6,2,-6,-6
-15,18,33,-2,-24,25,-3,-11,7,3,-5,-5
-15,18,33,-2,-24,25,-2,-11,7,3,-5,-4
-14,18,33,-2,-23,25,-3,-12,8,3,-4,-4
-13,18,32,-2,-22,25,-3,-12,8,3,-4,-4
-14,17,32,-2,-22,25,-4,-13,8,3,-4,-3
-15,17,33,-1,-23,25,-4,-13,8,3,-4,-3
-15,17,32,-1,-23,24,-4,-13,8,3,-4,-3
-15,16,31,-1,-23,24,-4,-13,8,3,-4,-3
-14,16,31,-1,-22,23,-5,-13,8,3,-4,-3
-13,16,30,-1,-22,23,-5,-12,8,3,-4,-2
-14,15,30,-1,-22,23,-5,-12,8,3,-4,-2
-13,15,29,-1,-21,22,-5,-12,8,3,-4,-2
-13,15,28,-1,-20,21,-5,-13,8,3,-4,-2
-13,15,29,-1,-21,21,-5,-13,9,4,-3,-1
-14,15,30,-1,-22,22,-4,-12,9,4,-3,0
-15,14,30,0,-23,22,-4,-12,10,5,-2,0
-15,14,30,0,-22,22,-4,-12,10,5,-2,0
-13,14,28,0,-21,21,-4,-12,10,5,-2,0
-13,14,27,0,-20,21,-4,-11,10,5,-2,0
-13,14,27,0,-20,21,-4,-10,11,5,-1,1
-13,13,27,0,-20,20,-3,-10,11,6,-1,1
-13,13,27,0,-19,20,-3,-10,11,6,-1,1
-13,12,27,0,-19,19,-3,-10,11,7,0,2
-13,12,26,0,-19,19,-4,-10,11,7,0,2
-12,12,25,0,-18,18,-4,-10,11,7,0,2
-13,11,24,1,-18,17,-4,-10,11,7,0,2
-13,10,24,2,-19,17,-4,-9,12,7,0,2
-13,10,23,2,-18,17,-4,-9,12,7,1,3
-12,10,23,2,-18,16,-4,-9,12,7,1,3
-12,9,22,2,-17,16,-4,-8,12,7,1,4
-12,9,22,2,-17,16,-4,-8,12,7,1,4
-12,9,22,2,-17,16,-4,-8,12,7,1,5
-13,9,23,2,-18,16,-4,-8,13,7,2,5
-12,10,23,1,-18,16,-4,-8,13,8,2,6
-11,10,22,1,-17,16,-4,-8,13,8,3,7
-11,10,22,1,-17,16,-5,-9,13,8,4,7
-11,10,22,1,-17,16,-5,-9,13,8,4,7
-10,10,21,1,-16,16,-6,-10,13,8,4,7
-9,9,19,0,-14,15,-6,-10,12,8,4,8
-7,10,18,-1,-12,14,-7,-10,12,8,5,8
-6,11,18,-2,-12,14,-7,-9,13,8,6,9
-6,11,18,-2,-12,14,-7,-9,13,8,6,10
-7,10,18,-2,-13,14,-7,-9,12,8,7,10
-6,11,17,-2,-12,14,-7,-9,12,8,7,11
-4,12,17,-4,-11,14,-7,-10,12,8,8,12
-3,12,16,-4,-10,14,-8,-10,12,8,8,12
-3,13,16,-4,-10,14,-9,-10,13,9,8,13
-4,13,17,-4,-10,15,-9,-10,13,9,9,14
-4,14,18,-5,-11,15,-10,-11,13,10,10,15
-4,13,17,-5,-11,15,-10,-11,13,10,11,15
-4,13,17,-5,-10,15,-11,-12,12,10,11,16
-3,13,16,-5,-9,15,-11,-12,12,10,11,16
-2,13,16,-6,-9,15,-11,-13,12,10,11,17
-3,14,18,-5,-10,16,-11,-13,12,10,12,18
-4,14,18,-5,-11,16,-12,-13,12,11,12,18
-3,15,18,-6,-10,16,-12,-13,12,11,13,19
-1,16,17,-7,-9,16,-13,-13,12,11,13,19
0,16,17,-7,-9,16,-13,-13,12,11,13,19
-1,16,17,-7,-9,16,-14,-14,12,10,13,19
0,16,17,-8,-8,17,-14,-14,12,10,13,20
0,17,17,-8,-8,17,-14,-14,12,10,14,21
0,17,17,-8,-9,17,-14,-15,12,10,14,21
0,16,17,-8,-8,17,-14,-15,11,10,13,21
1,16,16,-8,-7,16,-15,-16,11,9,13,21
0,17,16,-8,-7,16,-15,-16,11,9,13,21
0,17,17,-8,-8,17,-15,-16,11,8,13,21
-1,17,17,-8,-9,17,-15,-16,11,8,13,21
-2,17,18,-8,-10,18,-15,-16,11,8,13,21
-2,17,19,-8,-11,18,-14,-15,11,8,12,21
-2,17,19,-8,-11,19,-14,-15,11,8,12,21
-3,17,20,-7,-11,19,-13,-15,11,8,11,21
-4,16,21,-6,-12,19,-13,-15,11,7,11,21
-6,16,22,-5,-14,19,-12,-14,12,7,11,21
-7,16,23,-4,-15,19,-11,-14,12,7,11,21
-8,16,23,-4,-16,19,-11,-13,12,7,10,21
-9,15,23,-3,-16,19,-10,-13,12,6,9,20
-10,14,24,-2,-17,19,-10,-12,12,5,9,19
-11,13,24,-1,-18,19,-8,-11,13,5,8,19
-10,13,24,-1,-17,18,-7,-10,13,5,7,18
-10,12,23,0,-17,18,-7,-10,13,4,6,17
-12,11,23,1,-18,17,-6,-9,13,3,5,16
-13,10,23,2,-18,17,-5,-8,13,3,4,16
-14,9,23,2,-19,16,-4,-8,13,2,3,15
-15,9,23,3,-19,16,-4,-7,13,2,2,14
-17,8,25,4,-21,16,-2,-5,14,2,2,14
-19,8,27,6,-23,17,0,-3,15,2,2,14
-21,6,28,7,-25,17,1,-1,16,2,1,13
-23,5,28,8,-25,16,2,0,17,2,1,13
-22,5,28,8,-25,16,3,1,17,2,0,12
-22,4,27,9,-24,15,3,1,17,2,0,12
-23,3,26,10,-25,15,4,1,17,2,0,11
-24,2,26,10,-25,14,4,1,17,2,-1,10
-24,2,26,10,-24,14,5,1,17,2,-1,10
-24,1,25,11,-24,13,5,2,17,1,-2,9
-24,0,25,12,-24,12,6,3,17,1,-2,8
-25,0,25,13,-25,12,7,3,17,1,-3,8
-25,-1,24,13,-25,11,7,3,17,1,-3,7
-25,-1,24,13,-24,11,7,3,17,1,-3,7
-26,-1,24,13,-25,11,8,4,18,1,-3,8
-26,-2,24,13,-25,11,8,5,18,2,-3,8
-25,-2,23,13,-24,10,8,5,17,2,-3,7
-25,-3,22,14,-23,9,8,5,17,2,-3,7
-27,-4,22,16,-25,9,9,6,18,2,-3,7
-29,-5,24,17,-26,9,9,6,18,2,-2,7
-30,-5,24,18,-27,9,10,7,19,3,-2,8
-29,-5,24,18,-26,9,10,6,19,3,-1,8
-28,-5,23,17,-25,9,9,6,19,3,-1,7
-27,-5,22,16,-24,8,9,6,19,3,-1,7
-26,-6,21,16,-23,8,9,5,19,3,-1,7
-25,-6,20,16,-23,7,9,5,19,4,-1,7
-25,-6,19,16,-22,7,9,5,19,4,-1,7
-25,-6,19,16,-22,6,9,5,19,4,-1,7
-24,-7,17,16,-20,5,9,5,18,4,-1,7
-24,-7,17,16,-20,4,9,5,18,5,0,7
-25,-7,19,16,-21,5,9,6,19,6,0,8
-25,-7,19,16,-22,6,10,7,20,7,1,9
-24,-7,18,16,-21,5,10,7,20,7,1,9
-25,-7,18,16,-21,5,10,8,20,7,1,9
-25,-7,18,16,-21,5,10,8,21,8,2,10
-25,-7,18,16,-21,5,10,8,21,8,2,10
-24,-6,17,15,-20,5,9,8,21,9,1,10
-24,-7,16,15,-20,5,9,7,21,9,1,10
-23,-7,16,15,-19,4,8,6,21,10,1,11
-22,-7,16,14,-19,4,8,6,21,10,1,11
-22,-7,16,14,-19,4,8,6,22,11,1,11
-22,-7,16,14,-19,5,8,7,22,11,1,11
-21,-7,15,14,-18,4,8,7,22,12,1,11
-20,-7,13,13,-16,3,8,6,22,12,1,11
-20,-8,12,14,-16,2,8,6,22,12,1,11
-22,-9,14,15,-18,2,8,7,23,12,1,12
-23,-9,15,16,-19,3,8,7,23,13,2,12
-23,-8,15,16,-18,3,8,8,23,13,2,12
-22,-8,15,15,-18,3,9,8,23,13,3,13
-22,-8,14,15,-18,3,8,8,23,13,3,13
-22,-9,14,16,-18,2,8,8,23,13,2,13
-22,-9,13,16,-18,2,8,8,23,14,3,13
-22,-9,13,16,-18,2,8,8,23,14,3,13
-22,-9,13,16,-18,1,8,8,23,14,3,14
-21,-9,12,15,-17,1,8,8,23,14,3,14
-20,-8,12,14,-16,1,8,8,23,14,3,14
-20,-9,12,15,-16,1,8,8,23,14,3,14
-20,-10,11,15,-16,1,8,8,23,13,2,14
-19,-10,10,15,-14,0,8,9,22,13,2,14
-18,-10,9,14,-14,0,9,9,22,13,2,14
-19,-11,10,15,-15,0,9,10,22,14,2,14
-20,-11,10,16,-15,0,9,10,22,14,3,14
-21,-11,10,16,-15,0,9,10,22,14,3,14
-21,-10,10,16,-15,0,9,10,22,14,3,14
-20,-10,9,16,-14,0,9,9,22,14,3,14
-20,-10,9,16,-14,0,9,9,22,14,4,15
-20,-10,9,16,-14,0,9,8,22,14,4,15
-19,-11,8,15,-13,-1,8,8,22,14,3,14
-19,-12,7,15,-13,-2,8,8,22,14,3,14
-19,-12,7,16,-13,-2,8,8,22,14,3,15
-20,-12,8,16,-14,-2,8,9,22,15,4,15
-20,-11,9,16,-14,-1,8,10,22,15,4,15
-20,-11,9,15,-14,-1,9,10,23,15,4,15
-20,-11,9,16,-14,-1,9,10,23,15,4,15
-21,-12,9,16,-14,-1,9,10,22,15,4,15
-21,-13,8,17,-14,-2,9,11,22,15,4,15
-20,-13,8,17,-14,-2,9,11,22,16,4,15
-19,-13,7,16,-13,-2,9,11,22,16,4,15
-18,-13,5,16,-12,-3,8,10,22,16,4,14
-18,-14,4,16,-11,-4,8,10,22,15,4,14
-19,-14,4,16,-11,-5,8,9,21,15,4,13
-19,-14,4,17,-11,-5,8,9,21,15,4,13
-19,-14,4,17,-11,-5,8,9,21,15,4,13
-20,-15,4,18,-12,-5,8,9,21,15,4,13
-20,-15,4,18,-12,-5,8,9,21,16,4,13
-21,-16,5,19,-13,-5,8,9,22,16,4,14
-21,-16,5,19,-13,-5,8,9,22,16,4,14
-21,-17,4,19,-13,-6,8,9,21,16,4,14
-21,-18,3,19,-12,-7,8,9,21,16,4,14
-21,-17,3,19,-12,-7,8,9,21,16,5,14
-20,-16,2,18,-11,-7,8,9,21,16,5,14
-19,-16,1,18,-10,-7,8,9,21,16,6,14
-18,-16,0,17,-9,-7,8,9,21,16,6,14
-17,-16,0,17,-9,-7,8,9,21,16,6,14
-18,-17,1,18,-10,-7,8,9,21,16,6,14
-20,-18,2,19,-11,-7,8,9,21,16,7,14
-21,-18,2,20,-11,-8,8,9,21,16,7,14
-20,-18,1,19,-11,-8,8,9,21,16,7,14
-19,-17,1,18,-11,-8,9,10,21,17,7,14
-18,-16,1,17,-10,-7,9,10,22,17,8,15
-19,-16,2,18,-11,-7,9,10,22,18,8,15
-20,-17,3,18,-12,-6,9,10,22,18,9,15
-19,-17,3,18,-12,-6,9,10,22,18,9,15
-18,-16,2,17,-10,-7,9,10,22,18,8,15
-16,-15,0,16,-8,-7,9,10,22,18,8,15
-15,-15,0,15,-7,-7,9,10,22,18,9,15
-17,-14,2,16,-9,-6,9,10,23,18,9,16
-18,-14,4,16,-11,-5,9,10,23,19,10,16
-19,-14,5,16,-12,-5,9,10,23,19,10,17
-19,-14,5,16,-12,-5,9,10,23,19,10,17
-18,-13,5,16,-12,-5,9,10,23,19,11,18
-18,-13,5,16,-12,-4,10,11,24,19,11,18
-18,-13,5,16,-11,-4,10,11,24,20,12,15
-18,-13,5,16,-11,-4,9,10,24,20,12,11
-18,-13,5,16,-11,-4,8,9,24,20,12,8
-18,-13,4,16,-11,-4,7,8,23,19,11,5
-17,-13,4,16,-10,-5,5,6,23,19,11,3
-16,-12,4,15,-10,-4,4,6,23,19,11,2
-15,-11,4,14,-10,-4,4,6,23,19,12,1
-14,-11,3,13,-9,-4,4,5,23,19,12,0
-14,-11,3,13,-9,-3,4,5,23,19,11,0
-14,-10,3,12,-9,-3,5,5,24,19,11,0
-14,-10,3,12,-8,-3,5,5,24,19,11,0
-13,-10,3,12,-8,-3,6,5,24,19,11,0
-12,-10,2,12,-7,-4,6,5,23,19,10,0
-12,-11,1,12,-7,-5,6,5,22,19,9,-1
-13,-12,0,12,-7,-5,6,5,21,18,9,-2
-14,-13,0,13,-7,-6,6,5,21,18,8,-2
-14,-13,0,14,-6,-7,6,5,20,17,8,-3
-13,-14,-1,14,-5,-7,6,5,20,16,7,-3
-13,-15,-2,14,-5,-8,6,5,19,16,6,-4
-12,-16,-3,15,-4,-9,6,4,18,15,5,-4
-12,-17,-5,15,-3,-11,6,4,17,14,4,-5
-13,-18,-4,16,-4,-11,6,5,16,13,3,-5
-17,-18,-2,18,-7,-10,8,6,17,14,4,-5
-19,-19,-1,19,-9,-10,9,7,17,13,3,-5
-18,-21,-3,19,-7,-12,9,7,16,12,2,-6
-17,-21,-5,19,-6,-12,9,8,15,11,2,-6
-17,-21,-3,20,-7,-11,10,9,16,12,2,-6
-19,-20,-1,20,-8,-10,11,9,16,12,3,-5
-20,-20,-1,20,-9,-10,11,9,16,12,3,-5
-19,-20,-1,20,-9,-10,11,9,16,12,2,-6
-19,-20,-2,19,-8,-11,11,9,16,11,2,-6
-18,-20,-3,19,-8,-11,11,9,15,11,1,-6
-18,-21,-4,20,-7,-12,10,9,15,11,1,-7
-17,-22,-5,20,-6,-13,10,9,14,10,0,-7
-16,-22,-5,20,-5,-13,10,9,13,9,0,-7
-15,-21,-6,19,-5,-13,10,9,13,9,0,-7
-16,-22,-5,20,-6,-14,9,9,13,9,-1,-7
-18,-23,-4,21,-7,-14,9,8,13,9,-1,-7
-19,-22,-3,21,-8,-13,9,8,13,9,-1,-7
-19,-21,-3,20,-8,-13,10,8,14,9,-1,-6
-19,-21,-3,20,-8,-12,10,8,14,9,-1,-6
-18,-20,-3,20,-7,-12,10,8,14,9,-1,-6
-18,-20,-3,19,-7,-12,10,9,14,9,-1,-6
-17,-20,-3,19,-7,-12,10,9,14,9,-1,-6
-17,-21,-3,20,-7,-12,10,9,14,8,-1,-7
-17,-23,-5,20,-6,-14,9,8,13,7,-2,-8
-17,-23,-6,20,-6,-15,9,8,13,6,-3,-8
-16,-22,-5,19,-5,-14,10,9,14,7,-2,-8
-16,-20,-5,18,-5,-13,10,10,14,7,-2,-7
-15,-20,-5,18,-4,-13,10,10,14,7,-2,-8
-16,-21,-5,18,-5,-13,10,9,14,6,-2,-8
-16,-21,-5,19,-5,-13,9,9,14,6,-2,-8
-16,-21,-5,19,-6,-13,9,9,14,7,-2,-7
-16,-21,-5,18,-6,-13,9,9,15,7,-2,-7
-15,-21,-6,18,-5,-14,9,9,15,7,-2,-7
-15,-21,-6,18,-4,-14,9,9,14,6,-2,-7
-16,-22,-7,19,-4,-15,10,10,14,6,-2,-8
-16,-22,-7,19,-4,-15,11,11,14,6,-2,-8
-16,-22,-7,20,-4,-15,13,14,15,6,-2,-8
-18,-24,-7,21,-5,-16,16,20,15,6,-2,-8
-18,-25,-8,22,-5,-17,21,27,16,6,-3,-9
-17,-27,-10,22,-4,-18,26,34,18,6,-3,-11
-16,-28,-13,22,-2,-21,31,42,19,6,-3,-12
-14,-29,-16,22,1,-23,36,52,20,7,-3,-13
-11,-30,-20,21,4,-26,43,64,22,8,-3,-14
-9,-31,-22,20,6,-27,51,77,24,10,-3,-14
-9,-30,-21,20,6,-26,60,91,29,13,-1,-13
-8,-28,-20,18,6,-24,68,104,34,17,2,-11
-6,-24,-19,15,6,-21,73,111,38,22,7,-7
-2,-18,-16,10,7,-16,70,107,43,29,14,0
5,-5,-11,0,8,-8,59,92,47,38,25,11
15,12,-3,-14,9,4,43,69,51,48,40,27
23,32,8,-27,7,19,21,37,53,59,55,44
28,52,22,-40,3,36,-4,-1,55,69,69,61
31,72,39,-51,-3,55,-30,-39,58,78,83,79
31,90,58,-60,-13,74,-53,-72,61,86,97,95
29,107,77,-68,-23,92,-72,-98,64,94,109,109
28,118,91,-73,-31,105,-87,-116,66,100,118,120
25,121,97,-73,-36,110,-94,-123,65,100,119,122
17,115,98,-66,-41,106,-94,-122,61,91,110,113
6,102,96,-54,-45,98,-88,-114,54,75,91,96
-4,87,90,-41,-47,87,-78,-101,46,57,69,75
-11,71,81,-30,-45,75,-67,-86,38,41,48,56
-13,56,69,-22,-40,62,-58,-71,29,27,32,40
-13,42,55,-14,-34,48,-50,-56,22,17,20,27
-14,28,43,-6,-29,35,-40,-41,16,8,10,16
-16,14,30,1,-24,22,-31,-27,11,2,2,6
-18,1,20,9,-20,10,-22,-16,7,-3,-4,-2
-22,-9,13,16,-18,1,-14,-8,4,-7,-9,-8
-25,-15,9,20,-17,-4,-7,-3,3,-9,-12,-12
-25,-18,6,22,-16,-6,0,2,3,-10,-13,-13
-24,-20,3,22,-13,-8,4,7,4,-11,-14,-14
-22,-21,-1,22,-10,-11,7,11,4,-11,-14,-14
-20,-22,-4,22,-7,-13,10,14,6,-9,-13,-14
-18,-23,-6,21,-6,-14,12,15,8,-7,-11,-13
-17,-23,-8,20,-5,-15,13,16,11,-4,-9,-11
-15,-23,-9,19,-4,-16,13,15,13,-2,-6,-10
-14,-22,-8,18,-4,-16,13,15,16,0,-4,-8
-14,-21,-8,18,-3,-15,13,14,17,1,-3,-7
-13,-21,-8,17,-2,-15,12,13,18,2,-2,-7
-12,-21,-10,17,-1,-16,11,12,18,2,-2,-8
-10,-21,-12,16,1,-17,10,11,18,2,-3,-8
-8,-21,-14,15,3,-17,10,11,18,2,-3,-9
-7,-21,-15,14,3,-17,10,10,18,2,-2,-9
-8,-21,-14,15,2,-17,10,10,19,3,-2,-8
-10,-21,-12,16,1,-17,10,10,20,3,-1,-7
-11,-21,-11,16,0,-16,10,10,20,4,0,-7
-10,-20,-11,15,0,-16,10,10,21,4,0,-7
-9,-19,-11,14,1,-16,10,10,21,4,0,-6
-9,-20,-12,15,1,-16,10,10,22,5,0,-6
-9,-21,-12,15,1,-16,10,10,22,5,0,-6
-9,-21,-12,15,1,-16,9,10,22,5,1,-6
-9,-20,-12,15,1,-16,9,10,22,6,1,-6
-8,-20,-12,14,1,-17,9,10,22,6,1,-6
-8,-20,-13,14,2,-17,8,9,22,6,1,-6
-7,-20,-13,13,3,-18,8,9,22,6,1,-5
-7,-19,-13,13,3,-17,8,9,22,6,2,-5
-7,-19,-13,13,3,-17,8,9,22,7,2,-4
-7,-19,-14,13,3,-16,7,8,22,7,2,-4
-6,-19,-14,13,4,-16,7,8,22,7,3,-4
-5,-19,-14,12,4,-16,7,8,22,7,3,-4
-4,-19,-14,11,5,-16,7,7,22,7,3,-4
-5,-19,-13,12,4,-16,7,7,22,7,4,-3
-7,-19,-12,13,2,-16,7,7,23,8,5,-3
-7,-18,-12,13,2,-15,7,7,23,8,5,-2
-6,-18,-12,12,3,-15,7,7,23,8,5,-2
-5,-18,-13,11,4,-15,6,7,23,8,5,-2
-4,-17,-14,11,4,-15,6,7,23,8,5,-2
-3,-17,-14,11,4,-15,6,7,23,8,5,-2
-3,-17,-14,11,4,-15,6,7,23,8,6,-2
-3,-17,-14,10,5,-15,6,7,23,8,6,-1
-2,-16,-14,10,5,-15,6,7,23,8,7,-1
-3,-16,-14,10,5,-15,6,7,23,8,7,-1
-4,-17,-13,10,4,-15,6,7,23,8,7,-1
-5,-17,-13,11,3,-15,6,7,23,8,8,0
-4,-17,-13,11,4,-15,6,7,23,8,8,0
-4,-17,-13,11,4,-15,6,6,23,8,8,0
-4,-18,-13,12,4,-16,5,6,22,8,8,0
-3,-18,-14,11,5,-16,5,6,22,8,8,0
-1,-17,-16,10,7,-17,5,6,22,8,8,0
-1,-18,-17,9,8,-18,5,6,22,8,8,0
0,-18,-18,9,9,-18,4,6,22,7,8,-1
0,-18,-19,9,10,-18,4,6,22,7,8,-1
1,-17,-19,8,10,-18,4,6,22,7,8,0
0,-17,-18,9,9,-17,5,7,22,8,9,0
-1,-18,-17,9,8,-17,5,7,22,8,9,0
0,-18,-18,9,8,-18,5,6,22,8,9,0
0,-18,-19,9,9,-18,5,6,22,8,8,0
0,-18,-19,9,10,-18,5,6,23,8,8,0
1,-17,-19,9,10,-18,5,6,23,8,9,1
1,-17,-20,8,10,-18,5,6,23,8,9,1
2,-18,-20,8,11,-19,4,6,23,8,9,0
2,-18,-21,8,11,-19,4,5,23,8,9,0
2,-17,-20,8,10,-19,4,6,23,8,9,1
1,-17,-19,9,9,-18,4,6,23,9,10,2
1,-17,-19,8,10,-18,4,6,23,9,10,2
3,-17,-20,8,11,-19,4,6,23,8,9,2
3,-17,-21,8,12,-19,4,6,23,8,9,2
3,-18,-21,8,12,-20,3,5,23,8,9,2
3,-18,-22,8,13,-20,3,5,23,8,9,2
4,-18,-22,7,13,-20,2,5,23,8,9,2
4,-18,-22,7,13,-20,2,5,23,7,9,2
4,-17,-22,6,14,-20,2,5,23,7,9,2
5,-16,-23,5,14,-20,2,5,23,7,9,2
7,-15,-24,3,15,-19,1,5,23,7,9,3
10,-14,-25,2,17,-19,1,5,22,7,9,3
11,-14,-26,1,18,-20,0,4,22,6,9,3
10,-14,-25,2,17,-20,0,4,22,6,9,3
9,-14,-24,2,16,-19,0,4,22,7,10,4
8,-14,-23,2,15,-19,0,3,22,7,11,5
9,-13,-23,2,16,-18,-1,2,22,6,11,6
9,-13,-23,1,15,-18,-1,2,22,6,11,7
10,-12,-23,0,16,-17,-2,1,22,6,12,7
12,-11,-24,0,17,-17,-3,0,22,6,12,7
14,-10,-25,-1,19,-17,-4,0,21,6,12,7
15,-9,-25,-2,20,-17,-4,-1,21,6,12,8
15,-9,-25,-3,20,-17,-5,-1,21,6,12,8
15,-8,-25,-4,21,-17,-5,-2,21,5,12,9
16,-8,-25,-4,21,-16,-6,-2,21,5,12,9
16,-7,-24,-5,20,-16,-7,-2,21,5,12,10
16,-6,-23,-5,19,-15,-7,-2,21,5,12,10
17,-5,-23,-6,19,-14,-8,-3,21,5,12,11
17,-5,-23,-6,19,-13,-8,-3,21,5,12,11
17,-4,-22,-6,19,-13,-9,-4,21,5,11,12
18,-4,-22,-7,20,-13,-9,-5,21,4,11,12
18,-3,-23,-7,20,-13,-10,-5,20,4,10,12
19,-2,-23,-8,21,-12,-10,-6,20,3,10,12
20,-2,-23,-8,22,-12,-11,-6,19,2,9,12
21,-1,-24,-9,23,-12,-11,-7,18,1,8,11
22,-1,-24,-10,23,-12,-12,-8,18,1,8,11
21,0,-23,-10,22,-11,-13,-9,18,0,8,12
20,0,-22,-10,21,-11,-13,-9,18,0,7,12
21,0,-22,-10,21,-11,-14,-10,17,0,6,11
21,0,-21,-10,21,-10,-14,-11,17,-1,6,11
20,0,-20,-10,20,-9,-14,-11,17,-1,6,12
19,1,-19,-10,19,-8,-14,-11,17,-2,6,12
18,1,-18,-10,18,-8,-13,-11,17,-2,5,12
17,1,-17,-9,17,-8,-13,-12,17,-3,4,12
16,0,-17,-8,17,-9,-13,-12,17,-4,3,11
16,0,-17,-7,16,-9,-13,-12,17,-5,2,10
15,0,-16,-7,16,-8,-12,-11,17,-5,2,10
15,1,-15,-7,15,-7,-11,-10,17,-6,1,10
16,0,-17,-7,16,-8,-12,-11,17,-7,0,9
16,0,-17,-7,17,-8,-12,-11,16,-8,-1,8
14,-1,-16,-7,15,-8,-11,-11,17,-8,-2,7
12,-1,-14,-6,13,-8,-10,-10,17,-8,-2,7
11,-1,-13,-5,12,-7,-8,-9,18,-8,-2,7
10,-2,-13,-5,12,-8,-7,-8,18,-9,-3,6
9,-3,-14,-4,12,-8,-6,-8,18,-10,-4,5
9,-4,-15,-3,12,-9,-6,-7,17,-10,-5,4
9,-5,-16,-2,12,-10,-5,-7,17,-11,-6,3
8,-6,-16,-1,12,-10,-4,-6,17,-12,-7,3
7,-6,-16,-1,11,-10,-3,-5,17,-12,-7,2
6,-7,-16,0,11,-11,-3,-4,17,-13,-8,1
5,-8,-16,1,11,-12,-2,-3,17,-13,-9,1
4,-9,-15,2,10,-12,0,-2,18,-13,-9,0
3,-9,-14,3,9,-12,1,0,18,-12,-9,0
2,-10,-13,4,8,-12,2,0,19,-12,-9,0
1,-11,-13,5,7,-12,3,1,19,-12,-9,0
0,-12,-13,6,6,-13,4,1,19,-12,-9,0
-1,-14,-13,8,5,-13,4,1,19,-12,-9,0
-1,-14,-14,8,5,-14,4,1,19,-12,-9,-1
-1,-14,-14,8,6,-14,5,1,19,-12,-9,-1
-1,-14,-14,8,6,-14,6,2,20,-11,-9,-1
-1,-15,-14,8,6,-14,6,3,20,-11,-9,-1
-2,-15,-14,9,6,-15,6,3,20,-11,-8,-1
-4,-16,-13,10,4,-14,7,4,20,-11,-8,-1
-4,-16,-13,10,4,-15,7,4,20,-10,-7,-1
-4,-16,-14,10,5,-16,7,4,20,-10,-7,-1
-3,-17,-15,10,5,-16,7,3,20,-10,-7,-1
-3,-17,-15,10,6,-17,6,3,20,-9,-7,-1
-3,-18,-16,10,6,-17,6,2,20,-9,-7,-1
-2,-18,-17,10,7,-18,6,2,20,-9,-7,-1
-1,-18,-18,10,8,-18,6,2,20,-9,-7,-1
-3,-19,-17,11,7,-18,6,3,20,-8,-6,-1
-6,-19,-15,13,4,-18,7,4,21,-7,-4,0
-7,-19,-14,13,3,-17,7,4,21,-6,-3,0
-7,-19,-14,13,3,-17,7,4,21,-5,-2,0
-8,-20,-14,14,3,-18,7,4,21,-5,-2,0
-8,-21,-14,15,3,-18,7,4,21,-4,-1,0
-7,-22,-15,15,4,-18,7,4,22,-4,-1,0
-6,-21,-16,14,5,-18,7,4,22,-3,0,0
-5,-21,-16,13,5,-18,7,4,22,-2,0,0
-5,-20,-16,13,5,-18,7,4,23,-1,2,1
-4,-20,-16,12,6,-18,7,4,23,0,3,1
-4,-20,-17,12,6,-19,7,4,23,1,4,1
-4,-20,-17,12,6,-19,7,4,24,1,5,2
-4,-19,-17,12,7,-18,7,5,24,2,6,3
-4,-19,-17,12,7,-18,8,5,25,3,7,3
-5,-20,-17,13,6,-18,7,4,25,3,7,4
-5,-21,-17,13,6,-19,7,4,25,4,8,4
-4,-20,-17,12,6,-19,7,4,25,5,9,4
-4,-19,-16,12,6,-18,7,5,26,7,11,5
-3,-18,-16,11,6,-18,8,5,26,8,12,6
-3,-18,-17,11,7,-18,8,5,26,8,13,6
-3,-18,-17,11,7,-18,8,5,26,8,13,6
-3,-18,-17,11,7,-17,8,5,27,8,14,6
-3,-18,-16,11,7,-17,8,6,27,9,15,7
-3,-19,-17,11,7,-18,8,6,27,10,15,7
-3,-19,-18,11,7,-19,7,6,27,10,15,7
-2,-19,-19,11,8,-19,7,5,26,10,15,7
-1,-19,-19,11,8,-19,6,4,26,10,16,7
-1,-19,-19,11,8,-19,6,4,26,11,17,7
-2,-19,-18,11,8,-19,6,4,27,11,17,7
-2,-19,-18,11,8,-19,6,4,27,12,18,7
-2,-19,-18,11,8,-19,6,4,27,12,18,7
-2,-19,-18,11,8,-19,6,4,27,12,18,7
-2,-19,-18,11,8,-19,6,4,27,12,18,7
-2,-20,-18,11,8,-19,6,4,27,12,18,7
-2,-20,-18,11,8,-20,6,4,27,12,19,7
-1,-19,-18,10,8,-19,6,5,27,12,19,8
-1,-19,-18,10,8,-19,6,5,27,12,19,8
-1,-19,-18,10,8,-19,6,5,27,12,19,8
0,-18,-19,9,9,-19,6,4,27,12,19,8
1,-18,-19,8,10,-19,6,4,27,12,19,8
0,-17,-18,9,8,-18,7,4,28,13,20,9
-1,-18,-16,10,7,-17,7,5,28,13,20,9
-1,-18,-17,10,8,-18,7,6,28,13,20,9
-1,-19,-17,10,8,-18,7,6,28,12,19,8
-1,-19,-18,11,8,-19,7,6,28,12,19,8
-2,-20,-18,11,8,-19,7,6,27,12,19,7
-3,-20,-18,12,7,-19,7,6,27,12,19,7
-3,-20,-17,12,6,-18,8,6,28,12,19,8
-2,-19,-17,11,7,-18,8,6,28,12,19,8
-1,-19,-18,10,8,-19,7,5,27,12,18,8
-1,-19,-18,10,8,-19,7,5,27,12,18,8
-2,-20,-18,11,8,-19,7,5,27,12,18,7
-2,-20,-18,11,8,-19,7,5,27,11,17,7
-2,-20,-18,11,8,-19,7,5,27,11,17,7
-3,-20,-18,12,7,-19,7,5,27,11,17,7
-3,-20,-18,12,7,-20,6,5,26,10,17,6
-2,-21,-18,12,7,-20,6,5,26,10,16,6
-1,-20,-18,11,8,-20,6,5,27,10,16,6
-1,-20,-18,11,8,-19,7,5,27,10,16,6
-1,-20,-18,11,8,-19,7,6,27,10,16,6
-2,-20,-18,11,8,-19,7,6,26,10,16,5
-1,-20,-19,11,9,-20,6,5,26,9,15,5
0,-19,-20,10,10,-20,6,5,26,9,15,4
1,-19,-21,10,11,-20,6,4,26,9,15,4
0,-19,-20,10,10,-20,6,4,26,9,15,4
-1,-19,-19,10,9,-19,6,5,26,9,15,4
-1,-19,-18,10,8,-19,6,5,26,9,15,4
-1,-19,-18,11,8,-19,6,5,26,9,15,4
-1,-20,-18,11,8,-19,6,5,26,9,15,4
-2,-20,-18,11,7,-19,6,5,26,9,15,5
-2,-20,-17,11,7,-19,7,5,26,9,15,5
-3,-20,-16,12,6,-18,7,4,26,9,15,5
-4,-20,-16,12,6,-18,6,4,26,9,15,5
-4,-20,-16,12,6,-18,6,4,26,9,15,5
-4,-19,-16,12,6,-18,6,4,26,9,16,5
-4,-19,-16,12,6,-18,6,4,26,9,16,5
-3,-19,-16,12,6,-18,6,4,25,9,16,5
-3,-19,-16,11,7,-18,6,4,25,9,16,5
-2,-19,-17,10,7,-18,6,4,25,9,16,5
-2,-19,-17,10,8,-18,6,4,25,9,16,5
-2,-20,-18,11,8,-19,6,4,25,9,15,5
-1,-20,-18,10,8,-19,6,4,24,9,15,5
0,-20,-19,10,9,-19,5,4,24,9,15,5
-1,-20,-19,11,9,-19,5,4,24,9,16,5
-2,-20,-18,11,7,-19,6,4,24,9,16,5
-2,-20,-18,11,8,-19,6,4,23,8,16,5
-1,-19,-19,10,9,-20,6,4,23,8,16,5
-1,-19,-18,10,8,-19,6,5,24,9,16,5
-2,-19,-17,10,7,-18,7,6,24,10,17,6
-2,-19,-16,10,7,-17,7,7,25,10,18,7
-2,-18,-16,9,7,-17,7,7,24,11,18,7
-1,-18,-17,9,8,-17,6,6,24,11,18,7
-1,-17,-17,8,8,-17,6,6,24,10,18,7
-1,-17,-17,8,8,-17,6,6,24,10,18,7
-1,-16,-17,8,8,-16,6,6,24,10,18,7
0,-16,-17,7,8,-16,6,5,24,10,18,7
1,-15,-17,7,9,-16,5,5,23,10,18,7
1,-15,-17,6,9,-16,5,5,23,10,18,7
1,-15,-17,6,9,-16,6,5,23,10,19,7
1,-15,-16,7,8,-15,6,6,24,10,19,8
0,-14,-15,7,7,-15,7,7,24,10,20,8
0,-14,-15,7,7,-15,7,7,24,10,20,8
1,-13,-16,6,8,-15,7,7,24,10,19,8
2,-13,-16,5,8,-14,6,7,24,10,19,8
2,-12,-16,5,9,-14,5,6,23,10,19,8
3,-12,-16,4,9,-14,4,4,23,10,19,8
3,-12,-15,4,9,-13,3,3,23,10,19,8
3,-11,-14,4,9,-13,2,3,23,10,19,8
3,-11,-15,4,9,-13,1,2,22,10,19,8
3,-11,-15,4,9,-13,1,2,22,10,19,8
2,-11,-15,4,8,-13,1,2,22,10,19,9
1,-11,-14,5,7,-13,2,3,22,10,19,9
1,-11,-13,4,7,-12,2,3,23,10,20,10
1,-10,-13,4,7,-11,3,4,23,10,20,10
2,-10,-14,3,8,-12,3,4,22,9,19,10
4,-10,-15,3,10,-13,3,4,22,9,19,9
6,-9,-16,2,11,-13,3,3,22,8,19,9
6,-9,-16,2,11,-13,3,3,21,8,18,9
5,-10,-16,3,10,-14,2,2,20,7,17,8
5,-11,-17,3,11,-14,2,2,19,6,16,7
5,-12,-18,3,11,-15,2,3,19,5,15,7
5,-13,-18,4,12,-16,2,3,18,4,14,6
3,-15,-19,6,11,-17,2,3,17,3,13,5
2,-16,-19,7,11,-17,3,3,16,2,12,4
1,-16,-19,8,10,-17,3,4,16,1,11,4
0,-16,-18,8,9,-17,3,4,16,1,11,4
0,-16,-17,9,8,-17,4,5,16,0,11,4
-1,-17,-16,10,7,-17,4,5,15,0,10,3
-2,-18,-17,10,6,-17,4,5,15,-1,9,2
-2,-18,-17,10,6,-18,4,5,14,-2,8,2
-2,-19,-17,11,6,-18,4,5,13,-3,7,1
-1,-19,-18,11,7,-19,4,4,12,-4,6,0
-1,-20,-19,11,8,-19,3,4,12,-5,5,0
-1,-19,-18,11,8,-19,4,4,12,-5,5,0
-2,-19,-17,11,7,-18,4,5,12,-4,6,0
-3,-20,-17,11,6,-18,4,5,12,-5,5,0
-3,-21,-17,12,6,-19,4,5,11,-6,5,0
-3,-21,-18,11,7,-19,3,5,11,-6,4,-1
-3,-20,-17,11,7,-19,3,5,11,-6,4,-1
-3,-20,-16,12,6,-18,3,5,11,-6,4,-1
-4,-20,-16,12,5,-18,3,5,11,-6,4,-1
-3,-20,-16,12,6,-17,3,5,11,-6,4,-1
-2,-20,-17,11,6,-18,3,4,11,-7,4,-1
-2,-20,-17,11,6,-18,3,4,11,-7,4,-1
-2,-20,-17,11,6,-18,3,4,10,-7,4,-1
-2,-20,-18,11,7,-19,3,4,10,-7,4,-1
-2,-20,-18,11,7,-19,3,4,10,-7,4,-1
-3,-20,-17,12,6,-18,3,4,10,-7,4,-1
-4,-20,-16,12,5,-18,3,4,10,-7,4,-1
-5,-20,-16,12,5,-18,3,4,10,-7,5,-1
-5,-20,-16,12,5,-18,3,4,10,-7,5,-1
-5,-20,-15,12,4,-17,3,5,10,-6,5,-1
-5,-20,-15,12,4,-17,3,5,10,-6,6,-1
-4,-21,-16,12,5,-18,3,4,10,-6,6,-1
-4,-21,-16,12,5,-18,3,4,10,-6,6,-1
-6,-21,-15,13,4,-18,3,4,10,-5,6,-1
-7,-22,-15,15,4,-19,2,4,9,-6,6,-2
-7,-23,-15,15,4,-19,2,4,9,-6,5,-2
-6,-23,-16,15,4,-20,3,5,9,-6,5,-2
-5,-22,-16,14,5,-20,4,7,9,-6,5,-2
-5,-23,-17,14,5,-20,6,11,9,-6,5,-3
-6,-25,-18,15,6,-22,9,16,9,-7,5,-4
-6,-26,-19,16,6,-23,14,24,10,-7,4,-5
-7,-27,-20,17,6,-24,19,32,11,-6,4,-6
-7,-29,-22,18,7,-25,24,40,11,-6,4,-7
-4,-30,-26,17,10,-28,30,49,12,-6,4,-8
0,-30,-30,15,14,-30,36,60,13,-5,4,-9
3,-30,-34,14,18,-32,44,74,15,-4,4,-9
5,-29,-35,12,20,-32,53,88,19,-1,6,-8
6,-27,-34,10,20,-31,61,101,24,4,10,-6
8,-23,-32,7,20,-28,65,108,29,10,15,-1
13,-15,-28,1,21,-22,61,103,33,17,23,6
19,-2,-22,-9,21,-12,49,86,37,27,35,18
26,14,-12,-20,19,1,31,61,41,38,49,34
31,33,1,-32,15,18,9,27,45,48,64,52
35,53,17,-43,9,35,-15,-11,48,58,78,69
36,72,35,-54,0,54,-40,-49,51,68,92,86
36,90,54,-63,-9,72,-63,-82,54,76,104,101
36,105,70,-70,-17,88,-82,-108,58,84,115,114
35,115,81,-75,-23,98,-96,-125,60,89,122,122
31,117,87,-74,-28,102,-103,-132,59,88,122,123
23,111,88,-67,-32,100,-101,-129,54,79,113,114
12,98,86,-56,-36,92,-94,-119,47,64,94,97
2,82,80,-43,-38,81,-84,-105,38,46,73,78
-5,67,71,-31,-37,69,-73,-88,30,32,55,60
-8,52,60,-22,-33,56,-64,-73,22,20,41,46
-9,37,47,-14,-28,42,-56,-59,15,10,29,32
-12,22,35,-5,-23,28,-47,-47,8,1,18,20
-14,8,24,2,-19,16,-38,-36,3,-5,10,10
-16,-3,14,9,-15,5,-30,-26,-1,-10,4,2
-19,-12,7,15,-13,-2,-23,-20,-4,-14,0,-3
-21,-18,2,19,-12,-8,-17,-15,-5,-17,-3,-6
-20,-22,-3,20,-9,-12,-11,-9,-5,-18,-4,-9
-16,-23,-8,19,-4,-15,-7,-4,-5,-18,-5,-9
-13,-24,-11,19,-1,-17,-4,0,-4,-16,-4,-9
-12,-25,-13,19,0,-19,-1,4,-2,-14,-2,-9
-10,-26,-16,18,3,-21,0,6,0,-12,0,-8
-7,-25,-17,16,5,-21,1,7,1,-9,1,-7
-6,-24,-18,15,6,-21,2,8,3,-7,3,-6
-6,-23,-17,14,5,-20,3,8,5,-5,6,-4
-7,-23,-16,15,4,-19,3,9,7,-3,8,-2
-7,-23,-16,15,4,-19,3,9,8,-1,9,-1
-7,-24,-16,15,4,-20,3,8,8,0,10,-1
-7,-24,-17,15,4,-20,3,8,9,0,10,-1
-7,-24,-17,15,5,-20,3,7,9,0,10,-1
-7,-24,-17,15,5,-21,3,7,9,0,11,-1
-6,-25,-18,15,6,-22,2,6,9,0,11,-1
-5,-25,-19,15,7,-22,2,5,9,1,11,-1
-5,-25,-19,14,7,-22,2,5,10,2,12,0
-4,-24,-19,14,7,-22,2,5,10,2,13,0
-3,-24,-20,13,8,-22,1,4,10,2,13,0
-4,-24,-20,14,7,-22,1,4,10,3,14,0
-6,-24,-18,15,6,-22,1,4,11,4,14,0
-7,-24,-18,15,5,-21,1,4,11,4,15,0
-6,-24,-18,14,6,-21,1,4,11,5,15,0
-4,-23,-19,13,7,-21,1,4,12,5,16,1
-4,-23,-19,13,7,-21,1,4,12,6,16,1
-4,-23,-19,13,7,-21,1,4,12,6,16,1
-4,-23,-19,13,7,-21,0,4,11,6,16,1
-4,-24,-19,14,7,-22,0,4,11,6,17,1
-4,-23,-19,14,7,-21,0,4,11,7,17,1
-4,-23,-18,14,6,-20,0,4,11,7,18,2
-5,-22,-17,14,5,-20,0,4,12,8,18,2
-6,-22,-16,14,5,-19,0,4,12,8,19,2
-5,-22,-16,13,5,-19,0,4,12,8,19,3
-4,-21,-16,13,5,-19,0,4,12,8,20,3
-5,-21,-16,13,5,-19,0,4,12,9,20,4
-4,-21,-16,13,5,-19,-1,3,12,9,20,4
-3,-21,-17,12,6,-19,-1,3,11,9,21,4
-3,-21,-18,12,7,-19,-2,3,11,9,21,4
-3,-22,-18,12,7,-20,-2,3,11,9,21,4
-4,-22,-18,13,6,-20,-2,3,11,9,21,4
-4,-22,-17,13,6,-20,-2,3,11,9,21,5
-4,-22,-17,13,6,-20,-2,3,11,9,21,5
-4,-22,-17,13,6,-20,-2,3,11,9,21,5
-4,-22,-17,13,6,-20,-2,3,11,9,22,5
-5,-22,-17,13,6,-20,-2,3,11,9,22,5
-5,-22,-16,13,5,-19,-2,3,11,9,22,6
-5,-22,-17,13,6,-20,-3,3,10,9,22,6
-4,-22,-18,13,7,-20,-3,2,10,8,22,5
-4,-22,-18,13,7,-20,-3,2,10,8,22,5
-5,-22,-18,14,6,-20,-3,2,10,8,22,5
-4,-23,-19,14,7,-21,-4,2,9,8,22,5
-4,-23,-19,14,7,-21,-4,2,9,8,22,5
-5,-23,-18,14,6,-21,-3,3,9,8,22,6
-5,-23,-17,15,6,-21,-3,4,9,8,22,6
-4,-22,-18,13,7,-21,-3,4,9,8,22,5
-2,-22,-20,12,9,-21,-3,4,9,8,22,5
-1,-23,-21,12,10,-22,-3,4,9,7,21,4
-2,-24,-22,13,9,-23,-4,4,8,7,21,4
-3,-25,-21,14,8,-23,-3,4,8,7,21,4
-5,-26,-20,15,7,-23,-3,5,8,7,21,4
-6,-26,-20,16,7,-23,-3,5,8,7,21,4
-5,-26,-20,15,7,-23,-4,5,8,7,21,4
-4,-25,-21,14,8,-23,-4,5,8,7,21,4
-4,-25,-21,14,9,-23,-3,5,9,7,21,4
-4,-25,-21,14,8,-23,-3,5,9,7,21,5
-3,-25,-21,14,9,-23,-3,5,9,7,20,5
-3,-25,-21,14,9,-23,-3,5,9,6,20,5
-3,-25,-21,14,8,-23,-3,5,9,6,20,5
-3,-25,-22,13,9,-23,-4,5,9,5,20,5
-1,-24,-22,12,10,-23,-4,5,8,5,20,5
0,-24,-23,11,11,-23,-5,4,8,4,19,5
0,-23,-23,11,11,-23,-5,4,8,4,19,5
-1,-23,-22,12,11,-23,-5,4,8,4,19,5
-1,-24,-22,12,11,-23,-5,4,8,4,19,5
-1,-24,-23,12,11,-24,-5,4,7,3,18,5
0,-23,-23,12,11,-24,-6,4,7,3,18,6
0,-22,-23,11,11,-23,-6,4,7,3,18,6
0,-22,-23,11,11,-23,-6,4,7,2,18,6
0,-23,-23,11,11,-23,-7,3,6,2,17,6
1,-23,-24,11,12,-23,-7,3,6,2,17,7
3,-21,-24,9,13,-22,-8,3,6,2,18,7
5,-20,-25,7,14,-22,-8,2,5,2,18,8
5,-19,-24,7,14,-22,-9,1,5,1,18,8
6,-18,-24,6,14,-22,-9,1,5,1,18,9
6,-18,-23,6,14,-21,-9,1,5,1,19,10
5,-17,-22,6,13,-20,-9,1,5,2,19,11
4,-17,-21,6,12,-19,-9,1,5,2,20,12
5,-16,-21,6,13,-19,-10,0,5,2,20,12
6,-16,-22,5,13,-19,-10,0,5,1,20,12
6,-15,-22,4,13,-18,-11,-1,4,1,20,12
7,-15,-22,3,14,-18,-12,-1,4,1,20,13
8,-14,-22,3,14,-18,-13,-2,4,0,20,13
8,-14,-22,3,15,-18,-14,-3,3,0,19,13
8,-13,-22,2,15,-18,-15,-4,2,-1,19,13
8,-12,-21,2,14,-17,-15,-4,2,-1,19,14
8,-11,-20,1,14,-16,-16,-5,2,-2,19,14
8,-11,-20,1,14,-16,-16,-5,2,-2,18,14
8,-11,-20,1,14,-16,-17,-6,1,-3,18,14
9,-10,-20,0,14,-15,-17,-6,1,-3,18,14
10,-9,-19,0,14,-14,-17,-5,1,-3,18,15
9,-9,-18,0,13,-14,-17,-5,1,-4,17,15
7,-9,-17,1,12,-14,-17,-6,0,-5,16,15
7,-9,-16,1,11,-13,-18,-7,0,-6,16,15
7,-8,-16,0,11,-12,-18,-8,0,-6,15,15
8,-7,-16,0,12,-12,-19,-9,-1,-7,14,15
6,-7,-14,0,11,-11,-19,-10,-1,-7,14,15
5,-8,-13,1,9,-11,-19,-10,-1,-8,14,14
4,-9,-13,2,9,-11,-19,-11,-1,-9,13,13
5,-8,-14,1,9,-11,-19,-11,-1,-10,11,13
6,-7,-14,0,10,-11,-19,-10,-1,-10,10,13
7,-7,-14,0,10,-10,-19,-10,-1,-11,9,12
7,-7,-14,0,10,-10,-19,-10,-2,-13,7,11
6,-7,-13,0,9,-10,-18,-9,-2,-13,6,11
4,-7,-12,1,8,-10,-17,-8,-2,-14,5,11
3,-7,-11,1,7,-9,-17,-7,-2,-14,3,10
2,-8,-11,2,6,-9,-16,-6,-2,-15,2,10
1,-9,-10,3,5,-10,-15,-5,-2,-16,1,9
0,-10,-10,4,5,-10,-15,-5,-2,-17,0,8
0,-11,-11,5,5,-11,-14,-4,-3,-18,-2,6
0,-12,-12,6,6,-12,-14,-4,-3,-19,-3,5
-2,-12,-10,7,4,-11,-12,-2,-3,-19,-4,5
-5,-12,-7,9,1,-10,-10,0,-2,-19,-4,5
-7,-13,-6,10,0,-10,-8,1,-2,-19,-4,5
-8,-14,-6,11,-1,-10,-7,1,-2,-19,-5,4
-8,-15,-6,11,-1,-11,-7,2,-2,-20,-6,3
-8,-15,-7,12,-1,-11,-6,2,-2,-20,-7,2
-9,-16,-7,12,-1,-12,-6,3,-2,-21,-8,1
-10,-17,-7,14,-2,-12,-5,3,-1,-21,-9,1
-12,-19,-6,15,-3,-12,-4,4,-1,-21,-9,0
-14,-20,-5,17,-4,-12,-3,5,-1,-22,-10,0
-14,-20,-5,17,-4,-13,-2,6,-1,-22,-10,0
-14,-20,-5,17,-4,-13,-1,7,-1,-22,-10,0
-15,-21,-6,18,-4,-14,0,8,-1,-22,-11,-1
-15,-21,-6,18,-4,-14,0,8,-1,-22,-11,-1
-14,-21,-7,18,-4,-14,0,8,-1,-22,-11,-1
-14,-21,-7,18,-3,-14,1,9,0,-22,-11,-1
-13,-21,-8,17,-2,-15,1,9,-1,-22,-11,-2
-13,-21,-9,17,-2,-15,1,9,-1,-22,-11,-2
-14,-22,-9,18,-3,-15,2,9,0,-21,-11,-2
-16,-23,-7,19,-5,-15,3,10,0,-21,-11,-2
-18,-24,-6,20,-6,-15,3,11,0,-20,-11,-2
-18,-24,-7,21,-6,-15,4,11,0,-20,-10,-2
-18,-25,-7,21,-6,-16,4,11,0,-19,-10,-3
-19,-25,-6,22,-6,-16,4,11,1,-19,-10,-3
-19,-25,-6,22,-7,-15,4,11,1,-18,-9,-2
-19,-25,-6,21,-6,-15,4,11,1,-17,-8,-2
-18,-25,-8,21,-5,-16,4,11,1,-17,-8,-2
-17,-26,-9,21,-4,-17,3,11,1,-16,-8,-2
-16,-26,-9,21,-4,-17,3,11,1,-16,-7,-2
-17,-26,-8,21,-5,-17,3,12,2,-15,-6,-2
-18,-26,-8,22,-5,-17,3,12,2,-14,-5,-2
-18,-26,-8,22,-5,-17,3,11,2,-13,-4,-1
-19,-26,-8,23,-5,-17,3,11,2,-12,-4,-1
-19,-27,-8,23,-5,-17,3,11,3,-11,-3,0
-18,-26,-8,23,-5,-17,4,12,3,-10,-2,0
-17,-25,-8,22,-5,-17,4,12,4,-9,-1,1
-18,-25,-8,22,-5,-17,4,12,4,-8,0,1
-19,-26,-7,23,-6,-17,4,12,5,-8,0,1
-19,-27,-7,23,-6,-17,4,12,5,-7,1,1
-18,-27,-9,23,-5,-18,4,12,5,-7,1,1
-16,-27,-10,22,-3,-18,4,12,4,-7,2,1
-17,-27,-10,22,-3,-18,4,13,4,-6,2,1
-19,-28,-8,24,-6,-18,4,13,5,-5,4,2
-21,-28,-7,25,-8,-17,4,14,6,-4,5,2
-20,-28,-8,24,-7,-18,4,13,6,-4,5,2
-19,-28,-8,24,-6,-18,3,13,6,-4,5,3
-19,-28,-8,23,-6,-18,3,13,6,-3,5,3
-20,-28,-7,24,-7,-17,3,13,7,-2,6,4
-20,-28,-7,24,-7,-17,3,13,7,-2,6,4
-20,-28,-8,24,-6,-18,3,13,7,-2,7,4
-19,-28,-9,24,-5,-19,2,13,7,-2,7,3
-20,-28,-9,24,-5,-18,3,14,7,-1,7,4
-20,-27,-8,24,-6,-18,3,14,8,0,8,4
-20,-27,-8,24,-6,-18,3,14,8,0,8,4
-20,-28,-8,24,-6,-18,3,14,7,-1,8,4
-21,-29,-8,25,-7,-19,3,13,7,-1,8,4
-22,-30,-8,26,-7,-19,2,13,7,-1,8,4
-22,-31,-8,27,-7,-19,2,13,7,-1,8,4
-23,-30,-8,27,-7,-19,2,14,7,0,8,4
-22,-29,-7,26,-7,-18,3,15,7,0,9,4
-21,-28,-7,24,-7,-18,4,15,8,0,9,4
-20,-28,-8,23,-6,-18,4,15,8,0,9,4
-19,-28,-8,23,-6,-18,4,14,8,0,9,4
-19,-28,-8,23,-6,-18,4,14,8,0,9,4
-19,-27,-8,23,-6,-17,5,15,8,0,9,4
-19,-28,-8,23,-6,-17,5,15,8,0,10,4
-19,-28,-9,24,-5,-18,5,15,8,0,10,4
-19,-28,-10,24,-5,-19,4,14,7,0,9,3
-19,-29,-10,24,-4,-19,4,14,7,0,9,3
-20,-29,-10,24,-5,-20,4,13,7,0,8,2
-21,-30,-10,25,-6,-20,4,13,7,0,8,2
-22,-31,-9,26,-7,-20,4,13,7,0,8,2
-23,-31,-9,27,-7,-20,4,13,7,-1,8,2
-21,-30,-9,26,-6,-20,4,13,7,-1,8,2
-20,-29,-9,24,-5,-19,4,13,8,0,8,2
-19,-29,-9,24,-5,-19,4,13,8,0,8,2
-19,-29,-10,24,-4,-20,4,13,7,-1,7,1
-21,-30,-9,25,-6,-20,4,13,7,-1,7,1
-23,-30,-8,27,-8,-19,4,13,7,-1,7,1
-23,-31,-7,27,-8,-19,4,13,7,-1,7,1
-21,-31,-9,26,-7,-20,3,13,7,-1,7,1
-20,-30,-10,25,-5,-20,3,12,7,0,7,1
-21,-30,-10,26,-6,-20,4,12,8,1,7,1
-23,-31,-8,28,-8,-19,4,12,8,3,8,1
-24,-31,-7,28,-9,-19,4,12,9,4,8,1
-24,-32,-8,28,-8,-19,4,12,8,4,7,0
-24,-31,-8,28,-8,-20,3,11,8,5,7,0
-23,-31,-8,27,-7,-20,4,11,8,5,7,0
-22,-31,-8,26,-7,-19,4,12,9,6,7,0
-23,-31,-8,27,-8,-19,4,12,9,7,7,1
-23,-31,-8,27,-8,-19,4,12,9,7,7,1
-23,-31,-8,27,-7,-19,4,12,9,7,7,1
-24,-31,-8,27,-7,-19,4,12,9,7,7,0
-24,-32,-8,28,-8,-19,4,12,9,7,7,0
-24,-32,-9,28,-8,-20,4,11,8,7,6,0
-23,-32,-10,28,-7,-21,4,11,8,7,6,0
-24,-32,-9,28,-8,-21,4,11,8,7,7,0
-24,-32,-8,28,-9,-20,5,11,8,8,7,0
-23,-31,-8,27,-8,-20,5,11,8,8,7,0
-22,-31,-9,26,-7,-20,4,11,8,8,7,0
-22,-32,-10,27,-6,-21,4,11,8,8,6,0
-22,-32,-10,27,-6,-21,4,11,8,8,6,0
-23,-31,-9,27,-7,-20,5,11,9,8,7,0
-23,-31,-8,27,-8,-20,5,11,9,9,7,0
-23,-31,-7,27,-9,-19,5,11,9,9,8,1
-24,-31,-7,27,-9,-19,5,11,9,9,8,1
-24,-31,-7,27,-9,-19,5,11,9,10,8,1
-24,-30,-7,27,-9,-18,5,11,9,10,8,1
-24,-29,-6,26,-9,-17,5,11,10,11,9,2
-24,-28,-5,26,-9,-17,5,11,10,11,9,2
-23,-28,-5,25,-9,-17,5,11,10,11,9,2
-23,-28,-5,25,-9,-17,4,10,10,10,9,2
-23,-27,-5,25,-10,-16,4,10,10,10,9,2
-22,-26,-5,24,-9,-16,4,10,10,11,9,2
-21,-25,-5,23,-8,-15,4,11,10,11,10,3
-21,-25,-4,23,-9,-14,5,12,11,12,10,3
-21,-24,-3,23,-10,-13,5,12,11,12,11,4
-22,-24,-2,23,-10,-13,5,12,11,13,11,4
-22,-24,-1,23,-11,-13,5,11,11,13,11,4
-22,-24,-1,24,-11,-13,4,10,11,13,11,4
-22,-23,-1,23,-11,-12,3,9,12,13,11,5
-21,-21,-1,22,-10,-12,2,8,12,13,11,5
-19,-20,-2,20,-9,-11,1,6,12,13,11,6
-19,-20,-1,20,-9,-11,0,5,12,13,11,6
-19,-20,-1,19,-9,-10,0,5,12,14,11,6
-18,-20,-1,19,-8,-10,0,5,12,14,11,6
-17,-19,-2,18,-8,-10,0,5,12,14,11,6
-17,-19,-2,18,-8,-9,0,6,12,14,11,7
-17,-18,-1,18,-8,-9,0,6,13,14,11,7
-17,-18,-1,18,-8,-10,1,7,13,14,10,7
-18,-19,-2,19,-8,-10,1,7,12,14,10,6
-18,-20,-2,19,-8,-11,0,7,12,13,9,6
-18,-21,-3,20,-8,-12,0,6,11,13,8,5
-18,-22,-3,20,-7,-12,0,6,10,12,8,5
-19,-23,-3,21,-7,-13,0,6,9,11,7,4
-20,-24,-4,22,-8,-14,0,6,9,11,6,4
-19,-24,-5,22,-7,-15,0,6,9,10,5,4
-17,-23,-6,21,-6,-15,1,6,9,10,5,4
-16,-23,-7,20,-5,-15,1,6,8,9,4,4
-17,-24,-7,21,-5,-15,2,6,7,9,3,3
-19,-25,-6,23,-7,-15,2,6,7,9,3,3
-21,-25,-5,23,-8,-15,3,7,7,9,3,3
-21,-26,-5,23,-8,-15,3,7,7,8,3,2
-21,-26,-5,23,-8,-15,4,8,7,8,3,2
-23,-27,-4,25,-10,-15,4,8,7,8,3,2
-24,-28,-4,26,-10,-16,5,9,7,8,2,1
-24,-28,-4,26,-10,-17,4,8,6,7,1,1
-24,-29,-5,26,-9,-17,4,8,6,7,0,0
-24,-29,-5,26,-9,-17,4,8,6,6,0,0
-23,-29,-6,26,-9,-17,4,8,5,6,0,0
-23,-29,-6,26,-9,-17,4,8,5,6,0,0
-23,-28,-6,26,-8,-17,4,8,6,6,0,0
-22,-28,-6,25,-8,-17,4,8,6,6,0,0
-23,-29,-6,26,-9,-17,4,7,5,6,0,0
-23,-29,-6,27,-9,-18,3,7,5,5,0,0
-24,-29,-6,27,-9,-18,3,6,5,5,0,0
-24,-29,-6,26,-9,-17,3,6,5,5,0,0
-24,-29,-5,26,-9,-17,3,6,5,5,0,0
-24,-29,-6,26,-8,-18,3,6,4,5,-1,-1
-23,-30,-6,27,-8,-18,3,5,4,4,-2,-1
-23,-29,-5,27,-9,-17,3,6,4,5,-1,-1
-23,-28,-4,26,-9,-16,4,6,5,5,-1,-1
-23,-28,-4,26,-9,-16,4,6,5,5,-1,-1
-23,-28,-5,26,-9,-17,4,6,4,5,-1,-1
-23,-28,-6,26,-8,-17,4,6,4,5,-2,-2
-23,-28,-6,26,-8,-17,4,7,4,5,-2,-2
-23,-28,-5,26,-9,-17,4,7,4,5,-2,-2
-23,-28,-5,25,-8,-17,4,7,5,5,-2,-2
-22,-27,-5,25,-8,-16,4,7,5,5,-2,-1
-22,-27,-4,25,-9,-16,4,7,6,5,-1,-1
-21,-27,-4,24,-8,-16,4,7,6,5,-1,-1
-21,-26,-4,24,-8,-16,4,7,6,5,-1,-1
-22,-26,-4,24,-9,-15,4,7,6,5,-1,-1
-22,-27,-5,24,-8,-15,5,7,5,5,-1,-2
-21,-27,-6,24,-7,-16,5,7,4,5,-2,-2
-20,-28,-8,24,-6,-17,5,9,4,4,-3,-3
-20,-28,-8,25,-6,-18,7,12,4,4,-3,-3
-20,-29,-9,25,-5,-19,11,17,4,3,-3,-5
-19,-31,-11,25,-4,-21,15,23,5,3,-4,-6
-19,-33,-13,26,-3,-22,19,30,6,3,-5,-7
-18,-33,-15,25,-1,-24,24,38,7,4,-5,-8
-16,-34,-18,24,1,-25,30,48,9,5,-5,-9
-14,-35,-21,24,3,-27,37,60,11,6,-5,-9
-13,-35,-23,24,5,-28,45,73,14,8,-5,-9
-12,-34,-22,23,5,-28,53,86,18,11,-2,-8
-11,-32,-21,22,5,-26,60,96,23,16,1,-6
-8,-27,-18,18,5,-22,63,101,28,22,6,-1
-3,-17,-13,10,4,-15,60,97,34,30,15,7
3,-3,-6,0,4,-4,49,82,38,40,27,19
9,13,3,-11,3,8,31,58,41,50,41,35
14,32,16,-23,-1,24,9,25,43,60,56,53
19,52,32,-35,-6,42,-16,-13,45,70,71,71
23,73,49,-47,-13,61,-41,-48,47,79,86,88
24,91,67,-58,-21,79,-62,-79,49,87,99,104
24,106,83,-65,-29,94,-81,-104,50,93,109,116
22,114,94,-68,-35,104,-95,-120,50,96,115,123
16,113,98,-65,-40,105,-100,-124,48,93,113,121
7,104,98,-56,-45,101,-96,-119,43,82,100,109
-2,92,94,-45,-48,93,-86,-107,36,66,79,90
-10,76,85,-33,-47,81,-75,-93,28,47,55,68
-16,60,75,-22,-45,68,-65,-78,20,32,36,49
-20,46,65,-13,-42,56,-55,-64,13,20,22,34
-22,32,54,-5,-38,43,-45,-49,6,11,11,22
-23,19,43,2,-33,31,-36,-34,0,4,3,12
-24,7,32,8,-28,20,-28,-21,-5,-1,-3,3
-25,-2,23,14,-24,10,-20,-10,-9,-5,-9,-2
-26,-9,16,18,-21,3,-13,-2,-11,-9,-13,-7
-27,-15,11,22,-19,-2,-7,3,-13,-11,-15,-10
-28,-20,7,24,-17,-6,-1,6,-14,-13,-17,-12
-27,-23,4,25,-15,-9,2,9,-15,-14,-18,-14
-25,-25,1,25,-13,-11,5,12,-15,-15,-19,-14
-23,-26,-2,25,-10,-14,6,14,-14,-14,-18,-15
-20,-27,-5,23,-8,-15,8,15,-12,-12,-17,-14
-19,-26,-6,22,-6,-16,9,16,-10,-9,-15,-13
-19,-26,-7,22,-6,-16,9,16,-8,-7,-13,-11
-18,-25,-7,22,-5,-16,9,14,-7,-6,-11,-10
-16,-25,-8,21,-4,-16,8,12,-6,-5,-10,-10
-15,-24,-8,20,-3,-16,7,10,-5,-3,-9,-9
-14,-23,-8,19,-3,-16,7,9,-4,-2,-9,-8
-14,-23,-8,19,-2,-16,6,7,-4,-2,-8,-8
-15,-23,-7,19,-3,-15,5,7,-4,-1,-8,-8
-15,-23,-6,19,-4,-14,5,6,-3,0,-7,-7
-15,-21,-6,18,-4,-14,5,6,-3,0,-6,-7
-15,-20,-6,17,-4,-13,5,7,-2,0,-6,-6
-14,-20,-6,17,-4,-13,4,7,-2,0,-5,-6
-14,-20,-6,17,-4,-13,4,7,-2,0,-5,-6
-13,-20,-6,17,-4,-13,3,6,-3,0,-6,-6
-13,-20,-7,16,-3,-13,3,5,-4,0,-6,-6
-12,-20,-8,16,-2,-13,2,5,-4,0,-6,-6
-12,-20,-8,16,-2,-13,2,5,-4,0,-6,-6
-12,-20,-8,16,-2,-13,2,5,-4,0,-6,-6
-12,-20,-8,16,-2,-13,2,4,-4,0,-6,-6
-13,-20,-6,16,-3,-13,2,4,-4,0,-6,-6
-14,-20,-5,16,-4,-12,2,4,-4,1,-5,-5
-13,-19,-5,16,-4,-12,2,4,-4,1,-5,-4
-14,-19,-4,16,-5,-11,2,4,-3,1,-5,-4
-15,-19,-3,17,-6,-11,2,4,-3,1,-4,-3
-15,-19,-3,17,-6,-11,2,3,-4,1,-4,-3
-15,-18,-3,17,-6,-11,1,3,-4,1,-4,-3
-15,-18,-4,17,-5,-11,1,3,-4,1,-4,-3
-15,-19,-4,17,-5,-11,1,2,-4,1,-4,-3
-15,-19,-4,17,-5,-11,1,2,-4,1,-4,-3
-14,-19,-4,16,-5,-11,1,3,-4,1,-4,-3
-13,-19,-5,15,-4,-11,1,3,-5,1,-4,-3
-13,-18,-5,15,-4,-11,1,3,-5,1,-4,-3
-14,-18,-4,16,-5,-11,1,3,-5,1,-4,-3
-14,-18,-4,16,-5,-11,1,3,-6,0,-5,-3
-13,-18,-5,16,-4,-11,1,2,-6,0,-5,-3
-13,-18,-6,16,-3,-11,0,2,-7,0,-5,-4
-14,-20,-6,17,-4,-12,0,1,-7,0,-5,-4
-15,-21,-5,18,-5,-12,0,1,-7,0,-5,-4
-14,-20,-5,17,-5,-12,0,2,-7,0,-5,-3
-12,-19,-5,16,-4,-12,0,2,-7,0,-5,-3
-12,-18,-5,15,-3,-12,0,1,-8,-1,-5,-3
-12,-18,-5,16,-4,-12,0,1,-8,-1,-5,-3
-12,-18,-5,16,-4,-12,0,2,-8,-1,-5,-3
-11,-18,-6,15,-3,-12,0,2,-8,-1,-5,-3
-11,-18,-7,15,-2,-12,0,2,-8,-1,-5,-3
-11,-18,-7,15,-2,-12,0,2,-8,-1,-5,-3
-13,-19,-6,16,-3,-12,0,2,-8,-1,-5,-3
-13,-19,-5,17,-4,-12,0,2,-8,-1,-4,-2
-13,-19,-5,17,-4,-12,0,2,-8,-1,-4,-2
-12,-19,-7,16,-3,-13,0,2,-8,-1,-5,-3
-11,-20,-8,16,-2,-14,-1,1,-9,-2,-6,-4
-11,-21,-9,17,-1,-15,-2,0,-9,-2,-6,-5
-12,-21,-9,16,-1,-14,-2,0,-9,-2,-6,-4
-11,-20,-9,15,-1,-14,-1,0,-9,-1,-5,-4
-10,-19,-9,14,0,-14,-1,1,-9,-1,-5,-4
-10,-19,-9,15,-1,-14,-1,1,-9,-1,-5,-4
-11,-20,-8,16,-1,-14,-1,1,-9,-1,-5,-4
-11,-20,-8,16,-1,-15,-2,1,-9,-1,-5,-4
-12,-21,-8,17,-2,-15,-2,1,-8,-1,-5,-4
-13,-21,-7,17,-3,-14,-1,1,-8,0,-4,-3
-13,-20,-7,17,-3,-13,-1,1,-7,0,-4,-2
-12,-20,-7,16,-3,-13,-1,1,-7,0,-3,-1
-11,-19,-7,15,-2,-13,-1,0,-7,0,-3,-1
-11,-19,-7,15,-2,-13,-1,0,-7,0,-3,-1
-10,-19,-9,15,0,-14,-2,0,-8,0,-3,-2
-9,-19,-10,14,0,-15,-2,-1,-8,0,-3,-2
-8,-18,-11,13,1,-14,-2,-1,-8,0,-3,-2
-7,-17,-11,12,1,-14,-2,-1,-8,0,-2,-1
-6,-17,-11,12,2,-14,-2,-1,-9,0,-2,0
-7,-18,-11,12,2,-14,-3,-1,-9,0,-2,0
-7,-18,-11,12,1,-14,-3,-1,-10,0,-2,0
-7,-19,-11,13,1,-14,-3,-1,-10,0,-2,0
-7,-19,-11,13,2,-15,-4,-2,-10,0,-2,0
-6,-18,-11,12,2,-15,-4,-2,-10,0,-1,0
-5,-17,-11,12,2,-14,-4,-2,-10,0,-1,1
-5,-16,-12,11,2,-14,-4,-3,-10,0,-1,1
-4,-16,-12,11,3,-14,-5,-3,-10,0,-1,1
-3,-16,-12,10,3,-14,-5,-3,-10,0,0,2
-2,-15,-12,9,4,-13,-5,-4,-10,0,0,2
-2,-15,-12,8,4,-13,-6,-4,-10,0,0,3
-2,-14,-11,8,5,-13,-6,-5,-10,1,1,3
-1,-13,-11,7,5,-12,-6,-5,-10,1,1,4
0,-12,-11,6,5,-11,-7,-6,-11,1,2,5
0,-11,-12,5,6,-11,-8,-6,-11,1,2,5
2,-10,-13,4,7,-11,-9,-7,-12,1,2,5
3,-10,-13,3,8,-11,-10,-7,-12,1,2,6
2,-9,-11,3,7,-10,-10,-7,-11,2,3,7
2,-9,-11,3,7,-10,-10,-8,-11,1,3,7
3,-9,-12,3,8,-10,-11,-9,-12,1,2,7
3,-9,-13,3,8,-11,-11,-10,-13,0,2,7
4,-8,-12,2,8,-10,-12,-11,-13,0,2,7
3,-7,-11,2,7,-9,-12,-11,-13,1,3,8
2,-7,-9,2,6,-8,-12,-11,-13,1,3,8
2,-7,-8,2,5,-8,-12,-11,-13,1,3,9
1,-7,-8,2,4,-8,-13,-12,-13,0,3,8
2,-7,-8,2,5,-8,-13,-12,-14,0,2,8
2,-6,-8,1,5,-7,-14,-13,-14,0,2,8
2,-5,-7,1,5,-6,-14,-13,-13,0,3,8
3,-4,-7,0,5,-5,-14,-14,-13,0,3,8
4,-4,-8,0,5,-5,-14,-14,-14,-1,2,8
3,-4,-8,0,5,-6,-14,-15,-15,-1,1,8
1,-5,-7,1,4,-6,-14,-15,-15,-2,1,8
1,-5,-6,1,4,-6,-14,-15,-15,-2,1,8
3,-4,-7,0,5,-6,-14,-15,-15,-2,0,8
4,-4,-7,-1,5,-5,-14,-15,-15,-3,0,7
2,-4,-6,0,4,-5,-14,-15,-15,-3,0,7
0,-5,-5,2,2,-5,-13,-15,-15,-4,-1,6
0,-5,-4,3,2,-5,-13,-15,-15,-4,-1,6
-1,-5,-4,3,1,-4,-12,-14,-15,-4,-1,6
-2,-5,-3,4,0,-4,-11,-13,-14,-4,-2,5
-3,-5,-2,4,0,-3,-10,-12,-14,-4,-2,5
-4,-5,-1,4,-1,-3,-9,-11,-13,-4,-2,4
-5,-6,0,6,-2,-3,-8,-10,-13,-4,-3,3
-6,-7,0,7,-3,-4,-8,-10,-13,-4,-4,2
-6,-6,0,6,-3,-4,-7,-9,-12,-5,-5,1
-6,-6,0,7,-3,-4,-6,-8,-12,-5,-6,1
-7,-7,-1,8,-3,-4,-5,-7,-12,-5,-6,0
-7,-8,-2,8,-3,-5,-5,-7,-13,-6,-7,-1
-6,-9,-3,7,-1,-6,-4,-6,-13,-6,-8,-2
-6,-9,-2,8,-2,-5,-3,-5,-12,-6,-9,-2
-7,-9,0,8,-3,-5,-2,-4,-12,-6,-9,-2
-8,-9,0,8,-4,-5,0,-3,-12,-6,-9,-3
-10,-10,0,10,-6,-5,0,-2,-12,-6,-10,-4
-12,-11,1,12,-7,-5,1,-1,-12,-6,-11,-4
-14,-11,1,12,-8,-5,2,0,-12,-6,-11,-4
-15,-12,2,13,-8,-5,3,1,-12,-6,-11,-5
-15,-13,1,14,-8,-5,4,1,-12,-6,-11,-5
-15,-14,1,14,-8,-6,4,2,-12,-6,-11,-6
-14,-14,1,14,-7,-6,4,3,-12,-6,-12,-6
-15,-14,1,14,-8,-6,5,3,-12,-6,-12,-7
-17,-15,2,16,-10,-6,5,4,-12,-6,-13,-7
-17,-15,2,16,-10,-6,6,4,-12,-6,-13,-7
-18,-15,2,17,-10,-6,6,5,-12,-6,-13,-7
-18,-15,2,17,-10,-6,6,5,-12,-6,-13,-8
-18,-15,2,17,-10,-6,6,5,-12,-6,-13,-8
-18,-16,2,17,-10,-6,6,5,-12,-6,-13,-9
-18,-16,3,18,-11,-6,7,5,-12,-6,-13,-9
-18,-16,3,17,-11,-6,7,5,-12,-6,-13,-9
-18,-16,2,17,-10,-6,7,4,-12,-6,-13,-9
-18,-16,2,17,-10,-6,7,5,-12,-6,-13,-9
-18,-16,3,17,-11,-6,7,5,-12,-5,-13,-9
-18,-16,3,17,-11,-6,7,5,-12,-5,-13,-9
-18,-15,3,17,-11,-6,7,5,-12,-5,-12,-8
-18,-15,3,17,-10,-6,7,5,-12,-4,-12,-8
-17,-15,2,16,-10,-6,6,5,-12,-4,-12,-8
-18,-16,2,17,-10,-6,6,5,-12,-3,-12,-8
-18,-16,3,17,-10,-6,6,5,-12,-3,-12,-8
-18,-16,2,17,-10,-7,6,5,-12,-3,-12,-8
-17,-15,2,16,-10,-7,6,5,-12,-3,-12,-8
-17,-15,1,16,-10,-7,6,5,-13,-2,-11,-8
-16,-15,1,15,-9,-7,6,5,-13,-2,-11,-8
-15,-15,1,15,-9,-7,6,5,-13,-2,-11,-8
-16,-15,1,15,-9,-7,6,5,-13,-2,-10,-8
-17,-16,1,16,-10,-7,6,5,-13,-2,-10,-8
-17,-16,2,16,-10,-7,5,5,-13,-1,-10,-8
-17,-15,2,16,-10,-6,5,5,-12,-1,-10,-8
-17,-14,3,16,-10,-6,6,5,-12,0,-10,-7
-17,-14,3,16,-10,-5,6,6,-12,0,-10,-7
-17,-13,3,15,-10,-5,6,6,-12,0,-9,-7
-16,-13,3,14,-9,-5,6,7,-12,0,-9,-7
-16,-13,3,14,-9,-5,7,7,-13,0,-9,-7
-17,-13,4,15,-11,-4,7,7,-13,0,-9,-6
-18,-13,5,16,-12,-4,7,7,-13,0,-9,-6
-17,-13,4,15,-11,-4,7,7,-13,0,-9,-6
-16,-12,4,14,-11,-4,6,7,-13,0,-9,-6
-15,-13,3,14,-10,-4,6,7,-13,0,-10,-7
-16,-13,3,14,-10,-4,6,7,-14,0,-10,-7
-17,-13,4,14,-11,-4,6,7,-14,0,-10,-7
-17,-12,4,14,-11,-4,6,7,-14,0,-10,-7
-16,-12,4,13,-11,-4,6,7,-14,0,-10,-7
-16,-11,4,13,-10,-3,6,7,-14,0,-10,-7
-15,-11,4,13,-10,-3,6,6,-14,-1,-10,-7
-15,-12,4,14,-9,-4,6,6,-14,-1,-10,-7
-17,-12,4,15,-10,-4,6,6,-15,-1,-10,-6
-18,-12,5,15,-12,-3,6,6,-15,-1,-10,-6
-17,-13,5,15,-11,-4,6,5,-15,-1,-10,-6
-16,-13,4,14,-11,-4,5,5,-16,-2,-11,-7
-16,-12,4,14,-11,-4,6,5,-16,-2,-11,-7
-16,-12,4,14,-10,-4,6,5,-16,-2,-11,-7
-15,-11,4,13,-9,-4,6,5,-16,-2,-11,-7
-14,-11,3,13,-9,-3,6,5,-16,-2,-11,-7
-14,-11,4,12,-9,-3,7,7,-16,-2,-11,-6
-14,-10,4,12,-9,-2,7,7,-16,-2,-11,-6
-14,-11,3,13,-9,-4,7,7,-17,-2,-12,-7
-15,-13,3,14,-9,-5,6,6,-17,-3,-13,-8
-16,-13,3,14,-10,-5,6,6,-17,-3,-13,-8
-16,-13,3,14,-10,-5,6,6,-17,-3,-14,-8
-15,-13,3,14,-9,-5,6,5,-17,-3,-14,-9
-14,-13,1,14,-8,-6,5,4,-18,-3,-15,-9
-13,-14,0,14,-7,-6,5,4,-18,-4,-15,-10
-13,-13,0,14,-7,-6,5,4,-19,-4,-15,-10
-13,-13,1,13,-8,-5,6,5,-18,-3,-15,-10
-15,-13,2,14,-9,-5,6,5,-18,-3,-15,-10
-16,-13,2,14,-9,-5,6,5,-18,-3,-15,-10
-16,-13,3,14,-10,-5,6,5,-18,-3,-15,-9
-17,-13,4,15,-11,-5,7,6,-17,-3,-14,-9
-18,-13,5,16,-12,-4,7,6,-17,-2,-14,-8
-18,-13,5,16,-12,-4,8,7,-17,-2,-13,-8
-17,-13,4,16,-11,-4,8,7,-17,-2,-13,-8
-17,-14,3,16,-10,-5,8,7,-18,-2,-14,-9
-16,-15,2,15,-9,-6,7,6,-18,-2,-14,-9
-15,-14,1,15,-8,-6,7,6,-19,-2,-15,-10
-15,-14,1,14,-8,-6,6,5,-19,-2,-15,-10
-15,-13,2,14,-9,-6,7,5,-18,-2,-15,-9
-15,-12,3,14,-9,-5,7,5,-18,-2,-15,-9
-15,-13,3,15,-9,-5,7,5,-18,-2,-15,-9
-16,-13,3,15,-10,-5,7,6,-18,-1,-14,-9
-16,-13,3,15,-10,-5,7,6,-18,-1,-14,-9
-16,-13,2,15,-10,-5,7,6,-18,-1,-14,-10
-16,-13,2,14,-9,-5,7,6,-18,-1,-14,-10
-15,-13,2,14,-9,-5,7,6,-18,-1,-14,-9
-15,-13,2,14,-9,-5,8,7,-18,0,-14,-9
-15,-13,2,14,-9,-5,8,7,-18,0,-14,-9
-15,-13,2,14,-9,-5,8,6,-18,0,-14,-9
-15,-13,2,14,-9,-5,8,6,-18,0,-14,-9
-15,-12,3,13,-9,-4,8,6,-18,0,-13,-9
-15,-11,3,13,-9,-4,8,6,-17,0,-13,-9
-14,-11,3,12,-8,-4,7,6,-17,0,-13,-9
-13,-10,3,11,-8,-4,7,5,-17,0,-13,-9
-13,-10,3,11,-8,-4,6,4,-18,0,-14,-9
-13,-10,3,11,-8,-4,6,4,-18,0,-14,-9
-13,-10,4,12,-8,-3,6,4,-17,0,-13,-9
-14,-9,5,12,-9,-2,7,5,-17,1,-13,-8
-14,-8,6,12,-10,-1,8,6,-16,1,-12,-8
-14,-8,6,11,-10,-1,8,6,-16,2,-12,-8
-13,-7,6,10,-9,-1,7,6,-16,2,-12,-8
-13,-7,6,10,-10,0,7,6,-15,2,-12,-7
-13,-6,8,10,-10,1,7,6,-15,3,-11,-6
-13,-5,8,9,-10,1,6,4,-15,3,-11,-6
-12,-5,8,9,-10,1,4,2,-15,3,-11,-6
-12,-4,8,8,-10,1,3,1,-16,3,-11,-6
-12,-4,8,8,-10,1,2,0,-16,3,-11,-6
-12,-4,8,8,-9,1,1,0,-16,3,-11,-6
-12,-3,8,7,-9,2,2,0,-15,4,-10,-5
-12,-3,9,7,-10,2,2,1,-15,4,-10,-5
-13,-3,9,7,-11,3,3,1,-14,5,-9,-5
-12,-3,9,7,-10,2,4,2,-14,5,-9,-5
-10,-3,7,7,-9,1,4,2,-15,4,-10,-5
-9,-4,6,7,-7,0,3,1,-16,4,-11,-6
-9,-4,5,7,-7,0,3,0,-16,3,-11,-6
-9,-4,4,7,-7,0,3,0,-16,3,-11,-6
-9,-4,4,7,-7,0,3,0,-17,2,-12,-6
-9,-5,4,7,-6,0,3,0,-17,2,-12,-7
-10,-6,4,8,-7,-1,3,0,-18,1,-13,-7
-12,-7,5,9,-8,-1,4,1,-18,1,-13,-8
-13,-9,5,11,-8,-2,5,1,-18,0,-14,-8
-13,-9,4,11,-8,-3,5,1,-19,0,-14,-9
-13,-10,4,12,-8,-3,6,2,-19,0,-15,-9
-14,-10,3,12,-8,-4,6,2,-19,-1,-15,-10
-14,-11,3,13,-8,-4,6,2,-20,-2,-16,-11
-15,-11,4,13,-9,-4,6,2,-20,-2,-16,-11
-15,-10,4,12,-10,-3,7,3,-20,-2,-16,-10
-15,-11,4,13,-10,-4,7,2,-20,-2,-16,-11
-14,-11,3,13,-9,-4,7,2,-20,-2,-17,-11
-14,-11,3,13,-8,-5,7,2,-20,-2,-17,-11
-13,-11,2,13,-8,-5,7,2,-20,-2,-17,-11
-13,-11,2,13,-8,-5,7,2,-20,-2,-17,-12
-13,-12,2,13,-7,-5,6,1,-20,-3,-17,-12
-12,-12,0,12,-6,-5,6,1,-21,-3,-18,-13
-12,-12,0,12,-6,-5,5,1,-21,-4,-18,-13
-12,-12,0,12,-6,-5,5,1,-21,-4,-18,-13
-13,-12,1,12,-7,-5,5,1,-21,-3,-18,-13
-13,-12,1,12,-7,-5,5,1,-20,-3,-18,-12
-13,-12,2,12,-7,-5,6,1,-20,-3,-18,-12
-13,-12,2,13,-7,-5,6,1,-20,-3,-18,-12
-14,-12,2,14,-8,-5,5,1,-20,-4,-18,-13
-15,-12,2,14,-8,-5,5,1,-20,-4,-18,-13
-15,-11,3,14,-9,-5,5,1,-20,-3,-18,-13
-14,-10,3,13,-8,-4,5,1,-20,-4,-18,-13
-13,-10,3,12,-8,-4,5,1,-20,-4,-18,-13
-13,-10,3,12,-8,-4,6,1,-20,-4,-18,-13
-13,-11,3,12,-8,-4,6,1,-20,-4,-18,-13
-13,-11,1,12,-7,-5,6,1,-20,-4,-19,-13
-12,-11,0,12,-6,-6,5,1,-20,-5,-19,-14
-11,-11,0,12,-5,-6,5,1,-20,-5,-19,-14
-10,-10,0,11,-5,-5,5,1,-20,-5,-19,-14
-10,-10,0,10,-5,-5,5,1,-20,-5,-19,-14
-10,-10,1,11,-6,-5,5,1,-20,-5,-19,-13
-12,-10,2,11,-7,-5,5,1,-20,-4,-19,-13
-13,-10,3,12,-7,-5,5,2,-20,-4,-19,-13
-13,-10,2,12,-7,-5,5,2,-20,-4,-19,-13
-13,-11,1,12,-7,-5,5,2,-20,-4,-19,-13
-13,-12,1,13,-7,-6,7,4,-19,-4,-18,-13
-13,-13,0,13,-6,-7,9,7,-19,-4,-19,-14
-13,-15,-1,14,-5,-8,12,12,-18,-5,-20,-15
-13,-17,-3,15,-4,-10,16,18,-18,-5,-21,-16
-13,-19,-5,16,-4,-12,21,25,-16,-5,-22,-17
-12,-20,-7,16,-2,-14,25,33,-15,-5,-22,-18
-11,-21,-10,16,0,-16,31,43,-13,-4,-22,-19
-10,-22,-13,16,1,-18,38,54,-10,-2,-21,-19
-8,-22,-15,16,3,-19,46,66,-6,0,-20,-19
-7,-21,-15,15,4,-19,54,78,-2,3,-18,-18
-6,-19,-13,13,4,-17,60,87,4,8,-15,-16
-4,-15,-10,10,4,-13,63,91,9,14,-9,-12
0,-7,-7,3,4,-8,59,86,14,22,-1,-5
7,5,-1,-6,5,1,48,72,18,31,10,7
15,23,7,-19,4,14,32,50,21,42,25,23
22,44,21,-32,0,31,10,21,24,53,42,42
26,65,38,-45,-6,51,-14,-14,25,64,59,62
27,86,57,-56,-14,71,-38,-47,27,73,75,81
26,104,76,-64,-24,90,-59,-77,28,81,89,98
24,119,94,-71,-34,106,-78,-102,29,88,100,111
24,129,106,-76,-40,117,-92,-119,29,92,107,119
23,130,108,-76,-42,118,-99,-126,26,89,106,118
17,121,104,-69,-44,112,-97,-123,20,78,92,106
7,106,99,-56,-46,102,-89,-113,13,60,69,85
-3,89,91,-43,-47,90,-77,-98,6,40,44,62
-10,73,83,-31,-46,77,-65,-82,-1,24,23,42
-15,59,73,-21,-44,66,-55,-68,-7,12,8,26
-15,46,61,-15,-38,53,-45,-53,-12,3,-3,14
-15,33,48,-9,-31,40,-36,-38,-18,-4,-12,3
-15,20,36,-3,-25,28,-28,-25,-23,-10,-19,-5
-16,10,26,2,-21,18,-20,-14,-26,-14,-24,-12
-17,2,19,7,-18,10,-12,-5,-29,-18,-28,-17
-18,-4,14,11,-16,4,-5,2,-30,-20,-31,-20
-19,-9,10,15,-15,0,0,7,-30,-22,-33,-22
-20,-13,7,17,-13,-3,5,11,-31,-24,-34,-24
-18,-15,3,17,-10,-6,8,14,-30,-24,-35,-24
-15,-16,0,16,-6,-8,10,16,-29,-23,-34,-25
-14,-17,-2,15,-5,-10,12,17,-27,-21,-33,-24
-14,-17,-3,15,-4,-11,13,16,-24,-19,-31,-22
-13,-16,-3,15,-5,-10,14,15,-21,-16,-29,-21
-13,-15,-2,14,-5,-9,13,13,-18,-14,-26,-19
-12,-14,-2,14,-5,-9,12,11,-16,-12,-25,-17
-12,-13,-1,13,-5,-8,12,9,-14,-10,-23,-15
-11,-12,0,13,-5,-7,11,8,-13,-9,-22,-15
-11,-12,-1,12,-5,-7,9,6,-13,-9,-22,-15
-11,-13,-2,12,-4,-8,8,4,-14,-9,-22,-16
-10,-13,-3,11,-3,-9,7,3,-14,-9,-23,-17
-9,-13,-4,11,-2,-9,6,2,-14,-9,-23,-17
-8,-13,-5,10,-1,-9,5,2,-13,-9,-23,-16
-8,-12,-4,10,-2,-9,5,1,-13,-9,-23,-15
-8,-12,-3,11,-2,-8,6,1,-12,-8,-22,-15
-9,-12,-3,11,-3,-8,6,1,-12,-8,-22,-14
-9,-12,-2,10,-3,-8,6,1,-12,-8,-22,-14
-9,-12,-2,10,-3,-8,5,1,-12,-8,-22,-14
-8,-12,-3,10,-3,-8,5,1,-12,-8,-22,-14
-7,-12,-4,10,-2,-8,4,0,-12,-8,-22,-14
-6,-12,-5,10,-1,-9,4,0,-12,-8,-22,-15
-6,-12,-6,10,0,-9,3,0,-12,-8,-22,-15
-7,-12,-5,10,-1,-8,3,0,-11,-7,-22,-14
-9,-12,-3,10,-3,-7,4,0,-11,-7,-21,-14
-10,-12,-2,11,-4,-7,3,-1,-11,-8,-21,-14
-10,-12,-2,11,-4,-7,3,-1,-11,-8,-21,-14
-9,-11,-1,10,-4,-7,3,0,-11,-8,-21,-13
-8,-10,-1,9,-3,-6,4,0,-10,-8,-20,-13
-8,-9,-1,8,-3,-5,4,1,-10,-7,-20,-12
-7,-9,-1,8,-3,-5,4,1,-10,-7,-20,-12
-7,-9,-1,8,-3,-5,4,1,-10,-7,-20,-11
-8,-9,0,8,-4,-5,4,0,-9,-7,-20,-11
-8,-9,0,8,-3,-5,4,0,-10,-7,-20,-11
-8,-10,-1,9,-3,-6,3,-2,-11,-8,-21,-11
-8,-10,-2,9,-3,-7,2,-2,-11,-8,-21,-12
-6,-8,-2,7,-2,-6,2,-2,-11,-8,-20,-11
-4,-7,-2,5,-1,-5,3,-2,-10,-7,-20,-11
-5,-7,-1,6,-2,-4,3,-1,-10,-7,-19,-11
-6,-8,-1,7,-3,-5,2,-2,-11,-8,-20,-11
-6,-8,-2,7,-1,-6,2,-2,-11,-9,-21,-12
-5,-8,-3,6,0,-6,2,-2,-11,-9,-21,-11
-5,-8,-2,6,0,-6,2,-1,-11,-9,-21,-11
-5,-8,-3,7,0,-6,1,-1,-11,-10,-21,-11
-6,-9,-2,7,-1,-6,1,-2,-12,-10,-21,-11
-6,-9,-2,8,-2,-6,1,-2,-12,-10,-21,-11
-6,-10,-3,8,-1,-7,1,-3,-12,-10,-21,-11
-5,-10,-4,7,-1,-7,1,-3,-12,-11,-21,-11
-4,-9,-4,6,0,-7,1,-3,-12,-11,-20,-11
-4,-9,-5,6,1,-8,1,-3,-12,-11,-20,-11
-4,-10,-5,7,1,-9,1,-3,-12,-11,-20,-11
-5,-11,-5,7,0,-9,0,-3,-12,-11,-20,-11
-5,-10,-5,7,0,-9,1,-3,-11,-11,-20,-10
-4,-10,-5,6,0,-8,1,-2,-11,-10,-19,-9
-4,-10,-6,6,0,-8,1,-2,-11,-10,-18,-9
-4,-10,-6,7,0,-8,1,-2,-11,-10,-18,-9
-4,-10,-6,7,0,-8,1,-2,-10,-10,-18,-9
-4,-9,-5,7,0,-8,1,-2,-10,-10,-18,-9
-4,-9,-5,7,0,-8,1,-2,-9,-10,-18,-8
-4,-10,-6,7,1,-9,0,-2,-9,-10,-17,-8
-4,-10,-6,7,1,-9,0,-2,-10,-10,-17,-8
-4,-11,-7,7,1,-9,0,-3,-10,-10,-17,-8
-3,-11,-7,7,1,-9,-1,-3,-10,-10,-17,-8
-3,-10,-7,6,2,-9,-1,-3,-10,-9,-16,-8
-3,-9,-6,6,1,-8,-1,-3,-9,-9,-15,-7
-3,-9,-6,6,1,-8,-1,-3,-9,-9,-15,-7
-3,-9,-6,6,2,-8,-1,-3,-9,-9,-15,-6
-3,-9,-6,5,2,-8,-1,-3,-9,-9,-15,-6
-2,-9,-7,5,3,-9,-1,-3,-9,-9,-14,-6
-1,-9,-8,5,4,-9,-1,-3,-9,-9,-14,-6
0,-9,-9,5,4,-10,-2,-3,-9,-9,-14,-6
0,-9,-9,5,4,-10,-2,-3,-9,-9,-13,-5
-1,-9,-9,5,4,-9,-2,-3,-9,-9,-13,-5
-1,-9,-8,5,3,-9,-2,-3,-9,-9,-12,-4
0,-8,-8,4,4,-8,-3,-4,-10,-9,-12,-3
1,-7,-9,3,5,-8,-3,-4,-10,-9,-12,-3
3,-7,-10,2,7,-9,-4,-5,-10,-9,-12,-3
5,-7,-12,1,8,-9,-5,-6,-10,-9,-11,-3
6,-6,-12,0,8,-8,-5,-6,-10,-8,-11,-2
5,-5,-11,0,7,-8,-5,-6,-10,-8,-10,-1
5,-5,-10,0,7,-8,-6,-6,-10,-8,-9,-1
5,-4,-10,0,7,-8,-6,-7,-10,-8,-8,0
6,-4,-10,0,8,-8,-7,-7,-10,-8,-8,0
7,-4,-11,-1,9,-8,-7,-7,-10,-8,-8,0
8,-3,-12,-1,10,-8,-7,-7,-10,-7,-7,0
9,-3,-12,-2,11,-7,-7,-8,-10,-7,-7,0
9,-2,-12,-2,10,-7,-8,-8,-10,-7,-6,1
10,-1,-12,-3,11,-7,-9,-9,-10,-7,-6,1
11,0,-12,-4,11,-7,-10,-11,-11,-7,-5,2
11,0,-12,-5,11,-6,-10,-11,-11,-7,-5,3
10,0,-11,-5,10,-6,-11,-12,-11,-7,-4,3
11,0,-10,-6,11,-5,-11,-12,-11,-7,-4,4
12,1,-11,-6,12,-5,-12,-13,-11,-7,-4,4
11,1,-10,-6,11,-4,-12,-13,-11,-7,-4,4
11,1,-10,-5,10,-4,-12,-13,-11,-6,-3,5
11,1,-10,-6,10,-4,-12,-13,-11,-6,-3,5
11,2,-10,-6,11,-4,-12,-13,-11,-6,-3,5
12,3,-10,-7,11,-4,-13,-13,-11,-6,-3,5
12,3,-9,-7,11,-4,-13,-14,-11,-7,-3,5
11,2,-9,-6,10,-4,-14,-14,-11,-7,-3,5
10,2,-8,-6,10,-4,-14,-14,-11,-7,-3,6
10,3,-7,-6,9,-3,-14,-14,-11,-7,-3,6
10,3,-7,-6,9,-2,-14,-15,-11,-8,-4,6
10,3,-7,-6,8,-2,-14,-15,-11,-8,-4,6
10,3,-6,-6,8,-2,-14,-15,-11,-9,-4,6
9,4,-6,-7,8,-2,-14,-15,-11,-9,-5,6
9,4,-5,-7,8,-1,-14,-15,-11,-9,-5,5
9,4,-5,-7,8,-1,-13,-15,-10,-9,-5,5
9,5,-4,-7,7,0,-13,-14,-10,-9,-5,5
8,5,-3,-6,6,0,-12,-13,-9,-9,-5,5
7,4,-3,-5,6,0,-12,-13,-9,-10,-5,4
6,4,-3,-5,6,0,-11,-13,-9,-10,-6,3
6,3,-3,-4,6,0,-11,-13,-9,-10,-7,2
6,3,-3,-4,6,-1,-11,-13,-9,-11,-8,1
5,2,-3,-4,6,-1,-10,-13,-9,-11,-9,1
5,2,-3,-3,5,-1,-9,-13,-9,-11,-9,0
3,1,-2,-2,4,-1,-8,-11,-8,-11,-9,0
2,1,-1,-1,2,0,-7,-9,-8,-12,-10,0
1,0,-1,0,2,0,-6,-8,-8,-12,-11,-1
0,0,-1,0,1,-1,-5,-7,-8,-13,-11,-2
0,-1,-1,1,1,-1,-4,-6,-7,-13,-12,-3
-2,-1,0,2,0,-1,-3,-5,-6,-12,-12,-3
-4,-2,2,3,-2,-1,-2,-5,-5,-11,-11,-3
-5,-3,2,4,-3,-1,-1,-4,-5,-11,-12,-4
-5,-4,0,4,-2,-2,0,-4,-5,-12,-13,-5
-4,-4,-1,4,-1,-3,0,-4,-5,-13,-14,-6
-4,-5,-1,4,-1,-4,0,-3,-5,-13,-15,-6
-6,-6,0,6,-2,-4,0,-2,-5,-13,-15,-7
-7,-7,0,7,-3,-4,1,-2,-4,-13,-16,-7
-8,-7,1,8,-4,-4,1,-1,-4,-13,-16,-7
-8,-8,0,8,-4,-4,2,-1,-4,-13,-16,-8
-8,-8,0,8,-4,-5,2,-1,-4,-13,-17,-8
-8,-8,0,8,-4,-5,3,-1,-4,-13,-17,-8
-8,-8,0,8,-4,-4,4,0,-3,-12,-17,-8
-9,-8,1,9,-5,-4,5,1,-3,-12,-17,-8
-10,-9,1,9,-5,-4,5,1,-3,-12,-17,-8
-11,-9,1,10,-6,-5,5,2,-3,-11,-17,-8
-12,-10,1,10,-6,-5,5,2,-3,-11,-17,-8
-12,-11,1,11,-6,-6,5,2,-3,-11,-17,-8
-12,-12,0,12,-5,-7,5,1,-4,-12,-18,-9
-11,-12,-1,12,-4,-7,4,1,-4,-12,-18,-9
-10,-11,-1,11,-4,-6,5,1,-4,-12,-18,-9
-10,-11,0,11,-4,-6,5,1,-3,-12,-18,-9
-11,-10,0,11,-5,-5,6,1,-3,-11,-18,-9
-11,-10,1,11,-6,-5,6,2,-3,-11,-17,-8
-10,-9,1,10,-5,-4,6,2,-3,-10,-16,-8
-10,-8,1,9,-5,-4,5,2,-3,-9,-16,-8
-10,-8,1,9,-5,-4,5,2,-3,-9,-15,-7
-10,-7,2,8,-5,-4,5,3,-2,-8,-14,-7
-11,-7,3,9,-6,-3,6,3,-2,-8,-14,-6
-12,-8,3,10,-7,-4,6,3,-2,-8,-14,-6
-11,-9,1,10,-5,-5,5,3,-3,-8,-14,-7
-9,-9,0,9,-4,-5,5,3,-3,-8,-14,-7
-9,-8,0,9,-5,-5,6,3,-3,-7,-13,-6
-11,-8,2,10,-7,-4,6,4,-2,-6,-12,-6
-12,-9,3,11,-8,-4,6,4,-2,-6,-12,-6
-13,-9,3,11,-9,-3,6,4,-1,-5,-12,-5
-13,-8,3,11,-8,-3,6,3,-1,-5,-12,-5
-12,-8,2,10,-7,-4,5,3,-1,-5,-12,-5
-10,-8,1,10,-5,-4,5,2,-1,-5,-12,-5
-10,-8,1,10,-5,-4,5,2,-1,-5,-11,-5
-10,-8,2,9,-6,-3,4,2,-1,-4,-11,-5
-10,-8,2,9,-7,-3,4,1,-1,-4,-10,-5
-9,-7,3,8,-7,-3,4,1,-1,-4,-10,-5
-9,-7,2,8,-6,-3,3,1,-2,-4,-10,-5
-9,-7,1,8,-5,-4,3,1,-3,-5,-11,-5
-9,-8,0,9,-4,-5,2,0,-3,-5,-11,-6
-10,-8,0,10,-5,-4,3,1,-3,-4,-11,-5
-10,-7,2,10,-6,-3,4,2,-3,-3,-10,-4
-10,-7,3,9,-6,-2,4,3,-3,-3,-10,-4
-9,-7,3,8,-6,-2,4,3,-3,-3,-10,-4
-9,-6,2,8,-6,-2,4,3,-3,-3,-10,-4
-9,-6,2,8,-6,-2,4,3,-3,-4,-10,-4
-9,-6,2,8,-6,-2,4,3,-3,-4,-10,-4
-10,-6,3,8,-6,-2,5,3,-3,-3,-10,-3
-9,-6,2,8,-5,-2,4,3,-3,-3,-10,-3
-7,-6,1,7,-4,-3,4,2,-4,-4,-10,-4
-6,-6,0,7,-3,-3,3,2,-5,-4,-11,-4
-7,-6,0,7,-3,-3,3,2,-5,-4,-11,-4
-8,-6,1,8,-5,-3,3,2,-5,-4,-10,-4
-9,-6,3,8,-6,-2,4,3,-5,-4,-10,-3
-9,-5,3,7,-6,-2,4,3,-5,-4,-10,-3
-8,-5,2,7,-5,-2,4,3,-5,-4,-10,-4
-8,-5,1,7,-5,-2,4,3,-6,-4,-11,-4
-9,-5,2,8,-5,-1,4,4,-6,-4,-11,-4
-9,-6,2,8,-5,-1,4,4,-6,-4,-11,-4
-9,-6,2,8,-5,-1,4,5,-6,-4,-11,-4
-9,-7,2,8,-5,-2,4,5,-6,-5,-12,-5
-8,-7,2,7,-5,-2,4,4,-6,-5,-12,-5
-8,-6,2,7,-5,-2,4,4,-6,-5,-12,-4
-9,-6,2,8,-6,-2,4,4,-6,-5,-12,-4
-9,-7,2,8,-6,-2,4,4,-6,-5,-12,-4
-9,-7,2,8,-5,-2,4,4,-6,-5,-12,-4
-9,-6,2,8,-5,-2,4,4,-6,-5,-11,-4
-8,-6,2,8,-5,-2,4,3,-7,-5,-11,-4
-8,-6,1,8,-4,-3,4,3,-7,-5,-11,-4
-8,-6,1,8,-5,-3,4,3,-7,-4,-11,-4
-9,-6,1,8,-5,-2,4,4,-7,-4,-11,-3
-9,-7,1,9,-5,-3,4,4,-7,-4,-11,-2
-9,-8,0,9,-5,-4,4,4,-8,-4,-12,-1
-9,-8,0,9,-4,-4,4,4,-8,-4,-12,-1
-9,-8,0,9,-4,-4,5,4,-7,-4,-11,0
-9,-8,1,10,-5,-4,5,4,-7,-3,-11,0
-9,-8,1,10,-5,-4,5,4,-7,-3,-10,0
-8,-7,0,9,-4,-3,4,4,-7,-3,-10,0
-7,-7,0,8,-4,-3,4,3,-7,-3,-11,0
-7,-7,0,8,-4,-4,3,3,-7,-2,-11,0
-7,-7,0,7,-4,-4,4,3,-7,-2,-10,0
-7,-7,0,7,-4,-4,4,3,-7,-1,-10,0
-8,-7,0,8,-4,-4,4,3,-7,-1,-10,0
-9,-7,0,8,-5,-3,4,4,-7,-1,-10,0
-9,-7,0,8,-5,-3,4,4,-6,-1,-10,0
-9,-7,0,8,-5,-3,4,4,-6,-1,-9,0
-9,-7,1,8,-5,-2,4,5,-6,-1,-9,0
-9,-6,2,8,-6,-2,5,5,-5,0,-8,0
-8,-6,2,8,-6,-2,5,5,-5,0,-8,0
-7,-5,2,7,-5,-2,5,5,-5,0,-8,-1
-7,-5,1,7,-5,-2,4,4,-5,0,-8,-1
-7,-6,1,7,-4,-2,4,4,-5,0,-8,-1
-7,-6,1,7,-4,-2,4,4,-4,0,-7,-1
-7,-5,2,6,-4,-1,4,4,-4,1,-7,0
-5,-3,1,4,-3,-1,5,5,-4,1,-6,0
-4,-3,1,3,-3,-1,5,4,-4,2,-6,0
-4,-3,1,3,-3,-1,4,4,-4,2,-6,0
-3,-2,1,3,-2,0,4,3,-4,2,-6,0
-3,-2,1,3,-2,0,3,3,-4,2,-6,0
-3,-2,1,3,-2,0,3,2,-4,2,-6,0
-3,-2,1,3,-3,0,2,2,-4,2,-6,0
-4,-2,2,3,-4,0,1,1,-4,2,-5,0
-4,-1,3,2,-4,1,0,0,-4,2,-5,0
-3,0,3,1,-3,1,0,0,-3,3,-4,0
-2,1,3,0,-3,1,0,0,-3,3,-4,0
-1,1,3,0,-2,1,-1,0,-3,3,-4,0
-1,1,3,0,-2,2,-1,0,-3,4,-4,0
-1,1,3,0,-2,2,0,0,-3,4,-3,1
-1,2,3,0,-2,3,0,0,-2,4,-3,1
0,2,3,-1,-1,2,0,1,-2,4,-3,1
0,2,2,-1,0,1,0,0,-3,3,-4,0
0,1,1,-1,0,0,0,0,-3,3,-4,0
1,1,0,-1,0,0,-1,-1,-4,2,-5,0
1,0,-1,0,0,0,-1,-2,-5,2,-5,-1
1,-1,-1,0,1,-1,-1,-2,-6,1,-6,-2
2,-1,-3,0,2,-1,-1,-2,-7,0,-7,-2
2,-2,-4,0,3,-2,-1,-2,-7,0,-7,-3
1,-2,-3,1,2,-2,0,-1,-8,0,-7,-3
-1,-3,-2,3,0,-3,0,0,-8,-1,-8,-3
-3,-4,-2,4,-1,-3,1,0,-8,-1,-8,-4
-4,-5,-1,5,-2,-3,1,0,-8,-1,-8,-4
-5,-5,-1,5,-2,-3,2,1,-8,-1,-8,-5
-5,-5,-1,5,-3,-3,3,1,-8,-1,-8,-5
-5,-6,-1,5,-2,-3,3,1,-8,-2,-9,-6
-4,-7,-2,6,-1,-4,3,1,-9,-2,-9,-7
-4,-7,-3,6,-1,-5,3,1,-9,-3,-10,-8
-4,-7,-3,6,-1,-5,3,1,-9,-3,-10,-8
-5,-7,-3,7,-1,-5,3,1,-9,-3,-10,-9
-6,-8,-3,7,-2,-5,3,1,-9,-3,-10,-9
-6,-8,-2,7,-2,-4,3,1,-9,-3,-10,-9
-6,-8,-2,7,-2,-4,3,1,-9,-3,-10,-9
-5,-8,-2,7,-1,-4,3,1,-10,-3,-10,-9
-4,-7,-2,6,-1,-4,3,1,-10,-3,-10,-9
-4,-7,-2,6,-1,-4,3,1,-10,-3,-9,-9
-4,-7,-2,6,-1,-4,3,1,-10,-3,-9,-9
-5,-7,-2,6,-1,-4,3,1,-10,-3,-9,-9
-5,-7,-2,6,-1,-4,3,1,-10,-3,-9,-9
-6,-7,-2,7,-2,-4,3,1,-10,-3,-9,-9
-5,-7,-3,6,-1,-4,3,1,-10,-3,-9,-9
-3,-6,-3,5,0,-4,3,1,-10,-3,-8,-9
-2,-6,-3,4,0,-4,3,1,-10,-3,-8,-9
-3,-6,-3,5,0,-4,2,0,-10,-4,-8,-10
-3,-7,-4,5,0,-5,2,0,-10,-4,-9,-10
-3,-7,-4,5,0,-5,2,-1,-10,-4,-8,-11
-3,-7,-4,5,0,-5,2,-1,-10,-4,-8,-11
-4,-7,-4,6,0,-5,1,-1,-10,-4,-8,-11
-4,-8,-4,6,0,-5,1,-1,-10,-4,-8,-12
-4,-8,-3,6,0,-5,1,-1,-11,-4,-8,-12
-4,-8,-3,6,0,-5,1,0,-11,-4,-8,-12
-5,-7,-2,6,0,-4,1,0,-11,-4,-8,-12
-4,-7,-2,6,0,-5,1,0,-11,-4,-8,-12
-3,-7,-3,5,1,-5,1,0,-11,-5,-8,-12
-1,-6,-5,4,2,-5,1,0,-11,-5,-8,-13
-1,-6,-5,4,2,-6,1,0,-11,-5,-9,-13
-3,-7,-4,6,0,-6,2,2,-11,-5,-8,-13
-5,-9,-3,7,-1,-6,4,5,-11,-5,-8,-14
-5,-10,-4,8,-1,-7,8,10,-11,-5,-9,-15
-5,-11,-6,9,0,-8,12,17,-11,-5,-10,-16
-6,-14,-7,10,0,-10,17,24,-10,-5,-10,-18
-6,-16,-9,11,1,-12,22,32,-8,-5,-11,-19
-4,-17,-12,10,4,-14,27,41,-7,-4,-11,-19
0,-17,-16,9,8,-16,34,52,-5,-2,-10,-20
2,-17,-19,7,11,-18,42,65,-2,0,-10,-20
4,-16,-20,6,12,-18,50,78,2,2,-8,-19
5,-14,-19,5,12,-16,57,90,7,7,-4,-17
7,-10,-17,1,13,-14,61,96,12,12,0,-14
11,-2,-14,-4,13,-8,59,93,16,19,8,-7
16,10,-7,-13,12,1,50,80,21,29,19,5
23,26,2,-24,11,14,34,59,25,40,34,20
30,45,15,-37,8,30,13,29,27,51,49,38
35,66,30,-50,3,48,-12,-7,29,62,65,57
38,86,47,-62,-4,67,-37,-44,30,71,81,75
39,104,65,-71,-12,85,-59,-76,32,80,95,91
37,121,83,-78,-22,102,-79,-103,33,87,107,105
37,132,96,-84,-29,114,-95,-122,34,91,115,114
36,136,100,-85,-32,118,-104,-131,32,91,116,116
30,130,100,-80,-35,115,-104,-130,28,83,107,108
19,118,98,-68,-39,108,-97,-122,22,67,87,90
9,102,93,-55,-41,97,-85,-108,14,48,64,69
3,86,83,-44,-40,85,-73,-92,6,31,42,48
-1,71,73,-35,-37,72,-62,-76,-1,17,26,32
-4,58,62,-26,-33,60,-52,-60,-8,8,15,20
-6,43,50,-18,-28,46,-43,-45,-14,0,5,8
-7,29,37,-10,-22,33,-35,-32,-19,-7,-3,-1
-9,17,27,-3,-18,22,-26,-21,-23,-12,-10,-9
-11,7,20,2,-15,13,-19,-12,-26,-15,-14,-15
-13,0,14,7,-14,7,-12,-6,-27,-18,-18,-19
-14,-5,9,9,-12,2,-6,-1,-28,-20,-20,-22
-13,-8,5,10,-9,-1,-1,3,-29,-21,-21,-24
-11,-9,2,10,-6,-3,2,8,-28,-21,-20,-25
-9,-9,0,10,-4,-4,5,10,-27,-19,-19,-24
-7,-9,-3,9,-2,-6,7,11,-24,-17,-17,-23
-5,-9,-4,8,0,-7,8,11,-22,-14,-15,-21
-5,-9,-4,8,0,-7,8,10,-19,-12,-14,-20
-4,-9,-5,7,0,-7,8,9,-17,-10,-12,-19
-2,-7,-5,5,2,-7,7,7,-16,-8,-11,-18
0,-7,-6,4,3,-7,6,5,-15,-7,-10,-17
0,-7,-7,3,4,-7,5,3,-14,-7,-9,-17
0,-7,-6,4,3,-7,5,2,-14,-7,-9,-17
-1,-8,-6,5,3,-7,5,2,-13,-7,-8,-17
-2,-8,-6,5,2,-7,4,2,-13,-6,-8,-16
-2,-8,-6,5,2,-7,4,2,-13,-6,-8,-16
-2,-7,-6,4,3,-7,4,2,-12,-5,-8,-16
0,-6,-6,3,3,-7,4,2,-12,-5,-7,-15
0,-6,-6,3,4,-7,4,2,-12,-5,-7,-15
0,-7,-6,3,4,-7,4,2,-12,-5,-7,-15
0,-7,-6,4,4,-7,3,1,-12,-5,-7,-15
0,-7,-7,4,4,-7,3,1,-12,-5,-7,-15
0,-7,-7,4,4,-6,3,1,-12,-4,-7,-15
0,-6,-6,4,3,-6,3,1,-11,-4,-6,-14
0,-6,-5,4,3,-6,2,1,-11,-4,-6,-14
0,-6,-5,4,3,-6,2,0,-11,-4,-6,-14
0,-6,-6,4,3,-7,2,0,-11,-4,-6,-14
0,-7,-7,4,4,-7,1,0,-11,-4,-6,-14
1,-6,-8,3,5,-7,1,-1,-11,-4,-6,-14
1,-6,-7,3,5,-6,1,-1,-11,-4,-6,-14
1,-6,-6,3,4,-6,1,0,-11,-4,-5,-13
1,-6,-6,2,4,-6,1,0,-11,-4,-5,-13
1,-5,-6,2,4,-6,1,0,-11,-4,-5,-13
1,-5,-6,2,4,-6,1,0,-11,-3,-5,-13
1,-4,-5,2,4,-5,1,0,-11,-3,-5,-12
1,-4,-5,3,3,-5,1,0,-10,-2,-5,-12
0,-5,-5,3,3,-5,1,0,-10,-2,-5,-12
0,-5,-5,3,3,-5,0,-1,-11,-3,-5,-12
1,-5,-5,2,3,-5,0,-1,-11,-3,-4,-11
1,-4,-5,1,3,-4,0,0,-10,-3,-4,-11
1,-4,-4,1,3,-4,0,0,-10,-3,-4,-11
1,-3,-4,1,3,-4,0,-1,-10,-3,-4,-11
1,-3,-4,1,3,-4,0,-1,-10,-3,-4,-10
1,-3,-5,1,3,-4,0,-2,-10,-3,-4,-10
2,-3,-6,1,4,-4,0,-2,-10,-3,-4,-10
3,-3,-6,0,5,-5,0,-2,-11,-3,-4,-10
3,-3,-7,0,5,-5,0,-2,-11,-3,-4,-10
3,-4,-7,1,6,-6,0,-2,-11,-3,-4,-10
3,-4,-7,1,6,-6,-1,-2,-11,-3,-3,-10
3,-5,-7,1,6,-6,-1,-2,-11,-3,-3,-10
3,-5,-7,1,6,-7,-1,-2,-11,-3,-3,-10
3,-5,-8,1,6,-7,-1,-2,-11,-3,-3,-10
4,-6,-9,1,7,-8,-1,-2,-11,-3,-3,-10
5,-5,-10,0,8,-8,-1,-2,-11,-3,-3,-10
6,-5,-11,0,9,-8,-1,-2,-11,-3,-3,-10
6,-5,-11,0,9,-9,-1,-2,-11,-3,-3,-10
4,-6,-9,1,7,-8,-1,-1,-11,-3,-3,-10
2,-6,-8,2,5,-7,-1,-1,-10,-2,-3,-9
3,-6,-8,2,6,-7,-1,-1,-10,-2,-3,-9
4,-6,-9,1,7,-7,-2,-2,-10,-2,-3,-9
4,-5,-9,1,7,-7,-1,-1,-9,-2,-2,-8
3,-5,-9,2,6,-6,-1,-1,-9,-1,-2,-8
2,-6,-8,3,5,-7,-1,-1,-9,-1,-2,-8
3,-6,-9,3,6,-7,-1,-1,-9,-1,-2,-8
4,-6,-10,2,7,-7,-1,0,-9,-1,-2,-8
6,-6,-11,1,9,-8,-1,0,-9,-1,-2,-8
7,-6,-12,0,10,-9,-1,0,-9,-1,-2,-8
7,-5,-12,0,10,-9,-2,0,-9,-1,-2,-8
8,-5,-12,-1,10,-9,-2,0,-9,-1,-2,-8
8,-5,-13,-1,10,-9,-2,0,-9,-1,-2,-8
8,-5,-13,0,10,-9,-2,0,-9,-1,-2,-8
8,-6,-13,0,10,-9,-2,0,-9,-1,-2,-7
7,-6,-13,0,10,-9,-3,0,-10,-1,-2,-7
7,-6,-13,0,10,-9,-4,-1,-10,-1,-2,-7
8,-6,-13,0,11,-9,-4,-1,-10,-1,-1,-6
9,-4,-13,-2,11,-9,-4,-1,-9,-1,-1,-6
10,-3,-13,-2,12,-8,-4,-1,-9,-1,0,-5
10,-3,-13,-3,12,-8,-5,-2,-9,-1,0,-5
11,-3,-14,-3,13,-8,-5,-3,-9,-1,0,-5
13,-2,-16,-4,15,-9,-6,-3,-10,-1,0,-5
14,-2,-17,-6,16,-9,-7,-4,-10,-1,0,-5
15,-2,-17,-6,16,-9,-7,-4,-10,-1,0,-4
15,-2,-17,-6,16,-9,-8,-4,-10,-1,0,-4
15,-2,-16,-6,15,-9,-8,-4,-10,-1,0,-3
14,-2,-16,-6,15,-9,-9,-4,-10,-1,1,-3
15,-1,-16,-6,16,-9,-9,-4,-11,-1,1,-2
16,-1,-17,-7,16,-9,-9,-5,-11,-1,2,-2
17,0,-16,-7,16,-8,-9,-6,-11,-1,2,-1
17,1,-16,-8,17,-7,-10,-6,-11,0,3,0
18,2,-16,-8,17,-6,-11,-7,-11,0,3,0
18,2,-16,-9,17,-6,-12,-7,-11,0,3,1
17,2,-15,-9,17,-6,-12,-8,-11,0,3,1
18,2,-15,-10,17,-6,-13,-8,-11,0,3,1
19,3,-16,-11,18,-6,-13,-9,-11,-1,2,1
20,3,-16,-12,18,-6,-14,-9,-11,-1,2,2
21,4,-17,-12,18,-6,-14,-10,-12,-2,2,2
21,4,-17,-12,18,-5,-15,-10,-12,-2,2,2
21,4,-16,-12,18,-5,-15,-11,-12,-2,2,2
20,4,-16,-12,17,-5,-16,-11,-12,-2,2,2
21,5,-15,-13,18,-5,-16,-12,-12,-3,2,2
22,6,-15,-14,18,-4,-17,-12,-12,-3,2,3
22,7,-13,-14,18,-3,-17,-12,-11,-3,2,3
20,8,-12,-14,16,-2,-17,-12,-11,-3,2,4
19,8,-11,-13,15,-2,-17,-13,-11,-3,1,4
19,8,-11,-13,15,-2,-17,-13,-12,-4,1,4
20,8,-11,-13,15,-2,-17,-13,-12,-4,0,4
20,8,-11,-13,15,-1,-17,-13,-12,-5,0,4
20,8,-11,-14,16,-1,-17,-14,-12,-5,0,3
21,8,-12,-14,16,-2,-17,-14,-12,-6,-1,2
21,8,-12,-14,17,-2,-17,-15,-13,-7,-3,1
20,8,-12,-13,16,-2,-17,-15,-13,-8,-4,1
18,7,-10,-12,14,-2,-17,-15,-13,-9,-5,1
16,7,-9,-11,12,-1,-16,-15,-12,-9,-5,0
15,7,-8,-11,11,-1,-16,-14,-12,-9,-6,0
14,6,-7,-10,10,0,-15,-13,-11,-10,-6,0
12,5,-7,-8,9,0,-14,-12,-11,-10,-7,0
10,3,-6,-6,8,-1,-14,-12,-11,-11,-9,-1
9,2,-6,-5,7,-1,-13,-11,-11,-12,-10,-2
10,3,-6,-6,7,-1,-11,-10,-10,-12,-11,-3
9,4,-5,-6,7,-1,-10,-10,-9,-12,-11,-3
8,3,-4,-5,6,-1,-9,-9,-9,-13,-12,-4
7,3,-4,-5,6,-1,-9,-9,-9,-14,-13,-5
7,2,-5,-4,6,-1,-8,-8,-9,-14,-14,-6
6,1,-5,-3,6,-1,-7,-7,-9,-15,-14,-7
5,0,-4,-2,5,-1,-6,-6,-8,-15,-15,-8
3,0,-4,-1,4,-2,-5,-5,-7,-15,-16,-9
2,-2,-4,0,3,-3,-4,-4,-7,-15,-17,-10
1,-3,-4,1,3,-4,-3,-3,-7,-16,-18,-11
1,-4,-4,1,2,-4,-3,-2,-7,-16,-19,-11
0,-4,-3,2,2,-4,-2,-1,-6,-16,-19,-11
-1,-4,-3,3,1,-4,-1,-1,-6,-15,-19,-12
-1,-5,-3,4,0,-4,0,0,-6,-15,-19,-12
-2,-5,-3,4,0,-4,0,0,-6,-15,-19,-13
-2,-6,-4,5,0,-5,0,0,-6,-15,-19,-13
-2,-6,-4,5,1,-5,1,0,-6,-15,-20,-14
-2,-7,-5,5,1,-6,1,0,-6,-15,-20,-14
-3,-7,-4,6,0,-6,1,0,-6,-15,-20,-14
-4,-8,-4,7,0,-6,1,0,-6,-15,-20,-14
-5,-9,-4,8,0,-6,1,0,-6,-15,-20,-14
-5,-10,-4,8,0,-7,1,0,-5,-15,-19,-14
-5,-10,-5,8,0,-7,2,0,-5,-14,-19,-14
-5,-10,-4,8,0,-7,2,0,-4,-13,-18,-14
-5,-10,-4,8,0,-7,2,0,-4,-13,-18,-14
-5,-10,-4,8,-1,-8,2,1,-4,-12,-18,-14
-6,-11,-4,9,-1,-8,2,1,-4,-12,-18,-14
-6,-11,-5,9,-1,-8,2,1,-4,-12,-17,-14
-5,-11,-5,9,0,-8,2,1,-3,-11,-17,-14
-5,-11,-6,9,0,-9,2,1,-3,-11,-16,-14
-5,-11,-6,9,0,-9,2,1,-3,-11,-16,-14
-6,-12,-5,9,0,-9,2,1,-3,-10,-14,-13
-7,-12,-4,10,-1,-8,2,2,-2,-9,-13,-13
-7,-12,-4,10,-2,-8,3,2,-1,-8,-12,-12
-7,-11,-4,9,-1,-8,3,2,-1,-7,-11,-12
-7,-11,-4,10,-1,-8,3,2,0,-6,-11,-11
-8,-12,-4,11,-1,-8,3,2,0,-6,-10,-11
-8,-13,-4,11,-2,-8,3,2,0,-5,-10,-10
-8,-13,-4,11,-2,-8,3,2,0,-5,-9,-10
-8,-13,-4,10,-2,-9,3,2,0,-4,-9,-10
-7,-13,-5,10,-1,-9,3,2,0,-4,-8,-10
-7,-13,-5,10,-1,-10,2,2,0,-3,-8,-10
-7,-13,-6,10,0,-10,2,1,0,-3,-7,-10
-7,-13,-5,11,-1,-10,2,1,1,-2,-6,-10
-8,-12,-4,11,-2,-9,3,2,2,-1,-5,-9
-7,-11,-4,10,-1,-8,3,2,3,0,-4,-8
-6,-11,-5,9,0,-8,2,2,3,0,-4,-8
-6,-11,-6,9,0,-9,2,2,3,0,-4,-8
-6,-11,-5,9,-1,-9,2,3,3,0,-3,-8
-6,-11,-5,9,-1,-9,2,3,4,1,-3,-8
-7,-11,-4,10,-1,-8,2,3,4,1,-2,-7
-7,-11,-4,10,-1,-8,2,3,4,1,-2,-7
-6,-11,-4,9,0,-8,2,3,4,1,-2,-7
-6,-11,-5,9,0,-8,2,2,4,1,-2,-7
-7,-12,-5,10,0,-8,2,2,4,1,-2,-7
-7,-12,-5,10,-1,-8,2,2,5,2,-2,-7
-7,-12,-4,10,-1,-8,2,2,5,2,-1,-7
-7,-12,-4,10,-1,-9,2,2,4,2,-1,-7
-7,-12,-4,10,-1,-9,2,2,4,2,-1,-7
-7,-12,-4,10,-1,-9,2,2,4,2,-1,-7
-6,-11,-5,9,0,-9,2,2,4,2,-1,-7
-6,-12,-5,9,0,-9,2,2,4,2,-1,-7
-6,-12,-5,9,0,-9,2,2,4,2,-1,-7
-6,-12,-5,9,0,-9,2,2,5,2,-1,-7
-6,-11,-5,9,0,-9,2,2,5,2,-1,-7
-6,-11,-5,9,0,-9,1,2,4,2,-1,-7
-6,-11,-5,9,0,-9,1,1,4,1,-1,-7
-7,-12,-5,9,0,-9,0,1,4,1,-1,-7
-7,-12,-5,9,0,-9,0,0,4,1,-1,-7
-7,-12,-5,9,0,-8,1,1,5,1,-1,-7
-7,-11,-4,9,-1,-8,1,2,5,2,-1,-6
-8,-12,-3,10,-2,-8,1,2,5,2,-1,-6
-8,-13,-4,10,-1,-9,1,2,5,1,-1,-7
-7,-13,-6,10,0,-10,0,1,4,1,-2,-7
-6,-12,-6,9,0,-10,1,1,4,1,-2,-8
-7,-12,-5,9,-1,-9,1,2,4,1,-2,-8
-7,-12,-5,10,-1,-8,1,2,4,1,-2,-8
-8,-12,-5,10,-1,-8,1,2,4,0,-2,-8
-8,-12,-4,10,-1,-8,1,2,4,0,-2,-8
-8,-12,-4,10,-1,-8,1,2,4,1,-2,-8
-8,-12,-4,10,-1,-8,1,2,4,1,-2,-8
-9,-12,-4,11,-2,-9,1,2,4,0,-3,-8
-9,-13,-4,11,-2,-9,1,2,4,0,-3,-8
-9,-13,-5,11,-2,-9,1,2,4,0,-3,-8
-9,-13,-5,11,-2,-9,1,2,5,0,-3,-8
-10,-13,-4,11,-3,-9,1,1,5,0,-3,-8
-9,-13,-5,11,-2,-9,1,1,5,0,-3,-8
-8,-13,-5,11,-1,-9,1,1,4,0,-4,-8
-8,-13,-5,11,-1,-10,1,1,4,0,-4,-9
-8,-13,-5,11,-1,-10,1,1,4,0,-4,-9
-8,-13,-5,12,-1,-9,1,1,4,0,-4,-9
-9,-13,-4,12,-2,-9,1,1,4,0,-4,-9
-9,-13,-5,12,-2,-9,1,1,4,0,-4,-9
-8,-12,-5,11,-1,-9,1,1,5,0,-4,-9
-7,-12,-5,10,-1,-9,1,1,5,0,-4,-9
-8,-13,-5,11,-1,-9,1,1,5,0,-4,-9
-8,-13,-5,11,0,-10,1,1,4,0,-4,-9
-8,-13,-6,11,0,-10,1,1,4,0,-4,-9
-9,-13,-5,12,-1,-10,1,1,5,0,-3,-8
-10,-13,-4,12,-2,-9,2,1,5,0,-3,-8
-10,-13,-4,12,-2,-9,2,1,5,0,-2,-8
-9,-13,-4,11,-2,-9,1,0,5,0,-2,-8
-9,-14,-5,11,-1,-10,1,0,5,0,-3,-8
-9,-14,-6,12,-1,-10,1,0,5,0,-3,-8
-9,-14,-6,12,-1,-11,1,0,5,0,-3,-8
-9,-14,-6,12,-1,-11,1,0,5,0,-3,-8
-9,-14,-6,11,-1,-10,1,1,5,0,-2,-8
-9,-13,-5,11,-1,-10,2,1,5,0,-2,-8
-8,-13,-6,10,-1,-10,2,1,5,0,-2,-8
-6,-12,-6,9,0,-10,2,1,5,0,-2,-8
-6,-12,-6,9,0,-9,2,2,5,0,-2,-8
-6,-12,-6,9,0,-9,2,2,5,0,-1,-7
-6,-12,-6,9,0,-9,2,2,5,0,-1,-7
-7,-11,-5,9,-1,-9,2,2,5,1,-1,-7
-9,-11,-3,10,-2,-8,2,2,6,1,0,-6
-9,-11,-3,10,-3,-8,2,2,6,1,0,-6
-9,-11,-2,10,-3,-7,1,1,6,1,0,-6
-9,-11,-1,10,-4,-6,1,1,6,2,0,-5
-9,-9,0,9,-4,-5,1,0,7,2,1,-5
-8,-8,0,8,-4,-5,1,0,7,2,1,-4
-7,-8,-1,8,-3,-5,1,0,7,2,1,-4
-6,-8,-2,7,-2,-5,1,1,7,2,1,-5
-5,-8,-2,7,-1,-5,1,1,7,1,1,-5
-5,-7,-2,6,-1,-5,1,1,7,1,1,-5
-6,-7,0,6,-2,-4,2,2,8,2,2,-4
-7,-7,0,7,-4,-4,2,2,8,2,2,-4
-8,-8,1,8,-5,-4,1,1,7,2,2,-4
-8,-7,1,8,-5,-3,0,0,7,2,2,-4
-6,-6,0,6,-3,-3,-1,0,7,2,2,-4
-4,-4,-1,4,-1,-3,-2,-1,7,2,2,-4
-3,-4,-1,3,0,-3,-2,-2,7,2,2,-4
-3,-4,-1,3,0,-3,-2,-2,7,2,2,-4
-3,-3,-1,3,0,-3,-2,-2,7,3,3,-3
-3,-3,0,2,-1,-2,-2,-2,8,3,3,-3
-3,-3,0,3,-1,-2,-2,-2,8,3,3,-3
-4,-4,-1,4,-2,-3,-2,-2,7,3,3,-3
-4,-4,-1,5,-2,-3,-1,-2,7,3,3,-3
-4,-4,0,5,-2,-3,-1,-1,8,3,3,-3
-3,-4,-1,4,-1,-3,-1,-2,7,2,2,-4
-2,-4,-3,4,0,-4,-2,-2,6,1,1,-5
-2,-5,-4,4,1,-5,-2,-3,5,0,0,-6
-2,-6,-4,5,1,-6,-2,-4,4,-1,0,-7
-2,-7,-6,5,2,-7,-2,-4,3,-2,-1,-7
-2,-8,-7,5,2,-8,-2,-4,3,-2,-1,-8
-3,-9,-7,6,2,-8,-1,-3,3,-2,-1,-8
-6,-10,-5,8,0,-8,0,-2,3,-2,-1,-8
-8,-11,-4,10,-2,-8,1,-2,3,-2,-2,-8
-8,-11,-3,10,-3,-8,2,-1,3,-2,-2,-8
-7,-11,-4,9,-2,-8,3,-1,3,-3,-2,-8
-7,-11,-4,9,-2,-8,3,-1,3,-3,-2,-9
-8,-11,-3,9,-2,-8,3,-1,3,-3,-2,-9
-8,-11,-3,9,-2,-7,3,-1,4,-3,-2,-9
-7,-11,-3,9,-1,-7,3,-1,4,-4,-2,-9
-7,-12,-4,10,-1,-8,3,-1,4,-4,-3,-9
-8,-13,-4,10,-1,-8,3,-2,3,-5,-3,-10
-7,-13,-6,10,0,-9,2,-2,3,-6,-4,-10
-6,-13,-7,10,0,-10,2,-2,3,-7,-5,-11
-6,-13,-7,10,0,-10,2,-2,3,-7,-5,-11
-7,-14,-6,11,0,-10,2,-2,3,-7,-5,-11
-9,-14,-5,11,-1,-10,2,-1,3,-7,-5,-12
-9,-14,-4,11,-2,-9,2,-1,3,-7,-5,-12
-8,-13,-4,11,-2,-9,2,-1,3,-7,-5,-12
-7,-12,-4,10,-2,-8,2,0,3,-7,-4,-12
-6,-11,-4,9,-1,-8,3,0,3,-7,-4,-11
-5,-11,-5,8,-1,-8,2,0,3,-7,-4,-11
-5,-11,-5,8,0,-8,2,0,3,-7,-4,-11
-6,-11,-5,8,0,-8,2,-1,3,-7,-4,-11
-6,-11,-5,8,0,-8,2,-1,3,-7,-5,-12
-6,-11,-5,8,0,-8,1,-2,3,-7,-5,-12
-7,-11,-4,9,-1,-8,2,-1,3,-7,-4,-11
-8,-11,-3,10,-2,-7,2,-1,4,-7,-4,-11
-8,-11,-3,9,-2,-7,2,-1,4,-7,-4,-11
-7,-10,-3,9,-2,-7,2,-1,4,-7,-4,-11
-7,-10,-3,9,-2,-7,2,-1,4,-7,-4,-11
-8,-11,-3,10,-2,-7,2,-1,4,-7,-4,-11
-7,-11,-4,9,-1,-7,2,-1,4,-7,-4,-11
-6,-10,-4,8,0,-7,2,-1,4,-7,-4,-11
-5,-10,-5,7,0,-7,2,-1,4,-7,-4,-11
-5,-10,-5,7,0,-7,2,-1,4,-7,-4,-11
-4,-10,-5,7,0,-8,2,-1,4,-7,-4,-11
-4,-11,-6,8,0,-9,2,0,4,-7,-4,-11
-5,-11,-6,8,0,-9,3,1,4,-7,-3,-11
-6,-12,-6,9,0,-9,5,4,4,-7,-3,-11
-6,-13,-7,10,0,-9,8,8,4,-7,-4,-12
-7,-14,-8,11,1,-11,12,15,5,-7,-5,-13
-7,-16,-9,12,1,-12,17,22,6,-7,-5,-15
-6,-17,-11,12,2,-14,22,31,7,-7,-5,-16
-5,-18,-14,12,4,-16,27,40,9,-6,-5,-17
-3,-20,-17,12,7,-19,33,52,10,-6,-5,-17
-1,-21,-21,11,10,-21,41,65,12,-5,-5,-18
1,-20,-22,10,12,-21,49,78,16,-3,-4,-17
2,-19,-22,8,12,-20,57,91,20,1,-2,-15
4,-15,-20,5,12,-17,63,100,25,7,2,-12
8,-8,-16,0,12,-12,63,100,30,14,9,-5
14,4,-11,-9,12,-3,54,87,34,23,19,5
22,20,-3,-21,12,8,39,65,38,33,33,20
29,38,8,-34,10,23,18,35,42,44,48,37
34,58,23,-46,5,41,-6,-2,45,55,63,55
36,78,41,-57,-1,60,-32,-41,47,64,77,72
37,96,59,-67,-10,78,-56,-76,50,72,91,88
37,113,76,-75,-18,95,-77,-105,52,79,102,101
37,127,90,-82,-26,109,-93,-126,55,85,112,112
35,133,98,-84,-32,116,-102,-136,55,87,116,116
28,130,101,-79,-36,115,-104,-136,52,82,110,111
18,119,101,-68,-41,109,-99,-130,46,68,93,96
6,104,97,-55,-45,100,-89,-117,38,50,72,76
-1,88,89,-43,-45,88,-78,-101,30,34,51,57
-6,74,79,-34,-42,76,-68,-85,22,21,35,42
-8,60,67,-26,-37,63,-59,-69,15,10,23,29
-9,46,54,-18,-31,50,-50,-55,8,1,12,17
-12,31,42,-10,-27,37,-41,-42,2,-6,3,6
-14,17,31,-1,-23,24,-32,-31,-2,-12,-4,-3
-15,6,21,5,-19,13,-24,-23,-6,-17,-10,-10
-17,-2,15,9,-16,6,-17,-18,-8,-20,-13,-14
-16,-6,10,11,-13,2,-11,-13,-8,-21,-15,-17
-15,-7,7,11,-10,0,-6,-7,-8,-22,-16,-18
-14,-9,4,11,-8,-2,-3,-2,-7,-22,-16,-18
-12,-10,1,11,-6,-4,0,0,-6,-21,-15,-18
-9,-10,-1,9,-4,-5,2,2,-4,-18,-13,-17
-8,-9,-2,8,-3,-5,4,4,-1,-15,-11,-15
-7,-9,-2,8,-2,-5,5,5,1,-13,-8,-14
-6,-8,-3,8,-2,-5,5,4,3,-11,-6,-12
-5,-8,-3,7,0,-5,4,3,4,-9,-5,-11
-4,-8,-4,6,0,-5,4,3,5,-8,-5,-11
-3,-7,-4,5,1,-5,4,2,5,-8,-4,-11
-3,-7,-4,5,1,-5,4,2,6,-7,-4,-11
-3,-7,-5,5,1,-6,4,1,6,-7,-3,-11
-2,-7,-5,4,1,-6,4,1,6,-7,-3,-11
-2,-7,-5,4,1,-6,4,1,7,-6,-3,-10
-1,-6,-5,4,2,-6,4,1,8,-5,-2,-9
-1,-6,-5,4,2,-6,4,1,8,-4,-1,-9
-1,-7,-5,4,2,-6,4,1,8,-4,0,-9
-1,-7,-5,4,2,-6,4,1,8,-4,0,-9
-1,-7,-6,4,3,-6,4,2,8,-4,0,-9
0,-6,-6,3,3,-6,4,2,8,-3,0,-9
0,-6,-6,3,3,-6,3,2,9,-3,0,-9
0,-6,-6,3,3,-6,3,2,9,-2,0,-9
0,-5,-6,2,3,-5,2,1,9,-2,1,-9
0,-5,-6,2,3,-5,2,0,9,-1,1,-8
1,-4,-6,2,3,-4,2,0,10,-1,2,-8
1,-4,-6,2,3,-4,2,0,10,0,2,-7
0,-5,-5,2,2,-4,2,0,10,0,3,-7
0,-4,-4,2,2,-4,2,0,11,0,4,-6
0,-3,-3,1,2,-3,2,0,11,1,5,-5
1,-2,-3,0,2,-3,2,0,12,1,5,-5
1,-3,-4,1,3,-4,1,-1,11,1,5,-5
1,-3,-5,1,3,-4,1,-1,11,1,6,-5
1,-3,-5,1,3,-4,1,-1,11,1,6,-5
3,-2,-6,0,4,-4,1,-1,11,1,6,-5
4,-2,-6,0,5,-4,0,-1,10,0,6,-5
2,-3,-5,0,4,-4,0,-1,10,1,7,-5
1,-3,-4,1,2,-3,0,-1,10,1,7,-4
1,-2,-4,0,2,-3,0,-1,10,1,8,-4
2,-1,-4,-1,3,-3,0,-1,11,2,8,-3
2,-1,-3,-1,3,-2,0,-1,11,2,9,-2
2,-1,-3,-1,3,-2,0,0,11,2,9,-2
2,-1,-4,0,3,-2,0,0,11,2,9,-2
2,-1,-4,0,3,-2,1,0,11,2,9,-1
2,-1,-3,0,2,-1,1,0,11,2,10,-1
2,-1,-3,0,2,-1,1,0,11,2,10,-1
2,-1,-3,-1,2,-1,0,0,11,2,10,-1
3,0,-3,-1,3,-2,0,-1,11,2,10,-1
3,0,-3,-1,3,-2,0,-1,11,2,10,-1
3,0,-3,-1,3,-2,0,-1,11,2,11,-1
2,0,-3,-1,2,-2,0,-1,11,2,11,0
3,0,-4,-1,3,-2,0,-1,11,2,11,0
5,0,-5,-2,4,-2,0,-2,11,2,11,-1
6,0,-7,-3,5,-3,0,-2,11,1,10,-1
5,-1,-7,-2,6,-3,0,-2,11,1,10,-2
4,-1,-7,-2,5,-4,0,-1,11,1,10,-2
4,-1,-7,-1,5,-4,0,-1,11,1,10,-2
4,-1,-6,-1,5,-3,0,-1,11,1,10,-2
4,-1,-6,-1,5,-3,0,-1,11,1,10,-2
4,-2,-7,-1,6,-4,0,-1,11,1,10,-2
5,-2,-8,-2,7,-4,0,-1,11,0,9,-2
5,-2,-8,-2,7,-5,-1,-2,11,0,9,-2
6,-2,-9,-2,8,-5,-1,-2,11,0,9,-2
7,-1,-9,-3,8,-5,-1,-2,11,0,9,-2
7,0,-8,-4,8,-4,-1,-2,11,0,9,-2
7,0,-8,-3,7,-4,-1,-2,11,0,9,-2
8,0,-9,-4,8,-5,-2,-2,11,0,8,-2
9,0,-10,-4,9,-5,-2,-2,11,0,8,-2
9,0,-9,-4,9,-4,-1,-1,12,0,8,-2
9,0,-9,-4,9,-4,-1,-1,12,0,8,-2
9,0,-9,-4,9,-4,-1,-1,12,0,8,-2
9,0,-9,-5,9,-4,-1,-1,12,0,8,-1
10,1,-9,-5,9,-4,-1,-1,12,-1,8,-1
10,1,-9,-5,10,-4,-2,-2,11,-1,7,-1
10,1,-9,-6,10,-3,-2,-2,11,-2,7,0
10,2,-9,-6,9,-2,-2,-2,11,-2,7,0
11,3,-8,-7,9,-1,-3,-2,12,-2,7,0
12,4,-8,-8,10,-1,-3,-2,12,-2,7,1
13,5,-9,-8,10,-1,-4,-2,11,-2,7,1
14,5,-10,-9,12,-2,-5,-3,11,-3,6,0
15,5,-11,-10,13,-2,-6,-3,10,-4,6,0
16,5,-11,-10,13,-2,-6,-4,10,-5,6,0
17,6,-11,-11,14,-2,-7,-5,10,-5,5,0
18,7,-11,-12,14,-2,-8,-6,10,-6,5,1
17,7,-11,-12,14,-1,-8,-6,10,-6,5,1
17,8,-10,-13,14,0,-9,-6,10,-6,5,2
18,9,-9,-14,14,0,-9,-7,10,-6,5,3
19,10,-10,-15,15,0,-9,-8,9,-7,5,3
20,11,-10,-15,15,0,-10,-8,9,-7,5,4
21,12,-9,-16,15,1,-11,-9,9,-7,5,4
21,12,-9,-16,15,2,-11,-9,9,-7,5,4
21,13,-9,-17,15,2,-12,-9,8,-7,5,4
23,13,-9,-18,16,2,-12,-10,8,-8,4,4
24,14,-10,-19,17,2,-13,-11,7,-8,4,4
24,14,-10,-19,18,2,-14,-12,7,-9,3,5
23,14,-9,-19,17,3,-14,-12,6,-9,3,5
22,15,-7,-18,15,4,-15,-12,7,-9,3,6
22,16,-6,-19,14,5,-15,-12,7,-9,3,6
22,17,-6,-19,14,6,-15,-13,7,-10,3,6
22,18,-5,-20,13,7,-15,-13,7,-10,3,7
22,19,-4,-20,13,8,-15,-13,7,-10,3,7
22,19,-4,-21,13,8,-16,-14,7,-10,3,8
23,19,-4,-21,13,8,-17,-15,6,-11,2,8
23,19,-4,-21,13,8,-17,-16,6,-12,1,8
24,20,-5,-22,14,8,-18,-16,5,-13,0,8
24,20,-4,-22,14,8,-18,-17,5,-13,0,7
23,20,-3,-22,12,9,-18,-17,5,-14,0,7
22,21,-2,-21,12,9,-18,-18,5,-14,-1,6
22,21,-2,-21,12,9,-18,-18,5,-15,-1,6
21,21,-1,-21,11,10,-18,-18,5,-15,-2,6
19,21,1,-19,9,11,-17,-17,6,-15,-2,6
18,21,1,-19,8,11,-16,-17,6,-16,-3,6
20,21,0,-20,9,11,-16,-17,5,-17,-4,5
19,20,0,-20,9,11,-15,-16,5,-18,-5,4
18,20,1,-19,7,11,-15,-16,5,-18,-6,4
17,19,1,-18,6,11,-14,-15,5,-18,-6,3
16,18,1,-17,6,10,-14,-14,5,-19,-7,3
15,18,2,-17,6,10,-13,-13,6,-19,-7,2
14,17,2,-16,6,10,-12,-13,6,-19,-8,2
13,17,2,-15,5,10,-11,-12,6,-19,-10,1
12,16,3,-14,4,10,-9,-11,6,-19,-12,1
10,15,4,-12,3,10,-8,-10,6,-20,-13,0
9,14,4,-11,2,9,-7,-9,7,-20,-15,-1
7,13,5,-10,1,9,-6,-8,7,-21,-16,-1
7,12,5,-9,0,9,-6,-7,7,-21,-17,-2
7,12,4,-9,0,8,-5,-7,7,-21,-18,-2
8,12,4,-10,1,8,-4,-6,8,-21,-19,-3
8,12,3,-10,1,8,-3,-5,8,-21,-19,-3
7,11,4,-9,1,8,-2,-4,8,-21,-20,-3
5,10,4,-7,0,8,-1,-3,9,-21,-20,-4
4,9,4,-6,0,7,0,-3,9,-21,-20,-4
3,8,5,-5,-1,7,0,-2,9,-20,-20,-4
1,8,6,-4,-3,7,1,-1,10,-19,-20,-4
1,7,6,-3,-3,7,1,0,10,-19,-20,-4
0,5,5,-2,-3,6,1,0,9,-19,-21,-5
0,4,4,-1,-3,5,2,0,9,-19,-21,-5
0,4,4,-1,-3,5,2,0,9,-19,-20,-5
0,4,4,-1,-2,5,3,0,10,-18,-20,-5
0,4,3,-1,-2,4,3,0,10,-18,-19,-5
-1,4,4,-1,-3,4,3,0,10,-17,-19,-4
-1,4,4,-1,-3,4,4,1,11,-16,-18,-4
-1,4,4,-1,-3,4,4,1,11,-15,-18,-4
-2,3,4,0,-3,4,4,1,11,-15,-17,-4
-3,3,5,0,-4,4,4,1,11,-14,-17,-4
-3,2,5,1,-4,4,4,1,11,-14,-16,-4
-3,2,4,1,-4,4,4,1,11,-13,-15,-4
-3,2,4,1,-3,4,4,1,11,-13,-14,-3
-2,1,3,1,-3,3,4,1,11,-12,-14,-3
-2,1,2,1,-2,2,3,0,11,-11,-13,-3
-2,1,2,1,-2,2,3,0,12,-10,-12,-3
-2,1,2,1,-2,2,3,0,12,-9,-11,-2
-3,0,2,2,-3,2,3,0,13,-8,-10,-2
-3,0,2,2,-3,2,3,0,13,-7,-9,-1
-3,1,3,1,-3,2,4,1,14,-6,-7,-1
-3,2,3,1,-3,3,4,1,14,-5,-6,0
-3,2,4,1,-3,3,4,2,15,-4,-5,0
-2,1,3,1,-2,3,4,2,15,-3,-4,0
-2,1,2,1,-2,2,4,2,15,-2,-4,0
-2,0,3,1,-2,2,4,2,16,-1,-3,0
-2,0,3,1,-3,2,4,3,16,0,-1,1
-2,0,3,1,-3,2,4,3,17,1,0,1
-3,0,4,2,-4,2,4,3,17,2,1,2
-5,0,4,3,-5,2,4,3,17,3,2,2
-5,0,4,3,-4,2,3,2,18,4,3,3
-4,0,3,2,-3,2,3,2,18,5,4,3
-3,1,3,1,-3,3,3,2,19,6,5,4
-2,1,4,1,-3,3,3,2,20,7,7,5
-2,1,4,1,-3,3,3,2,21,8,8,5
-2,1,3,1,-3,3,3,2,20,8,9,5
-1,1,3,1,-2,2,3,2,20,9,10,5
-1,1,3,1,-2,2,3,2,21,9,11,6
-1,2,3,0,-2,3,4,2,21,10,12,6
-1,2,3,0,-2,3,4,2,22,10,13,6
-1,2,3,0,-2,3,4,2,22,11,13,6
-1,2,3,0,-1,3,3,2,22,11,13,6
-1,1,3,0,-1,3,3,2,22,11,13,6
-1,1,2,0,-1,2,3,2,22,11,14,6
-1,0,1,0,0,1,3,2,22,12,14,6
-2,0,2,1,-1,1,3,2,22,12,15,6
-3,0,3,2,-3,2,3,2,22,13,15,7
-4,0,4,2,-4,3,4,2,23,13,16,7
-3,1,4,1,-4,3,4,2,24,14,16,8
-3,2,4,0,-3,3,4,2,24,14,16,8
-2,2,4,0,-3,3,3,2,24,14,16,8
-2,2,4,0,-3,3,3,2,24,14,16,8
-2,1,4,1,-4,3,3,2,24,14,16,8
-3,1,4,1,-4,3,3,2,24,13,16,8
-2,1,4,1,-4,3,3,2,24,13,16,8
-1,2,4,0,-3,3,3,2,24,13,16,8
-1,2,4,0,-3,3,3,2,24,13,16,7
-2,1,4,1,-4,3,3,2,24,13,15,7
-3,1,4,1,-4,3,3,2,24,13,15,6
-2,1,3,1,-3,3,4,2,24,13,15,6
-2,1,3,1,-3,3,4,3,24,13,15,6
-2,0,2,1,-2,2,4,3,24,12,15,6
-2,0,2,1,-2,2,4,3,24,12,14,5
-2,0,2,1,-2,2,4,3,24,12,14,5
-2,0,2,1,-2,2,4,2,24,12,14,5
-3,0,2,2,-2,2,3,2,24,11,13,5
-3,0,2,2,-2,1,3,1,24,11,13,5
-3,0,2,1,-2,1,2,1,24,10,13,5
-2,1,2,1,-2,2,3,1,24,11,13,6
-3,1,4,1,-4,3,3,1,25,11,14,6
-4,1,5,1,-4,3,2,1,24,11,14,6
-4,0,5,2,-4,3,2,0,24,11,13,5
-4,0,5,2,-4,3,2,0,23,11,13,5
-4,0,4,2,-4,3,2,1,23,11,12,5
-3,0,4,1,-3,3,2,1,23,10,12,5
-1,1,3,0,-2,3,2,0,23,10,12,5
0,1,2,0,-1,2,2,0,23,10,12,4
0,1,2,0,-1,2,2,0,23,10,12,4
-1,1,4,0,-2,3,2,0,23,10,12,4
-3,1,4,0,-3,3,2,0,23,10,12,4
-3,1,4,1,-3,3,1,0,23,9,12,4
-2,0,3,1,-2,2,1,0,22,9,11,3
-2,0,2,1,-2,2,1,0,22,8,11,3
-2,0,3,1,-2,2,1,0,23,8,11,3
-4,0,4,2,-4,3,2,0,23,9,12,4
-5,0,5,2,-5,3,2,0,24,9,13,4
-5,0,5,2,-5,3,2,0,24,9,13,4
-4,0,5,2,-5,3,2,0,23,9,13,4
-4,0,4,2,-4,2,2,-1,23,9,13,4
-3,0,3,2,-4,2,2,-1,23,9,14,4
-3,0,3,2,-4,2,2,-1,23,9,14,5
-3,0,3,2,-4,3,2,-1,23,9,15,5
-3,0,4,1,-4,3,2,-1,23,9,16,5
-4,0,4,1,-5,3,2,-1,23,9,17,5
-4,0,5,1,-5,3,2,-1,23,9,17,5
-3,0,4,1,-4,2,2,-1,22,9,17,5
-2,0,3,0,-3,2,2,-1,22,9,17,5
-1,0,2,0,-2,1,2,0,22,9,17,5
-1,0,2,0,-2,2,2,0,22,9,18,5
-1,1,2,0,-2,2,3,0,22,10,18,5
-1,1,2,0,-3,2,3,0,22,10,18,5
-2,1,2,0,-3,2,2,0,22,10,18,5
-1,2,3,0,-2,3,2,0,22,11,19,6
0,3,4,-2,-2,4,3,0,23,12,20,7
0,4,4,-3,-2,4,3,0,23,12,20,7
1,5,4,-3,-2,5,2,0,23,13,20,8
0,5,5,-3,-3,5,2,0,23,13,21,8
-1,5,7,-2,-4,6,3,1,24,13,21,9
-2,6,8,-2,-5,7,3,1,24,13,22,9
-1,6,7,-2,-4,7,3,1,23,13,22,9
0,6,7,-3,-3,7,3,1,23,13,22,9
0,6,7,-3,-3,7,3,1,23,14,22,9
0,6,7,-3,-4,7,3,1,23,14,22,9
0,7,7,-4,-3,8,2,1,24,14,22,9
1,9,7,-5,-3,8,1,0,24,14,23,10
1,9,7,-5,-3,8,0,-1,24,14,23,10
1,9,7,-5,-3,8,-1,-2,23,14,23,10
1,9,7,-5,-2,8,-2,-2,23,14,23,10
2,9,6,-6,-2,8,-2,-2,23,15,23,10
2,9,7,-6,-2,8,-1,-2,23,15,24,10
3,10,7,-6,-1,8,-1,-1,23,15,24,10
4,10,6,-7,-1,8,0,-1,23,15,24,11
4,10,6,-7,-1,7,0,0,23,15,23,11
4,8,5,-6,-1,6,0,-1,22,14,23,10
3,7,4,-5,-1,5,0,-1,22,14,22,10
2,7,4,-4,-1,5,0,-1,21,14,21,10
3,8,5,-5,0,6,0,-1,22,14,21,10
4,9,4,-6,0,6,0,-1,21,14,21,10
4,8,3,-6,0,5,0,-2,20,13,19,9
3,6,2,-5,0,4,0,-2,20,12,19,8
3,5,2,-5,0,4,1,-2,19,12,18,8
2,4,2,-4,0,3,1,-1,19,11,18,8
1,4,3,-3,0,3,2,0,19,11,18,8
0,3,3,-2,-1,3,3,0,18,11,17,7
0,2,2,0,-1,2,3,0,17,10,15,6
0,1,1,0,0,2,3,0,17,9,14,5
0,1,1,0,0,2,3,0,16,8,14,5
1,1,1,-1,0,1,4,0,16,8,13,5
1,1,1,0,0,1,4,0,16,7,13,4
0,1,1,0,-1,1,4,0,16,7,13,4
-1,1,2,0,-2,2,4,1,16,7,13,5
-1,1,3,0,-2,2,4,1,16,7,13,5
-1,0,2,0,-1,1,4,0,15,7,12,4
-1,0,1,0,-1,1,4,0,15,6,11,4
-1,0,1,1,-1,1,4,1,15,6,11,4
-1,0,1,1,-2,1,4,1,15,6,11,4
-2,0,2,1,-2,1,4,1,15,6,11,4
-1,0,1,1,-1,1,4,1,14,5,10,3
0,0,0,0,0,0,4,0,14,5,10,3
0,-1,0,0,0,0,3,0,13,4,9,2
-1,-1,0,1,0,0,3,0,13,4,9,2
-1,-1,0,1,0,0,3,0,13,4,8,2
-1,0,0,1,0,0,3,0,13,4,8,2
0,0,0,0,0,0,3,0,13,4,8,2
-1,-1,0,1,-1,0,3,0,13,4,8,2
-1,-1,0,1,-2,0,4,0,13,3,8,2
-2,-1,0,1,-2,0,4,0,13,3,7,2
-1,-1,0,1,-1,0,4,1,13,3,7,2
-1,-1,0,1,0,0,4,1,13,3,7,2
-1,-1,0,1,0,-1,4,1,12,3,7,2
-1,-2,-1,1,0,-1,4,1,12,3,6,1
-1,-2,-1,1,0,-1,4,0,12,3,6,1
0,-1,-1,1,0,-1,4,0,12,3,6,2
0,-1,-1,0,0,-1,4,0,12,2,6,2
0,-1,-2,0,0,-1,4,0,12,2,6,1
1,-1,-2,0,1,-1,4,0,12,2,6,1
0,-1,-1,1,0,-1,4,1,12,2,6,1
-1,-1,0,1,0,-1,5,3,12,3,6,1
-1,-2,0,2,-1,-1,6,4,12,2,5,1
-2,-4,-2,3,0,-3,8,7,12,2,4,0
-2,-6,-3,4,0,-5,12,12,12,1,2,-1
-2,-8,-5,5,0,-7,16,19,12,1,1,-3
-2,-10,-7,5,2,-8,22,27,13,1,1,-4
0,-11,-10,5,4,-10,27,36,14,1,0,-5
1,-12,-13,5,7,-12,32,47,15,2,0,-6
2,-13,-15,6,9,-14,40,60,16,3,0,-6
4,-13,-17,4,10,-15,48,74,19,5,1,-6
6,-11,-18,1,12,-14,57,89,24,8,3,-5
8,-8,-17,-1,12,-12,64,100,28,13,7,-3
11,-3,-14,-5,12,-8,68,105,33,20,13,2
16,6,-9,-12,12,-1,63,98,38,28,22,11
23,20,-2,-21,12,9,50,80,42,37,34,24
31,37,6,-33,12,21,31,53,45,47,48,40
37,56,18,-46,9,37,8,18,47,57,62,57
41,75,34,-58,3,55,-17,-21,50,66,77,74
42,94,52,-68,-5,73,-42,-59,52,75,90,90
41,112,71,-77,-15,91,-64,-91,56,83,102,105
39,127,88,-83,-25,108,-82,-116,59,90,113,117
38,136,99,-87,-32,118,-94,-131,61,94,120,125
34,136,103,-85,-35,120,-99,-135,59,92,118,124
26,128,103,-77,-39,116,-96,-130,53,81,105,113
15,114,99,-65,-42,107,-89,-120,45,63,84,94
7,99,92,-53,-42,95,-78,-105,36,46,63,74
1,84,82,-42,-40,83,-68,-89,28,31,45,57
-2,70,71,-34,-37,70,-58,-74,20,20,32,42
-4,56,59,-25,-33,58,-50,-61,13,10,21,30
-7,41,48,-17,-29,45,-41,-48,7,2,12,19
-9,28,37,-9,-24,32,-32,-37,2,-4,4,9
-10,16,27,-3,-19,21,-24,-27,-2,-9,-2,2
-11,8,20,2,-16,13,-18,-21,-5,-13,-7,-3
-13,2,15,6,-14,8,-11,-16,-6,-15,-10,-7
-13,-1,12,8,-13,5,-6,-10,-7,-17,-12,-9
-13,-3,9,8,-11,2,-2,-5,-6,-17,-12,-9
-11,-4,6,8,-9,0,1,-1,-5,-16,-11,-9
-9,-5,3,8,-7,-1,4,1,-3,-14,-10,-9
-6,-5,1,6,-4,-2,6,3,-1,-12,-8,-8
-4,-5,0,5,-2,-3,7,4,1,-9,-5,-6
-3,-4,-1,4,-1,-3,7,5,3,-6,-3,-4
-2,-4,-1,4,-1,-2,7,5,4,-4,-2,-3
-2,-3,-1,3,0,-2,7,4,5,-3,-1,-2
-1,-3,-2,2,0,-3,7,4,6,-2,0,-1
0,-3,-3,1,1,-3,7,3,6,-2,0,-2
0,-3,-4,1,1,-3,7,3,6,-2,0,-2
1,-3,-4,1,2,-3,7,2,6,-2,0,-2
1,-3,-4,1,1,-3,7,2,6,-1,0,-2
0,-3,-4,2,1,-3,7,3,7,-1,1,-2
0,-3,-4,2,1,-3,7,3,7,0,1,-1
0,-3,-4,2,1,-3,7,3,7,0,2,-1
0,-3,-4,2,1,-3,7,3,7,1,3,0
0,-3,-4,2,1,-3,7,2,7,1,3,0
0,-3,-4,2,1,-3,7,2,7,2,4,0
1,-3,-4,1,2,-3,7,2,7,2,4,0
2,-3,-5,0,3,-3,6,1,7,2,4,0
2,-3,-5,0,3,-3,6,1,7,3,4,0
1,-2,-4,0,2,-3,6,1,7,3,5,0
2,-2,-5,0,3,-3,6,1,7,4,6,0
3,-1,-6,-1,4,-4,5,0,7,4,6,0
4,-1,-7,-1,5,-4,4,0,7,5,6,0
4,-1,-5,-1,4,-3,5,1,7,5,7,1
2,-1,-3,0,2,-2,5,1,8,6,8,1
1,-1,-2,0,0,-1,6,1,8,7,9,2
0,-1,-2,0,0,-1,5,1,8,7,9,2
0,-1,-2,0,0,-1,5,0,8,7,10,2
0,-1,-2,0,1,-2,5,0,7,7,10,2
1,-1,-3,0,2,-2,4,0,7,7,10,2
2,0,-4,0,3,-2,4,0,6,7,10,2
3,0,-4,-1,3,-2,4,0,7,7,10,3
2,0,-3,-1,2,-1,4,0,7,7,11,3
1,0,-2,-1,1,-1,4,1,8,8,11,3
1,0,-2,-1,1,-1,3,1,7,8,11,3
1,0,-3,-1,2,-1,3,1,6,7,11,3
1,0,-3,-1,2,-2,3,1,6,7,11,3
2,0,-4,-1,2,-1,3,2,6,7,12,3
3,1,-4,-2,3,-1,4,2,7,8,12,4
3,1,-3,-2,3,-1,4,2,7,8,12,4
3,0,-4,-1,2,-2,3,2,6,7,12,4
3,0,-4,-1,3,-2,3,1,5,7,11,3
3,0,-4,-2,3,-2,3,2,5,7,11,4
4,1,-4,-3,4,-1,3,2,5,7,12,4
5,1,-4,-3,4,-1,3,3,5,7,12,4
4,2,-4,-3,4,-1,3,3,6,7,12,5
4,2,-4,-3,4,-1,3,3,6,7,12,5
4,1,-4,-3,4,-2,3,3,6,7,12,5
4,0,-5,-2,4,-2,2,3,6,6,12,4
4,-1,-5,-1,4,-3,2,3,5,5,11,4
3,-1,-5,-1,4,-3,2,3,5,5,11,4
3,-1,-5,-1,4,-3,2,3,5,5,11,4
4,-1,-5,-1,4,-3,2,3,5,5,11,4
4,0,-6,-1,5,-3,2,3,5,5,11,4
5,0,-7,-1,6,-4,2,3,5,5,11,4
6,0,-8,-2,7,-4,1,3,5,5,11,4
6,0,-8,-2,7,-4,1,3,5,5,11,4
6,0,-8,-2,7,-4,1,3,5,5,10,4
7,-1,-9,-2,7,-5,1,3,5,5,10,3
7,-1,-9,-2,7,-5,1,2,4,4,10,3
5,-1,-8,-1,6,-5,1,2,4,4,10,4
5,-1,-8,-1,6,-5,1,2,5,4,11,4
5,0,-8,-2,6,-4,1,2,5,4,11,5
6,0,-8,-2,7,-4,1,2,5,4,11,5
6,0,-9,-2,7,-4,1,2,5,4,11,5
7,0,-9,-3,7,-4,1,2,5,4,11,5
8,0,-10,-3,8,-4,0,1,5,4,11,5
9,0,-10,-4,8,-5,0,1,4,4,10,5
9,0,-10,-4,9,-4,0,1,4,4,10,5
10,0,-10,-5,9,-4,-1,1,4,4,10,5
10,0,-11,-5,10,-5,-1,0,4,3,10,5
10,0,-11,-4,10,-6,-1,0,3,3,10,6
10,0,-11,-5,9,-5,-1,0,4,3,11,6
11,1,-11,-6,10,-5,-1,0,4,4,11,7
12,1,-11,-6,11,-5,-2,0,4,4,11,7
12,2,-11,-7,11,-4,-2,-1,4,4,11,8
13,3,-11,-8,12,-4,-2,-1,4,4,12,9
15,4,-12,-9,13,-4,-3,-2,3,4,12,9
16,4,-13,-9,13,-4,-4,-3,3,4,12,9
15,5,-12,-9,13,-3,-4,-3,3,5,13,10
14,5,-11,-9,12,-3,-4,-3,3,5,14,11
14,5,-10,-9,12,-3,-4,-3,3,5,14,11
15,5,-11,-10,12,-3,-5,-4,3,5,14,11
17,6,-11,-12,13,-2,-5,-4,3,5,15,12
19,7,-11,-13,14,-2,-5,-4,3,5,15,12
19,8,-12,-14,15,-2,-6,-5,3,5,15,12
19,8,-12,-14,15,-2,-7,-6,2,5,16,12
20,9,-13,-14,16,-2,-8,-7,2,5,16,12
21,10,-13,-15,16,-1,-8,-8,1,5,16,13
21,11,-12,-16,16,0,-9,-8,1,5,16,13
21,11,-11,-16,15,0,-9,-8,1,5,17,14
20,11,-10,-15,14,0,-10,-9,1,5,17,14
20,11,-9,-15,14,1,-10,-9,0,5,17,14
20,11,-9,-15,14,1,-11,-10,0,4,16,14
19,10,-9,-15,13,1,-12,-11,0,4,16,14
19,10,-9,-15,14,1,-12,-11,-1,3,15,15
21,12,-10,-17,15,2,-12,-11,-1,3,15,15
23,14,-9,-19,16,3,-12,-11,-1,4,15,16
23,15,-9,-19,16,3,-12,-12,-1,4,15,15
23,15,-9,-19,16,3,-12,-12,-1,3,15,15
23,15,-9,-19,16,3,-13,-13,-2,3,15,15
22,15,-8,-19,15,4,-13,-13,-2,3,15,15
21,15,-7,-18,13,4,-13,-14,-2,3,15,15
20,15,-6,-18,13,4,-13,-14,-2,2,14,15
20,14,-7,-17,13,4,-13,-15,-3,1,13,14
20,14,-6,-17,12,4,-13,-15,-3,0,12,14
18,14,-5,-16,11,4,-13,-14,-3,0,12,13
17,14,-4,-15,10,4,-13,-14,-3,0,11,13
17,14,-4,-15,10,4,-12,-13,-3,-1,11,12
16,14,-4,-14,9,4,-12,-13,-3,-1,10,12
15,13,-3,-14,8,5,-11,-12,-3,-1,10,12
13,12,-2,-13,7,5,-10,-11,-3,-1,9,12
12,12,-2,-12,6,5,-9,-10,-3,-2,8,11
12,11,-2,-12,6,4,-9,-9,-3,-3,7,10
12,11,-3,-11,6,4,-8,-8,-3,-4,6,9
11,10,-3,-10,6,3,-7,-7,-3,-4,5,8
10,9,-2,-9,5,4,-5,-6,-3,-4,4,7
9,9,0,-8,4,4,-4,-5,-2,-4,4,7
7,8,0,-7,2,4,-2,-3,-2,-4,4,7
5,7,1,-6,1,4,-1,-2,-2,-5,3,6
4,6,1,-5,1,3,0,0,-2,-5,2,5
4,5,0,-4,1,3,0,0,-2,-5,1,4
3,4,0,-4,1,2,0,1,-3,-6,0,3
2,3,0,-3,0,2,1,1,-3,-6,-1,2
2,2,0,-2,0,1,2,2,-3,-7,-1,2
1,1,0,-1,0,0,2,2,-3,-7,-1,1
1,1,-1,-1,0,0,3,3,-3,-7,-2,1
0,0,-1,0,0,0,3,3,-3,-7,-2,0
0,0,-1,0,0,-1,3,4,-3,-7,-3,0
0,0,-1,0,0,-1,4,5,-3,-7,-3,-1
-1,0,-1,1,-1,-1,5,5,-3,-7,-3,-1
-2,-2,-1,2,-2,-1,5,5,-3,-8,-4,-2
-4,-3,-1,4,-3,-2,5,5,-4,-8,-4,-2
-4,-3,0,4,-3,-1,6,6,-3,-8,-4,-2
-3,-2,0,3,-3,0,7,7,-2,-7,-3,-1
-3,-2,0,3,-2,0,7,8,-2,-7,-3,-1
-2,-2,-1,2,-1,-1,7,7,-3,-7,-3,-2
-1,-3,-2,2,0,-2,7,7,-3,-7,-3,-2
-2,-3,-2,3,-1,-2,7,7,-3,-7,-3,-3
-3,-4,-2,4,-2,-2,7,6,-4,-7,-3,-3
-4,-4,-2,5,-2,-3,7,6,-4,-7,-3,-3
-5,-5,-2,6,-3,-3,6,5,-4,-7,-2,-3
-5,-6,-2,6,-2,-3,6,5,-4,-7,-2,-3
-4,-5,-3,5,-2,-3,6,5,-4,-6,-1,-3
-4,-5,-1,4,-3,-2,7,6,-3,-5,0,-2
-7,-4,1,5,-5,-1,8,7,-2,-3,1,-1
-8,-4,2,6,-6,-1,8,7,-1,-2,2,0
-7,-4,1,5,-5,-1,7,7,-1,-1,2,0
-5,-4,0,5,-3,-2,7,7,-2,-1,2,0
-4,-4,-2,5,-2,-3,6,7,-2,-1,2,0
-3,-4,-2,5,-1,-2,6,7,-2,-1,2,0
-4,-4,-1,5,-2,-2,6,7,-2,-1,3,0
-4,-5,-1,5,-2,-2,6,7,-2,0,3,0
-5,-5,-1,5,-2,-2,6,7,-2,0,4,0
-5,-5,-1,5,-2,-3,6,7,-2,0,4,0
-4,-5,-2,5,-2,-3,6,7,-2,0,5,0
-3,-5,-2,4,-1,-3,6,7,-2,1,5,0
-2,-5,-3,4,0,-4,6,7,-2,1,5,0
-2,-6,-4,4,0,-4,6,7,-2,1,5,0
-2,-6,-5,4,1,-5,6,7,-2,1,5,0
-2,-6,-4,4,0,-4,6,8,-2,1,6,0
-3,-5,-3,4,0,-4,7,8,-1,2,7,1
-3,-5,-1,4,-1,-3,7,9,-1,3,8,1
-4,-5,0,4,-2,-3,7,9,-1,4,8,2
-4,-5,-1,5,-2,-3,7,8,-1,4,8,2
-4,-5,-1,5,-2,-3,6,8,-1,4,8,2
-4,-4,-1,4,-2,-3,7,9,0,4,9,3
-4,-4,-1,4,-2,-2,7,9,0,4,9,3
-4,-5,-2,5,-2,-3,6,8,-1,4,9,3
-3,-5,-3,4,-1,-3,6,8,-1,4,9,2
-2,-5,-4,3,0,-4,5,8,-1,4,9,2
-1,-5,-4,3,0,-4,5,8,-1,4,9,2
-1,-5,-3,3,0,-3,6,8,-1,4,9,2
-3,-5,-2,4,-1,-2,6,9,0,5,9,3
-4,-4,-1,4,-2,-2,7,9,0,5,10,3
-4,-4,-1,4,-2,-2,7,9,0,5,10,3
-3,-4,-2,4,-1,-2,7,9,-1,5,9,3
-2,-4,-3,4,-1,-3,7,9,-1,5,9,2
-2,-4,-3,4,-1,-3,7,9,-1,5,9,2
-3,-5,-2,4,-1,-3,6,8,-2,5,8,2
-4,-5,-2,5,-2,-3,6,8,-2,5,8,2
-5,-6,-2,5,-2,-3,5,7,-2,4,7,2
-4,-6,-2,5,-2,-4,5,7,-3,4,7,2
-3,-5,-3,4,-1,-4,5,7,-3,4,6,2
-2,-5,-3,4,0,-4,5,7,-4,4,6,2
-3,-5,-3,4,0,-3,5,7,-4,4,6,2
-3,-5,-2,4,-1,-3,5,8,-3,4,6,2
-3,-4,-2,4,-1,-3,5,8,-3,4,6,1
-3,-4,-2,4,-1,-3,5,7,-3,3,6,1
-3,-5,-3,4,-1,-4,5,7,-3,3,6,1
-4,-6,-2,5,-2,-4,6,7,-3,4,6,1
-5,-6,-2,5,-2,-3,6,7,-3,4,6,1
-5,-6,-2,5,-2,-3,6,7,-3,4,6,1
-5,-6,-2,5,-2,-3,6,8,-3,4,6,1
-5,-6,-2,5,-2,-4,6,8,-3,4,6,0
-4,-6,-2,5,-1,-4,6,8,-3,3,5,0
-3,-6,-3,5,-1,-5,6,8,-3,3,5,0
-4,-6,-2,5,-1,-5,6,8,-3,3,5,0
-4,-6,-2,5,-1,-4,7,8,-3,4,5,0
-5,-6,-2,5,-2,-4,7,8,-3,4,5,0
-5,-6,-2,6,-2,-4,7,8,-3,4,5,0
-6,-7,-2,6,-3,-5,7,8,-3,4,5,0
-6,-8,-2,7,-3,-5,7,8,-3,4,5,0
-6,-8,-2,7,-3,-5,7,8,-3,4,5,0
-6,-8,-1,7,-3,-4,7,8,-2,5,5,0
-6,-8,-2,7,-3,-5,7,8,-2,5,5,0
-6,-9,-2,7,-2,-5,7,7,-3,4,5,-1
-7,-9,-2,8,-2,-5,7,7,-3,4,5,-1
-7,-9,-1,8,-3,-5,7,8,-3,4,5,-1
-7,-9,-2,7,-3,-5,6,7,-3,4,4,-1
-6,-8,-3,7,-2,-6,6,7,-4,4,4,-2
-6,-8,-2,7,-2,-5,6,7,-3,4,4,-2
-8,-9,-1,9,-3,-5,6,8,-3,4,4,-1
-8,-9,-2,9,-3,-5,6,7,-3,4,4,-1
-7,-9,-2,9,-3,-5,6,7,-3,4,4,-1
-7,-9,-2,8,-2,-5,6,6,-3,4,4,-1
-6,-8,-2,7,-2,-5,6,6,-3,4,4,-1
-5,-8,-3,6,-1,-5,6,6,-3,4,4,-1
-4,-7,-4,6,0,-5,6,6,-3,4,4,-1
-3,-7,-4,5,0,-5,6,6,-3,4,4,-1
-4,-6,-3,5,-1,-5,6,6,-2,4,4,-1
-4,-6,-2,5,-1,-4,6,6,-2,4,5,-1
-4,-6,-1,5,-2,-3,6,6,-2,5,5,-1
-5,-5,0,5,-2,-3,6,6,-2,5,5,-1
-5,-5,0,4,-2,-3,6,6,-1,5,5,-1
-4,-4,0,4,-2,-2,6,7,-1,5,6,0
-4,-3,0,3,-2,-2,6,7,-1,6,6,0
-4,-3,1,3,-2,-1,6,7,-1,6,6,0
-5,-3,1,4,-3,-1,6,7,-1,6,6,0
-5,-3,2,3,-3,0,5,8,-1,6,7,1
-4,-2,1,2,-2,0,5,7,-1,6,7,1
-4,-2,1,2,-2,0,4,6,-1,6,7,1
-5,-3,2,4,-4,0,3,5,-1,6,7,1
-6,-3,2,4,-4,0,1,3,-1,6,7,1
-5,-1,3,3,-5,1,1,3,0,7,8,2
-5,0,4,2,-5,2,1,3,0,7,9,3
-3,1,3,1,-3,2,0,3,0,7,9,3
-1,1,2,0,-2,2,0,2,-1,7,9,3
0,2,1,0,-1,1,0,2,-1,7,9,3
0,2,1,-1,0,1,0,2,-1,8,9,3
0,2,2,-1,-1,2,1,3,0,8,9,3
0,2,2,-1,-2,2,2,4,0,8,9,3
0,2,1,-1,-1,2,1,4,0,8,8,2
1,2,0,-1,0,1,0,2,-1,7,7,2
2,1,-1,-1,1,0,0,1,-2,6,7,1
2,1,-2,0,1,0,0,1,-3,5,6,1
1,0,-1,0,0,0,0,1,-3,5,6,1
0,0,-1,0,0,-1,0,1,-3,5,6,0
0,-1,-1,1,0,-2,1,2,-4,4,5,0
-2,-3,-1,3,0,-3,1,3,-4,3,4,-1
-3,-5,-2,4,-1,-3,2,3,-5,2,3,-2
-3,-5,-2,5,-1,-4,2,3,-5,2,3,-3
-4,-5,-1,5,-1,-3,2,3,-6,2,3,-3
-4,-5,-1,6,-2,-3,3,4,-6,2,3,-3
-5,-6,-2,6,-2,-4,3,4,-6,2,3,-3
-4,-6,-2,6,-2,-4,3,3,-6,1,3,-3
-4,-6,-2,5,-2,-4,3,3,-6,1,2,-3
-4,-6,-2,5,-2,-4,3,3,-6,1,2,-4
-4,-6,-2,5,-2,-4,3,3,-6,1,2,-4
-5,-7,-2,6,-2,-5,3,3,-7,1,2,-4
-5,-7,-2,6,-1,-5,3,3,-7,0,1,-5
-5,-8,-3,6,-1,-6,3,3,-8,0,1,-5
-5,-8,-3,6,-1,-6,3,3,-8,-1,0,-6
-4,-8,-4,6,-1,-6,3,3,-8,-1,0,-6
-4,-7,-3,5,-1,-5,3,4,-8,0,0,-5
-4,-6,-2,5,-1,-5,4,4,-7,0,0,-5
-5,-7,-2,6,-2,-5,4,4,-7,0,0,-5
-5,-7,-2,6,-2,-5,4,4,-7,0,0,-5
-5,-7,-2,7,-2,-5,4,4,-8,0,0,-5
-6,-7,-1,7,-2,-5,4,4,-8,0,0,-5
-7,-7,-1,8,-3,-4,4,4,-8,0,0,-5
-7,-7,-1,8,-3,-4,4,4,-8,0,0,-5
-6,-7,-1,7,-3,-4,4,3,-8,-1,0,-6
-6,-7,-1,7,-3,-5,4,3,-8,-1,-1,-6
-6,-8,-1,7,-3,-5,4,3,-8,-1,-1,-7
-6,-8,-1,7,-2,-5,4,3,-8,-1,-1,-7
-6,-8,-2,7,-2,-5,4,3,-8,-1,-1,-7
-6,-8,-2,7,-1,-5,4,3,-8,-1,-1,-7
-6,-8,-2,7,-2,-5,4,3,-8,-1,-1,-7
-6,-7,-1,6,-2,-5,4,4,-8,-1,-1,-6
-5,-7,-2,6,-2,-5,4,4,-8,-1,-1,-6
-5,-7,-3,5,-1,-5,4,4,-9,-2,-1,-7
-4,-7,-4,5,-1,-6,4,4,-9,-2,-2,-7
-3,-7,-5,5,0,-6,3,3,-10,-2,-2,-7
-3,-7,-5,5,1,-6,3,3,-10,-2,-2,-8
-3,-8,-5,5,0,-6,4,4,-10,-2,-2,-8
-5,-8,-4,6,-1,-6,5,5,-9,-2,-2,-8
-6,-9,-3,7,-2,-6,7,8,-9,-2,-2,-8
-7,-10,-4,8,-1,-7,9,12,-9,-3,-3,-9
-7,-12,-6,9,0,-10,13,18,-9,-4,-5,-11
-7,-14,-7,10,0,-11,17,25,-8,-3,-5,-12
-7,-15,-8,11,0,-12,22,32,-7,-2,-5,-13
-6,-16,-10,11,2,-13,28,41,-5,-1,-5,-13
-3,-17,-14,10,5,-16,34,52,-4,0,-5,-14
1,-18,-20,9,10,-19,41,64,-3,0,-6,-15
4,-18,-23,8,13,-20,48,76,0,1,-5,-16
3,-17,-21,7,12,-19,55,88,4,5,-2,-15
3,-14,-18,5,11,-16,60,96,9,11,2,-11
7,-6,-14,0,10,-11,60,96,15,18,10,-4
12,6,-7,-9,9,-1,53,86,20,28,21,7
18,22,2,-20,8,11,40,67,25,40,35,22
26,41,14,-33,6,27,20,39,28,51,50,39
32,62,28,-46,2,45,-4,3,29,61,65,57
36,82,45,-59,-4,63,-29,-33,31,69,80,75
38,101,62,-69,-11,81,-52,-66,32,77,94,91
37,117,80,-77,-21,98,-72,-93,34,84,105,105
36,130,95,-83,-29,112,-88,-114,36,89,114,116
33,135,102,-84,-34,118,-97,-124,35,90,117,120
25,129,104,-77,-39,116,-97,-124,32,83,109,112
13,115,102,-64,-44,108,-91,-116,25,68,90,95
3,99,95,-51,-46,97,-80,-103,17,49,66,72
-2,83,85,-40,-44,84,-69,-88,9,32,44,51
-6,68,73,-31,-40,71,-58,-73,1,19,28,34
-8,55,62,-23,-36,58,-49,-58,-5,9,16,21
-10,42,52,-16,-32,46,-39,-41,-11,2,7,10
-12,29,41,-9,-27,35,-30,-27,-16,-3,0,2
-13,18,32,-3,-23,25,-22,-16,-20,-8,-5,-5
-15,9,24,2,-20,16,-15,-7,-23,-11,-10,-10
-16,2,18,7,-17,10,-8,0,-26,-14,-13,-14
-16,-2,13,10,-15,5,-3,3,-27,-17,-16,-17
-17,-6,9,12,-13,1,1,7,-28,-19,-17,-19
-15,-8,6,12,-10,-2,5,10,-28,-20,-18,-20
-12,-9,2,11,-7,-4,7,13,-27,-20,-18,-21
-10,-10,-1,10,-4,-6,8,14,-26,-18,-17,-20
-8,-11,-3,9,-2,-7,10,14,-24,-16,-15,-19
-8,-11,-3,9,-2,-7,11,14,-22,-13,-13,-18
-7,-10,-3,9,-2,-7,11,14,-19,-11,-11,-16
-6,-9,-3,8,-1,-7,11,12,-17,-9,-10,-15
-5,-9,-4,8,-1,-7,10,10,-16,-8,-9,-14
-5,-8,-4,7,0,-7,9,9,-16,-8,-9,-14
-4,-8,-4,6,0,-7,8,7,-15,-7,-8,-13
-4,-7,-4,6,0,-6,8,6,-15,-7,-8,-13
-5,-7,-2,6,-1,-6,8,6,-14,-6,-7,-13
-6,-7,-1,7,-3,-5,8,6,-13,-5,-7,-12
-6,-7,-1,7,-3,-4,8,6,-13,-5,-6,-12
-6,-6,-1,6,-3,-4,7,5,-13,-5,-6,-12
-5,-6,-2,6,-2,-4,7,5,-13,-4,-6,-12
-5,-6,-2,6,-2,-4,7,5,-13,-4,-6,-12
-5,-7,-2,6,-2,-5,6,4,-13,-4,-6,-12
-5,-7,-3,6,-1,-5,6,4,-13,-5,-6,-12
-4,-6,-3,5,-1,-5,6,3,-13,-5,-6,-12
-4,-5,-2,5,-1,-5,6,3,-13,-4,-6,-12
-5,-5,-2,5,-2,-4,6,3,-13,-4,-6,-12
-6,-6,-1,6,-2,-4,6,4,-13,-4,-6,-11
-5,-6,-1,6,-2,-4,6,4,-13,-4,-6,-11
-5,-6,-1,6,-2,-4,6,4,-13,-4,-6,-11
-5,-6,-1,6,-2,-4,6,4,-13,-4,-6,-11
-4,-6,-1,6,-2,-5,6,3,-13,-4,-6,-11
-4,-6,-2,5,-1,-5,5,3,-14,-5,-6,-11
-3,-5,-2,4,0,-5,5,3,-14,-5,-6,-11
-3,-5,-2,4,0,-4,5,2,-14,-5,-6,-10
-4,-5,-1,4,-1,-3,5,2,-14,-4,-6,-10
-4,-4,0,4,-2,-2,5,2,-13,-4,-5,-9
-4,-4,0,4,-2,-3,4,2,-14,-4,-5,-9
-3,-5,-2,4,-1,-4,4,1,-15,-5,-5,-10
-2,-5,-3,3,0,-5,3,1,-15,-5,-6,-10
-1,-4,-3,2,0,-5,4,2,-15,-5,-6,-10
-1,-4,-3,2,0,-4,4,2,-15,-5,-6,-10
-2,-4,-3,3,0,-4,4,2,-15,-5,-6,-10
-4,-5,-2,4,-1,-4,4,2,-15,-5,-6,-10
-5,-4,0,4,-2,-3,4,2,-15,-5,-5,-9
-4,-4,0,4,-2,-3,4,2,-15,-5,-5,-9
-4,-4,-1,4,-1,-4,4,2,-16,-5,-5,-9
-3,-4,-1,3,-1,-4,4,3,-16,-5,-5,-9
-3,-3,-2,3,0,-4,5,3,-16,-5,-5,-8
-2,-3,-3,2,0,-4,5,3,-16,-5,-5,-8
-2,-4,-4,2,1,-5,4,2,-16,-6,-5,-9
-1,-4,-4,2,1,-5,4,1,-16,-6,-5,-9
-1,-5,-4,2,1,-5,4,1,-17,-6,-5,-9
-1,-5,-4,3,1,-5,4,1,-17,-6,-5,-9
-1,-5,-4,3,1,-5,4,1,-17,-6,-5,-9
-1,-5,-4,3,1,-5,4,1,-17,-6,-5,-8
-2,-6,-4,4,0,-5,4,2,-17,-6,-5,-8
-3,-6,-4,4,0,-5,4,2,-17,-6,-5,-8
-3,-6,-4,4,0,-6,4,2,-17,-6,-5,-8
-2,-7,-5,4,1,-6,4,2,-17,-7,-5,-9
-1,-7,-6,4,2,-7,3,2,-18,-7,-6,-9
0,-6,-6,3,3,-7,3,2,-18,-6,-5,-8
0,-6,-6,3,3,-6,4,3,-17,-6,-5,-8
0,-5,-5,3,2,-6,4,3,-17,-5,-4,-8
-1,-6,-5,3,2,-6,4,3,-17,-5,-4,-8
-1,-6,-5,3,2,-6,3,3,-17,-5,-4,-8
-1,-6,-5,3,2,-7,3,3,-17,-5,-4,-8
-1,-6,-6,3,2,-7,2,3,-17,-5,-4,-8
-1,-6,-6,3,2,-7,2,2,-17,-5,-4,-8
0,-6,-7,3,4,-7,1,2,-17,-5,-4,-7
1,-6,-8,2,5,-7,1,1,-17,-5,-4,-7
1,-6,-7,2,5,-7,1,1,-17,-5,-3,-7
1,-6,-7,2,4,-6,1,2,-17,-5,-3,-6
1,-6,-7,2,4,-6,1,2,-17,-5,-2,-6
2,-5,-8,2,5,-7,1,2,-18,-5,-2,-6
3,-5,-9,1,6,-7,0,2,-18,-5,-2,-6
4,-4,-9,0,6,-7,0,1,-18,-5,-2,-5
4,-4,-9,0,7,-7,0,1,-18,-4,-2,-5
4,-3,-9,0,7,-7,0,1,-18,-4,-1,-4
5,-3,-9,0,7,-7,0,0,-18,-4,-1,-4
6,-3,-10,-1,8,-7,-1,0,-18,-5,-1,-4
7,-3,-11,-1,9,-8,-2,-1,-19,-5,-1,-4
7,-3,-11,-1,9,-7,-2,0,-19,-5,-1,-4
7,-3,-10,-1,8,-7,-1,0,-18,-4,0,-3
8,-2,-11,-2,9,-7,-1,0,-18,-3,0,-2
9,-1,-11,-4,10,-6,-2,-1,-18,-3,0,-2
10,0,-11,-5,11,-6,-2,-2,-18,-3,0,-1
10,0,-11,-5,11,-5,-3,-3,-18,-3,0,-1
10,0,-10,-5,10,-5,-3,-4,-18,-3,1,0
10,1,-10,-5,10,-4,-4,-4,-18,-3,1,0
11,1,-10,-6,10,-4,-4,-5,-18,-3,2,1
12,2,-10,-7,11,-4,-5,-5,-18,-3,2,1
13,2,-10,-8,12,-4,-5,-6,-18,-3,3,2
13,3,-10,-8,12,-4,-6,-7,-19,-3,3,2
13,3,-11,-9,12,-4,-7,-7,-19,-3,3,2
14,4,-10,-10,12,-4,-7,-8,-19,-3,3,2
15,5,-10,-11,12,-3,-7,-8,-19,-2,4,3
15,5,-10,-11,13,-3,-8,-8,-19,-3,4,3
15,4,-11,-10,13,-3,-9,-9,-20,-3,3,3
15,5,-11,-10,13,-3,-10,-9,-20,-4,3,3
17,6,-11,-12,14,-2,-10,-9,-19,-3,4,3
17,8,-10,-13,13,-1,-10,-9,-19,-3,5,4
17,8,-9,-13,13,-1,-10,-9,-19,-3,5,4
17,8,-9,-13,13,-1,-10,-10,-19,-3,5,4
17,8,-9,-13,12,-1,-10,-10,-19,-3,4,4
17,9,-8,-13,12,0,-10,-10,-19,-3,4,4
17,9,-8,-13,12,0,-10,-10,-20,-4,4,4
16,9,-7,-13,12,0,-10,-11,-20,-4,4,4
16,9,-7,-13,11,1,-10,-11,-20,-5,4,5
15,9,-6,-12,10,1,-10,-12,-20,-5,4,5
14,9,-5,-12,9,1,-11,-12,-20,-5,3,5
14,9,-6,-11,9,1,-11,-13,-20,-6,2,4
14,9,-6,-12,9,0,-11,-13,-20,-6,1,4
14,10,-5,-12,9,1,-11,-13,-19,-6,1,4
13,10,-4,-11,8,2,-10,-13,-19,-6,0,4
12,10,-3,-11,7,2,-10,-13,-19,-6,0,4
12,9,-2,-10,7,2,-10,-12,-19,-7,0,3
10,8,-2,-9,6,2,-9,-11,-19,-7,0,3
9,8,-1,-9,5,2,-8,-10,-18,-8,-1,2
9,7,-1,-8,4,2,-7,-9,-18,-8,-2,1
8,7,-1,-8,4,2,-6,-8,-18,-9,-3,0
8,6,-2,-7,5,1,-6,-8,-18,-9,-4,0
8,6,-3,-6,5,0,-6,-8,-17,-10,-5,-1
7,5,-3,-6,5,0,-5,-8,-17,-10,-6,-2
5,5,-2,-5,4,0,-5,-7,-17,-10,-6,-2
3,4,0,-3,2,1,-3,-6,-16,-9,-6,-3
2,3,1,-2,1,1,-2,-4,-15,-9,-7,-3
2,3,1,-2,1,1,-1,-3,-15,-9,-7,-4
1,2,1,-2,0,0,0,-2,-15,-9,-8,-5
0,1,1,-1,0,0,1,-2,-14,-9,-8,-5
0,1,1,0,0,0,2,-1,-14,-9,-9,-6
-1,0,1,0,-1,0,2,0,-13,-9,-9,-6
-2,0,1,1,-1,0,3,1,-13,-10,-9,-7
-2,0,0,1,0,-1,3,1,-12,-11,-10,-8
-2,-1,0,2,-1,-1,4,2,-12,-11,-11,-9
-3,-2,1,3,-2,-1,5,3,-12,-11,-11,-9
-5,-2,2,4,-3,-1,6,4,-11,-11,-11,-9
-6,-3,3,5,-5,-1,6,4,-11,-10,-11,-9
-7,-4,3,6,-5,-1,6,4,-11,-10,-11,-9
-7,-4,3,6,-5,-1,6,3,-12,-10,-12,-10
-7,-5,1,6,-4,-2,5,3,-12,-11,-12,-10
-7,-5,1,6,-4,-3,5,4,-12,-11,-12,-11
-6,-4,1,5,-4,-2,6,4,-12,-11,-12,-11
-7,-4,2,5,-5,-2,7,5,-11,-10,-12,-10
-8,-5,3,6,-5,-2,7,4,-11,-11,-12,-11
-8,-6,2,6,-5,-3,6,4,-11,-11,-12,-11
-9,-6,2,7,-6,-3,6,4,-11,-10,-12,-11
-9,-6,2,7,-6,-2,7,4,-11,-10,-12,-11
-9,-6,2,7,-5,-2,7,4,-10,-9,-11,-11
-10,-6,2,8,-5,-2,7,4,-10,-9,-11,-11
-10,-6,2,9,-6,-2,7,5,-10,-9,-11,-11
-11,-6,3,9,-6,-2,7,5,-10,-9,-11,-11
-10,-6,3,9,-6,-2,7,5,-10,-8,-10,-11
-9,-6,3,8,-6,-2,7,5,-10,-8,-10,-11
-8,-6,2,7,-5,-2,7,5,-10,-7,-10,-10
-9,-6,2,7,-6,-2,7,5,-9,-7,-10,-10
-9,-6,2,7,-6,-2,7,5,-9,-7,-9,-9
-8,-6,2,7,-5,-2,7,5,-8,-6,-9,-9
-8,-7,1,8,-5,-3,6,5,-8,-6,-9,-10
-8,-7,0,8,-4,-3,5,4,-8,-7,-9,-10
-7,-7,0,7,-3,-4,5,4,-8,-7,-10,-11
-6,-7,0,6,-3,-4,4,3,-8,-7,-10,-11
-7,-7,0,6,-4,-3,5,3,-8,-7,-9,-10
-9,-7,3,7,-6,-2,5,4,-8,-6,-9,-10
-11,-6,4,8,-8,-1,6,4,-7,-5,-8,-9
-9,-4,4,6,-7,0,6,5,-7,-4,-8,-9
-8,-2,4,5,-6,0,6,5,-6,-4,-7,-9
-9,-3,5,6,-7,0,6,5,-6,-4,-7,-9
-10,-3,5,7,-7,0,6,6,-6,-4,-7,-9
-9,-4,5,7,-7,0,6,6,-6,-4,-7,-9
-8,-4,3,6,-5,0,6,5,-7,-4,-8,-9
-6,-4,2,5,-4,-1,5,5,-7,-5,-8,-9
-7,-4,2,5,-5,-1,5,5,-7,-5,-8,-9
-8,-5,3,6,-5,-1,5,5,-7,-5,-8,-10
-9,-5,3,7,-6,-1,4,4,-7,-5,-8,-10
-9,-4,3,6,-6,0,5,5,-7,-5,-8,-9
-9,-4,4,6,-6,0,6,5,-6,-4,-7,-9
-9,-4,4,6,-6,0,6,5,-6,-5,-7,-9
-8,-5,3,6,-6,0,5,5,-7,-5,-8,-9
-7,-5,2,6,-5,-1,5,4,-8,-6,-9,-10
-7,-6,1,5,-4,-2,4,4,-8,-6,-9,-10
-8,-5,1,6,-5,-2,5,5,-8,-6,-9,-9
-9,-5,3,6,-6,-2,5,5,-8,-6,-9,-9
-9,-6,3,7,-6,-2,5,5,-8,-6,-9,-10
-9,-7,2,7,-6,-2,5,5,-9,-7,-9,-10
-9,-7,2,8,-6,-2,5,5,-9,-7,-10,-11
-9,-7,2,7,-6,-2,5,5,-9,-7,-10,-10
-8,-6,2,7,-5,-2,5,6,-9,-7,-10,-10
-8,-6,2,7,-5,-2,5,6,-9,-7,-10,-10
-9,-6,2,7,-6,-2,5,6,-9,-7,-10,-10
-9,-6,3,7,-6,-1,5,6,-9,-7,-9,-10
-9,-5,4,7,-7,0,5,6,-8,-6,-9,-10
-10,-4,4,7,-7,0,5,6,-8,-6,-9,-10
-10,-5,4,7,-7,0,5,6,-8,-6,-9,-10
-10,-5,4,7,-7,0,5,6,-8,-6,-9,-10
-10,-6,4,7,-7,-1,5,6,-8,-6,-9,-10
-11,-7,4,8,-8,-1,6,7,-8,-6,-10,-10
-11,-7,4,8,-8,-1,6,7,-8,-6,-10,-10
-11,-7,3,8,-8,-1,5,7,-9,-7,-11,-10
-11,-7,3,9,-7,-2,5,6,-9,-7,-11,-11
-11,-7,3,9,-7,-2,5,6,-9,-7,-11,-11
-10,-7,3,9,-6,-2,5,6,-9,-7,-11,-11
-9,-7,2,9,-6,-2,6,6,-9,-7,-11,-11
-10,-7,2,9,-6,-2,6,6,-9,-6,-11,-11
-11,-7,3,9,-8,-2,7,7,-8,-6,-11,-11
-13,-8,4,10,-9,-2,7,7,-8,-6,-11,-11
-14,-8,4,11,-10,-2,7,7,-8,-6,-11,-12
-14,-9,4,11,-9,-3,7,7,-8,-6,-11,-12
-13,-8,4,10,-8,-2,7,7,-8,-6,-10,-12
-12,-8,4,9,-8,-2,8,8,-8,-6,-10,-11
-11,-8,3,9,-7,-2,7,8,-8,-6,-10,-11
-11,-9,3,9,-7,-2,7,8,-8,-6,-10,-12
-11,-8,3,9,-7,-2,8,8,-8,-5,-10,-12
-10,-7,3,8,-7,-1,8,9,-7,-5,-9,-11
-10,-6,3,8,-7,-1,8,9,-7,-5,-9,-11
-11,-6,4,8,-7,-1,8,8,-7,-5,-8,-11
-12,-7,4,9,-8,-1,7,8,-7,-4,-8,-11
-11,-6,5,9,-8,-1,7,7,-7,-4,-8,-11
-9,-5,4,7,-7,0,7,7,-7,-4,-8,-10
-9,-5,4,6,-7,0,7,7,-6,-4,-8,-10
-10,-5,6,7,-9,1,7,7,-6,-3,-7,-9
-11,-4,7,8,-10,2,8,8,-5,-2,-7,-8
-11,-3,7,7,-9,2,9,9,-4,-2,-7,-7
-10,-3,6,6,-8,1,8,9,-4,-2,-7,-7
-9,-3,5,6,-7,1,8,9,-4,-2,-7,-7
-9,-2,6,5,-8,1,8,9,-4,-1,-7,-7
-10,-3,8,6,-9,2,7,9,-4,-1,-6,-6
-12,-3,9,7,-11,2,7,8,-4,-1,-6,-6
-12,-2,10,7,-11,3,6,6,-4,-1,-6,-6
-11,-1,9,6,-10,3,4,4,-3,-1,-6,-6
-10,-1,9,5,-10,3,3,3,-3,-1,-6,-6
-10,0,9,5,-10,4,3,3,-3,0,-6,-5
-9,0,9,4,-9,4,2,2,-3,0,-6,-5
-8,1,8,3,-8,4,2,2,-3,0,-6,-4
-7,1,9,3,-8,4,3,3,-2,0,-5,-4
-8,1,9,3,-9,5,3,4,-2,0,-5,-4
-9,1,10,4,-10,5,4,5,-2,0,-5,-4
-9,0,10,4,-11,5,4,5,-2,0,-5,-4
-9,0,9,4,-9,4,4,5,-2,0,-6,-4
-8,0,7,4,-8,3,4,4,-3,-1,-7,-4
-8,0,6,5,-7,2,3,3,-4,-1,-7,-5
-9,-1,6,6,-8,2,3,2,-4,-2,-8,-5
-10,-2,7,7,-9,2,3,2,-5,-3,-8,-6
-11,-3,7,7,-10,1,4,3,-6,-3,-9,-7
-12,-4,8,8,-11,1,5,4,-6,-4,-10,-7
-13,-5,8,9,-11,0,6,5,-6,-4,-10,-8
-14,-6,8,10,-11,0,7,5,-7,-5,-11,-8
-14,-7,7,10,-11,0,7,6,-7,-5,-11,-8
-14,-8,6,10,-10,0,7,6,-7,-5,-11,-8
-14,-8,7,11,-11,0,8,6,-7,-5,-11,-8
-14,-8,7,11,-11,0,8,6,-7,-5,-11,-8
-14,-8,6,12,-11,-1,7,5,-8,-6,-12,-9
-14,-9,6,12,-11,-1,7,5,-8,-7,-12,-10
-14,-9,6,11,-10,-1,7,5,-8,-7,-13,-11
-14,-9,6,11,-10,-1,6,5,-8,-8,-13,-11
-14,-9,6,11,-10,-1,6,5,-8,-8,-14,-11
-14,-9,6,11,-10,-1,6,5,-8,-8,-14,-11
-14,-9,5,11,-10,-2,6,5,-8,-8,-14,-11
-12,-9,4,11,-9,-3,6,5,-9,-8,-14,-11
-12,-9,3,10,-8,-3,6,5,-9,-9,-15,-12
-12,-9,3,11,-9,-3,6,5,-9,-9,-15,-12
-13,-9,4,11,-9,-3,6,5,-9,-9,-15,-13
-13,-9,3,11,-8,-3,6,5,-9,-10,-15,-13
-13,-9,4,11,-8,-3,7,5,-9,-10,-15,-12
-13,-9,5,11,-9,-2,7,6,-8,-9,-15,-12
-13,-9,5,11,-9,-2,7,5,-8,-9,-15,-12
-12,-9,4,10,-8,-2,7,5,-8,-9,-15,-12
-13,-9,5,10,-9,-1,7,5,-8,-8,-15,-12
-14,-8,6,11,-10,-1,7,6,-8,-8,-14,-12
-14,-8,6,11,-10,-1,7,6,-8,-8,-14,-12
-14,-8,6,11,-10,-1,6,6,-8,-8,-15,-13
-14,-8,5,11,-10,-1,6,5,-8,-8,-15,-13
-14,-8,5,11,-9,-2,6,5,-8,-9,-15,-13
-13,-8,5,11,-9,-2,6,5,-8,-9,-15,-13
-13,-9,5,12,-9,-3,6,5,-8,-9,-15,-13
-14,-10,5,13,-10,-3,6,5,-8,-10,-15,-13
-15,-10,5,13,-10,-3,6,5,-8,-10,-15,-13
-15,-9,5,12,-10,-3,6,5,-8,-10,-15,-13
-13,-8,5,10,-9,-2,6,6,-8,-10,-15,-13
-13,-7,5,10,-8,-1,7,6,-8,-10,-15,-13
-14,-8,5,11,-9,-2,7,6,-8,-10,-15,-13
-15,-9,5,12,-10,-2,7,6,-8,-10,-15,-13
-15,-9,5,12,-10,-2,9,8,-7,-9,-15,-13
-14,-10,3,12,-9,-3,11,13,-7,-9,-16,-13
-14,-11,2,13,-8,-5,15,18,-6,-10,-16,-15
-14,-13,1,14,-8,-6,20,25,-5,-10,-17,-16
-13,-14,-1,14,-6,-8,24,32,-4,-9,-18,-18
-11,-16,-5,13,-3,-11,28,40,-3,-9,-19,-19
-9,-18,-8,13,0,-13,34,50,-2,-9,-19,-20
-7,-19,-12,13,2,-16,41,62,0,-7,-19,-20
-6,-19,-14,13,4,-17,49,74,4,-5,-17,-20
-7,-18,-11,13,2,-15,57,86,9,0,-14,-17
-7,-14,-8,11,0,-11,63,94,15,7,-8,-13
-4,-8,-4,6,0,-6,64,95,20,14,-1,-8
2,3,1,-2,0,1,57,86,25,22,8,1
9,18,8,-14,0,13,43,68,28,32,21,15
16,36,20,-26,-2,28,24,42,31,43,36,32
20,57,36,-39,-8,46,1,10,34,54,53,52
22,79,55,-50,-16,66,-22,-24,35,65,70,72
24,98,73,-61,-24,85,-45,-56,36,74,85,90
25,115,90,-70,-32,102,-65,-84,37,81,98,105
24,129,105,-76,-40,117,-82,-107,38,87,108,116
22,135,114,-78,-46,125,-93,-120,36,89,112,121
17,131,115,-74,-49,123,-96,-121,32,83,106,115
10,119,110,-65,-50,114,-91,-115,25,67,88,98
1,103,102,-52,-51,102,-82,-103,16,47,62,75
-6,86,91,-39,-49,88,-70,-87,8,28,38,52
-11,71,81,-29,-47,76,-59,-72,1,13,19,34
-14,58,72,-21,-43,64,-48,-57,-5,3,6,21
-16,44,61,-13,-39,52,-39,-42,-10,-4,-3,10
-18,31,50,-6,-35,40,-30,-28,-15,-10,-10,1
-20,20,41,0,-31,30,-22,-17,-19,-14,-16,-6
-21,11,33,6,-28,21,-14,-7,-22,-18,-20,-12
-22,3,26,10,-25,14,-8,1,-24,-21,-23,-16
-23,-2,21,13,-23,9,-2,7,-25,-23,-26,-19
-24,-7,18,16,-21,5,3,12,-26,-25,-27,-21
-25,-9,15,17,-20,3,8,17,-25,-25,-28,-21
-23,-11,12,17,-17,0,11,21,-25,-24,-28,-22
-19,-12,8,16,-13,-2,13,22,-24,-23,-27,-22
-16,-12,5,15,-10,-3,14,22,-22,-21,-25,-21
-14,-12,2,13,-8,-4,15,20,-20,-20,-23,-20
-12,-11,1,12,-7,-5,14,18,-18,-18,-22,-19
-12,-10,1,11,-6,-4,13,16,-16,-16,-20,-17
-12,-9,2,10,-7,-3,12,13,-14,-14,-18,-15
-13,-8,3,10,-8,-3,12,12,-12,-12,-17,-14
-13,-8,4,10,-8,-3,11,10,-12,-11,-16,-14
-12,-9,3,10,-7,-3,10,9,-12,-11,-16,-14
-12,-9,3,10,-7,-3,9,8,-12,-11,-16,-14
-11,-9,3,10,-7,-3,8,7,-12,-11,-16,-14
-10,-8,2,9,-6,-3,8,7,-12,-11,-16,-14
-9,-8,1,8,-5,-3,7,6,-11,-10,-16,-14
-10,-8,2,9,-6,-2,7,6,-11,-10,-15,-13
-10,-7,3,8,-7,-2,8,6,-10,-9,-15,-12
-9,-6,2,7,-5,-2,7,6,-11,-9,-15,-13
-8,-6,1,7,-4,-3,6,5,-11,-9,-15,-13
-8,-6,2,8,-5,-3,6,5,-11,-8,-14,-13
-9,-6,3,8,-6,-2,6,5,-11,-8,-14,-12
-10,-6,3,9,-6,-2,6,5,-11,-8,-14,-12
-10,-6,3,8,-6,-1,6,5,-11,-8,-14,-12
-10,-5,3,8,-6,-1,6,4,-11,-7,-14,-11
-10,-5,3,8,-6,-1,5,4,-11,-7,-14,-11
-8,-5,2,7,-5,-2,4,4,-11,-8,-15,-12
-6,-5,0,5,-2,-3,4,3,-12,-8,-15,-12
-5,-4,0,4,-2,-3,4,3,-12,-8,-15,-12
-4,-4,0,4,-2,-2,4,3,-12,-8,-15,-12
-4,-3,0,4,-2,-1,4,3,-12,-8,-14,-12
-6,-4,1,5,-4,-1,4,3,-12,-8,-14,-12
-8,-5,2,7,-6,-1,4,3,-13,-8,-14,-12
-10,-5,3,7,-7,0,5,4,-13,-8,-14,-11
-10,-4,4,7,-8,0,5,5,-12,-7,-13,-11
-8,-3,4,6,-7,0,5,5,-12,-7,-13,-10
-7,-3,4,5,-6,0,5,4,-12,-7,-13,-10
-8,-3,4,6,-6,0,5,4,-13,-7,-12,-10
-8,-4,5,6,-7,1,5,4,-13,-7,-12,-9
-8,-4,5,6,-7,0,4,4,-13,-7,-13,-9
-8,-4,3,6,-6,0,3,3,-14,-7,-13,-10
-7,-4,2,6,-5,-1,3,3,-14,-8,-14,-11
-7,-4,2,6,-4,-1,3,3,-15,-8,-14,-11
-8,-5,1,7,-4,-2,3,2,-15,-9,-14,-11
-7,-4,1,6,-4,-1,3,2,-15,-9,-14,-11
-5,-3,1,4,-3,-1,3,2,-15,-9,-13,-10
-4,-3,1,4,-2,-2,2,2,-16,-9,-13,-10
-4,-4,0,4,-2,-2,2,2,-16,-9,-13,-10
-4,-4,0,4,-2,-2,2,2,-16,-9,-13,-11
-3,-3,-1,3,-1,-2,2,2,-16,-9,-13,-11
-2,-3,-1,2,0,-2,2,2,-16,-9,-13,-10
-1,-2,-2,2,1,-2,2,1,-16,-9,-13,-10
-1,-2,-3,1,1,-3,1,1,-16,-9,-13,-10
-1,-3,-3,2,1,-3,1,2,-16,-9,-13,-10
-2,-4,-3,2,0,-4,1,2,-17,-9,-13,-11
-1,-4,-3,2,1,-4,1,1,-17,-9,-13,-11
0,-4,-4,2,1,-4,1,1,-16,-8,-13,-11
0,-4,-4,1,2,-4,1,1,-16,-8,-13,-11
0,-4,-5,2,2,-5,1,1,-16,-8,-12,-11
0,-4,-5,2,3,-5,1,1,-16,-8,-12,-11
1,-4,-6,1,3,-5,1,1,-16,-8,-11,-10
1,-4,-6,1,4,-6,1,1,-16,-8,-11,-10
1,-4,-6,2,4,-6,1,1,-16,-8,-11,-10
1,-4,-6,2,4,-6,1,1,-16,-7,-11,-10
1,-4,-6,2,4,-6,1,1,-16,-7,-11,-9
1,-4,-7,1,4,-6,1,1,-16,-7,-11,-9
2,-4,-7,0,5,-6,1,1,-16,-7,-10,-9
3,-3,-7,0,5,-6,0,0,-16,-7,-10,-8
4,-3,-7,0,5,-6,0,0,-16,-7,-9,-8
4,-3,-8,0,6,-6,0,0,-17,-7,-9,-8
5,-3,-9,-1,7,-6,-1,-1,-17,-7,-9,-8
6,-3,-9,-1,7,-6,-2,-1,-17,-6,-9,-8
6,-2,-9,-2,7,-6,-2,-1,-17,-6,-8,-7
7,-2,-10,-2,8,-6,-2,-1,-17,-6,-8,-7
7,-2,-10,-3,8,-6,-2,-1,-17,-6,-7,-6
8,-2,-11,-3,9,-7,-2,-2,-17,-6,-7,-6
9,-2,-12,-4,10,-7,-3,-2,-18,-6,-7,-6
11,-1,-13,-4,11,-7,-3,-3,-18,-6,-7,-6
13,-1,-14,-6,13,-8,-4,-3,-19,-7,-7,-6
14,0,-16,-7,15,-8,-5,-4,-19,-7,-7,-6
14,-1,-16,-6,15,-8,-5,-5,-19,-7,-7,-5
13,0,-14,-6,13,-7,-5,-5,-19,-6,-6,-4
12,1,-12,-6,12,-6,-5,-5,-18,-6,-4,-3
13,2,-12,-7,12,-6,-6,-5,-18,-5,-3,-2
14,2,-12,-8,12,-5,-6,-6,-18,-5,-3,-2
14,2,-12,-8,12,-5,-7,-6,-18,-5,-2,-1
15,2,-12,-8,13,-5,-7,-7,-18,-5,-2,-1
15,2,-13,-8,14,-5,-8,-8,-19,-5,-2,0
17,3,-14,-9,15,-6,-9,-8,-19,-5,-2,0
19,4,-15,-11,17,-6,-9,-9,-19,-5,-2,0
20,5,-15,-13,17,-5,-10,-9,-19,-5,-1,0
21,6,-16,-14,18,-5,-10,-10,-20,-5,-1,0
21,6,-16,-14,18,-5,-11,-10,-20,-5,-1,0
21,6,-15,-14,18,-5,-11,-10,-20,-5,-1,0
21,7,-14,-14,17,-4,-11,-10,-20,-5,-1,1
21,8,-14,-14,17,-3,-11,-11,-20,-5,0,1
22,8,-14,-15,18,-3,-11,-11,-20,-5,0,2
23,8,-14,-16,18,-3,-12,-12,-20,-5,0,2
23,8,-14,-16,19,-4,-13,-13,-21,-5,0,2
22,8,-14,-15,18,-4,-13,-13,-21,-6,0,2
20,8,-12,-15,16,-3,-14,-13,-21,-6,0,2
20,9,-11,-15,15,-2,-13,-13,-21,-5,0,3
20,10,-11,-15,15,-1,-13,-14,-21,-5,0,3
21,10,-11,-16,16,-1,-14,-14,-21,-5,0,3
21,10,-12,-16,16,-1,-14,-15,-21,-6,0,3
22,10,-12,-17,17,-1,-14,-15,-21,-6,0,3
22,10,-11,-17,17,-1,-14,-15,-21,-6,-1,2
20,9,-10,-15,15,-1,-14,-15,-21,-7,-1,2
20,9,-10,-15,15,-1,-14,-16,-21,-7,-2,1
20,10,-10,-15,15,0,-13,-16,-21,-8,-2,1
19,11,-9,-15,13,0,-12,-15,-20,-8,-3,1
17,10,-8,-13,12,1,-11,-15,-20,-9,-3,0
16,9,-7,-12,11,1,-11,-15,-20,-9,-4,0
15,8,-7,-11,11,0,-11,-14,-20,-10,-5,0
14,7,-6,-11,10,0,-10,-14,-19,-10,-5,-1
14,8,-6,-11,10,0,-10,-13,-19,-10,-6,-1
14,8,-7,-11,10,0,-9,-12,-19,-11,-7,-2
13,7,-6,-11,9,0,-8,-11,-18,-11,-8,-3
11,7,-5,-9,7,0,-7,-10,-17,-11,-8,-3
9,6,-4,-8,6,0,-6,-9,-17,-11,-8,-4
8,5,-3,-7,5,0,-5,-8,-17,-11,-9,-5
7,5,-2,-6,4,0,-4,-7,-16,-11,-9,-5
6,4,-2,-5,3,0,-3,-6,-16,-11,-9,-6
5,3,-2,-4,3,0,-3,-5,-15,-11,-10,-7
4,2,-2,-3,3,-1,-2,-4,-15,-11,-11,-8
4,2,-2,-3,2,-1,-1,-3,-14,-11,-11,-8
3,1,-2,-2,2,-1,0,-2,-14,-12,-12,-9
2,1,-2,-1,2,-1,0,-2,-14,-12,-12,-9
1,0,-2,0,1,-1,1,-2,-14,-12,-13,-10
1,0,-2,0,2,-2,1,-2,-14,-12,-13,-10
1,0,-2,0,1,-2,1,-1,-14,-12,-14,-11
0,0,-2,0,0,-2,2,0,-13,-12,-14,-11
0,-1,-2,0,0,-2,3,0,-13,-13,-14,-12
0,-2,-2,0,0,-3,3,0,-13,-13,-15,-12
0,-3,-3,1,0,-3,3,0,-13,-13,-15,-13
0,-3,-3,2,0,-4,3,0,-14,-13,-15,-14
-1,-4,-3,3,0,-4,3,0,-14,-13,-15,-14
-3,-4,-2,3,-1,-3,3,0,-13,-12,-14,-13
-3,-4,-2,3,-1,-3,4,0,-13,-12,-14,-13
-3,-4,-2,3,-1,-3,4,0,-13,-12,-14,-13
-3,-4,-1,3,-2,-3,4,1,-13,-12,-13,-13
-5,-4,0,4,-3,-3,4,1,-12,-12,-13,-13
-6,-4,1,5,-5,-2,5,2,-12,-12,-12,-12
-6,-5,1,5,-5,-2,5,2,-12,-11,-12,-12
-6,-5,1,5,-5,-2,5,2,-12,-11,-12,-12
-6,-5,0,5,-4,-2,5,2,-12,-11,-12,-12
-5,-5,0,5,-3,-2,5,2,-12,-11,-12,-12
-5,-5,0,5,-3,-2,5,2,-12,-10,-12,-12
-5,-6,0,5,-2,-3,5,2,-12,-10,-12,-12
-5,-6,-1,6,-2,-4,5,2,-12,-10,-12,-12
-6,-7,-1,7,-3,-4,5,2,-12,-10,-11,-12
-5,-7,-1,6,-2,-5,4,2,-12,-10,-11,-12
-4,-6,-2,5,-1,-5,4,1,-12,-10,-10,-12
-3,-5,-2,4,-1,-4,4,1,-12,-10,-10,-12
-4,-5,-2,5,-1,-4,4,1,-12,-9,-10,-11
-4,-5,-1,5,-2,-3,3,1,-12,-9,-10,-11
-6,-5,0,5,-3,-3,3,1,-11,-8,-9,-11
-7,-5,1,6,-4,-3,4,1,-11,-8,-9,-10
-6,-4,1,5,-4,-2,4,1,-11,-7,-8,-10
-5,-4,1,4,-3,-2,5,1,-10,-6,-7,-9
-6,-4,1,4,-4,-2,5,1,-10,-6,-7,-9
-6,-4,2,4,-4,-1,5,2,-9,-5,-6,-8
-6,-3,2,4,-4,-1,5,2,-9,-5,-6,-8
-7,-4,2,5,-5,-1,5,2,-9,-5,-6,-8
-7,-5,2,6,-5,-2,4,2,-10,-5,-6,-8
-6,-4,1,5,-4,-2,4,2,-10,-5,-6,-8
-5,-4,1,4,-3,-2,4,2,-10,-5,-5,-8
-5,-4,1,4,-3,-2,4,2,-10,-5,-5,-8
-4,-4,0,5,-2,-2,3,2,-10,-5,-6,-9
-4,-5,0,5,-2,-3,3,1,-11,-5,-6,-9
-4,-5,0,5,-2,-3,3,1,-11,-5,-6,-9
-4,-4,0,4,-2,-3,3,2,-11,-5,-6,-9
-5,-4,0,4,-2,-2,3,2,-11,-5,-5,-8
-6,-4,1,5,-3,-2,3,2,-11,-5,-5,-8
-6,-4,1,5,-4,-2,3,2,-11,-5,-5,-8
-5,-4,1,4,-4,-2,3,3,-11,-5,-5,-8
-6,-3,2,4,-4,-1,4,3,-11,-4,-5,-7
-7,-3,3,5,-5,-1,4,4,-11,-4,-5,-7
-7,-4,2,5,-5,-1,4,4,-11,-4,-5,-7
-6,-4,1,5,-4,-1,4,4,-12,-4,-5,-7
-5,-4,1,5,-4,-1,5,4,-12,-4,-5,-7
-6,-4,1,5,-4,-1,5,4,-12,-4,-5,-7
-6,-4,1,5,-4,-1,5,3,-12,-4,-5,-7
-5,-4,1,5,-3,-2,4,3,-12,-5,-5,-8
-5,-4,0,5,-3,-2,4,3,-12,-5,-6,-8
-5,-4,0,5,-3,-2,4,3,-12,-5,-6,-8
-5,-3,1,5,-3,-1,4,4,-12,-5,-6,-8
-5,-3,1,5,-3,-1,4,4,-12,-5,-6,-8
-5,-3,0,5,-3,-2,4,4,-13,-5,-6,-8
-5,-4,0,5,-2,-3,4,3,-13,-5,-6,-8
-5,-4,-1,5,-2,-3,4,3,-14,-5,-6,-8
-6,-5,0,5,-3,-3,4,3,-14,-5,-6,-8
-7,-5,0,6,-4,-3,4,4,-13,-5,-6,-8
-7,-5,1,6,-4,-2,5,4,-13,-5,-6,-8
-7,-5,1,6,-4,-2,5,4,-13,-5,-6,-8
-6,-5,0,6,-3,-3,5,4,-14,-5,-6,-9
-5,-6,-1,6,-2,-3,5,3,-14,-5,-6,-9
-5,-6,-2,5,-2,-4,5,3,-14,-5,-7,-9
-5,-6,-1,6,-2,-4,5,4,-14,-4,-7,-9
-6,-6,0,6,-3,-3,5,4,-13,-4,-6,-9
-7,-6,0,6,-4,-3,5,5,-13,-3,-6,-9
-7,-6,1,6,-4,-3,5,5,-13,-3,-6,-9
-7,-6,0,6,-4,-3,5,5,-13,-3,-6,-9
-7,-6,0,7,-4,-3,5,5,-13,-3,-6,-9
-7,-6,0,7,-4,-3,6,5,-13,-2,-6,-9
-7,-6,0,7,-4,-3,6,5,-13,-2,-5,-9
-7,-6,0,7,-4,-3,6,4,-13,-2,-5,-9
-7,-6,0,7,-4,-3,6,4,-13,-2,-5,-9
-6,-5,0,6,-3,-3,6,4,-13,-1,-5,-9
-5,-5,0,5,-2,-3,6,4,-13,-1,-5,-9
-5,-5,0,5,-3,-3,6,5,-13,-1,-5,-8
-6,-4,1,5,-4,-2,6,5,-12,0,-5,-8
-6,-4,1,5,-4,-1,6,5,-12,0,-4,-8
-6,-4,1,5,-4,-1,6,5,-12,0,-4,-8
-6,-4,1,5,-4,-1,6,5,-12,0,-4,-8
-5,-4,1,5,-3,-1,5,5,-12,0,-4,-8
-4,-4,0,4,-3,-1,5,5,-12,0,-4,-8
-3,-3,0,3,-2,-1,5,4,-11,1,-4,-7
-3,-2,0,2,-2,0,5,5,-11,1,-4,-7
-3,-1,1,2,-3,0,6,5,-10,2,-3,-7
-4,-1,1,2,-3,0,6,6,-10,2,-3,-6
-4,0,2,2,-3,1,6,6,-10,3,-3,-6
-4,0,3,2,-4,2,6,7,-10,3,-2,-5
-5,0,5,2,-5,3,6,7,-9,4,-2,-4
-7,0,6,3,-7,3,6,6,-9,4,-1,-3
-6,0,6,2,-7,4,5,5,-9,4,-1,-3
-5,1,5,1,-6,4,3,3,-9,4,-1,-3
-4,1,5,1,-6,3,2,2,-10,4,-1,-3
-5,0,5,2,-6,3,1,1,-10,4,-1,-3
-5,0,5,1,-5,3,0,1,-10,4,-1,-3
-3,1,4,0,-4,3,0,1,-10,4,-1,-3
-2,2,4,0,-3,3,0,1,-10,4,-1,-3
-2,3,5,-1,-3,4,1,1,-10,4,0,-3
-1,3,5,-2,-3,4,2,2,-10,4,0,-2
0,4,4,-2,-2,4,2,2,-10,4,0,-2
0,4,3,-2,-1,4,2,2,-10,4,0,-2
1,3,2,-2,-1,3,2,2,-11,4,0,-3
1,3,1,-2,0,2,1,1,-12,3,-1,-3
2,2,0,-2,0,1,1,1,-13,3,-1,-3
1,1,0,-1,0,0,1,0,-14,2,-2,-3
0,0,0,0,0,0,1,1,-14,2,-2,-4
-1,-1,0,0,0,0,2,1,-15,1,-2,-4
-1,-2,-1,1,0,-1,2,1,-16,0,-2,-5
-2,-3,-1,2,-1,-2,2,1,-16,0,-3,-6
-3,-4,-1,3,-1,-2,3,2,-17,-1,-3,-7
-3,-5,-2,3,-1,-3,3,3,-17,-1,-3,-7
-4,-5,-1,4,-2,-3,4,4,-17,-1,-3,-7
-5,-6,0,5,-2,-3,5,4,-17,-1,-3,-7
-5,-6,-1,5,-2,-4,5,4,-17,-1,-3,-7
-5,-6,-1,6,-2,-4,5,4,-18,-2,-4,-8
-5,-6,-1,6,-2,-4,5,4,-18,-2,-4,-8
-5,-6,-1,6,-2,-4,5,4,-18,-2,-4,-8
-5,-6,-1,6,-2,-4,4,4,-18,-2,-4,-8
-5,-7,-1,6,-2,-4,4,4,-18,-2,-4,-8
-5,-7,-1,6,-2,-4,4,4,-18,-2,-4,-8
-5,-7,-1,6,-2,-4,4,4,-18,-2,-4,-8
-5,-6,-1,5,-2,-3,5,4,-18,-2,-4,-8
-5,-6,0,5,-2,-3,5,4,-18,-2,-4,-8
-6,-6,0,6,-2,-3,5,4,-18,-2,-4,-8
-6,-6,-1,6,-2,-3,5,4,-18,-2,-4,-8
-5,-6,-1,5,-2,-3,5,4,-18,-2,-4,-8
-5,-6,-1,5,-1,-3,5,4,-18,-2,-4,-8
-5,-6,-1,6,-2,-3,5,4,-18,-2,-4,-8
-6,-7,-1,6,-2,-3,5,4,-18,-2,-4,-8
-6,-7,-1,7,-2,-4,5,4,-19,-3,-4,-8
-6,-7,-1,7,-2,-4,5,4,-19,-3,-4,-8
-6,-7,-1,7,-2,-4,5,4,-19,-3,-3,-8
-6,-6,-1,7,-2,-4,5,4,-19,-3,-3,-8
-7,-7,0,7,-3,-4,5,5,-19,-3,-3,-8
-7,-7,0,7,-4,-3,6,5,-19,-2,-3,-8
-6,-6,0,7,-3,-3,6,6,-18,-2,-2,-7
-6,-5,0,6,-2,-3,6,6,-18,-2,-2,-7
-6,-5,0,5,-2,-2,6,6,-18,-2,-2,-7
-6,-5,1,6,-3,-2,6,6,-18,-2,-2,-7
-7,-6,1,7,-4,-2,6,6,-18,-2,-2,-7
-7,-6,0,7,-3,-3,6,5,-19,-2,-2,-8
-6,-6,-1,6,-2,-3,5,5,-19,-3,-3,-8
-5,-6,-1,6,-2,-3,5,5,-19,-3,-3,-9
-6,-7,-1,7,-2,-3,6,6,-19,-3,-3,-9
-6,-7,-1,7,-2,-4,7,8,-19,-3,-3,-9
-5,-8,-2,7,0,-5,9,11,-19,-3,-4,-10
-5,-10,-5,7,1,-7,13,16,-19,-4,-5,-11
-5,-12,-7,8,1,-9,17,22,-19,-5,-6,-12
-6,-13,-9,9,2,-10,21,29,-18,-4,-6,-14
-5,-15,-11,10,3,-12,26,37,-16,-4,-6,-15
-3,-16,-13,10,5,-14,32,47,-14,-2,-6,-15
0,-16,-16,8,8,-15,39,60,-12,0,-5,-15
1,-16,-17,7,9,-16,47,74,-8,2,-3,-15
1,-16,-16,7,9,-16,55,86,-4,5,-1,-14
1,-13,-15,6,8,-14,62,97,1,10,2,-11
5,-7,-12,1,8,-9,66,101,7,17,8,-5
11,3,-8,-7,9,-2,62,95,12,25,17,3
18,17,-2,-17,10,7,50,79,15,35,29,16
25,34,8,-29,9,21,32,55,18,46,44,31
31,53,21,-41,5,37,9,23,20,57,59,49
35,73,38,-53,-1,56,-15,-14,22,67,75,68
37,93,56,-64,-9,75,-39,-49,24,76,90,86
38,111,73,-74,-17,92,-61,-80,26,84,103,101
36,127,90,-81,-26,108,-80,-105,27,90,115,114
34,136,102,-85,-33,119,-93,-122,28,94,122,122
30,137,106,-83,-37,121,-98,-127,25,92,120,121
23,128,105,-75,-41,116,-96,-123,20,81,107,110
13,113,100,-63,-43,107,-88,-112,12,63,85,89
5,96,91,-50,-42,94,-77,-97,4,43,60,66
0,80,80,-39,-39,80,-66,-82,-4,27,39,47
-2,65,68,-31,-34,67,-56,-68,-11,14,24,31
-5,51,57,-23,-31,55,-47,-53,-18,5,13,19
-9,37,47,-14,-28,42,-37,-38,-23,-1,5,9
-13,25,37,-6,-25,31,-28,-25,-27,-7,-1,0
-14,15,28,0,-21,22,-20,-13,-31,-11,-6,-6
-15,6,20,4,-18,13,-12,-4,-33,-14,-11,-11
-15,0,15,8,-15,7,-6,2,-35,-17,-14,-15
-15,-5,11,10,-12,3,0,7,-35,-18,-16,-18
-14,-7,7,11,-10,0,4,11,-35,-19,-17,-19
-13,-9,4,12,-8,-2,7,14,-34,-19,-16,-19
-11,-10,1,11,-6,-4,9,15,-32,-18,-15,-18
