leadI,leadII,leadIII,leadaVR,leadaVL,leadaVF,leadV1,leadV2,leadV3,leadV4,leadV5,leadV6
2,2,0,-2,1,1,0,4,3,2,1,1
5,6,1,-6,2,4,1,12,9,5,3,2
7,9,2,-9,2,6,1,16,12,7,4,3
9,12,4,-12,2,8,2,19,14,9,5,3
12,17,5,-16,3,11,2,20,16,11,5,4
16,21,5,-20,5,13,3,21,18,12,6,5
19,24,4,-22,7,14,3,21,18,13,7,6
19,23,4,-22,7,13,3,20,18,13,7,6
16,21,4,-19,6,12,2,20,16,12,7,6
13,17,4,-16,4,11,2,19,14,11,7,6
9,15,5,-13,2,10,2,18,13,10,6,5
7,15,7,-12,0,11,2,18,12,9,6,5
7,17,8,-13,-1,13,2,17,12,10,6,6
9,20,10,-15,-1,15,3,16,12,11,6,6
9,22,12,-16,-1,17,3,15,12,11,6,7
9,22,12,-16,-2,17,4,14,11,11,6,7
8,20,12,-14,-2,15,4,12,9,9,6,6
5,16,11,-11,-3,14,4,11,7,8,6,5
1,13,12,-9,-5,13,4,10,5,7,6,5
0,12,12,-8,-6,13,4,9,4,7,5,5
0,14,13,-8,-6,14,4,8,4,7,5,5
0,16,15,-9,-7,16,4,7,4,8,5,5
0,18,17,-10,-8,17,5,6,3,8,5,5
0,18,17,-10,-8,17,5,5,2,7,4,5
-1,16,17,-8,-9,16,5,4,1,6,4,4
-4,13,17,-5,-10,15,5,3,-1,5,3,4
-6,10,17,-2,-11,14,5,1,-2,4,3,4
-8,8,17,-1,-12,13,6,0,-3,3,2,4
-10,8,18,0,-14,14,6,0,-4,3,2,4
-10,10,20,-1,-14,15,7,0,-4,4,2,3
-9,11,21,-2,-15,16,7,-1,-4,4,2,3
-10,12,22,-2,-16,17,7,-1,-4,4,2,3
-11,12,22,-1,-17,17,8,-2,-4,4,2,3
-14,9,22,1,-18,16,8,-2,-5,3,2,3
-16,7,23,3,-19,15,8,-3,-7,2,2,3
-17,5,23,5,-20,15,9,-4,-8,2,2,2
-18,5,23,6,-20,15,9,-5,-8,1,2,2
-19,6,24,5,-21,15,9,-5,-8,1,2,2
-18,7,25,4,-22,16,9,-6,-8,1,1,2
-18,8,25,4,-22,16,9,-6,-8,1,1,2
-18,8,26,4,-23,16,9,-6,-9,1,1,2
-20,6,26,6,-23,16,10,-6,-9,1,1,2
-22,4,26,7,-24,15,10,-6,-9,1,1,2
-23,2,25,8,-24,15,10,-7,-9,0,1,1
-23,2,24,9,-23,14,10,-7,-10,0,0,1
-22,2,24,8,-23,14,10,-7,-10,0,0,1
-22,4,25,8,-24,14,10,-7,-10,0,0,1
-22,5,26,8,-24,15,11,-7,-10,0,0,1
-22,5,26,8,-25,15,11,-6,-10,0,0,1
-23,4,26,8,-25,15,11,-6,-10,0,0,1
-24,3,26,9,-26,15,11,-6,-10,0,0,1
-25,1,26,10,-26,15,11,-6,-10,0,0,1
-26,0,26,11,-26,15,11,-6,-10,0,0,1
-26,0,27,11,-26,15,11,-6,-10,0,0,1
-26,1,27,10,-26,15,11,-6,-10,0,0,1
-25,2,27,10,-26,15,11,-6,-10,0,0,2
-24,3,27,9,-26,15,11,-6,-10,1,0,2
-24,3,27,10,-26,15,11,-6,-10,1,0,2
-25,2,27,11,-26,15,11,-5,-10,1,0,2
-26,1,27,11,-27,15,11,-5,-9,1,0,2
-27,1,27,12,-27,15,11,-5,-9,1,0,2
-27,0,27,12,-27,15,12,-4,-9,1,0,2
-27,1,27,11,-27,15,12,-4,-9,1,0,2
-26,1,27,11,-27,15,12,-4,-9,1,0,2
-26,2,27,11,-27,15,12,-3,-9,1,0,2
-26,2,28,10,-27,15,12,-3,-8,1,0,2
-26,2,28,11,-27,15,13,-3,-8,1,0,2
-27,1,29,12,-28,15,13,-3,-8,1,0,2
-28,1,29,12,-28,15,13,-3,-8,1,0,2
-28,0,28,12,-28,15,13,-3,-7,1,0,2
-28,1,28,12,-28,15,13,-3,-7,1,1,2
-28,1,28,12,-28,15,13,-3,-7,1,1,2
-27,2,28,12,-28,15,13,-3,-7,1,1,1
-27,2,28,12,-28,15,13,-3,-7,1,1,1
-27,2,28,12,-28,15,13,-3,-7,1,1,1
-27,1,28,12,-28,15,13,-3,-7,1,1,1
-27,1,28,12,-28,15,13,-3,-7,1,1,1
-27,1,28,12,-28,15,13,-3,-7,1,1,1
-28,1,28,12,-28,15,14,-2,-6,1,1,1
-29,1,29,12,-29,16,14,-2,-6,2,2,1
-29,1,30,12,-30,16,15,-1,-5,2,2,1
-29,1,29,12,-29,16,15,-2,-5,2,2,1
-28,1,29,12,-28,16,15,-2,-5,2,2,1
-28,1,29,13,-28,16,15,-1,-5,2,2,1
-29,1,29,13,-29,16,15,-1,-5,2,2,1
-29,1,29,13,-29,16,15,-1,-5,2,2,1
-29,1,29,13,-29,15,15,-1,-5,1,1,1
-29,1,29,13,-29,15,15,-1,-5,1,1,1
-29,1,30,13,-29,16,15,-1,-5,2,1,1
-29,1,30,13,-30,16,15,-1,-4,2,1,1
-30,1,30,13,-30,16,15,-1,-4,2,1,2
-30,1,31,13,-30,16,15,-1,-4,2,1,2
-30,1,30,13,-30,16,15,-1,-4,2,1,2
-30,1,30,14,-30,16,15,0,-4,2,1,2
-30,1,30,14,-30,16,15,0,-4,2,1,2
-30,1,30,14,-30,16,15,0,-4,2,1,2
-29,0,29,14,-29,16,15,0,-4,1,1,1
-29,0,29,14,-29,16,15,0,-4,1,1,1
-29,0,29,14,-29,16,15,0,-4,1,1,1
-29,0,29,14,-29,16,15,0,-4,1,0,1
-29,0,29,14,-29,15,15,0,-5,1,0,2
-29,0,28,14,-29,15,15,-1,-5,1,0,2
-30,0,29,14,-29,15,15,-1,-4,1,0,2
-30,0,29,14,-30,16,15,-1,-4,1,0,2
-30,0,30,14,-30,16,15,-1,-4,2,0,2
-31,0,30,15,-30,16,15,-1,-4,2,1,2
-31,0,30,15,-30,16,15,-1,-4,2,1,2
-30,0,30,14,-29,16,15,-1,-4,2,1,2
-29,0,29,14,-29,15,14,-2,-5,2,1,2
-29,0,29,14,-29,15,14,-2,-5,2,1,2
-29,0,29,14,-30,15,14,-2,-5,2,1,2
-30,0,30,15,-30,15,14,-2,-5,2,1,2
-30,0,30,15,-31,15,14,-2,-5,2,1,2
-30,0,29,15,-30,15,14,-2,-5,1,1,2
-30,0,29,15,-30,15,14,-2,-5,1,1,2
-30,0,29,14,-29,15,14,-2,-5,1,1,2
-30,0,29,14,-29,15,14,-2,-5,1,1,2
-30,-1,29,15,-29,15,14,-2,-5,1,1,2
-30,-1,29,15,-30,15,14,-3,-5,1,1,2
-31,-1,29,15,-30,15,14,-3,-5,1,1,2
-31,-1,30,15,-31,15,14,-3,-5,1,1,2
-31,-1,30,15,-31,15,14,-3,-5,1,1,2
-32,-1,30,15,-31,15,14,-3,-5,1,1,2
-32,-1,30,15,-31,15,14,-3,-5,1,1,2
-32,-1,30,16,-31,15,14,-3,-5,1,1,2
-32,-1,30,16,-31,15,14,-3,-5,1,1,2
-32,-1,30,16,-31,15,14,-3,-6,0,1,2
-32,-1,30,16,-31,15,14,-3,-6,0,1,2
-31,-1,29,16,-30,15,14,-3,-6,0,1,2
-31,-1,29,16,-30,15,14,-3,-6,0,1,1
-31,-2,29,16,-30,15,14,-3,-6,0,1,1
-31,-2,29,16,-30,15,14,-3,-6,0,1,1
-32,-2,30,16,-31,15,14,-3,-6,0,1,1
-32,-2,30,17,-31,15,14,-3,-6,0,1,1
-32,-2,29,16,-30,14,13,-3,-7,0,1,1
-31,-2,28,16,-30,14,13,-3,-7,0,1,1
-32,-2,29,16,-30,14,14,-2,-7,0,1,1
-32,-3,29,17,-30,14,14,-2,-7,0,1,1
-31,-3,28,17,-30,14,13,-2,-7,0,1,0
-32,-3,28,17,-30,14,13,-2,-7,0,1,0
-32,-3,28,17,-30,14,13,-2,-7,0,1,0
-32,-3,28,17,-30,13,13,-2,-7,0,1,0
-32,-3,28,17,-30,13,13,-2,-7,0,1,0
-32,-3,28,16,-30,13,13,-2,-7,0,1,1
-31,-3,28,16,-30,13,13,-2,-7,0,1,1
-31,-3,28,17,-30,13,13,-2,-7,0,1,1
-32,-3,28,17,-30,13,13,-2,-7,0,1,1
-31,-3,28,17,-30,13,13,-2,-7,0,1,1
-30,-3,27,16,-28,13,13,-2,-7,0,1,1
-29,-2,26,15,-28,13,13,-2,-7,0,1,1
-30,-2,27,15,-29,13,13,-2,-7,0,2,1
-31,-1,29,15,-30,14,13,-2,-6,1,2,1
-31,0,31,15,-31,16,14,-1,-6,1,3,2
-32,1,33,15,-32,18,14,-1,-5,2,4,3
-32,2,34,14,-33,19,15,-1,-4,3,4,4
-31,3,34,14,-33,19,15,-1,-4,3,5,4
-31,3,34,13,-32,20,15,-1,-3,3,5,4
-30,3,34,12,-32,20,15,0,-3,3,5,4
-30,3,34,12,-32,20,15,0,-3,3,5,4
-31,3,34,13,-32,20,15,0,-3,3,5,4
-32,3,35,14,-33,20,15,0,-3,3,5,4
-32,3,35,14,-33,20,15,0,-3,3,5,4
-30,3,34,13,-32,19,15,0,-3,3,4,4
-29,4,33,12,-31,19,14,0,-3,3,4,5
-28,4,32,11,-31,20,14,0,-2,4,5,5
-27,5,32,11,-30,20,14,0,-1,5,6,6
-27,5,32,10,-29,20,14,0,0,5,6,6
-26,5,32,9,-29,20,13,-1,0,6,7,6
-26,5,31,9,-29,20,12,-1,0,6,7,6
-26,5,31,9,-29,19,11,-1,0,6,7,6
-26,5,30,10,-28,19,11,-1,0,6,7,6
-26,5,30,10,-28,18,11,-1,0,5,6,6
-26,4,29,10,-28,17,11,-1,-1,5,6,6
-25,3,28,10,-27,16,11,-1,-1,4,5,6
-25,2,27,10,-27,16,11,-1,-1,3,5,5
-24,2,27,10,-26,15,11,-1,-1,3,5,5
-24,2,26,10,-25,15,11,-1,-2,3,4,5
-24,1,25,11,-25,14,11,-1,-2,3,4,4
-24,1,24,11,-24,14,11,-1,-3,3,4,4
-24,0,24,11,-24,13,11,-1,-3,2,4,3
-24,0,23,12,-24,12,11,-1,-3,2,3,3
-24,-1,23,12,-24,12,11,-1,-3,2,3,3
-26,-2,24,13,-26,12,11,0,-3,2,3,3
-29,-3,26,15,-28,12,12,0,-3,2,3,3
-31,-3,27,16,-29,12,12,-1,-3,1,3,3
-31,-3,27,17,-30,12,12,-1,-4,0,2,3
-31,-4,27,18,-30,13,13,-2,-5,0,2,2
-32,-4,27,18,-30,13,13,-2,-5,0,2,2
-32,-5,27,18,-30,12,13,-2,-5,0,1,2
-33,-5,28,18,-31,12,13,-2,-6,0,1,2
-34,-5,28,19,-31,12,13,-2,-6,0,1,1
-34,-6,28,19,-32,12,13,-3,-6,-1,1,1
-34,-6,28,19,-31,11,12,-3,-7,-2,0,0
-35,-6,28,20,-31,11,12,-4,-8,-2,0,0
-35,-7,28,20,-32,11,12,-4,-8,-2,0,0
-35,-7,27,21,-31,11,12,-4,-9,-3,0,0
-34,-7,26,21,-31,10,12,-4,-9,-3,0,0
-34,-8,26,21,-31,10,12,-4,-9,-3,0,0
-35,-8,26,21,-31,10,12,-4,-8,-3,0,0
-35,-8,26,21,-31,10,12,-4,-8,-3,0,0
-35,-8,26,21,-31,9,12,-4,-8,-3,-1,0
-35,-8,26,21,-31,9,12,-4,-9,-3,-1,-1
-35,-8,26,21,-31,9,12,-4,-9,-3,-1,-1
-35,-8,27,21,-31,10,12,-3,-8,-3,-1,-1
-35,-8,27,21,-32,11,12,-3,-8,-3,0,-1
-36,-8,28,22,-32,11,13,-3,-8,-3,0,-1
-36,-8,28,22,-32,11,13,-3,-9,-3,0,-1
-36,-8,27,22,-32,10,12,-4,-9,-4,0,-1
-36,-8,27,22,-31,10,12,-4,-10,-4,0,-1
-36,-8,27,22,-31,9,12,-4,-10,-4,0,-1
-36,-8,27,22,-32,9,12,-4,-10,-4,-1,-1
-36,-8,27,22,-32,9,12,-4,-10,-4,-1,-1
-36,-8,27,22,-32,9,12,-4,-10,-5,-1,-1
-36,-9,27,22,-32,9,12,-4,-10,-5,-1,-1
-37,-9,27,22,-32,9,12,-4,-10,-5,-1,-1
-36,-9,27,22,-32,9,12,-4,-9,-5,-1,-1
-36,-9,26,23,-32,9,12,-4,-9,-4,-1,0
-37,-9,26,23,-32,9,13,-3,-9,-4,-1,0
-37,-9,27,23,-33,9,13,-3,-9,-3,-1,0
-37,-10,27,23,-33,9,14,-3,-9,-3,-1,0
-37,-10,27,23,-33,9,14,-3,-9,-3,-1,0
-38,-10,28,23,-33,9,14,-3,-9,-3,-1,0
-38,-10,28,23,-33,9,14,-3,-9,-3,0,0
-38,-10,28,23,-33,9,14,-3,-9,-3,0,0
-38,-10,28,23,-33,9,14,-3,-9,-4,0,0
-38,-10,28,23,-33,9,14,-3,-9,-4,0,0
-37,-10,27,23,-32,9,14,-3,-10,-5,0,0
-37,-10,27,23,-32,9,14,-3,-10,-5,0,0
-37,-10,27,23,-32,9,14,-2,-10,-5,0,0
-37,-10,27,23,-32,9,14,-2,-10,-5,-1,0
-36,-10,26,23,-31,9,14,-1,-10,-5,-1,0
-37,-10,27,23,-32,9,15,0,-10,-5,-1,0
-38,-10,28,24,-33,9,16,2,-8,-5,-1,0
-38,-10,28,23,-33,9,17,5,-6,-5,-1,0
-38,-9,29,23,-33,10,19,9,-4,-4,0,0
-38,-8,30,23,-34,11,21,11,-1,-2,1,0
-39,-6,33,22,-36,14,22,13,3,1,3,2
-38,-3,35,21,-36,16,22,14,8,6,7,5
-34,0,35,17,-35,18,23,17,15,12,12,8
-30,4,35,13,-32,20,24,22,24,19,17,11
-25,8,34,8,-29,21,25,29,37,28,23,15
-18,13,32,1,-25,23,25,33,52,38,30,19
-10,20,30,-6,-19,25,20,29,66,50,38,24
0,27,28,-14,-14,28,9,16,78,62,46,30
8,35,27,-22,-9,32,-4,-3,88,74,55,36
17,44,27,-31,-5,37,-18,-23,97,87,65,44
25,54,29,-40,-2,43,-32,-44,104,100,75,52
33,65,31,-49,0,49,-46,-67,106,111,85,60
40,75,34,-58,3,55,-62,-93,102,120,94,68
48,84,36,-67,6,61,-78,-118,93,125,100,75
56,91,36,-75,10,64,-94,-143,79,126,104,81
61,95,34,-79,14,65,-109,-164,61,120,102,82
63,90,28,-78,18,59,-119,-176,42,105,92,78
60,75,16,-69,23,46,-121,-175,21,78,72,65
56,56,0,-56,28,29,-118,-167,1,48,47,47
50,38,-11,-45,30,14,-116,-160,-19,22,26,32
42,24,-18,-33,29,4,-114,-156,-40,2,10,20
30,12,-18,-22,24,-2,-110,-152,-61,-15,-2,11
15,2,-13,-10,14,-4,-102,-146,-80,-28,-11,4
0,-6,-6,1,3,-6,-91,-134,-93,-38,-18,-1
-12,-14,-2,12,-4,-8,-77,-119,-99,-45,-23,-7
-21,-20,0,20,-11,-9,-62,-102,-98,-49,-27,-11
-29,-25,4,26,-17,-9,-48,-86,-92,-49,-28,-14
-35,-27,8,30,-22,-8,-36,-71,-83,-46,-27,-14
-37,-26,10,31,-24,-6,-27,-57,-73,-43,-25,-14
-37,-25,12,30,-25,-5,-18,-45,-62,-38,-23,-13
-37,-23,14,29,-26,-4,-11,-34,-52,-33,-20,-12
-37,-21,15,28,-26,-3,-5,-25,-44,-28,-17,-10
-36,-20,16,27,-26,-2,-1,-19,-36,-24,-14,-9
-36,-18,17,26,-26,0,3,-14,-30,-20,-11,-7
-35,-17,18,25,-27,1,6,-10,-26,-17,-8,-6
-34,-15,19,24,-27,3,8,-8,-22,-15,-7,-5
-34,-14,20,24,-27,4,10,-5,-19,-13,-6,-5
-34,-13,22,23,-28,6,12,-3,-15,-12,-5,-4
-35,-13,23,23,-29,6,13,0,-12,-10,-4,-4
-35,-12,23,22,-29,6,15,1,-10,-9,-4,-4
-35,-12,23,22,-28,6,16,3,-9,-8,-3,-4
-35,-12,22,22,-28,6,17,4,-7,-7,-3,-3
-35,-12,22,22,-28,6,18,5,-6,-6,-2,-3
-34,-11,22,22,-28,6,18,6,-5,-5,-1,-3
-34,-11,23,22,-29,7,18,7,-4,-4,0,-2
-34,-11,23,22,-29,7,18,7,-3,-4,0,-2
-34,-11,23,22,-29,7,19,8,-2,-3,0,-2
-34,-10,24,22,-29,7,19,9,-2,-3,0,-2
-34,-10,24,22,-29,7,20,10,-1,-3,0,-1
-34,-10,24,21,-29,7,20,10,-1,-3,1,-1
-34,-10,24,21,-28,7,20,11,-1,-2,1,0
-32,-9,23,20,-27,7,20,11,-1,-2,1,0
-31,-9,22,19,-26,7,20,11,-1,-2,1,-1
-30,-9,22,19,-26,7,20,12,0,-2,1,-1
-30,-8,22,19,-26,8,20,12,0,-2,2,0
-31,-8,23,19,-27,8,20,13,1,-1,2,0
-31,-8,23,19,-27,8,20,13,1,-1,2,0
-31,-8,23,19,-27,8,20,13,1,-1,3,0
-30,-8,22,18,-26,8,20,13,0,-1,3,0
-30,-8,22,18,-26,8,19,13,0,-1,3,0
-29,-7,22,18,-26,8,19,13,1,0,3,1
-29,-7,22,18,-26,8,19,14,1,0,3,1
-29,-7,22,18,-26,8,19,14,2,0,3,1
-29,-7,22,18,-26,8,19,15,3,0,3,2
-29,-7,21,17,-25,7,19,15,3,0,3,2
-28,-7,20,17,-25,7,19,15,3,0,2,2
-28,-7,21,17,-25,8,19,15,4,0,2,2
-28,-7,21,17,-25,8,19,16,5,1,2,3
-28,-7,21,16,-25,8,19,16,5,1,2,3
-27,-7,20,16,-24,7,19,16,5,1,2,3
-26,-7,19,16,-23,7,19,16,6,1,3,3
-26,-7,19,16,-23,7,19,16,6,1,3,3
-25,-6,19,15,-22,7,19,16,6,1,4,3
-25,-6,19,15,-22,7,19,16,7,1,4,3
-25,-6,19,15,-22,7,19,17,7,1,4,3
-25,-6,19,15,-22,7,19,17,8,1,4,3
-25,-6,19,15,-22,7,19,17,8,2,4,3
-25,-6,19,15,-22,7,19,18,9,2,4,3
-25,-5,19,14,-22,7,19,18,9,3,5,4
-24,-4,19,13,-21,7,18,18,10,3,5,4
-23,-4,19,13,-21,7,18,19,10,3,5,5
-23,-4,19,12,-21,7,18,19,11,3,5,5
-22,-4,18,12,-20,7,18,19,11,3,5,5
-21,-4,18,11,-20,7,18,20,12,3,5,5
-22,-3,18,11,-20,8,18,20,13,4,5,6
-22,-3,19,11,-21,8,18,21,14,4,6,6
-22,-3,19,11,-21,8,18,22,15,5,6,6
-21,-3,19,11,-20,8,17,23,15,5,6,6
-20,-3,18,11,-19,8,17,24,16,5,6,6
-19,-2,17,10,-18,8,17,25,16,5,7,7
-19,-2,17,10,-18,8,17,25,17,5,7,7
-18,-2,16,10,-17,8,17,26,17,6,7,7
-17,-1,16,9,-17,8,17,27,18,6,7,7
-17,-1,16,9,-17,8,16,28,19,7,7,8
-16,-1,16,8,-17,8,16,28,20,7,8,8
-15,-1,15,7,-16,8,15,29,21,7,8,8
-14,-1,15,7,-15,8,15,30,22,8,8,8
-14,0,15,6,-15,8,15,31,23,8,9,9
-15,0,16,6,-15,8,15,32,24,9,10,10
-15,1,16,6,-16,9,15,33,25,10,10,11
-15,1,16,5,-16,9,15,34,26,11,11,11
-15,1,15,5,-15,9,15,35,26,11,11,11
-14,2,15,5,-15,9,15,35,27,12,11,12
-14,2,15,5,-14,9,15,36,28,12,11,12
-12,2,15,4,-13,9,14,37,29,13,12,13
-10,3,14,3,-12,9,14,37,30,13,12,14
-9,3,13,2,-11,9,13,38,31,13,12,14
-8,4,13,1,-10,9,12,38,32,14,13,15
-8,5,14,0,-10,10,12,39,33,15,13,15
-7,6,14,0,-10,10,12,39,34,15,13,15
-7,7,14,0,-10,10,11,39,34,16,14,15
-7,7,13,0,-10,10,11,39,35,16,14,15
-7,7,14,-1,-10,11,10,39,35,17,15,15
-6,7,14,-1,-10,11,10,40,36,17,16,16
-6,7,13,-2,-9,11,10,39,36,17,16,16
-5,7,13,-2,-9,11,9,39,37,18,16,16
-5,8,13,-2,-9,11,9,39,37,18,16,16
-4,8,13,-3,-8,11,8,38,37,19,16,16
-3,8,12,-3,-8,11,8,38,37,19,16,16
-3,8,12,-3,-7,11,8,37,37,19,16,17
-3,8,12,-3,-7,10,8,37,37,19,16,17
-3,8,12,-4,-7,10,7,36,37,18,16,17
-3,8,12,-4,-8,11,7,36,36,18,17,18
-4,8,13,-4,-8,11,7,35,36,18,17,18
-4,8,13,-4,-8,11,7,35,35,18,17,18
-4,9,14,-4,-9,11,7,34,35,18,17,18
-4,9,14,-4,-9,12,7,34,34,18,17,18
-4,9,13,-4,-9,12,6,33,34,18,17,18
-5,9,14,-3,-9,12,6,33,33,18,17,18
-6,9,14,-3,-10,13,6,32,33,17,17,18
-6,9,14,-2,-10,12,6,32,32,17,17,18
-6,9,14,-2,-10,12,6,31,31,16,16,18
-6,8,14,-2,-10,12,6,30,30,15,16,18
-6,8,14,-1,-10,12,6,29,29,15,15,18
-7,7,15,-1,-11,12,6,28,28,14,15,17
-7,7,15,-1,-11,12,6,27,27,14,15,17
-8,7,15,-1,-11,12,6,26,26,13,14,17
-8,7,15,0,-11,12,6,25,25,13,14,17
-8,6,15,0,-11,11,6,24,23,12,13,16
-9,6,15,0,-12,11,6,23,22,11,13,16
-10,5,16,1,-13,11,6,22,21,10,12,16
-11,5,16,2,-13,11,6,21,19,10,12,15
-12,4,16,2,-14,11,6,20,18,9,11,15
-13,4,16,3,-14,11,7,19,16,9,11,14
-13,3,16,4,-15,11,7,18,15,9,11,14
-13,3,17,4,-15,10,7,17,14,9,11,15
-13,3,16,4,-14,10,7,16,13,8,10,14
-13,2,15,4,-14,9,7,15,11,7,10,14
-13,2,15,4,-14,8,7,14,10,6,9,13
-14,2,15,5,-14,8,7,13,8,5,9,12
-15,1,16,6,-15,8,7,12,7,5,9,12
-15,1,16,6,-15,8,7,11,5,4,8,12
-16,1,16,6,-16,8,7,11,4,4,8,11
-17,0,17,7,-17,8,7,10,4,4,8,11
-18,0,18,8,-18,8,8,9,3,4,8,11
-19,-1,17,8,-18,8,8,8,2,3,8,11
-19,-2,16,9,-17,7,8,7,1,2,7,10
-19,-2,16,9,-17,7,8,7,0,1,6,10
-19,-3,15,9,-17,6,9,6,0,0,5,9
-19,-3,15,10,-17,6,9,6,-1,0,5,9
-19,-4,15,11,-17,6,9,5,-1,0,4,9
-18,-4,13,10,-16,5,8,5,-2,0,3,8
-18,-4,13,10,-15,4,8,4,-2,-1,3,7
-20,-5,14,11,-17,5,9,4,-3,-1,3,7
-21,-5,15,12,-17,5,9,4,-3,-1,3,7
-21,-6,14,12,-17,4,9,3,-4,-2,3,7
-21,-6,14,12,-17,5,10,3,-4,-2,3,7
-21,-6,15,12,-17,5,10,3,-5,-2,3,7
-21,-6,15,12,-17,5,10,3,-5,-2,3,7
-21,-6,14,12,-17,4,10,2,-5,-2,2,6
-20,-7,14,12,-17,4,10,2,-5,-2,2,6
-20,-7,13,13,-17,4,10,2,-5,-2,2,6
-21,-7,13,13,-17,4,10,2,-5,-3,2,6
-21,-7,14,13,-17,4,10,2,-5,-3,2,6
-21,-7,14,13,-17,4,10,2,-6,-3,2,5
-21,-7,13,13,-17,3,10,2,-6,-4,2,5
-21,-8,13,14,-17,3,10,2,-6,-4,1,5
-21,-8,13,14,-17,3,10,2,-6,-3,1,5
-21,-8,13,14,-17,3,10,2,-6,-3,1,5
-21,-8,13,14,-17,3,10,2,-6,-3,1,5
-21,-8,13,13,-17,3,10,2,-7,-3,1,5
-21,-8,13,13,-17,3,10,2,-7,-3,1,5
-22,-8,14,14,-17,4,10,3,-7,-3,2,5
-22,-8,14,14,-18,4,11,3,-6,-3,2,5
-23,-8,14,14,-18,4,11,3,-6,-3,2,5
-23,-8,14,14,-18,4,11,3,-6,-3,2,5
-22,-8,14,14,-18,4,11,3,-6,-3,2,5
-22,-8,14,14,-18,3,11,3,-6,-3,2,5
-22,-8,14,14,-18,3,11,3,-6,-3,2,5
-22,-8,14,14,-18,3,11,3,-6,-3,2,5
-21,-8,12,14,-16,2,11,3,-6,-4,1,5
-20,-8,11,13,-15,2,11,3,-6,-4,1,4
-20,-8,11,13,-15,2,11,3,-6,-4,1,4
-20,-8,11,13,-16,2,11,3,-6,-4,1,4
-21,-8,12,13,-16,2,11,3,-6,-4,1,4
-21,-8,12,13,-16,2,11,3,-6,-4,1,4
-21,-8,13,13,-16,2,11,3,-5,-3,2,4
-21,-8,13,14,-17,3,11,3,-5,-3,2,4
-21,-8,13,14,-17,3,11,3,-5,-3,2,4
-21,-8,13,14,-17,3,11,3,-5,-3,2,4
-21,-8,13,14,-17,3,11,4,-4,-3,2,4
-21,-8,13,14,-17,3,11,4,-4,-3,2,4
-21,-8,13,14,-16,3,11,4,-3,-3,2,4
-20,-8,12,14,-16,3,11,4,-3,-3,2,4
-20,-8,12,14,-15,2,11,4,-3,-3,2,4
-20,-8,12,14,-15,2,11,4,-3,-3,2,5
-20,-8,12,13,-15,2,11,4,-3,-3,2,5
-20,-8,12,13,-15,2,11,4,-3,-3,2,5
-20,-8,12,13,-15,2,11,4,-3,-3,2,5
-20,-8,12,13,-15,1,11,4,-3,-3,2,5
-20,-8,11,13,-15,1,11,5,-3,-2,3,5
-20,-8,11,13,-15,1,11,5,-3,-2,3,5
-19,-8,10,13,-14,1,11,5,-3,-2,2,5
-19,-8,10,13,-14,1,11,5,-3,-3,2,4
-18,-8,10,12,-14,1,11,6,-3,-3,2,4
-18,-8,10,12,-14,1,11,6,-3,-3,2,4
-18,-8,10,12,-13,1,11,6,-4,-3,2,4
-18,-8,10,12,-13,1,10,6,-4,-3,2,4
-18,-8,10,12,-13,1,10,6,-4,-4,2,4
-18,-8,10,12,-13,1,9,6,-5,-4,2,4
-18,-7,11,12,-14,2,9,6,-5,-3,2,4
-19,-7,12,12,-14,2,9,6,-5,-3,3,4
-19,-7,12,12,-14,2,9,6,-5,-3,3,4
-18,-7,11,12,-14,2,9,6,-5,-3,3,4
-17,-7,10,11,-13,1,9,5,-5,-3,2,4
-17,-7,9,11,-12,1,9,5,-6,-3,2,4
-18,-7,10,12,-13,1,9,5,-5,-3,3,4
-19,-7,11,12,-14,2,9,5,-5,-3,3,4
-18,-7,11,12,-14,1,9,5,-5,-3,2,4
-17,-7,10,11,-13,1,9,4,-6,-3,2,3
-17,-8,10,11,-13,1,9,4,-6,-3,2,3
-18,-8,10,12,-14,1,9,4,-6,-3,2,4
-18,-8,10,12,-14,1,9,4,-6,-3,2,4
-17,-8,10,12,-13,1,9,4,-6,-3,2,4
-17,-8,9,11,-12,0,9,4,-6,-3,2,4
-17,-8,9,11,-12,0,9,3,-7,-3,2,4
-18,-8,10,12,-13,1,9,3,-7,-3,3,4
-18,-8,10,12,-14,1,9,3,-7,-3,3,4
-18,-8,10,12,-13,1,8,3,-7,-4,2,4
-17,-7,9,11,-13,1,8,3,-7,-4,2,4
-17,-7,9,11,-13,1,8,3,-7,-4,2,4
-17,-7,9,11,-13,1,8,3,-7,-4,2,4
-17,-7,9,11,-13,1,8,3,-7,-4,2,4
-18,-7,10,11,-13,1,8,4,-7,-4,2,4
-18,-7,11,12,-14,2,8,4,-7,-4,2,4
-18,-8,11,12,-14,1,8,4,-7,-4,2,4
-18,-8,10,12,-14,1,9,4,-7,-4,2,3
-18,-8,10,12,-14,1,9,4,-7,-4,2,3
-18,-8,10,12,-14,1,9,4,-7,-4,2,3
-19,-8,10,12,-14,1,9,5,-7,-4,2,3
-19,-8,10,12,-14,1,9,5,-7,-4,2,3
-19,-8,10,12,-14,1,9,4,-7,-4,1,3
-18,-8,10,12,-14,0,9,4,-7,-4,1,4
-18,-8,9,12,-13,0,9,4,-8,-4,1,4
-17,-8,9,12,-13,0,9,4,-8,-4,1,4
-18,-8,9,12,-13,0,9,4,-8,-4,1,4
-18,-9,9,13,-13,0,9,4,-8,-4,1,4
-19,-9,9,13,-14,0,9,4,-8,-4,1,4
-19,-9,9,13,-14,0,9,4,-8,-4,1,4
-19,-9,9,13,-14,0,9,4,-8,-4,1,4
-19,-9,9,13,-14,0,9,4,-8,-4,1,4
-19,-9,9,13,-14,0,9,5,-8,-4,1,4
-18,-9,9,13,-14,0,9,5,-8,-4,1,4
-18,-9,8,13,-13,0,9,5,-8,-4,1,3
-17,-9,8,13,-13,0,9,5,-8,-5,1,3
-17,-9,8,12,-12,0,9,5,-8,-5,1,3
-17,-9,8,12,-12,0,9,4,-8,-5,1,3
-17,-9,8,12,-12,0,9,4,-8,-5,1,3
-18,-9,8,12,-13,0,9,4,-8,-4,1,4
-18,-9,8,12,-13,0,9,4,-8,-4,1,4
-17,-9,8,12,-12,0,8,4,-8,-4,1,4
-16,-9,7,12,-12,0,8,4,-8,-5,1,4
-16,-9,7,12,-12,0,8,4,-8,-5,1,3
-16,-8,7,12,-12,0,8,4,-8,-5,1,3
-16,-8,8,11,-12,0,8,4,-8,-4,1,4
-16,-7,8,11,-12,0,8,4,-8,-4,1,4
-16,-7,9,10,-12,1,8,4,-7,-4,1,4
-16,-6,10,10,-13,2,8,4,-7,-4,2,4
-16,-5,11,9,-13,3,9,5,-6,-3,2,5
-16,-4,11,8,-13,4,9,5,-6,-3,3,6
-15,-3,11,8,-13,4,9,5,-5,-2,3,6
-14,-3,11,7,-12,4,9,5,-5,-2,4,6
-13,-2,10,6,-11,4,9,5,-6,-2,4,6
-12,-2,10,6,-11,4,8,5,-6,-2,4,6
-13,-2,11,7,-12,5,8,5,-6,-2,4,6
-14,-2,11,7,-12,5,8,5,-6,-2,4,6
-13,-2,11,7,-12,4,8,5,-6,-2,4,6
-13,-2,10,6,-12,4,7,5,-6,-2,4,6
-12,-1,10,6,-11,4,7,5,-6,-2,4,7
-11,0,10,5,-11,5,6,5,-6,-2,5,7
-11,0,11,4,-11,6,6,5,-5,-1,6,8
-11,1,12,4,-11,6,6,5,-4,0,6,9
-10,1,12,4,-11,7,5,5,-4,0,7,9
-10,1,11,4,-11,7,5,5,-3,0,7,9
-10,1,10,4,-10,6,4,5,-3,0,7,9
-10,1,9,4,-9,5,4,5,-3,0,6,8
-10,0,8,4,-9,4,4,4,-4,0,6,8
-10,-1,8,4,-8,3,4,4,-4,-1,6,7
-10,-1,7,4,-8,3,4,4,-4,-1,5,7
-9,-2,7,4,-8,3,4,4,-4,-1,5,7
-9,-2,6,4,-8,2,4,4,-4,-1,5,7
-8,-2,5,4,-7,2,4,4,-4,-1,5,6
-8,-2,4,4,-6,1,4,4,-5,-1,4,6
-8,-3,4,5,-6,1,4,4,-5,-1,4,6
-9,-4,4,5,-6,0,4,4,-5,-1,4,6
-10,-5,4,6,-7,0,5,4,-5,-2,4,6
-10,-5,4,6,-7,0,5,5,-5,-2,4,6
-11,-5,6,7,-8,0,6,5,-5,-2,4,6
-12,-5,7,8,-10,1,6,6,-5,-2,4,6
-13,-5,7,8,-10,1,7,5,-5,-3,3,5
-13,-6,7,9,-10,1,7,5,-6,-3,3,5
-14,-6,7,9,-10,1,7,5,-6,-4,3,4
-15,-7,7,10,-11,1,7,5,-7,-4,2,4
-16,-7,7,10,-11,1,7,5,-7,-4,2,4
-17,-8,7,11,-12,0,7,5,-7,-4,2,4
-17,-9,7,11,-12,0,7,5,-8,-5,1,3
-17,-10,6,12,-12,-1,7,4,-8,-5,1,3
-17,-10,6,12,-12,-1,7,4,-9,-6,0,2
-17,-10,5,13,-12,-2,7,4,-9,-6,0,2
-17,-10,5,13,-12,-2,7,4,-10,-7,0,1
-17,-11,5,13,-12,-2,7,4,-10,-7,0,1
-17,-11,5,13,-11,-2,7,4,-10,-7,0,1
-16,-11,4,13,-11,-3,7,4,-10,-7,-1,1
-15,-11,3,13,-10,-3,7,4,-10,-7,-1,1
-15,-11,3,13,-9,-3,6,3,-10,-7,-1,1
-16,-11,4,13,-10,-3,6,3,-10,-7,-1,1
-16,-11,4,13,-11,-3,6,3,-10,-8,-1,0
-16,-11,4,13,-11,-3,6,3,-11,-8,-1,0
-17,-11,5,13,-11,-3,6,3,-11,-8,-1,0
-17,-11,5,13,-11,-2,7,3,-11,-8,-1,0
-17,-11,5,13,-11,-2,7,3,-11,-8,-1,0
-17,-11,5,13,-11,-2,7,3,-11,-8,-1,0
-17,-11,5,14,-11,-2,7,3,-11,-8,-1,0
-17,-11,5,14,-11,-2,7,3,-11,-8,-1,0
-17,-11,5,14,-11,-2,7,3,-11,-8,-1,0
-17,-12,5,14,-12,-2,7,3,-11,-8,-1,0
-18,-12,5,14,-12,-2,7,3,-11,-8,-1,0
-18,-12,5,14,-13,-2,7,3,-11,-8,-1,0
-18,-12,5,14,-13,-2,7,3,-11,-8,-1,0
-17,-12,4,14,-12,-3,7,3,-11,-8,-1,0
-16,-12,3,14,-10,-3,7,3,-11,-8,-2,0
-16,-12,3,14,-10,-3,7,3,-11,-8,-2,0
-16,-12,4,14,-11,-3,7,3,-11,-8,-2,0
-17,-12,4,14,-11,-3,7,3,-11,-8,-1,0
-17,-12,5,14,-12,-3,7,3,-11,-8,-1,0
-17,-12,5,14,-12,-3,7,3,-10,-8,-1,0
-17,-12,5,14,-12,-2,7,3,-10,-8,-1,0
-17,-12,5,14,-12,-2,7,3,-10,-8,-1,0
-17,-12,5,15,-12,-2,7,3,-10,-8,-1,0
-17,-12,5,15,-11,-2,7,3,-10,-8,-1,-1
-16,-12,4,14,-10,-3,7,3,-10,-9,-1,-1
-16,-12,4,14,-10,-3,7,3,-11,-9,-1,-1
-17,-12,4,14,-11,-3,7,3,-11,-9,-1,-1
-18,-12,5,14,-12,-3,8,4,-11,-8,-1,-1
-18,-12,5,15,-13,-2,8,5,-11,-8,-1,-1
-19,-12,6,15,-13,-2,9,6,-10,-8,-1,-1
-19,-12,6,16,-13,-2,9,7,-9,-8,-1,-1
-18,-13,5,16,-13,-3,10,9,-8,-8,-1,-1
-18,-13,5,15,-12,-3,11,11,-7,-8,-1,-2
-18,-13,5,15,-13,-2,13,13,-5,-8,-1,-2
-19,-11,8,14,-14,0,14,16,-2,-6,0,-2
-19,-9,10,13,-15,1,15,17,2,-3,2,0
-18,-6,12,11,-16,4,16,19,7,1,6,2
-16,-2,13,8,-15,6,16,22,13,7,10,5
-11,1,12,4,-13,7,17,27,22,15,16,9
-6,5,11,0,-9,8,18,33,35,24,22,13
0,10,10,-5,-5,10,17,37,51,35,29,17
8,16,8,-13,0,13,13,34,67,48,38,23
17,24,7,-21,4,16,3,22,80,61,47,29
26,32,6,-29,9,19,-9,4,90,74,56,35
34,41,6,-38,13,24,-23,-14,100,88,66,43
41,51,8,-46,16,30,-36,-34,109,101,77,51
49,61,11,-55,18,36,-50,-55,113,114,87,60
56,71,14,-63,20,43,-64,-79,111,124,97,68
63,81,17,-72,22,49,-80,-103,104,131,105,76
70,89,18,-79,25,54,-95,-127,91,133,110,82
76,93,18,-85,28,56,-110,-149,74,128,109,85
78,90,13,-84,32,52,-121,-162,56,114,100,81
76,76,0,-76,37,39,-124,-162,37,88,80,68
72,56,-15,-64,43,20,-121,-154,17,56,54,50
67,38,-28,-52,46,5,-117,-147,-3,29,31,34
59,23,-36,-41,46,-6,-115,-142,-25,7,14,22
47,11,-37,-29,41,-12,-111,-139,-49,-11,2,13
33,1,-31,-17,31,-14,-104,-134,-70,-25,-7,6
18,-7,-25,-6,20,-15,-93,-124,-86,-36,-15,0
6,-15,-21,4,12,-17,-80,-110,-94,-44,-21,-5
-3,-21,-19,12,7,-19,-66,-94,-94,-48,-25,-10
-10,-26,-16,18,2,-20,-52,-79,-89,-49,-28,-13
-15,-28,-13,21,-2,-20,-41,-65,-81,-48,-28,-14
-17,-29,-12,22,-4,-19,-32,-52,-72,-46,-26,-14
-17,-28,-11,22,-4,-18,-24,-42,-62,-42,-24,-14
-17,-26,-9,21,-5,-17,-17,-33,-53,-37,-21,-13
-17,-24,-7,20,-5,-15,-11,-25,-44,-32,-18,-12
-16,-22,-6,19,-5,-14,-6,-19,-37,-27,-16,-11
-16,-20,-5,18,-5,-12,-2,-14,-31,-23,-13,-10
-15,-18,-3,17,-6,-11,1,-11,-26,-20,-11,-8
-15,-17,-2,16,-7,-9,3,-9,-22,-18,-9,-7
-15,-16,-1,16,-8,-8,5,-7,-19,-17,-8,-6
-15,-16,0,15,-9,-7,7,-6,-16,-15,-6,-6
-16,-15,1,15,-10,-6,8,-4,-13,-14,-5,-5
-16,-15,2,15,-10,-6,9,-3,-11,-12,-4,-5
-15,-14,1,14,-9,-6,10,-2,-9,-11,-4,-5
-13,-13,0,13,-8,-6,11,-2,-8,-11,-3,-5
-13,-13,0,12,-7,-5,12,-1,-7,-10,-3,-5
-13,-12,0,12,-8,-5,13,0,-6,-9,-2,-5
-13,-12,1,12,-9,-4,13,0,-5,-8,-2,-4
-14,-12,2,13,-9,-4,14,1,-4,-8,-1,-4
-14,-12,2,13,-9,-4,14,1,-3,-7,-1,-4
-14,-12,2,13,-9,-4,14,1,-2,-7,0,-4
-14,-12,2,13,-9,-4,14,1,-2,-6,0,-4
-14,-12,3,13,-9,-3,14,2,-1,-6,0,-4
-14,-11,3,12,-9,-3,15,2,-1,-5,0,-4
-14,-11,3,12,-9,-3,15,2,-1,-5,0,-4
-13,-10,3,11,-9,-3,15,2,0,-5,1,-4
-13,-10,3,11,-9,-3,15,3,0,-5,1,-4
-13,-10,3,11,-9,-3,15,3,0,-4,1,-4
-13,-10,3,11,-9,-3,15,3,1,-4,1,-4
-13,-10,3,11,-9,-3,15,3,1,-4,1,-4
-13,-10,3,11,-8,-3,15,4,2,-4,1,-4
-13,-10,2,11,-8,-3,15,4,2,-4,1,-3
-12,-10,2,11,-8,-3,15,4,2,-3,1,-3
-12,-10,2,11,-8,-3,15,4,2,-3,2,-3
-12,-10,2,11,-8,-3,15,4,2,-3,2,-3
-11,-10,2,10,-7,-3,15,4,3,-3,2,-3
-11,-10,1,10,-7,-3,15,4,3,-2,2,-3
-11,-10,1,9,-6,-3,15,4,3,-2,2,-2
-11,-9,1,9,-6,-2,15,4,3,-1,2,-2
-10,-9,1,9,-6,-2,15,4,3,-1,2,-2
-10,-9,1,9,-6,-3,15,4,4,-1,2,-2
-10,-9,0,9,-6,-3,15,4,4,-1,2,-2
-9,-9,0,8,-5,-3,15,4,5,-1,2,-2
-9,-9,0,8,-5,-3,15,4,5,-1,2,-2
-8,-8,0,7,-5,-3,14,4,6,-1,2,-2
-8,-8,-1,7,-4,-3,14,4,6,-1,2,-2
-7,-8,-1,7,-4,-3,14,5,7,0,2,-2
-7,-7,0,7,-4,-3,14,5,8,0,3,-1
-7,-7,0,7,-4,-3,14,6,9,1,3,-1
-7,-7,0,7,-4,-3,14,6,9,1,4,-1
-7,-7,0,7,-4,-3,14,6,10,1,4,-1
-7,-6,0,7,-5,-2,14,6,10,2,5,-1
-7,-6,0,6,-5,-2,14,6,11,2,5,-1
-7,-6,0,6,-4,-2,14,7,11,2,5,-1
-7,-6,1,6,-4,-1,14,7,12,2,5,0
-7,-6,1,6,-5,-1,14,8,13,3,5,0
-7,-6,0,6,-4,-1,14,8,13,3,5,0
-6,-6,0,5,-3,-2,14,9,14,3,5,0
-6,-5,0,5,-4,-1,14,9,14,4,6,0
-5,-5,0,4,-4,-1,14,10,15,4,6,0
-4,-4,0,4,-3,-1,14,10,15,4,6,0
-4,-4,0,4,-3,-1,14,11,16,5,7,1
-4,-3,0,3,-3,0,14,12,17,5,7,1
-3,-3,0,3,-3,0,14,12,18,6,7,1
-3,-3,0,2,-2,0,14,13,19,6,7,1
-2,-3,-1,2,-2,-1,14,14,19,6,7,1
-1,-3,-2,1,-1,-1,13,14,20,6,7,1
0,-2,-2,0,0,-1,13,15,21,7,8,1
0,-2,-2,0,0,0,13,16,22,7,8,1
0,-1,-1,0,0,0,13,17,23,8,9,1
0,-1,-1,0,-1,0,13,18,24,8,9,2
0,-1,-1,0,-1,0,13,19,25,9,9,2
0,0,-1,0,0,0,12,20,26,9,9,2
0,0,-1,-1,0,1,12,21,27,10,10,2
1,0,-1,-1,0,1,11,22,28,11,10,3
1,1,-1,-2,0,1,11,23,29,12,11,3
2,1,-1,-2,1,1,11,24,30,13,11,4
3,2,-2,-3,2,1,10,24,31,13,12,4
4,2,-2,-3,3,1,10,25,31,14,12,4
5,3,-3,-4,3,1,9,25,32,14,13,5
6,3,-3,-5,4,1,9,26,33,14,13,5
6,4,-3,-5,4,2,9,26,34,15,13,6
6,4,-2,-6,4,2,9,27,35,16,14,6
7,5,-2,-6,4,2,8,27,36,17,14,6
8,5,-2,-7,4,2,8,28,36,18,15,7
8,6,-2,-7,4,3,8,28,37,18,15,7
9,6,-3,-8,5,3,7,28,37,18,15,7
9,6,-3,-8,5,3,7,28,37,18,16,7
9,7,-3,-9,5,3,6,28,38,18,16,8
10,7,-3,-10,6,3,6,28,38,18,16,8
11,8,-3,-10,6,3,5,28,38,18,16,8
11,8,-4,-10,6,3,5,27,38,18,17,8
11,8,-3,-10,6,3,4,27,38,19,17,8
11,8,-3,-10,6,4,4,27,38,19,17,9
11,8,-3,-11,6,4,4,26,38,19,17,9
12,8,-3,-11,7,3,3,26,37,19,17,9
12,9,-4,-11,7,3,3,25,37,19,17,9
12,9,-4,-11,7,3,2,25,37,19,17,9
12,9,-3,-11,7,3,2,25,36,18,17,9
11,8,-3,-10,6,3,2,24,35,18,17,9
11,8,-3,-10,6,3,2,24,35,17,16,8
11,8,-3,-10,6,3,2,23,34,17,16,8
11,8,-3,-10,6,3,2,22,33,16,15,8
10,8,-3,-10,6,3,2,22,32,16,15,8
10,8,-3,-9,5,3,1,21,32,15,15,8
9,7,-2,-9,5,3,1,21,31,15,15,8
9,7,-2,-9,4,3,1,20,30,15,15,8
9,7,-2,-9,4,3,1,19,29,14,15,8
9,7,-2,-8,4,3,1,18,28,14,15,7
8,6,-2,-8,4,3,1,17,27,13,14,7
7,6,-1,-7,3,3,1,16,26,13,14,7
6,6,-1,-7,2,3,1,15,24,12,13,7
6,6,0,-6,2,3,1,14,23,12,13,7
5,5,0,-6,1,3,1,13,22,11,13,7
4,5,0,-5,1,3,1,12,21,11,13,7
4,4,0,-4,1,2,2,10,20,10,13,7
4,4,-1,-4,2,2,2,9,18,9,12,6
3,3,-1,-3,1,2,2,8,17,8,11,5
3,3,-1,-3,1,1,2,6,15,8,11,5
3,2,-1,-3,1,1,2,5,13,7,10,4
3,2,-2,-3,1,0,2,3,12,7,10,4
2,1,-2,-2,1,0,2,2,11,6,9,3
1,0,-1,-1,0,0,2,2,10,6,9,3
0,0,0,0,0,0,2,1,9,5,9,3
-1,0,0,0,-2,1,3,1,8,5,9,3
-2,-1,1,1,-3,1,3,0,7,4,8,2
-3,-1,1,2,-3,0,3,-1,6,4,8,2
-3,-1,1,2,-3,0,3,-2,5,3,7,1
-3,-2,0,2,-3,0,3,-3,4,2,7,1
-3,-2,0,2,-3,0,3,-4,3,2,6,0
-4,-3,0,3,-3,0,4,-4,2,1,6,0
-4,-4,0,3,-2,0,4,-5,2,1,5,0
-4,-4,-1,3,-2,-1,4,-5,1,0,5,0
-4,-4,-1,4,-3,-1,4,-6,1,0,5,-1
-5,-5,0,4,-3,-1,4,-6,0,0,5,-1
-5,-5,0,4,-3,-2,4,-7,0,0,5,-1
-6,-5,0,4,-3,-2,4,-7,-1,0,4,-1
-6,-5,0,4,-3,-2,4,-8,-2,-1,4,-1
-5,-6,-1,4,-3,-2,4,-8,-2,-1,3,-2
-5,-6,-1,4,-2,-3,4,-9,-3,-2,3,-2
-5,-6,-2,4,-2,-3,4,-9,-3,-2,3,-3
-5,-6,-2,4,-2,-3,4,-9,-4,-2,2,-3
-5,-6,-2,4,-2,-3,4,-10,-4,-2,2,-3
-4,-6,-3,5,-2,-3,4,-10,-5,-3,2,-3
-4,-7,-3,5,-2,-4,4,-10,-5,-3,2,-3
-5,-7,-2,6,-2,-4,4,-10,-5,-3,2,-3
-6,-7,-2,6,-3,-3,4,-10,-5,-3,2,-3
-6,-7,-2,6,-3,-3,4,-10,-5,-3,2,-3
-6,-7,-3,6,-2,-4,4,-10,-5,-3,1,-3
-6,-8,-3,6,-2,-4,4,-10,-5,-3,1,-3
-6,-8,-3,7,-2,-4,4,-9,-5,-3,1,-3
-7,-8,-2,7,-3,-4,4,-9,-4,-3,1,-3
-7,-8,-1,7,-4,-4,4,-9,-4,-3,1,-3
-7,-8,-2,6,-3,-4,3,-9,-5,-4,1,-4
-6,-8,-3,6,-2,-5,3,-9,-5,-4,0,-4
-7,-8,-3,7,-2,-5,4,-8,-4,-4,1,-4
-7,-8,-2,7,-3,-4,4,-8,-4,-3,1,-4
-7,-8,-2,7,-3,-4,5,-8,-3,-3,1,-4
-7,-8,-1,7,-3,-4,5,-8,-3,-3,1,-4
-7,-8,-1,8,-4,-4,5,-8,-4,-3,1,-4
-7,-8,-2,7,-3,-4,5,-8,-4,-3,1,-4
-6,-8,-2,7,-3,-4,4,-8,-5,-4,1,-4
-6,-8,-3,7,-2,-5,4,-8,-5,-4,1,-4
-5,-8,-3,6,-2,-5,4,-8,-5,-4,1,-5
-5,-8,-3,6,-1,-5,4,-8,-5,-4,1,-5
-6,-8,-3,6,-2,-4,4,-8,-4,-4,1,-5
-6,-8,-3,6,-2,-4,4,-8,-4,-4,1,-5
-5,-8,-3,5,-2,-4,4,-8,-4,-4,1,-5
-5,-8,-3,5,-2,-4,4,-8,-4,-4,1,-5
-6,-8,-2,6,-3,-4,4,-7,-3,-3,1,-5
-7,-8,-1,6,-3,-3,4,-7,-3,-3,1,-4
-7,-8,-1,6,-4,-3,4,-7,-3,-3,1,-4
-7,-8,-1,6,-4,-3,4,-7,-3,-3,1,-4
-7,-8,-1,6,-3,-4,4,-7,-3,-3,1,-4
-7,-8,-2,6,-3,-4,5,-7,-3,-3,1,-4
-7,-7,-2,6,-3,-3,5,-7,-3,-3,1,-4
-7,-7,-1,6,-4,-3,5,-7,-2,-3,1,-4
-6,-7,-1,6,-3,-4,5,-7,-2,-3,1,-4
-5,-7,-2,6,-2,-4,5,-7,-3,-3,1,-4
-5,-7,-3,6,-2,-4,5,-7,-3,-3,1,-4
-5,-7,-3,6,-2,-4,5,-7,-3,-3,1,-4
-5,-7,-3,6,-2,-4,5,-7,-3,-3,1,-4
-5,-7,-3,6,-2,-4,5,-7,-3,-3,1,-4
-5,-7,-3,6,-2,-4,5,-6,-3,-3,1,-4
-5,-7,-3,5,-2,-4,5,-6,-3,-3,1,-4
-5,-7,-2,5,-2,-3,5,-5,-3,-3,1,-4
-6,-7,-1,5,-3,-3,5,-5,-3,-3,1,-3
-6,-7,-2,5,-3,-3,5,-4,-3,-3,1,-3
-5,-7,-3,5,-2,-4,4,-4,-3,-3,1,-4
-4,-7,-3,5,-1,-4,4,-5,-3,-3,1,-4
-5,-7,-2,5,-2,-4,4,-5,-3,-3,1,-4
-5,-7,-2,5,-2,-4,4,-5,-3,-3,1,-4
-4,-7,-2,5,-1,-4,3,-5,-4,-4,1,-4
-4,-7,-3,5,-1,-4,3,-6,-4,-4,0,-4
-3,-7,-3,5,-1,-4,3,-6,-4,-4,0,-4
-4,-7,-3,5,-1,-3,3,-5,-4,-4,0,-4
-4,-7,-2,5,-1,-3,3,-5,-4,-4,0,-4
-4,-7,-2,5,-1,-4,3,-5,-5,-4,0,-4
-3,-7,-4,5,0,-4,3,-5,-5,-4,0,-4
-2,-7,-5,4,1,-5,2,-6,-6,-4,0,-4
-2,-7,-5,4,1,-5,2,-6,-6,-4,0,-4
-3,-7,-4,4,0,-4,3,-6,-6,-4,0,-4
-4,-7,-3,5,-1,-4,3,-6,-6,-4,0,-4
-4,-7,-3,5,-1,-4,3,-6,-6,-4,0,-4
-5,-7,-2,5,-2,-4,3,-6,-6,-4,0,-4
-5,-7,-2,5,-2,-4,3,-6,-6,-4,0,-4
-5,-7,-2,5,-2,-4,3,-6,-6,-4,0,-3
-5,-7,-2,5,-2,-3,3,-6,-6,-4,0,-3
-5,-7,-2,5,-2,-3,3,-6,-6,-4,0,-3
-5,-7,-3,5,-1,-4,2,-7,-6,-4,0,-3
-4,-7,-3,5,0,-4,2,-7,-7,-4,0,-4
-4,-7,-3,5,0,-4,2,-8,-7,-4,0,-4
-4,-7,-3,5,-1,-4,2,-8,-7,-4,0,-4
-5,-7,-3,5,-1,-4,2,-8,-7,-4,0,-4
-5,-7,-3,5,-1,-4,2,-8,-7,-4,0,-4
-5,-7,-3,5,-1,-4,2,-8,-7,-4,0,-4
-5,-7,-3,5,-1,-4,2,-8,-8,-4,0,-4
-5,-7,-3,5,-1,-4,2,-8,-8,-4,-1,-3
-5,-7,-3,5,-1,-4,2,-8,-8,-4,-1,-3
-5,-7,-3,5,-1,-4,2,-8,-8,-5,-1,-3
-4,-7,-4,5,-1,-5,2,-8,-9,-5,-1,-4
-4,-7,-4,5,0,-5,2,-8,-9,-6,-2,-4
-5,-8,-3,6,-1,-5,2,-8,-9,-6,-2,-4
-5,-8,-3,6,-1,-5,2,-8,-9,-6,-2,-4
-5,-7,-3,5,-1,-5,2,-8,-10,-6,-2,-4
-5,-7,-3,6,-1,-4,2,-8,-10,-6,-2,-4
-5,-7,-3,6,-1,-4,2,-8,-10,-6,-2,-4
-4,-7,-3,5,0,-4,2,-8,-10,-7,-2,-4
-3,-7,-4,5,0,-4,2,-8,-10,-7,-3,-4
-3,-7,-4,5,0,-4,2,-8,-10,-7,-3,-4
-3,-7,-4,5,0,-4,2,-8,-10,-7,-3,-4
-3,-7,-4,5,0,-4,2,-8,-11,-7,-3,-4
-4,-7,-3,5,0,-4,2,-8,-11,-7,-3,-4
-4,-7,-3,5,0,-4,2,-8,-11,-7,-3,-4
-4,-7,-3,5,-1,-4,2,-8,-11,-7,-3,-4
-4,-7,-3,5,-1,-4,2,-8,-11,-7,-3,-4
-4,-7,-3,5,-1,-4,2,-7,-11,-7,-3,-4
-4,-7,-3,5,-1,-5,2,-7,-11,-7,-3,-4
-4,-7,-3,5,-1,-5,2,-7,-11,-7,-3,-3
-4,-7,-3,5,-1,-4,2,-7,-11,-7,-3,-3
-4,-7,-3,5,-1,-4,2,-7,-11,-7,-3,-3
-4,-7,-3,5,-1,-4,2,-7,-11,-7,-3,-3
-4,-7,-3,5,-1,-4,2,-7,-11,-7,-3,-3
-4,-7,-3,5,-1,-4,2,-7,-12,-7,-3,-3
-4,-7,-3,5,-1,-4,2,-7,-12,-7,-3,-3
-4,-7,-3,5,-1,-4,2,-7,-12,-7,-3,-3
-4,-7,-3,5,0,-4,1,-7,-12,-7,-3,-3
-3,-7,-3,5,0,-4,1,-7,-12,-7,-3,-3
-3,-7,-4,5,0,-5,1,-8,-12,-7,-3,-3
-3,-7,-4,5,0,-5,1,-8,-12,-7,-3,-3
-4,-7,-3,5,-1,-5,1,-8,-12,-7,-3,-3
-5,-7,-3,5,-2,-4,1,-8,-12,-7,-3,-2
-5,-7,-3,5,-1,-4,1,-8,-13,-7,-3,-2
-4,-7,-3,5,-1,-5,1,-8,-13,-8,-3,-2
-3,-7,-4,5,0,-5,1,-8,-13,-8,-3,-2
-4,-7,-4,5,0,-5,1,-8,-13,-8,-3,-2
-4,-7,-4,5,-1,-5,1,-8,-13,-8,-3,-2
-4,-7,-4,5,0,-5,1,-8,-13,-8,-3,-3
-3,-7,-5,5,0,-5,1,-9,-13,-8,-4,-3
-3,-7,-5,5,0,-5,1,-9,-13,-8,-4,-3
-3,-7,-4,5,0,-5,1,-9,-13,-8,-4,-3
-3,-7,-4,5,0,-5,1,-9,-13,-8,-4,-3
-3,-7,-4,5,0,-5,1,-9,-13,-8,-4,-3
-3,-7,-4,5,0,-5,1,-8,-13,-8,-4,-3
-3,-6,-3,4,0,-4,1,-8,-13,-8,-4,-3
-3,-6,-2,4,0,-4,1,-8,-13,-7,-4,-2
-4,-5,-1,4,-1,-3,1,-8,-12,-7,-4,-2
-3,-4,-1,4,-1,-2,2,-7,-12,-6,-4,-1
-2,-3,0,3,-1,-1,2,-7,-11,-6,-3,-1
-1,-2,0,1,0,-1,2,-7,-11,-6,-3,0
0,-1,0,0,0,0,2,-7,-11,-6,-2,0
0,0,0,0,0,0,2,-7,-11,-5,-2,0
0,0,0,0,0,0,3,-7,-10,-5,-1,0
-1,0,0,0,-1,0,3,-7,-10,-5,-1,1
0,0,0,0,0,0,2,-7,-10,-5,-1,1
0,0,-1,0,0,0,2,-7,-10,-5,-1,0
1,0,-1,0,0,0,2,-7,-10,-5,-1,0
1,0,-1,0,0,0,2,-6,-10,-5,-1,1
1,0,-1,0,0,0,1,-6,-10,-4,-1,1
2,1,-1,-1,1,0,1,-6,-9,-4,-1,1
3,2,-1,-2,1,1,0,-6,-9,-3,0,2
3,2,-1,-3,2,1,0,-7,-8,-3,0,2
4,3,-2,-3,2,1,-1,-7,-8,-3,0,2
4,3,-2,-3,3,1,-1,-7,-8,-3,0,2
4,3,-2,-3,3,1,-2,-7,-8,-2,0,2
4,2,-2,-3,3,0,-2,-7,-8,-2,0,2
4,1,-3,-3,3,0,-2,-8,-8,-3,0,1
4,0,-3,-2,3,-1,-2,-8,-9,-3,-1,1
4,0,-4,-2,4,-2,-2,-8,-9,-4,-1,0
4,0,-5,-2,4,-2,-2,-8,-10,-4,-2,0
5,0,-6,-2,5,-3,-2,-8,-10,-5,-2,0
5,0,-7,-2,6,-3,-2,-8,-10,-5,-2,0
6,0,-7,-2,6,-3,-2,-7,-10,-5,-2,0
6,-1,-8,-2,7,-4,-2,-7,-10,-5,-3,0
6,-1,-9,-2,7,-4,-2,-7,-10,-6,-3,0
7,-2,-9,-2,8,-5,-2,-7,-11,-6,-4,-1
6,-2,-9,-2,7,-5,-2,-7,-11,-7,-5,-1
5,-3,-8,-1,6,-5,-2,-7,-11,-7,-5,-1
3,-3,-7,0,5,-5,-1,-7,-11,-7,-5,-1
2,-4,-7,1,4,-5,-1,-7,-12,-7,-5,-1
0,-4,-6,2,3,-5,-1,-7,-12,-7,-5,-1
0,-5,-6,2,3,-5,-1,-7,-13,-7,-5,-1
0,-6,-6,2,3,-5,-1,-8,-13,-8,-6,-1
0,-6,-6,3,3,-5,-1,-8,-13,-8,-6,-1
0,-6,-6,3,3,-6,0,-8,-14,-9,-6,-2
-1,-7,-6,4,3,-6,0,-9,-14,-9,-6,-2
-1,-7,-6,4,2,-7,0,-9,-15,-9,-7,-3
-2,-8,-6,5,2,-7,0,-9,-15,-10,-7,-3
-2,-8,-7,5,2,-8,0,-9,-16,-10,-8,-3
-2,-9,-8,5,3,-8,0,-9,-16,-11,-8,-3
-1,-9,-8,5,3,-8,0,-9,-16,-11,-8,-3
-1,-9,-8,5,2,-8,0,-9,-16,-11,-8,-3
-2,-9,-8,6,1,-8,0,-9,-16,-11,-8,-3
-3,-10,-7,6,0,-8,0,-9,-16,-11,-8,-3
-3,-10,-7,6,0,-8,0,-9,-17,-11,-9,-3
-3,-10,-7,6,1,-8,0,-10,-17,-12,-9,-4
-3,-10,-7,6,1,-8,0,-10,-18,-12,-9,-4
-3,-10,-7,6,1,-8,0,-10,-18,-12,-9,-4
-4,-10,-7,7,1,-8,0,-10,-18,-12,-9,-4
-4,-10,-7,7,1,-8,0,-10,-18,-12,-9,-4
-4,-10,-7,7,1,-8,0,-9,-18,-12,-9,-4
-4,-10,-6,7,1,-8,0,-9,-17,-12,-9,-4
-4,-10,-6,7,1,-8,0,-9,-18,-12,-9,-4
-4,-11,-7,7,1,-8,0,-9,-18,-12,-9,-4
-5,-11,-7,7,0,-8,0,-9,-18,-12,-9,-4
-5,-11,-7,7,0,-8,1,-9,-18,-12,-9,-4
-4,-11,-7,7,1,-8,1,-9,-18,-12,-9,-4
-4,-11,-7,7,1,-8,1,-10,-18,-13,-9,-5
-3,-11,-7,7,1,-8,1,-10,-18,-13,-9,-5
-3,-11,-7,7,1,-8,0,-10,-18,-13,-9,-5
-3,-11,-7,7,1,-8,0,-10,-18,-13,-10,-5
-3,-11,-7,7,1,-8,0,-10,-18,-13,-10,-4
-3,-11,-7,7,1,-8,0,-10,-18,-13,-10,-4
-3,-11,-7,7,1,-8,0,-10,-18,-13,-10,-4
-4,-11,-6,7,0,-8,0,-10,-18,-13,-10,-4
-4,-11,-6,7,0,-8,0,-10,-18,-13,-10,-4
-4,-11,-6,7,0,-8,0,-10,-18,-13,-10,-4
-3,-11,-7,7,1,-8,0,-10,-18,-13,-10,-5
-3,-11,-7,7,1,-9,0,-10,-19,-13,-10,-5
-3,-11,-8,7,1,-9,0,-9,-19,-13,-10,-5
-3,-11,-8,7,1,-9,0,-9,-19,-13,-10,-5
-3,-11,-8,7,1,-9,0,-9,-19,-13,-10,-5
-3,-12,-8,7,1,-9,0,-9,-19,-13,-10,-5
-3,-12,-8,7,1,-9,0,-8,-19,-14,-10,-5
-4,-12,-8,8,1,-9,1,-8,-19,-14,-10,-5
-4,-12,-8,8,1,-9,1,-7,-19,-14,-11,-5
-4,-12,-8,8,1,-9,1,-5,-18,-14,-11,-5
-4,-12,-8,8,1,-9,2,-3,-17,-14,-11,-6
-4,-12,-7,8,1,-9,4,0,-15,-13,-11,-6
-5,-11,-6,8,0,-8,6,3,-13,-12,-10,-6
-6,-10,-4,7,-1,-6,8,6,-9,-10,-9,-5
-6,-7,0,6,-3,-3,10,8,-4,-5,-6,-2
-5,-3,1,4,-4,0,11,10,2,0,-1,0
-2,0,2,1,-3,2,12,15,9,6,3,3
2,4,2,-3,0,3,13,21,19,14,8,7
8,8,0,-9,3,5,14,27,32,23,14,10
15,14,-1,-15,7,7,12,27,47,34,22,15
24,21,-2,-23,12,10,4,17,60,46,30,21
33,29,-2,-31,17,13,-9,-1,71,58,39,28
41,38,-2,-40,21,18,-23,-22,81,70,49,35
49,49,0,-50,25,25,-38,-43,90,84,59,43
57,60,2,-59,27,32,-52,-66,95,96,70,51
64,71,6,-68,29,39,-68,-91,95,107,80,60
71,81,9,-76,30,46,-84,-118,90,116,88,68
79,89,10,-84,34,50,-100,-143,80,120,93,75
87,96,9,-91,39,52,-118,-166,66,119,96,79
93,97,4,-95,44,51,-133,-184,49,111,92,80
94,88,-5,-92,50,42,-141,-189,31,92,79,72
91,71,-20,-82,56,26,-141,-183,11,63,56,57
86,52,-34,-69,59,10,-138,-174,-8,35,33,41
79,36,-43,-58,60,-2,-136,-168,-28,12,14,27
71,22,-48,-47,59,-12,-133,-163,-49,-8,-1,16
59,10,-49,-35,53,-18,-128,-158,-71,-24,-13,7
44,0,-44,-22,43,-21,-117,-149,-89,-37,-22,0
29,-8,-38,-10,33,-23,-103,-135,-100,-46,-29,-5
17,-16,-33,0,25,-24,-87,-117,-103,-52,-34,-11
8,-22,-30,7,19,-26,-71,-99,-101,-54,-37,-15
2,-26,-28,11,14,-26,-58,-82,-94,-54,-38,-17
0,-27,-27,13,12,-26,-48,-67,-86,-52,-38,-19
-2,-26,-24,14,9,-24,-38,-54,-76,-48,-36,-18
-4,-25,-21,14,7,-22,-30,-42,-65,-43,-33,-17
-4,-23,-19,14,6,-21,-23,-33,-56,-38,-30,-16
-3,-21,-17,12,6,-19,-17,-25,-48,-34,-27,-15
-3,-19,-16,11,6,-17,-13,-19,-41,-30,-24,-13
-3,-18,-15,10,6,-15,-9,-15,-36,-26,-22,-12
-3,-16,-13,9,5,-14,-7,-11,-32,-23,-19,-10
-3,-15,-12,9,4,-12,-5,-8,-29,-21,-17,-9
-3,-14,-11,8,3,-12,-3,-6,-26,-19,-16,-9
-3,-14,-10,8,3,-11,-1,-4,-24,-18,-16,-8
-3,-14,-9,8,2,-11,0,-2,-21,-17,-15,-8
-4,-14,-9,8,2,-10,2,0,-19,-16,-14,-8
-3,-13,-9,8,2,-10,3,2,-18,-15,-14,-8
-2,-13,-10,7,3,-10,5,3,-17,-14,-13,-8
-2,-12,-10,6,3,-10,6,4,-16,-13,-12,-7
-2,-12,-9,6,3,-10,6,5,-15,-12,-12,-7
-2,-12,-9,6,2,-10,6,5,-15,-12,-11,-7
-2,-11,-8,6,2,-9,6,6,-14,-11,-11,-7
-2,-11,-8,6,2,-9,7,6,-13,-11,-11,-7
-2,-11,-8,6,2,-9,7,7,-12,-11,-11,-7
-2,-11,-8,6,2,-9,7,7,-11,-11,-11,-7
-1,-11,-8,6,3,-8,7,8,-11,-10,-11,-6
-1,-10,-8,6,3,-8,7,8,-10,-10,-10,-6
-1,-10,-8,6,3,-8,7,9,-10,-9,-10,-6
-1,-10,-8,5,3,-8,7,9,-10,-9,-10,-6
-1,-10,-8,5,3,-8,7,10,-10,-9,-10,-5
-1,-10,-8,5,3,-8,7,10,-9,-8,-9,-5
-1,-10,-7,5,2,-8,8,11,-9,-8,-9,-5
-1,-9,-7,5,3,-7,8,11,-8,-8,-9,-5
-1,-9,-7,5,3,-7,8,12,-8,-8,-9,-5
-1,-9,-8,5,3,-7,8,12,-8,-7,-9,-5
0,-9,-8,5,3,-7,8,13,-7,-7,-9,-5
0,-9,-8,4,3,-7,8,13,-7,-7,-9,-5
0,-8,-8,4,3,-7,8,13,-6,-7,-9,-5
0,-8,-8,4,3,-7,8,13,-6,-7,-9,-5
0,-8,-9,3,4,-8,8,13,-6,-7,-9,-5
1,-8,-9,3,4,-8,8,13,-5,-7,-9,-5
1,-8,-9,3,4,-8,8,14,-4,-6,-9,-5
1,-8,-9,3,4,-8,8,14,-3,-6,-9,-5
1,-8,-9,3,4,-8,8,14,-2,-6,-9,-4
1,-8,-9,3,4,-8,8,14,-2,-6,-9,-4
1,-8,-9,3,4,-7,8,14,-1,-6,-8,-4
1,-8,-8,3,4,-7,8,15,0,-5,-8,-4
1,-7,-8,2,5,-7,8,15,0,-5,-8,-4
1,-7,-8,2,5,-7,8,15,1,-4,-8,-4
1,-7,-8,2,4,-7,8,16,1,-4,-7,-4
2,-7,-9,2,5,-7,8,16,2,-4,-7,-4
2,-7,-9,1,5,-7,8,16,2,-4,-7,-4
3,-6,-9,1,5,-7,8,16,2,-4,-7,-4
3,-6,-9,0,5,-6,8,16,3,-4,-7,-4
4,-6,-10,0,6,-6,8,16,3,-4,-7,-4
4,-6,-10,0,6,-6,8,17,4,-4,-8,-4
4,-5,-10,0,6,-6,8,17,4,-3,-7,-3
3,-5,-9,0,5,-5,8,18,5,-3,-7,-3
3,-5,-8,0,5,-5,8,19,6,-3,-6,-3
3,-5,-8,0,5,-5,8,20,7,-2,-6,-3
4,-5,-8,0,5,-5,8,20,7,-2,-6,-3
5,-4,-8,-1,6,-5,8,21,8,-2,-6,-3
5,-4,-9,-1,7,-5,8,22,8,-2,-6,-3
6,-4,-9,-1,7,-5,8,23,9,-1,-5,-2
6,-4,-9,-1,7,-5,8,24,10,-1,-5,-2
6,-4,-10,-2,7,-5,8,25,10,0,-5,-2
7,-3,-10,-2,8,-6,8,26,11,0,-5,-2
7,-3,-10,-3,8,-5,8,27,12,0,-5,-2
7,-2,-9,-3,7,-5,8,28,13,0,-4,-1
7,-2,-9,-3,7,-4,8,29,14,1,-4,-1
8,-2,-10,-3,8,-5,7,30,15,1,-3,-1
9,-1,-11,-4,9,-5,7,31,16,2,-3,-1
9,-1,-10,-4,8,-4,7,32,17,3,-2,0
9,0,-9,-4,8,-3,7,33,18,4,-2,0
9,0,-10,-4,8,-4,7,34,18,4,-2,0
10,0,-10,-5,9,-4,6,34,19,4,-2,0
11,0,-10,-6,10,-4,6,35,20,5,-2,0
12,1,-10,-6,10,-4,6,36,21,5,-1,0
12,1,-10,-7,11,-3,6,37,22,6,-1,0
13,2,-10,-7,11,-3,6,38,23,6,-1,0
13,2,-10,-7,11,-2,6,39,24,7,0,1
13,3,-10,-8,11,-2,5,39,25,8,0,1
13,3,-10,-8,11,-2,5,40,26,9,0,2
14,4,-10,-9,11,-2,4,40,27,9,0,2
15,4,-10,-10,12,-2,4,40,28,9,0,2
16,5,-11,-11,12,-2,3,40,28,9,0,2
17,5,-11,-11,13,-2,3,40,29,10,1,3
17,6,-11,-12,13,-1,2,41,29,10,1,3
17,6,-11,-12,13,-1,2,41,30,11,1,3
17,6,-10,-12,13,0,2,41,31,12,1,3
17,7,-10,-12,13,0,1,41,31,12,2,4
17,7,-10,-12,13,0,1,41,32,13,2,4
17,8,-9,-13,12,1,1,41,32,13,3,5
17,8,-8,-13,12,1,1,41,32,13,3,5
18,8,-8,-13,12,1,0,41,32,13,3,6
18,8,-9,-14,13,1,0,40,32,13,3,6
19,8,-9,-14,13,1,0,40,32,13,3,6
19,8,-9,-14,13,1,-1,39,32,13,3,6
18,8,-9,-14,13,1,-1,39,32,13,3,6
17,8,-8,-13,12,1,-1,39,32,13,3,6
17,8,-8,-13,12,1,-1,38,31,13,2,6
17,8,-9,-14,12,1,-1,38,31,13,2,6
17,8,-8,-13,12,1,-1,37,30,13,2,6
16,8,-8,-13,11,2,-1,37,30,13,2,6
16,8,-7,-12,11,2,-1,36,29,12,1,6
16,8,-7,-12,11,2,-1,35,29,12,1,6
16,8,-7,-12,11,1,-1,34,28,11,1,6
16,8,-7,-12,11,1,-1,33,27,11,0,6
15,8,-6,-12,10,1,-1,32,26,11,0,6
14,8,-5,-11,9,2,-1,32,25,11,0,6
14,7,-6,-11,9,2,-2,31,24,10,0,5
15,7,-7,-11,10,1,-2,29,22,9,-1,5
15,7,-7,-11,10,1,-2,27,21,9,-2,5
13,7,-6,-10,9,2,-2,26,21,8,-2,5
12,6,-5,-10,8,2,-2,25,20,8,-2,4
12,6,-6,-10,8,2,-2,23,18,7,-2,4
12,6,-5,-10,8,2,-2,22,17,6,-3,3
11,6,-4,-9,7,2,-2,21,15,6,-3,3
10,5,-4,-8,6,2,-2,20,14,6,-3,3
9,5,-4,-8,6,1,-2,18,13,6,-3,3
9,4,-5,-7,6,1,-2,17,11,5,-4,2
8,4,-4,-6,6,1,-2,15,10,5,-4,2
7,3,-3,-5,4,1,-1,14,9,5,-5,2
5,3,-3,-4,3,1,0,13,8,4,-5,1
5,2,-3,-4,3,0,0,12,7,4,-5,1
4,2,-3,-3,3,0,0,10,6,3,-6,1
3,1,-3,-2,2,0,0,9,5,3,-6,1
2,0,-3,-1,2,0,0,8,4,2,-6,0
1,0,-2,0,1,0,0,7,3,2,-6,0
1,-1,-2,0,0,0,0,6,2,2,-6,0
0,-1,-1,0,0,0,0,5,1,1,-6,-1
0,-2,-1,1,0,0,0,4,0,0,-7,-1
0,-2,-2,1,0,-1,0,3,-1,0,-8,-2
1,-3,-3,1,1,-2,0,2,-3,-1,-9,-2
0,-3,-3,1,1,-2,0,1,-4,-2,-9,-3
0,-4,-2,2,0,-2,0,1,-4,-1,-9,-3
-1,-4,-2,3,0,-2,1,1,-5,-1,-9,-3
-1,-5,-3,2,0,-3,0,0,-6,-2,-9,-3
0,-5,-4,2,1,-3,0,-1,-7,-2,-10,-4
0,-5,-4,2,1,-3,1,-1,-7,-2,-10,-4
-1,-5,-4,3,0,-3,1,-2,-7,-2,-10,-4
-1,-6,-4,3,0,-3,2,-2,-8,-2,-10,-4
-2,-6,-3,4,0,-3,2,-2,-8,-3,-10,-4
-2,-6,-3,4,-1,-3,2,-2,-8,-3,-10,-4
-3,-6,-2,4,-1,-3,2,-2,-8,-3,-10,-4
-4,-6,-2,4,-1,-3,2,-2,-8,-3,-10,-4
-4,-7,-2,4,-1,-3,2,-2,-9,-3,-10,-3
-4,-7,-3,5,-1,-3,2,-2,-9,-4,-10,-3
-4,-7,-3,5,-1,-4,2,-2,-10,-4,-10,-4
-4,-7,-3,5,-1,-4,2,-2,-10,-5,-10,-4
-4,-7,-3,5,-1,-4,2,-2,-11,-5,-10,-4
-4,-8,-3,5,-1,-4,2,-2,-11,-5,-10,-4
-4,-8,-3,5,-1,-4,2,-2,-11,-5,-10,-4
-4,-8,-3,5,0,-4,2,-2,-11,-5,-10,-4
-3,-8,-4,5,0,-5,2,-2,-11,-5,-11,-4
-3,-8,-4,5,0,-5,2,-2,-11,-5,-11,-5
-4,-8,-4,5,-1,-5,2,-2,-11,-5,-11,-5
-4,-8,-3,6,-1,-5,2,-2,-11,-5,-11,-5
-5,-8,-3,6,-2,-4,2,-2,-11,-5,-11,-5
-4,-8,-3,6,-1,-4,2,-2,-11,-5,-11,-5
-4,-8,-3,6,-1,-4,2,-2,-11,-5,-11,-5
-4,-8,-3,6,-1,-4,2,-1,-11,-5,-11,-5
-5,-8,-2,6,-2,-3,3,-1,-11,-5,-10,-4
-5,-8,-2,6,-3,-3,3,-1,-11,-4,-10,-4
-6,-8,-2,6,-3,-3,3,-1,-11,-4,-10,-4
-5,-8,-2,6,-2,-4,3,-1,-11,-5,-11,-5
-5,-8,-2,6,-2,-4,3,-1,-11,-5,-11,-5
-5,-8,-2,6,-2,-4,3,-1,-11,-5,-11,-5
-5,-8,-2,6,-2,-4,3,-1,-11,-5,-11,-5
-3,-8,-4,5,0,-5,3,-2,-12,-6,-11,-5
-3,-8,-5,5,1,-5,2,-2,-12,-6,-12,-6
-3,-8,-4,5,0,-5,3,-1,-11,-6,-11,-6
-4,-8,-4,6,-1,-4,3,-1,-11,-5,-11,-6
-4,-8,-4,6,-1,-4,3,-1,-11,-5,-11,-5
-5,-8,-3,6,-1,-4,3,-1,-11,-5,-11,-5
-5,-8,-3,6,-1,-4,3,-1,-10,-5,-10,-5
-5,-8,-3,6,-1,-4,3,-1,-10,-5,-10,-5
-5,-8,-3,6,-1,-4,3,-1,-10,-5,-10,-5
-5,-8,-3,6,-1,-4,3,-1,-11,-5,-10,-5
-5,-8,-3,6,-1,-4,3,-1,-11,-5,-10,-5
-5,-8,-2,6,-2,-4,3,0,-10,-5,-10,-5
-5,-8,-2,6,-2,-4,3,0,-10,-5,-11,-5
-5,-8,-3,6,-2,-4,3,0,-10,-5,-11,-5
-4,-8,-3,6,-1,-4,4,0,-10,-5,-10,-5
-5,-8,-2,6,-2,-3,4,1,-9,-5,-10,-5
-6,-8,-2,6,-3,-3,5,1,-9,-4,-9,-5
-6,-8,-2,6,-2,-3,5,1,-9,-4,-9,-5
-5,-8,-3,6,-1,-4,4,1,-9,-4,-9,-5
-4,-8,-4,6,0,-4,4,1,-9,-5,-10,-5
-4,-8,-4,6,0,-5,4,1,-9,-5,-10,-5
-4,-8,-4,6,0,-5,4,1,-9,-5,-10,-5
-4,-8,-4,6,-1,-5,4,1,-9,-5,-9,-5
-4,-8,-4,6,-1,-5,4,1,-9,-5,-9,-5
-4,-8,-4,6,0,-5,4,1,-9,-5,-9,-5
-4,-8,-4,6,0,-5,4,1,-9,-4,-9,-5
-4,-8,-3,6,-1,-5,5,2,-9,-4,-9,-4
-4,-8,-3,6,-1,-4,5,2,-9,-4,-9,-4
-4,-8,-3,6,-1,-4,4,2,-9,-4,-9,-4
-4,-8,-3,6,-1,-4,4,2,-9,-4,-9,-4
-5,-8,-3,6,-1,-4,4,2,-9,-4,-8,-4
-5,-8,-2,6,-2,-3,4,2,-8,-3,-8,-4
-6,-8,-2,7,-3,-3,4,2,-8,-3,-8,-4
-5,-8,-2,7,-2,-3,4,2,-8,-3,-8,-4
-5,-8,-3,7,-2,-4,4,2,-8,-3,-8,-4
-5,-8,-2,7,-2,-4,4,2,-8,-3,-8,-4
-5,-8,-2,7,-2,-4,4,1,-8,-3,-8,-3
-5,-8,-2,7,-1,-4,4,1,-8,-3,-8,-3
-5,-8,-2,7,-2,-4,5,1,-8,-3,-8,-3
-6,-8,-2,7,-2,-3,5,1,-8,-3,-8,-3
-6,-8,-2,7,-2,-3,5,1,-8,-3,-8,-3
-6,-8,-2,7,-2,-3,5,1,-8,-3,-8,-3
-6,-8,-2,7,-2,-3,5,0,-9,-3,-8,-3
-6,-8,-2,7,-2,-3,5,0,-9,-3,-8,-3
-6,-8,-2,7,-2,-4,4,0,-9,-3,-8,-3
-6,-8,-2,7,-2,-4,4,-1,-10,-4,-8,-3
-6,-8,-2,7,-2,-4,4,-1,-10,-4,-8,-3
-6,-8,-2,7,-2,-4,4,-1,-10,-4,-8,-3
-5,-8,-3,7,-1,-5,4,-1,-10,-4,-8,-3
-5,-8,-3,7,-1,-5,4,-1,-10,-4,-8,-3
-5,-8,-3,7,-1,-5,4,-1,-10,-4,-8,-3
-5,-8,-2,8,-2,-5,4,-1,-10,-4,-8,-3
-6,-8,-2,8,-2,-5,4,-2,-10,-4,-8,-3
-7,-8,-2,8,-2,-4,4,-2,-10,-4,-8,-3
-7,-8,-1,8,-3,-4,4,-2,-10,-4,-8,-2
-7,-8,-2,8,-2,-4,4,-2,-11,-5,-8,-2
-6,-8,-3,8,-1,-4,4,-3,-11,-5,-8,-2
-5,-9,-3,8,-1,-5,4,-3,-11,-5,-8,-2
-5,-9,-4,8,-1,-5,4,-3,-11,-5,-8,-2
-4,-9,-4,7,0,-5,4,-3,-12,-5,-8,-3
-4,-9,-4,7,0,-5,4,-3,-12,-5,-8,-3
-5,-9,-3,7,-1,-5,4,-3,-12,-5,-8,-3
-6,-9,-3,7,-1,-5,4,-3,-12,-5,-8,-3
-5,-9,-3,7,-1,-5,4,-3,-12,-6,-8,-3
-5,-9,-4,7,0,-5,4,-4,-12,-6,-8,-3
-5,-9,-4,7,-1,-5,4,-4,-12,-6,-8,-3
-5,-9,-3,7,-1,-5,4,-3,-12,-6,-8,-3
-6,-9,-3,8,-2,-4,4,-3,-12,-5,-8,-3
-6,-9,-3,8,-2,-4,4,-3,-12,-5,-9,-3
-6,-9,-3,8,-2,-5,4,-3,-12,-5,-9,-3
-6,-9,-2,8,-2,-5,4,-3,-12,-5,-9,-3
-6,-9,-2,8,-2,-4,4,-3,-12,-5,-9,-3
-6,-9,-3,8,-2,-4,4,-3,-12,-6,-9,-3
-5,-9,-4,7,-1,-5,4,-3,-13,-6,-9,-3
-4,-8,-4,7,0,-5,4,-3,-13,-6,-9,-3
-4,-8,-4,7,0,-5,4,-3,-13,-6,-9,-3
-4,-8,-5,7,0,-5,4,-4,-13,-6,-9,-3
-4,-8,-5,7,0,-6,4,-4,-13,-6,-9,-3
-4,-8,-4,7,0,-6,4,-4,-13,-7,-9,-3
-5,-8,-4,7,0,-6,4,-4,-13,-7,-9,-3
-5,-8,-4,7,0,-6,4,-4,-13,-7,-9,-3
-4,-8,-4,7,0,-6,4,-4,-13,-7,-9,-3
-4,-8,-4,7,0,-6,4,-4,-13,-6,-9,-3
-4,-7,-4,7,0,-5,4,-4,-13,-6,-8,-3
-4,-7,-3,6,0,-4,4,-4,-13,-5,-8,-2
-3,-6,-3,6,0,-4,4,-4,-12,-5,-8,-2
-3,-4,-2,5,-1,-3,5,-3,-12,-4,-7,-2
-3,-3,0,4,-1,-1,5,-3,-11,-4,-6,-1
-3,-2,0,4,-2,0,5,-2,-10,-3,-6,-1
-3,-1,0,3,-1,0,6,-2,-10,-3,-6,0
-2,-1,0,3,-1,0,6,-2,-10,-3,-6,0
-2,-1,0,3,0,0,6,-2,-10,-3,-6,0
-2,-1,0,3,0,0,6,-2,-10,-3,-6,0
-2,-1,0,3,-1,0,6,-2,-10,-2,-6,0
-3,-1,0,3,-1,0,6,-2,-10,-2,-6,0
-2,-1,0,2,-1,0,6,-2,-10,-2,-6,0
-1,-1,0,1,0,0,6,-2,-10,-2,-5,0
0,0,0,1,0,0,6,-1,-9,-1,-5,0
0,1,1,0,0,1,5,-1,-9,0,-4,1
0,1,1,0,0,2,5,-1,-8,0,-3,2
0,2,1,0,0,2,5,-1,-8,0,-3,2
0,2,1,0,0,2,4,-2,-7,0,-2,2
1,2,0,-1,1,1,3,-2,-7,0,-2,2
2,2,-1,-1,1,1,2,-2,-7,0,-2,2
2,1,-2,-1,2,0,2,-2,-8,0,-3,2
2,0,-3,0,2,-1,1,-3,-8,-1,-3,1
2,0,-4,0,3,-2,1,-3,-9,-2,-4,0
2,-1,-4,0,3,-2,2,-3,-9,-2,-4,0
2,-1,-5,0,4,-2,2,-3,-9,-2,-4,0
3,-1,-6,0,5,-3,2,-3,-9,-2,-4,0
4,-2,-7,0,5,-4,2,-3,-10,-3,-5,0
4,-2,-8,0,6,-4,2,-3,-10,-3,-5,0
4,-3,-9,0,6,-5,2,-3,-10,-3,-5,0
4,-3,-9,1,6,-5,2,-3,-10,-3,-5,0
3,-4,-8,1,6,-5,2,-3,-10,-3,-5,0
2,-5,-8,2,6,-5,2,-3,-11,-3,-6,0
1,-5,-7,2,5,-5,3,-3,-11,-3,-6,-1
0,-6,-6,3,4,-5,3,-3,-11,-4,-6,-1
-1,-6,-5,4,2,-5,3,-3,-11,-4,-6,-2
-2,-6,-5,5,2,-5,3,-3,-11,-5,-7,-2
-3,-6,-5,5,1,-5,3,-4,-12,-6,-7,-2
-4,-7,-4,6,1,-5,3,-4,-12,-6,-7,-2
-5,-7,-4,6,0,-5,3,-4,-13,-7,-7,-2
-5,-8,-3,7,0,-5,4,-4,-13,-7,-7,-2
-6,-8,-3,7,0,-6,4,-4,-14,-7,-8,-2
-6,-9,-3,8,0,-6,4,-4,-14,-7,-8,-3
-7,-10,-4,9,0,-6,4,-4,-14,-7,-8,-3
-7,-10,-4,9,-1,-6,4,-4,-14,-7,-8,-3
-7,-10,-4,9,-1,-6,4,-4,-15,-8,-8,-3
-7,-10,-4,9,-1,-6,4,-4,-15,-8,-9,-3
-7,-10,-4,10,-1,-6,4,-4,-16,-8,-9,-3
-8,-11,-4,10,-1,-6,4,-4,-16,-8,-9,-3
-7,-11,-4,10,-1,-7,4,-5,-16,-9,-9,-4
-7,-11,-5,10,0,-7,4,-5,-16,-9,-9,-4
-7,-11,-6,10,0,-8,4,-5,-16,-9,-10,-5
-7,-11,-6,10,0,-8,4,-5,-16,-9,-10,-5
-7,-11,-5,10,0,-8,4,-5,-16,-9,-10,-5
-7,-11,-5,10,0,-8,3,-6,-17,-10,-10,-5
-7,-12,-5,10,0,-8,3,-6,-17,-10,-10,-5
-8,-12,-5,11,-1,-8,3,-6,-17,-10,-10,-5
-8,-12,-4,10,-1,-7,4,-6,-17,-10,-10,-5
-8,-11,-4,10,-1,-7,4,-6,-16,-9,-10,-5
-8,-11,-3,10,-2,-6,4,-6,-16,-9,-10,-5
-9,-11,-2,10,-3,-6,4,-5,-16,-9,-9,-5
-10,-10,-2,10,-4,-5,5,-5,-16,-9,-9,-5
-10,-10,-2,10,-4,-5,5,-5,-16,-9,-9,-5
-10,-10,-2,10,-4,-5,5,-6,-16,-9,-9,-5
-9,-10,-2,10,-3,-5,5,-6,-16,-9,-10,-5
-9,-10,-2,10,-3,-5,5,-6,-16,-9,-10,-5
-9,-11,-2,11,-3,-5,5,-6,-16,-9,-10,-5
-9,-11,-2,11,-3,-6,5,-6,-16,-8,-10,-5
-9,-11,-2,11,-3,-6,5,-6,-16,-8,-10,-5
-10,-11,-2,11,-3,-6,5,-6,-16,-8,-10,-5
-10,-11,-2,11,-4,-6,5,-6,-16,-9,-10,-5
-10,-11,-2,11,-3,-6,5,-6,-16,-9,-10,-5
-9,-11,-2,11,-3,-6,5,-6,-16,-9,-10,-5
-10,-11,-1,11,-4,-6,6,-6,-15,-8,-9,-5
-11,-11,-1,11,-4,-6,6,-5,-15,-8,-9,-5
-11,-11,-1,12,-4,-6,6,-5,-16,-9,-10,-5
-11,-11,-1,12,-4,-6,6,-5,-16,-9,-10,-5
-11,-11,-2,12,-4,-7,6,-5,-16,-9,-10,-5
-11,-11,-2,12,-4,-7,6,-5,-16,-9,-10,-5
-11,-11,-2,12,-4,-7,6,-5,-16,-9,-10,-5
-10,-11,-3,11,-3,-7,6,-4,-16,-9,-10,-5
-10,-11,-3,11,-3,-7,7,-3,-16,-9,-10,-6
-10,-11,-3,11,-3,-7,7,-2,-16,-9,-10,-6
-10,-11,-2,11,-3,-7,8,0,-15,-9,-10,-7
-10,-11,-2,11,-3,-7,9,3,-13,-9,-10,-7
-11,-11,-1,12,-4,-6,11,7,-11,-8,-9,-6
-12,-9,1,11,-5,-5,13,9,-7,-6,-8,-5
-11,-7,3,10,-6,-2,14,10,-3,-2,-5,-3
-10,-3,6,7,-7,1,15,13,2,3,-1,0
-7,0,6,4,-6,3,16,17,9,9,3,2
-3,4,6,0,-3,5,18,23,19,16,8,6
3,9,5,-5,0,7,19,29,32,25,14,10
11,15,3,-12,4,9,16,29,46,36,21,14
20,22,1,-20,10,11,8,20,59,47,29,20
29,30,0,-28,15,14,-4,3,70,59,38,26
38,39,0,-37,20,19,-18,-18,80,71,47,32
46,49,1,-47,24,25,-32,-39,89,84,57,40
54,59,3,-56,26,32,-46,-62,94,96,67,49
61,70,7,-65,28,39,-61,-88,94,107,77,57
69,80,9,-74,31,45,-77,-115,88,114,84,65
78,88,9,-83,35,49,-93,-141,76,117,89,72
85,94,8,-89,40,51,-110,-165,61,116,91,76
90,95,4,-92,44,49,-126,-183,44,107,87,76
91,87,-6,-88,50,40,-134,-189,24,87,73,68
89,69,-21,-78,56,24,-135,-184,3,58,51,53
84,51,-35,-66,60,8,-132,-176,-17,30,28,37
77,35,-43,-55,61,-3,-130,-171,-36,8,10,24
68,22,-47,-44,58,-12,-128,-167,-56,-9,-4,13
55,10,-45,-32,51,-17,-122,-162,-77,-24,-15,5
39,1,-39,-19,40,-19,-112,-152,-93,-36,-23,-1
24,-7,-32,-7,29,-20,-98,-137,-102,-44,-29,-7
11,-15,-28,3,21,-22,-81,-119,-104,-49,-33,-12
2,-22,-25,10,15,-23,-66,-101,-101,-51,-36,-16
-4,-25,-23,15,10,-23,-53,-84,-94,-51,-37,-18
-8,-26,-20,17,7,-22,-42,-69,-84,-48,-36,-19
-9,-25,-18,17,5,-20,-32,-55,-74,-44,-34,-19
-9,-23,-15,17,3,-19,-24,-43,-64,-39,-31,-18
-10,-21,-13,16,2,-17,-17,-32,-55,-34,-28,-16
-10,-19,-11,15,2,-16,-12,-24,-47,-29,-25,-15
-9,-18,-10,14,2,-14,-7,-18,-40,-25,-22,-13
-8,-16,-10,13,2,-13,-4,-14,-35,-22,-20,-12
-6,-15,-10,11,2,-12,-2,-11,-31,-20,-19,-11
-6,-14,-9,11,2,-10,0,-8,-28,-18,-17,-10
-6,-13,-7,11,0,-9,1,-5,-25,-16,-16,-9
-7,-12,-5,10,0,-8,3,-3,-22,-15,-15,-9
-7,-11,-4,10,-1,-7,5,-1,-20,-14,-14,-8
-8,-11,-3,10,-1,-7,6,1,-18,-13,-14,-8
-9,-10,-3,10,-2,-7,8,2,-16,-12,-13,-8
-9,-10,-2,10,-2,-7,9,3,-15,-11,-12,-7
-9,-10,-2,10,-2,-6,9,4,-14,-10,-12,-7
-8,-10,-2,9,-1,-6,10,5,-14,-10,-11,-6
-7,-9,-3,9,0,-6,10,5,-13,-9,-11,-6
-6,-9,-3,9,0,-6,10,6,-12,-9,-10,-6
-7,-9,-3,9,-1,-6,10,6,-11,-9,-10,-6
-6,-9,-3,9,0,-6,10,7,-11,-9,-10,-6
-6,-9,-4,8,0,-6,10,7,-10,-8,-10,-6
-6,-9,-3,8,0,-6,11,8,-10,-8,-10,-6
-6,-8,-3,8,0,-5,11,9,-9,-7,-9,-5
-5,-8,-3,7,0,-5,11,9,-9,-7,-9,-5
-5,-8,-3,7,0,-5,11,10,-9,-7,-9,-5
-5,-8,-3,7,0,-5,11,10,-8,-7,-9,-5
-5,-7,-3,7,0,-5,11,11,-8,-7,-9,-5
-5,-7,-3,7,0,-5,11,11,-7,-7,-9,-5
-5,-7,-3,7,0,-6,11,11,-7,-7,-9,-5
-5,-7,-4,7,0,-6,11,11,-7,-6,-8,-5
-5,-7,-3,7,0,-5,12,12,-7,-6,-8,-4
-5,-7,-3,7,0,-5,12,12,-7,-5,-7,-4
-5,-7,-2,7,0,-4,12,12,-7,-5,-7,-4
-5,-7,-3,7,0,-4,12,12,-6,-5,-7,-4
-3,-7,-4,6,1,-5,11,12,-6,-6,-7,-4
-2,-7,-5,5,2,-6,11,12,-6,-6,-7,-4
-3,-7,-5,5,2,-5,11,13,-6,-5,-7,-4
-3,-6,-4,5,1,-5,11,13,-5,-5,-7,-3
-2,-6,-4,4,2,-5,11,13,-5,-5,-7,-3
-1,-6,-5,4,3,-5,11,13,-5,-5,-7,-4
-1,-5,-6,4,3,-5,10,13,-5,-5,-7,-4
0,-5,-6,4,3,-5,10,13,-4,-5,-7,-4
0,-5,-5,3,3,-5,10,13,-4,-5,-7,-4
0,-5,-5,3,3,-5,10,13,-3,-4,-7,-4
0,-5,-5,3,4,-6,10,13,-3,-4,-7,-4
0,-5,-5,3,4,-6,10,14,-2,-4,-7,-4
0,-5,-5,3,4,-6,10,14,-1,-4,-7,-4
0,-5,-6,3,4,-6,10,14,-1,-4,-7,-3
0,-5,-6,2,5,-6,10,14,0,-4,-7,-3
0,-4,-6,2,4,-5,10,15,0,-3,-6,-3
0,-4,-5,2,4,-5,10,16,0,-2,-5,-2
0,-4,-5,2,4,-5,10,16,1,-2,-5,-2
0,-4,-5,2,4,-5,10,16,1,-2,-5,-2
0,-4,-5,2,4,-5,10,17,1,-2,-5,-2
0,-4,-5,2,4,-5,10,17,2,-1,-5,-2
0,-3,-5,2,4,-5,10,18,3,-1,-5,-2
1,-3,-6,1,5,-5,9,18,3,-1,-5,-2
2,-2,-6,1,5,-5,9,19,4,-1,-5,-2
3,-2,-6,0,6,-5,9,20,4,0,-5,-1
4,-2,-7,0,6,-5,9,21,5,0,-5,-1
4,-1,-7,0,7,-5,9,21,6,0,-4,-1
5,-1,-7,-1,7,-5,9,22,8,0,-4,-1
5,-1,-7,-1,7,-5,9,23,9,0,-4,-1
6,0,-7,-1,7,-4,9,24,10,0,-4,-1
6,0,-7,-2,7,-4,9,25,11,1,-4,0
7,0,-8,-3,8,-4,8,25,12,1,-4,0
7,0,-8,-3,9,-4,8,26,13,1,-3,0
7,0,-7,-3,8,-4,8,27,14,2,-2,0
7,1,-7,-4,8,-3,8,28,15,3,-2,0
9,1,-8,-5,10,-3,7,29,15,4,-2,0
10,2,-9,-5,10,-3,7,29,16,4,-2,0
10,2,-9,-5,11,-3,7,30,17,4,-2,0
11,3,-10,-6,12,-3,7,31,18,4,-2,0
12,3,-10,-7,12,-3,7,32,19,5,-2,0
12,3,-10,-7,12,-3,7,32,20,5,-1,0
12,4,-9,-8,12,-3,6,33,21,6,0,1
13,4,-9,-8,13,-3,6,34,22,6,0,1
14,5,-9,-9,13,-2,5,34,23,7,0,2
14,6,-9,-9,13,-2,5,35,24,7,1,2
15,7,-9,-10,13,-1,4,35,25,8,1,3
15,7,-9,-10,13,-1,4,36,25,9,1,3
16,8,-9,-11,14,-1,3,36,26,9,1,4
17,8,-10,-12,15,-1,3,36,26,9,1,4
18,9,-10,-13,16,-1,2,36,27,9,1,4
19,9,-10,-13,16,-1,2,36,27,10,2,4
19,10,-10,-14,16,0,1,36,27,10,2,4
19,10,-10,-14,16,0,1,36,27,10,2,4
19,11,-10,-15,16,0,1,35,27,11,2,4
19,11,-9,-15,15,0,1,35,27,11,2,4
18,11,-8,-14,14,1,0,35,28,12,3,5
19,11,-8,-14,15,1,0,35,28,12,3,5
20,11,-9,-15,15,1,0,34,28,12,3,5
20,12,-9,-15,16,1,0,34,28,12,3,5
20,12,-8,-16,16,2,0,34,28,12,4,5
20,13,-8,-16,16,2,0,33,28,12,4,5
20,13,-8,-17,16,2,0,33,28,12,4,5
20,13,-8,-16,15,2,0,33,27,12,4,6
20,13,-8,-16,15,2,-1,32,26,12,4,6
20,12,-9,-16,16,1,-1,31,25,11,3,5
20,12,-9,-15,16,0,-2,30,24,10,3,5
20,11,-9,-15,15,0,-2,29,24,10,2,5
19,11,-9,-14,15,0,-2,29,23,9,2,5
19,11,-9,-14,15,0,-2,28,22,9,2,5
18,10,-9,-13,15,0,-2,28,21,8,2,5
17,10,-9,-13,14,0,-2,27,20,7,1,4
17,9,-9,-13,14,0,-3,25,18,7,0,4
16,9,-8,-12,14,0,-3,24,17,6,0,4
16,9,-7,-12,13,0,-3,23,16,6,0,4
16,9,-8,-12,13,0,-3,22,15,6,-1,3
16,8,-8,-12,13,0,-3,20,14,5,-1,3
15,8,-7,-11,12,0,-2,19,13,5,-1,3
13,8,-6,-10,11,0,-2,18,12,4,-1,3
12,8,-6,-10,11,0,-2,17,11,4,-1,3
12,7,-6,-9,10,0,-2,16,9,3,-1,3
11,7,-5,-8,9,0,-2,14,8,3,-2,2
11,6,-5,-8,9,0,-2,13,7,3,-2,2
10,6,-4,-7,8,0,-2,11,6,3,-2,2
9,6,-3,-6,7,1,-1,10,5,3,-2,2
8,5,-3,-6,7,1,-1,9,4,3,-2,2
8,5,-4,-6,7,0,-1,8,3,2,-3,1
7,4,-4,-5,7,0,-1,7,2,1,-4,1
6,4,-3,-4,6,0,0,6,1,0,-4,0
5,4,-3,-3,5,0,0,5,0,0,-5,0
4,3,-2,-3,5,0,0,4,-1,0,-5,0
4,3,-2,-3,5,0,0,3,-2,-1,-5,0
4,3,-2,-2,4,0,0,2,-2,-1,-5,0
3,2,-1,-2,3,0,0,2,-3,-1,-5,0
2,1,-2,-1,3,0,0,1,-3,-1,-5,-1
3,1,-3,-1,4,-1,0,0,-4,-2,-6,-2
2,0,-4,-1,5,-2,0,-1,-5,-3,-6,-2
1,0,-3,0,4,-2,0,-1,-6,-4,-7,-3
1,0,-3,0,4,-2,0,-2,-7,-4,-7,-3
1,-1,-3,1,4,-2,0,-2,-7,-4,-7,-3
0,-1,-3,1,3,-2,1,-3,-7,-4,-7,-3
0,-1,-3,1,3,-2,1,-3,-8,-4,-7,-3
0,-1,-3,1,3,-2,1,-4,-8,-4,-7,-3
0,-1,-3,1,3,-2,1,-4,-8,-5,-8,-4
0,-2,-4,1,4,-3,1,-4,-9,-5,-8,-4
0,-2,-4,1,4,-3,1,-5,-9,-6,-9,-4
0,-2,-4,1,3,-3,1,-5,-10,-6,-9,-4
0,-2,-3,1,3,-3,1,-5,-10,-6,-9,-4
0,-2,-3,2,3,-4,1,-5,-10,-6,-9,-4
0,-3,-4,2,3,-4,1,-5,-11,-7,-9,-4
0,-3,-4,2,3,-4,2,-5,-11,-7,-9,-5
-1,-3,-4,2,3,-4,2,-5,-11,-7,-9,-5
0,-3,-4,2,3,-4,2,-6,-11,-7,-9,-6
0,-3,-4,2,3,-5,2,-6,-12,-8,-9,-6
-1,-3,-4,3,3,-4,2,-5,-12,-8,-9,-5
-1,-3,-4,3,3,-4,2,-5,-12,-8,-9,-5
0,-4,-4,3,3,-5,2,-5,-12,-8,-9,-6
0,-4,-5,3,4,-5,2,-6,-12,-8,-10,-6
0,-4,-5,3,4,-5,2,-6,-12,-8,-10,-6
0,-4,-5,3,3,-5,2,-5,-12,-8,-10,-6
-1,-4,-4,3,2,-4,2,-5,-12,-8,-10,-5
-2,-4,-4,3,2,-4,2,-5,-12,-8,-10,-5
-2,-4,-4,3,2,-5,2,-5,-12,-8,-10,-5
-2,-5,-3,4,1,-5,2,-5,-12,-8,-10,-5
-2,-5,-3,4,1,-4,2,-4,-11,-7,-9,-5
-2,-5,-3,4,1,-4,2,-4,-11,-7,-9,-5
-2,-5,-3,4,1,-4,2,-4,-11,-7,-9,-5
-2,-5,-3,4,1,-4,2,-4,-11,-7,-9,-6
-2,-5,-3,4,1,-4,3,-4,-11,-7,-9,-6
-2,-5,-3,4,1,-4,3,-4,-11,-7,-9,-6
-2,-5,-3,4,1,-4,3,-4,-11,-7,-9,-6
-2,-5,-3,4,2,-4,3,-4,-11,-7,-9,-6
-1,-5,-4,4,2,-5,3,-3,-11,-7,-9,-6
-1,-5,-4,4,2,-5,3,-3,-11,-7,-9,-6
-2,-4,-3,4,1,-4,3,-3,-10,-7,-9,-6
-2,-4,-3,4,1,-4,3,-3,-10,-7,-9,-6
-2,-4,-3,4,1,-4,3,-3,-10,-7,-9,-6
-2,-4,-3,4,1,-4,3,-2,-10,-7,-9,-6
-2,-4,-3,4,1,-4,3,-2,-9,-7,-9,-6
-2,-5,-4,4,2,-5,3,-2,-9,-7,-9,-6
-2,-5,-4,4,2,-5,3,-2,-9,-7,-9,-6
-2,-5,-4,4,2,-5,3,-2,-8,-7,-9,-6
-1,-5,-4,4,2,-5,3,-1,-8,-7,-9,-6
-1,-5,-4,4,2,-5,3,-1,-8,-7,-9,-6
-1,-5,-4,4,2,-5,3,-1,-8,-7,-9,-6
-1,-4,-4,4,2,-5,3,-1,-8,-7,-8,-6
-1,-4,-4,4,2,-5,3,-1,-8,-7,-8,-6
-1,-4,-3,4,2,-4,3,-1,-8,-7,-8,-6
-1,-4,-4,4,2,-4,3,-1,-8,-7,-8,-6
-1,-4,-4,3,2,-4,3,-1,-8,-7,-8,-6
-1,-4,-4,3,2,-4,3,-1,-8,-7,-8,-6
-1,-4,-4,3,2,-4,3,-1,-8,-7,-8,-6
-1,-4,-4,3,2,-5,3,-1,-8,-7,-8,-6
0,-4,-5,3,3,-5,3,-1,-8,-7,-8,-6
0,-4,-5,3,3,-5,3,-1,-8,-7,-8,-7
0,-4,-5,3,3,-5,3,-1,-8,-7,-8,-7
0,-4,-4,3,3,-5,3,0,-8,-7,-8,-7
-1,-4,-3,3,2,-4,3,0,-7,-6,-8,-7
-1,-4,-3,2,1,-4,3,0,-7,-6,-7,-7
-1,-4,-3,2,2,-4,3,0,-7,-6,-7,-7
-1,-4,-3,2,2,-4,3,0,-8,-6,-7,-7
-1,-4,-3,2,2,-4,3,0,-8,-6,-7,-7
0,-4,-3,2,2,-4,3,0,-8,-6,-7,-7
0,-4,-3,2,2,-4,3,0,-8,-6,-7,-7
-1,-4,-3,3,1,-3,3,0,-7,-6,-7,-6
-2,-4,-2,3,0,-3,3,0,-7,-5,-6,-6
-2,-4,-2,3,0,-3,3,0,-7,-5,-6,-6
-1,-4,-3,3,1,-3,2,-1,-7,-5,-6,-6
-1,-4,-3,3,1,-4,2,-1,-7,-5,-6,-6
-1,-4,-3,3,1,-4,2,-1,-7,-5,-6,-6
-1,-4,-3,3,1,-4,2,-1,-7,-5,-6,-6
-1,-4,-3,3,1,-4,2,-1,-7,-5,-6,-6
-1,-4,-3,3,1,-4,2,-2,-7,-6,-7,-6
-1,-4,-3,3,1,-4,2,-2,-8,-6,-7,-6
-1,-4,-3,2,1,-3,2,-2,-8,-6,-7,-6
0,-4,-3,2,1,-3,2,-2,-8,-6,-7,-6
0,-4,-4,2,2,-4,2,-2,-9,-6,-7,-6
0,-4,-4,2,2,-4,2,-2,-9,-6,-7,-6
0,-4,-4,2,2,-4,2,-2,-9,-6,-6,-6
-1,-4,-3,3,1,-4,2,-2,-9,-6,-6,-6
-1,-4,-3,3,1,-4,2,-2,-9,-6,-6,-6
-1,-4,-3,3,1,-4,2,-2,-9,-6,-7,-7
-1,-4,-3,3,1,-4,2,-2,-9,-6,-7,-7
-1,-4,-3,3,1,-4,2,-2,-9,-6,-7,-7
-1,-4,-3,3,1,-3,2,-2,-9,-6,-7,-6
-2,-4,-3,3,0,-3,2,-2,-9,-6,-7,-6
-1,-5,-3,3,0,-4,2,-3,-9,-6,-7,-7
0,-5,-4,3,1,-4,2,-3,-10,-7,-8,-7
0,-5,-5,2,2,-5,2,-3,-10,-7,-8,-7
0,-5,-5,2,2,-5,2,-3,-10,-7,-8,-7
-1,-5,-4,2,2,-4,2,-3,-10,-7,-7,-7
-2,-5,-3,3,1,-4,2,-3,-10,-6,-7,-7
-2,-5,-2,3,0,-4,2,-3,-10,-6,-7,-7
-2,-5,-2,3,0,-4,2,-3,-10,-7,-7,-7
-2,-5,-2,3,0,-4,2,-3,-10,-7,-7,-7
-2,-6,-2,4,0,-4,2,-3,-10,-7,-7,-7
-2,-6,-2,4,0,-4,2,-3,-10,-7,-7,-7
-2,-6,-2,4,0,-3,3,-3,-10,-7,-7,-7
-3,-5,-2,4,0,-3,3,-3,-10,-7,-7,-7
-3,-5,-1,4,0,-3,3,-3,-11,-7,-7,-7
-2,-5,-2,4,0,-4,2,-4,-11,-7,-7,-7
-1,-5,-4,3,1,-4,2,-4,-11,-7,-7,-7
-1,-5,-4,3,2,-4,2,-5,-11,-7,-7,-7
-1,-5,-4,3,2,-4,2,-5,-12,-7,-7,-7
-1,-5,-4,4,1,-4,2,-5,-12,-7,-7,-7
-2,-5,-3,4,0,-4,2,-5,-12,-7,-7,-7
-2,-5,-2,4,0,-3,2,-5,-12,-7,-7,-7
-2,-5,-2,4,0,-3,2,-5,-12,-7,-7,-8
-2,-6,-3,4,0,-4,2,-5,-12,-7,-8,-8
-2,-6,-3,4,0,-4,2,-5,-12,-7,-8,-8
-2,-6,-3,4,0,-3,2,-5,-12,-7,-8,-8
-2,-6,-3,4,0,-3,2,-5,-12,-7,-7,-8
-2,-6,-3,4,0,-4,2,-5,-12,-7,-7,-8
-1,-6,-3,4,1,-4,2,-5,-12,-7,-7,-8
-1,-5,-3,3,1,-4,2,-5,-12,-7,-7,-8
-1,-5,-3,3,1,-4,2,-5,-12,-7,-7,-8
-1,-5,-3,3,0,-4,2,-5,-12,-7,-7,-8
-2,-5,-3,3,0,-4,2,-5,-12,-7,-7,-8
-2,-5,-3,3,0,-4,2,-5,-12,-7,-7,-8
-2,-5,-3,3,0,-4,2,-6,-12,-7,-7,-8
-1,-5,-4,3,1,-4,2,-6,-12,-7,-7,-8
0,-5,-5,3,2,-5,2,-7,-12,-7,-8,-8
0,-6,-5,3,2,-5,2,-7,-12,-7,-8,-8
0,-6,-5,3,1,-5,2,-7,-12,-7,-8,-8
0,-6,-5,2,2,-4,2,-7,-12,-7,-8,-9
0,-5,-5,2,2,-4,2,-7,-12,-7,-8,-9
0,-5,-4,2,2,-3,2,-7,-12,-7,-7,-8
0,-4,-3,2,1,-2,2,-6,-11,-6,-7,-8
0,-3,-3,1,2,-2,2,-6,-11,-6,-7,-8
1,-2,-3,0,2,-2,2,-6,-10,-6,-7,-8
1,-1,-2,0,1,0,3,-6,-9,-5,-6,-7
1,0,0,0,0,1,3,-5,-8,-3,-5,-6
1,0,0,-1,0,1,3,-5,-8,-3,-4,-6
1,0,0,-1,0,1,3,-5,-8,-3,-4,-5
1,0,0,-2,0,1,4,-5,-8,-3,-4,-5
1,1,0,-1,0,1,4,-4,-8,-3,-4,-5
0,1,0,-1,0,1,4,-4,-8,-3,-4,-5
1,1,0,-1,0,1,4,-4,-8,-3,-4,-5
1,1,0,-1,0,1,4,-4,-8,-3,-4,-5
1,1,1,-1,0,2,4,-4,-7,-2,-4,-5
1,1,1,-2,0,2,3,-4,-6,-2,-4,-5
2,2,1,-3,1,2,3,-4,-6,-1,-3,-4
3,3,1,-4,1,3,2,-4,-5,0,-3,-4
4,3,0,-4,1,3,1,-5,-5,0,-3,-4
4,4,0,-4,1,3,0,-5,-5,0,-2,-4
3,4,0,-4,1,3,0,-5,-5,0,-2,-3
4,4,0,-4,1,3,0,-5,-4,0,-2,-3
5,3,-1,-4,3,2,0,-6,-5,0,-2,-4
6,2,-3,-4,4,1,-1,-6,-6,0,-3,-5
6,2,-4,-4,5,0,-1,-7,-6,-1,-3,-5
7,1,-4,-4,6,-1,-1,-7,-6,-1,-4,-6
7,1,-5,-4,6,-1,-1,-7,-6,-2,-4,-6
7,1,-5,-4,6,-1,-1,-7,-6,-2,-4,-6
7,1,-5,-3,6,-2,-1,-7,-6,-2,-4,-6
7,0,-6,-3,6,-2,-1,-7,-7,-2,-4,-6
7,0,-6,-3,6,-2,-1,-7,-7,-2,-4,-7
6,-1,-6,-3,6,-3,0,-7,-8,-2,-4,-7
6,-1,-6,-2,6,-3,0,-7,-8,-2,-4,-7
6,-2,-6,-2,6,-3,0,-7,-8,-3,-5,-8
5,-2,-6,-1,5,-3,0,-7,-8,-3,-5,-8
3,-2,-6,0,5,-3,0,-7,-8,-3,-5,-8
3,-3,-6,0,4,-4,0,-7,-9,-4,-6,-8
2,-3,-6,1,4,-4,0,-7,-9,-4,-7,-9
2,-4,-6,1,4,-4,0,-8,-10,-5,-7,-9
1,-5,-5,2,3,-4,1,-8,-10,-5,-8,-9
0,-5,-5,3,2,-4,1,-8,-11,-5,-8,-10
0,-6,-5,3,1,-4,1,-8,-11,-6,-8,-10
-1,-6,-5,4,1,-5,1,-8,-11,-6,-8,-10
-1,-7,-5,4,1,-5,1,-8,-11,-6,-8,-10
-2,-7,-5,4,1,-5,1,-8,-11,-6,-8,-10
-3,-7,-5,5,0,-5,1,-8,-11,-7,-8,-10
-3,-7,-4,5,0,-5,2,-8,-11,-7,-8,-10
-3,-7,-4,5,0,-5,2,-8,-11,-7,-8,-10
-3,-8,-4,5,0,-5,2,-8,-12,-7,-8,-10
-3,-8,-4,5,0,-5,2,-8,-12,-7,-8,-11
-3,-8,-4,5,0,-5,2,-8,-12,-7,-9,-11
-3,-8,-4,6,0,-5,2,-8,-13,-8,-9,-11
-3,-8,-4,6,0,-6,2,-9,-13,-8,-10,-11
-3,-8,-5,6,0,-6,2,-9,-13,-8,-10,-11
-4,-8,-5,6,0,-6,2,-9,-13,-8,-10,-11
-4,-8,-4,6,0,-6,2,-9,-13,-7,-10,-11
-3,-9,-4,6,0,-6,2,-9,-13,-7,-10,-12
-3,-9,-4,7,0,-6,2,-9,-13,-7,-10,-12
-4,-9,-4,7,0,-6,2,-9,-13,-7,-10,-12
-4,-9,-4,7,0,-6,2,-9,-14,-7,-10,-12
-5,-9,-4,7,0,-6,2,-9,-14,-7,-10,-12
-5,-9,-4,7,-1,-6,2,-9,-14,-8,-10,-12
-5,-9,-4,7,-1,-6,2,-10,-14,-8,-10,-12
-4,-9,-4,7,0,-6,2,-10,-14,-8,-10,-12
-4,-9,-4,7,0,-6,2,-10,-14,-8,-10,-12
-5,-9,-4,7,0,-6,2,-10,-14,-8,-10,-12
-5,-9,-4,8,-1,-6,2,-10,-14,-8,-10,-12
-5,-9,-4,8,-1,-6,2,-10,-14,-8,-10,-13
-4,-9,-4,7,0,-6,2,-10,-14,-8,-10,-13
-5,-9,-4,7,0,-6,2,-10,-14,-8,-10,-13
-5,-10,-4,7,-1,-5,3,-10,-14,-8,-10,-13
-5,-10,-4,7,-1,-5,3,-11,-14,-8,-10,-13
-5,-10,-4,7,-1,-5,3,-11,-14,-8,-10,-13
-5,-10,-4,7,-1,-5,3,-11,-14,-8,-10,-13
-5,-10,-4,7,0,-5,3,-11,-14,-8,-10,-13
-5,-10,-4,7,0,-5,3,-11,-14,-8,-10,-13
-6,-10,-4,8,-1,-5,3,-10,-14,-8,-10,-13
-7,-10,-3,8,-1,-5,3,-10,-14,-8,-10,-13
-7,-10,-3,8,-1,-5,3,-10,-14,-8,-10,-13
-7,-10,-3,8,-2,-5,3,-10,-14,-8,-10,-13
-7,-10,-2,9,-2,-5,3,-9,-14,-8,-10,-13
-7,-10,-3,9,-2,-5,4,-9,-14,-8,-10,-13
-6,-10,-4,8,-1,-6,4,-8,-14,-9,-10,-13
-6,-10,-5,8,0,-6,4,-6,-14,-9,-10,-14
-6,-10,-5,8,0,-6,5,-4,-12,-9,-10,-14
-6,-10,-4,8,-1,-6,7,-1,-10,-8,-10,-14
-6,-9,-3,8,-2,-5,9,2,-7,-7,-10,-13
-7,-7,0,7,-3,-2,10,4,-3,-4,-8,-12
-7,-4,3,5,-5,0,12,6,1,0,-5,-10
-5,-1,5,3,-5,3,13,8,6,5,0,-7
-2,2,5,0,-3,5,14,13,14,12,4,-4
2,7,3,-5,0,6,16,20,25,20,9,0
9,12,2,-11,3,8,16,24,39,29,16,3
17,18,0,-18,8,10,12,21,53,40,23,8
26,25,-1,-26,14,13,3,9,65,51,31,14
35,33,-2,-34,19,17,-10,-10,75,63,40,20
44,42,-1,-43,23,22,-24,-31,84,75,49,27
53,53,0,-52,27,28,-38,-52,92,87,59,35
60,64,2,-61,29,34,-52,-76,95,99,69,43
68,74,4,-71,32,40,-68,-102,93,108,78,51
78,84,5,-80,37,45,-84,-129,85,113,84,58
87,91,4,-89,42,48,-101,-155,72,115,88,64
93,96,3,-94,46,49,-118,-178,56,111,89,67
97,94,-1,-95,50,46,-131,-193,38,99,82,65
96,81,-13,-89,55,35,-137,-194,18,76,65,54
91,63,-27,-77,60,19,-136,-187,-2,48,42,38
85,46,-39,-65,62,4,-134,-180,-22,22,21,23
78,31,-47,-54,62,-6,-132,-176,-41,2,4,11
67,19,-50,-43,58,-14,-129,-172,-61,-14,-8,2
53,8,-45,-30,49,-17,-122,-166,-80,-28,-18,-4
37,-1,-38,-18,38,-18,-110,-155,-93,-38,-24,-10
23,-9,-31,-6,28,-20,-95,-139,-100,-45,-30,-15
11,-17,-26,3,19,-21,-78,-120,-100,-49,-33,-20
2,-22,-23,10,13,-22,-63,-101,-95,-49,-35,-23
-3,-25,-21,14,9,-21,-51,-85,-87,-48,-36,-25
-6,-25,-20,16,7,-21,-41,-70,-78,-45,-35,-25
-7,-24,-18,16,6,-19,-32,-56,-68,-40,-32,-24
-7,-23,-16,15,5,-18,-25,-45,-58,-35,-29,-23
-7,-21,-14,14,4,-17,-18,-35,-49,-31,-26,-21
-6,-19,-13,13,4,-15,-13,-27,-41,-26,-24,-20
-6,-17,-11,12,3,-14,-9,-21,-35,-23,-21,-19
-6,-16,-9,11,2,-12,-6,-17,-31,-20,-19,-17
-6,-14,-8,10,1,-10,-4,-15,-27,-17,-17,-16
-5,-13,-8,10,1,-9,-2,-12,-24,-15,-16,-15
-5,-12,-7,9,0,-8,0,-10,-22,-14,-16,-15
-6,-11,-6,9,0,-8,2,-7,-19,-13,-15,-14
-6,-10,-5,9,0,-7,4,-5,-17,-11,-14,-14
-7,-10,-4,8,0,-7,5,-3,-15,-10,-13,-14
-6,-10,-4,8,0,-6,6,-1,-14,-9,-12,-14
-5,-9,-5,7,0,-6,7,0,-14,-8,-12,-13
-5,-9,-5,7,0,-6,7,0,-13,-8,-11,-13
-5,-9,-4,7,0,-5,8,0,-12,-7,-11,-12
-5,-9,-4,7,0,-5,8,1,-11,-7,-11,-12
-6,-9,-3,7,-1,-5,9,1,-10,-7,-11,-12
-6,-9,-3,7,-1,-5,9,2,-9,-7,-10,-12
-6,-9,-3,7,-1,-5,10,3,-8,-7,-10,-12
-5,-8,-3,7,-1,-5,10,4,-8,-6,-10,-12
-5,-8,-3,7,-1,-5,10,5,-7,-6,-9,-12
-4,-8,-3,6,0,-5,10,5,-7,-5,-9,-12
-4,-8,-3,6,0,-5,10,6,-7,-5,-9,-11
-3,-7,-4,5,0,-5,10,6,-7,-5,-9,-11
-3,-7,-4,5,0,-5,10,6,-6,-5,-9,-11
-3,-7,-4,5,0,-4,10,7,-6,-5,-9,-11
-4,-7,-4,5,0,-4,10,7,-5,-5,-9,-11
-4,-7,-4,5,0,-4,10,8,-5,-5,-9,-11
-3,-7,-4,5,0,-4,10,8,-5,-4,-9,-11
-2,-7,-4,5,1,-5,10,8,-5,-4,-9,-11
-2,-7,-5,4,1,-5,10,8,-4,-4,-9,-11
-3,-7,-4,5,0,-5,10,9,-4,-3,-8,-11
-3,-7,-3,5,0,-4,11,9,-3,-3,-8,-10
-3,-7,-3,5,0,-4,11,9,-3,-3,-8,-10
-2,-7,-4,4,2,-5,10,9,-2,-3,-8,-10
-1,-6,-5,4,2,-5,10,10,-2,-3,-8,-10
-1,-6,-5,4,2,-4,10,10,-1,-2,-7,-10
-1,-6,-5,4,2,-5,10,10,-1,-2,-8,-10
0,-6,-5,4,3,-5,10,10,-1,-2,-8,-10
0,-6,-6,3,3,-5,10,10,-1,-2,-8,-10
0,-5,-5,3,3,-5,10,10,0,-2,-8,-9
0,-5,-5,3,3,-5,10,10,0,-2,-8,-9
0,-5,-6,2,3,-5,10,11,0,-2,-8,-9
1,-5,-6,2,4,-5,10,11,1,-2,-8,-9
1,-5,-6,2,4,-5,10,12,1,-1,-7,-8
1,-5,-6,2,4,-5,10,12,2,-1,-7,-8
0,-5,-5,2,3,-5,10,12,2,0,-7,-8
0,-5,-5,2,3,-5,11,13,3,0,-7,-8
0,-4,-5,2,3,-5,11,13,3,0,-6,-8
0,-4,-4,2,2,-4,11,13,4,0,-5,-7
0,-4,-3,2,2,-4,11,14,5,1,-5,-7
0,-4,-3,1,2,-4,11,15,5,1,-5,-7
1,-4,-5,0,4,-4,10,15,6,1,-5,-7
2,-3,-5,0,5,-4,10,16,6,1,-5,-7
2,-3,-5,0,4,-4,10,17,7,2,-5,-6
2,-3,-5,0,4,-4,10,18,7,2,-5,-6
2,-3,-5,0,4,-4,10,19,8,2,-5,-6
3,-2,-6,0,5,-4,10,19,8,2,-4,-6
4,-2,-6,-1,6,-4,9,20,9,2,-4,-6
5,-1,-6,-2,6,-4,9,21,10,3,-4,-6
5,-1,-6,-2,6,-3,9,22,11,3,-3,-5
5,-1,-6,-2,6,-3,9,23,12,4,-3,-5
6,0,-6,-3,7,-3,9,24,12,4,-3,-5
6,0,-7,-3,7,-3,9,25,13,4,-3,-5
6,0,-7,-3,7,-3,9,26,14,5,-3,-5
7,1,-7,-4,7,-2,9,27,15,5,-2,-5
7,1,-6,-4,7,-2,9,28,16,6,-2,-4
7,1,-6,-4,7,-2,9,29,17,6,-1,-4
7,1,-5,-4,6,-1,8,30,18,7,0,-3
8,2,-5,-5,7,-1,8,31,19,7,0,-3
9,2,-6,-6,8,-1,7,32,20,8,0,-3
10,3,-7,-6,9,-1,7,33,21,8,0,-3
10,3,-8,-7,9,-1,7,34,21,9,0,-3
11,4,-8,-7,10,-1,7,35,22,9,1,-2
11,4,-8,-8,10,-1,6,35,23,10,1,-2
12,4,-8,-8,10,-1,6,36,24,11,1,-1
12,5,-8,-9,10,-1,5,36,25,11,1,-1
13,5,-8,-9,11,-1,5,37,26,12,2,0
14,6,-8,-10,11,-1,4,37,27,12,3,0
14,6,-8,-10,11,0,4,37,27,13,3,0
13,7,-7,-10,11,0,4,37,28,13,4,0
13,7,-7,-10,11,0,4,37,29,14,4,0
14,7,-7,-10,11,0,4,37,29,14,4,0
15,7,-8,-11,12,0,3,37,29,14,4,0
15,7,-9,-11,12,0,3,37,30,15,5,0
15,7,-8,-11,12,0,2,38,31,16,6,1
16,8,-8,-12,12,0,2,38,31,16,6,1
16,8,-8,-13,13,0,1,37,31,16,7,1
16,8,-7,-13,13,1,1,37,32,16,7,2
16,8,-7,-13,13,1,1,37,32,16,7,2
17,8,-8,-13,13,1,1,37,31,16,7,2
16,8,-8,-13,13,1,1,36,31,16,7,3
16,9,-7,-12,12,1,1,36,31,16,7,3
16,9,-7,-13,12,1,0,36,31,16,7,3
17,9,-8,-13,13,1,0,36,30,16,7,2
17,9,-7,-13,13,1,0,35,30,16,7,2
16,9,-7,-13,13,2,0,34,29,15,7,2
16,9,-7,-13,12,2,0,34,29,15,7,2
15,9,-7,-13,12,2,0,33,28,15,7,2
15,9,-7,-13,12,2,0,33,28,14,7,2
16,9,-7,-12,12,2,0,32,27,14,6,1
16,9,-7,-12,12,2,-1,31,27,13,6,1
16,9,-6,-12,12,2,-1,30,26,13,6,1
16,9,-6,-12,12,2,-1,28,24,12,5,0
15,9,-6,-12,11,2,-1,27,23,12,5,0
15,9,-6,-12,11,2,-2,26,21,12,4,0
14,8,-6,-12,11,1,-2,24,20,11,4,0
13,8,-6,-11,11,1,-2,23,19,11,4,0
12,8,-5,-10,10,1,-1,23,19,11,4,0
12,7,-4,-10,9,1,-1,22,18,11,4,0
12,7,-4,-9,8,1,-1,21,17,10,4,0
11,6,-4,-9,8,1,-1,20,16,10,4,0
10,6,-4,-8,7,1,0,18,15,9,4,0
9,6,-3,-8,7,1,0,17,13,9,3,0
9,5,-3,-8,6,1,0,15,12,8,3,0
8,5,-3,-7,6,1,0,14,11,8,3,0
8,4,-3,-7,6,1,0,13,10,7,2,0
7,4,-3,-6,6,1,0,12,9,6,2,-1
6,3,-3,-6,6,0,0,11,8,6,1,-1
6,3,-3,-5,6,0,0,10,7,5,1,-2
6,2,-3,-4,5,0,0,9,6,4,0,-2
5,2,-3,-4,5,0,0,8,5,4,0,-2
5,1,-3,-3,5,0,0,6,4,3,0,-2
4,1,-3,-3,5,0,0,5,3,3,-1,-3
4,0,-3,-2,5,-1,0,4,2,2,-1,-3
3,0,-3,-2,5,-1,1,4,1,2,-2,-4
2,-1,-3,-1,4,-1,1,3,1,2,-2,-4
0,-1,-2,0,3,-1,2,3,0,2,-2,-4
0,-2,-2,0,3,-2,2,2,0,1,-3,-4
1,-2,-3,0,4,-2,1,1,-1,0,-3,-4
0,-2,-3,0,3,-2,1,0,-2,0,-3,-4
0,-2,-3,0,3,-2,1,0,-3,0,-3,-4
0,-2,-4,0,3,-3,1,-1,-3,-1,-4,-5
0,-3,-4,0,4,-3,1,-1,-4,-1,-4,-5
0,-3,-4,1,3,-3,1,-2,-4,-1,-4,-5
0,-4,-4,1,3,-3,1,-2,-5,-1,-4,-5
0,-4,-4,2,3,-3,2,-2,-5,-1,-4,-5
-1,-5,-4,2,2,-3,2,-2,-5,-1,-4,-5
-2,-5,-3,3,1,-3,2,-2,-5,-1,-4,-5
-3,-5,-3,3,0,-3,2,-2,-5,-2,-4,-6
-3,-5,-3,4,0,-3,2,-2,-6,-2,-4,-6
-3,-5,-3,4,1,-3,2,-2,-6,-2,-4,-6
-3,-5,-3,4,1,-3,2,-2,-7,-2,-4,-6
-3,-5,-3,4,1,-4,2,-2,-7,-2,-4,-6
-3,-6,-4,4,1,-4,2,-3,-7,-2,-4,-6
-3,-6,-4,4,1,-4,2,-3,-7,-2,-5,-6
-3,-6,-4,4,1,-4,2,-3,-7,-2,-5,-6
-3,-6,-4,4,1,-4,2,-3,-7,-2,-5,-6
-3,-6,-3,4,1,-4,2,-3,-7,-2,-5,-6
-3,-6,-3,4,0,-4,2,-3,-7,-2,-5,-6
-3,-6,-3,4,0,-4,2,-3,-7,-3,-5,-6
-3,-6,-4,4,1,-4,2,-3,-7,-3,-5,-6
-3,-6,-4,4,1,-4,2,-3,-7,-3,-5,-6
-3,-6,-3,4,1,-4,2,-3,-7,-3,-5,-6
-3,-6,-3,4,0,-4,2,-3,-7,-3,-5,-6
-3,-6,-3,4,0,-4,2,-3,-7,-3,-5,-6
-3,-5,-3,4,1,-4,2,-3,-7,-3,-5,-7
-3,-5,-2,4,0,-3,2,-3,-6,-3,-5,-7
-3,-5,-2,4,0,-3,2,-3,-6,-3,-5,-7
-2,-5,-3,4,1,-4,2,-3,-7,-3,-5,-7
-1,-5,-4,3,2,-4,2,-3,-7,-3,-5,-7
-1,-5,-5,3,3,-5,2,-3,-7,-3,-5,-6
-1,-6,-5,4,3,-5,3,-3,-7,-3,-5,-6
-1,-6,-5,4,3,-5,3,-3,-7,-3,-6,-7
0,-7,-6,4,4,-6,3,-3,-7,-4,-6,-7
0,-7,-6,4,3,-5,3,-3,-7,-4,-6,-7
-1,-7,-5,4,3,-5,3,-3,-6,-3,-6,-6
-1,-7,-4,4,2,-4,3,-2,-6,-3,-6,-6
-2,-6,-3,4,2,-4,3,-1,-5,-3,-5,-6
-2,-6,-3,4,1,-4,3,-1,-5,-3,-5,-6
-2,-6,-3,4,1,-4,3,-1,-5,-3,-5,-6
-2,-5,-3,4,1,-4,3,-1,-5,-3,-5,-6
-2,-5,-3,4,2,-4,3,-1,-5,-3,-5,-6
-2,-5,-3,4,2,-4,3,-1,-5,-2,-5,-6
-2,-5,-3,4,1,-4,3,-1,-5,-2,-5,-6
-1,-5,-3,4,2,-4,4,-1,-5,-3,-5,-6
-1,-5,-4,4,2,-4,4,-1,-5,-3,-5,-6
-1,-5,-4,4,2,-4,4,-1,-5,-3,-4,-6
-1,-5,-4,4,2,-4,4,-1,-5,-3,-4,-6
-1,-5,-4,3,3,-4,4,-1,-5,-3,-5,-6
0,-5,-5,3,3,-4,4,-1,-5,-3,-5,-6
0,-5,-5,3,3,-4,4,0,-5,-3,-5,-6
-1,-5,-4,3,2,-4,4,0,-5,-3,-5,-6
-1,-5,-4,3,2,-4,4,0,-5,-3,-5,-6
-1,-5,-4,3,2,-4,4,0,-5,-3,-5,-6
-1,-5,-4,3,2,-4,4,0,-5,-3,-5,-5
-1,-5,-4,3,2,-4,4,1,-5,-2,-4,-5
-2,-5,-3,3,1,-4,4,1,-4,-2,-4,-5
-2,-5,-3,3,1,-4,4,1,-4,-2,-4,-5
-2,-5,-4,3,2,-4,4,1,-4,-2,-4,-5
-2,-5,-4,3,2,-4,4,1,-4,-2,-4,-5
-2,-5,-3,3,1,-4,4,1,-4,-2,-4,-5
-1,-5,-4,3,2,-4,4,1,-4,-2,-4,-5
-1,-5,-4,3,2,-4,4,0,-4,-2,-4,-5
0,-5,-4,3,2,-4,4,0,-4,-2,-4,-5
0,-5,-4,3,2,-4,4,0,-4,-2,-4,-4
-1,-5,-3,3,2,-4,4,0,-4,-2,-4,-4
-1,-5,-3,3,1,-4,4,0,-4,-2,-4,-4
-1,-5,-3,3,1,-4,4,0,-4,-2,-4,-4
-1,-5,-3,3,1,-4,4,0,-4,-2,-4,-4
-2,-5,-2,3,1,-3,4,0,-4,-2,-3,-4
-2,-5,-2,3,1,-3,4,0,-4,-2,-3,-4
-1,-5,-3,3,2,-4,4,-1,-5,-2,-3,-4
-1,-5,-3,3,2,-4,4,-1,-5,-2,-3,-4
-1,-5,-3,4,2,-4,4,-1,-5,-2,-3,-4
-1,-5,-4,4,2,-4,3,-2,-5,-2,-3,-4
0,-5,-5,3,3,-4,3,-2,-5,-2,-4,-4
0,-6,-4,3,3,-4,3,-2,-5,-2,-4,-4
0,-6,-4,3,3,-5,4,-2,-5,-2,-4,-4
0,-6,-5,3,3,-5,4,-2,-6,-2,-4,-4
-1,-6,-5,4,3,-5,4,-2,-6,-2,-4,-4
-1,-6,-5,4,2,-5,4,-2,-6,-2,-4,-4
-2,-6,-5,4,2,-5,4,-2,-6,-2,-4,-4
-2,-6,-4,4,1,-5,4,-2,-6,-2,-4,-4
-1,-6,-4,4,1,-5,4,-2,-6,-3,-4,-4
-1,-6,-5,4,2,-5,4,-2,-6,-3,-4,-4
-1,-6,-5,4,2,-5,4,-2,-6,-3,-4,-4
-2,-6,-4,4,1,-5,4,-2,-7,-3,-4,-4
-2,-6,-4,5,1,-5,4,-3,-7,-3,-4,-4
-2,-6,-4,5,1,-5,3,-3,-7,-3,-4,-4
-2,-6,-5,5,1,-5,3,-3,-7,-4,-4,-4
-1,-7,-5,5,2,-5,3,-3,-7,-4,-5,-4
-1,-7,-5,4,2,-5,3,-3,-7,-4,-5,-4
-1,-7,-5,4,2,-5,3,-3,-7,-4,-6,-4
0,-7,-6,4,3,-6,3,-3,-8,-4,-6,-5
0,-7,-6,4,3,-6,3,-3,-8,-4,-6,-5
-1,-7,-5,4,2,-5,3,-3,-8,-4,-6,-5
-1,-7,-4,5,1,-5,3,-3,-7,-4,-6,-5
-1,-7,-5,5,2,-5,3,-3,-7,-4,-6,-4
-1,-7,-5,5,2,-5,3,-3,-7,-4,-6,-4
-1,-7,-5,5,2,-5,3,-3,-7,-4,-6,-4
-2,-7,-4,5,1,-5,4,-3,-7,-4,-6,-4
-2,-7,-4,5,1,-5,4,-3,-7,-4,-5,-3
-3,-7,-4,5,0,-5,4,-3,-7,-4,-5,-3
-3,-7,-4,5,0,-5,4,-3,-7,-4,-5,-3
-2,-7,-4,5,0,-5,4,-3,-8,-4,-5,-4
-1,-7,-6,4,2,-6,4,-3,-8,-5,-5,-4
-1,-7,-6,4,2,-7,4,-3,-9,-5,-5,-4
-1,-7,-6,5,2,-6,4,-3,-8,-5,-5,-4
-2,-7,-5,5,1,-6,4,-3,-8,-4,-5,-4
-2,-7,-5,5,1,-6,4,-3,-8,-4,-5,-4
-2,-7,-5,5,1,-6,4,-3,-8,-4,-5,-4
-2,-7,-5,5,1,-6,4,-3,-8,-4,-5,-4
-2,-7,-4,5,1,-5,4,-2,-8,-4,-5,-4
-2,-7,-4,5,1,-5,4,-2,-8,-4,-5,-4
-1,-7,-5,5,2,-5,4,-2,-8,-4,-5,-4
-1,-7,-5,5,2,-5,4,-2,-8,-4,-5,-4
-1,-7,-5,5,1,-5,4,-2,-8,-4,-5,-4
-1,-7,-5,5,1,-6,4,-2,-8,-5,-5,-4
-1,-7,-6,4,2,-6,4,-2,-9,-5,-5,-4
0,-7,-6,4,2,-6,4,-2,-9,-5,-5,-4
0,-6,-6,3,2,-6,4,-2,-8,-5,-5,-4
0,-5,-5,3,1,-5,4,-2,-7,-5,-4,-3
0,-4,-4,3,1,-4,4,-2,-7,-5,-4,-3
0,-3,-3,3,1,-3,4,-1,-7,-4,-3,-2
0,-2,-3,2,1,-2,4,-1,-7,-4,-3,-2
1,-1,-3,1,1,-2,4,-1,-6,-3,-2,-1
2,0,-3,0,2,-1,4,-1,-6,-3,-2,-1
2,0,-3,0,2,-1,5,-1,-5,-2,-1,0
2,0,-2,0,1,0,5,-1,-5,-2,-1,0
2,0,-1,0,1,0,6,-1,-5,-2,-1,0
2,0,-1,0,1,0,6,-1,-5,-2,-1,0
2,0,-1,0,1,0,6,-1,-4,-2,-1,0
1,0,-1,0,0,0,6,0,-4,-2,-1,0
1,0,-1,0,0,0,6,0,-4,-2,-1,0
2,0,-1,-1,1,0,6,0,-3,-1,-1,1
2,1,-1,-2,1,0,5,0,-3,-1,0,1
3,2,0,-2,1,0,5,0,-2,0,0,2
4,3,-1,-3,2,0,4,0,-2,0,0,2
5,3,-1,-3,3,0,3,0,-1,0,0,2
6,3,-2,-4,4,0,2,0,-1,0,0,2
6,3,-3,-4,4,0,2,0,-1,0,0,2
6,2,-4,-4,4,-1,1,-1,-2,0,0,2
6,2,-4,-3,4,-1,1,-1,-2,0,0,2
6,1,-4,-3,5,-2,1,-1,-3,0,0,2
7,0,-6,-3,6,-3,1,-1,-3,-1,0,2
8,0,-7,-3,7,-4,1,-1,-4,-1,-1,1
8,0,-7,-3,7,-4,1,-1,-4,-2,-1,1
9,-1,-8,-3,8,-4,1,-1,-4,-2,-1,0
9,-1,-8,-3,8,-5,0,-1,-4,-2,-1,0
8,-2,-9,-3,8,-5,0,-2,-5,-2,-1,0
7,-2,-9,-2,8,-5,0,-2,-5,-2,-1,0
6,-3,-9,-2,7,-5,0,-2,-5,-2,-2,0
5,-3,-8,-1,7,-5,1,-1,-5,-2,-2,0
4,-4,-7,0,5,-5,1,-1,-6,-2,-2,0
2,-4,-6,1,4,-5,2,-1,-6,-3,-2,-1
2,-5,-6,2,4,-5,2,-1,-7,-4,-3,-1
1,-5,-6,3,3,-5,3,-2,-7,-4,-3,-1
1,-5,-6,3,3,-5,3,-2,-8,-5,-4,-1
0,-5,-6,3,3,-5,3,-3,-9,-5,-4,-2
0,-6,-5,4,2,-5,3,-3,-9,-5,-4,-2
-1,-6,-4,4,1,-5,3,-3,-9,-5,-4,-2
-1,-7,-5,4,1,-6,3,-3,-9,-6,-5,-2
-1,-7,-5,5,1,-6,3,-3,-10,-6,-5,-3
-2,-8,-5,5,1,-6,3,-3,-10,-7,-6,-3
-2,-8,-5,6,0,-6,3,-3,-10,-7,-6,-3
-3,-8,-4,6,0,-6,3,-3,-10,-7,-6,-3
-3,-8,-4,6,0,-6,3,-3,-11,-7,-6,-3
-3,-8,-4,6,0,-6,3,-3,-11,-7,-6,-3
-3,-8,-4,7,0,-6,3,-3,-11,-7,-6,-3
-4,-9,-4,7,0,-6,3,-3,-11,-7,-6,-3
-4,-9,-4,7,0,-6,3,-3,-11,-8,-6,-3
-5,-9,-3,8,-1,-6,3,-3,-11,-8,-6,-3
-5,-9,-4,8,-1,-7,3,-3,-11,-8,-7,-3
-4,-9,-5,7,0,-7,2,-4,-12,-9,-7,-3
-3,-9,-6,7,0,-7,2,-4,-12,-9,-8,-3
-4,-9,-5,7,0,-7,3,-4,-12,-9,-8,-3
-4,-9,-5,7,0,-7,3,-4,-12,-9,-8,-3
-4,-9,-5,7,0,-7,3,-4,-12,-9,-8,-4
-4,-9,-5,7,0,-7,3,-5,-12,-9,-8,-4
-4,-9,-5,7,0,-7,3,-5,-12,-9,-8,-4
-3,-9,-6,7,0,-8,3,-5,-12,-9,-8,-4
-3,-9,-5,7,0,-8,3,-5,-12,-9,-8,-4
-4,-9,-5,8,0,-7,3,-5,-12,-9,-8,-4
-5,-9,-4,8,0,-7,3,-5,-12,-9,-8,-4
-5,-10,-5,8,0,-7,3,-5,-12,-9,-8,-5
-5,-10,-5,8,0,-7,3,-5,-12,-9,-8,-5
-5,-10,-5,8,0,-7,3,-5,-12,-9,-8,-5
-5,-11,-5,8,0,-8,3,-5,-12,-9,-8,-5
-5,-11,-5,8,0,-7,3,-5,-12,-9,-8,-4
-6,-10,-4,8,-1,-7,3,-4,-12,-9,-7,-4
-5,-10,-5,8,0,-7,3,-4,-12,-9,-7,-4
-5,-10,-5,8,0,-8,3,-5,-12,-9,-8,-4
-5,-10,-5,8,0,-8,3,-5,-12,-9,-8,-4
-5,-10,-4,8,-1,-8,4,-5,-12,-9,-7,-4
-5,-10,-4,8,-1,-8,4,-5,-12,-9,-7,-4
-5,-10,-4,8,0,-8,4,-4,-12,-9,-7,-4
-5,-10,-4,8,0,-7,4,-4,-12,-9,-7,-4
-5,-10,-4,8,-1,-7,4,-3,-12,-9,-7,-4
-6,-10,-4,8,-1,-7,4,-3,-13,-9,-7,-4
-6,-10,-4,8,-1,-7,4,-3,-13,-9,-7,-5
-6,-10,-5,8,-1,-7,4,-3,-13,-10,-7,-5
-5,-10,-5,8,0,-7,5,-2,-13,-10,-7,-5
-6,-10,-5,8,-1,-7,5,-1,-12,-10,-7,-5
-6,-10,-4,9,-1,-7,6,1,-11,-10,-7,-5
-6,-10,-4,9,-1,-7,8,4,-10,-10,-7,-5
-7,-10,-3,9,-2,-7,10,8,-7,-9,-7,-5
-8,-8,0,8,-4,-5,11,11,-3,-6,-5,-4
-8,-6,2,7,-6,-2,12,12,1,-3,-2,-2
-7,-3,4,5,-5,0,13,13,6,1,1,0
-3,0,4,2,-3,2,14,16,12,7,5,3
1,4,2,-2,0,3,15,21,21,14,9,6
7,8,0,-7,3,4,16,27,33,23,15,9
14,13,-1,-13,7,5,15,31,48,33,21,13
23,19,-3,-21,13,7,9,26,62,45,29,18
33,27,-5,-30,19,10,-2,11,73,56,38,24
42,35,-6,-38,24,14,-15,-7,83,68,47,31
50,45,-5,-47,28,19,-28,-27,92,80,57,39
58,55,-4,-56,31,25,-41,-48,98,92,67,47
67,65,-2,-65,35,31,-56,-72,99,102,76,55
75,75,0,-75,38,37,-72,-98,95,110,84,62
83,84,1,-83,40,42,-87,-124,85,114,90,69
89,91,1,-90,43,46,-103,-148,70,115,93,75
94,94,0,-94,47,46,-119,-169,52,108,91,76
95,89,-6,-92,51,40,-129,-179,33,92,80,71
93,73,-19,-82,56,26,-130,-176,12,64,59,57
87,53,-33,-70,60,10,-127,-168,-8,35,35,40
81,37,-44,-58,62,-3,-124,-161,-27,11,15,26
72,23,-49,-46,60,-13,-122,-157,-48,-7,0,14
59,11,-47,-34,52,-18,-118,-154,-68,-23,-10,6
43,2,-41,-22,41,-20,-111,-146,-85,-34,-18,0
28,-6,-35,-10,31,-21,-99,-134,-96,-43,-24,-4
16,-14,-30,0,22,-22,-84,-118,-100,-48,-29,-9
6,-21,-26,8,16,-24,-69,-101,-98,-51,-32,-13
0,-24,-24,13,11,-24,-56,-85,-92,-51,-33,-16
-4,-26,-22,16,8,-23,-45,-70,-84,-50,-33,-17
-6,-25,-20,16,6,-22,-35,-57,-74,-46,-32,-17
-7,-24,-17,16,4,-20,-27,-44,-63,-42,-30,-16
-7,-22,-15,15,3,-19,-20,-33,-54,-37,-27,-15
-6,-20,-14,14,3,-18,-14,-24,-45,-32,-24,-14
-5,-18,-13,12,3,-16,-10,-17,-38,-28,-21,-12
-4,-17,-12,11,3,-15,-6,-12,-33,-25,-18,-11
-4,-15,-10,11,2,-13,-3,-8,-28,-22,-16,-9
-4,-14,-8,10,1,-11,0,-6,-24,-20,-14,-8
-4,-13,-8,10,1,-10,1,-3,-21,-18,-13,-8
-4,-12,-7,9,0,-9,3,-1,-18,-17,-12,-7
-4,-11,-7,9,0,-9,4,0,-15,-15,-12,-7
-5,-11,-6,9,0,-9,5,2,-13,-14,-11,-7
-5,-11,-6,8,0,-9,6,4,-12,-13,-10,-7
-4,-10,-6,8,1,-8,7,5,-11,-12,-10,-7
-4,-10,-6,7,1,-8,8,6,-10,-12,-10,-7
-4,-9,-6,7,0,-7,10,7,-9,-11,-9,-6
-4,-9,-5,7,0,-7,11,7,-8,-10,-9,-6
-4,-9,-5,7,0,-7,11,8,-7,-10,-8,-5
-4,-9,-5,7,0,-7,11,9,-7,-9,-8,-5
-4,-9,-5,7,0,-8,11,9,-6,-9,-8,-5
-4,-9,-5,7,0,-8,11,10,-6,-8,-7,-5
-4,-9,-5,7,0,-7,11,11,-5,-8,-7,-5
-5,-9,-4,7,-1,-6,12,11,-5,-7,-6,-4
-5,-8,-3,7,-1,-6,12,12,-4,-7,-6,-4
-4,-8,-4,6,0,-6,12,12,-3,-7,-6,-4
-2,-8,-5,5,0,-6,12,12,-3,-7,-6,-4
-1,-8,-6,5,1,-7,12,12,-3,-7,-6,-4
-2,-8,-6,5,1,-7,12,12,-3,-7,-6,-4
-2,-7,-5,5,0,-6,12,13,-2,-6,-6,-4
-2,-7,-5,5,1,-6,12,13,-1,-6,-6,-4
-1,-7,-5,4,1,-6,12,13,-1,-6,-6,-4
-1,-7,-6,4,1,-6,11,13,-1,-5,-5,-4
0,-7,-7,4,2,-7,11,13,-1,-5,-5,-4
1,-7,-8,3,3,-7,11,13,-1,-5,-5,-4
1,-7,-7,3,3,-7,11,13,0,-5,-5,-3
0,-7,-6,4,2,-7,11,14,0,-4,-5,-3
0,-7,-6,4,2,-6,11,15,1,-4,-4,-3
0,-6,-5,4,1,-6,11,15,2,-4,-4,-3
-1,-6,-5,4,1,-6,11,15,2,-4,-4,-2
-1,-6,-4,4,1,-5,11,15,3,-4,-4,-2
0,-6,-5,4,1,-5,11,15,3,-4,-4,-2
0,-5,-5,3,2,-5,11,15,3,-3,-4,-2
0,-5,-6,3,2,-5,11,15,3,-3,-4,-2
0,-5,-6,3,2,-5,11,16,4,-3,-4,-2
0,-5,-6,3,2,-5,11,16,4,-3,-4,-2
1,-4,-6,2,3,-5,11,16,5,-3,-4,-2
2,-4,-6,2,4,-5,10,16,5,-3,-4,-2
2,-4,-6,2,4,-5,10,16,6,-2,-4,-2
1,-4,-5,2,3,-5,10,17,6,-2,-3,-2
1,-4,-5,2,3,-5,10,17,7,-1,-3,-2
2,-4,-6,1,4,-5,10,18,7,-1,-3,-2
3,-4,-7,1,4,-6,10,18,8,-1,-3,-2
3,-4,-7,1,4,-6,10,19,8,-1,-3,-2
3,-4,-7,0,5,-6,10,20,9,-1,-3,-2
4,-4,-8,0,6,-6,10,20,9,-1,-3,-2
4,-3,-8,0,6,-5,10,20,10,-1,-3,-2
4,-3,-7,0,5,-5,10,20,10,0,-2,-2
3,-3,-6,0,5,-4,10,21,11,0,-2,-1
3,-3,-6,0,5,-4,10,22,11,1,-2,-1
3,-2,-5,0,4,-4,10,23,12,1,-2,-1
3,-2,-5,0,4,-3,10,24,13,2,-2,0
4,-2,-6,0,4,-3,10,24,14,2,-2,0
5,-2,-6,-1,4,-3,10,25,15,2,-2,0
6,-1,-7,-2,5,-3,10,25,15,3,-2,0
6,-1,-7,-2,6,-3,10,26,16,3,-2,0
7,-1,-7,-3,7,-3,10,27,16,3,-2,0
7,0,-7,-4,7,-3,10,27,17,3,-1,0
8,0,-7,-4,8,-3,10,29,18,4,-1,0
9,0,-7,-4,8,-3,9,30,19,4,0,0
9,1,-8,-5,8,-3,9,31,20,4,0,1
10,1,-8,-5,9,-3,9,32,21,5,0,1
10,2,-8,-5,9,-3,9,32,21,5,0,1
11,2,-8,-6,9,-3,9,33,22,6,1,2
11,2,-7,-6,9,-2,9,34,23,6,1,2
11,2,-7,-7,9,-2,8,35,24,7,2,3
11,3,-7,-7,9,-1,8,36,25,8,2,3
11,4,-7,-7,9,-1,8,36,26,9,3,4
12,4,-8,-8,10,-1,7,37,27,9,4,4
13,5,-8,-8,10,-1,7,37,28,10,4,5
13,6,-8,-9,10,-1,7,38,29,11,5,5
14,6,-8,-10,10,-1,6,38,30,12,5,6
15,7,-8,-10,11,0,6,38,30,12,6,6
15,7,-8,-11,11,0,5,39,31,13,6,6
16,8,-8,-11,12,0,5,39,32,13,7,6
17,8,-8,-12,12,0,4,39,32,14,7,6
17,9,-8,-12,12,1,4,39,33,14,7,7
18,9,-8,-13,12,1,3,39,33,15,7,7
19,9,-8,-13,13,1,3,38,33,15,7,7
19,9,-9,-14,13,1,2,38,32,15,7,7
20,10,-9,-14,14,1,2,37,32,15,7,7
20,10,-10,-15,15,0,1,37,32,15,7,7
20,10,-10,-15,15,0,1,36,32,15,8,7
19,11,-9,-15,14,1,1,36,32,15,8,8
19,11,-8,-15,13,1,1,36,32,15,8,9
19,11,-8,-15,13,1,0,36,32,15,8,9
19,11,-8,-14,13,1,0,35,32,15,8,9
18,11,-7,-14,12,2,0,35,32,15,8,9
17,11,-6,-14,11,2,0,35,31,15,8,9
17,11,-6,-14,11,2,0,34,31,14,8,9
16,11,-6,-14,11,2,0,33,30,14,8,9
16,11,-6,-14,11,3,0,33,29,14,8,9
16,11,-5,-14,11,3,0,32,28,14,8,9
16,11,-5,-13,10,3,0,31,28,13,8,8
16,11,-5,-13,10,3,0,30,27,13,7,8
16,11,-5,-13,10,3,0,30,26,12,7,7
15,11,-5,-13,10,3,0,29,25,12,7,7
14,10,-4,-12,9,3,0,28,24,12,7,7
13,10,-4,-12,9,3,0,27,23,11,7,7
13,10,-3,-11,8,3,0,26,22,11,6,7
13,10,-3,-11,8,3,0,25,21,10,6,7
12,9,-3,-11,7,3,0,24,19,9,6,7
12,9,-2,-10,7,3,0,23,18,9,6,7
11,8,-2,-10,6,3,0,22,17,8,5,7
11,8,-2,-9,6,3,0,21,16,8,5,6
11,8,-2,-9,6,3,0,19,15,7,4,6
10,7,-2,-9,5,3,0,18,14,7,4,5
8,7,-1,-8,4,3,1,17,13,7,4,5
7,7,0,-7,3,3,1,16,12,6,4,5
7,6,0,-6,3,2,1,15,11,6,3,5
6,6,0,-5,2,2,1,14,10,5,3,5
5,5,0,-4,2,2,2,13,9,4,2,5
5,5,0,-4,2,2,2,12,7,3,2,4
5,5,0,-4,2,2,2,11,6,3,1,4
4,4,0,-4,1,2,2,10,5,2,1,3
2,4,1,-3,0,2,2,9,5,2,1,3
1,3,1,-2,0,2,3,9,4,2,1,3
1,2,1,-2,0,2,3,8,3,2,0,2
1,2,1,-1,0,1,3,7,2,1,0,2
1,1,0,-1,0,1,3,6,1,1,0,2
1,1,0,-1,0,0,3,6,0,0,-1,1
0,0,0,0,0,0,3,5,0,0,-1,1
0,-1,0,0,0,0,3,4,0,0,-2,0
0,-1,0,0,0,-1,3,4,-1,-1,-2,0
0,-1,-1,0,0,-1,3,3,-1,-1,-3,0
0,-2,-1,1,0,-1,3,3,-2,-2,-3,0
0,-2,-1,1,0,-2,3,2,-2,-2,-3,-1
0,-2,-1,1,0,-2,3,2,-3,-2,-3,-1
-1,-2,0,2,-1,-1,3,1,-3,-2,-3,-1
-2,-2,0,2,-2,-1,3,1,-3,-2,-4,-1
-3,-3,0,3,-2,-1,3,0,-4,-3,-4,-2
-3,-3,0,3,-2,-1,3,0,-4,-3,-5,-2
-3,-3,0,3,-2,-1,3,0,-4,-3,-5,-2
-3,-4,0,4,-2,-1,3,0,-4,-3,-5,-2
-4,-4,1,4,-3,-1,3,0,-4,-3,-5,-2
-4,-4,1,4,-3,-1,3,0,-5,-3,-5,-2
-3,-4,0,4,-3,-1,3,0,-5,-4,-5,-2
-3,-4,0,4,-2,-1,4,0,-5,-4,-5,-2
-3,-4,0,4,-2,-1,4,0,-5,-4,-5,-2
-4,-4,0,4,-3,-1,4,0,-5,-4,-5,-2
-4,-4,0,5,-3,-1,4,0,-5,-4,-5,-2
-4,-4,1,5,-3,-1,4,0,-5,-4,-5,-2
-4,-4,1,5,-3,-1,4,0,-5,-4,-5,-2
-4,-4,1,5,-3,-1,4,0,-5,-4,-5,-2
-4,-4,1,5,-3,-1,4,0,-5,-4,-5,-2
-4,-4,1,5,-3,-1,4,0,-5,-4,-5,-2
-5,-4,1,5,-3,-1,4,0,-5,-4,-5,-2
-5,-4,1,5,-3,-1,4,1,-5,-4,-5,-2
-5,-4,1,4,-3,-1,4,1,-5,-4,-5,-2
-4,-4,1,4,-3,-1,4,1,-5,-5,-5,-2
-4,-4,1,4,-3,-1,4,1,-5,-5,-5,-2
-4,-4,1,4,-3,-1,4,1,-5,-5,-5,-2
-5,-4,1,5,-3,-1,4,2,-5,-4,-5,-2
-5,-4,1,5,-3,-1,4,2,-4,-4,-5,-2
-5,-4,1,5,-3,-1,4,2,-4,-4,-5,-2
-4,-4,0,5,-2,-2,4,2,-4,-4,-5,-2
-3,-4,0,4,-2,-2,4,2,-4,-4,-5,-2
-3,-4,0,4,-2,-2,4,3,-4,-4,-5,-2
-3,-4,0,4,-2,-2,4,3,-4,-4,-5,-3
-4,-4,1,4,-2,-1,4,3,-4,-4,-5,-3
-4,-4,1,4,-3,-1,4,3,-4,-4,-5,-3
-4,-4,1,4,-3,-1,4,3,-4,-4,-5,-3
-4,-4,1,4,-2,-1,4,2,-4,-4,-5,-3
-4,-3,1,4,-2,-1,4,2,-4,-4,-5,-3
-4,-3,1,4,-2,-1,4,2,-3,-4,-5,-3
-4,-3,0,3,-2,-1,4,2,-3,-4,-5,-3
-2,-3,0,3,0,-2,4,1,-4,-5,-5,-3
-2,-3,0,3,-1,-2,4,1,-3,-4,-5,-3
-3,-3,1,3,-2,-1,4,2,-3,-4,-5,-3
-3,-3,1,3,-2,-1,4,2,-3,-4,-5,-2
-3,-3,1,3,-2,-1,4,2,-3,-4,-5,-2
-3,-3,1,3,-2,-1,4,2,-2,-4,-4,-1
-3,-3,2,4,-3,-1,5,2,-2,-3,-4,-1
-4,-3,2,4,-3,0,5,3,-2,-3,-4,-1
-4,-3,1,4,-3,-1,5,3,-2,-3,-4,-1
-3,-3,0,3,-2,-1,5,3,-2,-3,-4,-1
-2,-3,0,3,-1,-1,5,3,-2,-3,-4,-1
-2,-3,0,3,-1,-1,5,3,-1,-3,-4,-1
-2,-3,0,3,0,-1,5,3,-2,-4,-5,-1
-1,-3,-1,2,0,-2,4,2,-2,-5,-5,-2
-1,-3,-1,2,0,-2,4,2,-3,-5,-5,-2
-2,-3,0,3,-1,-1,5,3,-2,-4,-5,-2
-3,-3,1,3,-2,0,5,3,-2,-4,-4,-1
-3,-3,2,3,-3,0,5,4,-2,-4,-4,-1
-4,-2,2,3,-3,0,5,4,-2,-4,-4,0
-4,-2,2,3,-3,0,5,4,-2,-4,-4,0
-5,-2,3,4,-4,0,5,4,-2,-3,-4,0
-5,-2,3,4,-3,0,5,3,-2,-3,-4,0
-4,-2,2,3,-3,0,5,3,-2,-4,-4,-1
-4,-2,2,3,-3,0,5,3,-2,-4,-4,-1
-4,-2,2,3,-4,0,5,2,-2,-4,-4,-1
-3,-2,1,3,-3,0,5,2,-2,-4,-4,-1
-2,-2,1,2,-2,0,5,1,-3,-4,-5,-1
-2,-2,1,2,-2,0,5,1,-3,-4,-5,-1
-3,-2,1,3,-2,0,5,1,-3,-4,-5,-1
-3,-2,1,3,-2,0,4,0,-3,-4,-5,-1
-3,-2,1,3,-2,0,4,0,-3,-4,-6,-1
-3,-2,1,3,-2,0,4,0,-3,-4,-6,-1
-3,-3,1,3,-2,0,4,0,-3,-4,-5,-1
-4,-3,1,4,-3,0,4,0,-4,-4,-5,-1
-5,-3,2,4,-4,0,4,0,-3,-4,-5,-1
-5,-3,2,4,-4,0,4,0,-3,-4,-5,-1
-4,-3,1,3,-3,0,4,0,-3,-4,-5,-1
-4,-3,1,3,-3,0,4,0,-3,-4,-6,-1
-5,-3,2,4,-3,0,4,0,-4,-5,-6,-1
-4,-3,1,4,-2,-1,3,0,-4,-5,-6,-2
-3,-3,1,3,-2,-1,3,-1,-4,-6,-6,-2
-4,-3,1,4,-3,0,3,-1,-5,-6,-6,-2
-4,-3,2,4,-3,0,4,-1,-5,-6,-6,-2
-4,-3,2,4,-3,0,4,-1,-5,-6,-7,-2
-4,-3,2,4,-3,0,4,-1,-5,-6,-7,-2
-3,-3,1,4,-3,0,4,-1,-6,-6,-7,-2
-3,-3,0,3,-2,-1,4,-1,-6,-6,-7,-2
-3,-3,0,3,-2,-1,4,-1,-6,-6,-7,-2
-4,-3,1,4,-3,-1,4,-1,-6,-6,-7,-2
-4,-3,2,4,-3,-1,4,-1,-6,-6,-7,-2
-4,-3,2,4,-3,0,4,-1,-6,-6,-7,-2
-5,-3,3,4,-4,0,4,-1,-6,-6,-7,-2
-4,-3,3,4,-3,0,4,-1,-6,-6,-7,-2
-3,-2,2,3,-3,0,4,-2,-6,-6,-7,-2
-3,-2,3,3,-3,0,4,-2,-6,-6,-6,-2
-4,-1,4,3,-4,1,5,-1,-5,-5,-6,-1
-4,0,5,2,-4,2,5,-1,-5,-5,-5,-1
-2,1,5,1,-3,2,5,-1,-5,-4,-5,-1
-1,2,4,0,-2,3,5,-1,-5,-4,-5,-1
0,3,4,-1,-2,3,5,-1,-5,-4,-5,0
0,3,5,-1,-2,4,5,0,-4,-3,-4,0
-1,4,6,0,-3,4,6,0,-4,-2,-3,0
-2,4,6,0,-4,5,7,0,-3,-2,-3,1
-2,4,6,0,-4,5,7,0,-3,-2,-3,1
-2,4,6,0,-5,5,7,0,-3,-2,-3,1
-2,4,6,0,-5,5,7,0,-3,-2,-3,1
-1,4,5,-1,-4,5,6,0,-3,-1,-3,0
0,4,5,-1,-3,5,6,0,-3,-1,-3,0
0,5,5,-2,-2,5,5,0,-2,-1,-3,0
1,6,5,-3,-2,6,5,0,-2,0,-2,1
2,6,5,-4,-2,6,4,0,-2,0,-2,1
2,6,5,-4,-2,6,4,-1,-2,0,-2,2
2,6,4,-4,-2,6,3,-1,-1,0,-1,2
3,6,4,-5,-1,6,3,-1,-1,1,-1,2
3,6,3,-5,0,5,2,-1,-1,1,-1,2
4,6,2,-5,1,4,2,-2,-2,0,-1,1
4,5,1,-4,1,3,1,-2,-2,0,-2,1
4,4,0,-4,1,2,1,-2,-3,-1,-2,1
4,3,0,-4,1,2,1,-2,-3,-1,-3,1
5,3,0,-4,2,2,1,-2,-3,-1,-3,1
5,2,-1,-4,3,1,1,-2,-3,-2,-4,0
6,2,-2,-4,3,0,1,-2,-3,-2,-4,0
5,1,-2,-3,3,0,2,-2,-3,-2,-4,0
5,1,-2,-2,3,0,2,-2,-3,-2,-4,0
5,0,-3,-2,3,-1,2,-2,-4,-2,-4,-1
5,0,-4,-2,4,-2,2,-2,-4,-3,-5,-1
4,0,-4,-1,4,-2,2,-2,-5,-4,-5,-1
2,-1,-2,0,2,-1,2,-2,-5,-4,-5,-1
0,-1,-1,0,1,-1,3,-2,-5,-4,-5,-2
0,-2,-1,1,1,-1,3,-3,-6,-5,-6,-2
-1,-3,0,1,0,-1,3,-3,-6,-5,-6,-2
-1,-3,-1,1,0,-2,3,-3,-7,-6,-6,-2
-1,-4,-1,2,0,-2,3,-3,-7,-6,-7,-3
-1,-4,-1,3,0,-2,3,-3,-8,-7,-7,-3
-2,-4,-2,3,0,-2,3,-3,-8,-7,-8,-3
-2,-5,-2,4,0,-3,3,-3,-9,-7,-8,-3
-3,-5,-2,4,0,-3,3,-4,-9,-8,-9,-4
-3,-6,-2,5,-1,-4,3,-4,-9,-8,-9,-4
-3,-6,-2,5,-1,-4,3,-5,-10,-9,-9,-4
-4,-7,-2,5,-1,-4,3,-5,-10,-9,-9,-4
-4,-7,-1,5,-1,-4,3,-5,-10,-9,-9,-4
-4,-7,-2,6,0,-5,3,-5,-10,-9,-9,-4
-4,-8,-3,6,0,-5,3,-5,-11,-10,-9,-4
-4,-8,-3,6,0,-5,3,-5,-11,-10,-10,-5
-4,-8,-4,6,0,-5,3,-5,-11,-10,-10,-5
-4,-8,-4,6,0,-5,3,-6,-11,-10,-10,-6
-4,-8,-4,6,0,-5,3,-6,-11,-10,-10,-6
-4,-8,-3,6,0,-5,3,-6,-11,-10,-10,-6
-4,-8,-3,6,-1,-5,3,-5,-11,-10,-9,-5
-5,-8,-2,7,-2,-5,3,-5,-11,-10,-9,-5
-5,-8,-2,7,-1,-5,3,-6,-12,-11,-10,-6
-5,-8,-3,7,-1,-5,3,-6,-12,-11,-10,-6
-5,-8,-3,7,-1,-5,3,-6,-12,-11,-10,-6
-5,-8,-3,7,-1,-5,3,-6,-12,-11,-10,-6
-5,-8,-2,7,-2,-5,3,-6,-12,-11,-10,-6
-6,-8,-2,7,-2,-5,3,-6,-12,-11,-9,-6
-6,-8,-2,7,-2,-5,3,-6,-12,-11,-9,-6
-5,-8,-2,7,-2,-5,3,-7,-12,-11,-9,-6
-6,-8,-1,7,-2,-4,3,-7,-12,-11,-9,-6
-6,-8,-1,8,-3,-4,3,-7,-12,-11,-9,-5
-6,-8,-1,7,-2,-5,3,-7,-12,-11,-9,-5
-5,-8,-1,7,-2,-5,3,-7,-12,-12,-9,-6
-5,-8,-1,7,-2,-5,3,-7,-12,-12,-9,-6
-5,-8,-2,7,-2,-5,3,-7,-12,-12,-9,-6
-5,-8,-2,7,-2,-5,3,-8,-13,-12,-9,-6
-6,-8,-2,7,-2,-5,3,-8,-13,-12,-9,-6
-7,-8,-1,8,-3,-5,3,-7,-13,-12,-9,-6
-7,-8,-1,8,-3,-4,4,-7,-13,-12,-9,-6
-7,-8,-1,8,-3,-4,4,-7,-13,-12,-10,-6
-7,-8,0,8,-4,-4,4,-7,-12,-12,-10,-6
-7,-8,0,8,-4,-4,4,-7,-12,-12,-10,-6
-7,-8,0,8,-4,-4,4,-7,-12,-12,-10,-6
-7,-8,0,8,-3,-5,4,-7,-12,-12,-10,-6
-7,-8,0,8,-4,-5,4,-6,-12,-12,-10,-6
-7,-9,0,8,-4,-5,5,-5,-12,-12,-10,-6
-7,-9,-1,8,-3,-5,5,-4,-12,-13,-10,-6
-6,-9,-1,8,-3,-5,6,-3,-12,-13,-11,-6
-7,-9,0,8,-4,-5,7,0,-10,-12,-10,-7
-8,-9,0,9,-5,-4,9,3,-8,-12,-10,-7
-9,-8,2,9,-6,-3,11,6,-4,-10,-9,-6
-9,-5,5,8,-7,0,13,8,0,-8,-6,-5
-8,-2,7,6,-7,2,13,9,4,-4,-3,-3
-5,1,7,2,-6,4,13,11,9,1,0,0
-2,4,8,-1,-5,6,14,16,17,8,5,3
1,8,8,-5,-4,8,16,23,29,17,11,7
8,13,7,-11,0,9,16,28,42,27,18,11
17,20,4,-19,6,11,12,25,57,38,25,16
27,27,1,-27,13,14,2,13,69,50,33,21
36,36,1,-36,18,18,-10,-5,80,61,42,28
45,45,1,-44,22,23,-24,-25,90,73,52,35
53,55,3,-53,25,28,-38,-46,97,86,62,42
61,65,4,-63,28,34,-52,-69,100,97,72,51
69,75,6,-72,31,40,-68,-95,97,106,80,59
77,85,8,-81,34,46,-85,-121,89,112,87,67
84,92,8,-88,37,50,-100,-146,76,113,91,72
89,97,8,-93,41,51,-116,-168,60,109,91,75
91,94,3,-92,44,48,-127,-181,41,95,82,72
89,80,-8,-84,49,35,-130,-181,21,70,63,60
85,60,-23,-72,55,18,-128,-173,0,39,38,43
79,43,-35,-61,57,3,-126,-166,-20,13,17,28
71,29,-42,-50,56,-7,-125,-162,-40,-6,1,16
60,17,-43,-38,51,-13,-122,-158,-61,-23,-11,7
45,7,-37,-26,40,-15,-115,-152,-79,-35,-19,1
29,-1,-30,-14,29,-16,-103,-141,-91,-44,-25,-4
16,-9,-24,-3,20,-17,-89,-126,-97,-51,-30,-9
5,-16,-20,5,13,-18,-73,-108,-97,-54,-34,-13
-2,-21,-17,12,8,-19,-59,-91,-92,-56,-36,-17
-6,-23,-15,15,4,-19,-47,-76,-85,-55,-36,-19
-9,-23,-14,16,2,-18,-37,-61,-76,-52,-35,-19
-10,-22,-12,16,0,-17,-28,-48,-65,-47,-32,-18
-11,-21,-9,16,-1,-15,-21,-37,-55,-42,-29,-16
-11,-19,-7,15,-2,-13,-15,-28,-46,-36,-26,-15
-10,-17,-6,13,-2,-12,-10,-21,-39,-32,-23,-13
-9,-15,-5,12,-2,-11,-6,-16,-33,-28,-21,-12
-8,-14,-4,11,-2,-10,-2,-12,-28,-26,-18,-11
-7,-12,-4,10,-2,-8,0,-9,-24,-24,-17,-10
-7,-11,-3,9,-2,-7,1,-6,-21,-22,-15,-9
-7,-11,-3,9,-2,-6,3,-4,-18,-21,-14,-9
-8,-10,-2,9,-3,-5,4,-2,-16,-19,-13,-8
-8,-10,0,9,-4,-5,6,0,-13,-18,-12,-8
-9,-9,0,9,-5,-4,7,2,-11,-16,-11,-7
-8,-9,1,8,-5,-4,8,3,-10,-15,-11,-7
-7,-8,0,7,-4,-4,9,4,-9,-15,-10,-7
-6,-8,0,7,-3,-4,9,5,-8,-14,-10,-7
-6,-8,0,7,-3,-4,10,5,-8,-14,-10,-7
-7,-8,1,7,-4,-3,10,6,-7,-13,-9,-6
-8,-7,1,7,-4,-3,10,7,-6,-13,-9,-6
-8,-7,1,7,-4,-3,10,7,-6,-13,-9,-6
-7,-7,1,7,-4,-3,11,7,-5,-13,-9,-6
-7,-6,1,7,-3,-3,11,8,-5,-12,-9,-6
-6,-6,1,6,-3,-3,12,9,-4,-12,-8,-6
-5,-5,0,6,-2,-3,12,9,-4,-12,-8,-6
-5,-5,0,5,-2,-2,12,10,-4,-12,-8,-6
-5,-5,0,5,-3,-2,12,10,-4,-12,-8,-6
-5,-6,0,5,-3,-2,12,10,-3,-11,-8,-6
-5,-6,0,5,-3,-3,12,10,-3,-11,-8,-6
-4,-6,0,4,-2,-3,11,10,-3,-11,-7,-6
-4,-6,0,4,-2,-3,11,11,-2,-11,-7,-6
-5,-6,1,5,-3,-2,11,11,-2,-10,-7,-6
-5,-6,1,5,-3,-2,12,12,-1,-10,-7,-6
-5,-5,1,5,-3,-2,12,12,-1,-10,-7,-6
-4,-5,0,4,-2,-2,12,12,-1,-10,-7,-6
-4,-5,0,4,-2,-2,12,12,-1,-10,-7,-6
-4,-4,0,4,-2,-2,12,13,0,-10,-7,-6
-4,-4,1,4,-2,-2,12,13,0,-9,-6,-6
-3,-4,0,3,-2,-2,11,13,0,-9,-6,-6
-2,-3,0,3,-1,-2,11,13,1,-9,-6,-6
-1,-3,0,2,0,-2,11,13,1,-9,-6,-6
-1,-3,0,2,0,-2,11,13,1,-8,-6,-6
0,-3,-1,2,0,-2,11,13,2,-8,-6,-6
-1,-3,-1,2,0,-2,11,14,2,-8,-6,-6
-1,-3,0,2,0,-2,11,14,3,-7,-5,-6
-2,-3,0,2,-1,-2,11,15,3,-7,-5,-6
-2,-3,0,2,-1,-2,11,15,4,-6,-5,-6
-2,-3,0,2,-1,-2,11,15,4,-6,-5,-6
-2,-3,0,2,-1,-2,11,15,5,-6,-5,-6
-1,-3,0,2,-1,-2,11,15,5,-6,-4,-6
-1,-3,0,2,-1,-2,11,16,6,-5,-4,-6
-1,-2,0,1,-1,-2,11,16,7,-5,-4,-6
0,-2,0,1,0,-2,11,17,7,-5,-4,-6
0,-2,0,1,0,-2,11,17,8,-4,-4,-6
1,-2,-1,1,1,-2,11,18,8,-4,-4,-6
1,-2,-1,0,1,-2,11,18,9,-4,-4,-6
1,-1,-1,0,1,-2,11,18,9,-4,-3,-5
1,-1,-1,0,1,-1,11,18,10,-3,-3,-5
1,0,0,0,0,-1,11,19,10,-3,-2,-5
1,0,0,0,0,0,11,20,11,-2,-2,-5
1,0,0,0,0,0,11,21,11,-2,-2,-5
2,0,0,-1,0,0,11,21,12,-1,-2,-5
3,0,-1,-1,2,0,10,22,13,-1,-2,-5
4,0,-1,-2,2,0,10,23,13,-1,-1,-4
4,1,-1,-2,3,0,10,24,14,-1,-1,-4
4,1,-2,-3,3,0,10,25,15,0,-1,-4
5,1,-2,-3,3,-1,10,26,15,0,0,-4
5,1,-2,-4,4,-1,9,26,16,0,0,-4
6,2,-3,-4,5,-1,9,27,16,0,0,-3
7,2,-3,-5,5,-1,8,28,17,1,0,-3
7,3,-3,-5,6,-1,8,29,18,1,0,-3
8,3,-3,-6,6,0,8,30,19,2,1,-2
7,4,-3,-6,5,0,9,31,20,3,1,-2
7,4,-2,-6,5,1,9,32,21,4,2,-1
7,5,-1,-6,4,1,9,33,22,4,3,-1
8,5,-1,-7,4,2,9,34,23,5,3,0
9,6,-1,-7,5,2,8,35,24,5,4,0
10,6,-2,-8,5,2,8,35,25,6,4,0
11,7,-2,-8,6,2,7,36,26,6,4,0
12,7,-3,-9,7,2,7,36,27,7,5,0
13,8,-3,-9,8,2,6,37,27,8,5,1
14,8,-3,-10,9,2,6,37,28,9,6,1
15,9,-4,-11,9,2,5,38,28,9,6,1
15,9,-4,-12,9,2,5,38,29,10,7,2
15,10,-3,-12,9,2,5,39,30,10,7,2
15,10,-3,-12,9,3,5,39,30,11,8,3
15,11,-3,-13,9,3,4,39,31,11,8,3
15,11,-2,-13,9,3,4,39,31,12,8,4
15,11,-1,-13,8,4,3,39,32,12,8,4
15,11,-1,-13,8,4,3,39,32,13,9,4
15,12,0,-13,7,5,3,39,32,13,9,4
15,12,0,-14,7,5,3,38,32,13,9,4
15,13,-1,-14,8,5,2,38,32,13,9,4
16,13,-1,-15,9,5,2,37,31,13,9,4
15,13,-1,-14,8,5,2,37,31,14,9,4
15,13,0,-14,8,5,1,37,31,14,9,4
15,13,0,-14,8,6,1,36,31,14,9,4
15,13,0,-14,8,6,1,36,31,13,9,4
15,13,0,-14,8,6,0,35,30,13,9,4
15,13,0,-14,7,6,0,34,29,13,9,4
13,13,1,-13,6,6,0,34,29,13,9,5
12,13,2,-13,5,7,1,33,29,13,9,5
12,13,2,-12,5,7,1,33,28,13,9,5
12,13,2,-12,5,7,1,32,27,12,9,5
12,13,1,-12,5,7,1,31,26,12,8,4
12,13,1,-12,5,7,1,30,25,11,8,4
12,13,2,-12,4,7,1,29,24,11,8,4
11,12,3,-11,4,7,1,29,23,10,7,4
10,12,3,-11,3,7,0,28,22,9,7,4
10,12,4,-11,3,7,0,26,21,9,6,4
9,12,4,-10,3,7,0,25,20,8,6,3
9,11,4,-10,2,7,0,24,19,8,6,3
8,11,4,-9,1,7,1,23,18,8,6,3
7,10,4,-8,1,7,1,22,16,7,6,3
7,9,4,-7,1,6,0,20,15,6,5,2
7,9,3,-7,1,6,0,19,13,6,5,2
6,8,3,-7,1,5,0,18,12,5,4,1
6,8,4,-6,0,5,0,16,11,5,4,1
5,7,4,-6,0,5,1,15,10,4,4,0
4,7,4,-5,0,5,1,13,9,4,4,0
3,6,4,-5,-1,5,1,12,8,3,3,0
3,5,4,-4,-1,5,1,10,6,3,3,-1
2,4,4,-3,-2,5,1,9,5,3,2,-1
1,4,4,-2,-2,4,1,8,4,2,2,-1
1,3,4,-2,-2,4,1,7,3,1,1,-2
1,3,4,-2,-2,3,1,6,2,1,1,-2
0,3,5,-2,-2,3,1,6,2,1,1,-2
-1,2,5,-1,-3,3,2,5,1,1,1,-2
-2,2,6,-1,-3,3,2,4,1,0,1,-2
-2,1,6,0,-4,3,2,3,0,0,0,-2
-2,0,5,1,-4,3,2,2,0,0,0,-2
-2,0,5,1,-4,3,2,1,-2,-1,0,-3
-2,0,4,2,-4,2,2,1,-3,-1,-1,-4
-2,-1,4,2,-3,2,2,0,-3,-2,-1,-4
-2,-1,3,2,-3,1,2,0,-4,-2,-2,-5
-2,-1,3,2,-3,1,2,0,-4,-3,-2,-5
-2,-2,3,2,-3,0,2,-1,-5,-3,-2,-5
-2,-2,3,2,-3,0,3,-1,-5,-3,-2,-5
-3,-2,3,2,-3,0,3,-1,-6,-3,-3,-5
-3,-2,3,3,-3,0,3,-2,-6,-3,-3,-5
-5,-2,4,3,-4,0,4,-2,-6,-3,-2,-5
-6,-2,4,4,-5,0,4,-2,-6,-3,-2,-5
-6,-2,4,4,-5,0,4,-2,-6,-4,-2,-5
-5,-2,4,4,-4,0,4,-3,-7,-4,-3,-6
-5,-3,3,4,-3,0,4,-3,-7,-4,-3,-6
-4,-3,3,4,-3,-1,4,-3,-7,-4,-3,-6
-4,-3,2,4,-3,-1,4,-3,-7,-4,-3,-6
-5,-4,2,4,-3,-1,4,-3,-7,-4,-3,-6
-5,-4,3,4,-4,-1,4,-3,-7,-4,-3,-6
-6,-4,3,4,-4,-1,4,-3,-7,-4,-3,-6
-6,-4,3,4,-5,-1,4,-3,-7,-4,-3,-6
-5,-4,3,4,-5,-1,4,-3,-7,-5,-3,-6
-5,-4,3,4,-5,0,4,-3,-7,-5,-3,-6
-6,-4,3,5,-5,0,4,-2,-7,-5,-3,-6
-6,-4,3,5,-5,0,4,-2,-7,-5,-4,-6
-5,-4,2,5,-5,-1,4,-2,-8,-5,-4,-7
-4,-4,2,4,-4,-1,4,-2,-8,-6,-4,-7
-4,-4,1,4,-4,-2,4,-2,-8,-6,-4,-7
-5,-4,2,4,-4,-2,4,-2,-8,-6,-4,-7
-5,-4,3,4,-5,-1,4,-2,-8,-5,-4,-6
-5,-4,3,4,-5,-1,4,-1,-8,-5,-4,-6
-5,-4,2,4,-4,-1,4,-1,-8,-5,-4,-6
-5,-4,1,4,-3,-1,4,-1,-8,-5,-4,-6
-5,-4,1,5,-3,-1,4,-1,-7,-5,-4,-6
-6,-4,2,5,-4,-1,4,-1,-7,-5,-4,-6
-6,-4,2,5,-4,-1,4,-1,-7,-5,-4,-6
-5,-4,2,5,-4,-2,4,-1,-7,-5,-4,-6
-5,-4,2,5,-3,-2,3,-1,-7,-5,-4,-6
-4,-4,2,4,-3,-2,3,-1,-7,-5,-4,-6
-4,-4,1,4,-2,-2,3,-1,-7,-5,-4,-6
-4,-4,1,4,-2,-2,3,-1,-7,-5,-4,-6
-3,-4,0,4,-2,-2,3,-2,-7,-5,-4,-6
-2,-4,-1,3,-1,-3,3,-2,-7,-5,-4,-7
-3,-4,0,3,-2,-2,4,-2,-7,-5,-4,-6
-4,-4,1,4,-3,-2,4,-2,-6,-4,-4,-6
-5,-4,2,4,-4,-1,4,-1,-6,-4,-4,-6
-5,-4,3,5,-5,-1,4,-1,-5,-4,-4,-6
-5,-4,3,5,-4,-1,4,-1,-5,-4,-4,-6
-4,-4,2,4,-3,-1,4,-1,-6,-4,-4,-6
-3,-4,2,4,-3,-1,4,-1,-6,-5,-4,-6
-3,-4,1,4,-2,-1,4,-1,-6,-5,-3,-6
-3,-4,1,4,-2,-1,4,-1,-6,-5,-3,-6
-3,-4,1,4,-2,-1,4,-1,-5,-5,-3,-6
-4,-4,2,4,-3,-1,4,0,-5,-5,-3,-6
-4,-3,3,4,-4,-1,4,0,-5,-5,-3,-6
-4,-3,3,4,-4,-1,4,0,-5,-5,-3,-6
-5,-3,3,4,-4,-1,4,0,-5,-5,-3,-6
-5,-3,3,4,-4,-1,4,0,-5,-5,-3,-6
-5,-3,3,4,-4,-1,4,0,-5,-5,-2,-6
-5,-3,3,4,-4,-1,4,0,-5,-5,-2,-6
-5,-3,3,4,-4,-1,4,0,-5,-5,-2,-6
-4,-3,3,4,-4,-1,4,0,-6,-5,-2,-6
-3,-2,2,3,-3,-1,4,0,-6,-5,-2,-6
-3,-2,2,3,-3,0,4,0,-6,-5,-2,-6
-4,-2,2,3,-3,0,4,0,-6,-5,-2,-6
-3,-2,2,3,-3,0,4,0,-6,-5,-2,-6
-3,-2,2,3,-3,0,4,0,-6,-6,-2,-6
-3,-2,2,2,-2,0,4,0,-6,-6,-2,-6
-3,-2,2,2,-2,0,4,0,-6,-6,-2,-5
-3,-2,2,2,-2,0,4,0,-6,-6,-2,-5
-3,-2,2,2,-2,0,4,-1,-6,-6,-2,-5
-2,-2,1,2,-2,-1,3,-1,-6,-6,-2,-5
-2,-2,0,2,-1,-1,3,-2,-7,-6,-2,-5
-2,-2,1,2,-2,-1,3,-2,-7,-6,-2,-5
-3,-2,2,3,-3,-1,3,-2,-6,-6,-2,-5
-4,-2,2,3,-3,0,3,-2,-6,-6,-2,-5
-4,-2,2,3,-3,0,3,-3,-6,-6,-2,-5
-4,-2,3,3,-4,0,3,-3,-6,-6,-2,-5
-5,-2,4,4,-5,0,4,-2,-6,-6,-2,-4
-5,-2,4,4,-5,0,4,-3,-6,-6,-2,-4
-4,-2,3,3,-4,0,3,-3,-7,-6,-2,-5
-3,-2,2,3,-4,0,3,-3,-7,-7,-2,-5
-3,-2,2,3,-3,0,3,-3,-7,-7,-2,-5
-3,-2,2,2,-3,0,3,-4,-8,-8,-3,-6
-3,-2,1,2,-2,-1,3,-4,-8,-8,-3,-6
-4,-2,2,3,-3,0,3,-4,-7,-8,-3,-6
-6,-2,4,4,-5,0,4,-3,-7,-7,-2,-5
-6,-2,4,4,-6,0,4,-3,-7,-7,-2,-5
-5,-2,3,4,-5,0,4,-3,-7,-7,-2,-5
-4,-2,2,3,-4,0,4,-4,-8,-8,-2,-5
-4,-2,2,3,-3,0,4,-4,-8,-8,-2,-5
-4,-2,2,3,-4,0,4,-4,-8,-8,-2,-5
-5,-2,3,3,-4,0,4,-4,-8,-8,-2,-5
-5,-2,3,3,-4,0,3,-4,-8,-8,-2,-5
-4,-2,2,3,-3,0,3,-4,-8,-8,-2,-5
-4,-2,2,3,-3,0,3,-3,-8,-8,-2,-5
-4,-2,2,3,-3,-1,3,-3,-8,-8,-2,-5
-4,-2,2,3,-3,-1,3,-3,-8,-8,-2,-5
-5,-2,3,3,-4,0,3,-3,-8,-8,-2,-5
-5,-2,3,3,-4,0,3,-3,-8,-8,-2,-5
-5,-2,3,3,-4,0,4,-3,-8,-8,-2,-5
-5,-2,3,3,-4,0,4,-3,-8,-8,-2,-5
-5,-2,4,3,-4,0,4,-3,-8,-8,-2,-5
-5,-2,4,3,-4,0,4,-3,-8,-8,-2,-5
-5,-2,4,3,-4,0,4,-3,-8,-8,-2,-5
-6,-2,4,3,-4,0,4,-3,-8,-8,-2,-5
-6,-2,4,4,-5,0,4,-3,-8,-8,-2,-5
-6,-2,4,4,-5,0,4,-3,-9,-8,-2,-5
-5,-2,3,4,-4,0,4,-3,-9,-8,-2,-5
-5,-2,2,4,-4,0,4,-3,-9,-8,-2,-5
-5,-2,2,3,-4,0,4,-3,-9,-8,-2,-5
-4,-2,1,3,-3,0,4,-3,-9,-8,-2,-5
-3,-2,1,2,-3,0,4,-4,-9,-8,-2,-5
-3,-1,2,2,-3,0,4,-4,-9,-8,-2,-5
-3,-1,3,2,-3,0,4,-4,-9,-7,-2,-5
-3,0,3,2,-3,1,4,-4,-9,-7,-1,-5
-3,0,4,1,-4,1,4,-4,-9,-7,-1,-4
-3,1,5,1,-5,3,5,-3,-8,-6,-1,-4
-3,3,7,0,-5,4,5,-3,-7,-5,0,-3
-3,4,7,0,-5,5,5,-3,-6,-4,0,-2
-2,5,7,-1,-4,5,5,-3,-6,-4,0,-2
-2,5,7,-2,-4,6,5,-2,-6,-4,0,-2
-2,5,7,-2,-4,6,5,-2,-6,-4,0,-2
-1,5,7,-2,-4,5,5,-2,-6,-4,0,-2
0,5,6,-3,-3,5,5,-2,-7,-4,0,-2
-1,5,7,-2,-4,5,5,-2,-6,-4,0,-2
-1,5,7,-2,-4,6,5,-2,-6,-4,0,-2
-1,6,7,-2,-4,6,5,-1,-5,-3,1,-2
-1,6,7,-2,-4,6,5,-1,-5,-3,1,-1
0,7,7,-3,-4,6,5,-1,-4,-2,1,-1
1,8,8,-4,-3,7,4,-2,-4,-2,2,0
1,9,8,-5,-3,7,4,-2,-3,-1,3,0
2,9,7,-6,-2,7,3,-3,-3,-1,3,1
3,9,6,-6,-1,7,2,-3,-3,-1,3,1
4,9,5,-6,0,6,1,-4,-3,-1,3,1
4,9,5,-6,0,6,0,-4,-3,-1,3,0
4,8,4,-6,0,5,0,-4,-4,-1,3,0
4,7,4,-5,0,5,0,-4,-4,-2,2,0
4,6,3,-5,1,4,0,-4,-4,-2,2,0
5,6,1,-5,2,3,0,-4,-4,-3,1,-1
5,5,1,-5,2,2,0,-4,-4,-3,1,-1
4,5,1,-4,2,2,0,-3,-4,-3,1,-1
4,4,0,-4,2,2,1,-3,-5,-3,1,-1
5,4,0,-4,3,1,1,-3,-5,-3,0,-1
5,4,-1,-4,3,0,1,-3,-6,-4,0,-2
4,3,0,-3,2,0,1,-3,-6,-4,0,-2
4,3,0,-3,2,0,1,-3,-6,-4,0,-2
3,2,1,-3,1,1,1,-3,-6,-4,0,-2
1,2,2,-2,0,1,1,-3,-6,-4,0,-2
0,1,2,0,-1,1,2,-3,-6,-5,0,-2
-1,1,2,0,-2,1,2,-3,-6,-5,0,-2
-1,0,3,1,-3,1,2,-3,-7,-6,0,-3
-2,0,3,1,-3,1,2,-4,-7,-6,-1,-3
-2,0,3,1,-3,1,2,-4,-8,-7,-1,-3
-3,-1,3,1,-3,0,3,-4,-8,-8,-2,-3
-3,-1,3,2,-4,0,3,-5,-8,-8,-2,-4
-4,-2,3,2,-4,0,3,-5,-8,-8,-3,-4
-4,-2,3,3,-4,0,3,-5,-9,-8,-3,-5
-5,-2,3,3,-4,0,3,-5,-9,-9,-3,-5
-5,-2,3,4,-4,0,3,-5,-10,-9,-3,-5
-5,-2,3,4,-3,0,3,-5,-10,-9,-3,-5
-5,-2,2,4,-3,0,3,-5,-10,-9,-4,-6
-5,-3,2,4,-3,-1,3,-5,-11,-10,-4,-6
-5,-3,2,4,-3,-1,3,-5,-11,-10,-4,-6
-5,-3,2,4,-4,-1,3,-5,-11,-10,-4,-6
-5,-3,2,4,-4,-1,3,-6,-11,-10,-4,-6
-5,-3,2,4,-4,-1,3,-6,-11,-10,-4,-6
-6,-3,2,4,-4,-1,3,-6,-11,-10,-4,-6
-6,-3,2,4,-3,-1,3,-6,-11,-11,-4,-6
-5,-3,2,4,-3,-1,3,-6,-11,-11,-5,-7
-5,-3,2,4,-3,-1,3,-6,-11,-11,-5,-7
-5,-3,2,4,-3,-1,3,-6,-11,-11,-5,-7
-5,-3,2,4,-3,-2,3,-6,-12,-11,-6,-7
-5,-3,1,4,-3,-2,3,-6,-12,-11,-6,-7
-5,-3,2,4,-3,-2,3,-7,-12,-11,-6,-7
-6,-3,2,5,-3,-2,3,-7,-12,-11,-7,-7
-6,-3,2,5,-3,-2,3,-7,-12,-12,-7,-7
-7,-3,3,5,-4,-1,3,-7,-11,-12,-7,-7
-7,-3,3,5,-5,-1,3,-7,-11,-12,-6,-7
-8,-4,3,6,-6,-1,3,-7,-12,-12,-6,-7
-8,-4,3,6,-6,-1,3,-7,-12,-12,-6,-7
-7,-4,3,5,-5,-1,3,-7,-12,-12,-6,-7
-7,-4,2,5,-5,-1,3,-7,-12,-12,-6,-7
-6,-4,2,5,-4,-1,3,-7,-12,-12,-6,-7
-7,-4,3,5,-5,0,3,-7,-11,-12,-6,-7
-7,-4,4,5,-5,0,3,-7,-11,-12,-6,-7
-7,-4,3,5,-5,-1,3,-7,-11,-12,-7,-7
-7,-4,3,5,-4,-1,3,-7,-12,-12,-7,-7
-8,-4,4,6,-5,-1,4,-7,-12,-12,-6,-7
-8,-4,4,6,-6,0,4,-6,-12,-12,-6,-6
-8,-4,4,6,-6,-1,4,-7,-12,-12,-6,-6
-7,-4,3,6,-5,-1,4,-7,-12,-12,-7,-7
-7,-4,2,6,-4,-2,4,-7,-12,-12,-7,-7
-7,-4,2,6,-4,-2,4,-7,-12,-12,-7,-7
-7,-4,2,6,-4,-2,4,-7,-12,-13,-7,-7
-7,-4,2,6,-4,-2,4,-6,-12,-13,-7,-7
-6,-4,1,5,-4,-2,4,-5,-12,-14,-7,-8
-7,-4,2,6,-4,-2,5,-3,-11,-14,-7,-8
-8,-4,3,7,-6,-1,7,-1,-10,-13,-6,-7
-10,-4,4,7,-7,-1,8,2,-8,-12,-6,-7
-10,-4,5,7,-7,0,10,5,-5,-11,-6,-7
-9,-2,6,6,-7,1,12,7,-2,-9,-4,-6
-8,0,8,4,-8,3,13,9,2,-6,-2,-4
-7,3,10,1,-8,5,13,11,7,-1,2,-1
-4,6,10,-1,-7,7,14,15,14,4,6,2
0,10,9,-5,-5,9,16,21,24,11,11,5
6,15,8,-10,-1,10,17,27,36,20,17,9
13,20,7,-17,3,12,15,28,51,30,24,13
21,27,6,-24,8,15,8,20,65,42,32,19
31,35,4,-33,14,18,-3,3,76,53,41,25
39,43,4,-41,18,22,-17,-16,86,65,50,31
48,53,5,-50,22,28,-31,-37,94,77,59,39
57,63,6,-60,25,34,-45,-59,100,88,69,47
64,74,8,-69,27,41,-60,-84,100,98,78,56
72,84,11,-78,30,47,-75,-111,94,106,86,63
80,92,12,-86,34,51,-91,-137,84,109,91,70
88,98,10,-93,39,53,-108,-162,69,108,93,74
93,100,6,-96,44,52,-124,-181,51,99,89,74
95,92,-2,-93,50,43,-133,-188,31,80,75,67
93,74,-18,-83,56,27,-134,-184,9,52,53,52
88,55,-32,-72,60,11,-132,-177,-11,23,30,36
81,40,-41,-60,60,-1,-130,-172,-30,1,13,23
71,26,-45,-49,57,-9,-128,-168,-50,-16,0,13
58,15,-43,-37,50,-14,-123,-164,-69,-31,-11,5
43,6,-37,-24,40,-16,-114,-155,-85,-43,-19,-1
27,-2,-30,-12,29,-17,-100,-141,-94,-51,-25,-6
14,-10,-24,-2,20,-19,-84,-123,-96,-56,-30,-12
4,-17,-21,6,13,-20,-69,-104,-93,-58,-32,-16
-3,-21,-18,11,8,-20,-55,-87,-87,-58,-33,-18
-7,-22,-15,14,4,-19,-44,-71,-78,-55,-32,-18
-8,-21,-14,14,3,-17,-34,-57,-68,-51,-30,-18
-8,-19,-12,13,2,-16,-26,-45,-58,-46,-27,-17
-8,-17,-10,13,1,-14,-19,-35,-49,-41,-24,-16
-7,-15,-8,12,1,-13,-14,-26,-40,-37,-22,-14
-7,-13,-7,10,1,-11,-9,-19,-34,-33,-19,-13
-6,-12,-5,9,0,-9,-6,-14,-28,-29,-16,-11
-6,-10,-4,8,0,-7,-3,-10,-24,-27,-14,-10
-6,-9,-3,8,-1,-6,-1,-7,-21,-24,-12,-9
-6,-9,-2,7,-2,-5,0,-5,-18,-23,-11,-8
-7,-8,-1,7,-3,-4,2,-2,-15,-21,-10,-7
-7,-7,0,7,-3,-4,4,0,-13,-20,-9,-7
-6,-7,-1,6,-2,-5,5,1,-11,-19,-9,-7
-6,-6,-1,6,-2,-5,7,3,-10,-19,-9,-7
-6,-6,0,6,-2,-4,8,5,-9,-18,-8,-6
-6,-5,0,5,-2,-4,9,6,-8,-17,-7,-6
-5,-5,0,5,-1,-4,9,6,-8,-16,-6,-6
-4,-5,-1,4,-1,-4,9,6,-8,-15,-6,-6
-4,-5,-1,4,-1,-4,9,7,-7,-15,-6,-6
-5,-5,0,5,-2,-3,10,8,-6,-14,-6,-6
-6,-5,1,5,-3,-3,10,9,-5,-14,-5,-5
-5,-5,1,5,-2,-3,11,9,-4,-14,-5,-5
-4,-4,0,4,-1,-3,11,10,-4,-14,-5,-5
-4,-4,0,4,-1,-2,11,11,-4,-13,-5,-5
-4,-3,0,4,-2,-2,11,11,-4,-13,-5,-5
-3,-3,1,3,-2,-1,11,11,-4,-12,-5,-5
-3,-3,0,3,-2,-1,11,11,-4,-12,-5,-5
-3,-3,0,3,-2,-2,12,12,-3,-11,-5,-5
-3,-3,0,3,-2,-2,12,12,-3,-11,-5,-5
-3,-3,0,3,-1,-2,12,13,-2,-11,-5,-5
-3,-3,0,3,-1,-2,12,13,-2,-11,-5,-5
-2,-3,0,2,0,-2,12,14,-2,-10,-4,-5
-2,-3,0,2,0,-2,12,14,-2,-10,-4,-5
-1,-3,0,2,0,-2,12,14,-1,-9,-4,-5
-2,-3,0,2,0,-2,12,15,-1,-9,-4,-5
-2,-3,0,2,-1,-2,12,15,0,-8,-4,-4
-2,-2,0,2,-1,-2,12,15,0,-8,-4,-4
-2,-2,0,1,-1,-1,12,15,0,-8,-4,-4
-1,-2,0,1,0,-1,12,15,0,-8,-4,-4
-1,-2,0,1,0,-1,12,16,1,-8,-4,-3
-1,-2,0,1,0,-1,12,16,1,-7,-3,-3
-1,-2,0,1,0,-1,12,16,1,-7,-3,-3
0,-1,0,1,0,-1,12,16,2,-7,-3,-3
0,-1,0,1,0,-1,12,16,2,-7,-3,-3
0,-1,0,1,0,-1,12,16,3,-7,-2,-3
0,0,0,0,0,-1,12,16,3,-7,-2,-3
0,0,0,0,0,-1,12,17,4,-7,-2,-3
0,0,0,0,0,-1,12,17,4,-7,-2,-3
0,0,0,0,1,-1,12,17,4,-7,-2,-3
1,0,-1,0,1,-1,12,17,5,-7,-2,-3
1,0,-1,0,2,-1,11,17,5,-6,-2,-3
1,0,0,0,1,-1,11,18,6,-6,-2,-2
1,0,0,0,1,-1,11,18,6,-6,-2,-2
2,0,0,-1,2,-1,11,18,7,-6,-2,-2
2,0,0,-1,2,-1,11,19,7,-6,-1,-2
2,1,0,-2,2,-1,11,19,8,-5,-1,-2
3,1,-1,-2,2,0,11,20,8,-5,-1,-2
3,2,0,-2,2,0,11,21,9,-5,0,-1
3,2,0,-2,2,0,11,22,9,-4,0,-1
3,2,0,-3,2,0,11,23,10,-4,0,0
3,2,0,-3,2,0,11,24,11,-4,0,0
3,2,0,-3,2,0,11,25,11,-3,0,0
3,2,0,-3,2,0,11,25,12,-3,1,0
4,3,-1,-3,3,0,10,26,12,-3,1,0
6,3,-2,-4,4,0,10,26,13,-3,1,0
6,4,-1,-5,4,0,10,27,14,-2,1,0
6,4,-1,-5,3,1,10,28,15,-2,2,0
6,4,-1,-6,4,1,9,29,16,-1,2,1
7,5,-1,-7,5,0,9,30,16,-1,2,1
8,5,-2,-7,6,0,9,31,17,0,2,1
8,6,-2,-7,6,1,9,32,18,0,3,1
8,6,-2,-7,6,1,9,33,19,1,4,1
8,6,-2,-7,6,1,9,34,20,1,4,1
9,7,-2,-8,6,1,9,35,21,2,5,1
10,7,-2,-8,6,1,8,35,21,2,5,2
11,8,-2,-9,7,1,8,36,22,2,5,2
12,8,-2,-10,8,1,7,37,22,2,5,2
13,9,-3,-11,9,1,7,37,23,3,6,2
13,9,-2,-11,8,2,7,38,25,4,7,3
13,10,-2,-11,8,2,6,39,26,5,7,4
14,10,-3,-12,9,2,6,39,27,6,8,4
14,10,-3,-12,9,2,5,39,28,6,8,4
15,11,-3,-13,9,2,5,39,28,7,8,5
16,11,-3,-13,10,2,4,40,29,7,8,5
16,12,-4,-14,10,2,4,40,29,7,9,5
16,12,-3,-14,10,3,4,40,30,8,9,6
16,13,-3,-14,10,3,4,40,30,8,10,7
16,13,-3,-14,10,4,4,40,31,9,10,7
16,13,-3,-15,10,4,3,39,31,9,10,8
17,13,-3,-15,10,4,3,39,31,9,10,8
17,13,-3,-16,10,4,2,39,31,9,11,8
17,13,-3,-16,10,4,2,38,31,9,11,8
17,14,-3,-16,10,5,2,38,31,9,11,8
18,14,-2,-16,10,5,2,37,31,9,11,8
18,14,-3,-16,11,5,1,37,31,9,11,8
19,14,-4,-17,12,4,1,36,30,9,11,8
19,14,-4,-17,12,4,0,35,30,8,11,8
19,14,-4,-17,12,4,0,35,29,8,11,8
18,14,-3,-17,11,5,0,35,29,8,11,8
18,14,-3,-16,10,5,0,34,28,8,11,8
18,14,-3,-16,10,5,0,34,28,8,11,8
17,14,-3,-16,10,5,0,33,27,7,11,8
17,14,-2,-16,9,5,0,32,27,7,11,8
16,14,-2,-15,9,5,0,31,26,6,11,8
15,14,-1,-15,8,5,0,31,25,6,10,8
14,14,-1,-14,8,6,0,30,24,6,10,8
14,14,0,-14,7,6,0,30,24,6,10,8
14,13,0,-14,7,6,0,29,23,5,9,8
14,13,-1,-14,8,5,0,27,22,5,9,8
14,13,-1,-13,7,5,0,26,20,4,9,8
13,13,0,-13,6,5,0,25,19,4,9,8
12,12,0,-12,6,5,0,24,18,4,9,8
11,12,0,-12,5,5,0,23,17,3,8,7
11,12,0,-12,5,5,0,22,17,3,8,7
11,11,0,-12,5,5,0,21,15,2,7,6
10,11,1,-11,5,5,0,19,14,2,7,6
9,10,2,-10,4,5,0,18,13,1,7,6
8,10,2,-10,3,5,0,17,12,1,7,5
8,10,2,-9,3,5,0,15,11,0,6,5
7,9,2,-9,3,5,0,14,10,-1,6,4
7,9,2,-8,3,5,0,13,9,-1,5,4
6,8,2,-8,3,4,0,12,8,-2,5,4
6,8,2,-7,2,4,0,11,7,-2,4,4
5,7,2,-6,1,4,1,10,6,-3,4,4
4,7,3,-5,0,4,1,9,5,-3,4,3
3,6,3,-4,0,4,1,8,4,-4,3,3
3,6,3,-4,0,4,1,7,3,-4,3,2
2,5,3,-3,0,4,1,6,2,-5,3,2
1,5,3,-3,-1,4,1,5,1,-5,2,2
1,4,3,-2,-1,3,1,4,0,-5,2,2
0,4,3,-2,-1,3,2,4,0,-5,1,2
0,3,3,-1,-1,3,2,3,0,-6,1,1
0,3,3,-1,-1,2,2,3,-1,-6,0,1
-1,2,4,0,-2,2,2,2,-1,-7,0,1
-2,2,4,0,-2,2,2,2,-2,-7,0,1
-2,1,3,0,-2,1,2,1,-2,-8,0,0
-2,1,2,0,-2,1,3,0,-3,-8,0,0
-2,1,2,0,-2,1,3,0,-3,-8,0,0
-2,0,2,1,-2,1,3,0,-3,-9,-1,0
-2,0,2,1,-1,0,3,-1,-4,-9,-1,-1
-2,0,2,1,-1,0,3,-1,-4,-10,-1,-1
-2,0,2,1,-2,1,3,-1,-4,-10,-1,-1
-3,0,3,2,-2,1,3,0,-5,-10,-1,-1
-3,0,3,2,-3,1,3,0,-5,-10,-1,-1
-3,0,3,2,-3,0,3,0,-5,-10,-1,-1
-3,-1,2,2,-2,0,3,0,-5,-10,-1,-1
-3,-1,2,2,-2,0,3,0,-5,-10,-2,-1
-3,-1,2,3,-2,0,3,0,-5,-10,-2,-1
-4,-1,2,3,-2,0,3,0,-5,-10,-2,-1
-4,-2,2,3,-2,0,3,0,-5,-10,-2,-1
-4,-2,2,3,-2,0,3,0,-5,-10,-2,-1
-4,-2,2,3,-2,0,3,0,-5,-10,-2,-1
-4,-2,2,3,-2,0,3,0,-5,-10,-2,-1
-4,-2,2,3,-2,0,3,0,-5,-10,-2,-1
-4,-2,2,3,-2,0,3,0,-5,-10,-2,-1
-4,-2,2,3,-2,0,3,-1,-5,-10,-2,-1
-3,-2,1,3,-2,-1,3,-1,-6,-11,-2,-1
-3,-2,1,3,-2,-1,3,-1,-6,-11,-3,-2
-3,-2,0,2,-1,-1,3,-1,-6,-11,-3,-2
-3,-2,0,2,-1,-1,3,-1,-6,-11,-3,-2
-3,-2,1,2,-2,-1,3,-1,-6,-11,-3,-2
-3,-2,0,2,-1,-1,3,-1,-6,-11,-3,-2
-2,-2,0,2,0,-2,3,-1,-6,-11,-4,-2
-1,-2,-1,2,0,-2,3,-1,-6,-11,-4,-2
-2,-2,0,2,-1,-1,3,-1,-6,-11,-3,-2
-3,-2,1,3,-2,-1,4,-1,-5,-11,-3,-1
-3,-2,1,2,-2,-1,4,-1,-5,-11,-3,-1
-3,-2,1,2,-1,-1,3,-1,-5,-11,-3,-2
-3,-2,1,2,-1,-1,3,-1,-5,-11,-3,-2
-4,-2,2,3,-2,-1,4,0,-5,-11,-3,-2
-3,-2,2,3,-2,-1,4,0,-5,-11,-3,-2
-2,-2,0,3,-1,-1,4,-1,-5,-12,-3,-2
-2,-2,0,3,-1,-1,4,-1,-5,-12,-3,-2
-3,-2,0,3,-2,-1,4,0,-5,-11,-3,-2
-3,-2,1,3,-2,-1,4,0,-5,-11,-3,-2
-3,-2,1,3,-2,-1,4,0,-5,-11,-4,-2
-3,-2,2,3,-2,0,4,0,-5,-11,-4,-2
-3,-2,2,2,-2,0,4,0,-5,-11,-4,-2
-3,-2,1,2,-2,-1,4,0,-5,-11,-4,-2
-2,-2,0,2,-1,-1,4,0,-5,-11,-4,-2
-2,-2,0,2,-1,-1,4,0,-4,-10,-4,-2
-3,-2,0,2,-2,-1,4,1,-4,-10,-4,-1
-4,-2,1,2,-2,0,4,1,-4,-11,-4,-1
-4,-2,1,2,-3,0,4,1,-4,-11,-4,-1
-4,-2,1,2,-2,0,4,1,-4,-11,-4,-1
-3,-2,1,2,-2,-1,4,1,-4,-11,-4,-1
-3,-2,1,2,-1,-1,4,1,-4,-11,-4,-1
-3,-2,1,2,-1,-1,4,1,-4,-11,-4,-1
-3,-2,1,2,-1,-1,4,1,-4,-11,-4,-1
-3,-2,1,2,-1,-1,4,1,-4,-11,-4,-2
-3,-2,1,2,-1,-1,4,1,-4,-11,-4,-2
-3,-2,1,2,-1,-1,4,1,-4,-11,-4,-1
-3,-2,1,2,-1,-1,4,1,-4,-11,-3,-1
-3,-2,1,2,-1,0,4,1,-4,-11,-3,-1
-3,-2,1,2,-1,0,4,1,-4,-11,-3,-1
-3,-1,1,2,-1,0,4,1,-4,-11,-3,-1
-3,-1,1,2,-1,0,4,1,-4,-11,-3,-1
-3,-1,1,2,-1,0,4,0,-4,-11,-3,-1
-3,-1,1,2,-1,0,4,0,-4,-11,-3,-1
-3,-1,1,2,-1,0,4,0,-4,-11,-3,-1
-4,-1,2,2,-2,0,4,0,-4,-11,-3,0
-4,-1,3,2,-2,0,4,0,-4,-11,-3,0
-3,-1,2,2,-2,-1,4,0,-4,-11,-4,0
-2,-1,1,1,-1,-1,4,0,-4,-11,-4,0
-1,-1,1,1,0,-1,4,-1,-4,-11,-3,0
-2,-1,1,2,-1,0,3,-1,-4,-11,-3,0
-2,-1,1,2,-1,0,3,-1,-5,-11,-3,-1
-2,-1,1,1,-1,0,3,-1,-5,-11,-3,-1
-2,-1,1,1,-1,0,3,-1,-5,-11,-3,-1
-3,-1,2,2,-2,0,3,-1,-5,-11,-3,0
-3,-1,3,2,-2,0,4,-1,-5,-11,-3,0
-3,-1,3,2,-2,0,4,-1,-5,-11,-3,0
-3,-1,2,2,-2,0,4,-2,-5,-11,-3,0
-3,-1,2,2,-2,0,4,-2,-5,-11,-4,0
-3,-1,2,2,-2,0,4,-2,-5,-11,-4,0
-3,-1,2,2,-2,0,4,-2,-5,-11,-4,0
-3,-1,1,2,-1,-1,4,-2,-6,-11,-5,-1
-2,-1,1,2,-1,-1,4,-3,-6,-11,-5,-1
-2,-1,0,2,0,-1,4,-3,-7,-11,-5,-2
-1,-1,0,2,0,-1,4,-3,-7,-12,-5,-2
-2,-1,0,2,0,-1,4,-3,-7,-12,-5,-2
-3,-1,1,2,-1,-1,4,-3,-7,-12,-4,-1
-4,-1,1,3,-2,-1,4,-2,-7,-12,-4,-1
-4,-1,1,3,-2,-1,4,-3,-7,-12,-4,-1
-4,-1,1,3,-2,-1,4,-3,-7,-12,-4,-1
-4,-2,1,3,-2,-1,4,-3,-7,-11,-4,-1
-4,-2,1,3,-2,-1,3,-3,-7,-11,-4,-1
-4,-2,1,3,-1,-1,3,-3,-7,-11,-5,-1
-4,-2,1,3,-1,-1,3,-4,-8,-11,-5,-1
-3,-2,1,3,-1,0,3,-4,-8,-11,-4,-1
-3,-1,2,2,-1,0,3,-4,-8,-11,-4,-1
-3,-1,2,2,-2,0,3,-4,-8,-11,-4,-1
-3,0,3,2,-2,1,4,-3,-7,-11,-3,-1
-3,0,4,1,-3,2,4,-3,-6,-10,-3,0
-3,1,5,1,-3,3,5,-2,-5,-9,-2,0
-2,3,6,0,-3,4,5,-2,-5,-8,-2,1
-1,3,5,-1,-3,4,5,-2,-5,-8,-1,1
-1,4,5,-1,-2,4,5,-2,-5,-8,-1,1
0,4,5,-1,-2,4,5,-2,-5,-8,-1,1
0,4,5,-1,-2,4,5,-2,-5,-8,-1,1
0,4,4,-1,-1,4,5,-2,-5,-8,-1,1
0,4,4,-2,-1,4,4,-2,-5,-8,-1,1
1,4,4,-2,0,3,4,-2,-5,-8,-1,1
1,4,4,-2,0,3,4,-2,-4,-8,-1,1
1,4,4,-2,0,4,4,-1,-4,-7,0,2
2,5,5,-3,0,4,4,-1,-3,-6,0,2
3,7,5,-4,0,5,4,-2,-2,-6,0,3
3,7,4,-5,0,5,3,-2,-2,-6,1,3
4,8,4,-5,0,5,2,-3,-2,-6,1,3
4,8,3,-6,1,5,1,-3,-2,-6,1,3
4,7,3,-5,1,5,1,-3,-2,-6,1,4
4,6,2,-5,2,4,0,-3,-3,-6,1,4
4,5,1,-5,3,3,0,-3,-4,-7,0,3
4,4,0,-4,2,2,0,-3,-4,-7,0,3
3,4,1,-3,2,1,1,-2,-5,-7,0,3
4,3,0,-3,2,1,1,-2,-5,-8,0,3
5,3,-1,-3,4,0,0,-2,-5,-8,0,2
5,3,-2,-3,5,0,0,-2,-5,-9,0,2
4,2,-2,-3,4,0,1,-2,-5,-9,0,2
3,2,-1,-2,3,0,1,-2,-5,-9,0,2
3,1,-2,-2,3,-1,1,-2,-6,-9,-1,2
4,0,-3,-2,4,-2,0,-3,-7,-9,-1,2
4,0,-3,-2,4,-2,0,-4,-7,-9,-1,1
2,0,-3,-1,3,-2,1,-4,-7,-9,-1,1
0,-1,-2,1,2,-2,2,-3,-7,-9,-1,1
-1,-2,-1,2,0,-2,2,-3,-7,-9,-1,1
-2,-3,0,3,0,-2,2,-3,-7,-10,-2,0
-3,-3,0,4,-1,-2,2,-3,-8,-10,-2,0
-4,-4,0,4,-2,-2,2,-3,-8,-11,-3,0
-5,-4,1,5,-3,-2,2,-3,-9,-11,-3,0
-6,-5,1,5,-3,-2,2,-3,-9,-11,-3,0
-6,-5,1,5,-3,-2,2,-3,-10,-11,-3,0
-5,-6,0,5,-2,-3,2,-4,-10,-11,-3,0
-5,-6,-1,5,-1,-4,2,-4,-10,-12,-4,-1
-5,-6,-1,6,-2,-4,2,-4,-11,-12,-4,-1
-6,-6,0,6,-2,-4,2,-4,-11,-13,-4,-1
-6,-6,0,6,-2,-4,2,-5,-11,-13,-4,-1
-7,-7,0,6,-3,-4,2,-5,-11,-13,-5,-1
-7,-7,0,7,-3,-4,2,-5,-11,-13,-5,-2
-6,-8,0,7,-2,-4,2,-5,-12,-13,-5,-2
-7,-8,0,7,-2,-4,2,-5,-12,-13,-5,-2
-7,-8,0,8,-2,-4,2,-5,-12,-13,-5,-2
-8,-8,0,9,-2,-4,2,-5,-12,-14,-6,-2
-8,-8,0,9,-2,-4,2,-5,-12,-14,-6,-2
-8,-8,0,9,-3,-4,2,-5,-12,-14,-6,-2
-8,-8,0,9,-3,-4,2,-5,-12,-14,-6,-2
-8,-8,0,9,-3,-4,2,-5,-13,-14,-6,-2
-8,-9,0,9,-3,-4,2,-5,-13,-14,-6,-2
-8,-9,0,9,-3,-4,2,-5,-13,-14,-6,-2
-9,-9,0,9,-3,-5,2,-5,-13,-14,-6,-2
-9,-9,0,10,-4,-5,2,-5,-13,-14,-6,-2
-10,-9,0,10,-4,-5,2,-5,-13,-14,-6,-2
-10,-9,0,10,-3,-5,2,-6,-13,-14,-7,-3
-9,-9,0,10,-3,-5,2,-6,-13,-14,-7,-3
-9,-9,0,10,-3,-5,2,-6,-13,-14,-7,-3
-9,-9,0,10,-3,-5,2,-6,-13,-14,-7,-3
-9,-10,0,10,-3,-5,2,-6,-13,-14,-7,-3
-9,-10,0,10,-3,-6,2,-6,-13,-14,-7,-3
-10,-10,0,10,-4,-6,3,-6,-14,-14,-7,-3
-10,-10,0,10,-4,-5,3,-6,-14,-14,-7,-3
-10,-10,0,10,-4,-5,3,-6,-14,-14,-7,-3
-11,-10,0,10,-5,-5,3,-6,-14,-14,-6,-3
-11,-10,0,10,-5,-5,3,-6,-14,-14,-6,-3
-10,-10,0,10,-4,-5,3,-6,-14,-14,-6,-3
-10,-10,0,10,-5,-5,3,-5,-14,-14,-6,-3
-11,-10,1,11,-5,-5,3,-5,-14,-14,-6,-2
-11,-10,1,11,-6,-5,4,-4,-14,-14,-6,-2
-11,-10,1,11,-5,-5,4,-4,-14,-14,-6,-2
-10,-10,0,10,-5,-5,4,-4,-14,-15,-6,-3
-10,-10,0,10,-4,-6,4,-4,-14,-15,-6,-3
-10,-10,0,10,-4,-6,3,-4,-14,-15,-6,-3
-10,-10,0,10,-4,-6,3,-3,-14,-15,-6,-3
-11,-10,0,11,-4,-6,3,-3,-14,-15,-6,-3
-11,-10,0,11,-4,-6,4,-2,-14,-15,-6,-3
-11,-10,0,11,-4,-6,4,0,-14,-15,-6,-3
-11,-10,0,11,-5,-6,5,2,-12,-15,-6,-3
-12,-10,1,12,-6,-5,7,5,-10,-14,-6,-3
-13,-9,4,12,-8,-4,10,9,-7,-13,-5,-2
-14,-8,7,11,-10,-1,11,12,-3,-10,-3,-1
-13,-5,9,9,-11,1,12,13,1,-5,0,1
-12,-1,11,7,-11,4,13,15,7,0,4,4
-9,2,11,4,-9,5,14,18,14,5,8,7
-4,5,9,0,-6,6,15,24,24,12,13,10
3,10,7,-6,-2,7,16,29,36,21,18,13
11,15,5,-13,3,9,14,29,50,31,25,17
21,22,2,-21,9,11,6,19,63,43,33,23
30,30,1,-30,15,14,-6,2,74,54,41,29
38,39,1,-38,19,19,-20,-18,84,66,50,35
47,49,2,-48,22,25,-34,-39,92,78,60,43
56,60,3,-57,26,31,-48,-63,96,89,70,51
64,70,5,-67,30,37,-64,-89,94,98,78,58
72,80,7,-76,33,43,-80,-116,87,104,85,66
80,88,7,-84,37,47,-95,-141,76,106,90,72
87,93,6,-90,41,49,-111,-165,60,103,90,75
91,93,1,-92,46,46,-125,-182,41,93,84,74
91,82,-8,-86,50,36,-132,-186,21,71,68,65
86,64,-22,-74,55,20,-132,-180,0,43,45,50
80,46,-34,-62,58,5,-130,-173,-20,17,24,34
73,31,-42,-51,58,-6,-129,-169,-39,-3,8,22
63,18,-45,-40,54,-14,-126,-166,-59,-21,-4,13
50,8,-42,-28,46,-18,-121,-161,-78,-35,-14,5
34,-1,-35,-16,35,-19,-110,-151,-91,-45,-21,0
19,-9,-29,-4,25,-20,-96,-136,-99,-52,-27,-5
7,-17,-24,5,17,-22,-80,-117,-100,-56,-31,-10
-3,-22,-19,13,9,-22,-65,-98,-96,-56,-33,-13
-10,-25,-15,18,3,-21,-52,-81,-88,-55,-33,-14
-13,-26,-13,20,0,-20,-41,-66,-79,-52,-32,-15
-14,-25,-12,20,0,-19,-32,-52,-68,-48,-29,-14
-14,-23,-10,19,-1,-18,-24,-40,-58,-43,-26,-13
-14,-21,-7,18,-2,-16,-17,-30,-48,-38,-23,-12
-13,-19,-5,17,-2,-14,-12,-21,-40,-33,-20,-10
-12,-17,-5,15,-2,-12,-8,-15,-34,-29,-17,-8
-11,-16,-4,14,-2,-11,-5,-11,-29,-26,-15,-7
-11,-15,-3,13,-3,-9,-2,-8,-25,-24,-13,-6
-11,-14,-2,13,-4,-8,-1,-6,-22,-22,-12,-5
-11,-13,-2,12,-4,-8,0,-3,-19,-21,-10,-5
-11,-12,-1,12,-5,-7,2,-1,-17,-19,-9,-5
-12,-12,0,12,-6,-7,4,1,-14,-17,-8,-5
-13,-11,2,13,-6,-6,6,3,-12,-16,-7,-4
-13,-11,2,12,-6,-6,8,5,-10,-15,-7,-4
-13,-11,3,12,-7,-5,9,6,-9,-14,-6,-3
-14,-11,3,12,-7,-4,10,7,-9,-13,-6,-3
-14,-10,4,12,-8,-4,10,8,-8,-12,-5,-2
-13,-10,4,12,-8,-4,10,9,-7,-12,-5,-2
-13,-10,3,11,-7,-4,10,9,-6,-12,-5,-2
-12,-10,2,11,-6,-5,10,9,-5,-12,-5,-2
-12,-10,2,11,-5,-5,10,10,-5,-11,-5,-2
-11,-10,2,11,-5,-5,11,11,-4,-11,-4,-2
-11,-9,2,11,-5,-5,11,11,-3,-10,-4,-2
-11,-9,2,10,-5,-5,11,12,-3,-10,-4,-2
-11,-8,2,10,-6,-4,11,12,-3,-10,-4,-2
-11,-8,2,10,-6,-4,11,12,-2,-10,-4,-2
-11,-8,2,10,-6,-4,11,13,-2,-10,-4,-2
-11,-8,2,10,-6,-4,12,13,-2,-10,-4,-1
-11,-8,3,10,-7,-3,12,14,-1,-9,-3,-1
-11,-8,4,10,-7,-3,12,15,-1,-9,-3,0
-10,-8,3,9,-6,-3,12,15,0,-9,-3,0
-10,-8,3,9,-6,-3,12,16,0,-8,-3,0
-9,-8,2,9,-5,-3,12,16,0,-8,-3,0
-9,-7,2,9,-4,-4,12,16,0,-8,-3,0
-9,-7,2,9,-4,-4,12,16,0,-7,-3,0
-9,-7,2,9,-5,-4,12,16,0,-7,-3,0
-9,-7,2,9,-5,-4,12,17,1,-7,-2,0
-9,-7,2,8,-4,-4,12,17,1,-7,-2,0
-8,-7,2,8,-4,-4,12,17,2,-7,-2,0
-8,-7,2,8,-4,-4,12,17,2,-7,-2,0
-8,-7,2,7,-4,-3,12,17,3,-7,-2,0
-8,-6,2,7,-3,-3,12,17,3,-7,-1,0
-7,-6,1,7,-3,-3,12,17,3,-7,-1,0
-7,-6,1,7,-2,-4,12,17,3,-7,-1,0
-7,-6,1,7,-3,-4,12,18,4,-6,-1,0
-7,-6,1,7,-3,-3,12,18,4,-6,-1,1
-7,-6,1,6,-3,-3,12,19,5,-6,-1,1
-7,-6,1,6,-3,-3,12,19,5,-5,-1,1
-6,-6,1,6,-3,-3,12,19,6,-5,-1,1
-6,-5,1,6,-2,-3,12,19,6,-5,-1,1
-6,-5,1,6,-2,-3,11,19,6,-5,-1,1
-5,-4,1,5,-2,-3,11,20,7,-4,-1,1
-5,-4,1,5,-2,-3,12,20,8,-4,0,1
-5,-4,1,4,-2,-2,12,21,8,-3,0,1
-5,-4,1,4,-1,-3,12,21,9,-3,0,1
-4,-4,0,3,0,-3,11,21,9,-3,0,1
-3,-3,0,3,0,-3,11,22,10,-3,0,1
-3,-3,1,3,-1,-2,11,23,10,-2,1,2
-4,-3,1,3,-1,-2,11,24,11,-2,1,2
-4,-3,2,3,-1,-1,11,24,12,-1,2,2
-3,-2,2,3,-1,-1,11,25,13,-1,2,2
-2,-2,0,2,0,-2,11,26,13,-1,1,2
-2,-2,0,2,0,-2,11,26,14,-1,1,2
-2,-2,0,2,0,-2,11,27,14,-1,2,2
-1,-1,0,2,0,-1,11,28,15,0,2,3
-1,-1,1,1,0,-1,11,29,16,0,3,3
-1,0,1,1,0,0,11,30,17,1,3,3
-1,0,1,1,0,0,11,31,18,1,3,3
0,0,1,0,0,0,11,32,18,2,4,4
0,1,1,0,0,0,11,33,19,2,4,4
1,1,1,0,1,0,11,33,20,3,4,5
2,2,0,-1,2,0,10,34,20,3,5,5
3,2,0,-2,3,0,10,35,21,4,5,5
4,3,-1,-3,4,0,9,35,22,4,5,5
4,3,-1,-3,4,1,9,36,23,5,6,5
4,3,-1,-4,3,1,9,37,24,6,6,5
5,3,-1,-4,4,0,8,38,24,6,7,5
5,4,-1,-5,4,0,8,38,25,6,7,6
6,4,-1,-5,5,1,7,39,26,7,8,6
7,5,-1,-6,5,1,7,40,27,7,8,7
8,5,-1,-6,6,1,6,40,28,8,9,7
9,6,-1,-7,6,1,6,41,28,8,9,7
10,6,-2,-8,6,1,6,41,29,9,9,7
11,7,-2,-9,7,1,5,41,29,9,9,7
11,8,-2,-9,7,2,4,41,29,10,9,7
11,8,-2,-10,7,2,4,41,30,10,10,8
12,9,-2,-10,8,2,3,41,30,11,10,8
14,10,-3,-11,10,2,3,41,30,11,10,8
14,10,-3,-12,10,2,3,41,30,11,10,8
13,11,-2,-11,8,3,3,41,30,12,10,9
12,11,0,-11,7,4,3,40,31,12,10,10
12,11,-1,-11,7,4,3,40,31,12,10,10
13,11,-1,-12,7,4,2,39,30,12,10,10
13,11,-1,-12,7,4,2,39,30,12,10,10
12,11,-1,-12,7,4,2,39,30,12,10,10
12,11,0,-11,7,4,2,38,29,12,10,10
12,12,0,-12,7,4,1,38,29,12,10,10
12,12,0,-12,7,4,1,37,28,11,10,9
13,12,-1,-12,8,4,1,36,27,11,10,9
12,11,0,-12,7,4,1,36,27,11,10,9
11,11,0,-11,6,5,1,35,27,11,10,10
10,11,1,-10,5,5,1,35,27,11,10,10
10,11,0,-10,6,4,1,34,26,11,9,9
10,11,0,-10,6,4,1,34,25,10,9,9
10,11,0,-10,6,4,1,33,24,10,9,9
11,10,0,-10,6,4,0,32,23,9,9,9
11,10,0,-10,6,4,0,30,22,8,8,8
9,10,1,-10,5,4,1,29,21,8,8,8
7,9,2,-9,3,5,1,29,20,8,8,8
7,9,2,-8,3,4,1,28,19,7,7,8
7,9,2,-7,3,4,1,27,18,6,7,7
7,9,2,-7,3,4,1,26,17,6,7,7
7,8,2,-7,3,4,1,25,16,6,7,7
7,8,2,-7,3,4,1,24,15,6,7,7
6,8,3,-6,2,4,1,23,14,6,7,6
5,7,3,-6,2,4,1,22,12,5,6,6
4,7,3,-5,2,4,1,20,11,5,6,5
3,6,3,-4,1,4,1,19,10,4,5,5
2,6,3,-3,0,4,2,18,9,4,5,5
2,5,3,-3,0,4,2,16,8,3,4,5
1,5,3,-2,0,3,2,15,6,3,4,4
0,4,4,-2,-1,3,2,15,5,2,3,4
0,4,5,-1,-2,3,2,14,5,2,3,4
-1,3,5,0,-2,3,2,13,4,2,3,3
-1,2,4,0,-2,2,2,12,3,1,2,3
-2,2,4,0,-2,2,2,11,2,1,2,2
-3,1,4,1,-2,2,3,10,1,0,2,2
-4,0,4,2,-3,1,3,10,1,0,1,2
-4,0,4,3,-3,1,3,9,0,0,1,2
-4,0,4,3,-3,1,3,8,0,-1,0,1
-4,-1,3,3,-3,0,3,7,-1,-1,0,1
-5,-1,4,4,-3,0,4,6,-1,-1,0,0
-5,-2,4,4,-3,0,4,5,-1,-1,0,0
-5,-2,3,3,-3,0,4,5,-2,-2,-1,0
-5,-2,3,3,-2,0,4,4,-2,-2,-1,0
-5,-3,2,4,-2,0,4,3,-3,-3,-1,0
-6,-3,2,4,-3,0,4,3,-3,-3,-1,0
-6,-3,2,5,-3,0,4,2,-3,-3,-1,-1
-6,-3,3,5,-4,0,4,2,-4,-4,-1,-1
-6,-3,3,5,-4,-1,4,1,-4,-4,-2,-1
-6,-3,2,5,-3,-1,4,1,-5,-5,-2,-1
-6,-3,2,5,-3,-2,4,0,-5,-5,-2,-2
-6,-4,2,6,-4,-2,4,0,-5,-5,-2,-2
-7,-4,2,6,-4,-2,4,0,-5,-5,-3,-2
-7,-4,2,6,-4,-2,4,0,-5,-5,-3,-2
-7,-4,3,6,-4,-1,4,0,-5,-5,-3,-2
-8,-4,3,6,-5,-1,5,0,-5,-5,-3,-2
-8,-4,3,6,-5,-1,5,0,-5,-5,-3,-2
-8,-4,3,6,-5,-1,5,0,-5,-5,-3,-2
-8,-4,3,6,-4,-1,5,0,-5,-5,-3,-2
-8,-5,2,6,-4,-2,5,1,-5,-5,-3,-2
-8,-5,2,6,-4,-2,5,1,-5,-5,-3,-2
-8,-5,2,6,-4,-2,5,1,-6,-5,-3,-2
-7,-5,2,6,-4,-2,5,1,-6,-5,-3,-2
-7,-5,3,6,-4,-2,5,1,-6,-5,-3,-2
-8,-5,3,6,-4,-2,5,1,-6,-6,-4,-3
-7,-5,2,6,-3,-2,5,1,-6,-6,-4,-3
-6,-5,1,5,-2,-2,5,1,-6,-6,-4,-3
-7,-5,2,6,-3,-2,5,1,-6,-6,-4,-3
-7,-5,2,7,-3,-2,5,1,-6,-6,-4,-3
-8,-5,2,7,-4,-2,5,1,-5,-6,-4,-3
-9,-5,3,7,-5,-2,5,1,-5,-5,-4,-3
-9,-5,3,7,-5,-1,6,1,-5,-5,-4,-3
-9,-5,4,7,-6,-1,6,2,-5,-5,-4,-3
-9,-5,4,7,-6,-1,6,2,-4,-5,-4,-3
-9,-5,3,7,-6,-1,6,2,-4,-5,-4,-3
-9,-5,3,7,-6,-1,6,2,-3,-5,-4,-3
-9,-5,4,7,-6,-1,7,2,-3,-5,-4,-3
-9,-5,4,7,-6,-1,7,3,-3,-5,-4,-3
-9,-5,4,6,-5,-1,7,3,-3,-5,-4,-4
-8,-4,3,6,-5,-1,7,3,-4,-5,-4,-4
-8,-4,4,6,-5,-1,7,3,-3,-5,-4,-4
-8,-4,4,6,-5,-1,7,3,-3,-5,-4,-4
-8,-4,3,6,-4,-1,7,3,-3,-5,-4,-4
-7,-4,3,6,-4,-1,7,3,-3,-5,-4,-4
-8,-4,3,6,-5,-1,7,3,-3,-4,-4,-4
-8,-4,3,6,-5,-1,7,3,-2,-4,-3,-3
-8,-4,3,6,-5,-1,7,3,-2,-4,-3,-3
-8,-4,3,6,-4,-1,7,3,-2,-4,-3,-3
-8,-4,3,6,-4,-1,7,3,-2,-4,-3,-3
-8,-4,3,6,-4,-1,7,4,-1,-4,-3,-3
-8,-4,3,6,-4,-1,7,4,-1,-4,-3,-3
-8,-4,3,6,-5,-1,7,4,0,-4,-3,-3
-9,-4,4,6,-5,-1,7,4,0,-4,-3,-3
-8,-4,3,6,-5,-1,7,4,-1,-4,-3,-3
-7,-4,3,6,-4,-1,7,4,-1,-4,-3,-4
-7,-4,3,6,-4,-1,7,4,-1,-4,-3,-4
-7,-4,3,6,-4,-1,7,5,-1,-4,-3,-4
-7,-4,3,6,-4,-1,7,5,-1,-4,-3,-4
-7,-4,3,6,-4,-1,7,5,-1,-4,-3,-4
-7,-4,3,6,-5,-1,7,5,-1,-4,-3,-4
-8,-4,3,6,-5,-1,7,5,-1,-4,-3,-4
-8,-4,3,7,-5,-1,7,5,-1,-4,-3,-4
-8,-4,3,7,-5,-1,7,5,-1,-4,-3,-4
-8,-4,3,7,-4,-1,7,5,-1,-4,-3,-4
-8,-4,3,7,-4,-1,7,4,-1,-4,-3,-3
-8,-4,3,6,-4,-1,7,4,-1,-4,-3,-3
-8,-4,3,6,-4,-1,7,4,-1,-5,-3,-3
-8,-4,3,6,-5,-1,7,4,-1,-5,-3,-3
-8,-4,3,6,-5,-1,7,4,-1,-5,-3,-3
-8,-4,3,6,-5,-1,7,4,-1,-5,-3,-3
-8,-4,3,6,-4,-1,7,4,-1,-5,-3,-3
-7,-4,2,5,-3,-1,7,3,-2,-5,-3,-3
-7,-4,1,5,-3,-2,6,3,-2,-5,-3,-3
-7,-4,2,6,-4,-1,6,3,-2,-4,-2,-3
-8,-4,2,6,-5,-1,7,3,-2,-4,-2,-3
-8,-4,2,6,-5,-1,7,2,-2,-4,-2,-3
-8,-4,2,6,-5,-1,7,2,-2,-4,-2,-3
-8,-4,2,6,-4,-2,7,2,-2,-4,-2,-3
-8,-4,1,6,-4,-2,7,2,-2,-4,-2,-3
-8,-4,1,6,-4,-2,6,2,-3,-4,-2,-3
-8,-4,1,6,-4,-2,6,2,-3,-4,-2,-3
-7,-4,1,6,-4,-2,6,2,-3,-5,-2,-3
-7,-4,1,6,-4,-2,6,2,-3,-5,-2,-4
-7,-4,1,6,-4,-2,6,2,-3,-5,-2,-4
-7,-4,1,6,-4,-2,6,2,-3,-5,-2,-4
-8,-5,2,6,-4,-1,6,2,-3,-5,-2,-4
-8,-5,2,6,-4,-1,6,2,-3,-5,-2,-4
-7,-5,2,6,-4,-1,6,1,-4,-5,-3,-4
-7,-5,1,6,-3,-2,6,1,-4,-6,-3,-5
-6,-5,1,6,-3,-2,6,1,-4,-6,-3,-5
-6,-5,1,6,-3,-2,6,1,-4,-6,-3,-5
-6,-5,1,6,-3,-2,6,1,-4,-6,-3,-5
-7,-5,1,6,-4,-2,6,1,-4,-6,-3,-5
-7,-5,1,6,-4,-2,6,1,-5,-6,-3,-5
-7,-5,1,6,-4,-2,6,1,-5,-6,-3,-5
-7,-5,1,6,-4,-2,6,1,-5,-6,-3,-5
-7,-5,1,6,-4,-2,6,1,-5,-6,-3,-5
-7,-5,1,6,-4,-2,6,1,-5,-6,-3,-5
-8,-6,1,6,-5,-1,6,1,-4,-6,-3,-5
-8,-6,2,6,-5,-1,6,1,-4,-6,-2,-5
-8,-6,2,6,-5,-1,6,1,-4,-6,-2,-5
-8,-6,2,6,-5,-2,6,1,-4,-6,-2,-5
-8,-6,2,6,-4,-2,6,1,-4,-6,-2,-5
-7,-6,2,6,-4,-2,6,1,-4,-6,-2,-5
-8,-6,2,6,-4,-2,6,1,-4,-6,-2,-5
-8,-6,1,6,-4,-2,6,1,-4,-6,-2,-5
-8,-6,1,6,-4,-2,6,1,-5,-6,-2,-5
-8,-6,1,7,-4,-2,6,1,-5,-6,-2,-5
-8,-6,1,7,-4,-2,6,1,-5,-6,-2,-5
-8,-6,1,7,-4,-2,6,1,-5,-6,-2,-5
-8,-6,1,7,-4,-2,6,1,-5,-6,-2,-5
-8,-6,1,7,-4,-2,6,1,-5,-6,-2,-5
-8,-6,1,7,-5,-2,7,1,-5,-5,-2,-5
-8,-6,1,7,-5,-2,7,1,-5,-5,-2,-5
-7,-6,0,7,-4,-2,7,1,-5,-5,-2,-5
-7,-6,0,7,-4,-2,7,1,-5,-5,-2,-5
-8,-6,1,7,-5,-2,7,1,-5,-5,-2,-5
-8,-6,1,7,-5,-2,6,1,-5,-5,-2,-6
-7,-6,0,6,-3,-3,6,1,-5,-5,-2,-6
-6,-6,0,6,-3,-3,6,0,-5,-5,-2,-7
-7,-7,0,6,-3,-3,7,0,-5,-5,-2,-7
-8,-7,1,7,-4,-2,7,1,-5,-5,-2,-7
-9,-7,1,7,-5,-2,7,1,-5,-5,-2,-7
-9,-7,1,8,-5,-2,7,1,-5,-5,-2,-7
-8,-7,0,8,-4,-2,7,1,-5,-5,-2,-7
-7,-6,0,7,-4,-2,7,1,-5,-5,-2,-6
-7,-6,0,7,-3,-2,7,1,-4,-4,-2,-6
-7,-5,1,6,-3,-2,7,1,-4,-4,-1,-6
-7,-5,1,6,-4,-1,7,1,-4,-4,-1,-5
-7,-4,2,5,-4,-1,7,1,-3,-3,-1,-5
-6,-2,2,4,-4,0,7,1,-3,-3,0,-4
-5,-1,3,3,-4,1,8,2,-2,-2,0,-4
-4,0,3,2,-4,1,8,2,-1,-2,0,-3
-4,0,3,2,-4,2,9,2,-1,-1,1,-3
-4,0,4,2,-4,2,9,3,-1,-1,1,-3
-4,0,3,2,-3,2,9,3,-1,-1,1,-3
-3,0,3,1,-2,2,8,2,-1,-1,1,-3
-3,0,3,2,-2,1,8,3,-1,-1,1,-3
-4,0,3,2,-3,1,8,3,-1,-1,1,-3
-4,0,3,2,-4,1,8,4,0,0,1,-3
-3,0,2,1,-3,1,8,4,0,0,1,-3
-1,1,2,0,-3,2,7,3,0,0,1,-3
-1,2,3,0,-2,3,7,3,1,0,2,-2
0,3,2,-1,-1,3,6,2,1,1,2,-2
0,3,2,-1,0,3,5,1,1,0,2,-2
0,4,2,-1,0,3,5,1,1,0,1,-2
0,4,2,-1,-1,3,4,1,2,1,1,-1
0,3,1,-1,-1,2,4,1,2,1,0,-2
1,2,0,-1,0,1,3,1,1,0,0,-2
2,1,-1,-1,1,0,3,1,0,0,-1,-3
2,0,-2,-1,1,0,3,1,0,0,-2,-4
1,0,-2,0,1,0,3,1,0,0,-2,-4
1,0,-1,0,1,0,3,1,0,0,-2,-4
1,0,-2,0,1,-1,3,1,0,0,-2,-4
1,0,-3,0,2,-1,3,1,0,0,-3,-4
2,-1,-4,0,2,-2,3,1,0,-1,-4,-5
2,-2,-5,0,3,-3,3,0,-1,-1,-4,-5
1,-2,-5,0,3,-4,3,0,-1,-2,-5,-5
0,-3,-4,1,2,-3,3,0,-1,-2,-5,-5
-1,-3,-3,2,0,-3,4,0,-1,-2,-5,-5
-3,-4,-2,3,0,-3,4,0,-1,-2,-5,-6
-4,-4,-1,4,-1,-3,4,0,-2,-3,-6,-6
-5,-5,-1,5,-2,-3,4,0,-2,-3,-6,-6
-6,-5,-1,5,-3,-3,5,0,-3,-4,-6,-6
-6,-6,0,6,-3,-3,5,0,-3,-4,-7,-6
-6,-6,-1,6,-3,-3,5,-1,-4,-4,-7,-6
-6,-7,-1,6,-2,-3,5,-1,-4,-5,-8,-7
-7,-7,-1,7,-2,-4,5,-2,-4,-5,-8,-8
-7,-8,-1,7,-3,-4,5,-2,-4,-5,-8,-8
-8,-8,-1,8,-3,-4,5,-2,-4,-5,-8,-8
-8,-8,-1,8,-4,-4,5,-2,-5,-6,-9,-8
-9,-9,-1,8,-4,-4,5,-2,-5,-6,-9,-8
-8,-9,-1,8,-3,-5,5,-2,-6,-6,-9,-9
-7,-10,-3,8,-2,-6,5,-2,-7,-7,-9,-9
-7,-10,-3,8,-2,-6,5,-3,-7,-7,-10,-10
-9,-10,-2,9,-4,-6,6,-2,-7,-7,-10,-10
-10,-10,-1,10,-4,-6,6,-3,-7,-8,-10,-10
-10,-10,-2,10,-4,-6,5,-3,-8,-8,-10,-10
-10,-10,-1,10,-4,-6,5,-3,-8,-8,-10,-10
-11,-10,-1,10,-5,-6,5,-2,-8,-8,-10,-10
-11,-10,0,10,-5,-5,5,-2,-8,-8,-10,-9
-11,-10,0,10,-5,-5,5,-2,-8,-8,-10,-9
-11,-10,0,10,-5,-5,6,-2,-8,-8,-9,-10
-12,-10,0,11,-6,-5,6,-2,-8,-8,-9,-10
-12,-10,0,11,-6,-5,6,-2,-8,-8,-9,-11
-12,-11,0,11,-6,-5,6,-2,-8,-8,-10,-11
-12,-11,0,11,-6,-5,6,-2,-8,-8,-10,-11
-12,-11,0,11,-6,-5,6,-2,-8,-8,-10,-11
-12,-11,0,11,-6,-5,6,-2,-8,-7,-10,-11
-12,-11,0,11,-6,-5,6,-2,-8,-7,-10,-11
-12,-11,0,11,-6,-6,6,-2,-8,-7,-10,-11
-12,-11,0,11,-6,-6,6,-2,-8,-7,-10,-11
-12,-12,0,11,-6,-6,6,-2,-8,-7,-10,-11
-13,-12,0,12,-6,-6,6,-2,-8,-7,-10,-11
-13,-12,0,12,-6,-6,6,-2,-8,-7,-10,-11
-12,-12,0,11,-5,-6,6,-3,-8,-8,-10,-11
-11,-12,-1,11,-4,-7,6,-3,-9,-8,-11,-12
-10,-12,-2,11,-4,-7,6,-3,-9,-8,-11,-12
-11,-12,-1,11,-4,-7,6,-3,-9,-8,-11,-12
-11,-12,-1,11,-4,-7,6,-3,-9,-8,-11,-12
-11,-12,-1,11,-4,-7,6,-3,-9,-8,-11,-12
-12,-12,-1,11,-5,-6,6,-3,-9,-8,-10,-12
-12,-12,0,11,-6,-6,6,-2,-8,-8,-10,-12
-12,-12,0,11,-6,-6,6,-2,-8,-7,-9,-12
-12,-12,0,11,-6,-6,6,-2,-8,-7,-9,-12
-11,-12,-1,11,-5,-6,6,-2,-8,-7,-10,-13
-12,-12,0,11,-5,-6,6,-2,-8,-7,-10,-13
-12,-12,0,12,-6,-6,7,-2,-8,-7,-10,-12
-13,-12,0,12,-7,-6,7,-1,-8,-8,-10,-12
-12,-12,0,12,-6,-6,7,-1,-8,-8,-11,-13
-12,-12,-1,11,-5,-7,7,0,-8,-9,-11,-13
-11,-12,-1,11,-5,-7,8,2,-7,-8,-11,-13
-12,-12,-1,12,-6,-6,9,6,-5,-8,-10,-13
-13,-11,0,12,-7,-5,11,10,-2,-6,-9,-13
-14,-10,3,11,-9,-3,13,13,1,-4,-8,-12
-14,-7,7,10,-10,0,15,14,6,0,-5,-10
-14,-3,9,8,-11,3,16,16,11,5,-1,-7
-11,0,10,5,-10,5,17,19,18,11,3,-4
-6,3,9,1,-8,6,18,24,26,18,7,-1
0,7,7,-4,-4,7,19,29,38,26,13,2
7,12,4,-11,1,8,17,31,51,36,19,6
16,19,2,-18,7,10,11,24,64,47,26,11
26,27,0,-27,13,13,0,8,76,58,34,17
35,35,0,-36,18,17,-14,-12,85,69,43,24
44,45,0,-45,22,22,-28,-33,94,80,52,31
53,56,2,-55,26,28,-42,-55,100,92,62,39
61,67,4,-64,28,35,-57,-80,101,102,71,47
68,77,6,-73,31,41,-73,-107,95,109,79,55
77,85,6,-81,35,46,-89,-134,85,112,85,61
85,91,5,-88,40,48,-105,-158,70,111,86,66
91,93,1,-92,45,47,-121,-178,53,104,83,66
93,86,-7,-89,50,39,-131,-186,34,86,70,60
90,69,-21,-80,56,24,-132,-182,13,59,49,45
84,51,-34,-68,59,8,-130,-174,-7,31,27,30
77,35,-43,-56,60,-4,-129,-169,-26,9,9,17
67,21,-47,-45,57,-12,-127,-166,-45,-8,-4,6
54,10,-46,-33,50,-17,-122,-162,-65,-23,-15,-1
39,0,-40,-20,40,-19,-113,-154,-80,-34,-22,-8
23,-8,-32,-8,28,-19,-99,-139,-89,-41,-28,-13
10,-16,-26,3,18,-21,-83,-121,-92,-46,-32,-17
0,-22,-22,11,11,-22,-68,-102,-90,-48,-35,-21
-8,-26,-19,16,5,-22,-54,-84,-83,-48,-36,-24
-12,-27,-16,19,1,-21,-42,-69,-75,-45,-36,-24
-12,-26,-15,19,0,-20,-33,-55,-65,-42,-34,-24
-12,-24,-14,18,0,-19,-25,-42,-56,-37,-31,-23
-12,-22,-12,17,0,-17,-18,-31,-47,-32,-28,-22
-12,-21,-10,16,-1,-15,-12,-22,-38,-27,-25,-20
-11,-19,-8,15,-1,-14,-8,-15,-32,-23,-22,-19
-11,-18,-7,14,-2,-13,-4,-10,-27,-19,-20,-17
-11,-16,-5,13,-2,-11,-1,-7,-23,-17,-18,-16
-11,-15,-4,12,-3,-10,0,-4,-20,-15,-16,-15
-11,-14,-3,12,-4,-8,2,-2,-17,-13,-15,-15
-12,-13,-2,12,-5,-7,4,0,-14,-12,-13,-14
-12,-12,-1,12,-6,-6,6,2,-11,-11,-12,-14
-12,-12,-1,12,-6,-6,7,5,-9,-10,-11,-13
-12,-12,0,12,-6,-6,9,7,-8,-9,-11,-13
-12,-11,0,12,-6,-6,10,8,-7,-8,-10,-12
-12,-11,0,12,-6,-5,11,9,-6,-7,-10,-12
-12,-11,0,11,-6,-5,12,10,-5,-6,-9,-12
-11,-10,0,11,-5,-5,12,10,-5,-6,-9,-12
-11,-10,0,10,-5,-5,12,10,-4,-6,-9,-12
-11,-10,0,10,-5,-5,12,10,-4,-6,-9,-12
-10,-10,0,10,-5,-5,12,10,-3,-5,-9,-12
-10,-10,0,10,-5,-5,13,11,-2,-5,-9,-12
-10,-10,0,10,-5,-5,13,12,-1,-4,-8,-11
-10,-10,-1,9,-4,-5,13,13,-1,-4,-8,-11
-9,-10,-1,9,-4,-5,13,13,-1,-4,-8,-11
-10,-9,0,9,-5,-5,14,14,-1,-4,-8,-11
-10,-9,0,9,-5,-4,14,14,0,-3,-7,-11
-10,-8,0,9,-5,-4,14,14,0,-3,-7,-11
-9,-8,-1,8,-5,-4,14,14,0,-3,-7,-11
-9,-8,-1,8,-4,-4,14,15,0,-3,-7,-11
-9,-8,0,8,-4,-4,14,15,1,-3,-7,-11
-8,-8,0,8,-4,-4,14,16,1,-3,-7,-11
-8,-8,-1,7,-4,-4,14,16,1,-3,-7,-11
-7,-8,-1,7,-3,-5,14,17,1,-3,-7,-11
-7,-8,-2,7,-3,-5,14,17,1,-3,-7,-11
-7,-7,-2,7,-3,-5,14,17,2,-2,-7,-11
-8,-7,-1,7,-4,-4,14,17,3,-2,-6,-10
-8,-7,0,7,-4,-4,14,18,3,-1,-6,-10
-8,-7,0,7,-4,-4,14,18,4,-1,-6,-10
-7,-7,0,7,-3,-4,14,18,4,-1,-6,-10
