leadI,leadII,leadIII,leadaVR,leadaVL,leadaVF,leadV1,leadV2,leadV3,leadV4,leadV5,leadV6
-2,-1,0,2,-1,0,0,-1,0,0,-8,-112
-5,-4,2,5,-3,-1,2,-3,0,0,-19,-291
-8,-5,3,7,-5,-1,4,-3,2,0,-26,-395
-10,-6,4,8,-6,-1,7,-2,5,2,-21,-456
-12,-7,5,9,-8,-1,11,0,7,3,3,-490
-13,-8,5,10,-9,-1,15,2,10,4,15,-510
-14,-9,5,11,-9,-1,20,5,12,5,16,-522
-15,-11,4,13,-9,-3,25,8,14,6,41,-528
-16,-14,2,14,-8,-5,30,12,16,6,75,-532
-14,-15,0,14,-6,-7,35,15,16,6,81,-534
-12,-15,-2,13,-4,-8,37,18,16,5,49,-535
-9,-14,-4,11,-2,-8,36,22,14,2,5,-537
-5,-9,-4,7,0,-6,32,28,11,-1,-21,-537
1,-1,-2,0,2,-1,27,36,8,-4,-35,-617
8,10,2,-9,3,6,20,43,5,-6,-44,-814
14,23,8,-19,3,16,12,48,3,-7,-45,-1061
20,38,17,-29,1,28,3,49,1,-6,-42,-485
26,52,27,-39,0,40,-7,48,-1,-6,-46,592
30,64,35,-47,-2,50,-17,43,-3,-5,-51,1144
32,72,41,-52,-3,57,-28,36,-4,-4,-49,1394
34,76,43,-55,-3,61,-38,26,-6,-4,-47,1475
33,77,44,-55,-4,61,-47,16,-10,-5,-50,1462
31,73,43,-52,-5,58,-52,10,-14,-7,-56,1402
28,67,40,-47,-5,53,-53,7,-18,-9,-61,1320
25,59,35,-41,-4,47,-54,5,-22,-11,-64,1230
21,48,28,-34,-2,38,-54,1,-25,-14,-67,1141
18,37,20,-27,0,29,-53,-3,-29,-16,-69,1056
14,28,14,-21,0,22,-50,-6,-30,-18,-70,978
11,22,12,-17,0,17,-45,-6,-29,-17,-70,909
9,18,10,-13,0,14,-38,-4,-26,-16,-69,848
5,14,9,-10,-1,11,-31,-2,-23,-14,-67,793
2,9,8,-6,-2,8,-24,0,-20,-13,-64,743
0,6,6,-3,-2,6,-19,1,-17,-12,-63,699
0,5,6,-2,-2,5,-14,4,-14,-10,-62,660
0,5,6,-2,-3,5,-10,7,-10,-8,-60,626
-1,4,5,-2,-3,5,-7,10,-7,-6,-57,595
-2,2,4,0,-3,4,-5,11,-6,-6,-57,567
-4,1,4,1,-3,3,-3,11,-5,-5,-58,542
-5,0,5,2,-4,3,-2,10,-4,-5,-60,521
-4,1,5,1,-4,3,-1,9,-3,-4,-61,503
-3,2,6,0,-3,4,0,8,-1,-3,-62,488
-3,3,6,0,-3,4,0,8,-1,-3,-63,475
-4,0,6,1,-4,3,0,6,-1,-3,-63,463
-7,-3,5,4,-5,1,0,5,-1,-3,-62,453
-8,-4,4,6,-5,0,0,5,-1,-3,-62,444
-7,-5,3,6,-4,0,1,4,-1,-3,-62,435
-7,-5,2,6,-3,0,2,4,-1,-3,-64,427
-8,-5,3,7,-4,0,2,3,-1,-4,-65,420
-7,-4,3,6,-4,0,3,3,0,-3,-65,414
-6,-2,3,4,-4,0,4,3,0,-3,-65,409
-5,-2,3,4,-4,0,5,3,0,-2,-66,403
-6,-4,2,6,-4,-1,4,2,0,-3,-67,397
-7,-6,2,7,-4,-1,4,2,0,-3,-68,392
-7,-6,2,7,-4,-1,5,2,0,-2,-68,387
-6,-5,2,6,-3,-1,6,2,0,-2,-68,383
-7,-6,1,7,-3,-2,5,2,0,-3,-69,379
-9,-7,1,8,-4,-2,5,1,0,-3,-69,376
-10,-8,1,9,-5,-3,5,1,0,-3,-70,372
-10,-8,1,9,-5,-3,5,1,0,-3,-70,369
-9,-8,1,8,-5,-3,5,1,0,-3,-70,366
-8,-7,1,8,-4,-2,5,2,0,-2,-70,363
-8,-7,1,8,-4,-2,5,2,0,-2,-70,360
-8,-8,1,8,-4,-3,5,2,0,-2,-69,358
-8,-8,1,8,-4,-3,5,2,0,-3,-67,355
-8,-8,1,8,-4,-3,5,2,0,-3,-66,352
-9,-8,1,9,-4,-3,5,2,0,-3,-67,349
-9,-9,0,9,-4,-4,5,2,0,-4,-68,347
-9,-9,0,9,-4,-4,5,2,0,-4,-69,344
-9,-9,0,9,-4,-4,5,2,0,-4,-70,342
-8,-8,0,8,-3,-3,5,2,0,-4,-71,340
-6,-8,0,7,-2,-3,5,2,0,-4,-71,338
-6,-7,0,6,-2,-3,6,2,0,-4,-72,335
-6,-7,0,6,-2,-3,6,2,0,-4,-72,333
-6,-7,0,6,-2,-2,7,3,1,-3,-72,332
-6,-6,1,6,-3,-2,7,4,1,-3,-72,331
-6,-6,1,6,-3,-1,7,4,1,-3,-70,331
-7,-7,1,7,-4,-2,7,4,1,-3,-69,331
-8,-8,1,8,-4,-3,7,4,0,-3,-70,331
-8,-9,0,9,-4,-4,6,3,0,-4,-72,331
-9,-9,0,9,-4,-4,6,3,0,-4,-73,331
-9,-9,1,9,-4,-3,6,4,0,-3,-72,331
-9,-8,1,8,-4,-3,6,4,0,-3,-70,331
-8,-7,0,7,-3,-3,6,5,0,-3,-70,330
-8,-6,0,7,-3,-3,7,5,0,-3,-71,329
-8,-6,1,8,-4,-3,7,5,1,-3,-71,327
-9,-7,1,8,-4,-3,6,5,1,-3,-71,324
-9,-7,1,8,-4,-3,6,5,1,-3,-71,321
-8,-6,2,7,-4,-2,7,5,1,-3,-69,318
-7,-5,2,6,-4,-1,7,6,2,-2,-61,316
-7,-4,2,5,-4,0,7,6,2,-2,-56,313
-7,-4,3,5,-4,0,7,6,2,-2,-55,310
-7,-4,3,5,-4,0,7,7,2,-2,-54,308
-7,-4,3,5,-4,0,7,7,2,-2,-42,306
-6,-3,3,4,-4,0,8,8,3,-1,-23,303
-5,-2,3,4,-3,1,9,8,3,-1,-24,301
-5,-3,3,4,-3,0,9,9,3,-1,-27,299
-6,-4,2,5,-3,0,8,9,3,-1,-18,299
-6,-4,2,5,-3,0,8,9,3,-1,-21,299
-6,-4,2,5,-4,0,9,9,3,-1,-29,299
-6,-4,2,5,-4,0,9,9,3,-1,-28,299
-5,-3,2,4,-3,0,9,10,4,-1,-22,299
-5,-2,2,4,-3,1,9,10,4,0,-18,298
-6,-3,3,4,-4,1,9,11,5,0,-16,297
-6,-3,3,5,-4,1,10,11,5,0,-12,296
-5,-3,2,4,-4,1,10,12,5,0,-13,294
-5,-3,2,4,-4,1,10,12,5,0,-21,292
-5,-2,2,4,-3,1,10,12,5,0,-14,290
-4,-2,2,3,-3,1,10,13,5,0,16,288
-3,-1,2,1,-2,1,10,14,5,0,56,286
-2,0,2,1,-1,1,11,14,5,0,87,285
-3,-1,2,2,-2,1,11,15,5,0,83,283
-5,-2,2,3,-3,1,11,15,5,0,77,282
-5,-2,2,4,-3,1,11,16,5,0,103,282
-5,-2,2,4,-4,1,11,17,6,0,139,282
-6,-2,3,4,-4,1,12,17,6,0,186,282
-5,-2,3,4,-4,2,12,18,7,0,254,281
-4,-1,4,3,-4,2,13,19,7,1,316,281
-4,0,4,2,-4,3,13,20,7,1,355,280
-4,0,5,2,-4,3,13,20,7,1,384,279
-3,0,4,2,-3,3,13,21,7,1,425,278
-3,1,4,1,-3,4,13,22,8,2,476,277
-2,2,4,0,-3,4,14,23,9,2,537,277
-2,2,4,0,-3,4,14,24,9,2,594,275
-1,2,3,0,-2,4,14,25,9,2,618,273
-1,2,4,0,-3,4,14,25,9,1,605,271
-3,2,5,1,-4,4,14,25,9,1,570,268
-3,3,6,0,-4,5,15,27,9,2,520,266
-1,5,6,-1,-4,6,16,29,10,3,443,265
0,6,7,-3,-4,7,17,31,11,4,330,264
0,7,8,-3,-4,8,17,32,12,4,220,262
0,7,7,-3,-3,7,17,33,12,4,158,260
1,7,6,-3,-2,7,17,34,12,4,151,257
0,6,7,-2,-3,7,17,34,13,4,171,254
-1,6,8,-1,-4,7,17,35,13,4,188,251
-2,6,8,-1,-4,8,17,36,13,4,211,248
-2,6,8,-1,-5,8,17,36,13,4,239,245
-3,6,9,-1,-5,8,17,37,13,4,238,242
-3,7,10,-3,-6,9,18,39,14,4,200,240
0,11,10,-6,-5,12,19,42,15,6,151,238
2,13,11,-8,-4,13,20,43,16,6,114,235
2,14,11,-8,-4,13,20,44,17,7,114,233
3,15,12,-9,-4,14,20,45,17,7,162,230
5,17,12,-11,-3,15,21,46,18,8,229,228
6,18,12,-12,-3,15,21,47,18,7,291,226
5,18,13,-12,-3,16,20,48,18,7,336,223
5,18,14,-11,-4,16,20,49,18,7,337,221
5,19,14,-11,-4,17,20,50,18,7,303,218
5,19,15,-12,-4,17,20,52,18,8,289,215
5,20,16,-12,-5,18,20,53,19,9,309,214
4,20,17,-12,-5,19,21,54,20,9,325,212
4,21,17,-12,-5,19,21,54,20,9,316,211
4,21,18,-13,-5,20,21,55,20,9,313,210
4,22,18,-13,-6,21,21,56,20,9,351,209
4,23,18,-14,-6,21,20,56,20,9,408,208
5,24,19,-15,-6,22,20,57,21,10,444,207
6,26,19,-16,-5,23,20,58,21,10,450,206
7,28,20,-17,-5,25,20,59,22,11,439,204
7,29,21,-17,-6,26,19,60,22,11,442,202
6,29,22,-17,-7,26,19,60,22,11,434,200
7,30,23,-18,-7,27,18,60,22,11,370,198
8,31,23,-19,-7,28,18,61,23,11,316,196
8,32,24,-20,-7,29,18,61,23,11,283,194
8,33,25,-20,-8,30,18,61,23,12,198,192
9,34,26,-21,-8,31,18,61,23,12,90,190
9,35,26,-22,-8,32,17,60,23,12,21,188
10,36,27,-23,-8,32,16,59,23,12,-14,185
10,37,27,-23,-8,33,15,58,23,12,-36,183
9,36,28,-23,-9,33,14,57,23,12,-52,180
8,36,29,-22,-10,33,13,55,22,12,-64,179
6,36,30,-20,-11,33,12,53,22,12,-71,177
5,35,30,-19,-12,33,11,51,21,12,-78,175
6,36,30,-20,-12,34,10,50,21,12,-84,174
7,37,30,-22,-11,34,10,48,21,12,-49,172
7,37,31,-22,-11,35,9,47,21,12,62,171
6,37,32,-21,-12,35,9,45,21,12,202,169
5,37,32,-21,-12,35,8,43,21,12,302,167
5,36,31,-21,-12,34,7,40,20,12,348,164
4,35,30,-20,-11,32,6,37,19,11,367,161
4,34,29,-19,-11,32,5,35,18,11,356,159
3,33,28,-18,-11,31,5,33,18,11,283,157
2,31,28,-17,-11,30,4,31,17,10,177,154
2,29,27,-15,-11,29,3,28,16,9,114,152
2,28,27,-15,-11,28,3,27,15,9,127,151
1,27,27,-14,-11,28,3,25,15,9,175,149
1,26,26,-14,-11,27,3,23,14,9,210,147
0,25,24,-13,-10,26,3,21,14,9,223,145
0,24,23,-12,-10,25,3,19,13,8,221,143
0,23,21,-12,-9,23,3,17,12,8,208,141
1,21,19,-11,-8,21,2,16,11,7,187,139
1,20,18,-10,-7,20,2,14,11,6,166,138
0,17,18,-8,-8,18,2,12,10,5,167,137
-3,13,17,-4,-9,16,1,10,8,4,184,134
-5,10,16,-2,-9,14,0,8,6,3,163,132
-6,8,15,-1,-9,13,0,7,6,2,93,131
-5,9,14,-1,-8,12,0,6,6,2,30,130
-3,10,13,-3,-7,12,1,5,6,3,18,130
-2,10,12,-4,-6,12,2,5,6,3,55,129
-2,10,12,-3,-6,11,2,4,5,2,104,128
-2,8,10,-2,-5,10,1,3,4,1,133,126
-2,6,9,-1,-5,8,1,2,3,1,137,125
-2,5,8,-1,-4,7,1,1,3,0,129,124
-2,4,7,0,-4,6,1,0,2,0,123,123
-4,2,6,1,-4,5,0,-1,2,0,116,122
-5,1,6,2,-4,4,0,-2,1,-1,101,121
-5,0,5,3,-4,3,0,-2,1,-1,69,120
-6,-1,4,4,-4,2,0,-3,0,-2,20,122
-6,-3,3,5,-4,1,0,-3,0,-2,-25,125
-7,-4,2,5,-4,0,0,-4,0,-2,-56,128
-5,-3,2,4,-3,0,0,-4,0,-2,-74,130
-3,-1,2,2,-2,0,0,-4,0,-2,-85,133
-1,0,2,1,-1,1,0,-4,0,-2,-91,134
-1,-1,1,1,0,0,0,-4,0,-2,-94,134
-2,-2,1,2,-1,0,0,-5,-1,-3,-95,134
-4,-4,0,4,-1,-1,0,-5,-1,-3,-93,133
-4,-4,0,4,-2,-1,0,-5,-1,-3,-88,132
-4,-4,0,4,-2,0,0,-5,-1,-3,-85,132
-5,-4,0,4,-2,-1,0,-5,-1,-3,-84,132
-4,-5,0,4,-2,-2,0,-5,-1,-3,-84,133
-4,-5,-1,5,-1,-3,-1,-6,-2,-4,-84,133
-5,-6,-1,6,-1,-4,-1,-7,-2,-4,-84,132
-5,-7,-1,6,-1,-4,-1,-7,-3,-4,-84,131
-4,-6,-1,5,0,-3,-1,-6,-2,-4,-83,130
-4,-5,-1,4,0,-3,-1,-6,-2,-4,-83,129
-3,-6,-2,4,0,-3,-1,-7,-2,-4,-83,128
-3,-5,-2,4,0,-3,-1,-7,-2,-4,-85,127
-3,-4,-1,4,0,-2,0,-6,-1,-4,-87,126
-3,-4,0,3,-1,-1,0,-6,-1,-3,-91,124
-3,-3,0,3,-1,-1,0,-5,0,-3,-94,122
-3,-3,0,2,0,-1,0,-5,0,-2,-94,120
-2,-4,-1,2,0,-2,0,-6,-1,-3,-95,118
-3,-5,-2,3,1,-3,0,-6,-2,-4,-95,115
-4,-7,-2,5,0,-4,-1,-6,-2,-4,-92,113
-5,-8,-3,6,0,-5,-1,-6,-2,-5,-88,111
-5,-7,-2,6,0,-4,-1,-6,-2,-5,-86,109
-4,-7,-2,6,0,-4,-1,-6,-2,-5,-86,109
-5,-7,-2,7,0,-4,-1,-7,-3,-5,-87,108
-6,-8,-2,8,-1,-5,-2,-7,-3,-5,-87,107
-6,-8,-1,7,-1,-4,-1,-7,-2,-4,-86,107
-5,-6,-1,5,0,-3,0,-6,-1,-4,-85,106
-3,-5,-1,4,0,-2,0,-5,-1,-3,-86,106
-3,-5,-1,3,0,-2,0,-5,-1,-3,-89,104
-2,-5,-2,3,1,-3,0,-6,-1,-3,-93,102
-1,-5,-3,2,1,-3,0,-6,-1,-3,-95,100
0,-4,-3,2,2,-3,0,-5,-1,-3,-96,98
-1,-5,-3,3,1,-3,0,-5,-1,-3,-96,96
-2,-6,-3,4,0,-3,0,-5,-1,-3,-95,95
-3,-6,-3,5,0,-3,0,-5,-1,-4,-95,97
-3,-7,-3,5,1,-4,0,-5,-1,-4,-95,100
-3,-7,-4,5,1,-4,0,-5,-1,-4,-96,104
-2,-6,-4,4,1,-4,0,-5,-1,-4,-96,108
-1,-6,-4,4,1,-4,0,-5,-1,-4,-97,112
-1,-6,-4,4,1,-5,0,-5,-1,-4,-97,115
-1,-5,-4,4,1,-4,0,-5,-1,-4,-97,117
-1,-5,-3,4,1,-4,0,-4,-1,-4,-96,121
-2,-6,-2,4,1,-4,0,-4,-1,-4,-87,128
-4,-7,-2,6,0,-4,0,-4,-1,-4,-60,137
-4,-8,-3,6,0,-5,0,-5,-1,-4,-21,147
-3,-7,-3,5,1,-5,0,-5,-1,-4,12,160
-2,-6,-4,4,1,-5,0,-4,-1,-4,16,173
-2,-6,-4,4,1,-5,0,-4,-1,-4,-13,188
-1,-5,-4,4,2,-5,0,-4,-1,-4,-46,202
0,-5,-3,3,2,-4,0,-4,0,-4,-66,217
-1,-5,-2,3,2,-3,1,-3,0,-4,-77,233
-1,-5,-2,3,1,-3,1,-3,0,-3,-84,251
-1,-5,-2,3,2,-3,1,-3,0,-3,-88,270
-1,-5,-3,3,2,-4,1,-3,0,-4,-92,290
-2,-5,-3,4,1,-4,1,-3,0,-4,-94,309
-2,-6,-3,4,1,-4,1,-4,0,-4,-95,327
-2,-6,-3,5,1,-5,1,-4,0,-4,-95,344
-2,-6,-4,5,1,-5,0,-4,0,-4,-95,361
-2,-6,-3,4,1,-4,0,-4,0,-4,-95,378
-3,-7,-3,5,1,-4,0,-4,0,-4,-95,395
-3,-8,-3,5,1,-5,0,-4,0,-4,-96,411
-2,-7,-4,5,2,-5,0,-5,-1,-4,-96,428
-1,-6,-3,4,2,-5,0,-4,0,-4,-96,444
-1,-5,-3,3,2,-4,0,-4,0,-3,-95,461
-1,-5,-4,4,1,-5,0,-4,0,-4,-96,476
-2,-6,-4,4,1,-5,0,-5,-1,-4,-96,491
-2,-7,-4,5,1,-5,0,-5,-1,-4,-96,506
-2,-7,-4,4,1,-5,0,-5,-1,-4,-96,521
-2,-7,-4,4,1,-5,0,-5,0,-4,-96,537
-3,-8,-4,5,1,-5,0,-5,0,-4,-96,554
-4,-8,-3,5,0,-5,0,-5,0,-4,-96,576
-4,-8,-3,6,0,-5,0,-5,0,-5,-96,607
-4,-7,-3,6,0,-5,0,-5,0,-5,-96,645
-2,-6,-4,4,1,-5,0,-4,0,-4,-96,686
0,-6,-4,4,2,-5,0,-4,0,-4,-95,726
0,-6,-4,4,2,-5,0,-5,-1,-5,-96,765
-1,-7,-5,4,2,-6,-1,-5,-1,-5,-96,801
-2,-7,-5,5,1,-6,-1,-5,-1,-5,-96,838
-2,-7,-4,5,1,-6,-1,-5,-1,-5,-96,874
-3,-7,-4,5,0,-6,0,-5,-1,-5,-96,909
-4,-8,-3,6,0,-6,0,-5,-1,-5,-96,944
-4,-8,-3,6,0,-6,0,-6,-1,-5,-96,978
-2,-7,-3,5,1,-5,0,-6,-1,-5,-95,1011
-1,-6,-3,4,1,-5,0,-5,0,-5,-94,1044
-1,-6,-3,4,1,-5,0,-5,0,-5,-94,1075
-2,-6,-3,4,1,-5,0,-5,0,-5,-94,1106
-1,-6,-4,4,1,-5,0,-5,0,-5,-95,1136
-1,-7,-5,4,2,-6,0,-6,-1,-5,-95,1167
-2,-8,-5,6,2,-7,-1,-6,-1,-5,-96,1196
-3,-9,-5,6,2,-7,-1,-7,-2,-5,-97,1225
-2,-8,-5,5,2,-7,-1,-7,-2,-5,-97,1256
-1,-7,-5,4,2,-6,-1,-6,-2,-5,-96,1291
0,-5,-4,2,2,-4,-1,-6,-1,-5,-96,1331
2,-3,-4,0,3,-3,0,-6,-1,-4,-95,1371
2,-3,-4,0,3,-3,0,-6,-1,-4,-95,1410
1,-3,-4,1,3,-4,0,-6,-1,-4,-95,1448
1,-3,-4,1,3,-4,0,-5,-1,-4,-95,1486
2,-3,-5,0,4,-4,0,-5,0,-4,-95,1523
2,-4,-6,1,4,-5,0,-6,-1,-4,-95,1559
2,-5,-6,2,4,-6,0,-6,-1,-5,-96,1593
1,-6,-6,2,4,-6,0,-7,-2,-6,-96,1626
0,-7,-6,3,3,-7,-1,-7,-2,-6,-97,1614
-1,-8,-6,5,3,-7,-2,-8,-3,-7,-97,1535
-2,-9,-6,6,2,-8,-2,-8,-3,-7,-90,1426
-2,-8,-6,5,3,-7,-2,-8,-2,-6,-73,1308
-1,-7,-6,4,3,-7,-2,-8,-2,-6,-56,1191
0,-6,-6,4,3,-6,-2,-8,-2,-6,-52,1080
0,-7,-6,4,3,-7,-2,-8,-2,-6,-63,977
0,-7,-6,4,3,-7,-2,-8,-2,-6,-77,883
0,-7,-7,3,4,-6,-2,-8,-2,-6,-84,799
1,-6,-7,2,4,-6,-2,-7,-2,-6,-89,723
0,-7,-7,3,3,-6,-1,-7,-2,-6,-91,655
0,-7,-6,4,3,-6,-1,-7,-1,-6,-93,594
0,-6,-6,4,3,-6,-1,-7,-1,-6,-94,539
0,-7,-7,4,3,-6,-1,-8,-2,-6,-87,491
-1,-8,-7,5,3,-7,-2,-8,-2,-7,-74,447
-2,-10,-7,6,2,-8,-2,-9,-3,-7,-61,408
-3,-10,-7,7,2,-8,-2,-9,-3,-8,-51,375
-2,-9,-7,6,2,-8,-2,-9,-2,-7,-50,347
-1,-8,-7,4,3,-7,-2,-9,-2,-7,-46,324
0,-7,-7,4,3,-7,-2,-9,-2,-7,-31,304
-1,-8,-6,4,3,-7,-2,-9,-2,-7,-22,286
-1,-8,-6,5,3,-7,-2,-9,-2,-7,-25,272
-1,-8,-6,5,3,-7,-2,-9,-2,-7,-31,260
-1,-9,-7,5,3,-7,-2,-9,-3,-7,-40,249
-1,-9,-7,5,3,-8,-3,-9,-3,-7,-49,240
-1,-9,-7,5,3,-8,-3,-9,-3,-7,-57,231
-2,-9,-7,5,2,-8,-3,-9,-3,-7,-66,223
-2,-9,-7,6,2,-8,-3,-9,-3,-7,-76,219
-1,-8,-7,4,3,-7,-2,-9,-3,-7,-84,218
2,-6,-7,2,4,-7,-1,-8,-2,-6,-89,218
3,-5,-8,1,5,-7,-1,-8,-2,-6,-94,220
3,-5,-7,1,5,-6,-1,-8,-2,-6,-95,224
2,-6,-7,2,4,-6,-1,-8,-2,-6,-80,228
1,-7,-7,3,4,-7,-2,-8,-2,-7,-44,234
1,-8,-8,3,4,-8,-2,-9,-2,-7,13,240
0,-8,-8,4,4,-8,-2,-10,-2,-8,89,245
0,-8,-7,4,3,-8,-2,-10,-2,-8,162,249
0,-8,-7,4,3,-7,-2,-9,-2,-8,222,253
0,-7,-6,4,3,-6,-2,-9,-2,-7,265,255
1,-6,-6,3,3,-6,-2,-8,-2,-7,287,253
1,-6,-7,2,4,-6,-2,-8,-2,-7,313,256
1,-7,-7,3,4,-6,-2,-8,-3,-7,366,275
0,-7,-7,3,4,-7,-2,-8,-3,-7,430,304
1,-6,-7,3,4,-6,-2,-8,-3,-7,434,335
1,-6,-7,2,4,-6,-2,-8,-3,-7,328,366
1,-6,-8,3,5,-7,-3,-9,-3,-8,233,395
1,-7,-8,4,5,-7,-3,-9,-4,-8,255,421
0,-8,-8,4,4,-8,-3,-10,-4,-9,329,439
0,-8,-8,4,4,-8,-3,-10,-4,-9,382,452
1,-7,-8,3,4,-7,-2,-10,-3,-8,410,460
1,-7,-8,2,4,-7,-2,-9,-3,-8,411,466
1,-6,-7,3,4,-7,-2,-9,-3,-8,336,470
0,-6,-6,3,3,-7,-2,-9,-3,-8,195,473
1,-6,-7,3,4,-7,-2,-9,-3,-8,75,476
1,-6,-7,3,4,-7,-2,-9,-3,-8,3,476
1,-6,-7,3,4,-6,-2,-9,-3,-8,-39,473
1,-6,-7,3,4,-6,-2,-9,-3,-8,-65,468
0,-7,-7,3,3,-7,-2,-9,-3,-8,-81,462
0,-7,-7,3,3,-7,-3,-9,-3,-8,-90,456
0,-8,-8,3,4,-8,-3,-10,-3,-9,-96,450
0,-8,-8,3,4,-8,-3,-10,-3,-9,-98,450
0,-7,-7,3,4,-7,-3,-10,-3,-9,-92,429
0,-7,-7,3,4,-7,-3,-10,-3,-9,-89,370
0,-8,-7,4,3,-8,-3,-10,-4,-9,-94,-40
-3,-10,-7,7,1,-8,-4,-11,-4,-10,-99,-228
-4,-11,-6,8,0,-8,-4,-11,-4,-10,-102,-67
-3,-10,-6,6,1,-8,-4,-11,-4,-9,-103,-237
0,-7,-6,4,2,-7,-3,-10,-3,-8,-103,-543
1,-5,-6,2,4,-6,-2,-9,-3,-8,-103,-879
3,-4,-6,1,5,-6,-2,-9,-3,-8,-103,-1221
3,-4,-6,1,5,-5,-2,-9,-3,-8,-103,-713
1,-5,-6,2,4,-5,-2,-9,-3,-8,-104,315
0,-7,-6,3,3,-6,-3,-10,-3,-9,-104,830
0,-7,-7,4,3,-6,-3,-10,-4,-9,-105,1052
0,-7,-7,3,3,-6,-3,-10,-4,-9,-105,1112
0,-6,-7,3,3,-6,-3,-10,-4,-9,-104,1083
0,-6,-6,3,3,-6,-3,-11,-4,-9,-104,1010
0,-7,-6,3,3,-7,-3,-11,-4,-9,-104,918
0,-7,-6,3,3,-7,-3,-11,-4,-9,-104,820
1,-7,-6,3,4,-7,-3,-11,-4,-9,-104,725
2,-6,-6,2,4,-6,-3,-10,-3,-8,-104,636
3,-4,-6,1,5,-5,-2,-10,-3,-8,-103,554
4,-3,-7,0,5,-4,-2,-10,-3,-8,-103,481
3,-3,-7,0,5,-5,-2,-10,-3,-8,-104,416
2,-5,-6,1,4,-6,-3,-11,-3,-9,-104,358
0,-6,-6,2,3,-6,-3,-11,-4,-10,-105,307
0,-6,-6,3,3,-6,-3,-11,-4,-10,-105,262
0,-7,-5,4,3,-6,-4,-11,-4,-10,-105,222
-2,-8,-5,5,2,-6,-4,-11,-4,-10,-105,187
-3,-9,-5,6,1,-7,-4,-12,-5,-10,-106,156
-3,-10,-6,7,1,-7,-5,-12,-5,-10,-106,130
-3,-9,-6,6,1,-7,-5,-12,-5,-10,-104,107
-1,-7,-6,4,2,-6,-4,-11,-4,-10,-95,87
1,-4,-6,2,3,-5,-3,-11,-4,-9,-91,69
3,-3,-6,0,4,-5,-3,-10,-3,-9,-94,53
4,-2,-5,0,4,-4,-3,-10,-3,-9,-87,39
3,-2,-5,0,4,-4,-3,-10,-3,-9,-78,27
3,-2,-5,0,4,-4,-3,-10,-3,-9,-85,17
2,-2,-5,0,3,-3,-3,-10,-3,-9,-94,8
0,-3,-4,1,2,-3,-3,-10,-3,-9,-94,0
0,-4,-5,2,2,-4,-3,-11,-3,-9,-94,-7
1,-4,-5,1,2,-4,-4,-11,-4,-9,-88,-14
1,-4,-5,1,3,-5,-4,-11,-4,-9,-68,-3
1,-5,-6,2,3,-5,-4,-11,-4,-10,-65,60
1,-5,-6,2,4,-6,-5,-12,-5,-10,-73,217
1,-5,-7,2,4,-6,-5,-12,-5,-10,-44,481
0,-5,-6,2,3,-5,-4,-12,-5,-10,-10,837
-1,-6,-5,3,2,-5,-4,-12,-6,-9,-21,516
-2,-7,-6,4,1,-6,-5,-12,-6,-9,-46,-183
-1,-6,-6,4,2,-6,-5,-12,-6,-9,-58,-535
0,-5,-6,3,3,-6,-5,-12,-6,-9,-67,-895
1,-5,-6,3,3,-5,-5,-12,-6,-8,-66,-1259
1,-5,-6,3,3,-5,-5,-12,-6,-8,-58,-759
1,-4,-6,2,4,-5,-5,-12,-6,-8,-62,267
1,-4,-6,2,4,-5,-5,-12,-6,-8,-75,784
1,-4,-6,2,4,-5,-5,-12,-6,-8,-81,1010
2,-4,-6,1,4,-5,-5,-12,-5,-8,-72,1074
2,-3,-6,0,4,-5,-4,-12,-5,-8,-66,1051
2,-3,-5,1,4,-5,-4,-12,-5,-7,-76,982
1,-4,-4,2,3,-5,-4,-12,-5,-7,-88,895
0,-5,-4,3,2,-5,-5,-13,-6,-7,-95,665
0,-5,-5,3,3,-5,-5,-13,-6,-7,-100,373
2,-4,-6,1,4,-4,-4,-13,-6,-6,-97,199
4,-2,-6,0,5,-4,-4,-12,-6,-6,-81,96
5,-1,-6,-1,5,-4,-4,-12,-6,-6,-62,35
4,-2,-6,0,4,-4,-4,-13,-6,-6,-62,0
2,-3,-5,1,3,-4,-5,-13,-6,-6,-80,-21
0,-4,-5,2,2,-4,-5,-13,-6,-6,-93,-33
0,-4,-4,2,2,-4,-4,-13,-6,-6,-94,-40
0,-3,-4,2,2,-3,-4,-12,-5,-5,-75,-45
0,-3,-3,2,2,-3,-4,-12,-5,-5,-21,-47
0,-4,-3,2,1,-4,-4,-13,-6,-6,47,-49
0,-5,-3,3,1,-5,-5,-13,-7,-6,113,-50
0,-6,-4,3,1,-6,-5,-14,-7,-6,171,-50
0,-6,-5,3,3,-6,-6,-14,-8,-6,197,-50
1,-6,-6,2,3,-6,-6,-14,-8,-6,205,-50
2,-5,-6,1,4,-6,-6,-14,-7,-6,219,-50
2,-4,-6,1,4,-5,-6,-14,-7,-6,253,-50
3,-3,-6,0,4,-5,-6,-14,-7,-6,302,-50
3,-3,-6,0,4,-5,-6,-14,-7,-6,338,-50
3,-3,-5,0,4,-5,-6,-14,-7,-5,356,-49
3,-3,-5,0,4,-4,-5,-13,-7,-5,326,-49
4,-2,-5,0,4,-4,-5,-13,-7,-5,216,-49
4,-2,-6,0,5,-4,-5,-13,-7,-5,102,-49
3,-3,-6,0,5,-4,-5,-13,-7,-5,49,-49
2,-4,-6,1,4,-5,-5,-13,-7,-5,42,-48
2,-4,-6,1,4,-5,-5,-13,-7,-5,41,-48
3,-4,-6,1,4,-5,-5,-13,-7,-5,29,-48
3,-4,-6,1,4,-5,-6,-14,-7,-5,10,-48
3,-4,-6,1,4,-5,-6,-14,-7,-5,-4,-48
3,-3,-6,0,4,-5,-6,-14,-7,-5,22,-47
3,-3,-6,0,4,-4,-6,-14,-7,-5,98,-47
3,-2,-5,0,4,-4,-5,-14,-7,-4,185,-47
3,-2,-5,0,4,-4,-5,-14,-7,-4,223,-47
3,-2,-5,0,4,-3,-5,-13,-7,-4,199,-47
3,-1,-5,-1,4,-2,-5,-13,-6,-3,207,-46
3,0,-4,-1,4,-2,-5,-13,-6,-3,294,-46
3,0,-4,-1,4,-2,-5,-13,-6,-3,392,-46
3,-1,-4,-1,3,-2,-5,-13,-6,-3,448,-46
2,-1,-3,0,3,-2,-5,-13,-6,-3,494,-45
1,0,-2,0,2,-1,-5,-12,-5,-2,530,-45
2,0,-1,0,2,0,-5,-12,-5,-2,465,-45
3,0,-1,-1,2,0,-5,-12,-5,-1,343,-45
3,1,-1,-2,2,0,-5,-12,-5,-1,310,-45
3,2,0,-2,1,1,-4,-12,-4,-1,340,-45
2,2,0,-2,1,1,-4,-12,-4,-1,334,-45
1,2,0,-2,1,1,-5,-12,-4,-1,338,-44
1,1,0,-2,1,1,-5,-13,-4,-1,387,-44
1,1,0,-1,1,1,-6,-13,-4,-1,408,-44
1,1,0,-1,1,1,-6,-13,-4,-1,392,-44
1,1,0,-1,0,1,-6,-12,-4,-1,411,-44
2,3,1,-2,0,2,-6,-12,-3,0,477,-44
4,4,1,-3,1,2,-6,-12,-3,0,537,-43
5,5,1,-5,1,3,-6,-12,-3,0,567,-43
5,6,1,-6,1,4,-6,-12,-3,1,592,-43
5,7,2,-6,1,4,-6,-12,-2,1,632,-43
5,6,2,-6,1,4,-7,-12,-2,1,597,-43
5,6,2,-5,1,4,-8,-13,-3,0,450,-42
3,5,3,-4,0,4,-8,-14,-4,0,312,-42
3,6,4,-4,0,5,-9,-14,-4,0,248,-42
4,7,4,-6,0,6,-9,-14,-4,1,218,-42
5,7,3,-6,1,5,-9,-14,-4,0,217,-42
5,6,1,-6,2,4,-10,-15,-5,0,252,-42
6,6,0,-6,2,4,-10,-16,-6,-1,298,-41
5,6,0,-6,2,3,-10,-16,-6,-2,349,-41
5,5,0,-5,2,3,-10,-16,-6,-2,383,-41
5,5,1,-5,2,3,-10,-15,-6,-2,369,-41
6,6,1,-6,2,3,-9,-15,-6,-2,332,-41
6,5,0,-5,2,3,-9,-14,-6,-2,287,-41
4,3,0,-4,2,2,-10,-15,-7,-2,199,-40
3,2,0,-2,2,1,-10,-15,-8,-3,115,-40
2,1,0,-2,2,0,-9,-15,-8,-3,106,-40
2,1,-1,-1,2,0,-9,-14,-8,-3,135,-40
3,3,-1,-2,2,1,-8,-14,-8,-3,107,-40
6,4,-1,-4,3,1,-8,-14,-8,-3,27,-39
6,4,-2,-5,4,1,-8,-14,-9,-3,-24,-39
5,2,-2,-3,3,0,-9,-15,-9,-4,-3,-39
2,0,-2,0,1,-1,-9,-16,-9,-4,33,-39
1,-1,-2,0,1,-1,-9,-16,-9,-4,37,-39
3,0,-2,-1,2,-1,-8,-15,-8,-3,45,-39
3,1,-2,-1,3,0,-7,-15,-8,-3,42,-38
3,1,-2,-1,3,-1,-6,-14,-7,-3,17,-38
4,0,-4,-1,4,-2,-6,-14,-8,-3,-2,-38
5,-1,-6,-1,5,-3,-7,-15,-9,-4,-12,-38
4,-2,-6,0,5,-4,-7,-15,-9,-4,-19,-38
3,-4,-6,0,4,-5,-6,-15,-9,-4,-28,-38
3,-4,-7,0,4,-5,-6,-15,-9,-4,-13,-37
3,-4,-7,0,5,-5,-6,-15,-9,-4,16,-37
3,-5,-7,1,5,-5,-6,-15,-9,-4,7,-37
2,-5,-7,1,5,-5,-6,-15,-9,-4,-26,-37
1,-5,-6,2,4,-5,-6,-15,-9,-4,-52,-37
1,-5,-7,2,4,-6,-6,-15,-9,-4,-71,-37
1,-6,-7,3,4,-6,-6,-15,-9,-4,-81,-37
0,-7,-7,3,4,-7,-6,-15,-9,-4,-87,-36
0,-7,-7,3,4,-7,-6,-15,-9,-4,-92,-36
1,-7,-8,3,4,-7,-6,-15,-9,-4,-79,-36
1,-6,-7,3,4,-7,-6,-15,-9,-4,-39,-36
0,-7,-7,4,3,-7,-6,-16,-9,-4,0,-36
0,-7,-7,4,4,-7,-6,-16,-10,-4,9,-36
1,-7,-8,3,5,-8,-6,-16,-10,-4,30,-36
1,-7,-8,3,5,-8,-6,-16,-9,-4,87,-36
1,-8,-8,3,5,-8,-6,-16,-9,-4,105,-36
0,-8,-8,4,4,-8,-6,-16,-9,-4,55,-35
0,-9,-8,4,4,-8,-6,-16,-10,-4,0,-35
-1,-10,-8,5,4,-9,-6,-16,-10,-4,-30,-35
-2,-10,-8,6,3,-9,-6,-16,-10,-4,-54,-35
-2,-10,-8,6,3,-9,-6,-16,-10,-4,-78,-35
-1,-9,-8,5,3,-9,-6,-16,-10,-4,-90,-34
1,-7,-8,2,5,-8,-5,-15,-9,-3,-81,-34
5,-4,-9,0,7,-7,-4,-15,-8,-3,-70,-34
6,-3,-9,-1,7,-6,-4,-15,-8,-2,-71,-34
3,-4,-8,0,6,-6,-4,-15,-8,-2,-46,-34
2,-5,-7,1,5,-6,-4,-15,-8,-2,18,-34
1,-6,-7,2,5,-6,-4,-15,-8,-2,81,-34
0,-7,-7,3,5,-7,-5,-15,-8,-2,124,-33
-1,-7,-7,4,4,-7,-5,-15,-8,-2,156,-33
-2,-8,-6,5,2,-7,-5,-15,-8,-3,157,-33
-3,-9,-7,6,2,-8,-5,-15,-9,-4,96,-33
-2,-10,-8,6,2,-9,-6,-16,-10,-4,21,-33
-2,-10,-8,6,3,-9,-6,-16,-10,-4,2,-32
-1,-9,-8,5,3,-9,-6,-16,-10,-4,14,-32
-1,-9,-8,5,3,-8,-6,-16,-9,-3,7,-32
-2,-9,-6,5,3,-7,-4,-16,-7,-1,-10,-32
-2,-7,-4,5,2,-5,-2,-15,-5,1,-25,-32
-2,-5,-2,5,0,-4,0,-14,-2,3,-48,-32
-3,-5,-1,5,0,-3,4,-12,1,5,-68,-32
-4,-6,0,5,-1,-3,8,-10,4,7,-70,-32
-6,-7,0,7,-2,-3,12,-8,6,9,-54,-31
-8,-9,0,8,-3,-4,17,-5,9,10,-31,-31
-8,-10,-2,9,-2,-6,23,-2,11,11,-10,-31
-6,-11,-4,9,0,-7,28,1,13,11,12,-31
-4,-11,-6,8,1,-8,32,5,14,11,26,-31
-2,-11,-8,7,3,-9,33,8,14,10,34,-31
1,-9,-9,4,5,-9,32,13,12,7,50,-31
6,-4,-9,0,8,-7,27,19,8,3,78,-31
13,4,-8,-8,11,-2,20,26,4,0,120,-30
21,15,-6,-18,14,4,12,33,0,-2,167,-30
28,29,0,-29,14,15,3,39,-3,-3,212,-30
34,44,9,-39,13,27,-5,42,-5,-3,254,-30
38,57,18,-47,11,38,-16,40,-7,-3,291,-30
41,68,27,-54,8,48,-28,34,-9,-3,303,-30
43,75,32,-58,6,54,-39,25,-10,-2,255,-30
43,77,34,-59,5,56,-50,15,-14,-3,165,-30
42,74,34,-57,5,54,-58,7,-20,-7,100,-29
39,69,31,-53,5,50,-63,2,-26,-10,56,-29
35,61,26,-48,5,44,-65,-1,-31,-13,3,-29
32,52,20,-42,6,37,-65,-3,-34,-15,-45,-29
31,45,13,-37,8,30,-63,-5,-36,-16,-76,-29
30,38,8,-33,11,23,-59,-7,-36,-17,-92,-29
28,32,3,-29,13,18,-54,-8,-35,-17,-100,-29
25,25,1,-24,12,13,-48,-8,-33,-16,-104,-29
21,19,0,-19,11,10,-41,-7,-29,-14,-105,-28
17,14,-1,-15,9,7,-33,-6,-25,-12,-106,-28
13,10,-2,-12,8,5,-26,-4,-22,-9,-107,-28
10,7,-2,-8,6,3,-20,-2,-19,-7,-109,-28
7,5,-3,-6,5,2,-15,0,-15,-6,-110,-28
6,4,-2,-5,5,2,-12,2,-12,-4,-109,-28
5,3,-1,-3,4,1,-9,4,-10,-3,-109,-28
4,3,0,-3,3,2,-7,5,-8,-2,-100,-28
5,4,0,-4,3,2,-5,4,-6,-1,-58,-28
6,5,0,-5,4,3,-3,3,-4,0,12,-28
7,6,0,-6,4,3,-3,2,-4,1,61,-28
7,6,0,-6,4,3,-2,1,-3,2,63,-27
7,5,-1,-6,4,3,-2,0,-3,2,37,-27
6,4,-1,-4,4,2,-2,0,-3,2,11,-27
5,1,-2,-2,4,0,-2,-1,-4,1,-1,-27
3,0,-3,0,4,-1,-2,-2,-4,0,-9,-27
1,-2,-3,1,3,-2,-2,-3,-4,0,-19,-27
0,-3,-3,2,2,-3,-1,-3,-4,0,-30,-27
0,-4,-2,2,1,-3,0,-4,-4,0,-42,-27
0,-3,-2,2,1,-2,0,-4,-4,1,-52,-27
1,-2,-3,0,2,-2,1,-4,-4,1,-60,-26
3,-2,-3,0,3,-2,1,-4,-3,1,-66,-26
2,-3,-3,1,3,-3,1,-5,-3,1,-65,-26
0,-4,-3,2,2,-4,1,-5,-3,0,-61,-26
0,-5,-4,3,2,-5,1,-5,-3,0,-60,-26
0,-6,-4,3,2,-5,1,-5,-3,0,-64,-26
0,-6,-4,3,2,-5,2,-5,-3,0,-73,-26
0,-6,-5,3,2,-6,1,-6,-4,0,-84,-25
0,-7,-6,3,3,-6,1,-6,-4,0,-93,-25
1,-6,-6,2,3,-6,1,-6,-4,0,-98,-25
1,-5,-5,2,3,-5,2,-6,-4,0,-100,-25
1,-5,-5,2,3,-5,2,-5,-3,0,-101,-25
0,-6,-5,4,3,-5,2,-5,-3,0,-101,-25
-1,-7,-5,4,2,-6,2,-5,-3,0,-101,-25
0,-7,-6,4,3,-6,2,-5,-3,0,-101,-25
0,-6,-6,3,3,-6,2,-5,-3,0,-101,-25
1,-5,-6,2,3,-5,2,-5,-3,0,-99,-24
1,-5,-6,2,3,-5,2,-5,-3,0,-95,-24
0,-5,-5,2,2,-5,2,-5,-3,0,-88,-24
0,-6,-5,3,2,-5,2,-5,-3,0,-81,-24
0,-6,-5,3,3,-5,2,-4,-2,0,-81,-24
0,-6,-5,3,4,-5,2,-4,-2,0,-84,-24
0,-6,-5,3,4,-6,2,-4,-2,0,-85,-24
0,-6,-5,3,4,-5,2,-4,-2,0,-86,-24
0,-6,-5,3,3,-5,2,-4,-2,0,-87,-23
0,-6,-5,3,3,-5,2,-4,-2,0,-88,-23
0,-6,-5,4,3,-5,3,-4,-2,0,-89,-23
0,-6,-5,3,3,-5,3,-4,-2,1,-88,-23
1,-5,-6,3,4,-5,3,-3,-2,1,-87,-23
1,-5,-6,3,4,-5,3,-3,-2,1,-86,-23
1,-5,-6,3,4,-5,3,-3,-2,1,-86,-23
1,-5,-6,3,4,-5,3,-3,-2,1,-86,-23
0,-5,-5,3,3,-5,3,-3,-2,1,-86,-23
0,-6,-5,3,2,-5,3,-3,-1,1,-85,-23
-1,-7,-4,4,2,-5,3,-3,-2,1,-84,-23
0,-6,-4,3,2,-5,3,-2,-2,1,-68,-23
2,-4,-4,1,3,-4,4,-1,-1,1,-40,-23
2,-3,-4,0,4,-4,4,-1,-1,2,-20,-22
2,-3,-4,1,3,-4,4,-1,-1,2,-8,-22
2,-4,-5,1,3,-4,4,0,-1,2,4,-22
2,-4,-5,1,3,-4,4,0,-1,2,20,-22
1,-4,-5,1,2,-4,4,0,0,2,43,-22
0,-4,-4,2,1,-3,5,0,0,2,71,-22
1,-3,-4,1,2,-3,5,0,0,3,89,-22
1,-3,-4,1,2,-3,5,1,0,3,101,-22
1,-3,-4,1,2,-4,5,1,0,2,109,-21
0,-4,-4,2,2,-4,5,1,0,2,86,-21
0,-3,-4,2,2,-3,6,2,1,2,41,-21
1,-2,-3,1,2,-2,6,3,1,3,8,-21
2,-1,-3,0,2,-2,7,4,2,4,-11,-21
2,-1,-3,0,2,-2,7,4,2,4,-30,-21
1,-1,-3,0,2,-2,7,4,2,4,-49,-21
1,-2,-2,0,2,-2,7,4,2,3,-62,-21
0,-3,-3,1,2,-3,6,4,1,3,-69,-21
0,-4,-3,2,2,-3,6,5,1,2,-74,-21
1,-3,-3,1,3,-3,6,6,2,3,-77,-21
2,-1,-3,0,3,-2,7,7,2,3,-78,-20
3,-1,-4,-1,3,-2,7,7,2,3,-80,-20
3,-1,-4,-1,3,-2,7,7,2,3,-82,-20
3,-1,-3,-1,2,-2,7,8,2,3,-84,-20
2,0,-2,-1,2,-1,8,8,3,4,-86,-20
2,0,-1,-1,2,0,8,9,3,4,-87,-20
2,0,-1,-1,2,0,8,10,4,4,-88,-20
2,0,-1,-1,2,0,8,10,4,4,-88,-20
2,0,-1,-1,2,0,8,11,4,4,-88,-20
2,0,-1,-1,1,0,8,11,4,4,-88,-20
1,0,-1,-1,1,0,8,12,4,4,-89,-20
1,0,-1,-1,1,0,8,12,4,4,-89,-20
2,1,-1,-2,2,0,9,13,5,5,-90,-20
3,3,0,-3,2,1,10,15,5,5,-89,-20
4,3,0,-4,2,2,11,16,6,6,-89,-20
4,3,0,-3,2,2,11,17,6,6,-89,-20
5,4,0,-4,3,2,12,18,6,6,-88,-19
6,5,0,-5,3,2,12,19,7,7,-87,-19
6,6,0,-5,3,3,13,20,7,7,-87,-19
4,5,1,-4,1,3,13,21,8,7,-86,-19
3,5,2,-4,1,3,13,22,8,7,-86,-19
3,5,2,-4,1,4,13,23,8,7,-87,-19
3,5,2,-4,1,4,14,24,8,7,-87,-19
3,6,2,-4,1,4,14,25,9,7,-87,-19
4,7,3,-4,1,6,15,26,10,8,-86,-19
5,9,4,-6,1,7,16,28,11,9,-84,-19
6,9,4,-7,1,8,16,29,11,9,-84,-19
4,9,5,-6,0,8,15,30,11,9,-84,-19
4,8,5,-6,0,8,15,31,11,9,-84,-18
5,9,4,-7,1,7,15,31,11,9,-85,-18
6,9,3,-8,2,7,16,32,11,9,-85,-18
6,9,4,-7,1,8,16,34,12,9,-85,-18
5,10,6,-7,0,9,17,35,13,9,-84,-18
6,11,7,-8,0,10,17,37,14,10,-83,-18
9,14,7,-11,1,10,18,39,14,10,-82,-18
12,16,6,-14,3,11,18,41,15,11,-81,-18
13,18,6,-15,4,12,18,42,15,11,-81,-18
13,18,6,-16,3,13,18,43,15,11,-81,-18
12,19,7,-16,2,14,19,44,16,12,-80,-17
11,19,9,-15,1,15,19,45,16,13,-80,-17
9,19,10,-14,0,16,19,46,17,13,-80,-17
8,19,11,-14,-1,16,18,47,17,13,-80,-17
8,20,12,-14,-1,17,18,48,17,13,-80,-17
8,20,13,-14,-2,17,17,49,17,12,-80,-17
8,20,13,-13,-2,17,17,49,17,12,-80,-17
8,21,13,-14,-2,18,17,50,17,12,-79,-17
11,24,13,-17,-1,20,18,52,18,13,-78,-17
15,29,14,-22,1,22,19,54,20,15,-77,-17
16,31,15,-24,1,24,19,55,21,15,-76,-16
16,32,16,-23,0,25,19,56,21,15,-76,-16
15,32,17,-23,0,25,18,57,21,15,-76,-16
15,32,18,-23,-1,25,18,57,21,15,-76,-16
14,32,19,-22,-2,26,18,57,21,15,-75,-16
14,32,19,-22,-2,26,17,57,21,15,-75,-16
15,33,19,-23,-2,27,17,57,21,15,-76,-16
15,34,20,-24,-1,28,16,57,21,15,-76,-16
15,35,20,-25,-1,28,16,58,21,16,-61,-16
16,36,21,-26,-1,29,15,58,21,16,-17,-16
15,37,23,-26,-3,31,15,58,22,17,33,-16
13,37,25,-25,-5,32,15,57,22,17,66,-16
13,38,26,-25,-5,32,14,56,22,17,74,-16
14,38,26,-26,-5,32,13,55,22,17,57,-16
13,39,26,-26,-6,33,12,53,22,17,29,-16
12,38,27,-25,-7,33,11,52,22,17,6,-15
11,39,27,-25,-7,34,10,50,21,17,-11,-15
12,40,28,-26,-7,34,10,49,21,17,-25,-15
13,40,28,-26,-6,35,9,47,20,17,-35,-15
13,40,28,-26,-7,34,8,45,20,16,-43,-15
12,39,28,-25,-7,34,7,43,20,16,-48,-15
11,39,28,-24,-8,34,6,40,20,16,-51,-15
11,38,28,-24,-8,34,6,38,19,16,-53,-15
11,38,28,-24,-8,33,5,36,19,16,-54,-15
10,36,27,-23,-8,32,4,34,18,15,-55,-15
9,34,26,-21,-8,30,3,31,16,14,-56,-15
8,32,25,-19,-8,29,2,28,14,13,-57,-15
7,30,25,-18,-8,28,1,26,14,13,-58,-15
7,29,24,-17,-8,27,1,24,13,13,-58,-15
7,29,23,-16,-7,26,1,22,13,13,-57,-15
8,29,22,-17,-6,26,1,20,13,13,-57,-15
9,29,21,-18,-5,25,2,19,13,13,-57,-14
8,28,20,-18,-5,24,2,17,13,12,-57,-14
6,25,19,-15,-5,22,1,15,11,11,-57,-14
5,22,17,-13,-5,20,0,12,10,10,-58,-14
6,20,15,-13,-3,18,0,10,9,10,-58,-14
6,20,14,-12,-3,17,0,9,8,9,-58,-14
5,18,13,-11,-3,16,0,7,7,9,-58,-14
4,16,12,-9,-4,15,-1,6,6,8,-59,-14
3,14,11,-8,-4,13,-1,4,6,7,-60,-14
2,12,10,-7,-3,12,-1,3,5,6,-60,-14
3,11,8,-7,-2,10,-2,1,4,5,-61,-14
3,10,7,-6,-1,9,-2,0,3,5,-62,-14
3,9,6,-6,0,8,-2,0,3,5,-62,-14
5,9,5,-7,0,7,-2,-1,2,5,-62,-14
6,9,3,-7,1,6,-2,-2,2,5,-63,-14
6,7,2,-6,2,5,-3,-3,1,4,-64,-14
5,5,0,-5,2,3,-3,-4,0,3,-65,-13
3,3,0,-3,2,2,-3,-5,0,3,-66,-13
1,1,0,-1,0,1,-3,-6,0,3,-67,-13
0,0,1,0,0,1,-3,-6,-1,3,-67,-13
0,1,1,0,0,1,-2,-6,-1,3,-68,-13
3,2,0,-2,2,1,-2,-6,-1,3,-69,-13
5,2,0,-3,3,1,-2,-7,-1,2,-71,-13
4,1,0,-2,3,0,-2,-7,-2,2,-73,-13
2,0,-1,-1,2,0,-3,-8,-2,1,-76,-13
1,-1,-1,0,2,-1,-3,-9,-2,1,-78,-13
0,-2,-2,1,1,-2,-3,-9,-3,1,-79,-13
0,-2,-2,1,1,-2,-3,-9,-3,1,-79,-13
0,-2,-2,1,1,-2,-3,-10,-3,0,-80,-13
0,-3,-2,2,1,-2,-4,-10,-4,0,-80,-13
-1,-4,-2,3,1,-3,-4,-11,-4,0,-81,-13
0,-4,-3,3,1,-3,-4,-11,-4,0,-81,-13
0,-4,-3,2,2,-3,-4,-10,-3,0,-81,-12
1,-3,-3,1,2,-3,-3,-10,-3,0,-81,-12
1,-3,-3,0,3,-3,-3,-11,-4,0,-81,-12
1,-4,-4,1,3,-4,-4,-11,-4,0,-81,-12
1,-4,-4,1,3,-4,-4,-11,-4,-1,-81,-12
1,-4,-5,2,4,-4,-4,-11,-4,-1,-81,-12
1,-4,-5,2,4,-4,-4,-11,-4,0,-80,-12
1,-4,-5,2,3,-4,-3,-10,-4,0,-80,-12
1,-4,-5,1,3,-4,-3,-10,-4,0,-80,-12
1,-4,-5,1,3,-4,-3,-10,-3,0,-80,-12
1,-4,-5,1,3,-4,-3,-10,-3,0,-80,-12
0,-4,-5,2,3,-4,-3,-10,-3,0,-80,-12
1,-4,-5,2,3,-4,-3,-10,-3,0,-79,-12
2,-3,-5,1,4,-4,-3,-10,-3,0,-79,-12
2,-4,-5,1,5,-4,-3,-10,-3,0,-79,-12
1,-5,-5,2,4,-5,-3,-10,-3,0,-79,-12
0,-6,-4,3,3,-5,-3,-10,-4,0,-79,-12
0,-6,-4,4,3,-5,-3,-10,-4,0,-79,-12
-1,-7,-4,4,2,-5,-3,-10,-4,0,-79,-12
-2,-6,-4,4,1,-5,-2,-10,-3,0,-79,-12
-2,-6,-3,4,1,-5,-2,-10,-3,0,-79,-12
-1,-6,-4,4,2,-5,-3,-10,-4,0,-80,-12
0,-6,-5,3,4,-6,-3,-10,-4,-1,-80,-12
1,-6,-6,3,5,-6,-3,-10,-4,-1,-80,-12
1,-6,-6,3,5,-6,-3,-10,-4,-1,-80,-12
1,-6,-6,3,4,-5,-3,-10,-4,-1,-79,-12
1,-5,-5,2,4,-4,-2,-9,-4,0,-79,-11
1,-4,-5,1,4,-4,-2,-8,-3,0,-78,-11
2,-4,-5,1,4,-4,-2,-8,-3,0,-78,-11
2,-3,-5,0,5,-4,-2,-9,-4,0,-78,-11
3,-3,-5,0,5,-4,-2,-9,-4,0,-78,-11
3,-3,-5,0,5,-4,-2,-8,-3,0,-78,-11
3,-2,-5,0,5,-4,-2,-8,-3,0,-78,-11
2,-3,-4,1,4,-4,-1,-8,-3,0,-78,-11
1,-4,-4,2,3,-4,-1,-8,-3,0,-78,-11
1,-4,-4,1,3,-4,-1,-8,-3,0,-78,-11
1,-4,-4,1,4,-4,-1,-8,-3,0,-78,-11
0,-4,-4,2,3,-4,-2,-8,-3,0,-78,-11
0,-5,-3,2,3,-4,-2,-8,-3,0,-77,-11
0,-5,-3,2,3,-4,-2,-8,-3,0,-77,-11
0,-5,-4,3,3,-5,-2,-8,-3,0,-77,-11
0,-6,-4,4,3,-5,-2,-8,-4,0,-78,-11
0,-6,-4,4,3,-5,-2,-8,-4,0,-78,-10
0,-5,-4,3,3,-4,-2,-7,-3,0,-77,-10
0,-4,-4,2,3,-4,-2,-7,-3,0,-76,-10
0,-4,-4,2,3,-4,-2,-7,-3,0,-75,-10
0,-4,-4,3,3,-4,-2,-8,-3,0,-72,-10
0,-5,-4,4,3,-5,-2,-8,-3,0,-69,-10
-1,-6,-4,4,2,-5,-2,-8,-3,0,-67,-10
-1,-6,-3,4,2,-4,-1,-7,-3,0,-65,-10
0,-4,-3,2,3,-4,-1,-7,-2,0,-63,-10
1,-2,-3,0,3,-3,-1,-6,-2,0,-62,-10
1,-2,-4,0,4,-3,-1,-6,-2,0,-62,-10
1,-3,-4,1,4,-3,-1,-6,-2,0,-57,-10
0,-3,-4,2,3,-3,-1,-6,-2,0,-49,-10
0,-4,-4,2,3,-3,-2,-7,-3,0,-46,-10
0,-4,-3,3,3,-3,-2,-7,-3,0,-50,-10
0,-4,-3,3,2,-3,-1,-7,-2,0,-55,-10
-1,-5,-3,4,2,-4,-2,-7,-3,-1,-58,-9
-1,-6,-4,4,2,-5,-3,-8,-4,-1,-60,-9
-2,-7,-4,5,2,-6,-3,-8,-4,-1,-61,-9
-2,-6,-3,4,2,-5,-3,-8,-4,-1,-62,-9
0,-5,-3,3,3,-4,-2,-8,-3,0,-62,-9
1,-3,-4,1,4,-4,-2,-8,-3,0,-62,-9
2,-3,-4,1,4,-4,-2,-8,-3,0,-63,-9
3,-3,-4,0,5,-4,-2,-8,-3,0,-64,-9
3,-3,-5,0,5,-4,-2,-8,-3,0,-65,-9
3,-3,-5,0,5,-4,-2,-8,-3,0,-65,-9
3,-3,-4,0,4,-4,-2,-8,-3,0,-65,-9
1,-3,-3,1,3,-4,-2,-8,-3,0,-63,-9
0,-4,-3,2,3,-4,-2,-8,-3,0,-62,-9
0,-4,-4,2,3,-4,-3,-8,-3,0,-63,-9
0,-4,-4,2,3,-4,-3,-7,-3,0,-65,-9
0,-4,-3,2,3,-3,-2,-7,-3,0,-66,-9
0,-4,-3,2,2,-3,-2,-7,-2,0,-66,-8
0,-4,-3,2,2,-3,-2,-7,-2,0,-66,-8
0,-4,-3,2,2,-3,-2,-7,-2,0,-67,-8
0,-4,-3,2,2,-3,-2,-7,-2,0,-68,-8
0,-4,-3,2,2,-3,-2,-7,-2,0,-68,-8
0,-4,-3,2,2,-3,-2,-8,-2,0,-69,-8
0,-4,-3,2,2,-3,-2,-8,-2,0,-70,-8
1,-3,-3,1,3,-3,-2,-8,-2,0,-70,-8
3,-2,-4,0,5,-3,-2,-8,-2,0,-69,-8
4,-2,-5,-1,5,-3,-2,-8,-2,0,-68,-8
3,-2,-4,0,4,-3,-2,-8,-2,0,-68,-8
2,-2,-3,0,3,-3,-2,-8,-2,0,-68,-8
1,-3,-3,1,3,-3,-2,-8,-2,0,-68,-8
0,-3,-2,1,2,-2,-2,-8,-2,0,-68,-8
0,-3,-2,2,2,-2,-2,-9,-2,0,-68,-8
0,-4,-2,2,2,-3,-2,-9,-3,0,-69,-8
0,-3,-2,2,2,-3,-2,-9,-3,0,-68,-8
0,-3,-3,2,3,-3,-2,-9,-3,0,-68,-8
-1,-5,-3,3,2,-4,-3,-10,-3,-1,-69,-7
-2,-6,-3,4,2,-5,-3,-10,-4,-1,-69,-7
-1,-5,-4,3,3,-5,-3,-10,-4,-1,-69,-7
1,-4,-5,1,4,-4,-3,-10,-3,-1,-69,-7
2,-2,-4,0,4,-3,-2,-9,-3,0,-69,-7
2,-2,-3,0,3,-3,-2,-9,-2,0,-68,-7
2,-2,-3,0,3,-3,-2,-9,-2,0,-69,-7
0,-4,-4,2,3,-4,-3,-10,-3,-1,-70,-7
-1,-6,-4,4,2,-5,-4,-10,-3,-1,-71,-7
-1,-6,-4,4,2,-5,-4,-10,-3,-1,-72,-7
0,-5,-3,3,2,-4,-3,-10,-3,-1,-71,-7
0,-4,-3,3,2,-4,-3,-10,-3,-1,-72,-7
-1,-6,-4,4,2,-5,-4,-11,-4,-1,-73,-7
-3,-7,-3,5,1,-5,-5,-11,-4,-2,-73,-7
-3,-6,-3,5,0,-5,-4,-11,-4,-2,-73,-7
-2,-5,-2,4,1,-4,-4,-11,-3,-1,-72,-7
0,-4,-2,2,2,-3,-3,-10,-3,-1,-71,-7
0,-4,-3,2,3,-4,-3,-10,-3,-1,-71,-7
0,-4,-3,2,3,-4,-3,-10,-3,-1,-71,-7
0,-4,-3,3,2,-4,-3,-10,-3,-1,-70,-7
0,-4,-3,2,3,-4,-3,-10,-3,-1,-70,-7
2,-2,-3,0,4,-3,-3,-10,-2,0,-69,-7
3,-1,-3,0,4,-3,-3,-10,-2,0,-69,-7
2,-2,-4,0,4,-4,-3,-10,-3,-1,-69,-7
1,-4,-4,1,3,-4,-3,-11,-3,-1,-69,-7
1,-4,-4,1,3,-4,-3,-11,-3,-1,-70,-7
1,-3,-4,1,3,-3,-3,-10,-3,0,-70,-7
0,-3,-3,1,3,-3,-3,-10,-3,0,-70,-7
0,-4,-4,2,3,-4,-4,-11,-3,-1,-71,-7
-1,-5,-5,3,3,-5,-5,-12,-4,-2,-72,-7
-2,-7,-5,5,2,-6,-5,-12,-5,-2,-71,-7
-2,-7,-4,5,2,-6,-5,-12,-5,-2,-70,-7
-1,-6,-4,4,2,-5,-4,-11,-4,-1,-69,-6
0,-5,-4,3,3,-5,-4,-11,-4,-1,-70,-6
0,-5,-4,3,3,-5,-4,-11,-4,-1,-70,-6
0,-5,-4,2,3,-4,-3,-11,-3,-1,-69,-6
1,-4,-4,1,4,-4,-3,-11,-3,0,-69,-6
1,-4,-4,1,4,-4,-3,-11,-3,0,-68,-6
1,-4,-4,1,4,-4,-3,-11,-3,-1,-69,-6
1,-5,-4,1,4,-5,-3,-11,-3,-1,-71,-6
0,-5,-4,2,3,-5,-3,-11,-3,-1,-72,-6
0,-5,-4,3,3,-5,-3,-11,-3,-1,-72,-6
0,-4,-4,2,3,-5,-3,-11,-3,-1,-72,-6
0,-4,-5,1,4,-5,-3,-11,-3,-1,-72,-6
0,-4,-5,1,4,-5,-3,-11,-4,-1,-72,-6
0,-4,-5,2,4,-5,-4,-11,-4,-1,-72,-6
0,-4,-5,2,4,-5,-4,-11,-4,-1,-73,-6
0,-5,-5,3,4,-5,-4,-11,-4,-1,-74,-6
0,-5,-5,2,4,-5,-4,-11,-4,-1,-75,-6
0,-5,-5,2,4,-5,-4,-11,-4,-1,-75,-6
-1,-5,-4,3,3,-5,-4,-11,-4,-1,-74,-6
-1,-4,-4,2,2,-4,-3,-10,-3,-1,-73,-6
0,-4,-4,1,3,-4,-3,-10,-3,-1,-73,-6
1,-4,-5,1,3,-4,-3,-10,-3,-1,-74,-6
0,-4,-5,1,3,-4,-3,-10,-3,-1,-74,-6
0,-5,-4,2,2,-4,-3,-10,-3,-1,-75,-6
0,-5,-4,2,2,-4,-3,-10,-3,-1,-76,-6
0,-5,-4,2,2,-4,-3,-10,-3,-1,-77,-6
-1,-5,-4,2,2,-5,-3,-11,-3,-1,-78,-6
-2,-6,-4,3,2,-5,-4,-11,-4,-2,-80,-6
-1,-6,-5,3,3,-6,-4,-11,-4,-2,-81,-6
0,-5,-6,2,4,-5,-4,-11,-4,-2,-81,-6
1,-4,-6,1,4,-5,-4,-11,-4,-1,-82,-6
2,-3,-6,0,5,-5,-4,-11,-4,-1,-82,-6
2,-3,-6,0,5,-5,-4,-10,-4,-1,-82,-5
0,-3,-5,1,3,-5,-4,-10,-4,-1,-82,-5
-1,-4,-4,2,2,-5,-4,-10,-4,-1,-81,-5
-1,-5,-5,3,2,-5,-4,-10,-4,-1,-81,-5
-2,-6,-5,3,2,-6,-4,-11,-4,-2,-81,-5
-2,-7,-5,3,2,-6,-4,-11,-4,-2,-80,-5
-1,-7,-5,3,2,-6,-4,-11,-4,-2,-77,-5
-2,-8,-6,4,2,-6,-4,-11,-5,-2,-73,-5
-2,-8,-6,5,2,-7,-4,-11,-5,-2,-69,-5
-2,-7,-6,4,2,-6,-4,-11,-5,-2,-66,-5
0,-6,-6,3,3,-6,-4,-11,-5,-2,-63,-5
1,-4,-5,1,4,-5,-3,-10,-4,-1,-63,-5
1,-3,-5,1,4,-5,-3,-10,-4,-1,-66,-5
0,-4,-5,2,4,-5,-3,-10,-4,-1,-69,-5
0,-5,-5,3,3,-5,-3,-10,-4,-1,-72,-5
0,-6,-6,3,4,-5,-4,-11,-4,-1,-75,-5
0,-6,-6,2,4,-6,-4,-11,-5,-1,-76,-5
0,-6,-6,3,4,-6,-4,-11,-5,-1,-77,-5
-1,-6,-5,3,3,-6,-4,-11,-5,-1,-77,-5
-1,-6,-5,3,3,-6,-4,-12,-5,-2,-77,-5
-1,-6,-5,3,3,-7,-4,-12,-5,-2,-76,-5
-1,-5,-5,3,3,-6,-4,-11,-5,-1,-74,-5
0,-4,-5,2,3,-5,-4,-11,-4,-1,-69,-5
1,-4,-5,2,4,-5,-4,-11,-4,-1,-62,-5
2,-4,-6,1,5,-6,-4,-11,-5,-1,-52,-5
3,-4,-7,0,5,-6,-4,-11,-5,-2,-39,-5
3,-4,-6,0,5,-5,-4,-11,-5,-2,-28,-5
1,-4,-5,0,4,-5,-4,-10,-4,-1,-19,-5
0,-4,-4,1,3,-4,-3,-10,-4,-1,-10,-5
0,-4,-5,1,3,-5,-4,-11,-4,-1,0,-5
0,-5,-5,2,3,-5,-4,-11,-5,-1,13,-5
-1,-6,-5,3,3,-5,-4,-11,-5,-1,29,-5
-1,-6,-5,4,2,-5,-4,-11,-5,-1,46,-4
-2,-7,-5,4,2,-6,-5,-12,-5,-1,61,-4
-2,-7,-5,4,2,-6,-5,-12,-5,-2,72,-4
-1,-6,-5,3,2,-6,-5,-12,-5,-2,77,-4
0,-6,-6,3,3,-6,-5,-12,-6,-2,78,-4
0,-6,-7,2,3,-7,-5,-12,-6,-2,75,-4
0,-7,-6,3,3,-7,-5,-12,-6,-2,69,-4
0,-7,-6,3,3,-7,-5,-12,-6,-2,66,-4
0,-6,-6,3,3,-7,-5,-12,-5,-2,69,-4
0,-5,-5,2,3,-6,-4,-11,-5,-1,70,-4
1,-4,-5,1,3,-5,-4,-11,-5,-1,66,-4
1,-3,-4,1,3,-4,-4,-11,-5,0,65,-4
2,-3,-5,0,4,-4,-4,-11,-5,0,67,-4
3,-2,-5,0,5,-4,-4,-11,-5,0,66,-4
4,-2,-5,-1,5,-4,-4,-11,-4,0,65,-4
3,-2,-5,0,5,-4,-4,-11,-4,0,68,-4
1,-4,-5,1,4,-5,-4,-11,-5,-1,68,-4
0,-4,-6,1,4,-5,-5,-11,-5,-1,65,-4
0,-4,-6,1,4,-5,-5,-12,-5,-1,69,-4
0,-5,-6,1,4,-6,-5,-12,-5,-1,83,-4
1,-5,-6,1,4,-6,-5,-12,-6,-1,99,-4
2,-4,-6,0,4,-6,-5,-12,-5,-1,113,-4
4,-2,-6,-1,5,-5,-4,-11,-5,-1,127,-4
4,-1,-6,-1,5,-4,-4,-11,-5,-1,137,-4
2,-3,-6,0,4,-5,-5,-11,-5,-1,143,-4
0,-4,-5,2,3,-5,-5,-11,-5,-1,147,-4
-1,-5,-5,3,3,-5,-5,-11,-5,-1,151,-4
-1,-6,-5,3,2,-5,-5,-11,-6,-2,157,-4
-1,-7,-5,4,2,-5,-6,-12,-6,-2,162,-4
-1,-7,-5,4,2,-6,-6,-12,-7,-2,168,-3
-1,-7,-5,4,2,-6,-6,-13,-7,-2,173,-3
-1,-6,-5,4,2,-6,-6,-12,-6,-2,178,-3
-1,-6,-5,3,2,-6,-6,-12,-6,-2,181,-3
0,-5,-6,3,3,-6,-6,-12,-6,-2,183,-3
1,-4,-6,1,4,-5,-5,-11,-5,-2,185,-3
2,-2,-6,0,4,-4,-5,-11,-5,-1,185,-3
3,-2,-6,0,4,-4,-5,-11,-5,-1,183,-3
2,-3,-6,1,4,-5,-5,-12,-6,-1,179,-3
1,-4,-6,2,3,-5,-6,-12,-6,-1,176,-3
0,-5,-6,3,3,-6,-6,-12,-6,-1,175,-3
0,-5,-6,3,3,-6,-6,-12,-6,-1,177,-3
0,-5,-5,3,3,-6,-6,-12,-6,-1,179,-3
0,-5,-5,3,3,-6,-6,-12,-6,-2,180,-3
0,-5,-6,2,3,-6,-6,-13,-7,-2,181,-3
1,-5,-5,2,3,-5,-6,-12,-6,-2,182,-3
0,-5,-4,3,2,-5,-6,-12,-6,-1,184,-3
-1,-5,-4,3,2,-5,-6,-13,-6,-1,185,-3
0,-5,-5,3,2,-5,-6,-13,-6,-2,186,-3
-1,-6,-5,4,2,-6,-7,-13,-7,-2,183,-3
-1,-7,-6,5,2,-6,-7,-13,-7,-3,178,-3
-2,-7,-6,5,2,-6,-6,-13,-7,-3,176,-3
-1,-6,-5,3,2,-5,-6,-13,-7,-2,177,-3
1,-3,-5,1,3,-4,-5,-12,-6,-1,181,-3
3,-1,-5,-1,4,-3,-5,-11,-5,-1,185,-3
3,-1,-5,-1,4,-3,-5,-11,-5,-1,188,-3
2,-2,-5,0,3,-3,-5,-12,-6,-1,187,-3
2,-3,-5,0,3,-4,-5,-12,-6,-1,184,-3
1,-3,-6,1,3,-4,-5,-12,-6,-1,179,-3
0,-4,-5,2,3,-4,-5,-12,-6,-2,174,-3
-1,-5,-5,3,2,-5,-6,-13,-6,-2,171,-3
0,-5,-6,2,3,-5,-6,-13,-7,-2,164,-3
1,-5,-6,2,4,-5,-6,-13,-7,-2,154,-2
1,-4,-6,1,3,-5,-6,-13,-7,-2,148,-2
1,-4,-5,1,3,-4,-6,-13,-6,-1,148,-2
1,-3,-5,1,3,-4,-5,-12,-6,-1,153,-2
0,-3,-4,1,3,-4,-5,-12,-6,-1,161,-2
0,-3,-4,1,3,-4,-5,-12,-6,-1,168,-2
1,-1,-4,0,4,-3,-5,-12,-5,0,174,-2
3,0,-4,-1,4,-2,-4,-11,-4,0,175,-2
4,1,-4,-2,4,-2,-4,-11,-4,0,173,-2
4,0,-4,-2,4,-2,-5,-11,-4,0,171,-2
4,0,-4,-2,4,-2,-5,-11,-4,0,172,-2
4,0,-4,-2,4,-1,-5,-11,-4,0,173,-2
4,1,-3,-2,3,0,-5,-11,-4,1,170,-2
4,3,-2,-2,3,0,-4,-10,-3,1,169,-2
4,3,-2,-3,3,0,-4,-10,-3,1,171,-2
3,3,-1,-2,2,0,-5,-11,-3,1,176,-2
2,2,-1,-2,1,0,-5,-11,-3,1,179,-2
1,1,-1,-1,1,0,-5,-11,-3,1,175,-2
1,1,0,-1,0,0,-5,-11,-3,1,171,-2
1,2,0,-2,1,1,-5,-10,-2,1,170,-2
3,3,0,-3,2,1,-5,-10,-2,2,171,-2
4,5,0,-4,2,2,-5,-9,-1,2,170,-2
4,5,1,-4,2,3,-5,-9,-1,3,165,-2
3,5,1,-4,1,3,-6,-9,-1,3,159,-2
2,5,2,-4,0,4,-6,-9,-1,3,159,-2
2,6,2,-4,0,4,-6,-9,-1,3,158,-2
1,5,2,-3,0,4,-7,-10,-2,3,148,-2
1,4,2,-3,0,3,-8,-11,-3,2,136,-2
1,4,1,-2,0,2,-9,-12,-4,1,122,-2
1,3,1,-2,0,2,-10,-13,-5,1,105,-2
1,3,1,-2,0,1,-10,-13,-5,0,90,-2
2,3,0,-3,0,1,-10,-13,-5,0,72,-2
2,3,0,-3,1,1,-10,-13,-6,0,62,-1
2,3,0,-2,1,1,-10,-13,-6,0,74,-1
2,2,-1,-2,1,1,-10,-13,-6,0,95,-1
2,3,-1,-3,1,1,-9,-13,-6,0,112,-1
3,4,0,-3,1,1,-9,-12,-5,0,110,-1
4,4,0,-4,1,2,-8,-11,-5,0,91,-1
3,3,-1,-3,1,1,-8,-11,-6,0,78,-1
4,3,-1,-3,2,1,-8,-11,-6,0,79,-1
5,3,-2,-4,3,1,-8,-10,-5,0,88,-1
6,4,-2,-5,4,1,-7,-10,-5,0,102,-1
6,3,-3,-4,4,0,-7,-10,-6,-1,108,-1
4,1,-3,-3,4,0,-7,-10,-6,-1,107,-1
3,0,-3,-2,3,-1,-8,-11,-7,-2,117,-1
3,0,-4,-1,3,-2,-8,-11,-7,-2,136,-1
4,0,-4,-2,3,-1,-8,-12,-7,-1,145,-1
4,0,-4,-2,3,-1,-8,-12,-7,-1,140,-1
3,0,-4,-2,4,-2,-8,-12,-8,-2,133,-1
3,-1,-5,-1,4,-3,-8,-12,-8,-2,129,-1
3,-2,-5,-1,4,-3,-7,-12,-8,-2,127,-1
2,-4,-6,0,4,-4,-7,-12,-8,-2,128,-1
0,-5,-6,2,3,-5,-7,-12,-8,-2,115,-1
0,-6,-7,3,3,-6,-7,-12,-8,-2,93,-1
1,-6,-7,2,4,-6,-7,-12,-8,-2,91,-1
1,-6,-8,2,5,-7,-7,-12,-8,-2,111,-1
1,-7,-8,2,5,-7,-7,-12,-8,-3,134,-1
1,-7,-8,2,5,-7,-6,-12,-8,-3,145,-1
1,-6,-8,2,4,-7,-6,-12,-8,-2,135,-1
0,-6,-7,2,4,-6,-6,-12,-8,-2,111,-1
1,-6,-7,2,4,-6,-6,-12,-8,-2,88,-1
2,-5,-8,1,5,-6,-6,-12,-8,-2,68,-1
3,-5,-8,1,6,-6,-6,-12,-8,-2,50,-1
2,-5,-8,1,5,-7,-6,-12,-8,-2,32,-1
1,-6,-8,2,5,-7,-6,-12,-8,-2,15,0
1,-6,-8,2,5,-7,-6,-12,-8,-2,1,0
0,-7,-8,3,5,-8,-6,-12,-9,-3,-6,0
0,-7,-8,3,4,-8,-6,-12,-9,-3,-8,0
-1,-8,-8,5,3,-9,-6,-12,-9,-3,-9,0
-3,-10,-8,6,2,-9,-6,-12,-9,-4,-9,0
-4,-11,-8,7,2,-10,-6,-13,-9,-4,-9,0
-4,-12,-9,8,2,-10,-6,-13,-9,-4,-9,0
-3,-11,-9,7,2,-9,-6,-13,-9,-4,-9,0
-1,-9,-9,5,3,-9,-6,-13,-9,-4,-10,0
-1,-8,-9,4,3,-8,-6,-13,-9,-4,-10,0
-1,-9,-8,5,3,-8,-6,-13,-9,-3,-10,0
-2,-9,-8,5,3,-8,-5,-13,-9,-3,-11,0
-1,-9,-8,5,3,-8,-5,-12,-9,-3,-11,0
0,-8,-8,4,4,-8,-5,-12,-8,-3,-11,0
0,-7,-9,3,5,-8,-5,-11,-8,-3,-11,0
0,-7,-8,3,5,-8,-5,-11,-8,-2,-11,0
0,-7,-8,4,4,-8,-5,-11,-8,-2,-12,0
-1,-8,-8,4,3,-8,-5,-12,-8,-3,-13,0
-2,-8,-7,5,2,-8,-5,-12,-8,-3,-13,0
-1,-8,-7,5,3,-8,-5,-12,-8,-3,-12,0
0,-8,-8,4,4,-8,-5,-12,-8,-3,-11,0
0,-7,-9,3,4,-8,-5,-12,-8,-3,-9,0
0,-8,-9,3,4,-8,-5,-12,-8,-3,-9,0
-1,-9,-8,5,3,-8,-5,-12,-8,-3,-12,0
-4,-10,-6,7,1,-8,-5,-12,-8,-2,-14,0
-5,-9,-5,7,0,-7,-4,-12,-7,-1,-14,0
-5,-7,-4,6,0,-6,-3,-12,-5,0,-17,0
-4,-6,-4,5,0,-5,-1,-11,-2,2,-29,0
-4,-6,-3,5,0,-4,2,-10,0,4,-47,0
-6,-7,-2,6,-1,-4,6,-9,3,6,-59,0
-7,-8,-2,8,-2,-4,10,-7,6,8,-65,0
-8,-9,-2,9,-2,-5,15,-4,8,10,-69,0
-7,-9,-2,8,-1,-5,21,0,11,11,-70,0
-6,-10,-4,8,0,-7,27,3,13,12,-72,0
-6,-11,-6,9,1,-9,31,6,14,11,-74,0
-5,-12,-8,9,1,-10,33,9,14,10,-76,0
-2,-11,-9,6,3,-10,34,14,13,9,-78,0
3,-6,-10,1,7,-8,32,20,11,6,-81,0
10,1,-10,-5,10,-5,26,28,7,3,-84,0
18,10,-9,-13,14,0,18,35,2,0,-87,0
25,21,-5,-22,15,7,8,41,-2,-3,-89,0
30,33,1,-31,14,17,-1,44,-5,-4,-89,0
34,47,10,-40,12,29,-12,44,-8,-4,-89,0
37,59,19,-48,9,39,-24,41,-9,-4,-88,0
40,68,26,-54,7,47,-36,34,-10,-3,-87,0
41,74,31,-58,5,53,-46,26,-11,-2,-85,0
42,76,33,-59,5,55,-55,18,-15,-3,-85,0
42,73,30,-58,6,52,-61,11,-22,-7,-87,1
39,66,26,-52,6,46,-65,7,-27,-11,-88,1
34,57,22,-45,6,40,-66,4,-31,-13,-89,1
30,48,16,-38,7,32,-65,1,-34,-15,-90,1
27,38,9,-32,9,24,-63,-2,-36,-16,-91,1
25,31,4,-27,10,18,-59,-4,-36,-16,-91,1
24,26,1,-25,11,14,-52,-4,-33,-15,-90,1
21,22,0,-21,10,11,-45,-4,-30,-13,-89,1
17,17,-1,-17,9,8,-37,-3,-26,-11,-82,1
13,11,-3,-12,8,4,-30,-1,-23,-11,-65,1
11,8,-4,-9,7,2,-24,0,-20,-9,-46,1
9,6,-4,-7,7,1,-18,2,-17,-7,-31,1
9,6,-4,-7,7,1,-14,5,-13,-4,-19,1
9,7,-3,-7,7,1,-10,7,-10,-2,-14,1
9,6,-3,-7,7,1,-7,8,-8,-1,-19,1
8,6,-3,-7,6,0,-6,8,-7,0,-22,1
7,5,-3,-6,5,1,-5,7,-6,1,-25,1
7,5,-2,-6,4,1,-4,6,-5,2,-34,1
5,5,-1,-5,3,1,-3,5,-4,3,-44,1
3,3,-1,-3,2,1,-3,4,-4,3,-56,1
2,2,-1,-2,2,0,-3,3,-4,3,-68,1
1,1,-2,-1,2,-1,-3,2,-4,3,-76,1
1,0,-3,0,2,-2,-2,1,-4,2,-81,1
0,-2,-3,1,2,-3,-2,0,-4,2,-84,1
-1,-3,-3,2,1,-3,-1,0,-4,2,-86,1
0,-3,-4,2,1,-4,-1,0,-4,2,-87,1
0,-3,-5,1,3,-4,-1,-1,-4,2,-87,1
0,-4,-6,2,3,-5,-1,-2,-5,2,-88,1
0,-4,-5,3,3,-5,0,-2,-4,2,-88,1
-1,-4,-4,3,2,-4,0,-2,-4,3,-88,1
-1,-4,-4,3,2,-4,0,-2,-3,3,-81,1
-1,-4,-5,2,3,-5,1,-2,-3,2,-77,1
0,-4,-5,2,3,-5,1,-2,-3,2,-67,2
0,-5,-5,2,3,-5,1,-2,-3,2,-24,2
0,-6,-6,3,3,-6,1,-2,-4,1,15,2
0,-6,-6,3,3,-7,1,-3,-4,1,6,2
0,-6,-6,3,3,-6,2,-3,-3,2,-26,2
0,-5,-6,3,3,-6,2,-3,-3,2,-26,2
-1,-6,-6,3,2,-6,2,-3,-3,2,28,2
-2,-6,-6,3,2,-6,2,-3,-3,2,93,2
-2,-7,-5,4,1,-6,2,-3,-3,2,114,2
-2,-7,-5,4,2,-6,2,-3,-3,2,92,2
-1,-6,-6,3,2,-6,2,-2,-3,1,61,2
0,-6,-6,2,2,-6,2,-2,-3,1,47,2
0,-5,-6,2,2,-5,2,-2,-3,1,64,2
0,-5,-6,3,2,-6,2,-2,-3,1,84,2
-1,-5,-6,3,2,-6,2,-2,-3,1,73,2
-1,-5,-6,3,2,-6,2,-2,-3,1,39,2
-1,-5,-6,3,2,-6,2,-2,-3,2,2,2
-1,-6,-6,3,2,-6,2,-2,-3,2,-29,2
-1,-6,-6,3,2,-6,2,-2,-3,2,-53,2
-1,-7,-6,4,2,-7,2,-2,-3,2,-67,2
-1,-7,-6,4,2,-7,2,-2,-3,1,-76,2
-2,-7,-6,5,2,-7,2,-2,-3,1,-81,2
-3,-8,-6,5,1,-7,2,-2,-3,0,-85,2
-4,-9,-6,6,1,-8,2,-2,-3,0,-88,2
-4,-10,-7,7,1,-8,2,-2,-3,0,-90,2
-2,-9,-8,5,2,-8,2,-1,-3,0,-91,2
1,-6,-8,3,4,-7,2,0,-2,1,-91,2
2,-4,-7,1,4,-6,3,0,-1,1,-91,2
1,-3,-6,1,3,-5,3,1,-1,2,-91,2
0,-3,-5,2,2,-4,4,2,-1,2,-91,2
0,-3,-5,2,2,-4,4,2,-1,2,-93,2
0,-4,-5,2,2,-5,4,2,-1,2,-94,2
0,-5,-5,3,2,-5,4,2,-1,2,-96,3
-3,-7,-5,5,1,-5,4,2,-1,1,-99,3
-5,-9,-5,6,0,-6,3,1,-2,1,-103,3
-4,-8,-5,6,0,-6,3,1,-2,0,-96,3
-2,-7,-5,5,1,-6,3,2,-2,1,-72,3
-1,-5,-4,3,1,-6,4,3,-1,1,-54,3
0,-4,-4,2,2,-5,5,4,-1,2,-58,3
1,-2,-4,1,2,-4,5,4,0,2,-77,3
2,-1,-4,0,3,-3,6,5,0,3,-89,3
1,-1,-3,0,2,-3,6,6,1,3,-84,3
1,-1,-3,0,2,-3,6,6,1,3,-75,3
0,-2,-4,1,2,-3,5,6,1,2,-61,3
0,-2,-4,1,2,-4,5,7,1,2,-42,3
0,-2,-3,1,1,-4,5,7,1,2,-24,3
-1,-2,-2,2,0,-4,6,7,1,2,-19,3
-1,-2,-2,2,0,-4,6,7,1,1,-23,3
-1,-3,-2,2,0,-4,6,7,1,1,-8,3
-1,-3,-2,2,0,-3,6,7,1,2,8,3
0,-2,-2,1,0,-2,7,8,2,2,21,3
1,0,-2,0,1,-1,8,9,2,2,52,4
1,0,-2,0,1,-1,8,10,2,2,87,4
0,0,-2,0,1,-2,8,11,2,2,117,4
1,0,-2,0,1,-2,8,11,2,2,141,4
2,1,-2,-1,1,-1,8,12,3,3,150,4
2,1,-1,-1,1,-1,9,12,3,3,150,4
1,0,-1,0,1,-1,9,12,3,2,164,4
0,0,-1,0,0,-1,9,13,3,2,195,4
0,0,-1,0,0,-1,9,14,3,1,229,4
-1,0,0,1,0,-1,9,14,3,1,255,4
0,0,-1,1,0,-1,8,15,3,1,281,4
0,0,-1,0,1,-1,8,15,3,1,310,4
1,1,0,0,1,0,9,16,4,1,340,4
1,2,0,-1,0,0,10,18,5,2,368,4
1,3,1,-1,0,1,11,19,5,2,389,4
2,4,0,-2,1,1,12,19,5,2,402,4
3,4,0,-2,2,1,12,20,5,2,410,4
3,4,0,-3,2,1,12,22,6,2,419,4
3,5,0,-3,1,2,12,23,6,3,412,4
3,5,1,-4,1,2,13,24,7,3,351,4
4,5,1,-4,1,2,13,25,7,3,252,4
3,5,1,-4,0,2,13,26,7,3,172,4
3,5,2,-4,0,3,14,27,8,3,124,4
4,6,1,-5,0,3,14,28,8,3,94,4
6,8,1,-7,1,4,15,29,9,4,77,4
5,9,2,-7,1,5,16,31,10,4,71,4
3,8,3,-6,0,5,16,32,10,4,71,4
2,6,3,-4,-1,4,16,32,10,3,69,4
1,6,4,-3,-2,4,16,33,10,3,80,4
1,7,4,-4,-2,5,16,34,10,4,133,4
3,9,5,-5,-2,6,17,36,11,4,216,4
5,11,5,-8,0,7,18,38,12,5,283,4
7,13,5,-10,0,8,18,39,13,5,320,5
8,14,5,-11,0,9,18,41,13,6,347,5
7,14,6,-10,0,10,18,42,13,6,369,5
6,14,7,-10,0,10,18,43,13,6,342,5
6,14,7,-9,0,10,18,43,13,6,281,5
5,14,8,-9,-1,10,18,44,13,6,228,5
4,14,9,-9,-2,11,19,45,14,7,166,5
5,15,10,-10,-2,12,19,47,14,7,122,5
7,17,10,-12,-1,13,19,48,15,7,162,5
8,18,10,-13,-1,14,19,49,15,7,255,5
8,20,11,-14,-1,15,19,51,16,7,330,5
8,22,12,-14,-2,16,20,52,17,8,366,5
8,24,14,-16,-3,18,20,54,18,9,330,5
9,25,14,-17,-3,19,20,55,18,10,230,5
10,26,15,-18,-3,20,20,56,19,10,171,5
10,26,15,-18,-3,21,19,57,18,9,223,5
9,26,16,-17,-4,21,19,57,18,9,310,5
8,27,18,-16,-5,22,20,58,19,10,322,5
8,28,19,-17,-5,23,20,59,20,10,249,5
10,30,19,-19,-4,23,20,60,20,10,150,5
12,31,19,-21,-3,24,19,61,20,10,67,5
12,32,19,-22,-3,25,19,61,20,11,20,5
13,33,19,-23,-3,26,19,62,21,11,1,5
13,34,20,-23,-4,27,19,62,21,12,-19,5
11,35,21,-23,-5,28,18,62,21,12,-46,5
11,35,22,-22,-6,28,18,62,21,12,-67,5
11,36,23,-22,-6,29,17,61,21,12,-81,5
10,36,24,-22,-7,29,15,61,21,12,-89,5
8,35,26,-21,-9,29,14,60,21,12,-94,5
7,36,27,-21,-10,31,14,59,21,13,-96,5
8,38,28,-22,-10,32,13,58,21,13,-96,5
10,40,28,-24,-9,33,13,57,21,13,-95,5
11,41,28,-25,-9,34,13,56,20,13,-94,6
11,41,29,-26,-9,34,12,54,20,13,-94,6
11,42,29,-26,-10,35,11,53,20,13,-94,6
11,42,30,-26,-10,35,11,51,20,13,-94,6
10,41,30,-25,-10,35,10,49,20,13,-94,6
9,40,30,-25,-11,35,9,46,19,13,-94,6
9,40,29,-25,-10,34,8,44,19,13,-94,6
9,39,29,-24,-10,34,7,41,18,13,-93,6
8,38,29,-23,-10,33,6,39,17,12,-92,6
6,35,28,-20,-11,31,5,36,16,11,-92,6
6,34,27,-19,-11,30,4,33,15,11,-92,6
7,34,26,-20,-10,29,4,32,15,11,-91,6
7,33,26,-19,-9,28,4,30,14,11,-91,6
5,30,25,-17,-10,27,3,27,13,10,-91,6
3,28,24,-16,-11,26,2,24,12,10,-91,6
2,26,23,-14,-11,24,1,21,10,9,-91,6
1,24,22,-12,-11,23,0,19,9,8,-91,6
1,23,21,-11,-10,22,0,17,8,8,-91,6
3,23,20,-12,-9,21,0,16,8,8,-90,6
4,23,18,-13,-7,20,0,14,8,7,-90,6
4,21,17,-12,-7,18,0,13,7,7,-91,6
3,20,16,-11,-7,17,0,11,6,6,-91,6
2,18,15,-10,-7,16,0,10,6,5,-91,6
1,16,14,-8,-7,15,0,8,5,5,-91,6
0,14,12,-7,-6,13,-1,6,4,4,-90,6
1,13,10,-7,-5,12,-1,4,3,4,-90,6
1,12,10,-7,-5,11,-1,3,3,4,-89,6
1,11,9,-6,-5,10,-1,2,2,4,-89,6
0,9,9,-4,-5,8,-1,1,1,3,-90,6
-2,7,8,-3,-5,7,-2,0,0,2,-90,6
-2,6,8,-2,-5,6,-2,-1,0,2,-90,6
-2,5,7,-2,-5,6,-2,-1,0,2,-90,6
-2,5,6,-2,-4,5,-2,-2,0,2,-89,7
-1,4,5,-2,-3,4,-2,-3,-1,2,-89,7
0,4,4,-1,-3,3,-3,-4,-1,1,-89,7
-1,3,3,0,-3,2,-3,-5,-2,0,-89,7
-2,2,4,0,-3,2,-2,-5,-2,0,-88,7
-3,2,4,1,-3,1,-2,-5,-2,0,-87,7
-2,2,3,0,-2,1,-1,-5,-2,0,-86,7
-1,1,1,0,-1,0,-1,-5,-3,0,-85,7
-2,0,1,0,-1,0,-2,-6,-3,0,-84,7
-4,-2,1,3,-3,0,-2,-7,-4,0,-83,7
-6,-3,2,5,-4,-1,-2,-7,-4,0,-82,7
-7,-5,1,6,-5,-2,-2,-8,-5,-1,-83,7
-8,-6,1,7,-5,-3,-3,-8,-5,-1,-84,7
-7,-6,0,7,-4,-3,-3,-8,-6,-1,-84,7
-5,-5,0,5,-3,-3,-3,-8,-5,-1,-84,7
-3,-3,0,3,-2,-3,-2,-8,-5,-1,-84,7
-3,-3,0,3,-2,-2,-2,-8,-5,0,-84,7
-3,-3,0,4,-2,-2,-2,-8,-5,0,-84,7
-3,-3,0,4,-2,-3,-3,-9,-5,-1,-84,7
-3,-4,-1,5,-2,-3,-3,-9,-6,-1,-84,7
-4,-5,-1,5,-2,-3,-3,-8,-6,-1,-84,7
-6,-6,-2,6,-2,-5,-3,-9,-7,-2,-85,7
-7,-7,-2,7,-2,-6,-3,-9,-7,-3,-85,7
-6,-7,-1,6,-2,-5,-3,-9,-7,-2,-85,7
-5,-5,-1,5,-2,-4,-2,-9,-6,-2,-84,7
-3,-4,-1,4,-1,-3,-2,-8,-5,-1,-83,7
-2,-3,-1,3,-1,-3,-2,-8,-5,-1,-83,7
-2,-4,-2,3,0,-3,-2,-8,-5,-1,-83,7
-2,-4,-2,3,0,-3,-2,-8,-5,0,-82,7
-3,-4,-2,4,0,-3,-2,-8,-5,0,-82,7
-4,-6,-2,5,0,-4,-2,-8,-5,-1,-82,7
-4,-7,-2,6,0,-5,-3,-9,-6,-2,-83,7
-3,-6,-2,5,0,-5,-3,-9,-6,-1,-82,8
-2,-4,-2,4,0,-4,-2,-9,-6,-1,-82,8
-3,-4,-2,4,-1,-4,-2,-9,-6,-1,-82,8
-4,-5,-2,6,-2,-5,-2,-9,-6,-1,-82,8
-4,-5,-2,5,-2,-5,-2,-8,-5,-1,-82,8
-3,-4,-2,3,-1,-4,-1,-7,-4,0,-81,8
-2,-4,-2,2,0,-4,-1,-7,-4,0,-80,8
-2,-3,-2,2,0,-4,-1,-6,-4,0,-80,8
-1,-3,-2,2,0,-3,-1,-6,-4,0,-80,8
-1,-3,-2,2,0,-4,-1,-6,-4,0,-80,8
-2,-4,-3,3,0,-4,-1,-7,-4,0,-80,8
-3,-4,-2,4,-1,-4,-1,-7,-4,0,-80,8
-3,-4,-2,4,-1,-4,-1,-7,-4,0,-79,8
-3,-4,-2,4,0,-4,-1,-7,-4,0,-79,8
-3,-5,-2,5,0,-5,-1,-7,-4,-1,-79,8
-4,-6,-1,5,-1,-5,-1,-7,-5,-1,-79,8
-5,-6,-1,6,-1,-5,-1,-7,-5,-1,-79,8
-5,-7,-2,6,-2,-6,-2,-7,-6,-1,-79,8
-4,-7,-2,6,-1,-6,-2,-7,-5,-1,-78,8
-2,-5,-3,4,0,-5,-1,-7,-4,0,-78,8
-1,-4,-3,3,0,-5,-1,-7,-4,0,-77,8
-3,-5,-2,4,-1,-4,-1,-7,-4,0,-77,8
-5,-5,0,5,-3,-4,-1,-6,-3,0,-76,8
-5,-5,0,5,-3,-3,0,-6,-3,0,-76,8
-4,-5,0,4,-2,-4,0,-6,-3,0,-76,8
-4,-5,-1,4,-1,-4,0,-6,-4,0,-76,8
-4,-5,-1,5,-2,-4,0,-6,-4,0,-76,8
-6,-6,0,6,-3,-4,-1,-6,-4,0,-76,8
-7,-7,-1,7,-3,-5,-1,-7,-4,0,-76,8
-7,-7,-1,7,-3,-5,-1,-7,-5,0,-76,8
-6,-6,-1,6,-2,-5,-1,-7,-5,0,-76,8
-5,-6,-1,6,-2,-5,-1,-7,-5,0,-76,8
-5,-6,-1,6,-1,-5,-1,-7,-5,0,-76,9
-4,-6,-1,5,-1,-5,-1,-7,-4,0,-75,9
-2,-5,-1,4,0,-4,0,-6,-4,0,-75,9
-2,-4,-1,3,0,-4,0,-6,-4,0,-76,9
-2,-4,-1,3,-1,-4,0,-5,-4,0,-64,9
-3,-5,-2,4,-1,-4,0,-5,-5,0,-22,9
-4,-6,-2,5,-1,-4,-1,-6,-5,0,32,9
-5,-6,-2,6,-2,-5,-1,-6,-5,0,84,9
-5,-7,-2,6,-2,-5,-1,-7,-5,0,128,9
-5,-7,-2,6,-2,-5,-1,-7,-5,0,154,9
-5,-6,-1,6,-2,-5,-1,-7,-5,0,219,9
-5,-6,-1,5,-2,-5,-1,-7,-5,0,370,9
-4,-4,-1,4,-1,-4,0,-7,-4,0,463,9
-3,-3,0,3,-1,-3,0,-6,-3,1,373,9
-3,-3,0,3,-2,-3,0,-6,-3,1,216,9
-3,-3,0,3,-2,-3,0,-6,0,1,128,9
-4,-3,1,4,-2,-3,0,-6,6,1,88,9
-6,-5,1,5,-3,-3,0,-6,10,1,48,9
-8,-6,1,6,-4,-3,-1,-6,11,1,12,58
-7,-6,1,6,-3,-4,-1,-7,11,0,-12,-40
-5,-4,0,4,-2,-3,-1,-6,12,1,-30,-402
-3,-2,0,3,-1,-3,-1,-6,14,1,-37,-693
-3,-2,0,3,-1,-3,-1,-6,18,1,-23,-347
-3,-2,0,3,-1,-3,-1,-6,19,1,16,249
-2,-2,0,2,-1,-3,-1,-6,19,1,39,545
-2,-2,0,2,0,-3,-1,-7,19,0,13,237
-4,-3,0,4,-1,-3,-1,-7,19,0,-21,-95
-6,-5,0,5,-3,-3,-1,-8,17,0,-39,-366
-7,-6,0,6,-3,-3,-1,-8,15,-1,-50,-487
-7,-5,0,6,-4,-3,-1,-8,13,-1,-57,-421
-6,-5,1,5,-4,-3,-1,-8,11,0,-61,-155
-5,-4,1,4,-3,-3,-2,-8,10,0,-63,303
-4,-3,0,3,-2,-3,-2,-8,10,0,-67,109
-4,-3,0,3,-2,-3,-2,-8,9,0,-67,-414
-4,-3,0,4,-2,-3,-2,-8,9,0,-39,-247
-5,-4,1,5,-2,-3,-2,-9,8,0,10,375
-6,-5,1,6,-3,-3,-2,-9,7,0,45,471
-6,-4,1,5,-3,-3,-1,-8,6,0,43,289
-5,-4,1,5,-3,-3,-1,-8,7,0,10,-28
-4,-3,1,4,-3,-3,-1,-8,10,0,-8,-400
-4,-3,1,4,-3,-2,-1,-8,13,0,-9,-782
-4,-2,1,3,-2,-2,-1,-8,14,0,20,-1148
-4,-2,1,3,-2,-2,-1,-9,14,0,125,-654
-4,-3,0,3,-1,-2,-1,-9,13,0,230,367
-4,-3,0,3,-1,-2,-1,-9,14,0,263,880
-4,-3,0,3,-1,-2,-1,-9,16,0,281,1103
-5,-4,1,4,-2,-3,-1,-9,16,0,278,1163
-7,-5,1,5,-3,-3,-1,-9,12,0,196,1136
-8,-5,1,6,-4,-3,-2,-9,9,0,110,1065
-8,-5,1,6,-4,-3,-2,-9,8,0,92,974
-7,-5,1,5,-3,-3,-2,-9,12,0,76,878
-7,-4,2,5,-4,-2,-1,-9,17,0,37,784
-8,-5,2,6,-4,-2,-1,-9,17,1,19,696
-7,-5,2,6,-4,-2,-1,-9,12,0,33,616
-6,-5,1,5,-3,-2,-2,-10,9,0,64,544
-6,-5,1,5,-3,-2,-2,-10,12,0,94,479
-7,-5,1,6,-3,-3,-3,-10,17,0,116,422
-6,-4,1,6,-3,-3,-3,-10,23,0,121,365
-6,-4,1,5,-3,-2,-3,-10,28,0,108,330
-6,-4,1,5,-3,-2,-3,-10,31,0,94,336
-6,-6,0,6,-3,-3,-3,-11,32,0,89,-72
-7,-7,0,8,-3,-4,-2,-11,33,0,91,-331
-8,-8,0,8,-3,-5,-2,-10,32,0,94,19
-8,-8,0,8,-3,-5,-1,-10,31,1,93,432
-7,-6,0,7,-3,-4,-1,-9,31,2,71,855
-7,-5,1,6,-4,-3,0,-8,29,3,30,1234
-8,-5,1,6,-4,-3,0,-8,21,3,-5,743
-8,-5,1,6,-4,-3,0,-8,15,3,-25,-280
-7,-5,1,6,-4,-2,0,-8,17,3,-37,-797
-6,-5,1,5,-4,-2,0,-8,22,3,-44,-1023
-5,-5,1,5,-3,-2,0,-8,23,3,-48,-1089
-4,-4,0,4,-2,-2,1,-8,23,4,-48,-1067
-4,-4,0,3,-2,-3,1,-8,26,4,-45,-1000
-4,-5,0,4,-2,-3,0,-8,29,4,-43,-914
-6,-5,0,5,-3,-3,0,-8,29,4,-42,-822
-7,-5,1,6,-3,-3,1,-8,23,4,-39,-732
-7,-5,1,7,-4,-2,1,-8,15,5,-38,-647
-8,-6,2,7,-4,-2,1,-8,8,5,-37,-569
-9,-6,2,8,-5,-2,0,-9,5,4,-16,-537
-9,-7,2,8,-5,-3,0,-9,3,4,26,-396
-9,-7,2,8,-5,-3,0,-9,1,4,78,-51
-10,-7,3,8,-6,-3,0,-9,0,4,184,72
-10,-7,3,8,-6,-3,0,-9,-1,4,279,90
-9,-6,3,8,-6,-3,0,-9,-2,4,278,130
-8,-6,2,7,-5,-3,0,-9,-2,4,251,-139
-7,-5,2,6,-4,-2,0,-9,-1,4,231,-81
-7,-5,1,6,-4,-2,0,-9,-1,4,209,-93
-7,-5,1,6,-4,-2,0,-9,0,4,202,-205
-7,-6,1,6,-4,-2,0,-9,0,4,203,367
-8,-6,1,7,-4,-3,0,-9,-1,4,200,430
-8,-7,1,7,-5,-3,0,-9,-1,4,195,122
-8,-6,1,7,-5,-3,0,-9,-1,4,187,367
-7,-6,1,7,-4,-3,0,-9,-1,4,181,886
-8,-6,1,7,-4,-3,0,-10,-1,4,172,686
-9,-7,1,8,-5,-3,0,-10,-1,4,136,19
-10,-8,1,9,-5,-3,0,-10,-1,4,93,-126
-10,-8,1,9,-5,-3,0,-10,-1,4,109,6
-10,-8,1,9,-5,-3,0,-10,-1,4,149,278
-10,-8,1,9,-5,-4,0,-10,-1,4,121,608
-10,-8,1,8,-5,-4,-1,-10,-1,5,85,951
-10,-8,2,8,-5,-3,0,-9,-1,6,121,1284
-10,-7,2,8,-6,-3,0,-9,0,6,249,760
-10,-7,2,8,-6,-3,0,-9,0,6,479,-288
-11,-8,2,9,-6,-3,0,-9,0,6,635,-824
-11,-8,3,9,-6,-2,0,-9,0,7,559,-1066
-9,-7,2,8,-5,-2,0,-9,0,7,385,-1144
-8,-6,1,7,-4,-2,0,-9,0,7,309,-1133
-8,-6,1,7,-4,-2,0,-9,-1,6,409,-1074
-8,-6,2,7,-5,-2,0,-9,-1,6,627,-994
-10,-7,2,8,-6,-2,0,-9,-1,6,862,-906
-11,-7,3,10,-7,-2,0,-9,-1,6,1050,-819
-11,-7,2,10,-6,-2,0,-9,-1,6,1058,-737
-10,-7,2,9,-5,-2,0,-9,-1,6,909,-661
-10,-7,1,9,-5,-3,0,-10,0,5,861,-592
-11,-8,2,10,-6,-3,-1,-10,0,5,1000,-530
-12,-9,2,10,-7,-3,-1,-10,0,5,1196,-473
-11,-8,2,9,-6,-3,0,-10,0,5,1355,-423
-9,-7,2,8,-6,-3,0,-10,1,5,1461,-378
-9,-7,2,7,-5,-2,-1,-10,3,5,1559,-338
-9,-7,2,8,-6,-2,-1,-10,4,5,1709,-303
-10,-7,2,8,-6,-2,-1,-10,4,6,1721,-273
-9,-6,2,7,-5,-2,-1,-9,3,6,1428,-246
-9,-5,3,7,-6,-1,0,-9,6,6,1212,-222
-9,-5,3,7,-6,-1,0,-9,10,6,1285,-201
-9,-6,3,8,-6,-1,0,-10,13,6,1350,-182
-9,-6,3,8,-6,-2,0,-10,13,5,1271,-165
-8,-5,3,7,-5,-2,0,-10,13,5,1081,-149
-8,-5,2,7,-5,-2,0,-10,13,5,909,-135
-8,-5,2,6,-5,-1,0,-10,13,5,954,-123
-8,-5,2,6,-6,-1,0,-10,11,5,1170,-112
-8,-5,2,6,-6,-1,0,-10,10,5,1386,-103
-9,-6,2,7,-6,-2,0,-10,10,5,1580,-95
-10,-7,3,8,-6,-2,0,-11,10,5,951,-87
-10,-7,3,8,-7,-2,0,-11,11,5,-171,-80
-10,-7,3,9,-6,-3,-1,-11,11,5,-786,-73
-10,-8,2,9,-6,-4,-2,-12,11,4,-1159,-68
-11,-9,1,10,-6,-4,-2,-12,11,3,-1408,-63
-11,-8,1,9,-6,-4,-2,-12,13,3,-1507,-58
-9,-6,2,8,-6,-2,-1,-11,14,4,-1502,-52
-8,-4,2,6,-5,-1,0,-10,12,4,-1473,-47
-7,-3,3,5,-5,0,0,-10,7,4,-1381,-44
-7,-4,3,5,-5,-1,0,-10,2,4,-1246,-40
-8,-4,3,6,-6,-1,0,-10,0,3,-1146,-37
-8,-4,2,6,-6,-1,0,-10,-1,3,-1088,-33
-8,-5,2,7,-6,-1,0,-10,-2,3,-1054,-30
-9,-6,1,8,-6,-2,-1,-11,-3,3,-1035,-28
-11,-8,1,9,-6,-3,-1,-11,-3,3,-1022,-26
-11,-9,0,10,-6,-4,-1,-11,-3,3,-1013,-24
-12,-10,0,10,-6,-4,-1,-11,-3,3,-1046,-23
-12,-10,0,10,-6,-4,-1,-11,-3,3,-1144,-20
-11,-9,0,10,-6,-4,-1,-11,-3,3,-1248,-17
-10,-8,0,9,-6,-3,-1,-11,-3,4,-1348,-15
-9,-7,1,9,-6,-3,-1,-11,-3,4,-1450,-12
-9,-6,1,8,-6,-2,-1,-10,-2,4,-1518,-10
-8,-5,1,6,-5,-2,0,-10,-2,4,-1571,-9
-6,-5,1,5,-4,-2,0,-10,-1,4,-1660,-8
-5,-4,1,4,-3,-2,0,-10,-1,4,-1737,-7
-5,-4,1,4,-3,-1,0,-10,-1,4,-1732,-6
-6,-4,1,5,-4,-1,0,-10,-1,4,-1691,-5
-7,-5,1,6,-4,-1,-1,-10,-1,4,-1649,-4
-7,-6,1,7,-5,-1,-1,-11,-1,3,-1594,-4
-8,-7,0,8,-5,-2,-1,-11,-2,3,-870,-3
-8,-7,0,8,-5,-3,-1,-11,-2,3,46,-3
-8,-7,1,7,-5,-3,-1,-11,-2,4,333,-2
-8,-7,1,7,-5,-3,-1,-11,-3,4,355,0
-8,-6,1,6,-5,-2,-1,-11,-3,4,229,1
-8,-6,0,6,-5,-2,-1,-11,-3,4,113,2
-8,-7,0,7,-4,-3,-1,-11,-4,3,114,3
-8,-7,0,7,-4,-3,-1,-11,-4,3,217,4
-8,-7,0,7,-4,-3,-1,-11,-4,3,266,5
-8,-7,0,7,-4,-3,-2,-11,-4,2,188,6
-7,-7,0,7,-3,-3,-2,-11,-4,2,108,6
-5,-6,-1,6,-2,-3,-2,-11,-4,2,81,7
-4,-6,-1,5,-2,-3,-2,-11,-4,2,75,7
-5,-5,0,5,-2,-2,-1,-11,-4,1,51,8
-5,-5,0,5,-3,-2,-1,-11,-5,1,3,8
-6,-5,0,6,-4,-2,-1,-11,-5,1,-34,9
-6,-5,0,6,-4,-2,-1,-11,-5,1,-54,9
-6,-5,0,6,-3,-2,-2,-11,-5,1,-67,10
-6,-6,0,7,-3,-3,-2,-12,-5,0,-76,10
-8,-8,0,8,-4,-3,-3,-12,-5,0,-81,10
-9,-9,0,9,-5,-4,-3,-13,-5,0,-85,10
-9,-9,0,8,-4,-3,-3,-13,-4,0,-93,10
-7,-7,0,6,-3,-3,-3,-12,-4,0,-90,11
-5,-5,0,4,-2,-2,-2,-12,-4,0,-8,12
-3,-3,-1,3,-1,-2,-2,-12,-4,0,102,12
-2,-3,-1,2,0,-2,-2,-12,-3,0,92,13
-4,-4,-1,4,-1,-3,-2,-12,-2,-1,57,13
-5,-6,-1,6,-2,-3,-3,-13,-3,-1,200,13
-6,-7,-1,7,-3,-4,-3,-13,-4,-2,433,13
-7,-8,-1,7,-3,-4,-3,-13,-5,-2,502,13
-7,-8,-1,7,-3,-4,-3,-13,-6,-3,459,13
-6,-7,-1,7,-3,-4,-3,-13,-6,-3,520,13
-5,-6,-2,6,-2,-4,-3,-13,-6,-3,614,13
-3,-4,-2,4,-1,-3,-3,-13,-6,-3,545,14
-2,-3,-1,3,-1,-2,-3,-12,-6,-3,350,14
-3,-3,-1,3,-1,-2,-3,-12,-7,-3,185,14
-4,-5,-1,4,-2,-2,-3,-13,-7,-4,78,13
-5,-6,-1,5,-2,-2,-3,-13,-7,-4,18,13
-5,-6,-1,5,-2,-3,-3,-13,-7,-4,-11,13
-5,-7,-2,5,-2,-4,-3,-14,-7,-4,-39,13
-5,-7,-2,6,-2,-4,-4,-14,-7,-4,-63,13
-5,-7,-3,6,-2,-5,-4,-14,-7,-4,-76,13
-4,-7,-4,5,-1,-6,-4,-15,-8,-4,-83,13
-5,-8,-3,6,-1,-6,-4,-15,-8,-4,-87,13
-6,-8,-2,7,-2,-5,-4,-14,-8,-3,-89,13
-5,-7,-2,6,-2,-4,-4,-14,-8,-3,-90,13
-3,-5,-2,4,0,-3,-3,-14,-7,-2,-91,14
-3,-5,-2,4,0,-3,-3,-13,-7,-2,-92,14
-3,-5,-1,4,-1,-3,-3,-13,-6,-2,-92,14
-5,-5,0,5,-2,-2,-2,-13,-6,-1,-91,14
-6,-4,0,5,-4,-1,-2,-12,-5,-1,-90,14
-5,-4,0,5,-3,-1,-2,-12,-4,-1,-89,14
-3,-3,-1,4,-1,-1,-2,-12,-4,-1,-89,14
-3,-3,0,3,-1,-1,-2,-12,-4,0,-88,14
-3,-3,0,3,-1,-1,-2,-12,-4,-1,-89,14
-3,-3,-1,3,-1,-1,-3,-13,-4,-1,-89,14
-2,-2,0,2,-1,0,-3,-13,-4,-1,-88,14
-2,-1,0,1,-1,0,-3,-12,-4,-1,-87,14
-2,-1,0,2,-2,0,-3,-12,-4,-1,-86,14
-4,-2,0,3,-3,-1,-3,-13,-5,-1,-86,14
-5,-3,0,4,-3,-1,-4,-13,-5,-1,-86,14
-5,-3,1,4,-3,0,-4,-13,-5,-1,-86,15
-3,-1,1,2,-3,1,-3,-13,-4,0,-85,16
0,2,2,-1,-2,3,-2,-12,-2,2,-84,17
2,5,2,-3,-1,4,-1,-11,-1,3,-83,17
2,5,2,-3,-1,4,-2,-11,-1,3,-82,17
1,5,2,-3,-1,4,-2,-12,-2,3,-82,17
1,4,2,-2,-1,4,-3,-12,-2,2,-81,17
0,3,2,-2,-1,4,-3,-12,-2,3,-79,17
0,4,3,-2,-1,4,-3,-12,-2,3,-78,17
1,5,3,-2,-1,5,-4,-13,-2,4,-76,17
1,6,4,-3,-1,6,-5,-14,-3,3,-74,17
0,6,4,-3,-2,6,-6,-15,-4,2,-73,16
0,5,4,-2,-2,5,-7,-15,-4,1,-74,16
0,4,4,-2,-2,5,-7,-15,-5,0,-74,16
0,4,4,-2,-2,5,-7,-15,-5,0,-74,17
2,5,3,-3,-1,5,-6,-15,-6,0,-74,17
3,5,2,-4,0,5,-6,-15,-6,0,-75,17
2,5,2,-4,0,4,-6,-15,-6,0,-76,17
1,4,2,-3,-1,4,-7,-15,-7,0,-77,16
2,4,2,-3,0,4,-7,-15,-7,-1,-78,16
2,4,1,-3,0,3,-6,-15,-7,-1,-79,16
1,3,1,-3,0,3,-6,-15,-7,0,-79,16
1,3,1,-2,-1,3,-6,-15,-5,0,-79,16
0,2,1,-1,-1,3,-6,-15,-4,0,-79,16
0,1,1,0,-1,2,-6,-15,-4,0,-79,15
0,0,1,0,-1,1,-6,-16,-5,-1,-80,15
0,0,0,0,0,0,-6,-16,-6,-2,-80,14
0,0,-1,0,0,0,-7,-17,-5,-2,-81,14
-1,-1,-2,1,0,-1,-7,-17,-5,-3,-81,14
-2,-2,-2,2,0,-1,-7,-18,-5,-3,-80,14
-1,-2,-2,2,0,-1,-6,-18,-5,-3,-80,15
-1,-2,-2,1,0,-1,-6,-17,-4,-3,-79,16
-1,-2,-1,1,0,-1,-5,-17,-3,-3,-79,16
-1,-3,-2,2,0,-2,-5,-17,-4,-3,-79,16
-1,-4,-3,3,0,-3,-5,-18,-5,-4,-79,15
-1,-6,-4,4,0,-4,-5,-18,-5,-4,-79,15
-2,-6,-5,4,0,-5,-5,-17,-5,-4,-79,16
-1,-6,-5,4,1,-5,-5,-17,-5,-4,-79,16
-1,-6,-6,4,1,-6,-5,-18,-5,-4,-79,16
-1,-7,-6,4,2,-6,-5,-18,-5,-4,-79,17
0,-7,-7,3,2,-6,-5,-18,-6,-4,-79,18
0,-7,-7,3,3,-7,-5,-18,-6,-4,-79,18
0,-7,-7,4,3,-7,-5,-18,-6,-5,-79,19
-1,-8,-7,5,2,-7,-5,-19,-6,-5,-79,19
-3,-9,-7,6,1,-7,-5,-19,-7,-5,-79,20
-4,-10,-7,7,1,-8,-5,-19,-7,-5,-78,21
-4,-11,-7,8,1,-8,-6,-19,-8,-6,-78,22
-4,-10,-7,7,1,-8,-6,-19,-8,-6,-78,23
-3,-10,-7,7,1,-8,-6,-19,-8,-6,-77,24
-2,-10,-8,6,2,-8,-6,-19,-8,-6,-76,24
-1,-9,-8,4,3,-8,-5,-19,-9,-6,-75,26
0,-8,-8,3,3,-8,-5,-18,-9,-6,-74,27
0,-7,-8,3,3,-7,-4,-18,-9,-6,-73,28
1,-7,-8,2,3,-7,-4,-18,-8,-6,-73,29
2,-6,-9,1,4,-7,-4,-18,-8,-5,-72,30
2,-5,-9,1,5,-7,-4,-18,-9,-5,-72,30
1,-7,-9,3,4,-7,-4,-18,-10,-6,-71,30
0,-8,-9,4,4,-8,-5,-18,-10,-6,-71,30
-1,-9,-9,5,4,-8,-4,-18,-8,-6,-71,31
-1,-9,-8,6,3,-8,-4,-18,-7,-6,-70,32
-1,-9,-8,6,3,-8,-4,-18,-6,-6,-70,33
-1,-9,-9,6,3,-8,-4,-18,-6,-5,-69,34
0,-8,-9,5,4,-8,-4,-18,-6,-5,-69,35
0,-8,-8,4,3,-7,-3,-18,-6,-4,-69,35
0,-8,-8,5,3,-7,-3,-18,-6,-4,-69,36
0,-9,-8,5,4,-8,-4,-18,-7,-4,-69,37
-1,-9,-8,5,3,-9,-4,-18,-7,-3,-68,37
-2,-10,-8,6,3,-9,-4,-18,-7,-3,-68,38
-2,-10,-8,6,3,-9,-4,-18,-7,-3,-68,39
-1,-9,-9,6,3,-9,-4,-18,-8,-3,-68,40
0,-9,-9,5,4,-8,-4,-18,-8,-3,-68,41
0,-8,-9,4,4,-8,-4,-18,-8,-2,-68,42
0,-8,-9,4,4,-8,-4,-18,-8,-2,-68,43
0,-8,-8,4,4,-8,-4,-18,-8,-2,-68,44
0,-7,-7,3,4,-7,-3,-18,-7,0,-67,46
0,-7,-7,3,3,-7,-2,-18,-6,1,-66,47
-2,-8,-6,5,2,-7,0,-18,-5,2,-65,49
-4,-9,-6,6,0,-7,1,-17,-4,3,-65,50
-5,-10,-6,7,0,-8,4,-15,-1,5,-64,52
-6,-11,-5,8,-1,-8,8,-13,2,7,-63,54
-7,-11,-5,9,-1,-8,13,-10,6,8,-61,55
-7,-12,-5,9,-1,-8,19,-6,10,10,-60,57
-7,-14,-7,10,0,-10,25,-1,13,11,-60,57
-7,-16,-9,11,1,-12,29,2,16,10,-61,57
-6,-17,-11,11,2,-14,32,6,16,9,-62,56
-3,-16,-13,9,4,-14,32,9,15,7,-64,55
2,-11,-14,5,7,-12,31,14,12,5,-66,54
9,-4,-13,-2,10,-8,27,22,9,2,-69,52
16,6,-11,-10,13,-2,21,29,7,-1,-71,51
23,17,-6,-19,14,5,13,35,5,-3,-73,51
28,30,1,-29,13,16,5,37,4,-4,-72,53
33,44,10,-39,11,28,-4,37,2,-4,-71,56
37,57,19,-47,9,39,-15,33,0,-4,-70,59
39,66,27,-52,6,47,-26,26,-2,-4,-69,62
40,72,31,-56,5,52,-37,17,-4,-4,-68,64
41,76,34,-58,4,56,-46,8,-5,-3,-66,67
41,76,35,-58,3,56,-52,0,-7,-4,-65,67
39,71,32,-55,3,52,-56,-4,-11,-6,-65,64
35,63,28,-49,3,46,-57,-6,-15,-9,-66,60
32,54,21,-43,4,38,-57,-9,-19,-11,-67,54
29,44,14,-36,7,29,-57,-13,-23,-14,-68,49
25,34,8,-29,8,21,-56,-17,-26,-16,-68,45
21,26,4,-23,8,15,-52,-19,-26,-17,-68,42
17,19,1,-18,8,10,-46,-19,-25,-17,-68,39
15,14,-1,-14,8,6,-40,-17,-22,-16,-68,36
15,11,-4,-12,9,3,-32,-15,-19,-15,-66,34
14,9,-6,-11,9,1,-25,-12,-16,-13,-64,32
11,6,-6,-8,7,0,-19,-9,-12,-11,-62,31
9,4,-6,-7,6,0,-15,-7,-9,-9,-61,29
7,3,-5,-5,5,0,-12,-4,-7,-8,-60,27
6,3,-4,-5,5,0,-9,-1,-5,-6,-59,26
6,2,-4,-4,5,0,-7,0,-3,-5,-58,24
6,2,-4,-4,5,0,-6,-1,-2,-5,-58,23
6,2,-4,-4,5,-1,-4,-2,-1,-4,-56,22
7,3,-4,-5,5,-1,-3,-3,0,-4,-55,21
6,2,-4,-4,4,-1,-3,-4,0,-3,-53,20
5,1,-5,-3,4,-1,-2,-5,0,-2,-52,18
4,-1,-6,-1,4,-2,-3,-6,0,-2,-52,17
3,-2,-6,0,4,-3,-2,-6,0,-2,-51,16
2,-3,-6,0,4,-3,-1,-6,-1,-2,-50,15
2,-3,-6,0,4,-4,0,-7,-1,-1,-49,14
1,-4,-6,1,4,-5,0,-8,-2,-2,-49,13
0,-5,-6,2,3,-6,0,-9,-3,-3,-49,12
0,-6,-7,2,4,-6,0,-9,-4,-3,-48,11
1,-5,-7,2,4,-6,0,-9,-4,-2,-47,11
1,-5,-7,2,4,-6,1,-9,-4,-2,-46,11
1,-6,-7,2,4,-6,1,-8,-4,-1,-45,11
2,-6,-8,2,4,-7,1,-8,-4,-2,-45,10
1,-7,-9,3,4,-7,1,-9,-4,-2,-44,10
0,-9,-9,4,4,-8,1,-9,-4,-3,-44,9
-1,-9,-9,5,3,-8,2,-10,-4,-3,-44,9
-1,-9,-9,5,3,-8,3,-10,-4,-3,-43,9
0,-8,-9,4,4,-8,4,-10,-4,-3,-42,9
1,-8,-10,3,5,-8,4,-10,-4,-3,-41,8
2,-8,-10,3,5,-8,3,-10,-4,-3,-40,8
2,-8,-10,3,5,-8,3,-10,-4,-3,-39,7
2,-8,-11,3,5,-8,3,-9,-4,-2,-39,7
3,-7,-11,2,6,-8,3,-9,-4,-1,-38,7
3,-7,-10,2,6,-7,4,-9,-4,-1,-37,7
2,-7,-9,3,5,-8,3,-9,-4,-2,-36,7
1,-8,-9,3,5,-8,2,-9,-4,-2,-36,6
2,-7,-9,3,5,-8,2,-9,-5,-2,-35,6
4,-5,-9,1,6,-7,3,-8,-5,-1,-34,7
5,-4,-10,0,7,-7,3,-7,-4,0,-33,8
5,-5,-10,0,7,-7,3,-7,-4,0,-33,8
3,-6,-10,2,6,-7,3,-8,-4,0,-33,7
1,-7,-9,3,5,-8,3,-8,-4,-1,-33,7
0,-8,-9,4,4,-8,3,-8,-3,-1,-33,7
0,-8,-9,4,4,-8,2,-8,-3,-1,-33,7
0,-9,-9,4,4,-8,2,-8,-3,-1,-33,7
0,-9,-9,5,4,-9,2,-8,-3,-2,-33,7
0,-9,-10,5,4,-9,2,-8,-3,-2,-33,7
1,-9,-10,4,5,-9,2,-8,-3,-2,-33,8
2,-9,-10,4,5,-10,2,-7,-3,-2,-33,8
1,-9,-11,5,5,-10,2,-7,-3,-2,-33,7
0,-10,-10,5,5,-10,2,-7,-3,-2,-33,7
0,-9,-10,4,5,-9,2,-7,-3,-1,-33,7
1,-7,-9,3,5,-8,3,-6,-2,0,-32,8
1,-7,-9,2,5,-8,3,-6,-2,0,-32,8
2,-7,-9,2,5,-8,2,-6,-2,0,-32,8
3,-6,-9,1,6,-8,3,-5,-2,0,-31,8
4,-5,-9,0,7,-7,4,-4,-1,1,-31,9
5,-4,-9,0,7,-7,4,-4,0,1,-30,9
4,-5,-9,0,7,-7,4,-4,0,1,-31,9
3,-5,-9,1,6,-7,4,-4,0,0,-31,8
3,-6,-10,1,6,-7,4,-4,0,0,-31,8
3,-6,-10,1,6,-7,4,-4,0,0,-31,8
2,-6,-9,2,6,-7,4,-4,0,0,-31,8
2,-6,-9,2,5,-7,4,-4,0,1,-31,8
3,-5,-9,1,6,-7,4,-4,0,1,-31,8
4,-4,-9,0,6,-7,4,-3,0,1,-30,8
4,-4,-9,0,6,-7,5,-3,0,1,-30,8
4,-4,-9,0,6,-7,5,-2,0,1,-29,8
4,-5,-9,0,6,-7,5,-2,0,1,-29,8
3,-5,-9,0,6,-6,5,-2,0,1,-29,8
4,-4,-8,0,6,-6,5,-1,0,2,-29,8
4,-3,-8,0,6,-5,5,-1,0,2,-29,8
3,-4,-8,0,6,-6,5,0,0,1,-29,8
3,-5,-8,1,6,-6,5,0,0,1,-29,7
3,-5,-8,1,6,-7,5,0,0,1,-29,7
4,-5,-8,1,6,-7,5,0,0,1,-29,8
5,-4,-8,0,7,-6,5,1,0,2,-28,8
5,-3,-8,0,7,-6,5,1,0,2,-28,9
5,-3,-8,-1,7,-5,6,2,0,2,-28,9
6,-1,-8,-2,7,-5,7,3,1,2,-27,10
6,0,-8,-3,7,-4,8,4,2,3,-26,10
6,0,-7,-3,6,-4,8,5,2,3,-26,10
7,-1,-8,-3,7,-4,8,5,2,2,-26,9
7,-1,-8,-3,7,-5,8,5,2,2,-26,9
6,-2,-8,-2,7,-5,8,6,2,2,-25,9
5,-2,-7,-2,7,-4,8,6,2,2,-25,10
5,-2,-7,-2,6,-4,8,7,3,2,-25,10
4,-2,-7,-1,6,-4,8,7,3,2,-25,10
4,-2,-7,-1,6,-5,8,8,3,2,-24,9
5,-1,-8,-1,6,-4,8,9,3,2,-23,10
6,0,-7,-3,7,-3,9,10,4,3,-22,10
7,2,-6,-4,7,-2,9,11,5,3,-22,11
8,3,-6,-5,7,-1,10,12,5,4,-21,11
8,3,-5,-5,6,-1,10,13,5,4,-20,11
7,2,-5,-4,5,-1,10,14,5,4,-20,11
7,2,-5,-4,5,-1,11,15,5,4,-20,11
8,4,-5,-6,6,0,11,16,6,5,-19,12
10,6,-4,-8,7,1,12,18,7,5,-18,12
11,8,-4,-9,8,2,13,19,8,6,-17,12
11,8,-4,-9,8,1,12,20,8,5,-17,12
11,7,-4,-9,8,1,12,21,8,5,-17,11
11,7,-4,-9,8,1,13,22,8,5,-17,12
11,8,-3,-10,8,2,13,23,9,6,-16,12
12,9,-3,-11,8,3,14,24,9,6,-16,12
11,9,-3,-10,7,3,14,25,9,6,-16,12
11,9,-2,-10,7,4,14,26,10,6,-16,12
10,9,-1,-10,6,5,14,28,10,6,-15,12
10,10,0,-10,5,5,14,29,11,6,-15,12
10,10,0,-10,5,5,14,30,11,6,-15,11
10,11,0,-10,5,6,14,31,11,6,-15,11
11,13,0,-12,6,7,15,32,11,7,-14,11
12,14,0,-13,6,8,15,33,11,7,-14,11
12,14,0,-13,6,8,15,34,11,7,-14,11
12,14,1,-13,5,8,15,35,11,7,-14,10
12,15,2,-13,5,9,15,36,12,7,-14,11
13,16,3,-14,5,10,15,38,13,8,-13,11
14,18,3,-15,5,11,15,39,14,8,-12,11
14,19,4,-16,6,11,15,40,14,8,-12,11
15,20,5,-17,6,13,15,42,14,8,-12,11
15,21,5,-18,5,14,16,43,14,8,-12,11
15,22,5,-18,5,14,16,43,14,8,-12,10
15,22,6,-18,5,15,16,44,15,8,-11,10
15,23,7,-18,4,16,15,44,15,9,-11,10
15,24,8,-19,4,17,15,45,16,9,-10,10
15,24,8,-19,4,17,14,46,16,9,-10,9
15,24,9,-19,3,17,14,46,16,9,-10,9
15,25,10,-19,3,18,13,47,16,9,-9,9
15,27,11,-20,2,19,13,47,16,10,-9,9
17,29,12,-22,3,21,13,48,17,11,-8,10
18,31,12,-24,3,22,13,49,17,11,-7,10
19,32,13,-25,3,23,13,49,17,10,-7,10
18,33,14,-25,3,23,13,48,17,10,-7,10
18,33,14,-25,2,24,12,48,17,10,-7,9
18,33,15,-25,2,24,11,48,17,10,-6,9
17,33,16,-25,1,25,11,48,17,11,-6,10
18,35,17,-26,0,27,10,47,17,11,-5,10
18,35,17,-26,0,27,9,45,17,10,-5,9
16,34,19,-25,-1,27,8,44,16,10,-6,9
15,35,20,-25,-2,28,7,42,16,11,-6,10
17,37,20,-27,-1,29,7,41,17,11,-6,10
18,39,20,-28,0,30,7,40,17,12,-6,11
19,40,20,-29,0,30,7,39,17,12,-7,11
19,39,20,-29,0,30,6,37,16,12,-7,11
19,39,20,-29,0,30,5,34,16,11,-9,11
17,38,20,-28,-1,30,5,32,15,11,-10,11
15,36,21,-26,-2,29,4,29,15,11,-12,10
14,35,21,-24,-2,29,3,26,14,10,-13,10
13,35,21,-24,-3,28,2,24,14,10,-14,10
12,34,21,-23,-3,28,2,22,13,10,-15,10
13,33,20,-23,-2,26,1,20,12,10,-16,10
15,32,18,-23,0,25,1,18,12,9,-17,10
14,31,17,-22,0,25,0,16,11,9,-19,10
11,28,16,-19,-2,23,0,14,10,8,-21,9
9,25,15,-17,-2,21,-1,11,9,8,-23,9
9,24,14,-16,-2,20,-1,9,8,7,-24,9
9,23,14,-16,-2,20,-1,7,8,7,-25,9
11,24,13,-17,0,19,-1,6,7,7,-26,10
12,24,12,-18,0,19,-1,5,7,7,-26,10
11,23,11,-17,0,17,-1,3,6,6,-27,9
10,20,10,-14,0,15,-2,1,6,5,-29,8
9,18,8,-13,1,14,-2,0,7,4,-30,8
8,16,7,-12,1,12,-2,-2,7,4,-31,8
8,14,6,-11,1,11,-2,-4,7,3,-32,8
8,13,5,-10,1,10,-2,-5,7,3,-33,7
8,12,4,-10,1,9,-2,-6,7,2,-33,7
7,10,4,-8,1,8,-3,-7,7,2,-34,7
7,9,3,-7,2,7,-3,-7,6,1,-34,6
7,8,1,-7,3,6,-3,-8,5,1,-35,6
7,7,0,-7,4,5,-3,-9,4,0,-36,6
6,5,0,-6,4,4,-3,-11,3,0,-36,6
5,4,-1,-5,3,3,-4,-12,2,0,-37,5
4,2,-1,-4,3,1,-4,-13,2,-1,-38,5
4,1,-2,-3,3,0,-4,-13,1,-1,-38,5
4,0,-3,-3,4,0,-4,-14,1,-2,-39,5
3,0,-4,-1,4,-1,-5,-14,0,-2,-39,5
2,-1,-4,0,4,-2,-5,-14,-3,-3,-39,5
2,-2,-5,0,4,-2,-5,-14,-5,-3,-39,5
2,-2,-5,1,4,-3,-5,-15,-7,-3,-38,5
2,-2,-6,0,4,-3,-5,-16,-8,-3,-37,6
3,-2,-7,0,5,-4,-5,-17,-8,-3,-36,6
4,-2,-7,-1,5,-4,-5,-17,-9,-3,-36,6
4,-3,-7,-1,5,-5,-5,-17,-9,-3,-36,6
4,-3,-7,-1,5,-5,-5,-17,-9,-3,-36,6
4,-2,-7,-1,6,-5,-5,-17,-9,-4,-34,6
4,-2,-8,-1,6,-5,-5,-17,-9,-4,-37,6
4,-3,-8,0,6,-6,-5,-17,-10,-4,-40,6
3,-4,-8,1,6,-6,-5,-18,-10,-4,-38,7
2,-5,-8,2,5,-6,-5,-18,-10,-4,-35,7
2,-6,-8,2,5,-6,-5,-18,-11,-5,-33,7
2,-7,-9,3,6,-7,-5,-19,-11,-6,-33,6
2,-7,-9,3,6,-8,-5,-19,-11,-6,-32,6
3,-6,-9,2,6,-7,-5,-18,-10,-5,-31,7
4,-5,-9,1,6,-7,-4,-17,-9,-5,-30,8
6,-4,-10,0,7,-7,-4,-17,-9,-5,-29,8
6,-4,-10,0,8,-7,-5,-18,-9,-5,-29,8
4,-6,-10,1,7,-7,-5,-18,-10,-5,-29,8
3,-7,-10,2,6,-7,-5,-18,-10,-5,-29,8
3,-7,-10,2,6,-7,-5,-18,-10,-4,-28,8
4,-5,-9,1,7,-7,-4,-17,-10,-4,-28,8
6,-4,-9,0,8,-6,-4,-17,-9,-3,-28,9
6,-4,-9,0,7,-6,-4,-17,-8,-3,-28,9
5,-4,-9,0,7,-6,-4,-17,-8,-3,-28,9
5,-3,-9,0,8,-6,-4,-16,-8,-3,-28,9
6,-3,-9,0,8,-6,-3,-16,-8,-3,-28,9
5,-3,-9,0,8,-6,-3,-16,-8,-3,-28,9
4,-5,-9,1,7,-7,-4,-17,-8,-4,-29,8
4,-6,-9,2,7,-7,-4,-17,-9,-4,-30,8
4,-6,-9,2,7,-7,-4,-17,-9,-5,-30,8
4,-6,-9,1,7,-7,-4,-17,-9,-5,-31,8
5,-5,-9,0,7,-7,-3,-16,-8,-4,-31,8
4,-5,-9,0,7,-7,-3,-16,-8,-4,-31,8
4,-5,-9,0,7,-7,-3,-16,-9,-4,-30,8
4,-5,-10,0,7,-7,-3,-16,-9,-4,-30,8
4,-5,-9,0,7,-7,-3,-15,-8,-4,-31,8
4,-5,-9,0,7,-7,-3,-15,-8,-4,-31,8
3,-5,-9,1,7,-7,-3,-16,-8,-4,-33,8
2,-5,-8,1,6,-6,-3,-16,-8,-4,-37,8
2,-5,-8,1,6,-7,-3,-16,-8,-4,-40,7
4,-5,-9,1,7,-7,-4,-16,-9,-4,-39,7
5,-5,-9,0,8,-7,-3,-16,-9,-4,-39,7
5,-5,-9,0,7,-7,-3,-15,-8,-3,-44,7
3,-6,-9,1,6,-6,-3,-15,-8,-3,-50,8
2,-7,-8,2,5,-7,-3,-15,-8,-3,-49,8
2,-7,-8,2,5,-7,-3,-15,-8,-3,-43,8
3,-6,-8,1,6,-7,-3,-15,-8,-3,-38,8
4,-5,-8,0,6,-7,-3,-14,-8,-3,-39,8
5,-5,-9,0,7,-6,-3,-14,-8,-3,-42,8
6,-5,-9,0,8,-6,-3,-15,-9,-4,-41,7
6,-5,-10,1,8,-7,-4,-15,-9,-4,-37,7
6,-5,-10,1,8,-7,-4,-15,-9,-4,-34,7
5,-5,-9,1,7,-6,-3,-14,-8,-4,-31,7
4,-5,-8,1,6,-6,-3,-14,-8,-3,-29,8
4,-4,-8,1,7,-6,-3,-14,-8,-3,-28,8
4,-5,-8,1,7,-7,-3,-15,-8,-3,-27,7
3,-6,-8,2,6,-7,-3,-15,-8,-3,-27,7
1,-7,-7,4,5,-7,-3,-15,-8,-4,-27,7
1,-7,-7,4,5,-7,-3,-15,-8,-4,-27,7
2,-6,-8,3,5,-7,-3,-15,-8,-4,-27,8
2,-6,-8,2,6,-7,-3,-15,-8,-4,-27,8
1,-7,-8,3,6,-8,-4,-15,-9,-4,-27,8
1,-8,-8,3,5,-8,-4,-15,-9,-5,-28,8
2,-8,-8,3,6,-8,-4,-15,-9,-5,-28,8
3,-6,-8,2,6,-7,-3,-15,-9,-4,-28,9
3,-6,-8,2,5,-6,-3,-15,-8,-4,-29,9
3,-6,-8,2,5,-6,-3,-15,-8,-4,-30,9
4,-4,-8,1,5,-6,-3,-14,-8,-4,-31,10
4,-3,-7,0,5,-4,-2,-14,-7,-3,-48,11
4,-2,-6,0,5,-4,-2,-13,-7,-2,-73,11
5,-2,-6,-1,6,-4,-2,-14,-7,-3,-72,11
6,-2,-7,-1,7,-5,-2,-14,-7,-3,-58,11
6,-2,-7,0,7,-5,-3,-14,-7,-4,-58,11
5,-3,-7,0,6,-5,-3,-14,-8,-4,-71,12
4,-4,-7,1,6,-5,-3,-14,-8,-4,-77,12
4,-4,-7,1,6,-5,-3,-14,-8,-4,-71,13
4,-4,-7,1,6,-5,-3,-14,-8,-4,-63,13
4,-4,-7,1,6,-5,-3,-14,-8,-4,-58,13
4,-4,-7,1,5,-5,-3,-14,-8,-4,-55,13
4,-4,-7,1,5,-5,-3,-15,-8,-4,-54,13
3,-4,-7,1,5,-5,-3,-15,-8,-4,-54,13
3,-4,-7,1,5,-5,-3,-15,-8,-4,-53,14
3,-5,-7,1,5,-5,-3,-15,-8,-5,-52,14
3,-5,-8,2,5,-6,-4,-16,-8,-5,-51,13
3,-5,-8,1,5,-6,-4,-16,-8,-5,-51,13
4,-4,-8,0,6,-6,-4,-16,-8,-5,-50,13
5,-3,-8,0,6,-6,-3,-16,-8,-5,-49,13
4,-3,-7,0,6,-5,-3,-16,-8,-4,-47,13
3,-4,-6,1,5,-5,-3,-16,-8,-4,-46,13
3,-4,-6,1,5,-5,-3,-16,-8,-4,-46,13
3,-4,-6,1,5,-5,-3,-16,-8,-4,-46,13
2,-4,-6,1,5,-5,-3,-16,-9,-4,-46,12
2,-5,-7,2,5,-6,-3,-16,-9,-4,-46,12
2,-4,-7,1,5,-6,-3,-16,-9,-4,-45,11
3,-4,-7,1,6,-6,-3,-16,-9,-4,-45,11
3,-4,-7,1,6,-6,-3,-16,-9,-4,-45,11
3,-4,-7,1,5,-5,-3,-16,-9,-4,-45,11
4,-3,-7,0,6,-4,-2,-16,-9,-3,-45,12
4,-2,-7,-1,6,-4,-2,-16,-8,-3,-44,12
3,-3,-7,0,5,-4,-3,-16,-9,-3,-44,12
1,-5,-7,2,4,-5,-3,-17,-9,-4,-45,11
0,-6,-6,3,3,-6,-4,-17,-10,-4,-46,11
1,-6,-6,3,4,-6,-4,-17,-10,-4,-46,10
1,-6,-7,3,4,-6,-4,-18,-10,-4,-44,10
1,-6,-7,3,4,-7,-4,-18,-10,-5,-40,10
1,-6,-7,3,4,-7,-4,-18,-11,-5,-36,10
2,-5,-7,2,5,-6,-4,-18,-11,-4,-35,10
2,-5,-7,1,5,-6,-4,-18,-11,-4,-36,10
3,-4,-7,1,6,-6,-4,-18,-11,-4,-37,10
3,-4,-7,1,6,-6,-4,-17,-10,-4,-37,10
2,-4,-7,1,5,-6,-4,-17,-10,-4,-57,10
3,-5,-7,1,5,-6,-4,-17,-10,-4,-101,10
4,-5,-8,1,6,-6,-4,-18,-10,-4,-121,10
5,-4,-9,0,7,-6,-4,-18,-10,-4,-103,10
5,-4,-8,0,7,-6,-4,-17,-10,-4,-84,10
4,-4,-8,0,6,-6,-3,-17,-10,-4,-72,10
4,-5,-8,1,6,-6,-3,-17,-10,-4,-66,10
4,-5,-8,1,6,-6,-3,-17,-10,-4,-71,10
4,-5,-7,1,5,-6,-3,-17,-10,-4,-73,10
3,-5,-6,1,4,-6,-3,-17,-9,-4,-61,10
3,-5,-6,1,4,-6,-3,-17,-9,-4,-51,10
3,-5,-7,1,4,-6,-3,-17,-10,-4,-47,9
3,-6,-7,2,4,-6,-3,-17,-10,-4,-44,9
3,-6,-7,2,4,-6,-3,-17,-10,-4,-42,9
3,-6,-7,1,5,-6,-3,-17,-10,-4,-41,9
3,-5,-7,1,5,-6,-3,-17,-10,-4,-40,9
4,-5,-7,0,6,-6,-3,-17,-10,-4,-39,9
4,-4,-7,0,6,-6,-3,-17,-10,-4,-39,10
4,-4,-8,0,6,-6,-3,-17,-10,-4,-40,10
4,-4,-8,0,6,-6,-3,-17,-10,-4,-40,10
4,-5,-8,0,6,-6,-3,-18,-10,-4,-41,10
3,-5,-8,1,5,-6,-4,-18,-11,-4,-41,10
2,-6,-8,2,5,-6,-4,-19,-11,-5,-42,10
1,-7,-7,3,4,-6,-4,-19,-11,-5,-42,10
0,-7,-7,3,4,-7,-4,-19,-11,-5,-42,10
0,-7,-7,3,4,-7,-4,-19,-11,-5,-42,10
1,-7,-7,3,4,-8,-4,-19,-11,-5,-42,10
1,-7,-7,3,4,-8,-4,-19,-11,-5,-41,10
1,-7,-7,3,4,-7,-4,-19,-10,-5,-41,11
1,-7,-7,3,4,-7,-4,-18,-10,-5,-41,11
2,-6,-7,2,5,-6,-4,-18,-10,-5,-41,12
2,-6,-7,2,5,-6,-3,-18,-9,-4,-41,12
1,-6,-6,2,4,-6,-3,-17,-9,-4,-40,13
1,-6,-6,2,4,-6,-3,-17,-9,-4,-40,12
2,-6,-7,2,4,-6,-4,-18,-9,-5,-40,12
2,-5,-7,1,5,-6,-4,-18,-9,-5,-39,12
1,-5,-6,2,4,-6,-4,-18,-9,-5,-39,12
0,-6,-6,3,4,-6,-4,-18,-9,-5,-39,12
1,-6,-6,3,4,-6,-4,-18,-10,-5,-39,12
1,-6,-6,2,5,-6,-4,-18,-10,-5,-39,12
1,-7,-6,3,4,-6,-4,-18,-11,-5,-39,11
0,-8,-6,4,4,-7,-5,-18,-11,-5,-39,11
-1,-9,-6,4,3,-8,-5,-18,-11,-6,-39,11
-1,-9,-7,4,3,-8,-5,-18,-11,-6,-39,11
1,-7,-7,3,4,-7,-4,-18,-11,-5,-38,11
3,-4,-7,1,6,-6,-3,-17,-10,-5,-37,12
4,-3,-7,0,6,-5,-3,-17,-9,-5,-37,12
5,-3,-7,0,7,-5,-3,-17,-9,-5,-36,12
5,-3,-7,0,7,-5,-3,-17,-9,-5,-36,12
5,-3,-7,0,6,-5,-3,-17,-9,-5,-36,12
4,-4,-7,0,5,-5,-3,-17,-9,-4,-35,12
4,-4,-7,0,5,-5,-3,-17,-9,-4,-35,12
4,-4,-7,0,6,-5,-3,-17,-9,-4,-34,12
3,-5,-7,1,5,-6,-3,-18,-10,-5,-34,11
0,-8,-7,4,4,-7,-4,-19,-11,-5,-34,10
-1,-9,-7,5,3,-8,-4,-19,-11,-6,-34,10
-1,-8,-6,5,3,-7,-4,-19,-11,-6,-33,10
0,-7,-6,4,4,-7,-4,-18,-11,-6,-33,10
1,-6,-6,3,4,-7,-4,-18,-10,-6,-33,10
1,-6,-7,2,4,-7,-4,-18,-9,-6,-32,10
1,-6,-7,3,4,-7,-4,-18,-8,-6,-32,10
1,-6,-6,2,4,-6,-4,-17,-7,-5,-31,10
2,-5,-7,1,5,-6,-4,-17,-5,-5,-31,10
3,-4,-7,1,6,-6,-4,-17,-3,-4,-30,11
2,-5,-6,2,5,-6,-4,-17,0,-4,-30,11
0,-6,-5,3,4,-6,-4,-17,2,-4,-30,10
1,-6,-6,3,4,-6,-4,-17,2,-4,-30,10
1,-6,-6,2,4,-6,-4,-17,2,-4,-30,10
1,-5,-6,2,4,-5,-4,-17,5,-4,-29,10
1,-5,-6,2,4,-5,-4,-17,8,-4,-28,10
1,-5,-6,2,4,-6,-4,-17,9,-4,-28,10
1,-6,-6,2,4,-6,-4,-17,8,-4,-28,10
1,-6,-6,2,4,-6,-4,-17,5,-4,-27,10
0,-6,-5,3,3,-6,-4,-17,2,-5,-27,10
0,-7,-5,3,3,-6,-4,-17,0,-5,-27,10
0,-7,-5,3,4,-7,-4,-17,0,-5,-27,10
2,-6,-6,2,5,-7,-4,-17,0,-5,-26,10
3,-5,-7,1,5,-6,-4,-17,0,-5,-22,10
3,-5,-7,1,5,-6,-4,-18,0,-5,-20,9
2,-5,-6,2,5,-6,-4,-18,0,-5,-22,9
1,-6,-6,3,4,-6,-4,-18,0,-5,-23,10
0,-6,-5,3,3,-6,-4,-18,-1,-5,-24,10
0,-6,-5,3,3,-6,-3,-18,-2,-5,-25,10
0,-6,-4,3,3,-5,-3,-17,0,-5,-25,10
0,-6,-4,3,3,-5,-3,-17,1,-5,-26,10
0,-7,-5,3,3,-6,-4,-18,3,-5,-26,9
0,-7,-6,4,3,-6,-4,-18,4,-5,-26,9
-1,-7,-6,4,3,-6,-4,-18,3,-5,-26,9
0,-6,-6,3,3,-6,-4,-18,0,-5,-25,9
1,-6,-6,2,4,-6,-4,-18,2,-5,-25,9
1,-6,-6,2,5,-6,-4,-18,10,-5,-25,9
1,-6,-6,2,4,-6,-4,-18,14,-5,-25,9
0,-7,-5,3,4,-6,-4,-18,10,-5,-25,9
0,-7,-5,3,3,-6,-4,-18,4,-5,-24,9
0,-6,-5,3,3,-5,-4,-17,-1,-5,-24,9
0,-5,-5,2,3,-5,-4,-17,-5,-5,-24,9
1,-4,-5,1,3,-5,-4,-17,-6,-5,-23,9
1,-4,-6,1,4,-5,-3,-17,-6,-5,-23,9
3,-3,-6,0,5,-5,-3,-17,-6,-4,-23,9
3,-3,-6,0,5,-5,-3,-16,-7,-4,-23,9
3,-4,-6,1,5,-5,-3,-16,-9,-4,-24,9
2,-5,-6,1,5,-5,-3,-16,-10,-4,-24,9
2,-5,-6,2,5,-5,-3,-17,-10,-4,-24,9
1,-6,-6,2,4,-5,-3,-17,-10,-4,-24,9
0,-6,-5,3,3,-5,-3,-17,-10,-4,-24,9
-2,-8,-5,5,2,-6,-4,-17,-10,-5,-25,9
-3,-9,-6,6,2,-8,-4,-18,-11,-6,-25,8
-3,-9,-6,6,2,-8,-4,-18,-11,-6,-25,8
-2,-9,-5,6,2,-7,-4,-17,-11,-6,-24,9
-2,-8,-5,5,2,-6,-3,-17,-10,-5,-23,9
0,-7,-5,3,3,-5,-3,-16,-10,-5,-23,10
1,-5,-5,2,4,-5,-3,-16,-10,-4,-23,10
2,-4,-5,1,4,-4,-3,-16,-9,-4,-22,11
2,-3,-5,1,4,-4,-3,-15,-9,-4,-22,11
2,-3,-5,1,4,-5,-3,-15,-9,-4,-22,11
1,-4,-5,1,4,-5,-3,-15,-9,-4,-22,11
0,-6,-5,3,3,-5,-3,-15,-9,-4,-22,11
-2,-8,-5,5,2,-6,-3,-15,-10,-4,-21,10
-3,-9,-5,6,1,-6,-3,-16,-10,-5,-21,10
-3,-9,-5,6,1,-6,-4,-16,-11,-5,-21,10
-3,-9,-5,5,1,-6,-4,-16,-11,-5,-21,10
-1,-7,-6,3,2,-6,-4,-16,-11,-5,-21,10
1,-5,-6,1,3,-6,-4,-16,-10,-4,-20,10
2,-4,-6,0,4,-5,-3,-15,-10,-4,-20,11
2,-4,-6,1,4,-5,-3,-15,-9,-4,-19,11
1,-5,-6,2,4,-5,-3,-15,-9,-4,-19,11
1,-6,-6,2,3,-5,-3,-15,-9,-4,-19,11
0,-7,-5,3,3,-5,-3,-16,-9,-4,-19,11
-1,-7,-5,4,2,-5,-4,-16,-9,-4,-19,11
0,-7,-5,3,3,-5,-4,-16,-9,-5,-19,11
0,-6,-6,2,3,-6,-4,-16,-9,-5,-19,11
0,-6,-6,3,3,-6,-4,-16,-10,-5,-19,10
-1,-7,-6,3,2,-6,-4,-16,-10,-5,-19,10
-2,-7,-5,4,2,-6,-4,-16,-10,-5,-19,10
-2,-7,-4,4,2,-5,-3,-16,-10,-5,-18,10
-2,-6,-4,4,2,-4,-3,-15,-9,-4,-17,11
-2,-6,-4,4,2,-4,-3,-15,-9,-4,-17,11
-2,-6,-4,4,2,-5,-3,-15,-10,-4,-17,11
-1,-6,-4,3,2,-5,-3,-15,-10,-4,-17,11
1,-5,-5,1,3,-5,-3,-15,-9,-4,-16,11
2,-4,-5,1,4,-5,-3,-15,-9,-4,-16,11
1,-5,-5,2,3,-5,-3,-15,-9,-4,-16,11
-1,-7,-6,3,3,-6,-3,-15,-9,-5,-17,10
-2,-8,-6,4,3,-6,-4,-16,-10,-5,-17,10
-2,-7,-6,4,3,-6,-3,-15,-9,-5,-16,10
-2,-7,-5,4,2,-5,-3,-14,-9,-4,-15,11
-2,-7,-4,4,1,-5,-3,-14,-9,-4,-15,11
-3,-7,-4,4,1,-5,-3,-15,-9,-5,-16,10
-2,-7,-4,4,1,-6,-3,-15,-10,-5,-16,10
-1,-6,-5,3,2,-5,-3,-15,-10,-5,-16,10
-1,-6,-5,3,2,-5,-3,-15,-10,-5,-16,10
-1,-6,-5,3,2,-5,-3,-15,-10,-5,-16,10
-1,-6,-5,3,2,-5,-3,-15,-10,-5,-16,10
-1,-6,-5,3,2,-5,-3,-15,-10,-5,-16,10
-2,-7,-5,4,1,-6,-3,-15,-10,-5,-16,10
-3,-7,-5,5,1,-6,-4,-15,-10,-5,-15,10
-1,-6,-5,3,2,-6,-3,-14,-9,-5,-15,11
0,-4,-5,2,3,-5,-3,-14,-9,-4,-14,11
0,-5,-5,2,2,-5,-3,-14,-9,-4,-14,11
-1,-6,-4,3,1,-5,-3,-14,-9,-4,-14,11
-2,-6,-4,4,1,-5,-4,-14,-9,-4,-14,11
-2,-7,-5,4,1,-5,-4,-14,-9,-4,-14,11
-2,-7,-5,4,2,-6,-4,-14,-9,-5,-14,10
-3,-8,-6,5,1,-7,-5,-15,-9,-5,-15,10
-3,-9,-6,5,1,-7,-5,-15,-9,-5,-15,10
-2,-8,-5,4,1,-6,-4,-14,-9,-5,-14,10
-2,-6,-4,3,0,-5,-3,-14,-9,-4,-13,11
-3,-6,-3,3,0,-4,-3,-14,-8,-3,-12,11
-3,-5,-3,3,0,-3,-3,-14,-8,-3,-12,12
-3,-5,-2,3,0,-3,-3,-13,-7,-3,-12,12
-3,-4,-1,3,0,-2,-3,-13,-7,-3,-12,12
-3,-4,-1,4,-1,-2,-3,-13,-7,-3,-11,12
-2,-3,-1,3,0,-2,-3,-12,-7,-2,-11,13
0,-1,0,0,0,-1,-2,-12,-6,-1,-10,13
1,0,0,-1,0,0,-2,-12,-5,-1,-9,14
2,1,0,-2,1,0,-2,-12,-5,0,-8,14
3,1,0,-2,1,0,-2,-12,-5,0,-7,14
1,0,0,0,0,0,-3,-12,-5,-1,-7,14
0,0,0,0,0,0,-3,-12,-5,-1,-7,14
0,1,1,-1,0,1,-2,-11,-4,0,-6,15
0,2,2,-1,-1,2,-2,-11,-3,0,-6,15
-1,1,2,0,-1,2,-2,-11,-3,0,-6,14
-1,1,2,-1,-1,2,-3,-11,-4,0,-6,14
-1,1,2,-1,-1,2,-3,-12,-4,0,-5,14
-1,1,2,-1,-1,2,-4,-12,-3,1,-4,14
-1,1,2,-1,-1,3,-4,-12,-3,1,-4,15
-1,1,2,-1,-1,3,-4,-12,-3,1,-4,15
0,2,2,-2,-1,3,-5,-12,-4,1,-4,15
1,4,2,-3,0,4,-5,-12,-4,1,-3,15
3,5,2,-4,0,4,-6,-13,-4,1,-3,15
4,5,2,-5,0,4,-6,-13,-5,0,-3,15
3,4,2,-4,0,3,-7,-14,-6,0,-4,14
2,2,1,-2,1,1,-8,-15,-7,-2,-5,13
1,0,0,-1,1,0,-9,-16,-8,-3,-5,12
0,-1,0,0,0,0,-9,-16,-8,-3,-5,12
-2,-1,1,1,-1,0,-9,-16,-8,-3,-5,12
-2,0,1,0,-2,1,-8,-15,-7,-3,-5,12
0,1,1,-1,-1,1,-8,-14,-7,-3,-5,11
2,3,1,-3,0,1,-6,-13,-7,-2,-4,12
3,4,1,-4,0,2,-5,-12,-6,-2,-3,12
2,3,1,-3,0,1,-5,-12,-7,-2,-3,11
2,2,0,-2,1,0,-6,-13,-7,-3,-3,11
2,2,-1,-2,2,0,-6,-13,-8,-3,-3,10
3,2,-1,-2,2,0,-6,-13,-8,-4,-3,10
2,0,-1,-1,1,0,-6,-13,-8,-4,-4,9
0,-1,-1,0,1,-1,-7,-14,-9,-5,-4,9
0,-2,-1,1,0,-2,-7,-15,-10,-5,-5,8
-1,-3,-1,2,0,-2,-7,-15,-10,-6,-5,8
-3,-4,-1,3,0,-3,-7,-16,-11,-6,-5,8
-4,-6,-1,5,-1,-4,-7,-16,-11,-6,-6,7
-5,-6,-1,5,-1,-4,-7,-16,-11,-6,-6,7
-5,-6,-1,5,-1,-4,-6,-16,-10,-6,-5,7
-4,-6,-2,5,-1,-4,-6,-15,-10,-6,-5,7
-3,-6,-3,4,0,-4,-5,-15,-10,-6,-5,7
0,-5,-4,2,1,-4,-5,-14,-10,-5,-4,7
1,-4,-5,1,3,-5,-5,-14,-10,-5,-4,7
1,-5,-5,2,3,-5,-4,-14,-10,-5,-4,7
0,-5,-5,3,3,-5,-4,-14,-9,-6,-4,7
0,-5,-5,3,3,-5,-3,-14,-9,-5,-4,8
0,-5,-5,3,2,-5,-3,-14,-9,-5,-4,8
-2,-7,-5,4,1,-6,-4,-15,-10,-6,-4,7
-3,-9,-5,6,0,-7,-5,-15,-11,-7,-5,6
-4,-11,-6,7,0,-9,-6,-16,-12,-8,-6,5
-5,-12,-6,8,0,-10,-6,-17,-12,-8,-7,5
-4,-11,-6,7,1,-9,-6,-16,-12,-8,-6,5
-3,-9,-6,6,1,-8,-5,-15,-11,-7,-5,6
-2,-8,-6,5,2,-7,-5,-15,-11,-7,-5,6
-3,-8,-6,6,2,-7,-5,-15,-11,-7,-5,6
-4,-9,-6,6,1,-7,-5,-15,-11,-7,-5,6
-5,-9,-5,7,0,-7,-5,-15,-10,-7,-4,6
-5,-10,-5,7,0,-7,-5,-15,-10,-7,-4,6
-4,-10,-6,7,1,-8,-5,-15,-11,-7,-4,6
-3,-10,-7,6,1,-8,-5,-15,-11,-7,-4,6
-3,-10,-6,7,1,-8,-5,-15,-11,-7,-4,6
-4,-9,-5,6,0,-7,-4,-15,-10,-6,-3,6
-3,-8,-4,5,0,-6,-4,-14,-9,-6,-2,7
-3,-7,-4,5,1,-6,-3,-14,-9,-6,-2,7
-2,-7,-5,5,1,-6,-3,-14,-9,-6,-2,7
-3,-8,-5,6,1,-7,-4,-14,-9,-6,-2,7
-5,-10,-4,7,0,-7,-4,-14,-9,-6,-2,7
-6,-10,-3,7,-1,-7,-3,-14,-9,-5,-1,7
-5,-9,-3,7,-1,-6,-3,-13,-8,-5,0,7
-4,-9,-5,6,0,-7,-3,-14,-9,-6,0,7
-4,-9,-6,6,0,-7,-3,-14,-9,-6,0,6
-4,-9,-5,6,0,-7,-3,-14,-9,-5,0,7
-3,-8,-5,5,1,-7,-3,-14,-9,-5,0,7
-2,-8,-6,5,2,-7,-3,-14,-9,-6,0,6
-1,-9,-7,5,2,-8,-4,-14,-10,-6,0,6
-3,-10,-7,7,1,-8,-4,-14,-10,-6,0,6
-5,-11,-6,8,0,-8,-4,-14,-10,-7,0,6
-6,-11,-5,9,-1,-8,-4,-14,-9,-6,1,6
-7,-10,-4,9,-1,-7,-3,-14,-8,-5,2,7
-6,-9,-4,8,-1,-6,-2,-14,-7,-4,3,7
-6,-9,-3,8,-1,-6,-1,-14,-6,-3,4,8
-6,-9,-2,8,-2,-5,1,-13,-3,-1,6,9
-8,-9,0,9,-4,-5,5,-11,0,1,8,10
-10,-10,0,10,-6,-5,9,-9,3,3,10,12
-12,-11,1,11,-7,-5,13,-6,6,5,11,12
-13,-13,1,13,-7,-6,18,-3,9,6,11,12
-14,-14,0,14,-6,-7,24,0,11,7,11,12
-12,-15,-3,13,-4,-9,29,4,13,7,10,11
-10,-15,-5,12,-2,-10,33,7,14,7,9,9
-7,-14,-7,10,0,-10,34,11,13,5,7,7
-4,-13,-8,8,2,-10,33,16,10,3,4,5
0,-8,-9,3,4,-8,29,22,7,0,1,2
6,0,-7,-3,6,-4,22,29,3,-3,-2,0
14,11,-4,-12,9,3,13,36,-1,-5,-4,-1
22,24,1,-23,10,13,4,41,-4,-7,-5,0
29,40,9,-35,10,25,-4,43,-6,-7,-4,1
34,55,19,-45,8,37,-15,41,-8,-7,-2,4
37,66,28,-52,5,47,-27,36,-9,-6,0,6
38,73,35,-55,2,54,-38,27,-11,-5,1,8
38,75,37,-56,1,56,-48,18,-14,-6,1,8
37,73,37,-55,0,55,-56,9,-19,-8,-1,8
35,69,34,-53,0,52,-61,4,-25,-12,-3,7
34,63,29,-49,2,46,-62,1,-29,-14,-4,6
31,55,23,-44,3,39,-62,-1,-32,-16,-5,5
26,44,17,-36,4,31,-61,-3,-35,-19,-7,3
23,34,11,-29,5,23,-58,-6,-37,-20,-8,2
20,27,7,-24,6,17,-53,-7,-36,-20,-7,2
17,22,5,-19,6,13,-46,-6,-33,-19,-6,2
14,18,3,-16,6,10,-39,-5,-29,-16,-5,3
13,15,1,-14,6,8,-31,-3,-24,-13,-3,4
12,12,0,-12,6,6,-23,0,-20,-11,-1,5
9,9,-1,-10,5,5,-17,2,-17,-9,0,5
5,6,0,-6,2,4,-13,4,-13,-7,0,5
3,3,0,-3,1,2,-10,6,-11,-6,0,5
2,1,0,-2,1,1,-8,7,-10,-6,0,5
1,0,-1,-1,1,0,-6,8,-7,-5,1,4
0,-1,0,0,1,0,-5,7,-6,-4,1,5
0,0,0,0,0,0,-3,6,-5,-3,2,5
0,0,0,0,0,0,-2,5,-4,-2,3,6
0,0,0,0,0,0,-2,4,-3,-2,4,6
0,0,-1,0,0,0,-2,2,-3,-2,4,6
0,-1,-1,0,0,-1,-1,2,-3,-2,4,7
-1,-2,-1,1,0,-1,0,2,-3,-2,4,7
-1,-3,-2,1,0,-2,0,1,-3,-2,4,7
-1,-4,-3,2,1,-3,0,1,-3,-2,4,7
-2,-6,-4,3,1,-5,0,0,-3,-2,4,6
-4,-7,-4,5,0,-6,0,0,-4,-2,4,6
-5,-8,-4,6,0,-6,0,0,-4,-2,4,5
-4,-7,-4,5,0,-6,1,-1,-4,-2,4,5
-4,-7,-4,5,0,-6,1,-1,-4,-2,4,5
-3,-7,-4,5,1,-6,1,-1,-4,-3,4,5
-4,-9,-5,6,1,-7,1,-2,-4,-3,3,5
-5,-10,-5,8,0,-8,2,-2,-4,-3,3,4
-5,-9,-4,7,0,-7,3,-1,-3,-2,4,5
-3,-7,-3,5,0,-5,4,0,-2,-1,5,6
-2,-6,-3,4,0,-5,4,0,-2,-1,6,6
-3,-7,-4,4,0,-5,4,0,-2,-1,6,6
-4,-8,-4,5,0,-6,3,-1,-2,-2,5,6
-4,-9,-4,6,0,-6,3,-1,-2,-2,5,6
-5,-10,-4,7,-1,-7,3,-1,-2,-2,5,6
-6,-10,-5,8,-1,-7,3,-1,-2,-2,5,5
-6,-10,-5,8,-1,-7,3,-1,-2,-2,5,5
-6,-10,-5,8,0,-7,3,-1,-2,-2,5,5
-5,-9,-5,7,0,-7,4,0,-2,-2,5,5
-3,-8,-5,5,1,-7,4,0,-2,-2,5,5
-2,-7,-6,4,2,-7,4,0,-2,-2,5,5
-2,-7,-6,4,2,-7,4,0,-2,-2,5,5
-2,-8,-6,5,2,-7,4,0,-2,-2,5,5
-3,-8,-6,5,1,-7,4,0,-2,-2,6,5
-4,-9,-6,6,1,-7,4,1,-2,-1,6,5
-5,-10,-5,7,0,-7,4,1,-2,-1,6,4
-5,-11,-6,8,0,-8,4,1,-2,-2,6,3
-6,-11,-6,8,0,-9,4,0,-2,-2,6,3
-6,-11,-5,8,0,-8,4,1,-2,-2,6,3
-5,-10,-5,7,0,-7,4,2,-1,-2,7,4
-4,-9,-5,6,1,-7,5,3,-1,-2,7,4
-3,-8,-6,5,1,-7,5,3,-1,-2,7,4
-3,-8,-6,6,1,-7,5,2,-1,-2,7,4
-3,-8,-6,6,1,-7,5,2,-1,-2,7,4
-3,-8,-5,5,1,-6,5,3,-1,-1,8,4
-3,-7,-5,5,1,-6,5,3,0,-1,8,4
-4,-8,-5,5,1,-7,5,3,-1,-1,8,4
-5,-9,-5,6,0,-7,5,3,-1,-1,8,4
-4,-8,-5,6,0,-6,5,4,-1,-1,8,4
-3,-7,-5,5,1,-6,5,4,-1,-1,9,4
-2,-6,-5,4,1,-5,6,5,0,0,9,5
-1,-6,-5,3,1,-5,7,5,0,0,9,5
-1,-6,-5,3,1,-5,7,5,0,0,9,5
-2,-6,-5,4,1,-6,6,5,0,0,9,5
-3,-7,-4,5,0,-6,6,6,0,0,9,5
-4,-8,-3,5,-1,-6,7,6,1,0,9,5
-4,-7,-3,5,0,-6,7,7,1,0,9,5
-4,-7,-4,5,0,-6,6,7,0,0,9,5
-3,-7,-4,5,0,-6,6,7,0,0,8,4
-2,-6,-5,4,0,-6,6,7,0,0,8,4
-1,-5,-5,3,1,-5,6,7,0,0,8,4
0,-4,-5,2,1,-5,7,8,0,0,9,4
-1,-4,-4,3,1,-4,7,8,1,0,9,5
-2,-5,-4,4,0,-5,7,9,1,0,9,5
-3,-6,-4,4,0,-5,7,9,1,0,9,5
-4,-6,-3,5,-1,-5,7,9,1,0,9,5
-4,-6,-2,5,-2,-4,8,10,2,1,10,5
-4,-6,-2,5,-2,-3,8,11,2,1,10,5
-4,-5,-2,4,-2,-3,8,12,3,1,10,5
-2,-4,-2,3,-1,-2,8,12,3,1,10,5
-2,-4,-3,3,0,-3,8,13,3,1,10,5
-3,-5,-3,3,0,-3,8,13,3,1,10,5
-2,-4,-3,3,0,-3,9,13,3,1,10,5
-1,-3,-3,2,0,-3,9,14,3,1,10,5
-1,-3,-2,1,0,-2,10,15,4,2,11,5
-1,-2,-1,1,-1,-2,11,16,4,2,11,5
-1,-2,-1,1,-1,-1,11,17,4,2,11,5
-2,-2,0,1,-1,-1,11,18,4,2,11,5
-2,-2,0,2,-1,-1,11,18,5,2,11,5
-1,-1,0,1,-1,-1,11,19,5,3,12,6
0,0,0,0,0,0,12,20,6,3,12,6
1,0,-1,-1,1,0,12,21,6,3,12,6
1,0,-1,-1,1,-1,12,21,6,3,12,5
1,0,-1,0,0,-1,12,22,6,3,12,5
0,0,-1,0,0,-1,12,23,6,3,13,5
1,0,-1,-1,0,0,13,24,7,3,13,5
1,1,0,-1,0,0,13,25,7,4,13,6
0,2,1,-1,0,2,14,27,8,4,14,6
1,3,2,-2,0,3,15,28,9,5,14,6
1,4,2,-2,0,3,15,29,9,5,14,6
1,3,2,-2,-1,3,15,30,9,5,14,6
1,4,1,-2,-1,3,15,31,9,5,14,6
2,4,1,-3,-1,3,16,32,9,5,14,6
1,4,2,-3,-1,3,16,33,10,5,14,6
1,4,2,-3,-1,4,16,34,10,5,14,6
0,4,2,-3,-1,4,16,35,10,5,14,6
0,4,2,-3,-1,4,16,36,10,5,14,6
1,5,3,-3,-1,4,16,37,11,5,15,6
2,7,4,-5,0,5,16,38,12,6,15,6
3,9,4,-6,0,6,17,39,13,6,16,6
4,10,5,-7,0,7,17,41,13,7,16,6
3,10,5,-7,-1,8,18,42,13,7,16,6
3,11,6,-7,-1,8,18,44,13,7,16,7
3,12,7,-7,-2,10,18,46,14,8,16,8
3,13,8,-8,-2,11,19,47,14,8,17,8
4,13,9,-9,-1,11,19,48,15,9,17,8
4,14,9,-9,-1,12,19,49,16,9,17,8
5,15,10,-10,-2,12,19,51,16,9,17,9
5,16,10,-11,-2,13,19,52,17,9,17,9
6,17,10,-11,-2,13,19,53,17,9,17,9
6,17,10,-12,-2,14,19,54,17,9,17,9
6,18,11,-12,-2,15,19,55,17,10,18,9
6,19,11,-13,-2,15,19,56,18,10,18,9
8,20,11,-14,-1,16,19,57,18,10,18,9
9,21,12,-15,-1,16,19,58,18,10,18,9
8,22,13,-14,-2,17,19,58,19,11,18,9
7,22,14,-14,-3,18,19,59,19,11,18,10
8,24,15,-15,-4,19,19,61,20,11,19,10
9,26,16,-17,-4,21,19,62,20,12,19,11
9,27,17,-18,-4,22,19,63,21,12,20,11
9,28,17,-19,-4,23,19,64,21,12,20,11
10,29,18,-20,-4,23,19,64,21,12,20,12
11,30,19,-21,-4,24,19,65,22,13,21,12
12,33,19,-23,-3,26,19,65,22,14,22,13
13,35,20,-24,-3,27,19,66,23,14,22,13
13,35,21,-23,-4,28,18,66,23,14,22,13
12,35,22,-23,-5,29,17,66,23,14,22,13
11,35,22,-23,-6,29,16,65,22,14,22,13
11,35,23,-23,-6,29,15,65,22,14,22,13
10,35,23,-22,-7,29,14,64,21,14,22,13
9,35,25,-22,-8,30,14,63,21,14,22,13
8,36,26,-22,-8,31,13,62,21,14,23,13
8,37,27,-22,-9,32,13,60,21,14,23,14
8,37,28,-23,-9,32,12,58,21,14,23,14
8,37,28,-23,-10,33,11,56,21,14,23,14
8,37,28,-22,-10,33,10,54,21,14,23,14
8,37,28,-22,-10,33,9,52,20,14,23,14
7,36,28,-22,-11,32,8,50,20,13,23,14
5,35,29,-20,-12,32,7,47,19,13,23,14
4,34,29,-20,-12,32,7,45,19,13,24,14
6,35,28,-20,-11,32,6,43,18,13,24,14
8,35,27,-21,-9,31,6,40,17,13,23,14
9,35,25,-22,-8,30,5,38,17,13,23,14
9,34,25,-22,-8,30,5,36,17,13,23,14
8,33,24,-21,-8,29,4,34,16,12,23,14
7,32,24,-20,-8,29,4,32,16,12,23,14
4,30,24,-17,-9,27,4,30,15,11,22,13
3,27,23,-15,-9,25,3,27,13,10,22,13
2,26,22,-14,-9,24,3,25,12,10,22,12
0,24,22,-12,-10,23,3,23,12,9,22,12
0,22,20,-11,-9,21,2,21,11,9,21,11
1,20,17,-10,-8,19,1,19,10,8,20,10
2,19,15,-10,-7,17,1,17,9,7,19,10
2,18,14,-10,-6,16,1,16,8,7,19,10
3,17,13,-10,-5,15,1,15,8,6,19,10
2,16,13,-9,-5,14,0,13,7,6,18,10
1,13,12,-7,-5,12,0,11,5,5,18,9
0,11,11,-5,-5,11,0,10,4,4,17,9
-1,9,10,-4,-5,9,0,8,4,4,17,8
-1,8,8,-4,-4,8,-1,7,3,3,16,8
-1,7,7,-3,-4,7,-1,6,3,3,16,7
-1,5,6,-2,-4,6,-1,5,2,2,15,7
-1,5,5,-2,-3,5,-1,4,2,2,15,6
0,5,4,-2,-1,4,-1,3,1,1,14,6
1,4,3,-2,0,4,-1,3,1,1,14,6
0,3,3,-1,0,3,-1,2,0,0,14,6
-2,1,2,0,-1,2,-1,0,0,0,13,5
-4,-1,2,2,-2,1,-2,0,0,0,13,5
-5,-2,1,3,-3,0,-2,-1,-1,-1,12,4
-4,-3,0,3,-2,-1,-2,-1,-1,-1,12,4
-3,-2,0,3,-2,-1,-2,-2,-2,-1,11,4
-2,-2,-1,2,-1,-1,-2,-2,-2,-1,11,4
-1,-1,-1,1,0,-1,-2,-2,-2,-1,12,4
0,0,-1,1,0,-1,-2,-2,-2,-1,12,4
-1,-2,-2,1,0,-2,-2,-3,-2,-2,11,3
-2,-3,-2,2,0,-3,-2,-3,-2,-2,11,3
-2,-4,-3,3,0,-3,-2,-3,-2,-2,11,3
-2,-5,-3,3,0,-3,-2,-4,-3,-2,11,3
-3,-6,-3,4,-1,-3,-2,-4,-3,-2,10,3
-4,-5,-2,5,-1,-3,-2,-4,-3,-2,10,3
-2,-5,-3,4,0,-3,-3,-4,-4,-2,10,2
-1,-4,-4,3,0,-4,-3,-4,-5,-2,10,2
-2,-4,-3,3,0,-3,-3,-4,-4,-2,10,2
-2,-4,-3,3,0,-3,-3,-4,-4,-2,11,2
-2,-5,-3,4,0,-4,-3,-4,-4,-2,10,2
-2,-6,-4,4,0,-4,-3,-4,-4,-2,10,2
-1,-5,-4,3,0,-4,-2,-4,-4,-2,11,2
-1,-4,-4,3,0,-4,-2,-4,-4,-2,10,2
-2,-5,-4,3,0,-4,-2,-4,-4,-2,10,1
-3,-6,-3,5,0,-4,-2,-5,-5,-3,10,1
-4,-7,-3,6,-1,-5,-2,-5,-5,-3,10,1
-3,-7,-4,5,0,-5,-3,-5,-5,-3,10,1
-2,-7,-5,5,0,-6,-3,-5,-5,-3,10,1
-2,-7,-5,4,0,-5,-3,-5,-5,-3,10,1
-3,-7,-4,5,0,-5,-3,-5,-5,-3,10,0
-5,-9,-4,7,-1,-6,-3,-6,-5,-4,9,0
-6,-10,-4,7,-1,-6,-3,-6,-6,-4,9,0
-4,-8,-5,5,0,-6,-3,-6,-5,-3,9,0
-1,-5,-5,3,2,-5,-2,-5,-4,-3,10,0
0,-4,-5,2,2,-5,-2,-5,-4,-2,10,0
0,-4,-4,2,2,-4,-2,-4,-3,-2,10,1
-1,-4,-3,2,1,-4,-2,-4,-3,-2,11,1
-2,-4,-3,3,0,-4,-2,-4,-3,-2,11,1
-2,-5,-3,3,0,-4,-2,-4,-3,-2,11,0
-3,-5,-4,4,0,-5,-2,-4,-3,-2,11,0
-3,-6,-4,4,0,-5,-2,-4,-2,-2,10,0
-4,-7,-4,5,0,-6,-2,-4,-2,-2,10,0
-4,-7,-4,5,0,-6,-2,-4,-2,-2,10,0
-3,-7,-4,4,0,-5,-2,-3,-2,-2,10,0
-3,-6,-3,4,0,-4,-1,-3,-1,-2,11,0
-2,-5,-2,4,0,-3,-1,-3,-1,-2,11,0
-1,-5,-3,3,0,-4,-1,-3,-1,-2,11,0
-1,-5,-4,3,0,-4,-1,-3,-1,-2,11,0
-2,-5,-4,3,0,-4,-1,-2,-1,-1,12,0
-2,-5,-4,3,0,-4,-1,-2,-1,-1,12,0
-3,-5,-4,4,0,-4,-2,-2,-1,-1,11,0
-3,-6,-4,4,0,-5,-2,-3,-2,-2,11,-1
-2,-6,-5,5,0,-5,-3,-4,-2,-3,10,-1
-2,-6,-5,5,0,-5,-3,-4,-2,-3,10,-2
-2,-6,-5,5,0,-5,-3,-4,-2,-3,11,-2
-3,-6,-4,5,0,-5,-2,-3,-2,-2,11,-1
-3,-6,-4,4,0,-5,-2,-3,-2,-2,11,-1
-2,-5,-4,3,0,-4,-1,-2,-2,-1,11,-1
-3,-6,-4,4,0,-4,-1,-2,-2,-1,11,-1
-4,-7,-3,5,-1,-5,-2,-3,-2,-2,11,-1
-5,-8,-3,6,-1,-5,-2,-3,-2,-2,11,-1
-4,-7,-3,6,-1,-5,-2,-3,-2,-2,11,-1
-3,-6,-3,4,0,-4,-2,-2,-1,-2,12,-1
-1,-4,-4,3,0,-4,-1,-2,-1,-2,12,0
-1,-4,-4,2,0,-4,-1,-2,-1,-1,12,0
-2,-4,-3,3,0,-4,-1,-2,-2,-1,12,0
-2,-5,-3,3,0,-4,-1,-2,-2,-1,12,-1
-2,-6,-4,4,0,-4,-1,-2,-2,-1,12,-1
-2,-6,-4,4,0,-4,-1,-2,-2,-1,12,-1
-2,-6,-4,4,0,-4,-1,-2,-2,-1,12,-1
-2,-6,-4,4,0,-4,-1,-2,-2,-1,12,-1
-2,-6,-4,4,0,-4,-1,-2,-2,-1,12,-1
-2,-6,-4,5,-1,-5,-1,-2,-2,-2,11,-1
-3,-6,-4,5,-1,-5,-2,-2,-2,-2,11,-1
-2,-6,-5,4,0,-5,-2,-2,-2,-2,11,-1
-1,-6,-5,3,0,-5,-1,-2,-2,-2,11,-1
-1,-5,-4,3,0,-4,-1,-1,-2,-1,12,0
0,-4,-4,2,0,-3,-1,-1,-2,-1,12,0
0,-4,-4,2,0,-3,-1,-1,-1,-1,12,0
0,-4,-4,2,1,-4,-1,-1,-1,-1,12,0
-1,-4,-4,3,1,-4,-1,-1,-2,-1,12,-1
-1,-5,-4,3,0,-4,-1,-1,-2,-1,12,-1
-2,-6,-4,4,0,-4,-1,-2,-2,-1,12,-1
-3,-7,-3,5,-1,-4,-2,-2,-2,-1,11,-2
-3,-7,-4,5,-1,-4,-2,-2,-2,-1,11,-2
-2,-6,-4,4,0,-4,-1,-2,-2,-1,11,-1
-3,-6,-3,4,-1,-4,-1,-2,-2,-1,12,-1
-3,-6,-3,5,-1,-4,-2,-2,-2,-1,11,-1
-2,-6,-4,5,0,-5,-2,-3,-3,-2,11,-2
-1,-6,-5,4,1,-5,-2,-3,-3,-2,11,-2
-2,-6,-4,4,0,-4,-2,-2,-3,-1,11,-2
-2,-6,-4,4,0,-4,-2,-2,-3,-1,11,-2
-1,-5,-4,3,0,-3,-2,-2,-2,-1,12,-1
-1,-4,-4,2,0,-3,-2,-2,-2,-1,12,-1
-1,-4,-4,2,0,-3,-2,-2,-2,-1,12,-1
-1,-4,-4,2,0,-3,-2,-2,-2,-1,12,-1
0,-3,-4,1,0,-3,-1,-2,-1,-1,13,-1
0,-2,-4,0,1,-2,-1,-1,-1,0,13,0
1,-2,-4,0,1,-3,-1,-1,-1,0,13,0
0,-3,-5,0,1,-3,-1,-2,-2,-1,12,-1
0,-4,-5,1,1,-4,-2,-2,-2,-1,12,-1
0,-5,-5,2,1,-4,-2,-3,-1,-1,12,-2
-1,-5,-4,2,1,-4,-2,-3,-1,-1,12,-2
-2,-5,-4,3,0,-4,-3,-3,-1,-1,12,-2
-3,-7,-4,5,0,-4,-3,-3,-1,-2,11,-2
-5,-8,-4,6,-1,-5,-3,-3,-1,-2,11,-3
-5,-7,-4,5,-1,-5,-3,-3,-1,-2,11,-3
-4,-7,-4,5,-1,-4,-3,-3,-1,-2,12,-2
-4,-7,-4,4,-1,-5,-3,-3,-1,-2,12,-2
-3,-7,-4,4,0,-5,-3,-4,-1,-2,12,-3
-4,-7,-4,5,-1,-5,-3,-4,0,-2,12,-3
-5,-6,-2,5,-2,-4,-2,-4,0,-1,12,-2
-5,-6,-2,5,-2,-4,-2,-4,0,-1,12,-2
-4,-6,-3,4,-1,-4,-3,-4,1,-2,12,-3
-3,-5,-3,4,-1,-3,-3,-3,1,-2,12,-3
-2,-4,-3,3,0,-3,-2,-3,2,-1,13,-2
-2,-5,-4,4,0,-3,-2,-3,2,-1,13,-3
-4,-7,-4,6,-1,-4,-3,-4,2,-2,12,-3
-5,-8,-4,7,-2,-5,-4,-5,1,-3,11,-4
-4,-7,-4,6,-2,-4,-3,-5,1,-3,11,-3
-3,-5,-4,4,-1,-4,-3,-4,2,-3,12,-3
-2,-5,-4,4,-1,-3,-3,-4,2,-3,12,-3
-3,-5,-3,4,-1,-3,-3,-4,2,-3,11,-3
-3,-5,-3,4,-1,-3,-3,-4,2,-2,11,-3
-2,-5,-3,3,-1,-3,-2,-4,2,-2,12,-2
-2,-4,-3,3,-1,-3,-2,-4,2,-2,12,-2
-3,-5,-3,4,-1,-3,-3,-4,2,-2,11,-3
-3,-6,-3,4,-1,-4,-3,-5,1,-3,11,-3
-3,-6,-3,4,-1,-4,-2,-4,1,-2,11,-3
-3,-5,-3,4,-1,-3,-2,-4,1,-2,12,-2
-3,-5,-3,4,-1,-3,-2,-4,1,-2,12,-2
-3,-6,-3,4,-1,-4,-3,-4,1,-2,12,-2
-3,-5,-3,4,-1,-3,-3,-4,1,-1,12,-2
-2,-4,-3,3,-1,-3,-2,-4,2,-1,13,-1
-3,-4,-3,4,-1,-3,-2,-4,2,-1,13,-2
-3,-5,-3,4,-1,-3,-2,-4,1,-1,13,-2
-3,-5,-3,4,-1,-3,-3,-4,1,-2,13,-2
-3,-6,-3,5,-1,-4,-3,-5,0,-2,12,-3
-4,-7,-4,5,-1,-4,-3,-5,0,-2,12,-3
-4,-7,-3,5,-1,-4,-3,-5,1,-2,12,-2
-4,-7,-3,5,-1,-4,-3,-5,1,-2,12,-2
-4,-6,-3,5,-1,-4,-3,-5,2,-2,12,-2
-4,-6,-3,5,-1,-4,-3,-5,1,-2,12,-2
-4,-7,-4,5,-1,-5,-4,-6,1,-3,11,-3
-4,-7,-5,5,-1,-5,-4,-6,0,-4,11,-3
-3,-6,-5,4,0,-5,-3,-5,0,-3,12,-3
-1,-5,-5,2,0,-4,-3,-5,1,-3,12,-2
0,-4,-4,1,1,-3,-2,-5,2,-2,12,-2
-1,-4,-3,2,0,-3,-2,-5,2,-2,12,-2
-2,-4,-3,2,0,-3,-2,-5,2,-2,12,-2
-2,-4,-3,3,0,-3,-2,-5,2,-2,12,-2
-2,-5,-4,4,-1,-4,-2,-5,1,-2,12,-3
-3,-5,-3,4,-1,-4,-2,-5,1,-2,12,-3
-4,-5,-3,4,-1,-4,-2,-5,1,-2,13,-3
-3,-6,-4,4,-1,-4,-2,-5,0,-2,13,-3
-3,-6,-5,4,0,-5,-3,-6,0,-3,12,-3
-4,-7,-5,5,-1,-5,-4,-6,-1,-3,11,-4
-5,-8,-4,6,-2,-6,-5,-7,-2,-3,11,-4
-5,-8,-4,7,-2,-5,-4,-7,-2,-3,11,-4
-5,-8,-4,7,-2,-5,-4,-6,-2,-3,11,-4
-6,-9,-4,7,-2,-6,-4,-6,-2,-3,11,-4
-6,-8,-4,7,-2,-5,-3,-6,-1,-3,11,-4
-5,-7,-3,6,-2,-4,-2,-5,0,-1,12,-3
-4,-6,-3,5,-1,-4,-2,-4,0,-1,13,-2
-4,-6,-3,5,-2,-3,-2,-4,0,-1,13,-2
-5,-6,-2,5,-2,-3,-2,-4,0,-1,13,-2
-4,-6,-3,5,-1,-3,-2,-5,0,-1,13,-2
-2,-5,-4,4,0,-3,-2,-5,-1,-1,13,-2
-2,-5,-4,3,0,-3,-2,-6,-1,-1,13,-2
-3,-6,-4,4,0,-3,-2,-6,-1,-1,12,-2
-4,-7,-4,5,-1,-3,-3,-6,-1,-2,12,-3
-5,-8,-4,6,-1,-4,-3,-7,-2,-2,11,-3
-5,-8,-3,6,-2,-4,-3,-7,-2,-2,11,-4
-4,-7,-3,5,-1,-4,-3,-6,-2,-2,11,-4
-3,-6,-3,4,-1,-4,-2,-6,-1,-2,12,-3
-3,-5,-3,4,-1,-4,-2,-6,-1,-2,12,-3
-2,-5,-4,3,-1,-4,-2,-6,-1,-2,12,-3
-1,-5,-4,2,0,-3,-2,-6,-1,-2,12,-3
0,-4,-4,2,0,-3,-2,-5,-1,-2,12,-2
0,-4,-4,2,0,-3,-2,-5,-1,-2,12,-2
-1,-4,-4,2,0,-3,-2,-5,-1,-2,12,-2
-2,-5,-3,3,0,-4,-2,-5,-1,-2,12,-2
-3,-6,-4,4,-1,-5,-2,-6,-1,-3,12,-3
-3,-6,-5,5,-1,-5,-3,-6,-2,-3,12,-3
-4,-7,-4,5,-1,-5,-3,-6,-1,-3,12,-3
-5,-7,-3,6,-2,-5,-3,-7,-1,-3,12,-3
-6,-8,-3,7,-3,-5,-3,-7,-1,-3,12,-4
-6,-8,-3,7,-3,-5,-3,-7,-1,-3,12,-4
-6,-7,-3,6,-3,-5,-3,-7,-1,-3,12,-4
-5,-6,-2,6,-3,-4,-3,-7,-1,-2,12,-3
-4,-5,-2,4,-2,-3,-3,-7,-1,-2,12,-3
-3,-5,-3,3,-1,-3,-3,-7,-1,-2,12,-3
-3,-5,-3,3,-1,-3,-3,-7,-1,-2,12,-3
-3,-5,-3,4,-2,-3,-3,-7,-1,-3,12,-3
-3,-5,-3,4,-2,-3,-3,-7,-2,-3,12,-3
-3,-5,-3,3,-2,-3,-3,-7,-2,-3,12,-4
-3,-6,-3,4,-2,-3,-3,-7,-2,-3,12,-4
-4,-6,-3,5,-2,-3,-3,-7,-2,-3,11,-5
-4,-6,-3,5,-2,-4,-3,-7,-2,-3,11,-5
-4,-6,-4,5,-2,-4,-3,-7,-2,-3,10,-5
-4,-6,-4,5,-2,-4,-3,-7,-2,-3,11,-5
-4,-6,-3,5,-2,-4,-3,-7,-2,-2,12,-4
-4,-6,-3,5,-2,-3,-2,-7,-1,-2,12,-4
-4,-6,-3,5,-2,-3,-2,-7,-1,-2,12,-4
-4,-6,-3,5,-2,-3,-3,-7,-1,-2,12,-4
-4,-6,-3,5,-2,-4,-3,-7,-2,-2,12,-5
-4,-6,-3,5,-2,-4,-3,-8,-2,-2,11,-5
-5,-7,-3,6,-2,-4,-3,-8,-2,-2,11,-5
-5,-6,-2,5,-3,-3,-3,-7,-2,-2,12,-4
-4,-5,-2,4,-2,-3,-3,-7,-2,-2,12,-4
-2,-4,-3,3,-1,-3,-3,-7,-2,-2,12,-4
-1,-4,-3,2,0,-3,-3,-7,-2,-2,12,-4
-1,-4,-3,3,-1,-3,-3,-7,-1,-2,12,-4
-4,-5,-3,4,-2,-3,-3,-7,-1,-2,12,-4
-5,-6,-2,5,-3,-3,-3,-7,-1,-2,11,-4
-5,-6,-2,5,-2,-3,-3,-7,-1,-2,11,-4
-4,-5,-2,4,-2,-3,-3,-7,-1,-2,11,-4
-5,-6,-2,5,-3,-3,-3,-7,-1,-2,11,-4
-6,-7,-2,6,-3,-4,-3,-8,-2,-3,11,-5
-6,-7,-2,6,-3,-4,-3,-8,-2,-3,11,-5
-6,-7,-2,6,-3,-4,-3,-8,-2,-3,11,-5
-6,-7,-2,6,-3,-4,-4,-8,-2,-3,11,-5
-6,-6,-2,6,-3,-3,-4,-8,-1,-2,11,-5
-5,-5,-1,5,-3,-3,-3,-7,-1,-2,11,-5
-4,-4,-1,4,-2,-2,-3,-7,-1,-2,11,-5
-3,-3,-1,3,-1,-2,-3,-7,-1,-1,12,-4
-2,-2,-1,2,-1,-2,-2,-6,-1,-1,12,-4
-3,-2,0,2,-2,-1,-2,-6,-1,-2,12,-4
-3,-2,0,2,-2,-1,-2,-6,-1,-2,12,-4
-4,-3,-1,3,-3,-1,-2,-6,-1,-2,12,-4
-5,-4,-2,4,-3,-2,-3,-7,-2,-2,11,-4
-5,-6,-2,6,-3,-4,-4,-7,-2,-3,11,-5
-6,-7,-2,7,-3,-4,-4,-7,-2,-3,11,-5
-5,-7,-2,6,-2,-4,-4,-7,-2,-2,11,-4
-4,-6,-2,5,-2,-3,-3,-7,-1,-2,12,-4
-3,-5,-2,4,-1,-3,-3,-7,-1,-1,12,-3
-3,-5,-3,3,-1,-3,-3,-7,-1,-1,12,-3
-3,-5,-3,3,-1,-3,-2,-7,0,-1,13,-3
-3,-4,-3,3,-1,-2,-2,-6,0,-1,13,-3
-4,-5,-2,4,-2,-2,-2,-6,0,-1,12,-3
-5,-6,-2,6,-3,-3,-2,-6,-1,-1,12,-3
-7,-8,-2,7,-3,-4,-3,-7,-1,-2,11,-4
-6,-9,-3,7,-2,-5,-4,-8,-2,-3,11,-5
-5,-9,-4,7,-2,-6,-4,-8,-3,-3,11,-5
-5,-8,-3,6,-2,-5,-4,-8,-2,-3,11,-5
-5,-7,-2,6,-3,-4,-3,-7,-2,-2,12,-4
-5,-6,-2,5,-3,-3,-3,-7,-1,-2,12,-3
-5,-5,-1,5,-3,-3,-3,-7,-1,-1,12,-3
-5,-5,-1,5,-3,-3,-3,-6,-1,-1,12,-3
-6,-6,-2,6,-3,-4,-3,-7,-1,-2,12,-3
-6,-8,-2,7,-3,-4,-3,-7,-1,-2,12,-3
-7,-8,-1,7,-3,-4,-3,-7,-1,-2,12,-3
-7,-8,-1,7,-3,-4,-3,-7,-1,-2,12,-4
-6,-7,-2,6,-2,-4,-3,-7,-1,-2,12,-4
-4,-5,-2,5,-1,-4,-3,-7,-1,-1,12,-4
-2,-4,-2,3,-1,-3,-2,-6,-1,-1,12,-4
-2,-4,-2,3,-1,-2,-2,-6,0,-1,13,-4
-4,-5,-2,5,-2,-3,-3,-6,-1,-1,12,-4
-5,-6,-2,5,-2,-3,-3,-6,-1,-1,12,-4
-5,-5,-1,5,-2,-3,-2,-6,0,-1,13,-4
-5,-5,-1,5,-2,-3,-2,-6,0,-1,13,-4
-5,-6,-2,5,-2,-3,-3,-7,-1,-1,12,-4
-5,-7,-2,5,-2,-4,-3,-7,-1,-1,12,-4
-5,-6,-2,5,-2,-4,-3,-7,0,-1,12,-4
-4,-5,-2,4,-1,-4,-2,-7,0,-1,12,-4
-3,-5,-2,4,-1,-3,-2,-7,0,-1,13,-4
-3,-4,-2,3,-2,-3,-2,-7,0,-1,13,-4
-4,-4,-2,4,-2,-3,-2,-7,0,-1,13,-4
-4,-5,-2,4,-2,-3,-2,-7,0,-1,12,-4
-4,-5,-1,4,-2,-3,-2,-6,0,-1,12,-4
-4,-5,-1,4,-2,-3,-2,-6,0,-1,12,-4
-5,-6,-1,5,-3,-3,-3,-6,-1,-2,12,-4
-5,-7,-1,6,-3,-4,-3,-6,-1,-2,12,-4
-5,-6,-1,6,-2,-4,-2,-6,-1,-2,12,-4
-5,-7,-2,6,-2,-4,-2,-7,-1,-2,11,-4
-6,-8,-2,7,-3,-5,-2,-7,-1,-2,11,-5
-7,-7,-1,7,-3,-4,-2,-7,-1,-2,11,-4
-5,-6,0,5,-2,-3,-2,-7,0,-1,12,-4
-3,-4,-1,3,-1,-2,-1,-6,0,0,12,-3
-1,-2,-1,2,0,-2,-1,-6,0,0,12,-3
-2,-3,-2,2,0,-2,-2,-6,0,0,12,-4
-4,-5,-2,5,-1,-3,-2,-7,0,-1,12,-4
-6,-7,-2,7,-2,-4,-3,-7,0,-1,12,-5
-8,-8,-2,8,-3,-5,-3,-7,0,-1,12,-5
-9,-9,-1,9,-3,-5,-3,-7,0,-1,12,-5
-8,-8,-1,8,-3,-5,-3,-7,0,-1,12,-5
-6,-7,-2,6,-2,-4,-3,-7,0,-1,12,-4
-4,-5,-2,5,-1,-3,-2,-7,0,-1,12,-4
-4,-5,-1,4,-1,-3,-2,-7,0,-1,13,-4
-4,-5,-1,4,-2,-3,-2,-7,0,-1,13,-4
-4,-4,-1,4,-2,-3,-1,-6,0,0,13,-4
-5,-5,-1,5,-2,-3,-1,-6,0,0,13,-4
-6,-6,-1,6,-2,-3,-1,-6,0,0,12,-4
-6,-6,0,6,-3,-2,-1,-6,0,0,12,-4
-5,-5,0,5,-3,-2,-1,-6,1,0,13,-3
-5,-5,0,5,-3,-2,-1,-6,1,0,13,-3
-5,-5,1,5,-3,-2,-2,-6,1,0,13,-3
-5,-4,2,4,-4,-1,-1,-6,2,1,13,-3
-5,-3,2,4,-4,0,-1,-6,2,1,14,-2
-5,-3,1,4,-3,0,-1,-6,2,1,14,-2
-4,-2,1,3,-3,0,-1,-6,2,1,14,-1
-3,-1,1,2,-2,0,-1,-5,3,1,14,-1
-4,-2,1,3,-2,0,-1,-5,3,1,14,-1
-5,-3,2,4,-4,0,-1,-5,3,1,14,-1
-7,-3,3,5,-5,0,-1,-5,3,2,15,-1
-7,-2,3,4,-6,1,-1,-5,4,2,15,-1
-7,-2,3,4,-5,1,-1,-5,4,2,15,-1
-6,-1,3,3,-5,1,-2,-5,4,2,15,-1
-6,-1,4,3,-5,2,-2,-5,4,3,15,-1
-6,0,5,3,-5,3,-2,-5,4,3,15,-1
-7,-1,6,4,-7,3,-3,-6,4,3,15,0
-8,-1,6,4,-8,4,-3,-6,4,3,15,0
-7,1,7,3,-7,5,-3,-6,4,4,16,0
-4,3,7,0,-5,5,-3,-6,4,4,16,0
-2,4,6,-1,-4,5,-4,-6,4,3,16,0
-2,4,6,-1,-4,5,-5,-7,3,3,15,0
-2,4,6,-1,-4,5,-6,-7,3,3,15,0
-2,4,6,0,-4,5,-6,-8,3,2,15,0
-3,3,5,0,-4,4,-7,-8,2,1,14,-1
-4,2,5,1,-4,4,-7,-9,1,1,13,-1
-2,3,4,-1,-3,4,-6,-9,1,1,14,-1
0,5,4,-2,-2,4,-6,-8,1,1,14,-1
0,5,4,-2,-2,4,-6,-8,1,0,13,-2
-1,4,4,-1,-2,4,-6,-8,1,0,13,-2
-1,4,5,-1,-3,4,-5,-8,1,0,13,-3
-2,3,4,0,-3,4,-5,-8,1,0,12,-3
-2,3,4,0,-3,4,-5,-8,0,0,12,-3
-2,2,4,0,-3,4,-5,-8,0,0,12,-3
-2,2,4,0,-3,4,-5,-8,0,-1,12,-3
-2,1,3,0,-3,3,-5,-8,-1,-1,12,-4
-2,1,3,0,-2,2,-5,-8,-1,-1,12,-4
-2,0,2,1,-2,2,-5,-8,-1,-2,12,-5
-3,0,2,2,-2,1,-5,-9,-2,-2,12,-5
-4,-1,2,3,-3,1,-5,-9,-2,-2,12,-5
-5,-1,2,3,-3,1,-5,-9,-1,-2,12,-4
-4,-1,2,3,-3,1,-4,-9,-1,-1,13,-4
-4,-2,1,3,-3,1,-4,-9,-1,-1,13,-4
-5,-3,1,4,-4,0,-4,-10,-1,-1,12,-5
-6,-4,1,5,-4,-1,-4,-10,-1,-1,12,-5
-7,-5,1,6,-4,-1,-4,-9,-1,-1,12,-5
-6,-6,0,5,-3,-2,-3,-9,-1,-1,12,-5
-5,-6,-1,5,-2,-2,-3,-10,-2,-2,11,-6
-5,-7,-3,5,-1,-3,-3,-10,-2,-2,11,-6
-5,-7,-3,6,-1,-4,-3,-10,-2,-3,10,-7
-7,-8,-3,7,-2,-4,-3,-10,-2,-3,10,-7
-8,-9,-2,8,-3,-4,-4,-10,-3,-3,10,-7
-8,-9,-2,8,-3,-5,-4,-10,-3,-3,10,-7
-8,-9,-2,8,-3,-5,-4,-10,-3,-3,10,-7
-8,-9,-1,8,-3,-4,-3,-10,-3,-3,10,-6
-8,-9,-1,8,-3,-4,-3,-10,-3,-3,10,-6
-8,-9,-2,8,-3,-4,-3,-10,-3,-3,9,-6
-7,-8,-2,8,-3,-4,-2,-10,-3,-3,9,-6
-6,-7,-2,7,-2,-4,-2,-10,-2,-2,10,-6
-5,-7,-3,6,-2,-4,-2,-9,-2,-2,10,-6
-5,-8,-3,7,-2,-5,-2,-9,-2,-2,10,-6
-7,-9,-2,8,-3,-5,-2,-10,-2,-2,10,-6
-10,-11,-1,10,-4,-5,-2,-10,-2,-2,10,-6
-11,-12,-1,11,-4,-6,-2,-10,-2,-2,10,-6
-10,-12,-2,11,-4,-6,-2,-10,-2,-2,9,-6
-10,-12,-3,10,-3,-7,-2,-10,-3,-2,9,-6
-9,-12,-3,10,-3,-7,-2,-10,-3,-2,9,-6
-8,-11,-3,9,-3,-6,-2,-10,-3,-2,9,-6
-7,-10,-3,8,-2,-6,-2,-10,-3,-2,9,-6
-6,-9,-3,8,-2,-6,-2,-10,-3,-2,10,-6
-8,-9,-2,8,-3,-6,-2,-10,-3,-2,10,-5
-9,-10,-1,9,-3,-6,-2,-10,-2,-2,10,-5
-8,-10,-1,9,-3,-6,-2,-10,-2,-2,10,-5
-8,-10,-2,9,-3,-6,-2,-10,-3,-3,9,-5
-9,-11,-2,10,-3,-6,-2,-10,-3,-3,9,-6
-11,-12,-2,11,-4,-7,-2,-10,-3,-3,9,-6
-11,-13,-2,11,-4,-7,-2,-10,-3,-3,9,-6
-9,-11,-2,10,-3,-6,-2,-9,-2,-3,9,-6
-8,-10,-2,8,-3,-6,-2,-9,-2,-2,9,-6
-7,-9,-2,8,-2,-6,-2,-9,-2,-2,9,-6
-6,-8,-3,7,-1,-6,-2,-9,-2,-2,9,-6
-5,-7,-3,6,0,-5,-1,-9,-1,-2,9,-5
-5,-7,-3,6,0,-5,-1,-8,-1,-1,10,-5
-6,-8,-2,8,-2,-4,0,-8,0,0,10,-4
-8,-9,-1,9,-3,-4,0,-8,1,0,11,-4
-10,-10,0,10,-4,-5,0,-8,2,1,12,-3
-11,-11,0,11,-6,-5,2,-8,4,3,14,-2
-12,-11,1,12,-7,-5,5,-7,7,5,16,-1
-12,-10,2,11,-8,-4,10,-4,11,8,18,1
-12,-10,2,11,-8,-4,15,-1,14,10,20,2
-13,-11,2,12,-8,-5,20,1,17,12,20,2
-14,-13,0,13,-7,-6,25,5,19,12,20,2
-14,-15,-2,14,-6,-8,30,8,20,12,18,0
-14,-18,-5,15,-4,-11,34,11,21,11,16,-2
-13,-19,-6,16,-3,-12,35,14,20,9,14,-4
-11,-18,-7,14,-2,-12,35,18,19,7,12,-6
-6,-12,-6,9,0,-9,34,25,17,5,10,-8
2,-3,-5,1,4,-4,30,32,14,2,8,-10
12,8,-4,-9,8,2,23,39,11,0,6,-11
19,20,0,-19,9,10,14,44,7,-1,6,-11
23,33,9,-28,7,21,5,46,5,-1,6,-9
27,47,19,-38,4,34,-5,45,2,-1,7,-7
31,60,28,-46,2,45,-16,41,0,0,8,-5
33,69,35,-52,0,53,-28,34,-1,0,9,-4
33,75,40,-54,-2,58,-38,24,-2,0,11,-2
33,77,42,-55,-4,60,-47,15,-5,0,11,-1
32,74,41,-52,-5,58,-54,7,-10,-2,10,-1
29,68,38,-48,-5,53,-57,3,-15,-4,9,-1
26,60,33,-42,-4,47,-58,0,-19,-6,8,-2
22,50,27,-36,-3,39,-58,-3,-23,-9,7,-3
18,38,20,-28,-1,30,-57,-6,-27,-12,5,-5
14,29,15,-22,0,22,-54,-9,-28,-13,4,-6
11,22,11,-17,0,17,-49,-10,-28,-14,4,-6
8,16,8,-12,0,12,-43,-9,-26,-13,4,-6
5,11,6,-8,0,9,-35,-7,-22,-12,6,-5
4,8,5,-5,0,6,-27,-4,-18,-10,7,-4
3,5,3,-4,0,4,-21,-1,-15,-8,8,-4
2,3,1,-3,0,2,-16,1,-12,-6,9,-3
2,4,1,-3,0,3,-11,5,-8,-4,10,-3
2,5,2,-4,0,4,-7,8,-4,-2,10,-2
1,5,2,-3,0,4,-5,10,-2,-1,11,-2
0,3,2,-1,-1,3,-3,11,-1,0,11,-2
-1,2,2,0,-1,3,-1,10,0,0,11,-2
-1,2,2,0,-2,2,0,8,0,1,12,-2
-2,1,3,1,-2,2,0,7,1,2,12,-2
-4,0,3,2,-4,1,0,6,2,2,12,-2
-6,-2,3,4,-5,1,0,5,2,2,12,-2
-8,-4,2,5,-5,0,0,4,2,2,12,-3
-9,-6,2,7,-5,-1,0,3,1,1,11,-3
-10,-8,1,9,-5,-3,0,2,1,0,11,-4
-9,-8,0,9,-5,-4,1,1,1,0,11,-4
-6,-6,0,7,-3,-3,2,2,2,1,12,-3
-4,-4,0,5,-2,-2,4,2,3,2,13,-3
-5,-4,0,5,-3,-2,4,2,3,2,13,-3
-7,-6,0,7,-4,-3,4,1,3,2,12,-4
-8,-6,0,7,-4,-3,5,2,3,2,13,-3
-7,-6,0,6,-3,-2,5,2,4,3,13,-3
-6,-6,0,6,-2,-3,5,2,4,3,13,-3
-7,-7,-1,7,-2,-4,5,2,3,2,12,-3
-8,-9,0,8,-3,-5,5,1,3,2,12,-3
-9,-10,0,9,-4,-5,5,1,3,2,12,-3
-9,-10,-1,9,-4,-5,5,0,3,2,12,-4
-8,-9,-1,8,-3,-5,5,0,3,2,12,-4
-7,-8,-1,7,-2,-4,5,1,3,2,12,-3
-7,-7,-1,7,-2,-4,5,1,4,2,12,-3
-8,-8,-1,7,-2,-4,5,1,4,2,12,-4
-8,-8,-1,8,-3,-5,5,1,3,2,12,-4
-8,-9,-1,9,-3,-5,5,1,3,2,12,-4
-9,-9,-1,9,-4,-5,5,1,3,1,11,-4
-10,-10,0,10,-5,-5,6,1,3,1,11,-4
-10,-10,0,10,-5,-5,6,1,3,1,11,-4
-9,-9,0,9,-5,-4,6,1,3,1,11,-4
-9,-8,0,8,-4,-4,6,1,3,1,11,-4
-9,-9,0,9,-4,-5,6,1,3,1,11,-4
-9,-10,0,10,-4,-5,6,1,3,1,11,-4
-10,-10,0,10,-4,-5,6,2,3,2,12,-4
-9,-10,0,10,-4,-5,6,2,3,2,12,-4
-8,-9,-1,8,-3,-5,6,2,3,2,12,-4
-7,-8,-1,7,-3,-5,6,2,3,2,11,-4
-7,-8,-1,7,-3,-5,7,2,3,2,11,-4
-7,-7,-1,7,-3,-4,7,3,3,2,11,-4
-7,-7,-1,7,-3,-4,7,3,3,1,11,-4
-6,-7,-1,6,-2,-4,7,3,4,1,11,-4
-5,-6,-1,6,-2,-4,7,3,5,2,12,-3
-5,-6,-1,6,-2,-3,7,3,5,3,12,-3
-6,-6,-1,6,-2,-4,7,3,5,3,12,-3
-6,-6,-1,7,-2,-4,7,3,5,3,12,-3
-7,-6,0,7,-3,-3,7,3,5,3,12,-3
-7,-7,0,7,-3,-3,7,3,5,3,12,-3
-9,-8,0,8,-4,-4,7,4,5,3,12,-3
-9,-8,0,9,-5,-4,7,4,5,3,12,-3
-9,-8,0,8,-4,-3,7,5,5,3,12,-3
-8,-7,0,7,-3,-3,7,5,5,3,12,-3
-8,-7,0,7,-3,-3,8,6,5,3,12,-3
-7,-7,0,7,-3,-3,8,6,5,3,12,-3
-6,-6,0,6,-3,-3,8,6,5,3,12,-3
-5,-6,-1,5,-2,-4,8,6,5,3,11,-3
-5,-7,-1,6,-2,-4,8,6,5,2,11,-4
-6,-7,-1,6,-2,-4,8,6,5,2,11,-4
-6,-7,-1,6,-2,-4,8,6,5,2,11,-4
-6,-7,-1,6,-2,-4,8,7,6,2,11,-4
-6,-6,-1,6,-2,-4,8,7,6,2,11,-4
-6,-7,-1,6,-2,-4,8,7,6,2,11,-4
-8,-8,0,8,-4,-4,8,7,6,2,11,-4
-10,-8,0,9,-5,-4,8,7,6,2,11,-4
-9,-7,0,8,-5,-4,8,8,6,3,11,-3
-6,-5,0,5,-3,-3,9,9,6,3,12,-3
-4,-3,0,3,-2,-2,9,10,7,4,12,-3
-3,-2,0,2,-2,-1,9,10,7,4,12,-3
-4,-2,1,3,-2,-1,9,11,7,4,12,-3
-5,-3,1,4,-2,-1,9,11,7,4,12,-3
-5,-3,0,4,-2,-2,9,11,7,4,12,-3
-6,-4,0,5,-3,-2,10,11,7,4,12,-3
-8,-5,1,6,-4,-2,10,12,7,4,12,-3
-8,-6,2,7,-5,-2,10,13,8,4,12,-3
-6,-5,1,5,-3,-2,10,13,8,4,12,-3
-4,-3,0,4,-2,-2,11,14,8,4,12,-2
-3,-2,0,3,-1,-2,11,14,8,4,12,-2
-3,-2,1,3,-2,-1,11,15,9,5,12,-2
-3,-1,1,3,-2,0,12,16,10,5,12,-2
-2,0,1,1,-2,0,12,17,10,6,13,-1
-1,0,1,0,-2,1,13,18,10,6,13,0
-1,0,1,0,-2,1,13,19,10,6,13,0
-3,-1,1,2,-3,0,12,19,10,6,13,-1
-4,-2,1,3,-3,0,12,20,10,5,12,-2
-4,-2,2,3,-3,0,13,20,10,5,12,-2
-4,-1,2,3,-4,0,13,21,10,5,12,-2
-3,0,3,2,-3,1,14,23,11,6,12,-1
-1,2,2,0,-2,2,14,24,11,6,13,-1
1,4,2,-2,-1,3,14,25,12,7,13,0
1,5,3,-3,-1,3,15,26,12,7,14,0
0,4,3,-2,-1,3,15,27,12,7,13,-1
0,4,3,-2,-1,3,15,28,12,7,13,-1
0,4,3,-2,-2,4,16,29,13,7,13,-1
0,6,4,-3,-2,5,17,31,14,8,14,0
1,7,4,-4,-2,5,17,32,15,8,13,0
1,7,4,-4,-2,5,16,32,15,8,13,-1
0,7,5,-4,-3,6,16,33,15,8,14,-1
0,8,6,-4,-4,7,16,35,16,8,14,0
0,8,7,-4,-4,7,17,36,16,9,14,0
-1,8,8,-4,-5,8,17,37,16,9,14,0
-1,8,9,-3,-5,8,17,38,16,9,14,0
0,9,8,-4,-4,8,17,39,16,9,14,0
1,10,7,-5,-2,8,17,40,16,9,14,0
2,11,7,-6,-2,9,17,41,17,9,14,0
3,12,8,-7,-2,10,17,43,17,9,14,0
4,13,8,-8,-1,11,18,44,18,10,15,1
5,14,9,-9,-1,12,18,46,19,10,15,1
5,15,9,-10,-1,12,19,47,20,11,16,1
5,16,10,-10,-1,13,19,48,21,11,16,2
5,17,10,-11,-1,13,19,49,21,11,16,2
5,18,11,-11,-2,14,19,50,21,12,17,2
4,18,13,-11,-3,15,19,51,21,12,17,2
4,19,14,-11,-4,16,19,52,22,12,18,3
5,20,14,-12,-3,17,18,52,22,12,18,3
7,21,14,-14,-3,18,18,53,22,12,18,3
8,23,15,-15,-3,19,18,55,23,13,18,3
8,25,16,-16,-3,21,19,56,23,13,18,3
8,27,17,-17,-3,22,19,57,24,14,18,4
8,28,18,-17,-4,23,18,58,24,14,18,4
7,28,19,-17,-5,24,18,59,24,14,18,4
8,29,19,-18,-5,24,18,59,24,14,18,4
8,29,19,-18,-5,24,17,59,23,14,18,4
8,29,20,-18,-6,24,16,59,23,14,18,4
7,29,21,-17,-6,25,16,59,23,14,18,4
7,29,21,-17,-6,25,15,59,23,14,18,4
7,29,21,-18,-6,25,14,58,23,14,17,4
6,29,22,-17,-7,25,14,58,23,14,17,4
5,29,23,-17,-8,26,13,57,23,14,18,4
7,31,23,-18,-8,27,13,57,23,15,18,4
10,35,24,-22,-7,29,13,57,24,16,19,6
13,39,25,-25,-6,32,13,57,24,17,20,7
13,39,26,-25,-7,33,12,56,24,17,20,8
11,39,26,-24,-7,33,11,54,24,17,20,8
10,38,26,-23,-7,33,10,52,23,17,21,7
10,38,26,-23,-7,32,9,50,23,17,20,7
10,38,26,-23,-7,32,9,48,22,16,20,7
10,38,27,-23,-7,32,8,46,22,16,20,7
10,37,27,-22,-8,32,8,44,21,16,20,7
9,37,27,-22,-8,31,7,41,20,16,20,7
7,36,28,-21,-9,32,6,39,19,16,21,7
5,36,29,-20,-11,33,6,37,18,16,21,8
4,35,29,-19,-12,32,5,35,18,16,21,8
5,33,27,-18,-11,31,4,32,17,15,21,7
6,32,25,-18,-9,29,3,29,16,15,20,7
5,31,24,-17,-9,27,3,27,16,14,20,6
3,28,24,-15,-10,26,3,25,15,14,19,6
1,26,24,-13,-11,25,2,23,15,13,19,6
1,25,23,-13,-10,24,2,21,14,13,19,6
2,24,21,-13,-9,23,2,19,13,12,18,6
2,23,20,-12,-8,22,2,17,13,12,18,6
2,22,19,-11,-8,21,1,15,12,12,18,6
1,20,18,-9,-8,19,1,13,11,11,17,5
0,18,17,-8,-8,17,1,11,11,11,17,5
-1,16,16,-7,-8,16,0,9,10,10,17,4
-1,14,15,-6,-7,14,0,7,9,10,16,3
-1,13,13,-6,-7,13,0,6,8,8,15,2
-1,11,11,-5,-6,11,-1,4,6,7,14,1
-2,9,10,-3,-6,10,-1,3,5,6,13,1
-2,8,9,-3,-6,9,-1,2,4,6,13,1
-2,8,9,-2,-6,9,-1,1,4,6,13,1
-3,7,9,-2,-6,8,-1,0,4,5,13,1
-3,6,8,-1,-5,6,-1,0,3,5,12,1
-3,5,7,-1,-4,5,-1,-1,2,4,12,0
-3,4,6,0,-4,5,-1,-2,2,4,11,0
-3,3,5,0,-4,4,-1,-3,1,4,11,0
-3,2,4,0,-4,4,-1,-3,1,4,11,0
-3,1,4,1,-3,3,-1,-4,1,3,11,-1
-3,0,3,1,-3,2,-2,-5,0,3,10,-1
-3,0,2,2,-2,1,-2,-5,0,2,9,-2
-3,-1,1,2,-2,0,-2,-6,0,2,9,-2
-2,-1,0,1,-1,0,-2,-6,0,2,9,-2
-1,0,0,0,0,0,-1,-6,0,2,10,-2
-2,0,0,0,0,0,-1,-7,0,3,10,-1
-3,-1,1,2,-1,0,-1,-7,0,2,10,-1
-3,-2,0,3,-1,-1,-1,-8,-1,2,10,-2
-3,-2,0,3,-1,-1,-1,-8,-1,1,9,-2
-2,-3,-1,3,0,-2,-1,-8,-1,1,9,-2
-3,-4,-1,4,0,-2,-1,-8,-1,1,9,-2
-4,-5,-1,4,-1,-3,-1,-8,0,1,9,-3
-4,-5,-1,5,-1,-3,-1,-9,-1,1,9,-3
-3,-5,-2,4,0,-3,-1,-9,-1,1,9,-3
-2,-5,-3,4,0,-4,-1,-9,-1,1,9,-2
-2,-5,-3,4,0,-4,-1,-9,-1,1,9,-2
-2,-5,-3,4,0,-4,-2,-10,-2,1,8,-2
-3,-6,-3,5,0,-4,-2,-10,-2,0,8,-2
-3,-7,-3,5,0,-5,-2,-10,0,0,8,-2
-4,-7,-3,5,0,-5,-2,-10,0,0,8,-2
-3,-6,-4,5,1,-5,-2,-10,0,0,8,-2
-2,-5,-4,3,2,-5,-2,-9,0,0,8,-2
-1,-4,-4,3,2,-5,-2,-9,0,0,8,-2
-2,-5,-4,4,1,-5,-2,-9,0,0,8,-3
-3,-5,-3,5,0,-4,-2,-9,0,0,8,-3
-3,-5,-3,4,0,-4,-1,-9,0,0,8,-3
-3,-5,-3,4,0,-4,-1,-9,0,0,8,-3
-3,-5,-3,4,0,-4,-1,-9,-1,0,8,-3
-4,-6,-3,5,0,-4,-1,-9,-2,0,8,-4
-6,-7,-3,6,-1,-5,-1,-9,-2,0,7,-4
-6,-8,-4,7,0,-6,-2,-9,-2,0,7,-4
-6,-8,-4,7,0,-6,-2,-9,-2,0,7,-4
-6,-8,-4,8,0,-6,-2,-9,-2,0,7,-4
-5,-8,-4,7,0,-6,-2,-9,-2,0,6,-4
-4,-8,-5,7,1,-6,-2,-9,-2,0,6,-4
-3,-7,-5,5,1,-6,-2,-9,-1,0,7,-4
-1,-5,-4,4,2,-4,-1,-8,0,0,8,-3
0,-3,-4,2,2,-3,0,-7,1,1,9,-2
0,-3,-4,2,2,-3,-1,-7,1,1,8,-3
-1,-4,-4,3,2,-4,-1,-8,1,0,8,-3
-1,-4,-5,3,2,-4,-2,-8,1,0,7,-4
-2,-5,-4,4,2,-5,-2,-8,1,0,7,-4
-3,-6,-4,5,1,-5,-1,-8,1,0,7,-4
-4,-6,-3,5,0,-5,-1,-8,1,0,7,-4
-4,-6,-4,5,0,-5,-2,-8,1,0,7,-4
-4,-6,-4,5,0,-5,-2,-8,1,0,7,-4
-3,-6,-4,5,1,-5,-1,-7,1,0,7,-4
-3,-6,-4,5,1,-5,-1,-7,1,0,7,-3
-4,-7,-4,6,1,-6,-1,-7,1,0,7,-3
-4,-7,-4,6,1,-6,-1,-7,0,0,6,-4
-3,-7,-4,5,1,-5,-1,-7,0,0,6,-4
-3,-6,-3,4,1,-5,-1,-7,0,0,6,-3
-2,-4,-3,3,1,-4,-1,-6,1,0,7,-3
-1,-4,-3,3,1,-4,-1,-6,1,0,7,-3
-2,-4,-4,3,1,-4,-1,-7,1,0,6,-3
-2,-5,-4,4,1,-4,-1,-7,1,0,6,-4
-2,-5,-4,4,1,-4,-1,-6,1,0,6,-4
-2,-5,-3,4,1,-4,-1,-6,1,0,6,-4
-2,-4,-3,4,1,-4,-1,-6,1,0,6,-3
-2,-4,-3,3,1,-3,-1,-6,1,0,7,-3
-1,-3,-3,3,1,-3,-1,-6,1,0,7,-3
0,-3,-4,2,2,-3,-1,-6,1,0,7,-3
0,-4,-4,3,2,-4,-1,-7,0,0,7,-4
-1,-5,-4,4,2,-4,-2,-7,0,0,6,-4
-1,-5,-4,4,2,-4,-2,-7,1,0,6,-4
-1,-3,-3,2,2,-3,-1,-6,1,0,6,-4
0,-2,-2,1,2,-2,-1,-6,2,0,6,-3
0,-2,-3,2,2,-3,-1,-7,1,0,6,-4
-1,-3,-3,3,1,-3,-1,-7,0,0,6,-4
-2,-4,-3,3,1,-4,-1,-7,0,0,6,-4
-2,-4,-3,4,1,-4,-1,-7,0,0,6,-4
-2,-4,-3,4,1,-4,-1,-7,0,0,6,-4
-2,-4,-2,3,1,-3,-1,-6,0,0,7,-3
-3,-4,-1,4,0,-2,-1,-6,1,1,7,-3
-3,-4,-2,4,0,-3,-1,-6,0,0,6,-3
-1,-3,-3,3,2,-3,-1,-7,0,0,6,-3
0,-3,-3,2,2,-3,-1,-7,0,0,6,-4
-1,-3,-3,2,2,-3,-1,-7,0,0,6,-4
-1,-4,-3,2,2,-3,-1,-7,0,0,6,-4
-1,-4,-3,2,2,-3,-1,-7,0,0,6,-4
-1,-4,-3,3,2,-3,-2,-7,0,0,5,-4
-3,-5,-3,4,1,-4,-2,-8,0,-1,5,-5
-4,-6,-3,5,0,-5,-3,-8,-1,-2,4,-5
-3,-6,-3,5,0,-4,-3,-8,-1,-1,4,-5
-2,-4,-3,3,1,-3,-2,-8,0,-1,5,-5
0,-3,-3,2,2,-2,-1,-7,0,0,5,-4
0,-3,-2,2,2,-2,-1,-7,0,0,6,-4
-2,-4,-2,3,1,-2,-1,-8,0,0,6,-4
-2,-4,-2,4,1,-3,-2,-8,-1,-1,5,-5
-2,-4,-3,4,1,-4,-2,-8,-1,-1,5,-5
-2,-4,-3,4,1,-4,-2,-8,-1,-1,5,-5
-2,-4,-3,4,1,-4,-2,-9,-1,-1,5,-4
-1,-4,-3,3,1,-4,-2,-9,-1,-1,6,-4
-1,-4,-3,3,1,-4,-2,-9,-1,-1,5,-4
-1,-4,-3,3,1,-4,-2,-9,-1,-1,5,-4
-1,-4,-3,3,1,-4,-2,-9,-1,-1,4,-5
-1,-4,-3,3,1,-4,-2,-9,-1,-1,4,-5
-1,-4,-3,3,1,-4,-2,-9,-1,-1,4,-5
-2,-3,-2,3,1,-3,-2,-9,-1,-1,4,-5
-1,-3,-2,3,1,-3,-2,-9,-1,-1,4,-5
1,-1,-3,1,2,-3,-2,-9,-1,-1,5,-4
2,0,-3,0,3,-2,-2,-9,-1,0,5,-4
1,0,-2,0,2,-2,-2,-9,-1,0,5,-4
-1,-1,-2,2,1,-2,-2,-9,-1,0,5,-4
-2,-3,-1,3,0,-2,-2,-9,-1,0,5,-4
-2,-3,-2,4,1,-2,-2,-9,-1,0,5,-4
-1,-4,-3,3,2,-3,-2,-9,-1,0,5,-4
0,-3,-3,3,2,-3,-2,-10,-1,-1,5,-4
0,-3,-3,2,2,-3,-2,-10,-1,-1,5,-4
0,-3,-4,2,2,-3,-3,-10,-2,-1,5,-4
0,-4,-4,3,2,-4,-4,-11,-2,-2,4,-5
-2,-6,-4,5,1,-5,-4,-12,-3,-3,3,-6
-4,-7,-3,6,0,-5,-4,-12,-3,-2,3,-6
-4,-5,-2,5,0,-4,-3,-11,-2,-1,4,-5
-1,-2,-2,2,1,-2,-2,-10,-1,0,6,-4
1,0,-2,0,2,-1,-1,-9,0,0,6,-3
2,-1,-3,0,3,-2,-2,-9,-1,-1,6,-3
0,-2,-3,1,2,-3,-3,-10,-1,-2,5,-4
-1,-3,-3,3,1,-3,-3,-10,-2,-2,4,-5
-1,-3,-3,3,1,-3,-3,-10,-2,-2,4,-5
0,-3,-3,2,2,-3,-3,-10,-2,-2,4,-5
0,-2,-4,1,2,-3,-3,-10,-2,-2,5,-5
1,-1,-4,1,3,-2,-3,-10,-1,-1,5,-5
1,-1,-3,1,3,-2,-2,-10,-1,-1,5,-4
0,-2,-3,2,2,-3,-3,-10,-1,-2,5,-5
-1,-4,-3,3,1,-4,-3,-11,-2,-2,4,-5
-2,-5,-3,4,1,-4,-3,-11,-2,-2,4,-5
-1,-4,-3,3,1,-4,-3,-10,-1,-2,4,-5
0,-2,-2,2,2,-3,-2,-10,-1,-1,5,-4
-1,-2,-2,2,1,-2,-2,-10,-1,-1,5,-4
-3,-4,-1,4,0,-3,-3,-11,-2,-2,5,-5
-4,-5,-1,5,0,-3,-4,-11,-3,-3,4,-5
-3,-5,-2,5,0,-4,-4,-12,-4,-3,4,-5
-2,-5,-4,4,2,-4,-4,-12,-5,-3,4,-5
-1,-5,-4,4,2,-5,-4,-12,-5,-3,4,-5
-2,-5,-4,4,2,-5,-4,-12,-5,-3,4,-5
-2,-5,-4,4,2,-5,-4,-12,-5,-3,4,-5
-2,-5,-3,4,1,-4,-4,-12,-4,-2,4,-5
-2,-4,-3,4,1,-4,-4,-12,-4,-2,4,-5
-2,-5,-3,5,1,-4,-4,-12,-3,-2,4,-5
-2,-6,-3,5,1,-5,-4,-12,-3,-2,4,-5
-2,-5,-3,4,1,-4,-4,-12,-2,-2,4,-5
0,-4,-3,3,2,-4,-4,-11,-2,-2,4,-5
0,-3,-3,2,2,-3,-3,-11,-2,-2,4,-5
0,-3,-3,2,2,-3,-3,-11,-2,-2,4,-5
0,-3,-3,3,2,-3,-3,-11,-2,-2,5,-5
0,-3,-3,2,2,-3,-3,-11,-2,-2,5,-5
0,-3,-3,2,2,-3,-3,-11,-2,-2,5,-5
0,-3,-3,2,2,-3,-3,-11,-3,-2,5,-5
0,-4,-3,3,1,-4,-4,-12,-3,-2,4,-5
0,-4,-3,3,1,-4,-4,-12,-3,-2,4,-5
0,-3,-2,2,1,-2,-3,-11,-2,-1,5,-4
2,0,-2,0,2,-1,-2,-10,-2,-1,6,-4
4,0,-3,-1,4,-2,-3,-11,-3,-1,6,-4
4,0,-4,-1,4,-2,-3,-11,-3,-1,5,-4
3,-1,-4,0,4,-3,-3,-11,-3,-1,5,-4
1,-2,-4,1,3,-3,-3,-11,-3,-2,4,-4
0,-3,-4,2,3,-3,-3,-11,-3,-2,4,-5
0,-4,-4,2,3,-3,-3,-11,-3,-2,4,-5
1,-4,-4,2,3,-4,-4,-12,-4,-3,4,-5
1,-4,-5,2,4,-4,-4,-12,-4,-3,3,-5
0,-4,-4,3,3,-4,-4,-12,-4,-3,3,-5
-1,-4,-3,3,3,-4,-4,-12,-4,-3,3,-5
-1,-4,-3,3,3,-4,-4,-12,-4,-3,3,-5
-1,-4,-4,3,3,-4,-5,-12,-4,-3,3,-5
0,-4,-4,3,3,-4,-5,-12,-4,-3,3,-5
0,-4,-4,3,3,-4,-5,-11,-3,-3,3,-5
0,-4,-3,3,3,-4,-5,-11,-3,-3,3,-5
0,-4,-3,3,2,-4,-5,-11,-3,-3,3,-5
0,-4,-4,2,2,-4,-4,-11,-3,-3,3,-5
1,-3,-4,2,3,-4,-4,-11,-4,-3,4,-5
1,-3,-4,2,3,-4,-4,-11,-4,-2,4,-5
0,-3,-4,2,2,-4,-4,-11,-4,-2,4,-5
0,-3,-4,2,3,-4,-4,-11,-4,-2,4,-5
0,-3,-4,2,3,-4,-4,-11,-4,-2,4,-5
-1,-4,-3,3,2,-4,-4,-11,-4,-2,4,-5
-1,-4,-3,3,2,-4,-4,-11,-4,-3,4,-5
-1,-5,-4,3,2,-4,-4,-11,-4,-3,4,-6
-1,-4,-4,3,2,-4,-4,-11,-3,-3,4,-6
0,-3,-4,2,2,-4,-4,-11,-3,-2,4,-6
1,-2,-4,1,3,-3,-4,-11,-3,-2,4,-5
1,-2,-4,1,3,-3,-4,-11,-3,-2,4,-5
0,-4,-4,2,3,-4,-5,-11,-3,-3,4,-6
-1,-6,-4,4,2,-5,-5,-12,-4,-3,4,-6
-2,-7,-4,5,1,-5,-5,-12,-4,-4,3,-6
-1,-6,-4,4,2,-4,-4,-12,-4,-3,4,-6
-1,-4,-3,3,2,-4,-4,-11,-4,-3,4,-5
-1,-4,-3,3,1,-3,-4,-11,-4,-3,3,-5
-1,-4,-3,3,1,-3,-4,-11,-4,-4,3,-6
-1,-4,-3,3,2,-4,-5,-11,-4,-4,3,-6
0,-4,-3,3,2,-4,-5,-11,-5,-4,3,-7
-1,-4,-3,3,2,-4,-5,-11,-5,-4,3,-7
-1,-5,-3,3,2,-4,-5,-11,-5,-4,3,-7
0,-5,-3,3,2,-4,-5,-11,-5,-4,3,-7
0,-5,-3,3,2,-4,-5,-11,-5,-4,3,-7
0,-5,-4,3,2,-5,-5,-11,-5,-4,3,-7
0,-5,-5,2,3,-5,-5,-12,-5,-4,3,-7
1,-4,-5,2,3,-4,-5,-12,-5,-4,3,-6
1,-4,-4,2,3,-4,-4,-11,-5,-3,4,-6
1,-3,-4,1,3,-3,-4,-11,-6,-2,4,-6
2,-3,-4,1,4,-3,-4,-11,-6,-2,4,-6
2,-3,-4,1,4,-4,-5,-11,-7,-3,3,-6
1,-4,-4,2,4,-4,-5,-12,-8,-3,3,-6
-1,-5,-4,3,2,-4,-5,-12,-8,-3,3,-6
-2,-5,-3,4,1,-4,-4,-11,-8,-3,3,-6
-1,-4,-3,3,2,-3,-4,-11,-7,-3,3,-6
0,-3,-3,2,3,-3,-4,-11,-7,-2,3,-6
1,-3,-3,2,3,-3,-4,-11,-8,-3,3,-6
1,-3,-3,2,3,-3,-4,-11,-8,-3,3,-6
2,-3,-4,1,3,-3,-4,-11,-8,-3,3,-6
2,-3,-4,1,4,-3,-4,-11,-8,-3,3,-6
1,-4,-4,2,3,-4,-5,-11,-8,-3,3,-6
0,-5,-4,3,3,-4,-5,-12,-8,-4,2,-6
0,-5,-4,3,3,-4,-5,-12,-8,-4,2,-6
0,-4,-4,3,2,-4,-5,-12,-8,-4,2,-6
0,-5,-4,3,2,-4,-5,-12,-8,-4,1,-7
0,-5,-5,3,2,-5,-5,-13,-8,-4,1,-7
0,-4,-5,3,2,-5,-5,-13,-7,-4,2,-7
0,-4,-4,3,2,-4,-4,-12,-7,-4,2,-6
0,-3,-3,3,1,-4,-4,-11,-6,-3,2,-6
0,-3,-3,3,1,-4,-4,-11,-6,-3,2,-6
1,-3,-3,3,2,-4,-4,-11,-7,-3,2,-6
1,-4,-3,3,2,-4,-4,-11,-7,-4,2,-6
1,-4,-3,3,2,-4,-4,-11,-7,-4,2,-6
1,-4,-4,2,2,-4,-4,-11,-7,-4,2,-6
2,-3,-4,2,3,-4,-4,-11,-7,-4,2,-6
1,-3,-4,2,3,-4,-5,-11,-7,-4,2,-6
1,-4,-4,2,3,-4,-5,-12,-8,-4,2,-7
1,-5,-5,3,3,-5,-5,-12,-8,-5,1,-7
1,-4,-5,2,4,-5,-5,-12,-8,-4,1,-7
2,-4,-5,2,4,-4,-5,-12,-8,-4,1,-7
2,-4,-5,2,3,-4,-5,-12,-7,-4,2,-7
2,-3,-5,2,3,-4,-5,-12,-7,-4,2,-6
2,-3,-5,1,4,-4,-5,-12,-7,-3,2,-6
3,-3,-6,1,4,-4,-5,-12,-7,-3,2,-6
3,-3,-6,1,5,-5,-5,-12,-8,-4,1,-7
2,-4,-6,1,5,-5,-5,-12,-8,-4,1,-7
1,-4,-6,2,4,-5,-5,-12,-7,-4,1,-7
1,-5,-5,3,3,-5,-5,-12,-7,-4,1,-7
1,-5,-5,2,3,-5,-4,-12,-7,-4,1,-7
2,-3,-5,1,3,-4,-4,-12,-5,-4,2,-7
3,-2,-5,0,4,-4,-4,-12,-4,-3,2,-6
3,-2,-5,0,4,-4,-4,-12,-3,-3,2,-6
2,-3,-5,1,3,-5,-4,-12,-3,-4,2,-6
1,-4,-5,2,3,-5,-4,-12,-3,-4,2,-6
0,-5,-5,3,3,-5,-4,-12,-3,-3,2,-6
0,-5,-5,3,3,-5,-4,-12,-4,-3,2,-6
0,-7,-6,4,3,-6,-5,-13,-6,-4,1,-7
0,-8,-7,5,3,-7,-6,-13,-7,-5,0,-8
0,-7,-7,4,3,-7,-6,-13,-8,-5,1,-8
0,-6,-6,4,3,-6,-5,-13,-8,-5,1,-8
0,-6,-5,3,3,-5,-5,-12,-8,-4,2,-7
1,-5,-5,2,4,-5,-4,-12,-8,-4,2,-6
4,-3,-6,0,6,-4,-4,-11,-7,-3,2,-6
6,-2,-7,-1,7,-4,-3,-11,-7,-3,2,-6
6,-2,-7,-1,7,-4,-3,-11,-7,-3,2,-6
4,-3,-6,0,5,-4,-4,-12,-7,-3,1,-7
3,-3,-6,1,4,-5,-4,-12,-7,-4,1,-7
2,-4,-6,1,4,-5,-4,-12,-7,-4,1,-7
2,-4,-6,2,4,-5,-4,-12,-7,-4,1,-7
1,-5,-6,2,4,-5,-4,-12,-7,-4,1,-7
1,-5,-6,2,4,-5,-5,-12,-7,-4,1,-7
0,-6,-6,2,4,-6,-5,-12,-6,-4,1,-7
0,-5,-5,2,3,-5,-5,-12,-5,-3,1,-7
1,-4,-5,1,3,-4,-4,-11,-4,-2,2,-6
3,-2,-5,0,4,-4,-3,-11,-3,-2,3,-6
2,-2,-4,0,3,-4,-4,-11,-3,-2,3,-6
1,-2,-3,1,2,-3,-4,-11,-3,-2,3,-6
1,-2,-3,1,2,-3,-4,-11,-3,-2,3,-6
2,-2,-4,0,3,-3,-5,-11,-3,-2,3,-6
3,-1,-3,0,3,-3,-5,-11,-3,-1,3,-5
3,0,-2,-1,2,-2,-4,-11,-2,-1,3,-4
3,0,-1,-1,2,-1,-4,-10,-2,-1,4,-4
3,1,-1,-1,1,0,-4,-10,-2,-1,4,-4
3,2,-1,-2,2,0,-4,-10,-2,-1,4,-4
4,3,-1,-3,2,0,-4,-10,-2,0,4,-4
3,3,-1,-3,2,0,-4,-10,-1,0,4,-4
2,2,0,-2,1,1,-4,-10,-1,0,4,-4
2,2,0,-2,0,1,-4,-10,-1,0,4,-4
4,3,0,-4,1,1,-4,-10,-1,0,4,-3
5,4,0,-4,2,1,-5,-10,-1,0,5,-3
4,4,0,-4,1,1,-5,-10,-1,0,5,-3
3,3,0,-3,1,1,-6,-11,-1,0,5,-3
3,3,0,-2,1,2,-7,-11,-2,0,5,-3
3,5,0,-3,1,3,-8,-11,-2,1,5,-2
6,7,1,-6,2,4,-8,-11,-2,1,6,-2
8,9,0,-8,3,4,-8,-11,-2,1,6,-2
9,9,0,-9,4,4,-8,-11,-2,1,6,-2
9,8,0,-8,4,3,-8,-11,-3,0,5,-2
7,6,0,-6,4,2,-8,-12,-4,-1,4,-3
6,5,0,-5,3,2,-9,-12,-4,-2,3,-4
4,4,0,-3,2,1,-9,-12,-5,-2,3,-4
4,4,-1,-3,2,1,-8,-11,-5,-2,3,-5
6,5,-1,-5,3,1,-8,-11,-5,-2,3,-5
6,5,-1,-5,3,1,-7,-11,-6,-3,2,-5
6,4,-1,-5,3,1,-7,-11,-6,-3,2,-5
6,4,-1,-5,3,1,-7,-11,-6,-3,2,-5
6,3,-2,-5,4,0,-6,-11,-6,-3,2,-5
6,3,-3,-4,4,0,-6,-11,-6,-3,2,-5
5,2,-3,-3,4,0,-7,-11,-6,-3,1,-5
5,2,-4,-3,4,-1,-7,-11,-7,-4,1,-6
5,1,-4,-3,4,-1,-7,-11,-7,-4,0,-6
4,1,-3,-2,3,-1,-7,-11,-7,-4,0,-6
3,0,-3,-1,3,-1,-7,-12,-7,-4,0,-7
3,-1,-4,0,3,-2,-7,-12,-7,-5,0,-7
3,-1,-4,0,4,-3,-7,-13,-8,-5,0,-8
4,-1,-5,-1,4,-3,-7,-13,-7,-5,0,-7
5,-1,-6,-1,5,-3,-6,-12,-7,-5,1,-7
5,-2,-7,-1,6,-4,-6,-12,-7,-5,0,-7
5,-3,-8,0,6,-5,-6,-12,-7,-5,0,-7
4,-4,-8,0,6,-6,-6,-12,-8,-6,0,-8
4,-4,-8,1,6,-6,-6,-12,-8,-6,0,-8
3,-5,-8,1,5,-7,-6,-12,-8,-6,0,-8
3,-6,-8,2,5,-7,-6,-12,-8,-6,0,-8
3,-6,-8,2,6,-8,-6,-12,-8,-6,0,-8
3,-6,-8,2,6,-8,-6,-12,-8,-6,0,-8
2,-6,-8,2,6,-7,-6,-12,-8,-6,-1,-8
2,-7,-9,3,6,-8,-6,-12,-9,-7,-1,-8
2,-8,-10,3,7,-8,-6,-12,-9,-7,-2,-9
3,-8,-12,2,8,-9,-6,-12,-10,-8,-2,-9
3,-9,-12,3,8,-10,-6,-12,-10,-8,-2,-10
2,-8,-10,3,7,-9,-5,-12,-9,-7,-2,-10
2,-7,-9,3,6,-9,-5,-11,-9,-7,-1,-9
3,-7,-9,2,6,-9,-5,-11,-8,-7,-1,-8
2,-7,-9,2,6,-9,-5,-11,-8,-7,-1,-9
2,-7,-9,3,6,-9,-5,-11,-8,-7,-1,-9
1,-7,-9,3,5,-8,-4,-11,-8,-7,-1,-8
1,-7,-9,3,5,-8,-4,-11,-8,-6,0,-8
2,-7,-9,3,5,-8,-4,-11,-8,-6,0,-8
2,-7,-9,3,5,-8,-4,-11,-8,-6,0,-8
2,-8,-9,3,5,-9,-4,-11,-9,-6,-1,-8
1,-8,-9,4,5,-9,-5,-11,-9,-6,-1,-9
1,-8,-9,4,5,-9,-5,-11,-9,-6,-1,-9
1,-7,-9,3,5,-8,-5,-10,-9,-6,-1,-9
2,-6,-9,2,6,-7,-5,-10,-8,-6,0,-8
2,-7,-10,3,6,-8,-5,-10,-8,-6,0,-9
1,-8,-10,4,5,-8,-5,-10,-8,-6,0,-9
2,-8,-10,3,6,-8,-5,-10,-8,-6,0,-9
3,-7,-10,2,6,-8,-4,-10,-8,-6,0,-9
3,-7,-9,2,6,-8,-4,-10,-8,-6,0,-9
2,-8,-9,3,5,-9,-5,-10,-8,-6,0,-9
1,-8,-9,4,5,-9,-5,-10,-8,-6,0,-9
1,-7,-9,3,5,-8,-5,-10,-8,-6,0,-8
3,-6,-9,2,6,-8,-5,-9,-8,-6,0,-8
4,-6,-9,2,6,-8,-5,-9,-8,-6,0,-8
4,-6,-9,1,6,-8,-4,-9,-7,-6,0,-8
4,-6,-9,1,6,-8,-4,-9,-7,-6,0,-8
3,-6,-9,1,5,-7,-4,-9,-7,-5,1,-8
1,-5,-7,1,4,-6,-3,-8,-6,-4,1,-7
0,-5,-6,2,3,-6,-2,-8,-4,-3,2,-6
0,-5,-6,2,3,-6,-1,-8,-3,-1,3,-5
-1,-7,-6,4,2,-7,1,-8,-1,0,4,-5
-4,-9,-5,7,0,-8,4,-7,1,1,5,-5
-8,-11,-3,10,-3,-7,8,-5,4,3,6,-4
-9,-12,-2,11,-4,-7,13,-1,8,5,8,-3
-9,-12,-3,11,-3,-8,19,3,11,6,9,-3
-7,-13,-6,10,-1,-10,25,8,13,7,9,-4
-5,-14,-9,9,1,-12,29,11,15,7,8,-5
-3,-14,-11,8,3,-12,31,15,15,6,6,-6
-1,-13,-12,6,5,-12,31,19,14,4,4,-8
4,-9,-13,2,9,-11,29,24,11,1,1,-11
12,-1,-12,-6,12,-6,24,31,8,-1,-1,-13
20,10,-10,-15,15,0,18,38,5,-4,-3,-14
28,23,-4,-25,16,9,10,44,1,-6,-4,-14
33,37,3,-35,15,20,2,47,-2,-6,-4,-13
37,50,13,-43,12,32,-8,46,-5,-6,-3,-11
39,62,22,-50,9,43,-19,42,-7,-6,-2,-9
41,71,29,-56,6,51,-31,34,-9,-6,0,-7
42,76,34,-59,4,56,-41,24,-11,-5,1,-5
41,77,37,-59,2,57,-50,14,-14,-6,1,-4
39,75,36,-57,1,55,-57,6,-20,-9,0,-5
37,69,32,-53,2,50,-59,2,-25,-12,-2,-6
33,60,27,-47,2,43,-60,0,-29,-14,-3,-7
30,50,20,-40,4,35,-60,-2,-33,-17,-5,-9
27,40,13,-34,7,26,-58,-5,-36,-19,-6,-10
24,32,7,-28,8,20,-55,-6,-37,-20,-7,-10
23,27,4,-24,9,15,-49,-6,-35,-20,-6,-9
22,23,1,-22,10,12,-43,-5,-32,-18,-5,-9
21,20,-1,-20,11,9,-36,-3,-28,-16,-4,-8
19,16,-3,-18,11,7,-28,0,-24,-14,-2,-8
17,13,-3,-16,10,5,-22,2,-20,-12,-1,-7
15,11,-4,-13,9,4,-16,5,-16,-10,0,-7
14,9,-5,-11,9,2,-13,8,-14,-8,0,-7
13,7,-6,-10,9,1,-10,10,-11,-7,0,-7
11,6,-6,-9,8,0,-8,11,-9,-7,0,-7
9,4,-5,-7,7,0,-7,11,-8,-6,0,-7
7,3,-4,-5,5,0,-6,10,-7,-6,0,-7
7,3,-4,-5,5,-1,-5,8,-6,-6,0,-7
7,2,-5,-4,5,-1,-5,7,-6,-5,1,-6
6,2,-4,-3,5,-1,-4,6,-5,-4,2,-6
4,0,-4,-2,4,-1,-4,6,-4,-4,2,-5
3,-1,-4,-1,4,-2,-4,5,-4,-4,2,-5
2,-3,-5,0,4,-4,-4,4,-4,-4,1,-5
2,-3,-6,0,4,-4,-3,4,-4,-4,1,-5
3,-3,-6,0,4,-4,-1,4,-4,-3,1,-5
4,-2,-6,-1,5,-4,0,4,-3,-3,2,-5
4,-3,-6,0,5,-5,0,4,-3,-3,2,-6
3,-4,-6,1,5,-6,0,3,-3,-4,1,-6
2,-5,-7,1,6,-6,0,3,-3,-4,1,-7
3,-5,-7,1,6,-5,0,3,-3,-3,1,-7
3,-5,-8,1,6,-6,0,3,-3,-3,1,-7
4,-5,-10,1,7,-7,0,3,-3,-4,1,-7
4,-6,-10,1,7,-7,0,3,-3,-4,1,-7
3,-7,-9,2,5,-8,1,3,-3,-4,1,-7
2,-7,-8,2,5,-8,1,3,-2,-4,1,-7
2,-6,-8,2,5,-7,2,3,-2,-4,1,-7
3,-6,-8,1,6,-7,2,4,-2,-3,1,-6
2,-7,-8,2,6,-7,1,4,-2,-3,1,-7
0,-8,-8,3,5,-8,1,4,-2,-3,1,-7
-1,-9,-8,4,4,-8,1,4,-2,-4,1,-7
-2,-10,-8,5,3,-8,1,4,-2,-4,0,-8
-2,-10,-8,6,2,-9,1,3,-3,-4,0,-8
-2,-10,-7,6,2,-8,1,4,-2,-4,1,-8
0,-7,-7,3,3,-7,2,5,-2,-4,1,-7
4,-4,-8,0,6,-6,3,6,-1,-3,2,-7
5,-3,-8,-1,7,-6,3,6,-1,-3,2,-7
5,-4,-8,0,7,-6,3,6,-1,-3,1,-7
3,-6,-8,1,6,-6,2,6,-1,-3,1,-7
1,-7,-8,3,5,-6,2,6,-1,-3,1,-7
0,-7,-8,3,4,-7,2,6,-1,-3,1,-7
0,-7,-8,3,4,-7,2,6,-1,-3,1,-7
1,-7,-8,3,5,-8,2,6,-1,-3,0,-7
1,-8,-8,3,5,-8,2,6,-2,-4,0,-7
1,-8,-8,3,5,-8,2,6,-2,-4,0,-8
2,-7,-7,3,5,-7,2,7,-1,-3,0,-7
3,-5,-7,1,5,-6,3,8,0,-2,1,-7
4,-4,-8,0,6,-6,3,9,0,-2,2,-7
4,-4,-8,0,6,-5,4,9,0,-2,2,-7
4,-3,-8,0,6,-5,4,9,0,-2,2,-6
4,-4,-7,0,5,-5,4,9,0,-2,2,-6
3,-4,-7,1,5,-5,4,9,0,-2,2,-7
3,-4,-7,1,5,-5,4,10,0,-2,2,-7
3,-4,-7,1,5,-5,4,10,0,-2,2,-7
4,-3,-7,0,5,-5,4,10,0,-2,2,-7
3,-4,-6,1,5,-5,4,10,0,-2,2,-7
2,-4,-6,1,4,-5,4,11,0,-2,2,-7
2,-5,-6,1,4,-5,4,11,0,-2,2,-7
1,-6,-7,2,4,-6,4,11,0,-2,2,-7
1,-6,-7,2,4,-7,4,11,0,-2,1,-7
0,-6,-6,3,4,-6,4,11,0,-2,1,-7
0,-7,-6,3,4,-6,3,11,0,-2,1,-7
1,-7,-6,3,4,-6,3,12,0,-2,1,-7
2,-5,-6,2,4,-6,4,13,0,-2,1,-7
3,-4,-6,0,5,-5,5,13,1,-1,1,-6
4,-3,-7,0,6,-5,5,14,1,-1,2,-6
5,-2,-7,-1,6,-5,6,14,2,-1,2,-6
5,-2,-7,-1,6,-5,6,15,2,0,3,-6
4,-2,-6,-1,6,-5,6,15,2,0,3,-6
4,-3,-6,0,6,-5,6,16,2,0,3,-6
3,-4,-6,0,5,-5,6,16,2,0,2,-6
2,-4,-6,1,5,-5,6,16,2,0,2,-5
1,-5,-5,1,4,-5,6,17,2,0,2,-5
0,-5,-5,2,3,-5,6,17,2,0,2,-5
0,-5,-5,2,3,-5,7,17,2,0,2,-5
1,-3,-5,1,4,-5,7,18,3,0,3,-5
3,-2,-5,0,5,-4,7,19,3,0,3,-5
3,-2,-5,0,5,-4,7,20,4,0,3,-5
3,-2,-4,0,4,-4,8,20,4,0,3,-5
3,-2,-4,0,4,-3,8,21,4,0,3,-5
2,-3,-4,0,4,-4,8,21,4,0,3,-5
3,-2,-5,0,4,-4,8,22,5,0,3,-5
5,0,-5,-2,5,-3,8,23,6,1,3,-5
6,2,-4,-4,6,-1,9,24,6,1,4,-4
6,3,-2,-4,5,0,9,25,7,2,4,-4
6,3,-2,-4,5,0,10,26,7,2,5,-4
6,3,-2,-4,5,0,10,27,7,2,5,-4
6,3,-2,-4,5,0,10,28,7,2,5,-4
6,3,-2,-4,4,0,11,28,7,3,5,-3
5,2,-2,-4,4,0,11,29,7,3,5,-3
4,1,-2,-3,4,0,11,29,7,3,4,-4
4,1,-2,-2,3,-1,11,30,7,3,4,-4
4,1,-2,-3,4,-1,11,32,8,3,4,-4
5,3,-1,-4,4,0,11,33,8,3,4,-4
6,4,-1,-5,4,1,12,35,9,3,5,-3
6,5,0,-5,4,1,12,36,10,3,5,-3
6,6,0,-6,4,2,13,37,10,4,5,-3
6,6,0,-6,4,2,13,38,10,4,5,-3
6,5,0,-5,4,2,14,38,11,4,5,-3
6,6,0,-6,4,2,14,39,11,4,5,-3
6,7,1,-7,4,3,14,40,12,4,6,-3
7,9,2,-8,3,5,15,42,13,5,6,-2
7,9,2,-8,3,5,15,44,13,5,6,-2
6,9,2,-8,3,5,15,45,12,5,6,-2
6,9,3,-7,2,6,15,46,12,5,6,-2
7,10,3,-8,3,7,15,47,13,5,7,-2
8,11,3,-9,3,7,16,48,14,5,7,-2
9,11,3,-10,3,7,16,49,14,6,7,-2
8,13,5,-10,2,8,16,50,15,6,7,-2
8,13,6,-10,1,9,16,52,16,7,7,-2
7,13,6,-10,1,9,16,52,16,7,7,-2
8,14,6,-11,1,10,16,53,16,7,7,-2
10,16,6,-13,2,11,16,55,16,8,7,-1
12,18,6,-15,3,12,17,56,17,8,8,0
12,19,7,-15,2,13,17,57,18,9,9,0
12,20,8,-16,2,14,17,58,18,9,9,0
12,20,9,-16,2,14,17,59,18,9,9,0
11,20,10,-16,1,15,17,60,18,9,9,0
10,21,11,-16,0,15,17,61,19,9,9,0
11,23,11,-17,0,17,17,63,19,9,9,0
13,25,12,-19,0,18,17,64,20,10,10,0
13,26,13,-19,0,19,17,65,21,10,10,1
13,27,13,-20,0,20,17,66,21,10,10,1
14,28,14,-21,0,21,17,66,21,10,10,1
14,28,15,-21,0,21,17,67,21,11,10,1
14,29,15,-21,0,22,17,67,21,11,10,1
15,30,16,-22,0,22,16,68,21,11,10,1
14,31,17,-22,-1,23,16,68,22,11,11,2
13,31,19,-22,-2,25,15,69,22,12,11,2
14,33,19,-23,-3,26,15,69,22,12,12,3
14,34,20,-24,-3,27,15,69,23,12,12,3
14,36,21,-25,-3,28,15,69,23,12,13,4
14,37,22,-25,-4,29,14,69,23,13,13,4
12,36,24,-24,-6,30,14,69,23,13,14,5
11,35,25,-23,-7,30,12,68,23,13,14,5
11,35,24,-23,-6,30,11,66,22,13,13,5
11,36,25,-23,-7,31,10,65,22,13,13,5
