leadI,leadII,leadIII,leadaVR,leadaVL,leadaVF,leadV1,leadV2,leadV3,leadV4,leadV5,leadV6
1,0,0,0,0,0,-1,-2,-2,-2,-1,-1
3,2,-1,-2,2,0,-3,-6,-5,-4,-3,-3
6,4,-2,-5,4,1,-4,-8,-5,-5,-4,-4
9,6,-2,-7,6,1,-4,-8,-5,-4,-3,-4
10,7,-3,-9,7,1,-4,-7,-4,-4,-3,-4
11,7,-4,-9,8,1,-4,-7,-4,-5,-3,-4
11,6,-5,-8,8,0,-5,-8,-4,-5,-4,-5
10,5,-5,-8,8,0,-6,-8,-4,-6,-4,-5
10,5,-5,-8,8,0,-6,-8,-4,-6,-3,-5
11,6,-5,-8,9,0,-6,-7,-3,-5,-3,-4
12,7,-5,-9,9,0,-6,-7,-3,-5,-3,-4
13,8,-5,-10,9,1,-5,-7,-3,-5,-2,-3
13,10,-3,-11,9,3,-5,-7,-3,-5,-1,-2
12,10,-2,-10,7,4,-5,-7,-3,-5,-1,-2
9,8,0,-9,5,4,-6,-8,-3,-6,-1,-2
8,7,0,-7,3,4,-6,-8,-3,-8,-2,-2
7,6,0,-7,3,4,-6,-8,-2,-9,-3,-3
8,6,-2,-7,5,3,-6,-7,-1,-10,-3,-3
11,7,-3,-9,7,2,-5,-7,0,-11,-2,-3
14,10,-3,-12,8,3,-5,-6,0,-11,-2,-3
16,12,-4,-14,9,4,-4,-6,1,-11,-1,-2
16,12,-4,-14,9,4,-4,-5,2,-11,-1,-2
13,10,-3,-11,7,3,-5,-5,2,-12,-2,-3
10,7,-2,-8,5,3,-6,-5,1,-13,-2,-3
6,4,-2,-5,3,2,-6,-6,0,-14,-2,-3
4,2,-2,-3,3,1,-8,-8,-1,-16,-2,-3
3,1,-2,-2,3,0,-9,-9,-2,-17,-3,-3
3,1,-2,-2,3,0,-10,-10,-2,-18,-3,-3
5,3,-2,-4,3,0,-11,-10,-2,-19,-3,-3
6,4,-2,-5,4,0,-11,-10,-2,-19,-3,-3
7,3,-3,-4,4,0,-11,-10,-3,-20,-4,-4
5,0,-4,-2,4,-2,-11,-11,-4,-21,-4,-4
1,-3,-4,1,3,-3,-12,-12,-5,-22,-5,-5
-3,-7,-4,5,0,-4,-14,-14,-7,-24,-6,-6
-6,-9,-3,8,-1,-5,-15,-16,-9,-25,-7,-7
-6,-9,-3,8,-1,-5,-15,-18,-10,-26,-8,-8
-5,-8,-3,7,-1,-5,-15,-19,-11,-27,-8,-8
-5,-7,-2,6,-1,-5,-15,-19,-12,-27,-8,-8
-6,-7,-1,7,-3,-5,-15,-20,-13,-27,-8,-8
-6,-6,0,7,-3,-4,-14,-20,-13,-27,-8,-8
-5,-6,0,6,-2,-4,-13,-19,-12,-26,-8,-8
-4,-5,-1,5,-1,-3,-11,-18,-12,-26,-7,-7
-3,-4,-1,4,0,-3,-10,-17,-11,-25,-7,-7
-2,-3,-2,3,0,-2,-10,-17,-11,-25,-7,-7
0,-2,-2,1,1,-2,-9,-16,-11,-24,-7,-7
0,-2,-2,1,1,-2,-9,-16,-11,-24,-7,-7
0,-3,-2,1,1,-2,-10,-16,-11,-24,-7,-7
-3,-4,-1,3,-1,-2,-10,-17,-12,-24,-7,-7
-5,-5,0,5,-2,-2,-10,-18,-13,-24,-7,-7
-6,-6,0,6,-3,-3,-11,-19,-14,-24,-8,-8
-6,-5,0,6,-2,-3,-11,-20,-15,-25,-8,-8
-4,-4,0,4,-1,-2,-11,-20,-15,-25,-8,-8
-3,-2,1,3,-1,-1,-11,-20,-15,-25,-8,-8
-2,-1,1,2,-1,0,-11,-20,-15,-25,-8,-8
-1,-1,1,1,-1,0,-11,-20,-15,-25,-8,-9
-2,-2,1,3,-2,-1,-11,-19,-15,-25,-9,-9
-3,-4,0,4,-2,-2,-10,-19,-15,-26,-9,-10
-4,-5,-1,5,-2,-3,-10,-19,-15,-26,-9,-10
-5,-6,-1,6,-1,-4,-10,-19,-15,-26,-9,-10
-5,-6,-2,5,-1,-4,-10,-19,-15,-26,-10,-10
-4,-6,-2,5,-1,-4,-10,-19,-16,-26,-10,-10
-3,-5,-2,5,0,-4,-10,-19,-17,-27,-10,-10
-2,-5,-2,4,0,-4,-11,-19,-18,-27,-10,-10
-2,-4,-1,4,0,-3,-11,-19,-18,-27,-9,-9
-2,-4,-1,4,0,-2,-11,-19,-17,-27,-8,-8
-1,-3,-1,3,0,-2,-10,-18,-16,-27,-7,-7
0,-1,-1,1,0,0,-10,-18,-15,-27,-6,-7
1,1,0,0,1,0,-9,-17,-14,-28,-6,-6
2,3,0,-2,1,1,-9,-17,-14,-28,-6,-6
4,4,0,-3,2,2,-8,-17,-15,-29,-6,-6
6,5,0,-5,3,3,-7,-17,-14,-30,-6,-6
8,6,0,-6,4,3,-6,-16,-13,-30,-5,-6
8,8,1,-7,4,4,-5,-16,-13,-31,-5,-6
8,8,2,-7,3,5,-5,-17,-13,-33,-6,-6
7,9,2,-7,3,5,-6,-18,-14,-35,-7,-6
7,9,2,-7,3,5,-7,-19,-16,-36,-7,-7
7,9,3,-8,2,6,-8,-21,-17,-36,-7,-6
7,10,3,-8,2,6,-10,-22,-18,-36,-6,-5
7,11,4,-9,2,6,-13,-25,-19,-35,-4,-4
8,12,4,-10,2,7,-15,-28,-20,-35,-1,-1
9,14,5,-11,3,9,-17,-33,-23,-33,3,2
12,15,4,-13,4,9,-20,-39,-27,-31,7,7
15,16,2,-15,7,9,-23,-44,-30,-28,12,11
19,18,0,-18,9,9,-27,-50,-33,-23,18,16
23,20,-2,-21,13,9,-31,-55,-36,-18,24,22
29,23,-5,-25,17,9,-36,-60,-39,-13,31,27
35,26,-8,-30,21,9,-41,-65,-41,-7,37,33
42,29,-11,-35,26,9,-47,-69,-45,-3,43,39
49,32,-16,-40,32,9,-53,-73,-48,-1,48,44
56,35,-20,-45,38,8,-59,-75,-52,0,51,48
62,38,-22,-50,42,8,-63,-78,-58,-3,51,49
67,43,-23,-55,46,10,-68,-83,-66,-10,48,48
72,48,-23,-60,48,12,-74,-89,-77,-18,43,45
77,52,-24,-64,51,14,-79,-95,-87,-29,36,41
81,54,-26,-67,54,13,-81,-99,-97,-42,25,32
83,54,-27,-68,55,13,-80,-101,-105,-57,12,21
79,54,-24,-66,52,14,-75,-103,-112,-72,-2,9
70,53,-17,-61,44,18,-68,-105,-118,-86,-14,-1
56,48,-8,-52,32,20,-60,-107,-122,-98,-26,-10
42,41,-1,-41,22,20,-52,-107,-124,-108,-36,-20
30,32,1,-31,14,17,-44,-106,-124,-115,-45,-29
20,23,3,-21,9,13,-38,-101,-120,-118,-50,-35
11,15,4,-13,4,10,-32,-95,-114,-117,-53,-39
5,9,4,-6,0,7,-27,-87,-106,-114,-53,-41
1,5,4,-2,-1,5,-23,-78,-97,-110,-52,-42
-1,3,4,0,-2,4,-20,-70,-87,-104,-50,-41
-2,2,5,0,-3,4,-19,-61,-76,-97,-46,-38
-1,4,5,0,-3,5,-18,-53,-66,-90,-41,-34
0,5,6,-2,-3,6,-16,-44,-55,-81,-35,-30
1,6,6,-3,-2,6,-14,-36,-45,-73,-30,-26
1,6,5,-3,-2,5,-11,-29,-35,-66,-26,-23
1,4,4,-2,-1,4,-9,-22,-27,-60,-23,-22
0,2,3,0,-1,3,-7,-15,-20,-55,-21,-21
0,0,1,0,0,1,-5,-9,-14,-51,-19,-19
0,-2,-1,1,0,-1,-2,-4,-8,-47,-16,-17
0,-3,-2,2,1,-2,0,0,-3,-42,-13,-15
-1,-3,-3,2,1,-3,1,4,2,-39,-11,-14
-1,-3,-3,2,1,-3,2,8,6,-36,-10,-13
-1,-4,-3,3,1,-3,3,10,8,-35,-9,-13
0,-4,-4,3,1,-4,4,13,10,-34,-9,-13
2,-4,-5,2,3,-4,6,15,12,-32,-9,-13
4,-3,-6,0,5,-5,8,18,15,-31,-9,-13
5,-4,-8,0,6,-6,10,21,17,-30,-8,-12
5,-4,-9,0,7,-7,11,23,20,-28,-7,-11
5,-5,-11,0,8,-8,12,25,22,-27,-6,-11
5,-7,-12,1,8,-10,13,26,23,-25,-5,-10
6,-8,-14,1,10,-11,13,27,24,-24,-4,-10
7,-8,-15,1,11,-11,13,27,25,-24,-3,-9
7,-8,-15,1,12,-11,13,28,26,-23,-2,-8
6,-8,-14,2,11,-11,13,29,27,-23,-2,-8
5,-9,-14,3,9,-12,12,30,27,-23,-3,-8
4,-11,-14,4,9,-13,12,30,28,-24,-3,-9
3,-11,-15,4,9,-14,12,31,29,-24,-3,-9
3,-12,-16,4,9,-15,12,32,30,-23,-2,-9
3,-12,-16,4,9,-15,12,33,31,-23,-2,-9
3,-12,-16,4,9,-14,12,33,31,-23,-2,-9
3,-12,-15,5,8,-14,12,34,32,-24,-2,-10
2,-13,-14,5,8,-14,12,35,33,-24,-3,-10
1,-14,-15,6,8,-14,12,36,34,-25,-3,-10
1,-15,-15,7,9,-15,12,37,35,-26,-4,-10
1,-15,-16,6,9,-15,12,38,37,-25,-3,-10
1,-15,-16,6,8,-15,12,40,38,-25,-3,-10
0,-15,-15,7,8,-15,12,40,38,-25,-2,-10
0,-15,-15,7,7,-15,12,41,39,-25,-2,-9
0,-15,-15,7,8,-15,12,42,40,-24,-1,-9
2,-14,-16,6,9,-15,14,44,42,-24,-1,-8
4,-14,-17,5,11,-15,16,47,45,-24,0,-8
6,-14,-18,4,13,-16,17,49,47,-24,0,-7
7,-14,-20,4,14,-17,18,52,49,-23,1,-6
7,-15,-22,4,14,-18,17,53,50,-22,2,-6
7,-16,-23,5,15,-20,17,54,51,-21,2,-6
7,-17,-24,5,15,-21,17,55,52,-19,2,-6
7,-18,-25,5,16,-22,18,56,53,-17,2,-6
7,-18,-25,6,16,-22,18,57,55,-16,3,-6
7,-19,-26,6,17,-23,18,59,56,-15,3,-7
6,-20,-26,7,16,-23,17,60,57,-14,3,-7
5,-21,-25,8,15,-23,17,61,59,-12,3,-7
3,-22,-25,10,14,-24,17,62,60,-11,3,-7
2,-23,-25,11,13,-24,17,63,62,-9,3,-7
1,-23,-25,11,13,-25,17,65,64,-8,3,-7
1,-24,-26,11,14,-26,16,66,66,-6,3,-7
2,-25,-27,11,15,-27,16,68,67,-4,4,-6
3,-25,-29,11,16,-27,17,70,69,-2,4,-6
4,-26,-30,11,18,-28,17,72,71,0,5,-6
5,-27,-32,11,19,-29,18,75,74,2,7,-5
6,-27,-34,11,20,-30,18,78,77,5,8,-4
8,-27,-35,10,22,-31,19,81,80,9,10,-2
10,-25,-36,8,23,-31,20,83,83,12,12,-1
11,-24,-36,7,23,-30,21,85,84,15,13,0
11,-25,-36,7,23,-31,22,87,85,18,14,0
10,-26,-36,8,23,-32,22,87,86,20,15,0
9,-28,-36,9,23,-32,21,88,87,23,16,1
10,-27,-37,9,24,-32,20,91,89,25,17,2
12,-26,-38,8,25,-32,21,94,92,28,19,3
14,-26,-39,7,26,-32,21,96,94,30,20,4
14,-26,-40,6,27,-33,22,98,96,32,21,5
14,-27,-41,6,28,-34,22,99,97,34,21,6
15,-28,-42,6,28,-35,21,100,98,36,22,6
15,-27,-42,6,29,-35,21,101,99,39,24,7
17,-25,-42,5,29,-34,21,103,101,41,26,9
19,-24,-42,3,31,-33,21,104,102,43,27,10
20,-23,-43,2,32,-33,20,105,103,45,29,11
21,-23,-44,1,33,-33,20,106,104,46,31,13
22,-22,-44,1,33,-33,19,106,104,48,32,14
23,-22,-44,0,34,-33,19,107,105,49,33,16
23,-21,-44,0,34,-33,19,107,105,50,34,17
24,-20,-43,-1,33,-32,19,107,106,52,35,18
25,-18,-42,-3,34,-30,19,106,106,53,36,19
27,-16,-42,-5,35,-29,18,105,105,53,37,20
27,-15,-41,-5,34,-28,17,103,104,53,38,20
25,-15,-40,-4,33,-28,15,101,103,52,38,21
24,-16,-39,-3,32,-28,14,99,101,52,38,21
23,-16,-39,-3,31,-28,13,97,99,51,39,22
23,-16,-39,-4,32,-28,12,95,98,51,39,22
24,-16,-40,-4,32,-28,12,94,97,50,38,22
24,-16,-39,-4,32,-27,12,92,95,48,38,22
25,-15,-39,-4,32,-27,11,89,92,47,38,23
25,-13,-37,-5,31,-26,9,86,90,45,38,23
25,-11,-36,-6,31,-24,8,83,88,44,38,23
24,-9,-33,-7,29,-22,6,80,86,42,37,23
23,-8,-31,-7,28,-20,5,77,83,40,37,24
23,-8,-30,-7,27,-19,4,74,79,37,36,24
23,-7,-29,-8,26,-18,2,70,75,33,35,24
23,-4,-27,-9,25,-15,2,66,71,30,35,25
23,-2,-25,-10,25,-13,1,62,67,27,34,25
23,-1,-23,-10,24,-12,0,57,63,24,33,24
21,0,-21,-10,22,-11,-2,53,59,21,32,24
20,0,-19,-9,20,-10,-3,49,55,17,30,23
19,0,-18,-9,19,-9,-4,45,51,13,28,22
18,1,-17,-10,18,-8,-5,41,46,9,26,21
18,1,-16,-10,17,-7,-5,37,42,5,25,21
17,1,-15,-9,15,-6,-6,33,37,1,24,20
16,2,-13,-9,14,-4,-7,29,33,-2,23,20
16,4,-11,-10,14,-3,-8,26,30,-3,21,19
16,6,-9,-10,13,-2,-8,22,27,-4,20,18
16,8,-7,-11,12,0,-8,20,25,-5,18,17
17,11,-6,-13,12,2,-8,18,23,-6,17,16
19,13,-5,-16,12,4,-7,16,21,-7,16,16
20,15,-5,-17,12,5,-7,13,18,-8,15,15
20,16,-3,-18,12,7,-8,10,14,-9,14,15
20,17,-2,-19,11,8,-8,8,11,-9,13,14
20,18,-1,-20,11,9,-7,6,10,-9,12,14
20,19,0,-19,11,9,-6,5,8,-11,11,14
20,19,0,-19,11,9,-6,3,7,-12,10,13
20,20,0,-19,10,9,-6,2,5,-13,8,12
20,20,1,-20,9,10,-6,0,2,-15,6,11
19,21,2,-20,8,12,-5,-1,0,-16,5,10
19,22,4,-20,7,13,-4,-2,-1,-16,5,9
18,23,5,-21,6,14,-4,-3,-2,-16,4,9
18,23,5,-21,6,14,-3,-4,-3,-16,4,8
18,21,4,-19,7,12,-2,-4,-3,-17,3,8
16,18,2,-17,7,10,-1,-4,-4,-18,1,6
13,14,1,-14,6,7,0,-5,-4,-18,0,5
10,10,0,-10,5,5,0,-6,-6,-18,-1,3
7,7,0,-7,3,4,-1,-7,-7,-18,-2,2
5,5,1,-5,2,3,-2,-8,-9,-19,-4,1
3,4,1,-4,1,3,-2,-10,-11,-20,-5,0
3,4,1,-4,0,3,-3,-11,-12,-21,-6,-1
3,4,1,-4,0,3,-3,-11,-13,-22,-7,-1
4,6,2,-4,0,4,-2,-11,-13,-21,-6,0
6,9,2,-7,1,5,-2,-10,-12,-20,-5,1
9,11,2,-9,3,6,-1,-10,-11,-19,-5,1
10,11,2,-10,4,7,-1,-9,-10,-20,-5,1
10,12,2,-11,4,7,-1,-9,-10,-20,-5,1
10,12,3,-11,3,8,-1,-10,-11,-21,-5,1
9,12,3,-11,2,8,-1,-10,-12,-22,-5,1
8,12,3,-10,2,7,-1,-10,-12,-22,-5,1
8,11,3,-9,2,7,0,-10,-12,-23,-6,1
7,10,2,-8,2,6,0,-10,-11,-23,-6,0
7,9,2,-7,2,5,0,-10,-11,-24,-7,0
6,7,0,-6,3,4,0,-10,-12,-25,-7,-1
7,6,0,-6,4,3,0,-10,-12,-25,-7,0
7,6,0,-7,4,3,2,-9,-12,-24,-6,0
7,7,0,-7,4,4,2,-8,-11,-24,-5,1
8,7,0,-7,4,3,2,-8,-11,-24,-4,1
9,8,0,-7,4,4,2,-8,-11,-25,-5,1
9,10,1,-8,4,5,1,-9,-12,-26,-5,1
10,11,2,-10,4,6,1,-9,-12,-26,-5,1
10,12,3,-11,4,8,2,-9,-11,-26,-5,1
10,13,3,-11,3,8,2,-9,-11,-27,-6,0
10,13,3,-11,3,8,2,-9,-11,-27,-6,0
10,13,3,-11,3,8,3,-9,-11,-27,-6,0
10,13,2,-11,4,7,3,-9,-11,-28,-6,1
10,13,2,-11,4,7,2,-9,-12,-29,-6,0
11,13,2,-11,4,7,2,-9,-12,-30,-6,0
11,14,2,-12,4,7,2,-9,-12,-30,-6,0
11,13,2,-12,5,7,1,-9,-12,-30,-6,1
12,14,2,-13,6,7,1,-8,-11,-29,-5,2
14,15,1,-14,7,7,2,-7,-10,-28,-4,3
15,15,0,-15,8,7,3,-6,-9,-28,-4,3
15,14,-1,-14,8,6,4,-6,-9,-29,-4,2
15,13,-2,-14,8,5,4,-6,-10,-30,-4,2
15,13,-1,-14,8,6,4,-6,-10,-30,-4,2
15,14,0,-14,8,7,5,-6,-10,-30,-3,3
14,15,0,-14,7,7,4,-6,-10,-30,-3,3
13,14,1,-14,6,7,4,-6,-10,-31,-4,2
13,14,1,-14,6,8,4,-5,-10,-32,-5,2
13,15,2,-15,6,8,5,-5,-9,-32,-5,1
14,16,2,-15,6,9,5,-5,-9,-33,-6,1
15,16,2,-15,6,9,5,-4,-8,-32,-5,1
15,17,2,-15,6,9,6,-3,-7,-31,-4,2
15,16,1,-15,7,8,7,-3,-6,-30,-2,3
15,14,-1,-14,8,6,7,-3,-6,-30,-1,4
15,13,-2,-13,9,5,6,-3,-6,-30,0,5
14,12,-2,-13,8,5,6,-4,-6,-30,0,6
13,13,0,-13,6,6,5,-4,-6,-31,0,6
13,14,3,-13,5,8,5,-4,-6,-32,0,6
14,17,4,-15,4,10,4,-4,-5,-32,-1,5
16,20,4,-17,5,12,4,-3,-4,-31,-1,5
16,21,4,-17,5,12,4,-3,-3,-29,-1,5
16,20,4,-17,5,12,4,-3,-3,-28,-1,5
15,18,3,-16,5,10,4,-4,-4,-28,-1,5
13,15,3,-14,5,9,4,-4,-4,-28,-1,5
11,13,2,-12,4,7,4,-5,-4,-28,-1,5
9,10,2,-9,3,6,4,-5,-5,-29,-3,4
7,8,2,-7,2,5,3,-6,-5,-30,-4,3
6,8,2,-7,2,5,3,-6,-5,-31,-4,2
7,9,2,-8,3,5,3,-6,-5,-30,-3,3
8,10,2,-9,3,6,3,-6,-4,-30,-2,4
8,11,2,-9,3,6,3,-6,-4,-30,-2,4
8,11,3,-10,3,6,3,-6,-4,-30,-2,4
9,10,2,-9,4,6,1,-7,-4,-30,-2,4
8,9,0,-8,4,4,0,-7,-5,-31,-3,3
7,8,0,-7,3,4,0,-7,-6,-31,-4,3
5,7,1,-6,2,3,-1,-8,-6,-32,-5,2
4,6,1,-4,1,3,-2,-9,-8,-32,-5,1
2,4,2,-2,0,2,-2,-11,-9,-32,-5,0
0,3,2,-1,-1,2,-2,-12,-10,-33,-6,0
0,1,2,0,-1,1,-3,-12,-11,-34,-7,0
0,1,1,0,0,1,-4,-13,-11,-34,-7,0
0,1,1,0,0,1,-3,-12,-11,-33,-7,0
0,1,1,0,0,1,-2,-12,-11,-33,-7,0
0,1,1,0,0,1,-1,-12,-12,-33,-7,0
0,0,1,0,0,1,-1,-13,-13,-33,-7,0
-2,0,3,1,-2,1,-1,-14,-14,-34,-7,-1
-3,2,5,1,-3,3,-2,-15,-15,-35,-8,-2
-2,4,6,0,-4,5,-1,-15,-15,-36,-8,-2
-1,6,7,-2,-4,6,-1,-14,-14,-36,-9,-3
0,7,6,-4,-3,6,-1,-14,-14,-35,-9,-3
1,7,5,-5,-2,6,0,-13,-14,-34,-8,-3
2,7,4,-5,-1,5,0,-12,-13,-34,-8,-3
1,5,3,-4,0,4,1,-12,-14,-34,-9,-3
0,4,3,-2,-1,3,1,-13,-14,-34,-9,-4
0,3,3,-1,-1,2,1,-13,-15,-35,-9,-4
0,3,3,-2,-1,3,1,-13,-15,-35,-9,-3
0,4,3,-2,-1,3,1,-13,-15,-35,-8,-2
1,5,3,-3,0,4,1,-13,-14,-34,-7,-1
3,6,3,-5,0,4,1,-12,-14,-33,-7,-1
4,8,3,-6,1,5,1,-12,-15,-34,-7,-1
5,9,4,-7,0,6,1,-13,-16,-35,-7,-1
5,9,5,-7,0,7,0,-14,-17,-35,-7,0
5,10,6,-7,0,8,0,-14,-17,-35,-7,-1
5,11,6,-7,0,9,0,-14,-16,-36,-8,-1
6,12,6,-8,0,9,0,-14,-15,-36,-8,-2
6,12,6,-8,0,9,0,-14,-15,-36,-9,-3
6,12,5,-8,1,8,0,-14,-15,-37,-10,-4
6,10,4,-7,1,6,0,-14,-16,-37,-10,-4
5,9,3,-7,1,5,0,-14,-16,-36,-10,-4
5,8,3,-7,1,5,1,-14,-16,-35,-9,-3
6,9,3,-7,1,5,1,-13,-16,-35,-8,-3
7,10,3,-9,2,6,2,-13,-16,-34,-7,-2
8,12,3,-10,2,7,3,-12,-15,-33,-6,-1
10,13,3,-12,3,8,4,-12,-15,-33,-6,-1
12,16,3,-14,4,9,4,-12,-14,-32,-5,0
14,19,5,-17,5,11,4,-12,-14,-31,-5,0
16,22,6,-19,5,13,4,-12,-13,-31,-5,0
18,23,6,-21,6,14,4,-12,-13,-30,-5,0
18,24,7,-21,6,15,5,-12,-13,-30,-5,0
18,24,6,-20,6,14,5,-13,-14,-29,-5,0
17,23,5,-19,6,13,4,-15,-15,-28,-5,0
16,21,4,-18,5,12,2,-17,-16,-24,-3,1
15,20,4,-17,5,12,0,-22,-19,-19,-1,2
15,19,4,-17,5,11,-4,-27,-23,-14,0,4
15,19,4,-17,5,11,-8,-33,-27,-10,3,7
16,19,4,-17,6,11,-12,-38,-31,-6,6,10
16,21,4,-18,6,12,-15,-43,-35,-2,11,15
18,23,5,-20,6,14,-18,-47,-38,4,18,21
22,26,4,-24,8,15,-23,-53,-40,11,26,28
28,30,2,-29,13,15,-28,-58,-43,18,34,35
35,34,-1,-34,18,16,-32,-62,-46,24,41,42
42,38,-4,-40,23,16,-37,-65,-49,31,48,48
46,41,-5,-44,26,17,-41,-66,-51,35,53,54
47,40,-6,-44,27,16,-47,-68,-54,35,54,56
48,39,-8,-44,28,15,-53,-71,-61,30,51,55
50,39,-9,-45,30,14,-58,-76,-70,22,47,52
52,41,-10,-47,32,15,-63,-81,-79,13,42,49
55,42,-12,-49,34,14,-67,-85,-87,2,35,44
58,42,-16,-50,37,12,-68,-87,-95,-11,24,35
57,40,-17,-49,37,11,-66,-89,-103,-26,9,22
50,38,-12,-44,32,12,-60,-92,-110,-41,-6,9
39,35,-5,-37,22,15,-52,-95,-116,-55,-20,-2
27,29,2,-28,13,15,-44,-97,-120,-68,-32,-13
15,20,5,-18,5,13,-38,-98,-122,-78,-43,-23
5,12,7,-9,0,9,-31,-96,-122,-86,-51,-31
-4,4,9,0,-6,6,-25,-92,-118,-89,-56,-38
-12,-2,11,7,-11,4,-20,-86,-111,-89,-59,-42
-18,-6,12,12,-15,3,-16,-79,-102,-85,-59,-44
-21,-8,13,14,-17,2,-13,-71,-92,-81,-58,-44
-22,-10,12,16,-18,1,-12,-63,-83,-75,-56,-43
-23,-10,12,16,-18,0,-10,-56,-74,-69,-53,-41
-21,-9,12,15,-17,0,-8,-48,-64,-62,-48,-38
-19,-8,12,14,-15,0,-6,-39,-53,-53,-42,-33
-18,-7,11,13,-14,1,-3,-30,-42,-45,-36,-29
-16,-6,11,12,-13,1,0,-23,-33,-38,-32,-26
-15,-6,10,11,-12,1,2,-17,-24,-32,-28,-24
-14,-6,8,10,-11,1,4,-11,-17,-27,-25,-21
-13,-5,7,9,-10,1,6,-5,-11,-22,-22,-19
-11,-5,6,8,-9,0,7,0,-5,-17,-19,-16
-9,-4,5,7,-7,0,9,4,0,-13,-16,-13
-7,-4,4,5,-5,0,11,9,4,-10,-13,-11
-5,-4,2,4,-3,-1,13,12,8,-7,-11,-9
-4,-5,0,4,-1,-3,14,15,11,-5,-9,-8
-5,-7,-2,5,-1,-5,15,17,13,-4,-9,-8
-5,-8,-3,7,-1,-7,16,19,15,-2,-9,-8
-6,-9,-4,7,-1,-8,16,20,16,-1,-9,-9
-5,-9,-3,7,-1,-7,16,21,18,0,-10,-10
-4,-8,-3,6,0,-6,17,23,20,1,-10,-10
-2,-7,-4,5,1,-7,18,25,21,2,-9,-10
0,-7,-6,4,2,-7,19,26,22,3,-8,-9
0,-7,-6,3,3,-7,20,27,23,4,-7,-8
-1,-7,-6,4,2,-7,21,27,24,5,-6,-7
-2,-7,-6,5,1,-7,21,27,24,5,-5,-7
-3,-7,-5,5,0,-7,21,28,25,5,-6,-7
-3,-7,-5,5,0,-6,20,29,25,5,-6,-7
-2,-7,-5,5,1,-6,18,30,26,5,-6,-6
-2,-8,-5,5,1,-7,18,30,26,5,-5,-6
-2,-8,-5,5,1,-7,19,31,27,5,-4,-5
-1,-8,-6,5,2,-7,20,32,28,7,-3,-4
-1,-8,-7,5,2,-8,21,33,30,8,-2,-3
-2,-9,-7,6,2,-9,21,34,32,8,-3,-4
-3,-11,-8,7,2,-10,22,35,33,7,-5,-6
-4,-13,-9,8,3,-12,22,36,34,5,-7,-8
-4,-14,-10,9,4,-13,22,37,36,5,-7,-8
-4,-16,-11,10,4,-15,23,38,37,6,-7,-8
-6,-18,-12,12,3,-16,23,39,37,6,-6,-8
-6,-18,-12,12,2,-15,23,40,38,7,-6,-7
-5,-16,-11,11,3,-14,23,41,40,8,-5,-7
-3,-16,-12,10,4,-14,23,42,41,9,-5,-7
-3,-17,-14,10,5,-15,24,43,42,10,-5,-6
-4,-19,-15,11,5,-17,24,43,42,11,-5,-6
-4,-20,-16,12,6,-18,24,44,43,13,-4,-6
-4,-22,-16,13,6,-19,23,45,44,15,-3,-5
-6,-23,-16,14,5,-19,22,46,46,18,-2,-4
-6,-22,-15,14,4,-19,21,48,48,21,-1,-4
-5,-21,-16,13,5,-18,22,49,50,24,-1,-4
-4,-19,-16,11,5,-18,22,51,52,27,-1,-4
-3,-17,-15,10,6,-17,23,52,54,31,0,-3
-1,-16,-16,8,7,-16,23,54,56,35,0,-3
2,-15,-16,6,9,-16,23,56,58,40,0,-2
4,-13,-16,4,10,-14,25,59,60,44,1,-2
4,-12,-16,3,10,-14,27,61,62,47,2,-1
3,-14,-17,5,10,-16,28,63,65,51,2,-1
3,-17,-20,7,11,-19,28,65,68,55,2,-1
2,-19,-22,8,12,-21,28,67,70,60,3,-1
2,-21,-24,9,13,-23,29,68,71,66,5,0
3,-22,-25,9,14,-24,29,70,73,71,7,1
5,-21,-26,8,15,-24,29,72,75,75,9,2
6,-21,-26,7,17,-24,29,74,78,79,10,3
7,-21,-27,7,17,-24,29,76,80,83,11,3
7,-21,-27,7,17,-24,28,78,82,86,11,3
6,-21,-27,7,17,-24,28,79,83,90,12,4
6,-22,-28,8,16,-25,28,79,84,93,12,4
5,-23,-28,9,16,-26,28,80,85,97,12,4
6,-22,-28,8,17,-26,27,81,87,102,13,5
7,-21,-28,7,17,-25,27,83,89,106,14,5
8,-20,-28,6,18,-24,28,85,92,110,15,6
10,-20,-29,5,19,-24,30,88,94,113,16,7
12,-20,-31,4,22,-25,31,90,97,116,18,8
13,-21,-34,3,24,-27,31,92,99,119,20,10
15,-22,-37,3,26,-29,32,94,101,121,22,12
16,-22,-39,3,27,-30,32,95,102,124,24,13
16,-22,-38,3,27,-30,31,96,103,127,25,14
15,-22,-36,3,25,-29,30,96,103,129,26,14
14,-21,-34,3,24,-28,28,96,103,130,26,14
15,-19,-33,2,24,-27,27,96,104,132,27,15
17,-17,-34,0,25,-26,27,97,105,134,29,16
19,-16,-35,-1,27,-26,27,98,106,136,31,18
20,-15,-36,-2,28,-26,28,98,107,138,33,20
20,-15,-36,-2,28,-26,28,98,107,140,34,22
20,-15,-36,-3,28,-26,27,98,106,141,35,23
21,-15,-35,-3,29,-25,25,97,105,140,36,23
21,-14,-35,-4,29,-25,24,96,105,139,36,24
22,-13,-35,-4,29,-24,25,95,104,139,36,24
23,-13,-36,-4,30,-25,25,94,102,138,36,25
23,-13,-36,-4,30,-25,24,92,100,137,36,25
21,-12,-33,-4,27,-23,22,89,98,135,36,25
19,-10,-30,-5,24,-20,20,85,95,132,35,25
19,-8,-27,-6,23,-18,17,82,92,129,34,25
19,-5,-25,-7,22,-15,15,80,90,127,34,25
21,-4,-25,-9,23,-14,14,79,88,126,35,26
22,-4,-26,-9,25,-15,14,77,87,125,36,27
22,-5,-27,-9,25,-16,15,75,84,123,35,27
21,-7,-28,-7,25,-17,14,72,81,120,34,27
20,-7,-28,-7,24,-17,13,68,77,117,33,27
20,-6,-26,-8,23,-15,11,65,73,115,32,27
21,-3,-23,-9,22,-12,10,62,69,113,32,27
21,1,-20,-11,21,-9,9,59,66,111,32,28
22,5,-18,-13,21,-7,9,56,64,109,31,29
23,7,-16,-15,20,-5,8,54,61,107,30,29
22,8,-15,-15,18,-4,7,50,58,105,29,28
20,7,-14,-14,17,-3,5,46,54,103,28,28
19,6,-14,-13,16,-3,4,41,49,102,26,27
19,6,-14,-13,16,-3,2,36,44,100,24,25
18,6,-12,-12,15,-2,1,32,39,98,22,23
15,6,-9,-10,12,-1,1,27,33,95,20,21
12,6,-6,-9,9,0,0,22,28,92,18,19
11,8,-3,-9,7,2,-1,19,25,91,18,19
11,12,0,-11,6,5,-1,16,22,91,17,19
11,15,3,-13,4,9,-2,14,20,89,15,18
12,18,6,-15,3,12,-3,11,17,86,13,16
14,21,7,-17,3,14,-3,8,15,84,11,15
15,22,7,-18,4,14,-2,7,13,83,10,15
15,21,6,-18,5,13,0,6,11,82,9,14
14,19,5,-17,5,11,0,4,9,81,7,13
13,16,3,-15,5,9,0,3,7,79,5,11
12,13,1,-12,6,6,0,1,5,77,3,10
10,11,1,-10,5,5,0,-1,2,75,2,8
9,11,1,-9,4,6,0,-3,0,74,1,8
7,11,3,-9,2,7,0,-5,-2,73,1,7
5,12,6,-8,0,9,0,-7,-5,72,0,6
4,13,9,-8,-2,11,0,-9,-6,70,-2,4
2,13,10,-8,-4,11,-1,-9,-7,69,-4,3
1,13,11,-7,-4,12,0,-9,-7,69,-5,2
2,13,11,-8,-4,12,1,-9,-7,68,-6,1
4,14,9,-9,-2,11,2,-9,-8,69,-6,1
6,14,8,-9,0,11,2,-10,-9,69,-5,2
6,13,7,-9,0,10,2,-11,-10,69,-5,2
6,13,7,-9,0,10,2,-11,-10,69,-6,1
6,14,7,-10,0,10,2,-11,-11,67,-7,0
7,15,8,-11,0,11,3,-11,-11,67,-7,0
8,16,8,-12,0,12,4,-11,-11,67,-6,1
8,17,9,-13,0,13,6,-11,-11,68,-6,1
8,18,10,-13,0,13,6,-11,-12,68,-7,0
8,18,10,-13,0,14,7,-11,-12,67,-8,0
8,18,10,-12,0,14,7,-11,-12,67,-9,-1
6,16,10,-11,-1,14,7,-11,-12,66,-10,-1
5,15,10,-10,-1,13,7,-11,-13,64,-10,-2
5,14,9,-10,-1,12,7,-12,-14,63,-10,-2
5,12,7,-9,-1,10,7,-13,-15,62,-10,-2
4,11,6,-7,-1,9,6,-13,-16,61,-10,-2
4,11,7,-7,-1,9,5,-14,-17,61,-9,-2
3,12,9,-7,-2,11,4,-14,-17,60,-9,-2
2,13,11,-7,-4,13,3,-15,-17,59,-9,-2
1,15,14,-8,-5,15,3,-15,-17,58,-10,-2
2,17,15,-9,-6,16,3,-15,-17,56,-10,-2
3,17,13,-10,-4,15,3,-15,-17,55,-10,-2
4,15,10,-10,-2,12,5,-14,-16,55,-10,-2
3,13,9,-9,-2,10,6,-14,-16,54,-10,-2
1,12,9,-7,-3,9,7,-14,-17,52,-11,-3
0,11,10,-6,-4,10,7,-15,-18,51,-12,-4
0,10,10,-5,-4,10,6,-14,-17,50,-13,-4
0,10,9,-5,-3,10,6,-14,-17,50,-13,-4
0,10,9,-6,-3,10,6,-14,-17,49,-12,-4
1,11,10,-6,-3,11,6,-14,-18,50,-11,-3
1,11,10,-6,-4,11,5,-15,-18,50,-10,-2
1,12,11,-6,-4,11,4,-15,-18,48,-9,-2
1,13,11,-7,-4,12,4,-15,-17,46,-9,-3
2,14,11,-7,-4,12,4,-14,-17,45,-9,-4
2,12,10,-7,-4,11,5,-14,-18,43,-9,-5
1,10,9,-6,-4,10,5,-14,-19,43,-9,-5
0,9,9,-5,-4,9,5,-14,-19,42,-9,-6
0,8,9,-4,-5,9,6,-14,-19,42,-9,-6
-1,7,8,-4,-4,8,6,-15,-19,42,-8,-6
-1,5,7,-3,-4,6,6,-14,-19,40,-8,-6
-2,4,6,-1,-4,5,5,-14,-18,39,-9,-7
-3,3,6,0,-5,5,5,-14,-18,39,-9,-7
-3,5,8,-1,-5,6,5,-15,-18,39,-7,-7
-2,8,9,-3,-5,9,5,-15,-18,39,-6,-6
0,10,11,-5,-5,11,4,-15,-18,40,-6,-5
0,12,12,-7,-5,12,4,-14,-16,41,-5,-4
1,14,12,-8,-5,13,4,-13,-15,41,-5,-4
3,14,11,-9,-4,13,5,-13,-15,41,-5,-4
4,14,10,-9,-3,13,6,-13,-16,41,-3,-3
4,15,10,-9,-3,13,7,-13,-15,42,-3,-3
4,16,11,-10,-3,14,8,-12,-14,41,-3,-3
5,17,11,-10,-2,14,9,-11,-12,40,-4,-4
5,16,10,-10,-1,13,10,-10,-10,39,-4,-3
6,15,8,-10,0,12,10,-9,-9,39,-4,-3
7,14,7,-11,1,11,11,-8,-8,39,-3,-2
8,14,6,-11,1,10,11,-7,-7,40,-1,-1
7,13,6,-11,1,10,10,-8,-7,41,0,0
6,14,8,-11,0,11,8,-8,-8,41,0,0
6,16,10,-11,-1,12,7,-8,-8,41,1,1
7,18,10,-12,-1,13,7,-9,-7,41,2,2
8,19,10,-14,0,14,8,-9,-7,40,3,3
9,20,10,-15,0,15,9,-8,-6,39,3,3
10,20,10,-15,0,15,10,-8,-6,38,3,3
10,20,10,-15,0,15,10,-8,-6,36,2,2
8,20,11,-15,-1,16,10,-8,-6,34,0,0
7,20,13,-14,-2,16,10,-8,-5,33,0,0
7,19,12,-13,-2,15,9,-7,-5,32,0,0
9,18,9,-13,1,13,9,-6,-4,33,2,1
12,18,6,-15,3,12,10,-5,-2,36,5,4
14,20,5,-16,5,12,10,-5,-1,37,7,6
15,21,6,-18,5,13,9,-6,-2,36,7,6
15,23,8,-19,4,15,7,-7,-3,35,5,5
15,25,10,-20,3,17,7,-7,-4,33,4,4
17,26,10,-22,4,18,7,-6,-4,32,4,4
18,27,8,-23,5,18,8,-6,-4,32,4,4
19,26,6,-22,6,16,9,-6,-5,31,3,4
19,25,6,-22,7,15,9,-6,-5,29,2,4
18,24,6,-21,6,14,9,-8,-7,27,1,3
16,23,6,-19,4,14,7,-10,-9,25,1,3
14,22,7,-18,3,14,6,-12,-11,25,1,2
13,21,7,-17,2,14,7,-12,-11,25,1,2
12,19,7,-16,2,13,7,-11,-11,24,1,1
10,18,8,-14,1,13,6,-11,-11,23,1,0
8,17,9,-13,0,13,6,-11,-11,22,0,-1
7,15,10,-11,-1,12,5,-12,-12,21,0,-2
5,13,9,-9,-1,10,5,-13,-13,20,-1,-2
4,11,8,-8,-2,9,5,-15,-15,19,-2,-3
3,11,9,-7,-3,10,5,-16,-17,18,-2,-3
1,12,11,-7,-4,12,4,-17,-18,17,-2,-4
1,14,13,-8,-5,14,3,-18,-18,16,-3,-5
2,16,14,-9,-5,15,3,-19,-19,14,-5,-6
4,18,14,-10,-4,16,4,-18,-19,13,-6,-7
5,18,13,-11,-3,15,5,-17,-18,14,-5,-6
7,15,9,-11,-1,12,7,-16,-17,15,-4,-5
8,13,5,-10,1,8,8,-16,-17,15,-3,-4
7,11,4,-9,2,7,9,-15,-17,16,-2,-4
5,10,4,-8,0,7,9,-15,-17,16,-2,-4
3,10,7,-7,-2,8,7,-17,-18,16,-2,-4
1,13,11,-7,-4,12,4,-18,-19,14,-3,-4
1,15,14,-7,-6,14,3,-18,-18,14,-3,-4
1,15,14,-7,-6,14,3,-18,-18,14,-3,-4
1,12,11,-7,-4,11,3,-17,-18,13,-4,-5
2,9,6,-6,-2,7,4,-17,-19,12,-6,-7
4,8,3,-7,0,5,5,-16,-18,12,-6,-7
5,9,2,-8,2,5,6,-16,-18,12,-6,-7
5,9,3,-8,2,6,6,-16,-18,14,-5,-5
5,9,4,-8,1,6,5,-17,-18,15,-3,-4
5,9,4,-7,1,6,5,-17,-18,16,-2,-3
4,9,5,-6,0,7,5,-17,-18,16,-3,-4
1,7,6,-4,-2,6,4,-18,-18,14,-5,-6
0,6,6,-3,-3,6,3,-19,-19,13,-7,-7
0,6,6,-3,-3,5,3,-19,-20,12,-7,-7
0,6,7,-3,-4,6,3,-19,-20,13,-7,-6
0,6,8,-3,-4,6,3,-19,-19,14,-6,-6
-1,7,9,-3,-4,7,2,-19,-19,13,-7,-7
0,7,9,-3,-4,8,2,-19,-19,13,-7,-8
0,8,9,-4,-4,9,2,-20,-20,12,-7,-8
0,8,9,-4,-4,8,2,-21,-21,13,-6,-7
0,7,9,-3,-5,8,2,-22,-22,14,-5,-6
-2,6,9,-1,-6,7,2,-24,-23,15,-4,-5
-3,5,8,-1,-6,6,1,-27,-24,16,-3,-3
-2,5,6,-1,-4,5,0,-30,-26,18,0,0
0,5,5,-3,-2,5,-2,-34,-30,21,4,3
3,7,4,-5,0,6,-7,-41,-35,23,8,7
5,11,6,-7,0,9,-11,-48,-42,27,14,12
7,16,10,-11,-1,13,-14,-53,-46,32,20,17
11,22,11,-16,0,16,-17,-58,-49,38,27,23
16,26,10,-21,3,18,-21,-61,-51,44,33,30
22,30,8,-26,7,19,-25,-65,-54,50,40,37
30,34,5,-32,12,19,-30,-68,-57,56,48,44
37,37,0,-37,18,19,-35,-71,-59,62,55,52
44,38,-4,-41,24,17,-40,-72,-61,67,61,58
50,40,-8,-45,29,16,-44,-73,-65,69,64,61
55,43,-11,-49,33,17,-48,-76,-72,66,62,61
59,48,-10,-53,35,19,-53,-81,-80,58,56,57
64,55,-9,-59,36,23,-57,-84,-88,48,48,51
69,59,-10,-64,40,24,-59,-86,-94,37,36,42
72,60,-12,-66,42,23,-57,-86,-99,23,21,29
69,56,-12,-63,40,22,-51,-86,-103,8,5,15
61,50,-10,-56,35,20,-43,-87,-108,-7,-10,2
51,43,-6,-47,29,19,-34,-88,-113,-19,-22,-9
40,35,-4,-38,22,17,-26,-88,-117,-28,-30,-18
30,29,-2,-29,16,14,-20,-87,-118,-34,-39,-26
21,23,1,-22,10,13,-14,-84,-116,-34,-45,-33
12,19,5,-16,3,12,-9,-79,-109,-31,-50,-38
6,16,9,-11,-1,12,-6,-73,-101,-28,-53,-42
3,14,11,-9,-4,12,-4,-67,-93,-24,-53,-43
3,13,10,-8,-3,11,-1,-59,-83,-18,-51,-42
4,11,8,-7,-1,9,1,-52,-74,-10,-47,-39
4,8,5,-5,0,7,3,-44,-65,-1,-42,-36
4,7,3,-5,0,5,6,-37,-56,7,-37,-33
4,8,4,-5,0,6,7,-29,-47,16,-31,-29
5,10,5,-7,0,8,8,-23,-37,23,-25,-24
5,12,6,-8,0,9,10,-18,-28,29,-20,-21
5,12,7,-9,0,9,12,-12,-20,33,-17,-19
5,12,8,-8,0,9,15,-7,-14,36,-14,-17
5,11,8,-8,0,9,18,-2,-8,40,-11,-15
6,11,6,-9,0,9,19,2,-2,45,-7,-12
9,12,4,-11,3,8,20,7,2,50,-4,-9
12,13,1,-12,6,7,20,11,6,53,-2,-8
14,12,-2,-13,8,5,21,13,8,55,-2,-8
15,10,-4,-13,10,3,23,15,10,55,-2,-8
15,9,-5,-12,10,1,24,17,12,56,-2,-8
14,8,-5,-11,10,1,24,18,13,56,-2,-7
14,8,-5,-11,10,0,24,19,14,57,-1,-7
14,7,-6,-10,10,0,26,20,15,58,-1,-7
13,6,-6,-10,10,0,27,21,16,59,-1,-7
12,6,-6,-9,9,0,28,23,17,60,-1,-7
12,5,-6,-8,9,0,28,24,18,60,-1,-7
12,4,-8,-8,10,-1,28,25,19,61,0,-6
13,3,-10,-8,12,-4,28,25,20,63,1,-5
13,2,-12,-8,13,-5,28,27,22,64,2,-4
12,1,-11,-7,12,-6,29,28,23,65,3,-4
11,0,-10,-5,11,-5,28,28,23,65,3,-4
9,1,-8,-5,9,-4,27,28,22,67,4,-3
8,2,-6,-4,7,-2,26,28,22,68,5,-2
7,2,-4,-4,5,-1,25,28,23,68,5,-3
6,3,-3,-4,5,0,24,28,23,67,4,-4
5,3,-2,-4,4,0,24,29,24,67,3,-4
6,1,-4,-3,5,-2,25,31,26,66,2,-5
8,-1,-9,-3,9,-6,27,33,28,65,0,-7
9,-5,-14,-2,12,-10,28,35,29,66,0,-7
8,-9,-18,0,13,-13,29,36,30,67,0,-6
5,-12,-18,3,12,-15,30,37,31,69,1,-6
1,-14,-15,6,9,-15,30,37,31,71,2,-6
-1,-13,-10,7,5,-12,28,36,31,72,2,-6
-3,-9,-5,6,2,-8,26,35,31,73,2,-6
-2,-5,-2,3,1,-4,24,35,32,75,2,-6
2,-3,-4,0,4,-4,24,37,35,76,2,-6
6,-4,-10,-1,9,-7,26,41,39,78,2,-5
10,-7,-16,-1,13,-12,28,44,41,80,3,-4
11,-10,-21,0,16,-16,30,46,43,84,5,-2
10,-14,-23,2,17,-19,32,47,44,88,7,-1
7,-17,-22,5,15,-20,32,48,45,91,8,-1
2,-18,-18,7,11,-18,32,47,46,92,8,-1
0,-15,-14,7,8,-15,30,47,47,93,7,-2
1,-12,-12,5,7,-12,29,48,49,94,6,-3
4,-11,-14,3,9,-13,29,51,52,96,7,-2
5,-13,-19,4,12,-16,30,54,55,99,8,-2
6,-17,-23,5,14,-20,30,56,57,103,9,-1
6,-19,-24,6,15,-22,30,57,58,108,10,-1
5,-19,-23,7,14,-21,31,58,60,112,10,-1
4,-19,-21,7,12,-20,31,58,61,115,11,0
4,-16,-18,6,11,-17,29,59,62,118,14,1
4,-13,-16,4,11,-14,29,60,64,122,17,4
5,-11,-16,3,11,-14,30,63,68,125,18,6
6,-12,-20,3,14,-16,31,66,71,126,18,5
8,-15,-24,3,16,-19,32,68,72,127,16,4
9,-18,-28,4,18,-23,33,70,74,130,16,3
9,-21,-30,5,19,-25,33,71,75,133,16,3
9,-22,-30,5,19,-25,32,72,77,136,18,4
10,-21,-29,5,19,-25,32,74,79,139,22,7
9,-21,-29,5,19,-25,32,76,81,142,25,9
7,-22,-28,7,18,-25,31,77,82,144,26,10
5,-22,-26,8,16,-24,30,77,83,145,27,10
4,-20,-24,8,15,-22,28,77,83,146,27,11
4,-19,-23,7,14,-21,27,77,84,147,27,11
5,-18,-24,6,15,-21,27,78,85,148,28,12
8,-20,-28,5,18,-24,28,80,87,150,29,13
12,-23,-33,5,23,-28,30,83,90,152,31,15
14,-25,-39,5,27,-32,30,85,92,153,32,16
16,-26,-42,4,30,-34,31,87,93,154,34,17
17,-24,-41,2,30,-33,32,89,95,156,36,18
18,-21,-40,1,29,-30,31,89,95,158,38,20
18,-18,-37,0,28,-27,30,88,95,159,40,21
19,-14,-33,-2,26,-24,30,88,95,160,42,23
19,-11,-29,-4,24,-20,29,87,95,161,43,25
18,-10,-27,-4,23,-18,28,86,94,162,45,27
18,-8,-26,-5,22,-17,26,85,93,162,45,28
19,-6,-25,-7,22,-15,24,84,92,161,45,28
21,-4,-25,-9,23,-14,23,84,92,160,45,28
24,-3,-28,-10,26,-15,23,84,92,162,47,30
25,-4,-30,-10,27,-17,24,84,93,164,50,33
24,-6,-30,-9,27,-18,24,83,92,164,51,34
22,-7,-29,-7,25,-18,22,81,89,161,49,33
20,-8,-27,-6,24,-18,21,78,87,158,47,32
20,-8,-27,-6,23,-18,21,77,85,155,45,32
20,-8,-27,-6,24,-18,21,76,84,152,44,31
20,-8,-28,-6,24,-18,20,74,81,150,44,31
18,-9,-28,-5,24,-19,19,70,77,148,44,32
17,-9,-27,-4,23,-18,16,66,73,146,44,31
15,-8,-23,-4,20,-15,13,61,68,144,43,31
13,-4,-17,-4,16,-11,9,56,64,140,42,31
13,0,-13,-6,14,-7,8,54,61,136,42,32
15,1,-12,-8,14,-5,9,52,59,132,41,33
16,1,-14,-9,15,-6,9,50,56,128,40,32
15,1,-14,-8,14,-6,8,47,53,122,37,30
13,0,-12,-7,12,-6,6,43,49,117,35,28
11,0,-11,-7,11,-5,5,39,44,115,34,28
13,3,-9,-8,11,-3,5,36,41,113,33,28
16,7,-8,-12,12,0,5,34,38,111,33,29
20,11,-7,-16,14,2,4,31,36,107,32,29
22,13,-7,-18,15,3,5,29,33,102,29,28
21,13,-7,-17,14,3,6,26,29,97,27,27
20,12,-7,-16,13,3,5,23,24,93,26,26
18,13,-4,-16,11,5,4,19,19,90,25,25
14,17,2,-16,6,10,2,14,14,87,22,23
11,21,9,-16,2,15,1,10,10,83,18,21
10,22,12,-16,0,17,0,7,7,79,15,19
10,20,11,-15,0,16,0,5,4,75,13,18
10,17,8,-14,2,12,1,4,2,70,10,16
10,13,4,-12,3,8,0,2,0,63,6,13
10,10,1,-10,4,5,0,0,-3,59,4,11
10,8,-1,-9,5,4,2,0,-5,58,4,11
9,9,0,-9,5,5,3,-1,-7,59,5,11
8,13,5,-10,2,9,2,-4,-11,60,6,12
6,18,12,-12,-2,15,0,-8,-14,58,5,11
5,20,16,-13,-4,18,-1,-10,-16,54,2,9
5,20,16,-12,-5,18,0,-10,-17,49,-1,6
4,18,14,-11,-5,16,3,-10,-17,46,-4,4
2,14,12,-8,-5,13,3,-10,-18,43,-6,3
0,11,11,-6,-5,11,3,-11,-20,40,-8,1
0,10,11,-5,-6,11,2,-12,-22,39,-9,0
-1,9,10,-4,-5,10,1,-13,-22,39,-9,0
-1,7,9,-3,-5,9,2,-13,-22,38,-9,0
-2,6,9,-2,-5,8,4,-13,-23,37,-9,0
-4,5,9,0,-6,7,4,-14,-25,36,-9,0
-6,3,11,1,-8,7,4,-16,-27,35,-10,-1
-8,3,12,2,-10,8,2,-18,-28,33,-11,-3
-9,4,13,2,-11,9,1,-18,-29,29,-14,-6
-9,3,12,3,-10,8,1,-18,-29,26,-16,-7
-9,0,9,4,-9,5,2,-18,-29,25,-17,-7
-10,-2,8,5,-8,3,3,-18,-29,25,-17,-7
-10,-1,10,5,-10,4,3,-19,-30,25,-16,-7
-10,3,14,3,-11,8,1,-20,-31,25,-15,-7
-9,8,18,0,-13,13,0,-21,-31,25,-13,-5
-7,13,21,-3,-13,17,0,-20,-30,25,-12,-3
-6,12,19,-3,-12,16,1,-19,-29,24,-12,-2
-6,8,15,-1,-10,12,2,-18,-28,24,-13,-3
-8,4,13,1,-10,9,3,-16,-27,24,-14,-4
-8,2,11,2,-9,7,4,-16,-26,23,-16,-6
-7,0,9,3,-8,5,4,-17,-27,22,-18,-8
-6,0,7,3,-7,4,5,-18,-28,22,-19,-9
-7,0,7,3,-7,3,4,-19,-29,23,-18,-8
-8,0,9,4,-8,4,3,-20,-30,25,-15,-7
-10,1,11,4,-10,6,3,-21,-30,26,-13,-5
-11,3,15,4,-13,8,3,-22,-30,26,-12,-4
-13,4,18,4,-15,11,2,-22,-30,23,-14,-6
-13,5,19,4,-16,12,1,-22,-30,20,-18,-8
-13,4,18,4,-15,12,1,-21,-30,18,-20,-9
-12,2,16,4,-14,9,2,-20,-29,17,-21,-10
-12,-1,11,6,-11,5,2,-20,-29,16,-21,-11
-12,-6,7,9,-9,0,2,-19,-29,16,-21,-11
-15,-9,6,12,-10,-2,2,-20,-31,17,-18,-10
-19,-11,8,15,-14,-2,1,-22,-33,18,-15,-7
-22,-11,12,17,-17,0,0,-24,-34,17,-13,-6
-24,-8,16,16,-19,3,-2,-25,-35,14,-15,-7
-24,-6,18,15,-20,6,-2,-25,-35,9,-18,-9
-23,-4,19,14,-20,7,-1,-24,-34,5,-22,-12
-23,-4,19,13,-20,7,-1,-23,-34,2,-25,-14
-23,-5,17,13,-19,5,-1,-23,-34,0,-26,-16
-20,-6,14,13,-17,3,-2,-22,-34,0,-24,-14
-18,-8,10,13,-14,0,-2,-21,-33,0,-21,-12
-17,-10,7,13,-12,-2,-2,-20,-32,0,-19,-10
-16,-11,6,14,-11,-3,-2,-20,-33,0,-18,-9
-18,-12,6,15,-12,-3,-2,-21,-34,-2,-18,-9
-20,-11,9,15,-15,-1,-2,-23,-35,-4,-18,-9
-23,-9,14,16,-18,2,-1,-24,-36,-6,-18,-9
-24,-7,18,15,-21,5,-1,-24,-36,-7,-18,-9
-23,-5,19,14,-21,7,-2,-24,-35,-8,-18,-10
-20,-3,17,12,-19,7,-3,-22,-33,-11,-20,-11
-18,-4,14,11,-16,5,-1,-20,-31,-14,-22,-12
-17,-7,11,12,-14,2,-1,-20,-30,-17,-23,-12
-17,-11,7,14,-12,-2,-2,-20,-30,-18,-22,-12
-18,-14,4,16,-11,-5,-1,-20,-29,-18,-21,-11
-21,-16,5,18,-13,-6,0,-20,-30,-18,-20,-10
-22,-16,7,19,-15,-4,-1,-21,-31,-18,-19,-10
-22,-12,11,17,-16,-1,-1,-21,-30,-18,-18,-9
-21,-7,14,15,-17,3,0,-20,-29,-18,-16,-8
-22,-6,16,14,-18,5,0,-20,-29,-18,-16,-8
-23,-6,17,15,-20,6,-2,-21,-30,-20,-16,-8
-24,-5,18,15,-21,7,-3,-23,-31,-24,-17,-8
-22,-4,18,13,-20,7,-4,-23,-31,-27,-19,-9
-20,-4,16,12,-18,6,-4,-22,-30,-27,-19,-9
-19,-5,14,12,-17,5,-3,-21,-29,-27,-18,-9
-21,-7,14,14,-17,3,-2,-21,-29,-29,-19,-10
-21,-8,13,15,-17,2,-2,-21,-29,-32,-21,-11
-21,-10,11,16,-16,0,-1,-20,-28,-33,-21,-11
-21,-11,9,16,-15,-1,0,-20,-28,-34,-20,-10
-22,-13,8,17,-15,-2,0,-20,-28,-34,-18,-8
-24,-13,11,18,-17,-1,0,-21,-30,-34,-17,-7
-26,-11,16,18,-21,2,-1,-22,-31,-35,-16,-7
-26,-8,18,17,-22,5,-3,-23,-31,-36,-16,-7
-23,-7,17,15,-20,5,-4,-23,-31,-36,-16,-7
-21,-6,15,14,-18,4,-4,-23,-30,-35,-15,-6
-22,-6,15,14,-18,4,-3,-22,-29,-36,-15,-6
-22,-6,15,14,-19,4,-2,-22,-29,-39,-17,-8
-21,-5,15,13,-19,5,-3,-23,-30,-42,-18,-9
-20,-4,15,12,-18,5,-3,-23,-30,-44,-19,-9
-17,-3,14,10,-16,5,-3,-23,-30,-46,-21,-10
-15,-3,12,9,-13,4,-3,-23,-30,-47,-21,-10
-14,-5,9,10,-12,2,-1,-22,-30,-46,-18,-9
-16,-6,9,11,-12,1,0,-23,-31,-43,-15,-7
-19,-6,12,12,-15,3,-1,-24,-32,-43,-13,-6
-22,-4,18,13,-19,7,-3,-26,-33,-45,-13,-7
-24,0,24,12,-24,12,-5,-27,-34,-48,-14,-7
-24,3,26,10,-25,14,-6,-27,-34,-51,-16,-8
-21,2,24,9,-23,13,-5,-26,-33,-55,-19,-10
-19,-1,18,9,-18,8,-3,-24,-32,-57,-21,-11
-18,-7,12,12,-14,2,0,-22,-32,-57,-21,-11
-17,-10,8,13,-12,-1,1,-21,-32,-55,-19,-10
-18,-9,9,13,-13,0,2,-23,-33,-54,-17,-9
-18,-3,15,11,-17,6,2,-25,-35,-54,-16,-9
-19,3,21,8,-20,12,1,-27,-35,-56,-17,-9
-18,7,24,6,-21,15,0,-26,-34,-57,-18,-9
-16,8,23,4,-19,15,0,-25,-33,-57,-18,-9
-13,6,18,3,-15,11,0,-23,-32,-57,-19,-9
-11,2,13,3,-11,7,1,-22,-31,-58,-20,-10
-10,-1,8,5,-9,3,2,-21,-31,-58,-20,-10
-11,-4,6,7,-8,1,4,-21,-32,-55,-17,-8
-13,-2,9,7,-11,3,6,-21,-33,-51,-12,-4
-14,3,17,5,-15,10,7,-23,-34,-50,-10,-3
-14,10,24,2,-19,17,5,-25,-35,-53,-12,-4
-13,14,28,0,-21,21,2,-25,-35,-57,-15,-6
-11,15,27,-2,-19,20,2,-24,-35,-59,-18,-8
-8,13,21,-3,-14,16,3,-23,-33,-61,-19,-8
-5,9,14,-2,-9,11,4,-21,-32,-63,-20,-9
-3,4,7,-1,-5,6,4,-20,-32,-64,-20,-10
-4,1,5,1,-5,3,4,-19,-32,-63,-19,-9
-8,0,7,4,-8,4,5,-21,-33,-61,-16,-6
-13,0,13,6,-13,6,5,-23,-34,-59,-13,-4
-16,2,18,6,-17,10,4,-24,-34,-60,-13,-4
-15,6,22,5,-19,14,2,-26,-35,-64,-16,-6
-13,9,22,2,-17,15,2,-26,-36,-68,-20,-9
-10,10,20,0,-15,15,3,-24,-35,-68,-20,-9
-10,8,18,1,-14,13,5,-22,-34,-68,-20,-9
-13,6,18,3,-15,12,5,-22,-34,-68,-20,-8
-15,5,18,5,-16,12,5,-23,-35,-70,-20,-8
-16,4,19,6,-17,12,4,-25,-37,-71,-20,-8
-16,4,20,7,-18,12,4,-26,-37,-73,-20,-8
-17,3,20,7,-18,11,4,-27,-38,-74,-20,-8
-16,3,20,7,-18,11,4,-29,-39,-74,-19,-7
-15,5,21,5,-18,13,3,-30,-39,-72,-15,-4
-13,8,22,2,-17,15,2,-33,-41,-71,-13,-1
-11,10,21,0,-16,16,0,-37,-45,-71,-11,0
-8,11,19,-1,-14,15,-3,-43,-51,-72,-9,3
-5,12,17,-3,-11,15,-6,-49,-57,-70,-4,8
-4,13,17,-4,-10,15,-10,-54,-62,-66,3,15
-3,15,18,-5,-10,17,-14,-60,-67,-62,12,22
-2,17,21,-7,-11,19,-17,-66,-73,-57,20,29
-1,22,24,-10,-12,23,-22,-72,-78,-53,27,36
2,27,25,-14,-11,26,-29,-78,-83,-50,33,42
7,29,22,-18,-7,25,-36,-82,-87,-48,37,47
13,27,14,-20,0,20,-42,-83,-90,-45,42,52
19,25,5,-22,6,15,-46,-84,-92,-41,48,57
22,23,0,-23,11,12,-48,-85,-95,-40,51,61
24,24,0,-24,11,12,-52,-88,-101,-43,50,61
25,29,3,-27,10,16,-56,-92,-108,-51,45,58
29,35,6,-32,11,20,-60,-95,-115,-62,36,51
33,40,7,-37,13,23,-63,-96,-119,-75,23,40
36,43,6,-40,15,24,-62,-95,-123,-89,6,26
35,40,4,-38,15,22,-55,-93,-125,-105,-11,10
30,34,3,-32,13,18,-45,-92,-128,-122,-30,-6
21,24,3,-23,9,14,-35,-92,-131,-139,-47,-21
11,13,2,-12,4,8,-27,-91,-134,-152,-59,-33
1,4,3,-2,-1,4,-20,-89,-133,-158,-66,-41
-9,-2,7,6,-8,3,-14,-85,-130,-158,-68,-44
-19,-4,15,11,-16,5,-11,-82,-124,-154,-67,-45
-26,-4,22,15,-24,9,-10,-79,-118,-150,-66,-46
-32,-5,26,18,-29,10,-10,-75,-111,-148,-68,-48
-33,-8,25,20,-29,8,-10,-68,-101,-146,-69,-51
-31,-12,19,21,-25,3,-10,-60,-90,-141,-68,-51
-29,-17,11,23,-20,-2,-7,-50,-79,-134,-64,-48
-28,-22,6,25,-17,-7,-4,-41,-68,-126,-59,-44
-29,-25,4,27,-17,-9,-1,-34,-59,-116,-52,-38
-31,-25,6,28,-18,-9,1,-29,-51,-107,-44,-33
-31,-22,9,27,-20,-7,2,-25,-43,-98,-38,-28
-31,-19,11,25,-21,-4,3,-20,-37,-92,-34,-25
-28,-16,13,22,-20,-2,5,-16,-30,-88,-31,-23
-25,-12,13,19,-19,0,8,-11,-24,-84,-29,-21
-23,-10,13,16,-18,1,10,-6,-18,-79,-26,-18
-21,-10,11,15,-16,1,11,-1,-13,-75,-22,-16
-19,-11,9,15,-14,0,12,2,-9,-72,-20,-14
-18,-12,6,15,-12,-3,14,5,-6,-70,-18,-13
-19,-15,4,16,-11,-5,16,7,-4,-68,-17,-12
-20,-18,2,18,-11,-7,16,7,-3,-67,-17,-12
-22,-19,2,20,-12,-8,15,7,-2,-67,-17,-13
-23,-21,2,21,-12,-9,15,7,-1,-67,-18,-13
-23,-22,1,22,-12,-10,16,9,0,-67,-19,-14
-22,-22,0,22,-10,-11,17,11,1,-65,-17,-13
-21,-23,-1,22,-9,-12,18,13,3,-63,-15,-11
-20,-23,-2,21,-9,-12,19,14,3,-62,-14,-10
-20,-22,-1,21,-9,-11,20,14,4,-60,-12,-9
-19,-20,0,19,-10,-10,20,14,4,-59,-11,-8
-17,-16,0,17,-9,-8,20,14,6,-58,-11,-7
-14,-13,0,14,-7,-6,21,15,8,-57,-9,-6
-11,-10,0,11,-6,-5,22,17,10,-56,-8,-5
-9,-9,0,9,-5,-5,24,18,11,-56,-8,-6
-9,-8,1,9,-5,-4,25,19,12,-57,-9,-6
-9,-8,1,9,-5,-4,24,20,13,-56,-8,-5
-9,-9,0,9,-5,-5,23,21,15,-54,-6,-4
-10,-12,-1,11,-4,-7,23,22,16,-53,-5,-3
-12,-14,-2,14,-5,-8,23,23,17,-53,-6,-4
-14,-15,-1,15,-7,-8,23,22,17,-54,-7,-4
-14,-15,0,15,-7,-8,23,22,17,-56,-8,-5
-13,-14,0,14,-7,-7,23,23,19,-57,-8,-5
-13,-14,-1,13,-6,-7,23,25,22,-57,-7,-5
-13,-14,-1,14,-6,-8,24,26,23,-57,-6,-4
-13,-14,-2,14,-6,-8,25,27,24,-56,-5,-3
-11,-14,-2,13,-5,-8,25,28,26,-55,-4,-2
-9,-13,-3,11,-3,-8,24,28,28,-54,-3,-1
-7,-12,-4,9,-2,-8,24,29,30,-55,-4,-1
-6,-11,-4,8,-1,-7,25,31,32,-56,-6,-3
-6,-10,-4,8,-1,-7,26,33,34,-57,-7,-4
-6,-11,-5,9,-1,-8,26,34,36,-56,-7,-4
-6,-13,-5,10,-1,-9,25,35,38,-53,-6,-3
-6,-14,-7,10,0,-10,25,37,40,-51,-5,-3
-5,-14,-9,10,1,-12,26,39,42,-47,-5,-2
-4,-15,-10,10,2,-13,27,40,45,-44,-4,-1
-5,-15,-11,11,2,-13,27,41,47,-43,-4,-2
-6,-16,-11,11,2,-14,27,42,49,-41,-4,-2
-6,-17,-11,12,2,-14,26,43,51,-40,-3,-1
-6,-18,-12,12,3,-15,27,45,53,-39,-2,0
-7,-19,-12,13,3,-16,27,46,55,-37,-1,0
-8,-20,-12,14,1,-16,27,47,57,-35,0,1
-10,-22,-11,16,0,-16,26,48,58,-34,2,2
-11,-23,-12,17,0,-17,24,48,59,-32,3,3
-12,-24,-12,18,0,-18,23,49,61,-31,4,4
-12,-26,-13,19,0,-20,23,50,64,-30,4,4
-12,-27,-15,19,1,-21,23,52,67,-29,4,5
-11,-28,-17,19,3,-23,23,54,69,-28,5,5
-11,-29,-18,20,3,-24,23,55,71,-26,6,5
-12,-30,-18,21,3,-24,23,57,72,-25,6,5
-13,-31,-19,23,3,-25,23,59,74,-24,5,4
-13,-33,-20,24,3,-27,23,60,76,-23,5,4
-13,-35,-22,24,4,-29,23,62,77,-21,6,5
-13,-35,-22,24,4,-29,23,63,79,-18,8,6
-12,-33,-21,22,4,-27,23,65,82,-14,10,8
-10,-30,-20,20,4,-25,23,67,84,-9,14,10
-9,-29,-20,19,5,-25,22,69,86,-4,18,13
-9,-30,-21,19,6,-26,22,70,87,-1,20,15
-9,-30,-22,19,7,-26,23,71,88,0,22,16
-7,-28,-21,18,7,-24,25,72,89,2,23,17
-5,-25,-20,15,7,-22,25,73,90,4,25,19
-3,-23,-20,13,8,-21,24,74,92,7,27,20
-2,-22,-20,12,9,-21,24,74,92,9,29,21
-1,-21,-19,11,9,-21,23,75,93,10,30,22
-1,-21,-20,10,9,-21,23,75,93,11,30,22
0,-21,-21,10,11,-21,23,76,94,12,31,23
0,-21,-22,10,12,-22,22,76,94,13,33,25
1,-21,-23,10,13,-22,21,76,93,15,35,27
3,-19,-23,8,13,-21,20,76,93,16,37,28
5,-17,-22,6,14,-20,20,76,93,17,38,30
6,-16,-22,5,14,-19,20,76,92,18,39,31
6,-16,-22,4,14,-20,20,74,90,19,41,33
5,-16,-22,5,14,-19,19,73,88,20,43,34
4,-16,-20,5,12,-18,18,71,87,19,43,35
3,-14,-18,5,11,-16,18,70,85,18,42,34
4,-13,-18,4,12,-15,17,68,83,15,40,33
6,-12,-18,2,12,-15,17,67,81,13,39,33
7,-11,-18,1,13,-14,16,65,79,13,39,33
8,-9,-17,0,13,-13,14,62,76,12,39,34
10,-7,-17,-2,13,-12,13,60,74,12,40,35
10,-5,-15,-3,13,-10,13,57,72,10,40,35
10,-2,-11,-4,11,-6,11,54,68,8,39,35
9,1,-9,-6,9,-3,10,52,66,6,38,35
10,2,-8,-6,9,-2,9,50,64,4,37,35
11,1,-9,-7,10,-3,8,47,61,1,36,35
12,1,-10,-7,12,-5,8,44,57,-2,35,34
11,0,-10,-6,11,-5,7,41,53,-6,33,33
9,0,-8,-5,9,-5,6,37,49,-9,32,33
7,0,-7,-4,7,-4,4,33,45,-11,32,33
8,3,-5,-6,7,-2,3,30,42,-12,33,34
9,5,-4,-7,7,0,4,28,39,-14,33,34
9,7,-2,-8,6,3,4,24,35,-18,31,34
7,8,1,-8,4,5,3,19,30,-23,29,32
6,9,3,-8,2,7,1,15,25,-30,25,30
5,10,5,-8,1,7,0,11,21,-36,20,27
4,9,5,-7,0,7,0,9,18,-41,17,24
2,6,5,-5,-1,5,0,6,15,-45,14,21
0,4,5,-2,-2,4,0,2,11,-49,12,19
-2,4,6,-1,-3,5,-1,0,8,-51,11,18
-3,4,7,0,-4,6,-1,-2,5,-54,10,17
-4,5,8,0,-5,7,-1,-5,2,-57,9,16
-5,5,10,0,-7,8,-1,-7,-1,-60,7,15
-7,4,13,1,-10,8,-2,-11,-5,-65,4,13
-10,4,15,2,-12,9,-3,-14,-7,-69,1,11
-10,4,15,2,-13,9,-3,-14,-8,-71,0,10
-10,4,15,2,-13,9,-2,-14,-9,-72,-1,9
-9,5,15,1,-12,10,-1,-14,-9,-73,-2,7
-8,6,15,1,-12,11,0,-15,-10,-74,-3,6
-8,7,16,0,-12,12,0,-16,-11,-75,-3,5
-7,8,16,0,-11,12,0,-17,-12,-76,-4,5
-6,9,16,-1,-11,12,0,-18,-13,-78,-5,4
-7,9,17,-2,-12,13,0,-19,-14,-80,-6,3
-7,9,17,-1,-12,12,1,-19,-15,-81,-7,3
-8,7,15,0,-12,10,1,-19,-15,-82,-7,3
-10,4,13,3,-12,8,2,-20,-16,-82,-7,2
-12,2,13,5,-13,7,1,-20,-17,-83,-8,0
-13,1,14,7,-14,7,1,-21,-18,-84,-9,0
-14,0,14,8,-15,6,2,-22,-18,-85,-10,-1
-15,-1,15,8,-15,6,3,-22,-19,-85,-11,-2
-16,0,16,8,-16,7,3,-23,-19,-86,-11,-2
-16,2,17,6,-17,9,3,-23,-19,-85,-12,-2
-16,3,18,5,-17,10,3,-23,-19,-85,-13,-2
-16,3,18,6,-17,10,3,-23,-19,-86,-14,-3
-16,1,17,7,-17,9,3,-24,-20,-86,-15,-4
-16,0,17,8,-16,8,4,-24,-20,-86,-15,-4
-16,0,17,8,-16,8,5,-24,-20,-85,-14,-4
-16,0,17,8,-16,8,5,-24,-19,-84,-13,-3
-16,0,16,7,-16,8,5,-23,-19,-84,-14,-3
-16,0,16,7,-16,8,6,-23,-19,-85,-15,-4
-16,0,16,7,-16,7,6,-23,-20,-86,-16,-5
-16,0,16,7,-15,7,6,-23,-20,-86,-17,-6
-15,1,16,6,-15,7,6,-23,-20,-85,-16,-5
-13,2,15,5,-13,8,6,-23,-20,-83,-15,-5
-11,3,15,3,-12,8,6,-21,-19,-82,-13,-4
-9,5,15,1,-11,10,7,-19,-18,-81,-12,-3
-8,7,15,0,-12,11,8,-18,-18,-80,-11,-3
-8,7,16,0,-12,12,8,-18,-18,-80,-11,-2
-10,7,17,1,-13,12,8,-19,-19,-79,-10,-1
-11,6,17,2,-14,12,7,-19,-19,-77,-8,0
-11,8,18,1,-15,13,7,-19,-19,-76,-7,0
-9,10,19,0,-14,15,7,-19,-19,-75,-7,1
-8,11,19,-1,-14,15,8,-19,-19,-75,-8,0
-8,9,18,-1,-13,13,9,-19,-19,-76,-9,0
-8,7,16,0,-12,12,9,-19,-20,-76,-10,-2
-9,6,16,1,-12,11,9,-19,-20,-77,-11,-3
-9,5,15,1,-12,10,9,-18,-20,-77,-11,-3
-10,4,15,2,-12,10,9,-18,-21,-77,-12,-4
-11,3,14,4,-12,9,9,-19,-22,-77,-12,-4
-12,2,14,5,-12,8,9,-19,-22,-77,-13,-5
-12,2,14,5,-12,8,9,-19,-22,-76,-12,-4
-11,3,14,4,-12,9,9,-19,-22,-75,-11,-4
-9,5,15,2,-12,10,9,-19,-22,-74,-10,-3
-9,6,15,1,-12,10,9,-18,-22,-73,-9,-3
-8,6,14,0,-11,10,10,-18,-22,-72,-9,-3
-7,7,14,0,-11,10,11,-17,-21,-71,-8,-3
-7,7,14,0,-10,10,12,-16,-21,-70,-8,-2
-8,6,15,0,-11,10,12,-16,-21,-69,-7,-2
-10,5,16,2,-12,10,12,-16,-21,-68,-6,-2
-11,4,17,3,-14,11,11,-17,-21,-68,-6,-3
-12,4,17,4,-14,11,11,-17,-21,-68,-7,-3
-13,3,17,4,-15,10,10,-18,-21,-68,-8,-4
-14,2,17,5,-16,10,9,-18,-21,-67,-8,-4
-14,2,17,5,-16,10,9,-18,-21,-65,-8,-4
-14,2,17,5,-15,10,9,-18,-20,-63,-7,-3
-14,2,17,5,-15,10,10,-17,-19,-61,-6,-2
-15,1,17,6,-15,9,10,-17,-18,-60,-5,-2
-15,0,17,7,-15,9,10,-16,-17,-59,-5,-2
-15,1,17,7,-15,9,11,-16,-17,-58,-4,-1
-15,2,18,6,-16,10,11,-16,-17,-57,-4,-1
-14,3,18,5,-15,10,10,-16,-17,-56,-3,-1
-13,4,17,4,-14,10,10,-16,-16,-56,-3,-1
-12,4,16,3,-14,10,11,-16,-16,-55,-3,0
-11,6,17,2,-13,11,11,-16,-16,-54,-2,0
-11,7,18,1,-14,13,10,-16,-17,-54,-1,0
-13,6,20,3,-16,13,9,-17,-17,-54,-1,0
-15,6,21,4,-18,14,9,-17,-17,-55,-2,0
-16,5,22,5,-19,14,9,-17,-16,-55,-1,0
-16,5,21,5,-18,13,10,-17,-16,-55,-1,-1
-15,4,19,5,-17,11,10,-17,-16,-56,-2,-2
-15,3,17,5,-16,10,9,-17,-16,-57,-3,-3
-15,2,16,5,-15,9,9,-17,-16,-57,-3,-3
-15,1,15,6,-15,8,9,-17,-16,-57,-2,-3
-14,1,15,6,-14,8,8,-17,-16,-57,-2,-3
-14,0,14,6,-14,7,8,-17,-15,-56,-1,-3
-14,0,14,6,-14,7,7,-17,-15,-56,-1,-3
-16,-1,15,8,-15,7,7,-18,-16,-56,-1,-3
-18,-2,16,9,-17,7,7,-19,-17,-57,-1,-4
-18,-2,16,9,-17,7,7,-20,-18,-57,-1,-4
-18,-1,16,9,-17,7,7,-21,-18,-57,-1,-3
-17,0,16,8,-17,8,8,-21,-19,-57,0,-3
-17,0,17,8,-17,8,7,-22,-20,-58,0,-3
-17,0,17,8,-17,9,7,-23,-20,-58,0,-3
-16,1,17,8,-17,9,6,-23,-21,-57,0,-3
-16,2,18,7,-17,10,6,-23,-21,-55,0,-2
-16,3,19,7,-18,11,7,-23,-21,-54,0,-1
-17,3,20,7,-18,11,7,-23,-22,-53,0,-1
-18,2,20,8,-19,11,7,-23,-22,-52,-1,-2
-19,0,20,9,-20,10,8,-23,-22,-51,-2,-3
-21,-2,19,11,-20,8,9,-23,-23,-50,-3,-4
-22,-3,19,12,-20,8,10,-23,-23,-49,-3,-5
-21,-2,19,12,-20,8,11,-23,-24,-47,-3,-5
-21,-1,19,11,-20,8,12,-23,-24,-45,-4,-5
-21,-1,19,11,-20,9,12,-23,-24,-43,-4,-6
-20,-1,19,11,-20,9,11,-23,-24,-41,-5,-6
-20,-1,19,11,-20,9,11,-23,-24,-39,-5,-7
-21,-2,19,11,-20,8,11,-24,-25,-38,-5,-7
-21,-3,18,12,-20,7,10,-24,-26,-36,-5,-7
-22,-4,18,13,-20,7,9,-25,-26,-34,-5,-7
-24,-5,19,14,-22,7,8,-26,-27,-32,-5,-7
-25,-6,19,15,-22,6,7,-27,-28,-30,-5,-7
-27,-7,18,17,-23,5,6,-28,-28,-28,-5,-7
-27,-9,18,18,-23,4,7,-28,-29,-26,-5,-8
-28,-10,18,19,-23,4,7,-28,-29,-25,-6,-8
-28,-11,18,19,-23,3,7,-28,-30,-24,-6,-8
-28,-11,17,19,-23,3,7,-28,-30,-22,-5,-8
-29,-12,17,20,-23,2,6,-28,-30,-20,-5,-8
-30,-13,17,21,-23,2,6,-28,-30,-19,-5,-8
-31,-14,17,22,-24,2,6,-28,-31,-17,-4,-8
-32,-13,18,22,-25,2,6,-28,-31,-16,-4,-8
-33,-13,19,22,-26,3,6,-29,-31,-15,-5,-8
-33,-13,20,23,-26,3,4,-30,-32,-15,-6,-8
-34,-15,19,24,-26,2,3,-31,-33,-15,-7,-9
-34,-16,18,25,-26,1,3,-31,-34,-16,-8,-11
-34,-16,18,25,-26,1,3,-31,-34,-16,-9,-11
-33,-15,18,23,-25,1,4,-31,-34,-15,-8,-11
-31,-14,18,22,-24,2,5,-31,-34,-14,-7,-10
-30,-13,18,21,-24,2,4,-31,-35,-13,-6,-9
-30,-12,18,21,-24,3,4,-31,-35,-13,-5,-9
-30,-11,19,21,-24,4,4,-32,-36,-13,-5,-9
-30,-10,20,20,-25,5,3,-33,-37,-13,-4,-8
-29,-8,20,18,-24,6,2,-35,-38,-12,-3,-7
-28,-8,21,18,-24,6,1,-38,-40,-10,-1,-5
-28,-8,20,18,-24,5,-1,-43,-44,-8,1,-2
-27,-9,18,18,-23,4,-5,-48,-49,-5,5,1
-26,-8,18,17,-22,5,-8,-54,-55,-2,10,5
-25,-5,19,15,-22,7,-11,-59,-60,2,16,11
-23,-1,21,12,-22,9,-14,-64,-64,7,23,17
-19,2,22,8,-20,12,-19,-68,-67,14,31,25
-14,7,21,3,-18,14,-23,-73,-70,20,39,32
-9,11,20,-1,-15,15,-29,-77,-73,26,47,39
-4,13,18,-4,-11,15,-34,-81,-76,32,54,46
0,14,14,-7,-7,13,-40,-82,-78,36,60,51
4,14,10,-9,-3,12,-44,-83,-80,39,63,54
8,16,7,-12,0,12,-48,-84,-84,39,64,56
12,18,5,-15,4,12,-53,-87,-90,34,63,56
17,21,4,-19,7,12,-59,-91,-98,26,58,54
22,23,1,-22,10,12,-64,-94,-105,15,51,50
26,23,-2,-24,14,9,-65,-94,-111,2,41,41
26,21,-4,-24,16,7,-63,-95,-117,-13,26,29
22,19,-3,-21,13,7,-57,-96,-122,-31,9,14
14,17,2,-16,6,9,-49,-98,-128,-50,-8,0
4,13,8,-8,-2,10,-41,-100,-133,-68,-25,-14
-6,6,11,0,-9,8,-33,-102,-136,-82,-38,-26
-16,-2,13,10,-14,5,-27,-101,-136,-91,-47,-35
-25,-11,14,18,-19,1,-21,-98,-132,-95,-51,-40
-33,-17,15,25,-23,-1,-15,-92,-125,-94,-53,-43
-39,-22,17,30,-27,-2,-11,-85,-116,-91,-52,-45
-44,-24,19,34,-31,-2,-8,-78,-107,-88,-51,-45
-46,-25,21,35,-33,-2,-6,-71,-97,-83,-48,-43
-47,-24,22,35,-34,-1,-4,-64,-86,-76,-43,-40
-47,-23,22,35,-34,-1,-3,-56,-75,-69,-38,-37
-48,-24,22,36,-35,-2,-3,-50,-64,-63,-34,-34
-49,-26,23,38,-36,-2,-1,-43,-55,-57,-30,-31
-50,-27,23,38,-36,-2,1,-37,-46,-51,-26,-29
-49,-26,24,38,-36,-1,5,-31,-37,-46,-21,-26
-48,-25,24,36,-36,0,8,-24,-28,-41,-18,-23
-48,-25,23,36,-35,0,11,-18,-21,-37,-15,-21
-47,-25,22,35,-34,-1,13,-13,-14,-33,-12,-20
-46,-25,20,36,-33,-3,14,-8,-9,-30,-10,-18
-46,-27,18,37,-32,-4,15,-5,-5,-27,-8,-17
-46,-28,17,37,-32,-6,17,-2,-1,-24,-6,-15
-46,-30,16,38,-31,-7,18,0,1,-22,-5,-13
-46,-32,15,39,-30,-8,19,2,3,-19,-3,-12
-47,-33,14,39,-30,-9,20,4,6,-18,-3,-12
-47,-34,13,40,-30,-9,21,6,8,-18,-4,-12
-47,-33,12,40,-30,-10,21,8,10,-17,-3,-12
-45,-32,11,39,-28,-10,22,9,12,-14,-2,-11
-44,-31,11,38,-28,-10,23,11,13,-12,-1,-10
-43,-31,12,38,-28,-9,24,13,15,-10,0,-9
-43,-31,12,38,-28,-9,24,14,16,-8,1,-8
-42,-30,12,37,-27,-9,24,15,17,-7,1,-8
-41,-29,13,35,-27,-8,24,16,18,-6,2,-7
-41,-29,13,34,-27,-7,25,17,19,-5,2,-7
-41,-29,12,35,-27,-8,25,18,20,-4,2,-7
-42,-30,11,35,-27,-9,24,18,21,-3,1,-8
-41,-30,10,36,-26,-10,24,19,22,-1,1,-8
-41,-31,10,37,-26,-11,24,20,23,0,0,-8
-41,-32,10,37,-26,-11,24,20,24,2,1,-8
-41,-31,10,36,-25,-10,24,21,26,5,2,-7
-39,-29,11,34,-25,-9,25,23,27,8,3,-7
-38,-29,10,33,-24,-9,25,24,28,10,3,-6
-38,-29,9,34,-24,-10,25,25,29,11,3,-7
-39,-31,8,35,-24,-11,25,26,30,13,3,-7
-40,-32,8,36,-24,-12,26,27,31,16,3,-6
-42,-33,8,38,-25,-13,26,28,32,18,4,-6
-43,-35,8,39,-25,-13,26,28,33,21,4,-7
-44,-35,9,40,-26,-13,25,28,33,22,4,-7
-44,-35,10,40,-26,-13,24,28,34,24,4,-8
-44,-35,10,39,-27,-12,24,29,35,26,4,-8
-45,-35,10,40,-27,-12,23,30,36,28,4,-8
-45,-36,10,40,-28,-13,22,31,38,30,4,-7
-45,-36,9,40,-27,-13,22,33,40,32,5,-6
-44,-36,8,40,-26,-14,23,36,43,35,7,-5
-41,-35,6,38,-24,-14,24,38,46,39,9,-4
-39,-34,5,36,-22,-14,25,41,49,41,10,-3
-37,-33,4,34,-20,-14,25,43,52,43,11,-3
-35,-32,4,33,-19,-14,26,44,54,43,11,-3
-35,-32,3,34,-19,-14,26,46,55,43,12,-2
-35,-32,3,34,-20,-14,25,47,57,43,13,-2
-35,-31,3,33,-20,-13,25,48,59,43,14,-1
-34,-30,3,32,-19,-13,26,50,62,43,15,-1
-33,-29,3,32,-19,-13,26,52,64,42,16,0
-33,-30,3,32,-18,-13,26,54,67,42,16,0
-33,-31,2,32,-18,-14,26,56,69,40,17,0
-33,-32,1,33,-17,-15,27,58,71,39,18,0
-32,-32,0,32,-16,-16,27,60,74,38,19,1
-30,-31,0,31,-15,-15,28,63,77,37,20,2
-29,-29,0,29,-14,-15,29,65,80,36,22,2
-27,-28,-1,28,-13,-15,29,68,83,34,23,3
-26,-28,-2,27,-12,-15,30,70,85,33,24,3
-24,-28,-4,26,-10,-16,31,73,88,33,25,4
-22,-27,-5,25,-8,-16,32,76,92,33,28,6
-21,-27,-5,24,-8,-16,33,79,95,34,30,8
-21,-27,-6,23,-7,-16,33,81,97,34,31,9
-20,-28,-8,24,-6,-18,33,82,98,34,32,10
-20,-29,-8,24,-6,-19,33,84,100,34,33,11
-21,-30,-9,25,-6,-20,33,85,102,35,34,12
-21,-31,-9,26,-6,-20,33,87,103,36,34,12
-22,-32,-10,26,-6,-21,32,88,105,37,35,13
-22,-32,-10,27,-6,-21,31,90,106,38,36,13
-22,-33,-10,27,-5,-22,31,91,108,39,36,13
-21,-33,-11,27,-5,-23,30,92,109,41,37,13
-21,-34,-12,27,-4,-23,30,93,110,43,38,14
-22,-35,-13,28,-4,-24,30,93,110,45,39,15
-23,-36,-13,29,-4,-24,29,93,110,47,40,17
-24,-37,-12,30,-5,-25,27,93,110,50,42,18
-24,-37,-12,31,-5,-25,26,93,110,52,43,20
-24,-37,-12,30,-5,-24,25,93,110,55,44,21
-23,-35,-12,29,-5,-24,24,92,110,57,44,21
-22,-34,-12,27,-5,-23,23,92,109,58,44,22
-21,-32,-12,26,-5,-22,22,91,109,60,45,22
-19,-29,-10,23,-5,-20,22,90,108,62,46,24
-16,-25,-9,20,-4,-17,21,89,107,65,47,25
-14,-22,-8,18,-3,-15,21,89,107,67,48,26
-13,-22,-8,18,-3,-15,21,87,106,68,48,27
-14,-22,-9,18,-2,-16,20,86,104,69,48,27
-14,-23,-9,19,-2,-16,19,84,102,70,47,27
-14,-23,-9,18,-2,-16,18,82,100,70,47,27
-13,-22,-9,17,-2,-16,17,80,97,70,47,27
-12,-20,-9,16,-2,-15,16,77,95,70,47,28
-10,-18,-8,14,-1,-13,14,75,92,71,47,28
-8,-15,-7,12,-1,-11,13,72,89,71,47,29
-7,-13,-5,10,-1,-9,12,69,86,71,46,30
-7,-11,-3,10,-2,-8,11,66,83,71,46,30
-8,-10,-1,9,-3,-7,9,62,78,71,44,30
-8,-9,0,9,-4,-5,7,58,73,70,42,30
-9,-8,2,9,-6,-4,6,54,69,68,40,30
-11,-6,4,9,-8,-2,5,50,65,67,38,29
-12,-5,7,8,-10,0,4,46,60,65,36,28
-12,-4,8,8,-11,2,3,42,56,63,34,27
-12,-2,9,7,-11,3,2,39,53,61,33,26
-12,-1,10,6,-11,4,1,36,49,59,32,26
-11,0,11,5,-11,5,0,32,45,56,31,25
-10,1,11,4,-10,6,0,28,40,54,30,25
-8,3,11,2,-10,7,0,25,36,52,29,25
-7,5,12,0,-10,8,0,22,32,49,28,25
-6,6,12,0,-10,9,-1,18,28,46,26,24
-6,7,13,0,-10,10,-3,15,24,44,25,23
-6,7,13,0,-10,10,-4,11,20,41,23,22
-8,6,14,0,-11,10,-4,8,17,37,21,21
-10,6,16,2,-13,11,-5,5,14,34,19,19
-13,5,18,3,-15,11,-6,2,10,31,18,17
-15,5,20,5,-18,12,-7,-1,6,27,16,15
-17,5,22,6,-20,13,-8,-5,2,23,13,13
-19,5,23,7,-21,14,-9,-8,-1,19,11,11
-19,5,25,7,-22,15,-10,-10,-3,15,8,10
-19,6,26,6,-23,17,-10,-11,-5,12,7,9
-18,8,26,5,-22,17,-9,-12,-6,10,6,8
-17,9,26,4,-21,17,-9,-13,-7,8,5,7
-17,9,26,4,-21,17,-9,-14,-8,7,5,6
-16,9,25,3,-21,17,-8,-15,-9,6,4,6
-16,8,25,4,-21,17,-8,-16,-10,5,4,5
-17,8,26,4,-22,16,-7,-17,-12,3,3,4
-18,7,26,5,-22,16,-7,-18,-13,1,2,3
-19,7,26,5,-23,17,-7,-19,-14,0,1,1
-20,6,26,6,-23,17,-7,-20,-15,-1,0,0
-21,6,27,7,-24,16,-8,-20,-16,-2,-1,0
-22,5,27,8,-24,16,-9,-21,-16,-3,-2,-1
-22,4,27,9,-24,15,-9,-21,-17,-4,-3,-2
-21,5,26,8,-24,15,-9,-21,-17,-4,-4,-2
-21,5,26,8,-23,15,-8,-21,-17,-5,-4,-2
-20,5,25,8,-23,14,-8,-21,-17,-5,-4,-2
-19,4,24,7,-22,14,-8,-22,-18,-5,-4,-2
-18,5,23,6,-21,14,-8,-21,-18,-4,-4,-2
-17,6,23,5,-20,15,-8,-21,-17,-3,-4,-2
-17,6,23,5,-20,15,-8,-20,-16,-1,-3,-2
-18,7,25,5,-21,16,-8,-20,-16,0,-3,-2
-19,7,26,5,-22,16,-8,-21,-17,0,-3,-2
-20,7,26,6,-23,16,-8,-21,-18,0,-4,-3
-20,5,26,7,-23,15,-9,-22,-18,0,-4,-3
-19,5,25,7,-22,15,-9,-22,-18,0,-4,-3
-18,5,24,6,-22,15,-8,-21,-18,1,-4,-3
-18,5,23,5,-21,14,-7,-21,-17,1,-3,-2
-17,5,22,6,-20,13,-7,-20,-17,1,-4,-3
-17,5,21,6,-20,13,-7,-20,-17,1,-4,-3
-17,5,21,5,-19,13,-8,-20,-17,2,-4,-3
-16,6,22,5,-19,13,-8,-20,-17,2,-4,-3
-17,6,22,5,-20,14,-8,-20,-18,2,-5,-4
-18,5,23,6,-21,14,-9,-20,-18,2,-6,-5
-19,4,23,7,-22,14,-10,-21,-19,2,-7,-6
-21,2,23,9,-22,13,-11,-22,-20,3,-8,-7
-22,1,23,10,-22,12,-12,-23,-21,4,-8,-7
-22,1,23,10,-22,12,-12,-23,-21,5,-8,-7
-21,2,23,9,-22,13,-12,-23,-22,7,-7,-7
-22,2,23,9,-22,13,-13,-23,-22,9,-7,-7
-23,2,23,10,-23,12,-14,-23,-22,10,-8,-7
-23,1,23,10,-23,12,-14,-23,-22,11,-8,-8
-23,0,23,11,-23,11,-15,-23,-23,12,-9,-8
-23,-1,22,12,-23,11,-15,-23,-23,12,-9,-9
-24,-2,22,13,-23,10,-16,-23,-24,13,-10,-9
-26,-4,21,15,-24,8,-16,-23,-24,14,-11,-10
-27,-6,20,16,-24,7,-17,-23,-25,15,-12,-10
-27,-7,19,17,-23,6,-17,-24,-25,17,-12,-10
-27,-8,19,17,-23,5,-17,-24,-26,18,-11,-10
-28,-9,19,18,-23,5,-17,-24,-26,20,-11,-9
-28,-9,19,18,-24,5,-17,-24,-26,20,-11,-9
-29,-8,20,18,-24,5,-18,-24,-26,20,-11,-9
-29,-8,20,18,-24,6,-18,-24,-26,20,-11,-9
-29,-7,21,18,-25,6,-19,-24,-26,21,-11,-9
-30,-7,22,18,-26,7,-19,-24,-26,21,-11,-9
-32,-8,23,19,-27,7,-20,-25,-26,21,-12,-9
-33,-8,23,20,-28,7,-20,-25,-26,21,-12,-10
-32,-9,23,20,-28,6,-20,-25,-25,21,-13,-10
-31,-8,22,19,-27,6,-21,-25,-25,21,-13,-9
-29,-8,21,18,-25,6,-21,-24,-24,22,-12,-9
-29,-8,20,18,-25,6,-22,-23,-23,22,-12,-8
-28,-8,20,18,-24,6,-22,-23,-23,23,-11,-8
-27,-7,20,17,-24,6,-22,-23,-23,23,-10,-7
-25,-5,20,15,-23,7,-22,-23,-22,23,-10,-6
-24,-3,20,13,-23,8,-21,-22,-20,23,-9,-6
-24,-2,21,12,-22,9,-21,-22,-19,23,-9,-5
-23,-2,21,12,-22,9,-21,-22,-19,22,-8,-5
-23,-1,22,11,-22,10,-21,-22,-18,22,-7,-5
-21,0,22,10,-21,10,-21,-22,-18,21,-7,-4
-21,0,21,10,-21,10,-21,-22,-18,20,-7,-5
-22,-1,20,11,-21,9,-22,-22,-18,20,-8,-6
-23,-3,20,13,-21,7,-22,-23,-18,20,-8,-7
-25,-5,19,14,-22,6,-23,-23,-18,20,-9,-7
-25,-5,19,15,-22,6,-23,-24,-18,20,-8,-7
-24,-4,19,14,-22,7,-23,-24,-18,21,-8,-6
-23,-3,19,13,-21,8,-23,-24,-18,21,-7,-6
-23,-2,20,12,-21,9,-24,-24,-18,21,-7,-6
-22,-1,21,11,-21,9,-25,-25,-19,21,-8,-6
-22,-1,20,11,-21,10,-25,-25,-19,21,-9,-7
-21,0,21,10,-21,10,-25,-25,-18,23,-9,-7
-20,2,21,8,-21,11,-25,-25,-18,25,-9,-7
-19,3,22,7,-20,12,-26,-25,-18,25,-9,-7
-18,4,22,6,-20,13,-26,-26,-19,25,-10,-7
-17,5,22,5,-20,13,-26,-26,-20,25,-10,-7
-16,6,22,5,-19,13,-26,-27,-21,25,-10,-7
-16,6,21,5,-18,13,-25,-27,-22,24,-10,-7
-15,5,21,5,-18,13,-25,-27,-22,24,-10,-7
-15,5,21,5,-18,12,-25,-27,-22,23,-10,-7
-16,4,20,6,-18,12,-24,-27,-22,21,-9,-7
-17,2,19,7,-18,11,-24,-27,-23,20,-9,-7
-18,1,19,8,-18,10,-24,-28,-23,18,-10,-7
-19,0,19,9,-19,9,-24,-28,-24,16,-10,-8
-20,0,19,10,-19,9,-23,-28,-25,15,-10,-8
-20,0,20,11,-20,9,-23,-28,-25,15,-10,-8
-20,0,20,10,-20,10,-22,-29,-25,14,-11,-8
-20,0,21,10,-20,10,-22,-29,-25,14,-11,-8
-20,1,21,9,-20,11,-22,-29,-25,13,-11,-9
-20,0,20,10,-20,10,-22,-29,-26,12,-13,-10
-21,-2,19,11,-20,8,-22,-30,-27,12,-14,-11
-22,-4,18,13,-20,7,-22,-30,-28,12,-14,-11
-23,-5,18,14,-20,6,-22,-30,-28,12,-14,-11
-23,-6,18,14,-20,5,-22,-30,-29,13,-14,-11
-24,-7,18,15,-21,5,-22,-31,-30,13,-14,-12
-26,-8,18,17,-22,4,-23,-32,-31,12,-14,-12
-27,-9,18,18,-23,4,-24,-33,-32,11,-15,-13
-29,-9,19,19,-23,4,-25,-34,-33,11,-15,-13
-30,-10,19,19,-24,4,-25,-34,-33,11,-16,-13
-30,-10,19,19,-25,4,-25,-34,-33,11,-16,-13
-29,-9,19,19,-24,4,-25,-33,-33,11,-16,-13
-28,-9,19,18,-23,4,-25,-33,-34,11,-16,-13
-27,-8,18,18,-23,4,-24,-33,-34,11,-16,-13
-27,-8,18,17,-22,4,-24,-33,-33,12,-16,-13
-26,-8,18,17,-22,5,-24,-32,-33,12,-16,-13
-25,-7,17,16,-21,5,-24,-32,-33,11,-17,-14
-25,-7,17,15,-21,5,-24,-32,-33,11,-17,-14
-24,-6,17,14,-20,5,-24,-32,-33,11,-17,-13
-23,-6,16,14,-20,5,-24,-32,-34,11,-17,-13
-23,-7,16,14,-19,4,-24,-32,-35,11,-17,-14
-24,-8,16,15,-20,4,-24,-32,-35,11,-17,-14
-25,-8,16,16,-21,4,-25,-32,-36,11,-17,-14
-26,-8,17,17,-21,4,-25,-32,-36,10,-18,-15
-25,-7,17,16,-21,5,-25,-33,-36,10,-18,-15
-25,-6,18,15,-21,6,-25,-33,-36,10,-18,-14
-24,-4,19,14,-21,7,-25,-33,-37,9,-17,-14
-24,-3,19,13,-21,7,-26,-34,-38,9,-17,-14
-23,-3,19,13,-21,7,-27,-35,-39,8,-17,-13
-23,-3,19,13,-21,8,-28,-37,-40,8,-15,-12
-22,-2,20,12,-20,9,-29,-40,-41,9,-13,-11
-21,0,20,11,-20,10,-31,-44,-43,10,-11,-9
-20,1,20,9,-19,10,-33,-49,-47,11,-8,-6
-18,3,20,7,-18,11,-36,-55,-51,13,-4,-2
-15,4,18,5,-17,10,-39,-60,-55,15,0,1
-12,4,16,3,-15,10,-43,-65,-59,18,4,6
-9,6,15,1,-13,11,-46,-70,-62,23,10,12
-6,9,15,-1,-11,12,-50,-75,-65,28,17,19
-2,11,13,-4,-8,12,-55,-80,-69,33,24,25
4,13,9,-8,-2,11,-62,-86,-73,36,30,30
11,16,4,-14,3,10,-68,-90,-77,40,36,35
19,20,0,-20,9,10,-73,-91,-79,42,40,39
26,24,-3,-25,15,9,-77,-93,-83,41,41,41
32,26,-6,-29,19,9,-81,-96,-89,37,40,41
37,30,-7,-34,22,11,-86,-100,-97,30,36,40
43,35,-9,-39,26,12,-90,-103,-105,22,31,38
50,37,-13,-43,31,12,-93,-105,-112,11,23,32
54,37,-17,-45,35,10,-93,-106,-119,-1,12,23
52,35,-17,-44,35,9,-90,-107,-125,-16,-2,11
44,32,-12,-39,28,10,-83,-109,-132,-32,-16,-2
32,28,-4,-31,18,12,-75,-112,-138,-46,-30,-14
20,23,2,-22,9,12,-66,-113,-141,-58,-42,-25
9,15,6,-13,1,10,-59,-112,-142,-67,-52,-34
-1,7,8,-3,-5,7,-52,-109,-139,-71,-58,-41
-11,-1,9,6,-10,4,-47,-104,-133,-72,-62,-46
-19,-8,10,13,-14,1,-43,-97,-125,-70,-63,-48
-25,-14,11,19,-18,-1,-39,-89,-115,-66,-62,-49
-29,-17,11,23,-20,-3,-36,-80,-105,-61,-61,-49
-31,-19,11,24,-21,-4,-35,-72,-95,-55,-58,-47
-31,-18,12,24,-21,-4,-34,-65,-85,-48,-54,-45
-31,-17,13,23,-22,-2,-32,-57,-75,-40,-49,-41
-30,-15,14,22,-22,-1,-30,-50,-65,-32,-43,-37
-30,-15,15,22,-22,-1,-28,-43,-56,-24,-39,-33
-31,-16,15,23,-23,0,-25,-36,-48,-18,-35,-31
-31,-15,15,23,-23,0,-22,-29,-39,-12,-32,-29
-30,-15,14,22,-22,0,-20,-23,-31,-7,-30,-28
-30,-15,13,22,-21,0,-17,-17,-25,-3,-27,-26
-29,-16,11,22,-20,-2,-15,-12,-19,1,-25,-25
-28,-18,9,22,-19,-4,-13,-7,-15,5,-24,-24
-27,-19,7,22,-18,-6,-11,-3,-11,8,-22,-23
-27,-20,6,23,-17,-7,-10,0,-8,11,-21,-22
-26,-21,5,23,-15,-8,-9,1,-5,13,-20,-21
-25,-21,4,23,-14,-8,-8,4,-2,15,-19,-20
-25,-21,3,23,-13,-9,-7,6,0,16,-19,-20
-24,-21,2,23,-12,-9,-6,8,1,17,-19,-20
-24,-22,1,22,-12,-10,-5,9,3,19,-18,-20
-23,-22,1,22,-11,-11,-4,11,4,21,-17,-19
-22,-21,0,21,-10,-11,-3,12,6,23,-16,-18
-21,-21,0,21,-10,-11,-2,14,7,25,-15,-17
-20,-21,-1,21,-9,-11,-2,15,8,26,-14,-16
-20,-21,-1,21,-9,-11,-1,15,9,27,-14,-16
-19,-21,-1,21,-9,-11,-1,16,10,28,-14,-16
-18,-20,-1,20,-8,-11,0,18,12,29,-13,-16
-18,-20,-1,19,-8,-11,0,19,13,30,-13,-15
-18,-20,-2,18,-8,-11,0,21,14,32,-12,-15
-18,-20,-2,18,-8,-11,1,22,15,33,-12,-14
-17,-20,-3,18,-7,-12,1,23,16,34,-11,-14
-17,-19,-3,18,-7,-12,1,24,17,35,-11,-13
-16,-19,-3,17,-6,-12,2,25,18,35,-10,-13
-15,-19,-4,17,-5,-12,2,26,20,36,-10,-13
-14,-19,-5,17,-4,-13,2,27,21,36,-10,-13
-14,-20,-5,17,-4,-13,3,28,22,36,-10,-13
-15,-21,-6,17,-4,-13,3,29,23,36,-10,-13
-15,-21,-6,18,-4,-14,3,30,24,36,-10,-13
-16,-22,-7,19,-4,-14,4,31,25,37,-10,-13
-16,-22,-7,19,-4,-15,5,33,27,37,-10,-13
-15,-22,-8,19,-3,-15,6,34,28,37,-9,-13
-15,-23,-8,19,-2,-16,6,35,30,37,-9,-13
-15,-24,-9,19,-2,-17,7,36,31,37,-9,-13
-15,-25,-10,19,-2,-18,7,38,33,37,-9,-13
-14,-25,-11,19,-1,-18,8,40,35,37,-9,-12
-13,-24,-11,18,-1,-18,8,42,37,37,-8,-12
-12,-24,-12,17,0,-18,9,44,39,36,-7,-11
-12,-25,-12,18,0,-19,9,46,41,35,-6,-11
-12,-25,-13,18,1,-19,10,47,42,34,-5,-11
-11,-25,-14,17,2,-19,10,48,44,33,-4,-11
-10,-24,-14,17,2,-19,11,49,46,31,-3,-10
-9,-23,-14,16,3,-19,11,51,49,29,-2,-10
-8,-22,-15,15,3,-19,12,53,51,27,-1,-9
-7,-22,-16,14,4,-20,12,56,53,26,0,-9
-5,-21,-16,13,5,-19,13,58,55,25,1,-8
-4,-20,-16,12,6,-18,14,61,58,25,2,-7
-3,-20,-17,11,7,-19,14,63,60,24,3,-6
-3,-21,-18,12,7,-20,14,64,61,24,4,-5
-4,-22,-18,12,7,-21,15,66,63,23,5,-5
-4,-23,-19,13,8,-22,15,67,65,23,6,-4
-3,-24,-21,13,8,-23,15,69,67,23,6,-4
-3,-24,-22,13,9,-23,15,71,70,23,7,-3
-2,-25,-22,13,10,-24,15,74,72,24,9,-3
-2,-25,-23,13,10,-24,16,76,75,25,10,-2
-2,-26,-24,13,11,-25,16,78,77,26,11,-2
-2,-27,-25,14,12,-27,16,80,79,27,12,-1
-1,-28,-27,14,13,-28,16,81,80,29,13,-1
0,-28,-28,14,14,-28,16,83,82,31,14,0
0,-29,-28,14,14,-29,16,84,84,33,15,0
-1,-29,-29,15,14,-29,16,86,86,34,16,1
-1,-30,-30,15,14,-30,16,88,87,36,17,1
0,-31,-30,16,15,-30,16,90,89,37,18,1
0,-31,-31,16,15,-31,16,91,90,39,19,2
1,-30,-31,14,16,-31,16,92,92,41,21,4
2,-29,-32,13,17,-30,16,93,93,43,23,5
3,-28,-32,12,17,-30,16,95,95,46,24,7
4,-28,-32,11,18,-30,16,96,96,49,25,8
5,-27,-32,10,18,-30,16,97,97,51,27,10
6,-26,-33,9,19,-29,16,98,98,54,28,11
8,-24,-33,8,20,-29,15,99,99,56,29,12
9,-24,-33,7,21,-29,15,99,99,58,30,12
8,-24,-33,8,21,-29,14,99,99,60,30,13
7,-26,-33,9,20,-30,13,98,98,61,31,13
6,-26,-33,9,20,-30,12,97,97,63,31,14
5,-27,-32,10,19,-31,12,96,96,64,32,14
4,-27,-32,11,18,-31,11,95,95,65,32,15
4,-27,-32,11,18,-30,10,94,94,67,33,15
4,-26,-31,10,17,-29,10,92,93,68,33,16
4,-25,-30,9,17,-28,9,91,91,68,34,17
5,-23,-29,8,17,-26,8,89,89,69,34,18
6,-22,-28,7,17,-25,7,87,88,69,35,19
7,-20,-27,5,17,-23,6,84,86,70,36,20
8,-18,-26,4,17,-22,5,82,83,70,36,21
8,-17,-25,4,17,-21,4,79,80,69,36,21
8,-15,-24,3,16,-20,3,76,77,69,35,21
8,-14,-22,3,15,-19,2,73,74,68,35,21
7,-13,-21,3,14,-18,0,69,71,66,34,21
6,-13,-19,3,12,-17,-1,66,67,65,33,20
5,-12,-18,3,12,-15,-3,62,64,63,32,20
6,-10,-16,1,11,-13,-3,59,61,61,32,21
8,-7,-15,-1,11,-11,-4,56,58,60,31,22
9,-4,-14,-3,11,-9,-4,53,55,59,31,22
10,-1,-13,-5,11,-7,-4,50,52,57,31,22
11,0,-12,-5,11,-6,-5,46,48,55,29,22
11,0,-10,-5,10,-5,-6,42,44,51,28,21
10,0,-9,-5,10,-4,-7,38,39,47,26,20
10,2,-7,-6,9,-3,-7,34,35,43,24,20
9,3,-5,-6,7,-1,-8,30,31,40,23,19
8,4,-3,-7,6,0,-9,26,28,36,21,18
7,5,-2,-7,5,1,-10,22,24,33,20,17
6,6,0,-7,3,2,-11,18,20,29,18,16
4,6,1,-6,2,3,-11,15,16,26,17,15
2,5,2,-4,0,4,-12,11,12,21,15,14
1,5,4,-3,-1,4,-13,7,8,17,13,13
0,5,5,-3,-2,4,-14,4,4,12,11,11
-1,5,6,-3,-3,5,-15,1,1,8,9,10
-1,5,7,-3,-4,5,-15,-2,-1,4,7,8
-2,5,8,-3,-5,6,-16,-4,-4,1,6,7
-2,5,8,-2,-6,6,-16,-5,-6,-1,5,6
-3,5,9,-2,-6,7,-15,-7,-8,-4,3,5
-3,5,9,-1,-7,7,-15,-8,-10,-6,2,4
-4,5,10,-1,-7,8,-14,-10,-12,-9,1,3
-4,5,11,-1,-8,8,-14,-11,-13,-12,0,2
-6,5,11,0,-9,8,-13,-13,-15,-15,-2,1
-8,3,12,1,-10,7,-13,-14,-16,-18,-3,0
-10,2,12,3,-11,7,-13,-15,-18,-19,-4,-1
-11,1,12,4,-11,6,-13,-16,-19,-20,-5,-2
-11,0,12,5,-11,6,-13,-17,-19,-21,-6,-2
-11,0,12,5,-11,5,-13,-17,-20,-22,-6,-3
-11,0,11,5,-11,5,-15,-18,-21,-24,-7,-3
-12,0,11,6,-11,4,-16,-18,-22,-25,-8,-4
-13,-1,11,7,-12,4,-16,-19,-22,-26,-9,-5
-13,-1,11,7,-12,5,-16,-19,-22,-26,-9,-5
-11,0,11,5,-11,5,-16,-19,-22,-26,-9,-5
-11,0,11,5,-11,5,-16,-19,-22,-26,-9,-5
-11,0,11,5,-11,5,-16,-19,-22,-26,-9,-6
-12,0,11,5,-11,5,-15,-19,-22,-25,-9,-6
-12,0,11,5,-11,5,-15,-19,-22,-25,-9,-5
-12,1,12,4,-11,6,-14,-19,-22,-24,-9,-4
-11,1,12,4,-11,6,-14,-19,-22,-24,-9,-4
-11,1,12,4,-11,7,-14,-20,-23,-24,-9,-4
-11,1,12,4,-11,7,-14,-20,-23,-23,-9,-5
-12,1,13,4,-12,7,-14,-20,-24,-23,-9,-5
-13,0,13,5,-13,6,-14,-21,-24,-23,-9,-6
-14,0,13,6,-13,6,-15,-21,-25,-23,-10,-6
-14,-1,13,7,-13,5,-15,-22,-25,-23,-10,-7
-15,-1,13,7,-13,5,-15,-22,-25,-23,-11,-7
-15,-2,13,8,-13,5,-15,-22,-25,-23,-11,-7
-15,-2,12,8,-13,5,-15,-22,-25,-23,-11,-7
-14,-2,12,8,-13,5,-15,-22,-25,-23,-11,-7
-13,-1,12,7,-12,5,-15,-21,-25,-22,-11,-7
-12,0,12,5,-12,6,-14,-20,-24,-21,-11,-6
-11,1,12,4,-11,6,-13,-20,-24,-21,-11,-6
-10,1,11,4,-11,6,-13,-19,-24,-21,-12,-6
-10,0,11,4,-11,6,-12,-19,-24,-21,-12,-6
-10,0,10,5,-10,6,-12,-19,-24,-21,-12,-6
-10,0,10,5,-10,5,-12,-19,-24,-21,-12,-7
-10,0,10,5,-10,5,-12,-19,-24,-20,-12,-7
-10,0,10,5,-10,4,-12,-19,-24,-20,-12,-7
-10,-1,10,5,-10,4,-12,-19,-24,-19,-12,-7
-10,-1,10,5,-10,3,-12,-19,-24,-19,-12,-7
-10,0,9,4,-9,3,-11,-18,-23,-18,-12,-7
-9,0,9,3,-9,4,-11,-18,-23,-17,-11,-6
-8,1,9,2,-8,5,-11,-17,-23,-17,-11,-5
-7,2,9,1,-8,5,-10,-17,-22,-16,-10,-5
-6,3,9,1,-8,6,-10,-17,-22,-16,-10,-4
-5,3,9,1,-8,6,-10,-17,-22,-16,-10,-4
-6,3,9,1,-8,5,-11,-17,-23,-16,-10,-5
-7,1,9,3,-8,5,-11,-18,-23,-16,-11,-5
-9,0,9,4,-9,4,-11,-18,-23,-17,-11,-5
-11,-1,10,6,-10,4,-11,-18,-23,-17,-11,-5
-13,-2,10,7,-11,4,-11,-18,-23,-17,-11,-5
-13,-2,10,8,-12,4,-12,-18,-23,-17,-11,-5
-13,-2,10,8,-11,4,-12,-18,-23,-17,-11,-5
-12,-2,10,7,-11,4,-11,-18,-22,-16,-10,-5
-11,-1,10,6,-11,4,-11,-17,-21,-15,-9,-4
-10,-1,10,6,-10,4,-10,-17,-20,-14,-8,-4
-10,-1,9,6,-10,4,-10,-16,-19,-13,-8,-3
-10,-1,9,6,-10,4,-10,-16,-19,-13,-7,-3
-10,-1,9,5,-9,4,-10,-16,-19,-13,-7,-3
-9,0,9,4,-8,4,-10,-16,-18,-13,-7,-2
-7,1,9,3,-8,5,-10,-15,-18,-12,-7,-1
-6,3,9,1,-8,6,-10,-15,-17,-12,-6,-1
-5,4,9,0,-8,7,-10,-15,-17,-12,-6,0
-4,6,9,-1,-8,8,-9,-15,-16,-12,-5,0
-3,8,10,-2,-7,9,-9,-14,-16,-11,-5,0
-1,10,10,-4,-6,10,-8,-14,-15,-11,-5,1
0,11,11,-5,-6,11,-7,-13,-15,-11,-5,1
0,12,11,-6,-5,12,-7,-13,-14,-10,-5,1
1,13,11,-7,-5,12,-7,-12,-14,-10,-4,2
2,14,11,-8,-4,13,-7,-12,-13,-10,-4,2
3,14,12,-8,-4,13,-7,-13,-13,-10,-4,2
3,15,12,-8,-4,13,-8,-13,-13,-11,-4,2
3,15,11,-9,-4,13,-8,-13,-13,-11,-4,2
4,15,11,-9,-3,13,-8,-13,-13,-11,-4,2
4,15,11,-10,-3,13,-8,-14,-13,-11,-4,1
4,15,10,-10,-3,13,-8,-14,-14,-12,-4,1
4,15,10,-10,-3,13,-9,-15,-14,-12,-5,1
4,15,10,-10,-3,13,-9,-15,-15,-13,-5,1
4,15,10,-9,-3,13,-9,-16,-15,-14,-6,0
3,14,10,-9,-3,13,-9,-17,-16,-15,-6,0
3,14,10,-9,-4,13,-9,-17,-16,-16,-6,0
3,14,11,-9,-4,13,-9,-17,-16,-16,-6,0
3,14,11,-9,-3,13,-8,-17,-16,-16,-6,0
3,14,11,-8,-3,13,-7,-17,-16,-16,-7,0
2,13,11,-7,-4,12,-7,-18,-17,-16,-7,-1
1,12,11,-6,-5,12,-7,-18,-17,-17,-7,-1
0,12,11,-5,-6,12,-7,-18,-17,-17,-7,-1
-1,11,11,-4,-7,12,-7,-18,-16,-17,-7,-1
-3,10,11,-3,-8,11,-7,-18,-16,-17,-7,-1
-4,9,12,-2,-8,11,-6,-18,-16,-17,-8,-2
-4,9,12,-2,-9,11,-6,-19,-17,-17,-8,-2
-4,9,13,-2,-9,11,-7,-20,-17,-17,-8,-2
-6,7,13,0,-9,10,-7,-21,-18,-18,-8,-3
-7,6,13,1,-10,9,-8,-21,-19,-18,-9,-3
-8,5,13,2,-10,9,-8,-22,-19,-19,-10,-4
-8,5,13,2,-11,8,-8,-22,-19,-19,-10,-4
-10,4,13,3,-11,8,-8,-22,-19,-19,-10,-4
-11,3,13,4,-12,7,-8,-22,-20,-19,-10,-5
-12,2,13,5,-12,7,-8,-23,-21,-18,-10,-5
-13,1,13,6,-13,7,-8,-23,-21,-18,-11,-5
-13,0,13,7,-14,6,-9,-24,-22,-18,-11,-5
-13,0,13,7,-14,6,-9,-24,-22,-17,-12,-5
-13,0,14,6,-14,7,-9,-24,-22,-17,-11,-5
-13,1,14,6,-14,7,-9,-24,-22,-16,-11,-5
-14,0,13,7,-14,7,-9,-25,-23,-16,-11,-5
-14,-1,13,8,-14,6,-9,-25,-23,-16,-11,-5
-14,-1,12,8,-14,6,-9,-25,-23,-15,-12,-5
-15,-2,12,9,-14,5,-9,-25,-24,-15,-12,-6
-16,-3,12,10,-14,5,-10,-26,-24,-16,-13,-7
-16,-4,12,10,-15,4,-10,-26,-24,-16,-13,-7
-16,-3,12,10,-15,4,-9,-25,-24,-15,-14,-7
-15,-2,12,9,-14,5,-8,-24,-23,-14,-14,-7
-14,-1,11,8,-13,5,-8,-24,-23,-13,-13,-6
-13,-1,11,7,-13,5,-7,-24,-24,-12,-13,-6
-13,-1,11,7,-13,5,-7,-24,-24,-12,-13,-6
-14,-1,11,8,-13,5,-7,-24,-24,-12,-12,-6
-14,-1,11,8,-13,5,-7,-25,-25,-12,-12,-6
-14,-1,11,8,-13,5,-7,-25,-25,-12,-12,-6
-14,-1,11,8,-13,5,-7,-26,-26,-12,-12,-6
-14,-2,11,8,-13,5,-7,-27,-27,-11,-12,-5
-15,-2,12,9,-14,5,-8,-28,-28,-11,-12,-5
-15,-2,12,9,-14,5,-10,-31,-30,-10,-11,-4
-14,-2,11,8,-13,5,-13,-35,-32,-9,-9,-2
-13,-1,11,8,-13,5,-15,-40,-36,-7,-6,0
-12,0,11,7,-12,5,-18,-45,-39,-5,-3,3
-11,1,11,5,-12,6,-21,-50,-43,-2,1,7
-9,3,11,4,-11,7,-24,-55,-46,1,6,12
-7,4,11,2,-10,7,-28,-60,-50,4,12,16
-4,6,10,0,-8,8,-32,-66,-55,7,17,21
0,8,9,-3,-5,8,-37,-72,-59,11,23,27
4,12,7,-8,-1,9,-43,-78,-64,15,29,33
10,15,5,-13,2,10,-49,-83,-67,19,36,39
16,18,2,-18,7,10,-55,-85,-70,22,42,44
23,22,-2,-23,13,10,-60,-87,-73,22,45,48
30,26,-5,-28,17,11,-65,-89,-78,19,46,49
36,30,-6,-33,21,12,-71,-93,-85,13,44,48
43,35,-8,-39,25,14,-77,-98,-93,5,40,47
50,39,-10,-44,30,14,-82,-101,-101,-4,34,43
57,42,-14,-49,35,14,-84,-102,-108,-16,25,36
61,43,-17,-52,39,13,-82,-102,-114,-30,13,27
60,43,-16,-52,38,14,-77,-103,-119,-46,0,15
53,42,-10,-47,31,16,-68,-105,-125,-62,-15,3
42,39,-3,-40,22,17,-59,-107,-130,-77,-28,-9
31,33,1,-32,14,17,-50,-108,-132,-89,-40,-20
20,25,4,-23,8,14,-43,-107,-132,-97,-48,-28
10,17,6,-14,2,11,-38,-103,-128,-100,-53,-34
2,9,7,-6,-2,8,-33,-96,-120,-100,-55,-37
-4,3,7,0,-6,6,-29,-88,-111,-96,-56,-39
-8,0,8,4,-8,4,-26,-79,-100,-91,-54,-39
-9,-1,8,5,-9,4,-23,-70,-88,-85,-51,-37
-10,0,9,5,-10,5,-21,-61,-77,-77,-46,-34
-10,0,10,5,-11,5,-19,-54,-66,-69,-40,-30
-10,1,10,5,-11,6,-17,-47,-57,-61,-35,-26
-10,2,11,4,-11,6,-13,-39,-47,-53,-30,-22
-10,2,12,4,-11,7,-10,-32,-38,-46,-26,-19
-10,2,12,4,-11,7,-6,-24,-29,-40,-23,-17
-10,2,13,4,-12,8,-3,-17,-21,-35,-20,-15
-10,2,12,4,-11,7,0,-11,-14,-30,-18,-14
-10,0,9,5,-10,5,2,-6,-8,-26,-17,-13
-9,-1,7,5,-9,3,4,-2,-4,-23,-15,-12
-9,-2,5,5,-7,1,6,2,0,-19,-13,-11
-8,-3,3,5,-6,0,7,5,3,-15,-12,-10
-8,-5,2,6,-5,-2,8,8,5,-13,-11,-10
-8,-7,1,7,-5,-3,9,9,6,-11,-11,-10
-8,-8,0,8,-4,-3,9,11,8,-10,-10,-10
-8,-9,0,8,-4,-4,9,12,9,-8,-10,-10
-8,-9,0,8,-4,-4,10,14,11,-6,-9,-9
-8,-9,-1,9,-4,-5,11,16,13,-4,-9,-9
-8,-10,-2,9,-3,-5,12,18,15,-2,-8,-9
-8,-10,-3,9,-3,-6,13,19,16,0,-8,-9
-8,-10,-3,9,-3,-6,14,21,17,2,-7,-9
-7,-10,-3,8,-2,-6,14,22,17,3,-7,-9
-6,-10,-3,8,-2,-6,15,22,18,5,-7,-9
-6,-11,-4,9,-2,-7,15,23,19,6,-7,-9
-6,-11,-5,9,-1,-8,15,24,20,7,-7,-8
-5,-11,-6,8,0,-8,15,25,22,10,-6,-8
-5,-11,-6,8,0,-8,16,27,23,12,-5,-7
-6,-12,-7,9,0,-9,16,29,24,14,-5,-7
-6,-13,-7,9,0,-10,17,30,25,16,-5,-7
-7,-14,-7,10,0,-10,17,30,25,16,-5,-7
-7,-15,-7,11,0,-11,17,30,26,17,-5,-7
-8,-16,-7,12,0,-11,17,31,27,17,-5,-7
-8,-17,-8,13,0,-12,17,31,28,18,-5,-8
-9,-18,-9,14,0,-13,17,32,29,19,-5,-8
-9,-18,-9,14,0,-14,17,34,31,20,-5,-8
-8,-17,-10,12,1,-13,17,36,32,22,-4,-7
-7,-16,-10,11,1,-13,18,37,34,23,-3,-7
-6,-15,-10,10,2,-13,19,39,36,24,-2,-6
-5,-15,-10,10,2,-13,21,40,37,24,-2,-6
-3,-14,-11,8,3,-12,22,42,39,24,-1,-5
-1,-13,-11,7,4,-12,22,43,41,23,0,-5
0,-13,-12,6,5,-12,22,44,43,22,0,-4
0,-13,-13,6,6,-13,22,45,45,21,0,-4
1,-12,-13,6,7,-13,23,47,46,20,1,-4
0,-12,-13,6,7,-14,23,48,48,19,2,-3
0,-13,-14,6,7,-14,23,50,49,18,3,-3
1,-12,-14,6,8,-14,24,51,51,17,3,-3
2,-12,-14,5,8,-13,24,52,53,15,4,-2
2,-12,-15,4,9,-13,24,54,55,13,5,-2
3,-12,-16,4,9,-14,25,56,57,12,6,-1
3,-12,-16,4,9,-14,25,58,59,11,7,0
3,-13,-16,5,9,-15,26,60,61,10,8,0
3,-13,-17,5,10,-15,26,62,63,10,9,0
3,-14,-18,6,10,-16,26,64,65,9,9,1
2,-16,-19,7,10,-17,26,65,66,9,10,1
2,-17,-20,7,10,-18,26,67,68,9,10,2
2,-18,-21,7,11,-19,26,68,71,9,11,2
3,-17,-21,6,12,-19,27,71,74,10,13,3
5,-16,-21,5,13,-19,27,73,77,11,14,5
6,-16,-22,5,14,-19,27,76,80,13,15,6
7,-15,-23,4,15,-19,27,78,82,14,16,6
9,-14,-24,3,16,-19,27,80,84,16,17,7
11,-13,-24,2,17,-19,27,82,86,18,18,7
12,-13,-25,0,18,-19,27,84,88,20,19,8
13,-13,-26,0,19,-19,27,85,90,22,20,8
14,-13,-27,0,20,-20,27,87,92,24,21,9
13,-13,-27,0,20,-20,27,89,94,27,23,10
13,-14,-27,1,20,-21,27,90,95,29,24,11
13,-15,-29,1,20,-22,27,92,97,32,25,12
13,-16,-30,2,21,-23,26,93,98,35,26,12
12,-17,-30,2,21,-23,26,95,99,37,27,13
13,-17,-31,2,21,-24,25,96,100,40,28,13
14,-16,-31,1,22,-23,25,97,101,42,29,14
16,-15,-32,0,24,-23,25,98,103,45,30,15
16,-15,-32,0,24,-24,25,99,104,47,31,16
16,-15,-32,0,24,-24,25,100,105,50,32,17
17,-15,-32,0,25,-24,25,101,106,52,33,18
18,-14,-33,-1,25,-23,25,101,106,55,35,19
19,-13,-33,-3,26,-23,25,101,106,58,36,20
19,-12,-33,-3,26,-22,24,101,106,60,37,21
20,-12,-33,-4,26,-22,24,101,106,62,38,22
21,-11,-33,-5,26,-22,23,100,105,64,39,23
21,-10,-32,-5,27,-21,22,99,105,66,40,24
22,-9,-31,-6,26,-20,21,98,104,68,41,25
23,-7,-30,-7,26,-19,21,97,103,71,42,26
24,-5,-30,-9,27,-17,20,96,102,73,43,27
26,-2,-29,-12,28,-16,20,94,100,75,43,28
28,0,-28,-14,28,-14,20,93,98,77,44,29
29,1,-28,-15,28,-13,19,91,96,78,44,30
30,3,-27,-17,28,-12,18,88,94,78,44,30
31,5,-26,-18,28,-10,17,86,92,78,45,31
32,7,-25,-20,28,-9,16,84,90,78,45,31
32,9,-24,-21,28,-7,15,81,87,78,45,32
32,11,-22,-21,28,-6,14,78,84,77,45,32
33,12,-21,-22,27,-5,13,74,81,76,44,32
32,12,-20,-22,26,-4,11,70,77,75,44,32
31,12,-19,-22,25,-3,10,66,73,73,43,32
30,13,-17,-22,24,-2,8,62,69,70,42,32
30,14,-16,-22,23,-1,7,59,66,67,42,32
29,15,-15,-22,22,0,7,55,62,64,41,32
29,16,-13,-22,21,1,6,51,58,61,40,32
28,18,-11,-23,20,3,5,47,54,57,38,31
28,19,-9,-24,19,5,4,43,49,53,37,31
28,21,-7,-24,18,6,3,38,44,48,35,30
26,21,-6,-24,16,7,2,34,40,44,34,29
25,22,-4,-24,15,8,0,30,36,39,32,28
24,22,-3,-24,14,9,0,26,32,34,31,27
24,23,-2,-24,13,10,-1,23,29,29,29,26
24,23,-1,-24,13,11,-2,20,26,24,27,25
23,24,0,-24,12,12,-2,17,23,19,25,24
22,25,1,-24,11,13,-2,14,19,14,23,23
22,25,3,-24,9,14,-3,10,15,10,22,21
21,25,4,-24,8,15,-3,7,11,5,20,20
19,25,6,-23,6,16,-4,3,8,1,18,19
18,25,7,-22,5,16,-4,0,5,-3,17,18
16,25,9,-21,3,17,-5,-2,3,-7,15,17
14,25,10,-19,1,17,-5,-4,1,-11,13,15
13,25,11,-18,0,17,-6,-6,-1,-14,11,14
12,24,12,-17,0,18,-6,-8,-3,-17,9,12
10,24,13,-17,-1,18,-6,-10,-5,-20,8,11
9,23,13,-16,-2,18,-6,-11,-7,-23,6,9
9,22,13,-16,-2,17,-6,-13,-8,-26,5,8
8,20,12,-15,-2,16,-6,-14,-10,-28,3,7
7,20,12,-14,-3,16,-5,-15,-11,-30,2,6
6,19,12,-12,-3,15,-5,-16,-11,-31,2,5
4,17,12,-10,-4,14,-4,-16,-12,-32,1,5
2,15,12,-8,-4,13,-4,-17,-13,-33,0,4
1,13,12,-7,-5,12,-4,-18,-14,-33,0,3
1,13,12,-7,-5,12,-4,-18,-15,-34,-1,2
0,13,12,-7,-6,12,-4,-19,-16,-34,-1,2
0,13,13,-6,-6,12,-4,-19,-16,-35,-2,1
0,12,13,-6,-6,12,-4,-19,-16,-35,-2,1
0,12,12,-6,-6,12,-4,-19,-16,-36,-3,0
0,12,12,-6,-6,12,-4,-19,-17,-36,-3,0
0,11,12,-5,-6,12,-4,-20,-17,-36,-3,0
-1,11,12,-5,-6,11,-4,-20,-18,-36,-3,0
-1,11,13,-5,-7,11,-3,-21,-18,-35,-3,0
-1,12,13,-5,-7,12,-3,-21,-18,-35,-3,0
1,14,13,-7,-6,12,-2,-21,-18,-34,-3,0
3,15,12,-9,-5,13,-1,-20,-17,-33,-2,1
5,17,12,-10,-4,13,0,-20,-16,-32,-1,1
6,18,12,-11,-3,14,1,-19,-16,-30,-1,2
6,18,12,-12,-3,14,1,-18,-16,-29,0,2
5,18,12,-11,-3,15,1,-18,-16,-28,0,2
4,17,12,-10,-3,15,1,-18,-16,-28,0,2
4,16,12,-10,-4,14,0,-18,-16,-28,0,2
4,17,12,-10,-3,14,0,-18,-16,-27,-1,2
5,18,12,-11,-3,14,1,-18,-16,-27,-1,2
6,18,12,-12,-3,15,1,-18,-16,-26,-1,2
4,17,13,-11,-4,14,1,-18,-16,-26,-1,1
2,15,13,-9,-5,14,1,-18,-16,-25,-1,1
0,13,13,-7,-6,13,0,-18,-16,-26,-2,0
0,11,11,-6,-5,12,-1,-18,-17,-26,-2,0
0,10,10,-5,-5,11,-1,-19,-17,-26,-3,-1
-1,9,10,-4,-5,10,-2,-19,-18,-27,-4,-1
-2,8,10,-2,-6,9,-3,-20,-20,-27,-5,-2
-4,6,10,0,-7,7,-4,-22,-21,-27,-5,-3
-5,4,10,1,-8,6,-4,-22,-22,-27,-6,-4
-6,4,10,1,-9,6,-4,-22,-22,-26,-6,-4
-7,3,10,2,-9,6,-4,-22,-22,-26,-6,-4
-7,3,10,2,-9,6,-4,-21,-21,-25,-6,-4
-7,3,10,1,-9,6,-4,-21,-21,-24,-5,-3
-6,4,11,0,-9,7,-3,-21,-21,-23,-5,-3
-5,6,11,0,-9,8,-3,-21,-21,-22,-5,-2
-4,7,11,-2,-8,9,-3,-21,-21,-21,-5,-2
-2,9,11,-3,-7,10,-3,-21,-20,-20,-5,-2
-1,11,11,-5,-7,11,-2,-20,-20,-19,-4,-1
0,12,12,-6,-6,12,-2,-20,-19,-18,-3,0
1,14,12,-7,-6,13,-1,-19,-19,-17,-2,0
2,15,12,-8,-5,13,0,-19,-19,-15,-1,0
3,15,12,-9,-4,13,0,-18,-18,-14,0,1
3,16,12,-9,-4,14,1,-17,-16,-12,0,2
4,16,12,-10,-4,14,1,-16,-15,-11,1,2
4,16,12,-10,-4,14,1,-16,-15,-10,1,2
4,15,12,-10,-4,13,1,-16,-15,-10,0,2
3,14,11,-9,-4,13,1,-16,-15,-10,0,1
3,14,11,-8,-4,13,1,-16,-15,-10,0,1
3,14,11,-8,-4,13,0,-16,-14,-10,0,1
3,14,11,-9,-4,13,0,-16,-14,-10,0,2
3,15,11,-9,-4,13,0,-16,-14,-10,0,2
3,15,12,-9,-4,13,0,-16,-14,-11,0,2
3,15,12,-9,-5,13,0,-16,-14,-11,0,2
3,15,12,-9,-5,13,0,-16,-13,-11,0,2
3,15,12,-9,-4,13,0,-16,-13,-11,1,3
3,15,12,-9,-4,13,1,-15,-12,-11,1,3
3,15,12,-9,-4,13,1,-15,-11,-11,1,4
2,15,12,-8,-4,13,2,-14,-10,-11,1,4
2,15,12,-8,-5,13,2,-14,-10,-11,1,3
2,14,11,-8,-5,12,1,-15,-10,-11,0,3
1,13,10,-7,-5,11,0,-16,-10,-12,0,2
1,12,9,-6,-5,10,0,-16,-11,-13,0,2
1,11,9,-6,-5,10,-1,-17,-11,-14,0,2
0,11,9,-5,-5,10,-2,-17,-12,-15,0,2
0,10,9,-5,-5,10,-3,-18,-13,-16,-1,2
0,10,10,-4,-5,10,-4,-19,-14,-17,-2,1
0,10,10,-4,-5,10,-4,-20,-14,-18,-2,0
0,10,11,-5,-6,10,-5,-21,-15,-18,-3,0
-1,10,11,-5,-7,10,-5,-22,-16,-19,-3,0
-2,9,12,-4,-8,10,-6,-23,-17,-20,-3,-1
-3,9,12,-4,-8,10,-6,-24,-17,-20,-4,-1
-4,9,13,-3,-9,11,-6,-25,-17,-21,-4,-1
-5,9,13,-3,-9,11,-6,-25,-18,-21,-4,-1
-6,9,14,-2,-10,11,-6,-25,-18,-21,-5,-1
-6,9,14,-2,-10,11,-6,-25,-18,-21,-5,-2
-6,9,15,-2,-10,12,-6,-25,-18,-21,-6,-2
-6,10,15,-3,-10,12,-5,-25,-17,-21,-6,-2
-5,10,16,-3,-10,12,-4,-25,-17,-21,-6,-2
-6,10,16,-3,-11,12,-3,-25,-16,-20,-6,-2
-6,10,16,-2,-11,12,-3,-25,-16,-20,-6,-3
-6,10,16,-2,-11,12,-4,-25,-17,-20,-7,-3
-5,10,15,-3,-10,12,-4,-25,-18,-20,-7,-3
-4,11,15,-3,-10,13,-3,-25,-18,-19,-7,-3
-4,11,15,-3,-11,13,-3,-25,-18,-18,-7,-3
-5,9,15,-2,-11,12,-3,-25,-18,-18,-7,-3
-6,7,14,-1,-11,11,-4,-25,-18,-18,-7,-4
-7,6,14,0,-11,10,-4,-25,-19,-18,-8,-4
-6,7,13,-1,-10,10,-4,-25,-19,-18,-8,-4
-5,8,13,-2,-9,11,-4,-25,-19,-18,-8,-4
-5,8,13,-2,-9,11,-4,-25,-19,-18,-8,-4
-5,8,13,-1,-10,10,-4,-25,-20,-18,-9,-4
-6,7,13,0,-10,10,-5,-25,-20,-18,-9,-5
-9,4,13,2,-11,8,-6,-26,-21,-18,-10,-6
-11,2,13,4,-12,7,-7,-27,-22,-18,-10,-6
-12,1,13,5,-13,7,-7,-27,-23,-18,-10,-6
-12,1,13,5,-13,7,-7,-27,-22,-18,-10,-6
-11,2,13,5,-13,7,-7,-27,-22,-18,-10,-5
-11,2,13,4,-13,7,-7,-27,-22,-18,-10,-5
-10,3,13,3,-12,7,-7,-27,-22,-18,-10,-5
-8,4,13,2,-10,8,-6,-27,-22,-18,-9,-5
-6,5,12,0,-9,8,-6,-26,-21,-17,-9,-5
-5,6,12,0,-8,8,-5,-26,-21,-17,-8,-5
-4,6,12,0,-8,8,-5,-25,-21,-17,-8,-4
-5,6,12,0,-9,8,-5,-25,-21,-17,-8,-4
-7,5,12,1,-9,8,-6,-25,-21,-18,-8,-4
-8,4,12,2,-10,8,-6,-26,-22,-18,-9,-4
-10,3,12,3,-11,8,-7,-27,-23,-19,-9,-4
-12,2,13,4,-12,8,-7,-28,-24,-20,-10,-5
-13,1,14,5,-13,7,-8,-30,-25,-21,-10,-6
-13,1,14,5,-13,7,-9,-31,-26,-22,-11,-6
-13,2,15,5,-13,8,-11,-33,-28,-22,-10,-5
-12,3,15,4,-13,9,-13,-36,-30,-22,-9,-4
-11,4,15,3,-13,9,-15,-40,-32,-22,-7,-2
-9,6,15,1,-12,10,-18,-45,-36,-20,-4,0
-6,8,15,-1,-10,11,-20,-50,-40,-18,0,4
-2,12,14,-4,-8,12,-23,-55,-43,-16,4,8
2,15,13,-8,-5,13,-26,-60,-45,-12,9,12
6,18,12,-12,-2,14,-30,-65,-48,-8,14,17
10,19,10,-14,0,14,-34,-70,-51,-4,19,22
14,22,8,-18,3,14,-38,-75,-55,0,26,28
20,25,5,-22,7,15,-44,-80,-58,5,33,35
26,28,2,-27,12,15,-50,-84,-62,9,39,40
34,31,-2,-33,18,14,-56,-86,-65,11,43,45
42,36,-6,-39,24,14,-60,-88,-69,11,45,47
50,41,-9,-46,30,16,-65,-91,-74,7,44,47
57,47,-10,-53,34,18,-70,-96,-82,0,40,46
64,53,-11,-58,38,20,-75,-100,-91,-8,35,43
71,56,-15,-63,43,20,-79,-104,-99,-18,28,38
75,56,-19,-65,47,18,-80,-105,-107,-31,17,29
73,54,-20,-63,47,17,-77,-106,-113,-45,4,18
66,51,-16,-58,41,17,-71,-108,-120,-60,-9,7
53,46,-7,-50,31,19,-63,-112,-126,-73,-22,-4
39,39,0,-39,19,20,-56,-115,-131,-85,-34,-15
25,30,6,-28,9,18,-50,-116,-133,-94,-44,-24
12,21,9,-16,1,15,-45,-114,-133,-100,-51,-32
2,13,11,-7,-4,12,-40,-110,-128,-101,-55,-37
-4,7,12,-1,-8,10,-35,-103,-120,-99,-55,-39
-8,4,13,2,-11,9,-31,-94,-110,-94,-54,-39
-10,3,13,3,-12,8,-27,-84,-98,-88,-52,-38
-11,2,13,4,-12,7,-25,-75,-87,-82,-49,-37
-12,1,13,5,-13,7,-24,-67,-77,-74,-45,-34
-12,1,13,5,-13,6,-23,-59,-66,-67,-41,-31
-11,1,13,5,-12,6,-21,-51,-56,-59,-36,-28
-10,1,12,4,-12,6,-17,-43,-46,-51,-32,-25
-10,1,12,4,-12,7,-13,-35,-37,-44,-28,-22
-11,1,13,5,-13,7,-9,-27,-28,-37,-24,-19
-12,0,12,6,-13,6,-7,-21,-20,-33,-22,-18
-11,0,10,6,-11,5,-5,-15,-14,-29,-21,-17
-10,-1,8,6,-9,3,-4,-10,-9,-25,-19,-16
-9,-3,6,6,-8,2,-2,-5,-4,-21,-17,-15
-9,-4,5,7,-6,0,-1,-1,0,-18,-16,-14
-8,-5,3,7,-5,-1,0,2,2,-15,-14,-13
-8,-7,1,8,-4,-2,0,4,4,-13,-13,-13
-9,-9,0,9,-5,-4,0,5,5,-12,-13,-13
-10,-10,0,10,-5,-5,1,7,7,-10,-13,-13
-10,-10,0,10,-5,-5,2,8,8,-9,-13,-12
-10,-10,-1,10,-5,-5,2,10,9,-8,-12,-12
-9,-10,-1,9,-4,-5,3,11,10,-7,-12,-12
-8,-10,-1,9,-4,-6,3,13,11,-5,-12,-12
-8,-11,-1,9,-3,-6,4,14,11,-4,-12,-12
-9,-11,-1,10,-3,-7,4,14,12,-3,-12,-12
-10,-12,-1,11,-3,-7,4,15,12,-3,-11,-12
-10,-13,-2,11,-3,-7,5,16,12,-2,-11,-12
-9,-12,-2,10,-2,-7,6,17,13,-2,-11,-12
-7,-10,-3,9,-1,-7,6,18,15,-1,-11,-12
-6,-10,-3,8,-1,-7,7,20,16,0,-11,-12
-6,-10,-4,8,0,-8,7,21,18,1,-11,-12
-6,-11,-4,8,0,-8,7,22,19,3,-11,-11
-5,-11,-5,8,0,-8,8,23,20,4,-11,-11
-4,-11,-6,7,1,-8,8,24,21,5,-10,-11
-4,-11,-7,7,2,-9,8,25,22,5,-10,-11
-3,-11,-8,7,2,-9,9,26,23,6,-9,-11
-3,-12,-9,7,3,-10,9,27,24,6,-9,-11
-3,-12,-9,7,3,-11,8,28,26,7,-9,-11
-3,-13,-9,8,3,-12,8,29,27,8,-9,-11
-4,-14,-9,9,3,-13,8,30,28,8,-8,-11
-6,-15,-9,10,3,-13,8,30,29,8,-8,-11
-7,-17,-10,11,2,-14,8,31,30,8,-8,-11
-8,-18,-10,13,2,-15,7,31,30,8,-9,-12
-8,-19,-11,13,2,-15,7,32,31,7,-9,-12
-7,-19,-11,13,2,-15,8,34,33,7,-8,-11
-7,-19,-11,12,2,-15,9,36,35,7,-7,-11
-6,-18,-12,12,2,-15,10,38,37,7,-7,-10
-6,-18,-12,11,3,-16,11,39,38,7,-6,-10
-5,-17,-13,11,4,-16,12,41,39,7,-5,-9
-4,-17,-13,10,5,-15,12,42,41,7,-4,-9
-3,-17,-13,10,6,-15,13,44,42,6,-3,-8
-2,-17,-15,9,7,-16,13,45,44,4,-3,-8
-1,-17,-16,9,7,-16,14,47,46,2,-2,-7
0,-17,-16,9,8,-17,14,49,49,1,-2,-7
0,-17,-17,8,8,-17,15,51,51,0,-1,-7
0,-17,-17,8,8,-17,15,53,53,-1,-1,-6
1,-17,-18,8,9,-18,16,54,55,-2,0,-6
1,-18,-19,8,10,-18,16,56,57,-2,0,-5
2,-18,-20,8,11,-19,17,58,59,-2,1,-5
2,-19,-21,8,11,-20,17,60,60,-2,2,-4
1,-21,-22,10,11,-21,17,61,62,-3,2,-4
1,-22,-23,10,12,-22,17,63,64,-3,3,-4
3,-20,-24,8,13,-22,19,66,67,-2,4,-3
5,-19,-24,7,14,-22,20,69,71,0,6,-1
7,-18,-25,6,15,-22,21,72,73,0,7,-1
8,-18,-26,5,17,-23,21,74,75,1,8,0
9,-18,-28,5,18,-23,22,76,77,3,9,0
10,-18,-29,4,20,-23,22,78,79,4,10,1
11,-18,-30,3,21,-23,22,80,81,7,12,2
12,-19,-31,3,21,-24,22,82,83,9,13,3
13,-19,-31,3,22,-25,22,84,85,12,14,4
13,-20,-32,3,22,-26,22,86,88,14,15,5
13,-21,-33,4,23,-27,22,87,89,16,16,5
13,-21,-34,4,24,-28,21,88,90,18,17,6
13,-21,-34,4,24,-29,21,89,90,20,18,6
13,-21,-35,4,24,-29,20,90,91,22,18,7
14,-21,-35,3,25,-28,20,90,91,24,20,7
15,-21,-35,3,25,-28,20,91,92,28,21,8
15,-21,-35,3,25,-28,19,92,93,30,22,9
14,-21,-35,4,25,-29,18,92,94,33,23,9
14,-22,-35,4,25,-29,17,93,94,35,23,10
13,-22,-36,4,24,-30,17,93,94,37,24,10
13,-23,-36,5,24,-30,17,93,94,39,24,11
13,-24,-37,5,25,-30,16,93,94,41,24,11
13,-24,-37,4,25,-30,16,92,94,44,25,12
14,-23,-38,4,26,-30,15,92,93,47,26,13
15,-23,-38,3,26,-30,14,91,93,50,27,14
16,-22,-38,2,27,-30,14,91,92,52,28,15
18,-20,-37,1,28,-29,14,90,91,55,29,15
19,-18,-37,0,28,-28,13,88,89,56,30,16
19,-16,-36,-2,28,-27,12,86,87,57,30,16
20,-14,-35,-3,28,-25,11,84,85,59,31,17
21,-11,-33,-5,27,-22,11,82,83,60,32,19
22,-9,-31,-6,27,-20,10,80,81,62,32,20
22,-8,-29,-7,26,-18,9,78,79,62,32,20
21,-7,-28,-7,25,-17,7,75,77,63,32,20
20,-7,-27,-6,23,-17,5,72,74,62,31,19
17,-8,-26,-4,22,-17,4,68,70,61,29,19
16,-9,-25,-4,20,-17,2,64,66,59,28,18
15,-8,-24,-3,19,-16,1,60,62,58,27,18
15,-7,-23,-3,19,-14,0,56,58,57,26,18
15,-6,-21,-4,18,-13,-1,52,54,56,26,18
16,-4,-20,-5,18,-12,-2,49,51,55,26,18
16,-3,-18,-7,17,-10,-3,45,48,53,25,18
16,-2,-17,-7,16,-9,-4,41,44,51,24,18
15,0,-15,-8,15,-8,-5,37,40,49,23,17
15,1,-13,-9,14,-6,-6,33,36,46,22,17
15,3,-12,-10,13,-4,-7,29,33,42,21,17
15,5,-10,-10,12,-2,-7,25,29,38,20,17
14,6,-8,-10,11,-1,-8,21,25,35,18,16
13,6,-7,-9,10,0,-9,17,21,31,17,15
12,6,-5,-9,8,1,-10,13,17,28,15,14
10,6,-3,-8,7,1,-11,9,14,24,14,13
9,7,-1,-8,5,2,-12,6,10,20,12,12
7,7,0,-8,4,3,-12,2,7,15,10,11
6,7,2,-7,2,4,-13,-1,3,11,8,10
4,7,3,-5,0,5,-14,-5,0,6,6,8
3,7,4,-4,0,6,-15,-9,-4,2,5,7
3,8,5,-4,-1,6,-14,-11,-6,0,3,6
3,9,6,-5,-1,7,-13,-13,-7,-2,2,5
3,10,7,-6,-1,8,-12,-14,-8,-4,1,4
4,11,7,-8,-1,8,-12,-15,-9,-6,0,4
5,12,7,-9,0,9,-11,-16,-10,-9,0,3
5,13,8,-10,-1,10,-11,-17,-12,-11,-1,3
5,14,8,-9,-2,11,-10,-18,-13,-14,-1,2
3,13,9,-8,-3,11,-10,-19,-14,-16,-2,1
1,11,9,-6,-4,10,-10,-20,-16,-18,-3,0
0,9,9,-4,-5,9,-11,-22,-17,-20,-4,-1
-2,8,9,-3,-6,9,-10,-23,-19,-21,-5,-2
-2,8,10,-3,-6,9,-10,-23,-19,-22,-6,-2
-1,8,10,-4,-6,9,-9,-24,-20,-23,-6,-2
-1,8,10,-4,-6,9,-9,-24,-21,-24,-6,-2
-2,8,10,-3,-6,9,-8,-25,-22,-25,-7,-3
-2,8,11,-3,-7,9,-8,-25,-22,-25,-7,-3
-3,8,11,-2,-8,10,-8,-25,-22,-25,-6,-3
-4,7,11,-1,-8,9,-7,-25,-22,-24,-6,-3
-5,5,11,0,-8,8,-7,-26,-23,-24,-7,-4
-5,4,10,0,-7,7,-8,-26,-23,-25,-9,-5
-6,3,10,0,-8,6,-8,-27,-23,-25,-10,-6
-7,2,9,1,-8,6,-8,-27,-24,-25,-10,-6
-7,2,9,2,-8,5,-8,-27,-24,-25,-11,-7
-8,1,8,3,-8,5,-8,-27,-25,-25,-12,-8
-8,0,8,4,-8,4,-8,-27,-25,-25,-13,-9
-9,-1,8,5,-9,4,-8,-28,-25,-25,-14,-10
-9,-1,8,5,-9,4,-8,-28,-26,-24,-15,-10
-9,-1,9,5,-9,4,-7,-28,-26,-23,-14,-10
-9,0,9,4,-9,5,-7,-28,-26,-21,-14,-10
-9,0,9,3,-9,5,-7,-28,-26,-21,-14,-10
-9,2,10,2,-9,6,-7,-28,-27,-20,-13,-9
-7,4,11,1,-9,8,-7,-27,-27,-19,-12,-8
-7,6,12,0,-9,9,-6,-27,-26,-18,-11,-7
-7,6,12,0,-9,9,-6,-27,-26,-18,-11,-7
-7,5,12,0,-10,8,-7,-27,-26,-17,-11,-7
-7,4,12,1,-9,8,-8,-27,-26,-17,-12,-8
-7,4,11,1,-9,7,-8,-27,-27,-16,-12,-8
-6,4,11,1,-8,7,-8,-26,-27,-16,-12,-8
-6,4,10,0,-7,6,-8,-26,-26,-15,-12,-8
-5,4,9,0,-7,6,-8,-25,-26,-14,-12,-8
-5,4,8,0,-6,6,-8,-25,-26,-13,-12,-8
-4,4,8,0,-6,6,-8,-25,-26,-13,-12,-8
-4,4,7,0,-6,6,-9,-26,-26,-12,-11,-8
-4,3,7,0,-6,5,-9,-26,-27,-12,-11,-8
-4,2,7,1,-6,5,-9,-25,-27,-11,-11,-8
-5,2,7,1,-7,5,-9,-25,-27,-9,-10,-8
-6,2,8,1,-7,5,-9,-25,-28,-8,-10,-8
-6,3,8,1,-7,6,-9,-25,-28,-8,-10,-8
-4,5,8,0,-6,7,-9,-24,-28,-8,-10,-8
-3,6,8,-1,-6,7,-8,-24,-27,-7,-10,-8
-3,6,9,-2,-6,8,-7,-23,-27,-6,-10,-8
-3,6,9,-2,-6,7,-7,-23,-26,-5,-10,-7
-3,5,8,-2,-6,7,-6,-23,-26,-4,-10,-7
-3,5,8,-2,-5,6,-5,-23,-25,-3,-10,-7
-3,4,7,-1,-5,6,-5,-22,-25,-2,-9,-7
-3,4,7,-1,-5,6,-5,-22,-24,-1,-9,-6
-2,5,7,-2,-5,6,-4,-21,-23,0,-8,-6
-1,7,7,-3,-5,7,-4,-20,-22,1,-7,-5
-1,7,8,-3,-5,8,-3,-20,-21,2,-6,-5
-1,7,8,-3,-5,7,-3,-19,-21,2,-6,-4
0,6,7,-3,-4,6,-3,-19,-20,3,-6,-4
0,7,6,-4,-3,6,-4,-19,-20,3,-6,-4
1,8,7,-5,-3,7,-4,-20,-21,4,-6,-4
1,9,8,-5,-3,8,-5,-20,-21,4,-6,-4
1,10,9,-6,-3,9,-5,-19,-20,4,-6,-4
0,10,9,-5,-4,10,-5,-19,-19,4,-5,-4
0,10,9,-5,-5,9,-6,-19,-18,4,-6,-4
0,9,9,-5,-5,9,-6,-19,-18,4,-6,-4
0,10,10,-5,-6,10,-6,-19,-18,4,-6,-4
0,10,10,-5,-6,10,-6,-19,-18,4,-6,-3
-1,10,10,-4,-6,10,-5,-19,-18,4,-5,-3
-2,8,10,-3,-6,9,-5,-19,-18,4,-5,-3
-3,7,10,-1,-6,8,-6,-19,-17,4,-5,-3
-4,5,9,0,-6,7,-6,-19,-17,4,-6,-4
-5,3,9,1,-7,6,-7,-19,-17,3,-6,-4
-5,3,8,0,-7,6,-8,-19,-17,3,-6,-4
-3,4,8,0,-6,6,-8,-19,-17,4,-6,-4
-2,5,7,-1,-5,6,-8,-19,-16,4,-6,-3
-2,5,7,-2,-5,6,-8,-19,-16,3,-6,-4
-1,5,7,-2,-4,6,-8,-19,-17,3,-7,-4
-2,4,7,-1,-4,5,-8,-19,-17,2,-7,-5
-2,3,6,0,-4,4,-8,-20,-17,2,-8,-5
-3,2,6,0,-4,4,-7,-21,-18,2,-8,-5
-4,1,6,1,-5,3,-7,-22,-19,2,-8,-6
-6,0,6,2,-6,3,-8,-24,-20,1,-9,-7
-8,0,7,3,-8,3,-8,-26,-22,0,-10,-7
-9,0,8,4,-9,3,-9,-27,-23,0,-10,-8
-10,0,9,5,-9,3,-9,-28,-23,0,-11,-8
-10,0,9,5,-10,4,-9,-28,-23,0,-11,-9
-10,0,10,5,-10,4,-9,-28,-23,0,-11,-9
-10,0,10,5,-9,4,-10,-28,-24,-1,-12,-9
-9,0,10,4,-9,4,-10,-28,-24,-1,-12,-9
-9,1,10,3,-9,5,-9,-28,-24,0,-12,-9
-8,2,10,2,-9,5,-8,-28,-24,0,-11,-8
-6,3,9,1,-8,5,-7,-27,-23,1,-10,-8
-4,4,9,-1,-6,6,-6,-26,-23,2,-9,-7
-2,6,8,-2,-5,6,-5,-25,-22,3,-9,-7
-2,7,9,-3,-5,7,-4,-25,-23,3,-9,-7
-2,7,10,-3,-6,8,-5,-26,-24,2,-10,-7
-3,7,10,-2,-7,8,-5,-26,-24,2,-10,-7
-5,6,10,0,-8,8,-6,-27,-25,1,-10,-8
-5,5,10,0,-8,7,-7,-27,-25,1,-10,-8
-5,5,10,0,-7,7,-7,-26,-24,1,-10,-8
-6,4,9,0,-7,7,-7,-26,-24,0,-11,-8
-7,3,9,2,-8,6,-8,-27,-26,-1,-12,-9
-9,1,9,3,-9,5,-9,-28,-27,-2,-12,-10
-9,0,9,4,-10,4,-10,-29,-28,-2,-12,-10
-9,0,9,4,-9,5,-10,-29,-28,-2,-12,-9
-7,1,9,2,-8,5,-9,-28,-26,-2,-11,-8
-6,3,8,1,-7,5,-7,-27,-25,-2,-10,-7
-4,4,8,0,-6,5,-6,-26,-25,-3,-10,-7
-4,4,8,0,-6,5,-6,-26,-25,-4,-11,-7
-4,4,9,0,-7,6,-7,-26,-26,-5,-11,-7
-5,4,9,0,-7,7,-8,-27,-27,-6,-12,-7
-5,4,9,0,-7,7,-8,-28,-28,-7,-12,-8
-5,5,9,-1,-7,8,-8,-27,-28,-8,-11,-8
-4,6,9,-1,-7,8,-7,-26,-26,-9,-11,-9
-4,5,9,-1,-7,7,-7,-25,-25,-10,-12,-9
-4,4,9,0,-7,7,-6,-25,-25,-12,-12,-9
-4,3,8,0,-6,6,-6,-25,-25,-13,-12,-9
-4,3,7,0,-6,5,-7,-25,-25,-15,-12,-9
-4,2,6,1,-6,5,-7,-26,-25,-16,-13,-9
-4,2,6,1,-6,5,-7,-26,-25,-18,-13,-9
-4,3,7,1,-6,5,-8,-27,-26,-19,-13,-9
-5,3,8,1,-6,6,-8,-29,-28,-21,-13,-9
-6,3,9,2,-7,6,-9,-30,-29,-23,-13,-8
-7,3,10,2,-8,7,-10,-32,-31,-25,-12,-7
-6,4,10,1,-8,7,-12,-34,-32,-26,-11,-6
-5,5,10,0,-8,7,-14,-37,-33,-27,-9,-4
-4,7,10,-1,-7,8,-16,-41,-35,-26,-6,-1
-2,8,10,-3,-6,9,-19,-46,-38,-26,-3,1
0,10,9,-5,-4,10,-22,-51,-41,-25,0,5
3,11,8,-7,-2,10,-25,-57,-44,-23,4,9
6,13,6,-9,0,10,-29,-62,-47,-21,9,13
10,15,4,-12,3,10,-33,-67,-50,-18,14,17
15,17,2,-16,6,10,-37,-72,-53,-14,21,23
20,19,-1,-20,10,9,-43,-78,-57,-10,27,28
25,21,-5,-24,15,8,-50,-83,-62,-8,33,34
33,23,-10,-29,22,7,-56,-86,-65,-5,38,38
42,27,-15,-35,29,6,-61,-87,-68,-5,41,42
49,31,-18,-41,34,6,-66,-90,-73,-8,41,43
54,35,-20,-45,38,7,-71,-95,-81,-14,38,42
59,39,-20,-49,40,9,-76,-101,-91,-24,33,39
63,42,-20,-53,42,11,-81,-107,-102,-36,25,35
65,43,-22,-54,44,10,-83,-111,-112,-50,15,26
65,42,-23,-54,44,10,-82,-113,-120,-64,2,16
59,41,-19,-51,39,12,-76,-114,-126,-77,-10,5
50,40,-11,-45,30,15,-68,-116,-131,-90,-23,-6
38,36,-2,-37,20,17,-60,-119,-135,-102,-34,-16
25,29,3,-27,11,16,-53,-119,-137,-112,-44,-25
15,22,7,-18,4,14,-46,-117,-136,-118,-51,-32
6,15,9,-10,-1,11,-40,-112,-132,-119,-55,-37
-1,9,10,-3,-6,9,-34,-105,-125,-118,-57,-40
-8,3,11,2,-10,7,-29,-96,-116,-115,-57,-41
-12,-1,11,7,-12,5,-25,-88,-106,-110,-56,-42
-15,-4,10,9,-13,3,-23,-79,-96,-104,-54,-41
-16,-5,10,11,-13,2,-21,-71,-86,-97,-50,-39
-16,-6,9,11,-13,2,-20,-63,-76,-90,-46,-36
-15,-6,9,11,-13,1,-18,-55,-67,-82,-41,-33
-14,-5,9,10,-12,1,-16,-47,-57,-74,-37,-29
-14,-4,10,9,-12,3,-13,-39,-47,-67,-32,-26
-14,-3,11,8,-12,4,-9,-31,-37,-60,-29,-24
-13,-1,11,7,-12,5,-6,-24,-29,-55,-26,-21
-12,-1,10,6,-11,5,-5,-18,-22,-50,-24,-20
-12,-2,9,7,-11,4,-3,-13,-16,-46,-22,-19
-13,-5,7,9,-10,1,-2,-8,-11,-42,-20,-18
-13,-9,4,10,-9,-2,0,-4,-7,-39,-19,-18
-12,-11,1,11,-7,-5,1,0,-4,-37,-18,-17
-11,-13,-1,12,-5,-7,4,2,-1,-35,-17,-17
-10,-13,-3,12,-4,-8,6,4,0,-34,-16,-16
-10,-12,-3,11,-3,-8,7,6,2,-32,-15,-16
-9,-12,-3,11,-2,-8,7,8,4,-31,-15,-16
-9,-13,-4,11,-2,-8,8,10,6,-31,-15,-16
-9,-13,-4,11,-2,-9,8,11,7,-30,-15,-16
-9,-14,-5,11,-2,-9,8,12,8,-29,-14,-15
-10,-15,-5,11,-2,-10,9,13,9,-27,-13,-15
-10,-15,-6,12,-2,-10,10,14,10,-25,-13,-14
-10,-15,-6,12,-2,-10,10,16,11,-24,-12,-14
-10,-15,-6,12,-2,-10,11,17,13,-23,-12,-13
-10,-16,-7,13,-1,-11,11,18,15,-23,-13,-13
-10,-18,-8,14,-1,-13,11,19,16,-23,-13,-14
-11,-20,-9,15,-1,-14,11,20,17,-23,-13,-14
-11,-21,-10,16,-1,-15,11,21,18,-22,-13,-14
-11,-22,-10,17,-1,-16,12,21,18,-22,-13,-14
-11,-22,-10,17,-1,-16,12,22,19,-21,-13,-14
-11,-21,-10,16,-1,-16,12,23,19,-21,-13,-14
-10,-20,-9,15,0,-15,12,24,20,-20,-12,-14
-9,-19,-9,15,0,-14,12,24,21,-20,-12,-14
-8,-18,-10,14,0,-14,12,25,22,-20,-12,-14
-7,-18,-10,13,1,-14,12,26,23,-19,-11,-13
-7,-18,-11,13,1,-14,12,27,24,-19,-11,-13
-7,-18,-11,12,1,-14,13,28,25,-18,-10,-12
-7,-18,-11,13,1,-14,13,29,26,-18,-9,-12
-7,-19,-11,13,2,-15,13,30,27,-18,-9,-12
-7,-19,-12,13,2,-16,13,31,28,-18,-9,-11
-7,-21,-13,14,2,-17,13,32,29,-19,-9,-11
-8,-23,-14,16,2,-18,13,33,30,-19,-9,-11
-9,-24,-15,17,2,-19,13,34,32,-19,-9,-11
-10,-25,-15,18,2,-20,14,36,34,-20,-9,-11
-10,-26,-15,18,2,-20,14,37,35,-20,-9,-11
-10,-27,-16,19,2,-21,14,39,36,-21,-9,-12
-11,-27,-16,19,2,-21,14,40,37,-21,-9,-12
-11,-28,-16,20,2,-22,15,41,39,-21,-8,-12
-11,-28,-17,20,3,-22,16,43,40,-20,-8,-11
-10,-28,-18,19,4,-23,17,45,42,-20,-7,-11
-9,-29,-19,19,5,-23,18,47,44,-19,-6,-11
-8,-29,-20,19,5,-24,18,49,47,-18,-5,-10
-8,-29,-21,19,6,-25,18,51,49,-16,-5,-10
-7,-30,-22,19,7,-26,18,52,50,-14,-5,-9
-7,-31,-23,19,8,-27,18,54,52,-11,-4,-9
-6,-30,-23,18,8,-26,19,56,54,-8,-3,-8
-4,-28,-23,16,9,-26,19,58,56,-5,-1,-7
-3,-27,-24,15,10,-26,19,60,59,-3,0,-6
-2,-27,-24,14,10,-25,19,62,61,-1,0,-6
-1,-26,-24,13,11,-25,20,65,63,0,1,-6
0,-26,-25,13,12,-25,21,67,66,3,2,-5
2,-25,-26,12,14,-26,21,69,68,6,3,-5
4,-25,-28,11,16,-26,22,71,70,8,4,-4
6,-25,-30,10,18,-27,22,73,71,11,6,-2
6,-25,-30,9,18,-27,22,75,73,14,7,-1
6,-25,-31,10,18,-28,22,77,75,16,9,0
6,-26,-31,10,18,-28,22,79,77,18,10,0
6,-26,-32,10,18,-29,22,81,79,19,10,0
5,-27,-32,11,18,-30,22,82,81,21,10,1
5,-29,-33,12,19,-31,22,84,82,23,11,1
6,-30,-35,12,20,-33,22,85,83,25,12,2
7,-30,-37,11,22,-33,23,87,85,27,13,3
10,-28,-37,9,23,-33,23,89,87,30,15,4
12,-26,-38,7,25,-32,23,90,88,33,17,6
14,-25,-39,5,26,-32,23,92,90,36,19,7
15,-24,-39,5,27,-32,23,93,91,38,21,8
16,-24,-39,4,27,-32,22,93,91,39,22,9
16,-23,-39,3,28,-32,22,94,91,41,23,10
17,-22,-39,2,28,-31,21,94,91,43,24,11
18,-20,-39,0,29,-30,20,94,91,45,24,12
19,-19,-38,0,28,-29,19,94,91,47,25,13
19,-19,-37,0,28,-28,18,93,91,49,26,13
19,-18,-36,0,28,-27,17,93,90,50,27,14
20,-17,-36,-1,29,-27,17,92,90,52,28,15
21,-16,-36,-2,29,-26,17,92,90,53,29,16
21,-15,-35,-3,29,-25,17,91,89,54,29,17
22,-14,-35,-4,29,-24,17,89,88,54,30,17
23,-13,-36,-4,29,-24,16,88,86,55,30,18
23,-13,-36,-5,29,-24,16,86,84,55,31,19
24,-11,-35,-6,29,-22,15,84,82,56,32,20
25,-9,-34,-8,29,-21,15,82,81,56,32,21
26,-6,-32,-10,29,-19,14,80,79,56,33,22
27,-3,-31,-12,29,-17,13,77,77,55,33,22
28,-1,-30,-14,29,-15,12,74,74,54,33,23
28,0,-28,-14,29,-14,11,71,71,53,33,23
27,1,-26,-14,27,-12,10,67,68,51,32,23
26,1,-24,-14,25,-11,9,63,65,49,31,23
25,2,-22,-14,24,-10,7,59,61,46,30,22
24,3,-20,-14,22,-8,5,55,57,43,29,22
22,3,-18,-13,21,-7,4,51,53,40,28,22
22,5,-16,-13,19,-6,3,48,50,37,27,22
21,6,-14,-14,18,-4,2,44,47,33,26,21
21,8,-12,-14,17,-3,1,40,43,30,24,20
21,9,-12,-15,16,-2,0,36,39,26,23,19
20,9,-11,-15,15,-1,-1,31,34,22,22,19
19,10,-9,-15,14,0,-1,27,30,18,20,19
19,10,-8,-15,13,1,-2,24,27,15,19,18
19,11,-7,-15,12,2,-3,20,24,11,18,18
18,11,-6,-15,12,2,-4,17,20,7,16,17
17,12,-4,-15,11,3,-4,14,17,4,15,16
16,13,-3,-15,10,5,-5,10,14,1,14,15
16,14,-1,-15,9,6,-5,7,11,-2,13,15
15,15,0,-15,8,7,-5,4,8,-5,12,14
15,16,1,-15,7,8,-5,1,5,-8,11,13
14,16,3,-15,6,9,-5,-1,2,-10,9,12
12,16,4,-14,5,10,-5,-3,0,-13,8,11
11,15,5,-13,4,10,-5,-5,-2,-16,6,10
10,15,6,-13,3,10,-5,-7,-4,-19,5,10
9,15,6,-12,2,11,-5,-8,-6,-21,3,9
8,15,7,-12,1,11,-5,-10,-8,-23,2,8
7,15,8,-11,0,11,-5,-12,-10,-25,0,6
7,15,8,-11,-1,11,-4,-14,-12,-27,-1,5
7,15,8,-10,-1,11,-4,-15,-13,-29,-2,4
7,14,8,-10,0,11,-3,-15,-14,-30,-3,4
6,13,7,-9,0,11,-2,-16,-15,-31,-4,3
4,11,7,-7,-1,10,-2,-17,-17,-32,-5,2
1,9,8,-5,-3,9,-2,-19,-19,-34,-6,0
-1,7,8,-3,-4,8,-3,-20,-20,-35,-7,0
-2,6,9,-2,-5,7,-3,-21,-21,-36,-8,-1
-3,5,9,-1,-6,7,-3,-22,-22,-36,-8,-1
-4,5,9,-1,-6,7,-3,-22,-22,-37,-9,-2
-4,5,9,0,-7,8,-3,-22,-22,-37,-9,-2
-4,6,10,0,-7,8,-2,-21,-22,-37,-9,-2
-4,6,9,-1,-6,8,-2,-21,-22,-37,-9,-2
-3,6,8,-1,-5,7,-1,-21,-22,-37,-10,-2
-3,6,8,-1,-5,7,-1,-21,-22,-37,-10,-3
-3,6,8,-1,-5,7,-1,-21,-22,-37,-10,-3
-3,5,8,-1,-5,7,-1,-22,-22,-37,-11,-4
-4,4,9,0,-6,7,-1,-23,-23,-37,-11,-4
-5,4,9,1,-7,7,-1,-24,-24,-37,-11,-4
-5,3,10,1,-7,7,-2,-24,-25,-36,-11,-4
-6,3,10,1,-7,7,-2,-25,-25,-36,-11,-4
-6,3,10,2,-8,7,-2,-25,-25,-36,-11,-5
-7,3,11,2,-8,7,-2,-25,-25,-36,-11,-5
-6,4,11,1,-8,8,-2,-24,-25,-35,-11,-4
-5,6,11,0,-8,8,-1,-24,-25,-35,-11,-4
-5,6,11,0,-8,8,-1,-24,-25,-35,-11,-4
-5,6,11,0,-8,8,-1,-24,-25,-34,-11,-4
-5,6,10,0,-7,8,-1,-24,-25,-33,-11,-4
-4,6,10,-1,-7,8,-1,-23,-24,-33,-11,-4
-3,7,10,-2,-6,9,0,-22,-24,-33,-11,-4
-3,7,10,-2,-6,8,0,-22,-24,-33,-11,-5
-3,6,10,-1,-6,8,0,-22,-24,-33,-11,-5
-3,6,10,-1,-6,8,0,-22,-24,-33,-11,-5
-3,6,10,-1,-6,8,0,-22,-24,-32,-11,-5
-3,6,10,-1,-6,8,0,-22,-24,-32,-11,-5
-3,6,9,-1,-6,8,0,-22,-25,-32,-11,-5
-4,5,9,0,-7,7,0,-22,-25,-32,-11,-5
-5,4,10,1,-8,7,0,-23,-26,-32,-12,-6
-7,3,10,2,-8,7,0,-23,-27,-32,-12,-6
-8,2,10,3,-8,6,0,-23,-27,-32,-13,-6
-8,1,10,3,-8,6,0,-23,-28,-32,-13,-6
-8,1,10,3,-8,5,-1,-23,-28,-31,-13,-6
-8,1,10,3,-8,5,-1,-23,-27,-31,-13,-6
-8,1,10,3,-9,6,0,-22,-27,-30,-12,-6
-8,2,10,3,-9,6,0,-22,-26,-30,-12,-6
-7,2,10,3,-9,6,-1,-21,-26,-30,-12,-6
-6,3,9,2,-8,6,-1,-21,-26,-29,-11,-6
-6,3,10,2,-8,7,-1,-21,-26,-29,-11,-5
-6,3,10,1,-8,7,-1,-21,-26,-28,-10,-5
-7,2,10,2,-8,7,-1,-21,-26,-28,-10,-5
-7,1,10,2,-8,6,-1,-21,-25,-28,-10,-5
-7,1,9,3,-7,5,0,-21,-25,-28,-10,-5
-8,0,8,3,-8,4,0,-21,-25,-28,-11,-5
-8,0,8,4,-8,4,0,-21,-25,-28,-11,-5
-9,0,8,4,-8,4,0,-21,-24,-27,-10,-5
-8,0,9,3,-8,5,0,-20,-23,-26,-9,-4
-8,1,9,3,-9,5,0,-20,-22,-25,-9,-4
-9,1,10,4,-9,5,0,-19,-21,-24,-8,-4
-8,1,10,4,-9,5,0,-19,-20,-24,-8,-4
-7,2,10,3,-8,6,1,-19,-20,-23,-8,-4
-6,3,10,2,-7,7,1,-19,-19,-23,-8,-4
-6,4,10,1,-7,7,1,-19,-19,-22,-8,-4
-6,4,10,1,-7,7,0,-19,-19,-22,-8,-4
-6,5,10,0,-7,7,0,-19,-18,-22,-8,-3
-5,5,10,0,-7,8,1,-19,-18,-21,-7,-3
-5,6,10,0,-7,8,1,-19,-17,-21,-7,-3
-5,6,11,0,-7,8,1,-19,-17,-21,-7,-3
-5,5,11,0,-7,8,1,-19,-17,-21,-7,-3
-6,5,11,0,-7,8,1,-19,-17,-21,-8,-3
-6,4,11,1,-8,8,1,-19,-17,-21,-8,-3
-7,4,11,2,-8,8,1,-19,-17,-21,-8,-3
-7,4,11,2,-9,8,2,-19,-16,-20,-8,-3
-6,4,11,1,-8,8,2,-19,-15,-20,-8,-3
-5,5,10,0,-7,8,2,-19,-15,-19,-8,-3
-3,6,10,-1,-6,8,1,-19,-14,-19,-8,-3
-2,6,9,-1,-5,8,1,-19,-15,-18,-7,-3
-1,7,9,-2,-5,8,0,-19,-15,-18,-7,-2
0,8,9,-3,-4,9,0,-19,-15,-18,-6,-2
0,9,9,-4,-4,9,1,-19,-16,-18,-6,-1
0,9,9,-4,-4,9,1,-20,-17,-18,-6,-1
-2,8,9,-3,-5,9,0,-22,-18,-19,-7,-1
-3,8,10,-2,-6,9,0,-24,-19,-19,-7,-2
-3,8,11,-2,-7,9,1,-24,-19,-19,-7,-2
-4,7,12,-2,-8,10,1,-25,-20,-19,-8,-2
-4,7,12,-2,-8,10,1,-25,-20,-19,-8,-3
-4,7,12,-1,-8,9,1,-25,-20,-19,-9,-3
-5,7,12,-1,-8,9,1,-25,-20,-19,-9,-3
-5,7,12,-1,-9,10,1,-25,-20,-19,-9,-3
-4,8,12,-2,-8,10,2,-24,-20,-19,-9,-3
-3,9,11,-3,-7,10,3,-24,-20,-19,-9,-3
-2,9,11,-4,-6,10,4,-24,-20,-19,-9,-3
-1,10,11,-4,-6,11,5,-23,-19,-18,-8,-3
-1,10,12,-4,-6,11,5,-23,-20,-18,-8,-3
-1,10,12,-4,-6,11,5,-23,-20,-18,-9,-3
-1,10,12,-4,-6,11,5,-23,-21,-18,-9,-3
-1,11,12,-5,-6,11,5,-23,-21,-18,-9,-3
-2,11,12,-5,-6,11,5,-23,-21,-18,-9,-3
-2,10,12,-4,-6,11,5,-23,-21,-18,-9,-3
-2,10,12,-4,-6,11,6,-23,-22,-18,-9,-3
-2,9,11,-4,-6,11,6,-23,-22,-18,-9,-3
-1,9,11,-4,-5,11,6,-23,-22,-18,-9,-3
-1,10,11,-4,-5,11,6,-23,-22,-18,-9,-3
-1,10,11,-4,-5,11,6,-23,-22,-18,-8,-3
-1,10,11,-4,-6,10,5,-24,-23,-18,-8,-3
-1,9,11,-4,-6,10,4,-24,-24,-19,-9,-3
-2,9,11,-3,-6,10,4,-25,-24,-19,-9,-3
-3,9,11,-3,-7,10,4,-25,-24,-19,-9,-3
-3,8,12,-2,-7,10,4,-25,-24,-20,-9,-3
-4,8,12,-1,-8,10,3,-25,-24,-20,-10,-4
-5,7,12,0,-8,10,3,-26,-25,-21,-10,-4
-5,6,11,0,-8,9,3,-26,-26,-21,-11,-5
-5,5,11,0,-8,9,4,-26,-26,-22,-11,-6
-5,5,10,0,-8,8,4,-26,-26,-22,-11,-6
-5,5,10,0,-8,8,4,-26,-26,-22,-11,-5
-6,3,10,2,-9,7,4,-26,-26,-22,-11,-5
-8,1,9,4,-9,5,4,-26,-26,-23,-11,-6
-9,0,9,5,-9,4,4,-27,-27,-23,-12,-6
-11,0,10,6,-10,5,3,-27,-27,-23,-12,-6
-12,0,11,6,-11,5,3,-28,-27,-23,-12,-7
-12,0,12,6,-12,6,3,-28,-28,-24,-12,-7
-12,1,12,6,-12,7,2,-29,-28,-24,-12,-8
-10,3,13,4,-12,8,2,-29,-28,-24,-12,-7
-9,5,14,2,-11,9,2,-30,-29,-24,-12,-7
-9,5,14,2,-12,9,0,-32,-30,-23,-11,-6
-10,5,14,2,-12,9,-1,-36,-32,-23,-9,-4
-9,5,14,1,-11,9,-4,-41,-34,-21,-7,-2
-6,6,13,0,-10,10,-7,-46,-38,-20,-4,0
-4,8,13,-2,-8,11,-10,-52,-42,-17,0,4
-2,9,12,-3,-7,11,-13,-58,-46,-13,4,8
0,11,11,-5,-6,11,-18,-63,-49,-9,10,12
2,13,10,-7,-4,12,-22,-68,-51,-4,15,17
7,15,8,-11,0,12,-28,-73,-54,0,21,23
13,18,4,-15,5,12,-34,-79,-58,5,28,28
20,21,0,-21,10,11,-40,-83,-61,9,34,34
28,24,-4,-26,16,11,-45,-86,-63,13,39,39
35,26,-9,-31,22,9,-51,-88,-67,14,42,42
41,28,-12,-34,27,8,-56,-91,-72,11,42,42
45,30,-14,-37,29,8,-61,-96,-81,5,39,41
49,33,-16,-41,32,8,-67,-102,-92,-4,33,39
54,36,-18,-45,36,9,-71,-108,-103,-15,26,34
59,38,-21,-49,40,9,-73,-111,-112,-28,16,27
60,39,-21,-50,41,9,-70,-113,-119,-41,4,18
55,39,-16,-47,36,12,-64,-115,-125,-55,-8,7
46,38,-8,-41,27,15,-56,-116,-129,-68,-20,-4
33,34,0,-33,17,17,-48,-118,-133,-79,-32,-14
21,27,6,-23,7,17,-40,-118,-135,-88,-42,-23
9,18,9,-13,0,14,-34,-116,-135,-95,-49,-31
0,10,10,-4,-6,11,-28,-112,-131,-98,-54,-36
-8,4,11,2,-10,8,-22,-105,-123,-97,-56,-39
-13,-1,12,7,-12,6,-17,-97,-114,-94,-56,-41
-17,-5,12,11,-14,4,-13,-88,-105,-89,-55,-42
-18,-8,11,13,-14,2,-11,-79,-95,-84,-53,-41
-19,-9,11,14,-15,1,-9,-71,-85,-77,-49,-39
-20,-9,11,15,-15,1,-8,-63,-76,-69,-45,-36
-20,-9,11,15,-16,1,-7,-55,-67,-62,-40,-33
-20,-8,12,14,-16,1,-5,-47,-57,-54,-35,-29
-20,-7,12,13,-16,2,-3,-39,-48,-47,-31,-26
-20,-6,13,13,-16,3,0,-32,-39,-41,-28,-24
-19,-6,13,13,-16,4,2,-25,-31,-36,-25,-22
-18,-5,13,12,-15,4,4,-19,-23,-32,-23,-20
-16,-5,11,12,-14,3,6,-13,-17,-27,-21,-19
-15,-6,8,12,-12,1,7,-7,-12,-23,-18,-18
-15,-8,6,12,-11,-1,8,-3,-8,-19,-16,-16
-14,-10,4,13,-10,-3,9,0,-5,-16,-15,-15
-13,-10,2,12,-8,-4,10,3,-3,-14,-13,-14
-11,-10,1,11,-6,-4,11,5,0,-12,-12,-13
-10,-9,1,10,-5,-3,13,7,2,-10,-11,-12
-9,-9,1,9,-4,-3,14,10,5,-8,-10,-11
-8,-9,0,9,-4,-3,15,12,7,-6,-10,-11
-8,-10,-1,9,-3,-4,15,14,8,-5,-10,-11
-9,-11,-2,10,-3,-6,15,15,9,-4,-10,-11
-9,-12,-3,11,-3,-7,15,16,10,-3,-9,-11
-9,-13,-4,12,-2,-8,16,17,11,-2,-9,-11
-10,-15,-4,13,-2,-9,17,18,12,-1,-9,-11
-11,-16,-5,14,-2,-10,17,19,14,0,-9,-11
-11,-17,-5,14,-2,-11,17,20,15,1,-9,-11
-10,-17,-6,14,-1,-11,17,22,16,2,-9,-11
-10,-18,-7,14,-1,-12,18,23,18,4,-9,-11
-11,-19,-7,15,-1,-12,18,24,19,6,-9,-11
-11,-19,-8,16,-1,-13,17,25,19,7,-8,-11
-11,-20,-9,16,-1,-14,16,25,19,8,-8,-11
-11,-20,-9,16,-1,-15,16,25,20,9,-8,-10
-11,-20,-9,16,-1,-15,17,26,21,10,-8,-10
-11,-19,-9,15,0,-14,17,27,22,11,-8,-10
-10,-19,-9,15,0,-14,17,28,24,12,-8,-10
-10,-19,-9,14,0,-14,18,30,25,12,-7,-10
-9,-19,-9,14,0,-14,19,31,27,13,-7,-9
-8,-18,-10,13,1,-13,20,33,29,14,-6,-9
-7,-16,-10,12,2,-13,20,35,30,15,-5,-8
-6,-16,-10,11,3,-13,21,36,32,16,-5,-8
-5,-15,-10,10,3,-13,21,37,33,16,-5,-8
-5,-15,-10,10,3,-13,21,38,34,16,-4,-8
-4,-15,-11,10,3,-13,21,39,36,15,-4,-8
-4,-15,-11,10,3,-13,21,40,37,15,-3,-8
-4,-16,-11,10,3,-13,21,42,39,15,-3,-8
-4,-17,-12,11,3,-14,21,43,40,14,-2,-8
-5,-18,-13,12,3,-15,21,45,42,13,-2,-8
-5,-19,-14,12,3,-16,21,46,43,12,-1,-8
-5,-20,-14,12,4,-17,22,48,45,12,0,-7
-5,-20,-15,12,5,-18,22,50,47,12,1,-7
-5,-21,-16,13,5,-18,23,52,49,12,2,-7
-5,-22,-16,13,6,-18,23,53,51,12,3,-6
-5,-22,-17,14,6,-19,23,55,53,12,3,-6
-5,-23,-18,14,7,-20,24,56,54,12,3,-6
-6,-24,-19,15,7,-21,24,58,56,12,3,-6
-6,-25,-20,16,7,-22,24,59,58,13,4,-6
-6,-26,-20,16,7,-23,24,61,60,14,4,-5
-6,-26,-21,16,7,-24,24,63,61,15,5,-4
-5,-28,-22,16,8,-25,24,65,63,15,5,-4
-5,-29,-23,17,9,-26,24,66,64,16,5,-4
-6,-30,-24,19,9,-27,24,68,66,17,6,-4
-6,-31,-25,19,9,-27,24,69,67,18,7,-3
-6,-31,-25,19,9,-28,24,71,68,20,8,-3
-5,-31,-25,19,10,-28,24,73,70,21,9,-3
-5,-31,-26,18,10,-29,24,75,72,23,9,-2
-4,-31,-27,18,11,-29,24,76,74,25,10,-2
-2,-30,-28,17,13,-29,24,79,76,27,11,-1
0,-29,-29,15,14,-29,25,81,79,30,12,0
1,-28,-30,14,16,-29,26,84,81,33,14,1
2,-28,-31,13,17,-29,26,86,83,35,15,2
3,-29,-32,13,18,-30,26,88,84,38,16,3
4,-29,-34,12,19,-31,26,90,86,40,18,4
5,-30,-35,12,20,-32,25,91,87,42,19,5
6,-30,-36,11,21,-32,25,92,88,44,20,5
8,-28,-36,10,22,-32,25,93,90,46,21,6
10,-26,-36,8,23,-31,25,95,91,49,22,8
13,-23,-36,5,24,-30,25,96,93,53,24,9
16,-20,-36,2,26,-28,26,98,95,56,27,11
18,-18,-36,0,27,-27,26,99,96,60,29,13
20,-16,-36,-2,28,-26,26,100,97,62,30,14
21,-15,-37,-3,29,-26,26,100,97,65,31,15
22,-15,-37,-4,30,-26,26,100,97,67,32,16
23,-14,-37,-4,30,-25,25,100,97,69,33,17
22,-14,-37,-4,30,-25,24,99,96,71,33,18
22,-14,-36,-3,29,-25,23,98,95,73,34,18
21,-14,-35,-3,29,-25,21,96,94,75,35,19
21,-13,-35,-4,28,-24,20,94,92,77,35,20
21,-12,-34,-4,28,-23,18,92,91,78,36,20
21,-11,-33,-4,27,-22,17,90,89,79,36,21
21,-10,-32,-5,27,-20,17,88,88,81,36,21
22,-8,-30,-6,26,-19,16,86,86,82,36,22
22,-6,-29,-7,26,-17,16,85,85,82,37,23
23,-4,-28,-8,26,-16,15,83,83,83,37,23
24,-3,-28,-10,26,-15,14,80,81,83,37,24
24,-1,-27,-11,26,-14,13,78,79,83,37,24
25,0,-26,-12,26,-13,12,75,76,82,37,24
25,1,-25,-13,26,-12,11,72,73,81,36,24
25,2,-24,-14,25,-10,10,69,70,79,36,24
25,3,-22,-14,24,-9,9,65,66,77,35,24
24,3,-21,-14,23,-8,7,61,63,74,34,24
23,2,-20,-13,21,-8,5,56,58,70,33,23
21,2,-18,-11,19,-7,3,52,54,66,31,23
19,3,-16,-11,17,-6,1,47,50,62,30,22
17,4,-14,-11,15,-5,0,43,46,58,29,22
17,5,-11,-11,14,-4,0,39,42,55,29,22
16,7,-9,-12,13,-2,0,35,38,50,28,21
16,8,-7,-12,12,0,-1,31,33,46,27,21
15,9,-5,-12,11,2,-2,27,30,41,25,20
14,11,-4,-13,10,4,-2,23,26,36,23,20
14,12,-2,-13,9,5,-3,19,23,31,22,19
14,13,-1,-13,8,6,-4,16,19,27,20,18
13,13,0,-13,7,7,-5,12,15,23,19,17
12,14,1,-13,6,7,-5,9,12,19,17,16
11,14,2,-13,5,8,-6,6,9,15,16,15
10,14,3,-12,4,8,-6,3,6,11,15,14
9,13,4,-11,3,8,-6,0,3,7,13,13
7,12,4,-10,2,8,-6,-2,0,3,12,12
6,12,5,-9,1,8,-6,-4,-1,0,10,12
6,11,5,-8,0,8,-6,-6,-3,-2,9,11
5,11,6,-7,0,8,-6,-8,-6,-5,8,10
3,10,7,-6,-2,8,-5,-10,-8,-7,7,9
1,10,8,-5,-3,8,-5,-12,-9,-9,6,8
0,10,9,-5,-4,9,-5,-14,-11,-11,5,6
0,10,10,-4,-5,10,-4,-15,-12,-14,3,5
-1,10,11,-4,-6,10,-4,-16,-13,-16,2,4
-2,9,12,-3,-7,11,-5,-17,-14,-18,0,3
-3,9,13,-3,-8,11,-5,-18,-16,-19,-1,1
-3,9,13,-3,-8,12,-5,-19,-17,-20,-2,0
-4,10,14,-3,-8,12,-4,-20,-18,-21,-3,0
-4,10,14,-3,-9,12,-4,-20,-18,-21,-3,0
-5,9,14,-2,-9,11,-3,-21,-19,-21,-4,-1
-5,8,14,-1,-10,11,-3,-21,-19,-21,-4,-1
-5,8,14,-1,-10,11,-2,-21,-19,-21,-4,-2
-5,8,13,-1,-9,10,-2,-21,-19,-21,-5,-2
-5,7,13,0,-9,10,-1,-21,-19,-21,-5,-2
-6,6,12,0,-9,9,-1,-21,-19,-20,-5,-2
-8,5,12,1,-9,8,-1,-22,-20,-20,-5,-2
-8,4,12,2,-9,8,0,-22,-21,-20,-5,-2
-8,4,12,2,-9,8,0,-22,-21,-20,-5,-2
-9,4,12,3,-10,8,1,-23,-22,-19,-6,-2
-9,4,13,3,-11,8,0,-24,-23,-19,-6,-2
-10,4,13,3,-12,8,0,-25,-24,-19,-7,-3
-10,4,14,3,-12,9,0,-25,-24,-19,-8,-3
-11,4,14,3,-13,9,-1,-25,-24,-19,-8,-4
-11,3,14,4,-13,8,-1,-25,-24,-18,-8,-4
-12,1,14,6,-13,7,-2,-25,-24,-17,-8,-5
-13,0,13,7,-13,6,-2,-25,-25,-17,-9,-5
-15,-2,12,9,-13,5,-2,-25,-25,-16,-9,-6
-16,-4,12,10,-14,4,-3,-26,-26,-16,-9,-6
-16,-4,12,11,-14,4,-3,-26,-27,-16,-9,-6
-16,-4,12,10,-14,4,-3,-25,-27,-14,-9,-6
-15,-3,13,10,-14,5,-2,-25,-26,-13,-9,-6
-15,-2,13,9,-14,5,-2,-25,-26,-13,-10,-7
-15,-1,14,9,-15,6,-1,-25,-25,-12,-10,-7
-15,0,14,8,-15,7,-1,-24,-25,-12,-10,-7
-14,0,14,8,-14,8,0,-24,-25,-11,-10,-7
-14,0,13,7,-13,7,0,-23,-25,-10,-9,-6
-13,-1,12,7,-13,6,0,-23,-26,-9,-9,-6
-14,-1,12,8,-13,6,1,-23,-27,-8,-9,-6
-14,-2,12,8,-13,5,1,-23,-27,-7,-9,-6
-15,-3,12,8,-13,5,0,-23,-27,-6,-9,-6
-15,-3,12,9,-14,5,0,-24,-27,-5,-8,-6
-15,-2,13,9,-14,5,0,-24,-28,-5,-8,-6
-15,-1,13,8,-14,6,-1,-24,-28,-5,-8,-6
-14,0,13,7,-13,6,-2,-24,-28,-4,-8,-6
-13,0,13,6,-13,7,-2,-24,-28,-4,-8,-6
-13,0,13,6,-13,7,-2,-23,-28,-3,-8,-6
-12,0,13,5,-13,6,-2,-23,-28,-3,-8,-6
-11,0,12,5,-12,6,-1,-22,-27,-2,-8,-6
-11,1,11,5,-11,6,-1,-22,-27,-1,-8,-5
-11,1,12,5,-11,6,0,-21,-26,-1,-7,-5
-11,1,12,5,-12,7,0,-21,-26,0,-7,-5
-11,2,13,5,-12,7,0,-20,-25,0,-6,-5
-11,2,13,4,-12,8,0,-20,-24,1,-6,-4
-11,2,14,4,-12,9,0,-19,-23,2,-6,-4
-11,3,14,4,-12,9,1,-19,-22,3,-6,-3
-9,3,13,3,-11,9,2,-18,-22,3,-6,-3
-8,4,13,2,-10,9,2,-18,-21,4,-6,-3
-8,4,13,2,-10,8,2,-18,-21,6,-5,-3
-8,3,13,3,-10,8,1,-18,-21,7,-4,-2
-9,3,13,3,-11,7,1,-18,-21,7,-4,-2
-9,4,13,3,-11,8,1,-18,-20,7,-4,-2
-8,5,13,1,-11,9,1,-18,-20,7,-3,-2
-7,7,13,0,-11,10,1,-18,-19,7,-3,-1
-7,8,14,-1,-11,11,1,-18,-19,7,-3,-1
-6,8,14,-1,-10,12,0,-18,-18,8,-3,-1
-6,8,14,-1,-10,11,0,-17,-17,8,-3,-1
-6,7,14,0,-10,11,1,-17,-17,8,-2,-1
-6,7,14,0,-10,11,1,-17,-16,8,-2,0
-6,7,14,0,-9,10,2,-17,-16,8,-1,0
-6,7,13,0,-9,10,2,-16,-15,8,-1,0
-4,7,12,-1,-8,10,2,-16,-14,9,-1,0
-2,8,11,-3,-7,10,2,-15,-13,10,0,1
-1,9,11,-4,-6,10,3,-14,-12,11,0,1
-1,9,12,-3,-7,11,3,-14,-12,11,1,2
-3,8,12,-2,-7,10,3,-14,-12,10,0,2
-3,8,12,-2,-7,10,1,-15,-13,9,0,1
-3,8,12,-2,-7,10,0,-17,-14,9,0,1
-4,7,12,-1,-8,10,-1,-18,-15,8,0,1
-6,6,13,0,-9,10,-1,-18,-16,8,0,1
-7,6,13,0,-10,10,-2,-19,-17,7,-1,0
-7,6,14,0,-10,10,-2,-20,-17,6,-2,0
-7,6,14,0,-11,11,-2,-21,-18,5,-3,-1
-7,7,15,0,-10,11,-2,-21,-18,4,-3,-1
-6,8,14,0,-9,11,-1,-21,-19,4,-3,0
-4,9,14,-2,-8,11,-1,-21,-19,5,-2,0
-2,10,14,-4,-8,12,0,-21,-19,5,-2,0
-1,12,14,-5,-7,13,0,-21,-19,6,-2,0
-1,13,14,-5,-8,14,0,-21,-20,6,-2,0
-2,13,15,-5,-8,14,0,-21,-20,6,-1,0
-3,12,15,-5,-9,14,0,-21,-20,6,-1,0
-4,12,15,-4,-9,14,0,-21,-19,5,-1,0
-4,11,16,-4,-10,14,1,-21,-19,5,-2,0
-5,11,16,-3,-10,14,1,-21,-19,4,-2,-1
-5,10,16,-3,-10,14,1,-21,-19,3,-3,-1
-6,10,16,-2,-10,13,1,-21,-20,2,-4,-2
-7,8,16,-1,-11,12,1,-22,-20,1,-4,-3
-8,6,15,0,-11,11,1,-22,-21,1,-5,-4
-9,5,15,2,-12,11,0,-23,-22,0,-5,-4
-10,5,16,3,-12,11,0,-23,-22,0,-5,-4
-11,5,17,3,-13,11,0,-23,-23,0,-5,-4
-12,5,17,4,-14,11,-1,-24,-24,0,-5,-4
-12,5,17,4,-14,11,-2,-25,-25,-1,-6,-4
-12,5,17,4,-14,11,-2,-25,-25,-2,-6,-5
-12,4,17,4,-14,10,-2,-25,-24,-2,-6,-5
-12,4,16,5,-14,9,-2,-24,-24,-3,-7,-5
-12,3,14,5,-13,8,-2,-24,-24,-4,-7,-5
-11,2,13,5,-12,8,-2,-24,-25,-5,-8,-6
-11,2,13,4,-12,8,-2,-24,-25,-6,-8,-6
-10,3,14,4,-12,9,-2,-24,-26,-7,-7,-5
-10,3,14,3,-12,9,-3,-25,-26,-7,-7,-5
-11,4,15,3,-12,10,-4,-25,-26,-8,-6,-4
-11,4,15,3,-13,10,-4,-25,-27,-8,-6,-4
-11,5,16,3,-13,10,-5,-25,-27,-9,-6,-4
-11,5,16,3,-13,10,-5,-25,-27,-10,-6,-4
-10,5,16,2,-12,10,-5,-25,-27,-11,-6,-4
-10,5,16,2,-12,10,-4,-25,-27,-12,-6,-4
-10,5,16,3,-13,10,-5,-26,-27,-13,-6,-4
-11,4,16,4,-13,10,-5,-26,-27,-14,-6,-4
-12,4,16,4,-13,10,-5,-26,-26,-15,-6,-4
-11,4,16,3,-13,11,-5,-25,-26,-16,-6,-4
-10,5,16,2,-13,11,-4,-25,-26,-16,-6,-4
-10,5,16,2,-13,11,-4,-26,-26,-17,-6,-4
-10,6,16,1,-13,11,-4,-26,-27,-18,-6,-4
-10,6,16,1,-13,11,-5,-28,-28,-19,-6,-4
-10,6,16,1,-13,12,-6,-30,-29,-20,-7,-4
-9,7,16,1,-13,12,-7,-32,-31,-21,-6,-3
-8,8,17,0,-12,13,-8,-35,-33,-20,-4,-1
-6,10,17,-2,-11,14,-10,-39,-35,-18,-1,1
-4,12,16,-4,-9,14,-13,-44,-38,-16,2,4
-2,13,15,-6,-8,13,-17,-50,-43,-14,5,7
-1,13,14,-7,-7,13,-22,-57,-47,-12,10,10
0,14,13,-8,-6,14,-26,-63,-50,-8,15,15
3,16,12,-10,-4,14,-31,-68,-52,-3,21,21
7,18,11,-12,-2,15,-36,-73,-55,1,28,27
12,21,9,-16,1,15,-41,-78,-58,6,34,33
19,24,5,-22,7,15,-48,-83,-62,10,40,38
27,26,0,-27,13,13,-54,-86,-66,12,44,42
34,28,-5,-31,20,12,-58,-88,-70,12,46,45
40,31,-9,-36,25,12,-63,-91,-76,8,45,45
45,35,-10,-40,28,13,-68,-96,-85,1,42,43
49,39,-11,-44,30,14,-73,-102,-95,-7,37,41
55,43,-13,-49,34,15,-77,-107,-105,-18,29,36
61,45,-16,-53,39,15,-77,-109,-113,-31,18,27
62,47,-16,-54,39,15,-75,-110,-121,-46,5,17
57,46,-10,-51,34,18,-69,-112,-127,-60,-8,5
45,44,-1,-44,23,21,-62,-115,-133,-73,-21,-5
31,39,7,-35,11,23,-54,-117,-138,-85,-32,-15
17,32,13,-24,2,23,-47,-117,-139,-93,-40,-24
6,24,16,-15,-5,20,-40,-115,-137,-98,-46,-30
-2,17,18,-7,-10,17,-34,-109,-132,-99,-50,-34
-9,10,18,0,-14,14,-28,-102,-124,-97,-51,-36
-15,3,18,6,-16,11,-24,-94,-115,-94,-52,-38
-20,-2,18,11,-19,8,-21,-85,-106,-90,-51,-39
-25,-7,18,16,-21,6,-20,-77,-96,-85,-50,-39
-27,-9,18,18,-22,5,-19,-70,-87,-80,-46,-37
-28,-10,18,18,-22,4,-19,-62,-78,-73,-42,-34
-28,-9,18,18,-22,4,-17,-54,-68,-65,-37,-31
-26,-8,17,17,-22,4,-13,-45,-57,-57,-31,-27
-25,-7,17,16,-21,5,-10,-36,-47,-49,-27,-23
-23,-7,17,15,-20,5,-7,-28,-38,-43,-23,-21
-21,-6,16,14,-19,5,-4,-21,-30,-38,-20,-19
-20,-6,14,13,-17,5,-1,-14,-23,-33,-18,-17
-19,-6,12,13,-15,4,0,-9,-17,-29,-17,-16
-18,-7,11,13,-14,3,1,-5,-13,-26,-15,-15
-18,-8,10,13,-14,1,3,-1,-9,-22,-12,-13
-19,-9,9,14,-14,0,5,2,-5,-18,-10,-12
-19,-10,8,14,-13,-1,7,4,-2,-16,-10,-12
-17,-10,7,14,-12,-2,8,6,0,-15,-9,-11
-15,-9,7,12,-11,-1,9,8,1,-14,-9,-11
-14,-7,7,11,-10,0,10,11,4,-13,-8,-10
-12,-6,6,9,-9,0,11,13,6,-12,-8,-10
-11,-6,4,8,-7,0,12,15,8,-11,-7,-10
-10,-7,2,8,-6,-1,12,17,9,-9,-6,-9
-10,-8,2,9,-6,-2,13,18,10,-7,-5,-9
-11,-9,1,10,-6,-3,13,18,11,-6,-5,-9
-11,-10,1,11,-6,-4,13,19,11,-5,-5,-9
-12,-11,1,11,-6,-4,13,20,12,-5,-5,-9
-12,-11,1,12,-6,-5,13,21,13,-5,-5,-9
-13,-12,1,12,-6,-5,13,22,15,-4,-5,-9
-13,-13,0,13,-7,-6,13,22,16,-4,-5,-9
-14,-14,0,13,-7,-6,13,23,17,-3,-5,-9
-13,-14,0,13,-6,-7,14,24,18,-2,-5,-9
-12,-14,-1,13,-5,-7,15,26,19,-1,-5,-8
-12,-14,-2,13,-5,-8,15,27,20,-1,-4,-8
-11,-14,-3,13,-4,-8,15,27,21,0,-4,-8
-10,-14,-3,12,-3,-8,16,29,22,0,-4,-8
-9,-13,-3,11,-3,-8,16,30,24,0,-3,-7
-8,-13,-3,11,-3,-8,16,31,25,1,-3,-7
-9,-13,-3,11,-3,-8,16,31,25,1,-3,-7
-8,-12,-3,10,-3,-7,16,32,26,1,-2,-6
-7,-11,-3,9,-2,-7,17,34,28,2,0,-5
-6,-10,-3,8,-1,-7,18,35,30,2,0,-4
-5,-9,-3,7,-1,-7,19,37,32,3,1,-3
-4,-9,-4,7,0,-7,19,39,34,3,1,-3
-4,-10,-5,7,1,-7,20,40,36,2,1,-3
-3,-10,-6,7,1,-8,20,41,37,2,1,-3
-2,-10,-7,6,2,-8,21,43,39,2,1,-3
-2,-10,-8,6,2,-8,21,44,40,2,2,-3
-1,-9,-8,5,2,-8,22,46,42,2,2,-3
-1,-9,-7,5,2,-8,22,48,44,3,3,-2
-1,-9,-7,5,3,-8,22,49,46,3,4,-2
0,-9,-8,4,4,-8,22,50,48,4,4,-2
1,-8,-9,3,5,-8,23,52,50,5,5,-1
2,-8,-10,3,6,-9,24,54,52,6,6,0
3,-9,-11,3,7,-10,25,56,54,7,7,0
3,-10,-12,3,7,-11,26,59,56,9,8,1
3,-10,-13,3,7,-11,26,61,58,10,8,1
3,-11,-14,3,8,-12,27,62,60,11,9,1
3,-11,-14,3,8,-12,27,64,62,13,9,1
3,-12,-15,4,8,-13,26,65,63,14,10,1
3,-12,-15,4,9,-13,26,67,65,16,10,2
4,-12,-16,4,10,-14,26,68,67,18,11,2
5,-11,-16,3,11,-14,26,70,69,21,13,3
6,-11,-17,3,11,-14,26,72,71,23,14,4
6,-11,-18,3,11,-15,26,74,73,24,14,4
6,-12,-19,3,12,-15,26,76,75,26,15,5
7,-12,-20,2,14,-16,26,78,76,28,17,6
8,-12,-21,2,15,-16,27,80,78,30,18,7
9,-12,-21,1,16,-16,28,82,80,32,20,8
10,-12,-22,1,16,-16,28,84,82,34,21,9
11,-11,-22,0,16,-16,28,85,84,36,22,9
12,-11,-23,0,17,-16,28,87,86,38,23,10
13,-12,-24,0,17,-17,27,89,88,40,23,10
13,-13,-25,0,18,-19,27,91,89,41,24,11
13,-14,-27,0,19,-20,28,93,91,44,25,12
13,-14,-28,0,20,-21,28,95,93,47,27,13
13,-16,-29,1,21,-22,28,96,94,49,28,14
13,-17,-30,2,21,-23,27,96,95,51,29,14
13,-18,-31,3,22,-24,27,96,96,53,30,15
14,-18,-32,2,22,-24,27,97,97,55,31,16
16,-17,-32,0,23,-24,27,98,98,57,33,18
18,-15,-32,-2,24,-23,27,99,99,59,34,19
19,-13,-32,-3,25,-22,26,99,99,61,36,20
21,-11,-32,-5,26,-22,26,99,99,62,37,21
21,-10,-32,-6,27,-21,25,99,99,63,38,21
21,-11,-31,-5,26,-21,24,98,98,64,38,22
20,-11,-31,-4,25,-20,23,96,96,65,39,22
20,-10,-30,-5,24,-19,21,95,95,65,39,23
21,-8,-28,-6,24,-18,20,93,94,66,40,25
22,-5,-27,-8,24,-16,19,92,93,66,41,26
22,-4,-26,-9,24,-15,18,90,91,66,41,27
22,-3,-25,-9,23,-15,17,88,90,66,41,27
22,-2,-25,-10,23,-14,16,85,88,65,41,27
23,-1,-24,-10,23,-13,16,83,86,65,41,28
23,-1,-24,-10,23,-12,15,81,84,64,41,28
22,-1,-23,-10,22,-11,14,78,82,63,41,28
21,-1,-22,-9,21,-11,13,75,79,61,41,28
20,0,-21,-10,21,-10,11,72,76,60,41,28
20,1,-19,-11,20,-9,10,68,73,58,40,29
20,2,-18,-11,19,-8,9,65,70,55,40,29
19,3,-16,-11,18,-7,8,62,66,53,39,29
19,5,-15,-12,17,-5,7,58,63,51,39,29
19,6,-13,-12,16,-3,6,54,59,49,38,29
18,7,-11,-12,15,-1,5,50,55,46,37,29
18,8,-8,-13,13,0,4,46,51,43,36,28
18,10,-6,-14,12,1,3,42,48,40,35,28
17,12,-5,-14,11,2,1,38,44,37,34,28
16,12,-4,-14,10,3,0,34,39,33,32,27
15,13,-2,-14,9,5,-1,29,35,30,31,26
13,13,-1,-14,7,6,-1,25,31,27,30,25
12,13,0,-13,6,7,-2,22,28,24,28,25
11,13,2,-12,4,8,-2,18,25,21,26,24
9,13,4,-11,2,9,-2,15,22,17,24,22
8,14,6,-11,1,10,-2,12,18,13,22,21
7,14,7,-10,0,10,-3,8,14,9,20,19
6,13,7,-9,0,10,-3,5,11,5,18,18
5,13,8,-8,-2,10,-4,2,8,2,16,17
3,13,9,-8,-3,11,-4,0,5,0,15,16
2,14,10,-8,-4,12,-4,-2,3,-1,15,16
2,14,11,-8,-4,13,-4,-4,1,-3,13,14
1,13,12,-7,-5,13,-5,-6,0,-6,11,13
0,12,13,-6,-6,13,-5,-8,-3,-9,9,11
-2,11,14,-4,-8,13,-5,-10,-5,-11,8,10
-4,10,15,-3,-9,13,-5,-12,-7,-13,7,10
-5,11,16,-3,-11,13,-4,-14,-9,-15,6,9
-5,11,17,-3,-11,14,-4,-15,-11,-17,5,8
-5,11,17,-3,-11,14,-3,-15,-12,-17,5,7
-5,11,16,-2,-11,14,-3,-16,-12,-18,4,7
-6,10,16,-2,-11,13,-2,-16,-12,-18,4,7
-6,9,16,-1,-11,12,-2,-17,-13,-19,3,6
-7,8,16,0,-11,12,-1,-17,-13,-20,2,5
-7,8,16,0,-12,12,-1,-18,-14,-21,2,5
-7,9,16,0,-12,12,-1,-18,-14,-22,1,5
-7,9,16,0,-11,12,-1,-18,-15,-22,1,5
-8,9,16,0,-12,13,-1,-19,-16,-22,0,4
-8,9,17,0,-12,13,-2,-19,-17,-22,0,4
-8,9,17,0,-11,13,-2,-20,-17,-22,0,4
-8,9,17,0,-11,13,-2,-20,-18,-22,0,3
-7,10,17,-1,-12,14,-1,-20,-19,-22,0,3
-6,12,18,-2,-12,15,-1,-20,-18,-22,0,3
-5,13,19,-4,-12,16,0,-20,-18,-21,0,3
-5,13,19,-4,-12,16,0,-20,-18,-21,0,2
-6,13,19,-3,-12,16,0,-20,-18,-21,0,2
-7,12,20,-3,-13,16,0,-20,-18,-21,0,2
-7,12,20,-2,-13,16,0,-20,-18,-20,0,2
-8,11,19,-1,-13,15,0,-20,-18,-20,-1,2
-9,10,19,0,-14,14,0,-20,-19,-20,-1,1
-10,9,19,1,-15,14,0,-20,-19,-20,-1,1
-12,8,19,2,-16,13,0,-20,-20,-20,-2,1
-12,7,19,3,-16,13,0,-21,-21,-20,-2,0
-13,6,18,3,-16,12,-1,-21,-21,-20,-3,0
-13,6,18,3,-16,12,-2,-22,-22,-20,-3,0
-11,7,17,2,-15,12,-1,-21,-22,-20,-3,0
-9,9,17,0,-14,13,0,-20,-21,-19,-2,0
-8,10,17,-1,-13,14,0,-19,-21,-19,-2,1
-7,11,17,-1,-12,14,1,-19,-21,-18,-2,1
-7,10,16,-1,-12,13,1,-19,-21,-18,-2,1
-8,9,16,0,-12,13,1,-19,-21,-18,-2,1
-9,7,17,1,-13,12,2,-19,-22,-18,-2,1
-11,6,17,2,-14,12,2,-20,-23,-18,-2,0
-12,5,17,3,-14,11,2,-20,-24,-18,-2,0
-12,4,17,4,-14,11,2,-20,-24,-18,-2,0
-11,4,16,3,-14,10,3,-20,-23,-18,-2,0
-10,5,16,2,-13,10,3,-19,-22,-17,-2,0
-9,5,16,2,-13,11,3,-19,-21,-17,-2,0
-9,5,16,2,-13,11,3,-18,-20,-16,-2,0
-9,6,16,2,-13,11,3,-18,-20,-16,-2,0
-9,6,16,1,-13,11,3,-18,-19,-15,-2,0
-9,6,16,1,-13,11,3,-18,-19,-15,-2,0
-9,7,16,1,-13,11,3,-18,-20,-15,-2,0
-9,7,16,1,-13,11,3,-18,-20,-15,-2,0
-9,7,16,1,-13,11,3,-18,-20,-15,-2,0
-10,7,16,1,-13,11,3,-18,-20,-15,-2,0
-9,7,16,1,-13,11,2,-18,-20,-15,-2,0
-9,7,16,1,-13,12,2,-18,-20,-15,-2,1
-8,8,17,0,-13,12,3,-18,-19,-14,-1,2
-9,7,17,1,-13,12,3,-17,-19,-14,0,2
-10,7,17,1,-14,12,4,-17,-18,-13,0,3
-11,6,17,2,-14,12,4,-16,-17,-13,0,3
-12,5,17,3,-15,12,4,-16,-16,-12,0,3
-12,5,17,3,-15,12,4,-15,-15,-12,0,3
-12,5,17,3,-15,12,4,-15,-14,-11,1,3
-11,6,17,2,-14,12,4,-15,-14,-11,1,3
-10,7,17,1,-13,12,3,-15,-14,-11,1,3
-8,9,17,-1,-12,13,4,-15,-14,-11,1,4
-6,12,17,-3,-11,14,5,-15,-13,-10,2,4
-4,13,16,-5,-10,15,5,-14,-12,-10,3,5
-3,14,16,-6,-10,15,5,-14,-12,-9,3,5
-3,15,17,-6,-10,16,5,-14,-11,-9,3,6
-3,15,18,-6,-10,17,6,-14,-11,-9,3,6
-2,15,18,-6,-10,17,6,-14,-10,-9,3,6
-2,15,18,-6,-10,17,6,-14,-10,-9,3,6
-3,15,17,-6,-10,16,6,-13,-9,-9,3,6
-2,15,17,-6,-10,16,6,-13,-9,-9,3,6
-2,15,16,-6,-9,16,7,-13,-8,-9,3,6
-2,15,16,-6,-9,16,7,-13,-8,-9,3,6
-2,14,16,-5,-10,16,6,-14,-9,-10,3,6
-3,14,17,-5,-10,16,6,-14,-9,-10,3,6
-4,14,18,-5,-11,16,5,-14,-9,-10,3,6
-4,14,18,-5,-11,16,4,-14,-9,-10,3,6
-4,13,18,-5,-11,15,4,-14,-9,-11,3,5
-4,13,18,-5,-11,15,4,-14,-10,-11,2,5
-4,13,17,-5,-11,15,4,-15,-10,-12,2,5
-3,13,17,-5,-10,15,4,-15,-11,-12,2,5
-3,13,16,-5,-10,15,4,-16,-11,-12,2,5
-2,13,16,-5,-9,15,4,-16,-12,-12,2,5
-2,13,16,-5,-9,15,4,-17,-13,-12,2,5
-3,13,17,-5,-10,16,4,-17,-14,-12,2,5
-5,13,17,-4,-11,16,4,-18,-15,-12,2,5
-6,13,18,-4,-12,16,3,-18,-15,-12,1,4
-6,13,19,-3,-13,16,3,-19,-16,-13,1,4
-6,14,19,-3,-13,17,3,-19,-16,-13,1,4
-6,14,19,-4,-12,17,3,-19,-16,-13,1,4
-5,14,19,-4,-12,17,4,-18,-16,-13,1,3
-5,13,19,-4,-12,17,4,-18,-16,-13,1,3
-6,12,18,-4,-12,16,4,-18,-16,-13,1,3
-6,12,18,-3,-12,15,5,-18,-16,-13,1,3
-5,13,18,-4,-12,15,5,-18,-16,-12,1,4
-5,14,18,-4,-12,16,5,-19,-16,-12,1,4
-7,13,18,-3,-13,16,5,-19,-17,-13,0,3
-9,11,19,-1,-14,15,5,-20,-18,-13,0,2
-10,10,20,0,-15,15,4,-20,-18,-14,-1,1
-11,8,20,1,-16,14,3,-20,-19,-14,-2,0
-12,7,20,2,-16,14,3,-21,-20,-14,-2,0
-14,6,20,3,-17,13,2,-21,-21,-14,-3,0
-15,5,19,4,-17,12,2,-22,-21,-14,-3,0
-15,4,19,5,-17,12,2,-22,-22,-14,-3,-1
-15,4,19,5,-17,11,2,-22,-22,-14,-3,-1
-15,4,18,5,-17,11,2,-23,-22,-15,-3,-1
-15,3,18,6,-17,11,2,-23,-22,-15,-3,-1
-15,3,18,6,-17,11,2,-23,-22,-15,-3,-1
-15,3,18,6,-17,11,2,-22,-22,-15,-3,-1
-15,3,18,6,-17,11,2,-22,-22,-14,-2,-1
-15,4,18,5,-17,11,2,-21,-22,-14,-2,0
-14,4,18,5,-17,11,2,-21,-22,-14,-2,0
-14,3,17,5,-16,10,2,-21,-22,-15,-2,0
-13,3,17,5,-16,10,2,-21,-23,-15,-2,0
-13,4,17,5,-16,11,2,-21,-23,-15,-2,0
-13,5,17,4,-16,11,2,-21,-23,-15,-1,1
-13,5,18,4,-16,12,2,-21,-23,-15,-1,1
-12,6,17,3,-15,12,2,-21,-23,-15,-1,1
-11,7,17,2,-14,12,2,-21,-23,-14,-1,1
-11,8,18,1,-14,13,3,-21,-23,-14,0,1
-12,8,19,2,-15,13,3,-22,-23,-14,0,1
-13,6,19,3,-16,13,2,-23,-23,-15,-1,1
-14,5,19,4,-17,12,2,-24,-24,-15,-1,1
-15,4,19,6,-17,12,1,-26,-25,-15,0,1
-16,3,20,7,-18,12,0,-28,-26,-15,0,1
-16,3,19,7,-18,12,-2,-32,-28,-14,2,2
-15,3,18,6,-17,12,-5,-36,-31,-13,3,4
-15,3,18,6,-16,11,-9,-42,-36,-12,5,7
-14,4,17,5,-16,11,-13,-48,-40,-10,9,10
-11,5,16,3,-14,11,-16,-54,-44,-6,14,15
-7,8,15,0,-12,12,-19,-59,-46,-1,20,20
-2,12,14,-5,-8,13,-22,-64,-48,4,26,26
4,17,12,-11,-3,14,-27,-69,-51,10,33,32
11,20,9,-15,1,15,-33,-74,-54,15,40,38
17,23,6,-20,6,14,-40,-78,-58,19,46,44
23,25,1,-24,11,14,-46,-81,-62,22,51,48
30,28,-2,-29,16,14,-52,-83,-66,23,53,51
37,32,-5,-35,21,14,-56,-86,-71,20,53,52
44,37,-7,-40,25,16,-61,-90,-79,14,50,51
50,43,-8,-46,28,18,-65,-96,-88,5,45,48
57,47,-10,-51,33,18,-68,-100,-97,-6,37,43
61,48,-13,-54,37,18,-70,-103,-106,-20,25,35
61,48,-13,-53,37,18,-68,-105,-113,-35,12,24
54,46,-9,-49,31,19,-62,-107,-120,-50,-1,12
42,42,-1,-41,21,21,-55,-110,-126,-63,-15,0
29,37,7,-33,10,23,-46,-111,-130,-75,-26,-9
17,30,13,-23,1,22,-38,-111,-131,-83,-36,-18
5,22,16,-13,-6,19,-31,-109,-130,-88,-42,-25
-4,13,18,-4,-12,15,-26,-104,-125,-89,-46,-30
-13,6,19,4,-16,12,-21,-98,-119,-88,-47,-33
-19,1,20,9,-20,11,-17,-90,-110,-85,-47,-34
-23,-2,20,13,-22,9,-14,-81,-101,-80,-46,-35
-25,-4,20,15,-23,8,-13,-73,-92,-75,-44,-34
-26,-5,20,16,-23,8,-12,-65,-82,-68,-40,-32
-27,-5,20,16,-24,8,-10,-57,-72,-61,-36,-29
-27,-5,21,16,-24,8,-8,-49,-62,-53,-31,-26
-26,-4,21,15,-25,9,-6,-41,-52,-46,-26,-22
-26,-4,22,15,-25,9,-3,-33,-42,-39,-22,-19
-26,-3,22,15,-24,10,0,-26,-34,-34,-19,-17
-26,-4,22,15,-24,10,2,-19,-26,-29,-17,-15
-26,-4,22,15,-24,9,4,-13,-19,-25,-15,-14
-25,-5,20,15,-22,8,6,-7,-13,-20,-13,-13
-23,-6,17,15,-20,6,8,-1,-8,-16,-11,-12
-22,-7,14,15,-19,4,11,3,-3,-12,-9,-10
-22,-9,12,15,-18,2,13,6,0,-9,-7,-9
-21,-10,10,16,-17,0,14,9,3,-8,-6,-8
-20,-11,9,16,-15,0,15,11,4,-7,-5,-7
-19,-10,8,15,-14,0,16,13,6,-6,-5,-7
-18,-10,8,14,-14,0,16,14,7,-5,-5,-7
-18,-11,8,15,-13,-1,17,16,8,-5,-5,-8
-18,-12,7,15,-13,-2,18,17,10,-3,-5,-8
-18,-12,6,15,-12,-2,19,19,12,-1,-4,-7
-17,-12,5,14,-12,-2,20,20,14,0,-3,-6
-17,-12,4,14,-11,-3,21,22,15,2,-2,-6
-16,-12,4,14,-11,-3,22,23,16,3,-1,-5
-16,-12,4,14,-10,-3,22,24,17,3,-1,-4
-15,-12,4,14,-10,-3,22,25,18,4,0,-4
-15,-12,4,14,-10,-3,22,25,19,5,0,-5
-17,-14,4,16,-10,-4,22,26,19,5,-1,-5
-20,-16,4,18,-11,-6,21,26,19,6,-1,-6
-22,-18,4,20,-13,-6,21,26,20,8,0,-6
-23,-18,4,21,-13,-7,21,27,21,10,0,-6
-22,-18,3,21,-13,-7,21,27,22,11,0,-6
-21,-18,3,20,-13,-7,21,28,23,11,0,-6
-20,-17,3,19,-12,-7,22,30,24,12,0,-6
-19,-17,3,18,-12,-6,22,31,26,12,0,-5
-18,-16,2,18,-11,-6,22,33,27,13,0,-5
-18,-16,1,17,-10,-6,23,35,29,15,1,-4
-17,-17,0,17,-9,-7,24,36,31,17,2,-4
-17,-18,-1,18,-8,-8,24,37,33,18,2,-3
-18,-19,-2,19,-8,-10,24,38,34,18,2,-4
-19,-21,-3,20,-8,-11,24,39,35,18,1,-4
-18,-22,-4,21,-7,-12,24,40,36,18,1,-5
-17,-23,-4,20,-6,-13,24,42,38,18,2,-5
-16,-23,-5,20,-6,-13,25,44,40,18,2,-5
-16,-23,-6,19,-5,-13,26,46,42,19,3,-4
-15,-22,-7,19,-5,-14,26,48,44,19,4,-4
-15,-22,-7,18,-4,-14,27,50,46,20,5,-3
-14,-22,-8,18,-4,-14,27,51,47,20,5,-3
-13,-21,-8,17,-3,-14,28,52,49,20,6,-3
-12,-20,-8,16,-2,-14,28,53,50,21,7,-2
-11,-20,-8,15,-2,-14,29,55,52,21,8,-2
-11,-20,-9,16,-2,-14,29,56,54,21,8,-1
-12,-21,-10,17,-2,-15,29,58,55,21,9,-1
-12,-22,-10,17,-2,-15,29,60,57,22,9,-1
-12,-23,-11,17,-1,-16,29,62,59,23,10,0
-11,-23,-12,17,0,-16,29,63,61,25,11,0
-11,-23,-12,17,0,-17,29,65,63,26,12,0
-10,-22,-13,16,1,-17,30,67,65,27,13,1
-8,-22,-13,15,2,-17,30,70,67,28,14,2
-7,-22,-14,14,2,-17,30,72,69,29,15,3
-6,-22,-15,14,3,-17,31,74,71,30,16,4
-5,-21,-16,13,4,-18,31,77,74,32,17,4
-4,-21,-17,12,6,-18,31,78,75,33,18,5
-3,-22,-19,12,7,-19,31,80,77,35,19,5
-4,-22,-19,13,7,-19,31,81,79,37,20,6
-4,-23,-19,13,7,-20,31,82,79,39,21,6
-4,-23,-19,14,7,-20,30,84,80,40,22,7
-4,-23,-20,14,7,-21,30,85,82,41,22,7
-4,-24,-20,14,7,-21,29,87,84,43,23,8
-4,-26,-21,15,7,-22,29,90,86,45,24,9
-4,-26,-22,15,8,-23,28,92,88,46,25,9
-3,-27,-24,15,9,-24,28,93,90,48,26,10
-2,-27,-25,15,10,-25,27,95,91,50,27,10
-2,-27,-25,15,11,-25,27,96,92,52,27,11
0,-26,-26,14,12,-25,27,96,92,54,29,12
0,-25,-26,13,12,-25,26,97,93,56,30,13
1,-24,-26,12,13,-25,26,98,94,58,31,14
2,-23,-26,11,13,-24,26,99,95,60,32,15
3,-22,-26,9,14,-23,26,100,96,62,34,16
4,-21,-26,8,15,-23,26,101,96,65,35,17
5,-21,-26,7,15,-23,26,101,97,67,36,18
6,-20,-26,6,16,-22,26,101,97,69,37,19
7,-18,-26,5,16,-21,26,101,97,70,39,20
8,-17,-25,4,16,-21,25,100,97,72,40,21
8,-17,-25,4,16,-20,24,100,96,73,40,22
9,-17,-26,3,16,-20,23,99,96,74,41,23
9,-17,-26,3,16,-20,22,97,95,74,42,24
8,-16,-25,3,16,-20,21,95,94,75,42,24
8,-15,-24,3,16,-19,20,93,92,75,42,25
9,-14,-23,3,15,-18,18,90,89,76,42,25
9,-13,-22,2,15,-17,17,87,87,76,42,25
9,-12,-21,1,15,-16,16,85,85,75,42,26
9,-11,-20,1,14,-15,14,82,82,74,42,26
8,-10,-19,0,13,-14,13,80,80,73,42,26
8,-9,-17,0,12,-13,12,77,78,71,41,26
8,-8,-16,0,12,-12,11,74,76,70,41,26
8,-8,-16,0,11,-11,10,71,73,68,40,27
7,-7,-15,0,11,-10,9,67,70,66,40,27
6,-7,-13,0,10,-9,8,64,67,64,39,27
6,-6,-12,0,9,-8,7,60,63,61,39,27
6,-5,-11,0,8,-7,5,55,58,58,38,27
6,-4,-10,0,7,-6,4,51,54,54,37,27
5,-4,-8,0,6,-5,2,46,50,49,35,26
4,-3,-7,0,4,-4,1,42,46,45,34,26
3,-2,-5,-1,3,-3,0,38,42,41,33,25
3,0,-2,-1,1,-1,0,34,38,38,32,25
2,2,0,-2,0,1,-1,30,34,34,31,24
2,4,1,-3,0,3,-2,26,31,30,30,24
1,5,3,-3,-1,5,-3,22,27,26,28,23
1,7,5,-4,-2,7,-4,19,23,21,26,22
1,9,8,-6,-3,9,-4,16,19,17,25,21
1,11,10,-6,-4,10,-5,13,16,14,23,21
1,12,11,-6,-5,11,-5,10,13,11,22,20
0,12,12,-5,-7,12,-6,7,11,8,20,18
-2,11,13,-4,-8,12,-6,4,8,5,19,17
-4,10,13,-3,-9,12,-7,1,5,2,17,15
-6,8,14,-1,-10,12,-7,-2,2,-1,16,14
-8,7,15,0,-12,12,-7,-4,-1,-5,15,13
-10,6,16,1,-13,12,-7,-6,-3,-8,14,12
-11,6,16,2,-14,12,-7,-8,-5,-10,13,11
