leadI,leadII,leadIII,leadaVR,leadaVL,leadaVF,leadV1,leadV2,leadV3,leadV4,leadV5,leadV6
-1,-2,0,2,0,-1,1,-3,-23,-2,-1,0
-4,-5,-2,5,-1,-3,3,-8,-58,3,-2,-1
-5,-8,-3,7,-1,-5,5,-10,-76,24,-2,-2
-7,-9,-3,8,-2,-5,6,-10,-85,46,-2,-2
-8,-10,-2,10,-4,-5,7,-10,-90,56,-2,-2
-10,-11,0,11,-5,-5,8,-10,-96,46,-2,-2
-11,-12,0,11,-6,-5,9,-10,-101,21,-3,-2
-11,-11,0,11,-5,-5,9,-11,-105,-7,-3,-2
-9,-10,0,10,-4,-5,10,-11,-107,-24,-3,-2
-8,-9,0,9,-3,-4,10,-10,-104,-22,-3,-2
-8,-9,-1,8,-3,-4,11,-8,-99,-1,-3,-2
-7,-9,-1,8,-3,-4,11,-7,-94,23,-3,-2
-7,-9,-2,8,-2,-4,12,-5,-90,40,-3,-2
-6,-8,-2,8,-2,-4,12,-5,-89,39,-3,-2
-6,-8,-2,7,-1,-4,12,-5,-91,19,-3,-2
-6,-8,-3,7,-1,-5,12,-5,-92,-9,-4,-2
-7,-9,-3,8,-2,-5,12,-6,-93,-30,-4,-2
-7,-10,-2,9,-2,-5,12,-5,-89,-33,-5,-2
-8,-10,-2,9,-2,-5,13,-4,-83,-17,-5,-2
-8,-10,-1,9,-3,-4,13,-3,-76,7,-5,-2
-9,-10,-1,10,-4,-4,14,-2,-70,28,-5,-2
-9,-11,-1,10,-4,-5,14,-2,-67,32,-5,-2
-9,-11,-1,10,-4,-5,15,-3,-67,15,-5,-2
-9,-11,-1,10,-4,-5,15,-4,-68,-12,-5,-2
-9,-11,-1,10,-4,-5,15,-4,-67,-37,-5,-2
-9,-11,-1,10,-4,-5,16,-4,-64,-46,-5,-2
-10,-11,-1,11,-5,-5,16,-2,-59,-36,-5,-2
-11,-11,0,11,-6,-5,17,0,-52,-14,-5,-2
-11,-10,0,11,-6,-4,18,3,-45,8,-5,-1
-10,-9,0,10,-5,-4,18,4,-40,19,-5,-1
-9,-9,0,9,-4,-4,19,4,-39,10,-4,-1
-9,-9,1,10,-5,-4,19,3,-39,-15,-4,-1
-10,-9,2,10,-6,-3,20,2,-38,-42,-4,-1
-11,-8,3,10,-7,-2,22,2,-36,-58,-4,-1
-11,-8,4,10,-7,-1,22,4,-30,-56,-4,-1
-12,-8,4,10,-8,-1,23,6,-23,-37,-4,-1
-11,-8,3,9,-7,-1,24,9,-16,-14,-5,-1
-10,-7,3,8,-7,-1,25,10,-11,0,-5,-1
-10,-6,4,8,-7,0,26,10,-8,-3,-4,-1
-9,-5,4,8,-7,0,27,9,-8,-25,-4,-1
-9,-5,4,8,-7,0,27,7,-9,-53,-4,-1
-10,-6,4,9,-7,0,28,7,-8,-73,-4,-1
-10,-6,4,9,-7,0,29,8,-4,-77,-4,-1
-10,-5,4,8,-7,0,29,10,2,-62,-4,0
-10,-5,5,8,-7,0,30,13,9,-38,-4,0
-10,-5,5,8,-8,0,31,14,15,-19,-4,0
-11,-5,6,8,-8,0,32,15,18,-15,-3,0
-11,-5,7,8,-9,1,32,14,19,-31,-3,0
-11,-4,7,8,-9,1,33,13,19,-56,-3,0
-13,-5,8,9,-10,2,34,13,20,-78,-3,0
-15,-6,9,10,-12,2,35,14,23,-88,-3,0
-16,-6,9,11,-13,2,35,15,28,-81,-3,0
-15,-5,10,10,-13,3,36,17,35,-61,-2,0
-13,-3,10,8,-12,5,37,19,41,-40,-1,1
-11,0,10,5,-11,6,38,20,46,-31,0,2
-9,1,11,4,-11,7,39,20,48,-40,0,2
-9,2,12,3,-11,7,40,19,48,-64,0,3
-9,3,14,3,-11,8,41,19,48,-88,1,3
-10,3,15,3,-12,9,42,19,50,-102,1,4
-10,4,15,3,-12,10,42,19,55,-100,1,4
-10,4,15,3,-12,10,43,20,61,-82,2,4
-11,4,15,3,-12,10,43,21,68,-60,2,4
-11,4,15,4,-12,10,43,22,72,-48,2,4
-12,4,16,4,-13,11,43,22,74,-52,2,4
-12,5,16,4,-14,11,44,22,74,-71,2,4
-12,5,17,3,-14,11,44,22,74,-96,2,4
-12,6,18,3,-14,12,44,22,75,-114,2,4
-12,6,18,3,-14,12,44,23,79,-118,3,5
-12,6,18,3,-15,13,45,25,86,-102,3,5
-12,7,19,3,-16,13,45,26,93,-78,4,5
-13,7,20,3,-16,14,45,27,100,-61,4,5
-13,6,20,3,-17,14,45,28,103,-60,4,5
-12,7,20,2,-16,14,45,28,104,-76,5,6
-10,9,20,0,-15,15,46,29,105,-101,6,7
-8,12,21,-2,-14,17,47,30,107,-121,7,7
-8,14,22,-2,-15,18,47,32,112,-128,8,8
-10,15,25,-3,-17,20,48,33,119,-119,9,9
-10,16,27,-3,-18,22,48,35,127,-97,10,10
-11,17,28,-4,-19,23,49,37,135,-76,11,10
-11,19,30,-4,-20,25,49,40,141,-66,12,11
-11,20,31,-5,-21,26,50,42,144,-74,13,12
-11,21,33,-5,-21,27,50,44,145,-95,14,13
-12,21,33,-5,-22,28,50,46,146,-118,14,13
-12,22,34,-5,-22,28,50,48,149,-132,15,14
-11,23,34,-6,-22,29,50,49,155,-129,16,14
-10,25,35,-7,-23,30,50,51,162,-112,17,15
-9,26,35,-8,-23,31,50,52,169,-92,18,15
-9,27,35,-9,-23,32,50,52,174,-81,18,16
-8,28,35,-10,-22,32,50,53,176,-85,19,16
-8,29,36,-10,-22,33,49,54,177,-104,20,17
-8,31,38,-11,-23,35,49,55,177,-127,21,19
-8,33,40,-12,-23,36,48,55,179,-145,22,20
-8,34,41,-13,-24,37,47,55,182,-150,23,20
-8,34,41,-13,-24,38,46,55,187,-139,23,21
-8,34,42,-13,-25,38,45,54,194,-120,24,21
-8,34,43,-13,-25,39,44,54,199,-107,25,22
-8,34,43,-13,-25,39,43,53,201,-106,26,22
-7,35,42,-13,-25,39,42,53,202,-121,26,22
-6,36,42,-15,-24,39,41,53,202,-143,26,22
-5,38,42,-16,-24,40,40,53,204,-162,27,23
-4,39,42,-17,-23,41,38,52,207,-171,28,24
-3,39,42,-18,-23,41,36,51,211,-163,28,25
-2,39,41,-18,-22,40,34,49,217,-145,28,25
0,40,40,-19,-20,40,32,47,222,-129,28,25
0,41,41,-20,-20,41,31,46,226,-122,29,26
0,41,42,-20,-21,42,31,46,229,-130,30,28
-1,40,43,-19,-21,42,30,45,230,-151,31,28
-1,40,42,-19,-21,41,28,45,232,-172,31,29
0,41,41,-20,-20,41,27,44,235,-184,32,30
1,42,40,-21,-19,41,26,43,241,-181,32,31
2,42,40,-22,-19,41,26,42,248,-163,33,32
3,43,39,-23,-18,41,25,40,257,-143,34,32
4,42,39,-23,-18,41,25,39,264,-129,35,33
4,41,37,-22,-17,39,24,38,269,-129,35,33
4,39,36,-21,-16,37,22,37,271,-146,35,32
3,37,34,-20,-15,35,21,37,273,-168,34,32
2,34,32,-18,-15,33,19,36,277,-183,33,31
2,33,31,-17,-14,32,17,35,284,-185,33,31
3,32,30,-17,-13,31,16,34,293,-172,33,31
4,32,28,-18,-12,30,15,33,303,-153,33,31
4,30,26,-17,-10,28,14,31,311,-140,32,30
5,29,24,-16,-10,27,13,30,317,-138,32,30
4,27,23,-15,-9,25,13,29,321,-151,31,30
3,25,22,-14,-9,23,12,28,325,-171,31,29
3,23,20,-13,-8,21,11,27,329,-188,30,29
4,22,18,-13,-7,20,10,26,334,-195,29,29
5,22,16,-14,-5,19,9,25,341,-188,28,29
7,21,14,-14,-3,17,8,23,349,-173,27,28
8,19,11,-14,0,15,6,22,356,-161,26,26
9,17,8,-13,0,13,4,21,361,-156,24,25
9,16,6,-13,1,11,3,20,364,-164,23,24
10,14,5,-12,2,9,1,20,367,-183,22,24
9,13,4,-11,2,8,0,20,369,-201,22,23
8,11,3,-10,2,7,-1,20,373,-212,21,23
6,9,3,-8,2,6,-3,19,378,-211,20,22
6,8,2,-7,2,5,-4,18,383,-199,18,21
5,6,1,-6,2,4,-5,16,388,-185,17,20
4,5,0,-5,2,3,-6,15,392,-178,16,19
4,4,-1,-5,2,1,-8,15,393,-180,16,18
5,3,-2,-4,3,0,-9,15,394,-195,15,18
5,2,-3,-4,4,-1,-11,15,394,-213,14,17
6,2,-5,-4,5,-2,-12,15,395,-223,14,16
6,0,-6,-3,6,-3,-13,14,397,-224,12,15
5,-2,-8,-2,6,-4,-15,13,399,-215,10,13
5,-4,-9,0,6,-6,-16,12,401,-202,9,12
4,-5,-8,0,6,-6,-17,11,403,-193,8,11
4,-5,-8,0,6,-6,-17,10,404,-192,8,11
5,-4,-7,-1,6,-5,-17,11,404,-201,8,11
6,-3,-7,-1,7,-5,-18,11,403,-216,8,11
6,-2,-8,-1,7,-5,-18,12,403,-228,8,11
6,-2,-8,-2,7,-5,-18,12,404,-233,7,11
7,-1,-8,-3,7,-4,-18,13,407,-227,7,11
7,-2,-9,-3,7,-5,-19,12,409,-212,7,11
6,-3,-9,-2,7,-6,-19,12,411,-200,6,11
6,-4,-10,-1,8,-7,-20,11,411,-194,6,10
6,-5,-11,0,9,-8,-20,11,411,-199,5,10
7,-5,-12,-1,10,-8,-20,12,410,-213,5,9
7,-5,-12,-1,10,-9,-21,12,409,-226,4,9
7,-5,-12,0,10,-9,-21,13,408,-234,4,9
6,-6,-12,0,9,-9,-22,13,408,-232,4,9
5,-6,-12,0,8,-9,-22,13,408,-219,3,8
5,-7,-12,0,9,-9,-22,14,407,-205,3,8
5,-8,-13,1,9,-10,-22,14,406,-196,2,7
4,-10,-14,2,10,-12,-23,14,403,-196,2,7
3,-12,-15,4,10,-13,-23,14,400,-207,1,6
3,-13,-16,5,9,-14,-24,15,397,-220,0,5
3,-13,-16,5,9,-14,-25,15,394,-227,0,5
3,-11,-14,3,9,-13,-24,15,393,-226,0,5
4,-8,-12,1,8,-10,-23,16,393,-212,1,6
5,-6,-12,0,8,-9,-22,17,393,-194,2,7
6,-6,-12,-1,9,-9,-22,18,392,-180,2,7
7,-5,-12,-2,10,-9,-22,18,390,-173,3,8
9,-5,-12,-2,11,-9,-22,19,387,-176,3,8
9,-5,-12,-2,11,-9,-22,19,384,-185,3,8
7,-6,-12,0,10,-9,-22,19,381,-192,2,8
5,-8,-12,1,9,-10,-23,19,379,-194,2,7
4,-9,-13,2,9,-11,-24,18,376,-188,1,6
4,-10,-14,2,10,-11,-24,18,373,-174,0,5
5,-10,-15,2,10,-12,-25,17,371,-161,0,4
5,-9,-15,2,10,-12,-25,17,368,-151,0,4
6,-9,-15,2,10,-12,-25,17,366,-147,0,4
6,-10,-15,2,10,-12,-25,17,363,-148,0,4
5,-10,-15,2,10,-12,-25,18,361,-145,0,5
4,-10,-14,3,9,-12,-24,18,359,-140,0,5
3,-10,-14,3,9,-11,-24,19,356,-132,0,6
2,-11,-14,4,9,-12,-24,18,353,-122,0,6
1,-13,-14,5,8,-13,-25,17,350,-114,-1,5
0,-14,-14,7,8,-14,-26,17,346,-109,-2,4
-1,-15,-14,8,7,-14,-25,16,343,-103,-2,4
0,-13,-13,7,7,-13,-24,17,340,-100,-2,5
2,-11,-14,5,8,-12,-24,17,337,-96,-1,5
5,-9,-15,2,10,-12,-23,17,334,-90,-1,6
6,-8,-15,1,11,-12,-23,17,331,-86,-1,6
6,-8,-15,1,11,-12,-23,17,326,-82,-1,6
6,-9,-15,1,10,-12,-23,17,322,-80,-1,6
5,-9,-14,2,10,-12,-23,17,317,-81,-1,6
4,-9,-14,3,9,-12,-23,17,313,-80,-1,5
3,-10,-14,4,8,-12,-22,17,308,-78,-1,5
3,-11,-14,4,9,-12,-22,16,304,-76,-1,4
3,-12,-15,4,9,-13,-23,15,299,-72,-1,4
3,-12,-16,4,10,-14,-23,15,294,-69,-1,3
4,-12,-16,4,10,-14,-23,15,289,-67,-1,3
5,-11,-16,3,10,-13,-22,15,283,-66,-1,3
5,-10,-16,2,10,-13,-22,15,278,-67,-1,4
5,-10,-15,3,10,-12,-22,15,272,-67,-1,4
4,-10,-15,4,9,-12,-21,15,267,-64,0,4
3,-11,-15,4,9,-13,-21,15,263,-60,0,4
3,-12,-16,5,9,-14,-21,15,258,-53,0,4
2,-13,-15,5,9,-14,-21,15,253,-46,0,4
1,-13,-15,5,8,-14,-21,15,247,-43,0,4
2,-13,-15,6,8,-14,-21,14,241,-43,0,3
3,-13,-15,5,8,-14,-21,14,234,-45,0,3
3,-13,-16,5,9,-14,-21,14,228,-47,0,2
3,-12,-16,5,9,-14,-21,13,221,-45,0,2
4,-12,-16,4,10,-14,-21,13,216,-41,0,2
4,-11,-16,3,10,-14,-21,13,210,-35,0,2
4,-11,-15,3,10,-13,-21,13,204,-29,0,2
3,-11,-15,3,9,-13,-22,13,196,-26,0,2
4,-12,-16,4,10,-14,-22,12,187,-26,0,2
5,-13,-17,4,11,-15,-22,11,177,-29,0,2
6,-13,-19,3,13,-16,-22,10,167,-32,0,1
8,-13,-21,3,15,-17,-23,10,156,-31,0,1
10,-14,-23,2,16,-18,-23,9,146,-28,-1,0
11,-14,-25,1,18,-19,-24,9,136,-23,-1,0
13,-13,-26,0,19,-19,-24,9,125,-16,-1,0
14,-12,-27,0,21,-20,-24,8,113,-12,-2,0
16,-13,-29,-1,23,-21,-25,7,100,-12,-2,-1
18,-13,-31,-2,24,-22,-26,6,87,-14,-3,-2
19,-12,-31,-3,25,-21,-26,6,75,-18,-3,-2
19,-11,-30,-3,24,-20,-26,6,63,-19,-3,-2
17,-12,-29,-2,23,-20,-26,6,52,-16,-3,-3
17,-13,-30,-2,23,-21,-27,5,41,-12,-4,-4
17,-13,-31,-2,24,-22,-27,5,31,-7,-5,-4
19,-13,-32,-3,26,-23,-28,4,21,-3,-6,-5
20,-13,-33,-4,27,-23,-28,4,11,-3,-6,-5
22,-12,-33,-5,28,-23,-28,3,0,-5,-6,-5
23,-12,-34,-5,29,-23,-29,3,-11,-9,-7,-5
23,-13,-35,-5,29,-24,-29,2,-21,-12,-7,-5
23,-13,-36,-4,29,-25,-29,2,-29,-11,-8,-5
23,-13,-37,-5,30,-25,-30,1,-35,-8,-8,-5
24,-14,-38,-5,31,-26,-30,0,-41,-2,-8,-6
25,-14,-39,-6,32,-27,-30,0,-46,2,-8,-6
26,-14,-40,-6,33,-27,-30,0,-51,4,-9,-6
27,-14,-41,-6,34,-27,-30,-1,-58,3,-9,-7
29,-13,-42,-7,35,-27,-31,-1,-64,0,-9,-7
30,-12,-42,-8,36,-27,-31,-2,-69,-3,-10,-8
32,-12,-43,-10,37,-27,-32,-2,-73,-4,-10,-8
33,-11,-44,-11,38,-27,-32,-2,-75,-2,-10,-8
34,-11,-45,-12,40,-28,-32,-3,-77,2,-11,-9
35,-12,-46,-12,41,-29,-33,-3,-78,6,-11,-9
36,-12,-47,-12,42,-29,-33,-4,-80,8,-12,-10
37,-12,-48,-12,43,-30,-33,-4,-83,6,-12,-10
37,-12,-48,-13,43,-30,-33,-5,-85,3,-12,-10
38,-11,-49,-13,43,-30,-33,-5,-87,-1,-12,-10
39,-11,-49,-14,44,-30,-33,-6,-88,-3,-12,-10
39,-11,-49,-14,44,-30,-33,-6,-86,-1,-12,-10
38,-11,-49,-13,44,-30,-33,-6,-81,2,-12,-10
37,-11,-48,-13,43,-30,-33,-6,-76,7,-12,-10
37,-12,-48,-13,43,-30,-33,-6,-73,10,-12,-10
36,-13,-49,-12,43,-31,-33,-6,-74,9,-12,-11
36,-14,-49,-12,43,-31,-33,-7,-76,7,-12,-11
36,-14,-49,-11,42,-31,-33,-7,-79,4,-12,-11
35,-13,-48,-11,42,-31,-33,-6,-81,2,-12,-11
35,-13,-48,-11,42,-30,-33,-6,-81,3,-12,-11
36,-12,-48,-11,43,-30,-33,-7,-79,6,-12,-10
37,-12,-49,-12,44,-31,-33,-7,-77,10,-12,-10
38,-12,-50,-13,44,-31,-32,-7,-77,13,-12,-10
38,-12,-49,-13,43,-31,-32,-7,-79,13,-11,-10
38,-12,-49,-13,43,-31,-32,-7,-83,11,-11,-10
38,-11,-49,-13,44,-30,-32,-7,-87,7,-11,-10
39,-11,-49,-13,44,-30,-32,-7,-90,4,-11,-10
39,-11,-50,-13,44,-31,-32,-8,-91,3,-12,-10
39,-11,-50,-13,44,-31,-32,-8,-90,4,-12,-10
39,-11,-50,-13,44,-30,-32,-8,-88,8,-12,-10
38,-11,-49,-13,44,-30,-31,-7,-87,12,-13,-10
37,-11,-49,-12,43,-30,-31,-7,-87,13,-13,-10
36,-12,-48,-11,42,-30,-31,-7,-90,12,-13,-11
34,-13,-47,-10,41,-30,-32,-7,-94,10,-13,-11
32,-15,-46,-8,39,-30,-32,-7,-96,6,-13,-11
30,-15,-45,-7,38,-30,-32,-7,-97,5,-13,-11
30,-15,-44,-8,38,-29,-31,-7,-94,7,-12,-10
32,-12,-44,-10,38,-28,-31,-7,-89,11,-12,-10
33,-10,-43,-12,38,-27,-30,-6,-84,16,-12,-9
34,-9,-43,-12,38,-26,-30,-6,-82,19,-12,-9
33,-9,-43,-12,38,-26,-30,-6,-82,19,-12,-9
32,-10,-43,-11,37,-26,-30,-6,-86,18,-11,-8
31,-10,-42,-10,37,-26,-30,-7,-89,14,-11,-8
31,-11,-42,-10,36,-26,-29,-7,-91,12,-11,-8
30,-11,-41,-9,36,-26,-30,-8,-92,12,-11,-8
30,-12,-41,-9,35,-26,-30,-9,-90,13,-12,-8
29,-12,-41,-8,35,-27,-31,-9,-89,16,-12,-8
29,-12,-41,-8,35,-27,-31,-9,-88,18,-12,-8
29,-11,-40,-9,35,-26,-30,-9,-88,19,-12,-8
30,-10,-40,-10,35,-25,-30,-8,-91,18,-12,-8
29,-10,-39,-10,34,-25,-29,-8,-95,15,-11,-8
29,-9,-39,-9,34,-24,-29,-8,-97,13,-11,-8
28,-9,-38,-9,33,-24,-29,-8,-97,12,-11,-8
28,-10,-37,-8,33,-24,-29,-8,-95,13,-10,-8
27,-12,-37,-7,32,-24,-30,-9,-92,16,-10,-7
26,-13,-37,-6,32,-25,-30,-9,-90,18,-10,-7
25,-12,-37,-6,31,-25,-30,-9,-89,19,-9,-6
26,-11,-37,-7,31,-24,-29,-9,-91,18,-9,-6
26,-10,-36,-7,30,-23,-29,-10,-93,15,-9,-6
25,-10,-35,-7,29,-22,-29,-10,-94,12,-9,-6
24,-10,-34,-6,29,-22,-29,-11,-94,10,-9,-6
23,-11,-34,-5,28,-22,-29,-11,-93,10,-10,-6
22,-12,-34,-5,28,-23,-29,-11,-91,12,-10,-6
22,-11,-33,-5,28,-22,-29,-10,-90,15,-10,-6
23,-10,-32,-6,27,-21,-29,-10,-88,18,-10,-6
22,-9,-32,-6,27,-20,-28,-9,-88,19,-10,-6
21,-10,-31,-6,27,-20,-28,-9,-90,18,-10,-6
21,-10,-31,-5,26,-21,-28,-8,-91,17,-10,-6
22,-10,-32,-6,27,-21,-28,-8,-91,16,-9,-5
23,-10,-32,-6,27,-21,-28,-7,-91,18,-8,-5
22,-11,-32,-5,27,-21,-28,-7,-89,20,-7,-4
19,-12,-31,-3,25,-22,-28,-7,-87,23,-7,-4
17,-13,-30,-2,23,-22,-28,-7,-86,26,-6,-4
16,-13,-29,-2,23,-21,-27,-6,-86,27,-6,-3
17,-11,-29,-3,23,-20,-26,-6,-88,28,-5,-3
17,-10,-28,-3,23,-19,-25,-5,-89,27,-4,-2
17,-10,-27,-3,22,-18,-25,-5,-89,27,-4,-2
18,-9,-26,-4,22,-17,-25,-5,-89,27,-3,-2
18,-8,-25,-5,22,-16,-25,-4,-86,29,-2,-2
17,-7,-24,-5,21,-16,-24,-4,-84,31,-1,-2
15,-8,-23,-3,20,-15,-24,-4,-83,33,-1,-2
12,-10,-22,-1,18,-16,-23,-4,-82,34,-1,-2
10,-11,-22,0,16,-16,-23,-4,-83,34,-1,-2
10,-11,-22,0,16,-16,-23,-4,-84,33,0,-2
11,-11,-21,0,16,-16,-23,-4,-84,31,0,-2
10,-11,-21,0,16,-16,-23,-4,-85,30,0,-2
10,-11,-21,0,16,-16,-22,-4,-84,30,0,-1
10,-12,-22,1,16,-16,-22,-4,-82,31,0,-1
10,-12,-21,1,16,-16,-22,-4,-81,33,0,-1
9,-12,-21,1,15,-16,-21,-4,-80,34,0,0
10,-11,-21,1,15,-16,-21,-4,-80,34,0,0
10,-11,-21,0,16,-16,-20,-4,-81,33,0,0
9,-10,-19,1,14,-15,-20,-4,-81,31,1,0
7,-10,-16,1,12,-13,-19,-4,-81,30,1,0
5,-9,-14,2,9,-12,-19,-4,-79,30,1,0
4,-9,-12,2,8,-11,-18,-3,-77,31,1,0
2,-9,-11,3,7,-10,-18,-3,-74,32,1,0
1,-8,-10,3,6,-9,-17,-3,-71,32,1,0
0,-7,-8,3,4,-8,-16,-2,-70,33,2,0
-2,-7,-6,5,2,-7,-16,-1,-70,33,2,1
-5,-8,-3,7,-1,-6,-15,0,-70,32,3,1
-8,-9,-1,8,-3,-5,-14,0,-70,31,3,2
-9,-9,0,9,-4,-5,-14,0,-70,32,4,2
-9,-9,0,8,-5,-4,-13,0,-69,32,4,3
-9,-9,0,8,-5,-4,-13,0,-68,33,4,3
-10,-10,0,9,-5,-4,-13,0,-67,35,4,4
-11,-11,1,10,-5,-5,-12,0,-66,35,4,4
-12,-11,1,11,-6,-5,-12,0,-66,35,4,4
-12,-11,1,12,-6,-5,-12,0,-66,35,4,4
-12,-10,2,12,-7,-4,-12,0,-65,35,4,5
-13,-10,2,12,-7,-4,-12,0,-65,36,5,5
-13,-10,3,12,-8,-4,-12,0,-63,37,5,5
-14,-10,4,12,-8,-3,-11,0,-62,39,6,6
-15,-10,4,12,-9,-3,-11,0,-61,40,6,6
-15,-11,4,13,-10,-3,-11,0,-60,41,6,6
-16,-11,4,13,-10,-3,-11,0,-61,42,7,6
-16,-10,5,13,-10,-2,-10,0,-62,43,7,6
-14,-9,5,12,-10,-2,-9,0,-62,43,8,6
-14,-8,5,11,-10,-1,-9,0,-63,44,9,5
-15,-9,6,11,-11,-1,-9,0,-63,46,9,5
-16,-9,7,12,-11,-1,-9,0,-63,48,10,5
-15,-7,7,11,-11,0,-9,0,-63,50,11,6
-14,-6,7,10,-10,0,-8,1,-62,52,12,7
-13,-7,7,10,-10,0,-8,1,-62,53,13,7
-14,-8,6,11,-10,-1,-9,1,-62,53,13,7
-15,-10,6,12,-11,-2,-9,1,-61,54,14,7
-16,-10,7,13,-12,-2,-8,1,-60,55,15,8
-17,-10,7,14,-13,-2,-8,2,-59,56,16,9
-17,-9,8,13,-13,-1,-7,2,-57,59,18,9
-16,-8,8,12,-12,0,-7,3,-56,63,20,10
-16,-7,8,12,-12,0,-6,3,-54,68,22,11
-17,-7,9,13,-13,1,-6,3,-53,73,25,11
-17,-7,10,12,-13,1,-5,3,-53,75,26,11
-16,-6,10,12,-13,1,-5,4,-52,75,26,11
-16,-7,9,11,-13,1,-5,4,-52,73,25,11
-17,-7,9,12,-13,1,-5,3,-53,69,23,10
-17,-8,9,12,-13,1,-6,3,-53,65,21,10
-16,-7,9,12,-13,1,-6,3,-53,60,18,10
-16,-6,10,11,-13,2,-6,3,-53,56,15,9
-16,-6,10,12,-13,2,-6,3,-53,51,12,9
-17,-6,11,12,-14,2,-6,3,-53,46,9,8
-18,-6,12,13,-15,2,-6,3,-52,41,6,8
-18,-6,12,12,-15,2,-5,3,-51,37,3,7
-18,-6,12,12,-15,2,-5,3,-50,34,2,7
-19,-6,12,12,-15,3,-4,3,-49,33,0,7
-20,-7,13,13,-17,3,-4,3,-48,32,0,7
-21,-7,14,14,-18,3,-4,4,-48,32,0,7
-21,-7,14,14,-18,3,-4,4,-47,32,-1,7
-21,-7,14,14,-18,3,-4,4,-47,33,-1,7
-21,-8,14,15,-17,2,-4,4,-47,33,-1,7
-21,-8,13,15,-17,2,-4,4,-46,33,-1,7
-20,-8,13,14,-17,2,-4,4,-46,34,0,8
-19,-7,13,13,-16,3,-4,4,-45,36,0,8
-19,-6,13,12,-16,3,-4,4,-44,38,1,9
-19,-6,13,12,-16,3,-4,4,-44,39,2,9
-19,-6,13,12,-16,3,-4,4,-43,41,2,9
-19,-6,14,12,-16,3,-4,4,-43,42,2,9
-19,-6,14,12,-16,3,-4,4,-43,42,2,9
-19,-6,13,12,-16,3,-4,4,-43,43,2,8
-19,-6,13,12,-16,3,-4,3,-43,43,2,8
-19,-7,12,12,-16,2,-4,3,-43,43,3,8
-19,-7,12,13,-16,2,-4,3,-43,43,3,8
-19,-7,12,13,-16,2,-4,3,-43,43,3,8
-19,-6,13,12,-15,3,-3,3,-43,43,3,8
-17,-5,12,11,-14,3,-3,3,-43,43,3,8
-16,-4,12,10,-13,3,-3,3,-42,43,4,8
-15,-4,11,10,-13,3,-3,3,-42,43,4,8
-14,-3,12,9,-13,4,-2,3,-42,43,4,9
-14,-2,12,8,-13,5,-2,3,-41,43,5,9
-13,-1,12,7,-12,5,-2,2,-40,44,5,9
-13,-1,11,6,-12,5,-2,2,-40,44,5,9
-12,-1,10,6,-11,4,-2,1,-40,44,5,9
-12,-1,10,6,-11,3,-2,1,-40,45,5,9
-12,-1,10,6,-11,4,-1,2,-40,45,6,9
-12,-1,12,6,-12,5,0,2,-40,46,6,9
-13,-1,12,6,-13,5,0,3,-40,47,6,9
-12,-1,12,6,-12,5,0,3,-40,48,6,9
-11,-1,11,5,-11,5,0,2,-40,48,6,9
-9,0,9,4,-9,4,0,2,-39,49,7,9
-6,1,8,2,-7,4,1,2,-38,49,7,9
-4,3,8,0,-6,5,1,2,-36,50,8,9
-3,4,8,0,-6,6,1,2,-34,52,9,10
-3,5,9,-1,-6,7,1,1,-33,53,9,10
-2,6,9,-2,-6,7,1,1,-32,55,10,10
-2,7,10,-2,-6,8,1,1,-31,57,11,10
-2,8,11,-3,-6,9,1,1,-31,59,12,11
-2,9,12,-3,-7,10,1,1,-30,61,13,11
-1,9,11,-4,-6,10,1,1,-31,62,14,11
0,9,10,-5,-5,10,0,1,-31,63,15,11
1,9,8,-5,-4,9,0,1,-31,64,15,11
1,8,7,-5,-3,8,0,1,-32,65,16,11
2,8,6,-5,-2,7,-1,1,-32,65,16,11
2,7,5,-5,-1,6,-2,0,-33,65,16,11
2,6,4,-5,0,5,-3,0,-33,65,16,11
2,6,4,-5,0,5,-4,-1,-33,64,16,11
3,6,3,-5,0,4,-5,-1,-33,64,16,11
4,7,3,-6,0,5,-5,-1,-33,63,16,11
6,8,3,-7,1,6,-5,0,-32,63,16,11
7,10,3,-9,1,7,-4,0,-31,62,16,12
8,11,4,-10,2,7,-4,0,-30,62,15,12
8,11,4,-10,2,8,-3,0,-29,61,15,12
8,11,4,-10,2,8,-3,0,-28,60,14,12
7,10,4,-9,1,7,-3,0,-27,58,14,11
6,9,3,-8,1,6,-3,0,-27,57,13,10
6,8,2,-8,2,5,-3,-1,-26,55,12,9
7,8,1,-8,3,5,-3,-1,-26,54,11,8
8,8,1,-8,3,4,-3,0,-25,53,10,8
8,9,1,-8,3,4,-3,0,-24,52,9,8
7,8,1,-8,2,4,-3,0,-23,51,9,8
6,8,2,-7,2,4,-3,1,-23,51,8,8
6,8,2,-7,2,4,-2,1,-22,50,8,7
6,7,1,-7,2,4,-2,2,-22,49,7,7
6,6,1,-6,2,4,-1,2,-21,48,7,7
6,5,0,-6,2,3,-1,2,-21,47,6,6
6,3,-1,-5,3,1,-2,1,-21,46,5,5
5,2,-3,-4,3,0,-2,1,-21,46,5,5
5,1,-4,-3,4,-1,-3,0,-21,45,4,4
6,1,-4,-4,4,-2,-3,0,-21,45,5,5
7,3,-4,-5,5,-1,-2,1,-20,45,5,5
8,3,-4,-6,6,-1,-2,1,-20,44,5,5
9,4,-5,-7,7,0,-2,1,-20,43,4,5
10,4,-5,-7,7,0,-2,1,-20,43,4,5
9,4,-4,-7,6,0,-2,1,-20,42,4,5
9,3,-5,-6,7,-1,-2,0,-20,40,2,3
9,2,-6,-6,8,-2,-3,-2,-19,38,0,2
10,1,-8,-6,9,-3,-3,-2,-19,38,0,2
10,1,-9,-5,9,-4,-4,-2,-19,37,0,2
10,0,-10,-5,10,-5,-4,-2,-20,36,0,2
11,1,-11,-6,10,-5,-4,-1,-20,35,0,2
13,1,-11,-7,11,-5,-4,-1,-20,35,0,3
14,1,-12,-7,13,-5,-4,0,-20,35,0,3
15,0,-13,-7,14,-6,-4,0,-20,35,0,2
15,0,-14,-8,15,-7,-4,0,-20,34,0,2
16,0,-15,-8,16,-8,-5,0,-20,33,-1,1
16,0,-15,-8,16,-8,-5,0,-21,32,-2,0
15,0,-15,-8,16,-8,-5,0,-21,31,-2,0
15,0,-15,-7,15,-8,-6,0,-22,30,-3,-1
14,-1,-14,-6,14,-8,-6,-1,-22,30,-3,-1
13,-1,-14,-6,14,-7,-7,-1,-23,30,-3,0
15,0,-14,-8,14,-7,-7,0,-23,30,-3,0
16,1,-14,-9,15,-6,-7,0,-23,30,-2,1
16,0,-15,-9,15,-7,-7,0,-23,29,-2,1
15,0,-15,-8,15,-7,-7,-1,-24,29,-3,0
15,-1,-16,-7,15,-8,-8,-1,-24,28,-3,0
16,-1,-17,-8,16,-9,-8,-1,-24,28,-3,0
17,0,-18,-8,17,-9,-9,-1,-25,28,-4,0
17,-1,-18,-8,17,-9,-9,-2,-25,27,-4,0
16,-2,-18,-7,17,-10,-9,-2,-25,27,-5,-1
16,-2,-19,-7,17,-11,-9,-3,-26,26,-5,-1
16,-2,-18,-7,18,-11,-9,-3,-25,27,-5,-1
17,-2,-18,-8,18,-10,-9,-3,-25,27,-5,-1
18,-1,-19,-9,19,-10,-9,-3,-25,27,-5,-1
19,0,-19,-10,20,-9,-9,-3,-24,27,-5,-1
20,0,-20,-10,20,-10,-9,-3,-24,27,-5,-1
20,-1,-20,-10,20,-10,-9,-3,-24,27,-5,-1
19,-2,-20,-9,19,-11,-9,-4,-24,26,-5,-1
19,-2,-20,-9,20,-11,-9,-4,-24,26,-5,-1
20,-1,-21,-9,21,-11,-9,-4,-24,26,-6,-2
21,0,-22,-10,22,-11,-9,-5,-24,26,-6,-2
22,1,-22,-12,22,-10,-9,-5,-24,26,-6,-2
22,1,-21,-12,22,-10,-9,-5,-23,26,-6,-2
21,1,-20,-11,20,-9,-9,-5,-23,26,-6,-2
20,1,-19,-10,19,-9,-9,-6,-23,26,-5,-1
20,0,-20,-10,19,-9,-9,-6,-23,26,-5,-1
20,0,-20,-9,19,-10,-9,-7,-23,27,-5,-1
19,-1,-20,-8,19,-10,-9,-7,-23,27,-5,0
18,-2,-20,-8,20,-11,-9,-7,-23,28,-4,0
18,-3,-21,-8,20,-11,-9,-7,-23,28,-4,0
19,-3,-21,-8,21,-12,-9,-7,-22,29,-4,0
19,-3,-22,-8,21,-12,-9,-7,-22,29,-4,0
19,-3,-22,-8,20,-12,-9,-6,-22,29,-4,0
19,-2,-22,-8,20,-12,-9,-6,-21,30,-4,0
20,-1,-22,-9,21,-11,-9,-6,-20,31,-3,1
19,-1,-21,-8,20,-11,-9,-6,-20,32,-3,1
17,-2,-20,-7,19,-11,-9,-5,-20,32,-3,1
16,-3,-19,-6,17,-11,-9,-5,-20,32,-3,1
15,-3,-18,-6,17,-10,-9,-5,-20,32,-3,1
15,-3,-18,-6,17,-10,-9,-5,-20,32,-3,1
16,-3,-18,-7,17,-10,-9,-6,-20,32,-3,1
16,-2,-18,-7,17,-10,-9,-6,-19,32,-3,1
16,-2,-17,-7,17,-10,-8,-6,-19,32,-3,1
16,-2,-17,-7,17,-10,-8,-6,-19,32,-2,1
15,-2,-17,-6,16,-10,-9,-6,-19,32,-3,1
15,-3,-18,-6,16,-10,-9,-6,-19,32,-3,0
15,-2,-17,-7,16,-10,-9,-6,-19,32,-2,0
14,-2,-16,-6,15,-9,-9,-6,-18,32,-2,1
13,-2,-15,-5,14,-9,-8,-5,-18,32,-1,2
12,-3,-15,-4,14,-10,-8,-5,-18,32,-1,2
12,-4,-16,-4,14,-10,-8,-5,-18,32,-1,1
13,-3,-17,-5,15,-10,-8,-5,-17,33,-1,1
14,-2,-17,-6,15,-9,-8,-4,-17,33,-1,1
15,-2,-17,-6,16,-9,-8,-4,-17,34,0,1
15,-2,-18,-6,16,-10,-8,-4,-17,33,0,1
15,-3,-19,-6,17,-11,-8,-4,-17,33,-1,1
16,-4,-19,-6,17,-12,-8,-4,-17,32,-1,0
16,-4,-19,-6,18,-12,-8,-4,-17,31,-2,0
15,-4,-18,-6,17,-11,-7,-4,-17,31,-2,0
12,-4,-17,-4,15,-10,-7,-4,-17,30,-2,0
10,-6,-16,-2,14,-11,-7,-5,-18,30,-2,0
10,-7,-16,-1,13,-11,-8,-6,-18,29,-3,0
11,-6,-16,-2,14,-11,-8,-6,-18,28,-2,0
13,-4,-16,-5,15,-10,-7,-6,-17,28,-2,1
15,-3,-17,-6,16,-10,-7,-6,-17,27,-1,2
16,-2,-17,-7,16,-10,-7,-6,-17,26,-2,2
15,-2,-17,-6,16,-9,-7,-6,-17,25,-2,1
13,-3,-16,-5,15,-9,-7,-6,-17,24,-3,1
12,-3,-16,-4,14,-10,-7,-6,-17,23,-4,0
12,-4,-16,-4,14,-10,-8,-7,-18,22,-5,0
11,-4,-15,-3,14,-10,-8,-7,-18,21,-5,0
10,-4,-15,-3,13,-10,-8,-7,-18,20,-6,0
9,-5,-15,-2,13,-10,-8,-7,-18,19,-6,0
9,-6,-15,-2,13,-10,-9,-7,-19,17,-7,-1
10,-5,-15,-3,13,-10,-9,-7,-19,16,-7,-1
11,-5,-14,-3,13,-9,-8,-7,-19,15,-7,0
10,-4,-13,-3,12,-9,-8,-7,-19,14,-7,0
9,-4,-13,-2,11,-9,-8,-7,-18,14,-7,0
8,-5,-13,-2,11,-9,-8,-7,-18,13,-7,0
7,-5,-13,-1,10,-9,-8,-7,-18,12,-8,0
7,-5,-12,-1,10,-9,-8,-7,-18,12,-8,0
7,-5,-11,-1,10,-8,-7,-7,-18,11,-7,1
8,-5,-12,-1,10,-8,-7,-8,-18,10,-7,1
9,-5,-13,-2,11,-8,-7,-8,-18,9,-8,1
9,-5,-13,-2,11,-8,-7,-8,-18,8,-8,1
8,-4,-12,-2,10,-8,-7,-8,-17,8,-7,2
8,-3,-12,-2,10,-7,-7,-8,-17,9,-7,2
8,-3,-11,-2,10,-7,-7,-7,-17,10,-6,2
7,-4,-11,-1,9,-7,-7,-7,-16,11,-6,3
5,-5,-10,0,8,-7,-7,-7,-16,12,-5,3
2,-6,-9,2,5,-7,-7,-7,-15,13,-5,3
-2,-8,-7,5,3,-7,-7,-6,-15,14,-5,3
-3,-9,-6,6,2,-8,-7,-6,-15,15,-5,3
-2,-9,-7,5,2,-7,-6,-6,-15,16,-5,3
0,-7,-7,3,3,-6,-6,-5,-14,17,-5,3
0,-5,-6,2,3,-5,-5,-5,-14,18,-4,3
1,-4,-6,1,3,-5,-5,-4,-13,19,-3,3
2,-3,-6,0,3,-4,-4,-4,-13,20,-3,4
1,-3,-5,0,3,-4,-4,-3,-12,21,-2,4
0,-4,-5,1,2,-4,-4,-3,-12,21,-2,5
0,-4,-5,1,2,-5,-4,-3,-12,21,-2,5
0,-5,-6,2,3,-6,-4,-3,-12,21,-2,5
1,-5,-7,2,4,-6,-3,-3,-12,21,-2,5
1,-5,-7,2,4,-6,-3,-2,-11,22,-2,5
1,-5,-6,2,4,-5,-1,-1,-10,22,-1,6
1,-5,-6,2,3,-5,0,-1,-9,23,-1,6
1,-5,-6,2,3,-6,1,-1,-7,23,-1,5
2,-4,-6,0,4,-6,3,-1,-4,25,0,6
4,-2,-7,-1,6,-5,7,-1,0,27,2,7
7,-1,-8,-3,8,-5,11,-1,5,30,4,8
9,-1,-10,-4,10,-6,17,0,10,33,6,9
10,-2,-12,-4,12,-7,22,0,16,36,8,10
12,-1,-14,-5,13,-7,28,0,22,41,11,12
15,1,-14,-8,15,-6,34,0,30,48,17,17
18,6,-12,-12,15,-3,39,-1,41,58,26,24
22,14,-8,-18,15,3,43,-3,54,71,39,34
27,25,-3,-26,15,11,47,-5,71,87,54,46
32,37,3,-35,15,20,49,-9,88,104,70,59
37,48,11,-43,13,29,46,-15,103,121,87,73
41,60,18,-51,12,39,37,-23,116,136,102,85
45,70,24,-58,11,47,23,-32,124,149,115,96
48,78,30,-63,9,54,3,-41,125,155,123,104
46,85,38,-65,3,61,-20,-49,117,155,127,109
39,91,51,-65,-6,70,-45,-55,104,149,126,110
31,95,63,-63,-16,78,-68,-58,89,140,122,109
24,94,69,-60,-22,81,-82,-59,75,128,113,102
18,88,70,-54,-26,79,-87,-57,63,114,100,91
11,80,70,-46,-29,75,-87,-52,49,98,83,77
2,70,68,-36,-32,69,-83,-46,34,79,64,60
-6,58,65,-26,-35,62,-78,-39,17,61,45,43
-13,48,61,-18,-36,55,-74,-33,0,45,30,30
-17,40,58,-12,-37,49,-71,-28,-13,33,19,21
-19,34,53,-8,-36,43,-65,-24,-21,26,13,16
-20,28,48,-5,-34,38,-57,-20,-22,22,11,14
-20,24,44,-2,-32,34,-47,-16,-21,20,9,12
-20,21,40,-1,-30,31,-38,-12,-18,19,8,11
-19,19,37,0,-28,28,-29,-8,-16,18,7,11
-19,15,34,2,-26,25,-21,-4,-14,17,5,9
-18,11,29,3,-23,20,-12,-1,-12,16,2,7
-16,8,24,4,-20,16,-4,2,-10,15,0,5
-14,6,20,4,-17,13,2,6,-8,14,-1,4
-14,4,18,5,-16,10,7,8,-7,13,-2,3
-14,2,16,5,-15,9,10,9,-7,11,-3,2
-13,1,14,5,-14,8,12,10,-7,10,-5,1
-13,2,15,5,-14,8,13,11,-8,8,-5,0
-13,2,16,5,-14,9,14,12,-8,8,-6,0
-13,2,15,5,-14,8,15,13,-8,7,-6,0
-13,2,14,5,-13,8,16,15,-9,7,-7,-1
-11,2,13,5,-11,7,17,16,-10,6,-8,-1
-9,1,10,4,-10,6,17,16,-11,5,-8,-2
-8,1,9,4,-9,5,17,17,-12,4,-9,-3
-9,0,9,4,-9,5,18,17,-14,3,-10,-4
-9,0,9,5,-9,4,18,17,-14,3,-11,-5
-9,-1,8,5,-9,4,17,17,-15,2,-11,-6
-9,-2,7,5,-8,3,17,17,-16,1,-12,-7
-9,-3,6,6,-7,1,17,17,-17,1,-13,-8
-9,-4,5,6,-7,0,17,17,-18,0,-14,-8
-8,-5,3,6,-6,0,17,17,-19,0,-14,-8
-8,-5,2,6,-5,-1,17,18,-19,0,-14,-8
-8,-6,1,7,-5,-2,18,18,-19,0,-14,-8
-8,-7,1,7,-5,-2,18,19,-19,0,-14,-8
-8,-7,0,8,-4,-3,18,19,-19,1,-14,-8
-8,-8,0,8,-4,-4,18,19,-19,1,-14,-8
-8,-9,0,8,-4,-5,18,20,-19,2,-14,-9
-9,-10,-1,9,-4,-6,18,20,-19,2,-15,-10
-9,-10,-1,10,-4,-6,18,20,-19,3,-15,-11
-8,-10,-1,9,-3,-6,18,20,-18,3,-15,-11
-8,-9,-1,8,-3,-5,19,21,-18,4,-15,-11
-8,-8,0,8,-3,-4,19,21,-17,4,-15,-11
-8,-7,0,7,-3,-3,19,22,-17,5,-15,-10
-8,-7,0,7,-4,-3,20,22,-17,5,-15,-10
-9,-7,1,8,-4,-3,20,23,-17,6,-14,-9
-9,-7,1,8,-5,-3,21,24,-17,6,-14,-9
-9,-7,2,9,-5,-3,22,25,-16,7,-13,-8
-10,-8,2,9,-6,-3,23,25,-16,8,-13,-8
-11,-9,3,10,-7,-3,23,26,-15,8,-13,-7
-13,-9,4,11,-8,-3,24,26,-15,9,-13,-7
-14,-10,4,12,-9,-3,24,26,-15,9,-13,-7
-15,-10,4,12,-10,-3,24,26,-15,9,-13,-8
-16,-10,5,12,-10,-3,24,27,-15,9,-12,-8
-16,-10,6,13,-11,-2,24,28,-15,10,-12,-8
-17,-10,7,13,-12,-1,25,29,-15,10,-12,-8
-18,-10,7,14,-13,-1,25,29,-15,10,-13,-8
-18,-10,8,14,-13,-1,25,29,-15,10,-13,-9
-19,-12,8,16,-14,-2,25,29,-16,9,-14,-9
-21,-14,7,17,-14,-3,24,28,-16,9,-15,-10
-22,-14,7,18,-15,-3,25,29,-16,9,-15,-9
-21,-13,8,17,-15,-2,26,30,-15,10,-14,-8
-21,-12,9,16,-15,-1,27,31,-14,11,-13,-7
-21,-11,9,16,-16,-1,28,32,-14,11,-12,-6
-20,-10,10,15,-16,-1,29,33,-13,12,-11,-5
-20,-10,10,15,-16,0,29,33,-13,13,-10,-5
-21,-10,11,15,-16,0,30,34,-12,13,-10,-5
-21,-9,11,15,-16,1,30,34,-11,13,-10,-5
-20,-8,12,14,-16,2,30,34,-11,13,-10,-6
-20,-8,12,14,-16,2,31,34,-11,13,-10,-6
-20,-8,11,15,-16,1,31,34,-11,13,-11,-7
-20,-9,11,15,-16,1,31,34,-11,12,-11,-8
-21,-9,12,15,-17,1,31,34,-11,12,-12,-8
-23,-10,13,17,-19,1,31,34,-12,12,-12,-8
-25,-10,14,18,-20,1,31,34,-12,11,-13,-9
-25,-10,15,18,-21,2,31,33,-12,10,-13,-9
-24,-8,15,16,-20,3,32,33,-11,10,-13,-9
-23,-6,16,15,-19,4,33,34,-10,10,-13,-9
-23,-6,16,15,-19,4,33,33,-10,10,-13,-9
-24,-8,16,16,-20,3,33,33,-10,9,-14,-9
-25,-9,16,17,-20,3,34,33,-10,9,-14,-9
-25,-9,16,17,-20,3,35,33,-10,9,-13,-8
-24,-7,16,16,-20,4,35,34,-9,9,-13,-8
-23,-6,16,15,-20,4,36,34,-9,9,-12,-7
-22,-5,15,14,-19,5,36,34,-9,9,-12,-7
-21,-4,16,13,-19,5,37,35,-8,9,-12,-6
-22,-4,17,14,-20,6,37,35,-8,9,-12,-6
-23,-4,18,14,-21,7,38,35,-8,9,-12,-6
-23,-4,19,14,-22,7,38,35,-7,9,-11,-6
-23,-3,19,13,-21,7,39,35,-7,9,-11,-6
-22,-3,19,13,-21,7,40,35,-6,8,-11,-6
-22,-2,19,12,-21,7,40,35,-6,8,-11,-6
-22,-2,19,12,-21,7,40,35,-6,8,-11,-6
-22,-2,19,12,-21,7,41,34,-5,8,-11,-6
-22,-2,19,12,-21,8,41,34,-5,8,-11,-6
-22,-2,19,12,-21,8,42,34,-4,8,-12,-6
-22,-2,20,12,-21,8,42,34,-4,7,-12,-6
-22,-1,20,12,-21,9,42,34,-3,7,-12,-7
-21,0,21,11,-21,9,43,33,-3,7,-12,-7
-21,0,21,11,-22,10,43,33,-3,7,-12,-7
-21,0,21,11,-22,10,44,32,-3,6,-13,-8
-21,0,21,11,-22,11,44,32,-3,6,-13,-8
-21,0,21,11,-22,11,44,32,-2,6,-13,-8
-22,0,22,11,-22,11,45,32,-1,7,-13,-8
-22,0,22,11,-23,11,45,32,0,7,-13,-7
-22,1,23,11,-23,11,46,32,1,7,-12,-6
-21,2,23,10,-23,12,46,32,2,8,-12,-6
-22,3,25,9,-24,13,47,32,3,8,-11,-6
-23,5,27,9,-25,15,48,33,4,10,-10,-5
-23,6,29,8,-26,16,49,33,5,11,-9,-4
-22,8,30,7,-26,18,50,33,5,11,-8,-3
-22,8,30,7,-26,19,51,33,6,12,-8,-3
-22,9,30,7,-26,19,51,33,6,13,-7,-2
-21,9,30,6,-26,19,51,33,7,14,-7,-2
-21,9,30,6,-26,19,51,33,7,15,-6,-1
-22,9,31,6,-26,19,52,33,8,16,-6,-1
-22,9,32,6,-27,20,52,33,9,17,-6,-1
-22,10,33,6,-28,21,52,33,9,18,-5,-1
-22,12,34,5,-28,22,53,33,10,20,-5,0
-22,13,35,4,-28,23,53,33,11,21,-4,0
-23,13,36,4,-29,24,53,33,12,22,-4,0
-25,13,38,6,-31,25,53,33,13,23,-3,0
-26,13,39,7,-33,26,53,33,14,24,-2,0
-25,15,40,5,-32,27,53,33,14,25,-1,0
-23,17,40,2,-32,28,54,33,15,26,0,1
-22,19,41,1,-32,29,54,33,16,27,1,2
-22,19,41,1,-32,30,54,33,16,28,1,3
-21,20,41,0,-32,31,54,33,17,29,2,4
-20,22,41,-1,-31,32,54,33,18,31,3,5
-19,23,42,-2,-31,32,54,33,18,32,4,6
-19,23,42,-2,-31,33,54,33,19,33,5,7
-19,24,42,-2,-31,33,54,33,19,34,6,7
-19,24,43,-2,-32,33,53,33,20,35,7,7
-20,25,45,-2,-33,34,53,33,21,36,7,8
-20,26,46,-3,-33,35,53,33,21,37,8,8
-20,26,46,-3,-33,36,52,33,22,38,9,9
-19,26,45,-3,-33,36,52,33,22,38,10,10
-19,26,45,-4,-32,35,51,32,22,39,10,11
-18,26,44,-4,-32,35,50,32,23,39,11,12
-18,26,44,-4,-31,35,49,31,23,40,11,12
-18,26,44,-4,-31,35,48,31,23,40,11,13
-18,26,44,-4,-31,35,48,30,24,41,11,13
-18,27,44,-4,-31,36,47,30,24,42,12,14
-18,27,45,-4,-32,36,47,29,24,43,13,14
-18,28,46,-4,-32,37,46,28,24,43,13,14
-17,30,46,-6,-32,38,45,28,25,44,14,15
-15,32,46,-8,-31,39,44,28,25,45,16,16
-14,32,46,-9,-30,39,43,27,26,45,17,16
-13,32,46,-9,-30,39,42,27,26,46,17,17
-13,32,46,-10,-30,39,41,27,27,47,18,17
-13,32,46,-10,-30,39,40,27,27,47,18,18
-13,32,45,-10,-29,38,40,27,27,48,19,18
-13,32,45,-10,-29,38,40,27,27,48,19,18
-13,32,46,-10,-30,39,39,27,27,49,20,19
-13,32,46,-10,-30,39,38,26,28,49,20,19
-12,32,44,-10,-28,38,37,25,28,48,21,20
-10,32,42,-10,-27,37,35,24,28,48,21,21
-10,31,41,-10,-26,36,34,23,28,48,22,21
-9,30,39,-10,-25,35,33,22,28,48,22,21
-7,30,38,-11,-23,34,32,21,28,48,22,21
-7,30,37,-11,-22,34,31,21,28,48,22,20
-6,30,37,-11,-21,33,30,20,28,48,22,20
-6,30,36,-12,-21,33,29,20,28,48,22,19
-5,30,35,-12,-20,32,28,19,28,48,22,19
-4,29,34,-12,-19,31,26,18,28,47,22,19
-3,29,32,-13,-18,30,25,17,28,47,22,19
-1,30,31,-14,-16,30,25,16,29,47,22,20
1,30,29,-16,-14,30,24,15,29,47,22,21
2,30,28,-16,-12,29,24,14,29,47,22,21
4,30,26,-17,-11,28,23,13,29,46,22,21
5,30,24,-18,-9,27,22,12,29,46,22,21
7,30,23,-19,-8,26,21,11,29,46,22,21
8,30,21,-19,-7,25,20,9,29,45,22,22
8,29,21,-18,-6,25,19,9,29,45,22,22
8,28,20,-18,-6,24,17,8,28,44,22,22
9,27,18,-18,-4,22,16,7,27,42,21,21
9,25,16,-17,-3,20,14,6,26,40,19,20
9,23,14,-16,-2,18,12,5,24,38,18,20
9,21,12,-15,-1,16,10,4,23,37,17,19
9,20,10,-14,-1,15,7,3,21,35,16,18
8,19,9,-13,0,14,4,2,19,34,15,17
9,18,8,-14,0,13,2,1,17,32,14,16
11,18,7,-15,2,13,0,0,17,32,14,16
12,18,6,-15,3,12,-1,0,16,31,13,15
12,17,5,-14,3,11,-2,-1,15,30,12,14
11,15,4,-13,3,9,-4,-2,15,29,10,13
10,13,3,-11,4,7,-5,-3,14,28,9,12
10,13,2,-11,4,6,-6,-4,13,27,9,11
12,14,1,-13,6,6,-7,-5,13,27,8,11
15,15,0,-15,7,7,-7,-5,13,26,8,11
16,15,-1,-16,8,7,-8,-5,12,26,7,10
16,14,-1,-16,9,6,-9,-5,11,25,6,9
16,14,-2,-15,9,6,-9,-5,11,24,6,9
16,12,-3,-14,10,4,-10,-5,10,23,5,8
15,10,-5,-13,10,2,-11,-5,9,22,4,8
14,8,-6,-11,10,1,-11,-5,8,21,4,8
13,7,-6,-10,9,0,-11,-4,8,21,3,8
12,6,-7,-10,9,0,-12,-4,7,20,3,7
12,5,-8,-9,10,-1,-12,-4,6,20,2,6
12,3,-9,-8,11,-3,-12,-4,6,19,1,4
12,2,-10,-7,11,-4,-13,-4,5,18,0,3
12,2,-11,-7,12,-4,-13,-3,5,17,0,2
13,1,-12,-7,12,-5,-13,-3,4,16,-1,2
13,0,-13,-7,12,-6,-13,-4,4,15,-1,1
13,0,-14,-6,13,-7,-14,-4,3,14,-2,1
12,-1,-14,-5,13,-8,-14,-4,3,14,-3,0
11,-2,-14,-4,12,-9,-14,-4,2,13,-3,0
9,-4,-14,-3,12,-9,-14,-4,2,13,-4,-1
9,-4,-14,-3,12,-9,-14,-4,2,13,-4,-1
10,-4,-15,-3,13,-9,-14,-4,2,13,-4,-1
12,-3,-15,-5,14,-9,-14,-3,2,12,-4,-1
15,-2,-16,-7,16,-9,-14,-3,2,12,-4,-1
17,0,-17,-8,17,-9,-13,-3,2,11,-4,-1
19,0,-18,-9,18,-9,-13,-3,2,11,-4,-1
19,1,-18,-10,18,-9,-12,-3,3,12,-4,-1
19,1,-18,-10,19,-8,-11,-2,3,12,-4,-1
19,2,-17,-11,18,-7,-9,-1,4,13,-4,0
18,2,-16,-10,17,-6,-7,-1,5,13,-3,0
17,2,-15,-10,16,-6,-6,0,6,13,-2,0
17,2,-14,-9,15,-6,-5,0,7,14,-1,1
16,2,-14,-9,14,-6,-4,0,8,14,0,2
15,2,-13,-9,14,-5,-2,1,10,15,1,3
15,3,-12,-9,13,-4,0,2,12,17,2,3
15,5,-10,-9,12,-2,2,3,14,18,3,4
14,7,-7,-10,11,0,5,3,16,20,4,5
14,10,-3,-11,9,3,8,4,19,23,6,7
13,13,1,-13,6,7,12,6,22,26,8,9
12,16,4,-14,4,10,15,6,25,29,11,12
13,19,7,-16,2,13,17,6,29,32,15,16
13,22,9,-18,2,15,17,4,32,36,20,21
14,26,11,-20,1,19,16,1,36,40,25,26
17,32,14,-25,1,23,15,-1,40,45,30,31
21,40,18,-31,2,29,15,-3,44,51,36,37
25,47,22,-36,2,35,16,-5,50,58,42,42
27,54,27,-40,0,41,18,-7,56,65,48,47
28,61,32,-44,-1,46,18,-9,63,71,54,51
30,66,36,-48,-3,51,17,-13,68,76,58,54
30,71,41,-50,-6,56,16,-16,72,81,63,57
28,74,47,-51,-10,60,17,-18,77,87,67,61
28,79,51,-53,-12,65,18,-20,81,92,72,65
30,85,55,-58,-13,70,18,-21,85,97,77,69
33,91,58,-62,-13,74,19,-21,89,102,81,72
34,95,61,-65,-14,78,19,-22,93,105,84,74
33,98,64,-66,-16,81,18,-22,96,108,87,76
32,100,69,-66,-18,84,17,-23,98,111,89,78
30,103,74,-67,-22,88,16,-22,101,115,92,80
28,106,79,-67,-25,92,17,-21,105,119,96,83
26,110,83,-68,-28,96,16,-21,110,123,99,85
25,113,87,-69,-31,100,14,-22,113,126,102,87
23,115,92,-69,-34,104,10,-22,115,130,105,89
20,119,98,-69,-39,109,5,-23,117,134,108,90
17,124,107,-70,-45,115,-3,-24,118,138,111,92
16,131,115,-73,-50,123,-15,-27,118,141,114,94
15,138,123,-77,-54,131,-31,-33,115,142,117,96
13,144,131,-79,-59,138,-50,-39,111,143,120,98
10,149,138,-80,-64,143,-68,-46,106,144,122,100
8,152,144,-80,-67,148,-84,-52,101,144,125,102
7,156,148,-81,-71,152,-98,-57,96,145,127,104
5,159,153,-82,-74,156,-110,-62,90,145,129,106
4,162,157,-82,-77,160,-122,-66,85,145,131,108
3,166,162,-84,-80,164,-133,-70,79,145,133,109
3,171,167,-87,-82,169,-144,-73,73,145,135,111
3,174,171,-88,-83,172,-154,-77,65,144,137,113
3,176,173,-90,-84,174,-163,-80,59,143,138,114
3,178,174,-91,-85,176,-170,-83,54,143,141,117
4,179,175,-91,-85,176,-176,-86,49,143,144,120
5,179,174,-92,-85,177,-182,-89,46,144,147,123
6,180,174,-92,-85,177,-187,-93,43,146,151,127
7,182,176,-94,-85,179,-192,-96,42,148,155,130
7,185,178,-96,-85,181,-194,-98,42,151,160,134
8,186,178,-97,-85,182,-194,-99,44,155,165,136
9,187,178,-98,-84,182,-191,-98,48,160,169,137
11,187,175,-99,-82,181,-186,-96,53,165,173,139
14,186,172,-100,-79,179,-180,-94,57,169,176,139
16,184,168,-100,-76,176,-173,-92,61,171,177,138
17,177,160,-97,-72,169,-165,-88,61,169,174,135
16,167,150,-91,-68,158,-154,-82,57,160,165,128
14,153,139,-83,-63,145,-143,-75,47,145,150,116
10,136,126,-73,-58,131,-132,-67,34,126,133,103
7,118,111,-63,-52,115,-121,-59,21,106,114,89
6,98,93,-52,-43,96,-107,-50,11,86,94,73
8,78,70,-43,-31,74,-88,-38,3,65,72,57
11,59,48,-35,-18,53,-68,-26,-1,47,52,41
12,41,28,-26,-8,35,-52,-16,-3,32,34,26
12,26,12,-19,0,19,-40,-9,-5,21,20,14
14,15,0,-14,6,7,-30,-3,-6,13,9,4
14,7,-6,-11,10,0,-24,1,-6,8,2,-2
13,1,-11,-7,12,-5,-19,3,-7,3,-2,-7
12,-3,-14,-4,13,-9,-16,6,-8,0,-7,-11
12,-5,-17,-3,15,-11,-13,7,-9,-4,-10,-13
11,-8,-19,-1,15,-13,-11,8,-11,-8,-14,-15
10,-10,-20,0,15,-15,-9,9,-12,-11,-17,-17
8,-13,-21,2,15,-17,-7,10,-13,-13,-20,-19
8,-15,-23,3,15,-19,-6,10,-14,-15,-22,-21
8,-16,-24,3,16,-20,-4,11,-15,-17,-24,-23
8,-18,-26,4,17,-22,-3,12,-16,-20,-26,-24
8,-20,-28,5,18,-24,-2,12,-18,-23,-28,-26
8,-22,-30,6,19,-26,0,13,-19,-25,-30,-27
9,-23,-32,7,20,-28,0,13,-20,-27,-32,-28
9,-25,-34,8,21,-29,1,14,-21,-29,-34,-29
8,-28,-35,10,21,-31,2,14,-22,-31,-35,-31
5,-31,-36,12,21,-33,2,13,-23,-33,-37,-32
4,-33,-37,14,21,-35,3,13,-24,-34,-39,-34
5,-34,-38,14,22,-36,3,13,-25,-35,-39,-34
8,-32,-39,11,23,-36,5,13,-24,-35,-39,-34
11,-29,-39,8,24,-34,7,13,-23,-35,-39,-33
12,-27,-38,7,24,-33,8,14,-22,-35,-39,-33
10,-28,-38,8,23,-33,9,15,-23,-36,-40,-34
8,-29,-38,10,23,-33,9,15,-23,-37,-41,-34
8,-29,-39,10,24,-34,9,16,-24,-37,-41,-35
9,-30,-40,10,25,-35,10,16,-24,-38,-42,-35
9,-31,-41,11,25,-36,10,16,-24,-38,-42,-35
8,-32,-41,12,25,-36,10,17,-24,-39,-43,-36
8,-33,-41,12,24,-37,11,17,-24,-40,-43,-37
8,-34,-42,12,24,-38,11,17,-25,-41,-44,-37
7,-33,-40,12,23,-37,12,17,-24,-41,-45,-37
6,-32,-38,12,21,-35,13,19,-23,-41,-44,-37
5,-31,-37,12,21,-34,14,19,-23,-40,-44,-36
5,-31,-37,12,21,-34,14,19,-23,-39,-44,-36
5,-32,-37,12,22,-35,14,19,-23,-39,-44,-36
5,-33,-39,13,22,-36,14,19,-23,-39,-44,-36
6,-35,-41,14,23,-38,14,19,-23,-40,-45,-37
5,-37,-43,16,23,-41,14,19,-24,-41,-46,-38
5,-40,-45,18,24,-43,14,19,-25,-42,-48,-40
4,-41,-46,19,24,-44,14,19,-25,-43,-49,-40
5,-40,-45,17,24,-43,15,20,-25,-43,-49,-40
7,-37,-44,15,25,-40,17,20,-24,-42,-48,-39
7,-35,-43,13,25,-39,17,21,-23,-42,-47,-39
7,-34,-42,13,25,-38,18,21,-23,-42,-48,-40
7,-34,-42,13,25,-38,18,21,-23,-42,-48,-40
8,-35,-44,13,26,-39,18,22,-23,-42,-48,-40
8,-36,-45,13,26,-40,19,22,-23,-42,-49,-40
8,-36,-45,13,26,-41,19,23,-22,-42,-49,-40
8,-37,-45,14,26,-41,20,24,-22,-42,-48,-40
7,-37,-45,15,26,-41,21,25,-21,-41,-48,-40
7,-38,-45,16,26,-41,21,26,-21,-41,-48,-40
7,-38,-46,16,27,-41,22,26,-21,-40,-48,-40
7,-38,-46,16,27,-41,22,27,-21,-40,-48,-41
7,-38,-46,16,26,-42,23,27,-21,-40,-48,-41
7,-39,-46,16,26,-42,24,28,-20,-40,-48,-41
8,-39,-47,16,27,-43,24,28,-20,-40,-49,-41
8,-39,-48,16,27,-43,25,29,-20,-40,-49,-42
7,-40,-48,16,27,-44,25,29,-21,-41,-50,-43
6,-42,-49,17,27,-45,25,29,-21,-42,-51,-44
5,-43,-49,18,27,-46,26,29,-21,-42,-52,-45
6,-42,-48,18,27,-45,27,29,-21,-42,-52,-45
7,-40,-48,16,28,-45,27,29,-21,-42,-52,-46
8,-40,-49,15,28,-45,28,29,-21,-42,-52,-46
8,-40,-49,16,28,-45,28,29,-21,-43,-53,-46
8,-41,-50,16,28,-46,29,29,-21,-44,-53,-46
9,-41,-50,16,29,-46,30,30,-21,-44,-53,-45
11,-41,-51,15,31,-46,31,30,-21,-44,-54,-45
10,-42,-52,16,31,-47,32,31,-21,-45,-54,-45
8,-44,-52,18,30,-47,32,31,-21,-45,-55,-45
6,-46,-52,20,29,-48,32,31,-21,-46,-55,-46
6,-47,-53,21,29,-50,33,31,-21,-46,-56,-47
6,-47,-53,20,30,-50,34,32,-21,-46,-56,-48
8,-46,-54,19,31,-50,35,32,-21,-46,-56,-48
9,-45,-54,18,31,-50,36,32,-20,-46,-56,-48
10,-45,-54,17,32,-50,37,32,-20,-46,-57,-49
10,-44,-54,17,32,-49,38,32,-20,-46,-57,-49
8,-44,-52,18,30,-48,39,33,-19,-46,-57,-50
6,-45,-51,19,29,-48,40,33,-19,-46,-57,-50
5,-45,-51,20,28,-48,40,33,-19,-46,-57,-51
5,-46,-52,20,28,-49,41,33,-19,-46,-58,-52
4,-48,-53,21,29,-51,41,33,-19,-47,-60,-53
5,-50,-55,22,29,-53,42,34,-19,-48,-61,-54
6,-50,-56,22,30,-54,43,34,-19,-49,-61,-54
7,-51,-57,21,32,-54,44,35,-19,-49,-61,-53
8,-51,-58,21,33,-55,45,35,-19,-49,-61,-53
7,-52,-59,22,33,-56,46,35,-18,-50,-61,-53
8,-53,-60,22,34,-56,46,35,-18,-50,-62,-53
8,-53,-61,21,35,-57,47,35,-18,-50,-62,-54
9,-53,-62,21,36,-57,48,35,-17,-50,-62,-54
9,-53,-63,21,36,-58,49,35,-17,-50,-63,-55
10,-54,-64,22,37,-59,49,35,-17,-51,-64,-56
10,-55,-65,22,37,-60,50,35,-17,-52,-65,-58
11,-55,-66,21,38,-60,50,35,-17,-53,-66,-58
12,-55,-67,20,39,-60,51,35,-17,-53,-67,-58
12,-55,-67,20,39,-60,52,36,-16,-52,-66,-57
11,-55,-66,21,38,-60,54,36,-15,-52,-65,-56
9,-56,-66,23,37,-61,55,37,-14,-51,-65,-55
9,-56,-66,24,37,-61,55,37,-13,-51,-65,-55
8,-57,-66,24,37,-62,56,37,-13,-51,-65,-55
8,-58,-66,25,37,-62,57,37,-12,-51,-65,-55
7,-59,-66,25,37,-63,57,37,-11,-51,-65,-55
7,-60,-67,26,37,-64,58,37,-11,-51,-66,-56
7,-61,-69,27,38,-65,58,37,-11,-52,-67,-57
9,-60,-70,25,40,-65,59,37,-10,-52,-67,-58
12,-58,-71,23,41,-65,59,37,-9,-52,-66,-58
14,-57,-71,22,42,-64,60,37,-8,-52,-66,-58
14,-57,-71,22,43,-64,60,37,-6,-51,-66,-58
15,-57,-72,22,43,-64,61,37,-5,-51,-66,-57
14,-58,-72,22,43,-65,61,37,-4,-50,-65,-57
14,-59,-73,22,44,-66,61,36,-3,-50,-65,-56
15,-60,-74,21,45,-67,61,36,-2,-49,-64,-56
16,-59,-75,21,46,-67,61,35,0,-48,-64,-55
17,-58,-75,20,46,-66,61,35,1,-47,-63,-54
18,-57,-75,19,46,-66,61,35,3,-46,-62,-54
19,-56,-75,19,47,-65,61,35,5,-45,-61,-53
19,-55,-75,18,46,-65,61,35,6,-43,-60,-53
19,-54,-74,18,46,-64,61,35,8,-42,-59,-52
19,-53,-73,17,46,-63,61,34,9,-41,-57,-50
19,-53,-72,16,46,-62,60,34,11,-40,-56,-49
19,-53,-72,16,46,-62,60,33,12,-38,-55,-49
19,-53,-72,16,46,-62,59,32,14,-37,-54,-48
19,-52,-72,16,45,-62,58,31,15,-36,-53,-47
19,-53,-72,17,45,-62,56,29,16,-35,-52,-46
19,-53,-72,17,45,-62,54,28,17,-34,-51,-45
19,-52,-71,16,45,-61,53,27,18,-33,-49,-44
19,-50,-69,15,44,-59,53,27,21,-30,-47,-42
20,-47,-67,13,43,-57,53,27,24,-27,-43,-39
20,-45,-65,11,43,-54,52,27,26,-24,-40,-36
19,-43,-63,11,41,-53,51,27,28,-21,-38,-34
18,-42,-61,11,40,-52,50,26,30,-19,-35,-33
18,-41,-60,11,39,-50,48,24,31,-17,-34,-31
18,-40,-58,10,38,-49,46,23,32,-16,-32,-30
18,-39,-57,10,38,-48,44,21,32,-14,-31,-29
19,-37,-56,9,38,-47,42,20,33,-13,-29,-27
20,-35,-55,7,38,-45,39,19,34,-11,-28,-26
20,-33,-54,6,37,-43,37,18,34,-10,-26,-25
20,-32,-52,6,36,-42,35,16,35,-9,-25,-24
19,-31,-51,6,35,-41,32,14,35,-8,-24,-23
19,-29,-48,5,34,-39,30,12,35,-6,-22,-22
18,-27,-45,4,32,-36,28,12,36,-5,-20,-20
16,-25,-42,4,29,-34,26,11,37,-3,-17,-17
15,-24,-39,4,28,-31,24,11,37,-2,-15,-15
15,-22,-37,3,26,-29,21,10,37,0,-13,-13
14,-22,-36,3,25,-28,19,9,37,0,-12,-12
14,-21,-35,4,24,-28,16,8,37,1,-11,-12
13,-20,-33,4,23,-27,14,7,36,2,-10,-11
12,-19,-31,3,21,-25,11,6,36,3,-9,-11
12,-17,-28,2,20,-23,9,5,35,3,-7,-10
11,-15,-26,2,19,-21,7,4,34,4,-6,-10
10,-14,-23,2,17,-19,4,3,32,4,-5,-9
8,-14,-21,3,15,-17,2,2,31,4,-4,-8
5,-14,-19,4,12,-16,0,1,30,4,-3,-7
5,-12,-17,3,11,-15,-1,0,30,5,-2,-6
7,-9,-16,1,11,-13,-2,0,30,6,0,-5
8,-7,-15,0,11,-11,-4,0,29,7,0,-4
8,-6,-14,-1,11,-10,-5,0,29,8,1,-4
7,-5,-13,-1,10,-9,-6,0,28,8,2,-4
7,-4,-11,-1,9,-7,-8,0,27,8,2,-4
7,-3,-10,-2,9,-6,-9,0,26,8,3,-4
6,-2,-7,-2,7,-4,-10,0,26,8,4,-4
4,-1,-4,-1,4,-2,-10,-1,26,8,4,-3
2,0,-2,-1,2,-1,-11,-1,26,8,5,-3
2,0,-2,-1,2,-1,-12,-2,25,8,5,-3
2,0,-3,-1,2,-1,-13,-2,24,8,4,-3
3,0,-3,-1,3,-1,-14,-3,23,8,4,-3
3,0,-2,-1,3,-1,-14,-3,23,8,4,-4
3,0,-2,-1,3,-1,-15,-3,23,7,4,-4
3,0,-3,-1,3,-1,-16,-4,22,7,4,-4
3,0,-3,-1,3,-1,-16,-4,22,7,4,-5
3,0,-2,-1,2,0,-16,-4,22,7,4,-5
2,0,-1,-1,1,0,-16,-4,21,6,4,-5
1,0,-1,0,1,0,-16,-4,21,6,4,-5
-1,-2,0,1,0,-1,-17,-4,20,5,3,-6
-3,-4,0,3,-1,-2,-17,-5,19,5,2,-7
-4,-4,0,4,-1,-2,-17,-5,19,4,1,-7
-3,-2,0,2,-1,-1,-17,-4,19,4,1,-6
-1,0,1,0,-1,0,-16,-4,19,5,2,-5
0,1,1,0,-1,1,-16,-3,20,5,3,-5
0,2,1,-1,-1,2,-15,-3,21,6,3,-4
0,2,1,-2,0,2,-15,-3,21,6,3,-4
0,2,1,-2,0,2,-15,-3,21,6,3,-5
0,2,2,-2,0,2,-15,-3,21,6,3,-5
0,2,2,-1,-1,2,-15,-2,21,6,3,-5
-1,1,3,0,-2,2,-15,-3,21,6,3,-5
-2,0,3,1,-2,1,-15,-4,21,5,2,-6
-3,-1,2,2,-2,1,-15,-4,20,5,2,-6
-3,-1,2,2,-2,1,-15,-4,20,4,3,-6
-2,0,1,1,-2,1,-15,-4,20,4,3,-5
0,0,1,0,-1,1,-15,-4,20,4,3,-5
1,1,0,-1,0,1,-14,-4,20,4,3,-4
2,2,0,-2,1,1,-14,-4,20,5,3,-4
3,2,0,-2,1,1,-14,-4,20,5,3,-5
3,2,0,-2,1,1,-14,-5,20,4,3,-5
2,2,1,-1,0,1,-14,-5,20,4,3,-6
0,1,1,0,0,1,-14,-5,20,4,2,-6
-1,0,1,1,-1,0,-14,-5,20,3,2,-7
-3,-2,1,3,-2,0,-14,-5,20,3,1,-7
-4,-2,2,4,-3,0,-13,-5,20,3,1,-7
-3,-1,2,3,-2,0,-13,-5,20,3,1,-7
-2,0,2,2,-1,0,-13,-5,20,3,2,-6
-1,0,2,1,-1,0,-13,-5,20,3,2,-6
0,0,2,0,0,1,-13,-5,20,3,2,-5
-1,1,2,0,-1,1,-13,-5,20,3,2,-5
-2,0,3,1,-2,2,-12,-5,21,3,2,-5
-3,0,3,2,-3,1,-12,-5,21,3,2,-6
-4,-1,3,2,-3,1,-11,-5,21,3,2,-6
-3,0,3,2,-3,1,-11,-5,21,4,3,-5
-2,1,4,1,-3,2,-11,-5,22,4,3,-5
-2,1,4,1,-2,2,-11,-5,22,4,3,-5
-1,0,3,1,-2,1,-11,-5,22,4,3,-5
-1,0,3,0,-1,1,-11,-5,22,3,2,-5
0,1,2,-1,0,2,-10,-5,22,3,2,-5
1,2,1,-2,0,2,-10,-4,23,3,2,-5
1,2,1,-2,0,2,-10,-4,23,3,2,-5
1,2,1,-2,0,2,-10,-4,23,3,2,-6
1,2,1,-2,0,2,-10,-3,23,3,2,-6
1,2,2,-2,0,2,-9,-3,23,3,2,-6
0,2,2,-1,0,1,-9,-3,23,3,2,-7
0,1,2,-1,-1,1,-9,-2,23,3,2,-7
0,2,2,-1,-1,2,-9,-2,23,3,2,-7
0,3,3,-1,-1,3,-8,-1,23,4,2,-7
0,4,3,-2,-1,3,-7,0,24,4,3,-7
1,4,3,-2,0,3,-7,0,24,5,3,-7
1,4,3,-3,0,3,-7,1,25,5,3,-7
0,4,3,-2,-1,3,-6,1,25,5,3,-7
-1,2,4,0,-2,2,-6,1,25,5,3,-7
-1,2,4,0,-2,2,-6,1,25,5,3,-7
0,3,4,-1,-2,3,-6,1,25,5,3,-7
2,6,4,-4,-1,4,-5,2,25,6,4,-6
3,7,4,-5,0,5,-4,2,26,6,4,-6
4,8,4,-6,0,6,-4,2,26,6,4,-7
4,9,4,-7,0,6,-4,1,26,6,5,-6
5,10,5,-8,0,7,-4,1,26,7,5,-5
7,11,4,-9,1,7,-5,0,26,7,6,-5
8,11,4,-9,2,7,-5,0,26,7,6,-4
7,12,4,-9,1,7,-5,0,26,7,6,-4
6,12,5,-9,1,8,-4,0,26,7,6,-4
5,11,5,-8,0,8,-4,0,26,7,6,-3
4,11,5,-8,0,8,-4,0,26,7,6,-3
2,10,6,-6,-1,8,-4,0,26,7,6,-3
0,8,8,-3,-3,8,-5,-1,26,7,6,-4
-1,7,8,-2,-5,7,-5,-1,26,6,6,-4
-1,7,8,-2,-4,7,-6,-2,25,6,6,-5
0,7,8,-3,-4,7,-8,-2,24,6,5,-5
-1,7,8,-2,-5,7,-9,-3,23,5,5,-6
-1,7,8,-2,-5,7,-10,-5,23,5,4,-6
0,7,8,-3,-4,7,-11,-6,23,5,4,-6
2,10,8,-6,-3,8,-11,-7,23,5,5,-5
4,13,10,-8,-3,11,-10,-8,24,6,6,-4
5,15,11,-10,-3,13,-9,-8,25,7,7,-3
6,17,11,-11,-3,14,-8,-8,26,8,8,-2
6,17,11,-11,-3,14,-8,-8,27,8,8,-1
6,16,11,-10,-3,13,-8,-9,27,8,8,-1
5,15,10,-10,-3,13,-8,-10,26,8,8,-1
5,14,9,-10,-2,12,-8,-11,26,7,8,-1
5,14,8,-10,-2,11,-8,-11,26,7,7,-2
4,13,9,-9,-3,11,-8,-10,26,6,7,-2
3,12,9,-7,-3,11,-8,-10,26,6,7,-2
2,11,10,-6,-4,10,-7,-9,25,6,7,-2
0,10,10,-4,-5,10,-7,-8,25,5,6,-3
-1,9,11,-3,-6,9,-7,-7,25,5,6,-3
-1,8,11,-3,-6,9,-6,-6,25,5,6,-4
-1,8,11,-3,-6,9,-5,-6,25,5,6,-4
-2,8,10,-3,-6,9,-5,-5,25,5,6,-4
-2,7,10,-2,-6,8,-5,-5,25,5,5,-4
-1,6,9,-2,-5,7,-4,-5,26,5,5,-4
-1,5,7,-1,-4,6,-4,-5,26,5,5,-4
-1,4,6,0,-4,5,-4,-5,26,5,5,-4
-1,3,6,0,-4,5,-4,-5,26,5,5,-4
0,4,5,-1,-3,5,-3,-5,26,5,5,-4
1,5,5,-2,-2,5,-3,-4,26,5,5,-4
1,6,6,-3,-2,5,-3,-4,26,5,5,-4
1,5,6,-3,-2,4,-3,-4,26,5,4,-4
0,5,6,-2,-2,4,-3,-4,25,5,4,-5
0,5,6,-2,-2,4,-3,-4,25,5,4,-5
0,5,6,-2,-2,4,-3,-3,25,5,4,-5
0,5,6,-2,-2,5,-3,-3,25,5,4,-5
0,5,6,-1,-3,5,-2,-3,25,5,5,-5
-1,5,6,-1,-4,5,-2,-3,25,5,5,-5
-2,4,6,0,-4,5,-2,-3,24,5,5,-5
-2,3,6,0,-4,4,-2,-3,24,4,4,-5
-2,3,6,0,-4,4,-2,-2,24,4,4,-4
-2,3,6,0,-4,5,-1,-2,25,5,5,-4
-4,2,7,1,-6,5,-1,-1,26,5,5,-4
-5,3,8,2,-7,6,0,0,26,6,5,-4
-6,3,9,2,-7,6,0,0,26,6,5,-4
-8,2,10,3,-8,5,0,0,26,6,5,-4
-8,2,10,3,-9,6,0,0,26,6,5,-4
-8,3,11,3,-9,6,0,0,26,6,6,-3
-8,3,11,3,-9,7,0,0,26,6,6,-3
-7,3,11,2,-9,7,0,0,26,6,6,-3
-6,3,11,2,-8,7,0,0,26,6,6,-3
-6,3,10,1,-8,7,0,0,26,7,6,-3
-5,4,10,1,-7,7,0,0,26,7,6,-3
-4,4,9,0,-7,6,0,0,26,7,6,-4
-4,4,9,0,-6,6,0,0,26,7,6,-4
-4,4,9,0,-6,6,0,0,26,7,6,-3
-3,4,8,0,-6,6,0,-1,26,6,6,-3
-3,4,8,0,-6,6,0,-1,26,6,6,-3
-4,3,8,1,-6,6,1,-1,26,6,6,-3
-5,3,9,2,-7,6,1,-1,26,6,6,-3
-6,2,10,3,-8,6,1,-1,26,6,6,-3
-8,2,10,4,-9,6,1,-2,26,6,6,-4
-9,1,10,4,-10,5,1,-2,25,6,5,-4
-9,1,11,4,-10,6,1,-2,25,6,5,-4
-9,2,11,3,-10,6,1,-2,25,6,6,-3
-8,2,11,3,-10,6,1,-3,25,6,6,-3
-9,1,11,4,-10,6,1,-4,25,6,5,-4
-10,0,11,5,-11,5,1,-4,24,5,4,-4
-12,-1,11,7,-12,4,1,-5,23,5,4,-5
-12,-2,11,7,-12,4,1,-5,23,5,3,-5
-13,-1,11,7,-12,4,1,-5,23,5,3,-5
-13,-1,12,7,-12,5,1,-5,23,5,4,-4
-13,-1,12,7,-12,5,1,-5,23,5,4,-4
-11,0,12,5,-11,5,1,-5,23,5,5,-4
-10,1,12,4,-11,6,1,-5,23,5,5,-4
-8,1,11,3,-10,6,1,-5,23,6,5,-4
-7,2,10,2,-9,6,1,-5,23,6,5,-4
-6,2,9,2,-8,5,1,-5,23,6,5,-4
-7,1,9,3,-8,5,1,-5,23,6,5,-4
-8,1,10,4,-9,5,1,-5,24,6,5,-3
-10,0,10,5,-10,5,1,-5,24,6,5,-3
-11,0,11,5,-11,5,1,-5,24,6,5,-3
-12,0,11,6,-12,5,1,-5,23,6,5,-3
-13,-1,13,7,-13,5,2,-5,23,6,5,-3
-14,-1,14,8,-15,6,2,-4,24,6,5,-3
-15,-1,15,8,-15,7,3,-3,24,7,5,-3
-15,0,15,8,-15,7,3,-3,24,7,5,-3
-15,-1,15,8,-15,7,2,-3,24,6,5,-3
-17,-2,14,10,-15,6,2,-3,24,6,5,-3
-18,-4,14,11,-15,5,1,-4,23,6,5,-4
-17,-6,12,11,-14,3,1,-4,23,5,5,-4
-16,-6,11,10,-13,3,1,-4,23,5,4,-4
-14,-4,11,8,-12,4,1,-3,23,5,5,-4
-12,-1,11,6,-12,5,2,-2,24,6,5,-3
-11,0,11,6,-12,5,2,-1,24,6,5,-3
-12,0,12,6,-12,6,3,-1,24,6,5,-3
-12,0,12,6,-12,6,3,0,24,6,6,-2
-12,1,13,6,-12,6,4,0,24,7,6,-2
-12,1,13,6,-12,6,4,1,25,7,6,-2
-12,0,13,6,-12,6,4,1,25,6,6,-3
-12,0,13,6,-12,6,3,1,24,6,6,-3
-12,0,12,7,-12,5,3,1,24,6,6,-3
-12,-1,12,7,-12,5,3,1,24,6,6,-3
-12,-1,11,7,-12,5,3,1,23,6,5,-3
-12,-1,11,7,-11,5,3,1,23,6,5,-3
-13,-1,12,7,-12,5,3,1,24,6,5,-3
-14,-2,13,8,-13,5,3,2,24,6,5,-3
-15,-2,13,9,-14,5,3,2,23,6,5,-3
-15,-3,12,10,-14,4,2,2,23,6,4,-4
-17,-5,12,11,-15,3,2,2,22,5,4,-4
-18,-7,12,13,-15,3,2,2,22,5,3,-5
-19,-7,12,13,-16,3,2,2,22,5,3,-4
-17,-4,13,11,-15,5,2,2,22,5,4,-4
-14,-1,13,8,-13,6,3,3,23,6,5,-3
-12,0,12,6,-12,6,2,3,23,6,5,-3
-12,0,12,6,-12,5,2,2,23,5,5,-3
-12,0,12,6,-12,5,2,2,23,5,5,-3
-12,0,11,6,-12,5,2,2,23,5,5,-3
-12,-1,11,7,-12,5,2,2,23,5,5,-3
-13,-1,11,7,-12,5,1,1,23,5,5,-3
-13,-2,11,8,-12,4,1,1,22,5,4,-3
-12,-3,9,8,-11,3,0,0,22,4,4,-4
-12,-4,8,8,-11,2,0,0,21,4,3,-4
-12,-4,8,8,-11,1,0,0,20,4,3,-4
-12,-4,8,8,-10,1,0,-1,20,4,3,-4
-11,-3,8,7,-10,2,0,-1,20,4,3,-4
-12,-3,9,8,-10,2,0,-1,20,4,3,-3
-14,-4,10,9,-12,3,0,-1,21,4,3,-3
-15,-4,11,10,-13,3,0,-1,21,4,3,-3
-14,-4,10,9,-12,3,0,-1,20,4,3,-4
-14,-4,10,9,-12,3,0,-1,20,4,3,-4
-14,-5,10,10,-12,2,0,-2,19,3,3,-4
-14,-5,9,10,-12,2,0,-2,19,3,3,-4
-14,-5,10,10,-12,2,0,-3,19,3,3,-4
-14,-4,10,10,-12,2,0,-3,19,3,3,-4
-13,-3,10,8,-12,3,0,-4,19,3,3,-4
-12,-2,10,7,-11,4,0,-4,19,3,3,-4
-12,-2,10,7,-11,3,0,-4,19,3,3,-4
-12,-2,9,7,-10,3,-1,-4,19,2,3,-4
-12,-3,9,7,-10,3,-1,-4,19,2,3,-4
-12,-3,10,7,-11,4,0,-4,19,3,3,-3
-13,-3,10,8,-11,4,0,-4,19,3,3,-3
-13,-3,10,9,-11,3,-1,-4,19,2,3,-4
-13,-4,9,9,-11,1,-2,-5,18,2,2,-4
-13,-5,8,9,-11,1,-2,-5,18,2,2,-5
-13,-4,8,9,-11,1,-2,-5,18,2,2,-5
-13,-4,9,9,-12,2,-1,-4,19,2,3,-5
-13,-4,9,8,-11,2,-1,-4,19,2,3,-5
-13,-3,9,8,-11,3,-1,-4,19,3,3,-4
-12,-2,10,7,-11,4,0,-4,19,3,3,-4
-12,-2,10,7,-11,4,0,-4,19,3,4,-3
-13,-2,11,7,-11,4,0,-3,19,3,4,-4
-14,-3,11,8,-12,4,0,-3,19,3,3,-4
-15,-3,11,9,-13,3,0,-3,19,3,3,-5
-15,-4,10,10,-13,3,-1,-3,19,2,3,-5
-16,-4,11,10,-13,3,-1,-2,19,2,3,-5
-15,-4,12,9,-13,3,0,-2,19,3,3,-5
-14,-3,12,8,-13,4,0,-3,19,3,4,-4
-12,-2,11,8,-12,4,0,-3,19,3,4,-4
-12,-2,11,8,-11,4,0,-3,19,3,4,-4
-13,-2,11,8,-12,4,0,-3,19,3,4,-4
-14,-3,11,9,-12,4,0,-3,19,3,3,-4
-15,-4,10,10,-13,3,0,-3,18,2,3,-5
-15,-5,10,10,-13,2,-1,-3,17,2,2,-5
-13,-4,9,9,-12,3,-1,-3,17,2,2,-5
-11,-2,10,7,-11,4,-1,-2,18,2,2,-5
-11,-2,10,7,-11,4,-1,-2,18,2,2,-5
-11,-2,9,7,-10,4,-1,-2,18,2,2,-5
-11,-2,9,7,-10,3,-1,-1,18,2,2,-5
-11,-2,9,6,-10,4,0,-1,18,3,2,-4
-11,-1,10,6,-11,4,0,0,19,3,3,-4
-11,-1,10,6,-11,4,0,0,19,3,3,-4
-12,-2,10,7,-11,4,0,0,18,3,3,-4
-14,-4,10,9,-11,3,-1,0,17,3,2,-5
-14,-4,10,9,-12,3,-1,0,17,3,2,-6
-14,-4,10,9,-12,3,-1,1,18,3,2,-6
-13,-4,9,8,-11,3,-1,1,18,3,2,-6
-12,-3,9,8,-11,3,-1,2,18,3,2,-6
-13,-3,10,8,-11,3,0,2,19,3,3,-5
-13,-2,11,8,-12,4,0,3,20,4,3,-4
-13,-2,12,7,-12,5,0,4,20,5,4,-4
-13,-2,12,7,-12,5,0,4,20,5,4,-4
-13,-2,12,7,-12,5,0,4,20,5,3,-4
-13,-2,12,7,-12,5,0,5,19,5,3,-4
-14,-2,12,8,-13,5,0,5,19,5,3,-4
-15,-2,12,8,-14,5,0,5,20,5,3,-4
-15,-2,12,9,-14,5,0,5,20,4,3,-4
-15,-3,11,9,-13,4,0,5,19,4,3,-4
-14,-3,11,9,-12,4,0,5,19,4,3,-4
-14,-3,11,9,-12,4,0,5,18,4,3,-5
-14,-3,11,9,-12,4,0,5,18,4,3,-5
-14,-3,11,9,-12,4,0,5,18,4,3,-5
-15,-4,11,10,-13,3,-1,5,18,3,2,-5
-17,-5,11,11,-14,2,-1,5,18,3,2,-6
-17,-6,11,11,-14,2,-1,5,18,3,2,-6
-16,-5,11,10,-14,3,-1,5,18,3,2,-5
-15,-3,12,9,-14,4,-1,6,19,4,3,-4
-15,-1,13,8,-14,6,0,7,19,4,4,-4
-14,-1,12,7,-13,6,0,7,19,4,4,-4
-13,-1,11,7,-12,5,0,6,19,4,4,-4
-13,-1,11,7,-12,5,0,6,19,4,4,-4
-13,-1,11,7,-12,5,0,6,19,5,4,-4
-12,-1,11,6,-12,5,0,6,19,5,4,-4
-12,-1,10,6,-12,4,-1,6,19,5,4,-4
-12,-2,10,7,-12,4,-1,6,19,5,4,-4
-13,-2,10,8,-12,4,-1,6,19,5,4,-4
-14,-3,10,9,-12,4,-1,6,18,5,4,-4
-15,-3,10,9,-12,4,-2,5,18,4,3,-4
-15,-3,10,9,-12,4,-2,5,18,4,3,-4
-15,-3,10,9,-12,4,-2,5,18,4,3,-4
-14,-2,10,8,-12,4,-2,5,18,4,3,-4
-13,-2,10,7,-11,3,-2,4,17,4,2,-4
-12,-3,9,7,-10,2,-3,4,17,3,2,-5
-14,-5,8,9,-11,1,-3,3,16,3,1,-5
-16,-7,8,12,-12,0,-4,3,15,2,1,-6
-17,-8,8,13,-13,0,-4,2,15,2,1,-6
-16,-6,9,11,-12,2,-3,2,15,2,2,-6
-13,-3,9,8,-10,4,-3,3,16,3,3,-5
-11,-1,10,5,-10,5,-2,3,17,4,3,-4
-11,-1,10,5,-10,5,-2,3,17,4,3,-4
-11,-1,10,6,-10,4,-3,3,17,3,3,-5
-10,-2,9,6,-9,4,-3,3,17,3,3,-5
-8,-1,8,5,-8,4,-3,3,17,3,3,-5
-7,0,7,4,-7,4,-3,3,17,3,3,-5
-8,0,7,4,-7,4,-3,2,17,3,3,-5
-9,-1,7,5,-8,4,-3,2,17,3,3,-5
-11,-1,8,6,-10,4,-3,2,17,3,3,-5
-12,-2,9,7,-10,4,-3,2,17,3,3,-4
-12,-2,9,7,-11,4,-3,2,17,3,3,-4
-12,-2,10,7,-11,5,-3,2,18,3,3,-3
-12,-2,11,7,-11,4,-3,2,18,3,3,-3
-12,-3,10,8,-10,3,-3,2,17,3,3,-4
-11,-3,8,8,-9,2,-4,1,16,3,2,-4
-11,-4,6,8,-8,1,-5,0,15,2,2,-5
-11,-5,5,8,-8,0,-5,0,14,2,1,-6
-11,-5,5,8,-8,0,-6,0,14,1,1,-6
-12,-6,5,8,-8,0,-6,0,14,1,0,-7
-12,-6,6,9,-9,0,-6,0,14,1,0,-7
-12,-3,8,8,-10,2,-5,0,16,2,1,-5
-10,0,10,6,-10,5,-3,2,17,4,3,-4
-9,1,10,5,-10,6,-3,2,17,5,3,-3
-9,1,10,5,-10,6,-3,2,17,5,3,-3
-9,0,9,5,-10,5,-3,2,17,5,3,-3
-9,0,8,5,-9,5,-4,2,17,5,3,-3
-9,-1,7,5,-9,4,-4,2,17,4,2,-3
-9,-2,7,5,-9,4,-4,1,17,4,2,-4
-9,-2,7,6,-8,3,-4,1,17,4,2,-4
-9,-3,7,6,-8,3,-4,1,16,4,2,-5
-10,-4,6,7,-8,2,-5,0,15,3,1,-5
-11,-5,6,8,-8,1,-5,0,15,3,1,-6
-12,-5,6,8,-8,1,-5,0,15,3,1,-6
-11,-3,7,7,-9,2,-4,0,15,3,1,-5
-10,-2,8,6,-9,3,-4,0,16,3,2,-4
-9,-1,7,5,-8,4,-4,0,16,3,2,-4
-9,-2,7,6,-8,3,-4,0,16,3,2,-5
-10,-4,6,7,-9,2,-4,0,15,3,2,-5
-11,-5,6,9,-9,1,-5,0,15,3,1,-5
-12,-5,6,9,-9,1,-5,0,15,2,1,-5
-11,-3,6,7,-8,2,-5,0,15,2,1,-5
-10,-2,6,6,-8,2,-5,0,15,2,1,-5
-9,-1,6,5,-7,2,-5,0,15,2,1,-5
-8,-1,6,4,-7,3,-5,0,16,3,2,-5
-7,-1,6,4,-7,3,-5,0,16,3,2,-5
-8,-1,6,4,-7,3,-5,0,15,3,2,-5
-8,-1,7,5,-7,3,-4,0,15,4,2,-5
-8,-1,7,4,-7,3,-4,0,16,4,2,-4
-8,-1,7,4,-7,3,-4,0,16,3,2,-4
-8,-1,7,5,-7,3,-4,0,16,3,2,-4
-9,-1,7,5,-8,3,-4,0,16,3,2,-4
-9,-1,7,5,-8,3,-4,-1,16,3,2,-4
-9,-1,7,5,-8,3,-4,-1,16,2,2,-4
-8,-1,6,5,-7,3,-4,-2,16,2,2,-4
-7,-1,5,4,-6,2,-4,-2,15,2,2,-4
-7,-2,5,5,-6,2,-4,-3,15,2,2,-4
-8,-3,5,6,-7,2,-5,-4,15,1,2,-5
-9,-3,5,6,-7,2,-5,-4,15,1,1,-5
-9,-3,5,6,-7,1,-6,-5,15,1,1,-5
-9,-3,5,6,-7,1,-6,-5,15,1,1,-5
-10,-3,5,7,-8,1,-6,-6,15,1,1,-6
-10,-4,5,7,-8,1,-6,-6,15,0,1,-6
-10,-4,5,7,-7,1,-6,-6,14,0,1,-6
-10,-5,5,7,-7,1,-6,-7,14,0,1,-6
-9,-4,5,7,-7,1,-6,-7,14,0,1,-6
-9,-3,5,6,-6,2,-6,-7,14,0,1,-5
-8,-3,5,5,-6,2,-6,-7,14,0,1,-5
-7,-2,5,4,-6,1,-6,-7,14,0,1,-5
-7,-1,5,4,-5,2,-6,-6,15,0,1,-5
-7,-1,5,4,-6,2,-5,-5,15,0,2,-5
-7,-1,6,4,-6,3,-5,-5,15,0,2,-5
-7,-1,5,4,-6,3,-4,-5,15,0,2,-5
-6,-1,5,4,-6,3,-4,-5,16,0,2,-5
-6,-1,5,3,-6,3,-4,-5,16,0,2,-5
-6,-1,5,4,-6,2,-5,-6,15,0,2,-5
-6,-3,4,5,-6,1,-6,-7,15,0,1,-6
-7,-4,4,6,-6,0,-7,-8,14,0,1,-6
-7,-4,3,6,-5,0,-7,-9,14,-1,1,-7
-6,-4,3,5,-4,0,-7,-10,14,-1,0,-7
-6,-3,3,5,-4,0,-7,-11,14,-1,0,-7
-6,-3,3,5,-5,1,-7,-11,14,-1,0,-7
-7,-3,4,5,-6,1,-7,-11,14,-1,0,-7
-8,-4,4,6,-6,0,-7,-11,14,-1,1,-7
-8,-4,4,6,-6,0,-7,-11,13,-1,1,-7
-8,-4,4,6,-5,0,-7,-12,13,-1,1,-6
-8,-4,4,6,-6,0,-7,-12,13,-1,1,-6
-9,-5,5,7,-7,0,-7,-12,13,-2,0,-6
-9,-5,5,7,-7,0,-7,-12,13,-2,0,-6
-8,-5,4,7,-6,0,-7,-12,12,-2,0,-6
-7,-4,3,6,-6,0,-7,-12,12,-2,0,-6
-8,-3,4,5,-6,1,-7,-11,13,-2,1,-6
-9,-3,5,6,-7,2,-7,-11,13,-1,1,-6
-9,-4,5,6,-7,1,-7,-11,12,-1,0,-6
-9,-4,5,6,-6,1,-7,-10,12,-1,0,-7
-8,-3,5,6,-6,1,-7,-9,13,-1,1,-6
-8,-1,6,5,-6,3,-6,-8,14,0,1,-6
-7,0,6,4,-6,4,-5,-7,14,0,2,-5
-8,-1,6,5,-6,3,-5,-7,14,0,2,-5
-8,-1,6,5,-6,3,-6,-6,14,0,2,-5
-7,-1,6,5,-6,3,-6,-6,13,0,2,-5
-6,-1,5,4,-5,3,-6,-5,13,0,2,-5
-6,0,5,4,-5,3,-6,-5,14,0,2,-5
-5,0,5,3,-5,3,-5,-4,14,0,2,-5
-5,0,5,3,-4,3,-5,-4,14,0,2,-5
-4,0,4,3,-4,2,-5,-3,14,0,2,-5
-4,0,4,3,-4,2,-5,-3,14,0,2,-5
-4,1,5,2,-4,3,-5,-2,14,0,2,-5
-3,1,5,2,-4,3,-4,-1,15,0,2,-5
-3,2,6,1,-4,3,-4,0,15,1,2,-5
-3,2,6,1,-5,3,-3,0,16,1,2,-5
-4,2,7,1,-5,4,-3,1,16,1,2,-5
-5,2,8,1,-6,5,-2,2,17,2,3,-4
-6,2,9,2,-7,5,-2,3,17,2,3,-4
-7,2,9,3,-8,6,-1,3,17,2,3,-4
-6,3,9,2,-8,6,-1,4,17,2,4,-4
-6,4,9,2,-7,6,-1,4,17,2,4,-3
-5,4,8,1,-7,6,-1,4,17,2,4,-3
-4,4,8,0,-6,6,-1,5,17,2,4,-3
-3,5,8,0,-6,7,-1,5,18,3,4,-3
-3,6,8,-1,-6,7,-1,5,18,3,4,-3
-2,6,9,-2,-6,8,-1,5,18,4,5,-3
-2,7,9,-2,-6,9,-1,5,18,4,5,-2
-2,8,10,-3,-6,9,-1,6,19,5,6,-2
-1,9,10,-3,-6,10,-1,6,19,5,6,-2
-1,9,10,-3,-6,10,-1,7,19,5,6,-2
-1,9,10,-3,-6,10,-1,7,19,5,6,-2
-1,9,10,-3,-6,10,-1,7,18,5,6,-2
-1,8,10,-3,-6,9,-2,7,17,5,6,-3
-1,8,9,-3,-5,9,-4,6,16,4,5,-3
-1,7,8,-3,-5,8,-5,6,15,3,4,-4
0,7,8,-3,-4,8,-7,5,15,3,4,-4
-1,7,8,-2,-5,8,-8,4,14,2,3,-4
-2,6,8,-1,-6,7,-8,4,14,2,3,-4
-3,5,8,0,-7,7,-8,4,14,2,3,-3
-4,5,9,0,-7,8,-7,4,14,3,4,-2
-3,7,11,-2,-7,10,-6,5,15,5,5,-1
-2,10,12,-4,-7,11,-5,5,16,6,6,0
0,12,12,-5,-6,12,-4,6,17,7,7,0
0,13,13,-6,-6,13,-3,6,18,7,8,0
1,13,12,-7,-6,13,-3,7,19,8,8,1
1,14,12,-7,-6,13,-2,7,19,8,8,1
1,14,12,-7,-6,13,-2,8,20,8,8,1
2,13,11,-7,-5,13,-2,9,20,8,8,1
2,12,10,-6,-4,12,-2,9,19,8,8,0
1,10,9,-5,-4,10,-2,9,19,7,7,0
0,8,9,-4,-5,9,-2,9,18,7,6,-1
0,8,8,-4,-5,9,-2,9,18,7,6,-1
-1,7,8,-3,-5,8,-2,9,17,6,5,-2
-2,6,7,-2,-5,8,-2,9,17,6,5,-2
-3,5,7,-1,-5,7,-2,9,17,5,4,-3
-3,4,7,0,-5,6,-2,10,17,5,4,-3
-3,3,6,0,-5,5,-2,10,17,5,4,-3
-3,2,5,0,-4,4,-2,10,17,5,3,-4
-2,1,4,0,-3,3,-2,10,16,5,3,-5
-3,0,3,1,-3,1,-2,9,15,4,2,-5
-5,-1,2,3,-4,0,-2,9,15,4,2,-6
-5,-2,2,3,-4,0,-2,8,15,4,2,-6
-3,0,2,2,-2,1,-2,8,16,4,2,-6
0,2,1,-1,0,2,-2,8,16,4,3,-5
2,3,0,-2,0,2,-2,8,16,4,3,-5
2,3,0,-2,1,2,-2,8,16,4,2,-5
2,3,0,-2,1,2,-3,8,16,4,2,-5
2,4,1,-2,0,2,-2,8,16,4,3,-4
0,4,3,-2,-1,3,-2,8,17,5,3,-4
-1,3,4,-1,-2,4,-1,8,17,6,3,-4
-1,3,4,-1,-3,4,-1,8,17,6,3,-4
-1,2,4,0,-3,3,-1,8,17,6,3,-4
-2,1,3,0,-3,3,-2,7,17,5,3,-4
-3,0,3,1,-3,2,-2,7,16,5,2,-4
-3,0,3,2,-3,2,-2,7,15,4,2,-5
-2,0,2,1,-2,2,-2,7,15,4,2,-5
-1,0,2,1,-1,1,-2,7,15,5,2,-5
-1,0,1,1,-1,1,-2,6,16,5,2,-5
-1,0,1,1,-1,1,-2,6,16,5,2,-5
-1,0,0,1,-1,0,-3,6,16,4,1,-5
-2,-1,0,1,-1,0,-4,6,15,4,1,-6
-2,-3,-1,2,-1,-1,-4,5,14,4,0,-6
-2,-3,-1,2,0,-2,-4,5,14,4,0,-6
0,-2,-2,1,1,-1,-4,6,14,4,0,-6
1,-1,-1,0,1,0,-3,6,14,4,0,-6
1,0,0,0,1,0,-3,7,14,4,0,-6
1,0,0,0,0,1,-3,7,14,4,0,-6
0,0,0,0,0,1,-3,8,15,4,0,-6
0,1,1,0,-1,2,-2,8,15,4,1,-5
-1,1,1,0,-1,2,-2,9,15,5,1,-5
-1,0,1,0,-1,1,-3,9,15,5,1,-5
-1,0,1,0,-1,1,-3,9,14,4,1,-5
-2,-1,1,1,-1,0,-4,8,14,4,0,-6
-2,-2,0,2,-1,0,-4,8,13,4,0,-6
-1,-1,0,1,-1,0,-4,8,13,4,0,-6
0,0,0,0,0,1,-4,8,13,4,0,-6
0,1,0,-1,0,1,-3,8,14,4,1,-6
0,1,0,0,0,1,-3,8,13,5,1,-6
0,0,0,0,0,1,-3,8,13,5,1,-6
0,0,0,0,0,0,-4,8,12,5,1,-6
0,0,0,0,0,0,-4,8,12,5,1,-6
0,0,-1,0,1,0,-4,8,11,5,1,-6
0,0,-1,0,1,0,-5,8,10,4,0,-6
0,-1,-1,1,1,-1,-5,7,10,3,-1,-7
0,-2,-2,2,1,-2,-5,7,9,3,-1,-7
0,-3,-2,2,1,-2,-5,7,9,3,-1,-7
0,-3,-3,1,1,-2,-5,8,9,3,-1,-7
0,-2,-3,1,1,-2,-5,8,10,3,-1,-7
1,-2,-3,1,1,-2,-5,8,10,3,-1,-7
1,-2,-3,1,1,-2,-5,9,10,3,-1,-7
1,-3,-3,1,1,-2,-6,9,9,2,-1,-7
0,-4,-3,2,1,-3,-6,9,9,2,-1,-7
-1,-5,-4,3,1,-4,-7,9,8,1,-2,-8
-1,-6,-5,4,2,-5,-8,8,8,1,-2,-8
0,-6,-5,3,3,-5,-8,8,8,1,-2,-8
1,-4,-5,1,3,-4,-8,9,8,1,-2,-8
2,-3,-5,0,3,-4,-8,9,8,1,-2,-8
3,-3,-6,0,4,-4,-8,9,8,1,-2,-8
3,-3,-6,0,4,-4,-8,9,8,1,-2,-8
3,-3,-6,0,4,-4,-8,9,8,1,-2,-8
2,-3,-5,0,4,-4,-8,9,8,1,-2,-8
2,-3,-5,0,3,-3,-8,9,8,1,-2,-8
2,-3,-5,0,3,-3,-8,9,7,1,-2,-8
1,-4,-5,1,3,-4,-8,9,7,1,-2,-8
0,-5,-6,3,3,-5,-9,8,7,1,-3,-8
0,-5,-6,3,2,-6,-9,7,7,1,-3,-8
0,-5,-6,3,2,-5,-9,7,7,1,-2,-8
0,-4,-6,2,2,-5,-9,7,7,1,-2,-8
1,-3,-6,1,3,-4,-9,6,7,1,-2,-8
2,-3,-6,1,4,-4,-9,6,7,1,-2,-8
2,-3,-6,1,4,-4,-9,6,7,1,-2,-8
2,-3,-6,1,3,-4,-9,6,7,1,-2,-8
1,-4,-6,2,3,-5,-9,5,7,1,-2,-8
0,-6,-6,4,2,-6,-10,5,6,0,-3,-9
-2,-8,-7,6,2,-7,-10,4,5,0,-3,-9
-2,-9,-7,7,2,-8,-11,3,4,0,-4,-9
-1,-9,-7,5,3,-8,-11,3,4,0,-4,-9
2,-6,-8,2,5,-7,-10,4,5,0,-3,-9
4,-5,-9,0,6,-6,-10,4,5,1,-3,-9
4,-4,-9,0,6,-6,-10,5,5,1,-3,-9
4,-4,-9,0,5,-6,-10,5,5,1,-3,-9
3,-5,-9,0,5,-6,-10,5,5,1,-3,-9
4,-4,-9,0,6,-6,-10,5,5,1,-3,-8
4,-4,-9,0,6,-5,-10,6,5,2,-2,-8
3,-4,-8,0,6,-5,-10,6,5,1,-2,-8
3,-5,-8,1,5,-6,-10,6,4,1,-2,-8
3,-5,-9,2,5,-6,-11,5,4,0,-3,-8
2,-5,-8,2,5,-6,-11,5,4,0,-3,-8
2,-5,-8,2,4,-6,-11,5,4,1,-2,-8
2,-4,-8,2,4,-6,-11,5,3,1,-2,-8
3,-4,-8,1,5,-6,-11,5,3,1,-2,-8
4,-4,-9,0,6,-6,-11,5,3,1,-2,-8
4,-4,-9,0,6,-6,-11,5,2,0,-2,-8
4,-5,-9,1,6,-7,-11,5,2,0,-3,-8
4,-5,-10,1,7,-8,-12,4,1,0,-3,-9
3,-6,-11,2,7,-8,-13,3,1,-1,-4,-9
2,-8,-11,3,7,-9,-14,3,0,-1,-5,-10
1,-9,-11,4,6,-10,-14,3,0,-1,-5,-10
0,-9,-10,5,5,-10,-14,3,0,-1,-5,-10
1,-7,-10,3,6,-9,-13,4,1,-1,-4,-9
4,-6,-11,1,8,-8,-13,4,1,-1,-4,-9
6,-6,-12,0,9,-8,-13,4,0,-1,-4,-9
8,-5,-12,-1,10,-8,-13,4,0,-1,-4,-9
8,-4,-12,-1,9,-8,-13,4,1,-1,-4,-9
6,-5,-11,0,8,-8,-14,4,1,0,-4,-9
4,-6,-10,1,7,-8,-14,4,1,0,-4,-9
2,-7,-9,3,6,-8,-14,4,1,0,-4,-9
1,-7,-9,3,6,-8,-14,4,1,0,-4,-9
2,-7,-10,3,6,-8,-14,4,1,0,-3,-8
3,-6,-10,2,6,-8,-13,5,2,1,-3,-8
4,-5,-10,1,6,-7,-13,5,2,1,-3,-8
4,-5,-10,1,6,-7,-13,5,1,1,-3,-8
4,-5,-9,0,6,-7,-13,5,1,2,-3,-8
4,-4,-9,0,6,-7,-13,5,1,2,-2,-7
3,-4,-8,0,6,-6,-12,6,1,2,-2,-7
4,-4,-9,0,6,-6,-12,6,1,2,-3,-7
4,-4,-9,0,7,-7,-12,7,1,2,-3,-8
4,-5,-10,1,7,-7,-12,7,1,2,-3,-8
4,-6,-11,1,7,-8,-11,7,1,2,-3,-8
5,-6,-11,1,7,-8,-10,7,2,2,-3,-8
6,-5,-11,0,8,-8,-8,7,4,4,-2,-7
8,-4,-12,-1,9,-8,-6,7,6,6,-1,-7
9,-4,-13,-2,11,-8,-2,8,9,8,0,-6
10,-5,-15,-1,12,-9,2,8,12,9,0,-6
9,-8,-17,0,13,-12,6,8,15,10,1,-5
9,-10,-20,1,14,-15,10,8,18,12,3,-5
12,-10,-22,0,17,-16,13,9,23,17,6,-2
18,-5,-23,-6,20,-14,16,9,31,24,13,3
26,4,-22,-15,24,-9,20,8,42,36,23,11
35,16,-19,-25,26,-2,24,6,56,50,36,21
40,28,-13,-33,26,7,25,1,71,66,50,33
43,40,-4,-41,24,18,19,-6,86,83,67,46
46,53,5,-49,21,29,8,-15,100,101,83,59
50,65,15,-57,18,40,-8,-26,111,117,99,72
53,77,23,-65,16,50,-29,-37,118,130,113,84
56,88,31,-71,13,59,-52,-49,120,139,124,95
55,96,41,-76,7,68,-77,-59,116,142,131,102
50,103,52,-77,-1,77,-101,-68,106,140,133,105
44,107,61,-75,-9,84,-118,-73,93,133,130,104
39,105,65,-71,-13,84,-127,-75,79,121,120,97
33,99,65,-65,-16,81,-128,-73,66,107,107,87
26,89,62,-57,-18,76,-123,-69,54,92,92,74
18,77,58,-47,-19,68,-115,-62,41,75,74,59
10,63,53,-37,-20,58,-106,-54,26,57,56,43
4,51,47,-27,-21,49,-96,-45,11,40,39,28
-1,41,42,-19,-22,41,-88,-36,-3,26,25,16
-6,32,38,-13,-22,35,-79,-27,-12,17,16,8
-8,25,33,-8,-21,29,-69,-20,-15,11,10,3
-7,21,28,-6,-18,25,-59,-13,-14,9,6,0
-4,18,22,-6,-13,21,-50,-7,-13,7,4,-2
-2,16,17,-6,-9,17,-41,-1,-12,5,2,-4
-1,13,14,-5,-7,14,-32,4,-10,4,0,-5
-1,11,12,-5,-6,12,-24,9,-8,4,0,-6
-1,9,9,-4,-5,9,-18,14,-7,4,-1,-7
-1,6,7,-2,-4,6,-12,18,-6,4,-2,-8
-2,3,5,0,-3,3,-8,21,-5,3,-3,-9
-2,1,3,1,-3,2,-6,23,-6,2,-5,-11
-3,0,3,2,-3,1,-5,25,-7,0,-6,-12
-6,-1,3,4,-4,1,-4,26,-8,-1,-7,-12
-8,-2,5,6,-7,2,-2,27,-9,-2,-8,-13
-10,-2,7,6,-8,2,-1,29,-10,-3,-8,-13
-9,-2,6,6,-8,2,-1,30,-10,-4,-9,-13
-8,-2,4,5,-6,1,0,32,-11,-5,-10,-14
-7,-3,2,5,-5,0,0,33,-12,-6,-11,-15
-7,-5,1,6,-5,-2,0,33,-13,-7,-13,-17
-8,-7,0,8,-4,-3,0,32,-14,-9,-14,-18
-9,-9,0,10,-4,-4,-1,32,-15,-10,-16,-19
-10,-10,0,11,-4,-5,-1,32,-16,-11,-16,-19
-10,-10,0,11,-4,-5,0,32,-17,-11,-16,-19
-10,-10,-1,10,-4,-6,0,33,-17,-11,-16,-20
-9,-10,-2,9,-4,-6,0,33,-17,-12,-17,-20
-8,-10,-2,9,-4,-6,0,33,-17,-12,-17,-20
-7,-9,-2,8,-4,-6,1,34,-17,-13,-17,-20
-7,-8,-1,8,-4,-5,1,34,-17,-13,-17,-20
-8,-8,0,9,-4,-4,2,34,-17,-13,-17,-20
-9,-9,0,9,-4,-5,2,34,-17,-13,-18,-21
-10,-9,0,10,-4,-5,2,34,-17,-14,-18,-21
-10,-10,-1,10,-4,-6,2,34,-17,-14,-19,-21
-11,-11,-1,11,-5,-6,2,35,-17,-14,-19,-21
-12,-13,-1,13,-6,-7,2,35,-18,-14,-19,-22
-13,-14,-1,14,-6,-7,2,35,-18,-15,-20,-22
-12,-14,-2,13,-5,-8,2,35,-18,-15,-20,-22
-10,-13,-3,12,-3,-8,2,34,-19,-16,-21,-22
-9,-12,-3,11,-2,-8,2,34,-19,-16,-21,-23
-9,-13,-3,11,-2,-8,2,34,-19,-17,-21,-23
-10,-13,-3,12,-3,-9,2,34,-19,-17,-21,-24
-11,-14,-4,12,-4,-9,2,34,-20,-17,-22,-24
-11,-15,-4,13,-4,-10,2,34,-20,-18,-22,-24
-11,-14,-4,13,-4,-9,2,34,-21,-18,-22,-24
-11,-13,-4,13,-4,-8,3,34,-21,-17,-22,-24
-10,-13,-4,12,-4,-8,3,34,-21,-17,-22,-24
-10,-12,-4,11,-3,-8,3,34,-21,-17,-22,-24
-9,-12,-4,11,-3,-8,3,35,-21,-17,-22,-24
-9,-12,-4,11,-3,-8,4,35,-21,-17,-22,-24
-9,-12,-4,11,-3,-8,4,35,-22,-18,-22,-24
-9,-12,-4,11,-3,-8,4,36,-22,-18,-22,-24
-10,-12,-4,11,-4,-7,5,37,-22,-18,-22,-24
-11,-12,-3,12,-5,-7,5,38,-22,-18,-22,-24
-11,-12,-3,12,-4,-8,6,38,-22,-18,-22,-24
-10,-12,-3,11,-4,-8,6,39,-23,-18,-22,-24
-11,-13,-3,12,-4,-8,6,39,-23,-18,-22,-24
-12,-13,-2,13,-4,-8,7,40,-24,-18,-22,-24
-12,-13,-2,13,-5,-7,7,41,-24,-18,-22,-25
-12,-13,-2,13,-6,-7,7,42,-24,-19,-22,-25
-12,-13,-2,13,-6,-7,7,44,-24,-19,-22,-25
-11,-13,-2,13,-5,-7,7,45,-24,-19,-22,-25
-11,-12,-2,12,-5,-7,8,46,-24,-20,-22,-25
-11,-13,-2,12,-5,-7,8,46,-24,-20,-23,-25
-11,-13,-2,13,-5,-7,8,47,-24,-21,-23,-25
-12,-14,-3,13,-5,-8,8,47,-25,-21,-24,-25
-13,-14,-2,14,-5,-8,8,47,-25,-22,-24,-25
-14,-14,-1,15,-6,-8,9,48,-25,-22,-23,-25
-14,-14,-1,15,-7,-8,9,48,-24,-22,-23,-25
-14,-14,-1,14,-7,-8,10,49,-24,-22,-23,-25
-13,-13,-1,14,-6,-7,11,49,-24,-22,-23,-25
-13,-12,0,13,-7,-6,12,50,-23,-21,-23,-24
-12,-11,0,12,-7,-5,12,51,-23,-21,-22,-24
-11,-10,0,11,-6,-5,13,51,-23,-21,-22,-24
-10,-10,0,10,-6,-4,13,51,-23,-21,-22,-24
-10,-9,0,10,-5,-4,14,51,-23,-21,-22,-24
-10,-9,0,10,-5,-4,14,51,-23,-21,-22,-24
-11,-9,1,11,-7,-4,15,51,-23,-21,-22,-24
-12,-9,3,11,-8,-4,16,52,-22,-21,-22,-23
-12,-9,3,11,-8,-3,17,52,-22,-20,-21,-23
-12,-8,3,10,-8,-2,18,52,-21,-20,-21,-22
-12,-7,4,9,-8,-2,19,52,-21,-20,-21,-22
-12,-7,4,10,-8,-1,20,52,-20,-20,-21,-22
-13,-7,5,10,-9,-1,20,52,-20,-20,-21,-22
-13,-7,5,10,-9,-1,21,52,-20,-20,-21,-22
-13,-7,5,10,-9,-1,21,52,-20,-20,-21,-22
-13,-7,5,10,-9,-1,21,51,-21,-20,-21,-23
-13,-6,5,10,-9,-1,22,50,-21,-20,-21,-23
-13,-6,6,10,-9,0,23,49,-21,-20,-21,-23
-13,-7,6,10,-10,0,24,49,-21,-20,-21,-23
-14,-7,7,10,-10,0,25,49,-20,-20,-21,-23
-13,-6,8,9,-10,0,26,49,-20,-20,-20,-22
-12,-4,8,8,-10,1,27,48,-20,-20,-20,-22
-11,-2,8,6,-9,2,28,48,-19,-20,-19,-21
-12,-3,8,7,-10,2,29,47,-19,-20,-19,-21
-14,-5,8,9,-11,1,29,46,-19,-20,-19,-22
-17,-7,9,12,-13,1,29,45,-19,-21,-19,-22
-18,-7,10,12,-14,1,30,44,-19,-21,-19,-22
-16,-4,11,10,-14,3,31,44,-19,-21,-18,-22
-14,-1,12,8,-13,5,31,43,-18,-20,-18,-21
-12,1,13,6,-13,6,32,43,-17,-20,-17,-21
-10,3,13,4,-12,7,33,43,-16,-19,-16,-20
-11,4,14,4,-13,8,34,43,-15,-18,-16,-20
-12,4,16,4,-14,10,35,44,-14,-17,-15,-19
-12,5,17,4,-14,11,36,44,-13,-16,-15,-19
-12,6,18,3,-14,11,37,44,-12,-16,-14,-18
-11,7,18,3,-14,12,37,44,-12,-16,-14,-18
-12,7,18,3,-15,12,38,44,-11,-16,-13,-18
-13,7,20,3,-16,13,38,45,-11,-15,-13,-17
-14,7,21,3,-18,14,39,45,-10,-15,-12,-17
-14,7,22,3,-19,14,39,45,-10,-14,-12,-17
-15,8,22,3,-19,15,40,45,-9,-14,-11,-16
-15,8,23,3,-19,15,40,45,-9,-13,-11,-16
-15,8,23,3,-19,15,41,45,-8,-13,-10,-16
-15,9,23,3,-19,16,41,45,-8,-12,-10,-15
-15,10,24,3,-19,17,41,46,-7,-12,-9,-15
-16,10,25,3,-20,17,41,46,-7,-11,-9,-15
-16,10,25,3,-21,17,41,46,-7,-11,-9,-15
-16,10,25,3,-21,17,41,46,-7,-11,-9,-14
-16,11,26,3,-22,18,41,46,-6,-11,-8,-14
-16,13,27,1,-22,20,42,46,-5,-10,-7,-13
-15,14,28,0,-21,21,42,46,-5,-8,-6,-12
-14,15,29,0,-21,22,42,46,-5,-7,-5,-12
-13,17,29,-1,-21,23,42,46,-4,-7,-4,-11
-12,18,29,-3,-21,24,42,46,-4,-6,-4,-10
-10,20,29,-4,-20,24,42,45,-4,-6,-3,-10
-10,20,29,-5,-20,24,41,45,-4,-6,-3,-10
-9,20,29,-5,-20,24,41,44,-3,-6,-2,-10
-9,20,29,-5,-20,24,40,42,-3,-6,-2,-10
-9,21,30,-6,-20,25,40,41,-3,-6,-2,-9
-9,22,31,-6,-20,27,40,41,-3,-5,-1,-8
-10,23,33,-6,-21,28,40,40,-2,-4,0,-7
-11,24,33,-6,-22,29,40,40,-2,-3,1,-7
-10,24,33,-7,-21,29,39,38,-2,-3,1,-6
-9,25,33,-8,-21,29,38,37,-2,-3,2,-6
-8,26,33,-9,-21,30,38,36,-2,-2,3,-5
-8,27,34,-9,-21,30,37,35,-1,-2,4,-4
-9,27,35,-9,-22,31,37,35,-1,-1,4,-3
-10,27,36,-8,-23,31,37,34,-1,-1,5,-2
-10,27,37,-7,-24,31,36,32,-1,0,5,-1
-11,26,37,-7,-24,31,34,31,-2,0,5,-1
-12,25,37,-6,-24,31,32,29,-2,-1,5,-1
-13,24,37,-5,-25,30,31,27,-2,-1,5,-1
-11,25,36,-7,-24,30,30,25,-2,-1,6,-1
-8,28,36,-10,-22,32,30,24,-1,0,8,0
-6,30,36,-12,-21,33,30,23,-1,1,9,0
-4,32,35,-14,-20,33,30,22,-1,1,9,1
-3,32,35,-14,-19,33,29,21,-1,1,10,2
-3,33,35,-15,-19,33,28,19,0,2,10,3
-2,34,35,-16,-19,35,27,18,0,3,12,4
-1,36,36,-17,-19,36,26,17,2,4,13,6
-1,36,36,-17,-19,36,26,15,3,5,14,7
-1,35,36,-17,-18,35,25,14,3,5,15,7
-1,34,35,-17,-18,35,25,12,3,5,15,7
0,34,34,-17,-18,34,24,11,3,5,15,8
1,34,33,-18,-17,34,24,10,4,5,16,8
1,34,32,-18,-16,33,23,9,4,6,16,9
2,34,32,-18,-15,33,22,8,5,6,16,9
3,34,31,-18,-14,33,21,7,6,7,16,9
4,35,30,-19,-13,32,20,6,7,8,17,10
5,35,29,-19,-12,32,19,4,7,8,17,11
5,33,28,-19,-11,31,19,3,8,9,18,11
6,32,26,-19,-10,29,18,1,8,9,18,11
8,32,24,-20,-8,27,17,0,8,8,18,11
8,32,22,-20,-7,26,16,-2,8,9,18,11
8,32,22,-20,-7,27,15,-3,9,10,19,12
8,32,23,-20,-7,27,15,-4,10,10,20,13
9,32,22,-20,-6,27,15,-6,11,11,20,14
11,32,20,-21,-5,26,14,-7,11,11,20,14
12,32,19,-22,-3,25,13,-8,12,11,20,14
13,31,17,-22,-2,24,12,-9,12,10,20,14
14,30,15,-22,-1,22,11,-11,12,10,20,13
14,29,14,-21,0,21,11,-13,12,10,19,13
14,27,12,-20,1,19,9,-14,11,9,18,12
14,25,10,-20,2,17,7,-16,9,8,17,11
16,25,9,-20,4,16,5,-17,9,7,16,10
17,24,7,-20,5,16,4,-17,8,6,16,10
17,24,6,-20,6,15,2,-18,8,6,15,10
18,22,4,-20,7,13,1,-19,7,5,15,9
18,21,2,-19,7,12,0,-20,7,4,14,9
17,20,2,-19,7,11,0,-20,7,4,14,9
17,20,2,-19,7,10,0,-21,7,4,14,9
17,19,1,-19,8,10,-1,-21,7,4,14,9
18,18,0,-18,9,8,-2,-21,6,3,13,8
17,16,-1,-16,9,7,-3,-21,6,3,12,7
17,15,-2,-15,10,6,-3,-21,6,3,11,6
17,14,-3,-15,10,5,-3,-20,5,2,11,6
17,14,-4,-15,11,4,-4,-19,5,2,10,6
17,13,-5,-15,11,3,-4,-18,4,1,10,6
17,11,-6,-15,12,2,-4,-17,3,1,9,5
16,11,-7,-14,11,1,-4,-15,2,0,8,5
16,10,-7,-13,12,1,-3,-13,2,0,7,4
16,10,-7,-13,12,0,-3,-12,2,0,7,4
16,9,-7,-11,11,0,-3,-10,2,0,6,4
15,7,-8,-10,11,0,-3,-9,1,-1,5,3
15,6,-8,-10,12,-1,-4,-9,0,-2,4,2
14,5,-9,-10,12,-2,-4,-8,0,-2,4,1
13,4,-9,-9,11,-3,-4,-8,0,-3,3,0
12,3,-10,-8,11,-4,-4,-7,-1,-3,3,0
12,2,-11,-7,12,-5,-4,-6,-1,-4,2,-1
13,1,-12,-6,13,-6,-4,-6,-1,-4,2,-1
13,0,-13,-5,13,-7,-4,-5,-1,-4,1,-1
13,0,-13,-5,13,-7,-4,-5,-1,-4,1,-1
13,-1,-14,-5,13,-8,-4,-5,-2,-5,0,-2
13,-1,-15,-5,14,-8,-4,-5,-3,-6,0,-3
13,-3,-16,-5,14,-9,-5,-6,-4,-7,-1,-4
14,-3,-17,-5,15,-10,-5,-7,-4,-7,-2,-4
16,-2,-18,-7,16,-10,-5,-8,-5,-7,-2,-4
16,-1,-19,-7,17,-10,-5,-9,-5,-7,-2,-4
17,-1,-18,-7,17,-10,-5,-10,-5,-7,-1,-4
17,0,-17,-8,16,-9,-5,-10,-4,-7,-1,-4
16,0,-16,-7,15,-8,-4,-9,-4,-6,0,-3
14,-1,-15,-6,15,-8,-3,-9,-3,-6,0,-3
14,-1,-15,-6,14,-8,-3,-9,-3,-7,-1,-3
13,-2,-16,-6,14,-9,-2,-9,-3,-7,-1,-3
13,-2,-16,-6,15,-9,-2,-9,-3,-7,-2,-3
13,-3,-17,-5,15,-10,-2,-9,-3,-7,-2,-4
13,-3,-17,-5,15,-10,-2,-9,-3,-7,-2,-4
13,-3,-17,-5,15,-10,-2,-9,-3,-7,-2,-4
14,-2,-17,-5,16,-10,-2,-8,-3,-7,-2,-4
14,-2,-17,-6,16,-10,-2,-8,-3,-7,-2,-4
14,-2,-17,-6,16,-10,-2,-8,-3,-7,-2,-4
14,-2,-17,-6,16,-10,-2,-7,-3,-7,-2,-4
15,-2,-18,-6,17,-10,-2,-7,-3,-7,-2,-4
15,-2,-18,-6,17,-10,-1,-7,-3,-8,-2,-4
15,-2,-18,-6,17,-10,-1,-6,-3,-8,-2,-4
16,-3,-19,-6,17,-11,-1,-6,-3,-8,-3,-4
15,-4,-19,-5,17,-12,-1,-5,-4,-9,-3,-5
13,-6,-19,-4,16,-12,-2,-5,-4,-9,-3,-5
11,-7,-18,-3,15,-13,-2,-4,-4,-10,-3,-5
10,-7,-18,-2,15,-12,-2,-4,-4,-10,-3,-5
10,-6,-17,-2,14,-11,-1,-4,-3,-9,-3,-5
11,-5,-17,-3,14,-11,0,-4,-3,-9,-3,-5
11,-5,-17,-3,14,-11,0,-4,-4,-9,-3,-5
10,-6,-17,-2,13,-11,-1,-5,-4,-10,-3,-6
10,-6,-17,-2,13,-11,-1,-6,-5,-11,-3,-6
11,-6,-17,-3,14,-11,-1,-7,-5,-11,-3,-5
13,-5,-18,-4,15,-11,-1,-8,-5,-11,-3,-5
13,-4,-18,-5,16,-11,-1,-9,-5,-11,-3,-5
13,-4,-19,-5,17,-11,-2,-11,-6,-11,-3,-5
14,-3,-19,-5,17,-11,-2,-13,-6,-12,-3,-5
14,-3,-18,-5,17,-11,-2,-14,-6,-12,-3,-5
13,-4,-18,-4,16,-11,-2,-16,-7,-12,-4,-5
12,-4,-17,-3,14,-11,-2,-17,-7,-12,-4,-5
11,-5,-16,-3,13,-11,-2,-18,-7,-12,-4,-5
11,-5,-16,-3,13,-10,-2,-19,-7,-12,-4,-5
11,-5,-17,-4,14,-11,-2,-19,-7,-13,-4,-6
12,-5,-18,-4,14,-11,-2,-20,-7,-13,-4,-6
12,-5,-18,-3,14,-12,-2,-20,-7,-14,-4,-6
11,-5,-18,-3,14,-12,-2,-19,-8,-14,-4,-6
11,-5,-18,-3,14,-12,-2,-18,-8,-14,-4,-6
11,-5,-18,-3,15,-12,-2,-17,-8,-14,-5,-6
11,-6,-18,-3,15,-12,-2,-15,-9,-14,-5,-6
10,-7,-18,-2,15,-13,-2,-13,-9,-14,-5,-6
10,-8,-19,-1,15,-13,-3,-11,-10,-15,-5,-6
9,-9,-19,0,15,-14,-3,-9,-11,-16,-6,-7
9,-9,-19,0,14,-14,-3,-8,-11,-16,-6,-7
9,-9,-19,0,14,-14,-3,-6,-11,-16,-6,-7
10,-8,-19,-1,15,-14,-2,-5,-11,-16,-6,-7
11,-8,-19,-2,15,-14,-2,-3,-11,-15,-6,-6
11,-7,-19,-2,15,-13,-2,-2,-11,-15,-6,-6
11,-6,-19,-3,16,-12,-2,0,-11,-15,-5,-6
12,-5,-19,-4,16,-12,-1,0,-11,-15,-5,-6
13,-5,-18,-4,16,-11,-1,1,-11,-15,-5,-6
12,-5,-17,-4,15,-11,-1,2,-11,-15,-5,-6
12,-5,-17,-3,14,-11,-1,2,-11,-15,-5,-6
11,-5,-17,-3,14,-12,-1,2,-11,-15,-5,-6
10,-7,-18,-2,14,-13,-1,1,-11,-15,-5,-6
10,-8,-19,-1,15,-13,-2,1,-11,-16,-5,-6
12,-7,-20,-2,16,-13,-3,0,-12,-16,-6,-6
13,-6,-20,-3,17,-13,-2,0,-12,-15,-5,-6
13,-5,-19,-3,16,-12,-2,0,-11,-15,-5,-5
13,-5,-19,-3,16,-12,-2,-2,-11,-15,-5,-5
12,-5,-19,-3,16,-13,-2,-3,-11,-16,-5,-5
11,-6,-18,-3,15,-13,-2,-4,-11,-16,-5,-5
11,-6,-18,-3,15,-13,-2,-5,-10,-16,-5,-5
10,-7,-18,-2,14,-13,-2,-6,-11,-16,-5,-5
9,-8,-18,-1,14,-13,-2,-8,-12,-16,-5,-5
9,-8,-17,0,13,-13,-2,-9,-12,-16,-5,-5
9,-8,-18,0,14,-13,-2,-11,-12,-16,-5,-5
11,-7,-18,-1,15,-13,-2,-13,-12,-16,-5,-5
11,-7,-18,-2,16,-13,-3,-15,-12,-16,-5,-5
10,-7,-18,-2,15,-12,-3,-17,-12,-16,-5,-5
11,-6,-18,-2,15,-12,-3,-19,-12,-16,-5,-5
12,-6,-18,-3,16,-12,-3,-20,-13,-16,-5,-5
12,-6,-19,-2,16,-13,-3,-21,-13,-17,-6,-5
10,-8,-19,0,15,-14,-3,-22,-13,-17,-6,-6
6,-11,-18,3,12,-15,-4,-23,-14,-18,-7,-6
3,-14,-17,6,11,-16,-5,-23,-14,-18,-7,-7
4,-14,-18,5,11,-16,-5,-24,-14,-18,-7,-7
7,-10,-18,1,12,-14,-4,-23,-13,-17,-6,-6
11,-6,-17,-2,14,-12,-3,-23,-13,-16,-5,-5
12,-4,-17,-4,15,-11,-3,-23,-13,-16,-5,-4
12,-4,-18,-4,15,-11,-3,-23,-13,-16,-5,-4
12,-5,-18,-4,15,-12,-3,-23,-12,-16,-5,-4
12,-5,-19,-3,15,-12,-3,-22,-12,-16,-5,-4
12,-6,-18,-3,15,-12,-3,-21,-12,-16,-5,-4
11,-6,-18,-2,15,-12,-3,-20,-12,-16,-5,-4
10,-6,-18,-2,15,-12,-3,-20,-12,-16,-5,-4
10,-6,-18,-2,15,-13,-4,-20,-13,-16,-5,-5
10,-7,-18,-2,14,-13,-4,-20,-13,-16,-6,-5
9,-8,-17,0,13,-13,-4,-19,-13,-16,-6,-5
8,-8,-17,0,12,-13,-4,-19,-13,-16,-6,-5
7,-8,-16,1,12,-13,-4,-19,-13,-16,-6,-5
8,-8,-16,0,12,-12,-4,-19,-13,-16,-5,-4
8,-7,-17,0,13,-12,-4,-19,-13,-15,-5,-4
9,-7,-17,-1,13,-12,-5,-19,-13,-15,-5,-4
9,-7,-17,-1,14,-12,-5,-18,-13,-15,-5,-4
10,-6,-17,-2,15,-12,-5,-18,-13,-15,-5,-4
10,-6,-17,-2,15,-12,-4,-17,-13,-15,-5,-4
9,-6,-16,-1,13,-11,-4,-16,-12,-15,-5,-4
7,-7,-15,0,12,-11,-4,-16,-12,-15,-5,-4
8,-6,-15,0,12,-11,-4,-15,-11,-14,-5,-4
9,-5,-16,-1,13,-11,-4,-15,-11,-14,-5,-4
10,-5,-16,-2,14,-11,-4,-15,-11,-14,-5,-4
10,-6,-16,-2,14,-11,-4,-15,-11,-13,-5,-4
10,-6,-16,-2,13,-11,-4,-14,-11,-13,-5,-4
9,-6,-15,-2,13,-11,-4,-13,-11,-13,-5,-3
9,-6,-15,-1,13,-11,-4,-12,-11,-13,-5,-4
8,-6,-16,-1,13,-11,-5,-11,-12,-13,-5,-4
8,-7,-16,0,13,-12,-5,-10,-12,-13,-6,-5
9,-6,-17,-1,14,-12,-5,-10,-12,-12,-6,-5
10,-6,-17,-2,14,-12,-5,-9,-12,-12,-5,-4
10,-5,-16,-2,14,-11,-5,-9,-11,-11,-5,-4
9,-6,-15,-1,13,-11,-5,-9,-11,-10,-5,-4
9,-7,-15,-1,13,-11,-6,-9,-11,-10,-5,-4
9,-7,-16,-1,13,-11,-6,-10,-11,-10,-5,-4
9,-7,-16,-1,14,-11,-6,-10,-11,-10,-5,-4
10,-6,-17,-2,14,-12,-6,-11,-11,-9,-5,-4
10,-6,-18,-1,15,-13,-7,-12,-12,-9,-6,-4
10,-8,-18,0,15,-14,-8,-14,-13,-10,-6,-5
8,-9,-18,1,13,-14,-8,-16,-13,-10,-7,-5
6,-10,-16,3,11,-14,-8,-17,-13,-9,-6,-5
6,-9,-14,2,11,-12,-8,-17,-12,-8,-6,-4
7,-7,-14,1,11,-11,-8,-18,-12,-8,-5,-3
7,-7,-14,0,11,-11,-8,-20,-13,-8,-5,-4
7,-7,-15,0,11,-11,-9,-21,-14,-8,-5,-4
7,-6,-14,0,11,-11,-9,-21,-14,-8,-5,-3
7,-6,-14,0,11,-10,-9,-21,-14,-8,-6,-3
7,-7,-14,1,11,-11,-9,-21,-14,-8,-6,-4
6,-8,-15,2,11,-13,-10,-21,-14,-8,-7,-4
7,-9,-16,2,12,-13,-10,-21,-15,-8,-7,-4
8,-8,-16,0,13,-13,-10,-20,-15,-8,-7,-4
10,-6,-16,-1,13,-13,-10,-19,-14,-8,-6,-4
10,-5,-16,-2,13,-12,-10,-17,-14,-8,-6,-4
10,-5,-16,-2,13,-11,-10,-16,-13,-8,-6,-4
10,-5,-15,-2,13,-11,-10,-16,-14,-8,-6,-4
9,-5,-15,-2,13,-10,-10,-15,-14,-7,-5,-4
9,-4,-14,-2,12,-9,-10,-15,-14,-7,-5,-3
8,-4,-13,-2,12,-9,-10,-14,-14,-6,-5,-3
8,-5,-13,-1,11,-9,-10,-14,-15,-6,-5,-3
7,-5,-13,-1,11,-9,-11,-14,-15,-6,-5,-3
7,-6,-14,-1,11,-10,-11,-14,-16,-7,-6,-3
8,-6,-15,-1,12,-10,-12,-14,-17,-7,-6,-3
7,-6,-15,0,12,-11,-12,-14,-18,-7,-6,-3
7,-6,-15,0,12,-11,-12,-15,-18,-7,-6,-3
7,-7,-15,0,12,-11,-13,-16,-19,-7,-6,-3
7,-7,-16,0,13,-11,-13,-17,-19,-7,-6,-3
7,-7,-16,0,13,-11,-13,-18,-19,-7,-6,-4
6,-8,-15,1,11,-11,-13,-18,-19,-7,-6,-4
4,-8,-13,2,9,-11,-13,-18,-18,-6,-6,-4
3,-8,-12,3,8,-10,-13,-19,-18,-6,-6,-4
3,-7,-12,2,8,-10,-14,-19,-18,-6,-6,-3
5,-6,-13,1,9,-10,-14,-19,-18,-6,-6,-3
6,-5,-13,0,10,-10,-14,-19,-17,-5,-6,-3
7,-5,-13,0,11,-10,-14,-19,-17,-5,-6,-3
8,-5,-13,-1,11,-10,-14,-19,-17,-5,-6,-3
8,-5,-13,-1,11,-10,-14,-18,-17,-5,-6,-3
8,-5,-14,-1,12,-10,-14,-18,-17,-5,-6,-3
9,-4,-14,-2,12,-10,-14,-17,-17,-5,-6,-3
9,-4,-14,-1,12,-10,-15,-16,-17,-5,-6,-3
8,-5,-15,0,12,-10,-15,-16,-17,-5,-6,-3
7,-6,-15,0,12,-11,-16,-15,-17,-5,-7,-3
8,-6,-15,0,12,-11,-16,-13,-17,-4,-7,-3
8,-6,-15,0,12,-10,-15,-12,-17,-4,-7,-3
7,-6,-14,0,11,-10,-15,-10,-17,-4,-7,-3
7,-6,-14,0,11,-10,-15,-8,-17,-4,-7,-3
7,-6,-14,0,11,-10,-15,-7,-17,-4,-7,-3
6,-6,-13,0,10,-9,-15,-5,-17,-4,-7,-3
5,-6,-12,1,9,-9,-15,-4,-17,-4,-7,-2
4,-6,-11,1,9,-9,-15,-3,-17,-4,-6,-2
4,-6,-11,1,9,-9,-15,-3,-17,-4,-6,-2
4,-7,-12,2,9,-10,-15,-3,-17,-4,-6,-2
3,-8,-12,3,9,-11,-16,-3,-18,-5,-7,-3
3,-10,-13,4,9,-12,-17,-3,-19,-5,-8,-3
3,-10,-14,4,9,-12,-17,-3,-19,-5,-8,-4
3,-10,-14,3,10,-12,-17,-3,-19,-5,-8,-4
4,-8,-14,2,10,-11,-17,-3,-19,-5,-7,-3
6,-7,-14,0,11,-10,-17,-3,-19,-5,-7,-3
7,-6,-14,0,11,-10,-17,-4,-19,-4,-7,-3
6,-6,-13,0,10,-9,-17,-4,-19,-4,-6,-3
6,-6,-12,0,9,-9,-16,-4,-18,-3,-6,-2
5,-6,-11,0,9,-8,-16,-3,-18,-3,-6,-2
5,-6,-11,1,8,-8,-16,-2,-17,-2,-6,-1
5,-6,-11,1,9,-8,-16,-1,-17,-2,-6,-1
6,-5,-11,0,9,-8,-16,0,-17,-2,-6,-1
7,-4,-11,-1,10,-8,-15,1,-17,-2,-6,-1
6,-4,-11,-1,9,-8,-15,2,-16,-2,-6,-1
5,-5,-11,0,9,-8,-15,2,-16,-2,-6,-1
5,-5,-11,0,9,-9,-15,2,-16,-2,-6,-1
6,-5,-12,0,10,-9,-15,2,-15,-2,-6,-1
7,-5,-12,0,11,-8,-15,2,-15,-1,-6,-1
6,-4,-11,0,10,-7,-15,1,-14,-1,-5,0
5,-4,-10,0,9,-7,-16,0,-14,0,-5,0
4,-5,-10,0,8,-7,-16,-1,-15,0,-5,0
4,-6,-11,1,8,-8,-17,-4,-16,-1,-5,-1
3,-7,-11,1,8,-9,-17,-7,-16,-1,-5,-1
3,-7,-11,2,8,-9,-17,-9,-16,-1,-5,-1
5,-6,-11,1,8,-8,-17,-10,-16,-1,-5,-1
6,-5,-11,0,9,-8,-17,-11,-16,-1,-5,-1
5,-5,-11,0,9,-8,-18,-12,-16,-1,-5,-1
5,-5,-11,0,9,-8,-18,-13,-17,-1,-5,-1
5,-5,-11,0,9,-8,-18,-15,-17,-1,-5,-1
5,-5,-11,0,9,-8,-18,-16,-17,-1,-5,-1
5,-5,-11,0,9,-8,-18,-17,-17,-1,-5,-1
6,-5,-11,0,9,-8,-18,-18,-17,-1,-5,-1
6,-4,-10,0,9,-8,-18,-17,-16,-1,-5,0
5,-4,-9,0,8,-7,-18,-14,-16,0,-5,0
5,-4,-9,0,8,-7,-18,-12,-16,0,-5,0
5,-5,-10,0,9,-7,-18,-10,-16,0,-5,0
5,-5,-11,0,9,-8,-18,-8,-16,0,-6,-1
4,-5,-11,0,9,-8,-18,-5,-16,0,-5,0
5,-5,-11,0,9,-7,-17,-3,-16,0,-5,0
5,-5,-11,0,9,-8,-18,-2,-16,0,-5,0
5,-6,-12,1,9,-9,-18,0,-16,0,-5,0
4,-7,-11,2,8,-9,-18,1,-17,0,-6,0
3,-8,-10,3,7,-9,-18,2,-17,0,-6,-1
2,-8,-10,3,7,-9,-18,3,-17,0,-6,-1
2,-8,-10,3,7,-9,-18,4,-17,0,-6,-1
3,-6,-10,2,7,-8,-18,4,-17,0,-6,0
4,-5,-9,1,7,-7,-17,5,-17,0,-5,0
5,-4,-9,0,8,-7,-17,6,-17,0,-5,0
6,-3,-9,0,8,-7,-17,6,-17,0,-5,0
6,-4,-10,0,9,-7,-17,6,-17,0,-5,0
5,-5,-10,0,9,-8,-17,6,-17,0,-5,0
4,-5,-10,1,8,-8,-17,6,-17,0,-5,0
3,-6,-10,2,8,-8,-17,6,-17,0,-5,0
3,-7,-11,2,8,-9,-17,6,-17,0,-6,0
3,-7,-11,2,8,-9,-18,6,-18,0,-6,-1
4,-7,-12,2,9,-10,-18,6,-18,0,-6,-1
5,-7,-12,1,9,-10,-18,6,-18,0,-6,-1
5,-6,-11,0,8,-9,-17,7,-18,0,-6,0
6,-5,-10,0,8,-8,-17,8,-17,1,-5,0
5,-4,-10,0,8,-8,-16,10,-17,1,-5,0
4,-4,-10,0,8,-8,-16,11,-17,2,-4,0
3,-4,-9,1,7,-8,-16,11,-17,2,-4,0
3,-5,-9,1,7,-8,-16,11,-17,2,-4,0
3,-5,-9,1,7,-7,-16,11,-17,2,-4,1
4,-4,-8,0,7,-6,-16,11,-17,2,-4,1
3,-4,-8,1,6,-6,-16,11,-17,2,-4,1
2,-5,-7,1,5,-6,-16,10,-17,2,-4,1
3,-5,-8,1,6,-6,-16,10,-17,2,-4,1
4,-4,-9,0,8,-7,-16,9,-17,2,-4,1
4,-5,-9,0,8,-7,-16,8,-17,2,-4,1
3,-5,-8,1,7,-6,-16,7,-17,2,-4,1
2,-6,-8,2,6,-7,-16,6,-17,2,-4,1
1,-7,-8,3,5,-8,-17,5,-18,1,-5,1
1,-7,-8,4,5,-8,-17,3,-18,1,-5,0
1,-7,-8,4,5,-8,-17,2,-18,0,-5,0
1,-7,-8,3,6,-8,-17,1,-18,0,-5,0
3,-5,-9,1,7,-7,-17,1,-18,1,-5,1
5,-3,-9,0,8,-6,-17,0,-18,1,-4,1
6,-3,-9,-1,9,-6,-17,0,-18,1,-4,1
6,-3,-9,0,8,-7,-17,0,-18,1,-4,1
6,-4,-10,0,8,-7,-17,-1,-18,1,-4,1
6,-4,-10,0,8,-7,-17,-1,-18,1,-4,1
5,-4,-10,0,8,-7,-17,-1,-18,1,-4,1
5,-5,-11,0,8,-8,-17,-2,-18,0,-5,1
5,-5,-11,0,9,-8,-18,-2,-19,0,-5,1
5,-5,-11,0,9,-8,-18,-2,-20,0,-5,2
5,-5,-11,0,9,-8,-17,-2,-20,0,-5,2
6,-5,-11,0,9,-8,-17,-1,-20,0,-5,2
6,-6,-11,0,9,-9,-18,-1,-20,0,-5,2
4,-6,-10,1,8,-9,-18,0,-20,0,-5,2
2,-6,-9,2,7,-9,-17,1,-20,0,-5,2
0,-6,-7,3,5,-8,-17,2,-20,0,-5,3
0,-7,-7,3,4,-7,-16,4,-20,0,-5,4
-1,-7,-7,4,4,-7,-16,6,-21,0,-5,4
-1,-8,-7,4,4,-8,-16,7,-22,0,-5,3
0,-7,-7,4,4,-8,-16,9,-22,0,-5,3
2,-5,-7,2,5,-7,-15,10,-22,1,-4,4
4,-4,-7,1,6,-6,-15,12,-21,1,-4,4
4,-5,-8,1,6,-6,-15,13,-22,1,-4,4
4,-5,-9,1,7,-7,-15,13,-22,1,-4,4
5,-5,-9,0,8,-7,-16,13,-23,1,-4,4
5,-4,-9,0,8,-7,-16,13,-23,2,-4,4
5,-4,-9,0,8,-6,-15,12,-22,2,-4,4
4,-4,-8,0,7,-6,-15,11,-22,3,-4,4
4,-3,-7,0,6,-5,-15,10,-22,3,-4,4
4,-3,-6,1,5,-5,-15,8,-22,3,-4,4
3,-4,-6,1,5,-5,-16,4,-22,3,-4,4
2,-4,-6,2,4,-5,-17,-6,-22,3,-4,5
3,-4,-6,1,5,-5,-19,-24,-23,3,-4,5
4,-3,-7,0,5,-5,-22,-48,-24,3,-4,5
4,-2,-6,0,5,-4,-25,-74,-24,2,-4,5
3,-1,-4,0,3,-3,-27,-98,-25,2,-4,5
3,-1,-3,0,3,-3,-28,-120,-25,2,-4,5
3,0,-3,0,3,-2,-29,-140,-26,1,-4,5
3,0,-3,0,3,-2,-30,-159,-26,0,-3,5
3,-1,-4,0,4,-2,-31,-174,-26,0,-3,5
3,-1,-4,0,4,-3,-31,-182,-26,-1,-3,5
3,-2,-5,0,4,-3,-31,-184,-26,-1,-4,4
2,-3,-5,1,4,-4,-31,-180,-26,-1,-4,4
1,-3,-5,2,3,-4,-30,-171,-25,-1,-4,4
1,-2,-4,1,3,-4,-28,-162,-24,0,-4,4
3,0,-3,0,3,-2,-26,-154,-22,1,-3,5
4,2,-2,-2,3,-1,-24,-146,-20,2,-2,6
4,3,-1,-3,3,1,-23,-136,-18,2,-2,6
4,4,0,-4,2,2,-21,-122,-16,4,-1,7
4,5,1,-4,2,3,-19,-108,-15,6,0,8
4,6,2,-5,2,4,-18,-97,-14,7,1,9
5,7,2,-5,2,4,-17,-89,-13,8,1,10
5,8,3,-6,1,5,-16,-87,-13,9,1,10
5,8,3,-6,1,5,-16,-91,-14,9,1,10
5,8,3,-6,1,5,-17,-100,-15,8,1,9
5,7,2,-5,1,5,-18,-112,-16,8,0,9
4,7,2,-5,1,5,-20,-124,-18,7,0,9
4,6,2,-4,1,5,-22,-132,-20,5,0,9
4,6,2,-4,1,5,-23,-127,-20,5,0,9
5,7,2,-5,2,5,-23,-112,-20,5,0,8
6,7,2,-5,2,5,-23,-96,-19,5,0,8
6,8,2,-6,2,5,-22,-83,-19,6,0,8
6,8,2,-6,2,5,-20,-71,-18,6,0,8
6,8,2,-6,2,5,-18,-59,-18,7,0,9
6,9,2,-6,2,6,-17,-50,-17,8,1,10
6,9,2,-7,2,6,-16,-44,-16,9,2,10
6,9,2,-7,2,5,-15,-38,-15,10,2,11
6,8,1,-6,2,5,-15,-29,-14,11,2,11
6,8,1,-6,2,5,-13,-17,-13,12,3,11
6,8,1,-6,2,4,-11,-5,-13,13,3,11
5,6,1,-4,2,3,-10,5,-13,13,2,10
3,4,0,-2,1,2,-9,13,-13,12,1,9
2,2,0,-1,1,1,-9,20,-14,12,1,8
3,3,0,-2,2,1,-8,26,-13,12,1,8
5,6,0,-5,3,3,-7,31,-12,13,1,9
6,7,1,-6,2,4,-6,31,-12,13,2,9
3,6,2,-4,0,4,-6,27,-12,13,2,9
1,3,3,-1,0,2,-6,23,-12,13,1,8
0,2,2,0,-1,1,-6,21,-12,12,1,8
0,1,2,0,0,1,-5,22,-12,12,1,8
1,1,1,0,1,1,-4,22,-11,12,1,8
2,2,0,-1,1,1,-4,21,-11,12,1,8
1,2,0,-1,1,1,-4,20,-11,12,1,8
0,0,0,0,0,0,-4,21,-11,11,1,8
0,-1,0,1,0,-1,-5,23,-12,10,0,7
-1,-2,-1,2,0,-2,-5,24,-13,9,0,6
-1,-3,-2,3,0,-3,-5,25,-13,9,-1,6
-1,-3,-2,3,1,-3,-5,27,-13,8,-2,5
0,-3,-2,2,1,-3,-5,27,-13,8,-2,5
0,-2,-2,1,2,-3,-5,25,-13,8,-2,5
0,-2,-3,1,2,-3,-5,22,-14,8,-2,5
1,-3,-4,1,2,-3,-5,18,-14,8,-2,5
0,-4,-5,2,2,-4,-5,14,-15,8,-2,5
-1,-7,-5,4,1,-6,-6,8,-16,8,-2,4
-3,-8,-5,6,0,-6,-7,2,-16,7,-3,3
-3,-7,-4,6,0,-5,-7,-3,-16,6,-3,3
0,-4,-4,3,1,-3,-6,-8,-15,6,-2,4
2,-1,-4,0,3,-2,-6,-12,-15,6,-2,5
4,0,-4,-1,4,-2,-6,-17,-15,6,-2,5
4,0,-3,-1,3,-2,-6,-21,-15,6,-1,5
3,1,-2,-1,3,-1,-5,-26,-15,7,-1,6
3,0,-2,-1,3,-1,-5,-30,-15,7,0,6
3,0,-3,-1,3,-1,-6,-34,-16,6,-1,6
3,0,-3,-1,3,-2,-6,-37,-16,6,-1,6
3,-1,-4,-1,3,-2,-6,-39,-17,6,-1,5
3,-1,-4,0,3,-3,-7,-39,-17,5,-1,5
2,-2,-4,1,3,-3,-7,-39,-17,5,-2,5
1,-3,-4,2,2,-3,-7,-37,-16,5,-2,4
0,-3,-3,2,1,-3,-6,-35,-16,5,-2,4
0,-3,-2,2,1,-3,-6,-33,-16,5,-2,4
0,-3,-2,2,1,-3,-6,-32,-16,5,-2,4
0,-3,-2,2,1,-3,-5,-30,-16,5,-2,4
0,-3,-2,2,2,-3,-5,-29,-16,5,-2,4
1,-2,-3,1,2,-3,-5,-27,-17,5,-2,4
0,-3,-3,2,2,-3,-5,-26,-17,4,-2,4
0,-4,-3,3,2,-4,-5,-24,-18,4,-2,4
-1,-4,-3,3,2,-4,-5,-23,-18,4,-2,4
-1,-5,-4,3,2,-4,-5,-21,-19,3,-2,4
0,-5,-4,3,2,-4,-5,-20,-19,3,-2,4
0,-5,-4,3,2,-5,-5,-19,-19,3,-2,4
0,-5,-4,3,2,-5,-5,-18,-19,2,-2,4
0,-5,-4,3,2,-4,-5,-16,-19,2,-2,3
0,-5,-4,3,2,-4,-5,-13,-19,3,-2,3
0,-5,-5,3,2,-5,-5,-10,-19,3,-3,3
0,-6,-5,4,2,-6,-5,-7,-20,3,-3,2
-1,-6,-5,4,2,-6,-5,-4,-20,3,-4,2
-1,-6,-5,4,1,-6,-4,-1,-19,3,-4,3
0,-5,-5,2,2,-5,-4,2,-18,4,-3,4
1,-3,-4,1,2,-4,-3,5,-17,5,-3,4
0,-4,-4,2,2,-4,-2,7,-17,5,-3,4
0,-4,-4,2,2,-4,-2,11,-17,5,-3,4
0,-4,-5,2,2,-4,-2,15,-17,5,-3,4
0,-4,-5,2,3,-5,-1,18,-17,5,-2,4
1,-4,-6,1,3,-5,-1,22,-17,6,-2,4
1,-5,-6,2,3,-5,-1,24,-17,6,-3,4
0,-6,-6,3,3,-6,-1,26,-17,5,-3,4
0,-7,-7,3,3,-6,-2,27,-18,5,-3,3
0,-8,-7,4,3,-7,-2,27,-18,5,-3,3
-1,-9,-7,5,2,-8,-2,27,-18,5,-3,3
-2,-9,-7,6,2,-8,-2,27,-18,5,-3,3
-1,-8,-7,5,2,-8,-2,27,-18,5,-3,3
1,-7,-7,3,3,-8,-2,27,-18,5,-3,3
2,-6,-7,2,4,-7,-2,27,-17,5,-3,3
2,-5,-7,2,4,-7,-2,26,-17,5,-3,3
2,-5,-8,2,4,-7,-2,25,-17,4,-3,3
2,-6,-8,2,4,-7,-2,23,-17,4,-3,3
1,-6,-9,3,4,-7,-2,21,-17,3,-3,3
2,-6,-9,2,5,-7,-2,20,-17,3,-3,3
3,-6,-10,2,6,-8,-2,19,-17,3,-3,3
3,-7,-10,2,6,-8,-2,18,-17,2,-3,3
1,-7,-9,3,5,-8,-2,18,-17,2,-3,3
0,-7,-7,4,3,-7,-2,17,-16,2,-3,3
0,-7,-7,4,3,-7,-2,15,-16,2,-3,3
0,-7,-7,4,3,-7,-2,13,-16,2,-3,3
0,-7,-7,4,3,-6,-2,11,-16,2,-3,3
-1,-8,-7,4,2,-7,-3,10,-16,2,-3,4
-3,-10,-7,6,1,-8,-4,8,-17,1,-3,3
-4,-12,-7,8,1,-10,-4,7,-18,1,-4,3
-4,-12,-8,8,2,-11,-5,6,-19,0,-4,2
-2,-11,-9,7,3,-10,-5,5,-20,0,-4,2
0,-9,-9,5,4,-9,-5,4,-20,0,-3,3
1,-8,-9,4,4,-9,-5,3,-20,0,-3,3
1,-7,-9,3,4,-8,-5,2,-20,0,-3,3
1,-7,-9,3,5,-8,-5,1,-21,0,-3,3
2,-7,-8,2,5,-8,-5,0,-21,0,-2,3
2,-7,-8,2,5,-7,-5,0,-21,0,-2,4
0,-8,-8,4,4,-8,-6,0,-21,0,-2,3
-2,-11,-8,6,3,-10,-7,-2,-23,0,-3,2
-4,-13,-9,8,2,-11,-8,-3,-24,-1,-4,1
-4,-12,-9,8,2,-11,-8,-3,-24,-1,-5,1
-2,-10,-8,6,2,-10,-7,-2,-23,-1,-4,2
-1,-7,-7,3,2,-7,-5,-1,-21,0,-3,3
-1,-6,-7,3,2,-6,-5,0,-20,0,-2,4
-1,-7,-7,3,2,-7,-5,0,-21,0,-2,4
0,-8,-8,3,3,-8,-6,0,-22,0,-3,3
0,-8,-8,4,3,-9,-6,1,-23,-1,-3,3
-1,-9,-8,4,3,-9,-7,2,-23,-1,-3,3
-1,-9,-8,5,3,-9,-7,2,-23,-1,-3,3
-2,-10,-8,6,2,-10,-7,3,-24,-1,-4,3
-4,-12,-8,8,1,-10,-8,3,-24,-2,-4,2
-6,-14,-8,10,1,-11,-8,4,-25,-2,-5,1
-4,-13,-8,9,1,-10,-7,5,-24,-2,-4,2
0,-9,-9,5,3,-9,-7,7,-23,-1,-3,3
2,-7,-9,3,4,-8,-6,8,-23,-1,-3,3
2,-7,-9,3,5,-8,-6,9,-23,-1,-3,3
1,-7,-9,3,5,-8,-6,10,-23,-1,-3,3
0,-7,-9,3,4,-8,-6,10,-23,-1,-3,3
0,-8,-9,4,4,-8,-7,10,-22,-1,-3,3
0,-9,-10,4,5,-9,-7,10,-22,-1,-3,3
-1,-11,-11,6,5,-11,-8,9,-23,-2,-4,2
-2,-13,-11,7,4,-12,-9,9,-23,-3,-4,2
-2,-12,-10,7,3,-11,-9,9,-23,-3,-4,2
-1,-11,-10,6,4,-11,-9,9,-23,-3,-4,2
0,-10,-10,5,4,-10,-9,9,-23,-3,-4,2
0,-9,-10,4,5,-10,-9,9,-23,-3,-4,2
0,-9,-10,4,5,-10,-9,9,-23,-3,-4,2
0,-9,-9,4,4,-9,-8,10,-23,-3,-3,3
-1,-8,-7,5,2,-8,-8,11,-23,-3,-3,3
-2,-9,-7,5,2,-7,-8,11,-23,-3,-2,3
-2,-10,-7,6,2,-8,-8,11,-24,-4,-3,3
-2,-11,-8,7,3,-9,-9,11,-24,-4,-3,2
-2,-11,-8,7,2,-10,-9,11,-24,-4,-3,2
-2,-10,-8,6,2,-9,-8,11,-23,-4,-3,2
-2,-9,-7,6,2,-8,-8,11,-22,-4,-3,2
-2,-9,-7,6,2,-8,-8,10,-22,-4,-3,2
-3,-9,-7,6,2,-8,-8,9,-22,-5,-3,2
-2,-9,-7,6,2,-8,-7,8,-22,-5,-3,2
-1,-8,-8,5,3,-8,-7,8,-22,-5,-3,2
-1,-8,-8,5,3,-9,-7,7,-22,-5,-3,2
-2,-9,-8,6,3,-9,-7,6,-22,-6,-3,1
-3,-11,-8,7,2,-10,-7,5,-22,-6,-3,1
-2,-11,-9,7,3,-10,-7,4,-22,-7,-4,1
-1,-10,-10,6,4,-10,-5,2,-21,-7,-3,1
0,-9,-9,4,4,-9,-3,2,-19,-5,-2,2
1,-8,-9,3,5,-9,0,1,-17,-3,-1,3
2,-7,-10,2,6,-9,4,1,-14,-1,0,4
3,-7,-12,2,8,-10,9,0,-10,0,1,4
6,-8,-15,1,10,-11,14,1,-6,3,3,5
9,-7,-17,0,13,-12,19,1,-1,7,6,7
12,-5,-18,-3,15,-11,23,1,6,12,11,11
16,-2,-19,-7,17,-10,26,0,14,20,18,17
19,2,-17,-11,17,-7,28,-2,25,30,27,25
23,11,-13,-17,17,0,31,-6,39,44,40,35
29,23,-6,-26,17,8,33,-10,54,60,55,47
35,37,1,-36,17,19,29,-16,70,77,71,60
41,52,10,-46,15,31,21,-23,85,95,88,74
46,65,18,-55,13,42,7,-32,97,110,103,87
50,77,26,-63,11,52,-11,-43,104,122,116,99
52,86,33,-69,8,60,-34,-53,104,128,125,107
50,94,44,-72,2,68,-60,-62,97,128,130,113
44,100,55,-72,-6,77,-84,-68,85,124,130,115
37,100,63,-68,-13,80,-100,-71,71,115,124,111
29,94,65,-61,-18,79,-107,-70,57,102,112,102
21,85,64,-53,-21,75,-107,-67,44,87,98,90
12,74,62,-43,-25,68,-103,-61,31,71,82,76
5,63,58,-33,-27,61,-96,-52,17,53,64,60
-1,52,54,-25,-28,54,-88,-42,3,37,46,45
-7,43,50,-18,-29,47,-81,-32,-11,22,32,32
-10,36,46,-12,-28,40,-74,-23,-23,11,22,23
-12,29,41,-8,-27,35,-65,-14,-28,4,16,17
-13,24,37,-5,-26,30,-56,-7,-29,0,12,13
-15,19,34,-2,-25,27,-47,-2,-28,-1,9,11
-16,15,31,0,-24,23,-38,2,-26,-3,7,9
-16,12,28,2,-22,20,-30,5,-24,-5,5,7
-14,9,23,3,-19,16,-21,9,-22,-6,4,6
-12,7,19,3,-16,12,-14,11,-21,-6,2,4
-11,4,15,3,-14,9,-7,14,-20,-7,1,3
-11,1,13,5,-12,7,-2,16,-19,-7,0,2
-12,-1,11,6,-12,5,1,17,-19,-8,-1,0
-12,-2,10,7,-12,4,3,18,-19,-10,-2,0
-12,-2,10,7,-12,4,5,18,-20,-11,-3,-1
-14,-3,11,8,-13,4,6,18,-21,-11,-4,-2
-15,-4,11,9,-13,4,7,19,-21,-11,-5,-2
-15,-4,11,10,-13,3,7,19,-22,-11,-6,-3
-14,-4,10,10,-13,3,8,19,-23,-12,-7,-4
-15,-5,9,10,-12,2,8,19,-24,-12,-8,-5
-15,-6,8,11,-12,1,9,19,-25,-12,-9,-6
-15,-7,7,11,-12,0,9,19,-26,-12,-9,-6
-15,-8,7,11,-11,0,9,19,-27,-12,-10,-7
-15,-8,7,12,-11,-1,9,19,-28,-13,-11,-7
-17,-9,7,13,-12,-1,9,19,-28,-13,-11,-8
-20,-12,7,16,-13,-2,9,19,-29,-14,-12,-9
-23,-16,6,20,-14,-5,9,18,-30,-15,-14,-10
-24,-18,5,22,-14,-6,8,18,-31,-15,-15,-11
-22,-17,5,20,-13,-6,9,18,-31,-15,-15,-11
-18,-14,5,17,-12,-5,11,18,-30,-14,-14,-10
-16,-11,5,14,-11,-3,12,17,-30,-14,-13,-10
-16,-10,5,13,-11,-3,12,16,-29,-14,-13,-10
-16,-10,5,13,-11,-3,12,14,-29,-14,-13,-10
-16,-11,5,13,-11,-3,12,12,-29,-14,-13,-10
-17,-12,4,14,-11,-3,12,9,-29,-14,-13,-10
-17,-13,4,15,-11,-4,12,7,-29,-14,-14,-10
-18,-14,4,16,-11,-5,12,5,-29,-14,-14,-11
-18,-15,4,17,-11,-5,11,3,-30,-15,-15,-11
-19,-15,4,17,-11,-6,11,1,-30,-15,-15,-12
-19,-15,4,17,-11,-6,11,0,-30,-15,-15,-12
-19,-15,4,17,-11,-6,11,0,-30,-15,-15,-12
-19,-15,4,17,-11,-6,11,0,-30,-15,-15,-12
-18,-15,3,17,-10,-6,12,0,-29,-15,-15,-12
-17,-14,3,16,-10,-6,12,0,-29,-15,-15,-12
-16,-14,3,15,-9,-5,13,0,-29,-15,-15,-12
-17,-14,3,16,-10,-5,13,0,-29,-16,-16,-13
-19,-16,3,17,-11,-6,13,0,-29,-16,-16,-13
-22,-18,3,19,-13,-7,13,0,-30,-16,-17,-14
-23,-20,2,21,-13,-8,13,-2,-30,-17,-17,-14
-23,-20,2,21,-13,-8,13,-3,-30,-17,-17,-14
-21,-17,3,20,-13,-7,14,-4,-29,-17,-16,-13
-19,-15,4,18,-12,-6,15,-5,-28,-16,-16,-13
-19,-14,4,17,-12,-5,16,-7,-27,-16,-16,-13
-19,-14,5,17,-12,-5,16,-8,-27,-16,-16,-13
-19,-14,5,17,-13,-4,16,-10,-27,-16,-16,-13
-19,-14,5,16,-13,-4,17,-11,-26,-15,-16,-13
-20,-14,5,16,-13,-4,17,-12,-26,-15,-16,-13
-20,-14,5,17,-13,-4,18,-12,-26,-15,-16,-13
-20,-15,5,18,-13,-4,18,-13,-26,-15,-16,-14
-20,-15,4,18,-12,-5,18,-13,-26,-15,-17,-14
-19,-15,3,18,-11,-5,18,-14,-26,-16,-18,-15
-18,-15,3,17,-11,-6,18,-14,-26,-16,-18,-15
-19,-15,4,17,-12,-5,18,-13,-26,-16,-18,-15
-21,-15,5,18,-13,-5,19,-11,-25,-15,-17,-14
-21,-15,6,18,-14,-5,20,-10,-25,-15,-17,-14
-21,-15,6,18,-14,-5,20,-8,-25,-15,-17,-14
-21,-15,6,18,-14,-4,21,-7,-24,-15,-17,-14
-21,-15,6,18,-14,-4,22,-6,-24,-15,-17,-14
-22,-16,6,19,-15,-4,22,-5,-24,-16,-18,-15
-24,-18,6,21,-16,-5,22,-5,-24,-16,-18,-15
-25,-18,7,22,-16,-5,22,-4,-24,-16,-18,-15
-24,-16,7,20,-16,-5,23,-3,-24,-16,-18,-15
-21,-14,7,18,-14,-3,24,-1,-23,-15,-17,-14
-20,-12,8,16,-14,-3,24,0,-23,-15,-17,-14
-21,-12,8,16,-14,-2,25,0,-23,-16,-17,-14
-21,-12,9,16,-15,-2,26,0,-23,-16,-17,-14
-21,-12,9,16,-15,-1,26,0,-23,-16,-17,-14
-21,-12,9,16,-15,-1,27,0,-22,-16,-17,-14
-21,-12,9,17,-15,-1,28,0,-22,-16,-17,-14
-21,-13,9,18,-15,-2,28,0,-23,-16,-17,-14
-21,-12,9,17,-15,-2,29,0,-23,-16,-17,-14
-21,-11,9,16,-15,-1,29,1,-22,-16,-17,-14
-22,-10,10,16,-16,0,30,2,-21,-15,-16,-14
-23,-10,12,17,-18,0,32,4,-20,-15,-16,-14
-24,-10,13,17,-19,0,33,5,-20,-14,-16,-14
-24,-9,13,17,-19,1,34,7,-19,-14,-16,-14
-23,-8,14,16,-18,2,35,8,-19,-13,-15,-13
-22,-7,14,15,-18,3,36,10,-18,-13,-15,-13
-21,-6,13,14,-17,3,36,11,-18,-12,-15,-13
-21,-7,13,14,-17,3,37,13,-17,-12,-15,-13
-22,-7,14,14,-18,3,38,15,-17,-11,-15,-13
-23,-6,15,14,-19,4,39,18,-16,-11,-14,-13
-23,-6,16,14,-20,5,40,20,-15,-10,-14,-13
-23,-7,16,15,-20,5,41,21,-14,-10,-14,-13
-24,-7,16,15,-20,4,41,22,-14,-10,-14,-13
-25,-8,17,17,-21,4,42,23,-14,-9,-14,-13
-27,-9,19,18,-23,5,42,24,-13,-9,-13,-13
-28,-8,20,18,-24,6,43,25,-13,-8,-13,-13
-27,-6,20,16,-24,7,44,26,-12,-8,-13,-12
-26,-4,21,15,-24,8,45,27,-11,-8,-12,-12
-25,-3,21,14,-23,9,46,28,-11,-7,-12,-12
-24,-1,21,13,-23,9,47,29,-10,-7,-11,-12
-22,0,22,11,-22,10,49,29,-9,-6,-10,-11
-21,1,22,10,-22,11,50,29,-8,-5,-9,-10
-20,3,23,9,-21,12,50,29,-7,-4,-9,-9
-20,4,24,8,-22,13,51,29,-6,-4,-8,-9
-21,4,25,8,-23,14,52,29,-6,-3,-8,-9
-22,4,26,9,-24,14,52,28,-5,-3,-7,-9
-23,4,27,9,-25,14,53,28,-5,-3,-7,-9
-23,4,27,9,-25,15,53,28,-4,-3,-7,-8
-22,5,28,8,-25,16,54,28,-3,-2,-6,-8
-22,5,28,8,-25,16,54,28,-3,-1,-6,-7
-22,5,28,8,-25,17,54,27,-2,-1,-5,-7
-22,6,28,7,-25,17,55,27,-2,0,-5,-7
-21,7,28,7,-25,18,55,27,-2,0,-5,-7
-21,7,28,7,-25,18,55,26,-2,0,-5,-7
-22,7,29,7,-25,18,55,26,-1,0,-4,-7
-23,7,30,7,-27,19,55,26,0,0,-4,-6
-24,8,32,8,-28,20,56,26,0,1,-3,-6
-26,7,33,9,-29,20,56,26,0,1,-3,-5
-27,7,33,10,-30,20,55,25,1,1,-3,-5
-27,7,34,9,-30,20,55,24,1,2,-2,-5
-25,10,34,7,-30,22,56,24,2,3,-1,-4
-22,14,35,3,-29,24,56,25,4,4,0,-2
-19,17,35,0,-28,26,56,26,5,4,1,-1
-17,18,35,0,-27,27,56,25,5,4,2,-1
-17,18,35,-1,-27,27,55,25,6,4,2,-1
-17,19,36,-1,-27,28,55,26,6,4,3,-1
-17,20,38,-1,-28,29,56,27,7,4,4,0
-19,20,39,-1,-29,30,56,27,8,4,4,0
-19,21,40,-1,-29,30,55,28,8,4,5,1
-19,22,41,-1,-30,31,55,29,9,4,6,2
-19,23,41,-1,-31,32,55,30,10,4,7,2
-20,23,43,-1,-31,33,54,32,11,4,7,3
-20,24,44,-2,-32,33,54,33,12,4,8,3
-20,24,44,-2,-32,34,54,35,12,4,8,4
-20,24,45,-2,-32,34,54,37,12,4,9,4
-20,25,45,-2,-32,35,53,39,12,4,9,5
-19,26,46,-3,-32,36,53,41,12,4,10,6
-18,28,46,-4,-32,37,53,43,12,5,11,7
-18,28,46,-4,-33,37,52,44,12,5,11,8
-19,27,46,-4,-33,37,51,45,12,5,12,8
-19,27,46,-4,-33,37,50,46,13,6,13,8
-18,28,46,-5,-32,37,50,47,13,6,14,9
-14,31,46,-9,-30,38,50,49,15,7,15,11
-12,35,47,-11,-29,41,50,50,17,8,17,13
-11,37,48,-13,-29,42,49,51,18,9,19,14
-10,37,48,-13,-29,43,48,51,18,9,19,15
-10,37,47,-14,-29,43,46,50,19,9,20,15
-9,37,47,-14,-28,42,45,50,19,9,20,15
-9,38,47,-14,-28,42,44,49,19,9,21,15
-10,38,48,-14,-29,43,44,49,19,9,21,16
-10,38,49,-14,-29,44,43,48,19,9,22,17
-9,39,48,-15,-28,43,41,47,19,9,22,18
-8,38,47,-15,-27,42,39,45,19,8,22,18
-8,37,45,-15,-26,41,37,43,18,8,22,18
-8,36,44,-14,-26,40,35,41,18,7,22,18
-7,35,42,-14,-25,39,33,39,17,7,22,18
-6,35,41,-15,-23,39,31,37,17,7,22,18
-5,34,40,-15,-22,38,29,35,17,7,22,18
-5,34,40,-14,-22,38,28,33,17,7,23,18
-5,33,39,-14,-22,37,27,31,17,8,23,19
-5,32,38,-13,-21,35,25,28,16,8,23,19
-5,32,36,-13,-21,34,23,24,16,8,23,20
-4,31,35,-13,-20,33,22,21,16,8,23,20
-2,31,33,-14,-18,32,21,18,17,8,24,20
0,32,32,-15,-16,32,21,15,18,9,24,21
1,32,31,-16,-15,32,21,12,18,9,25,22
2,32,31,-17,-14,32,20,9,19,9,25,22
3,31,29,-17,-12,30,19,7,19,9,24,22
4,30,27,-17,-11,28,18,5,18,9,24,21
4,28,24,-16,-10,26,17,3,17,8,23,20
4,27,22,-15,-9,24,16,1,16,8,22,19
3,24,20,-14,-8,23,14,0,15,7,21,18
2,21,19,-12,-8,21,13,-2,14,5,19,17
2,18,17,-10,-7,18,11,-3,13,4,18,15
2,16,14,-9,-6,16,10,-4,12,3,16,14
2,14,12,-8,-4,13,9,-4,11,2,15,13
2,12,10,-7,-3,11,8,-5,10,1,14,13
2,11,7,-7,-2,9,7,-6,10,0,13,12
3,10,5,-7,-1,8,6,-6,9,-1,13,12
4,9,3,-7,0,7,5,-6,8,-2,12,11
4,8,2,-6,1,6,4,-6,7,-3,11,10
3,6,2,-5,0,5,3,-6,7,-4,10,9
1,3,2,-3,0,4,2,-7,6,-5,9,8
0,1,1,-1,0,2,0,-7,6,-6,8,8
0,0,0,0,0,1,0,-8,5,-7,7,7
1,0,-1,-1,1,0,-1,-8,5,-7,7,7
3,1,-2,-2,2,0,-1,-9,5,-7,7,7
4,1,-3,-3,3,0,-2,-10,5,-7,7,7
4,1,-4,-3,4,-1,-3,-11,4,-7,6,6
5,0,-5,-3,4,-2,-4,-12,3,-7,5,5
5,-1,-6,-2,5,-3,-5,-14,2,-8,4,4
5,-3,-7,-1,6,-4,-6,-15,2,-8,3,4
5,-3,-7,-1,6,-5,-7,-17,1,-8,3,3
4,-4,-8,0,6,-5,-7,-18,1,-8,2,3
4,-4,-8,0,6,-5,-7,-19,1,-8,2,3
2,-4,-7,0,5,-5,-7,-20,1,-9,2,2
1,-4,-7,1,4,-5,-8,-22,1,-9,2,2
2,-4,-7,0,5,-5,-8,-24,1,-9,2,1
3,-4,-8,0,6,-6,-9,-25,1,-9,1,1
3,-5,-8,1,6,-6,-9,-26,1,-9,1,0
1,-6,-7,2,5,-6,-10,-27,1,-9,1,0
0,-7,-7,3,4,-6,-10,-28,1,-10,0,0
0,-8,-8,4,4,-7,-10,-29,1,-10,0,0
-1,-8,-8,5,3,-7,-10,-29,0,-10,0,0
-1,-9,-8,5,4,-8,-10,-30,0,-10,0,0
1,-8,-8,3,5,-8,-10,-30,0,-10,0,0
4,-7,-9,1,7,-8,-10,-30,0,-10,0,0
6,-6,-10,0,9,-8,-10,-30,1,-10,0,0
8,-5,-11,-1,10,-8,-10,-30,1,-10,0,0
7,-5,-11,-2,10,-7,-10,-30,2,-10,0,0
6,-4,-11,-2,9,-7,-10,-30,2,-10,0,0
6,-4,-10,-1,8,-7,-10,-30,2,-10,0,0
5,-5,-10,0,8,-7,-10,-30,2,-10,0,0
4,-6,-10,1,7,-8,-10,-30,2,-11,0,0
3,-7,-10,1,7,-8,-11,-30,2,-11,0,0
3,-7,-9,2,7,-8,-11,-30,1,-11,0,-1
3,-8,-10,2,7,-8,-12,-30,1,-12,-1,-1
3,-8,-10,2,8,-9,-12,-31,0,-12,-1,-2
3,-8,-11,2,8,-9,-12,-31,0,-13,-2,-2
4,-8,-11,2,8,-9,-12,-30,0,-13,-2,-3
5,-8,-12,1,9,-9,-12,-30,0,-13,-2,-3
5,-8,-12,1,9,-9,-12,-30,0,-13,-2,-3
4,-8,-11,2,8,-10,-13,-29,0,-13,-2,-3
2,-9,-11,3,8,-10,-13,-29,0,-13,-2,-3
1,-10,-12,4,7,-11,-13,-28,0,-13,-2,-3
1,-10,-12,4,7,-11,-13,-28,0,-13,-2,-3
2,-10,-12,4,7,-11,-13,-27,0,-13,-2,-3
3,-9,-12,3,8,-10,-13,-27,0,-13,-2,-3
4,-8,-13,1,9,-10,-13,-27,0,-13,-2,-3
5,-7,-14,1,10,-11,-13,-28,-1,-13,-2,-3
6,-7,-15,0,11,-11,-13,-28,-1,-13,-2,-4
7,-7,-15,0,11,-11,-13,-28,-2,-13,-2,-4
7,-7,-14,0,11,-10,-13,-29,-3,-13,-2,-4
7,-7,-14,0,11,-10,-13,-29,-4,-12,-2,-3
7,-7,-14,0,11,-10,-13,-30,-4,-12,-2,-3
7,-7,-14,0,11,-9,-14,-31,-4,-11,-2,-3
6,-7,-14,1,10,-10,-14,-33,-5,-11,-2,-3
5,-8,-14,1,10,-11,-15,-34,-6,-11,-3,-4
5,-9,-14,2,9,-11,-15,-35,-6,-11,-3,-4
4,-9,-14,2,9,-11,-15,-35,-6,-11,-3,-4
4,-10,-14,3,9,-12,-16,-36,-7,-12,-3,-5
3,-11,-15,4,9,-12,-16,-36,-7,-12,-4,-5
2,-12,-14,4,8,-12,-16,-36,-7,-11,-4,-5
2,-11,-13,4,8,-12,-16,-36,-7,-11,-4,-5
2,-11,-13,3,8,-11,-16,-35,-7,-10,-4,-4
3,-11,-14,3,9,-12,-17,-35,-7,-10,-4,-4
3,-11,-14,3,9,-12,-17,-35,-8,-10,-4,-4
4,-11,-15,3,9,-12,-17,-34,-8,-10,-4,-4
5,-11,-16,3,10,-13,-17,-34,-8,-10,-4,-5
5,-11,-16,3,10,-13,-17,-33,-8,-10,-4,-5
5,-11,-16,3,10,-13,-17,-32,-9,-10,-4,-5
5,-10,-15,2,10,-12,-17,-31,-9,-10,-4,-5
6,-9,-15,1,11,-12,-17,-30,-8,-9,-3,-5
7,-8,-15,1,11,-11,-17,-29,-8,-9,-3,-5
6,-8,-15,1,10,-11,-17,-29,-9,-10,-4,-5
6,-8,-15,1,11,-11,-17,-28,-9,-10,-4,-5
6,-9,-15,1,11,-12,-17,-26,-9,-10,-4,-5
6,-9,-15,1,11,-12,-17,-25,-9,-10,-4,-5
6,-10,-16,2,11,-13,-17,-23,-10,-11,-4,-5
7,-10,-17,2,12,-13,-18,-22,-10,-11,-4,-6
7,-10,-17,1,13,-13,-18,-20,-11,-11,-4,-6
7,-10,-18,1,13,-13,-18,-19,-11,-11,-4,-6
7,-10,-17,1,13,-13,-18,-17,-11,-11,-5,-6
7,-10,-17,1,13,-13,-18,-16,-11,-11,-5,-6
7,-10,-17,1,13,-13,-18,-14,-11,-11,-5,-6
7,-10,-17,1,13,-13,-17,-13,-11,-11,-5,-6
7,-9,-17,1,12,-13,-17,-13,-10,-11,-5,-6
7,-9,-17,1,12,-13,-17,-12,-10,-11,-5,-6
8,-9,-17,1,12,-13,-18,-12,-11,-12,-5,-6
8,-9,-18,1,12,-13,-18,-13,-11,-12,-5,-6
7,-10,-17,1,12,-13,-18,-13,-11,-12,-5,-6
7,-10,-17,1,12,-13,-18,-14,-11,-12,-5,-6
7,-10,-17,1,12,-13,-18,-15,-11,-12,-5,-6
7,-10,-17,1,12,-13,-18,-16,-11,-12,-5,-6
6,-10,-16,2,12,-13,-18,-17,-11,-12,-5,-6
5,-10,-16,2,11,-13,-18,-19,-10,-12,-5,-6
5,-10,-16,2,11,-13,-18,-21,-11,-13,-5,-7
6,-10,-16,2,12,-13,-18,-23,-11,-13,-5,-7
6,-11,-16,2,12,-14,-19,-25,-11,-14,-5,-7
5,-12,-16,3,11,-14,-19,-27,-11,-14,-5,-7
5,-12,-16,3,11,-14,-19,-29,-10,-15,-5,-7
6,-11,-16,2,12,-14,-19,-30,-10,-15,-5,-7
7,-9,-16,1,12,-13,-19,-31,-9,-15,-5,-6
8,-7,-16,0,13,-12,-19,-32,-9,-14,-4,-6
9,-6,-15,-1,13,-11,-18,-32,-8,-14,-3,-5
8,-6,-14,0,12,-11,-18,-33,-8,-14,-3,-5
7,-7,-14,0,11,-11,-18,-34,-8,-15,-3,-5
7,-8,-14,1,11,-12,-19,-35,-8,-15,-3,-5
7,-9,-15,1,11,-12,-19,-36,-8,-16,-4,-6
7,-10,-15,2,12,-13,-20,-36,-8,-16,-4,-6
7,-10,-16,2,12,-13,-20,-36,-8,-16,-5,-6
7,-9,-16,1,12,-13,-20,-36,-8,-16,-5,-6
7,-9,-15,1,12,-13,-19,-36,-8,-16,-5,-6
6,-9,-15,2,11,-13,-19,-36,-8,-17,-5,-6
5,-10,-15,2,11,-13,-19,-36,-9,-17,-6,-6
5,-10,-15,2,11,-13,-19,-35,-9,-17,-5,-6
6,-9,-15,1,11,-12,-19,-33,-9,-17,-5,-5
6,-9,-15,1,11,-12,-19,-31,-9,-17,-4,-5
7,-9,-15,1,12,-12,-19,-30,-9,-17,-5,-6
7,-9,-16,1,12,-13,-20,-29,-9,-18,-5,-7
7,-10,-17,2,13,-14,-20,-27,-9,-18,-5,-7
7,-11,-18,2,13,-15,-20,-25,-9,-18,-5,-7
7,-11,-17,2,13,-15,-19,-23,-9,-18,-5,-7
6,-11,-16,2,12,-14,-19,-20,-9,-18,-5,-7
6,-10,-16,2,12,-13,-18,-17,-9,-17,-5,-7
6,-10,-15,2,11,-13,-18,-15,-9,-17,-5,-7
6,-9,-15,1,11,-13,-18,-12,-9,-17,-5,-7
7,-8,-15,1,11,-13,-18,-10,-9,-17,-5,-7
7,-7,-14,0,11,-12,-18,-8,-8,-16,-5,-6
7,-7,-14,0,12,-12,-18,-6,-8,-16,-4,-6
8,-7,-15,0,12,-12,-18,-4,-8,-16,-5,-7
7,-8,-15,0,12,-13,-18,-2,-9,-16,-5,-7
6,-8,-15,1,11,-13,-18,0,-8,-16,-5,-7
6,-8,-15,1,11,-12,-17,1,-8,-15,-5,-7
6,-8,-14,1,11,-12,-17,2,-7,-15,-5,-7
6,-8,-14,1,11,-12,-17,2,-7,-15,-5,-7
5,-8,-13,2,10,-12,-17,2,-7,-15,-5,-7
4,-9,-12,2,9,-12,-17,2,-7,-15,-4,-7
4,-9,-12,2,9,-11,-17,2,-7,-15,-4,-6
4,-9,-13,2,9,-11,-17,1,-8,-15,-4,-6
5,-9,-14,2,10,-12,-17,0,-8,-15,-5,-7
5,-10,-14,2,10,-12,-17,-2,-9,-15,-5,-7
5,-10,-14,2,10,-13,-17,-4,-9,-15,-5,-7
6,-9,-14,2,10,-12,-18,-6,-8,-14,-5,-7
7,-8,-14,1,11,-12,-18,-8,-8,-14,-5,-7
7,-7,-14,0,11,-11,-18,-9,-8,-14,-5,-7
6,-7,-14,1,10,-11,-18,-11,-8,-14,-5,-7
5,-8,-14,1,10,-11,-18,-13,-8,-14,-5,-7
4,-8,-13,2,9,-11,-18,-16,-8,-14,-5,-7
4,-8,-13,1,9,-11,-18,-18,-8,-14,-5,-7
5,-7,-13,0,10,-11,-18,-20,-8,-14,-5,-7
6,-7,-14,0,11,-11,-18,-22,-9,-14,-5,-7
7,-8,-14,0,11,-12,-18,-24,-9,-14,-6,-7
7,-8,-14,0,11,-12,-19,-26,-10,-15,-6,-8
7,-9,-15,1,11,-12,-19,-28,-10,-15,-7,-8
7,-9,-16,1,12,-13,-19,-30,-10,-15,-7,-8
7,-9,-16,1,12,-13,-19,-31,-10,-15,-7,-8
6,-9,-15,1,11,-12,-19,-32,-10,-16,-6,-8
6,-9,-15,1,10,-12,-19,-33,-10,-16,-6,-8
6,-9,-14,1,10,-12,-19,-33,-10,-17,-6,-8
4,-10,-14,2,9,-12,-19,-34,-10,-18,-7,-8
3,-10,-13,4,8,-12,-19,-34,-10,-19,-7,-8
3,-9,-13,3,8,-12,-18,-34,-10,-19,-7,-7
5,-8,-13,2,9,-11,-18,-33,-10,-20,-6,-7
6,-8,-14,1,10,-12,-18,-33,-11,-20,-6,-7
6,-8,-14,1,10,-12,-19,-32,-11,-21,-6,-7
6,-8,-14,1,10,-11,-19,-30,-11,-21,-6,-7
6,-8,-13,1,10,-11,-19,-27,-11,-21,-6,-8
6,-8,-13,1,10,-11,-19,-25,-11,-22,-6,-8
6,-8,-13,1,10,-11,-19,-23,-11,-22,-6,-8
6,-7,-13,1,10,-10,-19,-21,-11,-23,-6,-8
7,-7,-13,0,10,-10,-19,-20,-11,-23,-6,-8
6,-7,-13,1,10,-11,-19,-19,-11,-23,-6,-8
5,-8,-13,1,9,-11,-19,-18,-11,-24,-6,-8
5,-8,-13,2,9,-12,-19,-17,-11,-24,-6,-8
5,-9,-14,2,9,-12,-19,-16,-11,-25,-7,-8
5,-9,-14,2,9,-12,-19,-15,-11,-25,-7,-8
6,-8,-13,2,9,-11,-19,-13,-11,-25,-7,-8
6,-8,-14,2,10,-12,-19,-12,-12,-26,-8,-9
6,-9,-14,2,10,-12,-20,-12,-13,-27,-8,-9
4,-9,-14,3,9,-12,-20,-12,-14,-27,-8,-9
2,-10,-13,4,8,-12,-19,-12,-14,-28,-8,-9
2,-9,-12,3,7,-11,-19,-12,-13,-28,-8,-9
5,-8,-12,1,8,-10,-19,-12,-13,-28,-7,-8
6,-6,-12,0,9,-10,-18,-12,-13,-28,-7,-8
7,-6,-12,-1,10,-9,-18,-11,-13,-28,-7,-8
7,-6,-12,0,10,-9,-18,-10,-13,-28,-7,-8
7,-6,-13,0,10,-9,-18,-10,-13,-28,-7,-8
7,-5,-13,-1,10,-9,-18,-9,-13,-28,-7,-7
8,-4,-13,-2,11,-9,-18,-9,-13,-27,-6,-7
8,-4,-12,-2,10,-8,-17,-8,-13,-27,-6,-7
7,-4,-12,-1,10,-8,-17,-8,-13,-28,-6,-7
6,-5,-11,0,9,-9,-17,-8,-14,-28,-7,-8
6,-6,-12,0,8,-9,-18,-9,-14,-28,-7,-8
7,-6,-12,0,9,-10,-18,-10,-15,-28,-8,-8
7,-6,-13,0,10,-10,-18,-11,-14,-28,-8,-8
7,-6,-12,0,9,-9,-17,-13,-14,-28,-7,-8
6,-6,-12,1,9,-9,-17,-15,-13,-28,-7,-8
7,-6,-12,0,10,-9,-17,-18,-13,-28,-6,-8
8,-6,-13,0,11,-10,-17,-21,-13,-29,-6,-8
8,-6,-14,-1,11,-10,-17,-24,-13,-29,-7,-8
8,-6,-14,-1,11,-10,-17,-27,-13,-29,-7,-8
7,-7,-13,0,10,-10,-17,-29,-13,-28,-7,-8
4,-8,-12,2,8,-11,-18,-31,-13,-28,-7,-9
1,-10,-12,5,7,-12,-19,-34,-14,-29,-7,-9
0,-12,-13,6,6,-13,-19,-37,-14,-29,-8,-10
0,-12,-13,6,6,-13,-19,-39,-14,-29,-7,-10
3,-9,-12,3,7,-11,-18,-40,-13,-28,-6,-9
5,-7,-12,1,8,-9,-17,-41,-12,-27,-6,-8
6,-6,-12,0,9,-9,-16,-42,-12,-26,-6,-7
7,-6,-12,0,9,-9,-17,-43,-13,-27,-7,-8
7,-6,-13,0,10,-10,-17,-45,-13,-27,-7,-8
7,-5,-12,0,10,-9,-17,-46,-13,-27,-7,-8
7,-5,-12,0,9,-9,-16,-47,-12,-27,-7,-8
6,-5,-11,0,9,-9,-16,-48,-12,-26,-6,-8
6,-6,-11,0,9,-9,-16,-50,-12,-26,-6,-8
6,-6,-11,1,8,-10,-16,-52,-12,-26,-6,-8
5,-7,-12,2,8,-10,-16,-54,-12,-27,-6,-8
5,-8,-12,2,8,-11,-17,-56,-11,-27,-7,-8
5,-9,-13,2,8,-11,-17,-57,-11,-27,-7,-9
5,-8,-13,2,9,-11,-17,-58,-11,-27,-7,-9
5,-7,-12,1,8,-10,-16,-59,-11,-27,-6,-8
5,-6,-11,0,8,-9,-16,-59,-11,-26,-6,-8
6,-5,-11,0,8,-8,-16,-60,-11,-26,-7,-8
6,-6,-12,0,9,-9,-17,-61,-12,-27,-8,-9
5,-7,-13,1,9,-11,-17,-62,-13,-27,-8,-10
4,-8,-13,2,9,-11,-17,-63,-13,-28,-8,-10
4,-7,-12,1,8,-10,-17,-63,-13,-28,-8,-10
5,-6,-11,0,8,-9,-16,-62,-12,-27,-8,-10
7,-4,-11,-1,9,-8,-16,-61,-12,-27,-7,-9
8,-3,-11,-2,10,-7,-15,-60,-11,-26,-7,-8
8,-3,-11,-2,10,-7,-15,-59,-11,-26,-6,-7
7,-2,-11,-2,9,-7,-15,-58,-11,-26,-6,-7
7,-2,-10,-2,9,-7,-15,-57,-11,-25,-5,-6
6,-3,-10,-1,8,-7,-15,-56,-11,-25,-5,-6
6,-3,-10,-1,8,-7,-15,-57,-12,-25,-5,-6
7,-4,-11,-1,9,-8,-15,-57,-12,-25,-5,-6
7,-5,-11,0,9,-8,-15,-58,-13,-25,-5,-6
6,-6,-12,0,9,-9,-15,-60,-14,-25,-5,-6
6,-6,-12,0,8,-9,-15,-62,-14,-25,-5,-6
5,-6,-11,0,8,-9,-16,-64,-14,-24,-5,-6
6,-5,-12,0,9,-9,-16,-67,-14,-24,-5,-6
6,-5,-12,0,9,-9,-16,-71,-14,-24,-6,-6
6,-5,-12,0,9,-9,-16,-75,-14,-24,-6,-6
6,-6,-12,0,9,-9,-16,-79,-15,-23,-7,-6
5,-7,-12,1,9,-10,-17,-83,-15,-23,-7,-7
3,-9,-12,3,8,-11,-17,-88,-16,-23,-8,-7
3,-9,-12,3,7,-11,-17,-93,-16,-23,-8,-7
4,-8,-12,2,8,-10,-17,-97,-16,-22,-7,-7
6,-6,-12,0,9,-9,-17,-102,-16,-20,-6,-6
6,-5,-11,0,9,-8,-17,-106,-15,-19,-6,-5
6,-4,-10,0,8,-8,-17,-110,-15,-19,-5,-5
6,-4,-9,0,7,-7,-17,-114,-15,-18,-5,-5
6,-3,-9,0,7,-7,-16,-117,-15,-18,-5,-5
6,-3,-9,-1,7,-7,-16,-121,-15,-18,-5,-5
7,-3,-10,-1,8,-8,-16,-124,-16,-18,-5,-5
7,-4,-11,-1,9,-8,-17,-127,-17,-18,-6,-5
7,-4,-11,0,9,-8,-17,-130,-18,-18,-6,-6
6,-5,-12,0,8,-9,-18,-131,-18,-19,-6,-6
4,-6,-11,1,7,-9,-17,-132,-19,-19,-6,-6
3,-7,-10,2,6,-8,-17,-131,-19,-19,-6,-6
3,-7,-10,2,6,-8,-17,-130,-19,-19,-6,-6
3,-6,-10,1,7,-8,-17,-128,-19,-19,-6,-6
4,-6,-10,1,7,-8,-17,-125,-19,-19,-6,-6
5,-6,-10,1,7,-8,-17,-122,-20,-19,-6,-6
5,-6,-10,1,7,-8,-17,-117,-20,-19,-6,-6
6,-6,-11,0,8,-8,-17,-112,-21,-19,-6,-6
5,-6,-11,1,7,-8,-17,-107,-21,-19,-6,-6
3,-7,-10,1,7,-8,-17,-101,-21,-19,-6,-6
3,-6,-10,1,6,-7,-17,-94,-21,-19,-6,-6
3,-5,-9,0,6,-7,-17,-87,-21,-19,-6,-6
4,-5,-9,0,7,-7,-17,-80,-21,-19,-7,-6
5,-4,-9,0,7,-7,-17,-72,-21,-19,-7,-6
6,-4,-10,-1,8,-7,-17,-64,-21,-19,-7,-5
7,-3,-10,-1,8,-7,-17,-57,-21,-19,-7,-5
7,-3,-11,-1,8,-7,-17,-49,-21,-19,-7,-5
7,-3,-11,-1,9,-7,-17,-40,-21,-19,-7,-6
7,-3,-11,-1,9,-7,-17,-32,-21,-18,-7,-6
8,-3,-11,-2,9,-7,-17,-25,-20,-18,-7,-6
8,-4,-12,-2,10,-8,-17,-18,-20,-18,-7,-6
7,-5,-11,-1,9,-9,-17,-11,-20,-18,-7,-6
5,-6,-10,0,8,-9,-16,-5,-19,-18,-7,-6
4,-7,-10,1,7,-9,-16,1,-19,-18,-7,-6
5,-6,-11,1,8,-9,-16,6,-19,-18,-7,-6
6,-6,-12,0,9,-9,-16,11,-19,-17,-7,-6
6,-5,-11,0,8,-8,-16,16,-19,-16,-7,-5
5,-4,-10,0,7,-7,-15,20,-18,-15,-6,-5
4,-5,-9,0,6,-7,-15,22,-18,-15,-6,-5
2,-7,-9,2,5,-8,-16,24,-18,-15,-7,-5
1,-8,-9,4,4,-9,-16,25,-18,-15,-7,-6
1,-7,-8,3,5,-8,-15,26,-17,-14,-7,-5
4,-4,-8,0,5,-6,-14,27,-17,-13,-6,-5
5,-1,-7,-1,6,-4,-13,29,-16,-12,-5,-4
5,0,-6,-2,5,-2,-13,30,-16,-11,-4,-4
5,1,-5,-3,5,-1,-12,30,-16,-10,-4,-4
6,1,-5,-3,5,-1,-12,30,-16,-9,-4,-5
7,2,-5,-4,6,-1,-11,30,-16,-8,-4,-5
8,2,-5,-5,6,-1,-11,30,-16,-8,-4,-5
7,1,-5,-4,6,-1,-11,29,-16,-7,-4,-5
6,0,-5,-3,5,-1,-11,28,-16,-7,-4,-5
5,0,-5,-2,5,-2,-11,27,-17,-7,-4,-5
5,0,-5,-2,4,-2,-11,26,-18,-7,-4,-5
5,0,-6,-2,4,-2,-11,24,-18,-6,-4,-5
6,0,-6,-3,5,-2,-11,23,-18,-5,-3,-4
7,1,-6,-4,6,-1,-10,21,-18,-4,-3,-3
8,2,-5,-5,6,0,-10,19,-18,-2,-2,-2
7,3,-4,-5,5,0,-10,17,-18,-1,-1,-1
6,3,-2,-5,4,1,-10,15,-18,-1,-1,-1
5,4,-1,-5,3,2,-10,13,-17,0,0,-1
3,3,0,-4,2,2,-10,11,-17,0,0,-1
1,2,0,-2,0,1,-10,9,-16,0,0,-2
0,1,0,-1,0,1,-11,6,-16,0,-1,-2
0,1,0,-1,0,1,-12,3,-16,0,-1,-2
3,4,1,-4,1,3,-12,1,-15,1,-1,-1
5,8,2,-7,2,5,-12,0,-14,3,0,0
6,9,2,-8,2,5,-13,-3,-15,4,0,1
6,9,1,-8,2,5,-15,-6,-16,4,0,1
7,9,0,-8,3,4,-16,-9,-16,4,0,1
8,9,0,-8,4,4,-16,-12,-16,5,0,1
8,9,0,-8,4,4,-17,-15,-16,5,0,2
8,9,0,-8,4,5,-17,-17,-16,6,0,2
8,9,1,-8,3,5,-17,-20,-15,6,0,3
7,8,2,-7,2,5,-17,-23,-15,7,0,3
6,8,2,-7,1,6,-17,-26,-15,7,0,4
7,9,2,-8,1,6,-17,-29,-15,8,1,4
8,9,1,-9,2,6,-16,-33,-15,8,1,4
9,9,0,-9,3,6,-16,-36,-15,9,1,3
10,9,0,-10,4,6,-16,-40,-15,9,1,3
10,9,0,-9,4,5,-16,-43,-16,9,1,2
8,8,0,-8,4,5,-16,-47,-16,9,0,2
6,6,0,-6,2,4,-17,-50,-17,8,0,1
3,4,0,-3,1,2,-17,-53,-18,8,0,1
1,2,0,-2,0,1,-18,-56,-19,8,-1,0
3,2,-2,-3,2,0,-18,-58,-20,8,-1,0
5,3,-2,-4,3,1,-17,-60,-19,8,-1,0
5,4,-2,-5,3,1,-17,-62,-18,9,-1,0
5,4,-1,-4,3,2,-17,-64,-18,9,-1,0
4,3,-1,-3,3,1,-17,-67,-17,9,-2,0
4,3,-1,-3,3,1,-16,-69,-17,9,-2,-1
5,3,-1,-4,3,1,-15,-70,-16,9,-2,-1
4,3,-2,-3,3,0,-15,-71,-17,9,-2,-1
3,1,-3,-2,3,-1,-15,-73,-17,9,-3,-1
2,-1,-4,0,3,-3,-16,-75,-18,8,-4,-2
2,-1,-4,0,3,-3,-15,-76,-17,8,-4,-1
3,-1,-4,-1,3,-2,-15,-77,-17,8,-3,-1
4,0,-5,-1,4,-2,-15,-78,-17,7,-3,-1
5,0,-6,-2,5,-3,-15,-79,-17,7,-3,-1
6,0,-6,-2,6,-3,-15,-80,-16,7,-3,0
6,0,-6,-2,6,-3,-15,-80,-16,8,-2,0
5,0,-6,-2,5,-3,-15,-81,-16,8,-2,0
5,0,-6,-1,5,-3,-15,-81,-16,8,-2,0
5,0,-7,-1,5,-3,-15,-81,-16,8,-2,0
4,-2,-7,0,5,-4,-15,-81,-16,8,-3,0
4,-4,-8,0,6,-5,-15,-81,-17,7,-3,-1
4,-6,-9,1,6,-6,-16,-81,-18,6,-4,-2
3,-7,-9,2,5,-7,-16,-81,-18,6,-5,-3
3,-6,-9,1,5,-6,-15,-79,-18,6,-4,-2
4,-4,-8,0,6,-5,-15,-78,-18,6,-4,-2
5,-2,-8,-1,6,-5,-14,-76,-17,6,-3,-1
4,-1,-7,-1,5,-4,-14,-75,-17,7,-3,-1
3,-1,-5,-1,4,-3,-14,-73,-16,7,-2,-1
3,-1,-4,-1,3,-2,-14,-72,-16,7,-2,-1
3,-1,-4,-1,3,-2,-14,-71,-16,7,-2,-1
3,-2,-4,0,3,-2,-14,-70,-15,7,-2,0
2,-2,-4,0,3,-2,-14,-69,-15,7,-2,0
2,-2,-4,0,3,-2,-14,-68,-15,7,-2,0
2,-2,-5,0,3,-3,-14,-68,-15,7,-2,0
2,-2,-5,0,4,-3,-14,-67,-15,7,-2,0
3,-2,-6,0,4,-4,-14,-66,-15,7,-2,0
4,-1,-6,0,5,-4,-14,-66,-15,6,-2,0
5,-1,-6,0,5,-4,-14,-65,-15,6,-2,0
5,-1,-7,0,5,-4,-13,-65,-15,6,-2,0
5,-2,-7,0,5,-4,-13,-64,-15,6,-3,0
4,-3,-8,0,5,-5,-14,-63,-16,5,-3,0
2,-5,-8,2,5,-7,-15,-62,-17,5,-4,-1
0,-7,-8,4,4,-7,-15,-60,-18,4,-5,-1
0,-6,-7,3,4,-7,-15,-57,-18,4,-5,-1
2,-5,-8,1,5,-6,-15,-55,-18,4,-4,-1
4,-4,-9,0,6,-6,-15,-52,-18,5,-4,0
4,-3,-8,0,5,-5,-14,-50,-17,5,-3,0
3,-3,-7,0,4,-5,-14,-48,-17,6,-3,0
3,-3,-7,0,4,-5,-13,-47,-16,6,-3,1
3,-4,-8,0,5,-5,-13,-46,-16,7,-3,1
2,-4,-7,1,5,-5,-13,-46,-16,7,-3,1
2,-5,-7,2,4,-5,-13,-45,-16,7,-3,1
2,-5,-7,2,4,-6,-14,-45,-17,7,-3,1
2,-5,-8,2,5,-6,-14,-45,-17,7,-3,1
3,-5,-9,2,6,-7,-15,-44,-18,7,-3,1
4,-5,-10,1,6,-7,-15,-43,-19,7,-3,1
3,-5,-9,1,5,-6,-15,-41,-19,7,-3,1
2,-5,-7,1,4,-5,-14,-39,-19,7,-3,1
1,-5,-6,1,3,-5,-14,-36,-19,8,-3,1
1,-4,-6,1,3,-5,-14,-34,-19,8,-3,1
0,-5,-6,1,3,-5,-15,-32,-19,8,-3,1
0,-7,-7,3,3,-6,-16,-30,-19,8,-4,1
0,-8,-8,4,3,-7,-16,-29,-19,8,-4,0
0,-8,-8,4,4,-8,-16,-27,-19,9,-4,1
1,-6,-8,3,4,-7,-16,-24,-18,10,-3,2
2,-5,-8,1,4,-6,-15,-22,-17,12,-3,3
3,-4,-8,0,5,-5,-14,-21,-17,14,-3,3
4,-4,-8,0,6,-5,-14,-20,-17,14,-3,3
4,-4,-9,0,6,-6,-14,-20,-18,15,-3,3
4,-5,-10,0,7,-7,-15,-21,-19,15,-3,3
4,-6,-10,1,7,-8,-15,-22,-19,15,-3,2
2,-7,-10,2,6,-8,-15,-23,-19,15,-3,2
1,-8,-9,3,4,-8,-15,-24,-19,16,-3,3
1,-7,-9,3,5,-8,-15,-24,-20,17,-3,3
2,-7,-10,2,5,-8,-16,-25,-20,18,-3,3
2,-7,-10,3,5,-8,-17,-25,-21,19,-3,3
1,-7,-9,3,5,-8,-17,-24,-22,19,-3,3
0,-7,-8,4,4,-8,-17,-23,-22,20,-2,4
1,-6,-7,3,4,-7,-16,-22,-21,21,-1,4
1,-5,-7,2,4,-6,-16,-21,-21,22,-1,5
2,-5,-7,2,4,-6,-16,-21,-21,23,-1,5
2,-6,-8,2,5,-7,-16,-21,-22,24,-1,5
2,-7,-9,2,5,-8,-17,-20,-22,24,-1,5
2,-8,-10,2,6,-9,-17,-20,-22,25,-2,5
1,-8,-11,3,6,-9,-17,-20,-22,26,-2,5
1,-8,-11,3,6,-9,-17,-20,-22,27,-2,5
1,-7,-10,3,6,-8,-17,-20,-22,28,-2,5
1,-7,-9,4,5,-8,-17,-21,-21,30,-1,5
1,-7,-9,4,4,-8,-17,-21,-21,31,-1,5
2,-7,-9,3,5,-7,-17,-22,-21,33,0,5
2,-7,-9,2,5,-7,-17,-22,-20,34,0,6
1,-7,-9,3,5,-7,-17,-23,-20,35,0,6
0,-8,-9,4,5,-8,-18,-25,-21,35,0,6
-1,-9,-9,5,5,-9,-19,-26,-22,36,0,6
-1,-10,-10,6,5,-10,-19,-26,-23,36,-1,5
0,-9,-10,4,5,-9,-19,-26,-23,37,-1,5
1,-7,-9,3,5,-8,-19,-25,-24,39,0,6
2,-6,-9,2,5,-7,-18,-22,-24,41,0,7
2,-6,-8,2,5,-7,-18,-19,-24,42,0,7
2,-5,-8,2,5,-7,-18,-16,-24,43,0,7
2,-5,-9,1,5,-7,-18,-13,-24,44,0,7
2,-5,-9,1,5,-7,-18,-10,-23,45,0,8
2,-5,-8,2,5,-7,-17,-7,-23,45,1,9
2,-6,-8,2,5,-7,-17,-4,-22,46,1,9
2,-6,-9,2,5,-7,-18,-2,-22,47,1,9
1,-7,-9,3,5,-8,-18,0,-23,47,0,9
1,-8,-10,3,5,-9,-19,2,-23,48,0,8
1,-8,-10,3,5,-9,-19,5,-23,49,0,8
1,-7,-9,3,5,-8,-18,8,-23,50,1,8
1,-7,-9,3,5,-8,-18,11,-22,51,1,8
0,-8,-9,4,5,-8,-18,14,-22,51,1,8
0,-9,-9,5,5,-9,-18,17,-22,52,1,8
0,-10,-10,5,5,-10,-18,20,-22,52,1,9
0,-10,-10,4,5,-10,-18,24,-21,52,1,9
0,-10,-10,4,5,-10,-18,28,-21,52,0,9
0,-10,-10,5,5,-10,-18,32,-21,52,0,9
0,-10,-10,5,5,-9,-18,35,-21,52,0,9
0,-9,-10,4,5,-8,-17,38,-21,52,0,9
1,-9,-10,4,5,-8,-17,40,-21,52,0,9
1,-9,-10,4,6,-8,-17,41,-21,52,0,9
2,-8,-10,2,6,-8,-16,41,-20,53,0,9
3,-7,-9,1,6,-7,-16,42,-20,53,1,10
4,-6,-9,1,6,-7,-16,43,-19,54,1,11
4,-5,-10,0,7,-7,-16,43,-19,54,1,11
4,-5,-10,0,7,-7,-16,43,-20,54,0,11
2,-6,-10,2,7,-7,-16,43,-20,54,0,11
1,-7,-10,3,6,-8,-16,44,-20,54,0,11
2,-7,-10,2,6,-8,-15,46,-20,54,0,12
2,-6,-10,2,6,-7,-14,49,-20,54,0,12
3,-7,-10,2,6,-8,-14,52,-20,54,0,12
3,-8,-11,2,7,-9,-14,56,-20,54,0,12
3,-8,-12,2,7,-10,-13,59,-19,54,0,12
3,-9,-13,2,8,-10,-12,63,-17,56,0,12
3,-9,-13,2,8,-10,-10,66,-14,58,1,13
4,-9,-14,2,9,-10,-8,68,-11,61,2,14
7,-8,-16,1,11,-11,-5,71,-7,63,3,15
9,-8,-18,0,14,-12,0,73,-3,66,5,16
11,-8,-20,-1,16,-13,6,75,2,69,6,17
14,-7,-22,-3,18,-14,12,77,8,73,9,19
18,-4,-23,-7,21,-13,17,78,15,79,13,22
23,1,-23,-12,23,-11,21,77,25,88,21,28
27,8,-20,-18,25,-6,24,75,37,100,31,36
32,18,-15,-25,24,1,27,72,51,115,44,46
36,29,-9,-32,23,10,29,68,68,132,59,58
40,39,-2,-39,22,18,27,60,83,149,74,71
44,49,4,-46,20,27,20,51,97,166,89,83
47,59,11,-52,18,35,7,39,108,180,103,95
51,69,17,-59,16,43,-10,27,114,191,116,106
54,80,25,-67,14,52,-30,16,114,198,125,115
54,90,35,-72,9,63,-54,6,107,198,129,121
49,97,47,-73,1,72,-78,-1,94,194,129,122
41,97,54,-69,-6,76,-97,-7,79,184,122,117
34,91,56,-63,-10,74,-106,-9,64,170,110,107
26,82,55,-54,-14,69,-108,-8,51,154,94,95
17,72,54,-44,-18,63,-105,-4,37,137,76,79
8,60,52,-34,-21,56,-99,1,22,118,57,62
0,50,49,-25,-24,49,-93,6,6,101,40,47
-6,41,46,-17,-25,43,-88,10,-8,87,27,36
-9,35,43,-13,-25,38,-82,13,-20,78,18,29
-9,30,38,-10,-23,34,-74,16,-25,72,13,24
-9,24,33,-7,-21,29,-65,18,-25,69,9,21
-10,19,29,-4,-20,24,-56,21,-25,67,7,19
-10,16,26,-3,-18,21,-48,23,-23,65,5,18
-9,14,23,-2,-16,19,-39,27,-21,64,3,17
-8,12,20,-1,-14,16,-29,33,-18,64,2,16
-8,8,16,0,-12,12,-20,38,-16,63,0,14
-8,4,11,2,-9,7,-13,43,-14,63,0,13
-7,0,6,3,-6,3,-8,48,-13,62,-1,11
-6,-2,3,4,-4,1,-4,51,-13,62,-2,10
-6,-2,3,4,-4,0,-1,54,-13,62,-3,10
-7,-1,4,4,-6,1,0,56,-13,62,-3,9
-7,-1,6,5,-6,2,2,57,-13,61,-4,9
-6,0,6,4,-6,2,3,55,-14,61,-5,8
-6,0,5,4,-5,2,4,53,-15,60,-6,8
-6,-1,5,4,-5,1,4,49,-16,60,-8,7
-7,-2,4,5,-5,1,4,44,-17,59,-9,6
-8,-3,4,6,-5,0,4,38,-18,59,-10,5
-9,-5,3,7,-6,0,4,31,-20,57,-11,4
-9,-6,3,7,-6,0,3,23,-21,56,-12,3
-9,-6,3,8,-6,-1,3,15,-21,55,-12,2
-9,-7,3,8,-7,-1,3,7,-22,54,-13,2
-10,-7,3,9,-7,-2,3,-1,-23,55,-13,2
-11,-8,2,10,-7,-2,4,-9,-23,56,-14,2
-12,-9,1,11,-7,-3,4,-17,-23,57,-14,2
-12,-9,1,10,-6,-4,5,-25,-23,58,-14,2
-11,-9,0,10,-6,-4,5,-32,-24,58,-14,3
-10,-9,0,10,-5,-4,5,-38,-25,58,-15,3
-10,-9,0,10,-5,-4,5,-43,-25,57,-15,2
-11,-10,0,11,-6,-5,5,-46,-25,56,-16,2
-12,-12,-1,12,-6,-6,5,-48,-25,56,-16,1
-12,-13,-1,13,-5,-7,5,-48,-25,55,-17,1
-12,-13,-1,13,-5,-7,6,-45,-25,55,-17,1
-12,-12,-1,12,-5,-7,6,-41,-25,56,-17,1
-11,-10,-1,11,-4,-6,7,-37,-25,56,-17,1
-10,-10,-1,10,-4,-5,7,-34,-25,57,-17,1
-10,-10,-1,10,-4,-5,8,-33,-25,57,-17,1
-10,-11,-1,10,-4,-6,8,-31,-25,57,-17,1
-10,-11,-2,11,-4,-7,8,-29,-25,58,-17,1
-10,-12,-3,11,-3,-7,8,-26,-25,58,-17,1
-9,-13,-4,11,-2,-8,9,-22,-25,58,-17,1
-9,-13,-5,11,-1,-9,9,-17,-26,58,-18,1
-9,-14,-6,11,-1,-10,9,-14,-26,58,-18,0
-9,-14,-5,11,-2,-10,9,-11,-26,58,-18,0
-9,-13,-4,11,-2,-9,10,-9,-25,59,-18,0
-10,-13,-3,11,-3,-8,10,-8,-25,59,-18,0
-11,-12,-1,12,-5,-7,11,-7,-24,60,-18,0
-12,-12,0,12,-6,-6,11,-5,-23,60,-18,0
-12,-11,1,12,-6,-5,12,-3,-23,60,-18,-1
-13,-11,1,12,-7,-5,12,-1,-23,60,-18,-1
-12,-11,0,12,-6,-6,12,0,-23,59,-18,0
-12,-12,-1,11,-5,-6,12,0,-22,59,-18,0
-12,-12,-1,11,-5,-7,13,0,-22,59,-18,0
-12,-12,-2,11,-5,-7,13,1,-22,60,-18,0
-11,-12,-2,11,-4,-7,13,2,-22,60,-18,0
-11,-12,-3,11,-4,-7,13,4,-22,60,-18,0
-11,-12,-3,11,-4,-7,13,6,-22,61,-18,1
-11,-12,-3,12,-4,-7,14,8,-22,62,-18,0
-11,-13,-3,12,-4,-8,14,9,-22,63,-19,0
-11,-14,-3,13,-4,-9,14,11,-22,63,-20,-1
-11,-14,-3,13,-4,-9,14,14,-22,62,-20,-2
-11,-14,-3,13,-4,-9,15,18,-22,62,-20,-2
-11,-14,-3,12,-4,-9,15,23,-22,61,-20,-2
-10,-12,-2,11,-4,-7,16,30,-21,60,-19,-2
-10,-10,0,10,-5,-6,18,37,-20,60,-18,-1
-10,-9,0,10,-5,-5,19,44,-19,60,-18,0
-11,-9,1,10,-6,-4,20,51,-19,61,-17,1
-11,-9,1,11,-6,-4,21,58,-18,61,-17,1
-12,-10,1,12,-6,-5,21,64,-18,61,-17,1
-13,-11,1,12,-7,-6,21,71,-18,61,-17,1
-14,-12,1,13,-7,-6,22,79,-18,60,-16,2
-14,-12,1,13,-7,-6,22,86,-19,60,-16,2
-14,-12,1,13,-7,-6,23,94,-19,59,-16,2
-13,-12,1,12,-7,-6,24,101,-19,59,-16,2
-13,-11,1,12,-7,-6,24,108,-19,59,-17,1
-13,-11,1,12,-7,-5,25,115,-19,58,-17,1
-13,-10,2,12,-7,-4,25,121,-19,58,-18,0
-12,-9,2,11,-7,-3,26,127,-19,58,-18,0
-12,-8,3,10,-7,-2,27,134,-18,59,-18,0
-12,-7,3,9,-8,-2,28,141,-18,59,-18,0
-12,-7,4,10,-8,-2,28,147,-18,60,-17,0
-13,-8,4,11,-9,-2,29,152,-19,60,-17,0
-14,-8,5,12,-9,-2,29,157,-19,60,-17,0
-15,-8,5,12,-9,-2,30,162,-18,62,-17,0
-14,-7,6,11,-9,-1,31,166,-17,64,-16,0
-13,-6,6,9,-9,0,32,169,-16,65,-16,0
-12,-5,6,8,-9,0,33,171,-16,66,-16,0
-11,-4,5,7,-8,1,34,172,-15,67,-16,0
-10,-4,6,7,-8,1,34,173,-15,68,-15,0
-10,-3,7,7,-8,2,35,174,-15,68,-15,1
-11,-3,8,7,-9,2,36,176,-15,69,-14,1
-12,-3,9,8,-10,3,36,179,-14,70,-14,1
-12,-2,9,7,-10,3,37,183,-14,71,-14,2
-11,-2,9,6,-9,3,38,185,-13,72,-14,2
-11,-1,9,6,-10,3,39,185,-13,73,-14,2
-12,-1,11,6,-11,4,40,181,-13,74,-13,2
-12,0,12,6,-12,6,40,174,-12,74,-13,3
-12,0,13,6,-12,6,41,165,-11,74,-12,4
-12,1,13,6,-12,6,41,158,-10,75,-12,4
-12,2,14,5,-12,7,42,157,-10,75,-11,4
-13,3,15,5,-13,8,43,162,-9,76,-11,4
-13,4,16,4,-14,9,44,171,-8,77,-10,4
-13,4,17,4,-15,10,44,179,-8,78,-10,4
-13,4,17,5,-15,10,44,183,-8,78,-11,4
-13,4,18,5,-16,11,44,184,-8,78,-11,3
-13,6,19,3,-16,13,45,181,-7,78,-10,4
-12,8,20,2,-16,14,45,175,-6,79,-9,5
-12,10,21,1,-16,15,46,165,-5,80,-8,6
-12,10,21,0,-16,15,46,151,-4,81,-7,6
-12,11,21,0,-16,15,46,134,-4,81,-6,7
-11,11,21,0,-16,15,46,115,-3,82,-5,7
-11,11,22,0,-16,15,46,97,-2,82,-5,8
-11,11,22,1,-16,15,46,79,-2,82,-5,8
-12,10,22,1,-17,16,46,63,-2,82,-5,9
-11,11,22,1,-16,16,46,49,-2,82,-4,9
-11,12,22,0,-16,16,45,37,-2,82,-4,10
-10,14,23,-1,-16,18,45,26,-1,82,-3,10
-11,16,26,-2,-18,20,46,17,0,83,-1,11
-12,16,28,-2,-19,21,46,8,0,84,0,12
-12,17,29,-2,-20,22,46,1,1,84,0,13
-12,17,29,-3,-20,23,46,-4,2,84,1,13
-11,18,29,-4,-20,23,46,-8,3,83,1,14
-10,19,29,-4,-19,24,46,-10,3,83,2,14
-10,19,29,-4,-19,24,45,-9,4,83,2,14
-10,19,29,-4,-19,24,44,-7,4,83,2,14
-11,19,30,-4,-20,24,43,-5,4,82,2,13
-11,20,30,-4,-20,25,43,-2,4,83,3,13
-10,22,32,-6,-20,27,43,0,5,83,4,14
-9,25,34,-7,-21,29,43,3,6,83,5,15
-10,26,36,-8,-22,31,43,6,7,83,6,16
-9,28,37,-9,-22,32,43,9,7,83,7,17
-9,29,38,-10,-23,33,43,12,8,84,8,18
-9,30,38,-10,-23,34,42,14,9,84,9,19
-9,31,39,-11,-23,34,42,16,9,84,9,20
-9,31,39,-11,-23,34,41,18,10,84,10,20
-8,31,39,-11,-23,34,41,21,10,84,10,21
-7,31,38,-11,-22,34,40,26,10,84,11,21
-5,32,37,-13,-21,34,40,32,10,84,11,21
-3,33,37,-14,-20,35,40,40,11,84,11,22
-3,33,37,-15,-20,35,40,48,11,85,12,23
-4,34,38,-15,-20,36,40,54,12,85,13,24
-5,34,39,-15,-21,36,39,57,12,85,14,24
-5,36,41,-15,-23,38,39,59,13,85,15,25
-5,37,42,-16,-23,39,38,58,13,85,16,26
-4,39,43,-16,-23,40,38,55,14,86,17,27
-4,39,43,-17,-23,41,36,53,14,86,17,28
-3,39,43,-17,-23,41,35,50,14,86,18,29
-3,39,43,-17,-23,41,33,48,15,86,19,30
-4,38,42,-17,-23,40,32,47,15,86,19,30
-3,38,40,-17,-22,39,31,44,15,86,20,31
-3,37,39,-17,-21,38,30,41,14,85,20,31
-3,37,39,-17,-20,37,28,39,14,85,20,31
-3,36,38,-16,-20,36,27,36,14,84,20,31
-3,35,38,-15,-20,36,26,33,14,84,21,31
-3,34,37,-15,-20,35,25,31,14,83,21,31
-2,34,37,-16,-19,35,23,30,14,83,21,31
-1,34,36,-17,-18,35,21,28,14,82,21,32
0,35,34,-18,-16,35,19,26,14,82,21,32
4,36,32,-20,-13,34,18,22,15,82,22,34
6,37,30,-22,-11,34,17,19,15,82,23,35
8,38,30,-23,-10,34,16,16,16,83,24,36
9,38,29,-24,-9,33,16,16,17,83,25,36
10,37,27,-23,-8,32,15,18,17,82,24,35
9,36,26,-22,-8,30,14,24,17,82,24,35
9,35,25,-22,-8,29,13,31,17,81,24,35
8,34,24,-21,-7,28,13,39,17,81,23,34
8,32,23,-20,-7,27,12,45,17,80,23,34
8,31,22,-19,-6,26,11,50,17,78,22,33
8,29,20,-18,-6,24,10,53,16,77,21,32
8,27,19,-17,-5,22,9,55,16,75,20,31
7,25,18,-16,-5,21,8,56,15,74,19,30
7,23,16,-14,-4,19,7,58,14,72,18,29
6,20,13,-13,-3,16,5,58,13,70,16,28
5,16,11,-11,-2,14,4,59,12,68,15,26
4,13,8,-9,-1,11,3,58,11,66,13,25
4,11,6,-7,0,9,2,56,10,65,12,24
4,9,5,-6,0,7,1,52,9,63,11,22
5,9,3,-6,1,6,0,47,8,62,10,21
6,9,2,-7,2,5,0,41,7,62,9,21
7,9,1,-8,3,5,0,34,7,61,9,21
8,8,0,-8,4,4,-1,26,7,61,9,21
8,7,-2,-8,5,3,-2,17,6,60,9,21
8,6,-3,-7,5,2,-2,9,6,59,8,20
7,5,-3,-6,5,2,-3,2,6,58,8,20
7,5,-3,-6,5,1,-3,-3,6,57,8,20
7,4,-3,-5,5,1,-3,-9,5,56,8,20
6,3,-3,-4,5,0,-4,-14,4,55,7,19
6,2,-4,-3,6,-1,-5,-19,3,54,6,18
5,1,-5,-2,6,-1,-5,-23,3,53,5,17
5,0,-5,-2,6,-2,-6,-26,2,52,4,16
5,0,-6,-2,6,-3,-7,-29,1,51,3,15
7,0,-7,-3,7,-4,-8,-31,1,51,3,14
8,0,-8,-3,8,-4,-8,-33,1,51,3,13
8,0,-8,-3,9,-5,-8,-34,0,50,3,13
8,0,-9,-2,9,-5,-9,-35,0,50,2,12
7,-2,-9,-1,9,-6,-9,-36,0,49,2,11
6,-3,-9,0,8,-7,-9,-36,-1,49,2,10
5,-5,-10,0,8,-8,-10,-36,-1,48,1,9
4,-7,-11,1,8,-10,-11,-35,-2,46,0,8
5,-8,-13,1,9,-11,-11,-34,-2,45,0,8
7,-6,-14,0,11,-11,-11,-34,-2,45,0,8
9,-4,-14,-2,12,-10,-11,-34,-1,45,0,9
9,-3,-14,-2,12,-9,-10,-36,-1,45,0,9
8,-3,-13,-2,11,-8,-10,-39,0,45,1,9
6,-4,-11,-1,10,-8,-9,-42,0,45,1,9
5,-3,-9,0,8,-7,-9,-45,0,45,2,9
5,-2,-9,-1,8,-6,-8,-46,1,45,2,9
7,-2,-9,-2,9,-6,-8,-47,1,45,2,9
7,-2,-9,-2,9,-6,-8,-52,2,44,1,8
7,-2,-10,-2,9,-6,-8,-67,2,44,1,8
7,-3,-10,-1,9,-7,-8,-88,1,43,0,7
7,-4,-11,-1,10,-8,-9,-97,1,42,0,6
7,-5,-12,0,10,-9,-8,-71,1,42,0,6
7,-5,-12,0,10,-9,-7,-12,2,42,0,6
7,-4,-12,-1,10,-9,-5,64,3,42,0,6
7,-4,-12,-1,10,-9,-4,138,3,41,0,6
7,-4,-12,-1,10,-9,-3,192,4,40,0,6
7,-4,-12,-1,10,-9,-3,213,4,39,0,6
7,-5,-13,0,11,-9,-3,199,4,37,0,6
6,-7,-14,0,11,-10,-4,163,3,36,0,5
5,-8,-14,1,11,-11,-5,122,3,34,-1,5
5,-8,-15,2,11,-12,-5,93,3,33,-2,4
5,-8,-14,1,11,-11,-5,93,3,33,-1,5
6,-6,-13,0,11,-10,-4,126,4,33,0,6
6,-5,-12,0,10,-9,-3,184,4,33,0,6
6,-5,-11,0,9,-9,-2,249,5,33,0,7
5,-6,-11,1,8,-9,-1,301,6,33,1,7
5,-6,-11,1,9,-9,0,340,6,33,2,7
6,-5,-12,0,9,-9,1,374,6,33,2,7
5,-6,-12,1,9,-9,1,403,6,32,1,7
5,-7,-12,2,9,-9,1,412,6,31,1,7
4,-8,-12,2,9,-10,1,396,5,30,0,6
4,-8,-12,3,9,-10,1,354,4,30,0,6
4,-7,-12,2,9,-10,0,292,4,29,0,6
5,-7,-13,2,10,-10,-1,213,4,29,0,6
5,-7,-13,1,10,-10,-2,123,3,28,0,6
6,-7,-13,0,10,-10,-3,27,3,27,0,6
7,-6,-13,0,11,-9,-4,-68,3,26,0,6
8,-5,-14,0,11,-10,-5,-158,3,25,0,6
7,-6,-14,0,11,-10,-6,-238,3,25,0,5
6,-6,-14,1,10,-10,-7,-305,3,24,0,5
6,-7,-14,1,10,-11,-8,-360,3,23,-1,4
5,-7,-14,1,10,-11,-9,-403,3,22,-1,3
4,-8,-14,2,10,-11,-9,-430,2,21,-1,3
3,-8,-13,3,9,-11,-10,-439,2,20,-1,3
3,-9,-12,3,8,-11,-10,-431,2,19,-2,3
3,-8,-12,2,8,-10,-9,-411,2,19,-2,3
4,-7,-12,2,8,-10,-8,-390,2,19,-1,3
5,-6,-13,1,9,-9,-8,-373,2,19,-1,3
6,-6,-13,0,10,-10,-8,-362,2,18,-1,3
6,-7,-14,1,10,-10,-8,-354,2,17,-1,3
5,-7,-13,2,10,-10,-8,-346,2,17,-1,3
5,-7,-12,2,9,-10,-7,-335,3,16,-1,3
5,-6,-12,1,9,-9,-7,-323,3,16,-1,3
6,-6,-12,1,10,-9,-7,-309,4,16,-1,3
6,-6,-12,1,10,-10,-7,-294,4,16,-2,3
5,-7,-12,1,9,-9,-7,-280,4,16,-2,3
5,-6,-11,1,8,-8,-6,-267,4,16,-2,3
5,-5,-11,1,8,-7,-6,-254,5,16,-1,3
5,-5,-11,0,8,-7,-5,-243,5,16,-1,3
6,-4,-11,0,9,-7,-5,-234,5,15,-1,3
7,-4,-12,0,9,-8,-5,-224,5,14,-2,2
6,-5,-12,0,9,-8,-5,-214,5,13,-2,1
4,-6,-11,2,8,-9,-5,-202,5,13,-2,0
2,-8,-11,3,7,-9,-5,-189,5,13,-2,0
2,-9,-12,4,7,-10,-5,-176,4,12,-3,-1
3,-9,-12,3,8,-10,-5,-162,4,12,-3,-1
5,-8,-13,2,9,-10,-5,-147,4,11,-3,-1
6,-7,-12,1,10,-10,-4,-130,4,11,-2,-1
5,-6,-11,1,9,-9,-4,-112,5,11,-2,0
5,-5,-10,1,8,-8,-3,-93,5,11,-2,0
4,-6,-10,1,8,-8,-3,-74,5,11,-2,0
4,-6,-11,1,7,-8,-3,-56,5,11,-2,0
4,-6,-11,1,7,-8,-2,-37,5,11,-2,0
3,-6,-10,2,6,-8,-2,-19,6,11,-2,0
3,-6,-9,2,5,-7,-1,-2,7,11,-1,1
3,-6,-9,2,5,-7,0,15,7,11,-1,1
3,-6,-9,2,6,-8,0,31,7,10,-2,0
3,-6,-10,2,6,-8,0,45,7,10,-2,0
2,-7,-10,2,6,-8,0,58,7,10,-2,0
2,-7,-10,2,6,-8,0,70,7,10,-2,0
4,-6,-10,1,7,-8,0,78,7,10,-2,0
6,-6,-11,0,8,-8,0,84,7,9,-2,0
7,-6,-12,0,9,-9,0,88,7,9,-2,0
6,-6,-12,0,9,-9,0,90,7,8,-2,0
4,-7,-11,2,8,-9,0,90,7,8,-2,0
2,-8,-11,3,7,-9,0,88,8,8,-2,0
1,-9,-11,4,6,-10,0,86,8,7,-3,0
1,-9,-11,4,6,-10,0,81,8,7,-3,0
2,-8,-11,3,6,-9,1,75,9,8,-2,1
3,-7,-10,2,6,-8,1,67,9,8,-2,1
4,-6,-10,1,6,-8,1,57,10,8,-2,2
4,-6,-10,1,6,-8,2,45,10,8,-2,2
3,-6,-9,2,6,-8,2,33,10,8,-2,2
2,-6,-8,2,6,-8,2,20,10,7,-2,2
2,-6,-9,2,7,-8,1,7,10,7,-2,1
2,-7,-10,2,7,-8,1,-6,10,6,-3,1
2,-8,-10,2,7,-9,0,-19,10,5,-3,0
4,-7,-11,1,8,-9,0,-32,10,4,-3,0
5,-6,-11,0,9,-9,0,-44,10,4,-3,0
5,-6,-11,0,8,-8,0,-55,11,4,-3,0
4,-5,-10,0,8,-8,0,-65,11,4,-3,0
4,-5,-9,1,7,-7,0,-74,12,5,-2,0
3,-5,-9,1,7,-7,0,-81,12,4,-2,1
3,-5,-9,1,6,-7,0,-88,13,4,-1,1
2,-5,-8,2,5,-7,0,-95,13,4,-1,1
2,-5,-8,2,5,-7,0,-101,13,4,-1,1
1,-6,-8,2,4,-7,0,-107,13,3,-2,1
-1,-7,-7,4,3,-7,0,-112,13,3,-2,1
-2,-8,-7,5,2,-7,0,-117,13,3,-2,1
-2,-9,-8,5,3,-8,0,-120,13,3,-2,0
-1,-9,-9,5,4,-8,-1,-122,13,2,-2,0
0,-8,-9,4,5,-8,-1,-123,13,2,-2,0
0,-8,-9,4,5,-8,-1,-124,13,2,-2,0
0,-8,-8,4,4,-8,-1,-124,13,1,-2,0
