leadI,leadII,leadIII,leadaVR,leadaVL,leadaVF,leadV1,leadV2,leadV3,leadV4,leadV5,leadV6
0,0,0,0,0,0,-9,0,-2,0,0,0
0,0,0,0,0,0,-23,-1,-6,1,-1,2
0,-1,-1,0,0,-1,-31,-1,-9,2,-1,3
1,-1,-1,0,1,-1,-35,-2,-10,2,-2,3
1,-1,-2,0,2,-2,-38,-2,-11,2,-2,4
1,-1,-2,0,2,-2,-39,-2,-12,2,-2,4
1,-1,-1,0,1,-1,-38,-2,-11,3,-2,5
0,-1,0,0,0,-1,-37,-2,-11,3,-2,6
-1,-1,1,1,-1,0,-36,-2,-11,4,-2,7
-2,-1,1,1,-2,0,-35,-2,-11,4,-2,7
-3,-2,1,2,-2,0,-34,-2,-11,3,-2,7
-3,-2,1,2,-2,0,-34,-2,-10,3,-2,8
-4,-3,2,3,-3,0,-33,-2,-10,3,-2,8
-5,-3,2,4,-4,0,-32,-1,-9,3,-2,8
-6,-3,2,4,-4,-1,-31,-1,-9,3,-2,8
-6,-4,2,5,-4,-1,-30,-1,-9,3,-3,8
-7,-5,2,6,-4,-2,-29,-1,-9,2,-3,8
-7,-5,3,6,-4,-2,-28,-1,-9,2,-4,7
-8,-6,3,7,-5,-2,-28,-1,-9,1,-4,7
-9,-7,3,8,-6,-2,-27,-1,-9,1,-5,7
-10,-7,4,9,-7,-2,-27,-1,-9,1,-5,7
-11,-8,4,9,-7,-2,-26,-1,-10,0,-6,6
-11,-8,4,9,-7,-2,-26,-1,-10,0,-6,6
-11,-8,3,10,-7,-2,-25,-1,-10,0,-6,6
-12,-9,3,10,-7,-3,-25,-1,-10,0,-6,6
-12,-10,3,10,-7,-4,-24,-1,-10,0,-6,6
-11,-10,3,10,-7,-4,-24,-1,-10,0,-6,6
-11,-10,2,10,-7,-4,-24,-1,-10,0,-6,6
-11,-10,2,10,-7,-4,-24,-1,-9,0,-6,6
-11,-10,1,10,-6,-5,-23,-1,-9,0,-5,6
-11,-10,1,10,-6,-5,-23,-1,-9,0,-5,6
-11,-10,1,10,-6,-5,-22,-1,-9,0,-5,5
-11,-10,1,11,-6,-5,-21,-1,-9,0,-5,5
-12,-10,2,11,-7,-5,-20,0,-8,0,-5,5
-12,-10,2,11,-7,-5,-19,0,-7,0,-5,5
-13,-11,2,11,-8,-5,-17,1,-5,0,-5,4
-13,-11,2,12,-8,-4,-16,3,-2,1,-6,3
-14,-10,4,12,-10,-3,-14,5,3,2,-7,2
-15,-8,8,12,-12,0,-11,8,10,5,-6,2
-16,-5,12,11,-14,3,-9,12,19,9,-4,4
-16,-1,15,9,-15,6,-8,16,28,15,0,7
-13,2,16,5,-14,8,-7,20,39,23,5,11
-8,6,15,1,-12,10,-6,26,53,33,14,17
-3,11,15,-3,-9,12,-6,32,70,45,24,25
2,16,14,-9,-6,14,-7,39,88,60,36,34
10,22,12,-16,-1,16,-9,44,103,78,51,45
19,28,10,-24,5,18,-13,45,110,97,68,59
28,36,10,-32,9,22,-20,40,107,117,86,73
36,46,11,-41,12,28,-29,30,95,139,105,89
44,55,12,-49,15,33,-40,16,75,161,124,105
50,63,13,-56,17,38,-50,2,53,181,141,119
53,66,13,-60,19,40,-56,-11,31,188,148,126
52,63,10,-58,20,37,-57,-19,9,174,140,122
49,53,4,-51,21,29,-54,-24,-12,142,115,106
42,40,-1,-41,21,19,-48,-28,-34,103,83,83
35,27,-6,-31,21,10,-41,-31,-57,62,51,60
26,15,-10,-20,19,2,-34,-35,-81,22,23,40
17,4,-11,-10,15,-4,-29,-39,-105,-14,-1,23
7,-5,-12,-1,10,-9,-25,-44,-126,-42,-20,10
0,-12,-12,6,5,-13,-22,-48,-141,-62,-33,0
-6,-18,-12,11,3,-16,-20,-50,-148,-73,-41,-7
-9,-23,-13,16,2,-19,-18,-50,-149,-80,-47,-12
-13,-28,-14,20,0,-21,-15,-50,-147,-85,-52,-17
-17,-30,-12,23,-2,-21,-13,-48,-143,-88,-55,-20
-20,-31,-9,25,-5,-20,-11,-46,-135,-87,-56,-22
-22,-29,-6,26,-7,-18,-10,-43,-123,-82,-54,-22
-22,-27,-4,25,-9,-17,-11,-39,-110,-75,-51,-21
-22,-24,-2,23,-10,-14,-12,-35,-96,-67,-46,-19
-22,-20,0,21,-12,-10,-13,-32,-82,-59,-40,-16
-20,-16,3,18,-12,-7,-13,-30,-70,-51,-35,-12
-19,-12,6,15,-13,-3,-13,-27,-59,-44,-30,-9
-18,-9,8,13,-13,-1,-13,-24,-47,-37,-25,-5
-16,-8,9,12,-12,0,-12,-20,-37,-30,-21,-2
-15,-7,9,11,-11,0,-10,-15,-27,-25,-19,0
-14,-7,7,10,-10,0,-7,-11,-19,-21,-17,0
-13,-7,6,10,-9,-1,-5,-7,-12,-17,-15,1
-13,-7,5,10,-9,-2,-3,-4,-6,-14,-13,1
-12,-7,4,9,-9,-2,-2,-2,-1,-12,-11,2
-11,-7,4,9,-8,-2,-1,-1,2,-10,-9,3
-10,-7,4,8,-8,-2,-1,0,5,-8,-8,4
-9,-7,4,8,-7,-2,0,0,8,-7,-7,4
-9,-7,3,7,-6,-2,0,1,11,-6,-7,5
-9,-6,3,7,-5,-2,0,2,14,-6,-7,5
-9,-6,2,7,-5,-2,1,3,16,-5,-7,5
-9,-6,2,7,-5,-2,2,4,17,-5,-7,6
-9,-6,2,7,-5,-2,3,4,18,-4,-6,7
-8,-6,2,6,-5,-2,3,4,18,-4,-6,7
-8,-6,2,6,-5,-2,3,4,18,-3,-6,8
-7,-5,3,6,-5,-1,3,4,18,-3,-6,8
-7,-5,3,6,-5,-1,4,5,18,-2,-5,9
-7,-5,3,6,-5,-1,4,5,19,-2,-5,9
-7,-5,3,6,-5,-1,5,6,19,-2,-6,9
-7,-5,3,6,-5,-1,6,6,20,-2,-6,9
-7,-4,4,5,-6,-1,7,7,21,-2,-5,9
-8,-4,5,5,-7,0,7,7,22,-1,-5,9
-9,-3,6,5,-8,0,8,7,23,-1,-4,8
-9,-4,5,5,-8,0,8,7,23,0,-4,8
-8,-4,4,6,-7,0,8,7,23,0,-5,7
-8,-5,3,6,-6,-1,8,7,23,0,-5,6
-7,-5,3,6,-5,-1,8,7,23,0,-5,6
-7,-4,2,6,-4,-1,8,7,23,0,-5,5
-6,-4,2,5,-4,-1,9,7,23,0,-5,5
-6,-3,3,5,-4,0,9,7,23,0,-4,5
-6,-3,4,4,-5,0,9,7,24,1,-4,5
-6,-3,4,4,-5,0,9,8,24,1,-4,5
-6,-3,4,4,-5,0,9,8,25,1,-4,5
-6,-3,4,4,-5,0,10,8,25,2,-4,6
-6,-2,4,4,-5,0,11,9,26,3,-3,6
-6,-2,4,4,-5,0,11,9,26,3,-3,7
-6,-2,4,4,-5,0,11,9,26,3,-3,7
-5,-2,4,4,-5,0,11,9,26,3,-3,8
-4,-2,3,3,-4,0,12,9,26,3,-3,9
-4,-2,3,3,-4,0,12,9,26,3,-3,10
-4,-2,3,3,-4,0,12,9,26,3,-3,11
-5,-2,3,3,-4,0,12,9,26,3,-3,12
-5,-2,3,3,-4,0,13,9,26,3,-3,13
-6,-2,3,3,-4,0,13,9,26,3,-3,14
-6,-2,3,4,-4,0,14,9,26,3,-3,16
-6,-2,3,4,-4,0,14,9,26,3,-3,17
-6,-2,3,4,-4,0,14,9,25,3,-4,18
-5,-2,3,4,-4,0,13,9,25,3,-5,19
-5,-2,3,4,-4,0,13,9,25,3,-5,21
-6,-3,3,5,-4,0,13,9,24,3,-6,22
-7,-4,3,6,-5,-1,13,10,24,3,-6,23
-7,-5,2,7,-5,-1,13,10,23,3,-6,23
-8,-6,2,7,-5,-2,13,10,23,3,-7,24
-8,-7,1,8,-5,-3,12,9,23,2,-7,24
-9,-8,1,8,-6,-3,12,9,23,2,-8,23
-9,-8,1,8,-6,-3,12,9,23,1,-8,23
-9,-8,1,8,-6,-3,11,9,23,1,-8,22
-9,-8,1,8,-6,-3,11,9,23,1,-8,22
-9,-8,1,8,-6,-3,10,9,23,1,-8,21
-9,-8,1,8,-6,-3,10,9,23,1,-8,21
-9,-8,1,8,-6,-3,10,8,24,1,-7,21
-9,-8,1,8,-5,-3,9,8,24,1,-7,21
-8,-7,1,8,-5,-3,9,9,25,1,-7,21
-8,-7,1,8,-5,-3,9,9,26,1,-6,21
-9,-8,1,8,-5,-3,9,9,27,1,-6,21
-9,-8,1,9,-6,-3,8,9,27,1,-5,22
-9,-7,1,8,-6,-3,8,9,27,1,-5,22
-8,-7,1,8,-5,-3,7,9,27,1,-4,22
-7,-7,1,7,-5,-3,7,9,27,1,-4,22
-7,-6,1,7,-5,-2,6,9,28,2,-3,23
-7,-6,2,7,-5,-2,6,9,29,2,-2,23
-7,-6,2,7,-5,-2,5,9,29,2,-1,23
-7,-6,1,6,-5,-2,4,9,30,2,0,23
-6,-5,1,5,-5,-2,4,9,30,2,0,23
-6,-4,1,4,-4,-1,3,9,30,2,1,23
-5,-3,1,4,-4,-1,3,9,30,2,2,23
-5,-3,2,4,-5,0,3,9,30,2,3,23
-5,-2,3,4,-5,0,3,9,30,2,4,23
-4,-2,2,3,-4,0,2,8,30,2,5,23
-2,-2,0,2,-2,-1,2,7,29,2,5,22
-1,-2,-1,2,-1,-1,1,7,29,1,6,22
-1,-2,-1,2,-1,-1,1,7,28,1,7,22
-1,-2,0,2,-1,-1,1,7,28,1,8,22
-2,-2,0,2,-1,-1,1,7,28,1,9,22
-2,-2,0,1,-1,-1,0,6,27,1,9,22
-1,0,1,0,-1,0,0,6,27,1,10,22
-1,0,1,0,-1,1,0,6,26,1,10,22
-1,1,1,0,-1,1,0,5,24,1,10,22
0,1,1,-1,-1,1,0,4,23,1,11,22
0,2,1,-1,-1,1,0,4,22,0,11,22
0,2,1,-2,-1,1,0,3,21,0,11,22
1,2,1,-2,-1,2,-1,2,19,-1,11,22
2,3,1,-3,0,2,-1,1,18,-2,11,22
2,3,0,-3,0,1,-1,0,16,-2,11,22
3,3,0,-3,1,1,-1,0,15,-3,11,23
3,3,0,-3,0,1,-1,-1,14,-3,11,23
3,3,0,-3,0,2,-1,-1,13,-4,11,24
3,3,0,-3,0,2,0,-1,12,-4,11,24
3,4,0,-4,0,2,0,-1,11,-4,11,25
4,4,0,-4,1,2,0,-2,10,-4,11,25
4,4,0,-4,1,2,0,-2,9,-4,11,26
3,4,0,-4,1,2,0,-2,9,-3,11,26
3,5,1,-4,1,2,0,-2,8,-3,11,27
4,5,1,-4,1,2,0,-2,8,-3,11,27
4,5,1,-4,1,2,1,-2,8,-3,12,28
4,5,1,-4,1,2,1,-1,8,-2,12,29
4,5,1,-4,1,2,2,-1,8,-2,12,30
3,4,1,-4,1,2,2,-1,8,-2,12,31
3,4,1,-4,1,2,2,-1,8,-1,12,31
4,4,0,-4,1,2,3,-1,8,-1,12,32
5,4,0,-5,2,2,3,0,9,0,12,32
5,4,0,-5,2,2,3,0,9,0,12,33
5,4,0,-5,2,2,3,0,10,0,12,33
4,4,0,-5,2,2,3,0,10,1,12,34
4,4,0,-4,1,2,4,1,11,1,12,34
3,4,1,-4,1,2,5,2,12,2,12,35
3,4,1,-3,0,2,6,2,12,3,12,35
3,4,1,-3,0,2,7,3,13,3,11,36
3,4,1,-3,0,2,7,3,13,4,11,35
3,4,1,-3,0,2,7,3,13,4,10,35
3,4,1,-3,0,2,7,3,13,4,10,34
3,4,1,-3,0,2,7,3,13,4,10,34
2,4,1,-3,0,2,7,3,13,4,9,34
2,4,1,-3,0,2,8,3,13,4,9,33
2,4,1,-3,0,2,8,3,12,4,9,33
2,4,1,-3,0,2,9,3,12,4,9,32
2,4,2,-2,0,2,9,3,11,4,8,32
1,3,2,-2,-1,3,10,4,11,4,8,31
0,3,3,-1,-2,3,10,4,10,4,8,31
0,3,3,-1,-2,3,10,4,10,4,8,31
0,3,3,-1,-2,3,10,4,9,4,7,31
0,3,3,-1,-2,3,10,4,8,3,6,30
0,2,2,-1,-1,2,11,5,7,3,5,30
0,2,2,-1,-1,2,11,5,6,3,5,30
0,1,2,-1,-1,2,12,5,5,2,4,30
-1,1,2,0,-1,1,12,5,5,2,4,30
-1,1,1,0,-1,1,12,5,4,1,4,30
-1,1,1,0,-1,1,12,5,4,1,4,31
-1,1,1,0,-1,1,12,5,3,1,4,31
-1,1,2,0,-1,1,12,5,3,1,4,31
-1,1,2,0,-1,1,13,5,3,1,4,32
-1,1,3,0,-2,1,13,5,3,1,4,32
-2,1,3,0,-3,2,14,5,3,1,4,33
-2,1,3,0,-3,2,14,5,3,1,3,33
-2,1,3,0,-3,2,14,5,4,1,3,33
-2,1,3,0,-3,2,14,5,4,1,4,33
-2,1,4,0,-3,2,14,5,5,1,4,34
-2,1,4,0,-3,2,14,5,5,1,4,34
-2,1,4,0,-3,2,14,5,6,1,4,34
-2,1,4,0,-3,2,15,6,6,1,4,34
-1,2,3,0,-2,2,15,6,6,1,3,34
-1,2,3,0,-2,2,15,6,7,1,3,34
-1,2,4,0,-2,2,15,6,7,1,3,34
-1,3,4,0,-2,3,15,6,8,1,3,33
-1,3,4,0,-3,3,15,7,8,1,3,33
-1,3,5,0,-3,4,15,7,9,2,4,33
-1,3,5,-1,-3,4,15,7,9,2,4,33
0,3,5,-1,-3,4,16,7,10,3,5,33
0,4,5,-2,-2,4,16,7,10,3,5,33
0,4,4,-2,-2,4,16,8,10,3,5,33
1,4,4,-2,-2,3,16,8,10,3,5,33
1,4,4,-2,-2,3,16,8,10,4,5,33
1,5,4,-3,-2,4,16,8,11,4,5,33
1,5,4,-3,-2,4,16,9,11,4,5,33
2,5,4,-4,-2,4,16,9,11,5,5,33
2,6,4,-4,-1,4,16,9,11,5,5,33
3,6,4,-5,-1,4,16,9,11,6,5,33
3,7,4,-5,-1,4,16,9,11,6,5,33
3,7,4,-5,-1,5,16,9,12,6,5,34
3,8,4,-5,-1,5,16,9,12,6,5,34
4,8,4,-5,0,5,16,9,12,6,5,34
4,8,4,-5,0,5,16,9,12,6,5,35
3,8,5,-5,-1,5,17,9,12,7,6,35
3,8,5,-5,-1,5,17,9,12,7,6,35
3,8,4,-5,0,5,17,9,12,7,5,35
4,8,4,-5,0,5,17,9,12,6,5,35
3,8,4,-5,0,5,17,9,12,6,4,35
3,7,4,-5,-1,5,17,9,12,6,4,35
3,7,4,-5,0,5,17,9,12,6,4,35
4,7,4,-6,0,5,17,9,12,6,4,34
4,7,4,-6,0,5,17,8,11,6,4,34
3,7,4,-5,0,5,17,8,11,6,4,33
4,7,4,-5,0,5,17,8,11,6,4,33
5,7,3,-6,0,5,18,8,11,6,4,33
5,8,3,-6,1,5,18,8,11,6,4,32
5,8,3,-6,1,5,18,8,10,6,4,32
5,7,3,-6,1,5,18,8,10,5,3,31
5,7,3,-6,1,4,18,8,10,5,3,31
5,7,3,-6,1,4,18,8,10,5,3,30
4,7,3,-6,0,4,19,8,10,5,3,30
3,7,4,-5,0,5,19,8,10,5,3,30
2,7,5,-5,-1,5,19,8,9,5,3,30
2,6,5,-4,-1,5,19,8,9,5,3,29
2,6,5,-4,-1,5,19,8,9,5,2,29
2,5,4,-4,-1,5,19,7,9,5,2,28
2,5,4,-4,-1,4,19,7,8,4,1,28
2,5,4,-3,-1,4,19,7,8,4,1,28
2,5,4,-3,-1,4,19,7,7,4,1,28
2,5,4,-3,-1,3,19,7,7,3,1,28
1,4,3,-3,-1,3,19,7,6,3,1,28
1,4,3,-2,-1,2,19,7,6,3,1,28
1,3,3,-2,-1,2,19,7,5,3,0,28
1,3,3,-2,-1,2,19,7,5,2,0,28
1,3,3,-2,-1,2,19,6,5,2,0,27
1,3,3,-2,-1,2,19,6,4,2,0,27
1,2,3,-1,-1,2,19,6,4,2,0,27
0,2,3,-1,-2,2,19,6,3,2,0,27
0,2,2,-1,-2,1,19,6,3,1,-1,27
0,1,2,0,-2,1,19,5,2,1,-1,27
-1,1,2,0,-2,0,19,5,2,1,-1,28
-1,0,2,0,-2,0,19,5,2,0,-1,28
-1,0,2,1,-2,0,19,5,1,0,-1,28
-2,0,2,1,-2,0,19,5,1,0,-1,29
-2,-1,2,1,-2,0,19,5,1,0,-1,29
-2,-1,2,1,-2,0,19,4,0,0,-2,29
-2,-1,2,1,-2,0,19,4,0,0,-2,30
-2,-1,2,2,-3,0,19,4,0,0,-2,30
-3,-1,3,2,-3,0,19,4,0,0,-2,31
-3,-1,2,2,-3,0,20,4,0,0,-3,31
-3,-1,2,2,-3,0,20,4,0,0,-3,31
-3,-2,2,2,-3,0,20,4,-1,-1,-3,32
-3,-2,2,2,-3,0,20,4,-1,-1,-3,32
-3,-2,2,2,-3,0,20,4,-2,-1,-3,32
-3,-2,2,2,-3,0,20,4,-2,-1,-3,32
-4,-2,3,3,-4,0,21,4,-2,-1,-3,32
-5,-2,3,3,-5,0,21,4,-2,-1,-3,32
-5,-2,3,3,-5,0,21,3,-2,-1,-4,32
-5,-2,3,3,-4,0,21,3,-2,-1,-4,32
-5,-3,2,4,-4,-1,20,3,-2,-1,-4,32
-5,-3,2,4,-4,-1,20,3,-2,-1,-4,32
-6,-4,2,5,-4,-1,21,3,-3,-1,-4,32
-5,-4,2,4,-4,-1,21,3,-3,-2,-4,32
-5,-4,1,4,-3,-2,21,3,-4,-2,-4,31
-5,-4,1,4,-3,-2,21,2,-4,-2,-4,31
-5,-4,1,4,-3,-2,21,2,-4,-2,-4,31
-5,-4,2,5,-3,-2,21,2,-4,-2,-4,31
-6,-4,2,5,-4,-2,21,3,-4,-2,-4,31
-6,-4,2,5,-4,-2,21,3,-4,-2,-4,31
-6,-4,2,5,-4,-2,21,3,-4,-2,-4,30
-6,-4,2,5,-4,-2,21,3,-4,-2,-4,30
-6,-4,2,5,-4,-2,22,3,-4,-2,-4,30
-6,-4,2,5,-4,-2,22,3,-4,-2,-4,30
-5,-4,2,4,-3,-2,22,3,-4,-2,-4,30
-5,-4,1,4,-3,-2,22,3,-4,-2,-4,30
-5,-4,1,4,-3,-2,22,3,-4,-2,-4,30
-5,-3,1,4,-3,-1,22,2,-4,-2,-4,30
-5,-3,1,4,-3,-1,22,2,-4,-2,-4,30
-5,-4,1,4,-3,-2,23,2,-4,-2,-4,30
-5,-4,1,4,-3,-2,23,2,-4,-2,-4,30
-5,-4,1,4,-3,-2,23,2,-4,-2,-4,30
-5,-3,2,4,-3,-1,23,2,-4,-2,-4,31
-5,-3,2,4,-3,-1,23,2,-4,-2,-5,31
-5,-3,2,4,-3,-1,23,2,-4,-3,-5,31
-5,-3,2,4,-3,-1,23,2,-3,-3,-5,31
-4,-3,2,4,-3,-1,23,2,-3,-3,-5,31
-4,-3,2,4,-3,-1,23,2,-3,-2,-5,31
-4,-3,2,4,-3,-1,24,2,-3,-2,-5,32
-5,-3,2,4,-3,-1,24,3,-3,-2,-5,32
-5,-3,2,4,-3,-1,24,3,-3,-2,-5,32
-5,-3,1,4,-3,-2,24,3,-3,-2,-5,32
-5,-3,1,4,-3,-2,24,3,-3,-2,-5,32
-5,-3,2,4,-3,-2,25,3,-3,-2,-5,33
-5,-3,2,4,-3,-1,25,3,-3,-2,-5,33
-5,-3,2,4,-3,-1,25,3,-3,-2,-5,34
-4,-3,2,4,-3,-1,25,3,-3,-2,-5,34
-4,-2,2,3,-2,-1,25,3,-3,-2,-5,34
-3,-2,1,3,-2,-1,25,3,-3,-2,-5,34
-3,-2,1,3,-2,-1,26,3,-3,-2,-5,34
-3,-2,1,3,-2,-1,26,3,-3,-2,-6,35
-3,-2,1,3,-2,-1,26,3,-3,-2,-6,35
-3,-3,1,3,-2,-1,26,2,-3,-2,-6,35
-3,-3,1,3,-2,-1,25,2,-3,-2,-6,35
-4,-3,1,3,-2,-1,25,2,-3,-2,-6,35
-5,-3,2,3,-3,-1,26,2,-3,-2,-6,36
-5,-4,2,4,-4,-1,26,2,-3,-2,-6,36
-5,-4,2,4,-3,-2,26,1,-3,-2,-6,36
-4,-4,1,3,-3,-2,26,1,-3,-2,-7,36
-4,-4,1,3,-2,-2,26,1,-3,-2,-7,36
-4,-4,0,4,-2,-2,26,1,-3,-2,-7,36
-4,-4,0,4,-2,-3,26,1,-3,-2,-7,36
-4,-4,0,4,-2,-3,26,1,-3,-2,-7,36
-4,-4,0,4,-2,-3,26,1,-3,-2,-7,37
-4,-4,0,4,-2,-3,26,1,-3,-2,-7,37
-5,-4,1,4,-3,-2,26,1,-3,-2,-7,37
-6,-4,2,5,-4,-2,26,2,-3,-2,-7,37
-7,-4,3,5,-5,-1,26,2,-3,-2,-7,37
-8,-4,3,6,-5,-1,26,2,-3,-2,-7,37
-8,-4,3,6,-5,-2,26,1,-3,-2,-7,37
-8,-5,2,6,-5,-2,26,1,-3,-2,-7,38
-8,-5,2,6,-5,-2,27,1,-3,-2,-7,38
-8,-5,2,6,-4,-2,27,1,-3,-2,-7,38
-7,-5,1,6,-4,-2,26,1,-4,-3,-7,37
-7,-5,1,6,-4,-2,26,0,-4,-3,-7,37
-6,-5,1,6,-4,-2,26,0,-4,-3,-7,37
-6,-5,1,5,-4,-2,26,0,-4,-3,-7,37
-6,-5,1,5,-4,-2,26,0,-4,-3,-7,37
-6,-5,1,5,-4,-2,26,0,-4,-3,-7,37
-6,-5,1,5,-3,-2,26,0,-4,-3,-7,37
-6,-4,1,5,-3,-2,27,0,-4,-3,-7,37
-6,-4,2,5,-4,-1,27,0,-4,-3,-7,37
-6,-3,2,5,-4,-1,27,0,-4,-2,-7,37
-6,-3,3,4,-5,0,27,1,-3,-2,-6,37
-6,-2,4,4,-5,0,27,1,-3,-2,-6,37
-6,-2,4,3,-5,0,26,1,-3,-1,-6,37
-5,-1,5,3,-5,0,26,1,-2,-1,-5,37
-4,0,5,2,-4,1,25,1,-2,0,-5,38
-4,0,5,1,-4,1,25,1,-1,0,-5,38
-3,1,5,1,-4,2,25,1,-1,0,-5,38
-3,1,5,1,-4,2,25,1,-1,0,-4,39
-3,2,5,0,-4,2,26,1,0,0,-4,39
-2,2,5,0,-4,2,26,1,0,0,-4,39
-2,2,5,0,-4,3,27,1,1,1,-3,39
-2,2,5,0,-4,3,28,2,2,1,-3,39
-2,3,5,0,-4,3,28,3,3,2,-3,40
-1,3,5,-1,-3,3,28,3,4,2,-2,40
0,4,5,-2,-2,3,28,4,4,3,-2,41
0,4,4,-2,-2,3,28,5,5,3,-2,41
1,4,4,-3,-1,3,28,5,6,4,-1,42
2,5,3,-3,0,3,27,5,7,4,-1,42
3,5,3,-4,0,3,27,5,8,5,0,43
3,6,3,-4,0,3,26,5,9,5,0,44
4,6,3,-5,0,3,25,5,9,6,0,45
4,6,2,-5,1,3,23,5,8,6,1,45
5,6,1,-5,2,2,21,3,6,6,1,46
5,6,0,-5,2,2,20,2,4,5,1,46
5,6,0,-6,2,2,19,1,3,5,1,47
6,6,0,-6,3,2,18,0,2,5,1,47
6,6,0,-6,3,2,18,0,0,4,0,46
7,6,-1,-6,4,1,18,0,0,3,0,46
7,5,-2,-6,4,0,18,0,-1,1,-2,45
7,4,-2,-5,5,0,18,0,-3,0,-3,44
7,3,-3,-5,5,-1,19,0,-4,-1,-3,44
6,2,-3,-4,5,-1,19,0,-4,-1,-4,43
6,2,-3,-4,4,-2,20,0,-5,-1,-4,43
6,1,-4,-4,4,-2,20,0,-5,-1,-4,43
6,1,-5,-3,5,-3,21,0,-5,-1,-4,43
5,0,-5,-3,5,-4,21,0,-5,-2,-5,43
4,0,-5,-2,5,-4,21,0,-5,-2,-5,43
3,0,-3,-2,4,-2,22,0,-4,-2,-4,43
3,0,-2,-2,3,-1,22,0,-4,-2,-4,44
2,0,-1,-2,2,-1,23,0,-4,-2,-4,43
2,0,-1,-2,2,-1,23,0,-4,-2,-4,43
2,1,-1,-2,1,-1,23,0,-4,-2,-4,43
1,1,0,-1,1,-1,24,0,-4,-2,-4,43
0,0,0,0,0,-1,25,0,-4,-2,-5,43
0,0,0,0,0,-1,25,0,-4,-2,-5,43
0,0,0,0,0,-1,26,0,-4,-2,-5,43
0,0,0,0,0,-1,26,0,-4,-2,-5,42
0,0,0,1,0,-1,26,0,-4,-2,-6,42
-1,0,0,1,-1,-1,27,0,-4,-3,-6,41
-2,-1,1,2,-2,-1,27,0,-4,-3,-6,40
-2,-1,1,2,-2,-1,28,0,-4,-3,-6,39
-2,-1,0,2,-2,-1,28,0,-4,-4,-7,38
-2,-2,0,2,-1,-2,28,0,-4,-4,-7,37
-3,-2,0,2,-2,-2,28,0,-4,-4,-8,36
-3,-3,1,3,-3,-2,28,0,-4,-4,-8,36
-3,-3,1,4,-3,-2,28,0,-4,-4,-8,36
-3,-4,0,4,-2,-3,28,0,-5,-4,-8,35
-2,-4,-1,4,-1,-4,28,0,-5,-5,-8,34
-2,-4,-1,4,-1,-4,28,0,-5,-5,-8,34
-2,-4,-2,4,-1,-4,28,1,-4,-5,-8,33
-3,-4,-1,4,-1,-3,28,1,-4,-5,-7,33
-3,-4,0,4,-1,-3,28,1,-4,-5,-7,32
-4,-4,0,5,-2,-3,28,1,-4,-5,-7,32
-4,-5,0,5,-2,-3,28,0,-4,-5,-7,31
-5,-5,1,5,-3,-3,28,0,-4,-5,-7,31
-6,-5,1,5,-3,-3,29,1,-2,-5,-7,30
-6,-5,1,5,-3,-3,30,3,0,-5,-8,29
-6,-4,1,5,-4,-3,32,5,4,-5,-9,28
-6,-3,3,5,-5,-1,33,7,10,-3,-9,28
-7,-1,6,4,-6,1,34,10,17,0,-9,28
-7,1,9,3,-8,4,35,13,25,4,-6,30
-6,5,12,0,-9,7,35,18,36,11,-2,33
-4,8,13,-2,-8,9,35,24,48,19,5,38
-1,12,13,-6,-7,11,35,31,63,30,13,44
3,16,13,-10,-5,13,35,39,80,42,22,52
9,22,12,-16,-1,15,34,47,98,56,34,61
18,28,9,-23,4,17,31,52,111,73,48,72
28,34,7,-31,10,19,25,52,116,90,63,85
37,42,5,-39,16,22,17,45,112,109,79,99
47,50,4,-48,21,27,6,32,98,130,97,113
56,59,3,-57,26,30,-6,16,77,150,114,128
63,65,2,-64,30,33,-16,1,55,165,128,140
65,66,1,-66,32,32,-21,-11,32,165,130,143
64,60,-3,-62,34,27,-20,-18,9,144,115,134
58,48,-10,-54,34,18,-16,-23,-15,109,87,115
50,35,-15,-43,33,9,-10,-26,-39,70,56,93
41,23,-17,-32,30,2,-4,-30,-65,32,27,73
31,12,-18,-21,25,-3,2,-35,-91,-4,2,55
22,3,-18,-12,20,-8,6,-41,-115,-34,-18,41
14,-5,-18,-4,16,-12,9,-47,-135,-57,-33,29
6,-12,-18,2,12,-16,11,-52,-148,-72,-44,21
1,-18,-18,8,9,-19,14,-54,-154,-80,-50,16
-3,-23,-18,13,7,-22,17,-54,-154,-86,-55,11
-8,-27,-18,17,5,-23,19,-53,-151,-90,-59,7
-12,-29,-15,20,2,-23,21,-52,-146,-92,-62,4
-15,-29,-12,22,-1,-22,23,-50,-137,-89,-62,3
-17,-27,-9,22,-4,-19,23,-47,-124,-83,-59,3
-18,-24,-6,21,-6,-16,22,-42,-110,-76,-54,5
-18,-20,-3,19,-8,-12,20,-38,-96,-68,-49,7
-18,-16,0,17,-9,-8,19,-34,-82,-60,-43,9
-17,-13,3,15,-10,-5,19,-30,-70,-52,-38,12
-16,-10,5,13,-10,-3,18,-27,-59,-45,-33,15
-14,-8,7,10,-10,-1,18,-23,-49,-38,-28,18
-12,-6,7,9,-9,0,19,-20,-38,-33,-25,20
-11,-5,7,8,-9,0,20,-15,-29,-28,-23,21
-10,-5,6,7,-8,0,22,-11,-20,-24,-20,21
-9,-5,5,7,-7,0,24,-7,-13,-20,-19,21
-8,-4,3,6,-6,-1,26,-4,-8,-18,-17,21
-7,-4,3,6,-5,-1,27,-2,-3,-16,-15,22
-7,-4,3,6,-4,-1,28,-1,0,-14,-14,22
-7,-4,3,6,-4,-1,28,0,3,-12,-13,23
-6,-5,3,6,-4,-2,28,0,6,-11,-12,23
-6,-5,2,6,-4,-2,28,1,9,-11,-12,24
-6,-5,1,6,-4,-3,29,2,11,-10,-12,24
-6,-5,1,5,-3,-3,29,3,13,-10,-12,25
-6,-5,0,5,-3,-3,29,4,15,-10,-12,25
-6,-5,1,5,-3,-2,30,5,16,-9,-11,26
-6,-5,2,5,-3,-2,31,5,16,-9,-11,27
-6,-5,2,5,-3,-2,31,6,15,-8,-11,27
-6,-5,2,5,-4,-2,31,6,15,-8,-11,27
-6,-5,2,5,-4,-2,31,6,15,-7,-11,27
-6,-5,2,5,-4,-2,31,6,16,-7,-12,26
-6,-5,2,5,-4,-3,31,6,16,-7,-12,25
-6,-5,2,5,-4,-2,32,7,17,-7,-12,24
-6,-4,2,5,-4,-2,32,7,17,-7,-12,24
-5,-4,2,5,-4,-2,32,6,17,-7,-12,23
-5,-4,2,5,-3,-2,32,6,17,-7,-12,22
-5,-4,1,5,-3,-2,32,5,17,-7,-12,22
-5,-4,1,5,-3,-2,32,5,17,-7,-12,21
-5,-4,1,5,-3,-2,32,5,17,-7,-12,20
-5,-4,1,5,-3,-2,32,5,17,-6,-12,19
-5,-4,1,5,-3,-2,32,6,18,-6,-12,18
-6,-4,1,5,-4,-2,33,6,18,-5,-12,17
-6,-4,1,5,-4,-2,33,6,18,-5,-12,17
-6,-4,1,5,-4,-2,32,6,18,-5,-12,16
-6,-4,1,5,-4,-2,32,6,18,-5,-12,16
-6,-4,1,5,-4,-2,32,6,18,-5,-11,16
-6,-4,2,5,-4,-2,32,6,18,-5,-11,16
-5,-4,2,4,-4,-2,32,6,19,-5,-11,17
-5,-3,2,4,-4,-1,32,7,19,-4,-10,17
-5,-3,2,4,-4,-1,33,7,20,-4,-10,18
-5,-3,2,4,-4,-1,33,7,20,-3,-10,19
-5,-3,2,4,-4,-1,33,7,19,-3,-10,20
-5,-3,3,4,-4,-1,34,7,19,-3,-10,21
-5,-3,3,4,-4,-1,34,7,19,-3,-10,23
-5,-3,2,4,-4,-1,34,7,19,-3,-10,24
-5,-3,1,4,-3,-2,34,7,19,-3,-10,24
-4,-3,0,4,-2,-2,34,7,19,-3,-10,25
-3,-3,0,4,-2,-2,34,7,19,-3,-10,26
-3,-3,0,4,-2,-3,34,7,19,-3,-11,28
-4,-3,1,4,-3,-2,34,7,19,-3,-11,29
-5,-3,1,4,-3,-2,34,8,18,-3,-11,30
-5,-4,1,4,-3,-2,33,8,18,-3,-11,30
-4,-4,1,4,-3,-3,33,8,17,-3,-11,31
-4,-4,0,4,-2,-3,33,8,17,-3,-11,31
-4,-4,0,4,-2,-3,33,8,17,-3,-11,31
-5,-4,1,5,-3,-3,33,8,17,-3,-11,31
-5,-4,1,5,-3,-3,32,8,17,-3,-11,31
-5,-5,1,5,-3,-3,32,8,17,-3,-11,31
-5,-5,0,5,-3,-3,31,8,17,-3,-11,31
-5,-5,0,4,-2,-4,31,8,17,-3,-11,31
-5,-5,0,5,-2,-4,30,8,17,-3,-11,31
-5,-5,0,5,-2,-4,30,8,18,-3,-11,31
-5,-5,0,6,-3,-4,29,8,18,-4,-11,30
-6,-6,0,6,-3,-4,29,7,18,-4,-11,30
-6,-6,0,7,-3,-4,28,7,19,-4,-10,30
-7,-7,0,7,-3,-4,28,7,19,-4,-10,30
-7,-7,1,7,-4,-4,27,7,20,-4,-9,31
-7,-7,1,6,-4,-4,27,7,20,-4,-9,31
-7,-7,1,6,-4,-4,27,7,20,-4,-8,31
-7,-7,0,7,-4,-4,26,7,21,-4,-8,31
-7,-7,0,7,-4,-4,26,7,21,-4,-7,32
-7,-7,0,7,-4,-4,25,6,21,-4,-7,32
-6,-7,0,6,-3,-4,25,6,22,-4,-6,32
-6,-6,0,6,-3,-4,24,6,22,-4,-5,32
-6,-6,0,5,-3,-4,24,6,22,-4,-4,31
-6,-6,0,5,-3,-4,23,6,22,-4,-3,31
-6,-5,0,5,-3,-3,23,6,22,-4,-3,30
-5,-5,0,5,-3,-3,22,5,22,-4,-3,29
-4,-5,-1,4,-2,-4,21,5,22,-4,-3,28
-3,-4,-1,4,-1,-4,20,5,22,-4,-2,28
-2,-4,-1,3,-1,-4,19,5,22,-3,-1,27
-2,-4,-1,3,-1,-4,19,4,22,-3,0,27
-2,-3,-1,3,-1,-3,18,4,21,-4,0,26
-1,-3,-1,2,0,-3,18,4,21,-4,1,26
-1,-2,-2,2,0,-3,18,4,20,-4,2,25
-1,-2,-2,1,0,-3,17,3,20,-4,2,25
0,-1,-1,1,0,-2,16,3,19,-4,2,24
0,-1,-1,0,0,-2,16,2,19,-4,3,24
0,-1,-1,0,0,-2,15,2,18,-4,3,23
0,-1,0,0,0,-2,15,1,17,-4,4,23
0,-1,0,0,0,-2,15,0,16,-4,4,23
0,-1,-1,0,0,-2,14,0,14,-5,5,23
1,0,-1,0,1,-2,13,-1,13,-6,5,24
2,0,-2,-1,2,-2,12,-2,11,-6,5,24
2,0,-2,-1,2,-2,12,-2,10,-7,5,24
2,0,-2,-1,2,-2,11,-2,9,-7,5,24
2,0,-2,-1,2,-2,11,-3,8,-8,5,25
3,0,-3,-2,2,-2,11,-4,7,-8,5,25
3,0,-3,-2,2,-2,10,-5,5,-8,4,26
3,0,-2,-2,2,-1,10,-5,3,-8,4,26
3,1,-2,-2,2,-1,10,-6,2,-9,4,27
2,1,-1,-2,2,-1,10,-6,1,-9,4,28
2,1,-1,-2,1,-1,9,-7,0,-9,4,28
2,1,-1,-2,1,-1,9,-7,0,-10,4,29
2,1,-1,-2,1,-1,9,-7,-1,-10,4,29
2,1,-1,-2,1,-1,9,-8,-2,-10,4,30
2,1,-1,-2,1,-1,9,-8,-2,-10,4,30
3,1,-2,-3,2,-1,9,-8,-3,-10,4,30
4,1,-3,-3,3,-2,9,-8,-3,-10,4,31
4,1,-4,-3,4,-2,9,-8,-3,-9,4,31
4,1,-3,-3,4,-2,9,-8,-3,-9,4,32
3,1,-3,-3,3,-2,9,-7,-3,-8,4,32
3,1,-3,-2,3,-2,9,-6,-2,-7,4,33
2,0,-3,-2,2,-2,9,-6,-1,-6,5,33
2,0,-3,-1,2,-2,9,-6,0,-6,5,33
2,0,-3,-1,2,-2,9,-5,0,-5,5,33
1,0,-3,0,2,-2,9,-5,0,-5,5,33
1,-1,-3,0,1,-2,10,-5,1,-4,5,33
1,-1,-3,0,1,-2,10,-5,1,-3,5,32
1,-1,-3,0,1,-2,10,-5,2,-3,4,32
0,-1,-2,1,1,-2,10,-4,2,-2,4,31
0,-1,-2,1,0,-2,10,-4,2,-2,4,31
0,0,-1,0,0,-1,11,-3,2,-1,4,30
0,0,-1,0,0,-1,11,-3,2,-1,3,30
0,-1,-1,0,0,-2,11,-3,2,-1,3,30
0,-1,-1,0,0,-2,11,-3,2,-1,3,30
-1,-1,-1,1,0,-2,12,-3,2,-1,3,30
-1,-1,-1,1,0,-2,12,-3,1,-1,2,29
-2,-2,-1,2,-1,-2,12,-3,1,-1,2,29
-2,-2,0,2,-1,-2,12,-3,0,-1,1,28
-3,-2,0,2,-2,-2,12,-2,0,-1,1,28
-4,-2,0,3,-3,-2,13,-2,0,-1,0,28
-4,-3,0,3,-2,-3,13,-2,-1,-1,0,28
-4,-3,0,3,-2,-3,14,-2,-2,-1,0,27
-5,-3,0,4,-3,-2,14,-2,-3,-2,-1,27
-5,-3,0,4,-3,-2,14,-2,-4,-2,-1,27
-5,-3,0,5,-3,-2,14,-2,-4,-2,-2,27
-5,-4,0,5,-3,-2,14,-2,-5,-3,-2,27
-5,-4,0,5,-4,-2,14,-2,-6,-3,-3,26
-6,-4,0,5,-4,-2,15,-2,-6,-3,-3,26
-6,-4,1,6,-4,-2,15,-1,-7,-3,-3,26
-7,-5,1,6,-5,-2,15,-1,-7,-3,-3,26
-7,-5,1,6,-5,-2,15,-1,-8,-3,-3,26
-7,-5,1,6,-5,-2,15,-1,-8,-4,-3,26
-7,-5,1,6,-5,-2,15,-1,-8,-4,-3,25
-7,-6,1,6,-5,-2,15,-1,-8,-4,-3,25
-7,-6,1,6,-5,-2,15,-1,-8,-4,-3,25
-7,-6,1,6,-5,-2,15,-1,-8,-4,-3,25
-7,-5,1,6,-5,-2,16,-1,-7,-4,-3,25
-7,-5,1,6,-5,-2,16,-1,-7,-4,-3,25
-7,-5,1,6,-5,-2,15,-1,-7,-4,-3,25
-7,-5,1,6,-5,-2,15,-1,-7,-3,-3,24
-7,-5,1,6,-5,-2,15,-1,-6,-3,-3,24
-7,-5,0,6,-4,-2,15,-1,-6,-3,-3,24
-6,-5,0,6,-4,-2,15,0,-5,-3,-3,23
-6,-5,1,6,-5,-2,16,0,-4,-3,-3,23
-7,-5,1,6,-5,-2,16,0,-4,-3,-3,23
-7,-5,2,6,-6,-2,16,0,-3,-2,-3,23
-7,-5,1,6,-6,-2,16,0,-3,-2,-2,22
-7,-5,1,6,-6,-2,16,0,-2,-2,-2,22
-8,-5,2,7,-6,-2,16,0,-1,-1,-2,21
-8,-5,2,6,-6,-2,16,0,-1,-1,-1,21
-7,-5,2,6,-5,-2,16,0,0,-1,-1,20
-6,-4,1,5,-5,-2,16,0,0,-1,-1,20
-5,-4,1,4,-5,-1,16,0,0,-1,-1,19
-5,-3,2,4,-5,-1,16,1,0,0,-1,19
-5,-3,2,4,-5,-1,16,1,1,0,-1,19
-5,-3,2,4,-5,-1,16,1,1,0,0,19
-5,-3,1,4,-5,-1,15,1,1,0,0,18
-5,-3,1,4,-4,-1,15,1,2,0,0,18
-4,-3,1,3,-4,-1,15,1,2,0,-1,17
-4,-2,1,3,-4,-1,15,1,2,0,-1,17
-4,-3,1,3,-4,-1,14,1,2,0,-1,16
-4,-3,1,3,-4,-1,14,1,2,0,-1,16
-4,-2,1,3,-3,-1,14,1,2,0,-1,15
-4,-2,1,3,-4,0,14,1,2,0,-1,15
-4,-1,2,3,-4,0,14,1,2,0,-1,15
-5,-1,2,4,-5,0,14,1,3,0,-1,14
-5,-2,3,4,-5,0,14,1,3,0,-1,14
-6,-2,2,4,-5,0,14,1,4,0,-1,13
-6,-2,2,4,-5,0,14,1,4,0,-1,13
-5,-3,2,4,-5,0,14,1,4,0,-1,12
-5,-3,1,4,-5,0,14,1,4,0,-1,12
-4,-3,1,3,-4,-1,14,1,4,0,-2,11
-4,-2,0,3,-3,-1,14,1,4,0,-2,11
-4,-2,0,3,-3,0,14,1,4,0,-2,10
-4,-2,1,3,-4,0,14,1,4,0,-2,9
-4,-2,1,3,-4,0,14,1,4,0,-2,9
-4,-2,1,3,-4,0,14,1,4,0,-2,8
-4,-2,1,3,-4,0,14,1,4,0,-2,8
-4,-2,2,3,-4,0,14,1,4,0,-2,8
-5,-2,2,4,-4,0,14,1,4,0,-2,8
-5,-3,1,4,-4,-1,14,1,4,0,-3,7
-5,-3,1,4,-4,-1,14,0,4,0,-3,7
-5,-3,0,4,-4,-1,14,0,4,0,-3,6
-5,-3,0,4,-4,-1,14,0,4,0,-3,5
-5,-3,0,4,-4,-1,14,0,3,-1,-3,5
-5,-3,0,4,-4,-1,14,0,3,-1,-3,4
-6,-4,0,5,-4,-1,14,0,3,-1,-3,4
-6,-4,0,5,-4,-1,14,0,3,-1,-3,4
-5,-4,0,5,-4,-2,14,0,3,-1,-3,4
-5,-3,0,4,-4,-2,14,0,3,-1,-4,4
-4,-3,-1,4,-3,-2,14,0,2,-2,-4,4
-3,-3,-1,3,-3,-2,14,0,2,-2,-5,3
-3,-3,-2,3,-2,-3,14,0,2,-2,-5,3
-3,-3,-1,4,-3,-2,14,0,2,-2,-5,3
-4,-3,0,4,-3,-2,14,0,1,-2,-5,3
-4,-3,0,4,-3,-1,14,0,1,-2,-5,3
-4,-3,0,4,-3,-2,14,0,0,-2,-5,2
-4,-3,0,4,-3,-2,14,0,0,-2,-5,2
-5,-3,0,4,-4,-2,14,0,0,-2,-5,2
-4,-3,0,4,-4,-2,14,0,0,-2,-6,2
-3,-3,-1,3,-3,-2,14,0,0,-2,-6,2
-3,-4,-1,3,-2,-3,14,0,-1,-3,-6,2
-3,-4,-2,3,-2,-3,14,0,-1,-3,-6,2
-3,-4,-2,3,-2,-3,14,0,-2,-3,-6,2
-3,-4,-2,3,-2,-3,14,0,-2,-3,-6,2
-4,-4,-1,4,-3,-3,14,0,-2,-2,-6,2
-4,-4,-1,4,-3,-3,14,0,-2,-2,-6,2
-5,-4,0,4,-4,-3,14,0,-2,-2,-6,2
-5,-4,0,4,-4,-3,14,0,-2,-2,-6,2
-5,-4,0,4,-4,-3,14,0,-2,-2,-6,3
-5,-4,0,4,-3,-3,14,0,-2,-2,-5,3
-4,-4,-1,4,-3,-3,14,0,-2,-2,-5,3
-4,-4,-1,4,-3,-3,14,0,-2,-2,-5,2
-3,-4,-1,4,-2,-3,14,0,-2,-2,-5,2
-4,-4,-1,4,-2,-2,14,0,-2,-2,-6,1
-4,-4,-1,4,-3,-2,14,0,-2,-2,-6,1
-4,-4,-1,4,-3,-3,14,0,-2,-2,-6,1
-4,-4,-2,4,-2,-3,14,0,-2,-2,-6,1
-3,-4,-2,3,-2,-3,14,0,-2,-2,-6,1
-3,-4,-2,3,-2,-3,14,0,-2,-2,-6,1
-3,-4,-2,4,-2,-3,14,0,-2,-2,-6,0
-3,-4,-2,4,-2,-3,13,0,-2,-3,-6,0
-3,-4,-2,4,-2,-3,13,0,-2,-3,-6,0
-3,-4,-2,4,-2,-3,13,0,-2,-3,-6,0
-4,-4,-2,4,-2,-3,13,0,-2,-3,-6,0
-4,-4,-2,4,-2,-3,13,0,-2,-3,-6,0
-3,-4,-2,4,-2,-3,13,0,-2,-3,-6,-1
-3,-4,-2,4,-2,-3,13,0,-2,-3,-6,-1
-4,-5,-2,4,-2,-3,13,0,-2,-3,-6,-2
-4,-5,-2,4,-2,-3,13,0,-2,-3,-6,-3
-4,-5,-2,4,-2,-3,13,0,-1,-3,-5,-3
-3,-5,-2,4,-2,-3,13,0,-1,-3,-5,-4
-3,-5,-2,4,-2,-3,13,0,-1,-4,-5,-4
-3,-5,-2,4,-2,-3,13,0,-1,-4,-5,-5
-3,-5,-2,4,-2,-3,13,0,-1,-4,-5,-6
-4,-5,-2,4,-2,-3,13,0,0,-4,-5,-6
-4,-5,-2,4,-2,-3,13,0,0,-4,-5,-7
-5,-5,-2,5,-3,-3,13,0,0,-4,-5,-8
-5,-5,-2,5,-3,-3,13,0,0,-4,-4,-8
-4,-5,-2,4,-2,-4,13,0,0,-4,-4,-9
-4,-5,-3,4,-1,-4,13,0,0,-4,-4,-9
-3,-5,-4,4,-1,-4,13,0,0,-4,-4,-9
-3,-5,-3,4,-1,-4,13,0,0,-4,-4,-9
-3,-5,-3,4,-1,-4,13,0,0,-4,-4,-10
-3,-5,-3,4,-1,-4,13,0,0,-4,-4,-10
-3,-5,-3,4,-1,-4,13,0,0,-4,-4,-11
-2,-5,-3,3,0,-4,13,0,1,-4,-4,-11
-2,-5,-3,3,0,-4,13,0,1,-4,-4,-11
-3,-5,-3,4,-1,-4,13,0,0,-4,-4,-11
-3,-5,-2,4,-1,-3,13,0,0,-4,-4,-11
-3,-5,-2,4,-1,-3,12,0,0,-4,-4,-12
-2,-5,-3,3,-1,-3,12,0,0,-5,-4,-12
-2,-4,-3,3,0,-3,12,0,0,-5,-4,-12
-2,-4,-2,3,0,-3,12,0,0,-5,-4,-12
-3,-5,-2,4,-1,-3,12,0,0,-5,-5,-12
-3,-5,-2,4,-1,-3,12,0,0,-5,-5,-12
-3,-5,-2,4,-1,-3,12,0,0,-5,-4,-12
-3,-4,-2,4,-1,-3,13,0,1,-4,-4,-12
-3,-4,-2,4,-1,-3,13,0,1,-4,-4,-12
-3,-5,-2,4,-1,-3,13,0,1,-4,-4,-12
-3,-5,-2,4,-1,-3,13,0,1,-4,-4,-12
-3,-5,-2,4,-1,-3,13,0,1,-4,-4,-12
-4,-5,-1,4,-2,-2,13,0,1,-4,-4,-12
-4,-4,-1,4,-2,-2,13,0,1,-4,-4,-12
-4,-4,0,4,-2,-1,13,0,1,-4,-4,-12
-3,-4,-1,4,-2,-2,13,0,1,-4,-5,-12
-3,-5,-2,4,-1,-2,13,0,1,-4,-5,-12
-3,-5,-2,4,-1,-3,13,0,1,-4,-5,-12
-3,-5,-2,4,-1,-3,13,0,0,-4,-5,-13
-3,-5,-2,3,0,-3,13,0,0,-4,-5,-13
-2,-5,-2,3,0,-3,13,0,0,-4,-6,-13
-2,-6,-2,3,0,-3,13,0,0,-5,-6,-13
-2,-6,-2,3,0,-3,13,0,0,-5,-6,-12
-2,-5,-2,3,-1,-3,13,0,0,-5,-6,-12
-3,-5,-2,3,-1,-2,13,0,0,-5,-6,-11
-3,-4,-1,3,-1,-2,13,0,0,-5,-6,-11
-3,-4,-1,3,-2,-2,13,0,0,-5,-6,-11
-3,-3,0,3,-2,-2,13,0,0,-5,-6,-11
-3,-3,0,3,-2,-2,13,0,0,-5,-6,-11
-2,-3,0,3,-1,-2,13,0,0,-5,-6,-11
-2,-3,-1,3,-1,-2,13,0,0,-5,-6,-10
-2,-3,-1,2,-1,-2,13,0,0,-5,-6,-10
-1,-3,-1,2,-1,-2,13,0,0,-5,-6,-10
-1,-3,-1,2,-1,-2,13,0,0,-5,-6,-10
-1,-2,-1,2,-1,-2,13,0,0,-5,-6,-10
-1,-2,0,2,-1,-1,13,0,0,-5,-5,-9
-1,-2,-1,2,-1,-1,13,0,0,-5,-5,-9
-1,-2,-1,2,0,-1,12,0,0,-5,-5,-10
0,-2,-2,1,0,-1,12,0,0,-5,-5,-10
-1,-1,-1,1,-1,-1,12,0,0,-4,-5,-9
-1,-1,0,1,-2,0,12,0,1,-4,-4,-9
-1,0,0,0,-2,0,12,0,1,-3,-4,-9
-1,0,1,0,-2,0,11,-1,1,-3,-4,-9
0,0,1,0,-2,1,11,-1,2,-3,-3,-9
0,1,1,0,-2,1,11,-1,2,-2,-3,-9
0,1,2,-1,-2,2,11,-1,3,-2,-2,-8
0,2,2,-1,-2,2,11,0,4,-1,-2,-8
0,2,2,-1,-2,3,12,0,4,-1,-1,-8
-1,2,3,-1,-3,3,12,0,5,-1,-1,-8
-1,3,4,-1,-3,3,12,0,5,-1,-1,-8
-1,3,4,-1,-3,3,13,0,6,0,-1,-8
0,3,3,-1,-2,2,13,1,7,0,-1,-8
0,3,2,-1,-1,2,13,1,8,0,0,-8
0,3,2,-2,-1,3,13,1,9,1,0,-8
1,3,2,-2,0,3,14,2,10,1,0,-8
1,3,1,-2,0,2,14,2,11,2,0,-7
2,4,1,-3,0,2,13,3,12,2,0,-7
3,5,1,-4,1,2,13,3,13,3,1,-7
4,5,0,-5,1,2,12,3,13,4,1,-6
5,5,0,-5,2,2,10,2,13,4,2,-6
5,5,0,-5,2,2,9,2,12,5,2,-6
5,5,-1,-6,3,2,7,1,11,5,2,-5
5,5,-1,-6,3,2,5,0,9,4,2,-5
5,5,-2,-6,3,2,4,-1,8,4,2,-5
6,5,-2,-6,3,2,3,-2,7,3,2,-5
6,5,-2,-6,3,1,3,-3,6,2,1,-5
7,4,-3,-6,4,1,3,-3,5,1,0,-6
6,3,-4,-5,4,0,3,-3,3,0,0,-7
6,1,-5,-4,4,-2,3,-3,2,-1,-2,-7
7,0,-6,-3,5,-3,4,-3,1,-2,-3,-8
7,-1,-7,-3,6,-4,4,-3,1,-3,-3,-8
7,0,-7,-3,6,-3,5,-3,0,-4,-4,-8
6,0,-6,-3,5,-3,5,-2,0,-4,-4,-8
5,-1,-6,-2,5,-3,6,-2,0,-4,-5,-8
5,-1,-7,-2,5,-4,6,-2,0,-5,-5,-9
5,-2,-7,-2,5,-4,7,-2,0,-5,-6,-9
5,-2,-7,-2,5,-4,7,-2,0,-5,-6,-9
4,-1,-6,-2,4,-3,8,-2,0,-4,-6,-9
3,-1,-4,-2,2,-2,8,-2,1,-4,-6,-9
1,-1,-2,-1,1,-1,9,-2,2,-3,-6,-9
0,-1,-2,0,0,-1,10,-2,3,-3,-6,-8
0,-1,-2,0,0,-2,11,-2,3,-3,-6,-8
0,-2,-2,0,0,-2,11,-1,4,-3,-6,-9
0,-2,-3,0,0,-3,11,-1,4,-3,-6,-9
0,-3,-3,0,0,-3,11,-1,4,-4,-6,-9
0,-3,-3,1,0,-3,11,-1,4,-4,-6,-9
-1,-4,-3,1,0,-3,12,-1,4,-5,-6,-9
-1,-4,-3,1,0,-3,12,-1,4,-5,-7,-9
-1,-4,-3,1,0,-3,12,-1,4,-6,-7,-10
-1,-4,-3,2,0,-3,13,-1,4,-6,-7,-10
-2,-4,-3,2,0,-3,13,0,4,-7,-8,-11
-2,-5,-2,3,0,-3,13,0,4,-7,-8,-12
-3,-5,-2,3,-1,-3,13,0,4,-6,-8,-13
-4,-6,-2,4,-2,-3,14,0,5,-6,-8,-13
-4,-6,-2,4,-1,-4,14,0,5,-6,-8,-14
-4,-7,-3,4,-1,-4,14,0,5,-6,-9,-14
-4,-7,-3,4,-1,-5,14,0,5,-7,-9,-15
-4,-8,-3,4,-1,-5,14,0,6,-7,-9,-16
-4,-8,-3,4,-1,-5,14,1,6,-6,-9,-17
-4,-7,-2,4,-1,-5,14,1,6,-6,-9,-18
-4,-7,-2,4,-1,-4,14,1,6,-6,-9,-18
-4,-7,-2,4,-1,-4,14,1,6,-6,-9,-19
-4,-7,-2,4,-1,-4,14,1,6,-6,-9,-20
-4,-7,-2,4,-1,-4,14,1,6,-7,-9,-20
-4,-7,-2,5,-1,-5,14,2,7,-7,-9,-21
-4,-8,-2,5,-1,-5,15,3,8,-7,-10,-22
-5,-8,-2,5,-2,-5,16,5,12,-6,-10,-23
-5,-7,0,5,-3,-3,17,7,17,-4,-11,-24
-6,-4,2,4,-4,-1,19,10,25,-1,-10,-24
-6,-1,5,3,-6,2,20,13,34,4,-7,-22
-5,2,7,1,-7,5,21,18,44,10,-3,-19
-4,6,9,-1,-7,7,22,24,56,19,3,-14
-1,10,10,-5,-6,10,22,31,71,29,12,-8
3,14,10,-9,-4,12,21,38,88,41,21,-1
10,18,8,-15,0,13,19,44,104,54,32,7
19,23,4,-22,7,14,16,48,117,70,45,18
30,29,0,-30,14,15,10,49,123,88,61,30
39,36,-2,-39,20,17,3,43,119,107,78,44
48,45,-2,-47,25,21,-7,32,107,128,96,60
57,54,-3,-56,30,25,-19,18,88,149,115,75
64,61,-3,-63,33,29,-29,4,67,168,130,88
68,63,-4,-66,35,29,-35,-8,46,173,136,94
67,58,-8,-64,37,25,-36,-15,25,158,125,88
62,47,-14,-56,38,16,-32,-20,3,125,99,70
55,34,-19,-46,37,7,-27,-23,-20,86,67,47
47,22,-23,-35,35,0,-20,-26,-44,47,36,26
37,12,-23,-25,30,-5,-14,-30,-68,9,9,7
26,4,-22,-16,24,-8,-9,-35,-93,-24,-12,-7
16,-3,-19,-7,17,-11,-5,-41,-114,-50,-28,-18
6,-10,-17,1,11,-13,-2,-46,-129,-69,-40,-27
0,-16,-16,7,7,-16,0,-49,-136,-79,-48,-33
-4,-22,-17,12,5,-19,2,-49,-138,-86,-53,-38
-7,-26,-18,15,5,-21,5,-49,-137,-91,-58,-42
-10,-28,-16,18,3,-22,7,-48,-133,-94,-62,-46
-14,-29,-14,20,0,-21,9,-45,-125,-93,-62,-48
-16,-27,-11,21,-3,-19,10,-42,-114,-88,-60,-48
-16,-25,-8,20,-4,-16,9,-38,-100,-81,-57,-47
-16,-22,-6,18,-5,-14,7,-34,-86,-73,-53,-46
-15,-18,-3,16,-6,-11,6,-31,-72,-65,-47,-44
-15,-15,0,15,-7,-8,6,-28,-59,-57,-42,-41
-14,-13,1,13,-8,-5,5,-25,-46,-50,-37,-39
-13,-10,3,11,-8,-3,5,-21,-34,-43,-32,-36
-12,-9,3,9,-8,-2,6,-16,-23,-36,-28,-35
-11,-8,2,8,-7,-2,8,-12,-13,-31,-25,-34
-10,-8,1,8,-6,-3,9,-7,-4,-26,-23,-33
-9,-8,0,8,-5,-3,11,-3,3,-22,-21,-32
-8,-8,-1,7,-4,-4,13,0,8,-19,-19,-32
-8,-8,-1,7,-4,-4,14,1,11,-17,-17,-31
-7,-8,0,6,-4,-4,15,2,14,-15,-16,-31
-7,-8,0,6,-3,-4,15,3,16,-14,-14,-31
-6,-9,-1,6,-3,-4,15,4,19,-13,-13,-31
-6,-9,-2,6,-2,-5,15,4,22,-12,-13,-32
-5,-9,-2,6,-2,-5,16,5,25,-12,-13,-32
-5,-9,-3,7,-2,-6,16,6,27,-11,-13,-32
-6,-9,-3,7,-2,-6,16,7,28,-11,-13,-32
-6,-9,-2,7,-2,-6,16,7,29,-11,-13,-33
-6,-8,-2,7,-2,-6,16,7,28,-11,-13,-33
-6,-8,-2,7,-2,-6,16,7,28,-11,-13,-33
-6,-8,-2,7,-2,-6,17,7,27,-10,-13,-33
-5,-8,-3,6,-1,-6,17,7,27,-10,-13,-33
-4,-7,-3,6,-1,-6,18,7,27,-10,-14,-34
-4,-7,-3,5,-1,-5,18,7,27,-10,-14,-35
-4,-7,-3,5,-1,-5,18,7,28,-10,-13,-36
-4,-7,-3,5,-1,-5,18,8,30,-10,-13,-37
-5,-8,-2,6,-1,-5,18,8,31,-9,-12,-37
-5,-8,-2,6,-1,-4,18,8,32,-9,-12,-38
-5,-8,-2,6,-1,-5,19,8,32,-9,-12,-39
-5,-8,-2,6,-1,-5,19,8,32,-9,-12,-40
-6,-8,-2,7,-2,-5,19,9,32,-9,-12,-41
-7,-8,-1,7,-3,-5,19,9,33,-9,-12,-42
-7,-8,-1,7,-3,-5,19,9,33,-9,-12,-43
-6,-8,-2,7,-2,-5,19,9,33,-9,-12,-44
-6,-8,-2,6,-2,-5,19,9,33,-9,-12,-45
-5,-8,-2,6,-1,-5,19,9,33,-9,-11,-45
-5,-8,-2,6,-1,-5,19,9,33,-9,-11,-45
-5,-8,-3,6,-1,-5,19,9,32,-8,-11,-46
-5,-8,-3,6,-1,-5,19,10,32,-8,-11,-46
-5,-7,-3,6,-1,-5,19,10,32,-7,-10,-46
-5,-7,-3,6,-1,-5,19,10,32,-7,-10,-45
-5,-7,-3,6,-1,-5,19,11,32,-7,-10,-45
-6,-7,-2,6,-1,-5,20,11,31,-7,-10,-44
-6,-7,-2,6,-2,-5,20,11,31,-7,-10,-44
-5,-7,-2,6,-1,-5,20,11,30,-7,-10,-44
-5,-7,-2,6,-1,-5,20,11,30,-7,-10,-44
-5,-7,-2,6,-1,-5,20,11,29,-7,-10,-43
-5,-7,-1,6,-1,-5,20,11,29,-7,-11,-43
-6,-8,-1,6,-2,-5,20,11,29,-7,-11,-42
-6,-8,-2,7,-2,-5,20,11,29,-7,-11,-41
-5,-8,-2,6,-1,-5,20,11,29,-7,-11,-40
-4,-8,-3,6,0,-5,20,11,29,-7,-11,-39
-3,-7,-3,5,0,-5,20,11,29,-7,-11,-38
-3,-7,-2,5,0,-4,20,11,29,-7,-11,-37
-4,-6,-1,5,-1,-3,20,11,29,-7,-11,-36
-4,-6,-1,4,-1,-3,20,11,29,-8,-12,-35
-3,-6,-1,4,-1,-3,20,11,29,-8,-13,-34
-3,-6,-2,4,0,-4,20,11,30,-7,-13,-32
-3,-6,-3,4,0,-4,20,11,30,-7,-12,-30
-3,-7,-3,4,0,-4,20,11,31,-6,-12,-28
-3,-7,-3,4,0,-4,20,11,31,-6,-11,-26
-3,-7,-2,4,0,-4,19,11,31,-6,-11,-24
-3,-7,-3,4,0,-4,19,11,31,-6,-10,-23
-2,-6,-3,4,0,-4,18,11,32,-5,-10,-21
-2,-6,-3,4,1,-4,18,11,32,-5,-9,-19
-2,-5,-3,4,1,-4,17,11,32,-4,-9,-17
-2,-5,-3,4,1,-4,17,11,32,-4,-9,-16
-1,-5,-3,4,1,-4,17,11,33,-4,-9,-15
-1,-5,-3,3,1,-4,17,12,33,-4,-8,-14
-1,-5,-3,3,1,-4,16,12,33,-4,-7,-12
0,-5,-3,3,1,-4,16,11,33,-4,-6,-11
0,-4,-4,2,1,-4,15,11,33,-3,-6,-10
0,-4,-4,2,2,-4,15,11,33,-3,-5,-9
0,-4,-4,2,2,-4,15,11,32,-2,-5,-8
0,-4,-4,2,2,-4,14,10,32,-2,-4,-8
0,-3,-4,1,2,-4,14,10,32,-2,-4,-7
1,-3,-4,1,2,-4,13,10,31,-2,-3,-6
2,-2,-4,0,3,-4,12,10,31,-2,-2,-5
2,-2,-4,0,3,-3,12,10,31,-2,-1,-4
2,-2,-5,-1,4,-3,11,10,31,-2,0,-3
2,-2,-5,-1,4,-3,11,10,31,-2,0,-2
2,-1,-4,-1,4,-3,11,10,31,-2,0,-2
3,-1,-4,-2,4,-3,11,10,30,-2,0,-1
3,0,-4,-2,4,-2,10,10,30,-2,0,0
4,0,-4,-2,4,-2,10,10,30,-2,1,0
4,0,-4,-2,3,-2,9,10,30,-2,2,2
4,0,-4,-3,3,-2,9,9,29,-2,2,3
4,1,-3,-3,3,-1,8,9,28,-2,3,4
4,1,-3,-3,3,-1,8,8,27,-3,3,5
4,1,-3,-3,3,-1,8,8,26,-3,4,6
4,2,-3,-3,3,-1,7,7,25,-3,4,7
5,2,-3,-3,4,-1,7,7,24,-3,4,8
5,3,-3,-4,4,-1,6,6,24,-3,4,9
6,3,-3,-5,4,-1,6,6,23,-4,5,11
6,2,-4,-5,5,-1,5,5,22,-4,5,12
7,2,-5,-5,6,-1,5,4,20,-5,5,14
7,3,-5,-5,6,0,5,3,18,-5,5,15
7,3,-5,-6,6,0,5,2,16,-6,5,16
8,4,-5,-6,6,0,5,1,15,-7,4,16
9,4,-5,-6,6,0,4,1,14,-8,4,16
8,4,-4,-6,6,0,4,1,13,-8,4,17
8,4,-4,-6,5,0,4,1,12,-9,4,18
9,4,-4,-6,6,0,3,0,10,-9,3,19
9,4,-5,-6,6,0,3,0,9,-10,3,19
9,4,-5,-7,6,0,3,0,7,-10,3,20
9,4,-5,-7,7,0,3,0,6,-11,3,20
10,5,-5,-8,7,0,3,-1,5,-11,3,21
10,5,-4,-8,7,0,3,-1,5,-11,3,21
9,5,-4,-8,6,0,3,-2,5,-10,3,22
9,5,-4,-8,6,0,3,-2,5,-10,4,23
9,4,-4,-8,6,0,3,-1,5,-9,4,24
9,4,-4,-7,6,0,3,-1,5,-9,4,25
8,3,-4,-7,6,0,3,-1,5,-8,4,25
8,3,-4,-6,6,0,3,0,5,-8,4,25
8,3,-4,-6,6,0,4,0,6,-7,4,26
9,3,-5,-6,6,0,4,0,6,-7,4,26
9,4,-5,-7,7,0,4,0,6,-6,4,26
9,4,-5,-7,7,0,4,0,6,-5,4,26
9,4,-5,-7,7,0,4,0,6,-5,4,26
9,5,-5,-7,7,0,4,0,6,-5,4,26
9,5,-5,-7,7,0,4,1,7,-4,4,26
9,5,-5,-7,7,0,4,1,7,-4,4,26
9,5,-5,-7,7,0,3,1,7,-3,4,26
9,5,-5,-7,7,0,3,1,7,-3,3,26
8,5,-5,-7,7,0,4,2,7,-2,3,25
8,4,-5,-7,7,0,4,2,7,-2,2,25
7,4,-4,-6,6,0,4,2,7,-2,2,24
6,4,-3,-6,5,1,5,3,7,-2,2,24
5,4,-2,-6,4,1,5,3,7,-1,2,25
5,4,-2,-5,3,1,5,4,7,-1,2,25
5,3,-2,-5,3,1,5,4,7,-1,2,25
4,3,-2,-5,3,1,6,3,6,-1,2,25
4,3,-2,-4,2,1,6,3,6,-1,2,25
3,3,-1,-4,2,1,7,4,5,-1,1,25
3,2,-2,-3,2,0,7,4,5,-1,1,25
4,2,-2,-4,3,0,7,4,5,-1,0,25
5,2,-3,-4,3,0,7,4,4,-2,0,24
4,1,-3,-3,3,0,7,3,3,-3,-2,24
4,1,-3,-3,3,0,7,3,2,-3,-3,23
3,1,-3,-2,2,0,7,4,1,-3,-4,23
2,1,-2,-2,1,0,8,4,1,-3,-4,23
2,0,-2,-1,1,0,8,4,1,-3,-5,24
1,0,-2,-1,1,0,7,4,1,-3,-5,24
1,0,-2,-1,1,-1,7,4,0,-4,-5,25
1,0,-2,-1,1,-1,7,4,0,-4,-5,26
1,0,-2,-1,1,-1,8,4,0,-5,-6,26
0,0,-2,0,1,-1,8,4,1,-5,-6,26
0,0,-2,0,1,-1,8,4,1,-5,-6,26
0,0,-2,0,0,-1,8,4,2,-5,-6,27
0,0,-1,0,0,0,8,4,2,-5,-6,27
0,0,-1,0,0,0,8,4,3,-5,-6,27
0,0,0,0,0,0,8,5,4,-5,-6,27
0,0,0,0,0,0,8,5,5,-5,-6,27
0,0,0,-1,0,0,8,6,6,-5,-6,27
0,0,0,-1,0,0,8,6,6,-5,-7,26
0,0,0,-1,0,0,8,6,7,-6,-8,26
0,0,0,-1,0,0,8,6,7,-6,-8,26
-1,0,0,-1,0,0,8,5,8,-6,-8,26
-1,0,0,-1,-1,1,8,5,8,-6,-8,26
0,0,0,-1,0,1,8,5,9,-6,-7,27
0,0,0,-2,0,1,8,5,9,-5,-7,27
1,0,-1,-2,1,0,8,5,10,-5,-6,27
1,0,-1,-2,1,0,8,6,10,-5,-6,27
1,0,-1,-1,1,0,8,6,11,-5,-5,28
1,0,-1,-1,1,0,8,7,11,-5,-5,28
1,0,-1,-1,1,0,8,7,12,-4,-4,29
1,0,-1,-1,1,0,8,7,12,-4,-4,29
1,0,-1,-1,0,0,8,7,12,-4,-4,29
1,0,0,-1,0,0,8,7,13,-4,-4,29
1,1,0,-1,0,1,8,8,13,-4,-4,29
1,1,0,-1,0,1,8,8,13,-4,-3,29
1,2,1,-1,0,2,8,8,13,-3,-3,29
1,2,1,-2,0,2,8,8,13,-3,-3,29
1,3,1,-2,0,2,7,8,13,-3,-3,29
2,3,1,-3,0,2,7,8,13,-2,-3,29
2,2,0,-3,0,2,7,8,13,-2,-2,29
2,2,0,-3,1,2,7,7,13,-2,-2,29
1,2,0,-2,0,2,8,7,13,-2,-1,29
1,2,1,-2,0,2,8,7,13,-2,-1,29
1,2,1,-2,0,2,8,7,13,-2,0,29
1,2,1,-2,0,1,8,7,13,-2,0,29
1,2,0,-2,0,1,8,7,14,-2,0,28
1,2,0,-2,0,1,8,7,14,-2,-1,27
1,2,0,-2,1,1,8,7,14,-2,-1,26
2,2,0,-2,1,1,8,7,14,-2,-1,25
2,2,0,-2,1,1,8,7,14,-2,-1,24
1,2,0,-2,0,1,8,7,14,-2,-1,24
1,2,0,-2,0,1,7,7,14,-2,-1,23
1,2,0,-2,0,1,7,7,14,-2,-1,23
1,2,0,-2,0,1,7,7,13,-3,0,23
1,1,0,-2,0,1,7,7,13,-3,0,23
1,1,0,-2,1,1,7,7,12,-3,0,21
2,0,-1,-2,1,0,7,7,12,-3,0,20
2,0,-1,-2,1,0,7,7,12,-3,0,19
1,0,-1,-1,1,0,7,7,11,-3,0,18
2,0,-2,-1,1,-1,7,6,11,-4,0,18
2,0,-2,-1,1,-1,7,6,10,-4,0,18
1,0,-1,-1,0,0,7,6,9,-4,0,17
0,0,0,0,0,0,7,6,9,-4,0,17
0,-1,0,0,0,0,7,6,9,-4,0,17
0,-1,0,0,0,0,7,6,9,-4,0,17
-1,-1,0,0,0,0,6,6,8,-4,0,16
-1,-1,0,1,0,0,6,5,8,-4,0,16
-2,-2,0,1,0,-1,6,5,7,-4,0,17
-2,-2,0,2,0,-1,6,5,7,-4,0,17
-2,-3,-1,2,0,-1,6,5,6,-4,0,16
-2,-3,-1,2,0,-1,6,5,6,-4,0,16
-1,-3,-2,2,0,-1,6,5,6,-4,0,15
-1,-3,-1,2,0,-1,6,5,6,-4,0,15
-1,-3,-1,2,0,-1,6,5,6,-4,0,15
-1,-3,-2,2,0,-2,6,5,6,-4,0,14
-1,-3,-2,2,0,-2,6,4,6,-4,0,14
-1,-3,-2,2,0,-2,6,4,6,-5,0,14
0,-3,-3,1,1,-2,6,4,5,-5,0,14
0,-3,-2,1,1,-2,6,4,5,-6,0,13
0,-3,-2,1,0,-2,5,4,4,-7,0,13
-1,-3,-1,1,0,-2,5,4,4,-7,0,13
-1,-3,-1,2,0,-2,5,4,4,-8,0,13
-2,-3,-1,2,0,-1,5,4,4,-8,0,12
-2,-2,0,1,0,-1,5,4,4,-8,0,12
-2,-2,0,1,0,0,5,4,3,-9,-1,11
-2,-2,0,1,0,0,5,4,3,-9,-1,11
-1,-2,0,1,0,0,5,5,3,-8,0,11
-1,-2,0,1,0,0,5,5,3,-8,0,11
-1,-2,-1,1,0,-1,5,4,3,-8,0,11
-1,-3,-1,2,0,-1,5,4,2,-8,0,10
-1,-3,-2,2,0,-2,5,4,2,-8,0,9
-1,-3,-2,1,0,-2,5,4,2,-9,0,8
-1,-3,-1,1,0,-2,5,4,2,-9,-1,7
-1,-3,-2,1,0,-2,5,4,2,-9,-1,6
-1,-3,-2,1,0,-2,5,4,2,-9,0,6
-1,-3,-2,1,0,-2,5,4,2,-9,0,5
-1,-3,-2,1,0,-2,5,4,2,-9,0,5
0,-3,-2,1,1,-2,5,5,2,-9,0,5
0,-3,-2,1,1,-2,5,5,1,-9,0,5
0,-3,-2,2,1,-2,5,5,1,-9,0,4
-1,-3,-2,2,1,-2,5,5,1,-9,0,4
-1,-3,-1,2,0,-2,5,5,1,-9,0,3
-2,-3,-1,2,0,-1,5,5,0,-9,0,3
-2,-3,-1,2,0,-1,5,5,0,-9,0,3
-2,-3,-1,2,0,-1,5,5,0,-9,1,3
-2,-3,-1,2,0,-1,5,5,-1,-9,1,3
-2,-3,-1,2,0,-1,5,5,-1,-8,1,3
-1,-3,-1,2,0,-1,5,5,-1,-8,2,3
-1,-3,-2,2,0,-2,5,5,-1,-8,2,3
0,-3,-2,1,1,-2,5,5,-1,-8,2,2
0,-2,-2,1,1,-2,4,5,-1,-8,2,2
0,-2,-2,1,1,-2,4,5,-2,-8,3,2
-1,-2,-2,1,0,-2,4,5,-2,-8,3,2
-1,-2,-1,1,0,-2,4,5,-2,-8,3,2
-1,-2,-1,1,0,-2,4,5,-2,-9,3,1
-1,-2,-1,2,0,-2,4,5,-2,-9,3,1
-1,-2,-1,2,0,-1,4,5,-2,-9,3,1
-1,-2,-1,2,0,-1,4,5,-2,-9,3,1
-1,-2,-2,2,1,-1,4,5,-2,-9,3,1
-1,-2,-2,1,1,-1,4,5,-2,-9,3,1
-1,-3,-2,1,1,-2,4,5,-2,-9,3,1
-1,-3,-2,2,1,-2,4,5,-2,-9,3,1
-2,-4,-2,2,1,-3,4,5,-2,-9,3,0
-1,-4,-3,2,1,-3,5,5,-2,-9,3,0
0,-4,-4,1,2,-3,5,5,-2,-9,3,-1
1,-3,-4,1,3,-3,5,5,-2,-9,2,-1
1,-2,-3,1,2,-3,5,5,-2,-9,2,-1
1,-2,-3,1,2,-3,4,4,-2,-10,2,-2
1,-2,-3,1,2,-3,4,4,-2,-10,1,-2
1,-2,-3,0,2,-2,4,4,-2,-10,1,-3
0,-2,-2,0,1,-1,4,5,-2,-10,1,-3
0,-2,-1,0,0,-1,4,5,-2,-10,1,-3
0,-2,-1,0,0,-1,4,5,-2,-10,1,-4
-1,-2,-1,1,0,-1,5,5,-2,-11,1,-5
-1,-2,-1,1,0,-1,5,5,-2,-11,1,-5
-1,-3,-2,2,0,-2,5,5,-1,-11,1,-5
-2,-3,-1,2,0,-2,5,5,-1,-11,1,-5
-2,-3,-1,2,0,-1,5,5,-2,-11,1,-6
-2,-3,-1,2,0,-1,5,5,-2,-11,1,-6
-1,-3,-1,1,0,-1,5,5,-2,-11,1,-7
0,-3,-1,1,0,-1,5,5,-2,-11,1,-7
0,-2,-1,1,0,-1,5,5,-2,-11,1,-7
0,-2,-1,1,0,-1,4,5,-2,-11,1,-7
0,-2,-1,1,0,-1,5,5,-2,-10,1,-7
0,-2,-2,1,0,-1,5,5,-2,-10,1,-8
-1,-2,-2,1,0,-1,5,4,-1,-11,1,-8
-1,-2,-2,1,0,-1,5,3,-1,-11,0,-9
-1,-2,-1,1,0,-1,6,3,0,-11,0,-10
-1,-2,-1,1,0,-1,6,4,0,-11,1,-9
0,-1,-1,0,0,0,6,4,0,-11,1,-9
0,-1,-1,0,0,0,5,4,0,-10,1,-8
0,0,-1,0,0,0,5,4,0,-10,1,-8
-1,0,0,0,0,0,5,4,0,-9,1,-8
-1,0,0,0,-1,0,5,4,0,-8,2,-8
-1,-1,0,0,0,0,5,3,0,-7,3,-7
0,-1,0,0,0,0,4,3,0,-6,4,-7
0,0,0,0,0,0,4,3,1,-5,5,-6
1,0,0,-1,0,1,3,3,1,-5,4,-6
0,1,1,-1,0,2,3,3,1,-5,4,-6
0,1,1,-1,0,2,3,3,2,-5,4,-6
0,2,2,-1,-1,3,3,3,2,-6,3,-6
0,2,2,-2,-1,3,3,3,2,-6,3,-6
0,3,3,-2,-1,3,3,3,2,-6,3,-6
0,3,4,-3,-1,4,4,3,2,-6,3,-6
0,3,3,-3,-1,4,4,4,2,-6,3,-7
1,3,2,-3,0,3,5,4,2,-6,3,-8
1,3,2,-3,0,3,5,4,2,-6,3,-8
1,3,2,-2,0,3,5,5,2,-6,3,-9
1,3,2,-2,0,3,5,5,3,-5,3,-9
2,3,2,-3,0,3,6,6,3,-4,3,-9
2,4,2,-3,0,3,6,7,4,-2,4,-8
3,4,1,-4,1,3,5,7,5,-1,6,-8
3,4,1,-4,1,3,3,7,6,0,7,-8
4,4,1,-4,2,3,2,7,6,0,8,-8
4,4,0,-5,2,3,0,6,5,0,9,-8
5,4,0,-5,3,3,-1,6,4,0,10,-8
5,5,0,-6,3,2,-2,5,3,0,10,-8
6,5,-1,-6,4,2,-3,3,1,-1,10,-7
7,5,-1,-7,5,1,-3,3,0,-2,10,-7
7,5,-2,-6,5,1,-4,2,0,-3,10,-8
7,4,-2,-6,6,0,-4,2,-1,-4,10,-9
7,3,-3,-5,6,0,-4,2,-2,-4,9,-11
7,2,-4,-5,6,-1,-3,2,-3,-5,9,-12
7,1,-5,-4,6,-2,-3,2,-4,-6,8,-13
6,0,-6,-3,6,-3,-2,3,-4,-7,8,-13
6,0,-7,-3,6,-4,-1,3,-4,-7,8,-13
6,-1,-7,-2,6,-4,-1,3,-5,-8,8,-14
6,-1,-8,-2,7,-4,-1,3,-5,-8,8,-14
6,-2,-9,-2,7,-5,-1,2,-5,-8,8,-15
5,-2,-8,-2,7,-5,-1,2,-5,-8,9,-15
4,-1,-7,-1,5,-4,0,2,-4,-8,9,-16
3,-1,-5,-1,4,-3,0,2,-4,-8,9,-16
3,-1,-4,-1,4,-2,0,2,-3,-9,9,-17
3,-1,-4,-1,4,-2,1,2,-3,-9,8,-18
2,-1,-3,-1,3,-2,1,2,-2,-9,8,-18
1,-1,-3,0,2,-2,2,2,-1,-9,8,-18
0,-2,-2,0,1,-2,2,3,-1,-9,9,-18
0,-2,-2,1,1,-2,3,3,0,-9,9,-18
-1,-3,-2,1,0,-2,3,3,0,-9,9,-18
-1,-3,-2,1,0,-2,3,3,0,-9,8,-18
-1,-4,-3,1,1,-3,3,3,0,-10,7,-19
-1,-4,-3,1,1,-3,4,4,0,-10,7,-20
-1,-4,-3,1,1,-3,4,4,0,-10,7,-21
-1,-4,-3,2,1,-3,4,4,0,-11,7,-22
-2,-5,-2,3,0,-3,4,4,0,-11,7,-23
-3,-5,-2,4,0,-3,4,4,0,-11,7,-23
-3,-6,-3,4,0,-4,4,5,0,-11,7,-23
-3,-6,-4,4,0,-4,4,5,0,-11,8,-23
-3,-7,-4,4,0,-5,4,6,0,-11,8,-23
-3,-7,-4,4,0,-5,4,6,0,-11,8,-24
-3,-7,-4,4,0,-5,4,5,0,-11,8,-24
-2,-7,-4,4,1,-5,4,5,0,-11,8,-24
-2,-7,-5,4,1,-5,4,4,0,-12,8,-24
-2,-7,-5,4,1,-6,5,4,0,-12,7,-25
-2,-7,-5,4,1,-6,5,5,0,-12,7,-25
-2,-7,-4,4,1,-5,5,5,-1,-12,7,-24
-3,-7,-4,4,1,-5,5,5,-1,-13,7,-24
-3,-7,-4,5,1,-5,5,6,-1,-13,7,-23
-4,-8,-4,5,1,-6,6,6,0,-13,7,-23
-4,-8,-4,6,0,-6,7,7,2,-12,6,-24
-5,-8,-3,6,0,-5,8,9,7,-11,6,-25
-5,-7,-1,6,-1,-4,9,12,13,-8,6,-25
-5,-4,1,4,-3,-1,10,15,21,-4,8,-25
-5,0,5,2,-4,2,11,19,31,1,11,-23
-4,3,7,0,-5,5,11,23,43,9,17,-19
-1,6,8,-3,-4,7,11,28,56,19,26,-13
2,10,8,-7,-3,10,11,32,71,32,36,-6
7,16,8,-12,0,12,10,37,87,48,48,2
14,22,8,-18,3,15,7,41,101,67,63,14
22,28,7,-26,8,18,2,42,109,88,82,28
30,36,7,-34,12,22,-4,38,108,110,103,43
37,46,9,-42,14,28,-14,30,98,134,124,60
44,55,11,-50,17,33,-25,18,81,158,145,76
51,64,12,-58,19,38,-36,6,61,180,164,91
55,69,12,-63,21,41,-43,-5,40,193,177,101
56,67,10,-62,22,39,-45,-14,20,188,174,101
53,58,4,-56,24,31,-43,-18,0,162,153,87
48,45,-4,-47,26,21,-38,-21,-19,125,121,65
42,31,-10,-37,26,11,-31,-23,-40,84,87,41
34,19,-14,-27,24,3,-25,-25,-61,40,56,19
25,9,-15,-18,20,-1,-21,-29,-84,-2,28,2
15,1,-14,-9,15,-5,-17,-33,-105,-39,5,-12
6,-6,-14,-1,10,-9,-14,-37,-120,-67,-12,-24
0,-13,-14,6,7,-13,-11,-39,-129,-84,-24,-32
-4,-20,-16,11,6,-18,-8,-40,-132,-94,-32,-39
-7,-25,-17,16,5,-21,-5,-39,-132,-100,-39,-45
-10,-28,-17,19,3,-23,-2,-37,-129,-104,-44,-50
-14,-29,-14,21,0,-22,0,-35,-122,-103,-46,-54
-17,-29,-11,22,-3,-20,1,-33,-113,-99,-46,-57
-18,-27,-9,22,-4,-18,0,-29,-101,-92,-44,-57
-17,-24,-7,20,-4,-16,0,-26,-89,-85,-40,-56
-17,-21,-5,19,-6,-13,-1,-24,-77,-77,-35,-53
-17,-18,-2,17,-7,-10,-1,-21,-66,-69,-30,-50
-15,-15,0,15,-8,-8,-1,-19,-55,-61,-25,-47
-13,-13,0,13,-7,-6,-1,-17,-45,-53,-20,-43
-11,-11,1,11,-6,-5,-2,-14,-36,-46,-15,-40
-10,-10,1,9,-5,-5,-1,-11,-26,-40,-12,-38
-9,-9,0,8,-4,-5,0,-7,-18,-34,-8,-37
-8,-9,-1,8,-3,-5,2,-4,-12,-30,-5,-36
-8,-9,-2,7,-2,-5,4,-2,-8,-26,-3,-35
-7,-9,-2,7,-2,-5,5,0,-6,-23,-1,-34
-6,-8,-3,6,-1,-5,6,1,-5,-20,0,-33
-5,-8,-3,6,-1,-5,6,2,-5,-19,1,-32
-5,-8,-2,6,-1,-5,6,3,-3,-18,2,-32
-5,-8,-2,6,-1,-5,7,5,-2,-17,3,-31
-5,-9,-2,6,-1,-6,7,6,0,-16,3,-31
-6,-9,-3,7,-1,-6,8,7,0,-16,3,-30
-6,-9,-3,7,-1,-6,8,7,0,-15,4,-30
-6,-9,-4,7,-1,-6,8,8,0,-14,5,-29
-6,-9,-4,7,-1,-6,8,8,-1,-14,5,-29
-6,-9,-4,7,-1,-6,8,7,-3,-14,5,-28
-6,-9,-3,7,-1,-6,8,7,-5,-14,5,-28
-5,-8,-3,7,-1,-6,8,8,-7,-14,5,-27
-5,-8,-3,6,-1,-5,8,8,-8,-14,5,-27
-5,-8,-3,6,-1,-5,8,8,-9,-14,5,-27
-5,-8,-3,6,-1,-5,8,8,-10,-14,5,-28
-6,-8,-3,6,-1,-5,8,8,-10,-14,5,-28
-6,-8,-2,7,-1,-5,8,8,-10,-13,6,-27
-6,-8,-2,7,-1,-5,9,8,-9,-13,7,-27
-5,-8,-3,6,-1,-5,9,8,-9,-13,8,-26
-5,-8,-3,6,-1,-5,9,8,-9,-13,9,-26
-6,-8,-3,7,-1,-5,9,8,-9,-13,9,-26
-6,-9,-3,7,-1,-6,9,9,-8,-13,10,-26
-5,-8,-3,6,0,-6,9,9,-8,-13,10,-27
-4,-8,-4,6,0,-6,9,9,-8,-13,9,-28
-4,-8,-5,6,0,-7,9,9,-8,-14,9,-29
-4,-8,-5,6,0,-7,9,9,-8,-14,8,-30
-4,-8,-5,7,0,-7,9,9,-9,-14,9,-30
-5,-8,-4,7,0,-7,9,9,-9,-13,10,-30
-5,-9,-3,7,0,-7,9,10,-8,-13,10,-30
-5,-9,-3,7,0,-6,9,10,-8,-13,11,-30
-5,-8,-3,7,-1,-6,9,10,-9,-13,11,-30
-6,-8,-2,7,-2,-5,9,10,-9,-13,11,-29
-6,-8,-1,7,-2,-5,9,11,-10,-13,11,-29
-6,-8,-2,8,-2,-6,9,11,-11,-12,11,-29
-6,-9,-2,7,-2,-6,9,11,-12,-12,11,-28
-5,-9,-3,7,-1,-7,9,11,-13,-11,12,-28
-5,-9,-3,7,-1,-7,9,11,-14,-11,12,-27
-6,-9,-3,7,-1,-7,9,11,-15,-11,12,-27
-6,-9,-3,7,-1,-7,9,11,-15,-10,12,-26
-6,-9,-3,7,-1,-7,9,12,-16,-10,12,-25
-6,-9,-3,7,-1,-7,8,12,-16,-10,13,-25
-6,-10,-3,8,-1,-7,8,12,-16,-10,12,-25
-6,-10,-3,8,-1,-7,8,12,-17,-10,11,-25
-7,-9,-2,8,-2,-7,8,12,-17,-11,10,-25
-6,-9,-2,7,-2,-6,7,12,-17,-11,10,-24
-6,-8,-2,7,-1,-6,7,12,-17,-11,10,-23
-6,-9,-3,7,-1,-7,6,12,-16,-11,10,-23
-6,-9,-3,7,0,-7,6,11,-16,-12,10,-24
-5,-9,-4,7,0,-7,5,11,-15,-12,10,-24
-5,-9,-4,7,0,-7,4,11,-14,-11,10,-24
-5,-9,-4,7,0,-7,4,11,-13,-11,10,-24
-5,-8,-3,6,-1,-6,4,11,-11,-10,11,-23
-5,-8,-3,6,0,-6,4,11,-10,-10,12,-23
-4,-8,-4,6,0,-7,4,11,-8,-9,13,-23
-4,-8,-5,6,1,-7,4,12,-7,-9,13,-23
-5,-7,-4,6,0,-7,4,12,-6,-9,14,-22
-5,-7,-4,5,0,-6,4,12,-5,-9,14,-22
-4,-7,-3,5,0,-5,3,11,-4,-9,15,-22
-4,-7,-3,5,0,-5,2,11,-4,-8,15,-22
-4,-6,-3,5,0,-5,2,10,-3,-8,15,-23
-3,-6,-3,4,0,-5,1,10,-2,-7,16,-23
-3,-5,-3,4,1,-5,1,10,-2,-7,16,-23
-2,-5,-3,4,1,-5,0,10,-2,-7,17,-23
-2,-5,-3,3,1,-5,0,10,-2,-7,18,-23
-2,-5,-3,3,1,-5,0,10,-2,-6,20,-22
-2,-5,-3,3,1,-5,0,11,-2,-6,21,-21
-1,-5,-4,3,2,-5,0,11,-2,-6,22,-20
-1,-5,-4,2,2,-5,0,11,-2,-6,22,-20
-1,-5,-4,2,2,-5,-1,10,-3,-7,22,-20
-1,-5,-4,2,2,-5,-1,10,-3,-7,22,-20
0,-4,-4,2,2,-5,-1,10,-3,-6,22,-19
0,-4,-4,1,3,-5,-1,10,-3,-5,23,-18
1,-3,-4,0,3,-5,-1,10,-4,-4,23,-17
1,-2,-3,0,3,-4,-1,10,-4,-3,24,-16
1,-1,-2,-1,2,-3,-2,10,-4,-3,24,-16
1,0,-2,-1,2,-2,-2,10,-4,-2,24,-16
1,0,-2,-1,1,-2,-3,9,-4,-2,25,-16
1,0,-2,-2,1,-1,-3,9,-5,-2,26,-15
2,0,-2,-2,2,-1,-4,9,-5,-1,27,-14
2,0,-2,-2,2,-2,-4,8,-6,-1,28,-13
2,-1,-2,-1,2,-2,-4,8,-7,-1,29,-12
2,-1,-2,-1,2,-2,-4,7,-7,-2,29,-11
2,0,-3,-1,3,-2,-5,7,-8,-2,29,-11
3,0,-4,-2,4,-3,-5,6,-9,-3,29,-11
4,0,-4,-2,4,-3,-6,5,-10,-4,30,-10
4,0,-3,-3,4,-2,-6,5,-10,-4,30,-9
4,1,-3,-3,4,-2,-7,4,-11,-4,30,-8
4,1,-2,-3,4,-2,-7,4,-13,-6,30,-8
4,1,-2,-3,3,-1,-7,3,-14,-7,29,-8
4,2,-2,-4,3,-1,-8,3,-16,-8,28,-8
4,2,-2,-4,3,-1,-8,2,-17,-9,28,-8
3,2,-1,-4,3,0,-8,2,-18,-10,28,-8
3,3,-1,-4,2,0,-8,1,-19,-10,27,-8
4,3,-1,-4,2,0,-8,1,-20,-10,27,-8
4,3,-1,-4,2,0,-8,0,-20,-11,26,-8
4,3,0,-4,2,0,-8,0,-21,-12,26,-8
4,3,0,-4,2,0,-8,0,-21,-12,26,-8
4,3,-1,-4,2,0,-8,0,-21,-12,26,-7
3,3,-1,-4,2,0,-8,0,-21,-12,26,-7
3,3,0,-3,2,0,-8,0,-20,-12,26,-8
3,3,0,-3,2,0,-8,0,-20,-11,26,-8
3,2,-1,-3,2,0,-8,0,-19,-11,26,-8
3,2,-1,-3,2,-1,-8,0,-19,-10,27,-8
3,1,-2,-3,2,-1,-8,0,-18,-10,27,-8
3,1,-2,-3,3,-1,-7,0,-18,-9,27,-9
4,1,-2,-3,3,-1,-7,0,-17,-9,27,-10
4,2,-1,-3,3,-1,-7,0,-16,-8,27,-11
3,1,-1,-3,3,-1,-7,0,-15,-8,27,-12
3,1,-1,-2,2,-1,-6,1,-14,-7,27,-13
2,0,-2,-2,2,-2,-6,1,-14,-6,27,-12
2,0,-2,-1,2,-2,-5,2,-13,-5,28,-11
2,0,-2,-1,2,-2,-5,2,-13,-4,28,-10
3,0,-2,-1,3,-2,-5,2,-12,-3,29,-10
2,0,-2,-1,2,-2,-5,2,-12,-2,30,-10
1,0,-1,-1,1,-1,-4,2,-12,-2,30,-11
0,0,0,0,1,-1,-4,2,-12,-2,29,-12
0,0,0,0,1,-1,-3,3,-12,-2,29,-14
0,0,0,0,1,-1,-3,3,-12,-2,28,-16
0,0,0,0,0,-1,-3,3,-11,-2,28,-17
0,0,0,0,0,-1,-2,4,-11,-2,28,-18
0,0,0,0,0,-1,-2,4,-11,-2,28,-18
-1,-1,0,0,0,-1,-2,4,-12,-2,28,-18
-1,-1,0,1,0,-2,-1,4,-12,-3,28,-19
-1,-2,0,1,0,-2,-1,4,-13,-3,28,-19
-1,-2,0,1,0,-3,0,4,-13,-3,28,-20
-1,-3,-1,2,0,-3,0,4,-13,-3,28,-21
-2,-3,0,2,0,-3,0,4,-14,-4,27,-22
-3,-3,0,3,-1,-3,0,4,-14,-5,25,-23
-3,-4,0,3,-1,-3,0,3,-15,-6,24,-25
-3,-4,0,4,-1,-3,0,3,-16,-7,22,-27
-4,-5,0,4,-1,-3,0,3,-17,-8,20,-28
-3,-5,0,4,-1,-3,0,3,-17,-8,20,-29
-3,-5,0,3,-1,-3,0,3,-18,-8,20,-30
-4,-5,0,3,-2,-3,0,3,-18,-8,20,-30
-5,-5,1,4,-3,-3,1,3,-19,-8,20,-30
-5,-6,0,5,-3,-3,1,4,-19,-9,20,-30
-5,-7,-1,5,-2,-4,1,4,-19,-9,19,-30
-5,-8,-1,6,-1,-5,1,4,-19,-9,19,-30
-4,-8,-2,5,-1,-5,2,4,-19,-9,18,-30
-4,-7,-1,5,-1,-5,2,4,-19,-9,18,-29
-5,-7,-1,6,-1,-5,1,4,-18,-9,18,-29
-5,-7,-1,6,-2,-5,1,4,-17,-9,19,-29
-6,-7,0,6,-2,-5,1,4,-16,-9,19,-29
-7,-7,0,7,-3,-5,1,4,-15,-9,19,-29
-7,-7,1,6,-3,-4,1,4,-14,-9,19,-29
-7,-7,1,6,-3,-4,1,4,-14,-9,18,-30
-6,-7,0,6,-3,-4,1,5,-13,-9,18,-31
-6,-7,0,6,-3,-4,1,5,-13,-9,17,-32
-6,-7,0,6,-3,-4,1,5,-12,-8,18,-33
-6,-7,0,6,-3,-4,1,5,-12,-8,18,-33
-6,-7,0,6,-2,-4,1,5,-12,-7,17,-34
-6,-7,0,6,-2,-5,1,5,-11,-7,17,-34
-6,-7,0,6,-2,-5,1,5,-11,-7,17,-35
-6,-7,0,5,-2,-4,0,5,-11,-7,17,-36
-6,-6,1,5,-3,-3,0,5,-11,-7,16,-37
-7,-5,1,5,-3,-3,0,5,-12,-7,16,-38
-7,-5,2,5,-4,-2,0,5,-12,-6,16,-38
-7,-5,2,6,-4,-2,0,5,-12,-6,16,-39
-7,-6,1,6,-3,-3,0,5,-12,-6,16,-39
-7,-6,1,6,-3,-3,1,5,-12,-6,16,-39
-7,-6,1,5,-3,-4,1,5,-11,-6,16,-40
-7,-6,1,5,-3,-4,1,5,-11,-6,16,-40
-7,-6,1,6,-3,-4,1,5,-10,-6,16,-41
-7,-6,1,6,-3,-3,1,5,-10,-5,16,-42
-7,-6,1,6,-3,-3,1,5,-9,-4,17,-43
-7,-6,1,6,-3,-3,1,5,-9,-3,18,-44
-7,-6,2,6,-3,-3,1,5,-9,-3,19,-44
-7,-5,2,6,-4,-2,1,5,-9,-2,19,-44
-7,-5,3,5,-4,-2,1,5,-9,-2,20,-46
-7,-4,3,5,-4,-1,1,5,-9,-2,21,-47
-6,-4,2,5,-3,-1,1,5,-9,-2,21,-48
-6,-5,2,5,-3,-1,1,5,-10,-2,21,-49
-7,-5,3,5,-4,-1,1,5,-10,-1,21,-50
-8,-4,4,5,-5,0,0,5,-10,-1,22,-51
-8,-4,4,5,-6,0,0,5,-11,-1,22,-52
-8,-4,4,5,-6,0,0,5,-11,-1,22,-53
-8,-4,4,5,-6,0,0,4,-11,-1,21,-55
-8,-4,3,5,-5,-1,0,4,-11,-1,21,-56
-7,-4,3,5,-4,-1,0,5,-11,-1,22,-56
-6,-4,2,5,-3,-2,0,5,-12,-1,23,-57
-6,-5,1,5,-3,-2,0,5,-12,-1,24,-57
-6,-5,1,5,-3,-2,0,5,-13,-1,24,-58
-5,-5,1,5,-2,-2,0,5,-13,-1,24,-60
-5,-5,1,5,-2,-2,0,4,-13,-1,24,-61
-6,-5,1,5,-3,-2,0,4,-13,-1,24,-61
-7,-5,2,6,-4,-1,0,4,-13,-1,24,-62
-8,-5,3,6,-4,-1,0,4,-13,-2,24,-62
-8,-5,2,6,-4,-2,0,4,-14,-2,23,-64
-7,-5,2,6,-3,-2,0,3,-14,-3,22,-66
-7,-5,1,6,-3,-2,0,3,-14,-3,22,-67
-7,-5,1,6,-3,-2,0,3,-14,-3,22,-68
-7,-6,1,6,-3,-3,0,3,-14,-3,21,-69
-7,-6,0,6,-3,-3,0,3,-14,-3,21,-69
-7,-6,0,6,-3,-3,0,3,-14,-4,21,-69
-7,-6,1,6,-4,-3,0,3,-14,-4,21,-69
-8,-6,1,7,-4,-3,0,3,-15,-4,21,-70
-8,-6,2,7,-5,-2,0,3,-15,-4,21,-71
-8,-6,2,7,-5,-2,0,3,-15,-4,21,-71
-8,-6,1,7,-4,-2,0,3,-15,-4,20,-72
-8,-6,1,7,-4,-2,0,4,-15,-4,20,-73
-8,-6,1,7,-4,-2,0,4,-15,-4,19,-74
-8,-7,1,7,-4,-3,0,4,-15,-5,19,-75
-8,-7,1,7,-4,-3,0,4,-15,-5,19,-76
-8,-8,1,7,-4,-3,0,4,-15,-5,19,-77
-9,-7,1,7,-4,-3,0,4,-15,-5,18,-78
-9,-7,1,7,-4,-3,0,3,-16,-5,17,-79
-9,-7,1,7,-4,-3,0,3,-16,-6,16,-79
-10,-8,1,8,-4,-4,0,3,-16,-6,16,-80
-10,-8,0,9,-4,-4,0,3,-16,-6,15,-81
-10,-9,0,9,-4,-5,0,3,-16,-7,15,-82
-9,-9,0,9,-4,-5,0,3,-16,-7,15,-82
-9,-9,0,9,-4,-5,0,3,-16,-7,15,-83
-9,-9,0,9,-4,-5,0,3,-16,-7,15,-83
-9,-9,0,9,-4,-5,0,3,-16,-7,15,-83
-9,-8,1,9,-4,-4,0,3,-16,-7,14,-84
-9,-8,1,9,-4,-4,0,3,-16,-7,13,-85
-8,-7,2,8,-4,-3,0,3,-16,-6,12,-86
-8,-7,2,8,-4,-3,0,2,-15,-6,13,-86
-7,-6,2,7,-4,-2,0,2,-15,-5,13,-86
-7,-7,2,7,-4,-2,-1,2,-15,-5,14,-86
-7,-7,1,7,-4,-3,-1,2,-14,-4,15,-86
-8,-8,1,7,-3,-3,0,2,-14,-4,16,-86
-8,-8,0,8,-3,-4,0,2,-13,-5,17,-86
-9,-9,0,8,-3,-4,0,2,-12,-5,17,-86
-9,-9,0,8,-4,-4,0,2,-12,-5,18,-87
-9,-9,0,9,-4,-4,0,2,-11,-5,17,-88
-10,-10,0,9,-5,-4,0,2,-11,-5,17,-90
-10,-9,1,10,-5,-4,0,2,-10,-6,16,-91
-10,-9,2,10,-6,-3,0,2,-10,-6,16,-92
-10,-9,1,10,-5,-3,0,2,-9,-6,16,-93
-10,-9,1,10,-5,-4,0,2,-9,-7,15,-94
-10,-9,1,9,-5,-4,0,2,-9,-7,14,-95
-9,-9,0,9,-4,-4,0,2,-9,-8,14,-96
-8,-9,-1,8,-3,-5,0,2,-9,-8,14,-96
-8,-9,-1,8,-3,-5,0,1,-9,-8,14,-97
-8,-9,0,8,-3,-5,0,1,-9,-7,15,-98
-8,-8,0,8,-3,-5,0,1,-9,-7,15,-100
-9,-8,0,8,-3,-5,0,1,-9,-7,14,-102
-9,-8,0,8,-3,-4,0,1,-9,-7,14,-103
-8,-8,0,8,-3,-4,0,0,-9,-7,15,-103
-9,-8,0,8,-4,-4,0,0,-8,-7,15,-104
-9,-8,0,8,-5,-4,0,1,-8,-7,15,-104
-10,-8,1,9,-5,-4,0,1,-8,-7,15,-105
-9,-8,0,9,-5,-4,0,1,-8,-7,15,-106
-9,-8,0,9,-4,-5,0,1,-8,-7,15,-106
-9,-9,0,9,-4,-5,0,1,-9,-7,15,-107
-9,-9,0,9,-4,-5,0,1,-9,-7,14,-107
-10,-9,0,10,-5,-4,0,1,-9,-7,14,-107
-10,-8,0,9,-5,-4,0,1,-9,-7,14,-107
-9,-7,1,8,-5,-3,0,1,-10,-8,14,-108
-8,-7,1,8,-5,-3,0,1,-10,-8,13,-109
-9,-7,1,8,-5,-3,0,1,-10,-8,14,-110
-9,-7,2,8,-6,-2,0,1,-10,-7,14,-110
-10,-7,2,8,-6,-2,0,1,-10,-7,14,-110
-10,-7,2,8,-6,-2,0,1,-10,-6,14,-111
-10,-7,2,9,-6,-2,0,1,-10,-6,13,-111
-11,-7,3,9,-6,-2,0,1,-10,-6,12,-112
-10,-7,2,9,-5,-3,0,1,-10,-6,12,-113
-9,-8,1,9,-4,-4,0,1,-10,-6,12,-113
-9,-8,0,9,-4,-5,0,0,-10,-6,11,-114
-9,-8,0,9,-4,-5,-1,0,-10,-7,9,-116
-9,-7,0,8,-4,-4,-1,0,-10,-7,7,-117
-8,-6,1,8,-4,-3,-2,-1,-10,-8,6,-118
-8,-6,1,7,-4,-3,-2,-1,-10,-8,6,-119
-9,-6,2,7,-4,-2,-1,-1,-9,-7,7,-119
-9,-6,2,7,-5,-2,-2,-2,-9,-7,8,-119
-8,-5,2,7,-5,-2,-2,-2,-8,-6,8,-119
-8,-4,3,6,-6,-1,-2,-2,-7,-5,9,-119
-8,-4,4,6,-6,0,-2,-2,-6,-5,9,-119
-8,-3,4,6,-6,0,-2,-2,-5,-5,9,-119
-8,-3,5,6,-6,0,-2,-2,-5,-4,10,-118
-8,-3,5,5,-6,0,-2,-2,-4,-4,10,-117
-8,-2,6,5,-6,1,-2,-2,-4,-4,10,-118
-8,-2,6,5,-7,1,-2,-2,-4,-4,9,-118
-8,-2,6,5,-7,2,-1,-2,-3,-4,9,-119
-8,-1,6,5,-7,2,-1,-2,-2,-3,9,-119
-8,-1,6,5,-7,2,-1,-2,-1,-3,9,-118
-7,-1,6,4,-6,1,-1,-2,0,-2,10,-118
-6,-2,5,4,-5,1,-1,-1,0,-2,11,-118
-6,-1,5,4,-5,1,0,-1,1,-1,11,-118
-5,0,5,3,-4,1,0,-1,2,-1,12,-118
-4,0,4,2,-4,1,-1,-1,2,0,12,-118
-4,0,4,2,-3,1,-1,-1,3,0,13,-118
-4,0,3,2,-3,1,-2,0,3,0,13,-118
-3,0,3,1,-3,1,-3,-1,4,0,13,-119
-2,0,2,1,-2,1,-5,-1,4,0,13,-119
-1,1,2,0,-1,1,-7,-2,3,0,13,-120
0,1,2,0,-1,1,-8,-3,3,0,13,-120
0,2,2,0,-1,1,-8,-4,3,0,13,-120
0,2,2,0,-1,1,-8,-4,3,0,13,-120
0,1,1,0,0,1,-8,-4,2,0,13,-121
0,0,0,0,0,0,-8,-4,2,0,12,-122
0,0,-1,0,0,-1,-7,-4,2,-1,12,-123
0,-2,-2,1,1,-2,-7,-4,1,-1,11,-124
0,-3,-2,1,1,-3,-6,-3,1,-1,11,-124
0,-3,-2,1,2,-4,-6,-3,2,-1,11,-125
0,-3,-2,1,2,-4,-5,-3,2,-2,11,-126
0,-3,-2,1,1,-4,-5,-4,2,-2,10,-127
0,-3,-2,2,1,-4,-4,-4,3,-2,10,-128
-1,-3,-2,2,1,-3,-4,-4,4,-2,10,-128
-1,-3,-2,2,0,-3,-3,-4,5,-2,10,-128
-1,-2,-1,2,0,-2,-3,-4,6,-2,10,-129
-2,-3,0,2,0,-2,-2,-4,7,-2,10,-129
-3,-3,0,3,-1,-3,-2,-5,8,-2,10,-129
-4,-4,-1,4,-1,-3,-1,-5,9,-1,11,-129
-5,-6,-1,5,-1,-4,-1,-4,10,-1,11,-129
-6,-7,-1,6,-2,-4,0,-4,11,0,11,-129
-6,-7,0,6,-2,-4,1,-3,12,0,11,-129
-6,-6,0,6,-2,-4,1,-3,13,0,11,-130
-6,-6,0,6,-2,-4,2,-3,14,-1,11,-131
-6,-5,0,5,-1,-4,2,-4,14,-1,10,-132
-5,-5,0,5,-1,-4,2,-5,14,-2,10,-133
-5,-6,0,5,-1,-4,2,-5,14,-2,9,-134
-5,-6,0,6,-2,-4,3,-6,14,-3,8,-136
-6,-7,0,6,-2,-4,3,-6,13,-3,7,-137
-6,-7,-1,7,-2,-5,3,-5,13,-4,7,-137
-7,-8,-2,7,-1,-6,3,-5,12,-4,6,-138
-7,-8,-2,7,-1,-6,3,-5,12,-4,6,-138
-7,-8,-1,7,-2,-6,3,-5,12,-4,6,-139
-7,-8,-1,8,-3,-5,3,-4,12,-3,6,-139
-8,-8,0,8,-4,-5,4,-4,12,-3,7,-138
-9,-8,0,9,-4,-5,4,-3,12,-2,8,-138
-9,-8,0,8,-4,-5,4,-3,12,-1,8,-138
-8,-8,0,8,-4,-5,4,-3,11,-2,7,-139
-8,-8,0,8,-4,-5,4,-3,11,-2,6,-139
-9,-8,0,8,-4,-4,4,-3,10,-2,5,-140
-9,-8,0,8,-4,-4,4,-3,10,-2,4,-141
-9,-8,0,8,-4,-5,5,-3,10,-2,4,-142
-9,-8,0,8,-4,-5,6,-2,11,-2,4,-142
-9,-8,0,9,-4,-5,7,-1,14,-1,3,-143
-9,-8,1,9,-5,-4,8,0,18,0,2,-144
-10,-7,3,9,-6,-2,10,3,24,1,2,-146
-10,-4,5,7,-7,0,11,5,32,4,2,-147
-9,-1,8,5,-8,3,11,8,41,9,4,-145
-8,3,11,2,-8,6,12,12,52,17,9,-140
-6,8,13,-1,-8,9,12,16,66,28,18,-133
-2,13,15,-5,-7,13,11,20,81,43,29,-124
3,19,15,-11,-5,16,9,24,97,61,43,-114
10,25,15,-17,-2,19,5,26,111,83,61,-101
17,33,16,-25,1,23,0,26,118,107,82,-85
24,42,18,-33,3,29,-7,21,115,132,104,-68
31,52,22,-41,5,36,-17,12,103,157,127,-50
37,63,26,-50,6,44,-28,1,84,182,150,-32
41,72,30,-57,6,50,-37,-11,64,204,169,-16
43,78,34,-61,5,55,-44,-22,42,216,181,-5
43,76,32,-60,5,53,-47,-30,22,209,179,-5
40,66,25,-53,8,44,-44,-34,3,184,158,-19
36,51,15,-44,11,32,-38,-35,-13,148,127,-41
31,36,6,-33,13,20,-31,-35,-29,106,92,-66
23,22,0,-23,13,10,-25,-36,-47,60,59,-89
15,10,-5,-13,11,2,-19,-38,-66,13,29,-109
7,0,-8,-4,9,-5,-15,-40,-84,-28,3,-126
0,-9,-10,3,7,-10,-12,-42,-98,-59,-17,-140
-4,-15,-12,9,5,-14,-9,-43,-105,-77,-31,-150
-8,-21,-14,14,4,-18,-6,-44,-107,-87,-41,-158
-11,-27,-15,18,3,-22,-4,-44,-106,-93,-48,-166
-13,-30,-15,21,1,-23,-1,-43,-102,-95,-53,-171
-15,-31,-14,23,0,-24,0,-41,-95,-93,-54,-175
-17,-30,-12,23,-1,-22,0,-38,-85,-87,-53,-176
-18,-28,-10,23,-2,-20,0,-35,-74,-79,-49,-175
-18,-25,-7,22,-4,-17,-1,-32,-62,-71,-45,-173
-18,-22,-4,20,-5,-13,-2,-30,-51,-64,-41,-171
-17,-18,-1,17,-6,-10,-3,-29,-40,-57,-37,-168
-15,-14,1,14,-7,-7,-4,-28,-30,-50,-33,-165
-13,-10,3,11,-7,-5,-4,-26,-19,-43,-28,-162
-11,-8,3,9,-7,-3,-4,-24,-9,-36,-24,-160
-9,-6,3,7,-6,-3,-4,-20,1,-29,-20,-157
-8,-6,2,7,-4,-3,-2,-16,9,-23,-16,-155
-8,-6,1,7,-3,-3,0,-12,15,-18,-13,-153
-8,-6,1,7,-3,-3,1,-10,19,-14,-11,-153
-7,-6,1,6,-3,-3,3,-8,21,-12,-10,-152
-6,-5,1,5,-3,-3,3,-7,22,-10,-9,-151
-6,-5,1,5,-3,-3,3,-7,23,-9,-8,-150
-6,-5,1,4,-3,-2,3,-7,24,-8,-6,-148
-6,-5,1,4,-3,-2,3,-6,25,-6,-6,-147
-6,-5,1,4,-3,-2,4,-6,27,-5,-5,-146
-6,-4,1,4,-3,-2,4,-5,28,-4,-5,-146
-6,-4,1,4,-2,-2,4,-4,29,-3,-6,-146
-6,-3,2,4,-3,-1,4,-4,29,-3,-6,-146
-6,-3,3,4,-3,-1,4,-4,28,-3,-6,-146
-6,-3,2,4,-3,-1,4,-4,28,-3,-6,-145
-5,-3,1,3,-2,-2,4,-4,27,-3,-6,-145
-4,-4,0,3,-1,-3,4,-5,27,-3,-7,-144
-4,-4,0,4,-1,-3,4,-5,27,-2,-7,-144
-5,-5,0,4,-1,-3,5,-4,27,-2,-6,-144
-5,-5,0,5,-1,-3,5,-4,26,-2,-6,-144
-5,-5,0,5,-1,-3,5,-4,26,-2,-6,-144
-5,-5,0,5,-2,-3,5,-4,25,-2,-6,-145
-5,-5,0,5,-2,-3,5,-3,25,-1,-5,-145
-5,-4,1,4,-2,-2,5,-3,25,-1,-4,-145
-5,-3,2,3,-2,-1,5,-3,25,-1,-4,-146
-5,-3,2,4,-3,-1,5,-3,25,0,-4,-147
-5,-3,2,4,-3,-1,5,-3,25,0,-4,-148
-5,-4,2,5,-3,-1,5,-2,25,0,-4,-148
-5,-4,2,5,-3,-2,5,-2,25,0,-3,-149
-5,-4,2,4,-3,-2,5,-2,26,0,-3,-149
-5,-4,2,4,-3,-2,6,-2,26,0,-2,-150
-5,-4,1,4,-3,-2,6,-2,27,0,-2,-150
-5,-4,1,4,-2,-2,6,-3,27,0,-2,-150
-5,-4,1,4,-2,-2,5,-3,28,0,-2,-151
-5,-3,2,4,-2,-2,5,-2,28,0,-2,-151
-5,-3,2,4,-2,-2,5,-1,29,0,-3,-152
-5,-3,2,4,-2,-2,5,-1,29,0,-3,-152
-5,-4,2,4,-2,-2,5,-1,28,0,-4,-152
-5,-4,2,4,-2,-2,5,0,28,1,-5,-152
-5,-4,2,4,-3,-1,5,0,29,1,-4,-152
-5,-4,2,4,-3,-1,5,0,29,2,-4,-152
-5,-4,1,4,-3,-1,6,0,30,3,-3,-151
-5,-4,1,5,-2,-1,6,0,31,4,-2,-149
-5,-4,1,5,-2,-1,6,0,32,5,-1,-149
-5,-4,0,5,-1,-2,6,0,33,6,-1,-148
-4,-4,0,5,-1,-3,6,0,34,6,-1,-148
-4,-5,-1,5,0,-4,6,0,35,6,-1,-148
-4,-5,-1,5,0,-4,5,0,36,6,-1,-148
-4,-5,-1,5,0,-4,5,0,37,6,-1,-148
-4,-5,-1,4,0,-4,5,0,38,6,-1,-148
-4,-4,0,4,0,-3,4,0,39,6,-1,-148
-4,-3,0,4,-1,-3,4,0,40,6,-2,-148
-4,-3,0,4,-1,-3,4,0,41,5,-2,-149
-4,-3,0,4,-1,-3,4,0,41,5,-2,-150
-3,-3,0,3,-1,-2,4,0,42,6,-2,-150
-3,-2,1,2,-1,-1,4,1,43,7,-1,-150
-2,-1,1,2,-1,-1,4,1,44,7,0,-150
-2,-1,1,2,-1,-1,4,1,45,8,0,-151
-2,-1,1,2,0,-1,4,1,45,8,1,-151
-2,-1,1,2,0,-1,4,1,46,9,1,-152
-3,-1,2,2,-1,0,4,1,46,9,1,-154
-3,0,3,2,-1,1,4,2,46,10,1,-155
-3,0,3,1,-1,1,4,1,46,10,1,-156
-2,0,2,1,0,0,4,1,46,10,1,-157
-1,0,0,1,0,0,3,1,46,10,2,-157
-1,0,0,0,1,-1,3,0,46,10,2,-156
0,0,0,0,1,-1,2,0,46,10,3,-155
0,0,0,0,1,-1,2,0,46,10,3,-155
0,0,0,0,1,-1,2,0,45,10,4,-154
0,0,0,-1,1,0,2,1,45,11,4,-153
0,1,1,-1,1,0,2,1,45,11,5,-152
0,1,1,-1,1,0,2,1,45,12,6,-151
0,2,2,-1,1,1,2,2,45,13,7,-149
0,2,2,-2,1,1,2,2,45,14,7,-148
1,3,2,-2,1,2,2,2,45,14,8,-147
1,3,2,-2,1,2,1,2,44,15,8,-146
2,4,2,-3,2,2,0,2,44,15,9,-145
3,5,2,-4,2,3,0,2,44,16,10,-144
4,5,2,-4,2,3,-1,2,43,16,10,-143
4,6,2,-4,2,3,-1,2,43,17,11,-142
4,6,2,-5,2,3,-1,2,42,17,12,-140
4,7,2,-5,2,3,-1,1,41,17,12,-139
5,7,2,-6,2,4,-1,0,40,17,13,-138
5,8,2,-6,2,4,-1,0,39,17,13,-137
6,8,2,-7,3,4,-2,0,37,17,14,-136
7,8,2,-8,3,4,-2,0,36,17,14,-135
8,9,2,-8,4,4,-2,0,34,17,15,-135
8,10,2,-8,4,5,-3,-1,33,17,15,-134
9,10,2,-9,4,5,-3,-2,32,17,16,-133
8,11,2,-9,4,6,-3,-2,31,17,16,-132
8,11,2,-10,4,6,-3,-3,30,16,15,-132
9,12,2,-10,4,6,-3,-4,28,15,15,-132
9,12,2,-10,4,6,-4,-4,27,14,15,-133
10,12,3,-10,4,6,-4,-5,25,13,15,-133
10,12,3,-10,4,7,-5,-5,24,13,15,-133
10,12,3,-10,4,7,-5,-6,23,12,16,-132
10,12,3,-10,4,7,-5,-6,22,12,16,-132
10,12,3,-10,4,7,-5,-6,21,12,15,-132
9,13,3,-10,4,7,-5,-6,20,12,15,-132
9,13,4,-10,3,8,-5,-7,19,11,15,-132
8,13,4,-10,3,8,-5,-7,18,11,15,-132
9,13,4,-10,3,7,-5,-7,17,10,15,-131
9,13,3,-10,4,7,-5,-8,16,10,15,-131
9,13,3,-10,4,7,-6,-8,16,10,16,-131
9,13,3,-10,4,7,-6,-8,16,10,16,-131
10,13,3,-11,4,7,-5,-7,16,10,16,-131
10,13,2,-11,5,7,-5,-8,16,11,16,-131
10,13,2,-11,5,6,-5,-8,16,11,16,-131
10,13,2,-11,5,6,-5,-8,16,11,16,-131
10,13,3,-11,5,7,-5,-8,15,11,16,-132
10,13,4,-11,4,7,-5,-8,15,12,15,-132
9,13,4,-10,3,8,-5,-8,16,12,15,-132
8,13,4,-10,3,8,-4,-7,17,13,16,-132
8,13,4,-10,3,8,-4,-7,17,14,16,-132
9,13,3,-11,3,7,-4,-7,17,14,16,-132
8,13,3,-10,3,7,-3,-7,17,14,15,-132
8,12,4,-10,3,7,-3,-7,17,14,15,-133
7,12,4,-9,3,7,-3,-7,17,15,15,-133
7,12,4,-9,3,7,-3,-6,17,16,15,-134
7,12,4,-9,3,7,-3,-6,17,16,15,-134
7,11,4,-9,2,7,-3,-5,17,16,15,-134
6,11,4,-8,2,7,-2,-5,17,16,14,-133
6,11,4,-8,2,7,-2,-5,17,16,14,-133
5,11,4,-8,2,7,-2,-5,16,16,13,-134
5,11,4,-8,2,7,-1,-5,16,16,12,-134
5,11,4,-7,2,6,-1,-5,15,16,12,-134
5,10,4,-7,2,6,-1,-5,15,16,11,-134
5,10,4,-7,2,6,-1,-5,14,15,11,-134
5,9,4,-7,1,5,0,-5,13,14,10,-134
5,9,4,-6,1,5,0,-5,13,13,10,-134
4,8,4,-6,1,5,0,-5,12,13,9,-134
4,8,4,-6,0,6,0,-5,12,12,9,-134
4,8,4,-6,1,6,0,-5,11,12,8,-134
4,8,3,-6,1,5,0,-5,11,12,7,-133
4,8,3,-5,1,5,0,-5,10,12,7,-133
4,7,2,-5,1,4,0,-5,10,11,6,-133
3,6,2,-4,1,4,0,-5,9,10,5,-133
3,6,2,-4,1,4,0,-5,8,10,3,-133
3,6,2,-4,1,4,0,-4,7,9,2,-133
3,6,2,-5,2,3,1,-4,7,9,2,-132
3,5,2,-4,2,3,1,-4,7,9,1,-132
2,5,2,-4,1,3,2,-4,7,9,1,-131
2,5,2,-3,1,3,2,-4,7,9,0,-131
2,5,2,-3,1,3,2,-3,7,9,0,-131
1,5,2,-2,0,3,2,-3,7,8,-1,-131
1,5,2,-2,0,3,2,-3,7,7,-2,-131
1,5,2,-2,0,3,2,-3,7,6,-3,-131
2,5,2,-3,0,3,2,-4,8,6,-3,-130
2,6,3,-3,0,3,2,-4,8,6,-3,-129
3,6,3,-3,0,3,2,-4,9,7,-3,-128
3,7,3,-3,1,3,2,-4,9,7,-3,-127
3,7,3,-4,1,3,2,-4,10,7,-3,-127
3,7,3,-4,1,3,2,-4,10,7,-3,-126
3,7,2,-5,2,3,2,-4,11,8,-3,-126
4,6,2,-5,2,3,2,-4,12,8,-3,-125
4,6,1,-5,2,3,2,-4,12,8,-3,-125
4,6,2,-5,2,3,2,-3,13,8,-4,-124
2,6,3,-4,0,3,2,-3,14,9,-4,-124
1,6,4,-3,0,3,3,-2,15,9,-4,-123
1,6,4,-3,-1,4,3,-2,15,10,-4,-122
1,6,4,-4,0,4,3,-2,15,10,-4,-122
2,6,4,-4,0,4,3,-2,15,10,-4,-122
3,7,4,-5,0,5,3,-2,15,10,-4,-122
3,7,4,-5,0,5,3,-2,15,10,-4,-121
3,8,4,-5,0,5,3,-3,16,10,-4,-121
3,8,4,-5,0,5,3,-3,16,11,-4,-120
3,8,4,-5,0,5,3,-3,16,11,-4,-120
3,8,4,-5,1,4,3,-2,16,12,-4,-120
4,8,4,-6,1,5,2,-2,16,12,-4,-120
4,9,4,-6,1,5,2,-2,17,13,-4,-120
4,9,4,-6,1,5,2,-2,17,13,-4,-120
4,9,4,-6,1,6,2,-2,18,14,-4,-119
4,9,4,-6,0,6,2,-2,18,14,-4,-119
4,10,4,-7,0,7,2,-2,18,14,-4,-119
4,10,5,-7,0,7,2,-2,18,14,-3,-120
4,10,5,-6,0,7,2,-2,18,15,-3,-120
4,10,5,-6,0,7,2,-2,18,15,-3,-120
4,10,5,-6,0,7,2,-3,18,15,-3,-120
4,10,5,-7,0,7,2,-3,18,15,-3,-121
4,10,5,-7,0,7,2,-3,18,14,-3,-121
4,10,5,-7,0,7,2,-4,18,14,-3,-121
3,10,5,-7,0,7,2,-4,18,14,-3,-120
3,10,5,-7,0,7,1,-5,17,14,-4,-121
4,10,5,-7,0,6,1,-5,17,14,-4,-121
4,9,4,-7,0,6,1,-5,16,14,-4,-121
4,9,4,-6,0,6,1,-5,16,14,-4,-121
5,9,4,-6,1,5,1,-5,16,14,-5,-121
5,9,3,-6,1,5,1,-5,15,13,-5,-121
5,9,3,-6,1,5,1,-5,15,13,-4,-121
5,9,3,-6,1,5,1,-5,15,14,-4,-120
5,8,3,-6,1,5,1,-5,15,14,-4,-119
5,8,3,-6,1,5,1,-5,14,14,-4,-119
4,9,4,-6,1,5,1,-4,14,14,-4,-118
4,9,4,-6,1,5,1,-4,14,14,-4,-118
4,9,4,-6,1,5,1,-4,13,13,-4,-118
4,9,4,-6,1,5,1,-4,13,13,-5,-118
4,9,4,-6,1,6,1,-4,12,12,-5,-118
4,9,4,-6,1,6,1,-4,12,12,-6,-118
4,8,4,-6,0,6,1,-4,12,12,-6,-118
4,8,4,-6,0,6,1,-5,11,12,-7,-118
4,8,4,-6,0,6,1,-5,11,11,-7,-118
4,8,4,-6,1,6,1,-5,10,11,-7,-118
4,8,4,-6,1,6,1,-4,10,11,-7,-117
4,8,4,-6,1,6,1,-4,9,11,-7,-117
4,8,4,-6,1,6,1,-5,9,11,-7,-116
4,8,3,-6,1,5,1,-5,9,11,-7,-116
4,8,3,-6,1,5,1,-5,8,11,-8,-116
4,8,3,-6,1,5,1,-5,8,11,-8,-116
4,8,3,-6,1,5,1,-5,8,11,-9,-115
5,8,3,-6,2,5,1,-5,7,10,-9,-115
5,8,2,-6,2,5,1,-5,7,10,-10,-114
5,8,2,-6,2,5,1,-5,7,9,-10,-114
5,8,2,-6,2,5,1,-5,7,9,-10,-113
5,8,2,-6,2,5,1,-5,7,8,-10,-112
5,8,2,-6,2,5,1,-5,7,8,-10,-111
5,8,2,-6,2,4,1,-5,7,8,-10,-111
6,7,1,-6,3,4,1,-5,6,8,-10,-111
6,7,1,-6,3,4,1,-5,6,8,-10,-110
6,7,1,-6,4,4,1,-5,6,8,-9,-110
6,7,1,-6,4,4,1,-5,5,8,-9,-110
6,7,1,-6,4,4,1,-5,5,8,-9,-109
6,7,1,-6,4,4,1,-5,5,8,-9,-109
6,7,1,-6,4,4,1,-5,5,8,-9,-108
5,7,1,-6,3,4,1,-5,5,8,-9,-108
5,7,2,-6,3,5,1,-5,5,8,-9,-108
5,7,2,-6,2,5,1,-5,5,8,-9,-108
6,7,2,-6,3,5,2,-5,5,8,-10,-108
6,7,1,-7,3,5,2,-4,4,8,-10,-108
7,8,1,-7,4,5,2,-4,4,8,-10,-108
7,8,2,-7,4,5,2,-4,4,8,-10,-107
7,9,2,-7,3,5,2,-4,4,7,-10,-107
7,9,2,-7,3,5,2,-4,4,7,-10,-106
7,8,2,-7,3,5,2,-4,4,7,-10,-106
6,8,2,-7,3,5,2,-4,4,7,-10,-106
6,8,2,-7,3,5,2,-4,4,7,-10,-106
5,8,3,-6,2,5,2,-4,4,7,-11,-106
5,8,3,-6,2,5,2,-4,4,7,-11,-106
5,8,3,-6,2,5,2,-4,4,7,-11,-106
5,8,2,-6,2,5,2,-4,3,7,-12,-106
6,8,1,-6,3,4,2,-4,3,7,-12,-105
6,8,1,-7,3,4,2,-4,3,7,-12,-105
7,8,1,-7,3,5,2,-4,3,7,-11,-104
7,9,2,-8,3,5,2,-4,2,7,-11,-104
7,9,1,-8,4,5,2,-4,2,7,-11,-104
8,9,1,-8,4,5,2,-4,1,7,-11,-104
7,8,1,-8,4,5,3,-4,1,7,-11,-104
7,8,1,-7,3,5,3,-4,1,7,-11,-104
7,8,1,-7,4,5,3,-4,1,7,-12,-104
7,8,1,-7,4,4,2,-4,0,7,-12,-104
7,7,0,-7,4,4,2,-5,0,6,-13,-104
7,7,0,-7,4,4,3,-5,0,7,-13,-104
7,7,0,-7,4,4,3,-5,0,7,-13,-104
7,8,1,-7,3,4,3,-5,0,7,-13,-105
6,8,2,-7,3,5,3,-5,0,7,-13,-105
6,8,2,-7,2,5,3,-4,0,7,-13,-105
6,8,2,-7,2,5,4,-4,0,7,-14,-104
6,7,2,-7,3,5,4,-4,0,7,-14,-104
6,7,1,-7,3,5,4,-4,0,6,-15,-104
6,7,1,-7,3,5,4,-4,-1,6,-15,-104
6,7,1,-6,3,5,4,-4,-1,6,-16,-104
6,7,1,-6,3,4,4,-4,-1,6,-16,-103
6,7,1,-6,3,4,4,-3,-1,7,-15,-102
6,6,1,-6,3,4,4,-3,-1,7,-15,-102
6,6,0,-6,3,4,3,-3,-1,7,-15,-101
6,7,1,-7,3,4,3,-3,-1,7,-15,-101
6,7,1,-7,3,5,3,-3,-1,7,-15,-101
6,7,2,-7,3,5,3,-3,-1,7,-15,-101
6,7,2,-7,3,5,3,-3,-1,7,-15,-100
6,7,1,-7,3,5,3,-3,-2,7,-15,-100
7,7,1,-7,3,5,3,-4,-2,7,-15,-99
7,8,1,-7,3,5,3,-4,-2,7,-15,-99
7,8,2,-8,3,5,3,-4,-2,7,-15,-98
7,9,2,-8,3,6,3,-4,-1,7,-15,-97
7,9,3,-8,2,6,3,-4,-1,7,-15,-97
6,10,4,-8,2,7,3,-4,-1,7,-15,-96
6,10,4,-8,2,7,2,-4,-1,8,-15,-96
7,11,4,-9,2,8,2,-4,-1,8,-15,-96
7,11,4,-10,2,8,1,-4,-1,8,-15,-96
7,12,5,-10,1,9,1,-5,-1,9,-15,-96
7,12,6,-10,1,9,1,-6,-1,9,-15,-95
7,12,6,-10,1,10,1,-7,-1,9,-15,-95
7,12,6,-10,1,10,1,-7,-1,9,-15,-94
7,13,7,-10,0,10,1,-6,0,9,-15,-93
7,13,7,-10,0,10,2,-5,0,10,-14,-92
7,14,6,-10,1,10,2,-4,1,11,-14,-92
7,14,6,-11,1,10,2,-3,2,11,-13,-92
7,14,6,-11,1,10,2,-3,3,12,-13,-91
8,14,6,-11,1,10,3,-2,3,13,-12,-91
8,13,5,-11,2,10,3,-2,4,13,-12,-90
9,13,5,-11,3,9,3,-1,4,13,-12,-89
10,13,4,-12,4,9,3,-1,5,14,-12,-88
10,13,4,-12,4,9,2,-1,5,14,-11,-86
11,13,3,-12,5,9,1,-2,5,15,-11,-84
12,13,2,-13,6,8,0,-2,5,15,-11,-83
13,14,1,-13,7,8,-1,-2,4,15,-11,-81
13,14,1,-14,7,7,-3,-3,2,15,-10,-80
14,14,1,-14,7,7,-4,-4,1,14,-10,-79
14,14,1,-14,7,8,-5,-5,0,14,-10,-78
15,15,1,-15,7,8,-6,-6,0,14,-10,-76
15,16,1,-15,7,9,-6,-6,0,13,-10,-74
14,15,2,-14,7,9,-5,-5,-1,13,-11,-72
12,14,2,-13,6,8,-5,-5,-1,12,-12,-70
11,13,2,-12,5,8,-5,-4,-2,11,-12,-68
11,12,1,-11,6,7,-4,-4,-3,10,-13,-66
12,11,0,-11,7,6,-4,-4,-4,10,-13,-64
12,11,0,-11,7,5,-3,-4,-4,10,-13,-62
12,10,-1,-11,7,4,-3,-4,-4,10,-13,-59
11,9,-1,-10,8,4,-2,-4,-4,10,-13,-57
11,9,-2,-10,8,3,-2,-4,-4,9,-13,-55
12,9,-3,-10,9,3,-3,-5,-5,9,-13,-53
13,9,-4,-11,9,3,-3,-6,-4,9,-13,-51
13,10,-3,-11,9,3,-2,-6,-3,10,-12,-50
12,9,-2,-11,8,4,-1,-5,-3,10,-12,-48
12,9,-2,-10,7,4,0,-5,-3,10,-12,-47
11,9,-1,-10,6,4,0,-4,-3,9,-12,-46
11,9,-1,-10,6,4,0,-4,-3,9,-12,-45
10,9,-1,-9,6,4,1,-4,-3,8,-12,-44
9,9,0,-9,5,4,1,-4,-3,8,-13,-43
8,8,0,-8,5,4,2,-4,-3,8,-13,-42
7,8,0,-7,4,4,2,-4,-2,8,-14,-41
6,7,1,-7,3,4,2,-4,-2,7,-14,-40
6,7,1,-6,3,4,2,-4,-2,7,-14,-39
6,6,1,-6,3,4,2,-3,-2,7,-14,-38
6,6,0,-6,3,3,3,-3,-2,6,-14,-38
6,6,0,-6,3,3,3,-3,-2,6,-15,-37
5,5,0,-5,3,2,3,-3,-3,5,-15,-37
5,5,0,-5,3,2,4,-3,-3,4,-16,-36
5,5,0,-4,3,2,4,-3,-3,4,-16,-35
4,5,0,-4,2,2,5,-3,-3,4,-16,-35
4,4,0,-3,2,2,5,-3,-4,4,-16,-34
4,4,0,-3,2,2,5,-3,-4,4,-16,-34
5,4,0,-4,3,2,5,-3,-4,4,-16,-33
5,3,-1,-4,3,1,4,-3,-4,4,-16,-32
4,3,-1,-3,3,1,4,-3,-4,4,-16,-31
4,3,-1,-3,3,1,4,-3,-4,4,-16,-30
4,3,-1,-3,3,2,4,-2,-4,4,-16,-29
3,3,-1,-3,3,2,4,-2,-4,4,-17,-28
3,3,-1,-3,3,2,4,-1,-3,4,-17,-27
3,2,-1,-2,3,1,5,0,-2,5,-18,-27
3,2,-1,-2,3,0,6,1,1,5,-19,-28
2,2,0,-2,2,1,7,3,5,6,-20,-28
1,4,2,-2,0,3,9,5,11,8,-20,-28
1,7,6,-3,-1,6,10,8,19,11,-20,-27
1,10,9,-5,-3,9,11,12,29,17,-17,-25
2,15,12,-8,-4,13,11,17,41,26,-10,-20
5,19,14,-12,-3,17,11,21,55,38,-1,-12
9,24,14,-17,-2,19,11,26,71,52,10,-3
15,29,14,-22,0,22,9,30,87,69,23,7
21,35,14,-28,4,25,6,33,101,88,39,20
28,42,14,-35,7,28,1,33,107,109,58,35
35,50,15,-42,10,32,-5,28,104,131,79,53
41,59,17,-50,12,38,-14,19,92,154,101,71
48,69,20,-58,14,45,-25,7,73,178,123,88
54,78,23,-66,16,51,-35,-5,51,200,142,104
57,83,25,-70,16,55,-41,-17,28,211,154,114
57,81,24,-69,16,53,-44,-25,7,202,151,114
54,71,17,-62,18,44,-41,-29,-13,175,129,100
48,56,8,-52,20,32,-36,-31,-31,137,96,78
41,41,0,-41,21,21,-29,-31,-49,95,62,54
33,27,-4,-30,19,12,-22,-32,-69,51,29,33
25,17,-7,-20,17,5,-17,-34,-90,8,1,14
17,8,-9,-12,14,0,-14,-37,-109,-29,-22,-1
11,1,-11,-5,12,-4,-11,-41,-124,-56,-40,-13
6,-6,-13,0,11,-8,-8,-43,-133,-72,-52,-22
2,-12,-14,5,9,-13,-5,-43,-135,-80,-60,-28
-1,-18,-15,9,8,-16,-2,-43,-134,-86,-66,-34
-4,-21,-15,13,7,-18,0,-42,-131,-90,-71,-38
-7,-23,-14,15,4,-18,1,-40,-124,-89,-73,-41
-10,-22,-12,16,2,-17,2,-37,-115,-84,-72,-42
-10,-20,-10,15,1,-14,1,-33,-103,-77,-69,-42
-10,-16,-7,13,0,-11,0,-30,-90,-69,-64,-40
-9,-12,-4,11,-1,-8,0,-27,-78,-60,-59,-38
-9,-8,0,9,-3,-4,0,-25,-67,-53,-54,-35
-8,-5,3,6,-4,-1,-1,-24,-57,-46,-49,-31
-6,-1,5,4,-4,1,-1,-22,-47,-39,-44,-28
-5,0,6,2,-4,2,-1,-19,-37,-33,-40,-24
-4,1,5,1,-3,3,0,-15,-28,-27,-37,-21
-3,1,4,0,-2,3,1,-11,-20,-21,-34,-19
-1,1,2,0,-1,2,2,-7,-13,-17,-32,-18
0,1,0,0,0,1,4,-5,-8,-13,-31,-17
0,1,0,-1,1,1,5,-3,-4,-11,-29,-16
0,1,1,-1,1,1,6,-2,-2,-9,-28,-14
0,2,2,-1,1,2,7,-2,0,-8,-27,-13
1,2,2,-2,1,2,7,-2,2,-7,-26,-11
1,2,1,-2,1,2,7,-1,4,-5,-25,-8
1,2,1,-2,1,2,7,0,7,-4,-24,-7
1,2,0,-2,1,2,7,1,9,-3,-24,-5
1,2,0,-2,2,2,7,2,10,-2,-23,-4
1,3,0,-2,2,2,7,2,10,-1,-23,-3
2,3,0,-3,2,2,7,2,10,-1,-22,-2
2,3,0,-3,2,2,7,2,10,-1,-22,-1
2,3,0,-3,2,1,7,2,10,-1,-21,0
2,2,0,-2,2,1,8,2,10,0,-21,0
2,2,0,-2,2,1,8,2,10,0,-21,0
2,2,0,-2,2,1,8,2,11,0,-21,0
2,3,0,-3,2,2,8,2,11,0,-21,-1
3,3,0,-3,3,2,8,2,11,0,-21,-3
4,3,-1,-4,3,2,8,2,11,0,-21,-4
4,4,0,-4,3,2,8,2,11,0,-21,-4
4,4,0,-4,2,2,8,2,11,0,-21,-5
4,4,0,-4,2,2,8,1,11,0,-21,-6
4,4,0,-4,3,2,8,1,11,0,-20,-7
4,4,0,-4,3,2,8,1,11,0,-20,-8
4,4,0,-4,3,2,8,1,11,0,-20,-9
3,4,0,-3,3,2,8,2,11,0,-20,-9
3,4,0,-3,2,3,9,2,11,0,-20,-10
3,5,1,-4,2,3,9,2,11,0,-20,-11
3,5,1,-4,2,2,9,2,11,0,-20,-12
3,4,1,-4,2,2,9,2,11,0,-20,-13
3,4,1,-4,2,2,9,2,11,0,-20,-14
3,4,1,-4,2,2,9,2,11,0,-20,-14
3,4,1,-4,2,2,8,2,11,0,-20,-15
2,4,1,-4,2,3,8,2,11,1,-19,-15
2,4,1,-4,2,3,8,2,12,1,-19,-15
2,4,1,-3,1,3,8,2,12,2,-19,-15
2,4,1,-3,1,3,8,2,12,2,-19,-15
2,4,1,-3,1,3,8,2,13,3,-18,-14
2,4,1,-3,1,3,8,2,13,3,-18,-13
3,4,1,-4,1,2,8,2,13,3,-18,-12
4,4,0,-4,2,2,8,2,13,3,-18,-11
4,4,0,-4,3,1,8,2,14,4,-18,-10
4,4,0,-3,3,1,9,3,15,4,-18,-9
3,3,0,-3,3,1,9,3,15,4,-18,-8
4,3,0,-3,3,1,9,3,16,4,-18,-8
4,4,-1,-4,4,1,9,3,16,4,-19,-7
5,4,-1,-4,4,1,8,3,16,4,-19,-7
4,4,0,-4,4,1,8,4,16,4,-19,-7
3,3,0,-3,3,1,8,4,17,4,-20,-7
3,3,0,-3,3,1,8,4,17,4,-20,-7
3,3,0,-3,4,1,8,4,17,4,-20,-7
4,4,-1,-3,4,1,8,4,17,4,-20,-7
4,4,-1,-4,4,1,7,4,18,4,-19,-6
5,5,-1,-4,4,2,7,4,18,5,-19,-6
5,5,0,-5,4,2,7,4,19,5,-18,-5
5,5,0,-5,4,2,7,4,19,6,-18,-5
5,5,0,-6,4,2,7,4,20,6,-17,-5
5,5,-1,-6,4,2,6,4,20,6,-16,-5
6,6,-1,-6,5,2,6,4,21,6,-16,-5
6,6,0,-6,4,2,6,4,22,6,-15,-6
6,6,0,-6,4,2,5,4,23,6,-15,-6
6,6,-1,-6,5,2,5,4,24,6,-15,-6
7,7,-1,-7,5,2,4,4,25,6,-14,-6
6,7,0,-7,4,3,4,5,26,7,-13,-6
6,7,0,-7,4,3,4,5,26,7,-12,-5
6,8,1,-7,3,4,4,5,27,7,-11,-5
6,8,1,-7,4,4,3,5,27,7,-9,-5
7,9,0,-8,4,4,3,5,28,8,-8,-4
8,9,0,-8,5,3,3,5,28,9,-7,-4
9,9,0,-8,5,3,2,5,29,9,-6,-4
9,9,0,-8,5,3,2,5,29,9,-5,-4
9,9,0,-9,6,3,1,5,29,9,-4,-4
10,10,0,-10,7,3,0,5,29,9,-4,-3
11,10,-1,-10,8,3,0,5,29,9,-3,-3
11,9,-2,-10,8,3,0,4,29,9,-2,-3
11,10,-1,-10,7,4,0,4,29,10,-1,-2
11,11,0,-11,7,5,0,4,29,10,0,-2
11,12,0,-11,7,5,-1,4,29,10,1,-2
12,12,0,-11,7,5,-1,4,28,10,1,-1
12,12,0,-11,7,5,-1,4,27,10,2,-1
11,12,0,-11,7,5,-2,3,26,10,2,0
12,12,0,-12,7,6,-2,3,25,10,3,0
12,13,0,-12,7,6,-3,2,24,10,3,0
12,14,0,-13,7,7,-3,1,23,9,3,1
13,14,0,-14,7,7,-4,0,22,9,3,1
13,14,0,-14,8,7,-4,0,21,8,3,2
14,14,0,-14,8,7,-4,0,19,8,3,3
14,15,0,-14,7,8,-4,0,18,8,3,4
14,16,1,-15,7,8,-5,-1,16,7,3,5
14,16,1,-15,8,8,-5,-2,15,7,3,5
14,16,1,-15,8,8,-5,-2,13,6,3,6
14,16,1,-15,8,8,-5,-3,12,6,3,6
14,16,1,-15,8,8,-5,-3,10,5,3,7
14,15,0,-15,8,8,-5,-3,9,4,3,8
14,15,0,-15,8,7,-5,-3,8,4,3,9
14,15,1,-15,8,7,-5,-4,7,4,2,10
14,15,1,-14,7,7,-5,-4,6,4,2,11
13,15,1,-14,7,7,-5,-4,5,3,2,11
13,16,1,-14,7,8,-5,-4,4,3,1,11
14,16,1,-15,7,8,-6,-4,3,2,1,12
14,16,1,-15,8,8,-6,-5,2,2,0,12
15,16,1,-16,8,8,-6,-5,2,1,0,13
15,16,1,-16,8,9,-6,-5,2,1,0,14
15,16,1,-16,8,9,-6,-5,2,2,-1,15
15,16,1,-16,8,8,-6,-5,2,2,-1,17
15,16,1,-15,8,8,-6,-5,2,3,-1,18
15,16,1,-15,8,8,-5,-5,2,4,-1,19
14,16,1,-15,8,8,-5,-4,2,5,-1,20
14,16,1,-15,7,8,-4,-3,2,6,-1,21
13,16,2,-15,6,9,-4,-3,2,7,-1,22
13,16,3,-15,6,9,-4,-3,3,8,-1,22
13,16,3,-15,6,9,-4,-3,3,8,-2,23
13,16,2,-15,6,8,-4,-3,3,9,-2,23
14,16,2,-15,7,8,-3,-3,3,9,-3,24
14,16,2,-15,7,8,-3,-2,3,9,-3,24
13,16,2,-14,7,8,-2,-1,3,10,-3,25
13,16,2,-14,7,8,-2,-1,3,11,-3,25
13,16,2,-14,6,9,-2,0,3,11,-3,25
12,15,3,-14,6,9,-2,0,3,10,-4,26
11,15,3,-14,6,9,-2,0,3,10,-5,27
11,15,3,-14,6,8,-1,0,2,10,-5,28
11,15,3,-13,6,8,-1,0,2,10,-6,29
11,14,3,-13,6,8,0,0,1,10,-6,30
11,14,3,-12,6,8,0,0,0,10,-7,31
10,13,2,-12,6,7,0,0,0,9,-7,31
10,13,2,-12,5,7,0,0,-1,9,-8,31
9,13,2,-11,5,7,0,0,-2,8,-8,32
9,13,2,-11,4,7,0,0,-2,8,-8,33
9,13,3,-11,4,7,0,0,-3,8,-8,34
8,12,3,-10,4,6,1,0,-3,8,-8,35
8,12,3,-10,4,6,1,0,-4,7,-8,36
7,12,4,-9,4,7,2,1,-4,7,-8,37
7,12,4,-9,3,7,2,1,-5,7,-8,37
6,11,4,-9,3,7,2,2,-5,7,-9,38
6,11,4,-9,3,6,2,2,-6,6,-9,38
6,10,3,-9,3,6,2,2,-6,5,-9,39
5,10,4,-8,2,6,2,2,-6,5,-9,40
5,10,4,-8,2,6,2,2,-6,4,-10,40
6,10,3,-8,3,6,2,2,-6,4,-10,40
6,10,3,-8,3,6,2,2,-6,4,-11,39
5,9,3,-7,3,6,2,2,-6,4,-11,39
5,9,3,-7,3,6,2,2,-6,4,-11,39
5,9,3,-7,3,6,2,2,-6,3,-11,39
5,9,2,-7,3,5,2,2,-6,3,-11,39
6,9,2,-7,3,5,3,2,-6,3,-11,39
6,9,3,-7,3,5,3,2,-6,4,-11,40
6,9,3,-7,3,6,3,3,-5,4,-11,40
5,9,4,-7,2,6,3,3,-5,4,-11,41
5,9,5,-7,2,7,3,3,-4,5,-11,42
5,9,5,-7,2,7,4,3,-4,5,-11,42
5,9,4,-7,2,7,4,3,-4,5,-11,42
5,9,4,-7,2,6,4,3,-4,5,-11,43
5,9,3,-8,2,6,4,3,-3,5,-10,43
5,9,3,-8,2,6,4,3,-3,5,-10,44
5,9,4,-7,1,6,4,4,-2,6,-10,45
5,9,4,-7,1,6,4,4,-2,6,-10,47
6,9,3,-8,2,6,4,4,-2,6,-10,47
7,9,3,-8,3,6,3,4,-2,6,-10,48
6,10,3,-8,3,6,3,4,-2,6,-10,49
6,10,3,-8,3,7,4,5,-2,7,-9,49
6,11,4,-8,2,7,4,5,-2,7,-9,50
6,11,4,-8,2,7,4,5,-2,7,-9,51
6,10,3,-8,3,6,4,5,-2,7,-9,52
7,10,3,-8,3,6,4,5,-2,8,-9,53
7,10,3,-8,3,6,4,5,-2,8,-9,54
7,10,3,-9,3,7,4,5,-2,8,-9,54
7,11,4,-9,3,7,4,5,-2,8,-9,54
7,11,4,-9,3,7,4,5,-2,8,-8,54
6,11,4,-9,3,7,4,5,-2,8,-8,54
6,11,4,-9,3,7,4,5,-2,8,-8,55
7,11,4,-9,3,7,4,5,-2,9,-8,55
6,11,4,-9,2,7,4,5,-3,9,-8,56
6,11,5,-9,2,7,4,5,-3,9,-8,56
6,11,5,-9,1,8,4,5,-4,9,-8,57
6,11,5,-9,1,8,4,5,-4,9,-8,57
6,11,5,-9,1,8,4,5,-4,9,-8,56
6,12,4,-9,2,8,4,5,-4,9,-8,56
7,12,4,-10,2,8,4,5,-5,10,-8,56
8,12,3,-10,3,8,4,5,-5,10,-8,56
8,12,3,-10,3,8,4,5,-6,10,-8,57
8,12,3,-10,3,8,4,5,-6,10,-8,57
8,12,3,-10,3,8,4,5,-6,10,-8,58
7,11,3,-9,3,8,4,5,-6,10,-8,58
7,11,4,-9,2,8,4,5,-6,10,-8,58
7,10,3,-9,2,7,4,5,-7,10,-8,58
7,10,3,-9,3,7,4,5,-7,9,-8,58
6,10,3,-9,3,7,4,4,-7,9,-9,58
6,10,3,-8,2,7,4,4,-8,8,-9,59
6,10,3,-8,2,6,4,5,-8,8,-9,59
6,10,3,-8,3,6,4,5,-8,8,-9,59
6,10,3,-9,3,6,3,4,-9,7,-10,59
7,10,3,-9,3,6,3,4,-10,6,-11,59
7,10,2,-9,3,6,3,4,-10,5,-11,58
7,10,2,-9,3,6,3,4,-10,5,-11,58
7,9,2,-8,3,6,3,4,-11,5,-11,58
7,9,2,-8,3,6,3,4,-11,5,-11,58
7,9,2,-8,4,6,2,4,-12,4,-12,58
7,9,2,-8,4,6,2,4,-12,4,-12,58
7,9,2,-8,3,6,2,4,-12,5,-12,58
6,9,2,-8,3,6,2,4,-12,5,-12,59
6,9,2,-8,3,6,2,4,-13,5,-12,59
6,9,3,-8,2,6,2,4,-13,5,-12,59
5,9,4,-7,2,6,2,4,-13,5,-12,60
5,9,4,-7,2,6,2,4,-14,5,-12,61
5,9,3,-7,2,6,2,3,-14,4,-12,61
6,9,3,-7,3,6,2,3,-15,4,-12,61
6,9,3,-7,3,6,2,3,-15,4,-12,62
5,9,3,-7,2,6,2,3,-15,4,-12,63
5,8,3,-7,2,6,2,3,-15,4,-12,64
6,8,2,-7,3,5,2,3,-15,4,-12,64
7,8,1,-7,3,5,1,3,-15,4,-12,65
6,8,1,-7,3,5,1,4,-15,4,-11,65
6,8,1,-7,3,5,1,4,-15,4,-11,65
6,7,1,-6,3,5,1,4,-15,4,-11,66
6,7,1,-6,3,5,1,4,-15,4,-11,66
6,7,1,-7,3,5,1,4,-15,4,-11,67
6,7,2,-7,3,5,1,4,-15,4,-11,67
5,7,2,-7,2,5,1,4,-16,3,-11,67
5,7,2,-7,2,5,1,3,-16,3,-11,68
6,8,2,-7,2,5,1,3,-16,2,-11,68
6,8,2,-7,3,5,1,3,-16,2,-11,68
6,8,2,-8,3,5,1,3,-16,1,-11,68
7,8,2,-8,4,5,1,3,-17,1,-12,69
7,8,1,-8,4,4,1,3,-17,0,-12,69
7,8,0,-8,4,4,1,3,-17,0,-12,69
7,8,0,-8,4,4,1,3,-17,0,-12,70
6,8,1,-7,4,4,0,3,-17,0,-12,70
6,8,1,-7,4,4,0,3,-17,0,-12,71
6,8,1,-7,4,4,0,3,-17,0,-12,71
6,7,0,-7,4,4,0,3,-17,0,-12,72
6,7,0,-6,3,4,0,4,-17,0,-12,72
6,7,1,-6,3,5,0,4,-17,0,-12,73
6,7,2,-7,3,5,0,4,-17,0,-12,74
6,8,2,-7,3,5,0,4,-17,0,-12,75
6,8,2,-7,3,5,0,4,-17,0,-12,75
6,8,2,-7,3,5,0,4,-17,0,-12,76
6,8,2,-7,3,5,0,4,-17,0,-12,77
5,7,2,-7,3,5,0,4,-17,0,-12,78
5,7,2,-6,3,5,0,4,-17,0,-12,78
5,7,2,-6,2,5,1,4,-17,0,-12,79
5,7,2,-6,2,5,1,4,-17,0,-12,80
5,6,2,-5,2,4,1,4,-17,0,-12,81
5,6,1,-5,3,4,1,4,-18,0,-12,81
6,6,0,-5,3,3,1,3,-18,0,-12,82
6,6,0,-5,4,3,1,3,-18,-1,-12,82
6,6,0,-6,4,3,1,3,-18,-1,-12,83
6,7,0,-6,3,4,1,3,-18,-1,-12,85
6,6,0,-6,3,4,1,3,-18,-1,-13,86
6,6,0,-6,3,3,1,3,-18,-1,-13,88
5,6,1,-6,3,3,1,3,-18,-1,-13,89
5,6,1,-6,2,3,1,3,-18,-1,-13,89
5,7,1,-6,2,4,1,3,-18,-1,-13,90
5,7,1,-5,2,4,1,3,-18,-1,-13,90
4,6,1,-5,2,3,1,3,-18,-1,-14,90
4,5,0,-5,3,3,1,3,-18,-1,-14,91
5,5,0,-5,3,3,1,3,-18,-1,-14,91
6,6,0,-6,3,3,1,3,-18,-1,-14,92
5,5,0,-5,3,3,1,3,-18,-2,-14,93
5,5,0,-5,2,3,1,3,-18,-2,-14,94
5,5,0,-5,2,3,1,3,-18,-2,-15,95
5,5,0,-5,3,3,1,3,-18,-3,-15,96
5,6,0,-5,3,3,1,3,-18,-3,-15,97
4,6,1,-5,2,4,1,3,-18,-2,-15,98
4,5,1,-5,2,4,1,2,-18,-2,-15,99
4,5,1,-5,2,3,1,2,-18,-2,-15,100
5,5,0,-5,3,3,1,2,-18,-2,-15,101
5,5,0,-5,3,3,1,2,-18,-2,-15,103
5,6,0,-5,2,3,1,2,-18,-2,-15,104
4,6,0,-5,2,3,1,2,-18,-2,-15,104
4,6,0,-5,2,3,1,2,-18,-2,-15,105
4,6,0,-6,2,3,1,2,-18,-1,-15,106
4,6,0,-6,2,3,1,2,-17,-1,-15,107
4,6,0,-6,2,3,1,2,-17,-1,-15,108
4,5,0,-5,2,3,1,2,-17,-1,-15,109
4,5,0,-5,2,3,1,2,-17,-1,-15,110
4,5,0,-5,2,2,1,2,-17,-2,-15,110
4,5,-1,-5,3,2,1,2,-17,-3,-15,110
4,5,-1,-5,3,2,2,2,-17,-3,-15,110
5,5,-1,-5,3,2,2,2,-17,-3,-15,110
5,5,-2,-5,3,2,2,2,-17,-3,-15,111
6,5,-2,-6,3,2,2,1,-17,-4,-15,111
6,5,-2,-6,3,2,1,1,-17,-4,-15,111
6,6,-2,-6,3,2,1,1,-17,-4,-15,112
6,6,-2,-7,4,2,1,1,-16,-4,-15,112
6,6,-2,-7,4,3,1,1,-16,-4,-15,112
5,7,-1,-6,3,3,1,1,-16,-3,-15,112
4,7,1,-6,2,4,1,1,-15,-3,-14,113
4,8,2,-7,1,5,1,1,-14,-2,-14,114
5,8,2,-7,1,5,1,0,-14,-2,-14,114
5,9,2,-8,1,6,0,0,-14,-1,-13,115
6,10,3,-8,1,6,0,0,-14,-1,-13,115
6,10,3,-8,1,6,0,0,-14,-1,-13,116
5,10,4,-8,0,7,0,1,-13,-1,-13,116
5,10,4,-8,0,7,0,1,-13,0,-12,117
6,10,4,-8,0,7,0,1,-12,0,-12,117
6,11,4,-9,1,7,1,1,-12,0,-11,117
6,11,4,-9,0,7,1,2,-11,0,-11,117
6,11,4,-9,0,7,2,2,-10,0,-11,118
7,11,3,-9,1,7,2,3,-9,1,-10,119
7,11,3,-9,1,7,3,3,-8,1,-10,120
7,11,2,-9,2,6,3,4,-7,1,-9,121
8,11,2,-10,3,6,3,4,-6,1,-9,122
9,12,2,-10,3,6,3,4,-5,2,-8,122
10,12,2,-11,4,7,2,4,-4,3,-6,123
11,13,1,-11,4,7,1,4,-4,4,-5,124
12,12,0,-12,5,6,0,4,-4,4,-3,125
12,12,-1,-12,6,5,0,4,-4,4,-2,125
13,12,-1,-13,7,5,-2,3,-5,4,-2,125
12,13,0,-13,6,6,-3,2,-6,4,-2,126
12,13,0,-13,6,6,-4,1,-7,4,-2,127
12,14,1,-13,6,7,-5,0,-8,3,-2,128
12,13,0,-13,6,6,-5,0,-10,2,-3,128
13,12,-1,-13,7,5,-6,0,-11,1,-4,127
13,10,-3,-12,8,3,-5,0,-12,0,-5,127
12,9,-4,-11,8,2,-5,0,-13,-1,-6,126
12,8,-5,-11,8,1,-4,0,-13,-1,-7,126
12,8,-5,-10,9,1,-4,0,-14,-2,-7,127
12,7,-6,-10,9,0,-3,0,-14,-2,-7,128
12,7,-6,-10,9,0,-3,0,-14,-2,-7,129
12,6,-7,-9,9,-1,-2,0,-14,-2,-7,130
12,5,-7,-9,9,-1,-2,0,-14,-2,-7,131
12,6,-7,-9,8,-1,-1,0,-14,-1,-7,132
11,6,-6,-9,7,0,-1,0,-14,-1,-7,133
10,6,-5,-9,7,0,0,0,-13,0,-7,134
9,6,-4,-8,6,1,0,0,-13,0,-7,135
9,6,-4,-8,6,1,0,0,-12,0,-7,135
8,6,-4,-7,5,1,1,0,-12,0,-7,135
8,6,-3,-7,5,1,1,0,-12,0,-7,135
7,5,-3,-6,4,1,2,0,-12,0,-7,135
6,5,-2,-6,4,1,2,0,-12,0,-8,136
6,4,-2,-5,3,1,3,1,-12,-1,-8,136
5,4,-2,-5,3,1,3,1,-12,-1,-8,136
5,3,-2,-4,3,0,3,1,-12,-2,-8,136
5,3,-2,-4,3,0,4,1,-12,-2,-9,136
5,3,-2,-4,3,0,4,1,-12,-3,-9,136
4,3,-2,-3,3,0,5,1,-12,-3,-10,135
3,2,-2,-3,3,0,5,1,-12,-4,-10,135
2,2,-1,-2,2,0,5,1,-12,-4,-10,134
2,1,-2,-2,2,0,5,1,-12,-5,-10,133
3,1,-2,-2,3,-1,5,1,-12,-5,-10,132
3,2,-3,-2,3,-1,5,1,-12,-6,-10,131
3,2,-3,-2,3,0,6,1,-13,-6,-10,130
3,2,-2,-2,2,0,6,1,-13,-5,-10,129
3,1,-2,-2,2,0,6,1,-12,-5,-10,128
3,1,-2,-2,2,0,6,1,-12,-5,-9,128
2,1,-2,-2,2,0,6,1,-12,-4,-9,127
2,0,-2,-1,1,0,6,1,-11,-4,-9,127
2,0,-2,-1,1,0,7,1,-11,-3,-8,126
2,0,-2,-1,1,0,7,1,-10,-3,-8,126
2,0,-2,-1,1,-1,7,2,-10,-3,-8,125
2,0,-2,-1,1,-1,7,2,-9,-3,-8,124
2,0,-2,0,2,-2,7,3,-7,-3,-9,123
2,0,-2,0,2,-2,9,5,-3,-2,-10,121
1,1,-1,0,1,0,10,7,2,-1,-10,120
0,3,2,-1,-1,2,12,10,10,2,-10,120
0,6,5,-3,-3,6,13,14,19,7,-7,122
1,10,8,-5,-4,9,14,19,29,14,-2,126
3,14,9,-9,-4,12,14,24,42,23,5,132
6,18,10,-12,-3,14,14,30,57,34,14,139
10,22,11,-16,-1,16,14,36,75,48,25,147
16,27,10,-22,3,18,12,42,92,64,38,158
25,33,8,-29,8,20,8,46,104,82,53,170
33,40,6,-37,13,23,3,45,107,101,70,184
42,48,6,-45,17,27,-5,39,101,121,89,199
50,57,7,-53,20,32,-15,27,86,143,108,215
57,66,9,-61,23,37,-27,12,66,166,127,231
62,73,10,-68,25,42,-36,-1,44,183,142,244
65,75,9,-70,27,42,-42,-13,21,185,146,248
63,69,5,-66,28,37,-42,-20,-1,166,132,240
59,57,-2,-58,30,27,-38,-24,-23,131,104,221
52,43,-8,-48,30,17,-32,-27,-46,90,71,199
44,30,-13,-37,29,8,-26,-29,-69,49,40,177
35,18,-16,-27,26,1,-20,-33,-93,9,13,158
25,8,-17,-17,21,-4,-15,-38,-116,-25,-8,143
16,0,-17,-8,16,-8,-12,-44,-135,-52,-26,131
9,-7,-18,-1,13,-12,-10,-48,-148,-70,-38,122
4,-14,-20,4,11,-17,-8,-50,-153,-80,-46,115
0,-19,-21,9,10,-20,-5,-50,-154,-86,-52,110
-3,-23,-20,13,8,-22,-3,-48,-151,-91,-57,105
-7,-25,-18,16,5,-22,0,-46,-145,-92,-60,102
-10,-25,-15,17,2,-20,1,-44,-136,-89,-60,100
-11,-23,-12,17,0,-18,0,-40,-124,-83,-57,100
-12,-20,-9,16,-1,-15,0,-36,-110,-76,-53,102
-12,-17,-7,14,-2,-12,-1,-33,-96,-68,-48,104
-11,-13,-4,12,-4,-8,-2,-30,-83,-60,-42,107
-11,-10,-1,10,-5,-5,-2,-27,-72,-52,-37,110
-9,-7,1,8,-5,-3,-3,-24,-62,-45,-33,112
-7,-5,3,5,-4,-1,-3,-21,-51,-38,-29,115
-6,-3,3,4,-4,0,-2,-17,-41,-32,-25,116
-5,-2,3,4,-4,0,0,-12,-32,-27,-22,117
-5,-3,2,4,-4,-1,1,-8,-24,-22,-20,117
-5,-3,0,4,-3,-2,3,-5,-17,-19,-19,117
-4,-3,-1,3,-2,-2,5,-2,-12,-16,-17,116
-4,-3,-1,3,-1,-2,6,-1,-8,-14,-16,116
-3,-3,-1,2,-1,-2,6,0,-6,-12,-15,115
-2,-2,0,2,-1,-2,6,0,-3,-11,-14,115
-2,-2,0,1,-1,-2,6,1,0,-10,-13,115
-2,-2,0,2,-1,-2,7,2,2,-9,-13,115
-2,-2,-1,2,0,-2,7,3,4,-8,-13,115
-2,-2,-1,2,0,-2,7,4,6,-8,-13,115
-3,-2,-1,2,-1,-1,8,4,7,-7,-13,115
-4,-3,-1,3,-1,-1,8,5,8,-7,-13,115
-4,-3,-1,3,-1,-2,9,5,8,-6,-12,115
-3,-3,-1,2,0,-2,9,5,7,-6,-12,115
-2,-3,-1,2,0,-2,8,5,7,-6,-12,114
-1,-3,-1,2,0,-2,8,5,8,-6,-12,114
-1,-3,-1,2,0,-2,8,5,9,-6,-12,113
-1,-3,-1,2,0,-2,8,5,9,-6,-12,113
-2,-3,-1,2,0,-2,9,4,10,-6,-12,112
-2,-3,-1,2,0,-2,9,4,10,-6,-12,111
-2,-3,-1,2,-1,-2,9,4,10,-6,-12,110
-2,-3,-1,2,-1,-2,9,4,10,-6,-12,110
-2,-3,-1,2,-1,-2,9,4,10,-6,-12,109
-2,-3,-1,2,-1,-2,10,4,10,-6,-12,108
-2,-4,-2,2,0,-3,10,5,11,-5,-12,106
-2,-4,-2,2,0,-3,11,5,11,-5,-12,105
-3,-4,-1,3,0,-3,11,6,11,-4,-12,104
-3,-4,-1,3,-1,-2,11,6,11,-4,-12,103
-3,-3,-1,3,-1,-2,11,6,11,-4,-12,103
-3,-3,-1,3,-1,-2,11,6,11,-3,-12,103
-3,-3,-1,3,-1,-2,11,6,11,-3,-11,103
-3,-3,-1,3,-1,-2,11,6,11,-3,-11,103
-3,-3,-1,3,-1,-2,11,6,11,-3,-11,103
-2,-3,-1,2,0,-2,11,6,11,-3,-11,103
-2,-3,-1,2,0,-2,11,6,11,-2,-11,104
-2,-3,-1,2,0,-2,11,6,11,-2,-10,105
-3,-3,-1,2,-1,-2,11,6,11,-2,-10,107
-3,-3,-1,2,-1,-2,11,6,11,-2,-10,109
-3,-3,-1,2,-1,-2,11,5,10,-2,-10,111
-3,-3,-1,2,0,-2,11,5,10,-2,-10,113
-3,-4,-2,3,0,-3,11,5,10,-2,-10,116
-3,-4,-2,3,-1,-3,11,6,10,-1,-10,118
-3,-4,-2,4,-1,-3,11,7,10,-1,-10,121
-2,-4,-2,3,0,-3,11,7,10,-1,-10,123
-1,-3,-2,2,0,-3,11,7,10,-1,-10,126
-1,-4,-3,2,1,-3,11,7,10,-1,-10,128
-2,-4,-3,3,1,-4,11,8,10,-1,-10,130
-2,-4,-2,3,0,-3,11,8,10,-1,-10,132
-2,-4,-2,3,0,-3,11,8,10,-1,-10,134
-3,-4,-1,3,0,-2,11,9,10,-1,-11,135
-3,-4,-1,3,-1,-2,11,9,10,-1,-11,136
-4,-4,-1,4,-1,-2,11,9,10,-1,-11,137
-4,-5,-1,4,-1,-2,11,9,10,-1,-11,138
-5,-5,-1,5,-1,-3,11,9,10,-1,-10,138
-5,-5,-1,5,-1,-3,11,9,10,-1,-10,139
-5,-5,-2,5,-1,-3,10,9,10,-1,-10,139
-5,-5,-2,5,-1,-3,10,9,10,-1,-10,139
-5,-5,-2,5,-1,-3,9,9,10,-1,-9,139
-5,-6,-2,5,-1,-4,9,9,10,-1,-9,138
-5,-5,-2,5,-1,-4,8,9,10,-1,-9,138
-4,-5,-3,4,0,-4,7,8,11,-1,-9,137
-3,-6,-4,4,0,-4,7,8,11,-1,-9,137
-3,-6,-4,4,0,-4,7,8,12,-1,-9,136
-3,-6,-4,4,0,-4,7,8,12,-1,-9,136
-3,-6,-4,4,0,-4,6,8,13,-1,-8,135
-3,-6,-4,4,0,-5,6,8,13,-1,-8,135
-3,-6,-4,4,0,-5,5,8,13,-1,-7,135
-3,-6,-3,4,0,-4,5,8,14,0,-6,135
-3,-5,-3,4,0,-4,5,8,14,0,-5,135
-3,-5,-2,4,0,-3,4,8,15,0,-4,135
-4,-5,-2,4,0,-3,4,8,15,0,-3,135
-3,-5,-2,4,0,-3,3,8,16,0,-3,135
-3,-4,-2,3,0,-3,3,7,16,0,-2,135
-2,-4,-2,3,0,-3,2,7,16,0,-1,135
-3,-4,-2,3,0,-3,2,7,16,0,-1,134
-2,-4,-2,3,0,-3,1,7,16,0,0,134
-1,-3,-2,2,0,-3,1,7,16,0,1,133
-1,-3,-3,2,1,-3,0,7,16,0,1,133
0,-3,-3,2,1,-3,0,6,16,0,2,132
0,-3,-4,1,2,-3,0,6,16,0,2,131
0,-2,-4,1,2,-3,0,6,16,0,3,130
0,-2,-4,0,2,-2,-1,5,15,0,3,129
1,-1,-4,0,2,-2,-2,5,14,0,4,128
1,-1,-4,0,2,-2,-3,4,13,0,4,126
1,0,-3,0,2,-2,-3,3,12,-1,5,125
1,0,-3,0,2,-1,-3,2,11,-2,5,124
1,0,-2,0,1,-1,-3,2,11,-2,6,124
1,0,-1,0,1,-1,-3,1,10,-3,6,123
1,0,-2,-1,1,0,-4,1,9,-4,6,122
2,1,-2,-2,2,0,-5,0,7,-5,6,121
3,1,-3,-2,3,0,-6,-1,6,-6,6,120
3,1,-4,-2,3,-1,-6,-1,4,-7,7,120
4,1,-4,-2,4,-1,-7,-2,3,-7,7,119
4,1,-4,-2,4,-1,-7,-2,2,-8,7,119
4,1,-3,-2,4,0,-7,-3,1,-8,7,119
4,2,-3,-3,4,0,-7,-3,0,-8,7,118
4,2,-4,-3,4,-1,-7,-4,0,-8,7,118
4,1,-4,-3,4,-1,-7,-4,-1,-8,7,119
4,1,-4,-3,4,-1,-7,-4,-2,-8,7,119
4,1,-3,-3,4,-1,-7,-5,-3,-8,7,119
4,1,-3,-3,4,0,-7,-5,-3,-8,7,119
4,1,-3,-3,4,0,-7,-5,-4,-8,7,120
4,1,-3,-3,4,0,-7,-4,-4,-8,7,121
4,1,-3,-3,4,0,-6,-4,-4,-7,7,121
5,1,-3,-3,4,-1,-6,-5,-4,-7,7,122
4,1,-3,-3,3,-1,-6,-5,-4,-7,7,122
4,2,-3,-3,3,0,-6,-5,-4,-6,8,123
4,2,-3,-3,3,0,-6,-5,-3,-6,8,123
4,2,-3,-3,3,0,-5,-5,-3,-5,8,124
4,2,-3,-3,4,0,-5,-4,-2,-5,8,124
4,2,-3,-3,4,0,-5,-4,-1,-4,8,125
4,2,-3,-3,3,0,-5,-3,0,-4,8,125
4,2,-3,-3,3,-1,-5,-3,0,-3,8,125
4,1,-4,-3,3,-1,-5,-2,1,-3,8,125
4,1,-4,-3,3,-1,-5,-2,1,-2,8,125
4,1,-4,-3,3,-1,-4,-2,2,-1,8,125
4,1,-4,-3,3,-1,-4,-1,2,0,8,125
4,1,-4,-2,3,-1,-4,-1,2,0,7,125
4,1,-4,-2,3,-1,-4,0,3,0,7,125
4,1,-3,-2,3,-1,-3,0,3,1,7,125
3,0,-3,-2,2,-1,-3,0,3,1,7,125
2,0,-2,-2,1,-1,-2,0,3,1,7,125
1,1,-1,-1,0,0,-2,0,3,2,7,125
0,1,-1,-1,0,0,-1,1,3,2,6,125
0,1,-1,-1,0,0,-1,1,2,2,6,125
1,1,-1,-1,0,0,-1,1,2,2,5,125
1,0,-1,0,0,0,-1,1,1,1,5,125
1,0,-2,0,1,-1,-1,1,1,1,4,125
1,0,-2,0,1,-1,0,1,0,0,4,125
1,0,-2,0,1,-1,0,1,0,0,3,124
0,0,-2,0,1,-1,0,1,-1,0,3,124
0,0,-2,0,0,-1,0,1,-1,0,2,124
0,-1,-2,0,0,-1,0,1,-2,-1,2,124
0,-1,-1,1,0,-1,0,1,-2,-1,2,123
-1,-1,-1,1,0,-1,1,2,-3,-1,1,123
-1,-1,-1,2,-1,-1,1,2,-3,-2,1,123
-2,-2,-1,2,-1,-1,1,2,-3,-2,1,122
-2,-2,-1,2,-1,-1,1,3,-3,-2,1,122
-2,-2,0,2,-1,-1,1,3,-3,-2,1,121
-2,-2,0,2,-1,-1,1,3,-3,-2,1,120
-3,-2,0,3,-1,-1,1,2,-3,-2,0,119
-2,-2,0,2,-1,-1,1,2,-3,-2,0,118
-2,-2,-1,2,0,-1,1,2,-3,-2,0,118
-2,-2,-1,2,-1,-1,2,2,-3,-2,0,117
-2,-2,-1,2,-1,-1,2,2,-2,-2,0,117
-2,-2,-1,2,-1,-1,2,2,-2,-2,0,117
-2,-2,-1,2,-1,-1,2,2,-1,-2,0,117
-2,-2,-1,2,-1,-1,2,2,-1,-2,0,116
-2,-2,-1,2,-1,-1,2,2,-1,-2,0,116
-2,-2,-1,2,-1,-1,2,2,-1,-2,0,115
-2,-2,-1,2,-1,-1,2,3,0,-2,0,115
-2,-1,0,2,-2,-1,2,3,0,-1,1,115
-3,-1,1,2,-3,0,3,4,1,0,1,115
-4,-2,1,3,-3,0,3,4,2,0,1,115
-3,-2,0,3,-2,-1,3,4,2,0,1,115
-3,-2,-1,3,-2,-1,3,4,2,0,1,115
-3,-2,0,3,-2,-1,3,5,2,0,1,115
-3,-1,1,2,-2,0,3,5,3,1,1,115
-3,0,1,2,-2,0,3,5,3,1,1,116
-2,0,1,2,-2,0,3,5,3,1,1,116
-2,0,1,2,-2,0,3,5,3,1,1,116
-1,0,0,1,-2,0,3,5,3,2,1,116
-1,0,0,1,-1,0,3,5,4,2,1,116
-1,0,0,1,-1,0,3,5,4,3,1,117
-1,0,0,1,-1,0,3,5,4,3,1,117
-1,0,0,1,-1,0,3,5,4,4,1,117
-1,0,0,1,-1,0,3,5,4,4,1,117
-1,0,0,1,-1,0,3,5,4,4,1,117
-2,0,0,2,-2,0,3,5,4,4,1,117
-1,0,0,1,-2,0,3,5,4,4,1,117
-1,0,0,0,-1,0,3,5,4,4,0,117
0,0,0,0,-1,0,3,5,4,4,0,117
0,0,0,0,-1,0,3,5,4,4,0,117
0,0,0,0,-1,0,3,5,4,4,0,117
-1,0,0,1,-1,0,3,5,4,4,0,117
-1,0,0,1,-1,0,3,5,4,4,0,117
-2,0,0,1,-1,0,3,5,4,4,0,116
-2,0,0,1,-1,0,3,5,4,4,0,116
-2,0,0,1,-1,0,3,5,4,4,0,115
-1,0,0,1,-1,0,3,5,4,4,0,115
-1,0,0,1,-1,0,3,4,4,4,0,114
-1,0,0,1,-1,0,3,4,4,4,0,113
-1,0,0,1,0,0,3,4,4,4,0,113
-1,0,0,1,0,0,3,4,3,3,0,112
0,0,0,1,0,0,3,4,3,3,0,111
0,0,0,1,0,0,3,3,3,2,0,110
0,0,0,1,0,0,3,3,3,2,0,109
-1,0,0,1,-1,0,3,3,3,1,0,108
-1,0,0,1,-1,0,3,3,2,1,-1,107
-1,0,0,1,0,0,3,3,2,1,-1,107
-1,0,0,1,0,0,3,3,1,0,-1,106
-1,0,0,1,0,0,3,3,1,0,-1,105
-1,0,-1,1,0,0,3,3,1,0,-1,104
0,-1,-2,1,0,-1,3,3,1,0,-1,104
0,-1,-2,1,0,-2,3,3,1,0,-1,103
0,-2,-3,1,0,-2,3,3,1,0,-1,103
0,-2,-3,1,0,-2,3,3,1,0,-1,102
0,-2,-3,2,0,-2,3,3,1,0,-1,102
0,-2,-3,2,0,-2,3,3,1,0,-1,101
0,-2,-3,2,1,-2,3,3,1,-1,-1,101
0,-2,-4,2,1,-2,3,3,1,-1,-1,100
0,-2,-4,2,1,-2,3,3,0,-1,-1,100
-1,-3,-3,3,0,-2,3,3,0,-1,-1,99
-2,-3,-3,3,0,-3,3,3,0,-1,-1,99
-2,-3,-2,3,0,-3,3,2,0,-1,-2,99
-2,-2,-2,3,0,-2,3,2,0,-1,-2,99
-2,-2,-2,3,0,-2,3,2,0,-1,-2,99
-2,-3,-2,3,0,-2,3,2,0,-1,-2,99
-2,-3,-3,3,0,-2,3,2,-1,-1,-2,99
-1,-3,-3,3,0,-2,3,2,-1,-2,-2,99
-1,-2,-3,2,0,-2,3,1,-1,-2,-2,99
-1,-1,-2,1,0,-2,3,1,-1,-2,-2,99
-1,-1,-2,1,0,-1,3,1,-1,-2,-2,99
-1,-1,-2,2,0,-1,3,1,-1,-2,-2,99
-1,-2,-2,2,0,-2,3,1,-1,-2,-2,99
-2,-2,-2,3,0,-2,3,2,-1,-2,-2,100
-2,-3,-2,3,0,-2,3,2,-2,-2,-2,100
-2,-2,-2,3,0,-2,3,2,-2,-2,-2,101
-1,-2,-3,2,0,-2,3,2,-2,-2,-2,101
-1,-2,-3,2,0,-3,3,2,-2,-2,-2,101
-1,-2,-3,2,0,-3,3,1,-2,-2,-2,101
-1,-2,-3,2,0,-3,3,1,-3,-2,-2,101
0,-2,-3,2,1,-3,3,1,-3,-2,-2,100
0,-2,-3,1,1,-3,3,1,-3,-2,-2,100
0,-2,-3,1,1,-2,3,1,-3,-2,-2,100
0,-2,-2,1,1,-2,2,1,-3,-2,-2,100
-1,-2,-2,1,0,-2,2,1,-3,-2,-3,100
-1,-2,-2,2,0,-2,2,1,-3,-2,-3,100
-2,-2,-2,2,0,-2,2,1,-3,-2,-3,100
-2,-2,-2,2,0,-2,2,1,-3,-2,-3,99
-1,-2,-2,2,0,-2,2,1,-3,-2,-3,99
-1,-2,-2,2,0,-2,2,1,-3,-2,-3,98
-1,-2,-2,2,0,-2,2,1,-4,-2,-3,98
-1,-2,-2,2,0,-2,2,1,-4,-2,-3,98
-1,-2,-2,2,0,-2,2,1,-4,-2,-3,97
-1,-2,-2,2,0,-2,2,1,-4,-2,-3,97
-1,-2,-2,2,0,-2,2,1,-4,-2,-3,97
-1,-2,-2,2,0,-2,2,1,-4,-2,-3,97
-1,-2,-2,2,0,-2,2,1,-4,-3,-3,96
0,-2,-3,2,0,-2,2,1,-4,-3,-3,96
0,-2,-3,2,0,-2,2,1,-4,-3,-2,95
-1,-2,-3,2,0,-2,2,1,-4,-3,-2,95
-1,-2,-3,2,0,-3,2,1,-4,-3,-2,94
-1,-3,-3,2,0,-3,3,1,-4,-3,-2,93
-2,-3,-3,2,0,-3,3,1,-4,-3,-2,93
-2,-3,-3,2,0,-3,3,1,-4,-3,-2,92
-1,-3,-3,2,0,-3,3,1,-4,-3,-2,92
-1,-3,-3,2,1,-3,3,1,-4,-3,-2,91
0,-3,-3,2,1,-3,3,1,-4,-3,-2,91
0,-3,-3,2,1,-3,3,1,-4,-3,-2,91
0,-3,-3,2,1,-3,3,1,-4,-3,-3,91
0,-3,-3,2,1,-3,3,1,-4,-3,-3,91
-1,-3,-3,2,0,-3,3,2,-4,-2,-2,91
-1,-3,-2,2,0,-3,4,2,-4,-2,-2,91
-1,-3,-2,2,0,-3,4,2,-4,-2,-2,91
-1,-3,-2,2,0,-3,4,2,-4,-2,-2,91
-1,-3,-2,2,0,-3,4,1,-4,-2,-2,91
-1,-3,-2,2,0,-3,4,1,-3,-2,-2,91
-1,-3,-2,2,0,-2,4,1,-3,-2,-2,91
-1,-3,-2,2,0,-2,4,1,-3,-2,-2,91
-1,-3,-2,2,0,-2,4,1,-3,-2,-3,91
-1,-3,-2,2,0,-2,4,1,-4,-2,-3,91
-1,-3,-3,3,0,-3,4,1,-4,-2,-3,91
-2,-4,-3,3,0,-3,4,2,-4,-2,-3,91
-2,-4,-3,3,0,-3,4,2,-4,-2,-3,91
-2,-4,-3,3,0,-3,4,2,-4,-2,-3,92
-1,-4,-3,3,0,-3,4,2,-4,-2,-3,92
-1,-4,-3,3,0,-3,4,1,-4,-2,-3,92
-1,-4,-3,3,0,-3,4,1,-4,-2,-3,92
-1,-4,-3,3,0,-3,4,1,-4,-2,-3,93
-1,-4,-3,3,0,-3,4,0,-4,-2,-3,93
-1,-3,-3,3,0,-3,4,0,-4,-2,-4,93
-1,-3,-3,3,0,-3,4,0,-4,-2,-4,93
-2,-4,-3,3,0,-3,4,0,-4,-2,-4,93
-2,-4,-3,3,0,-3,3,0,-4,-2,-4,93
-2,-4,-3,3,0,-3,3,0,-4,-2,-4,93
-2,-4,-3,3,0,-3,3,0,-4,-2,-4,93
-2,-4,-3,3,0,-3,3,0,-4,-2,-4,93
-2,-4,-3,3,0,-3,3,0,-4,-2,-4,93
-2,-4,-3,3,0,-4,3,0,-4,-2,-4,93
-1,-5,-4,3,0,-4,3,0,-5,-3,-4,93
-1,-5,-4,3,1,-5,3,0,-5,-3,-5,93
-2,-5,-4,4,0,-5,3,0,-5,-3,-5,93
-3,-5,-3,4,0,-4,3,0,-5,-3,-5,92
-3,-5,-3,4,0,-4,3,0,-5,-3,-5,92
-2,-5,-3,3,0,-4,3,0,-5,-3,-5,92
-3,-5,-2,4,-1,-4,3,0,-5,-3,-5,92
-3,-5,-2,4,-1,-4,3,0,-5,-3,-5,91
-3,-5,-2,4,-1,-4,3,0,-5,-3,-4,91
-3,-5,-2,4,-1,-4,3,0,-5,-3,-4,91
-3,-5,-2,4,-1,-4,3,0,-5,-3,-4,91
-3,-6,-3,4,-1,-4,3,0,-5,-3,-4,90
-3,-6,-3,4,-1,-4,3,0,-6,-3,-5,89
-4,-6,-3,4,-1,-4,3,0,-6,-3,-5,89
-4,-6,-3,5,-1,-4,3,0,-6,-3,-4,88
-4,-6,-3,5,-1,-4,2,0,-6,-3,-4,88
-4,-6,-2,5,-1,-4,2,0,-6,-3,-4,88
-4,-6,-2,5,-2,-4,2,0,-6,-3,-4,88
-4,-6,-1,5,-2,-3,2,0,-6,-3,-4,88
-4,-6,-1,5,-2,-3,1,0,-5,-3,-4,88
-4,-5,0,5,-2,-3,1,0,-5,-3,-4,88
-4,-4,0,4,-2,-2,1,0,-5,-3,-3,88
-4,-3,0,4,-2,-1,0,0,-4,-2,-3,88
-4,-3,1,4,-3,-1,0,-1,-4,-2,-3,88
-5,-2,1,4,-3,0,0,-1,-3,-1,-2,88
-4,-2,1,4,-3,0,0,-1,-3,-1,-2,88
-4,-2,0,3,-2,-1,0,-1,-2,-1,-2,87
-3,-2,0,3,-1,-1,0,-1,-2,-1,-2,87
-3,-2,0,2,-1,-1,1,-1,-1,0,-2,87
-3,-2,0,2,-1,0,1,0,-1,0,-2,87
-3,-1,0,2,-2,0,1,0,0,0,-2,87
-3,-1,0,2,-2,0,1,0,0,0,-2,87
-2,-1,0,2,-1,-1,1,1,1,1,-1,87
-2,-1,0,2,-1,-1,1,1,2,1,-1,87
-1,-1,-1,1,0,-1,1,2,3,2,0,87
0,0,-1,0,0,-1,1,3,4,2,0,87
1,0,-1,0,1,0,0,3,5,3,0,87
2,0,-1,-1,1,0,0,4,5,4,1,88
2,0,-2,-1,1,0,-1,3,5,4,2,88
3,0,-3,-1,2,-1,-3,3,4,4,2,88
3,0,-4,-1,3,-1,-5,2,3,4,2,88
4,0,-4,-1,3,-1,-7,0,1,3,2,88
4,0,-4,-1,3,-1,-8,-1,0,3,2,88
4,0,-3,-1,2,-1,-8,-2,0,3,2,88
3,0,-3,-1,2,-1,-9,-3,-1,3,1,88
3,0,-3,0,2,-2,-9,-3,-2,2,1,87
3,-1,-4,0,3,-3,-9,-3,-4,0,0,86
3,-2,-6,0,4,-4,-9,-3,-5,-1,-1,85
3,-3,-7,0,5,-5,-8,-3,-6,-3,-2,84
3,-4,-9,1,6,-6,-8,-3,-6,-3,-3,83
2,-5,-9,1,6,-7,-7,-3,-6,-4,-3,83
2,-5,-9,2,6,-8,-7,-3,-6,-4,-3,83
1,-6,-9,3,5,-8,-6,-3,-7,-4,-3,83
1,-7,-9,3,5,-8,-6,-3,-7,-4,-3,82
1,-7,-9,3,5,-8,-6,-4,-7,-4,-3,82
1,-7,-9,3,4,-8,-6,-4,-7,-3,-3,82
0,-7,-8,3,4,-8,-5,-4,-7,-3,-3,82
0,-7,-8,4,3,-8,-5,-4,-6,-3,-3,83
-1,-7,-7,4,3,-7,-4,-4,-6,-3,-3,83
-1,-7,-7,4,2,-7,-3,-4,-6,-3,-3,83
-2,-7,-6,5,2,-7,-3,-3,-5,-3,-3,83
-2,-7,-6,5,1,-6,-2,-3,-5,-3,-3,83
-3,-8,-5,6,1,-6,-1,-3,-5,-3,-3,83
-3,-8,-5,6,1,-6,-1,-3,-5,-3,-3,83
-4,-8,-5,6,0,-6,0,-3,-5,-3,-3,83
-4,-8,-5,6,0,-6,0,-3,-5,-4,-3,82
-5,-9,-5,7,0,-7,0,-3,-5,-4,-4,81
-6,-9,-4,8,0,-7,0,-3,-6,-5,-4,80
-7,-10,-4,9,-1,-7,1,-3,-6,-5,-4,79
-7,-10,-3,9,-2,-7,2,-3,-6,-5,-5,79
-7,-10,-4,9,-2,-7,2,-3,-6,-5,-5,78
-7,-10,-4,9,-1,-7,2,-3,-7,-6,-6,76
-7,-11,-5,9,-1,-8,2,-2,-6,-6,-6,75
-7,-11,-5,9,-1,-8,3,-1,-6,-6,-6,75
-7,-11,-4,10,-2,-8,3,-1,-6,-7,-6,74
-8,-11,-4,10,-2,-8,3,-1,-6,-7,-6,73
-8,-11,-4,10,-2,-8,3,-1,-6,-7,-6,72
-8,-11,-4,10,-2,-8,3,-1,-6,-7,-6,71
-8,-11,-4,10,-2,-8,3,-1,-6,-7,-6,70
-7,-11,-5,10,-1,-8,3,-2,-6,-7,-6,69
-8,-12,-5,10,-1,-8,3,-2,-6,-7,-6,68
-8,-12,-5,10,-1,-8,3,-2,-6,-7,-6,67
-8,-12,-5,10,-1,-9,3,-2,-6,-7,-6,66
-8,-12,-6,10,-1,-9,3,-2,-5,-7,-7,65
-8,-13,-5,11,-1,-9,4,-1,-4,-7,-7,64
-9,-13,-4,11,-2,-9,5,1,0,-7,-8,63
-10,-12,-2,11,-4,-7,6,4,4,-6,-9,61
-11,-9,1,10,-6,-4,7,7,11,-3,-8,61
-12,-6,5,9,-8,0,8,11,20,1,-6,62
-12,-3,9,8,-10,3,9,15,30,7,-2,65
-10,0,10,5,-10,5,10,21,41,15,4,69
-7,3,9,2,-8,6,10,28,56,25,12,75
-2,7,8,-2,-5,7,10,35,73,36,21,82
3,11,6,-8,-1,8,9,42,90,50,31,90
11,16,4,-15,4,10,6,48,105,65,44,100
21,23,1,-22,10,11,1,50,113,83,58,112
30,30,-1,-30,16,14,-5,46,112,101,74,125
39,39,-1,-39,20,18,-15,35,101,120,91,139
48,48,-1,-47,25,23,-27,20,83,141,109,154
55,55,-2,-55,29,27,-39,5,61,159,124,167
60,58,-4,-59,32,27,-46,-9,39,165,130,173
60,54,-8,-57,34,23,-48,-18,15,151,120,169
56,43,-14,-50,35,14,-44,-23,-8,120,96,153
50,31,-20,-40,35,5,-38,-28,-33,81,66,132
41,18,-23,-29,32,-2,-32,-32,-58,43,36,110
31,7,-25,-19,28,-8,-25,-36,-84,6,9,92
21,-2,-24,-8,22,-13,-20,-42,-110,-26,-11,77
10,-11,-23,1,17,-16,-17,-48,-132,-52,-28,66
1,-19,-23,9,12,-20,-14,-53,-147,-69,-40,57
-5,-26,-24,15,9,-24,-11,-56,-155,-79,-48,51
-9,-33,-25,21,7,-28,-8,-56,-157,-85,-53,46
-13,-37,-25,25,5,-31,-5,-55,-154,-90,-57,42
-17,-39,-21,28,2,-31,-3,-54,-149,-93,-60,38
-20,-38,-17,29,-1,-28,-1,-52,-141,-92,-61,36
-22,-36,-14,29,-4,-25,-1,-48,-129,-87,-58,36
-23,-34,-11,29,-6,-22,-3,-44,-115,-80,-54,37
-23,-30,-9,27,-7,-19,-4,-41,-101,-72,-49,39
-23,-26,-6,24,-9,-15,-5,-37,-88,-63,-44,41
-23,-23,-2,22,-10,-12,-6,-34,-76,-55,-38,44
-21,-20,0,19,-11,-9,-6,-31,-65,-48,-33,47
-19,-17,1,17,-10,-7,-6,-27,-54,-42,-28,49
-17,-15,2,15,-10,-6,-5,-23,-44,-36,-24,50
-15,-13,2,14,-9,-6,-4,-19,-34,-30,-22,51
-14,-13,1,14,-8,-6,-2,-15,-25,-26,-20,51
-14,-13,0,14,-7,-6,0,-11,-18,-22,-18,51
-14,-13,0,14,-7,-6,1,-8,-12,-19,-17,51
-14,-13,0,13,-7,-6,2,-5,-7,-17,-15,51
-14,-13,0,13,-6,-6,3,-4,-4,-15,-13,51
-13,-13,-1,13,-6,-7,3,-3,-1,-13,-12,51
-12,-13,-1,13,-6,-7,3,-2,2,-12,-11,52
-12,-13,-1,13,-5,-8,3,-1,5,-12,-11,52
-12,-13,-1,13,-5,-8,3,0,8,-11,-11,53
-12,-13,-1,13,-5,-8,3,0,10,-11,-11,53
-12,-13,-2,13,-5,-8,3,0,11,-11,-11,53
-12,-14,-3,13,-4,-8,3,0,11,-10,-11,53
-12,-14,-4,13,-4,-8,3,0,10,-10,-11,54
-11,-13,-4,12,-4,-8,4,0,10,-10,-11,54
-11,-13,-3,12,-4,-8,4,1,10,-9,-10,54
-11,-13,-3,12,-4,-8,4,1,10,-9,-10,53
-11,-13,-3,12,-4,-8,5,2,11,-8,-10,53
-11,-13,-3,12,-4,-8,5,2,12,-8,-10,52
-11,-13,-3,12,-4,-7,5,2,12,-8,-10,51
-11,-12,-3,12,-4,-7,5,2,13,-8,-10,51
-11,-12,-2,12,-5,-7,5,2,13,-8,-10,50
-10,-12,-2,11,-5,-6,5,2,14,-8,-11,50
-10,-12,-2,11,-5,-6,5,2,14,-8,-11,50
-10,-12,-2,12,-5,-7,5,2,14,-8,-11,49
-11,-12,-2,12,-5,-7,5,2,14,-8,-11,49
-11,-12,-2,12,-5,-7,5,2,14,-8,-11,48
-11,-12,-2,12,-5,-7,5,2,14,-7,-12,47
-10,-12,-3,12,-4,-7,5,2,14,-7,-12,46
-11,-12,-3,12,-5,-7,5,2,14,-6,-12,46
-11,-12,-3,12,-5,-7,5,2,14,-6,-12,46
-11,-12,-3,12,-5,-7,5,2,14,-6,-12,46
-11,-12,-2,11,-5,-7,5,2,14,-6,-11,46
-11,-12,-2,11,-5,-7,5,2,15,-6,-11,46
-11,-11,-2,11,-5,-7,5,2,15,-6,-11,46
-11,-11,-1,11,-5,-7,5,2,15,-6,-11,46
-11,-11,-1,12,-5,-7,6,3,15,-5,-11,46
-11,-11,-1,12,-5,-7,6,3,15,-5,-10,48
-10,-11,-1,12,-5,-7,6,3,15,-4,-10,49
-10,-11,-1,12,-5,-7,6,3,15,-4,-10,51
-10,-11,-1,11,-5,-6,6,3,15,-4,-10,53
-10,-11,-1,11,-5,-6,6,3,15,-4,-10,55
-10,-11,-1,11,-5,-6,6,3,15,-4,-10,57
-10,-11,-1,11,-5,-6,6,3,15,-4,-10,59
-10,-11,-1,10,-5,-6,6,4,15,-4,-10,60
-10,-11,-1,10,-5,-6,6,4,15,-4,-10,62
-10,-11,-2,10,-5,-6,6,4,15,-4,-10,63
-10,-11,-2,10,-5,-6,6,4,14,-4,-11,64
-10,-11,-2,10,-5,-7,5,4,14,-4,-11,65
-10,-11,-2,10,-5,-7,5,4,14,-4,-11,66
-10,-11,-2,10,-4,-7,5,4,14,-4,-11,66
-9,-11,-3,10,-4,-7,5,4,14,-4,-11,66
-9,-11,-3,10,-4,-7,5,4,14,-4,-11,66
-9,-11,-3,10,-4,-7,4,4,14,-4,-11,66
-9,-11,-2,10,-4,-7,4,4,14,-4,-11,66
-10,-11,-2,10,-5,-7,4,4,13,-4,-11,65
-9,-11,-2,10,-4,-7,3,4,13,-5,-11,65
-9,-11,-3,10,-4,-7,3,4,13,-5,-11,64
-9,-11,-3,10,-3,-7,3,4,13,-5,-10,64
-9,-11,-2,10,-3,-7,3,4,14,-5,-10,64
-9,-10,-2,10,-4,-6,3,5,14,-5,-9,64
-8,-10,-2,9,-4,-6,2,5,15,-5,-9,64
-8,-10,-2,9,-4,-6,2,5,15,-4,-8,64
-8,-10,-2,9,-3,-6,1,5,16,-4,-8,64
-8,-9,-2,9,-3,-6,1,5,16,-4,-7,65
-8,-9,-2,9,-4,-6,1,5,17,-4,-7,65
-8,-9,-2,9,-4,-6,1,6,17,-4,-6,65
-7,-9,-2,8,-3,-6,1,6,18,-4,-5,65
-7,-9,-2,8,-3,-6,0,6,18,-4,-5,65
-6,-9,-2,8,-3,-6,0,6,19,-4,-4,65
-6,-9,-2,8,-3,-6,0,6,19,-3,-3,65
-6,-9,-2,8,-3,-6,-1,6,19,-3,-3,65
-7,-9,-2,7,-3,-6,-1,5,20,-3,-2,64
-7,-8,-2,7,-3,-6,-2,5,20,-3,-1,64
-7,-8,-2,7,-3,-6,-2,5,20,-3,-1,63
-6,-8,-3,6,-2,-6,-2,5,20,-3,0,63
-5,-7,-3,6,-2,-6,-3,5,20,-3,0,62
-4,-7,-3,5,-1,-6,-3,5,20,-3,0,62
-4,-6,-3,5,-1,-5,-4,4,20,-3,1,61
-3,-6,-3,4,-1,-5,-4,4,20,-3,1,61
-3,-5,-3,4,0,-5,-5,4,20,-3,2,60
-3,-5,-4,4,0,-5,-5,4,19,-3,2,60
-2,-5,-4,3,0,-5,-6,3,18,-3,3,59
-1,-5,-4,3,1,-5,-6,3,17,-3,3,58
-1,-5,-4,3,1,-5,-7,2,16,-3,3,58
-1,-4,-3,2,0,-4,-7,2,15,-4,3,57
0,-4,-3,2,1,-4,-8,1,14,-4,3,57
1,-3,-4,1,2,-4,-8,0,13,-5,4,57
1,-3,-4,1,3,-5,-9,0,12,-5,4,57
1,-3,-5,1,3,-5,-9,0,11,-5,4,57
1,-3,-4,1,3,-4,-9,-1,10,-6,4,57
1,-2,-3,1,2,-3,-9,-1,8,-6,4,58
1,-2,-3,0,2,-3,-9,-2,7,-6,4,59
1,-2,-3,0,2,-4,-9,-2,5,-6,4,60
1,-2,-3,0,2,-4,-10,-3,4,-6,4,60
1,-2,-3,0,2,-4,-10,-3,3,-6,4,61
1,-2,-4,0,3,-4,-10,-4,2,-7,5,61
2,-2,-4,0,3,-4,-10,-4,0,-7,5,62
2,-2,-4,0,3,-4,-10,-5,0,-8,5,62
2,-2,-4,0,3,-4,-11,-6,-1,-8,5,63
2,-2,-5,-1,3,-4,-11,-7,-2,-9,5,63
3,-2,-5,-1,3,-4,-11,-7,-3,-9,5,64
3,-2,-5,-1,3,-4,-11,-7,-3,-8,5,65
3,-2,-5,-1,3,-4,-11,-7,-4,-8,5,66
3,-1,-5,-1,3,-4,-11,-7,-4,-8,5,67
3,-1,-5,-1,3,-4,-11,-7,-4,-7,5,68
3,-1,-6,-1,3,-4,-10,-7,-4,-7,5,68
2,-1,-5,0,3,-4,-10,-7,-4,-7,5,69
1,-1,-4,0,2,-3,-10,-6,-4,-6,6,69
1,-2,-4,0,1,-3,-10,-6,-3,-5,6,70
1,-2,-4,0,2,-4,-10,-5,-2,-5,7,70
2,-2,-5,0,3,-4,-10,-5,-1,-4,7,71
3,-2,-6,0,3,-4,-10,-5,0,-4,7,71
2,-2,-6,0,3,-4,-9,-4,0,-3,7,72
2,-2,-6,0,3,-5,-9,-4,1,-2,7,72
2,-2,-6,0,3,-5,-9,-3,1,-2,7,72
2,-2,-6,0,3,-5,-9,-3,2,-1,7,72
2,-2,-6,0,3,-5,-8,-2,2,-1,7,72
2,-2,-6,0,3,-5,-8,-2,3,0,7,72
2,-2,-6,0,3,-5,-8,-2,3,0,7,72
1,-3,-6,1,2,-5,-8,-2,3,0,7,72
0,-3,-5,1,1,-4,-7,-1,3,1,7,72
0,-2,-4,2,0,-4,-7,-1,3,1,7,72
-1,-3,-3,2,0,-4,-6,-1,3,1,6,72
-1,-4,-4,2,0,-4,-6,-1,2,1,5,71
-1,-4,-4,3,0,-4,-6,-1,2,1,5,71
-1,-4,-4,3,0,-4,-6,-1,2,1,5,71
-1,-4,-4,3,0,-4,-6,-1,1,1,4,71
-2,-4,-4,3,0,-4,-6,-1,0,1,4,71
-3,-4,-3,4,-1,-4,-6,-1,0,0,3,71
-3,-5,-3,4,-1,-4,-5,0,0,0,3,71
-4,-5,-3,5,-2,-4,-5,0,-1,0,3,71
-4,-5,-2,5,-2,-4,-4,0,-2,0,2,71
-4,-5,-2,4,-2,-4,-4,0,-2,0,2,71
-4,-5,-2,4,-2,-4,-4,0,-3,0,2,71
-4,-5,-2,4,-2,-4,-4,0,-3,0,2,71
-4,-5,-2,5,-2,-5,-4,0,-4,0,1,71
-4,-5,-2,5,-2,-5,-4,0,-4,0,1,71
-5,-5,-2,5,-2,-4,-4,0,-4,0,1,71
-5,-5,-2,5,-3,-4,-4,0,-4,0,1,71
-5,-5,-2,5,-3,-4,-4,1,-4,0,1,71
-5,-6,-2,5,-3,-4,-4,1,-4,0,1,71
-5,-6,-2,5,-3,-4,-3,1,-4,0,1,71
-6,-6,-1,5,-3,-4,-3,1,-4,0,1,71
-6,-6,-1,6,-3,-4,-3,1,-3,0,1,72
-6,-6,-1,6,-4,-4,-2,1,-3,0,1,72
-7,-6,-1,6,-4,-4,-2,1,-3,0,1,72
-7,-7,-1,7,-4,-4,-2,1,-3,0,1,72
-7,-7,-1,7,-3,-4,-2,1,-3,0,1,73
-7,-6,-1,6,-3,-4,-2,2,-2,0,1,73
-7,-6,0,6,-3,-3,-2,2,-2,0,1,73
-7,-5,0,6,-4,-3,-2,2,-1,0,1,73
-6,-5,0,6,-4,-3,-2,2,-1,0,0,73
-6,-5,0,5,-3,-3,-2,2,0,0,0,73
-5,-5,0,5,-3,-3,-2,2,0,0,0,74
-5,-5,0,5,-3,-3,-1,2,0,0,0,74
-6,-5,0,5,-4,-2,-1,2,0,0,0,74
-6,-4,0,5,-4,-2,-1,2,0,0,0,74
-6,-4,1,5,-4,-2,-2,2,0,0,0,74
-6,-4,1,5,-4,-2,-2,2,0,0,0,74
-5,-3,0,4,-4,-2,-2,2,0,0,0,74
-5,-3,0,4,-3,-2,-2,2,1,0,0,74
-4,-3,0,4,-3,-2,-2,3,1,1,0,74
-4,-3,-1,4,-3,-2,-2,3,2,1,0,75
-4,-3,-1,4,-3,-2,-2,3,2,1,0,75
-4,-3,-1,4,-3,-2,-2,3,2,1,0,75
-4,-3,-1,3,-3,-2,-2,2,2,1,0,75
-4,-3,0,3,-3,-2,-2,2,2,1,0,75
-4,-3,0,3,-3,-2,-2,2,2,1,0,75
-4,-3,0,3,-3,-2,-2,2,2,2,0,76
-4,-3,0,3,-4,-1,-2,2,2,2,0,76
-4,-3,0,3,-3,-1,-2,2,2,2,-1,76
-4,-3,0,3,-3,-1,-2,2,2,2,-1,76
-3,-3,0,3,-3,-2,-2,2,2,2,-1,76
-3,-3,0,3,-3,-2,-2,2,2,2,-1,75
-3,-3,0,3,-3,-2,-2,2,2,2,-1,75
-3,-2,0,3,-3,-2,-2,2,2,2,-1,74
-3,-2,0,2,-3,-2,-2,2,2,2,-1,74
-3,-2,0,2,-3,-2,-2,2,2,2,-1,74
-3,-2,0,2,-3,-2,-2,2,2,2,-2,73
-3,-3,0,2,-3,-2,-2,1,1,1,-2,73
-3,-3,0,2,-3,-2,-2,1,1,1,-2,72
-3,-3,-1,2,-2,-2,-2,1,1,1,-2,72
-2,-3,-1,2,-2,-2,-2,1,1,1,-2,71
-2,-3,-2,2,-1,-2,-2,1,1,0,-2,70
-3,-3,-1,2,-1,-2,-2,1,1,0,-2,69
-3,-3,-1,2,-1,-2,-2,1,1,0,-3,69
-2,-3,-2,2,-1,-3,-2,1,0,0,-3,68
-2,-3,-2,2,-1,-3,-2,1,0,0,-3,68
-2,-3,-2,3,-1,-3,-2,1,0,0,-3,68
-3,-3,-1,3,-2,-3,-1,1,0,0,-3,68
-3,-3,-1,3,-2,-3,-1,1,0,0,-3,67
-4,-3,0,3,-3,-3,-1,1,0,0,-3,67
-4,-3,0,3,-3,-3,-1,1,0,0,-3,66
-4,-3,0,3,-3,-3,-1,1,0,0,-3,66
-4,-3,0,4,-3,-3,0,1,0,0,-3,65
-5,-3,0,4,-3,-3,0,1,0,-1,-3,65
-4,-3,0,4,-3,-3,0,1,0,-1,-3,65
-4,-4,-1,4,-3,-3,0,0,0,-1,-3,65
-3,-4,-2,4,-2,-4,0,0,-1,-1,-3,65
-3,-4,-2,3,-2,-4,0,0,-1,-2,-3,65
-2,-4,-2,3,-2,-4,0,0,-1,-2,-3,64
-2,-4,-1,3,-2,-4,0,0,-1,-2,-3,64
-3,-4,-1,3,-2,-4,0,0,-1,-2,-3,64
-3,-4,-1,3,-2,-4,0,0,-1,-2,-3,64
-3,-4,-1,3,-2,-4,0,0,-2,-2,-3,64
-3,-4,-1,3,-2,-4,0,0,-2,-2,-3,64
-3,-4,-1,3,-2,-4,0,0,-3,-2,-3,65
-4,-4,-1,4,-3,-4,0,0,-3,-2,-3,65
-4,-4,0,4,-3,-3,0,0,-3,-2,-3,66
-5,-4,0,4,-3,-3,1,0,-3,-2,-2,66
-5,-4,-1,4,-3,-4,1,0,-3,-2,-2,66
-4,-4,-1,4,-2,-4,1,0,-3,-3,-3,66
-4,-4,-1,4,-2,-3,0,0,-4,-4,-3,67
-3,-3,0,4,-2,-3,0,0,-4,-4,-3,67
-3,-3,0,4,-2,-3,0,-1,-5,-4,-3,68
-3,-3,-1,4,-2,-3,0,-1,-5,-4,-3,68
-3,-4,-1,4,-2,-3,0,0,-5,-4,-3,69
-4,-4,-1,4,-3,-3,0,0,-5,-3,-3,69
-4,-4,-1,4,-3,-3,0,0,-5,-3,-3,70
-4,-3,0,4,-3,-3,0,0,-5,-4,-3,70
-4,-3,0,4,-3,-3,0,0,-5,-4,-3,71
-4,-3,0,4,-3,-3,0,0,-5,-3,-3,71
-4,-4,0,4,-3,-3,0,0,-6,-3,-3,72
-4,-4,0,4,-3,-3,1,0,-6,-3,-3,72
-4,-4,0,4,-3,-3,1,0,-6,-3,-3,73
-4,-4,0,4,-3,-3,1,0,-6,-3,-3,73
-3,-3,-1,3,-2,-3,0,0,-6,-3,-3,73
-3,-3,-1,3,-2,-3,0,0,-6,-3,-3,73
-3,-4,-1,4,-2,-3,0,-1,-6,-3,-3,73
-3,-4,-1,4,-2,-3,0,-1,-7,-4,-3,73
-3,-4,-1,4,-2,-3,0,-1,-7,-4,-3,73
-3,-4,-1,4,-2,-3,0,-1,-7,-4,-4,73
-3,-4,0,3,-2,-3,0,-1,-7,-4,-4,73
-3,-4,0,3,-2,-3,0,-1,-7,-4,-4,73
-3,-4,0,3,-2,-3,0,-1,-7,-5,-4,72
-3,-4,0,3,-2,-3,0,-1,-7,-5,-4,72
-4,-4,0,3,-3,-3,0,-1,-7,-5,-4,71
-5,-4,0,4,-3,-3,0,-1,-7,-5,-4,71
-4,-4,0,4,-3,-3,0,-1,-7,-5,-3,71
-3,-4,-1,3,-2,-3,0,-1,-7,-5,-3,71
-3,-4,-1,4,-2,-3,0,-1,-7,-4,-3,71
-4,-5,0,4,-3,-3,0,0,-7,-4,-3,71
-5,-6,0,5,-3,-3,0,0,-7,-4,-3,71
-4,-5,0,4,-3,-3,0,0,-7,-4,-3,70
-4,-5,0,4,-3,-3,0,0,-6,-4,-3,70
-4,-4,0,4,-3,-3,0,0,-6,-4,-3,69
-4,-4,0,4,-3,-3,0,0,-6,-4,-3,69
-4,-4,0,4,-3,-3,0,-1,-6,-4,-4,70
-4,-4,0,4,-3,-3,0,-1,-7,-4,-4,70
-4,-4,0,4,-3,-2,0,-1,-7,-4,-4,70
-4,-4,0,4,-3,-2,0,-1,-7,-5,-4,69
-4,-4,0,4,-3,-2,0,-1,-7,-5,-4,69
-3,-4,0,4,-3,-2,0,-1,-7,-4,-4,69
-4,-4,0,4,-3,-2,0,0,-7,-4,-4,69
-4,-4,0,4,-3,-2,0,0,-7,-4,-5,69
-4,-4,0,4,-3,-2,0,0,-7,-5,-5,69
-4,-4,0,4,-3,-2,0,-1,-7,-5,-5,69
-4,-4,0,4,-3,-2,0,-1,-7,-5,-5,69
-4,-3,0,4,-3,-2,0,-1,-7,-5,-6,69
-3,-3,0,4,-3,-2,0,-1,-7,-5,-6,69
-3,-3,0,4,-3,-2,0,-1,-7,-4,-6,69
-3,-3,0,4,-2,-2,0,-1,-7,-4,-6,69
-3,-3,0,4,-2,-2,0,-1,-7,-4,-6,69
-3,-4,0,4,-2,-2,0,-1,-7,-4,-6,69
-3,-4,0,3,-2,-2,0,-1,-7,-4,-6,69
-3,-4,0,3,-2,-2,0,0,-7,-4,-6,69
-3,-4,0,3,-2,-2,0,0,-7,-4,-6,68
-3,-4,0,3,-2,-2,0,-1,-7,-4,-6,68
-3,-4,0,3,-2,-2,0,-1,-7,-4,-6,68
-3,-4,0,3,-2,-3,0,-1,-7,-4,-6,68
-3,-4,0,4,-2,-3,0,-1,-7,-4,-6,68
-3,-4,0,4,-2,-3,0,-1,-7,-4,-6,68
-3,-4,0,4,-2,-3,0,0,-7,-4,-6,68
-4,-4,0,4,-2,-3,0,0,-7,-4,-6,68
-4,-4,0,4,-2,-3,0,0,-7,-4,-6,67
-4,-4,0,4,-2,-3,0,0,-7,-4,-6,67
-4,-4,0,4,-2,-2,0,0,-6,-4,-6,66
-4,-4,1,4,-3,-2,0,0,-6,-4,-6,66
-4,-4,1,4,-3,-2,0,0,-6,-4,-6,66
-4,-4,1,4,-2,-2,0,-1,-6,-4,-6,65
-3,-3,1,4,-2,-2,0,-1,-6,-4,-6,65
-3,-3,1,4,-2,-2,0,-1,-6,-4,-6,65
-3,-3,0,3,-2,-2,0,-1,-6,-4,-6,65
-3,-3,0,3,-2,-2,0,-1,-6,-4,-6,65
-3,-3,1,3,-2,-2,0,0,-6,-4,-6,65
-4,-3,1,4,-3,-2,0,0,-5,-4,-6,65
-4,-3,1,4,-3,-2,0,0,-5,-4,-6,65
-4,-3,0,4,-3,-2,0,0,-5,-4,-6,65
-3,-4,0,4,-2,-3,0,0,-5,-4,-6,65
-3,-4,-1,4,-2,-3,1,0,-5,-4,-6,65
-3,-4,-1,4,-2,-3,1,0,-5,-4,-6,65
-3,-4,-1,4,-2,-3,1,0,-5,-4,-6,65
-3,-4,-1,4,-2,-3,1,0,-5,-4,-6,65
-3,-4,-1,4,-1,-3,1,0,-5,-4,-7,65
-3,-4,-1,4,-1,-3,1,0,-5,-4,-7,65
-3,-3,0,4,-2,-2,1,0,-4,-4,-7,65
-3,-2,1,3,-2,-1,1,0,-4,-4,-7,65
-3,-2,1,3,-2,-1,1,0,-5,-4,-7,65
-3,-2,1,3,-2,-2,0,0,-5,-4,-7,65
-3,-2,1,3,-2,-2,0,0,-5,-4,-7,65
-3,-2,1,3,-2,-1,0,0,-5,-4,-7,64
-3,-1,2,2,-2,-1,0,0,-5,-4,-7,64
-3,-1,2,2,-2,0,0,0,-4,-4,-7,64
-3,0,3,2,-3,0,0,-1,-4,-4,-7,65
-3,1,4,2,-4,2,0,-1,-4,-3,-6,65
-3,2,5,1,-4,2,0,-1,-3,-2,-6,66
-2,2,5,1,-3,3,-1,-1,-3,-1,-5,66
-2,3,5,0,-3,3,-1,-1,-2,-1,-5,66
-2,3,5,0,-3,2,-1,0,-2,0,-4,66
-2,2,5,0,-3,2,0,0,-1,0,-4,67
-2,2,4,0,-2,2,0,1,0,0,-3,67
-1,2,4,0,-2,2,1,1,0,1,-3,68
-1,2,4,-1,-2,2,2,2,2,1,-2,68
0,3,4,-1,-2,2,2,2,3,2,-2,69
0,3,4,-1,-3,2,3,3,4,3,-1,69
0,2,3,-1,-2,1,3,3,5,4,-1,69
1,2,2,-1,0,1,2,4,6,4,-1,69
2,3,2,-2,0,2,2,4,7,4,0,69
2,4,2,-3,1,2,2,5,8,5,0,69
3,5,2,-3,1,2,1,5,9,6,1,70
3,5,1,-4,1,2,0,4,9,6,2,70
5,5,0,-4,2,1,-1,3,8,5,2,69
6,5,-1,-5,3,0,-3,2,6,5,2,69
6,4,-2,-4,4,0,-5,0,4,4,2,69
6,3,-2,-4,4,0,-6,0,3,4,2,69
6,3,-1,-4,4,0,-7,-1,2,4,2,69
6,4,-1,-4,4,0,-7,-1,1,3,1,68
6,3,-1,-4,4,0,-7,-1,0,2,0,67
6,3,-2,-4,4,0,-7,-1,-1,1,0,66
6,2,-3,-3,4,-2,-7,-1,-2,0,-1,65
6,1,-4,-2,4,-3,-7,-1,-3,-1,-2,64
5,0,-4,-2,4,-3,-6,-1,-4,-2,-3,64
5,0,-4,-1,4,-3,-6,-1,-4,-2,-4,63
4,-1,-4,-1,4,-3,-5,-1,-4,-2,-4,63
5,-1,-5,-1,5,-4,-5,-1,-4,-2,-4,62
5,-2,-6,0,5,-4,-5,-1,-5,-3,-4,62
4,-2,-6,0,5,-5,-4,-1,-5,-4,-5,62
3,-2,-5,0,3,-4,-3,-1,-4,-3,-5,62
2,-2,-4,0,2,-3,-3,-1,-4,-3,-4,62
1,-1,-3,0,2,-3,-2,-1,-3,-2,-4,62
1,-1,-2,0,1,-2,-2,-1,-3,-2,-4,62
0,-1,-2,0,1,-2,-1,-1,-3,-2,-4,61
0,-1,-1,1,0,-2,-1,-1,-3,-2,-4,61
-1,-1,-1,1,0,-2,0,-1,-2,-2,-4,60
-1,-2,-1,2,0,-2,1,-1,-2,-2,-4,60
-2,-2,0,3,-1,-2,2,-1,-1,-2,-4,60
-2,-2,0,3,-1,-2,2,0,-1,-2,-4,60
-2,-2,0,3,-1,-2,3,0,-1,-2,-4,59
-2,-3,0,3,-1,-2,3,0,-1,-3,-4,58
-2,-3,0,3,-1,-2,4,0,-1,-3,-4,57
-3,-4,0,4,-2,-2,4,0,-1,-3,-4,56
-4,-4,0,5,-2,-2,4,0,0,-3,-5,54
-5,-5,0,5,-3,-3,4,0,0,-4,-5,53
-5,-5,0,5,-3,-3,4,0,-1,-4,-6,51
-5,-6,-1,5,-2,-4,4,0,-1,-5,-6,50
-5,-6,0,6,-2,-4,5,0,-1,-5,-6,48
-5,-6,0,6,-3,-4,5,0,0,-5,-6,47
-4,-6,0,6,-2,-4,5,0,0,-5,-6,45
-4,-6,-1,5,-2,-4,4,0,0,-5,-7,43
-4,-6,-1,5,-1,-4,4,0,0,-6,-7,42
-4,-6,-1,5,-1,-4,4,0,0,-6,-7,40
-4,-6,-1,5,-1,-4,4,0,0,-6,-7,39
-4,-7,-1,6,-2,-4,4,0,0,-5,-8,38
-5,-7,-1,6,-2,-4,4,0,0,-5,-8,36
-5,-7,-1,6,-3,-4,5,0,0,-5,-8,35
-5,-7,0,6,-3,-4,5,0,0,-5,-8,34
-5,-6,0,6,-3,-4,6,1,2,-5,-8,33
-5,-6,0,6,-3,-4,7,3,4,-5,-9,32
-6,-6,1,6,-4,-3,8,5,9,-4,-9,30
-7,-4,4,6,-6,0,9,8,16,-2,-9,30
-9,0,9,5,-9,3,11,11,24,2,-7,31
-9,3,13,3,-11,7,12,16,34,8,-3,34
-7,6,14,0,-10,9,12,21,45,16,2,38
-3,9,13,-2,-8,10,13,28,58,25,9,43
2,12,11,-6,-4,10,13,35,74,36,18,50
8,15,9,-11,0,11,12,42,91,48,28,57
15,20,6,-18,5,12,10,49,106,63,40,66
24,26,3,-25,11,13,5,52,116,79,55,77
33,32,1,-32,16,15,-1,50,117,97,70,90
42,40,0,-41,21,19,-10,41,108,116,87,103
52,49,-1,-50,27,23,-22,27,92,136,105,118
61,57,-2,-59,32,26,-33,12,71,155,121,131
67,62,-4,-64,36,28,-41,-1,50,166,130,140
68,60,-6,-64,38,26,-45,-11,27,157,125,138
65,52,-11,-58,39,20,-43,-17,4,130,104,124
59,41,-17,-50,38,11,-38,-22,-19,93,74,103
50,29,-20,-40,36,3,-32,-27,-44,54,43,82
40,18,-21,-29,31,-2,-26,-31,-70,16,16,62
30,8,-21,-19,26,-7,-20,-36,-96,-16,-6,47
19,0,-19,-10,20,-10,-15,-42,-119,-43,-23,35
10,-7,-18,-1,14,-13,-12,-48,-137,-62,-36,25
3,-14,-17,5,10,-16,-9,-52,-147,-74,-44,18
-2,-20,-18,11,8,-19,-7,-53,-149,-81,-50,13
-6,-25,-18,16,6,-21,-4,-53,-148,-86,-55,8
-11,-28,-16,19,3,-22,-1,-52,-144,-89,-59,3
-15,-28,-12,21,-1,-21,0,-50,-137,-90,-61,0
-18,-27,-7,22,-5,-18,1,-46,-126,-86,-60,-1
-19,-24,-4,21,-7,-16,0,-42,-112,-80,-57,-1
-19,-21,-2,20,-9,-13,0,-38,-98,-72,-52,0
-18,-18,0,19,-9,-10,-1,-34,-84,-64,-46,0
-17,-15,1,17,-10,-7,-1,-31,-71,-56,-41,2
-16,-13,3,15,-10,-4,-2,-28,-60,-49,-36,3
-14,-10,5,12,-10,-2,-2,-25,-49,-42,-31,5
-13,-8,6,10,-9,-1,-2,-21,-39,-36,-28,6
-11,-6,6,8,-8,0,-1,-16,-29,-30,-25,6
-11,-5,6,8,-8,0,0,-12,-20,-25,-22,6
-11,-5,6,8,-8,0,2,-7,-12,-21,-20,6
-10,-6,5,8,-8,-1,4,-4,-6,-18,-18,5
-9,-6,3,8,-7,-1,6,-2,-2,-15,-16,4
-8,-6,2,8,-6,-2,7,-1,1,-13,-15,3
-8,-6,2,7,-5,-2,7,0,3,-11,-13,3
-8,-6,2,7,-4,-2,7,0,6,-11,-12,2
-8,-6,2,7,-4,-3,7,1,9,-10,-12,2
-7,-6,2,7,-4,-3,7,2,12,-10,-12,2
-7,-6,1,7,-4,-4,8,3,14,-9,-12,2
-8,-7,1,8,-5,-4,8,4,16,-9,-12,2
-8,-7,2,8,-5,-3,9,4,16,-9,-12,2
-7,-6,2,7,-4,-3,9,4,16,-9,-12,2
-6,-6,1,6,-4,-2,9,4,16,-9,-12,2
-6,-5,1,5,-3,-2,9,4,16,-8,-11,2
-6,-5,1,5,-3,-2,9,4,16,-8,-11,2
-6,-5,1,5,-3,-2,9,4,17,-8,-11,2
-6,-5,1,5,-3,-2,9,5,17,-8,-11,2
-6,-5,2,6,-4,-2,9,5,18,-7,-11,2
-7,-5,2,6,-4,-2,9,5,19,-7,-11,2
-7,-6,1,6,-4,-3,9,5,20,-7,-11,2
-6,-6,1,6,-3,-3,9,5,21,-7,-11,2
-6,-6,0,6,-3,-3,9,5,21,-7,-11,2
-7,-6,0,7,-3,-3,9,5,21,-7,-11,1
-7,-6,0,7,-4,-3,9,5,21,-7,-11,1
-7,-6,0,7,-3,-3,10,6,22,-7,-11,0
-6,-6,0,7,-3,-3,10,6,22,-6,-11,0
-6,-6,0,7,-3,-3,10,6,22,-6,-11,0
-6,-6,1,7,-4,-3,10,6,22,-6,-11,0
-6,-6,1,6,-4,-3,10,6,22,-6,-11,0
-6,-5,1,6,-4,-3,10,6,22,-6,-11,0
-6,-5,1,6,-4,-3,10,6,23,-6,-11,0
-7,-5,2,6,-5,-3,10,6,23,-6,-11,0
-7,-5,2,6,-4,-3,10,6,23,-6,-11,0
-6,-5,1,6,-3,-3,10,6,23,-6,-11,1
-6,-5,1,5,-3,-2,10,6,24,-5,-11,1
-6,-5,2,6,-4,-2,11,6,24,-5,-11,2
-6,-5,2,6,-4,-2,11,7,24,-4,-10,3
-6,-5,2,5,-4,-2,11,7,24,-4,-10,4
-6,-5,2,5,-4,-2,10,7,24,-4,-10,5
-6,-5,1,5,-4,-2,10,7,24,-4,-10,6
-6,-5,1,5,-4,-2,11,8,24,-4,-10,7
-6,-5,1,5,-4,-2,11,8,24,-4,-10,8
-6,-5,1,6,-4,-2,11,8,24,-4,-10,8
-6,-6,1,6,-4,-2,11,8,24,-4,-10,9
-6,-6,0,6,-4,-3,11,9,24,-3,-10,10
-6,-7,0,6,-4,-3,11,9,25,-3,-10,10
-6,-7,0,6,-4,-4,11,9,25,-3,-10,11
-7,-6,1,6,-4,-3,11,9,25,-3,-10,12
-7,-6,1,6,-4,-3,11,9,25,-3,-10,12
-7,-6,1,6,-4,-3,11,9,25,-3,-10,13
-6,-6,0,5,-3,-3,10,9,25,-3,-11,13
-5,-5,0,5,-3,-3,10,9,25,-3,-11,13
-5,-5,0,5,-3,-3,10,9,25,-4,-11,13
-4,-5,0,5,-3,-3,10,9,25,-4,-12,13
-4,-5,0,4,-2,-3,9,8,24,-5,-12,13
-4,-4,0,4,-2,-2,9,8,24,-5,-12,14
-4,-4,1,4,-2,-2,9,8,24,-5,-12,14
-4,-3,1,4,-2,-2,9,8,24,-5,-12,15
-3,-4,0,4,-2,-2,9,8,24,-5,-12,15
-3,-5,0,4,-2,-3,9,8,24,-5,-11,16
-2,-5,-1,4,-1,-4,8,8,25,-4,-11,16
-2,-5,-1,4,-1,-3,8,8,25,-4,-10,17
-2,-4,0,4,-1,-2,8,8,26,-3,-9,18
-2,-3,0,4,-1,-2,7,8,26,-3,-8,19
-2,-3,0,3,-1,-2,7,8,27,-2,-7,20
-2,-3,0,3,-1,-2,6,8,27,-2,-6,21
-2,-3,0,3,-1,-2,6,8,27,-2,-6,22
-2,-3,0,2,-1,-2,5,8,27,-2,-5,23
-2,-2,0,2,-1,-2,5,8,27,-2,-5,24
-1,-2,0,1,0,-2,4,8,27,-1,-4,24
0,-2,0,1,0,-2,4,8,27,-1,-4,25
0,-2,-1,1,0,-2,3,8,27,-1,-3,25
0,-2,-1,1,0,-2,3,8,26,-1,-3,26
0,-2,-1,0,0,-2,2,7,26,-1,-2,26
0,-2,-2,0,1,-2,2,7,26,-1,-2,26
1,-1,-1,0,1,-1,2,7,26,-1,-1,26
1,0,0,0,0,0,2,7,26,-1,0,27
1,0,0,-1,0,0,1,7,26,-1,0,27
2,0,0,-1,1,0,1,6,26,-1,1,27
2,1,0,-2,1,0,0,6,25,-2,1,26
2,1,0,-2,2,0,0,5,24,-2,1,26
3,1,0,-2,2,0,-1,5,23,-2,1,26
3,2,0,-3,2,0,-1,5,22,-2,2,26
4,2,-1,-3,3,0,-2,4,22,-3,2,26
4,2,-1,-3,3,0,-2,4,21,-3,2,25
4,2,-1,-3,3,0,-3,3,19,-4,2,25
4,2,-1,-4,3,0,-3,2,18,-4,2,25
4,2,-1,-4,3,0,-3,2,17,-4,3,26
4,2,-1,-3,3,0,-3,1,16,-4,4,26
5,2,-1,-4,4,0,-3,0,15,-5,4,26
6,3,-2,-4,4,0,-3,0,14,-6,4,26
6,3,-2,-5,4,0,-4,-1,13,-6,3,26
6,2,-2,-5,4,0,-4,-1,11,-7,3,25
6,2,-2,-5,4,0,-4,-2,10,-8,3,25
7,3,-2,-5,4,0,-5,-2,9,-8,2,25
7,3,-2,-6,4,0,-5,-2,8,-9,2,25
7,4,-2,-6,4,0,-5,-3,7,-9,2,26
7,4,-1,-6,4,0,-5,-3,7,-9,2,27
7,5,0,-6,4,1,-5,-4,6,-9,2,27
7,5,0,-6,3,2,-5,-4,6,-9,2,27
7,5,0,-6,3,2,-5,-4,6,-9,2,28
7,5,0,-6,4,2,-5,-5,5,-9,2,28
7,5,-1,-6,4,1,-5,-5,5,-9,2,28
6,5,-1,-6,4,1,-5,-5,5,-8,3,28
6,5,-1,-6,4,1,-5,-5,5,-8,3,29
7,5,-1,-6,4,1,-5,-5,5,-7,3,29
7,4,-2,-6,5,0,-5,-4,6,-7,4,30
8,4,-2,-6,6,0,-4,-4,6,-6,4,30
8,4,-2,-6,6,0,-4,-3,7,-6,4,30
8,4,-2,-6,5,0,-4,-3,8,-5,4,29
7,5,-1,-6,5,0,-4,-2,9,-5,4,29
7,5,-1,-6,4,0,-4,-2,9,-4,4,29
7,5,-1,-6,4,0,-4,-1,10,-4,4,29
6,4,-1,-6,4,0,-4,-1,10,-3,4,29
6,4,-1,-5,4,0,-3,0,11,-1,4,30
5,4,-1,-5,4,0,-3,0,11,0,4,30
5,3,-1,-4,4,0,-3,0,12,0,4,30
5,3,-1,-4,4,0,-2,0,12,0,4,30
5,3,0,-4,3,0,-2,0,12,1,4,29
5,3,0,-4,3,0,-2,0,12,1,4,28
4,2,0,-3,2,0,-1,0,12,2,4,28
3,2,0,-3,2,0,-1,0,12,2,3,28
3,2,0,-3,2,0,-1,0,12,2,3,28
3,2,0,-3,2,0,-1,0,11,2,3,28
3,2,0,-3,2,0,0,1,11,2,2,27
2,1,0,-2,2,0,0,1,10,1,2,26
2,1,0,-2,1,0,0,1,9,1,1,25
2,1,0,-2,1,0,0,1,9,0,0,25
2,1,0,-2,1,0,0,1,8,0,0,25
2,0,0,-1,1,-1,0,1,8,0,0,25
2,0,0,-1,1,0,1,1,7,0,-1,25
1,1,1,-1,0,0,1,1,6,0,-1,25
1,1,2,-1,0,0,1,2,6,0,-1,25
0,1,2,0,0,0,1,2,5,0,-1,25
0,1,2,0,-1,0,2,2,5,0,-1,24
0,1,2,0,-1,0,2,2,5,0,-1,24
-1,0,2,0,-1,0,2,2,5,0,-1,24
-1,0,2,0,-1,0,2,2,5,0,-1,24
-1,0,2,0,-1,0,2,2,5,0,-2,24
-1,0,2,0,-1,0,2,2,5,0,-2,25
-1,0,2,0,-1,0,2,2,5,-1,-2,25
-1,0,2,0,-1,0,2,2,5,-1,-2,25
0,0,2,0,-1,0,2,2,5,-1,-3,25
0,0,2,0,-1,0,2,2,5,-1,-3,25
0,0,2,0,-1,0,2,2,6,-1,-3,26
-1,0,2,1,-1,0,2,2,6,-1,-3,26
-1,0,2,1,-1,0,2,2,6,-1,-3,27
-2,0,2,1,-2,0,2,2,7,-1,-3,28
-2,0,3,1,-2,0,3,2,7,-1,-4,28
-2,0,3,1,-2,0,3,2,8,-1,-4,28
-2,0,3,1,-2,0,3,3,8,0,-4,28
-2,0,2,1,-2,0,3,3,9,0,-4,28
-2,0,2,1,-2,0,3,3,9,0,-4,28
-2,0,3,1,-3,1,3,3,10,0,-4,28
-2,0,4,0,-3,1,3,4,10,0,-4,29
-2,1,3,0,-2,1,3,4,10,0,-4,29
-1,1,3,0,-1,1,3,4,10,-1,-5,29
-1,1,3,0,-1,1,3,4,10,-1,-5,28
-1,2,3,0,-1,1,3,4,10,0,-5,28
0,2,3,-1,-1,2,3,4,10,0,-5,28
0,2,3,-1,-1,2,3,3,10,0,-5,27
0,2,3,-1,-1,1,3,3,10,0,-5,27
0,2,2,-1,-1,1,3,3,11,0,-5,26
0,2,2,-1,-1,1,3,3,11,0,-5,27
0,1,2,-1,-1,1,3,3,11,1,-5,27
0,1,2,-1,-1,1,3,3,11,1,-4,27
0,2,2,-1,-1,2,3,3,11,1,-4,27
0,2,2,-1,0,2,3,3,12,1,-4,27
0,1,2,-1,0,1,3,3,12,1,-4,27
0,1,1,0,0,0,3,3,12,1,-4,26
0,1,2,0,-1,0,3,3,13,1,-4,26
0,1,2,-1,-1,1,3,3,13,1,-4,26
0,2,3,-1,-1,1,3,3,12,1,-4,26
0,2,3,-1,-1,2,3,3,12,1,-4,25
0,2,3,-1,-1,2,3,3,12,1,-4,25
0,1,3,-1,-1,1,3,3,12,1,-4,24
0,1,3,-1,-1,1,3,3,12,1,-4,22
0,1,3,-1,-1,1,3,3,12,1,-5,21
0,2,3,-1,-1,1,3,3,11,1,-5,19
0,2,3,-1,-1,1,3,3,11,1,-6,18
0,2,3,-1,-1,1,3,3,11,1,-6,18
0,1,3,-1,-1,1,3,2,11,1,-6,17
0,1,2,-1,-1,1,2,2,11,1,-6,17
0,1,2,-1,-1,1,2,2,11,1,-6,16
-1,1,3,-1,-1,1,3,2,10,1,-6,15
-1,1,3,-1,-1,1,3,2,10,1,-6,14
-1,1,3,-1,-1,1,3,1,10,1,-6,14
-1,1,3,-1,-1,1,3,1,9,1,-5,14
-1,1,3,-1,-1,1,3,1,9,1,-5,14
0,1,3,-1,-1,1,3,1,9,1,-5,14
0,1,3,-1,-2,1,3,1,9,1,-5,14
-1,0,3,0,-2,1,3,1,9,1,-5,14
-1,0,3,0,-2,1,3,1,9,0,-5,13
-1,0,2,0,-1,1,3,1,8,0,-5,12
-1,0,2,0,-1,1,3,1,8,0,-5,11
-1,0,1,0,-1,0,3,1,8,0,-5,11
-1,-1,1,0,-1,0,3,1,8,0,-5,11
-1,-2,0,1,-1,-1,3,1,7,0,-5,10
-1,-2,0,1,-1,-1,4,1,7,0,-5,10
-1,-1,0,1,-1,0,4,1,6,0,-5,9
-1,-1,1,0,-1,0,4,1,6,0,-5,8
-2,-1,1,0,-1,0,4,1,6,-1,-5,7
-2,-1,1,1,-1,0,4,1,5,-1,-6,6
-2,-1,1,1,-1,0,4,1,5,-1,-6,6
-2,-1,1,1,-1,0,5,1,5,-1,-6,5
-2,-1,1,1,-1,0,4,0,5,-2,-6,5
-1,-1,1,1,-1,0,4,0,5,-2,-7,4
-1,-1,0,1,0,-1,4,0,5,-2,-7,4
-1,-1,0,1,0,-1,4,0,5,-1,-7,4
-1,-1,0,1,0,-1,4,0,4,-1,-7,3
-1,-1,0,0,0,-1,4,0,4,-1,-7,3
-2,-1,0,0,-1,-1,4,0,4,-1,-7,3
-2,-1,0,1,-1,-1,4,0,4,-1,-7,3
-2,-1,0,1,-1,-1,4,1,4,-1,-7,4
-2,-1,0,1,-1,-1,4,1,4,-1,-7,5
-2,-1,1,1,-2,0,4,1,4,-1,-7,6
-3,-1,2,1,-2,0,4,1,4,-1,-7,6
-3,-1,2,1,-2,0,4,2,4,-1,-7,7
-3,-2,1,1,-2,0,4,2,4,-1,-7,8
-3,-2,1,1,-1,-1,4,2,4,-2,-7,8
-3,-2,1,1,-1,-1,4,1,3,-2,-8,8
-3,-2,1,1,-1,-1,4,1,3,-3,-8,8
-3,-2,1,1,-1,-1,4,1,3,-3,-9,8
-3,-2,1,2,-1,-1,4,1,2,-3,-9,7
-3,-2,1,2,-1,-1,4,0,2,-3,-9,7
-3,-3,0,2,-1,-2,4,0,1,-4,-9,7
-4,-3,0,2,-1,-2,4,0,1,-4,-9,7
-4,-3,0,2,-1,-2,4,0,1,-4,-9,7
-3,-3,0,2,-1,-2,4,0,1,-4,-9,7
-3,-2,0,2,-1,-2,4,0,1,-4,-9,7
-3,-2,0,2,-1,-2,4,0,1,-4,-9,7
-3,-2,0,2,-1,-2,4,0,1,-4,-9,6
-2,-2,0,2,-1,-2,4,0,1,-4,-9,6
-2,-2,0,2,-1,-2,4,0,1,-4,-9,6
-2,-2,0,2,-1,-2,4,0,1,-4,-9,6
-2,-2,0,2,-1,-2,4,0,1,-4,-9,6
-2,-2,0,2,-1,-2,3,0,1,-4,-9,6
-3,-3,0,2,-1,-2,3,0,1,-4,-9,6
-3,-3,0,2,-1,-2,3,0,1,-3,-9,6
-3,-3,0,2,-1,-2,3,0,1,-3,-9,6
-3,-2,0,2,-1,-2,3,0,1,-2,-8,5
-3,-2,0,2,-1,-1,4,0,1,-2,-8,5
-3,-2,1,2,-2,-1,4,0,1,-2,-8,4
-3,-2,1,2,-2,-1,4,0,1,-3,-8,4
-3,-2,1,2,-2,-1,4,0,1,-3,-8,4
-3,-3,0,2,-1,-1,3,0,2,-3,-8,4
-3,-3,0,3,-1,-2,3,0,2,-4,-8,4
-4,-4,0,3,-1,-2,3,0,2,-4,-9,4
-4,-4,0,3,-2,-2,3,0,2,-4,-9,3
-4,-4,0,3,-2,-2,3,0,2,-5,-9,2
-5,-4,0,4,-2,-2,3,0,2,-5,-9,2
-5,-4,1,4,-2,-2,3,0,2,-5,-9,1
-6,-5,1,5,-3,-2,3,-1,2,-5,-9,1
-5,-5,0,5,-2,-2,3,-1,2,-5,-10,0
-5,-5,0,4,-2,-2,3,-1,2,-5,-10,0
-5,-5,0,4,-2,-3,2,-2,2,-6,-11,0
-5,-5,0,4,-2,-3,2,-2,2,-6,-11,-1
-4,-5,0,4,-2,-3,2,-2,2,-7,-11,-1
-4,-5,0,4,-2,-3,2,-1,2,-7,-11,-1
-5,-5,0,4,-2,-3,2,-1,3,-6,-10,-1
-5,-6,-1,5,-2,-4,2,-1,3,-6,-10,-1
-5,-6,-1,5,-2,-4,2,-1,3,-6,-10,-1
-5,-6,-1,5,-2,-4,2,-1,3,-6,-10,-2
-5,-6,-1,5,-2,-4,3,-1,3,-6,-10,-2
-6,-6,0,5,-3,-3,3,-1,3,-6,-9,-2
-7,-5,1,6,-3,-3,3,-1,3,-6,-9,-2
-6,-5,1,5,-3,-3,3,-1,3,-6,-9,-3
-5,-5,0,5,-1,-3,2,-1,2,-6,-10,-3
-4,-5,0,4,-1,-3,2,-1,2,-6,-10,-4
-4,-4,0,4,-1,-3,2,-1,2,-6,-10,-4
-4,-4,1,4,-2,-2,2,-1,2,-7,-10,-3
-5,-4,1,4,-2,-1,2,-1,2,-7,-10,-3
-5,-4,1,4,-2,-1,2,-1,2,-7,-10,-3
-5,-4,0,4,-2,-2,2,-1,2,-7,-9,-3
-5,-5,0,4,-2,-2,2,0,2,-7,-9,-4
-5,-5,0,5,-2,-3,3,0,3,-7,-8,-4
-5,-6,0,5,-2,-3,3,0,3,-7,-8,-4
-4,-6,0,5,-2,-3,3,0,3,-7,-8,-4
-4,-5,0,5,-1,-3,3,0,3,-7,-9,-4
-4,-5,0,4,-2,-2,3,0,3,-7,-9,-4
-4,-5,1,4,-3,-2,3,0,3,-7,-9,-5
-4,-4,1,4,-3,-2,3,0,2,-8,-10,-6
-3,-4,0,4,-2,-2,2,-1,2,-9,-11,-6
-3,-4,0,3,-1,-2,2,-1,1,-9,-12,-7
-3,-4,0,4,-1,-2,2,-1,1,-9,-12,-7
-4,-4,0,4,-2,-2,2,-1,2,-8,-12,-6
-4,-4,0,4,-2,-2,3,-1,2,-8,-12,-6
-4,-4,0,4,-2,-2,3,-1,2,-7,-11,-6
-4,-4,0,4,-2,-2,3,-1,2,-7,-11,-6
-4,-5,0,4,-2,-2,3,-1,2,-6,-11,-6
-5,-5,0,4,-2,-2,3,0,2,-6,-10,-7
-5,-5,0,4,-2,-2,3,0,2,-6,-10,-7
-5,-5,0,4,-3,-2,3,0,2,-6,-10,-8
-5,-4,1,5,-3,-1,3,0,2,-6,-10,-8
-6,-4,2,5,-4,-1,3,0,2,-6,-10,-8
-6,-4,2,5,-4,-1,3,0,1,-7,-11,-8
-6,-5,2,5,-4,-1,3,-1,1,-7,-11,-8
-6,-5,1,5,-4,-2,3,-1,1,-7,-11,-8
-6,-5,1,5,-4,-2,3,-1,1,-8,-11,-8
-5,-5,1,5,-4,-1,3,0,2,-7,-10,-8
-5,-4,1,5,-3,-1,3,0,2,-6,-9,-7
-5,-4,1,5,-3,-1,3,0,3,-6,-9,-7
-5,-4,2,5,-4,-1,2,0,3,-6,-8,-7
-5,-3,3,4,-4,0,1,0,3,-6,-8,-8
-5,-2,3,4,-4,0,1,0,3,-6,-8,-8
-4,-2,3,3,-3,0,0,0,3,-6,-8,-9
-4,-1,3,2,-3,1,0,0,4,-6,-8,-9
-5,-1,4,2,-4,1,0,0,4,-6,-8,-9
-5,-1,4,2,-4,2,0,0,5,-6,-8,-8
-5,-1,5,3,-5,2,1,0,5,-6,-7,-8
-5,-1,5,3,-5,2,2,0,6,-5,-6,-7
-5,0,5,2,-5,2,2,0,7,-5,-6,-7
-4,0,5,2,-4,2,2,0,7,-4,-5,-7
-3,0,4,1,-4,2,2,0,8,-4,-5,-7
-3,0,4,1,-3,2,2,1,8,-3,-4,-7
-3,0,4,1,-3,2,2,1,9,-3,-4,-7
-3,0,4,1,-3,2,2,1,10,-2,-4,-7
-2,0,3,1,-2,2,2,1,10,-2,-3,-6
-1,0,3,0,-2,2,2,2,11,-1,-2,-6
0,1,2,0,-1,2,2,2,11,-1,-1,-5
0,1,1,-1,0,1,0,2,11,0,0,-5
1,1,1,-1,0,1,-1,1,11,0,0,-5
1,1,1,-1,0,2,-2,1,10,0,0,-4
1,1,1,-1,0,2,-3,0,9,0,0,-4
1,1,1,-1,0,2,-4,0,8,0,0,-4
2,1,0,-2,1,1,-5,-1,7,-1,0,-4
2,1,0,-2,1,1,-6,-2,5,-2,0,-4
2,1,0,-2,1,1,-6,-2,4,-3,-1,-6
2,0,-1,-1,2,0,-6,-3,2,-4,-2,-7
1,-1,-3,0,2,-1,-5,-3,1,-5,-3,-9
2,-2,-4,0,3,-2,-5,-2,0,-6,-4,-10
2,-3,-4,0,3,-3,-4,-2,0,-6,-5,-10
2,-3,-5,1,3,-3,-4,-2,0,-7,-5,-11
1,-4,-5,1,3,-4,-4,-2,0,-7,-5,-11
1,-4,-5,1,4,-4,-4,-3,-1,-7,-5,-11
1,-5,-6,1,4,-5,-3,-3,-1,-7,-4,-11
1,-4,-6,1,4,-5,-3,-2,-1,-7,-4,-11
1,-4,-5,1,3,-4,-2,-2,-1,-7,-3,-11
0,-3,-3,1,2,-4,-2,-2,0,-6,-2,-11
-1,-3,-2,2,1,-3,-2,-2,0,-6,-2,-11
-2,-3,-2,3,0,-3,-1,-2,0,-6,-2,-11
-2,-3,-1,3,0,-3,0,-2,0,-6,-2,-10
-3,-4,-1,4,-1,-3,0,-2,0,-6,-2,-9
-4,-4,0,4,-2,-3,1,-2,0,-6,-2,-8
-5,-5,0,5,-2,-3,2,-2,0,-6,-2,-7
-5,-6,0,5,-2,-3,3,-1,1,-7,-2,-7
-5,-6,0,5,-3,-3,3,-1,1,-7,-2,-7
-5,-6,0,5,-3,-3,3,-1,0,-8,-2,-7
-5,-7,0,6,-2,-3,2,-1,0,-9,-3,-7
-6,-7,0,6,-2,-4,2,0,0,-9,-3,-7
-6,-7,-1,6,-1,-4,2,0,0,-9,-3,-7
-5,-8,-2,6,-1,-5,2,0,-1,-9,-4,-7
-5,-8,-2,6,0,-5,3,0,-1,-10,-4,-7
-6,-9,-2,7,-1,-5,3,0,-2,-10,-4,-7
-7,-9,-2,8,-2,-5,4,0,-2,-10,-3,-7
-8,-9,-1,9,-3,-5,4,0,-2,-10,-3,-6
-8,-9,0,9,-3,-5,4,0,-2,-10,-3,-6
-8,-9,0,8,-3,-4,4,0,-2,-10,-3,-6
-8,-9,0,8,-3,-4,4,0,-2,-10,-3,-6
-8,-9,0,8,-3,-4,4,0,-3,-10,-3,-7
-8,-9,0,8,-3,-4,4,0,-3,-10,-4,-7
-8,-9,0,8,-3,-4,4,0,-3,-10,-4,-8
-8,-9,0,9,-3,-4,4,0,-3,-11,-5,-8
-8,-10,0,9,-3,-5,4,0,-3,-11,-5,-9
-8,-10,0,9,-3,-5,4,0,-3,-12,-5,-10
-8,-10,-1,9,-3,-5,5,0,-2,-12,-6,-11
-8,-11,-1,9,-3,-5,6,1,0,-11,-7,-11
-9,-10,0,9,-3,-5,7,3,4,-9,-7,-12
-9,-9,1,9,-4,-4,9,6,11,-6,-6,-12
-9,-6,4,8,-6,-1,10,9,19,-1,-4,-12
-8,-2,7,6,-7,2,11,13,29,4,-1,-10
-7,1,9,3,-7,4,11,17,40,12,4,-6
-4,5,10,0,-6,7,11,22,53,22,12,-1
0,9,11,-4,-5,10,11,28,68,33,21,5
4,14,10,-9,-3,12,10,33,84,47,32,13
10,19,9,-15,0,14,8,38,99,65,47,24
17,24,8,-21,5,16,4,40,107,85,64,37
25,31,7,-28,10,19,-3,37,107,106,84,52
34,41,8,-37,14,24,-13,28,97,128,104,68
42,51,9,-46,17,30,-24,16,81,150,125,84
50,60,10,-54,20,35,-35,3,61,171,144,99
54,65,11,-59,22,38,-42,-9,41,184,156,109
55,63,9,-59,23,36,-45,-17,21,180,154,109
51,54,3,-52,24,28,-43,-22,1,156,135,96
45,40,-3,-42,25,18,-38,-25,-19,120,105,75
38,27,-9,-32,24,9,-32,-26,-40,80,72,52
30,15,-12,-22,22,1,-27,-29,-62,39,42,31
21,6,-13,-13,18,-4,-22,-33,-85,-1,16,14
13,-2,-13,-5,14,-7,-18,-39,-107,-37,-5,1
5,-9,-13,2,9,-10,-15,-44,-123,-64,-22,-10
-2,-15,-13,8,6,-13,-12,-47,-133,-81,-34,-19
-7,-21,-13,14,3,-16,-9,-47,-136,-90,-42,-26
-11,-26,-13,18,1,-19,-6,-46,-135,-96,-48,-31
-15,-30,-13,22,0,-21,-3,-44,-132,-99,-52,-36
-19,-32,-11,25,-3,-22,-1,-41,-125,-99,-54,-40
-21,-33,-8,27,-6,-21,0,-38,-116,-95,-54,-42
-22,-31,-7,27,-7,-19,-1,-34,-104,-88,-52,-42
-23,-28,-5,25,-8,-17,-1,-30,-91,-81,-48,-42
-23,-24,-1,24,-10,-13,-1,-28,-78,-74,-44,-41
-23,-21,2,22,-13,-9,-2,-27,-67,-67,-39,-39
-22,-18,5,20,-13,-6,-2,-25,-56,-60,-35,-36
-21,-15,6,18,-13,-5,-3,-22,-46,-53,-30,-34
-19,-13,7,16,-12,-4,-3,-18,-36,-46,-26,-32
-17,-12,7,14,-11,-3,-2,-14,-26,-40,-22,-30
-15,-11,5,14,-9,-4,0,-10,-17,-34,-19,-29
-14,-12,3,13,-8,-5,1,-6,-10,-29,-16,-27
-14,-12,2,13,-7,-5,3,-3,-6,-25,-14,-26
-14,-12,1,13,-7,-5,4,-1,-3,-22,-11,-24
-14,-12,2,13,-7,-5,5,0,-2,-20,-9,-23
-13,-12,2,13,-7,-5,5,0,-1,-18,-8,-22
-11,-12,1,12,-6,-5,5,1,0,-17,-7,-22
-10,-13,0,12,-4,-6,5,2,0,-17,-6,-22
-10,-13,0,12,-4,-7,5,3,1,-16,-6,-22
-10,-12,-1,11,-4,-6,5,4,2,-16,-6,-22
-10,-12,-1,11,-4,-6,6,4,2,-16,-6,-23
-10,-11,-1,11,-4,-5,6,4,1,-15,-6,-23
-10,-11,0,11,-4,-5,6,4,1,-15,-6,-23
-10,-11,0,11,-5,-5,6,4,0,-14,-6,-23
-10,-12,0,11,-5,-5,6,4,-1,-14,-6,-23
-10,-12,0,11,-5,-6,6,4,-2,-13,-5,-22
-10,-12,0,11,-5,-6,6,5,-3,-12,-5,-22
-10,-12,0,11,-4,-6,6,5,-3,-11,-5,-22
-10,-11,0,11,-4,-6,7,6,-3,-10,-4,-23
-11,-11,0,11,-5,-6,7,6,-2,-10,-3,-24
-11,-11,0,11,-5,-5,8,5,-2,-10,-3,-25
-11,-11,0,11,-5,-5,8,5,-1,-10,-3,-26
-10,-11,0,11,-5,-5,8,5,-1,-10,-3,-27
-10,-10,1,10,-5,-5,8,5,0,-10,-4,-29
-10,-10,1,10,-5,-4,8,5,0,-11,-4,-30
-11,-10,1,10,-6,-4,8,5,0,-12,-4,-32
-11,-10,1,10,-6,-4,8,5,0,-12,-3,-33
-10,-10,1,10,-5,-4,8,5,0,-12,-3,-33
-10,-9,1,9,-5,-4,8,5,0,-12,-2,-33
-10,-9,2,9,-5,-4,8,5,0,-12,-1,-33
-10,-10,2,10,-6,-4,8,5,0,-12,0,-33
-10,-10,1,10,-6,-4,9,6,0,-11,1,-33
-10,-10,1,10,-5,-5,9,6,0,-10,2,-34
-10,-11,0,11,-5,-6,8,7,0,-10,2,-34
-10,-11,0,11,-5,-6,8,7,0,-10,2,-35
-11,-12,0,11,-5,-6,8,7,-1,-10,2,-36
-11,-12,0,12,-5,-6,8,7,-2,-11,1,-37
-12,-12,0,12,-5,-6,8,7,-3,-12,0,-38
-11,-12,0,11,-5,-6,7,7,-4,-12,0,-38
-11,-12,0,11,-5,-6,7,8,-5,-12,0,-38
-11,-11,1,11,-6,-5,7,8,-5,-12,0,-38
-11,-11,2,11,-6,-4,6,8,-6,-12,0,-38
-11,-10,2,11,-7,-4,6,8,-6,-11,0,-38
-12,-11,1,12,-7,-5,7,8,-6,-11,0,-39
-12,-11,1,12,-7,-5,7,8,-7,-11,0,-40
