leadI,leadII,leadIII,leadaVR,leadaVL,leadaVF,leadV1,leadV2,leadV3,leadV4,leadV5,leadV6
-2,-1,1,1,-1,0,-2,-5,-8,-2,-2,-3
-6,-3,3,4,-4,0,-4,-14,-20,-5,-6,-9
-8,-4,3,6,-5,-1,-5,-18,-26,-7,-7,-12
-7,-5,1,6,-4,-2,-5,-20,-30,-8,-7,-13
-4,-4,0,5,-2,-2,-6,-21,-32,-8,-7,-14
-1,-3,-1,2,0,-2,-6,-22,-33,-9,-7,-15
0,-1,-1,1,1,-1,-7,-23,-34,-10,-7,-15
0,-1,0,1,0,-1,-8,-23,-34,-11,-7,-16
-4,-2,1,3,-2,-1,-8,-23,-34,-11,-7,-16
-7,-4,2,6,-4,-1,-7,-22,-32,-11,-7,-15
-8,-6,2,7,-5,-2,-5,-20,-31,-11,-5,-14
-7,-6,1,7,-4,-2,-4,-18,-29,-10,-4,-13
-5,-5,0,5,-2,-2,-3,-17,-28,-10,-3,-13
-2,-3,0,3,0,-2,-3,-17,-27,-10,-2,-12
0,-2,0,1,0,-2,-4,-16,-26,-10,-1,-12
0,-1,0,1,0,-1,-4,-16,-26,-10,-1,-12
-3,-2,1,2,-1,-1,-4,-16,-25,-11,-1,-12
-6,-4,2,4,-3,-1,-4,-15,-24,-11,0,-12
-8,-5,2,6,-4,-2,-3,-14,-23,-10,1,-11
-8,-6,1,7,-4,-2,-2,-12,-21,-10,4,-10
-6,-6,0,6,-3,-2,-1,-11,-19,-9,6,-9
-3,-4,0,4,-1,-2,-1,-10,-18,-9,8,-7
0,-2,-1,2,0,-2,-1,-9,-17,-9,9,-6
1,-1,-1,0,1,-2,-1,-9,-16,-8,10,-5
0,-1,0,1,0,-2,-1,-8,-16,-8,11,-5
-3,-3,0,3,-1,-2,0,-7,-15,-7,12,-4
-5,-4,0,4,-2,-2,0,-6,-14,-7,14,-3
-6,-4,0,5,-3,-2,0,-5,-12,-6,16,-2
-5,-4,0,4,-2,-1,1,-4,-11,-6,18,-1
-2,-2,0,2,0,-1,1,-3,-10,-6,20,0
0,-1,0,1,0,-1,1,-3,-9,-6,21,0
1,-1,0,0,1,-1,0,-3,-9,-6,21,0
1,0,0,0,0,-1,0,-2,-8,-6,22,0
-1,-1,1,0,-1,0,0,-2,-8,-6,23,1
-3,-1,2,1,-2,0,0,-1,-7,-6,24,1
-4,-1,2,2,-2,0,1,-1,-5,-5,25,2
-3,-1,2,1,-2,0,1,0,-4,-5,27,2
-1,0,2,0,-1,0,2,0,-3,-5,28,3
0,1,2,-1,-1,1,2,0,-2,-5,29,3
1,1,2,-1,0,1,2,0,-2,-5,29,3
1,1,2,-1,0,1,2,0,-2,-6,29,3
0,1,3,0,-1,1,2,0,-2,-6,29,3
-2,0,3,0,-2,1,3,1,-2,-6,29,3
-3,0,3,1,-2,1,3,1,-1,-7,30,4
-3,0,3,1,-2,1,3,1,-1,-7,30,4
-2,0,3,1,-2,1,3,1,-1,-7,31,4
-1,0,3,0,-1,1,4,1,-1,-7,31,4
0,1,3,0,-1,1,4,1,0,-7,32,5
1,2,3,-1,-1,2,4,1,0,-7,32,5
0,2,3,-2,-2,2,4,2,0,-7,32,5
0,2,3,-2,-2,2,4,2,1,-7,33,6
-1,2,3,-2,-2,2,4,2,1,-7,34,5
-2,2,3,-1,-2,2,4,2,2,-8,35,5
-1,2,3,-1,-2,3,4,3,2,-8,36,5
0,3,3,-2,-1,3,5,3,3,-8,37,5
1,3,3,-2,-1,3,5,3,3,-8,38,5
2,3,3,-2,0,3,5,3,3,-8,39,5
2,3,3,-2,0,3,5,3,3,-9,40,5
0,3,3,-2,-1,3,5,3,4,-9,41,5
0,3,3,-1,-1,3,5,3,4,-9,42,5
-1,3,3,-1,-1,3,5,3,5,-9,43,5
-1,3,3,-1,-1,3,5,3,5,-9,44,5
0,3,3,-1,-1,3,5,3,5,-9,44,5
0,3,3,-1,-1,3,5,3,5,-9,45,5
0,3,3,-2,-1,3,5,4,6,-8,45,5
1,3,3,-2,-1,3,5,4,6,-8,45,6
0,3,3,-2,-1,3,5,4,7,-8,45,6
0,2,3,-2,-1,3,5,5,7,-8,45,6
0,2,3,-2,-1,3,5,5,7,-8,45,6
0,3,3,-2,-1,3,6,6,8,-8,45,6
1,3,3,-3,0,3,6,7,8,-8,45,6
2,3,3,-3,-1,3,6,7,9,-8,45,6
2,3,3,-3,-1,3,6,7,9,-8,45,6
2,4,3,-3,-1,3,6,8,10,-7,45,7
2,4,3,-3,-1,4,6,8,10,-7,45,7
1,4,3,-3,-1,4,6,8,11,-6,45,8
0,4,3,-3,-1,4,6,9,12,-5,46,8
0,5,3,-3,-1,4,7,9,12,-5,46,8
0,5,4,-3,-1,4,7,10,13,-4,47,8
1,5,4,-3,-1,4,7,10,14,-4,47,8
2,5,4,-4,-1,5,7,11,15,-3,48,8
3,6,4,-4,-1,5,8,12,16,-3,48,9
3,7,4,-4,-1,6,8,13,16,-2,49,9
2,6,4,-4,-1,6,9,13,17,-2,49,9
1,6,4,-4,-1,6,9,14,17,-1,49,9
1,7,5,-4,-1,6,10,14,18,-1,50,9
1,7,5,-5,-1,7,11,14,19,-1,50,9
1,8,5,-5,-1,7,10,14,19,-1,50,8
1,8,5,-5,-2,7,10,14,19,-1,50,8
1,7,5,-5,-2,7,9,14,19,-1,50,8
1,7,5,-5,-2,7,8,13,19,-1,50,8
1,7,5,-5,-1,6,6,13,18,-1,50,8
1,7,4,-5,-1,6,5,12,18,-1,50,7
2,6,3,-5,0,5,4,12,18,-2,49,7
2,5,2,-4,0,4,2,11,17,-2,49,6
2,4,1,-4,0,3,1,11,17,-3,48,5
2,3,0,-4,1,2,0,10,17,-3,48,4
3,3,0,-4,1,1,0,10,16,-3,47,4
3,3,0,-4,2,1,-1,9,16,-3,47,3
3,3,-1,-4,2,1,-1,9,16,-3,47,3
3,2,-1,-3,3,0,-2,8,15,-4,46,2
3,1,-2,-3,3,0,-2,7,15,-5,46,2
3,0,-4,-3,4,-1,-2,7,14,-5,46,1
4,0,-5,-3,5,-2,-2,7,14,-6,45,1
4,-1,-6,-3,6,-3,-1,7,13,-6,45,0
4,-2,-7,-2,6,-4,-1,7,13,-7,44,0
4,-3,-7,-1,6,-5,-1,6,12,-8,44,-1
3,-4,-8,0,6,-5,-1,6,11,-9,43,-2
3,-5,-8,0,6,-6,-1,6,11,-9,43,-2
3,-5,-8,0,6,-6,0,7,11,-9,43,-3
3,-4,-8,-1,6,-6,1,7,12,-8,43,-2
3,-3,-7,-1,6,-5,2,8,14,-7,44,-2
3,-2,-5,-1,5,-4,3,9,15,-6,44,-2
2,-1,-4,-1,4,-3,4,9,15,-5,45,-2
1,-1,-3,0,3,-2,4,10,16,-5,45,-2
1,-1,-3,0,2,-2,5,10,16,-5,45,-2
0,-1,-2,0,2,-2,5,10,16,-5,45,-2
0,-1,-2,0,1,-2,5,10,16,-5,45,-2
-1,-1,-1,0,1,-2,5,9,15,-5,45,-2
-2,-2,-1,1,0,-2,5,9,15,-6,44,-3
-2,-2,-1,2,0,-2,5,9,15,-6,44,-4
-3,-3,0,2,0,-2,5,8,14,-7,43,-4
-3,-3,0,2,0,-2,5,8,14,-8,43,-5
-2,-3,0,2,0,-2,5,8,14,-8,43,-5
-2,-3,0,2,-1,-2,6,8,13,-9,42,-5
-3,-3,0,3,-1,-2,6,8,13,-9,42,-6
-4,-4,0,3,-2,-2,6,8,13,-9,42,-6
-5,-4,0,4,-2,-2,6,8,13,-9,41,-6
-5,-4,0,4,-2,-2,6,7,13,-9,41,-6
-5,-4,0,4,-2,-2,6,7,13,-9,41,-7
-6,-4,0,5,-3,-2,7,7,12,-9,41,-7
-6,-4,1,5,-3,-2,7,7,12,-9,41,-7
-6,-4,1,5,-3,-2,7,7,12,-9,41,-7
-7,-4,1,5,-3,-2,8,7,13,-10,41,-7
-7,-5,1,5,-4,-2,8,7,13,-10,41,-7
-7,-5,1,6,-4,-2,8,7,13,-10,41,-7
-7,-5,1,6,-4,-2,8,7,13,-10,41,-7
-7,-5,1,5,-3,-2,8,8,13,-10,42,-7
-7,-6,2,5,-3,-2,8,8,13,-11,42,-7
-8,-6,2,6,-4,-3,8,7,13,-11,43,-8
-8,-7,2,7,-4,-3,8,7,13,-11,44,-8
-7,-7,1,7,-3,-3,9,8,13,-10,45,-8
-7,-7,0,7,-3,-4,9,8,14,-10,46,-8
-7,-8,0,7,-2,-4,9,9,14,-9,47,-7
-7,-9,-2,7,-2,-5,9,9,15,-9,48,-7
-7,-9,-3,7,-1,-6,10,9,15,-9,49,-6
-6,-10,-4,7,-1,-7,10,9,16,-8,50,-6
-6,-12,-6,8,0,-9,11,9,16,-8,51,-5
-6,-13,-7,8,1,-10,11,10,16,-7,51,-5
-5,-13,-8,8,2,-10,12,11,17,-5,52,-4
-5,-14,-9,8,2,-11,13,12,19,-4,52,-4
-5,-14,-9,8,3,-11,13,14,21,-2,53,-3
-4,-14,-10,8,4,-12,14,18,24,1,55,-2
-2,-14,-12,7,6,-13,14,23,29,6,58,1
0,-12,-13,5,8,-13,15,30,35,14,64,5
4,-10,-14,2,10,-13,16,37,43,22,70,10
8,-8,-16,-1,13,-12,16,46,52,32,79,17
14,-4,-18,-6,17,-11,16,57,62,44,89,25
23,0,-23,-12,24,-11,15,70,74,58,102,35
33,4,-29,-19,32,-12,13,84,87,74,117,47
46,9,-37,-28,42,-13,10,95,99,90,133,59
59,14,-45,-37,53,-15,5,101,108,105,149,71
74,18,-56,-47,66,-19,-3,102,112,116,163,82
91,21,-70,-57,81,-24,-12,101,112,125,177,92
110,25,-85,-68,98,-30,-23,97,108,131,190,103
129,29,-100,-80,115,-36,-35,90,101,134,200,112
144,32,-112,-89,129,-40,-47,77,89,129,201,114
154,34,-119,-95,137,-43,-59,59,70,112,190,109
156,35,-120,-96,139,-42,-68,37,47,87,169,96
152,37,-115,-95,134,-39,-75,12,23,60,145,82
144,40,-104,-93,125,-32,-82,-15,0,34,123,70
133,46,-88,-90,111,-21,-89,-46,-19,12,106,62
115,53,-62,-85,89,-5,-97,-82,-38,-7,91,57
87,60,-27,-75,58,16,-101,-126,-58,-29,74,50
54,65,10,-61,23,37,-102,-170,-81,-56,52,38
27,64,37,-47,-4,50,-101,-201,-100,-78,32,24
8,59,51,-35,-20,55,-98,-213,-109,-91,18,12
-4,53,58,-25,-30,56,-94,-212,-109,-95,10,3
-13,48,61,-18,-37,55,-90,-201,-103,-93,7,-2
-20,42,62,-12,-40,52,-82,-183,-93,-87,7,-7
-25,35,60,-6,-42,47,-71,-159,-79,-77,9,-10
-28,28,57,-1,-42,42,-57,-131,-62,-65,13,-12
-30,23,53,2,-42,38,-44,-106,-46,-53,18,-13
-29,19,49,4,-39,34,-33,-84,-32,-42,23,-12
-28,16,44,5,-35,30,-24,-65,-20,-33,29,-11
-26,13,38,5,-31,25,-16,-48,-10,-25,33,-9
-24,10,33,6,-27,21,-9,-34,-3,-19,37,-8
-22,8,28,6,-24,18,-4,-23,2,-15,39,-7
-20,5,24,6,-21,15,0,-15,6,-12,40,-7
-18,2,20,6,-18,11,3,-7,10,-10,41,-8
-16,-1,15,7,-15,7,6,-1,12,-8,42,-9
-15,-4,11,8,-13,3,9,5,15,-6,43,-10
-14,-7,7,9,-10,0,11,9,16,-5,44,-11
-13,-8,4,10,-8,-2,13,13,17,-4,44,-12
-12,-9,2,10,-6,-3,15,15,18,-3,45,-12
-10,-10,0,10,-4,-5,16,18,19,-3,45,-12
-9,-11,-2,10,-2,-6,17,20,20,-2,45,-13
-9,-12,-3,10,-2,-8,17,21,21,-2,45,-13
-9,-14,-4,11,-1,-9,18,23,21,-1,45,-13
-8,-14,-5,10,-1,-10,18,24,22,0,45,-13
-8,-14,-6,10,0,-10,19,26,23,0,46,-13
-8,-14,-6,10,0,-10,19,27,23,1,46,-13
-8,-14,-7,10,0,-10,19,27,24,1,46,-13
-8,-15,-7,11,0,-10,19,27,24,1,46,-13
-8,-15,-7,11,0,-11,19,27,23,1,45,-12
-7,-15,-8,10,1,-11,19,28,23,1,45,-12
-7,-15,-8,10,1,-12,19,29,24,1,45,-11
-6,-15,-8,9,1,-12,19,30,24,2,45,-11
-6,-15,-9,9,1,-12,19,30,25,2,45,-10
-6,-15,-9,9,1,-12,19,31,25,2,45,-10
-7,-15,-9,10,1,-12,19,31,25,2,46,-9
-7,-15,-9,10,1,-12,20,31,25,2,46,-9
-6,-14,-9,10,2,-12,20,31,26,2,47,-8
-6,-14,-9,9,2,-12,20,31,26,2,47,-8
-6,-14,-9,9,2,-12,21,32,26,3,47,-7
-6,-14,-9,9,2,-12,21,32,26,3,47,-7
-6,-14,-9,9,2,-12,21,33,27,4,47,-6
-6,-14,-9,9,2,-12,21,33,27,4,47,-6
-6,-14,-9,9,2,-12,21,34,27,4,48,-5
-5,-14,-9,9,3,-12,21,34,27,4,48,-5
-4,-14,-9,8,3,-12,21,35,28,4,49,-4
-3,-13,-9,7,3,-12,21,36,29,5,49,-4
-3,-13,-10,7,3,-12,22,37,29,5,50,-3
-3,-13,-10,7,3,-12,22,37,29,5,50,-3
-3,-13,-10,7,3,-12,22,38,30,5,50,-2
-2,-13,-10,7,4,-12,22,38,30,6,50,-2
-2,-13,-10,6,4,-12,22,39,31,6,50,-1
-3,-13,-10,7,4,-12,22,39,31,6,50,-1
-3,-13,-10,7,4,-12,22,40,31,6,50,-1
-3,-13,-10,7,4,-12,22,40,32,7,50,-1
-3,-13,-10,7,4,-12,22,41,32,8,51,0
-3,-13,-10,7,5,-12,22,42,33,8,51,0
-2,-13,-10,7,5,-12,23,43,34,9,51,1
-2,-13,-11,6,5,-12,23,44,35,9,51,1
-1,-13,-11,6,6,-12,23,45,35,9,51,1
-1,-13,-11,6,6,-12,23,46,36,10,51,2
-1,-12,-11,5,6,-12,24,47,37,10,50,2
0,-12,-11,5,6,-12,24,48,38,11,50,2
1,-11,-11,4,7,-12,25,50,39,12,50,3
1,-10,-11,4,7,-12,25,51,40,13,50,3
1,-10,-11,4,7,-12,25,52,40,13,50,3
1,-10,-11,4,7,-12,25,53,41,14,50,4
1,-10,-11,3,7,-11,25,55,42,15,51,4
1,-10,-11,3,7,-11,25,56,43,16,51,5
2,-9,-11,2,8,-11,25,57,44,17,52,6
3,-9,-11,2,8,-11,25,59,46,18,52,6
3,-8,-11,1,8,-11,25,61,47,19,52,7
3,-8,-11,1,8,-11,25,63,48,20,53,8
4,-7,-11,0,8,-10,26,65,50,21,54,9
5,-6,-11,0,8,-10,26,67,51,22,55,10
5,-6,-11,0,8,-9,26,68,52,23,55,11
5,-6,-11,-1,9,-9,26,70,53,24,56,12
6,-5,-11,-1,9,-9,26,72,55,26,56,13
6,-5,-11,-2,10,-9,26,74,56,27,57,15
7,-4,-11,-2,10,-9,26,76,58,29,58,16
7,-4,-11,-3,10,-9,26,77,59,30,59,18
8,-3,-11,-3,10,-8,26,79,61,31,60,19
9,-3,-11,-4,11,-8,26,80,62,33,61,21
10,-2,-11,-5,11,-7,26,82,64,34,62,22
11,-1,-11,-6,12,-6,26,83,65,35,63,24
11,0,-11,-7,12,-6,26,84,66,37,64,25
12,0,-12,-7,13,-6,25,85,67,38,65,27
13,1,-12,-8,13,-6,25,86,68,40,66,29
14,2,-12,-9,14,-6,25,87,69,41,68,31
15,3,-12,-10,14,-5,25,87,70,42,69,33
16,4,-12,-11,15,-5,24,87,70,43,70,34
17,4,-12,-12,15,-4,24,87,71,44,71,36
18,5,-12,-13,15,-4,24,87,71,44,71,37
18,6,-12,-13,16,-4,23,87,71,45,72,38
18,6,-12,-13,16,-4,22,86,71,45,72,39
18,6,-11,-13,15,-4,21,85,71,45,72,39
18,6,-11,-13,15,-4,21,84,71,45,73,40
18,6,-12,-13,16,-4,20,83,71,45,73,41
19,6,-12,-14,16,-4,19,81,70,45,73,42
19,6,-12,-14,16,-4,18,80,69,45,74,43
19,7,-12,-14,16,-4,17,78,69,45,74,44
20,7,-12,-15,17,-4,17,77,68,45,74,44
21,8,-13,-16,18,-4,16,75,67,45,75,45
22,8,-13,-16,18,-3,15,72,66,45,75,45
22,8,-13,-16,18,-3,14,69,65,44,75,46
21,8,-13,-16,18,-3,13,66,63,43,75,46
21,8,-13,-15,18,-3,11,63,61,42,75,46
21,8,-13,-15,18,-3,10,60,59,41,75,46
21,7,-13,-15,18,-3,10,57,57,40,74,46
21,6,-13,-15,18,-4,9,53,55,38,73,46
20,5,-13,-14,18,-4,8,50,52,37,72,45
20,5,-14,-13,18,-5,8,46,50,35,70,45
19,4,-14,-13,18,-5,7,43,47,33,69,44
19,4,-14,-12,18,-6,7,39,45,31,68,43
18,3,-14,-11,17,-6,6,36,43,29,67,41
16,2,-14,-10,16,-7,6,33,40,27,65,40
15,1,-14,-9,15,-7,6,30,38,25,64,38
14,0,-14,-8,15,-7,6,28,35,23,62,37
13,0,-13,-7,14,-7,6,25,33,21,60,35
12,-1,-13,-6,14,-7,6,23,31,19,58,34
11,-2,-13,-5,13,-8,6,21,29,18,56,32
10,-3,-13,-5,13,-8,6,19,27,16,55,31
9,-4,-13,-4,12,-9,6,17,26,15,53,29
8,-5,-12,-3,11,-9,6,15,24,13,52,28
7,-6,-12,-2,10,-9,6,14,22,12,50,26
6,-7,-12,-1,10,-9,6,13,21,10,49,25
5,-7,-12,0,9,-9,6,12,19,9,47,24
4,-8,-12,0,9,-10,6,11,18,7,46,23
4,-8,-12,1,8,-10,7,10,18,6,45,22
4,-8,-12,1,8,-10,7,9,17,6,45,21
4,-8,-11,1,8,-10,7,8,17,5,44,20
3,-8,-11,2,7,-10,8,7,16,5,44,20
2,-9,-11,3,7,-10,8,7,15,5,44,19
1,-9,-11,3,7,-10,8,7,14,4,43,19
1,-9,-11,3,7,-10,8,7,14,4,43,18
1,-9,-11,3,7,-10,8,6,13,3,42,18
1,-9,-11,3,7,-11,9,6,13,3,42,17
1,-10,-11,3,7,-11,9,6,13,3,41,17
1,-10,-11,3,6,-11,9,6,13,2,41,17
0,-11,-11,4,6,-11,9,5,13,2,40,16
0,-11,-10,4,6,-11,9,5,12,2,40,16
0,-11,-10,4,6,-11,9,5,12,2,40,16
0,-11,-10,4,6,-11,9,5,12,1,40,15
0,-11,-10,4,6,-11,9,5,12,1,39,15
0,-10,-10,4,5,-11,9,5,12,1,38,15
0,-10,-10,4,5,-11,9,5,12,1,38,14
0,-10,-10,4,5,-11,9,5,12,1,37,14
0,-10,-10,5,5,-11,9,5,12,0,37,14
0,-10,-10,5,5,-11,9,5,12,0,37,14
0,-10,-10,4,5,-10,9,5,12,0,37,14
0,-10,-9,4,5,-10,9,5,12,0,37,13
0,-10,-9,4,5,-9,10,5,12,0,36,13
0,-10,-8,4,5,-9,10,5,12,0,36,12
0,-9,-8,4,4,-9,10,5,12,0,36,12
-1,-9,-8,4,4,-9,10,4,12,0,36,12
-1,-9,-8,4,4,-9,10,4,12,0,36,12
-1,-9,-8,4,4,-9,10,4,12,0,36,12
-1,-9,-8,5,4,-9,10,5,12,0,36,12
-2,-10,-8,5,4,-9,10,5,12,0,36,12
-2,-10,-8,5,4,-9,10,5,12,0,35,12
-2,-10,-8,5,4,-9,10,6,12,0,35,12
-2,-10,-8,5,4,-9,10,6,12,0,35,12
-2,-10,-8,5,4,-9,10,6,12,0,35,12
-2,-10,-8,5,4,-9,10,6,12,0,35,12
-2,-11,-9,5,4,-10,10,7,13,0,35,12
-2,-11,-9,5,4,-10,10,7,13,1,35,12
-1,-11,-9,5,4,-10,10,7,13,1,35,12
-1,-10,-9,4,4,-10,10,7,13,1,35,12
-1,-10,-9,4,4,-10,10,7,13,1,35,12
-1,-10,-9,5,4,-10,10,7,13,1,35,12
-2,-11,-8,6,3,-10,10,7,13,0,34,12
-2,-10,-8,6,3,-9,10,7,13,0,34,12
-1,-9,-8,5,4,-9,10,7,13,0,34,12
-1,-9,-7,5,4,-8,10,7,13,0,34,12
-1,-8,-7,5,4,-8,10,7,13,0,34,12
-1,-8,-7,5,4,-8,10,7,13,0,34,12
-1,-8,-7,5,3,-8,9,7,13,0,34,12
-1,-8,-7,5,3,-8,9,7,13,0,34,12
-1,-8,-7,4,3,-8,9,7,13,0,34,13
-1,-8,-7,4,3,-7,9,7,13,0,34,13
-1,-8,-7,4,3,-7,9,7,13,0,34,13
0,-8,-7,4,3,-7,9,7,13,0,34,13
-1,-8,-7,4,3,-7,8,6,12,0,34,13
-2,-9,-6,5,2,-8,8,6,12,-1,34,13
-2,-9,-6,5,2,-8,8,6,12,-1,34,13
-2,-9,-6,5,3,-8,8,5,12,-1,34,13
-2,-8,-6,5,3,-8,8,5,11,-1,34,13
-1,-8,-6,5,3,-7,8,5,11,-1,34,13
-1,-7,-6,4,3,-7,8,5,11,-1,34,13
-1,-7,-6,4,3,-7,8,4,11,-1,34,13
-1,-8,-6,5,2,-7,8,4,11,-1,34,13
-1,-8,-6,5,2,-7,8,4,11,-1,34,12
-1,-7,-6,4,2,-6,8,4,11,-1,34,12
-1,-7,-6,4,2,-6,8,4,11,-1,33,11
-1,-7,-5,4,2,-6,8,3,10,-2,32,10
-1,-7,-5,4,2,-6,8,3,10,-2,31,10
-1,-7,-5,4,2,-6,8,3,9,-2,31,9
-1,-7,-5,4,2,-6,8,3,9,-2,30,9
-1,-7,-5,4,2,-6,8,3,9,-3,30,9
-1,-7,-5,4,2,-6,8,3,8,-3,29,8
-1,-7,-5,4,2,-6,8,3,8,-4,28,8
-1,-7,-5,4,3,-6,8,3,8,-4,28,7
0,-7,-5,4,3,-6,9,3,8,-4,27,7
-1,-7,-5,4,2,-6,9,2,8,-5,27,6
-2,-8,-5,5,2,-6,9,2,8,-5,26,6
-2,-8,-5,5,2,-6,9,2,8,-5,26,5
-2,-8,-5,5,2,-6,9,2,8,-5,26,5
-2,-8,-5,5,2,-6,9,2,8,-5,26,5
-2,-8,-6,5,2,-6,9,2,8,-5,26,5
-1,-7,-6,4,2,-6,9,2,8,-4,26,6
-1,-7,-6,4,2,-6,9,2,8,-4,26,6
0,-6,-6,3,2,-6,10,3,8,-3,27,7
0,-5,-5,2,2,-5,10,3,9,-3,27,7
0,-5,-5,2,3,-5,10,3,9,-2,27,8
1,-4,-5,1,3,-4,10,4,10,-2,27,8
1,-3,-4,0,3,-3,10,4,10,-1,28,9
2,-2,-4,0,3,-3,10,5,11,-1,28,9
2,-2,-4,0,3,-3,10,6,11,0,28,9
3,-1,-4,-1,4,-2,10,6,12,0,29,10
3,-1,-4,-2,4,-2,10,7,13,0,29,10
4,0,-3,-3,4,-1,11,7,13,1,30,10
4,0,-3,-3,4,-1,11,8,14,1,30,10
4,1,-3,-3,4,0,12,8,14,2,29,10
4,1,-2,-3,4,0,13,9,14,2,29,10
4,2,-2,-3,3,0,13,9,15,2,29,9
4,2,-2,-3,3,0,13,9,15,2,29,9
4,2,-1,-3,3,0,13,8,15,2,28,8
4,2,-1,-3,3,0,12,8,14,1,28,7
4,3,-1,-3,3,0,11,8,14,1,27,7
4,3,-2,-3,3,0,10,8,13,1,27,6
4,2,-2,-3,4,0,9,7,13,0,26,6
4,1,-3,-3,4,-1,7,6,12,0,25,5
4,0,-4,-3,5,-2,6,6,11,0,25,5
4,0,-5,-3,6,-3,4,5,11,0,25,4
5,-1,-7,-3,7,-4,3,5,10,0,25,3
5,-2,-8,-2,8,-6,2,4,10,0,25,3
5,-4,-9,-1,8,-7,1,4,9,-1,24,2
5,-5,-10,-1,8,-8,1,3,9,-1,24,2
6,-5,-10,0,9,-8,0,2,9,-1,24,1
6,-6,-11,0,9,-9,0,1,8,-1,23,1
6,-7,-12,0,9,-10,-1,0,7,-2,23,0
5,-8,-13,1,9,-11,-2,0,6,-3,22,-1
6,-9,-14,1,10,-11,-2,0,5,-4,21,-2
6,-9,-15,1,10,-12,-1,0,5,-4,20,-2
5,-10,-15,2,10,-13,-1,0,4,-5,19,-3
5,-11,-16,3,10,-14,0,0,4,-6,18,-4
5,-12,-16,3,11,-14,0,0,3,-6,18,-5
5,-12,-17,3,11,-15,1,0,3,-7,17,-5
5,-12,-17,3,11,-15,1,0,3,-7,17,-5
4,-12,-16,3,11,-14,2,0,3,-7,17,-5
4,-10,-14,2,10,-12,3,1,4,-6,17,-5
4,-9,-13,2,9,-11,4,1,5,-6,18,-4
2,-9,-11,3,7,-10,4,1,5,-5,18,-4
1,-10,-10,3,6,-10,5,1,6,-5,18,-3
1,-9,-10,3,6,-9,5,1,6,-4,18,-3
1,-9,-9,3,6,-9,5,1,6,-4,18,-3
1,-8,-9,3,5,-9,5,0,6,-5,17,-3
0,-9,-8,4,5,-9,5,0,5,-5,17,-3
-1,-9,-8,5,4,-9,5,0,5,-6,16,-3
-1,-9,-8,5,4,-9,6,-1,4,-6,16,-3
-2,-10,-8,6,4,-9,6,-1,4,-7,15,-3
-2,-11,-8,6,4,-10,6,-1,4,-8,14,-3
-3,-12,-8,7,4,-10,6,-1,3,-8,14,-3
-3,-13,-8,8,3,-11,6,-1,3,-9,14,-3
-4,-13,-8,8,3,-11,6,-1,3,-9,14,-3
-4,-13,-8,9,3,-11,7,-1,3,-9,14,-3
-5,-13,-8,9,2,-11,7,-1,3,-10,13,-3
-5,-13,-8,9,2,-11,7,-2,2,-10,13,-3
-5,-13,-8,9,2,-11,7,-2,2,-10,13,-3
-5,-13,-8,9,2,-11,7,-3,2,-10,12,-4
-5,-14,-7,9,2,-11,7,-3,2,-10,12,-4
-5,-14,-7,9,2,-11,8,-3,2,-9,12,-3
-5,-14,-7,9,2,-11,8,-2,2,-9,13,-3
-6,-15,-7,10,2,-11,9,-2,2,-9,13,-3
-6,-15,-8,10,2,-12,9,-2,2,-9,12,-3
-7,-16,-8,11,1,-12,10,-2,2,-9,12,-3
-7,-16,-8,12,1,-12,10,-2,2,-9,12,-3
-8,-17,-8,12,1,-13,10,-1,2,-9,12,-3
-8,-18,-9,13,1,-13,10,-1,2,-9,12,-3
-9,-18,-9,13,1,-13,10,-1,2,-10,12,-3
-9,-18,-9,13,0,-13,9,-1,2,-10,11,-3
-9,-18,-8,13,0,-13,9,-2,2,-10,11,-3
-9,-17,-8,13,0,-13,9,-2,2,-10,10,-3
-9,-17,-8,13,0,-13,9,-2,2,-10,10,-3
-8,-17,-8,13,1,-13,9,-1,2,-10,10,-3
-8,-17,-8,12,1,-13,9,-1,2,-10,10,-3
-9,-18,-8,13,0,-13,9,-1,1,-11,9,-4
-10,-18,-8,14,0,-13,9,-1,1,-11,7,-4
-10,-18,-8,14,-1,-13,10,-1,1,-11,7,-5
-10,-18,-8,14,-1,-13,10,0,2,-10,7,-5
-10,-18,-8,14,-1,-13,11,2,4,-9,8,-4
-9,-17,-8,13,0,-13,11,5,6,-6,10,-3
-7,-16,-8,12,0,-12,12,10,11,-1,13,-1
-4,-14,-8,9,2,-11,12,17,18,5,19,3
0,-11,-9,6,4,-10,13,25,25,13,26,9
4,-8,-10,2,8,-9,13,35,34,23,34,16
11,-4,-13,-3,12,-8,13,47,44,35,45,25
20,1,-18,-10,19,-8,12,61,57,50,59,35
32,6,-25,-19,29,-9,10,74,70,66,74,47
45,11,-34,-28,39,-10,6,83,81,81,90,58
58,16,-43,-37,51,-13,0,88,89,94,105,69
74,19,-54,-46,64,-17,-8,88,91,104,118,79
92,22,-69,-57,81,-23,-18,86,90,111,130,89
113,26,-85,-70,100,-29,-29,81,85,116,142,99
133,30,-102,-82,118,-35,-43,73,76,117,149,106
149,34,-115,-91,132,-40,-57,58,61,108,148,107
158,36,-122,-97,140,-42,-68,38,40,89,134,99
160,37,-123,-98,141,-42,-77,14,16,62,111,85
156,39,-116,-98,136,-37,-85,-12,-9,35,87,71
148,44,-104,-96,126,-30,-92,-40,-31,11,67,60
138,50,-87,-94,112,-18,-101,-72,-50,-9,52,54
120,58,-60,-89,90,-1,-110,-110,-69,-28,38,50
91,66,-23,-78,57,20,-115,-156,-90,-50,21,44
56,71,15,-63,20,42,-117,-203,-112,-75,1,34
27,70,43,-49,-8,56,-116,-234,-129,-96,-18,21
7,65,58,-36,-25,61,-113,-246,-136,-107,-31,9
-6,60,66,-26,-36,62,-109,-243,-135,-110,-38,1
-16,55,71,-19,-43,62,-102,-229,-127,-107,-40,-3
-22,49,72,-13,-47,60,-92,-207,-114,-99,-40,-7
-27,43,71,-8,-49,56,-78,-179,-98,-88,-37,-9
-30,37,68,-3,-49,52,-62,-149,-80,-75,-32,-10
-31,32,64,0,-48,47,-48,-122,-63,-62,-27,-10
-31,27,59,2,-45,43,-37,-99,-49,-51,-22,-8
-30,23,53,3,-41,38,-28,-80,-38,-42,-17,-7
-29,19,47,5,-38,33,-20,-64,-29,-35,-13,-6
-27,15,42,6,-34,28,-13,-51,-22,-30,-10,-6
-25,13,38,6,-31,25,-7,-40,-16,-26,-8,-5
-23,11,35,6,-29,23,-3,-31,-12,-23,-6,-5
-21,9,30,6,-25,20,1,-23,-8,-20,-5,-4
-19,6,26,6,-22,16,4,-16,-5,-18,-4,-5
-18,3,22,7,-20,12,7,-11,-2,-16,-3,-5
-17,1,18,8,-18,10,9,-7,-1,-14,-3,-6
-16,0,16,8,-16,8,10,-4,0,-13,-3,-7
-16,-2,13,8,-15,5,12,-1,0,-13,-3,-8
-15,-3,11,9,-13,3,13,1,1,-12,-3,-9
-15,-4,10,9,-12,2,14,3,1,-12,-3,-9
-14,-5,9,9,-11,1,15,6,2,-11,-3,-9
-13,-6,7,9,-10,0,15,8,4,-11,-2,-9
-13,-6,6,10,-9,0,16,9,5,-10,-2,-9
-13,-7,5,10,-9,-1,16,10,5,-10,-2,-9
-12,-8,4,10,-8,-2,16,11,6,-9,-2,-9
-11,-8,3,9,-7,-2,17,11,6,-9,-2,-9
-11,-8,3,9,-6,-3,17,12,6,-9,-2,-9
-11,-9,2,9,-6,-3,17,12,6,-8,-2,-9
-11,-9,2,9,-6,-3,17,12,7,-8,-2,-9
-11,-9,2,10,-6,-3,17,13,7,-8,-2,-9
-12,-9,2,10,-7,-4,17,14,7,-8,-3,-9
-12,-9,2,10,-7,-4,17,14,7,-8,-3,-9
-11,-9,1,10,-6,-4,17,14,7,-8,-2,-9
-11,-9,2,9,-6,-3,17,14,7,-8,-2,-9
-10,-8,2,9,-6,-3,17,14,7,-8,-2,-9
-10,-8,2,8,-6,-3,17,15,7,-8,-2,-9
-9,-8,2,8,-6,-3,17,16,8,-7,-2,-9
-9,-8,2,8,-5,-3,18,17,9,-7,-2,-8
-9,-8,1,8,-5,-4,18,18,9,-6,-2,-8
-9,-9,0,9,-4,-4,19,19,10,-6,-1,-7
-9,-10,-1,9,-4,-5,19,19,11,-5,-1,-6
-9,-11,-1,9,-4,-6,19,20,11,-5,-1,-6
-9,-12,-2,10,-4,-6,19,20,12,-5,-1,-6
-9,-13,-2,10,-3,-7,19,21,12,-5,0,-6
-10,-13,-2,11,-3,-7,19,21,12,-4,0,-6
-10,-13,-2,11,-3,-7,19,22,12,-4,0,-6
-9,-13,-2,11,-3,-7,19,23,13,-3,0,-5
-9,-13,-3,11,-2,-8,19,24,14,-3,0,-5
-9,-14,-4,11,-2,-9,20,25,15,-2,1,-4
-9,-14,-5,11,-2,-9,20,25,15,-2,1,-4
-9,-15,-5,11,-2,-9,20,26,16,-2,2,-3
-9,-15,-5,12,-2,-10,20,26,16,-1,2,-3
-9,-15,-5,12,-2,-10,21,27,17,0,3,-3
-8,-15,-6,12,-1,-10,21,28,18,0,3,-2
-8,-15,-6,12,0,-10,21,29,19,1,4,-2
-9,-15,-6,12,0,-10,21,30,20,2,4,-2
-9,-15,-6,12,0,-10,21,31,21,2,4,-2
-8,-15,-6,11,0,-10,22,32,21,2,4,-2
-8,-15,-7,11,0,-11,22,33,21,3,4,-1
-7,-16,-8,11,0,-12,22,34,22,3,4,-1
-7,-16,-7,11,0,-11,23,36,23,4,4,-1
-7,-14,-7,10,0,-10,23,37,24,4,3,-1
-7,-14,-7,10,0,-10,23,39,25,4,3,-1
-7,-15,-8,10,0,-11,23,41,26,5,4,-1
-7,-16,-8,11,0,-12,23,42,27,6,4,-1
-7,-16,-8,11,0,-12,23,44,28,7,4,-1
-6,-15,-8,10,1,-11,24,45,29,8,4,-1
-5,-14,-8,10,1,-11,24,47,30,9,5,0
-5,-14,-9,10,1,-11,24,48,32,11,5,0
-5,-14,-9,10,1,-11,24,49,33,12,5,0
-5,-13,-8,9,1,-10,24,51,35,13,6,0
-4,-12,-7,8,1,-10,24,53,37,15,7,1
-4,-12,-8,8,2,-10,24,56,38,16,8,2
-3,-12,-8,7,2,-10,24,58,40,17,9,3
-2,-12,-9,7,3,-11,24,60,41,18,10,5
-2,-13,-10,7,4,-12,25,62,43,20,11,6
-1,-13,-12,7,6,-13,26,64,45,22,12,8
0,-13,-12,6,6,-13,26,66,47,24,13,9
0,-11,-12,5,7,-11,26,67,48,25,14,10
1,-10,-11,4,7,-10,25,69,50,27,15,12
2,-9,-11,3,8,-10,25,70,52,28,17,13
3,-8,-11,2,8,-10,25,72,53,30,18,15
3,-9,-12,2,8,-10,25,73,55,31,20,16
4,-9,-13,2,8,-11,25,74,56,33,21,17
5,-9,-13,1,9,-11,25,75,58,35,23,18
6,-8,-14,1,10,-11,25,76,59,37,24,19
6,-8,-15,0,11,-12,25,77,60,38,26,20
7,-8,-16,0,12,-12,25,78,61,39,27,20
8,-8,-16,0,12,-12,24,78,61,39,28,20
8,-8,-17,-1,13,-12,24,78,62,40,29,20
9,-8,-17,-1,13,-13,23,78,62,41,30,20
9,-8,-18,-1,13,-13,23,78,62,42,31,20
9,-8,-18,-1,14,-13,22,77,62,43,32,20
10,-7,-18,-2,14,-13,21,76,62,44,33,20
11,-7,-18,-2,15,-13,21,75,62,44,34,20
12,-8,-19,-3,16,-14,20,74,62,45,35,21
12,-8,-20,-3,17,-14,20,74,62,45,36,22
13,-8,-21,-3,17,-14,19,73,62,45,37,24
13,-7,-21,-3,17,-14,19,71,62,45,37,25
14,-6,-20,-4,17,-13,18,69,61,45,37,25
15,-5,-20,-4,17,-13,16,67,59,45,37,26
15,-5,-20,-5,17,-13,15,63,58,44,37,26
14,-5,-20,-5,17,-13,13,60,56,44,37,26
14,-6,-21,-4,18,-13,12,57,55,43,37,27
15,-6,-21,-4,18,-14,12,54,53,43,37,27
15,-7,-22,-4,18,-14,11,51,51,42,36,27
14,-8,-23,-3,19,-16,11,48,50,40,36,27
14,-10,-25,-2,19,-18,10,46,48,39,36,26
14,-12,-26,-1,20,-19,10,43,46,38,35,25
13,-13,-26,0,20,-20,9,39,44,36,34,24
13,-14,-27,0,20,-21,9,36,41,34,33,22
13,-14,-27,0,20,-21,9,33,39,32,32,21
12,-15,-26,1,19,-21,9,30,36,30,30,19
11,-15,-26,1,19,-21,8,28,34,28,28,17
10,-15,-26,2,18,-21,8,25,32,26,26,15
9,-17,-26,3,18,-22,8,23,30,24,24,13
8,-19,-27,5,17,-23,9,21,28,22,23,12
7,-21,-27,6,17,-24,9,19,26,20,21,10
5,-23,-28,8,17,-26,9,17,23,18,20,8
4,-24,-28,9,16,-27,9,15,21,16,18,7
2,-26,-28,11,16,-27,10,13,20,14,16,5
1,-27,-28,12,15,-28,10,12,18,13,15,4
0,-28,-28,13,15,-28,10,11,17,11,13,4
0,-28,-28,14,14,-28,10,10,15,10,12,3
-1,-28,-27,14,13,-28,11,9,14,8,12,2
-1,-28,-27,14,13,-28,11,8,12,7,11,1
-1,-27,-26,14,12,-27,11,6,11,5,10,0
-1,-26,-24,13,11,-25,10,5,9,4,9,-1
-2,-26,-23,14,10,-24,10,3,8,2,7,-2
-3,-26,-22,14,10,-24,10,2,7,1,6,-3
-4,-26,-22,14,10,-24,10,2,6,0,5,-3
-4,-25,-22,14,10,-24,10,1,6,-1,4,-4
-4,-25,-21,14,9,-24,10,1,6,-2,4,-4
-5,-25,-20,15,7,-23,10,0,5,-2,3,-4
-6,-25,-19,15,6,-22,9,0,4,-3,2,-5
-6,-25,-17,15,6,-21,9,-1,4,-4,1,-5
-6,-24,-16,15,5,-20,9,-2,3,-4,0,-5
-6,-23,-16,15,5,-20,9,-2,3,-5,0,-5
-6,-23,-15,15,4,-19,9,-2,3,-5,-1,-6
-7,-22,-15,15,4,-19,8,-2,3,-6,-1,-6
-7,-21,-14,15,3,-18,8,-2,2,-6,-2,-7
-7,-21,-13,15,2,-18,9,-2,2,-6,-2,-7
-7,-20,-13,14,2,-18,9,-2,2,-6,-2,-7
-7,-20,-13,14,3,-17,9,-2,2,-6,-2,-7
-6,-20,-13,13,3,-18,10,-2,2,-6,-2,-7
-6,-21,-15,14,4,-19,10,-1,2,-6,-3,-6
-7,-22,-15,14,4,-19,10,-1,2,-7,-3,-6
-8,-22,-14,14,3,-18,10,-1,2,-8,-5,-7
-8,-20,-12,14,2,-17,10,-2,2,-9,-6,-8
-8,-19,-11,14,2,-16,10,-2,1,-9,-7,-8
-8,-19,-10,13,1,-15,10,-2,1,-9,-7,-9
-8,-18,-9,13,0,-14,10,-2,0,-9,-8,-9
-8,-16,-7,12,0,-12,9,-3,0,-10,-8,-10
-8,-14,-5,11,-1,-10,9,-4,0,-10,-9,-11
-8,-13,-4,10,-1,-9,8,-4,0,-11,-10,-11
-8,-12,-3,9,-2,-8,8,-4,0,-11,-10,-12
-8,-11,-2,9,-2,-7,8,-4,0,-11,-11,-12
-8,-10,-2,9,-3,-6,8,-4,0,-11,-12,-13
-8,-10,-2,9,-3,-7,8,-4,0,-11,-12,-13
-8,-11,-2,10,-3,-7,8,-4,0,-11,-12,-13
-8,-11,-1,10,-3,-7,8,-4,0,-11,-13,-13
-9,-10,-1,9,-3,-6,7,-4,-1,-12,-13,-13
-9,-9,0,9,-4,-5,7,-4,-1,-12,-14,-13
-8,-9,0,8,-3,-5,7,-3,0,-12,-14,-13
-8,-9,-1,8,-3,-5,7,-3,0,-12,-14,-12
-9,-10,0,9,-4,-5,7,-3,0,-12,-14,-12
-9,-10,0,9,-4,-6,7,-2,0,-11,-14,-12
-9,-11,-1,10,-4,-7,7,-2,1,-11,-13,-11
-9,-11,-1,10,-4,-7,7,-2,1,-10,-13,-10
-9,-11,-1,10,-4,-7,7,-2,1,-10,-12,-10
-9,-11,-2,10,-4,-7,7,-1,1,-10,-12,-9
-9,-12,-3,11,-4,-8,7,-1,1,-10,-12,-9
-9,-12,-3,11,-3,-8,8,-1,1,-10,-12,-8
-8,-13,-4,11,-3,-9,8,-1,1,-10,-12,-8
-9,-13,-4,11,-2,-9,9,-1,1,-10,-12,-8
-9,-14,-4,12,-2,-9,9,-1,1,-10,-11,-8
-10,-14,-4,12,-2,-9,9,-1,1,-10,-11,-7
-10,-15,-5,12,-2,-10,9,-1,1,-10,-11,-7
-10,-15,-5,12,-2,-10,9,-1,1,-10,-11,-7
-10,-16,-5,13,-2,-11,9,-1,1,-10,-11,-7
-10,-16,-6,13,-2,-11,9,-1,1,-10,-11,-7
-10,-17,-6,13,-2,-12,9,0,1,-10,-11,-7
-10,-17,-6,13,-2,-12,9,0,1,-9,-10,-7
-10,-17,-7,13,-1,-12,10,0,1,-9,-10,-7
-10,-17,-7,13,-1,-12,10,0,1,-9,-10,-7
-9,-17,-8,13,-1,-13,10,0,2,-9,-10,-6
-9,-17,-8,13,-1,-13,10,0,2,-9,-9,-6
-9,-17,-8,13,-1,-13,10,0,2,-9,-9,-6
-9,-17,-8,13,0,-13,10,0,1,-9,-10,-6
-9,-17,-8,13,0,-13,10,0,1,-9,-11,-6
-8,-17,-8,13,0,-13,10,0,0,-10,-11,-7
-8,-17,-8,13,0,-13,11,0,0,-10,-12,-7
-9,-17,-7,13,0,-13,10,-1,0,-10,-13,-7
-9,-17,-7,13,-1,-13,10,-1,0,-10,-13,-8
-9,-17,-8,13,-1,-13,10,-1,0,-10,-13,-8
-9,-17,-8,13,0,-13,11,-1,0,-10,-12,-8
-9,-17,-8,13,0,-13,11,0,0,-10,-12,-8
-10,-18,-8,14,-1,-13,11,0,0,-10,-12,-8
-10,-17,-7,13,-1,-13,11,-1,0,-10,-12,-7
-9,-16,-7,12,-1,-12,10,-1,0,-10,-11,-7
-8,-15,-7,12,-1,-11,10,-1,0,-10,-11,-6
-8,-15,-7,11,-1,-11,10,-1,0,-10,-11,-6
-8,-14,-6,11,-1,-11,10,-1,0,-10,-11,-6
-8,-14,-6,11,-1,-11,10,-1,0,-10,-11,-6
-8,-14,-6,10,-1,-11,10,-1,0,-10,-12,-6
-7,-14,-6,10,-1,-11,10,-1,0,-10,-12,-6
-7,-14,-6,10,0,-11,10,-1,0,-9,-12,-5
-7,-14,-6,9,0,-10,11,-1,0,-9,-12,-5
-7,-13,-5,9,-1,-9,11,-1,0,-9,-12,-5
-7,-12,-5,9,-1,-8,10,-1,0,-9,-12,-5
-7,-11,-4,9,-1,-8,10,0,1,-9,-12,-5
-7,-11,-4,9,-1,-7,10,0,1,-9,-12,-4
-6,-10,-3,8,-1,-7,10,0,1,-9,-12,-4
-6,-9,-3,7,-1,-6,10,0,1,-8,-12,-4
-5,-8,-2,6,-1,-6,10,1,2,-8,-11,-3
-5,-8,-2,6,-1,-5,10,1,2,-7,-11,-2
-4,-7,-2,5,-1,-5,10,2,3,-7,-10,-1
-3,-6,-2,4,-1,-4,10,2,4,-6,-10,0
-3,-5,-2,4,0,-4,10,3,5,-5,-9,0
-3,-5,-2,4,-1,-4,11,4,5,-5,-9,0
-4,-5,-1,4,-1,-4,12,4,5,-5,-9,0
-4,-5,-1,4,-2,-3,13,5,5,-5,-9,0
-4,-5,0,4,-2,-3,13,5,5,-5,-9,0
-4,-5,0,4,-2,-3,13,5,5,-5,-9,-1
-4,-5,0,5,-2,-3,12,4,5,-5,-10,-2
-4,-4,0,4,-2,-2,11,4,5,-5,-11,-2
-3,-4,0,3,-2,-2,10,3,5,-5,-11,-2
-3,-4,0,3,-1,-2,8,3,5,-6,-11,-3
-4,-4,0,4,-1,-3,7,2,4,-6,-12,-3
-4,-5,-1,4,-1,-4,5,1,3,-7,-12,-4
-4,-5,-2,4,-1,-4,4,0,2,-7,-13,-4
-3,-6,-3,4,0,-5,3,0,2,-7,-13,-4
-3,-7,-3,4,0,-5,1,0,1,-8,-14,-5
-3,-7,-4,5,0,-5,0,-1,1,-8,-14,-5
-3,-8,-4,5,0,-6,0,-1,0,-9,-15,-6
-3,-8,-4,5,0,-6,0,-2,0,-9,-15,-6
-3,-8,-5,5,1,-7,-1,-3,-1,-9,-16,-6
-3,-8,-5,5,1,-8,-2,-4,-2,-10,-16,-6
-4,-10,-6,6,1,-9,-2,-5,-3,-11,-17,-7
-4,-11,-6,7,1,-9,-3,-6,-4,-11,-17,-8
-3,-11,-7,7,2,-10,-3,-6,-5,-12,-18,-8
-3,-12,-8,7,2,-10,-2,-6,-5,-12,-18,-9
-4,-12,-8,8,2,-11,-2,-6,-6,-13,-19,-9
-4,-13,-9,8,3,-11,-2,-6,-6,-13,-20,-10
-4,-13,-9,8,3,-11,-2,-6,-7,-14,-20,-10
-3,-13,-9,8,3,-11,-1,-6,-7,-14,-20,-11
-3,-12,-9,7,3,-11,0,-5,-6,-13,-20,-11
-3,-11,-7,7,2,-10,1,-5,-6,-13,-20,-11
-4,-10,-5,7,1,-8,1,-4,-5,-12,-19,-11
-6,-10,-3,8,-1,-7,2,-4,-4,-12,-19,-11
-7,-10,-2,8,-2,-6,2,-4,-4,-12,-20,-11
-7,-9,-1,8,-3,-5,2,-4,-4,-12,-20,-10
-7,-8,0,7,-4,-4,3,-4,-3,-12,-20,-10
-7,-7,0,7,-4,-4,3,-4,-3,-12,-20,-10
-7,-7,1,6,-4,-3,3,-5,-4,-12,-20,-10
-7,-6,1,6,-4,-3,3,-5,-5,-12,-21,-11
-8,-6,2,7,-5,-2,3,-6,-6,-13,-22,-12
-8,-7,2,7,-5,-2,3,-6,-7,-14,-23,-12
-9,-7,3,8,-6,-2,3,-7,-7,-14,-24,-13
-10,-7,3,8,-6,-2,3,-7,-7,-15,-24,-13
-10,-7,4,8,-7,-1,2,-8,-8,-15,-25,-14
-11,-6,5,8,-8,-1,2,-8,-8,-16,-25,-14
-11,-5,6,7,-9,0,1,-9,-8,-16,-26,-15
-12,-3,8,7,-10,2,1,-10,-9,-17,-27,-16
-12,-1,11,6,-11,4,1,-11,-10,-18,-28,-18
-12,0,13,6,-12,6,1,-11,-11,-19,-29,-19
-12,2,15,5,-14,8,0,-12,-12,-20,-30,-20
-13,4,17,4,-15,10,0,-12,-13,-21,-31,-21
-13,6,19,3,-16,12,0,-13,-14,-21,-32,-21
-13,7,21,3,-17,13,-1,-13,-14,-22,-32,-22
-14,7,22,3,-18,14,-1,-14,-15,-22,-33,-23
-15,7,23,3,-19,14,-2,-14,-15,-23,-33,-24
-15,8,24,3,-19,15,-2,-15,-16,-23,-34,-24
-15,9,25,3,-20,16,-2,-15,-16,-24,-34,-25
-15,9,25,3,-20,17,-2,-16,-16,-24,-35,-25
-15,10,26,2,-20,18,-2,-16,-16,-24,-35,-25
-15,10,26,2,-20,18,-2,-16,-16,-24,-35,-25
-15,11,26,1,-21,18,-2,-16,-16,-24,-35,-25
-15,11,26,1,-21,18,-2,-16,-16,-24,-35,-25
-15,11,26,1,-21,18,-2,-16,-16,-24,-34,-25
-15,11,26,1,-21,18,-2,-16,-16,-24,-34,-25
-14,11,26,1,-20,19,-2,-15,-16,-24,-34,-25
-14,12,26,0,-20,19,-2,-15,-16,-24,-34,-25
-13,12,26,0,-20,19,-2,-15,-16,-24,-34,-25
-13,12,26,0,-20,19,-2,-15,-16,-24,-34,-26
-13,12,26,0,-20,18,-1,-15,-16,-24,-33,-26
-13,12,26,0,-20,18,-1,-13,-14,-22,-32,-25
-13,12,25,0,-20,18,0,-12,-12,-20,-31,-25
-13,12,25,0,-19,18,0,-9,-9,-17,-28,-24
-11,13,24,-1,-18,18,0,-4,-5,-12,-25,-21
-8,15,24,-3,-17,19,0,2,1,-5,-19,-17
-5,17,23,-6,-14,19,1,10,9,3,-12,-12
0,21,22,-11,-11,20,1,18,18,14,-3,-5
7,25,19,-16,-6,21,2,29,29,26,8,4
15,30,15,-23,0,21,1,42,41,40,22,15
26,34,9,-30,8,21,0,55,54,57,38,27
38,38,0,-38,18,19,-3,66,68,74,55,41
51,42,-9,-47,30,17,-8,73,78,90,72,54
66,45,-20,-56,43,13,-15,76,83,103,87,66
83,47,-34,-66,58,7,-23,75,84,112,101,77
102,50,-50,-77,76,0,-34,73,81,119,115,89
121,54,-66,-88,93,-6,-45,67,75,123,126,99
136,57,-79,-97,107,-11,-57,55,64,119,129,103
145,58,-87,-102,116,-15,-69,37,46,104,119,98
147,58,-89,-103,118,-16,-78,15,23,79,99,86
143,58,-85,-101,114,-14,-85,-9,-1,51,74,72
136,60,-75,-98,105,-8,-91,-35,-24,25,51,59
125,65,-60,-96,92,2,-99,-65,-44,2,33,51
108,73,-35,-91,72,18,-106,-101,-63,-17,17,45
82,81,0,-82,41,40,-110,-143,-84,-41,-1,37
50,86,37,-69,7,60,-110,-188,-108,-68,-24,25
22,85,64,-54,-21,74,-109,-220,-128,-92,-45,10
2,79,78,-41,-38,78,-106,-233,-138,-106,-61,-4
-11,73,84,-31,-48,78,-102,-233,-139,-111,-69,-14
-20,67,88,-23,-54,77,-98,-223,-134,-109,-72,-20
-26,61,88,-17,-57,74,-91,-206,-123,-103,-72,-25
-31,54,86,-12,-58,69,-79,-182,-109,-93,-71,-29
-34,48,83,-7,-58,64,-66,-155,-92,-81,-67,-31
-35,43,79,-5,-57,60,-53,-129,-76,-68,-62,-31
-34,39,74,-3,-54,56,-43,-107,-61,-57,-56,-31
-32,36,68,-2,-51,52,-34,-88,-49,-47,-50,-30
-30,33,62,-1,-47,47,-26,-72,-40,-39,-46,-28
-28,30,57,-1,-43,43,-19,-58,-32,-32,-42,-27
-26,27,52,-1,-39,39,-14,-47,-26,-28,-40,-27
-23,25,49,-1,-36,36,-10,-38,-21,-25,-39,-27
-21,23,45,-1,-33,33,-6,-31,-18,-23,-38,-27
-20,20,41,-1,-31,29,-3,-24,-15,-21,-38,-28
-19,17,37,0,-28,26,-1,-19,-13,-19,-37,-30
-18,14,33,1,-26,23,1,-14,-11,-18,-37,-31
-18,12,30,2,-24,20,2,-11,-10,-17,-37,-32
-17,11,27,2,-22,19,4,-9,-10,-16,-37,-33
-16,10,25,2,-21,17,5,-6,-9,-15,-37,-33
-15,9,23,2,-19,15,5,-4,-8,-15,-36,-34
-14,8,22,2,-18,14,6,-2,-7,-14,-36,-34
-13,7,21,2,-17,13,6,0,-6,-13,-36,-34
-13,6,20,3,-17,12,6,1,-5,-12,-36,-34
-13,5,19,3,-16,11,7,2,-5,-11,-35,-34
-13,4,18,3,-16,10,7,3,-4,-11,-35,-34
-13,3,17,4,-15,9,7,3,-4,-10,-35,-34
-13,3,16,4,-15,9,7,4,-4,-10,-34,-34
-13,3,16,4,-14,8,7,4,-4,-10,-34,-34
-12,2,15,4,-14,8,7,5,-4,-10,-34,-33
-12,1,15,5,-14,7,8,6,-3,-10,-33,-33
-12,1,14,5,-14,7,8,7,-3,-9,-33,-32
-13,0,14,5,-14,6,8,7,-2,-9,-33,-32
-13,0,13,5,-13,6,8,7,-2,-9,-33,-32
-13,0,13,5,-13,6,9,7,-2,-8,-32,-31
-12,0,13,5,-12,6,9,7,-1,-8,-32,-31
-12,0,12,5,-12,6,9,7,-1,-8,-31,-30
-11,0,12,5,-11,5,9,7,-1,-8,-31,-30
-11,0,11,5,-11,4,9,8,0,-8,-30,-29
-11,-1,11,5,-11,4,9,9,0,-7,-29,-28
-11,-1,10,5,-11,4,9,10,0,-7,-28,-27
-10,-1,10,5,-11,4,10,11,1,-6,-27,-26
-10,-1,9,4,-10,4,10,12,1,-6,-27,-26
-10,-1,9,5,-10,3,10,12,2,-5,-26,-26
-10,-2,8,6,-9,2,10,13,2,-5,-26,-25
-10,-3,8,6,-9,1,10,13,3,-5,-25,-25
-10,-3,7,6,-8,0,10,14,3,-5,-25,-24
-9,-4,6,6,-8,0,10,15,4,-4,-24,-23
-9,-4,6,6,-7,0,11,16,5,-4,-24,-22
-9,-4,5,6,-7,0,11,17,5,-3,-23,-22
-9,-4,4,6,-7,0,12,18,6,-3,-23,-21
-8,-4,4,6,-7,0,12,19,6,-2,-23,-21
-8,-4,3,6,-6,-1,12,19,7,-2,-23,-20
-7,-4,3,6,-5,-1,12,20,8,-1,-23,-20
-6,-4,3,5,-5,-1,12,21,9,-1,-22,-19
-6,-4,2,5,-5,-1,12,22,9,0,-22,-19
-6,-5,2,5,-5,-1,13,23,10,0,-22,-19
-6,-5,2,5,-5,-1,13,24,11,0,-22,-18
-5,-4,2,4,-4,-1,14,25,11,1,-22,-18
-5,-4,2,4,-4,-1,14,26,12,2,-21,-17
-4,-4,2,4,-4,-1,14,27,13,2,-21,-17
-4,-4,2,4,-4,-1,14,28,13,3,-21,-16
-4,-4,1,4,-4,-1,14,29,14,4,-21,-16
-4,-4,1,3,-3,-1,14,30,15,5,-20,-15
-3,-3,1,3,-3,-1,15,32,17,6,-20,-15
-3,-3,1,2,-2,-1,15,34,18,7,-19,-14
-3,-3,1,2,-2,-1,15,35,19,8,-18,-14
-2,-2,0,1,-2,-1,15,37,20,9,-17,-13
-2,-2,0,1,-1,-1,15,38,22,10,-16,-12
-1,-2,0,1,-1,-2,15,40,23,11,-16,-11
-1,-2,0,1,0,-2,15,42,24,12,-15,-10
-1,-2,-1,1,0,-2,16,44,25,13,-14,-9
0,-2,-1,1,0,-2,16,46,27,14,-13,-7
0,-2,-1,0,1,-2,17,48,28,15,-12,-6
1,-1,-2,0,1,-2,17,51,30,17,-11,-5
2,-1,-2,0,2,-2,17,53,32,19,-10,-4
2,0,-2,-1,2,-2,17,54,34,20,-9,-3
3,0,-2,-1,3,-2,17,56,35,22,-7,-1
4,1,-3,-2,3,-2,17,58,37,23,-6,0
5,1,-3,-3,4,-1,18,59,38,24,-5,2
6,2,-3,-4,4,-1,18,61,40,26,-4,4
7,3,-3,-5,5,0,18,63,41,27,-2,6
7,3,-3,-6,5,0,18,65,43,29,-1,7
8,4,-3,-6,5,0,18,66,44,31,0,9
8,5,-3,-7,5,0,18,67,45,32,1,10
9,6,-3,-8,6,1,17,68,46,33,2,12
11,7,-3,-9,7,1,17,69,47,35,3,14
12,9,-2,-11,7,2,16,69,48,36,4,16
12,9,-2,-12,7,3,16,70,49,36,5,17
13,10,-2,-13,7,3,15,70,50,37,6,19
13,11,-2,-13,7,4,15,70,50,38,7,20
14,11,-2,-13,8,4,14,70,51,39,8,22
15,12,-2,-14,8,5,14,70,51,40,9,23
15,13,-2,-14,8,5,13,69,51,40,10,24
16,13,-2,-14,8,5,12,68,51,40,11,25
16,13,-2,-14,8,5,11,67,51,40,11,26
16,13,-2,-15,9,5,10,66,50,40,12,27
16,13,-2,-15,9,5,9,65,50,40,13,27
17,14,-2,-16,9,5,9,64,50,40,14,28
17,14,-2,-16,9,5,8,62,49,40,14,28
17,14,-2,-16,10,5,7,60,48,40,15,29
18,14,-2,-16,10,5,6,58,47,40,15,29
18,15,-2,-17,11,5,5,55,46,40,16,30
19,15,-2,-17,11,5,4,53,44,39,16,30
18,14,-2,-17,11,5,3,50,43,38,16,31
18,14,-2,-17,10,5,2,47,41,37,16,31
18,14,-2,-16,10,5,1,44,39,35,16,31
18,14,-2,-16,10,5,0,41,37,34,15,31
18,14,-2,-16,10,5,0,37,34,32,15,31
17,13,-2,-15,10,4,0,34,32,31,14,30
17,13,-3,-15,10,4,-1,30,30,29,13,29
16,12,-3,-14,9,4,-1,27,27,27,12,28
14,11,-3,-13,8,3,-2,23,25,25,10,27
13,10,-3,-12,8,3,-2,20,22,22,9,26
12,9,-2,-11,7,3,-3,17,20,20,7,24
12,10,-1,-11,6,4,-3,14,17,17,5,23
11,10,0,-11,5,5,-4,12,15,15,4,21
10,10,1,-10,4,5,-4,9,12,13,2,19
8,9,2,-8,3,5,-5,6,10,11,0,18
7,8,2,-7,2,4,-5,4,8,9,-1,17
6,6,2,-6,2,4,-5,2,6,8,-2,16
5,5,1,-5,1,3,-4,1,4,6,-3,15
4,4,1,-4,1,2,-3,0,3,5,-3,14
3,3,0,-3,1,1,-2,-1,2,4,-4,14
3,1,0,-2,1,0,-2,-2,1,3,-4,13
1,0,-1,0,0,-1,-1,-3,0,2,-5,12
0,-2,-1,1,0,-3,-1,-4,0,1,-6,11
0,-3,-2,2,0,-3,0,-5,-1,0,-7,11
0,-4,-2,2,1,-4,0,-5,-2,0,-7,10
-1,-5,-3,3,0,-4,0,-6,-2,-1,-7,10
-2,-6,-3,4,0,-5,0,-6,-3,-1,-8,9
-3,-7,-3,4,0,-6,0,-6,-3,-2,-8,9
-3,-7,-4,5,0,-6,1,-6,-4,-2,-8,9
-3,-8,-4,5,0,-6,1,-7,-4,-3,-8,9
-3,-9,-4,6,0,-7,2,-7,-5,-3,-9,8
-4,-9,-4,6,0,-7,2,-7,-5,-4,-9,8
-4,-9,-4,6,0,-7,2,-8,-6,-4,-10,8
-4,-9,-4,7,0,-7,2,-8,-6,-4,-10,8
-5,-10,-4,7,0,-8,2,-8,-6,-4,-11,8
-5,-10,-4,7,0,-8,2,-8,-6,-5,-11,8
-5,-10,-4,7,0,-8,2,-8,-6,-5,-11,8
-4,-10,-4,7,0,-8,3,-7,-5,-5,-11,9
-4,-10,-5,7,0,-8,3,-7,-5,-5,-11,9
-4,-10,-5,7,0,-8,4,-7,-5,-5,-11,9
-4,-11,-6,7,0,-8,4,-6,-5,-5,-11,9
-4,-11,-6,7,0,-9,4,-6,-5,-5,-11,9
-4,-11,-6,7,0,-9,4,-6,-5,-5,-11,8
-4,-11,-6,8,0,-9,4,-6,-5,-5,-11,8
-5,-11,-6,8,0,-9,5,-6,-5,-5,-11,7
-5,-11,-6,8,0,-9,5,-6,-5,-5,-11,7
-5,-12,-6,9,0,-10,5,-6,-5,-5,-11,6
-5,-12,-7,9,0,-10,5,-6,-5,-5,-11,6
-5,-12,-7,8,0,-10,5,-6,-5,-5,-11,6
-4,-12,-7,8,0,-10,5,-6,-5,-5,-11,6
-4,-12,-6,8,0,-10,5,-6,-5,-5,-11,6
-4,-12,-6,8,0,-9,5,-6,-5,-5,-11,6
-4,-11,-5,7,0,-9,5,-6,-4,-5,-11,6
-4,-11,-5,7,0,-8,5,-5,-4,-5,-11,6
-4,-10,-5,6,0,-8,6,-5,-4,-5,-11,6
-4,-10,-5,6,0,-8,6,-4,-3,-5,-12,5
-4,-10,-5,7,0,-8,6,-4,-3,-5,-12,5
-5,-11,-5,7,0,-8,6,-4,-3,-5,-12,4
-5,-11,-5,7,0,-8,6,-4,-3,-4,-12,4
-5,-10,-5,7,0,-8,6,-4,-3,-4,-12,4
-5,-10,-5,7,0,-8,6,-4,-3,-4,-12,4
-5,-10,-5,7,0,-8,6,-4,-3,-4,-12,4
-5,-10,-5,7,0,-8,6,-4,-3,-4,-12,4
-5,-10,-5,7,0,-8,5,-4,-3,-4,-13,4
-5,-10,-5,8,0,-8,5,-3,-3,-4,-13,3
-5,-10,-5,8,0,-8,5,-3,-3,-3,-13,3
-5,-10,-5,7,0,-8,6,-2,-3,-3,-13,3
-4,-10,-5,7,0,-7,6,-2,-3,-3,-13,3
-4,-10,-5,7,0,-7,5,-2,-2,-3,-12,3
-4,-10,-5,7,0,-7,5,-2,-2,-3,-12,3
-4,-10,-5,7,0,-7,5,-2,-2,-3,-12,3
-5,-10,-4,7,-1,-7,5,-2,-2,-3,-12,3
-5,-9,-4,7,-1,-7,5,-2,-2,-3,-12,3
-4,-8,-4,6,-1,-6,5,-2,-2,-3,-12,3
-3,-8,-4,6,-1,-6,5,-2,-2,-3,-12,3
-4,-8,-3,6,-1,-6,5,-3,-3,-3,-12,3
-5,-8,-3,7,-1,-6,4,-3,-3,-4,-12,2
-5,-8,-2,7,-1,-6,4,-3,-3,-4,-12,2
-6,-8,-2,7,-1,-5,4,-3,-4,-4,-12,2
-6,-8,-1,7,-1,-5,4,-3,-4,-4,-13,2
-6,-7,-1,7,-2,-5,4,-4,-4,-5,-13,2
-6,-7,-1,7,-2,-5,4,-4,-4,-5,-14,1
-6,-7,-1,6,-2,-5,4,-5,-5,-5,-14,1
-6,-7,-1,6,-2,-4,4,-5,-5,-5,-14,1
-6,-6,0,6,-2,-4,3,-5,-5,-5,-14,0
-6,-6,0,6,-2,-4,3,-6,-5,-5,-14,0
-6,-6,0,6,-3,-4,3,-6,-5,-6,-14,0
-6,-6,0,6,-3,-4,3,-7,-5,-6,-14,0
-5,-6,0,6,-3,-3,3,-7,-5,-6,-14,0
-5,-6,0,5,-2,-3,3,-7,-5,-6,-14,0
-5,-6,0,5,-2,-3,3,-7,-6,-7,-15,-1
-5,-6,0,6,-2,-3,3,-7,-6,-7,-15,-1
-5,-5,0,5,-2,-3,4,-7,-6,-7,-15,-2
-5,-5,0,5,-2,-3,4,-7,-6,-7,-15,-2
-5,-5,0,5,-2,-3,4,-7,-7,-7,-16,-2
-5,-6,0,6,-2,-3,4,-7,-7,-7,-16,-3
-5,-6,0,6,-2,-3,4,-7,-7,-8,-16,-3
-5,-6,0,6,-2,-3,4,-7,-7,-8,-16,-3
-6,-6,0,6,-2,-3,4,-8,-7,-8,-16,-4
-6,-7,0,7,-3,-4,4,-8,-7,-8,-17,-4
-6,-7,0,7,-3,-4,4,-8,-7,-8,-17,-4
-6,-7,0,7,-3,-3,4,-8,-7,-8,-17,-4
-6,-7,0,7,-3,-3,4,-8,-7,-8,-17,-4
-6,-7,0,6,-3,-3,5,-8,-7,-8,-17,-4
-6,-6,0,6,-3,-3,5,-8,-7,-8,-17,-4
-5,-6,0,6,-3,-3,5,-8,-7,-7,-16,-3
-5,-5,0,5,-2,-2,6,-7,-7,-7,-16,-3
-4,-4,0,4,-2,-2,6,-7,-6,-6,-16,-2
-4,-3,1,4,-2,-1,6,-6,-6,-5,-16,-2
-3,-2,1,3,-2,-1,6,-6,-5,-5,-15,-2
-3,-2,2,3,-2,0,6,-5,-5,-4,-15,-1
-2,-1,2,2,-2,0,6,-5,-4,-4,-14,-1
-1,0,2,1,-1,1,7,-4,-3,-3,-14,0
0,1,2,0,-1,1,7,-4,-2,-3,-14,0
0,1,2,0,-1,2,7,-3,-2,-2,-13,0
1,2,2,0,-1,2,7,-3,-1,-2,-13,1
1,2,3,-1,-1,2,8,-2,-1,-1,-12,1
1,3,3,-1,-1,3,9,-1,0,-1,-12,1
1,3,3,-2,-1,3,9,0,0,0,-12,2
1,4,3,-2,-1,3,10,0,0,0,-12,2
1,4,3,-2,-1,3,10,0,0,0,-12,2
1,4,3,-2,-1,3,9,0,0,0,-12,2
1,4,3,-2,-1,3,9,0,0,0,-12,2
2,4,3,-2,-1,3,8,0,0,0,-12,2
2,3,3,-2,0,3,6,-1,0,0,-12,2
2,3,2,-2,0,3,5,-2,0,-1,-12,2
2,2,1,-1,0,2,3,-3,-1,-1,-12,2
1,1,0,-1,0,1,1,-4,-2,-2,-13,2
1,0,0,0,1,0,0,-5,-2,-2,-13,2
2,-1,-2,0,2,-1,-1,-5,-3,-2,-13,2
2,-1,-3,0,2,-2,-2,-6,-3,-3,-13,2
2,-1,-3,0,2,-2,-3,-6,-4,-3,-14,1
2,-1,-3,0,2,-2,-3,-7,-4,-4,-14,1
3,-2,-3,0,3,-3,-4,-7,-5,-5,-15,1
3,-2,-4,0,3,-3,-5,-8,-6,-6,-15,0
3,-3,-5,1,4,-4,-5,-9,-7,-7,-16,0
3,-3,-5,1,4,-4,-5,-9,-8,-7,-16,0
3,-4,-6,1,4,-5,-5,-10,-8,-8,-17,0
2,-5,-6,1,4,-6,-5,-10,-9,-8,-18,-1
2,-6,-7,2,4,-7,-5,-10,-9,-9,-18,-2
2,-7,-7,3,5,-8,-5,-10,-10,-9,-19,-2
1,-8,-8,3,5,-8,-4,-10,-10,-10,-19,-3
1,-8,-8,3,5,-9,-4,-10,-11,-10,-19,-3
1,-8,-7,3,5,-8,-3,-10,-11,-10,-19,-3
1,-7,-6,3,4,-7,-2,-9,-10,-9,-19,-3
1,-5,-5,2,3,-6,-1,-9,-9,-8,-18,-2
0,-4,-3,2,2,-4,0,-8,-8,-7,-17,-2
0,-3,-2,2,1,-3,0,-8,-8,-7,-17,-2
-1,-3,-1,3,0,-3,1,-8,-7,-7,-17,-2
-1,-3,0,3,0,-3,1,-8,-7,-7,-17,-2
-2,-3,0,3,0,-2,1,-8,-7,-7,-17,-3
-2,-3,0,3,0,-2,1,-8,-7,-7,-17,-3
-2,-3,0,3,0,-2,1,-9,-8,-7,-17,-3
-2,-3,0,3,-1,-2,1,-9,-8,-8,-17,-4
-3,-3,0,4,-1,-2,1,-10,-9,-9,-18,-5
-4,-4,1,5,-2,-2,1,-10,-10,-9,-18,-6
-5,-4,1,5,-2,-2,1,-10,-10,-9,-18,-6
-5,-5,1,5,-2,-2,1,-10,-10,-9,-18,-7
-6,-5,1,5,-3,-2,1,-10,-10,-9,-18,-7
-6,-6,1,6,-3,-2,1,-11,-10,-10,-19,-8
-7,-7,1,6,-3,-3,1,-11,-11,-10,-19,-8
-7,-7,1,7,-3,-3,1,-11,-11,-10,-19,-9
-7,-7,1,7,-3,-3,1,-12,-11,-10,-20,-9
-7,-7,1,8,-4,-3,1,-12,-11,-11,-20,-10
-8,-7,1,8,-4,-3,1,-12,-11,-11,-21,-10
-8,-8,1,8,-5,-3,1,-12,-11,-11,-21,-11
-9,-8,2,9,-5,-3,1,-12,-11,-12,-22,-11
-10,-9,2,10,-6,-3,2,-12,-11,-12,-22,-11
-10,-9,3,10,-6,-2,2,-12,-11,-12,-22,-11
-10,-8,3,9,-6,-2,2,-12,-11,-12,-22,-11
-10,-8,3,9,-6,-2,2,-12,-12,-12,-22,-11
-10,-8,3,9,-6,-2,2,-12,-12,-12,-22,-12
-11,-9,3,10,-6,-3,2,-12,-12,-12,-22,-12
-12,-10,3,11,-6,-3,2,-12,-12,-12,-22,-13
-12,-10,3,11,-6,-3,2,-12,-12,-12,-22,-13
-11,-10,3,11,-6,-3,2,-12,-12,-12,-22,-13
-11,-10,3,11,-7,-3,2,-12,-12,-12,-22,-13
-11,-10,2,11,-7,-4,2,-12,-12,-12,-22,-13
-11,-10,2,11,-7,-4,2,-13,-12,-12,-22,-13
-12,-10,2,11,-7,-4,2,-13,-12,-12,-23,-13
-12,-10,2,11,-7,-4,2,-13,-12,-12,-23,-13
-12,-10,2,11,-7,-4,2,-13,-12,-13,-23,-13
-12,-10,2,11,-7,-4,2,-12,-12,-13,-23,-13
-12,-10,2,11,-7,-4,3,-11,-11,-12,-22,-13
-12,-10,2,11,-7,-4,3,-10,-10,-11,-22,-13
-11,-9,2,11,-6,-4,4,-8,-8,-9,-21,-13
-10,-8,2,10,-6,-4,5,-4,-4,-6,-19,-12
-9,-7,1,8,-4,-3,6,2,0,-1,-16,-9
-6,-5,1,6,-3,-2,7,10,7,5,-10,-5
-2,-2,0,3,-1,-1,7,19,14,13,-4,0
2,1,-1,-1,2,0,8,30,23,23,5,6
9,5,-4,-7,7,0,8,43,34,35,16,14
19,10,-9,-14,15,0,8,56,47,49,29,25
31,15,-17,-22,25,-1,5,68,59,65,44,37
45,19,-25,-31,35,-3,0,76,70,80,59,48
59,24,-35,-41,47,-5,-6,80,77,93,73,59
75,28,-47,-51,61,-9,-14,80,79,103,87,69
94,31,-63,-62,78,-15,-24,78,77,110,99,79
115,35,-80,-75,97,-22,-37,73,72,115,112,89
135,38,-96,-86,115,-28,-51,63,63,115,119,96
149,40,-108,-95,129,-33,-65,48,48,106,117,96
157,41,-115,-99,137,-36,-76,28,26,86,103,89
158,42,-116,-100,137,-36,-84,3,1,60,81,76
153,44,-109,-98,131,-32,-92,-23,-23,33,58,63
146,48,-97,-97,122,-24,-100,-53,-44,9,40,54
135,55,-80,-95,108,-12,-110,-87,-64,-9,26,49
115,62,-53,-89,84,4,-119,-128,-83,-28,13,45
85,68,-17,-76,51,25,-124,-177,-105,-52,-3,38
52,71,19,-61,16,45,-127,-225,-127,-77,-23,28
25,69,44,-46,-9,56,-127,-253,-142,-95,-41,16
7,63,56,-34,-24,60,-125,-259,-147,-104,-52,5
-5,57,62,-25,-33,60,-120,-252,-143,-105,-58,-1
-13,52,66,-19,-39,60,-112,-234,-132,-100,-58,-4
-20,46,67,-13,-43,57,-98,-208,-118,-91,-57,-8
-25,40,66,-7,-45,53,-82,-178,-101,-80,-54,-10
-28,35,63,-3,-45,49,-65,-148,-83,-67,-50,-11
-29,30,60,0,-45,45,-51,-121,-68,-56,-45,-12
-30,26,56,3,-43,41,-40,-100,-55,-46,-41,-11
-30,22,51,5,-41,36,-31,-81,-44,-38,-37,-11
-29,18,46,6,-37,32,-22,-65,-35,-31,-33,-10
-26,16,41,6,-34,29,-15,-52,-28,-26,-30,-9
-23,14,37,5,-30,26,-9,-41,-23,-22,-28,-9
-21,12,33,5,-27,23,-5,-32,-18,-19,-27,-9
-20,9,28,6,-24,19,-1,-24,-15,-17,-26,-9
-19,5,24,7,-21,14,1,-18,-13,-15,-25,-10
-18,2,20,8,-19,11,4,-13,-11,-14,-25,-11
-18,0,17,9,-17,8,6,-9,-9,-13,-24,-11
-17,-1,14,9,-16,6,7,-6,-8,-12,-24,-12
-17,-3,12,10,-14,5,8,-4,-8,-11,-24,-12
-16,-4,11,10,-13,4,9,-2,-7,-10,-24,-12
-14,-4,10,10,-12,3,10,0,-6,-10,-23,-12
-13,-5,9,9,-11,3,11,1,-5,-9,-23,-12
-12,-5,8,9,-10,1,12,3,-4,-9,-23,-12
-12,-6,7,10,-10,0,12,4,-3,-8,-23,-13
-12,-6,6,10,-9,0,12,4,-3,-8,-22,-13
-12,-6,5,9,-9,0,13,5,-3,-7,-22,-13
-12,-6,4,9,-9,0,13,5,-3,-7,-22,-13
-12,-6,4,9,-8,0,13,6,-3,-7,-22,-13
-11,-6,4,9,-8,0,13,7,-2,-6,-21,-13
-11,-6,4,9,-8,0,13,8,-2,-6,-21,-13
-10,-6,4,9,-8,-1,13,9,-1,-6,-21,-13
-10,-6,4,9,-8,-1,13,9,-1,-6,-21,-12
-11,-7,4,9,-8,-1,13,9,0,-6,-21,-12
-11,-7,4,9,-8,-1,13,9,0,-5,-21,-12
-11,-7,4,9,-7,-1,14,9,0,-5,-20,-11
-11,-7,4,8,-7,-1,14,10,0,-4,-20,-11
-11,-7,4,8,-7,-1,14,10,0,-4,-20,-11
-11,-7,4,9,-7,-1,14,10,0,-4,-20,-11
-11,-7,4,9,-7,-1,14,11,1,-4,-20,-10
-10,-7,4,8,-7,-1,14,11,1,-4,-20,-10
-10,-7,3,8,-7,-1,14,12,2,-4,-20,-10
-10,-7,3,8,-7,-1,14,13,2,-4,-20,-10
-10,-7,3,9,-7,-1,14,13,2,-4,-20,-10
-10,-7,3,9,-7,-2,14,14,2,-4,-20,-9
-10,-7,3,9,-7,-2,14,15,2,-3,-19,-9
-10,-7,3,9,-7,-2,14,15,3,-3,-19,-9
-10,-7,3,9,-7,-2,14,16,3,-3,-19,-9
-9,-7,3,8,-6,-2,14,17,4,-2,-18,-9
-9,-7,3,8,-6,-2,14,17,5,-2,-18,-8
-8,-7,2,8,-6,-2,15,18,6,-1,-17,-8
-8,-7,2,7,-5,-2,15,19,6,-1,-17,-8
-8,-7,2,7,-5,-2,15,20,7,0,-16,-8
-8,-7,2,8,-5,-2,15,20,7,0,-16,-8
-8,-7,2,8,-5,-3,15,21,7,0,-16,-8
-8,-7,1,8,-5,-3,16,22,8,0,-16,-7
-8,-7,1,8,-5,-3,16,24,9,1,-15,-7
-8,-7,1,8,-5,-3,16,25,9,1,-15,-7
-8,-7,1,8,-5,-3,16,26,10,1,-15,-7
-8,-7,1,8,-5,-3,16,27,11,2,-15,-7
-8,-7,1,8,-5,-3,16,28,12,2,-15,-7
-8,-7,1,7,-4,-3,17,29,12,3,-15,-6
-7,-6,1,7,-4,-2,17,30,13,4,-14,-6
-7,-6,1,6,-4,-2,18,32,14,5,-14,-5
-7,-6,1,6,-4,-2,18,33,15,6,-14,-5
-7,-5,1,6,-4,-2,18,35,16,7,-13,-4
-6,-5,1,6,-4,-2,18,36,17,7,-13,-4
-6,-4,1,5,-4,-1,18,38,19,8,-12,-4
-5,-3,1,4,-4,0,18,40,20,9,-12,-4
-5,-2,1,4,-4,0,19,41,21,10,-12,-3
-4,-2,1,3,-4,0,19,43,22,11,-11,-3
-4,-2,1,3,-4,0,19,45,24,12,-11,-3
-3,-1,1,3,-3,0,20,47,25,13,-10,-2
-2,0,1,1,-3,1,20,50,27,14,-9,-1
-1,1,1,0,-2,2,20,52,28,15,-9,0
-1,1,2,0,-2,2,20,54,30,16,-8,0
0,2,2,0,-2,3,21,56,31,18,-7,1
0,3,2,-1,-1,3,21,58,33,20,-6,3
1,4,2,-2,-1,4,21,59,34,21,-4,4
1,4,2,-3,-1,4,21,61,36,23,-3,5
1,4,2,-3,-1,4,21,63,37,24,-2,6
2,5,2,-4,-1,4,21,65,39,25,-1,8
3,6,2,-5,0,5,22,67,40,26,0,9
4,7,2,-6,0,5,22,68,42,27,1,11
5,8,2,-7,1,6,22,70,43,29,2,12
6,9,2,-7,1,6,21,71,44,30,3,13
6,9,2,-8,1,7,21,71,45,31,4,14
7,10,2,-8,1,7,21,72,45,32,5,15
7,11,2,-9,1,8,21,72,46,32,5,16
8,12,3,-9,1,8,20,73,46,33,6,17
8,12,3,-10,1,8,19,73,47,33,6,17
9,13,3,-11,2,8,19,73,47,34,7,18
10,14,3,-12,2,9,18,73,48,34,8,19
10,15,3,-13,2,10,18,72,48,35,9,20
11,16,4,-14,2,11,17,72,48,36,9,21
12,17,4,-15,2,12,16,71,48,37,10,21
12,18,4,-15,2,12,15,69,48,37,10,21
13,18,5,-15,2,13,14,68,47,36,10,21
13,19,5,-16,3,13,12,66,47,36,10,21
14,20,5,-17,3,13,11,65,46,36,11,21
15,20,5,-18,4,13,10,63,45,36,11,21
16,21,5,-18,4,14,9,61,45,36,11,21
16,22,5,-19,4,14,8,59,44,35,11,21
17,22,5,-19,4,15,7,56,42,35,12,21
17,23,4,-19,4,15,6,53,41,34,12,21
17,22,4,-19,5,14,5,49,39,33,13,21
17,22,4,-19,5,14,3,46,37,32,13,21
17,21,4,-19,5,13,2,42,35,30,13,20
17,21,4,-18,5,13,1,39,33,29,12,20
16,20,3,-18,5,12,0,36,31,28,12,19
16,20,3,-18,5,12,0,32,28,26,11,18
15,18,2,-17,5,11,-1,29,26,24,9,17
14,17,2,-16,5,11,-1,25,23,22,8,15
13,16,2,-15,5,10,-2,21,21,20,6,14
13,15,2,-15,5,10,-2,18,18,18,5,13
12,14,1,-13,4,9,-3,15,16,16,3,11
11,13,1,-12,4,8,-4,12,14,15,2,10
10,11,0,-11,3,7,-4,9,12,13,0,9
9,10,0,-9,3,6,-4,7,10,11,-1,7
7,9,0,-8,2,5,-4,4,8,9,-2,6
6,8,0,-7,2,4,-4,2,6,7,-4,4
6,7,0,-6,2,4,-4,0,4,6,-5,3
5,6,0,-5,2,3,-4,-1,2,4,-6,1
5,6,0,-5,2,3,-3,-3,1,3,-7,0
4,5,0,-4,1,3,-3,-4,0,1,-8,-1
3,4,0,-3,1,3,-3,-5,-1,0,-9,-2
2,3,0,-3,0,2,-2,-5,-2,0,-9,-3
1,2,0,-2,0,2,-2,-6,-3,-1,-10,-4
0,1,0,0,0,1,-2,-8,-4,-2,-11,-5
-1,0,0,1,-1,1,-2,-9,-5,-3,-12,-6
-2,-1,0,2,-2,0,-1,-10,-6,-4,-12,-6
-3,-2,0,2,-2,0,-1,-10,-6,-4,-13,-7
-3,-2,0,3,-2,0,-1,-11,-7,-5,-13,-7
-4,-3,0,3,-2,-1,-1,-11,-7,-5,-14,-8
-4,-3,0,4,-2,-1,-1,-11,-7,-6,-14,-8
-4,-4,0,4,-2,-2,0,-11,-8,-6,-15,-9
-4,-4,0,4,-2,-2,0,-11,-8,-7,-15,-9
-4,-4,-1,4,-2,-2,0,-11,-9,-7,-15,-10
-3,-4,-1,4,-2,-2,0,-11,-9,-8,-15,-10
-3,-4,-1,4,-2,-2,0,-11,-9,-8,-15,-10
-3,-4,-1,4,-2,-2,0,-11,-9,-8,-16,-10
-4,-4,-1,4,-2,-2,0,-11,-9,-8,-16,-10
-4,-5,-1,5,-2,-2,0,-11,-9,-8,-16,-10
-5,-5,-1,5,-2,-2,0,-11,-9,-8,-16,-9
-5,-5,0,6,-3,-2,0,-11,-9,-8,-16,-9
-6,-6,0,6,-3,-2,1,-11,-9,-8,-16,-9
-6,-6,0,7,-3,-3,1,-11,-9,-8,-16,-9
-6,-6,-1,7,-3,-3,1,-11,-8,-8,-16,-9
-6,-6,-1,7,-3,-3,2,-11,-8,-8,-16,-9
-6,-6,-1,7,-3,-3,2,-11,-8,-8,-16,-9
-6,-7,-1,7,-3,-3,2,-11,-7,-8,-16,-9
-6,-7,-2,7,-2,-3,3,-10,-7,-8,-16,-9
-6,-7,-2,7,-2,-4,3,-10,-7,-8,-16,-9
-6,-8,-2,7,-2,-4,3,-10,-7,-8,-15,-9
-7,-9,-2,8,-2,-4,4,-10,-7,-8,-15,-9
-7,-9,-2,8,-2,-4,4,-10,-7,-8,-15,-9
-7,-9,-2,9,-3,-4,4,-10,-7,-8,-15,-9
-7,-9,-2,9,-3,-4,4,-10,-7,-8,-16,-9
-7,-9,-2,9,-3,-4,4,-9,-6,-8,-16,-9
-8,-9,-2,9,-3,-4,4,-9,-6,-8,-16,-9
-8,-9,-2,9,-3,-5,4,-9,-6,-8,-16,-10
-9,-10,-2,10,-4,-5,4,-9,-6,-8,-17,-10
-9,-10,-2,10,-4,-5,4,-9,-6,-8,-17,-10
-9,-10,-2,10,-4,-5,4,-9,-6,-8,-17,-10
-9,-9,-2,9,-4,-5,4,-9,-6,-8,-17,-9
-8,-9,-1,9,-4,-4,4,-9,-6,-7,-17,-8
-8,-8,-1,9,-4,-4,4,-9,-6,-7,-16,-8
-9,-9,0,9,-5,-4,4,-9,-6,-7,-16,-8
-9,-9,0,9,-5,-4,4,-9,-6,-7,-16,-8
-9,-9,0,9,-5,-4,4,-8,-5,-7,-15,-7
-9,-9,0,9,-5,-4,4,-8,-5,-7,-15,-7
-9,-9,-1,9,-5,-4,4,-8,-5,-7,-15,-7
-9,-9,-1,9,-5,-5,4,-7,-5,-7,-15,-7
-9,-10,-1,9,-5,-5,4,-7,-5,-7,-15,-7
-9,-10,-1,9,-5,-5,4,-7,-5,-7,-15,-7
-9,-10,-1,9,-4,-5,4,-7,-5,-7,-14,-6
-9,-10,-1,9,-4,-5,4,-7,-5,-7,-14,-6
-9,-10,-1,9,-4,-5,4,-7,-5,-7,-14,-6
-9,-10,-1,9,-4,-5,4,-7,-5,-7,-14,-6
-9,-10,-1,9,-4,-5,4,-7,-5,-7,-14,-6
-9,-10,-1,9,-4,-6,4,-7,-5,-7,-14,-6
-8,-10,-1,9,-4,-6,4,-7,-5,-7,-13,-5
-8,-10,-2,9,-4,-6,5,-7,-5,-7,-13,-5
-8,-10,-2,9,-4,-6,6,-7,-5,-7,-13,-5
-8,-10,-2,9,-4,-6,6,-7,-6,-7,-13,-5
-8,-10,-2,9,-4,-6,6,-7,-6,-7,-12,-5
-8,-10,-2,9,-3,-6,5,-7,-6,-7,-12,-5
-8,-10,-2,9,-3,-6,5,-8,-6,-7,-12,-5
-8,-10,-2,9,-3,-6,5,-8,-6,-7,-12,-5
-8,-11,-2,9,-3,-6,5,-8,-6,-7,-12,-5
-8,-11,-2,9,-3,-6,5,-8,-6,-7,-12,-5
-8,-11,-2,9,-3,-6,5,-8,-6,-7,-12,-5
-8,-11,-2,9,-3,-6,6,-8,-6,-7,-12,-5
-8,-11,-2,9,-3,-6,6,-8,-7,-8,-12,-5
-8,-11,-2,9,-3,-6,6,-8,-7,-8,-13,-6
-8,-11,-2,9,-3,-6,6,-8,-7,-9,-13,-6
-8,-11,-2,9,-3,-6,6,-8,-7,-9,-13,-6
-8,-10,-2,9,-3,-6,6,-8,-7,-9,-14,-6
-8,-10,-3,9,-3,-6,7,-8,-7,-9,-14,-6
-8,-10,-3,9,-3,-6,7,-8,-7,-9,-14,-6
-8,-11,-3,9,-3,-6,7,-8,-7,-9,-14,-6
-8,-11,-3,9,-3,-6,7,-8,-7,-8,-14,-6
-7,-11,-3,8,-2,-6,7,-8,-7,-8,-14,-6
-8,-11,-3,9,-3,-6,7,-8,-7,-8,-15,-7
-8,-11,-3,9,-3,-6,8,-8,-7,-8,-15,-7
-8,-11,-3,9,-3,-6,8,-8,-7,-8,-15,-7
-8,-12,-3,9,-3,-6,8,-8,-7,-8,-15,-7
-9,-12,-3,10,-3,-6,8,-8,-7,-8,-15,-7
-9,-12,-3,10,-3,-7,8,-8,-7,-8,-15,-6
-9,-12,-3,9,-3,-7,8,-7,-7,-8,-15,-6
-8,-11,-3,9,-3,-7,8,-7,-7,-8,-15,-5
-8,-10,-3,8,-3,-6,8,-7,-6,-7,-14,-5
-8,-9,-2,8,-3,-6,8,-7,-5,-7,-14,-4
-7,-8,-2,7,-3,-5,8,-7,-5,-7,-14,-4
-7,-7,-1,7,-3,-4,8,-6,-5,-7,-14,-3
-6,-6,-1,6,-3,-3,8,-6,-4,-6,-13,-2
-5,-6,-1,5,-2,-3,8,-5,-3,-5,-12,-1
-4,-5,-1,4,-2,-3,8,-4,-2,-4,-11,0
-4,-5,-1,4,-2,-2,8,-4,-2,-3,-10,0
-3,-4,0,3,-2,-2,9,-4,-1,-3,-10,1
-3,-4,0,3,-2,-2,9,-3,0,-2,-9,1
-3,-3,0,2,-2,-2,10,-2,0,-2,-9,1
-3,-3,0,2,-2,-2,11,-1,1,-1,-8,2
-2,-3,0,2,-1,-2,12,0,1,-1,-8,2
-2,-3,0,1,-1,-1,13,0,1,0,-8,2
-2,-2,0,1,-1,-1,13,0,1,0,-8,2
-2,-3,0,2,-1,-1,12,0,1,0,-8,1
-3,-4,0,2,-1,-2,11,-1,0,-1,-8,1
-3,-4,-1,3,-1,-2,9,-2,0,-1,-8,1
-3,-5,-1,3,-1,-3,8,-2,0,-1,-8,0
-3,-5,-2,3,-1,-3,7,-3,0,-1,-9,0
-3,-6,-3,4,-1,-4,6,-3,-1,-2,-9,0
-3,-7,-4,4,-1,-4,4,-4,-1,-2,-10,-1
-2,-7,-5,4,0,-5,3,-4,-2,-2,-10,-1
-2,-8,-6,4,1,-6,1,-5,-2,-2,-10,-2
-2,-9,-7,5,2,-7,0,-6,-3,-3,-11,-2
-3,-9,-7,5,2,-7,-1,-7,-4,-3,-11,-3
-3,-9,-7,5,3,-7,-1,-7,-4,-4,-12,-4
-3,-10,-7,5,3,-8,-2,-8,-5,-4,-13,-5
-3,-10,-8,6,3,-9,-2,-8,-6,-5,-14,-6
-3,-11,-9,6,3,-9,-2,-9,-7,-5,-14,-7
-2,-11,-9,6,3,-10,-2,-9,-8,-6,-14,-8
-2,-12,-10,7,4,-11,-2,-10,-9,-6,-15,-8
-2,-14,-11,7,4,-12,-2,-10,-9,-7,-15,-9
-3,-15,-12,8,5,-13,-2,-11,-10,-7,-15,-9
-3,-16,-13,9,5,-14,-1,-11,-10,-8,-15,-10
-3,-17,-14,9,5,-15,-1,-11,-10,-8,-15,-10
-3,-17,-14,9,5,-15,0,-11,-10,-8,-16,-10
-3,-16,-13,9,5,-14,0,-11,-9,-8,-16,-10
-3,-15,-12,9,5,-13,1,-10,-9,-7,-15,-10
-3,-14,-10,8,4,-12,2,-9,-8,-6,-15,-9
-4,-14,-9,8,3,-11,3,-9,-8,-6,-14,-9
-5,-14,-9,9,2,-11,4,-8,-8,-5,-14,-9
-5,-14,-8,9,1,-11,4,-8,-8,-5,-14,-9
-5,-14,-8,9,1,-10,4,-8,-8,-5,-14,-9
-6,-14,-7,10,0,-10,4,-8,-8,-5,-14,-9
-7,-14,-7,10,0,-10,4,-8,-8,-6,-14,-9
-8,-14,-6,11,-1,-10,4,-9,-8,-6,-15,-10
-8,-14,-6,11,-2,-9,4,-10,-9,-7,-15,-10
-9,-14,-5,11,-2,-9,4,-10,-9,-7,-16,-10
-10,-14,-4,11,-3,-8,4,-11,-9,-7,-16,-11
-10,-14,-4,11,-3,-8,4,-11,-10,-7,-16,-11
-10,-14,-4,11,-3,-8,4,-11,-10,-7,-17,-11
-10,-14,-4,11,-4,-8,4,-11,-10,-8,-17,-11
-11,-14,-4,12,-4,-8,4,-11,-10,-8,-17,-12
-12,-16,-4,13,-5,-9,4,-11,-10,-9,-17,-12
-13,-17,-4,14,-5,-9,4,-12,-11,-9,-17,-13
-13,-17,-4,14,-5,-9,5,-12,-11,-9,-17,-13
-13,-17,-4,14,-5,-9,5,-12,-11,-9,-17,-14
-13,-16,-4,14,-5,-9,5,-12,-11,-9,-18,-14
-13,-16,-4,14,-5,-9,5,-12,-11,-10,-18,-14
-14,-16,-3,15,-6,-9,5,-12,-11,-10,-19,-15
-14,-16,-3,15,-6,-9,5,-12,-11,-10,-19,-15
-15,-17,-2,16,-7,-9,5,-12,-11,-10,-20,-16
-15,-17,-2,16,-7,-9,5,-12,-11,-9,-20,-16
-15,-17,-1,16,-7,-8,5,-12,-11,-9,-20,-16
-16,-17,-1,16,-7,-8,5,-12,-11,-10,-20,-16
-16,-17,-1,16,-8,-8,5,-12,-12,-10,-21,-16
-15,-16,-1,15,-8,-8,5,-12,-12,-11,-21,-16
-15,-16,-1,15,-8,-8,5,-12,-12,-11,-21,-16
-15,-16,0,15,-8,-7,5,-12,-12,-10,-21,-16
-15,-15,0,15,-7,-7,6,-12,-11,-10,-20,-15
-14,-15,0,14,-7,-7,6,-12,-10,-9,-20,-15
-14,-15,0,14,-7,-7,6,-11,-10,-9,-19,-14
-14,-15,0,14,-7,-7,7,-11,-10,-9,-19,-14
-14,-15,0,14,-7,-8,7,-11,-11,-9,-19,-14
-14,-15,-1,14,-7,-8,7,-11,-11,-9,-19,-14
-14,-16,-1,14,-7,-8,7,-11,-11,-9,-19,-14
-14,-16,-1,14,-7,-8,7,-10,-10,-8,-19,-13
-14,-16,-1,15,-7,-8,7,-8,-9,-7,-18,-13
-14,-16,-1,15,-7,-8,8,-6,-7,-5,-17,-12
-13,-16,-2,14,-6,-8,8,-2,-4,-1,-14,-11
-11,-14,-2,12,-5,-7,8,3,1,4,-10,-8
-8,-12,-3,10,-3,-7,9,10,9,12,-3,-3
-4,-9,-4,6,-1,-6,9,18,17,21,5,3
1,-5,-5,1,3,-4,9,28,26,32,15,11
9,0,-9,-5,8,-4,9,40,37,45,28,20
19,4,-14,-12,16,-4,7,54,50,60,42,31
32,9,-22,-21,26,-5,4,67,63,76,58,43
45,14,-31,-30,38,-7,0,76,74,92,73,54
60,18,-41,-39,50,-10,-6,79,80,104,88,65
76,22,-53,-49,64,-14,-14,79,82,113,101,75
95,25,-69,-60,82,-21,-24,77,79,119,114,85
115,29,-85,-72,100,-28,-36,72,73,123,125,95
132,32,-100,-83,116,-33,-48,62,62,120,130,100
145,34,-110,-90,128,-37,-61,45,45,107,123,98
151,35,-115,-94,133,-39,-72,25,23,85,104,87
150,36,-113,-94,131,-37,-80,1,-1,58,80,73
144,38,-105,-92,124,-32,-86,-24,-24,31,57,60
135,43,-92,-90,113,-24,-93,-52,-45,8,38,51
123,50,-72,-87,97,-11,-101,-84,-63,-10,24,46
101,59,-41,-81,71,8,-106,-123,-82,-29,10,41
68,66,-1,-68,34,32,-108,-170,-103,-52,-8,34
35,69,34,-53,0,52,-108,-211,-123,-76,-28,22
10,67,56,-40,-23,62,-107,-234,-137,-93,-45,9
-6,61,68,-28,-37,65,-104,-240,-141,-101,-56,-1
-17,57,74,-20,-45,66,-99,-234,-137,-101,-61,-8
-23,52,75,-14,-50,64,-93,-219,-128,-96,-61,-13
-28,45,74,-9,-52,60,-83,-197,-115,-87,-60,-17
-33,38,73,-3,-53,56,-69,-169,-98,-75,-56,-19
-36,32,70,1,-53,51,-55,-142,-82,-63,-51,-20
-37,27,66,4,-51,47,-43,-117,-67,-51,-45,-19
-37,23,61,6,-49,42,-33,-96,-54,-41,-40,-18
-35,19,54,7,-45,38,-25,-79,-43,-32,-35,-17
-32,16,48,7,-40,33,-18,-63,-34,-25,-31,-15
-29,14,43,7,-36,29,-12,-51,-27,-19,-27,-14
-27,11,38,8,-33,26,-6,-41,-22,-16,-25,-14
-26,8,34,8,-30,22,-2,-32,-18,-14,-24,-14
-24,5,30,8,-27,18,1,-25,-15,-12,-23,-14
-23,1,25,9,-24,14,4,-18,-12,-10,-22,-15
-22,-2,20,10,-21,10,6,-13,-11,-8,-22,-16
-21,-4,16,11,-19,7,8,-9,-9,-7,-22,-17
-20,-6,13,12,-17,4,10,-6,-8,-7,-22,-19
-19,-8,11,13,-15,2,11,-4,-8,-6,-22,-21
-19,-10,9,14,-14,0,12,-2,-7,-6,-23,-23
-19,-11,8,14,-14,-1,12,0,-6,-5,-23,-24
-18,-11,7,14,-13,-1,13,2,-6,-5,-23,-25
-17,-11,7,13,-12,-2,14,4,-5,-4,-22,-26
-17,-11,6,13,-11,-2,14,5,-4,-3,-21,-26
-16,-11,5,13,-11,-2,14,6,-4,-3,-20,-26
-16,-11,5,13,-10,-2,14,6,-3,-2,-19,-26
-16,-11,4,13,-10,-2,14,7,-3,-2,-18,-26
-16,-12,4,13,-10,-3,14,7,-3,-2,-18,-25
-16,-12,3,14,-10,-3,14,8,-2,-2,-17,-24
-16,-13,3,14,-9,-4,15,9,-2,-1,-16,-23
-15,-13,2,14,-9,-4,15,10,-1,-1,-16,-22
-15,-13,2,14,-9,-5,15,11,0,0,-15,-20
-15,-13,2,13,-8,-5,15,12,0,0,-15,-19
-14,-13,1,13,-8,-5,15,12,0,0,-15,-18
-14,-13,1,13,-8,-5,16,12,0,0,-15,-17
-14,-13,1,13,-8,-5,16,12,0,1,-15,-16
-14,-14,1,14,-8,-5,16,12,1,1,-15,-15
-14,-14,1,14,-7,-5,16,12,1,1,-15,-14
-14,-14,1,13,-7,-5,17,13,2,1,-15,-13
-13,-14,1,13,-7,-5,17,13,2,2,-15,-12
-14,-14,1,13,-7,-5,17,14,3,2,-15,-11
-14,-14,0,13,-7,-5,17,14,3,2,-15,-10
-14,-14,0,13,-7,-5,17,15,3,2,-15,-10
-14,-14,0,13,-7,-5,17,15,3,2,-15,-10
-14,-14,0,13,-7,-6,17,16,3,2,-15,-9
-13,-14,0,12,-7,-6,17,16,4,2,-15,-9
-13,-13,0,12,-6,-5,17,17,4,2,-15,-8
-12,-12,0,12,-6,-5,17,17,5,3,-15,-8
-12,-12,0,12,-6,-5,17,18,5,3,-15,-9
-12,-12,0,12,-6,-5,17,19,6,4,-15,-9
-12,-12,0,11,-6,-5,17,19,6,4,-14,-9
-11,-12,0,11,-6,-5,17,20,7,5,-14,-9
-11,-12,0,11,-6,-5,17,20,7,5,-14,-9
-11,-12,0,11,-6,-5,17,20,8,6,-14,-9
-11,-12,0,10,-6,-5,17,21,9,7,-14,-8
-11,-12,0,10,-6,-5,17,22,10,7,-14,-8
-11,-12,0,10,-6,-5,17,23,10,8,-14,-8
-11,-11,0,10,-6,-5,17,24,10,8,-14,-8
-11,-11,0,10,-6,-4,17,25,11,8,-14,-8
-11,-10,0,9,-6,-4,17,26,12,9,-14,-7
-10,-10,0,9,-5,-4,17,27,12,9,-14,-6
-9,-10,0,9,-5,-4,18,28,13,10,-13,-5
-8,-9,0,8,-4,-4,18,30,14,10,-13,-4
-8,-9,0,8,-4,-4,18,31,15,11,-12,-3
-7,-8,0,7,-4,-4,18,32,17,13,-11,-2
-7,-8,0,7,-4,-3,18,34,18,15,-10,-1
-7,-7,0,6,-4,-3,18,35,20,16,-9,-1
-7,-7,0,6,-4,-2,18,37,21,18,-9,0
-6,-6,0,6,-4,-2,18,38,22,19,-8,0
-6,-6,0,5,-3,-2,18,40,23,19,-8,0
-5,-6,0,5,-3,-2,18,42,24,20,-8,0
-5,-5,0,4,-3,-2,18,44,25,21,-7,0
-4,-5,0,4,-3,-1,18,45,26,22,-7,0
-4,-4,0,3,-2,-1,18,47,28,23,-6,1
-3,-3,0,2,-2,-1,18,49,30,25,-6,2
-3,-2,0,1,-2,0,18,50,32,27,-5,3
-2,-1,0,0,-2,0,18,52,34,29,-3,5
-1,0,0,0,-1,1,18,54,35,30,-2,6
0,1,0,-1,-1,2,18,55,36,31,0,8
0,1,1,-2,0,2,18,57,38,33,1,9
1,2,1,-3,0,3,18,59,40,35,2,10
2,3,1,-4,0,3,18,60,41,37,4,11
3,4,0,-5,1,3,18,62,43,39,5,12
4,5,0,-5,1,3,18,63,44,40,6,13
4,6,0,-6,1,4,17,63,45,42,7,14
5,7,0,-7,2,4,17,64,46,43,8,15
7,8,0,-8,2,5,17,64,47,44,9,16
8,9,0,-9,3,6,16,65,48,45,10,16
9,10,1,-10,3,6,16,65,48,46,12,17
10,11,1,-11,3,7,15,65,49,47,13,17
10,12,2,-12,3,8,14,65,50,48,14,18
11,13,2,-12,3,8,13,64,50,49,14,18
11,13,3,-12,3,8,12,64,51,50,15,18
11,14,3,-13,3,9,12,63,51,51,15,18
11,15,3,-14,3,10,11,62,51,51,16,19
12,15,3,-14,3,11,10,61,51,51,17,19
12,16,3,-15,3,11,9,60,50,51,18,19
13,17,4,-15,3,11,8,59,50,51,19,19
13,17,4,-16,3,12,7,57,49,51,19,19
13,17,5,-16,3,12,6,55,49,51,19,19
13,18,5,-16,4,12,6,53,48,51,19,19
13,18,5,-17,4,12,5,51,46,50,19,19
13,19,5,-17,4,13,4,49,44,49,19,19
13,19,5,-17,4,13,3,46,43,48,19,19
13,19,5,-17,4,13,2,43,41,47,19,17
13,18,5,-17,4,13,1,40,39,45,18,16
13,18,5,-16,3,13,0,37,37,44,17,15
13,18,5,-16,3,13,-1,33,35,42,16,14
12,17,5,-16,3,12,-1,30,33,41,15,13
12,16,5,-15,3,12,-2,27,30,39,13,12
11,16,5,-14,2,12,-2,24,27,37,12,11
11,15,5,-13,2,12,-3,21,25,35,10,9
10,15,5,-13,1,11,-3,18,22,32,9,8
9,14,5,-12,1,11,-3,15,20,30,7,6
8,14,6,-11,0,11,-3,12,18,28,6,4
7,13,6,-11,0,10,-3,9,16,26,4,2
6,12,6,-10,0,10,-3,7,13,24,2,0
4,11,6,-8,-1,9,-3,5,11,22,0,-1
3,9,6,-7,-1,9,-3,3,8,20,-2,-2
2,8,6,-6,-2,8,-3,1,6,17,-3,-4
1,7,6,-5,-2,8,-3,0,4,15,-5,-6
0,6,6,-4,-3,7,-3,-1,3,13,-6,-7
-1,5,6,-3,-4,7,-2,-3,1,12,-8,-9
-1,4,6,-3,-4,6,-2,-4,0,10,-9,-10
-2,4,6,-2,-5,6,-2,-5,-1,9,-10,-11
-3,3,6,-1,-5,5,-2,-6,-2,8,-12,-12
-4,2,6,0,-6,5,-1,-6,-3,6,-13,-12
-4,2,6,0,-6,5,-1,-7,-4,5,-13,-13
-5,1,6,1,-6,5,-1,-7,-5,4,-14,-13
-5,1,7,1,-7,5,-1,-8,-5,3,-15,-14
-6,0,7,2,-7,4,-1,-9,-6,2,-16,-15
-7,0,8,3,-8,4,-1,-10,-7,1,-17,-16
-8,-1,8,4,-8,4,-1,-11,-7,1,-18,-17
-9,-1,8,4,-9,4,-1,-11,-7,0,-19,-18
-9,-1,8,4,-9,4,-1,-11,-8,0,-20,-18
-9,-1,8,4,-9,4,0,-11,-8,-1,-20,-18
-9,-1,8,4,-9,4,0,-11,-9,-1,-21,-18
-9,-1,8,4,-9,4,0,-11,-9,-2,-21,-18
-9,-1,8,4,-9,4,1,-11,-9,-2,-21,-18
-9,-1,8,4,-8,4,1,-11,-9,-3,-21,-18
-10,-2,8,5,-9,4,1,-11,-9,-3,-22,-18
-10,-3,7,6,-9,3,1,-11,-9,-3,-22,-18
-10,-3,7,6,-9,3,1,-10,-9,-3,-23,-18
-10,-3,7,6,-9,3,1,-10,-9,-4,-23,-18
-10,-4,7,6,-9,2,1,-10,-9,-4,-23,-18
-11,-4,7,6,-9,2,1,-10,-9,-4,-23,-18
-11,-4,7,6,-9,2,2,-10,-9,-4,-23,-18
-10,-4,7,6,-9,2,2,-10,-9,-4,-24,-18
-10,-4,7,6,-9,2,2,-10,-9,-4,-24,-18
-10,-4,7,6,-9,2,2,-10,-9,-4,-25,-18
-11,-4,8,6,-9,2,2,-10,-9,-4,-25,-19
-11,-4,8,6,-9,2,2,-10,-9,-4,-26,-19
-11,-3,8,6,-9,2,2,-10,-9,-4,-26,-19
-11,-3,8,6,-9,2,2,-10,-9,-4,-26,-19
-11,-3,8,6,-9,2,3,-9,-9,-4,-26,-19
-11,-3,8,6,-9,2,3,-9,-9,-5,-26,-19
-11,-3,8,7,-9,2,3,-9,-9,-5,-26,-19
-11,-4,8,7,-9,2,3,-9,-9,-5,-26,-19
-10,-4,7,7,-9,2,3,-9,-9,-5,-25,-18
-10,-4,7,6,-9,2,3,-8,-9,-4,-25,-17
-10,-4,7,6,-9,2,3,-7,-9,-4,-24,-17
-10,-4,7,7,-9,2,3,-7,-8,-4,-24,-16
-10,-4,7,7,-9,2,3,-7,-8,-3,-24,-16
-10,-3,7,6,-9,2,3,-7,-7,-3,-23,-15
-11,-3,7,6,-9,2,3,-7,-7,-3,-23,-15
-11,-3,7,6,-9,2,3,-7,-7,-3,-22,-15
-11,-3,7,6,-9,2,3,-7,-7,-3,-22,-15
-11,-3,7,6,-9,2,3,-6,-7,-3,-22,-15
-11,-3,7,6,-9,2,3,-6,-7,-3,-22,-15
-10,-3,7,6,-9,2,3,-6,-7,-3,-22,-15
-10,-3,7,6,-9,2,3,-6,-7,-3,-22,-14
-9,-3,7,6,-9,2,3,-6,-7,-3,-21,-14
-10,-3,7,6,-9,2,3,-6,-7,-3,-21,-14
-10,-4,7,6,-9,2,3,-6,-7,-3,-21,-14
-10,-3,7,6,-9,2,3,-6,-7,-3,-20,-13
-9,-3,7,5,-9,3,3,-6,-7,-3,-20,-13
-9,-3,7,5,-9,3,3,-6,-7,-3,-20,-13
-9,-3,7,5,-9,2,3,-6,-7,-3,-20,-13
-9,-3,7,5,-9,2,3,-7,-7,-3,-20,-13
-9,-2,8,5,-9,3,3,-7,-7,-3,-20,-12
-9,-2,8,5,-9,3,3,-7,-7,-3,-20,-12
-9,-2,8,5,-9,3,3,-7,-7,-3,-20,-12
-9,-1,8,5,-8,4,3,-7,-7,-3,-19,-12
-8,-1,8,4,-8,4,3,-7,-7,-3,-19,-12
-7,0,8,3,-7,4,4,-7,-7,-3,-19,-12
-8,0,9,3,-7,4,4,-7,-7,-3,-19,-12
-8,0,9,4,-8,4,4,-7,-7,-3,-20,-13
-8,0,9,4,-8,4,4,-7,-7,-3,-20,-13
-8,0,8,4,-8,4,4,-7,-8,-4,-20,-13
-8,-1,8,4,-8,4,4,-7,-8,-4,-20,-14
-8,-1,8,4,-8,4,4,-7,-8,-4,-20,-14
-8,-1,8,4,-8,4,4,-7,-8,-4,-20,-14
-8,-1,8,4,-8,4,4,-7,-8,-4,-20,-14
-8,0,8,3,-8,4,4,-7,-8,-4,-20,-14
-7,0,8,3,-8,4,4,-7,-8,-4,-19,-13
-7,0,8,4,-8,4,4,-8,-8,-4,-19,-13
-8,0,8,4,-8,4,4,-8,-8,-4,-19,-13
-8,-1,8,4,-8,4,4,-8,-8,-4,-19,-13
-8,-1,8,4,-7,3,4,-8,-8,-4,-19,-13
-8,-1,8,5,-7,3,4,-8,-8,-5,-19,-13
-9,-1,8,5,-8,3,4,-8,-8,-5,-20,-13
-9,-1,8,5,-8,3,4,-8,-8,-5,-20,-13
-9,-1,8,5,-8,3,4,-9,-8,-5,-20,-13
-8,-1,8,5,-8,3,4,-9,-8,-6,-20,-13
-8,-1,8,4,-8,3,4,-9,-8,-6,-20,-13
-8,-1,8,4,-8,3,4,-9,-8,-6,-20,-13
-7,-1,8,4,-7,3,4,-8,-8,-6,-20,-13
-7,0,8,3,-7,4,4,-8,-8,-6,-20,-12
-6,0,8,3,-6,4,4,-7,-8,-6,-20,-12
-6,1,8,2,-6,4,4,-7,-7,-5,-19,-12
-6,1,8,2,-6,4,4,-6,-7,-5,-18,-11
-6,2,8,2,-6,5,4,-6,-6,-4,-17,-11
-5,3,9,2,-6,5,4,-6,-5,-3,-16,-10
-5,3,9,1,-6,5,4,-6,-5,-2,-15,-10
-5,3,9,1,-6,6,4,-5,-4,-1,-14,-10
-5,4,9,0,-6,6,5,-5,-4,-1,-14,-9
-3,5,9,-1,-5,7,5,-4,-3,0,-13,-9
-2,6,9,-2,-5,7,5,-3,-2,0,-13,-9
-2,6,9,-2,-5,7,5,-2,-2,0,-13,-9
-2,6,9,-2,-5,7,6,-2,-1,0,-13,-9
-2,6,9,-2,-5,8,7,-2,-1,0,-13,-9
-3,6,9,-1,-6,8,7,-1,-1,1,-14,-9
-3,6,9,-1,-6,8,8,-1,-1,1,-14,-10
-3,6,10,-1,-6,8,8,-1,0,1,-14,-10
-3,6,10,-1,-6,8,8,-1,0,1,-15,-10
-3,6,10,-1,-6,7,7,-1,0,1,-15,-10
-3,6,10,-2,-6,7,6,-1,0,1,-15,-10
-2,6,10,-2,-5,7,5,-1,0,1,-15,-10
-2,5,9,-1,-5,7,4,-2,-1,0,-16,-11
-2,4,8,-1,-5,6,2,-3,-2,0,-16,-11
-2,3,7,0,-4,5,1,-4,-3,0,-16,-12
-2,3,6,0,-4,4,0,-4,-3,-1,-17,-12
-2,2,5,0,-3,3,-2,-5,-4,-1,-17,-13
-2,1,4,0,-3,2,-3,-6,-4,-1,-17,-13
-2,0,4,1,-2,1,-4,-6,-5,-2,-18,-14
-2,0,3,1,-2,1,-4,-7,-5,-2,-18,-15
-2,0,3,1,-2,0,-5,-7,-6,-3,-18,-15
-2,-1,2,1,-1,0,-6,-8,-7,-3,-18,-16
-1,-1,1,1,-1,-1,-6,-9,-8,-4,-19,-16
-1,-2,0,1,0,-1,-6,-9,-8,-4,-19,-17
-1,-2,-1,1,0,-2,-6,-10,-9,-5,-20,-17
-1,-3,-1,2,0,-3,-6,-10,-9,-5,-20,-18
-1,-4,-2,2,1,-4,-6,-11,-10,-6,-21,-19
-1,-5,-2,3,1,-4,-5,-11,-10,-6,-21,-20
-1,-5,-3,3,1,-5,-5,-11,-11,-7,-22,-20
-1,-6,-3,4,1,-5,-4,-11,-11,-7,-22,-21
-1,-6,-4,4,1,-5,-4,-10,-11,-7,-22,-21
-1,-5,-3,3,1,-5,-3,-10,-10,-6,-22,-20
-1,-3,-1,3,0,-3,-2,-9,-9,-5,-21,-20
-2,-2,0,3,0,-2,-1,-8,-8,-4,-20,-19
-2,-2,1,3,-1,-1,0,-7,-8,-4,-20,-19
-3,-2,2,3,-2,0,0,-7,-7,-3,-20,-19
-3,-2,3,3,-2,0,1,-7,-7,-3,-20,-20
-4,-2,3,3,-3,0,1,-7,-7,-3,-20,-20
-5,-2,4,3,-3,0,1,-8,-7,-3,-20,-20
-6,-2,4,4,-4,0,1,-8,-8,-4,-21,-20
-6,-2,4,4,-4,0,0,-9,-8,-4,-21,-21
-6,-2,4,5,-5,0,0,-9,-9,-5,-22,-21
-6,-2,4,5,-5,0,0,-9,-9,-5,-22,-22
-7,-3,4,5,-6,0,0,-9,-9,-5,-22,-23
-7,-3,4,6,-6,0,0,-9,-9,-6,-23,-23
-7,-4,4,6,-6,0,0,-10,-9,-6,-23,-23
-7,-4,4,6,-6,0,0,-10,-10,-6,-23,-23
-8,-4,4,6,-6,0,0,-10,-10,-7,-23,-24
-8,-4,4,6,-6,0,0,-11,-11,-7,-23,-24
-9,-4,5,7,-7,0,0,-11,-11,-7,-23,-24
-10,-5,5,8,-7,0,0,-11,-11,-8,-24,-25
-11,-6,6,9,-8,0,0,-11,-11,-8,-24,-25
-11,-6,6,9,-9,0,1,-11,-11,-8,-24,-25
-12,-7,6,9,-9,0,1,-11,-11,-8,-23,-25
-12,-7,6,9,-9,0,1,-11,-11,-9,-23,-25
-12,-7,6,9,-9,0,1,-11,-11,-9,-23,-25
-12,-7,6,10,-9,0,1,-11,-12,-9,-23,-25
-13,-7,6,10,-9,0,1,-11,-12,-9,-23,-25
-13,-7,6,10,-9,0,1,-11,-11,-9,-23,-25
-13,-7,6,10,-9,0,1,-11,-11,-9,-23,-25
-12,-7,6,10,-9,0,1,-11,-11,-9,-23,-25
-12,-7,6,10,-9,0,1,-11,-11,-9,-23,-25
-13,-8,6,10,-9,-1,1,-11,-12,-9,-23,-25
-13,-9,6,11,-9,-1,1,-11,-12,-9,-23,-25
-13,-8,6,10,-9,-1,1,-11,-12,-9,-22,-25
-13,-8,6,10,-9,-1,1,-11,-11,-9,-22,-25
-13,-8,6,10,-9,-1,1,-11,-11,-9,-22,-25
-13,-8,6,10,-9,-1,1,-11,-11,-9,-22,-24
-13,-8,6,10,-9,-1,1,-11,-11,-9,-22,-24
-13,-8,6,10,-9,-1,2,-11,-11,-9,-22,-24
-13,-8,6,10,-9,-1,2,-10,-11,-9,-22,-24
-13,-8,6,10,-9,-1,3,-9,-10,-8,-22,-24
-12,-7,6,10,-8,-1,3,-6,-8,-6,-21,-23
-10,-6,5,9,-8,-1,4,-2,-4,-2,-18,-21
-8,-4,5,7,-6,0,4,3,2,3,-13,-18
-5,-2,4,4,-4,0,5,11,9,12,-7,-13
-1,1,3,0,-2,1,5,19,18,21,1,-7
4,5,2,-4,1,2,5,29,27,32,11,0
11,9,-1,-10,7,3,5,41,38,45,23,10
21,13,-7,-17,15,2,4,54,50,59,38,21
33,18,-14,-25,24,1,1,67,63,76,54,33
46,22,-23,-34,35,0,-3,75,74,91,70,45
60,26,-33,-42,46,-3,-9,79,81,104,85,57
75,29,-45,-52,60,-8,-17,79,83,114,99,68
94,33,-60,-63,77,-14,-27,77,81,122,112,80
113,37,-75,-75,95,-20,-39,73,76,127,125,90
131,41,-89,-86,110,-25,-51,63,67,126,131,97
144,43,-99,-94,122,-28,-64,47,51,115,127,97
151,45,-104,-98,128,-30,-75,26,29,94,111,88
149,46,-102,-98,126,-29,-82,3,5,67,87,74
143,48,-94,-95,119,-24,-89,-23,-19,40,64,61
134,53,-81,-93,108,-15,-96,-52,-40,16,45,52
121,60,-60,-91,91,-1,-104,-85,-58,-3,30,46
98,68,-28,-83,64,19,-110,-126,-78,-24,14,41
66,74,9,-71,29,41,-112,-172,-101,-49,-5,32
35,76,42,-56,-2,59,-112,-213,-123,-75,-27,20
12,73,62,-43,-24,67,-111,-234,-136,-93,-45,7
-3,67,71,-32,-37,69,-108,-239,-140,-101,-55,-3
-14,61,76,-23,-45,69,-104,-232,-137,-102,-60,-9
-22,56,78,-17,-50,67,-98,-217,-128,-97,-60,-13
-27,49,77,-11,-52,63,-87,-194,-114,-88,-59,-17
-32,42,75,-5,-53,58,-73,-167,-98,-77,-56,-19
-34,36,72,-1,-53,53,-59,-140,-81,-65,-51,-20
-34,32,68,0,-51,49,-47,-116,-66,-53,-45,-19
-33,29,63,1,-48,45,-38,-96,-53,-43,-40,-18
-31,25,57,2,-43,41,-29,-78,-43,-35,-35,-16
-28,22,51,2,-39,36,-22,-63,-34,-28,-31,-15
-26,20,46,3,-35,32,-16,-51,-27,-23,-28,-13
-24,17,42,3,-32,29,-11,-41,-22,-19,-26,-13
-23,14,38,4,-30,25,-7,-33,-18,-17,-24,-13
-22,10,33,5,-27,21,-3,-26,-15,-15,-24,-13
-20,7,29,5,-24,17,0,-19,-13,-14,-23,-13
-18,5,24,6,-21,14,2,-14,-11,-12,-22,-13
-17,3,21,6,-19,12,4,-10,-9,-10,-22,-13
-16,2,18,7,-17,9,5,-7,-8,-9,-21,-13
-15,0,15,8,-15,7,6,-5,-8,-8,-21,-13
-15,-1,13,8,-14,5,7,-3,-7,-8,-21,-13
-15,-3,12,9,-13,4,8,-1,-7,-7,-20,-13
-14,-4,11,9,-13,3,9,0,-6,-7,-20,-13
-14,-5,11,9,-12,2,10,2,-5,-6,-19,-12
-13,-5,10,9,-11,2,10,3,-4,-6,-19,-12
-13,-6,8,9,-10,1,10,4,-3,-5,-18,-11
-12,-6,7,9,-9,0,10,5,-3,-5,-18,-11
-12,-6,6,9,-9,0,11,5,-3,-4,-18,-10
-12,-6,6,9,-9,0,11,6,-3,-4,-18,-10
-12,-6,6,9,-9,0,11,7,-2,-4,-17,-10
-11,-6,6,8,-8,0,11,8,-2,-4,-17,-9
-10,-6,6,8,-8,0,11,9,-1,-3,-16,-9
-11,-6,6,8,-8,-1,11,10,-1,-3,-16,-8
-11,-7,5,9,-8,-1,11,10,0,-3,-16,-8
-11,-7,5,9,-8,-1,11,10,0,-2,-16,-8
-11,-7,5,9,-8,-1,11,10,0,-2,-16,-8
-11,-7,5,9,-7,-1,12,10,0,-2,-15,-7
-10,-6,5,8,-7,-1,12,10,0,-1,-15,-7
-10,-6,5,8,-7,-1,12,10,1,-1,-15,-6
-9,-6,4,8,-7,-1,12,11,1,-1,-14,-6
-9,-6,4,8,-6,-1,12,11,2,0,-14,-5
-9,-6,3,8,-6,-1,12,12,2,0,-14,-5
-9,-6,3,7,-6,-1,13,13,2,0,-13,-4
-8,-6,3,7,-5,-1,13,14,3,0,-13,-4
-8,-6,3,7,-5,-1,13,14,3,0,-13,-3
-8,-6,3,7,-5,-1,14,15,3,0,-13,-3
-8,-6,3,7,-5,-1,14,15,4,0,-13,-2
-8,-6,3,6,-5,-1,14,16,4,0,-13,-2
-8,-6,3,6,-5,-1,14,16,5,1,-12,-2
-8,-6,2,6,-5,-2,14,17,5,1,-12,-2
-8,-6,2,6,-5,-2,14,18,6,1,-11,-1
-8,-6,2,6,-5,-2,14,19,6,2,-11,-1
-7,-6,2,6,-4,-2,14,19,7,2,-11,0
-7,-6,2,6,-4,-2,14,20,7,3,-11,0
-7,-6,2,6,-4,-2,14,21,8,3,-11,0
-7,-7,2,6,-4,-2,14,22,8,3,-11,0
-7,-7,1,6,-4,-2,15,23,9,4,-10,0
-6,-6,1,5,-4,-2,15,24,10,5,-10,0
-5,-5,1,4,-3,-2,15,25,11,5,-9,1
-4,-5,0,4,-2,-2,16,26,12,6,-9,1
-4,-5,0,4,-2,-2,16,27,13,7,-8,1
-4,-5,0,4,-2,-2,16,28,14,8,-8,1
-4,-5,0,4,-2,-2,16,29,14,8,-7,2
-3,-4,0,3,-1,-1,17,31,15,9,-7,2
-2,-4,0,2,-1,-1,17,32,16,10,-6,3
-3,-4,0,3,-1,-2,17,33,17,10,-6,3
-3,-5,0,4,-1,-2,17,35,18,11,-6,3
-4,-6,0,5,-1,-2,17,36,19,11,-5,3
-4,-6,0,4,-1,-2,17,38,20,12,-5,4
-3,-5,0,3,-1,-2,17,40,21,13,-4,4
-3,-5,0,3,-1,-2,17,41,23,14,-4,4
-2,-4,0,2,0,-1,18,43,24,15,-3,5
-1,-3,0,1,0,-1,18,45,26,17,-3,6
0,-2,0,0,0,-1,18,47,27,18,-2,7
1,-2,-1,0,1,-1,18,49,29,19,-1,8
1,-1,-1,-1,1,-1,18,51,30,20,0,8
2,-1,-1,-1,1,0,18,53,32,21,0,9
2,0,-1,-2,1,0,18,55,33,23,1,10
3,0,-1,-3,2,0,19,57,35,24,2,11
3,1,-1,-3,2,0,19,58,36,26,3,12
4,2,0,-4,2,1,19,60,38,27,4,13
5,3,0,-4,3,1,19,62,39,28,5,15
6,4,0,-5,3,2,19,63,41,30,6,16
7,5,0,-6,4,3,19,65,42,31,7,17
8,6,0,-7,4,3,18,66,43,32,8,18
9,7,0,-8,4,4,18,67,44,33,9,19
9,8,0,-9,4,4,18,67,45,34,10,20
10,9,0,-10,5,5,17,68,45,35,11,21
10,10,0,-11,5,5,17,68,46,36,12,22
11,11,1,-12,5,6,16,68,47,37,13,23
12,12,1,-12,6,6,15,68,47,38,15,25
13,13,1,-13,6,7,15,69,48,38,16,26
14,14,1,-14,7,7,15,69,48,39,17,27
14,15,1,-15,7,8,14,68,48,39,18,27
15,15,1,-15,7,8,13,67,48,40,19,28
15,16,1,-16,7,9,12,66,48,40,19,28
16,16,1,-17,8,9,12,65,48,40,20,29
17,17,1,-17,8,10,11,64,48,41,20,29
17,17,1,-17,8,10,10,62,47,41,21,30
17,18,1,-18,8,10,9,61,47,41,21,30
18,18,1,-18,8,10,8,59,46,41,22,31
18,18,1,-18,8,10,7,57,45,40,22,31
18,18,1,-18,8,10,6,55,43,39,22,31
18,18,1,-18,8,10,5,52,42,39,22,31
18,18,1,-19,9,10,4,49,41,38,22,31
19,19,1,-19,9,10,3,46,39,37,22,31
19,19,1,-19,9,10,2,43,37,36,21,30
18,19,1,-19,9,10,1,39,35,34,21,29
18,18,1,-18,8,9,0,36,33,33,20,28
17,17,1,-18,8,9,-1,33,30,31,19,27
17,17,1,-17,8,9,-1,30,27,30,18,26
16,16,1,-17,7,9,-2,26,25,28,17,25
16,16,1,-16,7,9,-3,23,23,26,16,24
15,15,1,-15,7,9,-3,20,21,24,15,23
14,14,1,-14,6,8,-3,17,19,22,13,21
13,13,1,-13,6,8,-3,14,17,20,12,20
12,12,1,-13,5,7,-3,11,14,18,11,18
11,11,1,-12,5,7,-3,9,12,16,9,17
10,10,1,-11,4,6,-3,6,10,14,7,15
9,9,1,-10,4,6,-3,4,7,12,6,14
7,8,1,-8,3,5,-3,2,5,10,4,12
6,7,1,-7,2,5,-3,0,4,8,3,11
5,6,2,-6,1,4,-3,-1,2,6,1,9
4,5,2,-5,1,4,-3,-3,1,5,0,8
3,4,2,-4,0,4,-3,-4,0,4,0,7
2,3,2,-4,0,3,-3,-5,-2,3,-1,6
2,3,2,-3,0,3,-3,-6,-3,2,-2,5
1,2,2,-3,0,3,-3,-7,-4,0,-3,4
0,2,2,-2,-1,2,-3,-8,-5,0,-3,4
0,1,2,-1,-1,2,-2,-9,-5,-1,-4,3
0,1,3,-1,-2,2,-2,-9,-6,-1,-5,3
-1,1,3,-1,-2,2,-2,-10,-6,-2,-5,2
-1,1,3,0,-2,2,-2,-10,-7,-2,-6,1
-2,0,4,0,-3,2,-2,-10,-8,-3,-7,0
-3,0,4,0,-3,2,-2,-10,-8,-3,-7,0
-3,0,4,0,-3,2,-1,-11,-9,-4,-8,-1
-3,0,4,0,-3,2,-1,-11,-9,-4,-8,-1
-3,-1,4,1,-3,2,-1,-11,-9,-4,-8,-2
-3,-1,4,1,-3,2,-1,-11,-9,-5,-8,-2
-4,-1,4,2,-4,2,-1,-11,-9,-5,-9,-2
-4,-2,4,2,-4,1,-1,-12,-9,-6,-9,-3
-5,-2,4,3,-4,1,-1,-12,-9,-6,-10,-3
-5,-2,4,3,-4,1,-1,-12,-9,-6,-10,-3
-5,-2,4,3,-4,1,-1,-12,-9,-6,-11,-3
-5,-2,4,3,-4,1,0,-12,-9,-6,-11,-4
-5,-2,3,3,-4,0,0,-12,-9,-6,-11,-4
-5,-3,3,3,-4,0,0,-12,-9,-6,-11,-4
-5,-3,3,3,-4,0,0,-12,-9,-6,-11,-5
-5,-3,3,3,-4,0,0,-11,-9,-6,-11,-5
-5,-3,3,3,-4,0,1,-11,-9,-6,-11,-5
-5,-3,3,3,-4,0,1,-10,-9,-6,-11,-5
-5,-3,3,3,-4,0,1,-10,-9,-6,-11,-5
-5,-3,3,4,-4,0,1,-10,-9,-6,-12,-5
-5,-3,3,4,-4,0,1,-10,-9,-6,-12,-5
-5,-3,3,4,-3,0,2,-10,-8,-6,-12,-5
-5,-3,2,4,-3,0,2,-10,-8,-6,-12,-5
-5,-3,2,4,-3,0,2,-10,-8,-6,-12,-5
-5,-4,2,4,-3,0,2,-9,-8,-6,-12,-5
-5,-3,2,4,-3,0,2,-9,-8,-6,-12,-5
-5,-3,2,3,-3,0,2,-9,-7,-5,-12,-5
-4,-2,2,3,-3,0,2,-9,-7,-5,-12,-5
-5,-3,2,3,-3,0,2,-9,-7,-5,-13,-5
-5,-3,2,4,-3,-1,2,-8,-7,-5,-13,-5
-5,-4,2,4,-3,-1,2,-8,-7,-5,-13,-5
-6,-4,2,4,-3,-1,2,-8,-7,-5,-13,-5
-6,-5,2,5,-3,-1,2,-8,-7,-5,-12,-5
-6,-5,2,5,-3,-1,2,-7,-7,-5,-12,-5
-6,-4,2,4,-3,-1,2,-7,-7,-5,-12,-4
-5,-4,2,4,-3,-1,2,-7,-6,-5,-12,-4
-5,-3,2,3,-3,-1,2,-7,-6,-5,-12,-4
-5,-3,2,3,-3,-1,2,-7,-6,-5,-12,-4
-5,-3,2,4,-3,0,2,-7,-6,-5,-12,-4
-5,-3,2,4,-3,0,2,-7,-6,-5,-11,-3
-4,-3,2,3,-3,0,2,-7,-6,-5,-11,-3
-4,-2,2,3,-2,0,2,-7,-6,-5,-10,-2
-4,-2,2,3,-3,0,2,-7,-6,-5,-10,-2
-4,-3,2,3,-3,0,2,-7,-6,-5,-10,-2
-5,-3,2,3,-4,0,2,-7,-6,-5,-10,-2
-5,-3,2,4,-4,0,2,-7,-6,-5,-10,-2
-5,-3,3,4,-4,0,2,-7,-6,-5,-10,-2
-5,-3,3,4,-4,0,2,-7,-6,-5,-10,-2
-5,-3,2,4,-4,0,2,-7,-6,-5,-10,-2
-4,-3,2,4,-3,0,2,-7,-6,-5,-10,-2
-4,-3,2,4,-3,0,2,-7,-6,-5,-10,-2
-5,-3,2,4,-3,0,1,-8,-7,-5,-10,-2
-5,-3,2,4,-3,0,1,-8,-7,-5,-10,-2
-5,-3,2,4,-3,0,1,-8,-7,-5,-10,-2
-5,-3,2,4,-3,0,2,-8,-7,-5,-9,-2
-5,-3,2,4,-3,0,2,-8,-7,-5,-9,-2
-5,-3,1,4,-3,0,2,-8,-7,-5,-9,-2
-4,-3,1,4,-3,0,2,-8,-7,-5,-9,-2
-5,-3,1,4,-3,0,2,-8,-7,-5,-9,-2
-5,-3,1,4,-3,0,2,-8,-7,-5,-9,-2
-4,-3,1,4,-3,0,2,-8,-7,-5,-9,-2
-4,-3,1,4,-3,0,2,-8,-7,-5,-9,-2
-4,-4,1,4,-3,-1,2,-8,-7,-5,-9,-2
-4,-4,1,4,-2,-1,3,-8,-7,-5,-9,-2
-4,-5,0,4,-2,-2,3,-8,-7,-5,-9,-2
-4,-5,0,5,-2,-2,3,-8,-7,-5,-9,-2
-5,-5,0,5,-2,-2,3,-9,-8,-5,-9,-2
-5,-5,0,5,-2,-2,3,-9,-8,-5,-10,-2
-5,-5,0,5,-2,-2,4,-9,-8,-5,-10,-2
-5,-5,0,5,-2,-2,4,-9,-8,-6,-10,-2
-5,-5,0,5,-2,-2,4,-9,-8,-6,-11,-2
-4,-5,-1,5,-1,-2,5,-8,-8,-6,-11,-2
-4,-4,-1,4,-1,-2,5,-8,-8,-6,-10,-2
-4,-5,-1,5,-1,-2,5,-8,-8,-6,-10,-3
-5,-5,0,5,-1,-2,5,-8,-7,-6,-11,-3
-5,-5,0,5,-2,-2,5,-8,-7,-5,-11,-3
-5,-5,0,5,-2,-1,5,-8,-7,-5,-11,-2
-4,-4,0,4,-1,-1,5,-8,-6,-4,-11,-2
-3,-3,0,3,-1,-1,5,-7,-6,-4,-10,-2
-2,-2,0,3,-1,0,5,-7,-6,-3,-10,-1
-1,-1,0,2,-1,0,5,-6,-5,-3,-10,-1
-1,-1,0,1,-1,0,5,-6,-5,-2,-9,-1
-1,0,1,1,0,1,6,-5,-4,-2,-9,0
0,0,1,0,0,1,6,-5,-4,-1,-8,0
0,0,1,0,0,1,6,-4,-3,-1,-8,1
0,1,1,0,0,2,6,-4,-3,0,-7,1
1,2,1,-1,0,2,6,-3,-2,0,-7,2
1,2,1,-1,0,3,7,-3,-2,0,-6,2
0,2,1,-1,0,3,8,-3,-2,1,-6,2
0,2,2,-1,-1,3,8,-2,-1,1,-6,2
0,2,2,-1,-1,3,9,-2,-1,2,-6,2
0,2,2,-1,0,3,9,-1,0,2,-6,2
1,3,2,-2,0,3,9,-1,0,2,-6,2
1,3,2,-2,0,3,8,-1,0,2,-6,2
1,3,2,-2,0,3,7,-1,0,2,-5,2
1,3,2,-2,0,3,6,-2,0,2,-5,2
2,3,1,-2,0,3,5,-3,0,2,-5,2
2,2,0,-1,1,2,3,-3,-1,1,-5,2
2,1,0,-1,1,1,2,-4,-1,1,-5,1
2,0,-2,-1,2,0,0,-4,-2,1,-5,1
2,0,-3,0,3,-1,-1,-5,-2,0,-5,0
2,-2,-5,0,4,-3,-2,-5,-3,0,-6,0
2,-3,-5,0,4,-4,-3,-6,-4,0,-6,0
2,-4,-5,1,4,-4,-3,-6,-5,-1,-7,-1
2,-4,-6,1,4,-4,-4,-7,-5,-1,-8,-1
2,-4,-7,1,5,-5,-4,-7,-6,-2,-9,-2
2,-5,-7,2,5,-5,-5,-8,-6,-3,-9,-3
2,-6,-8,2,6,-6,-5,-9,-7,-3,-9,-3
3,-6,-9,2,6,-7,-5,-9,-7,-4,-10,-4
2,-7,-9,2,6,-8,-5,-10,-8,-4,-10,-5
1,-9,-10,3,6,-9,-5,-10,-9,-5,-11,-6
1,-10,-10,4,7,-10,-5,-11,-10,-6,-12,-7
1,-11,-11,4,7,-10,-5,-11,-10,-7,-13,-7
1,-11,-12,4,7,-11,-4,-11,-11,-7,-13,-8
2,-11,-12,4,7,-10,-3,-11,-11,-7,-13,-8
2,-10,-11,4,6,-10,-2,-10,-10,-7,-13,-8
1,-9,-10,4,5,-9,-1,-10,-9,-6,-12,-7
0,-9,-8,4,4,-8,0,-9,-8,-6,-12,-7
-1,-8,-6,4,3,-7,0,-9,-8,-5,-11,-6
-1,-8,-5,4,3,-6,1,-8,-8,-4,-11,-6
-1,-7,-5,4,2,-6,1,-8,-7,-4,-11,-6
-2,-7,-4,5,2,-6,1,-9,-7,-4,-11,-6
-3,-8,-4,6,1,-6,1,-9,-8,-5,-11,-6
-4,-8,-4,7,0,-5,1,-10,-8,-5,-11,-6
-4,-8,-4,7,0,-5,1,-10,-8,-5,-11,-6
-4,-8,-4,7,0,-5,1,-10,-9,-5,-12,-6
-5,-8,-3,7,0,-5,1,-10,-9,-6,-12,-7
-5,-9,-3,7,0,-5,1,-10,-10,-7,-12,-7
-6,-9,-2,7,-1,-5,1,-10,-10,-7,-12,-7
-6,-10,-2,8,-1,-5,1,-10,-10,-7,-12,-7
-6,-10,-2,8,-1,-5,1,-11,-10,-7,-12,-7
-6,-10,-2,8,-1,-5,1,-11,-10,-7,-12,-8
-7,-10,-2,9,-1,-5,1,-11,-10,-8,-13,-8
-9,-11,-2,10,-2,-6,1,-12,-11,-8,-14,-9
-10,-12,-1,11,-3,-6,1,-12,-11,-9,-14,-10
-10,-12,-1,11,-4,-6,1,-12,-11,-9,-15,-11
-10,-12,-1,11,-4,-6,2,-12,-11,-9,-15,-11
-10,-11,0,11,-4,-6,2,-12,-11,-9,-15,-11
-10,-11,0,11,-4,-6,2,-12,-11,-9,-15,-11
-11,-12,0,11,-5,-6,3,-12,-11,-10,-15,-12
-11,-11,0,11,-5,-5,3,-12,-11,-10,-15,-12
-10,-11,0,11,-5,-5,4,-12,-11,-10,-15,-11
-10,-10,0,10,-5,-4,4,-12,-11,-10,-15,-11
-10,-10,0,10,-5,-4,4,-12,-11,-10,-15,-11
-10,-10,0,10,-5,-4,4,-12,-11,-10,-15,-11
-11,-11,0,11,-5,-4,4,-12,-11,-10,-15,-11
-11,-11,0,11,-5,-4,4,-13,-11,-10,-14,-11
-11,-11,0,11,-5,-4,4,-13,-11,-10,-14,-11
-11,-11,0,11,-5,-4,4,-12,-11,-10,-14,-11
-11,-11,0,11,-5,-5,4,-12,-11,-11,-14,-11
-12,-11,0,12,-5,-5,4,-12,-12,-11,-14,-11
-12,-11,0,12,-5,-5,4,-12,-12,-11,-14,-11
-12,-11,0,12,-5,-5,4,-12,-12,-11,-14,-11
-11,-11,0,12,-5,-5,4,-12,-12,-11,-14,-11
-11,-11,0,11,-5,-5,5,-12,-11,-10,-14,-11
-11,-11,0,11,-5,-5,5,-10,-10,-9,-13,-10
-11,-11,0,11,-5,-5,5,-8,-8,-8,-13,-10
-11,-11,0,11,-5,-5,6,-5,-5,-5,-11,-9
-9,-10,0,10,-4,-5,6,0,0,0,-8,-7
-6,-8,0,7,-2,-4,7,7,6,6,-3,-3
-3,-5,-1,4,0,-3,7,16,14,14,4,1
2,-1,-1,0,2,-1,7,25,22,23,12,7
8,4,-3,-5,7,0,7,37,31,34,22,14
17,9,-8,-12,13,0,7,51,43,47,35,24
29,13,-15,-21,22,0,5,64,55,62,49,35
42,18,-23,-30,33,-2,0,74,67,78,65,46
56,22,-33,-39,46,-5,-5,79,76,92,80,58
72,26,-46,-49,60,-9,-12,80,79,103,94,69
90,28,-61,-59,77,-16,-21,79,78,110,106,79
110,30,-79,-70,96,-24,-32,75,73,114,118,89
130,33,-96,-81,114,-31,-46,66,65,115,126,96
146,35,-109,-90,128,-37,-60,51,50,107,126,98
155,37,-117,-96,137,-40,-71,32,30,89,113,91
158,38,-119,-98,139,-40,-80,9,6,63,92,79
154,39,-113,-97,135,-36,-87,-17,-18,37,68,66
147,43,-103,-95,126,-29,-95,-45,-39,13,49,56
138,49,-88,-94,114,-18,-104,-76,-58,-6,34,50
121,57,-63,-89,94,-3,-112,-113,-77,-25,22,46
92,64,-27,-78,61,18,-117,-160,-97,-47,6,41
57,68,12,-63,23,40,-119,-208,-119,-71,-13,31
27,68,41,-48,-6,55,-119,-241,-136,-91,-32,19
7,63,57,-35,-24,61,-117,-254,-143,-102,-45,8
-6,58,65,-26,-35,62,-113,-250,-142,-105,-51,1
-14,54,69,-20,-41,62,-106,-236,-134,-101,-53,-3
-20,49,70,-14,-45,60,-96,-213,-121,-93,-52,-7
-26,42,69,-8,-47,56,-82,-185,-105,-83,-50,-10
-31,35,68,-2,-49,51,-66,-156,-88,-72,-46,-12
-33,30,65,1,-48,47,-52,-129,-72,-60,-41,-13
-33,26,61,3,-46,44,-41,-107,-59,-49,-36,-12
-32,23,56,4,-43,40,-32,-88,-47,-40,-31,-11
-30,20,51,5,-39,36,-24,-71,-38,-32,-27,-10
-28,18,46,5,-36,33,-17,-57,-30,-26,-23,-9
-26,15,41,5,-33,29,-11,-46,-24,-22,-21,-8
-24,13,37,5,-30,25,-7,-37,-20,-20,-19,-8
-22,9,32,6,-27,21,-3,-29,-17,-18,-19,-9
-21,6,28,7,-24,17,0,-23,-14,-17,-18,-10
-20,3,23,8,-21,14,3,-17,-12,-15,-18,-10
-19,0,19,9,-19,11,6,-13,-11,-14,-17,-11
-18,-1,16,9,-17,8,7,-9,-9,-12,-17,-11
-17,-3,14,10,-15,6,9,-6,-8,-11,-16,-12
-17,-4,12,10,-14,4,10,-4,-7,-10,-16,-12
-16,-6,10,11,-13,3,11,-1,-6,-10,-16,-13
-15,-7,9,11,-12,1,12,0,-5,-9,-16,-13
-15,-8,8,11,-11,0,12,2,-4,-9,-16,-14
-14,-9,7,11,-10,0,13,4,-3,-8,-16,-14
-14,-9,6,11,-9,-1,13,5,-3,-8,-16,-15
-14,-9,6,11,-8,-1,14,5,-3,-8,-16,-15
-14,-9,5,11,-8,-1,14,6,-3,-8,-16,-15
-13,-9,4,11,-8,-1,14,6,-2,-8,-16,-15
-13,-9,4,11,-8,-2,14,7,-2,-8,-16,-15
-13,-10,3,11,-8,-2,15,7,-2,-8,-16,-15
-13,-10,3,12,-7,-3,15,8,-2,-8,-16,-14
-13,-10,3,11,-7,-3,15,8,-1,-7,-16,-14
-13,-11,3,11,-7,-3,15,9,-1,-7,-16,-13
-13,-11,2,11,-7,-3,15,9,0,-6,-16,-13
-13,-11,2,11,-7,-3,15,9,0,-6,-15,-12
-12,-11,2,11,-7,-3,15,10,0,-6,-15,-12
-12,-11,2,11,-7,-3,15,10,1,-5,-15,-11
-12,-11,2,11,-6,-3,15,10,1,-5,-15,-11
-12,-12,2,11,-6,-4,15,11,1,-5,-15,-10
-12,-12,1,11,-6,-4,15,11,1,-5,-15,-10
-12,-11,1,11,-6,-4,15,12,2,-5,-15,-9
-12,-11,1,11,-5,-4,15,12,2,-5,-15,-9
-11,-10,1,11,-5,-4,15,13,3,-5,-15,-8
-11,-10,1,11,-5,-4,15,13,3,-5,-15,-8
-11,-10,1,11,-5,-4,15,14,3,-5,-15,-7
-11,-10,1,10,-5,-4,15,15,4,-5,-14,-7
-10,-10,1,10,-4,-4,15,16,4,-5,-14,-7
-10,-9,0,9,-4,-4,15,17,5,-5,-14,-6
-10,-9,0,9,-4,-4,15,18,5,-5,-13,-6
-10,-10,0,9,-4,-4,15,19,6,-4,-13,-5
-10,-10,0,10,-4,-5,16,20,7,-4,-12,-5
-10,-11,-1,10,-4,-5,16,20,7,-3,-12,-4
-10,-12,-1,11,-4,-6,16,20,8,-3,-11,-4
-10,-12,-1,11,-3,-6,16,21,9,-2,-11,-3
-9,-12,-1,10,-3,-6,17,22,10,-1,-10,-3
-9,-11,-2,10,-3,-6,17,24,11,0,-10,-2
-9,-11,-2,10,-2,-6,18,25,11,0,-9,-1
-9,-11,-3,10,-2,-6,18,26,12,0,-8,-1
-8,-11,-3,10,-2,-7,18,27,12,0,-8,0
-8,-11,-3,10,-2,-7,18,27,13,1,-8,0
-8,-11,-3,9,-1,-7,18,28,14,1,-7,0
-7,-11,-3,9,-1,-7,18,29,15,2,-7,0
-7,-11,-3,8,-1,-7,19,30,16,3,-6,0
-7,-11,-3,8,-1,-7,19,32,17,4,-6,1
-6,-11,-3,8,0,-7,19,34,18,5,-6,1
-6,-10,-3,8,0,-7,19,36,19,6,-5,2
-5,-10,-3,7,0,-7,19,37,20,7,-5,2
-5,-10,-3,7,0,-7,20,39,21,7,-4,2
-5,-9,-3,7,0,-7,20,40,22,8,-4,2
-4,-9,-3,7,0,-6,20,42,23,9,-3,3
-3,-8,-3,6,0,-6,21,44,25,10,-2,3
-3,-8,-3,6,0,-6,21,46,27,12,-2,4
-3,-7,-3,5,1,-6,21,48,28,13,-1,5
-2,-7,-3,5,1,-6,21,50,30,14,0,6
-1,-6,-3,4,2,-5,22,52,32,16,0,7
0,-5,-3,3,2,-5,22,54,34,18,2,8
0,-4,-3,2,3,-4,22,56,35,19,3,9
0,-4,-4,2,3,-4,22,57,36,21,4,10
1,-3,-4,1,3,-3,22,59,37,22,5,11
1,-2,-4,0,3,-3,22,60,39,23,6,12
2,-2,-4,0,3,-2,22,62,41,25,7,13
2,-1,-3,-1,3,-2,22,64,43,26,9,13
3,-1,-3,-1,3,-2,22,65,44,28,10,14
3,0,-3,-2,3,-1,21,65,45,29,11,15
3,0,-3,-2,3,-1,21,66,46,30,12,15
4,1,-2,-3,4,0,20,66,46,31,13,16
5,3,-2,-4,4,1,20,67,47,33,14,17
7,4,-2,-6,5,2,19,68,48,34,15,18
7,5,-1,-7,5,2,19,68,49,35,15,18
8,6,-1,-7,5,3,18,69,50,36,16,18
8,7,-1,-8,5,3,17,69,50,37,17,19
9,8,-1,-9,6,4,16,69,51,38,18,19
10,9,0,-10,6,4,16,68,51,39,18,19
11,10,0,-10,6,5,15,68,51,39,19,19
11,11,0,-11,6,5,15,67,51,39,19,19
12,11,0,-12,7,6,14,66,51,40,19,19
12,12,0,-12,7,6,13,64,51,40,19,19
12,12,0,-12,7,6,12,63,51,39,19,19
12,13,0,-12,7,7,11,62,50,39,19,19
13,13,1,-13,7,7,10,60,50,39,19,19
13,14,1,-13,7,8,9,57,49,38,19,19
13,14,1,-13,7,8,8,55,47,38,19,19
13,14,1,-13,7,8,6,52,46,37,20,19
13,13,1,-13,7,8,5,49,44,37,20,19
13,14,1,-13,7,8,4,46,43,36,20,19
14,14,0,-14,8,8,3,43,41,35,20,19
14,14,0,-14,8,7,1,40,39,34,20,19
14,14,0,-14,8,7,0,37,37,33,20,19
14,13,0,-14,8,7,0,34,35,31,20,18
14,13,0,-14,8,7,0,30,32,30,19,17
13,12,0,-13,7,7,-1,26,30,28,18,16
13,12,0,-12,7,6,-1,23,27,26,17,14
12,11,0,-12,7,6,-2,20,25,24,16,13
11,10,0,-11,6,5,-2,17,23,22,14,11
9,9,0,-9,5,5,-3,15,20,20,13,10
8,8,0,-8,5,4,-3,12,18,18,11,8
7,7,0,-7,4,4,-3,10,15,15,10,7
6,5,0,-5,4,3,-3,7,13,13,8,6
5,4,0,-4,3,2,-3,5,11,11,7,4
4,4,0,-4,3,2,-3,3,9,9,5,3
4,3,0,-3,3,2,-3,1,8,7,4,1
2,2,0,-2,2,1,-2,-1,6,6,2,0
1,1,0,-1,1,1,-2,-2,5,4,0,-1
0,0,0,0,0,1,-2,-3,3,3,-1,-3
0,0,0,0,0,0,-1,-4,1,1,-2,-4
-2,-1,0,2,0,0,-1,-6,0,-1,-4,-6
-3,-3,0,3,-1,0,-1,-7,-2,-3,-5,-7
-3,-3,1,3,-1,0,0,-9,-3,-4,-6,-7
-4,-4,1,4,-2,-1,0,-10,-4,-5,-7,-8
-5,-5,1,5,-2,-1,0,-11,-4,-6,-8,-9
-6,-6,1,6,-3,-2,0,-11,-5,-6,-9,-10
-7,-6,1,6,-3,-2,0,-11,-5,-7,-9,-10
-7,-7,1,7,-3,-2,0,-11,-6,-7,-9,-11
-7,-7,1,7,-3,-2,0,-11,-6,-8,-9,-11
-7,-7,1,7,-3,-3,0,-11,-6,-8,-9,-11
-8,-8,1,7,-4,-3,0,-12,-6,-9,-10,-11
-8,-8,1,8,-4,-3,1,-12,-6,-9,-10,-10
-8,-8,1,8,-4,-3,1,-12,-6,-9,-10,-10
-9,-9,1,8,-4,-3,1,-12,-6,-10,-10,-10
-9,-9,0,9,-4,-4,1,-12,-7,-10,-11,-10
-9,-9,0,9,-3,-4,1,-12,-7,-10,-11,-10
-8,-9,0,9,-3,-4,2,-11,-7,-10,-11,-10
-8,-9,0,9,-3,-4,2,-11,-7,-10,-11,-10
-9,-9,0,9,-4,-4,2,-11,-7,-11,-11,-10
-9,-9,0,10,-4,-4,2,-11,-7,-11,-11,-10
-9,-9,0,10,-4,-4,2,-11,-7,-11,-11,-10
-9,-9,0,10,-4,-4,2,-11,-7,-11,-11,-10
-9,-9,0,10,-4,-4,2,-11,-7,-11,-12,-10
-9,-9,0,9,-4,-4,2,-11,-7,-11,-12,-11
-8,-9,0,9,-4,-4,2,-11,-7,-11,-13,-12
-8,-9,0,9,-4,-4,3,-11,-7,-11,-13,-12
-9,-9,0,9,-4,-4,4,-11,-7,-11,-14,-12
-9,-9,0,9,-4,-4,4,-11,-7,-11,-14,-12
-10,-9,0,9,-4,-4,5,-11,-7,-11,-15,-12
-10,-9,0,9,-4,-4,5,-11,-6,-11,-15,-12
-10,-9,0,10,-4,-4,5,-11,-6,-11,-15,-12
-10,-10,0,10,-4,-4,5,-10,-6,-12,-16,-13
-10,-10,0,10,-4,-4,5,-10,-6,-12,-16,-13
-10,-10,0,10,-5,-4,5,-10,-6,-12,-16,-12
-10,-10,0,10,-5,-4,5,-10,-6,-12,-15,-12
-10,-10,0,10,-5,-4,5,-10,-6,-11,-15,-11
-10,-10,1,10,-5,-4,5,-9,-6,-11,-14,-11
-10,-10,1,10,-5,-4,5,-9,-5,-10,-13,-10
-10,-9,1,10,-5,-4,5,-8,-5,-10,-12,-9
-9,-9,1,9,-5,-3,5,-8,-4,-9,-12,-9
-9,-9,1,9,-5,-3,5,-7,-4,-9,-11,-8
-8,-9,1,8,-5,-3,5,-7,-3,-9,-11,-8
-8,-9,1,9,-5,-3,5,-7,-3,-9,-11,-8
-9,-9,1,9,-5,-3,5,-7,-4,-9,-11,-8
-9,-9,1,10,-5,-3,5,-7,-4,-10,-11,-8
-10,-9,0,10,-5,-3,5,-7,-4,-10,-11,-9
-10,-9,0,10,-4,-3,5,-7,-4,-10,-11,-9
-10,-9,0,9,-4,-3,5,-7,-4,-10,-11,-9
-10,-9,0,10,-5,-4,5,-7,-4,-10,-11,-9
-10,-10,0,10,-5,-4,5,-7,-4,-10,-11,-9
-9,-10,0,10,-5,-4,5,-7,-4,-10,-11,-9
-9,-9,0,10,-5,-4,5,-7,-4,-10,-11,-8
-8,-8,0,9,-5,-3,6,-7,-4,-10,-11,-7
-8,-7,0,8,-4,-3,6,-7,-3,-10,-10,-7
-8,-7,1,8,-4,-3,6,-7,-3,-10,-10,-6
-9,-8,1,8,-5,-3,6,-8,-4,-11,-10,-7
-9,-9,1,9,-5,-3,6,-8,-4,-11,-11,-7
-10,-9,1,9,-5,-3,6,-8,-4,-11,-11,-7
-10,-9,1,9,-5,-3,6,-8,-4,-11,-11,-7
-9,-9,1,9,-5,-3,6,-8,-4,-10,-11,-7
-9,-8,1,9,-5,-3,6,-8,-4,-10,-12,-7
-9,-8,1,9,-5,-3,6,-8,-4,-10,-12,-7
-9,-8,1,9,-5,-3,6,-8,-4,-11,-12,-7
-9,-8,0,9,-5,-3,6,-8,-4,-11,-12,-7
-9,-8,0,9,-5,-3,6,-7,-4,-11,-12,-7
-8,-8,0,8,-4,-3,6,-7,-4,-11,-12,-7
-8,-8,0,8,-4,-3,6,-7,-4,-10,-11,-6
-8,-9,0,9,-4,-4,6,-7,-4,-10,-11,-6
-8,-10,0,9,-4,-4,6,-7,-4,-10,-11,-6
-9,-10,0,10,-4,-4,6,-7,-4,-10,-11,-6
-9,-10,0,9,-4,-4,6,-7,-4,-10,-11,-5
-9,-9,0,9,-4,-4,6,-7,-4,-10,-11,-5
-9,-9,0,9,-4,-4,6,-8,-5,-11,-11,-5
-9,-9,0,9,-4,-4,6,-8,-5,-11,-11,-5
-9,-9,0,9,-4,-4,6,-8,-5,-11,-11,-5
-9,-10,0,9,-4,-4,6,-8,-5,-11,-11,-5
-9,-10,0,9,-4,-4,6,-8,-5,-11,-11,-5
-10,-10,0,10,-4,-4,7,-8,-5,-11,-12,-5
-9,-10,0,10,-4,-4,7,-8,-5,-11,-12,-5
-9,-9,0,9,-4,-4,7,-8,-5,-11,-12,-4
-8,-9,0,9,-4,-4,7,-8,-5,-11,-12,-4
-9,-10,0,10,-5,-5,7,-8,-5,-12,-12,-4
-10,-11,0,10,-5,-5,7,-8,-6,-12,-12,-5
-9,-11,0,10,-5,-5,7,-7,-6,-12,-12,-5
-9,-10,0,9,-5,-4,7,-7,-5,-11,-12,-4
-9,-10,0,9,-5,-4,7,-7,-5,-11,-12,-4
-8,-9,0,8,-5,-4,7,-7,-4,-10,-12,-3
-8,-8,0,8,-5,-3,7,-7,-4,-10,-12,-3
-8,-7,1,7,-4,-2,7,-7,-4,-9,-12,-3
-7,-6,1,6,-4,-2,7,-6,-3,-9,-11,-2
-7,-6,1,6,-4,-1,7,-6,-3,-8,-11,-2
-6,-6,1,6,-4,-1,7,-5,-2,-8,-10,-1
-6,-5,1,5,-4,-1,7,-4,-1,-7,-10,-1
-5,-4,1,5,-3,-1,7,-4,0,-7,-9,-1
-5,-4,1,5,-3,-1,7,-3,0,-6,-8,0
-4,-3,1,4,-3,0,8,-3,1,-6,-8,0
-4,-3,2,4,-3,0,9,-2,1,-5,-8,0
-5,-2,2,4,-3,0,9,-2,2,-5,-8,0
-5,-2,2,4,-3,0,10,-1,2,-5,-7,0
-4,-2,2,3,-3,1,10,-1,2,-4,-7,0
-4,-1,2,3,-3,1,10,0,2,-4,-7,0
-4,-2,2,3,-3,1,9,-1,2,-4,-7,0
-4,-2,2,3,-3,0,8,-1,2,-4,-8,0
-4,-3,2,3,-3,0,7,-1,2,-4,-8,-1
-4,-3,2,3,-3,0,6,-2,1,-5,-8,-1
-4,-3,1,3,-2,0,4,-2,0,-5,-8,-2
-4,-4,0,4,-2,-1,3,-3,0,-6,-9,-2
-4,-5,-1,4,-1,-2,1,-4,0,-6,-9,-3
-4,-6,-2,5,-1,-3,0,-5,-1,-7,-10,-4
-3,-7,-3,5,0,-4,-1,-5,-2,-7,-10,-4
-3,-7,-4,5,0,-5,-2,-6,-2,-7,-10,-4
-2,-7,-4,5,0,-5,-2,-6,-2,-7,-10,-5
-2,-7,-5,5,1,-5,-2,-6,-3,-7,-10,-5
-1,-8,-5,5,1,-6,-3,-7,-3,-8,-10,-6
-2,-9,-6,6,1,-6,-3,-8,-4,-9,-11,-7
-2,-10,-7,7,1,-7,-4,-9,-5,-9,-12,-8
-2,-10,-7,7,2,-8,-4,-10,-6,-10,-13,-9
-1,-10,-8,6,2,-8,-3,-10,-7,-10,-13,-10
-1,-10,-8,6,3,-8,-3,-10,-7,-11,-14,-10
-1,-11,-8,7,3,-9,-3,-10,-8,-11,-14,-11
-2,-13,-9,8,3,-11,-3,-11,-9,-12,-15,-12
-3,-13,-9,9,3,-11,-3,-11,-9,-12,-15,-13
-3,-13,-10,9,3,-11,-2,-11,-9,-12,-16,-13
-3,-12,-10,8,3,-11,-1,-10,-9,-12,-15,-13
-2,-11,-9,7,2,-9,0,-9,-8,-11,-15,-12
-3,-10,-7,7,1,-8,0,-9,-7,-10,-14,-12
-4,-9,-6,7,0,-7,1,-8,-6,-10,-14,-12
-5,-9,-5,8,0,-6,2,-8,-6,-9,-14,-12
-5,-10,-4,8,-1,-6,2,-8,-6,-9,-14,-12
-6,-10,-3,8,-1,-5,2,-8,-6,-9,-14,-12
-6,-9,-3,8,-1,-5,2,-8,-6,-9,-14,-12
-6,-9,-3,8,-1,-5,2,-8,-6,-9,-14,-13
-6,-9,-3,8,-2,-5,2,-9,-6,-10,-15,-13
-7,-9,-2,8,-2,-5,2,-9,-7,-10,-15,-14
-7,-9,-2,8,-2,-5,2,-10,-7,-11,-15,-14
-8,-9,-2,8,-3,-5,2,-10,-8,-12,-15,-15
-8,-10,-1,9,-3,-5,2,-10,-8,-12,-15,-15
-9,-10,-1,9,-4,-5,2,-10,-8,-12,-15,-16
-9,-10,-1,9,-4,-5,2,-10,-8,-12,-15,-16
-9,-10,-1,10,-4,-5,3,-10,-9,-13,-15,-17
-9,-10,-1,10,-5,-5,3,-10,-9,-13,-15,-18
-9,-10,0,10,-5,-5,3,-10,-9,-14,-15,-18
-9,-10,0,10,-5,-5,4,-10,-9,-14,-15,-19
-10,-11,0,10,-5,-5,4,-10,-9,-15,-15,-19
-11,-11,0,11,-5,-5,4,-10,-9,-15,-15,-19
-11,-11,0,11,-5,-5,4,-10,-9,-14,-15,-19
-11,-11,0,11,-6,-5,4,-10,-9,-14,-16,-19
-11,-11,0,11,-6,-5,4,-10,-9,-14,-16,-19
-11,-12,0,12,-6,-5,4,-11,-9,-14,-17,-19
-12,-13,0,12,-6,-6,4,-11,-10,-15,-17,-19
-13,-13,0,13,-6,-6,4,-11,-10,-15,-17,-19
-13,-13,0,13,-6,-6,4,-11,-10,-15,-17,-19
-13,-13,0,13,-6,-6,4,-11,-10,-15,-18,-19
-13,-13,0,13,-7,-6,4,-11,-10,-15,-18,-19
-13,-13,0,13,-7,-6,4,-11,-10,-15,-19,-19
-13,-12,0,13,-7,-6,4,-11,-10,-15,-19,-19
-13,-12,0,13,-7,-6,4,-11,-10,-15,-19,-20
-13,-13,0,13,-7,-6,4,-11,-10,-16,-19,-20
-13,-13,0,14,-7,-6,4,-10,-10,-16,-19,-20
-13,-13,0,14,-7,-6,4,-10,-10,-16,-19,-20
-14,-14,0,14,-7,-6,4,-10,-10,-16,-19,-20
-14,-14,0,14,-7,-6,4,-10,-10,-16,-20,-21
-15,-15,0,15,-8,-6,4,-10,-10,-16,-20,-21
-14,-14,0,14,-8,-6,5,-9,-9,-15,-19,-21
-13,-13,0,13,-7,-6,5,-7,-7,-14,-18,-21
-12,-13,0,13,-7,-6,6,-5,-4,-11,-16,-20
-11,-12,-1,11,-6,-6,6,0,0,-6,-12,-18
-8,-10,-1,9,-4,-5,6,6,7,1,-7,-14
-5,-7,-2,6,-2,-4,7,14,15,10,0,-8
0,-4,-3,1,1,-3,7,23,24,20,10,-1
6,0,-5,-3,5,-2,7,34,34,32,21,7
15,5,-9,-10,12,-2,6,47,46,46,34,17
26,9,-16,-18,20,-3,4,61,59,62,49,29
39,14,-24,-26,31,-4,1,72,71,78,66,41
52,19,-33,-35,42,-6,-4,78,81,93,82,53
68,23,-44,-45,55,-9,-11,80,85,105,97,65
85,27,-58,-56,71,-14,-20,79,85,113,111,76
105,30,-73,-67,89,-20,-31,76,81,120,124,87
123,34,-88,-79,106,-26,-42,69,74,122,134,96
138,37,-100,-87,119,-30,-55,55,61,116,134,98
147,38,-107,-92,126,-33,-67,36,42,99,123,93
149,39,-109,-94,128,-33,-76,14,18,74,102,81
145,41,-103,-93,123,-30,-83,-11,-5,46,77,66
137,45,-92,-91,114,-22,-90,-38,-27,20,55,54
126,51,-75,-89,100,-11,-97,-68,-47,-1,38,47
108,59,-48,-84,79,6,-104,-104,-65,-20,24,41
80,67,-12,-74,46,28,-107,-147,-86,-43,6,34
47,72,26,-60,11,49,-108,-191,-109,-69,-16,22
19,71,53,-45,-16,62,-107,-222,-128,-92,-37,8
0,65,66,-32,-33,66,-104,-234,-137,-105,-51,-5
-13,58,73,-22,-44,67,-101,-233,-137,-109,-59,-13
-23,52,76,-14,-50,65,-96,-223,-131,-107,-61,-19
-29,46,76,-8,-53,62,-89,-205,-121,-101,-61,-24
-34,39,74,-2,-54,58,-77,-180,-106,-90,-59,-27
-36,33,71,2,-54,53,-63,-153,-89,-78,-54,-29
-37,29,67,4,-52,48,-50,-127,-73,-66,-49,-29
-36,25,62,6,-50,44,-40,-105,-59,-55,-43,-28
-34,22,57,6,-46,40,-32,-87,-47,-46,-38,-26
-32,18,50,7,-42,35,-24,-71,-38,-38,-33,-25
-30,15,45,7,-38,31,-17,-57,-30,-32,-29,-24
-28,13,40,8,-34,27,-11,-46,-24,-27,-26,-23
-26,10,36,8,-31,24,-7,-37,-20,-24,-24,-23
-24,7,32,8,-28,20,-3,-29,-16,-22,-23,-23
-22,3,27,9,-25,16,0,-22,-14,-20,-22,-24
-21,0,23,10,-23,12,2,-17,-12,-19,-22,-24
-20,-2,18,11,-20,9,4,-12,-10,-17,-21,-25
-19,-4,15,12,-18,6,6,-9,-9,-16,-21,-25
-18,-6,12,12,-16,4,7,-6,-8,-15,-20,-26
-17,-8,10,12,-14,2,8,-4,-7,-15,-20,-26
-16,-9,8,12,-13,0,9,-2,-6,-14,-20,-26
-16,-9,7,12,-12,0,10,0,-5,-14,-19,-26
-15,-10,6,12,-11,-1,11,2,-4,-13,-19,-26
-14,-10,5,12,-10,-2,11,3,-3,-12,-19,-26
-14,-10,4,12,-10,-2,12,4,-2,-11,-19,-25
-13,-10,3,12,-9,-3,12,5,-1,-10,-18,-25
-12,-9,3,11,-9,-3,12,6,-1,-10,-18,-24
-13,-10,2,12,-8,-3,12,6,-1,-10,-18,-24
-13,-11,2,12,-8,-4,12,7,-1,-10,-18,-24
-13,-11,2,12,-8,-4,12,8,-1,-10,-18,-23
-13,-11,1,12,-7,-4,12,9,-1,-9,-18,-23
-12,-11,1,12,-7,-4,12,9,0,-9,-18,-22
-12,-11,1,12,-7,-4,12,9,0,-8,-18,-22
-12,-11,1,12,-7,-5,12,9,0,-8,-18,-21
-13,-12,1,13,-7,-5,12,9,0,-8,-17,-21
-12,-12,1,12,-7,-5,12,9,0,-8,-17,-20
-11,-11,0,12,-6,-5,13,10,1,-8,-16,-19
-11,-11,0,12,-6,-5,13,10,1,-8,-16,-19
-10,-11,0,11,-5,-5,13,11,1,-7,-15,-18
-10,-11,0,11,-5,-5,13,12,2,-7,-15,-17
-10,-11,0,11,-5,-5,13,12,2,-7,-14,-17
-11,-11,0,11,-5,-5,13,13,2,-6,-14,-17
-11,-11,-1,11,-5,-5,13,13,3,-6,-14,-16
-10,-11,-1,11,-5,-5,13,14,3,-6,-13,-15
-10,-11,-1,11,-5,-5,13,14,3,-6,-13,-14
-10,-11,-1,11,-5,-5,13,15,4,-6,-12,-13
-9,-11,-1,11,-5,-6,13,16,4,-5,-12,-13
-9,-11,-1,10,-5,-6,13,17,5,-5,-11,-12
-9,-11,-1,10,-5,-6,13,17,5,-5,-11,-12
-9,-11,-2,10,-5,-6,14,18,5,-4,-11,-12
-9,-11,-2,10,-4,-6,14,18,6,-4,-11,-12
-8,-11,-2,10,-4,-6,14,19,6,-3,-11,-12
-8,-11,-2,10,-4,-6,14,19,7,-3,-11,-11
-8,-11,-2,10,-4,-6,14,20,8,-2,-10,-10
-8,-11,-2,9,-3,-6,14,21,9,-2,-10,-10
-7,-11,-2,9,-3,-6,15,22,9,-2,-10,-9
-7,-11,-3,9,-2,-6,15,23,10,-1,-10,-9
-7,-10,-3,9,-2,-6,15,24,11,0,-9,-9
-6,-10,-3,8,-2,-6,15,25,11,0,-9,-8
-6,-9,-3,8,-2,-6,15,26,12,0,-8,-8
-6,-9,-3,8,-1,-6,16,27,12,1,-8,-7
-5,-8,-3,7,-1,-6,16,28,13,1,-8,-7
-5,-8,-3,7,-1,-5,17,29,15,2,-7,-6
-5,-8,-3,6,-1,-5,17,31,16,3,-7,-6
-5,-8,-3,6,-1,-6,17,32,17,3,-7,-6
-5,-9,-3,7,-1,-6,17,33,17,4,-6,-5
-5,-9,-3,7,-1,-6,17,35,18,5,-6,-5
-5,-9,-3,7,-1,-6,17,36,19,6,-6,-4
-4,-9,-3,7,-1,-6,17,37,20,7,-5,-3
-4,-8,-3,6,0,-6,17,39,21,8,-5,-2
-3,-8,-3,6,0,-6,17,41,23,9,-4,-1
-3,-7,-3,5,0,-6,17,43,24,10,-3,0
-2,-7,-3,5,0,-6,17,45,26,11,-2,0
-1,-6,-3,4,1,-5,17,47,27,12,-1,1
0,-5,-3,3,1,-5,18,49,29,13,0,3
1,-4,-3,2,2,-4,18,51,30,15,1,4
1,-3,-3,1,2,-4,18,52,32,16,2,6
1,-3,-3,0,2,-3,18,54,33,18,2,7
2,-3,-3,0,2,-3,18,56,35,19,3,8
3,-2,-3,0,2,-2,18,58,36,20,4,10
4,0,-3,-2,3,-2,18,60,38,22,6,11
6,1,-3,-3,4,-1,18,62,40,23,7,13
7,2,-3,-4,4,0,18,63,41,25,9,15
7,3,-3,-5,4,0,18,64,42,26,10,16
8,3,-3,-5,5,0,17,64,43,27,11,18
8,4,-2,-6,5,1,17,65,44,28,12,19
9,5,-2,-7,5,1,16,66,45,29,13,21
9,6,-2,-8,5,2,16,66,46,30,14,22
10,6,-2,-8,5,2,15,67,46,31,15,23
10,7,-2,-8,5,2,15,67,47,32,16,24
11,7,-2,-9,6,3,14,67,47,33,17,25
12,9,-2,-10,6,3,14,67,48,34,18,27
13,10,-2,-11,7,4,13,67,48,34,19,28
13,11,-1,-12,7,5,13,66,48,34,19,29
14,12,-1,-13,8,5,12,65,48,34,20,29
14,12,-1,-13,8,6,11,64,48,35,21,30
15,13,-1,-14,8,6,10,63,47,35,21,30
15,13,-1,-15,8,6,10,62,47,35,22,31
16,14,-1,-15,8,6,9,60,47,35,22,31
17,15,-1,-15,9,7,8,59,46,35,23,32
17,16,-1,-16,9,7,7,57,45,35,23,32
17,16,-1,-17,9,7,6,54,44,34,24,32
17,16,-1,-17,9,7,5,52,42,34,24,32
17,15,0,-17,9,7,4,49,41,33,24,32
17,15,0,-16,9,7,2,46,39,32,23,32
17,15,0,-16,9,7,1,43,37,31,23,31
17,15,0,-16,9,7,0,40,35,30,23,31
17,15,0,-16,9,7,0,37,33,28,23,31
17,15,-1,-16,9,7,-1,33,31,27,22,30
16,15,-1,-16,9,7,-1,30,29,25,21,29
16,14,-1,-16,9,7,-2,26,26,24,20,28
16,14,-1,-15,9,7,-2,23,24,22,19,27
15,14,-1,-15,8,6,-3,20,22,20,18,26
15,13,-1,-14,8,6,-3,17,19,18,17,25
14,12,-1,-13,7,5,-3,15,17,16,16,24
13,11,-1,-12,7,5,-3,12,15,14,15,22
11,9,0,-10,6,4,-3,10,12,12,13,21
9,8,0,-9,5,4,-3,7,10,10,11,19
8,7,0,-8,4,4,-4,5,8,8,9,18
7,7,0,-7,4,3,-4,3,6,6,8,16
6,6,0,-6,3,3,-4,1,5,5,6,15
6,5,0,-6,3,2,-4,0,3,3,5,13
5,4,0,-5,2,2,-4,-2,2,1,3,12
3,2,0,-3,1,2,-3,-3,0,0,2,10
2,1,1,-2,0,2,-3,-4,-1,-2,0,9
1,1,1,-2,0,2,-3,-5,-2,-3,0,8
0,0,1,-1,-1,1,-3,-6,-3,-4,-1,7
0,0,1,-1,-1,1,-2,-7,-4,-5,-2,6
0,0,1,0,-1,1,-2,-8,-5,-5,-3,5
0,0,2,0,-1,1,-2,-9,-6,-6,-3,4
-1,0,2,0,-2,0,-2,-9,-6,-7,-4,3
-2,-1,2,1,-2,0,-1,-10,-7,-7,-4,3
-3,-1,2,2,-2,0,-1,-10,-7,-8,-5,2
-3,-1,2,2,-2,0,0,-10,-8,-8,-5,2
-3,-1,2,1,-2,0,0,-10,-8,-8,-5,1
-2,-1,2,1,-2,0,0,-11,-8,-8,-6,1
-3,-1,2,1,-2,0,0,-11,-8,-9,-6,0
-3,-2,2,2,-3,0,0,-12,-9,-9,-7,0
-4,-2,2,3,-3,0,0,-12,-9,-10,-7,0
-4,-2,2,3,-3,0,0,-12,-9,-10,-7,0
-4,-2,2,3,-4,0,0,-12,-9,-11,-7,0
-5,-3,2,3,-4,0,0,-12,-10,-11,-8,-1
-6,-3,2,4,-5,0,0,-12,-10,-12,-8,-1
-6,-3,2,4,-5,0,0,-12,-10,-12,-9,-1
-6,-3,2,4,-4,0,1,-12,-10,-12,-9,-1
-5,-3,2,4,-4,0,1,-12,-10,-12,-9,-1
-5,-2,2,3,-4,0,1,-12,-10,-12,-9,-1
-5,-2,2,3,-4,0,1,-12,-10,-12,-9,-2
-4,-2,2,3,-4,0,2,-12,-10,-12,-9,-2
-4,-2,3,3,-4,0,2,-12,-10,-12,-9,-2
-5,-2,3,3,-4,0,2,-12,-10,-12,-9,-2
-5,-3,3,4,-4,0,2,-12,-10,-12,-9,-2
-5,-3,3,4,-4,0,2,-12,-9,-12,-9,-2
-5,-4,2,4,-4,0,2,-12,-9,-12,-9,-2
-5,-4,2,4,-4,0,2,-11,-9,-12,-9,-2
-5,-4,2,4,-4,0,2,-11,-9,-12,-9,-2
-5,-4,2,4,-4,0,2,-11,-8,-12,-9,-2
-5,-4,2,4,-4,0,2,-11,-8,-12,-9,-2
-6,-4,2,5,-4,0,2,-10,-8,-12,-10,-2
-6,-4,2,5,-4,0,2,-10,-8,-12,-10,-2
-5,-3,2,4,-4,0,3,-9,-8,-12,-10,-2
-5,-3,2,4,-4,0,3,-9,-8,-11,-10,-2
-5,-3,2,4,-4,0,3,-9,-8,-11,-10,-2
-5,-3,2,4,-4,0,3,-9,-8,-11,-10,-2
-6,-3,2,4,-4,0,3,-9,-8,-11,-10,-2
-6,-4,2,5,-4,0,3,-8,-8,-11,-10,-2
-6,-3,2,4,-4,0,3,-8,-7,-11,-10,-2
-6,-3,3,4,-4,0,3,-8,-7,-11,-9,-2
-6,-4,3,5,-4,-1,3,-8,-7,-11,-9,-2
-6,-3,3,5,-4,-1,3,-8,-6,-11,-9,-2
-5,-3,3,5,-4,0,3,-8,-6,-11,-9,-2
-5,-3,3,5,-4,0,3,-8,-6,-11,-9,-2
-5,-3,3,5,-4,0,3,-8,-6,-11,-8,-2
-5,-3,3,5,-4,0,3,-8,-6,-11,-8,-2
-5,-3,3,5,-4,0,3,-8,-6,-11,-8,-2
-5,-3,3,4,-4,0,3,-7,-6,-11,-8,-1
-5,-3,3,4,-4,0,3,-7,-6,-11,-8,-1
-5,-3,3,4,-4,0,3,-7,-6,-11,-8,-1
-6,-3,3,5,-4,-1,3,-8,-6,-11,-8,-1
-6,-4,3,5,-4,-1,3,-8,-6,-11,-8,-1
-6,-4,3,5,-4,-1,3,-8,-6,-11,-8,-1
-6,-4,3,5,-4,-1,3,-8,-6,-11,-8,-1
-6,-4,3,5,-4,-1,3,-8,-7,-11,-8,0
-6,-4,3,5,-4,-1,3,-8,-7,-11,-8,0
-6,-4,2,5,-4,-1,3,-8,-7,-11,-8,0
-6,-4,2,5,-4,-1,3,-8,-7,-11,-8,0
-6,-4,2,6,-4,-1,3,-8,-7,-11,-8,0
-6,-4,2,6,-4,-1,3,-8,-7,-11,-8,0
-6,-4,2,6,-4,-1,3,-8,-7,-11,-7,0
-5,-4,2,5,-4,-1,3,-8,-7,-11,-7,0
-5,-3,2,5,-4,-1,3,-8,-7,-11,-7,0
-5,-3,2,5,-4,-1,3,-8,-7,-11,-7,0
-5,-4,2,5,-4,-1,3,-8,-7,-11,-8,0
-5,-4,2,5,-4,-1,3,-8,-7,-11,-8,0
-5,-4,2,5,-4,-1,4,-8,-7,-11,-8,0
-5,-4,2,5,-4,-1,4,-8,-7,-11,-8,0
-5,-4,2,5,-4,-1,4,-8,-7,-11,-8,0
-6,-4,2,5,-4,-1,4,-9,-7,-12,-8,0
-6,-4,2,5,-4,-2,4,-9,-7,-12,-8,-1
-6,-5,2,5,-4,-2,4,-9,-8,-12,-8,-1
-6,-5,2,5,-4,-2,4,-9,-8,-12,-8,-1
-6,-5,1,5,-4,-2,4,-9,-8,-12,-9,-1
-6,-5,1,6,-4,-2,4,-10,-8,-12,-9,-1
-6,-5,1,6,-4,-2,4,-10,-8,-12,-9,-1
-6,-5,1,6,-4,-2,5,-10,-8,-12,-9,-1
-6,-5,1,6,-4,-2,5,-9,-8,-12,-9,-1
-6,-5,1,6,-4,-2,5,-9,-8,-12,-10,-1
-6,-5,1,5,-4,-2,5,-9,-8,-13,-10,-1
-5,-4,1,5,-3,-2,5,-9,-8,-12,-10,-1
-4,-3,1,4,-3,-2,6,-8,-8,-12,-9,-1
-3,-2,1,3,-2,-1,6,-8,-7,-11,-9,0
-3,-1,1,2,-2,-1,6,-7,-6,-10,-9,0
-3,-1,1,2,-2,0,6,-7,-6,-10,-8,0
-3,0,2,2,-2,0,6,-7,-5,-10,-8,0
-3,-1,2,2,-2,0,6,-7,-5,-10,-8,0
-4,-1,2,2,-3,0,6,-7,-5,-9,-8,1
-4,-1,2,2,-3,0,6,-6,-4,-9,-8,1
-3,-1,2,2,-3,0,6,-6,-4,-8,-7,2
-3,0,2,1,-3,1,6,-5,-3,-8,-7,2
-2,1,2,1,-3,1,6,-4,-3,-7,-6,2
-2,1,2,0,-2,1,6,-4,-2,-7,-6,2
-1,2,2,0,-2,1,7,-3,-2,-6,-5,3
-1,2,2,0,-2,2,8,-3,-1,-6,-5,3
0,2,3,-1,-2,2,8,-2,-1,-5,-5,3
0,2,3,-1,-2,3,9,-2,0,-5,-5,3
0,2,3,-1,-2,3,9,-2,0,-5,-5,3
0,2,3,-1,-2,3,8,-2,0,-5,-4,4
0,2,3,-1,-2,2,7,-2,0,-5,-4,4
0,2,2,-1,-1,2,6,-2,0,-5,-4,4
0,2,2,-1,-1,1,4,-3,-1,-6,-4,4
0,1,1,-1,0,1,3,-4,-2,-6,-5,4
0,0,0,-1,0,0,2,-4,-2,-6,-5,4
0,0,-1,-1,1,0,1,-5,-3,-7,-5,4
1,-1,-2,0,1,-1,0,-5,-3,-7,-5,3
1,-2,-3,0,2,-2,-2,-6,-3,-7,-5,3
1,-2,-4,0,2,-3,-2,-6,-4,-7,-5,3
1,-2,-4,0,3,-3,-3,-7,-4,-7,-5,3
1,-2,-5,0,3,-3,-4,-7,-4,-7,-5,3
1,-3,-6,1,3,-4,-5,-8,-5,-8,-6,2
1,-4,-7,1,4,-5,-5,-9,-6,-9,-7,2
1,-5,-8,2,4,-6,-5,-10,-7,-10,-7,1
1,-6,-9,2,5,-7,-5,-10,-8,-11,-8,1
2,-7,-10,2,5,-8,-5,-10,-9,-12,-8,0
2,-7,-10,2,6,-9,-4,-10,-9,-12,-9,0
2,-8,-11,3,6,-9,-4,-10,-10,-12,-9,0
2,-9,-11,3,7,-10,-4,-10,-10,-12,-10,-1
2,-9,-11,4,7,-10,-3,-10,-10,-13,-10,-1
1,-10,-11,4,7,-10,-3,-10,-10,-13,-10,-1
1,-9,-11,4,7,-10,-2,-10,-10,-12,-10,-1
1,-8,-10,4,6,-9,-1,-9,-9,-12,-9,0
0,-7,-8,3,5,-8,0,-9,-8,-11,-9,0
0,-7,-7,3,4,-7,1,-8,-7,-10,-8,0
-1,-7,-6,4,3,-6,2,-8,-7,-10,-8,0
-2,-7,-5,4,2,-6,2,-8,-7,-11,-8,0
-3,-7,-5,4,1,-6,2,-8,-7,-11,-8,0
-3,-7,-4,4,0,-5,2,-8,-7,-11,-9,0
-4,-7,-4,5,0,-5,2,-9,-8,-11,-9,0
-4,-8,-3,6,0,-5,2,-9,-8,-11,-10,-1
-5,-8,-3,7,-1,-5,1,-10,-9,-12,-10,-2
-6,-9,-2,8,-1,-6,1,-11,-9,-13,-11,-3
-7,-10,-2,8,-2,-6,1,-11,-9,-13,-11,-3
-6,-10,-2,8,-2,-6,2,-11,-9,-13,-11,-3
-6,-10,-2,8,-2,-6,2,-11,-9,-13,-11,-3
-7,-10,-2,8,-2,-6,2,-11,-9,-13,-11,-3
-7,-10,-3,9,-2,-7,2,-11,-10,-13,-11,-4
-7,-10,-3,9,-2,-7,2,-11,-10,-14,-11,-4
-7,-10,-3,9,-2,-7,3,-11,-10,-14,-12,-4
-7,-10,-3,9,-2,-7,3,-11,-10,-14,-12,-5
-8,-11,-3,10,-2,-7,3,-11,-10,-14,-13,-5
-9,-11,-3,10,-3,-7,3,-11,-10,-14,-13,-5
-9,-12,-3,10,-3,-7,3,-11,-10,-14,-13,-5
-10,-13,-3,10,-3,-8,3,-11,-10,-14,-13,-6
-10,-14,-3,11,-3,-8,3,-11,-10,-14,-13,-6
-10,-14,-3,11,-3,-9,4,-11,-10,-14,-13,-6
-11,-14,-3,12,-3,-9,4,-11,-10,-14,-13,-6
-11,-14,-3,12,-3,-9,4,-11,-10,-14,-13,-6
-11,-14,-3,12,-3,-9,4,-11,-10,-14,-13,-6
-11,-13,-3,12,-3,-9,4,-11,-10,-15,-13,-7
-10,-13,-2,12,-4,-8,4,-11,-10,-15,-13,-7
-10,-12,-2,11,-4,-8,4,-11,-10,-15,-13,-7
-9,-12,-2,11,-4,-7,4,-11,-10,-15,-13,-7
-9,-11,-2,10,-3,-7,4,-11,-10,-15,-13,-8
-9,-10,-2,10,-3,-6,4,-11,-10,-15,-13,-8
-9,-11,-2,10,-3,-6,4,-11,-10,-15,-13,-9
-10,-12,-2,11,-4,-7,4,-11,-10,-16,-13,-9
-10,-12,-2,11,-4,-7,4,-11,-11,-16,-14,-9
-11,-13,-2,12,-4,-7,4,-11,-11,-16,-14,-9
-11,-13,-2,12,-4,-7,4,-11,-11,-15,-14,-10
-11,-13,-1,12,-5,-7,4,-10,-10,-14,-14,-10
-11,-12,-1,12,-5,-7,5,-8,-8,-13,-13,-9
-11,-12,-1,11,-4,-7,5,-5,-6,-12,-12,-9
-9,-11,-2,10,-3,-6,6,0,-2,-8,-10,-7
-6,-9,-2,7,-2,-6,7,7,4,-1,-5,-3
-3,-7,-3,4,0,-5,8,15,11,6,1,1
1,-4,-4,1,2,-4,9,25,19,15,9,6
6,-1,-6,-3,6,-4,9,37,29,26,19,14
15,4,-10,-9,12,-3,9,50,41,39,31,23
26,9,-16,-17,21,-4,7,63,54,54,45,34
39,14,-25,-26,32,-5,3,73,65,69,60,46
53,19,-34,-36,44,-7,-3,79,74,83,75,57
69,23,-46,-46,58,-11,-10,80,78,94,88,67
87,26,-60,-56,74,-16,-19,80,78,102,101,77
107,29,-77,-68,92,-23,-30,77,74,108,114,87
128,33,-94,-80,111,-30,-43,70,67,111,124,96
145,36,-108,-91,126,-36,-57,56,55,106,126,100
156,38,-118,-97,137,-40,-69,38,36,91,117,95
160,39,-121,-99,140,-41,-79,15,12,67,98,84
157,40,-117,-98,137,-38,-87,-10,-13,39,74,70
150,42,-108,-96,129,-32,-95,-38,-35,14,54,59
141,47,-94,-94,118,-23,-104,-70,-55,-6,38,52
126,54,-72,-90,99,-9,-113,-107,-74,-24,26,48
100,61,-38,-81,69,11,-119,-152,-94,-44,11,43
66,66,0,-66,33,33,-123,-203,-116,-69,-8,34
35,67,32,-51,2,49,-125,-241,-135,-91,-27,23
13,63,49,-38,-17,55,-124,-258,-144,-104,-41,11
-1,57,57,-28,-29,57,-121,-256,-144,-109,-49,3
-11,52,62,-20,-36,57,-115,-243,-137,-106,-51,-2
-18,47,64,-14,-41,55,-104,-220,-124,-98,-51,-5
-23,40,64,-8,-43,52,-89,-192,-108,-88,-48,-8
-27,34,62,-3,-44,48,-71,-161,-90,-75,-44,-10
-30,28,59,0,-44,44,-56,-133,-73,-63,-40,-10
-30,24,55,3,-43,40,-44,-109,-59,-53,-35,-10
-30,21,51,4,-40,36,-34,-90,-48,-44,-31,-9
-29,17,45,6,-37,31,-26,-73,-39,-37,-27,-8
-27,14,40,7,-34,27,-18,-58,-31,-31,-24,-8
-25,11,35,7,-30,23,-12,-46,-25,-26,-22,-7
-23,9,31,6,-27,20,-7,-36,-20,-23,-20,-7
-20,7,27,6,-24,17,-3,-27,-15,-20,-18,-7
-18,4,23,7,-21,13,1,-20,-12,-18,-17,-8
-17,1,19,7,-18,10,4,-14,-10,-16,-17,-8
-17,-1,15,8,-16,7,6,-10,-8,-15,-16,-9
-16,-3,12,9,-15,4,7,-7,-7,-14,-16,-9
-16,-4,10,10,-13,2,8,-5,-7,-13,-16,-10
-15,-6,8,10,-12,1,9,-2,-6,-12,-16,-11
-14,-7,6,11,-10,0,10,0,-5,-12,-16,-11
-14,-9,5,11,-9,-2,11,2,-4,-11,-15,-12
-13,-10,3,11,-8,-3,12,4,-4,-11,-15,-12
-12,-10,2,11,-7,-4,13,5,-3,-10,-14,-12
-12,-11,1,11,-7,-5,13,6,-3,-10,-14,-11
-12,-11,1,11,-6,-5,13,6,-2,-10,-13,-11
-12,-11,0,11,-6,-6,13,6,-2,-10,-13,-11
-12,-12,0,12,-6,-6,13,6,-2,-10,-14,-11
-12,-12,0,12,-6,-7,14,7,-2,-9,-14,-11
-12,-12,-1,12,-6,-7,14,8,-1,-9,-13,-10
-12,-13,-1,12,-6,-7,15,9,-1,-8,-13,-10
-12,-13,-1,12,-6,-7,15,9,0,-8,-13,-10
-12,-13,-1,12,-5,-7,15,10,0,-8,-13,-10
-11,-12,-1,12,-5,-7,15,10,0,-7,-13,-10
-11,-12,-1,12,-5,-7,14,10,0,-7,-13,-10
-11,-12,-1,12,-5,-7,14,10,0,-6,-13,-9
-11,-12,-1,11,-5,-7,15,10,0,-6,-13,-9
-11,-12,-1,11,-5,-7,15,11,1,-6,-12,-8
-10,-11,-1,10,-4,-6,16,12,2,-5,-12,-7
-9,-11,-1,10,-4,-6,16,13,2,-5,-11,-7
-9,-11,-2,10,-3,-7,16,14,3,-5,-11,-6
-9,-12,-2,10,-3,-7,16,14,3,-5,-11,-6
-8,-12,-3,10,-2,-7,16,14,3,-5,-10,-6
-8,-12,-3,10,-2,-8,16,15,4,-4,-10,-5
-8,-12,-4,10,-2,-8,16,16,4,-4,-10,-5
-8,-12,-4,10,-2,-8,16,17,5,-3,-9,-5
-8,-12,-4,10,-2,-8,16,18,5,-3,-9,-5
-8,-12,-4,10,-2,-8,16,19,5,-3,-9,-5
-8,-12,-5,10,-2,-9,16,19,6,-3,-8,-5
-8,-13,-5,10,-2,-9,16,20,6,-2,-8,-5
-8,-13,-5,10,-2,-9,16,20,6,-2,-8,-5
-8,-13,-5,10,-2,-9,16,21,7,-1,-7,-5
-8,-12,-5,10,-1,-9,17,22,8,0,-7,-5
-8,-12,-5,10,-1,-9,17,23,9,0,-6,-5
-8,-12,-5,10,-1,-9,17,24,10,0,-6,-4
-7,-12,-5,10,-1,-9,17,26,10,1,-5,-4
-7,-11,-5,9,0,-8,18,27,11,1,-5,-4
-6,-11,-5,9,0,-8,18,28,12,2,-5,-4
-6,-11,-5,9,0,-8,19,28,12,2,-5,-4
-6,-11,-5,9,0,-8,19,29,12,2,-5,-4
-5,-10,-5,8,0,-8,19,30,13,3,-5,-3
-5,-10,-5,8,0,-8,19,32,14,4,-5,-3
-5,-10,-5,8,0,-8,19,33,15,4,-5,-3
-5,-10,-5,8,0,-8,19,35,16,5,-4,-3
-5,-10,-5,7,0,-8,20,37,17,6,-4,-3
-4,-10,-5,7,0,-8,20,38,18,7,-4,-3
-3,-9,-6,6,1,-8,21,40,19,8,-3,-3
-3,-9,-6,5,1,-8,21,41,21,9,-2,-2
-3,-9,-6,5,1,-8,21,43,22,10,-1,-2
-3,-9,-6,6,1,-8,21,45,23,11,-1,-1
-3,-9,-6,6,1,-8,21,47,24,11,0,-1
-3,-8,-6,5,2,-7,22,49,25,12,0,-1
-3,-8,-6,5,2,-7,22,51,27,13,0,0
-2,-7,-6,4,2,-6,22,53,28,15,1,0
-2,-6,-6,4,2,-6,22,55,30,16,2,1
-1,-6,-6,4,2,-6,22,56,31,17,3,2
-1,-5,-6,3,2,-6,22,58,33,18,4,3
0,-5,-6,2,3,-5,22,60,34,19,5,4
0,-4,-6,2,3,-5,22,62,36,21,6,6
1,-3,-6,1,3,-5,22,64,38,22,7,7
2,-2,-6,0,4,-4,23,66,39,24,9,9
3,-1,-5,-1,4,-3,23,68,41,25,10,10
4,0,-5,-2,4,-3,23,69,42,27,11,12
5,0,-5,-3,4,-2,23,70,44,28,12,13
5,1,-4,-3,4,-1,23,71,45,29,13,14
6,2,-4,-4,5,0,23,72,45,30,14,15
7,3,-4,-5,5,0,23,73,46,31,15,16
7,4,-4,-6,6,0,22,74,47,32,15,17
8,5,-4,-7,6,0,22,75,48,32,16,18
8,5,-4,-7,6,1,21,75,48,33,16,19
9,6,-4,-8,6,1,20,75,48,33,17,19
9,6,-4,-8,6,1,19,75,48,33,17,20
10,7,-4,-9,6,2,18,74,48,33,17,20
10,7,-4,-9,7,2,18,74,48,34,18,21
11,8,-4,-10,7,3,17,73,48,34,18,21
11,8,-4,-10,7,3,16,72,48,34,19,22
12,9,-4,-11,7,3,15,71,48,34,19,22
12,9,-4,-11,7,3,14,70,48,34,20,23
13,10,-4,-12,8,3,13,68,48,35,21,24
14,11,-4,-13,8,4,12,66,47,35,22,25
15,12,-4,-13,9,4,11,64,46,35,22,26
15,12,-4,-14,9,4,10,62,45,35,23,26
15,12,-4,-14,9,5,9,59,44,35,24,27
16,13,-4,-15,9,5,8,56,42,34,24,28
16,13,-4,-15,9,5,7,53,41,34,24,28
16,13,-4,-15,10,4,6,50,39,33,24,28
16,13,-4,-15,10,4,4,47,38,32,25,28
16,13,-4,-15,10,4,3,43,36,30,25,28
16,12,-4,-14,10,4,2,40,33,29,24,27
16,12,-5,-14,10,4,2,36,31,27,23,26
16,11,-5,-14,10,3,1,32,28,25,22,25
15,10,-5,-13,10,3,1,28,26,24,21,24
14,9,-5,-12,9,2,0,25,23,22,20,23
13,8,-5,-11,8,2,0,22,21,20,19,21
11,7,-5,-10,8,1,-1,19,19,18,18,20
10,6,-5,-9,7,0,-1,16,16,15,16,18
9,5,-5,-8,7,0,-2,13,14,13,14,17
8,4,-5,-7,6,0,-2,10,12,11,13,15
8,4,-5,-6,6,0,-2,7,10,9,11,14
7,3,-4,-6,5,0,-2,5,8,8,10,12
6,3,-4,-5,5,0,-2,3,6,6,8,11
5,2,-4,-5,5,0,-1,1,4,4,7,9
5,2,-4,-4,4,-1,-1,0,2,2,5,8
3,1,-4,-2,4,-1,-1,-1,1,0,3,6
2,0,-4,0,3,-2,-1,-3,0,-2,2,5
0,-2,-4,1,2,-2,-1,-4,-1,-3,0,3
0,-3,-4,2,1,-3,-1,-5,-2,-3,0,2
-1,-3,-4,2,1,-3,0,-6,-3,-4,-1,1
-2,-4,-4,3,0,-3,0,-7,-4,-5,-2,0
-3,-5,-3,4,0,-4,0,-8,-5,-6,-3,0
-3,-5,-3,4,0,-4,0,-8,-6,-6,-3,0
-3,-5,-3,4,0,-3,0,-9,-6,-7,-4,0
-3,-4,-2,4,0,-3,0,-9,-7,-7,-4,0
-3,-4,-2,4,0,-3,0,-10,-7,-8,-4,-1
-3,-4,-2,4,0,-3,0,-10,-7,-8,-4,-1
-3,-4,-2,4,0,-3,0,-10,-7,-9,-4,-1
-3,-4,-2,4,0,-3,1,-10,-7,-9,-5,-1
-4,-4,-2,4,-1,-3,1,-11,-8,-10,-5,-2
-4,-5,-1,4,-1,-3,1,-11,-8,-11,-6,-2
-5,-5,-1,4,-2,-3,1,-11,-8,-11,-6,-2
-5,-5,-1,4,-2,-3,1,-11,-8,-11,-6,-2
-5,-5,-1,4,-2,-3,1,-11,-8,-11,-6,-2
-5,-5,-1,4,-2,-3,1,-10,-8,-11,-7,-3
-5,-6,-1,5,-2,-3,1,-10,-8,-11,-7,-3
-5,-6,-1,5,-2,-3,2,-10,-8,-11,-7,-4
-5,-6,-1,5,-2,-3,2,-10,-8,-11,-8,-4
-5,-6,-1,6,-2,-3,3,-10,-8,-11,-8,-4
-5,-6,-1,6,-2,-3,3,-10,-8,-11,-8,-4
-6,-6,-1,6,-2,-3,4,-10,-8,-11,-8,-4
-6,-7,-1,7,-2,-3,4,-10,-8,-11,-8,-5
-7,-7,-1,7,-2,-4,4,-10,-8,-11,-8,-5
-7,-7,-1,7,-2,-4,4,-10,-8,-11,-8,-5
-7,-7,-1,7,-2,-4,4,-10,-7,-11,-9,-5
-7,-7,-1,7,-2,-4,4,-10,-7,-11,-9,-5
-7,-7,-1,7,-2,-4,4,-10,-7,-11,-9,-5
-7,-7,-1,6,-2,-4,4,-9,-7,-11,-9,-6
-6,-6,-1,6,-2,-3,5,-9,-7,-11,-9,-6
-6,-6,0,6,-2,-3,5,-9,-6,-10,-9,-6
-6,-6,0,6,-2,-3,5,-9,-6,-10,-10,-7
-7,-7,0,7,-3,-3,5,-9,-7,-11,-11,-7
-7,-7,0,7,-3,-3,5,-9,-7,-12,-11,-8
-8,-8,0,8,-3,-3,5,-9,-7,-12,-12,-8
-8,-8,0,8,-4,-4,5,-9,-7,-12,-12,-8
-9,-8,0,9,-4,-4,5,-8,-7,-12,-12,-8
-9,-8,0,9,-4,-4,5,-8,-7,-12,-12,-9
-10,-8,0,9,-4,-4,5,-8,-7,-12,-12,-9
-10,-9,0,9,-5,-4,4,-8,-7,-12,-12,-9
-10,-9,0,9,-5,-4,4,-8,-7,-12,-12,-9
-10,-8,0,9,-5,-3,4,-8,-6,-12,-12,-9
-9,-8,1,8,-5,-3,4,-8,-6,-11,-12,-9
-9,-7,1,8,-4,-3,4,-8,-6,-11,-11,-8
-9,-7,1,7,-4,-3,4,-8,-6,-11,-11,-8
-9,-7,1,7,-5,-3,4,-7,-5,-11,-11,-8
-9,-7,1,7,-5,-3,4,-7,-5,-11,-11,-8
-9,-8,1,8,-5,-3,4,-7,-5,-11,-11,-8
-9,-9,0,9,-5,-4,4,-7,-6,-12,-11,-7
-10,-9,0,9,-5,-4,4,-7,-6,-12,-10,-7
-9,-9,0,9,-4,-4,4,-7,-6,-11,-9,-6
-9,-9,0,9,-4,-4,4,-7,-5,-11,-9,-5
-9,-8,0,8,-4,-4,5,-7,-5,-11,-8,-5
-8,-8,0,8,-4,-4,5,-7,-5,-11,-8,-5
-8,-8,-1,8,-4,-4,5,-7,-5,-11,-7,-4
-8,-8,-1,8,-4,-4,5,-7,-5,-11,-7,-4
-7,-8,-1,8,-4,-4,5,-7,-5,-11,-7,-4
-7,-8,-1,8,-3,-4,5,-7,-5,-11,-7,-4
-8,-8,-1,8,-3,-4,5,-7,-5,-11,-7,-4
-8,-8,-1,8,-3,-4,5,-7,-6,-12,-7,-4
-9,-9,-1,9,-4,-5,5,-7,-6,-12,-8,-5
-9,-10,-1,9,-4,-5,5,-8,-7,-13,-8,-5
-9,-9,-1,8,-4,-5,5,-8,-7,-13,-8,-5
-8,-9,-1,8,-4,-5,5,-8,-7,-13,-8,-5
-8,-9,-1,8,-4,-5,6,-8,-7,-13,-8,-6
-8,-9,-1,8,-4,-5,6,-8,-7,-13,-8,-6
-8,-9,-1,8,-4,-5,6,-8,-7,-13,-8,-7
-8,-9,-1,8,-3,-5,6,-8,-7,-13,-9,-7
-8,-9,-1,8,-3,-5,6,-8,-7,-13,-9,-8
-8,-9,-1,8,-3,-5,7,-8,-7,-13,-10,-9
-8,-9,-1,8,-3,-5,7,-8,-7,-13,-11,-10
-8,-9,-1,8,-3,-5,7,-8,-7,-13,-11,-10
-8,-9,-1,8,-3,-5,7,-8,-7,-13,-12,-11
-9,-9,0,8,-4,-5,7,-9,-7,-14,-12,-12
-9,-8,0,8,-4,-4,7,-9,-7,-14,-12,-13
-9,-8,0,8,-5,-4,7,-9,-7,-14,-12,-13
-9,-8,0,8,-5,-4,7,-9,-7,-14,-11,-12
-9,-8,0,8,-4,-4,7,-9,-7,-14,-11,-12
-8,-9,0,8,-4,-4,7,-9,-7,-14,-11,-11
-8,-9,0,8,-4,-5,7,-9,-7,-14,-10,-10
-8,-9,-1,8,-4,-5,7,-8,-7,-14,-10,-9
-7,-9,-1,8,-3,-5,7,-7,-7,-14,-9,-8
-6,-8,-2,7,-2,-5,7,-7,-7,-13,-8,-6
-6,-8,-2,6,-2,-5,7,-6,-6,-13,-7,-5
-6,-8,-2,6,-2,-5,7,-6,-6,-12,-6,-4
-6,-7,-1,6,-2,-5,7,-6,-5,-12,-6,-3
-5,-7,-1,6,-2,-4,8,-6,-4,-11,-6,-3
-5,-6,-1,5,-2,-4,8,-6,-4,-11,-6,-2
-5,-5,-1,5,-2,-3,8,-5,-3,-10,-6,-2
-4,-4,0,4,-2,-2,9,-4,-3,-10,-6,-1
-4,-3,0,3,-2,-2,9,-4,-2,-9,-5,-1
-3,-2,0,2,-1,-1,9,-3,-1,-9,-5,-1
-3,-2,0,2,-1,-1,8,-3,-1,-8,-5,-1
-2,-1,0,1,-1,0,8,-2,0,-8,-5,-1
-2,-1,1,1,-1,0,9,-2,0,-8,-4,-1
-3,0,2,1,-2,1,10,-2,0,-7,-4,-1
-3,0,3,1,-2,1,10,-1,0,-7,-4,-1
-3,0,3,1,-2,1,11,-1,0,-7,-4,-1
-3,0,3,1,-2,0,11,-1,0,-7,-4,-2
-3,-1,3,1,-2,0,10,-1,0,-7,-4,-2
-3,-1,2,1,-2,0,10,-1,0,-7,-4,-2
-3,-1,2,1,-2,0,9,-1,0,-7,-4,-2
-3,-2,1,2,-2,0,8,-1,0,-7,-4,-2
-3,-2,0,2,-2,-1,6,-2,0,-7,-4,-2
-2,-2,0,2,-1,-1,5,-3,-1,-7,-4,-2
-1,-2,-1,1,0,-2,4,-4,-1,-7,-4,-2
-1,-3,-2,2,0,-3,2,-4,-2,-8,-4,-3
-1,-4,-3,2,1,-4,1,-5,-3,-8,-5,-4
0,-4,-4,2,2,-5,0,-5,-3,-9,-6,-4
0,-5,-5,2,2,-5,0,-5,-4,-9,-7,-5
-1,-5,-5,2,2,-5,-1,-6,-4,-10,-7,-6
0,-6,-6,3,2,-6,-2,-7,-5,-10,-8,-7
0,-6,-6,3,3,-6,-2,-8,-6,-11,-8,-8
0,-7,-7,3,3,-7,-3,-9,-7,-12,-9,-9
0,-8,-8,4,3,-8,-3,-10,-7,-12,-10,-10
0,-9,-9,4,4,-9,-3,-10,-8,-12,-10,-10
0,-10,-10,5,4,-10,-3,-10,-8,-12,-11,-11
0,-11,-10,5,4,-11,-3,-10,-8,-13,-11,-11
-1,-12,-11,6,4,-11,-3,-10,-9,-14,-11,-12
-2,-13,-11,7,4,-12,-2,-10,-10,-15,-12,-13
-2,-14,-11,8,4,-13,-1,-10,-11,-15,-13,-13
-2,-14,-11,7,5,-12,0,-9,-10,-15,-12,-13
-2,-13,-11,6,4,-12,1,-8,-9,-13,-12,-12
-2,-12,-9,6,3,-11,2,-8,-8,-12,-11,-12
-3,-12,-8,6,2,-10,3,-7,-7,-11,-11,-11
-4,-12,-7,7,1,-9,3,-7,-6,-11,-11,-11
-5,-12,-6,7,0,-9,4,-7,-6,-11,-11,-11
-6,-12,-6,8,0,-8,4,-7,-6,-11,-11,-11
-6,-12,-6,8,0,-8,4,-7,-6,-11,-11,-11
-6,-12,-5,8,-1,-8,4,-7,-7,-12,-11,-11
-7,-12,-5,8,-2,-8,4,-8,-7,-12,-12,-11
-7,-12,-4,8,-2,-7,4,-8,-8,-13,-12,-12
-8,-11,-3,8,-3,-7,4,-9,-8,-14,-13,-12
-8,-11,-3,8,-3,-7,4,-9,-9,-14,-13,-13
-9,-11,-3,9,-3,-7,4,-10,-9,-15,-14,-13
-9,-11,-3,9,-3,-7,4,-10,-9,-15,-14,-14
-9,-12,-3,10,-3,-7,4,-10,-10,-15,-14,-14
-10,-12,-3,10,-4,-7,4,-10,-10,-16,-14,-14
-10,-13,-3,11,-4,-7,4,-10,-10,-16,-14,-14
-10,-13,-3,11,-4,-7,4,-10,-10,-16,-14,-14
-11,-13,-3,11,-4,-8,4,-10,-10,-16,-14,-14
-11,-14,-2,12,-5,-8,4,-10,-10,-16,-14,-14
-12,-14,-2,12,-5,-8,5,-10,-10,-16,-14,-14
-12,-15,-2,13,-5,-8,5,-10,-10,-16,-14,-14
-12,-15,-2,13,-5,-8,6,-10,-10,-16,-14,-14
-12,-14,-2,12,-5,-8,6,-10,-10,-16,-14,-14
-12,-14,-2,12,-5,-8,6,-10,-10,-16,-14,-14
-13,-14,-2,12,-5,-8,6,-10,-9,-16,-14,-14
-14,-15,-1,13,-6,-8,6,-10,-10,-16,-15,-14
-14,-15,-1,14,-7,-8,6,-10,-10,-17,-15,-14
-14,-15,-1,14,-7,-8,6,-10,-11,-17,-15,-14
-14,-15,-1,14,-6,-8,6,-10,-11,-17,-15,-14
-14,-16,-1,14,-6,-8,6,-10,-11,-17,-15,-14
-14,-16,-1,15,-6,-8,6,-10,-10,-17,-15,-14
-14,-16,-1,15,-6,-8,6,-10,-10,-17,-15,-14
-14,-16,-1,15,-6,-8,6,-10,-10,-17,-15,-14
-14,-16,-1,15,-6,-8,6,-10,-10,-17,-15,-14
-14,-16,-1,15,-6,-8,6,-10,-10,-17,-16,-15
-14,-16,-1,15,-6,-8,6,-10,-10,-17,-16,-15
-14,-16,-1,15,-6,-8,6,-10,-10,-18,-17,-15
-14,-16,-2,14,-5,-8,6,-9,-10,-18,-17,-15
-13,-15,-2,14,-5,-8,7,-8,-10,-17,-16,-15
-13,-15,-1,14,-6,-8,7,-7,-8,-16,-16,-15
-13,-15,-1,14,-6,-8,8,-4,-6,-14,-15,-15
-12,-14,-1,13,-5,-7,8,0,-1,-10,-12,-13
-10,-12,-2,11,-4,-7,8,6,5,-2,-6,-9
-7,-9,-2,8,-2,-6,9,13,13,6,1,-3
-2,-6,-3,4,0,-5,9,22,21,17,10,3
3,-1,-5,-1,4,-4,9,32,31,29,21,12
12,3,-9,-7,10,-3,9,45,42,42,35,22
23,7,-15,-15,19,-4,7,58,54,57,50,34
35,11,-23,-24,30,-5,4,71,67,73,67,47
48,15,-32,-32,41,-8,-1,79,78,89,83,59
63,19,-43,-42,53,-11,-8,82,83,101,99,71
81,23,-57,-52,69,-16,-16,81,84,110,113,83
100,26,-73,-64,87,-23,-26,79,81,116,126,94
119,29,-89,-75,104,-30,-37,73,75,119,136,103
135,32,-103,-84,119,-35,-49,62,63,115,139,107
147,34,-112,-91,129,-38,-61,44,45,99,129,102
151,36,-114,-94,132,-39,-71,23,22,75,109,91
149,37,-110,-93,129,-36,-78,-1,-2,48,85,77
142,40,-101,-92,121,-29,-85,-27,-24,23,63,64
132,45,-86,-90,109,-19,-93,-56,-44,1,44,56
117,53,-63,-86,91,-4,-100,-90,-63,-19,30,51
92,62,-29,-78,61,16,-105,-131,-82,-40,14,46
59,70,11,-65,24,40,-106,-177,-105,-65,-7,35
28,72,44,-50,-7,58,-105,-214,-126,-90,-29,21
5,68,63,-36,-28,66,-103,-232,-137,-105,-46,7
-10,61,72,-25,-41,67,-100,-235,-140,-111,-55,-3
-21,55,77,-18,-48,67,-95,-227,-135,-110,-59,-9
-27,49,77,-12,-52,64,-88,-211,-126,-105,-59,-14
-32,42,75,-6,-53,59,-77,-188,-112,-95,-57,-17
-36,36,72,-1,-53,53,-63,-160,-94,-83,-53,-19
-37,30,68,2,-53,49,-49,-133,-77,-70,-47,-19
-37,26,63,4,-51,44,-38,-110,-63,-59,-41,-18
-36,22,58,6,-47,40,-30,-90,-51,-49,-35,-17
-34,19,52,7,-43,35,-22,-73,-41,-40,-31,-15
-31,15,46,7,-38,31,-15,-59,-32,-33,-27,-14
-29,12,41,8,-34,27,-10,-47,-26,-28,-24,-13
-27,9,37,8,-31,23,-5,-38,-21,-25,-22,-12
-25,6,32,9,-28,19,-1,-30,-17,-23,-21,-12
-23,3,27,9,-25,15,2,-22,-13,-21,-20,-13
-22,0,22,10,-22,11,5,-16,-11,-19,-19,-13
-21,-3,18,11,-19,7,7,-11,-9,-18,-18,-14
-20,-5,14,12,-17,5,9,-8,-8,-16,-18,-15
-20,-7,12,13,-15,3,10,-5,-7,-15,-18,-15
-19,-9,10,13,-14,1,11,-3,-7,-15,-18,-16
-17,-10,8,13,-12,0,12,0,-6,-14,-17,-16
-16,-10,6,12,-11,-2,13,2,-5,-14,-17,-16
-15,-11,5,12,-10,-3,14,4,-3,-14,-16,-16
-15,-12,4,12,-9,-4,15,5,-2,-13,-16,-16
-15,-13,3,13,-9,-4,15,6,-1,-12,-16,-17
-15,-13,3,14,-9,-5,15,7,-1,-11,-16,-17
-15,-13,2,14,-8,-5,15,7,-2,-11,-16,-17
-15,-13,2,14,-8,-5,15,8,-2,-11,-16,-17
-14,-13,1,13,-7,-6,15,8,-1,-10,-16,-17
-14,-13,1,13,-7,-6,16,9,-1,-10,-16,-17
-14,-13,0,13,-7,-7,16,10,0,-10,-16,-17
-14,-14,0,13,-7,-7,16,11,0,-10,-15,-17
-14,-14,0,13,-7,-7,16,12,0,-9,-15,-17
-14,-14,0,13,-7,-7,16,12,0,-9,-15,-17
-14,-14,0,13,-7,-7,16,12,1,-9,-15,-17
-14,-14,0,14,-7,-7,16,12,1,-9,-15,-16
-14,-14,0,14,-7,-7,16,12,1,-9,-15,-15
-14,-14,0,13,-6,-7,16,12,2,-8,-14,-14
-13,-14,-1,13,-6,-7,17,13,2,-8,-14,-13
-13,-14,-1,13,-6,-7,17,14,3,-8,-13,-12
-13,-14,-1,12,-5,-7,17,15,3,-7,-13,-11
-12,-14,-1,12,-5,-7,17,16,4,-7,-13,-11
-12,-13,-1,12,-5,-7,17,16,4,-6,-12,-10
-12,-13,-1,12,-5,-7,17,17,5,-6,-12,-9
-12,-14,-1,12,-4,-8,17,17,5,-6,-12,-8
-12,-14,-2,13,-4,-8,17,17,6,-6,-11,-8
-12,-15,-3,13,-4,-9,17,18,6,-5,-11,-7
-12,-15,-3,13,-4,-10,17,19,7,-5,-10,-7
-12,-15,-4,13,-3,-10,17,20,7,-4,-10,-7
-11,-15,-4,12,-3,-9,17,20,8,-4,-10,-7
-11,-14,-3,12,-3,-9,17,21,8,-4,-10,-7
-11,-14,-3,12,-3,-9,17,21,8,-4,-10,-7
-11,-14,-3,12,-3,-9,17,22,9,-4,-9,-7
-11,-14,-3,12,-3,-9,17,22,9,-3,-9,-7
-10,-14,-3,12,-3,-8,17,23,10,-3,-9,-7
-10,-13,-3,11,-3,-8,17,24,10,-3,-9,-7
-10,-13,-3,11,-3,-8,17,25,11,-2,-9,-7
-9,-13,-3,10,-2,-8,18,26,12,-2,-9,-7
-9,-13,-3,11,-2,-8,18,27,13,-1,-9,-6
-10,-14,-3,11,-2,-9,18,28,13,-1,-9,-6
-10,-14,-3,11,-2,-9,18,28,14,0,-9,-6
-9,-13,-3,10,-2,-9,19,29,15,0,-8,-6
-8,-12,-3,9,-2,-8,19,30,16,1,-8,-6
-8,-12,-3,9,-2,-8,19,32,17,2,-7,-6
-7,-11,-4,9,-1,-7,19,33,18,3,-7,-5
-7,-11,-4,8,-1,-7,19,35,19,4,-7,-5
-6,-11,-4,8,-1,-7,19,36,20,5,-6,-4
-6,-10,-4,8,0,-7,19,38,21,6,-6,-4
-5,-10,-4,7,0,-6,19,39,22,7,-5,-3
-5,-9,-4,6,0,-6,19,41,23,8,-4,-2
-4,-8,-4,6,0,-6,19,42,24,9,-4,-1
-4,-8,-4,5,0,-6,19,44,26,10,-3,-1
-4,-8,-4,5,0,-6,19,46,27,11,-2,0
-3,-7,-4,5,1,-5,19,48,29,13,-1,0
-2,-6,-4,4,1,-5,19,50,30,14,0,1
-1,-5,-4,2,2,-4,19,52,32,16,0,3
0,-4,-4,1,2,-3,19,54,34,18,1,4
1,-3,-3,0,3,-3,20,55,36,20,3,6
1,-2,-3,0,3,-2,20,57,37,21,4,7
2,-1,-3,0,3,-2,20,58,39,22,5,8
2,-1,-3,-1,3,-1,20,60,40,23,6,9
3,0,-3,-2,4,-1,20,62,41,24,7,10
4,1,-3,-3,4,0,20,63,43,26,8,11
5,2,-3,-4,4,0,20,64,44,28,9,12
6,3,-3,-5,5,0,20,65,46,29,11,13
6,4,-3,-6,5,0,19,66,47,31,12,14
7,5,-3,-6,5,1,18,66,48,32,14,15
8,6,-2,-7,5,1,17,67,48,33,15,16
9,7,-2,-8,5,2,17,67,49,34,16,17
10,8,-2,-9,6,2,16,68,50,35,17,17
10,9,-2,-9,6,3,16,68,50,36,18,18
11,9,-1,-10,7,3,15,68,51,37,18,18
11,10,-1,-11,7,4,15,68,51,38,19,19
12,11,-1,-12,7,4,14,67,51,39,20,20
13,12,-1,-13,8,5,13,67,52,39,21,20
14,13,-1,-14,8,6,13,66,52,40,21,20
15,14,-1,-15,8,6,12,65,52,40,22,20
15,14,-1,-15,8,7,11,63,51,40,22,20
15,14,0,-14,8,7,10,62,51,39,22,20
14,14,0,-14,8,7,9,60,50,39,22,19
15,14,0,-15,8,7,8,58,49,39,22,19
15,15,0,-16,8,7,7,56,48,39,22,19
15,15,0,-16,8,7,6,54,47,38,22,19
15,16,0,-16,8,7,5,51,45,38,22,19
15,16,0,-16,8,8,4,48,44,37,22,19
15,15,0,-16,8,8,3,45,42,36,22,18
15,15,0,-16,7,8,2,42,40,34,22,17
15,15,0,-16,7,8,2,39,38,33,21,17
15,15,0,-16,7,8,1,36,36,31,20,16
14,15,1,-15,7,8,0,33,33,30,19,14
13,14,1,-15,7,8,0,30,31,28,17,13
12,13,1,-14,6,7,-1,26,28,25,16,11
11,12,1,-12,6,7,-1,23,26,23,14,9
10,12,1,-12,5,6,-1,20,23,21,13,8
10,12,1,-11,5,6,-1,17,21,19,11,6
10,11,1,-11,5,6,-1,15,19,17,10,5
9,10,1,-10,4,6,-1,13,16,15,9,4
8,9,1,-8,3,5,-1,11,14,13,7,2
7,8,1,-7,3,5,-1,9,12,11,5,0
5,7,1,-6,2,5,-1,7,10,9,3,-1
4,6,2,-5,1,5,-1,5,8,7,1,-3
3,6,2,-5,1,4,-1,3,6,5,0,-5
2,5,2,-4,1,4,-1,1,4,3,-2,-6
2,4,2,-3,0,3,-1,0,3,2,-3,-8
1,3,2,-2,0,3,-1,-1,1,1,-5,-9
0,2,3,-1,-1,3,-1,-2,0,0,-6,-11
-1,1,3,0,-1,3,0,-3,-1,-1,-7,-12
-2,1,3,0,-2,3,0,-4,-2,-3,-8,-13
-3,0,4,0,-3,3,0,-5,-3,-4,-9,-14
-3,0,4,1,-3,2,0,-6,-4,-5,-10,-15
-4,0,4,2,-4,2,0,-7,-4,-6,-11,-17
-5,-1,4,3,-4,2,0,-7,-5,-7,-11,-18
-5,-1,4,3,-4,2,1,-8,-6,-7,-11,-18
-5,-1,4,3,-4,2,1,-8,-6,-8,-11,-19
-6,-1,4,3,-4,1,1,-8,-6,-8,-12,-19
-6,-2,4,4,-5,1,1,-8,-7,-9,-12,-20
-7,-2,4,4,-5,1,2,-8,-7,-9,-12,-20
-7,-2,4,4,-5,1,2,-8,-7,-10,-12,-21
-7,-3,4,5,-5,1,2,-8,-7,-10,-12,-21
-7,-3,4,5,-5,1,2,-8,-7,-10,-12,-21
-7,-3,4,5,-5,1,2,-8,-8,-10,-13,-21
-7,-4,4,5,-5,0,3,-8,-8,-10,-13,-22
-8,-4,3,6,-5,0,3,-8,-8,-10,-14,-22
-9,-5,3,6,-5,0,3,-9,-8,-11,-15,-23
-9,-4,4,6,-6,0,3,-9,-9,-11,-15,-23
-8,-3,4,6,-6,0,3,-9,-9,-11,-16,-23
-7,-3,4,5,-6,0,3,-9,-8,-11,-16,-23
-7,-3,4,5,-5,0,3,-9,-8,-11,-16,-23
-8,-3,4,5,-5,0,3,-9,-8,-11,-16,-23
-8,-4,4,5,-5,0,3,-9,-8,-11,-17,-23
-8,-4,4,5,-5,0,3,-9,-8,-12,-17,-23
-8,-4,4,5,-5,0,3,-9,-8,-12,-17,-24
-9,-4,4,5,-6,0,3,-9,-8,-12,-17,-24
-9,-3,5,5,-6,1,3,-9,-8,-12,-17,-24
-9,-3,5,5,-6,1,3,-9,-8,-12,-18,-24
-9,-4,5,6,-6,1,3,-9,-8,-12,-18,-25
-9,-4,5,6,-6,1,3,-9,-8,-12,-18,-25
-9,-4,5,6,-6,1,3,-9,-8,-12,-17,-25
-8,-4,5,6,-6,1,3,-9,-8,-12,-17,-25
-8,-4,5,6,-6,1,3,-9,-8,-12,-17,-25
-8,-4,5,6,-6,1,3,-9,-8,-12,-17,-25
-8,-4,5,6,-6,1,3,-8,-8,-11,-17,-25
-8,-4,5,5,-6,1,3,-8,-8,-11,-17,-25
-8,-3,5,5,-5,1,3,-8,-7,-11,-17,-25
-8,-3,5,5,-5,1,3,-8,-7,-11,-17,-25
-8,-3,6,5,-6,1,3,-7,-7,-11,-17,-25
-8,-3,6,5,-6,2,3,-7,-7,-11,-17,-25
-8,-3,6,5,-6,2,3,-7,-7,-11,-17,-25
-8,-2,6,5,-6,2,3,-7,-7,-11,-16,-25
-8,-2,6,5,-6,2,3,-7,-7,-11,-16,-24
-8,-2,6,5,-6,2,3,-7,-7,-11,-15,-24
-8,-2,6,5,-6,2,2,-7,-7,-11,-15,-23
-8,-2,6,5,-6,2,2,-7,-7,-11,-15,-23
-7,-2,6,4,-6,2,2,-7,-7,-10,-14,-22
-7,-2,6,4,-5,2,2,-6,-7,-10,-14,-22
-7,-2,6,4,-5,2,2,-6,-7,-10,-14,-21
-7,-1,6,4,-5,2,3,-6,-7,-10,-14,-21
-6,-1,6,3,-5,2,3,-6,-7,-10,-14,-20
-6,-1,6,3,-5,2,3,-6,-7,-10,-14,-20
-6,-1,6,3,-5,2,3,-6,-7,-10,-14,-20
-7,-2,6,4,-5,2,3,-6,-7,-10,-13,-20
-7,-2,6,4,-5,2,3,-6,-7,-10,-13,-19
-7,-2,5,4,-5,2,3,-6,-7,-10,-13,-19
-7,-2,5,4,-5,2,3,-6,-7,-10,-13,-19
-7,-2,5,4,-5,1,3,-6,-7,-10,-13,-19
-7,-2,5,4,-5,1,3,-6,-7,-10,-12,-18
-7,-2,5,5,-5,1,3,-6,-7,-10,-12,-18
-7,-2,5,5,-5,1,3,-6,-7,-10,-12,-18
-6,-2,5,4,-4,1,3,-6,-7,-10,-12,-17
-6,-2,5,4,-4,1,3,-6,-7,-10,-11,-17
-7,-2,5,5,-4,1,3,-6,-7,-10,-11,-17
-7,-3,5,5,-4,1,3,-6,-8,-10,-11,-17
-7,-3,5,5,-4,1,3,-6,-8,-10,-11,-17
-7,-3,5,5,-4,1,3,-6,-8,-10,-12,-17
-7,-3,5,5,-5,0,3,-6,-8,-10,-12,-17
-7,-3,5,5,-5,0,3,-7,-8,-10,-12,-17
-7,-3,5,5,-5,0,3,-7,-8,-10,-12,-17
-7,-3,5,5,-5,0,3,-8,-8,-10,-12,-17
-7,-3,5,5,-5,0,3,-8,-8,-10,-12,-16
-7,-3,5,5,-5,0,3,-8,-8,-10,-12,-16
-7,-3,5,5,-5,0,3,-8,-8,-10,-12,-15
-7,-3,5,5,-5,0,3,-8,-8,-10,-12,-15
-7,-3,5,5,-5,0,3,-8,-8,-10,-12,-15
-7,-3,5,6,-5,0,3,-8,-9,-10,-12,-15
-8,-4,5,6,-5,0,3,-8,-9,-11,-13,-15
-8,-3,5,6,-5,1,3,-8,-9,-11,-13,-14
-7,-3,5,6,-5,1,3,-8,-9,-11,-13,-14
-7,-2,5,5,-5,1,3,-8,-9,-11,-13,-13
-7,-2,5,5,-5,1,3,-8,-9,-11,-13,-13
-6,-1,5,4,-5,1,3,-8,-8,-11,-12,-12
-6,-1,6,4,-5,2,3,-7,-8,-10,-12,-11
-6,0,6,3,-5,2,4,-7,-7,-10,-12,-10
-5,0,6,3,-4,3,4,-6,-7,-9,-11,-10
-5,1,6,2,-4,3,4,-6,-6,-8,-11,-9
-4,2,6,2,-4,4,4,-5,-6,-8,-10,-8
-4,2,6,1,-4,4,4,-5,-5,-7,-10,-7
-3,2,6,1,-4,4,5,-4,-4,-7,-9,-6
-3,2,6,0,-3,4,5,-4,-4,-6,-9,-5
-2,2,6,0,-3,4,5,-3,-3,-6,-8,-4
-2,2,6,0,-3,4,5,-3,-3,-5,-8,-3
-2,2,6,0,-3,4,6,-2,-2,-5,-8,-3
-2,3,6,0,-3,4,7,-2,-2,-4,-7,-2
-2,3,6,0,-3,4,8,-1,-1,-4,-7,-2
-2,4,6,-1,-3,4,8,-1,-1,-4,-7,-1
-2,4,6,-1,-3,5,8,0,-1,-4,-6,-1
-2,4,7,-1,-3,5,8,0,-1,-4,-6,0
-2,3,7,0,-3,5,7,0,-1,-4,-6,0
-2,3,7,0,-3,4,6,-1,-1,-4,-6,0
-2,2,6,0,-3,4,4,-1,-1,-4,-6,0
-2,2,6,0,-3,4,3,-2,-2,-4,-6,0
-2,2,5,0,-2,4,2,-2,-2,-5,-6,0
-1,1,4,0,-2,3,0,-3,-3,-5,-7,0
-1,0,3,0,-1,1,-1,-4,-4,-6,-7,0
-1,0,2,1,-1,0,-2,-4,-4,-6,-7,0
-1,-1,1,1,0,-1,-3,-5,-5,-6,-7,0
-1,-2,0,1,0,-2,-4,-5,-5,-6,-7,0
-1,-2,0,1,1,-2,-4,-6,-6,-6,-7,0
-1,-2,0,1,1,-2,-5,-6,-6,-7,-7,0
-1,-3,-1,2,2,-2,-5,-7,-7,-7,-7,0
-1,-4,-2,2,2,-3,-6,-8,-8,-8,-8,0
-1,-5,-2,2,2,-3,-6,-9,-9,-9,-9,0
-1,-5,-3,2,3,-4,-6,-9,-10,-10,-10,0
0,-6,-4,2,3,-5,-6,-10,-10,-11,-10,-1
0,-6,-4,3,3,-6,-5,-10,-10,-11,-10,-1
0,-7,-5,3,4,-6,-5,-10,-11,-11,-11,-1
0,-7,-5,4,4,-7,-4,-10,-11,-11,-11,-2
0,-7,-6,4,4,-7,-4,-10,-11,-11,-11,-2
0,-7,-6,3,4,-7,-3,-9,-11,-11,-11,-2
0,-6,-5,3,4,-6,-2,-9,-11,-10,-11,-1
-1,-5,-3,2,3,-5,-1,-8,-10,-10,-10,-1
-1,-4,-2,2,2,-4,0,-8,-9,-9,-10,0
-2,-4,-1,2,1,-3,0,-7,-9,-9,-10,0
-2,-4,0,3,0,-2,0,-7,-8,-9,-10,0
-3,-4,0,3,0,-2,1,-7,-8,-9,-10,0
-4,-4,0,3,0,-2,1,-7,-8,-9,-9,0
-4,-3,0,3,0,-2,1,-7,-8,-9,-9,0
-4,-3,1,4,-1,-2,1,-7,-8,-9,-9,0
-5,-4,1,4,-1,-2,1,-8,-9,-10,-10,0
-5,-4,2,4,-2,-2,1,-8,-9,-10,-10,0
-6,-4,2,4,-2,-2,1,-9,-10,-10,-10,0
-6,-5,2,5,-3,-2,1,-10,-10,-10,-10,-1
-7,-5,2,5,-3,-2,1,-10,-10,-11,-10,-1
-7,-5,2,6,-4,-2,1,-10,-10,-11,-11,-1
-8,-5,3,7,-4,-2,1,-10,-10,-11,-11,-1
-8,-6,3,7,-4,-2,1,-10,-11,-12,-12,-2
-9,-6,3,8,-5,-2,1,-10,-11,-12,-12,-2
-9,-6,3,8,-5,-2,1,-10,-12,-12,-12,-3
-10,-6,4,8,-6,-2,1,-11,-12,-13,-12,-3
-10,-7,4,8,-6,-2,1,-11,-12,-13,-12,-3
-11,-7,4,8,-7,-2,1,-11,-12,-13,-12,-3
-11,-7,4,9,-7,-2,1,-11,-12,-13,-12,-3
-11,-7,4,9,-7,-2,1,-11,-12,-13,-12,-3
-11,-7,4,10,-7,-2,2,-11,-12,-13,-12,-3
-11,-8,4,10,-7,-2,2,-11,-12,-13,-12,-3
-12,-8,4,10,-7,-2,2,-11,-12,-13,-12,-3
-12,-9,4,10,-7,-2,2,-11,-12,-13,-12,-3
-12,-9,4,10,-7,-2,2,-11,-12,-13,-12,-3
-12,-9,4,10,-7,-2,2,-11,-12,-13,-12,-3
-12,-9,4,10,-7,-2,2,-11,-12,-13,-12,-4
-12,-8,4,10,-7,-2,2,-10,-12,-13,-12,-4
-11,-8,3,10,-7,-2,3,-10,-12,-13,-12,-4
-11,-8,3,10,-6,-2,3,-10,-12,-13,-12,-4
-11,-8,3,9,-6,-2,3,-10,-12,-13,-12,-4
-11,-8,3,9,-6,-2,3,-10,-12,-13,-12,-4
-11,-8,3,9,-6,-2,4,-10,-12,-13,-12,-4
-10,-8,3,9,-6,-3,4,-10,-12,-12,-12,-4
-10,-8,3,9,-6,-3,4,-9,-12,-12,-12,-4
-10,-8,3,9,-6,-3,5,-9,-11,-11,-12,-4
-11,-8,3,9,-6,-3,5,-8,-10,-10,-11,-4
-11,-8,2,9,-6,-3,6,-5,-8,-9,-10,-3
-10,-8,2,9,-5,-3,6,-1,-5,-6,-8,-2
-9,-7,1,7,-4,-3,6,4,0,0,-4,0
-6,-5,1,5,-3,-2,7,12,7,7,1,4
-2,-2,1,2,-1,-1,8,21,15,15,8,10
2,0,0,-1,2,0,8,31,23,25,17,16
9,4,-3,-6,7,0,8,43,34,37,29,25
19,8,-9,-13,15,0,8,57,47,51,42,35
31,13,-17,-22,25,-2,5,69,59,66,57,46
44,18,-26,-31,36,-3,1,78,70,82,72,57
59,22,-36,-41,48,-6,-5,82,77,95,87,69
75,26,-48,-51,62,-10,-13,82,80,105,100,79
93,30,-63,-62,79,-16,-23,81,78,112,113,90
113,33,-79,-74,97,-23,-35,76,73,118,126,100
132,37,-94,-85,114,-29,-48,66,64,118,133,107
146,39,-106,-93,127,-33,-61,50,49,109,130,107
154,41,-112,-98,134,-36,-72,30,28,89,116,99
154,42,-112,-99,134,-35,-81,6,3,62,94,86
149,44,-104,-97,127,-30,-88,-20,-20,35,71,73
140,48,-92,-95,117,-22,-96,-49,-42,11,51,64
128,54,-73,-92,101,-9,-105,-83,-62,-8,37,58
107,61,-45,-85,77,8,-113,-124,-81,-27,23,54
76,68,-7,-73,43,30,-117,-172,-102,-51,4,46
44,71,28,-58,9,50,-119,-217,-124,-76,-16,35
18,69,52,-44,-15,61,-118,-243,-139,-95,-34,22
1,64,63,-33,-30,64,-116,-250,-144,-104,-45,12
-10,59,69,-24,-38,64,-112,-243,-141,-104,-50,5
-17,54,72,-18,-44,63,-104,-226,-131,-99,-51,1
-23,48,72,-12,-47,59,-93,-201,-117,-90,-49,-2
-29,40,70,-6,-49,55,-77,-172,-100,-79,-46,-4
-32,33,68,0,-49,50,-62,-143,-83,-67,-42,-5
-34,28,64,2,-48,45,-49,-118,-68,-56,-37,-5
-33,24,59,4,-45,41,-38,-97,-55,-46,-32,-4
-32,21,53,5,-41,37,-29,-79,-44,-37,-28,-3
-30,17,47,6,-38,32,-21,-63,-35,-31,-24,-2
-28,14,42,7,-34,28,-15,-50,-29,-26,-22,-1
-26,12,38,7,-31,25,-9,-40,-24,-22,-20,-1
-24,9,34,7,-28,21,-5,-31,-20,-20,-18,-1
-22,6,30,7,-25,18,-1,-24,-16,-17,-17,-1
-21,4,26,7,-22,14,2,-17,-14,-16,-16,-1
-20,1,22,8,-20,11,4,-12,-12,-14,-16,-2
-19,-1,18,9,-17,8,6,-9,-10,-13,-15,-2
-18,-2,15,10,-15,6,7,-6,-9,-12,-15,-3
-17,-4,12,10,-14,4,8,-4,-9,-11,-14,-4
-17,-5,10,11,-13,2,9,-2,-8,-11,-14,-4
-16,-7,9,11,-12,1,10,0,-7,-10,-13,-5
-16,-8,8,12,-11,0,11,2,-6,-10,-13,-5
-15,-8,8,12,-11,0,12,3,-5,-9,-13,-5
-15,-9,7,12,-10,-1,12,4,-5,-8,-13,-5
-15,-9,7,12,-10,-1,12,5,-4,-8,-13,-5
-15,-10,6,12,-9,-2,12,6,-4,-8,-13,-5
-14,-10,5,12,-9,-2,13,6,-4,-8,-13,-5
-14,-9,4,11,-9,-2,13,7,-4,-8,-12,-5
-13,-9,4,11,-8,-2,13,8,-3,-7,-12,-4
-13,-9,3,11,-8,-2,14,9,-3,-7,-12,-4
-13,-10,3,11,-7,-3,14,10,-2,-6,-12,-4
-13,-10,3,11,-7,-3,14,10,-2,-6,-12,-4
-13,-10,3,11,-7,-3,14,11,-1,-5,-12,-4
-12,-10,3,11,-6,-3,14,11,-1,-5,-12,-4
-12,-9,3,10,-6,-3,14,11,-1,-4,-11,-3
-11,-8,3,9,-6,-3,14,12,0,-4,-11,-3
-11,-8,2,9,-6,-3,14,12,0,-4,-11,-3
-11,-8,2,9,-5,-3,15,12,0,-3,-11,-2
-10,-8,2,8,-5,-3,15,13,0,-3,-10,-2
-10,-8,2,8,-4,-3,16,14,1,-2,-10,-2
-10,-8,2,8,-4,-3,16,14,1,-2,-10,-2
-10,-9,2,9,-4,-4,16,15,2,-2,-10,-2
-10,-9,2,8,-4,-4,16,15,2,-2,-10,-1
-9,-9,1,8,-4,-4,16,16,2,-2,-10,-1
-9,-9,1,8,-4,-4,16,16,3,-2,-10,-1
-9,-9,1,9,-4,-5,16,17,3,-1,-9,-1
-9,-9,0,9,-4,-5,16,18,3,-1,-9,-1
-9,-9,0,9,-4,-5,16,19,4,0,-8,-1
-9,-9,0,9,-4,-5,16,19,4,0,-8,-1
-10,-9,0,9,-4,-5,16,20,5,0,-8,-1
-10,-10,0,9,-4,-5,16,20,5,0,-8,-1
-9,-10,0,9,-4,-5,16,21,6,1,-8,-1
-9,-10,0,9,-3,-5,16,22,6,1,-7,-1
-9,-9,0,9,-3,-5,16,23,7,1,-7,-1
-8,-9,0,8,-3,-5,17,24,7,2,-7,-1
