leadI,leadII,leadIII,leadaVR,leadaVL,leadaVF,leadV1,leadV2,leadV3,leadV4,leadV5,leadV6
1,0,0,0,0,0,-1,0,0,0,0,0
2,1,-1,-1,1,0,-3,1,-1,1,-1,-1
4,1,-2,-2,2,0,-4,2,-2,1,-2,-2
5,2,-3,-3,3,0,-4,2,-2,2,-2,-2
5,3,-2,-4,3,0,-4,3,-2,2,-2,-2
4,3,-1,-3,2,1,-3,3,-2,2,-2,-2
3,2,0,-3,1,1,-2,4,-2,2,-2,-3
2,2,0,-2,1,1,-1,4,-2,1,-4,-4
2,1,-1,-2,1,0,0,6,-2,0,-6,-5
2,0,-2,-1,1,0,2,9,-1,0,-7,-7
2,-1,-3,0,1,-1,4,12,1,0,-8,-8
2,-1,-3,0,1,-2,4,16,4,2,-7,-8
2,-1,-2,0,1,-2,4,18,8,5,-5,-7
2,0,-2,0,1,-1,4,20,13,9,-2,-4
2,1,-1,-1,1,0,5,24,21,15,2,0
3,4,0,-3,1,2,6,32,33,24,10,6
5,6,1,-6,2,4,7,41,47,35,19,14
9,9,0,-9,4,5,8,50,60,47,29,22
14,13,0,-14,6,6,9,57,73,60,40,31
18,17,0,-18,8,8,10,63,84,74,51,40
22,20,0,-21,10,10,9,67,94,88,63,49
26,24,-1,-25,12,11,6,69,103,101,74,59
30,28,-1,-29,14,13,-1,66,107,112,85,69
33,34,1,-33,15,18,-10,55,104,119,94,78
35,42,7,-38,13,24,-20,34,91,118,99,84
34,48,14,-41,9,31,-29,1,60,104,96,85
32,52,21,-42,4,36,-37,-39,13,77,84,81
28,53,26,-40,0,39,-45,-83,-42,42,67,72
24,50,28,-36,-3,39,-51,-121,-94,6,48,60
19,44,27,-31,-5,35,-56,-149,-135,-25,28,47
14,35,22,-25,-5,29,-57,-166,-164,-52,9,32
9,24,16,-16,-4,20,-56,-174,-182,-74,-10,15
3,12,10,-8,-4,11,-54,-174,-191,-90,-28,0
0,3,4,-1,-3,3,-53,-169,-192,-100,-41,-13
-2,-5,-2,4,-1,-4,-52,-159,-185,-103,-49,-23
-4,-12,-8,8,1,-10,-52,-146,-172,-101,-53,-28
-5,-17,-12,11,2,-15,-50,-131,-157,-95,-53,-31
-5,-19,-14,12,3,-17,-47,-115,-141,-87,-51,-32
-5,-20,-14,12,4,-17,-43,-99,-124,-79,-49,-31
-5,-19,-14,12,4,-17,-38,-83,-107,-70,-44,-29
-4,-18,-13,11,4,-16,-33,-67,-89,-60,-39,-26
-3,-16,-13,9,4,-15,-28,-52,-72,-50,-32,-21
-1,-14,-12,7,4,-13,-24,-40,-57,-41,-26,-17
0,-11,-11,5,4,-11,-21,-30,-45,-33,-21,-13
2,-8,-9,3,4,-9,-18,-23,-36,-27,-17,-11
3,-6,-8,2,4,-8,-15,-17,-29,-22,-15,-9
3,-5,-8,1,4,-7,-12,-13,-24,-18,-13,-8
3,-5,-7,1,4,-6,-10,-9,-19,-16,-11,-8
3,-5,-7,1,4,-6,-8,-6,-15,-13,-10,-7
3,-5,-7,1,4,-5,-7,-3,-12,-11,-8,-6
2,-4,-6,1,3,-4,-6,-1,-9,-9,-7,-5
2,-4,-5,1,2,-4,-5,0,-7,-8,-5,-4
1,-3,-4,1,2,-3,-4,2,-5,-6,-5,-4
1,-4,-4,1,2,-3,-3,3,-4,-6,-4,-4
2,-4,-5,0,3,-4,-2,4,-4,-6,-4,-4
2,-4,-6,0,4,-5,-2,4,-3,-6,-5,-5
2,-4,-7,0,4,-5,-2,5,-2,-5,-5,-5
2,-5,-8,1,5,-6,-2,5,-2,-5,-5,-5
2,-5,-8,1,5,-6,-2,5,-1,-4,-5,-5
3,-5,-7,1,5,-6,-2,6,-1,-4,-5,-5
3,-5,-7,1,5,-6,-2,6,-1,-3,-5,-5
3,-5,-7,1,5,-7,-2,7,0,-3,-5,-5
3,-4,-7,0,4,-6,-1,8,0,-2,-4,-5
3,-3,-6,0,4,-5,0,9,1,-1,-4,-4
3,-3,-6,0,4,-5,0,9,2,0,-3,-4
3,-3,-6,0,4,-4,0,9,3,0,-3,-4
3,-3,-6,0,4,-4,0,9,3,0,-3,-4
4,-3,-6,-1,4,-4,1,9,3,1,-3,-4
4,-2,-5,-1,4,-4,1,10,3,1,-3,-3
3,-1,-4,-1,4,-3,2,11,4,2,-2,-3
3,-2,-4,0,4,-4,2,11,4,2,-2,-3
3,-2,-5,0,4,-4,2,11,4,2,-2,-3
3,-2,-5,0,4,-4,2,11,4,2,-2,-3
3,-2,-6,-1,5,-4,2,11,4,2,-2,-3
4,-2,-6,-1,6,-4,1,11,4,2,-3,-4
5,-2,-7,-2,6,-5,1,11,4,2,-3,-4
5,-2,-7,-2,6,-5,1,11,4,1,-3,-4
5,-2,-7,-1,6,-5,0,10,4,1,-3,-4
4,-4,-8,0,6,-6,0,10,3,0,-3,-4
3,-5,-8,0,5,-6,0,10,3,0,-4,-4
2,-5,-8,1,5,-7,0,10,3,-1,-4,-4
2,-6,-8,1,5,-7,0,10,3,-1,-4,-5
2,-6,-8,2,5,-7,0,10,3,-2,-4,-6
1,-7,-8,2,4,-7,0,9,2,-2,-5,-7
0,-8,-8,3,3,-8,0,9,2,-3,-5,-8
0,-9,-8,4,3,-8,0,9,2,-3,-6,-8
0,-9,-8,5,3,-9,0,9,2,-4,-6,-8
-1,-9,-7,5,2,-9,0,9,2,-4,-6,-8
-2,-10,-6,6,2,-8,0,9,2,-5,-6,-8
-3,-11,-6,7,1,-9,-1,9,2,-5,-6,-8
-4,-11,-6,8,0,-9,-1,9,2,-6,-6,-8
-3,-10,-6,7,1,-9,-1,10,3,-6,-6,-8
-2,-9,-6,6,1,-8,-1,10,3,-6,-5,-7
-2,-9,-6,6,1,-8,-1,10,3,-6,-5,-7
-3,-9,-6,6,0,-8,-1,10,3,-6,-5,-7
-3,-9,-6,6,0,-7,0,10,4,-6,-5,-7
-3,-8,-5,5,0,-7,0,10,4,-6,-5,-7
-2,-7,-5,5,0,-6,0,10,5,-6,-5,-6
-2,-6,-4,4,0,-5,1,11,5,-5,-5,-6
-2,-6,-3,4,0,-4,1,12,6,-5,-4,-5
-2,-5,-2,4,0,-4,1,13,7,-4,-4,-5
-2,-5,-2,3,0,-3,2,14,8,-4,-3,-4
0,-4,-2,2,0,-3,2,14,8,-3,-3,-4
1,-3,-3,1,2,-4,2,14,8,-3,-3,-4
1,-3,-4,1,2,-4,2,14,8,-3,-3,-3
1,-2,-3,0,2,-3,2,15,9,-3,-3,-3
2,-1,-3,0,2,-2,2,15,9,-3,-2,-2
3,0,-3,-2,2,-2,2,16,10,-3,-2,-2
4,1,-2,-3,3,-1,3,16,10,-2,-2,-2
5,3,-1,-4,2,0,4,17,11,-2,-2,-2
5,4,0,-5,2,1,5,18,12,-1,-2,-2
5,5,0,-5,1,2,5,19,13,-1,-2,-1
5,6,0,-5,1,3,5,19,14,-1,-2,0
5,6,0,-6,1,3,5,20,15,-1,-2,0
5,7,1,-6,1,4,5,20,15,0,-1,0
5,7,1,-6,1,4,5,20,15,0,-1,0
4,6,1,-5,1,4,5,20,15,0,0,0
4,6,1,-5,1,4,5,20,15,0,0,0
5,6,1,-6,1,4,5,21,16,0,0,0
5,6,1,-6,1,4,5,21,16,1,1,0
5,6,1,-6,1,4,5,21,16,1,1,0
4,6,1,-6,1,4,5,21,16,2,1,0
4,6,1,-6,1,4,5,21,16,2,2,0
4,6,2,-6,1,4,5,21,16,3,2,0
4,6,2,-5,0,4,5,22,17,3,2,1
3,6,3,-5,0,4,5,22,17,3,2,1
3,5,3,-4,-1,4,4,22,17,4,2,1
2,5,3,-4,-1,4,4,23,17,4,2,1
2,5,3,-4,-2,4,4,23,17,4,3,1
1,5,4,-4,-2,4,4,23,18,5,3,1
1,5,4,-4,-2,4,4,23,18,5,4,1
1,6,4,-4,-2,4,4,23,18,5,4,2
1,6,4,-4,-2,4,3,23,18,5,4,2
0,6,5,-3,-3,4,3,23,18,5,4,2
0,6,5,-3,-3,5,2,23,18,5,5,2
0,6,5,-3,-3,5,2,24,19,6,5,3
1,7,6,-4,-3,6,3,25,20,6,5,3
2,8,6,-5,-2,7,3,25,20,6,6,4
3,9,6,-5,-2,7,3,25,20,6,6,4
3,9,6,-6,-2,7,3,25,21,6,6,4
3,10,6,-6,-2,8,3,26,21,6,7,5
4,10,6,-7,-2,8,3,26,21,7,7,5
4,11,7,-8,-2,9,3,26,21,7,7,6
4,12,8,-8,-2,9,2,26,22,8,7,6
4,12,8,-8,-2,9,1,26,22,8,7,7
4,12,7,-8,-2,9,1,26,22,7,7,7
4,12,7,-8,-2,9,0,26,22,7,7,7
4,12,7,-8,-2,9,0,26,22,7,8,7
4,12,8,-8,-2,10,0,26,22,7,8,8
4,13,8,-9,-2,10,0,26,22,7,8,8
5,13,8,-9,-2,10,0,26,22,7,8,9
6,14,8,-10,-2,11,0,26,22,7,9,9
6,15,9,-11,-1,11,0,26,22,8,9,10
7,16,9,-12,-1,12,0,26,22,8,10,10
7,17,10,-12,-1,12,-1,26,22,8,10,11
7,17,10,-12,-1,13,-1,26,22,8,10,11
6,16,10,-12,-1,13,-2,26,22,8,10,12
6,16,10,-12,-1,13,-2,25,22,8,10,12
7,17,10,-12,-1,13,-3,25,21,8,10,12
7,18,10,-13,-1,13,-3,24,21,8,10,13
7,18,10,-13,-2,14,-3,24,20,8,11,13
6,18,11,-12,-3,14,-3,24,20,8,11,14
5,17,12,-11,-4,15,-3,24,19,8,12,14
4,17,13,-11,-5,15,-4,23,19,8,12,14
4,17,13,-10,-5,15,-5,23,18,8,12,14
4,16,12,-10,-5,14,-6,22,17,7,12,14
3,16,13,-9,-5,14,-6,21,16,7,12,14
2,16,13,-9,-6,15,-7,21,16,7,12,15
2,16,13,-9,-5,14,-7,19,15,7,12,15
3,16,12,-9,-4,13,-7,18,13,6,11,14
3,15,11,-9,-4,13,-7,17,12,5,11,14
2,15,12,-9,-5,13,-7,16,12,5,11,14
2,16,12,-9,-5,14,-7,16,11,4,11,14
3,16,12,-10,-4,14,-7,16,11,4,11,14
3,16,12,-10,-4,14,-7,15,10,3,11,14
3,16,13,-9,-5,14,-7,15,9,3,11,14
2,16,13,-9,-6,14,-7,14,9,3,11,14
2,16,13,-9,-6,14,-7,14,8,3,11,14
2,16,13,-9,-6,14,-7,13,8,2,11,14
3,17,13,-10,-5,15,-7,13,7,2,11,14
3,17,13,-11,-5,15,-7,12,7,1,11,14
3,17,13,-11,-5,15,-7,12,6,1,10,13
4,17,13,-11,-5,15,-7,12,6,1,10,13
4,17,13,-11,-5,15,-7,12,5,0,9,13
4,17,12,-11,-4,15,-7,12,5,0,9,13
4,17,12,-11,-4,14,-7,12,5,0,9,13
4,17,12,-11,-4,14,-6,12,5,0,9,13
4,16,12,-10,-4,14,-6,12,5,0,9,13
4,16,12,-10,-4,14,-6,12,5,0,9,13
5,16,11,-10,-3,14,-5,12,5,0,9,13
5,16,11,-10,-3,14,-5,12,5,0,9,13
5,16,11,-10,-3,13,-4,12,6,0,9,13
5,16,11,-10,-3,13,-4,13,6,1,9,13
5,15,11,-10,-3,13,-3,13,7,1,9,12
4,14,10,-9,-3,12,-2,13,7,2,9,12
3,13,10,-8,-3,11,-2,13,8,2,9,11
3,13,10,-8,-3,11,-1,13,8,2,10,11
3,13,10,-8,-4,11,0,14,9,3,10,11
2,13,10,-8,-4,11,0,15,10,3,10,10
1,11,10,-6,-5,11,0,15,10,3,9,10
1,11,9,-6,-4,10,0,15,10,3,9,9
3,12,8,-8,-3,10,0,15,10,4,9,9
3,12,8,-8,-3,10,1,15,10,4,9,9
1,10,8,-6,-4,9,1,14,10,4,8,8
0,8,7,-5,-4,7,1,14,10,4,8,7
-1,6,7,-3,-5,7,1,14,10,4,8,7
-2,5,8,-2,-6,7,2,14,10,4,7,6
-3,5,8,-1,-6,6,2,14,10,3,7,6
-3,4,7,0,-6,5,2,13,9,3,6,5
-4,3,7,0,-7,5,2,13,9,3,6,5
-5,2,8,1,-7,5,2,13,9,3,6,4
-6,1,8,1,-8,4,2,13,9,3,6,4
-6,1,7,2,-8,4,2,13,9,3,6,4
-7,0,7,2,-7,3,3,13,9,2,5,4
-7,0,7,3,-8,3,3,12,9,2,5,3
-8,-1,7,5,-8,3,4,12,8,2,4,3
-10,-1,7,6,-9,3,4,12,8,2,4,2
-11,-2,7,6,-10,3,4,12,8,1,3,2
-11,-3,8,7,-10,2,4,12,8,1,3,1
-12,-3,8,7,-10,2,5,11,7,0,3,1
-12,-4,8,7,-10,2,5,11,7,0,3,1
-12,-4,8,8,-10,2,5,11,7,0,2,1
-12,-4,8,8,-10,1,4,11,6,0,2,1
-12,-4,8,8,-10,1,4,11,6,0,2,1
-11,-4,7,8,-9,1,5,10,6,0,2,1
-11,-4,7,8,-9,1,5,10,6,0,2,1
-12,-5,7,8,-9,1,5,10,6,-1,2,1
-12,-5,7,8,-10,1,5,10,5,-1,2,0
-13,-6,7,9,-10,0,5,9,5,-1,1,0
-13,-6,7,9,-10,0,5,9,4,-1,1,0
-13,-6,7,9,-10,0,5,9,4,-1,1,0
-13,-6,7,9,-10,0,5,9,4,-1,1,0
-13,-6,7,9,-10,0,5,9,4,-1,1,0
-13,-6,6,9,-10,0,5,8,3,-1,0,0
-13,-6,7,9,-11,0,5,8,3,-1,0,0
-14,-6,8,10,-11,0,6,8,3,-1,1,0
-14,-6,8,9,-11,0,6,9,4,-1,1,1
-13,-5,8,9,-11,1,7,9,4,-1,1,1
-12,-4,8,8,-11,1,7,9,4,-1,1,1
-12,-4,8,8,-10,1,7,9,4,-1,1,1
-12,-4,8,8,-10,1,7,9,4,-1,1,1
-12,-4,8,8,-10,1,7,9,4,-1,1,1
-12,-3,9,8,-11,2,7,9,4,-1,1,1
-12,-3,8,7,-10,2,7,9,4,-1,1,1
-11,-3,8,7,-10,2,7,9,4,-1,0,1
-11,-3,7,7,-9,2,8,10,4,-1,0,1
-11,-2,8,6,-10,2,8,10,4,0,0,1
-11,-1,8,6,-10,3,9,10,5,0,0,1
-10,-1,9,5,-10,3,9,11,5,0,0,1
-10,0,9,5,-10,4,9,11,5,0,0,1
-10,0,9,5,-10,4,9,11,6,0,0,1
-10,0,9,5,-10,4,9,11,6,0,0,1
-10,0,9,5,-10,4,9,11,6,0,1,2
-11,0,10,5,-10,5,9,12,7,0,1,2
-11,0,11,5,-11,5,9,12,7,0,1,2
-10,0,10,5,-10,5,9,12,7,0,1,2
-10,0,10,5,-10,5,9,12,7,0,1,2
-11,0,10,5,-11,5,9,12,7,0,1,2
-11,0,11,5,-11,5,10,12,7,1,1,2
-11,0,10,5,-11,5,10,12,7,1,1,2
-10,0,10,5,-11,5,10,12,7,1,2,2
-10,0,10,5,-11,5,10,12,8,2,2,2
-10,0,10,5,-11,5,10,12,8,2,3,2
-10,0,10,5,-11,5,10,12,8,2,3,2
-10,0,10,5,-11,5,9,12,8,2,3,2
-10,0,10,5,-11,5,9,13,8,2,3,2
-11,0,10,6,-11,5,9,13,8,2,3,2
-12,-1,11,7,-12,5,8,13,8,2,3,2
-13,-1,11,7,-12,5,8,13,8,2,3,2
-13,-2,10,7,-11,4,8,13,8,2,4,2
-12,-2,10,7,-11,4,8,13,8,2,4,2
-12,-2,10,7,-11,4,8,13,8,2,5,2
-12,-2,10,8,-12,4,7,13,8,3,5,2
-12,-2,10,7,-12,4,7,13,9,3,5,2
-12,-1,10,7,-11,4,7,13,9,3,5,2
-12,-1,10,6,-11,4,7,14,9,3,5,2
-11,0,10,5,-11,5,8,14,10,4,5,2
-11,0,10,5,-11,5,8,15,10,4,5,2
-11,0,10,5,-11,5,8,15,10,5,5,2
-10,0,10,5,-11,5,8,15,11,5,5,2
-9,1,10,4,-10,5,8,15,11,5,6,2
-8,2,10,3,-9,5,8,15,11,5,6,3
-8,2,10,3,-9,6,8,15,11,6,6,3
-7,3,11,2,-9,6,8,15,11,6,6,4
-7,3,11,1,-9,7,9,15,12,6,6,4
-6,4,10,1,-8,7,9,15,12,6,6,4
-6,4,10,0,-8,7,9,16,12,6,6,4
-6,5,10,0,-8,7,9,16,12,6,6,4
-6,5,10,0,-8,7,9,17,13,7,6,4
-6,5,10,0,-8,7,8,17,13,7,6,4
-6,5,10,0,-8,8,8,17,13,7,6,4
-6,4,10,0,-8,8,8,17,13,7,6,4
-7,4,10,0,-9,8,8,16,13,7,6,4
-6,5,10,0,-8,8,8,16,13,7,6,4
-4,6,10,-1,-7,9,8,16,13,7,7,5
-4,6,9,-1,-7,9,8,16,13,7,7,5
-5,5,9,0,-8,8,8,16,13,6,7,4
-5,5,10,0,-8,8,8,16,13,6,7,4
-5,5,10,0,-8,8,8,16,13,6,7,5
-6,5,10,0,-8,8,8,16,12,6,7,5
-7,4,10,1,-8,7,8,15,12,6,6,4
-8,3,10,1,-9,7,7,15,12,6,6,4
-8,3,10,2,-9,7,7,15,12,6,5,4
-9,3,10,2,-10,7,7,15,12,6,5,4
-9,2,10,2,-10,7,7,15,12,5,5,3
-9,2,10,2,-10,7,7,15,12,5,5,3
-9,2,10,3,-10,7,7,15,11,4,5,3
-10,2,11,3,-11,7,7,15,11,4,5,3
-10,2,11,3,-11,7,7,15,11,4,5,3
-9,2,10,3,-10,7,7,14,11,4,4,3
-9,2,10,3,-10,7,6,14,10,3,4,3
-9,2,10,3,-9,7,6,14,10,3,3,3
-9,1,10,3,-10,6,6,14,10,2,3,2
-10,0,10,4,-10,6,6,14,9,2,3,2
-11,0,10,5,-10,5,5,13,9,1,2,1
-11,-1,9,6,-10,4,5,13,9,1,2,1
-10,-1,9,5,-10,4,5,13,9,0,2,1
-10,-1,9,5,-10,4,5,12,8,0,1,1
-11,-2,8,6,-10,3,5,12,8,0,1,0
-11,-3,8,7,-10,3,5,12,7,-1,0,0
-11,-3,8,7,-10,3,5,12,7,-1,0,0
-12,-3,8,8,-10,3,5,12,7,-2,0,0
-13,-3,9,8,-11,3,5,12,7,-2,-1,0
-14,-4,9,9,-11,3,5,12,6,-3,-1,0
-14,-4,8,9,-11,2,4,11,6,-3,-1,0
-13,-5,7,9,-10,1,4,10,5,-4,-2,-1
-13,-5,7,9,-10,1,4,10,5,-4,-2,-1
-13,-5,7,9,-10,1,4,10,5,-4,-2,-1
-13,-5,7,9,-10,1,4,10,5,-4,-2,-1
-14,-5,7,9,-11,1,4,10,5,-4,-2,-1
-14,-5,7,9,-11,1,4,10,5,-4,-2,-1
-14,-5,7,9,-11,1,3,9,4,-4,-2,-1
-13,-5,6,9,-10,0,3,9,4,-4,-2,-2
-13,-5,6,9,-10,1,3,9,3,-4,-2,-2
-13,-4,7,9,-11,1,4,10,4,-4,-2,-2
-13,-4,8,8,-11,2,4,10,4,-4,-2,-1
-13,-4,8,8,-11,2,4,10,4,-4,-2,-1
-13,-4,7,8,-10,2,4,10,3,-4,-2,-1
-11,-4,6,7,-9,2,4,10,3,-4,-2,-1
-10,-2,6,6,-9,2,4,10,4,-4,-2,-1
-10,-1,7,6,-9,3,4,11,4,-3,-1,0
-11,-2,7,6,-9,3,4,11,4,-3,-1,0
-11,-2,7,6,-9,2,4,10,4,-4,-1,0
-10,-1,7,5,-9,3,5,10,4,-4,-1,0
-9,-1,7,4,-9,4,5,10,4,-4,-1,0
-9,0,8,4,-9,4,6,10,4,-4,-1,0
-9,0,8,4,-9,4,6,10,4,-4,-1,0
-9,0,8,4,-9,5,6,11,5,-3,-1,1
-9,1,9,4,-10,5,7,11,5,-3,-1,1
-9,1,9,3,-9,5,7,11,5,-3,-1,1
-8,1,8,3,-8,4,6,11,4,-3,-1,0
-8,0,7,3,-8,3,6,10,4,-4,-2,0
-8,0,7,4,-8,3,6,10,4,-4,-2,-1
-8,0,7,4,-8,4,6,10,4,-4,-2,-1
-8,0,7,3,-7,4,6,10,4,-4,-2,-1
-8,0,7,3,-7,3,6,10,4,-4,-2,-1
-8,0,7,4,-8,3,6,10,4,-4,-2,-1
-8,0,7,4,-8,3,7,10,4,-4,-2,0
-8,0,7,4,-8,3,7,10,4,-4,-2,0
-9,-1,7,5,-8,3,7,10,3,-4,-2,0
-9,-1,7,5,-9,3,7,10,3,-4,-2,-1
-10,-2,7,6,-9,3,6,10,3,-5,-2,-1
-10,-2,7,6,-9,2,6,10,3,-5,-3,-1
-10,-2,7,6,-9,2,6,10,3,-5,-3,-1
-10,-2,7,6,-9,2,6,10,3,-5,-3,-1
-11,-2,7,6,-9,2,6,9,2,-5,-3,-2
-11,-2,8,7,-10,2,6,9,2,-5,-3,-2
-11,-2,8,7,-10,2,6,9,2,-5,-3,-2
-11,-2,8,7,-10,2,6,9,2,-5,-3,-2
-11,-2,7,7,-9,2,6,9,2,-5,-3,-2
-11,-2,7,7,-9,2,6,9,2,-5,-3,-2
-11,-2,7,7,-9,2,6,9,2,-5,-3,-2
-11,-2,7,7,-9,2,6,8,2,-6,-3,-2
-11,-2,8,7,-9,2,6,8,1,-6,-3,-2
-11,-3,7,7,-9,1,6,9,1,-5,-3,-2
-11,-4,7,8,-9,1,7,9,2,-5,-2,-2
-11,-4,6,8,-9,1,7,9,2,-5,-2,-2
-11,-4,7,8,-10,1,7,9,2,-5,-2,-2
-12,-4,7,8,-10,1,7,9,2,-5,-2,-2
-12,-4,7,8,-9,1,7,9,2,-5,-2,-1
-12,-4,6,8,-9,1,7,9,2,-5,-2,-1
-12,-4,6,8,-8,1,7,9,2,-5,-2,-1
-11,-4,6,8,-8,1,7,9,2,-5,-2,-1
-11,-4,7,8,-9,1,8,9,2,-4,-1,-1
-12,-4,8,8,-10,1,8,9,2,-4,-1,-1
-13,-4,8,9,-10,1,8,9,2,-4,-1,-1
-13,-4,8,9,-11,1,8,9,2,-4,-1,-2
-13,-4,7,9,-11,1,8,9,2,-4,-1,-2
-13,-5,7,9,-10,1,8,9,2,-4,-1,-2
-14,-5,7,9,-11,1,9,9,2,-4,-1,-2
-14,-4,8,9,-11,2,9,9,2,-4,-1,-2
-13,-3,9,8,-10,3,9,9,2,-4,-1,-2
-12,-3,8,7,-10,2,9,10,2,-4,-1,-2
-11,-3,8,7,-9,2,9,10,2,-4,-1,-2
-11,-3,8,7,-10,2,9,10,2,-4,-1,-1
-11,-2,9,7,-10,3,9,10,3,-3,-1,-1
-12,-2,10,7,-11,3,9,10,3,-3,-1,-1
-13,-1,11,7,-11,4,9,11,4,-2,0,0
-13,-1,11,6,-11,4,9,11,4,-2,0,0
-12,0,11,6,-11,5,9,11,5,-2,0,0
-12,0,11,6,-11,5,9,12,5,-1,0,0
-13,0,12,6,-12,5,10,12,6,-1,0,0
-13,1,12,6,-12,6,11,12,6,-1,0,0
-12,1,12,5,-12,7,11,12,6,-1,1,1
-11,2,12,5,-12,7,12,13,6,-1,1,1
-10,2,12,4,-11,7,12,13,6,0,1,1
-10,2,12,4,-11,7,13,13,7,0,1,1
-9,2,12,3,-11,8,13,13,7,0,1,1
-9,3,13,3,-11,8,13,13,7,0,1,1
-10,4,14,2,-12,9,13,13,7,0,1,2
-10,5,14,2,-12,10,13,13,7,1,1,2
-10,5,14,2,-12,10,13,13,7,1,2,2
-10,5,14,2,-12,10,12,13,7,1,2,3
-9,4,13,2,-12,9,12,13,7,1,3,3
-9,4,12,2,-10,8,11,13,7,1,3,4
-8,3,11,2,-9,7,11,13,8,1,3,4
-8,3,11,2,-10,7,10,13,8,2,3,4
-8,4,11,2,-10,7,10,13,8,2,4,5
-6,4,10,1,-9,7,9,13,8,2,4,5
-5,4,9,0,-8,6,9,13,8,2,4,5
-4,5,10,-1,-8,8,9,13,8,2,4,5
-3,7,10,-2,-7,9,9,14,9,3,5,6
-2,8,10,-3,-6,9,9,14,9,3,5,6
-2,8,10,-3,-6,9,8,13,9,3,5,6
-2,7,10,-2,-6,9,8,13,8,3,5,6
-2,6,9,-2,-6,8,7,12,7,3,5,5
-3,5,9,-1,-6,7,7,11,6,2,4,5
-3,5,9,-1,-6,7,8,11,6,2,4,5
-3,5,9,-1,-6,7,8,11,6,2,4,5
-5,4,9,0,-7,7,8,11,6,2,4,5
-7,2,9,2,-8,6,8,10,5,2,4,5
-9,1,9,3,-9,5,8,10,5,2,4,5
-9,0,9,4,-9,5,8,10,5,2,4,5
-9,0,8,4,-9,4,8,10,5,2,4,5
-8,0,7,4,-8,3,8,10,5,2,4,5
-8,0,7,4,-8,3,8,10,5,2,4,4
-8,-1,7,5,-8,2,8,9,4,1,3,4
-8,-1,7,5,-8,2,8,8,4,1,3,3
-9,-1,7,5,-8,3,8,8,3,1,2,3
-11,-2,8,6,-9,3,8,7,3,1,2,2
-12,-2,9,7,-10,3,8,7,2,0,1,2
-13,-3,9,8,-11,3,8,6,2,0,1,2
-14,-4,9,9,-12,2,9,6,1,0,1,1
-15,-5,9,10,-12,2,9,6,1,-1,1,1
-15,-6,9,10,-12,1,9,5,1,-1,0,0
-16,-7,8,11,-12,1,9,5,0,-1,0,0
-16,-7,8,11,-12,0,9,4,0,-1,0,0
-16,-7,9,12,-13,0,9,4,0,-1,0,0
-17,-8,9,13,-13,0,9,4,0,-2,0,0
-17,-8,8,13,-13,0,9,4,0,-2,0,0
-17,-8,8,12,-13,0,10,4,0,-2,0,0
-16,-7,8,12,-13,1,10,4,0,-2,0,0
-16,-8,8,12,-13,0,10,4,0,-2,-1,-1
-16,-8,7,12,-13,0,10,3,-1,-2,-1,-1
-16,-8,8,12,-13,0,10,3,-1,-2,-1,-1
-17,-8,8,13,-13,0,10,3,-1,-2,-1,-2
-17,-8,8,13,-13,0,10,3,-1,-2,-1,-2
-17,-9,8,13,-13,-1,9,2,-2,-2,-2,-2
-17,-9,7,13,-13,-1,9,2,-2,-2,-2,-2
-18,-9,7,14,-13,-1,9,2,-2,-2,-2,-2
-18,-9,8,14,-13,0,9,2,-1,-2,-1,-1
-18,-9,8,14,-14,0,10,2,-1,-2,-1,-1
-18,-9,8,13,-14,0,11,2,-1,-1,-1,-1
-17,-8,9,13,-14,0,12,3,-1,-1,-1,-1
-17,-7,9,12,-14,1,12,3,0,-1,-1,-1
-16,-6,9,11,-13,1,12,3,0,-1,-1,0
-16,-6,9,11,-13,2,12,3,0,-1,-1,0
-16,-5,10,11,-13,2,13,3,0,-1,-1,0
-15,-5,10,10,-13,3,13,3,0,-1,-1,0
-14,-4,10,9,-13,3,14,2,0,-2,-2,-1
-14,-4,10,9,-13,3,16,3,0,-2,-2,-2
-15,-5,10,10,-13,2,18,5,0,-3,-3,-4
-15,-6,9,11,-13,1,20,7,1,-3,-4,-5
-15,-7,8,11,-13,0,21,10,3,-3,-5,-6
-14,-6,8,10,-12,0,21,13,7,-1,-4,-6
-13,-4,8,9,-11,1,22,16,11,1,-2,-4
-13,-2,9,8,-11,3,22,18,17,6,0,-1
-12,0,10,6,-11,5,23,23,25,12,5,3
-10,2,11,4,-11,7,24,31,37,22,13,9
-7,6,12,0,-10,9,25,40,51,34,22,17
-3,9,11,-3,-8,10,26,48,64,46,33,26
0,12,11,-6,-6,12,27,55,76,59,44,35
4,16,12,-10,-5,14,27,60,87,73,55,44
7,20,12,-14,-3,16,26,65,98,87,66,54
11,24,12,-17,-1,18,23,67,106,101,78,64
15,28,12,-21,1,20,16,63,110,112,89,74
18,34,15,-26,1,24,6,51,107,118,97,82
20,41,20,-30,0,30,-4,29,92,117,101,88
19,47,27,-32,-4,37,-13,-3,61,103,98,88
16,50,34,-33,-9,42,-22,-45,14,76,86,83
12,51,39,-32,-13,45,-29,-88,-41,41,69,75
8,49,41,-28,-17,45,-35,-126,-92,5,50,64
3,43,39,-23,-19,41,-39,-153,-133,-26,30,51
-2,34,35,-15,-19,34,-41,-170,-161,-53,11,37
-7,22,29,-7,-19,25,-40,-177,-179,-74,-8,20
-11,11,22,0,-18,16,-38,-178,-188,-90,-25,3
-15,1,15,7,-16,8,-37,-174,-188,-99,-38,-10
-17,-7,8,12,-14,0,-36,-164,-182,-102,-46,-20
-17,-14,2,16,-11,-6,-36,-151,-170,-100,-50,-25
-17,-18,-2,18,-9,-10,-34,-136,-154,-94,-50,-28
-18,-20,-3,19,-8,-11,-30,-120,-138,-87,-48,-28
-19,-21,-3,20,-9,-12,-26,-105,-121,-79,-45,-28
-19,-21,-3,20,-9,-11,-21,-89,-103,-70,-41,-26
-17,-19,-3,18,-8,-10,-16,-73,-85,-59,-36,-23
-16,-17,-2,17,-8,-9,-12,-58,-68,-49,-30,-18
-16,-16,0,16,-8,-8,-8,-46,-54,-39,-24,-14
-16,-14,1,15,-9,-6,-5,-36,-43,-32,-18,-11
-15,-12,2,13,-9,-4,-1,-29,-34,-26,-15,-8
-15,-10,4,13,-10,-3,2,-23,-27,-21,-12,-6
-16,-10,5,12,-11,-2,4,-18,-21,-18,-11,-5
-15,-9,5,12,-11,-1,7,-14,-16,-15,-10,-5
-14,-8,5,11,-11,-1,8,-11,-12,-13,-8,-4
-14,-7,5,10,-11,0,9,-9,-9,-10,-7,-3
-14,-7,6,10,-11,0,10,-7,-7,-8,-6,-3
-14,-7,6,10,-11,0,11,-6,-6,-7,-5,-2
-14,-6,7,10,-11,0,12,-5,-5,-6,-4,-2
-14,-6,6,10,-10,0,13,-4,-4,-6,-4,-2
-13,-6,5,9,-9,0,13,-3,-4,-5,-4,-2
-13,-7,5,10,-9,-1,14,-2,-2,-5,-4,-2
-13,-7,5,10,-10,-1,14,-1,-1,-4,-4,-2
-13,-6,5,10,-10,-1,15,0,0,-3,-3,-2
-12,-6,5,10,-10,0,15,0,1,-2,-3,-2
-11,-5,5,9,-10,0,15,0,1,-1,-2,-1
-11,-5,5,8,-9,0,16,1,2,-1,-2,-1
-11,-4,6,7,-9,0,16,1,2,0,-1,0
-11,-4,6,7,-9,1,17,2,3,0,-1,0
-10,-4,6,7,-8,1,17,2,3,0,-1,0
-10,-3,6,6,-8,1,17,3,4,1,0,0
-9,-3,6,6,-8,1,17,4,5,1,0,0
-9,-3,5,6,-8,1,17,4,5,2,0,0
-9,-3,5,6,-8,1,17,4,6,3,0,0
-9,-3,5,6,-8,1,17,4,6,3,0,0
-9,-3,6,6,-8,1,17,4,6,4,0,0
-10,-3,6,6,-9,1,17,4,6,4,0,0
-10,-3,6,6,-8,0,16,4,6,4,0,0
-10,-3,5,7,-8,0,16,4,6,4,0,0
-10,-3,5,7,-8,0,16,4,6,4,0,0
-10,-4,5,7,-8,0,16,4,6,4,0,-1
-10,-4,5,8,-8,0,16,4,6,4,0,-1
-10,-4,6,8,-8,0,16,4,6,4,0,-1
-10,-4,6,8,-8,0,16,4,6,4,1,-1
-11,-4,6,8,-9,0,16,5,6,4,1,-1
-12,-5,7,8,-10,0,16,5,7,4,1,-1
-12,-5,7,8,-10,0,16,5,7,4,1,-1
-12,-5,7,8,-11,0,16,6,7,4,1,0
-13,-5,8,9,-11,0,16,6,7,4,2,0
-14,-6,8,10,-12,0,16,6,7,4,2,0
-14,-7,8,11,-12,0,16,6,7,3,2,0
-14,-7,7,11,-11,0,15,5,7,3,2,-1
-14,-7,7,11,-11,-1,15,5,7,2,2,-1
-15,-8,6,12,-11,-2,14,5,6,2,2,-2
-17,-10,6,14,-12,-2,14,4,6,1,1,-2
-18,-11,7,14,-13,-2,13,4,5,1,1,-2
-18,-11,7,14,-13,-2,13,4,5,2,1,-2
-18,-10,7,14,-13,-1,14,4,6,2,2,-2
-17,-10,7,14,-13,-1,14,5,6,3,2,-2
-17,-9,7,13,-13,-1,14,5,7,3,2,-2
-16,-9,7,12,-12,-1,14,5,7,3,3,-1
-15,-8,7,12,-12,-1,14,6,7,3,3,-1
-14,-8,6,11,-11,-1,14,6,7,3,3,-1
-12,-7,6,10,-9,-1,14,6,7,4,3,-1
-11,-5,6,9,-8,0,14,7,8,4,3,0
-10,-5,6,8,-8,0,14,7,8,4,4,0
-10,-5,6,8,-8,0,14,7,8,4,4,0
-10,-5,6,8,-8,0,14,7,8,5,4,0
-8,-3,6,6,-7,0,14,7,9,5,5,0
-6,-1,6,3,-6,1,14,8,9,6,5,0
-5,0,6,2,-5,2,14,8,10,6,6,1
-4,1,6,1,-5,2,14,9,10,7,6,2
-3,1,6,1,-5,3,15,9,11,7,6,2
-3,2,5,0,-5,3,15,9,11,8,7,2
-2,2,5,0,-4,3,15,9,11,8,7,2
-1,2,4,0,-4,3,15,9,11,8,7,2
-1,3,4,-1,-4,3,15,10,11,9,7,1
0,4,4,-1,-3,4,15,10,12,9,7,1
0,5,4,-2,-3,4,15,11,12,10,8,2
1,6,4,-3,-3,4,16,11,13,10,8,2
1,6,5,-4,-2,4,16,12,13,11,8,2
1,7,5,-4,-2,5,16,12,14,11,8,2
2,7,5,-4,-2,5,16,13,14,12,9,3
2,8,6,-5,-2,6,16,13,15,12,9,3
3,9,6,-5,-2,7,16,14,15,13,10,4
3,9,6,-6,-2,7,16,14,16,13,10,4
4,10,6,-6,-2,8,16,15,16,14,11,5
4,10,7,-6,-2,8,16,15,16,14,11,5
4,10,7,-7,-2,8,16,15,16,15,11,5
4,10,7,-7,-2,8,17,16,17,15,11,6
4,11,7,-7,-2,8,17,16,17,16,11,6
4,11,7,-7,-2,9,17,17,18,16,12,6
4,11,7,-7,-2,9,16,17,18,16,12,6
3,10,7,-7,-2,8,16,17,18,17,12,6
3,10,7,-7,-3,8,16,17,18,17,12,6
3,10,8,-7,-3,9,16,18,19,18,13,7
2,10,8,-6,-3,9,16,18,19,18,13,7
2,10,8,-6,-3,9,16,18,19,18,13,7
2,10,8,-6,-3,9,16,18,20,19,13,7
2,11,9,-7,-3,9,15,18,20,19,13,7
2,11,9,-7,-4,10,15,18,21,19,14,8
3,12,9,-7,-3,10,15,18,21,19,14,8
4,12,8,-8,-3,10,14,19,21,19,14,8
4,12,8,-8,-2,10,14,19,21,19,14,9
4,12,8,-8,-2,10,14,19,21,19,14,9
4,12,9,-8,-2,10,14,19,21,19,14,9
4,13,9,-9,-2,10,13,19,21,19,15,9
4,13,9,-9,-2,10,13,20,21,19,15,10
4,13,10,-9,-3,11,12,20,22,19,16,10
5,15,10,-10,-3,12,12,20,22,20,16,11
5,16,10,-11,-3,13,12,21,23,20,17,11
5,16,11,-10,-3,13,12,21,23,20,17,12
5,16,11,-11,-3,13,12,21,23,20,18,12
7,17,11,-12,-2,13,12,21,23,21,18,12
9,18,10,-13,-1,13,11,20,23,21,18,13
10,18,10,-14,0,13,10,20,22,21,18,13
11,19,9,-14,0,13,10,19,22,21,18,13
11,19,9,-15,0,13,9,19,22,21,18,13
10,19,10,-15,-1,14,9,19,22,21,18,14
9,19,10,-15,-1,15,8,19,22,21,18,15
10,19,10,-15,-1,15,7,19,22,21,18,15
10,20,10,-15,0,15,6,18,21,21,19,15
11,20,10,-15,0,15,6,18,21,21,19,15
10,20,11,-15,0,15,5,18,21,21,19,16
10,20,11,-15,-1,15,5,17,20,21,19,16
10,20,11,-15,-1,15,4,17,20,21,19,16
10,20,11,-15,-1,15,4,16,19,21,19,17
9,20,11,-15,-1,15,4,16,19,21,19,17
9,20,11,-15,-1,15,3,15,18,21,20,17
9,19,11,-14,-1,15,3,14,18,20,20,18
9,19,11,-14,-1,15,2,14,17,20,20,18
8,19,12,-13,-2,15,2,13,16,20,20,18
7,19,12,-13,-3,15,1,12,15,19,19,18
6,19,13,-12,-3,15,1,12,15,19,19,17
5,19,13,-12,-4,15,0,11,14,18,19,17
5,19,13,-11,-4,15,0,11,13,18,18,17
4,18,13,-11,-5,15,0,10,12,17,18,17
4,18,14,-11,-5,15,-1,9,12,17,17,17
4,18,14,-11,-5,16,-1,8,11,16,17,17
4,18,14,-11,-5,15,-2,8,10,16,17,17
5,18,14,-11,-5,15,-2,7,9,15,17,17
5,18,13,-11,-4,15,-2,6,8,15,17,17
6,18,12,-12,-4,15,-2,5,7,14,17,17
7,18,11,-12,-3,15,-2,4,6,14,17,17
7,18,11,-12,-3,15,-2,3,5,13,16,16
7,18,11,-12,-3,15,-2,3,4,12,16,16
6,18,12,-12,-3,15,-2,3,4,12,16,16
6,18,12,-12,-3,14,-2,2,4,11,16,16
7,18,12,-12,-3,14,-2,2,3,11,16,16
7,18,12,-12,-3,14,-2,2,3,11,15,16
7,18,11,-12,-3,14,-2,1,2,11,15,16
7,18,10,-12,-3,14,-2,1,2,11,15,15
7,17,9,-12,-2,13,-2,1,1,11,15,15
8,17,8,-12,-2,13,-2,1,1,11,15,14
8,17,8,-12,-1,13,-2,1,1,11,15,14
7,16,8,-12,-1,13,-1,1,1,11,15,14
7,16,9,-12,-1,13,-1,1,2,11,15,14
7,15,9,-12,-1,12,-1,1,2,11,15,13
7,15,8,-12,-1,12,-1,1,2,11,15,13
7,14,8,-11,-1,11,0,2,2,11,15,12
7,13,7,-11,-1,10,0,2,3,11,15,12
6,13,7,-10,-1,10,1,2,3,11,15,12
6,12,7,-9,-1,10,1,3,4,11,14,11
5,12,7,-9,-1,9,2,3,4,11,14,11
5,11,6,-8,-1,9,2,3,4,12,14,11
5,10,6,-8,-1,8,3,3,4,12,13,11
5,10,5,-8,-1,7,3,3,5,12,13,11
5,9,5,-8,0,7,3,3,5,12,13,10
4,9,4,-8,-1,7,3,3,6,12,13,10
4,9,4,-7,-1,6,4,3,6,12,13,9
3,8,3,-6,-1,5,4,3,6,12,12,8
3,8,3,-5,-1,5,4,3,6,12,12,7
3,7,3,-5,-1,5,5,4,6,12,11,7
3,7,3,-5,-1,5,5,4,6,12,11,6
3,6,4,-5,-1,5,5,4,6,12,11,6
3,6,4,-5,-1,5,6,4,6,12,11,6
2,5,3,-5,-1,4,6,3,6,12,10,5
2,5,3,-4,-1,4,6,3,6,11,10,5
2,4,3,-4,-1,4,6,3,6,11,10,4
1,3,3,-3,-1,3,6,2,6,11,10,4
1,3,2,-3,-1,3,5,2,5,10,9,3
1,3,2,-3,-1,2,5,2,4,10,9,3
1,2,2,-2,-1,2,5,1,4,10,8,3
0,2,2,-2,-2,2,5,1,4,10,8,3
-1,1,2,-1,-2,1,5,1,4,9,8,3
-2,0,2,0,-3,1,5,1,4,9,7,3
-3,0,2,0,-3,1,6,0,4,9,7,2
-3,0,2,1,-3,1,6,0,4,9,6,2
-2,0,3,0,-3,1,6,0,4,9,6,2
-2,0,3,0,-3,1,6,0,4,8,6,2
-3,0,3,0,-3,1,6,0,4,8,6,2
-3,-1,3,1,-3,1,6,0,3,8,6,1
-2,0,3,0,-3,1,6,0,3,7,6,1
-1,0,2,0,-2,1,6,0,3,7,6,1
-1,1,2,-1,-2,2,6,0,3,7,6,1
-1,1,2,-1,-2,2,6,0,3,7,6,1
0,1,2,-1,-1,1,6,0,3,7,5,1
0,1,1,-2,-1,1,6,-1,2,7,5,1
1,2,2,-2,-1,2,7,0,3,7,5,2
1,2,2,-2,-1,2,8,0,3,7,5,2
1,2,1,-2,0,1,8,0,2,7,5,2
1,2,1,-2,0,1,8,0,2,7,5,2
0,2,2,-2,-1,2,8,0,2,7,5,2
0,2,2,-2,-1,2,8,0,2,7,5,2
0,2,2,-2,-1,2,8,0,2,7,5,2
0,2,2,-2,-1,2,7,0,2,7,5,1
0,2,2,-2,-1,2,7,0,2,7,4,1
1,2,2,-2,-1,2,7,0,2,7,4,1
2,2,1,-2,0,2,7,0,2,7,4,1
2,3,1,-3,0,2,7,0,2,7,4,1
2,3,1,-3,0,2,7,0,2,7,4,1
1,3,2,-3,0,2,7,0,2,7,4,1
2,3,2,-3,0,2,7,0,2,7,4,1
3,4,2,-4,0,2,7,0,2,7,4,1
3,4,2,-4,0,2,7,0,2,7,4,1
2,3,2,-4,0,2,7,0,2,7,4,1
2,3,1,-3,0,2,7,0,2,7,4,1
2,3,1,-3,0,2,7,0,2,6,3,1
2,3,1,-3,0,2,7,0,2,6,3,1
2,3,1,-3,0,2,7,0,2,6,3,1
2,3,2,-3,0,2,7,0,3,6,3,1
1,2,2,-3,0,2,7,0,3,6,3,1
1,2,2,-2,0,2,7,0,3,6,3,1
0,1,2,-2,0,1,7,0,3,6,3,1
0,1,2,-1,-1,1,7,0,3,6,3,1
0,0,2,0,-1,1,7,0,3,6,3,1
-1,0,2,0,-1,1,7,0,4,6,3,1
-2,0,2,0,-2,1,7,0,4,6,3,1
-2,-1,2,1,-2,0,6,0,3,5,2,0
-3,-1,2,1,-3,0,6,0,3,5,2,-1
-3,-2,2,2,-3,0,5,0,3,5,2,-1
-4,-2,3,3,-4,0,5,0,3,5,2,-1
-5,-3,3,3,-4,0,4,0,3,5,2,-1
-6,-3,3,4,-4,-1,4,0,3,5,2,-1
-6,-4,2,4,-4,-1,3,0,3,5,2,-1
-6,-5,2,5,-4,-1,3,0,3,5,2,-1
-6,-5,2,5,-4,-1,3,0,3,5,2,-1
-6,-6,2,5,-4,-1,3,0,3,5,2,-1
-7,-6,2,6,-4,-2,3,0,3,5,2,-1
-7,-6,2,6,-4,-2,3,-1,3,5,2,-1
-6,-5,2,5,-3,-1,3,0,3,5,2,-1
-5,-4,2,4,-3,0,4,0,4,6,3,-1
-5,-3,2,4,-3,0,4,0,4,6,3,-1
-5,-3,2,4,-3,0,4,0,4,6,3,-1
-5,-3,2,4,-3,0,4,0,4,6,3,-1
-5,-3,2,4,-3,0,4,0,4,6,3,0
-5,-3,2,3,-3,0,4,0,4,6,3,0
-5,-2,2,3,-3,0,4,0,4,6,3,0
-4,-2,2,2,-2,0,4,0,4,6,3,0
-3,-2,1,2,-2,0,4,0,4,6,3,0
-3,-2,1,2,-2,0,3,0,5,6,3,0
-2,-2,1,2,-1,0,3,0,5,6,3,0
-2,-1,1,1,-1,0,3,0,5,6,3,0
-1,-1,1,0,-1,0,3,0,5,6,3,0
-1,-1,0,0,0,0,3,0,5,6,3,0
-1,-1,0,0,0,0,3,0,5,6,3,0
-1,-1,1,0,0,0,3,0,5,6,3,0
-1,0,1,0,-1,0,3,1,6,6,3,1
-1,0,2,0,-1,0,4,1,6,7,3,1
-1,0,2,0,-2,1,4,2,6,7,3,1
-1,1,2,0,-1,1,4,2,6,7,3,1
0,1,1,-1,0,1,4,2,6,7,3,1
1,1,1,-2,0,1,4,2,6,7,3,1
1,2,1,-2,0,1,4,2,7,8,3,1
0,2,2,-1,0,1,4,2,7,8,3,1
0,2,2,-1,0,1,4,2,6,8,3,1
-1,2,2,-1,-1,2,4,2,6,8,4,1
-1,1,2,-1,-1,2,4,2,6,8,4,1
0,1,2,-1,-1,2,4,2,6,8,4,2
0,1,2,0,-1,1,4,2,6,8,4,2
0,1,2,0,-1,1,4,2,6,8,4,2
0,1,2,0,0,1,4,1,6,8,4,1
0,0,1,0,0,1,4,1,6,7,3,1
0,0,0,0,0,0,3,1,5,7,3,0
0,0,0,0,0,0,3,0,4,6,2,0
-1,-1,0,0,0,0,3,0,4,6,2,0
-2,-1,1,1,-1,0,3,0,4,6,3,0
-2,-1,2,1,-2,1,3,0,4,6,3,0
-2,-1,2,1,-1,1,3,0,4,6,3,0
-2,-1,1,1,-1,0,3,0,4,6,3,0
-2,-1,1,1,-1,0,3,0,4,6,3,0
-3,-1,2,2,-2,0,3,0,4,6,3,0
-3,-2,2,2,-2,0,3,0,3,6,3,0
-3,-2,2,2,-2,0,2,-1,3,6,2,-1
-3,-3,1,2,-1,-1,2,-1,2,5,2,-1
-2,-3,0,2,0,-2,1,-2,1,5,1,-2
-2,-4,-1,3,0,-2,1,-2,1,4,1,-2
-3,-4,-1,3,0,-2,1,-2,1,4,0,-3
-4,-5,-1,4,-1,-2,1,-2,0,3,0,-3
-4,-6,-1,4,-1,-3,1,-3,0,3,0,-4
-4,-6,-2,4,0,-3,0,-3,0,3,-1,-4
-2,-5,-2,3,0,-3,0,-3,0,3,-1,-4
-2,-5,-2,3,0,-4,0,-3,-1,2,-1,-4
-3,-6,-2,4,0,-4,0,-3,-1,2,-1,-4
-3,-7,-2,4,0,-4,0,-3,-1,2,-1,-4
-4,-7,-2,5,0,-4,0,-3,-1,2,-1,-4
-4,-7,-2,5,0,-4,0,-3,-1,1,-1,-4
-5,-7,-2,5,0,-4,1,-3,-2,1,-1,-4
-5,-7,-2,5,-1,-4,1,-4,-2,1,-1,-4
-5,-7,-2,5,-1,-4,1,-4,-2,1,-1,-4
-5,-7,-2,5,0,-5,1,-5,-2,1,-2,-4
-5,-8,-2,7,-1,-5,1,-5,-3,0,-2,-5
-7,-10,-2,8,-2,-5,1,-5,-3,0,-2,-5
-7,-10,-2,8,-2,-6,1,-5,-3,0,-2,-5
-7,-10,-2,8,-2,-6,1,-5,-3,0,-2,-5
-7,-10,-2,8,-2,-6,1,-5,-3,0,-2,-5
-8,-10,-1,8,-2,-6,1,-5,-3,0,-3,-5
-8,-10,0,8,-3,-5,1,-5,-3,0,-3,-5
-9,-10,0,9,-4,-4,1,-4,-3,0,-3,-5
-8,-9,1,8,-4,-4,1,-4,-3,0,-3,-5
-7,-8,1,7,-4,-3,1,-4,-3,0,-3,-4
-6,-7,1,7,-3,-3,2,-4,-3,0,-3,-4
-6,-7,0,6,-3,-3,2,-4,-3,0,-4,-4
-7,-7,0,6,-3,-3,2,-4,-2,0,-4,-4
-7,-6,0,6,-3,-3,2,-3,-2,0,-5,-4
-6,-6,1,6,-3,-2,2,-3,-2,0,-5,-4
-5,-5,1,5,-3,-2,2,-3,-2,0,-5,-4
-5,-5,1,4,-2,-2,2,-4,-2,0,-5,-4
-4,-4,1,4,-2,-1,3,-4,-2,0,-5,-3
-4,-4,1,3,-2,-1,3,-3,-2,0,-5,-3
-4,-3,1,3,-2,-1,4,-3,-1,0,-4,-2
-4,-3,1,2,-2,-1,4,-2,-1,1,-4,-2
-3,-3,1,2,-2,-1,4,-2,-1,1,-4,-3
-2,-3,0,2,-1,-1,4,-2,-2,1,-5,-3
-1,-3,0,2,0,-1,4,-2,-2,1,-5,-4
-2,-3,0,2,0,-1,4,-2,-2,1,-4,-4
-2,-3,0,2,0,-2,4,-2,-2,1,-4,-4
-3,-4,0,3,-1,-2,4,-3,-2,0,-3,-4
-3,-5,-1,3,-1,-3,3,-3,-3,0,-3,-4
-3,-5,-2,3,0,-3,3,-4,-3,1,-3,-4
-3,-5,-2,3,0,-3,3,-4,-3,1,-2,-4
-3,-5,-2,3,0,-4,3,-4,-3,1,-2,-4
-2,-6,-3,3,0,-4,3,-4,-3,1,-2,-5
-2,-6,-3,3,1,-5,2,-5,-4,0,-2,-5
-2,-7,-3,4,1,-5,2,-5,-5,0,-1,-5
-2,-7,-4,4,1,-6,1,-6,-5,0,-1,-6
-3,-8,-4,4,1,-6,1,-6,-6,0,0,-6
-3,-8,-3,5,0,-6,1,-6,-6,0,0,-6
-3,-7,-3,5,0,-6,0,-6,-6,0,-1,-6
-3,-7,-4,5,1,-6,0,-6,-6,0,-1,-6
-3,-7,-4,5,1,-6,0,-6,-6,0,-1,-6
-3,-7,-4,5,1,-6,0,-6,-6,0,-1,-6
-3,-7,-4,4,1,-5,1,-5,-5,0,-1,-6
-2,-6,-3,4,1,-4,1,-5,-5,0,-1,-5
-2,-6,-3,3,1,-4,1,-5,-5,0,-1,-5
-2,-6,-3,4,0,-4,1,-5,-5,-1,-1,-6
-2,-7,-3,4,0,-5,1,-5,-5,-1,-2,-6
-2,-7,-3,4,0,-5,1,-5,-5,-1,-2,-6
-3,-7,-3,5,0,-5,1,-5,-5,-1,-2,-6
-3,-8,-3,5,0,-5,1,-6,-5,-1,-2,-6
-2,-8,-5,5,1,-6,1,-6,-5,-1,-2,-7
-1,-8,-6,5,2,-7,1,-7,-6,-1,-1,-7
-1,-9,-6,5,3,-7,1,-7,-6,-1,-1,-7
-1,-8,-6,4,3,-8,0,-7,-6,-1,-1,-7
0,-8,-7,4,4,-8,0,-7,-6,-2,-1,-8
-1,-9,-8,4,3,-9,-1,-7,-6,-2,-1,-8
-2,-11,-8,5,3,-9,-2,-8,-7,-3,-1,-8
-3,-11,-7,6,2,-9,-3,-8,-7,-3,-1,-8
-3,-11,-7,7,2,-9,-3,-8,-7,-3,0,-8
-3,-11,-7,7,2,-9,-2,-8,-7,-3,0,-8
-3,-11,-7,7,2,-9,-2,-8,-7,-3,-1,-8
-3,-10,-6,7,2,-8,-2,-8,-7,-3,-1,-9
-4,-10,-5,7,1,-7,-2,-8,-7,-3,-2,-9
-4,-9,-4,7,0,-6,-2,-8,-6,-3,-2,-8
-3,-8,-3,6,0,-5,-1,-7,-6,-3,-2,-8
-2,-6,-2,3,0,-4,-1,-7,-5,-3,-2,-7
-1,-4,-2,2,1,-3,0,-6,-4,-3,-2,-7
-1,-3,-2,2,1,-3,0,-6,-3,-2,-2,-6
-1,-3,-2,2,0,-2,0,-5,-3,-2,-2,-6
-1,-3,-2,2,0,-2,1,-5,-3,-2,-3,-6
-1,-3,-2,2,1,-2,1,-5,-3,-2,-3,-5
-2,-2,-1,2,0,-1,1,-4,-2,-1,-2,-5
-2,-2,0,1,0,-1,2,-4,-1,-1,-2,-4
0,-2,-1,0,1,-1,2,-4,-1,-2,-3,-5
1,-1,-2,0,2,-1,2,-4,-2,-2,-4,-5
1,-1,-1,0,1,-1,2,-4,-1,-1,-4,-5
1,0,-1,0,1,0,2,-4,-1,-1,-4,-4
1,0,0,0,0,0,2,-4,-1,-1,-4,-4
0,-1,0,0,0,0,1,-4,-1,-1,-4,-4
0,-1,0,1,0,0,1,-4,-1,-1,-4,-4
0,-1,-1,0,0,0,0,-4,-1,-1,-4,-4
2,-2,-3,0,2,-2,0,-4,-1,-1,-4,-4
3,-2,-5,0,4,-3,-1,-5,-1,-1,-4,-4
3,-3,-6,0,5,-4,-3,-5,-2,-1,-4,-4
3,-3,-6,0,5,-5,-4,-5,-2,-1,-4,-4
3,-3,-6,0,5,-5,-4,-6,-3,-1,-4,-4
3,-3,-6,0,5,-5,-4,-6,-3,-1,-4,-5
4,-3,-7,-1,5,-5,-4,-6,-3,-1,-4,-5
5,-3,-7,-1,5,-5,-4,-6,-3,-1,-4,-5
5,-2,-6,-1,6,-5,-4,-6,-3,-1,-4,-5
5,-2,-6,-1,6,-5,-4,-6,-3,-1,-4,-4
5,-1,-6,-2,6,-5,-4,-6,-3,-1,-4,-4
5,-2,-7,-1,6,-5,-4,-7,-3,-1,-4,-4
5,-3,-8,-1,7,-6,-5,-7,-4,-2,-5,-4
5,-3,-9,-1,7,-6,-5,-7,-5,-2,-5,-5
5,-4,-9,-1,8,-7,-5,-7,-5,-2,-5,-5
5,-4,-10,-1,8,-7,-5,-7,-5,-2,-5,-5
5,-5,-10,0,8,-7,-6,-7,-5,-2,-5,-5
5,-5,-10,0,8,-8,-6,-7,-5,-2,-5,-5
5,-6,-10,0,8,-8,-5,-7,-5,-2,-5,-5
5,-6,-10,1,8,-8,-5,-7,-5,-2,-5,-5
5,-6,-10,1,8,-8,-4,-7,-5,-2,-6,-5
5,-7,-11,1,8,-9,-4,-7,-5,-2,-6,-5
6,-7,-12,0,9,-9,-4,-7,-5,-2,-6,-5
6,-7,-12,0,9,-9,-4,-7,-6,-2,-6,-5
4,-7,-11,1,8,-9,-4,-7,-6,-2,-6,-5
2,-8,-10,2,6,-10,-4,-8,-7,-2,-7,-6
1,-10,-10,4,5,-11,-5,-9,-8,-3,-7,-7
0,-10,-10,5,5,-11,-5,-9,-9,-3,-7,-8
0,-11,-10,5,5,-11,-5,-10,-10,-3,-7,-8
0,-12,-10,6,5,-12,-5,-10,-10,-3,-7,-9
-1,-13,-11,6,5,-12,-5,-10,-10,-3,-7,-9
-1,-13,-11,7,5,-12,-4,-10,-11,-4,-8,-10
-2,-14,-11,7,5,-13,-4,-10,-11,-4,-8,-11
-2,-14,-11,8,5,-13,-4,-10,-11,-4,-8,-11
-3,-15,-11,8,4,-13,-4,-10,-11,-4,-8,-11
-3,-15,-11,9,4,-13,-4,-10,-11,-5,-8,-12
-4,-16,-11,10,4,-14,-4,-11,-11,-5,-9,-12
-4,-17,-11,11,3,-14,-4,-11,-12,-5,-9,-12
-5,-18,-11,11,3,-15,-4,-11,-12,-5,-8,-12
-5,-18,-12,11,4,-15,-4,-11,-12,-5,-8,-12
-5,-18,-12,11,4,-15,-4,-11,-12,-5,-8,-12
-5,-18,-12,11,4,-15,-4,-11,-12,-5,-8,-13
-5,-18,-12,11,4,-15,-4,-11,-12,-5,-8,-13
-5,-17,-12,11,4,-15,-4,-11,-13,-5,-8,-13
-3,-16,-12,10,5,-14,-4,-11,-13,-5,-8,-13
-2,-15,-12,8,5,-14,-4,-11,-13,-5,-8,-12
-1,-14,-12,7,6,-13,-3,-11,-12,-5,-8,-12
0,-14,-12,7,6,-13,-3,-11,-12,-5,-8,-12
-1,-14,-12,7,6,-13,-3,-11,-12,-5,-8,-12
-1,-14,-12,7,6,-12,-3,-11,-12,-5,-8,-12
-1,-13,-12,7,6,-12,-2,-10,-11,-4,-8,-12
1,-12,-12,5,7,-12,-2,-10,-11,-4,-8,-12
2,-11,-13,5,8,-12,-2,-10,-12,-4,-8,-12
2,-11,-13,5,8,-13,-2,-10,-12,-4,-8,-12
2,-11,-13,5,8,-13,-1,-10,-13,-4,-8,-12
2,-11,-13,5,8,-12,-1,-10,-13,-5,-9,-12
2,-11,-13,5,8,-12,0,-10,-13,-5,-9,-13
2,-12,-13,5,8,-13,1,-9,-12,-6,-10,-14
2,-12,-14,5,8,-13,3,-6,-11,-7,-12,-16
2,-12,-14,5,8,-14,5,-2,-9,-7,-13,-17
2,-13,-15,5,8,-14,6,1,-6,-5,-13,-17
2,-13,-15,4,8,-14,6,3,-3,-3,-12,-17
3,-11,-14,3,8,-13,6,5,1,0,-10,-15
4,-10,-14,2,9,-11,6,8,8,4,-6,-12
6,-8,-14,0,10,-10,7,14,18,12,0,-7
9,-5,-14,-3,11,-9,8,22,31,22,8,0
12,-2,-14,-6,13,-7,9,31,44,34,18,7
16,1,-14,-9,15,-6,10,39,56,47,28,16
19,5,-13,-12,16,-4,10,46,68,61,39,25
22,8,-13,-15,17,-2,10,51,78,74,50,34
25,12,-13,-19,19,-1,8,54,87,87,62,44
29,16,-13,-23,21,1,2,53,94,100,74,54
32,21,-12,-27,22,4,-6,46,95,109,84,64
34,28,-7,-31,21,10,-16,30,88,113,91,72
35,35,0,-35,18,18,-26,3,67,107,92,76
34,40,7,-37,14,24,-35,-34,28,86,85,73
31,42,12,-37,10,27,-43,-77,-24,54,70,66
26,41,16,-34,5,29,-50,-119,-79,18,51,56
21,37,17,-30,2,27,-55,-152,-125,-16,32,44
16,30,14,-24,1,22,-58,-175,-160,-45,12,31
12,19,7,-16,2,13,-58,-187,-184,-69,-7,14
8,6,-1,-8,5,3,-57,-192,-198,-88,-26,-3
4,-5,-8,0,6,-6,-56,-190,-203,-101,-42,-18
0,-15,-14,6,7,-15,-55,-182,-200,-108,-53,-30
-1,-24,-21,12,10,-22,-55,-170,-191,-109,-59,-38
-2,-29,-26,15,12,-27,-54,-156,-177,-105,-61,-41
-3,-32,-28,17,13,-30,-52,-140,-161,-98,-61,-43
-3,-33,-30,17,13,-31,-48,-125,-144,-91,-59,-43
-4,-34,-30,18,13,-32,-44,-109,-127,-82,-56,-42
-3,-34,-31,18,14,-32,-39,-93,-110,-73,-51,-40
-1,-32,-30,16,15,-31,-34,-77,-92,-62,-45,-37
0,-29,-28,14,15,-29,-29,-62,-76,-52,-39,-32
1,-25,-26,12,15,-26,-25,-50,-62,-43,-33,-28
3,-22,-24,9,14,-23,-22,-42,-52,-36,-29,-25
3,-20,-23,8,14,-21,-19,-36,-44,-31,-26,-23
3,-19,-22,7,13,-20,-15,-30,-38,-27,-24,-22
3,-18,-22,7,13,-20,-13,-26,-33,-24,-22,-21
3,-18,-22,7,13,-20,-11,-22,-29,-21,-21,-20
3,-18,-21,7,13,-20,-10,-19,-25,-19,-20,-20
3,-18,-21,7,12,-20,-9,-17,-23,-16,-18,-19
3,-18,-20,7,12,-19,-9,-16,-21,-15,-17,-19
3,-17,-20,7,12,-19,-8,-14,-19,-13,-16,-18
4,-16,-19,6,12,-18,-6,-13,-18,-12,-15,-18
4,-16,-19,6,12,-17,-5,-12,-17,-12,-15,-17
4,-16,-19,6,12,-17,-4,-11,-16,-11,-15,-17
4,-15,-19,5,12,-17,-4,-10,-14,-11,-15,-17
5,-15,-20,5,13,-18,-4,-9,-13,-10,-14,-17
6,-15,-20,5,13,-18,-4,-8,-12,-9,-14,-17
6,-15,-20,5,13,-18,-3,-8,-12,-9,-13,-16
6,-15,-21,4,14,-18,-3,-7,-11,-8,-13,-16
6,-15,-21,4,14,-18,-3,-7,-11,-8,-13,-16
6,-15,-21,4,14,-18,-3,-6,-10,-8,-13,-16
6,-14,-21,4,14,-18,-2,-5,-10,-7,-13,-16
6,-14,-21,4,14,-18,-2,-5,-9,-7,-13,-16
7,-14,-22,3,15,-18,-2,-4,-8,-6,-12,-16
8,-14,-22,3,15,-18,-2,-4,-8,-5,-12,-16
8,-13,-22,2,15,-18,-2,-4,-7,-5,-11,-16
9,-13,-22,2,16,-18,-2,-4,-7,-4,-11,-16
10,-13,-23,1,17,-18,-2,-4,-6,-4,-11,-16
11,-12,-23,0,17,-17,-2,-3,-6,-4,-11,-16
11,-12,-23,0,17,-17,-2,-3,-6,-4,-11,-16
10,-13,-23,1,17,-17,-2,-3,-6,-4,-11,-16
10,-13,-23,1,17,-18,-2,-3,-6,-4,-11,-16
10,-13,-23,1,17,-18,-2,-3,-5,-4,-11,-15
10,-13,-23,2,17,-18,-2,-3,-5,-4,-11,-16
9,-13,-23,2,16,-18,-2,-3,-5,-4,-11,-16
9,-14,-23,3,16,-18,-2,-3,-5,-4,-11,-16
8,-14,-23,3,15,-18,-2,-3,-5,-4,-11,-17
8,-15,-23,3,15,-18,-2,-3,-5,-4,-11,-17
7,-15,-23,4,15,-18,-2,-3,-5,-5,-11,-18
7,-16,-23,4,15,-19,-3,-3,-5,-5,-11,-18
6,-17,-23,5,14,-19,-3,-3,-5,-5,-11,-18
5,-18,-23,6,14,-20,-3,-3,-5,-6,-11,-18
4,-19,-23,7,13,-20,-4,-3,-6,-6,-11,-19
3,-20,-22,8,13,-21,-4,-3,-6,-6,-11,-19
2,-20,-22,9,12,-21,-4,-3,-6,-6,-11,-19
1,-21,-22,9,12,-21,-5,-3,-6,-6,-11,-19
0,-21,-22,10,11,-21,-5,-4,-6,-7,-12,-19
0,-22,-22,10,11,-21,-5,-4,-6,-7,-12,-20
0,-22,-22,11,11,-22,-5,-4,-6,-7,-12,-20
0,-23,-22,11,11,-22,-5,-4,-6,-8,-12,-20
-1,-23,-22,12,10,-22,-6,-4,-6,-8,-12,-20
-2,-24,-22,12,10,-22,-6,-4,-6,-8,-12,-20
-2,-24,-22,13,10,-23,-6,-4,-6,-8,-12,-20
-3,-25,-22,13,10,-23,-6,-4,-6,-8,-12,-20
-3,-25,-22,14,9,-23,-6,-4,-6,-8,-12,-20
-3,-25,-21,13,9,-23,-6,-3,-6,-7,-12,-20
-3,-24,-20,13,9,-22,-6,-3,-5,-7,-11,-20
-1,-23,-21,12,10,-22,-6,-3,-5,-7,-11,-20
0,-22,-22,11,11,-22,-6,-3,-5,-7,-11,-20
1,-22,-22,11,11,-22,-7,-3,-5,-7,-11,-20
1,-22,-23,10,12,-22,-7,-3,-5,-6,-11,-20
2,-21,-23,9,13,-22,-8,-3,-5,-6,-11,-20
3,-21,-24,9,14,-22,-8,-3,-5,-6,-11,-20
4,-20,-24,8,14,-22,-8,-3,-5,-6,-11,-20
5,-20,-25,8,15,-22,-8,-3,-5,-6,-11,-20
6,-20,-25,7,16,-23,-8,-2,-4,-6,-11,-20
8,-19,-26,5,17,-22,-8,-2,-4,-6,-11,-19
9,-17,-26,4,17,-22,-7,-1,-3,-5,-10,-19
9,-16,-25,3,17,-21,-7,-1,-2,-4,-10,-18
10,-15,-25,2,17,-20,-6,0,-2,-4,-10,-18
10,-15,-24,2,17,-20,-6,0,-1,-3,-10,-17
10,-14,-24,1,17,-20,-6,1,-1,-3,-9,-17
10,-14,-24,1,17,-19,-6,1,0,-2,-9,-17
9,-14,-23,2,16,-19,-6,2,0,-2,-9,-16
7,-14,-21,2,15,-18,-6,2,0,-1,-8,-16
7,-13,-20,1,14,-16,-6,3,1,-1,-8,-15
8,-11,-19,0,14,-15,-5,4,2,0,-7,-14
9,-11,-19,0,14,-15,-5,4,2,0,-7,-13
10,-10,-20,0,15,-15,-4,4,3,1,-6,-13
11,-10,-20,-1,16,-15,-4,5,3,1,-6,-13
12,-9,-21,-1,16,-15,-4,5,4,2,-6,-13
12,-9,-21,-2,16,-15,-4,6,4,2,-6,-13
12,-9,-20,-2,16,-15,-4,6,4,2,-6,-14
12,-9,-20,-2,16,-15,-4,6,4,2,-6,-14
11,-8,-20,-2,16,-14,-4,7,4,3,-6,-14
11,-8,-20,-2,15,-14,-5,7,5,3,-6,-14
11,-8,-20,-2,15,-14,-5,7,5,3,-6,-13
11,-8,-19,-2,15,-14,-5,8,6,4,-5,-13
11,-8,-19,-2,15,-13,-5,8,6,4,-5,-12
12,-7,-18,-2,15,-13,-5,8,6,5,-4,-12
12,-7,-18,-3,15,-12,-5,8,6,5,-4,-11
12,-6,-18,-3,15,-12,-5,9,6,6,-4,-11
13,-5,-18,-4,16,-12,-5,9,7,6,-3,-11
14,-4,-18,-5,16,-11,-5,9,7,6,-3,-11
15,-3,-17,-5,16,-11,-5,10,8,7,-3,-10
15,-2,-17,-6,17,-10,-5,10,9,7,-2,-10
16,-1,-17,-7,17,-9,-5,11,9,8,-1,-9
17,0,-17,-9,17,-9,-5,12,10,8,-1,-8
18,0,-17,-9,18,-9,-5,12,10,8,0,-8
19,1,-18,-10,18,-9,-6,12,10,8,0,-7
19,2,-17,-11,19,-8,-6,12,10,8,0,-7
20,3,-17,-12,19,-7,-6,12,11,9,0,-6
21,5,-16,-13,19,-6,-5,13,12,9,0,-6
22,7,-15,-15,19,-4,-5,13,13,10,-1,-5
23,9,-14,-16,19,-2,-4,14,14,10,-1,-3
24,11,-13,-18,19,0,-4,15,15,11,-1,-2
26,13,-13,-20,20,0,-4,16,15,11,-1,-1
28,15,-13,-22,21,0,-5,16,15,12,-1,0
29,15,-13,-22,22,0,-5,16,15,12,0,0
29,15,-13,-22,22,0,-6,16,15,13,0,1
29,15,-14,-22,22,0,-7,15,15,13,1,1
29,14,-14,-22,22,0,-8,15,14,13,2,1
29,14,-15,-22,22,-1,-9,14,13,13,4,1
29,13,-15,-22,22,-1,-9,14,12,13,5,1
29,13,-15,-22,22,-1,-10,13,11,13,5,1
29,13,-15,-21,22,-1,-10,13,11,13,5,1
28,12,-15,-20,22,-2,-11,12,10,13,4,1
28,12,-16,-20,22,-2,-12,11,10,13,4,1
28,12,-16,-20,22,-2,-12,11,9,12,5,1
28,12,-15,-20,22,-2,-13,10,9,12,5,1
27,12,-15,-20,22,-2,-13,9,8,12,5,1
27,11,-15,-19,21,-2,-14,8,7,12,5,0
26,11,-14,-18,21,-2,-15,7,6,11,5,0
25,10,-14,-18,20,-2,-16,7,5,11,5,0
24,10,-14,-17,19,-2,-17,6,4,10,5,1
23,9,-14,-16,19,-3,-17,5,3,10,4,1
23,8,-14,-16,19,-3,-18,5,2,10,4,1
22,7,-14,-15,19,-4,-18,4,2,9,4,1
22,7,-14,-15,19,-4,-18,3,1,9,4,1
22,6,-15,-14,19,-5,-19,2,0,8,4,1
22,6,-15,-14,19,-5,-19,1,-1,8,4,1
22,6,-15,-14,18,-5,-19,1,-2,7,4,1
21,6,-14,-14,18,-4,-19,0,-2,7,4,1
21,6,-14,-14,18,-4,-19,0,-3,6,3,0
21,6,-14,-14,18,-4,-20,-1,-4,6,3,0
21,6,-14,-14,18,-4,-20,-1,-4,5,3,0
22,7,-14,-15,18,-4,-20,-2,-5,5,3,-1
22,7,-15,-15,19,-4,-20,-3,-6,4,3,-1
22,7,-15,-14,19,-4,-20,-3,-7,4,3,-1
22,7,-14,-14,19,-4,-20,-4,-7,4,3,-1
23,7,-15,-15,19,-4,-21,-4,-8,4,3,0
24,7,-16,-16,20,-5,-21,-5,-8,4,3,0
24,7,-16,-16,21,-5,-20,-5,-9,4,3,0
24,7,-16,-16,21,-5,-20,-5,-9,4,3,0
24,7,-16,-16,21,-5,-19,-5,-9,3,3,0
25,8,-17,-17,21,-5,-19,-5,-9,3,3,0
26,8,-17,-17,22,-5,-18,-5,-9,3,3,0
26,8,-18,-17,22,-5,-18,-5,-9,3,2,0
26,7,-18,-17,22,-6,-18,-5,-9,3,2,0
27,8,-19,-18,23,-5,-17,-4,-8,4,2,0
28,8,-19,-19,24,-5,-17,-4,-7,4,2,-1
28,8,-19,-18,24,-5,-16,-3,-6,5,2,-2
28,8,-20,-18,24,-6,-16,-3,-6,5,2,-3
28,8,-20,-18,24,-6,-15,-3,-5,5,2,-3
28,8,-20,-18,24,-6,-14,-2,-5,5,2,-3
28,8,-20,-18,24,-6,-14,-2,-5,5,2,-4
28,8,-20,-19,24,-6,-13,-2,-4,5,2,-4
28,8,-20,-19,24,-6,-13,-1,-3,6,2,-4
28,8,-20,-18,24,-6,-12,-1,-2,6,2,-4
28,8,-20,-18,24,-6,-12,0,-1,7,2,-4
29,8,-20,-19,24,-6,-11,0,0,8,2,-4
29,8,-20,-19,25,-6,-10,1,0,8,2,-4
29,8,-20,-19,25,-6,-9,1,0,9,2,-4
28,7,-20,-18,24,-7,-9,1,0,9,2,-5
27,6,-20,-17,24,-7,-9,1,0,9,2,-5
27,6,-21,-17,24,-7,-8,1,0,9,2,-5
27,6,-21,-17,24,-7,-8,1,0,9,1,-5
27,5,-21,-16,24,-7,-8,0,0,9,1,-5
26,4,-21,-15,23,-8,-8,0,0,9,0,-6
25,4,-20,-14,23,-8,-8,0,0,9,0,-6
24,3,-20,-14,22,-9,-7,0,0,9,0,-7
23,3,-19,-13,21,-9,-7,0,0,8,0,-7
22,2,-19,-12,21,-9,-6,0,0,8,0,-7
21,1,-19,-11,20,-9,-6,0,0,8,0,-7
20,0,-20,-10,20,-10,-6,0,0,8,0,-7
20,0,-20,-10,20,-10,-6,-1,0,7,0,-8
19,-1,-20,-9,20,-11,-6,-1,0,7,-1,-8
19,-2,-20,-9,20,-11,-6,-2,0,7,-1,-9
19,-2,-20,-9,20,-11,-6,-2,-1,6,-2,-9
19,-2,-21,-9,20,-12,-6,-2,-1,6,-2,-10
19,-3,-21,-8,20,-12,-7,-3,-2,5,-3,-10
18,-3,-22,-7,20,-13,-7,-3,-2,5,-3,-10
18,-3,-22,-7,19,-13,-7,-4,-2,4,-4,-10
17,-3,-20,-7,18,-12,-7,-4,-3,4,-4,-11
17,-2,-18,-7,17,-10,-8,-5,-4,3,-5,-12
16,-2,-18,-6,17,-10,-7,-6,-4,3,-6,-12
16,-5,-21,-5,18,-13,-6,-5,-4,3,-5,-12
16,-7,-22,-4,19,-15,-6,-5,-4,3,-5,-12
15,-7,-22,-4,18,-15,-6,-5,-4,2,-5,-12
14,-7,-21,-4,17,-14,-6,-5,-4,2,-6,-13
13,-7,-20,-3,17,-14,-6,-5,-4,2,-6,-12
13,-7,-20,-3,16,-14,-6,-5,-4,2,-6,-12
13,-8,-21,-2,16,-14,-6,-5,-5,2,-6,-12
13,-8,-21,-2,16,-15,-6,-5,-5,2,-6,-12
13,-8,-21,-3,16,-15,-7,-5,-5,2,-6,-12
13,-8,-21,-3,16,-14,-7,-5,-5,1,-7,-12
14,-8,-21,-4,17,-14,-7,-6,-5,1,-7,-12
14,-8,-22,-3,17,-15,-7,-6,-5,0,-7,-12
13,-8,-22,-3,17,-15,-7,-6,-5,0,-7,-12
13,-8,-21,-2,17,-15,-6,-6,-5,0,-7,-12
12,-8,-21,-2,17,-15,-6,-6,-6,0,-7,-13
12,-8,-21,-2,17,-15,-6,-7,-6,0,-7,-13
12,-9,-21,-1,16,-15,-6,-7,-6,0,-7,-13
12,-9,-21,-1,16,-15,-6,-7,-6,0,-8,-13
12,-8,-21,-2,16,-15,-6,-7,-6,0,-8,-14
13,-8,-21,-2,16,-14,-6,-6,-6,0,-8,-14
13,-7,-21,-3,16,-14,-6,-6,-6,0,-8,-14
14,-7,-21,-3,17,-14,-6,-6,-6,-1,-8,-14
14,-7,-22,-3,18,-14,-6,-6,-6,-1,-8,-14
15,-7,-22,-3,18,-14,-6,-6,-5,-1,-8,-14
16,-6,-22,-4,19,-14,-6,-6,-5,-1,-8,-13
17,-5,-22,-5,19,-13,-6,-5,-4,-1,-8,-13
17,-5,-22,-5,19,-13,-6,-5,-4,-1,-8,-13
17,-5,-22,-6,19,-13,-6,-5,-4,-1,-8,-13
17,-5,-22,-6,19,-13,-6,-5,-3,-1,-8,-13
17,-4,-22,-6,19,-13,-6,-5,-3,-1,-7,-13
17,-4,-21,-6,19,-12,-6,-4,-2,0,-7,-13
17,-3,-21,-7,19,-12,-5,-4,-1,0,-6,-13
17,-3,-20,-7,18,-11,-5,-4,-1,0,-6,-13
17,-2,-19,-7,18,-10,-5,-4,-1,0,-6,-12
17,-2,-19,-8,18,-10,-5,-4,-1,0,-6,-12
18,-1,-19,-8,18,-10,-5,-4,0,0,-6,-12
18,-1,-19,-8,18,-9,-5,-3,0,0,-6,-12
18,-1,-19,-8,18,-9,-5,-3,0,0,-6,-12
18,0,-19,-9,18,-9,-4,-3,0,0,-6,-12
19,0,-19,-10,19,-9,-4,-2,0,0,-5,-12
19,0,-19,-10,19,-9,-4,-2,0,0,-5,-11
19,0,-19,-10,19,-9,-4,-2,1,0,-4,-11
20,0,-19,-10,19,-8,-3,-1,1,1,-4,-11
21,2,-19,-11,19,-8,-3,-1,2,1,-3,-11
21,3,-18,-12,19,-7,-2,0,2,1,-3,-11
22,3,-18,-12,20,-7,-2,0,3,2,-3,-10
23,4,-19,-13,20,-7,-2,0,3,2,-3,-10
24,4,-19,-13,21,-7,-2,0,3,2,-3,-10
23,4,-19,-13,21,-8,-2,0,3,2,-3,-10
23,3,-19,-13,21,-8,-3,0,3,2,-3,-10
23,3,-19,-13,21,-8,-3,0,3,2,-3,-10
23,4,-19,-13,21,-7,-3,0,3,2,-3,-10
23,4,-19,-13,21,-7,-4,0,3,2,-3,-9
23,4,-19,-13,20,-7,-4,0,3,2,-3,-9
23,4,-19,-13,20,-7,-4,0,3,2,-3,-9
23,4,-19,-13,20,-7,-4,0,3,2,-2,-8
24,4,-19,-14,21,-7,-4,0,3,3,-2,-8
24,4,-19,-14,21,-7,-4,0,4,3,-1,-8
24,4,-19,-14,21,-7,-4,0,4,3,-1,-8
24,4,-19,-14,21,-7,-4,1,4,3,-1,-8
23,4,-19,-14,21,-7,-3,1,5,4,-1,-8
23,4,-19,-14,21,-7,-3,1,5,4,-1,-8
22,5,-18,-13,20,-7,-3,1,6,5,0,-7
21,5,-17,-13,18,-6,-3,2,6,5,0,-7
20,5,-16,-13,18,-5,-3,2,6,5,0,-7
20,5,-16,-13,18,-5,-3,2,6,5,-1,-7
20,5,-15,-12,17,-5,-3,2,6,5,-1,-7
19,5,-15,-12,17,-5,-3,2,6,5,-1,-7
20,5,-15,-12,17,-5,-3,1,6,5,-1,-7
20,5,-16,-12,18,-5,-4,1,6,5,-1,-7
21,5,-17,-13,18,-5,-4,1,5,5,-1,-7
21,5,-17,-13,18,-5,-4,1,5,5,-1,-6
20,5,-16,-13,17,-5,-3,1,6,5,-1,-6
20,5,-15,-12,17,-5,-3,1,6,5,-1,-6
19,5,-14,-12,16,-5,-3,1,6,5,-1,-6
17,4,-14,-10,15,-5,-3,1,6,5,-1,-6
16,2,-14,-9,15,-6,-3,0,5,4,-1,-7
15,2,-14,-8,15,-6,-3,0,5,4,-1,-7
15,2,-14,-8,15,-6,-3,0,5,4,-1,-6
15,1,-14,-8,14,-6,-3,0,5,4,-1,-6
13,0,-13,-7,13,-6,-3,0,5,4,-1,-7
12,0,-13,-6,12,-6,-3,0,5,4,-2,-7
12,0,-12,-6,12,-6,-3,0,5,4,-2,-8
11,0,-12,-5,12,-6,-3,0,5,4,-2,-8
11,0,-12,-5,12,-7,-3,0,4,4,-2,-8
10,-1,-12,-4,11,-7,-3,-1,4,3,-2,-8
9,-1,-11,-3,10,-7,-3,-1,3,3,-2,-8
8,-2,-11,-2,10,-7,-3,-1,3,2,-3,-8
8,-3,-12,-2,10,-7,-3,-1,2,1,-3,-9
8,-3,-12,-2,10,-7,-3,-2,2,1,-4,-9
8,-4,-12,-1,9,-8,-3,-2,2,0,-4,-9
7,-4,-12,-1,9,-8,-3,-2,2,0,-4,-9
7,-4,-11,-1,9,-8,-3,-2,2,0,-4,-8
7,-4,-11,-1,9,-8,-3,-2,2,0,-4,-8
6,-4,-11,0,8,-8,-3,-2,2,0,-4,-8
5,-5,-11,0,7,-8,-3,-2,1,0,-4,-8
4,-6,-11,1,7,-8,-3,-3,1,0,-4,-8
4,-6,-11,1,7,-8,-3,-3,1,0,-4,-8
4,-6,-11,1,7,-8,-3,-3,1,-1,-4,-8
4,-6,-11,2,7,-9,-3,-3,1,-1,-4,-9
4,-6,-11,1,7,-9,-3,-3,1,-2,-5,-10
4,-5,-11,1,7,-9,-3,-3,1,-2,-5,-10
4,-5,-10,0,6,-8,-3,-3,1,-2,-5,-9
4,-5,-10,0,6,-8,-2,-3,1,-2,-5,-9
5,-5,-10,0,7,-7,-2,-3,1,-2,-5,-9
6,-4,-10,0,7,-7,-2,-3,1,-2,-5,-9
7,-3,-10,-1,8,-7,-1,-3,1,-2,-4,-9
7,-2,-9,-1,8,-7,-1,-3,1,-2,-4,-9
7,-2,-8,-2,7,-6,0,-2,2,-2,-4,-8
6,-1,-7,-2,6,-6,0,-2,2,-2,-4,-8
6,-1,-7,-2,6,-5,0,-2,2,-2,-4,-7
7,-1,-7,-3,7,-5,0,-2,2,-2,-4,-7
6,-1,-8,-3,7,-5,0,-2,2,-1,-4,-7
6,-1,-7,-2,6,-4,1,-2,2,-1,-4,-7
6,0,-7,-3,6,-3,1,-1,2,-1,-4,-6
7,1,-7,-4,7,-3,1,-1,3,-1,-4,-6
7,2,-7,-4,7,-3,1,-1,3,-1,-4,-6
7,1,-7,-4,7,-3,1,-1,3,-2,-4,-6
7,1,-6,-4,6,-3,1,-1,3,-2,-4,-5
7,1,-6,-4,6,-3,1,-1,3,-2,-4,-5
8,1,-7,-4,7,-3,1,-1,3,-2,-4,-5
8,1,-7,-4,7,-3,1,-1,3,-2,-3,-4
8,1,-6,-4,6,-3,1,-1,3,-1,-3,-4
8,2,-6,-4,6,-2,1,-1,3,-1,-2,-4
8,2,-6,-4,6,-2,1,-1,3,-1,-2,-4
8,2,-5,-4,6,-2,1,-1,3,-1,-2,-3
8,2,-4,-4,5,-1,2,-1,4,-1,-2,-3
7,2,-4,-4,5,-1,2,0,4,-1,-2,-2
7,3,-4,-4,5,0,2,0,4,-1,-2,-3
7,3,-4,-5,5,0,3,0,4,-1,-2,-3
7,4,-4,-5,5,0,3,0,4,-1,-2,-3
7,4,-4,-5,5,0,4,1,5,-1,-2,-3
7,5,-3,-5,5,0,4,1,5,-1,-2,-3
7,5,-3,-5,5,1,5,1,5,-1,-2,-3
7,5,-3,-5,5,1,5,1,5,-1,-2,-3
9,5,-3,-6,5,1,5,1,5,-1,-2,-2
10,6,-4,-7,6,1,6,1,5,-1,-1,-2
10,6,-3,-8,5,1,6,1,6,0,-1,-2
10,6,-3,-8,5,1,6,1,6,-1,0,-2
10,6,-3,-8,5,1,6,0,5,-1,0,-2
10,7,-3,-8,6,1,6,0,5,-1,0,-2
10,7,-3,-8,5,2,6,1,5,-1,0,-2
9,7,-2,-8,5,2,6,1,5,-1,-1,-3
9,7,-2,-7,5,2,6,0,5,-2,-1,-3
9,7,-2,-8,5,2,6,0,5,-2,-1,-3
10,8,-3,-8,6,2,6,0,5,-2,-1,-3
10,7,-3,-8,6,2,6,0,5,-2,-1,-3
9,7,-2,-8,5,2,6,1,5,-1,-1,-3
8,8,-2,-8,5,3,7,1,6,-1,0,-2
8,8,-2,-8,5,3,7,1,7,0,0,-2
8,8,-1,-8,5,3,7,1,7,0,0,-2
7,8,0,-7,4,3,7,1,7,0,0,-2
7,7,0,-7,3,3,7,1,7,0,0,-2
6,7,1,-6,2,3,7,1,6,0,0,-2
5,6,1,-5,2,3,6,1,6,0,0,-2
5,5,0,-4,2,2,6,1,6,-1,0,-2
4,4,0,-4,2,2,6,1,6,-1,0,-2
3,4,1,-4,1,3,7,2,6,-1,0,-2
3,4,2,-4,0,3,7,2,6,-1,0,-1
3,4,1,-4,0,2,6,1,6,-1,0,-1
3,4,1,-4,0,2,6,1,6,-1,0,-1
3,5,2,-4,0,3,6,1,6,-1,0,-1
2,5,3,-3,0,3,7,1,7,-1,0,-1
1,5,4,-3,-1,4,7,2,7,0,0,-1
1,5,5,-3,-1,4,7,2,8,0,1,0
1,6,5,-3,-2,5,7,3,8,0,1,0
0,6,6,-3,-3,5,7,3,9,0,2,0
0,6,6,-2,-3,6,7,3,9,0,2,0
-1,6,7,-2,-4,6,8,3,9,0,2,0
-2,7,9,-2,-5,7,8,3,10,0,3,1
-3,8,10,-2,-7,8,9,4,10,1,3,2
-2,8,10,-2,-7,8,8,4,10,1,3,2
-1,8,10,-3,-6,8,8,3,10,0,3,2
-1,9,10,-3,-6,9,8,3,10,0,3,3
-1,9,11,-3,-7,10,8,4,11,0,4,3
-2,10,12,-3,-8,11,9,4,11,1,4,3
-2,10,13,-3,-8,11,9,5,12,1,4,3
-2,11,13,-4,-8,12,10,5,12,2,4,3
-2,11,14,-4,-8,12,10,5,13,2,4,3
-2,12,14,-4,-8,12,10,6,13,2,4,3
-2,12,15,-5,-8,13,11,6,14,3,5,4
-2,13,16,-5,-9,14,12,6,14,3,5,4
-3,13,16,-5,-10,14,13,6,14,3,5,4
-4,13,17,-5,-11,15,13,6,14,3,5,4
-4,14,18,-5,-11,15,13,6,15,3,6,5
-4,15,19,-5,-12,16,13,6,15,3,6,5
-4,16,20,-5,-12,17,13,6,15,3,6,5
-4,16,20,-5,-12,17,12,6,15,3,6,5
-4,15,20,-5,-12,16,11,6,15,3,6,5
-4,14,19,-5,-12,16,11,6,15,3,7,5
-2,14,17,-5,-10,15,10,7,15,3,7,6
-1,14,16,-6,-9,15,10,7,15,3,7,6
-1,14,16,-5,-9,14,9,7,15,3,7,6
-1,13,16,-5,-9,14,8,7,15,3,7,6
-2,14,16,-5,-10,14,8,7,15,3,7,6
-2,14,17,-6,-10,15,8,7,16,3,8,7
-2,15,17,-6,-10,15,8,7,16,4,8,7
-2,16,18,-7,-10,16,8,7,16,4,8,7
-2,16,18,-7,-10,16,8,7,15,4,8,7
-1,16,17,-7,-10,16,8,6,15,3,8,7
-1,16,17,-7,-10,16,8,6,14,3,8,7
-1,16,17,-7,-10,16,8,6,14,3,8,7
-1,16,17,-7,-9,16,8,5,14,3,8,7
-2,16,17,-6,-9,15,8,5,14,3,8,7
-3,15,17,-5,-10,15,8,5,14,2,8,7
-3,14,16,-5,-10,14,8,5,14,2,8,7
-3,13,16,-4,-10,14,8,5,13,1,8,7
-4,13,16,-4,-10,14,9,5,13,1,8,7
-4,12,16,-4,-10,14,9,6,13,2,8,8
-4,12,15,-4,-10,13,9,6,13,2,9,8
-4,12,15,-4,-9,13,9,6,13,2,9,7
-4,11,15,-3,-9,12,9,6,13,2,9,7
-4,11,15,-3,-9,13,9,6,13,2,9,7
-3,12,15,-4,-9,13,9,6,13,2,9,7
-3,12,15,-4,-9,13,9,5,12,1,8,6
-4,11,15,-3,-10,13,10,5,12,1,8,6
-5,11,16,-3,-11,13,10,4,11,0,7,5
-5,11,16,-3,-11,13,10,4,11,0,7,5
-5,11,15,-3,-10,12,11,4,11,0,7,5
-5,11,15,-2,-11,12,11,4,11,0,7,5
-5,10,15,-1,-11,12,12,4,11,0,6,5
-6,9,15,-1,-11,12,12,4,11,0,6,5
-6,9,15,-1,-11,12,12,4,11,0,6,5
-6,9,16,-1,-11,12,12,4,11,0,6,5
-6,9,16,-1,-11,12,12,5,10,0,6,5
-6,9,16,-1,-11,12,12,5,10,0,6,5
-7,9,17,-1,-12,12,13,6,11,0,6,5
-7,9,17,-1,-12,12,13,6,11,0,6,5
-7,9,17,0,-12,12,14,5,11,0,6,5
-8,9,17,0,-12,12,14,5,11,0,6,5
-8,9,17,0,-13,12,14,5,11,0,7,5
-9,9,17,1,-13,12,14,5,11,0,7,5
-9,8,17,1,-13,12,14,5,11,0,7,5
-9,8,17,1,-13,12,14,5,11,0,7,5
-9,9,17,1,-13,12,14,5,11,0,7,5
-9,9,17,1,-13,12,14,5,11,0,7,5
-9,9,18,1,-14,12,14,5,11,0,7,5
-10,9,19,1,-15,13,14,5,11,0,7,5
-11,9,20,1,-16,14,14,6,11,0,7,5
-11,10,20,1,-16,14,14,6,11,0,7,5
-11,10,21,1,-16,15,15,6,11,0,7,5
-11,10,21,1,-16,15,15,6,12,0,7,6
-11,10,21,1,-16,14,16,6,12,0,7,6
-12,10,21,2,-16,14,16,6,12,0,7,6
-13,9,21,2,-17,15,17,6,12,0,6,6
-13,10,22,2,-17,15,18,7,12,-1,6,6
-12,10,22,2,-17,15,20,8,13,-1,5,5
-13,9,22,3,-18,15,22,10,13,-2,4,4
-15,8,23,4,-19,15,24,13,15,-2,3,3
-16,7,23,4,-20,15,26,17,18,-2,3,3
-16,8,23,4,-20,15,27,21,22,0,3,3
-15,9,23,3,-19,15,27,23,26,2,5,4
-13,10,22,1,-17,16,26,24,30,6,7,6
-10,13,23,-1,-16,17,26,28,38,12,12,10
-8,16,23,-3,-16,19,27,36,49,21,19,16
-5,19,24,-6,-15,20,28,45,62,33,28,23
-2,22,23,-10,-13,21,30,54,75,45,38,32
1,25,23,-13,-11,23,31,62,88,59,50,41
4,29,23,-17,-9,25,32,68,99,73,61,51
8,33,23,-20,-7,27,32,72,110,87,73,61
12,36,23,-24,-6,29,30,73,118,101,85,71
16,40,24,-28,-5,31,24,70,123,114,97,82
18,46,26,-32,-5,35,16,58,121,122,107,91
20,53,32,-36,-6,42,6,38,109,123,113,98
19,59,40,-39,-10,49,-2,8,83,112,112,100
16,63,47,-39,-15,54,-10,-30,39,85,101,95
12,64,52,-38,-19,57,-16,-73,-14,49,83,86
8,63,54,-35,-23,58,-22,-111,-67,12,63,74
3,58,54,-30,-25,55,-25,-140,-110,-21,42,60
-2,49,51,-23,-26,49,-27,-157,-140,-49,22,45
-7,38,45,-15,-26,41,-26,-165,-159,-71,2,28
-11,27,38,-8,-25,32,-25,-167,-170,-89,-16,11
-14,17,32,-1,-24,23,-25,-165,-173,-100,-31,-4
-17,8,25,4,-22,16,-25,-158,-169,-106,-41,-14
-18,1,19,9,-20,9,-26,-146,-159,-105,-45,-21
-18,-3,15,11,-17,5,-26,-133,-146,-101,-46,-23
-18,-5,12,12,-15,2,-25,-118,-131,-95,-44,-24
-18,-6,11,13,-14,1,-23,-104,-115,-87,-42,-24
-18,-6,10,12,-14,1,-20,-89,-98,-78,-38,-22
-17,-4,11,11,-14,2,-16,-73,-81,-68,-33,-19
-15,-2,12,9,-14,3,-11,-57,-63,-58,-26,-14
-14,0,13,7,-14,5,-6,-44,-48,-48,-20,-10
-12,2,14,5,-13,7,-2,-33,-35,-40,-15,-6
-10,5,16,3,-13,9,1,-24,-24,-33,-11,-3
-9,7,16,1,-13,11,5,-17,-17,-28,-8,-1
-9,7,16,1,-13,11,7,-12,-11,-25,-6,0
-9,8,16,1,-13,11,9,-7,-5,-21,-4,1
-9,8,17,0,-13,12,11,-3,-1,-17,-2,3
-9,8,17,0,-13,12,12,-1,2,-15,-1,4
-8,9,17,0,-13,12,13,0,5,-13,0,5
-8,9,17,0,-13,12,14,2,7,-11,1,6
-8,9,17,0,-13,13,15,3,8,-10,2,6
-8,9,17,0,-13,13,16,5,9,-10,2,6
-8,9,17,0,-13,13,17,6,10,-9,2,6
-7,10,17,-1,-13,13,18,7,12,-9,2,6
-7,10,16,-1,-12,12,18,8,13,-8,3,6
-7,10,16,-1,-12,12,18,8,14,-7,3,6
-6,10,16,-1,-11,12,18,8,14,-7,4,7
-6,10,16,-1,-11,12,18,8,15,-6,4,7
-6,9,16,-1,-11,12,18,9,15,-6,4,7
-6,9,15,-1,-11,12,18,9,15,-6,4,7
-6,9,15,-1,-11,12,18,10,15,-6,4,6
-6,9,15,-1,-11,12,18,10,16,-6,5,6
-6,9,15,-1,-11,12,18,11,17,-5,5,6
-6,10,15,-2,-11,12,18,11,17,-5,5,6
-5,10,15,-2,-10,12,18,11,18,-5,5,6
-5,10,15,-3,-10,12,18,11,18,-5,5,6
-5,10,15,-3,-10,13,18,11,18,-4,6,6
-4,11,15,-3,-10,13,19,11,18,-4,6,6
-4,11,15,-3,-10,14,19,12,18,-3,7,6
-4,11,16,-3,-10,14,19,12,19,-3,8,6
-3,11,16,-3,-10,14,19,12,19,-3,8,6
-3,11,16,-3,-10,13,19,12,19,-3,9,6
-3,11,16,-3,-10,13,19,12,19,-3,9,5
-4,11,16,-3,-10,13,19,12,19,-3,9,5
-5,11,16,-3,-10,13,19,12,19,-3,9,5
-4,11,16,-3,-10,13,19,12,19,-3,9,5
-5,11,16,-2,-11,13,19,12,19,-3,9,5
-6,10,17,-1,-12,13,19,12,19,-2,9,4
-7,10,17,0,-12,13,19,12,19,-2,9,4
-8,9,18,0,-13,13,19,12,19,-2,9,4
-9,8,18,1,-14,13,19,12,19,-2,9,4
-11,8,19,2,-15,13,19,13,19,-2,10,4
-12,7,20,3,-16,13,19,13,20,-2,10,5
-13,7,20,3,-17,13,19,13,20,-2,10,5
-13,7,20,3,-17,13,18,13,20,-2,9,5
-13,6,20,3,-17,12,18,13,20,-2,9,5
-14,6,20,4,-17,12,17,13,20,-2,10,5
-15,6,20,5,-18,13,17,13,20,-2,10,5
-15,6,21,5,-19,13,18,13,20,-2,10,5
-16,6,21,5,-19,13,18,13,21,-2,10,5
-16,6,22,6,-19,13,18,13,21,-2,10,5
-17,5,22,6,-19,13,18,13,22,-2,10,5
-17,5,21,6,-19,13,18,13,22,-2,9,5
-16,5,21,6,-19,13,18,13,21,-2,9,5
-15,6,21,4,-18,13,18,13,21,-2,9,5
-13,8,21,3,-18,14,18,14,22,-1,10,6
-13,9,22,2,-18,15,18,14,23,-1,10,6
-12,10,23,1,-17,16,18,15,24,-1,10,6
-11,11,22,0,-16,16,19,15,24,0,10,7
-9,12,22,-1,-16,17,20,16,24,0,11,8
-8,13,22,-2,-15,17,20,17,25,0,11,8
-8,13,22,-2,-15,17,21,18,25,0,12,9
-9,13,22,-1,-15,17,21,18,26,1,12,9
-9,14,22,-1,-16,18,21,19,27,1,13,10
-7,15,22,-3,-15,18,21,19,28,1,13,10
-6,16,22,-4,-15,18,21,18,28,1,13,10
-6,16,22,-4,-15,19,21,18,28,1,13,10
-6,16,23,-5,-15,19,21,19,28,2,13,10
-6,17,23,-5,-15,20,21,19,28,2,13,10
-6,17,23,-5,-15,20,21,20,29,2,13,11
-6,17,23,-5,-15,20,21,20,29,3,14,11
-6,18,24,-5,-15,20,22,20,30,3,14,12
-6,18,24,-5,-15,21,22,21,30,4,15,12
-6,18,24,-5,-15,21,22,21,31,4,15,12
-6,18,24,-6,-15,21,22,21,31,4,15,12
-5,19,24,-6,-15,21,22,21,31,5,15,13
-5,19,24,-6,-15,21,23,22,31,5,15,13
-6,19,25,-6,-15,22,23,22,31,5,15,13
-6,19,25,-6,-16,22,22,22,32,5,15,13
-7,18,25,-5,-16,21,22,22,32,5,15,13
-8,18,25,-5,-17,21,22,23,32,5,15,13
-8,18,26,-5,-17,22,22,23,32,5,15,13
-8,18,26,-5,-17,22,22,23,32,5,15,13
-8,18,25,-5,-16,22,21,24,32,5,15,13
-7,18,25,-5,-16,22,21,24,33,5,15,13
-7,18,25,-5,-16,22,21,24,33,5,15,13
-6,18,25,-6,-16,22,21,24,33,5,15,13
-6,19,25,-6,-16,22,21,24,34,6,15,14
-7,19,26,-6,-17,22,21,25,34,6,16,15
-8,19,27,-6,-18,23,21,25,35,7,16,15
-9,19,27,-5,-18,23,21,25,35,7,16,15
-9,19,27,-5,-19,23,20,25,35,7,16,15
-9,19,27,-5,-19,23,20,26,35,7,17,15
-8,20,28,-6,-18,24,20,26,36,8,17,16
-8,20,28,-6,-18,24,20,26,36,8,18,16
-8,20,28,-5,-18,24,20,26,36,8,18,17
-8,21,28,-6,-18,24,20,26,36,8,18,17
-7,22,28,-7,-18,25,20,27,36,9,18,17
-7,22,29,-7,-18,25,20,27,37,9,19,17
-7,23,29,-8,-18,26,19,27,37,9,19,17
-7,23,30,-8,-18,26,19,27,37,10,20,17
-7,23,30,-8,-18,26,19,27,37,10,20,17
-7,23,29,-8,-18,26,19,27,37,10,20,17
-6,23,29,-8,-18,26,18,27,37,10,20,18
-4,24,29,-10,-17,26,18,28,37,10,21,19
-2,26,28,-12,-16,27,18,28,37,11,22,20
-2,27,28,-13,-15,27,17,28,37,11,22,20
-1,27,28,-13,-15,27,17,28,37,12,23,21
-1,28,28,-13,-15,28,17,28,37,12,23,22
0,28,28,-13,-15,28,17,28,37,13,24,22
0,28,28,-13,-15,28,16,28,37,13,24,23
-1,28,29,-13,-15,29,16,28,37,13,25,23
-2,28,29,-13,-16,29,15,28,36,13,25,23
-1,28,29,-13,-16,29,15,27,36,13,25,23
-1,28,29,-13,-16,29,14,26,35,13,25,23
-1,28,29,-13,-16,29,14,26,35,13,25,23
-1,28,29,-14,-16,29,13,25,34,12,25,23
-1,28,29,-14,-16,29,13,25,34,12,25,23
-2,28,30,-13,-16,29,12,24,33,12,25,23
-4,28,31,-13,-17,30,12,24,33,12,25,24
-4,28,32,-12,-18,30,11,23,32,12,25,24
-5,28,32,-12,-18,30,10,23,31,11,25,25
-5,27,32,-11,-19,29,10,22,30,11,25,25
-6,27,32,-11,-19,29,9,21,29,11,25,25
-6,27,33,-10,-19,29,9,20,28,11,25,25
-6,26,33,-10,-19,29,9,20,27,10,25,25
-6,26,33,-10,-19,29,8,19,26,10,25,25
-7,26,33,-10,-20,29,8,19,25,10,25,25
-7,26,33,-10,-20,30,8,18,24,9,24,25
-7,26,33,-10,-21,30,8,17,24,9,24,26
-8,26,34,-9,-22,30,8,16,23,8,24,26
-9,25,34,-8,-22,30,7,15,22,8,24,26
-9,25,34,-8,-21,30,7,14,20,7,23,26
-8,25,34,-8,-21,30,7,13,19,7,23,26
-8,25,33,-8,-21,29,7,12,18,6,23,26
-8,25,33,-8,-21,29,7,12,17,6,23,26
-8,26,34,-8,-21,30,7,11,17,5,23,26
-9,26,34,-8,-22,30,7,11,16,5,23,26
-9,26,34,-8,-22,30,7,11,16,5,22,26
-9,26,34,-8,-22,30,7,10,15,5,22,26
-9,26,35,-8,-22,31,7,9,14,5,22,26
-9,26,35,-8,-22,31,7,9,14,4,22,26
-10,25,36,-7,-23,31,7,8,13,4,22,26
-11,25,36,-7,-24,31,7,8,13,4,22,26
-11,24,35,-6,-24,30,7,8,12,3,22,25
-11,24,35,-6,-23,30,7,8,12,3,22,25
-11,24,34,-6,-23,29,8,8,12,3,22,24
-12,24,35,-6,-23,29,8,8,12,3,22,25
-13,23,36,-6,-24,30,9,8,13,3,22,25
-14,23,36,-5,-25,30,9,8,13,4,22,25
-15,22,37,-5,-25,30,10,9,14,4,22,25
-15,22,37,-4,-26,29,10,9,14,5,22,25
-15,21,36,-4,-25,29,10,9,15,5,22,25
-14,21,35,-4,-24,28,10,9,15,5,22,24
-14,21,34,-4,-24,28,11,9,16,5,22,24
-14,20,34,-3,-24,27,12,9,16,6,22,23
-14,19,34,-2,-24,27,12,10,17,6,21,23
-15,19,34,-2,-24,27,13,10,17,6,21,23
-15,18,34,-2,-24,27,13,10,18,6,21,23
-16,18,34,-1,-24,26,14,10,18,7,21,23
-16,17,34,-1,-25,26,14,11,19,7,21,23
-18,17,34,0,-26,26,15,11,19,8,21,23
-19,16,35,1,-27,26,15,11,19,8,21,23
-21,15,35,2,-28,25,15,11,19,9,21,23
-22,14,35,3,-28,25,15,12,20,9,20,22
-22,14,35,3,-29,25,16,12,20,9,20,22
-23,13,35,4,-29,24,16,11,20,8,19,21
-22,13,35,4,-28,24,16,11,20,8,19,21
-23,12,35,5,-28,23,16,11,20,8,18,21
-23,12,35,5,-29,23,17,11,20,8,17,20
-24,11,34,6,-29,23,17,11,20,8,17,20
-25,10,35,7,-30,23,17,10,20,7,16,19
-27,9,35,9,-31,22,17,10,19,7,16,19
-28,8,36,10,-32,22,18,10,19,7,15,19
-28,8,36,9,-32,22,18,10,19,7,15,19
-27,8,35,9,-31,22,19,10,19,7,14,19
-28,7,35,10,-32,21,19,9,19,6,14,19
-30,6,35,11,-33,21,19,9,18,6,13,19
-31,6,36,12,-33,21,19,9,18,6,13,19
-31,6,36,12,-33,21,19,9,18,6,12,18
-32,5,35,13,-33,21,19,8,18,5,12,18
-32,5,35,13,-33,20,19,8,17,5,11,17
-31,5,35,13,-33,20,19,8,17,4,11,17
-31,5,35,13,-33,21,19,8,17,4,10,17
-32,5,36,13,-34,21,19,8,17,3,10,17
-32,4,36,13,-34,20,19,8,16,3,9,17
-32,4,35,13,-33,20,20,8,16,2,9,17
-32,4,35,14,-33,20,20,8,16,2,8,17
-32,4,35,14,-33,20,20,7,15,2,8,17
-31,3,34,14,-33,19,19,7,15,1,7,16
-31,3,34,14,-32,19,19,6,14,1,7,16
-31,2,34,14,-33,19,19,6,14,1,6,16
-32,2,35,15,-34,19,19,6,14,1,6,16
-33,2,35,15,-34,19,19,6,14,1,6,17
-32,2,36,14,-34,19,19,6,14,1,6,17
-32,2,36,14,-34,19,19,6,14,0,6,17
-32,3,35,14,-33,19,19,6,14,0,6,17
-31,3,35,13,-33,20,20,6,14,0,5,17
-31,4,35,13,-32,20,20,6,14,0,5,17
-30,4,34,12,-32,20,20,6,14,0,4,17
-29,4,34,12,-31,20,20,6,13,-1,4,17
-29,4,34,12,-31,20,20,6,13,-1,4,17
-29,4,33,12,-31,20,20,6,13,-1,4,17
-28,4,33,11,-30,20,20,6,13,-2,4,17
-28,4,32,11,-30,19,20,6,13,-2,4,17
-28,4,32,11,-30,19,20,6,13,-2,4,17
-28,4,32,12,-30,19,20,6,13,-2,3,17
-28,4,32,12,-30,19,20,5,13,-2,3,17
-28,3,31,12,-30,18,19,5,13,-2,2,17
-28,3,31,12,-30,18,19,4,13,-2,2,17
-29,3,31,13,-30,18,19,4,13,-2,2,16
-29,3,31,13,-30,18,19,5,13,-2,2,16
-29,4,31,12,-30,18,19,5,13,-2,2,16
-28,4,31,12,-29,18,19,6,13,-2,2,16
-28,4,32,12,-30,18,19,6,14,-2,2,16
-29,4,32,12,-30,19,19,6,14,-2,2,17
-29,4,32,12,-31,19,19,6,14,-2,2,17
-29,4,32,12,-31,19,19,7,15,-1,2,17
-29,4,32,12,-31,19,19,7,15,-1,3,17
-29,4,32,12,-31,19,19,7,15,-1,3,17
-29,4,32,12,-31,19,19,7,15,-1,3,16
-29,4,32,12,-31,19,18,7,15,0,3,16
-29,4,32,12,-31,19,18,7,15,0,3,16
-28,4,32,12,-30,18,18,7,15,0,3,16
-28,4,31,12,-29,18,18,6,15,0,3,16
-27,4,30,12,-28,17,17,6,15,0,3,16
-27,4,30,12,-28,17,17,6,15,0,3,16
-26,4,29,12,-28,17,16,6,15,0,3,16
-26,3,29,12,-28,16,16,6,15,0,3,15
-26,3,29,12,-28,16,16,6,15,0,3,15
-27,3,29,12,-28,16,16,6,15,0,3,15
-27,2,29,12,-28,16,16,6,15,0,3,15
-28,2,29,13,-28,16,16,6,15,0,3,15
-28,2,30,13,-29,17,16,6,15,0,3,15
-28,2,30,13,-29,17,15,6,15,0,4,15
-28,2,30,13,-29,17,15,6,15,0,4,15
-28,2,30,13,-29,17,15,6,15,0,4,15
-28,2,30,13,-29,17,15,6,15,0,4,15
-28,2,30,13,-29,17,15,6,16,0,4,15
-28,2,30,13,-29,17,15,6,16,0,4,15
-28,2,30,13,-29,16,14,6,16,0,4,15
-28,2,29,13,-28,15,14,5,15,0,4,15
-27,2,28,13,-27,15,13,5,15,0,4,15
-27,2,28,13,-27,15,13,6,15,0,4,15
-27,3,29,12,-27,16,13,6,16,1,4,16
-26,3,29,12,-27,16,13,6,16,1,4,16
-26,4,30,11,-28,17,13,7,16,1,4,17
-26,4,30,11,-28,17,14,7,17,1,5,17
-25,4,29,10,-27,17,14,7,17,2,5,18
-24,5,29,10,-27,18,14,7,17,2,5,18
-24,5,29,10,-26,18,14,7,17,2,5,17
-24,4,28,10,-26,17,13,7,16,2,5,17
-24,4,28,10,-26,17,13,7,16,2,4,17
-24,4,28,10,-27,17,13,7,16,2,4,17
-25,4,29,10,-27,17,13,7,16,2,4,17
-25,4,29,10,-27,17,13,7,16,2,4,17
-25,4,29,11,-28,17,13,7,16,2,4,17
-26,3,29,11,-28,17,13,7,16,2,4,17
-26,4,30,11,-28,17,14,7,16,2,4,17
-26,5,30,10,-28,18,14,7,16,3,4,17
-25,5,30,10,-28,18,14,7,16,3,4,17
-25,4,29,10,-28,17,14,7,16,3,4,17
-25,4,29,10,-27,17,13,7,15,2,3,16
-24,4,28,10,-27,16,13,7,15,2,3,16
-23,5,28,9,-26,17,13,7,15,2,3,16
-22,6,28,8,-25,17,13,7,15,2,3,16
-22,6,28,8,-25,17,13,7,15,1,3,16
-22,6,28,8,-25,17,13,7,14,1,3,16
-22,5,28,9,-25,17,14,7,14,1,3,17
-23,5,28,9,-25,17,14,6,14,1,2,16
-23,4,28,9,-25,16,13,6,14,0,2,16
-23,4,27,9,-25,16,13,6,14,0,2,16
-24,3,27,10,-25,15,13,5,13,0,2,16
-24,3,27,10,-25,15,13,5,13,0,2,15
-24,3,27,10,-25,14,13,5,12,0,2,15
-25,2,27,11,-25,14,13,5,12,0,1,15
-26,2,27,12,-26,14,13,5,12,0,1,15
-26,2,27,12,-27,14,13,5,11,-1,1,15
-26,2,27,12,-26,14,12,5,11,-1,0,15
-25,1,26,12,-26,14,12,4,10,-1,0,15
-25,1,26,12,-25,13,12,4,10,-1,0,15
-25,1,25,12,-25,13,12,4,9,-2,0,14
-25,0,25,12,-25,12,12,3,9,-2,-1,14
-25,0,25,12,-25,12,12,3,8,-3,-1,13
-25,0,24,13,-24,11,12,2,8,-3,-1,13
-25,-1,23,13,-24,11,11,2,7,-4,-2,12
-25,-1,23,14,-24,10,11,2,7,-4,-2,12
-25,-2,22,14,-24,10,10,2,7,-4,-2,12
-25,-2,22,14,-23,10,10,1,6,-4,-2,12
-25,-2,22,14,-23,10,10,1,6,-4,-2,12
-24,-2,22,13,-22,10,10,1,6,-5,-3,12
-24,-2,21,13,-22,9,10,0,5,-5,-3,11
-24,-3,20,14,-21,8,10,0,5,-5,-4,11
-24,-4,20,14,-21,8,10,0,4,-6,-4,10
-23,-3,20,14,-21,8,10,0,4,-6,-4,10
-23,-3,20,14,-21,8,10,0,4,-6,-4,10
-23,-3,20,14,-21,8,10,0,4,-6,-4,10
-23,-3,19,13,-21,8,9,0,3,-6,-4,10
-23,-3,19,13,-21,8,9,0,3,-6,-4,10
-23,-3,19,14,-21,7,9,0,3,-6,-4,10
-23,-4,19,14,-21,7,9,-1,3,-6,-4,9
-23,-4,18,14,-20,7,8,-1,3,-6,-4,9
-22,-4,18,14,-20,7,8,-1,2,-6,-4,9
-22,-4,18,13,-20,7,8,-1,2,-6,-4,9
-22,-4,17,13,-20,7,8,-1,2,-7,-4,9
-22,-4,17,13,-20,6,8,-1,2,-7,-4,9
-22,-4,17,13,-19,6,7,-1,2,-7,-4,9
-21,-4,16,12,-19,6,7,-1,2,-7,-4,9
-20,-4,16,12,-18,6,7,-1,2,-7,-4,9
-19,-4,15,11,-17,6,7,-1,1,-7,-4,9
-18,-4,15,11,-16,6,8,-1,1,-7,-4,9
-18,-4,15,11,-16,6,8,-2,1,-7,-5,8
-19,-4,15,11,-16,6,8,-2,1,-7,-5,8
-19,-3,15,11,-17,6,8,-2,1,-7,-5,8
-19,-3,15,11,-17,6,7,-2,1,-7,-5,8
-19,-3,14,11,-16,5,7,-2,1,-7,-5,8
-18,-3,14,11,-16,5,7,-2,1,-7,-5,7
-18,-3,14,11,-16,5,7,-2,1,-7,-5,7
-18,-3,14,11,-16,6,7,-2,1,-7,-5,7
-17,-3,14,11,-16,6,7,-2,1,-8,-5,7
-17,-3,14,10,-16,6,7,-2,1,-8,-5,7
-18,-3,14,10,-16,5,7,-3,0,-8,-5,7
-18,-3,14,10,-16,5,6,-3,0,-8,-5,7
-17,-3,14,10,-15,5,6,-3,0,-8,-5,7
-16,-3,13,10,-15,5,6,-3,0,-8,-5,7
-15,-2,13,9,-14,5,7,-2,0,-7,-5,7
-15,-2,13,9,-15,5,7,-2,0,-7,-5,7
-16,-3,13,10,-15,5,7,-3,0,-7,-6,7
-17,-4,13,11,-15,4,6,-3,-1,-8,-6,6
-16,-3,12,10,-14,4,6,-3,-1,-8,-7,5
-16,-3,13,9,-14,5,6,-3,-1,-8,-7,5
-17,-3,13,10,-14,4,6,-3,-1,-8,-7,4
-17,-4,13,10,-14,4,6,-3,-1,-8,-7,4
-16,-4,13,10,-14,4,7,-3,-1,-7,-7,4
-16,-3,13,9,-14,5,7,-3,-1,-7,-7,4
-14,-2,12,8,-14,5,7,-3,-1,-7,-7,4
-14,-2,12,8,-13,5,7,-3,-1,-7,-7,4
-14,-3,12,8,-13,4,6,-3,-1,-7,-7,4
-15,-3,12,9,-13,4,6,-3,-1,-7,-7,4
-15,-3,12,9,-13,4,6,-3,-1,-7,-7,4
-16,-3,12,10,-14,4,6,-3,-1,-7,-7,4
-16,-4,12,10,-14,4,6,-3,-1,-8,-7,4
-16,-4,12,11,-15,4,6,-3,-1,-8,-7,4
-17,-4,13,11,-15,4,6,-3,-1,-8,-7,4
-17,-4,13,11,-15,4,6,-3,-2,-8,-7,4
-17,-4,12,11,-14,4,6,-3,-2,-8,-8,4
-17,-4,12,11,-14,3,5,-4,-3,-8,-8,4
-17,-4,12,11,-14,3,5,-5,-3,-8,-8,4
-17,-5,12,11,-14,3,4,-5,-3,-8,-8,4
-17,-5,12,11,-14,4,4,-5,-2,-8,-8,4
-17,-4,13,11,-15,5,5,-4,-2,-8,-7,4
-17,-4,14,10,-16,5,5,-4,-2,-8,-7,4
-17,-4,14,10,-16,5,5,-4,-2,-8,-7,4
-18,-4,14,11,-16,5,5,-4,-2,-8,-7,4
-18,-4,14,11,-16,5,5,-4,-2,-8,-7,4
-18,-4,14,11,-17,5,5,-4,-2,-7,-7,4
-18,-4,14,11,-17,5,5,-4,-1,-7,-7,4
-18,-4,14,11,-17,5,5,-4,-1,-7,-7,5
-18,-4,15,12,-17,6,5,-3,-1,-7,-7,5
-19,-5,15,13,-18,6,5,-3,-1,-7,-7,4
-20,-5,16,13,-18,6,5,-3,-1,-7,-7,4
-20,-5,16,13,-18,6,5,-3,-1,-7,-7,4
-21,-5,16,13,-19,6,5,-3,-1,-7,-7,4
-21,-5,16,13,-19,6,5,-4,-1,-7,-7,4
-21,-5,16,14,-19,5,5,-4,-1,-8,-7,3
-22,-5,16,14,-19,5,4,-5,-2,-8,-7,3
-22,-6,16,15,-19,5,3,-5,-2,-8,-7,3
-22,-7,16,15,-19,4,3,-5,-2,-8,-7,3
-22,-7,15,15,-18,4,2,-5,-2,-8,-7,3
-21,-8,14,15,-17,3,1,-5,-2,-8,-7,3
-21,-8,13,15,-17,2,0,-5,-2,-8,-7,3
-21,-8,12,15,-17,2,0,-5,-2,-8,-6,3
-20,-8,12,15,-17,2,0,-5,-2,-8,-6,3
-20,-8,13,15,-17,2,0,-5,-2,-8,-6,3
-20,-8,13,14,-17,2,0,-5,-2,-8,-6,3
-20,-8,13,14,-17,2,0,-5,-2,-8,-6,4
-20,-8,13,14,-17,3,0,-5,-2,-8,-6,4
-20,-8,12,14,-16,2,0,-6,-3,-8,-6,4
-20,-9,11,15,-15,1,-1,-7,-4,-8,-7,3
-20,-10,10,15,-15,0,-1,-8,-5,-9,-7,2
-20,-11,9,16,-15,-1,-2,-8,-6,-10,-7,1
-20,-11,9,16,-14,-1,-2,-7,-6,-10,-7,1
-18,-11,7,15,-12,-1,-2,-7,-6,-10,-7,1
-16,-10,6,13,-11,-1,-2,-7,-6,-10,-7,1
-15,-10,6,13,-10,-2,-2,-7,-6,-10,-8,1
-16,-11,5,14,-10,-2,-2,-7,-6,-10,-8,1
-16,-11,5,14,-10,-2,-2,-7,-6,-10,-8,1
-17,-11,5,14,-11,-3,-1,-6,-5,-10,-7,2
-17,-11,5,14,-11,-3,-1,-6,-5,-10,-7,2
-16,-11,5,14,-10,-3,-1,-6,-6,-10,-7,2
-15,-11,5,14,-10,-3,-1,-7,-6,-10,-7,2
-15,-11,5,13,-10,-2,-1,-7,-6,-10,-7,2
-15,-11,5,13,-10,-2,-1,-7,-7,-10,-8,2
-16,-11,5,13,-11,-2,-1,-7,-7,-10,-8,1
-15,-11,4,13,-10,-2,-1,-8,-8,-11,-9,0
-15,-11,3,13,-10,-3,-1,-8,-9,-11,-10,-1
-15,-11,3,14,-9,-4,-1,-9,-9,-12,-11,-2
-15,-11,3,14,-9,-4,-1,-9,-9,-12,-11,-2
-15,-11,3,14,-9,-4,0,-9,-10,-12,-11,-2
-15,-12,3,14,-9,-4,0,-9,-10,-12,-11,-3
-16,-13,3,15,-10,-4,0,-9,-10,-12,-11,-3
-17,-13,4,15,-10,-4,0,-9,-10,-12,-11,-3
-17,-13,4,16,-11,-4,0,-8,-10,-12,-11,-2
-18,-13,4,16,-11,-4,0,-8,-10,-12,-11,-2
-18,-13,4,16,-11,-4,0,-8,-9,-12,-11,-2
-18,-13,4,16,-11,-4,0,-8,-9,-12,-11,-3
-18,-14,4,17,-11,-5,0,-9,-10,-12,-11,-3
-18,-15,4,18,-11,-5,0,-9,-10,-12,-11,-4
-19,-16,4,19,-11,-6,0,-9,-11,-13,-12,-4
-19,-17,3,19,-11,-6,0,-9,-11,-13,-12,-5
-20,-17,4,20,-12,-6,0,-9,-11,-13,-12,-5
-20,-16,4,19,-12,-6,0,-9,-11,-12,-12,-4
-19,-16,4,18,-11,-6,0,-9,-11,-12,-12,-4
-19,-15,4,18,-11,-6,0,-9,-11,-13,-12,-4
-18,-15,3,18,-11,-6,0,-9,-11,-13,-12,-4
-18,-15,3,17,-11,-6,0,-9,-11,-13,-12,-4
-18,-15,3,17,-11,-5,0,-9,-11,-12,-12,-4
-17,-15,3,17,-11,-5,0,-9,-11,-12,-12,-3
-17,-14,3,16,-10,-5,0,-8,-11,-12,-12,-3
-16,-13,3,15,-10,-5,0,-8,-11,-12,-12,-3
-15,-13,3,15,-9,-5,1,-8,-11,-12,-12,-3
-15,-12,3,14,-9,-5,1,-8,-11,-12,-13,-4
-15,-12,3,14,-9,-5,2,-8,-11,-12,-13,-4
-15,-12,4,14,-9,-4,4,-7,-11,-12,-14,-5
-15,-12,4,14,-9,-4,6,-5,-10,-13,-15,-6
-16,-13,3,15,-9,-5,8,-2,-9,-14,-16,-7
-16,-14,3,16,-9,-5,9,1,-7,-13,-17,-8
-16,-14,3,16,-9,-6,9,4,-4,-12,-17,-8
-15,-14,2,15,-9,-6,9,7,1,-9,-15,-6
-15,-12,3,14,-9,-5,10,9,7,-5,-12,-4
-14,-10,4,13,-9,-3,11,14,16,1,-7,0
-13,-6,6,10,-9,0,12,22,28,11,0,6
-10,-2,7,6,-8,2,14,31,42,22,9,13
-5,1,6,2,-6,4,15,39,55,35,19,22
-1,5,6,-1,-4,5,16,47,68,49,30,31
2,8,6,-5,-2,7,16,53,80,63,41,40
7,12,6,-9,0,9,15,58,92,78,53,50
11,16,6,-13,2,11,11,61,102,92,66,60
15,21,6,-17,4,13,4,60,108,105,78,71
18,27,9,-21,4,18,-5,51,108,114,88,80
19,34,14,-26,3,24,-14,33,97,115,93,86
19,41,21,-29,0,31,-24,3,70,104,92,87
17,45,28,-30,-5,36,-32,-36,23,79,81,83
13,46,33,-28,-10,39,-40,-80,-33,44,64,74
8,44,35,-25,-14,39,-46,-119,-89,7,45,63
4,38,34,-21,-16,36,-50,-149,-133,-25,26,51
0,30,29,-14,-15,29,-52,-167,-166,-53,6,37
-4,18,22,-6,-14,20,-52,-176,-187,-76,-13,20
-9,5,14,2,-12,9,-50,-178,-198,-94,-31,3
-12,-5,7,10,-10,0,-50,-174,-200,-105,-45,-10
-14,-15,0,16,-7,-8,-50,-166,-195,-110,-55,-21
-15,-22,-6,20,-5,-15,-49,-153,-184,-110,-60,-27
-15,-27,-10,22,-2,-19,-48,-139,-169,-105,-60,-30
-15,-29,-12,23,-1,-21,-45,-123,-152,-98,-59,-31
-15,-29,-13,22,0,-21,-41,-108,-135,-90,-57,-31
-15,-27,-12,22,0,-20,-37,-93,-117,-81,-53,-29
-14,-26,-12,21,0,-19,-31,-77,-99,-71,-47,-26
-12,-23,-11,18,0,-17,-26,-62,-81,-60,-41,-22
-10,-20,-10,16,0,-15,-21,-49,-66,-50,-34,-17
-8,-17,-8,14,0,-13,-18,-39,-54,-43,-29,-14
-7,-15,-7,12,0,-12,-16,-33,-46,-37,-25,-11
-7,-14,-6,12,-1,-11,-13,-28,-39,-33,-23,-10
-7,-14,-5,11,-1,-10,-11,-23,-33,-29,-21,-9
-7,-13,-5,11,0,-9,-9,-19,-27,-26,-20,-8
-7,-13,-5,11,0,-9,-7,-16,-23,-23,-18,-8
-7,-13,-5,11,0,-9,-6,-13,-21,-21,-17,-7
-7,-12,-5,11,0,-9,-5,-12,-19,-19,-16,-7
-6,-12,-5,10,0,-8,-4,-10,-17,-18,-15,-6
-6,-12,-5,10,0,-8,-3,-9,-16,-17,-15,-6
-6,-12,-5,10,0,-8,-2,-8,-15,-16,-14,-6
-6,-12,-5,10,0,-8,-1,-7,-14,-15,-14,-6
-6,-12,-6,10,0,-9,-1,-6,-13,-15,-14,-6
-6,-12,-6,10,1,-9,0,-5,-12,-14,-14,-6
-6,-12,-6,10,0,-9,0,-4,-11,-13,-14,-6
-5,-12,-7,10,0,-10,-1,-4,-10,-12,-14,-6
-4,-12,-8,9,1,-10,-1,-4,-10,-12,-14,-7
-4,-12,-8,9,2,-10,-1,-4,-10,-11,-14,-7
-4,-13,-8,9,2,-10,-1,-4,-10,-11,-14,-7
-4,-13,-8,9,2,-10,-1,-4,-10,-11,-14,-8
-4,-13,-8,9,2,-10,-1,-4,-10,-11,-14,-8
-4,-13,-8,9,2,-10,-1,-3,-9,-10,-14,-8
-4,-13,-9,9,2,-11,-1,-3,-9,-10,-14,-8
-4,-13,-9,9,2,-11,-1,-3,-9,-10,-14,-8
-4,-13,-10,10,3,-11,-1,-3,-9,-10,-14,-8
-4,-14,-10,10,3,-11,-1,-3,-9,-9,-13,-8
-4,-14,-9,10,3,-11,-1,-3,-8,-9,-13,-8
-4,-14,-9,10,3,-11,-1,-2,-8,-9,-13,-8
-4,-14,-9,9,3,-11,-1,-2,-7,-8,-12,-8
-4,-13,-9,9,3,-11,0,-1,-7,-8,-12,-8
-4,-14,-9,10,2,-11,0,-1,-7,-7,-12,-8
-5,-14,-9,10,2,-11,0,-1,-7,-7,-12,-8
-5,-14,-9,10,2,-11,0,-1,-7,-7,-12,-8
-5,-14,-9,10,2,-11,-1,-1,-7,-7,-11,-8
-5,-14,-9,11,2,-11,-1,-1,-7,-7,-11,-8
-5,-15,-9,11,2,-12,-1,-1,-7,-7,-11,-9
-6,-16,-10,12,2,-13,-2,-1,-8,-8,-12,-9
-7,-17,-9,13,1,-13,-2,-1,-8,-8,-12,-10
-7,-17,-9,13,1,-13,-2,-1,-8,-8,-12,-10
-6,-17,-10,13,1,-13,-2,-2,-8,-8,-12,-10
-5,-16,-10,12,2,-13,-2,-2,-8,-9,-12,-10
-5,-16,-10,12,2,-13,-2,-2,-7,-9,-12,-10
-5,-16,-10,12,2,-13,-2,-2,-7,-9,-12,-10
-5,-17,-10,12,2,-13,-3,-2,-7,-9,-12,-10
-6,-17,-10,12,2,-13,-3,-2,-7,-9,-12,-10
-7,-18,-9,13,1,-13,-3,-1,-7,-9,-12,-10
-8,-18,-9,14,1,-13,-3,-1,-7,-9,-12,-10
-8,-18,-9,14,1,-14,-3,-1,-7,-9,-12,-10
-8,-18,-9,14,1,-14,-3,-1,-7,-9,-12,-10
-8,-18,-9,14,1,-14,-3,-1,-7,-9,-12,-10
-8,-18,-9,14,1,-14,-3,-1,-7,-8,-12,-10
-8,-17,-9,13,1,-14,-3,-1,-7,-8,-11,-10
-7,-17,-9,12,1,-13,-3,-1,-6,-7,-11,-10
-6,-16,-9,11,1,-13,-3,-1,-6,-7,-11,-10
-5,-15,-10,11,2,-13,-3,-1,-6,-6,-11,-10
-4,-15,-10,10,2,-13,-3,0,-6,-6,-10,-10
-4,-14,-10,10,2,-12,-3,0,-6,-5,-10,-10
-4,-14,-10,9,3,-12,-3,0,-6,-5,-10,-10
-3,-13,-10,9,3,-12,-3,0,-5,-5,-10,-10
-1,-12,-10,7,4,-11,-3,1,-5,-5,-10,-9
0,-11,-10,6,5,-11,-3,2,-4,-4,-10,-9
1,-10,-10,5,6,-10,-3,2,-3,-4,-9,-8
2,-9,-10,4,6,-10,-2,3,-3,-3,-9,-8
2,-8,-10,4,6,-9,-2,3,-2,-2,-9,-7
3,-7,-10,3,7,-9,-1,4,-2,-2,-8,-7
4,-7,-11,2,7,-9,-1,4,-2,-2,-8,-7
6,-5,-11,1,8,-8,-1,4,-1,-1,-7,-6
7,-4,-10,0,8,-7,0,5,-1,-1,-7,-6
7,-4,-10,-1,8,-7,0,5,0,0,-7,-5
7,-3,-10,-1,8,-7,0,6,0,0,-6,-5
8,-3,-10,-2,9,-7,0,6,0,0,-6,-4
9,-2,-10,-2,9,-7,0,6,1,0,-6,-4
9,-2,-10,-3,10,-7,0,7,1,1,-6,-4
9,-2,-10,-2,10,-6,-1,7,1,1,-6,-4
8,-2,-10,-2,9,-6,-1,7,1,1,-6,-5
8,-2,-9,-2,9,-6,-1,7,2,1,-6,-5
10,0,-9,-4,9,-5,0,8,3,2,-6,-5
11,1,-9,-5,10,-4,0,8,3,2,-5,-4
11,1,-9,-5,10,-4,0,9,4,2,-5,-4
11,1,-9,-5,9,-4,0,9,4,2,-5,-4
10,1,-8,-5,9,-4,0,10,4,3,-5,-4
10,1,-8,-5,9,-3,0,10,5,4,-4,-3
10,1,-7,-5,9,-3,0,11,5,4,-4,-3
9,1,-7,-4,8,-3,0,11,6,5,-4,-3
9,1,-7,-4,8,-3,0,11,6,5,-3,-3
8,1,-7,-3,7,-3,-1,11,7,5,-3,-3
8,1,-7,-3,7,-3,-1,11,7,6,-2,-3
8,1,-6,-4,7,-3,-1,11,8,6,-2,-2
8,1,-6,-4,7,-3,-1,11,8,6,-2,-2
8,1,-6,-4,7,-3,-1,11,9,7,-2,-2
9,1,-6,-4,7,-3,-1,11,9,7,-2,-2
8,1,-6,-4,7,-3,-1,12,9,7,-2,-2
8,1,-6,-4,7,-2,-2,12,9,8,-2,-1
8,1,-6,-4,7,-2,-2,13,9,8,-1,-1
8,1,-6,-4,7,-2,-2,13,10,8,-1,-1
8,1,-6,-3,7,-2,-3,13,10,8,-1,-1
8,1,-6,-3,7,-2,-3,13,10,8,-1,-1
9,2,-6,-4,7,-1,-3,13,10,8,0,0
9,2,-6,-4,7,-1,-4,13,11,8,0,0
9,2,-6,-5,7,-1,-4,13,11,8,0,0
10,3,-6,-5,8,-1,-5,14,11,8,0,0
10,3,-6,-6,8,-1,-5,14,11,8,0,0
11,4,-6,-6,9,-1,-6,14,11,9,0,0
11,4,-6,-7,9,-1,-6,14,12,9,0,1
12,4,-6,-7,9,-1,-7,14,12,9,0,1
13,5,-6,-8,10,-1,-7,14,12,9,0,2
14,5,-6,-8,10,0,-7,14,12,10,1,2
14,6,-6,-9,10,0,-7,14,12,10,1,3
15,6,-7,-10,11,0,-8,13,12,10,1,3
16,7,-7,-11,12,0,-8,13,12,10,2,3
17,9,-7,-12,12,1,-8,13,12,11,3,4
17,10,-7,-13,12,2,-8,13,12,11,3,4
18,11,-7,-14,12,2,-9,13,12,11,4,5
18,11,-6,-14,12,3,-9,13,12,11,4,5
18,12,-6,-14,12,3,-10,13,12,11,4,6
18,12,-6,-14,12,3,-10,13,12,11,4,6
18,12,-6,-14,12,3,-11,12,11,11,4,7
17,11,-5,-14,11,3,-12,12,11,11,5,7
17,11,-5,-13,11,3,-12,11,10,11,5,7
17,12,-5,-14,11,3,-13,11,10,11,5,8
18,12,-5,-14,12,3,-13,11,9,11,5,8
17,12,-5,-14,11,3,-14,10,8,11,5,8
17,12,-4,-14,10,3,-14,9,8,11,5,8
17,12,-4,-14,10,3,-15,8,7,11,5,8
17,12,-4,-14,10,4,-15,8,7,11,5,8
17,12,-4,-14,10,4,-16,7,6,11,5,8
18,12,-5,-14,11,3,-16,6,5,10,5,8
18,12,-5,-14,11,3,-16,5,4,10,5,8
18,12,-5,-14,11,3,-17,5,3,9,5,8
18,12,-5,-14,11,3,-17,4,1,9,5,7
17,11,-5,-13,11,2,-17,3,0,8,4,7
17,11,-5,-13,10,2,-17,3,0,8,4,7
16,11,-5,-12,10,2,-17,2,-1,7,3,6
15,10,-4,-11,9,2,-17,1,-1,7,3,6
15,10,-4,-11,9,3,-17,0,-2,6,3,6
16,11,-4,-12,10,3,-18,0,-2,6,3,6
16,11,-5,-13,10,3,-18,-1,-3,5,3,6
16,11,-5,-13,10,3,-18,-1,-4,5,3,6
16,11,-5,-13,10,3,-18,-2,-5,5,3,6
16,11,-5,-13,10,3,-18,-2,-5,5,3,6
16,11,-5,-13,10,3,-17,-2,-5,5,3,6
17,11,-5,-13,10,3,-17,-2,-6,4,3,6
17,10,-5,-13,11,2,-17,-3,-6,4,2,5
17,10,-6,-12,11,2,-17,-3,-7,4,2,5
16,9,-6,-12,11,1,-17,-4,-7,4,2,5
16,9,-7,-12,11,1,-17,-4,-8,4,2,5
16,9,-7,-12,11,1,-17,-4,-8,4,2,5
16,8,-7,-12,11,0,-17,-4,-8,4,1,5
16,8,-8,-11,11,0,-17,-3,-8,4,1,4
16,8,-8,-11,11,0,-16,-3,-7,4,1,4
17,8,-8,-11,11,0,-16,-3,-7,4,1,4
17,7,-9,-11,12,-1,-16,-3,-7,4,1,3
17,6,-10,-10,12,-1,-15,-3,-7,5,1,2
16,6,-10,-10,12,-2,-15,-3,-6,5,1,2
16,5,-10,-10,12,-2,-14,-2,-6,5,1,1
15,4,-11,-9,12,-2,-14,-2,-6,5,1,1
15,4,-11,-9,13,-3,-13,-2,-5,5,1,1
16,4,-12,-9,13,-3,-13,-2,-5,5,0,1
16,4,-12,-9,13,-3,-13,-2,-5,5,0,1
16,3,-12,-9,13,-4,-12,-2,-5,6,0,1
15,3,-12,-8,13,-4,-12,-2,-4,6,0,0
15,3,-12,-8,13,-4,-11,-2,-4,6,0,0
15,2,-12,-8,13,-5,-11,-2,-4,6,0,-1
15,2,-12,-8,13,-5,-10,-1,-3,7,0,-2
15,2,-12,-8,13,-5,-10,-1,-3,7,0,-2
15,1,-13,-7,13,-5,-10,-1,-3,7,0,-2
15,1,-13,-7,13,-6,-10,-1,-3,7,0,-3
14,0,-13,-6,13,-6,-10,-1,-3,7,-1,-3
14,-1,-13,-6,13,-7,-10,-1,-3,7,-1,-4
13,-1,-13,-5,13,-7,-10,-1,-3,7,-2,-4
12,-2,-13,-4,12,-7,-9,-1,-3,7,-2,-4
11,-2,-12,-3,11,-7,-9,-1,-4,6,-2,-4
10,-3,-12,-2,10,-7,-9,-2,-4,6,-2,-5
9,-3,-13,-2,10,-8,-9,-2,-5,5,-3,-5
8,-4,-13,-1,10,-8,-9,-3,-5,5,-3,-5
7,-5,-12,0,9,-8,-9,-3,-5,5,-3,-6
7,-6,-12,0,9,-9,-9,-3,-5,5,-3,-6
7,-6,-13,0,9,-9,-8,-3,-6,4,-4,-7
8,-6,-13,0,10,-9,-8,-4,-6,4,-4,-7
8,-6,-13,0,10,-9,-9,-4,-6,4,-5,-8
8,-6,-13,0,10,-10,-9,-4,-7,4,-5,-8
8,-6,-13,0,10,-10,-9,-4,-7,3,-6,-8
7,-6,-13,1,10,-10,-8,-5,-7,3,-6,-8
7,-7,-13,1,10,-10,-8,-5,-7,3,-6,-8
8,-7,-14,1,11,-11,-8,-5,-8,2,-6,-9
8,-8,-16,1,12,-12,-9,-5,-9,2,-7,-9
8,-9,-17,1,12,-12,-10,-6,-10,1,-8,-10
8,-9,-17,1,12,-12,-9,-6,-10,1,-8,-10
8,-9,-17,1,12,-12,-9,-7,-10,1,-8,-10
8,-9,-17,1,12,-13,-9,-7,-11,0,-9,-10
8,-9,-17,1,12,-13,-9,-7,-11,0,-9,-10
8,-9,-17,1,12,-13,-9,-8,-11,0,-9,-10
8,-9,-17,1,12,-13,-9,-8,-11,0,-9,-10
7,-9,-17,2,11,-13,-9,-8,-11,0,-9,-10
7,-9,-16,2,11,-13,-9,-8,-11,0,-9,-10
7,-9,-16,2,11,-13,-9,-8,-11,0,-9,-10
7,-9,-16,2,11,-13,-9,-8,-11,0,-10,-10
7,-9,-16,2,11,-13,-9,-8,-11,0,-10,-10
7,-9,-15,2,11,-12,-9,-7,-11,0,-10,-10
7,-8,-15,1,11,-12,-9,-7,-11,0,-10,-10
7,-8,-15,1,11,-12,-9,-7,-11,0,-10,-10
7,-8,-15,1,10,-12,-9,-7,-10,0,-10,-10
7,-8,-15,1,10,-12,-9,-7,-10,0,-10,-10
7,-8,-15,1,10,-12,-9,-7,-10,0,-10,-10
7,-8,-14,1,10,-12,-8,-7,-10,0,-10,-10
7,-8,-14,1,10,-11,-8,-6,-9,1,-10,-9
7,-7,-14,1,10,-11,-8,-6,-9,1,-10,-9
7,-7,-13,1,10,-10,-8,-5,-8,1,-10,-8
7,-7,-13,1,9,-10,-8,-5,-8,1,-9,-8
6,-7,-12,1,9,-9,-8,-4,-7,1,-9,-8
6,-6,-12,1,8,-9,-7,-4,-7,1,-9,-8
6,-6,-12,1,8,-9,-7,-4,-7,1,-9,-8
6,-6,-12,1,8,-9,-7,-4,-7,1,-9,-8
6,-6,-12,1,8,-9,-7,-4,-6,2,-8,-8
8,-5,-12,0,9,-8,-6,-4,-6,2,-8,-7
9,-4,-12,-1,10,-8,-6,-4,-5,2,-8,-7
8,-4,-12,-1,9,-8,-6,-3,-5,3,-8,-6
8,-4,-11,-1,8,-8,-6,-3,-5,3,-7,-6
7,-3,-11,-1,8,-7,-6,-3,-5,3,-7,-6
7,-3,-10,0,8,-7,-6,-3,-4,3,-6,-6
6,-4,-10,0,7,-7,-6,-3,-4,3,-6,-6
5,-4,-9,0,7,-7,-6,-2,-4,3,-6,-6
4,-5,-9,1,6,-7,-6,-2,-3,3,-6,-6
4,-5,-9,1,6,-7,-6,-2,-3,3,-6,-6
4,-5,-9,1,6,-7,-7,-2,-3,3,-6,-6
4,-6,-9,2,6,-7,-7,-2,-3,3,-6,-6
4,-6,-9,2,6,-7,-8,-2,-3,3,-6,-6
4,-7,-10,2,6,-8,-8,-2,-3,3,-6,-6
3,-7,-10,3,6,-8,-8,-2,-3,3,-6,-7
2,-8,-9,3,5,-8,-8,-2,-3,3,-6,-7
1,-8,-9,4,4,-8,-8,-2,-3,3,-6,-7
1,-8,-9,4,4,-8,-8,-2,-3,3,-6,-6
1,-8,-10,5,4,-9,-8,-3,-3,3,-6,-7
1,-9,-11,5,5,-10,-9,-3,-3,2,-6,-7
3,-8,-11,4,6,-10,-9,-3,-3,2,-6,-7
4,-8,-11,4,6,-10,-9,-3,-3,2,-5,-7
3,-8,-11,4,6,-10,-9,-3,-3,2,-5,-7
3,-9,-11,4,6,-10,-9,-3,-3,2,-4,-6
3,-9,-11,4,6,-10,-10,-3,-3,2,-4,-6
3,-10,-12,4,6,-11,-11,-3,-4,2,-3,-7
2,-10,-12,4,6,-11,-11,-3,-4,2,-3,-7
2,-10,-12,4,6,-10,-11,-3,-4,2,-3,-7
2,-10,-11,5,6,-10,-11,-3,-4,2,-3,-7
2,-10,-11,5,6,-10,-11,-3,-3,2,-2,-7
2,-9,-11,5,5,-10,-11,-3,-3,2,-2,-6
2,-8,-10,4,5,-9,-11,-2,-3,2,-2,-6
3,-8,-10,4,5,-9,-10,-2,-2,2,-3,-6
3,-7,-10,3,5,-9,-10,-2,-2,2,-3,-5
4,-6,-10,3,5,-8,-10,-2,-1,2,-4,-5
4,-6,-9,2,6,-8,-10,-2,-1,3,-4,-5
4,-6,-9,2,6,-8,-10,-2,-1,3,-4,-5
4,-6,-9,2,6,-8,-9,-2,-1,3,-4,-5
3,-6,-9,2,6,-8,-9,-1,-1,3,-4,-4
3,-6,-9,2,6,-7,-9,-1,-1,3,-4,-4
3,-6,-9,2,6,-7,-9,-1,-1,3,-4,-4
3,-6,-9,2,6,-7,-9,-1,-1,3,-4,-5
3,-5,-8,2,5,-6,-9,-1,-1,3,-4,-5
3,-5,-7,2,5,-6,-8,-1,-1,3,-4,-4
3,-5,-7,2,5,-6,-8,-1,-1,3,-4,-4
3,-5,-8,2,5,-6,-8,-1,-1,3,-4,-4
4,-5,-8,2,6,-6,-9,-1,-1,3,-4,-5
4,-5,-8,2,6,-6,-9,-1,-1,3,-4,-5
4,-5,-8,2,5,-6,-9,-1,-1,3,-4,-5
3,-5,-8,2,5,-6,-9,-1,-1,2,-4,-5
2,-6,-7,2,5,-7,-9,-1,-1,2,-4,-5
2,-6,-7,3,5,-7,-9,-1,-1,2,-4,-5
1,-6,-7,3,4,-7,-9,-2,-1,2,-5,-5
1,-7,-7,4,4,-7,-10,-2,-2,1,-5,-6
1,-7,-8,4,4,-8,-10,-2,-2,1,-5,-6
1,-7,-8,4,4,-8,-10,-2,-2,1,-5,-6
1,-7,-8,4,4,-8,-10,-2,-2,1,-5,-6
1,-7,-8,4,5,-8,-10,-2,-2,0,-6,-6
1,-8,-8,4,5,-8,-10,-2,-2,0,-6,-6
1,-8,-8,4,5,-8,-10,-2,-2,0,-6,-6
1,-8,-9,4,5,-8,-10,-2,-2,0,-6,-6
1,-8,-9,4,5,-8,-10,-2,-2,0,-6,-7
1,-8,-9,4,5,-9,-10,-3,-3,0,-6,-7
2,-8,-10,4,5,-9,-10,-3,-3,0,-6,-8
2,-8,-10,3,6,-9,-10,-3,-3,-1,-6,-8
3,-8,-11,3,7,-9,-10,-4,-3,-1,-7,-8
3,-8,-11,3,7,-10,-10,-4,-3,-1,-7,-8
3,-8,-11,3,7,-10,-10,-4,-3,-1,-8,-8
3,-8,-11,3,7,-10,-10,-4,-3,-1,-8,-8
3,-8,-11,3,7,-10,-10,-4,-4,-1,-8,-8
4,-8,-11,3,8,-10,-10,-4,-4,-2,-8,-9
4,-8,-12,2,8,-10,-10,-4,-5,-2,-8,-9
5,-8,-12,2,8,-10,-11,-4,-5,-2,-8,-9
5,-8,-12,2,8,-10,-11,-5,-5,-3,-8,-9
5,-8,-13,2,9,-11,-11,-5,-5,-3,-9,-9
5,-8,-13,2,9,-11,-11,-5,-5,-3,-9,-9
5,-8,-13,2,9,-10,-11,-5,-5,-4,-9,-9
4,-8,-13,2,9,-10,-11,-5,-5,-4,-9,-9
4,-9,-13,2,9,-11,-11,-5,-5,-4,-9,-9
4,-9,-13,3,9,-11,-11,-5,-6,-4,-9,-10
4,-9,-13,3,9,-10,-11,-6,-6,-5,-9,-10
5,-8,-13,2,9,-10,-11,-6,-5,-5,-9,-9
5,-8,-13,2,9,-10,-11,-5,-5,-4,-9,-9
4,-8,-12,2,8,-10,-11,-5,-5,-4,-9,-9
3,-8,-12,3,7,-10,-12,-5,-5,-4,-9,-10
3,-9,-12,3,7,-10,-12,-5,-6,-4,-10,-10
3,-9,-12,3,7,-10,-12,-5,-6,-4,-10,-10
3,-9,-12,3,7,-10,-12,-5,-6,-4,-10,-10
2,-10,-11,4,7,-10,-12,-5,-6,-4,-10,-10
2,-10,-12,5,7,-11,-12,-5,-6,-5,-10,-11
4,-10,-13,4,8,-11,-12,-5,-6,-5,-10,-11
5,-9,-13,2,9,-11,-12,-5,-6,-5,-10,-10
5,-8,-13,2,9,-11,-12,-5,-6,-5,-9,-10
5,-7,-12,1,9,-10,-12,-4,-6,-5,-9,-9
5,-7,-11,1,8,-9,-12,-4,-6,-5,-9,-9
5,-7,-11,1,8,-9,-12,-4,-6,-5,-9,-8
5,-7,-11,1,7,-8,-11,-4,-6,-4,-9,-8
4,-7,-10,1,7,-8,-11,-4,-5,-4,-9,-8
4,-7,-10,2,7,-8,-11,-4,-5,-4,-9,-9
4,-7,-10,2,7,-8,-11,-4,-5,-4,-10,-9
4,-6,-10,2,7,-8,-11,-4,-5,-4,-10,-9
4,-6,-10,1,7,-8,-10,-4,-6,-4,-11,-9
5,-6,-11,1,8,-8,-10,-4,-6,-4,-11,-10
5,-6,-11,1,8,-8,-10,-4,-6,-4,-11,-10
5,-6,-11,1,8,-8,-10,-4,-6,-4,-11,-10
4,-7,-11,2,8,-9,-11,-4,-6,-4,-11,-10
3,-7,-11,2,8,-9,-11,-4,-6,-4,-11,-9
3,-8,-11,3,8,-10,-11,-5,-7,-5,-11,-9
3,-8,-11,3,8,-10,-11,-5,-7,-5,-11,-9
3,-8,-11,3,7,-9,-11,-5,-7,-5,-12,-9
3,-8,-10,3,7,-9,-11,-5,-7,-5,-12,-9
3,-8,-10,3,6,-9,-11,-5,-7,-5,-12,-9
3,-7,-9,3,6,-8,-11,-5,-6,-4,-12,-9
3,-7,-9,2,7,-8,-10,-5,-6,-4,-12,-8
3,-6,-9,2,7,-8,-10,-5,-6,-4,-12,-8
3,-6,-9,2,7,-8,-9,-5,-6,-4,-12,-8
2,-6,-9,2,6,-7,-9,-4,-6,-4,-11,-8
2,-6,-9,2,6,-7,-9,-4,-6,-4,-11,-8
2,-6,-9,2,6,-7,-9,-4,-6,-4,-11,-8
2,-6,-9,2,6,-7,-9,-4,-6,-4,-11,-8
2,-7,-9,2,6,-7,-9,-4,-6,-4,-11,-8
1,-7,-9,3,6,-7,-9,-4,-6,-4,-11,-9
1,-7,-9,3,6,-7,-9,-4,-6,-4,-11,-9
1,-7,-9,3,6,-7,-9,-4,-6,-4,-12,-9
2,-7,-9,3,7,-8,-9,-4,-6,-4,-12,-9
1,-7,-9,3,6,-8,-9,-4,-6,-4,-12,-9
1,-7,-9,3,5,-8,-9,-4,-6,-4,-12,-8
0,-8,-8,4,5,-8,-9,-4,-6,-4,-12,-8
0,-8,-8,4,5,-8,-9,-4,-6,-4,-12,-8
0,-7,-8,4,5,-8,-9,-4,-6,-4,-11,-8
0,-7,-8,4,5,-8,-9,-4,-5,-3,-11,-8
0,-7,-7,4,4,-7,-8,-4,-5,-3,-11,-8
0,-7,-7,4,4,-6,-8,-4,-5,-3,-11,-8
0,-6,-6,3,3,-6,-8,-4,-4,-2,-10,-8
0,-6,-6,3,3,-6,-8,-4,-4,-2,-10,-8
0,-6,-5,3,3,-6,-8,-4,-4,-2,-9,-8
1,-5,-5,2,4,-5,-8,-4,-4,-2,-9,-8
1,-4,-5,2,4,-5,-8,-4,-4,-2,-9,-8
1,-4,-5,1,4,-5,-8,-4,-4,-2,-9,-8
1,-4,-5,1,4,-5,-8,-4,-4,-2,-8,-7
1,-4,-5,1,4,-4,-8,-4,-4,-2,-8,-7
1,-4,-5,1,4,-4,-9,-4,-4,-2,-7,-7
1,-4,-5,2,3,-4,-9,-4,-4,-2,-7,-7
0,-4,-5,2,3,-4,-9,-3,-4,-1,-7,-7
1,-3,-5,1,3,-4,-9,-3,-3,-1,-7,-7
1,-3,-5,1,3,-4,-9,-3,-3,0,-6,-6
1,-3,-4,1,3,-4,-9,-3,-3,0,-7,-6
1,-3,-4,1,3,-4,-9,-3,-3,-1,-7,-7
1,-3,-5,1,3,-4,-8,-3,-3,-1,-7,-7
1,-3,-5,1,3,-4,-8,-3,-3,-1,-7,-8
1,-3,-5,1,3,-3,-9,-3,-3,-1,-7,-8
1,-3,-5,1,3,-3,-9,-3,-4,-1,-7,-8
1,-3,-5,2,3,-4,-10,-4,-4,-1,-7,-8
0,-4,-5,2,3,-4,-10,-4,-4,-1,-7,-8
1,-3,-5,1,3,-4,-11,-4,-4,-1,-7,-8
1,-4,-6,2,4,-5,-12,-4,-5,-1,-7,-8
1,-6,-7,2,4,-6,-13,-4,-5,-2,-8,-8
2,-6,-8,2,5,-7,-14,-4,-5,-2,-8,-8
3,-6,-9,2,6,-7,-15,-4,-5,-2,-7,-8
4,-5,-9,1,7,-7,-15,-4,-5,-1,-7,-8
4,-5,-9,1,7,-7,-15,-4,-5,-1,-7,-7
3,-5,-8,1,6,-7,-15,-4,-5,-1,-7,-7
3,-4,-7,1,6,-6,-15,-4,-4,-1,-8,-7
3,-4,-7,0,6,-6,-15,-4,-4,-1,-8,-7
3,-4,-8,0,6,-6,-16,-4,-5,-1,-7,-7
3,-6,-9,1,6,-7,-16,-5,-6,-2,-7,-7
3,-6,-9,2,6,-8,-16,-6,-7,-2,-8,-8
3,-6,-10,2,6,-8,-16,-6,-8,-2,-8,-8
3,-6,-10,2,6,-8,-15,-6,-8,-2,-8,-8
3,-6,-10,2,7,-9,-16,-6,-8,-2,-8,-8
3,-7,-11,2,7,-9,-16,-6,-8,-2,-8,-8
3,-8,-11,2,7,-9,-16,-6,-8,-2,-7,-8
2,-8,-11,3,8,-10,-16,-6,-8,-2,-7,-8
2,-9,-12,3,8,-10,-16,-6,-8,-2,-7,-8
2,-10,-12,4,8,-11,-16,-6,-9,-3,-8,-8
1,-12,-13,5,7,-12,-16,-6,-9,-3,-8,-8
0,-13,-13,6,7,-13,-16,-6,-9,-3,-8,-8
0,-13,-13,7,6,-13,-17,-6,-10,-3,-8,-8
-1,-14,-12,8,6,-13,-17,-6,-10,-3,-8,-9
-2,-15,-12,9,5,-14,-17,-7,-11,-3,-8,-9
-3,-16,-13,10,5,-15,-18,-8,-13,-4,-7,-11
-4,-19,-15,11,6,-17,-19,-10,-15,-5,-6,-12
-5,-22,-18,13,6,-20,-21,-11,-17,-6,-5,-14
-6,-26,-20,16,7,-23,-23,-13,-19,-8,-3,-16
-7,-30,-23,19,7,-27,-25,-15,-22,-10,-1,-18
-8,-33,-24,21,8,-29,-26,-17,-23,-11,-1,-19
-9,-33,-24,22,7,-29,-25,-17,-24,-12,-2,-19
-10,-32,-21,21,6,-27,-24,-16,-23,-13,-4,-18
-10,-28,-19,20,5,-23,-22,-15,-21,-13,-7,-18
-9,-24,-16,17,4,-20,-20,-13,-19,-12,-9,-17
-8,-21,-13,15,4,-17,-18,-11,-17,-12,-11,-16
-7,-18,-12,13,3,-15,-16,-10,-15,-11,-13,-15
-7,-17,-9,12,1,-13,-14,-8,-13,-10,-14,-13
-7,-15,-8,12,0,-12,-13,-7,-12,-9,-15,-12
-6,-15,-8,11,1,-12,-13,-7,-11,-9,-16,-11
-5,-14,-9,11,2,-12,-13,-7,-12,-8,-17,-11
-5,-14,-9,11,3,-12,-13,-7,-12,-8,-16,-11
-5,-15,-10,11,3,-12,-13,-7,-13,-8,-16,-12
-6,-15,-10,11,3,-13,-13,-8,-13,-9,-15,-13
-6,-16,-11,11,3,-13,-13,-8,-13,-9,-15,-14
-5,-16,-10,10,3,-12,-13,-8,-13,-9,-15,-14
-5,-15,-9,10,2,-12,-12,-7,-12,-9,-15,-13
-5,-14,-9,9,2,-12,-12,-7,-12,-8,-15,-13
-4,-13,-9,8,3,-11,-11,-7,-11,-8,-15,-12
-3,-12,-9,8,4,-11,-11,-6,-11,-7,-15,-12
-3,-12,-9,8,4,-10,-10,-6,-11,-7,-15,-11
-3,-12,-9,8,4,-10,-10,-6,-11,-6,-15,-11
-3,-11,-9,7,4,-10,-10,-6,-11,-6,-15,-11
-3,-11,-9,7,3,-9,-10,-6,-11,-6,-15,-11
-3,-11,-8,7,3,-9,-10,-6,-11,-6,-14,-12
-3,-12,-8,7,3,-10,-10,-6,-11,-6,-15,-13
-4,-13,-9,8,3,-11,-9,-6,-12,-7,-16,-14
-4,-14,-9,9,3,-12,-7,-5,-12,-8,-17,-16
-5,-15,-10,10,3,-13,-6,-2,-12,-8,-18,-17
-5,-16,-11,11,3,-13,-4,1,-10,-8,-19,-18
-5,-16,-11,11,3,-14,-2,4,-6,-6,-18,-18
-6,-16,-11,11,3,-14,0,6,-2,-4,-16,-17
-6,-16,-11,10,3,-13,2,8,3,0,-13,-15
-5,-14,-9,9,3,-11,4,13,11,6,-8,-11
-3,-11,-8,7,3,-9,5,21,23,15,0,-4
0,-7,-8,4,4,-7,7,30,37,26,9,3
4,-4,-8,1,5,-6,9,39,50,39,19,11
7,0,-7,-2,7,-4,11,46,62,52,30,20
9,3,-6,-6,8,-2,13,52,74,66,41,29
12,6,-6,-9,9,0,12,56,84,80,52,38
15,9,-6,-12,11,1,8,58,93,93,64,49
19,13,-6,-16,13,3,1,56,99,105,76,59
22,18,-4,-20,14,7,-8,47,98,113,85,68
24,24,0,-24,13,12,-18,28,87,114,91,74
24,31,7,-27,9,19,-27,-2,60,104,89,76
21,35,14,-28,4,24,-36,-42,16,79,79,72
17,36,19,-26,0,28,-43,-86,-38,45,63,64
11,34,22,-22,-5,28,-49,-125,-92,8,44,54
6,28,22,-17,-7,25,-54,-155,-135,-24,24,42
2,20,18,-11,-7,19,-57,-174,-167,-52,5,27
-3,8,11,-2,-6,9,-56,-184,-188,-75,-14,10
-7,-4,3,6,-4,-1,-54,-186,-199,-92,-33,-7
-11,-15,-4,14,-3,-10,-53,-183,-202,-103,-47,-22
-15,-25,-10,21,-1,-19,-52,-175,-197,-108,-58,-33
-17,-33,-17,26,0,-26,-52,-162,-186,-108,-63,-40
-17,-38,-21,28,2,-30,-50,-147,-171,-103,-63,-42
-17,-39,-23,28,4,-31,-47,-131,-154,-96,-62,-43
-17,-40,-24,28,4,-32,-43,-115,-137,-88,-59,-43
-17,-40,-25,28,4,-32,-39,-100,-120,-80,-55,-42
-15,-39,-25,27,5,-32,-34,-84,-102,-70,-50,-39
-14,-37,-24,26,5,-30,-29,-68,-85,-59,-43,-35
-13,-35,-22,24,5,-29,-25,-55,-70,-49,-37,-31
-12,-32,-20,22,5,-27,-21,-45,-57,-41,-32,-27
-11,-29,-18,21,4,-24,-18,-38,-47,-35,-29,-25
-11,-28,-17,20,3,-22,-15,-32,-40,-30,-26,-23
-11,-27,-16,19,3,-21,-12,-27,-34,-27,-24,-21
-10,-26,-16,18,3,-20,-10,-22,-29,-23,-22,-21
-10,-25,-15,18,3,-20,-8,-18,-24,-21,-21,-20
-9,-24,-15,17,3,-20,-7,-16,-21,-19,-19,-19
-9,-24,-14,17,3,-20,-6,-14,-19,-17,-18,-19
-10,-23,-13,16,2,-19,-4,-12,-17,-15,-17,-18
-10,-23,-13,16,2,-19,-3,-11,-15,-14,-17,-17
-10,-23,-13,16,2,-18,-2,-10,-14,-13,-16,-17
-9,-23,-14,16,3,-18,-1,-8,-13,-13,-16,-17
-9,-23,-14,16,3,-18,-1,-7,-12,-12,-16,-17
-9,-23,-14,16,3,-18,0,-6,-11,-12,-15,-17
-9,-23,-14,16,3,-18,0,-5,-9,-11,-15,-16
-8,-22,-14,16,3,-18,0,-4,-8,-10,-14,-16
-7,-22,-14,15,3,-18,0,-4,-8,-9,-14,-15
-7,-22,-13,15,2,-18,1,-3,-7,-8,-13,-15
-7,-22,-13,15,2,-18,1,-3,-7,-8,-13,-15
-8,-22,-14,15,3,-18,1,-3,-7,-7,-13,-15
-8,-22,-14,16,3,-18,1,-2,-6,-7,-13,-15
-8,-22,-14,16,3,-18,2,-2,-6,-7,-13,-15
-7,-22,-15,15,4,-18,2,-2,-5,-6,-13,-15
-6,-22,-15,14,4,-18,1,-1,-5,-5,-13,-15
-7,-21,-14,14,4,-18,1,-1,-4,-4,-12,-15
-7,-21,-13,14,4,-17,2,0,-4,-4,-11,-15
-7,-20,-13,13,3,-17,2,0,-3,-3,-11,-15
-8,-19,-12,13,3,-16,3,0,-3,-3,-10,-15
-8,-19,-12,13,2,-15,3,1,-2,-3,-10,-15
-8,-18,-12,13,2,-15,3,1,-2,-2,-9,-14
-8,-18,-12,13,2,-15,3,1,-1,-2,-9,-14
-7,-18,-11,13,2,-15,3,1,-1,-2,-9,-14
-8,-19,-10,14,1,-15,3,1,-1,-1,-9,-14
-9,-19,-10,14,0,-15,4,2,0,-1,-8,-14
-10,-19,-10,15,0,-15,4,2,0,-1,-8,-14
-10,-19,-10,15,0,-15,4,2,0,-2,-8,-14
-10,-19,-9,15,0,-14,4,2,0,-2,-8,-13
-10,-19,-9,15,0,-14,4,3,0,-2,-8,-13
-10,-19,-9,15,0,-15,4,3,0,-2,-8,-14
-10,-20,-9,15,0,-15,4,3,0,-3,-8,-14
-11,-21,-10,16,0,-15,4,2,0,-3,-8,-15
-10,-21,-10,16,0,-16,4,2,0,-3,-8,-15
-10,-21,-11,15,0,-16,4,2,0,-3,-8,-15
-11,-21,-11,16,0,-16,3,1,0,-4,-8,-16
-12,-22,-11,18,0,-17,2,1,0,-4,-8,-16
-13,-23,-10,18,-1,-17,2,1,0,-5,-8,-16
-14,-23,-10,18,-2,-16,2,2,0,-5,-7,-16
-14,-23,-9,19,-2,-16,3,2,0,-5,-7,-15
-15,-24,-9,19,-2,-16,3,2,1,-5,-7,-15
-15,-24,-9,19,-2,-16,3,2,1,-5,-7,-15
-15,-24,-9,19,-2,-16,3,2,1,-5,-7,-15
-15,-23,-9,19,-2,-16,3,2,1,-5,-7,-15
-15,-23,-9,19,-2,-16,3,2,1,-5,-6,-15
-15,-23,-9,19,-2,-16,3,2,1,-4,-6,-15
-15,-23,-9,19,-3,-16,3,2,1,-4,-6,-15
-15,-23,-9,19,-3,-16,2,2,1,-4,-6,-15
-14,-23,-10,19,-2,-16,2,2,1,-4,-6,-15
-13,-22,-10,18,-2,-16,2,2,1,-3,-6,-15
-12,-22,-10,17,-1,-16,2,2,1,-3,-6,-15
-12,-22,-10,17,-1,-16,2,3,2,-2,-6,-15
-11,-22,-10,16,0,-16,2,3,2,-2,-6,-15
-10,-21,-10,16,0,-16,2,3,2,-2,-6,-15
-9,-20,-11,15,1,-16,2,4,2,-2,-5,-15
-9,-20,-11,15,2,-16,2,4,3,-2,-5,-15
-8,-19,-11,14,2,-15,2,4,3,-1,-4,-14
-8,-19,-10,13,2,-15,3,5,3,0,-4,-14
-7,-18,-10,13,2,-14,3,5,4,0,-4,-13
-7,-17,-10,12,2,-14,3,6,4,0,-4,-13
-7,-17,-10,11,2,-13,3,6,4,1,-3,-13
-6,-16,-10,11,2,-13,3,6,5,1,-3,-12
-6,-15,-9,10,2,-12,4,7,5,1,-2,-12
-5,-14,-9,9,2,-11,4,7,6,2,-2,-11
-4,-13,-9,9,2,-11,5,8,7,2,-2,-10
-4,-12,-8,9,2,-10,5,8,7,3,-2,-10
-4,-11,-8,8,2,-10,5,9,8,3,-1,-9
-3,-10,-8,7,2,-9,5,10,8,4,-1,-9
-3,-10,-8,6,3,-9,5,10,8,4,-1,-9
-2,-9,-8,6,3,-9,5,11,9,5,-1,-9
-2,-9,-7,6,2,-8,5,11,10,5,0,-8
-2,-8,-6,6,2,-8,6,12,11,6,0,-8
-2,-8,-6,5,1,-7,6,12,11,7,0,-8
-2,-7,-5,5,1,-7,6,12,12,7,1,-7
-2,-7,-5,5,1,-7,5,12,12,7,1,-7
-2,-7,-5,5,1,-6,5,13,12,7,1,-7
-3,-7,-5,5,1,-6,5,13,12,7,1,-7
-3,-7,-5,5,1,-6,5,14,12,8,1,-7
-3,-7,-5,5,1,-6,5,14,13,8,2,-6
-3,-7,-4,5,1,-6,5,14,13,8,2,-6
-2,-7,-4,5,1,-6,5,14,14,8,2,-6
-2,-6,-4,5,0,-6,5,14,14,8,2,-6
-2,-6,-4,5,0,-5,5,15,14,9,2,-5
-2,-6,-3,5,0,-5,4,15,14,9,3,-5
-2,-6,-3,5,0,-5,4,15,14,9,3,-4
-2,-6,-3,5,0,-5,4,15,15,9,4,-4
-2,-6,-3,4,0,-4,4,15,15,9,4,-4
-2,-5,-3,4,0,-4,4,15,16,10,4,-4
-2,-4,-3,3,0,-3,3,15,16,10,5,-3
-1,-4,-3,3,0,-3,3,15,16,10,5,-3
-1,-3,-3,2,1,-4,3,15,16,10,5,-3
0,-2,-4,1,2,-3,3,16,16,10,5,-2
2,-1,-4,0,3,-2,3,16,16,10,5,-2
2,-1,-3,-1,3,-2,2,17,16,10,6,-1
3,0,-3,-1,3,-2,1,17,17,10,6,-1
3,0,-3,-1,3,-2,1,17,17,10,6,0
3,0,-3,-2,3,-1,1,17,17,10,6,0
4,1,-3,-2,3,-1,0,17,17,10,7,0
4,2,-3,-2,3,-1,0,17,17,10,7,0
5,2,-3,-3,4,-1,0,17,16,10,7,0
6,2,-4,-3,5,-1,-1,17,16,10,8,1
7,2,-4,-4,5,-1,-1,16,16,10,8,1
7,2,-4,-4,5,-1,-2,16,15,10,8,1
6,2,-4,-3,5,-1,-3,15,15,9,8,1
7,2,-4,-4,6,-1,-3,14,15,9,8,2
8,3,-4,-5,6,-1,-4,14,14,9,8,2
7,3,-4,-5,6,-1,-4,13,14,9,8,2
7,3,-4,-4,5,-1,-4,13,13,9,8,3
6,3,-3,-4,4,0,-5,13,13,9,8,3
6,3,-3,-4,4,0,-5,13,13,9,8,4
5,3,-2,-4,4,0,-6,12,13,9,9,4
5,3,-1,-4,3,1,-7,12,12,9,9,5
5,3,-1,-4,3,1,-7,11,12,8,9,5
5,3,-1,-4,3,1,-8,10,11,8,9,5
5,3,-1,-4,3,1,-8,9,10,8,9,5
4,3,0,-4,2,1,-9,9,9,8,9,5
4,4,0,-4,2,2,-9,9,9,8,9,5
4,4,0,-4,2,2,-9,8,8,8,9,5
4,4,1,-4,2,2,-9,8,7,7,9,5
4,4,0,-4,2,2,-9,7,6,6,8,5
5,4,0,-4,2,1,-9,6,5,6,8,5
6,4,0,-5,2,2,-9,6,4,6,8,6
6,5,0,-5,2,2,-9,5,3,5,8,6
5,5,0,-5,2,2,-9,5,3,5,8,6
5,5,0,-5,2,2,-9,4,2,5,8,6
5,5,0,-4,2,2,-10,3,1,4,8,6
5,5,0,-4,2,2,-10,2,1,4,7,6
5,5,0,-4,2,2,-11,1,0,3,7,6
5,4,0,-4,2,2,-11,0,-1,3,6,6
5,4,0,-4,2,2,-11,0,-2,2,6,6
5,4,0,-5,3,2,-11,-1,-2,1,6,5
5,4,-1,-5,3,2,-11,-1,-3,1,6,5
5,5,-1,-5,3,2,-11,-1,-3,0,6,5
6,5,-1,-5,3,2,-11,-2,-3,0,6,5
6,5,-1,-5,4,1,-11,-2,-4,0,5,4
7,5,-1,-5,4,1,-10,-3,-4,0,5,4
7,5,-1,-5,4,1,-10,-3,-3,0,5,4
7,5,-1,-5,4,1,-9,-2,-3,0,5,4
7,5,-2,-5,4,1,-9,-2,-3,0,5,4
7,5,-2,-5,4,1,-9,-2,-3,0,5,4
6,5,-2,-5,4,1,-9,-2,-2,0,5,4
6,5,-2,-5,4,1,-8,-1,-2,0,5,5
6,4,-2,-4,4,0,-7,-1,-1,1,5,4
6,4,-3,-4,4,0,-7,-1,-1,1,5,4
6,3,-3,-4,4,0,-6,-1,0,1,5,3
6,2,-3,-3,4,-1,-6,-1,0,1,5,3
5,1,-3,-3,4,-1,-5,-1,0,1,4,2
5,1,-3,-3,4,-1,-5,0,0,2,4,1
5,1,-3,-3,4,-1,-4,0,0,2,4,1
4,1,-3,-2,4,-2,-4,1,1,3,4,0
4,0,-3,-1,3,-2,-4,1,1,3,4,0
4,0,-4,-1,4,-3,-4,1,2,3,4,0
4,0,-4,-1,4,-3,-4,1,2,3,3,0
4,-1,-5,-1,4,-4,-4,1,2,3,3,0
4,-1,-5,-1,4,-4,-3,1,2,3,3,0
4,-2,-5,0,4,-4,-3,1,2,3,3,0
3,-2,-5,0,4,-4,-2,1,2,3,2,-1
2,-3,-6,1,4,-5,-2,1,2,3,2,-1
1,-5,-6,2,4,-6,-2,1,2,3,1,-2
1,-5,-6,2,4,-6,-1,1,2,3,1,-2
2,-4,-6,2,4,-6,-1,2,3,3,1,-2
2,-3,-6,1,4,-5,0,2,3,3,1,-2
1,-4,-6,2,4,-5,0,2,3,2,1,-2
1,-4,-6,2,3,-6,0,1,3,2,1,-3
1,-5,-6,3,3,-6,0,1,2,2,1,-3
0,-6,-6,3,4,-7,0,0,2,2,0,-3
0,-7,-6,3,4,-7,0,0,2,1,0,-3
0,-7,-6,4,4,-7,0,0,1,1,0,-4
0,-8,-6,4,3,-7,0,-1,1,0,0,-4
-1,-8,-6,5,3,-8,0,-1,0,0,-1,-5
-1,-9,-7,5,3,-8,0,-2,0,0,-1,-5
-1,-9,-7,5,3,-8,0,-2,0,0,-2,-6
-2,-9,-6,5,3,-8,0,-2,0,-1,-2,-6
-2,-9,-6,6,2,-8,0,-2,0,-1,-2,-6
-3,-9,-6,6,2,-8,0,-2,0,-1,-2,-6
-2,-9,-6,6,2,-9,0,-2,-1,-1,-2,-6
-2,-9,-7,6,3,-9,0,-2,-1,-1,-2,-6
-2,-9,-7,6,2,-9,0,-2,-1,-2,-3,-6
-2,-9,-6,7,2,-9,0,-3,-1,-2,-3,-6
-3,-10,-7,8,2,-9,0,-3,-2,-2,-4,-6
-3,-11,-7,9,2,-10,0,-4,-3,-3,-5,-7
-4,-12,-7,9,2,-10,0,-5,-4,-3,-5,-7
-4,-13,-7,9,2,-11,-1,-5,-4,-3,-6,-8
-3,-13,-8,9,3,-11,-1,-5,-4,-3,-6,-8
-3,-13,-9,9,3,-12,-1,-5,-4,-4,-6,-8
-4,-13,-9,9,3,-12,-1,-5,-4,-4,-6,-8
-4,-13,-8,9,2,-11,-1,-5,-4,-4,-6,-8
-4,-13,-8,9,2,-11,0,-5,-4,-5,-6,-8
-3,-13,-9,8,3,-12,0,-5,-4,-5,-7,-9
-3,-13,-9,8,3,-12,0,-5,-5,-5,-7,-9
-3,-13,-9,8,3,-12,0,-5,-5,-5,-7,-8
-3,-13,-9,8,3,-12,0,-5,-5,-5,-7,-8
-3,-13,-9,8,3,-12,-1,-5,-5,-5,-7,-8
-3,-13,-9,8,3,-12,-1,-5,-5,-5,-7,-8
-3,-12,-9,8,3,-12,-1,-5,-5,-5,-8,-8
-3,-12,-9,8,3,-12,-1,-5,-5,-5,-8,-8
-2,-12,-10,8,4,-12,-1,-5,-5,-6,-8,-8
-2,-12,-10,8,4,-12,-1,-5,-5,-6,-8,-8
-3,-12,-9,8,3,-12,-1,-4,-4,-6,-8,-8
-4,-12,-8,8,2,-11,-1,-4,-4,-6,-8,-8
-4,-11,-7,8,1,-11,-1,-4,-3,-6,-8,-8
-4,-11,-7,8,1,-10,-1,-4,-3,-6,-8,-8
-3,-10,-7,8,2,-10,0,-4,-2,-6,-7,-8
-2,-10,-7,7,2,-9,0,-3,-2,-6,-7,-7
-2,-9,-7,7,2,-9,0,-3,-2,-5,-7,-7
-2,-9,-7,7,2,-9,0,-2,-2,-5,-6,-7
-2,-9,-7,6,2,-9,0,-2,-1,-5,-6,-7
-1,-9,-7,6,2,-9,0,-1,-1,-5,-6,-7
-1,-9,-6,6,2,-9,0,-1,-1,-5,-6,-6
-1,-9,-6,6,2,-9,0,-1,0,-4,-6,-6
-1,-9,-6,6,2,-9,0,-1,0,-4,-6,-6
-1,-9,-6,6,2,-8,0,-1,0,-4,-6,-5
-2,-9,-5,6,2,-8,0,-1,0,-4,-5,-5
-2,-8,-5,6,1,-8,0,-1,0,-4,-5,-5
-2,-8,-5,6,1,-8,0,-1,0,-4,-5,-5
-2,-8,-5,6,1,-8,0,0,1,-4,-5,-5
-2,-8,-5,6,1,-8,0,0,1,-4,-5,-5
-2,-8,-5,6,1,-8,0,0,1,-4,-5,-6
-2,-8,-5,6,1,-8,0,0,1,-4,-4,-6
-1,-7,-5,5,2,-7,0,0,2,-4,-4,-5
0,-7,-5,5,2,-7,0,0,2,-4,-4,-5
0,-7,-6,5,2,-7,0,0,2,-4,-4,-5
0,-7,-6,5,2,-7,0,0,3,-4,-4,-4
0,-7,-6,5,2,-7,0,0,3,-4,-4,-4
0,-7,-6,4,2,-7,0,0,3,-3,-4,-4
0,-6,-6,4,2,-7,0,0,3,-3,-4,-4
0,-6,-6,3,2,-7,0,1,3,-3,-4,-4
0,-6,-5,3,2,-7,0,1,4,-3,-4,-4
0,-6,-5,3,2,-7,0,1,4,-3,-4,-5
1,-6,-6,3,3,-7,0,1,4,-3,-4,-5
1,-5,-6,2,3,-7,0,1,4,-3,-4,-5
2,-4,-6,2,4,-7,0,1,4,-2,-4,-4
1,-5,-6,2,3,-7,0,1,4,-2,-3,-4
0,-6,-6,3,3,-7,-1,1,4,-2,-3,-4
0,-6,-6,3,3,-7,-1,1,4,-2,-3,-4
2,-4,-6,2,4,-6,0,1,4,-2,-3,-4
3,-3,-6,1,4,-6,0,2,5,-2,-3,-4
3,-3,-6,1,4,-6,0,2,5,-2,-3,-4
3,-3,-6,1,4,-5,0,2,5,-1,-3,-4
3,-3,-5,1,4,-5,0,2,5,-1,-3,-3
3,-3,-5,1,4,-5,0,2,5,-1,-3,-3
2,-3,-6,1,4,-6,0,2,5,-1,-3,-3
2,-4,-6,2,4,-6,-1,2,4,-1,-3,-3
2,-4,-6,2,4,-6,-1,2,4,-1,-3,-3
2,-5,-6,2,4,-6,-1,2,4,-1,-3,-4
1,-5,-6,2,4,-6,-1,1,4,-1,-3,-4
0,-6,-6,3,3,-6,-1,1,4,-1,-3,-4
0,-6,-6,3,3,-6,-1,1,4,-1,-3,-4
1,-5,-7,3,4,-6,-1,1,4,-1,-3,-4
2,-5,-7,2,4,-6,-1,1,4,-1,-3,-4
2,-5,-7,2,4,-7,-1,1,3,-1,-4,-4
2,-6,-7,2,4,-7,-2,0,3,-2,-4,-4
1,-6,-7,3,4,-7,-2,0,2,-2,-4,-4
1,-6,-7,3,3,-7,-2,0,2,-2,-4,-4
1,-7,-7,4,4,-8,-2,0,2,-2,-4,-5
1,-7,-8,4,4,-8,-2,0,1,-3,-4,-5
1,-7,-9,4,5,-8,-3,0,1,-3,-4,-5
1,-7,-9,4,5,-8,-3,-1,1,-3,-4,-5
0,-7,-8,5,4,-9,-3,-1,1,-3,-5,-5
1,-7,-8,4,4,-9,-3,-1,1,-4,-5,-6
2,-7,-9,3,5,-9,-3,-1,0,-4,-5,-6
2,-7,-9,3,5,-9,-3,-1,0,-4,-5,-6
1,-8,-9,3,5,-9,-3,-1,0,-4,-5,-7
0,-9,-9,4,5,-10,-3,-1,0,-4,-5,-7
1,-9,-10,4,5,-10,-3,-1,0,-5,-5,-7
1,-9,-10,4,6,-10,-3,-1,-1,-5,-5,-7
0,-9,-10,5,5,-10,-3,-1,-1,-5,-5,-7
0,-9,-9,5,4,-10,-3,-2,-1,-5,-5,-7
0,-9,-9,5,5,-10,-4,-2,-2,-5,-6,-8
0,-9,-9,4,5,-10,-4,-3,-2,-5,-6,-8
1,-9,-9,4,5,-10,-4,-3,-2,-5,-6,-8
1,-8,-9,4,5,-10,-4,-3,-2,-6,-6,-8
2,-8,-10,3,6,-10,-3,-3,-2,-6,-6,-8
3,-7,-10,3,7,-10,-3,-3,-2,-6,-6,-8
3,-7,-10,3,7,-10,-3,-2,-2,-6,-6,-8
3,-7,-11,3,7,-10,-3,-2,-3,-6,-6,-8
3,-7,-11,3,7,-10,-4,-3,-3,-6,-6,-8
3,-6,-10,2,6,-9,-4,-3,-3,-6,-6,-8
3,-6,-9,2,6,-9,-3,-2,-3,-6,-6,-8
2,-7,-9,3,5,-9,-3,-2,-2,-6,-6,-7
2,-7,-8,3,5,-9,-3,-2,-1,-5,-6,-7
2,-7,-8,3,6,-9,-3,-2,-2,-6,-6,-7
1,-7,-9,3,6,-9,-3,-3,-2,-6,-6,-7
1,-7,-9,3,6,-9,-3,-3,-2,-6,-6,-7
1,-7,-9,3,6,-9,-3,-3,-3,-6,-6,-7
2,-7,-9,3,6,-9,-3,-3,-3,-6,-6,-7
2,-7,-10,3,6,-9,-3,-3,-3,-7,-6,-7
2,-7,-10,3,6,-9,-3,-3,-3,-7,-6,-7
2,-7,-9,3,6,-9,-3,-3,-3,-7,-6,-7
2,-6,-9,2,6,-8,-3,-3,-3,-7,-6,-7
2,-6,-8,2,6,-8,-3,-3,-3,-7,-6,-7
2,-6,-8,2,6,-8,-3,-3,-3,-7,-6,-8
2,-6,-8,2,6,-8,-3,-3,-3,-7,-6,-8
2,-5,-8,2,6,-8,-2,-2,-3,-7,-6,-7
2,-5,-8,2,6,-8,-2,-2,-2,-7,-6,-7
2,-5,-8,2,5,-8,-2,-2,-2,-7,-6,-6
2,-5,-8,2,5,-8,-2,-2,-2,-7,-5,-6
1,-5,-8,2,5,-7,-2,-2,-2,-7,-5,-6
1,-5,-7,2,5,-7,-2,-2,-2,-7,-5,-6
1,-5,-7,2,5,-7,-2,-2,-2,-7,-5,-7
1,-5,-6,2,5,-7,-2,-2,-2,-7,-5,-7
0,-5,-6,2,4,-7,-2,-2,-2,-7,-5,-7
0,-6,-5,3,3,-7,-3,-2,-2,-7,-5,-7
0,-6,-5,3,3,-7,-3,-2,-2,-7,-6,-7
0,-6,-6,3,3,-7,-3,-2,-3,-7,-6,-7
0,-6,-6,3,3,-7,-3,-2,-3,-7,-6,-7
0,-7,-7,4,4,-7,-3,-2,-3,-7,-6,-7
0,-7,-7,4,4,-7,-3,-2,-3,-7,-6,-7
0,-7,-7,4,4,-8,-3,-3,-3,-7,-6,-7
0,-8,-7,4,4,-8,-4,-3,-4,-7,-6,-7
0,-8,-7,4,4,-9,-4,-3,-4,-7,-7,-8
0,-7,-8,4,4,-9,-4,-3,-4,-8,-7,-8
0,-7,-8,4,4,-8,-4,-3,-4,-8,-7,-8
0,-7,-8,4,4,-8,-4,-3,-4,-8,-7,-8
0,-7,-7,4,3,-8,-4,-3,-4,-8,-7,-8
0,-7,-6,4,3,-7,-4,-3,-3,-8,-7,-8
-1,-7,-6,4,3,-7,-4,-3,-3,-8,-7,-8
-1,-7,-6,4,3,-7,-4,-3,-3,-8,-7,-8
0,-7,-6,4,3,-7,-3,-3,-3,-8,-7,-8
0,-6,-6,3,3,-7,-3,-3,-3,-8,-6,-7
0,-6,-6,3,3,-7,-3,-3,-3,-8,-6,-7
0,-6,-6,3,4,-7,-3,-3,-3,-8,-6,-8
0,-6,-7,3,4,-7,-3,-3,-3,-8,-6,-8
1,-5,-7,3,5,-7,-3,-3,-3,-8,-6,-8
1,-5,-7,2,5,-7,-3,-3,-3,-8,-6,-8
1,-6,-7,3,4,-7,-4,-3,-3,-8,-6,-8
0,-6,-6,3,4,-7,-4,-3,-3,-9,-7,-8
0,-6,-6,3,3,-6,-4,-2,-3,-9,-6,-7
0,-5,-5,2,3,-5,-3,-2,-3,-8,-6,-7
0,-5,-5,2,3,-5,-3,-2,-3,-8,-6,-7
0,-6,-5,3,3,-6,-3,-2,-3,-8,-6,-8
0,-5,-5,3,3,-5,-3,-2,-3,-8,-5,-8
0,-4,-4,2,3,-4,-2,-1,-2,-8,-5,-7
1,-3,-3,1,3,-4,-2,-1,-1,-7,-4,-6
1,-3,-3,1,2,-4,-3,-1,-1,-7,-4,-6
0,-3,-3,1,2,-4,-3,-1,-1,-7,-5,-6
0,-3,-3,1,2,-3,-3,-1,-1,-7,-5,-6
0,-3,-2,1,1,-3,-3,-1,-1,-7,-5,-6
0,-3,-2,1,1,-3,-3,-1,-1,-7,-5,-7
-1,-2,-1,1,1,-2,-3,-1,-1,-7,-5,-7
-1,-2,-1,1,1,-2,-2,-1,-1,-7,-4,-6
-1,-2,0,1,0,-2,-2,-1,-1,-7,-4,-6
-1,-2,0,1,0,-2,-2,-1,-1,-7,-4,-6
-1,-1,0,1,0,-1,-2,0,0,-6,-4,-6
-1,-1,0,2,0,-1,-2,0,0,-6,-4,-6
-1,-2,0,2,0,-1,-2,0,0,-6,-4,-6
-1,-1,0,1,0,-1,-1,0,0,-6,-4,-5
0,0,0,0,0,-1,0,1,0,-6,-4,-5
0,0,1,0,0,0,0,1,0,-6,-4,-5
-1,0,1,0,-1,0,0,0,0,-6,-4,-5
-1,0,2,0,-1,0,0,0,0,-6,-4,-5
-1,0,2,0,-1,0,0,0,0,-6,-4,-5
-1,0,2,1,-1,0,0,0,0,-6,-4,-5
-1,0,1,1,-1,0,-1,0,0,-6,-4,-5
-1,-1,0,1,0,0,-1,0,0,-5,-4,-5
0,-1,0,1,0,-1,-2,0,0,-5,-4,-4
0,-1,-1,0,1,-1,-3,0,0,-5,-3,-4
0,0,-1,0,2,-1,-4,0,0,-4,-3,-3
1,0,-2,0,2,-1,-4,0,0,-4,-3,-3
1,0,-2,0,2,-2,-4,0,0,-4,-3,-3
1,0,-1,0,2,-1,-4,0,0,-4,-3,-3
1,0,-1,0,1,-1,-3,1,1,-4,-2,-2
2,0,-1,-1,2,-1,-4,1,1,-4,-2,-2
2,0,-2,-1,2,-1,-4,0,1,-5,-2,-2
1,0,-2,0,2,-1,-4,0,0,-5,-2,-2
2,-1,-3,0,3,-2,-5,-1,-1,-6,-3,-2
2,-1,-4,0,3,-3,-5,-2,-2,-6,-3,-3
2,-1,-4,0,4,-3,-5,-2,-3,-6,-4,-3
2,-1,-4,0,4,-4,-5,-1,-3,-6,-4,-3
2,-2,-4,0,4,-4,-5,-1,-2,-6,-4,-3
2,-2,-5,0,4,-5,-5,-1,-2,-6,-4,-3
2,-3,-5,0,4,-5,-5,-1,-2,-6,-4,-3
2,-3,-6,0,4,-6,-5,-1,-2,-6,-4,-3
2,-4,-6,1,4,-6,-4,-1,-2,-6,-4,-3
1,-4,-6,1,4,-6,-4,-1,-2,-6,-4,-3
1,-4,-6,2,3,-6,-4,-1,-2,-6,-4,-3
0,-5,-6,2,3,-7,-4,-1,-2,-6,-4,-3
0,-6,-6,3,3,-7,-4,-1,-3,-6,-4,-3
0,-6,-6,3,3,-7,-4,-1,-3,-7,-4,-3
-1,-7,-5,4,2,-7,-4,-2,-4,-7,-5,-3
-2,-7,-5,5,2,-7,-4,-2,-5,-8,-5,-4
-3,-9,-5,6,1,-8,-4,-3,-6,-9,-6,-4
-5,-11,-6,8,1,-9,-4,-4,-7,-9,-6,-5
-6,-12,-6,9,0,-10,-4,-5,-8,-10,-7,-6
-6,-13,-6,10,0,-11,-4,-6,-8,-10,-8,-7
-6,-13,-6,10,0,-11,-4,-5,-9,-10,-8,-8
-5,-12,-6,10,0,-10,-3,-5,-9,-10,-8,-8
-6,-13,-6,10,0,-10,-3,-5,-9,-11,-8,-9
-7,-14,-6,11,0,-11,-3,-5,-9,-11,-8,-9
-9,-14,-6,12,-1,-11,-3,-5,-10,-11,-8,-9
-9,-14,-6,12,-1,-11,-3,-5,-10,-11,-9,-9
-9,-14,-6,12,-1,-10,-2,-5,-10,-11,-9,-9
-9,-14,-6,12,-1,-11,-2,-5,-10,-11,-9,-9
-9,-14,-6,12,-1,-11,-2,-6,-10,-11,-10,-10
-9,-15,-6,12,-1,-11,-2,-6,-10,-11,-10,-10
-9,-15,-6,13,-1,-11,-2,-6,-10,-11,-10,-10
-9,-16,-6,13,-1,-12,-2,-6,-11,-12,-10,-11
-9,-16,-7,13,-1,-12,-2,-6,-11,-12,-10,-11
-9,-15,-6,13,-1,-11,-2,-6,-11,-12,-10,-11
-9,-15,-6,12,-1,-11,-1,-6,-11,-11,-10,-11
-9,-15,-6,12,-1,-11,-1,-6,-11,-11,-10,-11
-9,-15,-5,12,-1,-11,-1,-5,-11,-11,-10,-10
-9,-14,-5,12,-1,-11,-1,-5,-10,-11,-9,-10
-9,-13,-4,12,-1,-10,-1,-4,-10,-10,-9,-9
-8,-12,-4,11,-1,-9,0,-4,-9,-10,-9,-9
-8,-11,-3,10,-1,-8,0,-4,-9,-10,-8,-9
-7,-10,-3,10,-1,-7,0,-4,-9,-9,-8,-9
-7,-10,-3,9,-1,-7,1,-4,-9,-9,-9,-9
-6,-10,-4,9,0,-7,1,-4,-9,-10,-9,-9
-6,-10,-4,9,0,-7,1,-4,-9,-10,-10,-10
-7,-10,-3,9,-1,-7,2,-3,-9,-10,-10,-10
-7,-11,-3,9,-1,-8,4,-2,-9,-11,-11,-12
-8,-12,-4,10,-1,-9,6,0,-8,-11,-12,-13
-8,-12,-5,10,-1,-9,8,4,-6,-11,-13,-14
-7,-12,-5,10,0,-9,9,7,-3,-9,-12,-14
-6,-11,-5,9,0,-8,10,10,1,-7,-11,-13
-5,-8,-4,7,0,-7,10,13,7,-3,-8,-10
-3,-5,-3,5,0,-5,11,17,14,2,-3,-6
-1,-2,-2,2,0,-2,12,24,25,11,3,-1
2,2,-1,-2,2,0,14,33,38,22,12,6
6,5,0,-5,3,1,15,42,51,34,22,15
8,8,0,-8,4,2,16,50,64,47,32,24
11,11,0,-11,6,4,16,56,75,61,44,33
15,15,0,-14,8,6,16,60,86,74,55,42
19,19,0,-18,10,8,13,63,95,88,67,52
23,23,0,-22,12,10,7,62,101,100,79,62
28,29,1,-28,14,14,-1,55,102,110,89,72
30,35,5,-33,13,19,-11,39,94,113,96,79
30,42,11,-36,10,26,-21,12,72,106,97,83
29,47,18,-38,5,32,-30,-25,33,86,89,81
26,50,24,-38,1,36,-37,-69,-19,54,74,74
22,49,27,-35,-2,37,-44,-110,-74,17,55,64
17,45,27,-31,-4,36,-49,-144,-120,-17,36,52
12,37,25,-24,-5,31,-52,-166,-155,-46,16,39
7,27,20,-16,-6,23,-52,-178,-178,-70,-3,23
1,14,13,-7,-6,13,-51,-181,-191,-89,-22,5
-4,3,7,1,-6,4,-49,-179,-196,-101,-37,-10
-8,-7,1,8,-5,-4,-49,-172,-194,-108,-48,-22
-10,-15,-5,13,-2,-11,-48,-160,-185,-109,-54,-29
-10,-21,-11,16,1,-17,-47,-146,-171,-105,-56,-33
-10,-24,-15,18,3,-20,-45,-131,-155,-99,-56,-35
-10,-25,-16,18,4,-21,-41,-115,-138,-91,-54,-35
-9,-25,-16,18,4,-21,-37,-99,-121,-82,-50,-35
-8,-24,-16,17,4,-21,-32,-83,-103,-72,-46,-32
-7,-23,-16,16,4,-21,-28,-67,-86,-62,-40,-29
-6,-21,-14,14,4,-19,-23,-53,-70,-51,-33,-24
-5,-18,-12,12,4,-16,-19,-41,-56,-43,-28,-20
-5,-16,-11,11,3,-14,-15,-33,-46,-36,-23,-17
-6,-15,-9,11,2,-12,-12,-28,-39,-32,-21,-15
-6,-14,-8,11,2,-11,-10,-23,-32,-28,-19,-14
-6,-13,-7,10,1,-10,-7,-18,-26,-24,-17,-13
-5,-12,-6,9,1,-9,-4,-13,-21,-21,-15,-12
-5,-12,-6,9,0,-9,-3,-10,-18,-19,-14,-12
-5,-12,-6,9,0,-10,-3,-8,-16,-17,-13,-12
-5,-12,-6,9,0,-10,-2,-7,-15,-15,-12,-11
-6,-11,-5,9,0,-9,-1,-6,-13,-14,-12,-10
-7,-11,-5,9,0,-9,0,-5,-12,-13,-11,-10
-8,-12,-4,10,-1,-8,1,-4,-11,-13,-11,-9
-8,-12,-4,11,-1,-9,2,-2,-10,-12,-11,-9
-7,-12,-4,11,0,-9,2,-1,-9,-12,-11,-10
-6,-12,-5,10,0,-10,2,-1,-8,-11,-10,-10
-5,-12,-6,9,1,-10,2,0,-8,-10,-10,-10
-5,-12,-6,9,1,-9,3,0,-7,-9,-10,-10
-5,-12,-6,8,1,-9,3,0,-7,-9,-10,-10
-5,-11,-6,8,1,-9,3,0,-6,-8,-10,-10
-4,-11,-6,8,1,-9,3,1,-6,-8,-9,-10
-4,-10,-6,8,1,-9,4,2,-5,-7,-9,-9
-4,-10,-6,7,1,-9,4,3,-4,-7,-8,-9
-3,-10,-6,7,2,-9,4,3,-3,-6,-8,-9
-3,-10,-7,7,2,-9,4,3,-3,-6,-8,-9
-3,-10,-7,7,2,-9,4,3,-3,-5,-8,-9
-2,-10,-7,6,2,-9,4,3,-3,-4,-7,-9
-2,-9,-6,6,2,-9,4,3,-2,-4,-7,-9
-3,-9,-6,6,2,-8,5,4,-2,-3,-7,-9
-2,-8,-6,5,2,-8,5,4,-2,-3,-7,-9
-1,-8,-7,5,3,-8,5,4,-2,-3,-7,-9
-1,-8,-6,5,3,-8,5,5,-1,-2,-6,-8
-1,-7,-5,5,2,-7,6,6,0,-2,-6,-8
-1,-7,-4,5,1,-6,6,6,0,-1,-5,-7
-2,-6,-3,5,1,-6,6,6,0,-1,-5,-7
-3,-6,-3,5,0,-6,6,6,0,-1,-5,-7
-3,-7,-3,6,0,-6,6,6,0,-2,-5,-7
-3,-6,-3,5,1,-6,6,6,0,-2,-5,-7
-3,-6,-3,5,1,-5,7,7,1,-2,-4,-7
-2,-6,-3,4,1,-5,7,7,1,-2,-4,-7
-3,-6,-3,5,0,-5,7,7,1,-2,-4,-7
-4,-7,-3,6,0,-6,7,7,1,-2,-4,-7
-4,-8,-3,6,0,-6,7,7,1,-2,-4,-7
-4,-8,-3,6,0,-6,7,7,1,-2,-4,-7
-4,-8,-3,6,0,-6,6,7,1,-2,-4,-7
-5,-8,-3,7,0,-7,6,7,1,-3,-5,-7
-5,-9,-3,7,0,-7,5,7,1,-3,-5,-8
-6,-9,-3,8,0,-7,5,7,0,-4,-5,-8
-6,-10,-3,8,0,-7,5,7,0,-4,-5,-9
-6,-10,-3,9,-1,-7,5,7,0,-4,-5,-9
-6,-9,-2,9,-1,-7,5,7,1,-4,-5,-9
-6,-9,-2,8,-1,-7,5,7,1,-3,-5,-8
-5,-8,-3,7,0,-7,5,7,1,-3,-4,-8
-4,-8,-3,6,0,-7,6,7,1,-3,-4,-8
-3,-7,-3,5,0,-6,6,7,2,-2,-3,-8
-2,-6,-3,5,1,-6,6,8,2,-2,-3,-8
-2,-6,-3,4,1,-6,6,8,2,-2,-2,-8
-2,-6,-3,4,1,-6,6,9,2,-1,-2,-8
-1,-5,-4,4,1,-6,6,9,3,-1,-2,-7
0,-5,-4,3,2,-6,6,9,3,0,-2,-7
0,-4,-5,2,3,-6,6,9,3,0,-2,-7
1,-4,-5,2,3,-6,6,9,3,0,-2,-6
1,-4,-5,1,4,-6,5,9,3,0,-1,-6
2,-3,-5,1,4,-5,5,9,3,0,-1,-6
3,-2,-5,0,4,-5,5,10,4,1,-1,-6
3,-2,-5,0,4,-4,6,10,4,1,0,-6
4,-1,-5,0,4,-4,6,11,5,1,0,-6
5,-1,-6,-1,5,-4,6,11,5,2,0,-6
6,0,-6,-2,6,-4,6,11,6,2,0,-6
6,0,-6,-3,7,-3,6,12,6,3,0,-6
7,1,-6,-3,7,-3,6,12,6,3,0,-6
7,1,-6,-3,7,-3,6,12,6,3,0,-6
7,1,-6,-3,7,-3,7,13,6,3,0,-6
7,1,-5,-3,7,-3,7,13,6,4,0,-5
6,1,-5,-3,7,-3,7,13,7,4,0,-5
6,1,-5,-3,7,-3,7,13,7,5,1,-5
7,2,-4,-4,6,-2,7,14,8,5,1,-5
7,2,-4,-4,6,-2,7,14,9,5,2,-5
6,2,-4,-4,5,-2,6,14,9,5,2,-5
6,2,-4,-3,5,-1,6,14,9,6,2,-5
6,2,-3,-3,5,-1,6,15,9,6,2,-4
6,2,-3,-3,5,-1,6,15,9,7,2,-4
6,2,-3,-3,5,-1,6,16,10,8,2,-4
4,2,-2,-2,3,-1,6,16,10,8,2,-4
3,1,-1,-1,2,-1,6,16,11,8,2,-4
3,0,-2,-1,2,-2,5,16,11,8,2,-4
3,0,-2,-1,2,-2,5,15,11,8,2,-5
3,0,-2,-1,2,-2,5,15,11,9,2,-4
3,0,-2,-1,2,-1,5,16,11,9,3,-4
4,2,-2,-2,3,-1,5,16,11,10,3,-3
6,3,-3,-3,4,0,5,17,12,10,3,-3
7,4,-3,-4,5,0,5,17,12,11,3,-3
7,4,-2,-5,5,0,5,18,12,11,4,-3
8,5,-2,-6,6,0,5,18,13,12,4,-2
8,6,-2,-6,6,1,5,19,14,12,5,-2
8,7,-1,-6,5,2,5,19,15,13,5,-1
8,7,0,-6,5,2,5,19,15,13,6,-1
8,7,0,-7,5,3,5,20,15,13,6,0
8,8,0,-7,4,3,5,20,16,14,7,0
9,9,0,-8,5,3,5,20,16,14,7,0
10,10,0,-9,5,3,5,20,16,15,8,1
11,11,0,-10,6,4,5,21,17,15,8,1
12,12,1,-11,6,5,5,21,17,16,9,2
13,13,1,-12,6,5,5,22,18,16,10,3
14,14,1,-13,7,6,5,22,18,16,10,4
15,15,0,-14,8,6,4,22,18,16,10,4
16,16,0,-15,8,6,4,22,18,16,10,4
17,16,-1,-16,9,6,3,21,18,16,10,5
19,17,-1,-17,10,7,3,21,18,16,10,5
20,18,0,-18,10,8,3,21,18,17,11,6
21,19,0,-19,11,9,2,21,18,17,11,6
21,20,0,-20,11,9,2,21,18,17,12,7
22,21,0,-21,11,10,1,22,18,18,12,7
23,22,0,-22,11,10,1,22,18,18,13,8
23,23,1,-23,11,11,1,22,18,18,13,9
24,24,1,-24,12,11,1,22,18,18,14,9
25,25,1,-24,12,11,1,22,18,19,14,9
26,25,1,-25,12,12,1,22,17,19,15,9
26,26,2,-25,12,12,1,21,17,19,15,9
25,26,2,-25,12,13,1,21,16,19,15,10
25,26,2,-24,11,13,0,20,16,19,15,10
24,26,3,-24,11,13,0,20,15,19,15,11
24,26,3,-24,11,13,-1,19,15,19,15,11
24,26,3,-24,11,13,-1,19,14,19,15,12
24,26,3,-25,11,13,-2,18,14,18,16,12
24,26,3,-25,11,13,-2,18,13,18,16,12
25,26,3,-25,11,13,-2,17,12,17,16,12
25,27,3,-25,11,14,-3,16,11,17,16,12
25,27,4,-25,10,14,-3,15,11,17,16,12
24,27,4,-25,10,15,-3,15,10,17,16,13
24,27,3,-25,10,14,-4,14,9,16,16,13
24,27,3,-25,10,14,-5,13,8,16,15,13
24,27,3,-25,10,13,-5,12,7,15,15,13
24,26,3,-24,10,13,-6,11,5,14,15,12
23,25,3,-23,10,13,-6,10,4,13,14,11
22,24,3,-22,9,13,-6,9,3,12,14,10
21,23,3,-21,9,12,-6,8,2,11,13,10
21,23,2,-21,10,12,-7,7,1,10,12,9
22,23,2,-22,10,12,-7,6,0,10,11,9
22,23,2,-22,10,12,-7,6,0,9,11,9
21,23,3,-21,9,12,-7,5,-1,9,11,9
20,22,3,-21,8,11,-7,5,-1,8,11,9
19,22,3,-20,8,11,-7,4,-2,8,11,9
19,21,3,-20,8,11,-7,4,-2,8,11,9
19,21,3,-19,8,10,-7,4,-3,8,11,9
18,20,2,-19,8,10,-7,4,-3,8,10,9
18,19,2,-18,9,9,-7,3,-3,8,10,8
18,18,1,-18,9,9,-7,3,-3,8,10,8
17,17,1,-17,8,8,-7,3,-3,8,9,7
16,16,1,-16,8,8,-7,3,-3,7,9,7
16,16,1,-15,8,7,-7,3,-3,7,9,6
15,15,0,-14,8,7,-7,3,-3,7,8,6
15,15,0,-14,8,7,-6,3,-2,7,8,6
15,14,0,-14,8,6,-6,3,-2,7,8,5
15,13,0,-13,8,5,-6,3,-2,7,7,5
14,12,-1,-13,8,4,-5,3,-1,7,7,4
14,12,-1,-13,8,4,-5,3,-1,7,7,4
14,11,-1,-12,8,3,-5,4,-1,7,7,3
13,10,-2,-11,8,2,-5,4,-1,7,6,3
12,9,-2,-10,8,2,-5,4,-1,8,6,2
12,8,-3,-9,8,1,-5,4,0,8,5,2
11,6,-4,-8,8,0,-5,4,0,8,5,1
11,5,-5,-7,8,0,-4,4,0,8,5,1
10,4,-5,-6,7,-1,-4,4,0,8,5,0
9,4,-5,-5,6,-1,-3,4,0,8,4,0
8,3,-5,-5,6,-1,-3,3,0,8,4,0
8,3,-5,-5,6,-1,-2,3,0,8,4,-1
8,4,-5,-5,6,-1,-1,3,1,8,4,-1
8,3,-4,-4,6,-1,0,4,1,8,4,-1
7,2,-4,-4,6,-2,0,4,1,8,3,-2
8,2,-5,-4,6,-2,0,4,1,8,3,-2
8,2,-5,-4,7,-2,0,4,1,8,3,-2
8,2,-5,-5,7,-2,0,4,1,8,3,-2
8,2,-5,-5,7,-2,0,4,1,8,3,-2
8,3,-5,-5,7,-2,1,4,1,8,3,-2
8,3,-4,-5,6,-2,1,4,1,8,3,-2
8,3,-4,-5,6,-2,2,4,1,8,3,-2
8,3,-4,-5,6,-1,2,4,1,8,3,-2
8,3,-4,-5,6,-1,2,4,1,8,3,-2
8,3,-4,-6,6,-1,2,4,1,8,2,-2
9,3,-5,-6,7,-1,2,3,1,8,2,-2
9,3,-5,-6,7,-2,3,3,1,8,2,-3
9,3,-5,-6,7,-2,3,3,1,8,2,-3
8,3,-4,-6,6,-2,3,3,1,8,2,-3
9,4,-4,-6,7,-2,3,3,1,7,1,-4
9,4,-5,-6,7,-2,3,2,0,7,1,-4
9,3,-5,-6,7,-2,3,2,0,6,1,-4
8,3,-4,-5,6,-2,3,2,0,6,1,-3
7,3,-4,-5,6,-2,3,2,0,6,1,-3
8,3,-4,-5,6,-2,3,2,0,6,1,-3
8,3,-4,-6,6,-2,3,2,0,6,0,-3
8,3,-4,-6,6,-2,3,2,0,6,0,-3
8,3,-4,-5,6,-2,4,2,0,6,0,-3
8,3,-4,-5,6,-2,4,2,0,6,0,-3
8,3,-4,-6,6,-2,4,2,0,6,0,-3
8,2,-5,-5,6,-2,4,2,-1,6,-1,-3
7,1,-5,-4,6,-3,3,2,-1,6,-1,-3
8,2,-5,-5,6,-3,3,2,-1,6,-1,-3
9,2,-6,-6,7,-3,4,2,-1,6,-1,-3
9,2,-6,-5,7,-3,4,1,-1,6,-1,-3
8,2,-6,-5,7,-3,4,1,-1,6,-2,-4
8,2,-5,-5,7,-3,4,1,0,6,-2,-4
9,3,-5,-6,7,-2,4,2,0,6,-2,-3
10,4,-6,-7,7,-2,4,2,0,6,-2,-3
10,4,-6,-7,7,-2,4,2,0,5,-2,-3
9,4,-5,-7,7,-2,4,2,0,5,-2,-3
9,4,-4,-7,6,-1,4,2,0,5,-2,-3
9,5,-3,-7,6,0,3,2,0,4,-2,-3
10,4,-4,-7,6,-1,3,2,0,4,-2,-3
9,3,-5,-6,7,-2,3,3,0,4,-2,-2
8,2,-5,-5,6,-2,3,3,0,4,-2,-2
7,1,-5,-4,6,-3,2,2,0,4,-3,-3
6,0,-5,-3,5,-3,2,2,0,4,-3,-4
5,0,-5,-2,5,-3,3,2,0,4,-3,-4
5,0,-4,-2,5,-3,3,2,0,4,-3,-4
4,0,-4,-1,5,-3,3,2,0,4,-3,-4
4,-1,-4,-1,4,-3,2,2,0,4,-3,-4
3,-1,-4,0,4,-3,2,2,0,4,-3,-4
3,-2,-4,0,3,-3,2,2,0,4,-3,-4
3,-2,-4,0,3,-3,1,2,0,4,-3,-4
2,-2,-4,0,2,-3,1,2,1,4,-3,-4
2,-2,-3,0,2,-3,1,2,1,4,-3,-4
1,-2,-3,0,1,-3,1,2,1,4,-3,-4
1,-2,-2,0,1,-3,1,3,1,4,-2,-3
1,-2,-2,0,1,-3,1,3,1,4,-2,-3
0,-2,-2,1,1,-3,1,3,2,4,-2,-3
0,-3,-2,1,1,-3,1,3,2,4,-2,-3
0,-3,-2,1,1,-3,1,3,3,4,-2,-3
0,-4,-2,1,1,-3,1,3,3,4,-2,-3
-1,-4,-2,2,0,-3,1,3,3,4,-2,-3
-1,-4,-2,2,0,-3,1,3,3,4,-2,-4
-1,-4,-2,2,1,-4,0,3,3,4,-2,-4
-1,-4,-3,2,1,-4,0,3,3,4,-3,-4
-1,-4,-3,2,1,-4,0,3,4,4,-3,-4
-1,-4,-3,2,1,-3,0,3,4,4,-3,-4
0,-3,-2,1,1,-2,0,3,5,4,-3,-3
0,-2,-2,0,1,-2,1,4,5,4,-3,-3
1,-1,-2,0,1,-2,1,4,6,4,-3,-3
2,-1,-3,0,2,-2,1,4,6,4,-3,-3
3,0,-3,-1,2,-2,1,4,6,5,-3,-2
4,0,-3,-1,3,-2,1,4,6,5,-3,-2
4,0,-4,-2,4,-2,0,4,6,5,-2,-2
4,0,-4,-2,4,-2,0,4,7,5,-2,-2
4,0,-4,-2,4,-2,0,4,7,5,-2,-2
4,0,-4,-2,4,-2,0,4,7,5,-2,-2
5,1,-4,-3,5,-2,0,5,7,5,-2,-2
6,1,-4,-3,5,-2,0,5,7,6,-2,-1
7,2,-4,-4,5,-1,1,5,7,6,-1,-1
7,2,-4,-4,5,-1,1,5,8,7,-1,0
7,3,-4,-5,5,-1,1,5,8,7,-1,0
7,3,-4,-5,5,-1,1,5,8,7,-1,0
8,3,-4,-5,5,0,1,5,9,7,-1,0
8,3,-4,-6,5,0,1,6,9,7,-1,0
8,4,-4,-6,5,0,1,6,9,7,-1,0
8,4,-4,-7,5,0,1,6,9,7,-1,0
8,4,-4,-7,6,0,1,6,9,7,-1,0
9,4,-4,-7,6,0,1,6,9,7,-1,0
9,4,-4,-7,7,0,1,7,9,7,-1,0
9,4,-4,-6,7,0,1,7,9,7,-1,0
9,4,-4,-6,7,0,1,7,8,7,-1,0
9,4,-4,-7,7,0,1,7,8,7,0,0
9,4,-4,-7,6,0,2,7,8,7,0,0
9,4,-4,-7,6,0,2,7,8,7,0,1
9,5,-4,-7,6,0,2,6,8,7,0,1
10,5,-4,-8,7,0,2,6,8,7,0,1
10,5,-4,-7,7,0,1,6,8,7,0,0
9,4,-4,-7,7,0,1,6,8,7,0,0
9,4,-4,-6,7,0,1,6,8,7,0,0
8,3,-4,-6,7,0,1,6,8,7,-1,0
8,3,-5,-6,7,-1,1,5,7,6,-1,-1
8,2,-5,-6,6,-1,1,5,7,6,-2,-1
7,1,-5,-5,6,-2,0,4,6,5,-2,-1
6,1,-5,-4,5,-2,0,4,6,5,-2,-1
6,1,-5,-3,5,-2,0,4,6,5,-2,-2
6,0,-5,-3,5,-3,0,4,5,5,-3,-2
5,0,-5,-3,5,-3,-1,4,5,5,-3,-2
4,0,-4,-2,5,-3,-1,4,5,5,-3,-2
3,-1,-4,-2,4,-3,-1,4,5,4,-3,-3
3,-2,-5,-1,4,-4,-1,4,4,4,-4,-3
3,-2,-5,-1,4,-4,-1,3,4,3,-4,-3
3,-2,-5,-1,4,-4,-1,4,4,3,-4,-3
2,-2,-5,0,4,-3,-1,4,4,4,-4,-3
2,-2,-4,0,3,-3,0,4,4,4,-4,-3
2,-3,-5,0,4,-4,0,3,3,3,-4,-3
3,-3,-6,0,5,-4,0,3,3,3,-5,-4
4,-3,-6,-1,5,-5,0,2,2,2,-5,-4
4,-3,-7,-1,5,-5,-1,2,2,2,-5,-4
4,-3,-7,0,5,-6,-1,1,2,1,-5,-5
4,-4,-7,0,5,-6,-2,1,2,1,-6,-5
3,-5,-7,0,5,-6,-2,1,1,1,-6,-5
3,-5,-7,0,5,-6,-2,1,1,1,-6,-5
2,-6,-7,1,5,-7,-3,1,0,0,-7,-6
2,-6,-7,1,5,-7,-3,1,0,0,-7,-6
2,-6,-7,1,5,-6,-3,1,0,0,-7,-6
2,-5,-7,1,5,-6,-2,1,0,0,-7,-6
2,-5,-7,0,5,-5,-2,1,0,0,-6,-6
2,-4,-6,0,5,-5,-2,1,0,0,-6,-6
2,-4,-6,0,5,-5,-2,1,0,0,-6,-5
3,-3,-6,-1,5,-5,-2,1,0,0,-6,-5
4,-2,-6,-2,5,-5,-1,2,0,0,-6,-4
5,-1,-6,-2,5,-4,-1,2,0,0,-5,-4
5,-1,-6,-2,5,-4,0,2,0,0,-5,-3
5,-2,-6,-2,5,-4,0,2,0,-1,-5,-3
5,-2,-6,-2,5,-4,0,2,0,-1,-5,-4
5,-1,-7,-2,6,-4,-1,2,0,-1,-5,-4
5,-2,-7,-2,6,-5,-1,1,0,-1,-6,-5
4,-3,-7,-1,6,-5,-1,1,0,-2,-6,-6
5,-2,-7,-2,6,-5,0,1,0,-2,-6,-6
6,0,-7,-3,7,-4,0,2,0,-2,-6,-5
7,1,-7,-4,7,-3,0,2,0,-2,-6,-5
8,2,-7,-5,8,-3,0,2,1,-2,-6,-5
9,3,-6,-7,8,-2,1,3,1,-1,-6,-4
10,4,-6,-7,8,-1,1,3,2,-1,-5,-4
10,4,-6,-8,8,-1,1,4,2,-1,-5,-3
11,4,-6,-8,9,-1,1,4,2,-1,-5,-3
12,5,-6,-9,9,-1,1,4,2,-1,-4,-3
13,5,-6,-10,9,-1,1,4,2,-1,-4,-3
13,5,-6,-9,9,-1,1,3,2,-1,-4,-3
12,5,-6,-9,9,-1,1,3,2,-1,-4,-3
12,5,-6,-8,9,-1,1,3,2,-1,-4,-3
11,4,-6,-8,9,-1,1,3,2,-1,-4,-3
11,4,-6,-8,9,-1,1,3,2,-1,-4,-3
11,4,-6,-8,9,-1,1,3,2,-1,-4,-3
11,4,-6,-8,8,-1,1,3,2,-1,-4,-3
11,4,-6,-8,8,-1,1,3,2,-1,-4,-3
11,4,-7,-8,9,-1,1,3,2,-1,-4,-3
12,4,-7,-8,9,-2,1,3,2,-1,-4,-3
11,4,-7,-8,9,-2,1,3,2,-1,-4,-3
11,4,-6,-8,9,-1,1,3,2,-1,-4,-3
11,4,-6,-8,9,-1,1,3,2,-1,-4,-3
11,4,-6,-8,8,-1,1,3,2,-1,-4,-3
10,3,-6,-7,8,-1,1,3,2,-1,-4,-3
9,3,-6,-7,7,-1,1,3,2,-1,-4,-3
9,2,-7,-6,7,-2,1,3,2,-2,-5,-4
9,2,-7,-6,7,-2,1,3,2,-2,-5,-4
8,2,-6,-5,7,-2,1,3,2,-2,-5,-4
7,1,-6,-5,7,-2,1,3,2,-2,-6,-4
7,1,-7,-5,7,-3,1,3,2,-2,-6,-4
7,0,-7,-5,7,-3,1,3,2,-2,-6,-4
7,0,-7,-5,7,-3,1,3,2,-2,-6,-4
8,0,-8,-5,8,-3,0,2,1,-3,-7,-5
8,0,-8,-5,8,-3,0,2,1,-3,-7,-5
8,0,-8,-4,8,-3,1,2,1,-3,-7,-5
7,0,-7,-4,7,-3,1,2,1,-3,-7,-5
7,0,-7,-4,7,-3,1,2,1,-3,-7,-5
7,0,-7,-4,6,-3,0,2,1,-3,-7,-5
6,0,-6,-3,6,-3,0,2,1,-3,-7,-5
6,0,-6,-3,5,-3,0,2,1,-3,-7,-4
6,0,-6,-3,5,-2,0,2,1,-4,-6,-4
6,1,-5,-3,5,-2,0,2,1,-4,-6,-4
5,1,-5,-3,5,-1,0,2,2,-3,-6,-4
5,1,-5,-3,5,-1,0,2,2,-3,-6,-4
5,1,-4,-3,4,-1,0,2,2,-3,-6,-4
5,1,-4,-3,5,-1,0,2,2,-2,-6,-4
6,1,-5,-4,5,-1,0,2,3,-2,-6,-4
7,1,-5,-4,6,-1,0,2,3,-2,-6,-4
6,1,-4,-3,5,-1,0,2,3,-2,-6,-4
5,1,-3,-3,4,-1,0,2,3,-2,-6,-5
4,1,-3,-2,3,-1,1,2,3,-2,-6,-5
4,2,-2,-3,3,0,2,3,4,-2,-6,-4
5,3,-2,-4,4,0,2,3,4,-2,-6,-4
5,3,-2,-4,4,0,2,3,4,-2,-6,-5
5,3,-2,-4,3,0,2,2,4,-2,-6,-5
5,3,-1,-4,3,1,2,2,4,-2,-6,-4
5,3,-1,-4,3,1,2,2,4,-1,-6,-4
7,3,-3,-5,5,1,1,2,3,-1,-6,-3
8,3,-4,-6,6,0,0,2,3,-1,-6,-3
8,3,-5,-6,7,-1,0,2,4,-1,-5,-3
9,3,-6,-6,7,-1,0,3,4,-1,-5,-2
10,3,-7,-7,8,-2,-1,3,4,-1,-5,-2
10,3,-7,-7,8,-2,-2,3,4,-1,-5,-2
10,3,-6,-7,7,-1,-2,3,4,-1,-5,-1
10,4,-6,-7,7,0,-1,3,4,0,-4,-1
10,5,-5,-8,7,0,-1,4,5,0,-4,0
11,6,-5,-9,7,1,-1,4,5,0,-3,0
10,6,-5,-9,8,1,-1,3,4,0,-3,0
11,5,-6,-9,8,1,-1,3,4,0,-4,0
12,6,-7,-10,10,0,-1,2,3,0,-4,0
14,6,-7,-11,11,0,-1,2,3,-1,-4,0
15,6,-8,-11,11,0,-1,2,3,-1,-4,0
15,6,-8,-10,11,-1,-1,2,3,-1,-4,0
15,6,-9,-10,11,-1,-1,2,3,-1,-4,0
16,6,-9,-11,12,-1,0,2,3,-1,-4,0
16,6,-10,-11,13,-1,0,3,3,-1,-4,0
15,5,-10,-10,12,-1,0,3,3,-1,-4,1
13,5,-9,-10,11,-1,0,4,3,-1,-3,1
13,4,-9,-10,11,-1,0,4,3,-1,-3,1
14,4,-9,-10,12,-2,0,4,3,-1,-3,1
14,4,-10,-10,12,-2,0,4,3,-1,-3,1
15,5,-10,-10,12,-2,0,4,2,-1,-4,1
15,5,-10,-10,12,-2,0,3,2,-1,-4,1
14,4,-10,-9,12,-3,0,2,1,-2,-5,0
13,2,-10,-7,12,-3,0,1,0,-3,-6,0
12,1,-10,-6,11,-4,0,1,-1,-4,-6,-1
11,1,-10,-6,11,-4,1,1,-1,-4,-6,-1
11,1,-10,-6,11,-4,1,1,-1,-4,-6,-1
10,0,-10,-5,10,-4,1,1,-2,-4,-7,-2
9,-1,-10,-4,10,-5,1,1,-2,-5,-7,-2
8,-2,-10,-3,9,-6,1,1,-2,-5,-7,-2
7,-3,-9,-1,8,-6,1,0,-2,-5,-7,-3
5,-4,-9,0,7,-6,1,0,-3,-5,-8,-4
5,-4,-9,0,7,-6,1,0,-3,-6,-8,-5
4,-5,-10,0,7,-7,1,-1,-3,-6,-9,-6
4,-6,-10,0,7,-8,1,-1,-4,-6,-9,-6
4,-6,-10,1,7,-8,1,-1,-4,-6,-10,-7
3,-7,-10,2,7,-8,1,-2,-4,-7,-10,-7
2,-8,-10,3,6,-8,1,-2,-5,-7,-11,-7
2,-8,-10,3,6,-8,1,-2,-5,-7,-11,-7
1,-9,-10,4,6,-9,1,-2,-5,-8,-11,-7
1,-9,-10,4,6,-9,1,-2,-5,-8,-11,-7
1,-8,-10,4,5,-9,1,-2,-5,-8,-11,-7
1,-8,-9,4,5,-9,1,-2,-5,-8,-11,-7
0,-9,-9,4,5,-9,1,-2,-5,-8,-11,-7
1,-9,-10,4,5,-9,1,-2,-5,-8,-11,-7
1,-10,-11,4,6,-10,1,-2,-5,-8,-10,-7
0,-10,-11,5,6,-10,0,-2,-5,-8,-10,-7
0,-10,-11,5,6,-10,0,-2,-5,-8,-10,-7
0,-10,-10,5,6,-10,0,-2,-5,-8,-10,-7
0,-11,-10,5,5,-10,0,-2,-6,-8,-11,-7
0,-11,-10,5,5,-10,1,-2,-6,-9,-11,-8
0,-10,-10,5,5,-9,2,-2,-6,-9,-11,-8
0,-9,-9,5,5,-9,3,-2,-6,-10,-12,-9
-1,-9,-9,5,5,-9,4,-2,-6,-10,-13,-10
-1,-10,-9,5,5,-9,6,0,-5,-11,-15,-11
-1,-10,-10,5,5,-10,8,3,-4,-11,-16,-12
-1,-12,-10,6,5,-11,9,7,-1,-11,-16,-13
-1,-13,-11,7,5,-12,10,10,2,-9,-16,-13
0,-12,-11,6,5,-12,10,12,6,-7,-14,-12
0,-10,-11,5,5,-11,9,14,11,-3,-11,-9
1,-8,-10,3,5,-9,10,19,19,3,-6,-5
3,-5,-8,0,6,-6,11,27,32,12,1,1
6,-2,-8,-2,7,-4,12,37,45,24,11,9
9,1,-8,-6,9,-3,13,45,58,37,21,18
13,4,-8,-10,11,-1,14,53,71,51,32,27
17,9,-8,-14,12,0,15,58,82,64,44,37
22,13,-8,-18,14,3,15,62,92,78,56,47
27,18,-8,-22,17,5,11,64,101,91,68,57
31,23,-7,-27,19,8,5,61,105,103,79,67
34,29,-5,-32,19,13,-4,49,103,111,89,76
36,37,1,-37,18,19,-14,28,91,111,94,83
35,44,8,-40,14,26,-23,-3,62,99,92,85
33,48,15,-41,10,32,-32,-44,16,72,81,80
29,49,20,-39,5,34,-40,-88,-39,37,63,72
26,47,22,-37,2,35,-45,-127,-91,1,44,61
22,43,22,-33,0,33,-49,-155,-133,-31,25,48
16,35,19,-26,-1,27,-51,-172,-162,-58,5,34
10,23,13,-16,-1,18,-50,-180,-180,-79,-14,17
4,10,6,-7,-1,8,-48,-181,-190,-96,-32,0
0,-1,0,0,0,0,-47,-176,-191,-106,-46,-14
-3,-10,-6,6,1,-8,-46,-167,-185,-110,-55,-24
-4,-17,-12,10,4,-14,-46,-154,-173,-108,-59,-30
-4,-20,-16,12,6,-18,-44,-138,-158,-103,-59,-32
-4,-22,-18,12,7,-20,-42,-122,-142,-97,-57,-32
-4,-22,-18,13,7,-20,-38,-106,-125,-89,-55,-32
-4,-22,-18,13,7,-20,-33,-90,-108,-79,-51,-30
-2,-21,-18,11,8,-19,-28,-74,-91,-69,-46,-28
0,-19,-18,9,9,-19,-23,-59,-74,-59,-40,-25
1,-17,-17,8,9,-17,-18,-47,-59,-50,-34,-21
1,-15,-15,6,9,-15,-15,-36,-47,-42,-29,-17
2,-12,-14,5,8,-13,-12,-29,-38,-36,-26,-14
2,-11,-13,4,8,-12,-9,-23,-31,-32,-23,-12
2,-10,-12,3,7,-11,-6,-18,-26,-28,-21,-11
1,-10,-11,4,6,-10,-4,-13,-21,-25,-20,-10
1,-9,-10,4,6,-10,-2,-10,-16,-22,-18,-9
1,-9,-10,4,5,-9,-1,-7,-13,-20,-17,-9
1,-9,-10,4,5,-9,0,-5,-11,-18,-16,-8
1,-9,-9,4,5,-9,0,-4,-9,-17,-15,-8
1,-8,-9,4,5,-9,1,-2,-8,-16,-14,-8
1,-8,-9,4,5,-9,2,-1,-7,-15,-14,-8
2,-9,-10,4,6,-10,2,-1,-6,-15,-14,-8
2,-9,-11,4,7,-10,3,0,-6,-15,-14,-8
2,-9,-12,4,7,-10,3,1,-5,-14,-14,-8
2,-9,-12,3,7,-10,4,1,-4,-13,-14,-7
2,-9,-11,3,7,-9,4,2,-3,-12,-13,-7
2,-9,-11,3,7,-9,4,2,-2,-12,-13,-7
2,-9,-11,3,7,-9,4,3,-1,-12,-12,-7
2,-8,-11,3,7,-9,5,3,-1,-11,-12,-6
3,-7,-11,2,7,-9,6,4,0,-11,-11,-6
4,-7,-11,1,7,-9,7,5,0,-10,-11,-6
4,-6,-11,1,7,-9,7,6,0,-10,-11,-6
4,-6,-11,1,7,-9,7,6,0,-9,-11,-6
5,-6,-11,1,8,-9,6,6,0,-9,-11,-7
5,-6,-12,0,8,-9,6,5,1,-8,-11,-7
5,-6,-11,1,8,-9,6,5,1,-8,-11,-8
4,-7,-11,1,8,-9,6,5,1,-8,-11,-8
3,-7,-11,2,7,-10,6,5,1,-8,-11,-8
3,-7,-11,2,7,-10,6,6,1,-8,-11,-8
3,-7,-12,2,7,-9,6,6,1,-8,-10,-8
3,-7,-12,2,7,-9,6,6,1,-7,-10,-8
3,-7,-12,2,7,-9,6,6,1,-7,-9,-8
3,-8,-12,2,8,-9,6,6,1,-7,-9,-8
3,-8,-12,3,8,-9,6,6,1,-7,-9,-8
2,-9,-11,3,7,-9,6,6,2,-7,-8,-7
2,-9,-11,3,7,-9,6,6,2,-7,-8,-7
1,-9,-11,4,7,-10,6,6,2,-8,-8,-8
0,-10,-11,5,6,-10,5,6,1,-8,-9,-8
0,-11,-11,6,6,-11,5,6,1,-9,-9,-9
-1,-12,-11,7,5,-12,4,6,1,-9,-9,-9
-2,-13,-11,8,4,-12,4,6,1,-10,-9,-10
-3,-14,-11,9,3,-12,4,6,1,-10,-9,-10
-4,-14,-10,10,3,-12,4,6,1,-10,-9,-10
-4,-14,-10,10,3,-12,3,6,1,-10,-9,-10
-5,-14,-10,10,2,-12,3,6,1,-11,-9,-10
-5,-14,-9,10,2,-12,3,6,1,-11,-9,-10
-5,-14,-9,10,2,-12,3,6,1,-11,-9,-10
-5,-14,-9,10,2,-12,3,6,1,-11,-9,-11
-6,-14,-8,10,1,-11,3,6,2,-11,-8,-11
-7,-14,-7,11,0,-11,4,7,2,-11,-8,-11
-7,-14,-7,11,0,-11,4,7,2,-11,-8,-11
-6,-14,-7,10,0,-10,5,7,3,-11,-7,-10
-4,-12,-7,8,1,-9,5,8,3,-10,-7,-9
-3,-12,-7,7,2,-9,6,8,4,-10,-7,-9
-3,-11,-7,7,2,-9,6,8,4,-10,-6,-8
-3,-11,-7,7,2,-9,6,9,5,-9,-6,-8
-3,-10,-7,6,2,-9,6,9,5,-9,-6,-8
-2,-9,-7,5,3,-8,6,9,5,-9,-6,-8
0,-8,-7,4,3,-8,6,10,6,-8,-5,-8
1,-6,-7,2,4,-7,6,11,6,-8,-5,-7
2,-5,-7,1,4,-6,7,11,7,-7,-4,-7
3,-4,-7,0,5,-6,7,12,7,-6,-4,-6
3,-3,-7,0,5,-5,7,12,8,-6,-3,-6
4,-2,-7,-1,6,-5,7,13,8,-5,-3,-5
5,-1,-7,-2,6,-5,7,13,9,-5,-2,-4
6,0,-7,-2,6,-4,8,14,10,-4,-2,-4
6,0,-7,-3,7,-4,8,14,10,-4,-1,-3
8,1,-7,-4,7,-3,8,15,10,-3,-1,-3
9,2,-7,-5,8,-3,8,15,11,-2,-1,-3
10,2,-7,-6,8,-3,8,16,11,-2,-1,-3
9,2,-7,-5,8,-3,8,16,12,-1,-1,-3
9,3,-7,-6,8,-2,9,16,12,-1,-1,-3
10,4,-7,-7,9,-1,9,17,13,0,0,-2
10,5,-7,-7,9,-1,9,18,14,0,0,-2
9,4,-7,-7,8,-1,9,18,14,0,0,-1
9,4,-6,-6,8,-1,9,19,14,1,1,-1
10,4,-6,-6,8,-1,9,19,14,1,1,-1
10,3,-6,-6,8,-1,9,19,14,1,1,-1
9,3,-5,-6,7,-1,9,19,15,2,1,0
7,3,-3,-5,6,0,9,20,15,3,2,0
6,3,-3,-5,5,0,9,20,16,3,2,0
5,3,-2,-4,4,0,9,21,16,4,2,0
5,2,-2,-4,4,0,9,21,16,4,2,0
5,2,-2,-4,4,0,9,21,16,4,2,0
5,2,-3,-4,5,0,8,20,16,4,2,0
5,2,-3,-3,5,-1,8,20,16,4,2,0
5,2,-2,-3,4,-1,8,21,17,5,2,0
5,2,-2,-3,4,-1,8,21,17,5,2,0
4,2,-2,-3,3,-1,7,21,17,5,2,0
4,2,-2,-3,3,0,7,21,17,5,2,0
4,2,-1,-3,3,0,7,21,17,6,3,0
3,2,0,-2,2,1,7,22,17,6,3,1
2,2,0,-2,1,1,7,22,18,7,4,2
1,2,1,-1,0,2,7,23,19,7,4,2
1,2,1,-1,0,2,7,23,19,7,5,2
1,2,1,-2,0,2,7,23,19,7,5,3
2,3,1,-2,0,2,7,23,20,8,6,3
2,4,2,-3,0,3,7,24,20,8,7,4
2,4,2,-3,0,3,6,24,20,8,7,4
3,4,1,-4,1,3,6,24,20,8,7,4
4,5,1,-4,2,3,5,23,20,8,7,5
4,5,1,-4,2,3,5,23,20,9,7,5
4,6,2,-4,2,4,5,24,20,9,8,6
4,6,2,-4,1,4,4,25,20,10,8,6
5,6,2,-5,2,5,4,25,20,10,9,7
6,7,2,-6,3,5,3,24,20,10,9,7
6,7,1,-6,3,5,3,24,20,10,9,7
6,6,1,-6,2,5,2,23,20,10,9,7
6,7,2,-7,2,5,2,23,20,10,9,8
6,8,2,-8,2,6,2,23,20,10,10,8
6,9,3,-8,2,6,1,23,20,10,10,8
5,9,3,-7,1,6,1,23,20,10,10,8
5,9,3,-7,1,6,0,22,19,10,11,8
6,9,3,-8,2,6,0,22,19,10,11,8
6,9,3,-8,2,6,-1,21,18,10,11,8
6,9,3,-8,2,7,-1,21,18,10,11,8
6,9,4,-8,1,7,-1,21,18,10,11,9
6,10,4,-8,1,7,-1,21,17,10,11,9
6,10,4,-8,1,8,-2,20,16,10,11,9
6,10,4,-8,1,8,-2,20,16,10,11,9
5,10,4,-8,0,8,-3,19,15,10,11,9
5,10,5,-8,0,8,-3,19,15,10,11,10
5,10,5,-7,0,8,-4,18,14,10,12,10
5,9,5,-7,0,8,-4,18,13,9,12,10
4,9,5,-7,0,8,-5,17,12,9,12,10
4,9,5,-7,0,8,-5,16,11,8,12,10
4,10,5,-7,0,8,-5,15,10,8,12,10
4,10,6,-7,0,8,-5,15,9,7,12,10
5,10,6,-8,0,8,-5,14,8,7,12,10
5,10,6,-8,0,9,-5,13,8,6,12,11
6,11,6,-9,0,9,-5,13,7,6,12,11
7,12,6,-9,0,9,-5,12,7,5,12,11
7,12,6,-10,1,9,-6,12,6,5,12,11
8,13,6,-10,1,10,-6,11,5,4,12,11
9,13,6,-11,1,10,-6,10,5,4,12,11
9,14,6,-11,1,11,-6,10,4,4,12,11
9,14,6,-11,1,11,-6,9,4,4,12,11
9,14,6,-12,1,11,-6,9,3,4,12,11
9,14,6,-12,1,11,-6,9,3,4,12,11
9,15,6,-12,1,11,-6,9,3,4,12,11
10,15,6,-13,2,11,-5,8,2,4,12,11
10,16,6,-13,2,11,-5,8,2,4,12,11
11,16,5,-14,2,11,-5,8,1,4,12,11
12,16,4,-14,3,11,-5,7,1,3,12,11
13,16,3,-14,4,10,-5,7,1,3,12,10
13,16,2,-14,5,10,-5,7,1,3,12,10
13,15,2,-14,5,9,-4,7,1,3,12,10
13,15,2,-14,5,9,-4,8,1,3,12,10
14,15,2,-15,5,9,-3,8,2,3,13,10
14,15,2,-15,5,9,-3,8,2,4,13,9
14,15,2,-15,5,9,-3,9,3,4,13,9
14,15,2,-14,5,9,-2,9,3,4,13,9
13,15,2,-14,5,9,-1,10,4,5,13,9
13,15,2,-13,5,9,0,10,5,5,13,9
12,14,2,-13,5,8,0,10,5,6,13,9
11,12,2,-12,4,8,0,10,5,6,13,9
10,11,1,-10,4,7,0,10,5,6,13,8
9,9,1,-9,3,6,0,10,5,6,12,7
8,9,1,-8,3,6,0,10,6,6,12,7
7,9,2,-8,2,6,1,10,7,6,12,6
6,8,2,-7,2,5,1,10,7,6,12,6
5,7,1,-6,1,5,1,10,7,6,11,5
4,6,1,-5,1,4,1,10,7,6,11,4
3,5,1,-4,0,4,1,10,7,6,10,4
3,4,0,-4,0,3,1,10,7,5,10,3
3,3,0,-3,0,2,1,10,7,5,10,3
2,2,0,-2,0,2,2,10,7,6,10,3
0,1,1,0,-1,1,2,9,7,6,10,3
-1,0,1,1,-2,1,2,9,7,5,9,2
-2,-1,1,2,-2,0,2,8,7,5,9,2
-2,-2,0,2,-2,0,2,8,7,5,8,1
-2,-2,0,2,-1,0,2,7,7,4,8,1
-3,-3,0,3,-2,-1,2,7,6,4,7,0
-4,-3,0,4,-2,-1,2,7,6,4,7,0
-4,-4,0,4,-3,-1,2,7,6,3,6,0
-4,-4,0,4,-3,-1,2,6,6,3,6,-1
-5,-4,0,5,-3,-1,2,6,5,3,5,-1
-6,-5,1,5,-3,-1,2,5,5,2,5,-1
-6,-5,2,6,-4,-1,2,5,5,2,5,-1
-6,-4,2,5,-4,0,3,5,5,2,5,-1
-6,-4,2,5,-4,0,3,5,5,2,5,-1
-6,-4,2,5,-4,0,3,5,5,2,5,-1
-6,-4,2,5,-5,0,3,6,5,2,5,-1
-7,-4,2,5,-5,0,4,6,5,2,5,-1
-7,-4,2,5,-5,0,4,6,4,2,5,-1
-6,-4,2,5,-4,0,4,5,4,1,4,-2
-6,-4,1,4,-3,0,4,5,4,1,4,-2
-5,-4,2,4,-3,0,5,5,4,1,4,-2
-6,-3,3,4,-4,0,5,5,4,1,4,-2
-6,-3,3,4,-4,0,5,5,4,1,4,-2
-5,-3,3,4,-4,0,5,5,4,1,4,-2
-5,-3,2,4,-3,0,5,5,4,1,4,-2
-4,-3,2,3,-3,0,5,5,4,1,4,-2
-4,-3,2,3,-3,0,5,5,4,1,4,-2
-5,-3,2,3,-3,0,5,5,5,1,4,-2
-5,-3,2,3,-3,0,5,5,5,1,4,-2
-5,-3,3,4,-4,0,5,5,5,2,4,-2
-5,-3,3,4,-4,0,5,5,5,2,4,-2
-5,-2,3,3,-4,1,5,6,5,2,4,-2
-5,-2,4,3,-5,1,5,6,5,2,4,-2
-5,-2,4,3,-5,1,5,6,5,2,4,-2
-5,-2,4,3,-5,1,5,6,5,1,3,-2
-6,-2,4,3,-5,1,5,6,5,1,3,-2
-5,-2,4,3,-5,1,5,6,6,1,3,-2
-5,-1,3,2,-4,1,5,6,6,1,3,-1
-4,-1,3,2,-4,1,5,6,6,1,3,-1
-4,-1,3,2,-4,1,5,6,6,1,3,-1
-5,-1,3,3,-4,1,5,6,6,1,3,-1
-5,-1,3,3,-4,2,5,6,6,1,3,-1
-5,-1,3,3,-5,2,5,6,6,1,3,-1
-6,-1,3,3,-5,2,5,6,6,1,3,-2
-6,-1,4,3,-5,2,5,6,6,1,3,-3
-6,-1,4,3,-5,2,5,6,6,1,3,-3
-6,-2,4,3,-5,1,5,6,6,1,3,-3
-6,-2,4,4,-5,1,5,7,6,1,3,-3
-7,-2,4,4,-6,1,5,7,7,1,3,-2
-7,-2,4,4,-6,1,5,7,7,1,3,-2
-6,-2,4,4,-6,1,5,7,7,1,4,-1
-6,-2,4,4,-6,1,5,7,7,1,4,-1
-7,-3,4,4,-6,1,5,7,7,1,4,-1
-8,-3,4,5,-6,1,5,7,8,2,4,-1
-7,-2,4,4,-6,2,5,7,8,2,4,-1
-7,-2,4,4,-6,2,5,7,8,2,4,-1
-7,-3,4,5,-6,2,4,7,8,2,4,-1
-8,-4,4,5,-7,1,4,6,8,2,4,-2
-8,-4,4,5,-7,1,4,7,8,2,4,-2
-8,-3,5,5,-7,1,4,7,8,2,4,-2
-8,-3,5,5,-7,1,4,7,8,2,4,-2
-9,-3,5,5,-7,1,4,8,8,2,4,-2
-9,-3,5,5,-7,2,4,8,9,2,4,-1
-9,-3,6,5,-7,2,4,8,9,3,5,-1
-9,-3,6,5,-7,3,3,8,9,3,5,-1
-8,-3,6,5,-8,3,3,8,10,3,5,-1
-8,-3,6,5,-8,2,3,8,10,3,5,-1
-8,-3,5,5,-8,2,3,8,10,3,5,-1
-7,-2,5,4,-7,2,3,9,10,3,5,0
-6,0,5,3,-7,3,3,9,10,3,5,0
-6,0,5,3,-7,3,4,10,11,4,6,0
-7,0,6,3,-7,4,4,10,11,4,6,1
-7,0,6,4,-7,4,4,10,11,4,6,1
-7,-1,6,4,-7,4,4,10,11,4,6,1
-7,-1,6,3,-7,4,4,10,11,4,6,1
-7,-1,6,3,-7,4,4,10,11,5,6,1
-7,-1,6,3,-7,4,4,10,11,5,6,1
-7,-1,6,3,-7,4,4,9,11,5,6,1
-7,-1,6,3,-6,4,4,9,11,5,6,1
-7,0,6,3,-6,4,4,9,11,5,6,1
-7,0,6,3,-7,4,4,10,11,5,6,1
-7,0,7,3,-7,5,4,10,12,6,7,2
-6,1,7,2,-7,5,4,10,12,6,7,2
-5,1,6,2,-6,4,4,10,12,6,7,2
-5,1,6,2,-6,4,4,10,12,6,7,2
-5,1,5,2,-6,4,4,10,12,6,7,2
-5,0,5,2,-6,4,4,10,12,6,7,2
-6,0,5,2,-6,4,4,10,12,6,7,2
-6,0,6,3,-6,4,4,10,12,6,7,2
-7,0,6,3,-7,4,4,10,12,6,7,2
-8,0,7,4,-8,4,4,10,12,6,7,2
-9,-1,8,4,-9,4,4,10,12,6,7,2
-8,-1,7,4,-8,4,4,10,11,6,7,2
-7,0,6,3,-7,4,3,9,11,6,7,2
-6,0,6,3,-7,4,4,9,11,6,7,2
-7,-1,7,4,-8,4,4,9,11,6,7,2
-8,-2,7,4,-8,4,4,9,10,5,7,1
-9,-2,7,4,-8,3,4,8,10,5,6,1
-9,-2,7,5,-8,3,4,8,10,4,6,1
-9,-2,8,5,-9,3,4,8,10,4,6,1
-9,-2,8,5,-9,3,4,8,10,4,6,1
-9,-2,7,5,-9,3,4,8,9,3,6,1
-9,-2,7,5,-9,3,4,8,9,3,5,1
-9,-2,7,4,-9,4,4,8,8,3,5,1
-9,-2,7,4,-8,4,4,8,8,3,5,1
-8,-2,6,4,-7,3,4,7,8,2,5,1
-8,-2,5,4,-7,3,4,7,8,2,5,1
-8,-2,5,4,-7,3,4,7,8,2,5,1
-8,-2,5,4,-7,3,4,7,8,2,5,1
-8,-2,5,4,-7,3,4,7,8,2,5,1
-8,-2,5,4,-7,3,4,7,7,2,5,1
-8,-2,6,4,-7,3,4,7,7,2,5,1
-7,-2,6,4,-7,3,4,7,7,1,5,1
-8,-2,6,4,-7,3,4,7,7,1,5,1
-8,-2,6,4,-8,3,4,7,7,1,5,1
-8,-2,6,4,-7,3,4,7,7,1,4,1
-8,-2,5,4,-7,3,4,7,6,0,4,1
-8,-2,5,4,-7,3,4,7,6,0,4,1
-8,-3,5,4,-7,2,4,6,6,0,4,1
-8,-3,5,4,-7,2,4,6,6,0,4,1
-8,-3,5,4,-7,2,4,6,6,0,4,1
-8,-3,5,4,-7,2,4,5,6,-1,4,1
-8,-3,5,4,-7,2,4,5,6,-1,4,1
-9,-3,5,5,-7,2,4,5,6,-1,4,1
-10,-4,5,6,-8,2,4,5,5,-1,3,0
-11,-5,5,7,-8,1,4,5,5,-2,3,0
-11,-5,5,7,-8,1,4,5,4,-2,2,0
-10,-4,6,6,-8,2,4,5,4,-2,2,0
-9,-3,6,5,-8,2,4,5,4,-2,2,0
-9,-4,6,6,-8,2,3,5,4,-2,2,0
-10,-4,6,7,-9,2,3,4,4,-3,2,-1
-11,-4,6,7,-9,2,3,4,4,-3,2,-1
-11,-4,6,7,-9,2,3,4,4,-3,2,-1
-11,-4,5,7,-9,2,3,4,4,-3,2,-1
-11,-4,5,7,-9,2,3,4,3,-3,2,-1
-11,-4,5,7,-9,2,3,4,3,-3,2,-1
-11,-4,6,7,-9,2,4,4,3,-3,2,-1
-11,-4,6,7,-9,2,4,4,4,-3,2,0
-11,-4,6,7,-9,2,3,4,4,-3,2,0
-11,-4,6,7,-9,2,3,3,4,-4,2,0
-12,-4,6,7,-9,2,3,3,4,-4,3,0
-12,-4,6,7,-9,2,3,3,4,-4,3,0
-11,-4,6,6,-9,2,3,3,4,-4,3,-1
-11,-4,6,6,-8,2,3,3,4,-4,3,-1
-10,-4,6,6,-8,2,3,3,4,-4,3,-1
-10,-4,7,7,-9,2,3,3,4,-4,3,0
-10,-4,7,7,-9,2,3,3,4,-4,3,0
-9,-3,7,6,-8,3,3,3,4,-4,3,0
-8,-2,6,4,-7,3,3,3,4,-4,4,1
-7,-2,5,3,-6,3,3,3,4,-4,4,1
-5,-1,5,2,-6,3,4,3,4,-4,4,1
-5,-1,5,1,-5,3,4,3,4,-4,4,0
-5,-1,5,1,-5,3,4,3,4,-4,4,0
-4,-1,4,1,-5,3,4,3,4,-4,4,0
-4,0,4,1,-4,3,5,3,4,-5,4,0
-3,0,3,0,-3,3,5,3,4,-5,4,0
-3,0,3,0,-3,3,5,3,4,-5,4,0
-4,0,4,1,-4,3,5,3,4,-5,4,0
-4,0,4,1,-4,3,5,3,4,-4,4,0
-4,0,4,0,-4,3,5,3,4,-4,5,0
-3,0,4,0,-4,3,5,3,4,-4,5,0
-2,1,4,0,-3,3,5,3,5,-4,5,0
-2,1,4,-1,-3,4,5,3,5,-4,5,0
-2,1,4,-1,-2,4,5,3,5,-4,4,0
-1,1,3,-1,-2,4,5,3,5,-4,4,0
-1,2,3,-1,-2,4,5,3,5,-4,4,-1
-1,2,3,-2,-3,4,5,3,5,-4,4,-1
