leadI,leadII,leadIII,leadaVR,leadaVL,leadaVF,leadV1,leadV2,leadV3,leadV4,leadV5,leadV6
1,0,-2,0,2,-1,7,1,0,0,0,-1
6,1,-5,-3,6,-2,20,3,0,2,2,-2
11,3,-7,-7,9,-1,28,5,0,3,4,-1
11,2,-8,-7,9,-2,33,6,0,4,4,-1
7,-2,-10,-2,8,-6,36,5,0,3,3,-3
1,-9,-11,4,6,-10,36,4,-2,2,1,-6
-3,-15,-11,9,4,-13,36,2,-4,0,0,-8
-5,-17,-11,11,3,-14,36,2,-4,0,0,-9
-3,-14,-11,8,3,-13,36,2,-4,1,0,-8
2,-8,-10,2,5,-9,37,3,-2,2,2,-5
7,-2,-10,-3,8,-6,38,4,-1,4,4,-3
10,1,-10,-6,9,-4,39,5,0,4,4,-1
8,0,-9,-4,8,-5,39,4,-1,4,4,-2
3,-5,-9,0,5,-7,38,3,-2,2,2,-3
-3,-11,-8,6,3,-9,37,1,-4,1,1,-5
-6,-14,-8,9,1,-11,36,0,-5,0,0,-7
-5,-12,-8,8,1,-10,37,-1,-6,0,0,-7
0,-7,-7,4,3,-8,38,0,-5,0,0,-5
5,-2,-8,-1,5,-5,39,0,-5,0,1,-3
9,2,-8,-5,7,-4,39,0,-4,0,2,-2
9,2,-7,-5,7,-3,39,0,-4,0,2,-2
5,-1,-7,-2,6,-5,38,-1,-5,0,1,-3
0,-6,-7,3,4,-7,38,-3,-6,0,0,-4
-3,-10,-7,6,3,-9,37,-3,-6,-1,0,-5
-3,-11,-7,7,2,-9,37,-4,-6,-1,0,-6
0,-8,-7,4,4,-8,38,-4,-6,0,0,-5
4,-3,-7,-1,5,-6,39,-4,-6,0,0,-4
7,0,-7,-5,6,-4,40,-4,-6,0,0,-3
8,1,-7,-6,7,-3,40,-3,-6,0,0,-2
6,-1,-7,-3,6,-5,41,-3,-6,0,0,-3
1,-7,-8,2,4,-7,41,-3,-6,-1,0,-4
-2,-11,-8,6,4,-9,41,-3,-7,-1,0,-5
-3,-14,-9,8,4,-11,40,-3,-7,-1,0,-5
-2,-13,-10,7,4,-11,40,-3,-7,-1,0,-5
2,-9,-10,3,5,-9,41,-3,-7,-1,0,-3
6,-5,-10,0,6,-8,41,-3,-7,-1,0,-2
8,-3,-11,-2,7,-8,41,-3,-7,-1,0,-2
6,-5,-11,0,7,-9,41,-3,-7,-1,-1,-2
2,-10,-12,4,6,-12,41,-3,-8,-2,-2,-3
-1,-15,-12,8,5,-14,41,-4,-8,-2,-2,-4
-4,-18,-12,10,5,-15,41,-4,-9,-3,-3,-4
-4,-18,-12,10,4,-15,41,-4,-9,-3,-3,-4
-1,-14,-12,7,5,-13,41,-4,-9,-3,-3,-4
2,-9,-12,3,6,-11,41,-4,-9,-3,-3,-3
5,-7,-12,1,7,-10,41,-4,-8,-3,-2,-3
5,-7,-13,1,7,-10,42,-3,-8,-2,-2,-3
2,-10,-13,4,6,-12,42,-3,-8,-2,-2,-4
-2,-15,-12,8,5,-13,43,-3,-8,-2,-2,-5
-4,-17,-12,11,5,-14,43,-3,-8,-2,-2,-5
-5,-18,-12,11,5,-14,43,-3,-8,-2,-2,-5
-2,-15,-12,9,5,-13,43,-3,-8,-3,-2,-5
1,-11,-12,4,5,-12,43,-3,-8,-3,-2,-4
4,-8,-12,1,6,-11,43,-3,-8,-3,-2,-4
5,-7,-12,1,7,-11,43,-3,-8,-3,-2,-3
3,-10,-12,3,6,-12,43,-3,-8,-3,-3,-3
-1,-14,-12,7,6,-13,43,-3,-8,-3,-3,-3
-3,-17,-12,10,6,-14,43,-3,-8,-3,-3,-3
-4,-17,-12,10,6,-14,43,-3,-8,-3,-2,-3
-3,-15,-12,9,6,-13,43,-3,-8,-3,-2,-2
0,-11,-12,5,6,-12,44,-3,-8,-3,-2,-2
3,-7,-11,2,6,-11,44,-3,-8,-3,-2,-2
4,-5,-11,0,6,-10,44,-3,-8,-2,-2,-2
4,-6,-11,1,6,-9,44,-3,-7,-2,-2,-2
1,-9,-11,4,5,-10,45,-2,-7,-2,-2,-3
-2,-13,-10,7,5,-10,46,-2,-7,-2,-2,-3
-4,-15,-10,9,4,-11,46,-2,-7,-3,-2,-4
-4,-14,-9,9,4,-11,46,-2,-7,-3,-3,-4
-2,-11,-9,6,4,-10,47,-2,-7,-3,-3,-4
1,-8,-9,3,4,-9,47,-1,-7,-3,-3,-4
3,-6,-9,1,4,-9,47,-1,-7,-3,-3,-4
3,-6,-10,1,5,-9,48,-1,-7,-3,-3,-4
2,-9,-10,3,5,-10,48,-1,-7,-3,-3,-4
-1,-12,-10,6,5,-11,49,-1,-7,-3,-2,-4
-3,-14,-10,8,5,-11,49,-1,-6,-3,-2,-4
-3,-15,-10,9,5,-12,50,-1,-6,-3,-2,-4
-2,-13,-10,7,5,-11,50,-1,-6,-3,-3,-4
1,-10,-10,4,5,-11,50,-1,-6,-3,-3,-4
2,-8,-10,2,5,-11,50,-1,-6,-2,-3,-4
3,-6,-10,1,5,-10,51,0,-6,-2,-3,-4
2,-8,-9,2,4,-10,51,1,-5,-1,-2,-4
0,-11,-9,5,4,-10,51,2,-4,-1,-2,-4
-2,-13,-9,7,5,-10,51,4,-2,0,-1,-4
-2,-14,-10,8,5,-11,52,6,0,3,1,-4
-1,-13,-11,7,6,-12,51,9,2,6,4,-3
0,-13,-12,7,6,-13,50,11,5,9,7,-2
-1,-15,-13,8,5,-15,48,15,9,13,11,-2
0,-14,-15,6,6,-16,46,20,16,19,17,0
5,-11,-16,2,9,-15,46,27,24,28,26,6
10,-7,-17,-1,13,-13,47,34,34,39,36,13
14,-3,-16,-6,16,-9,48,40,45,50,48,21
18,0,-16,-9,18,-6,48,44,55,61,59,29
20,2,-16,-11,19,-5,46,46,65,72,71,36
22,5,-16,-13,19,-4,42,45,74,83,82,43
23,7,-16,-15,19,-5,36,38,81,92,92,50
25,10,-15,-17,19,-4,28,26,86,100,102,58
29,15,-14,-22,21,-1,21,12,89,106,110,66
33,21,-12,-27,23,3,16,-2,88,109,115,74
37,27,-9,-32,24,9,11,-18,83,106,115,79
38,32,-6,-35,23,13,5,-33,74,98,108,81
36,33,-2,-35,20,16,-2,-47,60,84,95,77
30,32,2,-31,15,17,-10,-62,42,65,76,68
23,29,6,-26,8,17,-23,-78,21,43,54,57
14,26,12,-20,1,18,-39,-95,-1,20,30,45
6,25,18,-15,-6,20,-57,-113,-24,-4,7,34
0,24,23,-12,-11,22,-75,-129,-47,-27,-15,24
-5,23,28,-9,-16,25,-94,-146,-68,-50,-37,15
-10,23,34,-7,-21,28,-110,-161,-89,-71,-57,6
-16,21,38,-3,-26,30,-122,-174,-107,-88,-74,-2
-22,19,41,2,-31,30,-133,-184,-121,-103,-89,-10
-27,15,42,6,-35,29,-149,-193,-133,-115,-101,-18
-30,12,42,10,-37,26,-167,-200,-143,-124,-110,-25
-32,10,42,11,-37,25,-182,-205,-150,-131,-117,-30
-31,11,42,10,-37,25,-193,-206,-153,-134,-120,-31
-31,12,44,9,-37,28,-203,-204,-152,-133,-120,-31
-30,15,46,6,-37,30,-211,-199,-148,-130,-118,-29
-29,17,47,5,-37,32,-219,-192,-143,-126,-114,-27
-29,18,48,5,-37,33,-228,-184,-137,-120,-110,-26
-30,18,49,6,-38,33,-236,-175,-131,-115,-105,-25
-30,18,48,7,-39,33,-240,-165,-124,-109,-100,-24
-30,17,47,7,-39,32,-240,-153,-116,-102,-95,-23
-28,17,45,5,-37,30,-239,-140,-106,-94,-88,-21
-24,17,42,3,-33,29,-237,-127,-96,-85,-79,-17
-21,18,39,1,-30,28,-232,-113,-84,-75,-70,-14
-17,18,36,0,-26,27,-224,-100,-74,-66,-62,-11
-15,17,33,0,-23,25,-217,-89,-66,-58,-55,-10
-14,15,29,0,-21,23,-211,-79,-59,-52,-50,-9
-14,13,26,1,-20,19,-208,-71,-53,-47,-45,-9
-13,10,23,2,-18,16,-207,-63,-48,-42,-40,-9
-11,9,20,1,-16,14,-205,-55,-42,-37,-36,-8
-9,9,18,0,-14,12,-202,-48,-37,-32,-31,-6
-6,9,16,-1,-11,12,-197,-42,-32,-28,-26,-4
-4,9,15,-2,-9,12,-190,-37,-27,-24,-22,-2
-4,9,14,-2,-8,12,-182,-34,-25,-21,-20,-1
-5,8,14,-1,-9,11,-169,-33,-23,-19,-18,0
-6,7,13,0,-9,10,-150,-31,-22,-18,-17,0
-6,7,13,0,-10,10,-129,-30,-21,-17,-16,0
-7,7,14,0,-10,10,-112,-27,-20,-16,-15,0
-6,7,14,-1,-10,10,-98,-25,-17,-14,-12,1
-5,8,13,-2,-9,11,-87,-22,-15,-11,-10,2
-4,9,13,-3,-8,11,-77,-19,-12,-9,-8,3
-3,9,13,-3,-7,11,-69,-17,-10,-7,-6,3
-4,8,13,-2,-7,10,-63,-16,-9,-5,-5,3
-4,8,12,-1,-7,10,-59,-16,-9,-5,-5,3
-4,7,12,-1,-8,9,-57,-16,-9,-5,-4,3
-5,7,11,0,-8,9,-54,-15,-8,-4,-4,3
-4,8,11,-1,-8,9,-52,-13,-7,-3,-3,3
-3,8,11,-2,-8,10,-48,-11,-5,-1,-1,4
-3,8,11,-3,-7,10,-44,-9,-3,0,0,4
-2,9,11,-4,-7,10,-40,-8,-1,2,1,5
-2,9,11,-4,-7,10,-36,-8,-1,2,2,5
-2,9,11,-4,-7,10,-34,-7,-1,2,2,5
-2,9,11,-4,-7,10,-33,-7,-1,2,2,5
-2,9,11,-4,-7,10,-33,-6,-1,2,3,5
-2,8,10,-4,-6,9,-32,-5,0,3,4,5
-1,8,10,-4,-5,9,-30,-4,1,4,5,6
-1,9,10,-4,-5,9,-27,-3,2,5,5,6
0,10,11,-5,-5,10,-25,-2,3,5,6,7
0,11,12,-5,-5,10,-22,-2,3,6,6,7
0,11,12,-5,-5,11,-21,-2,4,6,7,8
0,11,12,-5,-6,11,-20,-2,4,7,7,8
0,11,12,-5,-6,11,-20,-1,4,7,7,8
0,11,12,-5,-6,11,-20,-1,4,7,7,8
0,11,12,-5,-6,11,-19,0,5,8,8,9
0,11,13,-6,-6,12,-17,0,7,9,9,9
0,12,13,-6,-6,12,-15,1,8,11,11,10
0,12,12,-7,-5,12,-12,2,9,12,12,11
0,13,12,-7,-5,12,-11,3,10,12,12,11
1,13,12,-7,-5,12,-10,4,10,13,13,12
1,13,12,-7,-5,12,-10,5,11,13,13,12
1,13,12,-8,-5,13,-10,6,12,14,14,12
1,13,12,-8,-5,13,-10,7,13,15,15,12
1,14,12,-8,-5,13,-9,8,14,16,16,13
1,14,12,-8,-5,13,-7,9,15,17,17,13
2,14,12,-8,-5,13,-5,11,16,18,18,14
2,15,12,-8,-5,13,-4,12,17,19,19,14
2,15,12,-8,-5,14,-3,13,18,20,19,15
2,15,12,-9,-5,14,-2,13,19,20,20,15
2,15,12,-9,-5,14,-2,14,19,21,20,16
2,15,12,-9,-5,14,-2,15,20,21,21,16
3,15,12,-9,-5,14,-2,17,21,22,21,16
3,16,12,-10,-4,14,0,18,23,23,22,17
4,16,12,-10,-4,14,0,20,24,25,24,18
4,16,12,-10,-4,13,1,21,26,26,25,18
4,16,11,-10,-3,13,2,22,27,27,26,19
5,16,11,-11,-3,14,3,23,28,28,27,20
5,17,11,-11,-3,14,4,25,29,29,28,20
6,17,11,-12,-2,14,5,26,29,29,28,21
7,17,11,-12,-2,14,5,28,30,30,29,21
7,18,11,-12,-1,14,6,29,32,31,30,22
8,18,11,-13,-1,14,7,31,33,33,31,22
9,19,10,-13,-1,14,8,32,34,34,32,23
10,19,10,-14,0,14,9,33,35,34,33,23
10,19,9,-15,0,14,9,33,36,35,34,23
11,19,9,-15,0,14,9,34,36,35,34,23
11,20,9,-16,0,14,9,35,36,36,34,24
11,20,9,-16,1,14,10,36,37,37,35,24
11,20,9,-16,1,14,10,38,39,38,36,24
11,20,9,-16,1,14,11,39,40,39,37,24
12,20,8,-16,2,14,12,40,41,39,37,25
13,20,7,-16,2,14,12,41,41,40,37,25
13,20,7,-17,3,14,13,41,41,40,38,25
14,20,6,-17,3,13,13,41,41,40,38,25
14,20,6,-17,3,13,14,41,41,40,38,25
14,20,6,-17,3,13,14,42,41,40,38,25
14,20,6,-17,4,13,15,42,41,40,38,25
14,20,6,-17,4,13,15,42,41,40,38,25
14,19,5,-17,4,12,16,42,41,39,38,25
14,19,5,-17,5,12,16,42,41,39,37,25
14,19,5,-17,5,12,17,42,41,39,37,25
14,19,4,-17,5,12,18,42,41,38,36,25
14,19,4,-17,5,12,19,42,40,38,36,24
14,19,4,-17,5,11,19,42,40,37,35,24
14,19,4,-17,5,11,20,42,39,37,35,23
15,19,3,-17,5,11,20,42,38,36,34,23
15,19,3,-17,5,11,21,41,38,35,33,22
15,18,3,-17,5,11,21,41,37,34,32,22
15,18,3,-16,5,11,22,40,37,33,31,21
14,18,3,-16,5,11,22,40,36,32,31,21
14,17,3,-15,5,10,22,39,35,32,30,20
13,17,3,-15,4,10,23,38,34,31,29,20
13,17,3,-15,4,10,23,37,33,30,28,19
13,17,3,-15,4,10,24,36,32,28,27,19
13,17,3,-15,4,10,24,35,31,28,26,18
13,16,3,-15,4,10,24,35,30,27,25,18
13,16,3,-14,5,10,24,34,29,25,24,17
13,16,3,-14,5,9,24,33,28,24,23,16
13,16,3,-14,5,9,25,32,27,23,21,15
13,15,2,-14,6,9,25,31,26,22,20,14
13,15,1,-14,6,8,25,31,25,21,18,13
14,15,0,-14,6,8,25,30,24,20,17,12
14,14,0,-14,6,7,25,29,23,19,16,12
13,14,0,-14,6,7,26,29,22,18,15,11
13,14,0,-13,6,7,26,28,21,16,14,10
13,13,0,-13,6,6,26,27,20,15,13,9
13,13,0,-13,6,6,26,26,19,14,12,9
13,12,0,-13,6,6,27,25,18,13,11,8
12,12,0,-12,6,5,27,24,17,12,10,7
12,11,-1,-12,6,5,27,23,15,11,9,6
12,11,-1,-12,6,5,27,22,14,10,7,5
12,10,-2,-12,6,5,27,21,13,9,6,4
12,10,-2,-12,7,5,27,20,12,8,5,3
12,10,-2,-12,7,5,28,20,11,7,4,2
11,10,-2,-11,6,4,28,19,11,6,3,2
11,9,-2,-11,6,4,29,18,10,5,2,1
11,9,-2,-10,6,3,29,17,9,4,1,0
11,8,-2,-10,6,3,30,17,8,3,1,0
11,8,-3,-10,6,2,30,16,7,2,0,0
10,7,-3,-9,6,2,30,16,6,1,-1,-1
9,6,-3,-8,6,1,30,15,5,0,-2,-2
8,4,-3,-6,6,1,31,14,4,0,-3,-4
8,4,-3,-6,6,1,31,14,3,-1,-3,-4
9,5,-3,-7,6,1,32,13,3,-1,-3,-5
9,5,-3,-7,6,1,32,13,3,-2,-4,-5
9,5,-3,-7,6,1,32,13,2,-2,-4,-5
8,4,-3,-7,5,1,32,12,2,-3,-5,-6
7,3,-3,-6,4,0,32,11,1,-3,-5,-6
6,3,-3,-5,4,1,33,11,1,-3,-6,-6
7,4,-3,-6,5,1,34,11,1,-3,-6,-6
8,5,-3,-6,6,1,34,11,1,-3,-6,-7
8,4,-4,-6,6,0,34,11,1,-3,-6,-8
8,4,-4,-6,6,0,34,11,1,-3,-6,-8
7,4,-3,-6,6,0,34,11,1,-3,-6,-8
7,4,-3,-6,5,0,34,11,1,-3,-6,-8
8,4,-3,-7,5,1,34,11,1,-3,-6,-8
8,4,-3,-7,5,1,34,11,1,-3,-6,-8
8,4,-3,-7,5,1,34,11,1,-3,-6,-8
8,4,-3,-7,5,1,34,11,1,-3,-6,-8
8,4,-3,-6,5,0,34,10,1,-3,-6,-8
7,3,-3,-5,5,0,34,10,1,-3,-6,-9
7,2,-3,-5,5,-1,33,10,1,-3,-6,-9
9,3,-4,-6,6,-1,33,10,1,-3,-6,-9
10,4,-4,-7,6,0,33,10,2,-3,-6,-9
10,4,-4,-8,7,0,33,10,2,-3,-6,-9
11,4,-4,-8,7,0,33,10,2,-3,-6,-9
11,4,-5,-8,7,0,33,10,2,-3,-6,-9
11,4,-5,-8,7,0,33,10,2,-3,-5,-9
11,5,-5,-8,7,0,33,11,2,-3,-5,-9
11,5,-5,-8,7,1,33,11,2,-2,-5,-9
10,5,-5,-8,7,1,33,12,3,-2,-5,-9
10,5,-5,-8,7,1,33,12,3,-2,-5,-9
11,5,-5,-8,8,0,33,12,3,-2,-5,-9
11,5,-5,-9,8,0,33,12,3,-2,-5,-9
13,6,-5,-10,9,1,34,13,4,-1,-4,-9
10,4,-5,-7,7,0,33,12,3,-2,-5,-10
-5,-11,-5,8,0,-8,28,7,-1,-7,-9,-15
-19,-25,-5,22,-7,-15,23,2,-6,-12,-13,-19
-16,-22,-5,18,-5,-14,25,4,-4,-10,-12,-18
-10,-16,-6,13,-2,-11,26,6,-2,-8,-10,-16
-10,-17,-6,13,-2,-12,26,6,-2,-8,-10,-16
-5,-11,-6,8,0,-9,27,7,0,-6,-8,-14
0,-6,-5,3,2,-6,29,9,1,-4,-6,-12
0,-6,-5,3,2,-6,30,9,1,-4,-6,-12
2,-3,-5,0,3,-4,31,10,3,-3,-5,-11
6,1,-5,-4,5,-2,32,12,4,-1,-3,-9
8,2,-6,-5,7,-2,33,13,5,0,-2,-8
6,0,-6,-3,6,-3,33,12,5,-1,-3,-9
3,-3,-6,0,4,-5,32,10,3,-2,-4,-10
1,-5,-6,2,3,-6,32,10,3,-2,-5,-11
-16,-22,-6,19,-5,-14,26,4,-3,-8,-11,-17
-48,-55,-6,51,-22,-30,15,-6,-14,-19,-21,-28
-52,-59,-6,55,-24,-32,14,-7,-15,-20,-22,-30
-32,-38,-6,35,-13,-22,20,-1,-8,-13,-15,-23
-26,-33,-6,29,-10,-20,22,1,-6,-11,-13,-20
-33,-40,-6,36,-13,-23,20,-1,-8,-13,-15,-22
-38,-46,-6,42,-15,-27,19,-3,-10,-15,-17,-24
-54,-62,-7,57,-23,-34,14,-8,-15,-20,-23,-30
-69,-77,-7,72,-31,-42,9,-13,-20,-25,-28,-35
-78,-86,-7,81,-36,-46,7,-16,-24,-28,-31,-38
-107,-115,-7,110,-50,-61,-2,-25,-33,-38,-40,-48
-137,-145,-7,140,-65,-76,-12,-35,-43,-49,-50,-58
-131,-139,-7,134,-62,-73,-10,-33,-41,-47,-48,-56
-92,-101,-7,96,-42,-55,2,-21,-28,-34,-35,-44
-67,-76,-7,70,-29,-42,11,-13,-19,-25,-27,-35
-91,-100,-7,95,-42,-54,4,-21,-27,-33,-35,-43
-103,-112,-7,107,-48,-60,0,-25,-31,-37,-39,-47
-95,-104,-7,99,-44,-55,3,-22,-29,-35,-36,-44
-186,-194,-8,189,-89,-100,-26,-52,-59,-65,-67,-73
-338,-346,-8,341,-165,-177,-77,-103,-110,-117,-118,-124
-455,-464,-8,459,-224,-236,-116,-143,-149,-156,-157,-163
-487,-497,-8,491,-239,-253,-127,-153,-160,-166,-167,-174
-378,-388,-8,383,-184,-199,-91,-117,-123,-130,-130,-139
-224,-235,-9,229,-107,-123,-41,-66,-72,-79,-80,-88
-129,-140,-10,134,-60,-76,-9,-35,-41,-47,-49,-56
-76,-86,-10,81,-33,-49,8,-17,-23,-30,-31,-37
-43,-53,-10,47,-17,-31,20,-5,-12,-18,-19,-25
-23,-33,-10,27,-7,-21,26,1,-5,-11,-12,-18
-12,-21,-10,16,-1,-15,30,6,-1,-7,-8,-13
0,-9,-10,4,5,-9,35,10,3,-3,-4,-9
-2,-12,-10,7,4,-11,34,9,3,-4,-5,-9
-106,-116,-9,111,-48,-63,0,-25,-32,-38,-40,-43
-303,-312,-9,307,-147,-161,-65,-91,-98,-104,-106,-108
-375,-385,-9,380,-183,-197,-90,-116,-122,-128,-130,-134
-262,-272,-9,267,-127,-141,-53,-78,-85,-90,-92,-97
-139,-148,-9,143,-65,-79,-12,-37,-43,-49,-51,-56
-75,-84,-9,79,-33,-46,8,-15,-22,-28,-29,-34
-38,-46,-8,42,-15,-27,21,-3,-9,-15,-16,-21
-15,-23,-8,19,-3,-16,28,5,-1,-7,-8,-13
-2,-10,-8,6,3,-9,33,9,4,-2,-3,-9
6,-2,-8,-2,7,-5,36,12,6,0,0,-6
11,2,-8,-7,10,-2,37,13,8,2,1,-4
14,5,-8,-10,11,-1,38,14,9,3,2,-3
19,11,-7,-16,13,2,40,17,11,5,4,0
7,0,-7,-3,7,-3,35,13,7,1,0,-4
-72,-79,-6,75,-33,-43,9,-13,-19,-25,-26,-29
-162,-168,-6,165,-78,-88,-20,-43,-49,-55,-56,-59
-163,-170,-6,166,-78,-89,-21,-44,-49,-55,-57,-60
-128,-135,-6,131,-60,-71,-9,-32,-38,-44,-45,-48
-154,-162,-6,157,-73,-84,-18,-41,-47,-53,-53,-56
-225,-232,-6,227,-109,-120,-41,-65,-70,-76,-77,-79
-267,-274,-6,269,-130,-141,-55,-79,-85,-90,-91,-93
-266,-274,-6,269,-129,-140,-56,-79,-85,-90,-91,-93
-230,-239,-7,233,-111,-123,-45,-67,-73,-78,-79,-81
-184,-192,-7,187,-88,-100,-31,-52,-57,-63,-63,-65
-151,-159,-7,154,-72,-84,-21,-41,-46,-52,-52,-53
-106,-114,-7,110,-49,-62,-7,-26,-31,-37,-37,-39
-50,-59,-8,55,-21,-35,11,-8,-13,-19,-19,-20
-23,-32,-8,28,-8,-21,20,0,-5,-10,-11,-11
-63,-72,-8,67,-28,-40,8,-13,-18,-24,-24,-24
-114,-123,-8,118,-53,-65,-9,-30,-35,-41,-41,-41
-91,-100,-8,95,-42,-54,-1,-23,-28,-33,-34,-33
-47,-56,-8,51,-19,-32,12,-9,-13,-19,-19,-18
-48,-57,-8,52,-20,-33,11,-10,-14,-19,-20,-18
-77,-86,-8,82,-34,-48,0,-21,-25,-29,-30,-28
-74,-83,-8,79,-33,-47,0,-21,-25,-29,-30,-28
-37,-46,-8,42,-15,-28,11,-9,-13,-17,-18,-16
-11,-19,-8,15,-2,-14,20,-1,-4,-8,-9,-7
2,-6,-8,2,4,-7,25,4,0,-4,-4,-2
10,2,-7,-6,9,-3,28,7,3,-1,-1,1
15,7,-7,-11,11,0,29,8,5,0,0,3
18,10,-7,-14,13,0,30,9,6,1,1,5
20,11,-8,-15,14,1,30,9,6,1,1,5
21,11,-8,-16,14,1,30,9,6,1,1,5
21,11,-8,-16,14,1,31,10,6,2,1,5
21,11,-9,-16,15,0,31,10,6,2,1,5
22,11,-10,-16,16,0,31,10,6,2,1,5
22,10,-11,-16,16,0,31,10,6,2,1,5
22,10,-11,-16,16,0,31,10,6,2,1,5
22,9,-11,-16,16,-1,31,10,6,2,0,5
21,8,-11,-16,16,-2,31,10,6,2,0,5
21,7,-12,-15,17,-3,31,10,5,2,0,4
21,7,-12,-14,17,-3,31,10,5,2,0,4
21,6,-13,-14,16,-4,31,9,5,1,0,4
20,6,-13,-13,16,-3,31,9,5,1,0,4
20,6,-13,-13,16,-3,31,9,5,1,0,4
20,6,-13,-13,16,-4,31,8,5,0,-1,4
19,6,-13,-13,16,-4,31,8,5,0,-1,4
19,6,-12,-12,16,-4,31,8,5,0,-1,4
19,6,-12,-12,15,-4,31,8,5,0,-1,3
19,6,-12,-12,15,-4,31,8,4,0,-1,3
19,6,-12,-12,15,-4,31,8,4,0,-1,3
19,5,-12,-12,15,-4,31,8,4,0,-1,3
19,5,-12,-12,15,-4,31,8,4,0,-1,3
18,5,-12,-12,15,-4,31,8,4,0,-1,3
18,6,-12,-12,15,-3,31,8,4,0,-1,3
18,6,-12,-12,15,-3,31,8,4,0,-1,3
18,6,-12,-12,15,-3,31,8,4,0,-1,3
18,6,-12,-12,15,-3,31,8,4,0,-1,2
18,6,-12,-12,15,-3,31,8,4,0,-1,2
18,6,-12,-12,15,-3,31,8,4,0,-1,2
18,6,-12,-12,15,-3,31,8,4,0,-1,1
17,6,-12,-12,14,-3,31,8,4,0,-1,1
17,6,-12,-12,14,-3,31,8,4,0,-1,1
17,6,-12,-12,14,-3,32,9,4,0,-1,1
17,6,-12,-12,14,-3,32,9,4,0,-1,1
17,5,-12,-11,14,-3,32,9,4,0,-1,1
17,5,-12,-11,13,-3,32,9,4,0,-1,1
16,5,-12,-11,13,-3,33,9,4,0,-1,1
16,5,-11,-11,13,-3,33,9,4,0,-1,1
16,5,-11,-11,13,-3,33,9,4,0,-1,1
16,5,-11,-11,13,-3,33,9,4,0,-1,1
15,5,-11,-11,13,-3,33,10,4,0,-1,1
15,5,-10,-10,12,-3,33,10,4,0,-1,1
14,5,-10,-10,12,-3,33,11,4,0,-1,1
14,5,-10,-10,12,-3,33,11,4,0,-1,1
14,5,-10,-10,12,-2,33,11,4,0,-1,1
14,5,-10,-10,12,-2,33,11,4,0,-1,0
14,5,-10,-10,12,-2,33,11,4,0,-1,0
14,5,-10,-10,12,-2,33,11,4,0,-1,0
14,5,-10,-10,12,-2,33,11,4,0,-1,0
14,5,-10,-10,12,-2,33,11,4,0,-1,0
13,5,-10,-10,12,-2,33,12,4,0,-1,0
13,5,-10,-9,12,-2,33,12,4,0,-1,0
13,5,-10,-9,12,-2,34,14,5,1,0,0
13,5,-10,-9,12,-2,34,16,7,3,1,0
14,5,-10,-9,12,-2,35,19,9,4,2,0
15,4,-10,-10,12,-3,36,22,12,7,5,0
16,4,-11,-11,14,-3,36,25,15,10,8,1
18,4,-13,-12,15,-4,35,29,19,14,12,3
20,4,-15,-13,17,-5,35,34,25,19,17,5
22,5,-17,-14,19,-5,35,39,31,26,23,8
24,6,-18,-15,21,-6,35,43,37,33,31,12
25,7,-18,-16,22,-6,35,45,44,41,39,17
27,9,-18,-18,23,-5,33,46,52,49,48,22
29,11,-18,-20,23,-4,32,46,60,59,58,29
32,15,-17,-23,24,-2,30,44,69,69,69,36
35,19,-17,-27,26,0,27,39,77,79,80,44
39,23,-16,-32,28,3,24,30,83,88,91,52
43,28,-16,-36,29,6,20,17,88,96,101,61
47,32,-14,-40,30,9,16,4,91,102,109,69
49,37,-13,-43,31,12,12,-8,91,105,113,75
51,40,-11,-46,31,14,9,-20,86,101,111,78
51,42,-9,-47,30,16,7,-33,76,92,102,77
50,42,-7,-46,28,17,5,-46,62,77,89,73
47,42,-5,-45,26,18,2,-61,43,58,70,65
42,40,-1,-41,21,19,0,-78,21,35,48,55
34,38,3,-36,15,20,-3,-97,-3,10,23,44
26,36,8,-31,9,21,-6,-116,-28,-14,-1,33
18,34,13,-26,2,22,-10,-134,-51,-38,-24,22
11,30,18,-20,-3,23,-13,-151,-74,-61,-47,10
4,27,22,-15,-9,24,-16,-166,-94,-82,-68,0
-2,24,27,-11,-14,25,-18,-178,-111,-99,-85,-8
-7,23,30,-7,-19,26,-22,-187,-122,-111,-97,-15
-11,22,33,-5,-22,27,-27,-192,-130,-119,-106,-20
-13,21,35,-4,-25,28,-32,-195,-136,-126,-112,-24
-15,21,36,-3,-26,29,-36,-197,-140,-130,-117,-27
-16,21,38,-2,-27,29,-38,-196,-141,-132,-119,-28
-17,22,39,-2,-28,30,-39,-191,-139,-130,-118,-29
-18,24,41,-3,-29,32,-39,-184,-134,-126,-115,-28
-18,25,42,-3,-30,33,-38,-175,-127,-120,-111,-27
-18,27,44,-4,-31,35,-35,-164,-119,-113,-105,-25
-17,28,45,-5,-31,36,-32,-152,-111,-107,-99,-23
-16,29,45,-6,-30,36,-27,-139,-102,-99,-92,-20
-14,30,44,-8,-29,36,-23,-127,-93,-91,-85,-18
-12,30,42,-9,-27,35,-18,-114,-84,-83,-77,-15
-10,29,39,-9,-24,34,-13,-102,-75,-74,-70,-13
-8,29,37,-10,-22,32,-8,-90,-66,-66,-63,-12
-7,28,34,-10,-20,30,-4,-79,-58,-59,-56,-10
-5,27,31,-10,-17,28,0,-68,-50,-52,-50,-9
-4,25,28,-10,-15,26,3,-60,-43,-46,-45,-8
-3,23,25,-10,-13,24,7,-52,-37,-41,-40,-7
-2,21,22,-10,-11,21,10,-44,-32,-36,-35,-7
0,19,19,-9,-10,19,13,-38,-27,-32,-31,-6
0,17,17,-9,-8,17,15,-33,-24,-28,-28,-5
1,16,15,-9,-7,16,17,-29,-21,-25,-25,-5
2,16,14,-9,-6,15,18,-26,-18,-23,-23,-4
2,16,14,-9,-6,15,19,-23,-16,-21,-21,-3
2,16,13,-9,-5,14,20,-21,-14,-19,-19,-2
2,16,13,-9,-5,15,21,-18,-12,-18,-17,-1
2,17,14,-9,-6,16,22,-16,-10,-16,-15,0
3,17,14,-10,-6,16,23,-14,-9,-14,-13,0
3,17,13,-10,-5,15,23,-12,-7,-12,-12,1
4,17,13,-10,-5,15,24,-11,-6,-11,-10,1
4,17,13,-10,-5,15,24,-9,-4,-9,-9,2
3,17,13,-10,-5,15,25,-8,-3,-8,-8,2
3,17,13,-10,-4,14,25,-6,-1,-7,-7,3
4,17,12,-10,-4,14,26,-5,0,-6,-5,3
5,17,12,-10,-4,14,26,-3,1,-5,-4,3
5,17,12,-10,-4,14,27,-2,1,-4,-3,4
5,17,11,-10,-3,14,27,-1,2,-3,-2,4
5,17,11,-10,-3,14,28,0,3,-2,-2,4
5,17,11,-10,-3,14,28,0,4,-1,-1,5
5,17,11,-10,-3,14,28,1,5,0,0,5
5,17,11,-10,-3,14,29,2,6,0,0,6
5,17,11,-10,-3,14,29,3,7,1,1,6
5,17,11,-10,-3,14,30,3,7,1,2,6
5,17,11,-10,-3,14,30,4,8,2,2,7
5,17,11,-10,-3,14,30,5,9,3,3,8
5,17,12,-10,-3,14,30,6,9,4,4,8
5,17,12,-10,-4,14,30,6,10,5,5,9
5,17,12,-10,-4,14,30,7,10,5,5,9
5,17,12,-11,-3,14,30,8,11,6,6,9
6,17,12,-11,-3,14,31,9,12,7,7,10
6,17,12,-11,-3,14,31,10,13,7,7,10
6,17,12,-11,-3,15,31,11,13,8,8,11
6,17,12,-11,-3,15,31,11,14,9,9,12
6,17,12,-11,-3,15,31,12,14,9,10,13
6,18,12,-11,-3,15,31,13,15,10,10,13
6,18,12,-11,-3,15,31,13,16,11,11,14
6,18,12,-11,-3,15,31,14,17,12,12,14
6,18,12,-12,-3,15,31,15,19,13,13,15
7,18,12,-12,-3,15,30,16,19,14,14,15
7,19,12,-13,-3,15,30,17,20,14,15,16
8,19,12,-13,-3,15,29,18,20,15,15,17
8,19,12,-13,-2,15,28,19,21,16,16,17
8,19,12,-13,-2,15,28,20,22,17,17,18
8,20,12,-13,-2,15,27,21,23,18,18,18
8,20,12,-13,-2,15,27,22,24,19,19,18
9,20,11,-14,-1,15,27,23,25,20,19,19
10,20,11,-14,-1,15,27,24,26,21,20,19
10,20,11,-14,-1,15,27,25,27,22,21,20
10,20,11,-14,-1,15,27,27,28,23,22,21
10,20,11,-15,0,15,27,28,29,24,23,22
10,21,11,-15,0,16,27,29,30,26,24,22
11,21,11,-15,0,16,27,31,31,27,25,23
11,21,11,-15,0,16,28,32,32,28,26,24
11,21,11,-15,0,16,28,33,33,29,27,24
11,22,11,-16,0,16,28,35,34,30,28,25
12,22,11,-16,0,16,28,36,35,31,29,25
12,22,10,-17,1,16,28,37,36,32,30,26
13,22,10,-17,1,16,28,38,37,33,31,27
13,23,10,-17,1,16,28,40,38,34,32,27
14,23,9,-17,2,16,28,41,39,35,33,28
14,23,9,-17,2,15,28,42,40,36,34,28
14,23,9,-17,2,15,28,43,41,37,35,29
15,23,9,-18,3,15,29,44,42,37,36,29
15,23,9,-18,3,15,29,46,43,38,36,29
15,23,9,-19,3,15,29,47,44,38,37,29
16,23,8,-19,3,15,29,48,44,39,37,29
16,24,8,-19,4,15,29,49,45,40,38,30
17,24,7,-19,4,15,29,49,45,41,38,30
17,24,7,-19,5,15,30,50,46,41,39,30
17,24,6,-20,5,15,30,50,46,42,39,30
17,24,6,-20,5,15,30,51,47,42,40,30
17,24,6,-20,5,15,30,52,47,42,40,30
18,24,6,-20,5,15,30,52,47,42,40,30
19,24,5,-20,6,15,30,52,47,42,40,30
19,24,5,-21,7,14,30,52,47,42,40,30
19,24,5,-21,6,14,31,53,47,43,40,30
19,24,5,-20,6,14,31,53,47,43,40,30
18,24,5,-20,6,14,31,53,47,43,39,30
18,23,5,-20,6,14,31,53,47,42,39,30
18,23,5,-20,6,13,31,53,46,42,39,29
18,22,5,-20,6,13,31,53,46,41,38,29
17,22,5,-20,6,13,31,53,46,41,38,29
17,22,4,-19,7,13,31,53,46,40,38,28
18,21,4,-19,7,12,31,52,45,40,37,28
18,20,3,-18,7,12,31,51,44,39,36,27
17,19,3,-17,7,11,31,50,43,38,34,27
18,20,3,-18,7,10,31,49,42,38,34,26
7,8,2,-7,2,4,27,45,37,33,29,22
-20,-18,2,19,-11,-9,18,36,28,23,20,12
-31,-30,2,31,-16,-14,15,31,24,18,15,8
-20,-19,1,20,-11,-9,18,34,27,21,18,10
-9,-8,1,9,-5,-4,21,37,29,24,20,13
-5,-4,1,5,-3,-3,23,38,29,24,20,13
-5,-4,0,5,-2,-3,23,37,28,23,19,13
-3,-3,0,4,-1,-2,24,37,28,23,19,13
-42,-42,0,43,-21,-22,12,24,14,9,5,0
-137,-138,0,138,-68,-70,-19,-8,-19,-24,-27,-33
-183,-183,0,184,-91,-93,-34,-24,-35,-40,-44,-50
-133,-134,-1,134,-66,-68,-18,-8,-19,-25,-28,-35
-69,-71,-1,71,-34,-37,3,11,0,-6,-8,-15
-34,-37,-1,37,-17,-20,14,22,11,4,2,-5
-15,-17,-1,17,-7,-10,21,28,16,10,7,1
-2,-5,-2,5,0,-4,26,32,20,14,11,4
4,1,-2,-2,3,-1,28,34,21,15,12,6
5,1,-2,-2,4,-1,28,33,20,14,11,6
3,0,-2,-1,3,-1,28,32,19,12,10,5
6,2,-2,-3,4,0,29,31,19,12,10,5
8,4,-2,-5,5,0,29,31,18,11,9,4
7,3,-2,-4,4,-1,29,29,17,10,7,3
6,2,-2,-3,4,-1,29,28,15,8,6,2
4,0,-3,-1,3,-2,29,27,14,7,5,1
4,0,-3,-1,4,-2,29,26,13,7,4,1
7,3,-4,-4,6,-1,30,27,13,7,4,1
10,5,-4,-7,7,0,31,27,13,7,5,1
10,5,-4,-7,7,0,31,26,13,6,4,0
11,5,-4,-8,7,0,31,25,13,5,3,0
11,5,-5,-7,7,0,31,24,12,4,2,-1
11,4,-5,-7,7,-1,31,24,11,3,1,-2
11,4,-5,-7,7,-1,31,24,10,3,1,-2
11,4,-5,-6,7,-2,31,23,10,2,0,-2
10,3,-6,-6,7,-2,31,23,9,1,0,-3
9,2,-6,-4,7,-2,31,22,8,0,-1,-4
7,0,-6,-2,6,-4,31,21,7,0,-2,-6
4,-3,-6,0,5,-5,30,20,6,-2,-3,-8
3,-3,-6,1,5,-6,30,19,5,-3,-4,-9
4,-2,-6,0,5,-5,31,18,5,-3,-5,-9
6,0,-6,-2,6,-4,31,18,5,-3,-5,-9
7,0,-6,-3,6,-4,31,18,5,-3,-5,-9
8,1,-7,-4,7,-3,31,18,5,-3,-5,-9
8,1,-7,-4,7,-3,32,18,5,-3,-5,-9
6,-1,-6,-2,6,-4,31,18,4,-3,-5,-10
1,-5,-6,2,3,-6,30,16,3,-5,-7,-11
1,-6,-6,3,3,-6,30,16,3,-5,-7,-12
3,-3,-6,0,5,-5,31,17,3,-4,-7,-12
5,-1,-6,-2,5,-4,32,18,4,-4,-6,-11
6,0,-6,-2,6,-3,32,18,4,-4,-6,-11
7,0,-6,-3,6,-3,33,18,4,-4,-6,-11
8,1,-6,-4,7,-3,33,18,5,-4,-6,-11
9,1,-6,-4,8,-3,33,18,5,-4,-5,-11
9,1,-6,-4,8,-3,33,18,5,-4,-5,-11
8,1,-6,-4,7,-3,33,19,5,-4,-5,-11
8,1,-6,-4,7,-3,33,19,5,-3,-5,-11
8,1,-6,-4,7,-3,33,18,5,-3,-5,-12
8,1,-6,-4,7,-3,33,18,5,-3,-5,-12
8,1,-6,-4,7,-3,33,18,5,-3,-5,-13
8,1,-6,-4,7,-3,33,18,5,-3,-5,-13
8,1,-6,-4,7,-3,33,18,5,-3,-5,-13
8,1,-6,-4,7,-3,33,18,5,-3,-5,-13
8,1,-6,-4,7,-3,33,18,5,-3,-5,-13
8,1,-7,-4,7,-3,33,18,5,-3,-5,-13
8,1,-7,-4,7,-3,32,18,5,-3,-5,-13
8,1,-7,-4,7,-3,32,18,6,-3,-5,-13
8,1,-7,-4,7,-3,32,18,6,-3,-5,-13
8,1,-7,-4,7,-3,32,18,6,-3,-5,-12
8,1,-7,-4,8,-3,32,18,6,-3,-5,-12
8,1,-7,-4,8,-3,32,18,6,-3,-5,-12
8,0,-7,-3,8,-3,32,18,6,-3,-5,-12
8,0,-8,-3,8,-4,32,18,6,-3,-5,-11
9,0,-8,-4,9,-4,32,18,6,-3,-5,-11
9,0,-9,-4,9,-4,32,18,6,-3,-5,-11
9,0,-9,-4,9,-4,32,18,6,-3,-5,-11
9,0,-9,-4,9,-4,32,18,6,-3,-5,-11
9,0,-8,-4,9,-4,33,18,6,-3,-5,-11
9,0,-8,-4,9,-3,33,18,6,-3,-5,-11
9,0,-8,-4,9,-3,34,18,6,-2,-5,-11
9,0,-8,-4,9,-3,34,18,6,-2,-5,-11
9,0,-8,-4,9,-3,34,18,6,-2,-5,-11
9,0,-8,-4,9,-3,35,18,6,-2,-4,-11
9,0,-8,-4,9,-3,35,17,6,-2,-4,-11
9,0,-8,-4,9,-4,35,17,5,-2,-4,-11
10,0,-8,-5,9,-4,35,16,5,-2,-4,-11
10,1,-8,-5,9,-3,34,16,5,-2,-4,-11
10,1,-8,-5,9,-3,34,16,5,-2,-5,-11
10,1,-8,-5,9,-3,34,15,5,-3,-5,-11
10,1,-8,-5,9,-3,34,15,5,-3,-5,-11
10,1,-8,-5,9,-3,34,14,5,-3,-5,-11
10,1,-8,-5,9,-3,34,14,4,-3,-5,-11
10,1,-8,-5,9,-3,34,14,4,-3,-5,-11
10,1,-8,-5,9,-3,34,14,4,-3,-5,-11
9,1,-8,-5,9,-3,34,14,4,-3,-5,-11
8,0,-9,-4,9,-4,34,14,4,-4,-6,-11
7,-2,-9,-2,8,-5,33,13,3,-4,-6,-12
6,-3,-9,-1,8,-6,33,13,3,-4,-6,-12
5,-4,-9,-1,8,-6,32,13,3,-4,-6,-12
5,-5,-9,0,8,-7,32,12,2,-5,-7,-13
4,-6,-9,0,7,-8,31,12,2,-5,-7,-13
4,-6,-9,0,7,-8,31,11,2,-5,-7,-12
5,-4,-9,-1,8,-7,31,11,2,-5,-7,-11
7,-2,-9,-2,8,-6,31,12,3,-4,-6,-11
8,-2,-9,-3,8,-5,31,12,3,-4,-6,-11
8,-1,-9,-3,9,-5,31,12,3,-4,-5,-11
9,-1,-9,-3,9,-5,31,12,3,-4,-5,-10
9,-1,-9,-4,10,-5,31,13,3,-4,-5,-10
10,0,-10,-4,10,-5,31,13,3,-4,-5,-10
10,0,-10,-4,10,-5,31,13,3,-4,-5,-10
10,0,-10,-4,10,-5,31,12,3,-4,-5,-9
9,0,-9,-4,9,-5,30,12,3,-4,-5,-9
9,0,-9,-4,9,-5,30,12,3,-4,-5,-9
9,0,-10,-4,10,-5,29,12,3,-4,-5,-9
10,0,-10,-5,10,-5,29,12,3,-4,-5,-8
10,0,-9,-5,10,-4,29,12,3,-3,-5,-8
10,0,-9,-5,10,-4,29,12,3,-3,-5,-8
10,0,-9,-5,10,-4,30,12,3,-3,-5,-7
9,0,-9,-5,10,-4,30,12,3,-3,-5,-7
9,0,-9,-5,10,-4,30,12,3,-3,-5,-7
10,0,-9,-5,10,-4,30,12,3,-3,-5,-7
10,0,-9,-5,10,-4,30,13,3,-3,-5,-7
10,0,-9,-5,9,-3,30,13,3,-2,-4,-6
10,0,-9,-5,9,-3,30,13,3,-2,-4,-6
10,1,-8,-5,9,-3,30,13,3,-1,-4,-5
10,1,-8,-5,9,-3,30,13,3,-1,-4,-5
10,2,-8,-6,9,-3,30,13,4,-1,-4,-5
10,2,-8,-6,9,-3,30,13,4,-1,-3,-5
10,1,-8,-6,9,-3,29,13,4,-1,-3,-5
9,0,-8,-5,8,-3,29,13,4,-1,-3,-5
9,1,-7,-5,8,-3,29,13,4,-1,-3,-5
10,2,-7,-6,9,-2,29,14,4,-1,-3,-5
10,2,-7,-7,9,-2,29,14,4,-1,-3,-5
10,1,-7,-6,9,-2,29,14,4,-1,-3,-5
10,1,-7,-6,9,-2,29,14,5,0,-2,-4
11,3,-7,-7,10,-2,29,14,5,0,-2,-3
3,-5,-7,1,5,-6,26,11,2,-3,-4,-6
-14,-23,-7,19,-3,-15,20,5,-3,-8,-10,-11
-19,-28,-8,23,-5,-18,17,3,-5,-10,-11,-13
-12,-21,-8,16,-1,-15,18,5,-3,-7,-9,-10
-5,-15,-9,9,2,-12,20,7,0,-5,-7,-8
1,-9,-9,3,5,-9,21,8,1,-3,-5,-6
6,-4,-9,-1,7,-6,22,9,2,-2,-4,-4
9,0,-9,-4,9,-5,22,10,3,-1,-3,-3
11,2,-9,-6,10,-3,23,10,3,-1,-2,-2
11,2,-8,-7,10,-3,23,10,3,-1,-2,-2
8,0,-8,-4,8,-4,22,9,2,-2,-4,-3
5,-3,-8,-1,7,-5,20,7,1,-4,-5,-4
6,-2,-8,-2,8,-4,20,7,0,-4,-5,-3
9,0,-8,-5,9,-3,20,7,0,-3,-5,-3
11,2,-8,-7,9,-2,19,6,0,-3,-5,-2
11,3,-7,-8,10,-2,19,6,0,-4,-5,-2
11,3,-7,-8,10,-2,19,5,0,-4,-5,-2
12,4,-7,-9,10,-1,19,6,0,-3,-5,-2
13,5,-7,-10,11,-1,19,6,1,-3,-4,-1
14,6,-8,-10,11,0,18,7,1,-2,-4,0
14,6,-8,-10,11,0,18,7,1,-2,-4,0
14,5,-8,-10,11,-1,17,6,1,-2,-4,0
13,4,-8,-9,11,-1,17,6,0,-3,-5,0
13,4,-8,-8,11,-2,16,6,0,-3,-5,0
12,3,-8,-8,11,-2,16,6,0,-3,-5,0
10,1,-8,-6,10,-3,16,5,0,-3,-5,0
5,-4,-9,0,7,-6,14,4,-1,-5,-7,-2
0,-9,-9,4,5,-8,13,2,-3,-7,-8,-3
0,-9,-9,4,6,-9,13,2,-3,-7,-9,-4
3,-7,-9,1,7,-8,14,2,-3,-7,-8,-4
6,-5,-10,0,9,-8,14,2,-2,-6,-8,-3
7,-4,-11,-1,10,-8,14,3,-2,-6,-7,-3
8,-4,-11,-2,10,-8,14,3,-2,-5,-7,-3
9,-4,-12,-2,11,-8,15,3,-2,-5,-7,-3
9,-3,-12,-3,11,-7,16,4,-2,-4,-7,-2
10,-3,-12,-3,11,-7,16,4,-2,-4,-7,-2
10,-3,-12,-4,11,-7,16,4,-2,-4,-7,-2
10,-2,-12,-4,11,-7,15,4,-2,-5,-7,-2
10,-2,-12,-4,11,-7,15,3,-2,-5,-7,-3
10,-3,-12,-3,11,-7,14,3,-2,-5,-7,-3
9,-3,-12,-3,11,-7,14,3,-2,-5,-7,-3
9,-3,-12,-3,11,-7,14,3,-2,-5,-6,-3
9,-3,-12,-3,11,-7,14,3,-2,-5,-6,-3
9,-3,-12,-3,11,-7,15,3,-2,-5,-6,-3
9,-3,-12,-3,11,-7,15,3,-2,-5,-6,-3
9,-3,-12,-3,11,-7,15,3,-2,-5,-6,-3
9,-3,-12,-2,11,-7,14,3,-2,-5,-6,-3
8,-3,-11,-2,10,-7,14,3,-2,-5,-6,-3
7,-3,-11,-1,9,-7,14,3,-2,-5,-6,-3
8,-3,-11,-2,9,-7,14,3,-2,-5,-6,-3
9,-3,-12,-2,10,-7,14,3,-2,-5,-6,-3
9,-3,-12,-2,10,-7,14,3,-2,-5,-6,-3
9,-4,-12,-2,10,-7,14,4,-2,-5,-6,-3
8,-4,-12,-2,10,-7,14,4,-2,-5,-6,-3
8,-4,-12,-2,10,-7,14,4,-2,-5,-6,-3
8,-4,-12,-2,10,-7,13,4,-1,-5,-6,-3
8,-4,-12,-2,10,-7,13,4,-1,-4,-6,-3
8,-4,-12,-2,10,-7,14,4,-1,-4,-5,-3
8,-4,-11,-2,10,-7,14,4,-1,-4,-5,-3
8,-4,-11,-2,10,-7,14,4,-1,-4,-5,-3
7,-4,-10,-2,10,-7,14,4,-1,-4,-5,-3
7,-3,-10,-2,10,-7,13,4,-1,-4,-5,-3
7,-3,-10,-2,9,-6,13,4,-1,-4,-5,-3
7,-2,-10,-2,9,-6,13,4,-1,-4,-5,-3
7,-2,-10,-2,9,-6,13,4,-1,-4,-5,-3
7,-2,-9,-2,8,-6,13,4,-1,-4,-5,-3
7,-2,-9,-2,8,-6,13,4,-1,-4,-5,-3
7,-2,-9,-2,8,-6,13,4,-1,-4,-5,-3
7,-2,-9,-2,8,-6,13,4,-1,-4,-5,-3
6,-2,-9,-1,8,-6,13,5,-1,-4,-5,-4
6,-3,-9,-1,8,-6,13,5,-1,-4,-5,-4
6,-3,-9,-1,7,-6,13,6,-1,-4,-5,-5
6,-3,-9,-1,7,-6,13,6,0,-4,-5,-5
6,-3,-9,-1,7,-6,13,7,0,-3,-5,-5
6,-4,-9,0,7,-6,14,9,1,-3,-4,-5
6,-4,-9,-1,8,-6,14,10,2,-2,-3,-5
7,-4,-10,-1,9,-7,14,13,4,0,-1,-4
9,-4,-12,-2,11,-8,14,15,7,3,1,-4
10,-4,-13,-2,12,-8,14,19,11,7,5,-2
11,-4,-15,-3,13,-9,14,23,15,12,10,0
13,-4,-16,-4,14,-9,14,28,21,18,15,2
14,-3,-17,-5,15,-9,14,33,27,25,22,6
16,-2,-17,-7,17,-9,14,37,34,32,30,10
19,0,-18,-9,18,-9,13,39,41,40,38,15
21,2,-18,-11,20,-8,11,41,49,49,48,21
24,5,-18,-14,21,-7,10,41,58,59,58,28
27,8,-18,-17,23,-5,8,40,66,70,69,35
30,12,-19,-21,24,-3,5,35,74,80,81,43
34,16,-19,-24,26,-1,1,25,80,89,91,51
37,20,-18,-28,28,0,-2,12,83,96,100,60
41,24,-17,-32,29,3,-6,-2,85,100,107,67
43,28,-15,-35,29,6,-9,-15,83,100,109,73
45,31,-13,-38,29,9,-12,-29,76,95,105,75
44,34,-10,-39,28,11,-14,-42,64,84,95,73
42,35,-8,-38,25,13,-16,-55,49,68,80,68
38,34,-4,-36,22,15,-17,-69,31,49,61,59
32,33,0,-32,16,16,-19,-86,10,27,39,49
24,30,6,-26,9,18,-21,-104,-13,3,15,38
16,28,11,-21,2,19,-24,-122,-36,-20,-8,27
9,25,16,-16,-3,19,-27,-139,-59,-44,-31,16
2,22,20,-11,-9,20,-30,-156,-81,-66,-53,5
-5,19,24,-6,-14,21,-33,-170,-100,-86,-72,-5
-11,17,29,-2,-20,23,-35,-181,-115,-102,-87,-13
-16,16,32,1,-24,23,-40,-189,-126,-113,-98,-19
-20,14,34,3,-26,24,-45,-195,-134,-120,-107,-24
-22,14,36,5,-29,24,-51,-199,-141,-126,-113,-28
-24,14,38,6,-31,25,-56,-202,-145,-130,-118,-31
-25,14,39,6,-32,27,-58,-201,-146,-132,-120,-33
-26,14,41,6,-34,28,-60,-198,-144,-132,-120,-33
-26,16,43,6,-35,30,-60,-191,-140,-129,-118,-33
-26,18,45,5,-35,31,-58,-181,-133,-123,-113,-32
-26,19,46,4,-36,33,-56,-170,-126,-116,-108,-30
-25,21,46,2,-35,34,-53,-158,-117,-109,-101,-28
-24,22,46,1,-35,34,-48,-146,-108,-101,-94,-26
-24,21,45,1,-34,33,-44,-133,-99,-93,-87,-23
-23,19,42,2,-33,31,-41,-121,-90,-85,-80,-21
-20,18,39,1,-30,29,-36,-109,-81,-77,-73,-19
-17,18,36,0,-26,28,-31,-96,-72,-68,-64,-17
-13,19,34,-2,-23,27,-26,-83,-62,-59,-56,-14
-10,19,30,-3,-20,25,-22,-73,-54,-52,-49,-12
-9,17,26,-3,-17,22,-19,-64,-48,-46,-44,-11
-9,14,22,-2,-15,18,-17,-57,-42,-40,-39,-10
-9,11,20,0,-15,15,-15,-50,-37,-36,-35,-10
-9,8,18,0,-14,12,-13,-45,-33,-32,-31,-9
-8,7,16,0,-12,11,-11,-40,-29,-29,-28,-9
-5,8,15,0,-10,11,-9,-35,-25,-25,-24,-8
-3,9,14,-2,-8,12,-7,-31,-22,-22,-21,-7
-2,10,14,-4,-7,12,-5,-28,-19,-19,-18,-6
-2,10,13,-4,-7,12,-4,-25,-17,-17,-16,-5
-3,9,13,-3,-7,11,-3,-22,-16,-16,-15,-5
-4,8,12,-1,-8,10,-3,-21,-15,-14,-13,-5
-6,6,12,0,-9,9,-3,-20,-13,-13,-12,-5
-6,6,12,0,-9,9,-3,-18,-12,-12,-11,-4
-5,7,12,-1,-9,10,-2,-16,-10,-10,-9,-4
-3,8,12,-2,-8,10,0,-14,-8,-8,-7,-3
-1,10,12,-4,-7,11,0,-12,-6,-6,-5,-2
0,11,12,-5,-6,11,1,-10,-5,-5,-4,-2
-1,9,11,-3,-6,10,1,-9,-4,-4,-3,-2
-3,7,11,-1,-7,9,0,-8,-4,-4,-3,-3
-5,5,11,0,-7,8,0,-8,-4,-4,-3,-3
-5,5,11,0,-7,8,0,-8,-3,-3,-3,-3
-3,7,11,-1,-6,9,0,-7,-2,-2,-2,-2
0,10,11,-4,-5,11,1,-5,-1,-1,0,-2
1,12,11,-6,-4,12,1,-4,0,0,1,-1
2,12,11,-6,-4,12,1,-2,1,1,2,-1
1,11,11,-5,-5,11,1,-2,1,1,2,-1
-1,9,11,-3,-5,9,1,-2,1,2,2,-1
-3,7,11,-1,-6,9,1,-2,1,2,3,-1
-4,7,11,-1,-7,9,1,-1,2,3,3,0
-3,7,11,-2,-6,10,1,-1,3,4,4,0
0,9,11,-4,-6,10,1,0,4,4,5,0
1,11,11,-6,-5,11,2,1,5,5,6,1
2,12,10,-7,-5,11,2,2,6,6,7,1
1,12,10,-6,-5,11,2,3,6,7,8,1
0,10,10,-5,-5,10,1,3,6,7,8,1
-1,9,10,-3,-5,10,1,3,7,7,8,2
-2,8,10,-3,-5,9,1,3,7,8,8,2
-1,9,10,-3,-5,9,1,4,8,8,9,3
0,10,10,-5,-5,10,2,5,9,9,10,4
2,12,10,-6,-4,11,2,6,10,11,12,5
3,13,10,-7,-4,11,3,7,11,12,13,5
3,13,10,-7,-4,11,3,8,12,13,14,6
2,12,10,-7,-4,10,3,9,13,15,15,7
2,11,10,-6,-3,11,4,10,14,16,16,7
2,12,10,-7,-3,11,4,11,16,17,17,8
2,12,11,-7,-3,12,5,12,17,18,18,9
2,12,11,-7,-3,12,5,13,17,18,19,10
2,12,10,-6,-4,11,4,13,17,19,19,10
1,11,10,-5,-5,10,3,14,18,19,20,10
1,11,10,-5,-5,10,3,15,18,20,20,10
2,12,10,-7,-4,11,4,16,20,21,21,11
4,14,10,-9,-3,12,5,18,21,22,22,12
6,16,10,-10,-2,13,6,20,22,23,23,13
6,16,10,-11,-1,13,7,21,23,24,24,13
6,16,9,-10,-1,13,6,22,23,24,24,13
5,14,9,-9,-2,12,5,22,24,24,24,13
4,12,9,-8,-3,11,4,22,24,25,25,12
3,11,9,-7,-3,10,3,24,25,26,26,13
4,12,9,-8,-2,11,3,26,27,27,27,14
6,14,9,-10,-1,12,4,28,29,29,29,15
8,16,9,-12,0,13,5,30,31,31,31,17
9,17,9,-13,0,13,6,31,32,33,33,18
9,17,8,-13,0,13,7,32,33,34,34,18
8,16,8,-12,0,12,6,33,34,34,34,18
8,14,7,-11,0,11,6,33,34,34,34,18
7,13,6,-10,0,10,5,34,34,35,35,18
8,14,6,-10,1,10,5,35,35,36,36,19
9,15,6,-12,1,11,5,37,36,37,37,20
10,17,6,-13,2,12,6,39,38,38,39,21
11,18,6,-14,2,12,7,40,39,39,40,21
11,18,6,-14,2,12,7,41,40,40,41,21
11,17,6,-14,2,11,7,41,40,40,41,22
10,16,6,-13,2,11,7,42,41,41,42,22
10,15,6,-12,2,11,7,42,41,41,42,22
10,15,6,-12,2,11,7,43,41,41,42,22
11,16,6,-13,2,11,7,44,42,42,42,22
12,17,6,-14,3,12,8,45,42,42,42,22
12,18,6,-15,3,12,8,46,43,43,43,22
13,18,5,-15,3,11,8,46,43,43,43,22
13,17,4,-14,4,11,8,46,43,43,43,22
13,16,4,-13,4,10,8,46,43,43,43,22
12,15,3,-13,4,10,8,46,43,42,42,22
12,14,3,-12,4,9,8,46,42,42,42,21
12,14,3,-12,4,9,8,46,42,41,41,21
12,15,3,-13,4,9,8,46,42,41,41,21
12,15,3,-13,5,9,9,46,41,41,41,21
12,15,3,-13,5,9,9,46,41,41,41,21
12,15,3,-13,5,9,9,46,41,41,40,21
12,14,2,-12,5,8,9,45,40,40,40,20
12,14,2,-12,5,8,10,45,39,39,39,20
11,13,2,-12,5,8,10,44,38,38,38,19
11,13,2,-12,5,8,10,44,37,38,37,19
11,14,2,-12,5,8,10,43,37,37,36,18
11,14,2,-12,4,8,10,42,36,36,35,17
11,14,3,-12,4,8,10,41,35,35,34,17
10,14,3,-11,4,8,10,41,35,34,33,16
10,14,3,-11,4,8,10,40,34,32,32,16
10,13,3,-11,4,8,10,39,32,31,31,15
10,13,2,-10,4,7,10,38,31,30,30,14
10,12,2,-10,4,7,10,38,29,28,29,13
10,11,1,-10,5,6,10,37,28,27,28,13
10,11,0,-10,5,5,10,37,27,26,27,13
10,10,0,-9,6,5,10,36,26,25,26,12
9,10,0,-9,6,4,9,35,26,24,25,11
9,9,-1,-9,6,4,9,34,25,23,24,10
10,8,-1,-8,6,3,9,33,24,22,23,10
10,8,-2,-8,6,3,9,32,22,21,22,9
9,7,-2,-8,6,2,9,31,21,20,21,9
9,7,-2,-8,5,2,9,30,20,19,20,8
9,6,-2,-7,5,2,9,30,19,18,19,7
9,6,-2,-7,5,1,9,29,19,17,18,6
9,6,-2,-7,5,1,9,28,18,16,17,5
8,5,-3,-6,5,1,9,27,16,15,16,4
7,4,-3,-5,5,0,9,26,15,14,15,3
6,3,-3,-5,5,0,9,25,14,13,13,3
6,3,-3,-4,5,0,9,24,13,12,12,2
6,3,-3,-4,5,0,9,24,12,11,11,1
6,3,-4,-4,5,0,9,23,11,10,11,0
6,3,-4,-4,5,0,9,23,11,9,10,-1
6,3,-4,-4,5,0,9,22,10,9,9,-2
6,2,-4,-4,5,-1,9,21,9,8,8,-3
6,2,-4,-4,5,-1,9,20,8,7,7,-3
6,1,-4,-4,5,-1,9,19,7,6,7,-4
5,1,-4,-3,5,-1,9,19,6,5,6,-5
5,0,-4,-3,5,-2,9,18,5,4,5,-6
4,0,-5,-2,5,-3,9,18,4,3,5,-7
4,-1,-6,-1,5,-4,9,17,3,2,4,-7
4,-2,-6,0,5,-4,8,16,2,1,3,-7
3,-2,-6,0,5,-4,8,15,2,1,3,-7
3,-1,-6,0,5,-4,8,14,2,1,2,-7
3,-1,-5,0,5,-3,8,14,1,1,2,-7
3,-1,-5,0,5,-3,8,13,1,0,2,-7
3,-1,-4,0,5,-2,8,13,1,0,2,-7
3,-1,-4,0,5,-2,8,14,1,0,2,-7
3,-1,-4,-1,5,-2,9,14,1,0,2,-7
3,-1,-4,-1,5,-3,9,14,1,0,2,-7
3,-1,-4,0,5,-3,9,14,1,0,2,-8
2,-2,-5,0,5,-4,9,14,1,0,2,-8
2,-3,-5,1,5,-4,10,14,1,0,2,-8
1,-4,-6,2,5,-5,10,14,1,0,2,-9
1,-5,-6,2,5,-5,10,14,1,0,2,-9
1,-5,-6,2,5,-5,10,14,1,0,2,-9
1,-5,-6,2,5,-5,10,14,1,0,2,-9
1,-5,-6,2,5,-5,10,14,1,0,3,-9
0,-5,-6,2,4,-5,10,14,1,0,3,-9
0,-5,-6,2,4,-5,10,14,1,0,3,-9
0,-4,-5,2,4,-5,10,14,1,0,3,-10
0,-4,-5,2,4,-5,10,15,1,1,3,-10
0,-4,-5,2,4,-5,10,15,1,1,3,-10
0,-4,-5,2,4,-5,10,15,1,1,3,-10
0,-4,-5,2,4,-5,10,15,1,1,3,-10
0,-4,-5,2,4,-5,10,15,1,1,3,-10
0,-4,-4,2,4,-5,10,14,1,1,3,-10
0,-4,-4,2,3,-5,10,14,1,1,3,-10
0,-4,-4,2,3,-5,10,14,1,1,3,-10
0,-4,-4,2,3,-4,10,14,1,1,4,-10
0,-4,-4,2,3,-4,11,14,2,2,4,-10
0,-4,-3,3,2,-3,11,14,2,2,4,-10
0,-4,-3,3,2,-3,11,14,2,2,4,-10
0,-4,-4,3,3,-4,11,14,2,1,4,-10
0,-4,-5,2,4,-4,11,13,2,1,4,-10
0,-4,-4,2,3,-3,10,13,2,1,4,-10
1,-3,-4,2,3,-3,10,13,2,1,4,-10
1,-3,-4,2,3,-3,10,13,2,1,4,-10
1,-3,-4,2,3,-3,10,13,2,1,4,-10
1,-3,-4,2,3,-3,10,14,2,1,4,-10
1,-3,-4,2,3,-3,10,14,2,1,4,-9
1,-4,-4,2,3,-4,10,14,2,1,4,-9
1,-4,-5,2,3,-5,10,14,2,1,4,-9
0,-5,-5,3,3,-5,10,14,2,1,4,-9
0,-5,-5,3,3,-5,10,14,2,1,4,-9
0,-5,-5,3,3,-6,10,14,2,1,4,-9
0,-5,-5,3,4,-6,10,14,2,1,4,-8
0,-5,-5,3,4,-6,9,14,2,2,4,-8
0,-5,-5,3,4,-6,9,14,2,2,4,-8
0,-5,-5,3,4,-6,9,13,2,2,4,-8
0,-5,-5,3,4,-6,9,13,2,2,4,-8
0,-5,-5,3,4,-5,9,13,2,2,4,-8
0,-5,-5,3,4,-5,9,13,2,2,4,-8
0,-5,-5,3,4,-5,9,13,2,2,4,-8
0,-5,-5,3,4,-5,9,13,2,2,4,-9
0,-6,-5,3,4,-5,8,13,1,2,4,-9
0,-6,-5,3,3,-5,8,12,1,2,3,-9
0,-5,-5,3,3,-5,7,12,0,2,3,-9
1,-5,-5,2,3,-5,7,11,0,2,3,-9
0,-4,-4,2,3,-5,7,11,0,1,3,-9
0,-4,-4,2,3,-5,7,11,0,1,3,-10
0,-4,-4,2,3,-4,7,11,0,0,2,-10
0,-4,-4,2,2,-4,7,11,0,0,2,-11
0,-4,-3,2,2,-4,7,11,0,0,2,-11
0,-4,-3,2,2,-4,8,11,0,0,2,-11
0,-4,-3,2,2,-4,8,11,0,0,2,-11
0,-5,-4,2,2,-5,8,11,0,0,2,-10
1,-5,-5,2,3,-6,8,11,0,0,2,-10
1,-6,-6,3,4,-7,8,10,0,0,2,-9
0,-7,-7,4,4,-7,8,10,0,0,2,-9
0,-7,-7,4,4,-7,8,10,0,0,2,-8
0,-7,-7,4,4,-7,8,10,0,0,3,-8
0,-7,-7,4,4,-7,7,10,0,0,3,-8
0,-7,-6,3,4,-7,7,9,0,0,3,-8
0,-7,-6,3,4,-6,7,9,0,0,3,-8
0,-6,-5,3,3,-6,7,9,0,0,3,-8
0,-6,-5,3,3,-6,7,9,0,0,3,-8
0,-6,-5,3,3,-6,8,9,0,0,3,-8
0,-5,-5,2,3,-5,8,9,0,0,3,-7
0,-5,-5,2,3,-5,8,9,0,0,3,-7
0,-5,-5,2,3,-5,8,9,0,0,3,-7
0,-4,-4,2,3,-4,8,9,0,1,3,-7
0,-4,-4,2,3,-4,8,10,0,1,3,-7
1,-3,-4,1,3,-4,8,10,0,1,3,-7
1,-3,-4,1,3,-4,8,10,0,1,3,-7
1,-3,-4,1,3,-4,8,10,0,1,3,-7
1,-3,-4,1,3,-4,8,10,0,1,3,-7
1,-2,-4,0,3,-4,8,10,0,1,3,-7
1,-2,-4,0,3,-3,8,10,0,1,3,-7
1,-2,-3,1,3,-3,8,10,0,1,3,-7
0,-3,-3,1,2,-3,8,10,0,1,3,-7
1,-2,-3,0,2,-3,8,10,0,1,3,-7
1,-1,-3,0,2,-3,8,10,0,1,3,-7
1,-1,-3,0,2,-2,8,10,0,1,4,-6
1,-1,-2,0,2,-2,8,10,0,1,5,-5
1,-1,-2,0,2,-1,8,10,0,1,5,-4
1,-1,-1,0,1,-1,9,10,0,2,6,-4
1,0,-1,0,2,-1,9,10,1,2,6,-3
2,0,-1,0,2,-1,9,10,1,3,6,-2
2,0,-1,0,2,-1,9,10,1,3,6,-2
2,0,-1,0,3,-1,9,10,1,3,6,-2
2,0,-2,0,3,-1,8,10,1,3,6,-2
2,0,-2,-1,3,-2,8,10,1,3,6,-2
3,0,-3,-1,3,-2,8,10,1,3,6,-2
3,0,-3,-1,4,-2,7,10,1,3,6,-2
3,0,-3,-1,4,-2,7,9,0,2,6,-2
2,-1,-3,-1,3,-2,6,9,0,2,6,-2
2,-1,-3,-1,3,-2,6,8,0,2,5,-2
2,-1,-3,-1,3,-2,6,8,-1,2,5,-2
2,-1,-3,-1,3,-2,6,7,-1,1,5,-2
2,0,-3,-1,3,-2,6,7,-1,1,5,-2
2,0,-2,-1,3,-1,5,6,-2,0,5,-2
2,0,-2,-1,3,-1,4,6,-2,0,4,-2
3,1,-2,-2,3,0,4,5,-3,0,4,-1
3,1,-2,-2,4,0,3,5,-3,0,4,-1
3,1,-2,-2,4,0,3,5,-3,0,4,-1
3,1,-1,-2,3,0,3,5,-3,0,4,-1
3,0,-2,-2,3,0,3,5,-3,0,3,-1
3,0,-3,-2,4,-1,3,4,-4,-1,3,-2
3,0,-3,-2,4,-2,3,4,-4,-1,3,-2
3,0,-4,-1,4,-2,4,4,-4,-1,3,-2
2,-1,-4,0,4,-2,4,4,-5,-1,3,-2
2,-1,-4,0,4,-2,4,4,-5,-1,3,-2
2,-2,-4,0,4,-3,4,4,-5,-1,3,-2
2,-2,-5,0,4,-3,4,4,-5,-1,3,-2
2,-3,-5,0,4,-4,4,3,-5,-2,2,-2
1,-3,-5,1,4,-4,4,3,-6,-2,2,-2
0,-3,-5,1,3,-4,4,3,-6,-2,2,-2
0,-4,-5,2,3,-4,4,3,-6,-2,1,-3
0,-5,-6,2,4,-5,4,2,-6,-3,1,-3
0,-6,-6,3,4,-6,3,2,-7,-3,0,-3
0,-6,-6,3,4,-5,3,2,-7,-4,0,-3
0,-5,-6,3,4,-5,3,2,-7,-4,0,-3
0,-5,-5,3,4,-5,3,2,-7,-4,0,-3
0,-5,-5,3,3,-5,3,2,-7,-4,0,-3
0,-5,-5,3,3,-5,3,2,-7,-4,0,-3
0,-5,-6,2,4,-6,3,2,-6,-3,1,-3
0,-5,-6,2,4,-6,3,3,-6,-2,2,-3
0,-6,-6,3,4,-6,4,3,-5,-2,2,-3
0,-6,-6,3,4,-7,4,3,-5,-2,2,-3
0,-7,-6,3,4,-7,4,3,-5,-2,2,-3
0,-7,-7,3,4,-7,4,3,-6,-2,2,-3
0,-7,-7,3,5,-8,4,3,-6,-2,1,-3
0,-7,-8,3,5,-8,4,4,-6,-2,1,-2
0,-8,-9,3,5,-9,4,4,-6,-2,1,-2
0,-8,-9,4,5,-9,4,4,-6,-2,1,-2
0,-8,-9,4,5,-9,4,4,-6,-2,1,-2
0,-8,-9,3,5,-9,4,4,-6,-2,1,-2
0,-8,-9,3,5,-9,4,4,-6,-2,1,-2
0,-8,-8,3,5,-8,5,4,-6,-2,1,-2
0,-8,-8,3,5,-8,5,4,-6,-2,2,-2
0,-7,-7,3,5,-7,5,4,-5,-2,2,-2
0,-6,-7,2,5,-7,5,4,-5,-2,2,-2
0,-6,-6,2,4,-6,5,4,-5,-2,1,-3
0,-6,-6,3,4,-6,5,4,-5,-2,1,-3
0,-6,-6,3,4,-6,6,4,-5,-2,1,-4
0,-6,-6,3,4,-6,6,4,-5,-2,1,-4
0,-6,-6,3,4,-6,6,5,-6,-2,1,-3
0,-7,-6,3,3,-7,7,5,-6,-2,1,-3
-1,-7,-7,4,3,-7,7,5,-6,-2,1,-3
-1,-8,-7,4,3,-7,7,5,-6,-2,2,-3
-1,-8,-7,4,3,-7,7,5,-6,-2,2,-2
0,-7,-7,3,4,-7,7,5,-6,-2,2,-2
0,-7,-8,3,4,-7,7,5,-6,-1,2,-2
0,-7,-7,3,4,-7,7,6,-5,-1,2,-2
0,-7,-7,3,4,-7,7,6,-5,-1,2,-2
0,-7,-7,3,4,-7,7,5,-5,-1,2,-2
0,-7,-7,4,4,-7,7,5,-5,-1,2,-2
0,-7,-7,4,4,-7,7,5,-5,-1,2,-2
0,-7,-6,4,4,-7,8,5,-5,-1,2,-2
-1,-7,-6,4,3,-7,8,6,-5,-1,2,-2
-1,-7,-6,4,3,-7,9,8,-4,0,2,-2
-1,-7,-6,4,3,-7,10,9,-3,0,3,-2
0,-8,-7,4,3,-8,10,11,-1,1,4,-2
0,-8,-8,4,4,-8,11,14,0,3,6,-1
1,-9,-9,3,6,-9,11,17,3,6,8,0
2,-9,-11,3,8,-10,11,20,7,10,12,0
4,-9,-13,3,10,-11,11,23,11,14,16,2
6,-9,-15,2,12,-12,11,28,17,20,21,5
8,-9,-17,1,13,-13,11,34,24,27,28,8
10,-9,-18,0,14,-13,11,39,31,36,36,13
12,-8,-18,-2,15,-13,10,43,39,45,45,18
14,-5,-18,-5,16,-12,9,46,48,55,56,24
17,-1,-18,-8,17,-10,8,48,58,65,67,31
20,2,-18,-12,19,-8,6,48,68,76,79,39
24,6,-18,-16,21,-6,3,45,77,87,90,48
28,10,-18,-19,23,-3,-1,36,83,97,101,57
31,15,-16,-23,24,0,-5,24,88,104,111,65
33,19,-13,-27,24,3,-9,9,89,109,117,73
35,24,-10,-30,23,7,-12,-5,86,108,119,77
35,28,-7,-32,21,11,-14,-20,78,102,114,79
34,31,-3,-33,19,14,-16,-34,67,90,104,77
33,32,0,-33,17,16,-16,-48,51,74,88,71
29,32,4,-31,13,18,-16,-61,33,55,69,63
22,31,9,-27,7,20,-17,-77,11,32,46,53
15,30,15,-22,0,22,-19,-95,-12,8,23,43
7,28,21,-17,-6,23,-21,-113,-35,-15,-1,32
-1,25,26,-12,-12,25,-24,-131,-59,-39,-24,21
-8,22,31,-7,-19,26,-28,-149,-81,-62,-46,10
-15,19,35,-2,-25,27,-31,-164,-100,-82,-66,1
-21,17,38,2,-29,28,-34,-176,-116,-97,-81,-6
-25,15,40,5,-32,28,-37,-184,-127,-108,-92,-12
-27,14,41,7,-34,28,-43,-190,-136,-117,-100,-17
-29,12,42,8,-35,27,-50,-195,-143,-124,-107,-22
-30,12,43,8,-36,28,-56,-198,-147,-128,-112,-25
-31,12,45,9,-38,29,-59,-199,-149,-130,-114,-27
-32,13,47,9,-39,30,-61,-196,-148,-129,-114,-28
-33,14,48,8,-40,31,-62,-191,-144,-127,-112,-27
-32,16,49,8,-41,32,-62,-183,-138,-122,-109,-26
-32,17,50,7,-41,33,-60,-172,-131,-116,-104,-25
-31,18,50,6,-40,34,-57,-161,-122,-109,-97,-23
-30,19,49,5,-40,34,-53,-149,-114,-101,-91,-21
-29,19,48,4,-38,33,-48,-136,-106,-94,-84,-19
-27,18,46,4,-36,32,-44,-124,-96,-86,-77,-16
-25,18,43,3,-34,30,-39,-112,-87,-77,-70,-14
-23,17,40,3,-31,28,-35,-100,-78,-69,-63,-12
-21,15,37,2,-28,26,-30,-88,-69,-61,-56,-10
-19,14,34,2,-25,24,-26,-78,-61,-54,-49,-8
-17,13,30,1,-22,22,-22,-69,-54,-48,-42,-6
-15,11,27,1,-20,19,-19,-60,-47,-42,-37,-5
-14,10,25,1,-18,17,-16,-52,-42,-37,-33,-4
-13,9,22,1,-17,15,-13,-46,-37,-32,-29,-3
-12,7,20,1,-16,13,-10,-41,-33,-29,-25,-2
-12,5,18,2,-15,12,-9,-36,-29,-26,-22,-2
-12,4,17,2,-14,10,-7,-33,-27,-23,-20,-1
-11,4,17,2,-13,10,-6,-31,-25,-21,-18,0
-11,4,16,2,-13,10,-5,-28,-23,-20,-16,0
-11,4,16,2,-12,10,-4,-26,-21,-18,-14,1
-10,5,15,2,-12,10,-2,-23,-20,-16,-12,1
-10,5,15,2,-12,10,-1,-20,-18,-14,-11,2
-10,5,15,2,-12,10,0,-19,-16,-12,-10,2
-9,5,15,2,-12,10,0,-17,-14,-11,-9,2
-9,5,15,2,-12,10,1,-16,-13,-10,-8,2
-9,5,14,1,-11,9,1,-14,-12,-9,-6,2
-8,4,14,1,-11,9,2,-13,-10,-7,-4,2
-9,4,14,2,-11,9,2,-11,-9,-6,-3,2
-9,4,14,2,-11,9,3,-9,-8,-4,-2,3
-9,4,14,2,-11,9,4,-8,-6,-3,-1,3
-9,4,14,2,-11,9,5,-7,-5,-2,0,4
-9,4,14,2,-11,9,5,-6,-4,-1,0,4
-9,4,14,2,-11,9,6,-6,-4,-1,1,4
-9,4,14,1,-11,9,6,-5,-3,0,2,5
-8,4,14,1,-11,9,6,-4,-3,0,2,5
-8,4,14,1,-11,9,6,-3,-2,1,3,6
-8,4,14,1,-11,9,7,-2,-1,2,4,6
-8,4,14,1,-11,9,7,-1,-1,2,4,7
-8,5,14,0,-10,9,8,0,0,3,5,7
-8,5,14,0,-10,9,8,0,0,3,5,7
-8,6,14,0,-10,9,8,0,1,4,6,8
-8,6,14,0,-10,10,8,0,1,4,7,8
-8,6,14,0,-10,10,8,0,2,5,7,9
-8,6,14,0,-10,10,8,1,3,5,8,9
-7,6,13,0,-10,10,8,2,3,6,8,10
-7,6,13,0,-9,10,8,2,4,7,9,10
-7,6,13,0,-9,10,8,3,4,7,10,11
-6,6,13,0,-9,10,8,4,5,8,11,11
-6,6,13,0,-9,10,9,4,6,8,11,12
-7,6,14,0,-10,10,9,5,7,9,12,12
-7,7,14,-1,-10,11,9,5,7,10,12,13
-7,7,14,-1,-10,11,9,6,8,10,13,14
-6,7,14,-1,-10,11,9,7,9,11,13,14
-6,8,14,-1,-10,11,9,8,10,12,14,15
-6,8,15,-2,-10,12,9,9,11,13,16,16
-6,9,15,-2,-10,12,10,10,12,14,17,16
-6,9,15,-3,-10,13,10,11,12,15,17,17
-6,10,15,-3,-10,13,10,11,13,16,18,17
-5,10,15,-3,-10,13,10,12,14,17,18,17
-5,10,15,-4,-10,13,10,13,15,18,19,18
-4,11,15,-4,-10,13,10,14,16,19,20,18
-4,11,16,-4,-10,14,10,16,17,20,22,19
-4,12,16,-5,-9,14,11,17,18,21,23,20
-4,12,16,-5,-9,14,11,19,19,22,24,20
-3,12,16,-5,-8,14,11,20,20,23,24,21
-3,12,15,-6,-8,14,11,21,22,23,25,21
-2,13,15,-6,-8,14,12,22,23,24,25,22
-2,13,15,-7,-8,14,12,23,23,25,26,22
-1,14,15,-7,-7,14,12,24,24,25,26,23
-1,14,14,-7,-7,14,12,25,25,26,27,23
0,14,14,-7,-7,14,12,27,26,28,29,24
0,14,14,-8,-6,14,12,28,27,29,30,24
1,14,13,-8,-5,14,12,29,28,29,30,25
1,14,13,-9,-5,13,13,30,29,30,31,25
2,14,12,-9,-4,13,13,31,30,31,32,26
2,14,12,-9,-4,13,13,32,31,32,33,26
2,14,12,-9,-4,13,13,33,32,33,34,27
2,14,11,-9,-4,13,13,34,32,34,34,27
2,14,11,-9,-4,13,13,36,33,34,35,27
3,14,11,-10,-4,13,13,37,34,35,36,28
3,14,11,-10,-3,13,13,38,35,36,36,28
3,14,11,-10,-3,13,13,38,35,36,37,28
3,14,11,-10,-3,13,14,39,36,36,37,28
3,14,11,-10,-2,13,14,39,36,37,37,28
4,14,10,-10,-2,13,14,40,37,37,38,28
4,14,10,-10,-2,13,15,41,37,37,38,28
4,14,9,-10,-1,12,15,42,37,37,38,27
5,14,9,-10,-1,12,16,42,37,37,38,27
5,14,8,-10,0,12,16,43,37,37,37,26
5,14,8,-10,0,12,16,43,37,37,37,26
5,14,8,-10,0,12,16,43,37,37,37,25
5,14,8,-10,0,11,17,43,37,37,37,25
5,14,8,-10,0,11,17,43,37,36,37,25
5,13,8,-10,0,10,18,43,36,36,36,25
5,13,8,-10,0,10,18,43,36,36,36,25
5,12,8,-9,0,10,18,43,35,36,35,25
4,12,7,-9,0,10,18,43,35,35,35,24
4,11,7,-8,0,9,18,43,34,35,34,24
4,11,6,-8,0,9,18,42,34,34,34,23
4,10,6,-8,0,9,18,42,34,33,33,23
4,10,6,-8,0,9,19,41,33,32,32,22
4,10,6,-8,0,9,19,40,32,32,31,22
4,10,6,-8,0,9,19,39,31,31,30,21
4,10,6,-8,0,9,19,38,30,30,29,20
4,10,6,-8,0,9,19,38,29,29,28,19
4,10,6,-7,0,8,19,37,28,28,27,18
4,10,6,-7,0,8,19,36,27,27,26,18
4,10,6,-7,0,8,19,35,26,26,25,17
3,9,6,-7,0,7,19,35,25,25,24,16
3,9,6,-7,0,7,19,34,24,24,23,15
3,8,5,-6,0,6,20,33,23,23,22,14
3,8,5,-6,0,6,20,32,22,22,21,13
3,7,5,-6,0,5,20,32,21,21,20,12
3,7,4,-5,0,5,20,31,20,19,19,12
2,6,4,-5,0,5,20,30,19,18,18,11
2,5,4,-4,0,5,19,29,18,17,17,10
2,5,4,-4,0,5,19,28,17,16,16,10
2,4,3,-4,0,4,19,27,15,15,14,9
1,4,2,-3,0,3,19,26,14,13,13,8
1,3,2,-3,0,3,19,25,13,12,12,7
0,2,2,-2,0,2,19,24,12,11,11,6
0,2,1,-2,0,2,19,23,11,10,10,5
0,1,1,-1,1,1,18,22,10,9,9,4
0,1,0,-1,1,1,18,22,9,8,8,3
0,1,0,-1,1,1,18,21,8,7,7,3
0,0,0,-1,1,0,18,21,7,6,6,2
0,0,-1,-1,1,0,18,20,6,5,5,1
0,-1,-1,0,1,0,18,19,5,4,4,0
0,-1,-1,0,1,0,18,18,4,3,3,0
-1,-1,0,0,1,0,18,18,4,3,2,-1
-1,-1,0,0,0,0,18,17,3,2,1,-2
-1,-2,0,1,0,0,18,16,2,1,0,-2
-1,-3,-1,1,1,-1,18,16,2,0,0,-3
-1,-3,-2,1,1,-2,18,15,1,0,-1,-3
-1,-4,-2,1,1,-2,18,15,1,-1,-1,-4
-1,-4,-2,2,1,-3,18,14,0,-1,-2,-5
-1,-4,-2,2,1,-3,18,14,0,-2,-3,-5
-1,-4,-2,2,1,-3,18,13,-1,-2,-3,-6
-2,-4,-2,2,1,-3,18,13,-1,-3,-4,-6
-2,-5,-2,3,1,-3,19,12,-2,-3,-4,-7
-3,-5,-2,3,0,-3,19,12,-2,-4,-4,-7
-3,-6,-2,4,0,-3,19,11,-2,-4,-5,-8
-3,-6,-2,4,0,-3,19,11,-3,-4,-5,-8
-3,-7,-2,4,0,-3,19,11,-3,-4,-6,-9
-3,-7,-2,4,0,-4,19,11,-3,-5,-6,-9
-3,-7,-2,4,0,-4,20,11,-3,-5,-7,-10
-3,-7,-3,4,0,-5,20,11,-3,-5,-7,-10
-3,-8,-3,4,0,-5,20,11,-3,-5,-6,-11
-4,-8,-3,4,0,-5,21,11,-3,-5,-6,-11
-4,-8,-3,4,0,-5,21,11,-3,-6,-6,-11
-4,-8,-4,5,0,-5,21,10,-3,-6,-6,-11
-4,-8,-4,5,0,-6,21,10,-3,-6,-6,-11
-4,-8,-4,6,0,-6,21,10,-3,-6,-6,-11
-4,-9,-4,6,0,-6,21,10,-3,-6,-6,-11
-4,-9,-3,6,0,-6,21,10,-3,-6,-6,-11
-4,-9,-3,6,0,-6,21,10,-3,-6,-6,-11
-4,-9,-3,6,0,-6,21,10,-3,-5,-6,-11
-4,-8,-3,6,0,-6,21,10,-3,-5,-6,-11
-4,-8,-4,6,0,-6,21,10,-2,-5,-6,-11
-4,-9,-4,6,0,-6,21,11,-2,-5,-6,-11
-4,-9,-4,6,0,-6,21,11,-1,-4,-6,-11
-4,-9,-4,5,1,-6,21,11,-1,-4,-5,-10
-4,-9,-5,5,1,-6,21,11,-1,-4,-5,-10
-3,-9,-5,5,2,-7,21,11,-1,-4,-5,-11
-3,-9,-5,5,2,-7,20,11,-1,-4,-5,-11
-3,-9,-5,5,2,-7,20,11,0,-4,-5,-12
-3,-9,-5,5,2,-7,20,12,0,-4,-5,-12
-3,-9,-5,5,2,-7,20,12,0,-4,-5,-12
-3,-9,-6,5,2,-7,20,12,0,-4,-5,-12
-3,-9,-6,5,2,-7,20,12,0,-4,-5,-13
-3,-9,-5,6,2,-7,20,12,0,-4,-4,-13
-3,-9,-5,6,1,-7,20,12,0,-3,-4,-13
-3,-9,-5,6,1,-7,20,12,0,-3,-4,-13
-3,-9,-5,6,2,-7,20,12,0,-3,-4,-13
-3,-9,-5,6,2,-7,20,12,0,-3,-4,-13
-3,-9,-5,6,2,-7,20,12,0,-3,-4,-13
-3,-9,-5,6,2,-7,20,12,0,-3,-4,-13
-3,-9,-6,6,2,-7,20,13,0,-3,-4,-13
-3,-9,-6,6,2,-8,20,13,0,-3,-4,-13
-3,-9,-7,6,2,-8,20,13,0,-3,-4,-13
-3,-10,-7,6,2,-8,20,13,0,-3,-4,-13
-3,-10,-7,6,2,-8,20,12,1,-3,-4,-13
-4,-10,-7,6,2,-8,20,12,1,-3,-4,-13
-4,-10,-7,6,2,-8,20,12,1,-3,-4,-13
-3,-10,-7,6,2,-8,20,12,1,-3,-4,-13
-3,-10,-6,6,2,-8,20,12,1,-3,-4,-13
-3,-10,-6,6,1,-8,19,12,1,-3,-4,-13
-3,-10,-6,6,1,-8,19,12,1,-3,-4,-13
-3,-10,-6,6,2,-8,19,12,1,-3,-4,-13
-3,-10,-6,6,2,-8,19,12,1,-3,-4,-13
-3,-10,-6,6,2,-8,19,12,1,-3,-4,-13
-4,-10,-6,6,2,-8,19,12,1,-3,-4,-13
-4,-11,-7,6,2,-8,19,12,1,-3,-4,-13
-4,-11,-7,7,2,-8,19,12,1,-3,-4,-13
-4,-12,-7,7,2,-8,19,12,1,-3,-4,-13
-4,-12,-7,7,2,-9,19,12,1,-3,-4,-13
-4,-12,-7,7,2,-9,19,11,1,-3,-4,-13
-4,-12,-8,7,2,-9,19,11,1,-3,-4,-13
-4,-12,-8,7,2,-10,18,11,1,-3,-4,-13
-4,-12,-8,7,2,-10,18,11,0,-3,-4,-13
-4,-12,-8,7,2,-10,18,10,0,-3,-4,-12
-4,-12,-8,7,2,-10,17,10,0,-3,-4,-12
-4,-12,-8,7,2,-10,17,10,0,-3,-4,-11
-4,-12,-8,7,2,-10,17,10,0,-3,-4,-11
-4,-12,-8,7,2,-10,17,9,0,-4,-4,-12
-3,-12,-8,7,2,-9,17,9,0,-4,-5,-12
-3,-11,-8,7,2,-9,17,9,0,-4,-5,-12
-3,-11,-8,7,2,-9,17,9,0,-4,-5,-11
-3,-11,-8,6,2,-9,17,9,0,-4,-5,-11
-3,-11,-8,6,2,-9,17,9,0,-4,-5,-11
-3,-11,-8,6,2,-9,17,9,0,-4,-5,-11
-3,-11,-8,6,2,-9,17,9,0,-3,-5,-11
-3,-11,-8,6,2,-9,17,9,0,-3,-5,-10
-3,-11,-7,6,2,-9,17,9,0,-3,-5,-10
-3,-11,-7,6,2,-9,17,9,0,-3,-4,-9
-3,-11,-7,6,2,-9,17,9,0,-3,-4,-9
-3,-11,-7,6,2,-8,17,9,0,-3,-4,-9
-3,-10,-7,6,2,-8,17,9,0,-3,-4,-9
-2,-9,-7,6,3,-8,17,9,0,-3,-4,-8
-2,-9,-7,5,3,-7,17,9,0,-3,-4,-8
-2,-9,-7,5,3,-7,17,9,1,-3,-4,-8
-2,-8,-6,5,3,-7,17,10,1,-3,-4,-8
-2,-8,-6,4,3,-6,17,11,1,-2,-4,-8
-2,-7,-6,4,3,-6,17,11,1,-2,-4,-7
-2,-7,-6,4,2,-6,17,11,1,-2,-4,-7
-2,-7,-5,4,2,-5,17,11,1,-2,-4,-6
-1,-7,-5,3,2,-5,17,11,2,-2,-4,-6
-1,-6,-5,3,2,-5,17,11,2,-2,-4,-6
-1,-6,-4,3,1,-5,17,11,2,-2,-4,-6
-1,-6,-4,3,1,-5,17,11,2,-2,-3,-5
-1,-6,-4,3,1,-5,17,11,2,-2,-3,-5
-1,-6,-4,3,1,-4,17,11,2,-2,-3,-5
-1,-5,-4,3,1,-4,16,11,2,-1,-2,-4
-1,-5,-4,2,1,-4,16,11,2,-1,-2,-4
0,-5,-4,2,2,-4,15,11,2,-1,-2,-4
0,-4,-4,2,2,-4,15,11,2,-1,-2,-3
0,-4,-4,2,2,-4,15,11,2,-1,-2,-3
0,-4,-4,2,2,-4,14,10,2,-1,-2,-3
0,-4,-4,2,2,-3,13,10,2,-1,-2,-2
0,-3,-3,2,2,-3,13,10,2,-1,-2,-2
0,-3,-3,1,2,-2,12,9,2,-1,-2,-2
0,-3,-3,1,2,-2,12,9,2,-1,-2,-2
0,-3,-3,1,2,-2,12,9,2,-1,-2,-2
0,-3,-2,1,1,-2,12,9,1,-1,-3,-2
0,-3,-2,1,1,-2,12,8,1,-2,-3,-2
0,-3,-3,1,2,-3,12,7,0,-2,-3,-2
0,-3,-4,0,3,-3,11,6,0,-3,-4,-2
0,-3,-4,0,2,-3,10,5,0,-3,-4,-2
0,-3,-4,0,2,-3,10,4,0,-4,-4,-1
1,-3,-4,0,2,-3,9,4,-1,-4,-4,-1
1,-3,-4,0,2,-3,9,3,-1,-4,-4,-1
1,-3,-4,0,3,-3,9,3,-1,-4,-4,-1
1,-3,-4,0,3,-3,9,3,-1,-4,-4,-1
1,-3,-4,0,3,-3,8,3,-1,-4,-4,-1
1,-3,-4,0,3,-3,8,3,-1,-4,-4,-1
1,-3,-4,0,3,-3,7,3,-1,-4,-4,-1
0,-4,-4,1,3,-3,7,3,-1,-4,-4,-1
0,-4,-4,1,3,-4,7,2,-1,-5,-4,-1
0,-5,-5,2,3,-4,7,2,-1,-5,-5,-1
0,-5,-5,2,3,-5,7,2,-1,-5,-5,-1
0,-6,-6,2,3,-5,7,2,-2,-5,-6,-1
0,-7,-6,3,3,-6,7,1,-2,-6,-6,-2
-1,-8,-6,3,3,-6,7,1,-3,-6,-7,-2
-1,-8,-6,4,3,-7,6,1,-3,-6,-7,-2
-1,-9,-7,4,3,-8,6,1,-3,-6,-7,-2
-1,-9,-8,5,3,-8,6,1,-3,-6,-7,-2
-1,-10,-8,5,3,-8,6,1,-3,-7,-7,-2
-1,-10,-8,5,3,-8,6,1,-4,-7,-7,-2
-1,-10,-8,5,3,-9,6,1,-4,-7,-7,-2
-1,-10,-8,5,3,-9,6,1,-4,-7,-7,-2
-2,-10,-8,5,3,-9,6,1,-4,-7,-7,-2
-2,-10,-8,5,3,-9,6,1,-4,-7,-7,-2
-2,-10,-7,5,2,-8,6,1,-4,-7,-7,-2
-2,-10,-7,5,2,-8,6,1,-4,-7,-7,-2
-2,-10,-7,6,2,-8,6,1,-4,-7,-7,-3
-3,-11,-7,6,2,-8,6,1,-4,-7,-7,-3
-3,-11,-7,6,2,-8,6,1,-4,-7,-8,-4
-3,-11,-7,6,2,-8,6,1,-4,-7,-8,-4
-3,-11,-7,6,2,-8,6,1,-4,-8,-8,-4
-2,-11,-7,6,2,-8,6,1,-4,-8,-8,-4
-2,-11,-7,6,2,-8,6,1,-4,-8,-8,-4
-3,-11,-7,6,2,-8,6,1,-4,-8,-8,-4
-3,-11,-7,6,2,-8,6,1,-4,-8,-8,-4
-3,-11,-7,6,2,-8,6,1,-4,-8,-8,-4
-3,-11,-7,6,2,-8,6,1,-4,-8,-8,-4
-3,-11,-6,6,2,-8,6,1,-4,-7,-7,-4
-3,-11,-6,6,2,-8,6,1,-4,-7,-7,-4
-3,-11,-6,6,2,-8,6,1,-4,-7,-7,-4
-3,-10,-6,6,1,-7,6,1,-4,-7,-7,-4
-3,-10,-6,6,1,-7,6,1,-4,-7,-7,-4
-4,-10,-6,6,1,-7,6,1,-3,-7,-7,-4
-4,-10,-6,6,1,-7,6,1,-3,-7,-7,-4
-3,-10,-6,6,1,-7,6,1,-3,-7,-7,-4
-3,-10,-6,6,1,-7,6,2,-3,-7,-7,-4
-3,-10,-6,6,1,-7,6,2,-3,-7,-7,-3
-3,-10,-5,6,0,-7,6,2,-3,-7,-7,-3
-4,-9,-5,6,0,-7,6,2,-3,-7,-7,-3
-4,-9,-4,6,0,-7,6,2,-3,-7,-7,-3
-5,-9,-4,7,0,-7,6,2,-3,-7,-7,-3
-5,-9,-4,7,0,-7,6,2,-3,-7,-7,-3
-5,-9,-4,7,0,-6,7,2,-2,-7,-7,-3
-5,-9,-4,7,0,-6,7,2,-2,-7,-7,-3
-5,-10,-4,7,0,-6,7,2,-2,-7,-7,-4
-5,-10,-4,7,0,-6,6,2,-2,-7,-7,-4
-4,-10,-5,7,0,-6,6,2,-2,-7,-7,-4
-4,-10,-5,7,0,-6,7,3,-2,-6,-7,-4
-4,-10,-5,7,0,-6,7,4,-2,-6,-6,-5
-4,-10,-5,7,0,-6,8,5,-1,-5,-6,-5
-4,-10,-5,7,0,-6,9,8,0,-4,-5,-5
-4,-10,-5,7,0,-7,9,10,2,-3,-4,-5
-3,-10,-6,7,1,-7,9,13,5,0,-1,-4
-2,-10,-7,6,2,-8,9,17,8,3,1,-3
-1,-10,-9,6,3,-8,9,20,12,7,5,-2
1,-10,-11,5,5,-9,9,25,16,11,9,0
3,-10,-12,3,7,-10,9,29,22,17,15,4
5,-9,-14,2,9,-11,9,34,29,24,22,8
6,-8,-15,1,10,-11,8,37,35,32,30,12
8,-7,-15,0,11,-10,7,39,43,40,39,17
10,-4,-15,-3,12,-9,5,40,51,50,49,23
12,-1,-15,-5,14,-8,3,40,60,60,60,30
16,2,-14,-8,15,-6,1,37,68,71,71,38
20,6,-14,-12,17,-4,-2,30,75,80,82,46
24,10,-14,-17,19,-1,-6,19,80,88,92,55
28,14,-13,-21,20,1,-11,6,84,95,100,63
31,19,-12,-25,21,3,-15,-6,84,98,106,70
33,23,-10,-28,22,6,-18,-19,81,97,106,74
34,26,-8,-30,21,9,-21,-32,72,89,100,74
33,28,-5,-30,19,11,-23,-45,60,76,88,71
30,28,-2,-29,16,13,-24,-59,44,59,71,65
26,27,0,-27,12,14,-26,-74,23,38,50,56
20,25,5,-22,7,15,-29,-93,0,14,27,45
12,22,10,-17,0,16,-32,-112,-24,-10,3,34
4,20,15,-11,-6,17,-35,-130,-47,-34,-20,22
-3,17,20,-6,-12,18,-39,-147,-69,-56,-43,11
-11,14,25,-1,-18,19,-42,-162,-90,-77,-64,1
-18,12,30,3,-24,21,-45,-176,-108,-96,-82,-8
-24,10,34,7,-29,22,-48,-186,-121,-109,-95,-15
-28,8,37,10,-32,23,-52,-192,-131,-119,-105,-20
-31,8,39,11,-35,24,-58,-197,-138,-126,-112,-24
-33,7,40,12,-37,25,-63,-200,-143,-131,-117,-28
-34,7,42,13,-38,25,-67,-201,-145,-134,-121,-30
-35,8,43,13,-39,26,-69,-198,-144,-134,-121,-31
-35,9,45,13,-40,27,-70,-193,-141,-131,-119,-31
-35,11,46,12,-41,29,-69,-184,-135,-126,-115,-30
-35,12,48,12,-41,30,-67,-174,-127,-119,-110,-28
-35,14,49,11,-42,31,-64,-162,-119,-112,-104,-26
-34,15,49,10,-41,32,-60,-150,-110,-105,-98,-24
-33,15,48,9,-40,32,-55,-137,-101,-97,-91,-22
-31,15,46,8,-39,31,-51,-125,-92,-89,-84,-20
-29,15,44,7,-37,30,-47,-113,-83,-81,-77,-18
-27,15,41,6,-34,29,-42,-100,-74,-73,-70,-16
-24,14,39,6,-31,27,-37,-88,-65,-65,-63,-14
-22,14,36,5,-29,25,-33,-78,-57,-58,-56,-12
-21,12,33,5,-26,23,-29,-68,-50,-51,-50,-11
-19,11,30,5,-24,21,-26,-60,-44,-46,-45,-10
-18,9,27,5,-22,19,-22,-52,-39,-41,-40,-9
-18,7,25,5,-21,17,-20,-45,-34,-36,-36,-9
-17,5,23,6,-20,15,-18,-40,-30,-33,-33,-9
-16,4,21,6,-18,13,-16,-36,-27,-30,-30,-9
-15,3,19,6,-17,12,-15,-33,-24,-28,-28,-8
-14,3,18,6,-16,11,-14,-30,-22,-26,-26,-8
-13,3,17,6,-15,10,-13,-27,-20,-24,-24,-7
-13,3,17,5,-15,10,-12,-25,-18,-22,-22,-7
-13,4,17,5,-15,11,-11,-22,-16,-20,-20,-6
-13,4,18,4,-15,11,-10,-20,-14,-18,-18,-6
-12,5,18,4,-15,12,-9,-18,-12,-16,-17,-5
-12,5,18,4,-15,12,-9,-16,-11,-15,-15,-5
-12,5,18,4,-15,11,-8,-14,-9,-13,-14,-4
-12,5,18,4,-15,11,-8,-12,-8,-12,-13,-4
-12,5,17,4,-15,11,-7,-11,-7,-11,-11,-3
-12,5,17,3,-14,11,-7,-10,-6,-10,-10,-3
-12,5,17,3,-14,11,-6,-9,-5,-9,-9,-3
-12,5,17,2,-14,11,-6,-8,-3,-8,-8,-2
-12,5,17,2,-14,11,-5,-7,-2,-7,-7,-2
-12,5,17,3,-14,11,-5,-6,-1,-6,-7,-2
-11,5,16,3,-14,11,-5,-5,-1,-5,-6,-1
-11,6,16,3,-14,11,-4,-4,0,-5,-5,-1
-11,6,16,3,-14,11,-4,-3,1,-4,-4,-1
-11,5,16,3,-14,11,-4,-2,2,-3,-3,0
-11,5,16,3,-14,11,-3,-1,2,-2,-2,0
-11,5,16,3,-13,11,-3,0,3,-1,-1,0
-10,5,16,2,-13,11,-3,0,3,0,0,1
-10,5,15,2,-13,11,-3,1,4,0,0,1
-10,6,15,2,-13,11,-3,2,5,1,0,2
-10,6,15,2,-13,11,-3,2,6,1,1,2
-10,6,15,2,-13,11,-2,3,7,2,1,3
-10,6,15,2,-13,11,-2,4,7,3,2,3
-9,6,15,1,-12,11,-2,5,8,4,3,4
-9,7,15,1,-12,11,-2,5,9,5,4,4
-9,7,16,1,-12,11,-1,6,9,5,5,5
-9,7,16,1,-12,11,-1,7,10,6,5,5
-9,7,16,0,-12,12,-1,8,10,6,6,6
-9,7,16,0,-13,12,-1,9,11,7,6,6
-9,8,16,0,-13,13,-1,10,12,8,7,7
-9,8,16,0,-13,13,-1,11,13,9,8,7
-8,8,16,0,-13,13,-1,12,14,10,9,7
-8,9,17,0,-13,13,0,13,15,11,10,8
-8,9,17,0,-13,13,0,14,16,12,11,8
-7,9,17,0,-13,13,0,15,16,13,11,9
-7,9,16,-1,-13,13,0,15,17,13,12,9
-7,10,16,-1,-12,13,0,16,17,13,12,10
-6,10,16,-2,-12,13,0,17,18,14,13,10
-6,10,16,-2,-11,13,0,18,19,15,14,11
-5,10,16,-2,-11,13,0,19,20,16,15,11
-5,10,16,-2,-11,13,0,20,21,17,16,12
-5,10,16,-2,-10,13,1,22,22,18,17,12
-5,10,15,-2,-10,13,1,23,23,19,18,13
-5,10,15,-2,-10,14,1,24,24,20,19,13
-5,10,15,-3,-10,14,1,25,25,21,20,14
-4,11,15,-3,-10,14,1,26,26,22,21,15
-4,11,15,-4,-10,14,1,27,28,23,22,15
-3,12,15,-4,-10,14,1,29,29,24,23,16
-3,12,15,-5,-9,14,1,30,30,25,24,16
-2,13,15,-5,-9,14,2,31,32,27,25,17
-2,13,15,-5,-9,15,2,33,33,28,26,18
-1,13,15,-5,-8,15,2,34,34,28,27,19
0,13,14,-6,-7,15,2,35,34,29,28,19
0,13,13,-6,-7,15,2,36,35,29,28,20
0,14,13,-7,-6,15,2,37,35,30,29,20
1,14,13,-7,-6,14,2,39,36,31,30,20
1,14,13,-7,-6,14,2,40,37,33,31,20
2,14,13,-7,-6,13,3,42,38,34,32,20
2,14,12,-7,-5,13,3,43,39,35,33,21
3,14,11,-7,-5,13,3,44,40,35,33,21
3,14,10,-8,-4,13,3,44,40,35,34,21
3,14,10,-8,-4,13,3,45,41,36,34,21
3,14,10,-8,-4,13,3,45,41,36,34,21
3,14,10,-8,-3,13,4,46,42,37,34,21
4,14,10,-9,-3,13,4,47,42,37,35,21
4,14,9,-9,-3,13,3,48,43,38,35,21
5,15,9,-9,-3,13,3,48,43,38,36,21
5,15,9,-9,-3,13,3,49,43,38,36,21
5,14,9,-9,-2,13,4,49,43,38,36,21
5,14,8,-9,-2,13,4,49,43,38,36,21
5,14,8,-9,-1,13,4,49,43,38,36,21
5,14,8,-9,-1,13,4,49,43,38,36,21
5,14,8,-9,-1,12,5,49,43,37,36,21
5,14,8,-9,-1,12,5,49,43,37,35,21
6,14,8,-9,-1,11,5,49,42,36,35,21
6,14,7,-9,-1,11,5,48,42,36,34,21
6,13,7,-9,-1,11,5,48,41,35,34,20
6,13,7,-9,-1,11,5,47,41,35,33,20
6,13,6,-9,0,11,5,47,40,34,32,19
6,12,6,-9,0,10,5,46,39,34,31,19
6,12,6,-9,0,10,5,46,39,33,31,18
6,12,5,-9,0,9,5,46,38,32,30,18
6,11,5,-9,0,9,5,45,37,31,29,17
6,11,4,-8,0,9,4,45,36,30,28,17
6,11,4,-8,0,9,4,44,35,29,27,16
5,10,4,-7,0,8,4,43,34,28,26,16
5,10,4,-7,0,8,4,43,33,27,25,15
5,9,3,-7,1,7,4,42,32,26,24,14
6,9,3,-7,1,7,4,41,31,25,23,13
6,8,2,-6,1,6,4,40,30,24,22,13
6,8,2,-6,1,6,4,39,29,23,21,12
6,8,2,-6,1,6,4,38,28,22,20,11
6,7,1,-6,1,5,4,37,27,21,19,11
5,7,1,-6,1,5,4,36,26,19,18,10
5,7,1,-5,1,5,4,35,24,18,17,9
5,7,0,-5,2,5,4,34,23,17,16,9
5,6,0,-5,2,4,4,33,22,16,15,8
5,6,0,-5,2,4,4,32,21,15,13,7
4,5,0,-4,2,3,4,31,20,14,12,6
4,4,0,-4,2,3,3,30,19,12,10,5
4,4,0,-4,2,3,3,29,18,11,9,4
4,4,0,-3,2,3,3,28,17,10,8,4
4,4,-1,-3,2,2,3,27,15,9,7,3
4,3,-1,-3,2,2,3,26,14,8,6,2
4,3,-2,-3,2,1,3,25,13,7,5,1
4,2,-2,-3,2,1,3,24,12,6,4,1
4,2,-2,-2,2,0,3,23,12,5,3,0
4,1,-2,-2,2,0,3,22,11,4,2,0
4,1,-2,-1,2,0,2,22,10,3,2,-1
3,0,-2,-1,2,0,2,21,10,3,1,-1
3,0,-3,0,2,0,2,21,9,2,0,-2
2,0,-3,0,2,-1,3,20,8,2,0,-2
2,0,-4,-1,3,-1,3,20,7,1,0,-3
2,-1,-5,-1,3,-1,3,19,7,0,-1,-4
2,-1,-5,0,3,-2,3,18,6,0,-2,-5
2,-2,-4,0,3,-2,3,18,6,0,-3,-5
2,-2,-4,0,3,-2,3,18,5,-1,-3,-6
2,-2,-4,0,3,-2,3,18,5,-1,-4,-7
2,-2,-4,0,3,-2,3,17,4,-2,-4,-7
1,-2,-4,1,3,-2,3,17,4,-2,-4,-7
1,-2,-4,1,2,-2,3,16,4,-3,-4,-8
1,-2,-5,1,2,-3,3,16,3,-3,-5,-8
1,-3,-5,1,3,-3,3,15,3,-4,-5,-9
1,-3,-6,1,3,-4,3,15,3,-4,-6,-9
1,-3,-6,1,3,-4,3,15,3,-4,-6,-9
1,-3,-7,1,3,-4,3,15,2,-4,-6,-10
2,-3,-7,1,4,-4,4,15,2,-4,-7,-10
2,-4,-7,1,4,-4,4,15,2,-4,-7,-10
2,-4,-7,1,4,-4,4,15,2,-4,-7,-10
2,-5,-7,1,4,-4,4,15,2,-4,-7,-10
2,-5,-7,2,4,-4,4,15,2,-4,-7,-10
1,-5,-6,2,3,-4,4,15,2,-4,-7,-10
1,-5,-6,2,3,-4,4,15,2,-4,-7,-10
1,-5,-6,2,3,-4,4,15,2,-4,-7,-10
1,-5,-6,2,3,-4,4,15,2,-4,-7,-10
1,-5,-6,2,3,-5,4,15,2,-4,-7,-10
1,-5,-6,2,3,-5,4,15,2,-4,-7,-10
1,-5,-6,2,3,-5,4,15,2,-4,-6,-10
1,-5,-6,2,3,-5,4,15,2,-4,-6,-10
1,-5,-6,2,3,-5,4,15,2,-4,-6,-10
1,-5,-6,2,3,-5,4,14,2,-4,-6,-10
2,-5,-7,2,3,-5,4,14,2,-4,-6,-10
2,-4,-7,2,4,-5,4,14,2,-4,-6,-10
2,-4,-7,2,4,-5,4,14,2,-4,-6,-9
2,-4,-7,1,4,-5,4,14,2,-4,-5,-9
2,-4,-7,1,4,-5,4,14,2,-4,-5,-9
2,-4,-7,1,4,-5,5,14,2,-4,-5,-9
2,-4,-7,1,4,-5,5,14,2,-3,-5,-9
2,-4,-7,1,3,-5,5,14,3,-3,-5,-9
2,-4,-7,1,3,-5,5,14,3,-3,-5,-9
2,-4,-7,1,3,-5,5,15,3,-3,-5,-9
2,-4,-7,1,3,-5,5,15,3,-3,-5,-9
2,-4,-7,1,4,-5,5,15,4,-3,-5,-9
2,-4,-7,1,4,-5,5,15,4,-3,-5,-9
2,-4,-8,1,4,-5,5,15,4,-3,-5,-9
2,-4,-8,1,4,-5,5,15,4,-3,-5,-9
2,-4,-8,1,4,-5,5,15,4,-2,-5,-9
3,-5,-8,1,4,-6,5,15,4,-2,-5,-9
3,-5,-8,1,4,-6,4,14,4,-2,-5,-9
3,-5,-8,1,4,-6,4,14,4,-3,-5,-9
3,-5,-8,1,4,-6,4,14,4,-3,-5,-9
3,-5,-8,1,4,-5,4,14,4,-3,-5,-9
2,-4,-7,1,4,-5,4,14,4,-3,-5,-9
2,-4,-7,1,4,-5,4,14,4,-3,-5,-9
2,-4,-7,1,4,-5,5,14,4,-3,-5,-9
2,-4,-7,1,4,-5,5,14,3,-3,-5,-10
2,-4,-8,1,4,-5,4,14,3,-3,-5,-10
2,-4,-8,1,4,-5,4,14,3,-3,-5,-10
2,-4,-8,1,4,-6,4,14,3,-3,-5,-10
3,-4,-8,1,5,-6,4,13,3,-3,-6,-10
3,-4,-8,1,5,-6,4,13,3,-3,-6,-10
3,-5,-8,1,5,-6,4,13,3,-3,-6,-10
3,-5,-8,1,5,-6,4,12,3,-3,-6,-10
3,-5,-8,1,4,-6,4,12,3,-3,-6,-10
3,-5,-8,1,4,-6,4,12,3,-3,-6,-10
3,-5,-8,1,4,-6,4,12,3,-3,-6,-10
3,-5,-8,1,4,-6,4,12,3,-3,-6,-10
3,-5,-9,1,5,-6,4,12,2,-3,-6,-10
3,-5,-9,1,5,-6,4,12,2,-4,-6,-10
3,-5,-9,1,5,-6,4,12,2,-4,-6,-11
3,-5,-9,1,5,-6,4,11,2,-4,-7,-11
3,-5,-9,1,5,-7,4,11,2,-4,-7,-11
3,-5,-9,1,5,-7,4,11,2,-4,-7,-11
3,-5,-9,2,5,-7,3,11,2,-4,-7,-11
3,-5,-9,2,5,-7,3,11,2,-4,-7,-11
3,-5,-9,2,5,-7,2,11,1,-4,-7,-11
3,-5,-9,2,5,-7,2,11,1,-4,-7,-11
3,-5,-9,2,5,-7,2,11,1,-4,-7,-10
3,-5,-9,2,5,-7,2,11,1,-4,-7,-10
3,-5,-9,2,5,-7,2,11,1,-4,-7,-10
3,-5,-9,2,5,-7,2,10,1,-4,-7,-9
3,-5,-9,2,5,-7,2,10,1,-4,-7,-9
3,-5,-9,2,5,-7,2,10,1,-4,-7,-9
3,-5,-8,2,5,-7,2,10,1,-4,-7,-9
3,-5,-8,2,5,-7,2,10,1,-4,-7,-9
3,-5,-8,2,5,-7,2,10,1,-4,-7,-9
3,-5,-8,2,5,-7,2,10,1,-4,-6,-9
3,-5,-8,1,5,-7,2,10,1,-4,-6,-9
4,-4,-8,1,5,-7,2,10,1,-4,-6,-8
4,-4,-8,0,5,-6,2,10,1,-4,-6,-8
4,-3,-8,0,5,-6,2,10,1,-3,-6,-8
4,-3,-7,0,5,-5,3,11,2,-3,-6,-7
4,-3,-7,0,5,-5,3,11,2,-3,-6,-7
4,-2,-7,0,5,-5,3,11,2,-2,-6,-7
5,-2,-7,0,6,-5,3,11,2,-2,-6,-7
5,-1,-7,-1,6,-5,3,11,2,-2,-5,-6
5,-1,-7,-1,5,-5,3,12,2,-2,-5,-6
5,-1,-7,-1,5,-5,3,12,2,-2,-5,-6
5,-1,-7,-1,5,-5,3,12,2,-2,-5,-5
5,-1,-7,-1,5,-4,3,12,2,-2,-5,-5
5,-1,-7,-1,5,-4,3,12,2,-2,-5,-5
5,-1,-6,-1,5,-3,4,12,2,-2,-5,-5
6,-1,-6,-2,5,-3,4,12,2,-2,-5,-5
6,-1,-6,-2,5,-3,3,12,2,-2,-5,-5
6,0,-6,-2,5,-3,3,12,3,-2,-5,-5
6,0,-5,-2,5,-3,2,12,3,-2,-5,-5
6,0,-5,-2,5,-2,2,12,3,-2,-5,-4
6,0,-5,-2,6,-2,1,12,3,-2,-5,-4
7,0,-6,-3,6,-2,1,11,3,-2,-5,-4
7,1,-6,-3,6,-2,0,11,3,-2,-5,-4
7,1,-6,-3,6,-2,0,10,2,-2,-5,-4
7,1,-6,-4,6,-2,0,10,2,-2,-5,-4
7,1,-6,-4,6,-2,0,10,2,-2,-5,-4
7,1,-6,-3,6,-2,0,10,1,-3,-5,-4
7,1,-6,-4,6,-2,0,9,1,-3,-6,-4
7,1,-6,-4,6,-2,-1,8,0,-3,-6,-4
7,1,-6,-3,6,-2,-1,8,0,-3,-6,-4
7,0,-6,-3,6,-2,-1,7,0,-3,-6,-4
7,0,-6,-3,6,-2,-1,7,0,-3,-7,-4
7,0,-6,-3,6,-2,-2,6,0,-3,-7,-4
7,0,-6,-3,6,-2,-2,6,0,-3,-7,-4
7,0,-7,-3,7,-3,-2,6,0,-4,-7,-4
7,0,-7,-3,7,-3,-2,6,-1,-4,-7,-4
7,1,-7,-3,7,-3,-2,5,-1,-4,-7,-4
7,1,-7,-3,7,-3,-2,5,-1,-4,-7,-4
7,0,-7,-3,7,-3,-2,4,-2,-5,-7,-4
7,0,-7,-3,7,-3,-2,4,-2,-5,-7,-4
7,0,-8,-3,7,-3,-2,4,-2,-5,-7,-4
7,-1,-8,-2,7,-4,-3,4,-2,-5,-7,-4
6,-1,-8,-2,7,-5,-3,4,-2,-5,-8,-5
6,-2,-9,-1,7,-5,-3,4,-3,-5,-8,-5
6,-3,-9,-1,7,-6,-3,4,-3,-5,-9,-5
6,-3,-9,0,7,-6,-3,4,-3,-6,-9,-5
6,-4,-10,0,7,-7,-3,4,-3,-6,-9,-6
6,-4,-10,0,8,-7,-3,4,-3,-7,-9,-6
6,-5,-11,0,8,-7,-3,3,-4,-7,-9,-6
6,-5,-11,0,8,-7,-4,3,-4,-7,-10,-7
6,-5,-11,1,8,-8,-4,3,-4,-7,-10,-7
6,-6,-11,1,8,-8,-5,3,-4,-8,-10,-7
6,-6,-12,1,8,-8,-5,3,-4,-8,-10,-7
6,-6,-12,1,8,-8,-4,3,-4,-8,-10,-7
5,-6,-12,1,8,-8,-4,3,-5,-8,-10,-7
5,-6,-12,1,8,-9,-4,3,-5,-8,-10,-7
5,-6,-12,1,8,-9,-4,2,-5,-8,-10,-7
5,-6,-12,1,8,-9,-4,2,-5,-8,-10,-7
4,-7,-12,1,8,-9,-4,2,-5,-8,-10,-7
4,-7,-11,1,8,-9,-4,2,-5,-8,-10,-6
4,-7,-11,2,8,-9,-4,2,-5,-8,-10,-6
4,-7,-11,2,8,-9,-4,2,-5,-7,-10,-7
4,-7,-11,2,8,-9,-4,2,-5,-7,-10,-7
4,-7,-11,2,8,-9,-4,3,-5,-7,-10,-7
4,-7,-11,2,8,-9,-4,3,-5,-7,-10,-7
4,-7,-11,2,8,-9,-4,2,-5,-7,-10,-7
4,-7,-11,2,8,-9,-4,2,-5,-7,-10,-7
5,-7,-11,2,8,-9,-4,2,-5,-7,-10,-7
5,-7,-11,2,8,-9,-4,2,-5,-7,-10,-7
5,-7,-11,2,8,-9,-4,2,-5,-7,-10,-7
4,-7,-11,2,7,-9,-4,2,-5,-7,-10,-7
4,-7,-11,2,7,-9,-4,2,-5,-7,-10,-7
4,-7,-11,2,7,-9,-4,3,-5,-7,-9,-7
4,-7,-11,2,7,-9,-4,3,-5,-7,-9,-7
3,-7,-10,2,6,-9,-3,4,-5,-7,-9,-7
3,-7,-10,2,6,-8,-3,4,-4,-7,-9,-7
3,-7,-9,2,6,-8,-3,4,-4,-7,-9,-7
3,-7,-10,2,6,-8,-3,4,-4,-7,-9,-7
3,-7,-10,2,6,-8,-2,4,-4,-7,-9,-7
2,-7,-10,3,6,-8,-2,4,-4,-7,-9,-7
2,-7,-10,3,6,-8,-2,4,-4,-7,-9,-8
2,-7,-10,3,6,-8,-2,4,-4,-7,-9,-8
3,-7,-11,2,6,-8,-2,4,-4,-7,-9,-8
3,-7,-11,2,6,-8,-2,5,-4,-7,-9,-8
3,-7,-10,3,6,-8,-2,5,-4,-7,-9,-8
3,-7,-9,3,5,-8,-1,5,-3,-7,-9,-8
3,-7,-8,3,5,-8,-1,5,-3,-7,-9,-8
2,-7,-8,3,5,-8,-1,5,-3,-7,-9,-8
1,-7,-8,3,5,-8,0,5,-3,-7,-9,-8
1,-7,-8,3,4,-8,0,6,-3,-6,-8,-8
1,-7,-8,3,4,-8,0,8,-2,-5,-8,-8
1,-7,-8,3,4,-8,1,10,0,-4,-7,-8
2,-7,-9,3,5,-8,1,12,1,-3,-5,-8
3,-7,-9,3,6,-8,1,14,3,-1,-3,-7
4,-7,-11,2,7,-9,1,17,6,2,-1,-6
5,-7,-12,1,9,-10,1,21,10,6,3,-5
7,-7,-14,0,11,-11,1,25,14,10,8,-3
9,-6,-16,0,13,-11,1,30,20,16,14,0
11,-6,-18,-2,14,-11,1,35,27,24,21,4
13,-5,-19,-3,15,-11,0,39,34,31,28,9
15,-3,-19,-5,16,-11,0,41,41,40,37,14
18,-1,-19,-7,18,-10,-2,43,49,49,47,20
21,1,-19,-10,19,-8,-4,43,58,59,58,28
24,5,-19,-14,21,-7,-6,41,66,69,69,35
28,9,-19,-18,23,-5,-10,34,73,79,79,44
33,14,-19,-23,25,-2,-14,23,77,86,89,52
37,18,-18,-27,27,0,-18,9,80,92,97,60
40,23,-17,-30,28,2,-22,-3,80,95,102,67
42,26,-16,-33,28,5,-25,-16,77,94,102,71
42,29,-14,-35,28,7,-28,-30,68,86,95,71
41,30,-11,-35,26,10,-30,-43,56,73,83,68
38,31,-8,-34,23,12,-31,-56,39,56,67,61
34,30,-4,-31,19,13,-33,-72,19,35,46,52
27,28,0,-27,13,14,-36,-89,-3,11,24,42
19,25,5,-22,6,16,-38,-107,-26,-12,0,31
11,22,11,-16,0,17,-41,-125,-48,-34,-22,20
3,19,16,-10,-7,17,-45,-142,-70,-57,-44,9
-5,16,20,-5,-13,18,-48,-158,-90,-78,-65,-1
-12,13,25,0,-19,19,-51,-172,-108,-95,-82,-9
-18,11,29,4,-24,20,-53,-182,-121,-108,-95,-16
-22,10,32,6,-28,21,-57,-188,-130,-117,-105,-21
-25,10,34,8,-30,22,-63,-193,-137,-124,-112,-25
-27,9,36,9,-31,22,-68,-196,-142,-129,-117,-29
-28,9,37,10,-33,23,-71,-196,-144,-132,-120,-31
-29,9,39,10,-34,24,-73,-194,-143,-132,-121,-32
-30,10,40,10,-35,25,-74,-189,-139,-129,-120,-32
-30,11,41,10,-36,27,-73,-181,-134,-124,-116,-30
-30,13,43,9,-36,28,-71,-172,-127,-118,-110,-28
-29,15,44,7,-36,30,-68,-160,-118,-111,-104,-26
-28,16,44,6,-36,31,-64,-148,-110,-103,-97,-24
-27,17,43,5,-35,31,-59,-135,-101,-96,-90,-21
-24,17,41,4,-33,30,-55,-122,-92,-88,-83,-19
-22,17,39,3,-31,28,-51,-110,-84,-80,-76,-17
-20,16,36,2,-28,26,-47,-98,-75,-72,-69,-15
-18,15,34,2,-26,24,-42,-87,-66,-64,-62,-14
-17,14,31,1,-24,23,-38,-77,-58,-57,-56,-12
-15,14,28,1,-22,21,-34,-67,-51,-51,-49,-11
-14,13,25,0,-19,19,-30,-58,-45,-45,-44,-10
-12,11,23,0,-17,17,-27,-50,-39,-40,-39,-9
-11,10,20,1,-16,15,-24,-43,-34,-35,-35,-9
-11,8,18,1,-14,13,-22,-37,-29,-31,-32,-8
-10,6,16,1,-13,11,-20,-33,-26,-29,-29,-8
-9,5,14,1,-11,10,-19,-30,-24,-27,-27,-8
-8,5,13,1,-10,10,-18,-28,-23,-25,-25,-8
-8,5,13,1,-10,9,-16,-25,-21,-22,-23,-7
-8,5,13,1,-10,9,-15,-22,-18,-20,-20,-6
-7,5,13,1,-10,9,-14,-20,-16,-18,-18,-5
-7,6,13,0,-10,9,-13,-17,-14,-16,-16,-4
-7,6,13,0,-10,9,-12,-15,-12,-15,-15,-4
-7,6,13,0,-10,9,-12,-13,-11,-13,-14,-3
-7,6,13,0,-10,9,-11,-12,-9,-12,-13,-3
-7,6,13,0,-10,9,-11,-11,-8,-11,-12,-3
-7,6,12,0,-9,9,-10,-10,-7,-10,-10,-2
-7,6,12,0,-9,9,-9,-8,-6,-8,-9,-2
-7,6,12,0,-9,9,-8,-7,-5,-7,-7,-1
-6,6,12,0,-9,9,-7,-5,-4,-6,-6,-1
-6,6,12,0,-9,9,-7,-3,-3,-5,-5,0
-6,6,12,0,-9,9,-6,-3,-2,-4,-4,0
-6,6,11,0,-9,9,-6,-2,-1,-3,-4,0
-6,6,11,0,-9,9,-6,-2,0,-2,-3,0
-6,6,11,0,-9,9,-6,-1,0,-2,-2,1
-6,6,11,0,-9,9,-6,0,0,-1,-1,1
-5,6,11,0,-8,9,-5,0,1,0,0,2
-5,6,11,0,-8,9,-5,2,2,0,0,2
-5,7,11,0,-8,9,-4,3,3,1,1,2
-5,7,11,0,-8,9,-4,3,3,1,1,2
-5,7,11,0,-8,9,-4,3,4,2,1,2
-5,7,11,-1,-7,9,-4,4,5,2,2,3
-5,7,11,-1,-7,9,-3,4,6,3,2,3
-4,7,11,-1,-7,9,-3,5,6,3,3,4
-4,8,11,-1,-7,9,-3,6,7,4,4,4
-4,8,11,-1,-7,9,-3,7,7,5,5,5
-4,8,11,-1,-7,9,-2,8,8,6,6,5
-4,8,11,-1,-7,9,-2,9,9,6,6,6
-4,8,11,-1,-7,9,-2,10,9,7,7,6
-4,8,11,-2,-7,10,-2,10,10,7,7,6
-4,8,11,-2,-7,10,-2,10,10,8,8,7
-4,8,11,-2,-7,10,-2,11,11,9,8,7
-3,8,11,-2,-7,10,-1,12,12,10,9,8
-3,9,11,-2,-7,10,-1,13,13,11,10,8
-3,9,11,-2,-7,10,-1,14,14,11,11,9
-3,10,12,-3,-7,10,-1,15,15,12,12,9
-3,10,12,-3,-7,10,-1,16,16,13,13,10
-2,10,12,-3,-7,11,-1,17,17,14,13,10
-2,10,12,-3,-7,11,-1,17,17,15,14,11
-2,11,12,-4,-7,11,-1,18,18,15,15,11
-1,11,12,-4,-7,11,0,19,19,16,16,12
-1,11,12,-5,-7,11,0,21,20,17,17,13
0,12,12,-5,-6,11,0,22,21,18,18,13
0,12,12,-6,-6,11,0,24,22,19,19,14
0,12,11,-6,-5,11,0,25,23,20,20,15
1,12,11,-6,-5,11,1,26,24,21,21,15
2,12,10,-7,-4,11,1,27,25,22,21,16
2,13,10,-7,-4,11,1,28,26,23,22,16
2,13,10,-7,-4,11,1,29,27,24,23,17
2,13,10,-8,-4,11,1,30,28,25,24,17
3,14,10,-8,-4,11,1,32,29,26,25,18
3,14,10,-8,-3,11,1,33,31,27,26,18
4,14,10,-9,-3,12,1,35,32,28,27,19
5,15,9,-9,-2,12,2,36,33,29,28,19
5,15,9,-10,-2,12,2,37,34,30,29,20
6,15,9,-10,-1,12,2,38,34,30,30,20
6,15,9,-10,-1,12,2,39,35,31,30,20
7,16,9,-11,0,12,2,40,36,32,31,20
7,16,9,-11,0,12,2,41,37,33,32,21
7,16,9,-11,0,12,2,42,38,34,33,21
8,17,8,-12,0,12,2,43,39,34,33,21
8,17,8,-12,1,12,2,44,39,35,34,21
9,18,8,-13,1,12,2,45,40,35,34,21
9,18,8,-13,1,12,3,45,40,36,35,22
10,18,7,-13,1,12,3,46,41,36,35,22
10,18,7,-14,1,12,3,46,41,36,35,22
11,18,6,-14,2,12,4,47,41,36,36,22
11,18,6,-14,2,12,4,47,41,36,36,22
11,18,6,-14,2,12,4,48,41,37,36,22
11,18,6,-14,3,12,4,48,41,37,36,22
11,18,5,-14,3,11,4,48,41,37,36,22
11,18,5,-14,3,11,4,48,41,37,36,22
12,18,5,-14,4,11,4,48,41,37,36,22
12,17,5,-14,4,11,4,48,41,36,35,22
12,17,5,-14,4,11,5,48,40,36,35,22
12,17,5,-14,4,10,5,48,40,35,34,22
12,16,5,-14,4,10,5,48,39,35,34,21
12,16,4,-14,4,10,5,48,39,34,33,21
12,16,4,-14,4,10,5,47,38,34,33,20
12,16,4,-14,4,9,5,47,38,33,32,20
12,15,4,-14,4,9,5,46,38,33,31,19
12,15,4,-14,4,9,5,46,37,32,31,19
12,15,4,-14,4,9,5,45,36,31,30,18
12,15,3,-14,5,8,5,45,35,30,29,18
12,15,2,-14,5,8,5,44,34,29,28,17
11,14,2,-13,5,8,5,44,33,28,27,16
11,14,2,-13,5,7,5,43,33,27,26,16
11,13,1,-12,5,7,5,42,32,26,25,15
11,13,1,-12,5,7,5,41,31,26,24,14
11,13,1,-12,5,6,5,40,30,25,23,14
11,12,1,-12,5,6,5,39,29,24,22,13
10,12,1,-11,5,5,5,39,28,22,21,12
10,11,1,-11,5,5,5,38,26,21,20,11
10,11,0,-11,5,5,5,37,25,20,19,10
9,10,0,-10,5,5,5,36,24,19,18,9
9,10,0,-10,5,4,5,35,23,18,17,8
9,9,0,-10,5,4,5,34,22,17,16,8
9,9,0,-9,5,4,5,34,21,16,15,7
9,8,0,-9,5,3,5,33,20,15,14,7
9,8,0,-8,5,3,6,32,19,13,13,6
8,7,0,-8,5,3,6,31,18,12,12,5
8,7,0,-8,5,2,6,30,17,11,11,4
8,6,-1,-7,5,2,6,29,16,10,10,3
7,6,-1,-7,5,1,6,28,15,9,9,2
7,5,-2,-6,5,1,6,27,14,8,8,1
6,5,-2,-6,5,0,6,26,13,7,7,0
6,4,-2,-6,5,0,6,25,12,6,6,0
6,4,-2,-6,5,0,6,25,11,5,5,-1
6,4,-2,-5,5,0,6,24,10,4,4,-2
6,3,-3,-5,5,0,6,23,9,3,3,-3
6,3,-3,-5,5,0,6,22,8,2,2,-4
6,3,-3,-5,5,0,6,22,7,1,1,-4
6,2,-3,-4,5,0,6,21,7,0,0,-5
6,2,-3,-4,5,-1,6,20,6,0,0,-5
5,1,-3,-4,5,-1,6,19,5,0,-1,-6
5,1,-3,-4,5,-2,6,19,4,-1,-2,-7
4,1,-3,-3,5,-2,6,18,4,-1,-2,-7
4,0,-3,-3,5,-2,6,18,3,-2,-3,-8
4,0,-4,-3,5,-2,7,18,3,-2,-3,-8
4,0,-4,-3,5,-2,7,17,3,-3,-4,-9
4,0,-4,-3,5,-2,7,17,2,-3,-4,-9
3,-1,-4,-2,5,-2,7,16,2,-3,-5,-10
3,-1,-4,-2,5,-2,8,16,2,-4,-5,-10
3,-1,-4,-1,4,-3,8,15,2,-4,-5,-10
3,-1,-4,-1,4,-3,8,15,1,-4,-5,-10
3,-1,-4,-1,4,-3,8,15,1,-5,-5,-10
2,-1,-4,0,4,-3,8,15,1,-5,-5,-11
2,-2,-4,0,4,-3,7,15,1,-5,-5,-11
2,-2,-4,0,4,-3,7,15,0,-5,-6,-11
2,-2,-4,0,4,-3,7,15,0,-5,-6,-11
2,-2,-4,0,4,-3,7,14,0,-5,-6,-12
2,-2,-4,0,4,-3,7,14,0,-5,-6,-12
2,-2,-4,0,4,-3,7,14,0,-5,-6,-12
2,-2,-4,0,4,-3,7,14,0,-5,-6,-12
2,-2,-4,0,4,-3,8,14,0,-5,-6,-12
2,-2,-4,0,4,-3,8,14,0,-5,-5,-12
3,-2,-4,0,4,-3,8,14,0,-5,-5,-12
3,-2,-5,-1,5,-4,8,14,0,-5,-5,-12
3,-2,-5,-1,5,-4,8,15,0,-5,-5,-12
3,-2,-5,-1,5,-4,8,15,0,-5,-5,-12
3,-2,-5,-1,5,-4,8,15,0,-5,-5,-12
3,-1,-5,-1,4,-4,8,15,1,-5,-5,-12
3,-1,-5,-1,4,-4,8,15,1,-5,-5,-12
3,-2,-6,-1,5,-4,8,15,1,-5,-5,-12
4,-2,-6,-1,5,-4,8,15,1,-5,-5,-12
4,-2,-7,-1,6,-4,8,15,1,-5,-5,-12
3,-2,-6,-1,6,-4,8,15,1,-5,-5,-12
3,-2,-6,-1,5,-4,8,14,1,-5,-5,-12
3,-2,-6,-1,5,-4,8,14,1,-5,-4,-12
3,-2,-6,-1,5,-4,8,14,1,-4,-4,-12
3,-2,-6,-1,5,-4,8,14,2,-4,-4,-12
3,-2,-5,-1,5,-4,8,14,2,-4,-4,-12
3,-1,-5,-1,5,-4,8,14,2,-4,-4,-12
3,-1,-5,-1,5,-4,8,14,2,-3,-4,-12
3,-1,-5,-1,5,-4,8,14,2,-3,-4,-12
3,-1,-5,-1,5,-4,8,14,2,-3,-4,-11
3,-1,-5,-1,5,-4,8,14,2,-3,-4,-11
3,-1,-6,-1,5,-4,8,14,2,-3,-4,-11
4,-1,-6,-1,5,-4,7,14,2,-3,-4,-11
4,-1,-6,-1,5,-4,7,14,2,-3,-4,-11
4,-1,-6,-1,5,-4,7,13,2,-3,-4,-11
4,-1,-7,-2,6,-4,7,13,2,-3,-4,-11
4,-1,-7,-2,6,-4,7,13,2,-3,-4,-11
4,-1,-7,-2,6,-4,7,13,2,-3,-4,-11
4,-1,-7,-2,6,-4,7,13,2,-3,-4,-11
4,-1,-7,-2,6,-4,7,13,2,-3,-4,-11
4,-1,-7,-2,6,-4,7,13,2,-3,-4,-11
4,-2,-7,-2,6,-4,7,13,2,-3,-4,-11
4,-2,-7,-2,6,-5,7,13,2,-3,-4,-11
4,-2,-7,-2,6,-5,7,13,2,-3,-4,-11
4,-2,-7,-2,6,-5,7,13,2,-3,-4,-11
4,-2,-7,-2,6,-5,7,13,1,-4,-4,-11
4,-2,-8,-2,6,-6,7,12,1,-4,-4,-11
4,-2,-8,-2,6,-6,7,12,1,-4,-4,-11
4,-2,-8,-2,6,-5,7,12,1,-4,-4,-11
4,-2,-8,-1,6,-5,7,12,1,-4,-4,-11
4,-3,-8,-1,6,-5,7,12,1,-4,-4,-11
4,-3,-8,-1,7,-5,7,12,1,-4,-4,-11
4,-3,-8,-1,7,-6,7,12,1,-4,-4,-11
4,-3,-8,-1,7,-6,7,11,1,-4,-4,-11
4,-3,-8,-1,7,-6,7,11,1,-4,-4,-11
4,-3,-7,-1,7,-6,7,11,0,-4,-4,-11
4,-3,-7,-1,7,-6,7,11,0,-4,-4,-11
4,-3,-8,-1,7,-6,6,11,0,-4,-5,-11
4,-3,-8,-1,7,-6,6,11,0,-4,-5,-11
4,-3,-8,-1,7,-6,6,11,0,-4,-5,-11
4,-3,-8,-1,7,-6,6,11,0,-5,-5,-12
4,-3,-8,-1,7,-6,6,11,0,-5,-5,-12
4,-3,-8,-1,7,-6,6,11,0,-5,-5,-12
4,-3,-8,-1,7,-6,6,11,0,-5,-5,-12
4,-2,-8,-1,7,-6,6,11,0,-4,-5,-12
5,-2,-8,-2,7,-6,6,11,0,-4,-5,-11
5,-2,-8,-2,7,-5,6,10,0,-4,-4,-11
5,-2,-8,-2,7,-5,6,10,0,-4,-4,-10
5,-2,-8,-2,7,-5,6,10,0,-4,-4,-10
5,-2,-8,-2,7,-5,6,10,1,-3,-4,-9
5,-2,-7,-2,7,-5,6,10,1,-3,-4,-9
5,-2,-7,-2,7,-5,6,10,1,-3,-4,-9
5,-2,-7,-2,7,-5,6,10,1,-3,-4,-9
5,-1,-7,-2,7,-4,6,10,1,-3,-3,-9
5,-1,-7,-2,7,-4,6,10,1,-2,-3,-8
6,0,-7,-2,7,-4,6,10,1,-2,-3,-8
6,0,-7,-2,7,-4,6,11,1,-2,-3,-8
6,0,-7,-3,7,-4,6,11,2,-2,-3,-7
6,1,-6,-3,7,-3,6,11,2,-2,-3,-7
6,1,-6,-3,7,-3,6,11,2,-1,-3,-7
6,1,-6,-4,7,-3,6,11,2,-1,-3,-7
7,1,-6,-4,7,-3,6,11,2,-1,-2,-7
7,1,-6,-4,7,-3,6,11,2,-1,-2,-6
7,2,-6,-5,7,-2,6,11,2,-1,-2,-6
7,2,-6,-5,7,-2,6,12,2,-1,-2,-5
7,3,-6,-5,7,-1,6,12,2,-1,-2,-5
7,3,-6,-5,8,-1,6,12,2,-1,-2,-4
8,3,-6,-5,8,-1,5,12,2,-1,-2,-4
8,3,-6,-5,9,-2,5,11,2,-1,-2,-4
9,3,-6,-5,9,-2,4,11,2,-1,-2,-4
9,3,-6,-6,9,-2,3,10,2,-1,-2,-4
9,3,-6,-6,9,-2,3,10,2,-1,-2,-4
9,3,-6,-6,9,-2,3,10,2,-1,-2,-3
9,3,-7,-6,9,-2,2,9,2,-1,-2,-3
9,3,-7,-6,9,-2,2,9,1,-2,-3,-3
9,3,-7,-6,9,-2,2,8,1,-2,-3,-3
9,3,-7,-6,9,-2,2,8,1,-3,-3,-3
9,3,-7,-6,9,-2,1,7,0,-3,-3,-3
9,3,-7,-6,9,-2,1,6,0,-4,-3,-3
9,3,-7,-6,9,-2,0,6,0,-4,-4,-3
9,3,-7,-6,9,-2,0,5,-1,-4,-4,-3
9,3,-7,-6,9,-2,-1,5,-1,-4,-4,-3
9,3,-7,-6,9,-2,-1,4,-1,-4,-4,-3
9,3,-7,-6,9,-2,-1,4,-1,-4,-4,-3
10,3,-7,-6,9,-2,-1,4,-1,-4,-4,-3
10,3,-7,-6,9,-2,-1,3,-2,-4,-5,-3
10,3,-7,-6,9,-2,-1,3,-2,-5,-5,-3
10,2,-7,-6,10,-3,-2,3,-2,-5,-5,-3
10,2,-8,-6,10,-3,-2,3,-2,-5,-5,-3
10,2,-8,-6,10,-3,-2,3,-2,-5,-5,-3
10,1,-9,-6,10,-4,-2,3,-2,-5,-5,-3
10,1,-9,-5,10,-4,-2,3,-2,-5,-6,-3
9,0,-10,-5,10,-5,-2,3,-2,-5,-6,-3
9,0,-10,-4,10,-5,-2,2,-3,-6,-6,-3
8,-1,-10,-4,10,-5,-2,2,-3,-6,-7,-3
8,-1,-10,-4,10,-6,-2,2,-4,-7,-7,-3
8,-2,-11,-4,10,-7,-2,2,-4,-7,-7,-4
8,-2,-11,-4,10,-7,-2,1,-4,-8,-8,-4
8,-3,-11,-3,10,-8,-2,1,-4,-8,-8,-5
7,-3,-11,-3,10,-8,-2,1,-4,-8,-8,-5
7,-4,-11,-2,10,-8,-2,1,-4,-8,-8,-5
7,-4,-11,-2,10,-8,-2,1,-4,-8,-8,-5
7,-4,-11,-2,10,-8,-2,1,-4,-8,-8,-5
7,-4,-12,-2,10,-8,-2,1,-4,-8,-8,-5
7,-4,-12,-2,10,-8,-2,1,-4,-8,-8,-5
7,-4,-12,-2,10,-8,-2,1,-4,-8,-8,-5
7,-4,-12,-2,10,-8,-2,1,-4,-8,-8,-5
7,-4,-12,-2,10,-8,-2,1,-4,-8,-8,-5
6,-4,-12,-2,10,-8,-2,1,-4,-8,-9,-6
6,-4,-12,-1,10,-8,-1,1,-5,-9,-9,-6
6,-4,-12,-1,10,-8,-1,1,-5,-9,-9,-6
6,-4,-12,-1,10,-8,-1,1,-5,-9,-9,-6
6,-4,-12,-1,10,-8,-1,1,-5,-9,-9,-6
6,-4,-11,-1,9,-8,-1,1,-5,-9,-9,-6
5,-5,-11,-1,9,-8,-1,1,-5,-9,-9,-6
5,-5,-11,-1,9,-8,-1,1,-5,-9,-9,-6
5,-5,-11,-1,9,-8,-1,1,-5,-9,-9,-6
5,-5,-11,-1,9,-8,-1,1,-5,-9,-9,-6
5,-5,-11,-1,9,-8,-1,1,-5,-9,-9,-6
5,-5,-11,-1,8,-8,0,1,-5,-9,-9,-6
5,-5,-11,-1,8,-8,0,1,-5,-9,-9,-6
5,-5,-11,-1,9,-8,0,1,-5,-9,-9,-6
6,-5,-11,-1,9,-8,0,2,-5,-9,-9,-6
6,-5,-11,-1,9,-7,0,2,-5,-8,-9,-6
5,-5,-10,-1,8,-7,0,2,-5,-8,-9,-6
5,-5,-10,-1,8,-7,0,2,-5,-8,-9,-7
5,-5,-10,-1,8,-7,0,2,-5,-8,-9,-7
5,-4,-10,-1,8,-7,0,3,-5,-8,-9,-7
5,-4,-10,-1,8,-7,0,3,-5,-8,-9,-7
5,-4,-9,-1,8,-7,0,3,-4,-8,-9,-7
4,-4,-9,-1,7,-7,0,3,-4,-8,-8,-7
4,-4,-9,-1,7,-7,0,4,-3,-8,-8,-7
4,-4,-9,-1,7,-7,0,4,-3,-7,-8,-7
4,-4,-9,-1,7,-7,1,4,-3,-7,-8,-7
4,-4,-9,-1,7,-7,1,4,-3,-7,-8,-7
4,-4,-9,-1,7,-6,1,4,-3,-7,-8,-7
4,-4,-9,-1,7,-6,1,4,-3,-7,-8,-7
4,-4,-8,-1,7,-6,1,4,-3,-7,-8,-7
4,-4,-8,-1,7,-6,1,4,-2,-6,-7,-7
4,-4,-8,-1,6,-6,1,5,-2,-6,-7,-7
4,-4,-8,-1,6,-6,1,6,-1,-6,-6,-7
4,-4,-9,-1,6,-6,2,8,0,-5,-6,-7
4,-5,-10,-1,7,-7,2,11,1,-3,-4,-6
5,-5,-11,-1,8,-7,2,13,3,0,-2,-5
7,-5,-12,-1,10,-8,2,16,7,3,0,-4
9,-5,-14,-2,12,-9,1,20,11,7,4,-3
11,-5,-16,-3,14,-10,1,24,16,12,10,0
13,-4,-17,-5,16,-10,1,30,23,19,16,3
15,-3,-18,-7,17,-10,1,35,29,26,24,7
16,-2,-18,-8,18,-10,0,38,36,33,32,12
18,-1,-18,-9,19,-10,-1,40,43,42,41,18
21,2,-18,-12,20,-8,-2,41,52,52,51,25
25,6,-19,-16,22,-6,-4,41,60,62,61,33
29,10,-19,-20,25,-4,-6,38,68,72,72,41
34,14,-19,-24,27,-2,-10,30,74,81,83,49
38,18,-19,-28,29,0,-14,17,78,88,92,57
41,21,-19,-32,30,2,-18,4,80,92,99,65
43,25,-17,-34,30,4,-22,-9,78,93,102,70
44,29,-15,-37,30,7,-26,-23,72,89,99,73
44,32,-12,-38,29,10,-28,-36,62,79,90,72
43,33,-9,-38,27,12,-29,-49,49,65,76,67
40,33,-6,-37,24,14,-30,-63,31,47,58,60
34,32,-2,-34,19,15,-32,-79,11,26,36,50
27,30,3,-29,12,17,-34,-97,-12,2,14,39
18,26,9,-23,5,18,-36,-114,-34,-21,-9,27
9,23,14,-17,-2,19,-40,-132,-56,-44,-31,16
0,19,18,-11,-8,19,-44,-148,-77,-66,-53,5
-7,17,23,-5,-14,20,-46,-163,-97,-85,-72,-5
-13,15,28,-1,-20,22,-48,-176,-112,-101,-88,-12
-18,14,32,1,-24,23,-51,-184,-124,-112,-100,-18
-21,13,34,3,-26,24,-55,-190,-133,-120,-109,-23
-23,13,36,4,-29,24,-61,-194,-139,-127,-115,-27
-25,12,38,5,-31,25,-65,-196,-143,-132,-120,-30
-27,11,39,6,-32,25,-69,-197,-145,-134,-122,-32
-28,11,40,7,-33,26,-71,-194,-144,-133,-122,-33
-29,12,41,7,-35,27,-71,-189,-140,-130,-120,-33
-29,14,43,6,-36,29,-69,-180,-133,-125,-115,-31
-28,16,45,5,-36,31,-67,-169,-125,-118,-110,-28
-27,18,45,3,-35,32,-64,-157,-117,-110,-103,-26
-26,19,45,2,-35,32,-60,-145,-108,-102,-96,-24
-25,19,44,2,-34,32,-56,-132,-99,-95,-89,-22
-23,19,42,1,-32,31,-53,-120,-91,-87,-82,-20
-21,19,40,0,-29,29,-49,-108,-82,-80,-76,-18
-19,18,37,0,-27,27,-44,-96,-73,-72,-69,-16
-17,18,34,0,-25,26,-40,-85,-65,-64,-62,-14
-14,17,31,-1,-22,24,-36,-74,-57,-57,-56,-12
-11,16,28,-2,-18,22,-32,-65,-50,-50,-50,-11
-9,15,25,-3,-16,20,-29,-56,-44,-44,-44,-11
-9,13,22,-3,-14,18,-26,-49,-38,-39,-39,-10
-8,11,20,-2,-13,15,-23,-43,-34,-35,-35,-10
-8,9,18,-2,-12,13,-21,-38,-30,-32,-32,-10
-7,8,16,-1,-11,12,-20,-34,-27,-30,-30,-9
-7,8,15,-1,-10,11,-18,-31,-25,-28,-28,-8
-7,8,14,-1,-10,11,-17,-29,-22,-25,-26,-7
-5,9,14,-2,-9,11,-15,-26,-20,-23,-23,-6
-4,9,14,-3,-8,11,-14,-23,-18,-20,-21,-6
-4,9,14,-3,-8,11,-13,-20,-16,-19,-19,-5
-3,9,14,-3,-8,11,-12,-18,-14,-17,-17,-4
-3,9,14,-3,-8,11,-12,-16,-13,-16,-16,-4
-3,8,13,-3,-8,11,-11,-15,-12,-15,-15,-3
-3,8,13,-3,-7,11,-11,-13,-10,-13,-14,-3
-3,8,12,-3,-7,11,-10,-12,-9,-12,-13,-2
-3,8,12,-3,-6,11,-10,-10,-7,-10,-11,-2
-2,8,12,-3,-6,11,-9,-8,-6,-8,-10,-1
-2,8,12,-3,-6,11,-9,-6,-4,-6,-8,-1
-2,8,11,-4,-6,11,-8,-5,-3,-5,-7,0
-2,8,11,-4,-6,10,-8,-4,-2,-5,-6,0
-2,8,11,-4,-6,10,-7,-3,-2,-4,-5,0
-2,8,11,-4,-6,10,-7,-3,-1,-3,-4,1
-2,9,11,-4,-6,10,-7,-2,0,-2,-4,1
-1,9,11,-5,-6,10,-7,-1,0,-1,-3,2
-1,9,10,-5,-5,10,-6,0,1,0,-2,2
-1,9,10,-5,-5,10,-6,1,2,0,0,2
-1,9,10,-5,-5,10,-6,2,3,1,0,2
-1,9,10,-5,-5,10,-6,3,4,2,1,3
-1,9,10,-5,-5,10,-6,3,4,2,1,3
-1,9,10,-5,-5,10,-6,3,4,2,1,3
-1,9,10,-5,-5,10,-5,4,4,3,2,4
0,9,10,-5,-5,10,-5,4,5,3,2,4
0,9,10,-5,-5,10,-4,5,6,4,3,5
0,9,10,-5,-5,10,-4,6,7,5,4,5
0,9,10,-5,-5,10,-4,7,8,6,5,5
0,10,10,-6,-5,10,-4,8,8,6,5,5
0,10,10,-6,-5,10,-3,9,9,7,6,6
0,10,10,-6,-5,10,-3,9,9,7,6,6
0,10,10,-6,-5,10,-3,10,10,8,7,7
0,10,10,-6,-5,10,-3,10,11,9,7,7
0,10,10,-6,-5,10,-2,11,12,10,8,8
0,10,10,-6,-4,10,-2,13,13,11,9,8
0,11,10,-7,-4,11,-2,14,14,12,10,8
0,11,10,-7,-4,11,-2,15,14,13,11,9
0,11,10,-7,-4,11,-2,16,15,13,11,9
1,11,10,-8,-4,11,-2,17,15,14,12,10
1,12,10,-8,-4,11,-1,18,16,15,13,10
2,12,10,-8,-4,11,-1,19,17,16,14,11
2,12,10,-8,-3,11,-1,20,18,17,15,11
3,12,10,-8,-3,11,-1,21,20,19,17,12
3,12,10,-8,-3,11,-1,22,21,20,18,12
3,12,9,-8,-3,11,0,23,22,21,19,13
3,12,9,-9,-3,11,0,25,23,21,20,13
4,13,9,-9,-2,12,0,26,24,22,20,14
4,13,9,-10,-2,12,0,27,25,23,21,15
4,13,9,-10,-2,11,0,28,25,24,22,15
4,13,9,-10,-2,11,0,29,26,25,23,16
4,13,9,-10,-1,11,0,31,28,26,24,16
5,13,8,-10,-1,11,1,32,29,27,24,17
6,14,8,-11,0,11,1,34,30,28,25,17
6,14,8,-11,0,11,1,35,31,29,27,18
7,15,8,-12,0,11,1,36,32,30,28,19
7,15,8,-12,0,12,1,37,33,31,29,20
8,15,8,-12,0,12,1,38,33,32,30,20
8,16,7,-13,1,12,1,39,34,33,30,20
9,16,7,-13,2,12,1,40,35,34,31,20
9,16,6,-13,2,12,1,41,36,35,32,20
9,16,6,-14,2,12,2,43,37,36,32,21
10,16,6,-14,3,12,2,44,38,36,33,21
10,16,5,-15,3,12,2,45,39,37,34,21
11,16,5,-15,4,12,2,45,39,37,34,21
11,16,4,-15,4,11,2,46,40,37,34,21
11,16,4,-15,4,11,2,46,40,37,35,21
12,16,4,-15,4,11,2,47,41,38,35,21
12,16,3,-15,5,11,2,47,41,38,35,21
12,16,3,-15,5,11,2,48,41,39,35,21
12,16,3,-15,5,11,2,48,41,39,35,21
13,16,3,-15,6,11,2,48,41,39,35,21
13,16,2,-16,6,10,2,48,41,38,35,21
14,16,2,-16,7,10,2,48,41,38,35,21
14,16,2,-16,7,10,2,48,41,38,35,21
14,16,2,-16,7,10,3,48,40,38,35,21
14,16,2,-16,7,10,3,48,40,38,35,20
14,16,2,-16,6,10,3,49,40,37,34,20
14,15,1,-15,6,9,3,49,39,37,34,19
14,15,1,-15,6,9,3,49,39,36,33,19
14,14,1,-15,6,8,3,49,38,36,33,18
13,14,1,-15,6,8,3,48,38,35,32,18
13,14,1,-15,6,8,3,48,37,35,31,17
13,14,0,-15,6,8,3,48,37,34,31,17
13,13,0,-15,7,7,4,47,36,34,30,16
13,13,0,-15,7,7,4,47,35,33,29,16
13,13,0,-14,7,7,4,46,34,32,28,16
13,13,0,-14,7,7,4,45,34,31,27,16
13,13,0,-14,7,7,4,44,33,30,27,15
13,13,0,-14,7,7,4,44,32,29,26,15
13,12,0,-13,7,6,4,43,31,28,25,14
13,12,-1,-13,7,6,4,43,30,27,24,13
13,12,-1,-13,7,6,4,42,29,26,23,12
13,11,-1,-13,7,6,4,41,28,25,22,11
13,11,-1,-13,7,5,4,40,27,24,21,10
13,11,-1,-13,7,5,4,39,26,23,20,10
13,10,-2,-12,7,5,4,38,26,22,19,9
13,10,-2,-12,7,5,4,37,25,21,18,9
12,9,-2,-12,7,4,4,36,23,20,17,8
12,8,-3,-11,7,4,4,35,22,19,16,7
11,7,-3,-11,7,3,4,34,21,18,15,6
11,7,-3,-10,7,3,3,33,20,17,14,6
11,7,-4,-10,7,3,3,32,19,16,13,5
11,7,-4,-10,8,2,3,31,18,15,12,5
11,6,-5,-10,8,2,3,30,17,14,11,4
11,6,-5,-9,8,2,3,29,16,12,10,4
10,5,-5,-9,8,1,3,28,14,11,8,3
10,5,-5,-8,7,1,3,27,13,10,7,2
9,5,-5,-8,7,1,3,27,12,9,6,1
9,4,-5,-7,7,0,4,26,11,8,5,0
9,4,-5,-7,7,0,5,25,10,7,4,-1
9,3,-5,-6,7,0,6,24,9,6,3,-1
9,3,-6,-6,7,-1,7,24,9,5,2,-2
8,2,-6,-6,7,-1,7,23,8,5,2,-2
8,2,-6,-6,7,-1,8,23,8,4,1,-3
8,2,-7,-6,7,-2,8,22,7,3,0,-4
7,1,-7,-5,7,-2,9,22,6,3,0,-5
7,0,-7,-4,7,-2,9,21,5,2,0,-6
6,0,-7,-4,7,-2,9,20,5,2,-1,-7
6,0,-7,-4,7,-2,9,19,4,1,-1,-7
6,0,-7,-4,7,-2,9,18,4,1,-2,-8
6,0,-7,-4,7,-2,9,18,4,0,-2,-8
6,0,-7,-4,7,-2,10,18,3,0,-3,-8
6,-1,-7,-4,8,-3,10,18,3,0,-3,-8
6,-1,-8,-4,8,-3,10,17,2,0,-4,-9
6,-2,-8,-3,7,-4,10,17,1,-1,-5,-10
5,-3,-8,-2,7,-4,10,16,1,-2,-5,-11
4,-3,-8,-2,7,-5,10,16,0,-2,-6,-11
4,-4,-8,-1,7,-5,9,15,0,-3,-6,-12
4,-4,-7,-1,6,-5,9,15,0,-3,-6,-12
5,-3,-7,-2,6,-4,9,15,0,-3,-6,-12
5,-3,-6,-2,5,-4,10,15,0,-3,-6,-12
5,-2,-7,-2,6,-4,10,15,0,-3,-6,-12
5,-2,-7,-2,6,-4,10,15,0,-3,-6,-12
5,-2,-8,-2,7,-4,10,15,0,-3,-6,-12
5,-3,-8,-2,7,-4,10,14,0,-3,-6,-13
4,-3,-8,-1,6,-4,10,14,0,-3,-6,-13
4,-3,-8,-1,6,-4,10,14,0,-3,-6,-13
5,-3,-8,-2,7,-4,10,14,0,-3,-6,-13
5,-3,-8,-2,7,-4,10,14,0,-2,-5,-13
6,-3,-8,-2,8,-4,10,14,0,-2,-5,-13
6,-2,-8,-2,8,-4,10,14,0,-2,-5,-13
5,-2,-8,-2,8,-4,10,15,0,-2,-5,-13
5,-2,-8,-2,8,-4,10,15,0,-2,-5,-13
5,-3,-8,-2,8,-4,9,15,0,-2,-5,-13
5,-3,-9,-2,8,-5,9,15,0,-2,-5,-13
6,-3,-9,-2,8,-5,9,15,0,-2,-5,-13
6,-3,-9,-2,7,-5,9,15,0,-2,-4,-13
6,-2,-9,-2,7,-5,9,15,1,-1,-4,-13
6,-2,-9,-2,7,-5,9,15,1,-1,-4,-13
6,-2,-9,-2,7,-5,9,15,1,-1,-4,-13
6,-2,-9,-2,7,-5,9,15,1,-1,-4,-13
6,-3,-9,-2,7,-5,9,15,1,-1,-4,-13
6,-3,-9,-2,7,-5,9,15,1,-1,-4,-13
6,-3,-9,-2,7,-5,9,15,1,0,-3,-12
6,-3,-9,-2,7,-5,9,15,1,0,-3,-12
6,-3,-9,-1,7,-5,9,15,1,0,-3,-12
6,-4,-9,-1,8,-5,8,15,1,0,-3,-12
6,-4,-9,-1,8,-6,8,14,1,0,-3,-12
6,-3,-9,-2,8,-6,8,14,1,0,-3,-12
6,-3,-9,-2,8,-5,8,14,1,0,-3,-12
6,-3,-9,-1,7,-5,8,14,1,0,-3,-12
6,-3,-9,-1,7,-5,8,14,1,0,-3,-12
7,-3,-9,-2,7,-5,7,14,1,0,-3,-12
7,-3,-9,-2,8,-5,7,13,1,0,-3,-12
7,-3,-9,-2,8,-5,7,13,1,-1,-3,-12
7,-3,-9,-2,8,-5,6,13,1,-1,-3,-12
7,-3,-9,-2,8,-5,6,13,1,-1,-3,-11
7,-3,-10,-2,8,-5,6,13,1,-1,-3,-11
7,-3,-10,-2,8,-5,6,13,1,-1,-3,-11
7,-3,-10,-2,8,-5,6,13,1,-1,-3,-11
7,-3,-10,-2,8,-5,5,13,1,-1,-3,-11
7,-3,-10,-2,8,-5,5,13,1,-1,-3,-11
7,-3,-10,-2,8,-5,5,13,1,-1,-3,-11
7,-3,-10,-2,8,-5,5,13,1,-1,-3,-11
7,-3,-10,-2,8,-5,4,13,1,-1,-3,-11
7,-3,-10,-2,8,-6,4,12,1,-1,-3,-11
7,-3,-10,-2,8,-6,4,12,1,-1,-3,-11
7,-3,-10,-2,8,-6,4,12,1,-1,-3,-12
7,-3,-10,-2,8,-6,4,12,0,-1,-3,-12
7,-3,-10,-2,8,-6,4,12,0,-1,-3,-13
7,-3,-11,-2,8,-6,4,12,0,-1,-3,-13
7,-3,-11,-2,8,-6,4,12,0,-1,-4,-13
7,-3,-11,-2,8,-6,3,12,0,-1,-4,-13
7,-3,-11,-2,9,-6,3,11,0,-1,-4,-12
7,-3,-12,-2,9,-7,3,11,0,-1,-4,-12
7,-3,-11,-2,9,-7,2,11,0,-1,-4,-11
7,-4,-11,-1,9,-7,2,10,0,-1,-4,-11
7,-4,-11,-1,9,-7,2,10,0,-1,-4,-10
7,-4,-11,-1,9,-7,2,10,0,-1,-4,-10
7,-4,-11,-1,9,-7,1,10,0,-1,-4,-10
7,-4,-11,-1,9,-7,1,10,0,-1,-4,-10
7,-4,-11,-1,9,-7,1,10,0,-1,-4,-10
8,-4,-11,-1,9,-7,1,10,0,-1,-4,-10
8,-4,-11,-1,9,-7,1,10,0,-1,-3,-10
8,-3,-11,-1,9,-7,1,10,0,-1,-3,-9
8,-3,-10,-2,9,-7,1,10,0,-1,-3,-9
8,-3,-10,-2,9,-6,1,10,0,-1,-3,-9
8,-2,-10,-2,9,-6,0,10,0,-1,-3,-9
8,-2,-10,-2,9,-6,0,10,0,-1,-3,-9
8,-2,-10,-2,9,-6,0,10,0,-1,-3,-9
8,-2,-10,-2,9,-6,-1,10,0,-1,-3,-9
8,-1,-10,-2,9,-5,-1,10,0,-1,-2,-9
8,-1,-10,-3,9,-5,-1,10,0,-1,-2,-8
8,-1,-10,-3,9,-5,-1,10,0,-1,-2,-8
8,-1,-10,-3,9,-5,-1,10,0,0,-2,-7
9,-1,-10,-3,9,-5,-1,11,0,0,-2,-7
9,-1,-10,-3,9,-5,-1,11,0,0,-2,-7
9,0,-9,-3,9,-5,-1,11,0,0,-2,-6
9,0,-9,-4,9,-4,-1,11,0,1,-1,-6
10,0,-9,-4,9,-4,-1,12,1,1,-1,-5
10,0,-9,-4,9,-4,-1,12,1,1,0,-5
10,0,-9,-4,9,-4,-1,12,1,1,0,-5
10,0,-9,-4,9,-4,-1,12,1,1,0,-5
10,0,-9,-4,9,-4,-1,12,1,2,0,-5
10,0,-9,-4,9,-4,-2,12,1,2,1,-4
10,1,-9,-4,9,-4,-2,12,1,2,1,-4
10,1,-9,-4,9,-4,-3,12,1,2,1,-4
10,2,-9,-5,9,-3,-4,12,1,2,1,-4
10,2,-9,-5,9,-3,-4,12,1,2,1,-4
10,1,-9,-5,9,-3,-5,11,1,2,0,-5
7,-2,-9,-2,8,-5,-7,10,0,0,-1,-6
-3,-13,-9,8,2,-10,-11,5,-4,-3,-5,-10
-12,-21,-9,16,-1,-14,-14,2,-7,-6,-7,-13
-10,-19,-9,15,-1,-13,-13,2,-7,-6,-7,-12
-13,-21,-9,18,-2,-15,-14,1,-8,-7,-8,-13
-25,-34,-9,30,-9,-21,-19,-4,-12,-11,-12,-17
-32,-41,-9,37,-12,-25,-21,-7,-15,-14,-15,-19
-20,-29,-9,25,-6,-19,-18,-3,-12,-11,-12,-15
-9,-19,-9,15,-1,-14,-15,-1,-9,-8,-9,-12
-41,-51,-9,47,-17,-30,-26,-12,-21,-19,-20,-22
-88,-98,-9,93,-40,-53,-42,-28,-37,-35,-35,-37
-82,-92,-9,87,-37,-50,-40,-26,-35,-33,-33,-36
-45,-55,-10,50,-18,-32,-28,-14,-22,-20,-20,-23
-20,-31,-10,25,-5,-20,-20,-6,-14,-12,-12,-14
-7,-18,-10,13,1,-14,-16,-2,-9,-8,-8,-9
0,-10,-10,5,5,-10,-13,0,-7,-6,-6,-7
5,-6,-10,1,7,-8,-12,1,-5,-4,-4,-5
7,-3,-10,-1,8,-7,-10,2,-4,-3,-4,-4
9,-2,-10,-3,9,-6,-9,3,-4,-2,-3,-4
9,-1,-10,-3,10,-5,-9,4,-3,-2,-2,-3
10,-1,-10,-3,10,-5,-8,4,-3,-2,-2,-3
10,-1,-11,-3,10,-5,-8,4,-3,-2,-2,-3
10,-1,-11,-3,10,-6,-8,4,-3,-2,-2,-3
10,-2,-11,-4,10,-6,-8,4,-4,-2,-3,-3
10,-2,-12,-4,10,-7,-8,4,-4,-2,-3,-3
10,-3,-12,-3,11,-8,-8,4,-4,-2,-3,-3
10,-3,-13,-3,11,-9,-8,4,-4,-2,-3,-3
10,-4,-14,-3,11,-9,-8,4,-5,-2,-3,-3
10,-4,-14,-2,11,-9,-8,4,-5,-3,-3,-4
10,-5,-15,-2,11,-9,-8,3,-5,-3,-4,-4
10,-5,-15,-2,12,-10,-9,3,-6,-3,-4,-5
10,-6,-15,-1,12,-11,-9,3,-6,-3,-4,-5
6,-9,-15,2,10,-12,-10,2,-6,-4,-5,-7
2,-14,-15,6,8,-14,-11,0,-8,-6,-7,-9
1,-15,-15,7,7,-14,-12,0,-8,-7,-7,-9
-1,-16,-13,9,5,-14,-12,-1,-9,-7,-8,-9
-4,-17,-12,11,4,-14,-13,-1,-9,-8,-8,-10
-2,-15,-12,9,5,-13,-12,0,-9,-7,-8,-9
0,-12,-12,6,6,-12,-11,0,-8,-6,-7,-9
1,-11,-12,5,6,-12,-10,1,-7,-5,-7,-8
2,-10,-12,4,6,-11,-10,2,-7,-5,-6,-8
4,-8,-12,2,7,-10,-9,2,-6,-4,-6,-8
5,-8,-12,1,8,-9,-9,3,-6,-4,-5,-8
7,-5,-13,-1,10,-8,-8,3,-5,-3,-5,-7
5,-7,-13,1,9,-9,-9,2,-6,-4,-6,-8
-33,-46,-13,40,-10,-29,-22,-10,-19,-18,-19,-20
-93,-106,-13,99,-40,-59,-42,-30,-39,-38,-38,-40
-101,-115,-13,108,-44,-64,-45,-33,-42,-40,-41,-42
-71,-84,-13,78,-29,-49,-35,-22,-32,-30,-30,-32
-65,-78,-13,72,-26,-45,-33,-20,-30,-28,-28,-29
-77,-90,-13,83,-32,-51,-36,-24,-34,-32,-32,-33
-70,-83,-13,76,-29,-48,-34,-22,-31,-29,-30,-31
-46,-60,-14,53,-17,-36,-26,-13,-23,-21,-22,-23
-24,-38,-14,31,-6,-25,-18,-6,-15,-13,-14,-16
-11,-25,-14,18,0,-19,-13,-1,-11,-9,-10,-11
-4,-18,-14,11,4,-15,-10,1,-8,-6,-7,-9
1,-12,-14,6,6,-13,-9,3,-7,-4,-5,-7
-1,-14,-14,8,5,-14,-9,2,-7,-5,-5,-7
-17,-30,-14,24,-2,-21,-14,-2,-12,-10,-10,-12
-25,-39,-14,33,-6,-26,-17,-5,-15,-13,-13,-15
-15,-29,-14,22,-1,-21,-14,-2,-11,-10,-10,-12
-4,-18,-13,11,4,-15,-11,1,-8,-7,-7,-9
0,-13,-13,6,5,-13,-10,3,-7,-5,-5,-8
2,-10,-13,4,6,-11,-9,4,-6,-4,-4,-7
4,-8,-12,2,7,-10,-8,5,-5,-3,-4,-7
5,-7,-12,1,7,-9,-7,6,-4,-3,-3,-6
3,-8,-11,2,7,-9,-7,6,-4,-3,-3,-7
0,-12,-11,6,5,-11,-8,5,-5,-4,-4,-8
-1,-13,-11,7,5,-11,-8,5,-5,-4,-4,-9
1,-10,-12,4,6,-10,-6,7,-4,-3,-3,-9
3,-9,-12,3,7,-10,-5,9,-3,-2,-2,-8
5,-9,-13,2,8,-11,-5,11,-2,0,-1,-8
6,-8,-14,1,9,-11,-4,13,0,1,0,-7
7,-8,-15,0,10,-11,-4,15,3,4,3,-6
9,-8,-16,0,12,-11,-4,18,6,7,6,-4
11,-7,-18,-2,14,-11,-5,22,11,12,10,-2
13,-6,-19,-3,15,-11,-5,26,16,18,16,0
15,-5,-19,-5,17,-11,-5,32,23,25,23,4
17,-4,-20,-6,18,-11,-5,37,30,33,31,9
18,-3,-21,-7,18,-11,-6,41,37,41,39,14
20,-2,-21,-9,20,-11,-7,44,45,50,49,20
23,1,-21,-12,21,-10,-8,45,54,60,60,27
27,5,-21,-16,23,-8,-10,46,63,71,71,35
31,9,-21,-20,25,-5,-13,44,72,82,83,43
36,14,-21,-25,28,-3,-16,37,79,91,94,52
40,19,-20,-29,29,0,-20,25,83,99,103,60
38,19,-19,-28,28,0,-26,9,83,101,108,66
31,13,-17,-22,24,-1,-32,-8,77,98,107,68
25,11,-14,-18,19,-1,-36,-24,68,91,101,68
24,13,-10,-19,17,2,-37,-37,57,81,92,67
26,19,-7,-23,16,7,-36,-49,44,67,79,63
27,24,-3,-26,14,11,-34,-60,29,50,62,56
24,26,2,-25,10,15,-34,-73,11,30,41,48
19,26,7,-22,5,17,-35,-90,-10,8,19,38
12,25,13,-18,-1,19,-36,-107,-32,-14,-3,28
5,24,19,-14,-7,21,-39,-125,-54,-37,-25,17
-2,22,25,-10,-14,24,-43,-142,-76,-59,-47,6
-9,20,30,-6,-20,25,-46,-158,-96,-79,-66,-3
-16,18,34,-1,-26,26,-49,-170,-111,-94,-81,-10
-21,15,37,3,-30,27,-52,-179,-123,-106,-93,-16
-24,13,38,5,-31,27,-57,-185,-133,-115,-101,-22
-26,12,38,7,-32,26,-64,-191,-140,-123,-109,-26
-26,12,39,8,-33,26,-70,-194,-145,-128,-114,-29
-27,12,40,8,-33,27,-73,-194,-147,-130,-116,-31
-28,13,42,8,-35,28,-75,-193,-147,-129,-117,-32
-29,14,44,7,-36,29,-76,-188,-143,-126,-115,-32
-29,15,45,7,-37,31,-75,-181,-138,-121,-111,-31
-29,17,46,6,-38,32,-73,-171,-131,-115,-106,-29
-29,18,47,5,-38,33,-70,-159,-122,-108,-100,-26
-28,19,47,4,-37,34,-67,-147,-114,-101,-93,-24
-26,19,45,3,-36,33,-63,-135,-105,-93,-86,-22
-24,19,43,2,-34,32,-59,-123,-96,-85,-79,-20
-22,19,41,1,-32,31,-54,-111,-87,-77,-72,-18
-19,18,37,1,-29,28,-50,-99,-78,-69,-64,-16
-17,17,34,0,-26,26,-46,-87,-69,-61,-57,-15
-15,15,30,0,-23,23,-43,-77,-61,-53,-50,-13
-13,14,27,0,-21,21,-39,-67,-53,-46,-44,-11
-12,13,24,-1,-18,19,-36,-57,-46,-40,-38,-10
-10,12,21,-1,-16,17,-33,-49,-40,-35,-33,-9
-9,10,19,-1,-14,15,-30,-43,-35,-30,-28,-8
-8,9,17,-1,-13,14,-28,-38,-31,-27,-25,-8
-7,8,16,0,-12,12,-26,-35,-29,-24,-23,-7
-6,7,14,0,-11,11,-25,-32,-26,-22,-20,-7
-6,7,14,0,-10,11,-24,-29,-24,-20,-18,-6
-6,7,14,0,-10,11,-24,-27,-22,-18,-16,-5
-6,8,14,-1,-10,11,-23,-24,-20,-16,-13,-4
-6,8,14,-1,-10,12,-22,-21,-18,-14,-11,-3
-5,9,14,-2,-10,12,-21,-19,-16,-12,-10,-2
-5,9,14,-2,-10,12,-20,-17,-14,-10,-8,-2
-5,9,14,-2,-10,12,-19,-16,-13,-9,-7,-2
-5,9,14,-2,-10,12,-18,-15,-12,-8,-6,-2
-5,8,13,-2,-9,11,-18,-14,-12,-7,-6,-1
-4,8,13,-2,-9,11,-17,-12,-11,-6,-5,-1
-3,8,12,-2,-8,10,-16,-10,-9,-4,-3,0
-3,8,12,-3,-7,10,-16,-8,-7,-3,-1,0
-2,8,11,-3,-6,10,-15,-6,-6,-1,0,1
-2,7,11,-2,-6,10,-15,-5,-5,0,1,1
-2,7,11,-2,-7,10,-14,-4,-4,0,1,2
-2,7,10,-2,-6,10,-14,-4,-3,1,2,2
-1,7,10,-2,-6,9,-14,-3,-2,2,3,3
-2,7,10,-2,-6,9,-14,-3,-2,3,4,4
-2,8,10,-2,-7,9,-13,-2,-1,4,5,4
-2,8,11,-2,-7,9,-13,-1,0,5,6,5
-2,8,11,-2,-7,9,-13,0,0,5,6,5
-2,9,11,-3,-7,10,-12,0,1,6,7,5
-2,9,11,-3,-7,10,-12,0,2,6,7,5
-2,10,12,-3,-7,11,-12,1,2,6,7,5
-2,10,12,-3,-7,11,-12,1,2,6,8,6
-2,10,11,-3,-7,11,-12,2,3,7,9,6
-1,10,11,-3,-7,10,-11,3,4,8,10,7
-1,10,11,-3,-6,10,-11,4,5,9,11,7
-1,9,10,-3,-6,9,-11,5,6,10,12,8
-1,9,10,-3,-6,9,-10,6,7,11,13,9
-1,9,10,-4,-6,10,-10,6,8,12,13,10
0,9,10,-4,-6,10,-10,7,8,13,14,11
0,9,9,-4,-6,10,-10,7,9,13,14,11
0,10,10,-5,-6,10,-10,7,9,14,15,11
0,11,10,-5,-6,11,-10,8,10,14,15,11
0,11,11,-5,-6,11,-10,9,10,15,16,11
0,12,11,-6,-6,12,-10,10,11,16,17,12
1,12,11,-6,-5,12,-10,10,12,17,18,12
1,12,12,-6,-6,12,-10,11,13,18,19,12
1,12,12,-6,-6,12,-10,12,13,19,19,13
1,12,12,-7,-6,12,-9,13,14,19,20,13
1,13,11,-7,-6,12,-9,14,15,20,21,14
2,13,11,-8,-5,12,-9,15,16,21,22,15
2,13,11,-8,-5,13,-9,17,17,22,23,16
2,14,11,-8,-5,13,-8,18,19,23,25,17
3,14,11,-9,-4,13,-8,20,20,25,26,18
3,14,11,-9,-4,13,-7,21,21,26,27,19
3,14,11,-9,-4,13,-7,22,22,26,28,19
4,14,10,-9,-4,13,-7,23,23,27,28,20
4,14,10,-9,-4,13,-7,24,23,28,29,20
4,14,10,-9,-4,13,-7,25,24,28,30,21
5,14,9,-10,-3,13,-6,26,25,29,31,21
6,15,9,-11,-3,13,-6,28,26,31,32,21
7,15,8,-11,-2,13,-6,29,27,32,33,21
7,15,8,-11,-1,13,-6,31,29,33,34,22
8,16,8,-12,-1,13,-6,32,30,34,35,22
8,16,8,-12,-1,13,-6,33,31,35,35,23
8,17,8,-13,-1,13,-6,34,32,36,36,23
9,17,8,-13,-1,13,-6,34,33,37,37,24
9,18,8,-13,0,14,-6,35,34,37,38,24
10,18,8,-14,0,14,-6,37,35,38,39,25
11,19,8,-15,1,14,-6,38,36,39,40,25
12,19,8,-16,1,14,-6,39,36,40,41,26
12,20,7,-16,2,14,-6,40,37,40,41,26
13,20,7,-16,2,14,-6,40,37,41,41,26
13,20,7,-16,2,14,-5,41,37,41,42,26
13,19,6,-16,2,13,-4,41,38,42,42,26
13,19,6,-16,2,13,-4,42,38,42,43,26
13,19,6,-16,2,13,-3,43,39,43,43,27
13,19,6,-16,3,13,-3,44,39,43,44,27
14,19,5,-16,3,12,-3,45,40,44,44,27
14,19,5,-16,3,12,-3,45,40,44,44,27
14,19,5,-16,3,12,-3,46,40,44,44,27
14,18,5,-16,3,12,-3,46,40,43,44,27
14,18,4,-16,3,12,-3,46,40,43,43,27
14,18,4,-16,4,12,-3,46,39,43,43,27
14,18,4,-16,4,12,-3,46,39,43,43,27
14,18,4,-16,4,12,-3,46,39,42,43,26
14,17,4,-15,4,11,-3,45,38,42,43,26
14,17,3,-15,4,11,-3,45,38,41,42,25
14,17,3,-15,4,11,-3,45,37,41,41,24
14,17,3,-15,4,11,-3,44,37,40,41,24
14,17,3,-15,4,11,-3,44,36,39,40,23
14,17,3,-15,4,11,-3,43,35,38,39,22
13,17,3,-15,4,11,-3,42,34,37,38,21
13,16,3,-14,3,11,-3,42,33,36,36,20
13,16,3,-14,3,11,-3,42,32,35,35,20
13,16,3,-14,4,10,-3,41,32,35,35,19
13,15,2,-14,4,10,-3,40,31,34,34,19
13,15,2,-14,4,9,-3,40,30,33,33,18
12,14,2,-13,4,9,-2,39,30,32,33,18
12,14,2,-13,4,9,-2,39,29,31,32,18
12,13,1,-13,4,8,-1,38,28,30,31,18
12,13,1,-12,4,8,-1,38,27,29,30,16
11,12,1,-12,4,7,-1,37,26,28,28,15
11,11,1,-11,4,7,-1,36,25,27,27,14
11,10,0,-11,4,6,-1,35,24,26,27,13
11,10,0,-10,4,6,-1,34,22,25,26,12
10,10,0,-10,4,5,0,33,21,24,25,12
10,9,0,-9,4,5,0,32,20,23,23,11
10,9,-1,-9,4,4,0,31,19,21,22,11
10,9,-1,-9,4,4,0,30,18,20,21,10
10,9,-1,-9,4,4,0,29,17,19,20,9
9,8,-1,-8,4,4,0,29,16,18,19,8
9,8,-1,-8,4,3,0,28,15,17,18,7
9,7,-2,-7,4,2,0,27,14,16,17,6
8,6,-3,-7,4,1,0,27,13,15,16,6
8,5,-3,-7,5,1,0,26,12,14,15,5
8,4,-3,-6,5,0,0,26,11,13,14,5
8,4,-4,-6,5,0,0,25,11,12,13,4
8,3,-4,-6,5,0,0,24,10,12,12,3
7,3,-4,-6,5,0,0,23,9,11,11,2
7,2,-4,-5,5,0,0,22,8,10,10,0
6,2,-4,-4,5,-1,0,21,7,9,10,-1
6,1,-4,-4,4,-1,0,20,6,8,9,-2
6,1,-4,-3,4,-1,0,19,6,7,8,-3
6,1,-4,-3,4,-1,1,18,5,6,7,-4
6,1,-4,-3,4,-1,1,18,4,6,6,-4
5,1,-4,-3,3,-1,1,18,3,5,5,-5
5,1,-4,-3,3,-1,1,18,3,5,4,-6
5,0,-4,-2,4,-1,1,17,2,4,4,-6
5,0,-5,-2,4,-2,1,17,2,4,3,-7
4,-1,-5,-1,4,-2,1,17,1,3,3,-7
4,-2,-6,-1,4,-2,2,16,1,3,3,-7
5,-2,-6,-1,4,-2,2,16,1,3,3,-7
5,-2,-7,-2,5,-3,2,16,0,3,3,-7
5,-2,-7,-1,5,-4,2,15,0,2,3,-8
5,-3,-8,-1,5,-5,2,15,0,2,2,-8
4,-4,-8,0,5,-5,2,15,0,2,2,-8
5,-3,-8,0,6,-5,2,14,0,2,2,-8
5,-3,-8,-1,6,-5,2,14,0,2,2,-8
5,-3,-8,-1,5,-4,2,14,0,2,2,-8
5,-3,-8,-1,5,-4,2,13,0,2,2,-7
5,-3,-8,-1,5,-4,2,13,0,2,2,-7
5,-3,-8,-1,5,-4,2,13,0,2,2,-7
5,-3,-7,-1,5,-4,3,13,0,2,2,-7
4,-4,-7,0,5,-5,3,13,0,2,2,-8
3,-5,-7,1,5,-5,4,13,0,2,2,-9
3,-5,-7,1,5,-6,4,14,0,2,2,-9
3,-5,-8,1,5,-6,4,14,0,2,2,-10
3,-5,-8,1,5,-6,4,14,0,2,2,-10
4,-5,-8,1,5,-6,4,14,0,2,2,-10
4,-5,-8,0,5,-6,4,14,0,2,2,-10
3,-5,-8,0,5,-6,3,14,0,2,2,-10
3,-5,-8,1,4,-5,3,14,0,2,2,-10
3,-5,-8,1,4,-5,3,14,0,2,2,-10
3,-4,-8,0,4,-5,3,14,0,2,2,-11
3,-4,-8,0,4,-5,3,14,0,2,2,-11
4,-3,-8,0,5,-4,3,14,0,2,2,-11
4,-3,-8,-1,5,-4,4,15,0,3,2,-10
5,-3,-8,-1,5,-4,3,15,1,3,2,-10
5,-3,-8,-1,5,-4,3,15,1,3,2,-10
5,-3,-8,-1,5,-5,3,15,2,3,3,-10
5,-3,-8,-1,6,-5,3,15,2,3,3,-10
5,-3,-8,-1,6,-5,3,15,2,3,3,-10
5,-3,-8,0,6,-5,3,15,2,4,3,-10
5,-3,-8,0,6,-5,3,15,2,4,4,-9
5,-3,-8,0,6,-5,3,15,2,4,4,-9
5,-3,-9,-1,7,-5,3,15,2,4,4,-9
6,-4,-9,-1,7,-5,3,15,2,4,4,-9
6,-4,-9,-1,7,-5,3,15,2,4,4,-9
6,-4,-9,-1,7,-5,3,15,2,4,5,-9
6,-3,-9,-1,8,-5,4,15,2,4,5,-9
6,-3,-10,-1,8,-6,4,15,2,4,5,-9
6,-3,-9,-1,7,-6,4,15,2,4,4,-9
5,-3,-9,-1,7,-6,4,15,2,4,4,-9
6,-3,-9,-1,7,-6,4,15,2,4,4,-9
6,-3,-9,-1,7,-6,4,15,2,3,4,-9
6,-3,-9,-1,7,-6,4,15,2,3,4,-9
6,-3,-9,-1,7,-6,4,15,2,3,4,-9
6,-3,-8,-1,7,-6,4,15,2,3,4,-9
6,-3,-8,-1,7,-6,4,14,2,3,4,-9
5,-4,-8,-1,7,-6,4,14,2,3,4,-9
5,-4,-9,-1,7,-6,4,14,2,3,4,-9
5,-4,-9,-1,7,-6,5,14,2,3,4,-9
5,-4,-9,-1,7,-6,5,14,1,3,4,-9
5,-5,-10,-1,7,-7,5,14,1,3,4,-9
5,-5,-10,0,7,-7,5,14,1,3,4,-9
5,-5,-9,0,7,-7,5,14,1,3,4,-9
5,-5,-10,0,7,-7,5,13,1,3,4,-8
5,-5,-10,0,7,-7,5,13,1,3,4,-8
6,-5,-10,-1,8,-7,5,12,1,3,4,-7
6,-5,-10,-1,8,-7,5,12,1,3,4,-7
7,-5,-10,-1,8,-7,5,12,1,3,4,-7
6,-5,-9,-1,7,-6,5,12,1,3,4,-7
5,-5,-9,-1,7,-6,5,12,0,3,4,-7
5,-5,-8,-1,7,-6,5,12,0,3,4,-7
5,-4,-8,-1,7,-6,5,12,0,3,4,-7
5,-3,-8,-2,7,-5,5,12,0,3,4,-7
5,-3,-8,-1,7,-5,5,12,0,3,4,-7
4,-4,-8,0,6,-5,6,12,0,3,3,-7
6,-2,-8,-2,7,-4,7,12,1,3,4,-6
4,-4,-8,0,6,-5,6,11,1,3,4,-7
-29,-38,-8,33,-10,-22,-5,0,-10,-8,-7,-18
-67,-76,-8,71,-29,-41,-17,-12,-23,-21,-20,-31
-62,-70,-8,65,-26,-39,-15,-10,-22,-19,-18,-29
-45,-54,-8,49,-18,-31,-9,-5,-16,-13,-13,-23
-37,-46,-8,41,-14,-26,-7,-2,-14,-11,-10,-20
-30,-39,-7,34,-11,-23,-5,0,-11,-8,-8,-17
-90,-99,-7,94,-41,-53,-25,-19,-31,-28,-28,-36
-218,-226,-7,221,-105,-116,-67,-62,-73,-71,-70,-78
-250,-257,-6,253,-122,-131,-78,-73,-84,-81,-80,-89
-170,-177,-6,173,-82,-91,-52,-46,-57,-54,-53,-63
-103,-109,-6,105,-49,-57,-29,-24,-35,-31,-31,-40
-75,-81,-5,77,-35,-43,-21,-15,-26,-22,-22,-31
-81,-86,-5,83,-38,-45,-22,-17,-27,-24,-23,-33
-100,-105,-4,102,-48,-54,-28,-23,-33,-30,-29,-39
-144,-149,-4,146,-71,-76,-42,-37,-48,-45,-44,-53
-201,-206,-3,203,-99,-103,-61,-56,-67,-64,-62,-72
-201,-205,-3,202,-99,-103,-60,-56,-67,-64,-62,-72
-166,-170,-4,167,-81,-86,-49,-45,-56,-53,-51,-60
-131,-135,-4,132,-63,-69,-37,-33,-44,-42,-40,-48
-89,-94,-4,90,-42,-49,-24,-20,-31,-28,-27,-34
-53,-60,-5,55,-23,-33,-13,-8,-20,-17,-16,-21
-34,-41,-6,37,-13,-24,-7,-2,-13,-10,-9,-14
-27,-35,-7,31,-10,-21,-5,0,-11,-7,-7,-10
-22,-30,-7,26,-7,-18,-3,2,-8,-5,-4,-8
-15,-23,-7,18,-3,-13,-1,4,-5,-2,-1,-5
-6,-14,-7,9,0,-9,0,6,-3,0,1,-2
0,-7,-6,2,3,-5,2,7,-1,1,3,0
3,-3,-6,-1,4,-4,3,7,-1,2,3,0
5,-1,-5,-2,5,-3,3,7,-1,2,3,0
6,0,-5,-3,5,-2,3,7,-1,2,3,1
7,1,-4,-4,6,-1,4,7,-1,2,4,1
8,2,-4,-5,7,0,4,7,0,2,4,2
9,3,-4,-6,7,0,4,7,0,3,4,3
9,3,-4,-7,7,0,4,7,0,3,4,3
9,4,-5,-7,7,0,3,7,-1,3,4,3
7,1,-5,-5,6,-1,2,6,-2,1,3,2
3,-3,-5,0,4,-3,0,4,-4,0,1,1
3,-3,-6,0,4,-4,0,3,-4,-1,1,0
5,-1,-6,-2,5,-3,1,4,-4,0,1,1
4,-3,-6,-1,4,-3,0,3,-4,0,1,1
1,-5,-6,1,3,-4,0,2,-5,-1,0,0
2,-5,-6,1,4,-4,0,2,-4,0,1,1
3,-4,-7,0,4,-4,0,3,-4,0,1,1
3,-4,-7,0,5,-5,0,3,-4,0,1,1
4,-4,-7,0,5,-5,0,3,-4,0,1,0
4,-4,-7,-1,5,-5,0,3,-4,0,1,0
5,-3,-7,-1,6,-4,1,3,-4,0,1,0
6,-3,-8,-2,7,-4,1,3,-4,0,1,0
7,-2,-8,-2,8,-4,1,3,-4,0,1,0
7,-2,-9,-3,8,-4,1,3,-4,0,1,0
7,-3,-9,-3,9,-5,1,3,-4,0,1,0
7,-3,-10,-2,9,-5,1,3,-5,-1,0,-1
5,-6,-10,0,7,-7,0,2,-6,-2,0,-2
0,-11,-10,5,5,-10,-1,0,-8,-4,-2,-3
-2,-13,-10,6,4,-10,-2,0,-9,-5,-3,-4
0,-10,-10,4,5,-9,-2,0,-8,-4,-3,-3
2,-7,-10,2,6,-7,-1,0,-8,-4,-2,-2
4,-6,-9,0,7,-6,-1,0,-7,-3,-2,-1
5,-5,-9,0,7,-6,-1,1,-7,-3,-1,-1
6,-4,-8,-1,7,-6,-1,1,-6,-3,-1,-1
6,-3,-8,-2,7,-5,0,2,-6,-2,-1,0
7,-2,-8,-2,7,-5,0,2,-5,-2,0,0
7,-3,-8,-2,7,-6,0,3,-5,-2,0,0
6,-4,-9,-1,7,-6,0,3,-5,-2,0,0
6,-4,-9,-1,7,-6,0,3,-5,-2,0,0
7,-4,-9,-2,7,-6,0,3,-5,-2,0,0
6,-4,-9,-2,7,-6,0,3,-5,-2,0,0
6,-4,-9,-2,7,-6,0,2,-5,-2,0,0
5,-3,-9,-1,7,-6,0,2,-5,-2,0,0
5,-3,-9,-1,7,-6,0,2,-5,-2,0,0
5,-3,-9,-1,7,-6,0,2,-5,-2,0,1
5,-4,-9,0,6,-6,0,2,-5,-2,0,1
4,-4,-8,0,6,-5,0,2,-5,-2,0,1
4,-4,-8,0,6,-5,0,2,-5,-2,0,1
4,-4,-8,0,6,-5,1,2,-5,-1,0,1
4,-4,-8,0,6,-5,1,3,-4,-1,0,1
4,-4,-8,0,7,-6,1,3,-4,-1,0,0
4,-4,-8,0,7,-6,1,3,-4,-1,0,0
4,-4,-8,0,7,-6,1,3,-4,-1,0,0
4,-4,-8,0,6,-6,2,3,-4,-1,0,0
4,-4,-8,0,6,-6,2,4,-4,-1,0,0
5,-4,-8,0,6,-6,3,4,-4,-1,0,0
4,-4,-8,0,6,-6,3,4,-4,-1,0,0
4,-5,-8,0,5,-6,4,4,-4,-1,0,0
3,-5,-8,0,5,-6,4,4,-4,-1,0,-1
3,-5,-8,0,5,-6,4,4,-4,-1,0,-1
3,-5,-8,0,5,-6,4,4,-4,-1,0,-1
3,-5,-8,1,5,-6,4,4,-4,-1,0,-1
3,-6,-7,1,4,-6,5,4,-4,-1,0,-1
3,-6,-7,1,4,-6,5,4,-4,-1,0,-1
3,-6,-7,1,4,-6,5,4,-3,-1,0,-1
3,-6,-8,1,5,-6,6,5,-3,0,0,-1
3,-6,-8,1,6,-7,6,7,-2,0,1,-1
3,-6,-9,0,7,-7,7,9,0,2,2,-1
5,-6,-11,0,8,-8,7,12,2,4,4,0
6,-6,-12,0,9,-9,7,15,5,8,7,1
8,-7,-14,-1,11,-9,7,19,9,12,11,3
9,-7,-15,-1,12,-10,7,23,14,17,16,5
11,-6,-16,-1,13,-11,7,28,20,23,22,8
13,-5,-17,-3,15,-11,7,34,28,31,30,12
14,-4,-17,-5,16,-10,7,39,36,40,39,17
16,-2,-17,-7,17,-9,6,43,45,49,48,23
18,0,-17,-10,18,-8,5,45,54,59,59,30
22,4,-17,-13,19,-6,4,47,64,70,70,38
25,8,-17,-17,21,-4,1,46,73,81,82,46
29,12,-16,-20,22,-1,-2,41,81,92,94,54
32,16,-15,-24,23,1,-6,30,87,100,105,63
35,21,-13,-28,24,4,-10,16,89,106,112,71
37,25,-11,-31,24,8,-13,0,88,108,116,76
38,29,-8,-34,23,11,-16,-15,82,104,114,80
37,32,-5,-35,21,14,-18,-30,72,95,106,80
36,34,-2,-35,19,17,-19,-44,58,80,92,76
32,34,2,-33,15,19,-19,-57,41,62,74,68
27,33,7,-30,9,21,-19,-72,22,41,53,58
20,33,14,-26,2,24,-21,-89,0,18,30,47
12,32,20,-22,-4,26,-23,-107,-23,-5,6,36
4,30,26,-17,-11,28,-25,-124,-46,-29,-17,25
-3,27,31,-12,-17,29,-29,-142,-69,-53,-39,14
-11,25,36,-7,-23,31,-33,-158,-90,-74,-60,4
-17,23,40,-3,-28,32,-35,-171,-107,-91,-77,-4
-22,20,42,0,-32,32,-38,-181,-120,-104,-90,-11
-25,18,43,3,-34,32,-42,-188,-130,-114,-100,-17
-26,17,43,5,-35,31,-48,-194,-139,-122,-108,-22
-27,16,44,6,-36,30,-55,-198,-145,-128,-113,-26
-28,15,45,6,-36,30,-60,-200,-148,-131,-117,-28
-29,15,46,7,-37,31,-64,-200,-148,-132,-118,-29
-30,15,47,7,-38,31,-65,-196,-146,-130,-118,-29
-30,16,48,6,-39,32,-65,-190,-142,-127,-115,-28
-30,17,48,5,-39,33,-64,-182,-135,-121,-110,-27
-29,19,49,4,-39,35,-62,-171,-128,-115,-105,-25
-28,20,49,3,-39,35,-59,-159,-119,-107,-99,-23
-27,21,49,3,-38,35,-55,-147,-111,-100,-92,-21
-26,21,47,2,-36,34,-50,-135,-102,-92,-85,-19
-23,20,44,1,-34,33,-46,-122,-92,-84,-78,-16
-21,20,41,0,-31,31,-41,-110,-83,-75,-70,-14
-18,18,37,0,-27,28,-37,-97,-73,-67,-63,-11
-15,17,33,-1,-24,25,-32,-86,-65,-59,-56,-9
-14,15,29,-1,-22,23,-28,-76,-57,-52,-50,-8
-13,13,26,0,-20,20,-24,-66,-50,-46,-44,-7
-12,11,23,0,-18,18,-21,-58,-43,-40,-38,-6
-11,10,20,0,-16,16,-18,-51,-38,-35,-34,-6
-10,8,18,0,-14,14,-16,-45,-34,-31,-30,-5
-9,7,16,0,-12,12,-14,-40,-30,-28,-27,-5
-8,6,15,0,-11,11,-12,-37,-28,-26,-25,-4
-7,6,14,0,-11,10,-11,-33,-25,-23,-22,-3
-6,6,13,0,-10,10,-10,-30,-23,-21,-20,-3
-6,6,12,0,-9,10,-9,-27,-21,-19,-18,-2
-6,6,12,0,-9,10,-8,-25,-19,-17,-16,-2
-6,6,12,0,-9,10,-7,-22,-17,-15,-15,-1
-6,6,12,0,-9,9,-6,-21,-15,-13,-13,0
-5,6,12,-1,-9,9,-4,-19,-13,-12,-11,0
-5,6,12,-1,-9,9,-3,-18,-12,-10,-10,1
-4,6,11,-1,-8,9,-3,-16,-10,-9,-8,2
-4,6,11,-1,-8,9,-2,-15,-9,-8,-7,3
-4,6,10,-1,-7,9,-2,-14,-7,-6,-6,3
-4,6,10,-1,-7,9,-1,-12,-6,-5,-4,3
-4,6,10,-1,-7,9,-1,-11,-5,-4,-3,3
-4,6,10,-2,-7,9,0,-9,-4,-3,-2,3
-4,6,10,-2,-7,9,0,-8,-3,-2,-1,4
-4,6,10,-2,-7,9,0,-7,-2,-1,-1,4
-4,6,10,-2,-7,8,1,-7,-1,0,0,5
-4,6,9,-2,-7,8,1,-6,0,0,0,5
-4,6,9,-1,-7,8,2,-5,0,1,1,5
-4,6,9,-1,-7,8,2,-4,1,1,1,5
-4,6,9,-1,-7,8,2,-3,1,2,2,6
-4,6,9,-1,-7,8,3,-3,2,2,3,6
-4,6,9,-1,-7,8,3,-3,2,3,3,6
-4,6,9,-1,-7,8,3,-2,3,3,4,7
-4,6,9,-1,-7,8,3,-2,3,4,4,7
-3,6,9,-2,-6,8,3,-1,4,5,5,8
-3,6,9,-2,-6,8,3,-1,5,6,6,8
-3,6,9,-2,-6,8,3,0,6,7,7,9
-3,6,9,-2,-6,8,3,0,7,8,8,9
-2,7,9,-2,-6,9,3,1,7,8,8,10
-2,8,10,-3,-6,9,3,1,8,9,9,10
-2,8,10,-3,-6,9,3,2,8,9,10,11
-2,7,9,-3,-6,9,3,3,9,10,10,11
-2,7,9,-3,-6,9,3,3,10,10,11,11
-1,7,9,-3,-5,9,3,4,10,11,11,12
-1,8,9,-3,-5,9,4,5,11,12,12,12
-1,8,9,-3,-5,9,4,6,12,13,13,13
-1,9,10,-3,-6,9,4,7,13,14,14,13
-1,9,10,-4,-6,9,4,8,14,15,15,14
-1,10,10,-4,-6,9,4,9,15,15,15,14
-1,10,10,-4,-6,10,4,9,15,16,16,14
0,10,10,-5,-6,10,4,10,16,17,16,14
0,10,11,-5,-6,11,4,11,17,18,17,15
0,10,11,-5,-6,11,5,12,18,19,18,15
-1,11,12,-5,-6,12,5,13,19,20,19,16
0,11,12,-5,-6,12,5,15,20,21,20,16
0,12,12,-6,-6,12,5,16,21,21,21,17
0,13,12,-7,-5,13,5,17,22,22,21,17
1,13,12,-8,-5,13,6,18,23,22,22,17
1,13,12,-8,-5,13,6,19,24,23,22,18
2,13,11,-9,-4,13,6,20,25,24,23,18
2,13,11,-9,-4,13,6,21,26,25,24,19
3,13,11,-9,-3,13,7,22,27,26,25,19
3,13,10,-9,-3,12,7,24,28,27,26,20
4,14,10,-9,-2,12,7,25,29,28,27,20
5,14,9,-10,-2,12,7,27,30,29,28,21
5,14,9,-10,-2,11,7,28,31,30,29,22
6,14,8,-10,-1,11,7,29,32,31,30,22
6,14,8,-10,-1,11,7,30,33,32,31,23
6,14,8,-10,-1,11,7,31,34,33,32,23
6,14,8,-10,-1,11,8,32,35,34,33,23
6,15,8,-10,-1,11,8,33,36,35,34,24
6,15,8,-10,-1,11,8,35,37,36,34,24
7,16,8,-11,0,12,8,36,38,37,35,25
7,16,8,-11,0,12,9,37,38,37,36,25
7,16,8,-12,0,13,9,37,39,38,36,25
8,16,8,-12,0,13,9,38,39,38,37,25
8,16,8,-13,0,13,9,38,40,39,37,26
8,15,8,-12,0,12,9,38,40,39,37,26
6,13,7,-9,-1,11,9,38,40,38,37,25
5,12,7,-8,-1,10,9,39,39,38,36,24
7,14,7,-10,0,10,9,39,40,38,36,24
8,15,7,-11,0,11,10,40,40,38,36,24
9,15,7,-11,0,11,10,40,39,38,36,24
9,15,7,-12,0,11,10,40,39,38,36,24
9,15,7,-12,0,11,10,40,39,38,36,24
9,15,7,-12,0,12,11,40,39,38,35,23
9,15,7,-12,0,12,11,39,39,37,35,23
9,15,7,-12,0,12,11,39,38,37,35,23
9,16,7,-12,1,12,11,39,38,36,34,23
9,16,7,-12,1,12,11,39,37,35,34,23
9,15,6,-12,1,11,11,38,36,34,33,22
8,15,6,-12,1,11,11,38,35,33,32,21
8,15,6,-12,1,10,11,37,35,33,31,21
8,14,6,-12,1,10,11,37,34,32,30,20
8,14,6,-12,1,10,11,36,33,31,29,20
8,14,5,-11,2,10,11,36,32,30,28,19
9,14,5,-11,2,10,11,35,31,29,27,19
9,14,5,-11,2,10,11,35,30,28,26,18
8,14,5,-11,1,10,11,34,29,27,25,17
8,13,5,-11,1,9,11,33,29,26,24,16
8,13,4,-10,2,9,11,32,28,25,23,15
8,12,4,-10,2,9,11,31,26,24,22,14
8,12,4,-10,2,8,11,30,25,23,21,14
7,11,4,-9,2,8,11,30,24,22,20,13
7,11,3,-9,2,8,11,29,23,20,19,12
7,11,3,-9,2,8,11,28,22,19,17,11
7,11,3,-9,2,7,11,27,21,17,16,10
7,10,3,-8,2,7,11,26,19,16,14,9
6,10,2,-8,2,6,10,25,18,14,13,8
6,9,2,-8,2,6,10,24,17,13,12,7
6,9,2,-7,2,6,10,23,16,12,11,6
6,8,2,-7,2,5,10,22,15,11,10,6
6,8,1,-6,2,5,10,21,14,10,9,5
6,7,1,-6,2,4,10,20,13,9,8,5
6,7,1,-6,2,4,10,19,12,8,7,4
5,6,1,-5,2,4,10,18,10,7,5,3
5,6,0,-5,2,4,9,17,9,6,4,2
5,5,0,-5,2,3,9,16,8,5,3,1
5,5,0,-5,2,3,9,15,8,4,2,0
5,5,0,-5,2,3,9,15,7,3,1,-1
5,5,0,-5,2,2,9,14,6,2,0,-1
4,4,-1,-4,2,2,9,14,5,1,0,-2
4,4,-1,-4,2,2,10,13,4,0,-1,-2
3,3,0,-3,1,2,10,12,3,0,-2,-3
2,3,0,-3,1,1,10,11,2,-1,-3,-4
2,3,0,-2,1,1,10,11,2,-2,-4,-5
2,2,0,-2,1,1,10,10,1,-2,-4,-5
2,2,0,-2,1,1,10,10,1,-3,-5,-6
1,1,0,-2,1,1,10,9,0,-3,-5,-6
1,1,0,-1,1,0,10,9,0,-4,-6,-7
1,1,-1,-1,1,0,10,8,0,-4,-6,-7
1,1,-1,0,1,0,10,8,-1,-5,-7,-8
1,0,-1,0,1,0,10,7,-1,-6,-8,-8
1,0,-1,0,1,0,10,7,-1,-6,-8,-9
1,0,-1,0,1,0,10,7,-1,-7,-8,-9
1,0,-1,0,1,-1,10,7,-1,-7,-8,-10
0,0,-1,0,1,-1,10,7,-1,-7,-8,-10
0,-1,-1,0,1,-1,10,6,-2,-7,-9,-10
0,-1,-2,0,1,-1,11,6,-2,-7,-9,-11
0,-1,-2,0,1,-1,11,6,-2,-7,-9,-11
0,-1,-2,0,1,-2,11,5,-2,-7,-9,-12
0,-2,-2,1,1,-2,11,5,-2,-7,-9,-12
0,-2,-3,1,1,-2,12,5,-2,-7,-9,-12
0,-2,-3,1,1,-2,12,5,-2,-7,-9,-12
0,-3,-3,1,1,-2,12,5,-2,-7,-9,-12
0,-3,-3,1,1,-2,12,5,-2,-7,-9,-12
0,-3,-3,1,1,-2,12,5,-2,-7,-9,-12
0,-3,-3,1,1,-3,12,5,-2,-7,-9,-12
0,-3,-3,1,1,-3,12,5,-1,-7,-9,-13
0,-3,-3,1,1,-3,12,5,-1,-7,-9,-13
0,-3,-3,1,1,-3,12,5,-1,-7,-9,-13
0,-3,-4,1,1,-3,12,5,-1,-7,-9,-13
1,-3,-5,1,2,-3,12,6,-1,-6,-9,-13
1,-3,-5,1,2,-3,12,6,-1,-6,-9,-13
1,-3,-5,1,2,-3,12,6,-1,-6,-8,-13
1,-3,-5,1,2,-3,12,6,-1,-6,-8,-13
1,-3,-4,1,2,-3,12,6,0,-6,-8,-13
1,-3,-4,1,2,-3,11,6,0,-6,-8,-13
1,-3,-4,1,3,-3,11,6,0,-5,-8,-13
2,-3,-5,0,3,-3,11,6,0,-5,-7,-12
2,-3,-5,0,3,-3,11,6,0,-5,-7,-12
1,-3,-5,1,3,-3,11,7,0,-5,-7,-12
1,-3,-5,1,3,-4,11,7,1,-5,-7,-12
1,-3,-5,1,3,-4,11,7,1,-5,-7,-12
1,-3,-5,1,3,-4,11,7,1,-5,-7,-13
1,-3,-5,1,3,-4,11,7,1,-5,-7,-13
1,-3,-5,1,3,-3,11,7,1,-5,-7,-13
2,-3,-5,0,3,-3,11,8,2,-4,-7,-13
2,-3,-5,0,4,-3,11,8,2,-4,-7,-13
2,-3,-6,0,4,-3,11,7,2,-4,-7,-13
2,-4,-6,0,4,-3,10,7,2,-4,-7,-13
2,-4,-6,0,4,-4,10,7,2,-4,-6,-13
2,-4,-6,0,4,-4,10,7,2,-4,-6,-13
2,-4,-6,0,4,-4,11,7,2,-4,-6,-13
2,-4,-6,0,4,-4,11,7,2,-4,-6,-13
2,-4,-6,0,4,-4,11,7,2,-4,-6,-13
2,-4,-6,0,4,-5,11,7,2,-4,-6,-12
2,-5,-7,1,4,-5,11,7,2,-4,-6,-12
2,-5,-7,1,4,-5,11,7,2,-4,-6,-13
2,-5,-7,1,4,-6,11,7,2,-4,-6,-13
2,-5,-8,1,5,-6,11,7,2,-4,-6,-13
2,-5,-8,1,5,-6,11,7,2,-4,-6,-13
2,-5,-8,1,5,-6,11,8,2,-4,-6,-13
2,-5,-8,2,5,-6,11,8,2,-4,-6,-13
2,-5,-9,2,5,-6,11,8,2,-3,-6,-13
2,-5,-9,2,5,-6,11,8,2,-3,-6,-13
2,-5,-9,2,5,-6,11,8,2,-3,-6,-13
2,-5,-9,2,5,-6,11,8,2,-3,-6,-13
2,-5,-9,2,5,-6,11,8,2,-3,-5,-13
2,-5,-9,1,5,-6,11,8,2,-3,-5,-13
2,-6,-9,1,6,-7,11,8,2,-3,-5,-13
2,-6,-9,1,6,-7,11,8,2,-3,-5,-12
3,-6,-9,1,6,-7,11,8,2,-3,-5,-12
3,-6,-9,1,6,-7,11,8,2,-3,-5,-12
3,-6,-9,1,6,-7,11,8,2,-3,-5,-12
2,-6,-9,1,5,-7,11,8,2,-3,-5,-12
2,-6,-8,1,5,-6,11,8,2,-3,-5,-12
2,-6,-9,1,5,-6,11,8,2,-3,-5,-12
2,-6,-9,1,5,-6,12,8,2,-3,-5,-12
2,-6,-9,1,5,-6,12,8,2,-3,-5,-12
2,-6,-8,1,5,-6,12,8,2,-3,-5,-11
2,-6,-8,1,5,-6,12,8,2,-3,-5,-11
2,-5,-8,1,5,-6,12,8,2,-2,-5,-10
2,-5,-7,1,5,-6,12,8,2,-2,-5,-10
2,-5,-7,1,5,-6,12,8,2,-2,-5,-10
2,-5,-8,1,5,-6,12,8,2,-2,-5,-10
3,-4,-8,0,5,-6,12,8,2,-2,-4,-9
3,-4,-7,0,5,-6,12,8,3,-1,-4,-9
3,-4,-7,0,5,-5,12,8,3,-1,-4,-9
3,-4,-7,0,5,-5,12,8,3,-1,-4,-9
4,-3,-7,0,5,-4,12,8,3,-1,-4,-9
4,-3,-7,0,5,-4,12,9,3,-1,-4,-9
4,-3,-7,0,5,-4,12,9,3,-1,-4,-8
4,-3,-7,-1,5,-4,13,9,3,-1,-4,-8
4,-3,-7,-1,5,-4,13,9,4,-1,-4,-7
4,-3,-7,-1,5,-4,13,9,4,-1,-4,-7
4,-3,-7,-1,5,-4,13,9,4,-1,-3,-7
5,-2,-7,-1,6,-4,13,9,4,-1,-3,-6
5,-2,-7,-1,6,-4,12,9,4,-1,-3,-6
6,-2,-7,-1,6,-4,12,9,4,-1,-3,-5
6,-2,-7,-1,6,-4,11,9,4,-1,-3,-5
6,-2,-7,-2,6,-4,11,9,4,-1,-3,-4
6,-1,-7,-2,6,-4,10,9,4,-1,-2,-4
6,-1,-7,-3,6,-3,9,9,4,-1,-2,-3
6,0,-6,-3,6,-3,9,8,4,-1,-3,-3
6,0,-6,-3,6,-3,8,8,3,-1,-3,-3
6,0,-6,-3,6,-3,8,7,3,-1,-3,-3
6,-1,-7,-2,6,-4,8,7,2,-2,-4,-4
6,-1,-7,-2,6,-4,8,6,2,-2,-4,-4
6,-1,-8,-2,6,-4,8,6,1,-3,-5,-4
6,-1,-8,-2,6,-4,7,5,1,-3,-5,-4
6,-1,-8,-2,6,-4,7,5,0,-3,-5,-4
6,-1,-8,-2,6,-4,6,4,0,-4,-5,-4
7,-1,-8,-2,7,-4,6,4,0,-4,-5,-4
7,-1,-8,-2,7,-4,5,3,0,-4,-5,-4
7,-1,-8,-2,7,-4,5,3,0,-4,-5,-3
7,-1,-7,-2,7,-4,5,3,0,-4,-5,-3
7,-1,-7,-2,6,-4,5,3,0,-4,-5,-2
7,-1,-7,-2,6,-4,5,3,0,-4,-5,-2
7,-1,-7,-2,6,-4,5,3,0,-4,-5,-1
6,-1,-7,-2,6,-5,5,3,0,-4,-5,-1
6,-2,-8,-2,6,-5,5,3,0,-4,-6,-1
5,-2,-8,-1,6,-6,5,3,0,-4,-6,-1
5,-3,-8,-1,6,-6,5,2,-1,-4,-6,-2
5,-3,-9,-1,6,-6,5,2,-1,-4,-6,-2
5,-4,-9,0,6,-6,5,1,-1,-5,-7,-2
5,-4,-9,0,6,-6,5,1,-1,-5,-7,-3
5,-4,-10,0,7,-7,5,1,-1,-5,-8,-3
5,-5,-11,0,7,-8,5,1,-1,-5,-8,-3
5,-6,-11,1,8,-8,5,1,-2,-5,-8,-3
4,-6,-11,1,8,-9,5,1,-2,-6,-8,-3
4,-6,-11,1,7,-9,5,1,-2,-6,-8,-3
4,-6,-11,1,7,-9,4,1,-2,-6,-8,-3
4,-7,-11,1,7,-9,4,1,-2,-6,-8,-3
4,-7,-11,1,7,-10,4,1,-2,-6,-8,-3
4,-7,-11,1,7,-10,4,1,-2,-6,-8,-3
4,-7,-11,1,7,-9,4,1,-3,-6,-8,-3
3,-7,-10,1,6,-9,4,1,-3,-7,-9,-3
3,-7,-10,2,6,-9,4,1,-3,-7,-9,-3
3,-8,-10,2,6,-9,4,1,-3,-7,-9,-3
3,-7,-10,2,6,-9,4,1,-3,-7,-9,-3
3,-7,-10,2,6,-9,4,1,-3,-7,-9,-3
3,-8,-10,2,6,-9,4,1,-3,-7,-9,-3
3,-8,-10,2,6,-9,4,1,-3,-7,-10,-3
3,-8,-10,2,6,-9,4,1,-3,-7,-10,-3
3,-8,-10,2,6,-9,4,1,-3,-7,-10,-3
3,-8,-10,2,6,-9,4,1,-3,-7,-10,-3
3,-8,-10,2,6,-9,4,1,-3,-7,-10,-3
2,-8,-10,2,6,-9,4,1,-3,-7,-9,-3
2,-8,-9,3,6,-9,4,1,-3,-7,-9,-3
2,-7,-9,3,6,-9,4,1,-3,-7,-9,-3
2,-7,-9,3,6,-9,4,1,-3,-7,-9,-3
2,-7,-9,3,6,-9,4,1,-3,-7,-9,-3
2,-7,-9,3,6,-9,4,1,-3,-7,-9,-3
2,-7,-9,3,6,-9,4,1,-3,-7,-9,-3
2,-7,-9,2,6,-8,4,1,-3,-7,-9,-3
2,-7,-9,2,6,-8,5,1,-3,-7,-9,-3
2,-7,-9,2,5,-7,5,1,-3,-7,-9,-3
1,-7,-8,2,5,-7,5,1,-2,-7,-9,-2
1,-6,-8,2,5,-7,5,2,-2,-6,-9,-2
1,-6,-8,2,5,-7,5,2,-2,-6,-9,-2
1,-6,-8,2,5,-7,5,2,-2,-6,-9,-2
1,-6,-7,2,4,-6,5,2,-2,-6,-8,-2
1,-6,-7,2,4,-6,5,2,-2,-6,-8,-2
1,-6,-7,2,4,-6,5,2,-2,-6,-8,-2
1,-6,-7,2,4,-6,5,2,-2,-6,-8,-2
1,-6,-7,2,4,-6,5,2,-1,-6,-8,-2
1,-6,-7,2,4,-6,6,2,-1,-6,-8,-2
1,-6,-7,2,4,-6,6,2,-1,-6,-8,-2
1,-6,-7,2,4,-6,6,3,-1,-6,-8,-2
0,-6,-6,2,3,-6,7,3,-1,-6,-8,-3
0,-6,-6,2,3,-6,7,4,-1,-6,-8,-3
0,-6,-6,2,3,-6,8,6,0,-5,-8,-3
0,-6,-6,2,3,-6,8,8,1,-4,-7,-3
1,-6,-7,2,4,-7,8,10,3,-2,-6,-3
2,-7,-9,2,5,-7,8,13,6,0,-4,-2
3,-7,-10,1,6,-8,8,16,9,3,0,-1
5,-7,-12,0,8,-8,8,20,13,7,4,0
7,-6,-13,0,10,-9,8,24,18,12,10,3
8,-6,-14,-1,12,-9,8,29,25,19,17,7
10,-5,-15,-3,13,-10,8,33,32,27,24,11
12,-4,-16,-4,14,-10,7,36,39,35,32,16
14,-2,-16,-6,15,-9,5,38,47,44,41,22
16,0,-16,-9,16,-7,4,39,55,54,52,28
20,4,-16,-12,17,-5,2,38,64,65,63,36
24,9,-16,-16,19,-3,0,34,72,75,74,44
29,13,-16,-21,22,0,-4,26,78,84,85,52
33,18,-15,-25,24,2,-8,14,83,91,95,61
36,22,-13,-29,25,4,-12,1,85,96,102,69
38,26,-11,-32,25,8,-16,-11,84,98,104,75
39,30,-9,-34,24,10,-19,-25,78,93,101,77
39,32,-7,-35,23,12,-22,-39,67,82,91,75
37,33,-5,-35,21,14,-24,-52,52,67,77,69
34,32,-2,-33,18,15,-25,-66,33,48,58,61
29,31,1,-30,13,16,-27,-83,11,25,36,51
21,28,6,-25,7,17,-30,-102,-12,1,13,40
14,26,12,-20,1,19,-33,-121,-36,-23,-11,29
6,23,17,-14,-5,20,-37,-139,-59,-46,-34,18
-1,20,21,-9,-11,21,-41,-156,-81,-68,-57,7
-8,17,26,-4,-17,22,-44,-171,-100,-88,-77,-2
-15,15,30,0,-22,23,-46,-183,-116,-104,-92,-10
-20,14,33,3,-27,23,-49,-192,-127,-115,-103,-16
-23,13,35,5,-30,24,-54,-197,-135,-123,-111,-21
-25,12,37,6,-32,25,-59,-201,-141,-129,-117,-25
-27,12,39,7,-33,26,-63,-202,-144,-133,-122,-27
-28,12,41,8,-34,26,-66,-202,-145,-135,-124,-29
-29,13,43,8,-35,28,-67,-198,-142,-133,-123,-29
-30,14,44,8,-36,29,-67,-192,-138,-130,-120,-29
-30,16,46,7,-37,31,-66,-183,-131,-124,-115,-27
-30,17,47,6,-38,32,-64,-172,-124,-117,-109,-25
-29,19,47,5,-38,33,-60,-160,-115,-110,-103,-23
-28,20,47,4,-37,33,-55,-147,-106,-102,-96,-20
-26,20,46,3,-36,33,-51,-134,-97,-94,-88,-18
-23,20,44,2,-34,32,-46,-122,-88,-86,-81,-15
-21,20,42,1,-31,31,-41,-110,-79,-77,-74,-13
-19,19,39,1,-29,29,-37,-98,-70,-69,-67,-12
-17,18,36,0,-26,27,-33,-87,-62,-62,-61,-11
-16,17,33,0,-24,25,-29,-77,-55,-55,-55,-10
-15,15,30,0,-22,22,-25,-67,-48,-49,-49,-9
-14,14,27,0,-20,20,-21,-59,-42,-44,-44,-8
-12,12,24,0,-18,18,-17,-52,-37,-39,-39,-7
-11,10,21,0,-16,16,-15,-46,-32,-35,-36,-7
-10,9,19,1,-15,14,-13,-41,-29,-32,-33,-7
-9,8,17,1,-13,13,-11,-38,-26,-29,-30,-7
-9,7,17,1,-12,12,-10,-35,-23,-27,-28,-7
-9,7,16,1,-12,12,-9,-32,-21,-25,-26,-6
-8,7,15,1,-11,12,-8,-29,-19,-23,-24,-6
-8,7,15,1,-11,12,-6,-26,-17,-21,-22,-5
-8,7,15,1,-11,12,-5,-24,-15,-19,-20,-4
-8,7,15,1,-11,12,-4,-22,-13,-17,-18,-4
-7,7,15,1,-11,12,-3,-20,-12,-16,-17,-4
-7,7,15,0,-11,12,-2,-19,-10,-15,-15,-4
-7,7,15,0,-10,12,-2,-17,-9,-13,-14,-3
-7,7,15,0,-10,12,-1,-16,-7,-12,-13,-3
-7,7,15,0,-10,11,-1,-14,-6,-10,-12,-3
-7,7,14,0,-10,11,0,-12,-5,-9,-10,-2
-6,7,14,0,-10,11,0,-10,-4,-8,-9,-2
-6,7,14,0,-10,11,0,-8,-3,-7,-8,-1
-6,7,14,0,-10,11,1,-8,-2,-6,-7,-1
-6,7,14,0,-10,11,1,-7,-1,-5,-7,-1
-6,7,14,0,-9,11,1,-7,0,-5,-6,-1
-6,7,13,0,-9,11,2,-6,0,-4,-6,-1
-6,7,13,0,-9,11,2,-5,1,-3,-5,0
-5,7,13,0,-9,11,2,-4,2,-2,-3,0
-5,7,13,0,-9,10,2,-3,2,-1,-2,0
-5,7,13,0,-9,10,3,-2,3,0,-1,0
-5,8,13,0,-9,11,3,-1,4,0,-1,0
-5,8,13,-1,-9,11,3,-1,4,0,0,0
-5,8,13,-1,-8,11,3,0,5,1,0,1
-5,8,13,-1,-8,11,3,0,5,1,0,1
-5,8,13,-1,-8,11,3,0,6,2,1,2
-5,8,13,-1,-8,11,4,1,6,3,2,2
-5,8,13,-1,-8,11,4,2,7,4,2,2
-4,8,13,-1,-8,11,4,3,8,4,3,2
-4,8,13,-1,-8,11,4,4,9,5,4,3
-4,8,13,-2,-8,11,5,5,10,5,4,3
-4,9,13,-2,-8,11,5,5,11,6,5,4
-4,9,13,-2,-8,11,5,6,11,6,5,4
-4,9,12,-2,-8,11,5,7,12,7,6,5
-3,9,12,-2,-8,11,5,8,12,8,7,5
-3,9,12,-2,-8,11,5,9,13,9,8,6
-2,9,12,-3,-7,11,5,10,14,10,9,6
-2,9,12,-3,-7,11,6,11,15,11,10,6
-2,9,12,-3,-7,11,6,12,16,12,10,7
-2,10,12,-3,-7,12,6,13,17,13,11,8
-2,10,13,-3,-7,12,6,14,18,14,12,9
-2,11,13,-3,-7,12,7,15,19,15,12,9
-2,11,13,-3,-7,12,7,16,20,16,13,10
-1,11,12,-4,-7,12,7,17,21,17,15,10
0,11,12,-4,-6,12,7,19,22,18,16,11
0,11,11,-5,-6,11,8,21,23,19,17,11
0,11,11,-5,-5,11,8,22,24,20,18,12
0,11,11,-6,-5,11,8,23,25,21,19,12
1,12,10,-6,-4,11,8,24,26,22,20,13
2,12,10,-7,-4,11,8,25,27,23,20,14
2,12,10,-7,-4,11,9,26,28,24,21,14
2,12,10,-7,-4,11,9,28,29,25,22,15
2,12,10,-7,-3,11,9,29,30,26,24,15
3,12,10,-7,-3,11,9,31,32,27,25,15
3,12,10,-7,-3,11,9,33,33,28,26,15
4,12,9,-8,-2,11,10,34,34,29,26,16
4,12,9,-8,-1,11,10,35,35,29,27,16
5,13,8,-8,-1,10,10,36,36,30,28,17
5,13,8,-9,-1,10,10,37,37,31,28,17
6,13,7,-9,0,10,11,38,38,32,29,17
6,13,7,-9,0,10,11,39,38,33,30,18
7,13,6,-9,0,10,11,40,39,34,31,18
7,13,6,-9,0,10,11,41,39,34,32,18
7,13,6,-10,0,10,11,42,40,35,33,18
8,14,6,-11,1,11,11,43,41,36,33,19
8,15,6,-11,1,11,12,44,42,37,34,19
8,15,6,-11,2,10,12,44,42,37,34,20
8,14,5,-11,2,10,13,45,43,37,35,20
8,14,5,-11,2,9,13,45,43,37,35,20
8,13,5,-11,2,9,13,46,43,37,35,20
8,13,4,-11,2,9,13,47,43,37,35,20
8,13,4,-11,2,9,13,48,43,38,35,20
9,13,3,-11,3,8,13,48,43,38,35,20
9,13,3,-11,3,8,13,48,43,38,35,20
9,13,3,-11,3,8,13,48,43,38,35,20
9,12,3,-11,3,8,13,48,43,38,35,20
10,12,3,-11,4,8,13,48,43,38,34,20
10,12,2,-11,4,7,13,48,43,37,34,20
10,12,2,-11,4,7,13,48,42,37,33,19
10,12,2,-10,4,7,13,48,42,36,33,19
10,12,2,-10,4,7,13,47,41,36,32,19
10,12,1,-11,5,7,13,47,41,35,32,19
10,12,1,-11,5,7,13,46,40,35,31,18
10,11,1,-10,5,6,13,45,40,34,30,18
10,11,0,-10,5,6,13,45,39,33,29,17
10,11,0,-10,5,5,13,44,38,32,29,17
10,10,0,-10,5,5,13,44,37,31,28,16
9,10,0,-9,5,5,13,43,36,30,27,15
9,9,0,-9,5,5,13,43,35,30,26,14
9,9,0,-9,5,5,13,42,34,29,25,14
8,8,0,-8,4,4,13,41,33,28,24,13
7,6,0,-6,3,3,12,39,32,26,23,12
3,2,0,-2,1,1,11,37,30,24,21,11
-5,-6,0,6,-2,-3,9,34,26,20,17,7
-11,-12,0,12,-5,-6,7,31,23,17,14,5
-7,-8,-1,8,-3,-5,8,32,23,17,14,5
-2,-3,-1,3,0,-2,9,33,23,18,15,6
1,0,-2,0,2,-1,10,33,23,18,15,6
3,2,-2,-2,3,-1,10,32,23,17,15,7
4,3,-2,-3,4,0,11,32,23,17,14,7
5,3,-2,-3,4,0,11,31,22,16,14,7
5,3,-3,-4,5,0,12,31,21,15,13,6
6,3,-3,-4,5,0,12,30,20,14,11,6
6,3,-3,-4,5,0,12,30,19,13,10,5
6,2,-3,-4,5,0,12,29,18,12,9,4
6,2,-3,-3,5,-1,12,27,17,10,8,3
6,1,-4,-3,5,-1,12,26,16,9,7,3
5,1,-4,-3,5,-2,12,25,15,8,6,2
5,0,-4,-2,5,-2,12,24,14,8,5,2
5,0,-4,-2,5,-2,12,23,14,7,5,1
5,0,-4,-1,5,-3,11,22,13,6,4,0
4,-1,-5,-1,5,-3,11,22,11,5,3,0
4,-1,-5,0,5,-3,11,21,10,4,2,-1
4,-1,-6,0,5,-3,11,20,9,3,1,-2
3,-2,-6,0,5,-3,11,19,8,2,0,-3
3,-2,-6,0,5,-4,11,18,8,1,-1,-3
2,-3,-6,1,4,-4,11,18,7,0,-2,-4
4,-2,-6,0,5,-4,11,18,7,0,-2,-4
3,-3,-6,1,5,-5,11,17,6,0,-3,-4
-28,-35,-6,32,-10,-21,1,6,-5,-11,-14,-15
-79,-86,-6,84,-36,-47,-16,-12,-23,-29,-32,-33
-96,-103,-6,101,-44,-55,-21,-18,-29,-35,-38,-39
-79,-85,-6,83,-35,-46,-15,-12,-23,-30,-32,-34
-76,-83,-7,80,-34,-45,-15,-12,-23,-29,-32,-33
-102,-109,-7,106,-47,-58,-23,-21,-31,-38,-40,-42
-110,-117,-7,114,-51,-62,-26,-24,-34,-40,-43,-45
-81,-88,-7,85,-36,-48,-16,-15,-24,-31,-33,-35
-48,-56,-8,53,-19,-32,-5,-4,-13,-20,-23,-24
-29,-37,-8,34,-10,-23,1,2,-8,-14,-17,-19
-14,-22,-8,19,-2,-15,6,7,-3,-10,-12,-14
-12,-19,-8,16,-1,-14,7,8,-2,-9,-11,-13
-56,-64,-8,61,-24,-36,-7,-6,-17,-24,-26,-28
-97,-105,-8,102,-44,-56,-20,-20,-30,-37,-39,-41
-75,-83,-8,79,-33,-45,-13,-13,-22,-29,-31,-34
-39,-47,-8,43,-15,-27,-1,-1,-10,-17,-19,-22
-22,-30,-8,26,-6,-18,4,5,-5,-11,-14,-16
-12,-20,-8,16,-2,-13,8,8,-2,-8,-11,-13
-7,-14,-8,10,0,-10,10,10,0,-7,-9,-12
-3,-10,-8,7,2,-9,11,11,1,-6,-8,-11
-1,-8,-8,5,3,-8,12,12,2,-5,-7,-11
0,-6,-8,3,4,-7,13,12,3,-5,-7,-10
1,-6,-8,3,4,-6,13,13,3,-4,-6,-10
1,-6,-8,2,5,-6,13,13,3,-4,-6,-10
1,-6,-8,2,5,-6,13,13,3,-4,-6,-10
0,-6,-8,3,5,-7,12,12,3,-5,-7,-10
-3,-10,-8,7,3,-8,11,11,1,-6,-8,-11
-8,-15,-8,12,0,-11,9,10,0,-7,-9,-13
-10,-17,-8,13,0,-12,9,9,0,-7,-9,-13
-7,-14,-8,10,2,-11,10,10,0,-6,-8,-12
-3,-11,-8,7,3,-10,11,11,2,-5,-7,-11
-2,-9,-8,6,4,-9,11,12,2,-5,-7,-11
-1,-7,-8,4,4,-8,11,12,3,-4,-6,-10
0,-6,-7,3,5,-7,11,13,3,-4,-6,-10
1,-5,-7,1,5,-6,12,13,4,-3,-6,-9
2,-4,-7,1,5,-6,12,14,4,-3,-5,-9
2,-4,-8,0,6,-6,12,14,5,-2,-5,-8
3,-4,-8,0,6,-6,12,13,5,-2,-4,-8
3,-4,-8,0,7,-6,12,13,5,-2,-4,-9
3,-4,-8,0,7,-6,12,13,5,-2,-5,-9
3,-4,-8,0,7,-6,12,13,4,-2,-5,-9
4,-4,-9,0,7,-6,11,13,4,-2,-5,-9
4,-3,-9,0,7,-6,11,13,4,-2,-5,-9
5,-3,-9,0,7,-6,11,13,4,-2,-5,-9
5,-3,-9,0,7,-6,11,13,4,-3,-5,-8
5,-3,-9,0,7,-6,11,13,4,-3,-5,-8
5,-3,-9,0,7,-6,11,12,4,-3,-5,-8
4,-3,-9,0,7,-6,11,12,4,-3,-5,-8
4,-4,-9,0,7,-6,11,12,4,-3,-5,-8
4,-4,-9,0,7,-6,10,12,4,-3,-5,-8
4,-4,-9,0,7,-6,10,12,4,-3,-5,-8
4,-4,-9,0,7,-6,10,12,4,-3,-5,-8
4,-4,-9,0,7,-6,10,12,4,-3,-5,-8
4,-4,-9,0,7,-6,10,12,4,-3,-5,-8
4,-4,-9,0,7,-6,10,11,4,-3,-5,-9
4,-4,-9,0,7,-6,10,11,4,-3,-5,-9
4,-5,-9,0,7,-6,10,11,3,-4,-5,-9
4,-5,-9,0,7,-6,9,11,3,-4,-6,-9
4,-5,-10,0,7,-6,9,11,3,-4,-6,-9
4,-5,-10,0,7,-7,9,11,3,-4,-6,-9
4,-5,-10,0,7,-7,9,11,3,-4,-6,-9
4,-5,-10,0,7,-7,10,10,3,-4,-6,-9
4,-5,-10,0,7,-7,10,10,3,-4,-6,-9
4,-5,-10,0,8,-7,10,10,2,-4,-6,-9
5,-5,-10,0,8,-7,10,10,2,-5,-6,-9
4,-5,-10,0,8,-7,10,10,2,-5,-6,-9
4,-5,-9,0,7,-7,10,10,2,-5,-6,-9
4,-5,-9,0,7,-7,10,10,2,-5,-6,-9
4,-5,-9,0,7,-7,11,10,2,-5,-6,-9
4,-5,-9,0,7,-7,11,10,2,-5,-6,-9
4,-5,-9,0,7,-7,11,10,2,-5,-6,-9
4,-5,-9,0,7,-7,11,10,2,-4,-6,-9
4,-5,-9,0,7,-7,11,10,2,-4,-6,-9
4,-5,-9,0,7,-7,11,10,2,-4,-6,-8
4,-5,-9,0,7,-7,11,10,2,-4,-6,-8
4,-4,-9,0,7,-6,11,10,2,-4,-6,-8
4,-4,-8,0,7,-6,11,10,2,-4,-5,-8
4,-4,-8,0,7,-6,11,10,2,-4,-5,-7
4,-4,-8,0,8,-6,12,11,2,-4,-5,-7
5,-3,-8,-1,8,-6,12,11,2,-3,-5,-7
5,-3,-8,-1,8,-6,12,11,3,-3,-5,-6
5,-2,-7,-1,7,-5,12,11,3,-3,-5,-6
5,-2,-7,-1,7,-5,13,11,3,-3,-5,-6
5,-2,-7,-2,7,-4,13,11,3,-3,-4,-5
6,-2,-7,-2,7,-4,14,11,4,-2,-4,-5
6,-2,-7,-2,7,-4,14,12,4,-2,-4,-5
6,-2,-7,-2,7,-4,14,12,4,-2,-4,-5
6,-2,-8,-2,7,-4,14,12,4,-2,-4,-5
6,-1,-8,-2,7,-4,14,12,4,-2,-4,-5
6,-1,-8,-2,7,-4,14,12,4,-2,-4,-5
6,-1,-8,-2,7,-4,14,12,4,-2,-4,-4
6,-1,-8,-2,8,-4,14,12,4,-2,-4,-4
7,-1,-8,-3,8,-4,14,12,4,-2,-4,-4
7,-1,-8,-3,8,-4,13,11,4,-1,-4,-4
7,0,-8,-3,8,-4,12,11,4,-1,-4,-4
7,0,-8,-3,8,-4,11,11,4,-1,-4,-3
8,0,-7,-4,8,-4,11,11,4,-1,-4,-3
8,1,-7,-4,8,-4,11,11,4,-1,-4,-3
8,1,-7,-4,8,-4,11,10,4,-1,-4,-3
8,1,-7,-4,8,-4,11,10,4,-1,-4,-3
8,0,-7,-4,8,-4,11,9,4,-2,-4,-3
8,0,-7,-3,8,-4,11,9,4,-2,-4,-3
7,0,-7,-3,8,-4,10,9,3,-3,-4,-2
7,0,-8,-3,8,-4,10,8,3,-3,-5,-2
8,0,-8,-3,9,-5,9,7,2,-4,-5,-3
9,0,-9,-4,9,-5,9,6,2,-5,-6,-3
9,0,-9,-4,9,-5,8,5,1,-5,-6,-3
9,0,-9,-4,9,-5,8,5,1,-5,-6,-3
9,0,-9,-4,9,-5,7,4,1,-5,-6,-3
9,0,-9,-4,9,-5,7,4,1,-5,-6,-3
8,0,-9,-3,9,-5,7,4,0,-5,-7,-3
8,0,-9,-3,9,-5,7,4,0,-5,-7,-3
8,0,-9,-3,9,-5,7,4,0,-6,-7,-3
8,-1,-9,-3,9,-5,7,4,0,-6,-7,-3
8,-1,-9,-2,9,-6,6,4,0,-6,-7,-3
8,-2,-9,-2,9,-6,6,4,0,-6,-7,-3
8,-2,-9,-1,9,-7,6,4,-1,-6,-7,-3
7,-3,-10,-1,9,-7,6,4,-1,-6,-7,-4
7,-4,-11,0,9,-8,6,4,-1,-7,-8,-4
6,-5,-11,0,9,-8,6,4,-1,-7,-8,-4
6,-5,-12,0,9,-9,6,4,-1,-7,-8,-4
6,-6,-12,1,9,-9,6,4,-1,-7,-8,-4
6,-7,-13,1,9,-10,6,4,-1,-7,-8,-4
5,-8,-13,1,9,-10,6,3,-2,-8,-8,-4
5,-8,-13,1,9,-10,6,3,-2,-8,-9,-4
5,-8,-13,1,9,-10,6,3,-2,-8,-9,-4
5,-8,-13,1,9,-10,6,3,-2,-8,-9,-4
5,-8,-13,1,10,-10,6,3,-2,-8,-9,-4
5,-7,-12,1,10,-10,6,3,-2,-8,-9,-4
4,-7,-12,1,9,-10,6,3,-2,-8,-9,-4
4,-7,-12,1,9,-10,5,3,-2,-8,-9,-4
5,-7,-12,1,9,-10,5,3,-2,-8,-9,-4
5,-7,-12,1,9,-10,5,3,-2,-8,-9,-4
5,-7,-12,1,9,-10,5,3,-2,-8,-9,-4
5,-7,-12,2,9,-10,5,3,-2,-8,-8,-4
5,-7,-13,2,9,-10,6,3,-2,-8,-8,-4
5,-7,-13,2,9,-10,6,3,-2,-8,-8,-4
5,-7,-13,2,9,-10,6,3,-2,-8,-8,-4
5,-8,-13,2,9,-10,6,3,-2,-8,-8,-5
5,-8,-13,2,9,-10,6,3,-2,-8,-9,-5
5,-8,-13,2,9,-10,6,3,-2,-8,-9,-5
5,-8,-13,2,9,-10,5,3,-2,-8,-9,-5
5,-8,-13,2,9,-10,5,3,-2,-8,-9,-5
4,-8,-13,2,9,-10,5,3,-2,-8,-9,-5
4,-7,-12,2,9,-10,5,3,-2,-8,-9,-6
4,-7,-12,2,8,-10,6,3,-2,-8,-9,-6
4,-7,-12,2,8,-10,6,3,-2,-8,-8,-6
4,-7,-12,2,8,-10,6,3,-2,-8,-8,-6
4,-7,-12,2,8,-10,6,4,-2,-8,-8,-6
4,-7,-12,2,8,-9,6,4,-2,-8,-8,-6
4,-7,-12,2,8,-9,6,4,-2,-7,-8,-6
4,-7,-12,2,8,-9,6,5,-2,-7,-8,-6
4,-7,-12,2,8,-9,6,5,-2,-7,-8,-6
4,-7,-12,2,8,-9,6,5,-1,-7,-8,-5
4,-7,-11,2,8,-9,6,5,-1,-7,-7,-5
4,-7,-11,2,8,-9,7,6,0,-7,-7,-5
4,-7,-11,2,8,-9,7,6,0,-7,-7,-5
4,-7,-11,2,8,-9,7,6,0,-7,-8,-6
4,-7,-11,2,8,-9,7,6,0,-7,-8,-6
4,-7,-11,2,8,-9,7,6,0,-7,-8,-6
4,-7,-11,2,8,-9,7,6,0,-7,-8,-6
