leadI,leadII,leadIII,leadaVR,leadaVL,leadaVF,leadV1,leadV2,leadV3,leadV4,leadV5,leadV6
-1,3,3,-1,-2,3,-1,0,-2,-2,-2,-1
-2,7,9,-2,-5,8,-2,-1,-6,-5,-7,-3
-3,10,12,-3,-7,11,-3,-1,-8,-7,-9,-5
-3,11,14,-4,-9,13,-4,-1,-9,-8,-11,-5
-4,12,16,-4,-10,15,-4,-1,-10,-9,-11,-6
-4,13,17,-5,-10,16,-4,-1,-10,-9,-11,-6
-4,14,17,-5,-11,16,-4,-1,-10,-9,-11,-6
-4,14,18,-5,-11,16,-4,-1,-9,-8,-10,-6
-4,15,18,-5,-11,17,-4,-1,-9,-8,-10,-6
-4,15,19,-6,-11,18,-4,-1,-8,-7,-9,-6
-4,16,19,-6,-11,18,-4,0,-8,-7,-9,-6
-4,16,19,-7,-11,18,-4,0,-8,-7,-8,-6
-4,17,19,-7,-11,18,-4,0,-8,-7,-8,-6
-4,17,19,-7,-11,18,-4,0,-8,-7,-8,-5
-4,17,19,-7,-11,18,-3,0,-8,-7,-8,-5
-3,17,19,-7,-11,18,-3,0,-8,-7,-7,-4
-3,17,19,-7,-11,18,-3,0,-7,-7,-7,-4
-3,17,19,-7,-11,18,-3,0,-7,-7,-7,-4
-3,17,19,-7,-11,18,-3,0,-7,-7,-7,-4
-3,17,19,-7,-11,18,-3,0,-7,-7,-7,-4
-3,17,19,-7,-11,18,-3,0,-7,-7,-7,-4
-3,17,19,-7,-11,18,-3,0,-7,-7,-7,-4
-3,17,19,-7,-11,18,-2,0,-7,-7,-7,-4
-3,17,19,-7,-11,18,-2,0,-7,-7,-7,-4
-3,17,20,-7,-11,19,-2,0,-7,-7,-7,-4
-3,18,20,-7,-11,19,-2,0,-7,-7,-7,-4
-3,18,20,-7,-11,19,-3,0,-8,-7,-7,-4
-3,18,20,-7,-11,19,-3,-1,-8,-7,-7,-3
-3,18,20,-8,-11,19,-4,-1,-8,-7,-6,-3
-3,18,20,-8,-11,19,-4,-1,-8,-7,-6,-2
-2,18,20,-8,-10,19,-5,-1,-8,-7,-5,-2
-2,18,20,-8,-10,19,-5,-1,-8,-6,-4,-1
-2,18,20,-8,-10,19,-5,-1,-8,-6,-4,-1
-1,18,19,-8,-10,19,-5,-1,-8,-5,-3,0
-1,18,18,-8,-9,18,-5,-1,-7,-5,-3,0
-1,17,17,-8,-9,18,-5,-1,-7,-5,-3,0
-1,17,16,-8,-8,17,-5,-1,-7,-5,-3,0
-1,16,15,-8,-8,16,-5,-1,-7,-5,-3,0
-1,15,15,-8,-7,15,-5,-1,-7,-5,-2,0
-1,14,14,-7,-7,14,-5,-1,-7,-5,-2,0
-1,12,13,-6,-7,13,-5,-1,-7,-5,-2,0
-1,11,12,-6,-6,12,-4,-1,-7,-5,-2,0
-1,11,11,-5,-6,11,-4,-1,-7,-5,-2,0
-2,10,11,-5,-6,11,-3,-1,-7,-5,-2,0
-2,9,11,-4,-6,10,-3,-1,-7,-6,-2,0
-2,9,10,-4,-6,10,-2,-1,-7,-6,-2,0
-2,8,10,-4,-6,9,-2,-1,-7,-6,-2,0
-2,8,9,-4,-6,9,-2,-1,-7,-6,-2,0
-2,7,9,-3,-6,8,-2,-1,-7,-7,-3,0
-2,7,9,-3,-6,8,-2,-1,-7,-7,-3,0
-2,6,9,-2,-6,7,-2,-1,-8,-8,-4,0
-3,5,8,-1,-6,7,-2,-2,-8,-8,-4,-1
-3,4,8,-1,-6,7,-2,-2,-8,-9,-5,-2
-4,4,8,0,-6,6,-2,-2,-8,-10,-5,-2
-4,3,7,0,-5,6,-2,-2,-9,-10,-6,-3
-3,3,6,0,-4,5,-2,-2,-9,-11,-6,-3
-2,2,4,0,-3,4,-2,-2,-10,-11,-7,-4
-1,1,2,0,-2,2,-2,-2,-10,-11,-7,-5
0,1,1,0,0,1,-2,-2,-10,-11,-8,-5
0,0,0,0,0,0,-2,-3,-11,-12,-8,-5
1,0,-1,-1,1,0,-3,-3,-11,-12,-9,-6
2,0,-2,-1,2,0,-3,-4,-11,-13,-9,-6
2,0,-3,-1,3,0,-3,-4,-11,-13,-9,-6
2,0,-3,-1,3,0,-3,-4,-11,-13,-9,-6
2,0,-3,-1,3,0,-3,-4,-11,-13,-9,-6
2,0,-3,-1,4,-1,-3,-4,-11,-13,-9,-6
2,0,-4,-1,4,-1,-3,-4,-11,-13,-9,-6
3,0,-4,-1,4,-2,-3,-4,-11,-13,-9,-6
3,0,-4,-1,4,-2,-3,-4,-11,-13,-9,-6
3,0,-5,-1,4,-2,-3,-4,-11,-13,-9,-6
3,0,-5,-1,5,-2,-3,-4,-11,-14,-9,-6
3,0,-4,-1,5,-2,-3,-4,-11,-14,-10,-7
3,-1,-4,-1,5,-2,-3,-4,-11,-14,-10,-7
3,-1,-4,-1,4,-2,-3,-3,-11,-14,-10,-7
3,-1,-4,-1,4,-1,-2,-3,-11,-14,-9,-7
3,-1,-4,-1,4,-1,-2,-3,-11,-14,-9,-7
3,-1,-5,-1,4,-2,-1,-3,-11,-14,-9,-7
3,-1,-4,-2,4,-2,-1,-3,-11,-15,-9,-8
2,0,-4,-2,3,-1,0,-3,-12,-15,-10,-8
2,0,-3,-2,3,0,0,-3,-12,-16,-10,-9
1,0,-2,-2,2,0,0,-3,-13,-17,-11,-10
1,1,0,-2,1,2,1,-3,-14,-19,-12,-11
0,3,2,-2,0,3,1,-3,-15,-20,-12,-11
0,5,4,-3,-1,5,1,-5,-17,-21,-13,-12
0,8,7,-4,-2,8,0,-7,-19,-22,-13,-12
0,11,10,-6,-3,11,-2,-9,-21,-22,-12,-11
1,15,12,-8,-5,14,-4,-12,-23,-21,-10,-9
1,18,14,-10,-6,16,-7,-15,-25,-21,-7,-7
2,21,17,-13,-6,19,-10,-18,-27,-21,-4,-5
4,24,19,-15,-7,22,-12,-20,-30,-22,-1,-1
5,27,20,-17,-7,24,-14,-21,-31,-21,3,2
7,28,20,-19,-6,25,-15,-21,-31,-19,8,7
10,30,20,-21,-4,26,-16,-18,-27,-13,15,13
13,33,19,-23,-3,27,-17,-13,-20,-6,23,20
16,35,18,-26,0,27,-15,-3,-9,3,31,27
19,36,16,-28,2,26,-11,9,6,15,40,34
23,34,10,-30,7,23,-6,22,22,29,52,43
26,30,2,-29,12,17,-3,29,35,45,66,53
30,25,-6,-28,18,10,-1,32,44,60,79,63
33,21,-13,-28,23,4,-2,31,51,74,92,73
36,18,-19,-28,28,0,-5,28,58,90,106,83
39,17,-23,-29,32,-2,-10,23,65,109,121,93
42,13,-29,-28,36,-7,-17,17,71,126,134,102
43,6,-37,-25,41,-14,-24,13,78,141,141,105
42,-2,-45,-21,44,-22,-27,15,89,154,142,103
39,-10,-50,-16,45,-29,-27,20,101,165,136,95
36,-17,-54,-10,46,-35,-24,25,109,171,126,85
33,-23,-57,-5,45,-40,-22,27,111,170,113,73
29,-29,-58,-1,44,-43,-18,28,108,164,100,62
25,-33,-58,3,42,-45,-14,28,100,153,86,51
20,-35,-57,6,39,-45,-10,27,89,137,71,40
16,-36,-54,9,35,-44,-6,25,74,115,56,29
13,-35,-50,10,31,-42,-4,22,59,90,42,20
11,-32,-45,9,28,-38,-3,20,44,65,30,13
10,-29,-40,8,25,-34,-2,19,31,44,21,8
9,-26,-36,7,23,-30,0,18,22,27,14,5
9,-24,-33,7,22,-28,1,17,15,15,9,3
8,-22,-31,6,21,-25,2,17,11,8,6,1
8,-20,-28,6,19,-23,4,17,9,4,4,0
7,-18,-26,5,18,-22,5,16,8,2,3,0
6,-17,-24,5,16,-20,5,15,7,1,2,0
6,-15,-22,4,15,-19,5,13,6,0,2,0
6,-14,-21,3,14,-17,5,11,5,-1,2,0
6,-14,-20,3,13,-16,5,9,4,-1,2,0
6,-13,-19,3,13,-16,5,8,4,-2,2,0
5,-13,-19,3,13,-15,5,7,3,-2,2,0
5,-13,-19,3,13,-15,5,6,2,-3,2,0
5,-13,-19,3,12,-15,4,6,1,-4,2,0
5,-13,-19,3,12,-15,4,5,1,-5,2,0
5,-13,-20,3,13,-15,4,5,0,-5,2,0
6,-13,-20,3,13,-16,3,4,0,-6,2,0
6,-13,-20,2,13,-16,3,4,0,-6,2,0
6,-12,-20,2,13,-15,3,3,0,-6,2,0
6,-12,-19,2,13,-15,3,3,0,-7,2,0
6,-12,-19,2,13,-14,3,2,0,-7,2,0
6,-12,-18,2,13,-14,3,2,0,-7,1,0
6,-12,-18,2,13,-14,3,2,0,-7,1,0
6,-12,-19,2,13,-14,3,2,0,-7,1,0
6,-12,-19,2,13,-15,3,2,0,-7,1,0
6,-13,-19,2,13,-15,3,2,1,-7,2,0
6,-13,-20,2,13,-16,3,2,1,-7,2,0
6,-14,-20,2,13,-16,3,2,1,-7,3,1
6,-14,-21,2,13,-17,3,2,1,-7,3,1
6,-14,-21,2,14,-17,3,2,1,-7,4,1
6,-14,-21,3,14,-17,3,2,1,-7,4,1
6,-14,-21,3,14,-17,3,2,1,-7,4,1
6,-14,-21,3,14,-17,3,2,2,-7,4,1
6,-14,-21,3,14,-17,3,2,2,-7,4,2
6,-14,-22,3,14,-17,3,2,3,-7,4,2
6,-14,-22,3,14,-17,3,2,3,-7,4,2
6,-15,-22,3,14,-17,3,2,3,-7,4,2
6,-15,-22,3,14,-17,3,2,3,-7,5,2
6,-15,-22,3,15,-17,3,2,3,-7,5,2
6,-15,-22,3,15,-17,3,2,3,-7,5,2
6,-15,-22,3,15,-17,3,2,3,-7,5,2
6,-15,-22,3,15,-17,2,2,3,-7,5,2
6,-15,-22,3,15,-17,2,2,3,-7,5,2
6,-15,-22,3,15,-17,2,2,3,-7,6,2
6,-15,-22,3,15,-17,2,2,3,-6,6,2
6,-15,-22,3,15,-18,2,2,3,-6,7,2
6,-15,-22,3,15,-18,2,2,4,-6,7,2
6,-16,-23,3,16,-19,2,2,4,-6,8,2
6,-16,-23,3,16,-19,2,2,4,-6,8,2
6,-17,-24,4,16,-20,2,2,4,-6,8,3
6,-17,-24,4,16,-20,2,2,4,-6,8,3
7,-17,-24,4,16,-20,2,2,4,-6,8,3
7,-17,-24,4,16,-20,2,2,4,-6,9,3
7,-17,-24,4,16,-20,2,2,4,-5,9,3
7,-17,-24,4,16,-20,2,2,4,-5,9,3
7,-17,-25,4,16,-20,2,2,4,-5,9,3
7,-17,-25,4,16,-21,2,2,5,-5,9,3
7,-17,-25,4,16,-21,2,2,5,-5,9,3
7,-17,-25,4,16,-20,2,2,5,-5,10,4
7,-17,-25,4,16,-20,2,2,5,-5,10,4
7,-17,-25,4,16,-21,2,2,5,-5,11,4
7,-17,-25,4,16,-21,2,2,5,-5,11,4
7,-17,-25,4,16,-21,2,2,5,-5,11,4
7,-17,-25,4,17,-21,2,2,6,-5,11,4
7,-17,-25,4,17,-21,2,2,6,-5,11,4
7,-17,-25,4,17,-21,2,2,7,-4,12,5
7,-17,-25,4,17,-21,2,2,7,-4,12,5
7,-17,-25,4,17,-21,2,2,7,-4,12,5
7,-17,-25,4,17,-21,2,2,7,-4,12,5
7,-17,-25,4,17,-21,2,2,7,-3,12,5
7,-17,-25,4,17,-21,2,2,7,-3,13,5
7,-17,-25,4,17,-21,2,2,8,-2,13,5
7,-17,-25,4,17,-21,2,1,8,-2,13,6
7,-17,-25,4,17,-21,2,1,9,-2,14,6
7,-17,-25,4,17,-21,2,1,9,-1,15,7
7,-18,-25,5,17,-22,2,1,10,-1,15,7
7,-18,-26,5,17,-22,2,1,10,0,16,8
7,-18,-26,5,17,-22,1,1,10,0,16,8
7,-18,-27,5,17,-22,1,1,11,1,16,8
7,-18,-27,5,17,-22,1,0,11,1,17,9
7,-19,-27,5,17,-22,1,0,12,2,18,9
7,-19,-27,4,17,-22,1,0,12,3,19,10
7,-18,-26,4,17,-22,1,0,13,4,19,10
7,-18,-26,4,17,-22,1,0,13,5,20,11
7,-18,-26,4,17,-22,1,0,13,6,20,11
8,-18,-26,4,17,-22,0,-1,14,7,21,12
8,-18,-26,4,17,-22,0,-1,14,7,22,12
8,-18,-26,4,17,-22,0,-2,15,8,22,12
8,-18,-26,4,17,-22,0,-2,16,9,23,13
8,-17,-25,4,17,-22,0,-2,16,10,24,13
8,-17,-25,4,17,-21,0,-2,17,11,25,14
8,-16,-25,4,17,-21,-1,-2,17,12,26,14
8,-16,-25,4,17,-21,-1,-2,18,13,27,15
8,-16,-25,3,17,-21,-1,-3,18,14,28,16
8,-15,-24,3,17,-20,-1,-3,19,15,29,16
8,-15,-24,3,17,-20,-1,-4,19,16,29,17
8,-15,-24,3,17,-20,-1,-4,20,17,30,17
8,-15,-24,3,17,-19,-2,-4,20,18,31,18
8,-15,-23,3,17,-19,-2,-5,21,19,32,18
8,-14,-23,3,17,-19,-3,-5,21,20,33,19
8,-14,-23,3,16,-18,-3,-5,22,21,34,19
8,-13,-23,2,16,-18,-3,-6,22,23,35,20
8,-13,-23,2,16,-18,-3,-6,22,24,36,20
8,-12,-22,2,16,-18,-4,-6,22,25,37,21
8,-12,-21,1,15,-17,-4,-7,22,26,38,21
9,-11,-21,1,15,-16,-4,-7,23,27,39,22
9,-11,-21,0,15,-16,-5,-7,23,28,40,22
9,-10,-20,0,15,-16,-5,-8,23,29,41,23
9,-10,-20,0,15,-15,-5,-8,24,30,42,23
9,-9,-20,0,15,-15,-6,-8,24,31,43,24
9,-9,-19,0,15,-14,-6,-8,25,32,43,24
9,-9,-19,0,15,-14,-6,-9,25,33,44,24
9,-9,-19,0,15,-14,-6,-9,25,34,44,25
9,-8,-19,0,15,-14,-7,-9,25,35,45,25
9,-8,-18,0,14,-14,-7,-9,25,35,46,26
9,-8,-18,-1,14,-13,-7,-9,26,36,47,26
9,-7,-17,-1,14,-13,-8,-9,26,36,47,26
9,-7,-17,-1,14,-12,-8,-9,26,37,48,26
9,-6,-17,-1,14,-12,-8,-9,26,37,48,26
9,-6,-16,-1,14,-11,-8,-9,26,38,48,26
9,-5,-16,-2,13,-11,-9,-10,26,38,48,26
9,-5,-15,-2,13,-10,-9,-10,26,38,48,26
9,-4,-15,-2,13,-10,-9,-11,26,38,48,26
9,-4,-14,-2,12,-9,-9,-11,26,38,48,26
9,-4,-13,-2,12,-9,-9,-11,25,38,48,26
9,-4,-13,-2,12,-9,-9,-11,25,38,48,26
8,-4,-13,-2,12,-9,-9,-11,25,38,48,26
8,-3,-12,-2,11,-8,-9,-11,25,38,48,26
8,-3,-12,-2,11,-8,-9,-11,25,38,48,26
8,-2,-12,-3,11,-7,-9,-12,25,38,48,26
8,-2,-12,-3,11,-7,-9,-12,25,38,48,26
8,-2,-11,-3,11,-7,-9,-12,25,38,48,25
8,-2,-11,-3,10,-6,-8,-12,24,38,47,25
8,-1,-10,-3,10,-6,-8,-12,24,37,47,24
8,-1,-9,-3,9,-5,-7,-12,23,37,46,24
8,0,-9,-3,9,-5,-7,-12,23,36,46,23
7,0,-8,-4,8,-4,-7,-12,23,35,45,23
7,0,-8,-4,8,-4,-7,-12,22,34,44,22
7,1,-7,-4,8,-3,-7,-12,22,33,44,21
6,1,-7,-4,7,-3,-6,-12,21,32,43,21
6,1,-6,-4,7,-3,-6,-11,21,31,43,20
5,1,-6,-4,7,-3,-5,-11,21,31,42,20
5,1,-5,-4,6,-2,-5,-10,20,30,41,19
5,1,-5,-4,6,-2,-4,-10,20,29,40,19
5,1,-4,-3,5,-1,-4,-10,19,28,39,18
4,1,-3,-3,5,-1,-4,-10,19,26,38,17
4,2,-3,-3,4,0,-3,-10,18,25,37,16
4,2,-2,-3,4,0,-2,-9,18,24,36,15
4,2,-2,-3,4,0,-2,-9,18,23,36,15
4,2,-2,-3,4,0,-1,-8,17,22,35,14
4,2,-2,-3,4,0,-1,-8,17,21,34,14
3,1,-2,-3,4,0,0,-7,16,20,33,13
3,1,-2,-2,4,-1,0,-7,16,19,32,13
3,0,-3,-2,4,-1,1,-6,16,18,31,12
3,0,-3,-1,4,-2,2,-6,16,17,31,12
2,0,-3,-1,4,-2,3,-6,16,16,30,11
2,-1,-3,-1,3,-2,3,-6,15,15,29,10
2,-1,-3,-1,3,-2,4,-5,15,14,28,9
2,-1,-3,-1,3,-2,4,-5,14,13,27,9
2,-1,-3,-1,3,-2,5,-4,14,12,26,8
1,-1,-3,-1,3,-3,5,-4,14,11,25,8
1,-2,-4,0,3,-3,5,-4,13,10,24,7
1,-2,-4,0,3,-3,6,-4,13,9,23,7
1,-2,-4,0,3,-3,6,-3,13,8,23,6
0,-3,-4,0,3,-3,7,-3,13,7,22,6
0,-3,-4,1,3,-3,8,-2,13,7,22,5
0,-4,-5,1,3,-4,8,-2,12,6,21,4
0,-4,-5,1,3,-4,8,-2,12,5,20,4
-1,-4,-5,2,3,-4,8,-2,12,5,20,3
-1,-4,-5,2,3,-5,8,-2,11,4,19,3
-1,-4,-5,2,3,-5,8,-2,11,3,18,2
-1,-5,-6,2,3,-6,9,-2,11,2,18,2
-1,-5,-6,2,3,-6,9,-2,10,2,17,1
-1,-5,-6,2,3,-6,10,-1,10,1,17,1
-1,-6,-7,2,4,-7,10,-1,9,1,16,1
-1,-6,-7,3,4,-7,10,-1,9,1,16,1
-1,-7,-8,3,4,-7,10,-1,9,0,15,1
-1,-7,-8,3,4,-8,10,-1,9,0,15,1
-1,-7,-8,3,5,-8,10,0,9,0,15,1
-1,-7,-8,3,5,-8,11,0,9,-1,15,0
-1,-7,-8,3,5,-8,11,0,9,-1,14,0
-1,-7,-8,3,5,-8,11,0,9,-2,14,0
-1,-7,-8,3,4,-8,11,0,9,-2,14,0
-2,-7,-8,4,4,-8,11,0,8,-2,13,0
-2,-7,-8,4,4,-8,11,0,8,-3,13,0
-2,-7,-8,4,4,-8,11,0,7,-4,12,-1
-2,-7,-8,4,4,-8,11,0,7,-5,12,-1
-2,-7,-8,4,3,-8,11,0,7,-5,11,-1
-2,-7,-8,4,3,-8,11,0,7,-5,11,-1
-2,-7,-8,4,3,-8,11,0,6,-5,11,-1
-2,-7,-7,4,3,-7,11,0,6,-5,11,-2
-2,-7,-7,4,3,-7,11,0,6,-5,10,-2
-2,-7,-6,4,3,-7,11,0,6,-6,10,-2
-2,-7,-6,4,3,-7,11,0,6,-6,9,-2
-2,-7,-6,4,3,-7,11,0,5,-7,9,-3
-2,-7,-6,4,3,-7,11,0,5,-7,8,-3
-2,-7,-6,4,3,-6,11,-1,4,-8,8,-3
-2,-7,-6,4,3,-6,11,-1,4,-8,8,-4
-2,-7,-6,4,2,-6,11,-1,4,-9,7,-4
-2,-7,-6,4,2,-6,11,-1,4,-9,7,-4
-2,-7,-6,4,2,-6,11,-1,4,-10,6,-4
-2,-7,-6,4,2,-6,11,-1,4,-10,6,-4
-2,-7,-7,4,2,-6,11,-1,3,-11,5,-4
-1,-7,-7,4,2,-6,11,-1,3,-11,5,-5
-1,-6,-7,3,3,-6,11,-1,3,-12,5,-5
-1,-6,-7,3,3,-6,11,-1,3,-12,5,-5
-1,-7,-7,3,3,-7,11,-1,3,-12,5,-5
-1,-7,-7,4,3,-7,11,-1,3,-12,5,-5
-2,-8,-6,4,3,-7,12,-2,2,-12,4,-5
-2,-7,-6,4,3,-7,12,-2,2,-12,4,-5
-2,-6,-5,4,2,-6,12,-2,2,-12,4,-5
-2,-6,-5,4,2,-5,12,-2,1,-13,4,-6
-2,-5,-4,4,1,-4,12,-3,1,-13,4,-6
-2,-5,-4,4,1,-4,12,-3,0,-13,4,-6
-2,-5,-4,4,1,-4,12,-3,0,-13,3,-6
-2,-5,-4,4,1,-4,12,-3,0,-13,3,-6
-2,-5,-4,4,1,-4,12,-3,0,-14,3,-6
-2,-5,-4,3,1,-4,12,-3,0,-14,3,-6
-2,-5,-4,3,1,-4,12,-3,0,-14,3,-6
-2,-5,-4,3,1,-4,12,-3,0,-14,3,-6
-2,-5,-4,3,1,-4,12,-3,0,-14,3,-7
-2,-5,-4,3,1,-4,12,-3,0,-14,3,-7
-2,-5,-4,3,1,-5,12,-3,0,-14,3,-7
-1,-5,-4,3,1,-5,12,-3,0,-14,3,-7
-1,-5,-4,2,2,-4,11,-3,0,-14,3,-7
-1,-5,-4,2,2,-4,11,-3,0,-14,3,-7
-1,-5,-4,2,2,-4,10,-3,-1,-14,3,-7
-1,-5,-4,2,2,-4,10,-3,-1,-14,3,-7
-1,-4,-4,2,2,-4,11,-3,-1,-13,3,-7
-1,-4,-4,2,2,-4,11,-3,-1,-13,3,-7
-1,-5,-4,2,2,-5,11,-4,-1,-13,3,-7
-2,-5,-4,3,1,-5,11,-4,-1,-13,3,-7
-2,-5,-4,3,1,-5,11,-4,-2,-13,3,-7
-2,-5,-4,3,1,-5,10,-4,-2,-13,3,-6
-2,-5,-4,3,1,-5,10,-4,-2,-13,3,-6
-2,-5,-4,3,1,-5,10,-4,-1,-13,3,-6
-2,-5,-4,3,1,-5,10,-5,-1,-13,3,-6
-2,-5,-4,3,1,-5,10,-5,-1,-13,3,-6
-2,-5,-3,3,1,-5,10,-5,-1,-12,3,-6
-2,-5,-4,3,1,-5,10,-5,-1,-12,3,-6
-2,-5,-5,3,2,-5,10,-5,-1,-12,4,-6
-2,-6,-5,3,2,-5,10,-5,-1,-12,4,-6
-2,-6,-5,3,1,-5,10,-5,-1,-12,4,-6
-2,-6,-5,3,1,-5,10,-5,-1,-12,4,-6
-2,-6,-5,3,1,-5,10,-5,-1,-12,4,-6
-2,-6,-5,4,1,-5,10,-5,-1,-12,4,-6
-2,-6,-4,4,1,-5,10,-5,-1,-12,4,-6
-2,-5,-4,3,1,-5,10,-5,-1,-12,4,-6
-2,-5,-4,3,1,-5,9,-5,-1,-12,4,-6
-2,-5,-4,3,1,-5,9,-6,-1,-12,4,-6
-2,-6,-4,3,1,-5,9,-6,-1,-12,4,-6
-2,-6,-4,3,1,-5,9,-6,-1,-12,4,-6
-2,-6,-4,3,1,-5,9,-6,-1,-12,4,-6
-2,-5,-4,3,1,-5,9,-6,-1,-12,4,-6
-2,-5,-4,3,1,-6,9,-6,-1,-12,4,-6
-2,-6,-5,3,2,-6,9,-6,-1,-11,5,-6
-2,-6,-5,3,2,-6,9,-5,-1,-11,5,-6
-2,-6,-4,3,1,-6,9,-5,-1,-11,5,-6
-2,-6,-4,3,1,-6,9,-5,-1,-11,5,-5
-2,-5,-4,3,1,-5,9,-5,-1,-11,5,-5
-2,-4,-3,2,0,-4,9,-5,-1,-11,5,-5
-2,-4,-2,2,0,-3,10,-5,-1,-11,5,-5
-2,-3,-2,2,0,-3,10,-5,-1,-11,5,-5
-2,-3,-2,2,0,-2,10,-4,0,-10,5,-5
-2,-3,-2,2,0,-2,10,-4,0,-10,6,-4
-2,-3,-2,2,0,-2,10,-4,1,-9,6,-4
-2,-3,-2,2,0,-2,10,-4,1,-9,6,-4
-2,-3,-2,2,0,-2,10,-4,1,-9,6,-4
-2,-3,-1,2,0,-2,10,-4,1,-9,6,-4
-2,-2,0,2,-1,-1,9,-4,1,-9,6,-4
-2,-2,0,1,-1,-1,9,-4,0,-9,6,-5
-2,-2,0,1,-1,-1,8,-4,0,-9,6,-5
-2,-1,0,1,-1,-1,8,-4,0,-9,6,-5
-2,-1,0,1,-1,0,7,-5,0,-9,6,-5
-2,0,1,1,-2,0,7,-5,0,-9,6,-5
-2,0,1,1,-2,0,7,-5,-1,-10,6,-5
-2,0,2,1,-2,0,7,-6,-1,-10,6,-5
-2,1,2,0,-2,1,7,-7,-1,-10,6,-5
-2,1,3,0,-3,2,6,-7,-2,-10,5,-5
-2,2,4,0,-3,3,6,-8,-2,-10,5,-5
-2,3,4,0,-3,3,5,-8,-2,-10,5,-5
-2,3,4,0,-3,3,5,-8,-2,-10,5,-4
-2,3,4,-1,-3,3,4,-9,-2,-9,6,-4
-1,4,4,-1,-3,3,3,-9,-2,-9,6,-3
-1,4,5,-2,-3,4,3,-9,-2,-9,7,-3
-1,5,6,-2,-3,5,2,-9,-2,-8,7,-2
0,6,6,-3,-3,5,2,-9,-2,-8,7,-2
0,5,5,-3,-2,5,2,-9,-2,-8,7,-2
0,5,4,-2,-2,4,2,-9,-2,-8,7,-2
0,4,3,-2,-2,3,2,-9,-1,-8,7,-2
-1,3,2,-1,-2,2,3,-9,-1,-8,7,-2
-1,2,1,-1,-1,1,3,-9,-1,-8,7,-2
-1,1,0,0,-1,0,3,-8,-1,-8,7,-2
-1,0,0,0,0,-1,4,-8,-1,-8,7,-2
-1,-1,-1,0,0,-2,4,-7,-1,-8,7,-2
-1,-2,-2,1,0,-2,5,-7,-1,-8,7,-2
-1,-2,-2,1,0,-2,5,-6,-1,-8,7,-2
-1,-3,-2,1,0,-2,6,-6,-1,-8,7,-2
-1,-3,-2,2,0,-3,6,-6,-1,-8,6,-2
-1,-4,-3,2,0,-4,7,-6,-1,-8,6,-2
-1,-5,-3,2,0,-5,7,-6,-1,-9,5,-2
-1,-5,-4,2,0,-5,7,-6,-2,-9,5,-3
-2,-6,-5,3,1,-6,7,-6,-2,-10,4,-3
-2,-7,-5,4,1,-7,7,-6,-3,-11,3,-4
-2,-8,-6,5,1,-7,7,-6,-3,-11,3,-4
-2,-9,-6,5,1,-7,8,-6,-3,-12,2,-5
-2,-9,-6,6,1,-7,8,-6,-3,-12,2,-5
-2,-9,-6,6,1,-7,8,-6,-4,-12,1,-5
-3,-9,-6,6,1,-7,8,-6,-4,-12,1,-5
-3,-9,-6,6,1,-7,8,-6,-4,-12,0,-6
-3,-9,-6,6,1,-8,8,-6,-4,-13,0,-6
-3,-9,-6,6,1,-8,8,-6,-4,-13,-1,-7
-3,-10,-6,6,1,-8,8,-7,-4,-13,-1,-7
-4,-10,-6,6,1,-8,8,-7,-5,-14,-1,-7
-4,-11,-6,6,1,-9,8,-7,-5,-14,-1,-7
-4,-11,-6,6,1,-9,8,-7,-5,-14,-1,-7
-4,-11,-6,6,1,-9,8,-7,-5,-14,-1,-7
-4,-10,-6,6,0,-8,8,-7,-5,-14,-2,-7
-4,-10,-6,6,0,-8,8,-7,-5,-13,-2,-7
-4,-11,-6,7,0,-9,8,-7,-4,-13,-2,-7
-4,-11,-7,7,0,-9,8,-7,-4,-13,-2,-7
-4,-11,-7,7,0,-9,8,-7,-4,-14,-2,-7
-4,-11,-8,7,1,-9,8,-6,-4,-14,-2,-7
-4,-11,-7,7,1,-9,9,-6,-4,-14,-2,-7
-4,-11,-7,7,1,-9,9,-6,-4,-13,-2,-7
-4,-11,-7,7,1,-9,9,-6,-4,-13,-2,-7
-4,-11,-7,7,1,-9,9,-6,-4,-13,-2,-7
-4,-11,-7,7,1,-9,9,-6,-4,-13,-2,-7
-3,-11,-7,7,1,-9,9,-6,-4,-14,-2,-7
-3,-10,-7,6,1,-8,9,-6,-5,-14,-3,-7
-4,-9,-6,6,0,-7,9,-6,-5,-15,-4,-8
-4,-8,-4,6,0,-6,9,-6,-6,-16,-5,-9
-4,-7,-3,5,-1,-5,10,-7,-7,-18,-6,-10
-5,-6,-2,5,-2,-4,11,-7,-8,-19,-7,-11
-5,-6,-1,5,-2,-3,11,-8,-9,-20,-8,-12
-5,-5,0,5,-3,-2,11,-9,-10,-22,-9,-12
-5,-3,2,4,-4,0,11,-10,-12,-23,-9,-12
-5,0,5,2,-6,3,9,-13,-15,-23,-8,-12
-5,4,9,0,-7,7,6,-16,-18,-24,-8,-11
-5,7,12,-1,-9,10,3,-19,-21,-25,-7,-11
-4,11,15,-4,-10,13,0,-22,-24,-26,-6,-10
-3,15,17,-7,-10,17,-3,-26,-27,-27,-4,-7
-1,19,19,-9,-10,19,-6,-28,-28,-27,-1,-4
0,21,19,-11,-10,20,-9,-28,-28,-25,3,1
3,23,20,-13,-9,21,-11,-27,-26,-20,10,7
6,25,20,-16,-7,22,-13,-24,-20,-13,18,14
9,27,19,-18,-5,23,-13,-17,-10,-4,27,21
12,29,17,-21,-2,22,-11,-7,4,8,37,29
15,29,13,-23,1,21,-8,3,19,24,49,38
19,27,7,-24,6,17,-7,10,32,40,63,48
22,24,0,-24,11,12,-6,12,40,55,76,58
25,20,-6,-23,15,7,-5,13,48,69,88,67
28,17,-11,-23,19,3,-6,12,55,85,102,77
31,16,-15,-24,22,0,-9,9,62,103,117,87
33,14,-18,-24,25,-2,-14,4,67,119,130,94
33,10,-23,-22,27,-6,-19,0,71,132,136,97
32,3,-29,-18,30,-12,-21,0,77,142,136,94
30,-4,-35,-13,32,-19,-20,5,87,152,131,87
27,-13,-40,-8,33,-26,-17,10,95,158,123,79
24,-20,-45,-3,34,-32,-14,14,97,158,112,69
21,-26,-47,1,34,-36,-11,15,94,152,100,59
17,-31,-48,6,32,-39,-7,16,87,141,87,48
12,-34,-47,10,30,-41,-3,15,77,125,72,38
8,-36,-46,13,27,-41,0,14,63,104,57,27
5,-38,-44,15,25,-41,3,12,49,80,42,18
3,-37,-42,16,22,-39,5,11,37,56,30,11
2,-35,-38,15,20,-36,5,10,27,37,20,6
2,-33,-35,15,18,-34,6,10,20,22,13,3
1,-32,-33,15,17,-32,7,10,15,11,9,1
1,-31,-32,14,16,-31,9,10,12,5,6,0
0,-30,-30,14,15,-29,10,10,10,2,4,0
0,-27,-27,13,13,-27,11,10,10,0,3,0
0,-25,-25,12,12,-25,11,10,9,0,3,-1
-1,-23,-23,12,11,-23,11,8,8,-1,2,-1
-1,-21,-21,11,10,-21,10,6,7,-2,2,-1
-1,-19,-19,10,9,-19,9,3,6,-2,2,0
-1,-18,-18,9,9,-17,8,1,6,-3,2,0
-1,-17,-17,8,8,-16,8,0,5,-3,2,0
-1,-16,-16,8,8,-16,8,0,5,-4,1,-1
-1,-16,-15,8,7,-15,7,-1,4,-5,1,-1
-1,-16,-15,8,7,-15,7,-1,3,-6,1,-1
-1,-16,-15,8,7,-15,7,-2,3,-6,1,-1
-1,-16,-15,8,7,-15,7,-2,2,-7,1,-1
-1,-16,-15,8,6,-15,6,-2,2,-7,1,-1
-1,-16,-15,8,6,-15,6,-3,2,-7,1,-1
-1,-16,-15,8,5,-15,6,-3,2,-7,1,-1
-1,-16,-15,8,5,-15,6,-4,2,-7,1,-1
-1,-16,-14,8,5,-15,6,-4,2,-8,1,-1
-1,-15,-14,8,5,-14,6,-4,1,-8,0,-1
-1,-15,-14,8,5,-14,6,-4,1,-8,0,-2
-1,-14,-14,7,5,-14,6,-4,1,-8,0,-2
-1,-14,-14,7,6,-14,5,-4,1,-8,0,-1
-1,-14,-14,7,6,-14,5,-4,1,-8,0,-1
-1,-14,-14,7,6,-14,4,-5,1,-8,0,-1
-1,-14,-14,7,6,-14,4,-5,1,-9,0,-1
-1,-14,-14,7,6,-14,4,-5,1,-9,0,-1
-1,-14,-14,7,6,-14,4,-5,1,-9,0,-1
-1,-14,-14,7,6,-14,4,-5,1,-9,0,-1
-1,-14,-13,7,5,-14,4,-5,1,-9,0,-1
-1,-14,-13,7,5,-14,4,-6,1,-9,-1,-2
-1,-14,-14,7,6,-15,4,-6,1,-9,-1,-2
-1,-14,-14,7,6,-15,4,-6,1,-9,0,-2
-1,-15,-14,7,6,-15,4,-6,1,-9,0,-1
-1,-15,-14,7,6,-15,4,-5,1,-9,0,-1
-1,-15,-15,7,6,-15,4,-5,1,-9,1,0
-1,-16,-15,7,7,-15,4,-5,1,-9,1,0
-1,-16,-15,7,7,-16,4,-5,1,-9,1,0
-1,-16,-15,7,7,-16,4,-5,1,-9,1,0
-1,-16,-15,7,7,-16,5,-5,2,-9,1,0
-1,-16,-15,7,7,-16,5,-5,2,-9,1,0
-1,-16,-15,7,7,-15,4,-5,2,-9,1,0
-1,-16,-15,7,7,-15,4,-5,2,-9,1,0
-1,-15,-15,7,7,-14,4,-5,2,-9,0,-1
-1,-15,-15,7,7,-14,4,-4,2,-9,0,-1
-1,-15,-14,7,7,-14,4,-4,2,-9,0,-1
-1,-15,-14,7,7,-14,4,-4,2,-9,0,-1
-1,-15,-14,7,7,-15,4,-4,2,-9,1,-1
-1,-15,-14,7,7,-15,4,-4,2,-9,1,0
-1,-15,-14,7,7,-15,4,-4,2,-9,1,0
-1,-15,-14,7,7,-15,4,-4,2,-8,1,0
0,-15,-15,7,7,-15,4,-4,3,-8,1,0
0,-15,-15,7,7,-15,4,-4,3,-8,1,0
0,-15,-15,7,7,-15,4,-4,3,-8,1,0
0,-15,-15,7,7,-15,4,-3,3,-8,1,0
0,-16,-15,7,7,-16,4,-3,3,-8,1,0
0,-16,-16,8,7,-16,4,-3,3,-8,1,0
0,-17,-16,8,7,-16,4,-3,3,-8,1,0
0,-17,-16,8,7,-16,4,-3,3,-8,1,0
0,-17,-16,8,7,-16,4,-3,3,-8,2,0
0,-17,-16,8,7,-16,4,-3,3,-8,2,0
0,-17,-16,8,7,-16,4,-3,3,-8,2,0
0,-17,-16,8,8,-17,4,-3,3,-7,2,1
0,-17,-16,8,8,-17,4,-3,4,-7,2,1
0,-17,-16,8,7,-16,4,-3,4,-6,2,2
0,-16,-15,7,7,-16,4,-3,5,-6,3,2
0,-16,-15,7,7,-15,4,-3,5,-5,3,2
0,-15,-15,6,7,-15,3,-3,5,-5,3,2
0,-15,-15,6,7,-15,3,-3,5,-5,3,2
0,-15,-15,6,7,-15,2,-3,5,-5,4,3
0,-15,-15,6,8,-15,2,-3,6,-4,4,3
0,-15,-15,6,8,-15,2,-4,6,-4,5,3
0,-15,-15,7,8,-16,2,-4,6,-3,5,3
0,-16,-15,7,8,-16,2,-4,6,-3,5,3
0,-16,-15,7,8,-16,2,-4,7,-2,5,4
0,-16,-15,7,8,-16,1,-4,7,-2,6,4
0,-16,-15,7,7,-15,1,-4,8,-1,7,5
0,-16,-15,7,7,-15,1,-4,8,-1,7,5
0,-16,-15,7,7,-15,1,-4,8,0,8,5
0,-15,-15,7,8,-15,1,-4,8,0,8,6
0,-15,-15,7,8,-15,0,-4,9,1,9,6
0,-15,-15,7,7,-15,0,-4,9,2,9,7
0,-15,-14,7,7,-14,0,-4,9,2,10,7
0,-15,-14,7,7,-14,0,-4,9,3,10,7
0,-14,-13,7,7,-14,0,-5,9,3,11,7
0,-13,-13,6,7,-13,-1,-5,10,4,11,7
0,-12,-12,6,7,-12,-1,-6,10,4,12,8
0,-12,-12,5,6,-12,-1,-6,11,5,12,8
0,-11,-11,5,6,-12,-2,-6,11,6,13,9
0,-11,-11,5,6,-12,-2,-6,12,7,13,9
0,-12,-11,5,6,-12,-2,-6,12,8,14,10
0,-12,-11,5,6,-12,-2,-6,13,9,15,11
0,-12,-11,5,6,-12,-2,-6,13,10,17,11
0,-12,-11,5,6,-12,-3,-7,13,11,18,12
0,-11,-11,5,6,-11,-3,-7,13,12,18,12
0,-11,-11,4,6,-11,-4,-7,14,13,19,13
1,-10,-10,4,6,-10,-4,-8,14,14,20,14
1,-9,-10,3,6,-10,-5,-8,14,15,20,14
1,-8,-9,3,5,-9,-5,-9,14,16,21,15
1,-7,-8,2,5,-8,-5,-9,14,16,22,15
1,-7,-8,2,5,-8,-6,-9,15,17,23,15
1,-7,-8,2,5,-8,-6,-10,15,18,24,15
1,-7,-8,2,5,-8,-7,-10,15,19,24,16
1,-7,-7,2,4,-7,-8,-11,15,20,25,16
1,-6,-7,2,4,-7,-9,-11,15,21,25,17
1,-6,-7,1,4,-6,-9,-12,16,22,26,17
1,-5,-6,1,4,-6,-10,-12,16,22,27,18
1,-5,-5,0,3,-5,-10,-12,16,23,27,18
1,-4,-4,0,3,-5,-11,-12,16,23,28,18
1,-4,-4,0,3,-4,-11,-13,16,24,29,19
1,-4,-4,0,3,-4,-11,-13,16,24,29,19
1,-3,-4,0,3,-4,-12,-13,16,25,29,19
1,-3,-4,0,3,-3,-12,-14,16,25,29,19
1,-2,-3,0,2,-3,-12,-14,16,26,29,19
1,-2,-3,0,2,-2,-12,-14,16,26,29,19
1,-1,-2,-1,2,-2,-13,-15,16,26,29,19
1,0,-2,-1,2,-1,-13,-15,16,27,29,19
1,0,-1,-2,2,0,-14,-15,16,27,29,20
1,1,0,-2,1,0,-14,-16,16,27,29,20
1,1,0,-2,1,1,-14,-16,15,27,29,19
1,2,1,-2,1,1,-14,-17,15,27,29,19
1,2,1,-2,0,1,-14,-17,15,27,30,19
0,1,1,-2,0,1,-14,-17,15,27,30,19
0,1,1,-2,0,1,-14,-17,14,27,30,19
0,2,2,-2,0,2,-14,-17,14,26,30,19
0,2,2,-2,0,2,-14,-17,14,26,30,19
0,2,2,-2,0,2,-15,-17,13,26,29,18
0,2,2,-2,-1,2,-15,-17,13,26,29,18
0,2,2,-2,-1,2,-15,-17,13,26,29,18
-1,2,2,-2,-1,2,-15,-17,12,25,29,18
-1,2,3,-1,-1,2,-15,-17,12,24,28,18
-1,2,4,-1,-2,3,-15,-18,11,23,27,17
-2,3,5,-1,-3,4,-14,-18,11,22,26,16
-2,4,6,-1,-4,4,-14,-18,10,22,26,16
-2,4,6,-1,-4,4,-14,-18,10,21,25,15
-2,4,7,-1,-4,4,-14,-18,9,20,24,15
-2,4,7,-1,-4,4,-13,-17,9,20,23,14
-2,4,7,-1,-4,4,-13,-17,9,19,23,14
-2,4,7,-1,-4,5,-12,-17,8,18,22,13
-3,4,7,-1,-4,5,-12,-17,8,17,21,13
-3,4,7,-1,-4,5,-12,-17,7,16,20,12
-3,4,7,-1,-5,5,-12,-16,7,15,20,12
-4,4,8,-1,-5,5,-12,-16,7,14,19,11
-4,4,9,-1,-6,6,-12,-16,7,13,18,11
-5,4,9,-1,-7,6,-11,-15,7,13,17,10
-5,5,10,-1,-8,7,-10,-15,6,12,17,9
-5,5,10,-1,-8,8,-9,-14,6,11,16,9
-5,5,11,-1,-8,8,-9,-14,6,10,15,8
-6,5,11,-1,-8,8,-8,-13,5,9,13,7
-6,5,11,0,-8,8,-8,-13,5,8,11,6
-6,5,11,0,-9,8,-7,-13,5,7,10,5
-6,4,11,0,-9,8,-7,-12,5,6,9,4
-7,4,11,1,-9,8,-6,-11,5,6,8,4
-7,4,11,1,-10,7,-5,-10,5,5,8,4
-8,3,11,2,-10,7,-4,-10,5,4,7,4
-8,2,10,2,-9,6,-3,-9,5,3,6,4
-8,2,10,2,-9,6,-3,-9,5,3,5,3
-8,1,9,2,-9,5,-2,-8,5,2,4,2
-8,1,9,2,-9,5,-2,-8,5,1,3,1
-7,2,9,2,-8,5,-2,-8,5,1,3,1
-7,2,9,2,-8,5,-2,-7,5,0,2,1
-7,2,9,2,-8,5,-1,-7,5,0,1,0
-7,1,9,2,-8,5,-1,-6,4,-1,1,0
-8,1,9,2,-8,5,0,-6,4,-1,0,0
-8,1,9,2,-8,5,0,-6,4,-2,0,0
-8,0,9,3,-8,4,0,-6,4,-2,0,0
-9,0,8,3,-8,4,1,-5,4,-3,-1,-1
-9,-1,8,4,-8,3,1,-5,3,-3,-1,-1
-9,-2,7,4,-8,2,2,-5,3,-4,-2,-1
-10,-2,7,4,-8,2,2,-5,3,-4,-2,-1
-10,-2,7,4,-8,2,2,-5,3,-5,-3,-1
-10,-2,7,5,-8,2,2,-5,2,-5,-3,-2
-10,-2,7,5,-8,2,2,-5,2,-6,-4,-2
-10,-2,7,5,-8,2,2,-5,2,-7,-5,-3
-10,-2,7,5,-8,2,2,-5,2,-8,-6,-3
-10,-3,7,6,-8,2,2,-5,2,-8,-6,-3
-10,-3,7,6,-8,2,3,-5,2,-8,-7,-3
-10,-3,7,6,-8,2,3,-5,2,-8,-7,-3
-10,-3,7,6,-8,2,3,-4,2,-8,-7,-3
-11,-4,7,6,-8,2,4,-4,2,-8,-8,-4
-11,-4,7,6,-8,2,4,-4,2,-9,-8,-4
-11,-3,7,6,-8,2,4,-4,1,-9,-9,-4
-11,-3,7,6,-8,2,4,-4,1,-10,-10,-5
-10,-2,8,5,-8,3,4,-4,0,-10,-11,-5
-10,-2,8,5,-9,3,4,-4,0,-11,-11,-6
-11,-2,8,5,-9,3,4,-4,0,-11,-12,-6
-11,-2,8,5,-9,3,4,-5,0,-11,-12,-6
-11,-1,8,5,-9,3,4,-5,0,-12,-12,-6
-10,-1,8,5,-9,3,4,-5,0,-12,-12,-7
-10,-2,8,6,-9,3,4,-5,0,-12,-12,-7
-10,-2,8,6,-9,2,4,-5,0,-12,-12,-7
-10,-2,8,6,-9,2,3,-5,0,-12,-12,-7
-11,-3,8,6,-9,2,3,-5,0,-13,-12,-7
-11,-3,8,6,-9,2,4,-5,0,-13,-13,-7
-11,-3,8,6,-9,2,4,-5,-1,-14,-13,-7
-11,-3,8,6,-9,2,4,-5,-1,-14,-14,-8
-11,-3,8,6,-9,2,4,-5,-1,-14,-14,-8
-11,-4,7,6,-9,1,4,-5,-1,-14,-14,-7
-11,-4,7,6,-9,1,4,-5,-1,-15,-14,-7
-11,-4,7,6,-9,1,4,-5,-1,-15,-14,-7
-11,-4,7,7,-9,1,4,-5,-1,-15,-15,-7
-11,-5,7,7,-9,1,4,-5,-1,-15,-15,-7
-11,-5,7,8,-9,0,4,-5,-1,-15,-15,-7
-11,-5,7,7,-9,0,4,-5,-1,-15,-15,-7
-10,-4,7,7,-9,1,4,-5,-1,-16,-15,-8
-10,-4,7,7,-9,1,4,-5,-2,-16,-16,-8
-11,-4,8,7,-9,2,4,-6,-2,-17,-16,-9
-11,-4,8,7,-10,2,4,-6,-3,-17,-17,-9
-11,-3,8,7,-10,2,4,-6,-3,-17,-17,-9
-11,-3,8,6,-9,3,4,-6,-3,-17,-17,-9
-11,-2,8,6,-9,3,4,-6,-3,-17,-17,-9
-10,-2,8,6,-9,3,4,-6,-3,-17,-17,-9
-10,-2,8,6,-9,3,4,-6,-3,-17,-17,-9
-10,-2,8,6,-9,3,4,-6,-3,-17,-17,-9
-11,-3,8,6,-9,3,4,-6,-3,-17,-17,-9
-11,-3,8,6,-9,2,4,-6,-3,-17,-17,-9
-11,-3,8,6,-9,2,3,-6,-3,-17,-17,-9
-11,-3,8,6,-9,2,3,-6,-3,-17,-17,-9
-11,-3,8,6,-9,2,2,-6,-3,-17,-17,-9
-11,-3,8,6,-9,2,2,-6,-3,-17,-17,-9
-11,-3,8,6,-9,2,2,-6,-3,-17,-17,-9
-11,-3,8,6,-9,2,2,-6,-3,-17,-16,-9
-11,-3,8,6,-9,2,2,-6,-3,-17,-16,-9
-11,-3,8,6,-9,2,2,-7,-4,-17,-16,-9
-11,-3,8,6,-9,2,2,-7,-4,-17,-16,-9
-11,-3,8,6,-9,2,2,-7,-4,-17,-16,-9
-11,-3,8,6,-9,2,2,-7,-4,-17,-16,-9
-11,-3,8,6,-9,2,2,-7,-4,-17,-16,-9
-11,-3,8,6,-9,2,2,-7,-4,-17,-16,-9
-11,-3,8,6,-9,2,2,-7,-4,-17,-15,-9
-10,-3,8,6,-9,2,2,-7,-4,-17,-15,-9
-10,-3,8,6,-9,2,2,-8,-4,-17,-15,-9
-10,-3,8,6,-9,2,1,-8,-4,-17,-15,-9
-10,-3,8,6,-9,1,1,-8,-4,-17,-15,-8
-10,-4,7,7,-9,1,1,-8,-4,-17,-15,-8
-11,-4,7,7,-9,0,1,-8,-4,-17,-15,-8
-11,-5,7,8,-9,0,1,-9,-4,-17,-15,-8
-11,-5,7,8,-9,0,1,-9,-4,-17,-15,-8
-11,-5,7,8,-9,1,1,-9,-4,-16,-14,-8
-11,-4,7,8,-9,1,1,-9,-4,-16,-14,-8
-11,-4,7,8,-9,1,1,-9,-3,-16,-14,-8
-11,-4,7,8,-8,0,1,-9,-3,-15,-14,-8
-11,-4,7,7,-8,0,1,-9,-3,-15,-13,-8
-11,-4,7,7,-9,1,1,-9,-3,-14,-13,-7
-11,-3,8,6,-9,1,1,-9,-2,-14,-12,-6
-11,-2,9,6,-10,2,1,-9,-2,-14,-12,-6
-11,-1,10,5,-10,3,1,-9,-2,-14,-12,-7
-11,0,10,5,-10,4,1,-9,-2,-14,-12,-7
-11,0,11,5,-11,5,1,-9,-2,-14,-12,-7
-11,0,11,5,-11,5,1,-9,-2,-14,-12,-7
-11,0,11,5,-11,5,1,-9,-2,-14,-12,-7
-11,0,11,5,-11,5,1,-9,-2,-14,-12,-7
-11,0,11,5,-11,5,1,-9,-2,-14,-12,-7
-11,0,11,5,-11,5,0,-10,-2,-14,-12,-7
-10,0,11,5,-11,5,0,-10,-2,-14,-12,-7
-10,0,10,5,-10,5,0,-10,-2,-14,-12,-7
-10,0,10,5,-10,5,-1,-10,-2,-14,-13,-7
-10,0,11,5,-10,5,-1,-11,-2,-14,-13,-7
-10,0,11,5,-11,6,-2,-11,-3,-14,-13,-7
-10,1,12,4,-11,7,-3,-12,-3,-14,-13,-7
-10,2,13,4,-12,7,-4,-13,-4,-14,-13,-7
-10,3,14,3,-12,8,-4,-14,-4,-14,-13,-7
-11,3,14,3,-12,8,-5,-14,-4,-14,-13,-7
-11,3,14,3,-12,8,-5,-15,-5,-14,-13,-7
-10,3,14,3,-12,8,-6,-16,-5,-14,-13,-7
-10,4,15,2,-12,9,-7,-16,-5,-14,-13,-6
-10,4,15,2,-12,9,-8,-16,-5,-13,-13,-6
-9,5,15,2,-12,10,-8,-16,-4,-13,-12,-5
-9,5,15,2,-12,10,-8,-16,-4,-13,-12,-5
-9,5,15,2,-12,9,-8,-16,-4,-13,-11,-5
-9,4,14,2,-11,8,-8,-16,-4,-13,-10,-4
-8,3,12,2,-10,7,-8,-16,-4,-13,-10,-4
-9,1,11,3,-10,6,-8,-16,-4,-13,-10,-4
-9,0,10,3,-9,5,-8,-16,-4,-13,-10,-4
-9,-1,9,4,-9,4,-8,-16,-4,-13,-10,-4
-9,-2,8,5,-9,3,-8,-16,-4,-13,-10,-4
-9,-2,8,5,-8,2,-8,-15,-4,-13,-10,-4
-9,-3,7,6,-8,1,-7,-15,-4,-13,-10,-4
-10,-4,6,6,-7,1,-7,-14,-4,-12,-10,-4
-10,-5,6,7,-7,0,-6,-13,-4,-12,-10,-4
-10,-6,5,7,-7,0,-6,-13,-3,-12,-10,-4
-10,-6,4,8,-7,-1,-5,-13,-3,-12,-10,-4
-10,-7,4,8,-7,-1,-5,-13,-3,-13,-10,-4
-11,-8,3,9,-6,-2,-5,-13,-3,-13,-11,-4
-11,-9,3,9,-6,-3,-4,-13,-4,-14,-11,-5
-11,-9,2,10,-6,-4,-4,-13,-5,-15,-12,-5
-11,-10,1,10,-6,-4,-4,-13,-5,-16,-12,-6
-11,-10,1,11,-6,-5,-4,-13,-6,-16,-13,-6
-11,-11,1,11,-6,-5,-3,-13,-6,-16,-13,-7
-11,-11,0,11,-6,-6,-3,-13,-6,-16,-13,-7
-11,-12,0,11,-5,-7,-4,-13,-6,-17,-13,-7
-12,-13,-1,12,-5,-7,-4,-13,-6,-17,-13,-7
-12,-14,-1,12,-5,-8,-4,-13,-6,-17,-14,-8
-12,-14,-1,13,-5,-8,-4,-13,-6,-17,-14,-8
-12,-14,-1,13,-5,-8,-4,-13,-6,-18,-14,-8
-12,-14,-1,13,-5,-8,-4,-13,-6,-18,-14,-8
-12,-14,-1,13,-5,-8,-4,-13,-6,-18,-15,-8
-12,-14,-1,13,-5,-8,-4,-13,-6,-18,-15,-8
-13,-14,-1,13,-5,-8,-4,-13,-6,-18,-15,-8
-13,-14,-1,13,-5,-8,-4,-14,-6,-18,-15,-8
-12,-14,-1,13,-5,-8,-4,-14,-6,-18,-15,-8
-12,-14,-1,13,-5,-8,-4,-14,-6,-18,-15,-7
-12,-14,-1,13,-5,-8,-4,-14,-6,-18,-15,-7
-12,-14,-1,13,-5,-8,-4,-14,-6,-18,-15,-7
-12,-14,-2,13,-5,-8,-4,-14,-6,-18,-16,-7
-12,-14,-2,13,-5,-8,-4,-14,-6,-18,-16,-7
-12,-14,-2,13,-5,-8,-4,-14,-6,-18,-16,-7
-12,-15,-2,13,-4,-9,-4,-14,-6,-18,-16,-7
-12,-15,-3,13,-4,-9,-3,-14,-6,-18,-16,-7
-12,-16,-3,14,-4,-9,-3,-14,-5,-18,-16,-7
-12,-16,-3,14,-4,-9,-3,-14,-5,-18,-15,-7
-12,-16,-3,14,-4,-9,-3,-14,-5,-18,-15,-7
-12,-15,-2,13,-4,-9,-3,-14,-5,-18,-16,-8
-12,-14,-1,13,-5,-8,-2,-14,-5,-18,-16,-8
-13,-13,0,12,-6,-7,-1,-14,-5,-19,-17,-9
-13,-12,2,12,-7,-5,-1,-14,-6,-20,-19,-10
-14,-10,3,12,-8,-4,0,-15,-7,-22,-20,-11
-14,-9,5,11,-9,-2,0,-16,-9,-23,-21,-12
-15,-7,7,10,-11,0,-1,-17,-11,-25,-22,-12
-15,-5,10,9,-12,2,-2,-20,-14,-27,-22,-13
-14,-2,12,7,-13,5,-4,-23,-16,-28,-22,-12
-14,1,15,6,-14,8,-7,-27,-19,-28,-21,-11
-13,4,17,4,-14,10,-10,-30,-21,-29,-20,-10
-13,7,20,2,-15,13,-12,-33,-24,-30,-19,-9
-12,10,22,0,-16,15,-15,-35,-26,-30,-17,-7
-11,13,23,-1,-16,17,-17,-37,-27,-30,-14,-4
-9,15,23,-3,-16,19,-19,-37,-27,-28,-9,0
-6,17,23,-6,-14,20,-21,-36,-23,-23,-2,5
-3,19,23,-9,-13,21,-22,-31,-15,-15,5,12
0,22,23,-11,-12,22,-21,-24,-3,-5,14,18
2,24,21,-13,-9,22,-18,-14,11,8,23,26
5,24,18,-15,-5,20,-16,-7,23,22,34,34
8,21,12,-15,-1,16,-14,-4,32,36,46,43
11,17,6,-14,3,11,-14,-3,38,48,58,51
13,14,0,-14,6,7,-15,-4,43,61,70,60
16,13,-3,-15,9,5,-18,-7,49,76,83,69
19,12,-6,-16,12,3,-23,-12,54,92,97,79
21,9,-11,-15,15,-1,-29,-17,59,106,108,85
21,2,-18,-12,19,-8,-33,-18,66,118,113,87
20,-6,-26,-8,23,-16,-33,-15,76,130,112,84
18,-14,-32,-2,25,-23,-31,-8,86,139,108,78
15,-22,-38,3,27,-30,-27,-3,92,143,100,70
13,-29,-43,8,28,-36,-23,0,91,139,89,61
10,-35,-45,12,28,-40,-19,0,86,131,78,52
6,-39,-46,16,26,-43,-15,0,78,118,66,42
2,-42,-46,19,24,-44,-11,0,67,100,52,32
-1,-44,-44,21,22,-44,-8,-2,55,80,38,23
-3,-43,-40,23,19,-42,-6,-3,43,59,25,15
-5,-41,-36,23,16,-39,-5,-5,33,40,14,9
-6,-38,-32,22,13,-36,-4,-6,24,24,6,4
-6,-36,-29,21,11,-33,-3,-6,19,12,0,1
-7,-35,-27,21,10,-31,-2,-6,15,4,-5,-1
-7,-33,-25,20,9,-30,0,-7,13,0,-8,-2
-8,-32,-24,20,8,-28,1,-8,12,-2,-9,-3
-8,-30,-22,19,7,-27,2,-9,12,-3,-10,-4
-8,-29,-20,19,6,-25,2,-11,11,-4,-11,-4
-8,-27,-18,18,5,-23,1,-14,9,-5,-11,-4
-8,-26,-17,17,4,-22,1,-17,8,-5,-12,-4
-9,-24,-15,17,3,-20,0,-19,7,-5,-12,-4
-9,-23,-14,16,2,-19,0,-21,7,-6,-13,-4
-10,-23,-13,16,2,-18,0,-22,6,-6,-13,-4
-10,-23,-13,16,1,-18,-1,-23,5,-7,-14,-4
-10,-22,-13,16,1,-18,-1,-24,5,-7,-14,-4
-10,-22,-13,16,1,-18,-2,-24,4,-8,-15,-4
-10,-22,-13,16,1,-18,-2,-25,4,-8,-15,-4
-9,-22,-13,15,1,-18,-2,-26,4,-9,-16,-4
-9,-22,-12,15,1,-18,-2,-26,4,-9,-16,-4
-9,-22,-12,15,1,-17,-2,-27,4,-9,-16,-4
-9,-21,-12,15,1,-17,-2,-27,4,-9,-16,-4
-9,-21,-12,14,1,-16,-2,-27,4,-10,-17,-4
-9,-20,-12,14,1,-16,-2,-27,4,-10,-17,-3
-9,-20,-12,14,1,-16,-2,-27,4,-10,-18,-3
-9,-21,-12,15,1,-16,-2,-27,4,-10,-19,-3
-9,-21,-12,15,1,-16,-2,-27,4,-10,-19,-3
-9,-21,-11,15,1,-16,-2,-27,4,-10,-20,-3
-9,-21,-11,15,1,-16,-2,-27,4,-10,-20,-3
-9,-21,-11,15,1,-16,-2,-28,4,-10,-20,-3
-9,-21,-12,15,1,-16,-2,-28,4,-10,-20,-3
-9,-21,-12,15,1,-16,-2,-28,4,-11,-20,-3
-9,-21,-12,15,1,-16,-2,-28,4,-11,-21,-3
-9,-21,-12,15,1,-16,-2,-29,4,-11,-21,-3
-9,-21,-12,15,2,-16,-2,-29,4,-11,-22,-3
-8,-21,-12,15,2,-16,-2,-29,4,-11,-22,-4
-8,-21,-12,15,2,-16,-2,-29,4,-11,-23,-4
-8,-21,-12,15,2,-16,-2,-29,4,-11,-23,-4
-8,-21,-12,15,2,-16,-2,-29,4,-11,-23,-4
-8,-21,-13,15,2,-17,-2,-30,4,-11,-24,-4
-8,-21,-13,14,2,-17,-2,-30,4,-10,-24,-4
-8,-21,-13,14,3,-17,-2,-31,4,-10,-24,-4
-8,-21,-13,14,3,-17,-2,-31,4,-10,-24,-4
-8,-21,-13,14,3,-17,-2,-32,4,-10,-25,-4
-8,-21,-13,14,3,-17,-2,-32,5,-10,-26,-4
-7,-21,-13,14,3,-17,-2,-33,5,-10,-26,-4
-7,-21,-13,14,3,-17,-2,-33,5,-10,-27,-4
-7,-21,-13,14,3,-17,-3,-34,5,-10,-27,-4
-7,-21,-13,14,3,-17,-3,-34,5,-10,-28,-3
-7,-21,-13,14,3,-17,-3,-34,5,-9,-28,-3
-7,-21,-14,14,3,-17,-3,-34,6,-9,-29,-3
-6,-21,-14,14,4,-17,-3,-34,6,-9,-29,-3
-6,-21,-14,14,4,-17,-3,-34,6,-9,-29,-4
-6,-21,-14,14,4,-17,-3,-33,6,-9,-29,-4
-6,-21,-15,14,4,-17,-3,-33,6,-9,-29,-4
-6,-21,-15,13,4,-17,-3,-32,6,-9,-29,-4
-6,-21,-15,13,4,-17,-4,-31,6,-9,-30,-4
-6,-21,-15,13,4,-17,-4,-30,6,-8,-30,-3
-6,-21,-15,13,4,-17,-4,-30,6,-8,-30,-3
-6,-21,-15,13,4,-17,-4,-29,6,-8,-30,-3
-6,-21,-15,13,4,-17,-4,-29,6,-7,-31,-3
-6,-21,-15,13,4,-17,-4,-28,6,-7,-31,-3
-5,-21,-15,13,4,-17,-4,-28,6,-7,-32,-3
-5,-21,-15,13,4,-17,-4,-27,7,-7,-33,-3
-6,-21,-15,13,4,-17,-4,-26,7,-7,-33,-3
-6,-21,-15,13,4,-17,-4,-26,7,-7,-34,-3
-6,-21,-15,13,4,-17,-4,-25,7,-7,-34,-2
-5,-21,-15,13,5,-17,-4,-25,7,-6,-35,-2
-5,-20,-15,13,5,-17,-4,-24,7,-6,-35,-2
-5,-20,-15,13,4,-17,-4,-24,7,-6,-35,-2
-5,-20,-15,13,4,-17,-4,-23,7,-5,-35,-2
-5,-20,-15,13,4,-17,-4,-22,7,-5,-35,-1
-5,-20,-15,12,4,-17,-4,-22,7,-5,-36,-1
-5,-20,-15,12,4,-17,-4,-21,7,-4,-36,0
-5,-20,-15,12,4,-17,-4,-20,7,-4,-36,0
-6,-20,-15,12,4,-17,-4,-20,8,-3,-36,0
-6,-20,-15,12,4,-17,-4,-19,8,-3,-37,0
-5,-19,-14,11,4,-16,-4,-19,8,-3,-37,0
-5,-18,-14,11,4,-16,-4,-18,8,-2,-37,1
-5,-18,-14,11,4,-16,-4,-18,8,-2,-37,1
-5,-18,-14,11,4,-16,-4,-17,8,-1,-37,1
-5,-18,-14,11,4,-15,-4,-16,8,-1,-37,2
-5,-17,-13,11,4,-15,-4,-15,8,0,-37,2
-5,-17,-13,11,4,-14,-4,-15,9,0,-37,2
-5,-16,-13,11,4,-14,-4,-14,9,0,-37,2
-5,-16,-13,10,4,-13,-4,-14,9,1,-37,3
-5,-15,-12,10,4,-13,-4,-14,9,2,-37,3
-5,-15,-12,10,4,-13,-4,-14,9,2,-37,3
-5,-15,-12,9,4,-13,-4,-13,10,3,-37,4
-4,-15,-12,9,4,-12,-4,-13,10,3,-38,4
-4,-14,-11,8,3,-12,-4,-12,10,4,-37,5
-4,-14,-11,8,3,-11,-4,-12,10,5,-37,5
-4,-13,-10,8,3,-11,-5,-12,10,5,-37,6
-4,-13,-10,8,3,-11,-5,-12,11,6,-36,6
-4,-13,-9,8,2,-11,-5,-11,11,7,-36,7
-4,-13,-9,8,2,-10,-5,-11,11,8,-36,7
-4,-12,-9,8,2,-10,-5,-11,11,8,-36,8
-4,-12,-9,7,2,-10,-6,-10,11,9,-35,8
-3,-11,-9,7,2,-9,-6,-10,11,10,-35,9
-3,-11,-9,6,2,-9,-7,-10,11,11,-34,9
-3,-10,-8,6,2,-8,-7,-10,11,12,-34,10
-3,-9,-8,6,2,-8,-7,-10,11,13,-33,10
-2,-8,-7,5,2,-7,-7,-10,11,14,-33,10
-2,-8,-7,5,2,-6,-8,-10,11,14,-32,11
-2,-7,-6,4,1,-6,-8,-10,11,15,-32,11
-2,-7,-5,4,1,-5,-9,-10,11,16,-31,12
-2,-6,-4,4,0,-4,-9,-9,11,17,-31,12
-2,-5,-3,4,0,-3,-9,-9,11,18,-30,13
-2,-4,-3,4,0,-3,-9,-9,11,19,-29,13
-2,-4,-2,3,0,-2,-9,-9,11,19,-29,14
-2,-3,-2,3,0,-2,-10,-8,11,20,-28,14
-2,-3,-1,2,-1,-1,-10,-8,12,21,-28,14
-2,-2,-1,2,-1,-1,-10,-8,12,21,-27,15
-2,-2,0,1,-1,0,-10,-7,12,22,-27,15
-2,-1,0,1,-1,0,-11,-7,12,22,-26,16
-2,-1,0,1,-1,0,-11,-7,12,23,-26,16
-2,-1,1,1,-2,1,-11,-6,12,23,-25,16
-2,0,1,1,-2,1,-11,-6,12,24,-25,17
-2,0,2,1,-2,1,-11,-6,12,24,-24,17
-2,0,2,1,-3,2,-11,-6,12,24,-24,17
-2,1,3,0,-3,2,-11,-5,12,24,-24,17
-2,1,3,0,-3,3,-11,-5,11,25,-24,17
-2,2,3,0,-3,3,-11,-5,11,25,-24,17
-2,2,4,0,-3,4,-11,-4,11,25,-23,17
-2,3,4,0,-3,4,-11,-4,11,25,-23,17
-2,3,5,-1,-4,5,-11,-4,10,25,-23,17
-2,4,5,-1,-4,5,-11,-4,10,25,-23,16
-2,4,6,-1,-5,6,-11,-3,9,25,-23,16
-2,4,6,-1,-5,6,-11,-3,9,25,-23,16
-2,4,7,-1,-5,6,-11,-3,8,25,-24,16
-2,5,7,-1,-5,6,-11,-3,8,24,-24,16
-2,5,7,-2,-5,7,-11,-3,8,24,-25,16
-2,5,7,-2,-5,7,-11,-3,8,23,-25,16
-2,6,7,-2,-5,8,-11,-3,8,23,-26,15
-2,6,8,-2,-6,8,-11,-3,7,22,-26,15
-2,6,9,-2,-6,9,-10,-3,7,22,-27,14
-3,7,9,-2,-7,9,-10,-2,6,21,-27,14
-3,7,10,-2,-7,9,-9,-2,6,20,-28,14
-3,7,10,-2,-8,9,-9,-1,6,20,-29,13
-4,8,11,-2,-8,10,-9,-1,6,19,-29,13
-4,8,11,-2,-8,10,-8,0,5,18,-30,12
-4,8,12,-2,-9,10,-8,0,5,18,-30,12
-4,8,12,-2,-9,11,-7,0,5,17,-31,11
-4,8,12,-2,-9,11,-7,0,4,16,-31,11
-4,8,12,-2,-9,11,-6,1,4,15,-32,10
-4,8,12,-2,-9,11,-6,1,3,14,-33,9
-4,8,12,-2,-9,11,-6,2,3,14,-33,9
-4,8,12,-2,-9,11,-6,3,3,13,-34,8
-5,8,12,-2,-9,11,-5,3,3,12,-35,8
-5,8,13,-1,-10,11,-4,4,3,11,-35,7
-5,8,13,-1,-10,11,-3,4,3,11,-36,7
-6,8,13,-1,-10,11,-2,5,2,10,-37,7
-6,8,13,-1,-10,11,-2,6,2,9,-38,6
-6,7,13,-1,-10,11,-2,6,1,8,-39,6
-7,7,13,0,-11,11,-1,7,1,7,-39,6
-7,7,13,0,-11,11,-1,7,1,6,-40,6
-7,7,13,0,-11,11,-1,8,1,6,-41,5
-7,7,14,0,-11,11,0,9,1,5,-41,5
-7,7,14,0,-11,11,0,9,1,5,-42,5
-7,7,14,0,-11,11,0,10,1,4,-42,4
-7,6,13,0,-11,11,1,10,0,3,-43,4
-7,6,13,0,-11,10,1,11,0,2,-43,3
-7,6,12,0,-11,10,2,11,0,1,-43,3
-7,6,12,0,-10,10,2,12,0,0,-44,3
-7,5,12,0,-10,9,2,12,-1,0,-44,3
-8,4,12,1,-10,9,2,13,-1,0,-45,3
-8,4,12,1,-10,8,3,13,-1,-1,-45,3
-8,3,11,2,-10,8,3,14,-1,-1,-46,3
-8,3,11,2,-10,8,4,14,-1,-1,-46,2
-8,3,11,2,-10,8,4,14,-1,-2,-46,2
-9,2,11,3,-10,8,4,15,-1,-2,-47,1
-9,2,11,3,-10,7,5,15,-1,-3,-47,1
-9,2,10,3,-10,7,5,16,-2,-3,-47,1
-9,2,10,3,-10,7,5,16,-2,-4,-47,1
-9,2,10,3,-10,7,6,16,-2,-4,-47,1
-9,1,10,3,-10,7,6,17,-2,-4,-47,0
-9,1,10,3,-10,7,7,17,-2,-5,-48,0
-9,1,10,3,-10,7,7,17,-2,-5,-48,0
-9,1,10,3,-10,7,7,17,-3,-6,-49,0
-9,1,10,3,-10,7,7,17,-3,-6,-49,0
-10,1,10,4,-10,7,7,18,-4,-7,-49,0
-10,1,10,4,-10,6,7,18,-4,-7,-49,0
-10,1,10,4,-10,6,8,19,-4,-7,-49,0
-10,1,10,4,-10,6,8,19,-4,-7,-50,0
-10,1,10,4,-10,6,8,19,-4,-7,-50,0
-10,1,10,4,-10,6,8,19,-5,-8,-50,0
-10,1,10,4,-10,7,9,19,-5,-8,-50,0
-10,1,10,4,-10,7,9,19,-5,-9,-50,-1
-10,1,10,4,-10,7,9,20,-5,-9,-51,-1
-10,1,10,4,-10,7,9,20,-5,-9,-51,-2
-10,1,11,4,-10,7,9,20,-5,-10,-52,-2
-10,1,11,4,-10,7,9,20,-6,-10,-52,-3
-10,2,11,4,-11,7,9,20,-6,-11,-52,-3
-10,2,11,4,-11,7,10,20,-7,-11,-52,-3
-10,2,11,4,-11,7,10,20,-7,-11,-52,-3
-10,2,11,4,-11,7,10,21,-7,-12,-52,-3
-10,2,11,4,-10,7,9,21,-8,-12,-53,-3
-10,2,11,4,-10,7,9,21,-8,-13,-53,-3
-9,2,11,3,-10,7,9,21,-8,-13,-53,-3
-9,2,11,3,-10,7,9,21,-8,-13,-53,-3
-9,2,10,3,-10,7,9,21,-8,-13,-53,-3
-9,2,11,3,-11,7,9,21,-9,-14,-53,-4
-9,2,11,3,-11,8,9,21,-9,-14,-54,-4
-9,2,11,3,-11,8,9,21,-10,-14,-54,-4
-9,2,12,3,-11,8,9,22,-10,-14,-54,-4
-9,3,12,3,-11,8,9,22,-10,-15,-54,-4
-9,3,12,3,-11,8,9,23,-10,-15,-54,-4
-9,3,12,3,-11,8,9,23,-11,-15,-54,-4
-9,3,12,2,-11,9,9,23,-11,-15,-54,-4
-8,3,12,2,-11,9,9,23,-11,-15,-54,-4
-8,3,12,2,-11,9,9,24,-11,-15,-55,-4
-8,3,12,2,-11,9,9,24,-12,-15,-55,-4
-8,3,12,2,-10,9,9,24,-12,-15,-55,-4
-8,3,12,2,-10,9,9,24,-12,-16,-55,-4
-8,4,12,2,-10,9,9,24,-13,-16,-55,-4
-8,4,12,1,-10,9,9,24,-13,-16,-55,-4
-8,4,12,1,-10,9,9,24,-13,-16,-55,-4
-8,4,12,1,-11,9,8,24,-13,-16,-55,-4
-8,4,12,1,-11,9,8,24,-13,-16,-54,-4
-8,4,12,1,-11,9,8,24,-13,-16,-54,-4
-8,4,12,1,-11,9,8,24,-13,-17,-54,-4
-8,4,12,2,-11,9,7,24,-13,-17,-54,-4
-8,4,12,2,-10,9,7,24,-13,-17,-54,-4
-8,4,12,1,-10,9,7,24,-13,-17,-54,-4
-8,4,12,1,-10,9,7,24,-14,-17,-53,-4
-8,4,12,1,-10,9,7,24,-14,-17,-53,-4
-8,5,12,1,-10,9,7,25,-14,-17,-53,-4
-8,5,12,1,-10,9,7,25,-14,-17,-53,-4
-8,5,12,1,-10,9,6,25,-14,-17,-53,-4
-8,5,12,0,-9,9,6,25,-14,-17,-53,-4
-7,5,12,0,-9,9,6,25,-14,-16,-52,-4
-7,5,12,0,-9,9,6,25,-14,-16,-52,-4
-7,5,12,0,-9,9,6,25,-14,-16,-52,-4
-7,5,12,0,-9,9,6,25,-14,-16,-51,-4
-7,5,12,0,-9,9,6,25,-14,-16,-51,-4
-7,5,12,0,-9,9,6,25,-14,-15,-51,-3
-6,6,12,0,-9,10,6,25,-14,-15,-50,-3
-6,7,13,-1,-10,10,5,25,-14,-15,-50,-2
-6,8,13,-1,-10,11,5,25,-14,-15,-49,-2
-6,8,14,-1,-10,12,5,25,-14,-14,-49,-2
-6,9,15,-1,-10,12,5,26,-14,-14,-49,-2
-6,9,15,-2,-10,13,5,26,-13,-13,-49,-2
-6,10,16,-2,-10,13,5,26,-13,-13,-48,-2
-6,10,16,-3,-10,14,5,27,-13,-12,-48,-2
-6,11,16,-3,-11,14,5,27,-13,-12,-48,-2
-6,12,17,-4,-11,15,5,27,-13,-12,-48,-2
-6,12,18,-4,-12,16,4,27,-13,-12,-48,-1
-5,13,18,-4,-12,17,4,27,-13,-12,-48,-1
-5,13,19,-4,-12,17,4,28,-13,-12,-47,-1
-5,14,19,-5,-12,17,4,28,-13,-12,-47,-1
-5,14,19,-5,-12,17,4,28,-13,-12,-46,-1
-4,14,19,-5,-12,17,4,28,-13,-12,-46,-1
-4,15,19,-5,-12,17,4,28,-13,-12,-46,-1
-4,15,19,-6,-12,17,4,28,-13,-12,-46,-1
-4,15,19,-6,-12,18,3,28,-13,-12,-46,-1
-4,15,19,-6,-12,18,3,27,-14,-12,-46,-1
-4,16,20,-6,-13,19,2,27,-14,-12,-46,-1
-4,16,21,-6,-13,19,2,26,-15,-12,-46,-1
-4,17,21,-6,-13,20,1,26,-15,-12,-45,-1
-4,17,22,-6,-13,20,1,25,-15,-12,-45,-1
-4,17,22,-6,-13,20,0,25,-16,-12,-45,-2
-4,17,21,-7,-13,20,0,25,-16,-12,-45,-2
-4,17,21,-7,-12,20,-1,24,-17,-12,-44,-2
-4,18,21,-8,-12,20,-1,24,-17,-12,-43,-2
-3,18,21,-8,-12,20,-2,25,-17,-11,-42,-2
-3,19,21,-8,-12,20,-2,25,-17,-11,-41,-2
-2,19,20,-8,-11,20,-2,25,-17,-11,-41,-2
-2,18,20,-8,-11,19,-2,25,-17,-11,-40,-3
-2,18,19,-8,-10,19,-2,25,-17,-11,-40,-4
-2,17,18,-8,-10,18,-2,25,-17,-11,-40,-6
-2,15,17,-8,-9,17,-2,26,-17,-11,-40,-7
-2,14,16,-7,-9,16,-1,26,-17,-11,-39,-7
-2,13,14,-6,-8,14,-1,27,-17,-11,-39,-8
-2,12,13,-5,-8,13,-1,27,-17,-12,-39,-8
-2,11,12,-5,-7,12,0,27,-17,-12,-39,-8
-2,10,11,-5,-7,11,0,28,-17,-12,-39,-8
-2,10,11,-4,-6,11,0,28,-17,-12,-39,-8
-2,9,11,-4,-6,11,1,29,-18,-12,-39,-8
-3,8,10,-3,-6,10,1,29,-18,-12,-39,-8
-3,8,10,-3,-6,9,2,29,-18,-12,-38,-10
-3,7,9,-3,-6,9,2,29,-18,-13,-38,-15
-3,6,8,-2,-6,8,2,29,-19,-13,-39,-22
-3,5,8,-2,-6,7,2,29,-19,-14,-39,-26
-3,4,7,-1,-5,6,2,29,-20,-15,-40,-29
-3,4,7,-1,-5,6,2,29,-20,-16,-40,-31
-3,3,6,-1,-5,6,3,29,-21,-16,-40,-32
-3,3,6,0,-5,5,3,30,-21,-16,-40,-32
-3,2,6,0,-5,5,4,30,-21,-16,-40,-33
-3,2,5,0,-4,5,4,31,-21,-16,-41,-33
-3,2,5,0,-4,5,4,31,-21,-17,-41,-34
-3,2,5,0,-4,5,4,31,-21,-17,-41,-34
-3,2,5,0,-4,5,4,32,-21,-17,-41,-34
-3,2,5,0,-4,5,4,32,-21,-17,-41,-34
-4,1,5,0,-4,4,4,32,-21,-17,-41,-34
-4,1,5,0,-4,4,4,32,-21,-17,-41,-34
-4,1,4,0,-4,3,4,33,-20,-17,-41,-34
-4,1,4,0,-4,3,5,33,-20,-17,-41,-35
-4,1,4,0,-4,3,5,33,-20,-17,-41,-35
-4,1,4,0,-4,3,5,33,-20,-17,-40,-36
-4,1,4,0,-4,3,5,34,-20,-17,-40,-36
-4,1,4,0,-4,3,5,34,-20,-17,-39,-37
-3,1,4,0,-4,3,5,34,-20,-17,-39,-37
-3,1,4,0,-4,3,5,34,-21,-17,-39,-38
-3,1,4,0,-4,3,5,34,-21,-17,-39,-38
-3,1,4,0,-4,3,5,34,-21,-17,-39,-39
-3,1,4,0,-4,3,5,35,-21,-17,-39,-39
-3,1,4,0,-4,3,5,35,-21,-18,-39,-40
-2,1,4,0,-4,3,5,36,-21,-18,-39,-40
-2,1,4,0,-4,3,6,36,-21,-18,-39,-41
-2,1,4,0,-4,3,6,36,-21,-18,-39,-41
-3,2,5,0,-4,4,6,36,-21,-18,-39,-42
-3,3,6,-1,-5,5,7,36,-22,-19,-39,-43
-3,4,7,-1,-5,6,7,36,-22,-20,-40,-44
-4,5,9,-1,-6,7,8,36,-23,-22,-41,-45
-4,7,11,-2,-7,9,8,36,-25,-23,-42,-46
-4,9,13,-3,-9,12,8,35,-27,-25,-42,-47
-4,11,16,-4,-10,14,7,34,-30,-27,-43,-47
-4,14,19,-5,-12,17,5,31,-32,-28,-43,-47
-4,18,22,-7,-13,20,3,28,-35,-29,-42,-47
-3,21,24,-9,-14,23,1,25,-37,-29,-41,-46
-2,25,26,-12,-14,26,-1,22,-40,-30,-40,-45
-1,28,29,-14,-15,29,-4,20,-42,-30,-38,-43
0,31,31,-16,-15,32,-6,19,-44,-30,-35,-40
1,33,32,-18,-15,33,-7,19,-43,-28,-31,-36
3,36,32,-20,-15,34,-8,22,-40,-23,-24,-31
6,38,32,-23,-14,36,-9,27,-33,-16,-16,-24
8,41,33,-26,-12,37,-8,34,-22,-6,-8,-18
11,43,32,-28,-11,38,-5,43,-11,4,0,-11
14,44,30,-30,-8,38,-3,48,-1,15,10,-4
17,42,25,-30,-4,35,-4,48,3,26,21,4
20,39,18,-30,1,30,-6,45,6,37,34,14
23,36,12,-30,5,25,-10,41,9,49,46,23
26,34,8,-30,9,22,-14,36,12,62,59,33
28,33,4,-31,12,19,-21,28,13,76,73,43
31,28,-3,-30,17,13,-30,20,15,90,86,52
33,19,-13,-27,23,3,-37,16,20,103,95,57
33,8,-24,-22,28,-7,-40,19,28,114,97,57
31,-1,-32,-16,32,-16,-37,26,38,122,93,52
28,-9,-38,-10,33,-23,-32,33,46,125,85,43
25,-16,-41,-5,33,-27,-26,39,49,124,74,33
22,-20,-42,-2,32,-30,-20,45,50,119,62,23
19,-23,-42,1,31,-32,-14,50,47,111,51,14
16,-25,-41,4,28,-33,-9,54,42,98,39,5
13,-25,-38,5,25,-31,-4,57,35,83,27,-3
10,-23,-34,6,21,-28,-1,58,27,66,16,-11
8,-21,-29,6,18,-25,0,59,18,47,5,-17
6,-19,-25,6,16,-22,2,59,11,31,-3,-22
5,-17,-22,5,14,-19,4,59,4,18,-9,-25
5,-15,-20,5,13,-17,6,59,0,9,-13,-27
4,-13,-17,4,11,-14,8,58,-3,3,-15,-28
3,-10,-14,3,9,-12,9,57,-5,0,-17,-29
3,-8,-12,2,8,-10,10,55,-7,-2,-18,-30
3,-7,-10,1,6,-8,9,52,-8,-3,-18,-30
3,-6,-9,1,6,-7,8,50,-10,-4,-19,-30
3,-5,-8,0,5,-6,8,48,-11,-5,-19,-30
3,-5,-8,0,5,-5,7,47,-12,-6,-18,-30
3,-4,-7,0,5,-5,7,46,-13,-6,-18,-30
2,-4,-7,0,5,-4,7,45,-14,-7,-19,-30
2,-4,-7,0,4,-4,7,45,-14,-7,-19,-30
1,-4,-7,0,4,-5,7,44,-15,-8,-20,-31
1,-4,-7,0,4,-5,7,44,-15,-9,-20,-31
1,-4,-7,0,4,-5,7,44,-15,-9,-20,-31
1,-4,-7,0,4,-5,7,44,-15,-10,-20,-31
1,-4,-7,0,4,-5,7,44,-15,-10,-20,-31
1,-4,-6,0,4,-5,7,43,-16,-10,-20,-31
1,-4,-6,0,4,-5,7,43,-16,-10,-20,-31
1,-4,-6,1,4,-5,7,43,-16,-10,-20,-31
1,-4,-6,1,4,-5,7,43,-17,-10,-20,-31
1,-4,-6,1,4,-5,7,43,-17,-10,-20,-31
1,-4,-7,1,4,-5,7,43,-17,-10,-19,-31
1,-4,-7,1,4,-5,7,43,-17,-10,-19,-31
1,-4,-7,0,4,-5,7,43,-17,-11,-19,-31
2,-4,-7,0,4,-5,7,43,-17,-11,-18,-31
2,-4,-7,0,5,-5,7,43,-17,-11,-18,-31
2,-4,-7,0,5,-5,7,43,-17,-11,-18,-31
2,-3,-7,0,5,-5,7,44,-17,-11,-18,-31
2,-3,-7,0,5,-5,7,44,-17,-11,-18,-31
2,-3,-7,0,5,-5,7,44,-17,-11,-18,-31
2,-3,-8,0,5,-6,7,44,-17,-11,-17,-31
2,-3,-8,0,5,-6,7,44,-17,-11,-17,-31
2,-4,-8,0,5,-6,7,44,-17,-11,-17,-31
2,-4,-8,0,5,-6,8,44,-17,-11,-17,-31
3,-5,-8,0,5,-6,8,44,-17,-11,-17,-31
3,-5,-8,0,6,-6,8,44,-17,-11,-16,-31
3,-5,-9,0,6,-6,8,44,-17,-11,-16,-31
3,-5,-9,0,6,-6,8,44,-17,-11,-16,-30
3,-4,-9,0,6,-6,8,44,-16,-11,-15,-30
3,-4,-9,0,6,-6,8,44,-16,-11,-15,-30
3,-4,-9,0,6,-6,8,44,-16,-10,-15,-30
3,-4,-9,0,7,-6,8,43,-16,-10,-15,-30
3,-4,-9,0,7,-6,8,43,-16,-10,-15,-29
4,-4,-9,0,7,-6,8,43,-16,-10,-15,-29
4,-3,-9,-1,7,-6,8,43,-15,-10,-15,-29
4,-4,-10,-1,7,-6,8,43,-15,-10,-14,-29
5,-4,-10,-1,7,-7,8,43,-15,-10,-14,-29
5,-4,-10,-1,7,-7,8,43,-15,-10,-14,-29
5,-4,-10,-1,7,-7,8,43,-15,-10,-14,-29
4,-4,-9,0,7,-7,8,43,-15,-10,-14,-29
4,-4,-9,0,7,-7,8,43,-15,-10,-14,-29
4,-4,-9,0,7,-7,8,43,-15,-10,-14,-29
4,-4,-10,0,7,-7,7,43,-15,-10,-14,-29
4,-4,-10,0,8,-7,7,43,-15,-10,-14,-29
4,-4,-10,-1,8,-7,7,43,-15,-10,-14,-28
4,-4,-9,-1,7,-6,7,43,-15,-10,-13,-28
4,-4,-9,-1,7,-6,7,43,-15,-10,-13,-28
5,-3,-9,-1,8,-6,7,43,-15,-10,-12,-27
5,-3,-9,-1,8,-6,6,43,-15,-10,-12,-27
5,-3,-10,-1,8,-6,6,43,-15,-10,-12,-27
5,-3,-10,-1,8,-6,6,43,-14,-10,-12,-26
5,-4,-10,-1,8,-6,6,43,-14,-9,-12,-26
5,-4,-10,-1,8,-7,6,42,-14,-9,-11,-25
5,-4,-10,-1,8,-7,6,42,-14,-8,-11,-25
5,-4,-10,0,8,-7,6,42,-14,-8,-10,-24
5,-4,-10,0,8,-7,5,42,-14,-8,-10,-24
5,-4,-10,0,8,-7,5,42,-13,-8,-10,-24
5,-4,-10,0,8,-7,5,42,-13,-7,-9,-23
4,-4,-10,0,7,-6,6,42,-12,-7,-9,-23
4,-4,-9,0,7,-6,6,42,-12,-6,-8,-22
4,-3,-9,0,7,-5,6,42,-12,-6,-8,-22
4,-3,-9,0,7,-5,6,42,-11,-5,-7,-21
4,-4,-9,0,7,-6,5,42,-11,-5,-7,-21
4,-4,-9,0,7,-6,5,42,-11,-5,-6,-20
4,-3,-9,0,7,-6,5,42,-11,-4,-6,-20
4,-3,-9,-1,7,-6,5,41,-11,-4,-5,-19
5,-3,-9,-1,7,-6,5,41,-11,-3,-5,-19
5,-3,-9,-1,7,-6,5,40,-10,-3,-5,-19
5,-3,-9,-1,7,-6,4,40,-10,-2,-5,-18
6,-2,-8,-2,7,-5,4,39,-9,-2,-4,-18
6,-1,-8,-2,7,-4,3,39,-9,-1,-3,-17
5,-1,-7,-2,7,-4,3,39,-8,-1,-3,-17
5,-1,-7,-2,7,-4,3,39,-8,0,-2,-17
5,-1,-7,-2,7,-4,3,39,-8,0,-1,-16
5,-1,-7,-2,7,-4,3,39,-7,1,-1,-16
5,-1,-7,-2,7,-4,3,38,-7,2,0,-15
5,0,-6,-2,7,-4,3,38,-6,2,0,-14
5,0,-6,-2,7,-3,2,38,-6,3,1,-14
5,0,-6,-2,7,-3,2,38,-5,4,2,-13
5,0,-6,-2,6,-3,2,38,-5,5,3,-13
5,0,-5,-3,6,-2,1,38,-4,6,4,-12
5,1,-5,-3,6,-2,1,38,-4,7,5,-12
5,1,-4,-3,6,-1,1,37,-3,8,6,-11
5,1,-4,-3,5,-1,1,37,-3,8,7,-11
5,1,-4,-3,5,-1,0,36,-2,9,7,-10
5,1,-4,-3,5,-1,0,36,-2,10,8,-10
5,2,-4,-3,5,-1,0,36,-1,11,9,-9
5,2,-4,-3,5,-1,0,36,0,12,10,-8
5,3,-3,-4,5,0,0,36,0,14,11,-8
6,3,-3,-4,5,0,0,35,0,15,12,-7
6,4,-3,-5,5,0,0,35,1,16,12,-7
6,4,-2,-5,5,1,-1,35,1,17,13,-6
6,5,-2,-6,5,1,-1,35,2,18,13,-6
6,5,-1,-6,5,2,-1,35,2,18,14,-5
6,6,-1,-7,5,2,-1,35,3,19,15,-5
7,7,0,-7,5,3,-1,35,3,20,16,-4
7,7,0,-7,4,3,-2,35,4,21,17,-4
7,8,0,-7,4,4,-2,35,4,22,18,-3
7,8,1,-7,3,4,-2,35,5,23,18,-3
7,9,1,-8,3,5,-2,35,5,24,19,-3
7,10,2,-8,3,6,-2,35,6,25,19,-2
7,10,2,-8,3,6,-2,35,6,25,20,-2
7,10,2,-8,3,6,-2,35,6,26,20,-1
6,10,2,-8,2,7,-2,35,7,27,21,-1
6,10,3,-8,2,7,-2,35,7,28,22,-1
7,11,3,-9,2,8,-2,35,7,28,22,-1
7,12,4,-10,2,8,-2,35,7,29,23,-1
8,13,4,-10,2,9,-2,35,7,29,23,-1
8,13,5,-11,2,9,-2,34,7,30,23,-1
7,13,5,-11,1,10,-2,34,8,30,23,-1
7,14,6,-11,1,10,-2,34,8,30,23,-1
7,15,7,-11,1,11,-2,34,8,30,24,-1
7,16,8,-12,0,12,-2,34,8,31,24,-1
7,16,8,-12,0,12,-2,34,8,31,24,-1
7,16,9,-12,0,12,-2,34,8,31,24,-1
7,17,9,-12,0,13,-2,33,8,31,24,-1
7,17,10,-12,-1,14,-2,33,8,31,24,-1
7,17,10,-13,-1,14,-2,33,8,30,24,-1
6,17,11,-13,-1,14,-2,33,8,30,23,-1
6,18,11,-13,-2,15,-2,33,8,30,23,-1
6,18,12,-13,-2,15,-2,33,7,29,23,-2
6,19,12,-13,-2,16,-2,32,7,29,22,-2
5,19,12,-13,-2,16,-1,32,7,28,22,-3
5,18,13,-12,-3,16,-1,32,7,28,21,-3
4,18,13,-12,-3,16,-1,32,7,27,21,-3
4,19,14,-13,-3,17,0,32,7,26,20,-3
5,20,14,-13,-3,17,0,32,6,26,20,-4
5,20,14,-13,-4,17,0,32,6,25,19,-4
4,20,14,-12,-4,17,0,32,6,24,19,-5
4,20,14,-12,-4,17,0,32,5,23,18,-5
4,20,14,-12,-5,17,0,32,5,22,17,-6
4,19,14,-12,-5,17,0,32,5,22,17,-6
4,19,14,-12,-5,17,0,32,5,21,16,-6
4,19,14,-12,-5,17,1,32,4,20,16,-6
4,19,15,-12,-5,17,1,31,4,19,15,-7
3,19,15,-12,-5,17,1,31,3,18,14,-7
3,19,15,-12,-5,17,2,31,3,17,14,-8
3,19,15,-11,-6,17,2,31,2,16,13,-8
3,18,15,-11,-6,17,2,30,2,15,12,-9
2,18,15,-11,-6,16,2,30,1,14,11,-9
2,18,15,-10,-6,16,3,29,1,13,10,-10
2,18,15,-10,-6,16,3,29,0,12,10,-10
2,17,15,-10,-6,16,3,28,0,11,9,-11
2,17,15,-10,-6,16,3,28,-1,10,8,-11
2,16,14,-9,-6,15,3,27,-1,9,7,-12
1,15,13,-9,-6,14,3,26,-2,8,7,-12
1,14,13,-8,-6,14,3,25,-2,7,6,-13
1,14,13,-8,-6,14,3,24,-3,6,5,-13
1,14,13,-8,-6,14,4,23,-3,5,5,-14
1,13,12,-8,-6,14,4,22,-3,4,4,-14
1,13,12,-8,-6,13,4,21,-4,3,4,-15
0,12,12,-7,-6,13,4,20,-4,2,3,-15
0,12,12,-7,-6,12,5,19,-5,1,3,-15
0,12,12,-6,-6,12,5,18,-5,0,2,-15
0,12,12,-6,-6,11,5,17,-6,0,1,-16
0,11,11,-6,-6,11,5,16,-7,-1,1,-16
0,11,11,-6,-6,11,5,15,-7,-1,0,-16
0,10,11,-6,-6,11,6,14,-7,-2,0,-16
-1,10,10,-5,-6,10,6,13,-7,-2,0,-16
-1,9,10,-4,-6,10,6,12,-8,-3,0,-16
-1,9,10,-4,-5,10,6,11,-8,-3,0,-17
-1,9,10,-4,-5,10,6,10,-9,-4,-1,-17
-1,9,9,-4,-5,10,6,9,-9,-4,-1,-17
-1,8,9,-4,-5,9,6,8,-9,-5,-2,-18
-1,8,8,-4,-5,9,6,7,-10,-5,-2,-18
-1,8,8,-4,-5,8,6,7,-10,-6,-3,-18
-1,8,8,-4,-5,8,6,7,-10,-6,-3,-18
-1,8,9,-4,-5,8,6,6,-10,-7,-3,-18
-1,8,9,-4,-5,8,6,6,-11,-7,-3,-18
-1,8,9,-4,-5,8,7,5,-11,-8,-4,-18
-1,8,9,-4,-5,8,7,5,-12,-8,-4,-19
-1,8,9,-4,-5,8,7,4,-12,-9,-4,-19
-1,8,9,-4,-5,8,7,3,-12,-9,-5,-19
-2,8,9,-3,-6,9,7,3,-12,-10,-5,-20
-2,7,9,-3,-6,9,7,2,-13,-10,-6,-20
-2,7,8,-3,-6,8,7,2,-13,-10,-6,-20
-2,7,8,-3,-6,8,7,2,-14,-11,-6,-20
-2,7,8,-3,-6,8,7,1,-14,-11,-6,-20
-2,7,8,-3,-6,8,7,1,-14,-11,-6,-20
-2,7,9,-3,-6,9,7,0,-14,-12,-6,-20
-2,7,9,-3,-6,9,7,0,-14,-12,-7,-21
-2,7,9,-3,-6,8,8,0,-15,-12,-7,-21
-2,7,9,-3,-6,8,8,0,-15,-13,-7,-21
-2,7,10,-3,-6,8,8,0,-15,-13,-8,-22
-2,8,10,-3,-7,9,8,-1,-15,-14,-8,-22
-2,8,10,-3,-7,9,8,-1,-15,-14,-8,-22
-2,8,10,-3,-7,9,8,-2,-16,-14,-9,-22
-2,8,10,-3,-7,9,8,-3,-16,-15,-9,-22
-2,8,10,-3,-7,9,8,-3,-17,-15,-9,-22
-2,8,10,-2,-7,9,8,-4,-17,-16,-9,-22
-2,8,10,-2,-7,9,8,-4,-18,-16,-9,-22
-2,8,10,-2,-7,10,7,-5,-18,-16,-10,-23
-2,9,10,-3,-7,10,7,-5,-18,-17,-10,-23
-2,9,10,-3,-7,11,7,-5,-18,-17,-11,-23
-2,9,10,-4,-7,11,8,-5,-18,-17,-11,-23
-2,9,11,-4,-7,11,8,-5,-18,-17,-11,-23
-2,9,11,-4,-7,10,8,-6,-18,-17,-11,-23
-2,9,11,-4,-8,10,8,-6,-19,-18,-11,-23
-2,9,11,-4,-8,11,8,-7,-19,-18,-11,-23
-2,9,12,-4,-8,11,8,-7,-19,-18,-11,-23
-2,9,12,-4,-8,11,7,-7,-19,-18,-12,-23
-2,9,12,-4,-8,11,7,-7,-19,-19,-12,-23
-2,9,11,-4,-8,10,7,-8,-20,-19,-12,-23
-2,9,11,-4,-8,10,7,-8,-20,-19,-12,-23
-2,9,11,-4,-8,10,7,-8,-20,-19,-12,-23
-2,9,11,-4,-8,11,7,-8,-20,-19,-12,-23
-2,10,12,-4,-8,11,7,-9,-20,-19,-12,-23
-2,10,12,-4,-8,12,7,-9,-20,-19,-12,-23
-2,9,12,-4,-8,12,7,-9,-20,-19,-12,-23
-2,9,12,-4,-8,12,7,-9,-20,-19,-12,-23
-2,9,12,-4,-8,11,7,-10,-20,-19,-12,-23
-2,9,11,-4,-8,11,7,-10,-20,-19,-12,-23
-2,9,11,-4,-8,11,7,-10,-20,-19,-12,-23
-2,9,12,-4,-8,10,7,-11,-20,-19,-12,-23
-2,9,12,-4,-8,10,7,-11,-20,-19,-12,-23
-2,9,12,-4,-8,10,6,-11,-20,-19,-12,-23
-2,9,12,-4,-8,10,6,-11,-20,-18,-12,-23
-2,9,12,-4,-8,10,6,-11,-20,-18,-12,-23
-2,9,12,-4,-8,10,6,-11,-20,-18,-11,-23
-2,9,12,-4,-8,11,6,-11,-20,-18,-11,-22
-2,10,12,-4,-9,11,6,-12,-20,-18,-11,-22
-2,9,12,-3,-8,11,6,-12,-21,-18,-11,-22
-1,9,11,-3,-8,10,6,-13,-21,-18,-10,-22
-1,9,12,-3,-8,10,6,-13,-20,-17,-10,-22
-1,9,12,-3,-8,10,6,-13,-20,-17,-10,-22
-1,10,12,-4,-8,11,6,-13,-20,-17,-10,-22
-1,10,13,-4,-8,11,6,-13,-20,-16,-10,-22
-1,11,13,-5,-8,12,6,-13,-19,-16,-9,-21
0,12,13,-5,-8,13,6,-13,-19,-15,-9,-21
0,13,13,-6,-8,13,7,-13,-18,-15,-8,-20
0,13,13,-6,-8,13,7,-13,-18,-14,-8,-20
0,13,14,-6,-8,13,7,-13,-17,-14,-8,-20
0,14,14,-7,-8,14,7,-13,-17,-14,-8,-20
0,14,15,-7,-8,15,7,-13,-17,-14,-8,-20
0,15,15,-8,-8,15,6,-13,-17,-14,-8,-20
0,15,15,-8,-8,15,6,-13,-17,-14,-7,-20
0,16,16,-8,-9,16,6,-12,-17,-14,-7,-20
1,17,16,-8,-9,17,6,-12,-17,-13,-7,-20
1,17,16,-8,-9,17,6,-13,-17,-13,-7,-20
1,17,16,-8,-9,17,6,-13,-17,-13,-7,-20
1,17,16,-8,-9,17,6,-13,-17,-13,-7,-20
1,16,16,-8,-9,16,5,-14,-17,-13,-7,-20
1,16,16,-8,-9,16,5,-14,-17,-14,-7,-20
1,17,17,-9,-9,17,5,-14,-18,-14,-7,-20
1,17,17,-9,-10,17,4,-15,-18,-14,-7,-20
1,18,18,-9,-10,18,4,-16,-18,-14,-6,-19
1,18,18,-9,-10,18,4,-16,-18,-14,-6,-19
1,18,18,-9,-10,18,3,-17,-18,-14,-6,-18
1,18,18,-9,-10,18,3,-17,-18,-13,-6,-18
1,18,17,-10,-9,18,2,-17,-18,-13,-5,-17
2,18,16,-10,-8,17,2,-17,-18,-13,-5,-17
2,18,16,-10,-8,17,2,-17,-17,-13,-4,-16
3,18,15,-10,-7,17,2,-17,-17,-12,-4,-16
3,19,15,-10,-7,17,1,-17,-16,-12,-4,-15
3,18,14,-10,-6,16,1,-17,-16,-11,-3,-15
3,17,13,-10,-6,15,1,-17,-16,-11,-3,-15
3,15,12,-10,-5,14,1,-17,-17,-12,-3,-15
3,14,11,-9,-5,13,1,-17,-17,-12,-3,-15
4,13,10,-9,-4,11,1,-17,-17,-12,-3,-15
4,12,8,-8,-3,10,1,-17,-17,-12,-3,-15
4,11,7,-7,-3,9,2,-17,-17,-12,-4,-15
4,10,7,-7,-2,8,2,-17,-17,-12,-4,-15
4,9,6,-6,-2,8,3,-17,-17,-12,-4,-15
3,9,6,-6,-2,7,4,-17,-17,-12,-4,-15
3,8,6,-5,-2,7,4,-17,-17,-12,-4,-15
3,8,5,-5,-2,7,5,-16,-17,-13,-4,-15
3,7,5,-5,-1,6,5,-16,-17,-13,-4,-15
3,7,4,-4,-1,6,6,-16,-17,-14,-4,-16
3,6,3,-4,-1,5,6,-16,-17,-14,-5,-16
2,5,2,-3,0,4,6,-16,-18,-15,-6,-17
2,4,2,-3,0,3,6,-16,-18,-16,-6,-18
2,4,1,-3,0,3,6,-16,-19,-16,-7,-18
2,3,1,-2,0,2,6,-16,-19,-17,-7,-19
2,3,0,-2,0,2,6,-16,-19,-17,-8,-19
2,2,0,-2,0,1,6,-16,-19,-17,-8,-19
2,2,0,-2,0,1,7,-16,-19,-17,-9,-19
2,1,-1,-1,0,0,7,-16,-19,-17,-9,-19
2,1,-1,-1,0,0,8,-16,-19,-18,-9,-19
2,0,-2,-1,1,-1,8,-16,-19,-18,-9,-19
2,0,-2,0,1,-1,8,-16,-19,-18,-9,-19
2,0,-2,0,1,-1,8,-16,-19,-18,-9,-19
2,0,-2,-1,1,-1,8,-16,-19,-18,-9,-19
2,0,-2,-1,2,-1,8,-15,-19,-18,-9,-19
2,0,-2,-1,2,-1,8,-15,-19,-18,-9,-19
3,0,-2,-1,2,-1,8,-15,-19,-18,-9,-19
3,0,-3,-1,2,-2,8,-15,-19,-18,-9,-19
3,0,-3,-1,2,-2,8,-15,-19,-18,-9,-19
3,0,-4,-1,2,-2,8,-15,-19,-18,-9,-19
3,0,-4,-1,2,-2,8,-15,-19,-18,-9,-19
3,0,-4,-1,2,-2,8,-15,-19,-18,-9,-20
3,0,-4,-1,2,-2,8,-15,-19,-18,-9,-20
3,0,-3,-1,2,-2,8,-15,-19,-18,-10,-20
3,0,-3,-1,2,-1,8,-15,-19,-18,-10,-20
2,-1,-4,0,2,-2,9,-15,-19,-19,-10,-20
2,-2,-4,0,2,-2,9,-15,-19,-19,-10,-20
2,-2,-4,0,2,-2,9,-15,-19,-19,-10,-20
2,-2,-3,0,2,-2,9,-15,-19,-19,-10,-20
2,-1,-2,0,1,-2,10,-15,-19,-19,-11,-20
2,0,-1,-1,1,-1,10,-15,-19,-20,-11,-20
2,1,0,-1,0,0,11,-15,-20,-21,-12,-21
1,2,1,-1,-1,2,11,-15,-21,-23,-13,-22
1,4,3,-2,-2,4,12,-15,-22,-24,-14,-23
1,6,6,-3,-4,6,12,-16,-24,-26,-15,-24
1,10,9,-5,-5,9,11,-18,-26,-27,-16,-24
1,13,12,-7,-7,12,10,-20,-29,-28,-16,-24
1,15,14,-8,-8,15,8,-24,-31,-28,-15,-24
1,17,16,-10,-8,17,5,-27,-33,-28,-13,-22
2,20,17,-12,-9,19,3,-29,-35,-29,-12,-20
3,24,20,-14,-9,22,0,-31,-37,-29,-10,-18
5,27,22,-16,-9,25,-1,-32,-38,-28,-7,-15
7,30,23,-19,-9,27,-3,-32,-38,-26,-2,-11
9,33,23,-21,-8,28,-4,-30,-35,-21,3,-5
11,35,24,-24,-7,29,-4,-25,-28,-14,11,1
14,38,24,-27,-6,30,-3,-17,-17,-5,19,7
18,39,22,-29,-4,31,0,-7,-4,6,28,14
21,40,19,-30,0,29,2,1,7,18,38,22
25,38,13,-31,4,26,2,3,15,30,50,31
28,34,6,-31,10,21,0,2,20,43,63,41
30,30,0,-31,14,16,-2,-1,24,56,76,51
33,28,-5,-31,18,12,-6,-7,27,70,89,61
36,27,-9,-32,22,9,-12,-15,29,84,104,71
38,22,-16,-31,26,3,-21,-25,30,99,117,80
40,12,-26,-27,32,-7,-29,-30,34,111,124,84
39,1,-37,-21,38,-18,-32,-29,41,121,125,83
38,-9,-46,-15,41,-27,-29,-23,51,129,119,76
35,-17,-52,-9,42,-33,-24,-16,58,132,109,66
31,-24,-55,-4,42,-38,-18,-10,62,131,97,55
27,-28,-56,0,40,-41,-12,-5,62,126,85,45
24,-31,-55,3,38,-43,-6,0,59,117,72,35
20,-33,-53,5,35,-43,-1,2,53,104,59,24
17,-33,-49,7,32,-41,2,4,45,88,46,15
15,-31,-45,7,29,-38,5,6,36,69,34,7
13,-28,-41,7,26,-34,7,6,26,50,24,1
12,-25,-37,7,23,-30,9,7,17,32,16,-2
11,-22,-34,6,21,-27,11,7,10,19,10,-5
10,-20,-31,4,19,-24,13,7,5,9,5,-7
9,-18,-27,3,17,-22,14,7,2,3,3,-8
9,-16,-25,2,16,-20,15,5,0,0,1,-9
8,-15,-22,2,14,-18,16,3,-1,-2,0,-10
8,-14,-21,2,13,-17,15,0,-3,-4,0,-10
8,-13,-20,1,12,-16,14,-2,-5,-6,-1,-11
8,-12,-19,1,12,-15,13,-4,-6,-7,-1,-11
8,-11,-19,1,12,-14,13,-5,-7,-8,-1,-10
8,-10,-18,0,12,-13,12,-6,-8,-8,-1,-10
8,-9,-17,0,12,-13,12,-7,-8,-9,-2,-10
8,-9,-17,0,12,-13,12,-8,-9,-9,-2,-10
8,-10,-18,0,12,-13,12,-9,-9,-10,-3,-9
8,-10,-18,0,12,-14,12,-9,-9,-10,-3,-9
8,-10,-18,0,11,-14,12,-10,-10,-10,-3,-9
8,-10,-18,0,11,-14,12,-10,-10,-10,-3,-8
8,-10,-18,0,12,-14,12,-10,-10,-10,-3,-8
8,-10,-18,0,12,-13,12,-10,-10,-11,-3,-7
8,-9,-17,0,11,-13,12,-11,-10,-11,-3,-7
8,-9,-17,0,11,-12,12,-11,-11,-11,-3,-6
8,-9,-16,0,11,-12,12,-11,-11,-11,-3,-6
8,-9,-16,0,11,-12,11,-11,-11,-12,-3,-6
8,-9,-16,0,11,-13,11,-11,-11,-12,-4,-6
8,-9,-17,0,11,-13,11,-11,-11,-12,-4,-6
8,-9,-17,0,11,-13,11,-11,-11,-12,-4,-5
8,-8,-16,0,11,-12,11,-11,-11,-12,-3,-5
8,-8,-16,0,11,-12,11,-12,-10,-12,-3,-5
8,-9,-17,0,12,-12,11,-12,-10,-11,-3,-4
9,-9,-17,-1,12,-12,11,-12,-10,-11,-3,-4
9,-9,-17,-1,12,-13,11,-12,-10,-11,-3,-4
10,-9,-17,-1,12,-13,11,-12,-10,-11,-3,-4
10,-9,-17,-1,12,-13,11,-12,-10,-11,-2,-4
10,-9,-18,-1,13,-13,11,-12,-10,-11,-2,-3
10,-9,-18,-1,13,-13,11,-12,-10,-11,-2,-3
10,-9,-18,-1,13,-13,11,-12,-10,-11,-2,-2
10,-8,-17,-1,13,-13,11,-13,-10,-11,-2,-2
10,-8,-17,-2,13,-12,11,-13,-10,-11,-2,-2
10,-8,-18,-2,13,-13,11,-13,-9,-11,-2,-2
10,-9,-18,-1,13,-13,12,-12,-9,-11,-1,-2
9,-9,-18,-1,12,-13,12,-12,-8,-11,-1,-2
9,-9,-18,-1,12,-13,12,-12,-8,-11,-1,-1
9,-10,-19,-1,13,-14,12,-12,-8,-11,-1,-1
9,-11,-20,0,14,-15,12,-12,-8,-10,-1,0
9,-11,-20,0,14,-15,12,-12,-8,-10,-1,0
9,-11,-20,0,13,-15,12,-12,-8,-10,-1,0
9,-11,-20,0,13,-15,12,-12,-8,-10,-1,0
9,-12,-20,0,13,-16,12,-12,-7,-10,-1,0
9,-12,-20,0,13,-16,12,-12,-7,-10,-1,1
9,-11,-20,0,14,-16,12,-12,-7,-10,-1,1
9,-11,-20,0,14,-16,12,-12,-7,-10,-1,1
9,-11,-20,0,14,-16,12,-12,-7,-10,-1,1
10,-11,-20,0,14,-16,12,-11,-6,-10,-1,2
10,-11,-21,0,14,-16,12,-11,-6,-9,0,2
10,-11,-21,0,14,-16,12,-11,-6,-9,0,2
10,-11,-21,0,14,-16,12,-11,-6,-9,0,2
10,-12,-21,0,14,-17,12,-11,-6,-9,0,2
10,-12,-22,0,15,-17,12,-11,-6,-9,0,3
10,-12,-21,0,15,-17,12,-10,-6,-9,0,3
10,-11,-21,0,15,-16,12,-10,-5,-8,0,3
10,-11,-21,0,15,-16,12,-10,-5,-8,0,3
10,-11,-21,0,15,-16,11,-10,-5,-8,0,3
10,-11,-21,0,15,-16,11,-10,-5,-8,0,4
10,-12,-21,0,15,-16,11,-10,-5,-8,1,4
10,-12,-21,0,15,-16,11,-10,-4,-7,1,5
10,-12,-21,0,14,-16,11,-10,-4,-7,2,5
10,-12,-21,0,14,-16,11,-9,-4,-7,2,5
10,-12,-21,0,14,-16,11,-9,-3,-6,2,6
10,-11,-21,0,14,-16,11,-8,-3,-6,3,6
10,-11,-21,0,14,-16,10,-8,-3,-6,3,7
10,-11,-21,0,14,-16,10,-8,-3,-5,3,7
10,-11,-21,0,14,-16,10,-8,-3,-5,3,7
10,-11,-21,0,14,-16,10,-9,-3,-5,4,8
10,-11,-20,0,14,-15,10,-9,-3,-5,4,8
10,-11,-20,0,14,-15,10,-9,-2,-4,5,8
10,-11,-20,0,14,-16,9,-9,-2,-4,5,8
10,-11,-20,0,14,-16,9,-9,-1,-3,5,9
10,-11,-20,0,14,-15,9,-9,-1,-3,6,9
10,-10,-20,0,13,-15,9,-9,0,-2,6,10
10,-10,-19,0,13,-14,9,-9,0,-2,7,10
10,-10,-19,0,13,-14,8,-9,0,-1,7,11
10,-10,-19,0,13,-14,8,-8,0,-1,8,11
10,-10,-19,0,13,-14,8,-8,1,0,8,12
10,-10,-19,-1,13,-14,7,-8,1,0,9,12
10,-10,-19,-1,13,-14,7,-8,2,1,9,12
10,-10,-18,-1,12,-13,7,-8,2,2,10,13
9,-9,-18,-1,12,-13,6,-8,3,3,10,13
9,-9,-17,-1,12,-13,6,-8,3,4,11,14
9,-8,-17,-1,12,-13,6,-8,4,4,12,14
9,-8,-17,-1,12,-13,6,-8,4,5,13,15
9,-8,-17,-1,12,-13,5,-8,5,6,13,15
9,-8,-16,-1,12,-12,5,-8,5,7,14,16
9,-7,-16,-1,12,-12,5,-8,6,8,14,16
9,-7,-16,-1,11,-11,4,-8,7,9,15,17
9,-7,-15,-1,11,-11,4,-8,8,10,16,17
9,-7,-14,-2,10,-10,3,-8,8,11,17,18
9,-6,-13,-2,10,-10,2,-8,9,12,18,19
9,-6,-13,-2,10,-9,2,-7,9,14,19,19
9,-5,-13,-3,10,-9,1,-7,10,15,20,20
10,-4,-13,-3,11,-8,1,-7,11,16,21,20
11,-4,-13,-4,11,-8,0,-7,12,18,22,21
11,-3,-12,-4,11,-8,0,-7,13,19,22,22
11,-3,-12,-5,11,-8,0,-7,13,20,23,23
11,-2,-12,-5,11,-7,-1,-7,14,22,24,23
11,-2,-11,-6,10,-7,-1,-7,15,23,25,24
10,-1,-10,-6,9,-6,-2,-7,16,24,26,24
10,-1,-9,-6,8,-5,-2,-7,16,24,27,24
9,0,-8,-5,7,-4,-3,-7,16,25,28,25
9,0,-8,-5,7,-4,-3,-6,17,27,29,26
9,0,-8,-6,7,-4,-3,-6,18,28,29,26
9,0,-8,-6,7,-3,-4,-6,19,29,30,27
9,1,-7,-6,7,-3,-4,-6,19,30,31,28
9,1,-7,-6,7,-3,-4,-6,20,31,31,28
10,2,-7,-6,7,-3,-4,-6,20,32,32,28
10,2,-7,-7,7,-2,-4,-6,21,32,33,28
10,3,-6,-7,7,-2,-5,-6,21,33,33,29
10,3,-6,-8,7,-1,-5,-6,21,33,34,29
10,4,-5,-8,6,0,-6,-6,21,34,34,29
10,4,-5,-8,6,0,-6,-6,22,34,34,29
10,5,-4,-8,6,0,-6,-6,22,35,34,29
10,5,-4,-8,6,1,-6,-6,22,35,35,29
9,6,-4,-8,5,1,-6,-6,22,36,35,29
9,6,-3,-8,5,1,-6,-6,23,36,35,29
9,7,-2,-8,5,2,-7,-6,23,36,35,30
9,7,-1,-8,4,2,-7,-6,23,36,35,30
8,8,0,-8,3,3,-7,-6,23,36,35,29
8,8,0,-8,3,4,-7,-6,23,36,35,29
8,8,0,-8,2,4,-7,-6,23,36,35,29
8,8,0,-8,2,4,-7,-6,23,36,35,29
8,8,1,-8,2,4,-7,-6,23,36,35,29
8,8,1,-8,2,5,-7,-5,23,36,35,29
7,9,2,-9,1,5,-7,-5,23,35,34,28
7,9,3,-9,1,6,-7,-5,22,35,34,28
7,10,4,-9,0,7,-6,-5,22,34,33,28
7,10,4,-9,0,8,-6,-5,22,34,33,27
6,11,5,-9,0,8,-6,-5,22,33,32,27
6,11,5,-9,0,8,-6,-5,21,32,32,26
6,11,5,-10,-1,8,-6,-4,21,31,31,26
6,12,5,-10,-1,8,-6,-4,20,30,30,25
6,12,6,-10,-1,9,-6,-4,20,29,30,25
6,13,7,-10,-1,9,-6,-4,19,28,29,24
6,13,7,-10,-1,10,-5,-4,19,27,29,24
5,13,8,-9,-2,10,-5,-4,19,26,28,24
5,13,8,-10,-2,10,-4,-3,19,26,27,23
6,14,8,-10,-2,11,-4,-3,18,25,27,23
6,14,9,-11,-3,12,-4,-2,18,24,26,22
5,15,10,-11,-4,12,-4,-2,17,23,25,22
5,15,10,-10,-4,12,-4,-2,16,22,24,21
4,14,10,-10,-4,12,-4,-2,15,21,23,21
4,13,9,-9,-3,11,-4,-2,15,20,22,20
4,13,9,-9,-3,11,-3,-2,14,19,21,20
4,13,9,-9,-3,11,-3,-2,14,18,20,19
4,12,9,-9,-3,10,-3,-3,13,17,19,19
3,12,8,-8,-3,10,-2,-3,12,15,19,18
3,11,8,-8,-3,9,-2,-3,11,14,18,18
3,11,8,-8,-3,9,-2,-3,10,13,17,17
3,11,8,-8,-3,9,-2,-3,10,12,16,17
3,10,8,-8,-3,9,-2,-3,9,11,16,16
3,10,8,-7,-3,9,-2,-3,9,10,15,16
3,10,8,-7,-3,9,-2,-3,8,9,14,16
3,10,8,-7,-3,8,-2,-3,7,8,13,15
3,9,7,-7,-3,8,-2,-3,7,7,12,15
2,8,6,-6,-2,7,-2,-3,6,6,12,14
2,7,6,-6,-2,7,-2,-4,5,5,11,14
1,7,6,-5,-3,6,-2,-4,4,4,10,13
1,6,6,-5,-3,6,-2,-4,3,3,9,13
1,6,6,-5,-3,6,-2,-4,3,2,9,12
1,6,6,-4,-3,6,-2,-4,2,1,8,12
0,6,5,-4,-3,6,-1,-4,2,0,8,11
0,5,5,-3,-3,5,-1,-4,1,0,7,11
0,5,5,-3,-3,5,-1,-4,1,-1,7,11
0,4,5,-2,-3,4,-1,-4,0,-1,6,10
0,4,4,-2,-3,4,-1,-5,0,-2,6,10
0,3,4,-2,-3,3,-1,-5,0,-3,5,10
-1,3,4,-1,-3,3,-1,-6,-1,-3,4,10
-1,3,4,-1,-3,3,-1,-6,-1,-4,4,10
-1,3,4,-1,-3,3,-1,-6,-1,-4,3,9
-1,2,4,-1,-3,3,-1,-6,-1,-5,3,9
-1,2,3,-1,-3,2,-1,-6,-1,-6,2,8
-1,2,3,-1,-3,2,-1,-6,-2,-6,2,8
-1,2,3,-1,-3,2,-1,-6,-2,-7,1,8
-1,2,4,-1,-3,2,-1,-6,-3,-7,1,8
-1,2,4,-1,-3,3,-1,-6,-3,-7,1,8
-1,2,4,-1,-2,3,-1,-6,-3,-7,0,8
-1,2,4,-1,-2,3,-1,-6,-3,-8,0,7
-1,3,4,-1,-3,3,-1,-6,-4,-8,0,7
-1,3,4,-2,-3,3,-1,-7,-4,-9,0,7
-1,3,4,-2,-3,3,-1,-7,-4,-9,-1,7
-1,3,4,-2,-3,3,-1,-7,-5,-10,-1,6
-1,3,4,-2,-3,3,-1,-7,-5,-10,-2,6
-1,3,4,-1,-3,3,-1,-7,-6,-11,-2,6
-1,3,4,-1,-3,3,-1,-7,-6,-11,-2,6
-1,3,5,-1,-3,3,-1,-7,-7,-12,-2,5
-1,3,5,-1,-3,3,-1,-7,-7,-12,-2,5
-1,3,5,-1,-3,3,-1,-7,-7,-13,-3,5
-1,3,5,-1,-4,3,-1,-7,-7,-13,-3,4
-1,4,5,-2,-4,4,-1,-8,-7,-13,-3,4
-1,4,5,-2,-4,4,-1,-8,-7,-13,-4,4
-2,4,6,-1,-4,5,-1,-8,-8,-14,-4,4
-2,4,6,-1,-4,5,-2,-8,-8,-14,-4,4
-2,4,7,-1,-4,5,-2,-8,-9,-15,-5,4
-2,4,7,-1,-4,5,-2,-8,-9,-15,-5,4
-2,4,6,-1,-4,5,-2,-8,-9,-15,-5,4
-1,5,6,-2,-4,5,-1,-8,-9,-15,-5,4
-1,5,6,-3,-4,6,-1,-8,-9,-15,-6,4
0,5,6,-3,-4,6,-1,-8,-9,-15,-6,4
0,5,6,-3,-4,6,-1,-8,-10,-16,-6,4
0,6,6,-3,-4,6,-1,-8,-10,-16,-6,4
0,6,6,-3,-4,6,-1,-8,-10,-16,-6,4
0,6,7,-3,-4,6,-1,-8,-10,-16,-6,4
-1,6,7,-3,-4,6,-2,-8,-10,-17,-6,4
-1,6,7,-2,-5,6,-2,-9,-11,-17,-6,3
-2,5,7,-2,-5,6,-2,-9,-11,-17,-6,3
-2,5,7,-2,-5,6,-2,-9,-11,-17,-6,3
-2,5,7,-2,-5,6,-2,-10,-11,-17,-6,3
-2,5,7,-2,-5,6,-2,-10,-11,-17,-6,3
-2,5,7,-2,-5,6,-2,-10,-11,-17,-7,3
-2,5,7,-2,-5,6,-2,-10,-12,-17,-7,3
-2,5,7,-2,-5,6,-3,-10,-12,-17,-7,3
-2,5,7,-2,-5,6,-3,-11,-12,-17,-7,3
-2,5,7,-2,-5,6,-3,-11,-12,-18,-7,3
-2,5,7,-2,-5,6,-3,-11,-12,-18,-8,3
-2,5,6,-2,-4,5,-3,-11,-12,-18,-8,3
-2,5,6,-2,-4,5,-4,-11,-12,-18,-8,3
-1,5,6,-2,-4,5,-4,-11,-12,-18,-8,3
-1,5,6,-2,-4,5,-4,-11,-13,-18,-8,2
0,5,6,-2,-4,5,-4,-11,-13,-18,-8,2
0,5,6,-2,-4,5,-5,-12,-13,-18,-8,2
0,5,6,-2,-4,5,-5,-12,-13,-18,-8,2
-1,5,7,-2,-4,5,-5,-13,-13,-18,-8,2
-1,5,7,-2,-4,6,-5,-13,-13,-18,-8,2
-1,5,7,-2,-4,6,-5,-13,-13,-18,-8,2
-1,5,7,-2,-4,6,-5,-13,-13,-17,-8,2
-1,5,7,-2,-4,6,-5,-13,-13,-17,-8,2
0,6,7,-3,-4,6,-6,-13,-12,-16,-7,2
0,6,7,-3,-4,6,-6,-13,-12,-16,-7,2
0,6,7,-3,-4,6,-6,-13,-12,-15,-7,2
0,6,7,-3,-3,6,-6,-13,-12,-15,-6,2
0,6,7,-3,-3,6,-6,-13,-12,-15,-6,2
0,6,7,-3,-3,6,-6,-13,-12,-15,-6,3
0,6,7,-3,-3,6,-6,-13,-12,-15,-6,3
0,6,7,-3,-3,6,-6,-13,-12,-15,-6,3
0,6,6,-3,-3,6,-6,-13,-12,-15,-6,3
0,6,6,-3,-3,5,-6,-13,-11,-14,-6,3
0,6,5,-3,-2,5,-6,-13,-11,-14,-5,3
1,6,5,-3,-2,5,-6,-13,-11,-14,-5,3
1,6,5,-3,-2,5,-6,-13,-11,-14,-5,3
1,6,5,-3,-3,5,-6,-13,-11,-14,-5,3
1,6,5,-3,-3,5,-7,-13,-11,-14,-5,3
0,5,5,-3,-2,5,-7,-13,-11,-14,-5,3
0,4,5,-3,-2,4,-7,-13,-11,-14,-5,3
0,4,4,-2,-2,4,-7,-13,-11,-14,-5,3
0,3,4,-2,-2,3,-7,-14,-11,-14,-4,3
0,4,4,-2,-2,3,-7,-14,-11,-14,-4,3
0,4,4,-2,-2,3,-7,-14,-11,-14,-4,3
0,4,3,-2,-2,3,-7,-14,-11,-14,-4,3
0,4,3,-2,-2,2,-7,-14,-11,-14,-4,3
0,4,3,-2,-1,3,-7,-13,-11,-14,-3,3
1,4,3,-2,-1,3,-7,-13,-11,-13,-3,3
1,5,4,-3,-1,4,-8,-13,-11,-13,-3,3
1,5,4,-3,-2,5,-8,-13,-11,-13,-3,3
1,4,4,-3,-2,4,-8,-14,-11,-13,-3,3
1,4,4,-3,-2,4,-8,-14,-11,-13,-3,3
1,4,4,-3,-2,4,-8,-14,-10,-13,-3,4
1,4,3,-3,-2,4,-8,-13,-10,-13,-2,4
1,4,3,-3,-2,4,-8,-13,-10,-13,-2,4
1,4,3,-3,-2,4,-8,-13,-10,-13,-2,4
1,4,3,-3,-1,4,-8,-13,-10,-13,-2,4
1,4,3,-3,-1,4,-8,-13,-10,-13,-2,4
1,5,3,-3,-1,4,-8,-13,-10,-13,-2,4
1,5,4,-3,-1,4,-8,-13,-10,-13,-2,4
1,6,4,-4,-1,5,-8,-13,-9,-13,-2,4
1,6,4,-4,-1,5,-8,-13,-9,-13,-1,4
1,7,4,-4,-1,6,-8,-12,-9,-12,-1,5
2,7,4,-5,-1,6,-8,-12,-8,-12,-1,5
2,8,5,-5,-1,7,-8,-12,-8,-11,-1,5
3,8,5,-6,-1,7,-8,-11,-8,-11,-1,5
3,9,6,-6,-2,8,-8,-11,-7,-10,0,5
3,10,7,-7,-2,9,-8,-11,-7,-10,0,5
3,11,8,-7,-2,9,-8,-11,-7,-10,0,5
2,11,8,-7,-3,10,-8,-11,-6,-10,0,5
2,12,9,-7,-3,10,-7,-11,-6,-9,0,5
3,12,9,-8,-3,10,-7,-11,-6,-9,1,6
4,12,8,-8,-3,10,-7,-11,-6,-9,1,6
4,13,8,-9,-2,10,-7,-11,-6,-9,1,6
5,14,9,-9,-2,11,-7,-11,-6,-9,1,6
5,14,9,-9,-2,11,-8,-11,-6,-9,1,6
5,15,9,-9,-2,12,-8,-11,-5,-9,1,6
5,15,9,-9,-2,12,-8,-11,-5,-9,1,6
5,15,9,-10,-2,12,-9,-11,-5,-9,1,6
5,15,9,-10,-2,12,-9,-11,-6,-9,1,6
5,15,9,-10,-2,12,-10,-12,-6,-9,1,6
5,15,9,-10,-3,12,-10,-13,-6,-9,1,6
5,16,10,-10,-3,13,-10,-13,-6,-9,1,6
5,16,11,-10,-3,14,-10,-14,-6,-9,1,6
5,16,11,-10,-3,14,-10,-14,-6,-9,1,6
5,16,11,-10,-3,13,-11,-14,-6,-9,1,6
6,16,10,-10,-2,13,-12,-15,-6,-8,2,7
6,16,10,-11,-2,13,-13,-15,-6,-8,2,7
6,16,10,-11,-2,13,-13,-15,-6,-8,3,8
6,16,10,-11,-2,12,-14,-15,-6,-7,3,8
6,16,10,-11,-2,12,-14,-14,-6,-7,3,9
7,15,9,-11,-1,12,-14,-14,-5,-7,4,9
7,15,8,-10,-1,12,-13,-14,-5,-7,4,9
8,14,7,-10,0,11,-13,-14,-5,-7,4,9
8,14,6,-10,1,10,-13,-13,-5,-7,4,10
8,13,5,-10,1,9,-13,-13,-5,-7,4,10
7,12,4,-9,1,8,-13,-13,-5,-7,4,10
7,11,4,-9,1,8,-13,-13,-5,-7,4,10
7,10,3,-8,1,7,-12,-13,-5,-7,4,10
7,9,2,-8,2,6,-12,-13,-5,-7,4,10
7,8,2,-7,2,6,-11,-13,-5,-7,4,10
7,8,1,-7,2,5,-10,-13,-5,-7,4,10
7,8,1,-7,2,5,-10,-13,-6,-7,4,9
6,7,1,-6,2,5,-10,-13,-6,-8,3,9
6,6,1,-6,2,4,-9,-13,-7,-8,3,8
6,5,0,-5,3,3,-9,-13,-7,-9,3,8
6,4,-1,-5,3,2,-9,-13,-7,-10,2,7
6,4,-1,-5,3,1,-9,-13,-8,-11,2,7
6,3,-2,-4,3,1,-9,-14,-8,-11,1,6
5,3,-2,-4,3,1,-9,-14,-8,-12,0,6
5,3,-2,-3,3,1,-8,-14,-8,-12,0,5
5,4,-2,-4,3,1,-8,-13,-8,-12,0,5
6,4,-2,-4,3,1,-7,-13,-8,-12,0,6
6,3,-2,-4,3,1,-7,-13,-8,-12,0,6
6,3,-2,-4,3,1,-7,-13,-8,-12,0,5
6,3,-2,-4,3,1,-7,-12,-8,-12,0,5
6,3,-2,-4,3,1,-6,-12,-8,-12,0,6
6,3,-2,-4,4,0,-6,-11,-8,-12,0,6
6,3,-3,-4,4,0,-6,-11,-8,-12,0,5
6,3,-3,-4,4,0,-6,-11,-8,-12,0,5
6,3,-3,-4,4,0,-6,-10,-8,-12,0,5
6,3,-3,-4,4,0,-6,-10,-8,-12,0,5
6,3,-3,-4,4,0,-6,-10,-8,-12,0,5
6,3,-3,-4,4,0,-6,-10,-8,-12,0,5
6,3,-2,-4,4,0,-6,-10,-8,-12,0,5
6,4,-2,-4,4,1,-6,-10,-8,-12,0,5
6,4,-2,-4,4,1,-5,-10,-7,-12,0,5
6,3,-2,-4,4,1,-5,-9,-7,-12,0,5
6,3,-2,-4,3,1,-5,-9,-7,-12,0,5
6,3,-2,-4,3,0,-5,-9,-7,-12,0,5
6,3,-2,-4,3,0,-5,-9,-7,-12,0,5
5,2,-2,-3,3,0,-5,-9,-7,-12,0,5
5,1,-3,-3,3,-1,-5,-9,-7,-12,0,5
5,1,-3,-3,3,-1,-4,-9,-7,-12,0,5
5,1,-2,-3,3,0,-4,-9,-8,-13,0,5
4,2,-2,-3,3,0,-4,-9,-8,-13,-1,5
4,2,-1,-3,2,0,-4,-9,-9,-14,-1,4
4,3,0,-3,2,2,-4,-9,-10,-15,-2,3
4,5,2,-4,1,3,-4,-10,-11,-16,-2,3
3,7,4,-5,0,5,-4,-11,-12,-17,-3,2
3,9,6,-6,-1,7,-4,-13,-14,-18,-3,2
3,11,9,-7,-2,10,-5,-16,-17,-19,-3,2
3,13,10,-8,-3,12,-7,-18,-19,-19,-2,2
3,15,12,-9,-4,13,-8,-21,-22,-20,-2,3
4,17,14,-10,-4,15,-9,-23,-25,-21,-1,4
4,19,15,-12,-4,17,-10,-25,-28,-23,0,5
5,20,15,-13,-4,18,-11,-25,-30,-25,1,7
7,20,13,-14,-3,17,-11,-24,-32,-27,3,10
9,20,12,-15,-1,16,-10,-21,-30,-26,7,14
11,20,10,-15,0,16,-7,-15,-26,-24,11,17
13,20,8,-16,2,14,-3,-6,-17,-19,15,21
15,18,4,-16,5,11,2,6,-5,-11,21,26
17,15,-1,-16,9,7,7,17,8,0,29,33
20,11,-9,-15,15,1,11,24,18,13,41,41
24,6,-18,-15,21,-6,11,25,24,26,53,51
28,3,-24,-15,26,-10,8,22,30,40,67,61
32,2,-29,-16,29,-13,3,16,35,58,83,73
35,2,-32,-17,33,-15,-5,7,40,77,101,85
38,0,-36,-18,37,-18,-16,-4,43,95,116,96
40,-4,-43,-17,41,-23,-26,-13,47,111,126,101
40,-10,-48,-14,44,-29,-32,-16,56,126,128,100
38,-15,-52,-11,45,-33,-34,-13,68,140,125,94
35,-19,-54,-8,44,-37,-33,-9,76,148,117,85
32,-23,-55,-4,44,-39,-32,-7,79,149,106,75
29,-27,-55,-1,42,-41,-30,-7,77,145,94,65
26,-29,-54,2,39,-41,-27,-7,70,135,82,55
22,-31,-52,5,36,-41,-23,-7,60,118,67,44
18,-32,-49,7,33,-41,-20,-8,48,97,52,33
15,-31,-46,8,30,-39,-18,-9,34,73,37,24
13,-29,-41,8,27,-35,-16,-10,22,49,25,17
12,-25,-37,6,24,-30,-14,-9,12,30,17,13
11,-22,-33,5,22,-27,-12,-8,6,15,12,10
11,-20,-30,5,20,-25,-9,-7,2,6,8,9
10,-19,-28,4,19,-23,-7,-5,0,0,6,8
10,-16,-25,4,17,-21,-5,-3,1,-1,6,8
10,-13,-22,2,16,-18,-3,-2,2,-1,6,8
10,-11,-19,1,14,-15,-1,-1,3,-1,6,9
10,-7,-16,-1,13,-12,-1,-1,4,0,6,9
11,-4,-15,-3,13,-10,0,-2,4,0,7,10
11,-3,-14,-4,12,-8,0,-2,5,0,8,11
11,-2,-13,-4,12,-7,0,-3,5,0,8,11
11,-1,-13,-5,11,-7,0,-4,5,0,9,11
11,-1,-12,-5,11,-6,-1,-5,4,0,8,11
11,0,-11,-5,10,-6,-1,-6,3,-1,8,11
11,0,-11,-5,10,-6,-2,-7,3,-2,7,11
11,0,-10,-5,10,-6,-2,-7,2,-2,6,11
11,0,-10,-5,10,-5,-2,-8,2,-3,6,11
11,0,-10,-5,10,-5,-2,-8,2,-3,6,11
11,0,-10,-5,10,-4,-2,-8,2,-3,6,11
12,1,-9,-5,10,-3,-2,-9,2,-3,7,11
12,2,-9,-6,10,-3,-2,-9,2,-3,7,11
12,2,-9,-6,10,-3,-2,-9,2,-4,6,11
12,1,-9,-6,10,-4,-2,-10,2,-5,6,10
11,0,-10,-5,10,-5,-2,-10,2,-5,5,10
11,0,-10,-5,10,-5,-3,-10,2,-5,5,10
11,0,-11,-5,10,-5,-3,-10,2,-5,5,10
11,0,-11,-5,10,-5,-3,-10,2,-5,6,10
11,0,-11,-5,10,-5,-3,-10,2,-4,6,11
11,0,-11,-5,10,-5,-3,-10,2,-4,7,11
12,0,-11,-5,10,-5,-3,-10,2,-4,7,12
12,0,-11,-5,10,-5,-3,-10,2,-4,7,12
12,0,-10,-6,10,-5,-3,-10,2,-4,7,12
13,1,-10,-6,11,-5,-3,-10,2,-4,7,12
14,2,-11,-7,11,-5,-4,-11,2,-4,7,12
14,2,-11,-8,12,-4,-4,-11,2,-4,7,12
15,3,-11,-8,12,-4,-5,-11,2,-4,7,11
15,3,-11,-9,12,-4,-5,-11,2,-4,7,11
15,3,-11,-9,12,-4,-5,-11,2,-4,7,11
15,2,-12,-8,12,-5,-5,-11,2,-4,7,12
16,2,-12,-8,13,-5,-5,-11,3,-4,7,12
16,2,-12,-8,13,-5,-5,-11,3,-4,8,12
16,2,-12,-9,13,-5,-5,-11,3,-4,8,12
16,2,-12,-9,13,-5,-5,-11,4,-4,8,12
16,2,-12,-9,13,-5,-5,-11,4,-4,8,12
16,2,-13,-9,13,-5,-5,-11,4,-4,8,12
16,2,-13,-9,13,-5,-6,-12,4,-4,8,12
16,2,-13,-9,13,-5,-6,-12,4,-4,8,12
16,2,-13,-9,13,-5,-6,-12,4,-4,8,12
16,3,-12,-9,13,-5,-6,-12,4,-4,8,12
16,3,-12,-9,13,-5,-6,-12,4,-4,8,12
16,3,-13,-9,13,-5,-6,-12,4,-3,8,13
16,3,-13,-9,13,-5,-6,-12,5,-3,8,13
16,3,-13,-9,13,-5,-6,-11,5,-2,9,13
16,2,-13,-8,13,-6,-7,-11,5,-2,9,13
16,1,-14,-8,13,-6,-7,-11,5,-2,9,13
16,0,-14,-8,14,-6,-7,-11,5,-2,9,14
16,0,-14,-8,14,-6,-7,-11,5,-2,10,14
15,0,-14,-8,14,-6,-7,-11,5,-2,10,14
15,0,-14,-7,14,-6,-7,-11,5,-2,10,14
15,0,-15,-7,14,-7,-7,-11,6,-1,10,14
16,0,-15,-8,14,-7,-7,-10,6,-1,11,14
17,0,-15,-8,15,-7,-7,-10,7,0,11,14
17,1,-15,-9,15,-7,-7,-10,7,0,11,15
17,1,-15,-9,14,-7,-7,-10,7,0,12,15
17,1,-14,-9,15,-7,-8,-10,7,0,12,16
17,1,-15,-9,15,-7,-8,-10,7,0,12,16
17,1,-15,-9,15,-6,-9,-10,7,0,13,16
16,2,-14,-9,15,-5,-9,-10,7,1,13,16
16,2,-13,-9,14,-5,-9,-10,8,1,13,16
16,2,-13,-9,14,-5,-9,-10,8,1,13,16
16,2,-13,-9,14,-5,-9,-10,8,2,13,16
16,2,-13,-9,13,-5,-9,-9,8,2,14,17
16,2,-13,-9,13,-5,-9,-9,9,3,14,17
16,1,-13,-8,14,-5,-9,-9,10,3,15,18
16,1,-14,-8,14,-5,-10,-9,10,4,16,18
16,1,-14,-8,14,-5,-10,-9,10,4,16,18
16,1,-14,-8,14,-6,-10,-9,10,5,17,19
16,1,-14,-8,14,-6,-10,-9,11,6,17,20
16,0,-14,-8,14,-6,-11,-9,11,7,18,20
16,1,-14,-9,14,-6,-11,-9,12,8,18,21
16,2,-13,-9,14,-5,-11,-9,13,9,19,21
16,2,-13,-9,14,-4,-11,-9,13,10,20,22
16,3,-12,-9,14,-4,-12,-9,14,11,21,22
16,3,-12,-9,14,-4,-12,-9,14,12,21,23
16,4,-12,-10,14,-4,-12,-9,15,13,22,23
16,4,-12,-10,14,-3,-12,-9,15,14,23,24
16,4,-12,-10,14,-3,-12,-9,16,14,24,24
16,3,-12,-10,14,-4,-13,-9,16,15,25,25
17,4,-12,-10,14,-3,-13,-9,17,16,25,25
17,4,-11,-11,14,-2,-14,-9,18,17,26,25
17,5,-11,-11,13,-2,-14,-9,18,18,27,26
17,5,-10,-11,13,-1,-15,-9,18,19,27,27
17,6,-10,-12,13,-1,-15,-9,19,20,28,27
17,6,-10,-12,13,-2,-16,-9,20,22,29,28
17,6,-10,-12,13,-2,-16,-9,20,23,30,29
17,6,-10,-12,13,-1,-17,-9,21,25,31,29
17,6,-10,-12,13,-1,-17,-9,22,26,32,30
17,6,-10,-12,13,-1,-18,-9,22,27,33,30
17,6,-10,-12,13,-1,-18,-9,23,29,34,31
17,6,-10,-12,13,-1,-18,-9,23,30,35,31
17,7,-9,-12,12,0,-19,-10,24,31,35,32
17,8,-8,-13,12,0,-19,-10,24,32,36,32
17,9,-7,-14,11,1,-20,-10,25,33,37,33
17,10,-6,-14,11,2,-20,-10,25,34,38,34
17,10,-6,-14,11,2,-21,-10,26,35,39,34
17,10,-6,-14,11,2,-21,-10,26,37,40,35
17,10,-6,-15,11,2,-21,-10,27,38,41,35
17,11,-6,-15,11,3,-21,-10,27,39,42,36
18,11,-6,-16,11,3,-22,-10,28,41,43,37
18,12,-5,-16,11,3,-22,-10,28,42,44,37
18,12,-5,-16,11,4,-22,-10,29,43,45,38
18,13,-4,-16,10,4,-23,-10,29,44,46,38
18,13,-3,-16,10,5,-23,-10,30,45,46,38
18,14,-3,-16,9,6,-24,-10,30,45,47,38
18,15,-2,-17,9,6,-24,-10,31,46,47,39
17,15,-2,-17,9,7,-24,-10,31,47,48,39
17,16,-1,-17,9,7,-24,-10,32,48,48,40
17,16,-1,-17,9,7,-24,-11,32,48,49,40
17,16,0,-17,8,8,-25,-11,32,49,49,40
17,17,0,-17,8,9,-25,-11,32,49,49,40
17,18,0,-18,8,10,-25,-11,32,49,49,40
17,19,1,-19,8,10,-25,-11,32,49,49,40
17,19,2,-19,7,11,-25,-11,32,50,49,40
17,19,2,-19,7,11,-25,-11,32,50,49,40
16,19,3,-18,6,11,-25,-11,31,50,49,40
16,19,3,-18,6,11,-25,-11,31,50,49,39
16,20,4,-18,6,12,-25,-11,31,50,49,39
16,20,5,-19,5,13,-25,-11,31,50,48,39
16,20,5,-19,5,13,-25,-11,31,49,48,39
16,20,5,-18,5,13,-25,-11,31,49,48,39
16,20,5,-18,5,13,-25,-10,31,49,48,38
15,20,5,-18,4,13,-24,-10,31,49,47,38
15,20,6,-18,3,14,-24,-9,31,48,47,37
15,21,6,-18,3,14,-23,-9,31,48,47,37
15,21,7,-18,3,14,-23,-8,31,47,47,37
14,21,7,-18,3,14,-22,-8,30,46,46,37
14,21,7,-18,3,14,-22,-7,30,45,45,36
13,21,8,-18,2,15,-21,-7,29,44,44,36
13,21,8,-18,2,15,-21,-6,29,43,43,34
12,22,9,-18,1,16,-20,-6,28,42,41,33
12,22,10,-18,0,16,-20,-5,28,41,40,32
12,22,10,-17,0,16,-19,-4,27,40,40,31
12,22,10,-17,0,16,-18,-3,27,40,39,31
11,21,10,-17,0,16,-18,-3,27,39,39,30
11,21,10,-16,0,16,-17,-2,27,37,38,30
10,21,11,-16,-1,16,-16,-2,26,36,38,30
10,21,11,-15,-1,16,-15,-1,26,35,37,29
10,21,11,-15,-1,16,-15,0,26,34,35,28
10,21,11,-15,-1,16,-15,0,25,33,34,27
10,20,11,-15,-1,16,-14,0,25,32,33,26
9,20,11,-14,-2,16,-13,1,24,30,32,26
9,20,11,-14,-2,16,-12,1,23,29,32,25
9,20,11,-14,-2,16,-11,2,23,28,31,25
8,19,11,-14,-2,15,-10,2,22,26,30,24
8,19,11,-14,-2,15,-10,3,22,25,28,23
8,19,11,-13,-2,15,-9,3,21,24,27,22
8,18,11,-13,-2,15,-9,4,21,23,25,21
8,18,10,-12,-2,14,-9,4,20,22,24,21
7,18,10,-12,-2,14,-8,4,19,21,23,20
7,18,11,-12,-2,15,-8,4,18,19,22,20
6,17,11,-12,-3,15,-7,4,17,18,21,19
5,16,11,-11,-3,14,-7,4,17,16,20,18
5,16,11,-11,-3,14,-6,5,16,15,19,17
5,15,11,-10,-3,13,-6,5,16,14,17,16
4,15,11,-10,-4,13,-5,5,15,13,16,15
4,14,11,-9,-4,13,-5,5,15,12,15,15
4,14,11,-9,-4,13,-5,6,14,11,15,14
4,14,10,-9,-3,13,-5,6,13,10,14,14
4,14,10,-9,-3,12,-5,6,12,8,13,13
4,14,10,-9,-3,12,-5,6,11,7,12,13
4,13,9,-9,-3,11,-5,6,11,6,11,12
4,13,9,-9,-3,11,-5,6,10,5,10,12
4,13,9,-9,-3,11,-5,6,10,4,9,11
4,13,9,-9,-3,11,-5,6,9,4,8,11
4,12,9,-8,-3,11,-5,6,9,3,7,10
4,12,8,-8,-2,10,-5,6,8,2,7,10
4,11,7,-8,-2,10,-4,6,7,1,6,10
4,11,7,-8,-2,9,-4,5,7,0,6,10
4,11,7,-8,-2,9,-4,5,6,0,5,10
4,11,6,-8,-2,9,-4,5,6,-1,4,10
4,10,6,-7,-2,9,-4,5,5,-1,3,9
4,10,6,-7,-2,9,-4,5,5,-2,2,9
4,9,6,-6,-2,9,-4,4,4,-2,2,8
4,9,6,-6,-2,9,-5,4,4,-3,2,8
4,9,6,-6,-2,8,-5,4,3,-4,1,8
3,9,6,-6,-2,8,-5,4,3,-5,1,7
3,10,7,-6,-2,8,-6,3,2,-5,0,7
3,11,7,-7,-2,9,-6,3,2,-6,0,6
4,11,7,-7,-2,9,-6,3,2,-6,0,6
4,11,7,-7,-2,9,-6,3,1,-7,-1,6
4,11,7,-8,-2,9,-6,3,1,-7,-2,5
4,11,7,-8,-2,9,-6,3,0,-8,-2,5
4,11,8,-8,-2,9,-6,2,0,-8,-3,5
4,11,8,-8,-2,9,-6,2,0,-9,-3,5
4,11,8,-8,-2,10,-7,2,0,-9,-4,5
3,11,8,-7,-2,10,-7,2,-1,-10,-4,5
3,11,7,-7,-2,10,-7,2,-1,-10,-5,4
3,10,7,-7,-2,10,-7,2,-2,-11,-5,4
3,10,7,-7,-2,10,-7,2,-2,-11,-6,4
3,10,7,-7,-2,9,-7,2,-2,-11,-6,4
3,10,7,-6,-2,9,-7,2,-2,-12,-6,4
3,10,7,-6,-2,9,-7,2,-2,-12,-6,4
3,10,7,-6,-2,9,-7,2,-2,-12,-6,4
3,10,7,-7,-2,9,-7,2,-2,-13,-7,4
3,11,7,-8,-2,9,-7,2,-2,-13,-7,4
3,12,8,-8,-2,10,-7,2,-3,-13,-7,4
3,12,8,-8,-2,10,-7,2,-3,-13,-8,4
3,12,8,-8,-2,10,-7,2,-4,-13,-8,3
3,12,8,-8,-2,10,-7,2,-4,-13,-8,3
4,12,8,-8,-2,11,-7,1,-4,-14,-8,3
4,12,8,-8,-2,11,-7,1,-4,-14,-8,3
4,13,9,-9,-2,11,-7,0,-4,-14,-8,3
4,14,10,-9,-2,12,-7,0,-4,-14,-9,3
4,13,9,-9,-2,11,-7,0,-5,-15,-9,3
4,13,9,-9,-2,11,-7,0,-5,-15,-10,2
4,13,10,-9,-3,12,-7,0,-6,-16,-10,2
4,14,10,-9,-3,12,-7,0,-6,-16,-11,2
4,14,10,-9,-3,12,-7,0,-6,-16,-11,2
4,14,10,-9,-3,12,-6,0,-6,-16,-11,2
4,14,10,-9,-3,12,-6,0,-6,-16,-11,2
4,14,10,-9,-3,12,-6,0,-6,-16,-11,2
4,14,10,-9,-3,12,-6,0,-6,-16,-11,2
4,14,10,-9,-3,12,-6,0,-6,-16,-11,2
4,13,10,-9,-3,12,-5,0,-6,-16,-11,2
4,13,9,-9,-2,12,-5,0,-7,-16,-11,2
4,13,9,-9,-2,12,-5,0,-7,-15,-11,3
4,13,9,-9,-2,12,-6,-1,-7,-15,-11,3
4,13,9,-9,-2,12,-6,-1,-7,-15,-11,3
5,13,9,-9,-2,11,-6,-2,-7,-15,-11,3
5,13,9,-9,-2,11,-6,-2,-8,-15,-11,3
5,13,9,-9,-2,11,-6,-2,-8,-15,-11,3
5,13,9,-9,-2,11,-7,-2,-8,-15,-11,3
5,14,9,-9,-2,12,-7,-2,-8,-15,-11,3
5,14,9,-9,-2,12,-7,-2,-8,-15,-11,3
5,14,9,-9,-2,11,-7,-2,-8,-15,-11,3
5,13,8,-9,-1,11,-7,-2,-8,-15,-11,3
5,13,8,-9,-1,11,-7,-2,-8,-15,-11,3
5,13,8,-9,-1,11,-7,-2,-8,-15,-11,3
5,12,8,-9,-1,10,-7,-2,-8,-15,-11,3
5,12,8,-8,-1,10,-7,-2,-8,-15,-11,4
5,12,7,-8,-1,10,-8,-2,-8,-14,-10,4
5,12,7,-9,-1,10,-8,-2,-8,-14,-10,5
5,13,7,-9,-1,10,-8,-2,-8,-14,-10,5
6,13,7,-9,-1,10,-8,-2,-8,-14,-10,5
6,14,7,-9,-1,10,-8,-2,-8,-14,-10,5
6,14,8,-9,-1,10,-8,-2,-8,-13,-10,5
5,14,8,-9,-1,11,-9,-2,-8,-13,-10,5
5,14,9,-9,-1,11,-9,-2,-8,-13,-10,5
5,14,9,-10,-1,12,-9,-2,-8,-13,-10,5
5,14,9,-10,-1,12,-9,-2,-8,-13,-10,5
5,15,9,-10,-1,12,-9,-2,-8,-13,-10,5
5,15,9,-10,-1,12,-9,-2,-9,-14,-11,5
5,15,9,-10,-1,12,-10,-2,-9,-14,-11,5
6,15,9,-10,-1,11,-10,-2,-9,-14,-11,5
6,14,8,-10,-1,11,-10,-2,-9,-14,-11,5
6,13,8,-10,-1,10,-10,-2,-9,-14,-11,5
6,12,7,-9,0,9,-11,-2,-9,-14,-11,5
6,11,6,-8,0,9,-11,-3,-9,-14,-11,5
5,11,6,-8,0,9,-11,-3,-9,-14,-11,5
5,11,6,-8,0,9,-11,-3,-9,-14,-11,5
5,11,6,-8,0,9,-12,-3,-9,-14,-11,5
5,11,6,-8,0,8,-12,-3,-9,-14,-11,5
5,10,6,-7,0,8,-13,-3,-9,-14,-11,5
5,10,6,-7,0,8,-13,-3,-9,-13,-11,5
4,10,6,-7,0,8,-13,-3,-9,-13,-11,5
4,10,6,-7,0,8,-13,-3,-9,-13,-11,5
4,9,6,-7,0,7,-14,-3,-9,-13,-11,6
5,9,6,-7,0,7,-14,-3,-9,-13,-11,6
5,9,6,-7,0,7,-14,-3,-9,-13,-11,6
5,9,6,-7,-1,7,-14,-3,-9,-13,-11,6
5,9,6,-7,-1,8,-14,-3,-9,-13,-11,6
5,10,6,-8,-1,8,-14,-3,-9,-13,-11,6
5,10,6,-8,0,8,-14,-3,-9,-13,-11,6
5,10,6,-7,0,7,-14,-3,-9,-13,-11,6
5,9,6,-7,0,7,-15,-4,-9,-13,-11,6
5,9,6,-7,0,7,-15,-4,-9,-13,-12,6
5,9,6,-7,0,7,-15,-4,-9,-13,-13,6
5,9,6,-7,0,7,-15,-4,-9,-13,-13,6
5,9,6,-7,0,7,-16,-4,-9,-13,-13,6
5,9,5,-7,0,7,-16,-4,-9,-13,-13,5
5,9,5,-7,0,7,-16,-5,-9,-13,-13,5
4,9,6,-6,-1,7,-16,-5,-9,-13,-13,5
4,9,6,-6,-1,8,-16,-5,-9,-13,-13,5
4,9,6,-6,-1,7,-16,-5,-9,-13,-14,5
4,8,6,-6,-1,7,-16,-5,-9,-13,-14,5
4,7,5,-5,-1,6,-16,-5,-9,-13,-14,5
4,6,4,-5,-1,5,-16,-5,-9,-13,-13,5
4,6,4,-5,0,5,-15,-5,-9,-13,-13,5
4,6,3,-5,0,5,-15,-5,-9,-13,-13,5
4,6,3,-5,0,5,-15,-5,-9,-13,-13,5
4,7,4,-5,-1,5,-15,-5,-9,-13,-13,5
4,7,5,-5,-1,6,-15,-5,-9,-13,-14,5
4,7,5,-5,-1,6,-15,-5,-9,-13,-14,5
4,7,5,-5,-1,6,-15,-5,-9,-13,-14,5
3,7,5,-4,-1,6,-15,-4,-9,-13,-14,5
3,6,4,-4,-1,5,-14,-4,-9,-13,-13,5
3,5,4,-3,-1,5,-14,-3,-9,-13,-13,5
3,5,4,-3,-1,5,-13,-3,-9,-13,-13,5
3,4,4,-3,-1,4,-13,-3,-9,-13,-13,5
2,4,4,-3,-1,4,-13,-3,-9,-13,-13,5
2,4,4,-3,-1,3,-13,-3,-9,-13,-14,5
2,4,3,-3,-1,3,-13,-2,-9,-13,-14,5
2,4,3,-3,-1,4,-13,-2,-9,-13,-14,5
2,5,3,-3,-1,4,-12,-2,-9,-13,-14,5
2,5,3,-4,-1,5,-12,-1,-9,-13,-14,5
3,6,4,-4,-1,5,-11,-1,-9,-13,-14,5
3,6,4,-4,-1,5,-11,0,-9,-13,-13,5
3,5,4,-4,-1,5,-10,0,-9,-13,-13,4
3,5,4,-4,-1,4,-10,0,-9,-13,-13,4
3,5,4,-4,-1,4,-10,0,-9,-13,-13,4
3,5,4,-4,-1,4,-10,0,-9,-13,-13,4
3,5,4,-4,-1,4,-10,0,-9,-13,-13,4
3,5,4,-3,-1,4,-10,0,-9,-13,-14,3
2,5,4,-3,-1,4,-9,0,-10,-13,-14,3
2,5,4,-3,-1,4,-9,1,-10,-14,-15,2
2,5,4,-3,-1,4,-8,1,-10,-14,-15,2
2,5,4,-3,-1,4,-8,1,-10,-14,-15,2
2,5,3,-4,-1,4,-8,1,-10,-13,-15,2
2,5,3,-4,0,4,-8,1,-10,-13,-15,3
2,5,3,-4,0,4,-8,1,-10,-13,-15,3
2,5,3,-4,0,4,-7,1,-10,-13,-15,2
2,4,2,-3,0,4,-7,1,-10,-13,-15,2
2,4,2,-3,0,4,-7,1,-10,-14,-15,2
2,4,3,-3,-1,4,-7,1,-10,-14,-15,2
2,4,3,-3,-1,4,-7,1,-10,-14,-15,1
2,4,3,-3,-1,4,-7,1,-10,-14,-16,1
2,5,3,-3,-1,5,-7,1,-10,-14,-15,1
2,5,4,-3,-1,5,-6,1,-10,-14,-15,1
1,6,5,-3,-2,6,-6,1,-10,-14,-15,0
2,7,6,-4,-3,6,-6,1,-10,-14,-15,0
2,8,6,-4,-3,7,-6,1,-10,-14,-15,0
2,8,6,-4,-2,7,-6,1,-10,-14,-15,0
2,8,6,-4,-2,7,-6,1,-10,-14,-15,0
2,8,7,-5,-2,7,-6,1,-10,-14,-15,0
2,8,7,-5,-2,7,-6,1,-9,-13,-15,1
2,9,7,-6,-2,8,-5,2,-9,-13,-14,1
3,9,7,-6,-2,8,-5,2,-8,-12,-14,2
3,9,6,-6,-2,8,-5,2,-8,-11,-13,2
3,9,6,-6,-2,8,-5,2,-8,-11,-13,3
3,10,7,-7,-2,9,-5,2,-8,-11,-13,2
3,11,8,-7,-3,9,-5,2,-8,-11,-14,2
3,11,8,-6,-3,10,-5,2,-8,-12,-14,2
3,12,9,-7,-3,11,-6,2,-8,-12,-15,1
3,13,10,-8,-4,12,-7,1,-8,-13,-15,1
2,14,11,-8,-4,13,-7,1,-9,-13,-16,0
2,14,12,-8,-5,13,-8,0,-9,-13,-16,0
2,13,11,-8,-5,12,-8,0,-9,-13,-16,0
3,12,10,-8,-4,11,-8,0,-9,-13,-16,0
3,11,9,-7,-4,11,-8,0,-9,-13,-16,0
3,12,10,-7,-4,11,-8,0,-9,-13,-16,0
3,12,10,-7,-4,12,-9,-1,-9,-13,-16,0
3,13,10,-7,-4,12,-9,-2,-10,-13,-16,1
3,14,11,-8,-4,13,-10,-2,-10,-13,-15,1
3,15,12,-9,-4,14,-11,-3,-10,-12,-15,1
4,16,12,-9,-4,15,-12,-3,-10,-12,-14,2
4,18,13,-10,-5,16,-12,-3,-10,-11,-14,2
5,19,14,-11,-5,17,-12,-3,-10,-11,-13,2
5,19,14,-12,-5,17,-12,-3,-9,-10,-13,2
5,19,13,-12,-5,16,-12,-4,-9,-10,-12,2
6,17,11,-12,-4,14,-13,-4,-9,-10,-12,2
5,15,10,-11,-3,13,-13,-4,-9,-10,-13,2
5,13,8,-9,-2,11,-14,-4,-9,-10,-13,2
4,12,7,-8,-1,9,-14,-4,-9,-10,-13,2
4,11,6,-8,-1,8,-14,-4,-10,-11,-14,2
4,10,6,-7,0,7,-13,-4,-10,-11,-14,2
4,9,5,-6,0,7,-13,-4,-10,-11,-15,1
4,8,5,-5,0,6,-12,-4,-10,-11,-15,1
4,8,5,-5,0,6,-12,-4,-10,-12,-15,1
4,7,4,-5,0,5,-11,-4,-10,-12,-15,1
4,7,4,-5,0,5,-11,-3,-10,-12,-16,1
4,6,3,-5,0,5,-11,-3,-10,-12,-16,0
4,6,3,-5,0,5,-11,-3,-10,-13,-16,0
4,7,3,-5,0,5,-11,-3,-10,-13,-17,0
3,7,4,-5,0,6,-11,-4,-11,-14,-17,-1
2,6,4,-4,0,5,-11,-4,-11,-15,-18,-3
1,4,3,-3,0,4,-11,-4,-12,-15,-19,-4
1,3,2,-2,0,3,-11,-4,-12,-16,-19,-4
1,2,1,-2,0,2,-10,-5,-12,-16,-19,-4
1,1,1,-1,0,2,-10,-5,-13,-16,-20,-4
1,1,1,-1,-1,1,-10,-5,-13,-16,-20,-4
0,1,1,0,-1,1,-10,-5,-13,-16,-20,-5
0,1,1,0,0,1,-10,-5,-13,-16,-20,-5
0,1,1,0,0,1,-10,-4,-13,-16,-20,-5
0,0,1,0,0,1,-9,-4,-12,-16,-19,-4
0,0,1,0,0,1,-9,-4,-12,-16,-19,-4
1,1,1,-1,0,1,-8,-4,-12,-16,-19,-5
1,2,1,-1,0,1,-8,-3,-12,-16,-19,-5
1,2,1,-1,0,1,-8,-3,-12,-16,-19,-5
1,2,1,-1,0,1,-8,-3,-12,-16,-20,-6
1,2,1,-1,0,2,-8,-3,-11,-16,-20,-6
1,2,1,-1,0,2,-8,-3,-11,-16,-20,-7
1,2,1,-1,0,2,-8,-3,-11,-16,-20,-7
1,1,0,-1,0,1,-8,-3,-11,-16,-21,-8
1,1,0,-1,0,1,-8,-3,-11,-16,-21,-8
1,1,0,-1,0,0,-7,-3,-11,-16,-21,-8
1,1,0,-1,0,0,-7,-2,-11,-16,-21,-8
1,1,0,-1,0,0,-7,-2,-11,-16,-21,-8
2,1,0,-1,1,0,-7,-2,-11,-16,-21,-9
2,1,0,-1,1,0,-6,-2,-11,-16,-21,-9
1,1,1,-1,0,1,-6,-2,-11,-16,-22,-10
1,3,2,-2,-1,2,-5,-2,-11,-17,-23,-12
0,4,4,-2,-2,4,-5,-2,-12,-18,-23,-13
0,6,6,-3,-3,6,-4,-2,-12,-19,-24,-14
0,7,7,-3,-4,7,-4,-2,-13,-20,-25,-15
-1,7,8,-3,-5,8,-4,-2,-15,-21,-26,-16
-2,8,10,-3,-6,9,-4,-4,-17,-23,-26,-16
-2,10,13,-3,-8,11,-6,-6,-20,-24,-26,-16
-2,12,15,-4,-9,13,-8,-9,-22,-24,-26,-16
-2,14,17,-6,-10,15,-10,-12,-25,-25,-25,-15
-1,17,19,-8,-10,18,-13,-16,-28,-26,-24,-15
0,20,20,-10,-11,20,-16,-18,-31,-27,-22,-13
0,21,21,-11,-10,22,-19,-20,-32,-27,-18,-10
2,23,21,-13,-9,22,-21,-20,-32,-26,-13,-5
5,24,20,-15,-8,23,-23,-19,-29,-21,-6,1
8,26,20,-17,-6,23,-25,-14,-23,-14,1,8
11,29,19,-20,-4,24,-25,-7,-11,-3,10,15
15,30,17,-22,-2,24,-24,3,3,10,21,23
18,31,14,-25,1,23,-23,11,18,25,33,33
22,30,9,-26,6,20,-22,16,30,42,47,43
25,27,3,-26,10,15,-22,18,37,56,61,52
27,23,-3,-25,15,10,-22,18,43,70,74,61
30,21,-9,-25,19,6,-23,18,49,86,88,72
33,21,-12,-27,22,5,-26,14,54,103,104,82
35,21,-13,-28,23,4,-30,8,57,117,115,89
34,18,-15,-26,24,1,-35,2,58,126,120,90
33,13,-19,-22,25,-3,-36,0,61,134,118,85
30,5,-24,-17,27,-9,-35,3,68,142,112,77
26,-4,-30,-10,28,-17,-32,7,73,147,104,68
23,-13,-36,-4,28,-24,-30,10,74,147,94,59
19,-20,-39,0,28,-29,-27,11,70,140,82,49
15,-26,-40,5,27,-33,-23,11,62,128,70,39
11,-29,-40,8,26,-35,-19,11,53,111,56,28
8,-32,-39,11,24,-36,-16,11,42,91,41,18
6,-33,-38,13,22,-35,-13,10,30,68,27,9
4,-32,-35,14,19,-33,-12,10,20,47,14,2
2,-30,-32,14,17,-30,-11,11,13,29,5,-2
2,-28,-29,13,15,-28,-11,11,7,16,-1,-5
1,-26,-27,12,14,-26,-10,12,4,7,-5,-7
1,-25,-26,12,13,-25,-9,14,3,1,-8,-8
1,-24,-25,12,13,-24,-8,15,2,-1,-9,-8
1,-22,-23,11,12,-23,-6,15,2,-2,-10,-9
0,-21,-21,10,10,-21,-5,15,2,-2,-11,-9
0,-20,-19,10,9,-19,-6,14,2,-3,-11,-9
0,-18,-17,9,8,-18,-6,11,1,-3,-11,-9
0,-17,-15,9,7,-16,-7,9,1,-4,-10,-9
-1,-17,-14,9,6,-15,-7,8,0,-4,-10,-8
-1,-16,-14,9,6,-15,-7,7,0,-4,-10,-8
-2,-16,-13,9,5,-14,-7,7,0,-4,-10,-8
-2,-15,-13,9,5,-14,-7,7,-1,-5,-10,-8
-2,-16,-13,9,5,-14,-7,6,-1,-5,-10,-8
-1,-16,-13,9,5,-15,-7,6,-1,-6,-10,-8
-1,-16,-14,8,6,-15,-7,6,-1,-6,-10,-8
0,-15,-13,8,6,-14,-7,6,-1,-6,-10,-8
0,-15,-13,8,5,-14,-7,5,-1,-6,-10,-9
-1,-14,-12,8,5,-13,-7,5,-1,-6,-11,-9
-1,-14,-11,7,4,-12,-7,5,-2,-7,-11,-9
-1,-13,-11,7,4,-12,-7,4,-2,-7,-11,-9
-1,-14,-11,7,5,-12,-6,4,-2,-7,-11,-9
-1,-15,-12,8,5,-13,-6,4,-2,-7,-11,-9
-1,-15,-13,8,5,-14,-5,4,-2,-8,-12,-10
-2,-15,-13,8,5,-14,-5,4,-2,-8,-12,-10
-2,-15,-13,8,5,-14,-5,4,-2,-8,-12,-10
-1,-15,-13,8,5,-14,-5,4,-2,-8,-12,-10
-1,-16,-13,8,6,-14,-5,4,-2,-8,-12,-10
-1,-16,-14,8,6,-14,-5,4,-2,-8,-12,-9
-1,-15,-14,8,6,-14,-5,4,-2,-8,-11,-9
-1,-15,-14,8,6,-14,-5,4,-2,-8,-11,-9
0,-15,-14,8,6,-14,-5,4,-2,-8,-11,-9
0,-15,-14,8,7,-14,-5,4,-2,-8,-11,-10
0,-15,-14,8,7,-14,-5,4,-1,-8,-11,-10
0,-15,-14,8,7,-14,-5,4,-1,-8,-11,-10
0,-15,-14,8,6,-14,-5,4,-1,-7,-11,-10
0,-15,-14,7,6,-14,-5,4,-1,-7,-11,-10
0,-15,-14,7,6,-14,-5,4,-1,-7,-11,-10
0,-15,-14,7,7,-14,-5,4,-1,-7,-11,-10
0,-15,-15,7,7,-14,-4,4,-1,-7,-11,-10
-1,-16,-14,8,6,-14,-4,4,-1,-6,-11,-10
-1,-16,-14,8,6,-15,-5,4,0,-6,-11,-10
-1,-16,-14,8,7,-15,-5,4,0,-6,-10,-10
0,-16,-14,8,7,-15,-5,4,0,-6,-10,-10
0,-16,-14,8,7,-15,-5,4,0,-6,-10,-11
0,-16,-15,8,7,-15,-5,4,0,-6,-10,-11
0,-16,-15,8,7,-15,-6,4,0,-6,-10,-12
0,-17,-16,8,8,-16,-6,4,0,-6,-10,-12
0,-17,-16,8,8,-16,-6,4,0,-6,-10,-12
0,-17,-16,8,8,-16,-6,4,0,-6,-10,-12
0,-17,-16,8,8,-16,-6,5,0,-6,-9,-12
0,-17,-16,8,8,-16,-6,5,1,-6,-9,-12
0,-18,-17,9,8,-17,-7,5,1,-6,-8,-12
0,-18,-17,8,8,-17,-7,5,1,-6,-8,-12
0,-17,-17,8,8,-17,-7,5,1,-6,-8,-13
0,-17,-16,8,8,-16,-7,5,1,-5,-8,-13
0,-17,-16,8,8,-16,-8,5,1,-5,-7,-13
0,-17,-16,8,8,-16,-8,5,1,-5,-7,-13
0,-17,-17,8,9,-17,-8,5,1,-5,-7,-13
0,-18,-17,8,9,-17,-9,5,1,-5,-7,-12
0,-18,-17,9,9,-17,-9,5,1,-5,-7,-12
0,-19,-17,9,9,-17,-10,4,1,-5,-7,-12
0,-20,-18,9,10,-18,-10,4,1,-4,-7,-12
0,-20,-19,9,10,-19,-10,5,2,-4,-6,-12
0,-20,-19,9,10,-19,-10,5,2,-3,-6,-11
0,-20,-19,9,10,-19,-11,5,2,-3,-5,-11
0,-20,-19,9,10,-19,-11,5,2,-3,-5,-12
0,-20,-18,9,10,-19,-11,5,2,-3,-5,-12
0,-19,-18,9,9,-18,-11,5,2,-3,-5,-12
0,-19,-18,9,9,-18,-11,5,2,-3,-5,-12
0,-19,-18,8,9,-18,-11,5,3,-2,-5,-11
0,-19,-18,8,9,-18,-12,5,3,-1,-4,-11
0,-19,-18,8,9,-19,-12,5,4,0,-4,-10
0,-20,-19,9,9,-19,-13,4,4,0,-3,-10
1,-20,-19,9,9,-19,-13,4,5,1,-3,-10
1,-20,-19,9,9,-19,-13,4,5,1,-2,-10
1,-19,-19,9,9,-19,-13,4,5,1,-2,-10
1,-18,-18,8,9,-18,-13,4,5,2,-2,-10
1,-18,-18,8,9,-18,-14,4,6,2,-1,-9
1,-18,-19,8,10,-19,-14,5,6,3,0,-9
1,-19,-19,8,10,-19,-14,5,6,3,0,-8
1,-19,-19,8,10,-19,-15,5,7,4,1,-8
1,-18,-19,8,10,-19,-16,5,7,4,1,-8
1,-18,-18,8,9,-18,-16,5,8,5,2,-8
2,-17,-17,7,9,-17,-16,5,8,6,2,-8
2,-16,-17,7,9,-17,-16,5,9,7,3,-7
2,-16,-17,6,9,-16,-16,5,9,8,4,-7
2,-16,-17,6,9,-16,-16,5,10,8,5,-6
2,-16,-17,6,9,-16,-16,4,11,9,6,-6
2,-16,-17,6,9,-16,-16,4,11,9,6,-6
2,-16,-17,6,9,-16,-16,4,11,10,7,-6
2,-16,-17,6,9,-16,-16,4,12,11,8,-5
2,-16,-17,6,9,-16,-16,4,12,12,8,-4
2,-16,-17,6,10,-16,-17,4,13,13,9,-4
2,-15,-16,6,9,-15,-17,3,13,14,10,-4
2,-14,-15,5,9,-14,-18,3,14,14,11,-4
2,-14,-14,5,8,-14,-18,3,14,15,11,-4
2,-13,-14,5,8,-14,-19,3,15,15,12,-3
3,-13,-14,5,8,-13,-19,2,15,16,13,-3
3,-13,-14,5,8,-13,-20,2,15,17,14,-3
2,-14,-14,5,7,-14,-20,1,16,18,14,-3
1,-14,-14,6,7,-14,-20,1,16,18,15,-2
0,-15,-14,6,7,-14,-20,0,17,19,15,-2
0,-14,-13,6,7,-14,-20,0,17,20,16,-1
0,-14,-13,6,7,-13,-21,0,17,21,17,0
1,-13,-12,5,6,-12,-21,-1,17,21,17,0
1,-12,-11,5,6,-11,-21,-2,17,21,18,0
1,-11,-11,4,5,-11,-21,-2,17,22,18,0
1,-10,-11,4,5,-10,-21,-3,17,23,19,0
1,-10,-10,4,5,-10,-22,-3,18,23,19,0
1,-10,-10,4,5,-10,-22,-4,18,23,19,0
0,-10,-9,4,5,-10,-23,-4,18,23,19,0
0,-9,-9,4,5,-9,-24,-4,18,24,19,0
0,-9,-8,4,5,-8,-24,-5,18,24,20,0
0,-9,-7,4,4,-7,-24,-5,18,25,20,0
0,-9,-7,4,4,-7,-25,-6,18,25,20,0
-1,-9,-7,4,3,-7,-25,-6,18,25,20,0
-1,-9,-6,4,3,-7,-25,-6,17,25,20,0
-1,-8,-5,4,2,-6,-25,-6,17,25,20,0
-1,-8,-5,4,1,-6,-25,-7,16,25,20,0
-1,-8,-5,4,1,-6,-25,-7,16,25,20,-1
-1,-8,-5,4,1,-6,-25,-7,15,24,20,-1
-2,-8,-4,4,1,-6,-25,-8,15,24,20,-1
-2,-7,-3,4,0,-5,-25,-8,14,24,20,-1
-3,-7,-3,4,0,-5,-25,-8,13,24,20,-1
-3,-7,-2,4,0,-5,-25,-9,13,24,20,-1
-3,-6,-2,4,-1,-4,-25,-9,13,23,19,-1
-3,-6,-1,4,-1,-4,-26,-9,13,22,19,-2
-4,-6,0,5,-2,-3,-26,-9,12,22,18,-3
-4,-5,1,4,-2,-2,-26,-9,12,22,18,-3
-4,-3,2,3,-3,0,-26,-9,12,22,18,-3
-4,-2,3,3,-3,0,-26,-10,12,21,18,-3
-4,-2,4,3,-4,1,-25,-10,11,20,17,-4
-5,-2,4,3,-4,1,-25,-11,10,19,17,-5
-5,-2,4,3,-5,1,-24,-11,10,19,16,-5
-5,-2,4,3,-5,1,-24,-11,10,18,16,-6
-5,-2,5,3,-5,1,-24,-11,10,18,15,-6
-5,-2,5,3,-5,2,-23,-11,9,17,15,-7
-5,-2,6,3,-5,2,-23,-10,9,17,14,-8
-5,-2,5,3,-5,2,-22,-10,9,16,13,-9
-5,-2,5,3,-5,2,-21,-10,9,15,13,-9
-6,-2,6,3,-6,2,-20,-9,9,15,13,-9
-6,-1,6,3,-6,2,-19,-9,9,14,12,-9
-6,-1,6,3,-6,2,-19,-8,9,14,12,-10
-6,-1,7,3,-7,3,-19,-8,9,13,11,-10
-7,-1,8,3,-7,3,-19,-7,9,13,11,-11
-7,-1,8,3,-7,3,-18,-7,9,12,10,-12
-7,-1,9,3,-7,3,-18,-7,9,11,9,-13
-7,0,9,3,-8,4,-17,-7,8,10,8,-13
-8,0,10,3,-9,5,-15,-6,8,9,8,-14
-8,0,10,3,-9,5,-14,-5,8,9,7,-14
-8,0,10,4,-9,5,-14,-4,9,8,7,-15
-9,0,10,4,-9,5,-13,-4,9,8,7,-15
-9,0,10,4,-10,5,-12,-3,9,7,6,-16
-9,0,11,4,-10,6,-11,-3,9,7,6,-16
-9,0,11,4,-10,6,-11,-2,9,6,5,-17
-10,-1,10,5,-10,5,-10,-2,9,5,4,-17
-10,-1,10,5,-10,4,-9,-1,9,4,3,-18
-10,-1,10,5,-10,4,-8,0,9,3,2,-18
-10,-1,10,5,-10,4,-8,0,9,3,2,-18
-10,-1,10,5,-10,5,-7,0,9,3,2,-19
-10,-1,11,5,-10,5,-7,1,9,2,1,-19
-10,-1,11,5,-10,4,-6,1,9,2,1,-19
-9,-1,10,5,-9,4,-5,1,9,1,1,-19
-9,-2,10,5,-9,4,-5,2,9,1,0,-19
-10,-2,10,6,-9,4,-4,2,9,0,0,-20
-10,-2,10,6,-10,4,-3,3,9,0,0,-21
-10,-2,9,6,-10,3,-3,3,9,-1,-1,-22
-10,-3,9,6,-10,3,-2,3,9,-2,-2,-22
-11,-3,9,6,-10,3,-2,3,8,-2,-2,-22
-11,-3,9,7,-10,3,-2,3,8,-3,-3,-22
-12,-4,9,7,-10,2,-2,3,7,-4,-4,-24
-12,-4,9,7,-11,2,-1,3,6,-4,-4,-24
-12,-4,9,7,-11,2,-1,3,6,-5,-5,-25
-12,-4,9,8,-11,2,-1,3,5,-6,-5,-25
-12,-5,8,8,-11,1,-1,3,5,-7,-6,-25
-12,-6,8,8,-11,1,0,3,5,-7,-6,-25
-12,-6,8,8,-11,1,0,3,5,-7,-7,-25
-12,-6,8,8,-11,1,0,3,4,-8,-7,-26
-12,-5,9,8,-11,1,0,3,4,-8,-7,-26
-12,-4,9,8,-10,2,0,3,4,-9,-8,-26
-12,-5,9,9,-10,1,1,3,4,-9,-8,-26
-12,-5,9,9,-10,1,1,3,3,-10,-9,-27
-13,-6,9,9,-10,1,1,3,3,-10,-9,-27
-13,-6,9,9,-10,1,2,3,3,-11,-9,-28
-13,-5,9,8,-11,2,2,3,2,-11,-10,-28
-13,-4,10,8,-11,2,2,3,2,-11,-10,-28
-13,-4,10,8,-12,3,2,3,2,-11,-10,-28
-14,-3,11,8,-12,3,3,3,2,-11,-10,-28
-14,-3,11,8,-12,3,3,4,2,-12,-10,-28
-14,-3,11,8,-12,3,3,4,2,-12,-10,-28
-14,-4,11,8,-12,3,3,4,2,-12,-10,-28
-14,-4,11,8,-12,3,4,4,2,-13,-10,-28
-14,-4,11,9,-12,3,4,4,1,-13,-10,-28
-14,-5,11,9,-12,3,4,4,1,-14,-11,-28
-14,-5,10,9,-12,3,4,4,0,-14,-11,-28
-14,-5,10,9,-12,3,4,4,0,-14,-11,-28
-14,-5,10,9,-12,3,4,4,0,-15,-11,-28
-14,-5,9,9,-12,3,4,4,0,-15,-11,-28
-14,-5,9,9,-12,3,4,4,0,-15,-11,-28
-14,-5,10,9,-12,3,4,4,0,-15,-11,-28
-14,-4,11,9,-12,3,4,4,0,-15,-11,-28
-14,-5,11,9,-12,3,4,4,0,-16,-11,-28
-14,-5,10,9,-12,2,4,4,-1,-16,-11,-28
-14,-5,10,8,-12,2,4,4,-1,-16,-12,-28
-14,-4,10,8,-12,3,4,4,-1,-16,-12,-28
-13,-4,11,8,-12,3,4,4,-1,-16,-12,-28
-13,-3,11,7,-12,4,5,4,-1,-16,-12,-28
-13,-4,11,7,-12,4,5,4,-1,-16,-12,-28
-13,-4,10,7,-12,3,5,4,-1,-16,-12,-28
-13,-4,10,7,-12,3,5,4,-1,-16,-12,-29
-13,-4,11,7,-12,3,5,4,-1,-16,-12,-29
-14,-4,11,7,-12,4,5,4,-1,-16,-13,-29
-14,-3,12,7,-12,4,5,4,-1,-16,-13,-29
-13,-3,12,7,-12,5,5,4,-1,-16,-13,-29
-13,-3,11,7,-12,5,5,4,-1,-16,-13,-29
-13,-3,11,8,-13,4,5,4,-1,-16,-13,-29
-13,-3,12,8,-13,4,6,4,-1,-16,-13,-29
-13,-3,12,7,-12,4,6,4,-1,-16,-13,-29
-13,-2,12,7,-12,4,6,4,-2,-16,-13,-28
-13,-2,12,6,-12,4,6,4,-2,-16,-13,-28
-13,-2,11,6,-12,4,6,4,-2,-16,-14,-28
-13,-3,11,7,-12,4,6,4,-2,-16,-14,-28
-13,-3,11,7,-12,4,6,3,-2,-16,-14,-28
-13,-2,11,6,-12,5,6,3,-2,-16,-14,-28
-13,-2,11,6,-12,5,7,3,-2,-16,-14,-28
-13,-2,11,6,-12,5,7,4,-2,-16,-13,-28
-12,-2,11,6,-11,5,7,4,-2,-15,-13,-27
-12,-1,11,6,-11,5,7,4,-2,-15,-13,-26
-12,-2,11,6,-11,4,7,4,-2,-15,-13,-26
-12,-2,11,6,-11,4,7,4,-2,-15,-13,-26
-12,-2,11,6,-12,4,7,4,-2,-15,-13,-26
-12,-2,11,6,-12,5,7,4,-2,-15,-13,-26
-12,-1,11,6,-11,5,7,4,-2,-15,-13,-26
-12,-1,11,5,-11,5,7,4,-2,-15,-13,-25
-12,0,12,5,-11,6,7,4,-2,-15,-13,-25
-12,-1,11,5,-11,5,7,4,-3,-15,-13,-25
-12,-1,11,5,-11,5,7,4,-3,-15,-13,-25
-12,-2,11,6,-11,5,7,4,-2,-15,-13,-25
-11,-2,11,6,-11,5,7,4,-2,-15,-13,-25
-11,-1,11,6,-11,5,7,4,-3,-15,-13,-25
-11,-1,11,6,-11,6,7,4,-3,-15,-13,-25
-11,-1,11,6,-11,6,7,4,-3,-15,-14,-25
-11,-2,11,6,-11,5,7,4,-3,-15,-14,-25
-11,-2,10,6,-11,4,7,4,-3,-15,-14,-25
-11,-2,10,6,-11,4,7,4,-3,-15,-14,-25
-11,-2,10,6,-11,4,7,4,-3,-15,-13,-24
-11,-2,10,6,-10,4,7,4,-3,-14,-13,-24
-11,-2,9,6,-10,4,7,4,-3,-14,-13,-23
-11,-3,8,6,-9,3,7,4,-3,-14,-13,-23
-11,-3,8,7,-9,3,7,5,-3,-13,-13,-22
-11,-3,8,7,-9,3,7,5,-3,-13,-13,-22
-10,-2,8,6,-9,3,7,5,-3,-13,-12,-22
-10,-2,8,6,-9,3,7,5,-3,-13,-12,-22
-10,-2,8,6,-9,3,7,5,-2,-13,-12,-21
-10,-2,8,5,-9,3,6,5,-2,-13,-13,-21
-10,-2,9,5,-9,4,6,5,-3,-13,-14,-21
-11,-2,9,5,-10,4,6,5,-3,-14,-14,-22
-11,-2,10,6,-10,4,6,5,-3,-14,-15,-22
-11,-2,10,6,-10,4,6,5,-3,-14,-15,-22
-11,-1,10,6,-10,4,6,5,-3,-14,-16,-22
-11,-1,11,5,-10,5,6,4,-3,-14,-16,-22
-11,-1,11,5,-10,5,6,4,-3,-14,-16,-22
-11,-1,10,5,-10,4,6,4,-3,-14,-16,-22
-11,-2,9,6,-9,3,6,4,-3,-14,-16,-21
-10,-2,9,5,-9,4,6,4,-3,-14,-16,-21
-10,-1,9,5,-9,4,6,4,-3,-14,-16,-21
-10,-1,9,5,-9,4,6,4,-3,-14,-16,-21
-10,-1,9,5,-9,4,6,4,-3,-14,-16,-21
-10,-1,9,5,-9,4,6,4,-3,-14,-16,-21
-10,-1,9,5,-9,4,6,4,-3,-13,-16,-21
-10,-1,9,5,-8,4,6,4,-3,-13,-16,-20
-10,-2,8,6,-8,3,6,4,-3,-13,-16,-20
-10,-2,7,6,-8,3,6,4,-3,-14,-16,-20
-10,-2,7,7,-9,3,6,4,-3,-14,-16,-20
-10,-2,7,6,-9,3,5,4,-3,-14,-16,-20
-10,-2,7,6,-9,3,5,4,-3,-14,-16,-20
-10,-2,8,6,-9,3,5,4,-3,-14,-17,-20
-10,-2,8,6,-9,3,5,4,-3,-14,-17,-21
-10,-2,7,6,-8,3,5,4,-3,-13,-17,-21
-9,-3,7,6,-8,2,4,4,-3,-13,-16,-20
-9,-2,7,6,-8,3,4,4,-3,-13,-16,-20
-9,-2,8,6,-8,3,4,4,-3,-13,-16,-20
-9,-2,8,6,-8,3,4,4,-3,-13,-16,-20
-9,-2,8,6,-8,3,4,4,-3,-13,-17,-20
-9,-2,7,6,-8,3,4,4,-3,-13,-17,-20
-9,-2,8,5,-8,3,4,4,-3,-13,-16,-19
-9,-1,8,5,-8,4,4,4,-3,-13,-16,-19
-8,-1,8,4,-8,4,4,4,-3,-13,-17,-19
-8,-1,8,5,-8,4,4,4,-3,-13,-17,-19
-9,-2,7,5,-8,3,4,4,-3,-13,-17,-20
-9,-2,7,6,-8,2,4,4,-3,-13,-17,-20
-8,-2,6,5,-7,2,4,4,-3,-13,-17,-19
-8,-2,6,5,-7,1,4,3,-3,-13,-17,-19
-8,-2,6,6,-7,1,4,3,-3,-13,-17,-19
-8,-2,6,6,-7,2,4,3,-3,-13,-17,-19
-8,-1,6,5,-7,2,4,3,-3,-13,-17,-18
-8,0,7,5,-7,3,4,3,-3,-13,-16,-18
-8,0,8,5,-8,4,4,3,-3,-13,-16,-18
-8,0,9,4,-8,4,4,3,-3,-13,-16,-18
-8,1,9,3,-8,5,3,3,-3,-13,-16,-18
-7,2,10,3,-8,5,3,3,-2,-12,-16,-18
-7,2,11,2,-9,6,3,3,-2,-12,-16,-18
-7,3,11,2,-9,7,4,4,-1,-11,-16,-18
-7,3,11,2,-9,7,4,4,-1,-11,-16,-18
-7,3,12,2,-10,8,4,4,-1,-11,-15,-17
-7,3,12,2,-10,8,4,4,-1,-11,-15,-17
-7,3,12,2,-10,8,3,4,-1,-11,-15,-17
-7,3,12,2,-10,8,3,4,-1,-11,-15,-17
-8,4,12,2,-10,9,2,4,-1,-11,-16,-18
-8,4,13,2,-10,9,2,3,-1,-11,-16,-18
-8,5,13,2,-10,9,1,3,-1,-11,-16,-18
-8,5,13,2,-10,9,1,2,-2,-11,-16,-18
-8,5,13,2,-10,9,1,2,-2,-11,-16,-18
-8,4,13,2,-10,9,1,2,-2,-12,-16,-18
-8,4,13,2,-11,9,0,2,-2,-12,-16,-18
-8,4,13,2,-11,9,0,1,-2,-11,-16,-18
-8,5,13,1,-11,9,-1,1,-2,-11,-15,-17
-8,6,14,1,-11,10,-1,0,-2,-11,-15,-17
-8,6,15,1,-12,11,-2,0,-2,-11,-14,-17
-8,6,15,1,-12,11,-2,0,-2,-11,-14,-17
-8,7,15,1,-11,11,-3,-1,-2,-11,-14,-16
-7,8,16,0,-11,12,-4,-1,-2,-10,-13,-16
-7,9,17,0,-12,13,-4,-1,-2,-10,-13,-15
-7,9,17,-1,-12,13,-5,-1,-2,-10,-13,-15
-7,9,17,-1,-12,13,-5,-1,-2,-10,-13,-15
-7,9,17,-1,-11,13,-6,-1,-2,-10,-13,-15
-7,8,16,0,-11,12,-6,-1,-2,-10,-13,-15
-7,6,14,0,-10,10,-6,-1,-2,-10,-13,-15
-7,4,12,1,-9,8,-5,-1,-2,-10,-13,-15
-7,3,11,2,-9,7,-5,-1,-2,-10,-13,-15
-7,3,10,2,-9,6,-5,-1,-2,-10,-13,-14
-7,3,10,2,-8,6,-5,0,-2,-10,-13,-14
-7,2,9,3,-8,5,-4,0,-2,-10,-13,-14
-7,1,8,3,-7,4,-3,0,-2,-10,-13,-14
-7,0,8,4,-7,3,-2,0,-2,-10,-12,-13
-7,-1,7,4,-7,3,-2,1,-1,-10,-12,-13
-7,-2,6,5,-7,2,-2,1,-1,-10,-12,-13
-7,-3,6,5,-7,1,-2,1,-1,-10,-12,-13
-8,-3,6,6,-7,1,-2,1,-2,-10,-12,-14
-8,-3,6,6,-7,1,-2,0,-2,-11,-13,-14
-9,-3,6,7,-7,1,-2,0,-3,-12,-14,-15
-9,-4,6,7,-7,1,-1,0,-3,-12,-14,-15
-9,-4,6,7,-7,1,-1,0,-3,-12,-15,-16
-9,-5,6,8,-7,0,-1,0,-4,-13,-15,-16
-10,-6,5,8,-7,0,-1,0,-4,-13,-16,-16
-10,-7,5,9,-7,-1,-1,0,-5,-14,-16,-17
-10,-7,4,9,-7,-1,-1,0,-5,-14,-16,-17
-11,-8,4,10,-7,-2,0,0,-5,-14,-16,-17
-11,-8,4,10,-7,-2,0,0,-5,-14,-16,-17
-12,-9,3,10,-7,-3,0,0,-5,-14,-17,-17
-12,-9,3,11,-7,-3,0,0,-5,-14,-17,-17
-12,-9,4,11,-8,-3,0,0,-5,-14,-17,-18
-12,-9,4,11,-8,-3,0,1,-5,-15,-17,-18
-12,-9,3,11,-8,-3,0,1,-5,-15,-17,-18
-12,-9,3,11,-8,-3,0,1,-5,-15,-17,-18
-12,-9,3,11,-8,-3,0,1,-5,-15,-17,-18
-12,-9,3,11,-7,-3,0,1,-4,-15,-17,-18
-12,-9,3,11,-7,-3,0,1,-4,-15,-17,-18
-12,-9,3,11,-7,-3,0,1,-4,-15,-17,-18
-12,-9,3,11,-7,-3,0,1,-4,-15,-17,-18
-12,-9,3,11,-7,-3,0,2,-4,-15,-17,-18
-12,-10,3,11,-7,-3,0,2,-4,-15,-17,-18
-12,-10,2,11,-7,-3,0,2,-4,-14,-17,-18
-12,-10,2,11,-7,-3,0,2,-4,-14,-17,-18
-12,-10,2,11,-7,-3,0,2,-4,-14,-18,-18
-12,-10,2,11,-7,-3,0,2,-3,-14,-18,-18
-12,-9,3,11,-7,-3,0,2,-3,-15,-18,-18
-12,-8,4,10,-8,-2,0,2,-3,-15,-18,-19
-12,-6,6,10,-8,0,1,3,-3,-16,-19,-19
-12,-5,7,9,-9,0,2,3,-3,-17,-20,-20
-12,-4,8,9,-10,1,2,4,-4,-18,-21,-21
-13,-4,9,9,-10,2,3,4,-5,-19,-22,-22
-13,-3,10,9,-11,3,3,3,-6,-20,-23,-22
-13,-1,12,8,-12,5,2,1,-9,-22,-23,-22
-13,1,14,6,-13,8,0,-1,-11,-22,-22,-22
-12,5,17,4,-13,11,-2,-5,-14,-23,-21,-21
-11,8,19,2,-14,13,-4,-8,-16,-23,-20,-20
-11,11,21,0,-15,16,-7,-11,-19,-24,-19,-19
-10,14,23,-1,-16,18,-10,-13,-21,-24,-17,-17
-8,16,24,-3,-16,20,-13,-14,-21,-24,-14,-14
-6,17,24,-5,-14,20,-15,-13,-19,-21,-9,-9
-3,19,23,-8,-12,21,-17,-10,-15,-15,-2,-2
0,21,22,-10,-11,22,-18,-5,-6,-6,6,5
2,24,22,-13,-9,23,-18,3,6,5,16,12
6,25,20,-15,-6,23,-16,13,20,19,27,21
9,25,17,-17,-3,21,-15,19,32,34,40,31
11,23,11,-17,1,17,-15,21,40,48,53,41
14,19,5,-17,5,12,-15,20,45,61,65,50
16,16,0,-17,9,8,-15,19,50,74,78,59
19,16,-3,-18,12,7,-18,17,55,89,92,68
22,16,-6,-20,15,6,-23,12,59,105,105,77
24,14,-9,-19,17,3,-28,6,62,117,114,82
24,8,-14,-17,19,-2,-32,4,65,126,116,82
22,2,-19,-12,21,-8,-33,6,72,134,113,77
20,-5,-24,-7,23,-15,-31,10,78,140,107,70
17,-12,-28,-2,24,-20,-28,14,82,141,98,61
14,-18,-32,2,24,-25,-25,17,80,136,87,52
11,-24,-35,6,23,-29,-21,18,74,127,74,42
7,-28,-35,10,22,-31,-17,18,65,113,61,31
3,-31,-34,14,20,-32,-13,17,55,95,47,21
0,-33,-33,16,17,-33,-9,17,44,74,33,11
-2,-33,-30,18,15,-32,-7,17,33,53,20,3
-3,-31,-27,18,12,-30,-6,17,25,35,10,-2
-4,-29,-25,17,11,-27,-5,18,19,20,3,-5
-4,-28,-23,17,9,-25,-4,19,15,10,-2,-8
-5,-27,-22,16,9,-24,-3,21,13,4,-5,-9
-5,-26,-21,16,8,-24,-1,22,12,1,-7,-9
-5,-25,-20,15,8,-23,0,23,12,0,-8,-10
-5,-24,-19,15,7,-22,0,23,11,-1,-8,-10
-5,-23,-17,14,7,-21,0,22,11,-2,-9,-10
-5,-22,-16,14,6,-19,0,20,11,-2,-9,-10
-5,-20,-14,13,5,-18,0,17,11,-2,-8,-10
-5,-18,-13,12,5,-16,0,15,10,-2,-8,-10
-5,-16,-11,11,4,-14,0,14,10,-3,-8,-10
-6,-15,-9,10,3,-12,-1,13,9,-3,-8,-10
-6,-14,-8,10,2,-11,-1,13,9,-4,-9,-10
-5,-13,-8,10,2,-11,-2,13,8,-4,-9,-10
-5,-14,-8,10,2,-11,-2,12,8,-5,-10,-10
-5,-14,-8,10,2,-12,-3,12,7,-6,-10,-10
-5,-14,-8,10,2,-12,-3,11,7,-6,-11,-10
-5,-14,-8,10,2,-11,-3,11,7,-6,-10,-10
-5,-14,-9,10,2,-11,-3,10,7,-6,-10,-10
-5,-14,-9,10,3,-11,-3,10,7,-6,-10,-10
-6,-14,-9,10,3,-11,-3,10,6,-6,-10,-10
-6,-14,-8,10,2,-11,-3,10,6,-6,-10,-10
-5,-14,-8,10,2,-11,-3,10,6,-6,-10,-10
-5,-15,-9,10,3,-12,-3,9,6,-6,-10,-10
-4,-15,-10,9,3,-12,-3,9,6,-6,-10,-10
-5,-15,-10,9,3,-12,-3,9,6,-6,-10,-10
-5,-15,-10,9,3,-12,-3,9,6,-6,-10,-10
-5,-15,-10,9,3,-12,-3,9,6,-6,-10,-10
-5,-14,-10,9,3,-12,-2,10,6,-6,-10,-10
-5,-15,-10,10,3,-13,-2,10,6,-6,-10,-9
-5,-16,-10,10,3,-13,-2,10,7,-6,-10,-9
-5,-16,-10,10,3,-13,-2,9,7,-7,-10,-9
-4,-15,-10,9,3,-13,-2,9,7,-7,-10,-10
-4,-14,-10,9,3,-12,-2,9,7,-7,-10,-10
-4,-15,-10,9,3,-13,-2,9,7,-7,-10,-10
-4,-15,-11,9,3,-13,-2,9,7,-7,-10,-10
-4,-15,-11,9,3,-13,-2,9,7,-7,-10,-10
-4,-16,-11,10,3,-14,-2,10,7,-7,-10,-10
-4,-17,-12,10,4,-15,-2,11,7,-6,-9,-10
-4,-17,-12,11,4,-15,-2,11,8,-6,-9,-10
-5,-17,-12,11,4,-15,-2,11,8,-6,-9,-10
-5,-17,-11,10,4,-15,-2,11,8,-6,-9,-10
-5,-16,-11,10,4,-14,-2,12,8,-6,-8,-9
-5,-16,-11,10,4,-14,-2,12,8,-5,-8,-9
-5,-16,-12,10,4,-15,-2,12,8,-5,-8,-9
-4,-16,-12,10,4,-15,-2,12,8,-5,-8,-9
-4,-16,-12,10,4,-14,-2,12,8,-6,-8,-9
-4,-16,-11,10,3,-14,-2,12,8,-6,-9,-9
-4,-16,-11,10,3,-14,-2,12,8,-6,-9,-9
-4,-16,-12,10,4,-14,-2,13,9,-6,-8,-9
-4,-16,-12,10,4,-14,-3,13,9,-6,-8,-9
-5,-17,-12,10,4,-14,-3,13,8,-6,-8,-9
-5,-17,-12,11,4,-15,-3,13,8,-6,-8,-9
-5,-18,-13,11,4,-15,-3,13,8,-5,-7,-9
-5,-18,-13,11,4,-15,-4,13,9,-5,-7,-9
-4,-18,-13,10,4,-16,-4,13,9,-5,-7,-8
-4,-18,-14,10,5,-16,-4,13,9,-5,-7,-8
-4,-18,-14,10,5,-17,-4,13,10,-4,-6,-7
-4,-18,-14,10,5,-17,-4,13,10,-4,-6,-7
-4,-18,-14,10,5,-17,-5,13,10,-4,-6,-7
-4,-18,-14,11,5,-17,-5,13,10,-4,-7,-7
-4,-18,-14,11,6,-17,-5,13,10,-4,-7,-7
-4,-19,-15,11,6,-17,-5,12,10,-4,-7,-7
-4,-19,-15,11,6,-17,-5,12,10,-4,-6,-6
-4,-19,-16,11,6,-18,-6,12,10,-3,-6,-6
-4,-19,-16,11,6,-17,-6,12,11,-2,-5,-5
-4,-19,-15,10,6,-17,-6,12,10,-2,-4,-5
-4,-19,-16,10,7,-17,-7,12,10,-2,-4,-6
-3,-19,-16,10,7,-17,-7,12,10,-2,-4,-6
-3,-19,-16,10,7,-17,-8,12,10,-1,-3,-5
-3,-19,-16,10,7,-17,-8,12,10,-1,-3,-5
-3,-19,-15,10,7,-17,-8,12,11,-1,-3,-5
-3,-18,-15,10,6,-16,-8,12,11,-1,-3,-5
-3,-18,-14,10,6,-16,-8,11,11,-1,-3,-5
-3,-17,-14,9,6,-16,-9,11,11,-1,-3,-4
-2,-17,-15,9,7,-16,-10,11,11,0,-2,-4
-2,-17,-15,9,7,-16,-11,11,11,0,-1,-4
-2,-18,-15,10,8,-17,-11,11,11,1,-1,-3
-2,-18,-16,9,8,-17,-11,11,11,1,-1,-3
-1,-17,-16,8,9,-17,-11,11,12,2,0,-2
0,-17,-17,8,9,-18,-11,11,12,3,1,-1
0,-17,-17,8,10,-18,-12,11,13,4,1,-1
0,-17,-17,7,10,-18,-12,11,13,5,2,-1
0,-16,-16,7,9,-17,-12,11,14,6,2,-1
0,-16,-16,7,9,-17,-13,11,14,6,2,0
0,-16,-16,7,9,-16,-13,11,14,7,2,0
0,-15,-15,6,9,-15,-13,11,14,7,3,0
0,-14,-15,5,9,-15,-13,11,15,8,3,0
1,-14,-15,5,9,-15,-14,11,15,8,4,0
1,-15,-15,5,9,-15,-14,10,15,9,4,0
1,-15,-16,5,9,-16,-15,10,15,9,4,0
2,-15,-16,5,10,-16,-15,10,15,10,4,1
2,-14,-16,5,10,-15,-16,10,16,11,6,2
3,-13,-16,4,11,-15,-16,10,16,12,7,3
4,-12,-16,3,11,-15,-17,10,17,14,9,5
4,-12,-16,3,11,-14,-17,10,17,15,10,5
4,-11,-16,3,11,-14,-18,9,17,15,10,5
4,-11,-15,2,11,-13,-18,9,17,16,10,5
4,-10,-14,2,10,-13,-18,8,17,16,10,5
4,-10,-14,2,10,-12,-19,8,17,16,10,5
4,-9,-13,2,10,-12,-19,7,17,17,10,5
4,-9,-13,2,10,-11,-20,7,17,18,11,5
4,-9,-13,2,9,-11,-20,6,17,19,12,6
4,-8,-13,1,9,-11,-21,6,17,20,13,6
4,-8,-13,1,9,-11,-21,6,18,21,14,7
5,-7,-12,1,9,-10,-22,6,18,22,15,7
5,-7,-13,1,10,-10,-23,5,18,23,16,8
5,-7,-13,1,10,-10,-23,5,18,24,17,8
5,-7,-12,0,10,-10,-23,4,18,24,17,9
5,-6,-11,0,9,-9,-24,4,18,25,17,9
5,-4,-10,-1,9,-8,-25,3,18,25,18,9
5,-3,-9,-1,8,-7,-26,3,17,26,18,9
5,-3,-8,-1,7,-6,-26,2,17,26,18,9
4,-3,-8,-1,7,-5,-26,1,17,26,18,9
4,-3,-7,-1,6,-5,-27,1,17,26,18,9
4,-3,-7,-1,6,-5,-27,0,17,26,18,9
4,-2,-7,-1,6,-5,-28,0,17,27,19,10
5,-2,-7,-2,6,-5,-28,0,17,27,19,10
5,-2,-6,-2,5,-4,-29,-1,17,28,20,10
5,-1,-5,-2,5,-3,-29,-1,17,28,20,10
5,-1,-5,-2,5,-3,-30,-2,16,28,20,10
5,-1,-5,-2,5,-2,-30,-3,16,28,20,10
5,0,-4,-3,5,-1,-30,-3,16,28,20,9
4,0,-3,-3,5,-1,-31,-4,16,28,20,9
4,0,-3,-3,4,0,-31,-4,16,28,20,9
3,0,-3,-2,4,-1,-31,-5,16,28,20,9
3,0,-3,-2,4,-1,-32,-5,16,28,20,9
3,0,-2,-2,4,-1,-32,-6,15,27,19,9
3,1,-1,-3,3,0,-33,-7,14,27,19,9
3,1,-1,-3,3,0,-33,-7,14,26,19,9
3,2,0,-3,2,1,-33,-8,14,26,19,9
3,3,0,-3,2,2,-33,-8,13,26,18,8
3,4,1,-4,1,3,-33,-8,12,25,17,7
2,4,2,-4,0,3,-34,-8,12,23,16,6
1,4,3,-3,0,4,-34,-8,11,22,15,5
1,4,4,-3,-1,4,-34,-9,11,22,15,5
1,4,4,-3,-1,3,-34,-9,10,21,15,5
1,4,4,-3,-1,3,-34,-9,10,21,14,5
1,4,4,-3,-1,4,-34,-9,9,20,14,5
0,4,5,-3,-1,4,-34,-9,9,19,13,4
0,4,5,-3,-1,5,-34,-9,8,18,13,4
0,4,6,-3,-1,5,-34,-9,8,18,12,3
0,4,7,-3,-2,5,-34,-9,7,17,12,3
0,5,8,-3,-3,6,-34,-9,7,16,11,2
-1,6,8,-3,-3,6,-35,-9,6,15,10,1
-2,6,9,-3,-4,7,-35,-9,6,14,9,1
-2,6,9,-3,-4,7,-35,-9,6,14,8,0
-3,6,9,-2,-5,7,-34,-9,6,13,7,0
-3,5,8,-2,-5,6,-34,-8,6,12,6,-1
-3,4,8,-1,-5,6,-33,-7,6,11,5,-1
-3,4,8,-1,-5,6,-33,-6,6,10,5,-2
-3,4,9,-1,-5,7,-32,-6,6,10,4,-2
-3,4,9,-1,-6,7,-32,-6,5,9,3,-3
-4,5,10,-1,-6,7,-32,-5,5,8,2,-4
-4,5,10,-1,-7,7,-32,-5,4,7,1,-5
-5,5,11,-1,-7,7,-32,-5,4,6,0,-6
-5,5,11,-1,-7,7,-32,-5,4,5,0,-6
-5,5,10,-1,-6,7,-31,-4,4,5,0,-6
-5,5,10,-1,-6,7,-30,-4,4,4,0,-6
-5,5,9,-1,-6,7,-30,-4,4,3,-1,-7
-5,4,9,-1,-6,7,-30,-3,4,2,-1,-7
-5,4,9,-1,-6,7,-30,-3,4,2,-2,-8
-5,4,9,0,-6,6,-29,-2,4,1,-2,-8
-5,4,9,0,-6,6,-29,-2,4,1,-2,-8
-6,3,9,0,-7,6,-29,-2,4,0,-3,-8
-6,3,9,1,-7,6,-29,-2,3,0,-4,-9
-7,2,9,1,-7,6,-29,-2,3,-1,-5,-9
-7,2,9,2,-8,6,-29,-2,3,-2,-5,-10
-7,2,9,2,-8,6,-29,-2,2,-3,-6,-10
-7,1,9,2,-8,5,-29,-2,2,-4,-6,-11
-7,0,9,2,-8,4,-28,-1,2,-4,-7,-11
-7,0,9,2,-8,4,-28,-1,2,-4,-7,-11
-8,0,9,2,-8,4,-28,-1,2,-4,-8,-11
-9,0,9,3,-8,4,-27,-1,2,-5,-8,-12
-9,-1,9,4,-8,3,-24,-1,1,-5,-9,-12
-10,-1,9,4,-8,3,-21,-1,1,-6,-9,-12
-10,-1,9,5,-8,3,-17,-1,1,-7,-10,-12
-10,-1,9,5,-8,3,-14,-1,1,-7,-10,-12
-10,-1,9,5,-8,3,-11,-1,1,-7,-10,-12
-10,-1,9,5,-8,3,-8,-1,1,-8,-10,-13
-10,-1,9,5,-8,3,-5,-1,0,-8,-11,-13
-10,-2,9,5,-8,3,-3,-1,0,-8,-11,-13
-11,-2,9,6,-9,3,-1,-1,-1,-9,-11,-13
-11,-2,8,6,-9,3,1,-1,-1,-9,-11,-13
-11,-3,8,6,-9,2,3,-1,-1,-9,-11,-13
-11,-3,8,7,-9,2,4,-1,-1,-9,-11,-13
-11,-3,8,7,-9,2,5,-1,-2,-10,-11,-14
-12,-4,8,7,-9,1,6,-1,-2,-10,-12,-14
-12,-4,8,7,-9,1,8,-1,-2,-11,-12,-14
-12,-4,8,7,-9,1,9,-1,-3,-12,-12,-15
-12,-4,8,8,-9,1,10,-2,-3,-12,-12,-15
-12,-4,8,8,-9,1,11,-3,-3,-12,-12,-15
-12,-4,8,8,-9,2,12,-3,-3,-12,-12,-15
-13,-4,8,8,-9,2,12,-3,-4,-12,-12,-15
-13,-4,8,8,-9,2,13,-3,-4,-12,-12,-15
-13,-3,9,7,-10,2,14,-3,-4,-12,-12,-14
-13,-3,10,7,-10,3,15,-3,-4,-12,-12,-14
-13,-3,10,7,-10,3,16,-3,-4,-13,-13,-14
-13,-3,10,7,-11,3,17,-3,-5,-14,-13,-14
-13,-3,10,7,-11,4,17,-3,-5,-14,-14,-14
-13,-2,10,7,-11,4,18,-4,-6,-15,-14,-14
-13,-3,10,7,-11,3,18,-4,-6,-15,-14,-14
-13,-3,10,7,-11,3,19,-4,-6,-15,-14,-14
-14,-3,10,7,-11,3,19,-4,-6,-15,-14,-15
-14,-3,10,7,-11,3,20,-4,-7,-16,-14,-15
-14,-3,10,8,-11,3,20,-5,-7,-16,-14,-14
-14,-4,10,8,-11,3,21,-5,-7,-16,-14,-14
-14,-3,10,8,-11,3,21,-5,-7,-16,-14,-14
-14,-3,10,8,-11,3,21,-5,-7,-16,-14,-14
-14,-3,11,8,-11,4,21,-5,-7,-16,-14,-13
-14,-3,11,8,-12,4,22,-5,-8,-16,-14,-13
-14,-3,11,8,-12,4,22,-5,-8,-17,-14,-14
-14,-3,11,8,-12,4,23,-5,-8,-17,-14,-14
-14,-3,11,8,-12,4,23,-5,-8,-17,-14,-14
-14,-3,11,8,-12,4,24,-5,-9,-17,-14,-14
-15,-3,12,8,-12,4,24,-5,-9,-18,-14,-14
-16,-3,12,9,-13,4,24,-6,-10,-18,-13,-14
-16,-3,12,9,-13,4,24,-6,-10,-18,-13,-13
-16,-3,12,8,-13,5,24,-6,-10,-18,-13,-13
-16,-2,12,8,-13,5,24,-6,-10,-17,-13,-12
-16,-3,12,8,-13,5,25,-7,-10,-17,-13,-12
-15,-3,12,8,-13,4,25,-7,-10,-17,-13,-11
-14,-3,11,8,-12,4,25,-7,-10,-17,-12,-11
-14,-3,11,8,-12,4,26,-7,-9,-17,-12,-10
-15,-3,12,8,-12,4,26,-7,-9,-16,-11,-10
-16,-3,12,9,-13,4,26,-7,-9,-16,-11,-10
-16,-4,11,9,-13,3,26,-7,-9,-16,-11,-10
-16,-4,11,9,-13,3,26,-7,-10,-16,-11,-9
-16,-4,11,9,-13,3,26,-7,-10,-16,-11,-9
-16,-4,11,9,-13,4,26,-7,-10,-16,-11,-9
-16,-4,11,9,-13,4,26,-8,-10,-16,-11,-9
-16,-4,11,9,-13,4,26,-8,-10,-16,-11,-9
-16,-4,11,9,-13,4,26,-9,-10,-16,-10,-9
-16,-4,11,9,-13,4,26,-9,-10,-15,-10,-8
-16,-4,11,9,-13,4,27,-9,-10,-15,-10,-8
-16,-5,11,9,-13,3,27,-9,-10,-15,-10,-8
-16,-4,11,9,-13,4,27,-9,-10,-15,-9,-8
-16,-4,11,9,-14,4,27,-9,-10,-15,-9,-8
-16,-4,11,10,-14,4,27,-9,-10,-16,-10,-9
-16,-4,12,10,-14,4,27,-9,-10,-16,-10,-9
-17,-3,12,9,-14,5,27,-9,-10,-15,-10,-8
-17,-3,12,9,-14,5,27,-9,-10,-15,-10,-8
-17,-4,12,9,-14,4,27,-9,-11,-16,-10,-8
-17,-5,11,9,-14,3,27,-9,-11,-16,-10,-8
-17,-5,11,10,-14,3,27,-9,-11,-16,-10,-8
-17,-6,10,10,-14,2,27,-9,-11,-16,-9,-8
-17,-6,10,10,-13,2,28,-9,-11,-16,-9,-8
-17,-7,10,11,-13,2,28,-9,-11,-16,-9,-8
-17,-7,10,11,-13,2,29,-9,-11,-16,-9,-8
-17,-7,10,11,-13,2,29,-9,-11,-15,-9,-8
-17,-7,10,11,-13,2,28,-9,-11,-15,-9,-8
-17,-7,10,11,-13,2,28,-9,-11,-15,-9,-8
-17,-7,10,11,-13,2,28,-9,-11,-15,-9,-8
-17,-7,10,11,-13,2,28,-9,-11,-15,-9,-8
-17,-7,9,11,-13,1,28,-9,-11,-16,-9,-8
-17,-8,9,11,-13,1,28,-9,-11,-16,-9,-8
-17,-8,9,11,-13,0,28,-9,-12,-16,-9,-8
-17,-8,9,11,-13,0,29,-9,-12,-16,-9,-8
-17,-8,9,11,-13,0,29,-9,-12,-16,-8,-8
-17,-8,9,11,-13,0,29,-9,-12,-15,-8,-8
-17,-8,9,11,-13,0,29,-9,-12,-15,-8,-8
-17,-8,9,11,-13,0,29,-9,-12,-16,-8,-8
-17,-7,9,11,-13,1,29,-9,-12,-16,-8,-8
-16,-7,9,10,-13,1,30,-9,-12,-15,-8,-8
-16,-7,9,10,-12,1,30,-9,-12,-15,-8,-8
-16,-8,8,11,-12,1,31,-9,-12,-15,-7,-8
-16,-8,7,11,-12,0,31,-9,-12,-15,-7,-7
-16,-9,7,11,-12,0,31,-9,-11,-15,-6,-7
-16,-9,6,11,-11,0,31,-9,-11,-15,-6,-7
-16,-9,6,11,-11,0,31,-9,-11,-15,-6,-7
-16,-9,6,11,-11,0,31,-9,-11,-15,-6,-7
-16,-9,6,11,-11,0,31,-9,-11,-15,-6,-6
-16,-9,6,11,-11,0,32,-9,-12,-16,-6,-7
-16,-9,7,11,-11,0,32,-9,-12,-16,-6,-7
-16,-8,7,11,-12,0,32,-9,-12,-16,-6,-7
-17,-8,8,11,-12,0,32,-9,-12,-16,-6,-8
-17,-8,8,12,-13,0,32,-9,-12,-16,-6,-8
-17,-9,8,12,-13,0,33,-9,-12,-16,-6,-8
-17,-9,7,12,-12,0,33,-9,-12,-16,-6,-7
-17,-10,6,12,-12,-1,33,-9,-12,-15,-5,-6
-17,-10,6,12,-12,-1,33,-9,-12,-15,-5,-6
-17,-10,6,13,-12,-2,33,-9,-12,-16,-6,-7
-18,-11,6,13,-12,-2,34,-9,-12,-16,-6,-7
-18,-11,6,13,-12,-2,34,-9,-12,-15,-5,-7
-18,-11,7,13,-12,-1,35,-9,-12,-15,-5,-7
-18,-11,7,13,-12,-1,35,-9,-13,-16,-5,-7
-17,-10,7,13,-12,-1,35,-9,-13,-16,-5,-7
-17,-10,7,13,-12,-1,35,-9,-13,-16,-5,-7
-17,-10,7,13,-12,-1,36,-9,-13,-16,-5,-7
-17,-10,7,13,-12,-1,36,-9,-13,-16,-5,-7
-17,-9,7,13,-12,-1,36,-9,-13,-16,-5,-7
-17,-9,7,12,-12,-1,36,-9,-13,-16,-5,-7
-17,-9,7,12,-12,-1,36,-9,-13,-16,-5,-7
-17,-9,8,12,-12,-1,36,-9,-13,-16,-5,-7
-17,-10,8,13,-13,-1,36,-9,-13,-16,-5,-7
-17,-10,7,13,-12,-1,37,-9,-13,-16,-4,-7
-17,-10,6,13,-12,-2,37,-9,-13,-16,-4,-7
-17,-10,6,13,-12,-2,37,-9,-13,-16,-4,-7
-17,-10,6,13,-12,-2,37,-9,-13,-16,-4,-7
-17,-10,6,13,-12,-2,37,-9,-13,-16,-4,-7
-17,-10,6,13,-12,-2,37,-9,-13,-16,-4,-7
-18,-11,6,13,-12,-2,37,-9,-13,-16,-4,-7
-18,-11,6,14,-12,-2,37,-9,-13,-16,-4,-7
-18,-11,6,14,-13,-2,37,-9,-13,-16,-4,-6
-18,-10,7,13,-13,-1,37,-9,-12,-15,-3,-6
-18,-10,7,13,-12,-1,37,-9,-13,-15,-3,-7
-18,-10,7,14,-12,-2,37,-9,-13,-15,-3,-7
-18,-11,7,14,-12,-2,38,-9,-13,-15,-3,-7
-18,-11,6,14,-12,-3,38,-8,-13,-15,-4,-7
-18,-12,6,14,-12,-3,39,-8,-13,-16,-4,-7
-18,-12,6,14,-12,-3,39,-8,-13,-16,-4,-7
-18,-12,5,15,-12,-3,39,-8,-13,-15,-4,-7
-18,-12,5,15,-12,-3,39,-8,-13,-15,-4,-7
-18,-12,6,15,-12,-3,39,-8,-13,-15,-4,-7
-18,-12,6,15,-12,-3,39,-8,-13,-15,-4,-7
-18,-12,6,14,-12,-2,39,-8,-13,-15,-4,-7
-19,-11,7,14,-13,-2,39,-9,-13,-15,-4,-7
-19,-11,8,14,-14,-1,39,-9,-13,-16,-5,-8
-19,-11,8,14,-14,-1,39,-9,-13,-16,-5,-8
-19,-11,8,14,-14,-1,39,-9,-13,-16,-5,-8
-19,-11,7,15,-14,-1,39,-9,-13,-16,-5,-8
-20,-12,7,15,-14,-2,39,-9,-13,-16,-5,-8
-19,-12,7,15,-13,-2,39,-9,-13,-16,-5,-9
-19,-11,7,15,-13,-2,39,-9,-13,-16,-5,-9
-18,-12,7,15,-13,-2,39,-9,-12,-16,-5,-9
-18,-12,7,15,-13,-2,39,-9,-12,-16,-5,-9
-18,-13,6,15,-13,-3,39,-9,-12,-16,-5,-9
-19,-13,6,15,-12,-3,39,-9,-12,-16,-5,-9
-19,-13,6,15,-12,-3,39,-10,-13,-16,-5,-9
-19,-12,6,15,-12,-2,39,-10,-13,-16,-5,-9
-19,-12,6,15,-12,-2,39,-10,-13,-16,-5,-9
-19,-12,6,15,-12,-2,38,-10,-13,-16,-5,-9
-18,-11,6,15,-13,-2,38,-10,-13,-16,-5,-9
-18,-10,7,14,-13,-1,38,-10,-13,-16,-5,-9
-18,-9,8,14,-14,0,38,-10,-12,-15,-5,-8
-18,-9,9,14,-14,0,38,-10,-12,-15,-5,-8
-19,-9,9,14,-14,0,38,-10,-12,-15,-5,-8
-19,-9,9,14,-14,0,38,-10,-11,-15,-5,-8
-19,-8,10,14,-15,1,38,-10,-11,-15,-5,-8
-18,-8,10,13,-15,1,38,-10,-11,-15,-5,-8
-18,-8,10,13,-15,1,38,-10,-11,-15,-4,-8
-19,-8,10,13,-15,1,38,-10,-11,-15,-4,-8
-19,-8,10,13,-15,1,38,-10,-11,-15,-4,-8
-19,-7,11,12,-15,2,38,-10,-11,-15,-4,-8
-19,-6,11,12,-15,2,38,-10,-11,-15,-4,-8
-19,-6,11,12,-15,2,38,-10,-11,-15,-4,-8
-19,-6,11,12,-15,2,37,-11,-11,-15,-4,-8
-18,-6,12,12,-15,3,37,-11,-11,-15,-4,-8
-18,-5,12,11,-15,3,37,-12,-11,-15,-4,-8
-18,-5,13,11,-16,4,36,-12,-11,-15,-5,-9
-19,-5,13,11,-16,4,36,-12,-11,-15,-5,-9
-19,-5,13,12,-16,4,35,-13,-11,-15,-5,-9
-19,-5,13,12,-16,4,35,-13,-11,-15,-5,-9
-19,-4,14,11,-16,5,34,-13,-12,-15,-5,-9
-19,-2,16,10,-17,7,34,-14,-12,-15,-5,-9
-18,-1,16,9,-17,8,33,-15,-12,-15,-4,-8
-18,-1,16,9,-17,8,33,-15,-12,-15,-4,-8
-18,-1,16,9,-17,8,32,-16,-12,-15,-3,-7
-18,-1,16,9,-17,8,31,-16,-12,-14,-3,-7
-17,-1,16,8,-17,8,30,-17,-12,-14,-3,-7
-17,0,16,8,-17,9,30,-17,-12,-13,-2,-6
-17,0,16,8,-17,9,29,-17,-12,-13,-2,-6
-17,0,16,8,-16,8,29,-17,-12,-13,-2,-6
-17,-1,15,8,-16,7,29,-18,-12,-13,-2,-6
-16,-1,15,8,-15,7,29,-18,-12,-13,-2,-6
-16,-2,14,9,-15,6,29,-18,-13,-14,-2,-6
-16,-4,13,10,-15,5,29,-18,-13,-14,-3,-7
-16,-5,11,11,-14,3,29,-18,-13,-14,-3,-7
-16,-7,10,12,-13,2,29,-18,-13,-14,-2,-7
-16,-8,9,12,-13,1,29,-18,-13,-14,-2,-6
-17,-9,8,13,-12,0,30,-18,-13,-14,-2,-6
-17,-9,7,13,-12,-1,30,-18,-13,-14,-2,-6
-18,-10,7,14,-12,-1,31,-18,-13,-14,-2,-6
-18,-10,7,14,-12,-1,32,-18,-13,-14,-2,-6
-18,-10,7,14,-12,-1,32,-17,-12,-14,-2,-6
-18,-11,6,14,-12,-2,32,-17,-12,-15,-2,-7
-18,-11,5,15,-12,-2,32,-17,-12,-15,-3,-7
-19,-12,5,15,-12,-2,32,-17,-13,-15,-3,-7
-19,-12,5,15,-12,-2,32,-17,-13,-16,-4,-7
-19,-13,5,15,-12,-3,32,-18,-14,-16,-4,-8
-19,-13,5,16,-12,-3,32,-18,-14,-17,-5,-8
-19,-14,5,16,-12,-4,32,-19,-15,-18,-5,-9
-19,-14,5,16,-12,-4,32,-19,-15,-18,-6,-10
-19,-14,5,16,-12,-4,32,-19,-15,-18,-6,-10
-19,-15,4,16,-12,-5,32,-19,-15,-18,-6,-10
-19,-16,3,17,-11,-6,32,-19,-15,-18,-6,-10
-19,-16,2,17,-11,-7,32,-19,-15,-18,-6,-10
-19,-17,2,17,-11,-7,32,-19,-15,-18,-6,-10
-19,-17,2,18,-11,-7,32,-19,-15,-19,-6,-10
-19,-17,2,18,-11,-7,32,-19,-15,-19,-6,-10
-19,-17,2,18,-11,-7,32,-19,-15,-19,-6,-10
-19,-17,2,18,-11,-7,32,-19,-15,-19,-6,-10
-19,-17,2,18,-11,-7,32,-20,-15,-19,-6,-11
-19,-17,2,18,-11,-7,32,-20,-15,-19,-6,-11
-19,-17,2,18,-11,-7,32,-20,-15,-19,-6,-11
-19,-17,2,17,-11,-7,32,-20,-15,-19,-6,-11
-19,-17,2,17,-11,-7,32,-20,-15,-19,-6,-11
-19,-17,2,18,-11,-7,32,-20,-15,-19,-6,-11
-20,-17,2,18,-11,-8,32,-20,-15,-19,-6,-11
-20,-17,2,18,-11,-8,33,-20,-15,-19,-6,-11
-20,-18,1,18,-11,-8,33,-20,-15,-19,-7,-11
-20,-19,1,19,-11,-8,33,-20,-15,-19,-7,-12
-21,-19,1,19,-11,-8,33,-20,-15,-19,-8,-12
-20,-18,2,18,-12,-7,34,-20,-15,-20,-9,-13
-20,-16,4,18,-12,-6,35,-19,-15,-21,-10,-13
-20,-15,5,17,-12,-5,35,-19,-16,-22,-11,-14
-21,-13,7,17,-13,-3,36,-20,-17,-23,-12,-15
-22,-12,9,16,-15,-2,36,-20,-18,-24,-13,-15
-22,-11,11,16,-16,0,36,-21,-20,-26,-13,-16
-23,-9,13,15,-18,2,36,-23,-22,-27,-14,-17
-23,-7,15,14,-19,4,34,-26,-24,-28,-14,-17
-22,-5,16,13,-19,5,32,-29,-27,-28,-13,-16
-21,-3,17,12,-19,7,29,-32,-29,-29,-12,-15
-21,-1,18,10,-20,9,27,-35,-31,-29,-10,-13
-20,1,19,9,-20,10,24,-36,-32,-29,-8,-11
-19,2,20,8,-19,11,22,-37,-33,-28,-5,-7
-17,3,19,6,-18,11,21,-36,-31,-25,0,-3
-14,5,18,4,-16,12,20,-33,-27,-19,8,3
-11,8,18,1,-15,13,20,-27,-19,-10,16,10
-8,11,18,-2,-14,15,20,-19,-7,0,25,17
-5,13,17,-4,-12,15,21,-10,5,12,35,24
-2,14,15,-6,-9,14,22,-6,15,25,46,33
1,12,10,-7,-5,11,21,-5,21,38,59,43
3,9,4,-7,0,7,20,-6,25,50,71,52
6,7,-1,-7,3,3,18,-7,30,63,84,62
10,6,-4,-8,7,1,15,-10,35,78,98,72
13,5,-8,-10,10,-1,10,-14,40,94,113,82
15,2,-13,-9,14,-5,3,-19,43,108,125,90
16,-3,-20,-7,18,-12,-1,-22,47,119,130,93
14,-11,-26,-2,20,-19,-2,-20,54,128,129,90
12,-18,-32,2,21,-25,0,-15,61,135,124,83
9,-25,-35,7,21,-30,3,-10,65,136,114,74
5,-31,-37,12,21,-33,7,-6,65,132,102,63
2,-36,-38,16,21,-36,10,-4,60,123,90,53
-1,-40,-39,20,19,-39,15,-3,53,111,77,43
-5,-43,-39,23,17,-40,20,-2,44,95,63,32
-8,-45,-38,26,15,-41,24,-1,34,76,48,22
-10,-44,-35,27,12,-39,27,-1,24,55,35,14
-12,-42,-32,27,9,-37,29,0,15,37,24,7
-13,-40,-29,26,7,-34,30,1,9,22,16,3
-13,-39,-26,26,6,-32,32,2,4,10,10,0
-14,-39,-24,26,6,-31,35,4,2,2,6,-1
-14,-38,-23,26,5,-30,37,5,0,-2,4,-2
-15,-37,-21,25,3,-29,38,6,0,-4,2,-3
-16,-35,-20,25,2,-27,39,7,0,-5,1,-4
-16,-34,-19,24,1,-26,39,6,-1,-6,1,-4
-16,-32,-17,24,0,-24,39,4,-1,-6,1,-4
-17,-31,-16,23,0,-23,38,3,-2,-6,1,-3
-17,-30,-15,23,-1,-22,38,2,-2,-6,1,-3
-16,-29,-13,22,-1,-21,38,1,-2,-6,1,-2
-16,-28,-12,22,-2,-20,38,1,-2,-7,1,-2
-17,-28,-12,22,-2,-19,38,0,-3,-7,1,-2
-17,-28,-12,22,-2,-19,38,0,-4,-8,0,-2
-17,-28,-12,21,-2,-19,37,0,-4,-8,0,-2
-17,-28,-12,21,-2,-19,37,0,-5,-8,0,-3
-16,-28,-12,21,-2,-19,37,0,-5,-8,0,-3
-16,-28,-12,21,-2,-19,37,0,-5,-8,0,-3
-16,-27,-11,21,-2,-19,37,0,-5,-9,0,-3
-16,-27,-11,21,-2,-19,37,0,-5,-9,0,-3
-16,-26,-11,21,-2,-19,37,0,-5,-9,0,-3
-16,-26,-11,20,-2,-19,37,0,-5,-9,0,-3
-16,-27,-11,20,-2,-19,37,0,-5,-9,0,-3
-16,-27,-11,21,-2,-19,37,0,-5,-9,0,-3
-16,-27,-11,21,-2,-18,37,0,-4,-9,0,-3
-16,-26,-11,21,-2,-18,37,0,-4,-9,0,-2
-16,-26,-11,21,-2,-18,37,0,-4,-9,0,-2
-16,-27,-12,21,-2,-19,37,0,-4,-9,0,-2
-16,-27,-12,21,-2,-19,37,1,-4,-9,0,-2
-16,-28,-12,21,-2,-20,37,1,-4,-8,0,-2
-16,-28,-12,21,-1,-20,37,1,-4,-8,0,-2
-16,-28,-12,21,-1,-20,37,1,-4,-8,0,-2
-16,-28,-12,21,-1,-20,37,1,-4,-8,0,-2
-16,-28,-13,21,-1,-20,37,1,-4,-8,0,-2
-16,-28,-13,21,-1,-20,37,1,-4,-8,0,-1
-15,-28,-13,21,-1,-20,37,1,-4,-8,0,-1
-15,-28,-13,21,-1,-20,36,1,-4,-8,0,-1
-15,-28,-14,21,-1,-21,36,2,-3,-8,0,-1
-15,-28,-14,21,0,-21,36,2,-3,-8,0,-1
-15,-28,-14,21,0,-21,36,2,-3,-7,0,-1
-15,-29,-14,21,0,-21,36,2,-3,-7,0,-1
-15,-29,-14,21,0,-21,36,3,-3,-7,1,0
-15,-29,-14,21,0,-21,36,3,-3,-7,1,0
-15,-29,-14,21,0,-21,36,3,-3,-7,1,0
-15,-29,-15,21,0,-22,36,4,-2,-7,1,0
-14,-29,-15,21,1,-22,36,4,-2,-6,1,0
-14,-29,-16,21,1,-23,35,4,-2,-6,1,1
-14,-29,-16,21,1,-23,35,4,-2,-6,2,1
-14,-29,-15,21,1,-22,35,4,-2,-6,2,1
-14,-29,-15,21,1,-22,35,4,-2,-6,2,1
-14,-30,-16,21,1,-23,35,4,-2,-6,2,1
-14,-30,-17,21,1,-23,35,4,-1,-5,2,2
-14,-30,-17,21,1,-23,35,5,-1,-5,3,2
-14,-30,-17,21,1,-23,35,5,0,-5,3,2
-14,-30,-17,21,2,-23,34,6,0,-5,3,2
-13,-29,-17,21,2,-23,34,6,0,-4,4,2
-13,-29,-17,21,3,-23,34,6,0,-4,4,2
-13,-30,-18,21,3,-24,34,7,0,-3,4,3
-13,-30,-18,21,3,-24,34,7,0,-3,5,3
-13,-30,-18,21,3,-24,34,8,0,-3,5,3
-12,-30,-18,20,3,-24,34,8,0,-3,5,4
-12,-30,-19,20,3,-24,33,8,1,-3,5,4
-12,-30,-19,21,3,-25,33,8,1,-3,5,4
-12,-31,-19,21,4,-25,33,8,1,-2,5,4
-12,-31,-19,21,4,-25,33,8,1,-2,5,4
-12,-31,-19,21,4,-25,32,8,1,-2,6,5
-12,-30,-19,21,4,-25,32,8,1,-1,6,5
-12,-30,-19,20,4,-24,32,9,1,-1,6,5
-12,-30,-19,20,4,-24,31,9,1,-1,7,5
-11,-30,-20,20,4,-24,31,9,1,0,7,6
-11,-30,-20,20,4,-24,31,9,1,0,8,6
-11,-30,-20,20,5,-24,31,9,2,0,8,6
-11,-30,-20,20,5,-25,31,9,2,0,8,6
-10,-30,-20,19,5,-25,30,9,2,0,8,7
-10,-29,-20,19,5,-25,30,9,3,1,8,7
-10,-29,-21,19,5,-25,30,10,3,1,9,7
-10,-29,-21,19,5,-25,30,10,3,2,9,8
-10,-29,-21,19,5,-25,30,10,3,2,10,8
-9,-28,-20,18,5,-24,29,10,3,2,10,8
-9,-28,-20,18,6,-24,29,10,4,3,11,8
-9,-28,-21,18,6,-24,29,10,4,3,11,8
-8,-28,-21,17,6,-24,29,10,5,4,11,9
-7,-27,-21,16,7,-24,29,10,5,5,12,9
-7,-27,-21,16,7,-24,29,10,6,5,12,10
-6,-27,-22,16,8,-24,29,10,6,6,13,10
-6,-27,-22,15,8,-24,28,10,6,6,13,10
-5,-26,-22,15,8,-24,28,10,6,7,14,11
-5,-26,-22,15,8,-23,27,10,6,7,14,11
-5,-26,-22,15,8,-23,27,10,6,8,15,11
-5,-26,-22,15,8,-24,27,10,7,8,15,11
-5,-26,-22,15,8,-24,26,10,7,9,16,12
-5,-25,-21,15,8,-23,26,10,8,10,16,12
-5,-24,-21,14,8,-23,25,10,8,11,17,13
-5,-24,-21,13,8,-22,25,10,9,12,17,13
-5,-24,-21,13,8,-22,25,10,9,13,18,14
-5,-24,-21,13,8,-22,24,10,9,13,19,14
-4,-23,-20,13,8,-21,24,10,10,14,20,15
-4,-22,-20,12,8,-21,23,10,10,15,20,15
-3,-22,-20,12,8,-20,23,10,10,16,21,16
-3,-21,-20,11,8,-20,23,9,11,17,21,16
-2,-20,-20,11,8,-19,22,9,11,18,22,17
-2,-20,-19,10,8,-19,22,9,11,18,23,17
-2,-19,-18,10,8,-18,21,8,12,19,24,18
-2,-18,-18,9,7,-17,21,8,12,20,24,18
-2,-18,-17,9,7,-17,21,8,12,21,25,19
-2,-17,-17,9,7,-17,20,8,12,22,26,19
-2,-17,-16,9,7,-16,20,8,12,23,26,19
-2,-17,-16,9,7,-16,19,8,13,24,27,20
-2,-17,-16,8,7,-16,19,8,13,24,27,20
-2,-16,-16,8,7,-15,18,7,13,25,28,21
-2,-16,-15,8,6,-15,18,7,13,25,28,21
-2,-15,-15,8,6,-14,18,7,14,26,29,21
-2,-15,-14,8,6,-14,18,7,14,26,30,22
-2,-14,-14,8,6,-13,17,7,14,27,30,22
-2,-14,-14,7,6,-13,16,7,14,27,30,22
-1,-13,-13,7,6,-12,15,6,14,28,31,22
-1,-12,-13,6,6,-12,14,6,14,28,31,22
-1,-12,-12,6,6,-12,14,5,14,28,31,22
-1,-11,-12,6,6,-11,13,5,14,29,31,22
-1,-11,-11,5,5,-11,13,5,14,29,31,22
-1,-10,-11,5,5,-10,13,5,13,29,31,22
-1,-10,-10,5,5,-9,13,5,13,29,31,22
-1,-9,-9,4,4,-8,12,5,13,29,32,22
-1,-8,-9,4,4,-8,12,4,13,29,32,22
-1,-7,-8,3,4,-7,11,4,13,29,32,22
-1,-6,-8,3,3,-7,11,3,12,29,32,22
-1,-6,-7,3,3,-6,10,3,12,29,32,22
-1,-6,-7,3,2,-6,10,2,12,29,32,22
-1,-6,-6,3,2,-6,9,2,12,29,31,22
-1,-6,-6,3,2,-6,9,2,11,28,31,21
-2,-6,-6,3,2,-6,9,2,11,28,30,21
-2,-6,-5,3,1,-5,9,2,10,27,30,21
-2,-5,-4,3,1,-4,9,2,10,27,29,21
-2,-4,-3,3,0,-3,9,2,9,27,29,20
-2,-4,-2,3,0,-2,9,2,9,26,29,20
-2,-3,-2,2,0,-2,9,1,8,25,28,19
-2,-3,-1,2,-1,-1,9,1,8,25,28,19
-2,-2,0,1,-1,0,8,0,7,24,27,19
-2,-1,0,1,-2,0,8,0,7,23,27,18
-3,-1,1,1,-2,0,8,0,6,22,26,18
-3,-1,1,1,-3,0,8,0,6,22,25,17
-3,-1,1,1,-3,0,8,0,5,21,25,17
-3,0,1,1,-3,1,8,0,5,21,24,16
-3,0,1,1,-3,1,8,0,5,20,24,16
-4,0,2,1,-3,1,8,0,5,19,23,15
-4,0,2,1,-3,2,8,0,4,19,22,15
-4,0,3,1,-4,3,8,0,4,18,21,14
-4,0,3,1,-4,3,9,1,3,17,19,14
-5,0,4,2,-4,3,9,1,3,16,18,13
-5,0,4,2,-5,3,9,1,3,16,16,13
-5,1,5,2,-5,3,9,1,3,15,15,12
-5,1,5,2,-5,3,9,2,3,15,14,12
-5,1,5,2,-5,3,9,2,2,14,13,11
-5,1,5,2,-5,3,10,2,2,13,12,11
-5,1,5,2,-6,3,10,2,2,12,11,10
-6,0,5,2,-6,3,10,3,1,11,10,10
-6,0,5,2,-6,3,11,3,1,10,9,9
-7,1,5,2,-7,3,11,3,1,9,8,9
-7,1,6,2,-7,4,11,3,1,9,7,8
-8,0,6,3,-8,4,12,4,1,8,7,8
-8,0,6,3,-8,3,12,4,1,7,6,7
-8,0,6,3,-8,4,13,4,0,7,5,7
-8,0,6,3,-8,4,13,4,0,6,4,6
-8,0,7,3,-8,4,14,5,0,5,3,6
-8,0,7,3,-8,4,14,5,0,4,2,5
-8,0,6,3,-8,4,15,5,0,4,2,5
-8,0,6,3,-7,4,15,5,-1,3,1,4
-9,0,6,4,-7,3,16,5,-1,3,1,4
-9,-1,6,4,-7,3,16,5,-1,2,0,3
-9,-1,6,4,-7,3,17,5,-1,1,0,3
-9,-1,6,4,-7,3,17,5,-2,0,0,2
-9,-2,6,4,-7,3,17,5,-2,0,-1,2
-10,-2,6,5,-8,2,17,5,-2,-1,-2,1
-10,-3,5,5,-8,1,17,5,-3,-1,-2,1
-10,-3,5,5,-8,1,17,5,-3,-2,-3,0
-10,-3,5,5,-8,1,17,5,-3,-2,-4,0
-10,-3,5,6,-8,1,18,5,-4,-3,-4,0
-10,-3,5,6,-8,1,18,5,-4,-4,-5,0
-10,-3,5,6,-8,1,18,5,-5,-5,-5,0
-10,-4,5,6,-8,1,18,5,-5,-5,-6,0
-10,-3,6,6,-8,2,18,5,-5,-6,-6,-1
-9,-3,6,5,-8,2,18,5,-5,-6,-7,-1
-9,-3,5,5,-8,2,18,5,-6,-7,-7,-2
-10,-3,5,5,-8,2,18,5,-6,-7,-8,-2
-10,-3,5,6,-8,1,18,5,-6,-7,-8,-2
-10,-3,5,6,-8,1,18,5,-6,-7,-8,-2
-10,-3,5,6,-8,1,17,5,-6,-7,-9,-2
-10,-3,6,6,-8,2,17,5,-6,-8,-9,-2
-10,-3,6,6,-8,2,17,5,-6,-8,-9,-3
-10,-4,6,6,-8,1,17,5,-7,-9,-9,-3
-10,-4,5,7,-8,1,17,5,-7,-9,-10,-3
-10,-4,5,7,-8,1,17,5,-7,-9,-10,-3
-10,-4,5,7,-8,1,17,5,-7,-9,-10,-3
-10,-4,5,7,-8,1,17,5,-7,-10,-10,-3
-10,-4,5,7,-8,1,17,5,-7,-10,-11,-3
-10,-4,5,7,-8,1,16,5,-8,-11,-11,-4
-10,-4,5,7,-8,1,16,5,-8,-11,-11,-4
