leadI,leadII,leadIII,leadaVR,leadaVL,leadaVF,leadV1,leadV2,leadV3,leadV4,leadV5,leadV6
-1,-1,0,1,0,-1,-1,0,-1,-2,-1,-2
-4,-4,0,4,-1,-2,-3,0,-2,-5,-2,-5
-6,-5,0,5,-2,-3,-3,0,-3,-7,-3,-6
-7,-6,1,6,-3,-3,-3,1,-3,-9,-4,-7
-8,-7,1,7,-3,-3,-3,1,-3,-10,-5,-8
-8,-7,1,8,-3,-3,-3,1,-3,-10,-5,-8
-8,-7,1,8,-4,-3,-4,1,-3,-10,-5,-8
-8,-7,1,8,-4,-3,-4,1,-3,-10,-5,-8
-9,-8,1,8,-4,-4,-5,1,-3,-10,-5,-9
-9,-9,1,9,-4,-4,-4,1,-3,-11,-5,-9
-9,-9,1,9,-4,-4,-3,1,-4,-11,-6,-9
-9,-9,1,8,-3,-4,-2,1,-4,-11,-6,-9
-9,-8,2,8,-3,-4,0,1,-4,-10,-6,-9
-9,-8,2,8,-4,-4,0,2,-4,-10,-6,-9
-9,-8,2,9,-4,-4,0,1,-4,-11,-6,-9
-9,-8,2,9,-4,-4,0,1,-5,-12,-7,-10
-10,-8,2,9,-5,-4,0,0,-5,-12,-7,-10
-9,-8,2,9,-4,-4,0,0,-5,-12,-7,-9
-8,-7,2,8,-3,-4,0,1,-5,-12,-7,-9
-8,-8,2,8,-3,-4,1,1,-5,-12,-7,-9
-9,-8,2,9,-4,-4,1,1,-5,-12,-7,-10
-10,-9,2,9,-5,-4,1,2,-5,-12,-7,-10
-10,-9,2,9,-5,-4,1,2,-5,-12,-7,-10
-10,-9,2,9,-5,-4,1,2,-5,-12,-7,-10
-10,-9,2,9,-5,-4,1,2,-5,-12,-7,-10
-9,-9,2,9,-4,-4,1,2,-5,-12,-7,-10
-9,-9,2,9,-4,-4,2,2,-5,-12,-7,-10
-8,-9,1,8,-4,-4,2,2,-6,-13,-8,-10
-8,-9,1,8,-3,-4,2,2,-6,-13,-8,-11
-8,-9,1,9,-3,-4,2,2,-6,-14,-9,-11
-9,-9,1,9,-4,-4,2,3,-6,-14,-9,-11
-9,-9,0,9,-4,-5,3,3,-6,-14,-9,-11
-9,-9,1,9,-4,-4,3,3,-6,-14,-9,-11
-10,-9,2,9,-4,-4,3,4,-6,-14,-9,-11
-10,-9,2,9,-5,-4,3,4,-7,-15,-9,-11
-10,-9,2,9,-5,-4,3,4,-7,-15,-10,-12
-10,-9,2,9,-5,-4,3,4,-7,-15,-10,-12
-10,-9,2,9,-5,-4,4,5,-7,-15,-10,-12
-11,-9,2,10,-5,-4,4,5,-7,-15,-10,-12
-11,-9,2,10,-5,-4,4,6,-7,-16,-11,-12
-10,-9,2,10,-5,-4,5,6,-7,-16,-11,-12
-10,-9,2,10,-5,-4,5,7,-7,-17,-11,-12
-9,-9,2,10,-4,-4,6,7,-8,-17,-11,-13
-9,-9,2,10,-4,-4,6,8,-8,-18,-12,-13
-10,-9,2,10,-5,-4,7,9,-8,-18,-12,-13
-11,-9,3,10,-6,-4,8,10,-8,-18,-12,-13
-11,-9,3,10,-6,-4,9,11,-8,-18,-12,-14
-11,-9,2,10,-6,-4,10,12,-8,-18,-13,-14
-12,-9,3,11,-7,-3,11,13,-8,-18,-13,-14
-12,-9,3,11,-7,-3,11,14,-7,-18,-13,-14
-12,-10,3,11,-7,-4,12,15,-7,-18,-13,-14
-12,-10,3,11,-6,-4,12,16,-7,-18,-13,-14
-11,-10,3,10,-6,-4,14,17,-7,-18,-13,-14
-10,-9,3,9,-6,-3,15,19,-7,-18,-13,-14
-10,-8,3,9,-6,-3,16,21,-7,-18,-13,-14
-11,-8,3,9,-6,-3,17,22,-6,-18,-13,-14
-10,-8,3,9,-6,-3,18,24,-5,-18,-13,-14
-10,-7,3,8,-6,-2,19,25,-4,-18,-13,-13
-9,-7,3,8,-5,-2,20,26,-4,-18,-13,-13
-9,-7,2,8,-5,-2,20,27,-3,-18,-13,-13
-9,-6,3,8,-5,-2,20,28,-3,-18,-13,-13
-9,-5,4,7,-5,-1,21,30,-2,-17,-12,-13
-8,-5,4,7,-5,-1,21,32,-1,-17,-12,-12
-8,-5,3,7,-5,-1,22,33,0,-17,-11,-12
-7,-5,2,7,-4,-2,22,35,1,-16,-11,-12
-6,-5,2,6,-4,-2,22,36,2,-16,-10,-11
-5,-3,2,4,-3,-1,22,37,3,-15,-10,-11
-3,-2,2,3,-2,-1,22,38,4,-14,-9,-10
-3,-2,2,2,-2,0,21,39,5,-13,-8,-9
-3,-1,2,2,-2,0,21,39,6,-13,-7,-8
-2,-1,2,1,-1,0,20,40,7,-12,-6,-7
0,0,1,0,0,0,19,41,8,-11,-5,-6
1,2,1,-1,0,0,18,41,9,-10,-4,-5
2,2,1,-2,1,1,16,41,11,-9,-3,-4
3,3,1,-2,1,1,15,41,12,-8,-2,-3
3,3,1,-3,2,1,13,41,13,-7,-1,-1
4,4,1,-4,2,2,12,40,14,-6,0,0
4,5,2,-5,2,2,12,40,14,-4,2,1
5,6,2,-6,2,3,11,39,15,-3,3,2
6,7,1,-7,3,3,11,39,16,-2,4,3
7,8,1,-8,4,4,10,38,16,-1,5,4
8,9,1,-8,4,4,9,36,17,0,6,5
9,10,1,-9,4,5,9,35,18,1,8,7
9,10,2,-10,4,5,8,33,18,2,9,8
10,11,2,-10,4,5,6,32,18,3,10,9
11,11,1,-11,5,5,5,30,19,4,11,10
11,11,1,-11,5,5,3,29,19,5,12,11
11,11,1,-11,5,6,2,27,19,6,14,12
11,12,2,-12,6,6,1,26,19,7,15,13
11,13,2,-12,6,7,0,24,19,8,15,13
11,13,3,-12,5,7,-2,23,19,8,16,14
11,13,3,-12,5,7,-3,21,19,9,16,14
10,13,3,-12,5,7,-4,20,19,10,17,15
10,12,3,-11,4,7,-5,18,19,10,18,15
10,12,3,-11,5,7,-6,17,18,11,18,15
11,12,2,-12,6,7,-6,16,18,11,19,15
12,13,2,-12,6,7,-6,15,18,12,19,16
12,12,2,-12,6,6,-6,14,18,12,19,16
11,12,2,-12,5,6,-6,13,17,12,19,16
11,12,2,-12,5,6,-6,12,17,12,19,16
11,12,2,-11,5,6,-6,11,17,12,19,16
10,12,2,-11,4,6,-6,10,17,12,19,16
9,12,2,-10,4,6,-6,10,16,12,19,16
9,11,2,-10,4,6,-6,9,16,12,19,16
9,11,2,-10,4,6,-6,8,15,12,19,16
9,11,2,-9,5,5,-6,8,14,12,19,16
9,10,2,-9,5,5,-6,7,14,12,19,16
9,10,2,-9,4,5,-6,7,13,12,18,15
8,10,3,-9,4,5,-6,6,13,12,18,15
7,9,2,-9,4,5,-6,6,13,11,18,15
8,9,1,-9,4,5,-6,5,13,11,17,15
8,9,1,-9,5,5,-7,5,12,11,17,15
8,9,1,-8,4,5,-7,5,12,11,17,15
7,8,2,-8,3,5,-7,5,12,12,17,15
7,8,3,-7,3,5,-7,5,12,12,17,15
7,8,3,-7,3,4,-7,4,11,12,17,15
7,8,3,-8,3,4,-7,4,11,12,17,15
7,8,2,-8,3,4,-6,4,11,12,16,14
7,8,2,-7,3,4,-6,4,11,12,16,14
7,8,1,-7,4,4,-6,4,10,11,16,13
8,8,1,-7,4,4,-6,4,10,11,16,13
7,8,2,-7,3,4,-6,4,10,11,16,13
6,8,2,-7,3,4,-5,3,10,11,16,13
7,8,2,-7,3,4,-5,3,10,11,15,13
7,8,2,-8,4,4,-5,3,10,11,15,13
7,8,2,-8,4,4,-5,3,10,10,15,13
7,8,2,-8,3,5,-5,3,10,10,15,13
7,8,2,-7,3,5,-5,3,9,10,15,13
7,8,1,-7,3,4,-5,3,9,10,15,13
7,8,1,-7,3,4,-5,3,9,10,15,13
7,7,1,-7,3,3,-5,3,9,9,14,12
6,7,1,-6,3,3,-5,2,9,9,14,12
5,6,1,-6,3,3,-5,2,9,9,14,12
4,6,2,-5,2,3,-5,2,9,9,14,12
4,6,2,-5,2,3,-4,2,9,10,14,12
5,7,2,-6,2,4,-3,3,9,10,14,12
6,7,2,-6,2,4,-3,3,9,10,14,12
6,7,2,-6,2,4,-3,3,9,10,14,12
5,7,2,-6,2,4,-3,3,9,9,13,11
5,7,2,-6,2,4,-3,3,9,9,13,11
5,7,2,-6,2,4,-2,3,9,9,13,11
5,7,2,-6,2,4,-2,3,9,9,13,11
4,7,2,-6,2,4,-2,3,9,8,13,10
4,7,2,-6,2,4,-2,3,8,8,12,10
5,6,2,-6,2,4,-2,3,8,8,12,10
5,6,1,-6,2,4,-2,3,8,8,12,10
5,6,2,-5,2,4,-2,3,8,8,12,9
4,6,3,-5,1,4,-2,4,8,8,12,9
5,6,3,-5,2,4,-2,4,8,8,12,9
5,6,2,-6,2,4,-2,4,8,8,12,9
4,6,2,-5,2,4,-2,4,8,8,12,8
3,5,2,-4,1,4,-1,5,8,8,12,8
3,5,3,-4,0,4,-1,5,8,8,12,8
3,5,3,-3,0,4,0,5,8,7,11,8
3,5,3,-3,0,4,0,5,8,7,11,8
3,5,3,-3,0,4,1,5,8,7,11,8
3,6,3,-4,0,4,1,5,8,7,11,8
4,6,3,-4,0,4,2,5,8,7,11,8
4,6,3,-4,1,4,2,5,8,7,11,7
4,6,2,-5,1,4,2,5,8,6,10,7
4,6,2,-5,1,4,2,5,8,6,10,7
4,6,2,-5,1,4,2,5,8,6,10,7
4,5,2,-5,1,4,3,5,8,6,10,7
3,5,3,-4,1,3,3,5,8,6,10,6
2,5,3,-4,0,3,3,5,8,7,10,6
2,5,3,-3,0,4,3,6,8,7,10,6
2,5,3,-4,0,4,3,6,7,7,10,6
3,6,4,-4,0,4,3,6,7,6,10,6
3,6,5,-4,0,5,4,6,7,6,10,6
2,6,5,-4,-1,5,4,6,8,6,10,6
3,6,5,-5,0,5,4,6,8,6,10,6
3,7,5,-5,0,6,4,7,8,6,10,7
3,8,6,-6,0,7,5,7,8,7,11,7
3,9,6,-6,0,8,5,8,8,7,11,8
3,9,7,-6,0,8,5,8,9,8,11,8
3,9,7,-6,-1,8,6,8,9,8,11,8
3,10,7,-7,-1,9,6,9,10,8,11,8
4,11,7,-8,-1,9,6,9,10,9,12,9
5,12,7,-8,0,9,6,9,10,9,12,9
5,12,7,-8,0,9,5,9,10,10,12,9
5,12,7,-8,0,10,5,9,10,10,13,9
6,13,8,-9,0,10,5,9,10,10,13,9
6,13,8,-9,0,10,4,9,10,10,13,9
6,13,8,-9,0,10,4,8,10,10,13,10
6,13,8,-10,0,10,3,8,9,10,13,10
7,14,7,-11,1,10,1,8,9,10,13,10
8,14,7,-11,2,10,0,7,9,9,13,10
8,14,7,-11,2,10,-1,6,9,9,13,10
8,14,7,-11,2,10,-3,5,8,9,13,10
8,14,6,-11,2,10,-4,4,8,9,13,10
8,15,6,-12,2,10,-6,4,7,9,13,10
8,15,6,-12,2,10,-7,3,7,9,13,10
9,14,5,-12,3,9,-8,3,7,9,13,10
9,14,5,-12,3,9,-9,3,7,9,14,11
9,13,5,-12,3,9,-10,4,7,9,14,11
10,13,4,-12,3,8,-10,4,7,10,14,11
11,13,3,-12,4,8,-9,5,7,10,15,11
10,13,3,-11,4,8,-9,5,7,10,15,11
10,12,3,-10,4,7,-8,5,7,10,15,11
10,12,2,-10,4,6,-8,5,8,10,15,11
10,11,2,-10,5,6,-7,6,9,11,16,12
10,11,1,-10,5,6,-6,7,9,11,16,12
9,10,1,-10,5,6,-6,8,10,11,16,12
9,9,1,-9,5,5,-6,8,10,11,16,12
8,9,1,-9,4,5,-5,8,10,11,16,11
7,8,1,-8,4,5,-5,8,10,11,16,11
6,8,1,-7,3,4,-5,8,10,10,16,11
5,7,1,-6,3,4,-5,7,10,10,15,10
3,5,1,-4,2,3,-4,7,9,9,14,9
2,3,1,-3,1,2,-3,7,8,8,13,8
1,2,2,-2,1,2,-3,6,7,8,12,7
1,2,2,-2,0,1,-3,6,6,7,11,6
0,1,2,-2,0,1,-3,5,6,7,11,6
0,1,1,-2,0,1,-3,5,5,6,11,6
0,1,1,-2,0,1,-3,4,5,6,11,6
0,1,1,-1,0,1,-3,4,4,6,10,6
0,0,1,0,0,1,-3,3,4,5,10,6
0,0,0,0,1,0,-3,3,4,5,10,5
0,0,0,0,1,0,-3,3,4,5,10,5
1,0,0,0,1,0,-3,4,4,6,10,5
0,0,0,0,1,0,-2,4,4,6,10,5
0,0,0,0,1,0,-2,4,4,6,10,5
0,1,0,-1,1,0,-2,3,4,6,10,5
1,1,0,-1,1,0,-2,3,4,6,10,5
1,1,0,-1,1,0,-2,3,4,6,10,5
1,1,0,-1,1,0,-2,3,4,6,10,5
1,1,1,-1,1,1,-2,3,4,6,10,5
1,1,1,-1,1,1,-2,3,4,6,10,4
1,0,0,-1,1,0,-3,3,4,6,10,4
1,0,0,-1,1,0,-3,3,4,6,10,4
0,0,0,-1,1,0,-3,3,4,6,10,4
0,0,0,-1,1,0,-3,3,4,5,10,4
0,0,0,-1,1,0,-3,3,4,5,10,5
0,0,0,0,1,0,-2,4,4,6,10,5
0,0,0,0,1,0,-1,5,5,6,10,4
1,0,-1,0,2,0,-1,6,5,6,9,4
1,0,-1,0,2,0,0,9,7,6,9,3
1,0,0,0,2,0,1,13,9,7,10,4
1,0,0,0,1,0,4,17,12,9,11,5
1,1,1,-1,1,1,6,19,15,12,13,6
2,3,1,-3,1,2,6,20,18,14,15,7
3,4,1,-4,2,2,5,18,21,17,17,9
4,4,1,-4,2,3,3,14,23,20,19,10
6,5,0,-6,4,3,-1,9,25,22,21,11
9,7,-1,-8,6,3,-6,5,28,27,25,14
14,9,-3,-12,10,3,-13,-1,34,34,31,19
22,14,-6,-18,15,3,-24,-9,41,44,41,27
32,20,-10,-26,22,4,-37,-16,51,57,53,37
42,28,-13,-35,28,6,-54,-23,63,73,68,50
52,35,-15,-44,34,9,-72,-31,73,87,83,62
60,41,-17,-51,40,11,-90,-41,79,98,94,72
67,46,-20,-57,45,12,-106,-52,81,105,103,81
74,50,-22,-62,49,14,-120,-65,79,110,110,89
79,55,-23,-66,52,16,-132,-80,75,114,117,96
83,59,-22,-71,54,19,-144,-95,70,117,123,104
85,64,-20,-75,54,22,-152,-107,65,120,129,111
85,70,-15,-77,51,27,-158,-120,58,121,134,117
80,76,-3,-78,43,35,-159,-134,45,119,134,121
71,83,12,-77,31,47,-157,-150,27,113,131,122
61,90,30,-76,17,60,-153,-162,7,102,124,120
51,93,44,-72,5,68,-147,-171,-15,85,110,113
40,90,52,-65,-4,70,-138,-176,-41,59,88,98
28,82,56,-55,-12,69,-126,-176,-65,29,62,79
17,72,56,-44,-17,63,-112,-170,-83,3,37,59
7,58,51,-33,-20,54,-97,-159,-93,-18,15,39
0,43,44,-22,-20,44,-82,-145,-97,-33,-2,22
-7,31,38,-13,-21,35,-69,-128,-95,-43,-14,8
-12,22,35,-5,-22,28,-58,-113,-90,-47,-22,-1
-15,16,32,0,-22,24,-49,-99,-84,-49,-27,-8
-16,11,29,2,-21,20,-41,-87,-78,-50,-30,-14
-16,7,25,4,-19,16,-34,-76,-72,-50,-31,-17
-16,2,20,6,-17,11,-28,-67,-66,-48,-32,-20
-17,-1,16,8,-15,6,-23,-58,-59,-46,-31,-21
-17,-5,12,10,-13,3,-18,-50,-53,-43,-30,-21
-16,-8,8,11,-11,0,-13,-42,-47,-39,-29,-22
-15,-10,5,12,-10,-2,-9,-34,-42,-36,-27,-22
-15,-12,4,13,-9,-4,-5,-28,-38,-32,-25,-22
-14,-12,3,13,-8,-4,-2,-23,-33,-29,-23,-21
-14,-12,2,13,-7,-4,0,-18,-29,-27,-21,-19
-13,-12,2,13,-7,-5,3,-14,-25,-25,-19,-18
-13,-11,1,12,-6,-5,5,-11,-22,-22,-17,-17
-12,-12,0,12,-5,-6,7,-8,-20,-20,-16,-17
-12,-12,0,12,-5,-6,8,-6,-18,-19,-16,-17
-12,-12,0,12,-5,-6,9,-4,-17,-18,-15,-17
-12,-12,1,12,-5,-5,10,-3,-16,-18,-14,-17
-12,-12,1,12,-5,-5,10,-2,-16,-17,-14,-17
-12,-13,0,12,-5,-6,11,-1,-15,-17,-13,-16
-12,-13,0,12,-4,-6,12,-1,-15,-17,-13,-16
-12,-13,-1,13,-4,-7,12,-1,-15,-17,-13,-16
-12,-13,-1,13,-5,-7,13,-1,-14,-17,-13,-16
-12,-13,-1,12,-5,-7,13,0,-14,-17,-13,-16
-11,-13,-1,12,-4,-7,13,0,-14,-17,-13,-16
-11,-13,-1,11,-5,-7,13,0,-14,-17,-13,-16
-12,-13,0,11,-6,-6,12,0,-14,-17,-13,-16
-12,-13,0,11,-6,-6,12,0,-14,-17,-13,-16
-11,-12,0,11,-5,-6,12,0,-14,-17,-13,-16
-11,-12,0,11,-5,-6,12,0,-14,-17,-13,-16
-11,-12,0,11,-5,-6,12,0,-14,-17,-13,-17
-11,-12,0,11,-5,-6,12,0,-15,-17,-14,-17
-12,-12,0,12,-5,-6,12,0,-15,-18,-14,-17
-12,-12,0,12,-6,-5,12,0,-15,-18,-14,-17
-13,-12,1,13,-6,-5,12,0,-15,-18,-14,-17
-13,-13,1,13,-6,-6,13,0,-15,-18,-14,-17
-13,-13,1,13,-6,-6,13,0,-15,-18,-14,-17
-13,-13,1,13,-6,-5,13,0,-15,-18,-14,-17
-14,-12,2,13,-7,-4,14,0,-15,-18,-13,-17
-14,-12,2,13,-7,-4,15,0,-15,-18,-13,-17
-13,-12,1,13,-7,-5,15,0,-15,-18,-13,-17
-13,-12,1,12,-6,-5,16,0,-15,-18,-13,-17
-12,-11,1,11,-6,-5,17,0,-15,-18,-13,-17
-12,-11,1,11,-6,-5,17,0,-15,-18,-13,-17
-12,-11,1,11,-6,-5,18,0,-16,-18,-13,-17
-13,-11,2,12,-7,-5,18,0,-16,-18,-14,-17
-13,-12,2,13,-7,-5,18,0,-17,-19,-14,-18
-13,-12,1,13,-6,-5,18,1,-17,-19,-14,-18
-13,-11,1,12,-6,-5,18,1,-17,-19,-14,-18
-12,-11,1,12,-5,-5,18,1,-17,-19,-15,-18
-12,-11,1,12,-6,-5,18,1,-17,-19,-15,-18
-12,-11,1,12,-6,-5,18,1,-17,-19,-15,-18
-12,-11,1,12,-6,-5,18,2,-17,-19,-14,-17
-13,-11,1,12,-6,-5,17,2,-17,-19,-14,-17
-13,-11,1,12,-7,-5,17,3,-17,-19,-14,-18
-14,-12,2,13,-7,-5,18,3,-17,-20,-14,-18
-14,-12,2,13,-7,-5,18,3,-17,-20,-14,-19
-14,-12,2,13,-7,-5,17,3,-18,-20,-15,-19
-14,-12,2,13,-7,-5,17,3,-18,-20,-15,-19
-14,-12,2,13,-7,-5,18,4,-18,-21,-15,-19
-13,-12,2,13,-7,-5,18,4,-18,-21,-16,-19
-13,-12,1,13,-7,-5,18,4,-19,-21,-16,-20
-13,-12,1,13,-7,-5,18,5,-19,-21,-16,-20
-13,-11,2,13,-7,-5,19,5,-18,-21,-16,-20
-14,-12,2,13,-7,-4,19,6,-18,-22,-16,-20
-15,-12,2,14,-7,-4,20,7,-18,-22,-16,-20
-15,-13,2,14,-8,-4,21,7,-18,-22,-16,-21
-16,-13,2,15,-8,-5,21,8,-18,-22,-16,-21
-16,-13,2,15,-8,-5,22,9,-18,-23,-17,-21
-16,-13,1,15,-8,-5,22,10,-18,-23,-17,-21
-16,-13,1,14,-8,-5,22,11,-18,-24,-18,-21
-16,-13,2,14,-8,-5,22,12,-18,-24,-18,-22
-16,-13,2,14,-8,-5,22,13,-18,-24,-18,-22
-16,-13,3,14,-8,-5,23,14,-17,-24,-18,-22
-16,-13,3,14,-8,-5,24,15,-17,-24,-18,-22
-15,-13,3,14,-8,-5,24,16,-16,-24,-18,-22
-15,-13,3,14,-8,-5,25,17,-16,-24,-18,-22
-14,-12,3,13,-8,-4,26,19,-15,-23,-18,-22
-14,-11,3,13,-8,-4,27,21,-15,-23,-18,-22
-14,-11,2,13,-7,-4,27,22,-14,-23,-18,-22
-13,-11,1,13,-6,-5,27,23,-14,-23,-18,-22
-13,-11,1,13,-6,-5,28,24,-13,-23,-18,-22
-13,-11,3,13,-7,-4,28,26,-12,-23,-17,-21
-13,-10,4,12,-7,-3,29,28,-11,-22,-17,-21
-13,-10,4,12,-7,-3,29,30,-10,-22,-16,-21
-13,-10,4,11,-7,-3,29,31,-9,-22,-16,-20
-13,-10,3,11,-7,-3,29,33,-8,-21,-15,-20
-12,-10,3,10,-7,-3,29,34,-7,-21,-15,-19
-12,-9,3,10,-7,-2,29,36,-6,-20,-14,-19
-10,-7,3,9,-6,-2,29,37,-4,-19,-13,-18
-8,-6,2,7,-5,-2,29,38,-3,-18,-12,-17
-7,-5,2,6,-4,-2,29,39,-1,-17,-11,-16
-6,-5,2,6,-3,-2,29,40,0,-16,-10,-15
-5,-4,2,5,-3,-1,29,41,0,-16,-9,-14
-5,-4,2,4,-3,-1,29,42,1,-15,-8,-13
-4,-3,2,3,-2,-1,29,42,2,-14,-7,-12
-3,-2,2,2,-2,0,29,43,3,-13,-6,-10
-2,-1,2,1,-1,0,28,43,4,-11,-4,-9
0,0,1,0,0,0,27,43,5,-10,-3,-8
1,2,1,-2,1,1,26,43,7,-8,-1,-6
2,3,1,-3,1,1,25,42,8,-7,0,-5
3,4,1,-3,1,2,24,42,8,-6,1,-5
4,4,1,-4,2,2,22,41,9,-5,1,-4
4,4,1,-4,2,3,21,40,9,-5,2,-3
4,5,2,-4,2,3,21,39,10,-4,4,-2
5,6,2,-6,2,4,20,38,10,-2,5,0
6,8,1,-7,3,4,19,36,11,-1,7,1
8,9,1,-8,4,4,18,35,11,0,8,2
8,9,1,-9,5,5,16,33,11,1,10,3
9,9,1,-9,5,5,15,31,11,2,11,4
9,10,1,-9,5,5,13,29,11,2,11,4
9,10,1,-9,5,6,12,27,11,3,12,5
8,10,1,-9,4,6,11,26,12,4,13,6
8,10,2,-9,4,6,10,24,12,5,14,7
8,10,2,-9,4,6,9,22,11,6,15,8
8,11,2,-9,4,6,8,20,11,6,15,8
9,12,2,-10,4,7,8,19,11,7,16,9
9,12,3,-10,4,7,8,18,11,8,17,10
9,11,2,-10,4,6,8,17,11,8,17,10
8,10,2,-9,4,6,7,16,11,8,17,9
8,9,2,-9,4,6,7,14,11,8,17,9
7,9,2,-8,3,6,6,13,11,8,17,9
7,9,2,-8,3,6,5,12,10,8,17,9
7,9,2,-8,3,6,5,11,10,8,17,9
7,9,2,-8,3,6,4,10,9,8,17,9
7,9,1,-8,4,5,4,9,8,8,16,9
8,9,0,-8,5,5,3,8,8,7,16,9
9,9,0,-8,5,5,3,8,7,7,15,8
8,9,1,-8,4,5,3,7,7,7,15,8
7,9,2,-8,3,6,3,7,7,8,15,8
6,9,3,-8,2,6,3,7,7,8,15,8
5,8,3,-7,2,6,3,6,6,7,15,8
5,7,2,-7,2,5,2,6,6,7,14,8
5,7,2,-6,2,4,2,5,6,7,14,8
5,7,2,-6,2,5,2,5,6,7,14,8
5,7,2,-6,2,5,2,5,5,7,14,8
5,7,2,-6,2,5,2,4,5,6,13,7
5,7,1,-6,2,5,2,4,4,6,13,7
6,7,1,-6,2,4,2,3,4,6,13,6
6,7,1,-6,3,4,2,3,4,6,13,6
6,7,1,-6,3,4,2,3,4,5,13,6
6,7,1,-5,2,4,2,3,4,5,13,6
6,7,1,-5,3,4,2,3,4,5,12,6
6,7,0,-6,3,4,2,3,3,5,12,6
6,7,0,-6,3,4,2,3,3,5,11,6
6,6,0,-6,3,4,1,3,3,5,11,6
5,6,0,-6,3,4,1,3,3,5,11,6
5,6,0,-6,3,4,0,3,3,5,11,6
5,6,0,-5,3,4,0,3,3,4,10,6
5,5,0,-5,3,4,0,3,3,4,10,6
5,5,0,-5,3,4,0,3,3,4,10,6
5,5,0,-5,3,3,0,3,3,4,9,6
5,5,0,-5,3,3,0,3,2,4,9,6
5,5,0,-6,4,3,0,3,2,4,9,5
5,5,0,-5,3,3,0,3,2,4,9,5
4,4,0,-4,3,3,0,3,2,3,8,5
4,4,0,-4,3,2,0,2,2,3,8,5
4,5,0,-4,3,3,0,2,2,3,8,5
4,5,1,-4,3,3,0,2,2,4,8,5
4,5,1,-4,2,4,0,2,2,4,8,5
5,5,1,-5,2,4,0,2,2,4,7,5
6,5,0,-5,3,3,0,2,2,3,7,5
6,6,0,-6,3,3,0,2,2,3,7,5
6,6,0,-6,3,3,0,3,2,3,7,5
5,5,0,-5,3,3,0,3,2,3,7,5
4,5,0,-5,3,3,0,3,2,3,7,5
4,5,0,-5,3,3,0,3,2,3,7,5
4,4,0,-5,3,3,0,3,2,3,6,4
4,4,0,-4,2,3,0,3,1,3,6,4
3,4,1,-4,2,3,1,3,1,2,6,4
3,4,1,-4,1,3,1,3,1,2,6,4
3,4,1,-4,1,3,1,4,1,2,6,4
3,4,1,-4,1,3,1,4,1,2,6,4
3,4,1,-4,1,3,1,5,1,2,6,4
3,4,1,-4,1,3,1,5,1,2,6,4
3,4,1,-3,1,3,0,5,1,2,6,4
3,3,0,-3,1,3,-1,5,2,2,6,4
3,3,0,-3,1,2,-1,5,2,2,6,5
3,3,0,-4,2,2,-1,5,2,2,6,5
3,3,0,-4,2,2,-1,5,2,2,6,4
3,3,0,-3,2,2,-1,5,2,1,5,3
3,3,0,-3,2,2,-1,5,1,1,4,3
3,3,0,-4,2,2,0,5,1,1,4,3
3,3,1,-4,1,2,0,6,1,1,4,3
2,3,0,-3,1,2,0,6,1,0,4,3
2,2,0,-3,1,1,0,6,1,0,3,3
2,1,-1,-3,1,1,0,6,1,0,3,3
2,2,0,-3,1,1,0,6,1,0,3,3
2,3,0,-3,1,2,1,6,1,0,3,3
2,3,0,-3,1,2,1,6,1,0,3,2
3,4,0,-4,1,2,1,6,1,0,3,2
3,4,0,-4,2,3,2,6,2,1,3,3
4,5,1,-5,2,3,2,7,2,1,4,3
4,5,1,-5,2,4,3,7,2,2,5,4
4,6,2,-6,1,4,4,7,3,2,5,4
4,7,2,-6,1,5,5,7,3,3,6,5
4,7,2,-6,1,5,6,8,4,3,7,5
5,8,2,-7,1,5,7,8,4,3,7,5
5,8,2,-7,1,6,9,9,4,3,7,5
6,8,2,-8,1,6,9,9,4,3,7,5
6,8,2,-8,1,6,9,9,4,3,7,5
6,9,2,-8,1,6,10,9,4,3,7,5
6,10,3,-8,1,7,10,9,5,3,7,6
7,11,3,-9,1,8,10,10,5,4,8,6
8,12,3,-9,2,8,10,9,5,4,8,6
8,12,2,-10,3,8,10,9,5,4,8,7
8,12,3,-10,2,8,10,9,5,5,8,7
8,11,2,-10,3,8,9,9,5,5,9,8
9,11,1,-11,4,7,8,9,5,5,9,8
10,11,0,-11,4,6,7,8,5,5,9,8
10,11,1,-11,4,7,6,7,5,5,9,8
10,12,1,-11,4,7,5,7,5,5,10,8
10,12,1,-11,4,7,5,6,5,5,10,8
10,12,2,-11,4,7,4,5,5,5,10,9
10,12,1,-11,5,7,2,4,4,5,10,9
11,13,1,-12,5,7,1,3,4,5,10,9
12,14,1,-13,6,7,0,3,5,5,10,10
12,13,1,-13,6,7,0,3,5,5,10,10
12,12,0,-12,6,7,0,3,5,6,11,10
12,11,-1,-12,7,6,0,4,5,6,11,10
13,11,-2,-12,8,5,0,4,5,6,11,10
13,10,-3,-12,8,4,0,5,5,6,11,10
12,9,-4,-11,8,3,1,5,6,6,11,10
12,9,-4,-10,8,3,2,6,6,6,11,10
11,8,-4,-10,8,3,2,6,6,6,11,10
11,8,-4,-10,8,3,3,7,6,6,11,9
11,8,-4,-10,8,3,4,7,6,6,11,9
11,7,-4,-10,8,2,4,7,7,6,11,9
10,6,-3,-8,7,2,5,7,7,7,11,8
8,5,-2,-6,5,2,6,7,7,7,11,8
6,5,-1,-5,4,2,6,7,6,6,11,8
6,4,-2,-4,4,2,6,7,6,6,10,7
5,3,-2,-3,3,0,6,7,5,5,10,7
4,2,-3,-3,3,0,6,6,5,4,9,6
3,1,-3,-2,3,-1,6,6,4,4,8,6
3,0,-3,-1,3,-1,7,5,4,3,8,5
2,-1,-3,-1,3,-2,7,5,3,3,7,5
2,-1,-4,0,3,-2,7,4,3,2,7,4
3,-1,-4,0,3,-2,7,4,2,2,7,4
2,-1,-4,0,2,-2,7,3,2,1,6,3
2,-1,-4,0,2,-2,7,3,1,1,6,3
3,-1,-5,-1,3,-2,8,3,1,1,6,3
3,-1,-5,-1,3,-2,9,3,1,1,5,2
2,-1,-4,0,3,-2,10,3,0,1,5,2
3,-1,-4,-1,4,-2,10,3,0,1,4,2
3,-1,-5,-1,4,-2,9,3,0,1,4,2
3,-2,-5,0,4,-3,9,3,0,1,4,2
3,-2,-5,0,4,-3,9,3,1,1,5,2
3,-2,-5,0,4,-3,9,3,1,1,5,2
2,-2,-5,0,3,-3,9,3,1,1,5,2
2,-2,-5,0,3,-3,10,3,1,1,5,2
1,-2,-4,0,2,-2,10,3,1,1,5,2
2,-1,-4,0,3,-2,11,3,1,1,5,2
3,-1,-4,-1,3,-2,11,3,1,1,5,2
2,-2,-4,0,3,-3,11,3,0,1,5,2
2,-2,-4,0,3,-3,11,3,0,2,5,3
2,-3,-5,0,3,-3,11,3,1,2,5,3
3,-3,-6,0,4,-4,11,3,1,2,5,3
2,-2,-5,0,3,-3,12,4,1,2,5,2
1,-2,-4,0,2,-2,12,6,1,2,5,2
2,-1,-4,0,2,-2,13,10,3,2,5,2
2,-1,-3,-1,2,-2,15,14,6,4,6,3
1,0,-2,-1,1,-1,17,18,9,6,7,3
2,0,-2,-1,1,0,19,20,12,8,8,4
3,1,-2,-2,2,0,19,20,15,11,10,5
4,2,-3,-4,3,0,17,17,17,13,12,7
6,3,-4,-5,5,0,15,13,19,16,14,8
9,4,-5,-7,7,0,11,9,22,19,17,10
12,6,-7,-9,9,0,6,4,27,25,22,14
18,9,-9,-14,13,0,-1,-2,33,33,29,20
26,14,-13,-20,19,0,-12,-10,41,44,39,28
36,21,-16,-29,26,2,-26,-17,51,57,52,39
48,29,-19,-38,33,5,-43,-25,62,72,66,51
59,36,-23,-47,40,7,-61,-35,71,85,79,63
68,42,-26,-55,47,9,-78,-46,74,93,89,72
76,47,-30,-61,53,9,-93,-59,74,98,96,79
82,51,-31,-67,57,10,-107,-74,70,101,102,86
87,56,-31,-71,59,13,-120,-90,65,104,108,94
89,60,-30,-75,60,16,-131,-105,59,106,114,101
91,64,-27,-77,59,19,-140,-118,52,107,118,108
89,69,-20,-79,54,24,-145,-132,43,107,121,113
82,76,-7,-79,45,34,-145,-146,30,105,121,117
73,83,10,-78,31,47,-142,-159,14,99,118,118
62,89,27,-76,17,59,-137,-169,-4,89,110,116
51,90,40,-71,5,66,-131,-175,-25,71,96,107
39,86,47,-63,-4,67,-121,-177,-49,45,73,92
27,78,51,-53,-11,65,-109,-176,-71,17,48,72
16,66,50,-41,-16,58,-95,-168,-86,-6,24,52
6,52,45,-29,-19,49,-80,-156,-95,-25,4,33
-1,38,39,-18,-20,39,-66,-140,-97,-38,-12,16
-7,27,34,-10,-21,31,-54,-124,-94,-47,-24,3
-11,18,30,-4,-21,25,-43,-109,-90,-52,-32,-6
-15,12,27,0,-22,21,-34,-95,-84,-54,-37,-13
-17,7,25,4,-21,17,-26,-83,-77,-54,-39,-17
-18,2,20,7,-19,11,-19,-72,-70,-53,-39,-19
-18,-3,14,9,-15,6,-14,-63,-64,-51,-39,-21
-17,-6,9,11,-13,2,-8,-54,-58,-49,-39,-22
-16,-9,5,12,-10,-2,-4,-46,-53,-46,-39,-23
-15,-12,1,13,-8,-5,0,-39,-48,-43,-38,-24
-15,-15,-1,15,-7,-7,4,-32,-43,-40,-36,-24
-15,-16,-1,15,-8,-8,8,-26,-38,-36,-34,-24
-15,-16,-1,15,-7,-8,11,-21,-34,-33,-32,-23
-14,-16,-2,14,-6,-8,14,-17,-30,-30,-30,-22
-13,-15,-2,14,-5,-8,17,-13,-26,-28,-28,-21
-13,-15,-2,13,-5,-8,19,-10,-24,-27,-27,-20
-13,-15,-2,13,-5,-8,20,-8,-22,-25,-26,-20
-13,-15,-3,13,-4,-8,21,-6,-20,-24,-26,-19
-13,-15,-3,13,-5,-8,22,-4,-19,-23,-25,-19
-12,-15,-3,13,-5,-8,22,-3,-18,-22,-25,-18
-12,-15,-3,13,-5,-8,23,-2,-18,-22,-24,-18
-12,-15,-3,13,-5,-8,24,-2,-17,-21,-24,-18
-12,-15,-3,13,-4,-8,25,-2,-16,-21,-24,-18
-12,-15,-3,13,-4,-9,25,-2,-16,-21,-24,-18
-12,-15,-3,13,-4,-9,26,-2,-16,-20,-24,-18
-12,-15,-3,13,-4,-9,26,-2,-16,-20,-24,-18
-12,-15,-4,13,-4,-9,26,-1,-16,-20,-24,-18
-11,-16,-5,13,-3,-9,26,-1,-15,-19,-24,-18
-11,-16,-5,13,-4,-9,26,0,-15,-19,-23,-18
-12,-16,-5,14,-4,-9,27,0,-15,-19,-23,-17
-12,-16,-5,14,-4,-9,27,0,-15,-19,-23,-17
-12,-16,-5,13,-3,-9,28,0,-15,-19,-23,-17
-12,-16,-5,13,-3,-9,27,-1,-15,-19,-23,-18
-12,-15,-4,13,-4,-8,27,-1,-15,-19,-23,-18
-12,-14,-2,12,-5,-7,27,0,-15,-18,-23,-17
-12,-13,-1,12,-5,-6,28,0,-15,-18,-24,-17
-12,-13,-2,12,-5,-6,28,-1,-15,-19,-25,-18
-12,-13,-2,12,-5,-7,28,-1,-15,-19,-25,-19
-12,-13,-3,12,-5,-7,28,-1,-15,-19,-25,-19
-12,-14,-3,13,-5,-8,29,-1,-15,-19,-25,-19
-12,-15,-3,13,-5,-8,30,-1,-14,-19,-25,-19
-12,-15,-3,13,-4,-8,31,0,-14,-19,-24,-18
-12,-15,-3,13,-4,-8,31,0,-13,-19,-24,-18
-12,-16,-3,14,-4,-9,32,0,-13,-19,-24,-18
-13,-16,-3,14,-4,-9,31,0,-14,-19,-24,-18
-13,-16,-3,14,-5,-8,31,0,-14,-19,-24,-18
-13,-15,-2,14,-6,-7,30,0,-14,-19,-25,-17
-12,-14,-2,13,-5,-7,30,0,-14,-20,-25,-17
-12,-14,-2,12,-5,-7,30,0,-15,-20,-26,-18
-12,-14,-2,12,-5,-7,30,0,-15,-21,-26,-18
-13,-15,-2,13,-5,-7,30,0,-15,-21,-26,-18
-13,-15,-2,13,-5,-7,30,0,-15,-20,-26,-18
-13,-15,-2,14,-6,-7,30,0,-14,-20,-26,-18
-14,-16,-2,14,-6,-7,30,1,-14,-20,-26,-18
-14,-16,-2,14,-6,-8,30,1,-15,-21,-26,-18
-13,-16,-2,14,-6,-8,29,0,-15,-21,-26,-19
-13,-15,-2,14,-6,-8,29,0,-15,-21,-26,-19
-14,-15,-1,14,-7,-8,28,0,-15,-21,-27,-19
-14,-16,-1,14,-7,-8,26,1,-15,-21,-27,-19
-14,-16,-2,14,-6,-8,25,1,-15,-22,-28,-19
-13,-16,-2,14,-6,-8,24,2,-16,-22,-28,-20
-13,-16,-2,13,-6,-8,24,2,-16,-23,-28,-20
-13,-15,-2,13,-6,-8,24,2,-16,-23,-28,-20
-13,-14,-2,13,-6,-8,25,3,-16,-22,-28,-19
-13,-14,-1,13,-6,-8,25,4,-16,-22,-28,-19
-13,-15,-1,13,-6,-8,25,5,-16,-23,-29,-20
-14,-16,-2,14,-5,-8,25,5,-17,-24,-30,-21
-14,-17,-2,15,-5,-9,25,5,-17,-25,-30,-21
-15,-17,-1,16,-7,-8,26,6,-17,-25,-30,-21
-16,-17,-1,16,-8,-8,26,7,-17,-25,-30,-21
-15,-16,-1,16,-7,-8,26,7,-17,-25,-31,-22
-14,-15,0,15,-7,-8,26,8,-17,-25,-31,-22
-15,-14,0,14,-8,-7,26,9,-16,-25,-31,-22
-15,-14,1,14,-8,-6,27,10,-16,-25,-31,-22
-15,-15,0,15,-8,-7,27,11,-16,-26,-32,-22
-16,-16,0,15,-8,-7,27,12,-15,-26,-32,-22
-16,-16,0,15,-8,-7,28,14,-15,-26,-32,-22
-15,-15,0,15,-7,-7,30,15,-14,-25,-32,-22
-14,-14,0,14,-7,-6,31,16,-14,-25,-33,-22
-13,-14,0,13,-7,-6,32,17,-14,-25,-33,-22
-14,-14,0,14,-8,-6,32,19,-13,-25,-34,-22
-14,-14,0,14,-7,-7,33,20,-12,-25,-34,-22
-13,-14,-1,13,-7,-7,34,22,-11,-25,-34,-22
-13,-13,0,13,-7,-6,34,23,-10,-25,-34,-22
-13,-13,0,12,-7,-6,35,25,-9,-24,-34,-21
-13,-12,0,12,-7,-6,36,27,-8,-24,-34,-21
-12,-12,0,11,-6,-5,36,28,-7,-24,-35,-21
-12,-12,0,11,-6,-5,37,29,-7,-24,-35,-21
-11,-12,0,11,-6,-6,37,30,-6,-24,-35,-21
-11,-11,0,11,-5,-6,37,31,-4,-23,-35,-20
-10,-11,0,10,-5,-6,38,33,-3,-22,-34,-20
-10,-11,-1,10,-5,-6,39,34,-1,-21,-34,-19
-9,-10,-1,9,-4,-5,39,35,0,-21,-34,-19
-7,-9,-1,8,-3,-4,39,36,1,-20,-33,-18
-6,-8,-1,7,-3,-4,39,37,2,-20,-33,-18
-5,-7,-1,6,-3,-3,39,37,3,-19,-32,-17
-5,-6,-1,5,-3,-2,38,38,4,-18,-30,-15
-4,-6,-2,5,-2,-3,38,38,5,-17,-29,-14
-3,-5,-2,4,-1,-3,37,39,6,-16,-28,-12
-3,-4,-2,3,0,-2,37,39,7,-14,-27,-11
-1,-3,-3,2,0,-2,36,39,8,-13,-25,-10
0,-2,-3,0,1,-1,35,39,9,-12,-24,-10
1,-1,-3,0,1,-1,34,38,9,-12,-24,-9
2,0,-3,-1,1,-1,33,38,9,-11,-23,-9
2,0,-3,-1,2,-1,32,37,9,-11,-22,-7
3,0,-3,-1,2,-1,31,36,10,-9,-20,-5
4,1,-3,-2,2,0,30,35,11,-7,-18,-3
5,2,-3,-4,3,0,28,34,11,-6,-16,-1
7,4,-4,-6,4,0,27,32,11,-5,-15,0
8,5,-3,-7,4,1,25,30,11,-4,-15,0
8,7,-1,-8,4,3,24,29,12,-3,-13,1
9,7,-1,-8,4,4,23,27,12,-1,-11,2
8,7,-1,-8,4,4,22,26,12,0,-10,3
8,6,-1,-7,4,3,21,25,12,0,-9,4
7,6,-1,-7,4,3,20,22,11,0,-9,4
7,6,-1,-7,4,2,18,20,11,0,-9,4
6,5,-1,-7,4,2,17,19,11,1,-9,5
6,5,-2,-6,4,2,15,17,11,2,-8,5
6,4,-2,-6,4,1,14,16,11,2,-7,5
6,4,-3,-6,4,1,14,15,11,3,-7,5
7,5,-3,-6,4,1,14,15,12,4,-6,6
7,5,-2,-6,4,2,13,14,12,4,-5,6
7,5,-2,-6,4,2,13,12,11,5,-5,6
7,5,-2,-6,4,2,12,11,11,6,-5,6
7,6,-2,-6,4,2,12,10,11,6,-5,6
7,6,-1,-6,3,3,12,9,10,6,-5,6
6,6,-1,-6,3,3,11,8,10,6,-5,6
6,5,-1,-6,3,2,10,7,10,6,-5,6
6,4,-2,-5,3,1,9,6,9,6,-5,6
6,3,-3,-5,3,1,9,6,9,6,-5,6
6,3,-2,-5,3,1,9,6,9,7,-5,7
5,4,-1,-5,3,2,8,6,9,6,-5,7
4,4,-1,-5,2,2,8,5,9,6,-5,7
5,4,-1,-5,2,2,7,5,9,6,-4,7
5,4,-1,-5,3,2,6,4,9,6,-4,7
5,4,-2,-5,3,2,6,4,8,5,-5,7
5,4,-2,-5,3,1,6,3,8,5,-5,7
5,4,-2,-4,3,1,6,3,8,5,-5,7
5,3,-2,-4,2,1,5,3,7,5,-5,7
5,2,-2,-3,2,1,5,3,7,4,-5,6
4,2,-2,-3,2,0,5,2,6,4,-6,6
4,1,-2,-3,3,0,5,2,6,4,-6,5
4,1,-3,-3,3,0,5,1,6,4,-6,5
4,1,-3,-2,2,0,5,1,6,4,-5,5
3,1,-2,-2,2,0,5,1,6,5,-5,5
4,1,-2,-2,2,0,4,1,6,5,-5,5
4,1,-3,-3,3,0,3,1,6,4,-5,5
4,1,-3,-3,3,0,3,1,6,4,-5,5
4,1,-3,-2,3,0,4,1,6,5,-5,5
4,1,-3,-2,3,0,4,1,6,5,-5,5
3,1,-2,-2,2,0,5,1,6,4,-5,4
3,2,-2,-3,2,0,5,1,6,4,-6,4
3,2,-2,-3,2,0,5,1,6,4,-6,4
4,2,-2,-3,2,0,4,1,6,4,-6,4
3,1,-3,-2,2,0,4,1,6,4,-6,4
3,1,-2,-2,1,0,4,2,6,4,-5,4
3,1,-2,-2,1,0,4,2,6,5,-5,4
3,1,-2,-2,1,0,5,2,6,5,-5,4
3,0,-2,-2,1,0,5,1,5,4,-5,3
2,0,-2,-2,1,0,5,1,5,4,-5,3
2,0,-2,-1,1,0,5,2,5,4,-4,3
2,0,-2,-1,1,0,6,2,6,5,-4,4
2,0,-2,-1,1,0,6,3,6,5,-4,4
2,0,-2,-2,1,0,7,3,6,4,-4,4
2,0,-3,-2,2,0,7,2,6,3,-5,3
3,0,-4,-2,3,-1,7,2,5,2,-6,2
4,0,-4,-2,3,-1,7,2,5,1,-7,2
2,1,-2,-2,1,0,8,3,6,2,-6,3
1,1,0,-1,0,0,8,3,6,3,-5,3
1,1,0,-1,0,0,8,3,6,3,-5,3
2,1,-1,-1,1,0,8,3,6,3,-6,3
2,0,-1,-1,1,0,9,4,6,4,-6,3
1,0,-2,-1,1,0,10,4,6,4,-7,3
0,-1,-2,0,0,-1,10,4,6,4,-8,3
0,-1,-1,0,0,-1,10,4,6,4,-9,3
1,0,-1,-1,0,0,10,4,6,4,-10,3
1,0,-1,-1,0,0,11,4,6,3,-11,3
1,0,-2,0,0,-1,11,4,6,3,-12,2
1,0,-2,0,0,0,11,4,6,3,-12,2
1,0,-1,0,0,0,11,5,6,3,-13,2
0,0,-1,0,0,0,11,5,6,3,-13,1
0,-1,-2,0,0,0,11,6,6,2,-13,1
0,-1,-2,0,0,-1,11,6,7,2,-13,1
1,0,-2,0,1,0,11,6,7,3,-12,2
1,0,-1,-1,0,0,11,7,8,4,-12,3
1,0,-1,0,0,0,12,7,8,3,-12,2
0,0,-1,0,0,0,12,6,7,2,-13,2
0,0,-1,0,0,0,12,6,7,2,-13,1
0,-1,-1,0,0,0,12,6,7,2,-14,1
0,-1,-2,0,0,-1,12,6,7,2,-14,1
0,-1,-1,1,0,-1,12,6,7,2,-14,1
0,-1,-1,1,-1,0,12,5,6,2,-14,1
0,0,0,0,-1,0,12,5,6,2,-14,1
0,0,0,0,-1,0,12,6,7,3,-13,1
0,0,1,0,-2,0,13,7,7,4,-12,1
0,0,0,0,-1,0,14,7,7,3,-12,1
0,0,0,0,-1,1,14,7,7,3,-12,1
0,1,0,0,-1,1,14,8,8,3,-12,1
0,1,1,0,-2,2,14,8,8,3,-12,2
0,2,2,0,-2,3,15,9,9,4,-12,2
1,4,3,-2,-2,3,15,9,9,5,-11,3
2,5,4,-4,-2,4,15,10,9,5,-11,3
2,6,5,-5,-2,6,15,10,9,5,-11,2
2,7,5,-5,-2,7,15,10,9,5,-11,2
2,7,5,-5,-2,7,16,10,9,6,-10,3
2,7,5,-5,-1,6,16,10,10,7,-10,4
2,7,4,-5,-1,6,17,10,11,8,-9,5
3,7,3,-5,0,5,17,10,11,8,-8,5
3,7,3,-5,0,5,17,10,11,8,-8,6
3,7,3,-5,0,5,17,10,11,8,-7,6
3,7,3,-6,0,5,17,10,10,8,-7,6
4,8,3,-7,0,6,15,9,10,8,-7,5
5,9,4,-8,0,7,13,8,9,8,-8,5
5,11,4,-9,0,8,12,7,9,8,-8,5
6,12,5,-9,0,9,11,6,9,8,-8,5
5,12,5,-9,0,9,10,5,9,7,-8,5
5,11,6,-8,-1,9,9,4,8,7,-8,5
5,11,5,-8,0,8,8,4,8,7,-7,6
6,11,4,-9,0,8,7,4,8,8,-6,7
7,10,3,-9,1,7,6,5,8,8,-6,7
7,10,2,-9,2,6,6,6,9,8,-5,8
7,8,1,-8,2,5,6,6,9,8,-5,8
6,7,0,-7,2,4,6,6,9,8,-5,8
6,6,-1,-7,3,2,6,6,10,9,-5,8
7,5,-2,-7,4,1,7,7,10,9,-4,8
8,5,-4,-7,5,0,7,7,10,9,-4,8
9,4,-5,-7,6,0,7,7,10,10,-4,8
8,4,-5,-7,6,0,7,7,11,10,-3,8
7,3,-4,-6,5,0,8,8,11,10,-3,8
6,3,-4,-5,4,0,8,8,11,9,-3,7
5,2,-4,-4,4,0,8,8,11,8,-4,7
3,1,-3,-3,3,0,8,9,11,8,-5,7
2,0,-3,-1,2,0,8,9,11,7,-5,7
2,0,-3,-1,1,-1,8,9,10,7,-6,6
2,0,-3,0,2,-1,8,8,9,6,-7,4
1,-1,-3,0,1,-2,9,7,8,6,-8,3
0,-1,-2,0,0,-1,9,6,8,5,-9,1
-1,-1,-1,1,0,-1,9,5,7,5,-10,1
-1,-2,-1,1,0,-2,9,5,6,4,-10,1
-2,-3,-1,2,0,-2,9,4,6,4,-9,1
-3,-4,-2,3,0,-2,8,4,6,4,-9,2
-2,-5,-2,3,0,-3,8,5,7,4,-8,2
-2,-5,-3,3,0,-4,9,5,7,5,-7,2
-2,-5,-3,3,0,-4,8,5,7,6,-7,2
-2,-5,-3,3,0,-4,7,5,7,7,-7,2
-1,-5,-3,3,0,-5,7,4,7,7,-7,2
-1,-5,-3,3,1,-5,7,4,7,7,-7,2
-2,-5,-3,3,0,-4,7,4,7,7,-7,2
-2,-5,-3,3,0,-4,7,4,6,7,-8,2
-2,-4,-3,3,0,-3,7,4,6,6,-8,1
-2,-4,-2,3,0,-3,7,4,5,6,-9,1
-2,-5,-2,4,0,-3,7,5,5,5,-9,1
-3,-6,-3,4,0,-4,7,5,5,5,-9,1
-3,-6,-3,5,0,-4,7,4,5,6,-9,1
-3,-6,-4,4,0,-5,7,4,5,6,-9,0
-2,-6,-4,4,1,-5,6,4,6,5,-9,0
-2,-6,-4,4,1,-6,6,4,6,5,-8,0
-2,-6,-4,4,1,-6,6,4,6,5,-8,0
-3,-6,-4,4,1,-5,6,4,6,5,-7,0
-3,-6,-4,4,1,-5,6,4,6,5,-8,0
-2,-6,-4,4,1,-5,6,5,6,5,-8,0
-2,-6,-4,4,1,-5,7,8,7,6,-7,0
-2,-6,-4,4,1,-5,8,11,9,7,-7,1
-3,-6,-4,4,0,-5,9,15,11,8,-6,2
-2,-5,-2,3,0,-4,11,19,15,10,-4,3
-1,-3,-1,2,0,-2,12,21,18,13,-2,4
-1,-1,0,1,0,0,12,22,21,16,-1,4
0,0,0,0,0,0,11,20,23,18,0,5
1,1,0,-2,1,0,9,16,25,20,1,6
3,1,-2,-3,3,0,6,13,28,24,5,8
7,2,-5,-5,6,-2,1,9,32,29,10,12
12,4,-9,-8,11,-3,-5,4,38,37,18,18
19,7,-12,-13,15,-2,-14,-2,46,47,28,26
28,13,-15,-21,22,-1,-26,-11,54,60,40,36
39,21,-18,-30,29,0,-41,-19,64,74,54,48
50,29,-21,-40,36,3,-58,-29,73,88,68,60
60,37,-23,-49,42,6,-76,-41,77,99,79,70
67,43,-25,-55,46,8,-94,-54,77,105,87,79
73,47,-26,-61,50,10,-109,-69,73,108,93,86
79,52,-27,-66,52,12,-122,-86,67,109,99,93
82,57,-25,-70,53,16,-133,-102,60,111,104,101
83,61,-23,-72,53,19,-142,-117,52,112,109,107
83,66,-17,-74,50,25,-148,-132,42,111,112,112
77,73,-5,-75,41,34,-150,-147,29,109,112,116
67,80,12,-74,27,46,-149,-161,12,102,109,117
57,86,29,-71,13,57,-145,-171,-6,92,102,115
45,87,42,-67,1,64,-140,-177,-26,76,90,109
33,83,49,-59,-8,66,-133,-180,-48,52,69,95
22,76,53,-49,-16,65,-123,-179,-70,24,44,76
11,65,53,-38,-21,59,-110,-172,-86,0,20,56
1,52,49,-26,-23,51,-95,-159,-94,-18,0,36
-6,38,44,-15,-25,41,-80,-143,-96,-32,-17,18
-12,26,39,-6,-25,32,-67,-126,-94,-42,-29,4
-16,16,33,0,-25,24,-56,-109,-88,-47,-37,-6
-18,9,28,4,-24,18,-47,-93,-81,-48,-42,-12
-20,3,24,7,-23,13,-40,-80,-73,-48,-44,-16
-21,-1,20,10,-22,9,-34,-70,-67,-47,-45,-19
-21,-4,16,11,-19,5,-28,-61,-61,-46,-45,-21
-20,-8,11,13,-16,1,-23,-53,-55,-44,-45,-23
-21,-12,7,16,-14,-3,-18,-45,-49,-41,-44,-24
-21,-16,4,18,-13,-6,-13,-37,-44,-38,-42,-25
-21,-19,2,20,-12,-9,-9,-30,-39,-34,-40,-25
-20,-20,0,20,-11,-10,-6,-24,-34,-30,-38,-24
-20,-20,0,19,-10,-11,-4,-18,-29,-27,-35,-23
-19,-19,-1,19,-9,-11,-2,-14,-26,-25,-34,-22
-18,-19,-1,18,-8,-10,0,-10,-22,-23,-32,-21
-18,-18,-1,18,-8,-9,2,-7,-19,-21,-30,-20
-17,-17,0,18,-8,-9,4,-5,-17,-19,-29,-20
-16,-17,-1,17,-7,-9,5,-3,-16,-18,-29,-19
-16,-17,-1,17,-7,-9,6,-1,-15,-17,-28,-19
-16,-18,-2,17,-7,-10,6,0,-14,-16,-27,-18
-16,-18,-2,17,-7,-11,7,1,-13,-14,-25,-17
-17,-18,-2,17,-8,-11,7,2,-11,-13,-24,-17
-17,-18,-2,17,-7,-11,7,3,-11,-13,-24,-17
-17,-18,-2,17,-7,-11,8,2,-11,-14,-25,-17
-17,-18,-1,17,-7,-10,8,2,-11,-14,-25,-18
-17,-18,-1,17,-7,-10,9,2,-11,-14,-25,-18
-17,-18,-1,17,-7,-10,9,3,-12,-14,-25,-18
-17,-18,-1,17,-8,-10,9,3,-12,-15,-25,-18
-16,-18,-1,17,-8,-10,9,3,-12,-15,-25,-17
-16,-18,-1,17,-8,-10,9,3,-12,-15,-25,-17
-16,-18,-1,17,-8,-10,10,2,-12,-15,-25,-17
-17,-18,-1,17,-8,-9,11,2,-12,-15,-26,-17
-17,-17,0,16,-8,-9,12,2,-12,-15,-26,-18
-17,-17,0,16,-8,-9,12,3,-12,-15,-26,-18
-16,-17,-1,16,-7,-9,11,3,-12,-14,-26,-18
-16,-17,-1,16,-7,-9,11,3,-12,-13,-25,-17
-16,-17,0,16,-8,-9,11,3,-11,-13,-25,-17
-16,-17,0,16,-8,-9,11,3,-11,-13,-25,-17
-16,-17,0,16,-7,-9,11,3,-12,-13,-24,-16
-15,-17,-1,15,-7,-9,11,3,-12,-13,-24,-16
-15,-17,-1,15,-6,-9,10,3,-12,-13,-24,-16
-16,-16,0,16,-7,-9,10,2,-12,-14,-24,-16
-16,-16,0,16,-7,-8,9,2,-12,-14,-25,-16
-16,-17,-1,16,-7,-9,9,2,-12,-14,-25,-17
-16,-17,-1,17,-7,-9,9,2,-12,-14,-25,-17
-16,-17,-1,17,-8,-9,9,2,-12,-13,-25,-17
-16,-16,0,16,-8,-9,8,2,-12,-13,-25,-17
-16,-16,0,16,-8,-9,8,2,-12,-14,-25,-17
-16,-16,0,16,-8,-9,8,2,-12,-14,-25,-17
-17,-17,0,17,-8,-9,8,2,-12,-15,-25,-18
-17,-17,0,17,-8,-9,8,3,-12,-15,-26,-18
-17,-18,0,17,-8,-9,8,3,-12,-15,-25,-17
-17,-18,-1,17,-7,-10,7,3,-12,-15,-25,-17
-17,-18,-1,17,-7,-10,7,3,-12,-15,-25,-17
-17,-18,-1,17,-7,-10,7,3,-12,-15,-25,-17
-17,-18,0,17,-8,-10,6,4,-13,-15,-25,-18
-18,-18,0,18,-8,-10,6,4,-13,-16,-25,-18
-18,-18,0,18,-8,-9,6,4,-13,-15,-25,-18
-18,-18,0,18,-8,-9,6,5,-13,-16,-25,-18
-18,-19,-1,18,-8,-10,5,4,-14,-17,-25,-18
-18,-19,-1,18,-8,-10,5,4,-14,-17,-26,-18
-18,-17,0,17,-9,-8,5,4,-15,-17,-26,-18
-17,-16,1,16,-9,-7,5,4,-15,-17,-26,-18
-17,-15,1,16,-9,-7,5,4,-16,-18,-27,-19
-17,-15,2,16,-9,-7,6,5,-16,-19,-27,-20
-18,-16,1,17,-9,-7,6,6,-16,-19,-28,-20
-18,-17,1,17,-9,-8,6,7,-15,-19,-28,-20
-19,-18,0,18,-9,-9,6,7,-15,-20,-28,-20
-19,-19,0,19,-9,-10,7,7,-16,-20,-29,-21
-19,-19,0,18,-9,-9,7,8,-16,-21,-30,-22
-19,-19,0,18,-9,-9,7,9,-15,-21,-29,-21
-18,-19,-1,18,-8,-10,7,10,-15,-21,-29,-21
-19,-19,0,19,-9,-9,8,11,-15,-21,-28,-20
-19,-18,0,19,-9,-9,8,12,-14,-21,-28,-20
-19,-17,0,18,-9,-8,8,13,-14,-20,-28,-20
-19,-17,1,17,-9,-8,9,14,-13,-20,-28,-20
-19,-17,1,17,-10,-8,10,16,-13,-21,-28,-20
-18,-17,0,16,-9,-8,11,17,-13,-21,-28,-20
-17,-17,0,16,-9,-8,11,19,-13,-20,-28,-20
-17,-17,0,17,-9,-7,12,20,-12,-20,-28,-20
-17,-16,1,17,-9,-7,13,21,-12,-20,-28,-21
-17,-15,2,16,-9,-7,13,22,-12,-20,-28,-21
-17,-15,2,16,-9,-7,13,23,-11,-20,-28,-21
-17,-15,1,16,-8,-7,13,25,-10,-19,-28,-20
-16,-14,1,15,-8,-6,14,26,-9,-19,-27,-20
-16,-13,2,14,-8,-6,15,28,-8,-19,-28,-20
-16,-12,2,14,-8,-5,16,29,-8,-20,-28,-20
-15,-12,2,14,-8,-5,16,31,-7,-20,-27,-20
-14,-12,1,13,-7,-5,17,33,-5,-19,-26,-19
-12,-12,1,12,-6,-5,17,34,-4,-17,-25,-19
-12,-12,0,12,-5,-6,17,35,-3,-16,-25,-18
-11,-12,0,11,-5,-6,18,36,-2,-16,-25,-18
-11,-11,-1,10,-4,-6,17,37,-2,-17,-25,-17
-9,-10,-2,9,-3,-6,17,38,-1,-16,-24,-16
-8,-10,-4,9,-2,-7,17,40,0,-15,-22,-15
-7,-10,-5,8,0,-8,16,41,2,-13,-20,-13
-5,-10,-6,8,1,-8,16,42,4,-12,-18,-12
-4,-9,-6,7,1,-8,15,43,5,-11,-17,-11
-4,-8,-5,7,1,-7,15,43,6,-10,-17,-11
-4,-7,-4,6,1,-6,14,43,6,-9,-16,-10
-4,-6,-3,5,0,-5,14,42,7,-8,-16,-9
-3,-4,-2,4,0,-4,13,42,7,-8,-16,-9
-2,-4,-3,3,0,-3,12,42,8,-7,-15,-8
0,-3,-4,2,2,-3,11,42,9,-6,-13,-7
0,-2,-4,1,2,-3,9,41,10,-4,-10,-5
1,-2,-3,0,3,-3,8,40,11,-3,-8,-3
3,0,-3,-1,3,-2,7,39,12,-2,-8,-2
4,0,-3,-2,4,-2,6,38,12,-1,-7,-2
4,1,-3,-2,4,-1,5,36,12,0,-7,-1
4,3,-2,-3,3,0,3,35,11,0,-6,-1
4,4,-1,-3,2,1,2,33,11,0,-6,-1
4,4,0,-4,2,2,2,31,10,0,-6,-1
4,5,0,-4,2,2,1,29,10,1,-4,0
4,5,0,-4,2,2,0,28,11,3,-1,2
5,4,-1,-4,3,1,-1,26,11,4,0,4
5,3,-3,-4,4,0,-2,25,12,6,2,6
6,2,-4,-4,5,0,-3,24,12,7,3,7
5,3,-3,-4,4,0,-3,23,12,8,3,7
4,3,-3,-4,3,0,-4,21,12,8,4,8
4,3,-2,-4,3,0,-5,19,12,9,4,8
3,3,-1,-3,2,0,-5,17,11,9,3,7
3,3,0,-3,1,1,-5,16,10,9,3,6
3,4,0,-4,1,2,-5,15,10,9,4,6
4,4,0,-4,1,3,-5,14,10,9,4,6
4,4,0,-4,2,3,-5,14,10,9,5,7
4,4,0,-3,2,2,-5,13,10,10,5,7
4,2,-1,-3,2,0,-5,13,10,10,5,7
4,2,-2,-2,2,0,-5,12,10,10,5,7
4,2,-2,-2,2,0,-5,11,10,11,6,7
3,2,-1,-2,2,1,-5,10,10,11,6,7
2,3,0,-2,1,2,-6,9,10,11,5,7
1,3,1,-2,0,3,-6,9,9,10,5,6
2,3,1,-2,1,2,-6,9,8,9,4,5
2,2,0,-2,1,1,-6,8,8,8,3,5
2,2,0,-2,1,1,-6,8,7,8,3,5
2,2,-1,-2,1,0,-6,7,7,9,3,6
2,2,-1,-2,1,0,-6,7,7,9,3,5
1,1,0,-1,0,1,-6,6,7,9,3,4
0,1,0,-1,0,1,-6,6,7,8,3,4
0,0,0,0,0,1,-6,6,7,8,3,4
0,0,0,0,0,1,-6,6,7,8,3,4
1,0,-1,-1,1,0,-6,5,6,8,3,5
3,0,-3,-2,3,0,-7,5,6,8,3,4
3,0,-3,-2,3,-1,-7,5,6,8,2,4
1,0,-1,-1,1,0,-6,5,6,8,2,3
0,0,0,-1,0,0,-6,4,6,8,2,3
0,0,0,0,0,0,-6,4,5,8,2,3
-1,0,1,0,-1,1,-6,4,5,8,2,3
-1,0,1,0,-1,1,-6,4,5,8,2,3
-1,0,1,0,-1,1,-6,4,5,7,1,2
-1,0,1,0,-1,1,-6,4,5,7,1,2
-1,0,1,0,-1,1,-6,4,6,7,1,2
-1,0,0,0,0,0,-5,4,6,7,1,2
0,-1,-2,0,0,-2,-5,4,6,7,2,3
0,-2,-3,1,1,-3,-4,4,5,7,2,3
0,-2,-3,1,1,-3,-4,4,5,8,2,2
0,-2,-2,0,1,-2,-4,4,5,8,1,2
0,0,-1,0,0,0,-4,4,5,7,0,1
0,1,1,0,-1,1,-4,4,4,6,0,1
-1,1,2,0,-2,2,-4,4,5,6,0,1
-2,1,2,0,-2,1,-4,4,5,6,0,1
-1,0,0,0,-1,0,-4,4,5,6,1,1
-1,-1,-1,0,0,-1,-4,4,5,7,1,2
-2,-2,-2,1,0,-2,-4,4,5,7,2,2
-2,-3,-2,2,0,-3,-4,4,5,7,1,2
-2,-3,-2,2,0,-2,-4,4,5,7,2,2
-2,-2,-1,2,0,-2,-4,4,6,8,2,2
-1,-1,0,1,0,-1,-3,4,6,7,1,2
-2,-1,0,1,-1,-1,-3,4,5,6,1,1
-2,-1,1,1,-1,0,-3,4,5,6,0,0
-2,0,1,0,-1,0,-3,4,5,6,0,0
-1,0,1,0,-1,0,-3,5,5,6,0,0
-1,0,1,0,-1,0,-3,5,6,6,0,0
-1,0,1,0,-1,0,-3,5,6,6,0,0
-2,-1,0,2,-1,0,-3,5,6,6,0,0
-3,-2,0,3,-1,-1,-3,5,6,6,0,0
-3,-3,0,3,-1,-2,-3,5,6,6,0,0
-3,-3,0,3,-1,-2,-3,5,6,6,0,0
-3,-3,-1,3,-1,-2,-3,6,7,6,0,0
-3,-3,-1,3,0,-2,-3,6,7,7,1,0
-2,-3,-1,2,0,-2,-3,6,7,8,1,0
-2,-2,0,2,0,-1,-3,6,7,8,1,0
-2,-1,0,2,-1,-1,-3,6,7,7,0,0
-2,-1,1,2,-1,0,-2,6,6,6,0,0
-2,-1,1,2,-1,0,-2,6,6,6,-1,-1
-2,-2,0,2,-1,-1,-2,6,7,6,0,-1
-3,-3,0,3,-2,-2,-2,6,7,6,0,-1
-4,-3,1,4,-2,-1,-1,6,7,6,0,-1
-3,-3,0,3,-2,-1,-1,6,7,6,0,-1
-3,-3,-1,3,-1,-2,-2,7,7,7,0,0
-3,-4,-1,3,0,-2,-2,7,8,8,1,0
-2,-3,-1,3,0,-2,-2,7,8,9,2,1
-1,-2,0,1,0,-2,-1,8,9,10,2,1
-1,-1,0,0,0,-1,-1,8,9,10,2,1
-1,0,0,0,0,0,0,8,9,9,2,1
-1,0,1,0,-1,0,0,8,9,9,1,0
0,2,2,-1,-1,1,0,8,9,9,1,0
0,3,2,-1,-1,2,1,9,10,9,2,1
0,3,2,-2,-1,2,1,10,10,9,3,2
0,3,2,-2,-1,2,1,10,10,10,3,2
0,3,3,-2,-1,3,2,10,11,11,4,3
0,3,3,-2,-1,3,2,10,11,12,4,3
0,4,3,-2,-1,3,3,10,11,12,5,3
1,5,3,-3,-1,4,2,10,11,12,5,3
2,7,4,-4,-1,5,2,10,11,12,5,3
2,8,4,-5,-1,6,3,11,11,12,5,3
2,8,5,-5,-1,7,4,12,12,12,6,4
2,7,5,-4,-1,6,4,12,12,13,6,4
2,6,4,-4,-1,5,4,12,13,14,7,4
2,6,4,-4,-1,5,5,12,13,14,7,4
2,6,4,-4,-1,5,4,11,13,14,7,4
3,7,4,-5,0,5,3,10,12,14,7,5
4,7,3,-6,0,5,2,10,12,14,7,5
4,8,3,-6,0,6,2,9,12,14,7,5
4,8,4,-6,0,6,2,8,12,14,7,5
4,9,4,-7,0,7,1,8,12,13,6,4
4,10,4,-7,0,7,0,7,11,13,6,4
5,10,5,-8,1,7,-2,5,10,13,6,4
5,11,5,-8,1,7,-4,5,10,14,7,5
6,12,5,-9,1,8,-5,5,10,14,7,6
7,12,5,-9,1,8,-6,5,11,15,8,7
7,11,4,-9,1,8,-6,6,11,15,9,7
7,9,2,-8,2,6,-6,6,11,14,8,6
6,6,1,-7,2,4,-5,6,11,13,8,6
6,5,0,-6,2,3,-4,7,11,14,8,6
6,5,0,-6,3,3,-3,7,11,14,8,6
6,5,0,-6,3,3,-2,8,11,13,7,5
6,5,0,-6,3,3,-2,8,12,13,7,5
6,4,-1,-5,4,2,-2,8,12,14,8,5
5,3,-2,-4,4,1,-2,8,12,15,8,5
4,2,-1,-3,3,1,-2,9,12,14,7,5
3,3,0,-3,2,1,-1,9,12,13,7,4
3,3,0,-3,1,1,0,9,11,13,7,3
2,2,0,-2,0,1,0,9,11,13,6,3
0,0,0,0,0,0,0,9,10,12,6,2
-1,-2,-1,2,0,-1,0,8,9,11,5,2
-2,-4,-2,3,0,-3,0,8,9,10,4,1
-2,-5,-2,4,0,-4,0,7,8,10,4,1
-2,-5,-3,4,0,-4,0,7,8,10,4,1
-2,-5,-3,4,0,-4,0,6,7,10,4,1
-2,-5,-3,4,0,-4,0,6,7,9,4,0
-2,-5,-3,4,0,-4,0,6,7,9,4,0
-2,-5,-3,4,0,-4,0,6,7,9,3,0
-3,-5,-2,4,0,-4,-1,5,6,9,3,0
-3,-4,0,4,-1,-3,-1,5,6,8,2,-1
-3,-3,0,4,-1,-2,-1,5,5,8,2,-1
-4,-3,1,4,-2,-1,-2,4,5,8,2,-1
-4,-4,0,5,-2,-2,-2,4,5,8,2,-1
-3,-5,-1,5,-1,-3,-2,5,5,8,2,-1
-3,-6,-3,5,0,-5,-1,5,5,8,2,-1
-3,-7,-4,5,1,-6,-1,5,6,9,2,-1
-3,-7,-3,5,0,-5,-1,6,6,9,3,0
-3,-7,-2,5,0,-5,-1,6,5,9,3,0
-3,-7,-3,5,0,-5,-1,5,5,8,2,-1
-3,-6,-3,5,0,-4,-1,5,5,8,2,-1
-3,-6,-2,5,0,-4,0,5,5,8,2,-1
-4,-6,-2,5,-1,-4,0,5,5,8,2,-1
-4,-6,-2,5,-1,-4,0,5,5,8,2,-1
-3,-6,-2,5,0,-4,0,5,5,9,2,-1
-3,-6,-2,4,0,-4,0,5,6,9,2,-1
-3,-6,-2,5,0,-4,0,6,6,8,2,-2
-4,-7,-2,5,0,-4,0,7,6,8,2,-2
-4,-6,-2,6,0,-4,1,9,7,8,2,-2
-4,-5,-2,5,0,-4,2,13,9,9,3,-2
-4,-4,-1,5,-1,-3,3,17,11,11,4,-1
-4,-3,0,4,-1,-1,4,20,15,14,5,0
-3,-1,1,3,-2,0,5,22,18,17,7,1
-2,0,1,2,-1,1,5,21,21,19,8,2
-1,0,1,1,-1,1,3,18,23,21,10,3
0,1,1,0,0,1,2,14,25,24,13,6
3,1,-1,-1,2,0,-1,11,28,28,18,9
7,3,-4,-4,5,0,-6,7,34,35,24,14
13,6,-7,-8,10,0,-14,1,41,44,32,21
21,12,-10,-15,16,1,-26,-7,49,57,44,30
31,19,-12,-24,22,3,-40,-15,60,71,57,41
43,28,-14,-35,29,6,-57,-24,69,86,71,53
53,36,-16,-44,35,9,-74,-34,76,97,84,64
61,42,-18,-51,40,11,-91,-46,78,105,94,73
68,47,-20,-57,45,13,-107,-59,77,110,101,81
74,52,-21,-62,48,15,-120,-75,72,113,108,89
78,57,-21,-67,50,18,-132,-91,66,116,114,96
81,61,-20,-70,51,21,-143,-106,60,118,119,104
82,66,-17,-73,50,24,-151,-119,52,119,123,110
79,71,-8,-75,45,31,-156,-133,41,118,125,114
71,78,6,-74,33,42,-155,-149,25,113,123,116
60,84,24,-72,19,54,-151,-162,7,104,118,116
49,89,40,-69,5,64,-146,-171,-12,90,108,112
39,88,50,-63,-5,69,-140,-176,-35,69,91,101
28,83,55,-55,-13,69,-131,-178,-59,41,66,84
17,74,56,-45,-19,65,-120,-175,-80,14,41,64
6,61,54,-32,-23,57,-106,-165,-92,-8,18,44
-3,46,49,-20,-25,47,-91,-151,-97,-25,-2,24
-10,33,43,-11,-25,37,-77,-134,-97,-37,-17,8
-15,23,39,-4,-26,30,-64,-117,-93,-43,-26,-3
-18,16,35,1,-26,25,-53,-102,-87,-47,-32,-11
-19,10,31,4,-25,20,-44,-88,-80,-48,-36,-17
-20,5,27,8,-23,16,-37,-77,-73,-48,-39,-21
-22,0,23,11,-22,11,-31,-67,-67,-46,-40,-24
-22,-4,18,14,-20,7,-25,-57,-60,-44,-39,-26
-21,-8,13,15,-16,2,-20,-49,-54,-40,-38,-27
-20,-12,8,17,-13,-2,-16,-41,-48,-36,-36,-27
-20,-15,5,18,-12,-5,-11,-34,-43,-32,-34,-27
-20,-18,3,19,-11,-7,-7,-27,-37,-29,-32,-26
-19,-18,1,19,-10,-8,-4,-21,-33,-26,-29,-25
-18,-18,0,18,-9,-8,-2,-17,-29,-25,-28,-24
-17,-17,0,18,-9,-8,0,-13,-26,-23,-27,-23
-19,-17,1,18,-10,-8,2,-10,-22,-20,-25,-23
-20,-17,2,19,-10,-8,4,-7,-19,-17,-24,-23
-20,-17,2,19,-10,-8,5,-4,-17,-16,-23,-23
-18,-16,2,18,-10,-8,6,-3,-16,-14,-22,-22
-17,-16,2,17,-9,-8,7,-1,-15,-13,-21,-22
-16,-16,1,17,-8,-8,8,0,-15,-13,-19,-21
-16,-17,0,17,-8,-8,9,1,-14,-13,-18,-20
-17,-18,0,18,-8,-9,9,1,-13,-12,-18,-19
-18,-18,0,18,-8,-9,10,2,-12,-11,-17,-18
-18,-18,0,18,-8,-9,10,2,-11,-11,-17,-18
-17,-17,-1,18,-7,-9,10,2,-11,-10,-17,-19
-16,-17,-1,18,-7,-9,11,2,-11,-10,-17,-19
-17,-17,0,18,-7,-9,11,2,-11,-10,-17,-19
-17,-17,1,18,-8,-8,11,2,-12,-11,-16,-19
-17,-17,1,18,-8,-8,12,2,-12,-11,-16,-19
-17,-18,0,18,-8,-9,12,3,-12,-11,-16,-19
-17,-18,0,18,-7,-9,12,3,-12,-11,-16,-19
-17,-17,0,18,-7,-9,12,3,-12,-11,-16,-19
-17,-17,0,18,-7,-9,13,3,-12,-11,-17,-19
-17,-17,0,18,-7,-9,13,3,-12,-11,-17,-19
-16,-17,0,18,-7,-9,14,3,-12,-11,-16,-19
-16,-17,0,18,-8,-9,14,3,-12,-10,-16,-19
-16,-17,0,17,-8,-8,13,2,-12,-10,-16,-19
-16,-16,1,17,-9,-7,12,2,-12,-10,-16,-20
-16,-15,2,16,-9,-6,11,2,-12,-11,-17,-20
-16,-15,1,16,-8,-6,11,2,-12,-12,-17,-20
-16,-16,0,17,-8,-7,12,2,-12,-12,-17,-20
-15,-16,-1,17,-7,-8,13,2,-12,-11,-17,-20
-15,-16,-1,17,-6,-9,13,2,-12,-11,-16,-20
-16,-17,-1,17,-7,-9,14,3,-11,-11,-16,-20
-16,-17,0,18,-7,-9,14,3,-11,-11,-16,-20
-17,-17,0,18,-7,-9,14,3,-12,-11,-16,-20
-17,-17,0,18,-7,-9,14,3,-12,-11,-16,-20
-16,-17,-1,18,-6,-9,13,3,-12,-10,-16,-20
-16,-17,-1,18,-6,-9,13,3,-12,-10,-16,-20
-17,-17,0,18,-7,-9,13,3,-13,-10,-16,-20
-17,-17,0,18,-8,-9,13,3,-13,-11,-16,-20
-17,-17,0,18,-8,-9,12,3,-13,-11,-16,-20
-16,-17,0,18,-8,-9,12,3,-13,-11,-16,-20
-16,-17,0,17,-7,-9,12,4,-13,-11,-16,-20
-17,-18,0,17,-7,-9,12,4,-13,-12,-16,-20
-17,-18,0,17,-7,-9,11,4,-13,-12,-17,-20
-17,-17,0,17,-8,-9,11,4,-13,-12,-17,-21
-17,-17,0,18,-8,-8,11,4,-13,-12,-18,-21
-17,-17,0,18,-9,-8,12,4,-14,-13,-18,-22
-17,-17,0,18,-9,-8,12,4,-13,-14,-18,-22
-16,-17,0,17,-8,-8,11,5,-13,-13,-18,-22
-16,-17,0,17,-8,-8,11,5,-13,-13,-18,-22
-17,-17,0,18,-8,-8,11,6,-13,-13,-18,-22
-18,-17,1,18,-9,-8,11,6,-13,-13,-18,-21
-18,-17,1,18,-9,-8,11,7,-13,-13,-18,-21
-18,-17,1,18,-9,-8,11,8,-12,-12,-18,-21
-18,-18,1,19,-9,-8,11,8,-12,-13,-18,-21
-18,-18,1,19,-9,-8,11,8,-13,-14,-18,-22
-18,-18,1,19,-9,-9,11,9,-13,-14,-19,-22
-17,-18,1,18,-9,-9,12,9,-13,-15,-19,-22
-17,-17,1,18,-9,-8,12,10,-13,-15,-20,-22
-18,-17,1,18,-9,-8,13,12,-13,-15,-20,-22
-18,-17,1,18,-9,-8,14,13,-13,-15,-20,-22
-18,-17,1,18,-9,-7,15,14,-13,-15,-20,-22
-18,-17,1,18,-9,-7,15,15,-13,-15,-20,-22
-17,-17,0,18,-8,-7,16,16,-12,-15,-20,-22
-17,-18,0,18,-8,-8,16,17,-12,-15,-20,-22
-18,-18,1,18,-9,-8,16,18,-11,-14,-20,-22
-18,-17,2,18,-9,-7,17,19,-10,-14,-19,-22
-18,-15,3,17,-10,-6,18,21,-10,-14,-19,-22
-17,-14,3,16,-10,-6,18,22,-9,-13,-20,-22
-17,-14,3,16,-10,-6,19,24,-9,-13,-19,-22
-17,-15,2,16,-9,-6,19,25,-8,-13,-19,-22
-16,-15,1,16,-9,-7,19,26,-8,-14,-19,-22
-16,-15,1,16,-9,-6,20,28,-8,-14,-19,-22
-16,-14,2,15,-9,-6,21,29,-7,-13,-19,-21
-15,-14,1,15,-8,-7,22,31,-5,-13,-18,-21
-14,-14,1,14,-7,-7,22,32,-4,-13,-18,-21
-13,-13,1,14,-7,-7,22,34,-4,-13,-18,-21
-13,-13,1,14,-7,-6,22,35,-3,-13,-18,-20
-12,-12,1,13,-6,-5,22,36,-2,-12,-18,-20
-11,-11,0,12,-6,-5,22,37,-1,-11,-17,-19
-10,-10,0,11,-5,-5,22,38,0,-11,-16,-18
-9,-10,0,10,-4,-5,22,39,1,-10,-16,-17
-9,-9,1,10,-5,-4,22,40,3,-8,-15,-16
-8,-8,1,9,-4,-3,22,41,4,-7,-13,-15
-6,-8,0,7,-3,-3,21,42,5,-7,-12,-14
-5,-7,0,6,-1,-4,21,42,5,-6,-11,-14
-4,-7,-1,6,-1,-4,20,42,6,-6,-10,-13
-4,-5,-1,5,-1,-3,19,42,6,-5,-9,-12
-3,-3,0,4,-1,-2,18,42,7,-4,-8,-11
-2,-1,0,2,-1,-1,17,41,8,-3,-7,-10
-1,0,1,1,-1,0,17,41,9,-1,-6,-8
0,1,1,0,0,0,15,41,10,0,-4,-7
1,1,1,0,1,1,14,40,11,0,-3,-5
2,2,0,-1,2,1,13,40,11,1,-1,-4
3,2,0,-2,2,1,12,39,12,2,0,-2
3,2,0,-2,2,1,11,38,12,3,1,-1
4,2,0,-2,2,1,10,36,12,4,2,0
4,3,0,-3,2,1,9,35,12,5,2,0
5,4,0,-4,2,2,8,33,12,6,3,0
5,5,2,-5,2,3,7,32,12,7,4,1
5,6,3,-5,1,3,6,30,12,9,5,2
5,5,2,-4,1,3,4,29,12,10,6,2
5,5,2,-4,2,3,3,27,11,10,7,3
5,6,2,-4,2,4,2,25,11,11,7,3
4,6,2,-4,1,4,1,24,11,11,8,4
5,7,2,-4,1,5,1,23,11,12,8,4
5,7,2,-5,2,4,0,22,11,12,9,4
5,6,1,-5,2,3,0,21,12,13,9,5
5,6,1,-5,2,3,0,20,12,13,10,5
5,6,2,-5,2,4,0,19,11,14,11,6
4,6,2,-4,1,4,-1,18,11,14,11,6
4,5,2,-4,1,4,-2,17,11,15,11,6
4,5,2,-4,2,4,-2,15,11,15,11,6
4,5,1,-4,2,4,-3,14,10,15,11,6
4,5,2,-4,2,4,-2,13,10,15,11,7
4,5,2,-4,2,4,-2,13,10,15,11,7
4,5,2,-4,1,4,-2,12,9,15,11,7
4,5,2,-4,1,3,-2,12,9,15,11,7
4,5,2,-4,1,4,-2,11,8,15,11,7
3,6,3,-4,0,4,-2,11,8,15,11,6
2,6,4,-3,0,5,-2,10,8,15,11,6
1,5,4,-3,-1,4,-3,10,8,15,10,5
1,5,3,-2,-1,4,-3,9,8,15,10,5
1,4,3,-2,-1,3,-3,8,8,14,10,5
1,4,2,-2,-1,2,-3,8,8,14,10,5
1,3,2,-2,0,2,-3,8,8,14,10,5
1,3,2,-2,0,2,-3,8,7,14,9,4
1,4,2,-2,0,2,-4,7,6,13,9,4
1,4,2,-2,0,3,-4,7,6,13,8,4
0,3,2,-1,0,3,-4,7,6,13,8,4
0,3,2,-1,0,2,-4,7,6,14,9,4
1,3,2,-1,0,3,-4,7,6,14,9,4
1,4,2,-2,0,3,-4,7,6,14,9,4
1,4,2,-2,0,4,-4,7,6,14,9,5
1,4,2,-2,0,4,-4,6,7,14,9,5
1,3,2,-2,0,3,-3,6,6,13,8,5
1,3,2,-1,0,3,-3,6,6,13,8,4
1,3,2,-1,0,3,-2,6,6,13,8,4
1,3,2,-1,0,3,-2,5,6,13,8,4
1,3,2,-1,0,3,-3,5,6,13,7,3
0,3,2,0,-1,3,-3,5,5,13,7,3
0,3,3,0,-1,3,-3,5,5,13,7,3
0,3,3,-1,-1,3,-3,5,4,13,7,3
0,3,3,-1,-1,3,-3,5,4,13,7,3
0,3,3,-1,-1,3,-3,5,4,12,7,3
0,3,3,-1,-1,3,-3,5,4,12,7,3
0,3,2,-1,-1,3,-3,5,4,12,7,3
0,2,2,0,-1,3,-3,5,4,12,7,3
0,2,2,0,-2,3,-3,5,4,12,7,3
-1,2,3,0,-2,3,-3,4,4,12,7,2
-1,2,3,0,-2,3,-3,4,4,12,7,2
-1,2,3,0,-2,3,-3,5,4,12,7,2
0,3,3,0,-1,3,-2,5,4,13,7,3
0,3,3,-1,-1,3,-2,5,5,13,8,3
0,2,3,0,-1,2,-2,5,4,12,8,3
0,2,2,0,-1,2,-2,5,4,12,8,3
0,1,2,0,-1,2,-2,5,3,12,7,3
0,1,1,0,0,2,-2,5,3,13,7,3
0,1,1,0,0,2,-2,5,3,13,7,2
0,1,1,0,0,2,-2,5,3,12,6,2
-1,1,2,0,-1,2,-2,5,2,12,6,1
-1,1,2,0,-1,2,-2,5,2,12,6,1
0,1,2,0,-1,2,-2,5,2,11,6,1
0,1,2,0,-1,2,-2,6,2,11,6,1
-1,1,2,0,-1,2,-1,6,3,11,6,2
-2,1,2,0,-1,2,-2,6,3,11,6,2
-2,1,2,0,-1,2,-2,6,3,12,6,2
-2,1,2,0,-2,3,-2,6,4,12,6,2
-3,1,3,0,-2,3,-2,7,4,12,6,2
-3,1,3,1,-2,2,-2,7,3,12,6,1
-2,1,2,1,-2,2,-2,7,3,12,6,1
-2,1,2,1,-2,2,-2,7,3,12,6,1
-1,1,2,1,-1,2,-2,7,3,12,6,1
-2,1,2,1,-2,2,-2,7,3,12,6,1
-2,1,2,1,-2,2,-2,7,4,12,6,1
-1,2,2,0,-1,2,-2,7,4,12,6,1
-1,2,2,0,-1,2,-2,7,4,12,6,1
-2,2,2,0,-2,2,-2,7,4,12,6,1
-2,2,3,0,-2,2,-2,7,4,12,6,1
-1,2,3,0,-2,3,-2,8,5,12,6,1
-1,3,3,0,-2,3,-1,8,5,12,6,1
-1,3,4,0,-2,4,-1,8,5,12,6,1
-1,3,4,0,-2,4,-1,9,5,12,6,1
-1,3,3,0,-1,4,0,9,5,12,7,2
-1,4,3,-1,-1,4,0,10,6,12,8,2
0,5,4,-2,-1,5,0,10,6,13,8,3
0,5,5,-2,-1,6,1,10,6,13,8,3
0,6,5,-3,-2,6,1,11,6,13,8,3
0,7,6,-3,-2,7,1,11,6,13,8,3
1,7,6,-4,-2,7,1,11,6,13,8,3
1,8,6,-4,-2,8,2,11,7,14,9,4
1,8,7,-4,-2,8,2,12,8,14,10,4
1,9,7,-5,-2,8,3,12,9,15,10,5
1,10,7,-5,-2,9,3,13,9,15,10,5
2,10,7,-5,-1,9,3,13,9,15,10,6
2,11,7,-6,-1,9,2,13,9,15,10,6
2,11,7,-6,-1,9,2,12,9,15,10,6
2,10,7,-6,-1,9,2,12,9,14,11,6
3,10,6,-6,0,8,1,12,9,14,11,6
3,10,5,-6,0,8,0,11,9,14,11,6
3,10,6,-6,0,9,0,10,8,15,11,6
3,11,7,-6,-1,9,-1,10,8,15,11,7
4,12,8,-7,-1,10,-2,9,8,15,11,7
5,13,8,-8,0,10,-3,8,8,15,11,7
6,14,8,-9,0,10,-5,7,7,14,11,7
6,14,7,-10,0,10,-6,7,7,14,11,7
7,14,6,-10,1,10,-6,7,7,14,11,8
7,14,6,-10,1,10,-7,7,8,14,12,8
7,13,5,-10,1,10,-7,7,9,15,12,8
7,12,4,-9,2,9,-7,7,9,15,12,8
7,11,3,-9,3,7,-7,8,9,15,12,8
7,10,3,-8,3,6,-6,8,10,15,13,9
7,9,2,-7,3,5,-5,9,10,15,13,9
7,8,1,-7,3,5,-5,9,11,15,13,9
6,8,1,-6,3,5,-4,9,11,15,13,9
6,8,1,-6,3,5,-4,9,11,15,13,9
6,8,1,-6,3,5,-4,9,11,15,13,9
6,8,1,-6,3,5,-4,9,11,15,12,8
5,8,1,-6,2,5,-4,9,10,14,12,8
4,6,1,-4,1,4,-3,10,10,14,12,7
1,4,2,-2,0,4,-3,10,10,14,11,7
0,3,2,-1,-1,3,-3,10,10,13,10,6
-1,1,2,0,-1,2,-3,9,9,12,9,4
-2,0,2,1,-1,2,-3,8,8,11,8,3
-2,0,2,1,-1,1,-3,8,7,10,7,2
-2,0,2,1,-1,1,-3,7,6,10,7,2
-2,0,1,1,-1,0,-3,7,6,9,7,2
-2,0,1,1,-1,0,-3,6,6,9,7,2
-2,-1,0,1,-1,0,-3,6,5,9,7,2
-2,-1,0,1,0,0,-3,6,5,9,6,2
-2,-1,0,1,0,-1,-4,5,5,8,6,2
-3,-2,0,2,-1,0,-4,5,5,8,6,2
-3,-2,1,2,-1,0,-4,5,5,8,6,2
-3,-2,1,2,-1,0,-4,5,4,8,6,1
-2,-2,0,2,-1,0,-5,5,4,7,5,1
-3,-2,0,3,-1,0,-5,6,4,7,5,0
-3,-2,0,3,-1,0,-5,6,4,7,5,1
-2,-2,0,3,-1,0,-5,6,4,8,6,1
-2,-2,0,3,-1,0,-5,6,4,8,6,1
-3,-2,0,3,-1,0,-5,6,4,8,6,1
-4,-3,1,3,-2,0,-5,6,5,8,6,1
-3,-2,1,3,-1,0,-5,6,5,8,6,1
-3,-2,1,3,-1,0,-5,6,5,8,6,1
-2,-1,1,3,0,0,-5,6,5,8,6,1
-2,-1,1,3,0,0,-5,6,5,8,5,1
-2,-1,1,2,-1,0,-5,6,5,8,5,1
-2,-1,1,2,-1,0,-4,6,5,8,5,1
-2,-1,1,2,-1,0,-4,7,5,8,5,1
-2,-1,1,2,-1,0,-4,7,5,8,5,1
-2,-1,0,2,0,0,-4,9,6,8,5,1
-1,-1,-1,2,0,-1,-3,12,7,8,6,0
-1,-1,0,2,0,-1,-2,16,9,8,6,0
-1,0,0,2,0,0,0,20,13,10,7,1
-1,0,1,1,-1,1,1,22,16,12,9,3
-1,1,2,1,-1,1,2,22,19,15,12,4
0,2,1,0,0,2,0,20,22,19,14,6
2,3,0,-2,1,2,-3,16,24,22,16,8
4,4,0,-4,3,2,-6,11,26,25,19,10
8,6,-1,-7,5,2,-11,6,30,30,23,14
14,10,-3,-11,9,3,-19,0,36,38,31,19
21,14,-6,-17,14,4,-30,-8,43,48,41,27
30,21,-9,-25,20,5,-44,-16,54,62,54,38
42,29,-12,-35,27,8,-60,-23,65,78,70,51
53,37,-15,-45,34,10,-78,-32,74,92,84,63
63,44,-18,-53,41,12,-96,-43,78,102,95,73
70,49,-21,-59,46,14,-111,-55,78,108,103,81
76,53,-22,-64,49,16,-125,-69,75,111,109,89
79,57,-21,-68,51,18,-138,-85,70,114,115,96
82,62,-19,-71,51,21,-148,-99,64,116,121,104
84,68,-17,-75,51,25,-156,-112,58,118,126,111
84,73,-11,-78,48,31,-161,-125,49,118,129,116
78,80,1,-78,39,40,-161,-139,36,115,129,120
68,86,18,-77,26,52,-159,-154,18,108,125,121
58,92,35,-75,12,64,-155,-164,0,97,117,118
46,93,48,-69,0,71,-149,-171,-22,78,102,109
34,88,55,-61,-10,72,-140,-175,-47,51,79,93
23,80,58,-51,-17,69,-128,-174,-70,22,53,73
12,68,56,-39,-21,62,-113,-167,-86,-2,29,53
2,53,51,-27,-23,52,-97,-154,-94,-21,8,33
-5,39,44,-16,-24,41,-83,-138,-95,-35,-8,16
-10,28,39,-8,-24,33,-70,-121,-92,-43,-19,3
-15,20,35,-2,-24,28,-59,-106,-87,-47,-26,-5
-18,14,33,2,-25,24,-50,-92,-81,-49,-31,-12
-19,10,30,4,-24,20,-43,-81,-75,-49,-34,-17
-19,6,25,7,-22,15,-36,-70,-68,-48,-35,-20
-19,1,20,9,-19,10,-30,-61,-62,-46,-35,-22
-20,-3,16,12,-17,6,-25,-52,-55,-44,-34,-23
-19,-6,11,13,-14,2,-20,-44,-49,-40,-33,-24
-18,-9,8,14,-12,-1,-15,-36,-44,-37,-31,-24
-17,-12,5,15,-11,-3,-11,-29,-39,-34,-29,-24
-17,-14,4,16,-10,-5,-8,-23,-35,-31,-27,-24
-17,-15,3,16,-10,-5,-5,-18,-31,-28,-25,-23
-18,-14,4,17,-11,-5,-2,-14,-27,-26,-23,-22
-18,-14,4,17,-10,-5,1,-10,-23,-23,-21,-21
-17,-14,3,16,-9,-6,3,-7,-20,-21,-20,-20
-17,-14,2,16,-8,-6,4,-5,-18,-19,-19,-20
-16,-15,1,16,-8,-6,6,-3,-17,-18,-18,-19
-16,-15,1,16,-8,-6,7,-1,-16,-17,-17,-19
-15,-15,1,16,-8,-6,7,0,-15,-16,-16,-19
-14,-15,1,15,-7,-6,8,0,-14,-16,-16,-18
-15,-15,1,16,-7,-6,8,0,-14,-16,-16,-18
-15,-15,1,16,-7,-6,9,0,-14,-16,-16,-18
-15,-15,1,16,-7,-7,9,1,-13,-16,-16,-18
-16,-15,1,16,-7,-7,10,1,-13,-15,-16,-18
-16,-15,1,16,-7,-7,11,1,-12,-15,-16,-18
-16,-15,1,16,-8,-7,11,1,-12,-15,-16,-18
-16,-15,1,16,-8,-7,12,1,-12,-15,-16,-18
-15,-15,1,16,-8,-7,12,1,-12,-15,-16,-18
-15,-15,1,15,-8,-7,12,2,-12,-15,-16,-18
-15,-14,1,15,-7,-7,12,2,-12,-15,-15,-18
-15,-14,1,15,-7,-7,13,2,-12,-15,-15,-17
-15,-14,1,15,-7,-7,13,2,-12,-15,-15,-17
-15,-14,1,15,-7,-7,13,2,-12,-15,-15,-17
-14,-14,0,14,-7,-7,14,2,-12,-15,-16,-18
-14,-14,1,14,-7,-7,14,2,-12,-15,-16,-18
-15,-14,2,15,-8,-6,14,2,-12,-15,-16,-18
-15,-14,2,15,-8,-6,14,2,-12,-16,-16,-18
-15,-14,1,15,-7,-6,14,2,-13,-16,-16,-18
-15,-14,1,15,-7,-6,15,2,-13,-16,-16,-18
-15,-15,1,15,-7,-7,15,1,-13,-16,-16,-18
-15,-15,0,15,-7,-7,14,1,-13,-16,-16,-18
-16,-15,1,16,-8,-7,14,2,-13,-16,-16,-18
-16,-15,2,15,-8,-6,15,2,-13,-16,-16,-18
-15,-14,2,14,-8,-6,15,3,-13,-16,-16,-18
-15,-14,2,14,-8,-7,15,3,-13,-16,-16,-18
-15,-14,2,15,-8,-7,15,3,-13,-16,-16,-18
-15,-14,1,15,-8,-6,15,3,-14,-16,-16,-18
-15,-14,1,15,-8,-6,15,3,-14,-17,-16,-19
-16,-15,1,16,-8,-6,15,3,-14,-17,-17,-19
-16,-15,1,16,-8,-6,16,3,-14,-17,-17,-19
-16,-15,1,16,-8,-6,16,3,-15,-17,-18,-19
-16,-15,1,16,-8,-6,16,3,-15,-18,-18,-19
-16,-15,1,16,-8,-6,16,3,-15,-18,-18,-19
-17,-15,2,16,-9,-6,17,3,-15,-18,-18,-19
-17,-15,2,17,-9,-6,17,3,-15,-18,-18,-20
-17,-14,2,16,-9,-6,17,3,-15,-18,-18,-20
-16,-14,2,16,-9,-6,18,3,-15,-18,-19,-20
-16,-14,2,16,-9,-6,18,3,-16,-19,-19,-20
-16,-14,2,16,-9,-6,18,4,-16,-19,-19,-20
-16,-15,2,16,-9,-6,18,4,-16,-19,-19,-21
-16,-15,2,16,-9,-6,18,4,-16,-20,-19,-21
-16,-15,2,16,-9,-7,18,5,-16,-20,-20,-22
-15,-15,1,16,-8,-7,18,5,-16,-21,-20,-22
-15,-15,1,16,-8,-7,18,6,-16,-21,-21,-22
-16,-16,1,17,-8,-7,18,7,-16,-21,-21,-22
-18,-17,1,18,-8,-7,19,8,-16,-21,-21,-22
-18,-17,2,18,-9,-7,20,9,-16,-21,-21,-22
-17,-16,2,17,-9,-7,20,9,-15,-21,-21,-22
-17,-16,2,17,-9,-7,20,10,-15,-21,-22,-22
-17,-16,1,16,-9,-7,20,11,-15,-21,-22,-22
-17,-16,1,17,-9,-7,21,12,-15,-21,-22,-22
-17,-16,2,17,-9,-7,21,13,-15,-21,-22,-22
-17,-16,2,17,-9,-6,22,14,-15,-22,-22,-22
-16,-15,2,17,-9,-6,22,15,-15,-22,-22,-23
-16,-15,2,16,-9,-6,23,16,-15,-22,-22,-23
-16,-15,3,16,-9,-6,24,17,-14,-22,-22,-23
-16,-15,3,16,-9,-6,24,18,-14,-22,-22,-23
-16,-16,2,16,-9,-7,25,19,-14,-22,-22,-23
-17,-17,2,17,-10,-7,25,21,-13,-22,-22,-23
-17,-16,2,17,-10,-7,25,22,-13,-22,-22,-23
-16,-14,2,16,-10,-6,25,24,-12,-22,-22,-23
-15,-13,2,15,-9,-5,26,26,-11,-21,-22,-22
-15,-13,2,15,-8,-5,27,28,-10,-21,-21,-22
-15,-14,2,15,-8,-5,27,29,-10,-21,-21,-22
-15,-14,3,15,-9,-5,27,31,-9,-21,-21,-22
-15,-14,3,15,-9,-5,27,32,-8,-21,-21,-22
-15,-13,2,14,-9,-5,27,33,-7,-20,-21,-21
-14,-12,2,14,-8,-4,28,35,-5,-19,-20,-20
-14,-12,2,13,-8,-4,28,37,-4,-19,-20,-20
-13,-11,2,13,-7,-4,28,38,-3,-19,-20,-19
-11,-10,2,11,-6,-4,28,39,-3,-18,-19,-19
-10,-9,2,10,-5,-3,29,41,-2,-17,-18,-18
-8,-8,2,8,-4,-3,29,41,-1,-16,-17,-17
-6,-7,2,7,-4,-3,28,42,0,-16,-16,-16
-6,-6,1,7,-4,-3,28,42,1,-15,-15,-15
-6,-6,1,7,-3,-3,27,43,2,-15,-14,-14
-5,-5,0,6,-2,-3,27,43,3,-14,-13,-13
-3,-5,-1,5,-1,-3,26,44,4,-12,-12,-11
-2,-4,-1,4,0,-2,26,44,5,-11,-11,-10
-2,-3,0,3,0,-1,25,44,6,-9,-9,-8
-1,-3,0,2,0,-1,24,43,7,-8,-8,-7
0,-2,-1,2,0,-2,24,43,8,-7,-6,-6
1,-1,-1,1,1,-1,23,42,9,-7,-5,-5
2,0,-1,0,1,0,22,42,10,-6,-4,-4
2,1,-1,-1,1,0,21,41,11,-5,-3,-3
2,1,0,-1,1,1,20,39,11,-4,-2,-1
3,2,0,-2,2,2,19,38,12,-3,0,0
4,2,0,-3,3,2,18,37,12,-1,1,1
6,3,0,-4,4,2,16,35,12,0,2,2
6,4,0,-4,4,2,14,34,13,1,4,3
7,5,0,-5,4,2,13,32,13,2,5,4
7,5,0,-5,4,2,12,30,13,3,6,4
6,6,0,-5,3,3,11,28,13,4,6,5
6,6,1,-5,3,3,10,27,13,5,7,6
6,6,0,-6,4,3,9,25,13,6,7,7
7,6,0,-6,4,3,8,24,13,7,8,7
7,6,0,-5,4,3,7,22,13,7,9,8
7,5,0,-5,4,3,6,21,13,8,10,8
7,5,0,-5,4,3,5,19,12,8,11,8
7,5,0,-5,4,3,5,18,12,9,11,8
6,5,0,-5,3,3,5,17,12,9,11,8
5,5,0,-4,3,3,5,16,12,9,11,8
4,4,0,-4,3,3,4,14,12,9,10,8
4,4,0,-4,3,2,4,13,11,9,10,8
4,4,0,-4,3,2,4,13,11,10,11,8
5,4,0,-4,3,2,3,12,11,10,11,8
5,5,0,-4,3,2,3,12,11,10,11,8
4,4,0,-4,3,2,3,11,11,10,11,8
4,3,0,-3,3,1,3,11,11,9,11,8
4,3,0,-3,3,1,3,10,11,9,11,8
4,3,0,-3,3,1,2,10,10,10,11,8
5,3,0,-3,3,1,2,9,10,10,10,8
4,3,-1,-3,3,1,1,8,9,9,10,8
3,2,-1,-2,2,1,1,8,9,9,10,7
3,2,-1,-2,2,0,1,7,8,9,10,7
3,1,-1,-2,2,0,1,7,8,9,10,7
3,1,-1,-2,2,0,1,6,8,8,10,7
3,1,-1,-2,2,0,1,6,8,8,9,7
3,1,-1,-2,3,0,1,6,8,8,9,7
3,1,-1,-2,3,0,2,5,7,8,8,6
2,1,-1,-1,2,0,2,5,7,8,8,6
2,0,-1,-1,2,0,2,4,6,7,8,6
2,1,-1,-1,2,0,1,4,6,7,8,6
3,1,0,-2,2,0,1,4,6,7,8,6
3,1,0,-2,2,0,1,4,6,7,8,6
2,1,-1,-1,2,0,1,4,6,7,8,6
3,1,-1,-1,2,0,1,4,6,6,8,6
4,2,-1,-2,3,0,1,4,6,6,7,6
4,2,-1,-2,3,0,1,4,6,6,7,6
3,2,-1,-1,2,0,1,4,6,6,7,6
2,1,-1,-1,2,0,0,3,6,6,7,5
2,1,-1,-1,2,0,0,3,6,6,7,5
1,0,-1,-1,2,0,0,4,6,6,7,5
1,0,-1,0,1,0,1,4,6,6,7,5
1,0,0,0,1,0,1,4,6,6,7,5
1,0,0,0,1,0,1,4,6,6,7,5
1,0,0,0,1,0,0,3,5,6,6,5
1,-1,0,0,1,-1,0,3,5,5,6,5
1,-1,-1,0,2,-1,0,3,5,5,6,4
2,0,-1,0,2,-1,0,3,5,5,6,4
1,0,0,0,1,0,1,3,5,5,6,4
0,0,0,0,1,0,1,3,5,5,6,4
0,0,0,0,1,0,0,3,5,5,6,4
0,0,-1,0,1,-1,0,3,5,5,6,4
0,-1,-1,1,1,-1,0,4,6,5,6,4
0,0,-1,1,1,-1,0,4,6,6,7,5
1,0,0,0,1,0,1,4,6,6,7,5
1,0,0,0,2,0,1,4,6,6,6,5
1,0,0,0,2,0,1,4,6,6,6,5
1,-1,0,0,1,0,0,4,6,6,6,5
0,-1,0,1,1,0,0,4,6,6,5,5
0,-1,0,1,0,0,0,4,6,6,5,5
0,-1,0,1,0,0,1,5,6,6,6,5
0,-1,0,1,1,-1,1,5,6,6,6,5
0,-1,0,1,1,-1,1,5,6,5,5,5
-1,-1,0,1,0,0,2,5,6,5,5,4
0,-1,0,1,0,0,2,5,6,5,5,4
0,-1,-1,1,1,-1,2,5,7,5,5,4
0,-1,-1,1,1,-1,2,6,7,5,5,4
0,-1,-1,1,0,-1,2,6,7,5,5,4
0,-2,-1,1,0,-1,2,6,7,5,6,4
0,-2,-2,1,1,-2,2,6,7,5,6,4
0,-2,-1,1,1,-2,2,6,7,5,6,4
0,-2,-1,1,1,-1,2,7,7,5,5,4
0,-2,-1,1,1,-1,2,7,7,6,5,4
0,-2,-1,1,1,-2,2,7,7,6,5,4
0,-2,-2,1,1,-2,2,7,7,6,5,4
0,-2,-2,1,1,-1,2,7,7,6,5,4
0,-1,-1,1,1,-1,2,7,7,6,5,4
0,-1,-1,1,1,-1,2,7,7,6,5,4
0,-1,0,0,1,-1,2,7,7,6,5,4
0,-1,0,0,1,0,2,8,7,6,5,4
0,-1,0,0,1,0,2,8,7,7,6,4
0,0,0,0,1,0,3,9,8,7,7,5
1,0,0,-1,1,1,4,10,9,8,7,5
2,2,0,-2,1,1,5,10,9,9,8,5
2,2,1,-2,1,2,5,10,9,9,8,5
2,2,1,-2,0,2,5,10,9,9,8,5
2,3,1,-2,0,2,5,11,9,9,8,5
2,3,1,-3,1,2,6,11,9,10,9,6
3,4,2,-4,1,3,6,12,10,10,9,7
3,4,2,-4,1,3,6,12,10,11,10,8
3,4,2,-3,1,3,6,12,10,11,10,8
3,5,2,-4,1,4,7,12,10,11,10,8
4,6,2,-5,1,4,7,12,10,10,10,8
4,7,3,-5,1,5,7,12,10,10,10,8
4,7,3,-5,1,5,7,12,10,11,10,8
4,7,3,-5,1,5,7,12,10,11,10,8
4,7,3,-5,1,5,6,11,10,11,10,8
5,7,3,-5,1,5,5,10,10,11,10,8
5,7,3,-6,1,5,3,9,9,11,10,8
6,8,3,-7,2,5,2,9,9,10,10,8
7,10,3,-8,2,6,1,9,9,10,11,9
7,10,3,-8,2,6,0,8,9,10,11,9
7,9,3,-8,3,5,-1,7,8,10,11,9
8,9,2,-8,4,5,-2,6,8,9,11,9
9,9,1,-9,5,5,-4,6,7,9,11,10
9,9,0,-9,5,5,-4,6,7,9,11,10
8,8,1,-8,4,5,-5,6,8,9,11,11
7,7,1,-7,3,4,-5,7,8,9,11,11
8,7,0,-7,4,3,-5,7,8,9,12,11
8,6,-1,-7,5,3,-4,7,8,9,12,11
8,5,-1,-7,5,2,-4,8,9,9,12,11
9,5,-2,-6,6,1,-3,8,9,9,12,11
9,4,-2,-6,6,1,-3,9,10,9,12,11
9,4,-2,-6,6,1,-2,9,10,9,12,11
8,4,-2,-6,6,1,-2,10,10,9,12,11
8,4,-2,-6,6,1,-2,10,10,10,12,11
7,4,-2,-5,5,0,-2,10,10,10,12,10
6,3,-2,-4,5,0,-2,10,9,9,12,10
5,2,-2,-3,4,0,-1,10,9,9,11,9
4,0,-2,-2,4,-1,-1,10,8,8,11,9
3,-1,-2,0,3,-1,0,10,7,7,11,8
2,-2,-2,0,3,-2,0,9,6,6,10,7
1,-2,-2,1,2,-2,0,8,5,5,8,6
0,-3,-2,2,2,-2,0,7,5,5,7,5
0,-3,-2,2,2,-2,0,7,4,4,6,5
0,-4,-2,2,2,-2,0,6,4,3,6,4
0,-4,-2,2,2,-2,0,6,4,3,5,4
-1,-4,-2,2,2,-2,0,6,4,3,5,4
-1,-4,-2,3,2,-2,0,6,4,2,5,4
-1,-4,-2,3,1,-2,0,6,4,2,5,4
-1,-4,-2,3,1,-2,0,6,4,2,5,4
-1,-5,-2,3,1,-3,0,6,4,2,5,4
-1,-5,-3,4,1,-4,0,6,4,2,5,4
-2,-6,-3,4,1,-4,0,6,4,2,5,4
-2,-6,-3,4,1,-4,0,6,4,2,5,3
-2,-6,-3,4,1,-4,-1,6,4,2,5,3
-2,-6,-3,4,1,-4,-1,6,4,2,5,3
-2,-5,-2,4,1,-4,-1,6,4,2,5,3
-2,-5,-2,4,0,-3,-1,6,4,1,5,3
-1,-5,-2,4,1,-4,-1,6,4,1,4,2
-1,-5,-3,3,1,-4,-1,6,4,1,4,2
0,-4,-2,3,1,-4,-1,6,4,1,4,3
-1,-5,-3,3,1,-4,-1,6,4,1,4,3
-1,-5,-4,3,2,-5,-1,6,4,1,4,3
-1,-6,-4,3,2,-5,0,6,4,1,5,3
-1,-6,-4,3,2,-4,0,7,4,1,5,3
-1,-6,-4,3,2,-4,0,7,4,1,4,2
-1,-6,-4,4,2,-4,0,9,4,1,4,2
-2,-6,-3,4,1,-4,1,11,6,1,4,3
-2,-6,-3,4,1,-4,3,15,8,2,4,3
-2,-5,-2,4,0,-4,4,18,10,3,5,3
-1,-4,-1,3,0,-3,6,21,13,4,6,3
-1,-3,-1,2,0,-2,7,22,16,7,8,4
0,-1,-1,1,2,-1,6,22,19,10,10,6
2,0,-2,0,3,-1,4,18,21,13,12,7
3,0,-2,-1,4,-1,0,13,23,15,14,9
6,1,-4,-3,6,-1,-3,9,26,19,18,11
10,3,-6,-6,8,-1,-9,3,31,25,23,16
16,7,-8,-11,12,0,-18,-3,38,34,31,22
25,12,-11,-18,18,0,-30,-11,46,45,42,31
35,20,-14,-27,25,2,-45,-18,57,60,57,43
46,28,-17,-37,32,5,-62,-25,68,76,72,56
56,36,-19,-45,39,8,-80,-35,76,89,86,68
64,41,-22,-52,44,9,-97,-46,80,98,96,77
71,45,-25,-57,49,10,-111,-58,79,103,103,85
76,49,-26,-62,52,11,-124,-73,75,107,110,93
80,53,-26,-66,54,13,-137,-88,70,110,116,100
84,58,-25,-70,55,16,-147,-102,65,112,122,108
86,63,-21,-73,54,20,-155,-114,58,114,127,114
83,69,-13,-75,49,27,-158,-127,48,113,129,119
75,75,1,-75,38,38,-157,-142,33,109,128,122
64,82,19,-73,23,51,-154,-156,14,100,122,121
53,87,35,-70,9,61,-149,-166,-6,87,112,117
42,86,46,-64,-1,67,-142,-172,-30,64,94,105
31,81,51,-56,-9,67,-132,-174,-55,35,68,87
20,72,52,-46,-16,63,-119,-172,-77,7,42,67
10,59,50,-34,-20,55,-104,-163,-91,-16,19,46
0,45,45,-22,-21,45,-89,-149,-97,-35,-1,27
-7,31,39,-11,-22,35,-75,-134,-98,-47,-16,12
-12,20,34,-4,-22,27,-62,-117,-94,-53,-26,0
-15,13,30,1,-22,22,-52,-102,-88,-56,-32,-8
-17,9,27,4,-22,18,-44,-89,-82,-57,-35,-14
-18,4,24,7,-22,15,-37,-78,-75,-57,-37,-18
-19,0,20,10,-20,10,-31,-68,-69,-56,-38,-20
-19,-5,14,13,-17,5,-25,-59,-63,-54,-39,-22
-19,-9,10,15,-14,0,-20,-51,-56,-51,-38,-23
-18,-13,6,16,-11,-3,-15,-43,-50,-47,-36,-24
-17,-16,2,17,-9,-7,-10,-35,-45,-44,-34,-24
-17,-18,0,18,-8,-9,-6,-29,-40,-41,-32,-24
-17,-19,0,18,-8,-9,-2,-23,-36,-38,-30,-23
-17,-19,-1,18,-8,-9,1,-17,-31,-35,-28,-22
-16,-19,-1,18,-7,-9,4,-13,-27,-33,-26,-21
-15,-18,-2,18,-6,-10,7,-9,-24,-31,-24,-20
-14,-18,-3,18,-5,-10,9,-6,-21,-29,-23,-19
-14,-18,-4,17,-5,-11,10,-4,-19,-28,-23,-19
-14,-18,-4,17,-4,-11,11,-2,-18,-26,-22,-19
-14,-18,-4,17,-4,-11,12,-1,-17,-25,-21,-18
-14,-19,-4,17,-4,-12,13,0,-16,-24,-20,-18
-14,-19,-4,17,-5,-11,13,0,-15,-24,-20,-18
-14,-18,-3,17,-5,-11,14,1,-15,-24,-20,-18
-14,-18,-4,17,-4,-11,15,1,-14,-24,-20,-18
-14,-19,-4,17,-4,-11,15,1,-14,-24,-21,-18
-15,-19,-3,17,-5,-11,16,2,-13,-24,-21,-18
-15,-18,-3,17,-5,-11,17,2,-13,-23,-21,-18
-15,-18,-3,17,-5,-10,18,3,-13,-23,-20,-18
-14,-18,-3,17,-5,-10,18,3,-13,-23,-20,-18
-14,-18,-3,17,-5,-11,18,3,-13,-23,-20,-18
-14,-18,-4,17,-5,-11,18,3,-13,-23,-20,-18
-14,-18,-4,17,-5,-11,19,3,-13,-23,-20,-18
-14,-18,-4,17,-5,-11,19,3,-13,-23,-20,-18
-14,-18,-3,16,-5,-11,19,3,-13,-23,-20,-18
-14,-18,-3,16,-5,-10,19,3,-13,-23,-20,-18
-14,-18,-3,16,-5,-10,19,3,-13,-23,-20,-18
-14,-18,-3,16,-5,-10,20,3,-13,-23,-20,-18
-14,-17,-3,16,-5,-10,20,3,-13,-23,-20,-18
-14,-16,-2,16,-5,-9,21,4,-12,-23,-20,-18
-14,-16,-2,16,-5,-9,21,4,-12,-23,-20,-18
-14,-17,-3,16,-5,-10,21,4,-13,-23,-21,-18
-13,-17,-4,16,-4,-10,21,4,-13,-23,-21,-18
-14,-18,-4,17,-4,-11,21,4,-13,-23,-22,-18
-15,-18,-3,17,-5,-11,21,4,-13,-23,-22,-18
-15,-18,-2,17,-6,-10,20,4,-13,-23,-22,-18
-15,-18,-2,17,-6,-10,20,4,-13,-24,-22,-18
-15,-18,-3,17,-5,-11,20,4,-13,-24,-22,-18
-15,-18,-3,17,-5,-11,20,4,-13,-24,-22,-18
-15,-18,-3,17,-5,-11,21,4,-13,-24,-21,-18
-15,-18,-3,17,-5,-11,21,4,-13,-24,-21,-18
-15,-18,-3,17,-5,-11,21,4,-13,-24,-22,-18
-15,-18,-3,17,-5,-11,21,4,-13,-24,-22,-18
-15,-18,-3,17,-5,-11,22,4,-13,-24,-23,-18
-15,-17,-3,16,-5,-11,22,5,-13,-24,-23,-18
-15,-17,-3,16,-5,-11,22,5,-13,-24,-23,-19
-15,-18,-3,16,-5,-11,22,5,-14,-25,-23,-19
-14,-18,-4,16,-4,-11,22,5,-14,-25,-23,-19
-14,-18,-3,16,-5,-11,23,6,-14,-25,-23,-19
-15,-18,-2,17,-6,-10,23,6,-14,-25,-23,-19
-15,-18,-2,17,-6,-10,23,6,-14,-25,-24,-19
-15,-18,-2,17,-6,-10,23,6,-14,-26,-24,-20
-16,-18,-2,17,-6,-10,23,7,-14,-26,-24,-20
-16,-18,-2,17,-6,-11,23,7,-14,-26,-25,-20
-16,-18,-2,18,-6,-11,23,7,-15,-26,-25,-21
-16,-18,-2,18,-6,-11,23,8,-15,-26,-25,-21
-16,-18,-2,18,-6,-10,23,9,-15,-26,-25,-21
-16,-18,-2,18,-6,-10,24,9,-15,-27,-25,-21
-15,-18,-2,17,-6,-10,24,10,-15,-27,-26,-21
-15,-18,-2,17,-6,-10,25,10,-15,-28,-26,-22
-16,-18,-2,18,-6,-10,25,11,-15,-28,-26,-22
-17,-18,-2,18,-7,-10,26,12,-15,-28,-27,-22
-17,-18,-2,18,-7,-10,26,13,-15,-28,-27,-22
-17,-19,-2,18,-7,-10,27,14,-15,-28,-27,-22
-17,-19,-2,19,-7,-10,27,15,-15,-28,-27,-22
-17,-19,-1,19,-7,-10,28,16,-15,-28,-27,-22
-17,-19,-1,19,-7,-10,29,17,-14,-28,-27,-22
-17,-19,-1,18,-7,-10,29,18,-14,-28,-28,-23
-17,-18,0,18,-7,-9,30,19,-13,-28,-28,-23
-17,-18,0,17,-7,-9,30,20,-13,-28,-28,-23
-17,-17,0,17,-7,-9,30,22,-12,-28,-28,-23
-17,-17,0,17,-7,-8,31,23,-12,-28,-28,-23
-16,-16,0,17,-7,-8,31,25,-11,-28,-28,-23
-16,-16,0,17,-7,-8,32,26,-10,-28,-28,-23
-15,-16,0,17,-7,-8,33,28,-10,-28,-28,-23
-16,-16,0,17,-7,-8,33,30,-9,-28,-28,-23
-16,-16,0,16,-7,-8,34,31,-8,-28,-28,-23
-15,-16,0,16,-7,-8,34,32,-7,-28,-28,-22
-15,-16,0,15,-6,-8,35,34,-6,-28,-27,-22
-14,-15,0,15,-6,-7,36,35,-5,-27,-27,-22
-13,-14,0,14,-5,-7,37,37,-4,-26,-26,-21
-12,-13,-1,13,-5,-7,38,38,-3,-26,-26,-20
-11,-12,-1,12,-5,-6,38,39,-2,-25,-25,-20
-10,-11,0,12,-5,-6,39,40,-1,-24,-25,-19
-10,-10,0,11,-4,-6,39,41,0,-24,-24,-19
-9,-10,0,10,-4,-6,39,42,0,-23,-23,-18
-8,-9,-1,9,-3,-5,39,42,1,-23,-22,-17
-7,-8,-1,8,-2,-5,39,43,3,-22,-21,-16
-6,-7,-1,7,-1,-4,39,44,4,-21,-20,-14
-6,-6,-1,7,-1,-4,38,44,5,-19,-19,-13
-5,-6,-1,6,-1,-4,38,44,6,-18,-18,-12
-4,-5,-1,5,-1,-3,37,44,7,-17,-17,-11
-3,-4,-1,3,0,-2,37,44,8,-16,-16,-10
-2,-3,0,2,0,-1,36,44,9,-15,-14,-9
-1,-2,0,1,0,-1,34,44,10,-13,-13,-7
0,-1,0,0,1,0,33,43,10,-12,-11,-6
1,0,0,0,1,0,32,42,11,-11,-10,-5
2,1,0,-1,2,0,31,41,11,-10,-9,-4
4,2,0,-2,2,0,29,39,12,-9,-8,-3
4,3,0,-3,2,1,28,38,12,-8,-6,-2
4,3,0,-3,3,0,27,37,13,-7,-5,0
5,3,-1,-4,4,0,25,35,13,-6,-4,0
5,4,-1,-4,4,1,24,34,14,-5,-3,1
5,5,0,-4,3,2,23,32,14,-3,-1,2
5,5,0,-4,3,2,22,30,14,-2,0,3
5,5,0,-4,3,2,21,29,14,-1,0,4
5,5,0,-4,3,2,20,27,15,0,1,5
5,5,0,-5,3,2,19,26,15,0,2,5
5,5,0,-5,3,2,18,24,14,1,2,6
6,6,0,-5,3,2,17,23,14,1,3,6
6,7,0,-6,3,2,16,21,14,2,3,6
6,6,0,-6,3,2,15,20,13,2,3,6
6,6,0,-6,3,2,15,18,13,3,4,6
6,6,0,-6,3,2,14,17,13,3,4,6
6,6,0,-6,3,2,14,17,13,4,5,6
5,6,0,-5,3,2,13,16,13,4,5,6
5,5,0,-5,2,2,13,15,13,4,5,6
5,4,0,-4,3,1,12,14,12,4,5,6
5,4,0,-4,3,1,12,13,12,4,5,6
5,4,0,-4,3,1,11,12,12,3,4,6
4,3,0,-4,3,1,11,11,12,3,4,5
3,2,0,-3,3,0,10,11,12,3,4,5
3,2,0,-2,2,0,10,10,12,3,4,5
4,3,-1,-3,3,0,10,10,11,3,3,5
4,3,-1,-3,3,0,9,9,10,3,3,5
4,3,-1,-3,3,0,9,9,10,3,2,5
3,2,-1,-2,2,0,9,8,9,3,2,5
3,2,0,-2,2,0,9,8,9,3,2,4
3,2,0,-2,2,0,9,8,9,3,2,4
3,2,0,-2,2,0,9,7,9,2,2,4
3,1,0,-2,2,0,8,7,8,2,2,4
3,1,-1,-1,2,-1,8,6,8,1,1,3
3,1,-1,-1,2,-1,8,6,7,1,1,3
3,1,-2,-2,3,-1,8,6,7,1,0,3
3,1,-2,-2,3,-1,8,6,7,1,0,3
3,0,-3,-1,3,-2,8,6,7,1,0,2
3,0,-3,-1,3,-2,8,5,7,1,0,2
3,0,-2,-1,2,-1,8,5,7,1,0,2
4,1,-2,-2,3,-1,8,5,7,1,0,2
4,2,-2,-2,3,0,8,5,7,1,0,2
4,2,-2,-3,4,0,8,5,7,1,0,2
4,1,-2,-2,3,-1,8,5,7,1,0,2
3,0,-2,-1,2,-1,8,5,7,1,0,1
1,0,-1,0,1,-1,8,5,7,1,0,1
1,-1,-1,0,2,-1,8,5,7,0,-1,1
1,-1,-2,0,3,-2,8,5,7,0,-1,1
1,-1,-2,0,3,-2,8,5,7,0,-1,1
1,-1,-2,1,2,-2,8,5,7,0,-1,1
1,-1,-2,1,2,-2,8,5,7,0,-1,0
1,-2,-2,0,3,-2,8,5,7,0,-1,0
1,-2,-2,0,3,-3,8,5,7,0,-1,0
1,-2,-2,0,3,-3,8,6,7,0,-1,0
2,-1,-2,0,3,-2,8,6,7,0,-1,0
2,-1,-2,0,3,-2,8,6,7,0,-1,0
2,-2,-3,0,3,-2,8,6,7,0,-1,0
2,-2,-3,1,3,-3,8,6,7,0,-1,0
2,-2,-3,1,3,-3,8,6,7,0,-1,0
1,-2,-2,1,2,-2,9,6,7,0,-1,0
1,-1,-2,0,2,-2,9,6,7,0,-1,0
1,-2,-3,0,3,-2,9,6,7,0,-1,0
1,-2,-3,1,3,-2,9,6,7,0,-2,0
0,-2,-2,1,2,-2,9,6,7,0,-2,0
1,-2,-2,1,2,-2,10,6,7,0,-2,0
1,-2,-3,1,3,-3,10,6,7,0,-2,0
1,-2,-3,1,3,-3,10,6,7,0,-2,-1
0,-3,-3,1,2,-3,10,7,7,0,-2,-1
0,-3,-2,1,2,-3,11,7,7,0,-2,0
0,-3,-3,1,2,-3,11,8,7,0,-2,0
1,-3,-4,1,3,-4,11,8,7,-1,-2,-1
1,-3,-3,1,3,-4,11,8,7,-1,-2,-1
0,-3,-3,1,2,-3,11,8,8,0,-2,-1
0,-3,-2,1,2,-3,12,8,8,0,-2,-1
0,-4,-2,2,2,-3,12,8,8,0,-3,-1
0,-4,-2,2,2,-3,12,8,8,0,-3,-2
0,-4,-2,2,2,-3,12,8,8,0,-3,-2
0,-4,-3,2,2,-3,13,9,8,0,-3,-1
0,-4,-3,2,2,-3,13,9,8,0,-3,-1
-1,-4,-3,2,2,-3,13,9,8,0,-3,-1
-1,-4,-3,3,2,-3,13,9,8,0,-3,-1
-1,-4,-3,3,2,-3,13,9,8,0,-3,-1
0,-4,-3,2,2,-3,13,9,8,0,-3,-1
0,-4,-3,2,2,-3,13,9,7,0,-3,-1
0,-4,-3,2,2,-3,14,9,7,0,-3,-1
0,-3,-2,2,2,-3,14,9,7,0,-3,-1
0,-3,-1,2,1,-2,14,9,8,0,-3,-1
0,-2,-1,1,2,-2,15,9,8,0,-3,-1
1,-1,-2,0,2,-1,15,10,8,0,-3,-1
1,0,-1,0,2,0,16,10,9,0,-2,-1
0,0,0,0,1,0,16,11,9,0,-2,-1
0,0,1,0,0,1,16,11,9,1,-2,-1
0,1,1,0,0,1,16,11,10,1,-2,0
0,1,2,-1,0,2,17,11,10,2,-2,0
0,2,2,-1,0,2,18,12,11,2,-1,0
1,3,2,-1,0,3,18,12,11,2,-1,0
1,4,2,-2,0,3,18,12,11,2,-1,0
2,4,2,-3,1,3,18,12,11,2,-1,0
2,5,3,-3,1,3,18,12,11,2,-1,1
2,5,3,-4,1,4,18,13,11,3,0,1
3,6,3,-4,1,4,18,13,12,3,0,2
3,6,3,-5,1,4,17,12,12,4,0,2
3,6,3,-4,1,4,17,12,12,4,0,2
3,6,4,-4,1,5,16,12,12,4,0,2
3,6,4,-5,1,5,15,11,11,4,0,2
4,6,3,-5,2,4,13,10,11,3,0,2
5,6,3,-6,2,5,12,9,10,3,0,3
6,7,3,-6,2,5,11,8,10,3,0,3
5,8,3,-6,2,6,10,7,10,3,0,3
5,8,2,-6,2,5,9,6,9,2,-1,3
6,8,2,-7,2,5,8,6,8,2,-1,3
6,8,2,-7,3,6,7,6,9,2,0,3
7,9,2,-8,3,6,7,6,10,3,0,4
8,8,1,-8,4,5,7,7,10,3,0,4
8,6,0,-7,5,3,7,7,10,4,1,5
8,6,-1,-7,5,2,7,7,10,4,1,5
8,5,-2,-7,6,2,8,8,10,5,1,5
8,5,-3,-6,6,1,8,8,11,5,1,5
8,4,-3,-6,6,1,9,9,11,5,2,6
8,4,-4,-6,6,0,10,9,12,6,2,6
8,3,-4,-5,7,0,10,10,12,6,2,6
7,2,-5,-5,7,0,10,10,12,5,2,6
6,1,-4,-3,6,-1,11,10,12,5,2,6
4,0,-4,-2,4,-1,11,10,12,5,2,6
3,0,-3,-2,4,-1,11,10,12,5,2,5
3,0,-3,-1,4,-1,12,10,12,5,1,5
2,-1,-3,-1,3,-2,12,10,11,5,1,4
1,-2,-3,0,3,-2,13,10,11,4,0,3
1,-3,-4,1,3,-3,13,9,11,3,-1,2
0,-4,-4,2,3,-4,13,9,10,2,-2,1
0,-5,-4,3,2,-5,13,8,9,2,-3,0
-1,-6,-4,3,2,-5,13,8,9,2,-3,0
-1,-6,-5,3,2,-6,13,8,9,2,-3,0
-1,-6,-5,3,3,-6,13,7,9,1,-3,0
-1,-6,-5,3,3,-6,12,7,9,1,-3,0
-1,-6,-5,3,3,-6,12,7,9,1,-3,0
-1,-6,-5,3,2,-5,12,7,9,1,-3,0
-2,-6,-4,3,2,-5,13,6,9,1,-3,0
-2,-6,-4,3,2,-5,13,6,9,1,-3,0
-2,-6,-4,4,1,-5,13,6,9,1,-3,0
-2,-7,-4,4,1,-5,13,6,9,1,-3,0
-2,-7,-4,4,1,-5,12,6,9,1,-3,0
-2,-7,-4,4,1,-5,12,6,9,1,-4,0
-2,-7,-4,4,1,-5,12,6,9,0,-4,0
-2,-7,-5,4,1,-6,12,6,9,0,-4,0
-2,-7,-5,4,1,-6,12,6,9,0,-4,0
-1,-6,-5,4,2,-5,12,6,9,0,-4,0
0,-6,-5,4,3,-5,12,6,9,0,-4,0
0,-6,-6,3,3,-6,12,6,9,0,-4,0
-1,-7,-5,4,3,-6,12,6,9,0,-4,0
-2,-7,-5,5,2,-6,12,6,8,0,-5,0
-3,-8,-5,5,2,-7,11,6,8,-1,-5,-1
-2,-7,-6,5,3,-7,11,6,8,-1,-5,-1
-1,-7,-6,5,3,-7,12,7,9,0,-4,0
-1,-7,-5,5,3,-7,12,9,9,0,-4,0
-1,-7,-5,5,3,-7,13,11,10,1,-4,0
-1,-7,-4,4,3,-6,15,14,12,2,-3,0
-1,-6,-3,4,2,-5,17,18,15,4,-2,1
-1,-5,-3,3,1,-4,19,21,18,6,0,3
-1,-4,-2,2,1,-3,19,22,21,8,1,4
0,-3,-2,1,2,-3,18,20,24,11,3,5
1,-2,-3,0,3,-3,16,16,25,13,5,6
3,-1,-4,0,4,-3,13,12,27,16,7,7
6,0,-6,-3,7,-3,8,7,29,20,11,9
12,3,-8,-7,11,-2,1,1,34,26,17,14
19,7,-10,-13,16,-1,-8,-6,41,36,26,22
27,13,-13,-20,22,0,-21,-14,50,49,38,32
37,20,-16,-29,28,1,-37,-21,62,64,52,44
48,28,-19,-38,34,3,-55,-29,73,79,67,57
57,34,-23,-45,41,5,-72,-38,79,90,80,68
66,39,-26,-52,47,6,-88,-49,81,98,89,76
74,44,-29,-58,52,7,-103,-63,79,103,96,84
79,48,-30,-63,55,9,-116,-79,75,106,102,91
83,53,-29,-67,57,12,-128,-93,71,109,108,99
86,58,-28,-71,58,15,-137,-107,65,112,114,106
87,63,-23,-74,56,19,-143,-119,58,113,118,113
82,68,-13,-75,48,27,-144,-133,47,111,120,117
73,75,3,-73,35,39,-143,-148,31,106,117,119
62,82,22,-71,21,52,-139,-160,12,97,111,118
52,87,37,-69,8,62,-134,-169,-8,82,100,113
41,85,46,-63,-1,66,-126,-174,-33,58,80,100
30,79,50,-54,-9,65,-115,-175,-57,30,55,82
18,68,51,-43,-16,60,-102,-171,-77,3,30,61
7,54,48,-30,-19,51,-87,-160,-89,-19,7,41
-1,40,42,-18,-21,41,-71,-146,-93,-35,-10,23
-8,28,37,-9,-22,32,-58,-129,-92,-45,-23,9
-13,19,33,-2,-23,25,-47,-113,-87,-51,-32,-1
-16,12,29,2,-22,20,-38,-99,-82,-54,-38,-9
-18,6,25,6,-21,15,-30,-87,-77,-55,-42,-15
-19,0,20,9,-19,10,-23,-76,-71,-55,-44,-19
-18,-4,14,11,-15,5,-17,-66,-64,-54,-45,-21
-17,-7,10,12,-13,1,-11,-57,-57,-51,-45,-22
-17,-11,6,14,-11,-2,-6,-49,-51,-48,-44,-23
-17,-14,3,16,-9,-6,-1,-41,-46,-45,-42,-24
-17,-17,0,18,-8,-9,4,-34,-40,-42,-40,-24
-17,-19,-1,19,-8,-10,8,-27,-35,-39,-38,-24
-16,-19,-1,18,-7,-11,11,-21,-31,-36,-36,-23
-15,-19,-2,18,-6,-11,13,-17,-27,-33,-34,-22
-15,-20,-2,18,-6,-11,15,-13,-23,-30,-32,-22
-15,-19,-3,17,-5,-11,18,-9,-20,-28,-31,-21
-15,-19,-3,17,-5,-11,20,-6,-17,-26,-30,-20
-15,-18,-3,17,-5,-11,22,-4,-15,-24,-29,-20
-15,-18,-3,17,-5,-11,23,-2,-14,-23,-28,-19
-15,-18,-3,17,-5,-11,24,-1,-14,-23,-28,-19
-15,-18,-3,17,-5,-11,24,0,-13,-22,-27,-19
-14,-18,-3,17,-5,-11,25,0,-12,-22,-26,-18
-14,-18,-3,17,-5,-11,25,1,-11,-21,-26,-18
-14,-18,-4,17,-4,-11,25,1,-11,-22,-26,-19
-14,-18,-4,16,-4,-12,25,1,-11,-22,-26,-19
-14,-18,-4,16,-4,-12,26,2,-10,-21,-26,-19
-14,-18,-4,16,-4,-12,26,2,-10,-21,-25,-19
-14,-18,-4,16,-4,-12,26,2,-10,-21,-25,-19
-13,-18,-4,16,-4,-12,26,2,-10,-21,-25,-19
-13,-19,-5,16,-3,-12,26,2,-10,-21,-25,-19
-13,-19,-4,16,-3,-12,27,2,-10,-21,-25,-19
-14,-19,-4,16,-3,-12,27,2,-10,-21,-25,-19
-14,-19,-4,17,-4,-12,28,2,-10,-21,-26,-19
-15,-20,-4,17,-4,-13,28,2,-11,-21,-26,-19
-15,-19,-4,17,-4,-13,28,2,-11,-21,-26,-19
-14,-19,-4,17,-4,-12,28,2,-10,-21,-26,-18
-14,-18,-4,16,-4,-11,28,3,-10,-21,-26,-18
-13,-17,-4,16,-4,-11,29,3,-10,-21,-26,-18
-13,-17,-4,16,-4,-11,29,3,-10,-21,-26,-18
-13,-17,-4,16,-4,-11,30,3,-10,-21,-26,-18
-13,-17,-4,15,-4,-11,30,3,-10,-21,-26,-19
-13,-17,-3,15,-4,-11,30,2,-11,-21,-27,-19
-13,-18,-3,15,-4,-11,30,2,-11,-21,-27,-20
-12,-17,-4,15,-3,-11,30,2,-11,-21,-27,-20
-12,-17,-5,15,-3,-12,30,2,-11,-21,-27,-20
-12,-17,-5,15,-3,-12,30,2,-12,-21,-27,-20
-13,-17,-4,16,-3,-11,30,2,-12,-21,-27,-20
-13,-17,-4,16,-3,-11,30,2,-12,-21,-27,-20
-13,-18,-5,16,-3,-12,30,2,-12,-21,-27,-20
-13,-18,-5,16,-3,-12,29,2,-12,-21,-27,-20
-13,-18,-5,16,-3,-12,29,2,-12,-21,-27,-20
-14,-19,-4,17,-4,-12,29,2,-12,-22,-27,-20
-15,-19,-4,18,-4,-12,29,2,-13,-22,-27,-21
-15,-19,-4,17,-5,-11,29,2,-13,-22,-27,-21
-14,-18,-4,16,-4,-11,29,3,-12,-22,-27,-21
-14,-17,-4,16,-4,-11,29,4,-12,-22,-27,-21
-14,-17,-4,16,-4,-11,29,4,-12,-23,-27,-21
-13,-17,-4,15,-4,-11,30,5,-11,-23,-27,-21
-13,-18,-4,16,-3,-12,30,5,-11,-23,-27,-21
-14,-19,-5,16,-3,-12,30,5,-11,-24,-27,-21
-14,-19,-5,17,-3,-12,30,5,-11,-24,-27,-21
-14,-18,-5,17,-4,-12,30,5,-11,-24,-28,-21
-14,-18,-5,17,-4,-12,30,6,-11,-24,-28,-21
-14,-18,-5,17,-4,-12,30,6,-11,-25,-29,-22
-15,-18,-4,16,-5,-12,29,7,-11,-25,-29,-22
-15,-18,-4,16,-5,-12,29,7,-11,-25,-29,-22
-14,-18,-4,16,-4,-12,29,8,-12,-25,-29,-22
-14,-19,-4,17,-4,-12,30,8,-12,-25,-30,-23
-15,-19,-4,17,-5,-12,31,9,-12,-26,-30,-23
-16,-19,-3,18,-5,-12,31,10,-12,-26,-30,-23
-17,-19,-3,18,-6,-12,32,11,-12,-26,-31,-23
-17,-20,-4,18,-6,-12,32,11,-12,-26,-31,-23
-16,-20,-4,18,-5,-12,33,12,-11,-26,-31,-23
-16,-20,-4,18,-5,-12,33,13,-11,-27,-32,-24
-16,-20,-3,18,-5,-12,33,14,-12,-27,-32,-24
-16,-20,-3,18,-5,-12,33,16,-11,-27,-32,-24
-16,-19,-4,17,-5,-12,33,17,-11,-27,-32,-24
-15,-19,-4,17,-4,-12,34,19,-11,-27,-32,-24
-15,-18,-4,17,-4,-12,34,20,-11,-27,-32,-24
-15,-18,-3,17,-5,-11,35,21,-11,-27,-32,-25
-16,-18,-2,17,-6,-11,36,23,-10,-27,-32,-25
-15,-18,-2,16,-6,-11,37,24,-10,-27,-32,-25
-15,-18,-2,16,-6,-11,37,25,-9,-27,-32,-25
-15,-18,-2,16,-6,-10,37,27,-9,-27,-32,-24
-15,-16,-1,15,-6,-9,37,28,-8,-26,-32,-24
-14,-15,-2,15,-5,-9,38,30,-7,-26,-31,-23
-13,-15,-3,15,-4,-9,39,32,-6,-25,-31,-23
-13,-15,-3,14,-4,-9,39,34,-5,-25,-30,-22
-12,-15,-3,14,-4,-9,40,35,-4,-25,-29,-21
-11,-15,-4,13,-3,-10,40,36,-3,-24,-29,-21
-10,-15,-5,13,-2,-10,40,37,-2,-24,-29,-21
-10,-14,-4,12,-2,-10,40,39,-1,-23,-28,-20
-9,-13,-3,11,-2,-9,40,40,0,-22,-27,-19
-8,-12,-3,10,-1,-8,39,41,0,-21,-26,-18
-7,-11,-4,9,-1,-8,39,42,1,-20,-26,-18
-6,-10,-4,8,0,-8,39,43,2,-19,-25,-17
-5,-9,-4,7,0,-8,38,43,3,-19,-24,-16
-3,-9,-5,6,1,-8,38,43,4,-18,-23,-15
-2,-8,-5,5,2,-7,38,44,5,-16,-21,-13
-2,-7,-5,4,2,-6,38,44,6,-15,-20,-12
-1,-6,-5,4,2,-6,38,45,7,-14,-19,-11
0,-5,-5,3,3,-6,37,44,8,-13,-17,-10
0,-5,-6,2,4,-6,36,44,8,-12,-16,-9
1,-4,-6,1,4,-6,35,43,9,-11,-15,-8
2,-3,-6,0,4,-5,35,42,9,-10,-14,-6
3,-2,-6,0,5,-4,34,41,10,-9,-13,-6
4,-2,-6,-1,6,-4,33,40,10,-8,-12,-5
5,-1,-6,-2,7,-4,31,39,10,-7,-11,-3
6,1,-6,-3,7,-3,30,38,11,-5,-9,-2
7,2,-5,-4,7,-2,29,36,12,-3,-7,0
7,3,-5,-4,7,-2,28,35,13,-2,-5,1
7,3,-5,-4,7,-2,27,33,13,-1,-4,2
8,3,-6,-5,7,-2,26,30,13,0,-3,3
8,4,-5,-6,7,-1,25,28,13,1,-3,3
8,4,-5,-6,7,0,24,27,13,2,-2,4
8,4,-4,-6,7,0,23,25,13,3,-1,5
8,4,-4,-7,7,0,21,23,13,3,0,5
8,4,-4,-7,7,0,20,22,13,4,0,6
8,4,-4,-7,7,0,19,20,13,5,1,6
8,4,-4,-6,6,0,19,19,12,5,2,7
7,4,-3,-6,6,0,18,18,12,6,3,7
8,4,-3,-6,6,0,18,17,12,6,3,7
8,4,-3,-6,6,0,17,15,12,7,3,7
7,3,-3,-5,5,0,16,14,11,7,3,7
6,3,-3,-5,5,0,15,13,11,7,3,7
6,3,-3,-5,6,0,14,12,11,7,3,7
6,3,-3,-5,6,0,14,12,11,7,3,7
7,3,-3,-5,5,0,13,11,11,7,3,7
7,2,-4,-5,5,-1,13,10,10,6,3,7
6,1,-4,-4,5,-2,13,9,9,6,3,7
6,1,-4,-4,5,-2,13,8,9,6,3,6
6,1,-4,-4,6,-2,13,7,9,6,3,6
6,1,-5,-4,6,-2,12,6,8,5,3,5
6,1,-5,-4,7,-2,12,6,8,5,3,5
6,1,-5,-4,7,-2,12,6,8,6,3,5
6,1,-5,-4,7,-2,12,6,8,6,3,5
6,1,-5,-4,6,-2,12,5,7,6,3,5
5,1,-4,-4,5,-2,12,4,6,5,2,5
4,0,-4,-3,4,-2,13,4,6,5,2,6
4,0,-4,-3,4,-2,13,4,7,6,3,6
4,0,-4,-3,4,-2,13,4,7,5,2,6
4,0,-5,-3,4,-3,13,4,7,5,2,6
4,0,-5,-2,5,-3,13,4,7,5,2,6
4,0,-5,-2,6,-3,13,5,7,5,2,6
5,0,-5,-2,6,-3,13,5,7,5,2,6
5,0,-5,-2,6,-3,14,4,7,5,2,6
5,0,-5,-2,6,-3,14,4,7,5,1,6
5,0,-6,-2,6,-3,13,4,7,5,1,6
5,0,-5,-2,6,-3,13,4,6,4,1,6
4,0,-5,-2,5,-3,12,3,6,4,1,6
4,0,-5,-2,5,-3,11,3,6,4,0,5
4,0,-5,-2,5,-2,11,3,6,4,0,5
4,0,-5,-2,5,-2,11,3,6,3,0,5
4,0,-5,-2,5,-2,11,2,5,3,0,5
3,0,-4,-2,4,-2,11,2,5,3,0,5
3,0,-4,-1,4,-2,11,2,5,3,0,5
3,0,-4,-1,4,-2,12,2,5,3,0,5
3,0,-4,-1,4,-2,12,2,5,3,0,5
4,0,-5,-1,5,-3,12,3,5,3,0,5
3,-1,-5,-1,4,-3,12,3,6,3,0,5
3,-1,-4,0,4,-3,12,3,6,2,-1,4
3,-1,-4,-1,4,-3,12,3,5,2,-1,4
3,-1,-5,-1,5,-3,12,3,5,2,-1,4
3,-1,-5,-1,5,-4,13,3,6,3,-1,4
3,-2,-5,-1,5,-4,13,3,6,3,-1,4
3,-2,-5,0,5,-4,12,3,6,2,-2,4
2,-2,-5,0,5,-4,12,3,6,2,-2,4
1,-2,-4,0,4,-4,12,3,6,2,-2,4
1,-2,-4,1,4,-4,12,3,6,2,-2,4
1,-2,-4,0,4,-3,13,4,6,1,-2,4
2,-1,-4,0,4,-3,13,4,6,1,-1,5
2,-1,-4,0,4,-3,13,4,7,2,-1,5
2,-1,-5,0,4,-3,13,4,7,2,-1,5
2,-1,-5,0,5,-3,13,5,7,2,-1,5
2,-1,-5,0,5,-3,13,5,7,2,-1,5
2,-1,-5,0,5,-3,14,5,7,2,-1,5
2,-1,-5,0,5,-3,13,5,7,2,-1,5
1,-2,-5,0,4,-3,13,5,7,1,-2,4
1,-2,-4,0,3,-3,14,5,6,0,-3,3
0,-2,-4,0,3,-3,14,5,6,0,-4,2
0,-3,-4,1,3,-3,14,5,5,-1,-4,2
-1,-3,-4,2,3,-3,14,5,5,-1,-4,2
0,-3,-4,2,3,-3,14,5,6,0,-3,2
0,-3,-5,1,3,-3,14,6,6,0,-3,2
0,-3,-5,1,3,-4,14,6,6,0,-2,2
0,-3,-5,1,3,-4,14,6,6,0,-2,2
0,-3,-5,1,3,-4,13,6,6,0,-3,1
0,-3,-5,0,3,-4,13,6,6,0,-3,1
1,-2,-5,0,3,-3,13,6,6,0,-3,1
1,-1,-4,0,3,-2,13,6,6,0,-2,2
2,-1,-4,0,3,-1,14,6,7,0,-2,3
1,-1,-4,0,3,-2,14,6,7,0,-2,3
1,-2,-5,0,3,-2,14,6,6,0,-2,3
1,-2,-5,0,3,-2,13,7,6,0,-2,3
1,-1,-4,0,3,-2,14,7,6,0,-2,2
1,-1,-4,0,3,-2,14,7,6,0,-2,2
1,-1,-3,0,3,-1,14,7,6,0,-2,2
1,0,-2,0,3,0,14,8,7,0,-2,2
1,1,-2,-1,3,0,14,8,7,1,-1,2
2,2,-1,-2,3,1,14,8,7,1,-1,2
1,3,0,-2,2,2,15,8,7,1,-1,2
2,4,0,-3,1,3,15,9,7,1,0,3
3,4,0,-3,2,3,16,9,8,2,0,4
3,5,0,-4,2,3,16,10,9,3,1,5
3,5,-1,-4,3,3,16,10,9,3,2,6
4,5,-1,-4,3,3,15,10,10,2,2,6
5,6,-1,-5,4,3,15,10,10,2,1,6
5,7,0,-5,3,4,14,10,10,2,1,6
5,7,0,-6,3,4,14,10,10,2,1,6
6,8,0,-6,3,4,13,9,9,2,1,6
6,8,0,-6,3,4,13,9,9,2,1,6
6,8,0,-7,3,5,12,8,8,2,2,6
6,8,1,-7,3,5,12,8,8,2,2,6
6,9,1,-8,3,6,11,7,7,1,2,6
6,8,0,-7,4,5,10,7,7,2,2,6
6,7,0,-7,4,4,8,6,6,2,2,6
6,6,-1,-6,4,4,7,5,6,1,2,6
6,7,-1,-7,4,4,6,4,6,1,2,7
8,8,-1,-8,5,4,6,4,6,2,3,7
9,9,-2,-9,6,4,6,4,6,2,3,7
9,9,-2,-9,6,4,5,4,7,2,4,7
8,9,-2,-8,6,4,5,5,7,3,4,7
8,9,-1,-8,5,4,5,5,8,4,4,8
9,9,-1,-9,5,4,6,6,8,4,4,8
9,8,-2,-8,6,3,6,6,8,4,4,8
9,7,-3,-8,6,2,7,7,8,4,5,8
9,6,-3,-7,6,1,7,7,9,4,5,8
8,5,-4,-6,7,0,8,8,9,4,6,9
8,3,-5,-5,7,0,8,8,9,4,6,9
7,3,-5,-5,7,-1,8,8,9,3,5,8
5,2,-5,-4,6,-1,8,8,9,3,5,8
4,2,-4,-3,5,0,9,8,9,3,4,7
2,1,-3,-2,4,0,9,8,8,3,3,6
1,0,-3,0,3,-1,9,7,7,1,2,5
0,-1,-3,0,3,-2,9,6,6,0,1,4
0,-2,-3,1,3,-2,10,6,5,-1,0,3
0,-2,-4,2,3,-2,10,5,5,-1,0,2
0,-3,-4,2,3,-3,10,5,5,-2,0,1
0,-3,-4,2,3,-3,10,5,4,-2,0,1
0,-4,-5,3,3,-4,10,5,4,-1,0,1
-1,-4,-5,3,3,-4,10,5,4,-1,0,1
-1,-5,-5,4,3,-5,9,5,4,-1,0,1
-1,-5,-5,4,3,-5,8,4,4,-1,0,1
-1,-4,-4,3,2,-4,7,4,3,-1,0,0
-1,-2,-3,2,2,-3,7,3,3,-1,0,0
-1,-1,-2,2,1,-2,8,4,4,-1,0,1
-1,-1,-2,2,1,-2,8,4,3,-1,-1,1
-1,-2,-3,2,1,-2,8,4,3,-2,-1,0
-1,-3,-3,2,1,-3,8,4,3,-2,-1,1
-1,-4,-4,3,1,-4,8,5,3,-2,0,1
-1,-5,-4,3,1,-4,7,5,3,-1,0,1
-2,-5,-4,4,1,-4,7,5,3,-1,0,1
-2,-5,-4,4,1,-4,7,4,3,-1,0,1
-3,-6,-4,4,1,-4,7,4,3,-2,-1,0
-3,-6,-4,4,1,-4,7,4,3,-2,-1,0
-3,-6,-4,4,1,-4,6,4,3,-2,-1,0
-2,-6,-4,4,1,-4,5,4,3,-2,-1,0
-2,-5,-4,4,1,-4,5,4,3,-2,-1,0
-3,-5,-3,4,1,-3,5,4,3,-2,-2,0
-3,-4,-2,3,1,-3,5,4,2,-3,-2,-1
-2,-5,-3,3,1,-3,6,5,2,-3,-3,-1
-2,-6,-4,4,1,-4,7,7,4,-1,-2,0
-3,-7,-4,5,1,-4,8,11,6,0,-1,1
-3,-7,-4,5,1,-4,9,14,8,0,-1,1
-3,-6,-4,4,1,-4,11,18,11,1,-1,1
-2,-4,-3,3,1,-3,12,21,14,4,0,2
-1,-1,-2,2,1,-1,13,22,17,7,3,4
0,0,-2,0,1,0,12,21,20,11,5,6
2,0,-3,-1,3,0,9,17,22,13,7,7
5,0,-6,-2,5,-1,6,12,24,16,9,8
9,2,-7,-5,8,-1,2,9,28,20,14,12
13,5,-9,-9,11,0,-4,4,35,28,21,17
20,10,-11,-14,16,1,-13,-2,42,38,31,25
29,17,-13,-22,22,2,-26,-11,51,50,42,35
40,24,-16,-32,29,4,-41,-20,60,65,56,47
51,32,-20,-41,36,6,-58,-30,69,78,70,59
61,38,-23,-49,42,8,-75,-41,73,88,80,69
68,43,-25,-55,47,9,-91,-54,74,94,88,77
75,48,-26,-61,51,12,-105,-69,70,98,94,84
79,53,-26,-65,53,14,-118,-85,65,100,100,91
82,58,-25,-69,54,17,-129,-101,59,102,106,99
84,62,-23,-72,54,20,-139,-116,52,103,111,106
84,66,-19,-74,52,24,-145,-130,42,103,115,112
78,72,-7,-75,44,33,-147,-145,29,101,115,116
68,79,10,-74,30,45,-145,-159,13,95,113,118
57,86,28,-72,15,58,-142,-169,-4,86,106,117
47,89,42,-68,2,66,-137,-175,-23,71,94,110
36,87,50,-61,-7,69,-130,-178,-46,47,73,96
24,79,53,-51,-14,67,-120,-178,-69,19,47,77
11,67,53,-39,-20,61,-107,-171,-86,-5,23,57
1,53,49,-26,-23,52,-92,-159,-95,-25,2,37
-7,39,44,-16,-24,42,-77,-143,-98,-39,-15,20
-12,28,39,-7,-25,34,-64,-126,-96,-48,-27,6
-15,19,34,-1,-25,28,-53,-110,-91,-53,-35,-4
-17,12,29,2,-24,22,-43,-95,-84,-55,-40,-11
-19,7,26,6,-23,18,-36,-83,-77,-56,-43,-16
-21,2,22,10,-22,13,-29,-72,-71,-56,-45,-20
-22,-2,18,13,-20,9,-24,-62,-64,-54,-45,-22
-22,-6,13,14,-17,4,-19,-53,-58,-52,-45,-23
-21,-10,9,16,-15,0,-14,-46,-53,-49,-45,-25
-21,-14,5,17,-13,-3,-9,-38,-48,-46,-43,-26
-21,-17,2,19,-11,-6,-5,-31,-43,-42,-41,-26
-20,-18,0,19,-11,-8,-1,-25,-38,-39,-39,-25
-19,-18,0,19,-10,-8,2,-19,-33,-36,-36,-24
-19,-18,0,18,-9,-8,4,-15,-29,-33,-34,-23
-19,-18,-1,18,-9,-8,7,-11,-25,-30,-32,-22
-18,-17,-1,18,-8,-9,9,-8,-22,-28,-30,-21
-17,-16,-2,17,-7,-9,10,-6,-20,-26,-29,-20
-16,-16,-2,16,-6,-9,12,-4,-19,-25,-28,-19
-16,-16,-2,16,-7,-9,13,-2,-17,-24,-28,-19
-16,-17,-2,16,-7,-9,13,-1,-17,-23,-28,-19
-16,-17,-2,16,-7,-8,13,0,-16,-23,-27,-19
-16,-16,-1,16,-7,-8,13,1,-15,-23,-27,-19
-16,-16,-1,16,-7,-7,13,1,-14,-23,-27,-19
-16,-15,-1,16,-6,-7,14,1,-14,-23,-27,-19
-15,-16,-2,16,-6,-8,14,1,-14,-22,-27,-19
-15,-16,-2,16,-6,-8,15,1,-13,-21,-27,-19
-15,-16,-1,16,-6,-8,15,1,-13,-21,-26,-19
-15,-16,-1,16,-6,-8,15,1,-13,-21,-26,-19
-15,-16,-2,16,-6,-8,15,1,-13,-22,-26,-19
-15,-16,-2,16,-6,-8,15,1,-13,-22,-26,-18
-15,-16,-2,16,-6,-8,16,2,-12,-21,-25,-18
-15,-18,-4,17,-5,-10,16,2,-12,-21,-25,-18
-15,-18,-4,17,-5,-10,15,2,-12,-20,-25,-18
-15,-17,-4,16,-6,-10,15,2,-12,-20,-25,-18
-15,-17,-3,16,-6,-10,16,2,-12,-20,-25,-18
-16,-18,-3,17,-6,-10,16,2,-13,-20,-25,-18
-16,-18,-4,17,-6,-10,16,2,-13,-20,-25,-18
-15,-17,-3,17,-6,-10,16,2,-13,-20,-25,-18
-15,-16,-3,16,-6,-9,16,2,-13,-19,-25,-18
-15,-16,-3,16,-6,-9,15,2,-13,-20,-25,-19
-15,-16,-2,16,-6,-9,15,1,-14,-20,-26,-20
-16,-16,-1,16,-7,-8,15,1,-14,-20,-26,-20
-16,-17,-1,16,-7,-8,15,1,-14,-20,-27,-21
-16,-17,-1,16,-7,-8,15,1,-14,-21,-27,-21
-16,-17,-1,16,-6,-8,15,1,-14,-20,-27,-21
-16,-17,-1,16,-6,-8,16,1,-14,-19,-26,-20
-16,-17,-1,17,-7,-8,16,1,-14,-19,-26,-19
-16,-17,-2,17,-7,-9,16,1,-14,-19,-26,-20
-16,-17,-2,16,-7,-9,16,1,-15,-20,-26,-20
-16,-17,-2,16,-7,-8,16,2,-15,-20,-26,-20
-16,-17,-1,17,-7,-8,16,2,-15,-20,-26,-20
-16,-18,-1,17,-7,-9,16,2,-15,-20,-25,-20
-16,-18,-2,17,-7,-9,16,2,-15,-20,-25,-20
-16,-17,-1,17,-7,-8,16,2,-15,-20,-25,-20
-16,-16,-1,16,-7,-8,15,2,-15,-20,-25,-20
-16,-16,0,16,-7,-7,15,3,-15,-20,-26,-20
-17,-16,0,17,-8,-7,15,3,-16,-21,-26,-20
-17,-18,-1,18,-8,-8,15,3,-16,-21,-26,-20
-17,-19,-2,18,-7,-9,16,3,-16,-22,-26,-21
-16,-19,-2,18,-7,-10,16,3,-17,-23,-27,-21
-16,-18,-2,17,-7,-9,16,4,-17,-23,-27,-21
-16,-17,-1,17,-7,-8,17,4,-17,-22,-26,-21
-17,-17,0,17,-8,-8,17,5,-17,-22,-26,-21
-18,-17,0,18,-9,-8,17,5,-18,-22,-27,-21
-17,-18,-1,18,-8,-9,17,6,-18,-23,-27,-22
-16,-18,-2,17,-7,-9,17,6,-18,-23,-27,-22
-16,-18,-2,17,-8,-9,17,7,-18,-23,-27,-22
-17,-17,0,18,-9,-8,18,7,-18,-23,-27,-22
-17,-17,0,18,-9,-8,18,8,-18,-23,-28,-23
-17,-17,0,17,-9,-8,18,8,-19,-25,-29,-24
-17,-18,-1,17,-9,-8,18,9,-19,-26,-30,-24
-17,-18,-1,17,-9,-8,18,10,-19,-25,-29,-23
-17,-18,-1,17,-9,-8,18,11,-18,-24,-28,-23
-17,-18,-1,17,-8,-8,18,12,-17,-23,-28,-23
-18,-18,-1,18,-8,-8,19,13,-17,-24,-28,-23
-18,-17,0,18,-9,-7,20,14,-17,-24,-29,-24
-18,-17,1,18,-10,-7,20,15,-17,-24,-29,-24
-18,-16,1,17,-9,-7,21,16,-17,-25,-29,-24
-17,-16,0,17,-9,-7,22,17,-16,-25,-29,-24
-17,-16,0,16,-9,-7,22,19,-15,-25,-29,-24
-17,-16,0,16,-9,-7,23,21,-14,-24,-29,-24
-17,-16,0,16,-8,-7,24,23,-13,-24,-28,-24
-16,-16,0,16,-8,-7,25,24,-12,-24,-28,-23
-16,-16,-1,16,-8,-7,25,25,-11,-23,-28,-23
-16,-16,-1,16,-7,-8,25,26,-10,-23,-28,-23
-15,-16,-1,15,-7,-7,26,28,-10,-23,-28,-23
-14,-14,0,14,-7,-6,27,30,-9,-23,-28,-23
-14,-13,0,14,-7,-5,27,31,-8,-22,-27,-22
-13,-13,0,13,-6,-5,27,33,-7,-21,-26,-21
-12,-13,-1,13,-5,-6,27,34,-6,-21,-26,-21
-12,-13,-2,12,-4,-6,27,35,-5,-21,-25,-20
-12,-13,-2,12,-4,-6,27,37,-4,-20,-24,-19
-11,-13,-2,12,-4,-6,28,38,-3,-18,-22,-18
-10,-12,-2,11,-4,-6,28,39,-1,-17,-21,-17
-9,-11,-2,10,-3,-6,28,40,0,-16,-20,-16
-9,-10,-3,10,-3,-6,28,40,0,-15,-20,-16
-9,-10,-3,10,-2,-6,28,41,1,-15,-19,-15
-8,-9,-3,8,-2,-6,28,42,2,-14,-18,-15
-6,-8,-3,6,-1,-5,27,42,3,-14,-18,-14
-4,-6,-3,5,0,-4,27,42,4,-13,-16,-12
-2,-5,-3,3,0,-4,25,42,5,-11,-14,-11
-1,-4,-3,2,1,-3,24,42,6,-10,-13,-9
-1,-3,-3,2,1,-2,23,42,6,-10,-12,-8
0,-2,-3,1,2,-2,22,41,6,-9,-11,-8
1,-1,-3,0,2,-1,21,40,6,-8,-10,-6
2,0,-3,-1,3,-1,20,40,7,-7,-8,-5
2,0,-3,-1,3,-1,20,39,7,-6,-7,-4
2,0,-4,-1,3,-2,20,38,7,-5,-6,-3
3,0,-4,-1,3,-2,19,36,7,-5,-6,-3
4,1,-3,-2,3,0,18,34,7,-4,-5,-3
5,3,-3,-3,3,0,16,33,8,-3,-3,-1
5,4,-3,-4,3,1,14,31,9,0,-1,0
5,4,-3,-4,3,1,13,30,9,1,0,1
4,4,-2,-4,3,2,12,28,10,3,1,2
4,4,-1,-4,3,2,12,27,10,4,2,3
4,4,-1,-4,3,2,11,25,10,4,3,3
4,5,0,-4,2,3,10,24,10,5,4,4
5,5,0,-5,3,3,9,22,10,6,5,5
5,5,0,-5,3,3,8,20,10,6,5,5
4,5,-1,-5,3,3,7,19,10,6,5,5
4,4,-1,-5,3,2,7,18,10,7,6,5
4,4,-1,-4,3,2,7,17,9,7,6,5
4,4,-1,-4,2,2,7,16,9,8,7,5
4,3,-1,-4,2,1,6,15,8,8,7,6
4,3,-1,-4,3,1,5,14,8,8,7,6
5,3,-2,-4,4,0,5,13,8,8,7,6
5,3,-2,-4,4,0,4,13,8,9,7,6
5,3,-2,-4,3,0,4,12,8,9,8,6
4,3,-1,-3,3,0,5,12,8,9,8,7
3,2,-1,-3,2,0,5,11,7,9,8,7
3,2,-1,-3,2,0,4,10,7,9,8,7
3,3,0,-3,1,1,4,10,6,9,8,7
2,3,0,-3,1,2,3,9,6,8,7,6
2,3,1,-3,1,2,3,8,6,8,7,6
2,2,1,-2,1,2,4,8,6,8,7,6
1,1,0,-1,0,1,3,7,5,8,7,6
0,1,0,-1,0,1,3,7,5,8,7,6
1,1,0,-1,0,1,3,7,5,8,7,6
1,1,0,-1,0,1,3,7,5,8,7,6
1,0,-1,0,0,0,3,7,4,8,7,6
2,0,-1,-1,1,0,3,7,4,8,6,5
2,0,-1,-1,1,0,3,6,4,8,6,5
1,0,-1,-1,1,0,3,6,3,7,5,5
1,0,-1,-1,1,0,3,6,3,7,5,4
1,0,-2,-1,1,0,3,6,4,8,6,4
0,0,-1,0,1,0,2,6,4,8,6,4
0,0,-1,0,0,0,2,5,3,8,6,4
1,0,-1,0,1,-1,3,5,3,7,6,4
1,0,-1,0,1,-1,3,5,3,7,5,4
2,0,-1,-1,1,0,4,5,3,7,5,5
2,0,-1,-1,1,0,5,5,3,7,6,5
1,-1,-1,0,1,-1,5,4,2,7,6,5
1,0,-1,0,1,0,4,4,2,7,6,5
0,0,0,0,0,0,3,4,2,7,6,5
0,0,-1,0,0,0,3,4,2,7,6,5
0,0,-1,0,1,0,3,4,2,7,6,5
0,0,-1,0,1,-1,3,4,2,7,6,5
1,-1,-2,0,1,-1,3,4,1,6,5,4
1,-1,-3,0,2,-1,3,3,1,6,5,4
1,-1,-2,0,1,-1,3,3,1,5,4,3
0,0,0,0,0,0,3,3,1,5,4,3
0,0,0,0,0,0,3,3,1,6,4,3
0,0,0,0,0,0,3,3,1,6,5,3
0,0,0,0,0,0,3,3,1,6,5,3
0,0,-1,0,1,0,3,4,0,6,5,3
0,0,-1,0,1,0,3,4,0,5,5,4
0,-1,-1,0,0,0,3,4,1,5,6,4
0,-1,-1,1,0,0,3,4,1,5,5,4
-1,-1,0,1,0,0,3,4,1,5,5,4
-1,-1,0,0,0,0,3,4,1,5,5,3
0,0,0,0,0,0,3,4,1,5,5,3
0,0,0,0,0,0,3,4,1,5,5,3
-1,0,1,0,-1,1,3,4,1,5,5,3
-1,1,2,0,-1,1,2,4,1,5,5,3
0,1,2,0,-1,2,2,5,1,5,5,3
0,1,1,0,0,1,2,6,1,6,6,4
0,0,0,0,0,0,3,6,2,5,6,4
0,-2,-1,1,0,-1,3,7,2,5,6,4
-1,-2,-2,2,0,-2,3,7,2,4,5,4
-1,-2,-1,2,0,-2,3,7,2,4,5,3
-2,-2,0,3,-1,-1,3,7,2,4,5,2
-2,-1,0,3,-1,0,3,7,2,4,5,2
-1,-1,0,2,-1,0,3,7,2,3,5,2
-1,-2,-1,2,0,-1,3,7,2,3,5,2
-2,-2,-1,2,-1,-1,3,7,2,4,5,3
-2,-1,0,2,-1,0,3,7,2,4,6,3
-1,-1,0,1,-1,0,3,7,2,4,6,3
-1,-1,0,1,-1,0,3,7,2,4,6,3
-2,-1,0,1,-1,0,3,7,2,5,6,3
-2,-1,0,2,-1,0,3,7,2,5,6,3
-2,0,1,2,-1,0,3,7,2,5,6,3
-2,1,2,1,-2,2,3,7,2,5,5,2
-2,1,3,1,-2,2,4,7,2,5,5,2
-2,1,3,0,-2,2,4,8,2,5,5,2
-2,1,3,0,-2,2,4,8,2,4,5,2
-1,2,3,0,-2,3,5,9,2,4,6,3
0,2,3,-1,-2,3,5,9,2,5,6,3
0,3,3,-1,-1,3,5,10,3,5,6,3
0,3,3,-1,-1,4,5,10,3,6,7,3
0,4,4,-2,-2,5,5,11,4,6,7,4
0,5,5,-2,-2,5,6,11,4,6,7,4
0,6,5,-3,-2,6,6,11,5,6,8,4
1,7,5,-4,-2,7,6,11,5,6,8,4
1,7,6,-5,-3,8,7,11,6,7,9,5
1,8,6,-5,-2,8,8,12,6,8,10,5
1,8,6,-4,-2,8,8,13,7,9,10,6
1,8,6,-4,-1,7,8,13,7,9,10,6
1,8,6,-4,-1,7,8,13,7,9,10,6
2,8,5,-5,-1,7,8,13,7,9,10,6
2,8,5,-5,-1,7,8,12,6,8,10,6
2,9,6,-6,-1,8,8,12,6,9,10,7
3,10,7,-7,-2,9,7,12,7,10,11,7
4,11,7,-8,-1,10,5,11,6,10,11,7
4,12,7,-8,-1,10,3,10,6,10,11,7
5,13,7,-9,-1,11,3,9,6,10,11,7
5,13,7,-9,0,10,2,9,6,10,11,7
5,12,6,-9,0,9,1,8,5,10,11,7
5,12,5,-9,1,8,0,7,5,9,11,7
5,11,5,-8,1,8,0,7,5,9,11,8
5,11,5,-8,0,8,0,7,5,9,11,8
6,11,5,-9,1,8,-1,7,4,8,10,7
7,11,4,-9,1,8,-1,7,4,7,10,7
7,10,3,-9,2,7,-1,7,4,8,10,7
7,9,2,-8,2,6,-1,8,5,9,11,8
7,8,2,-7,2,5,-1,8,5,10,11,8
6,8,1,-7,2,4,0,9,5,10,12,9
7,8,0,-7,3,4,0,9,5,10,12,9
7,8,0,-7,4,4,0,9,5,10,12,9
7,7,0,-7,4,4,0,9,6,10,12,9
6,6,0,-6,4,3,1,10,6,10,12,9
5,5,-1,-5,3,2,1,10,6,9,12,8
3,3,-1,-3,2,1,1,10,6,9,11,7
1,1,0,-1,1,0,1,10,5,8,10,7
0,0,-1,0,0,0,1,10,5,8,10,6
1,0,-1,-1,1,0,2,10,6,8,10,6
1,0,-1,0,1,0,3,10,5,7,9,5
0,-1,-1,1,0,-1,3,9,4,6,8,4
-1,-1,0,2,0,-1,2,8,2,5,7,3
-1,-1,0,2,0,-1,2,7,1,4,7,2
-1,-1,0,2,-1,0,2,6,1,4,6,1
-1,-1,0,2,-1,0,1,6,1,4,6,1
-1,-1,0,2,-1,0,1,6,1,4,6,1
-1,-1,0,2,-1,0,1,7,1,5,6,1
-1,-1,0,2,0,-1,2,7,1,5,7,2
-1,-2,-2,2,0,-2,2,7,1,5,7,2
-1,-3,-2,3,1,-3,2,6,1,5,6,2
-1,-3,-3,2,1,-3,2,6,0,4,6,1
0,-3,-3,2,1,-3,1,6,0,4,5,1
0,-3,-4,1,2,-3,1,6,0,4,5,1
0,-2,-3,1,1,-3,1,6,1,4,5,1
-2,-2,-1,2,0,-2,2,7,1,4,6,1
-2,-2,0,3,0,-2,2,7,1,5,6,1
-2,-2,0,3,-1,-1,2,7,1,5,6,1
-2,-1,1,2,-1,0,1,7,1,4,6,1
-2,0,1,2,-1,0,1,7,1,4,6,1
-2,-1,0,2,0,0,1,7,1,5,7,1
-2,-3,-1,3,0,-2,1,7,1,5,7,1
-2,-4,-2,4,0,-3,1,7,1,5,7,1
-2,-5,-2,4,0,-4,1,7,1,5,7,1
-1,-5,-3,4,1,-4,1,7,0,5,7,1
-2,-5,-3,4,0,-4,2,7,0,5,6,0
-2,-5,-2,4,0,-3,3,9,1,4,6,0
-3,-4,-2,4,0,-3,4,12,3,5,6,0
-2,-4,-2,3,0,-2,5,16,5,6,7,0
-1,-3,-2,2,0,-2,6,20,8,8,8,1
0,-1,-1,1,0,-1,8,23,11,10,10,2
0,0,0,0,0,0,8,24,14,13,12,3
1,1,0,-1,0,1,8,22,16,16,14,5
3,2,0,-2,1,2,6,19,18,18,16,6
4,3,-1,-3,2,1,3,15,20,21,18,8
6,4,-3,-5,5,1,0,11,24,25,22,11
11,6,-5,-9,9,1,-6,7,30,32,29,16
18,11,-7,-14,13,2,-15,1,37,42,38,23
26,16,-9,-21,18,3,-26,-7,46,54,50,33
36,23,-12,-30,25,5,-41,-16,56,69,65,45
47,31,-15,-39,32,8,-58,-25,66,84,79,57
58,39,-18,-48,38,11,-76,-36,72,95,91,69
66,45,-20,-55,43,13,-92,-48,73,102,100,77
71,49,-22,-60,47,14,-108,-62,71,106,106,84
76,54,-22,-65,50,16,-122,-77,66,109,112,91
80,59,-21,-70,51,19,-134,-93,60,111,118,99
83,64,-20,-74,52,22,-144,-107,54,114,124,106
84,68,-16,-76,50,26,-151,-121,45,114,128,112
80,74,-6,-77,44,34,-154,-135,34,113,129,116
72,81,9,-77,32,45,-154,-150,18,108,127,118
62,89,27,-75,18,58,-151,-163,0,99,122,118
51,93,41,-72,6,67,-146,-171,-20,84,111,113
40,91,50,-66,-4,71,-139,-176,-44,62,92,101
28,85,55,-57,-12,70,-129,-177,-68,33,66,82
16,74,56,-45,-19,66,-117,-172,-86,7,41,62
5,60,53,-32,-23,57,-102,-161,-97,-14,19,41
-2,45,47,-21,-24,47,-87,-146,-102,-30,0,23
-8,33,41,-11,-24,37,-74,-129,-101,-41,-13,8
-13,23,36,-4,-24,30,-62,-112,-96,-47,-22,-3
-16,16,32,0,-24,24,-51,-97,-89,-50,-28,-11
-19,10,29,4,-24,20,-43,-84,-82,-51,-32,-17
-20,5,25,7,-22,16,-37,-73,-75,-51,-34,-21
-20,1,20,9,-20,11,-31,-63,-68,-50,-35,-24
-19,-3,16,11,-17,6,-25,-54,-61,-47,-34,-26
-19,-7,11,13,-15,2,-20,-45,-55,-43,-33,-26
-18,-11,7,14,-13,-2,-15,-37,-49,-39,-31,-26
-18,-14,5,16,-12,-4,-10,-30,-44,-35,-29,-26
-19,-15,4,17,-11,-6,-6,-23,-40,-33,-28,-26
-18,-16,2,17,-10,-7,-3,-18,-36,-31,-26,-26
-17,-16,1,16,-8,-7,0,-13,-31,-28,-23,-24
-16,-16,0,16,-8,-7,2,-8,-26,-24,-20,-22
-16,-16,0,16,-8,-7,4,-5,-22,-20,-18,-21
-16,-16,0,16,-7,-7,5,-2,-20,-18,-17,-21
-15,-15,0,15,-7,-7,6,-1,-19,-18,-17,-21
-15,-15,0,15,-7,-7,8,0,-18,-17,-17,-21
-14,-15,0,15,-7,-8,9,1,-18,-17,-16,-20
-15,-15,0,15,-7,-8,9,3,-17,-16,-15,-20
-15,-15,0,15,-7,-8,10,4,-16,-16,-15,-19
-16,-16,0,16,-7,-8,10,4,-15,-15,-14,-19
-15,-16,-1,15,-7,-8,10,4,-14,-15,-14,-19
-14,-15,-1,15,-6,-8,10,4,-13,-15,-14,-19
-14,-15,-1,14,-6,-7,10,4,-13,-15,-14,-20
-14,-15,0,14,-6,-7,10,4,-13,-15,-14,-20
-15,-15,0,15,-7,-7,10,5,-14,-15,-14,-20
-15,-15,0,15,-7,-7,10,5,-14,-15,-14,-20
-14,-14,0,14,-6,-7,11,6,-13,-15,-14,-20
-14,-14,0,14,-6,-7,11,6,-13,-15,-14,-20
-15,-15,0,14,-6,-7,11,6,-13,-15,-15,-21
-15,-16,-1,15,-6,-7,11,6,-14,-15,-15,-21
-15,-16,-1,15,-7,-7,11,6,-14,-15,-15,-21
-15,-16,-1,15,-7,-7,12,6,-14,-15,-15,-21
-15,-16,-1,15,-7,-8,12,6,-14,-15,-15,-21
-14,-16,-1,15,-6,-8,13,6,-14,-15,-15,-21
-14,-16,-1,15,-6,-8,13,6,-14,-15,-15,-21
-14,-15,-1,14,-6,-8,13,6,-14,-15,-15,-21
-14,-14,0,14,-7,-7,13,6,-14,-15,-15,-21
-14,-13,1,13,-8,-6,13,6,-14,-15,-16,-22
-14,-13,0,13,-8,-6,13,6,-14,-15,-16,-22
-14,-13,0,13,-8,-6,13,6,-14,-15,-16,-22
-15,-14,0,14,-8,-6,13,6,-14,-15,-15,-22
-15,-15,0,15,-8,-6,13,6,-15,-15,-15,-22
-15,-15,0,15,-7,-7,13,6,-15,-15,-15,-22
-15,-15,0,15,-7,-7,13,6,-14,-15,-15,-22
-14,-15,0,14,-7,-7,13,6,-14,-15,-15,-22
-14,-15,0,14,-7,-7,13,6,-15,-15,-15,-22
-15,-15,0,14,-7,-7,13,6,-15,-15,-15,-22
-15,-15,0,14,-7,-7,13,6,-15,-15,-15,-23
-15,-15,0,15,-7,-7,12,6,-15,-15,-15,-23
-15,-15,0,15,-7,-7,12,6,-15,-15,-16,-23
-15,-15,0,14,-7,-7,12,6,-16,-16,-16,-23
-14,-15,0,14,-7,-7,12,6,-16,-16,-17,-24
-15,-15,0,15,-7,-7,13,7,-16,-16,-17,-24
-15,-15,0,15,-7,-7,13,7,-16,-16,-17,-24
-15,-15,0,15,-7,-7,13,7,-16,-16,-17,-24
-15,-15,0,14,-7,-7,13,7,-16,-16,-17,-24
-15,-14,0,14,-8,-7,13,7,-16,-16,-17,-24
-16,-14,1,14,-8,-6,13,7,-16,-17,-18,-25
-16,-14,1,14,-8,-6,13,8,-16,-17,-18,-25
-16,-15,0,15,-8,-7,14,9,-16,-16,-17,-24
-16,-16,0,15,-7,-8,14,10,-15,-16,-17,-24
-16,-16,0,16,-7,-8,14,10,-15,-16,-17,-23
-16,-16,0,16,-7,-8,14,11,-15,-16,-17,-24
-16,-16,0,15,-7,-8,14,11,-15,-17,-18,-24
-15,-15,0,15,-7,-7,14,12,-15,-17,-18,-24
-15,-15,0,15,-7,-8,14,12,-15,-17,-18,-24
-15,-16,0,15,-7,-8,15,13,-15,-17,-18,-24
-16,-16,0,15,-8,-8,15,14,-15,-17,-19,-25
-16,-16,0,15,-8,-8,16,15,-15,-17,-19,-25
-16,-16,0,15,-8,-8,16,16,-15,-17,-19,-25
-16,-16,0,15,-8,-8,17,17,-14,-17,-20,-26
-16,-16,0,15,-8,-8,17,17,-14,-17,-20,-26
-16,-15,0,15,-8,-8,18,18,-14,-18,-20,-26
-16,-15,0,15,-8,-8,19,19,-14,-18,-20,-26
-16,-15,0,15,-8,-8,19,20,-13,-18,-20,-26
-16,-15,0,15,-7,-7,20,22,-13,-17,-20,-26
-16,-15,1,14,-8,-6,20,24,-12,-17,-19,-25
-15,-14,1,13,-7,-5,21,25,-12,-16,-19,-25
-14,-13,1,13,-7,-5,22,27,-11,-17,-19,-25
-14,-14,1,13,-7,-6,23,28,-11,-17,-20,-25
-15,-14,1,14,-8,-6,24,30,-10,-17,-19,-25
-14,-13,1,13,-7,-6,24,31,-9,-17,-19,-24
-14,-13,1,13,-7,-6,25,33,-8,-16,-18,-24
-14,-13,1,13,-7,-6,25,35,-7,-16,-18,-24
-13,-12,1,12,-7,-5,25,36,-6,-15,-18,-24
-12,-12,0,11,-6,-5,25,38,-5,-15,-18,-23
-11,-11,0,11,-5,-5,25,39,-4,-15,-17,-23
-10,-10,0,10,-5,-5,25,40,-3,-14,-17,-22
-9,-9,0,8,-4,-5,25,41,-2,-13,-16,-21
-8,-9,-1,7,-3,-5,25,42,0,-13,-15,-20
-7,-8,-1,7,-3,-5,25,43,0,-12,-15,-20
-7,-8,-1,6,-2,-5,25,44,1,-12,-14,-19
-6,-7,-2,6,-1,-5,25,45,3,-11,-12,-18
-5,-7,-2,5,0,-4,24,46,3,-10,-11,-17
-4,-6,-2,5,0,-4,23,47,4,-9,-10,-16
-3,-5,-2,4,0,-3,23,47,5,-8,-9,-15
-2,-4,-2,2,0,-3,22,47,6,-7,-8,-13
-1,-2,-2,1,1,-2,22,47,8,-5,-6,-12
0,-1,-2,0,2,-2,21,47,9,-4,-5,-11
2,0,-3,-1,3,-2,20,46,9,-4,-4,-11
2,0,-2,-1,3,-1,19,46,10,-3,-3,-10
3,1,-1,-2,3,0,18,45,10,-2,-2,-8
4,2,-1,-2,3,1,17,45,11,0,0,-7
5,3,-2,-3,4,1,16,44,11,1,0,-6
5,3,-2,-4,4,1,14,43,12,2,2,-5
5,4,-1,-5,3,2,13,41,12,3,3,-4
5,5,-1,-6,3,2,11,40,12,4,4,-3
6,5,-1,-6,3,2,10,38,13,5,5,-2
6,5,-1,-6,3,2,9,36,13,6,6,-1
7,5,-1,-6,4,2,8,35,13,7,7,0
7,5,-1,-6,4,2,7,33,14,8,9,1
7,6,-1,-7,5,3,7,32,14,9,10,2
8,7,-1,-8,5,3,6,30,14,10,11,3
7,6,-1,-7,5,2,6,29,14,11,11,3
7,6,-1,-7,5,2,5,27,14,12,12,4
7,6,-1,-7,5,2,4,25,14,12,12,4
7,6,-1,-7,5,2,3,24,14,12,12,4
7,7,0,-7,5,3,3,23,13,12,12,4
7,7,0,-7,4,4,2,22,13,12,12,5
7,8,0,-7,4,4,2,21,13,12,12,5
7,8,0,-7,3,4,1,20,12,13,13,5
7,8,1,-7,3,4,1,18,12,13,13,5
7,7,1,-7,3,3,0,17,12,13,13,5
7,7,0,-7,3,3,0,17,11,13,13,5
6,7,0,-6,3,3,0,16,11,13,13,5
6,6,0,-6,3,3,0,15,11,13,13,5
6,6,0,-6,4,3,-1,14,10,13,13,4
6,5,0,-6,4,2,-1,14,10,13,13,4
5,5,0,-5,3,2,-1,13,10,13,13,4
4,5,0,-5,3,2,-1,13,9,13,13,4
4,4,0,-5,3,2,0,12,9,13,12,4
4,4,0,-5,3,2,0,12,9,13,12,4
4,4,0,-5,3,1,0,12,9,13,13,4
4,3,0,-4,3,1,0,12,9,13,13,4
4,3,0,-4,3,1,0,11,9,12,13,4
4,3,-1,-4,3,1,0,11,8,12,13,4
5,3,-1,-4,3,1,0,10,8,12,13,4
4,2,-1,-4,3,0,0,10,7,12,12,4
4,2,-1,-3,3,0,0,9,7,11,11,3
4,2,-1,-3,3,0,0,9,6,11,11,3
4,2,-1,-3,3,0,0,9,6,12,11,3
4,3,0,-4,3,0,0,9,6,12,11,3
4,3,-1,-4,3,0,0,9,6,12,11,3
4,3,-1,-4,3,0,0,9,6,12,11,3
4,2,-1,-4,3,0,0,9,6,12,11,3
3,2,-1,-3,3,0,0,9,6,11,11,3
3,2,-1,-3,3,0,0,8,5,11,11,3
4,3,-1,-3,3,0,0,8,5,11,10,3
4,3,-1,-4,3,0,0,8,5,11,10,3
4,3,-1,-4,3,1,0,8,5,11,10,3
3,3,-1,-3,3,1,0,8,4,11,10,2
3,2,-1,-3,2,0,0,8,4,11,9,2
3,2,-1,-3,3,0,0,8,4,10,9,1
3,2,-1,-3,3,0,0,8,4,11,9,1
3,2,-1,-2,2,0,0,8,4,11,10,2
2,1,0,-2,2,0,0,8,4,11,10,2
2,1,0,-1,2,0,0,7,4,11,10,2
2,2,0,-1,2,0,0,7,4,11,10,2
2,2,0,-1,1,0,0,7,4,11,10,2
1,2,0,-1,1,0,0,7,4,11,10,2
1,1,0,-1,1,0,0,7,4,11,10,1
1,1,0,-1,1,0,0,7,5,11,10,1
1,0,0,-1,2,-1,0,7,5,11,9,1
1,0,-1,-1,2,-1,0,7,5,11,9,1
1,0,-1,-1,2,-1,0,7,5,11,8,1
1,0,-1,-1,2,-1,0,7,6,10,8,1
2,1,-1,-2,2,-1,0,8,6,10,8,1
2,1,-1,-2,2,-1,0,8,7,10,8,1
2,1,-1,-1,2,-1,0,8,7,10,8,1
2,1,-1,-1,1,-1,0,8,8,10,8,1
2,1,-1,-1,1,-1,0,8,8,10,8,1
1,1,-1,-1,1,-1,1,8,8,10,8,1
1,1,-1,-1,1,-1,1,8,8,10,8,1
1,0,-1,0,1,-1,1,8,8,10,8,1
1,0,-1,0,1,-2,1,8,8,10,8,0
1,0,-1,0,1,-2,1,9,8,10,8,0
1,0,-1,0,1,-1,1,9,8,10,8,0
1,0,-1,-1,1,-1,1,9,8,10,8,0
1,0,-1,-1,2,-1,1,9,8,10,8,0
1,0,-1,0,2,-1,2,9,8,10,8,0
1,0,-1,-1,2,-1,2,9,8,11,8,0
2,1,-1,-2,2,-1,2,9,8,11,8,0
2,1,-1,-2,2,-1,2,9,7,11,8,0
1,0,-1,-1,2,-1,2,9,7,11,8,0
1,0,-1,-1,2,-1,2,9,7,11,8,0
1,0,-1,0,2,-1,1,9,7,11,8,0
0,0,-1,0,2,-1,1,9,7,11,8,0
1,0,-1,-1,2,-1,2,9,7,11,8,0
2,0,-2,-1,3,-1,2,9,7,11,8,0
3,1,-1,-2,3,-1,2,9,7,11,8,0
3,1,0,-2,3,0,3,10,7,12,8,0
2,2,0,-2,2,0,3,10,7,12,9,1
2,3,0,-2,2,0,4,11,8,13,9,1
3,4,0,-3,2,1,4,11,8,13,9,1
3,4,0,-3,2,1,5,12,8,13,9,1
4,5,1,-4,3,2,5,12,8,13,9,1
4,5,1,-4,3,2,5,12,9,13,9,1
4,6,2,-4,2,3,6,13,11,14,10,2
4,6,3,-5,1,4,6,13,12,14,10,2
4,6,3,-5,1,4,7,14,13,15,11,3
4,6,3,-5,1,4,7,14,14,15,11,3
4,7,3,-6,1,5,7,14,14,15,11,3
5,8,3,-7,2,5,7,14,14,16,12,3
6,9,3,-8,2,6,7,14,15,16,12,4
6,9,3,-8,2,6,7,15,16,17,13,4
7,9,3,-8,2,6,7,15,16,17,13,4
7,10,3,-8,2,6,7,14,16,17,13,4
7,10,4,-8,2,7,7,14,16,17,13,4
7,11,4,-9,3,7,6,13,16,17,12,4
8,11,3,-10,3,7,5,12,16,17,12,4
8,12,3,-10,4,7,4,11,15,16,12,4
8,12,3,-10,3,6,2,10,15,16,11,4
7,12,3,-10,3,7,1,10,14,16,11,4
8,12,3,-10,3,7,0,9,14,16,11,4
9,12,3,-10,3,7,0,8,14,16,11,4
10,12,3,-10,4,7,-1,8,14,16,11,4
11,12,2,-10,5,7,-2,8,14,16,12,5
11,12,1,-11,6,6,-2,8,14,16,12,5
12,12,0,-11,6,6,-3,8,14,16,12,6
11,12,0,-11,6,6,-2,8,14,16,12,6
10,11,0,-10,6,5,-2,8,14,16,12,6
10,10,0,-10,6,5,-2,9,15,16,12,6
11,9,-1,-10,7,4,-1,10,15,16,12,6
11,9,-1,-9,7,3,-1,10,15,16,12,6
10,7,-1,-8,7,2,0,11,15,16,12,6
10,6,-2,-8,7,1,0,11,16,17,13,6
9,6,-2,-7,7,1,0,12,16,17,13,6
9,6,-2,-7,6,1,1,12,16,17,13,6
8,6,-2,-7,6,1,1,12,16,17,13,6
8,5,-2,-6,6,0,1,12,16,17,12,6
7,4,-3,-5,6,0,1,11,15,16,11,5
6,3,-3,-4,5,0,1,11,15,15,11,3
4,1,-2,-2,4,0,2,11,14,15,10,2
3,0,-2,0,3,-1,2,10,13,14,10,1
2,0,-2,0,3,-1,2,9,12,13,9,1
1,-1,-2,0,3,-2,2,9,12,12,8,0
1,-1,-2,0,3,-2,2,8,11,12,8,0
1,-1,-2,0,3,-2,2,8,10,11,7,0
1,-1,-2,0,3,-2,2,7,10,11,7,0
2,-1,-3,0,3,-2,2,7,10,11,7,0
1,-2,-3,0,3,-2,2,7,10,11,6,-1
1,-2,-3,1,3,-2,1,7,9,10,6,-1
1,-2,-3,1,3,-2,1,6,9,10,6,-1
1,-2,-2,1,3,-2,1,6,9,11,6,-1
1,-1,-2,0,3,-2,1,6,9,11,7,0
2,-1,-3,0,3,-2,1,6,9,11,7,0
1,-1,-2,0,3,-2,1,7,9,12,7,0
1,-1,-2,0,2,-2,1,7,9,12,7,0
1,-1,-2,0,2,-2,1,7,9,11,6,0
0,-2,-2,0,2,-2,1,7,8,11,6,-1
0,-2,-2,1,2,-2,1,7,8,11,6,-1
0,-3,-2,1,3,-3,1,6,8,11,6,-1
1,-3,-3,1,3,-3,1,6,8,11,6,-1
1,-3,-4,1,3,-4,2,6,8,11,6,-1
1,-3,-4,1,3,-4,2,6,9,11,6,-1
1,-3,-4,0,3,-4,2,6,9,11,6,-1
0,-3,-4,0,3,-4,2,6,9,11,5,-1
0,-4,-4,1,3,-4,2,7,9,10,5,-1
0,-4,-4,2,3,-4,2,8,9,10,5,-1
0,-3,-3,1,3,-4,3,10,10,10,5,-1
0,-3,-3,1,3,-4,4,13,12,11,5,-1
0,-3,-3,1,3,-4,5,17,14,12,6,-1
0,-3,-3,1,2,-4,7,20,16,14,7,0
1,-2,-2,0,2,-2,8,22,19,16,8,1
2,0,-1,0,3,-1,8,22,22,19,10,2
3,1,-1,-2,4,-1,6,19,24,22,12,4
5,3,-2,-4,5,0,3,15,26,24,14,5
8,4,-3,-6,7,0,0,10,28,27,16,7
12,6,-5,-9,10,0,-5,5,32,32,21,11
17,10,-7,-13,13,1,-13,-1,38,40,29,17
24,14,-9,-18,17,2,-24,-9,46,51,39,25
33,19,-13,-26,24,3,-38,-17,55,65,52,36
43,27,-16,-35,31,5,-55,-24,67,81,68,49
54,35,-18,-44,37,8,-72,-33,76,95,82,61
63,42,-21,-52,43,10,-89,-44,80,105,93,71
70,47,-23,-58,48,12,-104,-56,81,111,101,80
75,51,-24,-63,51,13,-118,-71,78,115,108,87
80,57,-24,-68,53,16,-131,-86,74,118,115,95
84,62,-22,-73,54,19,-142,-100,69,122,122,103
87,67,-20,-77,54,23,-151,-112,63,124,127,111
86,72,-14,-79,51,29,-156,-124,54,125,130,117
80,78,-2,-79,43,37,-157,-138,41,121,130,120
71,84,13,-78,30,48,-154,-153,23,114,125,120
60,90,31,-76,16,60,-149,-164,3,102,117,117
49,92,44,-71,4,67,-143,-172,-19,83,101,108
37,88,50,-63,-5,68,-134,-175,-44,55,77,92
25,79,53,-52,-13,66,-122,-174,-67,26,51,71
14,67,53,-40,-18,60,-108,-167,-84,1,26,51
4,53,48,-28,-20,50,-93,-155,-93,-19,4,31
-3,39,42,-18,-21,40,-78,-139,-95,-33,-12,14
-9,28,37,-10,-21,32,-65,-122,-92,-41,-23,2
-13,20,33,-4,-21,26,-55,-107,-86,-45,-30,-7
-15,14,30,0,-21,21,-46,-93,-80,-46,-34,-14
-17,9,26,3,-21,17,-38,-82,-74,-47,-37,-18
-17,5,22,5,-19,13,-32,-72,-67,-45,-38,-21
-16,1,17,7,-16,9,-27,-62,-61,-43,-38,-23
-16,-2,12,9,-13,5,-22,-53,-55,-41,-37,-25
-15,-6,8,10,-10,1,-17,-45,-49,-37,-36,-25
-15,-10,4,12,-8,-3,-12,-37,-43,-34,-35,-26
-15,-13,1,13,-7,-6,-8,-31,-38,-31,-33,-26
-15,-15,0,14,-6,-8,-4,-25,-34,-28,-31,-26
-14,-15,0,15,-6,-8,-1,-20,-29,-26,-29,-25
-14,-15,-1,15,-6,-8,2,-15,-25,-23,-27,-24
-13,-15,-1,15,-5,-8,4,-11,-22,-20,-25,-23
-13,-15,-1,14,-5,-8,6,-8,-19,-18,-24,-23
-12,-14,-2,14,-4,-8,8,-5,-17,-16,-23,-22
-12,-14,-2,13,-3,-8,9,-3,-15,-14,-22,-21
-11,-14,-3,13,-3,-9,10,-2,-14,-13,-22,-21
-12,-15,-3,13,-4,-9,11,-1,-13,-13,-21,-20
-12,-15,-2,13,-4,-9,11,0,-13,-13,-21,-20
-12,-14,-2,13,-4,-8,12,0,-12,-13,-20,-19
-12,-14,-2,13,-4,-8,12,1,-11,-13,-20,-19
-12,-14,-2,13,-4,-8,12,1,-11,-13,-21,-20
-12,-14,-2,13,-4,-8,12,1,-11,-13,-21,-20
-12,-14,-2,13,-4,-8,12,1,-11,-12,-21,-20
-12,-14,-2,13,-4,-8,13,2,-11,-12,-21,-20
-12,-14,-2,13,-4,-9,13,2,-11,-12,-21,-20
-12,-14,-2,13,-4,-9,13,2,-11,-12,-21,-20
-12,-14,-2,13,-4,-9,13,2,-11,-12,-21,-20
-12,-15,-3,14,-4,-9,13,2,-11,-12,-21,-20
-12,-15,-3,14,-4,-9,13,1,-11,-12,-21,-20
-11,-14,-3,13,-3,-9,13,1,-11,-12,-21,-20
-11,-14,-3,13,-3,-8,13,1,-11,-12,-21,-20
-12,-13,-2,13,-4,-8,13,1,-11,-12,-21,-20
-12,-13,-2,13,-4,-7,13,2,-11,-12,-21,-20
-11,-13,-2,12,-3,-8,13,2,-10,-12,-21,-20
-10,-13,-2,12,-2,-8,13,2,-10,-12,-21,-20
-11,-13,-2,12,-2,-8,13,2,-11,-12,-21,-20
-11,-14,-3,13,-3,-8,13,2,-11,-12,-21,-20
-11,-14,-3,13,-3,-9,13,2,-11,-12,-21,-20
-11,-14,-3,13,-3,-8,13,2,-11,-12,-22,-20
-11,-13,-2,13,-4,-8,13,2,-12,-12,-22,-20
-11,-13,-2,13,-4,-8,13,2,-12,-13,-22,-20
-11,-13,-2,12,-4,-8,13,2,-12,-13,-22,-20
-11,-13,-2,12,-3,-8,13,2,-12,-13,-22,-21
-11,-13,-1,12,-3,-7,13,2,-12,-13,-22,-21
-12,-13,-1,12,-4,-7,14,2,-12,-13,-22,-21
-12,-13,-1,12,-4,-7,14,2,-12,-14,-22,-21
-12,-13,-1,12,-4,-7,14,2,-13,-14,-22,-21
-13,-14,-1,13,-4,-7,13,2,-13,-15,-23,-21
-13,-14,-1,13,-5,-7,13,2,-13,-15,-23,-22
-13,-14,-1,13,-5,-7,13,2,-13,-15,-23,-22
-12,-13,-1,13,-4,-7,13,3,-12,-15,-23,-21
-13,-13,0,13,-5,-7,13,3,-12,-15,-23,-21
-13,-13,0,14,-5,-7,14,3,-12,-15,-23,-21
-13,-13,0,13,-5,-7,14,3,-12,-15,-23,-21
-14,-14,0,13,-5,-7,14,4,-12,-15,-24,-21
-15,-14,0,14,-6,-7,14,4,-12,-15,-24,-22
-15,-14,0,14,-6,-7,14,5,-12,-15,-24,-22
-14,-14,0,14,-6,-7,15,5,-12,-15,-24,-22
-14,-14,0,14,-6,-7,15,6,-12,-16,-24,-22
-14,-14,0,14,-6,-7,15,6,-11,-16,-24,-22
-14,-14,0,14,-6,-7,15,7,-11,-16,-24,-22
-14,-14,0,14,-6,-7,15,7,-11,-17,-25,-23
-15,-14,0,14,-6,-7,16,7,-11,-17,-25,-23
-16,-14,1,14,-7,-7,16,8,-11,-17,-26,-23
-16,-15,1,15,-7,-7,17,9,-11,-17,-26,-24
-16,-15,1,15,-8,-7,17,10,-11,-17,-27,-24
-16,-15,1,15,-8,-7,17,11,-11,-17,-27,-24
-16,-15,1,15,-7,-7,18,12,-11,-17,-27,-24
-16,-15,0,16,-7,-7,18,13,-10,-18,-27,-23
-16,-15,0,16,-8,-7,19,14,-10,-18,-27,-23
-16,-15,0,16,-8,-7,19,15,-10,-18,-27,-23
-16,-15,0,15,-7,-7,19,16,-9,-18,-27,-23
-15,-15,0,14,-7,-6,20,17,-9,-18,-27,-23
-15,-14,1,14,-7,-6,21,18,-8,-18,-27,-23
-16,-14,2,14,-7,-6,22,20,-8,-19,-27,-24
-17,-14,2,15,-8,-6,23,21,-7,-19,-27,-24
-17,-14,3,15,-9,-6,24,22,-6,-18,-27,-24
-16,-13,3,14,-9,-5,25,24,-4,-18,-27,-23
-16,-13,3,14,-9,-5,25,25,-2,-17,-27,-23
-16,-13,3,13,-8,-5,26,27,0,-17,-27,-23
-15,-13,2,13,-8,-5,26,28,2,-17,-27,-23
-14,-12,2,12,-7,-5,27,29,4,-18,-27,-23
-13,-11,2,11,-7,-4,28,31,6,-18,-27,-23
-13,-10,3,11,-8,-3,28,33,8,-17,-26,-22
-13,-9,3,11,-8,-3,29,35,10,-16,-26,-22
-13,-9,3,10,-7,-3,29,36,12,-16,-25,-21
-12,-9,2,10,-7,-3,29,37,13,-16,-25,-21
-12,-9,2,10,-6,-3,29,38,13,-16,-25,-20
-11,-8,2,10,-6,-3,29,39,13,-15,-24,-19
-10,-8,2,9,-5,-3,29,40,13,-15,-23,-19
-10,-7,2,9,-5,-3,29,41,13,-14,-22,-18
-10,-7,2,8,-4,-2,29,42,14,-13,-21,-17
-9,-6,2,7,-4,-2,28,43,14,-12,-20,-16
-7,-4,2,6,-3,-1,28,43,14,-11,-19,-15
-6,-3,2,4,-3,0,27,43,14,-10,-18,-14
-5,-2,2,3,-2,0,27,43,15,-9,-17,-13
-4,-1,2,3,-2,0,26,44,15,-7,-15,-11
-2,0,1,2,-1,1,25,44,16,-6,-14,-10
-1,0,1,1,0,1,24,43,17,-5,-12,-8
-1,1,2,0,0,1,23,43,18,-4,-11,-7
0,1,2,0,0,1,21,42,18,-3,-9,-6
0,2,2,-1,1,2,20,41,18,-2,-8,-5
1,4,2,-3,1,3,20,40,19,-1,-7,-4
2,5,2,-4,1,3,19,39,19,0,-6,-3
3,6,2,-5,1,4,18,38,20,1,-5,-1
3,7,2,-5,2,4,17,36,20,2,-3,0
4,7,2,-5,2,5,15,35,21,3,-2,0
4,7,2,-6,2,5,13,33,21,4,0,1
5,7,2,-6,2,5,12,31,22,5,0,2
5,7,2,-6,2,5,11,29,22,6,1,3
5,7,2,-7,2,5,10,28,23,7,2,4
5,8,2,-8,2,6,9,27,23,8,3,5
6,9,2,-8,2,6,8,25,24,9,4,6
5,9,3,-8,2,6,8,24,24,10,5,7
5,8,3,-7,2,5,8,22,24,11,6,7
5,7,3,-7,2,5,7,20,25,11,6,7
5,8,3,-7,2,6,6,19,25,11,7,7
6,9,3,-7,2,6,6,18,25,12,7,7
7,9,3,-8,3,6,5,17,25,12,7,7
7,9,3,-8,3,6,5,16,24,12,7,7
6,8,3,-7,2,6,4,15,24,12,7,7
5,8,3,-7,2,5,4,14,25,12,7,7
4,8,3,-6,2,5,3,13,25,13,8,8
4,8,3,-6,1,5,3,13,26,13,8,8
4,7,3,-6,1,5,3,12,26,13,8,8
4,7,2,-6,1,5,2,11,26,13,7,8
4,6,2,-6,1,5,2,10,25,12,7,7
3,6,2,-5,1,5,2,10,24,12,7,7
3,6,2,-5,1,5,2,9,24,12,7,7
4,6,2,-5,2,4,2,9,23,12,7,7
5,6,1,-6,3,4,2,8,23,12,7,7
5,5,0,-6,3,3,2,8,23,12,7,7
5,5,0,-5,3,2,2,7,22,11,7,6
3,5,1,-4,1,3,2,7,21,11,7,6
2,5,2,-4,0,3,2,7,21,10,7,6
2,4,1,-4,1,3,2,6,21,10,6,6
3,4,1,-4,2,2,1,6,20,10,6,5
2,4,1,-3,1,3,1,6,20,10,6,5
2,4,2,-3,1,3,1,6,19,10,6,5
2,4,2,-3,0,3,1,6,19,10,6,5
2,4,1,-3,1,3,1,5,19,10,5,5
3,4,1,-3,1,2,1,5,19,9,5,5
2,4,1,-3,1,2,1,5,19,9,5,5
2,4,1,-3,1,2,1,5,18,9,5,5
1,4,1,-2,0,2,1,4,18,8,5,5
1,4,1,-2,0,2,1,4,17,8,4,5
2,4,1,-2,1,2,1,3,17,8,4,5
2,4,1,-2,1,2,1,3,18,8,4,5
2,3,1,-2,1,2,1,3,18,7,4,5
2,3,1,-2,1,2,1,3,18,7,4,5
2,3,1,-2,1,2,2,3,19,7,4,5
2,3,0,-2,2,2,2,3,19,7,4,5
2,3,0,-2,1,2,2,4,20,7,4,5
2,3,0,-2,1,2,2,4,21,7,4,5
3,3,0,-3,2,2,2,4,21,7,4,5
3,3,0,-3,2,2,1,4,21,7,3,4
3,3,0,-3,2,2,1,4,19,7,3,4
2,3,1,-3,1,2,1,4,18,7,3,4
2,3,1,-3,1,2,2,4,16,7,3,4
1,4,2,-3,1,3,2,4,15,7,3,4
1,3,2,-2,1,3,2,4,14,7,3,4
0,2,2,-1,0,2,2,5,13,7,3,4
0,1,2,-1,0,2,2,5,13,7,3,4
0,2,1,-1,0,2,2,5,12,7,3,5
1,2,1,-1,1,2,2,5,12,7,3,5
0,2,2,-1,0,2,2,6,12,7,3,4
0,2,2,0,0,2,2,6,12,7,3,4
0,1,2,0,0,1,2,6,11,7,3,4
0,1,1,0,0,0,2,6,10,6,3,4
1,1,0,-1,1,0,2,6,10,6,2,3
1,1,0,-1,1,0,3,6,10,6,2,4
0,1,2,0,0,1,3,7,10,7,2,4
0,1,2,0,0,1,3,7,10,7,2,4
0,1,2,0,0,2,3,7,10,7,2,4
-1,1,2,0,0,2,4,7,10,7,2,3
-1,1,2,0,-1,2,4,8,10,7,2,3
-1,1,2,0,0,2,4,8,10,6,2,3
0,1,1,0,0,1,4,8,10,6,2,3
-1,1,1,0,0,1,4,8,10,6,2,3
-1,0,2,0,-1,1,4,8,10,6,2,3
-1,0,1,0,0,0,4,8,10,5,1,3
-1,0,1,0,0,0,4,8,10,5,1,2
-1,0,1,0,0,0,4,8,10,5,1,2
-1,0,1,0,0,1,4,8,10,5,1,2
-1,0,1,0,0,1,4,8,9,5,1,2
-1,0,1,0,0,1,4,8,9,5,1,2
-1,0,1,0,0,1,4,8,9,5,0,2
0,1,1,0,0,1,4,8,9,5,0,2
-1,1,2,0,0,2,5,9,9,5,0,2
-1,1,3,0,-1,2,5,9,9,5,0,2
-1,1,3,0,-1,2,5,9,9,5,0,2
-1,1,3,0,-1,2,5,9,9,5,0,2
-1,1,3,0,-1,2,5,10,9,5,0,2
-1,2,3,-1,-1,3,5,10,10,6,1,3
-1,3,4,-1,-2,4,6,11,10,6,1,3
-1,4,5,-1,-2,5,6,11,10,7,2,4
-1,5,5,-2,-2,5,6,11,10,7,2,4
0,6,6,-3,-2,6,7,11,10,7,2,4
0,7,6,-3,-2,6,7,11,11,7,2,4
0,7,6,-4,-2,6,8,12,11,7,3,5
1,7,6,-4,-1,6,8,12,11,8,3,5
1,7,6,-5,-1,7,8,12,12,8,3,5
2,8,6,-5,-1,7,8,12,12,8,3,5
2,9,6,-6,-1,8,8,12,12,8,3,6
3,9,6,-6,0,8,8,12,12,8,3,6
3,9,6,-6,0,8,7,12,11,8,3,6
3,9,6,-6,0,8,7,11,11,8,3,6
3,9,6,-6,0,7,6,11,11,8,3,6
4,9,6,-6,0,7,4,10,10,8,3,6
4,9,6,-6,0,8,3,9,10,8,3,6
4,10,6,-7,0,8,2,8,10,8,3,6
5,10,6,-7,0,8,1,8,9,8,3,6
6,11,5,-8,1,8,0,8,9,8,3,6
6,11,4,-9,1,8,0,7,8,8,3,6
7,11,4,-9,2,8,-1,6,8,8,3,7
7,12,4,-10,2,8,-2,6,8,8,4,7
8,12,3,-10,3,8,-2,7,9,9,4,8
8,11,3,-10,3,7,-2,7,9,9,4,8
8,10,2,-9,3,6,-2,7,9,9,4,7
7,9,1,-9,3,5,-2,7,9,9,4,7
7,8,1,-8,3,5,-1,8,10,9,4,7
6,8,1,-8,3,4,-1,8,10,9,4,7
6,8,1,-7,4,4,0,9,10,9,5,7
6,7,0,-7,4,3,0,9,10,10,5,7
6,7,0,-6,4,3,0,9,10,10,5,7
6,6,0,-6,4,3,1,9,11,10,5,7
5,5,0,-5,4,2,1,9,11,10,5,7
5,5,0,-5,4,2,2,10,12,10,5,7
4,4,0,-4,4,2,3,10,12,9,4,7
4,4,0,-4,3,2,3,10,11,9,4,7
2,3,0,-2,2,1,3,10,11,8,3,5
0,1,0,0,1,1,3,10,10,7,2,4
0,0,-1,0,1,0,3,9,9,6,1,3
0,-1,-2,1,1,-1,3,8,8,5,0,2
0,-1,-2,1,1,-1,3,7,7,5,0,2
0,-1,-1,1,1,-1,3,7,7,5,0,2
0,-1,-1,1,1,-1,3,7,6,5,0,2
-1,-2,-1,2,1,-2,2,7,6,5,0,1
-1,-2,-1,2,0,-2,2,7,5,4,0,1
-1,-2,-1,2,0,-2,2,7,5,4,0,1
-1,-2,0,2,0,-1,2,7,5,4,0,1
-2,-2,0,2,0,-1,2,6,5,4,0,1
-2,-3,0,3,0,-2,2,6,5,4,-1,1
-2,-3,-1,3,0,-2,2,6,5,4,-1,1
-2,-2,-1,3,0,-2,2,6,5,4,-1,1
-2,-2,-1,3,0,-2,2,6,5,4,-1,1
-2,-2,-1,3,0,-2,2,6,5,4,-1,1
-2,-2,-1,2,0,-2,2,6,5,4,-1,1
-2,-2,-1,2,0,-2,2,6,5,4,-1,1
-2,-3,-1,3,0,-2,2,6,5,4,-2,1
-3,-3,-1,3,0,-2,2,6,5,4,-2,1
-2,-3,-1,3,0,-2,2,6,5,4,-2,1
-1,-3,-1,3,0,-2,2,6,5,4,-2,1
-1,-3,-1,3,0,-2,2,6,5,4,-2,1
-1,-3,-1,3,0,-3,2,5,5,4,-2,1
-1,-3,-2,3,1,-3,2,5,5,4,-2,1
-1,-3,-3,3,1,-4,2,6,5,4,-2,1
-1,-4,-3,3,1,-4,3,7,5,4,-2,1
-1,-4,-3,3,1,-3,4,9,6,4,-2,1
0,-3,-3,2,2,-3,5,13,8,5,-1,1
0,-2,-2,1,2,-2,7,18,11,6,0,2
0,-1,-1,1,1,-1,9,21,14,8,0,3
0,-1,0,1,0,0,9,22,17,11,2,3
0,0,0,0,0,0,9,21,19,13,4,4
1,2,0,-1,1,1,8,19,22,16,6,6
3,2,-2,-2,3,0,5,15,24,19,8,7
5,3,-4,-4,5,0,2,10,26,22,11,9
9,5,-5,-6,7,0,-4,5,31,28,15,13
14,8,-6,-11,11,0,-13,-1,37,36,23,19
22,13,-9,-18,16,1,-25,-9,45,47,33,28
32,19,-12,-26,23,3,-40,-17,56,62,47,39
44,27,-15,-35,30,5,-58,-24,68,77,62,51
54,35,-18,-44,36,7,-75,-33,76,91,76,63
63,41,-21,-51,42,9,-91,-43,81,100,87,73
70,46,-24,-57,47,11,-106,-56,81,106,95,81
75,50,-25,-61,51,12,-120,-71,77,109,101,89
79,54,-25,-66,53,15,-133,-86,72,112,107,96
82,58,-24,-70,54,17,-144,-100,67,115,113,103
84,63,-21,-73,53,21,-152,-113,60,117,118,110
82,69,-13,-75,48,28,-156,-126,51,117,121,116
75,76,0,-75,38,38,-155,-141,36,114,120,119
65,83,17,-74,25,50,-152,-156,18,106,116,120
55,88,33,-71,11,61,-147,-167,-2,94,107,116
44,89,45,-66,0,67,-140,-173,-26,73,90,106
33,84,51,-58,-8,68,-131,-176,-51,45,65,89
20,75,54,-48,-16,65,-119,-174,-73,17,39,69
9,62,52,-36,-20,57,-105,-166,-88,-7,15,49
0,47,47,-24,-22,47,-90,-153,-96,-26,-4,29
-7,34,42,-14,-23,38,-76,-137,-97,-39,-19,13
-12,24,37,-6,-23,31,-63,-121,-94,-46,-30,1
-15,17,33,-1,-24,25,-53,-106,-89,-50,-36,-7
-18,11,30,3,-24,21,-44,-92,-83,-52,-40,-14
-20,6,27,7,-23,17,-37,-80,-76,-52,-43,-18
-21,1,22,9,-21,12,-31,-70,-70,-51,-44,-21
-21,-3,17,11,-18,8,-26,-61,-63,-49,-44,-23
-20,-7,13,13,-16,3,-21,-52,-57,-46,-44,-24
-19,-10,9,15,-13,0,-16,-44,-51,-42,-42,-25
-19,-13,6,16,-11,-4,-12,-37,-45,-38,-40,-25
-18,-15,3,17,-10,-6,-7,-30,-40,-35,-38,-25
-18,-16,2,17,-9,-7,-4,-24,-36,-33,-36,-24
-19,-17,1,18,-9,-8,-1,-19,-32,-30,-34,-23
-18,-18,1,18,-9,-8,2,-15,-28,-28,-33,-23
-17,-17,0,17,-8,-8,4,-11,-25,-26,-32,-22
-15,-17,-1,16,-6,-8,6,-8,-22,-24,-31,-22
-15,-16,-1,16,-6,-8,8,-5,-20,-22,-30,-21
-14,-16,-1,15,-5,-8,9,-3,-18,-20,-29,-21
-14,-15,-2,15,-5,-8,10,-2,-17,-19,-28,-20
-14,-15,-1,15,-6,-8,11,0,-16,-18,-26,-20
-15,-15,-1,15,-6,-8,11,0,-16,-17,-26,-20
-15,-16,-1,16,-7,-9,11,1,-16,-17,-26,-20
-15,-16,-1,16,-7,-9,11,1,-15,-17,-26,-20
-15,-17,-1,16,-7,-9,11,1,-14,-17,-26,-20
-15,-17,-1,16,-7,-9,11,1,-14,-17,-26,-20
-15,-17,-1,16,-7,-9,11,1,-14,-17,-26,-20
-15,-17,-1,16,-7,-9,11,1,-14,-17,-26,-20
-15,-16,-1,16,-6,-9,11,2,-14,-17,-26,-20
-15,-16,-1,16,-6,-9,11,2,-14,-17,-26,-20
-15,-16,-1,16,-6,-9,12,2,-14,-17,-26,-20
-15,-16,-1,16,-6,-9,12,2,-14,-17,-26,-20
-15,-15,-1,15,-6,-8,12,2,-14,-17,-26,-20
-15,-15,-1,15,-6,-8,12,2,-14,-16,-26,-20
-15,-16,-1,16,-7,-8,12,2,-14,-16,-26,-20
-15,-16,-1,15,-7,-8,12,2,-14,-15,-26,-20
-14,-15,-1,15,-6,-8,12,2,-14,-16,-27,-20
-14,-16,-1,15,-6,-9,12,2,-14,-16,-27,-20
-14,-16,-2,15,-6,-10,13,2,-14,-16,-27,-20
-14,-17,-2,16,-6,-10,13,2,-14,-16,-27,-20
-15,-17,-2,16,-6,-10,14,2,-14,-16,-27,-20
-15,-17,-2,16,-6,-10,14,2,-14,-16,-27,-20
-15,-17,-2,16,-5,-10,14,2,-14,-16,-27,-20
-14,-17,-2,16,-5,-10,14,2,-14,-16,-27,-20
-14,-17,-2,16,-6,-10,14,2,-14,-16,-27,-20
-14,-17,-2,16,-6,-10,14,2,-14,-16,-27,-20
-14,-17,-3,15,-5,-10,14,2,-15,-17,-27,-20
-14,-17,-3,16,-5,-10,14,2,-15,-17,-28,-20
-15,-17,-2,17,-6,-10,14,2,-15,-17,-28,-20
-16,-17,-2,17,-6,-9,14,2,-15,-17,-28,-20
-15,-17,-2,16,-6,-9,14,2,-15,-17,-28,-21
-15,-17,-2,16,-6,-9,14,2,-15,-17,-28,-21
-15,-17,-2,16,-6,-10,14,2,-15,-17,-28,-21
-15,-17,-2,16,-6,-10,14,2,-16,-18,-28,-21
-15,-17,-2,16,-6,-10,15,3,-16,-18,-28,-21
-15,-17,-2,16,-6,-10,15,3,-16,-18,-29,-21
-14,-17,-2,16,-5,-9,15,3,-16,-19,-29,-21
-14,-17,-2,16,-5,-9,15,3,-16,-20,-29,-22
-15,-17,-2,16,-6,-9,16,3,-16,-20,-29,-22
-15,-16,-2,16,-6,-9,16,4,-16,-21,-29,-22
-15,-16,-2,16,-6,-9,16,4,-16,-21,-29,-22
-15,-16,-1,16,-7,-9,16,4,-17,-22,-29,-22
-16,-17,-1,16,-7,-9,16,5,-17,-22,-29,-22
-16,-18,-2,17,-6,-10,17,5,-17,-22,-29,-22
-16,-18,-2,17,-6,-10,17,6,-17,-23,-29,-23
-16,-18,-2,17,-6,-10,18,6,-17,-23,-29,-23
-16,-18,-2,17,-6,-10,18,7,-16,-23,-29,-23
-16,-17,-2,17,-6,-10,18,8,-16,-24,-29,-23
-16,-17,-2,17,-6,-10,18,8,-16,-24,-29,-23
-16,-17,-2,17,-6,-10,18,9,-16,-25,-29,-24
-17,-18,-1,17,-7,-10,19,10,-16,-26,-29,-24
-17,-18,-1,17,-8,-10,19,11,-16,-26,-29,-24
-16,-18,-1,17,-7,-10,19,12,-16,-27,-29,-24
-16,-17,-1,17,-7,-9,20,13,-15,-27,-29,-24
-17,-17,-1,17,-7,-9,21,14,-15,-27,-29,-24
-17,-17,-1,17,-7,-9,21,15,-15,-28,-29,-25
-17,-17,-1,17,-7,-9,22,16,-14,-28,-29,-25
-17,-17,0,17,-7,-9,23,18,-14,-29,-29,-25
-16,-16,0,16,-7,-9,23,19,-14,-29,-29,-25
-16,-16,0,16,-7,-9,24,21,-13,-28,-28,-25
-16,-15,0,16,-7,-8,24,22,-13,-28,-28,-25
-16,-15,0,16,-8,-8,25,24,-12,-29,-28,-25
-16,-15,0,16,-8,-8,25,25,-12,-29,-28,-25
-16,-15,0,15,-7,-8,26,27,-11,-29,-28,-25
-15,-14,0,15,-6,-8,27,28,-10,-29,-27,-25
-15,-14,0,15,-6,-8,28,30,-9,-28,-27,-24
-15,-14,0,15,-7,-7,29,31,-8,-28,-26,-24
-15,-14,0,15,-7,-7,29,33,-7,-28,-26,-24
-14,-13,0,14,-6,-7,29,34,-7,-28,-26,-23
-14,-13,0,14,-6,-7,29,36,-6,-28,-26,-23
-13,-12,0,13,-6,-6,29,37,-5,-27,-25,-22
-12,-11,0,12,-5,-6,29,39,-3,-27,-24,-22
-11,-11,0,11,-5,-6,29,40,-2,-27,-23,-21
-10,-10,0,10,-4,-5,29,41,0,-26,-22,-20
-9,-9,-1,9,-3,-5,29,42,1,-25,-21,-19
-8,-8,-1,8,-2,-5,29,42,2,-24,-20,-18
-6,-7,-1,7,-2,-4,28,43,3,-23,-19,-17
-5,-6,-1,5,-1,-3,28,43,3,-22,-18,-16
-4,-5,-1,4,-1,-3,27,44,4,-21,-16,-15
-3,-5,-2,4,0,-3,27,44,6,-20,-15,-14
-2,-4,-2,3,1,-3,27,44,7,-19,-13,-12
-1,-2,-2,2,1,-2,26,44,8,-18,-12,-11
0,-1,-2,1,2,-1,25,44,9,-17,-10,-10
0,0,-2,0,2,-1,24,43,10,-16,-9,-9
1,0,-2,0,3,-1,23,43,10,-15,-7,-8
1,0,-2,-1,3,-1,21,42,11,-13,-6,-6
2,1,-1,-2,3,0,20,40,11,-12,-4,-5
3,2,-1,-2,3,0,19,39,11,-11,-3,-3
4,3,-1,-3,4,1,18,37,12,-11,-1,-2
5,4,-1,-4,4,1,17,36,13,-10,0,-1
5,5,-1,-5,4,2,16,34,14,-8,1,0
5,6,-1,-5,4,2,14,33,14,-7,2,0
5,6,0,-5,3,3,13,31,14,-6,3,1
5,6,0,-6,3,3,11,29,14,-5,3,1
6,6,0,-6,3,3,10,27,14,-4,4,2
6,6,0,-6,3,3,9,25,14,-4,5,2
6,7,0,-6,3,3,9,23,14,-3,6,3
6,7,0,-6,4,3,8,22,14,-3,7,4
7,8,0,-6,4,4,8,21,14,-2,8,4
7,8,1,-7,3,4,8,20,14,-1,9,5
7,8,1,-7,3,4,7,18,13,0,9,5
7,8,0,-7,4,4,6,17,13,0,9,5
7,7,1,-7,3,4,6,15,12,0,9,5
6,7,1,-7,3,4,5,14,12,0,9,5
6,7,1,-6,2,4,4,13,11,0,9,5
6,7,1,-6,2,4,4,12,11,0,10,6
5,7,1,-6,2,4,4,12,11,0,10,6
4,7,1,-5,2,4,4,11,11,0,11,6
4,6,1,-5,2,3,4,11,11,0,11,6
5,6,0,-5,3,3,4,10,10,0,11,6
5,6,0,-5,3,3,4,9,10,0,11,6
5,6,0,-5,3,3,4,8,10,0,11,6
5,6,0,-5,3,3,4,7,10,0,10,6
5,6,0,-5,3,2,4,7,9,-1,10,5
4,5,0,-5,2,2,4,7,9,-2,9,5
4,5,1,-4,2,3,4,6,8,-2,9,5
4,5,1,-4,2,2,4,6,7,-3,9,4
3,4,0,-3,2,1,3,5,6,-3,8,4
3,3,0,-3,2,1,3,5,6,-4,8,4
4,4,0,-3,2,1,3,4,6,-4,8,4
4,4,0,-4,2,1,3,4,6,-3,8,5
4,4,0,-4,2,1,3,4,6,-3,8,5
4,4,0,-4,2,1,3,3,5,-3,8,5
4,4,0,-3,2,1,3,3,5,-3,8,5
4,4,0,-3,2,1,3,3,5,-4,8,5
3,4,0,-3,2,1,3,3,5,-4,8,4
3,4,0,-3,1,1,3,3,5,-4,8,4
2,4,0,-3,1,1,3,3,5,-4,7,4
2,4,0,-3,1,1,3,3,5,-4,7,4
2,4,0,-3,1,1,4,2,5,-5,6,3
2,3,0,-3,1,1,4,2,5,-5,6,3
2,3,0,-2,1,1,4,2,5,-5,6,3
2,3,0,-2,2,1,4,1,5,-5,6,3
3,3,-1,-2,2,1,4,1,5,-5,7,3
3,3,-1,-2,2,0,4,2,5,-5,7,3
2,2,-1,-2,2,0,4,2,5,-6,7,3
2,2,-1,-2,2,0,4,2,5,-6,7,3
2,3,-1,-2,2,0,4,2,5,-5,7,3
2,3,0,-2,2,0,4,2,5,-5,7,3
2,3,0,-2,1,0,5,2,5,-5,7,3
2,3,0,-2,1,1,5,2,5,-5,7,3
2,3,0,-2,1,1,5,2,5,-5,8,3
2,3,0,-2,1,1,5,2,5,-5,8,3
2,2,-1,-2,1,1,5,2,4,-6,7,2
2,2,-1,-3,2,0,5,2,3,-7,6,2
3,2,-1,-3,2,0,5,2,3,-7,6,2
2,2,0,-2,2,0,5,2,3,-6,6,2
2,2,0,-2,1,0,6,2,3,-6,7,2
1,1,0,-1,1,0,6,2,3,-6,7,2
1,2,0,-1,1,1,6,3,3,-6,7,2
2,2,0,-2,1,1,6,3,3,-6,7,2
1,2,0,-2,1,1,6,3,4,-6,7,2
1,2,0,-1,1,1,7,3,4,-6,7,2
0,2,0,-1,1,1,7,3,4,-6,7,2
0,1,0,-1,1,0,7,3,3,-7,6,1
0,1,0,-1,1,0,7,3,3,-7,6,1
1,1,-1,-1,1,0,8,3,3,-7,6,1
1,1,-1,-1,1,0,8,3,4,-7,6,1
1,1,-1,-1,1,0,8,3,4,-6,6,1
1,1,-1,0,1,0,8,4,3,-7,6,0
0,0,-1,0,1,0,8,4,3,-8,5,0
0,0,-1,0,1,0,8,4,3,-8,5,0
0,0,-1,0,1,0,9,5,3,-7,6,1
0,0,-1,0,1,0,9,5,3,-7,6,1
0,0,-1,0,1,0,9,5,3,-7,6,0
0,0,-1,0,1,0,9,5,3,-7,6,0
0,0,-1,0,1,0,9,5,3,-7,6,1
0,0,-1,0,1,-1,9,5,3,-7,6,1
0,0,-1,0,1,-1,9,5,3,-7,6,1
0,0,-1,0,1,-1,10,6,3,-7,6,1
0,-1,-1,1,0,-2,10,6,3,-7,6,1
0,-1,-1,1,0,-2,10,6,3,-7,6,1
0,-1,-2,1,1,-2,10,6,3,-7,7,1
0,0,-2,1,1,-2,11,6,3,-7,7,1
0,0,-2,0,1,-1,11,6,3,-7,7,1
0,1,-1,0,1,0,11,7,3,-6,7,1
0,2,0,-1,0,1,12,7,4,-6,7,1
1,4,1,-2,0,3,12,7,5,-7,6,1
1,6,2,-3,0,4,13,7,5,-7,6,1
2,6,2,-4,0,4,13,8,6,-6,7,1
2,6,2,-4,0,4,14,8,7,-6,7,1
2,6,2,-4,0,4,14,9,8,-6,8,1
2,6,3,-4,0,4,15,9,8,-6,8,1
2,6,3,-5,0,4,15,9,8,-5,8,2
3,7,2,-5,1,5,15,9,8,-4,9,3
4,7,2,-6,1,5,15,9,9,-3,10,4
5,8,2,-6,2,5,15,9,9,-3,11,4
6,8,1,-7,2,5,15,9,9,-3,11,4
6,9,1,-7,3,6,14,9,9,-3,11,5
5,9,2,-7,2,6,14,9,9,-2,11,5
5,9,2,-7,2,6,14,8,9,-2,11,5
6,9,1,-8,2,6,14,8,8,-3,11,5
6,9,1,-8,3,6,13,8,8,-3,11,5
7,10,2,-9,3,6,11,7,7,-3,11,5
7,10,3,-9,2,7,10,6,7,-3,11,5
7,11,3,-9,2,7,9,5,7,-3,11,5
7,11,3,-9,2,7,8,4,7,-3,11,5
7,10,2,-9,2,6,7,4,7,-3,11,5
7,10,1,-9,3,5,6,3,7,-3,12,6
8,11,0,-10,4,6,6,3,7,-2,12,7
9,11,0,-11,5,6,5,3,7,-2,12,7
9,10,0,-10,5,5,4,3,7,-2,12,6
9,9,-1,-9,6,4,4,3,8,-1,12,6
9,8,-1,-9,6,4,4,4,9,-1,13,6
9,8,-2,-8,7,3,4,4,10,-1,13,7
9,7,-3,-8,8,2,5,5,10,-1,13,7
9,7,-3,-8,8,2,5,5,10,-1,13,7
9,7,-3,-8,7,2,6,6,11,-1,13,7
8,6,-4,-7,7,1,7,6,11,-1,13,7
8,5,-4,-7,7,0,7,6,12,-1,13,7
8,4,-5,-6,7,0,8,6,13,-1,14,7
7,3,-5,-5,7,-1,8,6,13,0,14,7
7,3,-5,-4,6,-1,8,6,13,0,14,6
6,3,-4,-4,6,-1,8,6,12,-1,13,5
4,2,-4,-3,5,-1,7,6,11,-1,13,4
2,1,-3,-1,4,-1,7,6,10,-2,12,3
1,0,-3,0,3,-2,7,5,9,-4,10,1
0,-2,-3,1,2,-3,7,4,8,-6,8,0
-1,-3,-4,2,2,-4,7,3,7,-7,8,0
-1,-4,-5,2,2,-4,7,3,7,-7,7,0
-1,-4,-5,3,2,-4,7,3,7,-8,7,0
-1,-4,-5,3,2,-4,8,3,7,-7,8,0
0,-3,-4,2,2,-4,8,3,7,-6,9,0
0,-2,-4,1,3,-3,8,2,7,-6,10,0
0,-3,-5,1,3,-4,7,2,7,-6,10,0
0,-4,-6,1,3,-4,7,2,7,-5,9,0
0,-4,-5,2,2,-4,7,2,7,-5,9,0
0,-4,-5,2,2,-4,6,2,7,-4,8,0
0,-4,-5,2,2,-4,6,2,8,-4,8,0
-1,-4,-4,2,2,-4,6,2,7,-3,8,0
-1,-4,-4,2,2,-4,7,1,7,-3,8,0
-1,-4,-4,2,2,-4,7,1,6,-2,8,0
-1,-5,-5,2,3,-5,7,1,6,-2,8,0
-1,-5,-5,2,3,-5,7,2,6,-2,8,0
-1,-4,-5,2,2,-4,7,2,6,-2,9,0
0,-4,-4,2,2,-4,6,2,6,-2,8,0
0,-4,-4,2,2,-4,6,2,6,-3,8,0
0,-4,-4,2,2,-4,6,2,6,-3,8,-1
-1,-4,-4,2,2,-4,6,2,7,-2,8,-1
-2,-4,-4,3,1,-4,7,2,7,-2,8,0
-2,-4,-4,3,1,-3,8,3,8,-2,8,0
-1,-5,-5,3,2,-4,8,4,8,-2,8,0
-1,-6,-6,3,3,-5,9,6,9,-1,8,0
0,-5,-6,3,3,-6,10,9,10,0,9,1
-1,-5,-5,3,3,-5,12,13,13,1,9,1
-1,-4,-4,2,2,-4,13,17,16,3,11,2
0,-2,-3,1,2,-3,15,19,19,5,12,3
1,0,-3,0,2,-2,15,19,22,8,14,4
2,0,-3,-1,3,-1,14,17,24,10,16,5
3,1,-3,-2,4,-1,11,12,26,13,17,6
5,2,-4,-4,5,-1,8,8,28,15,19,7
9,4,-6,-6,8,-1,2,3,32,20,24,11
14,7,-9,-11,12,-1,-5,-2,39,28,31,17
22,12,-12,-17,18,0,-15,-10,47,39,42,25
33,18,-15,-26,25,1,-29,-18,57,52,55,35
45,26,-19,-36,33,3,-46,-27,68,67,69,48
55,33,-22,-45,40,5,-64,-36,76,81,83,60
63,39,-25,-51,45,7,-81,-47,81,91,94,71
71,44,-27,-57,50,8,-97,-60,80,97,102,79
77,48,-29,-62,54,10,-110,-75,76,100,108,86
81,52,-30,-66,56,12,-122,-91,71,102,114,93
84,56,-29,-70,58,14,-133,-106,65,104,119,101
86,61,-26,-73,58,18,-141,-119,58,106,124,107
86,67,-20,-76,54,24,-146,-133,49,106,128,113
79,74,-6,-76,44,34,-147,-148,36,102,128,116
69,81,11,-75,29,47,-145,-161,19,96,124,117
57,87,29,-72,15,58,-141,-171,1,86,117,115
47,88,41,-68,3,65,-135,-177,-19,69,103,107
36,84,48,-60,-5,66,-127,-179,-43,44,80,91
23,75,51,-49,-13,63,-115,-177,-64,17,55,72
11,63,50,-37,-18,57,-101,-169,-80,-7,32,52
1,49,46,-25,-21,48,-86,-157,-88,-26,11,33
-7,36,41,-14,-22,38,-72,-141,-91,-40,-5,15
-12,25,36,-6,-23,31,-59,-125,-89,-49,-16,2
-15,17,32,-1,-23,25,-48,-109,-84,-53,-24,-6
-17,12,29,2,-23,21,-39,-95,-78,-55,-29,-13
-19,7,26,5,-22,17,-31,-83,-71,-56,-32,-17
-20,2,21,8,-20,12,-25,-73,-65,-55,-34,-21
-20,-3,15,11,-17,6,-19,-63,-58,-54,-34,-24
-21,-8,11,14,-14,2,-14,-55,-51,-51,-33,-25
-21,-12,7,16,-12,-2,-10,-47,-45,-48,-32,-26
-20,-16,3,18,-10,-6,-6,-39,-40,-45,-31,-26
-19,-18,1,19,-9,-8,-3,-33,-36,-42,-30,-27
-19,-19,0,19,-9,-9,0,-27,-32,-40,-28,-27
-18,-18,0,18,-8,-9,4,-22,-28,-37,-26,-26
-18,-17,0,18,-8,-9,7,-17,-24,-34,-24,-25
-17,-17,-1,17,-7,-9,10,-13,-20,-32,-22,-24
-17,-17,-2,17,-5,-10,13,-10,-17,-29,-20,-23
-17,-18,-3,17,-5,-11,14,-7,-14,-27,-19,-22
-17,-19,-3,18,-5,-11,15,-5,-13,-26,-18,-22
-16,-18,-3,17,-5,-11,15,-4,-12,-24,-17,-21
-16,-18,-3,17,-5,-10,15,-3,-12,-23,-16,-21
-16,-17,-2,16,-6,-10,15,-1,-11,-22,-15,-20
-16,-17,-2,16,-6,-9,15,-1,-10,-21,-15,-19
-16,-17,-2,16,-6,-9,15,-1,-10,-22,-15,-20
-16,-17,-2,16,-6,-9,15,-1,-9,-22,-15,-20
-16,-17,-3,16,-5,-10,16,-1,-9,-22,-15,-20
-15,-17,-3,16,-5,-10,17,0,-9,-22,-15,-20
-15,-17,-2,16,-5,-10,17,0,-9,-22,-15,-20
-15,-17,-2,16,-6,-9,17,0,-9,-22,-16,-20
-15,-17,-2,16,-6,-10,17,0,-9,-22,-16,-20
-15,-18,-3,16,-5,-10,18,0,-9,-22,-16,-20
-16,-18,-3,17,-5,-10,18,0,-9,-22,-16,-20
-16,-18,-3,17,-6,-10,18,0,-9,-22,-17,-20
-16,-18,-2,17,-6,-10,18,-1,-9,-22,-17,-21
-16,-17,-2,16,-6,-9,18,-1,-9,-22,-17,-21
-16,-18,-2,16,-6,-10,18,-1,-9,-22,-17,-21
-16,-18,-2,17,-6,-10,18,0,-9,-21,-17,-21
-15,-18,-2,17,-6,-10,18,0,-9,-21,-16,-20
-15,-17,-3,16,-5,-10,18,0,-9,-21,-16,-20
-15,-18,-3,16,-5,-10,18,0,-8,-21,-16,-19
-16,-18,-3,17,-6,-10,18,0,-8,-21,-16,-20
-17,-18,-3,17,-6,-10,19,0,-9,-22,-17,-20
-16,-18,-3,17,-5,-11,19,0,-9,-22,-17,-20
-15,-18,-3,17,-5,-11,20,0,-9,-21,-17,-20
-15,-19,-4,17,-4,-12,20,0,-10,-22,-17,-21
-15,-19,-4,17,-4,-12,20,0,-10,-22,-18,-21
-16,-20,-3,18,-5,-12,20,0,-10,-22,-18,-21
-16,-20,-3,18,-5,-11,20,0,-10,-22,-18,-21
-17,-19,-2,17,-6,-11,19,0,-11,-22,-18,-21
-16,-18,-2,17,-6,-10,19,0,-11,-22,-18,-21
-16,-18,-2,17,-6,-10,19,0,-11,-21,-17,-21
-16,-18,-2,17,-6,-10,19,0,-11,-21,-18,-21
-16,-18,-2,18,-6,-10,20,0,-11,-22,-19,-21
-16,-18,-2,17,-6,-10,20,0,-12,-22,-19,-22
-16,-18,-2,16,-6,-10,20,0,-12,-23,-19,-23
-16,-18,-2,16,-6,-10,20,0,-12,-24,-20,-23
-16,-18,-2,17,-6,-10,20,0,-12,-24,-20,-23
-16,-18,-2,17,-6,-10,20,0,-12,-24,-20,-23
-16,-18,-2,16,-6,-10,19,0,-12,-24,-20,-23
-16,-18,-2,16,-6,-9,19,1,-13,-24,-20,-24
-16,-17,-1,17,-7,-9,19,1,-13,-25,-20,-23
-16,-17,-1,17,-7,-9,20,2,-13,-25,-21,-23
-16,-18,-2,17,-6,-10,20,2,-13,-25,-21,-23
-16,-19,-3,17,-6,-11,20,2,-13,-25,-21,-23
-17,-19,-3,18,-6,-11,20,2,-13,-25,-21,-23
-17,-19,-3,18,-7,-12,20,3,-13,-26,-21,-23
-18,-20,-3,19,-7,-12,20,3,-13,-27,-22,-23
-17,-20,-3,19,-7,-12,19,4,-14,-28,-23,-24
-16,-20,-4,18,-6,-12,19,4,-14,-28,-24,-25
-16,-19,-3,18,-6,-11,19,5,-13,-28,-24,-25
-17,-19,-2,19,-7,-11,19,6,-13,-28,-24,-25
-17,-20,-2,19,-7,-12,20,7,-13,-28,-24,-25
-18,-20,-2,19,-7,-11,20,8,-13,-28,-24,-25
-18,-19,-2,19,-7,-11,21,9,-13,-29,-24,-24
-17,-19,-2,19,-7,-11,21,11,-13,-29,-24,-25
-17,-19,-2,19,-7,-10,22,12,-13,-29,-24,-25
-17,-19,-2,18,-7,-10,22,13,-13,-29,-25,-26
-17,-19,-2,18,-7,-10,22,14,-13,-29,-25,-26
-16,-18,-2,17,-7,-10,22,15,-13,-30,-26,-27
-17,-18,-1,17,-7,-10,23,16,-13,-29,-26,-27
-17,-18,-2,17,-7,-10,24,17,-12,-29,-25,-27
-16,-18,-2,17,-7,-10,24,18,-12,-28,-25,-26
-16,-18,-2,17,-7,-10,26,20,-11,-28,-25,-26
-17,-17,-1,17,-7,-9,27,21,-11,-28,-24,-25
-17,-16,0,16,-8,-8,28,23,-10,-27,-24,-25
-17,-16,0,16,-8,-8,29,24,-9,-26,-23,-24
-16,-16,-1,16,-7,-8,30,26,-8,-26,-23,-24
-15,-16,-1,16,-6,-9,30,27,-8,-26,-23,-24
-15,-16,-1,16,-6,-9,29,29,-7,-26,-23,-24
-14,-15,-2,15,-6,-9,30,30,-6,-26,-23,-24
-13,-15,-2,14,-5,-9,31,32,-5,-26,-23,-23
-12,-15,-3,13,-4,-9,31,33,-4,-26,-23,-23
-11,-15,-3,13,-3,-9,32,34,-3,-26,-22,-23
-11,-15,-3,12,-3,-9,32,35,-2,-25,-22,-22
-10,-14,-3,12,-3,-8,32,36,0,-24,-21,-21
-9,-12,-3,10,-3,-7,32,36,1,-22,-20,-20
-8,-9,-2,8,-2,-6,32,37,2,-21,-19,-19
-6,-8,-2,7,-1,-5,32,37,3,-21,-19,-19
-6,-8,-3,7,-1,-5,31,38,4,-21,-18,-18
-5,-8,-3,7,0,-6,31,38,4,-21,-17,-17
-4,-8,-4,6,0,-6,31,39,5,-20,-15,-16
-3,-8,-5,6,1,-6,31,39,6,-18,-14,-14
-2,-7,-5,5,1,-6,30,39,7,-17,-12,-12
-1,-6,-5,4,2,-6,29,38,8,-16,-11,-11
0,-4,-5,2,2,-5,28,37,9,-15,-10,-9
0,-3,-4,1,2,-4,27,36,9,-14,-9,-8
