leadI,leadII,leadIII,leadaVR,leadaVL,leadaVF,leadV1,leadV2,leadV3,leadV4,leadV5,leadV6
0,-1,-1,0,1,-1,1,-1,-2,-3,-3,-3
-1,-4,-3,2,1,-3,4,-3,-5,-9,-9,-9
-5,-8,-3,6,-1,-5,7,-2,-6,-12,-13,-12
-9,-13,-4,11,-2,-8,11,0,-5,-12,-14,-12
-12,-20,-7,16,-2,-13,15,4,-2,-11,-13,-10
-14,-25,-11,20,-1,-18,17,8,0,-10,-13,-9
-13,-27,-14,21,0,-21,17,9,0,-10,-13,-9
-9,-25,-16,17,3,-21,15,8,-1,-11,-14,-10
-3,-20,-17,11,7,-19,11,6,-2,-12,-14,-12
0,-16,-17,8,8,-16,7,4,-3,-13,-15,-13
0,-15,-15,8,7,-15,7,4,-3,-13,-15,-13
-4,-17,-14,11,5,-15,9,4,-2,-12,-14,-13
-9,-20,-12,14,2,-15,12,5,1,-8,-11,-10
-12,-21,-11,17,0,-16,15,7,4,-3,-6,-6
-13,-22,-9,18,-2,-15,15,8,6,-1,-5,-5
-12,-21,-9,17,-1,-15,15,8,5,-3,-7,-8
-10,-21,-11,15,0,-15,14,9,5,-7,-11,-11
-8,-21,-13,14,2,-17,15,12,7,-7,-12,-13
-7,-22,-15,15,4,-19,18,19,13,-2,-9,-11
-6,-23,-17,15,5,-20,22,31,26,10,0,-5
-6,-24,-18,15,5,-21,28,49,46,30,15,6
-6,-23,-17,14,5,-20,35,71,71,54,33,19
-2,-20,-18,11,8,-19,44,98,101,82,56,35
6,-14,-20,4,13,-17,53,124,132,113,82,53
15,-6,-20,-4,17,-13,57,137,152,137,106,70
21,2,-18,-11,19,-8,55,132,156,152,127,87
23,10,-13,-16,18,-1,48,115,148,157,142,101
21,16,-5,-18,13,6,42,93,133,156,152,113
20,23,2,-21,9,13,33,65,111,150,161,127
24,31,6,-28,9,19,19,29,83,143,171,143
31,42,10,-37,10,26,-3,-18,48,133,182,161
39,56,16,-48,11,36,-34,-71,7,119,191,178
49,74,24,-61,12,49,-69,-126,-36,101,197,193
58,94,35,-76,12,65,-106,-178,-79,79,196,201
67,118,50,-92,9,84,-142,-225,-119,53,188,204
74,142,67,-107,4,105,-177,-267,-155,27,173,201
78,159,79,-118,0,119,-206,-297,-184,2,154,193
79,161,81,-120,0,121,-223,-312,-206,-26,123,172
75,150,74,-112,1,113,-228,-315,-224,-64,74,132
63,136,73,-99,-4,105,-223,-311,-240,-109,13,81
46,124,79,-85,-16,102,-212,-303,-253,-154,-46,28
31,115,85,-73,-27,100,-194,-286,-256,-187,-93,-15
18,104,86,-61,-34,95,-170,-260,-244,-198,-118,-43
7,88,81,-47,-37,85,-146,-227,-221,-192,-127,-57
-1,70,71,-34,-36,71,-124,-193,-193,-176,-124,-63
-6,53,59,-23,-32,57,-104,-160,-164,-154,-115,-62
-10,38,49,-14,-30,44,-83,-127,-133,-130,-102,-58
-13,25,39,-6,-27,33,-63,-95,-103,-105,-88,-53
-11,14,26,-1,-19,20,-45,-67,-76,-84,-75,-48
-8,6,14,1,-12,10,-32,-46,-55,-67,-63,-44
-7,1,7,3,-7,4,-21,-30,-39,-52,-51,-38
-8,-2,4,5,-6,1,-14,-20,-28,-42,-42,-33
-9,-4,3,6,-5,0,-8,-14,-21,-35,-37,-29
-10,-7,2,8,-5,-2,-3,-10,-17,-31,-34,-27
-12,-11,1,11,-5,-4,2,-5,-13,-28,-33,-25
-14,-15,0,14,-6,-7,7,0,-9,-25,-31,-23
-15,-17,-1,16,-6,-9,10,3,-5,-22,-28,-20
-12,-19,-5,15,-3,-13,10,5,-3,-19,-26,-17
-8,-20,-12,14,1,-16,9,5,-2,-19,-24,-17
-7,-21,-15,14,4,-18,9,7,-1,-18,-24,-17
-7,-22,-16,15,5,-19,12,11,1,-17,-23,-18
-10,-26,-17,18,4,-21,17,16,6,-13,-21,-17
-14,-29,-15,21,1,-21,21,21,11,-8,-18,-15
-18,-29,-11,23,-3,-20,24,23,14,-4,-16,-15
-18,-29,-9,23,-4,-20,23,22,14,-4,-16,-15
-17,-28,-9,22,-3,-19,22,20,13,-5,-17,-16
-15,-26,-9,20,-2,-18,20,19,11,-7,-18,-16
-13,-22,-9,17,-1,-15,18,18,10,-8,-19,-17
-11,-17,-8,14,-1,-12,16,18,9,-10,-20,-18
-11,-15,-6,13,-2,-11,16,19,9,-9,-20,-17
-13,-16,-5,15,-4,-10,17,21,12,-5,-17,-13
-16,-19,-3,17,-6,-11,19,24,16,0,-12,-9
-16,-20,-3,18,-7,-12,21,26,19,3,-10,-8
-15,-20,-3,17,-6,-12,22,26,19,2,-10,-9
-13,-18,-4,15,-5,-11,21,24,17,1,-11,-11
-10,-16,-6,13,-2,-11,18,21,15,-1,-12,-12
-7,-15,-8,12,1,-12,17,20,14,-2,-12,-12
-7,-16,-10,12,2,-14,18,22,15,-1,-12,-11
-8,-17,-10,13,1,-14,19,25,17,1,-10,-9
-9,-17,-9,13,0,-13,19,28,20,3,-8,-7
-10,-17,-7,13,-1,-12,19,29,22,4,-9,-8
-11,-16,-4,13,-3,-10,20,29,23,4,-9,-8
-11,-13,0,12,-5,-7,20,28,23,5,-8,-8
-9,-9,1,9,-6,-4,18,28,24,5,-6,-7
-8,-7,1,8,-5,-3,17,28,24,5,-6,-7
-7,-7,0,7,-4,-3,17,27,23,5,-6,-8
-9,-8,0,9,-5,-3,17,26,24,7,-5,-7
-12,-10,0,11,-6,-4,18,25,25,8,-4,-5
-12,-13,-1,13,-6,-6,19,25,25,10,-3,-3
-11,-13,-1,12,-5,-7,19,26,27,13,0,0
-10,-13,-1,11,-4,-7,19,26,28,16,3,3
-9,-12,-1,11,-4,-6,19,26,28,16,4,3
-10,-10,0,10,-5,-5,19,26,27,14,3,1
-11,-8,2,10,-6,-2,18,26,27,14,3,1
-12,-5,6,9,-8,1,17,27,29,17,5,3
-13,-2,9,8,-10,4,17,29,32,22,10,6
-13,1,14,6,-13,8,18,31,36,27,13,8
-13,4,18,4,-15,11,18,33,38,29,15,9
-13,6,20,3,-16,13,17,33,39,30,15,8
-11,8,20,1,-16,14,16,33,40,31,16,8
-10,9,19,0,-15,14,15,33,42,33,19,9
-7,10,17,-1,-12,14,14,34,43,33,19,10
-5,9,13,-2,-9,12,14,36,44,32,18,10
-7,5,10,0,-8,8,15,38,47,35,19,13
-12,0,11,5,-11,6,19,42,52,41,25,19
-16,-3,12,9,-14,4,22,46,58,48,31,24
-15,-1,14,7,-14,6,21,46,61,54,37,28
-11,4,16,3,-14,10,19,45,62,57,41,31
-9,10,20,0,-15,14,18,45,64,60,45,33
-7,14,21,-3,-14,17,18,46,66,63,50,36
-5,15,19,-5,-12,18,16,48,68,65,51,36
-3,15,18,-6,-11,18,16,52,72,68,53,37
-4,16,20,-6,-12,19,18,57,78,75,59,42
-5,18,23,-7,-13,21,20,62,85,83,65,48
-3,19,22,-8,-12,21,21,65,90,89,70,52
0,20,20,-10,-9,19,20,64,91,90,71,53
2,20,18,-11,-8,19,19,62,90,89,71,53
2,21,19,-11,-8,20,19,60,89,89,72,53
2,23,21,-12,-9,23,19,59,89,90,75,55
3,26,22,-14,-10,24,18,58,90,92,79,59
3,27,23,-15,-10,25,17,58,91,96,83,64
3,26,23,-15,-10,25,16,58,92,99,86,69
5,26,21,-16,-8,24,15,60,94,101,88,72
7,27,21,-17,-7,24,15,62,96,103,90,74
6,28,23,-17,-9,25,16,66,99,105,93,75
6,29,24,-17,-10,27,16,69,102,106,94,75
6,31,25,-18,-9,28,16,70,103,107,95,74
6,32,26,-19,-10,29,15,67,102,107,95,74
4,32,27,-18,-11,30,14,62,99,106,94,74
2,31,29,-17,-12,30,13,58,96,104,93,75
3,32,29,-18,-12,30,11,54,93,103,93,77
5,34,29,-20,-12,31,9,51,91,103,95,80
5,35,31,-20,-13,32,7,50,89,102,96,81
4,35,31,-19,-14,33,6,48,86,100,95,81
4,35,30,-19,-13,33,5,47,83,96,93,81
5,34,29,-20,-12,32,5,45,80,91,89,79
5,32,26,-19,-10,30,5,44,77,87,84,75
3,29,25,-16,-10,28,5,44,74,83,80,72
2,27,24,-15,-10,26,5,42,72,80,76,69
4,25,20,-15,-7,23,3,40,69,77,72,66
8,24,16,-16,-4,20,2,38,66,73,69,63
9,24,14,-17,-2,20,2,37,63,69,65,60
10,24,14,-17,-2,20,3,36,60,64,62,57
10,25,15,-17,-2,21,3,35,57,60,58,54
10,24,14,-17,-2,20,2,34,54,56,54,51
8,22,13,-15,-2,18,1,30,50,52,51,49
5,19,13,-12,-3,16,0,27,47,50,48,46
1,16,15,-9,-6,16,0,26,44,48,46,44
-1,15,16,-7,-9,16,1,25,41,44,41,39
-1,15,15,-7,-8,15,1,23,37,37,34,34
0,13,13,-6,-7,13,0,20,33,32,30,31
0,11,11,-5,-6,11,0,19,31,30,29,30
-1,10,10,-4,-6,10,1,19,30,31,31,31
-2,9,11,-4,-7,10,1,19,30,31,31,31
-2,9,11,-4,-7,10,1,19,27,27,26,27
0,8,8,-4,-5,8,1,17,23,22,20,22
1,6,5,-4,-2,5,1,16,21,18,16,19
0,3,4,-2,-2,4,2,16,19,15,12,16
-1,2,3,0,-3,3,2,17,18,12,9,12
0,1,1,0,-1,2,3,18,18,10,5,9
0,1,0,-1,0,1,4,19,17,8,3,7
-1,0,2,0,-2,1,4,19,17,8,3,6
-5,0,5,2,-5,3,4,17,16,8,3,7
-7,0,8,3,-8,4,5,16,15,8,3,8
-7,1,8,2,-7,5,5,15,14,7,2,7
-4,2,6,0,-5,4,5,14,12,5,0,4
-2,1,4,0,-3,3,4,12,8,0,-4,1
-3,-1,1,2,-2,0,3,8,5,-3,-7,0
-4,-5,0,4,-2,-1,3,5,2,-4,-7,2
-6,-6,0,6,-3,-2,4,5,2,-3,-4,4
-8,-5,3,6,-5,0,5,7,4,1,0,7
-9,-5,5,7,-7,0,6,9,6,3,1,8
-10,-6,5,8,-7,0,6,9,6,1,-2,4
-10,-8,3,9,-6,-2,6,9,4,-2,-7,0
-8,-9,0,9,-4,-4,6,9,4,-4,-8,-1
-7,-10,-4,9,-1,-6,6,10,4,-3,-7,0
-9,-13,-4,10,-2,-8,7,11,5,-3,-6,1
-12,-14,-3,12,-4,-8,8,12,6,-1,-5,2
-14,-15,-2,14,-6,-8,10,12,8,1,-3,2
-13,-15,-2,14,-5,-9,9,12,8,1,-5,0
-11,-15,-3,13,-4,-10,9,12,6,-2,-8,-2
-11,-14,-2,12,-4,-8,9,13,6,-3,-10,-3
-10,-11,0,11,-5,-5,9,15,7,-4,-10,-3
-7,-8,0,8,-4,-4,8,16,6,-4,-10,-2
-6,-7,-1,7,-3,-3,7,16,6,-5,-10,-2
-7,-9,-3,8,-2,-5,7,15,6,-5,-10,-3
-7,-15,-8,11,0,-11,8,14,5,-4,-10,-3
-9,-20,-11,14,0,-15,9,16,7,-2,-9,-2
-13,-23,-9,18,-3,-16,12,19,9,0,-7,0
-16,-23,-6,19,-5,-15,13,19,8,0,-7,0
-15,-21,-6,18,-5,-13,13,14,5,-2,-8,0
-13,-18,-5,16,-4,-12,11,9,2,-3,-8,1
-10,-14,-5,13,-3,-9,10,6,0,-4,-7,1
-9,-11,-3,10,-3,-7,8,6,-1,-4,-8,1
-9,-10,-2,9,-4,-5,8,7,-1,-4,-7,1
-9,-10,-1,9,-4,-5,9,8,1,-2,-6,2
-9,-11,-1,9,-4,-6,10,10,2,-1,-6,2
-10,-13,-2,11,-5,-7,10,11,3,-1,-7,1
-11,-15,-3,12,-4,-9,10,12,4,-1,-7,1
-10,-15,-4,12,-3,-9,10,14,6,0,-5,2
-8,-12,-3,10,-2,-7,10,16,8,3,-4,3
-8,-7,0,8,-3,-3,12,18,10,4,-3,2
-9,-3,4,6,-6,0,13,18,10,3,-5,0
-8,0,7,4,-8,4,13,17,8,0,-8,-1
-8,3,11,2,-9,7,12,16,7,-1,-7,0
-9,5,14,2,-12,9,11,15,7,0,-5,2
-9,3,12,3,-11,7,11,13,6,0,-4,4
-7,0,7,4,-8,3,10,12,5,0,-3,5
-7,-2,4,5,-6,1,11,11,4,0,-4,5
-9,-5,2,7,-5,-1,12,11,3,-2,-6,3
-9,-7,0,8,-4,-3,14,12,4,-2,-6,3
-8,-7,0,8,-4,-4,17,14,6,0,-3,5
-7,-4,2,6,-5,0,16,16,8,3,0,6
-6,2,8,2,-8,5,13,17,8,4,-1,4
-5,8,14,-1,-10,11,11,18,8,4,-1,3
-4,11,16,-3,-10,13,11,17,9,4,-1,4
-5,9,14,-2,-8,11,11,15,8,3,-1,5
-6,5,10,0,-7,8,10,14,7,2,-1,6
-8,2,10,2,-8,7,10,13,7,2,0,7
-10,2,11,3,-10,7,9,13,8,2,0,9
-10,3,12,3,-11,8,7,12,8,3,1,10
-8,5,13,1,-10,9,4,10,7,4,3,12
-6,7,13,0,-10,10,1,8,5,5,5,13
-4,11,14,-2,-10,13,-1,7,5,6,7,14
-3,16,19,-6,-11,17,-2,6,4,5,7,13
-4,19,22,-7,-13,21,-2,4,0,-1,-1,7
-5,18,22,-7,-13,20,-2,3,-4,-9,-9,2
-5,14,18,-4,-12,16,-1,4,-4,-10,-11,2
-6,7,14,0,-10,11,0,4,-3,-7,-8,5
-7,2,9,2,-8,6,0,3,-3,-6,-5,7
-8,-2,6,5,-7,2,1,1,-5,-8,-6,5
-10,-5,5,7,-7,0,2,0,-6,-9,-8,2
-8,-2,6,6,-6,2,1,0,-7,-10,-10,0
-6,1,6,3,-5,4,-2,-2,-10,-14,-15,-4
-7,0,7,3,-6,4,-4,-6,-14,-21,-22,-8
-10,-4,5,7,-6,1,-2,-6,-15,-24,-24,-8
-11,-12,-1,11,-5,-6,1,-6,-14,-22,-22,-5
-12,-19,-7,15,-3,-12,4,-5,-15,-21,-21,-5
-12,-20,-7,16,-3,-14,5,-5,-16,-22,-22,-6
-13,-19,-5,16,-4,-12,4,-4,-16,-23,-22,-7
-14,-18,-4,16,-4,-11,5,-2,-16,-22,-21,-7
-15,-20,-5,18,-4,-13,6,0,-15,-21,-20,-7
-16,-23,-8,19,-3,-15,7,1,-12,-18,-17,-5
-16,-23,-8,19,-3,-15,8,3,-9,-14,-13,-3
-14,-22,-8,18,-3,-15,7,3,-8,-12,-13,-2
-13,-21,-9,16,-2,-14,6,2,-10,-15,-16,-5
-11,-21,-9,16,-1,-15,4,1,-11,-18,-20,-9
-12,-21,-9,17,-2,-15,5,1,-11,-17,-20,-9
-15,-21,-6,18,-4,-13,7,2,-11,-16,-18,-7
-19,-20,-1,19,-8,-11,9,2,-10,-15,-15,-5
-20,-18,2,19,-10,-8,7,1,-11,-16,-16,-5
-20,-16,3,18,-10,-6,5,0,-14,-19,-20,-7
-18,-15,2,16,-9,-6,3,-2,-15,-21,-21,-8
-16,-16,0,16,-8,-7,3,-3,-15,-20,-21,-8
-16,-18,-2,16,-7,-10,4,-3,-15,-19,-21,-8
-15,-20,-6,17,-4,-13,6,-2,-15,-20,-21,-9
-14,-21,-7,17,-3,-14,8,-1,-15,-19,-19,-7
-16,-20,-4,18,-5,-12,8,-1,-13,-17,-16,-5
-17,-18,-1,17,-7,-10,6,-1,-13,-16,-15,-3
-16,-17,-2,16,-6,-9,5,-1,-13,-17,-16,-4
-15,-17,-4,16,-4,-10,5,0,-12,-18,-18,-5
-14,-19,-6,16,-3,-12,8,5,-7,-14,-17,-5
-13,-20,-8,16,-3,-13,12,14,1,-6,-12,-2
-12,-21,-9,16,-2,-14,16,25,13,3,-6,0
-11,-20,-9,15,-1,-14,20,39,28,16,1,4
-8,-17,-9,12,0,-13,25,56,47,33,14,12
-4,-14,-11,9,4,-13,31,75,70,55,33,25
1,-12,-14,4,9,-13,39,100,100,84,57,43
6,-7,-14,0,11,-11,47,122,127,113,83,64
8,-2,-11,-3,9,-6,51,131,143,135,108,84
8,3,-5,-6,6,0,51,126,145,148,128,102
9,8,-2,-9,5,3,47,110,135,153,143,117
13,13,0,-13,6,7,38,83,115,149,153,129
17,24,6,-21,5,15,23,47,88,142,165,144
21,39,17,-30,2,27,4,2,55,135,180,163
26,56,29,-41,-1,42,-22,-50,15,124,193,183
33,75,41,-55,-3,58,-55,-104,-29,107,202,200
42,97,53,-70,-4,76,-90,-155,-72,88,206,213
52,119,66,-85,-6,93,-124,-201,-111,69,206,223
62,141,78,-101,-8,111,-159,-244,-149,47,199,226
71,161,91,-116,-11,127,-192,-281,-182,21,183,220
75,174,99,-124,-12,136,-218,-305,-209,-8,155,203
74,172,98,-123,-12,134,-230,-315,-231,-45,112,171
68,158,90,-113,-10,123,-232,-316,-249,-90,52,123
55,141,85,-99,-14,113,-226,-312,-266,-140,-13,68
37,125,88,-81,-25,107,-211,-300,-273,-180,-70,18
19,109,89,-64,-35,100,-189,-278,-265,-198,-104,-16
7,91,84,-49,-39,89,-166,-247,-244,-196,-118,-36
0,75,74,-38,-37,75,-144,-214,-218,-186,-123,-49
-2,59,61,-28,-32,60,-123,-182,-192,-174,-124,-57
-6,43,49,-19,-27,46,-101,-151,-166,-158,-119,-58
-12,28,40,-8,-26,34,-80,-122,-138,-136,-106,-53
-18,17,35,0,-25,26,-60,-94,-110,-111,-91,-47
-20,12,32,3,-25,22,-44,-70,-84,-88,-75,-40
-20,9,30,5,-24,20,-32,-50,-63,-68,-60,-33
-20,5,25,7,-22,15,-22,-34,-46,-53,-49,-27
-18,0,18,9,-18,9,-14,-22,-35,-43,-42,-24
-17,-6,10,11,-14,2,-9,-13,-27,-36,-37,-22
-15,-11,3,13,-9,-4,-4,-7,-21,-32,-35,-20
-15,-17,-3,15,-5,-11,0,-2,-18,-31,-34,-18
-13,-21,-8,16,-2,-15,3,0,-16,-30,-34,-16
-12,-20,-8,15,-1,-14,6,2,-13,-28,-32,-14
-13,-18,-4,15,-4,-10,8,5,-9,-23,-28,-12
-15,-17,-1,16,-7,-8,10,9,-4,-17,-23,-11
-17,-16,1,17,-9,-6,12,14,-1,-15,-23,-13
-17,-15,2,16,-9,-6,12,18,1,-14,-24,-15
-16,-15,0,15,-8,-7,11,19,1,-15,-26,-16
-18,-18,-1,17,-8,-9,11,17,0,-18,-28,-17
-20,-24,-4,21,-8,-14,12,15,0,-17,-27,-14
-20,-29,-9,24,-5,-19,13,13,0,-15,-22,-10
-19,-30,-11,24,-3,-21,12,10,-1,-14,-20,-7
-18,-27,-9,22,-4,-18,10,6,-3,-14,-19,-6
-17,-23,-6,20,-5,-14,8,4,-4,-14,-19,-6
-15,-21,-6,18,-5,-13,8,5,-5,-15,-20,-7
-14,-20,-6,17,-4,-13,9,7,-4,-15,-21,-7
-15,-19,-5,16,-5,-12,9,8,-3,-15,-21,-7
-15,-19,-4,16,-5,-12,10,10,-1,-13,-20,-5
-15,-20,-5,17,-4,-13,11,13,1,-10,-17,-4
-14,-20,-6,17,-3,-13,12,15,5,-6,-14,-2
-14,-19,-5,17,-4,-12,11,16,7,-3,-11,-1
-15,-18,-3,17,-6,-10,11,16,8,-2,-10,0
-16,-17,-2,17,-7,-9,12,18,9,-1,-9,0
-17,-19,-2,18,-7,-11,14,20,10,-2,-10,0
-17,-20,-4,18,-6,-12,15,22,11,-2,-10,0
-14,-18,-5,15,-4,-12,13,22,12,0,-8,1
-9,-15,-6,11,-1,-12,10,21,12,0,-8,0
-9,-16,-6,11,-1,-11,9,21,12,-3,-11,-3
-12,-18,-5,14,-3,-11,11,23,14,-3,-13,-4
-13,-19,-6,16,-3,-12,12,26,17,-1,-13,-4
-10,-18,-8,14,-1,-12,13,28,19,1,-11,-2
-8,-16,-8,13,-1,-11,15,30,22,6,-6,1
-10,-13,-3,12,-4,-8,16,30,24,10,-2,5
-13,-10,2,12,-8,-4,16,29,23,11,0,6
-14,-7,7,11,-11,0,15,29,22,10,0,6
-15,-6,9,10,-11,1,13,28,22,9,0,7
-14,-6,9,10,-11,1,11,26,21,10,2,8
-13,-6,7,10,-10,0,11,24,22,14,6,11
-11,-5,5,9,-8,0,12,22,23,18,11,14
-9,0,8,5,-8,4,12,22,23,20,13,15
-8,6,13,2,-11,9,9,21,23,18,11,14
-10,7,17,2,-13,11,7,23,22,16,8,13
-12,3,15,4,-13,8,9,28,25,17,8,14
-11,-4,8,7,-9,1,12,35,31,20,10,15
-10,-9,1,9,-5,-4,15,43,37,25,14,17
-7,-9,-1,8,-2,-5,17,48,42,29,17,18
-5,-5,-1,5,-2,-2,16,48,44,31,18,18
-4,-2,1,3,-3,0,14,44,44,32,19,19
-5,-1,2,4,-4,0,13,39,43,34,22,23
-5,0,4,3,-4,1,12,34,43,40,29,29
-4,4,8,0,-5,5,11,32,44,44,34,33
-3,10,13,-4,-7,11,10,32,45,44,33,33
-2,14,16,-6,-9,15,9,33,46,43,32,33
-1,15,16,-7,-9,16,8,36,49,46,35,36
0,16,15,-8,-7,16,8,39,54,51,40,41
2,17,14,-9,-6,16,8,42,58,55,45,44
0,16,15,-8,-7,16,9,45,62,61,50,47
-2,16,17,-7,-9,17,11,49,67,67,55,50
-2,17,18,-7,-10,17,12,52,71,72,60,53
-2,18,20,-9,-11,19,14,55,76,78,66,57
0,23,23,-12,-11,23,14,57,81,86,75,64
2,31,28,-18,-12,29,12,57,84,92,81,68
3,38,34,-21,-15,36,9,56,85,92,82,69
2,40,37,-22,-17,39,7,55,84,91,80,67
5,39,33,-22,-14,36,6,55,84,91,79,67
7,35,27,-22,-10,31,6,56,85,93,82,70
9,34,25,-22,-8,29,8,58,88,97,87,75
10,36,26,-24,-8,30,8,61,91,102,93,79
12,40,28,-27,-8,34,7,63,93,103,95,80
14,45,31,-30,-8,38,5,63,92,102,93,79
14,48,33,-31,-9,41,5,62,92,101,91,78
13,48,33,-30,-10,41,5,60,91,100,91,79
14,47,31,-30,-9,40,5,57,90,101,92,80
14,47,32,-30,-9,40,5,55,89,102,95,84
12,48,35,-30,-11,41,5,53,88,103,97,87
12,50,38,-30,-13,43,4,52,86,102,97,88
13,52,39,-33,-13,45,1,50,84,101,97,88
16,55,38,-36,-11,46,-2,47,80,98,95,86
16,57,40,-37,-12,49,-4,45,78,96,93,84
13,58,43,-36,-14,50,-4,45,77,96,94,84
12,56,43,-34,-15,49,-4,45,76,95,93,83
12,54,41,-33,-15,48,-5,44,73,90,88,79
12,52,39,-33,-13,45,-6,42,69,83,81,74
13,49,35,-32,-11,42,-6,40,64,78,75,71
13,45,32,-29,-9,38,-5,39,61,74,73,70
10,41,31,-26,-10,36,-4,38,59,72,71,69
8,41,32,-25,-11,36,-5,36,56,69,67,66
9,42,32,-26,-11,37,-8,33,52,64,62,63
10,44,32,-27,-11,38,-10,31,50,61,59,60
12,45,32,-28,-10,39,-10,29,48,60,57,57
12,45,32,-28,-10,39,-12,27,45,56,54,54
10,43,32,-27,-12,38,-12,25,42,51,49,50
8,39,31,-24,-12,36,-11,24,39,46,44,47
7,34,27,-21,-10,31,-10,23,36,42,41,46
6,31,24,-19,-9,28,-10,22,33,39,39,43
7,30,23,-19,-8,27,-10,21,30,35,34,38
7,29,21,-18,-7,25,-9,21,27,30,29,33
4,27,21,-15,-9,24,-7,23,27,28,27,32
2,24,22,-13,-10,23,-6,25,27,26,25,30
1,22,21,-11,-10,22,-6,27,26,25,23,27
-1,20,21,-9,-11,21,-5,28,26,23,21,24
-5,17,22,-6,-13,20,-2,29,26,22,19,21
-8,14,21,-4,-14,17,-1,27,25,20,15,20
-8,11,17,-2,-12,14,-2,22,21,16,10,19
-9,9,15,-1,-12,12,-3,17,17,12,7,18
-8,7,13,0,-11,10,-4,12,12,7,4,16
-6,5,10,0,-8,8,-5,9,9,4,2,14
-4,5,10,0,-7,8,-5,9,8,4,4,16
-4,6,11,-1,-8,9,-5,10,7,5,5,17
-4,7,12,-1,-8,10,-6,11,6,2,2,15
-5,7,13,-1,-9,10,-6,11,4,0,-1,12
-6,8,13,-1,-10,11,-7,11,3,-2,-3,10
-5,8,13,-1,-9,10,-8,12,3,-2,-5,8
-6,7,13,0,-10,10,-7,13,5,-3,-6,7
-7,6,13,0,-10,9,-6,14,6,-3,-6,6
-8,4,12,2,-10,7,-5,14,6,-4,-7,6
-10,0,10,4,-10,5,-5,14,5,-4,-8,5
-10,-3,7,7,-9,2,-4,14,4,-5,-8,4
-10,-6,4,8,-7,-1,-4,14,3,-5,-9,4
-10,-7,2,8,-6,-3,-4,13,2,-5,-9,3
-9,-7,1,8,-5,-3,-4,13,2,-6,-10,2
-10,-7,2,8,-5,-3,-4,13,1,-6,-10,2
-12,-7,4,9,-8,-1,-3,13,2,-6,-10,2
-13,-6,6,9,-9,0,-1,15,3,-6,-10,2
-10,-5,5,8,-8,0,-1,16,3,-6,-10,1
-9,-5,4,8,-8,0,-1,17,3,-6,-11,0
-11,-6,5,9,-9,0,-1,17,3,-6,-11,0
-15,-6,8,10,-11,1,-1,17,3,-5,-10,1
-17,-6,10,11,-13,1,0,17,2,-5,-9,2
-16,-6,8,11,-12,1,0,17,1,-6,-9,3
-13,-6,6,9,-10,0,1,17,1,-6,-10,2
-11,-6,5,8,-8,0,0,16,0,-6,-11,0
-10,-5,5,7,-7,0,-1,15,0,-6,-11,-1
-8,-2,6,5,-7,1,-1,15,0,-4,-10,-1
-5,0,6,3,-5,2,-1,16,1,-4,-10,-1
-6,0,5,3,-5,2,-2,17,1,-4,-10,-2
-9,-1,8,5,-8,3,-2,17,1,-4,-10,-2
-11,0,9,6,-10,4,-2,15,0,-4,-9,-2
-10,0,9,5,-10,4,-3,13,0,-5,-9,-1
-9,0,9,4,-9,4,-3,12,-1,-5,-8,-1
-9,0,8,4,-9,4,-3,11,-2,-6,-8,-2
-8,0,8,4,-8,4,-4,10,-3,-6,-9,-3
-7,0,7,3,-7,4,-4,11,-3,-7,-9,-3
-7,0,7,3,-7,4,-3,12,-3,-7,-9,-3
-7,1,7,3,-7,4,-2,14,-3,-7,-10,-3
-7,1,8,2,-7,4,-1,15,-2,-7,-10,-3
-7,2,9,2,-8,5,0,16,-1,-7,-10,-3
-7,3,10,1,-8,6,1,18,1,-5,-10,-3
-5,4,10,0,-8,7,2,19,2,-4,-9,-3
-3,6,10,-1,-7,8,2,19,3,-4,-9,-3
-3,8,11,-2,-7,9,3,20,3,-3,-9,-3
-5,8,13,-2,-9,11,3,21,3,-3,-9,-2
-7,9,16,-1,-12,12,4,22,4,-3,-9,-2
-8,9,17,-1,-13,13,5,24,5,-2,-8,-1
-8,10,17,-1,-13,13,7,26,6,-1,-8,-2
-6,9,16,-2,-11,12,8,26,5,-2,-9,-3
-4,7,13,-1,-9,10,7,24,4,-4,-10,-3
-4,5,10,0,-7,8,7,23,3,-4,-9,-2
-6,2,9,2,-7,6,7,22,4,-3,-7,-1
-7,0,7,3,-7,4,6,22,4,-1,-5,0
-5,0,5,2,-5,3,5,21,5,0,-4,1
-3,2,4,0,-3,3,4,21,5,0,-4,1
-1,4,5,-2,-3,4,2,21,6,1,-3,1
0,6,5,-3,-2,5,0,20,6,1,-3,1
0,6,6,-3,-3,6,-2,20,5,0,-4,1
0,7,6,-3,-3,6,-3,19,4,-2,-6,0
0,7,7,-3,-3,7,-4,17,2,-4,-8,-2
-1,7,8,-3,-5,8,-5,15,0,-6,-10,-4
-2,8,10,-3,-6,9,-6,13,-2,-8,-11,-5
-2,10,12,-4,-7,10,-7,11,-3,-9,-11,-5
-2,11,13,-4,-8,11,-7,10,-4,-10,-12,-6
-3,11,13,-4,-9,12,-7,10,-6,-11,-14,-7
-3,10,13,-3,-8,11,-7,10,-7,-13,-16,-8
-3,9,12,-3,-8,10,-7,9,-8,-15,-18,-10
-2,8,10,-3,-6,9,-8,7,-9,-16,-19,-11
-2,6,7,-2,-4,6,-7,6,-10,-17,-19,-12
-3,1,4,0,-3,2,-6,5,-11,-17,-19,-13
-5,-3,1,4,-3,-1,-5,5,-12,-18,-21,-15
-7,-8,0,7,-4,-4,-3,6,-13,-19,-22,-17
-9,-11,-1,10,-4,-6,-1,7,-13,-19,-23,-18
-10,-14,-2,12,-4,-8,1,8,-13,-20,-24,-19
-9,-16,-5,12,-2,-10,2,8,-13,-22,-25,-20
-8,-17,-8,12,0,-13,3,9,-13,-22,-26,-21
-8,-18,-10,13,1,-14,5,11,-12,-21,-25,-21
-8,-18,-10,13,0,-14,7,14,-10,-20,-24,-20
-8,-19,-11,13,0,-15,8,14,-10,-19,-24,-20
-11,-21,-10,16,-1,-15,8,12,-10,-20,-24,-19
-14,-22,-8,18,-3,-15,8,10,-11,-20,-24,-19
-15,-23,-8,19,-3,-16,9,9,-12,-22,-25,-20
-15,-24,-9,19,-2,-17,9,8,-13,-23,-26,-20
-14,-24,-10,19,-1,-17,9,8,-14,-23,-26,-19
-14,-24,-10,19,-1,-17,8,9,-14,-23,-25,-18
-13,-24,-11,19,0,-17,8,8,-14,-24,-25,-18
-10,-25,-15,17,2,-19,6,6,-16,-25,-27,-20
-8,-25,-18,16,5,-21,6,5,-16,-25,-28,-22
-7,-25,-18,16,5,-22,6,6,-15,-25,-28,-23
-7,-25,-17,16,4,-21,7,8,-14,-23,-27,-23
-7,-24,-16,15,4,-20,7,9,-12,-22,-26,-22
-7,-23,-16,15,4,-19,8,10,-11,-21,-26,-22
-7,-23,-16,14,5,-19,8,9,-11,-22,-26,-22
-7,-22,-15,15,4,-18,8,8,-11,-22,-26,-22
-7,-23,-16,15,4,-19,8,8,-12,-23,-26,-22
-7,-24,-18,15,5,-20,8,8,-12,-22,-25,-22
-8,-25,-18,16,5,-21,9,9,-10,-21,-24,-21
-8,-25,-18,16,5,-22,10,11,-8,-19,-23,-21
-8,-26,-18,16,5,-22,12,16,-4,-16,-22,-21
-8,-26,-18,17,5,-22,16,23,3,-13,-21,-22
-9,-27,-17,18,4,-22,20,33,13,-6,-18,-21
-9,-26,-17,18,3,-21,26,45,26,4,-11,-16
-7,-24,-17,16,4,-21,33,60,44,19,0,-9
-4,-22,-18,13,6,-20,40,79,65,38,14,1
0,-18,-18,9,8,-18,49,104,92,64,34,16
5,-13,-18,4,11,-16,58,128,121,93,59,34
10,-8,-18,0,13,-13,63,140,140,117,83,53
12,-3,-15,-3,13,-9,63,134,144,131,103,70
13,2,-11,-7,12,-4,58,116,137,139,120,87
14,9,-4,-11,10,2,50,92,122,142,137,105
14,20,4,-17,6,12,37,61,101,142,154,123
18,33,14,-25,2,24,19,22,73,140,170,142
25,49,23,-37,1,36,-9,-26,38,134,186,161
37,66,29,-52,4,48,-44,-81,-2,125,200,180
51,85,33,-68,9,59,-82,-135,-43,112,210,196
65,103,38,-84,13,71,-118,-183,-81,97,215,209
76,121,45,-98,15,83,-153,-224,-116,78,212,216
84,138,53,-111,15,96,-186,-258,-147,57,202,217
93,150,57,-122,18,104,-213,-280,-169,36,184,210
99,149,49,-124,26,99,-228,-288,-186,10,155,191
100,133,32,-117,34,83,-233,-287,-202,-27,108,154
92,111,19,-102,36,65,-229,-284,-221,-76,46,105
77,93,17,-85,30,55,-217,-279,-240,-128,-17,53
59,80,21,-70,18,51,-199,-265,-246,-165,-68,9
42,66,24,-54,8,46,-174,-240,-236,-180,-97,-21
28,51,22,-40,2,37,-148,-208,-214,-177,-109,-40
17,36,18,-27,0,28,-122,-174,-187,-166,-112,-51
9,24,14,-16,-2,19,-100,-143,-161,-150,-109,-56
4,13,9,-8,-2,11,-81,-116,-136,-133,-103,-58
0,4,4,-2,-1,4,-64,-90,-113,-116,-95,-59
-2,-3,-1,2,0,-2,-48,-66,-90,-97,-84,-57
-4,-10,-6,7,1,-8,-33,-45,-69,-80,-73,-53
-5,-17,-12,11,3,-14,-21,-28,-52,-65,-63,-48
-6,-22,-17,15,5,-19,-11,-14,-38,-54,-54,-43
-7,-27,-21,17,7,-24,-3,-4,-28,-46,-48,-40
-7,-30,-24,18,9,-27,2,3,-21,-41,-45,-38
-8,-32,-24,20,9,-28,6,8,-16,-37,-43,-37
-9,-34,-24,21,8,-29,8,11,-13,-34,-41,-37
-8,-35,-26,21,9,-31,10,12,-11,-32,-40,-37
-6,-35,-29,20,11,-32,11,14,-10,-30,-40,-37
-6,-36,-30,21,11,-33,12,17,-7,-29,-39,-37
-8,-37,-29,23,10,-33,14,20,-4,-27,-38,-37
-11,-38,-27,24,8,-32,16,22,-2,-26,-37,-36
-12,-39,-27,25,7,-32,17,24,-1,-25,-36,-36
-13,-40,-27,26,7,-33,18,26,0,-24,-36,-36
-13,-40,-27,26,7,-33,18,26,0,-24,-36,-36
-14,-41,-27,27,6,-34,17,25,0,-24,-37,-36
-13,-41,-28,27,7,-34,16,21,-2,-25,-37,-36
-10,-41,-30,26,10,-35,15,19,-3,-25,-38,-36
-8,-41,-32,25,12,-36,16,18,-3,-25,-38,-36
-8,-41,-32,25,12,-36,18,19,-2,-25,-37,-34
-8,-40,-32,25,12,-36,19,21,-1,-24,-35,-33
-9,-39,-31,24,11,-35,20,23,0,-23,-33,-32
-11,-38,-27,25,8,-33,21,25,2,-20,-30,-30
-13,-38,-24,26,5,-31,21,26,4,-18,-28,-29
-13,-37,-23,25,5,-30,22,27,5,-17,-27,-29
-12,-36,-24,24,5,-30,22,27,6,-15,-26,-28
-11,-36,-24,23,6,-30,22,28,7,-14,-26,-28
-12,-36,-24,24,5,-30,22,28,9,-14,-26,-28
-12,-36,-24,24,6,-30,22,29,10,-13,-25,-28
-8,-34,-27,21,9,-30,22,29,10,-13,-25,-28
-5,-33,-28,19,11,-30,22,29,11,-12,-24,-28
-6,-33,-27,19,10,-30,22,30,12,-11,-22,-28
-6,-32,-26,19,10,-29,22,31,13,-10,-21,-27
-5,-32,-26,19,10,-29,22,31,14,-9,-20,-26
-6,-31,-25,19,9,-28,22,31,15,-7,-19,-25
-9,-31,-22,20,7,-27,24,32,16,-5,-18,-24
-10,-31,-21,21,6,-26,25,33,17,-4,-17,-23
-10,-31,-22,21,6,-26,26,33,18,-4,-16,-23
-9,-31,-22,21,7,-26,26,33,19,-3,-16,-22
-8,-31,-22,20,7,-26,27,33,20,-2,-15,-20
-6,-30,-22,18,8,-26,28,34,21,0,-13,-19
-5,-29,-23,17,9,-26,28,34,22,1,-13,-19
-4,-28,-23,16,9,-26,28,34,22,2,-12,-18
-2,-27,-24,14,11,-26,27,35,23,3,-11,-18
-1,-26,-25,13,12,-25,26,35,24,5,-10,-16
-1,-25,-24,13,11,-25,25,36,26,7,-7,-15
-2,-25,-23,14,10,-24,24,36,27,9,-5,-13
-2,-24,-22,13,9,-22,24,37,29,11,-3,-12
-2,-22,-20,12,8,-21,24,39,31,13,-1,-11
-2,-21,-18,12,7,-20,24,40,33,15,0,-9
-1,-20,-18,10,8,-19,22,40,34,17,1,-8
1,-19,-19,8,10,-19,21,41,36,19,2,-8
1,-17,-18,7,10,-17,22,43,39,21,4,-7
0,-15,-15,7,8,-15,23,45,42,23,7,-5
-1,-13,-12,6,6,-12,24,45,44,27,10,-2
-2,-11,-10,6,4,-10,25,45,46,30,14,0
-2,-11,-9,6,3,-10,25,46,48,33,18,3
-1,-10,-9,6,3,-10,25,47,50,36,21,7
0,-10,-10,5,4,-10,24,48,53,40,25,10
1,-9,-10,5,5,-9,24,50,56,44,29,13
1,-8,-9,4,5,-8,24,53,61,49,33,15
1,-6,-7,3,4,-6,26,56,65,53,37,17
2,-4,-6,1,4,-5,26,57,69,58,41,20
3,-2,-5,0,4,-3,26,58,72,62,45,24
3,0,-3,-1,3,-1,25,58,74,66,50,29
2,2,0,-2,1,1,25,60,77,70,55,33
2,5,3,-3,0,4,26,61,80,74,59,37
2,8,6,-5,-1,7,26,62,82,78,63,40
2,9,7,-6,-1,8,25,62,84,80,66,42
4,11,6,-8,0,9,25,61,85,82,68,44
7,13,5,-10,1,9,24,61,86,84,71,45
9,15,5,-12,2,10,24,62,87,86,73,46
10,17,6,-13,1,12,24,62,87,87,75,47
10,18,7,-14,0,13,24,61,88,88,76,49
10,19,9,-15,0,14,24,61,88,89,77,51
10,21,10,-15,0,15,23,61,88,90,78,52
11,22,11,-16,0,17,23,60,88,91,79,53
13,24,11,-18,1,18,23,59,88,91,79,53
14,26,11,-20,1,19,23,58,87,91,80,54
15,26,11,-20,2,19,22,57,86,91,80,54
15,26,11,-21,2,19,22,56,85,90,80,53
15,26,11,-21,2,19,21,55,84,89,79,53
15,26,11,-21,2,19,21,54,82,88,78,52
16,26,9,-21,3,18,20,52,79,85,76,52
17,26,8,-21,5,17,18,50,76,82,73,50
17,25,7,-21,5,16,17,48,73,78,70,49
16,24,7,-20,5,16,17,46,71,75,68,47
15,23,7,-19,4,15,16,45,68,73,65,44
15,23,7,-19,4,15,16,45,66,70,63,42
14,22,7,-18,3,15,16,43,64,66,59,39
14,20,6,-17,3,14,15,41,60,62,55,37
14,19,5,-16,4,12,14,37,55,57,51,35
13,17,4,-15,4,11,14,34,51,52,46,32
10,14,4,-12,3,9,13,32,48,48,42,30
8,12,3,-10,3,8,12,31,45,43,38,27
9,10,0,-9,4,6,11,30,41,39,34,23
8,9,0,-8,4,4,11,28,38,36,31,19
7,7,0,-7,3,4,11,27,36,33,28,17
7,6,-1,-6,4,2,11,25,32,29,25,14
7,4,-3,-5,5,0,10,23,28,25,21,11
6,2,-4,-3,5,-1,10,22,25,21,17,9
5,0,-5,-1,4,-2,10,21,23,18,14,6
4,-1,-6,-1,5,-3,11,21,22,16,11,4
4,-3,-8,0,6,-4,11,20,20,13,8,1
3,-4,-9,0,6,-6,12,19,19,11,6,-2
2,-6,-10,2,6,-7,12,19,17,8,4,-4
1,-7,-10,3,5,-8,12,18,15,6,1,-6
1,-8,-10,3,6,-9,12,17,13,3,-1,-8
2,-9,-12,3,7,-11,12,16,10,0,-5,-10
3,-10,-14,3,9,-12,12,15,8,-3,-8,-12
3,-12,-15,4,9,-13,12,14,7,-5,-11,-14
1,-13,-14,6,7,-13,13,15,7,-6,-12,-15
-1,-13,-12,7,6,-12,14,16,7,-7,-13,-16
-2,-13,-12,7,5,-13,14,15,6,-8,-13,-17
-2,-15,-14,8,6,-14,13,13,4,-10,-15,-18
-2,-18,-16,9,7,-17,11,10,1,-12,-17,-19
-1,-20,-18,10,8,-19,11,9,0,-14,-19,-20
0,-20,-20,10,9,-20,11,9,-1,-15,-20,-21
0,-20,-20,10,10,-20,11,9,-2,-16,-21,-23
-1,-22,-21,11,10,-21,11,9,-3,-18,-22,-25
-1,-23,-22,12,11,-22,11,9,-4,-19,-24,-27
0,-23,-23,11,12,-23,12,10,-3,-19,-24,-27
1,-23,-24,11,13,-23,12,11,-3,-19,-25,-28
0,-24,-23,12,12,-24,12,12,-3,-19,-25,-29
-2,-25,-23,13,11,-24,12,12,-4,-20,-27,-30
-3,-26,-23,14,10,-24,13,11,-4,-21,-28,-30
-3,-26,-23,14,10,-24,13,11,-4,-22,-29,-31
-3,-26,-22,14,10,-24,14,12,-4,-22,-28,-30
-5,-26,-22,15,9,-24,14,12,-4,-22,-28,-30
-4,-27,-23,16,9,-25,14,11,-5,-22,-28,-31
-2,-27,-25,15,11,-26,14,10,-6,-23,-29,-32
-1,-27,-26,14,12,-26,15,10,-6,-22,-28,-33
-2,-27,-25,15,12,-26,16,12,-5,-21,-28,-33
-3,-28,-24,15,11,-26,17,13,-5,-21,-28,-32
-4,-28,-25,16,11,-26,16,13,-5,-21,-28,-32
-5,-29,-24,17,10,-26,17,12,-5,-21,-29,-32
-7,-29,-23,18,8,-26,18,12,-5,-21,-28,-31
-7,-30,-23,18,8,-26,18,11,-6,-21,-29,-32
-6,-31,-25,18,10,-28,16,10,-7,-21,-29,-33
-4,-31,-28,17,12,-30,14,10,-7,-21,-30,-34
-2,-31,-30,16,14,-30,14,10,-7,-21,-29,-34
-3,-30,-28,16,13,-29,15,11,-6,-20,-28,-34
-5,-30,-25,17,10,-27,15,12,-6,-20,-28,-34
-7,-30,-23,17,8,-26,15,11,-6,-21,-28,-35
-6,-30,-24,17,9,-27,14,10,-7,-22,-29,-35
-6,-30,-24,17,9,-27,14,10,-7,-21,-29,-34
-5,-28,-23,17,8,-26,14,11,-6,-20,-28,-33
-4,-26,-22,16,9,-24,15,11,-5,-19,-27,-32
-3,-25,-22,14,9,-23,15,12,-4,-19,-26,-31
-2,-24,-22,13,10,-23,15,13,-4,-18,-26,-31
-1,-22,-21,12,10,-21,15,14,-3,-18,-25,-31
-1,-21,-20,10,10,-20,15,15,-3,-18,-25,-30
0,-20,-20,9,10,-20,14,14,-3,-18,-25,-30
0,-20,-20,9,10,-20,13,14,-3,-18,-25,-31
0,-20,-20,10,9,-20,13,14,-3,-18,-25,-31
-1,-20,-19,11,8,-19,14,14,-2,-17,-25,-31
-1,-20,-19,11,9,-20,15,14,-2,-17,-24,-31
0,-20,-21,11,10,-21,16,15,-2,-17,-24,-31
0,-21,-21,11,11,-21,17,17,-1,-17,-25,-31
0,-21,-21,11,10,-21,18,18,0,-17,-25,-30
0,-22,-21,11,10,-21,19,19,0,-16,-25,-29
1,-21,-22,10,11,-22,19,19,0,-16,-24,-29
1,-21,-22,10,11,-22,20,18,1,-15,-24,-28
0,-20,-21,10,10,-21,20,18,2,-14,-22,-26
0,-19,-19,9,9,-19,20,18,3,-12,-20,-23
-1,-17,-16,8,8,-16,19,17,3,-11,-18,-21
-2,-16,-13,8,6,-14,17,16,3,-11,-16,-19
-2,-14,-12,8,6,-13,15,15,2,-11,-15,-18
0,-12,-12,5,6,-12,12,13,0,-12,-16,-18
2,-10,-12,3,7,-11,9,10,-2,-14,-18,-20
5,-8,-13,1,8,-10,7,7,-5,-16,-20,-22
5,-6,-12,0,8,-9,6,5,-7,-18,-22,-24
4,-6,-9,0,6,-8,6,4,-8,-19,-23,-25
1,-6,-8,2,5,-7,6,3,-9,-21,-24,-27
0,-9,-9,4,5,-9,6,0,-12,-24,-27,-29
0,-11,-11,5,6,-11,5,-2,-16,-27,-29,-31
0,-14,-14,7,7,-13,4,-4,-18,-29,-31,-33
-1,-17,-15,8,7,-16,5,-5,-19,-30,-32,-34
-3,-19,-17,10,7,-18,5,-4,-19,-30,-33,-35
-3,-21,-18,12,7,-20,6,-3,-18,-30,-33,-35
-3,-23,-20,13,8,-22,7,-2,-18,-31,-34,-35
-3,-25,-22,14,10,-24,8,-2,-19,-32,-35,-37
-4,-27,-24,15,11,-25,9,-1,-19,-32,-37,-38
-5,-29,-25,16,11,-26,10,-1,-19,-32,-38,-38
-6,-30,-25,17,10,-27,11,-1,-19,-32,-38,-39
-7,-32,-25,19,9,-28,12,0,-19,-32,-38,-39
-6,-32,-26,19,10,-29,13,0,-19,-33,-38,-40
-5,-32,-27,18,11,-30,13,0,-19,-33,-38,-40
-4,-32,-27,18,11,-30,13,0,-19,-33,-38,-40
-5,-33,-27,18,11,-30,14,0,-20,-34,-38,-40
-5,-33,-27,18,11,-30,15,0,-20,-34,-38,-40
-6,-33,-27,19,11,-30,15,0,-19,-34,-38,-40
-6,-34,-27,19,11,-31,14,0,-20,-35,-39,-40
-5,-34,-29,19,12,-32,13,-1,-21,-36,-40,-41
-4,-35,-31,19,13,-33,12,-1,-21,-36,-41,-42
-4,-35,-31,20,13,-33,13,0,-21,-36,-41,-42
-5,-35,-30,20,12,-33,13,0,-20,-35,-41,-42
-6,-36,-29,21,12,-33,13,1,-20,-35,-40,-42
-7,-36,-28,21,11,-32,14,1,-19,-34,-40,-42
-8,-35,-27,21,10,-30,15,2,-18,-33,-39,-41
-8,-34,-26,21,9,-30,15,2,-18,-32,-38,-40
-8,-35,-26,22,9,-30,15,2,-18,-33,-38,-40
-8,-35,-27,22,9,-31,15,0,-18,-33,-38,-39
-8,-36,-28,22,10,-32,14,0,-19,-33,-38,-39
-6,-36,-30,21,11,-33,13,-1,-19,-33,-39,-39
-6,-37,-31,21,12,-34,13,-1,-20,-34,-40,-39
-7,-37,-30,22,11,-34,13,0,-20,-33,-39,-39
-8,-37,-29,22,10,-34,14,1,-19,-32,-38,-39
-8,-37,-28,22,10,-33,16,4,-15,-29,-37,-39
-8,-36,-27,21,10,-32,19,10,-9,-25,-34,-38
-8,-35,-26,21,9,-31,23,19,-1,-18,-31,-38
-8,-34,-26,21,9,-30,27,30,11,-9,-26,-36
-6,-34,-27,20,10,-30,32,45,27,3,-18,-32
-3,-32,-28,17,12,-30,38,64,47,19,-7,-25
0,-28,-29,13,14,-28,46,87,71,41,9,-13
5,-23,-28,9,17,-26,54,108,97,66,30,1
9,-18,-27,4,18,-23,59,118,115,88,51,18
11,-13,-24,1,17,-18,59,112,119,102,69,34
11,-7,-18,-2,15,-12,55,95,112,109,86,52
11,1,-10,-6,11,-4,47,71,98,113,103,70
13,11,-2,-12,8,4,34,39,77,113,119,88
17,23,5,-20,7,14,15,0,49,111,136,107
24,36,12,-31,7,24,-10,-45,17,108,154,129
34,50,16,-43,9,33,-41,-95,-20,101,171,151
47,64,18,-56,14,41,-75,-145,-59,90,183,169
60,79,19,-70,20,49,-109,-192,-97,75,188,183
74,93,20,-84,27,56,-141,-232,-132,56,185,189
84,107,23,-96,30,65,-171,-265,-162,35,174,188
91,119,27,-105,32,73,-193,-285,-184,13,156,179
96,119,23,-108,37,71,-205,-291,-198,-11,128,160
98,106,7,-103,45,57,-209,-291,-213,-45,83,125
94,86,-8,-91,51,39,-207,-290,-233,-93,23,77
83,68,-14,-76,48,27,-199,-289,-254,-147,-40,25
65,56,-8,-61,36,23,-183,-279,-265,-188,-92,-18
44,45,1,-45,21,23,-160,-257,-257,-205,-122,-48
28,32,6,-30,10,19,-136,-226,-236,-202,-134,-66
16,20,5,-18,5,13,-113,-192,-209,-189,-135,-76
7,10,3,-8,2,7,-92,-161,-181,-171,-130,-80
2,1,0,-2,1,1,-73,-133,-154,-152,-122,-81
-1,-6,-5,3,2,-5,-58,-107,-130,-134,-113,-80
-4,-13,-9,7,2,-10,-43,-83,-106,-114,-102,-77
-7,-18,-11,12,2,-15,-29,-61,-84,-95,-90,-71
-8,-23,-15,15,3,-19,-17,-41,-65,-79,-78,-65
-8,-28,-19,18,5,-23,-6,-26,-49,-66,-68,-60
-9,-31,-22,20,6,-27,1,-14,-38,-56,-61,-56
-9,-33,-24,21,7,-29,7,-5,-30,-49,-56,-53
-10,-35,-25,22,7,-30,10,0,-24,-44,-53,-51
-11,-37,-26,23,7,-32,13,3,-20,-41,-52,-51
-11,-39,-28,25,8,-34,14,5,-17,-39,-51,-51
-11,-41,-29,26,9,-35,15,7,-15,-38,-51,-51
-12,-42,-30,27,9,-36,17,9,-13,-37,-49,-50
-13,-43,-29,28,8,-36,19,11,-11,-35,-48,-49
-14,-43,-28,28,7,-36,21,13,-9,-33,-47,-49
-14,-42,-28,28,7,-35,22,16,-7,-31,-46,-48
-13,-43,-29,28,8,-36,23,17,-6,-31,-46,-48
-12,-43,-31,27,10,-37,22,17,-6,-31,-47,-49
-11,-44,-32,27,10,-37,22,16,-6,-30,-47,-49
-12,-44,-31,27,10,-37,22,16,-6,-29,-46,-48
-12,-43,-30,27,9,-36,22,17,-5,-28,-45,-47
-12,-42,-30,26,9,-36,23,18,-4,-26,-43,-46
-11,-41,-30,26,10,-36,24,18,-4,-25,-42,-45
-10,-41,-31,25,11,-36,24,19,-3,-25,-41,-44
-10,-41,-30,25,10,-35,24,20,-3,-24,-40,-43
-11,-40,-29,25,9,-34,25,21,-1,-22,-39,-41
-10,-39,-28,24,9,-33,25,22,0,-20,-37,-40
-10,-37,-27,22,9,-32,24,22,2,-18,-35,-39
-10,-36,-25,22,8,-31,23,22,2,-17,-34,-39
-11,-35,-24,22,7,-30,23,21,3,-16,-33,-39
-11,-34,-22,22,6,-28,23,20,4,-15,-32,-38
-12,-32,-20,22,5,-26,23,21,5,-14,-31,-37
-12,-31,-18,21,3,-24,24,22,6,-14,-30,-37
-12,-29,-16,20,3,-23,24,23,7,-13,-30,-36
-12,-28,-15,19,2,-22,23,23,8,-12,-29,-36
-12,-27,-15,19,2,-21,22,23,8,-11,-29,-36
-11,-27,-16,19,3,-22,22,22,9,-11,-29,-36
-10,-27,-18,18,4,-23,22,23,10,-11,-29,-36
-9,-28,-19,18,5,-24,22,24,11,-11,-29,-36
-9,-29,-21,19,6,-25,22,25,12,-10,-29,-36
-8,-31,-23,19,7,-27,22,26,12,-10,-29,-37
-8,-33,-25,20,9,-29,23,26,12,-10,-29,-36
-7,-34,-27,20,10,-30,23,25,13,-9,-28,-35
-8,-35,-27,21,9,-30,24,25,14,-7,-27,-32
-9,-35,-26,22,8,-30,26,26,15,-5,-24,-30
-10,-35,-25,22,7,-30,26,28,17,-2,-21,-28
-11,-35,-24,22,7,-30,26,30,19,1,-18,-26
-10,-35,-24,22,7,-30,26,30,21,3,-17,-24
-10,-35,-24,22,7,-30,26,30,22,4,-16,-23
-9,-34,-24,21,8,-29,26,30,22,5,-15,-22
-8,-32,-24,20,8,-28,26,30,23,6,-14,-21
-7,-31,-23,18,8,-27,26,31,24,7,-12,-19
-7,-29,-22,17,8,-25,26,32,26,9,-9,-17
-6,-27,-21,16,7,-24,26,33,28,11,-7,-16
-5,-26,-20,15,8,-23,25,34,30,13,-6,-15
-4,-24,-20,14,8,-22,25,35,32,15,-4,-13
-4,-22,-17,13,7,-20,25,37,34,18,-1,-12
-5,-20,-14,12,5,-18,25,38,37,21,1,-9
-5,-18,-12,11,4,-16,25,39,39,24,4,-7
-5,-16,-11,10,3,-14,25,40,41,27,7,-3
-4,-14,-10,8,3,-12,25,40,44,31,11,0
-4,-13,-9,7,3,-11,25,41,46,35,15,3
-4,-12,-8,7,2,-10,25,42,49,40,20,6
-4,-10,-6,6,1,-9,25,42,52,44,24,9
-4,-8,-4,6,0,-7,24,43,55,48,28,12
-2,-6,-3,4,0,-5,23,45,58,52,32,15
-1,-3,-1,2,0,-3,22,48,62,56,36,19
0,0,0,0,0,-1,22,50,65,60,40,22
1,2,1,-2,0,1,22,52,68,64,44,25
3,5,1,-4,0,3,22,53,71,68,47,28
4,8,3,-6,0,5,22,54,73,71,51,31
4,10,5,-8,0,7,22,55,75,74,54,35
5,13,8,-9,-1,10,22,55,77,76,57,38
5,15,10,-10,-1,12,21,55,78,78,59,41
5,17,12,-11,-3,14,20,55,79,80,62,44
5,20,15,-12,-4,17,19,55,81,83,66,47
6,22,16,-14,-4,19,18,55,82,86,69,49
8,24,16,-16,-3,20,16,54,82,87,72,50
10,26,16,-19,-3,21,15,53,82,88,73,50
11,28,16,-20,-2,22,14,52,82,89,74,51
12,29,17,-21,-2,23,13,51,81,89,74,51
12,31,18,-22,-3,25,12,51,80,89,75,52
12,32,20,-22,-3,26,11,50,80,89,75,52
13,33,20,-23,-3,27,10,50,79,87,74,51
14,34,20,-24,-2,27,9,49,77,85,72,50
14,34,19,-24,-2,26,8,47,75,83,71,49
17,34,16,-26,0,25,7,43,72,81,69,48
19,33,13,-26,2,23,5,41,69,78,67,47
16,31,14,-24,1,22,5,39,66,76,65,46
12,29,17,-21,-2,23,6,38,64,74,64,46
12,29,17,-20,-2,22,6,36,62,72,62,46
13,28,15,-20,-1,21,5,33,58,68,60,45
12,27,14,-19,0,21,5,30,54,64,56,43
12,26,14,-19,0,20,4,29,51,60,53,40
13,26,13,-19,0,20,4,27,47,56,49,37
12,26,14,-19,-1,20,3,25,43,53,46,34
10,25,16,-18,-3,20,2,24,41,50,43,31
9,24,15,-17,-3,19,2,22,37,45,38,27
10,22,13,-16,-1,17,1,20,34,39,33,22
9,20,11,-15,-1,15,1,18,31,35,28,19
9,17,9,-13,0,13,1,17,28,30,24,16
9,15,6,-12,2,10,1,16,25,26,19,13
9,12,3,-11,3,8,1,14,22,23,15,10
9,10,1,-10,4,6,1,13,19,20,12,8
7,9,1,-9,3,5,2,13,18,18,10,7
6,7,1,-7,2,4,3,12,16,16,9,5
6,6,0,-6,3,3,3,11,14,13,6,3
6,5,0,-5,3,2,3,10,12,10,4,1
5,4,0,-4,3,2,4,10,11,8,2,0
4,3,0,-4,3,1,4,9,9,6,0,0
5,2,-2,-3,4,0,4,8,7,4,-1,-1
5,0,-4,-3,5,-1,4,6,5,2,-4,-3
5,0,-5,-2,5,-3,5,5,3,0,-6,-5
3,-1,-5,-1,4,-3,5,4,1,-1,-7,-7
2,-2,-5,0,3,-4,4,4,0,-4,-10,-10
0,-4,-5,2,2,-5,4,4,-1,-7,-14,-13
0,-6,-6,3,3,-6,4,5,-2,-10,-17,-16
1,-7,-8,3,4,-8,5,5,-3,-13,-19,-18
1,-8,-9,4,5,-9,6,4,-4,-14,-21,-18
0,-10,-10,5,5,-10,7,3,-5,-15,-22,-19
0,-11,-11,5,6,-11,7,2,-7,-16,-23,-19
0,-12,-12,6,6,-12,8,1,-7,-17,-24,-20
0,-13,-12,6,6,-12,9,1,-7,-17,-24,-20
0,-13,-13,6,6,-13,11,2,-7,-17,-24,-21
0,-13,-13,6,6,-13,12,2,-7,-17,-24,-21
0,-13,-14,6,7,-13,12,2,-7,-18,-25,-22
0,-13,-13,6,6,-13,13,2,-8,-19,-26,-23
0,-13,-13,6,6,-13,12,2,-9,-21,-27,-25
0,-14,-13,6,7,-14,12,1,-10,-22,-28,-26
0,-14,-14,6,7,-14,12,1,-11,-22,-29,-26
0,-14,-14,6,7,-14,12,1,-11,-22,-29,-26
-1,-14,-13,7,6,-14,13,1,-11,-22,-29,-26
-3,-15,-12,8,4,-14,13,1,-10,-22,-29,-25
-4,-14,-11,9,3,-13,13,1,-10,-22,-29,-25
-2,-13,-11,7,5,-12,12,1,-11,-22,-29,-25
1,-12,-13,5,7,-12,12,1,-11,-23,-30,-25
3,-11,-14,4,8,-12,11,1,-12,-24,-30,-26
3,-12,-14,4,8,-13,11,1,-12,-25,-31,-27
2,-14,-16,5,9,-15,10,1,-13,-25,-31,-28
2,-14,-17,6,9,-16,11,1,-13,-25,-31,-28
2,-15,-17,6,9,-16,12,3,-12,-24,-31,-28
0,-16,-17,7,8,-17,12,4,-12,-24,-31,-28
0,-17,-17,8,7,-17,13,3,-11,-24,-31,-28
-1,-18,-17,9,7,-17,13,3,-11,-23,-30,-28
-2,-18,-16,10,6,-17,13,2,-11,-23,-28,-27
-3,-19,-15,10,6,-17,14,2,-11,-22,-27,-27
-3,-19,-14,11,5,-17,15,3,-11,-22,-27,-27
-3,-19,-14,11,5,-17,16,3,-11,-23,-27,-27
-2,-18,-15,10,6,-17,17,3,-11,-23,-28,-27
-1,-16,-16,9,7,-16,18,4,-11,-23,-28,-26
-1,-15,-15,9,6,-15,19,5,-10,-22,-27,-25
-1,-14,-13,8,5,-13,20,6,-8,-20,-26,-23
-1,-12,-11,6,5,-11,20,7,-7,-18,-24,-22
0,-11,-9,5,4,-9,20,7,-7,-17,-24,-22
0,-9,-8,4,4,-8,19,6,-7,-17,-23,-21
1,-8,-8,3,4,-8,18,4,-8,-18,-23,-21
2,-7,-8,2,5,-8,17,2,-9,-19,-23,-20
3,-6,-9,1,5,-8,17,1,-10,-18,-22,-20
3,-5,-8,0,5,-7,16,1,-10,-17,-21,-19
4,-4,-8,0,5,-6,16,2,-9,-17,-21,-20
5,-4,-9,0,6,-6,15,3,-9,-18,-22,-21
6,-4,-10,-1,8,-7,16,4,-9,-18,-23,-21
6,-5,-11,0,8,-8,16,5,-8,-18,-23,-21
5,-7,-12,1,8,-10,17,6,-8,-17,-22,-20
4,-8,-13,2,8,-11,18,7,-7,-17,-21,-19
4,-9,-13,3,8,-12,19,8,-6,-16,-20,-18
4,-10,-15,3,9,-12,19,8,-5,-15,-19,-17
6,-10,-16,2,11,-13,19,9,-4,-14,-19,-17
7,-9,-16,0,11,-12,19,9,-3,-13,-18,-16
7,-6,-13,0,10,-9,19,10,-2,-12,-17,-14
8,-4,-12,-2,10,-7,17,9,-3,-12,-17,-13
9,-2,-11,-3,11,-7,14,7,-4,-13,-17,-13
10,-1,-11,-4,11,-6,12,5,-6,-14,-18,-13
9,0,-9,-4,9,-5,11,4,-8,-15,-20,-14
6,0,-5,-3,5,-3,10,3,-9,-17,-21,-15
4,1,-3,-3,3,-1,9,0,-12,-19,-23,-17
3,2,-1,-3,1,0,7,-4,-15,-20,-25,-18
2,2,1,-2,0,2,6,-7,-17,-22,-26,-19
2,3,1,-2,0,2,6,-8,-19,-24,-27,-20
3,3,0,-3,2,1,5,-9,-21,-26,-28,-21
5,1,-4,-3,4,-1,4,-9,-23,-29,-30,-22
6,-1,-8,-2,7,-5,3,-10,-24,-31,-32,-24
6,-4,-11,-1,8,-7,2,-11,-26,-32,-33,-25
4,-8,-12,1,8,-10,2,-12,-27,-33,-34,-26
1,-11,-13,4,6,-12,3,-13,-27,-34,-35,-27
0,-14,-13,6,6,-13,4,-12,-28,-34,-36,-28
-1,-16,-14,8,6,-15,5,-11,-28,-34,-36,-28
-2,-18,-15,10,6,-17,6,-11,-28,-35,-37,-29
-2,-19,-16,11,6,-18,7,-10,-28,-35,-37,-30
-3,-20,-16,11,6,-18,7,-9,-27,-34,-37,-30
-4,-20,-16,12,5,-19,8,-9,-27,-34,-37,-30
-5,-21,-16,13,5,-19,8,-8,-26,-34,-38,-31
-5,-21,-17,13,5,-20,8,-8,-26,-34,-38,-32
-4,-22,-18,13,7,-20,8,-8,-26,-35,-39,-33
-3,-22,-19,13,7,-20,8,-8,-26,-35,-40,-33
-3,-21,-18,13,7,-20,8,-7,-26,-35,-40,-33
-4,-21,-17,13,6,-19,8,-7,-26,-35,-40,-33
-5,-20,-15,13,4,-18,8,-6,-26,-35,-39,-33
-7,-20,-13,14,2,-17,8,-6,-26,-35,-39,-33
-7,-20,-13,14,2,-17,8,-7,-26,-35,-39,-34
-6,-21,-15,13,4,-18,7,-8,-27,-36,-39,-34
-4,-21,-17,12,5,-19,6,-9,-28,-37,-39,-34
-3,-21,-18,12,7,-19,6,-10,-28,-37,-40,-34
-3,-21,-19,12,7,-20,7,-10,-29,-37,-40,-34
-4,-22,-18,13,6,-20,7,-9,-28,-37,-39,-33
-4,-23,-17,14,6,-20,7,-8,-28,-36,-39,-33
-4,-23,-18,14,6,-21,7,-8,-28,-37,-40,-33
-4,-23,-18,13,7,-21,6,-8,-28,-37,-40,-33
-3,-23,-19,13,7,-21,6,-8,-28,-37,-40,-33
-3,-23,-19,13,8,-21,7,-7,-27,-36,-39,-34
-4,-23,-18,14,7,-21,7,-5,-25,-35,-39,-34
-6,-23,-17,15,6,-20,8,-3,-23,-34,-39,-35
-6,-23,-17,15,6,-21,9,-1,-21,-33,-38,-35
-5,-23,-18,14,7,-21,10,0,-19,-31,-38,-35
-4,-23,-19,13,7,-21,12,4,-14,-27,-36,-34
-3,-22,-19,12,8,-21,16,11,-7,-21,-32,-33
-2,-22,-20,11,9,-21,20,22,6,-9,-25,-29
0,-21,-20,9,10,-21,26,39,24,7,-13,-21
4,-18,-21,6,12,-20,33,60,48,28,4,-9
10,-12,-22,0,16,-17,42,87,76,55,26,7
15,-7,-22,-4,18,-15,50,112,105,84,51,25
15,-4,-20,-5,17,-12,55,124,124,108,75,43
16,-1,-16,-7,16,-9,54,120,129,121,94,60
17,5,-12,-11,15,-4,50,104,123,127,110,76
20,11,-8,-15,14,1,42,79,107,128,124,91
23,20,-3,-21,12,8,30,45,83,124,136,107
26,32,6,-29,10,19,14,4,53,118,149,125
31,47,16,-38,7,31,-8,-43,17,108,162,144
39,61,22,-50,8,42,-40,-100,-26,93,171,160
50,77,26,-63,12,52,-75,-157,-72,74,176,174
62,94,32,-78,14,63,-110,-209,-116,52,175,183
72,111,39,-91,15,75,-143,-255,-156,27,167,185
80,129,47,-105,15,88,-176,-295,-192,1,150,179
89,141,52,-115,18,97,-201,-322,-219,-25,128,167
95,141,46,-118,25,93,-213,-333,-237,-53,95,143
95,126,31,-111,32,79,-214,-332,-251,-88,48,104
88,107,20,-97,34,63,-210,-326,-266,-133,-11,55
73,91,19,-82,27,55,-199,-316,-279,-178,-70,4
54,80,26,-67,13,53,-182,-298,-281,-209,-115,-36
38,70,32,-54,2,51,-160,-270,-267,-219,-140,-63
24,58,33,-41,-5,45,-134,-234,-241,-212,-147,-77
13,44,31,-29,-9,37,-108,-197,-211,-194,-145,-84
6,33,26,-20,-9,30,-86,-163,-181,-174,-137,-85
3,24,20,-13,-7,22,-67,-134,-154,-154,-128,-84
-2,14,16,-6,-8,15,-50,-107,-129,-134,-116,-81
-9,3,12,2,-10,8,-35,-82,-104,-113,-103,-76
-11,-5,6,8,-9,0,-21,-59,-83,-94,-90,-71
-9,-12,-2,11,-4,-7,-10,-40,-65,-79,-79,-65
-8,-17,-10,12,0,-14,-1,-26,-51,-68,-71,-60
-7,-21,-14,14,2,-18,6,-16,-41,-59,-65,-56
-8,-24,-16,16,3,-20,12,-9,-35,-54,-61,-53
-11,-27,-16,19,3,-21,16,-4,-30,-49,-57,-51
-13,-28,-15,20,2,-22,20,0,-25,-45,-54,-49
-13,-29,-16,21,2,-23,22,3,-22,-42,-51,-48
-12,-30,-18,20,3,-24,23,5,-21,-40,-50,-48
-10,-31,-20,20,4,-26,23,6,-20,-40,-50,-48
-10,-31,-21,20,5,-27,24,7,-19,-39,-49,-48
-10,-32,-22,21,5,-27,25,8,-17,-37,-49,-48
-11,-33,-22,22,5,-27,26,10,-15,-36,-48,-48
-13,-34,-21,24,3,-27,28,11,-14,-35,-48,-47
-14,-34,-20,24,2,-27,29,11,-13,-35,-48,-47
-15,-34,-18,25,1,-27,30,12,-12,-34,-47,-47
-15,-33,-17,24,1,-26,30,12,-11,-33,-46,-46
-12,-32,-19,22,2,-26,29,13,-11,-33,-46,-46
-9,-31,-21,20,5,-27,29,13,-11,-33,-46,-46
-8,-30,-22,19,6,-26,29,13,-11,-33,-45,-46
-9,-30,-21,19,5,-25,30,15,-10,-31,-44,-45
-10,-29,-20,20,5,-25,31,16,-8,-29,-43,-44
-10,-29,-19,19,5,-25,31,17,-7,-28,-42,-44
-9,-29,-19,19,5,-25,30,17,-6,-28,-41,-44
-8,-28,-20,18,6,-25,30,17,-6,-27,-41,-43
-6,-27,-20,17,7,-24,30,18,-5,-26,-39,-42
-5,-25,-20,15,7,-22,31,19,-3,-24,-37,-41
-5,-24,-19,15,6,-21,32,20,-2,-23,-36,-40
-7,-26,-19,16,6,-22,31,19,-2,-23,-37,-42
-7,-27,-19,17,6,-23,30,19,-1,-23,-37,-43
-6,-25,-19,15,7,-22,30,19,0,-22,-37,-42
-5,-24,-18,14,7,-21,30,20,1,-21,-36,-40
-5,-23,-17,14,6,-20,30,20,1,-21,-35,-39
-6,-23,-16,14,5,-20,30,20,2,-20,-34,-39
-5,-22,-15,14,5,-19,30,21,3,-18,-33,-38
-4,-21,-16,12,6,-19,30,21,4,-17,-32,-37
-1,-20,-18,10,8,-19,31,22,6,-16,-31,-37
0,-18,-18,9,9,-18,32,24,7,-14,-30,-36
-1,-18,-17,9,8,-17,32,25,8,-13,-29,-36
-1,-18,-17,9,8,-17,31,24,8,-13,-28,-36
-1,-19,-17,10,8,-18,31,24,8,-12,-28,-35
-2,-18,-16,10,7,-17,31,24,8,-11,-26,-34
-3,-17,-13,10,5,-16,31,25,10,-9,-24,-32
-4,-16,-11,10,3,-14,31,26,11,-7,-22,-30
-4,-15,-10,9,3,-13,31,27,13,-5,-21,-29
-4,-14,-10,8,3,-12,31,28,15,-4,-19,-28
-3,-12,-9,7,3,-12,31,29,17,-2,-18,-27
-3,-11,-8,7,3,-11,30,30,19,0,-16,-25
-2,-10,-8,6,3,-10,30,30,20,2,-15,-24
-2,-9,-7,5,3,-9,30,31,21,4,-13,-23
-2,-8,-6,5,2,-7,31,32,24,7,-10,-21
-2,-6,-4,4,1,-6,31,34,26,10,-7,-18
-1,-5,-4,3,1,-5,31,35,29,13,-5,-17
-1,-3,-2,2,0,-3,31,36,31,15,-2,-15
-3,-2,0,2,-1,-1,32,38,34,17,0,-13
-3,0,2,1,-2,0,32,39,36,20,3,-10
-2,0,2,1,-2,0,32,40,38,23,5,-8
-3,0,2,2,-3,0,31,40,39,25,7,-7
-3,0,3,2,-4,1,31,41,41,28,10,-4
-1,1,2,0,-2,2,30,42,43,31,13,-2
1,3,1,-1,0,2,29,42,46,34,16,0
1,5,2,-2,0,4,29,44,50,39,21,4
0,7,7,-3,-3,7,30,46,55,45,27,9
1,10,9,-5,-4,10,30,49,59,50,32,12
4,13,10,-8,-3,11,30,51,63,54,36,15
6,15,10,-10,-2,12,30,52,65,58,39,17
7,17,10,-12,-2,13,29,53,66,60,42,19
10,20,10,-14,-1,15,29,53,67,63,45,21
14,24,10,-18,0,16,28,53,69,65,48,23
14,27,12,-20,0,19,28,53,71,69,51,26
11,27,16,-19,-3,21,28,54,74,71,55,29
9,27,19,-18,-5,22,27,54,75,73,57,31
9,28,19,-19,-5,23,26,54,76,75,59,33
9,29,20,-20,-5,25,26,55,77,77,60,34
9,31,21,-20,-6,26,26,56,77,78,61,36
10,32,21,-21,-5,26,26,55,77,79,62,37
12,33,20,-22,-4,26,24,53,76,79,63,38
13,34,20,-23,-4,27,22,51,75,79,63,39
14,35,21,-25,-4,28,21,50,74,79,64,40
14,37,23,-26,-4,30,20,49,74,79,65,41
14,38,24,-26,-4,31,20,49,74,79,66,41
15,38,24,-27,-4,31,19,48,73,78,65,41
15,39,24,-27,-4,31,19,48,71,77,64,41
15,39,23,-27,-4,31,19,47,69,75,62,40
15,38,23,-27,-4,31,19,45,67,73,60,39
15,38,23,-26,-4,31,18,42,64,70,57,38
14,37,23,-25,-4,30,16,39,61,66,54,36
14,36,22,-24,-4,29,15,36,57,62,52,34
14,35,21,-24,-3,28,14,34,54,58,49,31
13,34,21,-24,-4,28,13,32,51,55,46,29
12,34,22,-23,-4,27,13,30,48,51,42,26
12,33,20,-22,-4,26,12,29,44,46,37,22
13,31,17,-22,-2,24,11,26,39,41,32,18
12,29,16,-21,-2,22,11,24,35,37,28,15
11,27,16,-19,-2,21,11,22,32,34,25,13
9,26,16,-18,-3,21,12,21,30,32,23,12
9,24,15,-17,-3,19,12,20,28,28,20,9
10,22,12,-16,-1,17,11,19,25,24,16,6
10,20,10,-15,0,15,11,18,22,21,13,4
10,18,8,-14,0,13,11,17,19,17,9,1
10,16,6,-13,1,11,11,16,17,14,5,-2
9,15,5,-12,1,10,11,15,15,11,2,-4
9,13,4,-11,2,9,10,14,13,8,0,-8
8,11,3,-10,2,7,10,13,11,6,-2,-10
7,9,1,-8,3,5,10,11,10,4,-5,-12
7,6,-1,-6,4,2,9,10,8,0,-8,-14
6,4,-2,-5,4,1,10,9,5,-2,-10,-17
4,2,-2,-3,3,0,11,9,3,-4,-13,-19
3,1,-2,-2,2,-1,11,9,2,-6,-15,-20
3,0,-3,-1,2,-2,11,9,0,-7,-17,-22
3,-1,-4,-1,3,-3,11,8,-1,-9,-19,-24
3,-2,-4,0,3,-3,11,7,-2,-11,-21,-25
2,-3,-4,0,3,-3,12,7,-3,-13,-22,-26
1,-4,-4,1,2,-4,12,8,-3,-14,-23,-27
0,-5,-4,3,2,-5,13,9,-3,-14,-24,-28
-1,-6,-5,4,1,-5,14,9,-3,-15,-26,-29
-2,-7,-5,5,1,-6,15,8,-5,-16,-27,-30
-2,-8,-6,5,2,-6,14,6,-7,-18,-29,-31
0,-9,-8,4,4,-8,14,5,-9,-20,-31,-32
0,-10,-10,5,5,-9,14,5,-10,-21,-33,-33
-2,-11,-9,6,4,-10,14,5,-10,-22,-33,-33
-3,-11,-8,7,3,-10,14,5,-10,-22,-33,-33
-3,-11,-9,7,3,-10,13,5,-10,-22,-33,-33
-2,-11,-10,6,4,-11,13,5,-10,-22,-34,-34
-1,-12,-11,6,5,-11,12,5,-11,-23,-35,-35
-2,-13,-11,7,5,-12,12,5,-11,-23,-35,-35
-2,-13,-11,7,4,-12,11,6,-10,-23,-35,-36
-2,-13,-11,7,4,-12,11,8,-9,-22,-35,-36
-2,-14,-11,8,4,-12,11,9,-9,-22,-34,-36
-3,-15,-11,9,3,-13,10,9,-9,-22,-34,-37
-5,-15,-10,11,2,-13,10,9,-9,-23,-34,-38
-6,-16,-10,11,2,-13,10,8,-10,-22,-34,-38
-5,-16,-11,11,3,-14,10,8,-10,-23,-34,-38
-3,-17,-13,10,4,-15,9,7,-11,-23,-35,-38
-4,-17,-13,11,4,-15,9,8,-10,-23,-35,-37
-4,-17,-13,11,3,-15,9,8,-10,-23,-34,-37
-4,-17,-13,11,4,-15,9,8,-9,-23,-34,-38
-4,-18,-14,11,4,-16,9,8,-9,-23,-34,-38
-4,-19,-15,11,4,-17,9,8,-9,-23,-35,-38
-3,-19,-16,11,6,-18,9,8,-9,-23,-35,-38
-2,-20,-17,10,7,-18,9,9,-9,-22,-34,-37
-2,-19,-17,10,7,-18,9,10,-8,-21,-33,-36
-2,-19,-16,10,7,-18,8,10,-8,-20,-32,-36
-1,-18,-16,10,7,-18,8,10,-8,-20,-31,-36
0,-18,-16,9,8,-17,7,10,-7,-19,-31,-37
0,-16,-15,8,7,-16,7,11,-6,-19,-31,-37
1,-14,-14,7,7,-15,7,11,-5,-18,-31,-36
1,-13,-14,6,7,-14,6,11,-5,-18,-30,-34
2,-13,-14,6,7,-13,6,10,-5,-17,-30,-32
0,-13,-13,6,6,-13,6,11,-5,-17,-29,-31
-1,-13,-11,7,5,-12,7,11,-4,-16,-28,-30
-1,-12,-11,7,4,-12,8,12,-4,-15,-28,-29
-1,-12,-11,6,4,-11,9,13,-3,-14,-27,-29
-1,-11,-11,6,5,-11,10,14,-2,-13,-26,-28
0,-12,-11,6,5,-11,11,16,-1,-13,-25,-27
0,-12,-12,5,6,-12,12,16,0,-13,-24,-27
1,-12,-13,5,7,-13,13,17,0,-12,-24,-27
1,-13,-14,5,7,-13,12,17,0,-12,-23,-27
2,-14,-16,6,8,-14,11,17,0,-12,-24,-27
1,-15,-16,7,8,-15,11,17,0,-11,-24,-27
0,-16,-16,8,8,-16,10,17,0,-11,-23,-26
0,-16,-15,8,8,-16,10,17,1,-10,-22,-25
1,-13,-15,6,8,-15,9,16,1,-10,-21,-24
2,-10,-12,4,7,-12,7,14,0,-9,-20,-23
2,-8,-10,3,6,-10,4,12,-1,-9,-20,-23
2,-6,-9,2,5,-8,1,10,-2,-10,-20,-23
2,-5,-7,2,4,-7,0,8,-3,-10,-21,-24
3,-3,-7,0,4,-6,-1,6,-5,-12,-22,-25
4,-1,-6,-1,4,-4,-3,3,-8,-14,-24,-27
3,0,-3,-1,2,-2,-4,0,-10,-16,-26,-28
2,1,0,-1,1,0,-6,-4,-13,-18,-27,-30
2,2,1,-2,0,1,-7,-6,-16,-20,-28,-31
2,3,2,-2,0,2,-8,-6,-17,-22,-29,-33
1,3,3,-2,-1,3,-8,-6,-18,-23,-31,-34
0,3,4,-1,-2,3,-7,-6,-19,-24,-32,-35
-1,1,3,0,-3,2,-7,-6,-19,-25,-34,-36
-1,-1,1,1,-1,0,-7,-7,-20,-27,-36,-37
-1,-4,-3,2,1,-3,-7,-7,-22,-29,-38,-39
0,-7,-7,3,3,-7,-7,-8,-23,-31,-39,-39
0,-11,-11,4,5,-11,-6,-7,-24,-32,-40,-40
0,-15,-15,6,7,-15,-4,-6,-24,-33,-41,-40
0,-19,-18,9,8,-18,-3,-5,-23,-33,-41,-40
0,-22,-20,11,9,-21,-1,-4,-22,-32,-41,-40
-1,-24,-21,12,9,-22,0,-2,-21,-31,-41,-39
-2,-24,-21,13,9,-23,2,0,-19,-30,-40,-38
-4,-25,-21,14,9,-24,3,0,-18,-29,-40,-37
-6,-28,-22,16,8,-25,4,0,-18,-29,-39,-36
-8,-30,-22,18,7,-26,4,-1,-19,-29,-39,-35
-9,-31,-21,20,6,-26,4,-2,-20,-29,-38,-35
-10,-32,-21,21,5,-26,4,-2,-19,-29,-38,-35
-12,-32,-19,22,2,-25,5,-1,-19,-28,-37,-35
-12,-31,-19,21,2,-25,4,0,-18,-28,-38,-35
-9,-30,-21,20,5,-25,3,0,-19,-29,-39,-36
-8,-29,-21,19,6,-25,2,-1,-19,-30,-39,-37
-8,-28,-20,18,6,-24,2,-1,-19,-30,-40,-37
-6,-27,-21,16,8,-24,1,-1,-20,-30,-41,-37
-5,-27,-22,16,8,-24,1,-2,-21,-31,-41,-36
-7,-27,-19,17,6,-23,2,-1,-21,-30,-40,-35
-8,-26,-17,17,4,-21,2,-1,-20,-30,-40,-35
-7,-25,-17,16,4,-21,2,-2,-20,-30,-40,-34
-6,-24,-17,15,4,-20,1,-3,-20,-29,-39,-33
-6,-22,-16,14,4,-19,0,-3,-20,-29,-38,-33
-6,-20,-14,13,4,-17,0,-4,-21,-29,-38,-33
-6,-19,-13,12,4,-16,0,-4,-21,-29,-39,-34
-5,-18,-13,11,4,-16,0,-4,-21,-30,-39,-34
-6,-19,-14,12,4,-17,0,-4,-21,-30,-39,-34
-6,-21,-15,12,4,-18,0,-3,-19,-29,-38,-34
-5,-21,-16,12,5,-19,1,1,-16,-26,-37,-33
-6,-22,-15,13,4,-19,5,8,-9,-21,-35,-32
-8,-22,-13,14,2,-18,9,18,0,-13,-30,-29
-8,-20,-12,14,2,-17,15,32,15,0,-21,-23
-5,-18,-13,11,4,-16,21,50,34,17,-8,-15
0,-15,-14,7,7,-15,29,69,57,38,8,-4
4,-9,-13,2,9,-12,37,92,84,63,29,9
6,-3,-9,-2,7,-6,45,111,109,89,52,25
7,4,-3,-6,5,0,48,117,122,108,73,42
8,10,1,-10,3,6,46,107,121,118,89,59
10,16,5,-14,2,11,40,86,110,121,104,76
13,23,9,-18,2,16,30,58,91,121,118,93
17,31,13,-24,2,22,15,21,65,117,132,111
24,43,18,-34,3,30,-5,-23,33,112,148,130
32,56,23,-45,5,39,-33,-74,-3,103,162,149
43,70,27,-57,8,48,-66,-129,-46,90,172,165
56,86,29,-71,13,57,-100,-182,-88,72,177,179
69,101,32,-85,18,66,-133,-228,-128,52,175,187
79,115,35,-97,21,75,-166,-267,-164,29,165,188
88,128,40,-108,24,84,-195,-299,-194,4,147,181
96,135,39,-116,29,87,-216,-316,-215,-20,124,168
102,130,27,-116,38,78,-225,-320,-229,-47,90,142
104,112,8,-108,48,60,-226,-316,-243,-84,41,101
97,92,-5,-95,51,43,-220,-310,-259,-129,-18,51
83,78,-4,-81,44,37,-207,-300,-270,-173,-74,4
64,69,5,-67,29,37,-187,-280,-268,-199,-114,-32
44,58,13,-51,15,35,-163,-251,-251,-204,-134,-53
27,45,17,-36,5,31,-137,-215,-224,-194,-138,-65
15,33,18,-24,-2,26,-113,-180,-194,-176,-133,-69
6,24,18,-15,-6,21,-92,-149,-166,-155,-124,-69
1,16,15,-9,-7,16,-75,-122,-140,-135,-113,-68
-3,9,13,-3,-8,11,-60,-97,-115,-115,-101,-65
-6,3,10,1,-8,6,-46,-74,-92,-95,-88,-60
-8,-2,7,5,-8,1,-33,-54,-72,-78,-77,-54
-9,-7,2,7,-6,-3,-22,-36,-56,-64,-67,-49
-8,-11,-2,9,-3,-7,-13,-23,-43,-53,-59,-44
-9,-14,-5,11,-2,-10,-7,-12,-33,-45,-53,-40
-12,-17,-5,14,-3,-11,-1,-5,-26,-38,-48,-36
-15,-20,-5,17,-4,-12,2,0,-21,-34,-45,-34
-14,-21,-7,17,-3,-14,4,3,-18,-31,-43,-33
-11,-21,-9,16,-1,-15,5,5,-16,-30,-42,-33
-9,-21,-11,15,0,-16,6,7,-14,-28,-41,-33
-9,-21,-11,15,0,-16,7,8,-12,-27,-41,-33
-11,-22,-11,16,0,-16,9,11,-10,-26,-40,-32
-13,-23,-10,17,-2,-17,10,12,-9,-26,-39,-31
-15,-24,-10,19,-2,-17,10,13,-9,-25,-39,-31
-17,-25,-9,20,-3,-17,11,13,-8,-24,-39,-31
-19,-25,-7,21,-5,-16,12,14,-6,-22,-37,-30
-18,-25,-7,21,-5,-15,12,15,-5,-21,-36,-30
-16,-24,-7,19,-4,-15,11,15,-4,-20,-35,-30
-14,-23,-8,18,-3,-15,11,16,-3,-19,-35,-30
-13,-22,-8,17,-2,-15,11,17,-3,-19,-35,-30
-12,-21,-10,16,-1,-16,11,17,-3,-19,-34,-30
-11,-21,-11,15,0,-16,11,17,-2,-18,-32,-28
-10,-21,-13,15,2,-17,11,18,-2,-17,-31,-27
-8,-21,-14,14,3,-17,11,18,-1,-15,-30,-26
-7,-21,-13,13,3,-16,11,18,-1,-14,-29,-25
-8,-20,-12,14,1,-16,11,18,0,-13,-28,-24
-8,-20,-10,14,0,-15,12,19,1,-12,-27,-23
-8,-19,-10,13,1,-15,12,20,2,-11,-26,-23
-8,-19,-10,13,1,-15,13,20,3,-11,-25,-22
-10,-19,-8,14,-1,-14,14,21,5,-9,-24,-20
-11,-19,-8,15,-1,-13,14,22,5,-8,-22,-19
-10,-18,-8,14,0,-13,14,21,5,-8,-22,-19
-9,-16,-7,13,0,-11,14,21,6,-6,-21,-19
-9,-15,-5,12,-2,-9,14,20,7,-5,-20,-18
-9,-14,-4,12,-3,-9,13,20,8,-5,-19,-18
-9,-14,-4,11,-3,-9,13,21,8,-5,-19,-18
-9,-13,-4,11,-2,-9,12,21,9,-5,-18,-16
-8,-13,-4,10,-2,-9,12,22,10,-4,-16,-15
-8,-12,-4,10,-1,-8,12,23,11,-2,-15,-13
-7,-11,-4,9,-1,-8,12,24,13,0,-14,-12
-7,-11,-4,9,-1,-8,12,25,14,1,-13,-11
-8,-11,-4,9,-1,-7,13,25,15,2,-11,-10
-7,-11,-4,8,-1,-7,13,26,17,4,-10,-9
-5,-10,-4,7,0,-7,14,26,18,5,-8,-8
-3,-9,-5,6,0,-7,14,27,19,6,-7,-7
-3,-8,-5,5,1,-7,14,27,20,7,-5,-6
-4,-8,-5,5,0,-6,16,29,21,9,-4,-5
-6,-8,-3,6,-1,-5,17,30,22,11,-2,-3
-7,-8,-1,7,-2,-5,18,31,24,13,0,-2
-7,-7,0,6,-3,-4,18,31,26,16,3,0
-7,-5,2,6,-4,-2,18,31,28,20,6,2
-7,-3,4,5,-5,0,18,32,30,23,9,4
-6,-1,5,3,-5,2,17,33,32,25,11,6
-4,1,6,1,-5,4,17,34,33,26,13,7
-2,4,6,0,-4,5,17,35,35,28,15,9
-2,5,6,-1,-4,6,17,37,37,31,17,12
-2,5,6,-1,-4,6,17,38,40,34,21,15
-2,5,6,-1,-4,5,17,39,42,37,24,17
-1,5,5,-2,-3,5,16,40,45,40,27,19
0,5,5,-3,-2,5,16,41,47,43,30,21
3,7,5,-5,-1,6,16,43,51,47,34,24
3,10,7,-7,-2,8,16,45,55,52,39,28
2,13,12,-7,-5,12,16,48,60,58,44,32
1,15,14,-8,-7,15,16,50,63,62,48,35
2,18,16,-10,-7,17,17,50,66,65,51,38
1,20,18,-11,-8,19,17,51,69,70,56,42
1,22,20,-12,-9,21,18,53,72,74,62,46
3,24,21,-14,-9,22,18,54,75,79,67,50
5,25,21,-16,-8,23,18,54,77,83,71,53
6,26,20,-17,-7,23,18,54,78,85,74,55
7,27,20,-18,-6,23,18,54,79,87,75,56
8,28,20,-18,-6,24,17,55,80,89,77,58
9,30,21,-20,-6,26,16,55,81,91,79,60
10,32,22,-22,-6,28,15,55,82,92,81,62
11,35,23,-23,-6,29,13,55,83,93,83,64
11,36,24,-24,-6,30,12,55,83,93,84,66
13,39,25,-26,-6,32,11,55,84,94,85,68
15,41,26,-28,-6,34,10,54,84,95,87,71
16,43,27,-30,-5,35,9,53,83,96,88,71
17,44,27,-31,-5,35,8,51,82,95,87,71
17,44,27,-31,-5,36,7,49,81,94,87,70
17,45,27,-31,-4,36,6,48,79,93,86,69
18,45,27,-31,-4,36,5,47,78,91,86,69
18,45,26,-31,-4,36,4,45,76,90,85,69
19,45,26,-32,-3,35,4,43,73,88,84,68
19,44,25,-32,-3,35,3,41,71,86,83,68
18,43,24,-31,-3,34,2,39,68,84,81,67
18,43,24,-31,-3,34,1,38,65,81,79,65
17,42,25,-30,-4,34,1,36,63,78,76,63
15,42,26,-29,-5,34,1,35,60,74,72,61
15,42,27,-29,-5,34,1,33,57,70,68,58
15,41,26,-28,-5,33,0,31,54,66,64,55
15,39,24,-28,-4,31,-2,28,50,61,59,51
15,38,22,-27,-3,30,-3,26,46,56,55,48
15,37,22,-26,-3,29,-3,25,44,53,51,46
14,35,21,-24,-4,28,-3,24,41,49,47,43
14,34,20,-24,-3,27,-3,22,38,45,43,39
14,33,18,-23,-2,26,-4,20,34,41,39,35
13,31,17,-22,-1,24,-4,17,31,37,35,31
12,29,17,-20,-2,23,-4,15,28,33,32,28
11,27,16,-19,-2,22,-4,13,25,29,29,25
10,26,15,-18,-2,21,-4,12,23,26,26,23
9,24,15,-16,-2,20,-4,11,21,23,23,21
7,22,15,-14,-3,19,-3,11,19,21,21,19
6,20,15,-13,-4,18,-3,11,18,19,18,17
5,18,14,-12,-4,16,-2,11,16,16,16,15
5,17,11,-11,-3,14,-2,10,15,13,13,12
5,15,10,-10,-2,13,-2,9,13,10,10,10
3,14,10,-9,-3,12,-1,8,12,8,7,8
1,12,11,-7,-5,11,0,7,10,6,5,6
0,11,11,-6,-5,11,0,6,9,4,3,5
0,10,10,-5,-5,10,0,6,7,2,2,4
0,10,9,-5,-5,10,0,6,6,1,1,4
1,10,8,-6,-4,10,0,5,5,0,-1,2
1,9,7,-5,-3,8,0,4,3,-2,-4,0
0,7,6,-4,-2,7,-1,3,2,-4,-6,-3
1,6,5,-4,-2,6,-1,3,1,-6,-8,-5
2,5,3,-4,0,4,-1,3,0,-8,-10,-7
3,4,1,-4,1,3,-1,2,-1,-9,-12,-8
2,3,0,-3,1,2,-1,1,-2,-10,-12,-8
0,1,1,-1,0,1,0,1,-3,-11,-12,-8
-1,0,2,0,-2,1,0,2,-3,-11,-12,-8
-1,0,2,0,-2,1,2,3,-2,-11,-12,-9
0,0,1,0,-1,1,2,3,-3,-12,-13,-10
0,0,0,0,0,0,2,3,-4,-13,-15,-12
-2,-2,0,1,-1,-1,1,2,-4,-14,-16,-13
-2,-2,1,2,-2,0,2,3,-3,-14,-16,-13
-3,-2,1,2,-2,0,2,4,-3,-13,-16,-12
-4,-3,1,3,-2,-1,2,4,-3,-14,-16,-12
-4,-4,0,4,-2,-1,2,4,-3,-14,-17,-12
-4,-5,-2,4,-1,-3,2,4,-4,-15,-17,-13
-3,-6,-4,4,0,-4,2,3,-5,-15,-18,-14
-3,-6,-3,5,0,-5,2,4,-5,-15,-17,-14
-3,-6,-3,5,0,-5,3,4,-4,-15,-17,-14
-3,-6,-2,5,0,-5,3,5,-4,-15,-17,-14
-3,-6,-2,5,0,-5,3,5,-4,-15,-17,-14
-3,-7,-3,5,0,-5,3,5,-4,-15,-17,-14
-2,-7,-5,5,1,-6,3,6,-4,-15,-17,-15
-2,-7,-5,5,1,-6,3,6,-4,-15,-17,-16
-1,-7,-6,5,2,-6,4,7,-4,-15,-17,-18
-1,-8,-7,5,2,-7,4,6,-4,-14,-17,-18
-1,-8,-7,5,3,-8,4,6,-4,-14,-17,-18
-1,-8,-7,4,3,-8,5,6,-3,-14,-17,-17
-1,-8,-6,4,2,-8,5,7,-2,-13,-16,-17
0,-7,-6,4,2,-7,6,8,-2,-12,-15,-17
0,-7,-6,3,3,-7,7,8,-1,-12,-15,-17
0,-6,-5,3,2,-6,7,8,-1,-12,-14,-16
-3,-6,-2,4,0,-5,8,8,-1,-11,-14,-14
-5,-5,0,5,-2,-3,9,9,0,-11,-13,-12
-5,-4,1,4,-3,-2,10,11,0,-11,-12,-11
-4,-2,1,3,-2,-1,10,11,1,-11,-12,-11
-1,-1,0,1,0,-1,9,11,1,-11,-12,-11
2,-1,-3,0,3,-2,8,9,0,-11,-13,-12
4,-1,-5,-1,5,-3,7,8,0,-11,-13,-13
3,0,-4,-1,4,-2,7,9,0,-10,-11,-12
2,0,-2,-1,2,-1,8,11,2,-8,-9,-10
1,-1,-2,0,2,-2,8,12,2,-7,-8,-10
1,-3,-4,1,2,-4,8,12,2,-7,-8,-10
1,-4,-5,1,3,-5,7,13,3,-7,-7,-9
2,-5,-7,1,4,-6,7,13,3,-7,-6,-10
3,-6,-9,2,5,-8,6,13,3,-7,-7,-11
2,-7,-9,3,5,-8,6,14,3,-7,-7,-11
2,-8,-9,3,6,-8,6,14,3,-7,-8,-11
2,-7,-9,2,6,-8,5,13,3,-6,-8,-10
3,-4,-8,0,5,-6,4,12,3,-6,-7,-9
4,-2,-7,-1,5,-5,3,10,2,-7,-7,-9
5,0,-6,-3,6,-4,1,8,0,-8,-8,-9
5,0,-5,-3,5,-3,0,6,-1,-9,-9,-9
4,0,-3,-2,4,-2,0,4,-2,-10,-9,-9
3,0,-2,-2,3,-1,0,1,-4,-12,-10,-10
3,1,-2,-2,3,0,-1,0,-7,-14,-11,-11
3,1,-1,-2,2,0,-1,-2,-9,-15,-13,-12
2,2,0,-2,2,0,-2,-3,-10,-17,-15,-13
3,1,-1,-2,2,0,-2,-4,-11,-19,-16,-14
2,0,-2,-2,2,-1,-2,-5,-12,-20,-17,-14
2,-1,-2,-1,2,-2,-2,-5,-13,-21,-18,-15
1,-2,-3,0,2,-3,-1,-5,-14,-21,-19,-15
0,-4,-3,2,2,-3,0,-4,-13,-21,-19,-16
-1,-5,-4,3,2,-5,1,-3,-13,-21,-19,-17
-1,-8,-6,4,3,-7,1,-3,-13,-21,-20,-18
-1,-10,-8,5,4,-9,2,-3,-13,-22,-21,-19
0,-11,-12,5,6,-12,2,-3,-14,-23,-22,-20
1,-13,-15,5,8,-14,3,-3,-15,-24,-24,-22
1,-15,-16,7,8,-16,4,-3,-16,-26,-26,-23
-2,-18,-15,10,6,-16,5,-3,-16,-27,-27,-24
-6,-20,-13,13,4,-16,6,-4,-16,-27,-27,-25
-8,-21,-11,15,2,-16,7,-4,-16,-27,-27,-25
-9,-21,-11,15,1,-16,8,-3,-17,-27,-27,-25
-8,-21,-13,15,2,-17,8,-3,-17,-28,-28,-25
-8,-21,-14,14,2,-17,8,-3,-18,-28,-28,-26
-9,-22,-14,15,2,-18,8,-3,-18,-28,-29,-27
-10,-23,-13,16,1,-18,8,-3,-18,-29,-29,-27
-9,-23,-13,16,1,-18,9,-3,-18,-29,-30,-27
-8,-23,-14,15,3,-19,10,-4,-18,-30,-30,-28
-7,-22,-14,15,3,-18,11,-4,-19,-30,-30,-28
-8,-22,-13,15,3,-18,11,-4,-19,-30,-30,-28
-8,-22,-13,15,2,-17,11,-3,-18,-30,-30,-28
-8,-22,-13,14,2,-17,11,-3,-18,-30,-29,-29
-7,-22,-14,14,3,-18,10,-3,-18,-30,-29,-29
-7,-21,-14,14,3,-18,10,-3,-17,-30,-28,-28
-6,-20,-14,13,4,-17,10,-3,-17,-29,-27,-28
-6,-20,-13,13,4,-17,9,-3,-17,-28,-26,-27
-7,-20,-13,13,3,-16,9,-3,-17,-28,-25,-27
-7,-20,-12,13,3,-16,9,-3,-16,-27,-25,-27
-5,-20,-14,12,4,-17,8,-3,-16,-28,-26,-28
-5,-20,-15,12,5,-18,8,-4,-16,-28,-28,-28
-7,-21,-14,13,3,-17,8,-3,-16,-28,-28,-28
-9,-22,-12,15,1,-17,9,-2,-14,-27,-27,-27
-10,-22,-11,15,1,-16,11,0,-12,-25,-26,-26
-11,-22,-11,16,0,-16,13,5,-8,-22,-24,-25
-10,-22,-11,16,1,-16,16,13,-2,-17,-22,-25
-9,-21,-12,15,2,-16,21,23,8,-9,-17,-22
-7,-20,-13,13,3,-16,26,37,23,3,-8,-17
-4,-20,-15,11,6,-17,31,54,42,20,4,-9
0,-17,-17,8,8,-17,38,76,67,43,22,3
4,-12,-17,4,10,-14,47,103,98,72,46,21
8,-6,-15,0,11,-10,56,124,125,101,72,40
10,0,-11,-4,11,-5,59,130,138,121,93,57
12,5,-7,-8,10,0,56,118,137,131,111,73
14,12,-2,-13,9,5,49,97,126,136,126,88
17,21,3,-19,7,12,39,67,107,136,138,101
22,32,10,-28,7,21,23,27,80,131,150,115
29,46,18,-38,6,32,1,-19,47,123,162,131
35,62,27,-49,4,45,-28,-73,9,112,173,147
42,78,36,-60,3,57,-63,-129,-33,98,182,164
52,95,43,-73,4,69,-99,-181,-74,82,187,178
64,114,50,-88,7,82,-135,-228,-114,61,184,186
76,133,56,-104,11,94,-172,-272,-152,36,173,187
87,149,61,-118,13,106,-205,-306,-184,10,155,180
94,155,60,-124,17,108,-227,-324,-205,-15,131,166
96,144,47,-120,25,96,-235,-326,-220,-45,95,138
94,124,30,-109,32,77,-233,-322,-235,-85,44,96
84,105,21,-94,31,63,-224,-315,-251,-131,-14,48
68,91,23,-79,22,58,-208,-303,-261,-171,-65,4
49,80,30,-65,9,55,-186,-279,-256,-192,-98,-27
33,67,33,-50,0,50,-160,-246,-236,-192,-113,-46
20,53,32,-36,-6,43,-133,-208,-208,-179,-115,-57
10,40,29,-25,-9,35,-107,-173,-178,-161,-111,-61
4,28,25,-17,-10,27,-85,-142,-151,-143,-104,-63
0,19,20,-10,-10,20,-66,-114,-125,-124,-95,-62
-4,11,16,-3,-11,14,-49,-88,-101,-105,-85,-59
-8,2,11,3,-10,7,-34,-65,-79,-87,-74,-55
-10,-5,5,8,-7,0,-22,-45,-60,-72,-64,-49
-11,-11,0,11,-5,-6,-12,-29,-46,-60,-55,-44
-12,-16,-4,14,-4,-10,-4,-17,-35,-51,-48,-40
-13,-19,-6,15,-3,-12,2,-10,-28,-45,-44,-38
-13,-21,-8,16,-1,-14,6,-5,-23,-41,-42,-38
-12,-23,-10,17,0,-16,8,-2,-19,-38,-41,-37
-12,-25,-11,18,0,-17,11,2,-15,-35,-39,-36
-12,-25,-11,18,-1,-18,13,6,-12,-32,-37,-36
-13,-25,-11,19,-1,-18,14,9,-9,-30,-36,-36
-14,-26,-11,20,-1,-18,15,11,-7,-29,-35,-36
-14,-26,-12,20,-1,-19,16,12,-6,-28,-34,-35
-13,-26,-13,20,0,-20,17,13,-6,-27,-34,-35
-13,-27,-14,20,1,-20,18,13,-5,-26,-34,-35
-14,-28,-13,21,0,-20,19,14,-4,-25,-33,-35
-15,-28,-12,21,-1,-20,20,14,-3,-24,-32,-35
-15,-28,-12,21,-1,-20,21,15,-2,-22,-32,-34
-14,-28,-12,21,-1,-20,21,17,-1,-21,-31,-34
-14,-27,-13,20,0,-20,21,18,0,-21,-30,-33
-14,-27,-13,20,0,-20,21,18,0,-21,-30,-33
-15,-27,-12,20,-1,-19,21,19,0,-20,-29,-32
-13,-27,-14,20,0,-20,21,19,0,-20,-29,-32
-11,-26,-15,19,2,-20,21,19,1,-20,-29,-31
-11,-26,-14,18,1,-20,21,19,2,-18,-28,-30
-12,-26,-13,19,0,-19,21,20,3,-17,-27,-29
-13,-26,-12,19,0,-19,21,20,4,-16,-26,-28
-12,-25,-13,18,1,-19,20,20,4,-15,-25,-27
-10,-25,-14,17,2,-19,20,20,5,-15,-24,-26
-10,-24,-14,17,2,-19,21,20,6,-14,-23,-25
-12,-24,-12,17,0,-17,22,21,7,-13,-22,-24
-13,-23,-10,18,-1,-16,22,22,9,-11,-21,-24
-14,-23,-9,18,-2,-15,22,23,10,-10,-20,-23
-14,-22,-8,17,-3,-15,21,23,10,-9,-20,-23
-13,-21,-8,16,-3,-14,21,23,11,-8,-19,-22
-12,-20,-8,15,-1,-14,21,24,11,-7,-18,-22
-9,-19,-10,14,0,-14,21,24,12,-7,-17,-22
-8,-18,-10,13,2,-14,20,24,13,-6,-17,-22
-8,-17,-11,12,2,-14,20,25,14,-5,-16,-21
-6,-16,-11,11,3,-13,20,25,15,-4,-15,-20
-5,-15,-10,10,3,-12,20,25,16,-2,-13,-19
-9,-16,-7,12,0,-11,21,25,18,0,-11,-17
-14,-17,-2,15,-5,-10,21,26,20,1,-9,-15
-16,-17,-1,16,-7,-9,22,27,21,3,-8,-14
-14,-16,-2,15,-6,-9,22,27,21,3,-7,-14
-13,-15,-2,14,-5,-9,22,28,22,4,-6,-12
-12,-14,-2,13,-4,-8,21,29,23,5,-5,-11
-11,-13,-3,12,-3,-7,21,29,24,6,-4,-10
-9,-12,-3,10,-2,-7,21,30,26,8,-2,-9
-9,-10,-1,9,-3,-6,22,31,28,10,0,-8
-9,-9,0,9,-4,-5,22,31,30,13,2,-6
-10,-8,2,8,-6,-4,21,32,32,15,4,-5
-9,-7,2,8,-6,-3,21,33,33,17,7,-4
-7,-6,1,6,-4,-2,21,34,35,19,8,-4
-6,-5,0,5,-3,-2,21,35,37,21,10,-2
-5,-4,1,5,-3,-1,22,36,39,24,13,0
-5,-3,1,4,-2,0,21,37,41,26,15,1
-4,-2,2,3,-3,0,21,39,44,30,19,4
-4,0,4,2,-4,2,21,41,48,34,23,7
-3,2,6,0,-5,4,22,43,51,39,28,10
-4,4,9,0,-7,6,22,46,55,44,32,14
-6,6,12,0,-8,9,22,48,59,49,36,16
-5,8,13,-2,-8,11,22,49,62,53,40,19
-4,10,14,-4,-8,13,22,51,65,57,43,23
-3,12,15,-5,-8,15,22,53,68,60,47,26
-2,14,16,-6,-9,16,22,54,71,64,51,29
0,16,15,-8,-8,16,21,54,74,67,53,31
2,17,15,-10,-7,16,20,55,76,69,55,32
3,19,16,-11,-6,18,19,57,78,73,58,35
4,22,18,-13,-6,20,19,59,81,76,62,38
5,25,19,-15,-6,22,19,59,82,79,64,40
7,27,19,-17,-5,23,18,59,83,81,67,42
9,28,19,-19,-4,24,18,58,84,82,69,44
10,30,20,-20,-4,25,17,57,84,83,71,46
11,31,20,-21,-5,26,15,56,85,84,72,48
10,32,22,-21,-6,27,14,55,85,86,74,50
8,34,25,-21,-8,29,14,55,85,87,76,52
8,35,26,-22,-9,30,13,55,85,88,77,54
9,36,27,-22,-8,31,12,55,85,88,78,55
10,37,27,-24,-7,32,11,54,84,88,79,56
11,38,27,-25,-7,33,11,54,84,88,79,56
11,39,28,-25,-8,34,11,54,83,87,79,57
10,39,28,-24,-9,34,10,52,81,86,78,57
10,38,28,-24,-9,33,9,50,79,84,77,57
11,39,27,-25,-8,33,7,47,77,82,75,56
12,40,26,-26,-7,33,6,45,74,80,74,56
13,40,26,-27,-6,33,6,43,72,78,73,54
13,39,25,-27,-5,32,5,41,69,75,71,52
13,38,24,-26,-5,31,4,39,66,72,68,50
12,37,24,-25,-6,31,4,38,64,69,66,47
11,36,24,-24,-6,30,4,37,61,66,62,44
11,35,23,-23,-5,29,3,35,58,61,58,41
13,34,20,-23,-3,27,2,32,54,56,53,38
13,32,18,-23,-2,25,1,30,50,51,48,35
11,30,18,-21,-3,24,1,28,46,48,44,32
7,28,20,-18,-5,24,2,26,44,45,42,31
5,26,20,-17,-6,23,2,25,41,41,39,28
5,24,18,-16,-6,21,2,23,38,37,35,26
5,23,16,-14,-5,20,2,22,35,34,31,23
4,21,15,-13,-5,19,2,20,32,31,28,21
4,20,14,-13,-4,18,2,19,29,27,25,18
5,19,13,-12,-3,16,2,18,27,24,22,15
5,17,11,-12,-2,15,2,16,24,21,18,12
5,15,10,-10,-2,13,2,15,21,17,15,9
4,13,9,-9,-1,11,2,13,19,14,12,7
4,11,7,-7,-1,9,2,13,17,11,9,5
4,9,5,-7,0,7,2,12,14,8,7,3
5,8,3,-6,1,6,2,12,12,6,4,1
5,7,2,-6,1,5,2,11,11,4,2,0
3,6,3,-4,0,5,3,11,10,3,1,0
1,3,2,-2,0,3,3,10,8,1,-1,-2
0,0,1,0,0,0,3,9,6,0,-4,-5
-1,-3,0,2,0,-2,3,9,5,-2,-6,-8
-3,-4,0,3,-2,-2,4,9,5,-2,-7,-9
-5,-5,1,4,-3,-2,5,10,5,-3,-7,-10
-6,-6,0,5,-3,-3,6,9,4,-4,-9,-11
-4,-7,-3,5,0,-5,5,7,2,-6,-11,-13
-1,-7,-7,4,3,-7,5,6,0,-8,-13,-14
-1,-8,-8,4,4,-8,5,6,0,-9,-14,-15
-3,-9,-7,6,2,-8,6,6,0,-10,-14,-15
-4,-10,-6,7,1,-8,6,6,-1,-10,-15,-15
-4,-11,-6,7,1,-9,5,6,-1,-11,-16,-16
-3,-11,-7,7,2,-9,5,7,-1,-12,-16,-16
-3,-12,-8,6,3,-10,5,8,-1,-12,-17,-17
-2,-12,-9,6,4,-10,5,8,0,-13,-17,-18
-2,-12,-9,6,4,-10,5,8,0,-13,-17,-18
-2,-12,-9,7,4,-10,6,9,0,-12,-17,-17
-2,-12,-9,7,4,-10,7,8,0,-12,-17,-17
-2,-12,-10,7,4,-11,7,7,-1,-13,-18,-18
-2,-13,-10,7,4,-12,7,6,-2,-13,-18,-18
-2,-14,-11,7,4,-12,7,7,-2,-13,-18,-18
-3,-14,-11,7,4,-12,8,8,-1,-12,-17,-17
-5,-16,-10,9,2,-13,8,9,-1,-12,-17,-18
-7,-17,-10,12,1,-13,7,8,-2,-12,-17,-18
-8,-17,-9,12,1,-13,7,7,-2,-12,-17,-19
-7,-17,-10,12,2,-13,7,6,-3,-13,-18,-19
-6,-17,-11,11,3,-14,7,6,-3,-13,-18,-20
-7,-17,-10,12,1,-13,7,6,-3,-13,-18,-20
-9,-18,-8,13,0,-13,8,7,-2,-13,-18,-20
-9,-18,-7,13,-1,-13,9,7,-2,-13,-17,-20
-10,-18,-7,14,-1,-13,9,8,-1,-13,-17,-19
-10,-18,-7,14,-1,-13,10,9,-1,-12,-17,-19
-9,-18,-9,13,0,-13,9,9,-1,-12,-17,-19
-5,-17,-11,11,3,-14,9,9,-1,-13,-18,-19
-3,-15,-11,9,4,-13,9,9,-1,-12,-17,-18
-3,-14,-10,9,3,-12,10,10,0,-11,-16,-16
-3,-13,-9,8,2,-11,11,10,1,-10,-15,-15
-3,-12,-9,7,2,-10,11,10,1,-10,-14,-15
-2,-12,-9,6,3,-10,9,10,1,-10,-14,-15
-2,-11,-9,6,3,-10,8,9,1,-10,-13,-15
-2,-11,-9,6,3,-10,7,9,1,-10,-13,-15
-2,-12,-9,7,4,-10,7,10,1,-10,-13,-15
-1,-11,-9,6,4,-10,8,11,2,-9,-12,-14
0,-10,-10,5,5,-10,9,12,3,-8,-11,-13
1,-10,-10,5,6,-10,9,12,4,-7,-11,-13
0,-11,-11,5,5,-11,10,12,4,-7,-11,-13
-1,-12,-10,6,4,-11,11,13,4,-6,-11,-13
-2,-12,-10,7,4,-11,12,15,5,-5,-10,-12
-2,-12,-11,7,5,-12,13,16,6,-4,-9,-11
1,-12,-13,5,8,-13,13,16,7,-4,-9,-11
3,-12,-15,4,10,-14,12,16,7,-4,-9,-11
4,-12,-16,5,10,-14,12,16,7,-4,-8,-11
3,-12,-15,5,9,-14,12,16,7,-3,-8,-11
2,-11,-13,5,7,-12,12,16,7,-3,-7,-10
2,-9,-12,4,6,-11,9,13,6,-4,-7,-10
3,-7,-11,2,6,-9,5,10,3,-5,-8,-9
3,-5,-9,1,6,-7,3,7,1,-6,-8,-9
4,-3,-8,0,5,-6,1,5,0,-7,-9,-8
4,-2,-6,0,5,-4,1,3,-1,-8,-10,-9
3,-1,-5,0,4,-3,0,2,-3,-10,-11,-10
3,-1,-4,0,3,-2,0,1,-5,-12,-13,-12
3,0,-3,-1,3,-2,0,-1,-7,-14,-15,-14
3,0,-3,-1,3,-2,-1,-3,-9,-16,-17,-15
3,0,-3,-2,3,-2,-1,-4,-10,-18,-18,-15
3,0,-3,-1,2,-2,-1,-5,-11,-19,-19,-15
2,-1,-4,0,2,-2,-1,-5,-12,-19,-19,-15
2,-2,-5,0,3,-3,-2,-6,-13,-20,-20,-16
2,-5,-7,1,4,-5,-2,-7,-14,-21,-21,-17
1,-7,-8,3,4,-7,-2,-7,-15,-22,-21,-18
-1,-10,-8,5,3,-8,-2,-7,-15,-22,-22,-19
-3,-12,-8,7,2,-10,-1,-6,-16,-23,-23,-19
-4,-14,-9,9,2,-11,0,-6,-16,-23,-23,-19
-4,-15,-10,9,3,-12,0,-6,-16,-23,-24,-20
-3,-16,-12,9,4,-14,1,-5,-16,-23,-25,-21
-5,-17,-12,10,4,-14,3,-5,-15,-23,-25,-22
-7,-18,-10,12,2,-14,5,-4,-14,-22,-25,-22
-9,-18,-9,13,0,-14,7,-3,-13,-22,-25,-22
-9,-19,-9,14,0,-15,7,-3,-13,-22,-25,-23
-9,-20,-9,15,0,-15,8,-3,-13,-23,-26,-23
-11,-21,-9,16,0,-15,8,-3,-14,-23,-26,-24
-12,-21,-9,17,-1,-15,8,-2,-14,-24,-26,-24
-12,-21,-9,16,0,-15,8,-2,-14,-24,-27,-24
-10,-21,-11,15,1,-16,8,-3,-15,-25,-27,-24
-10,-21,-11,15,1,-16,7,-4,-16,-25,-27,-24
-10,-21,-10,15,0,-16,7,-4,-16,-26,-27,-24
-9,-21,-11,15,1,-16,7,-4,-17,-26,-27,-24
-9,-21,-11,15,1,-16,6,-5,-17,-27,-29,-25
-8,-22,-13,15,2,-17,6,-6,-18,-28,-30,-26
-7,-22,-14,14,3,-18,6,-6,-18,-28,-30,-26
-8,-22,-13,14,3,-17,7,-5,-17,-27,-29,-26
-9,-21,-13,15,2,-17,8,-4,-17,-27,-28,-25
-8,-21,-14,14,3,-18,7,-4,-17,-27,-28,-26
-9,-21,-13,15,2,-17,7,-4,-17,-26,-28,-26
-11,-22,-11,16,0,-16,7,-4,-16,-25,-27,-25
-10,-22,-10,16,0,-16,6,-4,-15,-24,-27,-25
-9,-21,-11,16,0,-16,6,-4,-15,-24,-27,-25
-10,-21,-11,16,0,-16,6,-4,-15,-24,-26,-24
-10,-21,-11,16,0,-16,7,-2,-14,-23,-25,-24
-10,-22,-11,16,0,-16,9,0,-12,-22,-24,-24
-11,-22,-11,16,0,-17,10,4,-8,-20,-23,-24
-11,-23,-11,17,1,-17,13,11,-2,-15,-21,-24
-9,-22,-12,15,2,-17,16,21,8,-7,-17,-22
-6,-20,-14,12,4,-17,21,35,24,6,-9,-17
-2,-18,-15,9,6,-16,28,54,44,24,3,-8
1,-15,-15,6,8,-15,36,76,69,46,20,4
4,-11,-15,2,10,-13,45,101,97,73,42,20
8,-5,-13,-1,10,-9,53,119,122,99,65,37
10,0,-10,-5,10,-5,56,123,133,117,86,54
12,6,-6,-9,9,0,53,112,131,126,103,70
14,13,0,-14,8,6,46,91,120,130,117,86
17,22,5,-20,7,14,35,62,101,129,130,101
21,34,13,-28,5,23,19,24,75,125,141,115
27,48,22,-37,3,35,-2,-21,43,118,153,131
35,63,28,-49,4,45,-32,-74,5,107,164,147
45,78,33,-62,6,55,-67,-130,-37,92,171,161
56,94,37,-75,9,66,-102,-182,-78,74,175,173
67,110,42,-88,12,76,-136,-227,-117,54,173,181
77,126,48,-102,14,87,-170,-267,-152,31,163,184
87,142,54,-115,16,98,-200,-299,-181,7,147,179
95,150,54,-123,21,102,-221,-315,-202,-15,126,167
100,142,42,-121,29,92,-229,-316,-215,-42,93,142
99,121,23,-110,38,72,-228,-311,-229,-80,45,102
88,100,12,-94,38,56,-220,-304,-245,-124,-11,55
71,86,15,-79,28,50,-205,-293,-256,-165,-63,12
51,76,24,-64,13,50,-183,-272,-253,-188,-98,-20
34,64,29,-49,2,46,-158,-242,-236,-191,-116,-40
22,50,28,-36,-2,39,-133,-208,-210,-181,-121,-52
13,37,24,-25,-5,30,-110,-175,-182,-165,-118,-59
5,25,21,-15,-7,23,-89,-145,-155,-145,-110,-61
-2,16,20,-6,-11,18,-70,-117,-129,-125,-100,-60
-8,9,18,0,-13,13,-53,-92,-104,-105,-88,-57
-10,2,13,4,-11,7,-38,-69,-82,-87,-76,-53
-10,-3,7,7,-9,1,-25,-49,-63,-71,-65,-48
-10,-8,1,9,-6,-4,-15,-33,-48,-58,-56,-43
-9,-12,-4,10,-2,-9,-7,-20,-36,-49,-50,-39
-8,-15,-8,11,1,-12,-2,-11,-28,-42,-46,-37
-8,-18,-10,13,1,-14,2,-5,-23,-38,-43,-36
-12,-21,-9,17,0,-15,6,-1,-18,-34,-41,-36
-15,-23,-8,19,-3,-15,9,3,-14,-32,-40,-35
-15,-24,-8,20,-3,-16,11,5,-12,-30,-39,-35
-14,-25,-11,19,-1,-17,12,6,-10,-29,-38,-35
-13,-25,-13,19,0,-19,13,8,-9,-28,-37,-35
-13,-26,-14,19,0,-19,14,11,-7,-26,-37,-35
-13,-26,-14,19,1,-20,15,13,-6,-25,-36,-35
-12,-27,-15,19,1,-20,16,14,-5,-25,-36,-35
-11,-27,-16,19,3,-21,16,13,-4,-24,-36,-35
-11,-28,-16,19,3,-22,16,13,-4,-24,-36,-35
-11,-28,-15,19,2,-21,16,13,-3,-23,-35,-35
-11,-27,-16,19,2,-21,17,13,-2,-22,-34,-34
-10,-26,-16,18,3,-21,17,14,-2,-21,-33,-34
-11,-25,-14,18,1,-20,17,15,-1,-20,-32,-32
-14,-25,-12,19,0,-19,18,16,0,-18,-30,-30
-15,-26,-11,20,-1,-19,19,16,0,-17,-29,-29
-15,-26,-11,20,-1,-19,20,17,1,-16,-28,-28
-15,-26,-11,21,-2,-19,20,18,1,-15,-27,-27
-15,-26,-11,21,-2,-19,20,19,2,-14,-26,-27
-14,-26,-12,20,-1,-19,20,19,3,-14,-26,-26
-13,-27,-14,20,0,-20,20,18,3,-14,-26,-26
-12,-27,-15,19,1,-21,20,18,3,-13,-26,-26
-11,-26,-16,18,2,-21,20,19,4,-12,-26,-26
-11,-26,-15,18,2,-20,20,20,5,-12,-25,-26
-11,-25,-13,18,2,-19,20,21,6,-11,-25,-25
-12,-24,-12,18,1,-18,19,21,7,-11,-24,-24
-12,-23,-10,17,0,-17,19,21,7,-11,-24,-23
-11,-22,-10,16,0,-16,19,20,7,-11,-24,-22
-10,-21,-10,15,1,-16,18,20,8,-10,-23,-21
-10,-20,-9,15,0,-15,18,21,9,-8,-21,-20
-11,-18,-6,15,-2,-13,18,22,11,-6,-19,-19
-12,-17,-4,15,-3,-11,19,23,13,-4,-17,-19
-11,-16,-4,14,-3,-10,19,23,14,-2,-15,-18
-9,-15,-4,12,-1,-10,18,23,14,-1,-14,-18
-7,-14,-5,10,0,-9,18,24,15,0,-12,-18
-8,-14,-5,11,0,-9,18,24,16,1,-12,-18
-9,-15,-5,11,-1,-10,18,25,17,2,-11,-18
-10,-14,-5,12,-1,-9,19,25,19,4,-10,-17
-10,-14,-4,12,-2,-8,19,26,21,6,-9,-15
-11,-13,-3,12,-3,-8,19,27,22,7,-8,-13
-10,-13,-3,11,-3,-8,19,28,24,9,-7,-12
-10,-13,-2,11,-3,-7,19,29,25,10,-5,-11
-10,-12,-1,10,-4,-7,19,30,27,12,-4,-10
-10,-11,0,10,-4,-6,19,32,28,14,-2,-9
-9,-10,0,9,-4,-5,19,33,30,17,0,-8
-8,-8,0,8,-3,-4,19,33,32,19,2,-7
-6,-7,-1,6,-2,-4,19,33,34,21,4,-6
-5,-5,0,5,-2,-3,19,34,37,24,6,-3
-5,-4,1,5,-2,-2,20,36,39,27,9,-1
-3,-4,0,3,-1,-2,19,37,41,29,11,0
-1,-3,0,2,0,-2,18,38,43,32,13,2
-2,-2,1,2,-1,0,18,39,46,35,16,4
-5,-1,4,2,-4,1,19,40,49,39,20,7
-5,0,6,1,-6,4,20,42,52,43,24,11
-5,3,7,0,-6,6,20,44,56,47,29,15
-6,4,10,0,-8,7,21,46,59,51,33,18
-6,6,12,0,-9,9,21,48,62,55,36,21
-4,9,13,-2,-9,11,21,50,65,59,40,23
-2,11,15,-4,-8,13,21,51,69,64,43,27
-1,14,16,-6,-8,16,21,53,72,68,47,30
0,16,17,-8,-8,17,20,54,74,72,51,33
1,18,18,-10,-7,18,19,56,76,74,54,35
1,20,18,-11,-8,20,18,56,78,76,57,37
3,22,19,-13,-8,21,17,54,79,78,59,39
4,24,20,-14,-7,22,16,53,80,79,61,41
5,26,21,-16,-7,24,16,52,80,81,62,43
6,28,22,-17,-7,25,15,52,81,82,64,46
6,29,24,-17,-8,27,15,52,82,84,66,49
6,31,25,-19,-8,29,14,53,83,86,68,51
7,33,26,-20,-8,30,14,53,83,87,70,53
8,34,25,-21,-8,30,13,52,83,88,71,54
9,35,24,-22,-7,30,12,52,83,88,71,55
9,35,25,-23,-8,30,11,52,83,88,72,56
8,36,27,-22,-9,31,11,52,83,88,72,56
7,36,29,-22,-10,32,10,52,82,88,72,56
9,37,29,-23,-10,33,8,50,81,87,72,56
11,39,28,-25,-8,33,7,48,79,86,72,56
13,40,28,-26,-7,34,6,46,77,84,72,54
12,40,28,-26,-7,34,5,44,75,82,70,52
11,40,29,-26,-8,34,4,43,73,80,68,51
9,40,30,-25,-10,35,4,42,71,78,66,50
9,39,29,-24,-10,34,3,40,68,75,63,49
11,38,27,-24,-8,33,1,37,64,71,59,46
12,37,25,-25,-6,31,0,33,59,67,55,43
12,37,25,-25,-6,31,0,31,56,63,51,40
11,35,25,-23,-6,30,0,29,53,60,49,37
8,33,25,-21,-8,30,0,28,51,56,46,35
7,32,24,-20,-8,28,0,26,48,52,42,33
8,30,21,-19,-6,26,-1,25,45,48,38,30
9,29,18,-19,-4,24,-1,24,41,44,33,28
8,26,17,-17,-4,22,-1,22,38,40,29,26
8,23,15,-16,-3,19,-1,20,35,36,26,23
8,21,14,-14,-3,17,-1,19,32,32,23,20
7,19,13,-13,-3,16,0,18,29,30,20,17
6,18,12,-12,-3,15,0,17,28,27,18,15
5,17,11,-11,-2,14,0,16,26,24,15,13
6,15,8,-10,-1,11,0,15,23,21,12,10
6,13,6,-9,0,9,0,14,21,18,8,8
4,10,5,-7,0,7,0,13,18,15,5,6
2,8,6,-4,-1,7,0,12,16,12,3,4
0,6,7,-2,-3,6,0,11,15,10,1,3
-2,4,7,-1,-4,6,1,11,13,8,0,2
-3,3,6,0,-4,5,1,10,12,6,-1,1
-2,1,4,0,-3,3,0,9,9,4,-4,-1
-2,0,1,1,-2,1,0,8,7,1,-6,-3
-2,-1,0,1,-1,0,1,8,6,0,-8,-5
-2,-1,0,1,-1,-1,1,9,6,-2,-11,-6
-2,-2,0,2,0,-1,2,8,5,-3,-13,-8
-2,-4,0,3,0,-2,2,7,4,-5,-15,-10
-3,-5,0,4,-1,-2,1,5,2,-6,-16,-12
-4,-5,0,4,-1,-3,1,4,1,-7,-17,-13
-4,-5,-1,4,-1,-3,1,4,0,-8,-17,-14
-4,-5,-1,4,-1,-4,2,5,0,-9,-18,-14
-5,-6,-1,5,-1,-4,2,5,0,-10,-19,-15
-6,-7,-1,7,-2,-5,2,5,0,-11,-20,-15
-6,-8,-2,7,-2,-6,2,5,-1,-12,-22,-16
-4,-9,-5,6,0,-7,2,4,-2,-14,-23,-18
-2,-10,-7,6,3,-9,2,4,-3,-15,-24,-19
-2,-11,-8,6,3,-9,2,4,-3,-15,-24,-19
-3,-12,-8,7,2,-9,2,3,-4,-15,-24,-20
-4,-12,-8,8,2,-10,2,3,-4,-15,-24,-20
-6,-13,-7,9,1,-10,3,2,-5,-15,-24,-19
-7,-14,-8,10,0,-11,3,2,-5,-15,-24,-19
-7,-15,-8,10,0,-11,4,3,-4,-15,-24,-18
-7,-15,-7,11,0,-11,5,4,-3,-15,-24,-18
-7,-15,-6,11,0,-10,6,6,-2,-14,-23,-17
-7,-15,-7,11,0,-11,6,7,-2,-14,-24,-18
-8,-17,-8,12,0,-13,5,7,-2,-15,-25,-19
-8,-18,-9,12,0,-13,5,7,-2,-15,-25,-19
-8,-18,-9,12,1,-14,4,6,-3,-15,-25,-19
-8,-18,-10,13,1,-14,3,5,-3,-15,-25,-19
-8,-18,-9,13,0,-14,4,4,-4,-15,-25,-19
-8,-18,-9,13,0,-13,4,4,-4,-15,-24,-19
-7,-18,-9,13,0,-13,5,5,-4,-15,-24,-19
-4,-18,-12,11,3,-14,4,4,-4,-15,-24,-19
-2,-18,-14,10,5,-15,4,4,-5,-15,-24,-19
-5,-18,-12,11,3,-15,4,5,-4,-15,-23,-18
-8,-18,-9,12,0,-13,5,6,-3,-14,-23,-17
-9,-17,-9,12,0,-13,5,7,-3,-14,-23,-17
-7,-17,-10,12,1,-13,4,6,-4,-15,-24,-17
-5,-16,-11,11,2,-13,3,6,-4,-15,-24,-18
-5,-16,-10,11,2,-12,3,6,-4,-15,-24,-17
-4,-14,-9,10,2,-11,4,6,-3,-14,-23,-17
-4,-13,-8,8,2,-10,4,6,-2,-14,-22,-16
-3,-11,-7,7,2,-9,4,6,-2,-13,-21,-16
-3,-9,-6,6,2,-7,3,6,-1,-11,-19,-15
-2,-7,-6,4,2,-6,3,6,-1,-10,-18,-14
0,-5,-5,3,2,-5,3,7,0,-9,-17,-14
0,-5,-5,2,2,-5,3,8,1,-8,-17,-13
0,-6,-5,3,2,-5,4,8,1,-8,-16,-12
0,-7,-6,4,2,-6,4,9,2,-8,-16,-12
-1,-8,-6,5,2,-6,4,9,2,-9,-17,-11
-2,-8,-6,5,2,-7,6,11,3,-8,-16,-11
-1,-8,-7,5,3,-8,7,12,3,-8,-16,-11
0,-8,-10,4,5,-9,8,12,3,-7,-16,-11
2,-8,-11,3,6,-9,9,12,3,-7,-16,-11
3,-8,-12,3,7,-10,9,12,3,-7,-16,-11
3,-9,-13,3,8,-10,8,12,3,-7,-16,-11
3,-10,-13,3,7,-10,8,12,4,-7,-16,-11
3,-9,-12,3,7,-10,8,12,4,-6,-15,-10
3,-7,-11,1,7,-9,6,10,3,-6,-14,-9
4,-5,-10,0,7,-8,3,7,1,-7,-14,-8
4,-4,-9,0,7,-7,0,3,-1,-8,-14,-8
4,-3,-8,-1,6,-5,-1,1,-3,-9,-15,-8
4,-2,-7,-1,5,-4,-1,0,-4,-10,-15,-7
3,-1,-5,0,4,-3,-1,0,-5,-11,-15,-8
2,0,-2,0,2,-1,-1,-1,-6,-13,-17,-9
3,1,-1,-2,2,0,-1,-2,-8,-14,-18,-11
4,2,-1,-3,3,0,-2,-3,-9,-16,-20,-12
1,1,0,-1,1,1,-2,-5,-11,-17,-22,-13
-3,0,2,1,-2,1,-1,-5,-11,-18,-22,-13
-4,-1,2,2,-2,0,-1,-6,-12,-19,-23,-13
-3,-3,0,2,-1,-1,-2,-7,-14,-20,-23,-14
-3,-4,-3,3,0,-3,-2,-9,-15,-21,-24,-15
-1,-6,-5,3,2,-5,-2,-9,-16,-22,-24,-16
0,-8,-9,3,4,-8,-2,-10,-17,-23,-25,-16
1,-10,-12,3,7,-11,-2,-9,-17,-23,-26,-17
1,-13,-14,5,8,-13,-2,-9,-18,-24,-27,-18
0,-15,-15,7,8,-15,-1,-8,-18,-24,-27,-19
-2,-17,-16,10,7,-16,0,-8,-18,-25,-28,-20
-3,-19,-16,11,7,-17,1,-7,-18,-25,-29,-22
-5,-19,-15,12,5,-17,2,-6,-18,-25,-29,-23
-7,-20,-13,14,3,-17,4,-5,-17,-25,-30,-23
-9,-21,-12,15,1,-17,6,-4,-17,-26,-30,-23
-10,-21,-11,16,0,-17,7,-4,-17,-26,-31,-24
-10,-22,-12,16,1,-17,7,-4,-18,-27,-32,-25
-9,-23,-14,16,2,-18,6,-5,-19,-28,-33,-25
-10,-24,-14,17,2,-19,6,-6,-19,-28,-33,-25
-11,-24,-13,18,1,-18,7,-6,-19,-28,-33,-25
-12,-25,-13,18,0,-18,7,-6,-20,-29,-33,-25
-12,-25,-13,18,0,-19,6,-7,-21,-30,-34,-25
-12,-25,-13,18,0,-19,5,-7,-21,-30,-34,-25
-10,-24,-13,17,1,-19,5,-7,-21,-30,-33,-25
-8,-24,-15,15,4,-19,5,-7,-21,-30,-33,-26
-8,-24,-15,16,4,-20,5,-7,-21,-30,-33,-26
-10,-25,-15,17,2,-19,5,-7,-20,-29,-33,-26
-11,-25,-15,18,2,-19,5,-6,-19,-29,-33,-26
-10,-25,-15,17,2,-19,5,-6,-19,-29,-33,-26
-9,-24,-15,16,2,-19,6,-5,-19,-29,-33,-26
-7,-23,-15,15,3,-19,6,-5,-19,-29,-33,-26
-7,-24,-15,15,4,-19,6,-5,-19,-29,-33,-26
-7,-24,-15,16,4,-19,6,-4,-18,-29,-33,-26
-7,-24,-16,16,5,-19,6,-5,-18,-28,-33,-26
-8,-24,-16,16,4,-20,6,-5,-18,-28,-32,-26
-9,-25,-16,17,3,-20,7,-4,-16,-26,-32,-26
-9,-25,-16,17,3,-20,9,0,-13,-24,-31,-25
-9,-24,-16,16,3,-20,12,6,-7,-20,-29,-24
-8,-23,-15,15,3,-19,16,15,1,-13,-25,-22
-5,-22,-16,13,5,-19,21,28,15,-2,-18,-18
-1,-19,-17,10,8,-19,26,45,33,14,-6,-11
2,-16,-18,7,10,-18,33,67,57,35,10,0
4,-11,-17,3,11,-14,43,93,87,62,32,16
7,-5,-14,-1,11,-9,52,116,115,91,57,34
9,0,-10,-5,10,-4,56,124,131,113,80,52
13,7,-7,-11,10,0,54,116,133,125,98,68
17,14,-3,-16,10,6,48,96,124,130,112,82
17,23,6,-20,5,14,40,69,109,131,126,97
18,33,16,-26,0,25,26,35,85,129,139,112
22,47,25,-34,-2,36,6,-8,55,123,151,127
29,61,32,-45,-2,47,-22,-59,19,113,160,142
39,76,36,-58,2,56,-58,-115,-22,98,167,156
52,91,38,-71,7,65,-95,-168,-64,81,171,168
63,107,42,-85,10,75,-130,-214,-102,62,170,177
74,122,48,-99,13,85,-166,-256,-138,40,162,180
85,139,54,-112,15,96,-199,-290,-169,17,148,177
94,149,56,-121,19,102,-223,-310,-191,-6,128,167
99,145,46,-122,27,95,-234,-315,-206,-32,98,145
99,126,28,-112,35,78,-234,-312,-221,-69,53,108
90,105,15,-97,38,61,-227,-308,-239,-114,-2,62
74,89,14,-82,30,52,-214,-300,-254,-157,-56,17
56,78,21,-67,17,50,-194,-283,-255,-185,-94,-17
39,66,27,-53,6,47,-170,-254,-240,-191,-113,-38
25,52,26,-39,0,39,-143,-219,-215,-182,-118,-51
15,39,23,-27,-4,30,-118,-184,-187,-167,-116,-57
8,27,19,-18,-5,23,-95,-151,-160,-149,-111,-60
3,17,15,-10,-6,16,-76,-123,-136,-132,-103,-60
-1,9,11,-3,-6,11,-59,-98,-112,-114,-94,-59
-6,1,8,2,-7,5,-43,-75,-89,-95,-82,-56
-9,-5,4,7,-6,0,-29,-54,-70,-79,-71,-52
-10,-11,-1,10,-3,-6,-18,-37,-54,-65,-61,-48
-11,-15,-5,13,-1,-11,-9,-24,-41,-55,-54,-43
-13,-20,-8,16,-2,-15,-2,-15,-33,-48,-49,-40
-15,-24,-8,19,-3,-16,2,-8,-27,-43,-47,-39
-16,-26,-10,21,-3,-18,6,-4,-23,-40,-45,-38
-14,-27,-13,21,0,-20,8,-1,-21,-39,-45,-38
-13,-28,-15,21,1,-21,9,0,-19,-37,-44,-38
-14,-29,-14,21,0,-21,11,3,-16,-35,-43,-37
-15,-29,-14,22,0,-21,13,5,-13,-33,-41,-36
-16,-29,-13,22,-1,-21,14,7,-11,-32,-41,-35
-16,-30,-14,23,-1,-22,15,9,-10,-31,-40,-35
-15,-30,-15,22,0,-22,16,11,-9,-30,-39,-36
-14,-30,-15,22,1,-22,17,12,-8,-30,-39,-36
-14,-30,-15,22,0,-22,18,13,-7,-29,-39,-37
-14,-29,-14,22,0,-21,19,14,-6,-28,-39,-37
-14,-29,-13,22,0,-20,19,14,-5,-27,-38,-37
-15,-28,-12,21,0,-20,19,14,-5,-26,-37,-36
-14,-28,-12,21,0,-20,19,14,-5,-25,-36,-35
-15,-28,-12,21,-1,-20,19,14,-5,-25,-36,-34
-15,-28,-12,21,-1,-20,19,13,-5,-25,-35,-34
-14,-28,-13,20,0,-20,19,13,-5,-25,-35,-33
-13,-27,-14,20,0,-21,19,13,-4,-24,-35,-33
-12,-27,-14,20,1,-21,19,13,-4,-23,-35,-32
-12,-27,-13,19,1,-20,20,14,-3,-22,-34,-30
-12,-26,-13,19,0,-19,20,15,-1,-20,-32,-29
-12,-26,-13,18,1,-19,20,16,0,-18,-31,-28
-12,-26,-13,18,1,-20,20,17,0,-17,-31,-28
-12,-26,-14,19,1,-21,20,18,1,-17,-31,-28
-12,-27,-15,19,1,-21,19,17,1,-17,-31,-28
-13,-27,-14,20,1,-21,19,17,1,-16,-31,-28
-14,-27,-13,20,0,-20,19,17,3,-15,-30,-27
-14,-26,-11,20,-1,-19,20,18,4,-14,-28,-25
-15,-26,-11,20,-1,-19,20,18,5,-13,-27,-25
-14,-26,-11,20,-1,-19,19,19,5,-13,-26,-24
-13,-25,-11,19,0,-18,19,19,6,-12,-25,-24
-14,-23,-10,18,-1,-17,20,21,8,-10,-24,-23
-14,-21,-8,18,-3,-15,20,22,9,-9,-23,-22
-13,-20,-8,17,-2,-14,20,22,10,-8,-22,-21
-12,-19,-7,16,-3,-13,19,22,11,-7,-21,-20
-13,-19,-4,16,-4,-11,19,22,13,-5,-19,-19
-13,-18,-3,15,-5,-10,20,23,14,-3,-17,-17
-11,-16,-4,14,-3,-10,20,24,15,-2,-16,-16
-10,-15,-5,13,-2,-11,20,25,16,-2,-16,-15
-9,-14,-6,12,-1,-11,20,26,18,0,-15,-15
-8,-13,-6,10,-1,-10,20,27,19,1,-13,-14
-6,-12,-6,9,0,-10,20,27,21,3,-12,-13
-6,-11,-6,9,0,-9,20,28,23,5,-10,-13
-7,-11,-4,9,-1,-8,20,28,24,7,-8,-12
-9,-11,-2,10,-3,-7,20,29,26,10,-6,-10
-11,-11,1,11,-6,-5,20,30,28,12,-3,-8
-12,-9,3,10,-7,-4,20,32,30,14,-1,-7
-10,-8,2,9,-6,-3,20,32,31,16,0,-5
-9,-6,1,7,-5,-3,20,33,33,18,2,-3
-8,-5,2,7,-6,-1,20,34,36,21,5,-1
-8,-3,4,6,-6,0,20,35,38,24,8,1
-5,-1,4,4,-5,1,20,36,41,28,11,3
-3,0,3,2,-3,2,20,37,43,31,14,5
-2,2,4,0,-3,3,21,39,47,35,17,8
-3,3,7,0,-5,5,21,42,50,39,21,11
-3,5,9,-1,-5,7,21,45,54,43,25,13
-3,7,9,-3,-6,8,22,47,58,47,28,16
-4,8,11,-3,-8,10,22,49,62,51,32,20
-5,9,13,-3,-9,11,22,50,65,55,36,23
-4,11,13,-4,-8,12,21,51,67,58,40,25
-2,13,14,-6,-7,13,21,51,69,61,44,28
0,14,14,-8,-6,14,20,52,71,63,47,31
3,17,14,-10,-5,15,20,52,72,66,49,33
4,20,16,-12,-6,18,20,54,75,69,53,35
4,22,18,-13,-7,20,19,55,77,72,56,38
5,24,18,-14,-7,21,18,54,78,75,59,40
5,26,19,-15,-7,22,17,54,79,76,61,42
6,28,20,-16,-7,24,17,54,80,78,63,44
6,29,21,-17,-7,25,16,54,80,80,64,46
6,29,22,-18,-7,26,15,53,81,80,66,47
7,30,23,-19,-7,27,15,53,81,81,67,47
8,32,23,-20,-7,27,14,52,81,81,67,47
9,32,23,-21,-7,28,14,52,80,81,67,47
8,33,24,-21,-7,28,13,51,80,81,67,48
8,34,25,-21,-8,30,12,51,79,81,67,49
8,35,25,-22,-8,31,11,50,78,81,67,50
8,36,25,-22,-8,31,10,48,76,79,67,50
9,36,25,-23,-7,30,9,46,74,77,66,49
10,36,24,-23,-6,30,8,44,71,75,65,48
11,35,23,-23,-5,29,7,41,68,72,63,47
12,35,22,-24,-5,29,6,39,65,69,60,45
12,35,22,-24,-4,28,5,38,62,66,58,44
11,35,23,-24,-5,29,5,37,61,63,55,42
8,33,24,-21,-7,29,5,36,59,61,53,41
6,31,24,-19,-8,27,5,33,55,57,49,39
7,29,22,-18,-7,25,4,30,50,53,45,36
9,29,19,-19,-5,24,3,28,46,49,41,34
10,28,18,-19,-3,23,3,26,43,45,38,31
9,26,17,-17,-4,22,3,24,40,41,35,29
6,24,17,-15,-5,21,3,23,37,37,31,27
5,22,16,-13,-5,19,2,21,34,33,28,24
6,21,13,-13,-3,17,2,20,31,29,24,20
8,20,10,-14,0,15,2,18,29,25,20,16
5,17,11,-11,-2,14,3,18,27,23,17,13
1,14,12,-7,-5,13,3,17,24,20,14,11
2,12,10,-6,-4,11,3,15,21,17,11,9
3,11,8,-7,-2,9,3,14,19,13,9,6
4,10,6,-7,-1,8,3,14,17,11,6,5
4,9,5,-6,0,7,4,13,15,8,4,3
3,7,3,-5,0,5,4,13,14,6,1,1
1,3,2,-2,0,3,4,12,12,3,-1,-1
0,1,0,-1,0,0,4,10,10,1,-4,-4
0,0,-1,0,1,-1,4,9,7,-1,-7,-6
0,-2,-3,1,2,-3,4,8,5,-4,-9,-9
0,-4,-4,2,2,-5,4,7,3,-6,-12,-11
0,-6,-5,3,2,-5,4,6,2,-8,-15,-13
0,-6,-6,3,2,-5,4,5,1,-10,-16,-14
-1,-6,-6,3,2,-6,4,5,0,-11,-17,-15
-1,-7,-6,4,2,-6,4,5,0,-12,-18,-16
-2,-8,-7,4,2,-7,4,5,-1,-13,-19,-18
-3,-8,-6,5,1,-7,5,5,-2,-13,-20,-19
-3,-9,-6,6,1,-8,5,5,-3,-14,-21,-20
-3,-10,-7,7,1,-8,6,4,-4,-16,-23,-21
-2,-10,-7,7,2,-9,6,4,-5,-17,-24,-22
-2,-11,-8,7,2,-9,6,4,-5,-18,-25,-22
-3,-12,-9,8,3,-10,6,4,-6,-19,-26,-23
-2,-13,-11,8,4,-12,5,4,-7,-21,-27,-25
-3,-14,-11,9,4,-13,5,3,-7,-21,-28,-25
-8,-15,-8,12,0,-12,7,4,-7,-21,-27,-25
-12,-16,-4,14,-4,-11,9,6,-6,-20,-26,-23
-12,-17,-5,14,-3,-11,9,6,-7,-20,-26,-24
-10,-17,-8,14,0,-13,9,6,-7,-21,-27,-25
-9,-18,-10,14,0,-14,8,5,-7,-21,-28,-25
-8,-19,-11,13,1,-15,8,5,-7,-21,-28,-25
-7,-19,-12,13,3,-15,8,5,-7,-21,-29,-26
-6,-19,-13,12,4,-16,8,5,-7,-21,-29,-26
-5,-19,-14,12,5,-17,8,5,-7,-21,-29,-27
-4,-19,-16,11,6,-17,7,5,-7,-21,-29,-28
-3,-19,-16,11,7,-18,7,5,-7,-21,-29,-29
-3,-19,-16,11,7,-18,7,5,-7,-21,-29,-30
-3,-19,-16,11,7,-18,7,5,-7,-21,-29,-29
-3,-20,-16,11,6,-18,8,5,-7,-21,-29,-28
-5,-20,-15,13,4,-18,8,5,-8,-21,-29,-27
-6,-21,-14,14,3,-17,8,5,-8,-21,-28,-26
-7,-21,-14,14,3,-17,8,6,-8,-21,-28,-26
-8,-21,-14,15,2,-17,9,6,-8,-20,-28,-26
-8,-22,-14,15,2,-18,9,6,-8,-20,-28,-26
-8,-23,-15,16,3,-19,9,6,-8,-20,-27,-26
-9,-23,-14,16,3,-19,9,6,-7,-19,-27,-26
-8,-22,-14,15,3,-18,9,7,-6,-18,-26,-25
-8,-20,-13,14,3,-17,10,8,-5,-17,-26,-24
-7,-19,-13,13,3,-16,10,9,-5,-17,-26,-23
-5,-17,-13,11,5,-15,9,8,-5,-18,-26,-23
-3,-16,-13,9,5,-15,9,8,-5,-18,-26,-23
-2,-15,-13,9,5,-14,9,8,-5,-17,-26,-23
-2,-15,-12,9,5,-14,10,8,-4,-17,-25,-22
-2,-14,-11,9,4,-13,10,8,-4,-16,-23,-22
-2,-14,-11,8,5,-13,11,9,-3,-15,-22,-21
-1,-13,-12,7,6,-13,11,10,-2,-14,-21,-20
0,-13,-13,6,7,-13,11,11,-1,-13,-21,-20
1,-13,-14,6,8,-13,11,12,0,-13,-20,-20
1,-13,-14,6,8,-14,11,13,0,-13,-20,-20
1,-14,-15,6,9,-15,12,14,0,-13,-20,-19
1,-14,-16,6,9,-15,12,15,0,-12,-19,-19
1,-15,-16,6,9,-16,13,15,0,-11,-19,-19
0,-15,-15,7,8,-16,13,15,1,-11,-18,-19
0,-16,-16,8,8,-16,12,15,0,-11,-18,-19
1,-16,-18,8,9,-17,11,14,0,-11,-18,-19
2,-15,-18,7,10,-17,10,14,0,-11,-18,-19
2,-14,-16,6,9,-15,8,12,0,-11,-18,-19
2,-11,-13,5,7,-12,5,10,-1,-11,-18,-18
2,-9,-10,3,6,-10,3,8,-3,-12,-18,-18
2,-7,-9,2,5,-8,1,6,-5,-14,-18,-18
4,-6,-9,1,6,-8,0,4,-7,-16,-18,-19
3,-5,-8,1,6,-7,0,2,-8,-17,-19,-19
0,-5,-4,2,3,-5,0,1,-9,-19,-20,-19
-2,-3,0,3,0,-2,0,0,-10,-20,-21,-19
-4,-2,2,3,-3,0,0,-1,-11,-21,-22,-19
-4,-1,3,3,-3,1,0,-3,-13,-22,-23,-20
-3,-2,1,2,-2,0,-1,-4,-15,-23,-24,-21
-2,-3,-1,2,0,-3,-2,-5,-17,-24,-25,-22
-2,-6,-4,3,1,-5,-2,-6,-18,-26,-27,-24
-3,-8,-5,5,2,-7,-1,-6,-18,-27,-27,-25
-3,-10,-7,6,2,-8,0,-6,-18,-27,-27,-25
-3,-12,-10,7,4,-11,0,-6,-18,-28,-28,-26
-2,-15,-14,8,6,-14,0,-6,-19,-29,-30,-28
-2,-18,-17,9,7,-17,0,-7,-20,-30,-31,-30
-2,-21,-19,11,8,-20,1,-6,-21,-31,-32,-31
-5,-23,-18,14,6,-21,3,-5,-20,-30,-33,-31
-8,-25,-16,17,3,-21,5,-4,-20,-30,-33,-31
-9,-25,-16,17,3,-21,5,-4,-20,-30,-33,-32
-7,-25,-18,16,5,-22,5,-4,-21,-32,-35,-34
-5,-25,-19,15,7,-23,4,-5,-21,-32,-36,-36
-5,-26,-20,15,8,-23,4,-5,-21,-33,-36,-37
-6,-26,-19,16,6,-22,4,-5,-21,-33,-36,-37
-8,-26,-17,17,4,-21,5,-4,-21,-32,-36,-36
-9,-26,-17,18,3,-21,6,-4,-22,-33,-36,-36
-9,-26,-17,18,4,-22,6,-4,-23,-35,-37,-35
-8,-25,-17,17,4,-21,6,-4,-24,-35,-37,-35
-9,-25,-16,17,4,-21,6,-5,-24,-35,-37,-34
-10,-25,-15,18,2,-20,6,-5,-24,-34,-36,-34
-11,-25,-14,19,1,-20,6,-5,-23,-34,-36,-33
-12,-26,-15,19,1,-20,6,-6,-23,-34,-36,-33
-11,-26,-16,19,2,-21,5,-6,-24,-34,-37,-33
-11,-27,-17,19,2,-22,5,-6,-24,-34,-37,-33
-11,-26,-16,19,2,-22,6,-6,-24,-34,-38,-33
-10,-26,-16,18,3,-21,6,-5,-24,-34,-38,-33
-9,-26,-17,18,4,-21,5,-5,-24,-34,-38,-34
-9,-26,-16,18,4,-21,5,-5,-23,-34,-38,-34
-9,-25,-16,17,4,-20,4,-5,-23,-34,-38,-35
-8,-24,-16,16,4,-20,4,-5,-22,-34,-37,-35
-6,-23,-17,15,5,-20,4,-5,-22,-33,-37,-35
-6,-23,-18,15,6,-20,4,-4,-21,-31,-37,-35
-8,-24,-17,17,4,-21,6,-2,-19,-29,-36,-34
-12,-26,-15,19,1,-21,8,1,-15,-26,-34,-33
-14,-26,-13,21,-1,-20,12,7,-8,-21,-31,-32
-15,-26,-12,21,-1,-19,17,17,1,-14,-27,-30
-12,-25,-13,19,0,-19,22,31,15,-3,-20,-26
-8,-23,-15,16,3,-19,28,49,34,13,-8,-19
-5,-19,-14,12,4,-17,35,71,58,35,8,-7
0,-14,-14,7,6,-14,44,97,87,62,30,8
5,-9,-14,2,9,-11,51,117,113,89,54,26
8,-3,-12,-3,10,-7,55,124,128,110,75,43
11,3,-7,-7,9,-2,54,116,130,121,93,59
13,11,-2,-12,8,4,49,97,121,127,107,74
16,19,3,-17,6,12,39,69,104,127,120,88
19,30,11,-24,4,21,24,33,80,123,131,102
23,43,19,-33,2,32,2,-11,49,116,141,117
30,58,27,-44,2,43,-26,-63,13,106,151,133
40,72,32,-56,4,52,-61,-118,-28,92,159,148
51,88,36,-69,7,62,-97,-170,-68,76,163,161
63,104,40,-83,11,72,-133,-216,-106,57,163,169
75,120,44,-98,15,82,-168,-257,-142,35,155,171
86,137,51,-111,17,94,-201,-291,-172,11,140,167
94,147,53,-120,20,100,-224,-310,-194,-12,119,157
99,143,43,-121,28,93,-234,-314,-209,-38,88,134
98,124,25,-112,37,75,-234,-311,-225,-75,42,97
89,102,13,-96,38,58,-227,-306,-242,-119,-13,50
72,86,14,-79,28,50,-213,-296,-255,-160,-65,6
53,75,21,-64,15,48,-192,-277,-255,-186,-101,-27
37,62,25,-50,6,43,-166,-248,-240,-191,-118,-47
25,48,22,-36,1,34,-140,-214,-216,-184,-124,-59
16,34,17,-25,0,25,-115,-179,-188,-169,-123,-65
9,21,13,-15,-1,17,-94,-147,-162,-152,-117,-67
2,11,9,-7,-2,10,-75,-119,-137,-134,-110,-68
-3,2,6,0,-4,5,-58,-93,-112,-114,-99,-67
-8,-5,4,6,-6,0,-41,-69,-89,-95,-87,-63
-11,-11,-1,11,-5,-6,-28,-49,-69,-78,-76,-59
-11,-17,-6,14,-2,-12,-17,-34,-53,-65,-67,-54
-11,-22,-11,17,0,-17,-8,-21,-42,-55,-60,-51
-13,-25,-13,19,0,-19,-2,-12,-34,-49,-55,-49
-14,-28,-14,20,0,-21,2,-6,-28,-45,-53,-47
-15,-29,-14,21,0,-21,6,-1,-24,-41,-50,-46
-15,-29,-14,22,0,-22,9,2,-20,-38,-48,-45
-15,-30,-15,23,0,-23,11,4,-18,-36,-47,-45
-16,-31,-15,23,0,-24,12,6,-16,-34,-46,-45
-16,-32,-16,24,0,-25,13,7,-14,-33,-46,-45
-15,-33,-18,24,2,-26,14,9,-13,-32,-46,-45
-15,-34,-20,24,2,-27,14,11,-12,-32,-46,-45
-16,-34,-19,25,1,-27,16,13,-10,-31,-45,-44
-18,-35,-18,26,0,-27,17,15,-9,-30,-45,-44
-19,-35,-17,27,0,-26,18,16,-8,-30,-45,-44
-19,-36,-17,28,-1,-26,19,17,-7,-29,-44,-43
-19,-36,-18,27,0,-27,19,17,-7,-28,-43,-43
-17,-37,-20,27,2,-29,18,16,-7,-27,-43,-42
-15,-37,-22,26,3,-30,18,15,-7,-26,-42,-42
-15,-37,-22,26,3,-29,18,16,-6,-25,-41,-41
-16,-37,-21,26,3,-28,19,17,-4,-24,-40,-40
-16,-37,-20,26,2,-28,19,17,-4,-23,-39,-39
-16,-36,-20,26,2,-28,19,17,-3,-22,-39,-39
-15,-35,-20,25,2,-27,19,17,-2,-20,-38,-38
-14,-34,-20,24,2,-27,18,17,-1,-19,-36,-37
-14,-32,-19,24,1,-26,18,18,0,-17,-34,-36
-16,-31,-15,24,-1,-23,19,20,2,-14,-32,-35
-16,-29,-14,23,-1,-21,19,20,3,-13,-31,-34
-14,-27,-14,20,0,-20,18,20,3,-13,-31,-35
-13,-25,-12,18,0,-19,18,21,4,-12,-31,-35
-12,-23,-11,17,0,-17,18,21,4,-12,-32,-36
-11,-22,-11,16,0,-17,17,20,4,-12,-32,-36
-12,-21,-9,17,-2,-15,17,20,5,-12,-32,-36
-17,-21,-5,19,-6,-13,18,21,6,-11,-30,-35
-18,-21,-4,20,-7,-12,18,22,7,-10,-29,-34
-17,-21,-5,19,-6,-13,18,22,8,-10,-28,-33
-15,-22,-7,18,-4,-14,18,23,8,-9,-28,-32
-15,-23,-8,19,-3,-15,19,25,10,-7,-27,-30
-14,-24,-10,19,-1,-17,19,26,11,-6,-26,-28
-13,-25,-12,18,0,-18,19,27,12,-6,-26,-27
-12,-25,-12,18,0,-19,19,27,14,-4,-25,-26
-13,-25,-12,19,0,-19,20,28,15,-2,-23,-25
-13,-25,-11,19,-1,-18,20,28,16,0,-20,-23
-12,-24,-12,18,0,-18,20,28,17,1,-18,-21
-11,-23,-12,17,0,-18,20,28,18,2,-17,-19
-11,-22,-11,16,0,-17,20,29,19,4,-16,-18
-11,-22,-11,16,0,-17,20,29,21,5,-14,-17
-10,-22,-12,16,0,-17,19,30,23,8,-12,-15
-9,-21,-12,15,1,-16,18,31,24,10,-11,-14
-9,-20,-11,15,1,-16,18,32,26,12,-9,-12
-9,-19,-10,14,0,-15,18,32,27,15,-7,-10
-9,-18,-9,13,0,-14,18,33,29,17,-4,-8
-8,-17,-8,12,0,-13,18,35,31,19,-1,-5
-8,-15,-7,11,0,-11,19,37,34,22,1,-3
-7,-13,-6,10,0,-9,19,38,37,26,4,-1
-6,-10,-5,8,0,-7,19,40,40,29,7,1
-4,-7,-3,6,0,-5,19,41,43,33,9,3
-3,-4,-2,4,0,-2,19,41,45,36,12,5
-3,-2,0,3,-1,-1,18,42,48,39,15,8
-3,-1,2,2,-2,0,18,43,50,43,19,10
-3,1,4,1,-4,3,18,45,54,47,23,14
-5,2,7,1,-6,5,18,48,57,51,27,17
-6,2,8,1,-7,6,18,50,60,55,31,21
-6,3,9,1,-7,7,18,52,64,58,35,24
-6,5,11,0,-8,8,18,53,67,62,38,27
-5,8,13,-1,-9,11,18,54,69,66,42,30
-4,12,16,-3,-10,14,17,55,71,70,46,33
-2,16,17,-7,-10,17,17,55,73,72,50,35
0,20,18,-10,-9,19,16,56,74,75,52,37
2,23,20,-13,-9,21,15,57,77,77,55,40
4,25,21,-15,-9,23,14,59,79,80,58,43
5,26,21,-16,-8,24,13,59,80,82,60,45
5,27,22,-16,-8,24,12,58,81,84,62,48
6,28,22,-17,-8,25,11,57,82,86,65,50
7,30,23,-19,-7,26,10,56,82,87,67,52
7,31,23,-19,-7,27,9,54,81,88,68,52
8,32,23,-20,-7,27,7,53,81,88,68,53
10,33,22,-22,-5,27,6,52,80,87,69,54
11,33,21,-22,-5,27,5,51,80,87,68,54
10,32,21,-22,-5,27,5,51,79,86,67,53
10,32,21,-22,-5,27,5,50,78,85,66,52
11,33,21,-23,-4,28,5,50,77,84,65,51
12,34,21,-23,-4,28,4,50,76,82,64,51
11,34,22,-23,-5,28,4,48,74,81,63,52
9,34,23,-22,-7,28,3,46,71,79,63,52
9,35,24,-22,-7,29,1,44,68,77,62,51
11,35,23,-23,-6,28,0,41,65,74,59,50
14,34,20,-24,-3,27,-2,38,61,70,55,48
14,33,19,-24,-2,26,-4,35,57,66,51,46
13,31,18,-22,-2,24,-4,33,54,62,48,43
12,27,15,-20,-1,21,-5,30,50,57,45,40
12,25,12,-19,0,18,-5,28,46,54,42,38
12,23,10,-18,1,17,-4,27,43,51,40,36
12,22,9,-18,1,16,-4,25,40,48,37,33
12,22,9,-18,1,15,-5,23,37,44,33,30
11,22,10,-17,0,16,-5,21,34,40,29,27
9,22,12,-15,-1,17,-5,20,31,37,25,25
9,22,12,-15,-1,17,-5,18,28,33,22,23
10,22,11,-16,0,17,-6,17,25,30,19,19
9,22,11,-15,0,17,-6,16,23,26,15,16
6,20,12,-13,-2,16,-5,15,21,23,12,14
3,17,13,-10,-4,15,-4,15,19,20,10,12
2,14,11,-9,-4,12,-3,14,17,17,7,10
3,11,8,-8,-2,9,-3,12,15,14,4,9
4,9,5,-6,0,7,-3,11,12,12,2,7
4,7,2,-5,1,4,-4,9,10,9,0,5
3,5,1,-4,1,3,-4,8,8,8,-2,4
1,2,1,-1,0,2,-4,8,7,6,-3,3
-1,0,0,1,-1,0,-3,8,6,5,-5,1
-1,-3,-2,2,0,-2,-3,7,4,3,-6,0
0,-4,-5,1,3,-4,-3,6,3,1,-8,-2
0,-4,-5,2,3,-5,-2,6,2,-1,-10,-3
-1,-5,-3,3,2,-4,-2,6,1,-3,-12,-4
-2,-5,-3,3,1,-4,-2,6,0,-5,-14,-6
-2,-6,-3,4,1,-4,-2,5,-2,-6,-16,-7
-3,-6,-3,4,0,-4,-1,5,-3,-8,-17,-9
-4,-6,-3,5,0,-5,0,5,-3,-8,-17,-10
-4,-8,-5,6,0,-6,0,4,-4,-9,-18,-10
-4,-9,-6,7,1,-8,0,4,-4,-9,-18,-11
-3,-10,-7,7,2,-9,0,3,-5,-9,-19,-11
-2,-10,-8,6,3,-9,0,2,-6,-10,-19,-12
-1,-9,-7,5,3,-8,-1,1,-7,-11,-20,-12
-2,-9,-6,6,2,-8,-2,1,-7,-12,-21,-13
-3,-9,-5,6,1,-7,-1,1,-7,-13,-21,-13
-2,-9,-7,5,2,-8,0,2,-7,-14,-22,-14
-1,-11,-10,6,4,-11,1,2,-8,-15,-23,-16
-1,-14,-13,7,6,-13,1,3,-8,-16,-24,-17
-2,-15,-14,8,6,-15,2,3,-7,-16,-24,-17
-2,-17,-15,9,6,-16,3,4,-7,-16,-24,-17
-3,-18,-15,10,6,-17,3,3,-7,-16,-25,-18
-5,-19,-14,12,5,-17,3,4,-8,-17,-25,-18
-7,-19,-12,13,2,-15,4,5,-7,-16,-24,-17
-7,-18,-11,13,2,-14,3,5,-7,-15,-23,-16
-5,-17,-12,11,4,-14,2,4,-7,-15,-22,-15
-4,-16,-12,10,4,-13,2,3,-7,-14,-21,-14
-4,-15,-11,10,4,-13,2,2,-7,-15,-22,-14
-5,-15,-11,10,3,-13,2,2,-8,-15,-23,-14
-5,-16,-10,10,2,-13,2,2,-8,-15,-22,-14
-5,-16,-10,10,2,-13,2,2,-7,-14,-21,-14
-4,-15,-10,9,3,-13,3,2,-7,-13,-21,-14
-3,-14,-10,8,3,-12,4,3,-7,-14,-21,-15
-2,-13,-11,8,4,-13,4,2,-8,-15,-23,-16
-2,-14,-13,8,5,-14,3,1,-9,-16,-24,-16
-2,-16,-14,9,6,-15,3,1,-9,-16,-24,-16
-2,-16,-15,9,6,-15,4,2,-8,-16,-23,-14
-2,-15,-13,9,5,-14,5,3,-7,-15,-22,-12
-3,-13,-9,9,3,-12,7,5,-5,-13,-19,-10
-5,-11,-6,8,0,-9,9,6,-4,-12,-17,-8
-5,-10,-4,8,-1,-7,10,6,-4,-11,-16,-7
-5,-8,-2,7,-1,-5,10,6,-3,-10,-16,-8
-4,-5,-1,5,-1,-3,10,6,-3,-10,-16,-11
-2,-3,-1,3,-1,-2,9,5,-4,-11,-18,-13
-2,-2,0,2,-1,-1,9,6,-4,-12,-19,-14
-2,-3,0,2,-1,-1,10,7,-3,-12,-20,-12
-1,-4,-2,2,1,-3,11,8,-2,-12,-19,-10
1,-6,-7,2,5,-7,11,8,-2,-12,-18,-8
3,-10,-13,3,8,-12,11,8,-3,-12,-18,-7
3,-14,-17,5,11,-15,12,8,-3,-11,-17,-5
4,-16,-20,5,12,-17,13,8,-2,-9,-15,-5
3,-16,-19,6,11,-18,14,9,-1,-8,-13,-4
2,-14,-16,5,9,-16,13,9,0,-6,-12,-4
2,-9,-12,2,8,-11,11,8,0,-5,-11,-4
3,-4,-6,0,5,-5,8,6,0,-4,-10,-5
4,2,-1,-3,3,0,5,4,-2,-4,-11,-6
5,7,2,-6,2,5,3,2,-3,-6,-12,-7
6,12,6,-8,0,9,2,2,-4,-7,-13,-7
6,13,6,-9,0,9,2,1,-4,-8,-13,-7
7,11,4,-8,1,7,3,0,-4,-9,-13,-6
8,8,0,-8,3,3,4,0,-4,-10,-13,-5
8,5,-3,-7,5,1,4,-1,-6,-11,-14,-5
7,3,-4,-5,5,0,5,-1,-7,-12,-15,-5
5,3,-2,-4,4,0,6,-1,-8,-12,-15,-5
3,3,0,-3,2,1,7,-2,-9,-13,-15,-5
2,3,1,-2,1,2,7,-5,-11,-14,-15,-4
2,3,1,-2,1,2,6,-8,-12,-15,-15,-4
3,4,1,-3,1,2,5,-9,-13,-15,-14,-5
3,3,0,-3,2,1,6,-9,-14,-16,-14,-6
2,1,-1,-2,2,0,6,-8,-14,-18,-16,-8
2,-2,-4,0,3,-3,7,-8,-15,-20,-17,-10
2,-5,-7,1,4,-6,7,-8,-17,-22,-19,-11
2,-8,-10,2,6,-8,8,-10,-19,-24,-21,-13
1,-11,-12,5,7,-11,8,-11,-21,-25,-22,-16
-3,-13,-10,8,4,-11,9,-10,-21,-26,-23,-17
-8,-14,-6,11,0,-10,11,-9,-20,-25,-22,-17
-9,-14,-5,11,-1,-10,11,-8,-19,-25,-21,-17
-7,-14,-6,11,-1,-10,11,-8,-19,-25,-22,-17
-6,-14,-7,10,0,-10,11,-9,-19,-25,-22,-16
-5,-13,-7,9,0,-10,11,-10,-20,-26,-22,-16
-4,-14,-9,9,1,-11,10,-11,-21,-27,-23,-16
-3,-16,-13,10,4,-14,9,-12,-22,-29,-25,-18
-2,-18,-16,10,7,-17,9,-12,-23,-30,-26,-20
-2,-20,-17,11,8,-18,10,-12,-22,-30,-26,-20
-5,-20,-15,12,6,-18,12,-11,-21,-28,-24,-18
-8,-19,-11,13,2,-16,13,-10,-20,-26,-22,-17
-10,-18,-7,13,-1,-13,13,-9,-19,-26,-21,-16
-9,-16,-5,12,-2,-11,12,-10,-20,-27,-22,-17
-7,-13,-5,10,-1,-9,10,-10,-20,-27,-22,-17
-6,-13,-6,9,0,-9,9,-10,-20,-27,-22,-17
-6,-14,-8,10,1,-11,9,-11,-20,-27,-22,-17
-7,-16,-9,11,2,-12,10,-11,-20,-27,-21,-17
-8,-18,-10,13,2,-14,11,-10,-20,-27,-21,-17
-10,-19,-10,14,0,-15,12,-10,-19,-27,-20,-17
-10,-19,-9,14,0,-15,12,-10,-19,-26,-20,-17
-9,-18,-9,13,0,-14,12,-10,-19,-26,-20,-17
-9,-16,-7,12,-1,-12,12,-10,-19,-26,-20,-18
-9,-15,-5,11,-1,-10,12,-10,-20,-27,-22,-19
-7,-14,-6,10,0,-10,11,-9,-20,-28,-23,-20
-7,-15,-7,10,1,-11,11,-8,-19,-27,-22,-19
-7,-16,-9,11,1,-12,11,-6,-17,-25,-21,-18
-7,-17,-10,11,2,-13,13,-2,-13,-22,-19,-17
-6,-16,-9,11,2,-13,15,2,-7,-16,-16,-16
-5,-15,-9,9,2,-12,17,9,0,-9,-11,-13
-3,-13,-9,7,3,-11,20,19,12,2,-3,-9
0,-12,-11,5,6,-12,24,34,28,16,8,-1
4,-12,-15,4,10,-13,30,53,49,36,24,11
8,-12,-20,2,14,-15,39,78,75,61,46,27
12,-11,-23,0,18,-17,49,103,104,90,71,46
15,-9,-25,-3,20,-17,56,117,124,114,95,64
18,-6,-24,-6,21,-15,57,116,130,130,116,82
20,-2,-23,-9,21,-12,53,102,123,137,132,97
23,1,-22,-13,22,-10,46,79,107,135,143,109
26,9,-16,-18,21,-3,35,48,83,129,152,122
28,21,-6,-25,17,8,20,8,53,118,160,136
31,37,6,-35,13,22,-2,-41,14,103,166,150
38,56,18,-48,10,38,-34,-97,-30,86,172,164
46,78,31,-63,8,55,-69,-153,-74,67,176,177
56,102,45,-79,6,74,-105,-205,-117,45,175,186
66,127,60,-96,3,94,-141,-254,-159,19,164,187
74,149,75,-112,0,112,-177,-298,-198,-11,145,180
80,163,83,-122,-1,123,-208,-331,-231,-43,120,167
83,163,81,-124,1,122,-227,-350,-258,-78,83,141
79,152,73,-116,3,112,-233,-355,-279,-119,32,98
68,137,69,-102,0,103,-228,-351,-294,-164,-27,46
50,124,74,-87,-11,99,-215,-339,-302,-203,-83,-3
30,113,83,-72,-26,98,-196,-317,-297,-227,-122,-40
15,101,86,-58,-34,93,-173,-287,-279,-230,-141,-62
6,87,81,-47,-37,84,-149,-251,-251,-217,-143,-73
0,73,74,-37,-36,73,-125,-214,-220,-197,-136,-75
-3,62,66,-30,-34,63,-102,-179,-187,-173,-125,-73
-6,51,58,-23,-32,54,-81,-146,-156,-149,-112,-69
-9,39,49,-16,-29,44,-61,-114,-125,-125,-97,-63
-11,26,38,-8,-24,32,-42,-85,-97,-100,-81,-54
-12,13,25,0,-19,19,-26,-61,-73,-79,-65,-45
-11,2,14,4,-12,8,-14,-43,-56,-64,-53,-37
-8,-5,3,6,-5,-1,-4,-30,-44,-53,-46,-32
-6,-11,-5,8,0,-8,2,-21,-35,-47,-40,-29
-8,-15,-6,11,-1,-10,6,-13,-28,-41,-34,-25
-12,-16,-3,14,-4,-10,10,-7,-21,-35,-29,-21
-14,-16,-1,14,-6,-9,12,-4,-17,-31,-27,-21
-12,-14,-1,13,-5,-8,12,-3,-16,-30,-27,-23
-11,-13,-1,12,-5,-7,12,-2,-15,-29,-28,-25
-12,-13,-1,12,-5,-7,13,-1,-14,-29,-28,-26
-13,-15,-2,13,-4,-9,14,1,-12,-27,-27,-25
-13,-16,-3,14,-4,-10,16,3,-10,-24,-25,-23
-14,-17,-3,15,-4,-11,18,6,-8,-22,-22,-21
-15,-19,-2,16,-5,-12,19,8,-5,-21,-21,-19
-16,-19,-2,17,-6,-12,20,9,-4,-20,-20,-19
-15,-19,-4,16,-5,-12,20,9,-4,-20,-20,-19
-12,-19,-6,15,-2,-13,20,8,-4,-19,-21,-20
-11,-19,-7,14,-1,-13,19,8,-4,-19,-21,-19
-10,-18,-7,14,-1,-13,19,9,-4,-18,-20,-17
-9,-18,-8,13,0,-14,19,9,-3,-17,-19,-16
-8,-18,-9,12,1,-14,19,9,-3,-17,-18,-15
-8,-17,-7,12,0,-12,19,9,-2,-16,-17,-15
-9,-14,-4,11,-2,-9,19,10,-1,-15,-15,-15
-9,-11,-1,10,-4,-6,19,11,0,-13,-14,-15
-10,-9,1,9,-6,-4,19,12,1,-12,-13,-15
-11,-8,3,9,-7,-2,19,12,1,-11,-13,-15
-11,-7,4,9,-7,-2,20,12,2,-10,-12,-14
-11,-8,3,9,-7,-2,20,12,2,-10,-12,-14
-11,-10,1,10,-6,-4,19,11,1,-11,-12,-15
-11,-12,0,11,-5,-6,18,11,2,-11,-12,-15
-10,-11,0,11,-4,-6,18,12,3,-9,-11,-14
-9,-10,0,10,-4,-5,20,14,5,-8,-10,-12
-9,-9,0,9,-4,-5,20,14,6,-7,-9,-11
-8,-10,0,9,-4,-5,19,14,7,-6,-9,-11
-9,-10,0,9,-4,-5,19,14,7,-6,-8,-10
-9,-10,0,9,-4,-5,19,15,8,-5,-7,-9
-9,-9,1,9,-5,-4,19,16,9,-3,-5,-7
-9,-8,1,9,-5,-4,20,17,10,-2,-3,-6
-10,-9,1,9,-5,-4,20,18,11,-1,-2,-5
-10,-8,1,8,-5,-4,20,18,12,0,-1,-4
-9,-7,1,7,-5,-4,20,18,13,1,-1,-3
-8,-6,3,6,-5,-2,20,18,15,3,0,-2
-8,-3,5,5,-6,0,20,19,16,5,2,0
-7,-1,6,4,-6,2,19,20,17,7,3,0
-6,0,7,2,-6,3,19,20,18,8,4,0
-5,1,7,1,-6,4,18,20,18,8,4,0
-4,2,7,0,-5,4,18,20,19,10,5,1
-4,3,8,0,-6,5,18,21,21,12,8,3
-6,3,10,0,-8,7,18,22,23,15,10,4
-8,4,13,1,-11,9,18,23,25,17,11,5
-8,6,15,0,-11,10,19,24,27,19,13,6
-6,8,15,-2,-10,11,18,25,28,21,15,6
-4,9,15,-3,-9,12,18,26,30,23,17,7
-5,10,16,-3,-10,13,18,28,33,26,20,9
-5,12,17,-4,-10,14,19,31,37,30,23,12
-3,13,17,-6,-10,15,19,33,40,33,26,14
-2,14,17,-7,-9,15,20,34,43,37,29,17
-1,15,18,-7,-9,16,20,35,45,40,32,19
-1,16,19,-8,-9,17,20,36,47,43,35,22
0,18,19,-8,-10,18,20,37,49,47,39,24
0,19,20,-9,-10,19,19,38,52,50,42,27
0,21,21,-10,-10,21,19,40,55,54,46,29
1,23,22,-12,-10,22,18,41,58,58,50,32
2,25,23,-14,-10,24,18,42,61,62,54,35
4,27,23,-17,-9,25,17,43,64,66,58,38
5,30,25,-18,-10,27,17,45,68,69,62,41
5,32,28,-19,-11,30,18,47,71,73,65,45
5,34,30,-20,-12,32,18,48,74,76,68,47
6,37,31,-22,-12,34,17,49,76,79,71,49
8,39,32,-24,-12,36,16,49,77,81,73,51
9,41,32,-25,-11,37,15,49,78,83,76,53
9,42,33,-26,-12,37,14,49,78,85,78,55
9,42,33,-26,-12,38,14,49,79,86,79,57
10,43,33,-27,-11,38,13,49,80,87,80,58
12,44,33,-29,-10,38,12,49,80,88,81,59
12,45,33,-29,-10,39,11,49,80,88,82,60
11,46,35,-29,-11,40,11,48,80,89,83,62
10,46,36,-28,-13,40,10,48,80,89,84,63
11,46,36,-29,-12,41,9,47,79,88,84,64
12,48,36,-30,-11,42,8,46,79,88,84,64
11,49,37,-30,-12,42,8,46,78,87,84,65
10,49,38,-30,-13,43,7,45,77,87,84,65
10,50,39,-30,-13,44,7,44,75,86,84,65
11,50,39,-30,-14,44,6,42,73,84,83,65
11,50,40,-31,-14,44,6,41,71,82,81,64
12,50,38,-32,-12,44,4,40,68,78,78,61
14,49,36,-32,-10,42,2,37,64,74,74,58
14,48,33,-32,-9,41,1,34,60,69,70,54
15,48,32,-32,-8,40,0,32,57,66,67,51
14,47,32,-31,-9,40,0,31,55,63,64,49
14,47,33,-31,-9,40,0,29,52,61,62,47
12,45,33,-29,-10,39,0,27,49,57,59,45
11,44,33,-28,-10,38,0,26,46,53,55,42
10,42,32,-27,-10,37,0,25,43,49,51,39
10,41,30,-26,-9,36,0,24,40,44,47,36
9,39,29,-25,-9,34,0,22,36,40,43,32
8,37,28,-23,-10,32,0,20,32,35,39,29
8,34,25,-21,-8,29,0,17,28,31,34,25
9,32,22,-21,-6,27,0,15,25,27,30,22
9,29,20,-19,-5,25,0,14,22,23,26,20
8,27,19,-18,-5,23,0,13,20,21,23,18
7,25,19,-16,-5,22,0,12,17,18,20,15
6,22,17,-14,-5,20,0,11,15,15,17,12
4,21,16,-13,-6,19,0,10,13,12,14,8
3,20,16,-12,-6,18,0,10,12,10,11,6
3,19,16,-11,-6,17,0,10,11,8,9,4
3,17,14,-10,-5,15,0,10,10,6,7,3
3,16,13,-10,-4,13,1,10,9,4,4,1
3,14,12,-8,-4,12,1,10,8,2,2,-1
2,11,11,-7,-4,10,2,9,6,0,0,-3
2,10,9,-6,-3,9,2,8,4,-1,-2,-5
2,9,8,-6,-3,9,3,8,3,-3,-4,-6
-1,7,9,-3,-5,8,5,9,3,-4,-5,-7
-5,4,10,0,-8,7,5,9,2,-6,-6,-8
-7,2,9,2,-8,5,5,9,1,-7,-7,-9
-6,0,7,3,-6,3,6,8,0,-9,-8,-10
-6,-1,5,4,-5,1,6,8,0,-10,-9,-10
-6,-3,4,5,-4,0,6,7,-1,-11,-10,-12
-6,-5,2,5,-3,-2,5,7,-2,-12,-11,-13
-4,-6,0,5,-1,-4,4,6,-3,-13,-12,-15
-3,-6,-3,5,0,-5,4,6,-3,-13,-13,-16
-3,-8,-4,6,0,-6,5,6,-4,-14,-14,-16
-5,-9,-4,7,0,-7,4,6,-4,-14,-14,-17
-5,-10,-5,7,1,-8,4,6,-4,-14,-14,-18
-3,-10,-6,7,2,-9,4,7,-4,-14,-15,-18
-2,-10,-6,6,3,-9,4,7,-3,-14,-15,-18
-2,-10,-6,6,3,-9,5,8,-3,-14,-15,-18
-2,-10,-6,6,3,-9,5,8,-2,-14,-15,-19
-2,-11,-7,7,3,-9,6,8,-2,-14,-15,-19
-3,-11,-8,7,3,-10,6,8,-2,-14,-16,-20
-3,-12,-9,7,3,-11,7,8,-2,-14,-16,-20
-3,-12,-10,8,4,-12,7,8,-2,-14,-16,-20
-3,-13,-10,9,3,-12,7,8,-3,-14,-16,-19
-4,-14,-10,10,3,-13,7,8,-3,-15,-16,-19
-6,-15,-9,10,2,-12,8,8,-3,-15,-16,-19
-7,-15,-8,11,0,-12,8,9,-3,-16,-16,-19
-7,-15,-8,11,0,-11,8,9,-3,-16,-17,-20
-6,-15,-9,10,1,-12,8,9,-4,-16,-17,-20
-5,-15,-10,10,2,-13,8,9,-4,-16,-17,-20
-5,-15,-10,10,2,-13,8,9,-4,-16,-17,-20
-5,-16,-10,11,2,-14,8,9,-4,-16,-16,-20
-5,-17,-11,11,3,-15,8,8,-4,-16,-17,-21
-5,-18,-13,11,4,-16,7,7,-5,-17,-18,-22
-3,-18,-15,10,6,-17,6,7,-5,-18,-19,-23
-1,-18,-16,10,8,-17,6,7,-5,-18,-19,-24
-1,-18,-16,9,8,-17,6,8,-5,-17,-20,-24
-1,-16,-15,9,7,-16,6,9,-5,-17,-19,-24
-1,-14,-13,8,6,-14,7,10,-4,-16,-18,-23
0,-12,-11,6,5,-12,7,10,-3,-15,-17,-22
0,-10,-9,5,5,-11,7,9,-2,-14,-16,-21
-1,-10,-8,5,4,-10,7,9,-2,-14,-16,-20
-1,-9,-7,4,3,-9,7,9,-2,-14,-15,-19
-1,-8,-7,4,3,-8,8,9,-2,-14,-15,-19
-1,-8,-7,4,3,-8,8,9,-3,-14,-15,-18
-1,-8,-7,4,3,-7,8,9,-3,-14,-15,-19
-1,-8,-7,4,3,-7,8,9,-3,-14,-14,-19
-2,-8,-6,5,2,-7,9,11,-2,-14,-14,-19
-2,-8,-6,5,1,-7,9,12,-1,-13,-13,-18
-2,-8,-7,5,2,-8,10,13,-1,-13,-13,-18
-1,-10,-8,6,3,-9,10,13,0,-12,-12,-17
0,-11,-10,5,5,-11,10,14,0,-12,-12,-17
1,-11,-12,5,7,-12,10,14,0,-11,-12,-17
1,-11,-12,5,7,-12,10,15,1,-11,-12,-17
0,-11,-11,5,6,-11,10,15,1,-10,-11,-16
0,-11,-10,5,6,-11,9,15,2,-9,-11,-15
2,-9,-11,3,7,-10,8,14,2,-9,-11,-15
4,-6,-10,1,7,-9,6,14,2,-8,-10,-14
6,-3,-9,-1,8,-6,3,13,2,-8,-9,-13
6,0,-7,-3,7,-4,1,12,2,-8,-9,-12
4,1,-3,-2,4,-1,0,10,1,-9,-9,-12
2,1,-1,-2,2,0,0,8,-1,-11,-10,-12
2,2,0,-2,2,1,-1,5,-4,-14,-12,-14
1,2,1,-2,0,2,-2,2,-6,-16,-14,-15
1,3,2,-2,0,3,-3,0,-9,-18,-16,-17
1,4,3,-3,-1,3,-4,-2,-11,-20,-17,-18
1,4,4,-2,-1,3,-4,-3,-13,-22,-18,-19
0,3,3,-2,-1,2,-4,-4,-15,-23,-20,-20
0,1,1,-1,0,1,-4,-5,-16,-24,-21,-21
0,-1,-1,0,1,-1,-4,-5,-16,-24,-22,-22
1,-2,-3,0,2,-3,-3,-5,-16,-25,-22,-22
1,-5,-5,1,3,-5,-2,-5,-17,-26,-23,-23
0,-8,-7,3,4,-8,-3,-6,-18,-27,-24,-24
-3,-12,-6,7,2,-10,-2,-6,-18,-27,-25,-26
-9,-15,-4,12,-2,-11,0,-5,-18,-28,-26,-27
-12,-17,-4,15,-3,-11,2,-4,-17,-28,-27,-28
-10,-18,-7,14,-1,-13,3,-4,-18,-29,-28,-29
-8,-19,-10,14,1,-15,3,-4,-19,-30,-29,-29
-8,-19,-11,14,1,-15,3,-4,-19,-30,-29,-29
-9,-20,-10,14,1,-15,4,-4,-19,-30,-29,-29
-9,-20,-10,15,0,-16,5,-3,-19,-30,-29,-29
-9,-20,-11,15,1,-16,5,-3,-19,-31,-30,-30
-8,-21,-12,15,2,-17,5,-3,-19,-31,-30,-31
-8,-21,-12,15,2,-17,5,-3,-20,-31,-30,-31
-9,-22,-12,15,2,-17,6,-3,-20,-31,-30,-31
-10,-22,-12,15,1,-17,6,-3,-20,-31,-30,-31
-10,-22,-12,15,1,-17,6,-3,-20,-32,-30,-31
-9,-22,-13,15,2,-17,6,-3,-20,-32,-31,-31
-8,-22,-13,15,2,-17,6,-3,-20,-32,-31,-31
-7,-22,-13,15,3,-17,6,-3,-20,-32,-31,-31
-6,-22,-14,14,4,-18,7,-2,-20,-32,-31,-32
-5,-22,-15,14,5,-19,8,-2,-20,-32,-31,-32
-6,-22,-15,14,5,-19,8,-1,-19,-32,-30,-32
-8,-22,-14,15,3,-19,7,-1,-19,-32,-30,-32
-10,-24,-13,17,1,-19,6,-2,-19,-32,-31,-32
-12,-24,-11,18,0,-18,5,-2,-19,-31,-31,-32
-14,-24,-9,19,-2,-17,6,-1,-18,-30,-30,-32
-14,-22,-8,18,-2,-15,7,-1,-17,-29,-29,-31
-13,-22,-7,17,-2,-14,8,0,-17,-28,-28,-30
-11,-21,-9,16,-1,-15,8,0,-16,-28,-28,-31
-9,-21,-12,15,1,-17,9,2,-15,-27,-27,-31
-7,-22,-14,15,3,-18,11,7,-10,-24,-26,-32
-7,-22,-15,14,4,-19,15,15,-3,-19,-24,-31
-6,-21,-16,13,5,-19,20,26,8,-10,-20,-29
-4,-20,-16,12,6,-18,25,41,25,3,-11,-23
-1,-18,-16,9,7,-17,32,61,46,22,3,-13
2,-14,-16,6,9,-15,41,85,73,47,22,0
5,-9,-14,2,10,-12,50,112,103,76,46,17
8,-4,-11,-1,10,-8,57,130,127,102,70,36
9,2,-7,-5,9,-3,59,129,136,119,91,53
10,9,-2,-9,7,3,56,113,131,127,108,69
12,17,4,-14,5,10,48,87,117,130,123,84
16,27,11,-21,3,18,36,54,95,129,137,99
20,40,20,-30,1,29,19,14,66,125,150,115
26,55,29,-41,-1,41,-5,-33,32,118,164,133
33,68,36,-51,-1,52,-37,-87,-7,109,177,151
39,82,43,-60,-1,62,-74,-143,-49,96,187,168
50,97,47,-73,1,72,-110,-193,-89,80,193,183
64,114,49,-89,8,81,-146,-237,-126,62,192,191
79,130,51,-104,14,90,-182,-275,-159,39,181,192
91,144,53,-117,19,98,-211,-302,-186,16,165,187
100,148,48,-124,26,98,-228,-315,-204,-7,141,173
104,136,32,-121,36,84,-235,-315,-218,-39,102,145
102,114,13,-108,44,64,-232,-310,-235,-81,49,102
91,94,3,-92,43,49,-222,-303,-252,-130,-11,53
73,79,6,-76,33,43,-205,-291,-262,-171,-64,8
56,68,12,-62,21,40,-182,-267,-256,-191,-96,-23
41,56,14,-48,13,35,-155,-235,-235,-191,-111,-43
29,43,13,-36,8,27,-129,-199,-207,-179,-115,-56
20,30,10,-25,5,20,-105,-164,-178,-163,-112,-63
13,19,7,-16,3,13,-85,-134,-151,-145,-106,-66
6,9,5,-8,1,7,-67,-108,-126,-127,-99,-67
0,1,3,0,-1,2,-50,-84,-102,-108,-89,-65
-7,-5,2,6,-4,-1,-34,-61,-80,-90,-77,-60
-13,-11,1,12,-7,-4,-20,-41,-60,-73,-66,-54
-15,-16,-2,16,-6,-9,-9,-26,-45,-61,-57,-49
-14,-20,-7,17,-3,-14,-2,-14,-35,-52,-51,-46
-13,-23,-10,18,-1,-17,3,-6,-27,-46,-47,-44
-13,-25,-12,19,0,-19,7,-1,-22,-42,-45,-43
-14,-28,-13,20,0,-21,9,2,-19,-39,-44,-43
-14,-30,-14,21,0,-22,11,5,-16,-37,-43,-43
-14,-31,-15,22,1,-22,13,7,-14,-36,-42,-43
-14,-31,-16,23,1,-23,14,9,-12,-34,-41,-43
-14,-31,-17,23,1,-24,15,11,-11,-33,-41,-43
-14,-31,-18,22,2,-24,16,13,-9,-32,-40,-43
-13,-30,-18,22,2,-24,17,15,-8,-31,-39,-42
-14,-30,-17,22,2,-24,18,17,-6,-30,-38,-42
-14,-31,-17,22,2,-24,19,17,-5,-29,-38,-42
-13,-32,-17,22,2,-24,19,17,-4,-28,-37,-42
-13,-31,-17,22,2,-24,20,18,-3,-27,-37,-41
-13,-30,-16,22,1,-23,20,19,-2,-26,-36,-40
-14,-30,-16,22,1,-22,21,19,-2,-25,-35,-40
-15,-30,-15,22,0,-22,21,20,-1,-25,-35,-41
-15,-31,-15,23,0,-23,21,20,-1,-24,-35,-41
-15,-31,-16,23,0,-23,21,19,-1,-24,-34,-40
-14,-30,-17,22,1,-23,21,19,-1,-24,-34,-40
-13,-30,-17,21,2,-23,21,19,-1,-24,-33,-39
-13,-30,-17,22,2,-23,21,19,-1,-23,-33,-38
-13,-30,-17,22,2,-23,21,19,0,-22,-32,-37
-12,-30,-17,21,2,-23,21,20,0,-21,-31,-36
-11,-29,-18,20,3,-23,21,21,1,-20,-30,-36
-10,-28,-18,19,3,-23,21,22,3,-18,-29,-35
-10,-28,-17,19,4,-23,21,23,4,-17,-27,-35
-10,-27,-17,18,4,-22,21,23,6,-15,-26,-34
-11,-27,-16,19,3,-21,22,24,7,-14,-25,-33
-12,-27,-14,19,1,-20,22,24,8,-13,-24,-33
-13,-26,-13,19,0,-20,23,25,9,-11,-22,-32
-13,-25,-12,18,0,-19,23,26,11,-9,-21,-31
-13,-24,-11,18,-1,-18,22,27,12,-8,-20,-30
-11,-23,-12,17,0,-18,21,27,13,-7,-19,-30
-10,-23,-12,17,0,-18,21,27,13,-6,-19,-30
-12,-22,-9,17,-1,-16,22,28,15,-4,-17,-29
-15,-21,-5,18,-4,-14,23,30,17,-2,-15,-27
-16,-20,-4,18,-6,-12,24,30,18,0,-14,-26
-15,-20,-4,17,-5,-12,24,30,19,1,-12,-24
-14,-19,-4,16,-4,-12,23,31,19,2,-11,-23
-12,-18,-5,15,-3,-12,23,31,20,3,-10,-21
-10,-17,-6,14,-2,-11,22,31,22,4,-9,-20
-9,-16,-6,13,-1,-11,22,32,23,6,-7,-18
-8,-15,-6,12,-1,-10,23,33,25,8,-6,-17
-7,-14,-6,11,0,-10,23,34,26,10,-4,-16
-7,-13,-6,10,0,-9,23,35,28,11,-2,-15
-6,-12,-5,9,0,-9,23,36,29,13,-1,-14
-6,-11,-5,8,0,-8,22,36,30,15,0,-13
-6,-11,-5,8,0,-8,21,36,31,17,2,-12
-5,-10,-5,7,0,-7,21,37,34,20,4,-10
-4,-9,-5,6,0,-7,21,38,36,23,6,-8
-3,-8,-4,5,0,-6,21,40,40,26,9,-6
-3,-6,-2,4,0,-4,22,43,43,30,13,-4
-3,-4,0,4,-2,-2,22,45,47,34,17,-1
-5,-2,4,4,-4,0,23,48,50,38,22,2
-8,-1,7,4,-7,2,24,50,54,43,26,5
-8,0,9,3,-8,4,24,52,58,47,30,8
-6,2,9,1,-8,6,24,53,60,51,33,11
-4,4,9,-1,-6,7,24,54,63,54,37,13
-2,6,9,-2,-5,8,23,54,65,57,40,16
0,9,9,-4,-5,9,23,55,68,61,44,20
1,11,9,-6,-4,10,23,56,70,65,48,23
2,13,10,-7,-4,11,22,57,73,69,52,25
3,14,11,-9,-4,13,22,58,75,72,56,28
4,16,12,-10,-4,14,21,58,77,76,59,31
5,19,14,-12,-4,17,20,59,80,79,63,34
6,22,16,-14,-5,19,20,59,82,82,66,37
6,25,18,-16,-5,22,20,60,84,84,68,40
7,27,19,-17,-6,23,20,61,86,86,70,42
8,29,20,-18,-6,24,19,61,87,88,73,44
9,30,21,-19,-6,25,18,61,87,90,74,45
10,32,21,-21,-6,26,17,61,88,91,76,46
11,33,22,-22,-6,28,16,60,88,92,77,48
10,34,24,-23,-7,29,16,60,88,92,78,49
10,35,25,-23,-7,30,15,59,87,92,78,50
11,36,25,-24,-7,31,14,57,86,91,77,50
12,37,25,-25,-7,31,13,56,84,91,77,50
9,37,28,-23,-10,32,13,55,84,91,77,51
6,36,30,-21,-12,33,12,55,83,90,78,51
6,37,30,-22,-12,33,11,54,81,89,78,51
8,37,29,-23,-10,33,10,51,79,87,77,50
9,37,29,-23,-10,33,9,49,76,85,75,49
9,37,28,-23,-9,33,9,47,74,83,73,47
9,37,28,-23,-9,33,9,45,71,80,71,46
9,36,27,-23,-9,32,8,43,68,77,68,44
9,36,26,-23,-8,31,7,41,65,73,65,42
9,35,25,-22,-8,30,6,39,61,68,61,40
10,33,23,-22,-6,28,5,37,57,64,56,36
10,31,21,-21,-5,26,4,35,54,60,52,33
10,30,19,-21,-4,24,4,34,51,56,47,29
10,28,18,-20,-4,23,4,32,48,52,43,26
9,27,18,-19,-4,22,4,31,45,48,39,24
9,27,17,-18,-4,22,4,30,43,45,36,22
9,25,16,-17,-4,20,5,28,39,41,33,20
7,22,15,-14,-4,18,4,26,35,37,29,17
7,19,13,-13,-3,16,4,23,31,32,24,13
7,17,10,-12,-2,13,4,21,28,28,20,10
5,15,10,-10,-2,12,4,19,26,26,18,7
2,14,11,-8,-5,12,5,19,24,24,15,6
-1,12,13,-6,-7,12,6,19,23,22,13,4
-1,11,12,-4,-7,11,6,18,21,19,10,2
0,9,8,-4,-4,8,6,16,18,15,5,-1
1,6,5,-3,-2,6,5,15,15,11,1,-3
0,4,4,-2,-1,4,6,15,13,8,-1,-5
0,3,4,-2,-2,3,8,15,11,5,-3,-7
0,3,3,-2,-1,2,8,14,10,3,-5,-8
0,2,1,-2,0,0,8,12,7,0,-7,-11
0,0,0,-1,0,-1,7,11,5,-2,-10,-13
0,0,-2,-1,1,-2,6,10,4,-3,-12,-14
0,-1,-3,0,1,-3,6,10,3,-4,-14,-15
-1,-3,-3,2,1,-4,7,11,2,-6,-15,-16
-2,-5,-3,3,0,-4,7,11,2,-7,-16,-18
-2,-6,-3,4,0,-5,8,10,1,-8,-17,-20
-3,-7,-4,5,0,-6,8,10,0,-9,-19,-22
-3,-8,-5,5,0,-7,9,10,-1,-10,-20,-24
-3,-9,-6,6,0,-8,10,9,-1,-11,-21,-26
-4,-11,-7,7,1,-9,10,9,-2,-12,-22,-28
-4,-12,-8,7,1,-10,11,9,-3,-13,-23,-29
-4,-12,-8,7,1,-10,11,9,-4,-14,-24,-29
-5,-13,-8,8,1,-11,12,9,-4,-14,-25,-30
-8,-14,-6,10,-1,-11,13,9,-4,-14,-25,-30
-9,-15,-6,12,-1,-11,14,9,-4,-15,-25,-31
-8,-16,-8,12,0,-12,14,9,-4,-15,-26,-31
-7,-16,-9,11,1,-13,14,9,-5,-16,-26,-32
-7,-17,-9,12,0,-13,15,10,-5,-16,-27,-31
-7,-17,-9,12,0,-13,15,10,-5,-16,-27,-31
-7,-18,-10,12,1,-14,15,10,-5,-16,-28,-32
-6,-18,-11,12,2,-15,15,9,-5,-17,-28,-32
-6,-19,-12,12,2,-15,15,9,-5,-17,-28,-32
-6,-19,-13,12,3,-16,15,9,-5,-17,-29,-32
-4,-18,-14,11,4,-16,16,10,-5,-17,-28,-32
-3,-17,-14,10,5,-16,17,10,-5,-17,-28,-32
-4,-19,-14,11,4,-17,17,10,-6,-17,-28,-33
-6,-22,-14,13,3,-18,17,10,-6,-18,-28,-33
-6,-22,-15,14,4,-18,17,10,-6,-17,-28,-33
-6,-21,-15,13,4,-18,17,11,-5,-16,-28,-32
-6,-20,-14,14,4,-17,17,11,-4,-16,-28,-31
-8,-21,-14,15,3,-17,17,12,-4,-15,-28,-31
-9,-22,-13,16,2,-18,17,12,-3,-15,-28,-31
-8,-23,-14,16,3,-18,17,11,-4,-15,-28,-31
-6,-23,-16,14,5,-19,17,11,-5,-16,-29,-32
-4,-23,-17,13,6,-19,18,11,-5,-16,-29,-32
-7,-22,-14,14,3,-18,19,13,-4,-15,-28,-31
-11,-21,-8,16,-1,-15,21,14,-2,-13,-26,-29
-13,-20,-5,17,-3,-13,21,15,-1,-12,-25,-28
-12,-18,-5,15,-3,-12,21,15,-1,-11,-24,-27
-9,-17,-7,13,-1,-12,20,14,-1,-11,-23,-27
-6,-15,-9,10,1,-12,19,13,-1,-11,-23,-27
-4,-15,-10,9,3,-12,19,13,-1,-11,-22,-26
-3,-15,-11,9,4,-12,19,13,-1,-11,-22,-26
-3,-15,-11,9,5,-12,19,13,-1,-11,-23,-26
-2,-15,-12,9,5,-13,18,13,-1,-12,-24,-27
-2,-15,-13,8,6,-14,18,13,-1,-12,-24,-28
-1,-15,-13,8,6,-15,19,13,0,-11,-24,-28
-1,-15,-14,8,6,-15,20,14,0,-11,-24,-28
-1,-15,-14,8,7,-15,21,16,0,-10,-23,-28
0,-15,-15,8,7,-15,21,17,1,-9,-22,-27
1,-15,-15,7,8,-15,22,18,2,-8,-21,-26
2,-14,-16,6,8,-15,23,18,3,-7,-19,-24
3,-13,-16,5,9,-15,24,19,4,-6,-18,-23
4,-13,-16,4,9,-14,24,19,5,-5,-16,-22
3,-11,-14,4,9,-13,24,19,6,-3,-15,-21
2,-9,-11,4,6,-10,23,19,7,-1,-13,-20
0,-7,-7,4,4,-7,21,18,7,0,-12,-18
0,-4,-3,3,2,-3,18,16,6,0,-12,-17
-1,-1,0,1,0,0,16,13,5,0,-12,-17
-1,1,2,0,-1,1,14,10,2,-2,-13,-19
-2,2,4,0,-3,3,12,7,0,-6,-16,-22
-5,3,7,1,-6,5,10,4,-3,-9,-18,-24
-7,4,11,1,-9,7,9,2,-5,-11,-19,-25
-7,5,12,1,-10,8,8,0,-7,-13,-21,-25
-6,5,11,0,-9,8,7,-1,-9,-15,-24,-26
-4,3,7,0,-6,6,7,-2,-12,-18,-27,-29
-1,0,2,0,-2,2,6,-4,-15,-21,-31,-31
0,-3,-3,1,1,-2,5,-5,-16,-23,-33,-33
0,-7,-7,3,3,-6,5,-5,-17,-24,-34,-34
-1,-11,-9,6,3,-10,7,-4,-17,-25,-34,-33
-3,-15,-12,8,4,-13,8,-4,-17,-25,-34,-33
-3,-19,-15,10,5,-17,9,-3,-18,-26,-35,-33
-4,-23,-18,12,7,-20,10,-2,-18,-27,-35,-33
-5,-26,-20,15,7,-23,12,-1,-17,-26,-34,-32
-7,-29,-21,18,7,-24,13,1,-16,-25,-32,-31
-8,-31,-21,20,6,-25,14,2,-15,-24,-31,-30
-9,-32,-21,21,6,-26,13,2,-14,-23,-31,-30
-10,-32,-21,21,5,-26,12,2,-14,-23,-31,-30
-10,-32,-21,21,5,-26,12,2,-14,-23,-31,-31
-10,-32,-22,21,6,-27,12,2,-14,-24,-32,-32
-10,-32,-21,21,5,-27,12,2,-14,-24,-33,-32
-11,-32,-20,21,4,-26,12,1,-14,-24,-33,-32
-12,-33,-20,22,4,-26,12,1,-15,-25,-34,-32
-11,-33,-21,22,5,-27,12,0,-16,-26,-34,-33
-11,-33,-22,22,5,-28,12,0,-16,-26,-34,-33
-12,-33,-22,22,5,-27,13,0,-16,-26,-34,-32
-12,-33,-21,22,5,-27,13,0,-16,-26,-34,-31
-11,-33,-21,22,5,-27,13,0,-16,-25,-33,-31
-10,-33,-22,21,6,-27,13,-1,-16,-25,-33,-31
-8,-32,-23,20,8,-28,12,-1,-16,-25,-33,-31
-7,-31,-23,19,8,-27,12,-1,-16,-24,-32,-31
-8,-31,-21,20,6,-25,12,0,-15,-23,-31,-30
-10,-30,-20,20,5,-25,13,0,-15,-24,-32,-29
-9,-29,-20,19,5,-25,13,0,-16,-25,-33,-29
-8,-28,-20,18,6,-24,12,-1,-17,-26,-33,-29
-8,-28,-19,18,6,-23,12,-1,-16,-25,-33,-28
-7,-27,-19,17,6,-23,11,-1,-16,-24,-32,-28
-7,-27,-19,17,6,-23,12,-1,-15,-24,-31,-27
-8,-27,-17,17,4,-22,13,1,-14,-23,-30,-27
-10,-27,-15,18,2,-21,15,4,-11,-21,-30,-27
-10,-26,-15,18,2,-21,17,9,-6,-18,-29,-28
-8,-26,-17,17,4,-21,21,17,1,-12,-27,-28
-6,-24,-18,15,6,-21,25,28,14,-2,-21,-25
-4,-22,-19,13,8,-20,31,45,32,12,-10,-19
-2,-20,-18,11,8,-18,38,64,53,31,4,-9
0,-16,-17,8,9,-16,47,87,79,55,23,4
2,-10,-13,4,8,-12,55,109,106,81,46,22
4,-3,-8,0,7,-6,60,119,123,104,69,41
5,2,-3,-4,5,-1,60,114,127,118,88,59
6,8,1,-7,3,5,55,96,120,126,105,75
9,16,7,-12,1,12,46,70,105,129,121,90
12,27,14,-19,0,21,33,36,84,129,136,106
16,40,23,-27,-3,32,13,-5,56,126,152,124
21,53,31,-37,-5,42,-14,-54,22,120,166,143
32,66,33,-49,0,49,-48,-109,-18,108,177,161
47,81,33,-64,7,56,-84,-162,-59,93,184,176
61,95,33,-78,14,64,-119,-209,-98,76,187,188
74,109,35,-92,19,72,-153,-250,-134,55,181,193
86,123,37,-105,24,80,-184,-284,-166,32,167,190
96,132,36,-114,30,85,-208,-305,-189,8,147,180
101,129,27,-115,37,79,-220,-311,-204,-17,117,159
101,112,10,-106,45,61,-222,-308,-218,-52,72,123
95,91,-4,-93,49,43,-217,-303,-236,-97,15,76
81,76,-5,-79,43,35,-206,-297,-252,-145,-43,28
64,68,4,-66,30,36,-188,-283,-258,-178,-87,-11
48,61,13,-54,18,37,-165,-257,-246,-189,-110,-35
34,51,17,-42,9,33,-139,-223,-222,-183,-119,-50
22,38,16,-30,3,27,-114,-189,-195,-170,-119,-58
13,27,14,-20,0,21,-92,-157,-168,-153,-115,-62
6,17,12,-12,-2,15,-73,-129,-142,-134,-107,-61
0,8,8,-4,-4,9,-56,-103,-118,-116,-96,-59
-5,0,4,3,-4,2,-40,-79,-95,-97,-85,-56
-7,-7,0,7,-3,-3,-27,-58,-75,-81,-74,-52
-8,-13,-4,11,-2,-8,-15,-39,-58,-66,-64,-47
-9,-17,-7,13,-1,-12,-5,-25,-43,-54,-56,-42
-10,-20,-10,15,0,-15,2,-14,-33,-46,-50,-39
-10,-22,-12,16,0,-17,8,-6,-26,-40,-46,-36
-11,-24,-13,17,0,-18,12,-1,-21,-35,-43,-35
-12,-26,-13,19,0,-19,14,2,-16,-32,-41,-34
-14,-28,-14,21,0,-20,16,5,-14,-30,-40,-34
-14,-29,-15,22,1,-22,17,7,-12,-28,-39,-34
-14,-31,-16,22,1,-24,18,9,-11,-27,-38,-33
-14,-31,-16,23,1,-24,20,11,-9,-25,-36,-31
-14,-32,-17,23,1,-25,22,12,-8,-23,-34,-30
-14,-32,-18,23,2,-25,23,13,-6,-22,-32,-30
-14,-33,-19,24,2,-26,24,14,-5,-21,-31,-29
-15,-33,-18,24,1,-25,25,15,-3,-20,-31,-29
-16,-33,-17,24,0,-24,26,16,-2,-20,-31,-28
-17,-32,-15,24,0,-24,25,16,-2,-20,-31,-28
-16,-32,-15,23,0,-23,24,16,-3,-20,-31,-29
-14,-30,-15,21,1,-23,24,17,-2,-19,-31,-29
-13,-27,-15,20,1,-21,24,18,-1,-17,-29,-29
-12,-26,-14,19,1,-20,25,19,0,-17,-28,-28
-12,-25,-14,19,1,-20,25,19,0,-16,-28,-27
-11,-26,-14,19,1,-20,25,19,0,-16,-27,-27
-11,-26,-15,19,1,-20,25,19,1,-16,-26,-27
-10,-26,-15,18,2,-21,25,19,1,-14,-25,-25
-10,-26,-15,18,2,-21,25,20,3,-13,-23,-23
-11,-27,-14,18,1,-21,26,21,4,-11,-21,-21
-12,-27,-14,19,1,-21,27,22,6,-9,-20,-20
-11,-26,-15,18,2,-21,27,23,7,-8,-19,-19
-10,-25,-16,17,3,-20,27,22,8,-7,-18,-20
-10,-24,-15,17,2,-19,27,22,8,-7,-18,-20
-12,-24,-12,18,-1,-17,27,21,8,-6,-18,-20
-15,-24,-9,19,-3,-16,26,21,8,-6,-17,-20
-14,-24,-9,18,-3,-16,26,21,8,-6,-16,-19
-13,-22,-9,17,-2,-15,26,22,9,-5,-15,-17
-12,-21,-8,16,-2,-14,26,23,11,-4,-14,-16
-11,-19,-8,15,-1,-13,26,23,12,-3,-14,-15
-9,-18,-8,13,0,-13,26,23,13,-3,-13,-14
-9,-16,-7,12,-1,-12,26,23,14,-2,-12,-14
-10,-15,-5,12,-2,-10,26,24,15,0,-11,-13
-10,-14,-3,12,-3,-9,26,25,16,1,-9,-12
-8,-13,-4,10,-2,-8,26,26,18,3,-7,-11
-7,-12,-4,9,-2,-8,25,26,18,4,-6,-10
-7,-12,-5,9,-1,-8,25,26,19,5,-5,-9
-7,-12,-5,10,-1,-9,25,27,21,7,-3,-8
-7,-13,-5,10,-1,-9,26,29,23,9,-1,-6
-7,-13,-4,10,-1,-9,27,31,25,11,1,-4
-7,-12,-3,10,-1,-8,28,32,27,14,3,-2
-7,-10,-2,9,-2,-6,28,33,29,16,6,0
-6,-8,-2,7,-1,-5,28,33,30,18,8,1
-6,-7,0,6,-2,-4,28,33,31,20,10,3
-7,-5,2,5,-5,-1,28,34,33,23,12,5
-6,-3,3,4,-5,0,28,35,35,25,15,7
-5,-1,4,2,-5,2,28,36,38,28,17,9
-4,0,4,2,-4,2,28,36,40,31,20,11
-3,0,3,1,-3,2,27,37,41,32,22,12
-2,0,3,0,-3,2,26,38,43,35,25,14
-2,1,4,0,-3,2,26,40,46,39,29,17
-2,2,5,-1,-3,3,26,42,49,44,34,21
-1,4,6,-2,-4,5,26,44,52,48,38,24
-1,6,8,-3,-5,7,27,46,56,52,42,27
-1,9,10,-4,-6,10,28,48,60,57,46,30
0,12,12,-6,-6,12,28,50,64,62,51,34
1,16,15,-8,-7,15,28,51,68,68,56,37
1,18,17,-9,-8,18,27,52,70,72,61,40
2,20,18,-11,-8,19,27,53,72,74,64,42
4,22,19,-13,-7,21,26,54,74,77,67,45
6,24,19,-15,-6,21,26,55,76,79,70,48
7,24,18,-16,-5,21,25,55,78,82,73,51
7,25,19,-16,-6,23,24,56,81,86,77,55
8,28,21,-18,-6,25,24,57,83,90,81,59
11,31,21,-21,-5,26,24,58,86,93,85,62
12,33,21,-22,-4,27,23,58,87,95,87,64
10,34,23,-22,-6,28,23,57,87,97,88,65
8,35,26,-21,-9,30,23,57,88,98,90,66
8,36,28,-22,-10,32,22,56,88,99,91,67
10,37,27,-24,-8,32,20,54,86,99,91,68
12,39,27,-26,-8,33,18,53,85,99,92,69
11,40,30,-26,-10,36,18,52,85,98,92,70
11,42,31,-26,-11,37,17,51,84,97,92,71
12,43,31,-27,-10,38,16,50,83,95,91,71
12,44,31,-28,-9,38,15,48,81,94,90,70
13,44,30,-28,-8,37,14,47,79,93,90,70
13,43,29,-28,-8,37,14,46,77,92,89,70
12,43,30,-28,-9,37,13,45,76,91,89,70
11,42,31,-27,-10,37,12,43,73,89,87,70
12,42,30,-28,-9,36,10,40,70,85,84,68
13,42,28,-28,-8,35,9,37,66,80,80,65
14,41,27,-27,-7,34,8,34,62,75,75,61
14,40,25,-26,-6,33,7,32,58,71,71,58
13,38,24,-25,-6,31,7,30,55,68,69,56
13,37,23,-24,-5,30,6,28,51,63,65,53
12,35,23,-24,-5,29,5,26,47,58,61,50
11,33,22,-23,-5,28,3,25,43,54,56,47
12,32,21,-22,-4,26,2,23,40,50,52,44
12,30,19,-22,-3,25,1,21,37,46,48,41
11,28,17,-20,-3,23,1,19,34,42,43,38
9,26,16,-17,-4,21,2,17,31,38,40,36
8,25,16,-16,-4,20,2,15,29,35,38,35
8,24,15,-16,-4,20,3,14,26,33,36,33
6,22,16,-14,-5,19,3,13,23,29,33,30
4,21,17,-13,-6,19,3,12,20,25,29,26
3,20,17,-12,-7,19,3,11,18,21,24,22
3,21,18,-12,-7,19,3,11,17,19,21,20
2,22,20,-12,-9,20,3,10,16,18,19,18
1,22,20,-11,-9,20,2,9,14,16,18,16
2,20,17,-10,-8,18,2,7,11,12,15,13
2,16,13,-9,-6,14,2,5,8,8,11,10
2,12,10,-8,-4,11,3,5,6,5,9,8
1,8,7,-6,-3,8,4,5,5,4,8,7
0,6,7,-4,-4,7,5,5,4,3,7,6
-1,5,7,-2,-4,6,6,6,4,3,6,5
0,4,5,-2,-3,4,6,5,2,1,3,3
-1,3,4,-1,-3,3,5,3,0,-2,0,0
-2,2,4,0,-3,3,5,2,-1,-4,-2,-1
-3,2,4,0,-4,3,5,2,-2,-6,-5,-3
-4,1,5,0,-5,3,5,2,-3,-6,-5,-3
-4,1,5,0,-5,3,5,2,-3,-7,-6,-3
-2,0,3,0,-3,1,5,1,-5,-9,-7,-4
-3,0,2,1,-3,1,5,1,-5,-11,-8,-4
-6,-1,4,3,-5,1,6,2,-5,-10,-7,-4
-7,-1,5,4,-6,2,7,3,-4,-10,-7,-3
-6,-2,4,4,-5,1,7,3,-4,-10,-8,-4
-6,-2,3,4,-5,0,7,2,-5,-11,-8,-5
-7,-3,3,5,-5,0,8,2,-5,-11,-8,-5
-6,-3,3,4,-5,0,8,2,-6,-12,-9,-6
-5,-3,2,4,-4,0,7,2,-7,-13,-10,-6
-4,-3,1,4,-3,-1,7,1,-8,-14,-11,-7
-4,-4,0,4,-2,-2,7,1,-8,-14,-11,-7
-3,-5,-2,4,-1,-3,7,1,-8,-15,-12,-7
-2,-6,-4,4,0,-5,7,1,-8,-15,-12,-7
-3,-7,-5,5,0,-6,8,2,-8,-15,-12,-7
-3,-8,-6,6,1,-7,9,2,-8,-15,-12,-7
-4,-9,-5,6,0,-7,9,2,-7,-14,-11,-8
-4,-8,-4,6,0,-6,9,2,-7,-14,-11,-8
-3,-6,-2,4,0,-4,8,1,-7,-13,-10,-9
-3,-3,0,3,-1,-2,7,2,-6,-11,-9,-8
-3,-1,3,2,-3,1,7,2,-6,-10,-9,-9
-5,0,5,3,-5,2,6,2,-6,-11,-10,-10
-8,0,6,4,-7,3,6,1,-7,-13,-11,-10
-9,-1,7,5,-8,3,6,1,-7,-13,-12,-10
-9,-3,6,6,-7,1,7,2,-8,-13,-12,-9
-9,-5,4,6,-6,0,7,2,-8,-13,-11,-9
-9,-7,2,7,-5,-2,7,2,-8,-12,-11,-9
-8,-8,0,8,-4,-5,7,2,-8,-12,-10,-10
-7,-10,-2,8,-2,-6,7,2,-8,-12,-10,-10
-7,-10,-3,8,-2,-7,8,2,-8,-12,-10,-10
-7,-10,-3,8,-2,-6,8,2,-8,-12,-10,-10
-6,-9,-3,7,-2,-5,8,2,-8,-12,-10,-10
-5,-8,-3,6,-1,-5,8,2,-7,-12,-10,-9
-4,-6,-1,5,-1,-3,9,3,-6,-11,-9,-8
-6,-4,3,5,-4,0,10,5,-5,-10,-8,-6
-9,-2,7,6,-8,2,12,6,-3,-9,-7,-5
-8,0,9,4,-9,4,12,6,-3,-8,-6,-4
-6,1,8,2,-7,5,11,5,-3,-9,-7,-5
-4,3,7,0,-6,5,10,4,-4,-10,-8,-5
-5,4,9,0,-7,7,10,4,-3,-10,-7,-4
-6,5,11,0,-8,9,11,5,-3,-9,-7,-3
-5,7,11,-1,-8,10,11,5,-3,-8,-6,-2
-2,8,10,-3,-6,10,11,5,-3,-8,-7,-2
-2,6,9,-3,-5,8,11,5,-4,-9,-7,-3
-4,3,8,0,-6,5,10,4,-4,-10,-8,-4
-6,0,6,2,-6,3,9,4,-4,-11,-8,-4
-6,-1,5,2,-6,2,8,4,-4,-10,-8,-4
-5,-1,3,2,-5,1,8,5,-3,-9,-7,-4
-5,-2,2,2,-3,0,7,6,-2,-8,-6,-4
-3,-2,0,2,-2,0,7,7,-2,-7,-5,-3
0,0,0,0,0,0,6,7,-1,-6,-3,-2
1,2,0,-2,0,2,5,6,-1,-5,-2,0
2,6,3,-4,-1,5,4,6,0,-4,0,2
3,9,6,-6,-2,8,2,5,0,-3,1,4
3,11,8,-7,-3,10,0,4,0,-3,1,4
0,12,12,-6,-6,12,0,3,0,-3,1,4
-2,12,15,-5,-9,14,0,1,-2,-4,0,4
-2,13,15,-5,-9,14,-1,-2,-5,-6,-2,2
-1,13,15,-6,-8,14,-3,-5,-8,-9,-4,0
-1,14,16,-7,-8,15,-4,-6,-10,-11,-5,-1
-1,15,17,-7,-9,16,-4,-7,-11,-13,-6,-2
-3,15,18,-6,-10,17,-3,-7,-11,-14,-7,-2
-4,14,18,-5,-11,16,-3,-7,-12,-14,-8,-3
-3,12,15,-5,-9,13,-3,-7,-12,-15,-9,-4
-2,9,11,-4,-6,10,-2,-7,-13,-16,-10,-5
-1,5,6,-2,-3,5,-2,-7,-14,-17,-12,-6
-1,0,1,0,-1,1,-1,-8,-15,-18,-13,-8
-2,-3,-1,2,0,-2,-1,-9,-17,-21,-16,-10
-3,-7,-3,4,0,-4,-1,-9,-19,-23,-18,-11
-2,-8,-5,5,1,-6,0,-9,-19,-24,-18,-12
0,-8,-6,4,3,-7,2,-7,-19,-24,-18,-12
0,-7,-7,3,3,-7,3,-6,-18,-23,-18,-13
-3,-9,-6,6,2,-8,3,-6,-18,-23,-19,-14
-6,-12,-6,9,0,-9,3,-6,-19,-24,-19,-15
-8,-14,-6,11,0,-10,4,-6,-19,-24,-19,-15
-8,-14,-6,11,-1,-10,4,-6,-19,-24,-20,-15
-9,-15,-6,12,-1,-10,5,-6,-19,-25,-20,-15
-9,-15,-6,12,-2,-10,5,-7,-20,-25,-21,-16
-9,-15,-6,12,-2,-10,5,-7,-20,-26,-21,-16
-10,-14,-5,12,-2,-10,5,-6,-20,-25,-20,-16
-11,-14,-4,12,-3,-9,5,-6,-20,-25,-20,-16
-11,-14,-4,12,-3,-9,5,-7,-20,-25,-20,-17
-11,-14,-4,12,-3,-9,5,-7,-20,-25,-21,-17
-11,-14,-4,12,-3,-8,5,-7,-20,-25,-21,-18
-12,-14,-3,13,-4,-8,6,-7,-20,-25,-21,-18
-11,-14,-3,12,-4,-8,6,-6,-20,-25,-21,-18
-11,-14,-3,12,-4,-8,6,-6,-20,-25,-21,-18
-9,-14,-5,11,-2,-9,5,-6,-20,-26,-22,-18
