leadI,leadII,leadIII,leadaVR,leadaVL,leadaVF,leadV1,leadV2,leadV3,leadV4,leadV5,leadV6
1,1,0,-1,0,0,2,5,3,3,1,0
3,3,1,-3,0,2,6,13,9,9,4,1
3,5,2,-4,0,4,10,19,13,14,8,4
4,7,3,-5,0,5,13,24,17,18,11,7
4,7,3,-6,1,5,15,28,20,22,13,9
6,6,0,-6,3,2,15,31,21,24,15,10
6,4,-2,-5,4,1,15,32,23,25,16,11
2,3,1,-3,1,2,17,34,25,26,17,11
1,5,4,-3,-1,5,18,36,26,26,17,12
1,7,7,-4,-2,7,17,36,26,26,17,11
1,8,8,-4,-3,8,17,37,26,27,17,11
0,8,8,-4,-4,8,17,38,27,28,18,11
2,8,7,-5,-2,8,17,39,28,29,19,12
7,10,3,-9,2,7,18,39,30,31,20,13
10,12,2,-11,4,7,20,40,32,33,22,15
9,13,4,-11,3,9,22,42,34,34,24,17
8,13,4,-11,2,9,23,42,35,35,24,17
8,13,5,-11,1,9,22,42,34,35,24,17
7,14,7,-11,0,11,20,44,34,35,24,17
7,16,8,-12,0,12,19,46,35,36,25,18
9,17,8,-13,1,12,19,47,35,38,25,18
12,17,6,-14,3,12,20,48,36,38,26,18
13,17,4,-15,4,11,21,48,37,39,26,19
12,17,5,-15,3,12,21,49,38,40,27,19
10,18,7,-14,1,13,22,50,38,40,27,19
10,21,10,-16,0,15,23,50,39,40,28,19
13,24,11,-19,1,17,23,50,40,40,28,20
16,25,9,-21,4,17,23,50,39,39,28,19
18,25,7,-21,5,16,23,50,39,39,28,19
17,24,7,-20,5,15,23,49,39,40,28,19
17,22,6,-19,5,14,22,48,39,40,28,19
16,21,5,-19,5,14,22,48,38,40,28,19
15,22,7,-19,4,15,23,48,39,40,28,20
15,24,8,-20,4,17,22,48,39,40,29,21
15,27,12,-21,2,19,21,48,39,39,29,22
15,30,15,-23,0,22,20,47,39,39,29,22
18,32,14,-25,2,23,21,47,39,39,29,22
19,32,14,-25,3,23,22,46,39,39,30,23
19,31,12,-25,4,22,22,44,38,38,30,23
23,31,8,-27,7,20,21,40,36,36,29,22
25,32,8,-29,9,21,21,38,35,35,29,22
23,34,10,-29,7,23,20,35,35,34,29,23
20,33,13,-27,3,24,18,31,33,32,28,22
18,33,16,-26,1,25,15,27,31,29,26,21
18,35,17,-27,1,26,14,24,29,28,26,22
21,37,16,-29,3,26,14,22,28,27,26,22
23,38,14,-31,5,26,14,22,27,27,26,23
23,37,14,-31,5,26,14,21,26,26,26,24
21,37,15,-29,3,26,15,20,25,25,26,24
20,36,16,-28,2,27,15,19,24,24,25,24
20,36,16,-28,2,26,13,17,22,22,24,24
21,36,15,-29,3,26,11,14,19,19,22,22
24,37,14,-31,5,25,10,11,17,16,21,21
26,39,14,-32,6,26,10,8,16,14,20,21
26,39,14,-33,6,26,11,5,15,13,20,22
27,39,13,-33,7,26,11,3,14,12,20,22
25,39,14,-32,5,26,11,2,14,11,20,23
24,39,15,-31,4,27,11,1,13,10,20,23
24,39,14,-31,4,27,11,0,11,8,18,22
24,39,14,-31,4,27,10,-3,10,6,17,21
24,39,15,-31,4,26,10,-5,8,4,16,20
25,38,13,-31,5,25,9,-8,7,2,15,19
27,37,10,-31,8,23,7,-11,4,-1,13,17
27,35,7,-31,9,21,5,-13,2,-3,11,16
26,35,7,-30,9,21,5,-14,2,-3,11,16
25,35,8,-30,8,21,6,-14,1,-3,11,16
24,35,9,-30,7,22,7,-14,1,-3,11,16
24,35,11,-30,6,23,6,-14,1,-3,11,17
24,35,12,-30,6,23,6,-15,1,-4,11,17
25,36,11,-30,7,23,6,-16,0,-4,11,17
26,36,11,-30,8,23,6,-16,0,-4,11,17
26,36,10,-30,8,23,7,-16,0,-4,11,18
28,35,8,-31,10,22,6,-17,-1,-5,10,17
29,35,6,-32,11,21,4,-17,-2,-6,9,16
30,36,6,-33,12,21,4,-15,-1,-6,9,16
30,37,7,-33,11,22,5,-14,-1,-5,10,17
29,38,8,-34,11,23,6,-14,-1,-5,10,17
28,37,9,-33,10,22,5,-14,-2,-6,9,16
26,35,10,-30,8,22,6,-14,-2,-6,9,16
23,35,12,-29,6,23,7,-13,-1,-5,10,17
23,35,13,-29,5,24,8,-12,0,-4,10,17
22,35,13,-29,5,24,7,-13,0,-4,10,17
20,33,13,-27,4,23,6,-14,-1,-5,10,17
20,32,12,-26,4,22,7,-14,-2,-6,10,17
24,33,9,-29,8,21,7,-14,-2,-6,9,17
27,33,7,-30,10,20,7,-14,-1,-7,9,17
27,33,7,-30,10,20,7,-14,-1,-7,9,17
27,33,6,-30,10,20,6,-15,-1,-7,9,17
27,33,5,-29,10,19,6,-16,-1,-8,9,16
26,32,6,-29,10,19,6,-17,-1,-8,9,16
26,33,7,-29,9,20,7,-17,-1,-7,9,16
26,32,7,-29,9,20,7,-18,-2,-7,9,16
27,32,5,-30,11,19,6,-19,-3,-8,8,15
30,33,4,-31,13,19,7,-19,-3,-9,8,14
29,34,5,-32,12,20,8,-17,-2,-8,9,15
27,34,7,-30,10,21,8,-16,-1,-7,10,16
25,34,8,-30,8,21,8,-15,0,-6,10,16
25,33,8,-29,8,21,8,-14,0,-5,10,16
23,32,9,-28,7,20,8,-13,0,-5,10,16
22,31,9,-27,7,20,8,-12,0,-5,10,16
24,32,9,-28,8,20,8,-12,0,-5,10,16
25,32,8,-29,8,20,8,-13,0,-6,10,16
24,31,7,-28,8,19,8,-14,-1,-6,9,15
26,31,5,-28,10,18,7,-14,-1,-7,9,15
28,31,2,-30,12,17,7,-14,-1,-7,9,14
29,31,2,-31,13,17,7,-13,-1,-6,9,14
27,33,6,-30,10,20,8,-11,1,-4,11,16
25,34,10,-30,7,22,9,-10,2,-3,12,17
24,33,10,-29,7,21,8,-10,1,-3,12,17
22,31,10,-27,6,20,7,-11,1,-4,11,16
19,31,12,-26,3,21,7,-11,1,-4,11,16
19,33,14,-27,2,23,8,-10,3,-3,12,16
21,35,14,-28,3,25,9,-9,4,-2,13,18
23,36,13,-29,4,25,10,-8,5,-2,13,18
24,35,11,-30,6,24,9,-7,4,-2,13,18
26,35,9,-30,8,22,8,-7,3,-2,13,18
27,35,8,-31,10,22,7,-8,2,-2,13,17
26,35,9,-31,9,22,7,-7,2,-1,13,18
24,35,12,-30,6,24,8,-7,3,0,14,18
22,35,14,-29,4,25,8,-8,3,0,14,19
22,35,14,-29,4,25,9,-8,3,0,14,19
23,35,13,-29,5,24,9,-8,4,0,14,19
24,36,12,-30,6,24,9,-7,5,0,15,20
24,36,12,-30,6,24,9,-7,5,0,15,20
24,37,13,-30,6,25,9,-8,4,0,16,20
25,37,12,-31,7,24,7,-9,3,-1,15,19
27,37,10,-32,8,23,5,-11,1,-2,14,18
26,36,10,-31,7,23,4,-11,0,-2,14,19
22,36,13,-29,4,24,3,-11,0,-2,15,20
22,37,14,-29,3,25,2,-11,1,-1,15,21
24,39,14,-31,4,26,2,-12,1,-1,16,22
26,40,13,-33,6,27,1,-14,1,-1,17,22
28,40,12,-33,8,26,0,-15,0,-2,16,21
31,39,8,-35,12,24,-2,-16,-1,-4,14,20
34,38,5,-36,15,21,-2,-17,-3,-5,13,19
34,38,4,-36,15,20,-3,-17,-4,-6,12,18
32,37,4,-34,14,20,-3,-19,-6,-8,11,17
29,37,7,-33,11,21,-3,-20,-6,-8,11,17
26,38,11,-32,8,24,-1,-20,-5,-8,11,18
24,39,14,-31,5,26,1,-19,-4,-6,12,20
23,39,16,-31,3,28,4,-16,-3,-5,13,21
22,37,16,-29,3,27,4,-15,-3,-5,13,20
20,34,16,-27,2,25,2,-16,-4,-6,12,19
18,32,15,-25,1,24,2,-17,-5,-7,11,18
18,32,13,-25,2,23,2,-18,-5,-8,10,17
19,32,12,-26,3,22,3,-19,-6,-9,9,17
19,30,11,-25,4,21,3,-21,-7,-11,8,15
19,28,8,-24,5,18,3,-24,-8,-14,5,13
19,27,7,-23,6,17,2,-26,-10,-16,4,11
20,25,6,-23,7,16,2,-26,-12,-16,3,10
19,25,5,-22,7,15,2,-24,-12,-16,3,10
18,25,7,-22,6,16,3,-22,-12,-15,4,11
18,27,8,-23,6,17,3,-21,-12,-15,3,11
17,27,9,-23,4,18,4,-21,-12,-15,3,11
15,26,10,-21,2,18,4,-21,-13,-16,3,10
15,24,8,-19,3,16,3,-23,-14,-18,1,8
16,22,5,-19,5,13,2,-24,-15,-19,0,7
16,21,5,-18,5,13,3,-24,-15,-19,1,8
14,21,7,-17,3,14,4,-24,-14,-19,2,9
11,21,9,-16,1,15,4,-24,-14,-19,2,9
10,20,10,-15,0,15,4,-24,-14,-19,2,9
11,19,7,-15,2,13,3,-26,-15,-20,1,9
11,16,5,-14,3,10,2,-28,-17,-21,0,8
9,14,4,-12,3,9,1,-28,-17,-22,-1,7
9,13,3,-11,3,8,1,-28,-18,-23,-1,6
11,13,2,-11,5,8,1,-28,-18,-23,-2,5
13,14,1,-13,6,8,2,-28,-17,-23,-2,5
13,15,2,-14,6,8,2,-28,-17,-23,-2,5
12,15,3,-13,4,9,2,-27,-17,-23,-2,5
10,15,5,-12,2,10,3,-26,-17,-22,-1,6
8,16,7,-12,0,11,3,-26,-16,-22,0,8
9,15,5,-12,2,10,3,-27,-17,-23,-1,7
9,14,4,-11,2,9,2,-28,-19,-24,-2,6
5,13,7,-9,0,10,2,-28,-19,-25,-2,5
3,12,9,-7,-2,11,2,-28,-19,-25,-2,5
4,12,8,-8,-1,10,1,-29,-19,-25,-3,5
6,12,5,-9,0,8,0,-30,-20,-26,-3,4
8,11,3,-9,2,7,0,-31,-20,-27,-4,3
8,11,3,-9,2,6,0,-31,-20,-27,-4,3
5,10,5,-8,0,7,0,-29,-19,-26,-3,4
2,10,8,-6,-3,9,2,-26,-18,-24,-2,6
0,10,9,-5,-4,9,3,-25,-17,-24,-1,7
1,9,9,-4,-4,9,3,-25,-17,-24,-1,7
2,10,8,-6,-3,9,3,-25,-16,-24,0,7
3,11,9,-7,-3,10,4,-24,-16,-23,0,8
3,11,9,-7,-3,10,3,-24,-16,-24,0,8
3,11,9,-7,-3,10,3,-26,-16,-25,0,6
4,12,8,-7,-2,10,2,-26,-17,-26,-1,5
4,13,9,-7,-2,10,2,-26,-16,-26,-1,5
2,12,10,-6,-4,11,3,-25,-15,-26,0,5
0,12,13,-5,-6,12,5,-22,-13,-24,2,6
-4,11,16,-3,-10,13,6,-19,-10,-21,4,8
-8,9,18,-1,-13,13,7,-15,-6,-18,6,9
-7,10,18,-1,-13,14,8,-10,-2,-13,10,12
-3,14,17,-5,-10,15,9,-3,3,-6,14,17
1,16,15,-9,-7,15,8,3,8,1,19,22
6,17,11,-11,-2,14,5,7,10,8,23,27
14,18,3,-15,5,10,-1,5,9,12,25,31
24,19,-5,-21,15,7,-10,-1,4,14,26,36
32,21,-10,-26,21,6,-18,-12,-2,16,28,43
38,24,-13,-31,25,6,-28,-28,-11,15,29,50
45,28,-16,-37,31,6,-38,-46,-22,13,30,56
51,31,-19,-42,35,6,-47,-65,-34,8,28,59
56,33,-22,-45,39,5,-54,-84,-47,1,25,61
63,35,-27,-49,45,4,-62,-99,-59,-5,21,63
72,36,-36,-54,54,0,-71,-113,-73,-13,15,62
79,33,-46,-56,63,-6,-82,-130,-91,-27,4,58
85,31,-54,-57,70,-11,-91,-147,-109,-45,-8,51
88,30,-58,-59,73,-13,-95,-162,-123,-62,-19,43
87,25,-62,-56,74,-18,-98,-173,-136,-80,-33,29
84,15,-67,-50,76,-26,-100,-180,-148,-98,-51,10
81,5,-75,-44,78,-35,-102,-186,-158,-116,-69,-11
80,-5,-83,-38,81,-44,-102,-189,-167,-132,-86,-31
78,-14,-90,-32,84,-52,-101,-188,-172,-144,-100,-47
75,-21,-95,-27,85,-58,-98,-182,-174,-150,-109,-60
75,-26,-101,-23,88,-63,-93,-173,-172,-153,-117,-69
74,-31,-105,-21,89,-68,-87,-162,-167,-153,-121,-77
69,-35,-104,-17,87,-70,-79,-150,-160,-148,-121,-80
62,-37,-98,-13,80,-68,-72,-139,-150,-141,-117,-80
54,-36,-90,-10,72,-63,-65,-127,-137,-131,-110,-75
47,-33,-79,-7,63,-57,-56,-115,-123,-120,-100,-69
40,-29,-68,-5,54,-49,-48,-104,-109,-108,-89,-63
33,-25,-57,-4,45,-41,-41,-92,-95,-96,-78,-56
28,-19,-47,-4,38,-32,-33,-77,-81,-82,-66,-47
25,-11,-37,-6,31,-24,-27,-64,-67,-69,-55,-38
22,-6,-28,-7,25,-17,-21,-52,-55,-57,-45,-30
18,-3,-21,-7,20,-12,-17,-41,-45,-46,-37,-24
17,0,-17,-8,17,-9,-12,-29,-36,-37,-30,-19
16,1,-14,-8,15,-7,-7,-20,-28,-29,-25,-16
16,2,-13,-9,14,-6,-3,-14,-22,-24,-21,-14
16,2,-12,-9,14,-5,0,-11,-17,-21,-18,-13
13,2,-9,-7,11,-3,3,-8,-12,-17,-15,-12
9,2,-6,-5,7,-1,5,-6,-8,-14,-12,-10
7,3,-4,-4,6,0,6,-3,-5,-12,-10,-9
9,4,-4,-6,7,0,8,1,-3,-9,-9,-7
9,5,-3,-7,7,1,10,5,0,-5,-7,-6
6,4,-1,-5,4,1,12,7,2,-3,-6,-5
4,2,-1,-3,3,0,13,7,3,-2,-6,-5
2,0,-1,-1,2,0,13,7,4,-1,-5,-5
0,0,1,0,0,1,14,8,6,0,-4,-4
-1,0,3,0,-2,2,14,9,7,2,-2,-3
-1,1,2,0,-2,2,14,10,8,3,-2,-2
1,1,0,-1,0,0,14,11,8,4,-2,-3
2,0,-2,-1,2,-1,14,12,9,5,-3,-3
2,0,-1,-1,1,-1,15,14,10,8,-2,-3
3,0,-3,-2,3,-1,15,15,11,9,-1,-3
5,0,-4,-2,4,-2,14,15,10,10,-2,-4
1,-1,-2,0,2,-1,14,15,11,11,-1,-4
-2,0,2,1,-2,1,17,17,13,13,1,-1
-3,1,5,1,-4,3,19,19,15,16,3,1
-4,0,4,2,-4,2,19,19,16,18,4,1
-6,-3,4,5,-5,0,18,19,15,18,4,0
-9,-6,4,7,-6,-1,17,18,15,19,3,0
-10,-8,2,9,-5,-3,18,18,15,20,3,-1
-7,-8,0,8,-3,-4,18,19,15,21,3,-1
-4,-7,-2,6,0,-4,17,20,15,22,4,0
-2,-7,-4,5,1,-5,16,21,15,23,5,0
-3,-9,-5,6,1,-6,15,20,15,23,5,-1
-5,-9,-3,7,-1,-6,15,20,15,24,6,0
-9,-9,0,9,-5,-5,17,21,18,27,8,1
-14,-11,2,12,-8,-5,18,22,19,29,10,2
-15,-12,2,13,-9,-5,19,23,20,30,10,2
-12,-12,0,12,-7,-6,20,24,21,30,10,2
-11,-12,0,12,-5,-6,19,24,21,31,10,3
-12,-11,1,12,-7,-5,20,26,21,32,12,4
-12,-11,1,12,-6,-5,19,27,21,32,12,4
-9,-12,-2,10,-3,-7,17,26,18,31,10,1
-8,-12,-5,10,-2,-9,14,25,17,31,9,0
-8,-12,-4,10,-2,-8,14,26,17,32,10,0
-9,-12,-2,11,-3,-7,16,28,19,33,11,0
-12,-11,1,12,-6,-5,18,29,21,35,13,3
-15,-12,4,14,-9,-4,19,31,23,36,15,4
-16,-13,4,15,-10,-4,19,30,23,36,15,4
-17,-14,3,16,-10,-5,19,30,23,35,16,4
-19,-15,4,17,-12,-5,19,29,23,36,16,4
-20,-15,4,17,-12,-5,19,30,23,36,16,4
-19,-15,3,17,-11,-6,19,31,23,37,16,4
-18,-16,1,17,-10,-7,18,32,22,36,15,3
-17,-17,0,16,-8,-9,17,32,22,35,14,2
-17,-17,1,17,-9,-8,18,33,23,36,15,3
-19,-17,3,17,-11,-7,18,35,24,37,16,4
-19,-17,3,18,-11,-7,18,35,24,37,17,4
-21,-18,4,20,-13,-7,18,36,24,38,17,4
-25,-19,5,22,-15,-7,17,37,25,38,18,4
-26,-19,6,23,-16,-7,17,39,26,39,18,5
-25,-19,6,22,-16,-6,17,40,26,39,19,5
-26,-20,5,23,-16,-7,17,40,27,39,19,5
-26,-22,5,24,-16,-8,17,40,27,38,18,5
-25,-22,4,23,-14,-9,17,40,27,37,18,4
-23,-21,3,22,-13,-8,17,40,28,37,17,3
-23,-20,4,22,-13,-8,18,40,28,37,17,3
-23,-21,2,22,-12,-9,17,40,28,36,16,2
-24,-22,1,23,-12,-10,16,39,27,36,16,2
-29,-23,6,26,-17,-9,16,42,29,38,18,4
-33,-23,10,27,-21,-6,18,45,31,40,20,6
-33,-22,11,27,-21,-5,18,46,32,41,20,6
-31,-22,10,26,-20,-6,16,47,31,41,20,6
-32,-23,9,27,-21,-6,16,47,31,41,20,6
-32,-22,11,27,-22,-5,17,49,32,41,21,6
-31,-21,11,26,-21,-5,18,49,33,41,21,6
-32,-20,11,26,-22,-5,17,48,33,40,21,6
-33,-20,12,26,-22,-4,16,48,33,40,20,6
-32,-20,11,25,-21,-4,15,48,33,40,20,5
-30,-20,9,25,-19,-5,14,48,33,39,20,5
-28,-20,8,24,-18,-6,14,48,33,39,19,5
-26,-19,8,22,-17,-5,14,49,33,40,20,5
-26,-18,9,22,-18,-4,14,49,34,40,20,6
-29,-19,11,24,-20,-4,14,50,34,40,20,6
-33,-20,13,26,-23,-4,14,50,34,39,20,5
-35,-21,15,28,-25,-3,14,51,34,39,20,5
-34,-20,14,27,-24,-3,13,50,34,38,20,5
-32,-20,12,25,-22,-4,13,48,34,37,19,5
-30,-19,11,25,-21,-3,12,46,33,36,19,4
-30,-19,11,24,-21,-3,12,45,32,36,19,5
-29,-18,12,23,-21,-2,12,46,32,36,19,5
-30,-17,13,23,-22,-2,12,48,33,36,20,6
-32,-16,15,24,-24,-1,13,50,33,37,20,6
-33,-16,16,24,-25,0,13,50,33,37,21,7
-32,-15,17,24,-24,0,12,49,33,36,21,7
-32,-16,15,24,-23,0,11,46,32,35,20,6
-33,-19,14,26,-23,-1,9,43,30,32,19,6
-33,-20,14,27,-23,-2,9,41,29,31,19,6
-32,-18,14,25,-23,-1,10,39,29,30,20,7
-32,-16,16,24,-24,0,11,38,29,30,20,8
-32,-15,18,24,-25,1,10,35,28,28,19,8
-32,-14,18,23,-25,1,8,32,26,27,18,8
-33,-14,19,24,-26,2,6,29,25,25,18,8
-34,-16,18,25,-26,0,4,25,23,22,16,7
-32,-18,13,25,-22,-1,2,20,20,18,14,6
-28,-16,12,23,-20,-1,2,18,19,16,14,6
-27,-15,12,21,-19,0,2,16,17,15,14,7
-27,-15,12,21,-20,0,1,14,15,13,12,6
-29,-15,13,22,-21,-1,0,12,13,11,11,5
-31,-15,16,23,-24,0,0,11,12,10,11,6
-31,-14,17,22,-24,1,0,10,11,9,11,6
-29,-13,16,21,-22,0,0,8,10,7,10,6
-28,-15,14,21,-21,0,0,4,9,5,10,6
-27,-17,11,22,-20,-1,0,0,7,2,8,5
-25,-17,8,21,-17,-3,-1,-5,4,0,6,3
-25,-18,8,22,-18,-3,-2,-8,2,-2,5,3
-30,-18,12,24,-21,-3,-2,-8,1,-3,5,3
-31,-18,13,24,-22,-2,-3,-9,0,-3,4,3
-28,-17,11,22,-19,-3,-3,-9,0,-4,3,2
-26,-17,9,21,-17,-4,-4,-9,-1,-5,3,2
-26,-17,8,21,-17,-4,-5,-9,-2,-6,2,2
-24,-18,6,21,-15,-5,-6,-10,-4,-8,1,2
-26,-20,6,23,-17,-5,-6,-11,-5,-9,1,1
-30,-21,9,26,-21,-5,-5,-11,-5,-9,1,1
-33,-22,11,28,-22,-6,-5,-12,-6,-10,0,1
-32,-23,10,27,-21,-7,-7,-15,-7,-12,-1,0
-31,-23,9,27,-20,-8,-8,-18,-8,-13,-2,-1
-31,-23,9,27,-20,-8,-7,-19,-8,-14,-3,-2
-31,-23,8,27,-19,-7,-6,-20,-8,-14,-3,-2
-30,-23,7,26,-19,-7,-6,-20,-8,-14,-3,-2
-30,-24,7,27,-19,-7,-7,-20,-9,-15,-4,-2
-30,-25,5,28,-18,-9,-7,-21,-10,-16,-4,-3
-29,-24,4,27,-17,-9,-6,-20,-11,-16,-4,-2
-30,-24,6,27,-18,-9,-6,-19,-10,-16,-4,-2
-32,-25,7,28,-19,-9,-7,-19,-11,-16,-4,-2
-32,-26,5,28,-18,-10,-9,-21,-12,-18,-6,-4
-31,-27,3,28,-17,-12,-11,-23,-14,-19,-7,-6
-30,-27,3,28,-16,-12,-11,-24,-14,-20,-7,-6
-30,-26,4,28,-17,-10,-9,-23,-12,-20,-6,-5
-30,-25,5,28,-18,-9,-8,-23,-12,-19,-6,-3
-32,-26,6,29,-19,-9,-8,-25,-12,-20,-6,-3
-31,-26,5,29,-18,-10,-9,-26,-13,-21,-7,-4
-29,-27,3,28,-15,-12,-10,-27,-15,-22,-8,-5
-30,-29,2,29,-15,-14,-11,-27,-16,-23,-9,-6
-33,-30,4,31,-18,-13,-10,-25,-15,-22,-9,-6
-35,-29,6,31,-20,-10,-8,-24,-13,-20,-7,-4
-35,-28,7,31,-21,-9,-8,-23,-12,-19,-6,-4
-34,-29,5,31,-20,-11,-9,-23,-14,-20,-8,-5
-33,-30,4,32,-19,-12,-10,-23,-15,-20,-9,-6
-35,-31,5,33,-20,-13,-10,-22,-15,-20,-9,-6
-35,-31,5,33,-20,-13,-11,-22,-15,-21,-9,-7
-35,-30,5,32,-19,-13,-11,-23,-15,-21,-9,-7
-33,-29,5,31,-18,-13,-10,-22,-14,-20,-9,-7
-30,-28,3,29,-16,-12,-9,-21,-13,-19,-8,-6
-30,-28,3,29,-16,-12,-8,-22,-13,-19,-8,-6
-32,-29,3,31,-17,-12,-8,-22,-13,-20,-8,-7
-34,-30,4,33,-19,-12,-7,-22,-13,-20,-8,-7
-36,-30,6,33,-21,-11,-7,-22,-12,-19,-8,-6
-35,-29,7,32,-21,-11,-7,-22,-12,-19,-8,-6
-34,-28,6,31,-19,-12,-8,-22,-12,-19,-8,-6
-34,-29,5,32,-19,-13,-8,-22,-12,-19,-8,-6
-34,-31,4,33,-18,-14,-8,-22,-12,-19,-8,-6
-33,-31,3,32,-17,-14,-8,-21,-12,-18,-8,-6
-30,-30,1,30,-15,-14,-8,-20,-12,-18,-8,-6
-27,-28,0,28,-13,-14,-9,-19,-12,-18,-9,-7
-26,-27,0,27,-13,-13,-9,-18,-12,-18,-9,-6
-30,-27,3,29,-16,-12,-8,-17,-11,-17,-8,-5
-34,-28,6,31,-20,-11,-7,-17,-10,-16,-6,-5
-34,-28,7,31,-20,-11,-6,-16,-9,-16,-5,-5
-32,-26,6,29,-19,-10,-4,-15,-8,-15,-4,-4
-31,-23,7,27,-19,-8,-2,-14,-6,-13,-3,-3
-30,-23,7,27,-19,-7,-3,-13,-6,-13,-2,-2
-29,-24,6,27,-18,-9,-5,-14,-7,-13,-3,-2
-27,-23,4,25,-16,-9,-7,-16,-8,-14,-4,-3
-25,-21,4,23,-15,-8,-7,-16,-7,-14,-3,-2
-25,-21,5,23,-14,-8,-7,-16,-7,-14,-3,-2
-25,-21,5,24,-14,-8,-7,-14,-7,-13,-4,-3
-24,-21,4,23,-13,-8,-7,-12,-6,-12,-3,-2
-24,-20,3,23,-13,-8,-6,-10,-5,-12,-3,-2
-25,-20,4,23,-14,-7,-5,-10,-4,-12,-2,-1
-26,-20,6,23,-16,-6,-5,-10,-3,-11,-1,-1
-27,-19,8,23,-18,-4,-5,-10,-2,-10,0,0
-28,-18,10,23,-20,-3,-5,-10,-2,-10,0,1
-28,-18,10,23,-19,-4,-6,-10,-2,-9,0,1
-28,-18,10,23,-19,-4,-7,-10,-2,-9,0,2
-27,-16,11,21,-18,-2,-6,-10,-2,-9,1,2
-25,-14,11,20,-17,-1,-7,-10,-2,-9,1,2
-25,-14,11,20,-18,-1,-9,-12,-2,-9,1,2
-25,-15,10,20,-17,-2,-12,-13,-4,-10,0,2
-21,-14,6,17,-13,-4,-15,-15,-6,-11,0,1
-16,-13,3,15,-10,-5,-16,-17,-7,-12,-1,0
-14,-13,1,13,-7,-6,-18,-18,-8,-14,-2,0
-14,-14,0,14,-7,-7,-19,-19,-9,-15,-3,-1
-17,-15,2,16,-9,-7,-19,-20,-10,-16,-4,-1
-23,-16,7,19,-15,-4,-17,-20,-9,-15,-3,0
-26,-16,10,21,-18,-2,-15,-20,-8,-14,-2,0
-25,-16,9,20,-17,-3,-15,-20,-9,-15,-3,0
-20,-16,4,18,-12,-5,-17,-22,-11,-17,-5,-2
-18,-17,1,17,-9,-8,-17,-23,-12,-19,-7,-4
-19,-17,2,18,-11,-7,-16,-22,-11,-18,-6,-3
-19,-16,4,17,-12,-5,-14,-22,-11,-17,-5,-2
-19,-17,2,18,-11,-6,-14,-23,-12,-18,-7,-3
-22,-19,1,20,-11,-8,-15,-24,-13,-20,-8,-5
-25,-21,3,23,-14,-8,-13,-24,-13,-20,-8,-5
-26,-20,5,23,-16,-7,-11,-23,-13,-19,-7,-4
-27,-20,6,23,-16,-6,-10,-24,-13,-19,-7,-4
-27,-22,4,24,-15,-8,-11,-25,-15,-21,-9,-5
-26,-24,1,25,-13,-11,-12,-26,-17,-23,-11,-7
-25,-24,0,24,-12,-11,-12,-26,-17,-23,-11,-8
-24,-24,0,24,-11,-12,-12,-26,-18,-24,-12,-9
-24,-25,-2,25,-11,-14,-13,-27,-19,-25,-13,-11
-26,-28,-2,27,-11,-15,-13,-28,-20,-26,-14,-12
-29,-29,-1,29,-14,-15,-12,-28,-19,-26,-14,-12
-31,-30,1,31,-16,-14,-11,-27,-18,-26,-14,-11
-31,-29,2,31,-17,-13,-10,-26,-18,-25,-13,-11
-31,-29,2,30,-17,-13,-11,-25,-17,-26,-13,-10
-32,-30,2,31,-17,-13,-11,-26,-18,-26,-13,-10
-32,-31,1,31,-16,-15,-12,-26,-19,-27,-14,-11
-28,-30,-2,30,-13,-16,-13,-28,-20,-28,-15,-12
-25,-30,-5,28,-10,-17,-13,-29,-21,-29,-17,-13
-26,-30,-5,28,-10,-18,-13,-29,-21,-29,-17,-13
-30,-32,-2,31,-13,-17,-13,-27,-20,-28,-16,-12
-34,-33,1,33,-17,-16,-12,-26,-20,-27,-15,-11
-34,-33,2,33,-18,-15,-11,-25,-19,-26,-14,-10
-32,-31,2,32,-17,-15,-10,-26,-18,-26,-14,-10
-30,-31,0,31,-15,-15,-10,-26,-19,-26,-14,-10
-28,-31,-2,30,-13,-17,-11,-27,-20,-27,-15,-11
-27,-32,-4,30,-11,-18,-12,-27,-20,-28,-16,-12
-30,-33,-4,32,-13,-18,-12,-28,-20,-28,-17,-13
-33,-34,-2,34,-15,-18,-11,-28,-20,-28,-17,-13
-33,-34,-1,33,-16,-17,-10,-28,-19,-28,-16,-12
-33,-33,0,33,-17,-16,-9,-28,-19,-28,-16,-11
-34,-34,1,33,-17,-16,-10,-28,-19,-28,-16,-11
-32,-34,0,32,-16,-16,-10,-29,-19,-29,-16,-12
-29,-33,-2,31,-13,-17,-10,-30,-20,-29,-16,-12
-29,-33,-3,31,-13,-17,-10,-30,-20,-29,-16,-12
-28,-32,-4,30,-12,-18,-11,-30,-20,-30,-17,-12
-25,-32,-7,28,-9,-19,-12,-30,-22,-31,-18,-13
-25,-32,-7,28,-9,-19,-13,-29,-22,-30,-18,-14
-29,-32,-3,30,-13,-17,-12,-28,-21,-29,-17,-13
-33,-33,1,32,-17,-16,-12,-27,-20,-28,-16,-12
-35,-32,3,33,-18,-15,-11,-26,-19,-28,-16,-11
-32,-31,2,31,-17,-15,-10,-26,-19,-27,-15,-11
-29,-30,0,30,-14,-15,-9,-27,-19,-27,-15,-11
-29,-31,-1,30,-14,-16,-9,-27,-19,-27,-15,-11
-32,-31,0,32,-16,-15,-8,-27,-18,-27,-14,-11
-32,-31,1,31,-17,-15,-8,-26,-18,-27,-14,-11
-30,-29,1,30,-16,-14,-8,-26,-17,-27,-14,-12
-30,-28,2,29,-17,-13,-6,-26,-15,-27,-13,-12
-30,-28,4,29,-17,-13,-5,-26,-14,-28,-13,-12
-32,-28,5,30,-19,-12,-3,-26,-13,-27,-12,-12
-35,-28,7,31,-21,-11,-1,-22,-10,-24,-9,-9
-35,-26,9,31,-22,-8,1,-16,-5,-19,-5,-5
-33,-23,10,29,-21,-6,1,-9,1,-12,0,0
-32,-21,10,27,-21,-5,1,-2,6,-4,5,4
-30,-22,8,26,-19,-6,0,4,10,2,9,8
-26,-22,4,24,-15,-9,-3,8,11,7,11,11
-17,-20,-3,18,-7,-12,-8,8,10,12,12,15
-5,-17,-11,10,3,-14,-15,3,7,15,14,20
4,-15,-19,5,12,-17,-23,-8,0,16,15,26
13,-14,-26,1,20,-19,-34,-26,-9,13,15,31
22,-12,-34,-4,28,-22,-45,-47,-22,6,12,33
29,-11,-41,-8,35,-25,-55,-69,-36,-3,6,31
35,-10,-46,-12,41,-27,-64,-89,-50,-13,0,29
43,-9,-52,-17,47,-30,-71,-105,-64,-24,-7,27
51,-9,-60,-22,55,-34,-79,-121,-80,-36,-16,23
60,-10,-70,-25,65,-41,-87,-138,-98,-53,-28,17
67,-12,-80,-27,74,-46,-94,-155,-114,-71,-41,8
70,-15,-86,-27,78,-50,-98,-172,-129,-90,-54,-2
67,-21,-89,-22,79,-55,-100,-185,-142,-109,-68,-16
60,-32,-94,-13,78,-62,-103,-195,-155,-128,-85,-35
55,-45,-101,-5,79,-73,-107,-203,-167,-146,-103,-55
54,-56,-110,0,82,-83,-109,-207,-176,-160,-118,-73
55,-62,-117,2,86,-90,-108,-205,-180,-167,-127,-85
55,-67,-123,5,88,-95,-104,-197,-178,-170,-133,-92
55,-72,-128,7,92,-100,-99,-185,-174,-169,-136,-98
53,-76,-131,11,93,-103,-92,-171,-167,-165,-137,-102
48,-79,-129,16,89,-103,-84,-157,-159,-158,-135,-103
41,-82,-124,21,83,-102,-77,-145,-149,-150,-130,-102
32,-82,-115,25,74,-98,-70,-133,-137,-140,-122,-97
23,-80,-103,28,63,-91,-61,-120,-124,-127,-112,-90
15,-76,-91,29,53,-83,-53,-106,-109,-114,-100,-82
11,-70,-80,28,46,-75,-45,-92,-95,-101,-89,-73
9,-61,-70,25,39,-66,-38,-77,-81,-87,-77,-64
7,-54,-61,23,34,-58,-33,-63,-68,-74,-66,-55
3,-50,-54,24,29,-51,-29,-52,-57,-64,-57,-47
-2,-47,-45,25,22,-45,-24,-43,-47,-54,-48,-40
-7,-45,-38,26,16,-41,-19,-34,-38,-45,-40,-35
-8,-43,-34,25,13,-38,-14,-27,-31,-38,-34,-31
-10,-41,-30,24,10,-36,-10,-20,-25,-32,-30,-29
-14,-41,-25,26,5,-34,-6,-14,-20,-28,-26,-26
-15,-40,-24,26,4,-33,-4,-10,-17,-25,-24,-24
-13,-39,-25,25,6,-32,-3,-7,-14,-22,-22,-23
-14,-39,-24,27,5,-31,-1,-3,-11,-19,-20,-21
-21,-40,-19,31,0,-29,1,0,-7,-15,-17,-18
-25,-40,-16,33,-4,-27,2,3,-4,-12,-14,-17
-24,-39,-15,31,-4,-27,3,4,-3,-11,-13,-16
-25,-40,-14,31,-5,-27,4,6,-2,-10,-12,-16
-26,-41,-14,32,-6,-27,5,7,-1,-9,-12,-15
-25,-41,-14,32,-6,-28,5,8,-1,-9,-11,-15
-25,-40,-14,32,-6,-27,5,9,0,-8,-11,-14
-24,-38,-13,31,-6,-25,6,11,1,-6,-9,-13
-24,-36,-12,31,-6,-24,7,12,3,-5,-8,-12
-24,-36,-13,31,-6,-24,7,12,3,-5,-8,-12
-24,-38,-15,31,-4,-26,6,11,2,-5,-9,-13
-26,-40,-14,32,-6,-27,6,11,2,-5,-9,-13
-29,-40,-10,33,-10,-25,7,13,3,-3,-8,-12
-31,-39,-7,34,-12,-24,8,14,4,-3,-7,-12
-30,-39,-8,33,-11,-23,8,14,4,-3,-7,-12
-27,-37,-9,32,-8,-23,9,15,5,-2,-6,-11
-27,-36,-9,32,-8,-22,10,17,7,0,-5,-9
-28,-36,-8,33,-10,-21,10,17,8,1,-4,-8
-27,-35,-8,32,-9,-21,10,18,8,1,-3,-8
-25,-34,-9,29,-8,-21,10,19,9,2,-3,-8
-24,-34,-9,29,-8,-22,10,19,9,3,-2,-8
-25,-36,-10,30,-8,-23,10,19,9,2,-3,-9
-23,-37,-12,30,-6,-25,9,18,7,1,-5,-10
-22,-37,-14,30,-4,-26,9,18,7,1,-5,-11
-22,-37,-14,31,-4,-25,9,19,8,2,-4,-10
-24,-37,-12,31,-6,-24,9,20,9,3,-3,-9
-26,-36,-10,31,-7,-23,10,21,10,4,-2,-8
-27,-36,-8,31,-9,-22,11,21,12,5,-1,-8
-27,-35,-7,30,-10,-21,12,22,13,6,-1,-7
-26,-34,-7,29,-9,-21,12,24,14,7,0,-6
-26,-33,-6,29,-10,-20,12,25,15,8,0,-6
-26,-33,-5,29,-10,-19,12,25,15,9,1,-5
-26,-33,-6,30,-10,-20,12,25,15,9,2,-5
-26,-34,-7,31,-9,-21,11,25,15,9,1,-5
-26,-34,-8,30,-8,-21,10,26,15,9,1,-6
-25,-34,-9,29,-7,-21,10,27,15,10,1,-5
-24,-33,-9,28,-7,-21,10,28,16,10,1,-5
-23,-32,-8,27,-8,-21,10,28,16,10,1,-6
-24,-32,-7,28,-9,-20,10,28,16,10,2,-6
-26,-32,-5,29,-11,-20,11,28,16,11,3,-5
-26,-31,-5,29,-11,-19,12,30,17,12,4,-5
-25,-30,-6,28,-9,-19,11,30,18,13,4,-5
-23,-31,-8,27,-7,-20,10,30,18,13,3,-5
-22,-31,-9,26,-6,-20,9,30,19,13,3,-5
-23,-32,-9,27,-7,-20,10,30,20,13,4,-5
-27,-34,-7,29,-10,-20,9,30,20,13,4,-5
-29,-33,-3,30,-13,-18,9,32,20,14,5,-4
-28,-29,0,28,-14,-15,10,34,22,16,7,-2
-27,-27,0,27,-14,-14,12,36,23,18,8,0
-27,-27,0,28,-13,-14,12,37,24,19,8,0
-27,-27,-1,28,-12,-14,11,37,24,19,8,-1
-26,-28,-2,27,-11,-15,11,38,24,20,8,-1
-26,-28,-2,27,-11,-15,11,39,25,20,8,0
-25,-27,-2,26,-11,-15,11,40,25,21,9,0
-24,-28,-3,25,-10,-15,10,41,25,21,8,-1
-23,-28,-4,25,-9,-16,8,41,24,20,8,-2
-24,-27,-3,25,-10,-16,8,43,25,21,8,-1
-26,-27,-1,26,-12,-14,8,44,27,22,10,0
-28,-26,1,27,-14,-13,9,45,29,24,11,1
-28,-25,2,26,-14,-12,10,46,30,26,12,2
-25,-24,1,24,-13,-11,11,47,31,27,12,2
-24,-23,1,23,-13,-11,11,47,31,27,12,2
-25,-23,2,23,-13,-10,12,47,32,27,13,3
-24,-23,1,23,-13,-11,11,47,32,28,13,3
-24,-22,1,23,-13,-11,11,47,32,28,14,3
-24,-22,1,23,-12,-11,11,48,32,28,14,3
-23,-22,0,23,-11,-11,10,49,32,28,14,3
-21,-20,0,21,-10,-10,10,49,33,29,15,3
-21,-20,0,20,-10,-10,10,50,33,30,15,4
-22,-21,2,21,-12,-9,11,50,34,30,16,4
-23,-20,3,21,-13,-9,12,52,35,31,17,5
-22,-19,3,20,-13,-8,12,54,35,32,17,6
-21,-19,2,20,-12,-9,11,54,35,32,17,6
-21,-19,2,20,-11,-9,10,54,35,32,17,6
-21,-19,2,21,-11,-9,11,54,36,33,18,6
-21,-19,3,20,-12,-8,11,55,38,34,19,7
-22,-18,4,20,-13,-6,11,56,38,34,19,8
-21,-18,4,19,-12,-7,10,54,37,33,18,6
-19,-19,1,19,-10,-9,8,52,35,31,16,4
-17,-18,0,18,-8,-10,7,51,34,30,16,3
-16,-16,0,16,-8,-8,8,52,35,31,17,4
-19,-15,4,17,-11,-6,10,53,36,33,18,6
-23,-15,8,19,-15,-4,10,53,37,34,19,7
-24,-15,9,20,-16,-3,10,53,38,34,20,8
-25,-16,9,20,-16,-3,10,52,38,34,20,9
-24,-16,9,20,-16,-3,10,51,38,34,21,10
-23,-16,7,19,-15,-4,10,49,37,33,20,10
-22,-16,6,19,-14,-5,9,47,35,32,19,9
-21,-16,5,18,-13,-5,8,44,34,30,19,9
-19,-15,4,17,-12,-6,7,42,32,29,18,8
-18,-15,3,17,-10,-6,6,39,31,27,17,7
-18,-16,3,17,-10,-7,5,36,30,26,17,7
-18,-16,3,17,-10,-7,5,33,29,24,16,7
-17,-15,3,16,-10,-6,4,30,27,22,15,7
-18,-15,4,17,-11,-6,3,28,26,21,15,7
-23,-16,7,19,-15,-5,2,26,25,20,14,7
-27,-16,11,21,-19,-3,2,26,24,19,14,7
-27,-14,13,21,-20,-1,3,26,23,19,15,8
-25,-13,11,19,-18,-1,3,24,22,18,14,8
-21,-13,8,17,-14,-2,1,21,20,16,13,7
-21,-14,8,17,-14,-3,0,18,18,14,12,7
-23,-14,9,19,-16,-3,0,16,17,13,11,7
-22,-14,8,18,-15,-3,-1,13,16,10,10,6
-20,-15,5,17,-13,-5,-2,9,13,7,7,4
-19,-16,3,17,-11,-6,-4,5,10,4,5,2
-19,-16,3,18,-11,-6,-4,3,8,2,4,1
-20,-15,4,17,-12,-5,-3,2,8,2,4,2
-19,-16,3,17,-10,-6,-3,1,7,2,4,3
-18,-17,1,18,-9,-8,-4,-1,6,0,3,2
-20,-18,2,20,-11,-8,-4,-2,5,0,2,2
-24,-19,6,22,-15,-6,-4,-1,5,0,3,3
-27,-18,9,23,-18,-5,-4,-1,5,0,3,3
-27,-19,9,23,-18,-5,-5,-2,3,-1,2,2
-26,-19,7,23,-17,-5,-6,-4,2,-3,1,1
-23,-19,4,21,-13,-6,-6,-6,0,-4,0,0
-20,-18,2,20,-10,-7,-7,-8,0,-5,0,0
-18,-18,0,19,-8,-8,-8,-9,-1,-6,-1,-1
-16,-19,-2,18,-7,-10,-9,-10,-2,-7,-2,-2
-17,-18,-1,18,-8,-10,-9,-11,-3,-8,-3,-2
-20,-18,2,19,-11,-8,-9,-11,-3,-8,-3,-2
-23,-18,4,21,-14,-7,-8,-11,-3,-8,-3,-2
-23,-19,4,21,-14,-7,-8,-11,-3,-8,-3,-2
-22,-19,3,20,-12,-7,-8,-11,-4,-8,-3,-2
-21,-19,1,20,-11,-8,-7,-11,-4,-8,-3,-2
-20,-21,0,20,-9,-10,-7,-12,-4,-9,-4,-3
-18,-21,-2,19,-7,-11,-7,-14,-5,-10,-5,-4
-17,-19,-2,18,-7,-10,-6,-14,-4,-10,-4,-3
-18,-19,0,18,-8,-9,-5,-13,-3,-9,-3,-2
-22,-20,1,21,-11,-10,-6,-12,-3,-9,-3,-2
-25,-23,1,24,-13,-11,-7,-12,-4,-9,-4,-3
-26,-23,1,24,-14,-11,-7,-12,-5,-9,-4,-4
-24,-22,1,23,-13,-10,-7,-12,-5,-9,-4,-4
-23,-21,1,22,-12,-9,-7,-12,-5,-9,-4,-3
-21,-20,1,20,-11,-9,-7,-12,-5,-9,-4,-3
-20,-19,0,20,-10,-9,-7,-13,-5,-8,-4,-3
-21,-20,2,20,-12,-9,-6,-14,-4,-8,-4,-3
-21,-19,1,20,-11,-9,-6,-14,-4,-8,-5,-3
-18,-18,0,18,-8,-10,-7,-14,-5,-9,-5,-5
-18,-19,-1,18,-8,-10,-8,-14,-5,-9,-6,-5
-21,-20,0,20,-9,-10,-8,-13,-6,-9,-6,-5
-22,-21,0,22,-10,-10,-8,-14,-6,-9,-6,-6
-22,-22,0,22,-11,-10,-7,-14,-6,-9,-7,-6
-22,-22,1,22,-11,-10,-6,-12,-5,-9,-6,-5
-22,-22,0,21,-11,-10,-5,-10,-5,-8,-6,-5
-22,-22,0,21,-11,-11,-5,-10,-5,-8,-7,-5
-24,-23,0,23,-12,-11,-5,-10,-4,-8,-7,-5
-24,-23,0,24,-13,-11,-5,-11,-4,-8,-6,-5
-22,-22,0,22,-11,-11,-4,-11,-4,-7,-6,-5
-21,-21,0,21,-10,-10,-5,-12,-5,-7,-6,-6
-20,-21,0,21,-9,-10,-6,-13,-6,-8,-7,-6
-20,-21,0,21,-9,-11,-7,-13,-6,-8,-7,-6
-21,-21,0,21,-10,-10,-7,-12,-6,-7,-7,-6
-20,-20,0,20,-10,-10,-8,-12,-6,-7,-7,-6
-17,-20,-3,18,-7,-11,-8,-12,-7,-8,-8,-8
-18,-20,-3,19,-8,-11,-7,-10,-6,-7,-8,-8
-20,-19,1,20,-11,-8,-5,-8,-4,-5,-5,-6
-21,-18,3,20,-12,-7,-4,-7,-3,-4,-4,-5
-23,-18,5,20,-14,-5,-2,-7,-2,-3,-3,-4
-23,-17,6,20,-14,-5,-1,-6,-2,-2,-3,-3
-20,-16,5,18,-12,-6,-1,-5,-1,-2,-3,-3
-20,-16,4,18,-12,-6,-1,-4,-1,-1,-3,-3
-21,-15,6,18,-14,-5,0,-3,0,0,-2,-2
-21,-13,8,17,-14,-3,0,-2,1,0,-1,-1
-19,-12,7,16,-13,-2,0,-3,1,0,-1,-1
-17,-12,5,15,-11,-3,0,-4,1,0,-1,-1
-16,-12,4,14,-10,-4,0,-4,1,-1,-1,-1
-16,-13,3,14,-9,-5,-1,-4,1,0,-1,-1
-16,-14,3,15,-9,-6,-1,-5,1,0,-1,-1
-15,-13,2,14,-8,-6,-2,-5,1,0,-1,-1
-14,-12,2,13,-8,-5,-1,-4,1,0,-1,-1
-15,-12,3,13,-9,-5,-1,-2,1,1,0,-1
-16,-11,4,13,-9,-4,-1,0,1,3,0,0
-15,-9,5,12,-9,-2,-1,2,2,4,1,1
-15,-8,6,11,-10,0,0,3,3,5,2,2
-16,-8,7,12,-11,0,-1,3,4,5,2,2
-15,-9,6,12,-10,-1,-3,2,3,4,1,1
-12,-9,4,11,-8,-2,-5,0,1,2,0,0
-9,-7,2,9,-6,-2,-7,-2,0,1,-1,0
-10,-7,3,9,-6,-2,-8,-4,0,0,0,0
-13,-8,4,10,-8,-1,-8,-5,0,0,0,1
-13,-8,5,10,-9,0,-8,-7,1,0,0,1
-9,-5,4,7,-7,0,-10,-8,0,0,0,1
-7,-4,3,5,-5,0,-12,-9,0,0,-1,1
-8,-3,5,6,-7,1,-12,-9,1,0,0,3
-11,-2,10,6,-10,4,-10,-9,2,1,2,5
-10,-1,11,5,-10,4,-8,-9,2,1,3,5
-9,-1,9,4,-8,3,-8,-10,1,0,2,4
-9,-3,7,6,-8,2,-8,-10,0,0,1,3
-11,-6,5,8,-8,0,-9,-9,-2,-1,0,2
-10,-7,3,9,-6,-1,-10,-9,-4,-2,-2,0
-10,-7,2,9,-6,-2,-10,-9,-4,-2,-3,0
-10,-7,3,9,-6,-1,-10,-9,-5,-3,-3,0
-11,-8,3,9,-7,-2,-9,-10,-6,-5,-5,-2
-11,-9,2,10,-6,-4,-9,-11,-7,-6,-6,-3
-11,-10,1,10,-6,-5,-8,-11,-7,-6,-6,-3
-11,-9,1,10,-6,-4,-6,-11,-6,-6,-5,-3
-10,-8,1,9,-6,-4,-4,-11,-5,-6,-5,-3
-12,-10,2,11,-7,-4,-3,-12,-5,-7,-6,-3
-15,-11,3,13,-9,-3,-2,-12,-5,-7,-6,-3
-15,-10,5,13,-10,-2,-2,-11,-5,-6,-5,-3
-15,-9,6,13,-10,-1,-1,-11,-5,-7,-5,-3
-14,-10,5,12,-9,-3,-1,-12,-6,-8,-6,-4
-14,-12,3,13,-8,-5,-2,-13,-7,-9,-7,-5
-13,-13,0,13,-6,-7,-2,-13,-8,-10,-8,-6
-11,-14,-2,13,-4,-8,-2,-14,-9,-11,-9,-6
-13,-15,-1,15,-5,-8,-1,-14,-8,-10,-9,-6
-16,-16,0,17,-7,-8,-1,-15,-8,-10,-9,-6
-16,-16,0,17,-8,-8,-1,-15,-8,-10,-9,-6
-15,-16,0,16,-7,-8,-1,-15,-8,-10,-8,-5
-15,-16,-1,16,-7,-9,-2,-15,-9,-10,-8,-5
-14,-16,-1,15,-6,-9,-2,-15,-9,-10,-8,-6
-14,-16,-2,15,-6,-9,-2,-15,-9,-10,-8,-6
-14,-15,-1,15,-6,-8,-1,-15,-9,-10,-8,-5
-15,-15,0,15,-7,-7,-1,-14,-8,-9,-7,-5
-14,-14,0,15,-7,-7,-1,-14,-9,-10,-8,-6
-15,-15,0,16,-7,-7,-2,-14,-9,-10,-9,-7
-18,-15,2,17,-10,-6,-2,-14,-9,-10,-9,-7
-18,-14,3,16,-10,-5,-1,-14,-9,-10,-9,-6
-17,-14,2,15,-9,-5,-1,-15,-9,-11,-10,-6
-19,-15,4,17,-11,-5,0,-16,-9,-11,-10,-6
-21,-16,5,19,-13,-5,-1,-18,-10,-12,-10,-7
-20,-17,3,18,-11,-7,-4,-20,-12,-14,-12,-9
-18,-16,1,17,-10,-7,-6,-21,-13,-16,-13,-10
-20,-15,4,18,-12,-5,-4,-20,-12,-15,-12,-9
-23,-15,7,19,-15,-4,-4,-19,-12,-14,-12,-9
-23,-16,6,19,-14,-5,-5,-19,-13,-15,-13,-11
-21,-16,4,19,-13,-6,-6,-19,-13,-16,-14,-11
-20,-16,3,18,-11,-7,-6,-20,-13,-15,-13,-11
-20,-16,3,18,-11,-7,-5,-20,-12,-15,-13,-11
-20,-16,3,18,-11,-6,-4,-20,-12,-14,-12,-10
-19,-16,1,17,-10,-7,-5,-20,-13,-14,-13,-11
-19,-17,0,18,-9,-8,-6,-20,-14,-15,-14,-12
-20,-19,1,20,-10,-9,-6,-20,-14,-15,-14,-12
-20,-19,0,20,-10,-9,-5,-20,-14,-16,-14,-12
-20,-20,0,20,-10,-10,-4,-20,-13,-16,-14,-11
-20,-20,0,20,-11,-10,-5,-20,-13,-16,-14,-11
-20,-18,1,19,-11,-9,-5,-20,-13,-15,-13,-11
-19,-16,2,17,-11,-7,-4,-19,-13,-15,-12,-10
-17,-15,2,16,-10,-6,-4,-18,-12,-14,-11,-10
-18,-15,3,17,-10,-6,-3,-17,-10,-13,-10,-9
-23,-15,7,19,-15,-4,0,-15,-7,-11,-8,-8
-29,-15,13,22,-21,-1,2,-12,-3,-8,-5,-5
-32,-14,17,23,-25,1,5,-9,0,-5,-2,-3
-32,-13,18,22,-26,2,7,-4,3,-2,0,-1
-32,-13,19,22,-26,2,9,1,6,2,2,0
-31,-12,18,21,-24,2,9,7,10,7,5,3
-28,-12,16,20,-22,2,9,14,13,13,8,7
-24,-12,11,19,-17,0,8,20,15,18,10,10
-15,-13,1,14,-7,-5,4,23,15,22,11,11
-5,-13,-9,10,2,-11,-2,22,14,25,11,13
3,-14,-18,6,10,-16,-9,18,11,27,12,16
12,-13,-26,0,19,-20,-17,7,5,27,12,20
21,-11,-33,-5,27,-22,-27,-9,-2,24,11,24
31,-9,-40,-11,35,-24,-36,-28,-13,17,8,24
39,-8,-46,-15,43,-27,-45,-49,-26,6,3,22
46,-7,-52,-19,49,-29,-53,-68,-38,-3,-2,20
54,-4,-58,-25,56,-30,-59,-85,-50,-13,-8,19
63,-2,-66,-30,65,-34,-68,-104,-66,-27,-16,16
72,-4,-77,-33,74,-41,-79,-126,-85,-46,-29,9
76,-8,-86,-33,80,-47,-86,-148,-104,-65,-42,0
73,-13,-87,-30,80,-51,-90,-166,-118,-83,-54,-10
67,-20,-88,-24,78,-55,-90,-179,-131,-101,-67,-23
65,-28,-94,-18,79,-61,-90,-189,-144,-119,-82,-40
62,-37,-100,-13,82,-68,-92,-197,-156,-136,-98,-57
60,-45,-105,-7,83,-74,-94,-202,-165,-149,-111,-71
58,-52,-110,-3,84,-80,-95,-203,-170,-158,-120,-81
55,-59,-114,2,85,-86,-94,-198,-171,-162,-125,-88
53,-64,-118,6,85,-91,-89,-189,-167,-160,-128,-94
52,-68,-120,8,86,-94,-83,-175,-161,-156,-129,-98
48,-72,-120,12,84,-97,-76,-160,-153,-150,-128,-99
41,-77,-117,17,79,-98,-68,-145,-143,-141,-124,-98
36,-78,-114,20,75,-96,-62,-131,-132,-130,-117,-94
33,-73,-107,20,70,-90,-54,-116,-119,-117,-107,-87
27,-66,-93,19,61,-79,-44,-98,-103,-101,-94,-76
20,-58,-78,20,49,-68,-35,-81,-85,-84,-79,-64
15,-51,-65,18,40,-58,-28,-66,-70,-69,-66,-53
11,-44,-55,17,33,-50,-22,-53,-57,-56,-54,-44
5,-40,-45,17,25,-44,-18,-42,-46,-45,-45,-36
1,-37,-38,17,20,-38,-13,-31,-37,-35,-37,-30
0,-33,-33,16,17,-33,-8,-21,-28,-26,-29,-24
1,-29,-31,13,17,-30,-4,-13,-21,-19,-24,-21
2,-26,-30,12,17,-28,-1,-8,-17,-15,-21,-20
0,-25,-27,13,14,-26,1,-3,-12,-11,-18,-18
-4,-26,-22,15,9,-24,4,0,-8,-7,-15,-16
-8,-26,-18,17,5,-22,7,4,-4,-4,-12,-14
-10,-25,-15,16,3,-21,9,8,0,-1,-10,-12
-10,-25,-14,17,2,-20,9,11,1,0,-9,-12
-10,-25,-15,17,2,-21,9,12,2,1,-9,-12
-10,-25,-14,17,1,-20,9,12,2,2,-9,-12
-12,-25,-12,18,0,-18,10,12,3,2,-8,-12
-14,-23,-9,19,-3,-15,12,12,5,3,-7,-11
-16,-22,-5,19,-6,-13,14,13,6,4,-6,-10
-18,-21,-1,19,-8,-11,16,16,8,6,-4,-8
-19,-19,0,19,-9,-10,17,17,9,8,-3,-7
-18,-19,-1,18,-8,-11,15,17,8,8,-4,-8
-17,-21,-4,18,-6,-13,13,17,7,8,-4,-8
-17,-22,-5,19,-6,-13,14,18,8,9,-3,-8
-17,-20,-3,18,-6,-11,14,20,8,10,-2,-7
-17,-18,-2,17,-7,-9,14,21,8,10,-2,-6
-16,-18,-2,17,-7,-9,14,21,8,10,-2,-6
-16,-18,-2,17,-6,-10,13,21,8,9,-3,-7
-14,-18,-4,16,-4,-11,12,20,8,9,-3,-8
-13,-17,-5,15,-4,-11,12,21,9,10,-2,-8
-14,-17,-3,15,-5,-11,12,22,10,11,-1,-8
-15,-17,-4,15,-6,-11,12,23,10,12,-1,-8
-13,-17,-5,15,-4,-11,12,22,9,11,-2,-8
-14,-16,-3,14,-5,-9,13,23,10,12,-1,-8
-15,-14,0,14,-7,-7,14,25,11,13,0,-6
-14,-13,1,14,-7,-6,16,27,13,14,1,-5
-14,-12,1,13,-7,-5,17,27,14,15,1,-4
-13,-11,2,12,-7,-4,17,27,15,16,2,-4
-12,-10,1,11,-6,-5,16,26,16,16,3,-4
-12,-10,0,11,-5,-5,16,26,16,17,3,-3
-13,-11,1,12,-6,-4,16,27,17,18,4,-2
-12,-11,0,11,-5,-5,15,27,16,18,3,-2
-9,-11,-3,10,-2,-7,13,27,14,17,2,-4
-11,-11,-1,11,-5,-6,13,28,15,18,2,-4
-15,-10,4,13,-9,-3,14,30,17,19,3,-2
-15,-9,5,12,-10,-2,15,31,18,20,4,-2
-14,-9,5,11,-10,-1,15,32,18,21,5,-2
-13,-8,5,10,-9,-1,15,33,19,21,5,-2
-11,-7,3,8,-7,-1,14,33,19,21,5,-2
-9,-6,2,7,-5,-1,14,32,18,20,4,-3
-7,-5,2,6,-4,-1,13,31,18,19,4,-3
-7,-5,2,7,-4,-1,13,30,18,20,5,-3
-8,-6,2,8,-5,-2,13,31,19,21,6,-2
-9,-7,2,9,-6,-2,14,33,21,23,7,-1
-9,-8,1,9,-5,-3,15,34,22,24,8,0
-9,-8,1,8,-5,-3,17,37,23,26,9,2
-11,-8,3,9,-7,-2,18,40,25,28,11,3
-13,-9,3,11,-8,-2,19,41,26,29,12,4
-12,-10,2,11,-7,-3,20,43,27,30,13,5
-10,-9,1,10,-5,-3,20,43,28,31,14,6
-8,-8,0,8,-4,-3,19,43,28,31,14,6
-6,-8,-1,7,-2,-4,17,42,28,30,13,5
-4,-8,-3,6,0,-6,15,41,27,29,12,4
-3,-8,-4,6,0,-6,15,42,27,30,12,3
-6,-8,-2,7,-1,-5,16,44,29,31,13,4
-9,-7,1,8,-4,-3,17,46,31,33,15,6
-9,-6,2,8,-5,-2,18,47,32,34,16,7
-9,-6,2,8,-5,-2,18,47,32,34,16,7
-8,-6,2,8,-5,-2,18,47,32,35,16,7
-6,-5,2,6,-3,-2,18,48,33,35,17,8
-4,-5,0,5,-2,-2,18,48,33,36,17,7
-3,-5,-2,4,0,-3,17,48,33,36,17,7
-3,-5,-2,4,0,-3,17,50,34,37,17,7
-4,-3,0,4,-2,-1,19,53,36,39,19,9
-7,-3,4,5,-5,1,20,55,38,41,21,11
-9,-4,5,6,-7,1,19,55,38,41,22,12
-12,-7,6,9,-9,0,18,53,38,40,21,11
-13,-9,5,11,-9,-1,17,53,37,40,21,11
-10,-6,4,8,-8,0,18,54,38,41,21,11
-9,-2,6,6,-8,2,19,56,39,42,23,12
-9,-1,8,5,-8,4,18,56,40,43,23,12
-9,-1,7,5,-7,3,18,56,39,43,23,12
-8,-1,6,5,-6,3,18,57,39,44,23,12
-6,0,5,4,-5,3,18,59,40,44,23,13
-5,0,5,3,-4,3,18,59,40,44,23,12
-4,0,4,2,-4,2,17,58,40,43,22,12
-5,0,5,2,-4,2,17,59,40,43,23,12
-6,0,6,3,-6,3,17,59,41,44,23,13
-8,-1,7,4,-7,3,17,58,40,44,23,13
-11,-3,7,6,-9,2,16,56,39,42,22,12
-13,-4,8,9,-11,1,16,55,39,41,21,11
-14,-3,9,9,-12,3,17,55,39,42,22,12
-12,0,11,6,-11,5,17,55,40,42,23,13
-11,1,12,5,-11,7,17,55,41,42,24,13
-12,1,13,5,-12,7,16,55,41,42,24,13
-13,1,14,6,-14,7,16,54,41,42,24,13
-13,1,13,6,-13,7,15,52,40,41,23,12
-11,1,11,5,-11,7,14,49,38,39,22,11
-10,2,11,4,-11,7,13,48,38,38,21,10
-12,2,13,5,-12,8,13,47,37,38,21,10
-14,2,15,6,-14,9,13,45,37,37,21,11
-14,2,16,6,-15,9,13,44,36,37,21,12
-14,2,16,6,-15,9,13,43,35,36,21,12
-13,1,14,6,-14,7,12,42,34,35,20,11
-13,0,12,6,-13,6,10,41,32,34,20,11
-13,1,13,6,-13,7,8,40,30,33,20,11
-13,2,14,5,-13,8,8,39,30,33,20,12
-13,3,15,5,-14,9,7,37,29,32,19,12
-13,2,15,5,-14,9,6,33,27,30,18,11
-12,3,15,5,-13,9,6,30,26,28,17,11
-12,3,15,4,-13,9,6,26,25,26,17,11
-12,2,15,5,-13,9,5,22,23,23,16,10
-13,2,15,5,-14,8,3,19,21,21,15,9
-15,1,15,6,-15,8,2,17,19,20,14,9
-15,1,14,7,-14,8,1,16,17,18,12,8
-13,0,12,6,-12,7,0,14,15,16,11,7
-13,0,11,7,-11,6,0,13,13,14,9,6
-14,-1,12,7,-13,6,-1,11,11,12,8,5
-14,0,14,7,-14,7,-1,9,11,12,8,5
-14,0,15,6,-14,8,0,7,10,11,7,5
-15,0,15,7,-15,7,-1,5,9,9,6,4
-16,-2,14,9,-15,5,-2,3,8,7,5,3
-18,-4,13,11,-15,4,-3,1,6,5,4,3
-19,-4,14,12,-16,4,-3,0,5,4,3,2
-19,-3,15,11,-16,6,-2,-1,5,4,3,3
-18,-2,14,11,-15,6,-1,-2,5,4,3,3
-17,-3,13,11,-14,5,-1,-2,4,3,3,2
-18,-4,13,11,-15,4,-2,-2,4,3,2,2
-18,-4,14,11,-16,5,-2,-2,5,3,3,3
-16,-3,12,9,-14,4,-2,-3,5,2,3,3
-14,-3,10,8,-12,3,-2,-6,4,1,3,2
-13,-4,8,8,-10,2,-2,-7,3,0,2,2
-13,-5,7,9,-10,1,-2,-6,2,0,2,2
-13,-5,7,9,-9,1,-3,-5,2,0,2,2
-13,-5,7,9,-9,1,-4,-5,1,0,1,1
-13,-5,8,9,-10,1,-3,-5,0,0,1,1
-14,-4,8,9,-11,1,-2,-5,1,0,1,1
-14,-3,10,8,-12,2,-1,-5,2,0,2,2
-14,-3,11,8,-13,3,-1,-6,2,0,2,2
-15,-4,10,9,-13,2,-3,-7,0,0,1,1
-15,-5,9,10,-12,1,-4,-7,0,-1,0,0
-15,-5,9,10,-11,2,-4,-7,0,-1,0,0
-15,-4,10,10,-12,3,-3,-5,1,0,0,1
-15,-4,10,10,-12,3,-3,-5,1,0,0,0
-14,-4,9,8,-11,3,-4,-6,0,-1,-1,0
-13,-3,9,7,-11,3,-4,-8,0,-2,-1,0
-14,-2,10,7,-12,4,-2,-7,0,-1,0,1
-13,-2,10,7,-12,4,-1,-7,1,-1,0,1
-12,-2,9,7,-11,3,-1,-6,1,-1,0,1
-12,-2,9,7,-10,3,-1,-5,1,0,0,2
-11,-2,7,7,-9,2,-1,-5,1,0,0,1
-10,-4,5,7,-8,1,-2,-6,0,-2,-1,0
-13,-6,6,10,-10,0,-3,-8,-1,-3,-2,-1
-14,-7,7,11,-11,0,-4,-9,-2,-4,-3,-2
-13,-6,7,10,-10,0,-5,-8,-2,-4,-3,-2
-13,-5,8,9,-10,0,-5,-8,-2,-4,-2,-2
-13,-4,9,9,-11,2,-4,-7,-1,-3,-1,-1
-14,-4,10,9,-11,2,-3,-7,0,-3,-1,0
-16,-5,11,11,-13,3,-3,-7,0,-2,-1,0
-18,-5,12,12,-15,3,-2,-6,0,-1,0,0
-16,-5,11,10,-13,3,-1,-5,1,0,0,1
-13,-5,9,9,-11,2,-2,-5,0,-1,0,0
-11,-5,7,8,-10,1,-2,-6,0,-1,0,-1
-11,-4,7,8,-10,2,-2,-5,0,-1,0,0
-14,-3,10,9,-12,3,0,-4,0,0,1,0
-16,-2,14,9,-14,5,0,-3,1,1,1,1
-15,0,14,7,-14,7,0,-4,1,0,1,1
-13,0,13,6,-13,7,-1,-6,1,0,1,1
-14,-1,13,7,-13,6,-1,-7,1,0,0,1
-15,-2,12,8,-13,5,-1,-6,1,0,1,1
-14,-2,11,8,-12,4,0,-3,2,1,1,1
-11,-1,9,6,-10,4,1,-1,3,1,2,2
-7,0,8,3,-8,4,1,-2,3,1,2,2
-6,1,8,2,-7,4,0,-3,3,0,1,2
-7,1,9,2,-8,5,-1,-3,2,0,1,1
-9,1,10,3,-9,6,-2,-3,2,0,1,1
-10,1,12,4,-11,7,-1,-1,3,1,2,2
-10,4,15,3,-12,10,0,2,5,4,4,5
-11,5,17,3,-14,12,0,4,7,5,5,6
-13,4,18,4,-16,12,0,4,7,6,5,6
-12,5,18,4,-15,12,0,4,7,6,5,5
-9,6,15,1,-13,11,0,4,6,5,5,4
-6,6,12,0,-10,9,-2,2,5,4,4,3
-5,6,10,0,-8,8,-4,2,5,3,3,2
-5,6,11,0,-8,9,-3,2,6,4,4,3
-7,7,13,0,-10,10,-2,4,7,5,5,4
-8,8,15,0,-11,11,-2,4,8,6,6,5
-7,8,14,0,-10,11,-3,2,7,5,5,4
-5,8,13,-1,-9,11,-5,0,6,3,4,4
-3,8,11,-2,-7,10,-7,-2,4,2,4,3
-3,7,11,-2,-7,9,-8,-3,3,1,3,4
-4,7,11,-1,-7,9,-10,-4,2,1,3,4
-3,7,10,-2,-6,9,-11,-6,1,0,3,4
-3,8,11,-3,-7,10,-12,-7,1,1,4,5
-6,9,14,-2,-10,12,-10,-6,2,1,5,7
-8,10,17,-1,-12,14,-9,-6,3,1,5,7
-8,10,18,-1,-13,14,-9,-7,2,0,4,6
-8,9,16,0,-13,12,-9,-9,0,-1,3,6
-8,7,14,0,-11,10,-9,-10,0,-2,2,6
-7,6,12,0,-9,9,-9,-10,-1,-2,2,5
-6,5,10,0,-7,7,-10,-11,-3,-3,0,4
-5,4,8,0,-6,6,-12,-13,-4,-5,-2,2
-5,2,6,1,-5,4,-13,-14,-6,-8,-4,0
-6,0,6,2,-5,3,-13,-15,-7,-9,-5,-1
-4,2,6,1,-5,4,-11,-14,-7,-9,-5,-1
-4,3,8,1,-6,6,-9,-13,-6,-8,-4,0
-7,3,11,2,-9,7,-7,-12,-5,-8,-3,0
-11,1,12,5,-11,7,-6,-13,-6,-8,-3,0
-14,-2,12,8,-13,5,-5,-14,-6,-9,-4,-1
-16,-3,12,9,-13,5,-5,-14,-6,-9,-5,-1
-13,-2,11,7,-11,5,-5,-14,-7,-10,-5,-2
-9,0,8,5,-8,4,-5,-15,-8,-10,-6,-3
-9,0,8,5,-8,4,-5,-15,-8,-11,-6,-3
-10,-2,9,7,-10,3,-5,-14,-8,-11,-6,-3
-11,-3,8,7,-10,2,-5,-14,-9,-12,-6,-4
-11,-4,7,8,-9,1,-6,-15,-10,-13,-7,-5
-11,-5,6,8,-8,1,-6,-16,-11,-14,-8,-6
-12,-5,6,8,-9,1,-6,-16,-10,-13,-8,-6
-14,-5,8,9,-10,2,-5,-16,-10,-13,-8,-6
-15,-5,10,9,-11,2,-4,-16,-10,-13,-8,-6
-15,-6,10,10,-12,1,-4,-16,-11,-14,-9,-7
-14,-7,8,10,-11,0,-6,-17,-12,-15,-10,-8
-12,-7,6,10,-9,-1,-7,-18,-13,-16,-11,-8
-13,-7,5,10,-9,-1,-7,-18,-13,-16,-11,-8
-15,-8,7,12,-11,0,-6,-18,-12,-16,-10,-7
-17,-8,8,13,-12,0,-6,-17,-11,-15,-10,-6
-18,-7,10,12,-13,1,-6,-17,-11,-15,-10,-6
-18,-6,11,12,-14,2,-6,-17,-12,-15,-10,-6
-18,-7,11,12,-14,2,-6,-19,-13,-16,-11,-7
-19,-7,11,13,-15,1,-7,-20,-14,-17,-11,-8
-19,-7,11,13,-15,2,-6,-19,-13,-16,-10,-7
-19,-6,11,12,-16,2,-5,-18,-12,-15,-9,-6
-18,-6,11,12,-15,2,-4,-18,-11,-15,-8,-6
-16,-6,9,11,-13,2,-5,-19,-11,-16,-9,-7
-15,-6,9,10,-12,1,-6,-21,-13,-18,-11,-9
-16,-6,10,11,-13,2,-6,-22,-14,-19,-12,-10
-19,-6,12,12,-15,3,-6,-21,-14,-19,-12,-9
-21,-6,14,13,-17,3,-6,-20,-14,-18,-12,-8
-21,-6,15,13,-18,4,-6,-19,-13,-16,-10,-7
-21,-6,15,13,-18,4,-5,-18,-12,-15,-10,-7
-20,-7,13,13,-16,3,-6,-19,-13,-16,-11,-8
-19,-8,11,13,-15,2,-7,-20,-13,-17,-12,-8
-19,-9,11,14,-15,2,-6,-19,-13,-17,-11,-8
-19,-7,12,13,-15,3,-6,-19,-12,-16,-11,-7
-18,-6,12,12,-15,3,-6,-19,-13,-17,-11,-7
-17,-7,11,12,-14,2,-6,-21,-14,-18,-12,-8
-19,-8,11,13,-15,1,-6,-22,-14,-19,-12,-9
-20,-9,12,14,-17,1,-4,-21,-13,-18,-11,-8
-20,-7,13,14,-18,3,-2,-20,-10,-16,-9,-7
-20,-5,14,12,-17,5,-1,-19,-8,-14,-8,-6
-22,-5,17,13,-19,6,0,-15,-5,-12,-5,-4
-26,-6,20,16,-23,7,2,-11,-2,-10,-3,-3
-26,-7,19,16,-22,7,3,-9,-1,-9,-2,-3
-25,-6,19,15,-21,6,3,-6,0,-7,-1,-2
-25,-5,21,15,-23,8,4,-2,3,-4,1,-1
-26,-3,24,15,-25,10,6,3,7,0,5,2
-26,-3,24,14,-25,11,6,10,11,7,8,6
-21,-1,20,11,-21,10,6,18,15,14,11,10
-12,1,13,5,-12,8,4,23,18,20,14,14
-2,1,4,0,-3,3,0,24,17,24,15,17
7,0,-7,-3,7,-3,-8,19,13,26,15,19
16,0,-16,-8,17,-8,-17,8,7,25,14,23
25,0,-23,-13,24,-12,-26,-7,0,22,13,26
33,2,-30,-18,32,-14,-35,-26,-10,16,11,27
43,4,-37,-24,40,-16,-45,-47,-22,7,6,25
50,5,-44,-28,47,-18,-54,-65,-34,-3,0,23
57,7,-49,-32,53,-20,-62,-82,-46,-13,-5,22
64,8,-55,-36,59,-22,-72,-100,-62,-26,-13,19
71,7,-64,-39,67,-27,-82,-122,-81,-44,-25,12
76,5,-71,-40,74,-32,-89,-144,-100,-64,-38,3
76,2,-73,-39,75,-36,-93,-164,-116,-83,-50,-7
71,-3,-75,-34,74,-40,-93,-179,-130,-102,-63,-20
68,-14,-82,-27,76,-48,-93,-190,-143,-121,-80,-38
66,-25,-91,-20,78,-58,-95,-198,-156,-138,-97,-56
61,-34,-95,-13,78,-64,-96,-202,-165,-152,-110,-70
56,-41,-96,-8,76,-68,-97,-204,-170,-161,-120,-80
53,-47,-99,-3,76,-73,-97,-201,-173,-166,-127,-89
50,-53,-103,1,77,-78,-95,-194,-172,-167,-131,-95
46,-58,-105,6,76,-82,-91,-183,-168,-164,-133,-100
40,-62,-103,11,72,-83,-84,-168,-160,-158,-132,-102
35,-63,-99,14,68,-81,-76,-152,-149,-148,-127,-101
32,-63,-96,15,64,-79,-68,-136,-138,-137,-120,-97
27,-62,-89,17,58,-74,-60,-121,-125,-124,-112,-91
22,-57,-78,18,50,-66,-52,-106,-111,-110,-101,-82
17,-49,-67,16,43,-57,-45,-92,-96,-96,-89,-73
13,-41,-54,15,35,-48,-39,-77,-82,-82,-76,-62
8,-35,-43,14,26,-39,-34,-64,-68,-69,-64,-53
4,-29,-33,13,19,-32,-29,-53,-57,-58,-54,-45
-1,-25,-24,13,12,-25,-24,-41,-47,-47,-45,-39
-5,-23,-17,14,6,-20,-19,-30,-38,-38,-38,-33
-7,-21,-13,14,2,-17,-14,-22,-30,-31,-32,-28
-8,-20,-11,14,1,-15,-10,-16,-25,-25,-28,-25
-9,-19,-9,14,0,-13,-7,-12,-20,-21,-24,-23
-11,-17,-6,14,-2,-11,-4,-7,-16,-17,-21,-21
-13,-15,-2,14,-5,-9,-2,-4,-13,-14,-18,-19
-17,-15,1,16,-8,-7,0,-1,-11,-12,-16,-18
-19,-15,4,17,-11,-6,0,1,-9,-10,-15,-17
-18,-15,3,17,-10,-6,0,3,-7,-8,-14,-16
-17,-16,1,16,-9,-7,1,5,-6,-7,-14,-16
-17,-17,1,17,-9,-7,2,7,-5,-6,-13,-15
-19,-17,2,18,-11,-6,3,9,-3,-4,-12,-14
-20,-16,4,18,-12,-5,4,9,-2,-4,-12,-14
-20,-15,5,18,-12,-5,4,8,-2,-4,-11,-14
-19,-15,4,17,-11,-5,4,8,-2,-4,-11,-15
-19,-15,4,17,-11,-6,4,8,-2,-4,-10,-15
-20,-15,6,17,-13,-5,4,9,-1,-3,-10,-14
-21,-15,7,18,-14,-4,4,10,-2,-3,-10,-14
-22,-14,8,18,-15,-3,4,11,-2,-2,-10,-15
-24,-13,10,18,-17,-1,5,13,0,0,-9,-14
-25,-12,12,18,-19,0,6,14,1,1,-8,-12
-24,-12,12,18,-18,0,5,14,1,2,-7,-11
-22,-11,11,17,-16,0,5,15,1,3,-6,-11
-21,-12,10,17,-15,-1,5,15,2,3,-6,-10
-22,-13,9,17,-15,-2,5,16,2,3,-6,-10
-23,-12,11,18,-17,-1,6,17,3,4,-5,-9
-24,-11,12,17,-18,0,7,18,4,6,-4,-8
-23,-11,12,17,-18,1,7,18,5,7,-3,-8
-23,-12,11,17,-17,0,6,18,4,6,-4,-8
-23,-13,9,18,-15,-2,5,17,4,5,-5,-10
-22,-14,8,17,-14,-3,5,16,4,5,-5,-10
-20,-12,8,16,-13,-2,5,16,4,5,-5,-10
-21,-10,10,15,-15,0,5,17,4,6,-5,-10
-22,-10,12,16,-17,1,5,17,5,6,-5,-9
-23,-10,12,16,-18,1,5,18,5,6,-5,-9
-23,-10,13,16,-18,1,4,18,5,6,-5,-10
-22,-9,13,16,-18,2,4,19,5,7,-5,-11
-24,-9,15,17,-19,3,4,20,6,7,-4,-10
-27,-9,17,18,-21,3,5,20,7,8,-3,-9
-27,-8,18,18,-22,4,6,22,8,9,-2,-8
-25,-7,17,16,-20,4,6,23,9,10,-1,-7
-23,-7,15,15,-18,3,6,23,9,10,-1,-7
-21,-9,12,15,-16,1,6,23,9,10,-1,-7
-20,-10,9,15,-15,0,6,23,9,11,-1,-8
-20,-12,8,16,-14,-1,6,23,10,12,-1,-7
-19,-11,9,15,-14,-1,7,24,11,13,0,-6
-19,-9,11,15,-15,0,8,27,13,15,2,-5
-20,-9,12,15,-15,1,9,28,13,16,3,-4
-20,-9,11,15,-15,0,8,28,13,16,2,-4
-20,-8,12,14,-15,1,7,29,14,16,2,-4
-21,-8,13,14,-16,2,8,30,15,17,3,-3
-22,-8,14,15,-18,3,8,32,16,18,4,-2
-22,-7,15,14,-18,4,9,33,17,19,5,-2
-21,-6,15,13,-17,4,9,33,17,20,6,-1
-21,-7,14,14,-17,3,8,33,17,20,5,-1
-21,-8,13,14,-16,3,8,33,17,20,5,-2
-19,-6,12,13,-15,3,9,34,18,21,5,-1
-17,-5,12,11,-15,4,9,36,20,23,7,0
-17,-5,12,11,-15,4,9,37,21,24,7,0
-17,-6,12,12,-14,3,8,38,21,24,8,0
-17,-6,11,11,-14,3,8,39,22,25,8,1
-15,-4,12,10,-13,4,8,40,23,26,9,1
-14,-1,12,8,-13,6,8,41,23,27,10,2
-15,0,14,8,-13,7,8,41,24,27,10,2
-16,0,15,9,-15,7,8,42,24,26,10,1
-16,0,16,8,-15,8,8,43,24,27,10,1
-15,2,16,6,-15,9,8,44,25,28,11,2
-14,2,16,5,-14,9,8,44,26,28,11,2
-14,2,15,5,-15,9,8,44,26,28,11,1
-14,2,16,5,-15,9,9,44,26,28,11,1
-14,2,16,6,-15,9,9,44,26,29,11,2
-14,2,16,5,-15,9,8,45,27,29,12,2
-12,3,15,4,-13,9,8,46,27,30,13,3
-9,6,15,2,-12,11,9,48,28,31,14,5
-6,10,16,-2,-11,13,11,49,29,33,16,6
-2,14,16,-6,-9,15,12,50,30,35,17,6
0,17,17,-9,-8,17,13,52,31,36,18,7
1,19,18,-11,-8,19,14,54,33,38,20,9
2,21,18,-12,-7,20,14,56,34,39,21,10
2,22,19,-12,-7,21,14,56,34,39,21,10
2,23,20,-12,-8,22,15,56,34,39,22,10
3,24,21,-13,-8,23,15,56,35,40,22,11
4,25,20,-14,-7,23,15,56,35,39,22,11
5,26,20,-16,-7,23,15,55,35,39,22,11
6,27,21,-16,-7,24,14,54,35,39,22,11
6,27,21,-16,-7,24,14,53,35,39,22,11
5,26,21,-16,-7,23,14,53,35,39,22,11
5,26,20,-16,-7,23,13,53,34,38,22,11
6,26,20,-16,-6,23,13,53,34,38,21,11
6,27,20,-16,-6,23,13,53,33,38,22,11
9,29,19,-18,-4,24,13,53,33,38,22,11
11,30,19,-20,-3,25,13,52,33,38,22,12
11,30,19,-20,-4,25,14,52,33,38,23,12
10,29,19,-19,-5,24,13,51,33,38,23,13
11,29,18,-20,-4,23,13,50,32,37,22,13
11,30,18,-20,-3,24,12,48,32,36,22,13
11,31,18,-21,-3,24,12,46,32,35,23,14
11,31,19,-21,-3,25,12,43,31,35,23,14
11,31,19,-21,-3,25,11,41,30,33,22,14
10,30,20,-20,-5,25,10,38,29,32,22,14
9,30,21,-19,-6,26,9,36,28,31,22,14
9,30,21,-20,-6,26,9,34,28,30,22,15
11,30,19,-20,-4,25,9,32,27,28,22,15
10,29,18,-20,-4,24,8,30,25,27,21,14
9,29,20,-19,-5,24,8,29,24,26,20,14
8,29,20,-19,-5,25,8,27,23,25,20,15
9,29,19,-19,-4,24,8,24,21,23,19,14
11,30,19,-20,-3,24,7,22,20,22,18,14
13,30,18,-21,-2,24,6,20,18,20,17,13
14,30,16,-22,-2,24,6,17,17,18,16,13
13,29,17,-21,-2,23,5,15,16,16,16,12
12,29,17,-20,-2,23,5,13,15,15,15,12
12,29,16,-21,-1,22,5,11,14,13,15,12
13,29,15,-21,0,22,5,9,13,12,14,12
14,29,14,-22,0,22,4,7,11,11,14,12
13,27,14,-20,0,21,4,6,9,10,13,11
12,26,14,-19,-1,20,3,5,8,9,13,11
13,26,13,-19,0,20,3,4,7,8,12,11
13,26,13,-19,0,20,2,4,7,7,12,10
12,25,14,-18,-1,19,2,3,6,6,11,10
12,26,13,-19,0,19,3,2,6,6,11,10
13,26,12,-20,0,19,2,0,5,5,10,9
12,25,12,-19,0,19,2,-1,4,4,9,8
10,24,12,-18,0,18,2,-2,3,3,8,8
10,23,12,-17,0,18,2,-3,2,2,8,8
11,23,11,-17,0,18,1,-4,1,1,7,7
12,23,11,-18,0,18,0,-4,0,0,6,6
12,24,11,-18,0,18,0,-4,0,0,6,6
12,24,12,-18,0,17,0,-5,0,0,6,6
10,24,13,-17,0,18,1,-5,0,-1,6,6
8,23,15,-16,-2,19,2,-6,0,-1,6,7
7,23,16,-15,-3,19,1,-8,0,-1,5,6
6,23,16,-15,-4,19,-1,-9,-1,-2,5,5
6,22,16,-14,-5,19,-2,-10,-2,-3,5,5
6,23,17,-15,-5,20,-1,-9,-2,-3,5,4
9,25,16,-17,-4,21,-1,-8,-2,-3,4,4
11,24,13,-18,-1,19,-2,-8,-2,-4,4,4
10,23,12,-17,0,18,-2,-8,-2,-4,3,3
8,22,13,-15,-2,17,-3,-8,-2,-4,3,3
6,20,13,-13,-3,17,-3,-10,-2,-5,2,2
5,20,13,-12,-3,16,-3,-11,-2,-6,2,2
5,19,14,-12,-4,16,-3,-11,-2,-6,2,2
5,19,14,-12,-5,17,-3,-11,-1,-6,3,3
5,20,15,-13,-5,18,-3,-10,-1,-6,3,3
6,22,15,-14,-4,19,-3,-9,-1,-6,3,3
7,22,15,-14,-4,19,-3,-9,-1,-6,3,3
6,21,15,-14,-4,18,-3,-9,-2,-7,2,3
5,21,16,-13,-5,18,-3,-10,-2,-7,2,3
5,22,17,-13,-5,19,-2,-9,-2,-5,3,3
4,22,17,-13,-6,19,-1,-8,-1,-4,3,3
3,22,18,-12,-7,19,-1,-7,-2,-5,3,2
3,22,18,-12,-7,20,-1,-7,-2,-5,3,2
3,21,18,-12,-7,19,-2,-8,-3,-5,3,2
2,20,17,-11,-6,18,-3,-9,-3,-6,2,2
2,19,16,-10,-6,17,-3,-9,-4,-6,2,2
3,19,15,-11,-5,17,-3,-9,-5,-6,2,2
5,20,14,-13,-4,17,-3,-8,-5,-5,2,2
6,21,14,-13,-3,17,-3,-7,-5,-5,2,2
6,21,14,-13,-4,17,-2,-6,-4,-4,2,2
6,21,15,-13,-5,18,-1,-5,-4,-4,3,2
5,21,16,-13,-6,19,0,-4,-3,-3,3,2
5,21,16,-13,-6,19,0,-4,-2,-3,4,3
6,21,15,-13,-5,18,1,-4,-2,-2,4,4
5,20,14,-13,-4,17,0,-5,-2,-3,4,3
4,19,15,-11,-5,17,0,-6,-3,-3,4,3
5,20,14,-12,-4,17,0,-4,-2,-2,4,3
9,22,13,-15,-2,17,0,-2,-1,-1,5,4
10,23,13,-16,-2,18,1,-1,0,0,6,5
9,24,14,-16,-3,19,2,0,1,0,7,5
9,24,15,-17,-3,19,3,1,2,1,8,6
8,25,16,-17,-3,20,4,3,3,2,10,7
7,25,17,-16,-5,21,4,4,4,4,11,9
6,25,18,-16,-5,22,4,4,5,4,11,10
7,26,18,-17,-5,22,4,4,5,4,11,10
9,27,17,-18,-3,22,4,4,5,4,10,9
12,28,16,-20,-2,22,4,3,5,4,10,9
14,29,14,-21,-1,22,3,3,4,4,10,8
14,29,14,-21,0,21,2,2,4,3,10,8
14,29,15,-22,0,22,3,3,5,4,10,9
12,29,16,-21,-1,22,2,4,5,4,11,10
10,28,17,-19,-3,22,0,3,4,4,10,9
11,29,18,-20,-2,23,0,2,4,4,10,10
13,30,18,-21,-2,24,0,2,4,4,11,11
12,29,18,-20,-2,23,-2,1,3,3,10,10
11,28,18,-19,-3,23,-5,-1,1,1,9,9
12,29,17,-20,-2,23,-6,-3,0,0,8,9
14,31,16,-22,0,24,-7,-4,0,0,8,9
16,32,17,-24,0,25,-7,-5,0,0,8,10
16,32,17,-23,0,25,-7,-5,-1,0,8,10
15,31,16,-22,0,23,-7,-6,-1,0,8,10
13,29,16,-21,-1,22,-7,-6,-2,0,8,9
12,28,16,-19,-2,22,-7,-8,-3,-1,7,8
12,27,15,-19,-2,21,-8,-9,-4,-3,5,6
15,27,12,-21,1,20,-8,-10,-5,-5,4,5
18,26,9,-22,4,18,-8,-11,-6,-6,3,4
16,26,9,-21,3,18,-6,-10,-6,-6,3,4
13,26,13,-20,0,19,-3,-9,-5,-5,4,5
10,25,14,-18,-1,19,-2,-9,-4,-4,4,5
9,24,14,-16,-2,19,-1,-9,-4,-4,3,5
9,23,14,-16,-2,19,-1,-9,-4,-4,3,5
8,22,14,-15,-2,18,0,-8,-4,-4,3,4
7,21,14,-14,-3,18,0,-9,-5,-5,2,3
9,20,11,-15,-1,16,0,-10,-6,-6,1,2
11,19,8,-15,2,14,0,-10,-7,-8,0,0
11,18,6,-14,3,12,0,-10,-8,-9,-1,0
9,16,7,-12,1,11,-1,-11,-9,-9,-2,0
4,15,10,-9,-2,12,-1,-11,-9,-9,-1,0
1,14,13,-8,-5,13,0,-11,-8,-8,0,0
2,15,12,-8,-5,13,0,-11,-9,-8,0,0
3,15,12,-9,-5,14,0,-11,-9,-8,0,0
3,15,12,-9,-5,14,0,-11,-9,-8,0,0
2,14,12,-8,-5,13,-1,-12,-10,-9,-1,0
3,13,11,-8,-4,12,-2,-12,-11,-10,-2,0
5,14,8,-9,-1,11,-2,-12,-11,-10,-2,-1
5,15,9,-9,-2,12,-1,-11,-10,-10,-1,0
1,15,13,-8,-6,14,-1,-10,-9,-9,-1,1
0,14,13,-7,-7,14,-1,-10,-9,-10,-1,0
2,14,11,-8,-4,12,-2,-11,-9,-11,-2,-1
2,13,10,-8,-4,12,-2,-11,-9,-11,-3,-1
1,14,12,-8,-5,13,0,-11,-9,-11,-2,-1
1,14,12,-8,-5,13,0,-11,-9,-10,-2,0
2,13,10,-8,-3,12,0,-11,-9,-10,-2,0
3,13,9,-8,-2,11,0,-10,-9,-10,-2,0
2,13,9,-7,-3,10,0,-11,-9,-10,-2,-1
1,13,10,-7,-4,11,0,-11,-9,-11,-3,-1
2,14,11,-8,-4,12,-1,-12,-9,-11,-3,-1
3,14,10,-9,-3,11,-2,-13,-10,-12,-4,-2
1,11,10,-6,-4,11,-3,-14,-10,-13,-4,-3
1,12,12,-6,-5,12,-2,-14,-9,-12,-3,-2
5,16,12,-10,-3,14,-1,-13,-8,-11,-2,-1
6,18,11,-11,-2,15,-1,-12,-9,-11,-1,-1
5,17,11,-11,-2,14,-2,-12,-10,-11,-2,-1
3,16,12,-9,-4,13,-2,-12,-10,-11,-2,-1
1,15,13,-8,-6,13,-2,-11,-9,-11,-2,0
1,15,12,-9,-5,13,-1,-11,-9,-11,-2,0
3,14,11,-9,-4,12,-1,-11,-9,-11,-3,-1
1,13,12,-7,-5,13,-1,-11,-9,-11,-3,-1
0,14,13,-7,-5,13,-1,-11,-9,-11,-3,-2
3,16,12,-9,-4,14,0,-12,-9,-11,-3,-2
5,18,11,-11,-2,14,0,-13,-9,-11,-3,-2
5,17,11,-11,-2,14,-1,-13,-8,-11,-3,-2
2,17,13,-10,-5,15,0,-11,-6,-9,-1,0
0,17,17,-9,-8,17,4,-8,-3,-7,2,1
0,18,18,-9,-9,18,6,-6,0,-5,4,3
0,18,19,-9,-10,19,8,-5,2,-3,6,4
0,19,19,-10,-10,19,9,-3,4,-2,8,5
-2,19,21,-9,-12,20,10,-1,6,0,9,6
-7,19,25,-6,-16,22,12,4,9,4,12,8
-8,20,27,-6,-17,23,14,10,13,9,15,11
-3,22,24,-9,-13,23,13,17,17,15,19,15
3,24,20,-13,-8,22,12,25,21,22,23,20
7,23,16,-15,-4,20,11,31,25,29,26,23
13,22,9,-17,2,16,8,32,26,34,28,26
22,21,-1,-21,12,11,2,29,23,37,28,29
35,22,-13,-28,24,5,-6,22,18,38,28,33
46,25,-21,-35,34,1,-15,11,12,39,29,38
54,28,-26,-41,40,0,-23,-3,5,37,30,43
61,31,-30,-46,46,0,-32,-20,-4,31,28,45
69,33,-36,-51,53,-2,-41,-37,-16,22,23,44
78,34,-44,-56,61,-5,-49,-54,-28,12,18,43
89,35,-53,-62,71,-9,-57,-71,-41,1,11,41
97,34,-63,-65,80,-14,-66,-92,-59,-15,1,36
103,31,-72,-66,88,-20,-75,-114,-80,-35,-12,27
103,27,-77,-64,91,-25,-82,-135,-100,-58,-27,15
99,22,-79,-59,90,-29,-87,-153,-116,-80,-42,0
93,14,-81,-53,88,-34,-89,-168,-131,-100,-60,-18
89,6,-84,-47,87,-40,-89,-179,-145,-119,-78,-37
86,-3,-90,-41,88,-47,-91,-188,-157,-136,-94,-54
85,-11,-96,-37,90,-54,-93,-194,-166,-149,-106,-68
82,-17,-99,-32,90,-58,-94,-193,-170,-156,-114,-77
76,-24,-101,-26,89,-62,-92,-186,-169,-157,-119,-83
71,-31,-102,-19,87,-66,-89,-175,-166,-155,-121,-89
66,-35,-103,-14,85,-69,-83,-163,-160,-150,-123,-93
63,-37,-103,-12,83,-70,-77,-150,-153,-144,-122,-95
60,-38,-100,-11,81,-69,-70,-135,-143,-134,-117,-94
55,-37,-93,-8,74,-66,-62,-119,-130,-122,-109,-88
48,-36,-85,-6,66,-61,-55,-103,-116,-109,-99,-81
43,-33,-76,-5,59,-54,-47,-88,-101,-95,-88,-73
37,-28,-64,-5,50,-46,-39,-74,-85,-81,-74,-63
29,-20,-49,-4,39,-35,-32,-60,-69,-65,-60,-51
22,-14,-36,-3,29,-25,-25,-48,-55,-52,-48,-41
17,-10,-28,-3,23,-19,-20,-38,-44,-42,-39,-34
15,-7,-24,-4,20,-16,-17,-27,-36,-33,-32,-28
14,-5,-20,-5,17,-13,-13,-18,-28,-24,-25,-23
10,-4,-15,-3,13,-10,-9,-11,-21,-17,-20,-19
7,-4,-10,-2,9,-7,-6,-5,-16,-12,-16,-16
6,-2,-7,-2,7,-5,-2,0,-11,-7,-11,-13
5,0,-5,-2,5,-3,1,5,-7,-4,-8,-11
4,0,-4,-2,5,-2,3,7,-4,-1,-6,-10
3,0,-4,-1,4,-2,4,9,-2,0,-5,-9
0,0,-3,0,3,-2,5,11,0,2,-4,-8
1,0,-3,0,3,-2,5,13,1,4,-4,-8
1,0,-3,-1,3,-2,6,14,2,5,-3,-7
-1,-1,-1,0,0,-1,7,16,3,7,-2,-7
-2,-2,0,1,0,-1,8,18,5,8,-1,-6
0,-1,-1,1,0,-1,8,20,5,8,-1,-6
-1,-1,-1,1,0,0,7,21,6,8,0,-6
-2,-1,0,2,0,0,8,22,7,9,0,-5
-2,0,0,1,0,0,8,22,8,10,1,-4
-1,0,-1,0,0,0,8,23,9,11,1,-4
-1,0,-1,1,0,0,8,23,9,12,2,-4
-2,-2,0,2,0,-1,9,24,10,12,2,-4
-2,-2,0,2,-1,-1,9,25,10,12,2,-4
-3,-2,1,2,-1,0,10,25,11,13,3,-3
-2,0,1,1,-1,0,10,26,13,14,4,-2
-1,1,2,0,0,2,11,27,14,15,5,-1
0,3,2,-1,0,2,11,27,15,16,6,-1
-1,3,3,-1,-1,3,11,28,16,17,6,-1
-1,3,4,-1,-2,3,11,30,17,18,6,-1
-1,3,4,0,-2,3,10,31,18,18,6,-1
-2,2,3,0,-2,2,10,32,18,19,7,0
-1,3,3,0,-2,3,11,33,20,19,8,0
0,4,3,-1,-1,4,12,33,21,20,8,0
0,3,2,-1,0,2,11,32,21,20,8,-1
-1,1,1,0,0,1,10,31,21,20,7,-2
-2,1,1,0,-1,1,10,33,22,21,7,-2
-2,1,3,0,-2,2,11,36,23,22,8,-1
-2,3,5,0,-3,4,12,39,26,24,9,1
0,4,5,-2,-2,4,13,40,27,25,10,2
0,4,4,-2,-2,4,13,40,28,25,11,3
-1,4,5,-1,-3,5,13,39,29,25,11,3
-1,5,5,-2,-2,6,13,39,30,26,11,2
0,6,5,-3,-2,6,13,39,31,27,12,2
0,6,5,-3,-2,6,14,40,32,28,12,3
1,6,4,-3,-1,5,13,40,32,27,11,2
2,5,3,-4,0,4,13,40,32,27,10,1
2,6,4,-4,0,5,16,42,34,28,11,2
1,7,6,-4,-2,7,19,44,36,31,14,4
-1,5,7,-2,-3,6,19,45,37,32,15,5
-2,4,6,0,-4,5,16,45,37,31,14,5
-3,5,7,-1,-4,6,13,45,36,31,14,4
-2,6,8,-2,-4,7,13,47,37,32,14,5
0,7,7,-3,-3,7,13,48,37,32,14,5
1,7,6,-4,-2,7,14,48,37,32,14,4
2,8,5,-5,-1,7,14,47,38,32,14,4
5,9,4,-7,0,7,14,47,38,32,14,4
8,10,2,-9,3,7,14,47,38,33,14,4
8,11,3,-9,2,8,16,49,40,34,15,5
3,11,8,-7,-2,10,18,51,42,36,17,6
-2,10,12,-4,-6,11,19,52,44,37,18,7
-2,12,13,-5,-7,12,19,53,44,38,19,7
1,14,12,-7,-5,13,20,54,45,38,19,8
2,15,12,-8,-5,13,21,56,46,39,20,9
1,15,14,-8,-6,14,21,58,47,40,21,10
1,15,14,-7,-6,14,20,58,47,41,22,11
0,13,12,-6,-6,13,19,57,47,41,21,10
1,12,10,-6,-4,11,18,57,46,41,21,9
4,13,8,-8,-1,11,18,57,46,40,20,8
6,14,7,-10,0,10,18,59,46,41,20,8
6,14,8,-10,0,11,19,60,46,42,21,9
7,15,8,-10,0,12,19,62,47,43,21,10
6,16,9,-11,-1,13,20,63,47,44,22,11
6,17,10,-11,-2,13,21,64,48,45,22,11
5,17,11,-11,-2,14,21,64,49,46,23,12
4,17,11,-11,-3,14,22,65,50,46,24,12
4,17,12,-11,-3,15,21,64,50,46,24,12
2,16,12,-9,-5,14,21,62,49,45,23,11
0,14,13,-7,-7,14,20,61,49,44,23,10
0,14,14,-6,-7,14,20,60,48,44,23,10
3,16,12,-9,-5,14,20,60,48,44,23,11
8,19,11,-13,-2,15,21,61,48,45,23,11
8,21,12,-14,-2,16,21,63,48,46,24,12
3,19,15,-11,-6,17,21,66,48,47,24,13
-1,18,18,-9,-10,18,21,68,49,48,25,13
0,19,18,-10,-9,19,22,68,50,49,26,14
4,21,15,-13,-5,18,21,67,49,48,25,14
7,21,13,-14,-3,18,21,65,49,47,25,14
5,21,14,-13,-4,18,21,65,49,47,25,14
2,19,16,-10,-7,18,21,64,49,47,25,14
0,19,18,-9,-9,18,20,63,49,46,25,13
0,19,18,-10,-8,18,20,63,48,45,25,13
1,20,18,-11,-7,19,20,62,48,45,25,13
3,21,17,-13,-6,19,20,61,48,45,25,13
5,23,17,-14,-6,20,20,61,48,45,25,14
6,24,18,-15,-6,21,21,60,48,45,26,15
7,25,18,-16,-5,22,22,58,48,44,26,16
6,23,17,-15,-5,20,22,57,47,43,25,16
4,21,17,-13,-6,19,20,54,45,42,25,15
2,21,18,-12,-8,19,18,51,44,40,24,14
2,21,19,-12,-8,20,17,49,43,39,24,14
2,22,19,-12,-8,20,17,48,42,39,24,15
3,22,19,-12,-8,21,17,47,41,39,24,15
3,23,19,-13,-8,22,16,46,40,37,23,15
1,22,20,-12,-9,22,15,42,38,35,23,15
1,20,19,-10,-9,20,14,39,36,32,21,14
1,19,18,-10,-8,19,13,36,34,30,20,13
1,20,19,-11,-9,20,14,34,33,29,20,14
1,21,20,-11,-9,20,13,32,32,28,20,14
1,20,19,-11,-8,19,13,29,30,26,18,13
1,20,18,-11,-8,19,13,27,29,25,18,13
1,21,19,-11,-8,20,14,25,28,25,17,13
1,21,20,-11,-9,21,14,23,27,23,17,13
0,20,20,-10,-10,20,13,21,26,21,16,12
0,19,19,-9,-10,19,12,18,24,18,14,11
1,18,17,-9,-9,17,11,14,21,15,13,10
0,18,18,-9,-9,17,10,12,20,14,12,9
1,18,17,-9,-8,17,10,11,18,13,11,9
2,18,15,-9,-6,16,9,10,17,12,10,9
1,17,15,-8,-7,16,10,10,16,12,10,8
1,17,15,-9,-7,17,10,8,14,10,9,7
2,17,13,-9,-6,16,8,5,13,8,7,6
1,16,13,-8,-6,15,7,2,11,6,6,6
1,15,14,-8,-6,14,7,1,9,4,5,5
2,16,13,-9,-5,14,7,0,8,3,4,4
4,16,12,-10,-4,14,7,2,8,3,4,5
3,16,12,-10,-4,14,8,4,9,4,5,6
1,17,15,-9,-7,16,10,5,10,6,7,8
-1,17,17,-8,-9,17,10,5,10,6,7,8
-2,16,17,-7,-9,16,9,2,8,4,5,7
-1,16,16,-7,-8,16,9,0,7,3,4,6
0,16,16,-7,-8,15,10,0,6,2,5,6
0,16,15,-7,-8,15,9,0,6,2,4,6
0,15,15,-7,-7,14,8,0,5,1,3,5
0,15,14,-7,-7,14,8,-1,4,0,3,4
0,13,12,-7,-6,13,7,-2,3,-1,2,3
0,12,11,-6,-6,12,6,-4,2,-2,1,2
-2,12,13,-5,-7,12,7,-4,2,-2,1,2
-3,12,15,-4,-9,13,8,-4,3,-1,2,3
-2,11,14,-4,-8,12,8,-5,2,-2,1,2
0,11,11,-4,-6,11,8,-6,2,-3,1,2
0,10,10,-4,-5,10,7,-7,1,-4,0,1
-1,9,10,-3,-5,9,6,-7,1,-4,0,1
-3,9,12,-3,-7,11,6,-6,1,-3,1,2
-4,9,13,-2,-9,11,7,-5,2,-2,2,3
-5,9,13,-2,-9,11,6,-4,2,-2,1,3
-6,9,14,-2,-10,11,6,-5,1,-3,1,2
-6,10,16,-1,-11,12,6,-4,1,-2,1,3
-7,9,15,0,-12,11,7,-3,1,-2,1,3
-6,7,13,0,-10,10,6,-3,1,-3,1,2
-6,5,11,1,-8,8,4,-4,0,-4,0,0
-6,3,9,2,-7,6,3,-5,0,-5,-1,0
-5,2,7,1,-6,6,3,-6,-1,-6,-1,-1
-5,3,7,1,-5,5,3,-7,-1,-6,-1,-1
-4,3,7,0,-5,5,3,-7,-2,-7,-1,-1
-3,4,6,0,-5,5,2,-8,-2,-7,-2,-1
-5,4,8,0,-7,5,2,-7,-1,-6,-1,0
-8,3,11,3,-9,6,2,-7,-1,-6,-1,0
-10,2,11,4,-10,6,2,-6,-1,-6,-1,-1
-9,1,11,4,-9,6,2,-6,-1,-6,-1,-1
-8,1,9,3,-8,6,1,-6,-2,-6,-1,-1
-7,1,9,3,-8,5,0,-7,-2,-5,-1,-1
-6,2,8,2,-7,5,1,-6,-2,-5,-1,-1
-5,2,7,1,-6,4,1,-6,-2,-4,0,0
-5,2,8,1,-7,5,2,-4,-1,-4,0,0
-6,2,9,2,-8,5,2,-3,-1,-3,0,0
-8,1,10,3,-9,5,2,-2,0,-3,0,0
-11,1,12,5,-12,7,3,-1,1,-1,1,1
-12,2,14,5,-13,9,3,0,2,0,3,3
-11,2,13,3,-12,9,3,0,2,0,3,3
-10,2,12,3,-11,7,2,-1,2,0,3,3
-11,1,12,4,-12,7,2,-1,2,0,3,3
-10,2,12,4,-12,7,3,-1,3,1,3,3
-7,5,12,1,-10,8,3,0,4,2,4,4
-4,7,11,-1,-8,9,3,0,4,2,5,5
-3,7,10,-2,-6,8,2,0,4,3,5,5
-4,6,10,-1,-7,9,3,2,5,4,6,6
-3,8,10,-2,-7,10,3,3,6,5,7,7
1,9,7,-5,-3,8,2,3,6,5,6,6
2,8,5,-5,-2,7,1,4,6,5,6,6
0,8,8,-4,-4,8,1,5,7,6,6,6
0,9,9,-5,-4,9,0,5,7,5,5,6
2,11,9,-6,-4,10,0,5,7,5,6,6
1,12,12,-7,-5,12,0,5,8,6,7,8
0,13,14,-7,-7,14,1,5,9,6,9,10
0,14,14,-7,-7,14,0,4,9,6,9,10
-1,13,13,-6,-7,13,-3,2,7,4,8,9
-1,12,12,-6,-6,12,-5,0,6,3,7,8
0,13,12,-6,-6,13,-6,-1,5,3,7,8
1,15,13,-7,-6,14,-7,-2,4,3,7,8
3,16,13,-9,-5,14,-7,-2,4,2,7,9
2,16,14,-9,-5,15,-7,-3,4,2,7,9
1,16,15,-8,-7,15,-6,-3,3,1,6,10
1,16,14,-9,-6,15,-6,-3,2,1,5,9
3,15,12,-10,-4,14,-6,-4,1,0,4,7
3,15,11,-9,-3,13,-6,-5,0,-1,3,6
1,13,11,-7,-4,12,-6,-6,0,-2,3,6
1,12,11,-6,-5,11,-6,-6,-1,-2,3,6
0,12,11,-6,-5,11,-6,-6,-1,-3,2,5
0,11,10,-5,-5,11,-6,-7,-3,-4,0,4
1,9,8,-5,-4,9,-7,-8,-4,-6,-1,3
0,6,7,-3,-4,7,-7,-8,-5,-6,-1,2
-1,5,6,-2,-4,6,-5,-8,-4,-6,-1,3
0,6,6,-3,-3,7,-3,-7,-3,-5,0,3
-1,7,7,-3,-4,7,-2,-6,-3,-5,0,2
-3,5,7,-1,-5,6,-1,-6,-3,-6,0,1
-5,2,6,2,-6,4,-1,-7,-4,-7,-2,0
-6,0,6,3,-6,4,0,-8,-4,-8,-2,0
-4,1,6,1,-5,4,0,-9,-3,-8,-2,1
-3,2,6,0,-4,4,0,-9,-3,-8,-2,1
-1,3,4,0,-3,3,0,-9,-4,-8,-2,0
0,2,1,-1,0,1,-1,-10,-6,-9,-4,-1
0,1,1,0,-1,0,-1,-10,-6,-10,-5,-2
-5,0,3,3,-4,1,0,-10,-6,-10,-5,-2
-4,0,4,3,-4,1,0,-10,-6,-9,-4,-2
-2,1,3,1,-2,1,0,-10,-6,-9,-5,-2
-2,1,3,1,-2,2,0,-10,-6,-10,-5,-1
-4,1,5,1,-4,3,0,-10,-6,-10,-5,-1
-5,1,6,1,-5,3,0,-10,-6,-10,-5,-1
-4,0,4,1,-4,2,0,-11,-7,-11,-6,-2
-4,0,3,1,-3,1,0,-12,-7,-11,-6,-2
-4,1,3,1,-4,2,0,-12,-7,-11,-6,-2
-4,1,3,1,-3,2,-1,-12,-8,-12,-7,-3
-3,1,2,1,-2,1,-2,-13,-9,-14,-8,-4
-2,1,2,0,-1,1,-2,-15,-9,-16,-8,-4
-2,2,3,0,-2,2,-2,-16,-9,-16,-8,-5
-3,1,4,0,-3,2,-3,-18,-9,-16,-8,-4
-5,1,5,1,-5,3,-2,-18,-9,-16,-8,-4
-7,0,7,3,-7,3,-1,-16,-9,-15,-7,-4
-9,0,8,4,-8,4,-1,-14,-9,-14,-7,-4
-11,0,8,6,-10,4,-1,-12,-9,-14,-7,-4
-11,-1,8,6,-10,3,-1,-11,-9,-14,-7,-4
-10,-1,8,5,-9,3,-2,-11,-9,-14,-7,-4
-9,-1,7,5,-8,3,-3,-12,-10,-15,-7,-4
-6,-2,5,4,-6,2,-4,-13,-11,-16,-9,-6
-4,-3,1,3,-3,0,-5,-14,-11,-17,-10,-7
-4,-3,1,3,-2,0,-5,-13,-11,-16,-10,-6
-4,-2,1,3,-3,0,-4,-13,-10,-16,-9,-6
-4,-2,1,3,-3,0,-4,-14,-10,-16,-9,-6
-5,-2,2,3,-4,0,-3,-14,-10,-16,-9,-5
-6,-3,3,4,-5,0,-4,-14,-10,-16,-9,-5
-8,-4,4,6,-6,0,-5,-14,-11,-16,-9,-5
-10,-4,5,7,-7,1,-5,-12,-10,-15,-9,-4
-10,-3,6,6,-7,1,-4,-11,-9,-14,-7,-3
-8,-2,5,4,-6,2,-3,-10,-8,-14,-6,-3
-8,-1,7,4,-7,3,-2,-9,-7,-13,-6,-3
-12,0,11,6,-11,5,0,-9,-5,-12,-4,-2
-16,0,15,8,-15,7,1,-9,-3,-11,-3,-2
-17,0,17,9,-17,8,2,-9,-1,-10,-1,-1
-16,0,16,8,-16,8,3,-8,0,-9,0,-1
-16,0,15,7,-15,8,5,-4,2,-7,1,0
-17,-1,16,8,-16,8,6,1,6,-2,3,2
-17,-1,15,9,-16,8,6,7,10,2,6,5
-14,-1,13,7,-13,7,5,14,13,8,9,8
-8,0,8,3,-8,4,3,20,16,15,12,12
0,3,1,-2,0,2,0,23,18,20,14,15
11,5,-7,-8,9,-1,-4,23,17,24,15,18
20,5,-15,-13,18,-6,-11,18,13,26,16,22
28,5,-23,-17,26,-8,-21,7,7,26,16,25
36,7,-28,-22,33,-10,-31,-8,-1,23,16,29
43,9,-34,-26,39,-12,-41,-26,-10,18,14,32
52,11,-42,-32,47,-15,-49,-45,-22,10,9,31
63,13,-50,-38,57,-19,-57,-64,-34,0,3,29
72,14,-58,-43,65,-22,-64,-82,-46,-10,-2,27
79,14,-65,-46,72,-26,-73,-100,-61,-24,-11,24
83,11,-72,-47,78,-31,-82,-121,-81,-42,-23,17
85,7,-78,-46,81,-35,-89,-143,-101,-63,-37,8
84,3,-81,-44,82,-38,-94,-162,-118,-83,-50,-4
83,-2,-85,-41,84,-44,-95,-176,-132,-102,-65,-19
82,-12,-94,-35,88,-53,-96,-187,-146,-122,-82,-37
82,-22,-104,-30,92,-63,-98,-196,-160,-141,-100,-57
79,-32,-111,-23,94,-72,-101,-203,-170,-156,-114,-72
74,-40,-114,-17,94,-77,-101,-204,-176,-166,-124,-83
71,-46,-117,-12,94,-82,-99,-200,-177,-170,-131,-91
69,-51,-120,-9,95,-86,-95,-190,-174,-169,-134,-97
64,-56,-121,-4,93,-89,-89,-178,-169,-165,-136,-102
58,-62,-121,1,90,-91,-84,-165,-162,-160,-136,-105
52,-66,-120,6,86,-92,-77,-152,-153,-152,-133,-104
46,-65,-113,9,80,-89,-69,-136,-141,-141,-126,-99
41,-62,-104,10,72,-83,-60,-120,-128,-127,-115,-92
35,-57,-93,11,64,-75,-52,-105,-114,-114,-104,-84
29,-51,-80,12,55,-66,-44,-90,-99,-101,-93,-76
21,-45,-66,12,44,-55,-37,-75,-85,-86,-80,-67
15,-39,-55,12,35,-47,-31,-62,-72,-73,-69,-58
14,-33,-48,9,31,-40,-27,-51,-60,-62,-59,-50
13,-27,-41,7,27,-34,-22,-40,-50,-52,-50,-43
9,-24,-34,7,21,-29,-17,-30,-41,-43,-42,-37
4,-24,-29,9,16,-26,-14,-22,-34,-36,-36,-33
0,-23,-24,11,12,-24,-11,-16,-28,-30,-32,-30
-4,-23,-19,13,8,-22,-8,-11,-23,-26,-29,-28
-6,-22,-16,14,6,-20,-5,-7,-19,-22,-26,-26
-7,-21,-14,15,4,-18,-1,-2,-15,-18,-23,-24
-8,-21,-13,15,3,-17,0,1,-12,-15,-20,-22
-9,-22,-13,16,2,-18,0,3,-10,-14,-19,-21
-10,-23,-14,16,2,-19,0,5,-8,-12,-18,-20
-8,-22,-15,15,3,-18,1,6,-7,-11,-17,-19
-7,-20,-14,14,3,-17,3,7,-5,-9,-16,-18
-9,-20,-11,14,1,-16,4,7,-4,-8,-15,-18
-11,-20,-9,15,0,-15,4,8,-4,-7,-15,-18
-12,-20,-8,16,-1,-14,4,8,-4,-7,-14,-18
-14,-20,-7,16,-3,-13,4,9,-2,-6,-13,-17
-15,-20,-6,17,-4,-13,4,10,-1,-4,-12,-16
-12,-20,-8,16,-2,-14,4,11,0,-3,-11,-16
-10,-18,-9,14,0,-14,5,13,0,-2,-10,-15
-11,-18,-7,14,-2,-13,6,15,1,0,-9,-14
-13,-19,-5,16,-4,-13,6,16,2,1,-8,-13
-14,-20,-5,18,-4,-14,6,16,2,1,-8,-13
-16,-21,-4,19,-5,-14,5,17,2,1,-8,-14
-17,-20,-2,19,-7,-12,6,18,3,2,-8,-13
-16,-18,-2,17,-6,-11,6,18,3,3,-7,-13
-13,-17,-4,15,-4,-11,6,18,4,3,-7,-13
-12,-17,-5,15,-3,-11,6,19,4,4,-6,-13
-12,-18,-7,15,-2,-13,5,19,4,4,-6,-13
-11,-19,-8,15,-1,-14,5,19,4,4,-7,-13
-11,-18,-7,15,-2,-13,6,20,4,5,-6,-13
-12,-17,-4,15,-4,-12,7,22,5,7,-5,-12
-14,-17,-3,15,-5,-11,7,23,5,8,-5,-11
-16,-17,-1,16,-6,-10,7,24,6,8,-4,-11
-16,-17,-2,16,-6,-10,7,24,6,9,-4,-10
-15,-18,-4,16,-4,-12,6,24,7,9,-4,-10
-13,-18,-6,15,-3,-13,5,24,7,9,-4,-11
-13,-18,-5,15,-4,-12,6,24,8,10,-3,-10
-16,-19,-2,17,-6,-11,6,24,9,11,-2,-10
-18,-19,0,18,-9,-10,6,24,9,11,-2,-9
-18,-18,1,18,-9,-9,6,25,10,12,-1,-8
-18,-18,0,18,-9,-9,6,27,11,13,0,-8
-18,-17,0,17,-9,-9,6,28,11,13,0,-7
-17,-17,0,17,-8,-9,6,29,11,14,0,-7
-18,-17,0,17,-9,-9,5,29,11,14,0,-7
-16,-17,-3,16,-7,-10,4,29,11,13,0,-8
-12,-18,-7,15,-2,-13,2,28,9,12,-1,-9
-11,-18,-8,15,-2,-13,1,28,9,11,-2,-10
-15,-18,-3,16,-6,-11,2,29,10,13,-1,-9
-18,-15,2,17,-10,-7,5,32,13,16,1,-7
-19,-13,5,16,-12,-4,6,34,15,18,3,-5
-19,-13,6,15,-12,-3,7,36,17,20,5,-3
-18,-12,5,15,-11,-3,7,37,18,21,5,-2
-16,-11,4,14,-10,-3,7,38,18,22,6,-2
-16,-11,4,14,-10,-3,7,39,19,23,6,-1
-16,-11,4,14,-10,-3,8,40,20,23,7,-1
-14,-11,3,13,-9,-4,8,40,20,23,7,-2
-14,-11,2,13,-8,-4,8,40,20,23,6,-3
-15,-11,3,13,-9,-3,8,41,21,23,6,-3
-15,-11,3,13,-9,-3,8,42,21,24,7,-2
-16,-10,4,13,-10,-2,7,42,22,25,7,-2
-15,-9,4,12,-9,-2,6,42,23,25,7,-2
-14,-8,4,11,-9,-2,6,42,23,25,8,-1
-14,-8,5,11,-9,-1,7,43,24,26,10,0
-15,-7,7,11,-11,0,8,44,26,28,11,1
-15,-6,8,10,-11,1,10,45,27,29,12,2
-13,-4,8,8,-10,2,11,47,28,31,13,3
-11,-3,7,7,-8,2,10,49,29,32,14,3
-10,-3,6,6,-7,1,10,49,29,32,14,4
-11,-3,6,7,-8,1,10,49,30,33,15,5
-11,-3,7,7,-9,2,11,51,31,34,16,5
-11,-2,7,7,-9,2,11,53,32,36,17,6
-9,-1,7,5,-9,3,11,54,32,36,17,6
-8,-1,7,5,-8,3,11,54,32,36,17,5
-9,-2,7,6,-8,3,11,53,32,36,16,5
-11,-2,8,7,-9,3,12,53,33,37,17,5
-11,-1,9,7,-10,4,12,54,33,37,18,5
-10,0,9,5,-9,4,12,55,33,38,18,6
-9,0,8,4,-8,4,12,56,33,38,18,5
-9,0,8,4,-9,4,11,56,33,38,17,5
-11,0,10,5,-10,5,11,56,34,39,18,5
-11,0,11,5,-11,6,12,57,35,40,19,6
-10,0,11,5,-11,6,12,57,35,40,19,6
-10,0,10,5,-10,5,12,57,35,40,20,6
-11,0,12,5,-11,6,12,56,35,41,20,7
-12,1,13,5,-12,7,12,56,35,41,20,7
-11,2,13,4,-12,7,12,55,35,40,20,7
-10,2,12,4,-11,7,12,55,34,40,20,7
-9,2,11,4,-10,6,12,54,34,39,20,6
-8,2,11,4,-9,6,11,54,34,39,20,7
-11,2,14,5,-12,8,11,54,35,40,21,8
-12,2,14,5,-13,8,11,53,34,39,20,7
-11,1,13,5,-11,7,10,50,33,37,19,6
-13,0,13,6,-13,7,10,49,33,37,19,6
-16,0,16,8,-15,8,12,49,34,37,21,8
-16,1,17,7,-16,9,12,49,34,37,21,8
-16,2,18,7,-16,10,12,48,34,37,22,9
-14,3,17,6,-16,10,11,46,33,36,21,9
-12,2,15,5,-14,9,10,43,32,34,20,8
-11,2,14,4,-12,8,9,39,30,32,19,7
-12,2,14,5,-13,8,8,37,29,31,19,7
-14,0,14,6,-14,7,7,35,27,29,18,7
-15,-1,14,8,-14,6,6,32,25,27,16,6
-19,-2,15,10,-17,7,5,30,23,26,16,6
-21,-3,17,12,-20,8,5,29,22,25,15,6
-21,-2,18,12,-20,8,4,26,21,24,15,6
-19,-1,17,10,-18,9,3,23,19,22,14,6
-17,-1,16,10,-16,8,2,20,17,20,13,6
-18,-3,14,11,-16,6,0,16,15,17,11,5
-19,-4,14,11,-16,5,0,13,14,15,10,5
-20,-3,16,12,-18,6,0,12,12,14,10,5
-21,-4,17,13,-19,6,0,11,11,12,10,5
-21,-4,16,13,-19,6,0,9,10,11,9,5
-20,-4,16,12,-18,6,0,8,9,10,9,5
-18,-3,15,11,-17,6,1,6,9,9,9,5
-17,-3,14,11,-15,5,0,4,7,7,8,4
-19,-5,13,12,-16,4,-1,2,6,6,7,4
-21,-7,13,14,-17,3,-2,0,4,3,5,3
-20,-8,10,14,-15,0,-4,-4,2,0,3,1
-18,-7,8,12,-12,0,-5,-7,0,-1,2,0
-18,-7,9,13,-13,0,-5,-7,0,-2,2,0
-20,-9,10,14,-15,0,-5,-7,0,-2,1,0
-20,-10,10,15,-15,0,-6,-8,-1,-3,1,-1
-21,-10,10,16,-15,0,-6,-10,-1,-4,0,-1
-23,-11,12,17,-17,1,-5,-11,-1,-4,1,0
-24,-10,14,17,-18,2,-4,-11,0,-4,2,1
-22,-8,13,14,-17,3,-4,-10,0,-4,2,1
-20,-7,11,13,-15,2,-5,-11,-2,-5,1,0
-20,-9,10,14,-14,0,-6,-11,-3,-6,0,-1
-20,-10,9,15,-14,-1,-6,-12,-4,-7,0,-1
-22,-11,10,17,-16,-1,-6,-11,-4,-7,0,-2
-24,-12,12,19,-18,0,-5,-10,-3,-6,0,-1
-26,-13,13,20,-20,0,-4,-11,-3,-7,-1,-1
-26,-14,12,20,-19,0,-5,-14,-4,-9,-2,-2
-25,-15,10,20,-17,-2,-6,-16,-5,-10,-3,-3
-25,-16,7,20,-15,-4,-7,-17,-6,-11,-4,-3
-24,-15,6,19,-14,-4,-6,-17,-6,-11,-4,-4
-22,-13,7,17,-14,-3,-5,-15,-5,-10,-2,-3
-20,-12,7,16,-13,-2,-5,-15,-4,-9,-2,-2
-20,-13,7,17,-13,-3,-6,-15,-4,-9,-2,-2
-22,-13,10,18,-16,-1,-5,-14,-4,-8,-2,-1
-25,-13,12,19,-19,0,-4,-13,-3,-8,-1,0
-26,-13,12,19,-19,0,-4,-11,-3,-8,-1,0
-24,-13,10,18,-17,-1,-5,-10,-3,-8,-1,-1
-23,-13,8,18,-16,-2,-5,-11,-4,-9,-2,-2
-23,-14,7,19,-15,-3,-5,-12,-4,-10,-2,-4
-23,-13,7,19,-15,-3,-5,-12,-4,-10,-2,-4
-23,-12,9,18,-16,-1,-5,-13,-4,-10,-2,-4
-23,-14,10,19,-16,-2,-6,-14,-5,-11,-3,-5
-26,-18,9,22,-18,-4,-8,-16,-6,-13,-5,-7
-29,-20,10,24,-19,-5,-9,-16,-7,-13,-5,-7
-29,-18,11,23,-20,-4,-8,-16,-6,-12,-4,-6
-28,-15,12,21,-20,-1,-6,-14,-5,-11,-2,-5
-27,-13,12,20,-19,0,-5,-13,-4,-10,-1,-4
-26,-13,10,20,-18,-1,-5,-14,-4,-10,-2,-5
-27,-15,10,21,-18,-2,-6,-15,-5,-11,-3,-6
-28,-15,12,22,-19,-1,-6,-15,-5,-11,-4,-7
-28,-15,13,21,-20,-1,-5,-14,-4,-10,-3,-6
-28,-14,14,21,-21,0,-3,-12,-3,-9,-2,-4
-29,-14,15,21,-22,0,-3,-10,-3,-8,-1,-3
-29,-13,15,21,-22,0,-3,-9,-2,-8,-1,-3
-30,-13,16,22,-23,1,-3,-9,-2,-7,-1,-2
-31,-13,17,23,-24,1,-3,-9,-1,-7,0,-2
-31,-13,17,23,-24,2,-3,-9,-1,-6,0,-2
-30,-14,16,23,-23,1,-3,-9,0,-6,0,-2
-29,-14,16,22,-22,1,-2,-8,0,-6,0,-2
-28,-13,15,20,-22,1,-2,-8,1,-6,0,-2
-26,-13,13,19,-19,0,-3,-10,0,-7,-1,-3
-25,-12,12,18,-19,0,-3,-9,0,-7,-1,-3
-25,-9,14,17,-20,2,-1,-7,1,-4,1,0
-24,-8,15,17,-20,3,-1,-5,1,-3,2,1
-24,-8,15,17,-20,4,-1,-4,2,-2,3,1
-24,-7,16,16,-20,5,0,-3,3,-1,4,1
-22,-6,15,14,-18,5,-1,-4,3,-1,4,1
-22,-7,15,14,-18,4,-1,-6,3,-2,3,1
-23,-7,16,14,-19,4,-1,-7,3,-3,3,0
-22,-6,15,13,-19,4,-1,-8,3,-3,3,0
-20,-5,14,12,-17,4,-1,-7,4,-3,3,0
-20,-4,15,12,-18,5,0,-4,5,-1,5,2
-22,-2,19,13,-20,8,0,-1,7,1,7,4
-21,0,21,12,-21,9,0,0,8,2,8,5
-19,0,18,10,-18,8,-2,-2,7,1,7,4
-17,-1,15,9,-16,7,-4,-3,6,0,6,3
-18,-1,15,9,-17,7,-5,-3,7,0,6,4
-18,-2,15,10,-17,6,-7,-4,6,0,6,5
-16,-2,13,9,-14,5,-9,-7,4,-2,4,4
-13,-1,11,7,-11,4,-10,-10,2,-4,3,4
-12,0,11,6,-11,5,-11,-10,2,-4,3,4
-13,0,13,6,-13,7,-9,-9,2,-2,4,6
-13,1,14,6,-13,7,-8,-9,3,-2,5,6
-12,2,14,5,-13,8,-7,-10,3,-2,5,6
-12,1,13,5,-13,7,-7,-11,2,-2,5,6
-12,1,13,5,-13,7,-6,-11,2,-3,5,6
-12,1,13,5,-13,7,-6,-11,2,-3,5,6
-10,2,12,4,-11,7,-6,-11,1,-4,4,5
-8,1,9,4,-9,5,-8,-12,-1,-5,2,3
-9,-1,8,6,-8,3,-9,-14,-3,-8,0,0
-11,-3,8,8,-10,2,-9,-15,-4,-9,-1,0
-15,-4,10,10,-13,3,-8,-15,-4,-9,-1,0
-16,-3,13,9,-15,5,-6,-14,-4,-9,0,0
-15,-1,13,8,-14,6,-5,-14,-4,-9,0,0
-14,-1,12,8,-14,5,-4,-14,-4,-9,-1,0
-16,-3,13,9,-15,5,-2,-13,-3,-9,-1,0
-17,-2,13,9,-15,5,-1,-13,-3,-9,-1,0
-14,-2,12,8,-13,4,-1,-15,-3,-10,-2,-1
-12,-3,9,7,-10,3,-1,-16,-4,-12,-2,-2
-13,-4,8,8,-10,2,-1,-17,-5,-13,-3,-3
-13,-6,7,9,-10,1,-1,-19,-6,-14,-4,-4
-13,-7,5,10,-9,0,-2,-20,-8,-15,-5,-5
-13,-7,5,10,-9,0,-2,-20,-9,-15,-6,-5
-15,-6,8,10,-12,1,-1,-19,-8,-15,-5,-4
-17,-6,9,11,-14,1,-1,-18,-8,-14,-5,-4
-19,-6,11,13,-15,2,-1,-18,-8,-14,-5,-4
-20,-7,11,14,-16,1,-1,-18,-9,-15,-5,-4
-18,-8,10,13,-14,0,-2,-19,-9,-15,-5,-5
-17,-8,9,12,-14,0,-2,-19,-9,-15,-5,-4
-18,-7,11,12,-14,1,-1,-19,-8,-15,-4,-3
-18,-7,11,12,-14,2,0,-19,-8,-15,-5,-3
-18,-7,11,12,-14,2,0,-20,-8,-15,-5,-3
-18,-7,11,13,-14,2,0,-20,-9,-16,-5,-3
-20,-8,11,14,-15,1,0,-20,-9,-16,-5,-4
-22,-9,12,16,-17,1,0,-20,-10,-16,-5,-4
-23,-10,12,16,-18,0,-1,-20,-10,-16,-5,-4
-22,-10,11,16,-17,0,-1,-20,-10,-16,-5,-4
-21,-10,11,15,-16,0,0,-22,-10,-17,-5,-4
-21,-11,10,16,-16,0,0,-23,-10,-17,-5,-4
-21,-12,8,16,-14,-2,-2,-25,-11,-18,-6,-5
-20,-13,6,16,-13,-3,-3,-26,-12,-19,-7,-6
-20,-12,7,16,-14,-2,-2,-25,-12,-18,-7,-6
-22,-10,11,16,-16,0,0,-22,-10,-17,-6,-5
-21,-9,12,15,-17,1,0,-21,-10,-16,-5,-5
-19,-9,11,14,-15,0,0,-20,-10,-16,-5,-5
-19,-9,10,14,-14,0,0,-19,-11,-16,-5,-4
-19,-8,10,13,-14,0,0,-18,-11,-15,-5,-4
-19,-8,9,13,-14,0,0,-17,-11,-15,-5,-3
-18,-9,8,13,-13,0,-1,-19,-12,-16,-6,-4
-18,-10,6,14,-12,-1,-2,-20,-13,-17,-6,-5
-19,-10,8,15,-13,-1,-3,-20,-12,-17,-6,-5
-20,-10,10,15,-15,0,-2,-20,-12,-16,-5,-4
-21,-11,11,16,-16,0,-1,-20,-11,-16,-4,-4
-22,-11,12,17,-17,0,-1,-20,-11,-16,-4,-4
-24,-12,12,18,-18,0,0,-20,-11,-17,-5,-4
-24,-12,12,18,-18,0,0,-19,-11,-17,-5,-4
-26,-12,13,19,-20,1,0,-19,-10,-17,-5,-4
-30,-12,17,21,-23,2,1,-19,-9,-16,-4,-3
-32,-11,20,21,-26,4,4,-17,-5,-14,-1,-1
-30,-7,22,19,-26,7,6,-15,-2,-12,1,0
-29,-6,23,18,-26,7,8,-14,0,-11,2,0
-30,-7,23,18,-27,7,9,-11,1,-9,4,1
-31,-7,23,19,-27,7,9,-6,4,-5,6,2
-30,-7,22,18,-26,7,8,0,7,0,10,6
-28,-7,21,17,-24,7,8,7,12,8,15,11
-25,-5,19,15,-22,7,6,13,17,17,20,17
-19,-4,14,12,-16,5,3,16,19,24,24,22
-10,-4,4,7,-7,0,-3,15,18,29,26,27
2,-4,-7,1,4,-6,-13,7,13,31,26,31
13,-2,-16,-5,14,-10,-23,-4,5,31,26,36
21,1,-21,-11,20,-10,-32,-19,-3,30,27,42
26,4,-23,-15,24,-10,-40,-36,-13,27,27,47
31,6,-25,-18,28,-9,-47,-54,-25,19,24,49
35,7,-29,-21,33,-10,-55,-72,-38,11,20,49
42,7,-35,-24,39,-13,-63,-90,-52,0,14,49
51,7,-44,-28,48,-18,-73,-108,-69,-13,5,46
59,6,-53,-32,56,-24,-81,-127,-88,-31,-7,40
63,4,-58,-33,60,-28,-88,-147,-107,-51,-20,31
60,0,-60,-30,60,-30,-92,-166,-123,-72,-34,18
55,-6,-62,-24,59,-35,-93,-179,-138,-93,-51,0
52,-15,-68,-18,61,-42,-94,-186,-152,-112,-71,-21
49,-25,-75,-12,63,-50,-95,-191,-163,-129,-89,-42
47,-33,-80,-7,64,-56,-97,-195,-171,-144,-104,-58
46,-39,-85,-3,66,-62,-97,-194,-175,-153,-114,-70
43,-47,-90,2,67,-69,-94,-188,-174,-158,-121,-79
40,-55,-96,8,67,-76,-90,-180,-172,-160,-126,-88
37,-61,-99,13,67,-81,-84,-168,-166,-158,-128,-95
32,-65,-97,16,64,-81,-77,-155,-158,-152,-127,-97
26,-67,-94,20,60,-81,-70,-142,-149,-144,-124,-96
19,-69,-89,25,54,-79,-63,-129,-138,-134,-118,-94
10,-68,-80,28,45,-73,-55,-115,-125,-121,-108,-87
2,-64,-66,31,34,-65,-47,-101,-109,-107,-96,-78
-5,-58,-54,32,24,-56,-40,-88,-94,-93,-83,-68
-9,-53,-44,31,17,-49,-34,-76,-80,-80,-71,-59
-13,-47,-34,31,10,-41,-28,-63,-67,-67,-59,-50
-18,-42,-25,30,3,-34,-23,-51,-56,-56,-50,-43
-20,-39,-18,30,-1,-29,-19,-41,-47,-47,-42,-38
-22,-37,-14,29,-3,-25,-16,-33,-40,-40,-37,-34
-24,-35,-11,29,-6,-22,-13,-27,-33,-33,-32,-30
-26,-34,-8,29,-8,-20,-9,-22,-28,-28,-27,-27
-27,-32,-6,29,-10,-19,-6,-17,-23,-24,-24,-25
-29,-32,-3,31,-13,-18,-3,-13,-19,-20,-20,-22
-34,-33,0,34,-17,-17,0,-8,-15,-16,-17,-20
-36,-34,2,35,-19,-16,1,-5,-12,-13,-15,-19
-36,-34,2,35,-19,-16,3,-3,-10,-11,-13,-18
-37,-34,3,35,-20,-15,4,0,-9,-9,-12,-17
-39,-34,4,36,-21,-14,5,1,-7,-8,-12,-17
-39,-35,4,37,-21,-15,6,2,-7,-7,-11,-17
-40,-35,4,38,-22,-15,5,3,-6,-7,-11,-16
-40,-35,4,38,-22,-15,5,4,-5,-6,-10,-15
-40,-34,5,38,-23,-15,6,4,-4,-5,-9,-14
-41,-34,6,38,-24,-14,6,5,-3,-4,-8,-14
-42,-35,7,39,-25,-14,6,6,-3,-4,-8,-14
-43,-36,6,39,-24,-15,6,6,-3,-3,-8,-14
-43,-36,6,39,-24,-14,6,7,-2,-3,-8,-14
-43,-36,6,39,-24,-14,7,8,-2,-2,-8,-14
-44,-37,7,40,-25,-15,7,8,-1,-1,-8,-14
-47,-38,7,43,-27,-15,6,7,-1,-2,-8,-15
-48,-39,8,44,-28,-16,5,7,-1,-2,-8,-15
-49,-39,9,45,-29,-15,5,8,-1,-2,-7,-14
-48,-38,9,43,-28,-15,6,9,0,-1,-6,-13
-45,-35,8,40,-26,-14,7,10,0,0,-5,-12
-44,-33,9,38,-26,-12,8,11,1,0,-5,-12
-44,-33,10,38,-27,-11,8,12,1,1,-5,-12
-46,-34,11,39,-28,-11,8,12,2,1,-5,-12
-47,-34,11,40,-29,-10,8,12,3,2,-4,-12
-45,-33,10,39,-27,-11,8,11,3,1,-4,-12
-44,-34,9,39,-26,-12,7,11,3,1,-4,-13
-48,-37,10,43,-29,-13,6,10,2,0,-4,-13
-50,-39,11,44,-30,-13,5,11,2,1,-5,-13
-48,-37,11,42,-28,-13,5,12,3,2,-4,-13
-47,-34,12,40,-29,-11,6,13,4,3,-4,-12
-47,-33,13,40,-30,-10,7,14,5,4,-4,-12
-46,-33,13,40,-30,-10,7,15,5,4,-4,-12
-45,-32,13,39,-29,-10,7,16,6,5,-3,-12
-45,-32,13,39,-29,-10,7,17,7,6,-2,-11
-45,-31,13,38,-29,-9,7,17,8,6,-2,-11
-44,-31,12,37,-28,-9,7,18,8,7,-1,-11
-42,-31,12,36,-27,-9,7,19,8,7,-1,-11
-41,-31,11,36,-26,-10,7,19,8,8,-1,-11
-41,-32,9,36,-25,-11,8,20,8,8,-1,-11
-42,-33,8,38,-25,-12,8,21,9,9,-1,-10
-43,-34,8,39,-26,-13,7,22,9,10,-1,-10
-43,-34,8,39,-25,-13,7,22,9,10,0,-10
-43,-34,8,39,-25,-13,8,23,10,11,1,-10
-43,-33,10,38,-26,-11,9,25,11,12,2,-9
-42,-31,12,36,-27,-9,9,27,13,14,2,-8
-41,-30,11,35,-26,-8,8,27,13,15,2,-8
-40,-30,10,34,-24,-9,8,27,14,15,2,-8
-39,-29,9,33,-23,-10,10,28,15,17,3,-7
-38,-27,10,32,-23,-8,11,30,17,19,5,-6
-37,-25,11,31,-24,-7,12,32,18,21,7,-4
-36,-25,11,30,-23,-7,12,33,19,21,7,-4
-36,-26,10,31,-23,-7,10,34,19,21,8,-5
-37,-27,11,32,-25,-7,10,34,19,22,8,-5
-39,-27,13,33,-26,-7,10,36,20,24,8,-4
-39,-26,13,33,-26,-6,11,37,21,25,9,-4
-39,-26,13,32,-26,-6,11,38,22,25,9,-3
-38,-26,12,32,-25,-7,11,39,23,26,9,-3
-38,-26,11,31,-25,-7,11,39,24,26,10,-2
-38,-26,11,32,-25,-7,11,40,24,27,10,-2
-38,-26,11,32,-25,-7,11,41,25,28,11,-2
-38,-25,12,32,-25,-6,12,43,26,30,12,-1
-37,-24,13,30,-24,-5,13,45,27,32,13,0
-37,-23,13,30,-25,-5,13,46,28,33,14,0
-39,-24,14,31,-26,-5,12,47,29,34,14,0
-39,-25,13,32,-25,-6,12,47,29,34,14,0
-36,-25,10,30,-22,-7,11,47,29,34,14,0
-33,-24,8,28,-20,-8,12,47,30,34,14,0
-31,-23,6,27,-19,-8,12,47,30,34,14,0
-30,-23,7,27,-18,-7,13,47,32,35,15,0
-31,-22,9,26,-19,-7,13,48,33,36,16,1
-31,-21,10,26,-20,-6,13,48,34,37,17,2
-33,-21,12,27,-22,-5,14,49,35,38,18,3
-34,-21,13,27,-23,-5,14,50,36,39,19,3
-33,-21,11,27,-22,-5,14,51,36,40,19,4
-34,-21,12,28,-22,-5,14,54,37,41,20,5
-35,-21,13,28,-24,-4,15,57,39,43,21,6
-35,-21,13,28,-24,-3,15,57,39,43,22,6
-34,-22,12,28,-24,-4,14,57,38,43,21,5
-33,-22,12,28,-23,-4,14,56,38,43,21,5
-32,-21,12,27,-23,-4,14,56,38,43,21,6
-33,-21,12,27,-23,-4,13,55,38,42,21,6
-33,-21,13,27,-23,-4,13,54,38,42,22,6
-31,-19,12,25,-22,-3,14,54,38,43,23,7
-29,-17,11,23,-20,-2,14,54,39,43,23,8
-27,-16,11,22,-19,-2,14,54,39,43,23,8
-27,-15,12,22,-20,-1,14,53,38,43,23,9
-27,-15,13,21,-20,0,14,52,38,42,24,9
-27,-14,15,20,-21,1,14,50,37,42,24,10
-27,-12,16,19,-22,2,14,48,37,41,25,10
-28,-12,16,20,-22,1,13,45,36,39,24,10
-27,-12,14,20,-21,1,13,42,34,37,23,9
-26,-11,13,18,-20,1,12,38,33,35,23,9
-25,-10,13,18,-19,1,11,35,31,33,22,9
-27,-11,15,20,-21,2,10,33,29,31,21,9
-29,-12,17,21,-22,2,9,31,28,30,21,10
-27,-12,16,20,-21,2,8,29,27,28,20,10
-25,-11,14,18,-20,1,8,26,25,26,19,10
-24,-10,15,17,-20,2,8,25,24,24,19,10
-25,-9,16,17,-21,3,8,23,22,23,19,11
-25,-8,16,17,-21,3,7,20,20,21,19,12
-23,-7,15,16,-20,4,6,17,18,18,18,12
-21,-7,14,14,-18,4,5,14,16,16,17,11
-18,-6,14,12,-16,4,5,11,14,15,16,10
-16,-5,13,11,-15,4,4,8,12,13,15,10
-16,-4,14,10,-15,5,4,7,11,12,14,10
-17,-3,15,10,-17,6,4,7,10,11,13,10
-18,-2,16,10,-17,6,4,5,9,9,13,9
-17,-2,14,9,-16,6,3,2,7,6,11,8
-16,-3,13,10,-15,4,3,-1,5,3,10,7
-17,-5,12,12,-15,4,2,-4,4,1,8,6
-17,-6,11,13,-15,3,1,-6,2,0,7,5
-17,-7,10,12,-14,2,0,-8,0,-2,6,4
-18,-9,10,14,-14,1,-1,-10,-2,-4,4,3
-21,-10,11,16,-16,0,-2,-11,-3,-5,3,2
-23,-10,13,16,-18,1,-2,-11,-3,-5,3,3
-22,-8,14,15,-18,2,-2,-11,-3,-6,3,3
-21,-6,14,14,-18,3,-2,-11,-3,-6,4,3
-20,-6,13,13,-17,4,-1,-12,-4,-7,3,3
-17,-6,11,12,-14,3,-1,-14,-4,-9,2,2
-16,-6,10,11,-13,2,0,-16,-4,-9,2,2
-18,-5,13,12,-15,4,1,-16,-4,-9,2,3
-19,-5,15,12,-16,5,2,-16,-4,-8,3,4
-20,-5,15,12,-17,5,1,-16,-5,-8,3,4
-19,-5,14,11,-16,4,-1,-16,-6,-9,2,3
-17,-5,12,10,-15,3,-2,-17,-6,-10,1,2
-17,-5,12,11,-15,4,-1,-18,-6,-10,1,3
-17,-5,12,11,-15,4,0,-18,-6,-10,2,4
-14,-4,11,10,-13,4,0,-18,-6,-10,2,4
-13,-3,11,9,-12,4,1,-17,-6,-9,2,5
-15,-4,11,10,-13,4,1,-15,-5,-8,3,5
-15,-5,10,10,-13,2,1,-15,-6,-9,2,4
-14,-5,8,9,-12,1,0,-16,-6,-9,2,3
-15,-5,10,9,-13,2,1,-15,-6,-9,2,3
-17,-4,12,10,-15,3,2,-14,-5,-8,3,4
-16,-5,11,11,-14,3,2,-12,-5,-7,4,5
-14,-5,9,10,-11,2,2,-12,-6,-7,3,4
-14,-6,9,11,-11,1,2,-12,-6,-8,2,4
-15,-7,9,12,-12,1,2,-13,-5,-8,2,4
-16,-8,9,13,-12,0,2,-13,-4,-8,3,4
-17,-8,8,13,-12,0,2,-14,-4,-8,3,4
-16,-8,7,11,-12,0,2,-13,-3,-7,3,4
-12,-6,5,8,-9,0,3,-13,-3,-7,4,5
-10,-5,4,7,-7,0,4,-12,-3,-6,4,5
-12,-6,5,9,-8,0,5,-11,-2,-6,5,6
-13,-7,6,11,-10,0,5,-10,-2,-5,5,6
-11,-7,5,9,-8,-1,6,-10,-2,-5,5,6
-7,-5,2,6,-5,-1,6,-10,-1,-5,5,6
-3,-3,0,3,-2,-1,6,-9,-1,-5,5,6
-1,-2,0,1,-1,0,6,-8,0,-4,7,7
-1,0,1,0,-2,1,8,-7,2,-2,9,9
-1,1,3,0,-3,2,9,-6,4,-1,10,11
0,2,3,0,-2,2,10,-5,5,0,11,11
0,1,2,0,-2,1,11,-5,5,0,11,11
-1,1,2,1,-2,1,12,-5,5,0,11,12
-1,1,2,0,-1,2,13,-4,6,1,13,13
1,3,1,-1,0,2,13,-3,7,2,14,14
2,3,0,-3,1,1,13,-2,8,3,14,14
2,2,0,-3,1,1,13,-2,8,3,14,14
3,3,0,-3,1,1,14,-1,8,4,14,14
3,4,1,-4,1,2,15,1,9,5,15,15
4,5,2,-4,1,3,16,3,11,7,17,17
4,6,2,-4,1,3,17,5,12,8,18,18
3,5,2,-4,1,3,17,5,12,8,18,18
2,3,1,-3,1,2,16,5,13,8,17,18
5,4,-1,-5,3,2,15,5,13,8,17,18
7,5,-2,-6,4,1,15,4,13,8,17,17
6,4,-2,-6,4,1,15,3,14,8,17,17
6,5,-1,-5,3,1,16,3,15,9,18,18
8,6,-2,-7,5,1,16,5,15,9,19,19
11,6,-4,-8,7,1,16,7,16,10,20,19
11,6,-4,-8,8,1,17,8,16,11,20,19
10,5,-4,-7,7,1,16,9,17,11,21,20
9,4,-5,-6,7,0,16,8,16,11,21,20
10,3,-7,-6,8,-2,15,8,16,11,21,20
11,3,-8,-7,9,-3,15,8,16,12,22,21
11,2,-8,-6,9,-3,14,7,16,12,23,22
10,1,-7,-5,8,-4,13,7,16,12,23,22
9,1,-7,-4,8,-4,12,6,15,12,23,23
10,1,-8,-5,9,-4,11,5,15,12,23,23
13,1,-11,-7,12,-4,10,3,14,12,22,23
15,0,-14,-8,15,-6,10,2,13,11,21,23
12,-1,-13,-6,13,-6,10,3,13,11,21,23
7,-3,-10,-3,8,-6,11,4,13,12,21,24
6,-4,-10,-1,7,-8,12,4,13,11,21,23
6,-6,-13,0,9,-11,12,2,12,10,20,22
7,-8,-15,1,10,-13,11,1,11,9,19,21
7,-9,-17,2,11,-14,11,0,9,8,18,20
8,-9,-18,1,13,-14,10,0,8,7,17,20
9,-9,-18,0,14,-14,10,0,7,7,17,20
6,-10,-16,1,11,-13,12,2,8,8,17,20
3,-12,-15,4,9,-14,13,3,9,8,17,20
2,-14,-15,5,8,-15,14,2,8,7,16,20
1,-15,-15,7,8,-15,15,1,7,6,16,19
0,-16,-15,9,7,-16,15,0,6,5,15,18
-2,-18,-16,11,7,-18,15,0,5,4,15,17
-4,-20,-17,13,6,-19,15,-1,4,3,14,16
-3,-21,-18,13,7,-19,16,-1,4,2,14,16
-2,-21,-18,11,8,-19,17,-1,4,2,14,16
-2,-22,-19,12,8,-20,16,-2,3,1,12,15
-4,-25,-19,14,7,-22,14,-3,1,-1,10,13
-6,-26,-19,16,6,-23,13,-4,0,-2,9,12
-7,-27,-19,17,5,-23,13,-5,0,-2,9,12
-8,-27,-19,18,5,-24,12,-5,0,-3,8,11
-8,-27,-19,18,5,-24,12,-5,-1,-3,8,11
-8,-27,-19,18,6,-24,12,-6,-2,-4,7,11
-9,-28,-19,18,5,-23,12,-6,-3,-4,7,11
-9,-28,-18,18,4,-23,13,-6,-3,-4,7,11
-8,-27,-18,17,5,-23,12,-6,-3,-5,6,11
-7,-26,-18,16,5,-23,11,-8,-4,-6,6,10
-7,-26,-19,17,5,-23,10,-9,-6,-7,4,8
-8,-27,-18,18,5,-23,10,-10,-6,-8,4,8
-10,-27,-17,19,3,-22,11,-10,-6,-8,4,8
-11,-27,-16,19,3,-22,11,-10,-7,-9,4,8
-10,-27,-17,19,3,-22,10,-12,-8,-10,3,7
-9,-26,-17,17,4,-22,9,-12,-9,-11,2,7
-8,-25,-16,16,4,-21,9,-12,-9,-11,2,6
-8,-24,-15,16,3,-20,9,-11,-10,-11,1,6
-9,-23,-13,15,2,-19,9,-11,-10,-11,1,6
-9,-20,-12,14,1,-17,9,-11,-9,-11,1,6
-7,-16,-10,12,1,-14,10,-11,-9,-11,1,6
-5,-14,-9,10,2,-12,10,-11,-9,-11,1,6
-4,-12,-9,9,2,-10,10,-12,-9,-12,1,6
-4,-10,-7,7,1,-8,11,-12,-9,-12,1,6
-2,-8,-5,5,1,-6,11,-12,-8,-12,2,7
0,-5,-4,2,2,-5,12,-11,-8,-11,3,8
2,-2,-4,0,3,-4,12,-10,-8,-11,3,8
2,-1,-3,0,2,-2,11,-10,-9,-12,2,7
3,1,-1,-2,2,0,11,-10,-9,-12,2,7
7,6,-1,-6,3,2,12,-9,-8,-11,3,8
11,10,-1,-10,5,4,12,-8,-7,-10,3,9
13,12,0,-12,6,6,13,-7,-7,-10,3,9
13,13,1,-13,6,7,13,-7,-6,-10,4,9
13,15,2,-14,5,8,14,-6,-6,-10,4,9
14,17,3,-15,5,9,15,-7,-6,-11,4,9
15,19,4,-17,5,11,15,-7,-5,-11,4,9
14,21,6,-18,4,14,16,-7,-4,-11,5,9
13,24,10,-19,2,17,18,-7,-2,-11,6,10
14,28,14,-21,0,21,20,-5,0,-10,7,10
15,32,16,-23,0,24,22,-3,3,-8,9,11
15,34,19,-25,-2,27,24,0,6,-6,12,13
14,35,21,-25,-4,28,25,4,9,-4,14,14
14,35,21,-25,-3,28,25,8,11,-1,16,16
16,36,20,-26,-2,27,24,13,15,4,19,19
20,39,19,-29,0,28,24,21,20,12,24,24
25,42,16,-33,4,29,23,27,24,20,29,29
32,44,12,-38,10,28,19,30,27,28,33,35
40,46,6,-43,17,27,14,30,28,34,37,42
47,47,0,-47,23,25,6,24,24,39,40,49
52,48,-3,-50,27,23,-3,13,16,41,42,56
57,51,-6,-54,32,22,-13,-3,6,40,43,63
65,55,-10,-60,38,22,-22,-22,-5,38,43,69
73,60,-14,-67,44,22,-30,-40,-18,32,41,72
81,63,-18,-72,50,22,-39,-57,-32,25,37,72
88,63,-25,-76,56,19,-49,-74,-46,17,31,72
96,63,-33,-79,64,15,-60,-89,-62,6,23,71
104,62,-42,-83,72,11,-68,-105,-79,-8,13,67
108,61,-48,-84,78,7,-74,-123,-96,-26,0,59
107,56,-51,-81,79,3,-78,-139,-112,-47,-14,46
104,48,-56,-76,80,-4,-80,-152,-126,-68,-32,27
102,38,-64,-70,83,-13,-81,-160,-140,-88,-53,4
100,28,-72,-64,86,-22,-82,-165,-151,-106,-72,-17
96,18,-78,-57,87,-30,-83,-168,-158,-120,-87,-34
93,9,-84,-51,88,-37,-81,-166,-160,-130,-98,-48
92,4,-89,-48,90,-42,-77,-158,-159,-135,-105,-58
93,-1,-94,-45,93,-47,-70,-147,-155,-136,-111,-66
91,-6,-98,-42,94,-51,-64,-134,-150,-134,-114,-73
85,-10,-97,-37,91,-53,-56,-122,-142,-129,-114,-76
79,-12,-92,-33,86,-52,-49,-111,-132,-121,-109,-76
72,-11,-84,-30,78,-48,-41,-98,-119,-111,-102,-72
64,-9,-73,-28,69,-42,-33,-87,-105,-100,-92,-66
57,-7,-63,-26,60,-35,-27,-77,-92,-88,-81,-60
52,-2,-52,-25,52,-27,-21,-66,-78,-76,-69,-53
48,3,-43,-25,45,-19,-16,-54,-64,-63,-57,-45
43,8,-34,-25,38,-11,-10,-41,-51,-51,-46,-37
36,12,-24,-23,30,-5,-5,-29,-39,-40,-36,-31
30,15,-15,-22,23,0,0,-19,-29,-30,-28,-26
27,18,-9,-22,18,4,5,-9,-20,-20,-21,-22
24,20,-4,-22,14,7,9,-2,-12,-13,-15,-18
23,21,-2,-23,12,9,12,3,-6,-7,-9,-15
22,22,0,-22,11,11,14,8,-1,-2,-5,-13
21,22,1,-21,9,12,16,12,3,1,-1,-11
19,22,3,-20,7,13,18,15,6,4,2,-10
17,23,5,-19,6,14,19,18,9,7,4,-9
16,23,6,-19,5,15,21,20,11,10,5,-8
17,24,7,-20,5,15,22,22,13,12,6,-8
16,24,8,-20,4,16,23,23,14,14,8,-7
13,23,10,-19,1,16,23,24,16,15,9,-7
11,22,11,-17,0,17,23,25,17,17,11,-6
11,22,10,-17,0,17,23,25,18,17,12,-6
13,22,10,-17,1,17,23,25,18,18,12,-5
14,23,10,-18,2,17,23,26,19,18,12,-4
12,24,11,-18,1,18,24,28,20,20,13,-3
10,24,13,-17,-1,18,25,29,21,22,13,-1
8,23,14,-16,-2,18,26,30,22,23,13,0
7,21,14,-15,-2,17,25,30,22,23,13,1
9,21,13,-16,-1,16,25,30,23,23,13,2
12,23,11,-17,0,17,26,31,24,23,14,5
13,24,11,-18,0,18,26,31,25,24,15,7
12,24,12,-18,0,18,27,32,25,24,15,9
11,24,13,-18,-1,19,27,32,26,24,14,10
11,24,13,-18,-1,19,27,33,26,24,14,11
11,25,13,-19,0,19,27,33,26,24,14,12
12,26,13,-20,0,20,27,34,26,24,14,12
12,25,12,-19,0,19,26,34,26,24,14,12
13,24,11,-19,1,18,26,35,27,25,14,12
13,24,11,-18,1,18,26,35,27,25,14,12
13,25,12,-19,0,19,26,36,27,25,14,13
12,25,13,-19,0,19,25,37,28,25,14,13
11,25,13,-18,0,19,25,37,28,26,14,13
12,25,13,-19,0,19,25,38,28,26,14,13
13,26,13,-20,0,20,26,38,29,27,14,13
14,27,12,-21,1,20,26,39,30,27,14,12
15,26,11,-21,2,19,26,39,31,27,14,12
15,26,11,-20,2,19,27,40,31,27,14,11
15,26,11,-20,2,19,26,40,31,27,14,10
15,26,11,-21,2,19,26,41,32,28,14,9
15,26,11,-21,2,19,26,41,32,28,14,8
13,25,12,-19,1,18,25,41,32,28,14,8
12,24,12,-19,0,18,25,42,32,29,15,7
12,25,12,-19,1,18,26,43,33,30,15,7
13,26,12,-20,1,19,26,44,33,30,16,7
13,26,12,-20,1,19,25,44,34,30,16,7
13,25,12,-19,0,19,24,44,34,30,15,6
14,26,12,-20,0,19,24,45,34,31,15,6
14,28,14,-21,0,21,24,47,35,32,16,7
15,29,14,-23,1,21,25,48,37,32,17,7
16,30,14,-23,1,21,25,48,37,33,18,7
15,29,15,-23,1,21,25,47,38,33,18,7
13,29,16,-21,0,22,25,47,38,34,19,8
13,29,16,-21,-1,22,25,49,39,35,20,8
13,29,16,-21,-1,22,25,51,39,36,20,8
12,29,16,-21,-1,22,24,52,39,37,20,8
12,28,16,-20,-2,22,24,53,39,38,20,8
12,28,16,-20,-1,22,24,54,40,39,20,8
13,29,16,-21,-1,22,23,54,40,39,20,8
14,29,16,-22,-1,23,23,55,40,40,21,8
13,29,16,-22,-1,23,23,57,41,41,21,9
13,29,16,-22,-1,23,23,58,42,42,22,9
13,29,16,-21,-1,23,23,59,43,42,22,9
12,29,17,-21,-2,23,23,59,44,43,22,9
11,29,18,-20,-3,24,22,60,44,43,22,9
10,29,18,-19,-4,24,22,61,45,43,22,9
10,29,18,-19,-3,23,21,61,45,44,23,9
10,28,17,-19,-3,22,21,62,45,44,23,9
9,28,18,-19,-4,23,21,62,45,45,24,9
8,28,20,-18,-5,24,21,63,46,46,24,10
9,28,19,-19,-5,24,21,64,46,46,24,9
10,27,17,-19,-3,23,19,64,45,46,24,8
9,25,16,-17,-3,21,18,63,45,45,23,8
7,24,17,-16,-5,21,18,64,46,46,24,8
5,25,18,-15,-6,21,18,66,47,47,25,9
7,26,18,-16,-5,22,18,67,47,48,25,9
8,26,18,-17,-5,22,18,67,48,48,25,9
7,26,20,-17,-6,23,18,68,48,48,25,9
5,26,22,-16,-8,24,18,68,48,48,25,9
4,27,23,-16,-9,25,18,68,49,49,25,9
5,26,22,-16,-8,24,17,67,50,49,25,9
7,26,20,-17,-6,23,17,67,50,49,25,9
7,27,19,-17,-5,23,16,67,50,49,26,10
6,27,20,-17,-7,23,16,67,50,49,26,10
4,26,21,-16,-8,24,16,67,50,49,26,10
4,26,21,-15,-8,24,15,67,50,49,25,10
3,25,22,-15,-9,24,15,66,50,48,25,10
3,25,22,-14,-10,24,15,65,50,48,25,10
2,25,23,-13,-11,24,15,63,50,47,25,10
1,25,24,-13,-12,25,14,61,50,46,25,10
1,25,24,-13,-11,25,13,59,49,45,25,10
3,26,23,-15,-10,24,13,57,49,44,25,11
5,26,22,-16,-8,24,12,56,48,44,25,11
4,26,22,-15,-8,24,12,55,47,43,25,11
3,25,23,-14,-9,24,11,53,45,41,24,11
2,25,24,-13,-10,25,11,51,44,40,24,11
2,27,25,-15,-11,26,11,50,44,40,24,12
2,28,26,-16,-11,27,11,48,43,38,24,13
3,28,25,-16,-11,26,9,44,41,36,23,12
2,27,24,-15,-11,25,8,41,39,33,22,12
2,26,24,-15,-11,25,7,37,38,31,21,11
2,26,24,-14,-11,25,6,34,37,29,20,11
1,25,24,-13,-11,24,6,30,35,27,19,10
1,24,23,-13,-11,23,5,27,33,25,18,10
0,24,24,-12,-12,24,5,25,31,23,17,10
0,24,24,-12,-12,24,4,22,29,20,16,9
0,23,23,-11,-12,23,2,19,26,17,14,8
0,22,22,-11,-11,22,1,17,24,15,13,7
0,22,22,-11,-11,22,0,14,22,12,11,7
0,21,21,-11,-10,21,0,11,21,10,9,6
-2,20,22,-10,-12,21,0,9,20,9,8,5
-4,19,23,-8,-14,21,0,7,18,7,7,5
-4,18,23,-7,-14,20,-1,4,16,5,6,4
-5,17,22,-6,-14,20,-3,2,14,2,5,3
-6,16,23,-5,-15,19,-4,0,12,0,4,2
-8,14,23,-3,-15,19,-4,-1,10,-1,3,2
-8,13,22,-3,-14,18,-5,-3,9,-3,2,1
-6,12,19,-3,-12,16,-5,-5,8,-4,0,0
-7,12,19,-2,-12,15,-5,-6,7,-5,0,0
-7,12,20,-2,-13,16,-5,-7,6,-6,-1,0
-8,12,20,-2,-14,16,-5,-8,6,-7,-1,-1
-9,11,20,-1,-14,15,-6,-9,5,-8,-2,-2
-10,11,21,-1,-15,16,-6,-10,4,-9,-2,-2
-10,11,21,0,-16,16,-7,-11,3,-9,-2,-2
-11,10,21,0,-16,16,-7,-11,3,-10,-3,-2
-11,9,20,1,-16,15,-7,-13,2,-11,-3,-3
-12,7,19,2,-16,14,-7,-14,1,-12,-4,-3
-13,6,19,3,-16,13,-7,-15,1,-12,-5,-4
-13,6,19,3,-16,13,-7,-16,1,-13,-5,-4
-14,5,19,4,-16,12,-8,-17,0,-14,-5,-4
-16,3,18,6,-17,10,-9,-18,-1,-15,-6,-5
-18,0,18,8,-18,9,-10,-19,-3,-16,-7,-7
-19,0,18,9,-18,8,-10,-19,-4,-16,-7,-7
-19,0,17,9,-17,8,-9,-19,-4,-16,-8,-7
-19,-1,17,9,-17,8,-9,-19,-4,-16,-8,-7
-19,-1,17,9,-17,8,-10,-19,-5,-17,-9,-7
-20,-3,16,10,-18,7,-10,-19,-6,-18,-10,-8
-22,-5,17,12,-19,6,-11,-20,-7,-18,-11,-9
-24,-5,18,14,-21,6,-12,-20,-7,-19,-11,-10
-25,-6,19,15,-22,6,-12,-21,-8,-19,-11,-10
-26,-8,17,16,-21,5,-12,-21,-9,-19,-12,-10
-26,-9,16,17,-21,4,-13,-21,-10,-20,-12,-11
-25,-8,16,17,-20,4,-13,-21,-10,-20,-12,-11
-25,-8,16,16,-20,4,-12,-21,-10,-20,-11,-10
-25,-8,17,17,-21,5,-12,-21,-10,-20,-11,-10
-27,-8,18,18,-22,5,-13,-21,-10,-19,-12,-11
-28,-8,19,18,-23,5,-14,-21,-11,-20,-12,-11
-28,-9,19,19,-23,4,-14,-21,-12,-20,-13,-12
-28,-10,17,19,-22,3,-15,-21,-12,-21,-13,-12
-27,-11,15,19,-21,2,-15,-22,-12,-21,-14,-13
-29,-12,16,20,-22,2,-14,-22,-12,-21,-14,-13
-29,-12,17,20,-22,3,-14,-23,-12,-21,-14,-13
-29,-12,17,20,-22,2,-14,-23,-12,-22,-14,-13
-29,-12,17,21,-22,2,-14,-22,-12,-21,-14,-13
-30,-12,18,21,-23,2,-13,-20,-11,-20,-13,-12
-32,-13,18,22,-24,2,-12,-20,-11,-20,-13,-12
-33,-14,18,23,-25,1,-13,-20,-11,-20,-14,-12
-33,-14,18,23,-25,1,-13,-18,-11,-19,-13,-12
-31,-12,17,21,-24,2,-12,-17,-10,-17,-12,-11
-28,-11,16,19,-22,3,-12,-17,-10,-17,-12,-10
-26,-10,16,17,-20,3,-11,-16,-9,-16,-11,-10
-25,-8,17,16,-21,5,-10,-15,-8,-15,-10,-8
-25,-6,18,15,-21,6,-8,-13,-6,-13,-8,-7
-23,-4,18,13,-21,7,-7,-11,-5,-12,-7,-6
-21,-2,19,12,-21,8,-6,-10,-4,-11,-5,-5
-22,-1,20,11,-21,9,-6,-9,-3,-11,-5,-4
-22,-1,20,11,-21,9,-6,-9,-4,-11,-5,-4
-20,0,18,10,-19,9,-7,-10,-4,-11,-5,-5
-19,0,18,9,-18,10,-7,-10,-4,-10,-5,-5
-19,1,19,8,-19,11,-6,-9,-3,-9,-5,-4
-19,2,21,8,-19,12,-6,-8,-2,-8,-4,-3
-19,2,21,7,-19,12,-6,-7,-2,-8,-3,-3
-17,3,21,6,-18,12,-6,-7,-2,-8,-3,-3
-14,5,19,4,-16,12,-6,-7,-2,-8,-3,-3
-11,6,17,2,-14,12,-5,-6,-2,-7,-3,-3
-11,7,17,1,-14,12,-4,-5,-1,-7,-2,-2
-13,7,18,2,-15,13,-4,-4,0,-6,-2,-2
-13,7,19,2,-16,13,-3,-3,0,-6,-1,-1
-10,9,19,0,-14,14,-4,-3,1,-5,-1,-1
-8,11,18,-2,-13,14,-5,-4,1,-5,-1,-1
-8,11,19,-2,-14,15,-5,-5,1,-5,0,-1
-7,13,19,-3,-13,16,-5,-5,1,-5,0,0
-4,15,18,-6,-11,17,-6,-6,1,-4,1,1
0,18,17,-9,-9,18,-7,-6,1,-4,2,2
2,20,17,-11,-7,19,-8,-7,1,-4,2,2
5,23,16,-14,-5,19,-8,-7,1,-3,2,3
9,25,15,-17,-2,20,-7,-6,1,-3,3,3
13,27,14,-20,0,21,-6,-6,2,-2,4,4
14,29,15,-21,0,22,-5,-5,2,-2,4,5
15,30,15,-22,0,22,-4,-5,2,-2,4,5
16,31,14,-24,1,23,-4,-5,2,-2,4,5
18,33,15,-26,2,24,-2,-5,3,-1,5,6
21,35,14,-28,4,25,-2,-6,3,-1,5,7
21,35,12,-28,5,23,-2,-6,2,-2,4,6
21,34,13,-28,4,23,-1,-5,1,-2,3,6
21,34,13,-28,4,23,0,-4,1,-2,3,6
21,33,13,-27,4,23,0,-4,1,-2,3,6
20,32,12,-26,4,22,1,-4,1,-3,3,5
19,31,12,-25,3,22,2,-5,1,-3,3,5
16,30,13,-23,1,22,3,-5,1,-3,3,5
14,29,14,-22,0,22,4,-6,1,-4,3,4
14,29,14,-22,0,21,5,-6,0,-4,2,4
16,29,13,-23,1,21,6,-6,0,-4,1,3
17,29,11,-23,3,20,6,-6,0,-5,0,2
17,27,11,-22,3,19,6,-6,-1,-6,0,1
16,26,10,-22,3,19,6,-6,-1,-7,-1,1
16,26,10,-21,3,19,5,-6,-2,-7,-1,1
16,26,9,-21,3,18,4,-7,-2,-8,-2,0
16,26,9,-21,3,18,4,-7,-3,-8,-2,0
16,26,9,-21,3,18,4,-7,-3,-8,-2,0
16,25,9,-21,3,17,5,-8,-2,-8,-2,0
16,25,9,-21,3,17,5,-8,-2,-9,-2,0
16,24,9,-21,3,17,6,-9,-2,-9,-2,0
17,25,8,-21,4,17,6,-9,-2,-9,-2,0
18,25,7,-22,5,17,6,-9,-2,-9,-2,0
18,25,6,-21,5,17,6,-9,-2,-9,-2,0
18,26,7,-22,5,17,6,-8,-2,-9,-2,1
19,26,7,-23,6,17,6,-8,-2,-8,-1,1
19,26,7,-23,6,16,6,-7,-1,-8,-1,1
20,27,7,-24,6,16,6,-7,-1,-7,-1,1
20,27,7,-24,7,17,7,-7,-1,-7,0,2
21,28,7,-25,7,18,8,-6,0,-6,0,2
23,29,7,-26,8,18,9,-5,0,-6,0,3
23,30,6,-27,9,18,10,-5,0,-6,0,3
22,29,6,-26,8,18,10,-5,0,-6,0,4
21,28,6,-25,7,17,10,-5,0,-5,1,4
21,28,5,-24,7,17,11,-5,0,-5,1,4
22,28,5,-25,8,16,11,-5,1,-5,1,4
22,28,5,-25,8,16,11,-5,1,-5,2,4
22,27,5,-25,8,16,11,-4,1,-5,2,4
22,27,5,-24,8,16,11,-4,1,-5,2,4
22,27,4,-24,9,16,11,-4,1,-5,2,4
23,27,4,-25,9,15,11,-4,1,-5,2,5
23,28,4,-25,10,16,11,-4,1,-5,2,5
23,28,4,-25,9,16,11,-4,2,-4,2,5
22,28,5,-25,9,16,12,-4,2,-4,2,5
22,28,5,-26,9,16,12,-4,2,-4,3,6
22,27,4,-25,9,16,11,-5,2,-4,3,6
23,27,4,-25,9,16,10,-5,2,-4,3,6
23,27,3,-25,10,16,11,-5,2,-4,3,7
24,28,4,-26,10,16,12,-4,3,-3,4,7
23,29,5,-26,9,17,14,-2,4,-2,5,8
20,28,6,-24,7,17,15,-2,5,-2,6,8
18,27,8,-23,4,18,16,-1,7,-1,7,7
16,27,10,-22,2,18,17,0,9,0,8,8
16,28,11,-22,2,19,19,3,11,2,10,9
17,30,11,-23,2,20,21,6,14,4,13,12
18,31,11,-24,3,21,22,10,17,8,15,14
19,31,11,-25,4,21,22,16,21,13,19,17
21,31,9,-26,6,21,22,22,26,20,23,21
25,31,6,-28,10,19,21,29,30,27,27,26
31,30,0,-31,16,15,18,34,32,35,31,30
38,30,-9,-34,24,10,14,35,33,40,33,35
47,30,-18,-39,33,6,7,32,30,44,35,41
58,31,-27,-45,43,2,0,23,25,46,36,47
67,33,-34,-50,51,0,-9,9,17,46,37,53
75,35,-40,-55,58,-1,-18,-7,7,43,36,57
83,37,-45,-60,65,-3,-26,-25,-4,36,34,58
91,39,-52,-65,72,-5,-33,-43,-17,28,29,58
99,40,-59,-70,80,-9,-41,-60,-30,18,24,57
107,39,-68,-73,87,-14,-50,-77,-45,5,17,55
113,36,-77,-75,95,-20,-59,-95,-64,-11,5,50
116,32,-84,-74,100,-26,-66,-114,-83,-31,-9,41
115,27,-89,-71,102,-30,-70,-132,-100,-52,-23,29
113,22,-92,-68,102,-34,-71,-147,-114,-73,-38,13
112,14,-97,-63,104,-41,-71,-156,-127,-92,-55,-5
110,4,-105,-58,108,-49,-72,-163,-139,-110,-72,-25
107,-5,-112,-52,110,-58,-73,-169,-149,-124,-87,-42
104,-13,-118,-46,111,-65,-73,-170,-154,-134,-97,-54
102,-20,-123,-41,112,-72,-71,-165,-154,-138,-104,-62
99,-28,-128,-36,113,-78,-66,-155,-151,-138,-108,-69
96,-34,-132,-30,113,-83,-60,-143,-146,-136,-111,-74
92,-40,-132,-26,112,-86,-53,-130,-138,-131,-111,-77
87,-43,-129,-22,108,-86,-46,-117,-128,-122,-107,-77
81,-43,-123,-19,102,-83,-38,-103,-116,-111,-99,-73
75,-41,-115,-17,95,-78,-30,-89,-102,-98,-89,-67
69,-38,-106,-16,87,-72,-23,-76,-88,-85,-78,-59
63,-33,-96,-15,79,-65,-16,-62,-73,-71,-66,-50
57,-27,-86,-15,71,-57,-9,-49,-58,-57,-54,-40
53,-22,-76,-15,64,-49,-5,-37,-45,-45,-43,-31
49,-16,-67,-16,58,-42,0,-26,-33,-34,-33,-23
47,-11,-59,-17,53,-35,5,-14,-22,-24,-24,-16
45,-7,-53,-19,49,-30,10,-5,-13,-14,-15,-11
43,-6,-49,-19,46,-27,14,3,-5,-7,-9,-6
40,-6,-46,-18,43,-25,17,9,1,-1,-4,-3
37,-5,-43,-16,40,-24,20,13,5,3,0,-1
33,-6,-41,-14,37,-24,22,17,9,6,2,1
30,-8,-40,-11,35,-24,23,21,12,9,4,2
29,-9,-39,-10,34,-24,25,24,14,11,5,3
29,-8,-38,-10,33,-23,26,27,17,13,7,4
29,-8,-37,-10,33,-22,27,29,19,15,9,5
28,-9,-37,-10,32,-22,28,30,21,17,10,5
27,-10,-37,-9,32,-23,29,31,22,19,11,6
27,-10,-37,-9,32,-24,29,32,22,20,11,7
27,-10,-38,-9,32,-24,29,32,23,20,12,8
27,-9,-37,-9,32,-23,30,34,24,21,13,9
27,-9,-37,-9,32,-23,30,35,25,22,14,10
26,-9,-36,-8,31,-22,30,36,26,23,14,10
26,-10,-36,-8,31,-22,31,37,26,23,15,10
26,-10,-37,-8,31,-23,31,38,26,24,15,10
25,-10,-37,-7,31,-23,31,38,26,25,16,11
24,-10,-36,-7,30,-23,32,39,27,25,16,11
23,-11,-36,-6,29,-23,32,39,27,26,17,11
23,-11,-35,-6,29,-23,32,40,28,27,17,11
23,-10,-35,-6,29,-22,32,41,28,27,17,12
23,-11,-35,-6,29,-22,32,42,28,27,17,12
22,-12,-34,-5,28,-22,32,42,29,27,17,12
21,-12,-34,-4,27,-23,32,43,29,28,17,12
21,-13,-34,-4,27,-23,32,43,29,28,17,12
20,-13,-34,-3,27,-23,32,43,29,29,18,12
20,-13,-34,-3,27,-23,32,44,30,30,18,12
20,-13,-34,-4,27,-23,33,45,30,31,19,13
20,-13,-34,-4,27,-23,33,46,31,32,20,14
20,-14,-34,-3,27,-23,33,46,32,32,21,14
20,-14,-34,-3,27,-23,33,47,33,32,21,15
19,-14,-34,-3,27,-23,33,48,33,33,22,15
19,-15,-34,-3,27,-24,33,48,34,34,22,15
19,-15,-34,-2,27,-24,34,49,34,34,22,15
18,-16,-34,-1,26,-25,34,49,34,35,22,15
17,-17,-34,0,25,-25,34,49,34,35,22,15
16,-17,-34,0,25,-25,34,49,34,36,22,16
17,-16,-33,0,25,-24,34,50,35,37,23,16
17,-15,-33,-1,25,-23,34,51,36,37,24,17
17,-15,-32,-1,25,-23,35,52,37,38,24,17
17,-15,-32,-1,24,-23,35,53,37,38,25,17
16,-15,-32,-1,24,-23,35,54,38,39,25,17
16,-15,-32,-1,24,-23,35,54,38,39,25,18
16,-15,-32,-1,24,-23,35,54,38,40,26,18
16,-15,-32,0,23,-23,35,55,38,41,26,19
15,-16,-32,0,23,-23,35,56,39,42,26,19
15,-16,-32,0,23,-24,34,57,39,42,26,18
16,-16,-32,0,24,-23,34,58,39,43,27,18
16,-15,-32,-1,24,-22,34,59,40,44,27,19
17,-14,-32,-2,24,-22,34,60,41,45,28,19
17,-13,-32,-2,25,-22,35,61,42,46,29,20
18,-13,-33,-2,25,-23,35,61,42,46,29,20
19,-13,-33,-3,26,-23,35,61,43,47,29,21
20,-12,-33,-4,27,-22,35,62,44,49,30,21
21,-11,-33,-5,27,-22,35,64,45,50,31,22
21,-11,-32,-5,27,-21,35,65,45,51,32,22
21,-10,-32,-5,27,-21,35,66,46,52,33,22
23,-9,-33,-7,28,-21,35,67,47,53,33,23
24,-8,-33,-8,29,-20,36,68,48,55,35,24
26,-6,-33,-10,29,-19,36,70,50,57,36,25
26,-5,-32,-10,29,-19,36,71,51,58,37,26
25,-6,-32,-9,29,-19,36,72,51,58,37,26
25,-7,-33,-8,29,-20,36,73,52,59,38,26
25,-7,-33,-8,29,-20,36,74,53,60,38,27
25,-7,-33,-9,29,-20,37,75,54,61,39,27
27,-6,-33,-10,30,-20,37,76,55,62,39,27
28,-4,-33,-12,31,-19,38,77,56,63,39,28
28,-4,-33,-12,31,-19,38,77,57,63,39,28
27,-5,-33,-11,30,-19,37,77,57,64,39,28
28,-4,-33,-11,31,-19,37,78,58,64,40,28
29,-2,-33,-13,31,-17,38,79,59,65,42,30
30,-1,-32,-14,31,-16,38,80,60,66,43,31
29,-2,-32,-13,30,-16,37,81,60,66,43,31
28,-2,-31,-13,30,-16,37,81,60,66,43,31
29,-1,-31,-14,30,-16,37,81,61,67,43,31
31,0,-31,-15,31,-15,37,82,62,68,44,32
32,2,-30,-17,31,-14,38,82,62,69,44,32
32,3,-30,-17,31,-13,37,82,63,69,44,32
32,3,-30,-17,31,-13,37,82,63,69,44,32
32,4,-30,-18,31,-13,37,83,63,69,44,32
32,4,-29,-18,30,-12,36,83,63,69,44,31
31,5,-27,-18,29,-10,36,82,63,69,44,31
30,5,-25,-17,28,-10,35,81,62,68,44,31
30,4,-25,-17,28,-10,34,80,62,67,43,30
30,5,-25,-18,27,-9,33,79,61,66,42,30
30,6,-23,-18,26,-8,33,78,60,66,42,29
29,8,-21,-18,25,-6,32,76,59,65,41,29
28,9,-20,-18,24,-5,31,75,58,64,41,28
28,11,-18,-20,23,-3,30,74,58,62,41,28
28,14,-16,-21,22,0,28,72,57,61,40,27
29,17,-13,-23,21,2,27,69,55,59,39,27
29,19,-10,-24,20,5,26,67,54,57,38,26
29,21,-8,-25,19,7,25,64,53,55,37,26
29,24,-5,-26,18,9,23,61,51,53,36,25
29,27,-3,-27,16,11,22,58,49,51,35,25
29,29,-1,-28,15,14,21,55,47,49,34,24
28,30,1,-28,13,15,19,52,45,46,33,23
27,31,3,-28,11,17,18,49,43,43,32,22
26,32,6,-28,9,19,16,45,40,40,30,21
25,33,8,-28,8,21,14,41,38,37,28,20
24,35,11,-29,6,23,12,37,35,35,26,19
24,37,13,-29,5,25,11,33,32,32,23,17
23,38,14,-30,4,26,9,29,30,29,21,15
22,39,16,-31,3,28,8,26,27,26,19,13
22,41,17,-31,2,29,6,23,24,23,17,12
22,43,19,-32,1,31,5,20,22,20,16,11
23,45,22,-34,0,34,4,17,20,18,14,10
23,49,25,-36,-1,37,3,14,18,15,13,9
23,51,28,-37,-3,40,1,11,15,12,10,7
21,53,32,-37,-5,42,-1,7,12,9,8,6
21,56,35,-38,-7,45,-2,4,9,6,6,4
20,58,37,-39,-8,47,-4,1,7,3,4,2
20,60,40,-40,-10,50,-5,-2,4,0,2,0
19,62,42,-40,-12,52,-7,-5,2,-2,0,-1
18,64,45,-41,-14,55,-8,-7,0,-4,-1,-3
17,65,47,-41,-15,56,-9,-10,-1,-6,-2,-4
17,66,49,-41,-16,58,-10,-12,-3,-8,-4,-5
17,67,50,-42,-16,59,-11,-13,-4,-9,-5,-6
17,68,51,-43,-17,60,-12,-15,-6,-11,-7,-7
16,69,52,-43,-18,61,-13,-16,-7,-13,-8,-8
15,70,54,-42,-19,62,-14,-18,-9,-14,-9,-9
14,70,55,-42,-20,63,-15,-19,-10,-16,-10,-10
15,72,57,-43,-21,64,-15,-20,-11,-17,-11,-11
16,74,58,-44,-21,66,-15,-21,-11,-18,-12,-12
16,75,58,-45,-21,66,-16,-22,-12,-18,-12,-12
16,75,58,-45,-21,66,-16,-22,-12,-18,-13,-12
15,75,59,-44,-22,67,-17,-23,-13,-19,-14,-13
14,76,60,-44,-23,67,-17,-24,-14,-20,-15,-14
14,75,60,-44,-23,68,-18,-25,-15,-21,-15,-14
13,75,61,-44,-24,68,-18,-26,-15,-22,-16,-15
13,75,62,-44,-25,68,-19,-26,-16,-23,-16,-16
12,74,63,-43,-26,69,-19,-27,-17,-23,-17,-16
11,74,63,-43,-26,69,-20,-28,-17,-24,-17,-17
10,75,64,-43,-27,70,-20,-28,-18,-24,-18,-17
10,76,65,-43,-28,71,-21,-29,-18,-25,-19,-17
10,76,65,-43,-27,70,-21,-29,-18,-25,-20,-17
10,75,64,-42,-27,69,-21,-29,-19,-25,-20,-18
9,74,65,-41,-28,69,-22,-30,-20,-26,-20,-19
8,74,66,-41,-28,70,-22,-30,-20,-27,-20,-19
9,75,66,-42,-29,71,-21,-30,-20,-27,-20,-19
9,75,66,-42,-29,71,-21,-30,-20,-27,-20,-19
8,75,67,-42,-29,71,-21,-30,-20,-27,-21,-19
7,74,67,-41,-30,71,-21,-30,-20,-27,-21,-19
6,74,66,-40,-30,70,-21,-30,-20,-27,-21,-19
6,73,66,-40,-29,70,-21,-30,-20,-27,-21,-19
6,73,66,-39,-29,70,-21,-30,-20,-27,-21,-19
6,73,66,-39,-30,69,-21,-30,-20,-28,-21,-20
6,72,66,-39,-30,69,-22,-30,-21,-28,-22,-20
5,72,67,-38,-31,69,-22,-30,-21,-28,-22,-21
5,72,67,-38,-31,69,-22,-30,-21,-28,-22,-21
5,72,67,-38,-31,69,-21,-30,-20,-28,-22,-20
4,71,66,-37,-30,68,-21,-29,-20,-28,-21,-20
4,71,66,-37,-30,68,-20,-29,-20,-28,-21,-20
4,70,66,-36,-31,68,-20,-29,-20,-28,-21,-20
5,70,65,-37,-30,68,-20,-28,-20,-27,-20,-20
5,70,65,-37,-30,68,-20,-28,-19,-27,-20,-20
4,70,66,-37,-31,68,-20,-28,-19,-26,-20,-19
3,70,66,-36,-32,68,-19,-27,-18,-26,-20,-19
3,70,66,-36,-32,68,-19,-27,-17,-25,-19,-19
3,70,66,-36,-32,68,-18,-26,-16,-24,-19,-19
4,71,66,-37,-32,69,-18,-25,-15,-24,-18,-18
4,71,66,-37,-31,69,-17,-24,-14,-23,-17,-17
5,71,66,-38,-31,69,-16,-23,-14,-22,-16,-16
6,71,65,-38,-30,69,-16,-22,-13,-22,-16,-15
6,71,65,-39,-30,68,-16,-22,-13,-21,-15,-15
7,72,64,-39,-29,68,-15,-21,-12,-20,-15,-14
8,72,64,-40,-28,68,-15,-21,-11,-19,-14,-14
9,73,63,-40,-27,68,-15,-20,-10,-18,-14,-14
9,73,63,-41,-26,68,-15,-19,-9,-18,-13,-13
10,73,62,-41,-26,67,-14,-18,-8,-17,-12,-13
11,73,61,-42,-25,67,-14,-17,-7,-16,-12,-12
12,73,61,-42,-25,67,-14,-16,-7,-16,-11,-12
12,73,60,-43,-24,67,-14,-15,-6,-15,-10,-11
13,73,60,-43,-24,66,-13,-14,-5,-14,-9,-10
13,73,59,-43,-23,66,-13,-14,-4,-13,-8,-9
13,72,59,-43,-23,66,-13,-13,-3,-12,-8,-9
12,72,59,-42,-23,65,-13,-14,-3,-12,-8,-9
12,71,59,-42,-23,65,-14,-15,-3,-13,-8,-8
12,71,58,-42,-23,64,-15,-15,-3,-13,-7,-8
13,70,56,-41,-22,63,-16,-16,-4,-13,-7,-7
13,69,55,-41,-21,62,-17,-16,-5,-14,-7,-7
13,68,54,-40,-21,61,-18,-17,-6,-14,-7,-7
14,67,53,-40,-20,60,-19,-18,-6,-14,-7,-7
14,66,52,-40,-19,59,-19,-19,-6,-14,-7,-6
14,65,51,-40,-18,58,-19,-20,-6,-14,-7,-6
14,64,50,-39,-18,57,-19,-20,-6,-14,-7,-5
14,63,48,-39,-17,56,-18,-20,-6,-14,-7,-5
15,63,47,-39,-16,55,-18,-19,-6,-14,-7,-5
16,63,47,-39,-15,55,-17,-19,-6,-14,-7,-5
15,62,46,-39,-15,54,-17,-19,-6,-14,-7,-5
15,60,44,-38,-14,52,-16,-19,-7,-15,-8,-6
15,57,42,-36,-14,50,-16,-19,-7,-15,-8,-6
13,54,41,-34,-13,47,-15,-18,-7,-15,-8,-6
12,52,40,-32,-14,46,-14,-18,-7,-16,-8,-6
10,50,39,-30,-14,44,-13,-19,-8,-16,-8,-6
8,48,39,-28,-15,43,-12,-19,-8,-16,-8,-6
7,45,38,-26,-15,42,-11,-18,-8,-17,-8,-7
6,43,37,-25,-15,41,-10,-18,-8,-17,-8,-7
5,42,36,-23,-15,39,-9,-18,-9,-17,-8,-7
5,40,36,-22,-15,38,-9,-18,-9,-18,-9,-7
4,39,35,-21,-15,37,-8,-18,-9,-18,-10,-8
3,37,33,-20,-15,35,-8,-19,-10,-19,-11,-9
3,35,32,-19,-14,33,-8,-19,-11,-19,-12,-9
3,33,30,-18,-13,31,-8,-19,-11,-19,-12,-9
3,32,29,-18,-12,30,-7,-19,-10,-19,-12,-9
4,31,27,-17,-11,29,-7,-19,-10,-19,-12,-8
4,30,26,-16,-11,28,-7,-19,-10,-19,-12,-8
4,28,25,-16,-10,27,-7,-19,-10,-19,-11,-8
4,27,24,-15,-10,26,-7,-19,-10,-19,-11,-8
3,26,23,-14,-10,25,-7,-20,-11,-19,-11,-8
3,25,22,-13,-10,24,-7,-20,-11,-19,-11,-8
2,24,22,-13,-10,23,-6,-19,-11,-19,-11,-8
2,24,21,-13,-9,22,-5,-19,-10,-18,-11,-8
3,23,20,-13,-8,22,-5,-19,-10,-18,-11,-7
3,22,20,-12,-8,21,-5,-19,-10,-18,-11,-7
3,22,19,-12,-8,21,-4,-19,-10,-18,-11,-7
3,21,19,-12,-8,20,-4,-19,-10,-18,-10,-7
3,21,18,-12,-7,20,-4,-19,-10,-18,-10,-7
3,20,17,-12,-7,19,-3,-18,-9,-18,-9,-6
3,20,16,-12,-6,18,-3,-18,-9,-18,-9,-6
3,19,16,-11,-6,17,-3,-17,-9,-18,-9,-6
3,18,15,-11,-6,17,-3,-17,-9,-18,-9,-6
3,18,15,-10,-6,16,-2,-17,-8,-17,-9,-6
3,17,14,-10,-6,16,-1,-17,-8,-17,-8,-5
3,17,14,-10,-6,16,-1,-16,-7,-16,-8,-4
4,17,14,-11,-5,16,0,-16,-7,-16,-8,-4
4,17,13,-11,-5,15,0,-17,-7,-16,-8,-4
4,17,12,-10,-4,15,0,-17,-8,-16,-8,-4
5,17,12,-10,-4,14,0,-16,-7,-15,-7,-3
5,17,12,-11,-3,14,0,-16,-7,-15,-6,-3
6,17,12,-11,-3,14,0,-15,-7,-15,-5,-2
6,17,11,-11,-2,14,1,-15,-6,-15,-5,-2
7,17,11,-11,-2,14,1,-14,-6,-14,-5,-2
7,17,10,-12,-1,14,1,-14,-6,-14,-5,-2
7,16,10,-12,-1,14,2,-14,-5,-14,-5,-1
7,16,9,-11,0,13,2,-14,-5,-13,-5,-1
7,16,8,-11,0,13,3,-13,-4,-13,-4,-1
7,16,9,-11,-1,13,4,-12,-3,-12,-3,0
5,16,10,-11,-2,13,5,-11,-1,-11,-1,0
4,16,12,-10,-4,14,7,-9,1,-10,1,2
2,16,14,-9,-6,15,9,-7,4,-9,3,3
1,16,16,-8,-7,16,11,-4,7,-7,4,4
0,16,16,-8,-8,16,13,-1,9,-5,5,5
0,15,16,-7,-8,16,14,2,12,-2,7,6
0,16,16,-7,-8,16,16,7,16,1,10,8
1,16,15,-8,-6,16,16,12,20,7,14,12
4,17,13,-10,-4,14,16,19,25,14,19,16
7,17,9,-12,-1,12,15,26,29,21,23,20
14,17,4,-15,5,10,12,31,32,29,26,24
23,17,-5,-20,14,6,8,33,33,35,28,29
34,17,-16,-25,25,0,1,30,30,40,29,35
45,17,-27,-30,36,-4,-8,22,25,43,31,41
54,18,-35,-35,45,-8,-17,9,18,44,32,47
62,19,-42,-40,52,-10,-26,-6,9,41,31,51
70,21,-48,-45,59,-12,-34,-23,-2,35,29,53
77,23,-53,-50,65,-14,-41,-39,-13,27,26,53
84,24,-59,-54,72,-17,-49,-56,-26,18,21,53
91,24,-66,-57,78,-20,-57,-74,-42,4,13,51
97,24,-72,-60,85,-24,-66,-94,-61,-13,2,45
101,24,-77,-61,89,-26,-72,-114,-80,-34,-9,37
101,21,-80,-60,90,-29,-75,-132,-97,-55,-23,25
97,14,-83,-55,90,-34,-75,-147,-112,-76,-39,8
93,4,-88,-48,91,-41,-75,-158,-127,-96,-57,-12
89,-6,-93,-42,91,-50,-75,-166,-139,-115,-75,-32
86,-15,-99,-36,92,-57,-75,-172,-148,-129,-90,-48
83,-22,-104,-31,93,-63,-75,-173,-154,-139,-100,-58
80,-30,-109,-25,94,-69,-74,-170,-155,-144,-107,-66
77,-37,-114,-19,95,-75,-70,-162,-153,-144,-112,-73
74,-44,-117,-14,95,-80,-65,-151,-147,-141,-114,-78
69,-49,-118,-9,93,-82,-58,-138,-139,-135,-113,-80
63,-52,-115,-5,89,-83,-51,-124,-128,-126,-108,-78
57,-52,-109,-3,84,-81,-43,-109,-115,-114,-100,-74
51,-51,-102,-1,77,-76,-35,-94,-101,-101,-91,-68
46,-48,-93,0,69,-70,-27,-80,-86,-87,-79,-60
41,-43,-83,0,62,-63,-20,-65,-70,-73,-67,-51
37,-36,-73,0,55,-54,-14,-52,-56,-59,-54,-41
34,-30,-64,-1,49,-47,-9,-40,-43,-47,-43,-32
32,-25,-57,-2,45,-41,-5,-29,-31,-36,-33,-24
29,-22,-51,-3,41,-36,0,-18,-21,-26,-25,-18
26,-20,-45,-3,36,-33,4,-10,-12,-18,-18,-13
23,-18,-41,-2,32,-30,8,-3,-6,-12,-12,-10
21,-18,-38,-2,30,-28,12,3,0,-6,-7,-7
20,-18,-37,-2,28,-28,15,8,4,-1,-3,-4
19,-18,-37,-1,27,-27,17,12,9,2,0,-1
17,-18,-36,0,27,-27,19,16,12,5,2,0
16,-19,-36,2,26,-27,21,20,15,8,3,2
14,-21,-36,3,26,-28,22,22,17,10,5,3
14,-22,-36,4,25,-29,23,24,19,12,6,4
14,-22,-36,4,25,-29,24,26,21,13,8,5
13,-23,-36,4,25,-30,26,28,22,15,10,6
13,-24,-36,5,24,-30,27,29,24,17,11,7
12,-24,-36,5,24,-31,29,31,25,18,12,8
12,-25,-37,6,24,-31,29,32,26,19,12,9
11,-25,-38,7,24,-32,30,33,27,20,13,10
11,-26,-38,8,25,-32,30,34,27,21,14,10
11,-27,-39,8,25,-33,30,35,28,22,15,10
11,-28,-40,8,25,-34,30,36,28,23,15,11
10,-30,-40,9,25,-35,31,37,29,24,16,11
9,-32,-41,10,25,-37,32,38,30,25,17,12
9,-34,-43,11,26,-38,33,38,31,26,18,13
9,-34,-44,12,26,-39,33,39,32,27,19,14
9,-35,-44,12,27,-39,34,40,33,28,20,14
9,-35,-45,13,27,-39,34,41,34,29,20,15
9,-36,-46,13,28,-40,34,42,34,29,20,15
9,-38,-47,14,28,-42,34,43,35,30,21,16
9,-39,-48,14,29,-44,35,44,35,30,21,16
9,-40,-49,15,29,-45,35,45,36,31,22,16
8,-41,-50,16,29,-46,35,45,37,32,23,17
8,-42,-51,17,29,-46,36,46,38,33,24,18
8,-43,-52,17,30,-47,37,48,40,34,24,18
8,-44,-53,18,30,-48,37,49,41,35,25,19
8,-45,-54,19,31,-49,38,50,41,36,26,19
7,-47,-55,20,31,-51,38,51,42,36,26,19
7,-49,-56,21,32,-52,38,52,43,37,27,19
7,-50,-57,21,32,-54,38,53,44,38,28,20
8,-51,-59,21,33,-55,39,54,45,40,29,21
8,-53,-61,22,34,-56,40,55,46,41,29,23
8,-53,-62,22,34,-57,40,56,47,42,30,24
9,-53,-62,22,35,-57,40,57,48,43,31,24
9,-53,-62,22,35,-57,41,58,49,43,32,25
9,-53,-61,22,35,-57,41,59,49,44,33,25
9,-53,-61,21,35,-57,41,60,49,45,33,25
9,-53,-61,21,35,-57,41,60,49,45,33,25
9,-52,-61,21,35,-57,41,60,49,45,33,24
9,-52,-61,21,34,-56,41,61,50,45,33,24
9,-51,-60,21,34,-55,40,61,50,46,33,24
9,-50,-60,20,34,-55,40,62,50,47,34,25
10,-50,-60,20,35,-55,40,63,51,48,34,25
10,-51,-60,20,35,-55,40,64,52,48,34,25
9,-50,-59,20,34,-54,40,65,52,49,34,25
9,-49,-58,20,34,-53,39,65,53,49,34,25
9,-48,-57,19,33,-52,39,66,53,50,35,26
9,-48,-57,19,33,-52,39,66,54,51,35,26
9,-48,-58,19,34,-52,40,67,54,52,36,27
10,-47,-58,18,34,-52,40,68,55,53,37,28
11,-46,-57,18,34,-51,40,69,56,54,37,27
11,-45,-56,17,34,-51,40,70,56,54,37,27
12,-45,-56,17,34,-51,40,71,57,55,38,27
11,-45,-56,17,34,-50,40,72,58,56,39,28
11,-44,-55,17,33,-49,40,72,59,57,39,28
11,-43,-54,16,32,-49,40,73,60,58,40,29
11,-42,-54,15,32,-48,40,74,60,58,40,29
12,-41,-53,14,32,-47,40,75,61,59,40,29
13,-40,-53,14,32,-46,40,76,62,60,40,30
14,-39,-53,13,33,-45,40,77,63,61,41,30
14,-39,-53,13,33,-45,40,78,64,61,42,31
14,-37,-52,12,33,-44,39,79,65,62,43,32
15,-36,-51,11,33,-43,39,79,65,63,43,32
15,-35,-50,11,33,-43,39,80,66,63,44,33
14,-35,-49,10,32,-42,39,80,66,64,44,33
14,-33,-48,9,31,-40,39,81,66,65,44,33
15,-32,-47,8,31,-39,39,81,66,65,44,33
15,-31,-46,8,30,-38,39,82,67,65,44,33
14,-30,-45,8,30,-37,39,82,67,66,44,33
14,-30,-45,8,29,-37,38,82,67,66,45,33
14,-29,-44,7,29,-36,38,82,67,67,45,33
15,-28,-43,7,29,-36,38,83,68,67,45,33
16,-27,-43,6,29,-35,38,83,68,68,45,33
16,-25,-41,5,29,-33,38,83,68,68,45,33
15,-25,-40,5,28,-32,38,83,68,68,45,33
15,-24,-40,4,27,-31,38,83,69,68,46,34
15,-24,-40,4,27,-31,38,83,69,69,47,34
15,-23,-39,4,27,-31,37,83,69,69,46,34
16,-22,-38,3,27,-30,37,83,69,68,46,34
16,-21,-38,3,27,-29,37,82,68,68,46,34
17,-21,-37,2,27,-29,36,82,68,68,46,34
16,-21,-36,3,26,-28,36,81,68,67,46,34
14,-22,-35,4,25,-28,35,79,67,65,45,33
12,-22,-34,5,24,-28,34,78,66,64,44,32
12,-21,-33,4,23,-27,33,76,65,63,44,32
13,-19,-32,2,23,-25,33,75,65,62,45,33
15,-17,-31,0,23,-24,33,74,65,62,45,33
15,-16,-31,0,23,-23,33,73,64,62,45,34
15,-16,-31,0,23,-23,33,71,63,61,44,33
15,-16,-31,0,23,-23,32,68,62,60,43,33
15,-15,-30,0,23,-22,32,65,61,58,43,33
15,-14,-29,0,22,-21,31,62,59,56,43,33
15,-14,-28,0,21,-21,30,60,58,54,43,33
15,-14,-29,0,22,-21,29,57,56,52,42,33
14,-14,-29,0,21,-21,28,54,54,50,41,32
13,-14,-28,1,20,-21,27,51,52,48,40,32
12,-14,-28,1,20,-21,27,49,51,47,39,32
12,-14,-27,1,19,-20,27,46,50,45,39,32
12,-14,-26,1,19,-20,26,43,49,43,38,32
12,-14,-26,1,19,-20,25,40,47,41,36,31
11,-14,-25,2,18,-20,24,38,45,39,35,30
11,-14,-25,2,18,-19,24,35,43,36,33,30
11,-13,-24,1,18,-18,23,33,41,34,32,29
11,-13,-24,1,17,-18,23,31,40,32,31,29
10,-13,-23,2,17,-17,22,29,38,30,30,28
10,-13,-23,1,17,-17,22,27,37,29,30,28
10,-13,-23,1,17,-17,22,25,36,27,29,27
11,-13,-23,0,17,-17,21,23,34,26,29,27
11,-13,-23,0,17,-17,20,21,33,24,28,26
10,-13,-22,1,16,-16,20,20,32,23,27,26
10,-13,-22,1,16,-16,20,19,31,21,26,25
10,-12,-21,1,15,-16,19,17,29,20,25,24
9,-11,-20,1,14,-15,19,15,28,18,24,24
10,-10,-19,0,14,-14,18,14,27,17,23,24
10,-9,-18,0,14,-13,18,12,26,16,23,24
9,-8,-16,0,12,-11,18,11,25,15,23,23
8,-6,-13,-1,11,-10,18,10,25,15,22,23
8,-5,-12,-1,10,-9,17,10,24,14,22,23
8,-3,-11,-2,9,-7,16,9,23,13,21,22
8,-2,-10,-3,9,-6,15,7,21,11,19,21
8,0,-9,-3,9,-5,15,6,20,10,18,20
9,1,-8,-4,9,-4,14,5,19,9,17,19
9,2,-7,-5,8,-3,14,5,19,8,16,18
9,3,-6,-6,7,-1,14,4,18,8,16,18
8,4,-3,-6,6,0,13,3,17,7,15,17
8,5,-1,-7,5,1,12,2,16,6,15,16
8,7,0,-8,4,3,11,1,15,5,14,15
8,10,2,-9,3,6,10,1,14,4,14,15
8,13,4,-11,2,9,10,0,13,3,13,14
9,16,7,-12,1,12,9,-1,12,2,12,13
9,19,10,-14,0,14,8,-2,11,1,11,12
9,22,13,-15,-2,17,7,-3,11,0,10,11
9,25,16,-17,-3,21,6,-4,10,0,9,10
8,28,20,-19,-5,24,5,-5,9,-1,8,9
8,32,24,-20,-7,28,5,-6,8,-2,7,8
9,36,27,-23,-9,32,4,-7,7,-3,6,7
9,40,31,-25,-10,36,3,-8,6,-4,5,6
9,44,34,-26,-12,40,2,-9,5,-6,3,5
8,48,38,-28,-14,43,1,-10,3,-7,2,3
8,51,42,-29,-16,47,1,-11,2,-8,1,2
8,53,46,-30,-18,50,0,-12,2,-9,0,1
8,56,49,-32,-20,53,-1,-13,1,-10,-1,0
8,60,53,-34,-22,57,-3,-14,0,-11,-2,-1
8,63,55,-35,-24,60,-5,-15,-1,-13,-3,-3
7,66,58,-36,-25,62,-7,-16,-3,-14,-5,-4
7,69,61,-38,-27,66,-8,-18,-4,-16,-7,-6
7,72,64,-39,-28,68,-9,-20,-6,-17,-9,-8
7,73,66,-39,-30,70,-10,-21,-7,-18,-10,-9
6,75,69,-40,-31,73,-11,-21,-7,-19,-11,-10
6,77,72,-41,-33,75,-12,-22,-8,-19,-11,-11
6,79,74,-42,-34,77,-13,-22,-8,-20,-11,-11
4,80,76,-42,-36,78,-13,-23,-9,-21,-12,-12
2,81,78,-42,-38,80,-14,-23,-9,-21,-13,-13
2,83,80,-43,-39,82,-14,-23,-9,-21,-14,-13
3,86,82,-44,-39,84,-14,-23,-9,-21,-14,-14
3,87,83,-45,-40,85,-14,-23,-9,-21,-14,-14
3,88,85,-46,-41,87,-15,-23,-10,-21,-14,-14
3,89,86,-46,-42,88,-16,-23,-10,-21,-14,-14
2,90,87,-46,-42,89,-17,-23,-11,-22,-15,-15
2,90,88,-46,-42,90,-18,-23,-11,-22,-16,-15
2,91,88,-47,-42,90,-18,-23,-11,-22,-15,-15
3,92,88,-48,-41,91,-17,-22,-11,-21,-14,-15
4,93,88,-49,-41,91,-17,-22,-10,-20,-14,-15
4,93,88,-49,-42,91,-18,-21,-10,-20,-15,-15
5,94,88,-49,-42,92,-18,-21,-10,-20,-15,-15
4,94,89,-49,-42,92,-18,-21,-10,-20,-15,-14
3,93,90,-48,-44,93,-18,-21,-10,-20,-14,-14
1,93,91,-48,-45,93,-18,-20,-10,-20,-14,-14
2,94,91,-49,-44,93,-17,-19,-9,-19,-13,-13
4,96,91,-50,-43,94,-17,-18,-8,-18,-12,-12
5,97,92,-51,-43,94,-18,-18,-8,-17,-11,-12
5,97,92,-51,-44,95,-20,-20,-9,-18,-12,-13
5,97,92,-51,-44,95,-22,-23,-11,-20,-13,-15
5,97,92,-51,-44,95,-23,-24,-12,-21,-14,-15
5,97,92,-51,-44,95,-24,-24,-12,-21,-14,-14
5,98,92,-51,-43,95,-25,-25,-13,-22,-14,-14
6,98,92,-52,-43,95,-27,-27,-14,-23,-15,-14
6,98,92,-52,-42,95,-28,-28,-15,-23,-16,-14
7,98,92,-53,-42,95,-29,-29,-16,-24,-17,-15
7,98,91,-53,-41,94,-30,-30,-17,-24,-17,-15
8,98,90,-53,-41,94,-31,-32,-18,-25,-18,-16
9,97,88,-53,-40,93,-31,-33,-19,-27,-19,-17
8,97,88,-52,-40,92,-31,-34,-20,-28,-20,-18
7,95,87,-51,-40,91,-30,-34,-20,-28,-20,-17
7,94,86,-50,-39,90,-29,-33,-20,-28,-20,-17
8,92,83,-50,-37,88,-28,-33,-20,-28,-20,-17
8,90,81,-49,-36,86,-28,-33,-20,-28,-20,-17
7,88,80,-48,-36,84,-28,-33,-20,-28,-20,-18
6,86,80,-46,-37,83,-27,-33,-20,-28,-21,-18
5,85,79,-45,-37,82,-26,-32,-20,-28,-20,-18
5,84,78,-44,-36,81,-24,-32,-20,-29,-20,-18
4,83,78,-44,-37,81,-23,-32,-20,-30,-21,-19
3,82,78,-43,-37,80,-23,-33,-21,-31,-21,-20
3,80,77,-42,-37,79,-22,-34,-21,-32,-22,-20
2,78,76,-41,-36,77,-22,-34,-21,-32,-23,-20
1,76,75,-39,-36,76,-21,-34,-21,-32,-23,-20
0,74,74,-37,-36,74,-21,-34,-21,-32,-23,-20
0,72,72,-36,-36,72,-21,-34,-22,-33,-24,-21
0,70,70,-35,-35,71,-21,-35,-22,-33,-24,-22
0,69,68,-34,-34,69,-21,-35,-22,-34,-25,-22
0,68,67,-34,-34,68,-20,-35,-23,-34,-25,-22
0,67,66,-34,-33,67,-20,-35,-23,-35,-25,-22
0,65,65,-32,-33,65,-20,-35,-24,-35,-26,-22
-1,63,65,-31,-33,64,-20,-35,-24,-35,-26,-22
-1,63,64,-31,-32,64,-19,-34,-23,-34,-25,-22
0,63,63,-32,-31,63,-18,-33,-23,-33,-24,-21
0,63,62,-31,-31,63,-17,-33,-22,-33,-23,-21
0,62,62,-31,-31,62,-17,-33,-23,-33,-23,-21
0,62,61,-31,-30,62,-17,-33,-23,-34,-23,-21
1,62,60,-31,-30,61,-17,-34,-23,-33,-23,-21
1,62,60,-31,-29,61,-17,-33,-23,-33,-23,-20
1,61,60,-31,-29,60,-17,-33,-22,-32,-23,-20
0,60,59,-30,-29,59,-17,-33,-22,-32,-23,-20
-1,59,59,-30,-29,59,-17,-33,-22,-32,-23,-20
-1,58,59,-29,-29,58,-16,-32,-22,-32,-23,-19
-1,57,57,-28,-28,56,-15,-31,-21,-31,-23,-19
0,56,55,-28,-27,55,-15,-30,-21,-31,-22,-19
0,55,54,-27,-26,54,-14,-29,-20,-30,-22,-18
0,54,53,-27,-26,54,-13,-29,-20,-30,-21,-18
1,54,53,-27,-26,54,-13,-29,-20,-30,-21,-17
1,54,53,-28,-26,54,-13,-29,-20,-30,-20,-17
1,55,53,-28,-26,54,-13,-29,-19,-30,-19,-16
2,55,53,-29,-26,55,-13,-29,-19,-30,-19,-16
2,56,53,-29,-25,55,-13,-29,-18,-30,-19,-16
3,56,53,-29,-25,55,-13,-29,-18,-30,-20,-16
2,56,53,-29,-25,55,-13,-29,-18,-31,-20,-17
2,56,53,-29,-25,55,-13,-29,-18,-31,-21,-17
3,57,53,-30,-25,55,-13,-29,-18,-31,-20,-17
4,58,53,-31,-24,56,-12,-29,-17,-31,-20,-16
4,58,54,-31,-24,56,-12,-29,-17,-31,-20,-16
3,57,54,-31,-25,56,-12,-30,-17,-31,-19,-16
2,57,54,-30,-25,56,-12,-29,-17,-31,-19,-16
2,57,54,-29,-26,55,-11,-29,-16,-31,-18,-15
0,56,55,-28,-27,56,-9,-28,-15,-30,-16,-15
0,57,57,-28,-29,57,-7,-27,-13,-29,-15,-14
-1,58,59,-29,-30,59,-5,-25,-10,-28,-14,-14
-2,58,61,-28,-31,60,-4,-23,-8,-27,-13,-13
-4,58,63,-27,-33,61,-3,-21,-6,-26,-12,-13
-6,58,64,-26,-34,61,-2,-17,-3,-23,-10,-12
-7,58,64,-25,-35,61,-1,-12,0,-20,-7,-10
-5,59,63,-27,-34,61,0,-6,4,-14,-2,-7
-1,61,61,-30,-31,61,0,1,10,-6,2,-2
3,62,58,-33,-27,60,1,8,16,2,6,2
9,62,52,-35,-21,58,-1,14,19,10,9,7
16,61,45,-38,-14,54,-5,16,20,17,11,12
25,61,36,-43,-5,49,-12,13,18,23,14,18
36,63,27,-49,5,45,-21,5,13,26,16,25
46,65,19,-55,14,42,-33,-7,5,27,18,32
53,66,13,-60,20,41,-43,-23,-3,26,20,38
60,69,9,-65,26,40,-51,-39,-13,22,19,42
69,73,4,-71,33,39,-58,-55,-23,17,17,44
80,77,-2,-78,41,37,-66,-70,-35,10,13,46
89,79,-9,-84,49,35,-75,-87,-50,0,7,45
95,79,-15,-87,55,32,-84,-107,-69,-16,-2,42
97,76,-20,-86,59,29,-92,-127,-90,-36,-15,34
95,73,-22,-84,59,26,-96,-146,-109,-58,-28,22
91,67,-24,-79,58,22,-97,-162,-126,-80,-45,5
88,58,-30,-73,59,14,-97,-173,-141,-101,-64,-16
84,47,-36,-66,60,6,-96,-181,-153,-120,-83,-38
81,38,-42,-60,61,-1,-95,-186,-163,-137,-100,-56
78,30,-47,-54,63,-8,-95,-189,-170,-149,-113,-69
75,21,-53,-48,64,-15,-94,-186,-172,-156,-122,-79
72,13,-58,-42,65,-22,-91,-179,-171,-158,-127,-86
69,6,-62,-37,66,-27,-85,-167,-165,-155,-130,-91
65,1,-64,-33,65,-31,-77,-153,-157,-150,-130,-93
60,-2,-63,-29,62,-32,-69,-139,-147,-142,-126,-93
56,-3,-59,-27,58,-31,-61,-125,-134,-131,-118,-90
51,-2,-52,-25,52,-27,-52,-111,-120,-118,-108,-85
44,0,-43,-22,44,-21,-44,-97,-104,-105,-97,-77
37,2,-33,-20,35,-15,-36,-83,-88,-92,-85,-69
32,7,-24,-20,28,-8,-30,-70,-74,-79,-73,-59
30,13,-16,-22,23,-1,-24,-58,-61,-67,-62,-50
27,18,-8,-23,18,5,-19,-47,-49,-55,-52,-42
23,22,-1,-23,12,11,-14,-37,-38,-45,-43,-36
20,23,3,-22,8,14,-10,-28,-28,-36,-35,-30
18,23,5,-21,6,15,-7,-20,-20,-28,-29,-26
17,23,5,-21,6,14,-4,-13,-14,-22,-24,-23
15,20,6,-18,4,13,-1,-7,-10,-17,-20,-20
11,18,7,-15,2,13,2,-2,-5,-13,-16,-17
9,16,7,-13,1,12,5,3,-1,-9,-12,-14
10,15,5,-13,2,11,8,7,2,-6,-10,-12
9,14,4,-12,3,9,10,10,5,-4,-8,-11
9,12,3,-11,3,8,12,13,7,-2,-6,-9
9,11,2,-10,3,7,14,16,10,1,-4,-8
8,9,0,-9,4,5,15,18,12,3,-2,-7
7,6,-1,-7,4,3,16,19,14,4,0,-5
5,4,-2,-5,3,1,18,21,16,6,1,-4
5,2,-3,-3,4,0,19,23,17,8,3,-2
5,0,-6,-2,5,-3,20,24,18,9,4,-1
5,-4,-9,-1,7,-6,21,25,19,9,4,-1
4,-7,-12,1,8,-10,22,26,21,11,5,0
2,-11,-15,3,9,-13,24,29,23,13,7,2
3,-14,-18,5,11,-16,26,31,25,16,9,3
3,-18,-22,7,13,-20,27,33,26,18,10,4
2,-22,-25,9,14,-23,29,34,28,20,12,6
2,-25,-27,11,15,-25,30,36,30,21,14,8
4,-25,-30,10,18,-27,31,37,31,22,16,10
5,-25,-31,10,19,-28,32,39,32,23,16,10
5,-25,-31,10,19,-28,32,39,33,24,16,10
6,-25,-32,9,20,-29,33,39,33,24,16,10
8,-25,-34,9,22,-30,33,40,34,25,17,10
9,-25,-35,8,22,-30,34,41,35,27,19,11
9,-25,-34,8,21,-29,35,42,36,28,20,12
8,-26,-34,9,21,-29,34,42,37,28,19,12
6,-27,-33,10,20,-30,33,42,37,28,19,12
4,-29,-33,12,19,-31,33,42,37,28,19,12
4,-30,-34,12,19,-31,32,43,37,29,20,12
6,-28,-35,10,20,-31,33,45,38,30,21,14
9,-26,-36,8,22,-31,34,47,39,31,21,14
9,-26,-36,8,22,-31,34,49,40,32,22,14
9,-26,-36,8,23,-30,35,50,41,33,23,15
10,-25,-35,8,23,-30,36,51,41,34,25,16
11,-25,-36,7,24,-30,35,51,42,35,26,17
12,-25,-36,6,25,-30,35,51,42,36,26,17
11,-24,-35,6,24,-29,36,52,42,36,26,17
10,-24,-35,7,22,-29,36,53,43,37,26,17
11,-24,-35,7,23,-30,36,54,44,38,26,17
12,-24,-36,6,24,-30,36,54,44,39,26,17
12,-23,-36,6,24,-29,35,55,44,39,26,17
12,-23,-35,6,24,-29,35,55,44,39,26,17
12,-23,-34,5,23,-28,35,56,44,39,26,17
12,-22,-34,5,24,-27,35,57,44,40,27,17
13,-21,-33,4,24,-27,35,58,45,41,28,18
13,-20,-33,3,24,-26,35,58,46,42,29,19
13,-20,-33,3,24,-26,35,59,47,43,29,19
13,-19,-33,3,23,-26,35,59,48,44,28,18
13,-18,-32,2,22,-25,36,60,49,45,28,18
14,-17,-31,1,23,-24,36,61,50,46,30,19
15,-15,-31,0,23,-22,36,62,51,47,31,19
16,-14,-30,-1,24,-21,37,63,52,48,32,20
17,-13,-29,-1,23,-21,37,63,53,49,33,21
16,-12,-29,-2,23,-20,37,64,54,50,33,22
17,-11,-28,-3,23,-19,37,66,54,51,33,22
17,-9,-27,-4,22,-18,37,67,55,52,33,22
17,-8,-26,-5,22,-17,37,68,56,52,34,22
18,-6,-25,-6,21,-15,36,69,56,52,34,22
18,-5,-24,-6,21,-14,35,69,56,52,34,22
18,-3,-22,-7,20,-12,34,70,57,53,34,22
17,-2,-20,-7,19,-11,33,70,57,53,34,22
17,0,-18,-8,18,-9,32,70,57,54,35,22
18,3,-16,-10,17,-7,31,71,57,55,35,22
19,6,-14,-13,17,-4,32,73,58,56,35,22
20,9,-12,-15,16,-2,31,73,58,56,35,22
21,12,-10,-17,16,0,30,73,58,56,34,21
22,14,-8,-18,16,3,29,73,58,56,34,20
21,17,-4,-19,14,7,29,74,58,57,34,20
21,21,0,-21,12,10,28,74,58,57,34,20
21,23,2,-22,10,12,27,74,58,57,34,20
21,25,4,-23,9,14,26,73,58,56,34,20
20,28,7,-24,7,17,25,72,58,56,34,20
22,32,9,-27,7,21,24,72,57,56,34,19
23,36,12,-30,6,24,23,71,57,55,33,18
23,38,14,-31,4,27,23,71,56,54,31,17
22,39,16,-31,3,28,22,70,56,53,30,16
22,41,18,-31,2,30,20,68,55,52,29,15
21,43,21,-32,1,32,20,67,54,52,28,14
21,45,24,-33,0,35,19,67,54,52,28,14
22,48,26,-34,-1,37,19,67,54,51,27,14
22,50,28,-36,-2,39,18,66,53,50,27,13
21,52,29,-37,-3,41,17,64,52,50,28,14
22,55,31,-39,-4,43,17,64,52,50,28,14
24,59,33,-42,-4,46,17,62,52,49,28,14
25,60,35,-43,-4,48,15,59,51,48,27,13
25,62,36,-43,-5,49,14,56,50,46,26,13
26,64,38,-44,-6,50,14,54,49,45,26,13
25,65,40,-45,-7,52,13,54,48,45,25,12
23,66,42,-45,-9,54,12,53,47,44,24,12
23,67,43,-45,-9,55,12,52,46,42,24,11
22,67,43,-45,-10,55,11,51,45,41,23,11
22,68,44,-45,-10,56,11,49,44,40,23,12
22,68,45,-45,-11,57,11,46,43,38,24,12
22,69,46,-45,-11,57,10,43,41,37,24,13
23,69,46,-46,-11,58,9,40,40,35,23,13
23,70,47,-47,-11,59,8,37,39,33,23,13
24,71,47,-48,-11,59,7,34,37,31,21,12
24,72,48,-48,-12,60,5,30,34,28,20,12
24,74,48,-49,-12,61,5,27,32,25,19,11
25,75,48,-50,-11,61,4,25,30,23,18,11
25,75,49,-50,-12,61,4,21,28,20,16,10
23,74,50,-48,-13,62,3,18,26,18,14,9
22,73,51,-48,-14,62,2,16,25,16,13,8
22,73,51,-47,-14,62,2,13,23,13,12,8
21,72,50,-47,-14,61,1,11,21,11,12,7
22,72,50,-47,-13,61,1,9,19,10,11,7
22,72,49,-48,-12,61,1,7,18,8,10,7
22,72,49,-48,-12,61,1,6,17,7,9,6
23,72,48,-48,-12,60,0,4,15,5,8,6
23,72,48,-48,-12,60,0,2,14,3,7,5
23,72,49,-47,-13,60,0,0,14,2,6,5
22,71,50,-46,-13,60,0,-1,13,1,6,5
22,71,49,-46,-13,59,0,-4,12,0,5,5
22,70,48,-46,-12,59,0,-6,11,-2,5,4
22,70,47,-46,-12,59,0,-8,10,-3,4,4
22,70,47,-46,-11,58,0,-9,9,-5,3,4
21,68,46,-44,-11,57,-1,-9,7,-6,2,3
21,67,45,-44,-11,56,-1,-8,7,-6,2,3
21,67,45,-44,-11,56,-1,-8,6,-5,2,3
23,67,44,-45,-10,55,0,-8,6,-5,2,3
24,68,44,-46,-9,56,0,-9,6,-6,2,3
24,68,45,-46,-10,56,0,-9,6,-6,2,3
24,68,44,-46,-9,55,-1,-10,6,-7,2,2
25,67,42,-46,-8,54,-1,-11,5,-7,2,2
25,67,41,-46,-7,54,0,-11,5,-8,1,2
23,65,42,-44,-8,53,0,-11,5,-8,1,2
22,64,42,-42,-9,53,0,-11,5,-8,0,2
23,65,41,-44,-8,53,1,-11,6,-8,0,3
24,65,40,-44,-7,52,1,-11,6,-8,0,3
25,64,39,-44,-7,51,1,-11,6,-8,0,3
25,64,39,-44,-6,51,1,-11,6,-8,1,3
24,64,39,-44,-7,51,1,-11,6,-8,1,3
23,64,40,-44,-7,52,1,-11,6,-7,2,4
24,64,39,-44,-7,51,2,-10,7,-7,2,4
25,64,38,-45,-6,51,2,-10,7,-6,3,4
26,64,38,-45,-5,50,2,-11,7,-7,2,4
25,63,38,-44,-6,50,2,-12,7,-7,2,4
24,63,39,-44,-7,50,2,-12,6,-7,2,4
25,63,38,-44,-6,50,2,-12,6,-7,1,4
26,64,38,-45,-6,51,2,-10,7,-7,1,4
26,64,38,-45,-5,51,2,-9,7,-6,2,4
26,64,37,-45,-5,50,3,-8,8,-5,3,4
26,63,37,-44,-5,49,3,-7,8,-5,3,5
26,62,36,-44,-4,48,3,-7,7,-5,3,4
26,61,35,-44,-4,48,2,-7,7,-6,2,4
26,62,36,-44,-4,48,3,-7,8,-6,2,4
26,63,37,-45,-5,49,4,-7,8,-6,2,4
27,64,37,-45,-4,50,4,-7,9,-6,3,4
27,64,36,-46,-4,50,3,-7,9,-6,3,3
27,63,37,-45,-5,50,3,-7,9,-6,2,3
26,63,37,-44,-6,50,3,-8,9,-6,2,3
26,63,36,-45,-5,49,4,-8,9,-5,2,3
27,63,36,-45,-5,50,4,-7,10,-5,2,3
26,63,37,-45,-6,50,4,-6,10,-5,2,3
25,62,37,-44,-6,50,4,-5,11,-4,3,3
25,62,37,-43,-6,50,5,-3,12,-3,4,4
25,63,37,-44,-6,51,5,-2,12,-2,5,5
25,63,37,-44,-5,51,5,-2,12,-2,5,5
26,63,37,-44,-5,50,5,-3,12,-2,5,5
26,64,38,-45,-5,51,5,-3,12,-1,5,6
26,65,39,-46,-6,52,5,-2,13,0,6,6
24,65,40,-45,-8,52,5,-1,14,0,6,6
24,65,40,-45,-8,52,5,0,15,0,6,6
27,66,38,-46,-5,52,6,0,15,1,6,7
28,66,37,-47,-4,52,6,1,16,1,7,7
28,66,37,-47,-3,52,5,1,16,1,7,7
28,65,37,-47,-4,51,5,1,16,2,7,7
