leadI,leadII,leadIII,leadaVR,leadaVL,leadaVF,leadV1,leadV2,leadV3,leadV4,leadV5,leadV6
1,0,-1,0,1,-1,2,4,0,-1,-1,-1
2,-1,-4,0,3,-3,6,11,-2,-3,-3,-3
4,-3,-7,0,5,-5,8,15,-3,-5,-5,-4
5,-5,-10,0,7,-8,9,16,-4,-6,-6,-5
7,-7,-15,0,10,-11,10,14,-5,-7,-7,-6
9,-9,-19,0,14,-14,11,10,-5,-8,-7,-7
10,-9,-20,0,15,-15,12,9,-5,-8,-7,-7
10,-9,-20,0,15,-14,12,10,-4,-7,-7,-7
10,-9,-19,-1,15,-14,13,14,-4,-7,-7,-7
11,-9,-20,-1,15,-14,13,19,-3,-8,-8,-8
13,-9,-21,-2,17,-15,14,22,-3,-8,-8,-9
14,-9,-23,-2,18,-16,14,23,-3,-8,-9,-10
14,-10,-24,-2,19,-17,15,21,-3,-8,-8,-9
14,-10,-24,-1,19,-17,15,18,-2,-7,-8,-8
13,-11,-24,-1,19,-17,14,15,-2,-7,-8,-8
14,-11,-25,-1,20,-18,13,14,-3,-8,-8,-9
15,-11,-26,-2,21,-18,12,16,-3,-8,-9,-9
16,-10,-26,-3,21,-18,12,20,-2,-8,-9,-9
17,-10,-26,-3,21,-18,12,23,-2,-8,-8,-9
17,-9,-25,-4,21,-17,12,24,-1,-7,-8,-9
16,-8,-25,-4,20,-16,12,23,0,-6,-7,-8
16,-8,-25,-4,20,-16,12,19,1,-5,-6,-8
16,-7,-25,-4,20,-16,11,15,1,-4,-5,-7
17,-7,-24,-5,20,-16,11,13,1,-4,-5,-7
16,-7,-23,-5,20,-15,10,12,1,-4,-5,-7
15,-7,-22,-4,19,-14,10,14,1,-3,-5,-7
15,-6,-21,-4,18,-13,9,16,2,-3,-4,-6
14,-6,-20,-4,17,-13,9,16,2,-2,-4,-5
12,-6,-18,-3,15,-12,9,15,3,-1,-3,-4
11,-6,-17,-2,14,-11,9,11,3,-1,-2,-3
11,-6,-17,-2,14,-11,8,7,3,-1,-1,-3
10,-6,-16,-2,13,-11,8,4,3,0,-1,-3
9,-4,-14,-3,11,-9,8,3,4,0,0,-2
8,-3,-11,-3,9,-7,9,4,5,1,0,-1
8,-2,-9,-3,8,-6,9,6,5,2,0,-1
7,-2,-9,-3,8,-5,8,6,5,2,1,0
7,-1,-8,-2,7,-5,8,5,6,3,1,0
6,-1,-8,-2,7,-4,7,2,7,3,2,0
5,-1,-6,-2,5,-3,7,0,7,3,3,0
4,1,-3,-2,4,-1,7,-2,8,5,4,2
5,3,-2,-4,3,0,8,-3,9,6,5,3
5,4,-1,-4,2,1,8,-2,9,6,6,4
3,4,0,-3,0,2,8,0,9,7,6,5
0,3,2,-1,-1,3,7,0,9,7,6,5
0,2,1,-1,0,2,7,0,9,7,6,5
2,3,0,-2,0,2,6,-2,9,7,6,5
2,3,1,-3,0,2,6,-5,9,7,6,5
1,3,2,-2,-1,3,6,-7,9,7,6,5
0,3,3,-2,-2,3,5,-8,9,7,6,5
0,3,3,-2,-2,3,4,-9,8,7,6,5
0,3,2,-2,-1,3,3,-9,7,6,6,4
0,3,2,-2,-1,3,3,-8,7,7,6,4
0,3,2,-2,-1,3,2,-7,7,7,6,4
0,3,2,-2,-1,3,2,-8,7,7,6,5
0,3,3,-1,-2,3,2,-9,7,7,6,5
0,3,5,-1,-3,4,2,-11,7,7,7,6
0,5,5,-2,-2,5,2,-12,7,8,7,6
2,7,5,-5,-1,6,3,-11,8,9,8,7
2,8,6,-5,-2,7,3,-10,9,10,8,8
0,8,7,-4,-3,7,4,-9,9,10,9,8
0,7,7,-4,-4,8,4,-8,10,11,9,8
0,7,7,-3,-4,7,4,-9,9,11,9,8
0,6,7,-3,-4,7,4,-10,9,11,9,8
0,6,6,-3,-3,6,4,-11,9,11,9,8
1,7,6,-4,-2,6,4,-12,9,11,9,8
2,8,5,-5,-2,6,4,-11,9,11,9,8
2,7,5,-5,-2,6,3,-10,8,10,9,8
2,6,4,-4,-2,5,3,-10,8,9,8,7
1,6,5,-4,-2,6,2,-9,8,9,8,7
0,6,6,-4,-3,6,2,-10,9,10,9,8
0,7,6,-4,-3,7,2,-11,9,10,9,8
1,8,6,-5,-2,7,2,-11,9,11,10,9
1,9,7,-5,-3,8,2,-12,9,11,10,9
1,9,8,-5,-3,8,1,-12,9,11,10,9
1,8,7,-4,-2,7,1,-12,9,10,9,8
1,7,6,-3,-2,6,1,-12,8,10,9,8
0,6,5,-2,-2,5,1,-11,8,10,8,8
-2,5,6,-1,-4,6,2,-10,8,10,8,8
-2,5,7,-1,-4,6,3,-10,8,10,9,9
0,6,6,-3,-3,6,3,-10,8,10,9,9
1,7,5,-4,-2,6,3,-11,8,10,8,8
2,7,5,-4,-2,6,3,-11,9,10,9,8
3,8,5,-5,-2,6,3,-10,9,10,9,8
3,8,6,-5,-2,7,3,-10,10,11,10,8
2,8,6,-5,-2,7,3,-9,10,11,10,9
1,8,7,-5,-3,7,3,-9,10,11,10,9
1,8,6,-5,-3,7,3,-10,9,11,10,9
0,7,6,-4,-3,6,2,-10,9,11,9,8
0,6,6,-3,-3,6,2,-11,9,11,9,8
-1,5,7,-2,-4,6,2,-11,9,11,9,8
-2,5,7,-1,-4,6,2,-10,9,10,9,8
-2,5,7,-1,-5,5,2,-10,9,10,9,8
-1,5,7,-2,-4,6,2,-9,9,10,8,8
-1,6,7,-3,-4,6,3,-7,10,10,8,8
0,7,7,-4,-4,7,4,-6,10,11,9,9
0,7,7,-4,-4,7,4,-5,10,11,9,9
-1,6,7,-3,-3,6,4,-5,10,10,9,8
-1,5,7,-2,-3,6,4,-6,9,10,9,8
-1,4,6,-1,-3,5,3,-7,9,9,9,8
-1,4,6,-1,-3,5,3,-7,8,9,9,8
-1,4,6,-1,-4,5,3,-7,9,9,9,8
-1,5,6,-2,-3,6,3,-6,9,10,9,8
0,7,6,-4,-2,7,4,-6,10,10,9,8
1,8,5,-5,-1,6,4,-6,10,9,9,8
2,7,4,-5,-1,6,4,-6,9,9,8,7
3,7,4,-5,0,6,4,-7,9,9,8,7
3,7,4,-5,0,6,4,-7,9,9,8,7
3,7,4,-5,0,6,4,-7,9,9,8,7
2,7,4,-4,-1,6,3,-8,9,9,7,7
1,6,4,-4,-1,6,3,-8,9,8,7,6
0,6,5,-3,-2,6,3,-8,9,8,7,6
0,6,6,-3,-3,6,4,-7,9,9,8,7
0,7,7,-3,-3,7,4,-7,10,9,8,7
0,7,7,-4,-3,8,4,-7,10,10,8,7
1,8,7,-5,-2,7,5,-6,10,10,8,7
3,8,6,-6,-1,7,5,-6,11,10,9,7
4,9,5,-6,0,7,6,-5,11,10,9,8
4,10,6,-7,-1,8,6,-4,11,10,10,8
4,11,6,-8,-1,9,7,-4,11,11,10,9
5,13,7,-9,-1,10,8,-3,11,11,10,9
5,13,7,-9,0,10,9,-3,11,12,10,9
5,13,6,-9,0,9,8,-3,11,12,10,9
6,12,6,-9,0,8,8,-3,11,12,10,8
7,12,5,-10,0,8,7,-4,12,12,10,8
7,12,5,-10,1,9,7,-4,12,12,10,8
7,12,5,-10,1,9,7,-4,12,12,10,8
7,13,4,-10,1,9,6,-3,12,11,10,8
7,13,5,-10,1,10,6,-3,11,11,10,8
5,12,6,-9,0,10,6,-3,11,11,9,8
4,12,7,-9,-1,10,6,-3,11,11,9,8
4,11,7,-8,-1,9,6,-3,11,11,10,8
4,12,8,-8,-2,10,6,-2,12,12,11,9
6,14,8,-10,-1,11,7,-1,13,13,12,10
9,16,7,-12,1,12,8,0,14,14,13,12
11,18,6,-14,3,12,7,-1,15,15,13,12
11,17,5,-14,3,11,5,-2,15,15,13,12
10,16,5,-13,2,11,4,-4,14,15,13,12
9,15,5,-12,1,10,3,-5,13,14,12,12
8,15,6,-12,1,10,2,-5,13,14,12,12
8,15,6,-12,0,11,3,-5,13,14,12,11
9,16,7,-12,0,12,3,-5,13,14,12,11
9,17,8,-13,0,12,4,-5,13,14,13,12
10,18,8,-13,1,12,4,-5,13,14,13,12
11,18,7,-14,1,12,4,-5,13,14,12,12
12,18,5,-14,2,11,3,-5,12,14,12,11
13,18,4,-15,4,11,2,-6,11,13,11,11
13,17,4,-15,4,10,2,-7,11,13,11,11
11,15,4,-13,3,10,2,-7,10,12,11,11
8,14,5,-11,1,10,2,-8,10,12,10,10
6,12,6,-9,0,9,1,-9,9,11,10,10
5,12,7,-8,-1,9,1,-9,9,10,10,10
5,12,7,-9,-1,10,2,-9,9,10,10,10
5,12,7,-9,-1,10,2,-9,9,10,10,10
4,12,8,-8,-2,10,2,-9,9,10,10,10
3,11,8,-8,-2,10,2,-9,9,10,10,10
2,10,8,-7,-3,9,2,-9,9,10,9,9
2,9,7,-6,-3,9,2,-10,8,9,8,8
1,9,7,-5,-3,8,2,-10,8,9,8,8
0,8,8,-4,-4,8,2,-10,7,9,7,7
-1,6,8,-2,-5,7,2,-11,6,8,6,6
-2,5,7,-1,-5,5,2,-12,5,7,5,5
-2,4,6,0,-5,5,2,-12,4,6,4,4
-4,3,8,0,-6,5,3,-12,4,6,4,4
-6,3,9,1,-8,6,3,-11,5,6,5,4
-7,3,11,2,-9,7,4,-11,5,7,5,4
-8,3,11,2,-10,7,5,-11,5,7,5,4
-8,3,11,2,-10,7,5,-11,5,7,5,4
-6,3,10,2,-9,7,5,-11,4,6,5,4
-5,3,9,1,-8,6,5,-12,4,6,5,4
-5,3,8,1,-7,6,5,-12,4,5,4,4
-6,3,8,2,-7,5,5,-12,4,5,4,4
-7,2,8,2,-8,5,5,-12,4,5,3,4
-7,1,8,2,-8,5,5,-12,3,4,3,3
-6,2,8,2,-7,5,4,-12,3,4,3,3
-5,2,8,1,-7,5,4,-12,3,5,3,2
-6,1,7,2,-7,4,4,-12,3,5,3,2
-7,1,8,3,-8,4,4,-12,3,5,3,2
-8,0,8,3,-8,4,4,-12,3,5,3,3
-9,0,9,4,-9,4,4,-12,3,5,3,3
-10,0,9,4,-9,4,5,-12,3,5,4,4
-10,0,10,4,-10,5,5,-12,3,5,4,4
-11,-1,9,5,-10,4,5,-12,2,5,3,4
-11,-2,9,6,-10,3,4,-12,2,4,3,3
-12,-2,10,7,-11,4,5,-12,2,4,3,3
-12,-1,10,7,-12,4,5,-11,2,4,3,3
-11,0,10,6,-11,5,6,-11,3,5,3,3
-10,0,10,5,-10,5,6,-12,3,5,3,3
-10,0,10,5,-9,5,5,-12,3,5,3,3
-9,0,9,4,-8,4,3,-13,2,5,3,3
-10,-1,8,5,-9,4,2,-14,2,5,2,3
-12,-3,9,7,-10,3,2,-14,1,4,2,3
-14,-4,9,8,-12,3,2,-13,1,4,2,3
-13,-4,9,8,-12,3,2,-13,1,4,2,3
-12,-4,8,8,-11,2,2,-13,1,3,1,2
-12,-4,8,8,-10,2,2,-13,0,2,0,1
-13,-4,8,8,-11,2,3,-12,0,2,0,1
-13,-3,9,8,-11,3,4,-12,1,3,1,2
-12,-2,9,7,-11,3,5,-12,1,3,2,2
-12,-2,8,7,-10,3,5,-13,1,3,1,2
-13,-4,8,8,-11,2,4,-13,0,3,1,2
-14,-6,8,9,-11,1,4,-13,0,2,0,1
-14,-7,7,11,-11,0,3,-12,0,1,0,0
-14,-8,6,11,-10,-1,2,-10,1,1,0,0
-14,-10,4,11,-9,-3,1,-8,2,2,0,-1
-12,-10,1,11,-7,-5,-1,-5,3,2,0,-1
-8,-9,-2,8,-2,-6,-2,-1,6,3,0,-1
0,-7,-7,3,4,-7,-2,4,10,5,2,0
8,-4,-12,-2,10,-8,-3,11,15,8,5,1
16,-1,-17,-8,16,-8,-5,19,23,13,9,3
24,1,-21,-13,22,-9,-8,27,30,18,13,5
31,4,-25,-18,28,-10,-12,33,38,23,18,8
39,9,-29,-24,34,-10,-17,38,46,29,23,11
46,15,-31,-31,38,-8,-23,41,54,35,29,16
51,20,-31,-36,41,-5,-29,43,61,42,36,21
57,25,-33,-41,45,-4,-36,43,68,48,42,25
64,29,-36,-47,50,-3,-44,41,72,53,47,29
70,34,-36,-52,53,-1,-53,39,77,58,53,34
70,40,-29,-56,49,5,-59,37,84,65,60,40
63,46,-16,-55,39,15,-64,29,86,70,66,47
54,50,-3,-53,29,23,-69,14,81,70,68,51
46,51,5,-49,20,28,-73,-4,69,65,65,51
37,49,12,-43,13,30,-75,-26,51,55,57,49
25,45,18,-35,4,31,-74,-49,30,42,47,44
13,40,25,-27,-6,32,-72,-72,9,29,36,38
3,34,30,-19,-13,32,-71,-90,-9,18,26,33
-5,28,32,-12,-19,31,-72,-103,-23,8,18,28
-11,23,34,-6,-22,29,-72,-111,-34,1,12,24
-15,18,34,-2,-24,27,-70,-113,-40,-5,6,20
-18,15,34,1,-26,24,-66,-112,-44,-8,2,17
-21,13,35,3,-28,24,-60,-107,-44,-10,0,16
-22,14,35,4,-29,24,-54,-101,-42,-10,0,15
-21,15,35,2,-29,25,-48,-93,-39,-9,0,15
-20,16,35,1,-28,26,-42,-86,-36,-8,0,15
-19,15,35,2,-28,26,-38,-79,-34,-7,0,15
-19,14,34,2,-27,24,-35,-73,-32,-6,0,14
-18,12,32,3,-25,22,-32,-69,-31,-6,0,12
-18,11,30,3,-24,20,-29,-65,-29,-6,-1,11
-18,9,28,4,-23,18,-26,-61,-29,-7,-2,9
-19,6,26,6,-22,16,-23,-57,-28,-8,-3,8
-20,4,24,8,-22,14,-20,-53,-26,-8,-3,6
-21,2,23,9,-22,12,-17,-48,-24,-8,-4,5
-21,0,22,10,-22,11,-14,-43,-22,-8,-4,5
-22,0,22,10,-22,11,-11,-38,-19,-7,-3,4
-22,0,22,10,-22,11,-9,-35,-17,-6,-3,4
-22,0,22,10,-22,11,-6,-32,-15,-4,-2,4
-21,0,21,10,-21,10,-5,-31,-14,-3,-1,4
-20,0,19,10,-20,9,-4,-30,-13,-3,-1,4
-19,0,18,10,-19,8,-4,-30,-13,-3,-1,3
-19,-1,18,10,-19,8,-4,-29,-13,-3,-1,3
-20,-2,18,10,-19,8,-3,-28,-13,-4,-1,3
-21,-3,18,11,-20,7,-3,-27,-12,-4,-2,2
-21,-4,18,12,-20,7,-4,-26,-13,-4,-3,1
-21,-5,18,12,-19,7,-3,-26,-13,-4,-4,1
-21,-5,18,12,-19,7,-3,-25,-12,-4,-4,1
-20,-3,17,11,-19,7,-2,-25,-12,-4,-4,1
-19,-2,17,10,-18,7,-2,-24,-12,-3,-3,1
-18,-1,16,9,-17,7,-2,-23,-11,-3,-3,1
-17,-1,16,9,-17,7,-2,-22,-11,-3,-3,1
-17,-1,15,9,-16,7,-1,-22,-10,-3,-3,1
-17,-1,16,9,-17,7,-1,-21,-10,-3,-3,1
-19,-1,17,10,-18,8,0,-20,-9,-3,-3,1
-20,-2,17,11,-19,8,0,-20,-9,-3,-3,1
-20,-3,17,11,-19,7,0,-20,-9,-3,-3,1
-21,-3,17,12,-19,7,0,-20,-9,-3,-3,0
-20,-3,17,11,-19,7,0,-20,-9,-3,-3,0
-18,-3,16,10,-17,6,0,-20,-9,-3,-3,0
-17,-3,14,10,-16,6,0,-19,-9,-4,-3,0
-17,-3,14,10,-16,6,0,-19,-9,-4,-3,0
-18,-4,14,10,-16,5,0,-18,-10,-4,-3,0
-18,-4,14,11,-16,5,0,-18,-10,-4,-4,0
-17,-4,13,10,-16,5,-1,-18,-11,-4,-4,0
-17,-4,13,10,-15,5,-1,-18,-11,-4,-4,0
-17,-5,13,11,-16,5,-2,-17,-11,-5,-4,0
-18,-5,14,12,-17,5,-1,-17,-11,-5,-4,0
-19,-5,15,12,-17,5,-1,-16,-10,-5,-4,0
-19,-5,14,12,-17,5,0,-16,-10,-5,-5,-1
-17,-4,13,11,-15,4,0,-16,-10,-6,-5,-1
-15,-4,11,9,-13,4,0,-16,-11,-6,-5,-1
-14,-3,11,9,-13,4,0,-16,-11,-6,-5,-1
-14,-3,11,8,-13,4,1,-15,-11,-6,-5,-1
-14,-3,11,8,-13,4,1,-15,-11,-6,-5,-1
-14,-3,11,8,-13,3,0,-14,-12,-6,-5,-1
-15,-4,11,9,-13,3,0,-13,-11,-6,-5,-1
-16,-4,11,10,-14,3,1,-12,-11,-6,-5,-1
-16,-6,10,11,-14,2,1,-11,-11,-6,-5,-1
-16,-7,9,11,-13,1,0,-11,-11,-7,-6,-2
-16,-7,9,11,-12,0,1,-10,-11,-7,-6,-2
-15,-6,9,11,-12,1,2,-9,-10,-7,-6,-2
-14,-5,8,9,-11,1,2,-8,-10,-7,-6,-2
-12,-5,8,8,-10,1,2,-7,-10,-7,-6,-2
-12,-4,8,8,-10,1,3,-6,-10,-7,-6,-2
-12,-4,8,8,-10,1,3,-5,-10,-7,-6,-2
-11,-4,7,7,-10,1,4,-3,-10,-7,-6,-2
-11,-4,7,8,-9,1,4,-2,-9,-7,-6,-2
-12,-6,6,9,-9,0,4,-1,-9,-7,-6,-2
-11,-7,4,10,-8,-1,3,0,-10,-8,-7,-3
-9,-7,2,9,-6,-2,3,0,-10,-8,-8,-4
-9,-7,2,9,-6,-2,4,2,-9,-8,-8,-5
-10,-8,2,9,-6,-2,5,3,-9,-8,-8,-5
-9,-8,1,8,-6,-3,6,3,-9,-8,-8,-6
-9,-9,0,8,-5,-4,6,4,-9,-9,-9,-6
-8,-9,-1,8,-3,-5,7,5,-9,-9,-9,-6
-7,-9,-3,8,-2,-6,7,6,-9,-9,-10,-7
-5,-9,-4,8,0,-6,8,7,-9,-10,-10,-7
-4,-9,-5,7,1,-7,8,8,-9,-10,-11,-8
-4,-10,-6,7,2,-8,9,10,-9,-11,-11,-8
-3,-10,-7,7,2,-9,10,11,-9,-11,-12,-9
-3,-11,-8,7,3,-10,10,13,-9,-12,-12,-9
-2,-12,-10,7,4,-11,11,14,-10,-12,-13,-10
-2,-13,-12,7,5,-13,11,15,-10,-13,-13,-11
0,-14,-13,7,6,-14,12,16,-10,-13,-13,-11
0,-14,-15,7,8,-14,12,18,-10,-13,-14,-12
1,-15,-16,7,9,-15,12,18,-11,-14,-14,-12
1,-16,-18,8,10,-17,12,19,-11,-15,-15,-13
3,-16,-20,7,11,-18,13,20,-11,-15,-16,-14
5,-16,-21,5,13,-18,13,21,-11,-16,-16,-14
6,-16,-23,4,14,-19,13,22,-11,-16,-16,-15
8,-16,-24,4,15,-20,13,23,-11,-16,-16,-15
9,-16,-26,3,17,-21,13,24,-11,-16,-16,-15
9,-17,-27,3,18,-22,12,24,-11,-17,-17,-16
9,-18,-27,4,18,-22,12,25,-11,-17,-17,-16
8,-18,-27,5,18,-22,13,25,-10,-17,-17,-17
8,-19,-27,5,18,-23,13,26,-10,-17,-18,-17
9,-20,-28,5,18,-24,13,26,-10,-18,-18,-18
10,-19,-29,4,19,-24,13,26,-10,-18,-18,-18
10,-19,-29,4,19,-24,13,26,-10,-17,-18,-17
11,-18,-30,3,20,-24,12,25,-10,-17,-17,-17
12,-17,-30,3,21,-24,12,25,-10,-16,-17,-16
13,-17,-31,3,21,-24,12,24,-9,-16,-16,-16
13,-17,-31,2,22,-24,11,24,-8,-16,-16,-15
14,-17,-31,2,22,-24,10,23,-8,-16,-16,-15
14,-17,-31,2,22,-24,9,22,-8,-16,-16,-15
12,-17,-30,2,21,-24,8,22,-8,-15,-15,-15
10,-17,-27,3,18,-23,8,21,-7,-14,-14,-15
7,-18,-25,5,15,-22,7,20,-7,-13,-14,-15
3,-19,-23,7,13,-21,7,19,-6,-13,-14,-15
1,-19,-21,9,11,-20,7,17,-6,-12,-13,-14
1,-17,-19,8,11,-19,6,15,-5,-12,-13,-13
2,-15,-18,6,11,-17,6,14,-5,-11,-12,-12
4,-12,-17,4,11,-15,6,14,-4,-10,-11,-11
5,-11,-17,3,11,-14,5,13,-3,-9,-10,-10
4,-10,-16,3,10,-13,4,13,-3,-8,-9,-10
3,-10,-14,3,9,-12,4,12,-2,-7,-8,-9
3,-9,-13,3,8,-11,3,12,-2,-7,-8,-8
2,-9,-12,3,8,-11,3,11,-2,-6,-7,-8
1,-10,-11,4,7,-11,2,10,-1,-6,-7,-7
0,-10,-10,4,6,-10,1,8,-1,-6,-7,-7
-1,-10,-9,5,4,-9,0,7,-1,-5,-7,-7
-1,-9,-7,4,3,-8,0,7,0,-5,-6,-7
-1,-8,-7,4,2,-7,0,6,0,-4,-6,-6
-1,-7,-7,3,2,-7,0,6,0,-4,-5,-6
-1,-5,-6,3,2,-6,0,5,1,-3,-4,-5
-1,-4,-4,2,1,-4,0,5,1,-2,-3,-4
0,-2,-3,2,1,-3,0,4,2,-1,-2,-3
0,-1,-1,1,0,-1,0,3,3,0,-1,-2
0,-1,-1,1,0,-1,0,2,3,0,-1,-1
-1,-1,0,1,-1,-1,0,2,3,0,-1,-1
-3,-1,1,2,-2,-1,-1,1,3,0,-1,-1
-4,-2,1,2,-3,-1,-2,1,3,0,-1,-1
-3,-2,0,3,-3,-2,-3,0,2,0,-1,-2
-3,-2,0,3,-2,-2,-3,0,2,0,-1,-2
-4,-2,0,3,-2,-1,-3,0,2,0,-1,-1
-4,-2,0,4,-2,-1,-3,0,2,0,-1,-1
-5,-2,1,4,-3,-1,-3,0,2,0,-1,-1
-6,-2,2,4,-4,0,-3,-1,2,0,0,0
-8,-2,4,5,-6,0,-3,-1,3,1,0,0
-9,-2,5,5,-7,1,-3,-1,3,1,0,0
-8,-3,5,5,-7,0,-4,-2,3,2,0,1
-7,-3,4,5,-6,0,-4,-2,3,2,0,1
-6,-3,3,5,-5,0,-5,-3,3,1,0,0
-5,-3,2,5,-4,0,-5,-3,3,1,0,0
-5,-3,2,5,-3,-1,-5,-3,2,1,0,0
-5,-3,1,4,-3,-1,-5,-3,2,1,0,0
-3,-2,0,2,-1,-1,-4,-3,2,1,0,0
-2,-1,0,1,-1,0,-3,-3,2,2,0,1
-2,0,2,0,-2,0,-2,-2,3,3,1,1
-2,1,3,0,-2,1,-2,-2,4,3,2,2
-2,1,3,1,-3,1,-2,-1,5,3,2,2
-4,-1,3,3,-4,1,-2,-2,4,3,2,2
-7,-2,4,5,-5,1,-2,-2,4,3,2,2
-8,-3,4,6,-6,0,-2,-2,3,3,1,1
-7,-4,2,5,-5,0,-2,-3,2,2,1,0
-4,-3,1,3,-3,-1,-3,-4,2,2,0,0
-2,-1,0,1,-2,0,-3,-4,2,2,0,0
-1,-1,0,1,-1,0,-3,-4,2,2,0,0
-1,0,1,1,-2,0,-2,-4,2,2,1,0
-1,0,1,1,-2,0,-2,-4,3,3,1,1
-1,0,1,1,-1,0,-1,-4,3,3,2,1
-1,0,0,1,0,0,-1,-4,3,3,2,1
-1,0,0,1,0,0,-1,-4,3,3,2,1
0,0,0,0,0,0,-1,-4,3,3,2,1
-1,0,0,0,0,0,-1,-3,3,3,2,1
-2,-1,1,1,-1,0,0,-3,3,2,1,1
-3,-1,1,2,-2,-1,0,-3,3,2,1,1
-2,-1,1,2,-2,-1,0,-3,3,2,1,1
-2,-1,0,2,-1,0,1,-3,4,2,1,1
-2,-1,0,2,-1,0,1,-3,4,2,1,1
-3,-1,1,2,-2,0,1,-3,4,2,1,1
-3,-1,2,2,-2,0,2,-2,4,3,1,1
-3,0,2,2,-2,0,2,-2,4,3,2,1
-2,0,2,2,-2,0,3,-2,3,3,2,1
-3,-2,1,3,-3,0,3,-2,3,2,1,1
-5,-3,1,4,-3,0,3,-2,2,2,1,1
-5,-3,1,4,-3,0,3,-2,2,2,1,1
-4,-2,1,3,-3,0,4,0,3,3,1,1
-3,-1,2,2,-3,1,5,0,3,3,2,2
-3,-1,2,2,-3,1,6,1,3,3,2,2
-1,0,2,0,-2,1,6,0,3,3,1,1
0,0,1,0,-1,1,6,0,3,3,1,1
-1,1,2,0,-2,1,6,0,4,3,2,2
-1,1,3,0,-2,2,7,0,5,4,2,2
-2,2,4,0,-3,2,7,0,5,4,3,3
-2,2,4,0,-3,3,8,0,5,4,3,3
-2,2,4,0,-3,3,8,0,5,4,3,3
-2,1,4,0,-3,3,8,0,5,3,3,2
-3,1,4,1,-3,2,8,0,4,3,3,2
-3,1,4,1,-3,2,8,0,4,3,3,2
-4,1,5,1,-4,3,8,1,4,3,3,2
-3,1,4,1,-4,3,8,1,4,2,3,1
-1,1,3,0,-2,2,8,0,3,2,2,1
0,1,1,-1,-1,2,8,0,3,1,2,0
0,2,2,-1,-1,2,9,1,3,2,2,1
0,3,3,-1,-1,3,10,2,4,2,3,1
0,4,4,-2,-1,4,11,2,4,3,3,2
0,4,4,-2,-1,4,11,2,4,3,3,2
0,3,3,-1,-1,3,10,1,4,2,2,1
0,3,3,-1,-1,3,10,1,5,2,2,1
1,4,3,-2,0,3,11,1,5,3,3,2
2,5,3,-3,-1,4,11,2,6,4,3,3
2,6,3,-4,0,4,11,2,6,5,4,3
3,8,4,-5,0,6,12,3,8,6,5,4
4,10,6,-6,-1,8,14,4,9,7,6,5
5,11,6,-7,0,8,14,5,10,7,7,6
6,10,4,-8,1,7,13,4,9,6,6,5
6,9,2,-7,2,5,13,4,8,5,5,4
5,8,3,-6,1,5,13,3,7,5,5,4
4,8,3,-6,0,5,13,3,7,5,5,4
3,8,4,-6,0,6,12,2,7,5,5,4
4,9,4,-7,0,6,12,2,7,6,6,4
6,10,3,-8,1,7,12,2,7,6,6,4
7,11,3,-9,2,7,11,2,8,7,6,5
8,12,3,-10,2,7,11,3,8,7,7,5
9,13,3,-11,3,7,11,3,9,8,7,6
11,14,3,-12,4,8,11,4,10,8,8,6
12,15,3,-13,4,8,11,4,11,9,8,7
13,15,2,-14,5,8,11,4,11,10,9,7
15,16,1,-15,6,8,11,4,11,10,9,7
14,16,1,-15,6,9,11,3,11,10,9,7
13,16,3,-14,5,10,11,3,11,10,10,7
13,16,3,-14,5,10,11,1,11,9,10,8
14,16,2,-15,6,9,10,0,10,9,9,8
14,16,1,-15,7,9,9,0,10,9,9,8
13,15,1,-14,6,8,8,-1,9,9,9,8
13,13,0,-13,6,7,7,-2,9,8,9,7
13,13,0,-13,6,7,7,-2,8,8,9,6
13,13,0,-13,6,7,7,-2,8,8,9,7
12,13,1,-13,6,7,7,-2,8,8,8,6
11,13,1,-12,5,7,6,-3,7,8,7,6
10,12,1,-11,5,6,6,-3,7,8,7,6
9,11,1,-10,4,6,6,-3,7,8,7,6
9,11,2,-10,3,6,6,-3,7,8,7,6
9,10,1,-9,3,6,6,-3,7,7,7,6
8,9,1,-9,3,5,6,-3,7,7,7,6
8,8,1,-8,3,5,7,-3,7,6,7,5
7,8,1,-7,2,5,7,-3,7,6,7,5
5,7,2,-6,1,5,8,-3,7,6,7,5
4,6,2,-4,1,4,8,-4,6,6,6,5
3,5,2,-4,0,4,8,-5,5,5,6,4
2,5,3,-4,0,4,8,-6,5,4,5,4
2,5,4,-4,0,4,9,-6,5,5,5,4
2,5,4,-4,-1,5,10,-6,5,5,5,4
2,4,3,-4,0,4,11,-5,5,5,5,3
1,3,2,-3,0,3,11,-5,4,5,4,2
1,3,2,-3,-1,4,11,-5,4,4,4,2
0,4,3,-3,-1,4,11,-5,5,5,4,3
1,5,4,-3,-1,5,11,-4,5,5,4,3
2,5,3,-3,-1,4,11,-4,4,4,4,3
2,4,2,-3,0,3,10,-5,3,3,3,2
1,3,2,-2,-1,2,10,-5,3,3,2,1
-1,2,3,-1,-3,2,11,-5,3,3,2,1
-3,2,5,0,-4,3,11,-5,4,4,3,2
-4,1,5,0,-5,3,11,-6,4,3,3,2
-4,1,5,0,-5,3,10,-6,4,3,3,2
-3,2,5,0,-4,3,10,-6,4,4,3,2
-2,3,5,0,-3,3,9,-6,4,4,3,2
-1,3,4,0,-2,3,9,-6,4,3,3,2
0,3,3,0,-2,2,8,-6,4,3,3,2
-1,2,3,0,-2,2,8,-6,4,3,3,2
-2,2,4,0,-3,2,8,-6,4,4,3,3
-1,3,3,-1,-2,3,8,-6,4,4,3,3
0,3,3,-2,-1,3,8,-6,4,3,2,2
-1,3,3,-1,-2,3,8,-7,4,3,2,2
-1,3,3,0,-2,3,8,-7,3,3,2,2
-2,2,3,0,-2,2,8,-7,3,3,2,1
-2,1,3,1,-3,2,8,-7,3,3,2,1
-3,1,3,1,-3,2,8,-7,3,2,1,1
-4,0,3,2,-4,1,7,-8,2,1,1,0
-4,-1,3,2,-4,1,7,-8,1,1,0,0
-6,-2,4,4,-5,0,6,-8,0,0,0,0
-7,-3,4,5,-6,0,6,-8,0,0,0,0
-7,-3,5,5,-6,0,6,-8,0,0,0,0
-6,-1,5,4,-5,1,6,-8,0,0,0,0
-4,0,5,3,-4,2,7,-8,1,1,0,0
-3,2,4,1,-4,2,7,-7,1,1,1,0
-2,2,4,0,-3,3,7,-7,2,2,1,0
-2,3,5,0,-3,3,7,-6,2,2,2,1
-4,2,6,0,-5,4,8,-6,3,2,2,1
-5,2,6,1,-5,4,8,-6,3,2,2,1
-5,1,6,2,-5,3,7,-6,2,2,1,1
-4,1,5,2,-4,3,7,-6,2,2,1,1
-3,0,3,1,-3,2,6,-6,2,2,1,1
-3,0,3,2,-3,2,6,-5,2,1,0,1
-4,-1,3,2,-3,1,5,-3,3,1,0,0
-1,-1,0,1,-1,0,5,0,4,1,0,0
3,0,-3,-1,3,-1,4,3,6,2,0,0
6,0,-5,-3,6,-3,3,7,8,3,1,-1
10,1,-8,-5,10,-4,2,11,12,4,2,0
14,1,-13,-7,14,-6,0,16,16,6,4,0
19,2,-18,-10,19,-8,-1,22,21,10,7,0
26,4,-23,-15,25,-9,-5,28,28,14,11,2
35,8,-27,-21,31,-9,-9,35,35,20,16,5
45,13,-31,-29,38,-8,-15,40,44,26,22,9
55,20,-34,-38,45,-7,-21,44,51,32,28,13
64,26,-37,-46,51,-6,-28,47,58,38,33,17
73,31,-40,-52,57,-5,-35,48,64,43,38,21
80,36,-43,-58,62,-4,-43,47,69,48,43,24
85,41,-44,-62,65,-2,-51,45,73,52,48,28
86,46,-40,-65,63,3,-58,41,78,58,54,34
79,52,-28,-65,54,12,-64,32,80,63,60,41
69,55,-15,-62,42,20,-68,18,76,64,63,45
60,56,-4,-58,32,26,-72,1,65,59,61,47
49,53,3,-51,23,28,-74,-19,48,50,54,44
36,47,10,-42,13,28,-74,-43,27,37,43,39
23,40,17,-32,4,28,-72,-67,5,23,32,33
12,35,22,-24,-4,28,-72,-87,-13,11,21,28
5,31,24,-18,-9,27,-73,-101,-28,2,14,23
3,29,25,-16,-10,27,-72,-109,-37,-4,9,20
1,27,25,-14,-11,26,-68,-111,-42,-8,5,18
-3,24,27,-11,-15,26,-62,-108,-43,-9,3,16
-7,22,29,-8,-18,26,-56,-102,-41,-10,2,15
-9,22,31,-7,-19,26,-50,-95,-39,-9,1,14
-10,22,32,-7,-20,27,-44,-87,-37,-8,1,14
-11,22,34,-6,-22,27,-38,-80,-34,-7,1,14
-13,22,35,-4,-23,28,-33,-74,-32,-6,1,14
-13,21,34,-3,-23,27,-29,-70,-30,-5,1,13
-13,19,32,-2,-22,25,-27,-66,-29,-5,0,12
-12,18,30,-2,-21,24,-24,-62,-28,-5,0,11
-12,16,28,-2,-19,22,-22,-57,-27,-5,0,9
-12,13,26,-1,-18,19,-19,-53,-26,-6,-1,7
-11,10,23,0,-17,16,-16,-48,-25,-8,-2,5
-10,9,20,1,-15,14,-13,-43,-23,-8,-3,4
-10,8,19,2,-15,13,-9,-39,-20,-8,-3,3
-11,6,18,3,-14,12,-6,-35,-18,-8,-3,2
-12,5,17,4,-14,11,-4,-32,-16,-7,-3,2
-11,5,16,3,-13,11,-3,-31,-15,-6,-3,1
-10,5,16,2,-12,10,-2,-29,-14,-5,-2,2
-10,5,16,2,-12,10,-2,-28,-13,-4,-2,2
-11,4,16,3,-13,10,-1,-27,-12,-4,-2,2
-11,4,15,3,-13,9,0,-25,-12,-4,-2,2
-11,4,15,3,-13,9,1,-24,-12,-4,-2,1
-10,4,14,3,-12,9,2,-23,-11,-4,-2,1
-10,3,14,4,-11,9,2,-23,-11,-4,-2,1
-11,2,14,5,-12,8,2,-23,-10,-4,-2,1
-12,1,14,6,-12,8,2,-22,-10,-4,-2,1
-12,0,14,6,-12,7,2,-22,-10,-3,-1,1
-12,0,13,5,-12,7,2,-21,-9,-3,-1,1
-11,0,13,5,-12,6,2,-20,-9,-3,-1,1
-11,1,13,4,-12,6,2,-20,-9,-3,-1,0
-10,2,13,4,-12,7,3,-19,-9,-3,-1,0
-10,2,13,4,-11,7,3,-19,-9,-3,-2,0
-11,2,13,5,-11,7,3,-19,-9,-3,-2,0
-11,2,13,5,-11,7,3,-19,-9,-3,-3,0
-11,2,13,5,-11,7,3,-19,-9,-3,-3,-1
-12,1,13,5,-12,7,2,-19,-9,-3,-4,-1
-13,0,12,6,-12,6,1,-19,-9,-3,-4,-2
-13,-2,11,8,-12,4,1,-19,-10,-4,-5,-3
-13,-3,11,9,-12,3,1,-18,-11,-5,-5,-3
-12,-2,11,8,-11,3,2,-18,-10,-5,-5,-2
-10,0,10,5,-10,4,3,-17,-10,-4,-4,-1
-8,2,10,3,-9,6,3,-16,-9,-3,-3,0
-8,2,11,3,-9,7,4,-15,-8,-3,-2,0
-9,2,11,4,-10,7,4,-15,-8,-3,-2,0
-9,2,11,3,-10,7,5,-14,-8,-3,-2,0
-8,2,11,2,-9,7,5,-14,-8,-3,-2,0
-8,2,11,3,-10,6,5,-13,-8,-3,-2,0
-9,0,11,4,-10,5,4,-13,-9,-4,-3,0
-10,0,10,5,-10,4,4,-13,-9,-5,-4,-1
-10,0,10,5,-10,4,3,-13,-9,-5,-5,-1
-10,0,10,5,-10,4,3,-12,-9,-5,-4,-1
-9,0,10,4,-10,5,4,-11,-9,-5,-4,-1
-9,0,9,3,-10,5,4,-11,-9,-5,-4,-1
-9,0,9,3,-9,4,4,-11,-9,-5,-4,-2
-8,0,8,3,-8,4,4,-11,-9,-5,-4,-2
-6,0,7,2,-7,3,4,-11,-9,-5,-4,-2
-4,1,6,1,-5,3,4,-10,-9,-5,-4,-2
-3,0,5,1,-4,2,4,-9,-10,-6,-5,-3
-4,0,4,3,-4,1,4,-7,-10,-6,-5,-3
-6,-1,5,4,-5,1,4,-5,-9,-6,-5,-4
-8,-2,5,5,-6,1,4,-4,-9,-6,-5,-4
-8,-2,5,5,-6,1,5,-3,-9,-6,-5,-4
-7,-2,5,4,-6,1,5,-2,-8,-5,-5,-4
-5,-1,5,3,-5,1,6,-1,-8,-4,-4,-3
-4,0,4,2,-4,1,7,0,-7,-4,-4,-2
-3,-1,4,3,-3,1,8,0,-7,-4,-4,-2
-3,-1,3,3,-3,0,8,1,-7,-4,-5,-2
-3,-1,1,2,-1,0,8,2,-7,-5,-5,-2
-2,-1,0,2,0,-1,8,2,-7,-5,-5,-2
-1,-2,-1,2,0,-2,9,3,-7,-5,-5,-3
-1,-3,-2,2,0,-3,9,4,-7,-5,-5,-4
-1,-4,-3,3,0,-4,9,5,-7,-5,-6,-5
-1,-5,-4,3,1,-5,9,6,-7,-6,-6,-6
-1,-6,-5,3,2,-6,10,8,-7,-6,-7,-6
0,-6,-6,3,3,-7,10,9,-7,-7,-7,-7
1,-7,-8,3,5,-8,11,11,-8,-8,-8,-8
1,-8,-10,4,6,-9,12,12,-8,-9,-8,-8
1,-9,-11,4,6,-10,13,14,-8,-9,-9,-9
1,-10,-12,4,7,-11,14,16,-8,-10,-9,-9
3,-10,-13,4,8,-12,15,18,-8,-10,-9,-9
4,-10,-14,3,9,-13,15,19,-8,-10,-9,-9
6,-9,-15,1,10,-13,16,19,-8,-10,-9,-9
7,-10,-17,1,12,-14,16,20,-8,-10,-10,-9
7,-11,-18,2,13,-15,16,21,-8,-10,-10,-10
7,-12,-20,2,14,-16,16,22,-7,-10,-10,-10
8,-13,-21,2,15,-17,16,24,-7,-11,-10,-11
10,-12,-23,1,17,-18,16,26,-7,-11,-11,-11
13,-11,-25,0,19,-18,16,27,-7,-11,-11,-12
14,-12,-26,-1,20,-19,16,28,-7,-12,-12,-13
13,-13,-26,0,19,-20,16,29,-7,-12,-13,-14
11,-15,-26,2,18,-21,16,30,-7,-13,-13,-14
11,-16,-27,2,19,-22,15,30,-8,-13,-14,-15
12,-17,-29,3,20,-24,15,29,-8,-14,-14,-16
13,-17,-31,2,22,-25,14,29,-8,-14,-15,-16
14,-17,-33,2,23,-26,14,29,-8,-14,-15,-17
15,-17,-33,2,24,-26,13,30,-7,-14,-15,-17
16,-17,-33,1,24,-26,13,31,-7,-14,-15,-17
17,-17,-33,0,25,-26,13,31,-7,-15,-15,-16
16,-17,-33,1,25,-26,12,31,-7,-15,-15,-16
16,-17,-33,1,24,-25,12,31,-7,-14,-14,-16
18,-15,-33,-1,25,-24,12,31,-6,-13,-13,-15
20,-13,-34,-3,27,-24,12,30,-5,-13,-13,-14
21,-13,-35,-3,28,-25,10,29,-5,-13,-13,-14
20,-14,-34,-2,28,-25,9,28,-5,-13,-13,-14
19,-15,-34,-1,27,-25,9,27,-5,-13,-13,-14
18,-15,-33,-1,25,-24,8,26,-4,-12,-12,-14
17,-14,-31,-1,24,-23,8,26,-3,-11,-12,-14
15,-14,-29,0,22,-22,7,25,-3,-10,-11,-13
14,-13,-27,0,20,-21,7,24,-2,-9,-10,-13
13,-12,-25,0,19,-19,6,24,-1,-7,-9,-12
13,-10,-23,-1,19,-17,6,23,0,-5,-7,-11
12,-10,-22,-1,17,-16,5,21,0,-5,-7,-10
10,-10,-21,0,15,-16,4,19,0,-5,-7,-10
9,-11,-20,1,14,-16,3,17,0,-5,-7,-10
9,-10,-20,0,14,-16,2,16,0,-5,-6,-9
9,-9,-18,0,13,-14,2,14,0,-4,-6,-8
7,-9,-17,1,12,-14,1,12,0,-4,-6,-8
5,-10,-15,2,10,-13,0,11,0,-3,-5,-7
3,-10,-14,3,9,-13,0,9,0,-2,-4,-7
3,-9,-13,3,8,-11,-1,8,1,-1,-3,-6
4,-7,-12,1,8,-10,-1,8,2,-1,-2,-5
5,-5,-11,0,8,-9,-1,7,2,0,-2,-4
5,-5,-10,0,8,-8,-2,7,3,0,-1,-4
4,-5,-10,1,7,-8,-2,6,3,0,-1,-4
3,-6,-9,2,6,-8,-3,5,2,0,-1,-4
1,-6,-8,2,4,-8,-3,4,2,0,-1,-3
1,-5,-6,2,3,-7,-3,4,3,0,0,-3
1,-4,-6,1,3,-6,-3,3,4,1,0,-2
1,-4,-5,1,3,-5,-4,2,4,1,0,-2
0,-4,-4,2,2,-5,-4,1,3,1,0,-2
0,-4,-3,2,1,-5,-3,1,3,1,0,-2
-1,-4,-3,3,0,-4,-3,1,4,1,1,-1
-1,-4,-2,3,0,-4,-4,0,4,2,1,-1
0,-3,-2,2,1,-4,-4,0,3,2,1,-1
0,-3,-2,1,1,-4,-4,0,3,1,0,-1
-1,-3,-2,2,1,-4,-4,-1,2,1,0,0
-1,-3,-2,2,0,-4,-4,-1,2,2,1,0
-1,-2,-1,1,0,-3,-4,-1,3,2,2,0
0,-1,-1,1,0,-2,-4,-1,4,3,2,0
-1,-1,-1,1,0,-2,-5,-2,4,3,2,0
-1,-1,0,1,0,-2,-5,-2,4,3,2,0
0,0,0,0,0,-1,-5,-2,4,4,2,1
0,0,0,0,0,0,-5,-2,4,4,3,1
-1,0,0,0,0,-1,-5,-2,4,4,3,1
-2,-1,0,1,-1,-1,-6,-2,3,4,2,1
-3,-2,0,2,-1,-1,-6,-3,2,3,2,1
-4,-3,0,3,-2,-2,-7,-3,2,3,2,0
-5,-5,0,5,-2,-3,-7,-4,1,2,1,0
-6,-6,0,7,-3,-4,-8,-4,1,2,1,0
-7,-7,0,7,-3,-4,-8,-5,1,2,1,-1
-7,-7,0,7,-3,-4,-8,-5,1,2,1,-1
-6,-6,0,6,-3,-3,-7,-4,2,3,2,-1
-6,-5,0,6,-3,-3,-7,-4,2,3,2,-1
-6,-5,0,5,-3,-3,-7,-4,2,3,2,-1
-5,-4,1,4,-3,-2,-7,-3,3,3,2,0
-3,-3,1,3,-2,-1,-7,-3,3,4,3,0
-2,-2,1,2,-1,-1,-7,-3,3,4,3,1
-2,-2,1,2,-1,-1,-7,-3,3,3,3,1
-2,-1,1,2,-1,-1,-6,-3,3,3,3,1
-2,-1,1,1,-1,-1,-6,-3,4,3,3,1
-2,-1,1,1,-1,-1,-5,-3,4,3,3,1
-2,-1,1,1,-1,0,-5,-2,4,3,3,1
-1,0,1,0,-1,0,-5,-2,4,4,3,1
0,0,1,1,-1,0,-5,-1,4,4,3,1
-1,-1,0,2,-1,-1,-6,-2,4,3,3,1
-1,-2,0,2,-1,-2,-6,-3,3,3,2,0
-1,-2,-1,2,0,-2,-7,-3,3,2,2,0
0,-2,-1,1,1,-2,-7,-3,3,2,2,0
0,-2,-2,1,1,-2,-6,-3,3,2,2,0
0,-3,-2,1,1,-3,-6,-3,2,2,2,0
-2,-4,-2,3,0,-3,-6,-3,2,1,2,-1
-2,-4,-1,3,0,-3,-5,-3,2,1,2,-1
-3,-4,-1,4,-1,-3,-5,-2,2,1,2,-1
-4,-4,-1,4,-1,-3,-5,-2,2,1,1,-1
-4,-5,-1,5,-1,-3,-5,-1,2,2,1,-1
-4,-4,0,4,-2,-2,-4,0,3,3,2,0
-6,-4,1,5,-3,-2,-4,1,4,3,2,0
-7,-5,1,6,-3,-2,-4,0,3,3,2,0
-6,-5,0,6,-3,-3,-5,-1,3,2,1,-1
-5,-6,-1,6,-2,-4,-5,-1,2,1,0,-2
-6,-6,-1,7,-3,-4,-5,-2,2,1,0,-2
-6,-6,0,7,-3,-4,-4,-2,2,1,1,-2
-5,-5,0,6,-2,-3,-4,-1,3,2,1,-2
-4,-3,0,4,-2,-2,-3,0,4,3,2,-1
-4,-4,0,4,-2,-2,-3,0,4,3,2,-1
-7,-5,1,6,-4,-2,-3,0,4,3,2,-1
-8,-6,2,7,-5,-2,-3,0,4,3,2,-1
-8,-6,1,7,-4,-2,-3,0,4,3,2,-1
-6,-6,0,6,-3,-2,-2,0,4,3,2,-1
-4,-5,0,5,-1,-3,-2,0,4,3,2,-1
-3,-5,-1,4,-1,-3,-2,0,4,3,2,-1
-3,-5,-1,4,0,-3,-2,1,3,3,1,-1
-3,-5,-1,4,0,-3,-2,1,3,3,1,-1
-3,-5,-1,4,-1,-3,-1,2,3,2,1,-1
-4,-5,0,4,-2,-3,-1,2,3,2,1,-1
-4,-4,0,4,-2,-2,0,2,3,2,1,-1
-3,-4,-1,4,-1,-2,0,2,4,2,2,-1
-2,-3,-1,3,0,-2,0,2,4,3,2,0
-2,-3,0,3,0,-2,0,2,5,3,3,0
-2,-3,0,3,0,-2,0,3,5,3,3,0
-3,-3,0,3,-1,-1,0,3,6,4,3,0
-3,-2,1,2,-1,-1,1,4,6,5,4,1
-2,-1,1,2,-2,0,1,4,7,6,4,1
-2,0,2,1,-2,0,2,4,7,6,5,2
-1,1,2,0,-1,1,2,5,7,6,5,2
0,1,1,0,0,1,2,5,8,6,6,2
1,1,0,0,1,0,2,5,8,6,6,2
2,0,-1,0,1,0,2,4,7,5,5,2
1,0,-1,0,1,-1,2,4,7,5,5,1
0,0,-1,0,1,-1,2,3,7,5,4,1
0,0,-1,0,1,-1,1,3,6,5,4,0
1,0,0,0,1,0,1,3,6,6,4,1
1,2,0,-1,0,0,1,4,7,7,5,2
1,2,1,-1,0,1,1,4,7,7,6,2
1,3,1,-2,0,2,2,5,8,7,6,3
3,4,1,-3,1,3,2,5,9,8,7,3
4,5,1,-5,2,3,2,5,9,8,7,4
5,6,1,-6,2,3,2,5,10,9,8,4
6,7,1,-7,2,3,1,5,10,9,8,4
7,7,0,-8,3,3,0,5,9,9,8,4
7,6,0,-7,3,2,0,4,9,9,8,3
5,4,0,-4,2,1,-1,2,8,8,7,3
3,2,-1,-2,2,0,-3,0,6,6,6,2
2,1,-1,-1,2,0,-4,-1,5,5,5,1
2,1,-1,-1,2,0,-4,0,5,5,5,1
4,3,-1,-3,2,1,-3,0,6,6,6,1
6,5,0,-5,3,1,-3,1,7,7,6,2
7,6,0,-6,4,2,-2,2,8,8,7,3
7,6,0,-6,4,2,-2,2,8,8,7,3
7,6,-1,-6,4,1,-2,1,7,8,7,3
7,5,-2,-6,5,1,-2,0,7,8,6,3
7,4,-3,-6,6,0,-3,-1,6,7,6,2
7,4,-3,-5,5,0,-3,-3,5,7,5,2
6,3,-2,-4,4,0,-4,-4,5,6,5,1
4,3,-1,-3,2,0,-4,-4,4,6,5,1
3,2,0,-2,1,0,-4,-3,4,6,5,1
1,1,0,-1,0,0,-3,-3,4,6,5,1
0,1,0,0,0,0,-2,-2,4,6,5,1
-1,0,1,0,0,0,-2,-2,4,5,5,1
-3,-1,2,2,-2,0,-1,-3,4,5,4,1
-6,-2,3,4,-4,0,0,-3,4,5,4,1
-6,-2,4,4,-5,0,0,-3,4,5,4,0
-7,-3,3,5,-6,0,0,-4,3,4,3,0
-8,-5,3,6,-6,-1,0,-5,2,3,2,-1
-8,-6,3,7,-6,-2,0,-5,1,3,1,-2
-9,-6,3,8,-6,-1,0,-5,1,3,1,-2
-9,-6,4,8,-6,-1,0,-5,1,3,1,-2
-9,-5,4,7,-6,0,0,-5,1,3,1,-2
-9,-5,4,7,-6,0,0,-5,1,3,1,-2
-8,-5,3,6,-6,0,1,-5,1,3,1,-2
-6,-3,3,4,-5,0,2,-4,1,3,2,-2
-5,-2,4,3,-5,0,3,-3,2,4,2,-2
-7,-3,4,5,-6,0,3,-3,1,3,2,-2
-9,-4,5,7,-7,0,2,-4,0,2,1,-3
-10,-5,5,8,-7,0,1,-5,0,2,0,-4
-10,-6,5,8,-7,0,1,-5,0,2,0,-4
-11,-6,5,9,-7,-1,1,-6,0,2,0,-4
-11,-7,5,9,-7,-1,1,-6,0,2,0,-4
-11,-7,5,9,-8,-1,1,-6,0,2,0,-4
-11,-6,5,9,-8,-1,2,-6,0,2,0,-4
-12,-6,6,9,-9,0,3,-5,0,2,0,-3
-12,-5,6,9,-9,0,4,-5,0,2,0,-3
-10,-5,5,8,-8,0,5,-5,0,2,0,-3
-9,-4,5,7,-6,0,6,-5,0,2,0,-3
-9,-4,5,7,-6,0,7,-5,0,2,0,-3
-9,-4,5,7,-7,0,8,-6,0,2,0,-3
-10,-5,5,7,-8,0,9,-6,-1,2,0,-3
-11,-6,5,8,-8,-1,9,-7,-1,1,-1,-4
-10,-6,4,7,-7,-1,10,-7,-2,1,-1,-4
-9,-5,4,7,-7,-1,10,-7,-2,1,-1,-4
-9,-4,5,6,-7,0,11,-7,-1,2,-1,-4
-8,-4,5,6,-7,0,11,-7,-1,2,-1,-3
-8,-3,5,6,-7,1,12,-7,-1,2,0,-3
-8,-3,6,6,-7,1,12,-6,-1,2,0,-3
-9,-3,6,6,-7,1,12,-6,0,2,0,-3
-9,-3,6,7,-8,1,12,-6,0,2,0,-3
-10,-4,6,8,-8,0,12,-7,-1,2,0,-3
-12,-5,6,9,-8,0,12,-7,-1,1,-1,-4
-13,-6,6,10,-9,0,12,-7,-2,1,-1,-4
-12,-7,5,10,-8,-1,12,-7,-2,1,-2,-5
-12,-7,5,9,-8,-1,12,-8,-2,1,-2,-5
-12,-7,5,9,-8,-1,12,-8,-2,1,-2,-4
-11,-7,5,9,-8,-1,12,-7,-2,1,-1,-4
-11,-7,4,8,-7,-1,12,-6,-1,1,-1,-4
-10,-7,3,9,-7,-2,12,-5,-1,1,-1,-4
-10,-7,2,9,-6,-2,12,-3,0,1,-1,-4
-7,-6,1,7,-4,-3,11,0,1,1,-1,-4
-2,-5,-2,3,0,-3,11,4,4,2,0,-4
2,-4,-6,0,4,-5,9,8,7,4,1,-4
6,-4,-11,-1,8,-7,8,13,11,5,2,-4
10,-4,-15,-3,13,-9,6,19,16,8,4,-4
15,-2,-18,-7,17,-10,3,27,23,12,7,-2
22,0,-22,-11,23,-11,1,34,31,17,12,0
30,3,-26,-17,28,-12,-3,41,40,23,17,3
38,8,-29,-23,34,-11,-8,45,48,30,23,7
46,14,-31,-30,39,-10,-14,46,56,36,29,11
54,19,-34,-37,44,-8,-21,46,63,42,36,16
61,25,-35,-44,48,-5,-29,45,69,48,42,21
67,31,-35,-50,52,-2,-37,44,75,54,48,26
70,37,-32,-54,51,2,-45,43,81,61,55,32
66,44,-21,-55,44,11,-50,40,87,69,63,40
58,51,-7,-55,33,21,-52,30,88,74,69,47
51,55,4,-53,23,29,-55,15,80,73,70,51
44,55,11,-50,16,32,-59,-5,65,65,65,50
35,51,16,-43,9,33,-60,-28,45,53,55,45
24,45,21,-34,1,33,-60,-52,22,38,43,39
13,38,25,-25,-6,32,-59,-75,1,23,30,32
4,32,27,-18,-11,30,-60,-93,-17,11,20,26
-2,26,28,-12,-15,27,-61,-105,-31,1,11,21
-7,21,28,-7,-17,24,-61,-111,-41,-6,5,16
-11,16,28,-2,-19,22,-59,-112,-47,-11,0,12
-16,12,29,2,-22,20,-54,-108,-49,-14,-3,9
-19,9,30,4,-24,19,-49,-102,-49,-15,-5,7
-20,9,30,5,-25,19,-43,-94,-46,-14,-5,7
-21,10,31,5,-26,20,-37,-86,-43,-14,-5,6
-21,11,32,5,-27,21,-32,-78,-40,-13,-5,6
-21,12,33,4,-27,22,-27,-71,-37,-11,-5,7
-19,13,32,3,-25,22,-22,-64,-33,-9,-4,7
-18,12,31,2,-24,21,-18,-59,-31,-8,-3,6
-17,11,30,2,-23,19,-15,-55,-29,-8,-3,6
-17,10,28,3,-22,18,-11,-51,-28,-7,-3,5
-16,8,26,4,-21,15,-9,-47,-26,-7,-3,3
-17,5,23,5,-20,13,-7,-44,-25,-8,-4,2
-18,2,21,8,-19,11,-5,-40,-23,-9,-5,0
-20,0,20,10,-19,10,-3,-36,-22,-9,-6,0
-20,-1,19,11,-19,9,-1,-32,-20,-8,-6,-1
-19,-1,19,10,-18,8,1,-29,-18,-7,-6,-1
-18,0,18,9,-17,8,3,-26,-16,-6,-4,0
-16,0,18,8,-17,8,4,-24,-14,-4,-3,0
-16,0,17,7,-17,8,5,-22,-13,-4,-3,0
-17,0,17,8,-17,8,6,-21,-12,-4,-2,0
-18,-1,17,9,-18,8,6,-21,-12,-4,-3,0
-19,-2,17,11,-17,7,6,-20,-12,-4,-4,0
-19,-2,17,11,-17,7,7,-20,-12,-5,-4,-1
-18,-1,17,10,-16,7,8,-20,-11,-4,-4,-1
-17,-1,17,9,-16,7,9,-20,-11,-4,-4,-1
-17,-1,17,9,-16,6,9,-20,-11,-4,-4,-1
-16,-1,16,8,-15,6,9,-19,-11,-5,-4,-2
-16,-2,15,9,-15,5,9,-18,-11,-5,-4,-2
-17,-2,14,9,-16,5,8,-18,-12,-5,-5,-2
-18,-3,14,10,-16,5,8,-17,-12,-5,-5,-2
-18,-3,15,11,-16,6,8,-16,-11,-5,-5,-2
-19,-3,16,11,-17,6,9,-15,-11,-4,-4,-1
-18,-3,17,10,-17,6,9,-13,-10,-4,-4,-1
-18,-3,16,10,-17,6,9,-13,-10,-5,-4,-2
-18,-3,16,11,-17,5,9,-13,-11,-5,-4,-2
-18,-3,15,11,-17,5,9,-13,-11,-5,-5,-2
-18,-3,14,11,-16,4,9,-14,-11,-5,-5,-2
-17,-4,13,11,-15,4,8,-14,-11,-5,-5,-2
-16,-3,12,10,-14,4,8,-14,-10,-5,-5,-2
-15,-2,12,9,-13,4,9,-13,-10,-4,-4,-1
-14,-2,12,9,-13,4,9,-13,-9,-4,-4,-2
-14,-4,11,9,-12,2,8,-13,-10,-5,-5,-3
-15,-6,10,10,-13,1,7,-13,-10,-6,-6,-4
-18,-6,12,11,-15,2,8,-13,-10,-6,-5,-3
-19,-6,14,12,-16,3,8,-12,-10,-5,-5,-2
-19,-4,14,11,-16,4,9,-12,-9,-5,-4,-2
-17,-3,13,10,-14,4,9,-11,-10,-5,-4,-2
-16,-3,11,10,-13,3,9,-11,-11,-5,-5,-2
-14,-2,10,9,-11,3,9,-11,-11,-6,-5,-3
-13,-2,9,8,-11,3,9,-11,-12,-6,-6,-3
-13,-3,9,8,-11,2,9,-10,-12,-7,-6,-3
-14,-3,10,9,-12,2,9,-10,-12,-7,-6,-3
-15,-4,10,10,-12,2,9,-10,-12,-7,-7,-4
-16,-5,10,10,-13,2,9,-9,-11,-7,-7,-4
-17,-5,10,11,-13,2,9,-9,-11,-7,-7,-4
-17,-5,10,11,-13,2,9,-8,-11,-7,-7,-4
-15,-5,9,10,-12,2,9,-7,-11,-7,-7,-4
-13,-5,8,9,-11,1,9,-5,-10,-7,-7,-4
-12,-5,8,8,-10,1,9,-4,-10,-7,-7,-5
-11,-5,7,8,-9,1,10,-3,-10,-7,-7,-5
-10,-4,7,7,-8,1,11,-2,-10,-7,-7,-5
-10,-4,6,7,-8,0,11,-2,-11,-7,-7,-5
-10,-4,5,7,-7,0,11,-2,-11,-8,-7,-5
-10,-5,5,8,-7,0,11,-1,-11,-8,-7,-5
-10,-5,4,8,-7,-1,11,0,-11,-8,-8,-5
-10,-6,4,8,-7,-1,11,1,-11,-9,-8,-5
-10,-7,3,8,-7,-2,11,2,-11,-9,-9,-5
-10,-8,2,9,-6,-3,12,2,-11,-10,-9,-6
-10,-8,2,9,-6,-3,12,3,-11,-10,-9,-6
-9,-8,1,8,-5,-3,13,5,-10,-9,-9,-6
-8,-7,1,7,-4,-3,14,6,-9,-9,-8,-6
-8,-6,1,7,-4,-2,15,8,-9,-8,-8,-6
-6,-5,0,6,-2,-3,16,9,-9,-8,-8,-6
-3,-6,-2,5,0,-4,17,11,-9,-9,-8,-7
-2,-7,-5,5,1,-6,16,12,-9,-10,-9,-8
-1,-8,-6,5,2,-8,16,13,-9,-10,-10,-9
-2,-9,-7,5,3,-9,17,14,-9,-11,-10,-9
-3,-11,-7,7,2,-9,17,15,-10,-11,-11,-10
-4,-13,-8,8,2,-10,17,16,-10,-12,-12,-11
-5,-14,-9,9,3,-12,17,16,-11,-13,-13,-12
-5,-16,-11,10,4,-14,17,17,-12,-15,-14,-13
-5,-19,-13,12,5,-17,16,17,-13,-16,-15,-14
-5,-20,-14,13,5,-18,17,18,-12,-16,-15,-15
-2,-17,-15,10,7,-17,18,21,-11,-15,-14,-14
2,-15,-16,6,9,-16,19,23,-10,-14,-13,-13
5,-14,-18,4,12,-17,19,25,-10,-14,-14,-13
8,-13,-20,2,15,-17,19,25,-10,-15,-14,-14
10,-13,-22,2,17,-18,20,26,-10,-15,-15,-14
10,-14,-24,2,18,-20,20,26,-10,-16,-16,-15
10,-16,-27,3,19,-22,19,27,-11,-17,-17,-17
9,-19,-28,5,19,-24,19,27,-11,-18,-18,-18
6,-21,-27,7,17,-25,19,28,-11,-18,-18,-18
5,-22,-27,8,16,-25,20,29,-11,-18,-18,-19
6,-21,-28,7,17,-26,20,30,-11,-18,-18,-19
8,-20,-29,5,19,-25,20,30,-11,-18,-18,-18
11,-18,-30,3,21,-25,21,30,-11,-18,-18,-18
12,-18,-30,3,21,-25,21,30,-10,-17,-18,-18
11,-19,-29,4,20,-25,21,31,-10,-17,-18,-17
10,-19,-28,5,19,-25,21,31,-9,-16,-17,-17
9,-19,-28,5,19,-24,21,31,-8,-15,-16,-16
10,-18,-28,4,19,-24,21,31,-8,-15,-16,-16
11,-17,-29,3,20,-24,19,30,-8,-15,-16,-17
10,-18,-29,4,20,-24,18,28,-8,-15,-16,-17
10,-18,-29,4,19,-24,17,27,-7,-15,-16,-17
10,-17,-28,4,19,-23,17,26,-7,-14,-16,-17
10,-17,-26,4,19,-22,17,25,-6,-14,-15,-16
9,-16,-24,4,17,-21,17,24,-5,-13,-14,-15
8,-15,-23,4,17,-20,16,23,-5,-12,-13,-14
8,-16,-23,4,16,-21,15,22,-5,-11,-13,-14
7,-17,-23,4,16,-21,14,20,-5,-11,-13,-14
6,-16,-22,5,15,-20,13,19,-4,-11,-12,-14
5,-15,-20,5,13,-18,13,18,-3,-10,-11,-12
3,-15,-18,6,11,-17,13,17,-2,-9,-10,-11
1,-14,-15,6,9,-15,13,17,-2,-8,-10,-10
1,-13,-13,5,8,-14,13,16,-1,-7,-9,-9
1,-11,-12,5,7,-13,12,15,-1,-6,-9,-9
0,-11,-10,5,6,-12,12,14,0,-6,-8,-8
-1,-11,-9,6,5,-11,11,12,0,-5,-8,-8
-2,-11,-9,6,4,-11,9,10,0,-5,-7,-8
-2,-11,-8,7,4,-11,8,7,0,-5,-7,-8
-3,-11,-8,7,3,-11,7,5,0,-5,-7,-8
-3,-10,-7,7,3,-10,7,5,-1,-4,-6,-7
-3,-10,-6,7,2,-9,6,5,-1,-4,-6,-7
-4,-11,-5,7,1,-9,5,5,-1,-4,-6,-7
-5,-11,-4,8,0,-9,5,5,-1,-4,-6,-7
-6,-10,-4,8,0,-8,4,5,-1,-4,-6,-6
-6,-9,-3,8,0,-7,4,5,0,-3,-5,-5
-5,-7,-2,6,0,-6,5,5,0,-2,-4,-4
-3,-5,-1,5,0,-4,5,5,1,-1,-3,-3
-3,-5,-1,5,0,-4,5,4,2,-1,-3,-3
-5,-6,0,6,-1,-4,5,3,1,-1,-3,-3
-6,-6,0,6,-2,-4,4,2,1,-1,-3,-4
-6,-6,0,6,-2,-4,4,2,1,-1,-3,-4
-6,-4,1,5,-2,-3,4,2,1,-1,-3,-3
-6,-3,1,5,-3,-2,3,2,2,0,-2,-3
-7,-4,2,5,-3,-2,2,2,2,0,-2,-3
-7,-5,2,6,-3,-2,1,1,1,0,-2,-3
-8,-6,2,6,-4,-2,1,0,1,0,-2,-3
-9,-7,3,7,-5,-2,1,0,1,0,-2,-3
-9,-7,2,7,-5,-3,1,-1,1,-1,-2,-3
-8,-7,2,7,-5,-3,1,-1,1,-1,-2,-2
-9,-7,3,8,-5,-2,2,-1,1,-1,-2,-2
-9,-6,3,8,-5,-2,2,-1,1,-1,-2,-1
-7,-5,3,6,-4,-2,2,-1,1,0,-1,-1
-6,-4,2,5,-3,-1,2,-1,1,0,-1,-1
-5,-4,2,4,-2,-1,1,-1,1,0,-1,-1
-4,-4,1,4,-2,-1,1,-1,1,0,-1,-1
-4,-4,1,4,-2,-1,1,-1,1,0,-1,-1
-4,-4,1,5,-2,-2,1,0,1,0,-1,-1
-6,-6,1,6,-3,-2,0,-1,1,0,-1,-1
-7,-6,1,7,-4,-2,0,-1,0,0,-2,-2
-9,-7,1,8,-5,-3,0,-2,0,-1,-2,-2
-10,-7,2,9,-6,-3,0,-2,0,-1,-2,-2
-11,-7,3,9,-6,-2,0,-2,0,-1,-2,-2
-9,-5,4,7,-5,-1,0,-2,1,0,-1,-2
-7,-3,4,5,-4,-1,1,-1,1,0,-1,-1
-7,-3,3,5,-4,-1,1,-1,1,0,-1,-1
-6,-3,3,5,-4,-1,1,-1,1,0,-1,-1
-7,-4,3,5,-4,-1,1,-1,1,0,-1,-1
-8,-4,3,6,-5,-1,1,-1,1,0,-1,-1
-8,-5,3,7,-5,-1,1,-1,1,0,-1,-1
-8,-5,3,6,-4,-1,1,-1,1,0,-1,-1
-8,-5,3,6,-4,-1,0,-1,1,0,-1,-1
-9,-6,3,7,-5,-2,0,0,1,0,-1,-1
-9,-6,3,7,-6,-2,1,0,1,0,-1,-1
-8,-5,2,6,-5,-2,1,1,2,0,-1,-1
-6,-4,1,5,-3,-2,1,1,1,0,-1,-2
-5,-4,0,5,-2,-2,1,0,1,0,-1,-2
-5,-4,0,4,-2,-1,2,0,1,0,-1,-2
-5,-4,1,4,-2,-1,2,-1,1,0,-1,-2
-6,-4,2,5,-3,-1,2,-1,1,0,-1,-2
-6,-5,2,5,-4,-1,2,-1,1,0,-1,-2
-7,-5,2,6,-4,-1,1,-1,1,0,-2,-2
-7,-5,2,6,-5,-1,1,-1,1,0,-2,-2
-7,-5,2,6,-4,-1,1,-1,1,0,-2,-2
-7,-5,2,6,-4,-1,2,-1,1,0,-1,-2
-7,-4,2,5,-4,0,2,0,1,0,-1,-2
-6,-4,2,5,-3,0,3,1,2,0,-1,-1
-5,-4,2,4,-3,-1,3,1,2,0,-1,-1
-5,-4,2,4,-3,-1,3,1,1,0,-1,-2
-5,-4,2,4,-3,-1,3,1,1,0,-1,-2
-5,-4,2,3,-3,-1,3,1,2,0,-1,-1
-6,-4,2,4,-4,-1,3,1,2,0,-1,-1
-8,-5,2,6,-5,-1,3,0,1,-1,-2,-2
-9,-7,2,8,-5,-2,2,0,0,-1,-2,-2
-9,-7,2,8,-5,-2,2,0,0,-1,-3,-3
-8,-5,2,7,-4,-1,3,0,0,-1,-2,-2
-7,-4,2,6,-4,0,3,0,0,0,-2,-2
-7,-4,3,6,-4,0,3,0,0,0,-2,-2
-7,-4,3,5,-5,0,4,0,0,0,-2,-2
-7,-3,3,4,-4,0,4,0,0,0,-2,-2
-7,-2,4,4,-4,0,5,0,0,0,-2,-2
-7,-3,4,5,-5,0,6,0,0,0,-2,-2
-7,-4,4,5,-5,0,5,0,0,-1,-3,-3
-7,-5,3,6,-5,-1,4,0,0,-1,-3,-4
-7,-6,2,7,-4,-1,4,-1,0,-2,-4,-4
-7,-5,2,6,-4,-1,4,-1,0,-2,-4,-4
-6,-5,2,5,-4,-1,5,-1,0,-2,-3,-4
-7,-5,2,6,-4,-1,5,0,0,-2,-3,-3
-7,-4,2,5,-4,-1,5,0,0,-2,-3,-3
-5,-3,2,4,-3,0,6,0,0,-1,-3,-3
-4,-1,2,2,-2,0,7,0,1,0,-2,-2
-4,-1,2,2,-2,1,8,0,1,0,-1,-2
-4,0,2,2,-3,1,8,0,2,0,-1,-1
-2,1,2,0,-2,2,9,1,2,1,0,-1
-1,3,3,-1,-2,3,11,2,3,1,0,0
-2,3,4,0,-3,4,11,2,3,2,1,0
-3,2,5,0,-3,4,11,3,4,2,1,0
-3,2,5,0,-2,4,11,3,4,2,1,0
-2,2,4,0,-2,3,11,3,4,2,1,0
-3,2,4,0,-2,3,11,3,4,2,1,0
-3,2,4,0,-3,3,11,2,4,2,1,0
-2,2,4,0,-2,3,10,1,3,1,0,0
-2,2,3,0,-2,3,10,1,3,1,0,0
-1,3,3,-1,-2,3,10,1,3,1,0,0
0,4,3,-2,-1,4,10,1,3,2,1,0
2,6,3,-4,0,4,10,1,3,2,2,1
2,6,3,-4,0,4,10,1,3,3,2,2
3,6,3,-4,0,4,11,1,4,3,3,2
4,7,3,-5,1,4,11,2,4,4,3,2
4,6,2,-5,2,4,10,2,5,4,3,2
4,5,1,-5,2,3,8,2,4,3,3,2
4,5,1,-5,2,3,7,2,4,3,3,2
5,6,2,-5,1,4,7,2,5,3,3,2
5,8,3,-7,1,5,7,1,5,4,4,3
7,10,3,-8,2,6,8,1,5,4,4,3
8,12,3,-10,3,7,8,0,5,4,4,3
8,11,3,-10,3,7,8,0,5,4,4,3
6,10,3,-8,2,7,8,0,4,4,4,3
5,8,3,-7,2,6,7,-1,4,4,4,3
5,7,3,-6,1,5,6,-1,3,3,3,2
4,6,2,-5,1,5,6,-1,3,3,3,2
3,5,2,-5,1,4,6,-1,3,3,2,2
4,6,2,-5,1,4,6,-1,3,3,2,2
4,7,2,-6,1,5,6,-1,3,3,2,2
4,8,3,-6,0,5,6,-2,3,3,2,2
3,7,4,-5,0,5,5,-2,3,3,2,2
2,7,5,-4,-1,5,5,-3,3,3,3,2
2,7,4,-4,-1,5,5,-4,3,2,2,2
3,7,3,-5,0,5,6,-4,2,2,2,2
3,7,3,-5,0,5,6,-5,1,1,2,1
2,5,2,-3,0,3,6,-6,0,0,1,0
0,2,2,-1,0,2,5,-7,-1,-1,0,-1
-2,0,2,1,-2,1,5,-7,-1,-1,-1,-2
-5,-1,4,3,-4,0,6,-8,-1,-2,-2,-2
-7,-1,5,4,-5,0,6,-8,-1,-2,-2,-2
-7,-1,5,4,-5,1,7,-7,-1,-2,-1,-2
-6,0,5,3,-5,2,8,-6,0,-1,-1,-2
-6,0,5,3,-5,3,8,-5,0,-1,-1,-1
-5,1,6,2,-5,4,9,-5,0,0,-1,-1
-5,1,6,2,-5,4,10,-5,0,0,-1,-1
-6,0,5,3,-5,3,9,-6,-1,-1,-2,-1
-7,-1,6,4,-6,3,9,-7,-1,-1,-2,-2
-8,-1,6,5,-6,2,9,-7,-1,-2,-2,-2
-8,-1,6,4,-6,2,9,-7,-1,-2,-2,-2
-7,-1,5,3,-5,2,9,-7,-1,-2,-2,-2
-7,-1,5,3,-6,2,9,-7,-1,-2,-3,-3
-8,-2,5,4,-7,2,9,-7,-1,-2,-3,-3
-8,-1,6,4,-7,2,9,-7,-1,-1,-3,-3
-8,-1,6,4,-7,3,9,-6,-1,-1,-3,-2
-8,-2,6,4,-7,2,9,-7,-1,-2,-3,-3
-8,-2,5,4,-6,2,8,-8,-2,-2,-3,-3
-8,-1,5,4,-6,2,7,-8,-2,-2,-3,-3
-8,-1,6,4,-6,2,7,-7,-2,-2,-3,-3
-8,-2,6,4,-6,2,7,-8,-2,-2,-4,-3
-8,-3,5,5,-6,1,7,-9,-3,-3,-4,-4
-8,-3,5,5,-6,1,6,-10,-4,-4,-5,-5
-8,-3,5,5,-7,1,7,-9,-3,-3,-4,-4
-8,-1,7,5,-7,3,8,-8,-3,-2,-3,-3
-8,0,7,5,-7,3,8,-7,-2,-2,-2,-3
-8,0,7,4,-7,3,8,-7,-2,-2,-2,-2
-7,0,6,4,-6,3,8,-7,-2,-2,-3,-2
-7,-1,6,4,-6,2,7,-7,-2,-2,-3,-2
-7,-1,6,4,-7,2,7,-7,-2,-2,-4,-3
-7,-1,5,4,-7,2,7,-7,-2,-2,-4,-3
-8,-2,5,4,-7,1,6,-7,-3,-3,-4,-3
-9,-2,6,5,-7,1,6,-7,-3,-3,-4,-3
-10,-3,6,6,-8,1,6,-7,-3,-3,-4,-3
-10,-3,6,6,-7,1,6,-7,-3,-4,-5,-4
-10,-4,5,7,-7,1,6,-8,-4,-4,-5,-4
-10,-5,4,7,-7,0,6,-8,-4,-4,-5,-5
-11,-6,4,8,-7,0,6,-8,-4,-5,-5,-5
-13,-7,5,10,-9,0,5,-8,-5,-5,-5,-5
-14,-7,6,10,-11,0,6,-8,-4,-5,-5,-5
-14,-6,7,9,-10,1,6,-7,-4,-5,-5,-5
-12,-5,6,8,-9,1,6,-7,-4,-5,-5,-5
-11,-5,6,8,-8,1,5,-6,-4,-5,-5,-5
-11,-5,6,8,-8,1,5,-5,-3,-4,-5,-5
-10,-4,6,7,-8,1,6,-3,-2,-3,-4,-4
-8,-3,6,5,-7,2,7,0,0,-2,-3,-3
-6,-3,3,4,-5,0,6,2,1,-1,-3,-4
-3,-5,-1,3,-1,-2,4,5,2,-1,-3,-5
0,-6,-6,2,3,-5,2,8,4,-1,-3,-6
5,-6,-11,0,8,-8,0,12,7,0,-2,-6
10,-6,-16,-2,14,-11,-2,18,13,3,0,-5
18,-3,-21,-8,20,-11,-4,25,20,7,4,-3
28,3,-25,-16,27,-11,-6,33,28,13,9,0
39,10,-29,-24,34,-10,-10,41,37,20,15,4
49,16,-33,-33,41,-9,-16,45,45,26,21,7
58,21,-37,-40,47,-8,-22,48,53,32,26,11
66,26,-40,-47,52,-7,-29,50,59,37,32,15
72,31,-42,-52,57,-6,-38,50,64,42,37,19
77,35,-43,-56,60,-4,-46,49,69,47,42,23
79,40,-40,-60,60,0,-53,47,75,53,48,28
76,47,-30,-62,54,8,-58,41,79,59,54,35
68,52,-16,-60,43,17,-62,30,78,62,59,41
59,54,-5,-57,32,24,-66,14,70,60,59,44
50,52,2,-51,23,27,-70,-5,56,53,55,44
38,47,8,-43,14,27,-71,-27,36,42,46,39
25,40,15,-33,5,28,-70,-52,13,27,35,33
13,34,20,-24,-3,28,-70,-76,-8,14,23,27
5,29,24,-17,-9,27,-71,-94,-25,3,14,22
0,25,25,-12,-12,26,-72,-104,-36,-5,7,18
-3,22,26,-10,-14,24,-70,-108,-43,-10,2,15
-5,21,26,-8,-15,24,-65,-106,-46,-12,0,13
-7,20,28,-6,-18,24,-59,-100,-45,-13,-1,11
-10,19,30,-5,-20,24,-52,-93,-44,-12,-2,10
-12,19,31,-4,-22,25,-45,-85,-41,-12,-2,10
-14,18,32,-3,-23,25,-39,-78,-39,-12,-3,9
-18,16,33,0,-25,25,-35,-73,-37,-12,-3,9
-21,14,34,3,-27,25,-31,-68,-35,-12,-4,8
-22,13,34,4,-28,24,-27,-64,-33,-11,-4,7
-21,12,32,4,-27,23,-23,-59,-31,-11,-4,6
-18,12,30,3,-25,21,-20,-55,-29,-10,-5,5
-14,12,27,1,-21,19,-17,-51,-28,-10,-5,4
-12,11,23,1,-18,17,-15,-47,-28,-11,-6,2
-13,8,21,2,-17,14,-12,-43,-27,-11,-7,0
-14,6,20,3,-16,13,-9,-39,-25,-11,-8,-1
-13,6,19,3,-15,12,-6,-34,-22,-10,-7,-1
-11,7,18,1,-14,13,-3,-30,-19,-8,-6,-1
-10,7,17,1,-13,13,-1,-26,-17,-7,-6,-1
-10,7,17,1,-14,12,1,-22,-15,-7,-6,-1
-12,6,17,2,-15,11,3,-20,-15,-7,-5,-1
-14,4,18,4,-16,11,4,-18,-14,-7,-5,-1
-15,3,18,5,-17,11,4,-18,-14,-7,-5,-1
-16,2,17,5,-16,10,5,-18,-14,-7,-5,-2
-15,2,17,6,-15,10,5,-18,-14,-7,-5,-2
-15,1,16,6,-15,9,6,-18,-14,-7,-6,-3
-15,1,16,7,-15,9,6,-18,-14,-8,-6,-3
-15,1,16,7,-15,9,7,-16,-14,-8,-6,-3
-15,0,15,7,-15,8,8,-15,-14,-8,-6,-3
-14,0,13,7,-14,7,8,-14,-15,-9,-7,-4
-14,0,13,7,-14,7,8,-14,-15,-9,-7,-4
-15,0,14,7,-14,7,8,-13,-14,-8,-7,-4
-16,-1,14,8,-14,7,7,-13,-14,-8,-7,-4
-17,-2,14,9,-15,6,7,-13,-14,-8,-7,-5
-17,-3,14,10,-15,6,7,-13,-13,-8,-7,-5
-17,-2,14,9,-15,6,7,-12,-13,-7,-7,-5
-17,-3,14,9,-16,6,8,-11,-13,-7,-7,-5
-18,-3,14,10,-16,5,8,-10,-12,-7,-7,-5
-17,-2,14,9,-16,6,9,-9,-12,-7,-6,-4
-15,-1,14,7,-14,6,9,-9,-12,-7,-6,-4
-13,0,13,6,-12,6,9,-9,-12,-8,-7,-4
-11,0,12,5,-10,5,9,-9,-13,-9,-8,-4
-10,0,11,5,-10,5,9,-9,-13,-9,-8,-4
-11,-1,10,6,-10,5,9,-9,-13,-10,-8,-4
-11,-1,10,7,-11,4,9,-9,-13,-9,-8,-4
-11,-1,9,6,-10,4,9,-8,-12,-9,-7,-4
-10,0,9,5,-10,4,9,-8,-12,-8,-7,-4
-10,0,10,5,-10,5,9,-7,-11,-7,-6,-4
-10,0,11,5,-11,5,9,-6,-11,-7,-6,-4
-10,0,11,5,-11,5,9,-6,-11,-8,-6,-4
-9,0,10,4,-10,5,9,-6,-12,-8,-7,-4
-10,0,9,5,-10,5,9,-6,-12,-9,-7,-4
-11,-1,10,6,-11,5,9,-6,-13,-9,-8,-5
-13,-2,10,7,-11,5,9,-6,-13,-10,-8,-5
-13,-3,9,7,-11,4,9,-5,-14,-10,-9,-6
-12,-1,9,6,-10,4,10,-4,-13,-10,-9,-6
-9,0,9,4,-9,5,11,-2,-12,-9,-8,-5
-8,1,9,3,-9,5,12,0,-11,-8,-7,-5
-8,1,9,3,-9,5,12,0,-10,-8,-7,-5
-8,1,9,3,-8,5,13,1,-10,-8,-7,-4
-7,1,8,3,-8,5,13,2,-10,-8,-7,-4
-7,1,8,2,-7,5,14,2,-10,-8,-7,-4
-7,0,7,2,-7,4,13,3,-10,-8,-7,-4
-7,0,6,3,-7,3,13,3,-11,-9,-8,-5
-8,-2,5,4,-7,2,13,4,-12,-10,-9,-6
-9,-3,5,5,-7,1,13,5,-12,-10,-9,-7
-10,-4,5,6,-7,0,14,6,-13,-11,-9,-7
-8,-4,4,5,-6,0,15,8,-13,-11,-9,-7
-6,-3,3,4,-4,0,16,9,-13,-11,-10,-7
-5,-3,2,3,-3,0,16,10,-13,-12,-10,-8
-6,-4,2,3,-3,0,16,10,-12,-12,-10,-8
-6,-5,2,4,-4,-1,16,11,-12,-12,-10,-8
-5,-5,1,4,-3,-1,16,12,-11,-12,-10,-8
-4,-5,0,4,-2,-1,16,14,-11,-12,-11,-8
-3,-5,-1,4,-1,-2,16,15,-11,-12,-12,-8
-4,-6,-2,5,-1,-3,17,17,-11,-12,-12,-9
-4,-7,-2,5,0,-4,18,19,-11,-12,-13,-10
-2,-6,-3,4,0,-4,19,20,-11,-12,-13,-10
1,-5,-5,2,3,-5,19,22,-11,-12,-13,-10
3,-5,-7,1,5,-6,20,23,-11,-13,-13,-10
3,-6,-10,1,6,-7,21,24,-12,-14,-14,-11
4,-8,-12,2,8,-9,21,24,-13,-16,-15,-12
4,-9,-13,3,8,-11,21,25,-13,-16,-15,-13
3,-11,-14,4,8,-12,22,27,-13,-17,-16,-14
2,-12,-13,5,7,-13,23,29,-12,-16,-16,-14
1,-13,-13,5,7,-13,24,32,-11,-16,-16,-14
3,-12,-15,4,8,-13,24,33,-11,-16,-16,-14
5,-12,-17,3,11,-14,24,34,-11,-16,-16,-15
7,-12,-19,2,13,-15,24,34,-11,-17,-17,-16
9,-12,-21,1,15,-16,25,35,-11,-17,-17,-16
11,-11,-23,0,17,-16,26,36,-11,-17,-17,-16
14,-10,-24,-2,19,-16,27,38,-11,-17,-17,-16
16,-9,-25,-3,20,-17,27,39,-11,-17,-17,-17
17,-10,-26,-4,21,-18,26,40,-11,-17,-18,-17
17,-11,-27,-3,22,-19,26,40,-11,-17,-18,-18
16,-12,-28,-2,22,-20,25,40,-11,-17,-18,-18
15,-14,-29,-1,22,-21,25,40,-11,-17,-19,-19
15,-15,-31,0,23,-23,25,40,-11,-18,-20,-20
15,-17,-33,0,24,-24,24,40,-11,-19,-20,-20
15,-17,-33,0,24,-25,23,39,-11,-19,-20,-20
15,-17,-33,0,24,-25,23,40,-10,-18,-20,-19
14,-18,-33,1,23,-25,22,40,-10,-18,-19,-19
14,-19,-32,2,23,-26,21,40,-10,-18,-19,-19
14,-18,-32,1,23,-25,20,40,-9,-18,-19,-19
15,-17,-32,0,24,-25,20,40,-9,-18,-18,-19
16,-16,-32,0,24,-24,20,40,-8,-17,-17,-18
17,-14,-31,-1,23,-22,20,40,-7,-16,-16,-17
17,-13,-30,-2,23,-21,20,40,-6,-15,-16,-16
17,-12,-29,-2,23,-20,19,38,-6,-15,-16,-16
17,-12,-29,-2,23,-20,19,37,-6,-15,-16,-16
16,-12,-28,-2,22,-20,18,36,-6,-14,-15,-15
14,-12,-26,-2,20,-19,18,35,-5,-13,-14,-15
12,-12,-25,0,18,-18,17,34,-5,-13,-14,-14
9,-13,-23,1,16,-18,16,32,-5,-13,-13,-14
8,-13,-22,2,15,-17,16,31,-5,-12,-12,-13
8,-12,-20,2,14,-16,15,30,-4,-11,-11,-12
8,-10,-18,1,13,-14,15,29,-3,-10,-10,-11
8,-9,-17,1,13,-13,14,27,-2,-9,-10,-11
8,-8,-16,0,12,-12,13,26,-2,-8,-9,-10
9,-7,-15,-1,12,-11,12,25,-1,-8,-8,-9
8,-7,-14,-1,11,-10,12,24,-1,-7,-8,-8
7,-6,-13,-1,10,-10,11,22,-1,-7,-8,-8
6,-6,-12,0,9,-9,11,21,-1,-6,-8,-8
4,-6,-11,0,8,-9,11,20,-1,-6,-7,-8
3,-6,-9,1,6,-8,10,19,0,-6,-7,-7
2,-6,-8,2,5,-7,10,18,0,-5,-6,-7
2,-5,-7,1,5,-6,9,17,0,-4,-6,-6
2,-4,-6,1,4,-5,9,17,0,-4,-5,-5
1,-4,-5,1,3,-5,8,17,1,-3,-4,-5
0,-4,-4,2,2,-4,8,16,1,-3,-4,-5
0,-4,-4,2,1,-4,7,15,1,-3,-4,-5
0,-3,-4,1,2,-4,6,15,1,-2,-4,-5
1,-3,-3,1,2,-4,6,15,1,-2,-3,-4
0,-3,-2,2,1,-3,6,14,1,-1,-3,-4
-1,-4,-1,3,0,-3,5,13,1,-1,-3,-4
0,-4,-2,1,1,-3,5,13,1,-1,-3,-4
2,-2,-3,-1,3,-2,5,12,1,-1,-3,-3
3,0,-2,-2,3,-1,5,12,1,0,-2,-2
3,1,-1,-2,2,0,5,12,2,0,-1,-1
2,1,-1,-2,1,0,4,12,2,0,-1,-1
1,0,0,-1,0,0,4,11,2,0,-1,-1
0,0,0,0,0,-1,4,11,1,0,-1,-1
0,-1,0,0,0,-1,4,12,1,0,-1,-1
0,-1,0,0,0,-1,3,12,0,-1,-1,-1
1,-1,-1,0,1,-1,3,12,0,-1,-1,-2
1,-1,-1,0,1,-1,3,12,0,-1,-1,-2
1,-1,-1,0,1,-1,3,12,0,-1,-1,-1
0,-1,0,0,0,0,3,11,1,-1,-1,-1
-1,-1,0,0,-1,0,3,10,1,-1,-1,0
-1,-1,0,1,-1,0,3,10,1,-1,-1,0
-2,-1,1,2,-1,0,3,9,1,-1,-1,0
-3,-2,1,3,-2,0,2,9,1,-1,-1,0
-3,-1,1,2,-2,0,2,10,1,0,-1,0
-2,0,1,1,-1,0,2,12,2,0,0,0
-1,0,1,1,-1,0,2,12,3,1,0,0
-1,-1,0,1,0,0,1,12,2,0,0,0
0,-1,-1,0,0,-1,1,12,1,0,-1,-1
0,-2,-1,1,1,-2,1,12,0,0,-1,-1
-1,-3,-2,2,1,-2,0,11,0,-1,-1,-1
-2,-3,-2,3,1,-3,0,11,0,-1,-1,-1
-2,-3,-2,3,1,-3,0,11,0,0,-1,-1
0,-2,-2,1,1,-2,0,10,0,0,-1,0
1,-1,-2,0,2,-1,0,10,0,0,-1,0
1,0,-1,-1,1,0,1,10,1,0,0,0
1,0,-1,-1,1,0,1,11,1,0,0,0
0,1,0,-1,0,0,1,11,1,1,0,0
0,0,0,-1,0,0,1,12,2,1,0,0
-1,0,0,0,0,0,0,12,2,1,0,0
-2,-1,0,1,0,0,0,12,2,1,0,0
-1,-1,0,1,0,-1,0,11,2,1,0,0
0,0,0,0,1,0,0,12,2,1,0,0
2,0,0,-1,1,0,0,12,2,1,0,0
3,1,-1,-3,2,0,0,12,2,1,0,0
3,1,-1,-2,2,0,0,12,2,1,0,0
1,-1,-1,0,1,-1,0,12,1,1,0,0
-1,-3,-1,2,0,-2,0,12,1,1,-1,-1
-2,-3,-1,3,0,-2,-1,12,1,0,-1,-1
-1,-3,-1,2,0,-2,-1,12,2,0,-1,-1
0,-3,-2,2,1,-2,-1,12,2,0,-1,-1
0,-3,-2,1,0,-2,-1,12,1,0,-1,-1
0,-2,-1,1,0,-2,-1,12,1,0,-1,-1
0,-2,-1,1,0,-2,0,12,1,0,0,-1
0,-2,-1,0,0,-1,0,13,1,0,0,0
1,-1,-1,0,1,-1,0,13,1,0,0,0
1,-1,-1,0,1,-1,1,14,1,0,0,0
0,-1,0,0,0,-1,2,14,1,1,0,0
-2,-1,0,1,-1,-1,2,14,1,1,0,0
-3,-2,1,2,-2,-1,2,14,1,1,0,0
-3,-2,1,2,-2,-1,1,13,1,1,0,0
-2,-2,1,2,-3,0,1,13,1,1,0,0
-2,-1,2,1,-2,0,1,13,1,2,0,0
-1,0,1,0,-1,0,1,13,1,2,0,0
0,0,1,0,0,0,0,13,2,2,0,0
0,0,0,0,0,0,0,14,2,2,0,0
0,0,0,0,0,0,0,14,2,2,0,-1
0,0,0,0,0,0,0,14,2,1,0,-1
0,0,0,0,0,0,0,14,1,1,0,-1
-1,-1,0,0,-1,-1,0,14,1,0,-1,-1
-2,-3,0,2,-1,-1,0,13,0,-1,-1,-1
-2,-3,0,3,-1,-2,0,12,0,-1,-2,-1
-1,-3,0,2,0,-1,0,13,0,-1,-1,-1
0,-2,0,1,0,-1,0,13,0,0,-1,-1
0,-1,0,0,0,0,1,14,0,0,-1,-1
0,-1,0,0,0,0,1,13,0,0,-1,-1
0,-1,0,0,0,-1,1,13,0,0,-1,-1
0,-1,0,0,0,-1,1,13,0,0,-1,-1
0,-1,0,0,0,0,1,14,1,0,0,-1
2,0,0,-1,0,0,2,15,2,1,0,0
4,2,-1,-3,2,1,2,15,2,1,0,0
5,2,0,-3,2,1,2,15,2,1,0,0
2,2,1,-2,0,2,2,16,2,2,0,0
0,2,3,-1,-1,3,3,16,3,2,1,1
0,3,2,-2,0,3,4,16,3,2,1,1
3,4,1,-4,1,3,4,16,3,2,1,1
5,5,1,-5,1,4,4,17,3,3,2,1
6,7,2,-6,1,5,4,18,4,4,3,2
5,6,3,-6,1,5,4,18,4,4,3,2
4,6,3,-5,0,5,4,18,4,4,3,2
4,6,3,-5,1,4,4,18,4,4,2,2
4,6,2,-6,2,4,3,17,4,4,2,1
4,5,1,-5,2,3,2,16,3,3,1,1
3,4,1,-4,1,3,1,15,3,3,0,0
2,4,1,-4,0,3,1,15,3,3,1,1
3,5,2,-4,0,3,1,15,4,3,2,1
5,6,2,-6,1,4,2,16,5,4,3,2
7,8,1,-8,3,5,3,16,6,5,4,3
9,9,0,-9,5,5,3,16,6,5,4,3
10,10,0,-10,6,5,2,16,6,6,5,4
10,11,0,-11,6,5,2,17,7,7,6,4
11,11,0,-11,5,6,1,17,7,7,6,5
12,12,0,-12,6,6,1,16,7,7,6,5
13,13,0,-13,6,7,0,16,7,7,6,5
13,13,1,-14,6,7,0,15,7,7,6,5
13,14,2,-14,6,8,0,15,7,7,7,5
14,15,2,-14,6,9,0,15,7,7,7,5
15,15,1,-15,7,8,-1,15,7,7,6,5
15,15,0,-15,8,8,-1,14,7,7,6,4
14,13,0,-14,7,7,-2,13,6,7,6,4
11,11,0,-11,5,6,-2,13,5,7,5,4
8,8,0,-9,4,5,-3,12,4,6,5,4
7,7,0,-7,3,3,-4,12,4,5,4,3
7,7,0,-7,4,3,-3,12,4,5,4,3
9,8,0,-9,5,4,-3,12,4,5,4,4
9,10,1,-10,4,5,-3,11,4,5,5,4
8,10,2,-9,3,6,-3,10,4,5,5,5
6,10,3,-9,2,7,-3,10,4,5,5,5
6,10,3,-9,1,7,-3,9,4,5,5,4
6,10,3,-9,1,6,-2,9,3,5,4,4
6,9,2,-8,1,6,-2,9,3,4,4,3
5,8,2,-8,1,5,-2,9,2,4,3,3
4,7,2,-7,0,5,-2,9,2,3,3,2
3,5,2,-5,0,5,-2,9,1,2,2,2
2,4,2,-3,0,4,-2,8,1,1,1,1
1,3,2,-3,0,3,-2,8,0,0,0,0
0,2,2,-2,-1,3,-2,8,0,0,0,0
-1,2,2,-1,-1,2,-1,7,0,0,0,0
-2,1,3,0,-2,2,-1,7,0,0,0,0
-3,1,3,0,-3,2,-1,6,0,1,0,0
-2,2,4,0,-3,3,-1,6,1,2,0,0
-2,3,5,-1,-3,4,0,7,1,2,1,0
-2,4,6,-1,-4,5,0,8,1,2,1,0
-1,4,6,-1,-4,5,0,8,1,2,0,0
0,4,5,-1,-3,4,0,7,0,1,0,0
0,4,4,-2,-2,4,0,6,0,1,0,0
0,3,3,-2,-1,3,0,6,-1,0,0,-1
0,3,3,-2,-1,3,0,5,-1,0,0,-1
0,3,3,-2,-1,3,0,5,-1,0,0,-1
0,2,3,-1,-2,3,0,5,-1,0,0,-1
-2,1,4,0,-3,3,0,5,-1,0,-1,-1
-4,0,4,1,-4,3,-1,5,-1,0,-1,-1
-5,-1,4,2,-4,2,-1,5,-1,0,-1,-1
-5,-1,4,2,-4,2,-1,5,-1,0,-1,-1
-4,-1,4,2,-4,2,0,5,-1,0,0,-1
-5,-1,5,3,-4,2,0,5,-1,0,0,-1
-6,-2,4,4,-4,1,-1,5,-1,-1,-1,-1
-5,-1,4,3,-4,1,-1,5,-2,-1,-1,-1
-4,0,4,2,-3,2,0,5,-2,0,-1,-1
-3,0,3,1,-3,2,0,5,-2,0,-1,-1
-1,1,3,0,-2,2,0,5,-1,0,0,-1
0,2,3,-1,-1,3,0,5,-1,0,0,0
0,3,3,-2,-2,4,0,5,0,0,0,0
0,2,3,-1,-2,3,0,4,0,0,0,-1
-1,1,3,0,-2,3,0,4,-1,0,-1,-1
-1,1,3,0,-2,3,0,4,-1,-1,-1,-2
-1,1,3,0,-2,3,-1,4,-1,-1,-2,-2
-2,1,3,0,-2,3,-1,4,-1,-1,-2,-2
-2,0,4,1,-3,3,0,4,-1,0,-1,-2
-4,0,5,2,-4,3,0,5,-1,0,-1,-1
-5,0,5,2,-5,3,-1,5,-1,0,-1,-1
-5,0,5,3,-5,3,-1,5,-1,0,-1,-1
-4,0,4,2,-4,2,-1,4,-1,0,-1,-1
-2,0,3,1,-2,2,-1,4,-1,0,-1,-1
-1,0,2,1,-1,2,-1,3,-1,0,0,-1
-1,0,2,1,-2,2,-1,4,-1,0,0,-1
-2,0,2,1,-2,1,-1,5,-1,0,0,-1
-1,0,2,1,-1,1,-1,6,0,1,0,-1
-1,0,1,0,-1,1,-2,9,2,2,0,-1
0,0,0,0,0,0,-2,13,4,3,0,-1
2,0,-2,-1,2,-1,-3,16,6,4,1,-1
6,-1,-7,-2,6,-3,-4,21,10,5,1,-2
10,-1,-11,-4,11,-5,-5,27,14,7,3,-1
16,0,-16,-8,16,-7,-7,33,20,10,5,0
24,2,-21,-13,23,-8,-11,39,26,14,9,1
33,7,-25,-20,29,-8,-15,45,34,19,14,3
41,11,-29,-27,35,-9,-20,50,42,25,19,7
49,16,-31,-33,40,-8,-26,54,50,32,25,11
57,23,-33,-40,45,-5,-31,56,59,39,32,16
65,30,-34,-47,50,-2,-37,57,66,45,39,21
72,36,-36,-53,54,0,-45,56,72,51,45,26
78,41,-37,-59,58,2,-53,55,77,56,51,30
80,47,-32,-63,56,8,-60,53,82,62,57,36
75,53,-21,-64,48,17,-66,46,86,69,64,43
67,59,-8,-63,37,26,-70,34,84,71,68,49
60,62,2,-61,29,31,-74,16,74,68,67,51
52,61,9,-57,22,34,-76,-4,58,60,61,49
39,55,16,-47,12,35,-76,-27,38,47,51,45
24,47,23,-35,0,35,-75,-51,16,33,39,39
12,40,27,-25,-8,34,-74,-72,-4,20,27,32
4,34,29,-18,-12,32,-75,-88,-21,8,18,26
0,30,29,-15,-14,30,-76,-97,-34,0,10,22
-1,27,29,-13,-15,29,-74,-100,-42,-6,5,18
-4,25,29,-11,-16,27,-71,-99,-46,-9,1,15
-7,23,31,-8,-18,26,-65,-94,-47,-11,-1,13
-9,22,32,-6,-20,26,-59,-87,-45,-12,-2,12
-10,23,33,-6,-21,28,-52,-80,-43,-11,-3,12
-12,22,34,-4,-22,29,-46,-72,-40,-10,-3,12
-13,21,34,-3,-23,28,-42,-66,-37,-10,-3,11
-13,19,33,-3,-23,27,-38,-60,-35,-9,-3,10
-12,18,31,-3,-22,26,-34,-55,-33,-9,-3,9
-11,18,30,-4,-20,24,-30,-51,-31,-8,-3,8
-8,17,27,-4,-18,22,-27,-46,-30,-7,-4,7
-7,15,23,-4,-15,19,-24,-43,-28,-8,-5,5
-8,12,21,-1,-15,16,-22,-39,-27,-8,-6,3
-10,10,20,1,-15,15,-19,-35,-25,-8,-6,3
-9,10,19,0,-14,15,-16,-30,-22,-7,-5,2
-7,10,17,-1,-11,14,-13,-25,-20,-7,-5,2
-5,9,15,-2,-10,13,-11,-22,-19,-7,-5,1
-5,9,14,-2,-9,12,-9,-19,-18,-6,-4,0
-5,8,15,-2,-10,11,-7,-17,-16,-5,-4,1
-7,8,16,0,-12,12,-5,-15,-14,-4,-3,2
-10,7,18,1,-14,13,-4,-13,-13,-4,-2,3
-12,7,19,2,-15,13,-4,-12,-12,-4,-2,3
-12,6,18,3,-14,12,-3,-12,-11,-4,-2,2
-11,5,17,3,-13,12,-3,-11,-11,-4,-3,1
-11,5,17,3,-13,11,-3,-11,-11,-4,-3,1
-11,4,16,3,-13,10,-3,-11,-12,-4,-3,0
-10,4,15,3,-12,9,-3,-11,-12,-5,-4,0
-10,3,14,3,-11,9,-3,-10,-13,-5,-4,-1
-9,4,13,2,-11,9,-2,-10,-13,-5,-4,0
-8,5,13,2,-10,9,-2,-10,-12,-5,-4,0
-8,5,14,2,-10,9,-1,-9,-12,-5,-4,0
-9,5,15,2,-11,10,-1,-9,-12,-5,-3,0
-9,5,15,2,-11,10,-1,-8,-12,-5,-3,0
-9,5,14,2,-11,10,-1,-8,-12,-5,-3,0
-9,4,14,2,-11,9,-1,-7,-12,-4,-3,0
-9,4,14,3,-11,9,-1,-6,-11,-4,-3,1
-10,3,14,3,-12,9,-1,-6,-11,-4,-3,1
-10,3,13,3,-11,8,-1,-6,-10,-4,-3,0
-7,4,12,2,-9,8,-1,-5,-10,-4,-3,0
-5,4,11,0,-8,8,-1,-5,-10,-4,-3,0
-4,5,10,0,-7,8,-1,-4,-11,-4,-4,0
-4,5,10,0,-7,8,-1,-4,-11,-4,-4,0
-3,5,10,-1,-7,8,0,-4,-10,-3,-3,0
-2,6,10,-2,-6,8,0,-4,-10,-3,-3,0
-2,6,9,-3,-5,8,0,-4,-10,-4,-4,0
-3,6,9,-2,-6,8,0,-4,-10,-4,-4,0
-4,6,10,-1,-6,8,0,-4,-10,-4,-4,0
-4,6,11,-1,-7,8,0,-3,-10,-4,-4,0
-6,5,11,0,-8,8,0,-3,-10,-4,-4,0
-6,4,11,0,-8,8,0,-2,-10,-4,-4,0
-6,4,11,0,-8,7,0,-2,-10,-4,-4,0
-6,4,10,0,-8,7,0,-2,-10,-4,-4,0
-5,4,10,0,-7,7,1,-2,-10,-5,-4,0
-5,4,10,0,-7,7,1,-1,-9,-5,-4,0
-5,4,10,0,-7,6,1,0,-9,-5,-4,0
-4,3,8,0,-6,5,1,0,-10,-6,-5,-1
-4,3,7,0,-5,5,0,0,-10,-6,-5,-2
-4,3,8,1,-6,5,0,0,-10,-6,-5,-2
-5,2,8,1,-6,5,0,0,-9,-6,-5,-2
-5,2,7,1,-6,5,1,1,-9,-5,-5,-2
-4,2,7,0,-5,5,1,2,-9,-5,-5,-1
-4,3,7,0,-5,5,2,3,-9,-5,-5,-1
-3,2,6,0,-5,4,2,4,-9,-5,-5,-1
-2,2,4,0,-3,3,2,5,-9,-6,-5,-2
-2,1,3,0,-3,2,3,6,-9,-6,-5,-2
-2,1,3,0,-2,1,4,7,-9,-7,-5,-2
-1,1,2,0,-1,1,4,8,-10,-7,-6,-3
0,1,1,0,-1,1,4,9,-10,-8,-6,-3
0,1,2,0,-1,1,5,10,-10,-8,-6,-3
0,1,2,0,-1,2,6,11,-9,-7,-6,-3
0,1,2,-1,0,1,6,12,-9,-7,-6,-3
1,0,0,-1,0,0,7,13,-9,-8,-7,-4
0,-1,-1,0,0,-1,7,14,-9,-8,-7,-4
0,-2,-1,0,0,-2,7,15,-9,-9,-8,-5
0,-2,-2,1,1,-2,7,16,-9,-9,-8,-5
1,-2,-2,0,1,-1,8,19,-8,-8,-7,-5
3,0,-3,-1,3,-1,9,21,-7,-8,-7,-5
5,0,-4,-3,4,-1,10,23,-7,-7,-6,-4
6,0,-5,-3,5,-2,11,25,-6,-7,-6,-4
8,0,-6,-4,7,-3,11,26,-6,-8,-7,-5
11,0,-10,-6,10,-4,12,26,-7,-9,-8,-6
13,0,-12,-7,13,-5,12,27,-7,-9,-8,-7
12,-1,-13,-6,13,-6,12,28,-7,-10,-9,-7
11,-2,-13,-4,13,-7,12,30,-7,-10,-9,-8
11,-3,-14,-3,13,-9,12,30,-8,-11,-11,-9
10,-6,-16,-2,13,-11,12,31,-9,-13,-12,-10
10,-8,-17,-1,14,-13,12,31,-10,-13,-13,-11
11,-8,-19,-1,15,-14,12,32,-10,-14,-13,-12
14,-8,-22,-3,18,-15,12,33,-10,-14,-14,-12
16,-8,-24,-4,21,-16,13,34,-10,-14,-14,-13
16,-9,-25,-4,21,-16,13,35,-10,-14,-14,-14
16,-10,-26,-3,22,-17,14,36,-10,-15,-14,-14
17,-9,-27,-4,22,-18,14,37,-9,-15,-15,-15
18,-9,-27,-4,23,-18,14,37,-9,-15,-15,-15
19,-9,-28,-5,24,-19,14,38,-9,-15,-15,-15
18,-10,-28,-4,23,-19,13,38,-9,-15,-15,-15
18,-11,-28,-3,23,-20,13,38,-9,-15,-15,-15
18,-12,-29,-3,24,-20,13,38,-8,-14,-15,-15
19,-12,-31,-4,25,-21,13,39,-8,-14,-14,-15
19,-12,-31,-4,25,-21,13,39,-7,-14,-14,-14
19,-12,-31,-4,26,-21,13,38,-7,-14,-14,-14
19,-12,-31,-4,26,-22,12,38,-7,-14,-14,-14
19,-12,-31,-4,26,-22,12,38,-7,-14,-14,-14
19,-12,-30,-4,25,-21,12,38,-7,-14,-14,-14
19,-11,-29,-4,25,-20,12,37,-6,-13,-13,-13
18,-11,-28,-4,24,-20,12,36,-5,-12,-13,-13
16,-11,-27,-3,22,-19,11,35,-5,-12,-12,-13
15,-11,-26,-2,21,-18,10,34,-5,-11,-12,-13
15,-11,-25,-1,20,-18,10,33,-4,-11,-12,-12
14,-10,-24,-1,19,-17,9,31,-4,-11,-12,-12
13,-10,-24,-1,18,-17,9,30,-4,-11,-11,-11
12,-10,-22,-1,17,-16,8,29,-3,-10,-10,-11
13,-8,-20,-2,16,-14,8,28,-2,-8,-9,-9
14,-5,-18,-4,16,-12,8,27,0,-7,-7,-8
15,-3,-17,-6,16,-10,8,26,0,-5,-6,-7
14,-2,-16,-6,15,-9,7,25,1,-5,-6,-6
12,-1,-14,-5,14,-8,6,23,1,-4,-5,-5
11,-1,-13,-5,13,-8,6,22,1,-4,-5,-5
10,-1,-13,-4,12,-8,5,20,1,-4,-5,-5
9,-2,-12,-3,10,-8,4,19,1,-3,-5,-5
7,-3,-10,-2,9,-7,3,17,1,-3,-5,-5
6,-4,-9,-1,7,-6,2,17,1,-2,-4,-4
5,-3,-7,-1,6,-4,2,17,2,-1,-3,-3
5,-1,-5,-2,5,-2,1,17,3,0,-2,-2
4,0,-4,-2,4,-1,1,16,3,0,-1,-2
4,0,-3,-3,4,0,1,16,4,0,0,-1
4,1,-2,-3,3,0,1,15,4,0,0,-1
2,0,-2,-2,2,0,1,14,4,0,0,-1
1,0,-1,-1,1,0,1,13,3,0,0,0
1,0,0,-1,0,0,1,13,3,1,0,0
0,0,1,0,0,1,1,12,3,1,0,0
0,-1,0,0,0,0,0,11,3,0,0,0
2,0,-2,-1,2,0,-1,10,2,0,0,-1
3,0,-2,-2,3,0,-1,10,3,0,0,0
1,1,0,-1,2,0,-1,10,3,1,0,0
1,1,0,-1,1,1,-1,10,3,1,0,0
1,1,0,-1,1,1,-1,10,3,1,0,1
0,0,1,0,0,1,-2,9,3,1,0,1
-2,0,2,0,-2,2,-2,8,4,2,1,1
-3,0,3,1,-3,2,-3,8,4,2,1,1
-2,0,2,1,-2,2,-3,7,3,2,1,1
-2,0,2,1,-2,2,-3,7,3,2,1,2
-2,0,3,1,-2,2,-3,7,4,2,2,2
-2,0,3,0,-2,2,-3,6,4,2,2,2
-2,0,3,0,-2,2,-3,6,4,2,2,2
-2,0,3,0,-2,2,-3,6,4,2,2,2
-2,0,3,0,-2,2,-4,6,4,2,2,2
-2,1,3,0,-2,2,-4,7,4,3,2,2
-1,1,3,0,-2,3,-4,7,4,3,3,3
0,2,2,-1,-1,3,-4,7,4,3,3,3
0,2,2,-1,-1,3,-4,6,4,3,3,3
0,1,3,0,-1,2,-5,5,4,3,3,3
-1,1,2,0,-1,2,-5,5,3,3,2,2
-1,0,2,0,-1,1,-5,5,3,2,2,2
-1,0,2,0,-1,1,-5,5,3,3,2,2
-2,0,3,1,-2,2,-4,6,4,3,2,3
-4,0,4,2,-3,2,-4,7,4,4,3,3
-5,-1,4,3,-4,2,-4,7,4,4,3,3
-4,-1,4,3,-4,2,-4,7,4,4,3,3
-3,0,4,2,-4,2,-3,8,4,4,3,3
-3,0,4,1,-4,2,-3,8,5,4,3,4
-3,0,4,1,-4,2,-3,7,5,4,3,4
-3,0,4,1,-4,2,-4,7,5,4,3,4
-3,0,4,1,-3,2,-4,6,5,4,3,4
-2,0,3,1,-3,2,-4,7,5,4,3,4
-2,0,3,1,-2,2,-4,7,5,4,3,4
-3,-1,3,1,-3,2,-4,7,4,4,3,3
-4,-2,3,2,-3,1,-4,7,4,4,3,3
-5,-2,4,3,-4,1,-4,8,4,4,3,3
-4,-2,4,2,-4,1,-4,8,4,4,3,3
-3,-1,3,1,-3,1,-4,7,4,4,3,3
-2,0,2,1,-2,1,-4,6,3,4,3,3
-2,-1,2,2,-2,1,-4,6,3,4,3,3
-3,-1,2,2,-2,1,-4,6,3,4,3,3
-2,0,2,1,-2,1,-4,7,3,3,3,3
0,0,1,0,-1,1,-4,7,3,3,2,2
0,0,0,0,0,0,-4,7,3,2,2,2
0,-1,0,0,0,0,-4,7,3,2,2,2
-2,-2,0,1,-1,0,-4,7,3,2,2,2
-4,-2,2,2,-3,0,-3,7,3,2,2,2
-5,-2,3,3,-4,1,-3,7,3,3,2,2
-6,-2,4,3,-4,1,-2,8,4,3,2,2
-6,-2,4,4,-4,1,-2,8,4,3,2,2
-6,-3,4,5,-5,1,-3,7,4,3,2,2
-7,-4,4,6,-5,0,-3,7,3,3,2,2
-8,-4,4,6,-6,0,-4,6,3,2,2,1
-8,-4,3,6,-6,0,-4,6,2,2,1,1
-5,-2,3,4,-4,0,-3,6,3,2,2,2
-2,1,3,0,-2,1,-3,6,4,3,3,3
-1,2,3,0,-2,2,-3,6,4,3,3,3
-1,2,3,0,-2,2,-3,6,4,3,3,3
-1,1,3,0,-2,2,-3,6,4,3,3,3
-1,1,2,0,-2,2,-3,6,4,3,3,2
-1,0,2,0,-2,1,-3,7,4,2,3,2
-2,-1,1,1,-2,1,-3,7,4,2,3,2
-3,-1,2,2,-2,1,-3,7,4,2,3,2
-3,-1,3,2,-3,1,-2,7,4,2,2,2
-4,-1,3,2,-4,1,-2,7,4,2,2,2
-4,0,3,2,-4,1,-2,7,4,2,2,2
-4,0,3,2,-4,1,-2,7,4,2,2,2
-4,-1,3,3,-4,1,-2,6,4,2,2,2
-4,0,3,2,-4,2,-2,6,4,2,2,2
-3,0,3,1,-3,2,-2,5,4,2,2,2
-2,0,3,1,-3,2,-2,5,4,2,2,2
-2,0,2,1,-2,1,-3,4,3,1,1,1
-3,-1,1,2,-2,0,-4,3,2,0,0,0
-4,-2,1,3,-3,0,-5,2,1,0,0,0
-5,-3,2,4,-3,-1,-5,2,1,0,0,0
-5,-3,2,4,-4,0,-4,2,2,1,0,0
-5,-2,3,3,-3,1,-3,2,3,2,1,0
-4,0,3,2,-3,2,-2,2,3,2,2,1
-3,0,3,1,-3,2,-1,2,4,3,2,1
-2,2,4,0,-3,3,-1,3,4,3,3,2
-1,4,4,-2,-3,4,0,3,5,4,4,3
0,4,5,-2,-3,5,0,4,5,4,4,3
-1,4,5,-1,-3,5,1,4,5,5,4,3
-1,5,6,-1,-3,5,1,4,6,5,4,4
-1,5,7,-1,-3,6,1,5,6,6,5,4
-1,6,6,-2,-3,6,1,5,6,6,5,4
0,7,6,-3,-2,6,1,5,7,6,6,5
1,7,6,-4,-2,6,1,4,7,7,6,5
2,6,4,-4,-1,5,1,3,7,6,6,4
2,5,3,-3,0,3,0,2,6,5,5,3
3,5,2,-4,0,3,0,1,6,5,5,3
2,5,2,-4,0,3,-1,1,6,5,5,3
1,5,2,-3,0,3,-1,1,6,5,5,3
0,5,3,-2,-1,3,0,1,6,5,6,4
1,6,4,-4,-1,4,0,2,8,7,7,5
3,9,5,-6,0,6,1,4,9,8,8,6
6,11,5,-8,0,7,1,5,10,9,9,7
8,11,4,-9,1,7,0,5,10,10,9,7
9,12,3,-10,2,7,0,4,10,10,9,7
9,12,3,-11,2,8,-1,4,10,11,10,8
9,13,3,-11,3,8,-1,3,10,11,10,8
9,14,3,-11,3,8,-1,2,10,10,10,8
9,13,3,-11,3,8,-1,0,9,9,9,8
7,11,3,-9,3,7,-1,0,8,9,9,7
6,9,2,-8,2,6,-2,-1,8,8,8,7
5,8,2,-7,1,5,-2,-2,8,8,8,7
4,7,3,-6,0,5,-2,-2,8,8,8,7
5,7,2,-6,1,5,-3,-2,7,8,7,6
6,7,1,-6,2,4,-3,-3,7,7,7,6
5,6,0,-6,2,3,-3,-4,7,7,6,5
4,6,1,-5,1,3,-3,-4,7,7,6,5
2,5,2,-4,0,4,-3,-4,7,7,6,5
2,5,3,-4,0,4,-3,-4,7,7,6,5
2,5,3,-4,-1,4,-2,-4,6,7,6,5
3,5,2,-4,0,4,-2,-5,6,6,6,5
4,5,1,-4,0,3,-2,-5,5,6,5,4
3,5,1,-4,0,3,-2,-5,5,6,5,3
2,5,2,-3,0,4,-1,-5,5,6,5,3
2,5,2,-4,0,4,0,-5,6,6,6,3
2,5,3,-3,-1,4,0,-5,5,5,6,3
-1,3,4,-1,-3,4,-1,-6,4,5,5,2
-5,1,5,2,-6,3,-1,-7,4,4,4,2
-9,-1,6,5,-8,3,0,-7,4,4,4,2
-11,-3,7,7,-9,2,0,-7,4,4,3,2
-12,-5,6,8,-9,1,0,-7,4,4,3,1
-9,-3,6,6,-7,2,1,-7,4,4,3,2
-7,0,6,4,-6,3,2,-6,4,4,3,2
-5,1,6,2,-6,4,3,-5,4,4,4,2
-5,1,5,2,-5,3,2,-6,3,3,3,1
-6,-1,5,3,-6,2,1,-7,2,2,2,1
-8,-2,6,5,-7,2,2,-7,2,2,2,1
-10,-3,7,7,-9,2,2,-7,2,3,2,1
-11,-4,6,8,-9,1,2,-7,2,3,2,1
-9,-4,5,7,-7,0,2,-8,2,2,1,0
-9,-4,4,7,-7,0,2,-8,1,1,1,0
-9,-4,5,7,-8,0,3,-8,1,1,1,0
-9,-4,5,7,-8,0,3,-8,1,1,1,0
-9,-3,4,6,-7,0,3,-9,1,1,1,0
-9,-3,4,6,-7,0,3,-9,1,2,1,0
-10,-3,5,7,-8,0,3,-9,1,2,2,0
-10,-4,6,7,-9,1,3,-9,1,2,2,0
-10,-4,6,7,-8,1,3,-9,1,2,2,0
-10,-5,5,8,-8,0,2,-9,0,1,1,0
-10,-6,5,8,-8,-1,1,-9,0,1,1,0
-10,-7,4,9,-8,-1,1,-9,0,0,1,0
-10,-6,4,8,-7,-1,2,-8,0,0,1,0
-9,-5,4,7,-7,-1,2,-8,0,1,1,0
-8,-5,3,7,-6,-1,2,-8,0,1,1,0
-9,-5,4,7,-7,-1,2,-8,0,1,1,0
-9,-4,5,7,-7,0,3,-8,0,1,1,0
-10,-4,6,7,-8,0,3,-8,1,1,1,0
-11,-5,6,8,-8,0,3,-8,1,1,1,0
-12,-6,6,9,-9,0,2,-9,0,1,0,-1
-13,-8,6,10,-9,-1,2,-10,0,0,0,-1
-14,-9,6,11,-10,-1,1,-11,0,0,0,-2
-14,-8,5,11,-9,-1,1,-11,0,0,0,-1
-12,-7,4,10,-9,-1,2,-11,0,1,0,-1
-11,-6,4,9,-8,0,3,-10,0,2,0,0
-10,-5,5,8,-8,0,4,-9,1,2,1,0
-10,-4,6,7,-8,1,4,-9,1,2,1,0
-10,-4,6,7,-8,1,5,-8,1,2,1,0
-10,-4,7,7,-8,1,4,-8,1,2,1,0
-11,-6,6,8,-8,0,4,-8,1,2,1,0
-11,-7,5,9,-8,0,3,-8,1,1,0,-1
-11,-7,4,9,-7,-1,3,-7,1,1,0,-1
-11,-8,2,9,-7,-3,2,-5,1,1,0,-2
-10,-9,0,9,-5,-4,1,-3,2,1,0,-3
-8,-10,-2,8,-3,-6,0,0,4,1,0,-3
-4,-10,-6,6,1,-8,-1,4,7,2,0,-3
1,-8,-10,3,6,-9,-2,10,12,4,2,-3
9,-6,-14,-1,12,-10,-3,17,18,7,5,-1
16,-4,-20,-6,18,-11,-6,24,24,12,8,0
23,-2,-24,-11,24,-13,-10,31,31,17,12,2
31,2,-28,-17,29,-13,-15,37,39,22,18,6
39,8,-31,-24,35,-12,-21,40,47,28,24,10
49,15,-34,-32,41,-10,-28,42,55,35,31,14
59,21,-38,-40,48,-9,-35,44,62,41,36,19
66,25,-40,-45,53,-8,-43,44,68,46,42,23
70,29,-40,-49,55,-6,-51,43,73,51,47,27
71,33,-36,-52,54,-1,-58,41,78,57,53,32
66,39,-26,-52,47,6,-64,36,82,63,59,39
58,44,-14,-51,36,15,-68,24,79,65,63,44
51,48,-3,-49,26,22,-71,7,71,63,63,47
45,49,4,-47,19,27,-74,-12,57,57,59,47
35,46,11,-40,11,28,-74,-36,37,45,50,43
22,40,18,-31,1,29,-72,-62,15,32,38,37
10,33,23,-22,-7,28,-71,-84,-5,19,27,31
2,28,26,-15,-12,27,-72,-100,-21,8,19,26
-3,24,27,-10,-15,26,-73,-110,-32,1,12,22
-6,21,27,-7,-17,25,-72,-114,-39,-4,7,19
-9,19,27,-4,-19,23,-68,-113,-43,-8,3,16
-13,16,29,-1,-22,22,-62,-108,-43,-9,1,14
-17,15,32,1,-25,23,-55,-99,-41,-9,0,13
-21,14,35,3,-28,24,-48,-90,-38,-8,0,13
-23,13,36,4,-29,24,-42,-82,-36,-8,0,12
-22,12,35,5,-28,24,-37,-76,-33,-7,0,11
-21,12,34,4,-27,24,-33,-71,-31,-7,0,11
-20,12,32,4,-26,23,-29,-67,-30,-6,0,10
-19,12,32,4,-26,22,-26,-63,-28,-6,0,10
-19,11,30,4,-25,21,-23,-59,-27,-6,0,9
-18,9,27,5,-23,17,-21,-56,-26,-7,-1,7
-18,5,23,7,-21,13,-19,-52,-25,-8,-3,4
-21,1,22,10,-22,11,-17,-47,-24,-8,-4,2
-22,-1,21,12,-22,9,-14,-43,-22,-8,-4,1
-22,-2,19,12,-20,8,-11,-39,-20,-7,-5,0
-21,-2,19,12,-20,8,-8,-36,-19,-7,-4,0
-21,-2,19,12,-20,8,-5,-34,-17,-6,-4,1
-20,-2,19,12,-20,8,-3,-32,-15,-5,-3,1
-20,-2,18,12,-20,7,-2,-30,-14,-4,-2,1
-21,-2,18,12,-20,7,-1,-28,-14,-4,-2,1
-22,-4,18,13,-20,6,0,-26,-13,-4,-2,0
-23,-5,18,14,-20,6,0,-24,-13,-4,-2,0
-22,-5,17,13,-20,6,1,-24,-12,-4,-2,0
-21,-4,17,13,-19,7,2,-23,-11,-4,-2,0
-20,-3,17,12,-19,7,3,-23,-11,-4,-2,0
-19,-3,17,11,-18,7,4,-23,-10,-4,-2,0
-19,-3,16,11,-18,6,3,-23,-10,-4,-2,0
-19,-3,16,11,-18,6,3,-22,-11,-4,-2,0
-20,-4,16,12,-18,5,2,-21,-11,-4,-2,0
-21,-5,16,13,-18,5,2,-20,-11,-4,-3,-1
-21,-6,16,14,-18,5,2,-19,-11,-4,-3,-1
-20,-5,16,13,-18,5,3,-18,-11,-4,-3,-1
-19,-4,15,12,-17,5,4,-18,-11,-4,-3,-1
-19,-4,15,11,-17,5,4,-18,-11,-4,-3,-2
-18,-4,14,12,-17,4,4,-18,-11,-4,-3,-2
-18,-4,14,11,-17,4,4,-17,-10,-4,-3,-1
-18,-3,15,11,-17,5,5,-16,-9,-3,-2,-1
-17,-2,15,10,-16,6,6,-16,-9,-3,-2,0
-17,-3,14,10,-16,6,6,-16,-9,-3,-2,0
-18,-4,15,11,-16,6,6,-16,-9,-3,-2,-1
-20,-6,15,13,-17,5,5,-16,-10,-4,-3,-2
-20,-7,14,14,-17,4,4,-17,-11,-5,-4,-3
-20,-7,13,13,-17,3,4,-16,-11,-5,-5,-3
-17,-5,12,11,-15,3,4,-15,-11,-5,-4,-3
-15,-3,11,9,-14,4,5,-15,-11,-5,-4,-2
-14,-3,11,9,-13,4,5,-14,-11,-5,-4,-2
-15,-4,11,9,-13,4,6,-14,-10,-5,-4,-2
-17,-5,12,11,-15,4,6,-14,-10,-5,-4,-2
-20,-7,14,14,-17,4,7,-14,-10,-5,-4,-2
-22,-8,15,15,-18,3,7,-14,-10,-5,-4,-3
-23,-9,15,16,-19,2,6,-13,-10,-5,-5,-3
-23,-9,14,16,-19,2,6,-13,-10,-6,-5,-3
-22,-8,13,15,-17,1,5,-13,-11,-6,-5,-3
-19,-7,11,13,-15,1,5,-13,-11,-6,-5,-3
-15,-5,10,10,-13,2,6,-11,-10,-6,-5,-3
-13,-3,9,8,-11,2,7,-10,-10,-5,-5,-2
-13,-4,9,9,-12,3,7,-9,-9,-5,-4,-2
-14,-4,10,10,-13,3,8,-9,-9,-4,-4,-2
-15,-4,10,10,-13,3,8,-8,-8,-4,-4,-2
-15,-4,10,10,-13,2,9,-7,-8,-4,-4,-2
-15,-5,10,10,-13,2,9,-7,-8,-5,-4,-3
-15,-5,10,10,-12,2,10,-6,-8,-5,-4,-3
-14,-5,9,9,-11,2,11,-4,-8,-5,-5,-3
-13,-5,9,9,-11,2,11,-3,-9,-6,-5,-4
-13,-6,8,10,-10,1,11,-2,-9,-6,-5,-4
-12,-7,6,10,-10,0,11,-1,-9,-7,-6,-5
-12,-7,5,10,-9,-1,12,-1,-9,-7,-6,-5
-11,-7,5,9,-9,-1,13,0,-9,-7,-6,-5
-10,-5,5,7,-8,0,14,1,-8,-7,-6,-5
-9,-4,5,7,-7,0,14,3,-8,-7,-6,-5
-8,-5,4,7,-6,-1,14,4,-8,-7,-6,-5
-6,-5,2,6,-4,-2,15,5,-8,-8,-7,-6
-5,-5,0,6,-3,-3,15,7,-8,-8,-7,-6
-6,-6,0,7,-3,-3,16,8,-8,-8,-7,-6
-8,-8,0,8,-4,-4,17,8,-8,-8,-7,-6
-9,-9,0,9,-4,-5,18,9,-8,-8,-7,-6
-9,-10,-1,10,-4,-6,18,10,-8,-8,-8,-7
-8,-10,-3,9,-2,-7,18,11,-8,-9,-8,-8
-7,-11,-5,9,0,-8,18,13,-9,-10,-9,-9
-6,-13,-7,9,1,-10,18,14,-9,-11,-10,-10
-5,-14,-8,9,2,-11,19,16,-9,-11,-10,-11
-4,-15,-10,10,3,-12,19,18,-9,-12,-10,-11
-4,-15,-11,10,4,-13,20,20,-9,-12,-11,-11
-2,-15,-13,9,5,-14,20,22,-10,-13,-12,-12
0,-16,-15,9,7,-15,20,22,-10,-14,-13,-13
1,-17,-18,8,9,-17,20,23,-10,-14,-14,-14
1,-18,-19,9,10,-19,20,24,-10,-15,-15,-15
0,-20,-20,10,10,-20,21,24,-10,-15,-15,-15
0,-21,-21,10,10,-21,22,24,-10,-15,-15,-16
0,-22,-22,10,11,-22,22,24,-10,-16,-15,-16
3,-21,-24,8,13,-22,23,25,-10,-16,-15,-16
7,-17,-25,5,15,-21,23,27,-9,-15,-14,-15
9,-16,-25,3,17,-21,24,29,-8,-14,-14,-15
10,-16,-26,3,18,-22,24,30,-8,-14,-14,-15
10,-17,-27,4,19,-23,23,30,-8,-15,-15,-16
10,-18,-28,4,19,-24,23,30,-8,-15,-15,-16
9,-20,-29,5,19,-25,23,30,-8,-15,-15,-16
8,-21,-29,5,18,-25,23,30,-8,-15,-15,-16
9,-21,-30,5,19,-25,23,29,-8,-15,-15,-17
10,-21,-31,5,20,-26,21,29,-8,-15,-15,-17
11,-21,-32,4,21,-26,20,29,-8,-15,-15,-17
10,-21,-31,5,21,-26,19,28,-7,-15,-14,-17
9,-21,-30,6,20,-26,18,27,-7,-15,-14,-17
7,-22,-30,7,19,-27,17,26,-7,-15,-14,-17
7,-23,-30,7,18,-27,16,25,-7,-15,-14,-17
8,-22,-29,7,18,-26,16,23,-6,-14,-14,-16
9,-20,-28,5,18,-24,17,23,-6,-13,-13,-15
8,-19,-27,5,17,-22,17,22,-5,-12,-12,-15
6,-19,-25,6,15,-22,17,22,-4,-11,-11,-14
5,-18,-23,6,14,-21,17,21,-3,-10,-10,-13
3,-18,-21,7,12,-20,16,21,-2,-9,-9,-12
3,-16,-19,6,12,-18,16,20,-1,-8,-8,-11
5,-13,-18,4,12,-16,16,20,0,-7,-7,-10
6,-12,-17,3,12,-15,16,19,0,-6,-7,-9
5,-11,-16,3,10,-14,15,17,0,-6,-6,-9
2,-12,-15,5,8,-13,14,15,0,-6,-6,-9
-1,-13,-13,7,6,-13,13,14,0,-5,-5,-8
-2,-13,-12,7,5,-13,12,13,1,-4,-5,-8
-3,-12,-10,7,4,-12,12,12,2,-3,-4,-7
-4,-12,-8,8,3,-11,12,11,2,-2,-3,-6
-4,-11,-8,8,2,-10,11,10,2,-2,-2,-5
-2,-11,-8,7,3,-10,10,9,2,-2,-2,-5
-1,-10,-8,6,3,-9,9,7,2,-2,-2,-5
-1,-10,-8,5,3,-9,9,6,2,-2,-2,-5
-2,-9,-6,5,2,-8,8,5,2,-2,-2,-5
-2,-8,-5,5,1,-7,8,4,2,-2,-2,-4
-3,-8,-5,6,1,-6,8,4,2,-2,-2,-4
-4,-8,-4,6,0,-6,8,4,2,-1,-1,-4
-5,-8,-3,7,0,-6,8,4,2,-1,-1,-3
-7,-9,-2,8,-1,-6,7,3,2,0,0,-3
-7,-8,-2,8,-2,-5,6,2,2,0,0,-2
-6,-7,-1,6,-3,-4,6,2,3,1,0,-2
-5,-6,0,5,-3,-3,6,1,4,2,1,-1
-5,-6,0,5,-3,-3,6,1,5,2,1,-1
-5,-6,0,5,-3,-3,6,0,5,3,2,0
-6,-5,1,5,-3,-2,6,0,5,3,2,0
-7,-5,3,6,-4,-2,6,0,5,3,3,0
-8,-5,4,6,-5,-1,6,0,5,3,3,0
-8,-5,3,6,-5,-1,5,-1,4,3,3,0
-8,-5,3,6,-6,-1,5,-1,4,3,3,0
-8,-5,3,6,-6,-1,5,-1,5,4,3,1
-7,-5,2,6,-5,-1,4,-1,5,4,3,1
-7,-5,2,6,-4,-2,4,-1,4,3,2,0
-7,-5,2,6,-4,-2,4,-1,4,3,2,0
-7,-5,2,7,-4,-2,4,-1,4,3,2,0
-7,-5,2,6,-4,-2,4,-2,4,2,2,0
-6,-5,1,6,-3,-2,4,-2,3,2,2,1
-7,-5,1,6,-4,-2,4,-2,3,3,3,1
-8,-6,2,7,-5,-2,3,-3,3,3,3,1
-9,-7,2,8,-6,-3,2,-3,2,2,2,1
-9,-7,2,8,-5,-3,2,-3,2,2,2,0
-8,-7,1,8,-4,-3,2,-4,2,2,2,0
-6,-6,0,6,-3,-3,2,-4,2,2,2,0
-6,-5,0,5,-2,-3,3,-4,2,2,2,0
-6,-5,1,5,-3,-2,3,-4,2,2,2,0
-5,-3,1,4,-3,-2,4,-4,3,2,2,1
-4,-2,1,3,-3,-1,4,-3,3,3,3,2
-4,-2,2,3,-3,-1,5,-3,3,3,3,2
-5,-3,3,4,-4,-1,5,-3,3,3,3,2
-6,-3,3,5,-4,-1,5,-2,3,3,3,2
-6,-4,3,5,-4,-1,4,-2,3,3,3,2
-6,-4,2,5,-4,-1,4,-2,3,3,3,2
-6,-4,2,5,-4,-2,4,-1,3,3,3,1
-7,-5,2,6,-4,-2,4,-1,2,3,2,1
-9,-7,2,7,-6,-3,3,-2,2,2,2,1
-10,-8,2,9,-7,-3,3,-2,2,2,2,1
-11,-8,2,9,-7,-3,3,-1,2,2,2,1
-9,-6,3,8,-6,-2,4,-1,3,3,3,1
-8,-4,3,6,-5,-1,4,-1,4,4,3,2
-7,-3,3,5,-5,0,5,-1,4,4,3,2
-6,-2,3,4,-4,0,5,-1,4,4,3,1
-5,-2,3,3,-3,0,5,-1,4,4,3,1
-5,-2,2,3,-3,0,5,-2,3,4,2,1
-6,-3,2,4,-4,0,5,-2,3,4,2,1
-7,-3,3,4,-4,0,5,-1,3,4,2,1
-6,-3,3,4,-4,0,5,0,4,4,2,1
-5,-2,3,3,-4,1,5,0,4,4,2,1
-5,-2,3,3,-4,1,5,0,4,4,2,1
-5,-2,3,3,-4,0,5,1,4,4,2,1
-5,-2,3,3,-4,0,5,0,4,4,2,1
-5,-3,2,3,-4,0,5,0,4,4,2,1
-6,-3,2,4,-4,-1,5,0,4,4,2,1
-5,-4,1,4,-3,-1,4,-1,4,4,2,1
-5,-4,0,5,-2,-2,4,-1,3,3,1,0
-4,-5,-1,5,-1,-3,4,0,2,2,0,0
-5,-5,0,6,-2,-3,4,0,2,2,0,0
-5,-5,0,6,-3,-2,4,0,2,2,0,0
-5,-4,1,5,-3,-2,4,0,2,2,1,0
-6,-4,2,5,-4,-1,5,0,2,2,1,1
-8,-5,3,6,-6,-1,5,0,2,2,2,1
-9,-5,3,7,-6,-1,5,0,2,2,2,1
-9,-6,3,7,-6,-1,5,0,2,2,1,1
-8,-5,3,7,-6,-1,5,1,2,2,1,1
-7,-5,2,5,-4,-1,4,1,2,2,1,1
-6,-4,1,4,-4,-1,4,1,2,2,1,1
-6,-4,1,4,-4,-1,4,1,2,2,1,1
-6,-5,1,5,-4,-2,3,1,1,1,1,1
-7,-6,1,6,-4,-2,3,0,1,1,1,0
-6,-5,1,5,-4,-2,4,1,2,1,1,1
-5,-4,1,4,-4,-1,5,1,3,2,1,1
-5,-4,0,4,-3,-2,5,1,3,2,1,1
-4,-4,0,4,-3,-2,5,1,3,1,1,1
-4,-4,0,4,-3,-2,5,1,3,1,1,1
-4,-4,0,4,-3,-2,5,0,2,1,1,1
-6,-5,1,5,-3,-2,4,0,2,1,1,0
-7,-6,2,7,-4,-2,4,0,2,1,1,0
-7,-6,2,7,-4,-2,4,0,2,1,1,0
-6,-5,1,6,-4,-2,4,0,2,1,0,0
-7,-5,1,6,-4,-2,3,0,2,1,0,0
-8,-6,2,7,-5,-2,3,0,2,1,1,0
-9,-6,3,7,-5,-1,3,0,2,1,1,0
-7,-4,3,5,-4,0,4,0,2,1,2,1
-5,-3,3,4,-3,0,4,1,3,2,2,1
-4,-3,2,3,-2,-1,4,1,3,2,2,1
-4,-2,2,3,-2,0,4,1,3,2,2,2
-2,0,2,1,-2,1,5,2,4,3,3,3
-1,1,3,0,-2,2,6,3,5,3,3,3
0,3,3,-1,-2,3,6,4,5,4,4,4
-1,3,4,-1,-2,4,7,4,6,5,4,4
-2,2,5,0,-3,4,7,4,6,5,4,4
-1,2,4,-1,-2,4,7,4,6,5,5,4
-1,3,4,-1,-2,4,7,4,6,6,5,4
-1,3,4,-1,-2,4,6,4,7,6,5,4
-1,3,4,-1,-2,4,6,3,7,6,5,4
-1,3,4,-1,-2,4,5,3,6,6,5,4
0,3,4,-1,-2,4,4,3,6,5,4,4
0,3,3,-1,-2,4,3,3,5,5,4,4
-1,3,4,-1,-2,4,3,3,5,5,5,4
-1,3,4,-1,-2,4,3,3,6,5,5,4
0,3,4,-1,-2,4,3,3,7,6,6,4
0,3,4,-2,-1,4,3,3,8,6,6,5
1,4,3,-2,-1,4,3,4,8,6,6,5
2,5,3,-4,0,4,4,5,9,7,6,6
4,7,3,-6,1,5,3,6,10,8,7,7
6,9,3,-8,2,6,3,7,10,8,8,7
7,10,3,-9,2,7,2,7,10,9,8,8
8,11,3,-10,3,7,2,6,9,8,8,8
9,11,2,-10,3,6,2,5,8,8,8,8
8,9,2,-9,3,5,2,4,7,7,8,7
6,7,2,-7,2,5,1,2,6,6,7,7
4,6,2,-5,1,4,1,1,6,6,7,7
3,5,2,-4,1,4,0,1,6,6,7,7
2,4,2,-3,1,3,-1,1,6,5,6,6
2,4,2,-3,1,3,-2,1,6,5,6,6
3,4,1,-3,1,2,-2,1,6,5,6,6
5,5,0,-5,3,2,-1,1,6,5,6,6
7,6,-1,-6,4,1,-1,1,5,4,5,5
7,6,-1,-6,4,1,0,1,5,4,5,5
6,6,0,-5,3,2,0,0,4,4,5,5
4,5,0,-4,2,2,0,0,4,4,5,5
3,4,1,-4,1,2,0,0,3,4,5,5
2,4,1,-3,1,2,0,0,3,4,6,5
1,4,2,-2,0,2,0,0,3,4,5,5
0,3,2,-1,0,1,0,0,3,3,4,4
-1,2,3,0,-1,1,0,0,3,3,4,4
-2,1,4,0,-3,2,0,1,3,4,4,4
-4,1,5,1,-4,2,1,1,3,4,4,4
-5,0,5,2,-4,2,1,0,3,4,3,4
-6,-1,4,3,-4,1,1,0,2,3,3,3
-6,-1,4,3,-4,1,1,0,1,2,2,3
-7,-2,5,4,-5,1,1,0,1,2,2,3
-8,-3,5,5,-6,1,1,0,1,1,2,3
-9,-3,5,6,-7,1,1,0,1,1,2,2
-9,-3,5,6,-7,0,1,0,1,1,2,2
-9,-3,5,7,-7,0,1,-1,1,1,2,2
-10,-4,6,7,-8,0,1,-1,1,1,1,1
-11,-5,6,8,-8,0,1,-1,0,1,1,1
-13,-6,6,9,-9,0,0,-1,0,0,0,0
-14,-8,6,11,-10,-1,0,-1,0,0,0,0
-14,-8,5,11,-9,-1,0,-1,-1,0,0,0
-14,-9,5,11,-9,-2,0,-1,-2,-1,0,0
-13,-9,5,11,-9,-1,0,0,-2,-1,0,0
-12,-7,6,10,-9,-1,0,0,-2,0,0,0
-11,-5,6,8,-8,0,0,1,-1,0,0,1
-10,-4,5,7,-7,0,0,1,-1,0,0,1
-8,-4,4,6,-6,0,0,1,-2,0,0,0
-8,-4,4,6,-6,0,0,1,-1,0,0,0
-10,-4,5,7,-8,0,0,2,0,0,0,1
-12,-5,6,8,-9,0,1,2,0,1,1,1
-13,-6,6,10,-10,0,0,2,0,0,0,1
-13,-7,6,11,-10,-1,0,1,0,0,0,0
-13,-8,5,11,-9,-2,-1,1,-1,0,0,0
-11,-7,4,10,-8,-2,-1,1,-1,0,0,0
-9,-5,3,7,-6,-1,-1,1,-1,1,0,0
-8,-4,3,6,-5,-1,-1,2,-1,1,1,0
-8,-4,4,6,-5,-1,0,2,-1,0,1,0
-9,-4,4,6,-5,-1,0,2,0,0,1,1
-9,-5,4,7,-5,-1,0,2,0,0,1,1
-9,-5,4,7,-5,-1,0,1,0,0,1,1
-9,-6,3,8,-6,-2,0,1,0,0,0,1
-10,-7,4,8,-6,-2,-1,1,0,0,0,1
-11,-7,5,9,-7,-2,-1,2,0,0,0,1
-12,-7,5,10,-8,-2,-1,2,0,0,0,1
-12,-7,5,10,-8,-2,-1,3,-1,0,0,1
-12,-8,4,10,-8,-3,-1,3,-1,0,0,0
-11,-8,2,10,-7,-3,-2,2,-2,-1,-1,0
-10,-8,1,10,-6,-3,-2,2,-2,-1,-1,0
-11,-8,2,10,-7,-3,-1,2,-2,-1,-1,0
-12,-8,3,10,-8,-2,-1,2,-2,-1,0,0
-13,-8,4,11,-9,-2,-1,3,-1,-1,0,0
-13,-9,4,11,-9,-3,-2,5,-1,0,0,0
-13,-9,3,12,-8,-3,-2,7,0,0,0,-1
-11,-10,0,11,-6,-5,-3,10,2,1,0,-1
-7,-10,-3,9,-2,-6,-4,14,4,2,0,-2
-4,-11,-7,8,2,-8,-6,17,7,3,0,-2
-1,-13,-12,7,6,-11,-8,21,10,4,1,-2
5,-13,-17,4,11,-14,-10,26,14,6,2,-1
13,-10,-23,-1,18,-16,-13,32,20,10,6,0
21,-7,-27,-7,24,-17,-15,39,27,14,10,2
30,-2,-31,-14,31,-17,-19,46,34,19,15,5
39,4,-34,-22,37,-15,-23,50,43,26,21,9
48,12,-36,-30,42,-12,-29,53,51,33,28,15
56,18,-38,-37,47,-10,-35,55,59,39,35,20
64,23,-40,-43,52,-8,-44,54,64,44,40,24
69,27,-41,-48,56,-7,-53,52,68,49,45,28
72,32,-39,-52,56,-3,-60,49,73,54,51,33
71,40,-31,-55,51,4,-65,45,78,61,58,39
64,46,-17,-55,41,14,-68,35,78,65,64,46
55,49,-5,-52,30,22,-72,19,72,64,65,49
45,48,3,-46,21,26,-75,0,58,58,61,49
33,44,10,-38,11,27,-77,-21,40,47,52,46
21,39,17,-30,2,28,-76,-44,19,34,41,41
10,33,22,-21,-5,28,-75,-65,-1,20,30,35
2,27,25,-14,-11,27,-75,-82,-18,9,20,29
-3,23,26,-9,-14,25,-76,-93,-31,0,12,24
-8,18,27,-5,-17,23,-75,-99,-40,-6,6,20
-12,14,27,-1,-19,20,-72,-99,-45,-11,1,16
-15,11,28,2,-21,19,-67,-95,-46,-13,-1,13
-19,10,30,4,-23,20,-61,-89,-45,-13,-2,12
-21,10,32,5,-26,21,-55,-81,-43,-12,-3,12
-23,10,33,6,-28,22,-49,-74,-40,-12,-3,12
-23,10,33,5,-28,22,-45,-67,-38,-11,-3,11
-22,10,32,6,-27,21,-41,-61,-36,-11,-3,10
-22,8,31,6,-26,19,-37,-56,-35,-11,-3,9
-21,7,29,7,-25,17,-33,-51,-33,-10,-3,8
-21,5,28,8,-24,16,-29,-46,-31,-10,-3,7
-22,3,26,9,-23,14,-26,-42,-29,-10,-3,6
-21,1,23,10,-22,11,-24,-38,-28,-10,-4,4
-21,-1,20,11,-21,9,-22,-34,-26,-10,-5,3
-21,-4,18,13,-20,8,-20,-30,-24,-10,-5,2
-22,-6,17,14,-20,6,-17,-25,-22,-9,-6,1
-23,-6,16,15,-20,5,-14,-21,-20,-9,-6,1
-21,-5,16,13,-19,5,-11,-18,-18,-8,-5,1
-18,-2,16,10,-17,6,-9,-15,-16,-6,-4,1
-17,-1,16,9,-16,6,-7,-13,-14,-5,-3,2
-17,-1,16,8,-17,7,-6,-12,-12,-3,-2,2
-17,-1,16,8,-17,7,-6,-11,-11,-2,-1,3
-17,-1,16,9,-17,7,-5,-10,-10,-2,-1,3
-18,-2,16,10,-17,7,-5,-9,-10,-2,-2,3
-18,-1,16,10,-17,8,-5,-8,-10,-2,-2,3
-18,0,17,10,-17,8,-4,-6,-10,-2,-2,3
-18,-1,16,10,-17,7,-3,-5,-11,-3,-2,2
-18,-2,15,10,-16,5,-4,-5,-12,-4,-3,1
-18,-5,14,11,-16,4,-5,-5,-12,-5,-4,0
-19,-6,13,12,-16,3,-6,-5,-13,-6,-5,-1
-18,-7,12,12,-15,2,-6,-5,-13,-6,-6,-2
-18,-7,11,12,-14,2,-6,-5,-13,-6,-6,-2
-19,-7,12,13,-15,3,-5,-4,-13,-6,-6,-1
-20,-7,13,14,-16,3,-4,-4,-12,-6,-6,-1
-20,-7,13,14,-17,3,-4,-4,-12,-6,-5,-1
-20,-6,14,13,-17,4,-4,-4,-12,-6,-5,-1
-20,-6,13,13,-17,3,-4,-4,-12,-6,-4,-1
-20,-7,13,13,-16,3,-4,-4,-12,-6,-4,-1
-20,-7,12,13,-16,2,-4,-3,-11,-6,-4,-1
-18,-7,11,13,-15,2,-4,-3,-11,-6,-4,-1
-17,-7,11,12,-14,2,-4,-2,-11,-6,-4,-1
-16,-6,10,12,-13,2,-3,-1,-11,-6,-4,-1
-16,-6,10,12,-13,2,-3,0,-11,-6,-4,-1
-17,-6,10,12,-13,2,-3,0,-11,-6,-5,-1
-17,-7,10,12,-13,1,-4,0,-12,-6,-5,-2
-17,-8,10,12,-13,1,-4,0,-12,-6,-5,-2
-17,-8,10,12,-14,1,-4,0,-11,-6,-5,-2
-17,-7,11,12,-14,2,-4,0,-11,-6,-5,-2
-17,-7,11,12,-14,2,-5,0,-11,-6,-6,-3
-16,-7,9,12,-13,1,-5,0,-11,-6,-6,-4
-17,-8,9,13,-13,0,-4,1,-11,-7,-6,-4
-17,-7,10,13,-13,1,-3,2,-11,-6,-6,-3
-17,-6,10,11,-13,2,-2,4,-10,-6,-5,-2
-16,-5,11,10,-13,3,-1,6,-10,-6,-4,-1
-15,-5,10,9,-13,3,0,6,-10,-6,-4,0
-14,-6,9,9,-12,2,-1,5,-10,-6,-5,-1
-13,-7,8,10,-11,1,-1,5,-10,-7,-5,-1
-13,-7,7,10,-11,1,-1,5,-10,-7,-5,-2
-14,-7,7,10,-11,0,-1,6,-10,-6,-5,-2
-14,-7,7,11,-11,0,-1,6,-10,-6,-5,-3
-15,-8,7,11,-11,0,-1,7,-10,-6,-6,-3
-15,-8,7,12,-11,0,-1,8,-10,-7,-6,-3
-15,-8,7,12,-11,-1,0,10,-10,-7,-7,-3
-15,-8,7,12,-11,-1,0,11,-10,-7,-7,-3
-15,-8,7,12,-11,-1,0,12,-10,-7,-7,-3
-14,-8,7,11,-11,0,0,13,-9,-7,-7,-3
-13,-7,6,10,-9,-1,1,14,-9,-7,-7,-3
-12,-7,4,10,-7,-2,2,15,-8,-7,-7,-3
-11,-8,2,9,-6,-3,2,17,-8,-8,-7,-3
-11,-9,1,9,-5,-4,2,18,-8,-8,-7,-3
-11,-9,1,9,-6,-4,2,19,-8,-8,-7,-3
-10,-9,0,9,-5,-5,3,20,-8,-8,-7,-4
-8,-9,-1,8,-3,-5,3,21,-9,-9,-7,-4
-7,-10,-2,8,-2,-6,3,22,-9,-9,-8,-5
-8,-12,-3,10,-2,-8,4,23,-10,-10,-8,-6
-10,-15,-4,13,-3,-9,4,25,-10,-10,-9,-6
-10,-16,-4,13,-3,-10,5,27,-9,-11,-9,-7
-9,-16,-5,12,-1,-11,5,29,-9,-11,-9,-7
-8,-15,-7,12,0,-11,6,30,-9,-11,-10,-7
-7,-15,-7,11,0,-11,7,32,-8,-11,-10,-7
-5,-14,-8,10,1,-11,8,34,-8,-11,-10,-7
-3,-13,-9,8,3,-11,9,36,-8,-11,-10,-8
-1,-13,-11,8,5,-13,10,37,-8,-11,-10,-9
-1,-15,-13,9,6,-15,10,38,-8,-12,-11,-10
-2,-18,-15,10,6,-16,10,39,-9,-13,-13,-11
-1,-19,-17,10,8,-17,10,39,-10,-13,-13,-12
0,-18,-18,9,9,-18,10,40,-10,-14,-14,-12
2,-18,-20,8,11,-19,10,42,-10,-14,-14,-12
3,-19,-21,8,12,-20,10,43,-10,-14,-14,-12
4,-18,-22,7,13,-20,10,44,-10,-14,-14,-12
5,-18,-23,7,14,-21,11,45,-10,-14,-15,-13
5,-19,-24,7,15,-22,11,46,-11,-15,-15,-14
6,-20,-26,7,16,-23,12,47,-11,-16,-15,-14
7,-20,-27,7,17,-24,13,47,-11,-16,-15,-15
8,-21,-29,7,19,-25,12,48,-10,-17,-15,-15
9,-22,-31,7,20,-27,11,48,-10,-17,-16,-16
10,-23,-33,6,21,-28,10,48,-11,-18,-17,-17
10,-24,-34,7,22,-29,9,48,-11,-19,-18,-18
9,-25,-34,7,21,-30,9,49,-11,-19,-18,-19
10,-25,-35,7,22,-30,9,49,-11,-19,-18,-19
12,-24,-35,6,23,-30,9,49,-10,-18,-17,-18
12,-23,-34,5,23,-28,9,49,-8,-17,-16,-17
10,-23,-32,6,21,-27,9,49,-7,-15,-14,-16
8,-23,-31,8,20,-27,8,49,-6,-15,-14,-15
7,-23,-30,9,19,-27,8,48,-5,-14,-14,-15
6,-23,-29,9,18,-27,8,48,-5,-14,-14,-14
6,-22,-28,8,17,-26,8,47,-5,-13,-14,-14
7,-20,-28,7,17,-24,8,46,-4,-12,-13,-13
8,-19,-27,6,18,-23,8,46,-3,-11,-12,-13
8,-19,-26,5,17,-22,8,45,-2,-10,-11,-12
7,-18,-25,5,16,-22,7,44,-1,-9,-11,-12
7,-18,-25,6,16,-22,7,43,-1,-9,-10,-11
6,-18,-24,6,15,-22,6,41,-1,-9,-10,-11
5,-18,-23,6,14,-21,5,39,-1,-8,-9,-10
2,-18,-20,8,11,-19,5,38,0,-8,-9,-9
-1,-19,-17,10,8,-18,4,37,0,-8,-9,-9
-3,-20,-16,11,7,-18,3,35,-1,-8,-9,-9
-2,-19,-16,11,6,-17,2,33,-1,-8,-8,-9
-3,-18,-14,11,5,-16,3,32,-1,-7,-7,-7
-3,-16,-13,10,5,-15,3,32,0,-6,-6,-6
0,-14,-13,8,6,-14,3,31,0,-5,-5,-6
1,-12,-13,6,7,-13,2,30,1,-4,-4,-5
1,-11,-11,5,6,-12,2,30,2,-3,-4,-4
0,-11,-10,6,5,-11,1,29,2,-3,-4,-4
-2,-12,-9,7,4,-11,0,28,2,-2,-4,-4
-3,-13,-9,8,3,-11,0,28,2,-2,-4,-4
-5,-13,-8,9,2,-10,0,27,2,-2,-3,-4
-6,-12,-6,9,0,-9,0,27,3,-1,-2,-3
-6,-11,-4,9,0,-8,0,27,3,-1,-2,-2
-6,-10,-3,8,-1,-7,0,26,3,0,-1,-2
-6,-10,-2,8,-2,-6,0,25,3,0,-1,-1
-7,-9,-1,8,-3,-6,0,25,3,0,-1,-1
-8,-10,-1,9,-4,-5,-1,25,3,0,0,-1
-9,-11,0,10,-4,-5,-1,24,3,0,0,-1
-11,-12,0,11,-5,-6,-2,24,3,1,0,-1
-11,-12,0,12,-5,-6,-2,23,3,1,0,-1
-10,-12,-1,12,-4,-6,-2,22,2,0,0,-1
-9,-10,0,10,-4,-6,-2,21,2,1,0,0
-9,-9,0,9,-4,-5,-2,21,2,2,0,0
-8,-7,1,7,-4,-4,-2,21,3,2,1,0
-7,-6,1,6,-4,-4,-2,21,4,3,1,0
-7,-6,1,6,-3,-3,-2,21,4,3,1,0
-6,-5,1,5,-3,-3,-2,21,4,3,1,1
-5,-5,0,5,-2,-3,-3,21,3,2,1,1
-6,-7,0,7,-3,-3,-3,21,3,1,0,0
-8,-8,0,8,-3,-4,-4,21,2,1,0,0
-8,-9,0,9,-3,-5,-4,21,1,1,0,0
-8,-9,0,9,-3,-5,-3,21,1,1,0,0
-9,-9,0,9,-4,-5,-3,21,2,1,0,0
-9,-9,0,9,-4,-5,-3,21,2,1,0,0
-8,-9,0,9,-3,-5,-3,21,2,1,0,0
-8,-9,0,9,-3,-5,-3,21,2,1,1,0
-8,-8,0,9,-3,-4,-3,22,2,1,1,1
-7,-7,0,8,-3,-3,-3,22,3,2,2,2
-8,-7,1,8,-4,-3,-3,21,4,3,2,2
-9,-7,1,9,-5,-3,-3,20,4,3,2,2
-9,-8,2,9,-5,-3,-4,20,4,3,2,2
-8,-7,2,8,-5,-3,-4,20,4,3,2,2
-6,-6,1,6,-4,-2,-4,21,5,4,2,2
-5,-6,1,5,-3,-2,-4,22,5,4,2,2
-6,-7,1,6,-4,-3,-4,22,4,3,1,1
-8,-8,1,8,-5,-3,-4,22,3,2,1,1
-10,-10,0,10,-5,-4,-5,22,3,1,0,1
-11,-11,0,11,-5,-5,-5,21,2,1,0,1
-10,-10,0,10,-5,-5,-5,22,3,2,1,1
-8,-7,1,8,-4,-4,-4,24,5,3,2,2
-7,-6,1,7,-4,-3,-3,25,5,4,2,2
-6,-6,1,6,-3,-3,-3,25,5,3,1,1
-6,-5,1,5,-3,-3,-3,25,5,3,1,1
-7,-5,2,6,-4,-2,-2,26,5,4,2,2
-7,-5,2,5,-4,-1,-2,26,6,4,2,3
-6,-5,1,5,-3,-2,-3,26,5,4,2,2
-6,-6,0,6,-3,-3,-3,25,4,3,2,1
-8,-7,0,7,-4,-3,-4,25,4,3,1,1
-8,-7,1,8,-4,-3,-4,25,4,2,1,1
-7,-6,1,7,-4,-3,-4,26,4,2,1,1
-6,-6,1,6,-4,-3,-4,26,4,2,1,1
-6,-6,1,6,-4,-3,-4,26,4,2,1,1
-6,-6,1,6,-4,-3,-4,26,4,2,2,1
-8,-7,1,7,-5,-3,-4,26,4,2,2,1
-9,-8,1,9,-5,-3,-5,26,4,2,2,1
-9,-8,1,9,-5,-3,-5,26,4,2,1,1
-8,-8,1,8,-5,-3,-4,27,4,2,1,1
-7,-7,1,7,-5,-2,-3,28,4,2,2,2
-7,-6,2,7,-5,-2,-2,29,5,3,2,2
-6,-5,1,6,-4,-2,-1,29,6,3,2,1
-5,-6,0,6,-2,-4,-1,28,5,2,2,1
-5,-7,-1,7,-2,-4,-1,28,5,2,2,1
-7,-8,0,8,-3,-4,-1,28,5,2,2,1
-9,-9,0,9,-5,-4,-2,28,5,2,1,1
-10,-8,0,9,-6,-4,-2,28,5,2,1,0
-9,-8,0,8,-5,-4,-3,28,5,2,1,0
-8,-8,0,8,-5,-4,-3,28,4,2,1,0
-8,-8,0,8,-5,-4,-4,28,4,2,1,0
-9,-9,1,8,-5,-4,-4,28,4,2,1,0
-10,-9,1,9,-6,-4,-4,28,4,2,1,0
-9,-8,1,8,-5,-3,-4,28,5,3,1,0
-7,-6,1,6,-4,-2,-4,28,5,3,2,0
-6,-5,0,6,-3,-2,-4,28,5,2,1,0
-6,-6,0,6,-3,-3,-4,28,4,1,1,0
-5,-6,0,6,-2,-4,-4,28,3,1,1,0
-6,-6,0,6,-3,-3,-3,29,4,1,1,0
-7,-6,1,7,-4,-3,-2,30,4,2,1,1
-7,-6,1,7,-4,-2,-2,30,4,2,1,1
-8,-7,1,7,-4,-2,-3,29,4,2,1,0
-8,-7,2,7,-5,-2,-4,29,4,2,0,0
-9,-6,2,7,-5,-2,-4,28,4,1,0,0
-9,-6,2,7,-5,-2,-4,28,4,1,0,0
-9,-7,2,8,-5,-2,-4,28,4,1,0,0
-8,-7,2,7,-5,-2,-4,28,4,1,0,0
-7,-5,2,6,-5,-2,-3,29,4,1,0,0
-6,-3,2,4,-5,-1,-3,30,5,2,1,1
-5,-2,2,3,-4,0,-2,31,5,3,2,1
-5,-3,2,3,-4,-1,-3,30,5,3,1,1
-5,-3,2,4,-4,-1,-3,30,6,3,1,1
-6,-3,3,4,-4,0,-2,31,6,3,2,1
-5,-2,3,4,-4,0,-1,31,7,4,3,2
-5,-1,4,3,-5,1,-1,31,7,4,3,2
-5,-1,5,3,-6,1,-1,31,7,4,3,2
-5,-1,5,3,-6,2,-1,32,7,5,3,2
-4,0,5,1,-5,2,0,32,8,6,4,3
-2,2,4,0,-3,3,0,33,9,7,5,3
0,3,4,-2,-2,4,1,33,10,7,6,4
0,4,5,-2,-2,4,2,33,10,7,6,4
0,3,4,-2,-2,3,2,33,9,6,6,4
0,3,4,-1,-2,3,1,32,9,6,6,4
0,3,4,-2,-2,3,0,31,8,5,6,4
0,3,3,-2,-2,3,0,31,8,5,5,3
0,2,2,-1,-1,2,-2,30,8,5,5,3
1,2,1,-2,0,1,-2,29,9,6,5,3
3,4,1,-4,1,1,-2,29,9,6,5,3
5,4,0,-5,3,1,-2,29,9,6,5,3
5,5,1,-5,3,2,-1,29,9,7,5,3
5,6,2,-5,1,3,-1,29,10,8,6,4
4,6,3,-5,1,4,-1,29,12,9,7,5
4,7,4,-5,0,5,-2,30,12,10,8,6
2,7,6,-5,-2,6,-2,30,13,11,9,7
2,7,6,-5,-2,6,-2,29,12,11,9,7
1,7,6,-5,-2,6,-3,27,11,10,9,7
1,6,5,-4,-2,5,-4,25,10,8,8,7
1,6,4,-4,-1,5,-4,24,9,7,7,6
3,6,3,-5,0,4,-5,24,8,7,7,6
4,5,1,-5,1,4,-6,23,8,6,7,5
4,5,1,-5,1,3,-7,23,8,6,7,4
4,5,1,-5,1,3,-7,23,8,6,7,4
4,6,1,-6,1,4,-7,24,8,7,7,4
5,8,1,-7,1,4,-6,24,8,7,7,4
6,8,1,-7,1,4,-6,23,8,7,7,4
5,8,2,-7,1,4,-6,22,8,7,7,4
4,7,3,-6,0,4,-6,22,8,7,7,4
2,5,3,-4,-1,4,-6,21,7,6,7,4
0,3,3,-2,-2,4,-6,21,7,6,6,4
0,2,3,-1,-2,3,-6,20,7,6,6,3
-2,1,3,0,-3,3,-6,20,7,6,5,2
-3,0,4,0,-4,2,-6,19,6,5,4,1
-3,1,4,0,-4,3,-5,19,6,5,4,1
-4,2,5,0,-5,3,-4,19,6,5,4,2
-4,2,6,0,-5,3,-3,18,6,5,4,1
-3,2,6,0,-4,3,-2,18,6,5,4,1
-3,2,6,0,-4,4,-1,18,6,5,4,1
-3,2,6,0,-4,3,0,18,6,5,4,1
-4,1,5,0,-4,3,0,18,6,4,4,0
-5,0,5,1,-4,2,0,18,5,4,4,0
-7,-1,5,3,-6,2,0,18,5,4,3,0
-8,-2,5,4,-7,1,0,17,4,3,3,-1
-9,-2,5,5,-7,1,-1,16,4,2,2,-1
-8,-2,5,5,-6,1,-1,15,4,2,2,-2
-7,-2,5,4,-5,1,-1,14,4,3,2,-2
-7,-2,5,4,-5,1,-1,14,4,3,2,-2
-8,-3,5,5,-6,1,-1,14,3,3,2,-2
-9,-4,6,6,-7,0,-1,14,3,3,2,-2
-10,-4,6,7,-8,0,-1,13,3,3,2,-2
-10,-4,5,7,-8,0,-2,13,3,3,1,-2
-10,-4,5,7,-8,0,-2,13,3,2,1,-3
-10,-5,5,7,-8,0,-3,12,2,2,0,-3
-12,-6,6,9,-9,-1,-3,11,1,1,0,-3
-13,-7,8,10,-10,0,-4,11,2,2,0,-3
-13,-7,8,10,-10,0,-4,11,2,2,0,-3
-14,-8,7,10,-10,-1,-4,10,2,1,0,-3
-14,-8,6,10,-10,-1,-4,9,2,1,0,-3
-12,-6,6,9,-9,-1,-4,8,3,2,1,-3
-9,-4,6,6,-8,0,-3,9,4,3,2,-2
-8,-3,6,5,-8,1,-2,10,5,4,3,-1
-9,-3,7,6,-9,1,-1,11,5,4,3,-1
-9,-3,7,6,-8,1,0,11,4,3,3,-1
-8,-3,6,5,-7,1,0,10,4,3,2,-1
-9,-4,6,6,-7,0,0,10,3,3,2,-2
-11,-5,6,7,-8,0,0,9,3,3,2,-2
-13,-5,7,8,-10,1,-1,8,3,3,2,-2
-13,-5,8,8,-10,1,-1,8,3,2,2,-2
-10,-4,7,6,-9,1,-1,8,3,2,2,-2
-8,-3,6,5,-7,0,-1,8,3,2,2,-2
-8,-4,5,5,-7,0,-2,7,3,3,2,-2
-8,-4,5,5,-6,0,-2,7,4,3,3,-2
-8,-3,5,5,-6,0,-1,7,4,4,3,-1
-7,-3,4,5,-5,0,-1,7,4,4,3,-2
-7,-4,3,5,-5,0,-2,7,4,3,2,-2
-8,-5,4,6,-6,-1,-2,6,3,2,1,-3
-11,-7,4,8,-7,-2,-2,6,2,1,0,-4
-12,-9,4,10,-8,-3,-3,5,2,1,0,-5
-12,-10,4,10,-8,-3,-3,6,2,1,0,-5
-10,-9,2,9,-6,-3,-3,8,4,1,0,-5
-7,-9,0,7,-3,-4,-4,9,5,2,0,-5
-3,-8,-3,5,0,-6,-5,12,7,2,1,-5
1,-7,-8,2,4,-7,-6,16,11,4,2,-4
7,-5,-12,-1,9,-8,-7,22,15,7,4,-3
12,-4,-17,-4,14,-10,-9,29,20,9,6,-3
16,-4,-20,-6,18,-12,-11,36,27,13,10,-1
20,-3,-23,-8,21,-13,-14,43,34,18,14,0
26,0,-25,-13,26,-13,-18,50,42,23,19,3
33,4,-28,-19,31,-12,-22,54,51,29,25,7
41,10,-29,-26,35,-10,-28,56,60,36,32,12
49,18,-30,-33,40,-7,-33,57,69,44,40,18
56,24,-31,-40,44,-4,-40,56,76,51,47,23
63,30,-32,-47,47,-1,-48,55,81,57,53,28
69,38,-31,-53,50,3,-56,53,88,64,60,34
70,46,-23,-58,46,12,-62,49,94,72,68,41
64,53,-10,-59,37,22,-66,39,95,77,74,47
56,57,1,-56,27,29,-70,24,88,77,74,51
46,55,10,-51,18,32,-74,4,74,70,70,51
34,51,17,-43,9,33,-75,-16,55,59,61,47
21,44,23,-33,-1,33,-75,-39,32,44,48,40
10,38,27,-24,-8,32,-74,-61,10,29,35,33
2,32,29,-17,-14,31,-74,-79,-9,15,24,26
-4,27,31,-11,-17,29,-74,-92,-24,5,15,20
-7,23,31,-8,-19,28,-73,-99,-35,-2,9,16
-10,20,31,-5,-20,25,-71,-101,-42,-7,4,12
-14,16,31,-1,-22,23,-66,-99,-44,-10,1,10
-16,14,31,0,-24,22,-60,-94,-44,-12,-1,9
-18,13,30,2,-24,21,-55,-87,-42,-12,-2,7
-19,11,30,3,-25,21,-50,-80,-40,-12,-3,6
-21,10,30,4,-25,20,-44,-72,-38,-12,-3,5
-21,9,30,5,-26,20,-39,-65,-35,-11,-3,4
-21,8,29,6,-25,19,-35,-59,-33,-10,-3,3
-19,8,28,5,-23,18,-30,-53,-30,-10,-3,2
-18,8,27,5,-22,17,-26,-49,-28,-9,-3,2
-18,6,24,5,-21,14,-23,-46,-27,-10,-3,0
-17,4,21,6,-19,12,-20,-42,-26,-10,-4,-1
-16,3,19,6,-18,11,-17,-38,-24,-10,-4,-1
-16,2,18,6,-18,10,-13,-34,-21,-9,-3,-2
-17,1,18,7,-18,10,-10,-29,-19,-7,-3,-2
-17,1,18,7,-17,10,-8,-26,-17,-6,-3,-2
-15,2,17,7,-16,9,-6,-23,-15,-5,-2,-2
-15,2,17,6,-15,9,-4,-20,-13,-4,-2,-2
-15,1,17,7,-16,9,-3,-18,-12,-3,-1,-2
-16,1,17,7,-17,9,-2,-17,-11,-3,0,-2
-15,1,17,7,-16,9,-2,-16,-10,-2,0,-2
-14,2,16,6,-15,9,-1,-15,-9,-2,0,-2
-14,2,16,6,-15,8,-1,-14,-9,-2,0,-3
-14,0,15,7,-15,7,-1,-13,-9,-2,-1,-4
-14,0,15,7,-14,6,-1,-13,-9,-3,-2,-4
-14,0,15,7,-14,7,-1,-13,-9,-3,-2,-4
-14,0,15,7,-15,7,0,-12,-9,-3,-2,-4
-16,0,15,8,-16,7,0,-12,-9,-3,-2,-4
-16,0,15,7,-15,7,0,-12,-9,-3,-2,-4
-15,0,14,6,-14,7,0,-12,-9,-3,-2,-4
-15,0,14,7,-14,7,0,-12,-9,-3,-2,-4
-17,-1,15,9,-16,7,0,-12,-9,-3,-2,-5
-18,-3,15,11,-17,6,0,-11,-8,-3,-2,-5
-19,-4,15,12,-17,6,0,-11,-8,-3,-2,-5
-19,-4,15,12,-17,6,1,-11,-7,-3,-2,-5
-17,-2,15,10,-16,6,1,-11,-7,-2,-1,-5
-13,0,13,6,-13,6,1,-11,-6,-2,-1,-5
-9,2,11,3,-10,6,1,-11,-6,-1,-1,-5
-7,3,11,2,-9,7,1,-10,-6,-1,-1,-5
-9,2,12,3,-10,7,2,-9,-6,-1,-1,-4
-10,1,12,5,-11,6,2,-9,-6,-1,-1,-4
-11,0,12,6,-12,6,3,-9,-7,-2,-2,-4
-12,0,12,7,-12,6,3,-9,-7,-2,-2,-4
-13,-1,12,7,-12,6,3,-9,-7,-2,-2,-4
-13,-1,11,7,-12,4,2,-9,-7,-3,-2,-5
-14,-2,11,8,-12,3,2,-9,-8,-3,-2,-5
-15,-4,11,9,-13,3,2,-9,-8,-3,-2,-5
-16,-4,11,10,-14,3,1,-9,-8,-3,-2,-5
-14,-4,11,9,-13,3,1,-9,-8,-3,-2,-6
-12,-2,11,7,-11,4,2,-9,-7,-3,-2,-5
-10,0,11,5,-11,5,2,-8,-7,-2,-1,-5
-9,1,11,4,-10,6,3,-7,-6,-2,-1,-4
-8,2,11,3,-10,6,3,-7,-6,-2,-1,-4
-8,2,10,2,-9,6,3,-7,-7,-2,-2,-4
-8,1,9,2,-9,5,3,-6,-7,-3,-2,-5
-8,1,9,3,-9,5,3,-6,-7,-3,-2,-5
-8,0,9,3,-9,5,3,-5,-7,-3,-2,-5
-9,0,9,4,-9,4,3,-5,-7,-3,-2,-5
-11,-1,9,6,-10,4,3,-5,-7,-3,-3,-6
-11,-2,9,7,-11,3,3,-5,-7,-4,-3,-6
-11,-3,8,7,-10,2,3,-5,-7,-4,-3,-7
-11,-4,6,7,-9,1,3,-5,-7,-4,-3,-7
-10,-3,6,6,-8,1,3,-4,-7,-4,-3,-7
-9,-3,6,5,-8,1,4,-3,-6,-4,-3,-6
-9,-3,6,5,-8,1,5,-2,-6,-4,-3,-6
-9,-3,6,5,-7,1,5,0,-6,-4,-3,-6
-7,-2,5,4,-6,1,6,1,-6,-4,-3,-6
-6,-2,4,3,-5,1,6,2,-6,-4,-3,-6
-5,-2,3,3,-5,1,6,3,-6,-4,-3,-6
-6,-3,2,4,-5,0,7,4,-6,-4,-3,-7
-5,-3,2,3,-4,0,8,4,-6,-5,-3,-7
-3,-2,1,2,-3,0,9,4,-5,-5,-3,-7
-2,-2,0,1,-1,-1,9,5,-5,-5,-4,-8
-2,-4,-1,2,0,-3,9,7,-6,-5,-5,-8
-1,-6,-3,3,0,-5,9,8,-6,-6,-6,-9
0,-6,-5,2,2,-5,10,10,-6,-6,-6,-10
3,-5,-6,1,4,-6,11,11,-6,-6,-6,-10
4,-5,-8,1,5,-7,12,13,-6,-7,-6,-10
3,-6,-9,2,6,-8,12,14,-6,-7,-6,-11
3,-7,-10,2,6,-8,13,16,-6,-7,-6,-11
3,-7,-11,2,7,-9,13,17,-6,-8,-7,-11
4,-9,-13,2,8,-11,13,17,-6,-9,-8,-11
4,-11,-15,3,10,-13,13,17,-7,-10,-9,-13
4,-12,-17,4,10,-15,14,18,-7,-10,-9,-14
4,-13,-18,4,11,-15,14,19,-7,-10,-10,-15
5,-13,-19,4,12,-16,15,21,-6,-10,-10,-15
6,-13,-20,3,13,-16,15,22,-6,-10,-10,-15
7,-14,-21,3,14,-17,15,22,-6,-11,-10,-16
8,-14,-22,3,15,-18,15,23,-6,-11,-11,-16
9,-14,-23,3,15,-19,16,24,-5,-11,-11,-16
10,-13,-24,1,17,-19,16,25,-5,-11,-11,-16
12,-13,-25,0,19,-19,17,26,-4,-11,-11,-16
14,-13,-27,0,20,-20,17,26,-5,-11,-11,-17
14,-15,-28,0,21,-21,17,25,-5,-12,-12,-18
15,-16,-30,0,22,-23,16,25,-6,-13,-13,-18
16,-16,-32,0,24,-23,16,25,-6,-13,-13,-18
18,-15,-33,-1,25,-23,16,25,-5,-13,-13,-18
18,-15,-33,-1,25,-24,15,26,-5,-13,-13,-19
17,-17,-34,0,25,-26,13,25,-5,-13,-13,-20
15,-19,-34,1,24,-26,12,25,-5,-13,-14,-20
14,-19,-33,2,23,-26,12,25,-5,-13,-13,-20
14,-18,-32,2,23,-25,12,24,-4,-12,-13,-19
14,-17,-31,1,22,-24,12,24,-3,-11,-12,-18
14,-16,-30,0,22,-23,12,23,-2,-10,-11,-16
14,-14,-29,0,21,-22,12,22,-2,-9,-10,-15
14,-13,-27,0,20,-21,12,21,-1,-8,-9,-14
14,-12,-26,-1,20,-20,12,20,0,-7,-8,-14
14,-12,-26,-1,19,-19,12,19,0,-7,-7,-14
13,-12,-26,0,19,-19,10,17,0,-6,-7,-14
12,-13,-26,0,19,-19,9,15,0,-6,-7,-14
10,-14,-25,2,18,-19,7,13,0,-6,-7,-14
7,-15,-23,3,16,-19,6,11,0,-6,-7,-13
6,-15,-21,4,13,-18,6,9,0,-6,-7,-12
5,-14,-19,4,11,-16,5,8,1,-5,-6,-12
4,-13,-17,4,10,-15,5,6,1,-4,-5,-11
4,-12,-15,4,9,-14,5,5,2,-3,-4,-11
5,-10,-15,2,10,-13,5,4,3,-2,-4,-10
6,-9,-15,1,10,-12,4,2,3,-2,-3,-9
5,-9,-14,2,9,-12,2,0,3,-1,-3,-9
3,-9,-13,3,8,-12,1,-1,3,-1,-3,-8
2,-8,-11,3,7,-10,1,-3,3,0,-2,-7
1,-7,-9,2,5,-9,2,-4,4,0,-1,-6
1,-6,-8,2,4,-8,2,-5,4,0,-1,-6
1,-6,-6,2,3,-7,2,-5,4,1,0,-5
1,-4,-5,1,3,-5,2,-6,5,2,0,-4
3,-3,-5,0,3,-4,2,-6,6,3,1,-3
3,-2,-5,-1,3,-4,1,-7,6,3,2,-3
2,-1,-5,-1,3,-3,1,-8,7,4,2,-2
1,-2,-4,-1,2,-3,0,-9,6,4,2,-2
1,-2,-4,0,2,-3,0,-10,6,3,2,-2
0,-2,-4,0,2,-3,-1,-11,5,3,2,-2
0,-3,-4,1,1,-3,-2,-12,5,2,1,-3
-2,-4,-3,3,0,-3,-3,-13,5,2,1,-3
-4,-4,-1,3,-1,-3,-3,-14,5,3,2,-3
-4,-4,0,3,-2,-2,-3,-14,5,3,2,-2
-4,-3,0,3,-2,-2,-3,-15,5,3,2,-2
-4,-3,0,3,-2,-2,-3,-16,5,3,2,-2
-3,-3,0,2,-2,-2,-4,-17,5,3,2,-2
-3,-2,0,2,-2,-2,-4,-18,5,3,2,-1
-2,-2,0,1,-1,-1,-4,-18,5,3,2,-1
-2,-2,-1,1,-1,-1,-5,-19,5,3,2,-1
-1,-2,-1,1,0,-1,-6,-19,4,2,2,-1
-1,-2,0,1,0,-1,-6,-19,4,2,2,-1
-1,-1,0,0,-1,0,-6,-19,5,3,2,-1
-1,0,1,0,-1,0,-5,-19,5,3,3,0
-1,0,0,0,-1,0,-5,-20,5,4,3,0
-2,-1,1,1,-2,0,-5,-21,5,4,3,0
-4,-1,2,2,-3,0,-5,-21,6,4,3,1
-4,0,3,2,-4,0,-5,-21,6,5,4,2
-4,0,3,2,-4,1,-5,-21,7,5,5,2
-3,0,3,1,-4,1,-5,-21,6,6,5,2
-3,-1,3,1,-3,0,-6,-21,6,5,5,2
-3,-2,2,2,-3,0,-6,-21,5,5,4,1
-3,-3,1,2,-3,-1,-6,-22,5,5,4,1
-4,-4,1,4,-3,-2,-6,-23,5,4,3,1
-5,-4,1,5,-4,-2,-7,-23,5,4,3,1
-4,-4,0,4,-3,-2,-7,-23,5,4,3,1
-2,-3,0,2,-2,-2,-7,-23,6,4,3,1
-1,-2,0,2,-1,-2,-7,-22,6,4,3,1
-1,-2,0,1,-1,-1,-6,-21,6,5,3,1
-1,-1,1,1,-2,0,-6,-21,7,5,4,1
-1,0,2,0,-2,0,-5,-21,7,5,4,2
-2,0,3,0,-2,1,-5,-21,7,5,4,2
-3,0,3,1,-3,1,-5,-22,7,5,4,2
-3,0,2,2,-2,0,-5,-22,6,5,4,2
-1,0,1,1,-1,0,-6,-23,6,5,4,2
-1,0,0,0,-1,0,-6,-23,6,5,4,2
-1,-1,0,1,-1,0,-6,-23,5,5,4,2
-3,-3,1,2,-2,-1,-6,-23,5,4,3,2
-4,-4,1,3,-3,-1,-7,-23,5,4,3,1
-4,-4,1,4,-3,-1,-7,-23,5,4,2,1
-4,-3,1,3,-2,-1,-7,-23,5,4,2,1
-2,-2,0,2,-1,-1,-7,-22,6,4,2,1
-1,-1,0,1,-1,-1,-7,-22,6,4,2,1
-2,-2,1,2,-2,-1,-7,-22,6,4,2,1
-3,-2,1,2,-2,0,-7,-22,6,4,2,1
-3,-2,1,2,-2,-1,-7,-22,6,4,2,1
-4,-3,0,3,-2,-1,-7,-23,6,3,2,0
-4,-4,0,4,-2,-2,-7,-23,6,3,1,0
-4,-3,0,3,-2,-1,-7,-23,6,3,2,0
-3,-2,0,2,-1,-1,-6,-23,6,4,2,0
-2,-1,0,1,-1,-1,-6,-23,6,4,2,0
-3,-1,2,2,-3,0,-5,-23,6,4,2,0
-5,-2,3,3,-4,0,-5,-23,6,4,2,0
-6,-3,3,4,-4,0,-6,-24,6,4,2,0
-5,-3,1,3,-3,-1,-6,-24,5,3,1,0
-4,-3,0,3,-2,-1,-6,-24,5,3,1,0
-3,-3,0,3,-2,-1,-6,-24,5,3,1,0
-3,-3,0,2,-2,-1,-6,-24,5,3,1,0
-2,-2,1,2,-2,-1,-6,-24,5,3,1,0
-3,-2,1,2,-2,-1,-7,-24,5,3,1,0
-4,-4,1,3,-2,-1,-7,-24,4,2,0,0
-5,-4,1,4,-3,-1,-7,-24,5,2,0,0
-5,-4,2,4,-3,-1,-6,-23,5,3,1,0
-4,-3,2,3,-2,0,-6,-23,6,4,2,1
-2,-2,1,1,-1,0,-6,-24,6,4,2,1
-1,-1,0,0,0,0,-6,-24,5,3,1,0
-1,0,1,0,-1,0,-6,-24,5,3,1,0
-1,-1,1,1,-1,0,-6,-24,5,2,1,0
-3,-2,1,2,-2,0,-6,-24,5,2,1,0
-4,-3,1,3,-3,-1,-6,-24,5,2,1,0
-5,-4,0,4,-2,-1,-6,-25,5,1,0,-1
-5,-5,0,4,-2,-1,-6,-25,5,2,0,0
-6,-5,2,5,-4,-1,-6,-25,5,2,1,0
-7,-5,2,6,-5,-1,-6,-26,5,2,1,0
-6,-4,2,5,-4,-1,-7,-26,4,2,1,0
-5,-3,1,4,-3,-1,-7,-26,4,2,1,0
-4,-2,1,3,-3,0,-7,-26,4,2,1,1
-2,-1,1,1,-2,0,-6,-26,4,2,1,1
-1,0,1,0,-1,0,-6,-26,5,2,1,1
-1,0,1,0,-1,1,-5,-25,5,3,2,1
0,0,1,0,0,1,-5,-25,5,3,2,1
0,0,1,0,-1,1,-5,-25,5,3,2,1
-1,0,2,0,-1,1,-4,-25,5,3,2,1
-2,0,2,0,-2,1,-4,-25,5,3,2,1
-2,0,3,1,-3,1,-4,-25,5,3,2,1
-1,2,3,0,-2,2,-3,-25,6,3,3,2
1,4,3,-3,-1,4,-1,-24,7,5,4,3
2,6,4,-4,-1,5,0,-23,8,6,5,3
1,5,4,-4,-1,5,1,-22,8,6,5,4
1,5,4,-4,-1,5,1,-22,9,7,6,5
2,5,4,-4,-1,4,1,-22,9,7,6,5
2,5,4,-5,0,4,1,-22,9,7,6,5
2,5,4,-4,-1,5,1,-22,9,7,6,5
0,4,4,-3,-2,5,0,-23,8,6,5,5
0,3,4,-2,-2,4,-1,-24,8,5,5,5
0,3,3,-2,-2,4,-2,-25,7,5,4,4
1,4,2,-3,0,3,-2,-25,7,5,4,4
4,6,1,-6,2,4,-2,-24,8,6,5,5
6,8,1,-8,3,5,-1,-22,10,7,6,6
8,10,2,-10,3,6,-1,-21,11,8,7,7
9,11,2,-11,4,7,-1,-20,12,8,7,7
10,12,1,-11,4,7,-2,-21,12,8,7,7
11,12,0,-12,5,6,-4,-22,11,7,7,6
10,11,0,-11,5,6,-5,-23,11,7,7,6
8,11,2,-10,3,7,-6,-23,11,7,7,7
8,11,3,-10,3,7,-6,-23,11,8,8,7
8,11,3,-10,2,8,-6,-23,11,8,8,7
8,10,3,-9,2,7,-6,-24,10,7,7,7
6,8,2,-8,1,6,-7,-25,9,7,6,6
5,8,3,-7,1,5,-7,-26,9,7,6,6
6,9,3,-8,1,6,-6,-27,9,7,7,7
8,11,3,-10,2,7,-5,-26,10,8,7,7
9,12,2,-11,3,7,-5,-26,10,8,7,7
9,11,2,-10,3,7,-6,-26,9,7,7,7
8,9,2,-9,3,6,-6,-26,8,7,6,6
8,8,1,-8,3,6,-7,-26,8,6,5,5
9,8,0,-8,3,5,-7,-26,7,6,5,5
8,8,0,-8,3,5,-7,-27,7,6,5,5
7,8,0,-8,3,5,-7,-27,7,5,5,5
7,9,0,-9,3,5,-7,-27,7,5,5,5
6,9,2,-8,2,5,-6,-27,7,5,5,5
3,7,4,-6,0,5,-5,-27,7,5,4,5
1,5,4,-3,-1,5,-5,-28,6,4,4,4
-1,3,4,-1,-2,4,-5,-29,6,4,3,4
-2,1,3,0,-3,3,-4,-30,5,3,3,3
-1,1,3,0,-2,2,-4,-30,5,3,3,3
0,2,3,-1,-1,3,-3,-29,5,3,3,3
1,4,3,-3,-1,3,-2,-29,5,3,3,3
2,5,3,-4,0,4,-1,-29,5,3,3,3
1,5,3,-4,0,4,0,-28,5,3,2,3
0,4,3,-2,-1,4,0,-28,5,3,2,3
-1,3,4,-1,-2,4,0,-28,5,3,2,3
-1,2,4,-1,-2,4,0,-29,4,2,2,3
-1,2,4,0,-2,4,0,-29,4,2,1,2
-1,2,4,-1,-2,3,1,-29,4,2,1,2
-1,2,3,-1,-2,2,1,-30,4,2,1,1
-2,1,2,0,-2,1,1,-31,3,1,0,1
-3,0,2,1,-3,1,1,-32,3,1,0,0
-5,-1,3,2,-4,0,1,-33,2,0,0,0
-6,-2,3,3,-4,0,1,-33,2,0,-1,0
-6,-2,3,3,-4,1,1,-32,2,1,0,0
-4,0,3,2,-3,2,2,-30,3,1,0,1
-2,2,3,0,-2,3,3,-29,3,2,1,2
-1,2,4,-1,-2,3,3,-28,4,2,1,2
-3,1,4,0,-3,3,3,-29,3,2,1,2
-5,0,4,2,-4,2,3,-30,3,1,0,1
-5,-1,3,2,-4,1,3,-30,3,1,0,1
-4,-1,3,1,-3,2,3,-30,3,1,0,1
-2,0,3,0,-2,2,3,-30,3,2,0,1
-3,0,3,1,-3,3,3,-29,3,2,0,2
-4,0,4,2,-3,2,3,-29,3,2,0,1
-5,-1,4,3,-4,2,3,-29,3,2,0,1
-6,-1,4,3,-4,1,3,-30,2,1,0,0
-6,-2,3,4,-4,0,2,-30,2,1,0,0
-6,-2,3,4,-4,0,2,-31,1,0,0,0
-6,-2,3,4,-4,1,2,-31,1,0,0,0
-5,-1,4,3,-4,1,3,-31,2,0,0,1
-4,0,3,2,-3,1,3,-30,2,0,0,1
-4,-1,3,3,-3,1,3,-30,1,0,0,1
-5,-2,3,4,-3,0,3,-30,1,0,0,1
-5,-1,4,3,-4,1,3,-30,2,0,0,1
-4,0,4,2,-3,2,4,-29,2,1,0,1
-3,0,3,1,-3,1,4,-29,2,1,0,1
-4,-1,3,2,-4,1,4,-29,2,1,0,1
-6,-2,4,4,-5,1,3,-30,2,1,0,1
-6,-3,4,4,-5,1,3,-30,2,0,0,1
-5,-3,3,3,-4,1,2,-30,1,0,-1,0
-4,-2,2,3,-2,1,2,-30,1,0,-1,0
-3,-2,1,3,-2,0,2,-28,2,0,-1,0
-2,-2,0,2,-1,0,2,-26,3,0,-1,0
0,-2,-2,1,1,-2,1,-23,5,1,-1,-1
4,-2,-7,-1,5,-4,0,-19,7,2,0,-1
8,-3,-11,-3,10,-6,-1,-15,10,3,0,-1
13,-3,-15,-5,14,-8,-2,-10,14,5,1,-1
19,0,-19,-9,19,-9,-3,-2,20,9,5,0
25,2,-22,-14,24,-9,-5,5,27,13,9,3
31,4,-26,-18,29,-10,-8,12,35,18,13,5
38,8,-30,-24,35,-10,-13,19,43,23,18,7
47,14,-33,-31,40,-9,-18,24,52,30,24,12
54,21,-33,-38,44,-6,-24,27,61,38,31,17
62,28,-34,-46,48,-3,-30,29,70,45,38,23
69,33,-35,-52,52,-1,-38,29,75,51,44,28
75,37,-37,-57,56,0,-46,29,80,56,50,32
79,42,-36,-61,58,4,-54,28,86,62,57,37
77,48,-28,-63,53,11,-60,24,91,68,63,43
68,53,-15,-61,42,19,-65,13,90,71,67,48
58,54,-3,-57,31,25,-69,-3,81,69,66,51
49,53,4,-52,22,29,-73,-23,67,62,62,50
39,50,10,-46,15,30,-73,-47,48,50,53,46
29,45,16,-38,7,31,-71,-72,25,36,41,41
20,40,20,-31,0,31,-70,-96,3,22,30,35
14,36,22,-25,-3,30,-70,-113,-15,11,21,29
8,31,24,-20,-7,28,-71,-124,-28,2,13,25
2,26,25,-14,-11,26,-70,-128,-36,-4,7,21
-3,22,26,-10,-14,24,-66,-128,-40,-8,3,17
-6,20,27,-7,-16,23,-60,-124,-42,-10,0,15
-9,18,27,-5,-17,22,-54,-119,-41,-11,-2,13
-10,18,28,-4,-18,22,-48,-113,-39,-11,-2,13
-11,17,28,-4,-20,23,-43,-106,-36,-10,-2,12
-12,17,30,-3,-21,23,-38,-98,-34,-9,-2,12
-11,18,30,-4,-20,24,-33,-91,-32,-8,-1,13
-10,18,29,-5,-19,24,-29,-85,-30,-8,-1,12
-9,18,28,-5,-18,23,-25,-80,-28,-7,0,12
-10,17,27,-4,-17,21,-21,-76,-26,-6,0,12
-9,14,24,-3,-16,19,-18,-73,-25,-6,-1,10
-9,11,20,-2,-14,15,-16,-70,-24,-7,-3,8
-10,8,18,0,-14,13,-14,-66,-22,-8,-3,7
-11,6,18,2,-14,12,-10,-61,-20,-7,-3,6
-11,6,18,2,-14,11,-7,-55,-18,-6,-3,6
-9,6,16,1,-12,11,-4,-51,-16,-5,-3,5
-7,6,14,1,-10,10,-2,-48,-14,-5,-3,4
-8,5,15,2,-11,9,0,-46,-13,-4,-3,4
-10,5,16,2,-12,10,2,-45,-11,-3,-2,5
-10,5,15,2,-12,10,4,-44,-10,-3,-1,6
-8,5,13,1,-11,9,4,-43,-10,-3,-1,5
-7,5,12,0,-9,9,5,-42,-10,-3,-2,4
-8,4,12,1,-10,8,6,-41,-10,-3,-2,4
-9,4,13,3,-11,8,7,-39,-9,-3,-2,3
-11,2,13,4,-12,8,7,-39,-9,-3,-3,3
-12,1,13,5,-12,7,7,-39,-10,-4,-3,2
-11,1,12,5,-11,6,7,-39,-10,-4,-4,2
-12,0,12,5,-12,6,7,-39,-9,-4,-4,1
-13,0,13,5,-13,6,8,-38,-9,-4,-3,1
-12,1,13,4,-12,7,9,-37,-8,-3,-3,2
-10,2,13,3,-11,8,9,-36,-7,-3,-3,2
-10,2,12,3,-11,7,9,-35,-7,-3,-3,1
-10,2,12,4,-10,7,9,-35,-7,-3,-4,1
-9,2,12,4,-10,7,9,-36,-8,-3,-4,1
-8,2,10,3,-8,6,9,-36,-8,-3,-4,1
-6,3,9,1,-7,6,9,-36,-8,-3,-3,1
-6,3,9,1,-7,6,10,-36,-8,-3,-3,1
-7,2,9,2,-8,6,10,-36,-8,-4,-4,0
-9,0,9,3,-9,5,10,-36,-9,-5,-5,0
-9,0,9,4,-9,5,10,-35,-10,-5,-5,0
-8,0,9,4,-8,5,11,-34,-9,-5,-5,0
-6,1,9,2,-7,5,12,-33,-8,-5,-4,1
-6,2,10,1,-7,6,13,-32,-7,-4,-4,1
-6,2,10,2,-7,6,14,-31,-7,-4,-3,1
-7,1,9,2,-7,5,13,-32,-7,-4,-4,1
-8,0,9,3,-8,4,13,-32,-8,-4,-4,0
-10,-2,9,5,-9,3,13,-32,-8,-4,-5,0
-11,-2,9,6,-9,3,14,-31,-8,-4,-5,0
-9,-1,8,5,-8,3,15,-31,-8,-4,-5,0
-6,0,8,3,-6,3,15,-30,-7,-4,-4,0
-4,2,7,1,-5,4,16,-30,-7,-3,-4,1
-3,3,7,0,-5,4,16,-29,-6,-3,-3,1
-3,4,7,0,-5,5,16,-29,-6,-3,-3,1
-3,4,7,-1,-5,5,17,-28,-6,-3,-3,1
-3,4,7,-1,-5,6,17,-28,-6,-3,-3,1
-4,3,8,0,-5,6,17,-27,-6,-3,-3,0
-6,1,8,2,-6,5,17,-27,-7,-4,-4,0
-7,0,7,4,-6,3,17,-26,-8,-5,-5,-1
-8,-2,7,6,-7,2,17,-26,-9,-6,-6,-2
-8,-3,7,6,-7,2,17,-25,-9,-6,-7,-3
-7,-2,6,5,-6,2,18,-24,-9,-6,-7,-2
-5,-1,4,2,-4,2,19,-23,-8,-6,-6,-2
-2,0,3,0,-2,2,20,-21,-8,-5,-5,-1
-1,1,2,0,-1,2,21,-20,-7,-5,-5,-1
0,1,1,0,0,1,22,-18,-7,-5,-5,-1
0,0,1,0,0,1,23,-17,-7,-5,-5,-1
-1,0,2,1,-1,1,24,-16,-6,-5,-5,-1
-2,0,3,1,-2,2,26,-14,-5,-4,-4,0
-1,1,3,0,-2,2,27,-13,-4,-4,-4,0
0,1,2,0,-1,1,27,-12,-5,-4,-4,0
1,0,-1,0,1,0,26,-12,-5,-6,-5,-1
2,-1,-3,0,2,-2,26,-11,-6,-7,-6,-2
2,-3,-4,0,3,-3,26,-10,-6,-7,-7,-3
1,-4,-5,1,3,-4,27,-9,-7,-8,-8,-4
0,-5,-4,3,2,-5,27,-8,-7,-8,-8,-4
-1,-6,-4,4,2,-6,28,-8,-7,-8,-9,-5
0,-7,-6,4,3,-7,28,-7,-7,-9,-10,-6
1,-8,-8,3,5,-8,28,-6,-8,-10,-10,-7
2,-8,-10,3,6,-8,29,-4,-8,-10,-11,-7
4,-7,-11,1,8,-9,30,-2,-7,-10,-11,-7
6,-6,-12,0,9,-9,32,0,-7,-9,-10,-7
7,-5,-12,-1,10,-8,33,3,-6,-9,-10,-6
8,-5,-13,-1,11,-9,34,4,-6,-9,-10,-7
9,-6,-16,-2,13,-11,33,4,-7,-10,-11,-8
11,-8,-19,-2,15,-13,33,4,-7,-11,-12,-9
11,-9,-21,-1,16,-15,34,5,-7,-12,-13,-10
11,-10,-22,-1,17,-16,34,5,-7,-13,-13,-10
13,-10,-24,-2,19,-16,35,6,-7,-13,-13,-10
14,-10,-24,-2,19,-17,36,8,-8,-13,-13,-11
15,-11,-25,-2,20,-18,36,10,-8,-13,-13,-12
16,-11,-27,-3,22,-19,37,11,-8,-14,-14,-12
17,-11,-28,-3,23,-20,37,12,-8,-14,-14,-13
17,-12,-29,-3,23,-21,37,12,-8,-15,-15,-13
16,-13,-30,-2,23,-21,37,13,-7,-15,-15,-13
16,-14,-30,-1,23,-22,37,14,-7,-15,-15,-14
14,-16,-31,0,22,-23,36,13,-8,-16,-15,-14
14,-18,-31,1,23,-24,35,13,-8,-16,-16,-15
18,-16,-33,0,26,-25,35,14,-8,-16,-16,-15
22,-14,-35,-3,29,-25,35,14,-8,-16,-16,-15
23,-14,-36,-4,30,-25,35,13,-7,-16,-16,-15
21,-14,-35,-4,28,-24,34,13,-7,-15,-16,-15
20,-13,-34,-4,27,-23,34,13,-6,-14,-15,-14
20,-13,-33,-4,26,-23,34,13,-5,-13,-14,-13
19,-13,-32,-3,25,-22,33,12,-5,-13,-13,-13
18,-14,-32,-2,25,-22,32,11,-5,-13,-13,-13
17,-15,-32,-1,24,-23,31,10,-5,-13,-13,-13
15,-17,-31,0,23,-23,29,9,-5,-13,-14,-14
14,-17,-30,1,22,-23,28,8,-5,-13,-14,-14
14,-15,-29,0,21,-22,28,7,-4,-12,-13,-13
15,-13,-28,-1,21,-21,28,6,-3,-11,-12,-12
15,-12,-28,-2,21,-20,28,5,-3,-10,-11,-11
16,-10,-27,-3,21,-19,27,4,-2,-9,-10,-10
16,-9,-25,-4,21,-17,27,3,-1,-8,-9,-9
15,-8,-23,-4,19,-15,27,2,0,-7,-8,-8
14,-7,-20,-4,18,-13,27,2,1,-5,-7,-7
13,-6,-18,-3,16,-12,27,1,2,-4,-6,-6
13,-6,-17,-3,15,-12,26,0,3,-4,-6,-6
11,-5,-16,-3,14,-11,25,-1,3,-3,-5,-5
9,-6,-15,-1,12,-11,25,-3,3,-3,-5,-5
7,-6,-13,0,10,-10,24,-4,3,-2,-4,-4
6,-5,-11,-1,9,-8,24,-5,3,-1,-4,-3
7,-4,-11,-1,9,-8,24,-6,4,-1,-3,-3
9,-4,-12,-2,10,-8,23,-7,4,-1,-3,-3
10,-3,-12,-3,11,-7,22,-8,4,0,-3,-3
9,-2,-11,-3,10,-6,21,-8,4,0,-3,-2
8,-2,-10,-2,9,-6,20,-9,4,0,-2,-2
7,-2,-9,-2,8,-5,20,-10,4,0,-2,-2
6,-1,-8,-2,7,-4,20,-11,4,0,-2,-1
6,0,-7,-2,6,-4,20,-12,4,1,-1,-1
6,0,-6,-2,6,-3,19,-12,4,1,-1,0
4,0,-5,-2,5,-3,19,-12,5,1,0,0
3,0,-4,-1,4,-2,18,-12,5,2,0,0
4,0,-4,-2,4,-2,18,-13,5,2,0,1
3,-1,-4,-2,4,-2,17,-14,5,2,0,1
2,-1,-3,-1,3,-2,16,-14,5,2,0,1
0,-2,-2,0,2,-2,16,-14,5,2,0,1
0,-2,-3,0,2,-2,16,-14,5,2,0,0
0,-3,-3,1,2,-3,15,-15,4,1,0,0
0,-3,-3,1,1,-3,15,-15,4,1,0,0
0,-2,-2,1,0,-2,15,-16,4,1,0,0
0,-1,-1,0,0,-1,15,-16,5,2,0,0
3,1,-1,-2,2,0,15,-16,6,3,1,1
5,3,-2,-4,3,1,15,-16,6,4,1,2
6,4,-2,-5,4,1,15,-16,6,4,2,2
7,5,-2,-6,5,2,15,-15,7,4,2,2
7,6,-1,-6,4,2,15,-15,7,5,3,3
5,5,0,-5,3,2,15,-15,7,4,3,4
4,4,0,-4,3,2,14,-15,6,4,3,4
4,3,0,-4,2,2,14,-15,6,4,3,4
3,2,0,-3,2,1,13,-15,6,4,3,4
2,0,0,-1,2,0,12,-16,5,3,2,3
2,-1,-2,-1,3,-1,12,-18,4,2,1,2
3,-1,-3,-1,4,-1,12,-18,4,2,1,2
3,0,-2,-2,3,0,13,-17,4,3,1,2
3,1,-1,-2,2,0,14,-16,5,3,2,3
3,2,0,-2,2,1,14,-16,5,3,2,3
3,2,-1,-3,3,1,14,-15,5,3,2,3
3,2,-1,-3,3,1,14,-15,6,4,2,3
3,2,0,-3,2,1,14,-15,6,4,3,4
3,2,0,-3,2,1,14,-15,6,4,3,4
3,2,0,-3,3,1,15,-16,6,4,3,4
4,4,0,-3,3,2,15,-16,6,5,3,4
5,4,-1,-4,3,2,15,-16,6,4,3,4
5,4,-1,-4,4,1,15,-16,5,4,2,3
4,4,0,-3,3,1,15,-16,6,4,2,3
3,3,0,-2,2,2,16,-15,6,4,3,4
3,3,0,-2,2,2,16,-15,6,4,3,4
2,2,0,-1,2,1,15,-15,6,4,3,3
2,1,-1,-1,2,0,15,-15,5,3,2,2
2,0,-2,0,2,0,14,-15,5,3,2,2
1,0,-1,0,1,-1,14,-15,4,3,1,1
-1,-1,0,2,0,0,14,-15,4,3,1,1
-1,0,0,1,0,0,15,-16,5,3,1,2
2,2,0,-1,2,0,15,-16,5,3,2,2
6,4,-1,-4,4,1,15,-16,6,3,2,2
7,5,-2,-5,5,1,16,-15,6,3,2,2
7,5,-1,-6,5,2,16,-15,6,4,3,3
7,5,-1,-6,4,3,17,-14,7,5,4,4
7,5,-1,-6,3,3,17,-13,7,5,4,4
6,4,-1,-5,3,2,17,-13,6,5,4,3
4,3,-1,-3,2,1,17,-13,6,5,3,3
2,1,0,-1,1,1,16,-13,6,5,3,2
1,0,0,-1,1,0,16,-13,6,4,2,2
2,0,0,-1,1,0,15,-13,6,4,2,2
2,0,0,-1,1,0,15,-13,6,4,3,2
2,0,-1,-1,1,0,15,-13,6,3,3,2
3,1,-1,-2,2,0,15,-14,6,3,3,2
3,3,-1,-3,2,1,16,-13,6,4,3,2
4,3,0,-3,2,1,16,-13,6,4,3,2
4,4,0,-4,2,2,16,-12,6,4,3,2
5,4,0,-4,2,2,16,-12,7,5,4,3
4,4,0,-4,2,2,16,-12,7,5,4,3
3,2,0,-2,1,1,15,-12,6,4,3,3
2,1,0,-1,1,0,15,-13,6,4,2,2
2,0,0,-1,1,0,15,-13,6,3,2,2
2,1,0,-2,1,1,15,-13,6,4,2,2
4,3,-1,-3,2,1,15,-13,6,4,3,2
4,4,-1,-4,3,1,15,-12,6,4,3,2
5,4,-1,-4,3,1,15,-12,6,4,3,2
6,5,-1,-5,3,2,15,-12,6,5,3,3
7,5,-1,-5,4,1,15,-12,6,4,3,3
6,4,-2,-5,4,1,14,-13,6,4,3,2
5,3,-1,-3,4,0,14,-13,6,4,3,2
3,2,-1,-2,3,0,13,-13,5,3,2,1
2,1,-1,-1,2,0,13,-14,5,3,1,1
1,0,-2,-1,2,0,12,-15,4,2,1,0
2,0,-2,-1,3,-1,12,-15,4,2,1,0
3,1,-1,-2,2,0,13,-15,5,3,2,1
4,4,1,-3,2,2,14,-14,6,5,3,2
5,5,1,-5,2,3,15,-14,7,5,4,3
5,6,1,-5,2,3,15,-14,6,5,4,3
5,6,0,-5,3,3,15,-14,6,5,4,3
5,5,0,-5,3,2,15,-15,6,4,3,3
3,3,0,-3,2,1,15,-15,5,4,3,3
1,2,0,-1,1,1,14,-15,5,4,2,2
2,1,0,-1,1,1,14,-15,4,3,2,2
4,2,-1,-3,3,1,14,-15,4,3,2,2
5,4,-1,-4,4,2,14,-14,5,4,2,2
6,5,0,-6,4,3,15,-14,6,5,3,3
7,7,0,-7,4,3,15,-13,6,5,4,4
8,8,0,-8,4,4,16,-13,7,6,4,4
8,8,0,-8,4,4,16,-14,7,6,4,5
6,7,1,-7,3,4,16,-14,7,6,4,5
5,7,2,-6,2,4,16,-14,7,6,5,5
5,7,3,-6,1,5,16,-13,8,7,5,5
5,9,4,-7,1,7,17,-12,9,7,6,6
5,10,4,-8,1,8,17,-12,9,7,6,6
6,11,4,-9,1,8,18,-11,10,8,6,6
8,12,4,-10,2,8,18,-11,10,8,7,6
9,12,3,-10,2,8,18,-11,10,8,7,6
9,12,3,-10,3,7,18,-11,10,8,7,6
9,12,3,-10,3,7,18,-11,10,8,7,6
8,11,4,-9,2,8,17,-12,10,8,7,6
8,11,4,-9,2,8,16,-13,9,7,6,6
10,11,2,-10,4,7,15,-13,8,7,5,5
12,12,0,-12,6,6,15,-14,7,6,5,4
14,13,0,-13,7,6,15,-13,8,6,5,5
15,14,0,-14,8,7,16,-12,9,7,6,6
15,16,1,-15,7,8,17,-11,11,8,7,7
15,17,2,-16,7,10,18,-10,12,9,8,8
16,18,2,-17,7,11,17,-9,13,11,10,9
17,19,3,-17,7,11,16,-9,14,12,11,9
17,19,3,-17,8,11,15,-10,14,12,11,9
17,19,3,-17,8,11,15,-10,14,12,11,10
15,18,3,-16,7,11,14,-11,13,11,11,10
14,17,3,-15,6,10,14,-12,12,11,10,10
14,16,2,-15,6,10,14,-13,11,10,10,9
15,17,1,-16,7,10,13,-13,11,10,9,9
18,18,0,-18,9,10,13,-13,11,10,9,9
21,20,0,-21,11,10,13,-13,11,10,10,9
22,21,-1,-21,11,10,12,-13,11,10,10,9
20,19,-1,-19,11,9,12,-13,11,10,9,9
19,18,-1,-18,10,8,11,-13,11,10,9,9
19,17,-2,-17,10,8,11,-14,10,9,8,8
17,16,-2,-16,9,7,10,-15,10,9,8,8
15,15,-1,-14,8,7,9,-16,9,8,7,7
14,14,0,-14,7,8,9,-16,9,8,7,7
14,14,0,-14,7,8,9,-17,8,7,7,7
13,14,0,-13,7,7,8,-18,7,7,7,6
13,13,0,-13,6,6,8,-17,7,6,6,6
11,12,0,-11,5,6,8,-17,7,6,6,6
10,11,1,-10,4,6,9,-17,7,6,6,6
10,12,1,-10,4,7,10,-16,7,7,7,6
9,13,2,-10,4,8,11,-15,8,7,7,6
8,11,2,-9,3,7,12,-15,7,6,6,5
6,9,2,-7,2,6,11,-16,6,5,4,4
5,7,3,-6,1,5,11,-17,5,4,4,3
2,5,4,-4,-1,5,11,-18,5,3,3,2
0,4,5,-2,-2,5,11,-18,4,3,3,2
0,4,5,-2,-2,5,11,-18,4,3,3,2
0,5,4,-3,-1,5,11,-18,4,3,3,3
1,6,4,-3,-1,5,11,-18,5,4,3,3
2,6,4,-4,0,5,11,-18,5,4,3,2
2,6,4,-4,0,5,11,-18,4,3,3,2
2,6,4,-4,0,5,11,-18,4,3,2,2
2,5,4,-3,0,5,11,-18,4,3,2,1
1,4,4,-2,0,4,10,-18,3,2,1,1
1,4,3,-2,0,4,10,-19,3,2,1,1
1,4,3,-2,0,4,10,-20,2,2,1,1
0,4,3,-1,-1,4,10,-19,2,2,2,1
0,4,4,-1,-1,4,10,-19,2,2,2,1
0,4,4,-1,-1,4,10,-18,2,2,2,1
0,4,4,-1,-1,3,10,-18,2,2,1,1
-1,3,4,-1,-1,3,10,-18,2,1,1,1
-2,2,4,0,-2,3,10,-18,2,1,1,1
-1,2,3,0,-1,2,9,-19,2,1,0,0
-1,1,1,0,0,1,9,-19,1,0,0,0
-2,1,2,0,-1,1,8,-19,1,0,0,0
-3,1,4,1,-3,2,9,-19,2,1,1,0
-4,2,6,1,-4,3,9,-19,2,1,1,0
-5,1,6,1,-5,3,9,-19,2,1,1,0
-5,0,5,2,-5,2,9,-19,1,1,1,0
-6,-1,5,3,-5,2,9,-19,1,0,0,0
-6,-1,5,3,-5,2,9,-18,1,0,0,0
-5,0,4,3,-5,2,9,-17,1,0,0,0
-5,-1,4,3,-5,2,9,-18,1,0,0,0
-6,-1,3,4,-5,1,8,-18,1,0,0,0
-5,-1,3,4,-4,1,8,-19,0,0,0,-1
-4,-1,2,3,-3,0,7,-19,0,0,0,-1
-3,-2,1,3,-2,0,5,-20,0,0,-1,-2
-4,-3,1,4,-3,-1,5,-20,-1,-1,-1,-2
-4,-3,2,4,-3,0,5,-20,0,0,0,-1
-4,-1,2,3,-3,0,6,-20,0,0,0,-1
-4,-1,2,3,-4,0,6,-20,-1,0,0,-1
-4,-1,2,4,-4,0,5,-20,-1,-1,0,-2
-5,-2,1,4,-3,-1,5,-19,-1,-1,-1,-2
-6,-4,1,5,-3,-1,5,-18,-1,-1,-1,-2
-6,-4,1,5,-3,-2,6,-15,0,-1,-1,-2
-4,-4,0,4,-1,-2,6,-12,1,0,-1,-2
-1,-3,-3,2,1,-3,6,-8,3,0,0,-2
3,-3,-6,0,5,-4,4,-5,5,0,0,-3
7,-3,-11,-1,9,-6,2,-2,8,1,0,-3
11,-3,-15,-3,13,-9,1,2,12,3,2,-2
17,-2,-19,-7,18,-11,-1,9,18,7,5,-1
23,0,-24,-11,24,-12,-4,16,25,11,9,1
30,2,-27,-16,29,-12,-9,22,32,16,13,3
38,6,-31,-22,35,-12,-14,28,40,21,18,6
48,13,-34,-31,41,-10,-19,33,48,28,24,10
58,20,-37,-39,48,-8,-26,35,56,34,30,15
67,27,-40,-47,54,-7,-33,37,62,39,35,19
75,31,-44,-52,59,-6,-42,36,66,44,40,22
81,35,-46,-58,63,-5,-51,34,70,48,45,26
84,41,-43,-62,63,-1,-58,33,76,54,51,31
79,47,-31,-63,55,8,-63,28,80,61,58,38
70,52,-17,-61,43,17,-66,17,79,64,63,44
61,54,-5,-58,33,24,-70,1,71,63,63,47
51,53,3,-52,24,28,-72,-17,57,56,58,46
38,47,9,-43,15,28,-73,-40,37,44,49,42
26,41,14,-33,6,27,-73,-66,14,29,37,36
15,35,18,-24,-1,26,-73,-89,-6,15,25,30
8,30,20,-18,-5,25,-74,-106,-23,4,16,25
3,25,21,-14,-8,24,-74,-115,-34,-3,10,21
-1,20,22,-9,-11,22,-72,-119,-41,-9,5,17
-7,16,24,-4,-15,20,-68,-117,-45,-12,0,13
-10,13,24,-1,-17,19,-62,-112,-45,-13,-2,11
-11,14,25,-1,-18,19,-55,-105,-42,-13,-2,10
-13,15,28,0,-20,21,-48,-97,-39,-11,-2,11
-16,16,31,0,-23,23,-42,-90,-36,-10,-1,12
-16,17,33,0,-24,25,-37,-84,-34,-9,-1,12
-14,18,32,-1,-23,25,-33,-79,-32,-8,0,11
-12,18,31,-2,-21,24,-30,-74,-30,-8,0,11
-13,16,30,-1,-21,23,-27,-69,-28,-7,0,10
-14,14,29,0,-21,22,-24,-64,-26,-7,0,9
-14,11,26,1,-20,19,-21,-61,-25,-7,-2,7
-14,8,21,3,-17,14,-18,-58,-26,-9,-4,5
-13,5,17,4,-15,10,-16,-54,-26,-10,-5,2
-14,3,15,6,-14,8,-13,-49,-25,-11,-6,1
-14,2,14,6,-14,8,-10,-44,-23,-10,-6,0
-13,1,14,6,-13,7,-7,-40,-20,-10,-5,0
-13,0,14,6,-13,7,-5,-37,-19,-9,-5,0
-13,-1,13,7,-12,6,-4,-35,-18,-9,-6,-1
-14,-2,12,8,-13,5,-3,-34,-18,-9,-6,-1
-14,-2,12,8,-13,5,-2,-33,-16,-9,-5,-1
-15,-1,13,8,-14,5,-2,-32,-15,-8,-5,0
-15,-1,14,8,-14,6,-1,-32,-14,-7,-4,0
-15,0,14,7,-14,7,0,-30,-13,-7,-4,0
-14,1,15,6,-14,8,0,-28,-12,-6,-3,0
-13,1,15,6,-13,8,1,-27,-12,-5,-3,0
-13,0,14,6,-13,7,2,-26,-11,-5,-3,0
-13,0,14,6,-13,7,2,-25,-11,-5,-3,0
-14,-1,13,8,-13,6,2,-25,-12,-6,-3,0
-15,-2,13,9,-14,5,2,-25,-12,-6,-4,0
-16,-2,13,9,-14,5,2,-25,-12,-6,-4,0
-16,-2,12,9,-13,4,2,-24,-12,-6,-5,-1
-16,-3,11,9,-13,4,2,-23,-12,-7,-5,-1
-15,-3,11,9,-13,4,2,-23,-12,-7,-5,-1
-15,-2,11,9,-13,4,2,-23,-12,-7,-5,-1
-14,-2,11,8,-12,4,2,-23,-13,-8,-5,-1
-14,-4,10,9,-11,3,1,-24,-13,-8,-6,-2
-14,-5,9,10,-11,2,1,-24,-14,-9,-6,-2
-14,-6,8,10,-11,1,0,-23,-14,-9,-6,-3
-14,-6,8,10,-11,1,0,-22,-14,-9,-6,-3
-15,-5,9,10,-12,2,1,-21,-14,-9,-6,-2
-16,-5,10,11,-13,3,2,-20,-14,-9,-6,-2
-16,-5,11,11,-13,3,2,-20,-14,-8,-6,-2
-16,-5,11,11,-14,3,2,-20,-14,-8,-6,-2
-16,-5,11,10,-13,3,2,-20,-13,-8,-6,-2
-14,-3,11,8,-12,4,2,-19,-12,-7,-5,-1
-12,-2,11,7,-12,5,3,-19,-11,-6,-4,-1
-11,-2,10,6,-11,5,3,-19,-11,-7,-5,-1
-11,-2,8,6,-9,3,3,-18,-12,-8,-6,-2
-12,-3,8,7,-10,3,2,-17,-13,-8,-6,-2
-13,-3,9,8,-11,3,2,-17,-13,-8,-6,-2
-12,-3,9,8,-11,3,2,-16,-13,-8,-6,-2
-12,-4,8,8,-10,3,2,-16,-13,-8,-6,-2
-12,-4,9,8,-11,3,2,-15,-12,-8,-6,-2
-13,-4,9,9,-11,3,3,-15,-12,-7,-5,-2
-15,-5,9,10,-12,2,2,-15,-11,-7,-5,-2
-16,-6,9,11,-12,1,2,-15,-11,-7,-5,-2
-15,-6,8,11,-11,1,2,-14,-11,-7,-5,-2
-13,-5,7,9,-10,1,2,-12,-11,-7,-5,-2
-12,-5,7,9,-9,1,2,-11,-10,-7,-5,-2
-11,-6,6,9,-9,0,2,-10,-11,-7,-6,-2
-11,-6,7,8,-9,1,3,-9,-11,-7,-6,-2
-11,-5,7,8,-9,2,4,-8,-10,-7,-6,-2
-10,-4,6,7,-8,1,4,-7,-11,-7,-6,-2
-8,-5,3,7,-6,0,4,-7,-11,-8,-7,-3
-8,-6,1,7,-5,-1,3,-7,-12,-9,-8,-4
-9,-8,1,9,-5,-3,3,-6,-12,-10,-8,-4
-11,-10,0,10,-6,-4,3,-5,-13,-11,-9,-5
-11,-11,0,11,-6,-4,3,-4,-14,-12,-9,-5
-11,-11,0,11,-6,-5,4,-3,-14,-12,-9,-6
-11,-12,0,11,-6,-5,4,-2,-13,-11,-9,-6
-11,-12,0,11,-6,-5,6,0,-13,-11,-9,-6
-11,-11,0,11,-5,-5,7,1,-12,-10,-9,-6
-10,-11,-1,11,-4,-6,8,3,-12,-10,-9,-6
-9,-12,-3,11,-2,-7,8,5,-12,-11,-9,-7
-8,-12,-5,10,-1,-9,8,6,-12,-11,-10,-7
-7,-13,-6,10,0,-10,8,7,-12,-11,-10,-8
-5,-13,-8,9,2,-10,8,8,-12,-11,-10,-8
-3,-12,-9,7,3,-11,9,9,-12,-11,-10,-8
-1,-11,-10,6,5,-11,9,11,-11,-10,-10,-8
0,-10,-11,5,6,-10,10,13,-11,-10,-10,-8
0,-10,-11,5,6,-11,11,15,-11,-11,-10,-8
0,-12,-13,6,6,-12,12,17,-11,-12,-11,-9
0,-14,-14,7,7,-14,13,19,-12,-13,-11,-10
0,-15,-16,8,8,-15,13,20,-12,-14,-12,-10
0,-17,-18,8,9,-17,13,20,-12,-15,-13,-11
2,-19,-21,8,11,-19,12,19,-13,-16,-14,-13
2,-20,-23,9,12,-21,11,20,-14,-17,-15,-14
2,-21,-24,9,13,-22,12,21,-14,-18,-16,-15
2,-22,-25,9,14,-23,12,22,-15,-19,-17,-16
3,-22,-26,9,15,-24,12,24,-15,-20,-18,-17
4,-23,-28,9,17,-25,12,25,-15,-20,-18,-17
5,-23,-29,9,18,-26,12,25,-15,-20,-18,-18
7,-23,-30,8,19,-26,12,26,-14,-20,-18,-18
8,-23,-31,7,20,-27,12,27,-13,-19,-17,-18
10,-22,-32,6,21,-27,12,27,-13,-19,-17,-18
10,-23,-34,6,22,-28,12,27,-12,-19,-18,-18
10,-24,-35,6,22,-29,11,28,-12,-19,-18,-19
10,-25,-35,7,22,-29,11,28,-12,-18,-18,-19
9,-25,-35,8,22,-30,10,29,-11,-18,-18,-19
9,-25,-35,8,23,-30,10,29,-12,-18,-18,-19
10,-25,-35,7,23,-30,10,28,-12,-18,-18,-19
11,-24,-35,6,23,-29,10,28,-11,-18,-18,-18
11,-23,-34,6,22,-28,9,27,-11,-18,-18,-18
10,-22,-33,6,21,-27,9,26,-10,-18,-18,-17
9,-23,-32,6,21,-27,8,25,-10,-18,-18,-17
8,-23,-32,7,20,-27,7,24,-10,-18,-17,-17
8,-23,-31,7,20,-27,6,22,-10,-17,-17,-16
7,-22,-30,7,19,-26,6,21,-10,-16,-16,-16
6,-22,-28,8,17,-24,5,20,-9,-15,-14,-15
4,-21,-26,8,15,-23,5,19,-8,-14,-13,-14
4,-21,-25,8,14,-23,4,18,-7,-14,-13,-13
4,-21,-25,8,14,-22,2,17,-7,-13,-13,-13
3,-20,-24,8,14,-22,1,16,-7,-13,-13,-13
2,-20,-23,9,12,-21,0,15,-7,-12,-12,-12
1,-20,-21,10,11,-20,0,14,-6,-11,-11,-11
1,-18,-20,9,11,-18,0,13,-5,-10,-9,-10
1,-17,-18,9,10,-17,-1,11,-5,-9,-8,-10
0,-16,-16,8,8,-15,-1,10,-4,-8,-8,-9
0,-15,-14,8,7,-14,-1,9,-4,-8,-7,-9
0,-15,-13,8,6,-14,-1,8,-3,-7,-7,-8
-1,-14,-12,7,5,-13,-1,7,-3,-7,-6,-7
-2,-13,-11,7,4,-12,-2,6,-2,-6,-6,-7
-3,-13,-10,7,4,-11,-3,5,-2,-6,-5,-6
-4,-12,-9,8,2,-10,-3,3,-2,-5,-5,-5
-5,-12,-7,8,1,-9,-3,2,-2,-5,-4,-5
-7,-13,-7,9,0,-9,-4,1,-2,-5,-5,-5
-7,-14,-7,10,0,-10,-6,0,-3,-5,-6,-6
-7,-15,-7,11,0,-11,-7,-1,-3,-6,-6,-7
-8,-16,-6,12,-1,-11,-8,-2,-3,-6,-6,-7
-10,-16,-5,12,-2,-10,-8,-3,-3,-5,-6,-6
-10,-15,-5,12,-3,-9,-8,-3,-2,-4,-5,-6
-10,-14,-5,12,-2,-9,-8,-3,-1,-3,-4,-5
-9,-13,-5,11,-2,-8,-9,-4,-2,-3,-3,-4
-9,-12,-4,10,-2,-8,-9,-4,-2,-2,-3,-4
-10,-13,-3,11,-3,-7,-10,-4,-2,-2,-3,-3
-11,-12,-1,11,-4,-7,-10,-4,-1,-2,-3,-3
-10,-11,-1,10,-4,-6,-9,-4,-1,-2,-2,-2
-9,-11,-1,10,-4,-6,-9,-4,-1,-2,-2,-2
-9,-11,-1,10,-4,-6,-10,-4,-2,-3,-2,-2
-9,-10,-1,9,-3,-6,-10,-4,-2,-3,-2,-2
-9,-10,-2,9,-3,-6,-10,-4,-3,-4,-2,-2
-10,-12,-2,11,-4,-6,-10,-5,-3,-4,-3,-2
-11,-13,-1,12,-4,-7,-10,-6,-3,-4,-3,-2
-13,-14,-1,13,-5,-7,-10,-6,-3,-3,-2,-2
-14,-13,0,13,-6,-6,-11,-6,-2,-3,-2,-2
-12,-12,0,12,-5,-5,-11,-6,-1,-2,-1,-1
-9,-10,-1,9,-3,-5,-12,-6,-1,-1,-1,-1
-6,-8,-2,7,-1,-5,-13,-7,-1,-1,-1,-2
-5,-7,-1,6,-1,-4,-13,-6,0,0,-1,-1
-6,-6,0,6,-2,-3,-13,-6,0,0,0,0
-7,-8,0,7,-3,-3,-14,-6,0,0,-1,0
-9,-10,0,9,-4,-4,-14,-7,-1,0,-2,-1
-10,-11,0,11,-5,-5,-14,-7,-2,-1,-2,-1
-12,-12,0,12,-6,-5,-14,-7,-2,-1,-2,-1
-12,-12,0,12,-6,-5,-14,-7,-2,-2,-2,-1
-12,-12,0,11,-5,-5,-14,-7,-2,-2,-2,-1
-11,-12,0,11,-5,-5,-13,-7,-2,-2,-2,-2
-11,-12,0,11,-5,-5,-13,-7,-1,-2,-2,-2
-10,-11,1,10,-5,-5,-13,-6,-1,-1,-1,-1
-10,-9,2,10,-5,-3,-12,-6,0,0,-1,-1
-9,-7,2,8,-5,-2,-12,-6,0,0,0,0
-7,-6,1,7,-3,-2,-12,-6,0,0,0,0
-6,-6,0,6,-2,-3,-13,-7,0,0,0,0
-7,-7,0,7,-2,-3,-14,-7,-1,0,0,0
-8,-7,0,8,-3,-4,-14,-6,-1,0,0,0
-8,-8,0,8,-3,-4,-14,-6,-1,0,0,0
-9,-8,0,8,-4,-4,-14,-6,-1,-1,0,0
-9,-9,0,9,-4,-4,-14,-6,-2,-1,0,-1
-9,-9,0,10,-4,-4,-14,-6,-2,-1,-1,-1
-10,-10,0,10,-4,-4,-14,-6,-2,-1,-1,-1
-9,-10,0,10,-4,-4,-14,-5,-2,-1,-1,-1
-9,-9,0,9,-5,-4,-14,-5,-1,-1,-1,-1
-9,-9,0,9,-5,-4,-15,-4,-1,-1,-1,-1
-10,-9,1,9,-5,-4,-15,-4,-1,-1,-1,-1
-10,-9,2,9,-6,-4,-14,-3,-1,0,0,0
-10,-8,2,9,-6,-3,-13,-3,0,0,0,0
-10,-8,2,9,-6,-3,-13,-2,0,1,0,0
-10,-8,1,9,-5,-3,-13,-3,0,1,0,0
-9,-8,1,9,-5,-4,-14,-3,0,0,0,0
-9,-8,0,9,-5,-4,-14,-3,0,0,0,-1
-9,-8,0,9,-5,-4,-14,-3,-1,0,0,-1
-9,-8,0,9,-5,-4,-14,-4,-1,0,-1,-1
-10,-9,1,9,-6,-4,-14,-4,-1,-1,-1,-1
-9,-9,0,10,-5,-5,-15,-4,-1,-1,-1,-2
-9,-10,0,10,-4,-6,-15,-5,-2,-2,-2,-3
-10,-10,0,11,-4,-6,-15,-5,-2,-2,-3,-3
-10,-9,1,10,-5,-4,-15,-4,-1,-2,-2,-2
-11,-9,3,10,-7,-3,-14,-4,-1,-1,-2,-2
-11,-8,3,10,-7,-2,-14,-3,0,-1,-1,-1
-10,-7,3,9,-6,-2,-14,-3,0,0,-1,-1
-9,-6,3,8,-6,-1,-13,-3,0,0,-1,-1
-8,-5,3,7,-5,-1,-12,-2,0,0,0,0
-7,-5,2,6,-5,-1,-12,-1,1,1,0,0
-7,-5,2,6,-4,-1,-11,-1,1,1,0,0
-7,-5,1,7,-4,-2,-12,-2,1,0,0,0
-7,-7,0,8,-3,-3,-13,-3,0,0,-1,0
-8,-9,0,9,-4,-4,-13,-3,0,0,-1,-1
-9,-10,0,10,-5,-4,-13,-3,0,0,-1,-1
-11,-10,1,10,-6,-4,-13,-3,0,0,-1,-1
-12,-11,2,11,-6,-4,-13,-3,0,-1,-1,-2
-13,-11,2,12,-7,-5,-13,-3,-1,-1,-2,-2
-14,-12,2,13,-8,-5,-13,-2,-1,-1,-2,-2
-14,-11,3,13,-8,-4,-12,-2,-1,-1,-2,-2
-12,-9,3,11,-7,-3,-12,-2,-1,-1,-1,-2
-10,-8,3,9,-6,-3,-12,-2,0,0,-1,-1
-9,-7,2,8,-6,-3,-12,-2,0,0,-1,-1
-9,-7,2,7,-5,-3,-12,-2,0,0,-1,-2
-8,-7,1,7,-5,-3,-12,-3,0,0,-1,-2
-8,-7,1,7,-4,-3,-12,-3,-1,0,-1,-2
-9,-8,1,8,-5,-3,-12,-3,-1,0,-1,-2
-9,-8,1,8,-5,-3,-12,-3,-1,0,-1,-2
-8,-8,0,8,-5,-3,-12,-3,-2,-1,-2,-2
-8,-7,0,8,-4,-3,-13,-4,-2,-1,-2,-2
-9,-8,1,9,-5,-3,-13,-4,-3,-2,-2,-2
-10,-9,1,10,-6,-3,-13,-4,-3,-2,-2,-2
-11,-9,2,10,-7,-3,-12,-5,-3,-1,-2,-2
-11,-9,2,10,-7,-3,-12,-5,-2,-1,-2,-2
-10,-8,1,9,-6,-3,-11,-4,-2,0,-2,-2
-9,-7,1,7,-5,-2,-9,-3,-1,0,-1,-1
-6,-5,1,5,-4,-1,-8,-2,0,0,-1,-1
-5,-4,1,4,-4,-1,-7,-2,0,0,-1,-1
-6,-4,2,5,-4,-1,-7,-2,0,0,0,-1
-7,-4,3,5,-5,0,-6,-1,0,1,0,0
-7,-3,4,5,-6,1,-5,-1,0,1,0,0
-8,-2,5,5,-7,2,-5,-1,0,2,1,0
-10,-3,6,6,-8,2,-5,-1,1,2,1,1
-11,-3,6,7,-8,2,-5,-1,2,3,2,1
-9,-2,6,6,-7,2,-6,0,2,3,2,2
-7,-1,5,4,-6,2,-6,0,2,4,3,2
-6,0,5,3,-6,3,-6,1,2,4,3,3
-4,0,5,2,-4,3,-5,1,2,4,3,3
-3,0,4,1,-3,2,-6,1,2,4,3,3
-3,0,3,1,-2,2,-7,0,2,3,3,2
-2,0,2,0,-1,2,-8,0,1,3,2,2
-1,1,1,0,0,2,-8,0,1,3,2,2
0,2,1,-1,0,2,-8,0,2,3,2,2
0,2,3,-1,-1,3,-7,0,4,4,3,2
0,2,4,-1,-2,3,-7,0,5,5,3,3
0,2,3,-1,-1,3,-8,0,5,6,4,3
1,3,3,-2,-1,3,-9,0,6,6,4,3
2,6,4,-4,-1,5,-9,1,6,7,6,4
2,9,5,-5,-1,8,-8,2,7,8,7,5
3,10,6,-6,-1,9,-8,2,7,8,7,6
3,10,6,-6,-1,9,-8,1,7,8,7,6
2,9,6,-6,-1,8,-8,0,6,8,7,6
2,7,5,-5,-1,6,-8,-1,5,7,6,5
2,5,4,-4,-1,4,-9,-3,5,6,5,4
1,3,3,-3,-1,3,-9,-3,4,5,4,3
0,3,3,-2,-1,3,-9,-3,4,5,4,3
0,2,2,-2,-1,3,-10,-2,3,4,4,2
0,2,2,-1,0,2,-10,-2,2,3,3,2
-1,1,1,0,0,1,-10,-3,2,2,2,1
-2,0,2,0,-1,1,-10,-3,2,2,2,1
-2,1,4,0,-2,2,-9,-3,3,3,3,2
-1,3,4,-1,-2,3,-9,-3,3,4,3,2
0,4,5,-2,-2,4,-8,-4,3,4,3,2
0,5,6,-2,-3,5,-7,-4,3,4,3,2
0,6,7,-2,-3,6,-6,-4,3,4,4,3
-1,6,7,-2,-4,6,-6,-4,2,4,4,3
-1,5,6,-2,-3,6,-6,-4,2,4,3,2
-1,4,4,-2,-2,4,-6,-5,1,3,3,2
-1,2,4,0,-2,3,-7,-6,1,3,2,1
-4,0,5,2,-4,3,-7,-7,0,2,2,0
-7,-1,6,4,-6,2,-7,-7,0,2,1,0
-9,-3,7,6,-8,2,-7,-7,0,1,0,0
-10,-4,7,7,-8,1,-7,-7,0,1,0,-1
-11,-4,7,8,-9,1,-6,-6,0,1,0,-1
-12,-4,8,9,-10,2,-5,-6,0,1,0,-1
-12,-4,8,8,-10,2,-5,-6,0,1,0,-1
-13,-4,9,8,-11,2,-4,-6,0,1,0,-1
-14,-5,9,9,-11,2,-4,-6,0,1,0,-1
-14,-5,8,10,-11,1,-3,-5,-1,0,-1,-1
-13,-6,7,9,-10,1,-3,-5,-1,0,-1,-2
-11,-5,6,8,-9,0,-3,-4,-1,-1,-1,-2
-10,-5,6,7,-8,0,-3,-4,-2,-1,-1,-2
-9,-4,5,6,-7,0,-3,-4,-2,-1,-1,-2
-9,-4,5,6,-6,0,-3,-4,-2,-1,-1,-2
-9,-5,5,7,-6,0,-3,-5,-2,-1,-1,-2
-9,-5,5,7,-6,0,-3,-5,-2,-1,-1,-2
-9,-5,4,7,-6,0,-3,-6,-2,-1,-1,-2
-10,-6,4,8,-6,-1,-4,-6,-2,-1,-2,-3
-11,-7,4,9,-7,-1,-4,-7,-2,-1,-2,-3
-11,-7,5,9,-8,-1,-4,-6,-2,-1,-2,-3
-11,-7,6,10,-8,-1,-4,-6,-2,-1,-2,-3
-11,-6,6,9,-9,-1,-3,-5,-2,-1,-2,-3
-11,-6,6,8,-9,0,-3,-4,-2,-1,-2,-3
-10,-5,6,7,-9,0,-2,-4,-2,-1,-1,-3
-10,-4,6,7,-8,1,-2,-4,-2,0,-1,-3
-11,-5,6,7,-8,0,-2,-4,-2,0,-1,-3
-12,-6,6,8,-9,0,-2,-4,-1,0,-1,-3
-12,-6,7,9,-9,0,-2,-4,-1,0,-1,-3
-12,-6,7,9,-9,0,-2,-4,-1,0,-1,-3
-12,-6,7,8,-9,0,-2,-4,-1,0,-1,-3
-11,-5,7,8,-9,0,-2,-4,-1,0,-1,-3
-11,-5,7,8,-9,0,-2,-4,0,0,-1,-3
-11,-5,7,8,-9,0,-2,-4,0,0,-1,-3
-12,-5,8,8,-9,1,-2,-4,0,0,-1,-3
-13,-5,8,9,-10,1,-2,-3,0,0,-1,-3
-13,-6,8,9,-10,1,-3,-3,-1,0,-1,-3
-12,-6,7,9,-9,0,-3,-3,-1,0,-1,-3
-11,-6,6,8,-8,0,-4,-3,-1,-1,-1,-3
-11,-7,5,9,-8,-1,-4,-3,-1,-2,-1,-3
-12,-8,4,10,-8,-2,-5,-4,-2,-3,-2,-4
-13,-9,4,11,-9,-2,-5,-4,-2,-3,-2,-4
-14,-10,4,12,-9,-3,-6,-4,-3,-3,-3,-5
-14,-11,3,12,-8,-3,-6,-3,-2,-3,-3,-5
-12,-10,2,11,-7,-3,-6,-1,-1,-2,-2,-5
-9,-9,1,9,-5,-3,-7,2,1,0,-1,-5
-6,-8,-1,7,-2,-4,-7,5,3,0,-1,-5
-3,-8,-4,6,1,-6,-8,9,5,1,0,-5
0,-9,-8,5,4,-8,-10,14,9,2,0,-5
3,-8,-12,3,8,-9,-11,20,14,5,2,-5
9,-7,-16,0,13,-11,-14,27,19,8,5,-4
16,-4,-20,-5,18,-12,-17,34,26,13,10,-1
25,0,-25,-13,25,-12,-21,41,35,19,16,2
36,7,-28,-22,32,-11,-25,47,45,26,22,6
45,13,-30,-29,37,-9,-30,50,54,33,29,11
51,19,-32,-35,41,-7,-36,52,62,40,35,15
57,23,-33,-40,45,-5,-43,51,68,46,41,19
62,28,-34,-44,48,-3,-51,49,73,51,46,23
66,34,-32,-50,49,0,-60,47,78,57,52,28
66,42,-24,-54,46,8,-66,45,85,65,60,36
61,49,-11,-55,37,19,-71,38,89,71,67,43
54,54,0,-54,28,27,-75,24,84,72,69,48
48,55,8,-52,20,31,-79,5,72,67,67,48
39,52,14,-46,13,33,-81,-15,54,56,59,45
27,46,19,-37,4,33,-80,-37,32,42,48,40
14,40,26,-27,-5,33,-77,-60,10,28,36,34
5,36,30,-20,-11,33,-75,-79,-9,16,25,28
-1,31,31,-14,-15,31,-76,-94,-25,5,16,23
-6,25,32,-9,-18,29,-76,-102,-36,-3,9,18
-11,20,32,-4,-21,26,-74,-105,-43,-9,3,13
-15,16,33,0,-23,24,-70,-103,-46,-12,0,10
-17,14,33,2,-25,23,-64,-98,-46,-14,-2,8
-19,13,33,3,-26,23,-58,-91,-45,-14,-3,7
-21,13,34,4,-28,23,-52,-84,-43,-13,-4,7
-22,12,35,5,-29,23,-47,-77,-40,-13,-4,6
-23,12,35,6,-29,23,-43,-71,-38,-12,-4,6
-23,11,34,6,-28,22,-38,-65,-36,-11,-4,5
-22,10,32,6,-27,21,-35,-60,-34,-11,-4,4
-20,9,30,6,-25,20,-31,-55,-31,-10,-4,4
-19,8,29,5,-24,19,-28,-49,-29,-9,-4,3
-19,6,27,6,-23,17,-25,-45,-27,-9,-4,1
-19,4,24,7,-22,14,-22,-41,-26,-10,-5,0
-18,2,21,8,-20,12,-20,-38,-25,-10,-6,-1
-18,1,19,8,-18,10,-17,-34,-24,-10,-6,-2
-17,2,18,8,-17,10,-14,-30,-22,-9,-6,-2
-17,2,19,7,-17,10,-12,-26,-20,-8,-5,-2
-17,2,19,8,-17,10,-10,-24,-18,-7,-5,-2
-17,0,18,9,-18,10,-9,-22,-16,-6,-4,-2
-17,0,18,9,-17,9,-8,-21,-15,-6,-4,-2
-18,-1,17,10,-17,8,-8,-20,-15,-5,-4,-2
-20,-2,18,11,-19,8,-7,-19,-14,-5,-4,-2
-22,-3,18,12,-20,8,-7,-18,-14,-5,-5,-3
-22,-3,18,12,-20,8,-6,-17,-14,-6,-5,-3
-22,-2,19,12,-20,8,-5,-16,-14,-6,-5,-3
-20,-1,19,11,-19,9,-4,-15,-13,-5,-5,-3
-16,1,18,8,-17,9,-4,-14,-12,-5,-4,-3
-14,2,17,7,-15,9,-3,-14,-12,-5,-4,-3
-13,1,16,7,-15,9,-3,-14,-12,-5,-4,-3
-14,0,15,7,-15,8,-3,-13,-11,-5,-4,-3
-16,0,15,8,-15,8,-3,-12,-11,-4,-4,-3
-16,0,15,8,-15,7,-3,-12,-11,-4,-4,-4
-17,-1,15,8,-15,7,-3,-12,-11,-5,-5,-4
-16,-1,15,8,-15,7,-3,-12,-11,-5,-5,-4
-15,0,15,8,-15,7,-3,-12,-11,-5,-5,-4
-14,0,15,8,-15,7,-3,-12,-11,-4,-4,-4
-15,-1,15,9,-15,6,-3,-12,-11,-4,-4,-4
-15,-2,14,9,-15,6,-3,-12,-11,-4,-4,-4
-14,0,13,8,-13,6,-3,-12,-11,-4,-4,-4
-13,0,13,6,-12,7,-3,-11,-10,-4,-4,-3
-13,1,13,6,-12,7,-2,-10,-10,-4,-4,-3
-13,1,13,6,-13,7,-2,-9,-10,-4,-4,-3
-14,0,14,7,-14,7,-1,-9,-9,-4,-4,-3
-15,0,15,8,-15,7,0,-8,-10,-4,-4,-3
-15,-1,14,9,-15,6,0,-8,-10,-4,-4,-4
-15,-1,14,9,-14,6,0,-7,-10,-5,-5,-4
-15,-1,14,9,-14,6,1,-7,-10,-5,-5,-4
-17,-2,14,9,-15,6,1,-8,-11,-6,-5,-5
-18,-3,14,10,-15,6,1,-8,-11,-6,-6,-5
-17,-4,13,11,-15,5,1,-8,-12,-7,-6,-6
-15,-3,11,10,-14,4,1,-8,-12,-7,-6,-6
-12,-2,10,8,-12,3,1,-8,-12,-7,-6,-5
-10,-2,9,7,-10,3,1,-7,-11,-7,-6,-5
-10,-1,9,7,-10,4,2,-6,-11,-7,-6,-5
-11,-1,10,6,-11,5,3,-5,-11,-6,-6,-5
-11,-1,10,6,-10,5,3,-5,-11,-6,-6,-5
-11,-1,10,6,-10,4,3,-5,-11,-6,-6,-5
-12,-2,10,7,-10,4,3,-3,-10,-6,-6,-5
-13,-2,10,8,-11,4,3,-2,-10,-6,-6,-5
-13,-3,10,8,-11,4,4,-1,-10,-6,-6,-5
-13,-3,10,9,-11,3,4,0,-10,-6,-6,-5
-14,-4,10,10,-12,3,4,2,-10,-6,-6,-5
-14,-4,11,10,-12,4,5,4,-9,-6,-6,-5
-13,-3,10,8,-11,4,5,6,-9,-6,-6,-5
-13,-4,9,7,-10,3,6,8,-9,-6,-6,-5
-12,-4,8,7,-9,2,6,9,-9,-6,-6,-5
-11,-4,7,6,-8,2,6,11,-9,-6,-6,-5
-10,-3,6,6,-8,2,6,13,-8,-6,-6,-5
-9,-3,6,6,-8,2,7,15,-8,-6,-6,-5
-7,-3,4,5,-6,1,7,17,-8,-6,-7,-6
-5,-3,2,4,-4,1,8,18,-8,-7,-7,-6
-5,-3,1,4,-3,0,8,18,-9,-7,-8,-7
-6,-4,1,5,-3,0,9,19,-9,-8,-8,-8
-7,-5,1,5,-4,0,10,21,-8,-8,-8,-8
-6,-5,0,5,-3,-1,11,23,-8,-8,-9,-8
-4,-5,-1,4,-1,-2,11,25,-8,-9,-9,-9
-1,-5,-3,3,0,-3,11,26,-8,-9,-9,-9
-1,-6,-4,4,1,-5,11,27,-8,-10,-9,-9
0,-8,-6,5,2,-6,10,28,-9,-10,-10,-10
0,-8,-8,4,4,-7,10,29,-9,-11,-10,-10
2,-7,-9,3,6,-8,11,30,-9,-11,-10,-11
3,-7,-11,2,7,-9,11,32,-9,-11,-10,-11
4,-8,-12,2,8,-10,11,33,-9,-11,-11,-12
4,-10,-14,2,8,-11,11,34,-9,-12,-12,-13
2,-12,-14,4,7,-12,11,35,-9,-13,-13,-13
1,-13,-14,6,7,-13,12,37,-9,-13,-13,-14
2,-14,-15,6,8,-14,12,38,-9,-13,-14,-14
3,-14,-16,6,10,-14,13,40,-9,-13,-14,-15
4,-14,-18,5,11,-15,13,41,-9,-14,-14,-15
5,-14,-19,4,13,-16,14,42,-9,-14,-14,-15
7,-14,-21,2,15,-17,14,42,-9,-14,-14,-16
10,-14,-23,1,16,-18,14,43,-8,-14,-15,-16
11,-14,-25,1,17,-19,13,43,-8,-14,-15,-17
11,-16,-26,2,18,-20,13,44,-8,-15,-16,-18
11,-17,-27,3,19,-22,13,44,-9,-16,-16,-18
11,-17,-28,3,20,-22,13,45,-8,-16,-16,-18
12,-16,-28,2,20,-22,13,45,-8,-16,-16,-18
12,-16,-29,2,21,-22,13,45,-8,-16,-16,-18
11,-17,-29,2,21,-23,12,45,-8,-16,-17,-19
10,-18,-29,3,20,-24,12,45,-8,-17,-17,-19
10,-18,-29,3,20,-23,12,45,-8,-16,-17,-19
11,-17,-29,2,21,-23,12,45,-7,-16,-16,-18
13,-16,-30,1,21,-23,12,45,-7,-16,-16,-18
15,-15,-30,0,22,-22,12,45,-7,-15,-15,-17
15,-14,-29,0,22,-21,11,45,-6,-14,-14,-16
15,-13,-28,0,21,-20,11,44,-5,-13,-13,-16
13,-13,-27,0,20,-20,10,43,-4,-13,-12,-15
12,-14,-26,0,19,-20,10,42,-4,-12,-12,-15
10,-14,-25,1,18,-20,9,41,-3,-12,-12,-15
9,-15,-24,2,17,-19,8,40,-3,-12,-12,-14
7,-15,-22,3,15,-19,7,38,-3,-11,-12,-14
7,-14,-21,3,14,-17,7,37,-2,-11,-12,-14
7,-13,-20,2,14,-16,7,36,-1,-10,-11,-13
7,-12,-19,2,13,-15,6,34,-1,-9,-10,-12
5,-11,-17,3,11,-14,5,33,0,-8,-9,-11
4,-11,-15,3,10,-13,5,31,0,-7,-8,-10
4,-10,-14,3,9,-12,4,30,1,-6,-7,-9
2,-11,-13,4,8,-11,3,28,1,-6,-7,-9
0,-12,-12,6,6,-11,2,27,1,-6,-7,-9
-2,-12,-10,7,4,-11,2,27,1,-6,-7,-9
-4,-12,-9,8,2,-10,1,26,1,-6,-7,-8
-4,-11,-8,8,2,-9,1,25,2,-5,-6,-8
-3,-10,-7,6,3,-8,0,24,2,-5,-6,-7
-3,-9,-6,6,2,-8,0,23,2,-4,-6,-7
-3,-8,-5,5,2,-7,0,22,2,-4,-5,-6
-2,-7,-5,4,2,-7,0,21,2,-3,-5,-6
-1,-6,-4,3,2,-5,0,20,3,-2,-4,-5
0,-4,-3,2,2,-4,-1,19,3,-1,-3,-5
-1,-4,-3,2,1,-3,-1,18,3,-1,-3,-4
-1,-4,-3,3,0,-3,-2,16,3,-1,-3,-5
-2,-5,-3,3,0,-3,-3,15,2,-2,-3,-5
-2,-5,-2,3,0,-3,-3,15,2,-1,-3,-5
-3,-4,-1,3,-1,-1,-3,15,3,0,-2,-3
-3,-3,0,3,-2,-1,-2,15,4,0,-1,-3
-4,-3,1,4,-2,-1,-3,15,4,0,-1,-3
-4,-3,1,4,-2,-1,-3,15,4,0,-1,-3
-4,-4,1,4,-2,-1,-3,14,3,0,-1,-3
-5,-4,0,4,-2,-1,-4,14,3,-1,-2,-3
-6,-5,0,5,-3,-1,-5,13,2,-1,-2,-3
-8,-7,1,7,-4,-1,-6,12,2,-1,-2,-2
-10,-7,2,8,-5,-1,-7,12,2,-1,-1,-2
-9,-7,2,8,-5,-1,-7,12,2,0,-1,-2
-8,-6,2,7,-4,-1,-7,12,2,0,-1,-2
-5,-4,2,5,-3,0,-6,12,3,0,-1,-1
-2,-1,2,2,-1,0,-6,12,4,1,0,0
0,0,2,0,0,1,-6,12,4,1,0,0
0,1,2,-1,0,1,-6,11,4,1,0,0
0,1,2,-1,-1,2,-6,11,4,1,1,1
-1,1,2,-1,-1,2,-6,11,4,1,1,1
-2,1,3,0,-2,2,-6,11,4,1,1,1
-2,0,3,0,-2,2,-7,12,4,1,1,1
-2,0,3,1,-2,2,-7,12,4,1,1,1
-3,0,4,1,-2,2,-7,12,4,1,1,1
-5,0,4,3,-4,2,-7,12,4,1,1,0
-6,-1,4,4,-4,1,-8,12,3,0,0,0
-6,-1,4,4,-4,1,-8,12,3,0,0,0
-5,-1,4,3,-4,1,-8,12,3,0,0,0
-5,-1,4,3,-4,1,-8,12,3,0,0,0
-5,-1,4,4,-4,1,-8,11,3,0,0,0
-6,-2,4,5,-5,0,-8,11,3,0,0,0
-6,-4,3,5,-4,0,-8,10,2,-1,0,0
-6,-4,3,5,-4,0,-8,10,2,-1,0,0
-6,-4,3,5,-4,0,-8,10,3,0,0,0
-6,-4,3,5,-5,0,-8,10,3,0,0,0
-6,-4,3,5,-5,0,-8,11,3,0,-1,-1
-5,-3,2,5,-4,0,-8,11,3,0,-1,-1
-5,-3,2,4,-3,0,-8,11,3,0,-1,-1
-5,-3,3,5,-4,0,-8,11,3,0,-1,-1
-5,-3,3,4,-4,0,-8,12,3,0,-1,-1
-4,-2,3,3,-4,0,-8,12,3,0,-1,-1
-5,-3,4,4,-5,0,-8,12,3,0,0,-1
-7,-3,4,5,-6,0,-8,12,3,0,0,0
-7,-3,3,5,-5,0,-8,12,3,0,0,0
-5,-3,2,4,-3,0,-8,12,2,-1,-1,0
-5,-3,1,4,-2,0,-9,11,2,-1,-1,0
-5,-3,2,4,-2,0,-9,11,2,-1,-1,0
-6,-3,2,4,-3,0,-9,11,2,-1,0,0
-6,-3,3,4,-3,0,-9,11,2,-1,0,0
-6,-3,3,5,-4,0,-8,11,2,0,0,0
-5,-2,3,5,-4,0,-8,12,2,0,0,0
-5,-2,3,4,-4,1,-7,13,3,0,0,0
-5,-1,3,3,-4,1,-7,13,3,1,0,0
-5,-1,4,3,-4,2,-6,14,3,1,0,0
-5,-1,4,3,-4,2,-6,13,3,1,0,0
-6,-2,3,4,-4,1,-7,12,3,0,0,0
-6,-4,3,5,-4,0,-8,12,2,-1,-1,-1
-7,-5,2,6,-4,-1,-9,11,1,-1,-2,-2
-9,-6,2,8,-5,-2,-9,11,1,-2,-2,-2
-10,-7,2,8,-6,-2,-9,12,1,-2,-2,-2
-8,-6,2,7,-5,-2,-9,12,1,-1,-2,-2
-6,-4,1,5,-3,-1,-8,12,2,-1,-1,-1
