leadI,leadII,leadIII,leadaVR,leadaVL,leadaVF,leadV1,leadV2,leadV3,leadV4,leadV5,leadV6
2,0,-2,-1,2,-1,0,1,-1,0,0,0
5,0,-5,-2,5,-2,0,2,-3,0,0,-1
5,-1,-6,-2,6,-3,0,3,-4,0,0,-2
4,-2,-7,-1,6,-4,0,4,-5,0,-1,-3
4,-3,-8,0,6,-5,-1,4,-5,0,-1,-4
4,-3,-8,0,6,-6,-1,3,-6,0,-2,-5
6,-3,-10,-1,8,-7,-2,2,-8,0,-3,-6
7,-3,-11,-2,9,-7,-3,2,-9,-1,-4,-6
6,-3,-9,-1,8,-6,-2,2,-9,-1,-4,-6
4,-3,-6,-1,6,-5,-1,3,-8,-1,-3,-6
4,-2,-6,-1,6,-4,0,3,-8,-1,-3,-5
5,-1,-6,-2,6,-3,1,4,-8,-1,-3,-5
6,-1,-7,-2,7,-4,1,4,-8,-1,-3,-6
7,-1,-8,-2,8,-5,1,4,-9,-2,-4,-6
7,-1,-9,-2,8,-5,1,3,-9,-2,-5,-6
5,-3,-9,-1,7,-6,1,3,-10,-3,-6,-7
3,-4,-8,0,6,-6,1,2,-11,-3,-6,-7
3,-4,-8,0,6,-6,0,1,-11,-4,-6,-7
3,-4,-8,0,6,-6,0,0,-12,-4,-6,-7
4,-3,-8,-1,7,-6,0,0,-12,-4,-7,-8
5,-3,-8,-2,7,-5,0,-1,-12,-4,-7,-8
5,-2,-8,-2,7,-5,1,-1,-12,-4,-6,-8
6,-1,-7,-2,7,-4,1,0,-12,-4,-6,-7
7,0,-6,-3,7,-3,2,0,-11,-4,-5,-7
5,0,-6,-2,6,-3,1,0,-12,-3,-5,-7
2,-3,-6,1,5,-5,0,-2,-13,-4,-6,-8
2,-5,-7,2,5,-7,0,-3,-14,-6,-7,-9
4,-5,-8,1,7,-7,-1,-4,-15,-6,-8,-10
5,-5,-9,0,8,-8,-1,-5,-15,-7,-8,-10
6,-4,-9,-1,8,-7,-1,-5,-15,-6,-8,-9
8,-2,-9,-3,9,-6,-1,-5,-15,-6,-7,-9
10,0,-9,-5,10,-5,-1,-5,-15,-5,-7,-8
11,2,-10,-6,11,-4,-1,-5,-15,-5,-6,-8
11,2,-10,-6,11,-4,-1,-5,-15,-5,-6,-7
8,0,-9,-4,9,-4,-1,-5,-15,-5,-6,-7
4,-3,-8,0,7,-5,-2,-6,-15,-5,-7,-8
2,-5,-8,1,6,-6,-3,-7,-16,-5,-7,-8
2,-6,-8,2,6,-7,-4,-7,-16,-5,-7,-8
3,-5,-8,1,6,-7,-4,-7,-16,-5,-7,-8
4,-4,-8,0,7,-7,-4,-7,-16,-5,-7,-7
5,-3,-8,0,7,-7,-4,-7,-15,-4,-6,-7
4,-3,-8,0,6,-7,-4,-7,-16,-5,-6,-7
4,-4,-8,0,7,-7,-4,-7,-17,-5,-6,-8
4,-4,-8,0,7,-6,-3,-6,-16,-4,-5,-7
4,-2,-6,0,6,-4,-2,-5,-14,-3,-4,-6
5,-1,-5,-1,6,-3,-1,-4,-13,-1,-3,-5
6,0,-5,-3,7,-3,0,-3,-12,0,-2,-5
8,2,-5,-5,7,-2,0,-3,-11,0,-2,-4
9,3,-6,-6,8,-2,0,-2,-10,0,-1,-4
11,5,-6,-7,8,-1,0,-2,-10,1,-1,-3
11,6,-5,-8,8,0,0,-1,-9,2,0,-1
10,6,-4,-8,7,1,1,0,-7,3,1,0
10,7,-3,-8,7,1,2,1,-6,4,2,0
11,7,-4,-9,8,1,2,1,-6,5,2,0
12,7,-5,-10,9,1,2,1,-7,4,2,0
12,6,-6,-10,9,0,1,0,-8,3,1,0
13,6,-6,-10,9,0,0,0,-8,3,0,0
13,7,-6,-10,9,0,0,0,-7,3,0,0
14,8,-5,-11,10,0,1,0,-7,4,1,1
15,10,-5,-12,10,2,1,1,-6,5,3,2
15,11,-4,-13,10,3,1,1,-5,6,4,3
14,10,-4,-12,10,3,0,1,-5,6,4,4
12,8,-4,-10,9,2,-2,0,-6,5,4,4
10,6,-4,-8,7,1,-3,-1,-6,5,4,4
9,6,-3,-7,6,1,-4,-1,-6,5,4,4
10,7,-2,-8,6,2,-4,-1,-5,5,4,5
12,9,-2,-11,7,3,-5,-1,-4,7,4,5
15,12,-3,-14,9,4,-5,-1,-3,8,4,6
18,13,-3,-16,11,4,-6,-1,-3,9,5,7
17,13,-3,-15,10,4,-7,-1,-3,9,5,7
13,11,-1,-12,8,4,-8,-2,-3,9,5,8
9,10,1,-9,5,5,-9,-2,-4,10,5,8
7,10,2,-8,3,6,-10,-3,-4,10,6,9
8,10,2,-9,3,6,-11,-3,-4,9,6,9
9,11,1,-10,4,6,-11,-4,-4,9,5,8
9,10,0,-9,5,4,-12,-5,-4,8,5,8
8,7,0,-7,5,3,-13,-6,-6,7,4,7
9,7,-2,-8,6,2,-13,-6,-6,7,4,7
11,7,-3,-9,8,1,-13,-7,-7,6,3,7
12,7,-4,-10,9,1,-13,-7,-7,6,3,7
12,7,-4,-9,9,1,-13,-7,-8,5,2,7
9,6,-3,-7,7,1,-12,-7,-9,4,2,7
7,5,-2,-6,5,1,-12,-6,-9,4,2,7
7,5,-3,-5,5,0,-11,-6,-9,4,2,7
7,4,-4,-5,6,0,-11,-6,-9,4,2,7
8,3,-5,-6,7,-1,-10,-6,-9,4,2,7
9,2,-6,-6,8,-2,-10,-6,-10,4,1,7
8,1,-6,-5,8,-2,-10,-6,-10,4,1,7
7,0,-6,-3,7,-3,-10,-6,-9,4,0,6
6,0,-6,-2,6,-3,-9,-6,-9,4,0,6
5,-1,-6,-1,5,-4,-9,-6,-8,4,0,5
3,-3,-6,0,4,-5,-9,-6,-8,3,-1,5
2,-4,-6,1,4,-6,-9,-7,-9,3,-1,4
2,-4,-6,1,5,-6,-9,-7,-10,2,-1,4
2,-5,-6,2,5,-6,-9,-7,-10,1,-2,3
1,-5,-6,2,5,-6,-8,-7,-10,1,-2,2
2,-5,-7,2,5,-6,-8,-7,-10,1,-2,2
3,-4,-8,1,6,-6,-8,-7,-10,2,-2,1
3,-5,-9,1,6,-7,-8,-7,-10,2,-3,1
3,-5,-9,1,6,-7,-8,-7,-10,2,-3,1
2,-5,-9,2,6,-7,-7,-7,-9,3,-2,1
1,-6,-7,3,4,-7,-7,-6,-9,4,-2,2
0,-7,-6,4,3,-7,-7,-7,-9,3,-2,2
-1,-8,-6,5,3,-7,-7,-7,-11,2,-2,1
-2,-9,-6,5,2,-8,-7,-7,-11,1,-3,1
-1,-9,-7,5,3,-8,-7,-7,-11,1,-3,1
0,-8,-8,4,4,-8,-7,-7,-11,1,-3,1
0,-8,-9,3,5,-8,-6,-7,-11,1,-3,0
2,-6,-9,1,6,-8,-6,-7,-9,2,-3,0
6,-4,-10,-1,8,-7,-5,-6,-9,3,-3,0
8,-2,-10,-3,9,-7,-5,-6,-9,3,-3,-1
6,-2,-8,-1,7,-6,-5,-6,-10,3,-3,-1
2,-5,-7,2,4,-7,-5,-7,-11,2,-3,-2
0,-6,-6,4,3,-7,-5,-7,-11,2,-3,-2
-1,-7,-6,4,3,-7,-5,-7,-11,2,-3,-2
0,-8,-7,4,3,-8,-5,-7,-11,1,-3,-3
0,-9,-8,5,4,-9,-6,-8,-12,1,-4,-3
0,-9,-8,5,4,-10,-6,-8,-11,1,-5,-4
0,-8,-9,4,5,-10,-6,-8,-11,1,-5,-4
2,-7,-9,3,6,-9,-6,-8,-10,1,-4,-4
2,-6,-9,1,6,-8,-6,-7,-10,2,-4,-4
1,-5,-7,1,5,-7,-6,-7,-9,3,-3,-3
0,-5,-6,2,3,-6,-5,-6,-9,4,-2,-3
0,-5,-5,2,3,-6,-5,-6,-9,4,-2,-3
0,-5,-6,2,3,-6,-5,-6,-9,4,-2,-3
1,-6,-7,3,4,-7,-5,-7,-9,3,-2,-4
0,-7,-7,4,4,-8,-5,-7,-9,3,-3,-5
0,-8,-7,4,4,-9,-5,-7,-10,2,-3,-6
0,-7,-7,3,5,-8,-4,-7,-10,2,-4,-6
2,-5,-8,2,6,-8,-4,-6,-10,1,-4,-7
5,-4,-9,0,7,-8,-3,-5,-11,1,-5,-7
8,-4,-12,-2,10,-8,-2,-4,-12,0,-5,-8
8,-5,-14,-1,11,-10,-1,-2,-12,-1,-6,-9
5,-9,-15,2,10,-12,-1,-1,-13,-2,-7,-10
4,-10,-15,3,10,-13,0,1,-12,-2,-7,-10
4,-10,-16,3,10,-14,0,3,-10,0,-5,-9
6,-9,-16,1,11,-13,0,5,-7,2,-3,-7
10,-6,-17,-1,13,-12,-1,7,-2,6,0,-4
14,-1,-16,-6,15,-9,-3,8,3,12,4,-1
18,3,-16,-10,16,-7,-7,7,10,18,11,4
23,7,-16,-15,19,-4,-13,4,16,26,18,9
28,12,-16,-20,21,-1,-19,0,22,34,25,15
33,18,-15,-25,24,2,-28,-9,28,42,34,22
40,27,-13,-33,27,7,-40,-19,34,51,44,32
49,39,-11,-44,31,14,-53,-30,40,61,56,43
58,52,-6,-54,32,22,-67,-42,47,72,69,55
65,64,-1,-64,33,31,-80,-52,56,84,83,68
72,77,4,-75,34,40,-93,-62,65,96,97,80
78,89,11,-83,33,50,-107,-72,72,107,110,92
78,99,21,-89,29,60,-121,-83,78,116,121,103
77,109,32,-93,22,71,-134,-94,83,125,132,114
74,122,47,-98,14,84,-147,-102,92,137,144,126
68,134,66,-101,2,99,-160,-110,104,151,157,139
58,143,84,-100,-13,112,-170,-114,117,165,169,149
45,146,101,-95,-27,122,-173,-113,130,177,176,155
31,144,113,-87,-40,127,-169,-107,141,185,178,156
17,136,118,-77,-50,126,-162,-100,147,186,172,150
6,122,116,-64,-54,118,-151,-90,146,179,159,138
-2,106,109,-52,-55,107,-137,-76,141,166,141,121
-9,89,98,-40,-53,93,-121,-62,130,146,117,100
-14,72,87,-29,-50,79,-106,-54,110,121,91,78
-19,55,75,-18,-47,65,-92,-53,85,92,63,54
-24,40,66,-8,-45,52,-79,-55,58,65,39,34
-28,29,58,0,-43,43,-68,-57,35,42,20,18
-30,20,50,5,-40,35,-59,-58,14,23,6,7
-30,11,42,9,-36,26,-51,-59,-4,6,-4,-2
-29,4,33,12,-30,18,-44,-58,-18,-6,-12,-8
-27,-2,25,14,-25,11,-37,-55,-27,-14,-17,-13
-24,-6,18,15,-20,6,-32,-51,-33,-19,-20,-16
-22,-8,13,15,-17,2,-27,-46,-35,-22,-22,-18
-21,-11,10,16,-15,-1,-22,-41,-36,-23,-23,-20
-19,-12,7,16,-13,-3,-18,-36,-36,-24,-24,-21
-16,-13,4,14,-10,-5,-14,-31,-34,-24,-24,-20
-15,-13,2,14,-9,-6,-10,-26,-31,-22,-22,-19
-13,-13,0,13,-6,-7,-7,-21,-29,-20,-21,-18
-9,-13,-4,11,-2,-9,-4,-17,-27,-19,-20,-17
-6,-13,-7,9,1,-11,-2,-14,-25,-17,-20,-17
-6,-15,-9,10,2,-12,0,-12,-23,-17,-20,-18
-9,-18,-9,13,0,-14,1,-10,-23,-16,-20,-18
-10,-20,-9,15,0,-15,2,-9,-23,-16,-20,-19
-11,-21,-9,16,0,-15,2,-8,-23,-16,-20,-19
-11,-21,-9,16,0,-16,2,-8,-23,-17,-20,-19
-10,-21,-9,16,0,-16,2,-7,-23,-17,-20,-19
-10,-20,-10,15,0,-16,3,-6,-23,-17,-20,-19
-9,-19,-11,14,1,-16,3,-5,-22,-16,-19,-18
-8,-19,-11,13,2,-16,3,-5,-21,-15,-19,-18
-8,-19,-11,14,1,-16,4,-4,-20,-15,-19,-18
-9,-19,-10,14,1,-16,4,-4,-20,-15,-19,-18
-9,-20,-10,15,0,-15,4,-3,-21,-16,-19,-18
-10,-20,-10,15,0,-15,4,-3,-21,-17,-19,-18
-10,-20,-10,15,0,-15,4,-3,-20,-17,-19,-17
-10,-20,-10,15,1,-16,4,-3,-20,-17,-19,-18
-9,-20,-11,15,1,-16,4,-3,-20,-17,-20,-18
-9,-20,-11,15,2,-17,4,-4,-20,-17,-20,-19
-9,-20,-11,15,2,-16,4,-4,-20,-17,-20,-19
-8,-19,-11,14,2,-16,5,-3,-20,-17,-20,-18
-6,-18,-11,12,3,-15,5,-3,-20,-17,-19,-17
-6,-18,-11,12,3,-15,5,-3,-19,-17,-19,-17
-7,-19,-11,12,2,-16,5,-3,-19,-17,-19,-18
-7,-20,-12,13,2,-16,4,-3,-19,-17,-19,-18
-8,-21,-13,15,2,-17,4,-4,-20,-18,-20,-19
-9,-22,-14,16,3,-18,4,-4,-20,-18,-20,-19
-9,-22,-14,15,3,-19,4,-4,-20,-18,-20,-20
-9,-21,-13,15,2,-18,5,-4,-19,-17,-20,-19
-10,-20,-10,15,0,-16,6,-2,-17,-16,-19,-18
-10,-19,-9,15,0,-15,7,-1,-17,-15,-19,-17
-10,-19,-9,14,0,-15,8,-1,-18,-17,-19,-17
-11,-20,-9,15,0,-15,8,-1,-19,-18,-20,-17
-12,-21,-8,17,-1,-15,8,-1,-19,-18,-20,-17
-12,-20,-8,17,-1,-15,9,-1,-19,-18,-19,-16
-10,-19,-9,16,0,-15,10,-1,-19,-19,-20,-16
-9,-19,-11,15,0,-16,9,-1,-19,-19,-20,-17
-9,-20,-11,15,1,-16,8,-2,-20,-19,-21,-17
-9,-21,-12,15,1,-17,7,-2,-21,-20,-21,-18
-9,-21,-12,15,2,-17,7,-2,-22,-20,-22,-19
-9,-21,-11,15,1,-17,7,-2,-22,-21,-22,-19
-9,-21,-11,15,1,-16,7,-2,-23,-21,-22,-19
-10,-21,-11,16,0,-16,7,-2,-23,-21,-22,-19
-10,-21,-11,16,1,-17,7,-2,-23,-20,-23,-20
-10,-22,-12,16,1,-17,7,-2,-22,-19,-23,-20
-10,-22,-12,16,1,-17,8,-1,-21,-18,-22,-20
-9,-21,-12,15,1,-17,9,0,-21,-19,-22,-20
-9,-22,-12,15,1,-17,9,0,-22,-20,-23,-21
-10,-23,-12,17,1,-18,9,-1,-22,-20,-23,-21
-11,-23,-11,18,0,-18,9,-1,-21,-20,-23,-21
-11,-22,-11,17,0,-17,10,0,-20,-19,-23,-21
-10,-21,-11,16,1,-16,10,0,-20,-19,-23,-21
-10,-21,-11,15,1,-16,10,0,-20,-19,-23,-21
-10,-21,-12,15,1,-17,10,0,-21,-20,-24,-22
-9,-21,-13,15,2,-17,11,0,-21,-20,-24,-22
-8,-21,-13,14,3,-18,11,0,-21,-20,-24,-22
-8,-22,-14,15,3,-18,12,0,-21,-20,-24,-23
-10,-22,-13,16,2,-18,12,0,-21,-20,-24,-23
-11,-22,-12,17,0,-17,13,1,-20,-20,-24,-23
-13,-22,-10,18,-1,-16,13,1,-20,-19,-24,-23
-13,-22,-9,18,-2,-16,13,1,-21,-19,-24,-24
-14,-23,-10,18,-2,-17,12,1,-21,-20,-25,-25
-14,-24,-10,18,-2,-18,12,1,-21,-20,-25,-26
-13,-25,-11,18,-1,-19,12,1,-21,-20,-26,-27
-11,-24,-12,17,0,-18,12,2,-21,-20,-26,-27
-9,-22,-13,16,1,-17,13,3,-20,-20,-26,-27
-9,-22,-12,16,1,-17,13,4,-20,-20,-26,-27
-11,-22,-12,17,0,-17,13,5,-21,-21,-26,-27
-11,-23,-12,18,0,-17,13,5,-22,-22,-27,-27
-10,-23,-12,17,0,-17,13,6,-22,-22,-27,-27
-10,-23,-13,16,1,-18,13,7,-20,-21,-26,-27
-10,-23,-12,17,0,-18,13,7,-19,-20,-26,-27
-11,-23,-11,17,0,-17,13,7,-19,-20,-26,-27
-11,-22,-11,17,0,-17,13,7,-19,-20,-26,-27
-10,-22,-11,16,0,-16,13,8,-19,-20,-26,-27
-10,-22,-11,17,0,-16,13,8,-19,-20,-26,-28
-11,-23,-11,17,0,-17,12,8,-19,-21,-26,-28
-10,-22,-12,16,1,-17,12,9,-18,-21,-26,-28
-10,-21,-11,15,0,-16,13,10,-17,-20,-25,-27
-9,-20,-11,15,0,-16,14,12,-17,-20,-24,-26
-7,-20,-12,14,2,-16,14,13,-16,-19,-24,-25
-5,-18,-13,12,4,-16,14,14,-15,-17,-23,-24
-2,-15,-13,9,5,-15,15,15,-12,-15,-21,-23
0,-13,-13,7,6,-13,15,16,-10,-13,-20,-21
0,-12,-13,6,6,-12,15,16,-9,-12,-19,-21
-2,-13,-11,8,4,-12,13,16,-8,-11,-18,-20
-5,-15,-10,10,2,-12,12,16,-8,-10,-17,-20
-6,-15,-9,10,1,-12,11,16,-9,-11,-17,-20
-6,-14,-8,10,1,-11,11,16,-9,-11,-16,-19
-5,-14,-8,9,1,-11,11,17,-8,-11,-15,-18
-6,-14,-7,10,0,-11,11,17,-8,-11,-14,-17
-5,-14,-8,10,0,-11,10,17,-8,-10,-14,-16
-3,-13,-9,8,2,-11,9,17,-8,-9,-13,-16
0,-11,-10,5,5,-10,9,17,-8,-9,-12,-16
3,-9,-10,3,6,-9,8,17,-7,-9,-11,-15
3,-7,-9,2,6,-8,8,17,-6,-7,-9,-13
1,-7,-8,3,4,-7,8,17,-3,-5,-8,-12
0,-6,-7,3,4,-7,7,18,-1,-2,-7,-11
1,-6,-7,3,4,-6,7,18,0,0,-6,-10
1,-5,-7,3,4,-6,7,18,0,0,-5,-9
1,-5,-7,2,5,-6,7,18,-1,-1,-4,-9
3,-4,-7,1,5,-6,7,19,-2,-1,-4,-8
4,-2,-6,-1,6,-4,8,19,-1,-1,-3,-7
7,1,-6,-4,6,-3,8,20,0,-1,-1,-5
8,2,-6,-5,7,-2,8,20,0,0,0,-4
6,0,-7,-4,6,-3,7,19,1,0,0,-4
4,-2,-6,-2,5,-4,5,18,1,1,0,-5
3,-1,-5,-1,5,-3,5,17,2,3,0,-4
4,0,-5,-2,5,-2,5,18,2,4,1,-4
6,1,-5,-3,6,-2,5,18,2,4,1,-3
7,1,-6,-4,7,-2,5,18,2,4,1,-3
8,0,-8,-4,8,-3,5,18,2,4,1,-3
10,1,-9,-6,9,-4,4,17,2,4,1,-3
11,2,-9,-7,10,-3,4,17,3,4,2,-2
12,4,-8,-7,9,-2,4,18,3,5,3,-1
12,5,-7,-8,9,-1,5,18,4,5,4,0
12,5,-7,-8,9,0,5,18,5,6,5,0
11,5,-6,-8,9,0,5,18,5,6,5,0
11,6,-4,-9,8,1,5,18,5,7,6,1
11,8,-3,-10,7,2,6,18,6,7,7,2
12,9,-3,-11,8,3,6,18,7,7,7,2
14,10,-4,-13,9,3,6,18,8,8,8,3
16,10,-5,-13,10,2,6,17,7,8,8,3
13,7,-5,-10,9,1,6,15,5,7,7,2
7,2,-5,-5,6,0,5,13,3,5,5,1
5,1,-4,-3,4,0,4,12,3,4,5,1
5,2,-3,-4,4,0,5,11,3,5,5,1
5,4,-2,-5,4,1,5,11,4,6,6,1
5,4,-1,-6,3,1,5,11,6,7,6,1
5,5,0,-6,3,2,4,11,6,8,7,1
5,5,0,-6,2,3,4,10,5,8,7,2
5,6,1,-7,2,4,4,9,4,6,7,2
6,7,1,-7,3,4,5,9,3,5,7,3
7,8,0,-8,3,5,6,10,4,6,7,3
8,8,0,-8,4,5,6,10,6,7,8,3
6,7,0,-6,3,4,6,10,7,7,7,3
5,5,0,-5,2,3,6,9,7,7,6,2
5,6,0,-5,2,3,7,9,6,6,6,2
5,7,1,-6,2,4,8,9,5,6,6,2
6,7,1,-6,2,4,8,9,5,6,6,2
6,6,0,-6,2,3,7,8,5,6,6,1
6,5,0,-5,2,3,7,7,5,6,6,1
5,5,0,-4,2,3,8,7,4,6,6,2
3,4,2,-3,0,3,9,8,5,6,6,2
1,3,2,-2,-1,3,9,8,5,7,6,2
1,2,1,-2,0,2,9,8,4,6,5,1
2,2,0,-2,0,1,9,8,4,5,4,0
2,2,0,-3,1,1,9,9,4,4,5,0
2,1,-1,-2,1,0,9,10,3,4,5,0
3,0,-2,-2,1,0,9,9,2,3,4,0
3,0,-2,-2,2,0,10,9,2,2,4,0
3,1,-2,-2,2,0,11,10,3,3,5,0
4,2,-1,-3,2,1,11,11,4,3,5,0
4,3,-1,-3,3,1,12,11,4,3,5,0
4,3,-1,-3,3,1,12,11,5,3,4,0
4,2,-2,-3,3,0,12,11,5,4,4,-1
4,1,-3,-3,3,0,12,11,5,4,3,-2
2,0,-2,-1,2,-1,12,11,4,3,3,-2
0,-1,-1,0,0,-1,13,11,4,2,3,-2
0,-1,-1,0,0,-1,13,12,6,3,3,-2
0,-1,-2,0,0,-1,13,12,7,5,3,-2
1,0,-2,0,1,-1,13,12,7,5,3,-2
1,0,-2,0,1,-1,13,12,6,4,2,-2
0,-1,-2,0,1,-1,14,12,3,1,2,-2
0,-2,-3,1,0,-2,14,11,1,-1,1,-3
-1,-3,-3,2,0,-2,15,12,2,-1,1,-3
0,-2,-2,1,1,-1,16,13,4,0,1,-3
0,-2,-2,1,1,-1,16,13,4,0,0,-4
-1,-3,-2,2,1,-2,16,12,4,0,-1,-6
-2,-4,-2,3,0,-3,16,12,3,0,-1,-7
-2,-4,-1,3,0,-2,17,12,2,0,-2,-7
-1,-2,-1,2,0,-1,17,12,2,-1,-2,-7
0,0,0,0,0,0,18,12,3,-1,-1,-6
0,1,1,-1,0,1,18,12,4,0,0,-6
0,2,1,-2,0,1,18,12,4,0,1,-6
1,2,1,-2,0,2,19,13,3,0,1,-5
0,1,1,-1,-1,1,19,13,1,-2,0,-6
-3,-2,0,2,-2,-1,19,12,0,-4,-1,-7
-6,-5,0,6,-3,-2,19,12,0,-5,-2,-7
-6,-6,0,6,-3,-3,19,12,0,-5,-2,-7
-4,-5,-1,5,-2,-3,19,11,1,-4,-2,-7
-4,-4,0,4,-2,-3,18,11,2,-3,-1,-7
-5,-4,1,5,-3,-2,18,10,2,-3,-1,-7
-5,-4,1,4,-3,-2,18,10,0,-4,-1,-8
-5,-5,0,5,-3,-3,18,8,-2,-7,-3,-9
-6,-6,0,6,-3,-3,17,7,-4,-9,-4,-9
-6,-7,0,7,-3,-4,17,6,-4,-9,-5,-9
-6,-6,0,6,-3,-4,17,6,-4,-9,-5,-9
-6,-6,0,6,-2,-3,17,6,-3,-9,-5,-9
-4,-5,0,5,-2,-3,17,6,-2,-8,-5,-9
-2,-3,0,3,-1,-1,17,6,-2,-8,-4,-9
-2,-1,1,1,-2,0,18,6,-3,-8,-3,-8
-1,0,1,1,-2,0,17,6,-4,-9,-3,-8
0,-1,0,0,-1,0,17,5,-5,-10,-4,-8
0,-1,0,0,0,-1,18,5,-5,-10,-3,-8
-1,-1,0,0,-1,0,19,5,-4,-9,-3,-7
-1,0,1,0,-1,1,19,5,-3,-9,-2,-7
-1,1,1,0,-1,1,19,5,-3,-8,-2,-7
0,2,2,-1,-1,2,19,5,-4,-9,-2,-6
-1,1,2,0,-2,2,19,5,-4,-9,-2,-6
-2,0,2,1,-2,1,18,5,-4,-9,-2,-6
0,1,2,0,-2,2,18,5,-3,-8,-1,-6
1,3,2,-2,0,3,18,5,-2,-7,0,-5
1,5,3,-3,-1,4,18,5,-1,-6,1,-4
0,6,5,-3,-3,6,18,5,-1,-5,2,-3
-1,5,6,-2,-4,6,18,4,-1,-6,2,-3
0,5,5,-2,-3,5,17,3,-2,-7,1,-3
0,7,5,-3,-3,6,17,4,-1,-6,2,-3
2,9,5,-5,-2,7,17,5,0,-4,4,-2
3,9,5,-6,-1,8,17,5,0,-4,4,-1
2,8,4,-5,-1,7,17,5,0,-4,4,-2
1,6,4,-4,-1,5,16,5,0,-5,3,-2
2,6,4,-4,-1,5,16,4,0,-6,3,-2
3,7,4,-5,0,5,16,4,-1,-7,4,-2
3,7,5,-5,-1,6,16,4,-1,-8,4,-1
1,8,7,-4,-3,7,15,5,0,-7,5,-1
0,9,8,-5,-3,8,15,5,2,-5,6,0
2,12,8,-7,-3,10,14,5,3,-3,6,1
5,14,8,-10,-1,11,14,6,4,-2,6,2
8,16,8,-12,0,12,14,6,5,-1,7,3
9,16,8,-12,0,12,12,5,5,-1,6,3
7,15,8,-11,0,11,11,4,4,-3,5,3
6,14,8,-10,0,11,11,4,3,-5,4,3
6,14,7,-10,0,11,10,4,2,-6,3,3
5,14,8,-10,-1,11,10,4,3,-5,4,3
5,14,9,-10,-2,12,9,3,4,-4,5,4
3,14,10,-9,-3,12,8,3,5,-3,6,4
1,14,12,-7,-5,13,8,3,5,-2,7,4
0,14,13,-7,-6,13,6,2,5,-2,8,4
1,14,13,-7,-6,13,5,1,5,-2,8,4
2,15,12,-8,-5,13,4,0,5,-2,9,4
5,15,10,-10,-2,13,3,0,4,-3,9,4
7,15,7,-11,0,12,3,0,4,-3,9,4
7,15,6,-11,1,11,4,0,4,-3,9,5
7,14,6,-11,0,11,4,0,4,-4,9,5
6,14,7,-10,0,11,5,0,4,-5,9,5
7,14,7,-11,0,11,5,0,4,-5,9,5
7,15,7,-11,0,11,5,0,5,-4,9,5
6,15,8,-10,-1,12,5,0,5,-3,9,5
2,12,9,-7,-3,11,5,0,5,-3,9,4
-2,9,10,-3,-6,11,5,0,6,-2,9,4
-3,7,10,-1,-7,10,5,0,5,-3,8,3
-2,7,10,-2,-6,10,5,0,3,-4,7,3
-1,7,9,-3,-5,9,6,0,2,-6,7,2
0,7,8,-3,-4,8,6,0,0,-7,6,1
1,7,7,-4,-2,7,7,0,0,-7,6,1
2,6,5,-4,-1,6,8,0,2,-6,7,1
0,4,5,-2,-2,5,8,0,3,-6,6,0
-3,1,4,0,-3,3,8,0,0,-9,4,-1
-4,0,3,2,-3,2,8,-1,-2,-12,2,-2
-4,-1,2,2,-3,1,8,-1,-3,-13,2,-2
-2,-1,1,2,-2,0,8,-1,-2,-13,2,-2
-1,-1,0,1,-1,0,8,-1,-1,-12,2,-2
0,-1,0,0,0,0,7,-1,0,-11,2,-3
1,0,1,0,0,1,8,-1,0,-11,2,-3
1,1,1,-1,0,1,9,-1,-1,-13,2,-3
1,0,0,0,0,1,9,-1,-2,-14,2,-3
0,0,0,0,0,0,9,-1,-1,-14,2,-2
0,0,0,0,0,1,9,0,0,-12,3,-1
0,1,1,0,0,1,10,0,0,-12,4,-1
0,1,2,-1,-1,2,10,0,-1,-12,4,-1
0,1,3,0,-1,2,10,0,-1,-12,4,-1
-1,0,3,0,-2,1,11,0,0,-11,4,-2
-2,-1,2,1,-2,1,11,0,0,-11,4,-2
-2,-1,2,1,-2,1,10,0,1,-10,4,-2
-1,0,2,1,-2,1,10,0,1,-11,4,-2
-1,1,2,0,-2,2,10,0,0,-11,4,-1
0,2,2,0,-2,3,9,0,0,-11,4,-1
0,2,2,-1,-1,3,9,-1,0,-11,4,-1
-1,0,1,0,-1,2,8,-2,0,-12,4,-2
-3,-2,1,3,-2,0,8,-2,-1,-13,3,-2
-3,-3,0,3,-2,-1,8,-2,-1,-13,2,-2
-3,-2,1,3,-2,0,9,-1,0,-13,3,-1
-3,-1,2,2,-3,1,10,-1,0,-13,3,-1
-3,0,2,2,-2,1,10,-1,0,-14,2,-1
-2,0,1,1,-2,1,11,0,1,-12,3,-1
-1,1,2,0,-2,2,11,0,3,-10,4,0
-2,2,4,0,-3,3,11,1,3,-10,5,0
-3,0,5,1,-4,2,10,0,1,-12,4,0
-4,-1,5,3,-4,1,10,0,0,-14,3,0
-3,0,4,2,-3,1,9,0,0,-15,2,0
-2,0,3,1,-2,1,9,0,0,-15,2,0
-3,-1,2,2,-2,0,9,0,0,-15,2,-1
-5,-3,1,4,-3,-1,10,0,0,-15,1,-2
-5,-4,1,5,-3,-1,10,0,0,-15,1,-3
-3,-4,0,4,-1,-2,11,0,0,-15,1,-3
-1,-5,-2,3,0,-3,12,1,-1,-16,0,-4
0,-5,-3,2,1,-4,13,3,-1,-16,0,-4
1,-3,-3,0,2,-3,15,6,1,-14,1,-3
3,-1,-4,-2,3,-2,17,10,5,-11,3,-3
5,1,-4,-3,4,-1,18,12,7,-9,4,-2
5,1,-4,-4,4,-1,17,14,10,-7,6,-1
6,2,-4,-4,5,-1,16,15,14,-3,8,0
8,4,-4,-6,6,0,13,16,19,1,13,3
12,9,-3,-10,8,3,9,15,25,7,18,8
19,14,-4,-16,12,5,4,13,31,14,25,14
27,20,-5,-23,16,7,-1,9,38,22,33,21
36,27,-7,-31,22,10,-9,3,43,29,42,29
45,36,-9,-40,27,13,-19,-5,49,38,52,38
53,45,-8,-49,30,18,-32,-15,57,48,64,49
57,53,-3,-55,30,25,-47,-26,64,60,77,60
58,61,3,-59,27,32,-63,-38,72,72,91,72
61,72,10,-66,25,41,-76,-48,80,85,105,85
68,86,19,-77,24,53,-88,-56,90,99,120,98
73,101,29,-87,22,66,-99,-64,99,111,133,111
74,115,42,-94,16,79,-110,-71,108,123,145,123
71,127,56,-99,7,92,-120,-77,117,134,156,134
67,139,72,-103,-2,105,-132,-84,128,147,167,145
60,147,87,-104,-14,117,-143,-89,141,161,178,154
49,149,101,-99,-26,125,-148,-90,154,174,186,161
35,147,112,-91,-38,130,-147,-86,164,182,188,161
21,138,118,-80,-48,129,-140,-80,166,180,181,154
8,125,118,-66,-54,122,-130,-71,164,169,166,141
-3,108,112,-53,-57,110,-116,-59,157,154,145,122
-12,90,103,-39,-57,97,-102,-49,145,133,120,100
-18,73,92,-27,-55,83,-89,-45,125,107,92,76
-23,58,82,-17,-53,70,-76,-46,100,79,64,52
-27,46,74,-10,-51,61,-63,-49,75,53,40,32
-29,38,68,-4,-49,54,-52,-51,51,31,23,17
-33,29,62,2,-48,46,-44,-55,28,10,8,5
-37,17,55,10,-46,36,-38,-58,6,-9,-3,-4
-38,7,46,15,-42,27,-32,-59,-10,-23,-12,-10
-35,3,39,16,-37,20,-25,-55,-19,-32,-17,-14
-32,0,32,16,-32,15,-17,-49,-23,-38,-20,-17
-29,-3,26,16,-27,11,-10,-42,-25,-41,-21,-19
-26,-5,21,16,-23,7,-5,-36,-25,-42,-22,-20
-22,-6,16,15,-20,5,0,-30,-24,-41,-22,-20
-20,-6,14,13,-17,4,3,-25,-22,-39,-20,-20
-18,-7,12,13,-16,3,5,-21,-19,-36,-19,-19
-17,-7,11,12,-14,2,8,-17,-17,-34,-17,-18
-17,-8,10,12,-13,0,11,-12,-13,-32,-16,-17
-18,-10,8,13,-13,-1,13,-9,-9,-29,-15,-16
-17,-11,6,14,-11,-2,15,-6,-8,-28,-15,-16
-14,-10,4,12,-9,-3,18,-4,-7,-27,-14,-16
-11,-8,3,10,-7,-3,20,-2,-7,-27,-14,-16
-10,-8,3,9,-6,-3,21,0,-7,-28,-13,-16
-11,-7,4,9,-8,-2,21,1,-7,-27,-12,-15
-10,-6,6,8,-9,0,22,2,-4,-25,-10,-13
-11,-6,7,8,-9,0,22,3,-1,-23,-10,-13
-15,-10,6,12,-10,-2,21,2,-2,-23,-12,-14
-18,-14,4,16,-11,-5,20,1,-5,-26,-14,-16
-20,-16,4,18,-12,-6,21,1,-7,-29,-15,-17
-21,-17,4,19,-13,-6,22,2,-7,-30,-15,-17
-21,-16,4,19,-13,-6,22,2,-7,-30,-14,-17
-19,-16,4,17,-12,-6,21,2,-6,-29,-14,-16
-18,-16,3,17,-11,-6,21,2,-5,-29,-13,-16
-19,-15,4,17,-12,-5,22,3,-5,-29,-12,-15
-20,-15,6,17,-13,-4,22,4,-3,-27,-12,-15
-20,-14,7,17,-14,-3,23,4,0,-24,-11,-14
-19,-12,7,15,-14,-2,24,5,1,-22,-10,-13
-18,-10,8,14,-13,-1,24,5,1,-21,-9,-12
-18,-11,7,15,-13,-2,24,5,0,-23,-9,-12
-17,-11,6,14,-12,-2,24,5,-1,-25,-10,-13
-15,-10,6,13,-11,-2,25,5,-1,-26,-10,-13
-14,-8,6,11,-11,-1,26,6,0,-25,-9,-12
-15,-8,7,11,-11,0,25,5,0,-25,-9,-12
-16,-9,7,13,-12,-1,24,4,0,-25,-10,-13
-18,-10,8,14,-13,-1,23,4,0,-24,-10,-13
-20,-11,9,15,-15,-1,23,4,1,-22,-10,-13
-22,-12,10,17,-16,-1,24,4,0,-23,-10,-13
-23,-13,10,18,-17,-1,24,4,-2,-26,-10,-13
-22,-13,10,17,-17,-1,25,5,-1,-27,-10,-13
-22,-12,11,17,-17,-1,25,6,0,-27,-9,-12
-23,-12,11,18,-17,-1,25,6,-1,-27,-9,-12
-25,-15,11,20,-18,-2,25,5,-3,-29,-10,-13
-25,-15,9,20,-17,-2,25,5,-4,-30,-12,-14
-24,-15,8,19,-16,-3,25,5,-3,-30,-12,-14
-23,-16,8,19,-16,-3,25,5,-3,-29,-12,-15
-22,-15,8,19,-16,-2,25,5,-3,-29,-12,-15
-20,-13,8,17,-15,-2,25,5,-2,-28,-12,-14
-19,-12,8,16,-15,-1,25,5,-1,-27,-11,-14
-19,-10,10,15,-15,0,26,6,0,-25,-10,-13
-19,-9,11,14,-16,1,27,7,2,-23,-9,-12
-21,-9,12,15,-17,2,28,8,3,-21,-9,-12
-22,-9,13,16,-18,2,28,8,2,-22,-9,-12
-22,-9,13,15,-17,2,28,7,0,-24,-10,-12
-22,-10,12,16,-17,2,28,7,-1,-26,-11,-13
-23,-11,12,17,-18,1,28,7,0,-25,-11,-13
-23,-12,12,17,-18,1,28,7,1,-24,-11,-13
-23,-12,12,17,-18,0,28,7,1,-23,-11,-13
-24,-12,12,18,-19,0,28,6,0,-23,-12,-14
-25,-13,12,19,-19,0,27,6,-1,-25,-13,-15
-26,-13,13,19,-19,0,28,7,-2,-26,-13,-15
-26,-13,13,19,-19,1,28,8,-2,-26,-13,-15
-26,-13,13,19,-19,0,29,8,-2,-26,-13,-15
-27,-14,14,20,-20,0,29,9,-2,-26,-13,-15
-29,-15,15,21,-22,0,29,9,-1,-27,-13,-15
-29,-14,16,21,-23,0,30,9,0,-26,-13,-15
-28,-13,16,20,-22,1,30,10,0,-25,-13,-15
-26,-12,15,19,-21,1,30,10,0,-25,-13,-15
-27,-11,15,20,-21,1,30,10,0,-24,-13,-15
-28,-11,17,20,-22,3,31,11,0,-24,-13,-15
-28,-9,18,19,-23,4,31,12,1,-23,-12,-14
-28,-9,18,19,-23,4,31,12,1,-23,-12,-14
-30,-12,18,21,-24,2,30,11,1,-23,-13,-16
-32,-15,18,23,-26,1,30,11,0,-24,-14,-17
-33,-15,18,24,-26,1,30,11,0,-25,-14,-17
-32,-14,18,23,-26,2,30,12,-1,-26,-14,-17
-31,-13,18,22,-24,2,31,13,0,-25,-14,-16
-30,-12,18,21,-24,2,31,14,1,-24,-14,-16
-30,-12,18,21,-24,3,32,15,2,-23,-14,-16
-30,-11,19,21,-25,4,32,16,3,-22,-13,-15
-30,-11,20,20,-26,4,32,17,3,-23,-12,-14
-31,-11,21,20,-26,4,32,18,3,-23,-12,-14
-31,-11,21,20,-26,4,32,19,4,-22,-12,-14
-30,-10,20,20,-26,4,32,19,6,-21,-12,-14
-30,-10,20,20,-26,4,32,19,6,-21,-12,-14
-30,-11,20,20,-25,4,31,19,4,-21,-12,-14
-29,-11,18,20,-23,3,31,20,3,-23,-13,-14
-27,-11,17,19,-21,3,30,21,4,-23,-12,-13
-26,-10,16,17,-20,3,30,21,5,-23,-12,-13
-24,-9,15,16,-20,3,29,22,6,-22,-11,-12
-23,-8,15,16,-20,3,29,22,6,-22,-10,-12
-23,-7,16,15,-20,5,29,23,7,-21,-9,-11
-22,-4,18,14,-20,7,30,25,9,-19,-7,-9
-20,0,20,11,-20,9,31,27,13,-15,-4,-7
-18,2,21,8,-19,11,31,29,15,-13,-2,-5
-17,4,21,7,-19,13,30,29,15,-12,0,-3
-16,4,20,6,-19,12,29,29,14,-13,0,-3
-16,2,18,6,-18,10,28,28,13,-14,0,-4
-17,0,17,8,-17,8,27,27,14,-14,0,-4
-18,-2,17,10,-18,7,26,26,13,-14,0,-4
-20,-3,18,12,-19,6,25,26,13,-14,0,-4
-22,-3,19,13,-20,7,23,26,15,-13,0,-4
-22,-1,21,11,-21,9,22,26,16,-10,2,-2
-20,1,21,9,-21,11,22,26,17,-9,4,-1
-19,2,21,8,-20,11,23,26,17,-9,5,0
-18,3,22,7,-21,12,23,26,17,-9,6,1
-18,3,23,7,-21,13,23,27,19,-8,7,2
-17,5,23,6,-20,14,24,27,20,-7,8,3
-15,6,23,5,-19,14,23,27,20,-6,9,4
-12,7,21,3,-17,14,23,27,20,-6,9,4
-10,9,20,1,-15,15,23,27,19,-6,10,4
-8,11,20,-1,-15,16,23,27,20,-5,11,6
-9,13,22,-1,-16,18,24,28,22,-3,13,7
-10,14,23,-2,-17,19,24,29,24,0,15,9
-8,15,24,-3,-16,19,23,29,26,2,16,10
-8,16,24,-3,-16,20,22,28,27,3,17,10
-10,14,25,-1,-18,19,21,27,24,1,17,10
-11,11,24,0,-18,18,20,26,21,-2,16,9
-12,9,22,1,-17,16,19,25,20,-4,15,8
-11,8,20,1,-16,15,19,24,20,-5,14,8
-11,8,19,1,-16,14,19,24,20,-4,15,8
-12,9,20,1,-16,15,19,23,21,-3,15,8
-12,10,22,0,-17,16,19,23,23,-1,16,9
-11,12,23,-1,-17,17,19,23,24,0,18,11
-11,12,24,-1,-17,18,19,23,25,0,19,11
-11,11,23,0,-17,17,19,22,24,0,19,11
-9,11,21,0,-15,17,19,21,23,-1,19,11
-8,11,20,-1,-14,16,19,20,23,-1,19,11
-10,10,21,0,-16,16,19,20,24,0,19,11
-10,11,22,0,-17,17,20,20,25,0,19,11
-9,13,23,-2,-17,18,20,20,25,1,19,11
-8,15,24,-3,-16,19,20,19,25,1,19,11
-7,16,24,-4,-15,19,20,19,24,1,20,12
-6,16,23,-5,-15,19,21,18,23,0,20,12
-7,15,23,-4,-15,19,21,17,22,0,20,12
-9,13,23,-1,-16,18,20,17,23,0,20,11
-12,11,23,0,-18,18,20,16,23,0,19,11
-13,10,23,2,-19,18,19,15,23,0,19,10
-15,10,24,3,-20,18,19,14,22,0,18,10
-16,9,25,4,-21,17,20,14,21,-1,18,9
-16,9,26,4,-21,17,20,13,21,-2,17,9
-15,9,26,4,-21,17,21,13,20,-3,17,9
-15,10,26,3,-21,18,22,14,21,-2,18,9
-14,12,27,1,-21,20,23,14,22,0,19,10
-14,12,27,1,-21,21,23,14,22,0,19,11
-16,10,27,3,-22,20,23,13,22,0,19,10
-18,8,26,5,-22,18,22,12,22,0,18,8
-18,8,26,5,-21,17,21,11,22,0,17,7
-16,9,25,4,-20,17,21,11,21,-1,17,7
-15,10,25,3,-20,17,22,11,21,-1,17,7
-14,11,26,2,-20,18,23,12,22,0,17,7
-14,11,26,1,-20,19,24,13,23,0,18,8
-13,12,25,0,-19,19,24,13,23,0,18,8
-12,12,25,0,-19,19,25,13,23,0,17,8
-14,10,24,1,-19,18,24,13,22,-2,17,7
-16,8,24,4,-20,16,24,12,20,-3,15,6
-17,6,23,5,-21,14,24,12,20,-3,14,5
-17,5,23,6,-20,13,24,12,20,-3,14,5
-17,4,22,7,-20,13,24,12,20,-3,13,4
-16,5,22,6,-20,13,24,12,20,-3,13,4
-17,5,23,6,-20,14,24,12,19,-3,14,4
-18,5,23,7,-21,15,24,12,19,-4,13,4
-19,4,23,7,-22,14,25,12,19,-4,12,4
-19,4,23,7,-22,14,25,12,19,-4,11,4
-19,4,23,7,-22,14,26,13,20,-4,10,4
-18,5,23,6,-21,14,26,13,20,-4,9,4
-17,4,22,6,-20,13,26,13,19,-5,7,3
-16,3,21,7,-19,12,25,12,18,-5,6,2
-16,3,20,7,-18,11,24,12,17,-6,5,1
-15,3,19,6,-17,11,25,12,17,-6,4,1
-14,4,19,4,-17,11,25,12,18,-6,5,1
-13,5,18,4,-16,11,25,13,19,-4,5,1
-13,4,18,4,-15,11,25,13,20,-3,5,1
-14,4,18,4,-15,10,24,13,20,-3,5,0
-13,5,18,4,-15,11,25,13,20,-2,5,0
-11,7,19,2,-15,12,26,15,20,-2,5,1
-10,9,20,1,-16,14,27,16,20,-3,6,2
-11,9,21,1,-17,15,27,16,19,-3,6,3
-13,8,21,2,-17,14,27,15,19,-4,5,3
-13,6,20,3,-17,13,27,15,18,-4,5,2
-13,5,19,4,-16,12,27,15,18,-5,4,2
-14,4,18,5,-16,11,27,15,18,-5,4,1
-14,3,18,6,-16,11,26,15,17,-6,4,0
-14,2,17,6,-16,10,26,15,16,-6,3,0
-15,1,17,7,-16,9,25,14,16,-7,2,-1
-16,0,17,8,-17,8,24,13,16,-7,2,-1
-18,0,17,9,-18,8,24,13,16,-7,2,-1
-18,0,18,8,-18,9,23,13,16,-6,2,-1
-16,2,17,7,-17,10,23,13,17,-6,2,-1
-14,3,17,5,-16,11,24,13,16,-6,2,-1
-14,4,18,5,-16,11,24,14,15,-7,2,0
-13,5,19,5,-16,12,25,14,16,-7,2,0
-11,6,18,3,-15,12,25,14,17,-6,2,0
-8,7,16,1,-12,12,25,14,17,-6,2,0
-8,6,15,1,-11,11,25,14,17,-7,2,0
-10,5,15,3,-13,11,24,13,16,-7,1,0
-11,4,15,3,-13,11,24,13,15,-7,1,0
-8,6,14,1,-11,10,23,13,15,-8,1,0
-5,7,13,0,-9,10,23,13,14,-9,1,0
-5,7,13,0,-10,10,23,13,14,-9,1,1
-5,7,14,0,-10,10,23,12,14,-8,1,1
-5,7,13,0,-10,10,22,12,15,-8,1,1
-5,7,13,0,-9,10,22,12,14,-8,1,1
-6,6,12,0,-9,10,22,11,13,-9,0,1
-7,5,13,1,-10,10,22,11,12,-10,0,2
-9,5,14,2,-12,10,22,12,12,-9,0,2
-9,5,15,2,-12,10,22,12,12,-9,1,3
-9,6,15,1,-12,10,21,12,13,-8,1,3
-8,6,15,1,-11,10,21,12,13,-8,1,4
-7,7,15,0,-11,10,21,12,13,-8,1,4
-7,7,14,0,-10,10,21,12,13,-8,1,4
-5,8,13,-1,-9,10,22,12,13,-7,1,4
-3,9,12,-3,-8,11,22,12,13,-6,1,4
-1,11,12,-5,-7,12,22,12,14,-5,2,5
0,13,13,-7,-7,13,23,13,15,-4,3,5
1,15,14,-8,-7,14,23,14,16,-3,4,6
3,17,14,-10,-6,15,23,14,16,-3,4,7
2,17,15,-10,-7,16,23,14,16,-3,5,7
0,16,15,-8,-8,16,22,14,16,-2,5,8
0,17,16,-8,-8,16,22,14,16,-2,5,8
2,18,16,-10,-7,17,22,14,17,-1,6,9
2,18,15,-11,-6,17,21,15,18,-1,6,9
0,15,15,-8,-7,15,20,13,17,-1,5,8
-2,12,14,-5,-8,13,18,12,16,-2,4,7
-3,11,15,-4,-9,13,18,12,16,-1,4,7
-3,12,16,-5,-9,14,18,12,17,-1,4,8
-2,14,16,-6,-9,15,18,12,17,0,5,9
-1,14,16,-7,-8,15,17,11,17,0,5,9
0,14,14,-7,-7,14,15,10,15,-1,4,8
2,14,13,-8,-6,13,13,9,14,-2,4,8
4,15,12,-10,-4,13,12,8,14,-2,4,8
5,16,11,-11,-3,13,11,8,15,-1,5,9
6,16,11,-11,-3,13,10,8,16,0,5,9
6,17,11,-12,-2,13,9,7,16,0,5,10
7,18,12,-13,-2,15,9,7,16,0,6,10
6,19,13,-13,-4,16,8,6,15,0,6,11
4,19,14,-12,-5,17,8,6,15,0,7,11
5,20,14,-13,-5,18,7,6,15,0,7,12
8,22,13,-15,-3,18,7,6,15,0,8,12
10,23,12,-17,-1,18,6,6,15,0,8,13
12,24,11,-18,0,18,6,5,15,0,8,13
14,24,10,-19,1,17,5,4,15,0,8,13
13,22,8,-17,2,15,4,3,14,0,7,12
10,18,7,-14,1,13,3,2,13,-1,6,11
8,16,7,-12,0,12,3,2,11,-2,5,11
7,14,6,-12,0,11,2,1,10,-3,5,10
7,13,6,-11,0,10,2,1,10,-4,4,10
7,13,6,-11,0,10,2,1,9,-4,4,9
7,13,6,-11,0,9,3,1,9,-4,4,9
6,12,6,-10,0,9,3,1,9,-4,3,9
5,10,5,-9,0,8,3,1,9,-4,3,8
5,10,4,-8,0,8,4,1,9,-4,3,8
6,10,4,-8,1,7,4,1,9,-4,2,8
5,9,3,-8,1,7,4,1,8,-5,1,7
4,8,3,-7,0,6,4,1,7,-5,0,6
4,7,3,-6,0,6,4,1,7,-6,0,6
4,6,2,-5,0,5,4,1,6,-6,0,5
3,5,2,-4,0,4,4,1,7,-6,-1,5
3,5,2,-4,0,4,5,1,7,-5,0,6
3,5,2,-4,0,3,5,2,8,-4,0,6
1,3,1,-3,0,2,4,1,7,-5,-1,5
0,0,0,0,0,0,4,1,5,-6,-2,4
0,0,0,0,0,0,4,0,5,-7,-3,3
1,0,-1,-1,1,0,4,0,4,-7,-3,3
2,0,-1,-1,1,0,4,0,4,-7,-3,3
3,1,-1,-2,1,0,4,0,4,-6,-3,3
3,0,-2,-2,2,0,3,0,4,-6,-3,2
4,0,-4,-2,4,-2,2,-1,2,-7,-4,1
5,0,-5,-2,4,-2,2,-1,2,-7,-4,1
4,0,-4,-2,4,-2,3,0,2,-6,-4,2
3,0,-4,-1,3,-2,3,0,2,-6,-4,2
3,0,-3,-1,3,-1,3,0,3,-6,-3,2
4,0,-4,-2,4,-1,3,0,3,-6,-3,2
5,-1,-5,-2,5,-2,2,-1,2,-6,-4,1
5,-2,-6,-1,5,-4,1,-2,1,-7,-5,0
5,-2,-7,-1,6,-4,0,-2,0,-7,-5,0
6,-2,-7,-1,6,-4,0,-2,0,-7,-5,0
5,-1,-7,-2,6,-4,1,-1,0,-7,-5,1
6,0,-6,-3,6,-3,2,0,1,-6,-5,1
6,0,-6,-3,6,-3,2,0,1,-5,-4,2
5,-1,-6,-2,6,-3,2,0,1,-6,-4,2
4,-3,-6,0,5,-4,1,0,0,-6,-5,1
3,-4,-6,0,4,-5,1,-1,0,-6,-5,1
2,-4,-6,0,4,-5,0,-1,0,-6,-5,1
0,-5,-6,2,3,-6,0,-1,0,-6,-5,0
-1,-7,-7,4,2,-7,-1,-2,-1,-6,-6,-1
-1,-9,-7,4,3,-8,-2,-3,-2,-7,-7,-2
-1,-9,-8,4,3,-9,-2,-3,-2,-8,-8,-3
-1,-10,-8,5,3,-9,-2,-3,-2,-8,-8,-3
-2,-10,-7,6,2,-9,-2,-3,-2,-8,-8,-3
-3,-11,-6,7,1,-9,-2,-3,-2,-8,-8,-3
-2,-11,-8,6,2,-9,-3,-4,-3,-9,-8,-3
-1,-11,-9,5,4,-10,-3,-4,-4,-9,-9,-4
0,-11,-10,5,4,-10,-2,-3,-4,-9,-9,-4
0,-10,-10,5,5,-10,-1,-3,-4,-9,-9,-5
1,-10,-11,4,6,-10,0,-2,-4,-9,-9,-5
2,-10,-12,4,7,-10,0,0,-4,-10,-10,-6
3,-9,-12,3,7,-10,2,2,-4,-9,-9,-6
6,-7,-13,0,9,-9,4,5,-2,-8,-8,-5
10,-4,-14,-3,11,-9,5,8,0,-6,-7,-4
12,-4,-17,-5,14,-10,5,9,0,-5,-7,-4
14,-4,-18,-5,15,-11,3,9,2,-4,-6,-3
14,-3,-18,-5,16,-11,2,11,5,0,-3,-1
15,-1,-17,-7,16,-9,0,12,11,5,1,3
18,1,-16,-10,17,-7,-4,10,17,11,6,7
22,5,-17,-14,19,-5,-10,7,24,19,13,12
27,10,-17,-19,21,-3,-18,1,30,28,20,18
32,16,-16,-24,23,0,-28,-8,35,36,29,25
38,24,-15,-31,25,5,-40,-19,40,44,39,34
48,36,-13,-42,29,12,-54,-30,47,55,52,45
60,51,-10,-56,34,21,-67,-41,55,67,66,58
70,65,-5,-68,36,31,-80,-52,63,80,81,72
75,78,2,-76,36,40,-93,-62,72,92,95,85
79,88,9,-83,34,49,-107,-72,79,103,107,96
79,97,18,-88,30,58,-121,-83,85,113,118,106
78,107,29,-92,24,68,-134,-92,91,122,128,116
74,117,43,-96,15,80,-147,-101,98,132,139,126
70,128,58,-99,4,94,-162,-109,108,144,150,137
63,138,75,-100,-7,107,-173,-113,120,157,161,148
52,142,90,-97,-20,117,-176,-112,133,169,169,155
39,141,102,-90,-32,122,-173,-106,144,178,171,156
26,134,107,-81,-41,121,-166,-99,150,179,165,149
15,121,106,-68,-46,114,-156,-88,150,172,152,136
4,105,101,-55,-49,103,-142,-74,145,159,133,118
-4,88,92,-42,-49,90,-125,-60,134,140,109,97
-10,71,81,-30,-47,76,-109,-52,115,115,84,75
-15,55,71,-20,-44,64,-95,-51,91,88,58,53
-19,42,61,-11,-42,52,-82,-53,66,62,34,33
-22,31,53,-4,-38,42,-71,-55,42,39,15,17
-21,23,44,-1,-33,34,-61,-57,20,19,0,5
-21,14,34,3,-27,24,-53,-59,0,1,-12,-5
-22,4,25,9,-23,14,-46,-59,-15,-12,-21,-13
-22,-3,18,13,-20,7,-40,-56,-25,-21,-27,-19
-20,-8,12,14,-16,1,-34,-51,-30,-26,-30,-22
-18,-11,7,15,-13,-2,-27,-44,-32,-29,-32,-23
-16,-14,3,15,-11,-5,-22,-38,-33,-30,-32,-24
-15,-16,0,16,-8,-7,-17,-33,-32,-30,-32,-24
-12,-16,-4,14,-4,-9,-13,-28,-31,-29,-31,-23
-9,-15,-7,12,0,-11,-11,-24,-29,-27,-30,-23
-9,-17,-9,13,1,-12,-9,-20,-27,-26,-29,-23
-10,-19,-10,14,1,-14,-6,-17,-25,-24,-29,-22
-10,-21,-11,15,1,-16,-4,-14,-24,-23,-29,-22
-9,-22,-13,16,2,-17,-3,-12,-23,-23,-28,-22
-9,-23,-14,16,2,-18,-1,-10,-23,-23,-28,-22
-8,-23,-15,16,3,-19,0,-8,-22,-23,-28,-22
-7,-23,-16,15,4,-19,1,-7,-22,-22,-28,-22
-5,-22,-17,14,6,-19,1,-6,-22,-22,-28,-22
-4,-21,-17,12,7,-18,2,-5,-21,-21,-27,-22
-3,-19,-16,11,7,-17,3,-4,-19,-19,-26,-21
-4,-18,-14,11,6,-16,4,-3,-17,-18,-25,-20
-4,-18,-14,11,5,-16,4,-2,-16,-17,-25,-20
-2,-17,-15,10,6,-16,4,-2,-16,-16,-24,-20
-1,-17,-16,9,7,-17,4,-2,-17,-17,-24,-20
-2,-19,-17,10,7,-18,4,-2,-18,-18,-25,-21
-6,-23,-18,14,6,-20,3,-4,-19,-19,-26,-23
-9,-27,-19,18,5,-22,1,-5,-21,-21,-28,-24
-10,-29,-20,19,5,-24,0,-6,-22,-22,-29,-25
-9,-28,-20,18,5,-24,0,-6,-23,-22,-30,-26
-8,-27,-19,17,5,-23,1,-5,-22,-22,-29,-25
-7,-26,-19,16,5,-22,2,-4,-21,-22,-29,-24
-6,-25,-19,16,5,-22,3,-3,-21,-21,-28,-24
-6,-25,-19,16,5,-22,4,-3,-21,-21,-28,-24
-5,-25,-20,15,6,-22,4,-3,-21,-21,-28,-24
-5,-25,-20,15,7,-21,4,-2,-20,-21,-28,-23
-5,-24,-19,14,7,-21,4,-2,-20,-20,-27,-23
-6,-24,-18,14,6,-20,4,-2,-19,-19,-27,-22
-5,-23,-18,14,6,-20,4,-2,-19,-19,-27,-22
-4,-22,-19,13,7,-20,4,-2,-19,-20,-27,-22
-2,-22,-20,12,8,-21,4,-2,-20,-20,-27,-22
-2,-22,-20,12,8,-20,4,-1,-20,-21,-27,-22
-3,-21,-19,12,7,-19,5,-1,-20,-20,-26,-22
-4,-22,-18,12,7,-19,5,-1,-20,-20,-26,-22
-5,-23,-18,13,7,-20,4,-1,-20,-19,-27,-22
-5,-24,-18,14,6,-21,4,-1,-20,-19,-27,-22
-7,-25,-18,16,5,-22,4,-2,-20,-19,-27,-23
-9,-27,-18,18,4,-23,3,-2,-21,-20,-28,-23
-10,-28,-18,19,4,-23,3,-2,-22,-20,-29,-24
-10,-28,-18,19,3,-22,3,-2,-21,-20,-28,-23
-9,-27,-17,18,3,-21,4,-1,-21,-19,-28,-23
-8,-26,-17,16,4,-21,4,-1,-21,-19,-28,-23
-6,-25,-18,15,5,-21,4,-1,-21,-19,-28,-23
-6,-24,-18,15,5,-21,4,-1,-21,-19,-28,-23
-5,-23,-19,13,7,-21,4,-1,-22,-19,-28,-23
-1,-22,-21,11,10,-21,4,-1,-22,-19,-28,-23
1,-21,-22,9,11,-21,4,-1,-22,-19,-28,-23
1,-21,-21,10,11,-21,5,0,-22,-19,-28,-23
-1,-22,-21,11,10,-21,6,0,-22,-19,-28,-23
-2,-23,-20,12,9,-21,6,0,-22,-19,-28,-24
-3,-23,-19,12,8,-21,6,0,-22,-19,-28,-24
-4,-22,-18,12,7,-20,7,1,-21,-18,-27,-24
-3,-21,-18,12,7,-19,7,1,-21,-18,-27,-24
-3,-21,-18,12,7,-20,7,1,-21,-18,-27,-24
-4,-23,-19,13,7,-21,6,1,-22,-19,-28,-25
-6,-27,-20,16,7,-23,5,0,-23,-20,-30,-26
-8,-29,-21,18,6,-25,4,0,-24,-21,-31,-27
-8,-29,-21,18,7,-25,4,0,-25,-22,-32,-28
-7,-28,-22,17,8,-25,4,0,-26,-22,-32,-28
-5,-27,-23,16,9,-25,4,0,-26,-22,-32,-29
-6,-27,-22,16,8,-24,5,0,-25,-22,-32,-29
-8,-28,-20,18,6,-24,5,0,-25,-21,-31,-28
-10,-29,-20,19,4,-24,5,1,-25,-21,-32,-28
-10,-30,-20,20,4,-25,5,1,-25,-21,-32,-29
-10,-29,-19,20,4,-24,6,2,-24,-20,-32,-28
-11,-28,-17,20,3,-22,7,3,-23,-19,-31,-27
-11,-27,-15,19,2,-21,7,4,-23,-19,-31,-27
-11,-28,-16,19,3,-21,7,4,-24,-20,-31,-27
-11,-29,-18,20,4,-23,6,3,-25,-21,-32,-29
-9,-30,-20,19,5,-25,5,3,-26,-21,-33,-30
-7,-29,-21,18,6,-25,5,4,-26,-21,-33,-30
-6,-28,-21,17,6,-24,6,5,-25,-21,-33,-30
-5,-26,-21,16,6,-24,7,6,-24,-20,-33,-29
-4,-25,-21,15,7,-23,7,7,-23,-19,-33,-29
-4,-25,-20,15,7,-22,8,8,-23,-18,-32,-28
-4,-24,-20,14,7,-21,8,8,-22,-18,-32,-28
-4,-23,-19,13,7,-21,8,9,-22,-17,-31,-27
-4,-23,-19,13,7,-21,7,10,-22,-17,-30,-27
-3,-23,-20,13,8,-21,7,10,-22,-17,-30,-27
-2,-22,-21,12,9,-21,6,11,-22,-17,-30,-27
-3,-23,-20,13,8,-21,6,11,-21,-17,-29,-26
-5,-24,-19,15,7,-21,6,12,-20,-16,-29,-26
-5,-24,-19,15,8,-21,6,13,-19,-15,-29,-26
-5,-24,-19,14,8,-21,6,14,-19,-14,-29,-26
-3,-22,-19,13,8,-21,6,15,-18,-13,-28,-25
-1,-21,-19,11,9,-20,6,16,-17,-12,-26,-23
1,-18,-20,8,10,-19,6,17,-16,-10,-25,-22
4,-16,-20,6,11,-19,6,18,-15,-9,-23,-21
5,-15,-21,5,12,-19,5,18,-14,-8,-23,-20
5,-16,-21,6,13,-19,3,18,-15,-8,-24,-20
4,-17,-22,6,13,-20,2,17,-16,-9,-24,-20
5,-17,-23,5,14,-20,1,17,-16,-9,-24,-20
6,-16,-22,4,14,-19,1,17,-16,-9,-23,-19
6,-15,-21,4,14,-18,1,18,-15,-8,-22,-17
6,-15,-21,3,14,-17,1,18,-14,-7,-21,-17
6,-15,-21,4,14,-18,0,18,-14,-6,-21,-16
7,-15,-21,4,14,-18,0,18,-14,-6,-20,-16
7,-13,-21,3,14,-17,0,18,-13,-4,-19,-14
8,-10,-19,1,14,-15,0,20,-11,-2,-17,-12
10,-8,-18,-1,14,-13,1,21,-9,0,-16,-10
9,-8,-18,-1,14,-13,0,21,-8,1,-15,-9
8,-10,-18,0,14,-14,-1,20,-9,0,-15,-10
9,-11,-19,0,14,-15,-3,19,-9,0,-15,-10
10,-11,-20,0,15,-15,-4,18,-10,0,-14,-10
10,-11,-20,0,15,-15,-4,18,-9,0,-14,-9
9,-10,-19,0,14,-15,-4,18,-9,1,-13,-8
9,-9,-18,0,14,-14,-4,18,-8,3,-12,-7
8,-9,-18,0,14,-13,-4,19,-7,4,-10,-7
8,-8,-17,-1,13,-12,-4,19,-7,5,-9,-6
10,-6,-17,-2,14,-11,-4,19,-6,6,-8,-5
12,-5,-17,-3,15,-11,-4,19,-6,6,-7,-5
13,-4,-17,-4,15,-11,-5,18,-6,6,-7,-4
13,-5,-17,-4,15,-11,-6,18,-6,6,-7,-4
12,-5,-17,-3,15,-11,-6,17,-5,6,-7,-4
12,-4,-17,-3,15,-10,-6,17,-5,7,-6,-3
12,-3,-16,-4,14,-9,-6,18,-4,8,-4,-1
13,-2,-16,-5,15,-9,-6,18,-4,8,-3,-1
15,-1,-17,-7,16,-8,-6,17,-5,8,-3,0
18,0,-17,-9,17,-8,-6,17,-4,8,-2,0
18,1,-17,-9,17,-7,-6,16,-4,9,-2,0
18,0,-17,-9,17,-8,-6,16,-4,9,-3,0
17,-1,-18,-7,17,-9,-7,14,-5,9,-4,0
17,-2,-19,-7,18,-10,-8,13,-6,8,-4,-1
18,-1,-19,-8,19,-10,-8,12,-6,8,-4,0
18,-1,-19,-8,18,-10,-8,11,-7,8,-4,0
16,-1,-18,-7,17,-9,-8,11,-7,8,-4,0
15,-1,-17,-7,16,-9,-8,11,-6,8,-3,0
16,0,-16,-8,15,-7,-7,11,-5,10,-2,1
17,2,-14,-10,15,-6,-6,11,-4,11,-1,1
18,3,-13,-10,15,-5,-5,11,-4,11,-1,1
18,4,-13,-11,15,-4,-5,10,-4,11,-1,1
18,4,-14,-11,16,-4,-6,9,-4,11,-1,1
18,4,-15,-11,16,-5,-7,8,-5,10,-1,1
16,2,-15,-9,15,-6,-7,6,-6,9,-1,1
14,0,-15,-6,14,-7,-8,5,-7,8,-2,0
12,-2,-14,-5,13,-8,-8,4,-8,7,-3,0
10,-4,-13,-3,11,-8,-8,3,-8,7,-3,-1
8,-4,-12,-2,10,-8,-8,3,-8,8,-3,-1
9,-3,-12,-3,10,-8,-8,3,-8,8,-3,-1
10,-1,-12,-4,11,-7,-7,3,-8,8,-3,-1
12,0,-12,-6,13,-7,-7,3,-8,8,-2,-1
14,0,-13,-7,14,-7,-6,3,-8,8,-2,-1
14,0,-13,-7,14,-7,-6,3,-7,8,-2,-2
13,-2,-14,-6,13,-7,-7,3,-8,8,-3,-2
12,-2,-14,-5,12,-8,-7,3,-8,7,-3,-3
11,-2,-14,-4,12,-8,-6,3,-8,7,-3,-3
11,-2,-13,-4,12,-8,-6,3,-8,7,-3,-3
11,-2,-13,-4,12,-7,-5,3,-8,7,-3,-3
11,-1,-12,-4,11,-7,-5,3,-8,7,-2,-2
10,-1,-12,-4,11,-7,-5,3,-8,7,-2,-2
11,-1,-12,-5,12,-7,-5,3,-7,8,-2,-2
12,0,-13,-6,13,-6,-4,4,-7,8,-2,-2
12,0,-13,-6,13,-6,-4,5,-7,8,-2,-2
12,-2,-14,-5,13,-8,-4,4,-8,7,-3,-3
13,-3,-16,-5,14,-9,-5,4,-9,6,-4,-5
14,-3,-17,-5,15,-10,-5,3,-10,6,-5,-6
13,-3,-17,-5,15,-10,-4,4,-9,6,-5,-6
12,-4,-17,-3,14,-11,-4,4,-9,6,-5,-5
9,-7,-17,0,13,-12,-5,3,-11,4,-7,-6
7,-9,-17,1,12,-13,-5,2,-12,3,-8,-7
8,-9,-17,0,12,-12,-4,4,-11,4,-7,-7
9,-8,-16,0,12,-11,-3,5,-11,5,-6,-6
9,-7,-16,0,12,-11,-2,6,-10,5,-6,-6
10,-7,-16,-1,13,-12,-1,6,-9,6,-5,-6
12,-6,-18,-3,15,-12,-1,6,-9,6,-5,-6
13,-5,-19,-4,16,-12,-1,6,-9,6,-5,-6
10,-7,-18,-2,14,-13,-1,6,-10,5,-6,-7
6,-11,-18,1,12,-14,-2,6,-11,4,-7,-8
4,-12,-17,3,10,-14,-2,6,-11,4,-8,-9
4,-12,-16,4,10,-14,-2,6,-12,4,-8,-9
5,-11,-17,3,10,-14,-2,6,-12,3,-8,-9
6,-11,-17,2,11,-14,-2,6,-12,3,-9,-9
7,-10,-17,1,12,-14,-1,6,-12,3,-9,-8
9,-8,-18,0,13,-13,-1,7,-11,3,-8,-8
11,-7,-19,-1,14,-13,0,7,-11,3,-8,-7
13,-7,-20,-3,16,-13,0,8,-12,3,-9,-7
13,-7,-21,-3,17,-14,0,8,-12,2,-9,-7
10,-9,-20,-1,15,-14,0,8,-12,2,-10,-7
8,-10,-19,0,13,-14,0,8,-12,2,-10,-7
7,-10,-18,1,12,-14,0,7,-12,2,-10,-8
7,-10,-18,1,12,-14,0,7,-13,2,-10,-8
8,-9,-18,1,13,-14,0,6,-14,1,-11,-9
7,-9,-17,1,12,-14,0,6,-14,1,-11,-9
6,-9,-16,1,11,-13,0,6,-14,1,-10,-8
7,-8,-16,0,11,-12,1,7,-13,2,-10,-8
8,-7,-16,-1,12,-12,2,7,-13,2,-10,-8
7,-8,-16,0,11,-12,1,6,-14,1,-10,-8
7,-8,-16,1,12,-13,1,6,-14,1,-11,-9
9,-7,-17,0,13,-13,1,5,-15,0,-11,-9
10,-7,-18,-1,14,-13,1,5,-15,0,-11,-9
9,-7,-17,-1,13,-13,1,5,-16,0,-12,-9
9,-7,-16,-1,13,-12,1,5,-16,-1,-11,-8
9,-7,-16,-1,13,-12,1,5,-16,-1,-11,-8
10,-6,-17,-3,14,-11,1,5,-16,-1,-10,-8
11,-5,-18,-4,15,-11,1,4,-15,-1,-10,-8
11,-6,-18,-3,15,-12,1,4,-15,-1,-10,-8
11,-5,-18,-3,15,-12,1,3,-16,-1,-10,-8
13,-3,-17,-5,15,-10,1,4,-15,-1,-10,-7
15,-2,-17,-6,16,-9,2,4,-15,0,-10,-7
15,-2,-17,-6,16,-10,2,3,-16,-1,-10,-7
14,-2,-17,-6,16,-10,2,3,-16,-1,-10,-7
15,-1,-16,-7,16,-9,3,4,-15,0,-9,-6
14,-1,-16,-6,15,-8,3,4,-14,0,-9,-6
12,-3,-15,-4,13,-8,2,4,-14,0,-9,-6
11,-2,-14,-4,13,-8,3,5,-14,1,-8,-6
12,-1,-13,-5,12,-7,3,5,-14,2,-7,-5
12,0,-13,-6,12,-6,3,5,-13,3,-7,-4
13,0,-14,-6,13,-7,2,4,-14,3,-7,-4
14,-1,-15,-6,14,-8,0,3,-15,2,-8,-5
14,-2,-16,-6,15,-9,0,3,-15,1,-9,-6
16,-1,-16,-7,16,-9,0,2,-14,2,-8,-6
18,0,-17,-9,18,-8,0,2,-13,3,-8,-5
18,1,-16,-9,17,-7,0,2,-12,4,-7,-4
16,2,-13,-8,14,-5,-1,2,-12,5,-6,-3
14,3,-10,-8,12,-3,-1,3,-11,6,-5,-2
14,5,-9,-9,11,-2,-1,3,-11,7,-4,-1
15,6,-8,-10,11,-1,-1,3,-11,7,-4,-1
16,6,-9,-11,12,-1,-2,3,-11,6,-4,0
18,7,-10,-13,14,-1,-3,3,-11,6,-4,0
20,7,-11,-14,15,-1,-4,3,-11,6,-4,0
21,8,-12,-14,16,-1,-5,2,-11,6,-4,0
22,9,-13,-15,17,-2,-6,2,-11,6,-4,0
22,9,-13,-16,17,-2,-7,1,-11,6,-4,1
20,8,-12,-14,16,-2,-9,0,-11,6,-5,1
18,8,-11,-13,14,-1,-10,-1,-11,5,-5,1
17,8,-10,-13,13,0,-11,-1,-11,6,-5,1
18,10,-9,-14,14,0,-12,-1,-10,7,-4,2
20,11,-9,-16,15,1,-12,-1,-9,8,-3,2
22,12,-10,-17,16,1,-13,-2,-10,8,-3,3
23,11,-11,-17,17,0,-13,-3,-11,7,-4,3
23,10,-12,-16,18,0,-14,-4,-12,6,-4,2
22,9,-13,-15,18,-1,-14,-4,-13,6,-4,2
21,8,-12,-15,17,-1,-13,-4,-13,6,-4,2
20,8,-12,-14,16,-1,-13,-4,-12,6,-4,2
19,8,-12,-14,16,-2,-13,-4,-12,7,-4,2
18,6,-12,-13,15,-3,-13,-4,-12,6,-4,1
17,6,-12,-12,15,-3,-12,-4,-13,6,-5,1
18,6,-12,-12,15,-3,-11,-4,-13,6,-5,1
21,6,-14,-13,17,-4,-11,-4,-13,5,-5,0
22,5,-16,-13,19,-5,-11,-4,-13,5,-6,0
22,5,-17,-13,19,-6,-10,-3,-13,5,-6,0
20,5,-16,-12,18,-6,-10,-3,-13,5,-7,0
17,2,-16,-10,17,-7,-10,-4,-13,4,-8,-1
15,0,-17,-7,16,-9,-11,-5,-15,3,-9,-3
14,-1,-17,-6,15,-9,-10,-5,-16,3,-10,-4
12,-2,-16,-4,14,-9,-9,-5,-16,3,-10,-4
11,-3,-15,-3,12,-9,-8,-4,-15,3,-9,-4
10,-4,-15,-2,12,-10,-8,-4,-15,4,-9,-5
10,-5,-16,-2,13,-11,-8,-4,-15,4,-10,-6
12,-5,-19,-3,15,-12,-8,-5,-15,4,-10,-6
15,-5,-21,-5,18,-13,-9,-5,-16,3,-11,-7
15,-6,-22,-5,19,-15,-10,-6,-17,2,-12,-8
14,-9,-23,-3,18,-16,-10,-7,-18,1,-13,-8
13,-10,-23,-1,17,-16,-10,-8,-19,0,-13,-9
13,-10,-23,-2,18,-16,-10,-8,-20,0,-14,-9
15,-9,-24,-3,19,-16,-10,-8,-20,-1,-14,-9
15,-10,-24,-2,20,-17,-10,-8,-21,-1,-14,-10
13,-11,-24,-1,19,-17,-10,-8,-21,-2,-14,-10
13,-11,-24,-1,18,-17,-9,-8,-21,-2,-14,-10
14,-10,-24,-2,19,-17,-9,-7,-21,-1,-14,-9
15,-9,-24,-3,19,-17,-9,-7,-21,-1,-14,-10
16,-10,-24,-3,20,-17,-9,-7,-21,-1,-14,-10
15,-10,-24,-3,19,-17,-9,-7,-21,-1,-14,-10
15,-9,-23,-3,19,-16,-9,-7,-20,0,-14,-10
15,-8,-22,-4,19,-15,-9,-7,-19,1,-13,-9
14,-8,-22,-3,18,-15,-9,-7,-19,1,-13,-8
13,-9,-22,-2,17,-15,-9,-7,-19,0,-13,-8
12,-9,-22,-2,17,-16,-9,-7,-19,0,-13,-9
13,-9,-23,-2,18,-16,-9,-7,-19,1,-13,-9
14,-9,-23,-2,18,-16,-9,-8,-19,1,-14,-9
15,-8,-23,-3,19,-16,-9,-8,-20,1,-14,-10
17,-8,-24,-4,20,-16,-9,-8,-20,1,-14,-10
17,-7,-24,-4,20,-15,-9,-8,-19,1,-14,-10
18,-6,-24,-5,20,-15,-9,-7,-18,2,-14,-10
18,-6,-24,-6,21,-15,-10,-8,-19,1,-14,-10
18,-6,-25,-6,21,-15,-9,-8,-19,1,-14,-10
18,-5,-24,-7,21,-14,-8,-7,-19,1,-14,-9
18,-5,-24,-6,21,-15,-8,-6,-19,1,-14,-9
16,-8,-24,-3,21,-16,-8,-7,-19,0,-14,-10
14,-10,-25,-1,20,-17,-9,-8,-20,0,-15,-10
14,-11,-25,-1,20,-18,-9,-8,-20,0,-15,-11
15,-11,-26,-2,21,-18,-9,-8,-21,-1,-16,-11
14,-11,-25,-2,20,-18,-8,-8,-21,-1,-16,-11
12,-11,-24,-1,18,-18,-7,-8,-21,-1,-16,-11
12,-11,-24,-1,18,-18,-7,-7,-21,-1,-16,-11
15,-10,-26,-2,20,-18,-6,-6,-21,-1,-17,-12
18,-10,-28,-3,23,-19,-5,-5,-21,-2,-17,-12
21,-9,-30,-5,25,-19,-4,-2,-21,-1,-17,-12
24,-6,-30,-8,27,-18,-2,1,-19,0,-15,-11
26,-4,-30,-11,28,-17,-1,4,-17,2,-13,-10
27,-4,-31,-11,29,-18,-2,4,-16,3,-12,-10
25,-6,-31,-10,29,-19,-4,5,-13,5,-11,-9
26,-5,-31,-11,29,-19,-6,5,-9,8,-8,-7
30,-2,-32,-14,31,-18,-10,5,-3,13,-3,-3
35,3,-33,-20,34,-15,-14,3,4,20,3,2
41,9,-32,-25,36,-11,-19,0,10,28,10,8
47,15,-31,-31,39,-7,-27,-6,17,37,19,15
55,23,-31,-39,43,-3,-38,-16,22,46,28,23
62,32,-30,-47,46,1,-51,-28,28,55,38,32
68,42,-26,-55,46,8,-66,-41,34,65,50,43
72,53,-20,-63,46,17,-80,-54,41,76,63,55
77,66,-12,-72,45,27,-92,-63,49,89,76,68
85,81,-4,-83,45,39,-104,-71,58,101,91,82
90,95,4,-93,43,50,-116,-80,66,113,105,95
91,107,15,-99,38,61,-128,-90,73,123,117,107
92,117,26,-104,33,72,-141,-101,79,132,128,117
90,128,39,-109,25,84,-156,-111,88,143,138,127
83,138,56,-110,13,97,-170,-119,98,156,149,137
71,145,73,-108,-1,109,-177,-122,110,168,159,145
58,146,87,-102,-14,116,-176,-118,122,178,164,150
44,141,96,-93,-25,118,-170,-111,130,182,162,147
31,129,98,-80,-33,113,-161,-102,133,179,152,138
18,112,94,-65,-37,103,-149,-90,130,169,136,122
8,94,87,-51,-40,91,-133,-74,122,153,116,103
0,77,78,-38,-40,78,-116,-62,107,131,91,81
-6,60,67,-27,-37,64,-101,-57,84,104,64,58
-10,45,56,-18,-33,51,-88,-58,58,75,38,36
-13,33,46,-10,-30,39,-76,-59,34,50,16,18
-15,22,38,-4,-26,30,-65,-60,13,30,0,4
-16,13,29,1,-22,21,-56,-61,-6,12,-12,-6
-16,5,21,5,-18,13,-48,-61,-21,-1,-21,-13
-15,0,14,8,-14,7,-41,-58,-32,-10,-26,-18
-11,-4,6,8,-9,1,-35,-54,-39,-16,-30,-22
-6,-7,-1,7,-3,-4,-30,-50,-43,-20,-33,-25
-2,-9,-6,6,1,-8,-25,-44,-44,-22,-35,-26
0,-11,-11,5,5,-11,-21,-40,-45,-24,-36,-28
2,-12,-14,5,8,-13,-18,-35,-44,-23,-37,-28
3,-12,-16,4,10,-13,-15,-30,-41,-21,-36,-28
2,-13,-16,5,10,-14,-12,-25,-39,-19,-34,-27
0,-16,-17,8,9,-16,-10,-21,-37,-18,-33,-26
0,-19,-18,9,9,-18,-7,-18,-35,-17,-33,-26
1,-20,-20,9,10,-20,-4,-16,-35,-17,-32,-26
3,-20,-23,8,12,-22,-2,-14,-34,-17,-32,-26
4,-21,-25,8,14,-23,0,-12,-34,-17,-33,-26
4,-22,-26,9,14,-24,0,-11,-34,-17,-33,-27
4,-22,-26,9,14,-24,1,-9,-33,-17,-33,-27
5,-21,-26,8,15,-23,2,-8,-32,-16,-32,-27
7,-20,-26,7,17,-23,1,-8,-32,-15,-32,-27
9,-19,-27,5,18,-23,1,-8,-31,-14,-31,-27
9,-19,-27,5,17,-23,2,-8,-30,-14,-30,-27
6,-20,-26,7,15,-23,2,-8,-29,-13,-30,-27
5,-20,-25,8,14,-23,2,-7,-29,-13,-30,-26
5,-19,-24,7,14,-22,3,-6,-29,-13,-30,-26
5,-20,-25,7,15,-22,4,-6,-30,-15,-31,-26
4,-22,-27,8,16,-24,3,-6,-30,-16,-32,-27
4,-24,-28,9,16,-26,3,-6,-30,-17,-32,-27
3,-25,-27,10,15,-26,4,-5,-30,-17,-31,-26
2,-25,-26,11,14,-26,3,-5,-28,-15,-30,-26
4,-23,-26,10,15,-25,3,-5,-28,-14,-29,-26
4,-23,-27,9,15,-25,3,-5,-29,-14,-30,-27
2,-24,-27,10,15,-25,3,-6,-30,-16,-31,-27
1,-24,-26,11,14,-25,4,-6,-30,-16,-31,-27
1,-23,-25,11,13,-24,4,-5,-29,-15,-30,-26
1,-23,-25,11,13,-23,5,-4,-28,-14,-29,-26
2,-22,-24,10,13,-23,5,-4,-27,-14,-29,-26
2,-22,-24,10,13,-23,6,-3,-27,-14,-29,-26
3,-21,-24,9,14,-23,6,-3,-27,-14,-29,-26
4,-21,-25,8,15,-23,6,-3,-28,-15,-29,-26
4,-22,-26,8,15,-24,6,-4,-28,-15,-29,-26
2,-22,-25,10,14,-23,6,-3,-27,-14,-29,-25
0,-23,-23,11,12,-23,6,-3,-27,-14,-29,-25
0,-22,-22,11,11,-22,5,-3,-28,-15,-29,-25
0,-22,-22,11,12,-22,5,-3,-29,-17,-29,-26
1,-22,-22,11,12,-22,5,-3,-29,-17,-30,-26
1,-23,-22,11,12,-22,5,-3,-30,-18,-30,-26
1,-22,-22,10,12,-22,6,-3,-29,-17,-30,-26
2,-21,-22,9,13,-21,7,-2,-29,-16,-29,-25
2,-20,-22,9,13,-21,8,-1,-29,-16,-29,-25
3,-19,-23,8,14,-21,8,-1,-29,-17,-29,-26
6,-18,-25,6,16,-21,9,-1,-29,-16,-29,-26
7,-18,-25,6,16,-21,9,-1,-28,-16,-29,-26
5,-19,-24,7,15,-22,9,-1,-27,-15,-29,-26
3,-20,-23,8,13,-22,9,-2,-27,-15,-30,-26
1,-21,-22,10,12,-22,9,-2,-28,-16,-30,-27
1,-21,-21,10,11,-21,9,-2,-28,-16,-30,-27
1,-20,-21,9,11,-21,10,-1,-27,-15,-30,-26
1,-20,-21,8,11,-21,10,-1,-27,-14,-30,-26
1,-20,-21,8,11,-21,11,-1,-27,-15,-30,-26
1,-20,-21,8,11,-21,11,-1,-28,-16,-30,-26
1,-19,-20,8,10,-20,11,0,-29,-17,-30,-26
0,-20,-18,10,8,-19,13,0,-29,-17,-30,-26
-4,-22,-18,13,6,-20,13,0,-29,-17,-31,-27
-4,-25,-20,14,7,-23,11,-1,-30,-18,-33,-29
-3,-26,-23,14,10,-24,10,-2,-30,-18,-35,-31
-2,-25,-23,13,11,-24,10,-2,-30,-17,-35,-31
-1,-23,-22,12,10,-23,10,-2,-29,-16,-34,-30
0,-22,-21,11,10,-21,11,-1,-29,-16,-34,-30
0,-23,-21,12,10,-22,10,-2,-30,-17,-34,-30
-2,-24,-21,13,9,-22,10,-2,-31,-18,-35,-31
-2,-24,-20,13,9,-22,11,-1,-30,-18,-35,-31
-2,-23,-20,13,9,-22,12,0,-30,-18,-34,-31
-3,-24,-21,13,8,-22,12,1,-30,-18,-34,-31
-4,-24,-21,14,8,-22,12,1,-30,-18,-34,-31
-4,-24,-19,14,8,-22,12,2,-29,-17,-34,-31
-4,-22,-18,13,7,-21,13,3,-28,-16,-33,-30
-3,-22,-19,13,8,-20,13,3,-29,-17,-33,-30
-1,-21,-20,12,9,-20,13,4,-29,-18,-33,-30
0,-21,-21,11,10,-21,14,5,-28,-17,-34,-30
-2,-24,-22,13,10,-22,14,4,-29,-18,-35,-31
-4,-26,-22,15,8,-24,12,4,-30,-19,-36,-32
-5,-27,-22,16,8,-25,12,4,-30,-19,-37,-33
-5,-26,-22,15,8,-24,12,5,-29,-19,-37,-33
-4,-25,-21,14,7,-23,13,6,-28,-18,-36,-32
-4,-24,-20,14,8,-22,13,7,-27,-17,-35,-31
-3,-23,-20,13,8,-22,14,8,-25,-15,-35,-31
-2,-22,-20,13,9,-22,14,9,-24,-14,-34,-30
-2,-22,-19,12,9,-21,15,9,-24,-14,-33,-30
-1,-21,-19,11,9,-20,15,10,-23,-14,-33,-29
0,-19,-19,8,10,-19,15,12,-23,-13,-32,-28
2,-17,-19,7,11,-18,16,13,-22,-12,-31,-26
1,-17,-19,7,11,-18,15,13,-21,-12,-30,-26
0,-19,-19,9,10,-19,14,13,-21,-12,-29,-26
0,-19,-19,9,10,-20,13,13,-21,-12,-29,-25
0,-18,-19,9,10,-19,13,14,-20,-11,-28,-24
1,-17,-18,8,9,-17,13,14,-19,-11,-27,-23
2,-15,-17,6,10,-16,13,15,-19,-10,-25,-22
3,-13,-17,4,10,-15,12,15,-19,-9,-24,-21
5,-12,-17,3,11,-14,12,16,-17,-8,-24,-20
7,-11,-18,1,13,-14,11,16,-16,-6,-23,-20
9,-10,-19,1,13,-14,11,17,-15,-5,-21,-18
8,-11,-18,1,12,-14,11,17,-14,-4,-20,-17
7,-11,-17,2,12,-14,10,17,-13,-4,-19,-16
8,-9,-17,0,13,-13,10,18,-12,-2,-18,-16
10,-7,-18,-1,14,-13,10,18,-11,-1,-17,-15
12,-6,-18,-3,15,-12,10,18,-11,0,-16,-14
10,-6,-17,-3,14,-11,10,18,-10,0,-15,-13
8,-6,-15,-1,12,-11,10,18,-9,1,-14,-13
8,-5,-15,-1,11,-10,9,18,-9,2,-13,-12
10,-3,-14,-3,12,-9,9,18,-8,2,-12,-10
13,0,-13,-6,13,-7,9,19,-7,3,-10,-8
16,2,-14,-8,15,-6,9,19,-6,5,-8,-6
17,2,-15,-9,16,-6,9,19,-5,5,-8,-6
15,0,-15,-7,15,-7,7,18,-4,6,-7,-6
13,-2,-14,-5,14,-8,6,18,-4,6,-7,-6
13,-1,-15,-6,15,-8,6,18,-6,4,-6,-5
16,0,-16,-7,16,-8,6,18,-7,2,-6,-5
17,0,-16,-8,17,-8,6,18,-7,2,-6,-4
17,0,-16,-8,16,-8,5,18,-5,4,-5,-4
17,0,-16,-8,16,-8,5,18,-3,6,-4,-3
17,1,-15,-9,16,-7,5,18,-3,7,-3,-3
16,2,-14,-9,15,-6,4,18,-4,7,-3,-2
16,2,-13,-9,15,-5,4,17,-5,6,-3,-2
17,3,-13,-10,15,-5,4,17,-5,5,-2,-1
17,5,-12,-11,15,-4,5,17,-3,6,-1,0
16,6,-10,-11,13,-2,5,17,-2,8,0,1
16,6,-9,-11,12,-2,5,17,-1,9,1,2
15,5,-10,-10,12,-3,5,17,-1,9,1,2
14,3,-10,-8,11,-4,4,16,-1,9,1,2
14,3,-10,-8,12,-4,4,16,0,9,2,2
17,5,-11,-11,14,-3,5,16,0,11,3,3
20,7,-12,-14,16,-2,5,16,1,12,4,3
21,8,-12,-15,17,-2,5,15,2,13,4,3
21,9,-11,-15,16,-1,5,14,4,14,4,4
21,10,-10,-15,15,0,6,14,4,15,5,5
20,10,-9,-15,14,0,6,13,2,14,5,5
18,8,-8,-13,13,0,6,13,0,11,4,5
16,7,-8,-12,12,0,6,12,-3,8,3,4
15,6,-8,-11,12,-1,6,12,-3,6,3,4
15,7,-8,-11,12,0,7,12,-1,8,3,4
16,8,-8,-12,12,0,8,12,1,10,4,4
16,7,-8,-12,12,0,7,10,1,10,3,3
14,6,-8,-10,11,-1,7,9,0,10,3,2
13,6,-7,-9,10,0,6,9,0,9,3,2
13,6,-7,-10,10,0,6,9,0,9,3,3
14,7,-6,-10,10,0,6,9,-1,9,3,3
13,7,-6,-10,9,0,6,9,0,9,3,4
12,7,-5,-10,9,0,6,9,0,9,3,3
12,6,-5,-9,9,0,6,8,-1,8,2,3
11,5,-5,-8,8,0,6,8,-1,6,2,3
11,5,-5,-8,8,0,7,8,-1,5,1,3
12,5,-6,-8,9,0,7,8,-1,5,1,3
12,4,-6,-8,9,0,7,8,-1,5,1,3
10,3,-6,-6,8,-1,8,8,-1,5,1,2
11,3,-7,-6,9,-2,8,8,-1,4,1,2
12,3,-8,-8,11,-2,9,8,-1,4,0,1
13,5,-8,-10,11,-1,10,9,0,5,1,2
13,6,-7,-11,11,-1,11,9,1,6,1,2
12,5,-7,-9,10,-1,11,9,2,7,1,2
9,2,-7,-6,8,-2,10,9,1,6,1,1
9,1,-7,-5,8,-3,10,8,0,5,0,1
9,1,-7,-5,8,-3,10,8,0,5,0,1
10,3,-6,-6,8,-1,12,9,1,4,1,1
10,4,-6,-7,8,-1,12,10,1,1,2,1
8,2,-6,-5,7,-1,13,9,1,-2,1,0
6,1,-5,-4,6,-2,13,9,0,-6,0,0
7,1,-6,-4,7,-2,13,9,-1,-10,0,0
8,1,-7,-4,8,-3,13,10,-1,-12,0,0
7,0,-7,-3,7,-4,14,10,-1,-13,0,0
6,-2,-8,-2,7,-5,14,11,0,-12,0,0
6,-3,-8,-1,7,-5,14,11,1,-11,-1,-1
5,-3,-7,0,6,-5,15,11,0,-12,-1,-1
3,-3,-6,0,5,-4,15,11,0,-12,-1,-1
2,-3,-5,0,4,-4,16,11,0,-13,-2,-1
3,-2,-5,0,4,-4,16,11,0,-13,-2,-1
4,-1,-5,-1,4,-3,16,11,0,-13,-1,-1
4,0,-5,-2,4,-2,17,12,1,-12,0,0
5,0,-5,-2,4,-2,17,13,1,-12,0,1
4,-1,-5,-1,4,-2,18,13,0,-12,0,1
3,-3,-5,0,4,-3,18,13,0,-12,0,1
2,-4,-5,0,4,-4,19,13,1,-12,0,1
3,-4,-6,0,5,-4,19,13,1,-12,-1,0
3,-4,-6,0,5,-5,19,13,1,-13,-2,0
1,-4,-5,1,3,-5,19,13,1,-14,-2,-1
0,-4,-4,2,2,-4,19,12,1,-15,-2,-1
1,-3,-3,1,2,-3,19,12,0,-15,-2,-1
2,-2,-3,0,2,-3,19,13,0,-16,-2,-1
3,-1,-4,-1,4,-3,20,13,0,-16,-2,-1
4,-1,-4,-2,4,-2,20,13,0,-15,-2,0
4,-1,-4,-1,4,-2,20,13,0,-15,-2,0
3,-1,-4,-1,4,-2,20,12,0,-15,-3,0
2,-2,-4,0,3,-3,19,12,0,-15,-3,0
1,-3,-3,1,2,-3,19,11,0,-16,-4,-1
0,-4,-2,2,1,-3,19,11,-1,-18,-4,-1
-2,-4,-1,3,0,-2,19,10,-2,-19,-4,-1
-3,-4,-1,4,-1,-2,19,10,-3,-19,-4,-1
-3,-4,-1,4,-1,-2,19,10,-4,-20,-4,-1
-4,-5,-1,4,-1,-3,19,10,-4,-20,-4,-1
-3,-5,-2,4,0,-3,19,9,-4,-20,-4,-1
-2,-4,-1,3,0,-3,20,9,-3,-19,-4,-1
-1,-2,0,2,0,-1,20,10,-1,-17,-2,0
0,-1,0,1,1,-1,20,9,-2,-18,-2,1
0,-1,0,1,0,-1,18,8,-4,-20,-3,0
-3,-3,0,3,-1,-2,17,6,-5,-21,-4,0
-5,-5,0,5,-2,-2,17,6,-5,-21,-4,0
-5,-6,0,5,-2,-3,17,6,-5,-21,-4,0
-5,-7,-1,6,-1,-4,17,6,-6,-22,-5,-1
-6,-8,-2,7,-1,-5,17,6,-6,-22,-6,-1
-6,-7,0,6,-2,-4,18,7,-5,-21,-4,0
-4,-4,0,5,-2,-2,18,7,-3,-20,-2,2
-4,-4,0,5,-2,-2,18,7,-3,-19,-2,2
-6,-6,0,6,-2,-3,18,6,-3,-20,-3,1
-6,-6,0,7,-2,-3,18,6,-3,-20,-3,1
-5,-5,0,5,-2,-2,18,7,-1,-18,-3,2
-4,-3,2,4,-3,0,19,7,0,-16,-1,3
-5,-3,3,4,-4,0,18,7,0,-16,-1,4
-6,-3,3,4,-5,0,17,6,-3,-17,-1,4
-4,-2,2,3,-3,0,17,5,-4,-19,-1,4
-1,-1,1,2,-1,0,16,5,-4,-19,-1,4
0,0,1,0,-1,1,16,6,-3,-19,0,5
0,1,2,0,-1,2,17,6,-2,-18,0,6
0,3,3,-1,-2,3,18,7,-1,-17,1,7
1,4,4,-2,-1,4,19,9,0,-16,2,8
2,4,3,-3,-1,4,20,9,0,-16,3,8
1,2,2,-1,-1,2,19,9,0,-17,2,8
-1,0,2,0,-1,1,18,8,-1,-17,2,8
-2,0,3,1,-2,1,19,9,0,-17,3,9
-2,2,4,0,-3,3,19,10,1,-15,4,10
-2,2,5,0,-3,3,19,10,3,-14,4,10
-4,2,6,1,-4,4,19,10,4,-13,4,9
-5,2,7,1,-6,4,19,10,5,-12,5,9
-4,3,7,0,-6,5,18,10,4,-12,5,9
-4,4,8,0,-6,6,18,10,3,-13,5,10
-4,5,9,-1,-6,7,17,10,4,-12,6,11
-2,6,9,-2,-6,8,18,11,6,-11,7,12
-1,7,9,-3,-5,8,18,11,8,-10,8,12
-1,7,9,-2,-5,8,18,11,10,-8,8,13
-2,7,10,-2,-6,8,17,11,11,-7,9,13
-4,7,11,-1,-7,9,17,11,10,-7,9,13
-5,8,13,-1,-9,10,17,11,9,-8,10,14
-5,10,15,-2,-10,12,17,11,9,-8,11,15
-3,11,15,-4,-9,13,17,11,10,-6,12,16
-1,13,14,-6,-8,14,16,10,11,-5,12,16
0,14,14,-7,-7,14,15,10,11,-5,13,17
0,14,15,-7,-7,14,15,10,11,-5,13,17
-2,13,16,-6,-8,14,14,10,11,-5,14,17
-4,13,17,-4,-10,15,13,9,11,-6,14,17
-6,12,18,-3,-12,15,12,8,11,-6,14,17
-6,12,18,-3,-12,15,11,7,11,-7,13,17
-6,12,19,-3,-13,16,11,7,12,-6,14,17
-6,14,20,-4,-13,17,11,7,12,-5,15,18
-5,16,22,-5,-14,19,11,7,13,-4,16,19
-5,17,23,-6,-13,20,10,7,13,-4,17,20
-5,16,22,-5,-13,19,9,6,12,-5,17,19
-7,13,20,-3,-13,16,8,6,11,-6,15,18
-7,11,18,-2,-12,14,8,5,10,-8,14,17
-5,12,16,-3,-11,14,8,5,8,-10,13,17
-4,12,16,-4,-11,14,8,5,8,-10,13,17
-6,12,18,-3,-12,15,8,5,10,-8,14,17
-7,12,20,-2,-14,16,8,5,12,-5,15,17
-8,13,21,-2,-14,17,9,6,13,-3,15,17
-7,14,21,-3,-14,18,10,6,14,-2,16,18
-6,15,21,-4,-14,18,11,7,14,-2,17,18
-8,12,21,-1,-15,16,12,7,12,-5,15,18
-11,8,20,1,-16,14,11,6,10,-8,14,16
-11,7,19,2,-16,13,11,7,11,-8,14,16
-11,6,19,2,-15,13,11,7,13,-7,14,16
-13,4,18,5,-16,11,11,5,12,-7,12,14
-16,1,17,8,-17,9,11,4,9,-9,11,12
-17,0,17,9,-17,9,12,4,7,-10,10,11
-16,0,17,8,-16,8,13,5,8,-10,11,12
-14,2,16,6,-15,9,14,7,10,-9,13,13
-13,3,17,5,-15,9,14,8,12,-7,14,14
-15,2,18,7,-16,9,14,8,13,-7,13,14
-18,0,18,9,-17,8,14,6,11,-8,12,13
-19,-3,17,11,-18,7,14,5,8,-11,10,12
-20,-4,16,12,-18,6,13,4,6,-14,9,11
-20,-5,15,12,-17,5,14,5,6,-15,8,10
-19,-4,15,12,-17,5,14,5,7,-14,8,10
-21,-6,15,13,-18,4,13,4,8,-14,8,9
-23,-8,15,15,-19,3,12,3,7,-14,8,8
-23,-7,15,15,-19,3,12,3,7,-14,9,9
-22,-6,15,14,-19,4,13,4,7,-13,9,9
-20,-4,16,13,-18,6,13,4,8,-13,10,9
-20,-3,17,12,-19,7,14,4,8,-12,10,9
-20,-2,18,11,-19,8,14,4,9,-12,11,10
-18,-2,17,10,-18,8,14,4,9,-12,11,10
-18,-2,16,10,-17,7,15,5,10,-11,11,10
-17,0,17,9,-17,8,16,6,12,-10,12,11
-17,0,18,9,-17,9,16,6,13,-9,12,12
-20,0,19,10,-19,9,16,5,10,-11,12,11
-22,-2,19,12,-21,9,15,4,7,-14,10,11
-23,-4,19,13,-21,8,14,3,6,-15,9,10
-23,-5,19,14,-21,7,14,4,8,-15,10,10
-23,-4,19,13,-20,7,15,4,10,-13,10,10
-22,-4,19,13,-20,7,14,4,11,-12,10,9
-22,-3,19,13,-21,8,13,4,11,-11,10,9
-23,-3,20,13,-21,8,13,3,11,-11,10,8
-23,-4,19,14,-21,7,13,3,10,-12,10,8
-23,-4,18,14,-20,7,13,4,9,-14,10,8
-22,-3,18,13,-20,8,14,5,8,-15,10,10
-22,-3,19,12,-20,8,16,6,9,-15,11,11
-23,-4,19,14,-21,8,16,6,9,-16,10,11
-24,-5,19,15,-22,7,16,6,8,-16,9,10
-24,-5,18,14,-21,6,16,6,9,-15,9,9
-23,-4,19,13,-21,7,16,6,11,-13,10,10
-23,-3,19,13,-21,7,16,6,11,-13,10,10
-23,-3,19,13,-21,7,16,6,11,-13,10,9
-23,-5,18,14,-20,6,16,6,9,-15,9,8
-23,-6,16,14,-20,5,16,6,8,-16,9,7
-23,-7,16,15,-19,4,16,8,8,-15,9,6
-22,-7,16,14,-19,4,18,11,10,-14,9,7
-20,-4,16,12,-18,5,20,14,11,-14,9,8
-17,-1,16,9,-17,7,21,17,13,-13,10,9
-15,1,16,7,-16,8,22,19,16,-10,13,12
-14,2,15,6,-15,8,22,22,21,-6,16,15
-12,4,15,4,-13,9,21,24,27,0,21,18
-7,7,15,0,-11,11,17,25,35,7,27,23
-4,11,15,-3,-9,13,11,22,42,15,34,28
-2,12,14,-5,-8,13,4,16,47,22,40,33
2,16,13,-9,-5,14,-6,7,52,29,47,39
10,23,13,-16,-2,18,-18,-2,57,38,57,48
18,33,14,-25,1,23,-31,-12,64,49,69,60
27,45,18,-36,4,31,-46,-23,73,62,84,72
35,59,23,-47,6,41,-59,-33,83,75,99,86
44,74,30,-59,7,52,-71,-41,92,88,115,101
50,89,38,-69,6,64,-82,-49,101,100,129,115
53,102,49,-77,2,76,-94,-57,109,111,142,128
54,114,60,-83,-2,87,-105,-64,116,120,153,139
54,125,71,-89,-8,98,-116,-71,123,130,163,148
52,138,86,-94,-17,112,-128,-78,134,142,174,159
46,148,102,-96,-29,125,-139,-82,147,156,186,170
33,152,118,-92,-43,135,-144,-82,161,170,194,177
17,148,131,-82,-57,139,-144,-79,171,178,196,177
1,138,137,-70,-67,138,-138,-74,175,178,189,169
-12,124,136,-57,-73,131,-128,-66,173,169,175,155
-24,107,131,-42,-76,119,-115,-55,166,154,154,136
-34,87,122,-26,-77,104,-102,-45,154,133,129,114
-42,68,111,-12,-76,89,-89,-41,134,108,101,90
-49,51,101,0,-76,76,-76,-42,108,79,73,66
-56,37,93,10,-75,65,-64,-45,81,51,49,46
-60,27,87,16,-74,57,-53,-47,57,27,30,31
-60,20,80,20,-70,50,-43,-49,36,7,16,20
-59,14,73,22,-65,43,-34,-51,17,-10,5,11
-58,7,65,25,-61,36,-27,-50,2,-23,-3,4
-58,1,58,28,-57,30,-20,-47,-7,-31,-8,-1
-55,-3,51,29,-53,24,-13,-42,-11,-36,-12,-4
-51,-6,44,29,-48,19,-7,-36,-13,-38,-14,-5
-47,-8,39,28,-44,15,-2,-30,-14,-39,-15,-6
-44,-7,35,26,-40,14,2,-23,-13,-40,-14,-6
-41,-6,34,24,-38,14,7,-17,-11,-37,-12,-4
-41,-7,33,24,-37,14,10,-13,-8,-35,-10,-4
-43,-11,31,26,-37,11,11,-10,-7,-34,-10,-4
-43,-14,29,28,-36,8,13,-8,-6,-34,-10,-5
-42,-15,27,29,-35,6,16,-4,-4,-33,-10,-5
-42,-16,26,29,-35,5,19,0,-3,-32,-9,-5
-41,-16,25,29,-33,4,22,2,-2,-31,-9,-5
-39,-16,22,27,-31,3,23,4,-1,-30,-9,-5
-35,-15,20,25,-28,3,23,5,0,-29,-8,-5
-33,-14,19,23,-26,3,23,5,1,-28,-7,-5
-35,-15,20,25,-27,3,23,6,2,-28,-6,-4
-39,-17,21,27,-30,2,23,6,2,-28,-6,-4
-41,-18,22,29,-31,2,23,6,1,-28,-7,-5
-41,-18,23,29,-32,2,23,7,1,-29,-7,-5
-41,-17,23,29,-33,2,24,7,1,-29,-7,-5
-41,-17,23,29,-33,2,24,8,2,-28,-7,-5
-41,-17,23,29,-33,2,24,8,2,-27,-7,-5
-40,-17,22,29,-32,2,25,9,3,-26,-7,-5
-38,-15,22,27,-30,3,25,9,3,-26,-7,-5
-37,-14,23,25,-30,4,25,9,2,-27,-7,-4
-37,-13,23,25,-30,4,25,9,2,-27,-7,-4
-36,-14,22,25,-29,4,25,9,2,-28,-7,-5
-36,-15,21,25,-29,3,25,9,2,-28,-8,-5
-38,-16,20,27,-29,2,24,9,3,-27,-8,-6
-39,-17,20,28,-30,1,24,9,3,-27,-8,-6
-38,-17,20,28,-30,1,24,9,3,-27,-8,-6
-38,-17,20,28,-30,1,24,8,3,-27,-8,-5
-39,-18,21,29,-30,1,24,8,3,-27,-7,-5
-40,-18,23,29,-31,2,24,9,3,-27,-7,-4
-40,-16,23,28,-31,3,24,9,4,-26,-6,-4
-38,-15,23,26,-30,3,24,9,4,-26,-6,-4
-37,-15,22,26,-30,3,24,9,3,-27,-7,-5
-38,-16,22,27,-30,2,24,9,1,-29,-8,-6
-39,-17,21,28,-30,2,24,9,1,-31,-9,-6
-40,-17,22,29,-31,2,25,9,2,-30,-9,-6
-41,-18,23,29,-31,2,24,9,2,-30,-9,-6
-41,-18,23,30,-31,2,24,9,2,-30,-9,-7
-41,-18,23,29,-31,2,23,9,2,-29,-9,-7
-40,-17,23,29,-31,2,23,9,2,-28,-8,-7
-40,-17,22,29,-31,2,23,9,2,-28,-8,-7
-38,-17,21,28,-30,2,24,9,1,-28,-8,-7
-37,-16,21,27,-29,2,24,10,1,-28,-8,-7
-37,-17,20,27,-29,2,24,10,1,-28,-8,-7
-35,-16,19,25,-27,1,23,10,2,-27,-8,-7
-32,-14,18,23,-25,2,23,10,3,-25,-8,-7
-33,-13,20,23,-27,3,23,10,3,-24,-7,-7
-37,-14,21,25,-29,3,23,9,2,-25,-8,-8
-39,-16,22,28,-31,3,23,9,0,-27,-9,-8
-39,-16,22,28,-30,2,24,10,0,-28,-9,-8
-36,-15,21,26,-28,2,25,11,0,-28,-9,-7
-33,-13,20,23,-26,2,26,12,0,-28,-9,-7
-32,-13,19,22,-25,2,26,12,0,-27,-9,-7
-31,-13,18,22,-25,1,26,12,1,-27,-10,-8
-32,-14,18,23,-25,1,26,12,2,-25,-10,-8
-34,-15,19,25,-27,1,25,11,4,-23,-10,-9
-36,-15,19,26,-28,1,24,11,3,-22,-10,-9
-37,-16,20,26,-28,2,24,10,1,-24,-11,-9
-39,-17,20,28,-29,1,24,10,-1,-26,-12,-9
-41,-19,21,30,-31,1,24,10,-1,-27,-12,-10
-41,-21,20,31,-30,0,23,10,-1,-27,-12,-10
-38,-21,18,29,-28,-1,23,10,-1,-27,-13,-11
-36,-20,17,28,-26,-1,23,10,-2,-28,-14,-11
-35,-19,16,27,-25,-1,24,11,-3,-29,-14,-11
-34,-17,16,25,-25,0,25,12,-2,-28,-14,-11
-31,-14,16,23,-24,1,26,14,0,-26,-13,-10
-32,-15,17,23,-25,1,25,14,0,-25,-13,-10
-37,-19,17,27,-27,-1,24,13,0,-26,-14,-12
-40,-22,18,30,-28,-2,23,12,-2,-27,-15,-13
-40,-23,18,31,-28,-2,24,12,-3,-28,-16,-13
-40,-24,17,31,-28,-3,24,12,-3,-28,-16,-13
-39,-23,16,31,-27,-3,24,13,-2,-27,-16,-12
-39,-23,16,31,-27,-3,24,14,-1,-26,-16,-12
-38,-22,16,30,-27,-3,23,14,-1,-26,-16,-12
-36,-20,15,28,-26,-2,23,15,-2,-26,-16,-12
-35,-19,15,27,-25,-2,22,15,-2,-27,-16,-12
-34,-19,15,26,-24,-2,22,16,-2,-27,-16,-12
-33,-19,14,26,-23,-2,23,16,-2,-26,-16,-12
-33,-19,14,25,-23,-2,23,17,-1,-26,-16,-11
-33,-18,14,25,-23,-2,23,17,0,-25,-16,-11
-31,-17,14,25,-23,-1,23,18,0,-25,-16,-11
-29,-16,13,23,-21,-1,23,19,0,-24,-16,-10
-28,-14,12,21,-20,0,23,20,1,-23,-15,-9
-26,-12,12,19,-19,0,23,21,3,-21,-13,-8
-24,-10,13,17,-19,1,23,23,5,-20,-12,-7
-23,-9,13,15,-18,2,23,24,5,-19,-11,-6
-23,-9,13,16,-18,2,22,24,5,-19,-10,-6
-25,-12,13,18,-18,0,21,23,4,-19,-11,-7
-26,-15,12,21,-18,-1,19,22,4,-20,-11,-7
-26,-17,10,22,-17,-3,18,22,4,-21,-12,-7
-25,-17,8,22,-16,-4,17,22,4,-20,-13,-7
-24,-17,7,21,-15,-4,16,22,4,-19,-12,-7
-24,-15,8,19,-16,-3,16,23,6,-18,-11,-6
-22,-12,8,17,-16,-2,16,24,8,-16,-9,-4
-20,-10,8,15,-15,-1,16,25,9,-15,-7,-3
-18,-8,9,13,-14,0,16,25,9,-14,-6,-2
-16,-6,9,12,-13,1,15,25,9,-14,-5,-1
-14,-4,10,10,-13,2,16,25,10,-12,-4,0
-12,-2,11,7,-12,4,16,25,11,-11,-3,0
-11,-2,10,6,-11,4,15,25,10,-11,-2,1
-11,-1,10,6,-10,4,14,25,10,-11,-2,2
-9,0,9,5,-9,4,14,25,11,-10,-1,3
-7,1,8,3,-7,5,13,25,12,-10,0,4
-6,2,8,2,-6,4,13,25,12,-10,0,4
-7,1,8,3,-7,4,12,24,11,-10,0,5
-10,-2,8,7,-9,2,11,24,11,-10,0,4
-14,-6,8,10,-10,1,10,23,11,-9,0,4
-15,-7,8,11,-11,0,9,23,11,-8,1,4
-14,-5,8,9,-11,1,9,22,11,-8,2,4
-13,-4,9,8,-11,2,9,22,12,-7,3,5
-13,-3,10,8,-12,3,8,22,12,-7,3,5
-12,-2,10,7,-11,3,8,22,12,-7,3,6
-10,-1,9,6,-10,3,7,22,12,-6,4,6
-8,0,9,4,-9,4,7,22,13,-4,5,7
-7,1,9,3,-8,5,8,22,14,-3,6,8
-6,2,9,2,-7,6,8,23,14,-1,7,9
-6,2,8,2,-7,6,7,22,14,-1,7,9
-7,1,8,2,-7,5,6,21,14,-2,7,9
-6,1,8,2,-7,5,6,20,15,-2,7,10
-5,2,8,1,-6,5,6,20,15,-1,8,10
-3,3,8,0,-6,5,7,20,16,0,8,11
-2,4,7,-1,-5,6,7,20,16,0,9,11
-1,6,7,-2,-4,6,8,20,16,0,9,11
0,7,7,-3,-3,7,8,20,16,1,10,12
0,7,7,-3,-3,7,8,20,16,1,10,12
-1,6,6,-2,-3,7,7,19,16,0,10,11
-2,5,6,-1,-4,6,7,18,15,0,10,11
-2,5,7,-1,-4,6,7,17,15,0,10,12
-2,7,8,-2,-5,7,8,17,17,1,11,13
-2,7,9,-2,-5,8,9,18,17,2,12,13
-4,5,9,0,-6,7,8,17,16,1,11,13
-6,2,8,2,-7,5,7,15,13,-1,9,11
-7,0,7,3,-7,4,7,14,12,-2,8,10
-5,1,7,2,-6,4,7,14,12,-2,8,10
-4,2,6,1,-5,4,8,13,13,-1,9,11
-4,2,7,1,-6,5,8,13,14,0,9,11
-5,3,8,1,-7,5,8,12,14,0,9,11
-6,3,8,1,-7,6,8,11,13,-1,9,10
-6,3,8,1,-8,6,8,11,11,-2,9,10
-6,2,8,1,-7,6,8,10,11,-2,9,10
-6,1,7,2,-7,5,8,10,10,-3,8,10
-6,0,7,2,-7,4,8,10,11,-2,8,9
-7,1,8,2,-7,5,9,10,11,-2,8,9
-7,1,7,3,-7,4,9,9,11,-3,7,9
-6,0,6,3,-6,3,9,8,10,-4,6,8
-6,0,5,3,-6,2,8,7,10,-4,6,7
-7,0,6,3,-6,3,8,7,10,-3,6,7
-7,1,9,3,-8,4,9,8,12,-1,7,8
-8,2,11,3,-10,6,10,9,13,0,8,9
-9,2,12,3,-11,7,11,9,12,0,8,9
-8,2,12,3,-10,7,11,9,12,-1,8,9
-7,2,10,2,-9,6,11,9,11,-2,7,8
-9,0,9,4,-9,5,11,8,10,-3,7,7
-12,-2,9,6,-10,3,11,8,10,-4,6,6
-13,-4,8,7,-10,2,11,8,9,-5,5,6
-12,-4,6,7,-9,1,11,8,8,-5,5,5
-10,-4,5,7,-8,0,11,8,8,-5,4,5
-9,-3,5,6,-7,1,11,8,9,-4,5,6
-7,-2,5,5,-6,1,12,9,10,-3,5,6
-7,-2,5,5,-6,1,12,8,9,-4,4,5
-7,-1,5,4,-6,1,12,8,8,-4,4,5
-6,0,6,3,-6,2,13,9,9,-4,4,6
-6,0,6,3,-6,3,13,10,10,-4,5,7
-7,0,7,3,-7,3,14,11,11,-3,5,8
-8,0,7,4,-7,3,14,11,11,-3,5,8
-6,0,6,3,-6,3,14,11,10,-3,5,8
-6,-1,5,4,-6,2,14,11,9,-4,5,7
-8,-4,5,6,-7,0,13,10,8,-5,4,6
-11,-7,4,9,-8,-1,13,9,7,-6,3,5
-11,-8,3,9,-7,-2,13,8,7,-6,2,5
-11,-8,2,9,-6,-3,12,8,7,-7,1,4
-10,-8,2,8,-6,-3,12,8,6,-7,1,4
-10,-7,2,8,-6,-2,13,9,6,-7,1,4
-9,-5,3,7,-6,-1,14,10,7,-6,1,5
-9,-5,3,7,-7,-1,14,11,8,-6,2,5
-10,-6,4,8,-7,-1,14,11,8,-6,1,5
-9,-6,3,8,-6,-2,14,11,7,-7,0,4
-7,-6,1,6,-4,-2,14,10,7,-7,0,4
-5,-5,0,5,-2,-3,14,10,6,-8,0,3
-5,-5,0,5,-2,-3,14,10,6,-8,0,3
-6,-5,1,6,-3,-2,14,10,6,-8,-1,3
-6,-5,1,6,-4,-2,14,10,6,-8,-1,3
-6,-4,1,5,-4,-1,14,10,6,-8,-1,3
-6,-4,1,5,-4,-1,14,11,6,-8,-1,3
-8,-5,2,6,-5,-2,14,11,6,-8,-1,3
-8,-5,2,6,-5,-1,14,11,6,-8,-1,3
-7,-4,3,5,-4,0,15,12,7,-7,0,4
-7,-3,4,4,-4,0,16,13,7,-6,0,5
-7,-3,4,5,-5,0,16,12,6,-7,-1,4
-7,-3,3,5,-4,0,15,12,5,-7,-1,3
-5,-3,2,4,-3,0,15,11,5,-8,-1,3
-4,-2,2,3,-3,0,14,11,5,-8,-1,3
-4,-2,2,3,-3,0,14,11,5,-8,-1,3
-5,-4,1,4,-3,-1,14,10,4,-9,-1,2
-6,-5,1,5,-3,-2,13,10,4,-10,-2,1
-7,-5,1,6,-3,-2,13,9,3,-10,-3,1
-6,-5,1,5,-3,-2,13,9,3,-11,-3,1
-5,-3,1,4,-3,-1,13,9,3,-11,-2,1
-4,-3,1,4,-3,-1,13,9,2,-11,-2,0
-6,-4,2,6,-4,-1,13,9,2,-11,-2,0
-8,-5,2,7,-5,-1,13,8,2,-11,-2,0
-8,-5,2,7,-5,-1,13,8,2,-11,-2,0
-6,-4,2,5,-4,0,14,9,2,-10,-1,0
-5,-2,3,4,-4,1,14,10,3,-9,0,1
-5,-2,3,4,-4,1,14,10,3,-9,0,1
-6,-3,2,4,-4,0,14,9,3,-9,-1,0
-5,-4,1,4,-3,-1,13,9,2,-9,-1,0
-5,-3,1,4,-3,-1,14,9,2,-9,-1,1
-4,-1,2,2,-3,0,14,10,3,-9,0,2
-1,1,2,0,-2,2,15,11,3,-8,0,3
1,3,2,-2,0,3,16,11,4,-7,1,4
3,5,1,-4,1,3,16,11,4,-6,1,4
3,5,1,-4,0,4,15,11,5,-6,1,5
4,6,1,-5,1,4,15,11,5,-5,2,5
7,8,0,-7,2,4,15,12,6,-5,3,5
7,9,1,-8,2,5,15,12,6,-4,3,6
4,7,3,-5,0,5,14,11,6,-5,3,6
1,5,4,-3,-1,4,13,10,5,-5,2,5
0,4,4,-2,-2,4,13,10,5,-5,2,5
0,4,4,-2,-2,4,12,10,5,-5,2,5
-1,3,5,-1,-3,4,11,10,5,-5,2,6
-2,2,5,0,-4,4,10,9,5,-5,2,6
-1,3,4,-1,-3,4,10,8,5,-4,3,6
0,5,4,-2,-2,5,10,9,6,-3,3,6
1,7,5,-4,-2,6,10,9,7,-3,4,7
1,8,6,-4,-2,7,9,9,8,-2,4,8
1,9,8,-5,-3,8,9,9,9,-1,5,9
2,10,8,-6,-3,9,9,9,9,-1,6,9
5,12,7,-8,-1,9,8,9,8,-1,6,9
8,13,5,-10,1,9,7,9,8,-1,6,10
10,15,5,-12,2,10,7,9,8,0,7,11
9,15,6,-12,1,11,6,8,9,0,7,12
6,14,7,-10,0,10,4,6,8,0,7,11
3,12,7,-8,-2,9,2,4,7,0,6,11
3,12,7,-8,-2,9,0,3,6,-1,6,10
5,12,7,-8,-1,9,0,2,6,-1,6,10
6,11,6,-8,0,9,-1,1,5,-2,5,10
5,9,5,-7,0,7,-2,1,3,-3,4,9
4,7,4,-6,0,6,-3,0,3,-4,4,8
3,6,4,-5,0,5,-3,0,3,-4,3,7
3,6,3,-4,0,4,-3,0,2,-4,3,7
2,5,2,-4,0,4,-3,-1,2,-4,3,7
3,5,1,-4,1,3,-3,-1,2,-4,3,7
3,5,1,-4,1,2,-2,0,2,-4,3,7
2,4,2,-2,0,2,-1,0,3,-3,3,8
1,3,2,-2,0,2,0,1,3,-3,3,8
1,3,1,-2,0,2,0,1,2,-3,3,8
2,2,0,-2,0,1,0,0,1,-4,2,7
2,2,0,-2,1,1,0,0,1,-4,2,7
2,2,-1,-2,1,1,1,0,1,-4,1,6
2,2,-1,-3,2,1,1,1,1,-4,1,6
2,1,-1,-2,2,0,1,1,1,-5,0,5
2,0,-2,-1,2,-1,1,0,0,-6,0,4
2,-2,-4,0,3,-3,1,0,-1,-7,-1,2
3,-4,-6,0,4,-5,1,0,-2,-8,-2,1
3,-5,-8,0,5,-7,1,0,-2,-8,-3,0
1,-7,-7,2,3,-7,1,0,-2,-8,-3,0
-4,-9,-5,7,0,-7,1,0,-2,-8,-3,0
-8,-11,-4,9,-2,-8,0,0,-2,-9,-3,0
-8,-12,-5,9,-1,-8,0,-1,-3,-10,-4,-1
-5,-12,-7,8,1,-9,0,-2,-4,-10,-5,-2
-2,-11,-9,6,4,-10,0,-3,-5,-10,-5,-2
-1,-11,-9,6,4,-10,0,-2,-5,-9,-5,-2
-1,-11,-9,6,4,-10,0,-2,-4,-9,-4,-2
-1,-10,-9,5,4,-9,0,-1,-4,-9,-4,-2
0,-9,-9,5,4,-9,0,-1,-5,-9,-4,-2
-1,-9,-9,5,4,-9,0,-2,-6,-10,-5,-2
-3,-11,-9,7,4,-10,0,-2,-6,-11,-6,-3
-3,-11,-9,7,4,-11,0,-2,-6,-11,-6,-3
-1,-10,-9,6,4,-10,0,-2,-6,-10,-6,-2
2,-8,-10,3,6,-9,0,-1,-5,-9,-5,-2
5,-7,-11,1,8,-9,0,-1,-5,-8,-5,-2
4,-8,-12,1,8,-10,0,-2,-6,-9,-6,-3
0,-12,-13,5,6,-12,-1,-4,-8,-11,-7,-5
-2,-14,-12,8,5,-13,-2,-4,-8,-11,-8,-5
-2,-13,-12,7,4,-12,-2,-4,-7,-10,-7,-5
-2,-13,-11,7,4,-12,-1,-3,-6,-9,-7,-4
-3,-14,-11,8,3,-12,-2,-4,-7,-9,-7,-5
-4,-14,-10,9,3,-12,-2,-4,-8,-9,-8,-5
-3,-14,-10,9,4,-13,-2,-4,-8,-10,-8,-6
-2,-14,-10,8,4,-13,-2,-4,-8,-10,-8,-6
-3,-14,-10,8,3,-13,-2,-3,-8,-9,-8,-5
-2,-14,-11,8,4,-13,-2,-3,-7,-9,-8,-5
0,-13,-13,7,6,-13,-2,-4,-8,-10,-8,-5
1,-12,-14,5,7,-13,-2,-4,-8,-10,-8,-4
2,-11,-14,5,7,-13,-2,-4,-8,-9,-8,-4
1,-12,-14,6,6,-13,-1,-4,-9,-9,-8,-4
-1,-14,-13,8,5,-14,-1,-4,-9,-9,-8,-4
-2,-14,-12,8,4,-14,-1,-3,-9,-9,-8,-4
-1,-14,-13,7,6,-14,-1,-3,-9,-10,-9,-4
1,-15,-16,7,8,-16,-2,-4,-10,-11,-10,-5
2,-15,-19,6,10,-17,-2,-4,-11,-12,-11,-6
3,-16,-20,6,11,-18,-1,-3,-11,-12,-11,-6
4,-16,-20,6,12,-18,0,-1,-11,-12,-11,-6
5,-15,-20,4,12,-17,2,2,-10,-11,-11,-6
6,-14,-20,3,13,-17,5,5,-8,-9,-10,-6
8,-12,-20,2,13,-16,6,8,-7,-8,-10,-5
10,-11,-21,0,15,-16,5,9,-5,-6,-8,-3
12,-9,-21,-2,17,-15,4,10,-2,-3,-5,-1
14,-7,-21,-4,18,-14,3,12,2,0,-2,1
16,-4,-20,-6,18,-12,1,13,7,5,3,5
20,0,-21,-10,20,-10,-3,12,13,12,8,9
25,4,-22,-14,23,-9,-9,8,18,19,14,14
29,7,-22,-18,25,-7,-18,1,24,26,21,20
32,10,-22,-21,26,-6,-29,-9,29,34,28,26
37,16,-21,-27,28,-2,-43,-20,34,43,38,35
43,25,-18,-35,31,3,-57,-32,41,54,50,46
52,38,-14,-45,33,12,-71,-44,49,66,64,58
62,54,-9,-58,36,23,-84,-53,59,79,79,72
73,70,-3,-71,38,34,-96,-62,68,92,94,86
81,85,3,-83,39,44,-108,-71,75,103,107,99
85,97,12,-91,36,54,-121,-80,81,113,119,110
83,106,23,-95,30,65,-133,-89,87,122,129,120
79,116,38,-98,20,77,-146,-97,96,133,140,130
75,128,54,-102,10,91,-159,-104,107,146,152,142
68,139,71,-103,-2,105,-169,-107,119,159,163,152
57,143,85,-100,-14,114,-172,-105,132,171,171,159
43,140,96,-92,-26,118,-169,-100,141,178,172,159
28,130,101,-79,-37,116,-163,-93,146,178,165,151
13,114,100,-64,-43,107,-152,-83,145,170,151,137
1,96,94,-49,-46,95,-138,-69,140,156,131,118
-7,77,85,-35,-47,82,-122,-56,128,136,107,97
-15,60,76,-22,-46,68,-107,-49,108,111,81,75
-21,45,67,-12,-44,56,-92,-49,83,84,55,53
-25,33,58,-4,-42,46,-78,-51,57,57,33,34
-27,23,50,1,-39,37,-66,-53,34,35,15,20
-29,14,41,7,-36,28,-57,-55,12,15,0,8
-30,4,33,12,-31,18,-49,-57,-7,-2,-11,-2
-28,-3,23,16,-26,10,-42,-56,-22,-15,-19,-9
-25,-9,15,17,-20,2,-35,-53,-30,-23,-25,-14
-22,-13,8,17,-14,-3,-29,-48,-35,-28,-28,-18
-19,-16,3,17,-10,-7,-22,-42,-36,-30,-29,-19
-17,-18,0,18,-8,-9,-16,-36,-36,-31,-30,-20
-16,-19,-3,17,-6,-11,-11,-31,-35,-30,-30,-20
-13,-19,-7,16,-3,-13,-8,-26,-34,-29,-29,-21
-10,-20,-11,14,0,-14,-6,-22,-32,-28,-29,-21
-9,-20,-12,14,1,-15,-3,-18,-30,-25,-27,-20
-9,-21,-12,15,2,-17,0,-14,-27,-23,-26,-19
-8,-23,-14,15,3,-19,2,-11,-25,-22,-26,-19
-8,-26,-17,17,4,-21,3,-10,-25,-22,-26,-19
-10,-30,-19,20,4,-24,3,-9,-26,-23,-27,-21
-12,-32,-20,23,3,-26,4,-8,-26,-24,-28,-22
-12,-32,-20,22,3,-26,5,-7,-26,-24,-28,-22
-11,-31,-20,21,3,-25,6,-5,-26,-23,-27,-21
-11,-30,-20,20,3,-25,6,-4,-25,-23,-27,-21
-9,-28,-20,18,4,-24,6,-4,-24,-22,-26,-20
-8,-27,-20,17,5,-24,7,-4,-23,-21,-26,-20
-8,-26,-19,16,5,-23,7,-3,-21,-20,-25,-20
-7,-26,-19,16,5,-23,8,-2,-20,-20,-25,-19
-7,-25,-19,16,5,-22,9,-2,-20,-19,-24,-19
-7,-25,-19,16,5,-22,10,-1,-20,-19,-24,-19
-7,-25,-19,16,5,-22,10,-1,-20,-19,-24,-19
-7,-25,-19,15,6,-22,10,-1,-20,-18,-24,-19
-7,-26,-19,16,6,-23,9,-1,-21,-19,-24,-20
-8,-27,-19,17,6,-23,9,-2,-21,-19,-25,-21
-8,-27,-19,17,5,-23,9,-1,-21,-19,-24,-21
-7,-26,-19,16,6,-22,10,-1,-21,-19,-24,-21
-5,-24,-19,14,7,-22,10,0,-21,-19,-24,-20
-4,-23,-19,14,7,-21,11,0,-20,-18,-24,-20
-6,-25,-19,15,6,-21,11,0,-20,-18,-24,-20
-8,-27,-19,17,5,-22,10,0,-21,-19,-24,-21
-9,-27,-19,18,4,-22,10,0,-20,-18,-24,-21
-9,-27,-18,18,4,-22,10,0,-20,-18,-24,-21
-11,-27,-17,19,3,-22,10,0,-20,-18,-24,-21
-11,-27,-17,19,2,-22,10,0,-20,-18,-24,-22
-10,-26,-16,18,2,-21,11,0,-20,-18,-24,-22
-10,-26,-16,18,1,-20,11,0,-20,-18,-24,-22
-10,-26,-15,18,1,-20,12,1,-20,-19,-24,-22
-11,-26,-15,19,1,-20,12,1,-20,-19,-24,-22
-13,-27,-15,20,0,-21,12,1,-21,-19,-24,-22
-13,-29,-16,21,1,-22,11,0,-21,-19,-25,-23
-12,-28,-16,20,2,-22,11,1,-21,-18,-25,-23
-10,-26,-17,18,3,-21,12,1,-20,-18,-25,-23
-8,-25,-17,17,4,-21,12,1,-21,-18,-25,-23
-9,-26,-18,17,4,-22,12,1,-22,-18,-25,-23
-11,-28,-18,19,3,-23,11,0,-23,-19,-26,-24
-12,-30,-18,20,2,-24,11,0,-24,-20,-26,-25
-12,-30,-18,20,3,-24,11,1,-23,-20,-26,-25
-11,-29,-18,19,3,-23,11,1,-23,-19,-26,-25
-10,-29,-18,19,3,-23,11,1,-22,-19,-27,-25
-11,-29,-18,20,3,-23,11,0,-23,-19,-27,-25
-12,-30,-18,22,2,-24,11,0,-24,-20,-28,-26
-13,-30,-17,22,1,-24,11,0,-24,-19,-28,-26
-14,-30,-16,22,0,-23,12,0,-23,-18,-28,-25
-14,-29,-16,21,0,-22,12,1,-22,-17,-27,-25
-13,-28,-16,20,1,-22,13,2,-22,-17,-27,-25
-11,-27,-16,19,2,-21,13,2,-22,-17,-27,-25
-10,-27,-16,19,2,-21,13,2,-22,-17,-27,-25
-11,-28,-16,20,2,-23,13,1,-23,-18,-28,-26
-13,-31,-17,22,2,-25,12,1,-24,-19,-29,-27
-13,-32,-18,23,2,-26,12,1,-25,-20,-30,-27
-13,-32,-19,22,2,-26,13,1,-25,-20,-30,-27
-12,-30,-19,21,2,-25,13,2,-24,-19,-30,-27
-13,-30,-18,21,2,-24,14,3,-24,-19,-30,-27
-13,-30,-17,21,1,-24,14,3,-25,-19,-31,-28
-13,-30,-17,22,1,-24,14,4,-25,-19,-31,-28
-14,-31,-17,22,1,-24,14,4,-25,-19,-32,-28
-14,-32,-17,23,0,-24,14,4,-25,-19,-32,-29
-14,-31,-17,23,0,-24,14,4,-25,-19,-32,-29
-12,-29,-17,20,1,-23,15,5,-24,-19,-32,-28
-10,-27,-16,18,2,-22,16,6,-23,-18,-31,-28
-11,-26,-16,18,2,-21,16,7,-23,-17,-31,-28
-12,-27,-16,19,1,-22,15,7,-24,-18,-32,-28
-14,-29,-17,21,1,-24,14,6,-25,-19,-33,-29
-15,-31,-17,23,1,-24,14,6,-26,-19,-34,-30
-16,-32,-15,24,0,-24,14,7,-25,-19,-33,-29
-18,-32,-13,25,-2,-23,15,8,-24,-18,-33,-29
-18,-32,-13,25,-3,-23,15,9,-23,-18,-33,-28
-18,-31,-13,24,-3,-22,16,10,-23,-17,-32,-28
-17,-30,-13,23,-2,-22,16,11,-23,-17,-32,-27
-15,-29,-15,22,0,-22,16,11,-23,-17,-32,-27
-13,-30,-17,21,1,-24,15,11,-24,-18,-33,-28
-12,-30,-18,21,2,-24,15,12,-24,-19,-34,-29
-11,-30,-19,21,3,-24,15,13,-24,-18,-33,-29
-10,-29,-19,20,4,-24,15,14,-23,-18,-33,-28
-10,-29,-19,20,3,-24,14,14,-23,-17,-32,-28
-11,-30,-19,20,3,-24,13,14,-22,-17,-32,-28
-12,-30,-19,20,3,-24,12,14,-21,-16,-32,-28
-11,-30,-19,20,4,-24,12,15,-20,-15,-31,-27
-10,-29,-19,19,4,-24,12,16,-19,-13,-30,-26
-10,-28,-17,19,4,-23,12,17,-18,-11,-29,-25
-9,-26,-17,17,4,-22,12,18,-17,-10,-28,-24
-5,-24,-19,15,7,-22,11,18,-17,-10,-27,-23
-3,-23,-20,12,8,-21,10,18,-16,-9,-26,-23
-2,-22,-20,11,8,-21,10,18,-16,-9,-25,-22
-2,-21,-20,11,8,-20,10,19,-15,-8,-24,-21
-1,-20,-19,10,9,-20,10,19,-15,-7,-23,-20
0,-19,-20,9,9,-20,10,20,-14,-6,-22,-19
0,-19,-19,9,9,-20,10,20,-14,-5,-21,-18
-1,-19,-18,10,8,-19,10,20,-13,-4,-20,-17
-1,-19,-18,10,8,-19,9,21,-11,-3,-19,-16
0,-18,-19,8,9,-18,9,21,-10,-2,-18,-15
1,-17,-19,8,9,-18,8,21,-10,-2,-17,-15
0,-18,-19,8,9,-18,7,21,-11,-2,-17,-15
-1,-19,-19,9,8,-18,6,20,-11,-2,-17,-15
-1,-20,-19,10,8,-18,5,20,-11,-2,-17,-15
-1,-19,-19,9,8,-18,5,20,-11,-1,-16,-14
0,-16,-17,8,9,-17,5,21,-9,0,-14,-12
1,-14,-16,6,9,-15,5,22,-8,2,-13,-11
3,-12,-16,4,9,-15,4,22,-8,3,-12,-10
5,-11,-17,3,10,-15,3,21,-7,3,-11,-10
7,-10,-18,1,12,-14,3,21,-7,3,-11,-9
8,-10,-18,0,12,-14,3,21,-7,4,-10,-8
8,-10,-18,1,12,-14,3,21,-7,4,-9,-7
7,-10,-17,1,12,-14,2,21,-7,4,-8,-6
7,-9,-17,1,12,-14,2,21,-7,5,-8,-5
8,-9,-18,1,13,-14,2,21,-6,5,-7,-5
7,-10,-18,1,12,-15,2,21,-6,6,-7,-5
6,-11,-18,2,11,-15,1,20,-6,6,-7,-5
7,-11,-19,2,12,-15,0,19,-7,6,-7,-5
8,-11,-20,0,14,-15,0,18,-7,7,-7,-4
9,-9,-20,-1,14,-14,0,18,-6,7,-6,-4
10,-8,-19,-2,15,-14,0,18,-5,8,-6,-3
10,-7,-19,-2,15,-13,0,18,-5,8,-6,-3
10,-7,-17,-1,14,-13,0,17,-5,8,-5,-2
10,-6,-17,-2,13,-12,0,17,-5,8,-5,-1
10,-5,-17,-3,13,-11,0,16,-5,9,-4,0
11,-5,-17,-3,13,-11,0,16,-5,9,-3,0
11,-4,-16,-4,13,-10,0,16,-5,9,-3,1
11,-4,-15,-4,12,-10,0,16,-5,9,-2,2
11,-4,-15,-3,12,-10,0,15,-5,9,-3,2
10,-5,-15,-3,12,-11,0,13,-6,9,-4,1
9,-5,-16,-2,12,-11,-1,12,-6,9,-4,1
8,-6,-15,-2,12,-11,-1,11,-6,9,-4,1
9,-5,-15,-2,11,-10,-1,11,-7,9,-4,1
10,-4,-15,-3,12,-10,0,11,-7,8,-4,1
11,-4,-16,-4,13,-10,0,10,-7,8,-4,1
11,-5,-16,-3,13,-10,0,9,-8,8,-5,1
11,-5,-16,-3,13,-10,0,9,-8,8,-5,1
11,-5,-16,-3,13,-10,0,8,-8,8,-5,1
10,-6,-16,-2,13,-11,-1,8,-8,8,-5,0
9,-6,-17,-1,13,-12,-1,7,-9,7,-6,0
10,-6,-17,-2,13,-12,-1,7,-9,7,-6,0
11,-5,-17,-3,14,-11,0,6,-8,8,-6,0
10,-4,-15,-3,12,-10,0,6,-8,8,-5,0
9,-4,-14,-3,11,-10,0,6,-8,9,-5,1
8,-5,-13,-2,10,-9,0,6,-8,9,-5,1
7,-6,-13,-1,10,-9,0,6,-8,9,-5,1
6,-7,-13,0,9,-10,0,6,-9,8,-6,0
6,-8,-14,0,10,-11,0,5,-10,7,-7,0
6,-9,-15,1,10,-11,0,5,-10,7,-7,-1
5,-10,-15,3,9,-12,0,5,-10,6,-8,-1
3,-11,-14,4,8,-13,0,4,-10,6,-8,-2
3,-11,-14,4,8,-12,0,4,-10,6,-8,-2
5,-9,-15,1,10,-12,0,5,-10,6,-8,-2
7,-8,-16,0,11,-12,0,5,-10,6,-8,-2
7,-10,-17,1,12,-13,0,5,-10,6,-8,-3
6,-11,-18,2,12,-14,0,5,-11,5,-9,-4
6,-11,-17,3,11,-14,0,5,-11,5,-9,-4
5,-12,-17,4,10,-14,1,6,-10,5,-9,-4
4,-12,-17,4,10,-15,1,6,-10,5,-9,-4
3,-13,-17,5,10,-15,1,6,-10,5,-9,-5
4,-14,-18,5,10,-16,1,6,-10,4,-9,-5
5,-13,-19,3,12,-16,1,6,-11,4,-9,-5
7,-11,-19,2,13,-15,2,7,-11,3,-9,-5
7,-10,-18,2,12,-15,3,8,-10,4,-8,-4
5,-11,-18,3,11,-15,3,8,-9,4,-8,-4
4,-12,-17,4,10,-15,4,9,-9,4,-9,-5
3,-13,-16,5,9,-15,4,9,-9,4,-9,-5
1,-14,-16,6,8,-15,4,9,-9,4,-9,-5
1,-15,-16,6,8,-15,4,8,-11,3,-10,-6
3,-15,-18,5,10,-16,3,8,-12,2,-11,-7
4,-14,-19,4,11,-16,4,9,-13,1,-12,-6
5,-14,-19,4,12,-16,4,9,-12,1,-12,-6
6,-14,-19,3,12,-17,5,10,-12,2,-12,-5
6,-14,-20,3,13,-17,5,10,-12,1,-12,-6
6,-15,-21,4,13,-18,5,9,-12,0,-13,-7
5,-16,-22,5,13,-19,4,9,-13,0,-14,-8
4,-17,-22,6,13,-19,4,9,-14,0,-15,-8
4,-17,-21,6,12,-19,5,9,-13,0,-14,-8
3,-17,-20,7,12,-18,6,9,-13,0,-14,-8
3,-17,-21,7,12,-19,6,9,-13,0,-14,-9
3,-17,-21,7,11,-19,6,9,-13,0,-14,-9
3,-16,-20,6,11,-18,6,9,-13,0,-14,-9
4,-15,-19,5,11,-17,6,9,-13,0,-14,-9
6,-13,-20,3,13,-17,7,9,-13,0,-14,-9
8,-12,-20,2,14,-16,7,9,-13,0,-14,-9
8,-11,-19,1,13,-15,7,9,-13,0,-14,-9
7,-12,-19,2,13,-15,7,8,-13,-1,-15,-9
7,-14,-21,3,13,-17,6,7,-15,-3,-17,-10
5,-16,-21,5,12,-18,5,6,-16,-5,-18,-11
3,-16,-20,6,11,-18,5,6,-16,-5,-18,-11
2,-16,-18,6,9,-17,6,6,-16,-4,-17,-11
2,-16,-18,6,9,-16,6,6,-15,-4,-17,-11
1,-17,-18,7,8,-17,6,5,-16,-4,-18,-12
0,-18,-18,8,8,-17,5,4,-17,-5,-18,-13
2,-17,-18,7,9,-17,6,4,-17,-5,-18,-13
2,-16,-18,6,10,-17,6,4,-17,-5,-18,-12
2,-16,-18,7,9,-17,5,4,-17,-5,-18,-12
2,-16,-18,7,9,-17,5,3,-17,-5,-18,-12
3,-15,-18,6,10,-16,5,3,-17,-5,-18,-12
3,-14,-18,5,10,-16,4,3,-17,-5,-18,-13
3,-14,-18,5,11,-16,4,2,-17,-5,-18,-13
3,-14,-18,5,10,-16,4,2,-18,-5,-18,-13
3,-13,-17,5,10,-15,5,2,-18,-5,-17,-12
4,-12,-17,4,10,-15,5,3,-18,-4,-17,-12
6,-11,-17,2,11,-14,6,3,-18,-4,-16,-11
8,-9,-18,0,12,-14,6,3,-17,-3,-15,-11
9,-8,-18,0,13,-14,6,3,-17,-3,-15,-11
9,-8,-18,0,13,-14,6,4,-16,-2,-15,-11
8,-8,-18,0,13,-13,6,4,-16,-2,-15,-10
7,-9,-17,1,12,-13,7,4,-16,-2,-15,-10
6,-10,-17,1,12,-13,7,4,-17,-2,-15,-10
7,-9,-16,0,12,-13,7,5,-16,-1,-14,-10
8,-8,-16,0,12,-12,6,5,-16,0,-14,-9
8,-8,-16,0,11,-12,6,5,-16,0,-13,-9
8,-8,-16,0,11,-12,6,5,-15,0,-13,-8
9,-6,-16,-2,12,-11,6,6,-14,1,-11,-8
11,-5,-16,-3,13,-11,7,6,-14,1,-10,-7
11,-4,-16,-4,13,-10,7,6,-13,2,-10,-7
12,-3,-15,-4,13,-9,7,6,-13,3,-9,-6
14,-2,-15,-6,14,-9,7,7,-12,3,-9,-6
14,-1,-15,-6,14,-8,7,7,-11,4,-9,-6
13,-3,-15,-5,13,-9,6,6,-12,3,-10,-6
10,-6,-15,-2,12,-11,4,5,-13,2,-10,-7
9,-7,-15,-1,12,-11,4,4,-13,2,-10,-7
8,-6,-15,-2,11,-10,3,4,-13,2,-9,-6
8,-5,-14,-2,11,-10,3,4,-12,3,-9,-6
9,-5,-15,-2,11,-10,2,3,-12,3,-9,-6
9,-5,-15,-2,11,-11,0,2,-12,3,-10,-6
10,-5,-15,-3,11,-10,0,2,-12,3,-9,-6
11,-3,-15,-4,12,-9,-1,2,-12,3,-8,-5
12,-1,-14,-5,12,-8,-1,2,-12,4,-7,-4
14,1,-14,-7,13,-7,-1,2,-11,5,-6,-3
16,3,-13,-9,14,-5,-1,3,-10,6,-5,-2
17,4,-13,-10,15,-4,-2,2,-9,7,-4,-1
16,4,-12,-10,14,-4,-4,1,-10,7,-5,-1
15,4,-11,-9,13,-3,-5,0,-10,7,-5,-1
15,4,-11,-10,13,-3,-6,0,-11,7,-5,-1
16,4,-11,-10,13,-3,-7,0,-11,7,-5,-1
17,5,-11,-11,13,-3,-7,0,-10,8,-4,-1
18,6,-11,-12,14,-2,-6,0,-10,8,-3,0
19,6,-12,-12,15,-3,-7,-1,-11,7,-4,-1
19,4,-14,-12,16,-5,-8,-2,-12,6,-5,-2
18,3,-15,-11,16,-6,-8,-2,-14,4,-6,-3
18,2,-16,-10,17,-7,-8,-2,-14,4,-6,-3
18,1,-16,-10,17,-7,-8,-2,-14,4,-6,-3
18,0,-17,-9,17,-8,-8,-2,-14,3,-7,-3
16,-1,-17,-7,16,-9,-8,-3,-15,3,-7,-3
13,-4,-17,-4,15,-10,-8,-3,-15,3,-7,-4
11,-5,-17,-2,14,-11,-8,-4,-15,2,-8,-4
11,-5,-17,-2,14,-11,-8,-4,-16,2,-8,-5
12,-5,-18,-3,15,-11,-7,-3,-16,2,-8,-5
12,-5,-18,-3,15,-11,-6,-3,-15,3,-8,-5
11,-6,-18,-2,15,-12,-5,-3,-15,3,-8,-5
12,-7,-19,-2,15,-13,-5,-3,-16,2,-9,-7
12,-8,-20,-2,16,-14,-5,-3,-16,2,-9,-8
12,-8,-20,-2,16,-14,-4,-2,-16,2,-9,-8
12,-7,-19,-2,15,-14,-3,-2,-16,2,-9,-8
12,-7,-20,-2,15,-14,-3,-2,-16,1,-9,-9
12,-8,-21,-2,16,-15,-3,-2,-17,1,-10,-10
12,-9,-22,-1,17,-16,-4,-2,-18,0,-11,-10
12,-10,-23,0,17,-16,-4,-2,-18,0,-11,-11
12,-11,-23,0,17,-17,-4,-3,-18,0,-12,-11
12,-12,-24,0,18,-18,-4,-3,-18,0,-12,-12
11,-13,-24,1,17,-18,-4,-3,-18,0,-12,-12
11,-12,-23,0,17,-18,-3,-3,-18,0,-12,-12
12,-11,-23,0,17,-17,-3,-3,-18,0,-12,-12
13,-10,-23,-1,18,-17,-3,-3,-18,0,-12,-12
12,-12,-24,0,17,-18,-3,-4,-19,0,-13,-12
9,-14,-23,2,16,-19,-4,-4,-19,-1,-13,-13
7,-15,-23,4,15,-19,-4,-4,-19,-1,-13,-13
7,-15,-22,4,14,-19,-4,-4,-19,-1,-13,-13
7,-15,-23,4,14,-19,-4,-5,-19,-1,-13,-13
7,-15,-23,4,15,-19,-4,-5,-19,-1,-13,-14
7,-15,-23,4,15,-19,-5,-5,-19,-1,-13,-14
8,-14,-23,3,16,-19,-5,-6,-20,-1,-14,-14
9,-14,-24,2,17,-19,-5,-6,-21,-2,-14,-14
10,-13,-25,1,17,-19,-5,-5,-21,-2,-14,-14
11,-13,-25,1,18,-19,-5,-5,-21,-2,-14,-14
11,-13,-25,1,18,-19,-5,-5,-21,-2,-14,-14
11,-13,-25,1,17,-19,-5,-5,-21,-2,-14,-14
11,-13,-25,1,17,-19,-5,-5,-21,-2,-14,-14
11,-13,-24,1,17,-19,-5,-5,-21,-2,-14,-14
9,-13,-23,2,16,-19,-5,-4,-20,-1,-13,-14
8,-14,-23,2,15,-18,-4,-4,-20,-1,-13,-13
9,-13,-24,2,16,-18,-4,-4,-20,-1,-13,-13
11,-13,-25,1,18,-18,-4,-4,-20,-1,-13,-14
12,-12,-25,0,19,-18,-4,-4,-20,-1,-13,-14
13,-12,-25,0,19,-18,-4,-3,-20,-1,-13,-14
15,-11,-26,-1,20,-18,-4,-3,-19,-1,-13,-14
16,-10,-26,-2,21,-19,-4,-3,-19,-1,-13,-14
16,-11,-27,-2,21,-19,-4,-3,-20,-1,-13,-14
14,-12,-27,0,20,-20,-4,-3,-20,-2,-14,-15
13,-13,-27,0,20,-20,-4,-4,-21,-3,-15,-16
13,-13,-28,0,20,-20,-4,-4,-21,-3,-15,-17
14,-13,-28,0,21,-20,-4,-4,-22,-3,-15,-18
14,-14,-29,0,21,-21,-4,-3,-22,-4,-16,-18
16,-15,-31,0,23,-22,-4,-2,-23,-5,-17,-19
18,-15,-34,-1,25,-24,-3,-1,-23,-6,-18,-20
20,-15,-35,-2,27,-25,-1,1,-22,-5,-17,-20
23,-12,-36,-5,28,-24,0,4,-19,-3,-15,-18
25,-9,-35,-7,29,-22,1,7,-16,0,-12,-16
25,-8,-34,-8,29,-20,0,9,-12,4,-10,-14
25,-7,-33,-9,29,-19,-1,10,-8,8,-7,-12
27,-4,-32,-11,29,-18,-4,10,-2,13,-2,-8
30,0,-31,-14,30,-15,-9,8,3,20,3,-3
36,4,-31,-19,33,-13,-15,4,9,27,10,3
43,11,-32,-26,37,-10,-22,-1,15,35,18,10
51,19,-32,-34,41,-6,-33,-10,21,43,27,18
57,26,-31,-41,43,-2,-46,-22,27,52,38,27
62,35,-27,-48,44,4,-61,-34,33,62,49,37
67,46,-21,-57,44,13,-75,-46,40,74,63,49
73,60,-14,-67,44,23,-87,-56,49,86,77,62
81,74,-8,-78,45,34,-100,-66,58,99,91,75
89,89,0,-89,44,45,-113,-76,66,110,105,88
93,104,11,-98,41,58,-126,-85,73,121,117,100
92,117,25,-104,33,71,-139,-94,80,131,129,111
88,129,40,-108,23,84,-154,-104,89,143,140,122
82,140,57,-110,12,98,-167,-112,99,155,152,133
73,147,73,-110,0,110,-175,-114,110,167,161,142
61,148,86,-104,-12,117,-175,-111,122,177,167,146
47,143,95,-95,-23,119,-170,-104,131,182,166,144
35,132,97,-84,-31,114,-161,-95,134,179,157,135
24,117,93,-70,-35,105,-148,-82,132,170,142,121
14,99,86,-56,-36,93,-133,-67,126,155,122,103
5,80,75,-42,-36,78,-117,-56,112,134,97,81
-3,61,64,-28,-34,62,-103,-51,90,107,70,57
-11,43,54,-15,-33,49,-89,-52,64,79,43,34
-18,29,46,-5,-32,38,-77,-54,38,54,21,16
-20,19,38,0,-29,29,-66,-56,16,33,5,2
-19,11,29,4,-24,21,-57,-57,-3,15,-7,-8
-17,5,21,6,-19,13,-48,-57,-19,1,-16,-15
-14,-1,12,7,-13,6,-41,-54,-31,-9,-23,-20
-11,-5,5,8,-8,0,-34,-50,-38,-16,-27,-24
-8,-9,-1,9,-4,-5,-28,-45,-42,-20,-30,-26
-6,-12,-7,9,0,-9,-23,-40,-43,-22,-32,-28
-5,-15,-11,10,2,-13,-18,-34,-43,-23,-33,-30
-4,-16,-14,9,4,-15,-15,-29,-42,-22,-33,-30
-2,-17,-17,9,7,-17,-12,-25,-41,-22,-33,-30
0,-19,-20,9,10,-19,-9,-21,-40,-21,-33,-30
2,-19,-22,8,12,-20,-7,-18,-39,-20,-33,-30
6,-19,-26,7,16,-22,-5,-16,-37,-20,-32,-30
8,-19,-28,6,18,-23,-3,-13,-36,-19,-32,-30
8,-20,-28,6,18,-24,-1,-11,-34,-18,-32,-30
8,-19,-28,6,18,-23,1,-8,-33,-17,-31,-29
9,-18,-29,5,18,-23,2,-6,-33,-17,-30,-28
8,-19,-29,5,19,-24,3,-5,-33,-17,-30,-27
7,-21,-29,7,18,-25,3,-4,-32,-16,-30,-27
5,-21,-27,8,16,-24,4,-3,-31,-15,-29,-26
4,-22,-26,9,15,-24,4,-3,-30,-14,-28,-25
4,-22,-27,9,15,-24,4,-3,-30,-14,-29,-26
4,-23,-27,10,15,-24,4,-3,-30,-14,-29,-26
4,-23,-27,9,15,-24,4,-3,-30,-14,-29,-26
5,-22,-28,8,16,-25,4,-2,-30,-14,-29,-26
5,-22,-28,8,16,-25,5,-2,-30,-14,-29,-26
6,-21,-27,7,16,-24,5,-1,-29,-14,-29,-26
6,-20,-26,7,16,-23,6,0,-29,-14,-29,-25
7,-20,-27,7,17,-23,6,0,-29,-14,-29,-25
6,-21,-27,8,16,-23,6,0,-29,-14,-29,-25
4,-22,-26,8,15,-23,6,0,-28,-14,-29,-25
4,-21,-26,8,15,-23,6,0,-28,-14,-29,-25
4,-21,-27,7,16,-24,6,-1,-29,-14,-29,-26
5,-21,-27,7,16,-24,6,-1,-29,-14,-30,-26
5,-20,-27,7,16,-23,6,-1,-29,-14,-30,-26
6,-18,-26,6,16,-22,6,0,-28,-13,-29,-25
7,-18,-26,5,17,-22,6,0,-28,-13,-29,-25
9,-18,-28,4,19,-23,5,0,-28,-14,-29,-26
10,-18,-29,5,19,-23,6,0,-29,-14,-30,-26
8,-19,-28,6,18,-23,6,0,-29,-14,-30,-26
7,-19,-27,6,16,-23,7,0,-29,-14,-30,-26
7,-19,-27,5,16,-22,7,0,-29,-14,-30,-26
8,-18,-26,5,17,-22,7,0,-29,-14,-30,-26
7,-18,-26,5,17,-22,7,0,-29,-15,-31,-26
7,-18,-26,5,16,-21,8,1,-29,-15,-30,-26
7,-18,-25,5,16,-21,8,1,-28,-14,-30,-26
5,-20,-26,7,15,-22,8,1,-28,-14,-30,-26
4,-21,-26,8,14,-23,8,1,-28,-14,-30,-26
4,-21,-26,8,14,-23,9,1,-28,-14,-30,-26
5,-20,-26,7,15,-23,9,1,-28,-14,-30,-26
5,-19,-25,7,15,-22,9,2,-28,-13,-30,-26
6,-18,-25,6,15,-21,9,2,-28,-13,-30,-25
8,-17,-26,4,17,-21,9,2,-28,-13,-30,-25
11,-16,-28,3,20,-21,9,2,-29,-13,-30,-26
12,-16,-28,2,21,-21,9,2,-28,-13,-30,-26
11,-16,-28,2,19,-21,9,2,-28,-13,-30,-26
9,-18,-27,4,18,-22,8,1,-29,-14,-31,-27
7,-19,-27,6,17,-23,8,1,-30,-16,-32,-28
6,-19,-26,6,16,-23,8,1,-31,-16,-32,-28
6,-19,-26,7,16,-23,9,2,-31,-17,-32,-28
6,-21,-27,7,16,-24,9,1,-31,-18,-33,-28
6,-22,-28,8,17,-25,8,1,-32,-18,-33,-29
6,-22,-28,8,16,-24,9,1,-32,-18,-33,-29
6,-20,-27,7,16,-23,10,2,-31,-16,-33,-28
6,-18,-25,6,15,-21,11,3,-29,-15,-32,-28
7,-16,-24,5,15,-20,11,4,-29,-14,-31,-28
8,-15,-25,4,16,-20,11,4,-29,-15,-32,-28
7,-16,-25,4,16,-21,11,4,-30,-16,-32,-29
5,-18,-25,6,15,-22,11,4,-30,-16,-33,-29
3,-20,-24,8,14,-22,11,5,-29,-15,-33,-29
3,-20,-23,8,13,-21,12,6,-28,-14,-32,-29
3,-19,-22,8,13,-20,13,6,-28,-14,-32,-29
4,-18,-22,7,13,-20,13,7,-28,-13,-32,-29
5,-18,-22,7,13,-20,13,7,-28,-14,-32,-30
5,-18,-23,7,14,-21,12,7,-28,-15,-33,-30
4,-19,-23,7,14,-21,12,7,-29,-16,-34,-31
4,-20,-24,8,14,-22,12,7,-30,-17,-35,-32
4,-20,-25,8,14,-23,12,7,-31,-18,-35,-32
3,-21,-25,9,14,-23,12,7,-31,-18,-35,-32
3,-21,-24,9,13,-23,12,8,-29,-17,-35,-32
3,-21,-24,9,13,-23,12,8,-28,-15,-35,-33
4,-20,-25,8,14,-23,12,9,-27,-15,-35,-33
6,-18,-25,6,16,-22,13,9,-28,-15,-35,-32
7,-17,-25,5,16,-21,13,10,-28,-16,-34,-32
7,-16,-24,5,15,-20,14,11,-28,-16,-34,-31
7,-15,-23,4,15,-20,14,13,-27,-15,-33,-30
8,-15,-24,3,16,-19,14,14,-26,-15,-33,-30
9,-15,-25,3,17,-19,14,14,-27,-15,-33,-30
9,-15,-25,3,17,-19,14,14,-27,-15,-33,-30
10,-15,-25,2,17,-19,14,15,-26,-15,-32,-29
9,-15,-26,3,17,-20,13,15,-25,-15,-32,-29
8,-17,-26,4,17,-21,12,15,-25,-14,-32,-30
8,-17,-25,4,16,-21,11,16,-23,-12,-31,-29
7,-16,-24,4,16,-20,11,17,-21,-11,-30,-28
7,-15,-23,3,15,-19,11,18,-21,-10,-29,-27
8,-13,-22,2,15,-17,11,18,-21,-10,-28,-26
10,-11,-22,0,16,-16,11,19,-20,-9,-26,-25
13,-8,-22,-2,18,-15,11,19,-19,-8,-25,-23
16,-6,-22,-4,19,-14,10,20,-17,-7,-24,-22
16,-6,-22,-4,19,-14,10,20,-16,-6,-23,-22
15,-7,-22,-4,19,-15,9,20,-16,-6,-23,-22
15,-7,-23,-4,19,-15,9,20,-17,-7,-23,-21
19,-5,-25,-7,22,-15,8,21,-17,-7,-23,-21
21,-4,-26,-8,24,-14,8,21,-16,-6,-22,-20
19,-3,-24,-7,22,-13,8,22,-15,-5,-20,-18
18,-3,-22,-6,21,-13,8,22,-14,-3,-18,-16
18,-2,-22,-7,20,-12,7,22,-13,-2,-17,-15
20,0,-21,-9,20,-11,7,22,-12,0,-15,-14
21,2,-19,-11,20,-9,7,23,-10,2,-14,-13
21,3,-18,-12,20,-7,7,24,-8,4,-12,-11
22,4,-18,-13,21,-7,6,24,-7,5,-11,-10
22,3,-19,-13,21,-7,6,23,-8,4,-11,-9
21,2,-19,-12,21,-7,5,23,-9,4,-10,-9
21,2,-19,-12,21,-8,4,22,-9,4,-10,-9
23,3,-20,-13,22,-8,3,22,-9,4,-10,-9
24,4,-19,-14,22,-8,3,22,-8,6,-8,-8
23,5,-18,-14,21,-7,3,22,-7,7,-7,-7
24,6,-18,-15,21,-6,2,22,-7,7,-6,-6
25,7,-18,-17,21,-5,2,22,-7,7,-5,-5
26,9,-17,-18,22,-3,2,23,-6,8,-4,-4
27,10,-17,-19,23,-2,3,24,-4,10,-2,-3
28,10,-18,-19,24,-3,3,23,-4,10,-2,-2
29,11,-18,-19,24,-3,3,23,-5,9,-2,-2
29,11,-18,-20,24,-3,3,23,-4,9,-1,-2
29,12,-17,-20,24,-3,3,22,-4,9,0,-1
27,10,-17,-18,22,-4,2,21,-4,9,-1,-1
25,8,-17,-16,21,-5,1,20,-4,9,-1,-1
25,9,-17,-17,21,-4,0,20,-3,10,-1,-1
27,11,-16,-19,22,-2,0,20,-2,11,0,-1
29,14,-15,-21,23,0,1,20,-2,11,0,0
29,15,-14,-22,22,0,1,19,-3,11,1,0
28,14,-14,-21,21,0,1,19,-3,11,2,1
27,14,-13,-20,20,0,1,19,-3,11,2,2
27,14,-13,-20,20,0,1,19,-2,12,3,3
26,13,-13,-20,20,0,1,18,-1,12,3,2
26,13,-12,-19,19,0,0,17,0,13,3,3
24,13,-11,-19,18,0,0,16,0,14,3,3
24,13,-11,-18,18,0,0,15,-2,13,3,2
25,13,-12,-18,19,0,0,15,-3,11,2,2
25,12,-13,-18,19,-1,0,14,-4,10,2,1
24,12,-13,-18,19,-1,0,14,-4,10,1,1
24,12,-12,-18,18,0,0,13,-4,10,1,1
24,12,-12,-18,18,0,0,13,-3,11,1,1
25,13,-12,-20,18,0,1,12,-2,11,2,1
27,16,-12,-22,19,2,2,13,-1,12,3,2
29,18,-11,-24,20,4,2,13,-1,13,3,2
28,18,-11,-23,19,4,2,12,-1,13,3,2
26,16,-11,-21,18,3,1,11,-1,13,3,2
25,15,-11,-20,18,2,1,11,-2,12,2,2
24,15,-10,-19,18,2,1,11,-2,11,2,2
23,14,-10,-18,17,1,2,11,-3,10,1,2
22,12,-10,-17,17,1,2,10,-4,9,1,2
22,11,-11,-17,17,0,2,9,-4,9,1,1
23,11,-13,-17,18,-1,1,8,-4,9,1,0
24,11,-13,-17,18,-1,1,8,-4,10,0,0
23,12,-11,-17,16,1,3,9,-3,11,1,0
22,13,-9,-17,15,2,4,9,-2,12,2,1
23,13,-10,-17,16,1,4,9,-2,11,1,1
24,13,-11,-18,18,0,4,9,-1,11,1,1
25,13,-12,-18,19,0,5,10,0,11,1,1
25,13,-12,-19,19,0,5,11,-1,10,1,1
25,13,-12,-18,19,0,6,11,-3,9,0,1
23,11,-11,-17,17,0,6,12,-4,8,0,1
22,11,-10,-16,16,0,7,12,-4,9,0,1
21,11,-10,-16,16,1,8,12,-3,9,0,1
20,9,-11,-15,15,0,7,12,-4,9,-1,0
19,8,-11,-13,15,-1,6,11,-4,8,-2,-1
19,8,-11,-13,15,-1,6,11,-4,8,-2,-1
20,9,-11,-14,16,-1,6,12,-3,9,-1,-1
20,9,-11,-14,15,-1,7,12,-3,9,-1,-1
19,8,-12,-14,15,-1,7,11,-5,7,-1,-2
19,8,-12,-13,15,-2,7,11,-6,6,-2,-2
19,8,-12,-13,15,-1,7,12,-4,7,-1,-2
20,9,-12,-14,16,-1,8,13,-2,9,-1,-2
21,9,-12,-15,17,-1,9,13,-1,10,-1,-2
20,9,-12,-14,17,-1,9,13,-2,10,-1,-2
19,8,-11,-14,16,-1,10,13,-3,8,-2,-3
19,8,-11,-14,15,-1,10,14,-4,7,-3,-3
19,7,-11,-13,15,-2,11,14,-5,6,-3,-3
18,7,-11,-12,14,-2,11,15,-5,5,-3,-3
18,6,-11,-11,14,-2,11,15,-4,6,-3,-3
18,6,-12,-12,15,-2,11,15,-3,7,-3,-3
18,6,-12,-12,15,-2,11,15,-4,6,-4,-4
18,6,-12,-12,15,-2,12,15,-4,5,-4,-5
17,6,-12,-11,15,-3,13,15,-3,5,-4,-5
17,5,-11,-11,14,-3,13,15,-3,5,-4,-5
16,6,-11,-11,14,-3,13,15,-3,4,-4,-5
16,6,-10,-11,13,-2,13,14,-4,3,-5,-5
16,6,-10,-11,13,-2,13,13,-5,2,-5,-5
16,7,-9,-11,12,-1,13,13,-6,1,-6,-5
17,9,-8,-12,13,0,14,13,-6,0,-6,-5
18,10,-9,-13,14,0,14,13,-6,0,-6,-5
20,10,-10,-14,15,0,14,13,-5,0,-6,-5
20,10,-10,-15,15,0,14,13,-5,0,-6,-6
19,10,-9,-15,14,1,15,13,-5,0,-5,-6
18,10,-8,-14,13,1,15,13,-5,0,-6,-7
16,8,-8,-12,11,0,14,12,-7,-1,-7,-7
13,6,-7,-9,10,-1,13,11,-8,-3,-8,-8
11,4,-8,-8,9,-1,13,10,-8,-4,-9,-8
11,3,-9,-7,10,-2,13,10,-9,-5,-9,-9
11,3,-9,-7,11,-2,13,9,-9,-5,-10,-10
11,2,-9,-7,10,-2,13,9,-9,-6,-10,-11
11,2,-9,-7,10,-3,13,8,-9,-6,-10,-11
12,3,-9,-8,10,-2,14,8,-8,-6,-10,-10
14,5,-9,-10,11,-2,14,7,-8,-6,-10,-10
16,6,-9,-12,13,-1,13,7,-9,-6,-10,-10
18,8,-10,-13,14,-1,13,6,-9,-6,-10,-10
17,8,-9,-13,13,0,13,6,-9,-6,-9,-10
16,9,-8,-12,12,1,13,6,-8,-5,-8,-10
17,10,-8,-13,12,2,13,6,-8,-4,-7,-10
18,11,-7,-14,13,2,13,6,-9,-5,-7,-10
17,11,-6,-14,12,2,13,6,-10,-6,-7,-10
15,9,-5,-12,11,2,13,6,-9,-6,-7,-10
15,8,-6,-12,11,1,12,6,-9,-6,-7,-10
16,9,-7,-12,12,1,12,6,-8,-5,-7,-10
17,9,-8,-13,13,1,12,5,-9,-5,-7,-10
17,9,-8,-12,12,1,12,5,-10,-5,-7,-10
16,10,-6,-13,11,2,12,5,-10,-6,-6,-9
17,11,-5,-14,10,3,13,6,-10,-7,-5,-8
18,12,-6,-15,12,2,14,6,-10,-7,-4,-7
20,12,-8,-16,14,1,13,6,-10,-7,-5,-8
21,13,-9,-17,15,2,13,7,-9,-6,-5,-7
22,14,-8,-17,15,3,14,8,-7,-5,-5,-6
21,14,-7,-17,15,4,15,8,-7,-4,-5,-6
20,12,-7,-16,14,3,14,7,-7,-5,-5,-7
18,10,-7,-14,13,2,14,7,-7,-5,-6,-7
17,11,-6,-14,12,3,14,7,-5,-4,-5,-7
18,13,-4,-16,11,4,14,8,-4,-2,-3,-6
18,16,-2,-17,10,7,14,9,-2,0,-1,-4
18,18,-1,-18,9,9,14,9,-2,0,0,-3
18,19,0,-18,9,10,14,9,-3,0,0,-2
19,20,0,-19,9,10,14,9,-2,0,0,-1
22,21,0,-21,11,11,14,10,-1,0,1,-1
23,22,-1,-23,12,11,14,10,0,0,1,0
23,22,-1,-23,12,10,13,9,-1,0,1,0
22,21,0,-21,11,10,13,9,0,0,1,-1
20,20,0,-20,10,10,12,9,0,0,1,-1
20,20,0,-20,10,10,12,9,0,0,2,-1
20,20,0,-20,10,10,11,9,0,1,2,-1
18,20,2,-18,8,11,11,8,0,1,2,-1
16,20,4,-17,6,12,10,8,1,2,3,0
15,22,6,-18,5,13,10,8,3,3,5,2
17,23,6,-20,5,14,9,8,3,3,6,3
19,24,4,-21,7,14,8,8,1,1,6,3
21,24,2,-22,9,13,7,7,0,0,6,3
21,24,2,-22,9,13,7,7,1,0,6,3
21,25,2,-23,10,14,6,7,2,1,6,4
23,27,3,-25,10,15,5,7,3,2,7,4
24,29,4,-26,10,17,5,6,3,3,7,5
22,29,6,-26,8,18,5,6,3,2,8,5
19,27,8,-23,5,17,4,6,2,1,8,5
18,24,7,-21,5,16,3,5,1,-1,7,5
18,23,5,-21,6,15,2,4,0,-1,7,5
18,24,5,-22,6,15,2,4,1,-1,8,5
19,25,5,-22,7,15,2,4,1,-1,8,5
19,25,5,-22,7,15,2,4,1,-1,7,5
20,26,4,-23,7,15,2,4,1,-1,7,4
21,26,4,-23,8,15,2,4,2,-1,7,4
21,24,4,-22,8,14,2,3,2,-1,7,4
19,21,3,-20,8,12,2,2,1,-2,6,3
17,19,3,-18,7,11,3,2,0,-2,6,3
15,18,3,-17,6,11,4,3,1,-2,6,4
15,18,3,-16,6,11,4,4,2,-1,6,4
14,19,4,-16,5,11,4,3,2,-1,6,3
13,19,5,-15,4,11,4,3,1,-2,6,3
14,18,4,-15,4,10,4,2,0,-3,5,2
15,18,3,-15,5,10,5,2,0,-3,5,2
15,18,2,-16,6,10,6,3,1,-2,5,3
16,18,1,-16,7,10,7,3,1,-3,5,3
18,18,0,-17,9,9,8,4,0,-4,5,2
18,17,-1,-17,9,8,8,4,0,-5,4,1
17,16,-1,-16,9,8,8,4,0,-5,3,0
16,15,0,-15,8,7,7,4,1,-4,3,0
14,14,0,-14,6,7,6,4,0,-4,2,0
13,13,1,-13,5,6,6,3,-1,-5,2,0
11,12,1,-12,5,6,6,3,-2,-6,2,0
10,10,0,-10,4,5,6,2,-3,-7,2,-1
10,8,-1,-9,5,3,6,2,-3,-7,2,-1
11,8,-2,-10,6,3,6,2,-2,-7,1,-2
10,7,-2,-9,6,2,6,2,-2,-7,1,-2
10,7,-2,-9,6,2,6,2,-3,-8,0,-2
10,8,-2,-9,6,2,7,2,-4,-8,0,-2
10,8,-2,-10,6,2,7,2,-3,-8,0,-2
9,7,-2,-9,5,2,7,2,-3,-8,0,-2
7,6,0,-7,3,3,7,2,-3,-8,0,-2
4,5,1,-5,1,4,7,2,-2,-8,1,-2
3,5,2,-4,0,5,7,2,-2,-7,1,-2
2,6,3,-4,0,6,7,2,-2,-6,1,-2
3,8,3,-5,0,6,7,2,-1,-6,2,-1
5,9,3,-6,1,6,7,2,-2,-6,2,-1
7,9,2,-7,2,5,7,2,-2,-8,1,-1
7,9,1,-7,3,5,7,2,-2,-8,1,-1
7,9,1,-8,3,5,8,2,-1,-7,2,-1
6,9,3,-8,2,6,9,3,0,-6,3,0
6,10,4,-8,2,7,10,4,1,-5,3,0
7,10,3,-9,2,7,10,3,0,-6,3,0
8,9,1,-8,3,5,9,2,-2,-8,2,0
7,8,0,-7,3,4,8,2,-3,-9,1,-1
7,8,1,-7,3,4,9,2,-3,-9,0,-1
6,7,2,-6,2,4,9,3,-2,-8,1,-1
5,7,2,-5,1,4,9,3,0,-7,1,-1
6,7,1,-6,2,4,9,3,0,-6,1,-1
8,7,0,-8,4,3,8,2,-1,-7,1,-1
9,8,0,-9,5,3,8,2,-2,-9,1,-1
10,9,0,-9,5,4,8,2,-3,-9,1,-1
9,9,0,-9,5,4,9,2,-3,-10,1,-1
7,8,0,-7,3,4,9,2,-2,-11,1,-1
6,7,0,-6,3,3,9,2,-1,-11,0,-1
7,8,0,-7,4,4,10,4,0,-10,0,-1
10,10,0,-10,5,4,11,6,-1,-11,0,-1
10,9,0,-10,6,4,13,9,-2,-12,0,-1
9,8,-1,-9,5,3,14,11,-2,-13,0,-1
11,8,-2,-10,6,3,15,14,0,-12,1,0
14,9,-4,-12,9,2,15,15,1,-11,3,1
16,11,-5,-14,10,3,14,17,5,-8,5,3
18,14,-5,-16,11,4,14,20,11,-2,9,6
21,17,-4,-19,13,6,12,20,17,3,14,10
23,20,-4,-22,14,7,7,18,23,10,20,14
27,23,-3,-25,15,9,1,15,30,19,27,20
32,29,-3,-31,17,13,-6,9,38,29,36,28
38,37,-2,-38,20,17,-17,1,44,39,47,36
46,45,0,-45,23,23,-29,-8,51,49,59,47
53,54,1,-53,25,28,-44,-20,58,60,71,58
60,65,5,-62,27,35,-59,-32,65,71,84,70
68,78,9,-72,28,44,-73,-43,73,82,98,83
75,91,16,-83,29,54,-85,-52,82,94,111,96
79,105,25,-91,27,65,-97,-61,91,106,125,109
81,118,37,-99,22,77,-109,-69,100,119,138,121
81,131,50,-106,15,91,-119,-76,109,131,151,133
79,144,66,-111,7,105,-131,-83,119,143,162,144
75,156,82,-115,-3,120,-143,-89,128,153,173,155
66,163,97,-114,-15,130,-151,-92,138,164,182,163
54,163,109,-108,-28,137,-152,-89,150,173,186,166
40,159,118,-99,-39,139,-147,-83,159,178,184,164
26,148,122,-87,-48,135,-138,-75,163,176,175,154
14,132,119,-73,-52,125,-127,-64,161,166,159,138
2,112,111,-57,-55,112,-114,-53,151,148,136,117
-8,92,102,-41,-55,97,-100,-45,133,123,109,93
-15,74,91,-29,-54,83,-86,-43,109,95,81,69
-20,60,80,-19,-51,70,-73,-45,82,66,54,47
-24,48,72,-11,-48,60,-61,-48,58,41,33,30
-26,39,64,-5,-46,52,-52,-50,36,20,17,16
-27,30,57,-1,-42,44,-43,-52,15,2,4,5
-28,22,49,3,-38,36,-36,-54,-2,-13,-6,-2
-27,15,42,6,-34,29,-29,-52,-15,-24,-13,-8
-26,10,36,7,-31,23,-22,-47,-22,-31,-17,-12
-23,8,31,7,-27,20,-15,-41,-25,-35,-19,-14
-19,7,26,6,-22,17,-9,-35,-26,-36,-19,-15
-15,6,21,5,-19,14,-4,-29,-25,-37,-20,-15
-14,4,18,6,-17,11,-1,-24,-24,-36,-20,-15
-15,2,16,7,-16,9,1,-19,-22,-34,-19,-15
-15,1,15,7,-15,8,5,-15,-19,-32,-17,-15
-14,0,12,7,-12,6,7,-12,-16,-30,-16,-15
-12,-1,10,7,-11,4,9,-9,-15,-28,-15,-15
-12,-3,9,7,-10,3,11,-6,-15,-29,-15,-15
-11,-4,7,8,-9,1,13,-4,-15,-30,-16,-16
-11,-6,5,9,-8,-1,14,-2,-14,-30,-16,-16
-10,-6,4,9,-7,-1,15,0,-12,-29,-16,-16
-10,-6,4,9,-7,-1,15,0,-11,-28,-16,-16
-11,-6,4,9,-7,-1,16,1,-11,-28,-15,-16
-11,-6,5,9,-8,-1,17,1,-11,-29,-15,-16
-11,-5,5,8,-8,0,17,2,-11,-29,-14,-15
-10,-5,6,8,-8,0,18,3,-10,-28,-13,-14
-10,-5,6,8,-8,0,19,4,-10,-28,-13,-14
-11,-6,6,9,-9,0,19,4,-10,-28,-13,-14
-12,-6,6,10,-10,0,20,5,-10,-28,-13,-13
-11,-5,6,9,-9,0,20,6,-9,-28,-12,-13
-11,-5,6,8,-9,1,20,6,-9,-28,-12,-13
-12,-6,6,9,-9,0,19,6,-9,-28,-13,-13
-12,-7,5,9,-9,-1,19,5,-8,-27,-13,-14
-13,-7,6,10,-9,-1,19,5,-7,-26,-13,-14
-13,-6,8,10,-10,0,19,6,-6,-24,-12,-14
-13,-4,9,9,-11,2,20,6,-5,-24,-11,-13
-12,-3,9,8,-11,3,20,6,-5,-24,-11,-13
-10,-2,8,6,-9,4,20,6,-5,-24,-11,-13
-9,-1,8,5,-8,4,20,7,-5,-24,-11,-13
-10,-2,7,6,-8,3,20,7,-5,-24,-11,-13
-12,-6,7,9,-9,1,19,6,-6,-25,-12,-14
-15,-8,6,11,-10,-1,19,5,-8,-27,-13,-15
-16,-10,6,13,-10,-1,19,4,-8,-27,-13,-15
-16,-11,7,14,-11,-1,19,4,-8,-28,-13,-15
-17,-11,7,15,-13,-2,20,4,-9,-29,-14,-16
-18,-11,7,15,-13,-2,20,4,-9,-30,-14,-16
-18,-10,7,15,-13,-1,20,5,-8,-29,-13,-16
-18,-9,8,14,-13,0,20,5,-7,-29,-13,-15
-17,-9,8,13,-13,0,20,5,-8,-29,-12,-15
-16,-8,8,12,-12,0,20,5,-8,-30,-12,-14
-15,-8,7,11,-10,0,20,6,-6,-28,-12,-14
-14,-7,6,11,-10,0,20,6,-5,-26,-12,-15
-13,-7,6,10,-9,0,21,6,-5,-25,-12,-15
-12,-6,7,9,-9,1,21,6,-6,-25,-12,-15
-12,-4,8,9,-10,2,22,7,-6,-26,-12,-14
-14,-4,9,9,-11,2,23,7,-7,-27,-12,-14
-14,-4,9,9,-11,2,23,7,-7,-28,-12,-14
-14,-4,9,9,-11,2,23,8,-6,-28,-12,-13
-15,-5,10,10,-12,2,23,8,-6,-28,-12,-13
-17,-7,10,13,-13,1,22,7,-7,-28,-13,-14
-17,-9,9,14,-13,0,21,6,-7,-28,-13,-15
-16,-9,7,13,-12,0,21,6,-7,-28,-13,-15
-15,-9,6,12,-11,-1,21,6,-7,-28,-13,-15
-16,-8,7,12,-12,-1,21,6,-6,-27,-13,-15
-18,-9,9,13,-14,0,22,7,-6,-26,-12,-15
-19,-9,10,13,-14,0,23,7,-6,-26,-12,-15
-18,-8,10,13,-14,0,24,8,-6,-26,-12,-15
-18,-8,10,13,-14,1,25,8,-6,-26,-12,-15
-18,-8,10,13,-14,1,25,8,-5,-26,-12,-15
-18,-9,10,14,-15,1,24,8,-4,-25,-12,-15
-20,-9,11,15,-16,1,23,8,-5,-26,-13,-15
-22,-10,12,16,-18,1,22,8,-6,-27,-13,-16
-23,-9,13,16,-18,1,23,8,-6,-27,-13,-16
-22,-9,12,15,-18,1,24,9,-5,-26,-13,-16
-21,-10,12,16,-17,0,25,9,-5,-26,-14,-16
-22,-11,12,17,-17,0,25,9,-5,-26,-14,-16
-22,-11,12,17,-18,1,25,10,-5,-26,-14,-16
-22,-12,12,17,-17,0,25,10,-5,-27,-14,-16
-21,-12,10,17,-16,0,24,10,-6,-28,-14,-17
-20,-10,10,15,-15,0,25,11,-5,-27,-15,-17
-19,-9,9,14,-15,0,25,12,-5,-26,-15,-16
-19,-9,10,15,-15,0,25,12,-5,-26,-15,-16
-21,-10,11,16,-17,0,25,12,-6,-27,-16,-16
-22,-10,12,16,-18,1,25,12,-6,-28,-16,-16
-22,-9,13,16,-17,2,26,13,-6,-28,-15,-16
-21,-8,13,15,-17,3,26,14,-5,-27,-15,-16
-22,-8,14,16,-18,3,26,15,-4,-27,-14,-16
-23,-9,14,17,-19,3,26,16,-3,-26,-14,-16
-23,-9,14,16,-19,3,26,17,-3,-26,-14,-16
-21,-8,12,15,-18,2,26,17,-2,-26,-15,-16
-20,-8,12,14,-17,2,26,18,-2,-25,-15,-16
-21,-8,13,14,-17,3,26,19,-1,-24,-14,-15
-21,-8,13,15,-18,3,26,19,-1,-23,-13,-14
-22,-9,14,15,-18,3,25,19,0,-22,-12,-14
-21,-9,13,15,-18,3,24,19,0,-21,-12,-14
-20,-8,13,14,-17,3,23,19,0,-22,-12,-14
-19,-5,14,13,-17,4,23,20,-1,-23,-11,-12
-18,-2,15,10,-16,6,24,22,0,-22,-9,-9
-16,0,15,8,-16,7,25,24,3,-20,-7,-8
-16,-1,14,9,-15,6,24,24,4,-19,-7,-8
-18,-5,12,12,-15,3,22,24,4,-19,-8,-9
-18,-7,11,13,-15,2,21,23,4,-19,-9,-10
-16,-5,11,11,-13,3,22,24,5,-18,-7,-8
-14,-3,11,9,-13,4,22,25,7,-16,-6,-7
-15,-3,12,9,-13,4,21,24,7,-15,-5,-6
-15,-2,12,9,-14,5,20,24,7,-15,-5,-6
-15,0,14,8,-14,6,20,24,7,-15,-3,-4
-14,2,15,6,-15,8,21,25,9,-13,-1,-3
-15,2,16,6,-16,9,20,26,10,-12,0,-1
-16,2,17,7,-17,10,19,26,10,-11,1,0
-16,1,18,8,-17,10,18,26,11,-10,2,0
-16,1,18,8,-17,10,18,26,13,-9,3,1
-16,1,18,7,-17,10,18,26,14,-7,4,1
-15,3,18,6,-17,11,19,26,14,-7,5,2
-15,5,19,5,-17,12,19,26,15,-6,6,3
-13,6,19,3,-16,13,18,26,16,-5,7,4
-11,7,17,2,-14,12,17,25,16,-5,8,4
-10,8,17,1,-13,13,16,25,15,-5,8,4
-8,10,19,0,-13,14,16,25,16,-5,9,5
-6,12,19,-3,-12,16,17,26,16,-4,11,7
-2,14,18,-6,-10,16,17,26,16,-4,11,8
-2,14,17,-6,-9,16,16,26,17,-4,12,8
-6,11,17,-2,-12,14,15,25,17,-4,12,9
-11,8,19,1,-15,13,15,24,17,-4,13,9
-12,8,19,2,-16,13,15,24,17,-4,13,10
-10,9,18,1,-14,13,14,24,17,-4,14,11
-8,9,17,0,-12,13,14,23,17,-4,13,10
-7,10,17,-1,-12,13,14,23,18,-3,13,11
-9,10,19,0,-14,15,14,23,19,-1,14,11
-10,9,20,0,-15,15,13,23,20,0,15,12
-11,9,20,0,-16,15,13,22,19,-1,15,12
-11,10,20,0,-16,15,13,22,19,-1,16,13
-11,11,21,0,-16,16,13,22,20,0,17,14
-10,13,22,-1,-16,17,15,23,20,0,18,15
-8,14,21,-2,-14,17,15,23,20,0,18,15
-5,15,20,-4,-12,18,15,22,21,0,18,16
-4,15,20,-5,-11,18,16,22,21,0,18,16
-4,15,20,-5,-12,18,16,21,20,-1,18,15
-6,14,20,-4,-13,18,16,20,20,-1,18,15
-8,13,21,-2,-15,17,15,19,20,0,18,15
-9,13,21,-1,-15,17,15,19,20,0,18,15
-9,13,21,-1,-16,17,15,18,20,1,18,15
-10,12,22,0,-17,17,16,18,21,2,19,16
-13,11,24,1,-18,17,16,17,21,2,19,16
-15,10,25,3,-20,17,17,17,20,0,19,16
-15,10,26,3,-20,17,17,16,19,-1,18,15
-15,10,26,3,-20,17,17,16,18,-2,18,15
-16,10,26,3,-20,17,17,16,19,-2,18,15
-15,11,26,2,-21,18,18,16,20,-1,18,16
-14,12,26,1,-21,19,19,16,21,-1,18,16
-13,13,26,0,-20,19,19,15,21,0,18,16
-13,13,26,0,-20,19,18,14,20,-1,17,15
-13,12,25,1,-19,19,18,13,20,-1,16,14
-13,11,26,1,-19,19,18,13,20,-1,17,14
-15,12,28,1,-20,20,19,14,21,0,18,14
-15,13,29,1,-22,21,19,14,21,-1,18,14
-16,13,29,1,-22,21,19,13,19,-2,18,14
-17,11,28,2,-23,20,19,12,18,-2,17,13
-19,9,27,5,-23,18,19,12,19,-3,16,13
-20,7,27,6,-23,17,19,12,19,-3,15,12
-19,8,27,5,-23,18,20,12,20,-2,15,12
-17,9,26,4,-21,18,21,12,20,-2,15,12
-15,9,25,3,-20,17,21,12,19,-2,15,12
-15,10,25,2,-20,17,22,12,20,-2,16,12
-16,9,25,3,-21,17,21,12,21,-1,16,12
-18,6,24,6,-21,15,20,11,20,-2,15,10
-20,3,24,8,-22,13,20,11,19,-3,14,9
-22,3,25,10,-23,13,20,11,19,-2,13,9
-23,2,26,11,-24,14,20,11,19,-3,13,9
-25,2,27,12,-25,14,21,12,18,-5,13,9
-25,2,27,12,-26,14,21,12,18,-5,13,9
-23,2,26,10,-24,14,21,12,19,-5,13,9
-21,3,24,9,-23,13,21,12,19,-5,13,9
-21,3,25,8,-23,14,22,13,19,-5,13,9
-21,3,25,9,-23,14,23,13,18,-7,13,9
-22,1,25,10,-23,13,23,13,17,-8,12,8
-24,0,24,12,-24,12,23,13,17,-8,11,7
-24,0,24,12,-24,12,23,13,17,-8,11,6
-24,0,24,12,-24,12,23,13,18,-7,11,6
-24,0,24,12,-24,12,23,14,19,-6,12,6
-23,1,24,11,-23,12,23,14,20,-5,12,6
-22,1,23,10,-23,12,24,15,20,-5,12,6
-20,2,23,9,-22,13,25,15,20,-5,12,6
-19,3,22,7,-21,13,25,16,19,-5,12,6
-18,3,22,7,-20,13,26,16,19,-6,12,6
-18,2,21,8,-20,12,26,16,19,-7,12,5
-20,1,22,9,-20,12,26,16,19,-7,12,5
-21,1,22,10,-21,11,26,17,19,-7,12,4
-21,1,22,10,-21,11,26,17,19,-7,12,4
-21,1,22,10,-22,11,26,16,19,-8,11,4
-22,0,22,10,-22,11,26,16,19,-8,11,4
-23,0,23,12,-23,11,26,16,18,-8,11,3
-26,-2,23,14,-25,11,26,16,17,-9,10,3
-27,-3,24,16,-26,11,26,16,17,-10,10,2
-28,-3,24,16,-26,11,26,16,17,-10,10,2
-28,-3,25,16,-26,11,26,16,19,-10,10,2
-29,-2,25,15,-27,11,27,16,20,-9,10,2
-28,-2,25,15,-27,11,27,16,20,-8,10,2
-27,-1,26,14,-27,11,27,17,19,-8,10,2
-26,0,26,13,-26,12,27,17,18,-8,10,3
-24,1,26,11,-25,13,28,18,19,-8,11,3
-22,3,26,10,-24,14,28,18,19,-8,11,4
-21,4,26,9,-23,15,28,18,20,-8,12,4
-22,3,26,9,-24,14,28,17,19,-9,11,3
-23,2,25,10,-24,13,26,15,17,-11,10,2
-23,1,24,10,-24,12,26,15,16,-12,10,1
-22,2,24,10,-23,12,26,15,16,-12,10,1
-21,3,24,9,-23,13,26,15,17,-11,10,1
-20,3,23,8,-22,13,26,15,17,-10,9,1
-20,3,22,8,-21,13,26,14,17,-10,9,1
-21,2,23,10,-22,12,26,14,17,-10,8,1
-23,1,24,11,-23,12,26,14,16,-10,8,1
-23,1,24,11,-23,12,26,14,17,-10,9,1
-22,2,24,10,-22,12,26,14,17,-10,9,2
-23,2,25,10,-23,12,27,15,17,-9,10,2
-25,1,26,11,-25,12,27,14,17,-10,10,2
-27,-1,26,14,-27,12,26,13,17,-10,9,1
-27,-1,26,14,-27,12,25,13,17,-9,9,2
-25,1,26,12,-27,14,26,14,17,-9,10,3
-24,3,27,10,-26,15,26,15,17,-9,11,5
-21,6,26,7,-24,16,27,16,18,-9,12,6
-19,7,26,6,-23,16,27,16,19,-9,12,6
-19,6,25,6,-22,15,27,16,19,-9,12,6
-20,4,24,8,-22,14,26,14,18,-9,11,5
-20,3,24,8,-22,13,26,14,18,-8,11,5
-20,5,25,8,-22,15,26,14,18,-7,12,6
-19,7,26,7,-23,17,26,15,19,-7,12,6
-19,8,26,6,-22,17,26,15,19,-7,12,7
-18,8,26,5,-22,17,26,15,19,-7,12,7
-18,9,27,4,-22,18,26,15,20,-6,13,7
-18,10,28,4,-23,19,26,15,22,-5,14,8
-18,10,29,4,-24,19,26,15,21,-5,14,8
-19,10,29,4,-24,20,25,15,20,-6,15,8
-18,11,29,3,-24,20,24,14,21,-4,16,9
-15,14,29,0,-23,22,24,15,23,-2,18,10
-13,16,29,-2,-21,23,24,15,25,0,18,11
-13,17,30,-2,-22,24,23,15,24,-1,18,12
-15,17,31,-1,-23,24,22,14,22,-3,17,12
-17,16,32,0,-24,24,21,13,21,-5,17,12
-18,13,31,2,-25,22,19,12,19,-6,16,12
-19,11,31,3,-25,21,17,11,18,-7,16,11
-20,11,31,4,-26,21,17,11,19,-6,16,12
-20,12,33,4,-27,23,17,11,22,-4,18,13
-19,14,34,3,-27,24,16,11,23,-1,18,14
-18,16,34,1,-26,25,15,10,23,-1,18,14
-17,17,34,0,-26,26,14,9,22,-1,19,15
-17,18,35,0,-26,26,14,8,22,-2,19,15
-16,19,34,-1,-25,26,14,8,22,-2,20,16
-14,19,33,-2,-24,26,14,8,22,-2,20,16
-13,19,32,-3,-23,26,14,8,21,-3,20,16
-12,18,30,-3,-22,24,13,7,20,-4,19,15
-12,16,28,-2,-21,22,12,6,19,-5,17,14
-13,14,27,0,-21,21,11,5,18,-6,17,14
-15,13,27,1,-21,20,11,5,18,-6,17,14
-17,12,28,2,-22,20,12,5,18,-6,17,14
-18,11,28,3,-22,19,12,5,18,-5,17,13
-18,10,28,3,-23,19,13,5,19,-4,17,13
-19,11,29,3,-24,20,13,6,20,-3,18,13
-19,10,29,4,-25,20,13,6,20,-2,18,13
-20,8,28,5,-25,18,13,5,18,-3,16,11
-21,6,27,7,-25,17,13,4,17,-5,15,10
-21,5,27,8,-24,16,13,5,17,-6,14,10
-20,5,26,7,-23,16,14,5,17,-6,14,10
-21,4,24,8,-23,14,14,5,17,-7,13,9
-23,0,23,11,-23,12,14,4,15,-8,11,7
-26,-3,22,14,-24,10,13,3,14,-9,10,6
-26,-5,22,16,-24,9,13,3,13,-10,10,6
-25,-5,21,15,-24,8,13,3,13,-10,10,5
-25,-4,21,15,-24,8,13,3,12,-10,10,5
-26,-4,21,15,-24,8,14,3,12,-11,9,5
-24,-4,20,14,-23,8,13,2,11,-11,8,4
-23,-4,19,13,-21,7,13,2,11,-12,7,3
-23,-4,18,14,-21,7,13,2,11,-11,7,3
-24,-5,19,15,-22,7,14,2,12,-10,8,4
-25,-5,19,15,-22,7,15,3,14,-8,9,4
-26,-5,20,15,-23,7,15,3,14,-7,10,4
-26,-4,20,15,-23,7,15,3,13,-8,10,4
-26,-4,21,15,-23,7,15,3,12,-9,9,4
-26,-4,21,15,-24,7,15,3,11,-11,8,4
-27,-5,21,16,-24,7,15,2,11,-11,8,4
-28,-6,20,17,-24,7,15,2,10,-12,7,4
-27,-7,20,16,-23,6,15,2,10,-12,7,4
-26,-7,19,16,-22,6,14,2,10,-11,7,4
-25,-6,18,15,-21,6,14,2,11,-10,7,5
-24,-6,18,15,-21,5,15,2,11,-10,7,5
-24,-6,17,16,-21,5,15,2,11,-10,7,5
-24,-6,17,16,-21,5,14,2,10,-11,7,5
-24,-7,16,16,-20,5,14,1,10,-11,7,5
-25,-7,16,16,-21,5,13,1,10,-11,7,4
-24,-7,17,16,-21,5,13,0,10,-11,6,4
-23,-6,17,15,-20,5,13,0,9,-12,6,4
-24,-7,17,16,-21,4,13,0,9,-12,5,4
-26,-8,17,17,-22,4,13,0,9,-12,5,4
-26,-8,18,17,-22,4,13,0,10,-11,6,4
-26,-7,18,17,-22,5,14,0,11,-11,6,5
-25,-6,18,16,-22,5,14,1,11,-10,6,5
-23,-6,18,15,-21,5,13,1,11,-10,6,5
-22,-4,18,13,-20,6,14,1,11,-10,7,5
-21,-3,18,12,-20,8,15,2,11,-9,8,6
-21,-3,18,12,-20,8,15,2,11,-9,8,7
-22,-5,17,14,-20,6,14,1,10,-10,7,6
-24,-9,15,17,-20,3,13,0,8,-12,5,4
-25,-11,13,19,-19,1,13,0,7,-12,4,3
-25,-12,12,18,-18,0,13,0,8,-12,3,3
-23,-12,11,18,-17,0,13,0,8,-12,2,2
-22,-13,9,17,-15,-2,13,0,6,-14,1,1
-21,-13,8,16,-14,-2,15,2,5,-16,0,0
-19,-12,7,15,-13,-2,17,6,6,-16,1,1
-17,-10,7,14,-12,-1,19,9,8,-15,2,2
-15,-8,7,12,-11,-1,19,11,12,-12,4,4
-13,-6,7,9,-10,0,19,13,16,-7,8,6
-10,-3,7,6,-9,2,19,15,21,-2,12,9
-6,0,6,3,-7,3,16,16,27,4,17,13
-1,3,5,-1,-4,5,11,14,33,11,23,17
3,7,5,-5,-1,6,4,9,39,18,29,22
4,9,5,-7,0,7,-5,2,44,25,36,28
8,13,5,-11,1,10,-16,-7,49,34,45,36
16,22,6,-19,4,14,-29,-18,55,44,57,46
24,33,8,-29,7,21,-43,-29,63,56,70,58
33,48,13,-40,9,31,-57,-41,73,69,85,71
42,63,20,-53,10,42,-70,-50,83,82,100,86
49,78,28,-64,10,54,-82,-58,92,95,115,99
54,91,37,-73,8,65,-94,-66,99,106,128,112
56,103,48,-80,4,76,-105,-74,106,116,140,123
56,115,59,-85,-1,88,-116,-82,114,127,151,134
55,126,70,-90,-7,99,-130,-90,123,139,161,144
51,135,84,-93,-16,110,-144,-97,134,151,171,154
41,141,99,-91,-29,121,-152,-99,146,164,181,163
28,142,114,-85,-43,128,-153,-96,157,174,187,167
13,138,124,-75,-56,131,-148,-90,166,178,186,165
-1,127,128,-63,-64,128,-139,-81,168,175,176,155
-12,113,126,-50,-69,119,-126,-69,166,164,159,140
-21,96,118,-37,-69,107,-111,-56,158,148,137,120
-28,78,107,-25,-67,93,-97,-48,143,126,111,97
-34,60,96,-13,-65,78,-84,-46,119,99,83,73
-41,43,85,-1,-64,64,-72,-49,91,70,56,50
-47,29,77,9,-63,53,-62,-54,65,43,34,31
-50,19,70,15,-61,44,-52,-56,42,21,17,17
-52,10,63,21,-58,36,-44,-59,20,2,4,7
-52,2,55,25,-54,28,-35,-59,3,-13,-6,-1
-50,-2,47,26,-48,22,-26,-56,-8,-23,-12,-7
-47,-6,41,26,-43,18,-18,-50,-14,-29,-15,-10
-43,-9,34,26,-39,13,-12,-44,-17,-32,-17,-12
-39,-11,28,26,-34,8,-6,-38,-18,-34,-19,-14
-36,-13,23,25,-31,5,-2,-32,-18,-34,-19,-14
-37,-16,20,27,-30,2,1,-28,-18,-35,-19,-15
-38,-20,17,29,-29,-1,3,-25,-18,-35,-20,-16
-38,-23,15,30,-27,-4,5,-22,-17,-34,-20,-16
-36,-24,12,29,-24,-5,7,-19,-14,-33,-19,-16
-34,-23,11,28,-22,-6,10,-15,-12,-30,-17,-15
-33,-22,11,28,-21,-6,13,-11,-10,-28,-16,-14
-33,-24,9,28,-21,-7,15,-9,-9,-28,-16,-14
-33,-26,8,30,-21,-9,16,-7,-9,-28,-16,-14
-32,-26,6,29,-20,-10,17,-6,-9,-28,-16,-14
-31,-26,5,28,-18,-10,18,-4,-8,-28,-16,-13
-31,-25,5,27,-18,-9,18,-4,-8,-27,-15,-13
-32,-25,6,28,-19,-9,19,-3,-7,-26,-15,-13
-33,-26,7,29,-20,-8,19,-3,-6,-25,-14,-13
-32,-25,7,29,-19,-9,19,-2,-6,-25,-15,-13
-30,-25,5,28,-18,-10,19,-2,-7,-25,-15,-13
-29,-25,4,27,-17,-10,19,-2,-7,-26,-15,-13
-28,-25,3,27,-17,-10,19,-2,-7,-26,-15,-13
-28,-25,3,27,-16,-10,19,-2,-7,-27,-15,-13
-28,-25,3,26,-16,-10,20,-1,-7,-27,-15,-13
-28,-24,3,26,-15,-10,20,-1,-7,-27,-15,-13
-28,-24,3,26,-15,-10,20,-1,-7,-27,-15,-13
-28,-25,3,27,-16,-10,20,-1,-7,-27,-15,-13
-28,-25,2,27,-15,-11,19,-1,-7,-27,-16,-14
-27,-26,1,27,-14,-11,19,-1,-7,-27,-16,-14
-27,-25,1,27,-15,-11,19,-1,-7,-26,-15,-13
-28,-25,3,26,-16,-10,20,0,-6,-25,-14,-12
-28,-24,4,26,-17,-10,20,0,-6,-25,-14,-11
-29,-24,4,26,-17,-10,20,-1,-7,-25,-15,-11
-30,-26,4,27,-17,-10,19,-1,-7,-26,-15,-12
-32,-27,5,29,-18,-11,18,-1,-6,-25,-15,-12
-33,-27,5,30,-19,-10,18,-1,-5,-24,-15,-12
-32,-26,5,29,-19,-9,19,0,-5,-24,-15,-12
-30,-25,5,28,-18,-9,20,0,-5,-24,-14,-12
-29,-25,4,27,-17,-9,19,0,-5,-24,-14,-12
-29,-25,5,27,-18,-9,19,0,-5,-24,-14,-12
-29,-24,5,26,-18,-9,20,0,-6,-25,-14,-12
-27,-23,4,25,-16,-9,20,0,-6,-25,-15,-12
-26,-23,3,24,-15,-9,20,0,-7,-26,-15,-13
-26,-23,3,24,-15,-9,20,0,-7,-25,-16,-13
-27,-23,4,24,-15,-9,21,1,-6,-25,-15,-13
-28,-24,4,26,-16,-9,21,1,-6,-24,-15,-13
-29,-26,3,28,-16,-11,19,0,-8,-25,-17,-15
-29,-28,1,28,-15,-12,18,-1,-10,-27,-18,-16
-29,-28,0,28,-15,-13,17,-2,-11,-27,-19,-17
-30,-29,1,29,-16,-14,17,-2,-11,-28,-19,-17
-31,-29,2,30,-16,-13,17,-2,-11,-28,-19,-16
-31,-29,2,30,-16,-13,17,-2,-11,-28,-19,-16
-30,-29,1,29,-15,-14,17,-2,-11,-27,-20,-17
-29,-28,0,28,-14,-13,17,-2,-11,-27,-20,-17
-28,-27,1,28,-15,-13,18,-1,-11,-26,-19,-16
-29,-27,1,28,-15,-12,18,-1,-11,-26,-19,-16
-29,-27,1,27,-15,-12,19,-1,-10,-25,-19,-16
-29,-28,0,28,-15,-13,18,-1,-11,-25,-20,-16
-30,-29,0,29,-15,-14,18,-2,-11,-26,-20,-16
-32,-30,0,31,-16,-14,18,-1,-11,-26,-21,-16
-33,-31,0,32,-16,-14,18,-1,-11,-26,-21,-16
-32,-31,0,32,-16,-15,18,-1,-12,-27,-21,-17
-32,-31,0,32,-16,-15,18,-1,-12,-27,-22,-17
-31,-31,0,31,-16,-15,18,0,-12,-26,-22,-17
-31,-31,0,30,-16,-15,18,0,-12,-25,-22,-17
-30,-30,0,29,-15,-15,18,0,-12,-25,-22,-18
-29,-30,0,29,-15,-15,18,0,-13,-25,-23,-18
-30,-29,0,29,-15,-14,18,0,-13,-26,-23,-18
-30,-29,1,29,-15,-14,18,1,-13,-26,-23,-18
-30,-29,1,29,-15,-13,18,1,-13,-25,-23,-18
-28,-28,0,28,-14,-14,19,2,-13,-25,-23,-18
-27,-28,0,27,-13,-14,19,2,-13,-25,-23,-18
-27,-27,0,27,-13,-13,19,3,-13,-25,-23,-17
-26,-27,0,26,-13,-13,20,4,-13,-24,-23,-17
-26,-27,0,26,-14,-13,20,4,-13,-24,-23,-18
-28,-28,0,28,-14,-14,19,4,-14,-24,-24,-19
-29,-30,-1,29,-15,-15,19,4,-15,-25,-25,-20
-29,-30,-1,29,-14,-15,18,4,-15,-25,-25,-20
-28,-30,-1,28,-14,-15,18,4,-14,-25,-25,-19
-29,-30,-1,29,-14,-16,18,5,-14,-24,-25,-19
-31,-32,-1,31,-15,-17,17,5,-15,-25,-25,-19
-32,-33,-2,32,-15,-17,17,5,-15,-25,-26,-19
-31,-33,-2,31,-15,-17,17,6,-15,-25,-26,-19
-30,-32,-2,31,-14,-17,17,7,-15,-24,-25,-19
-29,-31,-2,30,-13,-17,18,8,-14,-24,-25,-18
-27,-30,-3,28,-12,-17,18,9,-14,-24,-25,-18
-25,-29,-4,27,-11,-16,17,10,-13,-23,-24,-17
-24,-27,-4,25,-10,-15,17,10,-13,-22,-24,-17
-22,-26,-4,24,-9,-15,16,11,-12,-21,-23,-16
-21,-25,-4,23,-9,-14,16,12,-11,-20,-22,-16
-20,-23,-4,21,-8,-13,16,13,-10,-19,-21,-15
-19,-22,-4,21,-8,-13,16,14,-10,-18,-20,-14
-20,-23,-3,21,-8,-13,15,14,-9,-17,-20,-14
-22,-23,-2,22,-10,-12,15,15,-8,-16,-19,-13
-23,-24,-1,23,-11,-12,15,16,-7,-16,-18,-13
-22,-24,-1,23,-10,-12,14,16,-7,-15,-17,-12
-20,-22,-2,21,-9,-12,14,16,-6,-13,-16,-11
-19,-21,-2,20,-8,-12,13,16,-6,-13,-16,-11
-18,-22,-4,21,-8,-13,11,15,-6,-13,-16,-11
-17,-22,-6,20,-6,-14,9,14,-7,-13,-16,-11
-15,-21,-7,18,-5,-14,9,14,-7,-12,-15,-10
-14,-20,-6,17,-4,-13,8,14,-6,-11,-14,-9
-13,-19,-6,16,-4,-12,8,14,-6,-11,-13,-9
-11,-18,-7,14,-2,-11,7,14,-6,-10,-12,-8
-10,-17,-7,13,-2,-11,7,14,-6,-9,-11,-7
-10,-16,-6,13,-2,-11,6,15,-5,-8,-10,-7
-10,-16,-5,13,-3,-11,6,15,-4,-7,-9,-6
-10,-15,-5,13,-3,-11,5,15,-3,-6,-8,-5
-9,-15,-5,12,-3,-10,5,15,-3,-5,-7,-4
-9,-14,-5,12,-3,-9,4,15,-3,-4,-7,-3
-8,-14,-5,11,-3,-9,4,15,-3,-4,-6,-2
-8,-13,-4,11,-3,-8,3,15,-3,-3,-6,-2
-8,-12,-4,11,-3,-8,3,15,-3,-3,-6,-1
-7,-12,-5,10,-2,-8,2,14,-3,-3,-6,-1
-5,-11,-6,8,0,-8,2,14,-3,-3,-5,0
-4,-10,-5,7,0,-7,2,15,-3,-2,-4,1
-4,-8,-4,7,0,-6,2,15,-2,-1,-3,3
-4,-7,-4,6,0,-5,1,15,-1,0,-2,4
-3,-7,-4,5,0,-5,1,15,0,0,-1,4
-4,-8,-5,6,0,-5,0,15,0,0,-1,4
-3,-8,-5,5,0,-6,0,14,-1,0,-1,4
-1,-6,-6,3,1,-5,0,14,0,0,0,5
0,-5,-6,2,2,-5,0,13,0,1,0,6
0,-5,-5,3,2,-5,0,13,-1,1,0,6
-1,-5,-4,3,1,-4,0,13,0,2,1,7
-1,-4,-3,2,1,-3,0,13,0,2,2,8
0,-4,-4,2,2,-4,0,12,0,2,2,9
1,-4,-6,1,3,-5,0,11,0,2,2,8
1,-4,-6,1,3,-5,0,11,-1,2,1,8
0,-4,-5,2,1,-5,0,11,0,2,1,9
-2,-4,-3,2,0,-4,0,10,0,3,1,9
-3,-5,-2,3,-1,-4,0,10,0,3,1,8
-4,-6,-2,4,-1,-4,0,9,-1,3,1,8
-2,-5,-2,3,0,-3,0,8,-1,3,2,8
2,-1,-3,0,2,-2,0,8,-1,4,3,9
4,1,-3,-3,3,-1,0,8,0,4,3,9
1,-2,-3,0,2,-2,0,6,-1,3,2,8
-3,-6,-3,5,0,-4,-2,4,-3,1,1,6
-5,-8,-3,7,-1,-5,-2,3,-3,1,0,6
-5,-8,-3,7,-1,-6,-2,3,-4,1,0,5
-5,-8,-3,6,-1,-5,-2,2,-4,1,0,5
-6,-8,-2,6,-2,-5,-1,2,-4,1,0,5
-7,-8,-1,7,-3,-4,-1,1,-4,1,0,5
-6,-8,-1,7,-3,-4,-2,0,-5,1,-1,5
-5,-8,-2,6,-2,-5,-2,0,-5,0,-1,5
-5,-8,-3,6,-2,-5,-2,0,-5,0,-1,5
-4,-7,-3,6,-1,-5,-1,0,-5,1,-1,5
-5,-7,-2,6,-2,-5,-1,0,-5,1,-1,5
-7,-8,-1,7,-3,-5,-1,0,-5,1,-1,4
-7,-8,-1,7,-3,-5,-1,0,-5,1,-1,4
-6,-7,-2,6,-2,-5,-1,-1,-6,1,-1,4
-5,-8,-2,6,-2,-5,-1,-1,-6,1,-2,3
-6,-9,-3,7,-2,-6,-1,-2,-7,0,-3,3
-8,-10,-2,9,-3,-6,-1,-2,-6,1,-3,3
-11,-10,0,11,-6,-5,0,-2,-6,1,-2,3
-12,-11,1,12,-7,-4,0,-2,-6,1,-2,2
-11,-11,0,11,-6,-5,0,-2,-6,1,-3,2
-9,-10,-1,9,-4,-5,0,-2,-7,1,-3,2
-7,-9,-2,8,-3,-5,0,-2,-7,1,-3,2
-6,-9,-2,7,-3,-6,0,-2,-7,1,-3,2
-6,-10,-2,8,-2,-6,0,-2,-7,1,-3,2
-7,-10,-2,8,-3,-6,0,-1,-6,1,-3,2
-8,-10,-1,9,-3,-6,1,-1,-5,2,-3,2
-8,-10,-2,9,-3,-6,1,-1,-5,3,-3,2
-7,-10,-3,8,-2,-6,1,-1,-5,3,-4,2
-8,-10,-2,9,-3,-6,1,0,-5,3,-4,2
-8,-10,-2,9,-3,-6,2,0,-5,3,-3,2
-6,-9,-3,8,-2,-6,2,0,-5,3,-3,3
-6,-9,-3,8,-2,-7,2,0,-6,2,-4,2
-8,-11,-3,10,-3,-7,2,0,-7,1,-4,1
-10,-13,-3,12,-4,-8,2,0,-8,0,-5,0
-11,-14,-3,12,-4,-8,2,0,-8,0,-5,0
-11,-14,-4,12,-4,-8,2,0,-8,0,-5,0
-10,-14,-5,12,-3,-9,1,0,-8,0,-6,-1
-9,-14,-5,12,-3,-10,2,0,-8,0,-6,-1
-9,-13,-5,12,-3,-10,2,1,-7,0,-5,-1
-9,-13,-5,12,-3,-10,3,2,-7,0,-5,-1
-9,-13,-5,11,-3,-9,3,2,-7,0,-5,-1
-8,-13,-5,10,-2,-8,3,2,-7,0,-5,-1
-6,-12,-6,9,-1,-8,3,2,-7,0,-5,-1
-5,-12,-8,8,1,-9,3,2,-7,0,-5,-1
-4,-12,-8,8,2,-10,3,2,-7,0,-5,-1
-4,-12,-8,8,1,-10,3,3,-7,0,-5,-1
-6,-12,-7,9,0,-9,4,3,-7,0,-6,-1
-8,-13,-6,10,-1,-10,4,3,-8,0,-7,-2
-9,-15,-6,12,-2,-10,4,3,-8,0,-7,-2
-11,-16,-6,13,-3,-11,4,3,-8,0,-8,-3
-12,-16,-5,14,-4,-10,4,3,-8,0,-8,-3
-12,-16,-4,14,-5,-10,4,3,-9,-1,-8,-3
-11,-16,-4,14,-4,-10,4,3,-9,-1,-8,-3
-10,-16,-5,13,-3,-10,3,2,-10,-2,-8,-4
-11,-16,-5,14,-4,-10,3,2,-10,-3,-9,-4
-11,-15,-4,13,-4,-9,4,2,-9,-2,-8,-3
-10,-13,-4,12,-3,-8,4,2,-8,-2,-8,-3
-9,-13,-5,11,-2,-9,4,2,-8,-2,-8,-3
-8,-13,-5,11,-2,-9,4,1,-9,-2,-8,-3
-9,-13,-4,12,-3,-8,4,1,-9,-2,-8,-3
-11,-14,-3,13,-4,-8,4,1,-9,-2,-8,-4
-12,-15,-3,14,-5,-8,4,1,-10,-2,-9,-4
-12,-16,-4,14,-5,-9,4,1,-10,-2,-9,-4
-12,-15,-4,14,-5,-9,5,1,-10,-2,-9,-4
-12,-14,-3,13,-5,-8,5,1,-9,-1,-9,-4
-12,-13,-2,12,-5,-7,6,2,-9,0,-8,-3
-11,-11,-2,11,-5,-7,7,2,-8,0,-7,-2
-9,-10,-2,10,-4,-6,7,2,-8,1,-7,-2
-8,-10,-3,9,-3,-6,7,2,-9,1,-7,-2
-6,-9,-3,7,-2,-6,7,2,-9,1,-7,-2
-5,-8,-3,6,-1,-5,7,2,-9,1,-6,-2
-4,-7,-3,6,-1,-4,8,3,-9,1,-6,-1
-2,-5,-3,4,0,-3,8,3,-8,2,-5,-1
-1,-4,-3,3,0,-3,8,4,-7,2,-5,0
-3,-5,-2,5,-1,-3,7,4,-8,2,-5,-1
-7,-8,-1,8,-3,-4,6,3,-8,2,-5,-1
-10,-9,0,10,-5,-4,6,3,-8,3,-5,-1
-10,-9,0,10,-5,-4,6,3,-8,3,-5,-1
-9,-7,0,9,-5,-3,6,3,-7,4,-5,0
-8,-6,0,8,-5,-3,6,3,-7,4,-4,0
-7,-6,0,7,-5,-2,5,3,-7,5,-4,0
-5,-5,0,5,-4,-2,5,2,-7,5,-4,0
-3,-3,0,3,-2,-2,4,2,-7,5,-3,0
-1,-1,0,1,0,0,4,3,-7,6,-2,1
0,0,0,0,0,0,4,3,-6,7,-1,2
-2,0,0,1,-1,0,4,2,-5,8,-1,2
-2,-1,0,1,-2,0,3,2,-5,8,-1,3
-2,-1,0,2,-2,0,2,1,-5,8,-1,3
-3,-2,0,3,-2,-1,0,0,-6,7,-1,3
-5,-3,1,4,-4,-1,-1,-1,-6,7,-2,2
-7,-4,2,5,-5,-1,-2,-1,-6,7,-1,3
-6,-2,3,4,-5,1,-2,-1,-5,8,0,4
-3,0,3,1,-4,2,-2,-1,-4,9,0,5
-2,1,3,0,-3,3,-3,-1,-4,9,0,5
-3,2,4,0,-4,4,-3,-1,-4,9,1,6
-4,2,6,1,-6,5,-4,-1,-4,10,1,6
-4,3,6,1,-6,4,-5,-2,-4,10,1,7
-2,3,5,0,-4,4,-6,-3,-4,10,1,7
-1,3,4,-1,-3,3,-6,-3,-5,10,1,7
-1,3,5,-1,-4,3,-7,-4,-5,10,2,7
-2,2,5,0,-4,3,-7,-4,-5,9,2,7
-1,2,4,-1,-2,3,-8,-4,-5,9,2,7
1,4,2,-3,0,3,-8,-5,-5,9,2,7
3,5,1,-4,0,3,-8,-5,-6,9,2,7
2,4,1,-3,0,2,-8,-5,-6,9,1,7
0,1,0,-1,-1,1,-9,-6,-7,8,0,6
-2,-1,0,1,-1,0,-9,-6,-7,7,0,5
-4,-4,1,4,-2,-1,-9,-7,-8,6,-1,4
-6,-5,1,6,-3,-2,-8,-7,-8,6,-1,4
-7,-6,1,6,-4,-2,-8,-7,-8,6,-1,3
-8,-6,1,7,-4,-2,-8,-6,-9,6,-1,3
-9,-7,2,7,-5,-2,-7,-6,-9,6,-1,3
-10,-8,1,9,-6,-3,-6,-6,-9,6,-2,2
-9,-8,0,9,-5,-4,-6,-6,-9,6,-2,2
-8,-9,-1,8,-3,-5,-6,-6,-9,6,-2,1
-7,-10,-2,8,-2,-5,-5,-6,-10,6,-3,0
-7,-11,-3,9,-2,-6,-5,-6,-10,6,-3,0
-7,-11,-3,9,-2,-7,-5,-6,-10,6,-4,-1
-7,-12,-4,9,-1,-8,-5,-6,-10,5,-4,-1
-7,-12,-5,9,-1,-9,-5,-7,-11,5,-5,-1
-7,-13,-6,9,0,-9,-5,-7,-12,4,-5,-2
-6,-13,-7,9,0,-10,-5,-7,-12,4,-6,-2
-6,-13,-8,10,0,-10,-6,-8,-13,3,-6,-2
-5,-14,-9,10,1,-11,-6,-8,-13,3,-6,-3
-3,-13,-10,8,3,-11,-6,-8,-14,2,-6,-3
-4,-14,-10,9,3,-11,-6,-8,-14,2,-6,-3
-6,-16,-9,11,1,-12,-6,-8,-14,1,-7,-3
-9,-18,-9,14,0,-13,-6,-9,-15,1,-8,-4
-11,-20,-9,15,0,-14,-7,-9,-15,1,-8,-4
-11,-20,-9,16,-1,-14,-7,-9,-14,1,-8,-4
-11,-19,-8,16,-2,-14,-7,-9,-14,2,-8,-3
-12,-19,-7,16,-3,-13,-7,-9,-14,2,-7,-3
-12,-19,-6,16,-4,-12,-7,-9,-14,2,-7,-3
-12,-20,-7,16,-3,-13,-7,-9,-14,2,-7,-3
-10,-20,-9,15,-1,-14,-8,-10,-15,1,-8,-4
-8,-19,-11,14,0,-14,-8,-10,-15,1,-8,-4
-7,-18,-11,13,1,-14,-7,-9,-15,1,-8,-4
-7,-17,-11,12,1,-14,-7,-9,-14,1,-8,-3
-5,-15,-10,10,2,-13,-6,-8,-14,1,-7,-3
-4,-15,-11,9,3,-13,-6,-9,-14,1,-7,-3
-5,-16,-11,11,2,-13,-7,-9,-15,0,-8,-4
-7,-17,-10,12,1,-13,-7,-9,-15,0,-8,-3
-8,-17,-10,12,1,-13,-6,-8,-14,1,-7,-3
-8,-17,-10,12,1,-13,-6,-8,-14,1,-7,-3
-8,-17,-10,12,1,-13,-5,-8,-14,1,-7,-3
-8,-17,-9,12,0,-13,-5,-8,-13,1,-7,-3
-9,-18,-9,14,0,-13,-5,-8,-13,1,-7,-3
-9,-18,-9,14,0,-14,-6,-8,-13,1,-8,-3
-8,-18,-10,14,0,-14,-6,-8,-13,1,-8,-3
-6,-17,-11,12,2,-14,-7,-9,-14,1,-8,-3
-3,-16,-13,9,5,-14,-7,-9,-14,1,-8,-4
-3,-15,-13,9,5,-13,-6,-9,-14,1,-8,-4
-5,-16,-12,10,3,-13,-6,-8,-14,1,-8,-4
-7,-17,-11,12,1,-14,-6,-8,-15,0,-9,-4
-7,-19,-12,13,2,-15,-6,-8,-15,-1,-10,-5
-7,-20,-12,14,2,-16,-6,-8,-16,-1,-10,-6
-6,-20,-14,14,3,-17,-5,-6,-16,-2,-11,-7
-5,-21,-16,13,5,-18,-4,-5,-17,-3,-11,-7
-5,-22,-18,13,6,-19,-3,-3,-17,-3,-12,-8
-3,-22,-19,13,7,-20,-1,-1,-16,-2,-11,-7
-1,-21,-20,11,9,-20,-1,0,-13,0,-10,-6
1,-19,-21,8,10,-20,-2,2,-10,2,-8,-4
5,-15,-21,4,13,-19,-3,4,-6,6,-4,-1
11,-10,-22,0,16,-17,-4,5,0,11,0,2
15,-6,-22,-5,18,-14,-8,4,6,18,6,6
19,-1,-21,-9,19,-11,-13,2,13,27,13,12
24,5,-20,-14,21,-7,-20,-3,21,36,22,19
30,12,-19,-21,24,-3,-29,-11,27,44,30,26
36,19,-19,-27,27,0,-42,-23,31,52,39,34
40,25,-16,-33,28,5,-57,-37,36,61,49,43
44,35,-10,-40,27,12,-72,-49,43,72,62,55
50,48,-3,-49,27,22,-84,-60,52,84,76,68
58,62,3,-60,28,33,-97,-69,61,97,90,81
66,76,9,-71,29,43,-110,-79,68,108,104,93
71,90,17,-81,27,55,-123,-89,74,118,116,105
72,103,30,-87,20,67,-135,-98,82,128,128,117
68,114,45,-91,11,80,-149,-107,91,139,139,129
63,125,61,-93,0,93,-164,-116,101,151,150,140
55,134,79,-94,-12,106,-174,-121,112,164,161,149
43,138,95,-90,-26,116,-177,-120,124,176,169,156
29,136,107,-82,-38,121,-174,-115,134,184,171,156
16,128,112,-72,-47,120,-167,-107,139,184,166,150
5,115,109,-60,-51,113,-156,-96,138,176,153,137
-3,99,101,-47,-52,101,-142,-81,134,163,134,120
-11,81,91,-35,-51,87,-125,-66,123,144,111,100
-19,63,82,-22,-51,73,-109,-58,106,121,85,78
-27,45,73,-9,-51,59,-94,-56,82,94,59,56
-32,31,64,0,-48,47,-81,-58,56,67,35,35
-34,20,55,7,-44,37,-70,-60,33,44,16,18
-36,9,45,13,-40,27,-61,-62,11,24,1,5
-36,0,35,18,-36,18,-53,-63,-7,8,-10,-4
-35,-6,27,20,-31,11,-46,-61,-21,-3,-18,-11
-32,-12,18,22,-26,4,-39,-58,-30,-12,-23,-15
-28,-16,11,22,-20,-1,-34,-54,-36,-17,-27,-19
-26,-18,6,22,-16,-5,-28,-49,-38,-20,-29,-20
-23,-20,3,22,-13,-8,-22,-42,-38,-22,-30,-21
-21,-21,0,21,-10,-11,-18,-37,-38,-22,-30,-22
-19,-23,-4,21,-7,-14,-15,-33,-38,-22,-30,-23
-18,-25,-8,22,-5,-16,-13,-29,-37,-22,-29,-23
-17,-26,-11,21,-3,-18,-10,-25,-35,-20,-28,-22
-15,-26,-13,20,-2,-18,-7,-21,-32,-18,-27,-21
-14,-27,-14,20,-1,-19,-4,-17,-29,-16,-27,-21
-14,-27,-14,21,0,-21,-2,-14,-28,-15,-26,-21
-13,-28,-14,21,0,-22,0,-12,-27,-14,-26,-21
-13,-28,-15,21,1,-22,1,-11,-27,-14,-26,-21
-12,-28,-16,21,1,-23,1,-10,-27,-14,-26,-21
-13,-29,-16,21,1,-23,1,-10,-27,-14,-26,-21
-14,-31,-17,22,1,-24,1,-10,-27,-14,-26,-21
-15,-33,-19,24,1,-25,1,-10,-27,-15,-26,-22
-16,-35,-19,25,0,-26,0,-10,-27,-15,-27,-22
-16,-35,-19,26,0,-27,0,-10,-27,-15,-27,-23
-16,-35,-19,26,1,-27,0,-10,-27,-15,-27,-23
-16,-35,-19,26,1,-27,1,-10,-27,-14,-27,-23
-16,-33,-18,25,1,-26,1,-9,-27,-14,-26,-22
-15,-32,-17,24,0,-25,2,-8,-26,-13,-26,-22
-14,-31,-17,23,0,-24,2,-8,-26,-13,-25,-21
-14,-30,-17,22,0,-23,2,-7,-25,-13,-25,-20
-13,-29,-16,21,0,-22,3,-6,-23,-12,-24,-19
-11,-28,-16,19,1,-22,4,-6,-22,-11,-23,-19
-11,-28,-17,19,2,-23,4,-6,-22,-11,-24,-19
-13,-31,-17,22,2,-24,4,-7,-23,-12,-25,-20
-16,-33,-17,25,0,-25,3,-7,-24,-13,-26,-21
-16,-33,-17,25,0,-25,3,-7,-24,-13,-26,-22
-14,-33,-19,23,2,-25,3,-7,-25,-13,-27,-22
-13,-32,-19,22,2,-25,3,-7,-25,-13,-27,-21
-11,-29,-18,20,3,-23,4,-6,-24,-12,-26,-20
-8,-26,-18,17,4,-21,5,-5,-23,-12,-25,-19
-9,-27,-18,18,4,-22,5,-6,-24,-13,-25,-20
-12,-31,-19,21,3,-24,4,-7,-26,-14,-27,-21
-13,-33,-19,23,3,-26,3,-7,-26,-14,-27,-22
-14,-33,-19,24,3,-26,4,-7,-26,-14,-27,-23
-14,-34,-20,25,3,-26,4,-8,-27,-14,-28,-23
-15,-34,-20,25,3,-27,3,-8,-27,-15,-29,-24
-16,-35,-20,26,2,-27,3,-8,-28,-15,-29,-24
-17,-35,-19,26,0,-26,4,-8,-27,-15,-29,-23
-17,-33,-18,25,0,-25,5,-7,-27,-14,-28,-22
-16,-32,-17,24,0,-24,5,-6,-26,-13,-27,-22
-15,-32,-16,24,0,-24,6,-5,-26,-13,-27,-21
-16,-31,-15,24,-1,-23,6,-5,-25,-12,-26,-21
-17,-31,-14,24,-1,-23,6,-4,-25,-12,-26,-21
-17,-31,-14,24,-1,-23,6,-5,-26,-12,-26,-22
-17,-32,-15,25,-1,-24,5,-6,-27,-14,-27,-23
-17,-33,-16,25,-1,-25,5,-6,-28,-15,-28,-24
-16,-33,-17,25,0,-25,5,-6,-28,-15,-29,-25
-15,-31,-17,23,0,-24,6,-5,-28,-15,-28,-24
-14,-30,-16,22,1,-23,6,-4,-27,-14,-28,-24
-12,-30,-17,21,2,-24,6,-4,-28,-14,-28,-25
-12,-30,-18,21,3,-24,6,-4,-28,-14,-29,-25
-13,-31,-18,22,3,-24,6,-3,-28,-14,-29,-25
-14,-31,-18,23,2,-25,6,-3,-28,-14,-29,-26
-16,-32,-17,24,0,-25,6,-3,-28,-14,-29,-26
-17,-33,-17,25,0,-25,6,-3,-28,-15,-30,-27
-17,-34,-18,26,0,-26,6,-4,-29,-15,-30,-28
-17,-35,-19,26,0,-27,5,-4,-29,-16,-31,-29
-17,-34,-18,26,0,-26,6,-3,-29,-16,-31,-29
-17,-34,-16,26,0,-25,7,-2,-29,-15,-31,-28
-18,-34,-14,27,-1,-24,7,-1,-28,-14,-31,-28
-18,-33,-14,26,-1,-24,7,0,-28,-14,-31,-28
-18,-33,-15,25,-1,-24,8,0,-28,-14,-31,-28
-17,-32,-15,24,-1,-24,8,0,-29,-15,-31,-28
-17,-32,-16,24,-1,-24,8,0,-29,-15,-31,-28
-16,-32,-16,24,0,-24,8,1,-29,-15,-31,-28
-17,-33,-16,25,0,-24,8,1,-29,-15,-31,-29
-18,-34,-15,26,-1,-24,8,1,-30,-15,-32,-30
-19,-34,-15,26,-1,-24,8,1,-30,-15,-33,-30
-18,-33,-15,26,-1,-24,8,2,-30,-15,-33,-30
-18,-33,-16,26,-1,-24,9,3,-30,-16,-33,-31
-18,-33,-16,26,-1,-25,8,3,-30,-16,-33,-31
-16,-33,-17,25,0,-25,9,3,-30,-16,-33,-31
-15,-32,-17,24,0,-24,9,4,-29,-15,-33,-31
-15,-32,-17,24,0,-24,9,5,-28,-15,-33,-31
-16,-33,-17,25,0,-25,9,5,-29,-15,-33,-32
-16,-33,-17,25,1,-25,8,5,-29,-15,-34,-33
-16,-33,-17,25,1,-25,8,5,-29,-15,-33,-32
-15,-32,-17,24,1,-24,9,6,-29,-14,-33,-32
-15,-31,-17,23,1,-24,9,7,-28,-14,-32,-31
-16,-32,-16,23,0,-24,9,8,-27,-13,-32,-31
-17,-33,-16,25,0,-24,8,9,-27,-13,-32,-30
-17,-34,-17,25,0,-25,8,9,-26,-13,-32,-30
-16,-33,-17,24,1,-25,7,10,-26,-13,-31,-30
-15,-31,-16,23,1,-24,8,11,-25,-12,-30,-28
-14,-29,-15,22,1,-22,8,12,-24,-10,-28,-27
-10,-26,-17,18,3,-22,8,13,-23,-9,-27,-26
-5,-24,-19,15,7,-22,8,14,-22,-9,-27,-26
-3,-23,-20,13,8,-22,7,14,-22,-8,-26,-26
-5,-23,-19,14,6,-21,7,15,-21,-7,-25,-25
-6,-23,-17,14,5,-21,7,16,-20,-6,-25,-24
-6,-23,-18,15,6,-21,7,16,-19,-6,-24,-23
-6,-24,-18,15,6,-21,6,16,-19,-5,-24,-23
-6,-23,-17,15,6,-20,5,16,-19,-5,-23,-22
-5,-21,-18,13,6,-20,5,16,-18,-4,-21,-21
-3,-19,-17,10,7,-18,5,17,-16,-3,-20,-20
0,-16,-17,8,8,-17,6,18,-15,-1,-18,-18
2,-13,-16,5,9,-15,6,19,-13,0,-16,-17
3,-12,-15,4,9,-14,6,20,-12,1,-15,-16
1,-13,-14,6,8,-14,5,20,-12,1,-14,-15
0,-15,-14,8,7,-14,4,19,-12,1,-14,-15
0,-15,-15,8,7,-14,3,19,-12,1,-13,-15
0,-14,-15,7,7,-14,3,19,-12,1,-12,-15
-1,-14,-14,7,6,-13,2,19,-12,1,-12,-14
-2,-15,-13,8,5,-14,2,19,-12,1,-11,-14
-1,-14,-13,7,5,-14,1,19,-12,1,-11,-13
1,-13,-14,5,7,-14,0,19,-12,1,-10,-13
4,-11,-15,3,9,-13,0,19,-12,1,-10,-12
6,-9,-16,2,11,-13,0,20,-11,2,-9,-11
6,-9,-16,2,11,-13,0,20,-10,3,-8,-10
6,-10,-16,2,11,-13,0,19,-10,3,-7,-10
