leadI,leadII,leadIII,leadaVR,leadaVL,leadaVF,leadV1,leadV2,leadV3,leadV4,leadV5,leadV6
-2,-6,-4,5,0,-5,1,-1,-1,0,0,0
-6,-16,-10,11,1,-13,2,-4,-2,-1,0,1
-6,-20,-14,13,3,-18,3,-5,-3,-1,0,1
-5,-22,-17,14,5,-20,3,-6,-4,-1,0,2
-5,-24,-19,14,7,-22,4,-6,-4,-1,0,2
-5,-26,-20,15,7,-24,4,-7,-4,-1,0,2
-8,-28,-20,18,6,-25,4,-7,-4,-1,0,2
-10,-31,-21,20,5,-26,4,-8,-4,-2,0,2
-12,-32,-21,22,4,-27,4,-8,-4,-2,0,2
-12,-32,-20,22,4,-26,4,-8,-5,-2,0,2
-10,-30,-20,20,4,-25,4,-8,-5,-2,0,2
-9,-29,-20,19,5,-25,4,-8,-5,-2,0,2
-8,-28,-19,18,5,-24,4,-8,-4,-1,1,2
-8,-28,-20,18,5,-25,3,-8,-4,-1,2,2
-8,-29,-20,19,6,-25,3,-9,-5,-1,2,1
-10,-31,-21,20,5,-26,3,-9,-5,-1,1,1
-11,-32,-21,21,5,-26,3,-9,-5,-1,1,1
-11,-32,-21,22,5,-27,2,-9,-5,-2,0,1
-10,-32,-22,21,6,-27,2,-10,-6,-2,0,1
-9,-30,-21,19,7,-26,2,-10,-6,-2,0,1
-8,-29,-20,18,6,-25,2,-10,-6,-2,0,1
-8,-28,-19,18,6,-25,2,-10,-6,-2,0,0
-8,-28,-20,18,6,-25,1,-10,-7,-3,-1,0
-8,-30,-21,19,6,-26,1,-11,-7,-3,-1,0
-10,-31,-20,20,5,-25,1,-10,-6,-2,0,0
-12,-31,-20,21,4,-25,1,-10,-5,-2,0,0
-11,-31,-20,21,4,-25,1,-10,-5,-2,0,0
-10,-30,-20,20,5,-25,2,-10,-5,-2,0,0
-9,-29,-20,19,5,-25,2,-10,-5,-2,0,0
-8,-28,-20,18,6,-25,2,-10,-5,-2,0,0
-9,-28,-20,18,6,-25,2,-10,-5,-2,0,0
-9,-29,-20,19,5,-25,2,-10,-5,-2,0,0
-10,-29,-19,19,5,-24,2,-10,-5,-2,0,0
-10,-28,-19,18,4,-23,3,-10,-4,-1,1,0
-10,-27,-18,18,4,-22,3,-10,-4,-1,1,1
-9,-25,-17,17,4,-21,4,-9,-3,0,1,1
-7,-24,-16,16,4,-20,4,-9,-3,0,2,2
-7,-23,-15,15,4,-20,5,-8,-3,0,3,2
-7,-23,-15,15,3,-19,5,-8,-2,1,4,3
-8,-23,-14,15,3,-19,6,-8,-2,1,4,3
-8,-23,-14,15,3,-19,6,-8,-2,1,4,3
-9,-23,-14,15,3,-19,6,-8,-2,1,4,3
-9,-23,-14,15,3,-19,6,-8,-2,1,3,3
-8,-22,-14,15,3,-19,6,-8,-2,1,3,3
-7,-21,-14,15,3,-18,6,-8,-2,2,3,3
-7,-21,-13,14,3,-17,6,-8,-1,2,3,3
-7,-20,-12,13,2,-16,5,-8,-1,2,4,3
-7,-19,-11,13,2,-15,5,-8,-1,2,4,3
-7,-18,-11,12,2,-15,4,-8,-1,2,4,3
-7,-18,-11,12,2,-15,4,-9,-1,2,4,3
-8,-18,-11,13,2,-15,4,-9,-1,2,4,4
-8,-18,-10,13,1,-14,3,-9,-1,2,5,4
-9,-18,-9,14,0,-14,3,-9,0,3,5,4
-7,-18,-10,13,1,-14,3,-9,-1,2,5,4
-5,-19,-13,12,4,-16,2,-10,-2,2,4,4
-4,-19,-15,11,6,-17,1,-10,-2,1,4,3
-3,-20,-16,11,7,-18,1,-10,-2,1,4,3
-3,-20,-16,11,7,-18,0,-10,-2,1,4,2
-3,-19,-16,11,7,-18,0,-11,-3,1,4,2
-3,-19,-16,11,6,-17,-1,-11,-3,1,3,2
-4,-19,-15,11,5,-17,-1,-12,-3,1,3,2
-4,-19,-14,11,5,-17,-1,-12,-3,1,3,2
-3,-18,-14,11,5,-16,-1,-12,-3,1,3,2
-3,-17,-14,11,4,-16,-1,-12,-4,1,3,3
-4,-17,-13,11,4,-15,-1,-12,-4,1,3,3
-4,-17,-13,11,4,-15,-1,-12,-4,1,3,3
-4,-18,-14,11,5,-16,-1,-12,-4,1,4,3
-5,-19,-15,11,5,-17,-1,-12,-3,1,4,3
-5,-19,-14,11,5,-17,-1,-12,-3,1,4,3
-4,-19,-14,11,5,-16,-1,-12,-4,1,4,3
-3,-18,-15,10,5,-16,-2,-12,-4,1,4,2
-3,-18,-15,10,5,-16,-2,-13,-4,0,3,2
-4,-18,-14,11,5,-16,-2,-13,-4,0,3,2
-4,-18,-14,11,5,-16,-2,-12,-4,0,3,2
-4,-18,-14,11,5,-16,-2,-12,-4,0,2,2
-6,-19,-14,12,4,-16,-1,-12,-4,0,3,2
-7,-20,-13,13,3,-16,-1,-12,-4,0,3,2
-8,-21,-13,13,3,-17,-1,-12,-4,0,2,1
-7,-22,-15,14,4,-18,-1,-13,-5,-1,1,0
-7,-23,-16,15,4,-19,-1,-14,-6,-2,0,-1
-8,-24,-16,16,4,-20,-1,-14,-7,-3,0,-1
-9,-25,-15,16,4,-20,-1,-15,-8,-3,0,-2
-9,-25,-15,17,4,-20,-1,-15,-8,-4,-1,-2
-8,-25,-16,17,4,-21,-2,-16,-9,-4,-1,-3
-8,-25,-16,16,5,-21,-2,-16,-10,-5,-2,-3
-8,-25,-17,16,5,-21,-2,-17,-11,-6,-3,-4
-8,-26,-18,16,5,-21,-2,-18,-12,-7,-4,-5
-8,-26,-18,17,5,-22,-2,-18,-12,-7,-4,-6
-9,-27,-18,18,5,-22,-2,-18,-12,-7,-4,-6
-9,-28,-18,18,4,-23,-2,-18,-12,-7,-4,-6
-9,-28,-19,19,4,-23,-2,-18,-12,-8,-5,-6
-9,-28,-19,19,5,-24,-2,-18,-12,-8,-5,-6
-9,-28,-19,19,5,-24,-2,-18,-13,-8,-5,-6
-9,-28,-19,19,5,-24,-2,-18,-13,-8,-5,-7
-9,-28,-19,19,5,-24,-2,-18,-13,-8,-5,-7
-9,-29,-19,19,5,-24,-2,-18,-13,-8,-6,-7
-9,-29,-19,19,5,-24,-2,-18,-13,-9,-6,-8
-9,-29,-19,18,5,-24,-2,-18,-14,-9,-7,-8
-9,-29,-19,18,5,-24,-2,-18,-14,-9,-7,-8
-9,-29,-18,18,5,-24,-2,-18,-14,-9,-7,-8
-10,-29,-18,19,4,-24,-2,-18,-14,-9,-7,-8
-10,-29,-19,19,4,-24,-2,-19,-14,-10,-7,-8
-10,-29,-19,19,5,-24,-2,-19,-15,-10,-7,-8
-10,-29,-20,19,5,-24,-2,-19,-15,-10,-7,-8
-10,-29,-20,19,5,-24,-2,-19,-15,-10,-7,-8
-9,-29,-20,19,6,-25,-3,-20,-15,-10,-7,-9
-9,-30,-21,19,6,-25,-3,-20,-15,-10,-7,-9
-9,-30,-21,19,6,-25,-3,-20,-15,-10,-7,-9
-10,-30,-20,19,5,-25,-3,-20,-16,-10,-7,-9
-10,-30,-19,19,5,-24,-3,-20,-16,-10,-7,-9
-9,-29,-19,19,5,-24,-3,-21,-16,-10,-7,-9
-9,-28,-19,18,5,-24,-4,-22,-16,-10,-7,-9
-9,-27,-18,18,5,-22,-4,-24,-16,-10,-7,-8
-9,-26,-16,17,4,-21,-4,-26,-16,-10,-7,-8
-10,-25,-15,17,2,-20,-5,-29,-16,-10,-7,-8
-10,-24,-14,17,2,-19,-6,-32,-17,-10,-7,-7
-10,-24,-13,16,1,-18,-8,-34,-17,-9,-6,-7
-11,-23,-12,16,1,-18,-9,-36,-17,-8,-5,-6
-10,-24,-13,16,1,-18,-11,-38,-17,-7,-4,-6
-9,-24,-15,16,3,-19,-13,-39,-18,-6,-3,-5
-8,-25,-17,16,4,-20,-16,-42,-18,-6,-2,-5
-7,-25,-19,16,6,-21,-19,-45,-19,-5,-1,-4
-4,-25,-20,14,8,-22,-22,-47,-20,-4,1,-2
0,-23,-22,11,11,-23,-26,-49,-19,0,5,1
4,-21,-24,8,14,-23,-29,-48,-17,4,11,6
8,-19,-26,4,17,-23,-33,-47,-14,9,17,12
12,-17,-28,1,20,-23,-37,-46,-12,13,22,17
16,-14,-29,-1,22,-22,-40,-46,-11,17,27,22
19,-11,-29,-4,24,-20,-43,-46,-12,19,31,27
22,-7,-29,-7,26,-18,-45,-46,-13,20,34,31
24,-5,-29,-10,27,-17,-45,-47,-14,19,35,34
25,-5,-31,-11,28,-17,-43,-47,-18,16,33,33
26,-7,-33,-10,30,-20,-39,-48,-24,9,27,29
24,-11,-35,-7,30,-23,-33,-52,-31,0,19,23
21,-15,-36,-4,29,-25,-27,-56,-39,-9,9,15
17,-19,-36,0,27,-28,-19,-58,-46,-19,-1,7
12,-26,-38,7,25,-32,-10,-58,-52,-30,-14,-3
7,-34,-42,13,25,-37,0,-56,-58,-41,-26,-15
3,-41,-44,19,24,-42,8,-52,-61,-49,-36,-25
0,-46,-46,23,23,-45,17,-45,-62,-54,-42,-32
-3,-50,-47,25,22,-48,24,-38,-61,-56,-46,-37
-4,-52,-47,27,22,-49,30,-31,-58,-56,-47,-39
-5,-51,-45,27,21,-48,34,-23,-54,-54,-47,-40
-6,-48,-41,26,18,-45,38,-15,-48,-51,-45,-39
-8,-45,-36,26,15,-41,43,-8,-41,-47,-42,-37
-10,-43,-32,26,12,-37,47,-1,-35,-43,-40,-36
-11,-42,-30,27,9,-35,51,4,-30,-40,-39,-36
-13,-42,-29,27,8,-34,55,9,-26,-38,-38,-36
-14,-42,-29,27,7,-35,58,14,-23,-36,-37,-36
-13,-44,-30,28,8,-37,60,18,-21,-35,-36,-36
-12,-46,-33,28,10,-39,61,21,-19,-34,-36,-37
-12,-47,-34,29,11,-41,63,25,-17,-33,-37,-38
-14,-48,-33,31,10,-41,66,28,-15,-32,-37,-38
-16,-49,-33,33,8,-41,70,32,-11,-31,-36,-39
-17,-50,-33,34,8,-42,74,36,-7,-29,-34,-38
-18,-51,-33,34,8,-42,76,40,-4,-26,-33,-38
-18,-51,-33,34,8,-42,78,43,-2,-24,-32,-37
-18,-52,-34,34,8,-43,80,46,0,-23,-31,-37
-18,-52,-34,34,8,-43,82,50,1,-22,-30,-36
-18,-53,-34,35,8,-43,84,53,3,-20,-28,-35
-18,-53,-34,35,8,-44,86,56,5,-19,-27,-34
-18,-53,-34,36,8,-44,87,57,7,-17,-26,-33
-18,-53,-34,36,8,-44,88,57,9,-16,-25,-32
-19,-53,-33,36,7,-43,88,55,11,-15,-24,-32
-21,-53,-31,37,5,-42,87,52,11,-14,-24,-32
-21,-52,-30,36,5,-41,85,49,11,-14,-23,-31
-20,-51,-29,35,4,-40,82,46,10,-13,-23,-31
-20,-51,-29,35,4,-39,79,42,9,-13,-22,-31
-20,-50,-29,34,4,-39,75,40,10,-12,-21,-30
-20,-49,-28,34,4,-38,72,40,11,-11,-19,-28
-19,-47,-27,33,4,-37,68,42,14,-9,-18,-27
-17,-45,-27,31,5,-35,63,44,17,-7,-16,-25
-15,-41,-26,28,5,-33,58,47,20,-4,-13,-23
-13,-37,-24,25,6,-30,53,51,24,0,-10,-20
-10,-32,-22,20,6,-27,48,55,27,3,-7,-17
-7,-27,-20,16,7,-23,43,58,30,6,-5,-14
-4,-23,-19,13,8,-21,38,61,33,9,-2,-12
-2,-20,-18,10,9,-19,33,64,35,11,0,-11
0,-18,-18,9,9,-17,30,66,38,12,1,-9
1,-17,-18,8,10,-17,28,68,40,14,3,-8
2,-16,-17,7,10,-16,27,70,42,15,4,-7
2,-14,-17,6,10,-15,26,71,43,17,5,-7
3,-13,-17,5,10,-15,25,72,44,18,6,-6
3,-12,-16,4,10,-14,24,73,45,19,7,-6
4,-12,-16,4,10,-14,23,74,46,19,8,-5
5,-11,-15,3,10,-13,23,75,46,20,8,-4
5,-10,-16,2,11,-13,23,75,47,20,8,-4
6,-10,-16,2,11,-13,23,76,48,21,9,-4
6,-10,-16,2,11,-13,22,77,49,22,9,-4
6,-10,-16,2,11,-13,22,78,50,23,10,-4
6,-10,-16,1,11,-13,22,79,51,24,10,-3
6,-10,-15,1,11,-13,21,80,51,24,10,-3
6,-9,-15,0,11,-12,21,80,51,24,10,-3
7,-9,-16,0,11,-12,20,81,51,24,10,-3
7,-9,-16,0,12,-12,20,81,52,24,10,-3
7,-9,-15,0,12,-12,20,82,52,24,10,-2
7,-9,-15,0,11,-11,20,83,53,24,10,-2
7,-8,-15,0,11,-11,20,84,53,24,10,-2
7,-7,-14,0,11,-11,20,84,54,24,10,-2
7,-7,-14,0,11,-11,20,85,55,25,11,-2
7,-6,-13,0,10,-10,20,86,55,25,12,-1
7,-6,-14,0,11,-10,20,86,55,25,12,-1
8,-6,-14,0,11,-10,20,86,56,26,13,-1
8,-6,-14,0,12,-10,20,86,56,26,13,-1
8,-6,-14,0,11,-9,20,87,57,27,14,-1
8,-6,-14,-1,11,-9,20,87,58,28,14,-1
9,-6,-14,-1,12,-9,20,88,58,29,14,-1
10,-6,-15,-2,12,-9,20,88,59,29,14,-1
9,-5,-14,-2,12,-9,20,89,59,30,14,0
8,-5,-13,-1,11,-9,20,90,60,30,15,0
7,-5,-12,-1,10,-9,20,91,61,31,15,0
7,-5,-12,-1,10,-9,20,92,61,31,16,0
7,-5,-12,-1,10,-9,20,92,62,31,16,0
8,-4,-12,-1,10,-8,20,93,63,32,16,0
8,-4,-12,-2,10,-8,21,93,63,33,16,0
8,-3,-11,-2,10,-7,21,94,64,34,16,0
8,-2,-11,-3,10,-7,21,94,64,34,16,0
9,-2,-11,-3,10,-6,21,95,64,35,17,1
9,-2,-11,-3,10,-6,21,95,65,35,17,1
9,-2,-10,-3,10,-6,21,96,66,35,18,2
9,-2,-11,-4,10,-6,21,97,67,36,18,2
10,-2,-11,-4,11,-6,21,97,67,36,19,2
9,-1,-10,-4,11,-6,21,98,68,36,19,2
9,-1,-9,-4,10,-5,21,98,68,37,20,2
9,0,-9,-5,10,-4,20,99,68,37,20,2
9,0,-9,-5,10,-4,20,99,69,37,20,2
10,0,-9,-5,10,-4,19,100,69,38,20,3
10,0,-10,-5,10,-4,19,100,70,38,20,3
10,0,-9,-5,10,-4,19,101,70,38,20,3
10,1,-8,-5,10,-3,19,102,71,38,21,4
9,1,-7,-5,9,-2,19,102,71,38,22,4
10,2,-7,-6,10,-2,19,102,72,39,22,5
12,3,-8,-8,11,-2,18,102,72,39,22,5
12,4,-8,-8,11,-2,17,103,73,39,23,6
12,4,-7,-8,10,-1,17,103,73,40,24,7
11,5,-6,-8,9,-1,17,103,74,41,24,7
12,5,-6,-9,10,0,17,103,74,42,25,8
13,6,-6,-9,10,0,16,103,75,42,25,8
13,6,-6,-10,11,0,15,103,75,42,25,8
13,7,-5,-10,10,1,14,103,75,43,26,9
13,7,-4,-10,9,2,14,104,75,43,27,9
12,8,-3,-11,9,2,14,104,76,44,27,10
12,8,-3,-11,8,3,13,104,76,44,28,11
12,9,-2,-11,8,3,12,103,76,45,28,11
13,9,-2,-12,8,3,11,102,76,45,28,11
13,10,-2,-12,8,3,10,102,76,45,29,12
13,10,-2,-12,8,4,9,101,76,45,29,12
13,11,-1,-12,8,4,8,101,76,45,30,13
13,12,-1,-13,8,5,7,100,75,45,30,13
13,13,0,-13,8,6,6,99,75,45,30,14
13,14,0,-14,8,6,5,98,75,46,31,15
14,15,0,-15,8,7,4,97,75,46,31,15
15,15,0,-16,8,8,3,96,74,46,31,15
16,16,0,-16,8,8,1,94,73,46,31,16
16,16,1,-16,8,8,0,93,72,46,32,16
15,17,3,-16,6,10,0,93,72,46,33,17
13,17,5,-16,4,11,-1,92,72,46,34,18
14,18,5,-16,5,12,-2,90,72,46,34,18
17,18,3,-18,7,11,-4,87,70,45,33,18
19,19,1,-19,9,11,-6,85,69,44,33,18
18,19,2,-19,8,11,-7,83,68,45,33,19
17,20,4,-19,6,12,-9,82,67,45,33,20
16,20,5,-19,5,13,-10,80,65,44,33,20
16,21,5,-18,5,13,-11,78,64,44,34,20
16,21,5,-19,5,13,-13,76,63,44,34,20
17,22,6,-20,5,14,-15,74,62,43,33,21
17,23,7,-20,5,15,-16,72,61,43,33,21
17,24,7,-21,5,16,-17,69,60,42,33,21
18,24,6,-22,6,16,-19,66,58,41,33,21
17,24,8,-21,4,17,-20,64,57,40,33,22
16,25,9,-21,3,17,-22,61,55,39,33,22
18,25,8,-22,4,17,-24,58,53,38,33,22
20,26,7,-23,6,16,-26,55,50,37,32,21
20,26,7,-23,6,16,-28,53,49,37,32,21
20,26,7,-23,6,17,-29,50,47,36,32,22
20,26,7,-23,7,17,-31,46,45,34,31,22
20,26,7,-23,7,17,-32,43,43,33,31,22
20,26,7,-23,7,17,-34,40,40,32,30,23
20,26,6,-23,7,16,-35,37,38,31,30,22
20,26,6,-23,7,16,-36,34,35,30,29,21
20,26,6,-23,7,15,-37,32,33,29,28,20
20,25,5,-23,7,15,-38,29,30,27,26,19
20,24,5,-22,7,14,-39,26,28,26,25,19
20,23,4,-22,7,14,-40,23,26,24,24,18
19,22,4,-21,7,13,-41,21,24,22,22,17
19,21,3,-20,7,13,-41,18,22,20,21,16
18,21,3,-19,7,12,-41,16,20,18,20,15
18,21,3,-19,7,12,-41,15,19,18,19,15
18,20,3,-19,7,12,-41,13,17,17,18,14
17,19,2,-18,7,11,-41,11,14,15,17,13
17,18,1,-18,8,10,-41,9,12,14,15,12
17,18,1,-18,8,10,-41,7,10,12,13,10
17,17,1,-17,8,9,-40,5,9,10,12,9
16,16,1,-16,7,9,-40,3,7,8,11,8
14,15,1,-15,7,8,-40,2,6,7,10,7
13,14,1,-14,6,8,-40,0,4,6,9,7
13,13,0,-13,7,7,-40,-1,2,5,8,6
14,13,-1,-13,8,6,-39,-2,0,4,6,4
15,12,-2,-13,8,5,-38,-4,-1,3,5,3
15,12,-2,-13,8,4,-38,-5,-2,1,4,2
14,11,-2,-12,8,4,-37,-7,-4,0,3,1
13,10,-3,-12,8,4,-36,-8,-5,-1,2,0
13,9,-3,-11,8,3,-36,-9,-6,-3,1,0
13,8,-4,-11,9,2,-35,-11,-8,-5,0,-1
13,8,-5,-10,9,2,-34,-12,-9,-6,-1,-2
12,7,-4,-9,8,1,-33,-12,-10,-8,-2,-3
10,6,-3,-8,6,1,-31,-13,-11,-8,-3,-4
9,5,-3,-7,6,0,-30,-13,-11,-9,-3,-4
8,4,-4,-6,6,0,-29,-14,-12,-9,-4,-5
8,3,-4,-6,6,0,-29,-15,-12,-10,-5,-5
8,3,-4,-5,6,0,-28,-16,-13,-10,-6,-6
8,3,-4,-5,6,0,-27,-17,-13,-11,-6,-6
7,2,-4,-5,6,0,-26,-18,-14,-12,-7,-7
7,2,-4,-4,6,0,-25,-18,-15,-12,-7,-7
6,1,-4,-4,5,-1,-23,-19,-15,-13,-8,-8
6,1,-4,-4,5,-1,-22,-20,-16,-13,-9,-8
6,1,-4,-3,5,-1,-21,-21,-16,-14,-10,-9
6,1,-3,-3,5,-1,-20,-21,-17,-15,-11,-9
5,0,-3,-2,4,-1,-19,-22,-18,-16,-11,-10
4,0,-3,-2,4,-1,-18,-22,-18,-16,-11,-10
4,0,-3,-2,4,-1,-16,-22,-19,-17,-12,-10
5,0,-4,-2,4,-2,-15,-22,-19,-17,-12,-10
5,-1,-5,-2,5,-3,-13,-22,-20,-17,-12,-11
4,-1,-5,-1,5,-3,-12,-22,-20,-17,-12,-11
4,-1,-5,-1,5,-3,-11,-23,-20,-17,-12,-12
4,-1,-5,-2,5,-3,-10,-23,-20,-17,-12,-12
5,-2,-6,-2,6,-4,-9,-23,-20,-17,-12,-12
4,-2,-6,-1,6,-4,-9,-24,-20,-17,-12,-12
4,-3,-6,0,6,-5,-8,-24,-21,-18,-12,-12
3,-4,-6,0,6,-5,-7,-24,-21,-18,-12,-12
3,-4,-6,0,5,-5,-7,-24,-21,-18,-12,-12
3,-3,-5,0,5,-4,-6,-24,-21,-18,-13,-13
3,-3,-5,0,4,-4,-5,-24,-21,-18,-13,-13
3,-4,-5,0,4,-5,-4,-24,-21,-19,-13,-13
3,-4,-5,0,4,-5,-4,-25,-21,-20,-14,-13
2,-5,-5,1,4,-5,-4,-25,-21,-20,-14,-13
2,-5,-6,1,4,-5,-3,-25,-22,-20,-14,-13
2,-5,-6,1,4,-5,-3,-25,-22,-19,-14,-13
2,-4,-6,1,4,-5,-2,-25,-21,-18,-14,-13
1,-4,-5,1,3,-5,-2,-24,-21,-17,-13,-13
1,-4,-4,2,3,-5,-2,-24,-22,-17,-13,-13
1,-4,-4,2,3,-5,-2,-24,-22,-17,-13,-13
1,-4,-4,1,3,-4,-2,-24,-22,-18,-13,-13
2,-3,-4,0,3,-4,-2,-24,-22,-18,-14,-13
2,-2,-4,0,4,-3,-1,-24,-22,-18,-14,-13
3,-3,-5,0,4,-3,-1,-24,-22,-18,-14,-13
3,-3,-6,0,5,-4,-1,-24,-22,-18,-14,-13
2,-4,-5,0,4,-4,-1,-25,-22,-19,-14,-13
2,-4,-5,0,4,-4,-1,-25,-22,-19,-15,-14
2,-3,-4,0,4,-4,0,-25,-22,-19,-15,-14
2,-3,-4,0,4,-4,0,-25,-22,-20,-15,-14
2,-3,-4,0,4,-4,0,-25,-22,-20,-15,-14
2,-3,-4,0,4,-4,0,-24,-22,-21,-15,-14
1,-3,-4,1,3,-4,0,-24,-21,-21,-15,-14
0,-3,-4,1,2,-4,0,-24,-21,-21,-15,-14
1,-3,-4,0,3,-4,0,-24,-21,-21,-16,-14
3,-3,-5,0,4,-4,0,-24,-22,-21,-16,-14
4,-3,-6,0,6,-5,0,-24,-22,-21,-16,-14
3,-3,-5,0,5,-5,0,-24,-22,-20,-16,-14
1,-4,-3,1,3,-4,0,-24,-21,-19,-15,-14
-1,-4,-1,2,1,-3,1,-24,-21,-19,-15,-13
-1,-4,-1,2,1,-3,0,-25,-22,-19,-15,-14
0,-4,-3,2,2,-4,0,-25,-22,-19,-15,-14
1,-5,-4,2,3,-4,0,-25,-22,-19,-15,-14
2,-4,-5,1,3,-4,0,-25,-22,-19,-15,-14
2,-4,-4,1,3,-4,0,-25,-22,-19,-15,-14
1,-3,-3,1,2,-3,0,-25,-22,-19,-15,-13
1,-3,-2,1,1,-2,0,-25,-22,-19,-15,-13
1,-3,-2,0,2,-2,0,-25,-22,-19,-15,-13
2,-2,-3,0,2,-2,0,-26,-23,-20,-15,-13
2,-2,-3,0,3,-2,0,-26,-23,-20,-15,-13
2,-2,-4,0,3,-2,0,-26,-23,-20,-15,-13
2,-2,-4,0,3,-3,0,-26,-23,-20,-15,-13
2,-3,-4,0,3,-3,0,-26,-23,-20,-15,-13
2,-3,-4,0,3,-3,0,-26,-22,-20,-15,-12
2,-4,-4,1,3,-4,0,-25,-22,-19,-14,-12
2,-4,-5,1,4,-4,0,-25,-22,-19,-14,-12
1,-5,-4,1,3,-4,0,-25,-22,-19,-14,-12
0,-4,-3,2,2,-3,0,-25,-21,-18,-13,-11
-1,-4,-2,2,1,-3,0,-25,-21,-17,-13,-11
0,-4,-3,2,2,-3,0,-26,-22,-17,-13,-11
2,-4,-5,1,4,-4,-1,-27,-23,-18,-14,-12
3,-4,-6,1,5,-5,-1,-27,-23,-18,-14,-12
4,-4,-6,0,6,-5,-2,-27,-23,-18,-14,-12
4,-3,-6,0,6,-5,-2,-28,-23,-17,-13,-12
4,-3,-6,0,6,-5,-2,-28,-23,-17,-13,-12
4,-2,-6,-1,5,-4,-2,-28,-23,-17,-13,-12
2,-2,-4,0,4,-4,-1,-28,-22,-17,-13,-11
1,-3,-3,0,2,-3,0,-27,-22,-17,-12,-11
1,-3,-2,0,2,-3,0,-27,-21,-18,-12,-11
1,-3,-2,1,2,-3,0,-27,-21,-18,-12,-11
0,-3,-2,1,2,-3,0,-27,-21,-19,-12,-11
0,-3,-2,2,1,-3,1,-27,-21,-19,-12,-11
0,-3,-2,1,2,-3,1,-27,-21,-18,-12,-11
1,-2,-3,0,3,-3,0,-27,-21,-18,-13,-11
2,-2,-3,0,3,-3,0,-27,-22,-18,-13,-12
2,-2,-3,0,3,-3,0,-27,-22,-19,-14,-12
2,-2,-3,0,3,-3,0,-27,-21,-19,-14,-12
3,-2,-4,0,4,-3,-1,-28,-21,-19,-14,-12
3,-2,-4,-1,4,-3,-1,-28,-22,-19,-14,-12
2,-2,-3,0,3,-2,-1,-28,-22,-18,-13,-12
0,-2,-2,1,2,-2,-1,-28,-21,-18,-13,-12
0,-3,-2,1,2,-2,-1,-28,-21,-18,-12,-12
0,-3,-3,1,2,-3,-1,-28,-21,-18,-12,-12
1,-3,-4,1,3,-3,-1,-28,-21,-18,-12,-11
1,-3,-4,1,3,-3,-1,-28,-21,-17,-12,-11
1,-3,-4,1,2,-3,-1,-28,-20,-17,-12,-11
1,-3,-4,1,3,-4,-1,-28,-20,-17,-13,-11
1,-3,-4,1,3,-4,0,-27,-20,-17,-12,-11
1,-3,-3,1,3,-3,0,-27,-20,-17,-12,-10
1,-3,-4,0,3,-3,0,-27,-20,-17,-12,-11
1,-3,-4,0,3,-3,-1,-27,-20,-18,-12,-11
1,-3,-4,0,3,-3,-1,-27,-20,-17,-12,-10
1,-3,-4,0,3,-3,-1,-27,-20,-16,-12,-10
2,-3,-5,0,3,-4,-1,-27,-20,-16,-12,-10
2,-3,-4,0,3,-4,-1,-27,-21,-15,-12,-10
2,-2,-4,0,3,-3,-1,-27,-21,-15,-12,-10
2,-2,-4,0,3,-3,-2,-27,-21,-15,-12,-10
2,-2,-4,0,3,-3,-2,-27,-21,-15,-12,-10
2,-2,-4,0,3,-3,-2,-27,-21,-15,-12,-10
2,-2,-4,0,4,-3,-2,-27,-21,-15,-12,-10
2,-2,-4,0,4,-3,-2,-28,-21,-15,-12,-10
1,-2,-4,0,3,-3,-2,-28,-21,-15,-12,-9
1,-2,-3,0,3,-2,-2,-28,-21,-15,-11,-9
1,-2,-3,0,3,-2,-2,-28,-21,-14,-11,-9
1,-2,-3,0,3,-3,-2,-28,-21,-14,-11,-9
1,-2,-4,0,3,-3,-2,-28,-21,-15,-11,-9
1,-3,-4,0,3,-3,-2,-28,-20,-15,-11,-9
1,-3,-4,0,3,-3,-1,-28,-20,-15,-11,-9
1,-3,-4,0,3,-3,-1,-28,-20,-14,-11,-9
1,-3,-4,0,4,-3,-1,-28,-20,-14,-11,-9
1,-3,-4,0,4,-3,-2,-28,-20,-14,-11,-9
1,-3,-5,1,4,-4,-2,-28,-20,-14,-11,-9
1,-4,-5,1,4,-4,-2,-27,-20,-14,-11,-9
1,-4,-5,1,4,-4,-1,-27,-20,-15,-11,-9
1,-4,-5,1,4,-4,-1,-27,-20,-15,-11,-9
1,-4,-5,1,4,-4,-1,-27,-20,-15,-11,-9
1,-3,-5,1,4,-3,-1,-27,-20,-15,-11,-9
1,-3,-5,1,4,-4,-1,-27,-19,-15,-11,-9
1,-3,-4,0,3,-3,0,-27,-19,-14,-11,-9
2,-2,-3,0,3,-2,0,-27,-18,-13,-10,-9
2,0,-2,-1,3,-1,0,-27,-17,-12,-10,-9
3,1,-2,-2,3,0,0,-26,-17,-11,-9,-8
3,2,-1,-3,3,1,1,-26,-16,-11,-8,-8
2,2,-1,-2,2,1,1,-26,-16,-10,-7,-7
1,2,0,-2,1,2,2,-25,-16,-10,-7,-7
0,2,1,-1,0,2,3,-24,-15,-9,-6,-6
0,2,2,-1,0,3,3,-23,-14,-9,-6,-5
0,2,2,-1,0,2,3,-23,-15,-10,-6,-5
1,2,1,-1,0,2,3,-24,-16,-10,-7,-6
0,2,2,-1,0,2,3,-24,-16,-11,-7,-6
0,2,2,-2,0,3,3,-24,-16,-10,-7,-6
1,3,2,-3,0,4,3,-24,-16,-10,-7,-6
2,4,1,-4,1,4,3,-25,-15,-10,-6,-5
3,4,1,-4,2,3,2,-25,-15,-10,-6,-5
4,4,1,-4,2,3,1,-25,-15,-9,-6,-5
4,5,2,-4,1,4,1,-25,-14,-9,-6,-4
4,6,3,-5,1,5,0,-25,-14,-8,-5,-4
3,6,3,-5,0,5,0,-25,-14,-8,-5,-3
3,6,3,-4,0,5,0,-25,-14,-8,-5,-3
3,5,2,-4,1,4,0,-25,-14,-8,-5,-3
3,5,1,-4,1,3,-1,-25,-14,-8,-5,-3
2,4,1,-4,1,3,-1,-24,-13,-8,-5,-3
2,4,0,-4,2,3,-1,-24,-13,-7,-5,-3
3,4,0,-4,2,3,-2,-24,-14,-8,-5,-3
3,3,0,-4,2,2,-2,-25,-14,-8,-5,-3
4,3,0,-4,2,2,-3,-25,-14,-8,-5,-2
4,3,0,-4,2,2,-3,-25,-14,-8,-5,-2
4,4,0,-4,2,2,-3,-26,-14,-7,-4,-1
4,4,0,-4,2,3,-3,-26,-14,-7,-4,-1
3,4,1,-4,2,3,-3,-25,-14,-7,-4,-1
3,4,1,-4,2,2,-3,-25,-14,-7,-4,-1
3,3,0,-4,2,2,-3,-25,-14,-7,-4,-1
3,3,0,-3,2,2,-3,-25,-14,-6,-3,-1
3,3,0,-3,2,2,-3,-25,-15,-6,-3,-1
4,4,0,-4,2,3,-4,-25,-15,-5,-3,-1
3,4,0,-4,2,3,-4,-25,-15,-5,-3,-1
3,4,0,-4,2,3,-4,-25,-14,-6,-3,-1
2,3,0,-3,2,2,-3,-25,-14,-6,-3,-1
2,3,0,-3,2,2,-3,-25,-14,-7,-3,-1
2,3,0,-3,1,2,-3,-25,-14,-7,-3,-1
2,2,0,-3,1,1,-2,-24,-14,-7,-3,-2
2,1,0,-2,1,1,-2,-24,-15,-7,-4,-2
2,0,0,-1,1,0,-2,-24,-16,-7,-4,-3
1,0,-1,-1,1,0,-2,-25,-17,-8,-5,-4
1,-1,-2,0,2,-1,-2,-25,-17,-8,-6,-5
0,-2,-2,0,2,-2,-3,-26,-18,-8,-6,-5
0,-3,-3,0,2,-2,-3,-26,-18,-8,-7,-5
0,-3,-3,0,2,-3,-3,-26,-18,-9,-7,-5
0,-3,-3,1,2,-3,-3,-27,-18,-10,-8,-6
0,-4,-4,1,3,-3,-3,-27,-19,-11,-8,-6
0,-5,-5,2,3,-4,-3,-27,-20,-12,-9,-7
-1,-6,-4,3,3,-4,-3,-27,-20,-13,-9,-7
-1,-6,-4,4,2,-5,-3,-28,-20,-12,-9,-8
-2,-6,-4,4,2,-5,-3,-28,-20,-12,-9,-8
-3,-6,-3,4,1,-4,-3,-28,-21,-12,-9,-9
-3,-6,-3,4,0,-4,-3,-28,-21,-13,-10,-9
-2,-7,-5,4,2,-6,-4,-29,-22,-14,-11,-10
-1,-8,-7,3,3,-7,-4,-30,-23,-15,-12,-10
-1,-8,-7,4,3,-8,-3,-29,-22,-15,-12,-10
-1,-9,-7,4,3,-8,-3,-28,-22,-14,-12,-10
-2,-9,-7,5,3,-8,-2,-28,-22,-13,-12,-10
-3,-9,-7,5,2,-8,-2,-28,-22,-13,-12,-10
-3,-9,-7,5,3,-8,-3,-28,-21,-13,-12,-10
-2,-9,-7,4,3,-8,-3,-29,-21,-13,-12,-10
-2,-9,-8,4,4,-8,-3,-29,-21,-13,-12,-9
-2,-9,-7,5,3,-8,-2,-29,-21,-13,-11,-9
-2,-9,-6,5,2,-7,-2,-28,-21,-13,-11,-8
-3,-8,-6,5,2,-6,-1,-27,-21,-13,-10,-8
-3,-8,-6,5,2,-6,-1,-27,-21,-13,-10,-9
-2,-9,-7,5,2,-7,-1,-27,-21,-14,-10,-9
-2,-9,-7,5,3,-8,-1,-27,-21,-14,-10,-9
-2,-9,-7,5,3,-8,-2,-28,-21,-13,-10,-9
-2,-8,-7,4,3,-7,-2,-28,-21,-11,-10,-9
-2,-8,-6,4,3,-7,-2,-28,-21,-10,-10,-9
-2,-8,-6,5,3,-7,-2,-28,-21,-10,-10,-9
-2,-9,-6,5,3,-7,-2,-28,-22,-11,-10,-9
-3,-9,-6,5,3,-7,-2,-29,-22,-12,-11,-9
-3,-8,-6,5,2,-7,-2,-30,-22,-13,-11,-9
-3,-8,-5,4,2,-6,-3,-31,-22,-13,-11,-9
-3,-8,-4,5,1,-5,-3,-33,-22,-13,-11,-8
-4,-8,-4,5,1,-5,-3,-35,-23,-13,-11,-8
-4,-7,-3,4,0,-5,-4,-37,-23,-13,-10,-7
-4,-6,-2,3,0,-3,-5,-40,-23,-11,-8,-5
-4,-5,-1,3,0,-3,-7,-43,-22,-9,-7,-4
-4,-5,-2,4,0,-3,-9,-44,-22,-8,-5,-3
-3,-6,-3,4,1,-4,-11,-45,-22,-7,-4,-3
-2,-7,-5,4,2,-5,-14,-48,-23,-8,-3,-3
-1,-7,-7,4,4,-7,-18,-51,-25,-8,-2,-2
1,-8,-9,3,6,-8,-21,-54,-26,-6,0,0
3,-8,-11,2,8,-9,-24,-56,-26,-3,3,3
6,-7,-13,0,10,-10,-28,-57,-24,1,9,8
10,-5,-14,-3,12,-9,-32,-57,-22,6,15,14
14,-2,-16,-7,15,-9,-36,-57,-21,11,21,20
17,0,-17,-9,17,-8,-39,-57,-21,15,27,25
20,2,-17,-12,19,-8,-42,-57,-22,17,31,30
22,5,-17,-14,21,-6,-44,-58,-24,18,35,34
23,6,-17,-15,21,-5,-45,-57,-26,18,36,38
24,5,-19,-14,22,-7,-43,-56,-29,14,33,37
23,1,-22,-12,23,-10,-39,-56,-34,6,26,33
21,-3,-24,-9,23,-13,-33,-58,-41,-4,16,25
17,-7,-24,-6,21,-15,-25,-60,-48,-15,5,16
13,-12,-25,-1,20,-18,-17,-61,-55,-25,-5,6
9,-20,-29,4,20,-24,-8,-60,-61,-36,-17,-5
5,-28,-33,11,20,-30,1,-58,-67,-46,-29,-16
1,-35,-37,16,20,-36,10,-53,-70,-53,-39,-26
-1,-40,-40,20,19,-39,17,-47,-70,-58,-47,-34
-3,-43,-41,23,19,-41,24,-41,-69,-61,-52,-39
-4,-44,-40,24,18,-41,29,-34,-66,-61,-54,-41
-6,-43,-36,24,16,-39,34,-26,-60,-59,-53,-41
-7,-41,-32,23,13,-36,38,-19,-54,-56,-50,-40
-10,-38,-28,23,10,-33,42,-12,-47,-53,-48,-38
-12,-36,-23,23,7,-30,46,-5,-41,-49,-45,-36
-13,-35,-21,23,5,-28,50,0,-35,-45,-42,-35
-15,-35,-20,24,4,-27,54,5,-30,-41,-41,-35
-16,-36,-19,25,2,-27,57,10,-26,-38,-40,-34
-17,-37,-19,26,2,-28,59,14,-22,-36,-39,-34
-18,-39,-21,28,2,-30,62,18,-19,-34,-38,-34
-18,-41,-22,29,3,-31,65,22,-16,-33,-37,-34
-19,-43,-23,30,2,-32,68,25,-13,-31,-36,-34
-20,-44,-23,31,2,-33,72,29,-10,-29,-35,-34
-21,-45,-23,32,2,-34,75,33,-6,-26,-33,-34
-21,-45,-24,32,3,-34,78,37,-3,-24,-31,-33
-21,-46,-25,33,3,-35,80,40,-1,-22,-30,-32
-21,-47,-25,33,3,-35,81,44,1,-21,-29,-31
-21,-47,-25,34,3,-35,83,47,3,-20,-27,-29
-21,-47,-25,34,3,-35,86,50,5,-19,-26,-28
-22,-47,-25,34,2,-36,88,52,7,-17,-24,-27
-22,-47,-25,34,2,-36,89,54,10,-15,-23,-26
-22,-47,-24,34,2,-36,91,54,12,-13,-22,-26
-23,-47,-24,34,2,-36,91,52,13,-12,-21,-26
-23,-47,-24,34,2,-35,91,49,14,-10,-21,-25
-23,-47,-24,34,2,-35,89,46,15,-8,-19,-23
-23,-46,-23,34,1,-34,87,42,15,-7,-18,-22
-23,-46,-23,34,1,-34,85,39,15,-7,-17,-21
-23,-46,-23,34,0,-34,82,36,15,-7,-16,-20
-23,-46,-23,34,0,-34,79,34,15,-7,-15,-20
-23,-46,-23,34,1,-34,75,34,17,-5,-14,-19
-22,-44,-23,32,1,-33,70,35,19,-3,-12,-17
-20,-41,-21,30,1,-31,64,38,22,0,-9,-15
-17,-37,-20,26,2,-29,58,41,26,2,-6,-13
-15,-32,-18,23,2,-25,52,45,30,5,-3,-10
-13,-28,-16,19,2,-22,46,48,33,9,0,-7
-10,-24,-14,16,2,-19,41,50,36,12,2,-4
-8,-21,-13,14,3,-17,36,53,38,15,4,-2
-5,-18,-12,11,4,-15,32,55,41,18,6,-1
-4,-16,-12,9,4,-13,29,57,43,21,7,0
-3,-15,-11,8,5,-13,27,59,45,22,8,1
-3,-14,-11,8,5,-13,26,60,46,23,9,2
-3,-14,-11,8,5,-12,25,62,47,23,10,3
-2,-14,-11,7,5,-12,24,63,48,22,10,4
-1,-13,-11,7,6,-11,24,64,49,23,11,5
-1,-13,-11,6,6,-11,24,65,50,24,12,5
0,-13,-11,6,6,-11,24,65,51,25,12,6
0,-12,-11,5,6,-11,23,66,52,27,13,6
0,-12,-11,5,5,-11,23,67,54,29,14,6
-1,-11,-10,5,5,-10,23,68,55,30,15,7
-1,-10,-9,5,5,-10,22,69,55,30,15,7
0,-9,-8,4,5,-9,22,70,56,29,15,7
0,-8,-8,4,5,-8,22,70,56,28,16,7
1,-8,-9,3,6,-8,21,70,56,28,16,8
2,-8,-10,3,6,-8,21,70,57,30,17,9
2,-8,-10,3,7,-8,21,71,59,31,18,9
1,-8,-9,3,6,-8,21,72,59,33,19,10
1,-8,-8,3,6,-7,20,72,60,34,20,10
1,-7,-8,2,6,-7,20,73,60,35,20,10
1,-7,-8,2,6,-7,20,73,61,36,21,11
2,-6,-7,2,6,-7,21,74,61,36,21,11
2,-6,-7,1,5,-6,21,74,61,36,21,11
2,-6,-7,1,5,-6,21,75,62,35,21,11
2,-6,-8,1,6,-7,20,75,62,34,21,11
2,-7,-9,1,6,-7,20,76,62,33,20,11
3,-7,-9,1,7,-7,20,76,62,33,19,11
3,-7,-10,1,7,-8,20,77,63,34,19,11
4,-7,-11,0,8,-8,20,78,64,35,19,11
5,-6,-11,0,9,-8,19,78,65,36,20,11
4,-6,-9,0,7,-7,19,79,66,37,21,12
1,-6,-6,1,4,-6,20,80,68,38,23,13
-1,-5,-4,2,2,-5,21,81,68,39,24,15
-1,-5,-3,2,2,-4,21,82,69,40,24,15
0,-4,-3,1,3,-4,21,83,69,40,25,15
0,-4,-3,1,3,-3,21,83,70,42,26,16
0,-3,-3,0,4,-3,21,84,71,43,27,16
0,-3,-3,0,3,-3,22,84,72,44,28,17
0,-3,-3,0,3,-3,22,85,73,46,29,17
1,-2,-3,0,3,-3,21,85,74,47,29,17
2,-2,-4,-1,4,-3,21,85,74,47,29,16
4,-1,-5,-2,5,-3,20,85,74,47,29,16
4,-1,-4,-2,5,-2,20,86,74,47,30,16
4,-1,-4,-2,5,-2,21,87,75,47,30,16
4,-1,-4,-2,5,-2,21,87,75,47,30,16
4,-1,-4,-2,5,-2,21,88,76,48,30,17
4,-1,-4,-2,5,-2,21,88,77,49,31,18
4,0,-4,-3,5,-2,21,89,78,49,31,19
4,0,-4,-3,5,-2,21,90,80,49,31,20
4,0,-3,-3,4,-1,21,91,80,49,31,20
3,1,-2,-3,4,0,21,91,80,48,31,21
3,1,-2,-3,4,0,20,92,81,48,31,21
4,1,-2,-4,4,0,20,92,81,49,31,21
4,1,-3,-4,5,0,19,92,82,50,32,21
4,1,-3,-4,4,0,19,92,82,51,33,22
4,2,-2,-5,4,0,18,92,83,53,34,22
5,3,-2,-5,4,1,17,92,83,54,35,23
6,4,-2,-6,5,1,16,92,83,54,36,23
6,4,-2,-6,5,1,16,92,83,54,36,24
6,5,-1,-6,5,2,15,91,84,54,37,25
7,5,-1,-7,5,2,14,91,84,54,37,25
8,6,-1,-8,6,3,13,91,85,55,37,26
8,7,-1,-9,6,3,13,91,85,55,37,26
9,7,-1,-9,6,3,12,91,85,56,38,27
8,8,-1,-9,5,4,11,90,85,56,39,28
7,8,0,-9,4,5,11,90,85,57,40,29
6,8,2,-8,3,6,11,90,85,59,41,30
6,9,4,-8,3,7,11,90,85,59,42,31
6,9,4,-8,2,7,10,90,85,59,43,31
6,10,5,-9,2,8,9,89,84,58,43,32
6,10,5,-9,2,8,8,88,84,58,43,32
6,11,5,-10,2,8,6,87,83,57,43,32
7,12,5,-11,2,8,5,86,83,57,44,33
8,12,5,-11,3,9,3,85,82,58,44,33
8,12,5,-11,3,9,2,84,82,59,44,34
9,13,5,-12,3,9,0,82,81,59,44,34
9,13,5,-12,3,9,-1,81,80,59,45,35
9,13,5,-12,3,9,-2,79,79,59,45,35
9,14,5,-12,3,10,-3,78,78,58,45,35
9,15,6,-13,3,10,-5,77,77,57,45,35
10,15,6,-14,3,11,-7,75,75,58,46,36
10,16,6,-14,3,11,-8,72,74,59,47,36
10,17,7,-15,3,12,-10,70,74,60,48,37
10,17,8,-15,2,13,-12,68,72,61,48,37
9,18,9,-15,1,14,-13,66,71,61,48,38
9,18,10,-15,1,14,-14,64,69,59,48,38
10,19,10,-15,1,15,-15,62,67,58,48,39
11,19,10,-16,2,15,-17,60,65,56,47,39
11,20,9,-17,2,15,-18,58,63,55,47,39
12,20,9,-17,3,15,-20,56,62,54,46,39
13,21,8,-18,3,15,-22,54,61,54,46,40
13,22,9,-18,3,15,-24,51,60,53,45,40
13,22,9,-18,3,15,-25,49,57,51,45,40
13,22,9,-19,3,16,-26,46,55,50,44,40
13,22,9,-19,2,16,-28,44,52,49,44,40
12,22,10,-18,2,16,-29,41,50,48,43,40
12,22,10,-18,2,16,-31,38,48,47,43,40
11,21,10,-17,2,16,-33,36,46,46,43,40
11,20,10,-17,2,15,-34,33,43,45,42,40
11,20,10,-17,2,15,-35,30,40,43,41,39
12,21,9,-17,2,15,-36,28,37,41,40,39
13,21,8,-18,3,15,-36,25,34,39,39,38
12,21,8,-18,3,15,-37,23,32,39,38,37
11,20,9,-17,2,15,-37,21,31,38,37,37
11,20,8,-17,2,14,-37,19,29,36,36,36
12,19,7,-16,3,13,-38,17,27,34,35,35
12,18,6,-16,4,12,-38,15,25,32,33,34
12,17,6,-15,4,11,-39,13,23,31,31,33
12,16,5,-15,5,10,-39,11,20,30,30,32
12,15,4,-14,5,10,-39,10,18,29,29,31
11,14,3,-14,5,9,-39,8,15,26,28,29
10,13,3,-13,5,8,-39,7,12,24,26,28
9,12,2,-12,5,7,-39,5,10,22,25,27
8,11,2,-11,5,6,-38,4,9,21,24,26
9,10,1,-11,5,5,-38,3,7,20,23,25
9,9,0,-10,6,4,-38,1,5,18,21,24
8,8,0,-9,6,4,-37,0,4,17,19,23
7,8,1,-8,4,4,-36,-1,3,17,18,22
6,7,1,-8,3,4,-35,-2,2,16,17,22
5,6,1,-7,3,3,-34,-3,0,15,16,21
5,5,0,-6,3,3,-33,-4,-1,13,15,20
5,5,0,-6,3,2,-32,-5,-2,11,14,18
5,4,0,-5,3,2,-31,-6,-3,8,13,17
4,4,0,-5,3,2,-30,-7,-4,7,12,17
3,3,0,-4,3,1,-30,-8,-5,6,11,16
4,3,-1,-4,4,1,-29,-9,-6,5,10,15
3,2,-1,-4,4,0,-28,-10,-7,5,9,14
1,1,0,-3,2,0,-27,-10,-7,7,9,14
0,1,0,-2,1,0,-27,-11,-6,8,9,14
1,0,0,-2,2,0,-26,-12,-8,8,9,13
1,0,-1,-2,3,-1,-25,-13,-10,6,8,13
1,0,-1,-2,3,-1,-24,-14,-11,3,7,12
1,0,-2,-1,3,-1,-23,-14,-13,0,5,12
2,-1,-3,-1,4,-2,-21,-15,-14,-3,4,11
2,-2,-4,-1,5,-3,-20,-15,-14,-4,3,10
2,-3,-5,0,5,-3,-18,-16,-14,-4,3,9
1,-4,-5,0,4,-4,-17,-16,-14,-3,2,9
0,-5,-5,1,4,-4,-16,-16,-15,-3,2,8
0,-5,-4,1,4,-5,-15,-17,-15,-4,2,7
-1,-5,-4,2,3,-5,-14,-17,-16,-4,2,7
-1,-6,-4,2,3,-5,-13,-18,-15,-4,2,7
-1,-6,-4,3,3,-5,-11,-18,-15,-3,2,7
-1,-6,-4,3,3,-5,-10,-18,-15,-2,1,7
-1,-7,-4,3,2,-5,-9,-18,-16,-2,1,7
-2,-7,-5,4,2,-6,-8,-18,-16,-2,1,6
-2,-8,-5,4,3,-6,-7,-18,-17,-2,1,6
-2,-8,-6,4,3,-7,-6,-18,-17,-1,1,6
-2,-9,-6,5,3,-8,-5,-19,-17,-1,1,6
-2,-9,-7,5,4,-8,-5,-20,-18,-3,1,5
-2,-8,-6,5,3,-8,-4,-20,-18,-5,0,5
-3,-8,-5,5,2,-8,-2,-20,-18,-6,1,6
-3,-9,-5,5,2,-7,-1,-19,-18,-5,1,7
-4,-9,-5,5,2,-7,-1,-19,-18,-5,1,7
-4,-9,-5,5,2,-7,-1,-19,-18,-5,0,7
-4,-10,-6,5,2,-8,0,-19,-18,-5,0,6
-3,-9,-6,5,3,-8,0,-20,-17,-5,-1,5
-3,-9,-6,4,3,-7,0,-20,-17,-4,-1,5
-2,-8,-6,4,3,-7,0,-20,-17,-3,-1,5
-2,-9,-6,4,3,-8,0,-20,-18,-3,-1,5
-2,-9,-6,4,3,-8,0,-20,-18,-5,-2,4
-2,-9,-6,4,3,-8,0,-20,-19,-7,-2,4
-2,-9,-5,5,2,-7,0,-20,-18,-7,-2,5
-3,-9,-4,5,2,-7,1,-19,-18,-7,-2,5
-3,-9,-4,5,2,-7,2,-19,-18,-7,-2,6
-3,-9,-5,5,2,-7,2,-19,-18,-8,-2,6
-3,-10,-6,6,3,-8,3,-20,-18,-8,-1,6
-3,-10,-7,6,3,-9,3,-20,-18,-7,-1,6
-2,-11,-8,5,4,-9,3,-20,-18,-7,0,6
-2,-11,-8,5,4,-9,3,-20,-18,-5,0,6
-3,-11,-7,6,2,-9,3,-20,-17,-4,0,6
-4,-10,-6,6,2,-8,3,-20,-17,-2,1,6
-3,-10,-6,6,2,-8,3,-20,-17,-2,1,6
-3,-10,-6,6,2,-8,3,-20,-17,-2,1,6
-4,-9,-5,6,2,-8,3,-20,-18,-3,1,6
-4,-9,-5,6,1,-7,3,-20,-18,-4,1,6
-4,-9,-4,6,1,-7,3,-20,-17,-3,1,7
-4,-9,-5,5,1,-7,3,-20,-17,-3,0,7
-3,-9,-5,5,2,-7,3,-20,-17,-5,-1,7
-3,-9,-6,5,2,-8,3,-20,-18,-7,-2,6
-3,-9,-5,5,2,-8,3,-20,-19,-7,-2,6
-3,-9,-5,5,2,-7,3,-20,-18,-7,-2,6
-4,-9,-5,5,1,-7,3,-20,-18,-6,-1,6
-4,-9,-6,5,2,-8,3,-21,-18,-6,-1,6
-4,-10,-6,6,2,-8,3,-21,-19,-7,-1,6
-4,-10,-5,6,1,-8,3,-21,-19,-8,0,7
-4,-10,-5,6,1,-8,3,-21,-19,-8,0,8
-4,-10,-6,6,2,-8,3,-21,-19,-8,0,8
-4,-10,-6,6,1,-8,3,-21,-19,-8,0,7
-4,-10,-5,6,1,-8,3,-21,-18,-7,-1,7
-4,-9,-5,6,1,-8,3,-21,-18,-6,-1,7
-4,-9,-5,5,1,-8,3,-21,-17,-4,0,7
-3,-8,-5,5,2,-7,3,-21,-18,-4,0,7
-3,-8,-5,4,2,-7,3,-22,-18,-6,0,7
-3,-8,-5,4,1,-7,3,-22,-18,-6,0,7
-3,-8,-5,5,2,-7,3,-22,-18,-6,0,7
-2,-9,-6,5,2,-8,3,-22,-19,-5,0,7
-2,-9,-6,4,3,-8,3,-22,-19,-5,0,7
-2,-8,-6,4,3,-8,2,-22,-19,-5,0,7
-3,-8,-5,5,2,-7,2,-22,-19,-5,0,7
-3,-8,-5,5,2,-7,2,-22,-18,-6,0,7
-2,-8,-6,5,2,-8,2,-22,-18,-6,0,7
-2,-8,-6,5,2,-8,1,-22,-18,-6,0,7
-2,-8,-6,5,2,-7,1,-23,-18,-5,0,7
-2,-8,-6,5,2,-7,2,-23,-18,-4,1,7
-2,-8,-5,5,2,-7,2,-22,-17,-3,2,8
-3,-8,-5,5,2,-7,2,-22,-17,-2,2,8
-3,-8,-5,5,1,-7,2,-23,-17,-2,2,8
-4,-9,-5,6,1,-7,2,-23,-17,-3,1,8
-3,-9,-5,6,2,-8,2,-23,-17,-5,0,7
-3,-8,-6,5,2,-8,2,-23,-18,-7,0,7
-2,-8,-6,5,3,-8,2,-23,-19,-7,0,6
-1,-8,-7,5,3,-8,2,-23,-19,-8,-1,6
-2,-8,-6,5,2,-8,2,-23,-19,-8,-1,6
-2,-7,-5,5,1,-7,2,-23,-19,-8,-1,6
-3,-7,-5,5,1,-7,2,-23,-19,-8,-1,6
-3,-8,-5,5,1,-7,1,-23,-19,-7,-1,6
-4,-8,-5,5,1,-7,1,-23,-19,-7,-2,6
-4,-8,-5,5,1,-7,1,-23,-19,-7,-1,7
-4,-8,-4,5,0,-7,1,-23,-19,-6,0,8
-4,-8,-4,5,0,-7,1,-23,-18,-6,0,8
-4,-8,-4,5,0,-7,1,-23,-18,-6,0,8
-5,-8,-4,6,0,-7,1,-23,-18,-6,0,8
-5,-8,-4,6,0,-7,1,-23,-18,-5,1,8
-4,-8,-5,5,1,-7,1,-23,-18,-3,2,9
-3,-7,-5,4,2,-7,1,-23,-18,-2,3,9
-3,-7,-5,4,2,-7,0,-23,-18,0,3,8
-2,-7,-5,4,2,-7,0,-23,-17,1,4,8
-2,-8,-6,5,2,-8,0,-23,-17,1,4,8
-2,-8,-6,5,2,-8,0,-23,-17,-1,4,8
-3,-8,-6,5,2,-7,0,-23,-17,-4,3,8
-4,-8,-5,6,1,-7,0,-23,-16,-5,2,8
-5,-8,-4,6,0,-6,1,-22,-16,-5,2,8
-5,-8,-3,6,0,-6,1,-22,-16,-5,1,8
-5,-8,-3,6,0,-6,1,-22,-16,-4,0,8
-6,-8,-2,6,0,-5,1,-22,-16,-4,0,8
-5,-8,-3,6,0,-5,1,-22,-16,-4,0,8
-3,-7,-4,5,1,-6,1,-22,-17,-4,0,8
-3,-7,-5,5,1,-6,1,-22,-17,-4,1,8
-3,-8,-5,5,1,-6,0,-22,-17,-4,1,8
-3,-8,-5,5,1,-7,0,-22,-17,-4,1,8
-3,-8,-5,5,1,-7,0,-22,-17,-4,1,8
-3,-8,-6,5,1,-7,0,-22,-17,-4,1,8
-3,-9,-6,6,1,-7,0,-22,-17,-3,1,8
-4,-9,-5,6,1,-7,0,-23,-16,-3,2,8
-4,-8,-4,6,0,-6,0,-22,-15,-2,2,8
-4,-8,-4,6,0,-6,1,-22,-15,-1,3,8
-4,-8,-5,6,0,-7,2,-22,-15,-1,3,8
-4,-8,-5,6,0,-7,1,-22,-15,-1,2,8
-4,-8,-4,6,0,-7,1,-22,-16,-1,2,9
-4,-8,-4,6,0,-6,0,-22,-16,-2,2,9
-4,-8,-5,6,1,-7,0,-22,-17,-3,2,9
-3,-9,-6,6,2,-8,0,-22,-17,-4,2,9
-3,-8,-6,6,2,-8,0,-22,-17,-4,2,9
-3,-8,-5,6,1,-7,0,-22,-16,-4,2,9
-4,-8,-5,6,0,-7,0,-22,-16,-3,2,9
-4,-8,-5,6,1,-7,0,-23,-16,-2,2,9
-4,-8,-5,6,1,-7,0,-23,-16,-2,3,9
-4,-8,-5,6,1,-7,0,-23,-16,-1,3,9
-4,-8,-4,6,1,-7,0,-22,-16,-1,4,10
-4,-8,-4,6,1,-7,0,-22,-15,0,4,10
-3,-8,-4,6,1,-7,0,-22,-15,0,4,10
-3,-8,-5,6,1,-7,0,-22,-15,0,4,10
-3,-8,-5,6,1,-7,0,-22,-15,0,4,9
-3,-8,-5,6,1,-7,0,-22,-15,0,4,9
-3,-8,-5,6,1,-7,0,-23,-16,0,3,9
-4,-8,-4,6,1,-6,-1,-23,-16,0,3,9
-4,-8,-4,6,1,-6,-1,-23,-16,0,3,9
-4,-7,-4,5,1,-6,-1,-23,-16,0,3,9
-4,-7,-4,5,1,-6,-2,-24,-17,-1,3,9
-4,-7,-4,5,0,-6,-1,-24,-17,-2,3,9
-4,-7,-4,5,0,-6,-1,-24,-17,-1,3,9
-4,-7,-4,6,0,-6,0,-24,-16,0,4,9
-5,-8,-4,6,0,-6,0,-23,-15,1,4,9
-4,-8,-4,6,0,-7,0,-23,-15,2,4,9
-3,-8,-5,6,1,-7,0,-23,-16,1,3,8
-3,-8,-5,6,1,-7,-1,-23,-17,0,2,8
-3,-8,-5,6,1,-7,-1,-24,-17,-1,2,8
-3,-7,-5,6,1,-7,-1,-24,-17,-1,3,8
-2,-7,-5,5,1,-6,-2,-24,-16,0,4,9
-2,-7,-5,5,1,-6,-2,-24,-16,0,4,10
-2,-6,-5,4,1,-6,-2,-24,-17,-1,3,9
-2,-6,-5,4,1,-5,-2,-24,-17,-3,1,9
-2,-7,-5,5,2,-6,-2,-24,-17,-3,1,8
-2,-8,-6,5,2,-7,-2,-24,-16,-2,2,9
-4,-9,-5,6,1,-7,-1,-23,-15,1,3,10
-5,-9,-4,6,0,-6,-1,-23,-14,2,4,10
-5,-8,-4,6,0,-6,-1,-23,-15,2,5,10
-5,-8,-4,6,0,-6,-1,-23,-16,0,4,10
-4,-7,-4,5,0,-6,-1,-23,-16,-1,4,10
-3,-6,-4,4,0,-6,-1,-23,-16,-1,4,10
-3,-6,-3,4,0,-5,0,-22,-16,0,4,10
-3,-5,-2,5,0,-4,0,-22,-15,0,4,10
-3,-5,-2,4,0,-3,0,-22,-14,2,4,10
-2,-3,-1,3,0,-2,1,-22,-13,3,5,10
-1,-2,-2,2,0,-2,1,-22,-12,4,6,11
-2,-2,-1,2,0,-2,2,-21,-12,5,7,12
-3,-2,0,2,-2,-1,2,-20,-12,6,8,13
-4,-1,1,2,-2,0,2,-20,-12,5,9,13
-3,0,1,2,-2,0,2,-20,-12,4,8,13
-2,0,1,1,-2,0,1,-20,-12,3,8,13
-2,0,1,1,-2,0,1,-20,-12,3,8,13
-3,0,2,2,-2,1,2,-20,-11,4,8,13
-4,0,3,2,-3,1,3,-20,-11,4,8,13
-4,0,3,1,-3,2,3,-20,-11,4,8,13
-3,1,4,0,-3,2,3,-20,-11,4,8,13
-2,2,4,0,-3,3,2,-20,-10,5,10,14
-2,3,4,0,-3,3,2,-20,-10,7,10,14
-2,3,5,0,-3,3,1,-20,-11,6,10,14
-2,3,5,0,-3,3,0,-21,-11,5,9,15
-1,3,4,0,-3,3,0,-21,-11,4,9,16
-1,3,4,0,-2,3,0,-21,-11,4,9,17
-1,3,3,0,-2,2,-1,-21,-11,5,9,17
-1,2,3,0,-2,2,-1,-21,-11,5,9,16
-1,2,2,0,-1,2,-1,-21,-11,6,8,15
0,2,1,-1,0,1,-1,-21,-11,6,8,15
0,2,1,-1,0,1,-1,-21,-11,5,8,15
1,2,0,-1,0,1,-2,-22,-11,5,8,15
1,2,0,-1,1,1,-3,-22,-12,5,8,15
2,3,0,-2,1,1,-3,-23,-12,5,9,15
2,3,0,-2,1,1,-3,-23,-12,5,9,15
2,3,0,-2,1,1,-4,-23,-13,5,9,15
1,3,1,-2,0,2,-4,-24,-13,6,9,15
1,4,3,-3,0,3,-4,-24,-13,7,10,15
1,5,4,-3,-1,4,-5,-24,-12,7,11,16
1,6,4,-3,-1,5,-5,-24,-13,6,10,16
2,6,4,-3,-1,5,-6,-25,-14,3,9,16
2,6,3,-3,0,5,-6,-25,-15,2,8,16
3,6,2,-4,1,4,-7,-25,-15,1,7,16
3,6,2,-4,1,4,-7,-24,-14,3,8,16
1,6,4,-3,-1,4,-6,-24,-13,5,9,17
0,5,5,-3,-2,5,-6,-23,-12,7,10,18
0,5,5,-2,-2,5,-5,-23,-12,10,11,18
-1,4,6,-1,-3,5,-5,-23,-12,11,12,18
-2,4,6,-1,-4,5,-4,-22,-12,11,12,18
-2,4,6,-1,-4,5,-4,-22,-12,10,12,18
-2,4,5,-1,-3,5,-4,-22,-13,9,11,17
-2,3,4,-1,-3,4,-4,-23,-14,6,10,16
-2,2,4,0,-2,3,-5,-24,-16,3,8,14
-1,1,3,0,-1,2,-5,-25,-17,1,7,13
-1,0,1,0,0,0,-5,-25,-18,0,6,12
0,0,0,0,0,0,-5,-25,-18,0,6,12
0,-1,0,1,0,-1,-5,-25,-17,0,6,12
-2,-2,0,1,0,-1,-5,-25,-18,0,6,13
-4,-3,0,3,-2,-1,-5,-25,-19,-1,6,12
-5,-3,1,4,-2,-1,-4,-25,-19,-2,5,12
-4,-4,0,4,-2,-2,-4,-25,-19,-3,4,12
-3,-4,-1,3,0,-3,-5,-26,-20,-3,3,10
-2,-4,-2,3,1,-3,-6,-27,-20,-2,2,9
-2,-4,-2,3,0,-3,-6,-27,-20,-2,2,9
-3,-4,-1,3,0,-2,-6,-28,-20,-2,2,9
-3,-4,0,3,-1,-1,-6,-28,-21,-3,2,9
-3,-4,-1,3,-1,-2,-6,-28,-21,-4,2,9
-2,-4,-2,3,0,-2,-6,-28,-21,-4,1,9
-1,-4,-3,3,1,-3,-6,-28,-22,-5,0,9
-1,-4,-4,3,2,-4,-5,-27,-22,-5,0,8
0,-5,-5,3,2,-5,-5,-27,-22,-5,0,9
-1,-5,-4,4,2,-5,-5,-27,-21,-3,1,9
-3,-4,-1,4,0,-3,-5,-27,-21,-2,2,10
-4,-4,0,4,-2,-2,-5,-27,-20,0,3,10
-4,-4,0,4,-1,-2,-5,-27,-20,0,3,10
-3,-4,-1,4,0,-2,-5,-27,-21,-1,2,10
-3,-4,-2,4,0,-2,-6,-27,-22,-2,2,10
-3,-3,-1,4,0,-2,-6,-27,-21,-2,3,10
-4,-3,0,4,-1,-1,-6,-27,-21,-2,3,10
-3,-3,0,3,0,-2,-6,-27,-22,-2,3,9
-2,-3,-2,3,0,-3,-6,-28,-23,-3,2,8
-2,-4,-3,3,1,-4,-6,-28,-23,-5,1,8
-1,-5,-4,3,2,-5,-6,-28,-23,-5,1,8
-1,-5,-5,3,2,-5,-7,-28,-22,-4,2,9
-1,-4,-3,2,1,-3,-7,-28,-22,-2,3,10
-1,-2,-1,2,0,-1,-7,-30,-22,-2,3,11
-1,-1,0,1,0,0,-7,-31,-23,-2,3,12
-2,0,2,1,-1,2,-7,-33,-23,-2,4,13
-2,1,4,0,-2,3,-7,-34,-23,-1,4,13
-3,2,5,0,-3,4,-8,-36,-24,0,5,14
-3,2,5,0,-4,4,-9,-38,-24,0,5,14
-4,2,5,1,-4,4,-10,-40,-24,2,7,14
-4,1,4,1,-3,3,-12,-42,-24,3,9,15
-3,0,2,1,-2,1,-14,-43,-24,4,11,16
-1,0,0,0,0,0,-17,-45,-26,3,11,16
0,-1,-2,0,2,-1,-21,-48,-28,2,11,16
2,-2,-4,0,4,-3,-24,-50,-29,4,13,18
4,-2,-7,0,6,-4,-27,-52,-29,7,17,22
7,-1,-9,-2,8,-5,-30,-52,-27,13,22,27
9,-1,-10,-3,10,-6,-33,-51,-25,19,28,33
11,0,-12,-5,12,-6,-36,-50,-24,24,33,38
12,0,-12,-7,13,-6,-39,-50,-23,27,38,42
15,1,-13,-8,14,-6,-41,-49,-25,27,40,45
18,3,-14,-11,16,-5,-43,-49,-29,24,41,47
19,5,-15,-12,17,-5,-43,-49,-32,20,41,48
19,3,-16,-10,18,-7,-40,-47,-35,15,37,45
18,-2,-21,-6,19,-12,-35,-46,-41,6,28,38
16,-9,-25,-3,20,-17,-29,-48,-47,-4,16,29
13,-14,-27,0,20,-20,-22,-50,-54,-14,4,20
10,-18,-28,3,19,-23,-15,-52,-61,-25,-6,11
7,-23,-30,7,18,-26,-7,-52,-67,-37,-17,2
4,-28,-32,12,18,-30,0,-50,-72,-48,-28,-8
1,-33,-34,16,18,-34,7,-46,-74,-55,-36,-16
-1,-36,-34,19,16,-35,14,-40,-72,-58,-41,-21
-3,-37,-33,21,14,-35,21,-34,-69,-59,-44,-24
-5,-37,-31,22,13,-34,26,-28,-65,-59,-45,-25
-7,-35,-28,21,10,-32,30,-22,-59,-56,-44,-25
-8,-33,-25,20,8,-29,34,-16,-52,-51,-41,-23
-8,-30,-21,19,6,-25,38,-10,-44,-45,-38,-21
-9,-27,-18,18,4,-22,42,-5,-37,-41,-35,-20
-10,-26,-16,18,3,-21,45,0,-31,-38,-33,-20
-11,-27,-16,19,2,-21,48,4,-26,-36,-32,-20
-12,-28,-16,21,2,-22,51,9,-22,-33,-31,-20
-13,-29,-16,22,1,-23,54,13,-18,-30,-29,-19
-14,-30,-16,23,1,-23,56,17,-15,-27,-27,-18
-15,-31,-17,23,0,-24,59,21,-12,-25,-26,-18
-16,-32,-17,24,0,-24,62,24,-9,-22,-24,-18
-17,-33,-16,25,0,-24,66,26,-6,-19,-23,-17
-18,-33,-15,26,-1,-24,69,30,-1,-16,-21,-17
-18,-33,-15,26,-1,-24,71,33,3,-13,-18,-15
-18,-33,-15,26,-1,-24,74,37,6,-10,-15,-13
-18,-34,-16,27,-1,-25,77,41,8,-7,-13,-12
-18,-35,-16,27,-1,-26,80,44,10,-5,-12,-11
-18,-35,-16,27,-1,-26,84,48,12,-4,-11,-10
-18,-34,-17,26,-1,-26,86,50,15,-4,-11,-9
-18,-34,-17,26,0,-26,88,52,18,-4,-10,-8
-18,-35,-17,26,0,-26,90,52,20,-2,-9,-7
-18,-35,-17,27,0,-26,90,50,21,-1,-8,-7
-18,-35,-16,27,0,-26,90,46,22,0,-7,-6
-19,-34,-15,27,-1,-25,88,42,22,2,-6,-5
-19,-33,-14,27,-2,-24,85,37,21,4,-5,-4
-19,-33,-14,26,-3,-23,82,32,20,5,-4,-3
-19,-32,-13,26,-3,-22,78,27,20,5,-3,-3
-20,-31,-11,26,-4,-21,74,25,20,5,-2,-2
-20,-30,-10,25,-5,-20,70,24,21,6,0,-1
-19,-28,-9,23,-4,-19,65,25,22,8,1,0
-16,-24,-8,20,-4,-16,59,27,25,10,3,2
-13,-19,-6,16,-4,-13,53,29,28,13,5,5
-10,-14,-4,12,-3,-9,46,32,32,16,7,8
-8,-10,-2,9,-3,-6,39,34,36,20,10,10
-6,-6,0,6,-3,-3,33,37,39,23,13,13
-5,-4,1,5,-3,-1,28,39,41,26,15,15
-5,-2,3,3,-3,0,24,41,44,28,18,17
-4,0,4,2,-3,2,21,42,46,30,21,19
-3,2,5,0,-4,4,19,44,49,32,23,20
-3,4,6,-1,-4,5,18,45,50,33,25,21
-2,5,7,-2,-5,6,17,47,51,35,26,22
-2,7,8,-2,-5,7,16,48,52,36,27,23
-2,8,9,-3,-5,8,15,48,53,37,28,24
-1,8,8,-3,-4,8,14,49,54,38,28,24
0,8,7,-4,-3,7,13,49,54,37,27,23
1,8,7,-4,-3,7,13,49,55,37,28,23
0,9,9,-4,-4,9,12,50,56,38,29,23
0,10,11,-4,-5,10,12,51,57,39,31,24
0,11,12,-5,-6,11,11,52,58,39,31,25
0,12,13,-5,-6,12,10,52,58,40,31,25
0,12,13,-6,-6,12,9,52,58,41,31,26
0,12,12,-6,-6,12,9,53,59,41,31,26
0,12,12,-6,-5,12,9,53,59,42,31,27
0,12,11,-5,-5,12,9,54,60,42,31,27
0,12,11,-5,-5,12,9,55,61,42,32,28
0,12,11,-5,-5,12,10,56,62,42,32,28
0,12,11,-5,-5,12,10,56,63,43,32,28
1,12,11,-6,-5,12,11,57,64,44,32,28
0,12,12,-6,-5,12,11,58,64,44,33,29
0,12,13,-6,-7,13,11,59,65,45,34,29
-1,13,14,-6,-7,14,11,59,65,46,35,30
0,13,13,-7,-6,14,11,59,66,47,36,30
2,14,12,-8,-4,13,10,59,66,48,37,30
3,15,12,-9,-4,14,9,60,66,48,37,31
3,16,13,-9,-5,15,9,60,67,49,37,31
3,16,14,-9,-5,15,10,61,68,50,37,31
3,16,14,-9,-5,15,10,62,69,50,38,31
3,16,14,-9,-5,15,11,62,70,50,38,31
2,16,14,-9,-6,15,11,63,70,50,38,31
2,17,15,-9,-6,16,11,63,70,50,38,31
2,17,15,-9,-6,16,10,64,70,50,38,31
2,18,15,-9,-7,17,10,64,71,50,38,31
1,18,16,-9,-7,17,10,65,71,50,38,32
1,18,16,-9,-8,18,10,66,72,51,39,32
1,18,17,-9,-8,18,10,66,73,51,39,33
1,18,17,-9,-8,18,10,67,74,53,40,33
1,19,17,-10,-8,18,10,67,75,55,42,34
1,19,17,-10,-8,18,10,67,75,57,44,35
1,20,18,-11,-8,19,10,68,76,58,45,35
1,20,18,-11,-8,19,10,68,76,58,45,35
2,20,18,-11,-8,19,10,69,77,57,44,35
2,20,17,-11,-7,19,10,69,77,57,44,35
3,20,17,-11,-7,19,9,70,77,57,44,35
3,21,17,-12,-7,19,9,70,78,57,44,35
3,21,18,-12,-8,20,10,71,79,58,45,35
3,21,18,-12,-8,20,10,72,80,58,45,35
3,21,18,-12,-8,20,10,72,80,57,45,36
3,22,18,-12,-8,20,9,73,81,58,46,37
3,23,19,-12,-8,21,9,73,82,59,46,38
3,23,19,-13,-8,21,8,74,82,59,47,38
4,24,19,-13,-8,22,8,74,82,60,47,38
4,24,19,-14,-8,22,7,74,82,60,47,38
4,25,20,-14,-8,22,7,74,82,60,48,38
4,25,20,-14,-8,22,6,75,83,61,49,38
3,25,20,-14,-8,22,6,75,83,62,50,39
4,25,21,-14,-8,23,5,75,84,62,50,39
4,26,21,-15,-8,23,5,75,84,63,51,40
5,26,21,-16,-8,24,4,75,84,63,51,40
5,26,20,-16,-8,24,4,75,84,63,51,41
5,26,20,-16,-7,24,3,75,84,63,51,41
6,27,21,-17,-7,24,3,75,84,63,52,42
5,27,22,-17,-8,25,3,75,84,63,52,42
5,27,22,-16,-8,25,2,75,84,64,52,43
5,27,23,-16,-8,25,2,75,85,64,53,43
5,28,23,-16,-8,25,1,74,85,65,53,44
5,28,23,-16,-8,25,0,74,85,65,54,44
5,29,23,-16,-9,26,-1,73,84,65,54,45
5,30,24,-17,-9,27,-2,73,84,65,54,45
5,30,25,-17,-9,28,-3,72,83,64,54,45
6,30,24,-18,-9,28,-4,72,82,63,54,45
7,30,24,-19,-8,27,-5,71,81,63,54,45
7,30,23,-19,-8,27,-6,70,80,63,54,45
7,30,24,-19,-8,28,-7,68,79,63,54,46
7,31,24,-19,-8,28,-8,67,78,63,55,46
7,32,24,-20,-8,28,-10,66,77,63,55,46
7,33,24,-20,-8,29,-11,65,76,62,55,47
7,33,25,-20,-9,29,-12,64,75,62,56,48
7,34,26,-21,-9,30,-14,63,74,62,56,48
8,34,26,-21,-8,30,-15,61,73,61,56,48
8,35,26,-22,-8,31,-17,59,71,61,56,48
9,35,26,-22,-8,31,-18,57,70,61,56,49
9,36,26,-22,-8,31,-19,56,69,60,56,49
8,36,27,-22,-9,32,-20,55,68,60,56,49
7,36,28,-22,-10,32,-21,53,67,59,56,50
7,36,28,-22,-10,32,-22,52,65,58,56,50
8,37,27,-22,-9,32,-24,50,62,56,55,50
9,37,28,-23,-9,33,-25,48,60,55,55,50
10,38,28,-23,-9,34,-27,46,59,55,55,51
10,39,28,-23,-9,34,-28,43,57,54,55,51
9,39,28,-23,-9,34,-30,40,54,53,54,51
9,39,28,-23,-9,34,-31,38,52,52,54,51
10,39,28,-24,-9,34,-33,36,50,52,54,50
10,40,29,-25,-9,34,-34,34,48,51,54,50
9,41,31,-25,-10,36,-35,32,46,50,54,50
9,41,31,-25,-10,36,-37,29,44,49,53,50
10,40,30,-25,-10,36,-38,27,41,47,53,50
10,40,29,-25,-9,35,-38,24,38,45,52,50
10,40,29,-25,-9,35,-39,22,35,43,51,49
10,40,29,-25,-9,35,-40,20,33,41,50,49
9,39,29,-24,-10,35,-41,18,31,39,49,48
8,38,29,-23,-10,34,-41,16,29,38,47,48
8,37,28,-23,-10,33,-42,14,27,36,46,46
9,37,28,-23,-9,32,-42,12,25,35,44,45
9,37,27,-22,-9,32,-43,10,22,33,43,44
9,36,27,-22,-9,32,-43,7,20,30,41,43
8,35,26,-21,-9,31,-43,5,17,28,40,42
8,34,26,-21,-9,31,-43,4,15,26,39,41
8,33,25,-20,-8,30,-43,2,13,25,38,40
7,32,24,-20,-8,29,-43,1,11,23,36,39
7,31,24,-19,-8,28,-43,0,9,22,35,38
7,30,23,-18,-8,27,-43,-1,7,21,34,37
6,28,22,-17,-7,25,-42,-2,5,19,33,36
6,27,21,-16,-7,24,-42,-4,3,18,32,35
6,27,21,-16,-7,24,-42,-5,1,16,30,33
6,27,20,-16,-7,24,-41,-7,0,14,29,32
6,26,19,-16,-6,23,-41,-9,-2,12,27,30
6,25,19,-16,-6,22,-40,-10,-3,10,25,29
5,24,19,-14,-7,22,-39,-10,-4,9,23,28
3,23,19,-13,-8,21,-38,-10,-5,8,22,28
2,22,20,-12,-8,21,-37,-11,-6,7,22,27
2,22,20,-11,-9,21,-36,-13,-8,5,20,26
2,21,19,-11,-9,21,-36,-14,-9,4,19,25
2,21,19,-11,-9,20,-35,-15,-11,2,17,24
1,20,18,-10,-8,19,-34,-16,-12,1,16,23
1,18,17,-9,-8,18,-33,-17,-13,1,16,22
0,17,17,-9,-8,17,-32,-18,-14,0,15,21
0,17,16,-9,-8,16,-31,-18,-14,0,15,21
0,16,16,-9,-7,16,-30,-19,-15,-1,14,20
0,16,15,-9,-7,15,-30,-20,-16,-2,13,19
1,16,15,-8,-6,15,-29,-21,-17,-3,12,18
1,16,14,-8,-6,15,-28,-22,-18,-4,11,18
0,15,14,-7,-7,15,-27,-23,-19,-5,11,17
0,15,14,-7,-7,14,-25,-23,-19,-5,10,17
0,14,14,-6,-7,14,-24,-23,-19,-5,10,16
-1,14,14,-6,-7,14,-23,-24,-20,-5,9,16
-1,13,14,-6,-7,13,-22,-24,-20,-5,9,16
-1,12,14,-5,-7,13,-22,-25,-21,-6,8,15
-1,11,13,-4,-8,12,-22,-25,-21,-7,7,14
-2,11,13,-4,-8,12,-21,-26,-22,-8,6,14
-2,10,12,-3,-7,11,-19,-26,-22,-9,5,13
-2,10,11,-3,-7,11,-18,-27,-23,-10,5,13
-2,9,11,-3,-6,10,-17,-27,-23,-10,5,12
-2,9,10,-3,-6,10,-16,-27,-23,-10,5,12
-2,9,10,-3,-6,9,-15,-27,-23,-10,5,12
-2,8,10,-2,-6,9,-14,-27,-23,-10,4,11
-2,8,11,-2,-7,9,-13,-27,-23,-10,4,11
-3,7,11,-1,-7,9,-12,-27,-24,-11,3,11
-4,7,11,-1,-7,9,-11,-28,-24,-11,3,11
-4,7,11,-1,-7,9,-11,-28,-24,-12,2,11
-4,7,10,-1,-7,9,-10,-28,-24,-12,2,10
-4,7,10,-1,-7,9,-10,-29,-24,-12,2,10
-4,6,10,-1,-7,8,-10,-29,-25,-13,2,9
-4,6,10,0,-7,8,-10,-30,-25,-13,2,9
-5,5,9,0,-7,7,-10,-30,-26,-13,2,9
-5,4,9,0,-6,7,-9,-31,-26,-13,1,9
-4,4,8,0,-6,7,-9,-32,-26,-13,1,9
-5,4,8,0,-6,7,-10,-33,-27,-13,1,9
-5,4,8,1,-7,6,-10,-35,-29,-14,0,8
-5,3,7,1,-6,5,-12,-39,-32,-17,-1,8
-3,2,5,1,-4,3,-14,-43,-37,-19,-3,6
-1,1,2,0,-2,2,-17,-49,-42,-22,-5,5
0,0,0,0,0,0,-21,-55,-49,-26,-9,3
0,-2,-3,1,2,-3,-25,-62,-58,-32,-12,1
1,-6,-8,2,4,-7,-30,-72,-69,-38,-17,-1
2,-10,-13,4,7,-11,-37,-84,-82,-46,-21,-4
2,-14,-17,5,9,-15,-43,-96,-96,-54,-25,-6
2,-17,-20,7,10,-18,-50,-108,-109,-61,-29,-8
2,-19,-22,8,12,-20,-56,-119,-122,-67,-32,-9
4,-20,-25,8,15,-22,-63,-130,-135,-73,-34,-10
6,-20,-27,7,17,-23,-69,-140,-145,-77,-36,-10
7,-20,-27,6,18,-23,-73,-146,-151,-79,-36,-9
7,-19,-27,5,18,-22,-77,-151,-154,-79,-34,-6
7,-17,-25,4,16,-21,-79,-155,-156,-78,-32,-3
7,-13,-21,3,14,-17,-81,-158,-156,-75,-28,0
7,-8,-16,0,12,-12,-82,-161,-154,-70,-23,5
8,0,-9,-3,9,-5,-82,-164,-149,-65,-17,10
8,8,-1,-7,5,3,-82,-169,-144,-58,-12,16
7,17,9,-11,0,13,-80,-171,-137,-51,-5,22
5,26,20,-14,-7,23,-77,-172,-128,-43,2,29
2,35,32,-18,-14,33,-72,-171,-119,-35,8,34
-1,43,43,-20,-21,43,-65,-168,-111,-29,13,38
-4,49,53,-22,-28,51,-56,-162,-102,-24,16,40
-6,53,59,-23,-33,57,-47,-154,-94,-21,17,41
-8,55,63,-23,-36,60,-38,-145,-88,-20,17,41
-10,56,66,-23,-38,62,-30,-136,-83,-20,16,39
-12,57,68,-22,-40,63,-22,-127,-78,-19,15,38
-14,56,69,-21,-41,63,-15,-118,-73,-19,13,36
-15,55,69,-20,-42,63,-8,-110,-68,-19,12,35
-17,55,71,-18,-44,63,-1,-102,-63,-18,11,34
-20,55,74,-17,-47,64,6,-94,-57,-16,12,33
-21,56,77,-17,-50,67,14,-88,-51,-13,13,34
-23,57,80,-17,-51,69,22,-80,-44,-11,14,34
-25,56,81,-16,-53,69,31,-72,-39,-10,13,31
-27,54,81,-13,-53,68,41,-63,-35,-10,11,27
-29,50,78,-10,-53,65,50,-53,-32,-13,6,21
-30,44,74,-6,-51,60,59,-44,-30,-16,0,14
-31,37,68,-2,-49,53,68,-36,-27,-19,-5,7
-32,29,62,2,-47,46,77,-28,-23,-21,-10,0
-33,22,55,6,-45,39,85,-22,-20,-22,-14,-5
-34,15,49,9,-42,33,91,-19,-17,-23,-17,-9
-35,10,44,12,-40,28,95,-17,-16,-23,-19,-12
-35,5,40,15,-38,23,97,-16,-15,-24,-20,-14
-36,1,36,17,-36,19,97,-17,-15,-24,-21,-16
-36,-2,32,19,-34,15,96,-19,-16,-25,-23,-17
-35,-4,30,20,-32,13,95,-21,-16,-25,-24,-18
-34,-5,28,20,-31,11,93,-21,-15,-24,-24,-19
-33,-5,27,20,-30,10,89,-22,-13,-23,-23,-18
-32,-5,26,19,-29,9,81,-22,-12,-21,-22,-17
-30,-4,25,17,-28,10,70,-21,-9,-18,-19,-15
-27,-1,25,14,-26,11,59,-17,-5,-14,-15,-12
-24,1,24,12,-24,13,49,-10,1,-9,-10,-8
-21,3,23,9,-21,13,41,-3,7,-4,-6,-6
-18,4,21,7,-19,13,36,3,13,0,-3,-4
-16,4,19,6,-17,11,31,10,18,2,-2,-3
-14,3,16,6,-14,9,27,16,23,4,0,-2
-12,2,12,5,-12,7,23,22,27,6,1,-1
-10,1,10,5,-10,5,20,27,31,8,2,0
-9,0,7,5,-8,4,18,33,34,11,3,0
-7,-1,5,5,-6,2,18,38,38,13,5,2
-6,-2,3,4,-5,1,17,42,41,15,6,3
-5,-2,1,4,-3,0,17,46,44,17,7,3
-3,-3,-1,4,-1,-1,17,49,46,17,8,3
-2,-5,-4,4,0,-4,17,52,47,18,8,3
-1,-7,-6,4,2,-6,18,54,48,18,8,3
-1,-8,-8,4,3,-7,18,55,49,19,8,3
-1,-8,-8,4,3,-8,19,57,50,20,9,3
-1,-8,-6,5,2,-7,19,59,52,22,10,4
-2,-7,-5,5,2,-6,19,61,54,23,12,5
-1,-6,-5,4,2,-5,18,62,55,25,13,5
0,-5,-6,3,3,-5,18,63,56,26,13,6
2,-5,-7,1,5,-6,17,64,57,26,13,6
4,-4,-8,0,6,-6,15,64,57,26,13,6
5,-4,-10,0,7,-7,14,65,58,26,13,7
5,-4,-10,0,7,-7,14,65,58,27,14,8
5,-2,-9,-1,7,-5,13,67,60,28,15,9
4,-1,-6,-1,6,-4,13,69,63,29,16,10
4,0,-4,-1,5,-2,14,71,65,31,18,10
4,1,-3,-1,4,-1,14,73,66,33,20,11
3,0,-3,-1,4,-1,15,74,67,34,20,11
3,0,-3,-1,3,-1,16,75,68,35,20,12
3,0,-3,-2,3,-1,17,75,68,35,20,12
3,1,-3,-2,3,-1,17,76,68,35,21,12
3,1,-3,-2,3,-1,18,76,69,35,21,12
3,2,-3,-2,3,0,18,77,69,35,21,12
4,2,-2,-2,3,0,18,78,70,36,21,12
4,2,-2,-2,3,0,18,78,70,36,21,12
3,3,-1,-3,2,1,18,79,71,37,22,12
3,3,0,-3,2,1,18,80,72,37,22,13
3,4,0,-3,2,1,18,80,72,38,22,13
3,3,-1,-3,2,1,18,81,73,38,22,14
3,3,-1,-3,3,0,18,81,73,39,23,14
3,3,-2,-3,3,0,18,82,74,39,23,14
4,3,-2,-3,3,0,18,83,75,40,24,14
4,2,-3,-3,4,0,18,84,75,40,24,14
4,2,-3,-3,4,0,18,84,76,41,24,15
4,2,-3,-3,4,0,18,85,76,41,24,15
4,2,-3,-3,4,0,18,86,77,42,25,15
5,2,-3,-3,4,0,18,87,78,43,26,15
5,2,-3,-3,4,0,18,87,78,43,26,16
5,2,-3,-3,4,0,18,88,79,44,27,16
5,2,-3,-3,4,0,18,89,80,44,27,17
5,2,-3,-3,4,0,18,90,81,45,27,17
5,2,-3,-3,4,0,18,91,81,45,27,17
5,2,-3,-3,4,0,19,92,82,46,28,17
5,3,-3,-3,4,0,19,92,82,46,28,17
6,3,-3,-4,4,0,19,93,83,47,28,17
6,3,-3,-4,5,0,19,93,83,47,29,17
7,3,-3,-5,5,0,19,94,83,47,29,17
8,3,-4,-5,6,0,19,95,84,47,29,17
8,3,-4,-5,6,0,19,96,85,48,29,17
7,3,-3,-5,5,0,19,97,86,49,29,18
7,3,-3,-5,5,0,19,98,86,50,30,19
8,3,-4,-5,6,0,19,99,87,50,30,19
8,3,-4,-5,6,0,20,100,87,51,30,19
8,3,-4,-5,6,0,20,100,87,51,31,20
8,3,-4,-5,6,0,21,101,88,51,32,20
8,4,-4,-5,6,0,21,101,88,51,32,20
8,4,-4,-5,6,0,20,102,88,52,32,20
10,5,-5,-6,7,0,20,102,89,52,32,20
11,5,-6,-7,8,0,19,103,89,52,32,20
12,5,-6,-8,9,-1,19,103,89,52,33,20
12,5,-6,-8,9,-1,18,103,89,52,33,20
12,4,-7,-8,10,-1,18,103,89,53,33,21
12,4,-8,-8,11,-2,18,104,89,53,33,21
13,4,-9,-8,11,-2,18,104,89,53,33,22
13,4,-9,-8,12,-2,18,104,88,53,33,22
13,4,-9,-8,11,-2,18,104,88,53,33,23
13,4,-9,-8,11,-2,18,105,88,53,34,23
13,5,-9,-8,11,-2,17,105,88,53,34,24
14,5,-9,-9,12,-2,16,105,88,53,35,24
15,5,-9,-10,12,-2,16,105,87,53,35,24
14,5,-8,-10,12,-1,16,104,87,54,36,24
14,5,-8,-9,11,-1,16,104,87,54,36,25
14,5,-9,-9,12,-1,15,103,86,54,36,25
15,5,-10,-10,13,-2,14,102,85,54,36,25
16,5,-10,-10,14,-2,13,101,84,53,35,25
17,5,-11,-11,15,-2,12,100,83,53,35,25
18,5,-11,-11,15,-3,12,99,82,52,35,25
18,5,-12,-11,15,-3,11,98,82,52,36,26
18,6,-12,-11,15,-3,10,97,81,52,36,26
18,6,-12,-11,16,-3,9,96,79,52,36,26
19,7,-12,-12,16,-3,8,94,78,51,36,26
18,7,-10,-11,15,-2,8,92,76,51,36,27
17,8,-9,-11,14,-1,7,90,75,50,36,27
17,8,-9,-12,14,0,6,89,73,50,36,27
18,8,-10,-12,14,0,5,87,72,49,36,27
18,8,-10,-13,15,0,4,85,71,49,36,28
18,8,-10,-13,15,0,3,83,69,49,36,28
18,9,-9,-13,15,0,2,81,67,48,36,28
18,10,-9,-13,15,0,1,78,65,47,36,29
18,10,-9,-13,15,0,0,76,63,46,36,29
19,10,-9,-14,15,0,0,73,61,45,36,30
19,10,-9,-14,15,0,-2,71,59,44,36,30
19,11,-8,-14,14,1,-3,68,57,44,36,30
18,11,-6,-14,12,3,-3,66,56,43,36,30
17,12,-5,-14,11,4,-4,63,54,42,35,30
17,13,-5,-15,11,4,-5,60,52,41,35,30
17,13,-4,-15,11,4,-6,57,49,40,34,30
17,13,-4,-15,11,4,-7,54,47,39,34,30
17,14,-4,-15,11,5,-8,51,44,38,34,30
18,14,-4,-15,11,5,-9,48,42,37,33,30
18,15,-3,-16,11,6,-10,45,40,36,32,29
17,16,-1,-16,9,8,-11,42,38,35,32,29
15,16,2,-15,7,9,-11,40,37,34,31,29
13,17,4,-14,5,10,-11,37,35,33,31,29
13,17,4,-14,5,10,-11,34,32,32,30,29
13,17,3,-14,5,10,-12,31,30,30,29,29
13,17,4,-14,5,11,-12,28,27,29,28,29
12,18,5,-14,4,12,-13,25,24,27,27,28
11,18,6,-14,3,12,-13,22,22,26,26,27
11,18,6,-14,3,12,-13,20,20,24,24,25
12,18,6,-14,4,12,-13,17,18,23,23,24
12,18,6,-14,4,12,-13,15,16,21,21,23
11,17,7,-13,3,12,-13,12,13,19,20,22
9,17,7,-12,2,12,-13,10,11,17,19,21
8,16,7,-11,1,12,-12,8,9,16,18,21
7,16,7,-11,0,12,-12,6,8,15,17,20
7,16,8,-11,0,12,-11,4,6,14,15,19
7,16,8,-11,0,13,-11,2,4,13,14,17
7,16,8,-11,0,12,-11,0,3,11,13,16
6,15,8,-10,0,12,-10,-1,1,9,11,15
6,14,8,-10,0,12,-10,-3,0,7,10,14
5,14,8,-9,-1,12,-9,-5,-2,6,10,13
4,13,9,-8,-1,12,-9,-6,-3,5,9,13
3,13,9,-7,-2,12,-8,-8,-5,4,8,12
3,12,9,-7,-2,11,-8,-9,-6,2,7,11
2,12,9,-6,-2,11,-7,-10,-7,1,6,10
2,12,9,-6,-3,11,-6,-11,-8,1,5,9
2,11,9,-6,-3,11,-6,-12,-9,0,4,8
2,11,9,-6,-3,11,-6,-13,-11,-1,3,7
2,11,10,-6,-3,11,-5,-14,-12,-2,2,6
1,11,10,-6,-3,11,-5,-15,-13,-3,1,6
1,10,9,-5,-3,10,-4,-16,-14,-4,1,6
1,10,9,-5,-3,10,-4,-17,-15,-4,0,6
0,10,10,-5,-3,11,-4,-18,-15,-5,0,5
0,10,10,-5,-4,11,-4,-18,-15,-5,0,5
0,10,10,-4,-5,10,-3,-18,-15,-5,-1,4
-1,9,10,-4,-5,10,-3,-19,-16,-6,-1,4
-1,8,9,-4,-4,9,-3,-19,-17,-7,-2,3
-1,8,9,-4,-4,9,-3,-20,-17,-7,-2,3
-1,8,9,-3,-4,9,-3,-20,-18,-8,-2,3
-1,8,9,-3,-4,9,-2,-21,-18,-8,-2,3
-1,8,9,-3,-4,9,-2,-21,-18,-8,-3,3
-1,8,9,-3,-4,9,-2,-21,-19,-8,-3,2
0,8,8,-3,-3,8,-3,-22,-19,-9,-4,2
0,8,8,-3,-3,8,-3,-22,-20,-9,-4,1
0,8,8,-3,-3,8,-3,-23,-20,-10,-4,1
0,8,8,-3,-3,8,-3,-23,-20,-10,-4,1
0,8,8,-3,-3,8,-3,-23,-20,-10,-4,1
0,8,7,-3,-3,8,-3,-23,-20,-10,-5,1
0,7,7,-3,-3,8,-3,-23,-20,-10,-5,1
-1,7,8,-2,-3,8,-2,-23,-20,-10,-5,1
-2,7,9,-2,-4,9,-2,-22,-19,-10,-4,1
-2,7,9,-2,-5,9,-2,-22,-19,-10,-4,1
-3,6,9,-1,-5,8,-2,-22,-19,-10,-4,1
-3,6,9,-1,-5,8,-2,-22,-20,-10,-4,1
-3,6,9,-1,-5,8,-2,-23,-20,-10,-4,1
-2,7,8,-1,-5,8,-2,-23,-21,-10,-5,1
-1,7,8,-1,-4,7,-2,-23,-21,-10,-5,0
-1,7,7,-1,-3,7,-2,-23,-21,-10,-5,0
0,6,6,-1,-3,6,-3,-24,-21,-10,-6,0
0,6,6,-1,-2,6,-3,-24,-21,-10,-6,0
-1,5,6,-1,-3,7,-2,-24,-21,-10,-6,0
-2,5,7,-1,-4,7,-2,-23,-21,-10,-6,0
-2,5,8,-1,-4,7,-2,-23,-21,-10,-6,0
-2,5,7,-1,-4,7,-2,-24,-21,-11,-7,0
-2,5,7,0,-4,6,-2,-24,-21,-11,-7,0
-2,5,7,0,-4,6,-2,-23,-21,-11,-7,0
-3,5,7,0,-4,6,-2,-23,-21,-11,-7,0
-2,5,6,0,-4,6,-2,-23,-21,-11,-7,0
-1,4,5,0,-2,5,-3,-24,-21,-12,-7,-1
0,4,4,-1,-2,5,-3,-24,-22,-12,-7,-2
0,4,4,-1,-2,4,-3,-24,-22,-12,-7,-2
-1,4,4,-1,-2,4,-3,-24,-22,-12,-7,-2
-1,3,4,0,-2,4,-3,-24,-22,-12,-8,-2
-1,3,4,0,-2,4,-3,-24,-21,-12,-8,-2
-1,3,3,0,-2,4,-3,-24,-21,-12,-8,-2
-1,3,3,0,-2,4,-3,-24,-21,-12,-8,-2
0,3,3,0,-1,4,-3,-24,-21,-12,-8,-3
0,3,3,0,-1,3,-3,-24,-21,-12,-8,-3
0,3,2,0,-1,3,-3,-24,-21,-12,-8,-3
-1,3,3,0,-1,3,-2,-24,-21,-12,-8,-3
-2,3,3,0,-2,3,-2,-24,-21,-12,-8,-3
-1,3,3,0,-1,3,-2,-24,-22,-13,-9,-3
-1,3,2,0,-1,3,-2,-24,-22,-13,-9,-3
-2,3,3,0,-2,3,-2,-24,-22,-13,-9,-3
-2,3,3,0,-2,3,-3,-25,-22,-13,-9,-4
-1,2,3,0,-1,3,-3,-25,-22,-13,-10,-4
-2,2,4,1,-2,3,-3,-25,-22,-13,-10,-4
-2,2,4,1,-2,4,-3,-25,-22,-14,-10,-4
-2,2,4,0,-2,4,-4,-25,-22,-14,-10,-5
-2,2,3,0,-1,4,-4,-25,-22,-14,-10,-5
-1,2,3,0,-1,3,-4,-25,-22,-14,-10,-5
0,2,2,0,0,2,-4,-26,-23,-14,-10,-5
0,2,1,0,0,1,-4,-26,-23,-15,-10,-5
0,1,1,0,0,1,-4,-26,-23,-15,-10,-6
0,1,1,1,0,1,-4,-26,-24,-15,-10,-6
-1,1,2,1,-1,2,-3,-26,-23,-14,-10,-5
-3,1,4,2,-2,3,-3,-25,-23,-14,-10,-5
-3,1,5,2,-3,4,-3,-25,-23,-14,-10,-5
-3,2,4,2,-3,4,-3,-25,-23,-14,-10,-5
-3,2,4,2,-3,4,-3,-25,-22,-14,-10,-5
-3,2,4,2,-3,4,-3,-25,-22,-14,-10,-5
-3,2,4,2,-3,4,-3,-25,-22,-14,-10,-5
-3,1,4,2,-2,3,-3,-25,-23,-14,-10,-5
-3,1,4,2,-2,2,-3,-25,-23,-14,-10,-5
-2,0,3,2,-1,2,-3,-25,-23,-14,-10,-5
-2,0,2,2,-1,1,-3,-25,-23,-14,-10,-6
-2,0,2,2,-1,1,-3,-25,-23,-15,-10,-6
-2,0,1,2,-1,1,-3,-25,-23,-15,-10,-6
-2,0,1,2,-1,1,-3,-25,-23,-15,-10,-6
-2,0,1,2,-1,1,-3,-25,-22,-15,-10,-6
-2,0,2,2,-1,1,-3,-25,-22,-15,-10,-6
-2,0,2,2,-1,1,-3,-25,-22,-15,-10,-6
-2,0,1,2,-1,1,-3,-25,-22,-15,-10,-6
-2,0,1,2,-1,1,-3,-25,-22,-15,-11,-6
-2,0,1,2,-1,1,-3,-25,-23,-15,-11,-7
-2,0,1,2,-1,1,-4,-25,-23,-16,-11,-7
-2,0,1,2,-1,1,-4,-25,-23,-16,-12,-7
-2,-1,0,2,0,0,-4,-25,-23,-16,-12,-7
-2,-1,0,3,0,0,-4,-25,-23,-16,-12,-8
-2,-1,1,3,0,0,-4,-25,-23,-16,-12,-8
-2,-1,1,3,0,0,-4,-25,-22,-16,-12,-8
-2,-1,1,2,0,0,-4,-25,-22,-16,-12,-8
-2,-1,0,2,0,0,-4,-25,-23,-16,-12,-8
-2,-1,0,2,0,0,-4,-25,-23,-16,-12,-8
-2,-1,0,2,0,0,-4,-25,-23,-16,-12,-8
-1,-1,0,1,0,0,-4,-25,-23,-16,-12,-8
-1,-1,0,1,0,0,-4,-25,-22,-16,-12,-8
-1,-1,0,1,0,0,-4,-25,-22,-15,-12,-8
-1,-1,0,1,0,0,-4,-25,-22,-15,-12,-8
-1,-1,0,1,0,0,-4,-24,-22,-15,-11,-8
-1,-1,0,1,0,0,-4,-24,-22,-15,-11,-8
-1,-1,0,1,0,0,-4,-25,-22,-16,-11,-8
-1,-1,-1,1,1,0,-4,-25,-23,-16,-12,-8
-1,-1,0,2,0,0,-4,-25,-23,-16,-12,-8
-2,-1,0,2,0,0,-4,-24,-22,-16,-11,-8
-2,-1,1,2,-1,0,-4,-24,-22,-15,-11,-8
-2,-1,0,2,0,0,-4,-24,-22,-15,-11,-8
-1,-2,-1,2,0,-1,-4,-24,-22,-15,-11,-9
-1,-2,-1,2,1,-1,-4,-24,-22,-15,-11,-9
-1,-2,-1,2,1,0,-4,-24,-22,-15,-11,-9
0,-2,-1,2,1,-1,-4,-24,-22,-15,-12,-9
0,-2,-2,2,2,-1,-4,-24,-22,-16,-12,-9
0,-2,-2,2,1,-1,-4,-24,-22,-16,-12,-9
-1,-2,-1,2,1,-1,-4,-24,-22,-16,-12,-9
-2,-2,-1,3,0,-1,-4,-24,-22,-16,-12,-9
-2,-2,-1,3,0,-1,-4,-24,-22,-15,-12,-9
-2,-2,0,2,0,0,-4,-23,-22,-15,-11,-9
-3,-2,0,3,0,0,-4,-23,-22,-14,-11,-9
-3,-2,0,3,0,0,-4,-23,-22,-14,-11,-9
-3,-2,1,3,-1,0,-4,-22,-21,-14,-11,-8
-3,-2,1,3,-1,0,-4,-22,-21,-14,-11,-8
-2,-1,0,2,0,0,-4,-22,-22,-14,-11,-9
-1,-1,-1,2,1,0,-4,-23,-22,-14,-11,-9
0,-2,-2,1,2,-1,-4,-23,-22,-14,-12,-10
0,-2,-2,2,2,-1,-4,-23,-22,-14,-12,-10
-2,-2,0,3,0,0,-4,-23,-21,-14,-12,-10
-3,-2,0,3,-1,0,-3,-22,-21,-14,-12,-10
-2,-2,0,3,0,0,-3,-22,-20,-14,-12,-10
-1,-2,0,3,0,0,-4,-22,-20,-14,-12,-10
-1,-2,-1,3,1,0,-4,-22,-21,-14,-12,-10
-1,-2,-1,3,1,-1,-4,-22,-21,-14,-12,-10
-1,-3,-1,3,1,-1,-4,-22,-21,-14,-12,-10
-1,-3,-2,3,1,-2,-4,-22,-21,-15,-12,-10
-1,-3,-2,3,2,-2,-4,-22,-21,-15,-12,-10
-1,-2,-2,3,2,-2,-4,-22,-21,-15,-12,-10
-1,-2,-2,3,1,-2,-4,-22,-21,-15,-12,-10
-1,-3,-2,3,1,-2,-4,-22,-21,-15,-12,-10
-1,-3,-2,4,1,-2,-4,-22,-20,-15,-12,-10
-1,-4,-3,4,1,-3,-4,-22,-20,-14,-12,-10
0,-4,-4,3,2,-3,-4,-22,-20,-14,-12,-10
0,-3,-3,3,2,-3,-4,-22,-20,-14,-12,-10
0,-3,-3,3,2,-2,-4,-22,-20,-14,-12,-11
0,-3,-3,3,2,-2,-4,-22,-20,-14,-12,-11
0,-3,-3,2,2,-3,-4,-22,-20,-14,-12,-11
1,-4,-4,2,3,-3,-4,-22,-20,-14,-12,-11
0,-4,-4,3,3,-3,-4,-22,-20,-14,-12,-11
-1,-3,-2,3,1,-2,-4,-22,-19,-14,-12,-10
-3,-3,0,4,0,-1,-3,-21,-19,-13,-11,-10
-4,-3,0,4,-1,-1,-3,-21,-19,-13,-11,-10
-3,-3,-1,4,0,-1,-4,-21,-19,-14,-12,-11
-1,-3,-2,3,1,-2,-4,-21,-19,-14,-12,-11
0,-3,-3,3,2,-2,-4,-21,-19,-14,-13,-11
0,-3,-3,3,2,-3,-4,-21,-19,-14,-13,-11
0,-4,-4,3,2,-3,-4,-21,-19,-14,-13,-11
0,-4,-5,3,3,-4,-4,-21,-20,-14,-13,-11
0,-4,-5,3,3,-4,-5,-21,-20,-14,-13,-11
0,-4,-5,3,3,-4,-5,-21,-20,-14,-13,-11
0,-4,-4,3,2,-4,-5,-21,-20,-14,-13,-11
0,-4,-4,3,2,-4,-4,-21,-20,-14,-13,-11
0,-4,-4,3,2,-4,-4,-21,-20,-14,-13,-11
0,-4,-4,3,2,-3,-4,-21,-19,-14,-13,-11
0,-4,-4,3,2,-3,-4,-21,-19,-14,-13,-11
0,-4,-3,3,2,-3,-4,-21,-19,-14,-13,-11
-1,-4,-3,3,2,-3,-4,-21,-19,-15,-12,-11
-1,-3,-3,3,2,-3,-4,-21,-19,-15,-12,-11
0,-3,-3,3,2,-3,-4,-21,-19,-15,-12,-11
0,-3,-4,3,2,-3,-4,-22,-20,-15,-12,-12
0,-3,-4,3,2,-3,-4,-21,-20,-15,-12,-12
0,-4,-4,3,2,-3,-4,-21,-20,-14,-12,-11
0,-4,-4,3,2,-4,-4,-21,-19,-14,-12,-11
0,-4,-4,3,2,-4,-4,-21,-19,-14,-12,-11
-1,-4,-4,3,2,-4,-4,-21,-19,-14,-12,-11
-1,-4,-4,3,2,-4,-4,-21,-19,-14,-12,-11
0,-4,-5,3,3,-4,-4,-21,-19,-14,-12,-11
0,-4,-5,3,2,-4,-4,-21,-19,-14,-12,-11
0,-4,-4,3,2,-4,-4,-20,-19,-14,-12,-11
0,-4,-4,3,2,-4,-4,-20,-19,-14,-12,-11
0,-4,-4,4,2,-4,-4,-20,-18,-14,-12,-11
-1,-4,-4,4,2,-4,-4,-20,-18,-14,-12,-11
-1,-4,-4,3,2,-4,-4,-20,-19,-14,-12,-11
-1,-4,-4,3,2,-4,-4,-20,-19,-14,-12,-11
-1,-4,-4,3,2,-3,-4,-20,-19,-15,-12,-11
-1,-4,-4,3,2,-3,-4,-20,-19,-15,-12,-11
-1,-4,-3,3,1,-3,-4,-20,-19,-15,-12,-11
-1,-4,-3,3,1,-2,-4,-20,-19,-15,-13,-11
-1,-4,-3,3,1,-2,-4,-20,-19,-15,-13,-12
-1,-3,-3,3,1,-2,-4,-20,-19,-15,-14,-12
0,-3,-3,3,1,-2,-4,-20,-19,-15,-13,-12
0,-3,-3,3,1,-3,-4,-20,-19,-15,-13,-12
0,-4,-4,3,2,-3,-4,-20,-19,-15,-13,-12
0,-4,-5,3,3,-4,-4,-20,-19,-15,-13,-12
0,-4,-5,3,3,-4,-4,-20,-19,-15,-13,-12
0,-3,-4,3,2,-3,-4,-20,-19,-15,-13,-12
0,-4,-4,3,2,-3,-4,-20,-19,-15,-13,-12
0,-4,-4,3,2,-4,-4,-20,-19,-15,-13,-12
0,-4,-3,3,2,-4,-4,-20,-19,-15,-13,-12
-1,-4,-3,3,2,-4,-4,-20,-19,-15,-13,-12
0,-4,-4,2,2,-4,-5,-20,-20,-15,-13,-12
0,-4,-4,2,2,-3,-5,-20,-20,-15,-13,-12
0,-3,-3,2,1,-3,-5,-20,-19,-15,-13,-12
0,-3,-3,2,2,-3,-4,-20,-19,-15,-13,-12
1,-3,-4,1,3,-3,-4,-20,-19,-15,-13,-12
1,-3,-4,1,3,-4,-4,-20,-19,-15,-13,-12
1,-3,-4,1,2,-3,-4,-20,-19,-15,-13,-12
1,-3,-3,1,2,-3,-4,-20,-19,-15,-13,-12
1,-3,-3,1,2,-3,-4,-20,-19,-15,-13,-12
1,-3,-3,1,2,-3,-4,-20,-19,-15,-13,-12
1,-3,-3,1,2,-3,-4,-20,-19,-15,-13,-12
0,-2,-3,1,2,-3,-4,-20,-19,-15,-13,-12
0,-2,-2,2,1,-2,-5,-20,-19,-15,-13,-12
0,-2,-1,2,1,-2,-5,-20,-19,-15,-13,-12
0,-2,-2,1,1,-2,-5,-20,-19,-15,-14,-12
0,-2,-2,1,2,-2,-5,-20,-19,-16,-14,-12
0,-2,-2,1,2,-2,-5,-20,-19,-16,-14,-12
0,-2,-2,1,1,-2,-5,-20,-19,-15,-14,-12
0,-2,-1,1,1,-1,-4,-20,-19,-15,-13,-12
0,-1,0,1,0,-1,-4,-19,-19,-15,-13,-12
0,-1,0,0,1,-1,-4,-19,-19,-15,-13,-12
1,-1,-1,0,2,-1,-4,-19,-19,-15,-14,-13
3,-1,-3,0,4,-2,-4,-19,-20,-15,-14,-13
3,-1,-4,0,4,-2,-5,-19,-20,-15,-14,-13
2,0,-3,0,2,-1,-5,-19,-20,-16,-14,-13
1,0,-1,0,1,-1,-5,-19,-20,-16,-13,-12
0,0,-1,0,1,-1,-5,-20,-20,-16,-13,-12
1,0,-2,0,1,-1,-5,-20,-20,-16,-13,-12
1,0,-2,0,2,-1,-5,-20,-20,-16,-14,-12
1,0,-2,0,2,-1,-5,-20,-20,-16,-14,-12
1,0,-1,0,1,0,-4,-20,-20,-16,-14,-12
0,0,-1,0,1,0,-4,-19,-19,-16,-14,-12
1,0,-1,0,1,0,-4,-19,-19,-16,-14,-13
1,0,-1,0,1,0,-4,-19,-20,-17,-14,-13
1,0,-1,0,1,0,-4,-19,-19,-17,-14,-13
0,0,0,0,0,0,-4,-19,-19,-16,-14,-13
0,-1,-1,1,1,0,-4,-20,-19,-16,-14,-13
0,-1,-1,1,1,-1,-4,-20,-19,-16,-14,-13
0,-1,-1,1,1,-1,-4,-20,-19,-16,-14,-13
0,-1,-1,1,1,-1,-4,-19,-18,-16,-14,-13
0,-2,-1,1,1,-1,-4,-19,-18,-16,-14,-13
0,-2,-2,1,1,-2,-4,-19,-19,-16,-15,-13
1,-2,-2,1,1,-2,-4,-19,-19,-16,-15,-13
1,-2,-3,1,2,-2,-4,-19,-19,-16,-15,-13
1,-1,-3,1,2,-2,-4,-19,-19,-16,-15,-13
1,-1,-2,1,2,-2,-4,-19,-19,-16,-15,-13
0,-1,-2,1,1,-2,-4,-19,-19,-16,-15,-13
0,-2,-2,1,1,-2,-4,-19,-19,-16,-15,-13
1,-1,-3,1,2,-2,-4,-20,-19,-16,-15,-13
2,0,-3,0,2,-1,-4,-20,-19,-17,-15,-14
2,0,-2,0,2,-1,-4,-20,-19,-17,-15,-14
2,0,-1,0,1,0,-4,-20,-19,-16,-15,-14
1,0,-1,0,1,0,-5,-20,-19,-16,-15,-14
1,-1,-2,1,1,-1,-5,-21,-19,-16,-16,-14
0,-2,-2,1,1,-2,-5,-20,-19,-16,-16,-14
0,-2,-1,2,0,-2,-4,-20,-19,-16,-16,-14
0,-2,-1,2,0,-2,-4,-20,-19,-16,-15,-13
0,-2,-2,2,1,-2,-4,-19,-18,-16,-15,-13
0,-3,-2,2,1,-2,-4,-19,-18,-15,-15,-13
0,-3,-2,2,1,-2,-4,-19,-18,-15,-15,-13
0,-3,-2,2,1,-2,-4,-20,-18,-15,-15,-14
0,-3,-2,2,1,-2,-4,-20,-18,-15,-15,-14
0,-3,-3,2,1,-2,-4,-20,-18,-15,-15,-14
0,-3,-3,2,1,-2,-4,-20,-18,-15,-15,-14
0,-2,-3,2,1,-2,-4,-20,-18,-16,-15,-14
1,-2,-3,1,2,-3,-4,-20,-18,-16,-15,-14
1,-2,-4,1,2,-3,-4,-20,-18,-16,-15,-14
1,-2,-4,1,3,-3,-4,-20,-18,-16,-15,-14
2,-2,-4,0,3,-3,-4,-20,-18,-16,-15,-14
2,-1,-4,0,3,-2,-4,-20,-18,-16,-15,-14
1,-2,-3,1,2,-2,-4,-20,-18,-16,-15,-14
0,-2,-3,1,2,-2,-4,-20,-18,-16,-14,-14
0,-3,-3,2,2,-3,-4,-20,-18,-16,-14,-14
1,-3,-3,2,2,-3,-4,-20,-18,-16,-15,-14
1,-3,-3,2,2,-2,-4,-20,-18,-16,-15,-14
0,-3,-2,2,1,-2,-3,-20,-18,-16,-15,-14
0,-3,-2,2,1,-2,-3,-20,-18,-15,-15,-14
0,-3,-3,1,1,-2,-3,-20,-18,-15,-15,-14
0,-3,-3,1,2,-2,-4,-20,-18,-16,-15,-14
1,-3,-3,1,3,-2,-4,-20,-18,-16,-15,-14
1,-2,-3,1,3,-2,-4,-20,-19,-16,-15,-14
1,-2,-3,1,3,-2,-4,-20,-19,-16,-15,-14
1,-2,-3,1,3,-3,-4,-20,-18,-16,-15,-14
1,-3,-3,1,3,-3,-4,-20,-18,-16,-15,-14
1,-3,-3,1,3,-3,-4,-20,-18,-16,-15,-14
1,-3,-3,1,3,-3,-4,-19,-18,-16,-15,-14
1,-3,-3,1,3,-3,-3,-19,-18,-16,-15,-14
1,-3,-3,1,3,-3,-3,-19,-19,-16,-15,-14
1,-3,-3,1,3,-3,-3,-19,-19,-16,-15,-14
1,-3,-3,1,3,-3,-3,-19,-19,-16,-15,-14
1,-2,-3,1,3,-3,-3,-19,-19,-16,-15,-14
1,-2,-3,1,3,-3,-3,-19,-19,-16,-15,-14
1,-3,-4,1,3,-3,-3,-19,-18,-16,-15,-14
1,-3,-4,1,3,-3,-3,-19,-18,-16,-15,-14
0,-3,-3,1,2,-3,-3,-19,-18,-16,-15,-14
0,-3,-3,2,2,-3,-3,-19,-18,-16,-15,-14
0,-3,-4,2,2,-3,-3,-19,-18,-16,-15,-14
1,-3,-4,2,2,-3,-3,-19,-18,-16,-15,-14
1,-2,-3,2,2,-3,-3,-19,-18,-16,-15,-14
1,-2,-3,2,2,-2,-3,-19,-18,-16,-15,-14
1,-2,-3,2,2,-2,-3,-19,-19,-16,-15,-15
1,-2,-3,1,2,-2,-3,-19,-19,-16,-15,-15
1,-2,-2,1,2,-2,-3,-19,-19,-16,-15,-15
0,-2,-1,1,1,-2,-3,-19,-19,-16,-15,-15
0,-2,-1,1,1,-2,-3,-20,-19,-16,-15,-15
1,-3,-3,1,2,-3,-3,-20,-20,-17,-15,-15
2,-3,-4,1,4,-4,-4,-20,-20,-17,-16,-16
1,-3,-4,1,3,-4,-3,-20,-20,-17,-16,-15
0,-3,-3,2,2,-3,-3,-19,-19,-16,-15,-15
0,-3,-2,2,1,-3,-3,-19,-19,-16,-15,-15
0,-3,-3,1,2,-3,-3,-19,-19,-17,-16,-15
1,-2,-3,1,2,-3,-4,-20,-19,-17,-16,-16
1,-2,-2,1,2,-2,-4,-20,-19,-17,-16,-16
1,-2,-3,1,2,-2,-4,-20,-19,-17,-16,-16
1,-2,-4,1,3,-3,-4,-19,-19,-17,-16,-16
1,-3,-4,1,3,-3,-4,-19,-19,-17,-16,-16
1,-3,-4,1,3,-3,-4,-20,-19,-17,-16,-16
1,-3,-4,1,3,-3,-4,-20,-19,-17,-16,-16
2,-3,-5,1,4,-4,-4,-20,-19,-17,-15,-16
2,-3,-5,1,4,-4,-4,-20,-19,-17,-15,-16
1,-3,-4,2,3,-3,-4,-20,-19,-16,-15,-16
0,-3,-3,2,2,-3,-4,-20,-19,-16,-15,-16
0,-3,-3,2,2,-3,-4,-20,-19,-16,-15,-16
0,-3,-3,1,2,-3,-4,-20,-19,-16,-15,-16
0,-2,-3,1,2,-2,-4,-20,-19,-16,-15,-16
0,-2,-3,1,2,-2,-4,-20,-19,-16,-15,-16
1,-3,-4,1,2,-3,-4,-20,-19,-16,-15,-16
1,-3,-4,1,3,-4,-4,-20,-19,-16,-15,-16
0,-4,-4,2,2,-4,-4,-20,-19,-17,-15,-16
0,-4,-4,2,2,-3,-3,-20,-19,-17,-15,-16
0,-4,-4,2,2,-3,-3,-20,-19,-17,-15,-16
0,-4,-4,2,2,-3,-4,-20,-19,-18,-15,-16
1,-4,-4,2,3,-3,-4,-20,-19,-18,-15,-16
1,-4,-5,2,3,-4,-4,-20,-19,-18,-15,-16
1,-4,-5,2,4,-4,-3,-20,-19,-18,-15,-16
2,-4,-6,2,4,-5,-3,-20,-19,-18,-15,-16
2,-4,-6,2,4,-5,-3,-20,-19,-18,-15,-16
1,-4,-5,2,3,-5,-3,-20,-19,-18,-15,-16
0,-4,-4,2,2,-4,-3,-20,-19,-18,-15,-16
0,-4,-4,2,2,-4,-4,-20,-19,-18,-16,-16
0,-4,-4,2,3,-4,-4,-20,-19,-18,-16,-16
0,-4,-4,2,3,-4,-3,-20,-19,-17,-15,-16
0,-4,-4,2,2,-4,-3,-20,-19,-17,-15,-16
0,-4,-3,2,2,-3,-3,-20,-19,-17,-16,-16
0,-4,-4,2,2,-3,-3,-20,-19,-17,-16,-16
1,-3,-4,1,2,-3,-3,-20,-19,-17,-16,-17
2,-3,-5,1,3,-4,-4,-20,-19,-17,-16,-17
2,-3,-5,1,4,-4,-4,-20,-19,-17,-16,-17
2,-3,-5,1,3,-4,-4,-20,-19,-17,-16,-17
1,-3,-5,2,3,-4,-4,-20,-19,-17,-16,-17
0,-3,-4,2,2,-3,-4,-20,-19,-17,-16,-17
-1,-3,-2,3,0,-3,-4,-20,-19,-17,-15,-17
-1,-3,-2,3,0,-2,-4,-20,-19,-17,-15,-17
0,-3,-2,2,1,-2,-4,-21,-19,-17,-15,-17
0,-3,-3,2,2,-3,-4,-21,-19,-17,-16,-17
1,-3,-4,2,2,-3,-4,-21,-19,-17,-16,-17
1,-4,-5,2,3,-4,-4,-21,-19,-17,-16,-17
1,-3,-5,2,3,-4,-4,-21,-19,-17,-16,-17
1,-3,-4,1,3,-4,-4,-21,-19,-18,-17,-17
1,-3,-4,1,3,-4,-5,-21,-19,-18,-17,-17
1,-3,-5,1,3,-5,-5,-21,-19,-18,-17,-17
1,-4,-5,1,3,-5,-5,-21,-19,-18,-17,-17
1,-4,-6,1,4,-5,-5,-21,-19,-18,-17,-17
1,-4,-6,2,4,-5,-4,-21,-19,-18,-17,-17
0,-4,-5,2,3,-5,-4,-21,-19,-18,-16,-17
0,-4,-5,2,3,-4,-4,-21,-19,-17,-16,-17
0,-4,-4,2,3,-4,-4,-21,-19,-17,-16,-17
0,-4,-4,2,3,-4,-5,-21,-19,-17,-16,-17
0,-4,-4,2,3,-4,-5,-21,-19,-17,-16,-17
0,-4,-4,2,3,-4,-5,-22,-19,-17,-16,-17
0,-4,-5,2,3,-4,-5,-22,-19,-18,-16,-18
0,-4,-5,2,3,-5,-5,-22,-19,-18,-17,-18
0,-4,-5,2,2,-5,-5,-21,-19,-18,-17,-18
0,-4,-4,2,2,-4,-5,-21,-19,-18,-17,-18
0,-4,-4,2,2,-4,-5,-22,-19,-19,-17,-18
0,-4,-3,2,2,-4,-5,-22,-19,-19,-17,-18
0,-4,-3,2,2,-4,-5,-22,-19,-19,-17,-18
0,-4,-4,2,2,-4,-5,-22,-19,-19,-17,-18
0,-4,-4,2,2,-5,-5,-22,-19,-19,-17,-18
0,-4,-4,2,2,-5,-5,-22,-20,-19,-17,-18
0,-4,-4,2,2,-5,-5,-23,-20,-20,-18,-19
-1,-4,-3,2,2,-5,-5,-23,-20,-19,-18,-19
-1,-4,-3,3,1,-4,-5,-22,-20,-19,-17,-18
-1,-4,-3,2,1,-4,-5,-22,-19,-19,-17,-18
0,-3,-3,2,1,-4,-5,-22,-19,-19,-17,-18
0,-3,-2,2,1,-4,-5,-22,-20,-19,-17,-18
-1,-3,-2,2,0,-3,-5,-22,-20,-19,-17,-18
-1,-3,-1,2,0,-3,-5,-22,-20,-19,-17,-18
-1,-3,-1,2,0,-3,-5,-22,-20,-19,-17,-18
-1,-4,-2,2,0,-3,-5,-22,-20,-19,-17,-18
0,-4,-3,2,1,-3,-6,-22,-20,-20,-17,-18
0,-4,-3,2,1,-4,-6,-22,-20,-20,-17,-19
0,-4,-3,2,2,-4,-6,-22,-20,-20,-17,-19
0,-4,-4,2,2,-5,-6,-22,-20,-20,-17,-19
0,-4,-4,1,2,-5,-6,-22,-20,-20,-17,-19
0,-3,-3,1,2,-4,-6,-23,-20,-20,-17,-19
0,-3,-2,1,1,-3,-6,-23,-20,-19,-17,-18
0,-3,-1,1,0,-3,-5,-23,-20,-19,-17,-18
0,-3,-1,2,0,-3,-5,-23,-20,-19,-17,-18
0,-3,-2,2,1,-3,-6,-23,-20,-19,-17,-18
0,-3,-2,2,1,-4,-6,-23,-20,-19,-17,-19
0,-3,-2,1,2,-4,-6,-23,-20,-19,-17,-19
0,-3,-2,1,2,-4,-6,-23,-20,-19,-17,-19
0,-3,-3,1,2,-4,-6,-23,-20,-19,-17,-18
0,-3,-3,1,2,-3,-6,-23,-20,-19,-17,-18
1,-2,-3,0,2,-3,-6,-23,-20,-19,-17,-18
1,-2,-3,0,3,-3,-6,-23,-20,-19,-17,-18
2,-2,-3,0,3,-3,-6,-23,-20,-19,-17,-18
2,-2,-3,0,3,-3,-6,-23,-20,-19,-17,-18
1,-2,-3,0,2,-3,-6,-23,-20,-19,-17,-18
0,-2,-2,1,1,-2,-6,-23,-20,-19,-16,-18
-1,-3,-1,1,0,-2,-6,-22,-20,-18,-16,-18
-1,-3,-1,1,0,-3,-6,-22,-20,-18,-16,-18
0,-2,-2,0,1,-3,-6,-23,-20,-19,-17,-18
1,-2,-2,0,2,-2,-6,-23,-21,-19,-17,-18
1,-2,-2,0,2,-2,-6,-22,-21,-19,-17,-18
1,-2,-2,0,2,-2,-5,-22,-20,-18,-16,-18
1,-2,-2,0,2,-2,-5,-22,-20,-18,-16,-18
1,-2,-3,0,2,-2,-6,-23,-21,-19,-16,-18
2,-2,-3,0,3,-3,-6,-23,-21,-19,-16,-18
2,-2,-4,0,3,-3,-7,-23,-21,-19,-16,-19
2,-2,-4,0,3,-3,-7,-23,-21,-19,-16,-19
2,-2,-3,0,3,-3,-6,-23,-21,-18,-16,-18
1,-2,-3,0,2,-3,-6,-22,-21,-18,-16,-18
2,-2,-3,0,3,-3,-6,-23,-21,-18,-16,-18
2,-2,-3,0,3,-3,-6,-23,-21,-18,-16,-18
2,-2,-3,0,3,-3,-6,-23,-21,-18,-16,-18
0,-2,-1,1,1,-2,-5,-22,-21,-18,-15,-18
0,-1,-1,1,0,-1,-5,-22,-20,-18,-15,-17
0,-1,-1,0,1,-2,-6,-22,-20,-18,-16,-17
0,-1,-2,0,1,-2,-6,-22,-20,-19,-15,-17
0,-1,-1,1,1,-2,-5,-22,-20,-18,-15,-17
1,-1,-2,0,1,-2,-5,-22,-20,-18,-15,-17
2,-1,-3,0,2,-2,-6,-22,-21,-18,-15,-18
2,-1,-3,-1,3,-2,-6,-23,-21,-18,-15,-18
2,-1,-2,-1,2,-1,-6,-23,-21,-18,-15,-18
1,-1,-2,0,2,-1,-6,-23,-21,-18,-15,-18
1,-1,-2,0,1,-1,-6,-23,-21,-18,-15,-18
1,-1,-2,0,1,-2,-6,-23,-21,-18,-15,-18
1,-1,-2,0,2,-2,-6,-23,-21,-18,-15,-18
1,-1,-2,0,2,-1,-6,-23,-21,-18,-15,-18
1,-1,-2,0,2,-1,-6,-23,-21,-18,-15,-19
1,-1,-2,0,2,-1,-6,-23,-21,-18,-15,-19
2,-1,-3,0,3,-1,-6,-23,-21,-18,-15,-19
2,-1,-3,0,3,-1,-6,-23,-21,-18,-15,-19
2,-1,-3,0,3,-1,-6,-23,-21,-18,-15,-19
2,-1,-3,0,3,-1,-6,-23,-22,-18,-15,-19
2,-1,-3,0,3,-2,-6,-23,-22,-18,-15,-19
3,-1,-3,-1,3,-2,-7,-23,-22,-18,-15,-19
3,-1,-3,-1,3,-1,-7,-23,-21,-18,-15,-19
2,-1,-3,-1,3,-1,-7,-23,-21,-18,-15,-19
2,-1,-2,-1,3,-1,-7,-23,-22,-18,-15,-19
2,-1,-2,-1,2,-1,-7,-23,-22,-18,-15,-19
2,0,-2,-1,2,-1,-7,-23,-22,-18,-16,-20
3,0,-3,-1,3,-1,-7,-23,-22,-18,-16,-20
4,0,-3,-1,3,-1,-7,-24,-22,-18,-17,-20
4,0,-4,-1,4,-2,-7,-24,-22,-18,-17,-20
4,-1,-4,-1,4,-2,-7,-24,-23,-19,-17,-20
4,-1,-4,-1,4,-2,-7,-24,-23,-19,-17,-20
4,-1,-4,-1,4,-2,-7,-25,-23,-19,-17,-20
3,-1,-4,0,4,-2,-7,-25,-23,-19,-17,-20
3,-1,-3,0,3,-2,-7,-25,-22,-19,-16,-20
3,0,-3,-1,3,-2,-7,-25,-22,-19,-16,-20
4,0,-3,-1,3,-1,-7,-24,-22,-19,-16,-20
4,0,-3,-1,3,-1,-7,-24,-22,-18,-15,-20
4,1,-3,-2,4,0,-6,-23,-21,-18,-15,-19
5,2,-3,-3,4,0,-6,-23,-20,-17,-14,-19
4,3,-1,-3,3,1,-5,-22,-19,-16,-14,-18
4,4,0,-4,2,2,-4,-22,-18,-15,-13,-17
4,4,1,-4,1,3,-3,-21,-18,-15,-13,-17
4,5,1,-4,2,3,-2,-21,-17,-14,-13,-16
4,5,1,-4,2,3,-1,-21,-17,-14,-12,-16
4,5,1,-4,2,3,-1,-21,-16,-14,-12,-16
4,5,1,-4,2,3,0,-21,-16,-14,-12,-16
5,5,0,-5,2,3,0,-20,-16,-13,-12,-16
5,5,0,-5,3,2,0,-19,-15,-13,-12,-16
5,5,0,-5,3,2,0,-18,-15,-12,-12,-15
5,5,0,-5,3,2,0,-17,-14,-12,-12,-15
5,5,0,-5,3,2,0,-17,-14,-12,-11,-15
5,5,0,-5,3,2,0,-17,-13,-12,-11,-15
5,5,0,-5,3,2,0,-17,-13,-12,-11,-15
5,5,0,-5,3,3,-1,-17,-13,-11,-11,-14
5,5,1,-5,2,3,-2,-17,-13,-11,-11,-14
5,5,0,-5,2,3,-3,-18,-14,-12,-11,-14
5,5,0,-5,3,3,-4,-19,-15,-12,-11,-14
6,4,-1,-5,4,1,-5,-20,-16,-13,-12,-15
6,4,-2,-5,4,0,-6,-21,-17,-13,-12,-15
6,3,-3,-5,4,0,-6,-21,-17,-14,-13,-16
6,3,-3,-4,4,0,-6,-21,-17,-14,-13,-16
5,2,-3,-4,4,0,-6,-21,-17,-14,-13,-16
5,2,-3,-4,4,0,-6,-22,-18,-14,-13,-17
4,1,-3,-3,4,0,-6,-22,-18,-14,-14,-17
4,1,-3,-2,4,0,-6,-22,-19,-14,-14,-17
4,0,-4,-2,4,-1,-6,-22,-19,-15,-14,-17
5,0,-4,-2,5,-2,-6,-23,-20,-16,-15,-17
5,0,-4,-2,5,-2,-7,-23,-20,-16,-15,-17
5,0,-4,-2,4,-2,-7,-23,-20,-16,-15,-17
4,0,-4,-2,4,-2,-7,-23,-20,-16,-15,-17
4,0,-2,-2,3,-1,-7,-23,-20,-15,-15,-17
3,1,-1,-2,2,0,-6,-23,-20,-15,-14,-17
2,1,0,-2,2,0,-6,-23,-20,-14,-14,-16
2,1,0,-2,2,0,-6,-23,-20,-14,-14,-16
2,1,0,-2,2,0,-6,-24,-20,-15,-14,-17
2,1,-1,-2,2,0,-6,-24,-21,-16,-15,-17
2,1,-1,-1,2,0,-6,-24,-21,-17,-15,-18
2,0,-1,0,2,0,-6,-24,-22,-18,-16,-19
2,-1,-2,0,2,-1,-6,-25,-22,-19,-17,-19
2,-2,-3,0,2,-2,-6,-25,-23,-20,-18,-20
2,-3,-3,1,2,-3,-7,-26,-23,-21,-19,-20
2,-3,-4,1,2,-3,-7,-26,-24,-21,-19,-20
1,-4,-4,1,2,-4,-8,-27,-25,-21,-19,-21
1,-4,-4,2,2,-4,-8,-28,-25,-21,-19,-21
0,-4,-3,2,1,-4,-8,-28,-25,-21,-19,-21
-1,-5,-3,3,1,-4,-8,-28,-25,-21,-19,-21
0,-5,-4,3,2,-5,-8,-29,-26,-22,-19,-22
0,-5,-5,3,2,-5,-9,-29,-26,-22,-20,-22
-1,-5,-3,4,0,-4,-9,-29,-26,-22,-20,-22
-2,-5,-2,4,0,-4,-9,-29,-26,-22,-19,-22
-2,-5,-3,4,0,-4,-9,-29,-26,-22,-20,-22
-1,-5,-3,3,1,-4,-9,-30,-26,-22,-20,-22
-1,-5,-3,3,1,-4,-9,-30,-26,-22,-21,-22
-2,-5,-2,4,0,-4,-8,-30,-26,-22,-20,-22
-2,-5,-2,4,0,-4,-8,-30,-27,-22,-20,-23
-2,-5,-3,4,0,-4,-9,-30,-27,-23,-20,-23
-2,-5,-3,4,0,-4,-9,-30,-27,-23,-20,-23
-2,-6,-4,4,0,-4,-9,-30,-28,-23,-20,-23
-2,-6,-4,4,0,-4,-9,-31,-28,-23,-21,-24
-2,-6,-3,5,0,-4,-9,-31,-28,-23,-21,-24
-3,-6,-2,5,0,-4,-9,-31,-28,-23,-21,-24
-2,-6,-3,5,0,-4,-9,-31,-28,-24,-21,-24
-1,-6,-3,4,1,-4,-9,-31,-28,-24,-21,-24
-2,-6,-3,4,0,-4,-9,-32,-29,-24,-22,-24
-3,-6,-2,5,0,-3,-9,-31,-28,-24,-21,-24
-4,-6,-1,5,-1,-3,-9,-31,-28,-23,-21,-23
-4,-5,-1,5,-1,-3,-9,-32,-28,-23,-21,-23
-5,-4,0,5,-2,-1,-9,-33,-29,-23,-21,-23
-5,-3,2,4,-3,0,-9,-35,-29,-23,-21,-23
-5,-3,2,4,-3,0,-10,-37,-29,-22,-20,-23
-4,-3,2,4,-3,0,-11,-39,-29,-22,-20,-22
-4,-2,2,3,-3,1,-13,-42,-30,-22,-20,-22
-4,-2,2,3,-3,1,-15,-45,-30,-22,-20,-22
-4,-2,2,3,-3,0,-16,-47,-30,-22,-19,-22
-4,-2,1,3,-2,0,-18,-48,-30,-21,-19,-22
-3,-3,0,3,0,-2,-20,-50,-30,-20,-18,-21
-1,-4,-3,3,1,-4,-22,-51,-31,-19,-17,-21
0,-5,-6,3,3,-6,-25,-54,-31,-18,-15,-19
3,-5,-8,1,6,-7,-29,-56,-31,-16,-12,-16
6,-4,-10,0,8,-7,-33,-57,-30,-12,-7,-12
9,-3,-11,-3,10,-7,-37,-57,-28,-7,-2,-7
11,-1,-12,-5,12,-7,-41,-55,-25,-2,4,-2
14,1,-12,-8,13,-6,-44,-54,-23,2,10,4
17,4,-13,-10,15,-5,-47,-54,-22,6,15,9
21,7,-14,-14,17,-4,-50,-54,-23,8,19,14
25,11,-14,-17,19,-2,-51,-55,-24,9,22,18
26,13,-13,-19,20,0,-51,-55,-25,9,22,20
26,13,-13,-19,20,0,-49,-55,-28,5,19,18
25,10,-15,-17,21,-3,-45,-57,-33,-2,13,13
23,5,-18,-14,21,-6,-39,-61,-41,-12,4,6
19,0,-18,-9,19,-9,-31,-65,-49,-23,-6,-2
13,-6,-19,-3,17,-13,-22,-66,-56,-33,-17,-11
7,-14,-21,3,15,-18,-12,-65,-63,-44,-29,-22
3,-21,-25,9,15,-23,-3,-62,-69,-54,-40,-33
0,-27,-28,14,15,-27,5,-58,-71,-62,-49,-41
-1,-32,-30,17,15,-30,13,-51,-71,-66,-55,-48
-3,-35,-31,19,14,-32,19,-45,-70,-68,-58,-52
-4,-36,-30,20,13,-32,24,-38,-67,-68,-59,-54
-6,-35,-27,20,11,-30,28,-30,-62,-65,-58,-53
-8,-32,-23,20,8,-28,33,-23,-56,-62,-56,-52
-10,-30,-20,20,6,-25,37,-17,-51,-59,-54,-51
-11,-29,-17,20,4,-23,41,-11,-46,-56,-52,-51
-12,-28,-16,20,2,-22,45,-6,-41,-53,-51,-51
-13,-29,-16,21,2,-22,48,-1,-38,-51,-50,-52
-13,-30,-16,21,2,-23,50,3,-35,-49,-50,-52
-14,-31,-17,22,2,-24,52,7,-32,-47,-49,-52
-14,-32,-17,23,1,-24,54,11,-30,-46,-49,-52
-15,-34,-18,24,1,-25,58,14,-28,-46,-49,-53
-16,-35,-18,26,1,-26,61,17,-26,-45,-49,-53
-17,-36,-19,27,1,-27,65,21,-23,-44,-48,-54
-18,-37,-19,28,1,-28,68,25,-19,-41,-47,-54
-19,-38,-20,29,1,-29,71,29,-16,-39,-46,-53
-19,-39,-20,29,0,-30,72,32,-13,-37,-45,-53
-20,-40,-20,30,0,-30,74,36,-11,-36,-44,-52
-20,-41,-20,30,0,-30,76,39,-10,-35,-43,-51
-21,-41,-20,31,0,-30,78,42,-8,-34,-42,-51
-21,-41,-20,31,0,-30,80,43,-6,-32,-41,-50
-21,-42,-21,32,0,-31,82,44,-4,-31,-40,-49
-22,-42,-21,32,0,-31,82,42,-3,-30,-39,-49
-22,-43,-21,33,-1,-32,82,40,-2,-29,-39,-48
-23,-43,-20,33,-1,-32,80,37,-2,-28,-38,-48
-23,-43,-20,33,-1,-31,78,34,-2,-28,-37,-47
-23,-43,-19,33,-1,-31,75,31,-2,-27,-36,-46
-23,-42,-19,33,-1,-30,72,29,-2,-26,-35,-46
-23,-41,-18,32,-1,-29,69,27,-1,-26,-34,-45
-21,-39,-18,30,-1,-28,65,28,0,-25,-33,-44
-20,-37,-17,28,0,-27,61,30,2,-23,-32,-42
-18,-33,-16,26,-1,-24,56,33,6,-19,-29,-40
-16,-29,-13,23,-1,-21,52,37,11,-15,-26,-37
-14,-24,-11,20,-1,-17,47,42,15,-11,-23,-34
-11,-20,-9,16,0,-15,41,45,18,-9,-20,-31
-7,-17,-9,13,1,-13,36,48,21,-7,-18,-29
-6,-14,-7,11,1,-11,31,51,23,-4,-15,-27
-6,-12,-5,9,0,-9,28,53,26,-2,-13,-25
-4,-10,-5,7,0,-7,25,55,28,0,-12,-24
-3,-8,-5,6,1,-7,24,57,31,1,-11,-23
-2,-7,-6,5,1,-6,23,59,32,3,-10,-22
-1,-6,-6,4,2,-5,22,60,34,4,-8,-21
-1,-6,-5,3,2,-5,21,61,35,5,-7,-20
0,-5,-5,3,2,-5,20,62,35,6,-7,-19
0,-5,-5,2,3,-5,19,62,36,6,-6,-19
0,-4,-5,2,3,-5,18,63,36,7,-6,-19
1,-4,-5,1,3,-5,18,64,37,7,-5,-18
1,-3,-5,1,3,-5,18,65,38,8,-5,-18
0,-3,-4,1,2,-4,18,66,39,10,-4,-18
-1,-2,-2,2,0,-2,18,68,41,11,-3,-17
-2,-2,-1,2,0,-1,18,69,42,12,-2,-16
-1,-2,-1,1,0,-1,17,69,42,13,-2,-16
0,-2,-2,1,1,-2,17,70,42,13,-1,-15
0,-2,-3,0,2,-2,16,70,42,13,-1,-15
1,-2,-3,0,2,-2,16,71,43,13,-1,-15
1,-1,-3,0,2,-2,16,71,43,14,-1,-15
2,-1,-3,0,2,-2,16,72,44,14,-1,-15
2,0,-3,0,2,-1,16,72,45,15,0,-15
2,0,-2,-1,2,-1,16,73,46,16,0,-14
2,0,-2,-1,2,0,15,74,46,17,1,-14
1,1,-1,-1,1,0,15,75,47,17,2,-14
1,1,0,-1,1,0,15,76,47,18,2,-13
2,1,0,-1,1,0,16,76,48,18,2,-13
2,1,-1,-1,1,0,16,77,48,19,2,-13
3,1,-1,-1,2,0,16,77,49,19,2,-13
3,1,-1,-2,2,0,16,78,50,20,2,-12
3,2,-1,-2,2,0,16,79,51,20,3,-12
3,2,-1,-2,2,0,15,80,52,21,3,-12
3,2,-1,-3,3,0,15,80,52,22,4,-12
4,3,-1,-3,3,1,15,81,53,22,5,-12
3,3,0,-3,2,1,15,82,54,23,6,-11
2,3,1,-3,1,2,16,83,55,23,7,-10
2,3,1,-3,1,2,16,84,55,24,7,-10
3,4,1,-3,1,2,16,84,56,24,7,-10
3,4,0,-3,2,2,16,85,56,25,7,-10
4,4,0,-4,2,2,16,86,57,25,8,-10
4,4,0,-4,2,3,16,87,58,26,8,-10
4,5,1,-5,2,3,16,87,58,26,8,-10
4,6,1,-5,2,3,16,87,59,27,8,-10
5,6,0,-6,3,3,16,88,59,27,8,-10
5,6,0,-6,3,3,16,88,59,27,8,-10
5,6,1,-5,2,3,16,89,60,28,9,-9
4,6,1,-5,2,3,15,90,61,28,9,-9
5,7,1,-5,2,4,15,91,62,29,9,-9
5,7,1,-5,2,4,15,92,62,29,10,-8
5,7,2,-5,2,5,15,92,63,29,10,-8
5,8,2,-6,2,5,15,93,63,30,11,-8
5,8,2,-6,2,5,15,93,63,30,11,-7
7,8,1,-7,3,5,15,94,64,31,11,-7
8,8,0,-8,4,4,15,94,64,31,11,-7
9,9,0,-9,5,4,14,95,65,31,11,-7
9,9,0,-9,4,5,13,95,65,31,11,-7
8,10,2,-9,3,6,13,95,65,32,11,-7
7,11,3,-9,2,7,13,96,66,33,12,-7
6,11,4,-8,2,7,13,97,67,34,13,-6
6,11,4,-8,1,7,13,97,67,34,13,-6
7,11,4,-9,1,7,13,98,67,35,14,-6
7,11,4,-9,1,8,13,98,67,35,14,-6
7,12,4,-9,1,8,13,99,68,35,14,-5
7,12,4,-9,2,9,12,99,68,35,14,-4
8,13,4,-10,2,9,12,99,68,35,14,-4
8,13,4,-10,2,9,11,99,69,35,14,-4
9,13,4,-11,3,9,11,99,69,36,14,-4
9,14,4,-11,3,9,11,99,69,36,15,-3
10,14,5,-12,3,9,10,99,69,36,15,-3
10,15,5,-12,3,10,10,99,69,36,16,-3
9,15,6,-12,3,10,9,99,69,36,16,-2
9,15,6,-12,2,11,8,98,69,37,17,-2
9,15,6,-12,2,11,7,98,69,37,18,-1
9,15,6,-12,2,11,6,97,69,38,18,0
10,16,6,-13,2,11,5,97,69,38,19,0
10,17,6,-14,2,12,4,96,69,39,19,0
11,18,6,-14,3,12,3,95,69,39,20,0
11,19,6,-15,3,13,2,94,68,38,20,0
12,19,7,-15,3,13,1,93,66,37,19,0
12,20,7,-15,3,14,0,93,65,36,19,0
13,20,7,-15,3,14,0,92,65,35,18,0
13,20,6,-16,4,14,-1,91,64,35,18,0
13,21,7,-16,3,14,-2,90,64,34,18,1
12,21,9,-16,2,15,-2,89,64,34,18,2
11,21,10,-16,1,16,-3,88,63,34,19,3
11,21,10,-16,2,16,-4,87,63,34,20,4
12,22,10,-16,2,16,-6,85,62,34,20,4
12,22,9,-17,2,16,-7,84,61,35,20,5
13,23,9,-17,2,16,-8,82,60,35,21,6
13,23,9,-18,2,16,-10,81,59,35,22,6
14,24,9,-18,2,17,-11,79,58,34,22,7
14,24,9,-19,2,17,-13,76,57,34,22,7
14,25,10,-20,3,18,-14,74,55,33,22,8
15,26,10,-20,3,18,-15,72,54,33,22,9
15,27,11,-21,3,19,-16,70,53,33,22,9
16,28,12,-21,2,20,-18,68,52,34,23,10
16,29,13,-22,2,21,-19,66,51,34,23,11
17,30,13,-22,3,21,-21,63,50,33,24,12
17,30,13,-23,3,21,-23,61,48,32,24,12
17,31,13,-24,3,21,-24,58,47,32,24,13
17,31,13,-24,2,22,-25,56,46,32,25,14
17,32,14,-24,2,23,-27,53,45,31,25,14
17,32,15,-24,1,24,-28,51,43,31,25,15
17,32,15,-24,1,24,-30,48,41,31,25,15
17,33,15,-24,1,24,-31,45,40,30,25,16
17,33,16,-24,1,24,-32,43,38,30,25,16
16,33,16,-24,0,25,-33,40,36,29,25,17
16,33,17,-24,0,25,-34,38,35,29,25,17
15,33,17,-24,0,25,-35,35,33,28,25,17
16,33,16,-24,0,24,-36,32,30,26,25,17
17,33,15,-25,1,24,-37,29,28,25,24,17
18,33,14,-25,2,24,-38,25,25,24,24,17
18,33,14,-25,2,24,-39,22,23,22,23,17
17,32,14,-24,2,24,-40,20,21,21,22,16
17,32,14,-24,2,23,-41,17,19,20,21,15
17,31,14,-24,2,22,-41,15,17,18,20,14
17,30,12,-23,2,21,-42,13,15,16,19,14
17,29,11,-23,3,20,-42,11,13,14,17,13
16,28,10,-22,3,19,-42,9,11,12,16,13
15,27,11,-21,2,19,-42,7,10,11,15,12
14,26,11,-20,2,19,-42,5,8,10,15,12
14,25,11,-19,2,19,-42,3,7,9,14,11
14,25,11,-18,2,18,-43,1,4,7,12,10
14,25,11,-18,2,18,-43,-1,2,6,11,9
13,24,10,-18,2,17,-43,-3,0,4,9,8
13,24,10,-18,2,17,-42,-5,-1,3,8,7
12,23,10,-17,2,16,-42,-6,-3,2,7,6
12,21,9,-16,2,15,-41,-8,-4,1,6,5
12,20,8,-16,2,14,-41,-9,-6,0,5,4
12,19,7,-15,2,14,-41,-11,-7,-2,4,3
11,18,7,-14,2,13,-40,-12,-9,-3,2,2
11,17,6,-13,2,12,-39,-14,-10,-4,1,1
10,17,6,-12,2,12,-39,-15,-11,-5,0,0
10,16,5,-12,2,11,-38,-17,-13,-7,-1,0
10,15,4,-11,3,9,-37,-18,-14,-8,-2,-1
9,14,4,-11,2,9,-37,-19,-15,-10,-3,-2
8,14,5,-10,1,9,-36,-20,-16,-10,-3,-2
7,13,5,-10,1,9,-35,-20,-16,-10,-3,-2
7,12,5,-9,1,9,-34,-21,-17,-11,-3,-3
7,11,4,-8,1,8,-33,-22,-18,-12,-4,-3
6,10,4,-7,1,8,-32,-23,-18,-13,-5,-4
6,10,3,-7,1,7,-31,-24,-19,-14,-6,-5
6,10,3,-7,1,7,-30,-25,-20,-15,-7,-5
5,9,3,-6,1,6,-29,-26,-21,-15,-8,-6
4,8,3,-5,0,6,-29,-27,-21,-16,-8,-6
2,7,4,-4,-1,6,-28,-27,-22,-16,-8,-6
1,6,4,-3,-1,5,-27,-28,-22,-16,-8,-7
1,5,4,-2,-1,5,-26,-28,-22,-16,-8,-7
0,5,4,-1,-2,5,-24,-28,-22,-17,-9,-8
-1,4,6,0,-3,5,-23,-28,-22,-17,-9,-8
-2,4,6,0,-4,5,-22,-29,-23,-17,-9,-8
-2,4,6,0,-4,5,-21,-30,-23,-17,-10,-9
-1,3,4,0,-3,4,-20,-31,-24,-18,-11,-9
-1,3,3,0,-2,4,-20,-31,-25,-19,-12,-9
-1,3,4,0,-3,4,-19,-31,-25,-19,-12,-9
-2,3,4,1,-3,3,-18,-31,-25,-20,-12,-9
-2,2,4,1,-3,3,-17,-32,-26,-20,-12,-10
-2,2,4,1,-3,3,-15,-32,-26,-20,-12,-10
-3,2,4,1,-3,3,-14,-32,-26,-19,-12,-10
-3,1,4,2,-4,3,-13,-32,-26,-19,-12,-10
-4,1,4,2,-4,3,-12,-32,-26,-19,-11,-10
-4,1,4,2,-4,2,-12,-32,-26,-18,-11,-10
-4,0,4,2,-4,2,-11,-32,-26,-18,-11,-10
-4,0,4,3,-4,2,-11,-32,-26,-18,-11,-10
-4,0,4,3,-4,2,-10,-32,-26,-19,-12,-10
-4,0,4,3,-4,2,-10,-32,-26,-19,-12,-10
-4,0,4,3,-4,2,-9,-32,-26,-20,-12,-11
-5,0,4,3,-4,2,-8,-32,-26,-20,-13,-11
-5,-1,3,4,-4,1,-8,-32,-26,-20,-13,-11
-5,-1,3,4,-4,1,-7,-33,-26,-21,-13,-12
-5,-1,3,4,-4,1,-7,-33,-26,-21,-14,-12
-5,-1,3,4,-4,1,-7,-33,-26,-21,-14,-12
-4,-1,2,4,-3,0,-7,-33,-26,-21,-14,-12
-3,-1,1,4,-2,0,-7,-33,-26,-21,-14,-13
-4,-1,2,3,-3,0,-7,-33,-26,-20,-14,-13
-5,0,4,4,-5,1,-6,-32,-26,-20,-14,-12
-6,0,5,4,-6,2,-5,-32,-26,-20,-13,-12
-6,0,5,4,-6,2,-4,-32,-26,-20,-13,-11
-6,-1,5,4,-5,2,-4,-32,-26,-21,-13,-11
-6,-1,4,4,-5,1,-4,-32,-26,-21,-13,-11
-6,-1,4,4,-5,1,-4,-32,-25,-21,-13,-11
-6,-1,4,4,-5,1,-4,-32,-25,-20,-13,-11
-5,-1,3,4,-4,0,-4,-32,-25,-20,-13,-11
-5,-1,3,4,-4,0,-4,-33,-26,-20,-13,-11
-5,-1,4,4,-4,1,-4,-33,-26,-20,-13,-11
-4,0,3,4,-4,1,-4,-33,-26,-20,-13,-11
-4,0,3,3,-3,1,-4,-33,-26,-20,-13,-11
-4,0,3,3,-3,1,-4,-33,-26,-20,-13,-11
-5,0,4,3,-4,2,-4,-33,-26,-20,-13,-11
-6,0,4,4,-4,2,-4,-33,-26,-20,-13,-11
-6,0,5,4,-5,2,-4,-33,-26,-20,-13,-11
-6,0,5,4,-5,2,-4,-33,-26,-20,-13,-12
-6,0,5,4,-6,2,-3,-33,-25,-20,-13,-12
-6,0,5,4,-6,2,-3,-33,-25,-20,-13,-12
-5,0,5,3,-5,2,-3,-33,-25,-20,-13,-11
-5,0,4,3,-5,2,-3,-33,-25,-20,-13,-11
-4,0,4,3,-4,2,-3,-33,-25,-19,-13,-11
-4,0,4,3,-4,2,-3,-33,-25,-19,-13,-11
-4,0,4,3,-4,2,-3,-33,-25,-18,-12,-11
-3,0,4,3,-3,2,-3,-33,-25,-18,-12,-11
-3,0,4,2,-3,2,-3,-33,-25,-18,-12,-11
-3,1,4,2,-4,2,-3,-33,-25,-19,-12,-11
-3,1,5,2,-4,3,-3,-33,-25,-19,-12,-11
-4,1,5,2,-4,3,-2,-33,-25,-19,-12,-10
-5,1,7,2,-5,4,-2,-33,-25,-19,-12,-10
-6,1,7,2,-5,4,-2,-33,-25,-19,-12,-9
-5,1,6,2,-4,3,-2,-32,-25,-19,-12,-9
-4,1,5,2,-4,3,-2,-32,-24,-19,-12,-10
-4,1,4,1,-3,2,-2,-32,-24,-19,-12,-10
-4,2,4,1,-3,3,-2,-32,-24,-18,-11,-10
-4,2,5,1,-3,3,-2,-33,-24,-18,-11,-10
-3,2,5,1,-3,4,-3,-33,-24,-17,-11,-10
-3,3,5,1,-3,4,-3,-33,-24,-17,-12,-10
-3,3,5,1,-3,4,-3,-32,-24,-18,-12,-10
-4,2,5,1,-3,4,-3,-32,-24,-18,-12,-10
-4,2,5,2,-3,3,-2,-32,-24,-19,-12,-10
-4,2,5,2,-3,3,-2,-32,-24,-19,-12,-10
-4,2,5,2,-4,3,-1,-32,-24,-19,-12,-10
-4,1,5,2,-4,3,-1,-31,-23,-19,-11,-10
-4,1,4,2,-4,3,-1,-31,-23,-18,-11,-10
-4,1,4,2,-4,2,-1,-31,-23,-18,-11,-10
-4,1,4,2,-4,2,-1,-31,-22,-17,-11,-10
-4,1,4,2,-3,2,-2,-31,-22,-17,-10,-10
-4,1,4,2,-3,2,-2,-31,-22,-17,-10,-10
-4,1,5,2,-3,3,-2,-31,-22,-18,-11,-10
-4,1,5,2,-3,3,-2,-31,-22,-18,-11,-10
-3,1,4,2,-3,2,-2,-31,-22,-18,-12,-10
-2,1,3,2,-2,2,-2,-31,-22,-18,-12,-10
-1,1,2,1,-2,1,-2,-31,-22,-18,-12,-10
0,1,2,1,-1,1,-2,-31,-22,-18,-11,-10
0,1,2,0,-1,2,-2,-31,-22,-18,-11,-10
-1,1,3,0,-2,2,-2,-31,-22,-17,-11,-10
-2,1,4,1,-3,2,-2,-31,-22,-17,-11,-10
-3,2,4,1,-4,2,-2,-30,-22,-17,-11,-10
-3,2,5,1,-4,2,-2,-30,-22,-17,-11,-10
-4,2,5,2,-5,3,-1,-29,-21,-17,-11,-9
-4,2,6,2,-5,3,-1,-29,-22,-17,-11,-9
-3,1,5,1,-4,3,-1,-29,-22,-17,-11,-9
-2,1,3,1,-3,2,-1,-29,-22,-18,-11,-9
-2,1,3,1,-2,2,-2,-30,-22,-18,-11,-9
-1,1,2,1,-2,2,-2,-30,-22,-17,-11,-9
-1,2,2,0,-2,2,-2,-30,-22,-17,-10,-9
0,3,3,0,-2,2,-2,-30,-22,-16,-10,-9
0,3,3,-1,-2,3,-2,-30,-22,-16,-10,-9
0,3,4,-1,-2,3,-2,-30,-22,-16,-10,-10
-1,3,4,-1,-2,3,-2,-30,-22,-16,-10,-10
-1,3,4,-1,-2,3,-2,-30,-22,-16,-10,-10
-1,3,5,0,-3,3,-2,-30,-22,-15,-9,-9
-2,4,6,0,-3,4,-1,-30,-21,-14,-9,-9
-2,4,6,0,-3,4,-1,-30,-21,-14,-9,-8
-2,3,5,0,-3,3,-2,-31,-22,-14,-9,-8
-1,2,3,0,-2,2,-2,-31,-22,-14,-10,-9
-2,2,3,0,-2,2,-2,-31,-23,-15,-10,-9
-3,1,4,1,-4,2,-1,-31,-22,-16,-9,-8
-4,1,5,2,-4,2,-1,-30,-22,-16,-9,-8
-3,1,4,1,-4,2,-1,-30,-22,-16,-10,-9
-3,1,4,1,-3,2,-1,-30,-22,-17,-10,-9
-3,1,4,2,-4,2,-1,-30,-22,-17,-11,-9
-4,0,5,2,-5,2,-1,-30,-21,-17,-11,-9
-4,0,5,2,-4,2,-1,-31,-21,-17,-11,-9
-3,0,3,2,-3,1,-2,-32,-22,-17,-11,-9
-2,0,2,1,-2,0,-3,-32,-22,-17,-11,-9
-3,0,2,2,-2,1,-4,-32,-22,-16,-11,-9
-4,0,3,2,-3,1,-4,-32,-22,-16,-11,-9
-4,-1,3,3,-3,1,-4,-33,-23,-16,-11,-10
-4,-1,3,3,-3,0,-5,-33,-23,-16,-12,-10
-4,-1,2,3,-3,0,-5,-33,-23,-16,-12,-10
-4,-1,2,3,-3,0,-4,-32,-23,-16,-12,-10
-5,-2,3,4,-4,0,-4,-32,-23,-16,-11,-9
-6,-2,3,4,-5,0,-5,-33,-23,-16,-11,-9
-6,-2,3,4,-5,0,-5,-33,-23,-16,-11,-9
-6,-2,4,5,-5,0,-5,-33,-23,-15,-11,-9
-7,-3,4,5,-5,0,-5,-33,-23,-15,-11,-9
-8,-4,4,6,-6,0,-4,-33,-23,-14,-11,-10
-8,-4,5,6,-6,0,-4,-33,-23,-14,-10,-10
-9,-4,5,6,-6,0,-5,-33,-23,-14,-10,-10
-9,-4,4,7,-6,-1,-5,-33,-23,-15,-10,-11
-9,-5,4,7,-6,-1,-5,-34,-23,-15,-11,-11
-9,-6,3,8,-6,-2,-5,-34,-23,-15,-11,-10
-10,-7,3,8,-6,-2,-5,-34,-23,-15,-11,-10
-10,-8,3,9,-6,-3,-5,-34,-23,-15,-11,-10
-10,-8,2,9,-6,-3,-5,-35,-24,-16,-12,-10
-10,-8,3,10,-6,-3,-6,-35,-24,-16,-13,-10
-11,-8,4,10,-7,-2,-6,-35,-24,-16,-13,-10
-11,-7,4,10,-8,-2,-6,-35,-24,-16,-13,-10
-12,-7,4,10,-8,-2,-6,-34,-24,-16,-13,-10
-12,-8,4,10,-8,-3,-6,-34,-24,-16,-13,-10
-12,-8,3,10,-8,-3,-6,-34,-24,-15,-12,-10
-12,-9,3,10,-8,-3,-6,-34,-24,-15,-12,-10
-12,-9,3,11,-8,-3,-6,-34,-24,-14,-11,-10
-12,-9,3,11,-8,-3,-6,-34,-24,-14,-11,-10
-12,-9,3,12,-7,-3,-6,-34,-24,-14,-11,-11
-12,-9,3,12,-7,-3,-7,-34,-24,-14,-11,-11
-12,-10,3,11,-7,-4,-7,-34,-23,-14,-11,-11
-12,-10,3,11,-7,-4,-7,-34,-23,-14,-11,-11
-13,-10,3,11,-7,-4,-7,-34,-23,-14,-11,-10
-13,-9,4,11,-8,-3,-7,-34,-23,-14,-11,-11
-13,-9,5,11,-8,-2,-7,-34,-23,-15,-12,-11
-13,-9,5,11,-8,-2,-7,-34,-23,-15,-12,-12
-13,-8,5,11,-8,-2,-7,-34,-23,-15,-12,-12
-12,-8,5,11,-8,-2,-7,-34,-23,-15,-12,-12
-12,-8,5,10,-8,-2,-7,-34,-23,-15,-12,-12
-11,-8,5,9,-8,-2,-7,-34,-23,-14,-11,-11
-11,-7,5,9,-7,-2,-6,-34,-23,-14,-11,-11
-11,-7,5,9,-7,-2,-6,-34,-23,-13,-10,-10
-11,-7,4,9,-7,-2,-6,-34,-23,-12,-10,-11
-10,-7,3,9,-6,-2,-6,-34,-23,-12,-10,-11
-9,-7,3,9,-5,-2,-6,-34,-23,-12,-10,-11
-9,-8,3,9,-5,-2,-6,-34,-23,-12,-10,-11
-10,-8,2,9,-5,-3,-6,-34,-23,-12,-10,-11
-10,-8,2,9,-5,-3,-6,-34,-23,-13,-11,-11
-9,-8,2,8,-5,-3,-6,-34,-23,-13,-11,-12
-9,-7,2,8,-4,-3,-6,-33,-23,-14,-12,-12
-10,-7,3,8,-5,-2,-6,-33,-22,-13,-11,-11
-11,-7,4,9,-6,-1,-5,-32,-22,-13,-11,-11
-11,-7,4,9,-7,-1,-5,-32,-22,-13,-10,-10
-10,-7,4,8,-6,-1,-5,-32,-22,-13,-10,-10
-9,-6,3,8,-6,-2,-6,-32,-22,-13,-10,-11
-8,-6,3,7,-5,-2,-6,-33,-22,-12,-10,-11
-7,-6,2,7,-5,-2,-6,-33,-22,-12,-10,-11
-7,-5,2,6,-5,-2,-6,-32,-22,-12,-10,-10
-7,-5,2,6,-5,-2,-6,-32,-22,-11,-10,-10
-7,-5,2,6,-4,-2,-6,-33,-23,-11,-11,-10
-7,-4,3,5,-4,-1,-7,-33,-23,-12,-11,-10
-7,-3,4,5,-5,0,-7,-33,-22,-12,-11,-10
-7,-3,4,5,-5,0,-6,-33,-22,-11,-10,-9
-7,-3,4,5,-5,0,-6,-33,-22,-11,-10,-9
-7,-3,4,5,-5,0,-6,-32,-22,-11,-10,-9
-7,-3,4,5,-5,0,-5,-32,-22,-12,-10,-10
-7,-3,4,5,-5,0,-5,-32,-22,-12,-10,-10
-6,-3,3,5,-4,0,-6,-33,-23,-13,-10,-10
-6,-3,2,5,-4,-1,-6,-33,-23,-13,-10,-10
-6,-4,2,5,-4,-1,-6,-32,-23,-12,-9,-10
-6,-4,3,5,-4,-1,-6,-32,-22,-12,-9,-9
-6,-4,3,5,-4,0,-6,-32,-22,-12,-9,-9
-6,-4,3,5,-4,0,-6,-32,-22,-12,-9,-10
-6,-4,3,5,-4,0,-5,-32,-22,-13,-10,-10
-6,-3,3,4,-4,0,-5,-31,-22,-13,-10,-9
-5,-3,3,4,-4,0,-4,-30,-21,-12,-9,-9
-5,-2,4,3,-4,0,-3,-30,-20,-12,-9,-9
-5,-1,4,3,-4,1,-2,-29,-20,-11,-8,-9
-5,0,5,2,-4,3,-2,-29,-19,-11,-8,-8
-4,2,6,1,-4,4,-1,-29,-19,-10,-7,-8
-4,3,7,0,-5,5,-1,-28,-18,-9,-7,-7
-4,4,8,0,-5,6,0,-28,-17,-8,-6,-7
-4,5,9,0,-6,7,0,-27,-17,-7,-6,-6
-5,5,10,0,-7,7,0,-26,-16,-7,-6,-5
-5,4,10,0,-7,7,1,-26,-15,-7,-5,-5
-4,4,9,0,-6,6,2,-25,-15,-7,-5,-4
-3,4,8,0,-5,6,2,-25,-15,-7,-4,-4
-3,4,7,0,-4,5,2,-24,-14,-6,-4,-4
-3,4,8,0,-5,6,3,-23,-13,-5,-3,-4
-4,4,9,0,-6,6,3,-23,-13,-4,-3,-3
-4,4,9,0,-5,6,2,-23,-13,-5,-2,-3
-3,5,8,-1,-4,6,1,-23,-13,-5,-2,-3
-2,5,7,-2,-4,5,1,-23,-13,-5,-2,-3
-1,5,6,-2,-3,5,0,-24,-13,-5,-2,-3
0,5,6,-2,-3,5,-1,-25,-14,-5,-2,-3
-1,5,6,-2,-3,6,-3,-26,-14,-5,-3,-3
-2,5,7,-1,-4,6,-4,-26,-15,-5,-3,-3
-2,5,7,-1,-4,6,-4,-26,-16,-6,-3,-3
-1,5,6,-2,-3,5,-4,-27,-16,-7,-4,-4
0,4,5,-2,-2,5,-4,-27,-17,-8,-4,-4
0,4,5,-2,-2,4,-4,-28,-17,-9,-5,-5
0,3,5,-1,-2,4,-4,-28,-18,-10,-5,-5
-1,2,4,0,-2,4,-4,-28,-18,-10,-6,-6
-2,2,5,0,-3,4,-4,-29,-19,-10,-6,-6
-3,3,6,0,-4,4,-4,-29,-19,-10,-6,-6
-3,3,6,0,-4,4,-5,-29,-20,-10,-7,-6
-3,3,6,0,-4,4,-5,-29,-20,-10,-7,-6
-2,3,6,0,-4,4,-5,-29,-20,-9,-7,-5
-2,3,6,0,-4,4,-5,-29,-19,-9,-6,-5
-3,3,7,0,-5,5,-4,-29,-19,-9,-6,-5
-3,3,7,0,-5,5,-4,-29,-19,-9,-6,-5
-3,3,7,0,-4,5,-4,-29,-19,-9,-6,-4
-3,3,7,0,-4,5,-4,-29,-18,-9,-6,-4
-4,3,8,1,-5,5,-3,-29,-18,-9,-6,-4
-5,2,8,2,-6,5,-4,-29,-19,-9,-6,-5
-5,1,7,3,-6,4,-4,-30,-21,-10,-7,-6
-4,1,6,3,-5,3,-5,-31,-22,-11,-8,-7
-4,0,5,3,-4,2,-5,-31,-22,-12,-9,-7
-3,0,4,3,-3,2,-5,-32,-23,-13,-9,-8
-3,0,4,3,-3,2,-5,-32,-23,-14,-10,-8
-4,0,4,3,-3,2,-5,-32,-24,-15,-11,-9
-4,0,4,3,-3,2,-5,-33,-24,-16,-12,-9
-4,0,4,3,-3,2,-6,-33,-25,-16,-12,-9
-5,-1,3,3,-3,1,-6,-34,-25,-16,-11,-9
-5,-1,3,4,-4,1,-6,-34,-25,-16,-11,-9
-5,-1,3,4,-4,1,-6,-34,-25,-15,-11,-9
-5,-1,3,3,-4,1,-6,-34,-25,-15,-10,-9
-4,0,4,3,-4,1,-6,-34,-25,-15,-10,-9
-4,0,4,2,-3,1,-6,-34,-25,-14,-10,-9
-3,0,3,2,-3,1,-6,-34,-25,-14,-11,-9
-2,0,3,1,-2,1,-6,-34,-26,-14,-11,-8
-3,0,4,1,-2,2,-6,-33,-25,-14,-11,-8
-3,0,4,1,-3,2,-5,-33,-25,-14,-11,-8
-3,0,5,1,-3,3,-5,-33,-25,-15,-11,-8
-3,1,5,1,-3,3,-5,-33,-25,-15,-11,-8
-2,1,4,1,-3,2,-5,-33,-25,-16,-11,-8
-2,1,3,1,-3,2,-5,-33,-25,-16,-11,-8
-2,0,3,1,-3,2,-5,-33,-25,-16,-11,-8
-2,0,3,1,-3,2,-5,-33,-26,-17,-11,-8
-2,1,3,0,-2,2,-6,-34,-26,-18,-11,-9
-1,2,3,0,-2,3,-6,-34,-27,-18,-11,-9
-1,2,3,0,-2,3,-6,-34,-27,-18,-11,-9
-2,2,3,0,-3,3,-7,-34,-27,-18,-11,-9
-2,1,4,1,-3,2,-7,-34,-27,-18,-11,-9
-2,1,4,1,-3,2,-7,-34,-27,-18,-11,-9
-3,0,4,2,-4,2,-7,-34,-26,-18,-11,-9
-4,0,5,3,-5,3,-7,-34,-26,-17,-11,-9
-5,0,5,3,-5,2,-7,-35,-26,-17,-11,-9
-5,-1,5,3,-4,2,-7,-36,-27,-17,-11,-9
-5,0,5,3,-5,2,-6,-37,-27,-17,-10,-8
-5,0,7,3,-6,4,-6,-38,-26,-15,-9,-7
-6,1,9,2,-7,5,-6,-39,-26,-14,-8,-7
-6,2,10,2,-8,6,-7,-41,-27,-14,-7,-6
-7,2,11,2,-8,7,-8,-44,-27,-13,-7,-5
-8,3,11,2,-9,7,-9,-47,-27,-13,-6,-4
-8,2,11,2,-8,7,-11,-49,-27,-12,-6,-4
-7,2,9,2,-8,6,-13,-51,-27,-12,-6,-4
-7,1,7,3,-7,4,-16,-52,-28,-12,-6,-4
-6,0,6,3,-6,3,-18,-55,-29,-12,-5,-3
-5,0,4,3,-4,2,-21,-58,-31,-12,-5,-2
-3,-1,2,2,-2,1,-25,-61,-31,-9,-3,0
0,-1,0,1,1,0,-29,-63,-31,-5,1,3
2,0,-2,0,3,-1,-32,-64,-29,0,6,8
5,1,-3,-2,5,0,-36,-64,-27,4,13,14
8,3,-4,-5,7,0,-40,-63,-25,8,19,20
11,5,-5,-8,9,0,-44,-63,-25,11,24,25
13,6,-6,-10,10,0,-47,-63,-26,12,28,30
15,8,-6,-12,11,1,-49,-64,-27,13,31,34
17,10,-6,-14,12,2,-49,-64,-29,12,32,37
18,10,-8,-14,14,1,-47,-63,-33,9,30,35
18,5,-12,-11,15,-3,-44,-64,-39,1,22,30
15,0,-15,-7,16,-7,-38,-66,-46,-10,12,21
11,-5,-17,-3,15,-11,-31,-68,-53,-21,1,12
7,-10,-18,1,13,-14,-23,-69,-60,-31,-10,3
3,-16,-20,6,12,-18,-14,-69,-66,-42,-22,-7
-1,-23,-22,12,11,-23,-5,-66,-72,-51,-33,-18
-5,-30,-25,17,11,-27,3,-62,-75,-59,-43,-27
-8,-34,-27,21,10,-31,11,-56,-75,-64,-50,-34
-9,-37,-28,23,10,-33,18,-50,-74,-66,-54,-39
-9,-38,-28,24,10,-33,24,-43,-72,-67,-56,-42
-10,-37,-26,23,8,-32,28,-36,-68,-65,-55,-43
-12,-34,-21,22,5,-28,33,-28,-61,-60,-52,-41
-13,-30,-15,21,1,-23,37,-21,-53,-55,-48,-38
-13,-26,-12,19,0,-19,41,-15,-46,-50,-45,-36
-13,-23,-10,18,-1,-17,45,-9,-41,-47,-43,-35
-14,-22,-8,18,-2,-15,49,-4,-36,-45,-41,-35
-15,-22,-7,18,-3,-15,52,0,-33,-44,-40,-35
-14,-22,-7,18,-3,-15,55,5,-30,-42,-39,-35
-14,-22,-8,18,-2,-16,57,9,-27,-41,-38,-35
-14,-24,-9,19,-2,-17,60,13,-24,-39,-38,-35
-16,-26,-9,21,-3,-18,64,17,-20,-37,-37,-35
-18,-27,-9,22,-3,-19,67,20,-17,-35,-37,-35
-20,-30,-10,24,-4,-20,70,24,-13,-33,-36,-35
-21,-32,-11,26,-4,-21,73,27,-10,-31,-35,-34
-22,-33,-12,27,-4,-23,75,31,-8,-29,-34,-34
-22,-35,-12,28,-4,-24,77,33,-7,-28,-33,-33
-23,-36,-13,29,-4,-25,79,36,-5,-26,-31,-32
-24,-36,-13,29,-5,-25,81,40,-4,-25,-30,-31
-24,-36,-12,30,-5,-24,83,43,-2,-25,-29,-30
-24,-36,-12,30,-5,-23,84,45,1,-23,-27,-29
-24,-35,-11,29,-5,-23,85,45,4,-20,-26,-28
-24,-34,-11,29,-6,-22,85,43,5,-18,-25,-27
-24,-34,-10,29,-7,-22,84,40,6,-17,-25,-26
-25,-34,-9,29,-8,-22,83,37,5,-17,-24,-26
-25,-34,-8,29,-8,-21,80,33,5,-17,-23,-25
-25,-33,-8,29,-8,-21,77,29,4,-16,-22,-25
-25,-33,-7,29,-9,-20,74,26,5,-16,-21,-24
-26,-33,-6,29,-10,-20,71,25,6,-14,-19,-22
-27,-32,-5,29,-10,-19,67,25,8,-12,-18,-21
-25,-30,-5,27,-9,-18,62,27,10,-10,-17,-20
-22,-27,-5,24,-8,-16,57,29,13,-7,-14,-19
-19,-24,-4,21,-8,-14,52,32,17,-3,-11,-16
-17,-20,-2,19,-7,-11,46,36,20,0,-8,-13
-15,-16,-1,16,-7,-8,41,39,23,4,-5,-10
-13,-13,0,13,-6,-6,36,42,26,6,-2,-8
-11,-10,0,11,-6,-5,31,44,29,8,0,-6
-10,-8,1,9,-5,-3,27,46,31,9,1,-4
-9,-7,2,7,-6,-2,24,48,33,10,2,-3
-9,-5,4,6,-6,0,22,50,35,11,3,-2
-8,-3,5,5,-6,1,21,52,37,13,4,-1
-8,-1,5,4,-6,2,20,53,38,14,5,0
-7,0,6,4,-6,2,19,54,39,15,6,0
-7,0,6,3,-6,3,19,55,40,16,7,1
-7,0,6,3,-6,3,18,56,41,18,8,1
-6,0,6,3,-6,3,18,56,42,19,8,2
-6,0,6,3,-6,3,17,57,43,19,9,2
-5,0,7,2,-6,3,17,57,44,20,9,2
-6,0,7,2,-6,4,16,58,44,20,10,3
-5,1,7,2,-6,4,16,58,45,21,11,3
-4,2,7,1,-6,4,16,59,45,21,12,4
-4,2,7,1,-6,5,16,60,46,22,12,5
-5,2,8,1,-6,5,15,61,46,22,13,6
-5,2,8,1,-6,5,15,61,47,23,13,6
-5,2,8,0,-6,5,14,61,47,23,13,5
-5,3,8,0,-6,6,14,62,48,24,13,5
-4,4,8,0,-6,6,14,62,48,25,13,5
-4,4,8,0,-6,6,14,62,49,26,13,5
-4,4,8,0,-6,6,14,63,50,27,14,6
-4,4,8,-1,-6,6,14,64,51,27,14,6
-3,4,8,-1,-6,6,14,65,51,26,14,7
-3,4,8,-1,-6,6,14,66,51,26,14,7
-3,5,8,-1,-6,6,14,67,52,26,15,7
-3,5,8,-1,-6,6,14,67,53,27,16,8
-3,5,9,-1,-6,7,15,68,54,29,16,8
-4,5,9,-1,-6,7,15,68,55,30,17,9
-4,5,9,-1,-6,7,15,69,55,31,17,9
-3,5,9,-1,-6,7,15,69,56,32,17,9
-3,6,9,-2,-6,7,15,70,56,32,18,9
-2,6,9,-2,-5,7,15,70,56,32,18,10
-2,6,8,-2,-5,7,15,71,57,33,18,10
-2,7,8,-2,-6,8,16,72,58,34,19,11
-2,7,9,-2,-6,8,16,73,60,35,20,11
-2,7,9,-2,-6,9,16,74,61,35,21,12
-2,7,9,-3,-6,9,16,74,61,35,21,12
-1,8,9,-4,-5,9,16,75,61,34,21,12
0,9,9,-5,-5,9,15,75,62,34,21,12
0,10,9,-5,-5,9,15,76,63,35,22,13
1,11,10,-6,-5,10,15,77,64,36,23,14
1,12,10,-6,-5,11,15,78,65,37,23,14
1,12,11,-7,-5,11,15,79,66,37,24,14
2,13,11,-7,-5,12,15,79,66,38,24,14
2,13,11,-7,-5,12,15,80,67,40,25,15
2,14,11,-8,-5,13,15,80,68,41,26,16
2,14,12,-9,-5,13,15,81,68,42,27,16
2,14,12,-9,-5,13,15,81,69,43,28,17
2,15,12,-9,-5,13,14,82,69,43,29,17
2,16,12,-9,-5,14,14,82,70,43,29,17
3,17,13,-10,-5,15,14,83,71,44,30,18
3,18,13,-11,-5,15,15,83,72,46,31,18
4,18,13,-11,-5,16,15,84,72,48,32,19
4,18,13,-11,-5,16,15,84,73,49,33,19
5,18,13,-12,-5,16,15,84,73,50,33,19
5,18,13,-12,-4,16,14,84,73,51,34,20
5,19,13,-13,-4,16,13,84,73,50,34,21
5,19,14,-13,-4,17,12,85,74,48,34,21
6,20,14,-13,-4,17,11,85,74,47,34,22
7,21,14,-14,-4,17,11,85,75,46,33,22
7,21,14,-14,-3,17,10,85,75,46,33,22
8,22,14,-16,-3,18,10,85,75,47,32,22
9,23,14,-16,-3,19,10,85,76,48,33,23
8,24,16,-16,-5,20,10,86,77,50,34,24
7,25,18,-17,-6,21,9,87,78,51,36,25
8,26,18,-18,-5,22,9,86,78,52,37,26
9,27,18,-19,-4,22,8,86,78,53,38,27
10,28,18,-19,-4,23,7,86,78,53,38,27
10,28,18,-19,-4,23,7,85,77,54,39,28
10,29,17,-20,-4,23,6,85,77,54,39,29
12,29,17,-21,-3,23,5,84,76,53,39,29
13,30,17,-22,-2,23,4,84,76,51,39,30
13,30,17,-22,-2,24,3,83,76,50,39,30
14,31,17,-23,-2,24,2,82,76,50,40,31
14,31,17,-23,-2,24,1,81,76,50,40,32
14,31,17,-23,-2,24,0,79,75,51,40,31
14,32,17,-23,-2,24,-1,78,73,51,40,31
14,33,18,-23,-3,25,-3,77,72,51,40,32
13,34,20,-23,-4,26,-4,75,71,51,40,33
14,34,20,-24,-4,27,-5,74,70,51,41,33
14,34,20,-24,-3,27,-7,72,69,52,42,33
14,34,20,-25,-3,27,-8,71,68,52,42,33
15,34,20,-25,-3,27,-10,69,67,51,42,33
15,35,20,-25,-3,27,-11,67,66,51,42,34
14,35,20,-25,-4,27,-13,65,65,51,41,34
13,35,21,-24,-4,27,-14,63,63,50,41,34
13,35,21,-24,-4,27,-16,61,61,49,40,34
13,35,20,-24,-4,27,-17,59,60,49,40,34
13,34,20,-23,-4,27,-19,57,59,48,40,34
12,34,21,-23,-4,27,-20,55,58,48,40,35
12,34,21,-23,-5,28,-21,53,57,48,40,35
12,34,22,-23,-5,28,-22,50,55,48,41,36
12,35,23,-24,-5,28,-24,47,53,48,41,36
13,36,23,-25,-5,29,-26,45,50,46,41,36
13,36,23,-24,-5,29,-27,43,48,45,41,37
12,36,23,-24,-5,29,-29,40,46,43,40,37
12,36,23,-24,-5,29,-31,37,43,41,40,37
12,36,23,-23,-6,29,-33,35,41,40,39,37
12,35,23,-23,-6,29,-34,32,40,39,38,37
12,35,23,-23,-6,29,-36,29,38,38,37,36
11,35,23,-23,-6,29,-37,27,36,37,36,36
11,35,23,-23,-7,29,-38,24,33,37,36,36
12,35,22,-23,-6,28,-39,21,30,35,35,35
13,34,21,-23,-5,27,-39,18,27,34,34,35
14,34,20,-24,-4,27,-40,15,25,32,33,34
13,34,20,-23,-4,27,-41,13,23,31,33,34
11,34,21,-22,-6,27,-41,11,22,30,32,34
10,32,21,-21,-6,26,-42,9,20,28,31,33
11,31,20,-21,-5,25,-43,7,18,26,30,32
11,31,19,-21,-5,25,-43,5,16,24,28,31
11,30,19,-21,-5,24,-44,3,14,22,26,29
11,29,18,-20,-4,23,-44,1,11,21,24,28
10,28,17,-18,-4,22,-45,0,9,20,23,26
9,27,17,-17,-5,22,-45,-2,7,18,22,26
9,27,17,-17,-5,21,-44,-3,5,16,21,25
9,25,16,-17,-4,20,-44,-6,3,14,19,24
9,24,14,-16,-3,19,-44,-8,1,12,17,22
8,23,13,-16,-3,18,-43,-9,-1,10,16,21
8,21,13,-15,-3,17,-42,-11,-2,10,15,20
7,20,12,-14,-3,16,-41,-12,-4,9,14,19
7,20,12,-13,-3,16,-40,-13,-5,9,14,19
7,19,12,-13,-3,16,-39,-14,-6,8,13,18
7,19,12,-12,-3,15,-39,-15,-8,7,12,17
7,18,11,-12,-3,14,-38,-17,-10,5,11,16
6,17,10,-11,-3,13,-37,-18,-11,4,11,16
6,16,10,-11,-3,13,-36,-19,-12,4,10,15
5,15,10,-10,-3,12,-35,-20,-13,3,8,14
4,14,10,-9,-3,12,-34,-21,-14,2,7,13
3,14,10,-8,-3,12,-33,-22,-15,0,5,12
2,13,10,-7,-4,11,-32,-23,-16,-1,4,11
2,12,9,-7,-4,11,-32,-24,-17,-2,3,10
3,12,9,-7,-4,10,-31,-25,-18,-3,2,10
3,11,8,-6,-4,10,-31,-26,-19,-4,1,9
2,10,8,-5,-3,9,-29,-26,-20,-5,0,8
1,9,7,-5,-3,8,-28,-27,-20,-6,0,7
1,8,7,-4,-3,8,-26,-27,-21,-7,0,7
1,8,7,-4,-3,8,-24,-27,-22,-8,-1,7
1,8,7,-4,-3,7,-23,-28,-22,-9,-1,6
0,7,7,-3,-3,7,-22,-28,-22,-9,-2,6
0,7,7,-3,-3,6,-22,-29,-23,-9,-2,5
0,6,7,-2,-3,6,-21,-30,-23,-9,-2,5
-1,6,6,-2,-3,6,-20,-31,-24,-9,-2,5
-1,6,6,-2,-3,5,-19,-31,-24,-9,-3,5
0,6,5,-2,-3,5,-18,-32,-25,-9,-3,4
0,6,5,-2,-2,5,-17,-32,-25,-10,-4,4
0,5,5,-2,-2,4,-16,-32,-26,-11,-4,3
-1,5,5,-1,-3,4,-15,-32,-26,-11,-4,3
-1,5,6,-1,-4,5,-14,-33,-26,-11,-4,3
-1,5,6,-1,-4,5,-13,-33,-25,-11,-4,3
-2,4,6,0,-5,5,-11,-33,-25,-11,-4,3
-3,3,6,0,-5,5,-10,-33,-25,-12,-5,3
-4,2,6,1,-5,4,-9,-33,-26,-13,-5,2
-3,2,5,1,-5,4,-8,-33,-26,-13,-6,2
-3,2,5,1,-4,3,-8,-33,-27,-13,-6,1
-2,2,4,1,-4,3,-7,-33,-27,-13,-7,1
-1,2,2,0,-2,2,-7,-34,-27,-13,-7,1
0,2,1,0,-1,1,-7,-34,-27,-13,-8,0
-2,2,3,0,-3,2,-6,-33,-26,-13,-7,1
-4,2,5,2,-5,3,-5,-33,-26,-13,-7,1
-4,2,6,2,-6,3,-5,-34,-27,-13,-7,1
-4,2,5,1,-5,3,-4,-34,-27,-13,-7,1
-4,1,5,1,-4,3,-4,-34,-27,-13,-7,1
-5,1,5,2,-5,3,-4,-34,-27,-13,-7,1
-5,0,5,2,-5,3,-4,-35,-27,-14,-8,1
-5,0,4,2,-5,3,-4,-35,-28,-15,-9,0
-4,0,3,2,-4,2,-4,-36,-29,-16,-10,0
-3,0,3,2,-3,1,-4,-36,-29,-17,-10,0
-3,0,3,2,-3,1,-4,-37,-30,-17,-10,0
-4,0,3,2,-3,0,-4,-38,-30,-16,-10,0
-4,-1,2,2,-3,0,-5,-40,-32,-17,-10,-1
-4,-2,1,3,-2,-1,-7,-45,-35,-18,-11,-1
-3,-3,0,3,-1,-2,-10,-50,-39,-20,-12,-1
-2,-4,-3,3,0,-4,-13,-56,-44,-24,-14,-2
-1,-6,-5,4,2,-6,-17,-63,-50,-28,-16,-3
-1,-8,-7,6,3,-8,-21,-72,-59,-33,-19,-5
0,-11,-11,6,5,-11,-27,-84,-70,-39,-23,-8
1,-14,-15,7,8,-15,-34,-97,-84,-46,-28,-10
2,-16,-19,7,10,-18,-41,-111,-98,-53,-32,-12
3,-18,-22,7,12,-20,-48,-125,-112,-59,-34,-13
3,-19,-23,7,13,-21,-54,-138,-124,-64,-36,-13
4,-19,-24,7,14,-22,-61,-151,-135,-68,-37,-12
6,-19,-25,6,15,-22,-67,-161,-144,-71,-37,-11
7,-18,-25,5,16,-22,-72,-168,-149,-71,-36,-9
8,-15,-23,4,16,-20,-76,-174,-152,-70,-33,-6
9,-12,-21,1,15,-17,-78,-178,-153,-68,-30,-2
10,-7,-17,-1,14,-13,-80,-180,-151,-65,-25,2
10,-1,-12,-4,12,-7,-80,-181,-146,-60,-20,8
10,6,-4,-8,7,1,-79,-182,-139,-53,-13,14
8,14,6,-11,1,10,-76,-183,-130,-45,-6,20
7,23,16,-14,-4,19,-73,-184,-121,-36,1,26
6,32,27,-18,-11,29,-69,-183,-110,-27,9,34
3,41,39,-21,-18,39,-63,-180,-101,-18,15,40
-1,48,49,-23,-25,48,-56,-176,-93,-12,20,44
-5,53,57,-24,-31,54,-47,-169,-86,-9,22,46
-8,55,62,-24,-35,58,-38,-161,-81,-9,21,45
-10,56,65,-23,-37,60,-29,-152,-77,-10,20,43
-11,56,67,-22,-39,61,-22,-143,-74,-11,18,41
-12,56,68,-22,-40,62,-15,-134,-71,-11,17,39
-13,54,68,-20,-41,61,-8,-125,-68,-13,14,37
-15,52,67,-19,-41,60,-1,-116,-65,-14,12,35
-16,52,68,-18,-42,60,6,-108,-61,-14,11,34
-18,53,71,-17,-45,62,13,-101,-56,-12,12,34
-19,55,75,-17,-47,65,21,-94,-50,-8,14,35
-22,57,78,-17,-50,67,30,-85,-44,-5,15,35
-24,56,80,-15,-53,68,41,-75,-39,-4,14,33
-26,54,80,-13,-54,67,51,-65,-36,-6,11,29
-28,49,78,-10,-54,63,62,-54,-33,-9,6,23
-30,43,73,-5,-53,58,73,-42,-30,-13,0,17
-31,36,67,-2,-50,51,82,-32,-26,-16,-5,10
-31,29,61,1,-47,45,92,-22,-22,-18,-10,3
-32,23,55,4,-44,39,100,-15,-19,-20,-14,-2
-33,16,49,8,-41,33,107,-9,-16,-20,-17,-6
-35,9,44,12,-39,27,111,-4,-13,-20,-19,-10
-35,3,38,16,-37,21,113,-2,-12,-21,-21,-13
-35,-2,33,19,-35,16,113,-2,-11,-21,-22,-16
-36,-6,30,21,-33,12,112,-3,-11,-21,-23,-18
-36,-8,27,22,-32,9,110,-5,-11,-20,-24,-19
-35,-9,25,22,-30,8,106,-8,-11,-19,-24,-19
-33,-9,24,21,-29,7,99,-11,-10,-19,-24,-19
-32,-8,23,20,-27,7,89,-13,-9,-17,-22,-17
-29,-6,23,18,-26,7,78,-13,-6,-15,-20,-15
-26,-3,22,15,-24,9,67,-9,-1,-12,-17,-12
-22,-1,21,12,-22,10,58,-3,4,-8,-13,-9
-19,0,20,9,-20,10,51,4,10,-3,-10,-7
-17,0,18,8,-18,9,46,11,16,1,-6,-5
-14,0,14,8,-14,7,41,18,21,5,-4,-4
-12,-1,11,7,-11,4,36,24,25,9,-2,-2
-10,-1,8,7,-8,2,32,30,29,11,0,-1
-9,-2,5,7,-6,0,29,36,33,13,1,0
-8,-3,3,6,-5,0,27,41,36,14,2,0
-6,-4,1,6,-3,-2,26,45,39,14,3,1
-5,-5,-1,5,-2,-3,25,49,41,16,4,2
-3,-6,-2,5,-1,-4,25,53,44,17,5,2
-3,-7,-4,5,0,-6,24,55,46,18,5,2
-2,-8,-7,5,2,-7,23,57,47,19,5,3
-1,-9,-9,5,4,-9,23,59,48,19,6,3
-1,-10,-10,5,4,-10,23,61,50,20,6,4
0,-10,-10,5,5,-10,23,62,51,21,6,4
0,-9,-10,5,5,-10,23,63,52,22,7,5
1,-8,-10,4,5,-9,22,64,53,23,8,5
2,-7,-10,3,6,-9,22,65,54,24,9,6
4,-7,-11,2,6,-9,21,66,55,26,10,6
5,-6,-11,1,7,-8,21,68,56,27,12,7
5,-5,-10,0,7,-7,20,69,56,29,13,8
6,-4,-10,0,8,-7,19,69,57,29,13,8
6,-3,-10,-1,8,-7,18,70,58,30,14,9
5,-2,-9,-1,7,-5,17,72,60,31,15,10
5,0,-7,-2,6,-4,17,74,62,33,17,11
6,0,-6,-2,6,-3,18,76,64,34,18,12
7,1,-5,-3,6,-3,18,77,65,36,18,13
6,1,-4,-2,5,-2,19,78,66,37,19,13
5,1,-4,-2,4,-2,20,79,66,37,19,14
5,1,-4,-2,4,-2,20,79,66,36,19,14
5,1,-4,-2,5,-2,21,80,67,36,19,14
5,1,-5,-2,5,-2,21,80,68,37,20,14
5,1,-4,-2,5,-1,21,81,69,38,21,15
5,1,-4,-2,4,-1,21,82,71,40,22,15
4,1,-3,-2,4,-1,21,83,72,41,23,16
5,1,-4,-3,4,-1,21,84,72,41,23,16
6,2,-4,-3,5,-2,21,84,72,41,23,16
6,2,-4,-3,5,-2,21,85,73,42,24,16
5,2,-4,-3,5,-1,21,85,73,43,24,16
5,2,-4,-2,4,-1,21,85,74,44,25,16
5,1,-4,-2,4,-2,21,86,74,45,25,17
6,1,-5,-3,5,-2,20,87,75,45,25,17
7,1,-6,-3,6,-2,20,87,75,45,25,17
7,1,-6,-3,6,-2,19,88,76,45,25,18
8,1,-5,-3,6,-2,19,89,76,45,25,18
8,2,-5,-3,6,-2,19,90,77,46,25,19
8,2,-5,-3,6,-2,19,90,78,47,26,19
7,2,-5,-4,6,-2,20,91,79,49,27,20
8,3,-5,-4,6,-1,20,92,80,50,28,20
8,3,-5,-5,6,-1,19,92,81,50,28,20
8,3,-5,-4,6,-1,19,93,82,50,29,20
8,2,-6,-4,6,-2,20,95,82,49,29,20
8,1,-6,-3,7,-3,20,96,83,49,29,20
8,0,-7,-3,7,-3,20,97,83,49,30,20
8,0,-7,-3,8,-3,20,98,84,49,30,21
7,1,-6,-3,7,-3,21,99,85,50,30,22
7,1,-6,-2,7,-3,21,100,86,51,31,22
7,1,-7,-3,7,-3,21,101,87,53,31,23
9,1,-8,-4,8,-3,21,101,87,55,32,23
10,1,-8,-5,9,-3,20,102,87,56,33,23
10,2,-7,-5,9,-3,20,103,88,56,34,24
10,3,-7,-5,8,-2,19,103,88,56,34,24
10,3,-7,-6,8,-2,19,104,88,55,34,24
10,3,-7,-6,9,-3,19,105,88,55,34,24
10,2,-8,-5,9,-3,19,105,88,54,34,24
10,2,-9,-5,9,-3,19,106,88,54,34,24
11,2,-9,-6,10,-3,19,106,89,55,34,24
11,2,-9,-6,10,-3,19,107,89,56,35,24
11,1,-9,-6,11,-4,19,108,90,56,35,25
11,1,-10,-6,11,-4,19,108,90,56,35,25
12,1,-11,-6,11,-4,19,109,90,56,35,26
12,1,-11,-5,11,-5,19,109,90,56,35,26
12,0,-12,-5,12,-5,19,109,90,56,35,26
13,0,-13,-5,13,-6,19,109,90,56,35,26
15,0,-15,-6,14,-7,18,109,90,56,36,26
14,0,-15,-6,14,-7,18,110,90,57,36,26
13,-1,-14,-6,13,-7,17,110,90,57,36,27
12,-1,-13,-5,12,-6,17,110,90,57,36,27
11,0,-12,-5,12,-6,17,110,90,58,37,28
12,0,-12,-6,12,-6,16,110,90,58,38,29
14,0,-13,-6,14,-7,16,110,89,58,38,29
15,0,-14,-7,15,-7,15,109,89,58,38,29
15,0,-15,-7,15,-7,15,108,88,58,39,30
16,0,-15,-7,16,-7,14,108,87,58,39,30
16,0,-16,-8,16,-7,13,107,86,58,40,31
16,0,-16,-8,16,-7,12,105,85,58,40,31
16,0,-16,-8,16,-7,11,104,84,57,40,31
16,0,-16,-8,16,-7,10,102,83,57,40,32
16,1,-15,-8,16,-7,10,101,82,57,40,32
16,1,-15,-8,16,-6,9,100,81,58,41,33
17,2,-15,-9,16,-6,8,98,81,58,41,33
17,1,-15,-9,16,-6,7,97,80,57,41,34
17,1,-15,-9,16,-6,6,95,78,56,41,34
17,2,-14,-9,16,-6,5,93,77,56,41,35
17,2,-14,-9,16,-6,3,91,75,56,42,35
17,3,-15,-10,16,-6,2,88,72,55,42,35
18,3,-15,-10,17,-6,1,85,70,54,41,35
18,4,-15,-11,17,-6,0,83,68,53,41,36
18,4,-15,-11,17,-6,0,80,66,51,41,36
17,4,-14,-11,16,-5,-1,78,65,49,40,36
16,5,-12,-10,14,-3,-2,75,63,48,40,36
16,5,-11,-10,14,-3,-3,72,61,47,39,37
16,5,-11,-10,14,-3,-5,69,59,46,39,37
16,5,-11,-10,14,-2,-7,65,56,46,39,37
17,6,-10,-10,14,-2,-9,61,54,45,39,38
17,7,-10,-11,14,-2,-10,58,51,45,39,38
17,8,-10,-11,14,-1,-11,54,49,45,40,39
17,8,-9,-12,13,0,-12,51,47,45,40,39
16,9,-8,-12,12,0,-12,48,45,44,40,39
16,10,-6,-12,11,1,-13,45,43,43,39,39
15,10,-5,-12,10,2,-14,41,40,41,39,39
15,11,-4,-12,10,3,-15,37,36,39,38,39
15,11,-3,-12,9,4,-15,33,33,38,37,38
15,12,-2,-13,9,4,-16,30,31,36,36,38
15,13,-2,-13,8,5,-16,27,29,35,35,37
14,13,0,-13,7,6,-16,24,28,34,34,37
13,14,1,-13,6,8,-16,22,26,34,34,37
12,15,2,-13,5,9,-16,19,24,33,33,37
12,15,2,-14,5,9,-16,16,21,31,33,36
12,15,3,-13,5,9,-16,13,18,30,32,35
12,15,3,-13,4,9,-16,9,15,28,30,34
12,15,4,-13,4,9,-16,6,13,26,29,33
11,15,3,-12,4,9,-16,3,11,25,27,32
11,14,3,-12,4,8,-16,1,9,23,25,31
9,14,4,-11,3,9,-15,0,7,21,24,29
7,14,7,-10,0,10,-15,-2,6,20,23,28
5,13,8,-9,-1,10,-14,-4,4,18,22,28
5,12,8,-9,-1,10,-14,-6,1,15,20,27
5,12,8,-8,-1,10,-13,-9,-1,13,19,26
4,12,8,-8,-1,10,-12,-12,-3,11,18,25
4,12,8,-7,-1,10,-11,-15,-6,10,16,25
3,12,8,-7,-1,10,-11,-18,-8,9,15,24
3,11,8,-7,-1,10,-11,-21,-10,8,14,23
3,11,8,-7,-1,9,-11,-24,-12,7,13,22
3,11,8,-7,-2,9,-12,-28,-15,5,13,22
3,11,9,-7,-2,10,-13,-33,-19,4,12,21
2,11,9,-6,-3,10,-14,-38,-23,2,12,21
1,10,8,-5,-3,9,-16,-44,-29,0,10,20
0,8,8,-4,-3,8,-18,-52,-36,-4,8,19
0,6,6,-3,-3,6,-22,-61,-44,-10,4,16
0,4,4,-2,-1,3,-26,-72,-55,-17,-1,13
0,1,1,-1,0,1,-32,-84,-67,-25,-6,10
0,-2,-2,0,2,-2,-38,-98,-81,-33,-11,7
0,-6,-7,2,4,-6,-44,-112,-96,-42,-16,3
1,-10,-12,4,7,-11,-52,-127,-112,-51,-22,0
3,-14,-17,5,10,-15,-59,-142,-127,-60,-27,-2
4,-17,-23,6,14,-20,-66,-154,-141,-68,-31,-4
5,-21,-27,8,16,-24,-71,-163,-153,-75,-35,-6
6,-23,-30,8,19,-27,-75,-171,-163,-81,-39,-7
8,-23,-32,8,20,-28,-79,-177,-171,-85,-40,-8
9,-22,-32,6,21,-27,-82,-181,-175,-86,-39,-6
10,-18,-29,4,20,-23,-83,-181,-174,-84,-35,-2
11,-11,-22,1,17,-17,-82,-178,-169,-78,-27,4
11,-3,-13,-3,12,-8,-79,-173,-160,-69,-18,13
10,5,-4,-7,8,0,-74,-165,-149,-59,-8,22
10,13,3,-11,4,8,-68,-157,-138,-51,-1,29
10,20,11,-14,0,15,-62,-150,-130,-44,4,34
8,27,18,-16,-5,22,-57,-147,-125,-40,8,38
6,31,25,-17,-9,27,-51,-146,-122,-39,9,39
3,34,30,-18,-13,32,-46,-146,-121,-39,9,39
1,38,36,-18,-17,37,-40,-145,-118,-38,10,41
0,42,42,-20,-21,42,-35,-143,-115,-36,12,43
-1,45,47,-21,-24,46,-30,-139,-110,-33,14,46
-3,46,49,-20,-26,47,-25,-132,-104,-32,14,45
-5,43,48,-18,-26,45,-18,-121,-97,-31,12,42
-7,38,45,-14,-26,41,-10,-107,-90,-31,9,38
-8,32,40,-11,-24,36,-1,-92,-82,-30,7,34
-9,26,36,-8,-23,31,9,-76,-74,-29,5,30
-11,21,32,-4,-22,26,20,-62,-66,-27,4,26
-13,16,30,-1,-21,23,30,-51,-60,-27,1,22
-15,12,28,2,-21,20,37,-43,-56,-27,-1,18
-17,9,26,4,-21,17,42,-37,-52,-27,-3,15
-18,7,26,6,-21,16,45,-32,-47,-25,-4,13
-19,6,25,7,-21,15,47,-26,-39,-21,-3,12
-19,5,23,8,-21,13,49,-18,-30,-17,-1,11
-20,3,22,8,-21,12,52,-9,-21,-12,1,11
-20,2,20,9,-20,10,54,-1,-13,-9,2,10
-20,0,18,10,-19,8,56,5,-7,-6,2,8
-19,-3,15,12,-17,5,57,10,-1,-4,3,7
-19,-6,11,13,-14,2,57,13,3,-2,3,7
-18,-8,8,14,-12,0,56,15,8,0,3,6
-17,-10,6,14,-11,-2,54,16,12,2,4,5
-16,-10,5,14,-10,-3,52,18,16,4,5,5
-16,-11,5,14,-10,-3,50,21,20,7,6,5
-15,-10,4,13,-9,-3,46,25,24,9,8,6
-12,-9,3,11,-8,-3,42,30,29,13,11,8
-10,-7,2,8,-6,-2,38,35,34,16,14,11
-8,-4,3,6,-5,-1,34,39,38,20,16,13
-6,-2,3,5,-4,0,31,42,41,22,18,15
-5,0,4,3,-4,1,29,45,44,23,19,16
-4,0,4,2,-3,2,27,47,46,25,20,17
-4,1,4,2,-3,2,25,49,48,26,20,17
-4,0,4,2,-3,2,24,50,49,26,20,16
-3,0,3,1,-2,2,23,51,49,27,21,16
3,7,3,-5,1,4,24,54,51,29,23,18
11,14,3,-12,4,8,25,56,53,31,26,20
9,12,3,-10,3,7,24,56,53,31,25,20
5,7,2,-5,1,4,23,56,52,29,24,18
2,4,1,-2,0,2,22,56,52,29,23,17
0,1,0,0,0,0,22,56,53,29,22,16
-1,-1,-1,1,0,0,22,57,53,29,22,15
-2,-2,0,2,0,-1,22,58,54,29,22,15
-3,-2,0,3,-1,-1,22,59,55,29,22,15
-2,-2,0,2,-1,-2,22,59,55,29,21,15
-2,-2,0,2,0,-2,22,60,56,29,21,15
-3,-3,0,3,-1,-2,22,61,57,30,22,15
-4,-3,0,4,-1,-1,23,62,58,31,22,16
-4,-3,0,4,-2,-1,24,63,59,31,23,16
-4,-3,0,4,-2,-2,24,64,60,32,23,16
-4,-4,0,4,-2,-2,24,65,61,32,23,16
-4,-4,0,4,-1,-2,24,65,61,32,23,16
-3,-3,0,4,-1,-2,24,66,62,33,23,16
-3,-3,0,3,-1,-1,24,66,62,33,24,16
-3,-2,0,3,-1,-1,24,67,63,34,24,16
-3,-2,0,3,-1,-1,25,67,64,34,24,16
-3,-2,0,3,0,-1,25,68,64,34,25,16
-2,-2,0,2,0,-1,25,69,65,35,25,17
-2,-1,0,2,0,0,24,69,66,36,26,18
-1,0,1,1,0,1,24,70,67,37,27,19
-1,1,2,0,0,1,23,71,68,38,28,20
-1,2,3,0,-1,2,22,72,69,39,29,20
0,3,3,-1,-1,3,22,73,71,41,30,21
0,4,4,-2,-1,3,22,75,73,42,31,22
0,5,5,-2,-2,4,22,76,74,43,31,22
-1,6,6,-1,-3,5,23,77,75,44,32,23
-2,6,7,-1,-4,6,23,78,76,44,32,23
-2,6,7,-1,-4,6,24,78,76,44,32,23
-2,6,8,-1,-5,6,24,78,77,45,32,23
-3,6,8,-1,-5,6,24,79,77,46,32,23
-3,6,8,-1,-5,6,24,79,77,46,33,23
-3,5,7,-1,-5,6,24,79,78,47,33,23
-3,5,7,-1,-5,6,24,79,78,47,33,23
-3,6,8,-1,-5,6,24,80,79,48,33,24
-2,6,8,-1,-5,7,24,80,80,48,34,24
-2,7,8,-2,-5,7,24,80,80,48,34,24
-1,7,7,-2,-4,7,23,80,81,49,34,24
0,7,7,-3,-4,7,23,81,81,49,35,24
-1,7,8,-3,-5,8,23,82,82,50,35,25
-2,7,9,-2,-6,8,23,83,82,51,36,25
-3,8,10,-2,-6,9,23,83,83,51,36,25
-2,8,10,-2,-6,9,23,83,83,51,36,25
-2,8,10,-2,-6,9,23,84,84,52,36,25
-2,9,11,-2,-6,10,23,84,84,52,36,26
-2,9,11,-3,-6,10,23,85,85,53,37,26
-2,9,11,-3,-6,10,22,85,85,54,38,27
-2,9,10,-3,-6,10,22,85,85,54,38,27
-1,9,10,-3,-5,9,22,85,85,54,38,27
-1,10,10,-3,-5,9,22,85,85,54,38,27
-1,10,10,-4,-5,10,21,85,86,54,38,27
-1,10,11,-4,-6,10,21,85,86,55,39,27
-2,11,13,-4,-7,11,21,85,86,55,39,27
-3,11,14,-4,-8,12,21,85,86,56,39,28
-3,11,14,-4,-8,13,21,85,86,56,39,28
-3,12,14,-4,-8,13,20,84,86,56,39,28
-2,12,13,-4,-8,13,20,84,85,55,39,27
-1,13,13,-5,-7,13,19,83,84,55,39,27
0,14,13,-6,-6,14,18,82,83,54,38,27
0,14,14,-6,-7,14,17,82,82,54,38,26
1,15,14,-7,-6,14,17,81,82,53,38,26
2,15,13,-8,-5,13,16,80,81,53,38,26
3,15,12,-8,-4,14,16,79,81,53,38,26
2,16,13,-8,-5,14,16,79,81,53,38,26
1,16,13,-8,-5,15,15,78,80,53,38,26
2,16,13,-8,-5,15,15,77,79,53,38,26
2,17,14,-8,-5,15,15,76,78,53,38,27
2,17,14,-9,-6,15,15,75,77,53,38,27
2,17,15,-9,-6,16,14,74,76,52,38,27
3,18,15,-9,-6,16,14,73,75,52,38,27
3,18,15,-9,-6,17,13,71,74,51,38,27
3,19,15,-10,-6,17,12,69,72,51,38,27
3,19,15,-10,-6,17,11,67,71,50,38,27
3,19,15,-11,-5,17,10,65,69,49,38,27
3,19,15,-11,-5,17,9,63,68,48,37,27
3,19,15,-11,-5,17,9,62,67,48,37,27
4,20,15,-11,-5,17,8,60,65,47,37,27
4,20,15,-11,-5,17,7,58,63,46,36,27
5,20,14,-11,-5,17,6,55,61,45,36,27
5,20,15,-12,-5,18,4,53,59,44,36,27
4,21,16,-12,-6,18,3,50,57,43,36,27
4,21,16,-12,-6,19,2,47,55,42,36,27
4,21,16,-12,-6,19,1,45,53,41,35,27
4,22,16,-13,-5,19,0,42,51,40,34,27
5,22,16,-13,-5,19,0,39,48,39,34,27
5,22,16,-13,-5,19,-1,36,46,38,33,27
5,22,16,-13,-5,19,-2,33,43,37,33,27
5,23,16,-13,-6,19,-3,30,41,36,32,27
5,23,16,-13,-6,19,-4,27,38,34,32,27
5,23,16,-13,-5,19,-5,24,36,33,31,27
5,23,16,-13,-5,19,-6,21,33,31,31,27
6,23,16,-13,-5,19,-7,18,30,30,30,27
6,23,16,-13,-5,19,-7,15,28,28,29,26
6,23,16,-13,-5,19,-8,12,25,27,28,26
6,23,16,-13,-5,19,-8,10,23,26,27,26
5,22,16,-13,-6,19,-8,7,21,25,26,25
4,22,16,-12,-6,19,-8,5,18,24,26,25
3,21,16,-12,-7,19,-9,2,16,22,25,24
3,21,16,-11,-7,19,-9,0,13,20,23,23
2,20,16,-11,-7,18,-10,-3,10,18,22,22
2,19,15,-10,-7,17,-10,-5,8,17,21,21
2,18,15,-9,-7,16,-10,-7,5,15,19,20
2,17,14,-9,-7,16,-10,-10,2,12,18,19
2,17,14,-9,-6,15,-9,-12,0,10,16,18
2,17,13,-8,-6,15,-9,-14,-2,8,14,17
2,16,13,-8,-6,14,-8,-16,-4,6,13,15
1,15,12,-7,-6,13,-8,-18,-6,5,11,14
1,14,12,-6,-6,12,-7,-20,-7,3,10,13
0,12,11,-5,-6,11,-7,-21,-9,2,9,12
0,11,11,-4,-6,10,-7,-23,-11,0,7,11
0,10,10,-4,-6,9,-7,-24,-13,0,6,10
0,9,9,-3,-5,8,-6,-25,-14,-1,5,9
-1,8,8,-2,-5,7,-6,-26,-16,-2,5,8
-2,7,8,-2,-6,7,-6,-27,-17,-4,4,8
-2,7,8,-1,-6,7,-6,-29,-18,-5,2,7
-3,6,8,-1,-6,6,-6,-30,-19,-6,1,6
-4,5,8,0,-6,6,-6,-31,-20,-6,0,6
-5,4,9,0,-7,6,-6,-31,-21,-7,0,5
-5,4,8,1,-7,5,-6,-32,-22,-8,-1,5
-5,3,7,1,-6,5,-6,-33,-23,-9,-1,4
-5,3,6,1,-6,4,-5,-33,-24,-10,-2,3
-4,2,6,1,-6,4,-5,-34,-24,-11,-2,2
-4,2,5,1,-6,3,-5,-35,-25,-12,-2,1
-4,2,5,1,-6,3,-5,-36,-25,-12,-3,1
-4,2,6,1,-6,3,-5,-36,-26,-13,-3,1
-4,2,6,2,-6,3,-5,-37,-27,-13,-3,0
-4,2,6,2,-6,3,-5,-37,-27,-13,-3,0
-4,1,5,2,-5,2,-5,-37,-28,-13,-4,0
-4,1,4,2,-4,2,-6,-37,-28,-14,-5,0
-3,1,3,2,-4,2,-6,-37,-29,-14,-5,-1
-3,1,3,2,-3,1,-6,-37,-29,-15,-6,-1
-3,0,3,2,-3,1,-6,-37,-29,-15,-6,-1
-3,0,3,2,-3,1,-6,-37,-29,-15,-6,-1
-3,0,3,2,-3,1,-6,-37,-29,-15,-6,-1
-3,0,2,2,-3,0,-6,-37,-29,-15,-7,-1
-3,0,2,2,-3,0,-6,-37,-29,-16,-7,-1
-3,0,2,2,-3,0,-6,-38,-30,-16,-8,-2
-3,0,2,2,-3,0,-6,-38,-30,-16,-8,-2
-4,0,2,2,-3,0,-6,-38,-30,-17,-8,-2
-4,0,2,3,-4,0,-6,-38,-31,-17,-8,-3
-4,0,2,3,-3,0,-6,-38,-31,-17,-8,-3
-4,0,2,3,-3,0,-6,-38,-30,-16,-8,-3
-4,0,3,3,-4,1,-6,-38,-30,-16,-8,-3
-4,0,3,2,-4,1,-6,-38,-31,-17,-8,-3
-3,0,2,2,-3,0,-6,-38,-31,-17,-8,-3
-3,0,2,2,-3,0,-7,-38,-31,-18,-8,-4
-2,0,1,2,-3,0,-7,-38,-31,-18,-9,-4
-3,0,2,2,-3,1,-6,-38,-30,-18,-9,-4
-5,0,4,3,-4,1,-6,-37,-30,-17,-9,-4
-5,0,4,3,-4,1,-6,-37,-30,-18,-9,-4
-4,0,3,2,-4,1,-7,-38,-31,-18,-10,-5
-3,0,2,2,-3,0,-7,-39,-32,-19,-11,-5
-2,0,1,2,-3,0,-7,-39,-32,-19,-11,-5
-3,-1,2,2,-4,0,-7,-39,-32,-19,-11,-5
-4,-1,3,3,-5,1,-7,-38,-31,-19,-11,-5
-4,-1,3,3,-4,1,-7,-38,-32,-19,-12,-5
-4,-1,2,2,-4,0,-7,-39,-32,-20,-12,-6
-3,-1,2,2,-3,0,-8,-39,-33,-20,-13,-7
-3,-1,1,2,-3,0,-8,-39,-33,-20,-13,-7
-3,-1,1,2,-3,0,-8,-39,-32,-20,-12,-7
-3,0,2,2,-3,0,-8,-39,-32,-20,-12,-7
-4,0,3,2,-4,1,-8,-39,-32,-20,-12,-7
-4,0,2,2,-4,0,-8,-39,-32,-20,-12,-7
-3,0,2,2,-3,0,-8,-39,-33,-21,-12,-7
-3,0,1,2,-3,0,-8,-39,-33,-21,-13,-7
-2,0,1,2,-2,0,-8,-39,-33,-21,-13,-7
-2,0,1,2,-2,0,-8,-39,-33,-21,-13,-8
-3,0,2,2,-3,0,-8,-39,-33,-21,-13,-8
-3,0,2,2,-3,0,-8,-39,-33,-21,-13,-8
-3,-1,2,2,-3,0,-8,-39,-32,-21,-13,-8
-3,-1,2,2,-3,0,-8,-39,-32,-21,-13,-8
-3,0,2,1,-3,0,-8,-39,-32,-21,-13,-8
-3,0,1,1,-2,0,-8,-39,-32,-21,-13,-8
-3,-1,1,1,-2,0,-8,-39,-32,-22,-14,-8
-3,-1,1,1,-2,-1,-8,-39,-33,-22,-15,-9
-3,-1,1,2,-2,-1,-8,-39,-33,-22,-16,-9
-3,-1,1,2,-2,0,-8,-39,-33,-22,-16,-9
-2,-1,1,2,-2,0,-8,-39,-33,-22,-16,-9
-2,-1,1,2,-2,0,-8,-39,-33,-23,-15,-9
-3,-1,1,2,-2,0,-9,-40,-33,-23,-15,-9
-3,-1,1,2,-2,0,-9,-40,-33,-23,-15,-9
-2,0,1,1,-2,0,-9,-40,-33,-23,-15,-9
-2,0,1,1,-2,0,-9,-40,-33,-23,-15,-9
-2,0,1,1,-2,0,-9,-40,-33,-23,-15,-9
-2,0,1,1,-2,0,-9,-40,-33,-23,-15,-10
-1,0,1,0,-1,0,-9,-41,-33,-24,-16,-10
0,1,0,-1,0,0,-10,-41,-34,-24,-16,-11
0,1,0,-1,0,0,-10,-41,-34,-24,-17,-11
0,2,2,-1,-1,1,-10,-41,-34,-24,-17,-11
-1,2,3,-1,-2,2,-9,-40,-33,-23,-16,-11
-2,2,4,0,-3,3,-9,-40,-33,-23,-16,-10
-2,2,4,0,-4,3,-9,-40,-33,-23,-15,-10
-2,2,4,0,-4,3,-8,-40,-33,-23,-15,-10
-2,3,5,0,-4,4,-8,-40,-32,-23,-15,-10
-1,4,5,-1,-4,5,-8,-39,-32,-22,-15,-9
-1,5,5,-1,-3,5,-7,-39,-31,-21,-15,-9
0,6,5,-2,-3,6,-7,-39,-31,-21,-14,-9
0,7,6,-3,-3,6,-7,-39,-30,-21,-14,-9
0,7,6,-4,-3,6,-7,-38,-30,-20,-14,-8
0,7,6,-5,-3,7,-7,-38,-30,-20,-14,-8
0,7,6,-5,-3,7,-7,-38,-30,-20,-14,-8
0,7,6,-4,-3,7,-6,-38,-30,-20,-13,-8
0,7,6,-4,-3,7,-6,-38,-30,-20,-13,-8
1,7,6,-4,-3,7,-5,-38,-29,-19,-13,-8
1,8,6,-5,-2,7,-6,-38,-29,-19,-13,-8
2,9,6,-5,-2,7,-6,-39,-29,-19,-13,-8
2,10,7,-6,-3,8,-6,-39,-29,-19,-13,-8
1,10,8,-6,-3,9,-6,-38,-28,-19,-13,-8
1,11,9,-7,-4,10,-6,-38,-28,-18,-12,-7
2,12,9,-7,-4,11,-6,-39,-28,-18,-12,-7
2,12,9,-7,-3,11,-7,-39,-28,-18,-12,-7
2,12,9,-7,-3,11,-8,-39,-28,-18,-12,-7
2,12,9,-7,-3,11,-9,-40,-29,-18,-12,-7
2,12,9,-7,-3,10,-10,-40,-29,-18,-12,-7
2,12,8,-7,-3,10,-10,-40,-29,-18,-12,-7
2,11,8,-7,-2,9,-11,-40,-29,-18,-12,-7
2,11,7,-7,-1,9,-11,-40,-29,-18,-12,-7
3,10,6,-7,-1,8,-11,-40,-29,-18,-12,-7
3,9,5,-7,0,7,-12,-40,-29,-18,-12,-7
3,9,5,-6,-1,6,-12,-39,-29,-17,-12,-6
1,8,6,-5,-2,7,-12,-39,-29,-17,-11,-6
1,8,6,-5,-3,7,-12,-40,-29,-17,-11,-6
2,9,6,-6,-2,7,-13,-40,-29,-18,-12,-6
3,9,5,-7,-1,7,-13,-41,-30,-18,-12,-7
3,10,6,-7,-1,7,-13,-41,-30,-18,-12,-7
3,10,6,-7,-1,8,-13,-41,-30,-18,-12,-7
4,10,5,-7,0,7,-13,-41,-30,-18,-13,-7
4,9,4,-7,0,7,-13,-41,-30,-18,-13,-8
4,9,4,-6,0,7,-13,-41,-30,-18,-13,-8
3,9,4,-6,0,7,-14,-41,-30,-18,-13,-8
3,9,4,-7,0,7,-14,-41,-30,-18,-13,-8
4,9,4,-7,0,7,-14,-41,-30,-19,-14,-9
4,8,4,-7,0,7,-14,-41,-30,-19,-14,-9
4,8,4,-7,0,6,-14,-40,-30,-19,-15,-9
4,8,3,-6,0,5,-14,-40,-30,-19,-15,-9
3,7,3,-5,0,5,-14,-40,-30,-19,-15,-10
0,6,4,-4,-1,5,-13,-40,-30,-19,-15,-10
-1,5,4,-2,-3,4,-12,-40,-31,-20,-15,-10
-2,4,4,-1,-3,3,-12,-40,-31,-20,-15,-11
-2,3,4,-1,-3,2,-12,-40,-32,-21,-16,-11
-2,2,4,0,-3,2,-12,-40,-32,-21,-16,-12
-2,1,3,0,-2,1,-13,-41,-33,-22,-17,-12
-2,1,2,0,-2,1,-13,-41,-33,-22,-17,-13
-1,0,0,0,-1,0,-14,-42,-34,-23,-18,-14
0,0,-1,0,1,-1,-14,-43,-36,-24,-19,-15
0,-1,-2,0,1,-2,-14,-43,-36,-25,-20,-16
-1,-1,-1,1,0,-2,-13,-43,-36,-25,-21,-16
-3,-2,0,2,-1,-2,-13,-42,-36,-25,-21,-16
-2,-3,-1,2,0,-3,-13,-42,-36,-25,-22,-16
-2,-4,-2,2,0,-3,-14,-43,-37,-26,-22,-17
-2,-4,-1,3,0,-3,-14,-43,-37,-26,-22,-17
-3,-4,-1,3,0,-3,-13,-43,-37,-26,-22,-17
-2,-4,-2,2,0,-3,-13,-43,-37,-26,-22,-17
-2,-4,-2,2,0,-4,-13,-43,-38,-26,-22,-18
-2,-4,-3,2,0,-4,-13,-43,-37,-26,-22,-18
-2,-4,-3,2,0,-4,-14,-43,-37,-26,-22,-17
-2,-4,-3,2,0,-4,-14,-43,-37,-26,-22,-17
-2,-5,-3,2,0,-4,-14,-43,-37,-26,-22,-18
-2,-5,-3,2,0,-4,-14,-43,-38,-26,-23,-18
-2,-4,-3,2,0,-4,-14,-43,-38,-25,-23,-18
-2,-4,-3,2,0,-4,-14,-43,-37,-25,-23,-18
-2,-4,-3,2,0,-4,-14,-43,-37,-25,-23,-18
-2,-4,-4,2,0,-4,-14,-43,-37,-25,-23,-18
-2,-5,-4,2,0,-4,-13,-43,-37,-25,-23,-18
-3,-5,-3,3,0,-4,-13,-43,-37,-25,-23,-18
-3,-5,-3,3,0,-4,-13,-43,-37,-25,-23,-18
-3,-6,-3,3,0,-5,-13,-43,-37,-25,-23,-18
-3,-6,-3,3,0,-5,-13,-43,-37,-25,-23,-18
-3,-6,-3,3,0,-4,-13,-43,-36,-24,-23,-18
-3,-6,-3,4,0,-4,-13,-42,-36,-24,-23,-18
-3,-6,-3,4,0,-4,-13,-42,-36,-24,-23,-18
-2,-6,-3,4,0,-4,-14,-42,-36,-24,-23,-19
-2,-6,-3,4,0,-4,-14,-42,-36,-24,-23,-19
-3,-6,-3,4,0,-4,-14,-42,-36,-24,-23,-19
-3,-6,-3,4,0,-4,-14,-42,-36,-24,-23,-19
-3,-5,-3,4,0,-4,-14,-42,-36,-24,-23,-19
-4,-5,-2,4,-1,-3,-13,-42,-36,-24,-23,-19
-4,-5,-2,4,-1,-3,-13,-43,-36,-24,-23,-19
-4,-5,-2,4,-1,-3,-13,-43,-36,-24,-23,-19
-4,-5,-1,4,-1,-3,-13,-43,-36,-24,-23,-19
-4,-4,-1,4,-1,-3,-13,-43,-36,-24,-22,-19
-4,-4,-1,3,-1,-3,-13,-43,-36,-24,-22,-19
-4,-4,0,3,-2,-2,-13,-44,-36,-24,-22,-18
-5,-3,0,3,-3,-1,-13,-45,-36,-24,-22,-18
-5,-3,1,3,-4,0,-14,-46,-37,-23,-22,-17
-5,-2,3,3,-4,0,-15,-48,-37,-23,-21,-17
-5,-2,3,3,-4,0,-16,-51,-37,-22,-21,-17
-5,-1,4,2,-4,1,-17,-54,-38,-22,-20,-16
-4,0,4,2,-4,1,-19,-57,-38,-22,-20,-16
-4,0,3,1,-4,1,-20,-58,-38,-21,-19,-16
-3,0,2,1,-3,0,-22,-59,-38,-20,-18,-15
-2,-1,0,1,-2,0,-25,-60,-39,-19,-17,-14
-2,-2,-1,1,-1,-1,-27,-62,-40,-18,-16,-13
-1,-3,-2,1,0,-2,-30,-65,-40,-17,-15,-11
0,-3,-4,1,2,-3,-33,-67,-40,-14,-12,-8
3,-3,-7,-1,4,-4,-37,-68,-39,-11,-7,-4
7,-2,-9,-3,8,-5,-41,-68,-37,-6,-2,0
10,0,-10,-5,10,-5,-44,-66,-35,-2,3,6
11,2,-9,-7,10,-3,-47,-65,-33,2,9,11
13,4,-9,-9,11,-2,-49,-64,-33,5,13,16
16,7,-10,-11,12,-1,-52,-64,-34,7,17,20
18,9,-10,-14,14,0,-53,-64,-35,7,19,23
20,10,-10,-16,15,0,-53,-64,-38,5,19,24
20,7,-13,-14,16,-3,-50,-64,-42,0,15,21
18,2,-16,-11,17,-7,-45,-66,-48,-9,6,14
14,-3,-18,-6,16,-11,-38,-69,-55,-20,-3,6
10,-7,-19,-2,14,-13,-30,-72,-62,-30,-14,-3
7,-13,-21,2,14,-17,-22,-73,-69,-41,-26,-13
3,-20,-24,8,14,-22,-14,-72,-76,-53,-39,-24
-1,-27,-27,13,13,-28,-5,-70,-81,-62,-50,-35
-4,-32,-29,17,12,-31,2,-65,-83,-68,-58,-43
-6,-36,-30,20,12,-34,9,-59,-82,-72,-63,-48
-8,-38,-31,22,11,-35,15,-53,-80,-73,-66,-51
-9,-38,-29,23,10,-34,20,-46,-76,-72,-66,-52
-11,-37,-26,23,8,-32,24,-39,-71,-70,-64,-52
-12,-34,-22,23,5,-28,28,-32,-64,-66,-62,-50
-14,-31,-17,22,2,-24,32,-26,-58,-62,-59,-49
-16,-29,-13,22,-1,-21,36,-21,-53,-58,-57,-48
-17,-29,-11,22,-3,-20,40,-16,-48,-55,-55,-48
-19,-29,-10,23,-4,-20,43,-12,-44,-53,-54,-47
-20,-30,-10,24,-5,-20,45,-7,-40,-51,-53,-47
-21,-31,-9,25,-5,-20,48,-3,-37,-49,-52,-47
-22,-33,-10,26,-6,-21,51,1,-35,-47,-51,-47
-23,-35,-11,28,-5,-23,54,5,-32,-45,-51,-47
-24,-36,-13,29,-5,-25,58,8,-29,-44,-50,-47
-24,-37,-13,29,-5,-25,61,12,-25,-41,-49,-47
-24,-37,-14,30,-6,-26,64,16,-22,-39,-47,-47
-24,-37,-14,30,-6,-26,66,20,-18,-37,-46,-46
-25,-38,-13,31,-6,-26,69,24,-16,-35,-44,-45
-25,-38,-13,31,-7,-26,72,28,-13,-33,-43,-44
-26,-38,-13,31,-7,-26,75,32,-11,-31,-41,-43
-26,-38,-13,31,-7,-26,78,35,-9,-30,-40,-42
-26,-38,-13,32,-6,-26,80,38,-7,-28,-39,-41
-26,-39,-13,32,-6,-26,81,39,-4,-27,-38,-40
-26,-39,-13,33,-7,-26,82,38,-3,-26,-37,-40
-27,-39,-13,33,-7,-26,82,35,-2,-25,-37,-39
-26,-39,-13,32,-7,-26,80,31,-2,-24,-36,-39
-26,-39,-13,32,-7,-26,79,28,-2,-24,-35,-38
-26,-38,-12,32,-8,-25,76,24,-2,-23,-34,-37
-27,-37,-11,31,-8,-24,73,21,-2,-23,-34,-36
-27,-36,-10,31,-8,-23,69,19,-2,-22,-33,-35
-26,-35,-10,30,-8,-23,64,18,-1,-20,-32,-34
-25,-34,-9,29,-8,-22,59,20,0,-18,-31,-33
-23,-31,-9,26,-8,-20,53,22,3,-15,-28,-31
-20,-27,-8,23,-7,-18,48,25,7,-12,-25,-29
-17,-23,-6,19,-6,-15,43,29,11,-8,-22,-26
-15,-18,-3,16,-7,-11,37,33,16,-5,-18,-23
-14,-14,-1,14,-7,-8,32,37,19,-2,-15,-20
-12,-11,0,11,-6,-6,28,39,22,0,-13,-18
-10,-9,0,9,-5,-5,24,41,24,1,-12,-17
-8,-7,0,7,-4,-4,20,43,26,3,-10,-16
-7,-5,1,5,-4,-3,18,45,28,5,-9,-15
-5,-4,1,4,-4,-2,17,46,30,7,-7,-14
-4,-3,0,4,-3,-2,16,48,32,9,-6,-13
-4,-3,0,3,-3,-1,16,49,34,10,-5,-12
-4,-2,1,3,-3,-1,15,50,35,11,-4,-12
-4,-2,1,3,-3,0,15,52,35,11,-3,-11
-3,-1,1,2,-2,0,14,52,36,12,-3,-11
-3,-1,2,2,-3,0,14,53,36,12,-2,-10
-3,0,3,2,-4,1,14,55,37,13,-2,-10
-3,0,3,2,-4,1,14,55,38,14,-1,-10
-2,0,2,1,-3,1,13,56,39,15,-1,-10
-2,0,2,1,-3,1,12,57,40,15,-1,-9
-2,1,3,0,-3,2,13,58,41,16,0,-8
-3,2,4,0,-4,3,13,59,42,17,0,-7
-3,2,4,0,-4,3,13,60,42,18,0,-7
-2,2,4,0,-3,3,13,60,43,18,0,-7
-2,2,4,0,-3,3,13,61,44,19,1,-7
-2,2,5,0,-3,3,13,61,45,20,2,-7
-2,3,5,0,-4,3,13,62,46,21,3,-6
-2,3,5,-1,-4,4,12,63,47,22,4,-6
-1,4,5,-1,-3,4,12,64,48,23,4,-6
-1,5,4,-2,-3,4,12,64,48,23,5,-6
-1,5,4,-2,-3,4,12,65,49,23,5,-6
0,5,4,-2,-3,4,12,66,49,24,5,-6
0,5,4,-2,-3,4,12,66,49,25,5,-6
1,6,4,-3,-2,4,12,67,50,26,6,-5
2,6,3,-4,-2,4,12,68,51,27,6,-5
2,6,3,-4,-1,4,12,69,53,27,7,-4
3,6,3,-4,-1,4,12,70,54,27,7,-4
3,6,3,-4,-1,5,13,71,54,27,7,-4
3,6,3,-4,-1,5,13,71,55,28,8,-4
2,7,4,-5,-2,6,13,72,56,29,8,-3
2,8,6,-5,-2,7,13,73,56,30,9,-3
2,9,6,-6,-2,7,13,73,57,30,9,-3
2,9,6,-6,-2,7,12,74,57,31,10,-3
2,9,6,-6,-2,7,12,75,58,31,10,-3
3,9,5,-7,-1,7,12,75,59,32,11,-3
4,10,5,-7,-1,7,12,76,60,32,11,-2
2,10,7,-7,-2,8,13,78,61,33,11,-2
0,10,9,-6,-4,9,13,79,62,34,12,-1
0,10,10,-6,-5,10,14,80,63,35,12,0
1,11,10,-7,-4,10,13,80,64,36,12,0
2,12,9,-7,-3,10,13,81,64,36,13,0
2,12,9,-7,-3,11,13,82,65,37,13,0
2,12,9,-7,-4,11,13,83,66,37,14,0
2,12,9,-8,-4,11,13,83,66,38,14,0
3,13,9,-8,-3,11,12,83,67,38,15,0
3,13,8,-9,-3,10,12,83,67,38,15,1
4,13,8,-9,-2,10,11,83,67,38,15,1
4,13,8,-9,-2,11,11,84,67,39,15,2
5,14,9,-10,-2,11,11,85,68,40,16,2
5,15,9,-10,-2,12,11,85,69,40,17,3
5,16,10,-11,-2,13,11,86,70,41,17,3
5,16,10,-11,-2,13,10,86,70,41,18,3
6,16,9,-11,-2,12,10,86,70,41,18,3
6,16,9,-12,-1,12,9,86,71,41,18,4
7,17,9,-12,-1,12,8,86,71,41,18,4
7,17,9,-13,-1,12,7,86,71,42,18,4
8,18,9,-13,-1,13,7,86,71,42,18,4
9,19,9,-14,0,13,6,86,71,42,19,5
