leadI,leadII,leadIII,leadaVR,leadaVL,leadaVF,leadV1,leadV2,leadV3,leadV4,leadV5,leadV6
4,4,0,-4,2,1,2,2,1,1,2,1
10,9,-1,-10,6,4,5,6,2,3,4,4
13,12,-1,-12,7,5,7,8,2,5,6,7
11,12,0,-12,6,6,9,10,3,5,6,9
8,11,2,-9,3,6,11,10,3,5,6,10
5,9,3,-7,1,5,11,10,2,5,5,10
5,7,2,-6,1,4,11,10,2,5,5,9
7,7,1,-7,2,4,10,10,2,5,5,7
9,9,0,-9,4,4,9,10,2,5,6,6
11,10,0,-10,5,5,8,10,2,6,7,6
11,11,0,-11,6,5,6,9,1,6,7,7
10,10,0,-9,5,5,5,8,0,5,6,8
7,8,0,-7,4,4,5,7,0,4,5,8
6,7,0,-6,3,4,5,7,-1,3,5,7
5,6,0,-5,3,3,5,6,-1,3,4,7
5,6,0,-5,3,3,5,6,-1,3,4,6
6,7,0,-7,3,4,5,6,-2,3,4,5
8,8,0,-8,4,4,5,6,-2,3,4,4
9,8,0,-9,5,3,4,6,-2,2,4,5
9,7,0,-8,5,3,4,5,-3,1,4,6
7,6,-1,-7,4,2,3,4,-3,2,4,6
6,5,-1,-5,4,2,3,4,-3,2,4,6
4,4,0,-4,2,2,3,4,-3,2,4,6
1,4,1,-2,0,3,4,4,-3,2,4,5
1,4,2,-2,0,3,4,5,-3,2,4,5
3,4,1,-3,1,2,4,4,-3,2,4,4
5,5,0,-4,2,2,4,4,-3,2,3,4
5,5,0,-5,2,2,4,4,-3,2,3,4
4,4,1,-4,1,2,4,4,-3,2,4,5
2,2,0,-2,1,1,4,4,-3,2,4,5
2,1,0,-1,1,0,3,4,-4,1,3,5
1,1,0,-1,1,0,3,3,-4,1,3,5
1,1,0,-1,0,0,4,3,-4,1,3,5
2,2,0,-2,0,1,4,3,-4,1,3,4
2,3,1,-2,0,1,4,3,-4,1,3,4
1,3,2,-2,-1,2,4,3,-3,1,4,5
1,3,2,-1,0,2,4,3,-3,1,3,5
3,2,0,-2,2,1,3,2,-4,0,3,4
3,2,-1,-2,3,0,3,2,-5,0,2,4
0,2,1,-1,0,2,4,2,-4,1,3,4
-4,2,6,1,-4,4,6,3,-3,2,4,5
-7,2,10,2,-8,6,7,5,-2,3,5,6
-7,3,11,2,-9,6,7,5,-2,3,5,6
-5,3,8,0,-6,5,7,4,-3,2,4,5
-3,3,6,0,-5,4,6,3,-4,1,3,4
-3,2,5,1,-4,4,6,2,-4,0,2,4
-3,1,4,1,-3,3,6,2,-5,0,2,4
-4,1,5,2,-4,3,6,3,-5,0,2,5
-5,1,5,2,-5,3,6,3,-5,0,2,5
-3,1,5,1,-4,3,6,3,-5,0,2,5
-2,2,5,0,-3,3,6,3,-5,0,2,5
-2,3,5,0,-3,4,6,3,-4,1,3,5
-2,3,6,0,-3,4,6,3,-4,1,3,6
-2,3,6,0,-4,4,6,3,-4,0,3,6
-3,3,6,0,-4,4,6,3,-4,0,3,6
-3,3,6,0,-5,5,6,3,-4,0,3,6
-3,3,6,0,-5,4,6,2,-5,0,2,6
-3,2,5,0,-5,4,6,2,-5,0,2,6
-2,2,5,0,-4,3,6,3,-5,0,3,6
-2,3,5,0,-4,3,6,3,-4,1,3,7
-2,3,5,0,-3,3,6,3,-4,1,3,7
-2,3,6,0,-4,4,7,3,-4,1,3,7
-3,3,6,0,-4,4,7,4,-4,0,3,7
-4,2,6,0,-4,4,7,4,-4,0,3,7
-4,2,5,0,-4,4,7,4,-5,0,2,7
-4,1,5,0,-4,4,7,4,-5,0,2,7
-3,2,6,0,-4,4,7,4,-5,0,2,7
-2,3,6,-1,-4,5,7,4,-4,0,3,7
-2,3,6,-1,-4,5,7,4,-4,0,3,7
-3,3,6,0,-4,5,7,4,-4,1,3,8
-3,3,7,0,-4,5,7,4,-4,1,3,8
-3,3,7,0,-4,5,7,4,-4,2,3,7
-3,3,7,0,-4,5,7,4,-4,2,3,7
-3,3,6,0,-4,5,7,4,-4,2,3,7
-2,3,6,0,-4,5,7,4,-4,2,3,7
-2,3,6,0,-4,5,8,5,-4,2,3,7
-2,4,6,-1,-4,5,8,5,-4,1,3,7
-2,3,6,-1,-4,5,8,5,-4,1,3,7
-2,3,6,-1,-4,5,8,5,-4,1,3,7
-2,3,6,-1,-4,5,8,5,-4,2,3,7
-2,3,6,0,-4,5,8,5,-3,2,3,6
-2,4,7,0,-4,6,8,5,-3,2,3,6
-2,4,7,0,-4,6,8,5,-3,2,3,6
-2,4,7,0,-4,5,8,5,-3,2,3,6
-2,4,7,0,-5,5,9,5,-3,2,3,6
-3,4,8,0,-5,5,9,5,-2,2,3,6
-3,4,8,0,-6,5,9,5,-2,2,3,6
-3,4,8,0,-5,5,9,5,-2,3,4,6
-2,5,8,-1,-5,5,9,5,-2,3,4,6
-3,5,9,-1,-6,6,8,5,-2,2,3,6
-3,6,10,-1,-7,7,8,4,-2,2,3,7
-3,5,9,-1,-6,7,8,4,-2,2,3,7
-3,3,7,0,-5,5,9,5,-1,3,4,8
-3,3,7,0,-5,5,10,5,-1,3,4,8
-4,3,7,0,-6,5,12,7,-1,2,3,8
-4,2,7,1,-6,4,17,10,-1,1,2,7
-4,1,7,1,-6,4,25,15,0,0,1,6
-5,1,7,2,-6,4,37,21,1,0,0,5
-7,0,8,3,-8,5,50,29,3,-2,-3,3
-8,-1,8,5,-8,4,61,38,3,-5,-5,0
-8,-4,5,6,-7,1,70,49,4,-8,-8,-3
-6,-7,0,6,-3,-3,77,59,4,-10,-11,-6
-3,-10,-6,7,1,-8,82,70,6,-12,-14,-9
0,-12,-12,6,6,-13,84,82,10,-11,-15,-10
7,-12,-18,3,12,-16,84,94,16,-8,-13,-10
14,-9,-22,-2,18,-16,82,105,24,-1,-8,-6
23,-2,-24,-10,23,-13,73,115,34,10,1,1
34,6,-27,-20,30,-10,56,127,49,26,13,12
47,14,-31,-30,38,-8,33,144,70,47,29,24
59,22,-36,-41,47,-7,9,162,94,72,47,38
71,31,-40,-51,55,-4,-17,177,119,98,67,55
84,39,-45,-62,64,-3,-45,183,139,122,85,71
96,45,-51,-71,73,-3,-74,175,151,139,100,85
104,49,-55,-76,79,-2,-100,146,153,151,110,96
106,51,-54,-79,80,0,-122,98,143,155,116,104
105,53,-50,-79,77,2,-139,35,121,149,118,108
100,54,-45,-77,72,5,-153,-25,90,136,115,109
94,55,-37,-75,66,9,-162,-73,55,117,109,108
86,58,-28,-72,57,15,-165,-106,18,93,100,104
77,58,-18,-68,48,20,-162,-126,-15,69,89,98
67,57,-10,-62,39,24,-153,-133,-41,48,77,91
59,55,-3,-57,31,26,-140,-131,-58,34,68,85
50,55,5,-51,22,30,-124,-121,-67,25,60,79
40,52,13,-45,13,33,-106,-106,-68,18,52,71
30,47,18,-37,5,33,-89,-90,-64,11,41,61
22,40,19,-30,1,30,-73,-75,-59,5,31,50
15,33,19,-23,-2,26,-60,-61,-53,1,23,40
7,25,19,-16,-6,22,-47,-49,-46,-2,16,31
1,18,18,-10,-8,18,-36,-38,-40,-4,10,24
-1,12,14,-6,-8,14,-27,-30,-34,-5,6,18
-3,7,11,-2,-7,9,-19,-22,-29,-6,2,13
-6,3,9,2,-8,6,-12,-16,-24,-6,0,9
-9,0,10,5,-10,5,-6,-10,-20,-5,-1,7
-11,0,11,6,-12,6,-1,-6,-16,-4,-1,7
-13,0,13,6,-13,7,2,-3,-13,-2,0,7
-14,1,16,6,-15,9,4,0,-10,0,0,8
-14,2,17,5,-15,10,5,1,-8,0,1,9
-13,3,17,4,-14,10,6,3,-7,1,1,9
-12,4,18,3,-14,11,7,4,-6,1,2,10
-12,5,18,3,-15,11,9,6,-4,2,3,11
-13,5,18,3,-15,12,10,7,-3,3,3,11
-13,5,18,3,-15,12,11,8,-2,3,3,11
-12,5,17,2,-14,12,11,8,-2,2,2,10
-11,5,17,2,-13,12,10,8,-2,2,2,10
-11,5,17,2,-13,12,10,8,-2,1,2,10
-12,5,19,3,-14,12,10,9,-2,1,2,10
-13,6,20,3,-16,13,11,10,-1,2,3,11
-14,6,20,3,-16,12,12,10,-1,2,3,12
-14,5,19,4,-16,11,12,11,-1,1,3,13
-13,5,18,4,-15,11,13,11,-1,1,3,13
-13,5,18,4,-15,11,13,11,-1,2,3,12
-13,5,18,4,-16,12,14,11,-1,3,3,12
-13,5,19,4,-16,12,14,11,0,3,3,12
-13,5,19,4,-15,12,14,11,0,3,3,12
-12,5,18,4,-15,12,13,11,0,2,3,12
-12,5,18,4,-15,12,13,11,0,2,3,12
-13,5,18,4,-16,12,14,11,0,2,3,12
-12,5,17,3,-15,11,14,11,-1,1,2,11
-11,5,16,3,-14,11,13,11,-1,1,2,11
-10,5,16,2,-14,11,13,11,0,2,2,11
-11,5,18,3,-15,12,14,12,0,2,3,12
-13,6,20,3,-16,13,14,12,0,3,3,12
-13,6,21,3,-17,14,15,12,0,3,4,12
-13,6,20,3,-16,13,15,12,0,3,4,12
-12,6,18,3,-15,12,15,12,0,3,4,12
-11,5,16,2,-13,11,15,12,0,3,3,12
-9,6,14,2,-12,11,15,12,0,3,3,12
-9,6,15,1,-12,11,15,12,0,3,3,12
-13,5,19,3,-16,13,16,14,1,4,4,14
-19,4,24,6,-21,14,17,15,2,5,5,15
-20,4,25,7,-22,14,17,14,2,4,5,15
-16,5,22,5,-19,13,17,14,1,4,5,14
-13,6,19,3,-16,12,16,14,1,3,4,14
-11,5,17,2,-14,12,15,14,1,3,4,14
-11,5,16,3,-14,11,15,14,1,3,4,14
-12,5,17,3,-15,12,16,14,1,3,4,14
-12,5,18,3,-15,12,16,14,1,3,4,14
-12,5,18,3,-15,12,16,14,1,3,4,14
-12,5,18,3,-14,11,16,13,1,2,3,13
-11,5,18,3,-14,11,16,14,0,2,4,13
-13,6,19,3,-16,12,16,15,2,4,5,14
-14,6,20,4,-17,13,17,16,3,5,5,15
-13,5,18,4,-16,13,16,16,3,5,5,15
-11,5,17,3,-14,12,16,15,3,5,5,14
-10,6,17,2,-14,13,16,15,3,4,5,14
-11,6,19,2,-15,13,16,15,3,4,5,14
-13,6,20,3,-16,13,16,15,3,4,5,14
-13,6,20,3,-16,13,16,15,2,4,5,14
-13,6,20,3,-16,13,16,16,2,4,5,14
-14,6,20,3,-17,13,16,16,3,4,6,15
-14,5,19,4,-16,13,16,16,3,4,5,15
-12,5,18,3,-15,12,15,16,2,4,5,15
-10,5,16,1,-12,11,15,16,2,4,5,15
-9,6,16,1,-12,11,15,16,2,4,4,15
-11,6,18,1,-14,12,15,16,2,4,4,16
-12,6,19,2,-15,13,15,15,2,4,4,16
-13,6,18,3,-15,12,15,15,2,4,4,16
-12,5,17,3,-14,11,15,15,2,4,4,16
-12,5,16,3,-14,11,15,15,3,4,4,16
-12,5,17,3,-15,11,15,16,3,4,5,16
-15,5,20,4,-17,13,17,17,4,6,7,17
-17,6,23,5,-20,15,18,17,5,7,8,18
-17,6,24,5,-20,15,17,16,4,6,7,18
-14,7,22,3,-18,14,16,15,2,4,5,17
-12,7,20,1,-16,14,15,14,2,4,5,17
-13,8,21,2,-17,14,15,15,3,5,6,17
-13,8,21,2,-17,15,14,15,3,6,6,18
-13,8,20,2,-16,14,14,15,3,6,7,18
-12,8,20,2,-15,14,14,15,3,6,7,18
-12,8,20,2,-15,15,14,15,3,6,7,18
-12,8,21,2,-16,15,14,15,3,6,7,19
-11,8,20,1,-15,14,14,14,3,5,7,19
-10,9,20,0,-14,14,13,14,3,5,7,18
-10,9,20,0,-14,15,13,14,4,5,7,18
-11,9,21,0,-16,16,13,14,4,5,7,19
-13,9,23,1,-18,17,13,15,5,6,8,20
-14,10,25,2,-19,18,13,15,5,7,9,21
-14,10,25,1,-19,18,13,15,5,7,9,21
-12,10,23,0,-17,17,12,14,5,6,8,21
-10,10,22,0,-15,16,11,13,4,6,8,20
-9,10,21,0,-15,16,11,13,5,7,8,20
-9,11,22,-1,-15,17,11,14,6,8,9,20
-10,12,23,-1,-16,18,11,14,7,8,10,21
-11,13,24,-1,-18,19,11,14,7,9,10,22
-12,13,25,-1,-19,19,11,14,7,9,11,22
-13,14,27,-1,-20,20,11,14,8,9,11,22
-14,14,28,0,-21,21,11,14,8,10,12,23
-14,15,29,0,-21,22,11,14,8,10,12,24
-14,15,30,-1,-21,22,10,13,8,10,13,24
-12,17,30,-2,-21,23,9,12,9,10,13,23
-12,18,30,-2,-20,23,9,12,9,11,13,23
-12,18,31,-2,-21,24,9,12,9,11,14,24
-13,18,32,-2,-23,25,9,13,10,12,14,25
-13,19,33,-3,-22,25,8,12,10,12,15,25
-11,19,32,-4,-21,26,7,12,11,13,15,26
-11,20,32,-5,-21,26,7,11,11,14,16,27
-11,21,34,-5,-22,28,7,11,12,15,17,28
-12,22,36,-5,-24,29,7,11,13,16,18,29
-13,23,37,-5,-25,30,7,11,14,17,20,30
-14,24,39,-5,-27,32,7,11,15,18,21,31
-14,25,40,-5,-27,32,6,11,15,18,21,32
-13,27,40,-7,-26,33,5,10,15,19,22,32
-12,28,40,-8,-26,34,4,9,16,19,23,33
-12,29,41,-8,-26,35,4,9,17,20,24,34
-11,30,42,-10,-26,36,3,8,17,21,24,34
-9,33,42,-12,-25,37,1,6,16,21,24,34
-7,34,41,-14,-24,38,0,5,16,21,24,34
-6,34,40,-14,-23,37,0,4,17,23,26,35
-5,33,39,-14,-22,36,0,4,18,24,27,36
-4,34,38,-15,-21,36,0,3,19,24,27,36
-3,34,37,-16,-20,36,-1,3,19,25,28,37
-2,35,36,-17,-19,36,-1,2,19,25,28,38
-2,35,37,-17,-19,36,-2,1,20,26,29,39
-4,36,40,-16,-21,38,-1,1,21,28,30,40
-8,36,45,-14,-26,41,0,2,23,30,33,42
-9,37,47,-14,-28,42,0,2,24,32,34,43
-7,38,46,-15,-26,42,-1,0,24,32,34,43
-4,39,43,-17,-24,41,-2,-1,23,31,34,42
-3,39,42,-18,-22,41,-3,-1,23,31,33,42
-2,39,41,-18,-21,40,-3,-2,23,32,33,42
-3,38,42,-17,-22,40,-2,-2,24,33,34,42
-4,38,42,-17,-22,40,-2,-2,24,33,34,42
-2,38,40,-17,-21,39,-3,-3,24,33,34,41
-1,37,38,-18,-19,38,-3,-4,24,33,34,40
0,36,37,-18,-19,37,-3,-4,24,34,34,40
-1,36,37,-17,-19,37,-3,-4,24,34,34,39
-2,35,36,-16,-19,36,-4,-4,24,33,33,38
-1,34,35,-16,-18,35,-4,-5,24,33,32,37
0,33,34,-16,-17,34,-3,-5,24,33,31,36
-1,32,33,-15,-17,33,-2,-5,23,32,30,35
-1,30,32,-14,-16,31,-2,-5,22,31,28,33
-1,28,30,-14,-15,29,-1,-5,21,30,28,31
-1,26,28,-13,-14,27,-1,-5,21,29,27,29
-2,25,27,-12,-14,25,0,-5,20,28,25,27
-2,23,25,-11,-13,23,0,-5,18,26,23,25
-1,21,22,-10,-11,21,0,-6,16,24,21,23
0,19,20,-9,-9,19,0,-6,14,23,20,20
0,16,18,-8,-8,17,1,-6,12,21,18,18
-1,14,17,-6,-8,15,1,-7,10,19,16,16
-3,12,17,-5,-10,15,2,-7,8,17,15,13
-6,11,18,-3,-12,14,3,-7,7,16,14,11
-7,10,18,-2,-13,14,4,-8,5,14,12,8
-7,10,17,-1,-13,13,4,-9,2,11,10,5
-8,8,17,0,-13,12,4,-10,0,9,8,3
-9,7,16,1,-12,11,4,-11,-2,8,7,0
-9,5,14,2,-11,10,4,-12,-4,6,5,-1
-9,3,13,3,-10,8,4,-13,-6,4,4,-3
-9,1,11,3,-9,6,3,-14,-8,3,3,-6
-8,0,9,3,-8,4,3,-14,-9,2,2,-8
-7,0,7,4,-7,3,3,-15,-9,1,1,-9
-7,-1,5,4,-7,1,3,-16,-10,0,0,-11
-7,-2,4,5,-6,1,3,-16,-12,-1,-1,-13
-7,-2,4,5,-6,1,3,-17,-13,-2,-2,-14
-7,-3,4,5,-6,0,3,-17,-14,-2,-3,-15
-8,-4,4,6,-6,0,3,-18,-15,-3,-3,-16
-10,-5,5,8,-7,0,3,-18,-15,-3,-3,-17
-10,-5,6,8,-8,0,4,-18,-15,-3,-3,-19
-9,-6,4,8,-7,0,3,-19,-16,-4,-4,-20
-9,-6,3,8,-6,-1,3,-20,-17,-5,-5,-22
-10,-7,3,9,-7,-2,3,-20,-17,-6,-5,-23
-12,-7,4,10,-8,-1,3,-20,-16,-5,-5,-23
-13,-8,5,11,-9,-1,3,-19,-16,-5,-5,-23
-13,-9,5,11,-9,-2,3,-19,-17,-6,-6,-24
-13,-9,4,11,-8,-2,3,-19,-17,-6,-6,-24
-13,-9,4,11,-8,-3,3,-19,-17,-6,-6,-24
-13,-9,4,11,-8,-3,3,-19,-17,-6,-6,-25
-13,-10,4,11,-9,-3,3,-19,-17,-6,-6,-25
-13,-10,3,11,-8,-3,3,-20,-18,-6,-6,-25
-13,-10,2,11,-7,-4,3,-20,-18,-7,-7,-26
-12,-10,2,11,-7,-4,3,-20,-18,-7,-7,-27
-12,-10,2,11,-7,-4,2,-20,-18,-7,-8,-28
-12,-10,2,11,-6,-4,2,-20,-18,-8,-8,-28
-12,-10,2,11,-7,-3,2,-20,-18,-8,-8,-28
-12,-10,3,11,-7,-3,2,-20,-18,-8,-7,-28
-12,-10,2,11,-7,-4,2,-19,-18,-8,-7,-28
-12,-10,2,11,-7,-4,2,-19,-18,-8,-7,-28
-14,-10,3,12,-8,-3,3,-19,-17,-7,-7,-27
-14,-10,4,12,-9,-3,3,-18,-17,-7,-7,-27
-14,-10,4,12,-9,-3,3,-18,-16,-7,-7,-26
-14,-10,4,12,-9,-3,3,-18,-16,-7,-7,-25
-14,-10,3,12,-8,-3,3,-17,-16,-7,-7,-25
-12,-10,1,11,-7,-4,3,-17,-16,-7,-7,-25
-11,-10,0,11,-5,-5,2,-17,-16,-7,-8,-25
-12,-10,1,11,-6,-5,2,-17,-15,-7,-7,-24
-16,-10,5,14,-11,-3,4,-15,-14,-6,-6,-22
-20,-10,9,15,-14,-1,5,-14,-12,-5,-5,-21
-18,-10,7,14,-12,-2,4,-15,-13,-6,-6,-21
-13,-10,2,12,-7,-4,3,-16,-14,-7,-7,-22
-11,-10,1,10,-5,-5,3,-16,-14,-8,-8,-22
-11,-10,2,11,-6,-4,4,-15,-13,-7,-7,-21
-13,-10,4,12,-8,-3,4,-14,-11,-6,-6,-20
-14,-10,4,12,-9,-3,4,-13,-11,-5,-6,-20
-14,-10,3,12,-9,-3,4,-13,-11,-5,-6,-20
-14,-9,3,12,-9,-3,4,-13,-11,-6,-6,-20
-12,-9,2,10,-7,-4,4,-13,-11,-6,-6,-20
-10,-9,1,9,-5,-4,4,-13,-11,-7,-6,-20
-11,-8,3,10,-7,-3,4,-13,-10,-6,-5,-20
-13,-8,5,10,-9,-1,5,-12,-9,-5,-5,-19
-12,-7,5,10,-8,-1,5,-11,-8,-5,-4,-19
-10,-7,3,9,-6,-2,5,-12,-8,-5,-5,-19
-9,-7,1,8,-5,-3,4,-12,-8,-6,-5,-19
-9,-7,1,8,-5,-3,4,-12,-8,-6,-5,-19
-8,-6,1,7,-5,-2,4,-12,-8,-6,-5,-19
-8,-5,2,7,-5,-1,5,-11,-7,-5,-5,-18
-8,-5,3,7,-6,-1,5,-10,-6,-4,-4,-17
-9,-5,3,7,-6,-1,6,-10,-6,-4,-4,-17
-9,-5,3,7,-6,-1,6,-10,-5,-4,-4,-17
-8,-5,2,7,-5,-1,6,-10,-5,-3,-4,-17
-8,-4,3,6,-5,-1,6,-9,-4,-3,-3,-16
-7,-4,3,6,-5,-1,7,-9,-4,-3,-3,-15
-6,-4,1,5,-4,-2,6,-9,-4,-4,-4,-16
-6,-4,2,5,-4,-1,6,-9,-3,-4,-4,-16
-10,-4,6,7,-8,0,8,-8,-2,-2,-3,-14
-13,-3,10,8,-11,2,9,-7,0,-1,-2,-13
-12,-3,9,7,-10,3,9,-7,0,-1,-2,-13
-9,-2,8,5,-8,3,8,-7,0,-2,-2,-13
-7,-1,6,4,-7,2,7,-7,0,-2,-2,-13
-7,-1,5,4,-6,2,7,-7,0,-2,-2,-13
-7,-2,5,4,-6,1,8,-6,0,-2,-2,-13
-6,-2,4,5,-5,1,8,-6,0,-2,-2,-13
-5,-2,3,4,-4,0,7,-6,0,-3,-2,-13
-2,-2,0,2,-1,-1,6,-7,-1,-4,-3,-14
0,-2,-2,1,1,-2,6,-7,-1,-4,-4,-15
0,-1,0,1,0,-1,6,-7,-1,-4,-3,-15
-3,0,3,2,-3,1,7,-6,0,-3,-2,-14
-7,0,7,3,-7,3,9,-4,2,-2,-1,-12
-9,0,9,4,-9,4,9,-4,2,-1,0,-11
-9,1,10,4,-10,6,9,-4,2,-1,-1,-12
-7,2,9,3,-8,6,8,-5,2,-2,-2,-12
-5,1,6,2,-5,3,8,-5,2,-2,-2,-12
-4,-1,3,3,-3,1,9,-4,2,-2,-1,-12
-4,-1,3,3,-3,1,9,-4,2,-2,-1,-12
-4,0,3,2,-3,1,8,-4,2,-2,-1,-12
-3,0,3,2,-3,1,8,-4,2,-3,-2,-12
-3,-1,2,2,-3,1,8,-4,2,-3,-2,-12
-3,-1,2,2,-3,0,8,-4,2,-3,-2,-12
-2,0,1,1,-2,0,7,-4,2,-3,-2,-12
-1,0,1,1,-1,0,7,-4,1,-4,-3,-12
-2,0,1,1,-1,1,7,-4,1,-4,-3,-11
-2,0,2,1,-2,1,7,-4,1,-3,-3,-11
-1,1,2,0,-2,2,7,-3,1,-3,-3,-11
-2,1,4,0,-3,3,7,-3,2,-3,-3,-11
-3,2,5,0,-4,3,7,-3,2,-3,-3,-10
-3,2,4,0,-4,3,7,-3,2,-3,-3,-10
-2,2,4,0,-3,3,7,-3,2,-3,-3,-10
-2,2,4,0,-3,3,7,-2,2,-2,-3,-9
-2,2,4,0,-3,3,7,-2,2,-2,-3,-9
-1,2,4,0,-3,3,7,-2,2,-3,-3,-9
-1,2,4,0,-3,3,7,-1,2,-2,-2,-8
-4,1,6,1,-5,4,8,0,3,-1,-2,-7
-7,1,8,3,-7,5,8,0,3,-1,-1,-7
-6,1,7,2,-6,4,8,0,3,-2,-2,-7
-4,1,4,1,-4,3,7,-1,3,-3,-3,-8
-2,1,3,0,-2,2,6,-1,2,-3,-3,-8
-1,1,3,0,-2,2,6,-1,2,-3,-3,-8
-1,2,3,0,-2,2,6,-1,2,-3,-3,-8
-1,2,2,-1,-1,2,6,-1,1,-4,-3,-8
0,2,2,-1,-1,2,6,-1,1,-4,-4,-8
0,2,2,-1,-1,2,6,-1,1,-4,-4,-8
0,2,2,-1,-1,2,6,-1,1,-4,-4,-8
-2,2,4,0,-3,3,6,-1,2,-4,-3,-7
-3,3,6,0,-5,4,7,0,3,-3,-2,-6
-5,3,8,1,-6,5,7,0,3,-3,-2,-5
-6,2,8,1,-7,5,7,0,4,-3,-2,-5
-6,2,8,1,-7,5,7,1,4,-3,-2,-5
-5,2,7,1,-6,5,7,1,4,-3,-2,-5
-3,2,5,0,-3,3,6,0,3,-3,-3,-5
-1,2,2,-1,-1,2,5,0,2,-4,-4,-6
0,3,1,-1,0,2,5,-1,2,-5,-5,-7
0,3,2,-2,0,3,5,-1,2,-5,-5,-7
-1,3,4,-1,-3,4,5,0,2,-4,-4,-6
-5,3,9,1,-7,6,7,1,4,-3,-3,-5
-7,3,11,1,-9,7,7,1,4,-2,-3,-4
-6,3,10,0,-8,7,7,1,4,-2,-3,-4
-4,3,8,0,-6,6,7,1,4,-2,-3,-5
-3,3,7,0,-5,6,7,1,4,-3,-3,-5
-1,3,4,-1,-2,4,6,0,3,-4,-4,-6
2,3,1,-2,0,3,5,0,2,-5,-5,-7
4,3,0,-3,2,2,5,-1,1,-5,-6,-7
3,3,0,-3,1,2,5,-1,1,-6,-6,-6
0,3,3,-1,-2,3,6,0,2,-5,-5,-5
-3,3,7,0,-5,5,7,0,4,-4,-4,-4
-4,3,8,0,-6,5,7,1,4,-3,-3,-4
-5,3,8,0,-7,6,7,1,4,-3,-3,-3
-5,3,7,0,-6,6,7,1,4,-3,-3,-3
-4,3,6,0,-5,6,7,1,4,-3,-3,-3
-3,4,6,0,-4,6,7,1,4,-3,-3,-3
-1,5,5,-1,-3,5,6,0,4,-3,-4,-3
0,5,4,-2,-2,5,6,0,4,-4,-4,-4
2,6,3,-3,0,4,5,0,3,-4,-5,-5
4,6,1,-4,1,3,5,-1,3,-5,-5,-5
5,6,0,-5,2,3,5,-1,3,-5,-5,-5
5,6,0,-5,2,3,5,0,3,-4,-5,-5
3,6,2,-4,0,4,6,0,4,-3,-4,-4
2,6,4,-3,-1,5,7,1,5,-2,-3,-4
2,7,3,-4,0,5,6,0,5,-2,-3,-4
4,7,2,-5,1,4,6,0,5,-3,-4,-4
4,7,2,-6,1,4,7,0,5,-3,-4,-4
3,7,3,-5,0,4,7,1,6,-2,-4,-4
1,7,5,-4,-1,5,8,2,7,-1,-3,-3
0,7,5,-3,-2,5,8,2,7,-1,-2,-2
0,6,5,-3,-3,6,8,2,7,-1,-2,-2
1,6,5,-3,-2,6,8,1,6,-1,-2,-3
1,6,4,-4,-2,6,8,1,6,-1,-2,-3
2,7,4,-5,-1,6,8,1,6,-1,-2,-3
3,7,4,-5,-1,6,8,2,7,-1,-2,-3
3,7,4,-5,-1,6,8,2,7,-1,-2,-3
4,8,3,-5,0,5,8,2,7,-1,-2,-3
6,8,1,-7,2,5,8,1,6,-2,-3,-3
7,8,1,-7,3,5,8,1,6,-2,-3,-3
7,9,1,-7,3,6,8,1,7,-1,-3,-3
7,9,2,-7,2,6,8,2,8,0,-2,-3
6,8,2,-7,2,5,9,2,8,0,-2,-3
7,8,1,-7,2,5,9,2,8,0,-2,-3
7,8,0,-7,3,4,9,2,8,0,-2,-3
8,8,0,-7,4,4,9,2,8,0,-2,-4
7,8,0,-7,3,4,9,2,9,0,-2,-3
6,8,1,-6,2,4,9,2,9,0,-2,-3
7,7,0,-7,3,4,8,2,8,0,-2,-3
8,7,-2,-7,5,3,8,2,8,0,-2,-3
9,7,-2,-8,6,2,8,1,8,0,-2,-3
9,8,-1,-8,5,3,8,1,8,0,-1,-2
7,9,1,-8,3,5,9,2,9,1,0,-2
6,9,2,-8,2,6,9,2,9,1,0,-2
7,9,2,-8,2,6,9,2,9,1,0,-2
8,9,1,-9,4,5,9,2,9,1,0,-1
8,9,1,-9,4,5,9,2,9,1,0,-1
8,10,1,-9,4,6,10,3,10,2,1,0
8,10,2,-9,3,6,10,3,10,2,1,0
8,10,2,-9,3,6,9,3,10,1,0,0
9,11,2,-10,4,7,9,3,9,0,0,0
10,11,1,-10,4,6,9,3,9,1,0,0
10,10,0,-10,5,5,9,3,10,2,1,1
10,9,0,-10,6,4,9,3,10,2,1,1
12,9,-2,-10,7,3,9,3,9,1,0,1
13,9,-4,-11,8,3,8,2,9,1,0,0
12,9,-4,-11,8,3,8,3,10,1,0,0
10,9,-2,-10,6,3,9,4,11,2,0,1
7,9,1,-8,2,5,10,5,12,3,2,3
5,10,4,-7,0,6,11,6,13,4,2,3
6,10,4,-8,0,6,11,6,12,4,2,2
7,11,4,-9,1,7,10,5,11,3,1,2
9,12,3,-10,2,8,10,4,10,3,1,2
11,12,2,-11,4,8,9,3,10,2,0,2
12,12,0,-12,5,7,9,3,10,2,0,1
12,12,0,-12,6,6,8,3,10,1,0,1
12,12,-1,-12,7,5,8,3,10,1,0,1
12,11,-2,-12,7,4,8,4,10,1,0,1
12,11,-2,-12,7,4,8,4,10,1,0,1
13,11,-2,-12,7,4,8,4,11,2,0,1
12,10,-2,-11,7,4,8,4,11,2,0,1
12,10,-2,-11,7,4,9,4,12,2,0,2
12,9,-3,-10,7,3,10,4,12,2,0,2
11,9,-2,-10,7,3,10,4,12,2,0,2
9,8,-1,-9,5,4,10,4,12,2,1,2
8,8,0,-8,4,4,10,4,12,2,1,2
7,7,0,-7,3,4,10,4,11,2,1,2
6,7,1,-6,2,4,10,4,11,2,1,3
5,6,2,-5,1,4,11,4,11,2,0,3
5,6,1,-5,2,4,10,4,11,1,0,3
6,7,0,-6,3,3,10,3,10,1,0,1
7,7,0,-7,4,4,9,3,10,1,0,0
7,8,0,-7,4,4,9,3,11,1,0,0
8,8,0,-8,4,4,9,3,11,0,0,0
9,8,-1,-9,5,4,9,3,11,0,0,0
9,9,-1,-9,5,4,9,3,11,0,0,0
10,9,-1,-9,6,4,9,3,11,0,0,0
9,9,-1,-9,5,4,9,4,11,0,0,0
9,9,0,-8,4,4,9,4,11,1,0,0
8,9,0,-8,4,4,9,4,11,1,0,0
9,9,0,-9,5,4,9,4,11,1,0,0
11,9,-2,-10,6,3,8,4,11,1,0,0
12,9,-3,-11,7,3,8,4,11,1,0,0
12,9,-3,-11,8,3,8,4,11,1,-1,0
13,9,-3,-12,8,3,8,4,11,1,-1,0
14,10,-3,-12,9,3,8,4,10,0,-1,0
13,10,-2,-12,8,4,8,4,10,0,-1,0
12,11,0,-11,6,6,9,5,11,1,0,1
10,12,3,-11,3,8,10,6,12,2,1,2
8,12,4,-10,2,9,10,6,13,3,1,4
7,12,4,-10,2,9,10,6,13,3,1,4
9,12,3,-11,3,8,10,6,13,3,1,3
10,12,2,-11,5,7,10,6,13,2,1,3
11,12,1,-12,5,7,10,5,13,2,1,3
12,13,1,-12,5,8,9,5,13,2,1,3
11,13,2,-12,4,8,9,5,13,3,1,3
10,14,4,-12,3,9,10,5,13,3,1,3
10,14,5,-12,2,9,10,6,13,3,1,4
10,15,5,-13,2,10,10,6,13,3,2,4
11,15,4,-14,3,10,10,6,13,3,2,4
11,16,4,-14,3,10,10,6,14,3,2,5
11,16,4,-13,3,11,11,7,15,4,3,5
11,16,4,-13,3,11,11,7,15,4,2,5
13,16,3,-14,4,10,11,7,15,4,2,4
13,16,3,-14,5,9,12,8,15,4,2,4
12,16,3,-14,4,9,12,8,16,4,2,4
12,15,3,-14,4,9,13,8,15,5,2,5
13,15,1,-14,6,8,13,8,15,4,2,4
15,14,-1,-15,8,7,13,8,15,4,2,4
13,14,0,-14,6,7,13,9,16,5,3,4
11,13,3,-12,4,8,14,10,17,6,4,6
10,13,3,-11,4,8,14,10,17,6,4,6
13,13,0,-13,6,6,12,9,16,5,3,4
16,14,-2,-15,9,5,11,7,15,4,1,3
18,14,-3,-16,10,5,10,7,14,4,1,3
17,14,-2,-16,10,6,10,7,14,4,1,4
16,14,-2,-15,9,6,11,8,15,5,2,4
14,14,0,-14,7,7,11,8,15,5,2,5
12,14,2,-13,5,8,11,9,16,5,3,6
11,14,2,-12,4,7,10,8,15,5,3,6
13,13,0,-13,6,6,8,7,14,4,2,6
14,12,-2,-13,8,5,7,6,14,4,2,5
15,12,-3,-13,9,4,5,5,13,4,1,5
15,11,-4,-13,10,4,5,5,12,4,1,5
16,12,-4,-14,10,4,5,4,12,4,1,5
17,13,-4,-15,11,4,4,4,12,3,1,5
17,13,-4,-15,11,4,4,4,12,3,1,5
15,12,-3,-13,9,4,4,3,12,2,1,5
13,11,-2,-12,8,5,5,4,12,3,1,5
13,11,-2,-12,8,5,5,4,12,3,1,5
15,11,-3,-13,9,4,4,3,11,2,0,4
15,11,-4,-13,10,4,4,2,11,2,0,4
14,11,-2,-12,8,4,4,3,11,3,1,4
12,10,-1,-11,6,4,5,3,11,3,1,4
11,10,-1,-10,6,3,5,2,10,2,0,3
11,9,-3,-10,7,2,4,1,9,1,0,3
12,8,-4,-10,7,2,4,1,9,0,-1,2
12,9,-4,-10,7,2,4,1,9,0,-1,2
11,9,-2,-10,6,3,5,2,10,1,-1,2
9,9,0,-9,5,4,5,3,11,2,0,3
9,8,-1,-9,5,4,5,3,11,2,0,3
11,8,-3,-10,7,2,4,2,10,1,-1,2
11,8,-3,-10,8,2,4,2,9,1,-1,1
9,7,-2,-8,6,2,4,2,9,1,0,2
9,7,-2,-8,6,2,5,2,9,1,-1,2
11,7,-4,-9,7,1,4,1,9,1,-1,2
12,7,-5,-9,8,1,4,1,9,1,-2,1
12,7,-5,-9,8,1,4,2,9,1,-2,1
10,7,-1,-8,5,3,5,3,10,1,-1,2
4,8,5,-6,0,7,7,4,11,3,0,3
0,8,9,-4,-4,8,8,5,12,4,1,4
2,8,6,-5,-2,7,7,4,11,2,0,3
6,7,1,-6,2,4,6,2,9,0,-1,2
8,7,-1,-7,5,3,6,1,8,0,-2,1
8,8,-1,-8,5,4,6,1,8,-1,-3,0
8,8,0,-8,4,4,6,1,8,-1,-3,0
9,7,-1,-8,5,3,6,1,8,-1,-3,0
10,5,-4,-8,7,1,6,1,7,-1,-3,0
11,6,-4,-9,8,1,6,1,7,-1,-3,-1
9,6,-2,-8,6,2,6,2,8,0,-3,-1
7,6,0,-7,3,4,7,3,9,0,-2,0
5,6,1,-5,2,4,7,3,10,1,-1,1
5,6,0,-5,2,4,7,3,10,1,-1,0
7,6,0,-6,3,4,7,2,10,0,-2,0
8,6,-1,-6,5,3,6,1,9,0,-2,0
8,6,-2,-6,5,2,6,1,9,0,-2,-1
8,6,-2,-6,5,2,7,1,8,0,-3,-1
8,6,-1,-7,5,2,7,1,8,0,-3,-1
6,6,0,-6,3,3,7,1,9,0,-3,0
5,7,2,-6,1,4,7,2,9,0,-3,0
5,7,2,-6,1,4,7,2,9,0,-3,0
6,7,0,-6,3,4,7,1,8,0,-3,0
9,7,-2,-8,5,2,6,0,7,0,-4,-1
11,7,-4,-9,7,2,6,0,7,-1,-4,-1
10,7,-4,-8,7,2,6,0,7,-1,-4,-1
8,6,-2,-7,5,2,6,0,7,-1,-4,-1
5,6,1,-6,2,4,6,1,8,0,-3,0
2,6,4,-5,-1,5,7,2,9,1,-2,1
0,7,6,-4,-3,6,7,3,10,2,-2,2
2,7,5,-5,-2,6,7,2,9,1,-2,1
5,8,3,-6,1,5,7,2,9,0,-3,0
7,8,0,-7,4,4,7,2,8,0,-3,0
7,7,0,-6,4,3,7,2,9,0,-2,0
5,7,0,-6,3,3,7,2,9,1,-2,0
4,6,1,-5,2,3,7,2,9,0,-2,0
5,5,0,-5,2,2,6,2,9,0,-3,0
6,5,0,-5,3,2,6,1,8,0,-3,0
6,5,0,-5,2,2,6,1,8,0,-3,0
5,5,1,-5,1,3,7,2,8,0,-2,1
3,6,3,-4,0,5,7,3,8,1,-2,2
2,6,5,-4,-1,6,7,3,8,1,-2,2
1,7,5,-4,-1,6,7,3,8,1,-1,2
1,7,5,-5,-1,6,7,3,8,1,-1,1
1,6,5,-5,-1,5,7,3,9,1,-1,1
2,6,4,-5,-1,5,7,3,9,0,-1,1
3,6,3,-5,0,5,8,3,9,0,-2,1
4,6,2,-5,1,5,8,3,9,1,-2,1
4,6,1,-5,1,4,8,3,9,1,-2,1
5,7,1,-6,2,4,8,2,9,0,-2,1
6,7,1,-6,2,4,7,2,9,0,-3,1
7,7,0,-7,3,4,7,2,9,0,-3,0
7,7,0,-7,3,3,7,2,9,0,-3,0
7,7,0,-7,3,3,6,2,8,0,-3,0
7,8,0,-7,3,4,6,1,8,0,-3,0
7,8,1,-7,3,5,7,1,8,0,-2,0
7,8,1,-7,3,5,7,2,9,0,-2,1
7,8,0,-7,4,5,9,4,9,0,-3,1
8,7,-1,-8,5,3,13,7,9,-1,-4,0
9,6,-2,-8,6,2,20,11,10,-3,-6,-3
7,6,-1,-7,4,2,31,18,12,-4,-7,-4
4,5,1,-5,1,3,45,26,15,-6,-9,-6
3,4,0,-4,1,2,57,36,16,-8,-12,-9
5,0,-5,-3,5,-2,66,45,17,-11,-15,-12
7,-4,-12,-2,10,-8,72,55,17,-13,-18,-15
10,-7,-18,-1,14,-12,78,64,19,-14,-19,-17
14,-9,-24,-3,19,-16,81,74,24,-12,-19,-18
20,-8,-29,-6,25,-18,83,84,30,-8,-17,-17
27,-3,-30,-12,28,-16,82,92,38,0,-10,-12
36,5,-30,-21,33,-12,75,100,49,12,0,-4
48,15,-33,-32,40,-9,61,109,64,30,12,7
62,24,-38,-43,50,-7,38,121,84,53,29,20
76,32,-43,-54,59,-5,12,134,106,80,49,36
88,41,-46,-64,67,-2,-14,144,127,107,70,54
99,48,-51,-73,75,-1,-41,145,142,129,87,69
107,53,-54,-80,81,0,-68,132,149,145,100,81
111,58,-53,-84,82,2,-92,104,147,154,110,91
111,61,-49,-86,80,6,-112,59,133,156,116,99
106,64,-42,-85,74,11,-128,5,109,149,118,104
98,67,-31,-83,64,18,-139,-46,79,136,118,108
89,69,-19,-80,54,25,-147,-87,46,117,113,109
81,70,-9,-77,45,31,-151,-115,10,91,103,106
74,70,-3,-73,39,34,-149,-132,-21,64,90,99
67,69,2,-68,32,37,-141,-136,-44,43,77,90
59,70,11,-64,24,41,-129,-130,-58,28,67,83
51,69,18,-60,16,44,-113,-119,-64,18,57,75
42,65,23,-54,9,44,-97,-104,-63,9,46,65
34,58,24,-46,4,41,-81,-88,-58,2,35,54
29,50,22,-40,3,36,-67,-73,-52,-2,26,43
25,42,17,-34,3,30,-55,-61,-45,-5,17,33
21,34,13,-28,3,24,-44,-50,-38,-7,10,25
17,27,10,-22,3,20,-35,-40,-31,-8,5,18
13,22,9,-17,2,16,-26,-31,-25,-9,0,11
10,17,7,-13,1,12,-18,-24,-19,-9,-2,6
7,13,6,-9,0,10,-11,-17,-13,-8,-4,4
4,11,7,-7,-1,9,-4,-11,-8,-6,-4,2
4,11,7,-7,-1,9,0,-7,-5,-5,-4,2
5,11,6,-9,0,9,2,-4,-2,-4,-3,1
7,12,5,-10,0,9,3,-2,0,-3,-3,1
8,14,6,-11,0,10,4,-1,3,-2,-2,2
9,15,6,-12,1,11,5,1,5,-1,-2,2
10,16,6,-12,1,11,6,2,6,0,-1,2
11,16,5,-13,3,11,7,3,7,0,-1,2
11,16,4,-13,4,10,8,4,8,0,-1,2
11,16,4,-13,4,10,9,5,8,0,-1,2
11,16,5,-13,3,10,10,5,8,1,-1,1
10,16,5,-13,3,11,11,6,9,1,-1,1
10,15,6,-13,2,11,12,6,9,0,-1,2
9,15,6,-12,2,11,12,7,9,0,-1,2
9,15,6,-12,2,11,12,7,9,0,-1,1
10,16,6,-12,2,11,12,7,9,0,-1,1
10,16,6,-13,2,11,12,7,9,0,-1,1
10,16,6,-13,2,11,12,7,9,0,-1,1
10,16,6,-13,2,11,13,8,10,0,-1,1
9,16,6,-12,1,11,14,8,10,0,-1,1
9,15,6,-12,1,10,14,9,10,0,-1,2
10,16,6,-13,2,11,14,8,10,0,-1,1
11,17,6,-14,2,12,14,8,10,0,-1,0
10,17,7,-13,1,12,15,9,11,0,0,1
10,16,6,-12,2,11,16,10,12,2,0,2
10,15,5,-12,3,10,16,10,12,2,0,2
11,15,3,-12,4,9,15,9,11,1,0,2
11,15,3,-12,4,9,15,9,11,1,0,2
11,15,3,-12,4,9,15,9,11,1,0,2
12,15,3,-13,4,9,15,9,10,0,0,2
13,15,1,-14,6,8,14,9,10,0,-1,1
15,15,-1,-15,8,7,14,9,10,0,-1,0
15,15,-1,-15,8,7,14,9,10,0,0,0
13,15,1,-14,6,7,14,9,11,1,0,1
11,15,3,-12,4,8,15,10,12,2,0,2
9,15,5,-12,2,9,16,11,12,2,1,3
8,15,6,-12,1,10,16,11,13,3,1,4
7,15,7,-11,0,11,17,12,13,3,2,4
8,14,5,-12,1,10,17,12,13,3,2,4
10,14,3,-13,3,9,16,12,13,3,2,4
11,15,3,-13,4,9,16,12,13,3,2,4
11,15,3,-13,4,9,16,12,13,3,2,4
12,15,3,-13,4,9,16,11,13,2,1,4
13,15,2,-14,5,9,15,11,13,2,1,4
14,15,1,-15,6,8,15,11,12,2,0,4
14,15,0,-15,7,8,15,11,12,2,0,4
15,15,0,-15,7,8,14,10,12,2,0,4
16,16,0,-16,8,8,14,10,12,2,0,3
16,16,0,-16,7,8,14,11,13,2,0,3
14,16,2,-15,5,9,14,11,14,3,1,4
11,16,4,-13,3,9,15,12,15,4,2,5
10,16,5,-12,2,10,16,13,15,4,2,5
10,15,4,-12,3,10,16,13,15,4,2,5
12,14,2,-13,5,8,15,13,15,4,2,5
11,13,1,-12,5,8,16,13,16,4,2,6
9,13,3,-11,2,9,16,14,17,5,3,6
8,13,4,-10,1,9,17,15,17,6,3,6
9,13,4,-10,2,8,17,14,17,6,3,6
10,12,3,-11,4,7,16,14,17,5,2,5
12,13,1,-12,6,6,15,13,16,4,1,5
13,13,0,-13,7,6,15,12,15,4,1,4
14,14,0,-13,7,6,15,12,15,4,1,4
14,14,0,-13,7,7,15,12,15,4,1,4
14,14,0,-14,7,7,14,12,15,3,1,4
15,15,0,-15,7,8,14,12,16,4,1,4
15,16,1,-15,7,9,14,13,16,5,1,5
15,16,1,-15,7,8,14,13,17,5,1,5
15,16,0,-15,8,8,14,12,16,4,1,5
17,16,0,-16,9,7,13,12,16,4,1,4
18,17,-1,-17,10,8,13,12,16,3,1,4
16,17,0,-16,8,9,13,13,16,4,1,5
13,17,4,-15,4,10,14,14,18,5,3,6
9,17,7,-13,1,12,15,15,19,7,4,7
7,17,9,-11,-1,13,16,16,20,8,5,7
6,16,10,-11,-2,13,17,16,21,8,6,8
7,16,8,-11,-1,12,17,16,21,8,6,8
9,16,6,-12,1,11,16,15,20,8,5,7
11,16,4,-13,3,10,16,15,20,7,5,7
13,16,3,-14,4,10,15,15,20,7,4,7
14,17,3,-15,5,10,14,14,19,6,4,7
14,17,3,-16,5,10,13,13,19,6,3,6
15,18,3,-16,5,10,12,13,19,6,3,6
15,18,3,-16,5,11,12,13,19,6,3,6
15,18,3,-16,5,11,12,13,19,6,4,7
15,19,3,-17,6,12,12,13,19,7,4,8
16,21,4,-18,5,13,12,13,19,7,5,8
15,22,6,-18,4,14,13,14,21,8,6,9
13,22,8,-17,2,15,13,14,22,9,7,10
13,22,8,-17,2,15,13,14,22,9,8,11
14,22,8,-18,2,15,12,14,22,9,8,11
14,22,8,-18,3,15,12,14,22,9,8,11
14,23,9,-18,3,16,12,14,22,10,8,11
14,23,9,-18,2,16,12,14,23,10,9,11
14,23,10,-18,2,16,12,14,24,11,10,11
14,24,10,-18,2,17,12,15,25,12,11,12
13,24,11,-18,1,17,12,15,25,12,11,13
13,24,11,-18,1,17,12,15,26,13,12,14
14,24,10,-19,2,17,12,15,26,14,13,14
15,25,10,-19,2,17,11,14,26,14,13,14
15,26,11,-20,2,18,11,14,26,14,13,15
16,26,11,-20,2,19,10,14,26,15,14,15
16,27,12,-21,2,19,10,14,27,16,15,16
16,28,12,-22,1,20,10,14,28,17,16,16
16,30,13,-23,1,21,10,14,28,17,17,17
17,31,13,-24,1,22,9,13,29,18,18,19
18,32,14,-25,2,23,8,13,30,18,19,19
19,33,14,-26,2,23,8,13,30,19,19,20
20,34,13,-27,3,23,7,13,31,20,20,21
22,35,13,-28,4,24,7,13,31,21,20,22
23,35,13,-29,4,25,6,12,31,22,21,23
22,36,16,-29,2,26,6,12,32,23,23,24
20,38,18,-29,1,28,5,12,33,25,25,25
18,39,21,-29,-1,30,5,12,34,26,26,27
16,41,24,-29,-3,32,5,12,36,28,28,29
17,42,24,-29,-3,32,4,12,36,29,29,29
18,42,24,-30,-2,33,3,12,37,30,29,30
19,43,25,-31,-3,34,3,12,38,31,31,31
20,44,25,-31,-3,35,3,12,38,32,32,33
21,44,24,-32,-2,35,2,11,39,33,32,33
21,45,24,-33,-2,35,1,10,39,34,33,33
23,45,22,-35,0,34,0,9,39,34,33,34
27,46,19,-36,4,32,-1,8,39,34,33,34
27,47,19,-37,4,33,-1,8,39,35,34,34
26,47,22,-36,2,35,-1,8,40,37,35,36
25,48,23,-36,1,36,-2,8,41,38,36,37
24,48,25,-36,0,37,-2,8,41,39,37,38
23,48,26,-35,-1,37,-2,8,42,40,38,38
25,48,24,-36,0,36,-2,8,42,40,38,38
28,49,20,-38,3,35,-3,7,41,39,38,38
30,49,19,-39,5,34,-3,6,41,39,37,38
30,49,19,-39,5,34,-3,6,42,40,37,38
30,49,19,-39,6,33,-3,6,42,40,37,38
30,49,19,-39,6,33,-3,7,43,40,37,38
29,48,19,-38,6,33,-3,7,43,40,37,37
29,47,18,-38,6,32,-3,7,43,40,36,36
30,46,17,-37,6,32,-3,7,43,40,35,35
29,45,16,-37,6,31,-2,8,43,39,34,34
28,44,16,-36,6,30,-2,9,43,39,33,34
28,43,15,-35,6,29,-1,9,42,38,32,32
28,42,14,-34,7,27,-1,10,41,37,30,30
28,39,11,-33,8,24,0,10,40,36,29,29
28,35,7,-32,10,20,0,11,39,35,27,27
28,32,4,-31,11,18,0,10,37,32,25,25
29,31,2,-30,13,16,1,10,34,30,22,22
29,29,0,-30,15,14,1,9,32,27,20,20
28,27,-2,-28,15,13,2,8,30,25,18,18
24,25,0,-24,12,13,3,9,29,24,17,17
18,24,5,-20,7,14,5,10,28,23,17,16
13,22,9,-17,2,15,7,11,28,23,17,16
11,20,9,-15,1,14,7,11,25,21,15,15
13,18,5,-15,4,11,6,9,22,17,11,12
16,17,1,-16,7,9,6,8,19,14,9,9
16,15,-1,-15,8,7,6,7,18,12,7,7
17,14,-3,-15,10,6,6,7,16,11,6,6
18,13,-5,-14,11,4,6,6,15,10,5,6
18,11,-7,-14,12,2,5,5,12,8,3,4
19,10,-9,-14,14,0,4,3,10,5,1,2
19,9,-10,-13,14,0,4,2,8,4,0,1
16,8,-8,-12,12,0,4,2,7,3,0,1
13,7,-6,-10,9,0,5,3,7,3,0,1
12,7,-5,-9,8,0,5,3,7,3,0,0
13,6,-7,-9,9,-1,5,2,6,2,-1,0
14,5,-9,-9,11,-2,5,1,5,1,-2,-1
14,4,-10,-9,12,-3,5,1,4,0,-2,-1
14,3,-10,-8,12,-4,5,1,4,0,-3,-2
12,3,-9,-7,11,-3,5,1,4,0,-3,-2
10,2,-7,-6,8,-2,5,1,4,0,-3,-2
9,2,-7,-6,8,-2,5,0,3,-1,-3,-2
11,1,-9,-6,9,-3,5,0,2,-2,-4,-3
11,1,-10,-6,10,-4,5,0,1,-2,-5,-4
11,0,-11,-5,11,-4,4,-1,1,-2,-5,-4
12,0,-12,-5,12,-5,4,-1,0,-3,-5,-4
13,0,-12,-6,12,-5,3,-2,0,-3,-6,-5
13,0,-12,-6,12,-5,3,-2,0,-3,-6,-5
12,0,-11,-6,11,-5,2,-3,0,-4,-6,-5
11,0,-10,-5,10,-5,2,-3,-1,-4,-6,-5
11,0,-11,-5,10,-5,2,-4,-1,-5,-7,-6
11,0,-11,-5,11,-6,2,-4,-1,-5,-7,-7
11,0,-11,-5,11,-5,2,-4,-1,-5,-7,-6
10,0,-11,-4,11,-5,2,-3,-1,-5,-7,-6
12,-1,-13,-5,12,-7,2,-4,-2,-5,-8,-7
13,-2,-15,-5,14,-8,1,-5,-3,-6,-8,-8
11,-2,-14,-4,13,-8,2,-5,-2,-6,-8,-8
6,-3,-10,-2,8,-7,3,-4,-1,-5,-7,-6
2,-4,-7,0,5,-6,4,-3,0,-4,-7,-6
1,-4,-6,1,4,-5,4,-2,0,-4,-7,-6
2,-4,-7,1,5,-6,4,-3,-1,-5,-7,-6
3,-5,-8,1,6,-6,4,-3,-1,-5,-7,-6
3,-5,-9,1,6,-7,4,-3,-1,-5,-7,-7
5,-6,-11,0,8,-8,3,-3,-1,-5,-8,-8
7,-6,-13,0,10,-10,2,-4,-2,-6,-8,-9
7,-6,-14,0,11,-11,2,-4,-2,-6,-9,-9
7,-6,-15,0,11,-11,1,-5,-2,-7,-9,-9
6,-6,-14,0,10,-11,1,-5,-2,-7,-9,-9
5,-7,-12,1,8,-10,2,-4,-2,-7,-9,-9
4,-7,-11,1,8,-10,2,-4,-2,-7,-9,-9
4,-7,-11,1,8,-10,2,-4,-2,-7,-9,-9
5,-7,-12,1,8,-9,2,-4,-2,-7,-9,-9
4,-7,-11,1,8,-9,2,-4,-1,-7,-9,-9
2,-7,-9,2,6,-8,3,-4,0,-6,-8,-8
0,-8,-8,3,4,-8,4,-3,0,-6,-8,-8
0,-8,-8,4,4,-8,4,-3,0,-6,-8,-8
0,-9,-10,4,5,-9,3,-3,0,-6,-8,-9
2,-9,-11,4,6,-10,2,-3,0,-6,-8,-9
2,-9,-12,3,7,-10,2,-3,0,-6,-8,-9
3,-8,-12,3,7,-10,2,-3,0,-6,-8,-10
4,-8,-12,2,8,-10,2,-3,0,-6,-8,-10
5,-8,-12,1,8,-10,2,-3,0,-6,-9,-11
4,-8,-12,2,8,-10,2,-3,0,-7,-9,-10
4,-8,-12,2,8,-10,2,-3,0,-7,-9,-10
3,-8,-11,2,7,-10,2,-3,0,-7,-9,-10
3,-7,-11,2,7,-9,2,-3,0,-7,-9,-10
3,-8,-11,2,7,-10,2,-3,0,-7,-8,-10
4,-9,-13,2,9,-11,2,-3,0,-7,-8,-10
5,-10,-15,2,10,-13,2,-3,0,-7,-9,-10
5,-10,-15,2,10,-13,2,-3,0,-7,-9,-10
2,-11,-13,4,7,-12,3,-2,1,-6,-8,-9
-5,-11,-7,8,1,-9,5,0,3,-4,-6,-7
-11,-11,-1,11,-4,-7,6,1,4,-2,-4,-6
-10,-11,-1,11,-4,-7,6,1,4,-2,-4,-6
-4,-11,-6,8,1,-9,4,0,3,-4,-6,-7
0,-11,-10,6,6,-11,2,-1,2,-5,-7,-8
1,-11,-12,5,7,-11,2,-2,2,-5,-7,-9
2,-11,-13,4,7,-12,2,-2,1,-5,-7,-9
3,-11,-14,4,8,-12,2,-2,1,-6,-8,-9
3,-11,-15,4,9,-13,1,-3,0,-6,-8,-9
4,-11,-16,4,9,-14,1,-3,0,-7,-8,-10
3,-11,-15,4,9,-14,0,-3,0,-7,-8,-10
2,-12,-15,5,8,-14,0,-3,0,-7,-8,-10
1,-13,-14,6,7,-14,1,-2,1,-6,-8,-9
0,-14,-13,7,6,-14,1,-2,1,-6,-7,-9
-1,-14,-13,8,6,-14,1,-2,1,-6,-7,-9
-1,-14,-13,8,6,-14,1,-2,1,-6,-8,-9
0,-14,-14,8,7,-14,0,-3,0,-7,-9,-9
0,-14,-15,7,7,-15,0,-4,-1,-8,-9,-10
0,-15,-15,7,7,-16,-1,-4,-1,-8,-9,-11
-1,-15,-14,8,6,-16,-1,-4,-1,-8,-9,-11
-3,-16,-12,9,4,-15,0,-3,-1,-7,-9,-10
-7,-17,-10,11,2,-14,0,-2,0,-6,-8,-9
-9,-18,-9,13,0,-14,1,-2,1,-6,-7,-9
-8,-19,-10,14,1,-15,1,-2,1,-6,-7,-9
-7,-19,-11,14,2,-16,0,-2,1,-6,-7,-9
-7,-20,-13,14,2,-16,0,-2,1,-6,-7,-9
-6,-20,-14,14,3,-17,0,-1,0,-6,-7,-9
-6,-20,-14,14,3,-18,0,-1,0,-6,-8,-10
-6,-21,-14,14,3,-18,0,-1,0,-7,-8,-10
-6,-21,-15,14,4,-18,0,-1,-1,-7,-8,-10
-6,-22,-15,14,4,-19,0,-2,-1,-8,-9,-10
-6,-22,-16,14,5,-19,-1,-2,-2,-8,-9,-11
-6,-23,-16,14,4,-19,-1,-2,-2,-8,-9,-11
-7,-23,-16,15,4,-19,-1,-2,-2,-8,-9,-10
-7,-23,-16,15,4,-20,-1,-2,-2,-8,-9,-11
-6,-23,-17,15,5,-20,-1,-3,-2,-8,-10,-12
-5,-23,-18,14,6,-20,-1,-3,-2,-8,-10,-12
-6,-23,-17,15,5,-20,-1,-3,-2,-8,-10,-12
-8,-24,-15,16,3,-20,-1,-3,-2,-8,-9,-12
-10,-24,-14,17,2,-20,-1,-3,-2,-8,-9,-11
-9,-24,-15,17,3,-20,-1,-3,-2,-8,-9,-11
-8,-24,-16,17,4,-21,-1,-3,-3,-9,-9,-10
-7,-24,-17,16,5,-21,-1,-4,-3,-9,-10,-11
-8,-25,-17,17,4,-21,-1,-3,-3,-9,-9,-12
-11,-25,-14,19,1,-20,0,-2,-2,-7,-8,-11
-14,-26,-13,20,0,-20,0,-2,-1,-6,-7,-10
-13,-26,-14,19,0,-20,0,-3,-1,-7,-8,-11
-10,-26,-16,18,3,-22,-1,-4,-2,-9,-10,-12
-10,-26,-16,18,3,-22,-1,-4,-3,-9,-10,-12
-12,-26,-14,19,1,-20,0,-3,-2,-9,-9,-11
-16,-26,-10,21,-3,-18,1,-2,-1,-7,-7,-9
-17,-26,-8,22,-5,-17,1,-1,0,-6,-7,-9
-15,-25,-10,20,-2,-18,0,-3,-2,-7,-8,-11
-10,-26,-16,18,2,-21,-1,-4,-3,-8,-9,-12
-8,-28,-20,18,5,-24,-2,-5,-4,-9,-9,-12
-7,-28,-21,18,6,-25,-3,-5,-4,-9,-9,-12
-8,-28,-20,18,6,-25,-2,-5,-4,-9,-9,-13
-8,-29,-20,18,5,-25,-2,-5,-4,-9,-9,-12
-9,-29,-19,19,5,-25,-1,-5,-4,-9,-9,-11
-9,-29,-19,19,5,-25,-1,-4,-4,-9,-9,-11
-9,-29,-19,19,5,-25,-1,-4,-4,-9,-9,-12
-10,-29,-19,20,5,-25,-1,-3,-4,-9,-9,-12
-10,-29,-19,20,4,-25,-1,-3,-4,-9,-9,-12
-11,-29,-19,20,4,-25,-1,-3,-3,-9,-9,-12
-11,-29,-19,20,4,-24,-1,-3,-3,-9,-9,-12
-10,-29,-19,20,4,-25,-2,-3,-3,-9,-9,-11
-10,-30,-20,20,5,-25,-2,-4,-4,-9,-9,-11
-10,-30,-20,20,5,-26,-2,-4,-4,-9,-9,-11
-10,-31,-20,21,5,-26,-2,-4,-4,-9,-9,-12
-10,-31,-20,21,4,-26,-2,-4,-4,-9,-9,-12
-11,-31,-20,21,4,-26,-2,-4,-4,-9,-9,-11
-11,-32,-21,21,5,-27,-2,-4,-4,-9,-8,-11
-11,-32,-21,21,5,-27,-2,-4,-4,-9,-8,-11
-11,-32,-21,21,5,-27,-2,-4,-4,-9,-8,-11
-11,-32,-22,21,5,-27,-2,-4,-5,-9,-9,-11
-10,-32,-22,21,5,-27,-2,-4,-5,-9,-9,-10
-11,-32,-21,22,5,-27,-2,-4,-5,-9,-9,-10
-12,-32,-20,22,4,-26,-2,-4,-4,-9,-8,-10
-13,-32,-19,22,3,-26,-2,-4,-4,-8,-8,-10
-13,-32,-19,23,2,-26,-2,-4,-4,-8,-8,-9
-13,-33,-19,23,2,-26,-2,-4,-4,-8,-8,-9
-13,-32,-19,23,2,-26,-3,-4,-4,-8,-8,-9
-13,-32,-19,23,2,-25,-3,-4,-4,-8,-8,-9
-13,-32,-19,24,2,-26,-2,-4,-4,-9,-8,-8
-13,-34,-21,24,3,-27,-2,-3,-4,-9,-8,-8
-12,-35,-22,24,4,-29,-2,-3,-4,-9,-8,-9
-12,-35,-23,24,5,-29,-2,-4,-4,-9,-8,-9
-12,-35,-23,24,5,-29,-2,-4,-4,-9,-8,-9
-13,-35,-23,24,4,-29,-2,-4,-4,-9,-7,-8
-14,-35,-22,24,4,-29,-2,-3,-4,-9,-7,-9
-13,-35,-23,24,4,-29,-2,-3,-4,-8,-7,-9
-13,-36,-23,24,5,-30,-2,-4,-4,-8,-7,-9
-13,-36,-23,24,5,-30,-2,-4,-4,-8,-7,-9
-13,-36,-23,25,5,-30,-2,-4,-4,-8,-8,-9
-12,-36,-23,24,5,-30,-2,-4,-4,-8,-8,-10
-12,-36,-23,24,5,-30,-2,-4,-4,-8,-8,-9
-13,-36,-24,24,5,-30,-2,-4,-4,-9,-8,-9
-13,-37,-24,24,5,-30,-2,-4,-4,-9,-8,-10
-12,-37,-24,24,6,-31,-2,-4,-4,-9,-8,-10
-12,-36,-24,24,6,-30,-2,-4,-4,-9,-8,-9
-12,-36,-23,24,6,-30,-2,-4,-4,-9,-8,-9
-13,-36,-23,25,5,-30,-2,-4,-4,-9,-8,-9
-14,-36,-23,25,5,-29,-2,-4,-4,-8,-8,-10
-14,-37,-22,25,4,-29,-2,-4,-4,-8,-7,-9
-15,-38,-23,26,4,-30,-1,-3,-3,-7,-7,-8
-14,-39,-24,26,5,-32,-2,-4,-4,-8,-7,-9
-12,-39,-26,25,6,-33,-2,-4,-4,-8,-8,-10
-12,-38,-26,25,6,-32,-2,-4,-4,-9,-8,-10
-13,-38,-25,25,6,-32,-2,-4,-4,-9,-8,-10
-12,-38,-26,25,7,-32,-2,-4,-4,-9,-8,-11
-10,-37,-27,24,9,-32,-2,-5,-4,-9,-8,-11
-9,-37,-30,23,10,-33,-3,-5,-5,-9,-9,-12
-9,-38,-30,23,10,-33,-3,-5,-5,-9,-9,-11
-11,-38,-27,25,7,-32,-2,-4,-4,-8,-8,-11
-15,-38,-24,26,4,-31,-1,-3,-3,-7,-7,-10
-17,-38,-21,27,2,-30,0,-3,-3,-7,-6,-10
-19,-38,-20,28,0,-29,0,-2,-2,-6,-6,-9
-20,-39,-20,28,0,-30,0,-2,-2,-6,-6,-8
-19,-39,-22,28,2,-30,0,-2,-2,-6,-6,-9
-18,-39,-23,28,3,-30,0,-2,-2,-6,-6,-9
-17,-39,-23,28,3,-30,0,-2,-2,-6,-6,-9
-17,-39,-23,28,3,-31,0,-2,-2,-7,-7,-10
-15,-39,-24,27,4,-32,-1,-3,-3,-7,-7,-10
-14,-39,-25,26,5,-32,-1,-4,-4,-8,-8,-11
-14,-39,-25,25,5,-33,-1,-4,-4,-8,-8,-11
-14,-39,-25,25,6,-33,-1,-4,-4,-8,-8,-11
-13,-39,-26,25,7,-33,-1,-4,-4,-8,-8,-11
-11,-39,-28,25,8,-33,-2,-4,-4,-8,-8,-11
-10,-39,-29,25,9,-34,-2,-4,-4,-8,-8,-11
-10,-38,-29,24,10,-34,-2,-4,-4,-8,-8,-11
-11,-38,-28,25,8,-33,-1,-4,-4,-8,-8,-11
-14,-38,-24,26,5,-31,0,-3,-3,-7,-7,-10
-17,-38,-22,27,2,-30,0,-3,-3,-6,-6,-9
-17,-39,-21,28,2,-30,0,-3,-2,-6,-6,-8
-16,-39,-23,27,3,-31,0,-3,-3,-7,-7,-9
-13,-38,-24,26,6,-31,-1,-4,-3,-8,-7,-10
-13,-37,-24,26,6,-31,0,-3,-3,-7,-7,-9
-15,-38,-24,27,4,-31,1,-2,-2,-6,-6,-8
-15,-38,-24,27,4,-31,1,-2,-2,-6,-6,-8
-13,-38,-26,25,6,-32,0,-3,-3,-7,-7,-9
-10,-38,-29,23,9,-34,0,-4,-4,-9,-8,-10
-8,-38,-31,22,11,-35,-1,-5,-5,-10,-9,-11
-8,-38,-31,22,11,-34,-1,-5,-5,-10,-9,-11
-8,-38,-30,23,11,-33,-1,-4,-5,-9,-8,-11
-9,-38,-29,23,10,-33,0,-4,-4,-8,-8,-10
-9,-38,-29,23,10,-33,0,-4,-4,-8,-7,-10
-9,-38,-29,23,10,-33,0,-4,-4,-8,-7,-10
-8,-38,-30,23,10,-34,0,-4,-4,-8,-7,-11
-8,-37,-29,22,10,-33,0,-4,-4,-8,-7,-11
-8,-36,-29,22,10,-33,0,-4,-4,-8,-7,-11
-8,-36,-29,22,10,-33,0,-4,-4,-8,-8,-11
-7,-37,-29,22,11,-33,0,-4,-5,-8,-8,-11
-7,-36,-29,22,11,-33,0,-4,-5,-8,-8,-12
-9,-35,-26,22,9,-31,0,-4,-4,-8,-8,-11
-11,-34,-23,22,6,-29,0,-3,-3,-7,-7,-10
-11,-34,-23,22,5,-28,1,-3,-3,-7,-7,-10
-10,-34,-24,22,7,-29,0,-4,-4,-7,-7,-10
-10,-34,-25,22,8,-30,0,-4,-4,-8,-7,-11
-10,-34,-25,22,7,-29,0,-4,-4,-8,-7,-10
-11,-34,-24,23,7,-29,0,-4,-4,-8,-7,-10
-11,-34,-24,23,7,-29,0,-4,-4,-8,-7,-11
-10,-34,-24,23,7,-29,0,-4,-4,-8,-7,-11
-10,-35,-24,23,7,-29,0,-4,-5,-9,-7,-11
-10,-35,-25,23,7,-30,0,-4,-5,-9,-8,-11
-10,-35,-25,23,7,-30,0,-4,-5,-9,-8,-12
-10,-35,-25,22,7,-30,-1,-5,-6,-10,-9,-12
-11,-36,-25,23,7,-30,-1,-5,-6,-10,-9,-12
-12,-36,-24,23,6,-30,-1,-5,-6,-10,-9,-12
-13,-36,-23,24,6,-29,-1,-5,-6,-10,-9,-13
-13,-36,-22,24,5,-29,-1,-5,-6,-10,-9,-13
-14,-36,-22,25,4,-29,-1,-6,-7,-11,-9,-13
-14,-36,-22,25,4,-29,-1,-6,-7,-11,-10,-13
-14,-36,-22,25,3,-29,-1,-6,-7,-11,-10,-14
-15,-36,-21,26,3,-29,-1,-6,-7,-11,-10,-14
-16,-37,-21,26,3,-29,-1,-6,-7,-11,-10,-14
-15,-37,-22,26,3,-30,-1,-7,-7,-11,-10,-14
-15,-38,-23,26,4,-30,-2,-7,-8,-12,-10,-14
-15,-37,-21,26,3,-29,-2,-7,-8,-12,-10,-15
-16,-36,-19,26,1,-27,-3,-8,-9,-12,-11,-15
-17,-36,-18,26,0,-27,-3,-8,-9,-12,-11,-15
-18,-37,-18,27,0,-27,-2,-7,-8,-11,-10,-14
-20,-38,-18,28,-1,-28,-1,-6,-7,-11,-9,-14
-20,-38,-18,28,-1,-28,-1,-7,-7,-11,-9,-14
-21,-38,-18,29,-1,-28,0,-7,-7,-11,-9,-13
-24,-39,-17,31,-3,-28,1,-6,-6,-10,-9,-13
-26,-40,-15,33,-4,-28,1,-5,-5,-10,-8,-13
-25,-41,-16,33,-4,-29,1,-6,-6,-11,-9,-13
-23,-41,-19,33,-2,-31,0,-6,-8,-12,-10,-14
-21,-42,-21,32,0,-32,0,-7,-8,-13,-11,-15
-21,-42,-22,32,0,-33,-1,-7,-8,-13,-12,-15
-20,-43,-23,32,1,-34,-1,-7,-9,-13,-12,-15
-21,-44,-24,32,1,-34,-1,-8,-9,-14,-12,-16
-17,-42,-25,29,4,-34,-1,-7,-9,-13,-12,-17
-6,-34,-27,19,11,-31,0,-4,-6,-10,-9,-20
6,-23,-28,8,17,-26,1,0,-2,-5,-4,-20
10,-17,-27,3,18,-22,2,1,0,-2,-1,-16
8,-16,-25,4,16,-21,1,2,1,-1,0,-12
4,-19,-24,8,13,-21,0,1,0,-2,-1,-11
1,-22,-24,10,12,-23,-1,0,-1,-3,-2,-10
-1,-25,-25,12,11,-24,-2,0,-2,-4,-2,-10
-3,-28,-25,15,11,-26,-4,-1,-3,-5,-3,-10
-4,-30,-25,16,10,-27,-5,-2,-5,-6,-4,-10
-5,-31,-26,17,11,-28,-7,-3,-6,-8,-6,-11
-7,-32,-26,19,10,-29,-8,-4,-7,-9,-7,-11
-11,-33,-23,22,6,-28,-8,-4,-7,-9,-7,-11
-14,-34,-21,24,4,-28,-8,-4,-7,-9,-7,-11
-14,-34,-21,24,4,-28,-8,-4,-7,-9,-7,-11
-12,-34,-22,23,5,-28,-8,-5,-7,-9,-7,-11
-10,-34,-24,22,6,-28,-8,-5,-8,-9,-8,-11
-9,-34,-25,21,7,-29,-8,-6,-9,-10,-8,-12
-9,-34,-25,21,7,-29,-8,-6,-9,-10,-9,-12
-9,-35,-26,22,8,-30,-8,-6,-10,-11,-9,-13
-8,-35,-27,21,10,-31,-9,-7,-11,-12,-10,-13
-8,-35,-28,21,10,-31,-9,-8,-11,-12,-10,-13
-7,-34,-28,20,11,-31,-9,-9,-11,-12,-10,-14
-7,-34,-27,20,11,-31,-8,-9,-11,-12,-10,-14
-7,-33,-27,19,10,-30,-8,-8,-11,-12,-10,-13
-7,-33,-26,19,10,-29,-7,-8,-11,-12,-10,-13
-6,-32,-26,19,10,-29,-6,-7,-11,-11,-9,-13
-5,-32,-27,18,11,-29,-6,-7,-11,-12,-9,-13
-4,-32,-28,18,12,-30,-7,-8,-11,-12,-10,-13
-4,-32,-29,17,12,-31,-7,-8,-11,-13,-10,-13
-3,-31,-29,17,12,-30,-6,-7,-11,-13,-10,-13
-3,-30,-28,16,12,-29,-6,-7,-11,-13,-10,-13
-3,-30,-26,16,11,-28,-6,-7,-11,-13,-10,-13
-4,-29,-26,16,11,-28,-6,-7,-11,-13,-10,-12
-3,-29,-25,16,11,-27,-5,-7,-11,-12,-9,-12
-3,-28,-25,16,11,-27,-4,-6,-11,-12,-9,-11
-3,-28,-25,16,11,-27,-4,-6,-11,-12,-9,-11
-4,-28,-25,16,10,-27,-4,-6,-11,-12,-9,-11
-4,-28,-25,15,11,-27,-4,-6,-10,-12,-9,-12
-3,-27,-25,15,11,-27,-4,-6,-10,-13,-10,-13
-2,-27,-25,15,12,-27,-4,-7,-11,-13,-10,-13
-2,-28,-25,15,12,-27,-4,-7,-11,-14,-11,-13
-2,-28,-25,15,12,-27,-4,-8,-12,-14,-11,-13
-2,-28,-26,15,12,-28,-4,-8,-12,-14,-12,-13
-2,-28,-26,15,12,-28,-4,-8,-12,-14,-12,-14
-3,-28,-26,15,12,-28,-4,-8,-12,-14,-12,-13
-3,-28,-26,15,12,-27,-4,-8,-12,-14,-12,-13
-2,-27,-26,14,12,-27,-4,-8,-12,-14,-12,-13
-2,-27,-26,14,12,-26,-4,-8,-12,-14,-11,-13
-1,-27,-26,14,12,-26,-4,-8,-12,-14,-11,-13
-1,-26,-26,13,12,-26,-4,-8,-12,-14,-11,-13
0,-26,-26,13,13,-26,-4,-8,-12,-14,-11,-13
0,-26,-26,13,13,-26,-4,-8,-12,-14,-12,-13
0,-26,-26,13,14,-26,-4,-9,-13,-15,-12,-13
0,-26,-26,13,14,-26,-4,-9,-13,-15,-12,-13
0,-25,-26,13,13,-26,-4,-9,-13,-15,-12,-13
0,-25,-25,12,13,-25,-4,-9,-13,-15,-12,-13
0,-24,-25,12,13,-25,-4,-9,-13,-15,-12,-13
0,-25,-26,12,13,-25,-4,-9,-13,-15,-12,-12
0,-25,-26,12,14,-26,-4,-9,-13,-14,-12,-12
0,-25,-26,12,14,-26,-4,-9,-13,-14,-12,-13
0,-25,-26,12,14,-26,-4,-9,-13,-14,-12,-12
0,-25,-26,12,14,-26,-4,-9,-13,-15,-12,-12
0,-25,-26,12,14,-26,-4,-9,-13,-15,-12,-12
1,-24,-26,11,14,-26,-4,-9,-13,-15,-11,-12
2,-24,-26,11,15,-26,-4,-9,-13,-15,-11,-12
2,-24,-27,11,15,-26,-4,-9,-13,-15,-12,-12
2,-24,-27,11,15,-26,-4,-10,-14,-15,-12,-12
2,-24,-26,11,15,-25,-4,-10,-14,-15,-12,-13
2,-24,-26,11,15,-25,-4,-9,-14,-15,-12,-13
2,-24,-26,11,15,-26,-4,-9,-14,-15,-12,-12
1,-24,-26,11,14,-26,-4,-9,-13,-15,-12,-12
1,-24,-25,11,14,-25,-4,-9,-13,-15,-12,-12
1,-24,-26,11,15,-25,-4,-9,-13,-15,-12,-12
2,-24,-27,11,16,-26,-4,-9,-13,-15,-12,-12
3,-24,-27,10,16,-26,-3,-9,-14,-15,-12,-12
3,-24,-28,10,16,-26,-3,-9,-13,-15,-12,-13
3,-24,-28,10,16,-26,-3,-9,-13,-15,-13,-13
3,-24,-28,10,16,-26,-3,-9,-13,-15,-13,-13
3,-24,-28,10,16,-25,-3,-9,-13,-15,-13,-12
3,-24,-28,10,17,-25,-3,-9,-14,-15,-13,-13
4,-24,-28,10,17,-26,-3,-9,-14,-15,-13,-13
4,-24,-28,10,17,-26,-3,-9,-14,-16,-13,-13
4,-24,-28,10,17,-26,-4,-9,-14,-16,-13,-12
4,-23,-28,9,17,-26,-4,-10,-14,-16,-14,-12
5,-23,-28,9,17,-26,-4,-10,-14,-16,-14,-13
5,-23,-28,8,18,-26,-4,-10,-14,-16,-14,-13
4,-23,-26,9,16,-25,-3,-9,-13,-16,-13,-12
1,-23,-24,11,13,-23,-2,-8,-12,-15,-12,-11
0,-23,-23,11,12,-23,-2,-8,-12,-15,-12,-12
2,-23,-25,11,14,-24,-2,-9,-13,-15,-13,-12
3,-23,-26,10,15,-24,-3,-10,-14,-16,-13,-12
4,-23,-27,9,16,-24,-3,-10,-14,-16,-14,-12
5,-23,-28,9,17,-25,-3,-10,-14,-16,-14,-13
5,-23,-28,8,17,-25,-3,-10,-14,-16,-14,-13
5,-23,-28,9,17,-26,-1,-9,-14,-17,-15,-14
3,-24,-27,10,16,-26,2,-6,-13,-18,-16,-15
2,-25,-27,11,15,-26,9,-1,-12,-19,-17,-16
0,-26,-27,12,14,-27,20,5,-11,-20,-19,-18
-2,-27,-26,14,12,-27,33,12,-9,-22,-21,-20
-3,-29,-26,15,12,-28,45,21,-8,-26,-25,-23
-1,-31,-31,15,15,-31,54,30,-8,-29,-28,-27
1,-35,-36,16,19,-35,60,40,-7,-31,-31,-31
3,-39,-42,17,23,-40,66,50,-5,-32,-33,-33
7,-41,-49,16,29,-46,69,60,-1,-31,-34,-35
14,-42,-57,13,37,-50,69,70,5,-28,-33,-35
22,-39,-61,8,43,-50,68,80,13,-21,-28,-33
29,-32,-61,1,46,-47,63,89,24,-10,-19,-25
38,-22,-61,-8,50,-42,50,99,39,7,-6,-14
50,-13,-63,-18,57,-38,30,113,59,29,10,-1
64,-3,-67,-30,66,-35,5,127,82,55,28,13
78,6,-72,-42,76,-33,-20,138,104,82,48,29
93,13,-79,-53,87,-34,-47,143,123,106,67,46
104,17,-86,-60,95,-34,-73,135,135,125,82,60
110,22,-87,-65,99,-33,-98,110,136,137,93,71
110,26,-83,-68,97,-28,-120,68,125,141,101,80
105,29,-75,-67,90,-22,-137,13,103,138,105,86
98,31,-65,-65,82,-16,-150,-42,73,127,105,90
92,34,-58,-63,76,-12,-161,-88,39,109,101,90
88,35,-51,-62,70,-8,-167,-122,3,84,92,87
82,36,-45,-59,64,-5,-168,-143,-31,58,80,82
74,35,-38,-55,57,-2,-161,-151,-58,35,67,74
63,35,-28,-49,46,3,-149,-148,-75,18,57,67
51,35,-16,-43,34,9,-133,-137,-83,7,48,61
41,33,-9,-37,26,12,-117,-123,-85,-2,37,53
33,27,-7,-30,20,10,-101,-109,-83,-10,26,41
26,19,-7,-23,17,6,-86,-94,-77,-16,15,30
18,12,-6,-15,12,3,-73,-79,-69,-19,8,21
10,4,-6,-8,9,-1,-61,-67,-61,-21,1,13
7,-3,-11,-2,10,-8,-51,-57,-56,-24,-6,5
7,-10,-18,1,14,-14,-42,-50,-52,-27,-13,-3
5,-16,-22,5,15,-19,-34,-42,-47,-29,-17,-10
2,-21,-23,9,14,-22,-27,-35,-41,-28,-20,-14
0,-24,-24,11,13,-23,-21,-30,-37,-28,-22,-17
0,-25,-25,12,13,-25,-17,-26,-34,-27,-23,-19
1,-25,-26,11,14,-25,-15,-24,-31,-26,-23,-20
1,-24,-25,11,14,-24,-13,-22,-29,-25,-23,-19
0,-23,-23,11,12,-23,-11,-20,-26,-24,-22,-18
0,-22,-22,10,12,-22,-10,-18,-24,-23,-21,-18
1,-21,-22,9,13,-22,-9,-16,-23,-23,-21,-18
1,-20,-22,9,13,-21,-8,-15,-22,-23,-21,-17
0,-20,-21,9,12,-21,-7,-14,-21,-22,-21,-17
-1,-21,-21,10,11,-21,-6,-13,-20,-22,-20,-16
-1,-22,-20,11,10,-21,-6,-13,-20,-22,-20,-16
-1,-21,-20,11,10,-20,-5,-12,-20,-22,-20,-16
-1,-21,-19,11,10,-20,-5,-12,-19,-22,-20,-16
-2,-21,-19,11,10,-20,-5,-12,-19,-22,-21,-16
-2,-21,-19,11,10,-20,-5,-12,-19,-23,-21,-17
-2,-21,-18,11,10,-19,-4,-11,-19,-23,-21,-17
-2,-21,-18,11,9,-19,-4,-11,-19,-23,-21,-16
-3,-21,-18,12,9,-20,-4,-11,-19,-23,-21,-16
-3,-21,-18,12,9,-20,-4,-11,-19,-23,-21,-17
-3,-21,-18,12,9,-20,-4,-11,-19,-23,-21,-17
-3,-21,-18,12,9,-20,-3,-10,-18,-23,-21,-16
-3,-22,-19,12,9,-20,-3,-10,-18,-24,-21,-16
-2,-22,-19,12,9,-21,-3,-10,-19,-24,-21,-16
-2,-21,-19,11,10,-21,-3,-10,-18,-23,-21,-17
-1,-21,-20,11,10,-21,-3,-10,-18,-23,-21,-17
-1,-22,-20,12,10,-21,-3,-10,-18,-23,-21,-16
-1,-22,-20,12,10,-21,-3,-10,-18,-23,-21,-16
-1,-21,-19,11,10,-20,-3,-10,-18,-23,-21,-17
-1,-21,-19,11,10,-20,-3,-10,-18,-23,-21,-18
-1,-21,-19,11,10,-20,-3,-11,-18,-23,-21,-18
-1,-20,-18,11,9,-19,-3,-11,-18,-23,-21,-18
-1,-20,-18,10,9,-19,-3,-11,-18,-23,-21,-18
0,-20,-18,10,9,-19,-4,-11,-18,-23,-21,-18
0,-20,-18,10,9,-19,-4,-11,-18,-23,-21,-17
0,-20,-19,11,9,-20,-4,-11,-18,-23,-21,-17
0,-20,-19,10,10,-20,-4,-11,-18,-23,-21,-17
0,-20,-20,10,10,-20,-3,-11,-18,-23,-21,-17
0,-20,-20,10,10,-20,-3,-11,-18,-23,-21,-16
0,-20,-20,10,10,-20,-3,-11,-18,-23,-21,-16
0,-20,-20,10,11,-21,-3,-12,-18,-23,-21,-16
0,-20,-20,10,11,-20,-3,-12,-18,-22,-21,-16
1,-19,-20,9,11,-20,-3,-11,-18,-22,-21,-16
1,-19,-20,9,11,-20,-2,-11,-18,-22,-21,-15
1,-19,-20,9,11,-20,-2,-11,-17,-22,-21,-15
1,-19,-20,9,11,-20,-2,-11,-17,-22,-21,-15
1,-19,-20,9,11,-20,-2,-11,-17,-22,-20,-15
1,-19,-20,9,11,-19,-3,-10,-17,-22,-20,-15
1,-19,-20,9,11,-19,-3,-10,-17,-22,-20,-15
1,-19,-20,8,11,-19,-3,-10,-17,-22,-20,-15
1,-19,-20,8,11,-19,-3,-10,-17,-22,-20,-14
1,-19,-20,8,11,-19,-3,-10,-17,-22,-20,-14
1,-19,-20,8,11,-19,-2,-10,-16,-21,-20,-14
1,-18,-20,8,11,-19,-2,-10,-16,-21,-20,-15
2,-18,-20,8,12,-19,-2,-10,-15,-21,-20,-15
2,-18,-21,8,12,-20,-2,-10,-15,-21,-20,-14
2,-18,-21,8,12,-20,-2,-9,-15,-20,-20,-14
2,-18,-20,7,12,-19,-2,-9,-15,-20,-20,-14
3,-17,-20,7,12,-19,-2,-9,-15,-20,-20,-14
3,-17,-20,7,12,-19,-3,-9,-15,-20,-20,-14
3,-16,-20,6,12,-19,-3,-9,-15,-20,-20,-14
3,-16,-20,6,12,-19,-3,-9,-14,-20,-20,-15
4,-16,-20,6,13,-19,-3,-8,-14,-20,-20,-15
4,-16,-20,6,13,-19,-3,-8,-14,-20,-20,-15
4,-16,-20,6,13,-18,-3,-8,-14,-20,-20,-15
4,-16,-20,5,13,-18,-3,-8,-14,-20,-20,-15
5,-16,-20,5,13,-18,-3,-8,-14,-20,-20,-15
6,-15,-21,4,13,-18,-3,-8,-14,-20,-20,-15
6,-15,-21,4,13,-18,-3,-8,-14,-20,-20,-15
6,-15,-20,4,13,-17,-3,-8,-14,-20,-20,-15
6,-14,-20,4,13,-17,-3,-8,-14,-20,-20,-15
5,-14,-19,4,13,-16,-4,-8,-13,-19,-19,-15
5,-14,-19,4,13,-16,-4,-7,-13,-19,-19,-14
5,-13,-18,4,13,-15,-4,-7,-13,-19,-19,-14
5,-12,-18,3,12,-15,-4,-7,-13,-18,-18,-14
5,-12,-18,3,12,-14,-4,-7,-13,-18,-18,-14
5,-12,-17,3,11,-14,-4,-7,-13,-18,-18,-13
5,-11,-17,3,11,-14,-4,-6,-13,-18,-18,-13
5,-11,-17,3,11,-14,-4,-6,-12,-18,-17,-12
5,-10,-16,2,11,-13,-5,-6,-12,-18,-17,-12
6,-10,-16,2,11,-13,-5,-6,-12,-18,-17,-11
6,-10,-15,2,11,-12,-5,-6,-11,-17,-16,-11
6,-9,-15,2,11,-12,-5,-6,-11,-17,-16,-11
6,-9,-15,1,11,-12,-5,-6,-11,-16,-15,-10
6,-8,-14,1,11,-11,-6,-6,-11,-16,-15,-9
6,-7,-14,0,10,-11,-6,-6,-11,-16,-15,-9
6,-6,-12,0,9,-9,-6,-6,-10,-16,-15,-9
5,-5,-10,0,8,-8,-6,-5,-9,-15,-14,-8
3,-4,-8,0,6,-6,-6,-5,-8,-14,-13,-7
1,-3,-5,1,3,-4,-5,-4,-7,-13,-12,-6
0,-3,-2,1,1,-2,-5,-4,-6,-12,-11,-5
-1,-2,-1,1,0,-1,-4,-3,-5,-11,-10,-4
-2,-1,0,1,-1,0,-4,-3,-5,-11,-9,-3
-2,0,2,1,-2,1,-4,-3,-4,-10,-9,-3
-2,1,2,0,-2,2,-4,-2,-3,-9,-8,-2
-1,0,1,0,-1,1,-4,-2,-2,-8,-7,-2
0,1,0,0,0,1,-4,-2,-1,-7,-6,-1
0,2,0,-1,0,1,-5,-3,-1,-8,-6,-1
1,2,0,-2,1,1,-5,-3,-1,-7,-6,-1
1,3,0,-3,1,2,-6,-4,-1,-7,-5,0
2,4,1,-4,1,3,-6,-4,-1,-6,-5,0
1,5,3,-4,0,4,-6,-3,0,-5,-4,2
0,6,7,-3,-3,6,-5,-3,1,-4,-3,3
-2,8,10,-3,-5,8,-5,-2,2,-3,-1,4
-1,9,11,-5,-5,10,-6,-3,3,-3,-1,5
0,11,11,-6,-5,11,-8,-3,3,-2,0,6
0,12,12,-7,-5,12,-8,-3,3,-1,0,7
0,13,13,-7,-6,13,-8,-3,4,0,2,8
0,14,14,-7,-7,14,-8,-4,5,1,2,9
0,15,14,-8,-6,14,-9,-4,5,1,3,10
1,16,15,-9,-6,15,-10,-4,5,2,3,10
1,18,15,-10,-6,16,-10,-4,6,3,4,11
2,19,16,-11,-6,17,-11,-4,7,4,6,12
2,20,16,-11,-6,18,-11,-5,7,4,7,13
3,21,16,-12,-6,18,-12,-6,8,5,8,15
5,22,16,-14,-5,19,-13,-6,9,7,9,16
5,22,17,-14,-5,19,-13,-7,10,8,10,17
5,23,18,-14,-5,20,-14,-7,11,9,11,18
5,24,19,-15,-6,21,-14,-7,12,10,12,19
5,26,20,-16,-7,23,-15,-7,12,12,13,20
5,28,21,-17,-7,25,-15,-7,13,13,14,21
6,29,21,-17,-7,25,-16,-8,14,14,15,22
7,29,21,-18,-6,25,-16,-8,14,14,16,23
9,30,20,-19,-5,25,-17,-8,15,15,16,24
10,31,21,-20,-5,26,-17,-8,15,16,17,24
10,32,22,-20,-5,26,-17,-8,16,18,18,25
9,32,23,-20,-6,27,-17,-8,17,19,19,26
8,32,23,-20,-7,27,-17,-8,17,20,19,27
9,33,23,-21,-7,28,-17,-8,18,21,20,27
9,34,24,-21,-7,29,-17,-9,18,21,20,28
7,34,25,-21,-8,30,-17,-9,19,22,21,29
6,34,26,-20,-9,30,-17,-9,19,22,21,29
8,34,25,-21,-8,30,-17,-9,19,22,21,28
10,34,24,-23,-6,29,-17,-9,20,22,21,28
12,34,22,-23,-5,28,-17,-9,20,23,21,28
12,33,21,-23,-4,27,-17,-8,21,23,21,28
12,33,21,-23,-4,27,-16,-8,21,23,20,27
11,32,21,-22,-4,26,-16,-7,21,23,20,27
10,31,20,-21,-4,25,-15,-6,21,22,19,26
10,29,19,-20,-3,23,-15,-6,20,22,18,25
10,28,18,-20,-3,22,-14,-5,20,21,17,24
10,26,16,-19,-2,21,-13,-4,20,20,16,22
10,24,15,-18,-2,20,-13,-4,18,18,14,20
9,22,14,-16,-2,18,-12,-4,16,16,12,19
9,21,13,-15,-1,17,-12,-4,14,14,10,16
8,20,11,-14,0,15,-12,-3,12,12,8,14
7,17,9,-12,0,13,-11,-3,10,10,6,13
5,15,8,-10,0,11,-11,-3,9,8,4,12
4,13,7,-9,0,10,-10,-3,7,7,2,10
4,11,6,-8,0,9,-10,-3,5,5,1,8
4,9,5,-7,0,7,-9,-4,3,3,0,7
3,7,5,-6,0,6,-9,-4,1,1,-2,5
2,6,4,-5,0,5,-9,-5,-1,-1,-4,4
2,6,3,-4,0,4,-9,-6,-3,-3,-5,2
2,5,2,-3,0,3,-9,-6,-5,-4,-7,1
0,3,1,-2,0,2,-8,-7,-6,-6,-8,0
0,1,0,-1,0,1,-8,-8,-8,-8,-10,-1
0,0,0,-1,1,0,-9,-8,-9,-9,-11,-3
1,0,-1,-1,1,0,-9,-8,-10,-10,-12,-4
0,-1,-1,0,1,-1,-9,-8,-11,-11,-13,-5
0,-2,-1,0,0,-1,-8,-8,-12,-11,-13,-5
-1,-2,-1,1,0,-1,-9,-9,-13,-12,-13,-6
0,-2,-2,1,0,-1,-9,-9,-14,-13,-15,-7
-1,-2,-2,1,0,-1,-10,-10,-15,-14,-16,-8
-2,-3,-1,2,0,-2,-10,-10,-16,-14,-16,-8
-3,-4,-1,3,0,-2,-9,-10,-16,-14,-16,-8
-3,-4,-1,3,0,-2,-9,-10,-16,-14,-16,-8
-3,-4,-1,3,0,-3,-9,-10,-16,-14,-16,-8
-3,-4,-1,3,0,-3,-9,-10,-16,-15,-16,-8
-3,-5,-1,4,-1,-3,-9,-10,-17,-15,-16,-9
-4,-5,-1,4,-1,-3,-9,-10,-17,-16,-16,-10
-4,-5,-2,5,-1,-3,-9,-11,-18,-16,-17,-10
-4,-6,-2,5,-1,-4,-9,-11,-18,-17,-17,-10
-5,-6,-1,5,-1,-4,-9,-11,-18,-17,-17,-10
-5,-6,-1,5,-1,-4,-10,-11,-18,-17,-17,-11
-5,-6,-1,5,-1,-4,-10,-11,-18,-17,-17,-11
-5,-7,-1,6,-1,-4,-10,-11,-19,-17,-18,-11
-6,-7,-1,6,-2,-4,-10,-11,-19,-17,-18,-11
-6,-7,-1,6,-2,-4,-10,-11,-20,-17,-19,-12
-6,-7,-1,6,-2,-3,-10,-11,-20,-18,-19,-12
-7,-8,-1,6,-2,-3,-10,-12,-20,-18,-19,-12
-7,-8,-1,7,-2,-4,-10,-12,-20,-19,-19,-13
-7,-8,-1,7,-2,-4,-10,-12,-21,-19,-19,-13
-7,-8,-1,7,-2,-5,-10,-12,-20,-19,-19,-13
-7,-8,-1,7,-2,-5,-11,-12,-20,-19,-19,-13
-8,-8,-1,8,-2,-5,-11,-13,-21,-19,-19,-14
-8,-8,-1,8,-3,-5,-11,-13,-21,-19,-19,-15
-9,-9,-1,8,-3,-5,-11,-12,-21,-19,-19,-15
-9,-10,-1,9,-3,-5,-11,-12,-21,-19,-19,-15
-10,-11,-1,10,-3,-6,-11,-12,-21,-19,-20,-15
-10,-11,-1,10,-3,-6,-11,-12,-20,-19,-20,-15
-10,-11,-1,10,-3,-6,-11,-12,-20,-19,-20,-15
-10,-11,-1,10,-3,-7,-11,-12,-20,-19,-20,-15
-11,-12,-1,11,-4,-7,-11,-12,-21,-19,-21,-15
-11,-12,-1,12,-4,-7,-11,-13,-21,-19,-21,-16
-11,-12,-1,12,-4,-7,-11,-13,-21,-19,-20,-16
-12,-12,-1,12,-4,-7,-10,-13,-20,-19,-20,-16
-12,-13,0,12,-5,-7,-10,-13,-20,-19,-20,-15
-12,-12,0,12,-5,-6,-10,-12,-20,-19,-20,-15
-12,-11,0,11,-5,-6,-10,-12,-20,-19,-20,-15
-11,-11,0,11,-4,-5,-10,-12,-20,-19,-20,-15
-12,-11,0,11,-5,-5,-9,-12,-20,-19,-20,-14
-12,-12,0,12,-5,-5,-9,-11,-20,-19,-19,-14
-12,-12,0,12,-5,-5,-8,-11,-19,-18,-19,-14
-12,-11,0,12,-5,-5,-8,-10,-19,-18,-19,-14
-12,-11,1,11,-5,-5,-9,-10,-18,-18,-19,-13
-12,-11,1,11,-5,-5,-9,-10,-18,-18,-19,-13
-12,-11,0,11,-5,-5,-8,-10,-17,-18,-19,-13
-11,-10,0,10,-5,-5,-8,-9,-17,-18,-19,-13
-11,-10,0,10,-5,-5,-8,-9,-17,-18,-18,-13
-11,-9,0,10,-5,-4,-8,-9,-17,-17,-18,-12
-10,-9,0,9,-4,-4,-8,-9,-16,-17,-18,-13
-9,-9,0,9,-4,-4,-8,-9,-16,-16,-18,-13
-10,-9,1,9,-4,-4,-8,-8,-16,-16,-18,-12
-10,-9,1,9,-5,-4,-7,-8,-15,-16,-18,-11
-10,-9,1,9,-5,-4,-7,-8,-15,-16,-18,-11
-9,-8,1,8,-4,-3,-7,-7,-14,-16,-17,-11
-9,-8,1,8,-4,-3,-7,-7,-14,-15,-17,-10
-9,-7,1,8,-4,-3,-7,-7,-14,-15,-17,-9
-9,-7,2,8,-4,-2,-6,-7,-14,-15,-17,-8
-9,-7,2,8,-4,-2,-6,-7,-14,-15,-17,-8
-9,-7,1,8,-4,-3,-7,-7,-13,-15,-17,-8
-9,-7,1,8,-3,-3,-7,-6,-13,-15,-17,-7
-8,-7,1,7,-3,-2,-7,-6,-13,-15,-17,-7
-8,-6,1,7,-3,-2,-6,-6,-13,-15,-17,-8
-7,-6,1,7,-4,-2,-6,-6,-13,-15,-16,-8
-7,-6,1,7,-4,-2,-6,-6,-13,-14,-16,-8
-7,-6,1,7,-4,-2,-6,-5,-13,-14,-16,-7
-7,-6,1,6,-4,-2,-6,-5,-13,-14,-16,-8
-7,-5,2,6,-4,-1,-6,-5,-13,-14,-16,-8
-7,-5,2,5,-4,-1,-6,-5,-13,-14,-16,-8
-6,-6,0,5,-2,-3,-6,-5,-12,-14,-15,-7
-5,-7,-1,5,-1,-4,-6,-5,-12,-14,-15,-7
-6,-6,0,5,-2,-3,-6,-5,-12,-14,-15,-8
-8,-6,2,6,-4,-2,-6,-5,-12,-14,-15,-7
-9,-5,3,6,-5,-1,-5,-4,-12,-13,-14,-7
-8,-5,2,6,-4,-1,-5,-4,-12,-13,-14,-7
-7,-5,2,5,-3,-1,-6,-4,-12,-13,-14,-7
-7,-5,1,5,-3,-1,-6,-4,-12,-13,-14,-7
-7,-5,1,5,-3,-1,-6,-4,-12,-13,-14,-6
-6,-4,1,5,-2,-1,-6,-4,-12,-13,-14,-7
-4,-4,0,4,-1,-2,-6,-5,-12,-13,-14,-7
-4,-4,0,4,-1,-2,-6,-5,-12,-13,-14,-7
-5,-4,1,5,-2,-1,-6,-5,-11,-12,-13,-7
-6,-4,1,5,-3,-1,-5,-5,-11,-12,-13,-7
-6,-4,1,5,-3,-1,-6,-5,-11,-12,-13,-7
-6,-4,2,5,-3,-1,-6,-5,-11,-12,-13,-7
-7,-4,3,5,-4,0,-5,-5,-11,-12,-13,-6
-7,-4,3,5,-4,0,-5,-4,-11,-12,-13,-6
-6,-4,2,5,-4,-1,-5,-4,-11,-12,-13,-7
-6,-4,2,5,-3,-1,-5,-5,-12,-12,-13,-8
-6,-4,2,5,-3,-1,-6,-5,-12,-12,-13,-7
-6,-4,2,5,-3,-1,-6,-5,-12,-12,-13,-7
-5,-4,1,4,-2,-1,-6,-5,-12,-12,-13,-7
-4,-3,1,3,-1,-1,-6,-5,-12,-12,-13,-7
-3,-3,1,3,-1,-1,-6,-5,-12,-12,-13,-7
-3,-3,1,3,-2,0,-6,-5,-12,-12,-13,-8
-3,-3,1,3,-1,0,-7,-5,-12,-12,-13,-9
-3,-3,1,3,-1,-1,-7,-5,-12,-12,-13,-9
-4,-3,0,3,-1,-1,-7,-5,-12,-12,-13,-9
-4,-3,0,3,-1,-1,-7,-5,-12,-12,-13,-8
-4,-3,0,3,-1,-1,-7,-5,-12,-12,-13,-8
-4,-3,0,3,-1,-1,-7,-5,-12,-12,-13,-8
-3,-3,0,3,-1,-1,-7,-5,-12,-12,-13,-8
-3,-3,1,3,-1,0,-6,-5,-12,-12,-13,-8
-3,-2,1,2,-1,0,-6,-5,-12,-12,-12,-8
-2,-1,1,1,-1,0,-6,-5,-12,-12,-12,-9
-2,-1,0,1,0,0,-7,-5,-12,-12,-12,-9
-1,-2,-1,1,0,-1,-7,-6,-13,-13,-13,-9
-1,-3,-2,1,1,-2,-8,-6,-13,-13,-13,-9
-1,-3,-2,1,1,-2,-7,-5,-13,-13,-13,-10
-3,-3,0,2,-1,-1,-6,-4,-13,-12,-12,-9
-6,-3,3,4,-4,0,-5,-3,-12,-11,-11,-8
-7,-3,4,4,-5,0,-5,-3,-11,-10,-11,-7
-7,-3,4,5,-5,1,-5,-3,-11,-10,-11,-7
-7,-3,4,5,-5,1,-5,-4,-11,-10,-11,-7
-6,-3,2,5,-4,0,-6,-4,-12,-11,-11,-7
-6,-3,1,5,-3,0,-6,-5,-12,-11,-11,-8
-5,-3,1,4,-2,0,-6,-5,-12,-11,-11,-8
-3,-2,0,3,-1,0,-6,-5,-12,-11,-12,-8
-3,-3,0,3,-1,-1,-6,-5,-13,-11,-12,-8
-3,-4,-1,3,0,-2,-6,-5,-13,-12,-12,-8
-3,-4,-1,3,0,-2,-6,-5,-13,-12,-12,-9
-3,-4,-1,4,0,-2,-6,-5,-13,-12,-12,-9
-3,-4,0,4,0,-2,-6,-5,-13,-12,-12,-9
-4,-4,0,4,-1,-2,-6,-6,-13,-12,-12,-9
-4,-4,0,4,-1,-2,-6,-6,-13,-12,-12,-9
-3,-4,-1,4,0,-3,-6,-6,-13,-12,-12,-9
-4,-4,-1,4,0,-3,-6,-6,-13,-12,-12,-8
-5,-5,0,4,-2,-2,-6,-6,-13,-11,-12,-8
-5,-5,0,4,-2,-2,-6,-6,-13,-11,-12,-8
-4,-5,0,4,-1,-3,-6,-6,-14,-12,-12,-9
-4,-5,0,5,-1,-3,-6,-7,-14,-12,-12,-8
-5,-5,0,5,-2,-3,-6,-7,-13,-12,-12,-8
-6,-5,0,5,-2,-2,-6,-7,-13,-12,-12,-8
-6,-5,1,5,-3,-2,-6,-7,-13,-11,-12,-8
-6,-5,1,5,-3,-2,-6,-7,-13,-11,-12,-7
-5,-5,0,5,-2,-2,-6,-7,-13,-11,-12,-7
-5,-6,-1,5,-1,-3,-6,-8,-14,-12,-13,-8
-4,-6,-2,5,0,-4,-6,-8,-14,-12,-13,-9
-4,-6,-2,5,0,-4,-6,-8,-14,-12,-13,-9
-5,-6,-1,6,0,-3,-6,-8,-14,-12,-13,-8
-7,-6,0,6,-2,-2,-6,-8,-14,-12,-12,-8
-7,-6,1,6,-3,-2,-6,-8,-14,-12,-12,-8
-7,-5,2,6,-4,-1,-6,-8,-14,-11,-12,-8
-7,-5,1,6,-3,-2,-6,-8,-14,-11,-12,-8
-6,-5,0,6,-2,-3,-6,-8,-14,-11,-12,-8
-6,-5,0,6,-2,-3,-6,-8,-13,-11,-12,-8
-6,-5,1,6,-2,-2,-6,-8,-13,-10,-11,-8
-6,-5,1,6,-2,-3,-6,-8,-13,-10,-11,-8
-5,-6,0,6,-1,-4,-6,-9,-14,-11,-12,-8
-4,-6,-1,5,0,-4,-6,-10,-14,-12,-13,-9
-5,-6,-1,6,0,-4,-6,-10,-14,-11,-13,-9
-8,-7,1,8,-3,-3,-5,-9,-13,-10,-12,-8
-11,-7,3,10,-6,-2,-4,-8,-12,-10,-11,-7
-12,-8,3,10,-6,-2,-3,-8,-12,-10,-11,-8
-10,-8,2,10,-5,-3,-4,-8,-13,-10,-11,-8
-10,-8,1,10,-4,-3,-4,-9,-13,-10,-11,-9
-10,-9,1,10,-4,-3,-4,-9,-13,-10,-11,-9
-10,-9,1,10,-4,-3,-4,-9,-13,-10,-12,-9
-10,-9,0,10,-4,-3,-4,-9,-13,-11,-12,-10
-10,-9,0,10,-4,-4,-5,-9,-13,-11,-12,-11
-10,-10,1,11,-4,-4,-5,-9,-13,-11,-12,-10
-11,-10,1,11,-5,-4,-5,-9,-13,-11,-12,-10
-11,-9,2,11,-6,-3,-5,-9,-13,-11,-11,-11
-12,-9,2,11,-6,-3,-5,-10,-13,-10,-11,-11
-13,-9,3,11,-7,-3,-5,-10,-13,-10,-11,-10
-13,-9,3,12,-7,-3,-5,-11,-14,-10,-11,-11
-12,-9,3,11,-6,-3,-5,-11,-14,-10,-11,-12
-11,-9,2,10,-6,-3,-5,-11,-15,-11,-11,-12
-11,-10,1,10,-5,-3,-5,-11,-15,-11,-11,-12
-11,-10,1,11,-5,-3,-5,-11,-15,-11,-11,-12
-12,-10,2,11,-5,-3,-5,-11,-15,-11,-11,-12
-12,-10,1,11,-5,-3,-5,-11,-15,-11,-11,-12
-12,-10,1,11,-5,-4,-5,-11,-15,-11,-11,-12
-12,-11,1,12,-6,-4,-4,-11,-14,-11,-11,-12
-13,-11,1,12,-6,-4,-4,-10,-14,-11,-10,-13
-13,-11,1,12,-6,-4,-3,-10,-14,-10,-10,-13
-13,-11,1,12,-6,-4,-4,-10,-14,-10,-10,-13
-13,-11,1,12,-6,-4,-4,-11,-15,-10,-10,-13
-12,-11,1,12,-6,-4,-4,-11,-15,-10,-10,-13
-12,-11,1,11,-6,-4,-4,-11,-15,-10,-10,-14
-12,-11,1,11,-6,-4,-4,-11,-15,-10,-10,-14
-13,-11,1,12,-6,-5,-4,-11,-15,-10,-10,-14
-13,-11,1,12,-6,-5,-3,-11,-15,-10,-10,-14
-12,-10,1,11,-5,-5,-3,-11,-15,-10,-10,-15
-12,-10,1,11,-5,-5,-3,-11,-15,-11,-10,-16
-13,-11,1,12,-5,-5,-3,-11,-15,-11,-10,-16
-13,-11,1,12,-5,-5,-3,-11,-15,-11,-10,-16
-13,-10,2,11,-6,-4,-3,-11,-15,-11,-10,-16
-13,-9,3,11,-7,-3,-3,-11,-15,-11,-10,-17
-13,-11,1,12,-6,-5,-3,-11,-14,-10,-10,-16
-13,-13,-1,13,-5,-7,-2,-11,-14,-10,-9,-17
-13,-14,-2,13,-4,-8,-2,-12,-14,-10,-9,-18
-13,-14,-3,13,-4,-8,-2,-12,-14,-10,-9,-18
-13,-14,-3,13,-4,-8,-2,-12,-14,-10,-9,-18
-13,-14,-3,14,-4,-8,-2,-12,-15,-10,-9,-19
-13,-14,-2,14,-4,-7,-2,-12,-15,-10,-9,-20
-12,-13,-1,13,-5,-7,-2,-13,-15,-10,-9,-20
-12,-13,-1,13,-5,-6,-2,-13,-15,-10,-9,-21
-13,-12,0,12,-5,-6,-2,-14,-16,-11,-9,-21
-13,-12,0,12,-5,-6,-2,-14,-16,-11,-9,-22
-12,-12,-1,12,-5,-6,-2,-14,-16,-11,-9,-22
-12,-12,-1,12,-4,-6,-2,-14,-15,-11,-9,-22
-12,-12,-1,12,-4,-6,-1,-14,-15,-11,-9,-22
-12,-12,-1,12,-4,-6,-1,-14,-15,-11,-9,-22
-11,-11,0,11,-4,-5,-1,-14,-15,-10,-8,-22
-11,-11,0,11,-4,-5,-1,-14,-15,-10,-8,-22
-11,-11,-1,11,-4,-6,-1,-15,-15,-11,-8,-22
-11,-11,-1,11,-4,-6,-1,-15,-15,-11,-8,-22
-11,-11,-1,11,-4,-6,-1,-16,-15,-11,-8,-23
-11,-11,-1,11,-4,-6,-1,-16,-15,-11,-8,-23
-11,-11,-1,11,-4,-6,-1,-16,-15,-11,-9,-23
-11,-11,-1,11,-4,-6,-1,-16,-15,-11,-9,-23
-11,-11,-1,11,-4,-6,-1,-16,-15,-11,-9,-24
-11,-11,-1,10,-4,-6,-1,-16,-15,-11,-9,-24
-11,-11,-1,11,-4,-6,-1,-16,-15,-11,-8,-24
-11,-11,-1,11,-5,-6,-1,-17,-15,-11,-8,-24
-11,-11,-1,11,-5,-6,-1,-17,-15,-11,-8,-24
-11,-11,-1,11,-5,-6,-1,-17,-15,-11,-8,-24
-11,-11,-1,11,-5,-6,-1,-17,-15,-11,-8,-24
-11,-12,-1,11,-5,-6,-1,-17,-15,-11,-8,-24
-11,-12,-1,11,-4,-6,-1,-17,-15,-11,-8,-24
-11,-12,-1,11,-4,-6,-1,-17,-15,-11,-8,-24
-12,-12,-1,11,-5,-6,-1,-17,-15,-11,-8,-23
-13,-12,0,12,-5,-6,-1,-17,-15,-12,-8,-23
-12,-11,0,11,-5,-6,-1,-17,-15,-12,-8,-24
-12,-10,0,11,-5,-5,-1,-17,-15,-12,-8,-24
-11,-10,0,10,-5,-5,-1,-17,-15,-12,-8,-24
-11,-11,0,10,-5,-5,-1,-17,-15,-12,-8,-24
-10,-11,-1,10,-4,-5,-1,-17,-15,-12,-8,-24
-10,-11,0,10,-4,-5,0,-17,-14,-12,-7,-24
-11,-11,0,10,-5,-5,0,-16,-14,-11,-7,-23
-11,-10,0,10,-5,-5,0,-16,-14,-11,-7,-22
-10,-10,0,9,-5,-4,0,-16,-14,-11,-7,-22
-9,-9,0,9,-4,-4,1,-16,-14,-11,-7,-22
-9,-8,1,9,-5,-3,1,-16,-13,-11,-7,-22
-9,-8,1,9,-5,-3,1,-16,-13,-11,-7,-21
-9,-8,1,9,-5,-3,1,-15,-13,-11,-6,-21
-9,-8,1,8,-5,-2,1,-15,-12,-10,-6,-21
-8,-7,1,7,-5,-2,1,-15,-12,-10,-6,-20
-9,-6,2,7,-5,-1,1,-15,-12,-10,-6,-20
-9,-6,2,7,-5,-2,1,-14,-12,-10,-6,-20
-9,-7,1,7,-4,-3,2,-13,-11,-10,-6,-20
-9,-8,0,8,-4,-3,3,-12,-11,-9,-6,-20
-8,-8,0,8,-4,-4,4,-12,-10,-9,-5,-19
-8,-8,-1,8,-3,-4,4,-11,-10,-9,-5,-19
-6,-8,-2,7,-2,-4,4,-11,-9,-8,-5,-19
-4,-8,-3,6,0,-5,3,-11,-9,-8,-5,-19
-2,-8,-6,6,2,-6,2,-12,-10,-9,-6,-20
0,-9,-9,5,4,-8,1,-12,-10,-10,-7,-20
-1,-9,-9,5,4,-8,1,-11,-10,-9,-6,-19
-4,-9,-5,6,0,-6,2,-10,-8,-8,-5,-18
-6,-8,-2,7,-2,-5,3,-9,-7,-7,-3,-16
-7,-8,-1,7,-3,-4,3,-8,-7,-7,-3,-16
-6,-8,-2,7,-2,-5,3,-8,-8,-7,-3,-16
-5,-8,-3,7,-1,-5,2,-8,-8,-7,-3,-16
-5,-9,-4,8,0,-6,1,-8,-8,-7,-3,-15
-5,-9,-5,8,0,-6,0,-9,-8,-7,-3,-15
-5,-9,-5,8,0,-6,-2,-10,-9,-8,-3,-14
-5,-9,-5,7,0,-6,-3,-10,-9,-8,-4,-15
-4,-9,-6,6,1,-7,-4,-11,-10,-9,-4,-15
-4,-10,-6,6,1,-8,-4,-11,-10,-10,-4,-15
-4,-10,-7,7,2,-8,-4,-11,-10,-9,-4,-14
-3,-10,-8,7,2,-9,-4,-11,-10,-9,-4,-15
-2,-10,-8,7,3,-9,-4,-11,-10,-9,-5,-15
-3,-11,-8,7,2,-9,-4,-11,-10,-9,-5,-14
-4,-11,-8,8,2,-9,-4,-11,-10,-9,-5,-14
-4,-11,-8,7,2,-9,-4,-11,-11,-9,-5,-14
-4,-10,-8,7,2,-9,-5,-11,-11,-9,-5,-14
-4,-10,-8,6,2,-9,-5,-11,-12,-10,-5,-13
-4,-10,-8,6,2,-8,-5,-11,-12,-10,-5,-13
-4,-10,-7,6,2,-8,-5,-11,-12,-10,-5,-14
-4,-10,-7,6,2,-8,-5,-11,-12,-10,-5,-14
-4,-10,-8,7,2,-8,-5,-11,-12,-10,-5,-13
-4,-11,-9,7,2,-9,-5,-11,-12,-10,-5,-13
-3,-12,-10,7,2,-10,-5,-11,-12,-10,-5,-13
-3,-12,-11,7,3,-11,-5,-11,-12,-10,-5,-14
-3,-13,-11,7,3,-11,-5,-11,-12,-10,-5,-14
-3,-13,-10,7,3,-11,-5,-11,-12,-10,-5,-14
-3,-12,-10,7,3,-11,-5,-11,-12,-10,-5,-14
-3,-12,-9,7,3,-10,-5,-11,-12,-10,-5,-14
-3,-12,-9,7,3,-10,-5,-11,-12,-10,-5,-14
-3,-12,-9,7,3,-10,-5,-12,-12,-10,-6,-14
-3,-12,-9,8,3,-10,-5,-12,-12,-11,-6,-14
-3,-12,-9,8,3,-10,-5,-11,-12,-11,-6,-14
-2,-11,-9,7,3,-9,-4,-11,-11,-10,-6,-14
-2,-11,-9,7,3,-9,-4,-11,-11,-10,-6,-14
-3,-12,-9,8,2,-10,-4,-11,-11,-10,-6,-14
-4,-13,-10,8,3,-11,-4,-11,-11,-10,-6,-15
-4,-14,-11,9,3,-11,-4,-11,-11,-10,-6,-15
-4,-15,-11,9,3,-12,-4,-11,-11,-10,-6,-14
-4,-15,-11,9,3,-12,-4,-11,-12,-11,-7,-14
-3,-15,-11,9,3,-12,-4,-12,-12,-11,-7,-15
-4,-15,-10,10,2,-12,-3,-12,-12,-11,-6,-15
-6,-15,-8,11,0,-11,-3,-11,-12,-10,-6,-14
-7,-15,-8,11,0,-11,-3,-11,-11,-10,-6,-14
-5,-14,-8,9,0,-11,-3,-12,-11,-11,-6,-14
-4,-12,-7,8,1,-9,-4,-12,-11,-11,-6,-14
-4,-12,-8,8,1,-9,-3,-12,-11,-10,-6,-14
-4,-14,-10,9,2,-11,-2,-11,-10,-10,-6,-13
-4,-15,-11,10,2,-12,-2,-11,-10,-10,-5,-13
-3,-15,-12,9,3,-13,-3,-11,-10,-10,-5,-13
-4,-15,-12,9,3,-13,-3,-11,-10,-10,-5,-13
-6,-15,-10,11,1,-12,-2,-11,-10,-9,-5,-12
-7,-16,-9,12,0,-12,-2,-11,-9,-9,-5,-12
-7,-15,-9,11,0,-11,-2,-11,-9,-8,-4,-12
-7,-15,-9,11,0,-11,-1,-10,-9,-8,-4,-12
-6,-15,-10,10,1,-12,-2,-10,-9,-8,-4,-11
-5,-15,-11,10,3,-12,-2,-11,-10,-9,-5,-12
-3,-14,-11,9,4,-12,-3,-11,-10,-9,-5,-12
-3,-14,-12,8,4,-12,-3,-11,-10,-9,-5,-12
-3,-14,-12,8,4,-12,-3,-11,-10,-9,-5,-12
-3,-14,-11,8,4,-12,-3,-11,-10,-9,-5,-12
-3,-13,-10,8,4,-11,-3,-11,-10,-9,-5,-12
-4,-13,-9,8,3,-11,-3,-10,-9,-8,-5,-12
-4,-14,-10,9,3,-11,-3,-10,-9,-8,-5,-11
-3,-15,-10,9,3,-12,-2,-10,-9,-8,-5,-11
-3,-15,-11,9,4,-12,-2,-9,-9,-8,-5,-11
-3,-15,-12,9,4,-12,-2,-9,-9,-8,-5,-11
-2,-15,-13,8,5,-13,-2,-10,-9,-8,-5,-11
-2,-15,-14,8,6,-14,-2,-10,-9,-9,-6,-11
-1,-15,-15,8,6,-14,-2,-10,-9,-9,-6,-11
-1,-15,-14,8,6,-13,-2,-10,-8,-9,-5,-11
-4,-15,-11,10,3,-12,-1,-8,-8,-8,-4,-9
-5,-16,-10,11,2,-12,-1,-8,-8,-7,-4,-9
-4,-16,-11,10,3,-13,-2,-8,-8,-8,-5,-10
-4,-15,-11,9,3,-12,-1,-8,-8,-8,-4,-10
-4,-15,-10,9,2,-11,-1,-8,-7,-7,-4,-10
-3,-14,-11,9,3,-11,-1,-9,-7,-7,-4,-9
-2,-14,-12,8,4,-12,-1,-9,-8,-8,-4,-9
-1,-14,-13,7,5,-12,-2,-9,-8,-8,-5,-10
0,-13,-13,6,6,-12,-2,-9,-8,-9,-5,-10
0,-13,-13,6,5,-12,-2,-9,-8,-9,-5,-9
0,-13,-13,6,5,-12,-2,-9,-8,-9,-5,-9
0,-13,-13,6,6,-12,-2,-9,-8,-9,-5,-10
0,-13,-14,6,6,-12,-2,-9,-8,-9,-5,-10
1,-13,-14,6,7,-12,-2,-8,-7,-8,-5,-10
1,-13,-14,6,7,-12,-1,-8,-7,-8,-5,-10
1,-13,-14,6,7,-12,-1,-8,-7,-8,-5,-10
2,-13,-15,6,8,-13,-2,-8,-7,-8,-5,-11
2,-13,-15,6,8,-13,-2,-8,-7,-8,-5,-11
1,-13,-14,6,7,-13,-2,-8,-7,-8,-5,-10
0,-13,-13,6,7,-13,-1,-8,-6,-8,-5,-11
0,-14,-14,7,6,-13,0,-6,-6,-9,-6,-11
-1,-15,-14,8,6,-14,5,-3,-5,-9,-7,-12
-2,-17,-15,9,6,-15,12,2,-5,-11,-8,-13
-2,-17,-15,10,6,-16,23,8,-3,-12,-11,-15
-3,-18,-14,10,5,-16,35,15,-2,-14,-13,-18
-4,-19,-15,11,5,-17,47,23,0,-17,-16,-20
-3,-22,-19,13,7,-20,56,32,0,-21,-20,-23
-1,-26,-25,13,12,-25,63,41,0,-23,-23,-27
2,-29,-31,13,16,-29,69,50,2,-24,-25,-30
6,-30,-37,12,22,-33,73,60,6,-23,-25,-31
12,-30,-43,9,28,-36,75,70,12,-19,-23,-30
19,-26,-46,3,33,-35,74,79,20,-12,-18,-26
27,-18,-46,-4,37,-31,67,88,31,0,-8,-18
37,-9,-47,-14,42,-27,52,98,46,18,5,-6
50,-1,-51,-24,50,-25,30,110,65,41,22,7
63,7,-56,-35,59,-24,3,124,87,67,42,23
77,15,-61,-46,69,-22,-23,134,109,94,62,39
89,23,-66,-56,78,-21,-51,137,126,119,81,56
99,29,-70,-64,85,-20,-79,128,135,137,95,69
104,33,-71,-69,88,-18,-104,101,135,147,105,80
104,37,-67,-71,86,-14,-125,59,123,150,112,88
102,40,-62,-71,82,-9,-142,5,99,145,114,93
97,42,-56,-70,76,-5,-155,-50,68,132,113,96
91,44,-47,-68,69,0,-163,-95,34,112,108,96
83,46,-36,-66,59,6,-166,-125,0,87,100,93
73,48,-25,-61,49,12,-163,-142,-31,61,88,87
62,47,-15,-55,39,16,-155,-147,-55,39,76,80
52,47,-5,-49,29,21,-142,-142,-70,23,66,73
43,46,3,-44,20,25,-127,-132,-77,12,56,65
35,43,8,-39,13,26,-111,-118,-78,3,45,55
28,36,8,-32,9,23,-95,-103,-74,-4,33,43
20,28,7,-24,6,18,-80,-88,-67,-9,23,33
13,19,6,-17,3,14,-66,-74,-60,-12,15,23
7,12,4,-10,1,9,-54,-62,-52,-14,8,14
2,5,2,-4,0,4,-44,-52,-46,-16,2,6
0,-1,-1,0,0,0,-36,-44,-40,-17,-2,0
-2,-6,-5,4,1,-5,-29,-36,-34,-17,-6,-5
-3,-11,-8,7,2,-9,-22,-29,-28,-16,-9,-9
-4,-14,-10,9,2,-11,-16,-24,-24,-15,-10,-11
-5,-15,-10,10,1,-11,-12,-20,-20,-15,-10,-12
-6,-14,-8,10,1,-11,-9,-16,-17,-14,-9,-12
-6,-13,-7,9,1,-9,-7,-14,-15,-12,-8,-12
-6,-11,-5,8,0,-8,-5,-12,-12,-10,-7,-11
-7,-10,-3,8,-1,-6,-4,-10,-10,-9,-6,-10
-7,-9,-2,8,-2,-5,-4,-9,-9,-8,-5,-9
-6,-9,-3,8,-2,-5,-3,-8,-8,-8,-5,-10
-6,-10,-4,8,-1,-6,-2,-7,-7,-8,-5,-10
-7,-11,-4,9,-2,-7,0,-6,-6,-8,-5,-9
-8,-11,-4,9,-2,-7,0,-5,-6,-8,-5,-8
-8,-11,-3,9,-2,-7,1,-4,-6,-8,-5,-8
-8,-11,-4,9,-2,-7,1,-4,-6,-8,-5,-9
-8,-11,-4,9,-2,-7,1,-4,-6,-8,-6,-9
-9,-11,-4,10,-2,-7,1,-3,-5,-8,-6,-9
-9,-11,-3,10,-3,-6,2,-3,-5,-8,-5,-9
-8,-10,-3,9,-3,-6,2,-2,-5,-8,-5,-9
-8,-10,-3,9,-3,-5,3,-2,-5,-8,-5,-9
-9,-11,-3,10,-4,-5,3,-2,-5,-8,-5,-9
-10,-11,-2,10,-4,-6,3,-2,-5,-8,-5,-9
-10,-11,-2,10,-4,-6,3,-1,-5,-8,-5,-10
-10,-11,-2,10,-4,-6,3,-1,-4,-7,-5,-9
-10,-11,-2,10,-4,-6,3,-1,-4,-7,-5,-8
-10,-12,-2,10,-4,-6,4,-1,-3,-7,-5,-8
-10,-12,-2,11,-4,-6,4,0,-3,-7,-4,-8
-10,-13,-2,11,-4,-7,4,0,-3,-7,-4,-8
-10,-13,-3,11,-4,-7,4,0,-3,-7,-5,-8
-10,-13,-3,11,-4,-7,4,0,-3,-7,-5,-8
-10,-13,-3,12,-4,-7,5,0,-3,-7,-5,-8
-11,-13,-2,12,-4,-7,5,0,-3,-7,-5,-8
-11,-13,-2,12,-5,-7,5,0,-3,-7,-5,-8
-12,-13,-1,13,-5,-6,5,0,-2,-7,-5,-7
-13,-12,0,13,-7,-5,5,1,-2,-7,-5,-8
-14,-11,2,13,-8,-4,5,1,-2,-7,-5,-8
-15,-12,2,14,-8,-4,5,1,-2,-6,-4,-7
-15,-15,0,15,-7,-6,5,1,-1,-6,-4,-7
-15,-16,-1,15,-7,-7,5,2,-1,-5,-4,-7
-15,-15,0,15,-7,-6,5,2,-1,-5,-4,-8
-15,-15,0,15,-8,-6,5,2,-1,-5,-4,-8
-15,-15,0,15,-7,-6,5,2,-1,-5,-4,-7
-15,-15,0,15,-7,-6,5,2,-1,-5,-4,-7
-15,-15,0,15,-7,-6,5,2,-1,-6,-4,-7
-15,-15,0,15,-7,-6,4,2,-1,-6,-4,-7
-15,-15,0,15,-7,-7,5,2,0,-6,-4,-7
-17,-16,1,16,-9,-6,6,2,0,-5,-4,-7
-18,-16,2,17,-10,-5,7,3,1,-4,-3,-7
-18,-16,2,17,-10,-6,7,3,1,-4,-3,-7
-18,-17,1,17,-9,-7,7,3,1,-5,-3,-7
-17,-17,0,17,-8,-7,7,3,1,-5,-4,-7
-17,-16,0,17,-8,-7,7,4,1,-5,-4,-8
-18,-16,1,17,-10,-6,8,5,2,-4,-3,-7
-19,-17,2,18,-11,-6,8,5,3,-3,-3,-6
-19,-17,1,17,-10,-6,8,5,3,-3,-3,-7
-18,-17,1,17,-9,-7,7,5,3,-3,-3,-8
-18,-16,1,16,-9,-6,7,5,3,-3,-3,-8
-18,-16,2,16,-10,-6,7,5,3,-3,-3,-7
-18,-15,3,16,-10,-5,7,5,3,-3,-3,-7
-18,-15,3,16,-10,-5,7,5,3,-3,-3,-7
-17,-14,3,16,-10,-4,7,5,3,-3,-3,-7
-18,-15,3,16,-10,-4,7,6,3,-3,-3,-6
-19,-15,3,16,-10,-5,7,6,4,-3,-3,-6
-19,-15,3,17,-11,-5,7,6,4,-3,-2,-7
-19,-15,4,16,-11,-4,8,7,5,-2,-2,-7
-19,-14,4,16,-11,-4,8,7,5,-2,-2,-7
-19,-14,4,16,-11,-4,7,7,5,-2,-2,-7
-19,-14,4,16,-11,-4,7,6,5,-2,-2,-7
-19,-14,4,16,-12,-4,7,6,6,-2,-2,-7
-19,-14,5,16,-12,-4,7,7,6,-2,-2,-7
-19,-14,5,16,-12,-4,7,7,6,-2,-2,-6
-19,-13,5,16,-12,-3,7,7,6,-2,-2,-6
-20,-13,6,16,-13,-2,7,7,6,-1,-1,-6
-20,-13,6,16,-13,-2,7,7,7,-1,-1,-6
-20,-13,6,16,-13,-2,7,7,7,-1,-1,-6
-20,-13,7,16,-13,-2,7,7,7,-1,-1,-5
-20,-12,7,16,-14,-1,7,7,8,-1,0,-5
-19,-11,8,15,-14,0,7,7,8,-1,0,-5
-19,-10,8,15,-14,0,7,7,8,-1,0,-4
-19,-10,9,15,-14,0,7,7,8,-1,0,-4
-19,-10,9,14,-14,0,7,7,8,-1,0,-5
-19,-9,10,14,-14,1,7,7,9,0,0,-5
-19,-9,10,14,-14,1,7,7,9,0,0,-4
-19,-8,11,14,-15,2,7,7,9,0,0,-3
-19,-8,11,13,-15,2,6,7,9,0,1,-3
-19,-7,11,13,-15,2,6,7,9,0,1,-3
-19,-7,11,13,-15,2,6,7,9,1,2,-2
-19,-7,11,13,-15,2,6,7,9,1,2,-1
-19,-7,11,13,-15,3,6,8,10,1,2,-1
-19,-6,12,12,-16,3,6,8,11,2,3,-1
-19,-6,13,12,-16,4,6,8,11,2,3,-1
-19,-6,13,13,-17,4,5,8,12,2,3,-1
-19,-5,14,12,-17,5,5,8,12,2,3,-1
-19,-4,15,12,-17,6,5,8,12,3,3,-1
-19,-3,16,11,-17,7,5,8,13,4,4,0
-19,-3,17,11,-18,7,5,8,13,4,5,1
-19,-2,17,11,-18,8,5,8,14,4,6,2
-19,-1,18,10,-19,9,5,8,15,5,7,2
-18,0,18,9,-19,10,5,8,15,6,8,3
-18,1,19,9,-19,11,5,8,16,7,8,4
-18,2,20,8,-19,12,4,8,16,7,8,4
-18,3,20,7,-19,12,4,8,17,8,9,4
-17,4,20,6,-19,13,3,8,17,8,10,4
-17,4,21,6,-19,13,2,8,17,8,10,5
-16,5,21,5,-18,13,1,7,17,8,10,6
-15,6,21,4,-18,14,1,7,17,8,11,6
-14,8,23,3,-19,16,1,7,18,9,11,7
-15,9,24,3,-20,17,1,7,19,11,13,8
-17,10,27,3,-21,19,1,7,20,12,15,10
-18,11,29,3,-23,21,1,8,21,14,16,11
-18,12,30,3,-24,22,0,8,22,15,18,12
-18,12,30,3,-24,22,0,8,23,16,19,14
-17,13,31,2,-24,23,0,8,23,16,19,15
-16,15,31,0,-24,24,-1,7,24,17,20,16
-15,16,31,-1,-23,24,-2,7,24,18,20,17
-13,17,31,-2,-22,25,-3,7,25,19,21,18
-12,18,30,-3,-21,25,-4,6,25,20,22,19
-10,19,29,-5,-20,25,-5,5,26,20,22,19
-9,21,29,-6,-19,26,-6,5,26,21,23,20
-8,23,31,-7,-19,28,-6,5,27,23,25,22
-9,24,33,-7,-21,29,-6,5,29,24,26,24
-11,24,35,-6,-23,30,-6,5,30,26,27,26
-11,24,35,-6,-24,30,-6,5,31,27,28,27
-11,25,36,-7,-24,31,-6,5,32,29,29,28
-10,27,37,-9,-23,32,-6,5,32,30,30,29
-8,27,36,-10,-22,32,-7,5,32,30,31,29
-7,28,35,-10,-21,32,-7,5,33,31,31,30
-7,28,35,-11,-21,32,-8,4,33,31,32,30
-7,28,35,-11,-21,32,-8,4,33,32,32,31
-7,28,35,-11,-21,32,-8,4,33,32,32,31
-6,28,34,-12,-20,32,-8,4,34,33,33,31
-5,29,34,-12,-20,32,-8,4,34,34,33,31
-5,28,33,-12,-19,32,-8,4,35,34,33,31
-5,28,33,-11,-19,31,-8,4,35,34,33,31
-5,28,32,-11,-18,31,-8,4,36,35,33,31
-4,28,32,-11,-18,31,-8,5,36,35,33,30
-4,27,31,-11,-18,30,-8,5,37,35,32,30
-4,26,30,-10,-17,28,-8,6,37,35,31,29
-5,24,29,-9,-17,27,-7,6,37,34,30,28
-5,23,29,-9,-17,27,-7,6,36,34,29,26
-5,22,28,-9,-17,26,-7,7,36,33,28,25
-7,21,28,-7,-17,25,-6,7,35,32,27,24
-8,19,27,-6,-17,24,-5,8,35,30,26,23
-9,18,26,-5,-17,23,-4,8,33,29,24,21
-9,16,24,-3,-16,21,-4,8,32,27,22,20
-10,13,23,-2,-16,19,-3,8,30,25,20,18
-10,11,22,0,-16,17,-2,8,28,23,18,16
-11,9,21,0,-16,16,-1,8,26,21,15,14
-11,7,19,1,-15,14,-1,8,24,19,13,12
-11,6,18,2,-14,13,-1,7,21,16,11,10
-12,6,18,2,-15,13,-1,6,19,13,9,7
-13,5,18,3,-15,13,-1,5,16,11,7,5
-13,2,15,4,-14,10,0,5,15,9,6,3
-14,-1,13,6,-13,7,0,5,13,8,4,2
-14,-3,11,8,-13,5,0,4,11,6,2,1
-14,-4,10,9,-12,4,1,4,9,4,1,0
-14,-5,9,9,-11,3,1,3,7,3,0,-1
-15,-6,9,10,-12,3,1,3,6,2,-1,-2
-16,-7,9,11,-12,2,1,2,5,0,-2,-3
-16,-7,8,11,-12,2,1,1,4,-1,-3,-4
-16,-7,8,11,-12,2,1,1,3,-2,-4,-5
-17,-7,9,11,-12,2,1,0,2,-3,-5,-5
-18,-8,10,12,-13,2,1,0,1,-3,-6,-5
-18,-8,10,13,-14,1,1,0,0,-4,-6,-6
-18,-9,9,13,-14,1,1,0,0,-4,-7,-7
-18,-9,8,14,-13,0,1,-1,-1,-5,-8,-8
-18,-10,8,14,-13,0,0,-1,-2,-6,-8,-9
-18,-9,8,13,-13,0,1,-2,-2,-6,-8,-9
-18,-9,8,13,-13,0,1,-2,-2,-7,-8,-10
-18,-9,8,13,-12,0,1,-2,-3,-7,-9,-10
-18,-10,7,13,-12,0,1,-3,-3,-8,-10,-10
-18,-10,7,14,-12,0,1,-3,-4,-8,-10,-10
-17,-10,7,13,-12,0,1,-3,-4,-8,-10,-11
-17,-10,7,13,-12,0,1,-3,-4,-8,-10,-11
-17,-10,7,13,-12,0,1,-3,-4,-9,-10,-11
-17,-10,7,13,-12,0,1,-4,-5,-9,-10,-11
-17,-10,7,13,-12,0,1,-4,-5,-9,-10,-11
-17,-10,8,13,-12,0,1,-4,-6,-9,-10,-12
-18,-9,9,14,-13,0,1,-4,-6,-10,-11,-12
-19,-9,9,14,-14,0,1,-5,-6,-10,-11,-12
-18,-9,9,14,-13,0,1,-5,-6,-10,-11,-13
-18,-9,8,14,-13,0,1,-6,-6,-10,-11,-13
-18,-9,8,14,-12,0,1,-6,-7,-10,-11,-13
-17,-9,7,13,-12,0,1,-7,-7,-11,-12,-13
-16,-9,6,13,-11,-1,0,-7,-8,-11,-12,-14
-17,-9,7,13,-12,0,0,-7,-7,-10,-12,-14
-20,-10,9,14,-15,0,1,-6,-7,-10,-11,-13
-21,-10,11,15,-16,1,2,-6,-6,-10,-11,-12
-21,-10,11,15,-16,1,2,-6,-6,-11,-12,-13
-20,-9,11,14,-16,2,2,-6,-7,-11,-12,-14
-19,-9,10,14,-15,2,1,-6,-7,-12,-12,-15
-18,-9,10,14,-14,1,1,-6,-7,-12,-13,-15
-19,-10,9,14,-14,1,1,-7,-7,-11,-13,-15
-19,-9,9,14,-14,1,1,-7,-7,-11,-13,-15
-19,-9,10,14,-15,1,1,-7,-7,-11,-13,-14
-20,-9,10,14,-15,1,1,-7,-7,-12,-13,-14
-19,-9,10,14,-15,0,1,-7,-8,-12,-13,-14
-19,-9,9,14,-14,0,1,-7,-8,-12,-14,-15
-18,-8,9,14,-14,1,1,-7,-8,-12,-14,-15
-18,-8,10,14,-14,1,1,-7,-8,-12,-14,-15
-20,-8,11,14,-15,2,1,-7,-8,-12,-14,-14
-22,-8,13,15,-17,3,1,-7,-7,-12,-13,-14
-23,-8,14,15,-18,3,2,-7,-7,-12,-13,-14
-22,-9,13,15,-17,2,1,-7,-7,-13,-13,-13
-21,-10,11,16,-16,1,1,-7,-8,-13,-13,-14
-21,-10,10,16,-16,0,1,-7,-8,-13,-13,-14
-20,-10,10,16,-16,1,1,-6,-7,-12,-13,-15
-20,-10,10,16,-16,1,1,-6,-7,-12,-13,-15
-21,-10,10,16,-16,1,1,-7,-7,-12,-13,-15
-21,-10,10,15,-15,1,0,-7,-7,-13,-14,-15
-21,-10,10,15,-15,1,0,-7,-7,-13,-14,-15
-21,-9,11,15,-16,1,0,-6,-7,-13,-14,-15
-22,-10,12,16,-17,1,0,-6,-7,-13,-14,-14
-23,-10,12,16,-18,1,1,-6,-7,-13,-13,-15
-23,-10,13,17,-19,2,1,-6,-7,-12,-13,-15
-24,-10,13,17,-19,2,1,-6,-6,-12,-13,-14
-24,-10,13,17,-19,2,0,-6,-6,-13,-13,-14
-23,-10,13,16,-18,2,0,-6,-6,-13,-13,-14
-22,-10,12,15,-16,2,0,-6,-6,-13,-13,-15
-21,-10,11,15,-16,1,0,-6,-6,-13,-13,-15
-22,-11,11,16,-16,1,0,-7,-6,-13,-13,-15
-22,-11,11,17,-17,1,0,-7,-7,-13,-13,-15
-22,-11,10,17,-16,0,0,-7,-7,-13,-13,-15
-21,-11,9,16,-15,0,0,-7,-7,-13,-14,-15
-22,-11,9,16,-15,0,0,-7,-7,-13,-14,-15
-24,-11,11,17,-17,1,0,-6,-6,-12,-13,-14
-26,-11,13,18,-19,2,1,-5,-6,-11,-13,-13
-26,-11,14,18,-19,2,1,-5,-6,-12,-13,-14
-25,-11,13,18,-19,2,0,-5,-6,-12,-13,-14
-25,-12,12,18,-19,1,0,-5,-6,-12,-13,-14
-25,-13,11,19,-18,0,0,-5,-6,-12,-13,-14
-24,-12,11,18,-17,0,0,-5,-6,-12,-12,-15
-24,-12,11,18,-17,0,0,-5,-6,-12,-12,-14
-24,-12,11,18,-18,0,0,-5,-6,-12,-13,-14
-25,-11,12,18,-18,1,0,-6,-6,-12,-13,-14
-24,-11,12,18,-18,1,0,-6,-6,-12,-13,-15
-24,-11,12,18,-17,1,0,-6,-6,-13,-14,-15
-24,-12,11,18,-17,0,0,-6,-6,-13,-14,-15
-25,-13,12,19,-18,0,0,-6,-6,-13,-13,-15
-25,-13,12,19,-19,1,0,-6,-6,-12,-13,-15
-25,-13,12,19,-19,0,0,-6,-6,-12,-13,-15
-25,-13,11,19,-18,0,0,-6,-6,-12,-13,-15
-25,-13,11,19,-18,0,0,-6,-6,-12,-13,-15
-25,-13,12,19,-18,0,0,-5,-6,-12,-13,-15
-24,-12,12,19,-18,0,0,-5,-6,-12,-13,-16
-24,-12,11,18,-17,0,0,-6,-6,-12,-13,-16
-25,-12,12,19,-18,0,0,-6,-6,-12,-13,-16
-26,-12,14,19,-20,1,1,-5,-5,-12,-13,-16
-27,-13,14,20,-21,1,1,-5,-5,-11,-12,-15
-27,-13,14,20,-21,1,1,-5,-5,-11,-12,-15
-27,-13,13,20,-20,0,0,-6,-5,-12,-13,-15
-25,-14,11,20,-18,0,0,-6,-6,-12,-14,-16
-24,-14,10,20,-17,-1,0,-7,-6,-13,-14,-17
-24,-14,10,20,-17,-1,0,-7,-6,-13,-14,-17
-25,-14,11,20,-18,0,0,-7,-6,-13,-14,-17
-28,-14,14,20,-21,1,0,-6,-5,-12,-13,-16
-31,-13,18,22,-24,3,1,-5,-4,-11,-12,-15
-33,-14,19,23,-26,3,2,-5,-4,-10,-11,-15
-31,-14,17,22,-24,2,1,-5,-5,-11,-12,-15
-28,-14,13,21,-20,0,1,-6,-6,-11,-13,-16
-26,-14,12,20,-19,0,0,-6,-6,-11,-13,-16
-27,-14,12,21,-19,0,0,-6,-6,-11,-13,-16
-27,-14,13,21,-20,0,0,-6,-6,-11,-13,-16
-27,-14,13,20,-20,1,0,-6,-6,-12,-13,-16
-25,-13,13,19,-19,1,0,-7,-6,-12,-14,-17
-24,-13,12,18,-18,0,0,-7,-6,-12,-14,-17
-25,-13,13,19,-19,0,0,-7,-6,-12,-13,-16
-26,-13,13,20,-20,1,0,-6,-6,-11,-13,-15
-27,-13,13,20,-20,1,1,-6,-5,-11,-12,-15
-27,-13,13,20,-20,1,1,-5,-5,-11,-12,-15
-28,-13,14,21,-21,1,1,-5,-5,-11,-12,-15
-29,-14,14,21,-22,1,1,-5,-5,-11,-12,-15
-28,-13,15,20,-22,2,1,-6,-6,-11,-12,-15
-26,-11,15,19,-21,2,0,-6,-7,-11,-13,-16
-25,-12,13,18,-20,1,0,-6,-7,-11,-13,-15
-25,-14,12,20,-19,0,1,-5,-7,-11,-12,-14
-26,-15,11,21,-19,-1,1,-5,-6,-10,-12,-14
-26,-15,11,21,-19,-1,1,-5,-6,-10,-12,-14
-27,-15,12,22,-19,0,1,-5,-5,-10,-12,-14
-28,-15,12,22,-20,0,1,-5,-5,-10,-12,-13
-28,-14,13,21,-20,0,1,-5,-5,-10,-12,-13
-28,-14,13,21,-20,0,1,-5,-5,-10,-11,-14
-27,-14,13,20,-19,0,1,-5,-6,-10,-11,-14
-26,-14,12,20,-19,0,1,-5,-6,-10,-12,-14
-27,-14,13,20,-20,0,1,-5,-6,-10,-12,-14
-28,-13,15,21,-21,1,2,-4,-5,-9,-12,-14
-28,-13,15,21,-21,2,2,-4,-5,-9,-12,-13
-28,-14,14,21,-21,1,1,-4,-5,-9,-12,-13
-27,-14,13,21,-20,0,1,-4,-5,-9,-12,-13
-27,-13,12,20,-19,0,1,-4,-5,-9,-12,-13
-27,-13,13,20,-20,0,1,-4,-5,-9,-12,-13
-28,-13,14,21,-21,0,2,-3,-5,-9,-11,-12
-30,-13,16,22,-23,1,3,-2,-5,-9,-11,-12
-31,-13,18,22,-24,2,3,-2,-4,-8,-10,-12
-31,-12,18,22,-24,3,3,-2,-4,-8,-10,-12
-29,-12,16,22,-22,2,2,-2,-5,-9,-11,-12
-27,-13,13,21,-20,1,2,-2,-5,-9,-11,-12
-25,-13,11,20,-18,0,1,-3,-6,-9,-11,-13
-25,-13,11,19,-18,0,1,-3,-6,-9,-11,-13
-25,-13,11,19,-18,0,1,-3,-6,-9,-11,-13
-25,-13,12,19,-19,0,1,-3,-6,-9,-11,-13
-25,-12,13,19,-19,1,1,-3,-6,-9,-11,-13
-25,-12,13,19,-19,1,1,-2,-6,-9,-11,-13
-25,-12,13,19,-19,1,1,-2,-5,-9,-11,-13
-25,-12,12,19,-19,1,1,-2,-5,-9,-11,-12
-25,-12,12,19,-18,1,1,-2,-5,-9,-11,-13
-24,-12,11,18,-18,1,1,-2,-5,-9,-11,-13
-24,-11,12,18,-18,1,2,-2,-5,-9,-11,-12
-25,-12,12,18,-18,1,2,-2,-5,-9,-11,-12
-25,-12,13,19,-19,1,2,-2,-5,-8,-11,-12
-27,-12,15,19,-21,2,2,-1,-5,-8,-10,-12
-28,-12,16,20,-22,2,3,0,-4,-8,-10,-11
-27,-12,15,19,-21,2,2,-1,-4,-8,-10,-11
-27,-12,15,19,-21,2,2,-1,-4,-8,-10,-11
-26,-12,14,19,-21,2,2,-1,-4,-8,-10,-12
-26,-11,14,19,-20,2,3,-1,-4,-8,-10,-12
-25,-12,14,19,-20,2,3,-1,-4,-8,-10,-11
-25,-12,13,18,-19,1,3,-1,-4,-8,-10,-11
-25,-12,13,18,-19,0,3,-1,-4,-8,-10,-12
-24,-12,13,18,-18,0,3,-1,-4,-8,-10,-12
-24,-12,13,18,-18,0,3,-1,-4,-8,-10,-12
-24,-11,14,18,-19,1,3,-1,-4,-8,-10,-12
-24,-10,14,18,-19,2,3,-1,-4,-8,-10,-12
-24,-10,14,18,-19,2,3,-1,-4,-8,-10,-11
-25,-11,14,18,-19,2,3,-1,-4,-8,-10,-11
-25,-11,14,18,-19,2,3,-1,-4,-8,-10,-11
-24,-10,14,17,-19,2,3,-1,-4,-8,-10,-11
-23,-10,14,17,-19,2,3,-1,-4,-8,-10,-11
-23,-10,13,17,-18,2,3,-1,-4,-8,-10,-10
-23,-11,12,17,-18,1,3,-1,-4,-8,-9,-10
-23,-11,13,17,-18,1,3,-1,-4,-7,-9,-10
-24,-10,13,17,-19,2,4,-1,-4,-7,-8,-9
-24,-10,14,17,-19,2,4,-1,-4,-6,-8,-8
-24,-10,14,17,-19,2,4,-1,-4,-6,-8,-8
-24,-10,13,17,-18,2,4,-1,-4,-7,-9,-8
-23,-10,13,17,-18,2,4,-1,-4,-7,-9,-9
-22,-10,13,16,-18,2,3,-2,-4,-7,-9,-9
-22,-10,13,17,-18,2,3,-2,-4,-7,-10,-9
-23,-11,13,17,-18,2,4,-2,-4,-7,-9,-8
-24,-10,15,17,-19,3,4,-1,-3,-7,-8,-8
-24,-9,16,17,-19,3,4,-1,-3,-7,-8,-8
-23,-9,15,16,-19,3,4,-1,-4,-7,-8,-7
-22,-9,13,16,-18,2,4,-1,-4,-7,-8,-7
-21,-8,12,15,-17,1,4,-1,-4,-7,-8,-7
-20,-8,12,15,-16,1,4,-1,-4,-7,-8,-7
-21,-9,12,15,-17,1,4,-2,-4,-8,-8,-7
-23,-9,14,16,-19,2,4,-1,-3,-7,-8,-6
-25,-9,16,17,-21,4,5,-1,-3,-6,-8,-6
-26,-9,17,17,-21,4,5,0,-2,-6,-8,-6
-25,-8,17,17,-21,4,5,-1,-3,-6,-8,-6
-24,-8,15,16,-19,4,5,-1,-4,-6,-8,-6
-23,-8,14,16,-18,3,5,-1,-4,-6,-8,-7
-23,-8,14,16,-19,3,5,-1,-3,-6,-8,-6
-23,-8,15,16,-19,3,5,-1,-3,-6,-8,-5
-23,-8,15,15,-19,3,4,-2,-3,-7,-8,-5
-21,-8,14,14,-18,3,4,-2,-4,-8,-9,-6
-20,-9,13,14,-17,2,4,-2,-4,-8,-9,-7
-20,-9,13,14,-16,1,4,-2,-4,-8,-9,-7
-20,-8,13,14,-16,1,4,-2,-4,-8,-9,-7
-20,-8,13,14,-16,2,4,-2,-4,-8,-8,-7
-21,-7,13,14,-17,3,5,-2,-4,-8,-8,-6
-22,-8,13,15,-18,3,5,-1,-4,-8,-8,-6
-22,-8,14,16,-18,3,5,-1,-4,-8,-8,-5
-22,-8,14,15,-18,3,5,-1,-4,-8,-8,-5
-22,-8,14,15,-18,3,5,-1,-4,-8,-8,-6
-21,-8,14,14,-17,3,4,-1,-5,-8,-9,-6
-20,-7,14,14,-17,3,4,-1,-5,-8,-9,-6
-20,-7,14,13,-16,3,5,-1,-4,-8,-9,-6
-19,-6,13,13,-16,3,5,-1,-4,-8,-9,-6
-19,-6,13,13,-16,3,5,-1,-4,-8,-9,-6
-19,-6,13,13,-16,4,5,-1,-4,-8,-9,-6
-20,-6,14,13,-16,4,5,-1,-4,-8,-9,-6
-19,-6,14,13,-16,4,5,-1,-4,-8,-8,-6
-19,-6,13,12,-16,4,5,-1,-4,-8,-8,-7
-19,-6,14,12,-16,4,5,-1,-4,-8,-8,-7
-20,-6,15,13,-17,4,5,-1,-4,-8,-8,-7
-21,-6,15,13,-18,5,5,-1,-4,-8,-8,-7
-21,-6,15,13,-17,5,5,-1,-4,-8,-8,-7
-21,-6,14,13,-17,4,5,-1,-4,-8,-8,-6
-21,-6,14,13,-17,4,5,-1,-5,-8,-8,-6
-20,-6,14,13,-17,4,5,-1,-5,-8,-8,-7
-19,-5,14,12,-16,4,5,-1,-5,-8,-8,-7
-18,-5,14,12,-16,4,5,-1,-5,-8,-8,-7
-18,-5,14,12,-15,4,5,-1,-4,-8,-8,-6
-18,-5,14,12,-15,4,5,-1,-4,-7,-8,-7
-18,-5,14,12,-15,4,5,-1,-4,-7,-8,-7
-18,-4,14,12,-16,5,5,-1,-4,-8,-8,-7
-18,-3,15,11,-16,6,5,-1,-5,-8,-8,-7
-17,-3,14,10,-15,6,5,-1,-5,-8,-8,-7
-16,-4,12,10,-14,4,5,-1,-4,-8,-8,-7
-16,-5,12,10,-14,4,6,-1,-4,-7,-7,-7
-17,-4,14,10,-15,5,6,-1,-3,-7,-7,-6
-19,-4,16,11,-17,6,7,0,-3,-6,-6,-5
-20,-3,18,11,-19,7,7,0,-2,-6,-6,-4
-20,-3,18,11,-19,8,7,0,-2,-5,-5,-4
-19,-2,18,11,-18,8,7,0,-2,-5,-5,-4
-18,-2,17,10,-17,8,7,0,-2,-5,-6,-4
-17,-1,16,9,-16,8,7,0,-2,-5,-6,-4
-16,0,16,8,-16,8,7,0,-2,-4,-5,-4
-16,0,16,8,-15,8,8,0,-1,-4,-5,-3
-16,0,16,8,-15,8,8,1,-1,-4,-5,-2
-16,0,16,8,-15,8,9,1,-1,-4,-5,-2
-15,0,15,7,-14,8,9,1,-1,-4,-5,-2
-13,0,14,7,-13,7,9,2,0,-4,-5,-1
-12,0,12,7,-12,6,9,2,0,-4,-5,-1
-13,-1,13,7,-13,6,10,3,0,-4,-5,-1
-15,0,15,8,-15,7,11,4,1,-3,-4,0
-15,0,15,8,-15,7,11,4,1,-2,-4,0
-14,-1,14,7,-14,6,10,4,1,-3,-4,0
-12,-1,12,7,-12,5,9,4,0,-3,-4,0
-12,-2,11,7,-11,5,9,4,1,-3,-4,0
-12,-2,11,7,-11,5,9,5,1,-3,-3,1
-13,-2,11,8,-11,5,9,5,1,-3,-3,1
-13,-2,11,8,-12,5,9,5,1,-3,-3,1
-12,-2,10,7,-11,4,8,4,0,-3,-3,1
-11,-2,9,6,-11,4,7,4,0,-3,-3,1
-12,-3,10,7,-11,4,6,4,0,-3,-4,2
-14,-3,11,8,-12,4,6,4,0,-3,-4,2
-14,-3,11,8,-12,4,5,4,0,-3,-4,2
-15,-3,11,9,-12,4,5,4,0,-3,-4,3
-15,-4,11,9,-12,3,4,3,0,-3,-4,3
-14,-4,10,9,-12,3,4,3,0,-3,-5,3
-13,-3,10,8,-11,3,4,3,-1,-3,-4,2
-12,-3,10,8,-11,4,3,3,-1,-2,-4,2
-12,-4,9,8,-10,3,3,3,-1,-3,-4,2
-11,-4,8,8,-10,2,2,2,-2,-4,-5,2
-10,-3,7,7,-9,2,1,1,-3,-5,-6,1
-10,-3,7,7,-9,2,1,1,-3,-5,-6,0
-11,-3,8,7,-10,2,2,1,-3,-4,-5,1
-13,-4,9,8,-11,2,2,2,-3,-4,-5,1
-14,-4,10,9,-12,2,2,2,-3,-4,-5,1
-14,-4,10,9,-12,3,2,3,-3,-3,-4,1
-15,-5,10,10,-12,3,3,3,-2,-3,-4,1
-15,-6,9,11,-12,2,3,3,-2,-3,-4,1
-15,-6,8,11,-11,1,3,3,-2,-4,-5,1
-14,-6,8,11,-11,0,3,3,-2,-4,-5,0
-13,-6,7,10,-10,0,3,3,-2,-4,-5,0
-13,-6,7,10,-10,0,3,3,-2,-4,-6,0
-13,-6,8,10,-11,1,3,3,-3,-5,-6,0
-14,-6,9,10,-11,1,2,3,-3,-5,-6,-1
-14,-6,9,10,-11,1,2,3,-3,-4,-6,-1
-13,-6,8,10,-11,1,2,2,-3,-4,-6,0
-13,-6,8,10,-10,1,2,2,-3,-5,-6,0
-12,-5,7,9,-10,1,2,2,-3,-5,-6,0
-12,-5,7,9,-9,1,2,2,-3,-5,-6,0
-12,-5,8,9,-10,2,2,2,-3,-5,-6,0
-14,-5,10,10,-12,3,3,3,-2,-4,-6,0
-16,-5,12,11,-14,3,4,4,-2,-4,-5,0
-16,-5,12,11,-14,3,5,4,-2,-4,-5,0
-16,-5,11,10,-14,3,5,4,-2,-4,-6,0
-16,-5,11,10,-13,3,5,3,-2,-4,-6,1
-16,-5,11,10,-13,3,5,3,-2,-4,-6,0
-17,-5,12,10,-14,3,5,3,-2,-4,-6,0
-17,-5,12,10,-14,3,5,3,-2,-4,-6,0
-16,-5,11,10,-13,3,5,2,-2,-5,-7,0
-15,-5,10,9,-13,2,4,2,-3,-5,-7,0
-14,-5,10,9,-12,3,4,2,-2,-5,-7,0
-14,-4,10,9,-12,3,5,2,-2,-4,-6,0
-14,-4,10,9,-12,3,5,2,-2,-4,-6,1
-14,-4,10,8,-12,3,5,2,-2,-3,-6,1
-13,-4,10,8,-12,3,5,2,-1,-3,-5,1
-14,-4,11,8,-12,3,5,2,-1,-3,-5,2
-14,-5,11,9,-12,3,5,2,-1,-3,-5,2
-14,-4,11,9,-12,3,5,2,-1,-3,-5,1
-15,-3,12,8,-13,4,6,3,-1,-2,-5,1
-15,-3,13,9,-14,5,6,3,0,-2,-4,2
-15,-3,13,9,-14,5,6,3,0,-2,-4,3
-15,-3,12,9,-14,5,6,3,0,-2,-4,3
-14,-3,12,8,-13,5,6,3,0,-2,-4,3
-14,-3,12,8,-13,5,6,3,0,-2,-3,3
-14,-3,12,8,-13,5,6,3,0,-2,-3,3
-14,-2,12,8,-13,5,7,4,0,-1,-3,3
-13,-2,11,7,-12,5,7,4,0,-1,-3,3
-13,-2,11,7,-12,5,7,4,0,-1,-3,2
-14,-2,12,7,-13,6,7,4,0,-1,-3,3
-14,-2,13,7,-13,6,7,4,0,-1,-3,3
-14,-2,13,7,-14,6,7,4,1,0,-2,3
-14,-1,13,7,-14,6,8,5,1,0,-2,3
-14,-1,13,7,-14,6,8,5,1,0,-2,3
-14,-1,13,7,-14,6,8,5,1,0,-2,3
-14,-1,13,7,-14,6,8,5,1,0,-2,3
-14,-1,13,7,-14,6,8,6,1,0,-2,3
-14,-1,13,7,-14,6,8,6,1,0,-2,3
-14,-1,13,7,-14,6,8,6,1,0,-2,4
-14,-1,13,7,-14,6,8,6,1,0,-1,4
-14,-1,13,7,-14,6,8,6,1,0,-1,4
-14,-1,13,7,-14,6,8,6,1,0,-1,5
-14,-1,13,8,-14,6,8,6,1,0,-1,5
-14,-1,13,8,-14,6,8,6,1,0,-1,5
-14,-1,13,7,-14,6,9,7,1,1,-1,5
-14,-1,13,7,-14,6,9,7,1,1,-1,5
-14,-1,13,6,-14,6,9,7,1,1,-1,6
-13,0,13,6,-14,7,9,7,1,1,-1,6
-13,0,13,6,-13,7,9,7,1,1,-1,6
-13,0,13,6,-13,7,9,7,1,1,-1,6
-13,0,14,6,-13,7,9,7,1,1,-1,6
-13,0,14,6,-14,7,9,7,1,0,-1,5
-13,0,15,6,-14,8,9,8,1,0,-1,5
-13,1,15,6,-14,8,9,8,1,1,-1,5
-14,1,16,6,-15,9,8,8,1,1,-1,5
-15,1,16,7,-16,9,8,8,1,1,-1,6
-15,1,16,7,-15,8,8,8,2,1,-1,6
-14,1,15,6,-14,8,9,8,2,1,-1,5
-14,1,16,6,-15,9,10,9,2,1,-1,4
-16,0,18,7,-17,9,15,13,4,1,-1,4
-18,0,19,9,-18,9,22,18,5,1,-2,3
-19,-1,19,10,-19,9,32,23,5,-1,-4,1
-19,-2,18,10,-18,8,44,30,6,-3,-7,-1
-18,-3,16,11,-17,7,55,37,7,-6,-10,-4
-18,-5,13,11,-16,4,65,47,8,-9,-13,-7
-17,-8,8,12,-13,0,73,57,9,-11,-16,-10
-13,-12,1,12,-7,-5,78,68,10,-13,-18,-14
-8,-15,-7,11,-1,-11,82,79,14,-13,-20,-16
-3,-16,-13,9,5,-14,83,90,20,-10,-19,-16
3,-14,-17,5,11,-15,83,101,27,-4,-15,-14
11,-6,-17,-2,15,-11,77,109,36,4,-8,-9
21,3,-18,-12,20,-6,63,118,49,18,3,1
34,10,-23,-23,29,-6,43,132,67,38,18,14
47,18,-30,-33,39,-5,19,149,90,63,36,28
61,26,-34,-45,48,-3,-5,163,114,91,56,44
75,35,-39,-56,56,-1,-31,172,135,117,76,61
85,42,-42,-64,63,0,-58,170,150,137,93,76
92,47,-44,-70,68,1,-84,149,155,151,105,88
97,51,-45,-74,71,3,-107,108,148,156,113,96
98,54,-44,-76,70,6,-127,51,127,152,115,101
95,56,-39,-76,66,9,-143,-10,96,141,114,104
87,58,-30,-73,58,15,-153,-60,64,125,111,105
77,60,-17,-70,47,22,-158,-96,30,105,105,104
68,61,-6,-66,37,28,-158,-118,-3,82,95,100
61,61,1,-62,30,31,-151,-129,-31,59,83,94
54,60,7,-58,24,33,-141,-129,-52,41,71,86
46,59,14,-53,16,37,-127,-122,-63,28,62,78
35,57,22,-46,6,40,-111,-109,-67,19,53,70
25,52,27,-38,-1,40,-94,-94,-65,11,42,61
17,46,29,-32,-5,38,-78,-78,-60,4,31,49
12,39,27,-26,-7,34,-64,-64,-54,0,22,38
7,31,25,-20,-8,28,-53,-52,-47,-3,14,29
3,23,21,-14,-9,23,-42,-41,-42,-6,7,21
0,16,18,-9,-9,17,-33,-32,-36,-8,1,14
-3,11,15,-4,-9,13,-24,-25,-31,-9,-3,7
-6,6,13,0,-9,9,-17,-18,-26,-10,-6,2
-8,3,11,3,-9,7,-11,-13,-21,-10,-8,0
-10,1,11,4,-10,6,-7,-9,-18,-9,-8,-2
-12,1,13,5,-12,7,-3,-6,-15,-8,-8,-2
-12,1,15,5,-14,8,-1,-3,-12,-6,-7,-2
-12,3,16,4,-14,10,0,0,-10,-5,-6,-1
-11,4,17,3,-15,11,2,1,-7,-4,-5,-1
-11,6,18,2,-15,12,3,3,-6,-3,-5,-1
-11,7,18,2,-15,12,4,4,-5,-3,-4,-1
-11,7,18,2,-15,12,4,5,-5,-3,-4,-1
-10,7,17,1,-14,12,5,5,-5,-3,-4,-1
-10,7,17,1,-14,13,5,6,-4,-3,-5,-1
-10,7,18,1,-14,13,6,7,-4,-3,-4,-1
-10,7,18,1,-14,13,6,8,-4,-3,-4,-1
-9,6,17,1,-13,12,7,8,-4,-4,-5,-2
-9,6,16,1,-13,11,7,8,-4,-5,-6,-3
-10,5,16,2,-13,11,7,8,-4,-4,-6,-3
-12,5,17,3,-15,11,8,9,-3,-4,-5,-2
-13,4,17,4,-15,11,9,9,-3,-4,-5,-1
-12,4,16,4,-14,11,9,9,-3,-4,-5,-2
-12,4,16,4,-14,11,9,9,-2,-5,-5,-2
-13,4,17,4,-14,12,9,10,-2,-5,-4,-2
-13,3,17,4,-15,11,9,10,-2,-5,-4,-2
-13,3,17,4,-15,11,9,10,-2,-4,-5,-2
-13,3,17,5,-15,10,9,10,-2,-4,-5,-2
-13,3,17,5,-15,10,9,9,-2,-4,-5,-2
-13,3,16,4,-14,9,9,9,-3,-5,-6,-2
-12,3,14,4,-13,9,9,8,-3,-5,-6,-3
-11,2,13,4,-12,8,9,8,-3,-5,-6,-4
-12,2,14,4,-12,9,9,8,-3,-5,-6,-4
-13,2,15,5,-13,9,9,8,-3,-5,-6,-4
-13,1,15,5,-14,9,9,8,-4,-5,-7,-4
-12,1,14,5,-13,9,8,7,-4,-6,-7,-5
-12,1,14,5,-13,8,8,7,-4,-6,-7,-5
-12,0,13,5,-13,7,8,7,-3,-6,-6,-3
-12,0,13,6,-13,7,8,6,-3,-5,-6,-2
-12,0,13,6,-13,7,8,6,-3,-5,-5,-2
-12,0,13,5,-12,7,8,6,-3,-5,-5,-1
-11,0,13,5,-12,7,8,6,-3,-5,-5,-1
-12,0,13,5,-12,6,8,5,-3,-6,-5,0
-12,-1,12,6,-12,6,8,5,-3,-6,-6,0
-12,-1,12,6,-12,6,8,6,-3,-6,-5,0
-12,-1,12,6,-12,6,8,6,-3,-6,-5,0
-12,-1,12,7,-12,5,8,6,-3,-6,-5,2
-13,-2,11,8,-12,5,8,6,-3,-5,-5,2
-13,-2,11,7,-12,6,8,6,-3,-5,-5,2
-13,-1,11,7,-12,6,8,6,-3,-5,-5,3
-13,-2,11,7,-12,6,9,6,-3,-5,-5,3
-13,-2,11,7,-12,5,9,6,-3,-5,-5,3
-13,-2,11,7,-12,5,9,6,-2,-4,-4,3
-13,-2,12,7,-13,6,9,6,-2,-4,-4,4
-13,-1,12,7,-13,6,9,6,-1,-4,-4,4
-13,-1,12,7,-13,6,9,6,-1,-4,-4,4
-13,-1,12,7,-12,6,9,6,-1,-4,-4,4
-13,-1,12,7,-12,6,9,7,-1,-4,-4,4
-14,-1,12,7,-13,6,9,7,-1,-4,-4,4
-15,-1,13,8,-14,6,9,8,-1,-4,-4,4
-15,-1,14,8,-15,6,9,8,-1,-3,-3,4
-15,-1,14,8,-15,6,9,8,-1,-3,-3,4
-15,0,14,8,-15,7,10,8,-1,-3,-3,4
-15,-1,14,8,-15,7,10,8,-1,-3,-3,4
-15,-1,14,8,-15,7,10,8,-1,-2,-2,3
-16,-1,15,9,-15,7,10,9,0,-2,-2,3
-16,-1,15,8,-15,7,10,9,0,-2,-2,2
-15,-1,14,8,-14,7,9,8,0,-2,-2,2
-15,-1,14,8,-14,6,9,8,0,-2,-2,1
-14,-1,13,7,-14,6,9,8,0,-2,-2,0
-13,-1,13,7,-13,7,9,9,0,-2,-2,0
-14,-1,14,7,-14,7,9,9,0,-2,-2,0
-14,-1,14,7,-14,6,9,9,0,-2,-2,0
-14,-1,13,7,-13,6,9,9,0,-2,-2,0
-14,-1,13,7,-13,6,9,9,1,-1,-1,0
-15,-1,14,8,-14,7,9,10,2,-1,-1,0
-17,-1,16,8,-16,8,10,10,2,0,0,1
-17,0,17,8,-17,9,10,10,2,0,0,0
-15,0,17,7,-16,9,9,9,2,0,0,0
-13,1,15,6,-14,8,8,8,1,0,0,0
-13,1,15,6,-14,8,9,8,2,0,0,0
-15,1,17,7,-16,9,10,9,3,1,1,0
-16,1,18,7,-17,10,10,10,3,1,2,1
-16,2,18,7,-17,10,9,9,3,1,1,1
-15,2,18,6,-16,10,8,9,3,0,1,1
-14,3,17,5,-16,10,8,8,2,0,1,1
-12,4,17,4,-15,10,7,8,3,0,2,1
-11,4,17,3,-14,11,7,8,3,0,2,2
-12,5,17,4,-14,11,7,8,3,0,2,2
-12,5,18,4,-15,11,7,8,4,0,3,3
-12,6,18,3,-14,12,6,8,4,1,3,3
-12,6,17,3,-14,11,6,8,4,2,4,4
-12,6,17,3,-14,11,6,8,4,2,4,5
-11,6,17,2,-14,12,6,7,5,2,4,5
-11,8,18,1,-15,14,6,8,5,2,5,5
-11,9,20,1,-15,15,6,8,6,2,5,6
-11,9,20,1,-16,15,6,8,6,3,6,7
-11,10,21,0,-16,16,5,8,7,4,6,8
-10,11,21,0,-16,17,5,8,7,4,7,8
-10,13,22,-1,-16,18,5,7,7,4,7,8
-9,14,23,-2,-16,18,4,7,7,4,8,9
-9,13,22,-2,-16,18,4,7,8,5,9,10
-9,12,21,-2,-15,17,4,7,9,6,10,11
-8,12,21,-3,-14,17,4,6,10,7,11,12
-8,13,21,-4,-14,18,3,5,10,7,11,13
-7,15,22,-4,-14,19,2,5,10,7,12,14
-6,16,22,-5,-14,19,2,5,10,8,12,14
-5,17,23,-6,-14,20,2,5,10,8,13,15
-5,18,23,-6,-14,21,1,5,11,9,13,17
-5,19,24,-7,-14,22,1,5,11,9,14,18
-4,20,24,-8,-14,22,0,4,12,10,15,19
-2,21,24,-9,-13,23,0,4,12,11,16,19
-1,23,24,-11,-13,24,0,3,13,12,17,20
-1,24,25,-12,-13,25,-1,3,13,12,17,21
0,25,25,-13,-12,25,-2,2,13,12,18,22
0,26,25,-14,-12,26,-3,2,13,13,18,22
2,28,25,-15,-11,27,-4,1,13,14,19,23
3,29,25,-16,-11,27,-4,1,14,15,20,25
3,29,25,-16,-11,28,-5,0,15,16,21,26
4,30,26,-17,-11,28,-5,0,16,18,22,27
5,32,26,-18,-11,29,-5,0,17,19,23,28
6,33,27,-19,-10,30,-6,-1,18,20,24,29
7,34,26,-20,-9,31,-7,-2,18,20,25,30
9,34,25,-22,-8,30,-8,-2,18,21,26,30
11,35,23,-23,-6,30,-9,-3,19,22,27,31
12,35,23,-23,-5,30,-10,-3,19,22,27,32
11,35,24,-23,-6,30,-10,-4,19,23,28,33
9,36,27,-23,-9,32,-10,-4,20,25,29,33
8,37,28,-23,-10,33,-10,-4,21,26,30,34
9,37,28,-23,-9,33,-11,-5,22,26,30,34
10,37,27,-24,-9,33,-11,-5,22,27,31,35
10,38,27,-24,-8,33,-11,-5,23,28,32,35
11,38,26,-24,-8,33,-11,-5,23,29,32,36
12,37,25,-24,-7,32,-11,-6,23,29,32,36
12,37,24,-24,-5,31,-12,-6,23,29,31,36
14,36,22,-25,-4,30,-12,-7,22,28,31,35
16,36,20,-26,-2,29,-12,-7,22,28,30,34
17,36,19,-26,-1,28,-12,-7,22,28,30,33
17,35,18,-26,-1,27,-12,-7,23,28,30,32
16,34,18,-25,-2,27,-12,-7,23,29,30,32
14,33,18,-23,-2,26,-12,-6,24,29,30,31
14,32,18,-22,-2,25,-11,-5,24,28,29,31
13,30,17,-21,-2,24,-10,-5,23,28,28,30
12,29,16,-21,-2,23,-10,-4,23,27,26,28
12,27,15,-20,-1,22,-9,-4,22,26,25,26
11,25,14,-19,-1,20,-9,-4,21,25,24,25
10,23,13,-17,-1,19,-8,-4,20,23,23,23
9,21,12,-15,-1,18,-8,-4,18,21,21,21
8,20,12,-14,-2,16,-7,-3,17,20,20,19
6,18,12,-12,-2,15,-7,-3,15,19,18,18
5,16,11,-11,-2,14,-6,-3,13,17,16,16
5,14,9,-10,-2,12,-6,-3,11,14,14,14
5,12,7,-9,-1,10,-6,-4,8,12,12,11
5,10,5,-8,0,8,-5,-4,6,11,10,9
4,8,3,-7,0,7,-5,-4,4,9,9,7
4,6,2,-6,0,5,-5,-5,2,6,7,6
4,5,2,-5,1,4,-5,-5,0,5,6,4
4,4,1,-4,1,3,-5,-5,-1,3,5,3
4,3,0,-3,2,2,-5,-5,-2,2,3,2
3,2,-1,-3,2,1,-5,-5,-3,0,2,0
3,0,-2,-2,2,0,-5,-5,-4,-1,0,-1
2,-1,-3,-1,2,-1,-5,-5,-5,-2,0,-2
1,-2,-3,0,2,-1,-5,-5,-6,-2,-1,-3
0,-2,-4,0,2,-2,-5,-6,-8,-3,-2,-3
1,-2,-4,0,2,-2,-5,-7,-10,-5,-3,-4
2,-2,-5,0,3,-3,-6,-8,-11,-6,-4,-5
3,-3,-6,0,4,-3,-6,-8,-12,-6,-4,-6
3,-3,-7,0,5,-4,-6,-8,-13,-7,-5,-6
3,-4,-7,0,5,-5,-6,-8,-13,-7,-6,-6
4,-3,-8,0,6,-5,-7,-8,-14,-8,-6,-8
5,-3,-9,-1,7,-5,-7,-8,-14,-8,-7,-9
5,-3,-9,-1,7,-5,-8,-8,-14,-9,-7,-9
4,-4,-9,0,6,-5,-8,-8,-15,-9,-7,-9
3,-4,-8,0,5,-5,-7,-8,-15,-9,-7,-9
3,-4,-8,0,5,-6,-7,-8,-16,-9,-7,-9
4,-4,-9,0,6,-6,-7,-8,-16,-9,-7,-9
4,-4,-9,0,6,-6,-7,-8,-16,-10,-8,-10
4,-4,-9,0,6,-6,-7,-8,-16,-10,-8,-11
4,-4,-9,0,7,-6,-8,-8,-16,-10,-8,-11
5,-4,-9,0,7,-6,-8,-8,-16,-11,-8,-11
5,-5,-9,0,7,-6,-8,-8,-17,-11,-9,-10
5,-5,-10,0,8,-7,-8,-8,-17,-11,-9,-10
5,-5,-10,0,8,-7,-8,-7,-17,-11,-9,-10
6,-5,-11,0,9,-7,-8,-7,-17,-11,-9,-10
5,-5,-11,0,9,-7,-8,-7,-18,-12,-9,-10
5,-6,-11,0,9,-7,-8,-7,-18,-12,-10,-11
6,-5,-12,-1,9,-7,-8,-7,-18,-11,-10,-12
6,-5,-12,-1,9,-7,-8,-7,-17,-11,-10,-11
6,-5,-12,-1,9,-7,-8,-7,-17,-11,-10,-11
6,-5,-11,0,8,-7,-8,-7,-17,-11,-10,-10
5,-5,-11,0,8,-7,-8,-7,-18,-12,-10,-10
5,-5,-11,0,8,-7,-7,-6,-18,-12,-10,-10
5,-5,-11,0,8,-7,-7,-6,-18,-12,-10,-10
5,-5,-11,0,8,-7,-7,-6,-17,-12,-9,-10
6,-5,-11,-1,8,-7,-8,-6,-17,-12,-9,-10
6,-5,-11,-1,8,-7,-8,-6,-17,-12,-9,-11
5,-5,-11,0,8,-7,-7,-5,-17,-11,-9,-11
5,-5,-11,0,7,-7,-7,-5,-17,-11,-9,-12
5,-5,-11,0,8,-7,-7,-5,-17,-12,-9,-12
6,-5,-12,0,8,-7,-7,-5,-17,-12,-9,-12
6,-5,-12,0,8,-7,-7,-5,-17,-12,-9,-12
5,-5,-11,0,8,-7,-7,-4,-17,-11,-9,-11
5,-5,-11,0,8,-7,-7,-4,-16,-10,-9,-12
6,-5,-11,-1,8,-7,-6,-3,-16,-10,-8,-12
5,-4,-11,-1,8,-7,-6,-3,-15,-10,-8,-12
5,-4,-10,-1,8,-7,-5,-2,-15,-10,-8,-11
5,-4,-10,-1,8,-7,-5,-2,-15,-10,-8,-11
5,-4,-10,-1,8,-7,-5,-2,-15,-10,-8,-12
5,-4,-10,0,8,-7,-5,-2,-15,-10,-8,-12
5,-4,-10,0,8,-7,-6,-2,-15,-10,-8,-12
5,-4,-10,0,8,-7,-6,-2,-14,-10,-8,-12
6,-4,-10,-1,8,-7,-6,-2,-14,-10,-8,-11
6,-3,-10,-1,9,-7,-6,-2,-14,-9,-8,-11
6,-3,-10,-1,9,-7,-5,-2,-14,-9,-8,-10
6,-3,-10,-1,9,-7,-5,-1,-14,-9,-7,-10
6,-3,-10,-1,9,-6,-4,-1,-13,-9,-7,-9
6,-3,-10,-1,9,-6,-4,0,-13,-8,-6,-9
6,-2,-9,-1,8,-5,-4,0,-13,-9,-6,-9
6,-1,-7,-1,7,-3,-4,0,-13,-9,-7,-9
5,-2,-7,-1,7,-3,-4,0,-12,-9,-7,-9
5,-3,-9,0,8,-5,-3,1,-11,-8,-6,-8
6,-4,-11,-1,9,-6,-3,1,-11,-7,-6,-7
7,-3,-12,-2,10,-7,-3,0,-12,-8,-6,-7
8,-3,-13,-2,11,-7,-3,0,-12,-8,-7,-8
8,-3,-13,-2,11,-7,-3,1,-11,-8,-6,-8
7,-3,-11,-1,9,-6,-3,1,-10,-8,-6,-6
4,-3,-9,0,7,-5,-2,2,-10,-7,-5,-5
3,-3,-8,0,6,-5,-2,2,-10,-6,-5,-5
4,-2,-7,-1,6,-4,-2,2,-10,-6,-5,-5
4,-1,-7,-2,6,-4,-2,2,-10,-6,-5,-5
5,-1,-7,-2,6,-3,-2,2,-10,-6,-5,-4
5,-1,-6,-3,6,-3,-2,2,-10,-6,-5,-5
6,-1,-7,-3,6,-3,-2,2,-9,-6,-5,-5
6,-1,-7,-2,6,-3,-2,2,-9,-6,-5,-5
6,-1,-8,-2,7,-4,-2,2,-9,-6,-5,-5
7,-2,-9,-2,8,-4,-2,2,-9,-6,-4,-5
6,-2,-9,-2,7,-5,-2,2,-9,-5,-4,-5
4,-2,-7,-1,6,-4,-1,3,-9,-5,-3,-4
3,-2,-7,-1,5,-4,-1,3,-9,-5,-3,-4
4,-2,-7,-1,6,-4,-1,2,-9,-5,-3,-4
5,-2,-8,-2,7,-4,-1,2,-9,-5,-3,-4
6,-2,-9,-2,7,-4,-1,2,-8,-5,-3,-4
6,-2,-9,-2,7,-4,-2,2,-8,-5,-4,-4
6,-2,-9,-2,7,-4,-2,1,-9,-5,-4,-4
6,-2,-9,-2,7,-4,-2,1,-9,-5,-4,-4
6,-1,-8,-2,7,-4,-2,1,-9,-6,-4,-5
5,-1,-7,-2,7,-4,-2,1,-9,-6,-3,-4
5,-1,-7,-2,6,-3,-1,1,-9,-6,-3,-4
5,-1,-7,-2,6,-3,-1,0,-9,-6,-3,-4
6,-1,-8,-2,7,-3,-1,0,-9,-6,-3,-4
6,-1,-8,-2,7,-4,-1,0,-9,-6,-4,-4
6,-1,-8,-2,7,-4,-1,0,-10,-6,-4,-5
7,-1,-8,-2,7,-4,-1,-1,-10,-6,-4,-5
6,-1,-7,-2,7,-4,-1,-1,-10,-6,-4,-5
6,-1,-7,-2,6,-4,-1,-1,-11,-5,-4,-5
6,-1,-8,-2,6,-4,-2,-2,-11,-6,-4,-5
6,-1,-8,-2,7,-4,-2,-2,-11,-6,-5,-6
6,-1,-8,-2,7,-4,-2,-2,-11,-6,-5,-7
6,-1,-8,-2,7,-4,-2,-2,-11,-6,-5,-6
5,-2,-8,-1,7,-4,-1,-2,-10,-6,-4,-6
5,-2,-8,-1,7,-4,-1,-2,-10,-6,-4,-6
6,-1,-8,-1,8,-4,-1,-2,-10,-6,-4,-6
7,-1,-9,-2,8,-4,-2,-2,-10,-6,-4,-7
6,-1,-9,-2,8,-4,-2,-2,-10,-7,-4,-7
6,-1,-9,-2,8,-4,-2,-2,-11,-7,-4,-7
6,-1,-9,-2,8,-5,-1,-2,-11,-7,-4,-7
6,-1,-9,-1,7,-5,-1,-3,-11,-7,-4,-7
6,-2,-8,-1,7,-5,-1,-3,-11,-7,-5,-7
5,-2,-7,-1,6,-4,-1,-3,-11,-6,-5,-7
4,-2,-5,0,4,-3,0,-3,-11,-6,-4,-7
5,-2,-5,0,5,-3,-1,-3,-11,-6,-4,-7
6,-2,-8,-1,7,-4,-1,-4,-12,-6,-5,-7
7,-2,-9,-1,8,-5,-2,-4,-12,-7,-5,-8
7,-2,-9,-1,8,-5,-2,-4,-12,-8,-5,-8
7,-1,-9,-1,8,-4,-2,-3,-12,-7,-5,-8
6,-1,-7,-1,6,-4,-1,-3,-11,-6,-4,-7
4,-2,-6,0,5,-4,-1,-3,-11,-6,-3,-7
5,-2,-7,0,5,-4,-1,-3,-11,-6,-4,-7
6,-1,-7,-1,6,-4,-1,-3,-12,-6,-4,-8
6,-1,-7,-1,6,-4,-1,-3,-12,-7,-4,-8
5,-1,-7,0,6,-4,-1,-3,-12,-7,-4,-7
5,-1,-7,0,6,-5,-1,-3,-12,-7,-4,-7
5,-1,-7,0,6,-5,-1,-3,-12,-7,-4,-8
5,-2,-7,0,6,-5,-1,-3,-12,-7,-4,-8
5,-3,-8,0,6,-5,-1,-4,-13,-7,-5,-8
6,-3,-8,0,7,-5,-1,-4,-13,-7,-5,-8
6,-3,-9,-1,7,-5,-1,-4,-13,-7,-5,-9
6,-2,-9,-1,7,-5,-2,-4,-13,-7,-5,-9
6,-2,-9,-1,7,-5,-2,-4,-14,-7,-5,-8
6,-2,-9,-1,7,-5,-2,-4,-15,-8,-5,-8
6,-2,-8,-1,7,-5,-2,-4,-16,-8,-5,-9
6,-2,-8,-1,7,-4,-2,-4,-17,-7,-5,-9
6,-2,-8,-1,7,-4,-2,-4,-17,-7,-6,-9
6,-2,-8,-1,7,-5,-2,-4,-18,-8,-6,-9
6,-2,-9,-1,7,-5,-2,-4,-18,-8,-6,-9
6,-2,-9,-1,7,-5,-2,-4,-18,-7,-5,-9
6,-2,-8,0,7,-5,-2,-4,-18,-7,-5,-8
5,-3,-8,0,7,-6,-2,-5,-18,-7,-5,-8
6,-4,-9,0,8,-7,-3,-5,-19,-7,-5,-8
7,-4,-11,0,9,-8,-3,-6,-19,-8,-6,-9
6,-5,-11,0,8,-8,-3,-6,-19,-8,-6,-9
5,-5,-10,1,7,-7,-3,-5,-19,-8,-6,-8
2,-5,-7,2,4,-6,-2,-4,-19,-7,-6,-8
0,-5,-5,2,2,-5,-1,-3,-18,-7,-5,-7
0,-4,-3,3,1,-4,-1,-3,-16,-6,-4,-6
0,-4,-3,3,1,-3,-1,-3,-15,-6,-4,-6
0,-4,-4,2,2,-3,-1,-3,-15,-7,-5,-7
1,-4,-5,2,2,-4,-1,-3,-14,-7,-5,-7
1,-5,-6,2,3,-5,-1,-3,-14,-7,-5,-7
1,-6,-7,3,4,-5,-1,-3,-15,-7,-5,-7
1,-6,-7,3,4,-6,-1,-4,-16,-7,-5,-7
3,-6,-8,2,5,-6,-2,-4,-17,-7,-6,-8
4,-5,-9,1,6,-7,-2,-4,-18,-7,-6,-8
5,-5,-9,1,7,-7,-3,-5,-19,-7,-6,-8
4,-5,-9,1,6,-7,-3,-5,-19,-8,-6,-7
4,-5,-8,1,6,-7,-3,-4,-19,-7,-5,-7
2,-5,-7,2,5,-6,-2,-4,-19,-7,-5,-7
0,-6,-5,3,2,-5,-2,-3,-18,-6,-5,-6
-1,-6,-4,3,1,-5,-2,-3,-18,-6,-5,-6
0,-6,-5,3,3,-6,-2,-3,-18,-7,-5,-7
1,-6,-7,2,5,-7,-2,-3,-17,-7,-6,-8
2,-6,-8,2,5,-7,-2,-3,-17,-7,-5,-8
2,-6,-8,2,5,-7,-2,-3,-16,-7,-5,-7
2,-6,-8,2,5,-7,-1,-3,-16,-6,-5,-7
2,-6,-8,2,5,-7,-1,-3,-15,-6,-4,-6
2,-6,-8,2,5,-7,-1,-3,-15,-6,-4,-6
2,-6,-7,2,5,-6,-1,-3,-15,-6,-4,-5
2,-6,-8,2,5,-7,-1,-3,-15,-6,-5,-6
3,-5,-8,2,6,-7,-1,-3,-15,-6,-5,-7
1,-5,-6,3,4,-6,-1,-3,-15,-6,-4,-6
0,-6,-5,4,2,-5,0,-2,-15,-6,-4,-5
0,-6,-6,4,3,-6,-1,-3,-16,-6,-4,-5
1,-6,-6,3,4,-6,-2,-3,-17,-7,-5,-6
1,-6,-7,2,4,-6,-2,-4,-18,-7,-5,-6
1,-7,-7,2,4,-7,-2,-4,-18,-7,-5,-5
1,-7,-7,2,4,-7,-2,-4,-19,-7,-5,-6
1,-6,-7,2,4,-7,-2,-4,-19,-6,-5,-6
1,-6,-7,3,4,-7,-2,-3,-18,-6,-5,-6
1,-6,-7,3,4,-6,-2,-3,-18,-6,-4,-5
0,-6,-7,3,4,-6,-2,-3,-18,-6,-4,-5
0,-6,-7,3,3,-6,-1,-3,-18,-6,-4,-4
0,-5,-6,3,3,-6,-1,-3,-17,-6,-4,-4
1,-5,-6,2,3,-5,-1,-4,-16,-6,-4,-4
1,-5,-6,2,3,-5,-1,-4,-16,-6,-4,-4
0,-5,-6,2,3,-5,-1,-4,-15,-5,-4,-4
0,-5,-6,2,3,-5,-1,-4,-15,-5,-4,-4
0,-5,-6,3,3,-6,-1,-4,-14,-5,-4,-3
0,-6,-7,3,3,-6,-1,-4,-14,-5,-4,-3
0,-5,-6,2,3,-5,-1,-4,-13,-5,-4,-3
0,-4,-5,2,2,-5,-1,-4,-13,-5,-4,-4
0,-6,-6,3,3,-6,-1,-4,-12,-5,-4,-3
0,-6,-6,4,3,-6,0,-3,-12,-4,-3,-2
0,-6,-6,4,2,-6,0,-3,-12,-5,-4,-3
0,-5,-5,3,2,-5,-1,-3,-12,-5,-4,-3
0,-5,-5,3,3,-5,-1,-3,-13,-5,-4,-3
0,-6,-5,3,2,-5,-1,-3,-13,-5,-4,-3
0,-6,-5,4,2,-6,0,-3,-13,-5,-4,-3
0,-6,-6,3,3,-6,0,-3,-13,-5,-3,-3
0,-5,-6,3,3,-5,0,-3,-13,-5,-3,-2
0,-5,-5,2,2,-5,-1,-4,-13,-5,-3,-2
1,-4,-5,2,2,-5,-1,-4,-13,-6,-3,-3
1,-4,-5,2,3,-5,-1,-4,-14,-6,-3,-3
1,-4,-5,2,3,-5,-1,-4,-14,-5,-3,-3
1,-4,-5,2,3,-5,-1,-3,-13,-5,-3,-3
0,-4,-5,2,3,-5,-1,-3,-13,-4,-3,-2
1,-3,-5,1,3,-5,-1,-3,-13,-5,-3,-3
1,-3,-5,1,3,-4,-1,-3,-13,-5,-3,-3
0,-4,-4,2,2,-4,-1,-3,-12,-4,-3,-3
-1,-4,-3,3,1,-4,-1,-3,-12,-4,-3,-2
0,-4,-3,3,1,-4,-1,-3,-13,-4,-2,-2
0,-4,-4,2,2,-4,-1,-3,-13,-4,-3,-2
1,-4,-5,2,3,-4,-2,-4,-13,-5,-3,-3
0,-4,-4,2,2,-3,-2,-4,-13,-5,-4,-3
0,-3,-3,3,1,-3,-1,-3,-13,-5,-4,-3
-1,-3,-1,3,0,-2,0,-3,-12,-4,-3,-2
-2,-2,0,3,0,-2,0,-3,-12,-4,-3,-2
-1,-2,0,2,0,-2,0,-3,-13,-5,-4,-2
0,-2,-2,2,0,-2,-1,-3,-13,-5,-4,-3
0,-2,-3,2,1,-2,-1,-3,-14,-5,-3,-3
0,-2,-3,2,1,-2,-1,-3,-14,-5,-3,-2
0,-2,-3,1,1,-2,-1,-3,-14,-5,-3,-1
0,-2,-3,1,2,-2,-2,-3,-14,-5,-3,-1
1,-3,-4,1,3,-3,-2,-3,-14,-5,-3,-2
2,-3,-5,0,4,-4,-2,-3,-14,-6,-3,-2
1,-3,-3,1,2,-3,-2,-3,-14,-6,-3,-1
-2,-3,0,2,-1,-1,-1,-2,-13,-5,-2,0
-4,-3,2,3,-3,0,0,-1,-12,-4,-2,0
-3,-3,2,3,-2,0,0,-1,-12,-4,-2,0
-3,-3,1,2,-1,0,0,-1,-12,-4,-2,1
-2,-2,0,2,0,-1,0,-1,-12,-4,-2,1
0,-2,-1,1,1,-1,-1,-1,-13,-4,-2,0
0,-1,-1,1,1,-1,-1,-1,-13,-4,-2,0
-1,-1,0,2,0,0,-1,-1,-13,-4,-2,0
-3,-1,2,2,-2,0,0,-1,-12,-4,-2,0
-2,0,3,1,-2,1,0,-1,-12,-4,-2,0
-1,0,2,0,-1,0,-1,-1,-13,-5,-2,0
0,0,0,0,0,0,-1,-2,-13,-5,-3,0
0,0,0,0,0,0,-1,-1,-12,-5,-3,0
-2,1,3,1,-2,2,0,0,-11,-3,-2,0
-3,2,5,1,-3,3,1,0,-10,-2,-1,1
-4,2,5,1,-4,4,2,0,-9,-2,0,1
-4,2,5,1,-4,4,2,0,-9,-2,0,2
-4,1,5,1,-4,3,3,0,-9,-2,0,2
-3,1,5,0,-4,3,3,0,-9,-2,0,2
-3,2,4,0,-4,3,3,0,-9,-2,0,2
-3,1,4,1,-4,3,4,1,-9,-2,0,2
-4,1,5,1,-4,3,5,1,-8,-1,0,2
-3,2,5,1,-4,3,5,2,-8,-1,0,2
-3,2,5,1,-4,3,5,2,-8,-1,0,1
-4,1,5,1,-4,3,5,2,-8,-1,0,2
-4,1,5,2,-5,3,5,2,-7,-1,0,2
-5,0,6,2,-5,3,5,2,-7,0,0,2
-5,0,6,2,-5,3,5,2,-6,0,1,3
-4,1,5,2,-4,2,5,3,-6,0,1,3
-4,0,4,1,-3,2,4,2,-6,0,1,3
-3,0,3,1,-3,1,4,2,-6,0,1,2
-3,0,3,1,-2,1,4,2,-6,0,1,1
-4,0,3,2,-3,1,3,2,-6,0,1,2
-5,-1,3,3,-3,1,2,1,-7,0,0,2
-5,-1,4,3,-4,1,1,1,-7,-1,0,2
-6,-1,4,3,-4,1,0,0,-8,-1,0,2
-6,-2,4,4,-4,1,0,0,-8,-1,0,2
-7,-2,4,4,-5,1,0,0,-8,0,0,3
-7,-2,5,4,-6,1,-1,0,-8,0,0,2
-6,-1,5,3,-5,1,-1,0,-8,0,0,2
-6,-1,4,3,-5,1,-1,0,-8,0,1,3
-6,-2,4,3,-5,1,-1,-1,-8,-1,1,3
-6,-2,3,4,-5,0,-1,-1,-9,-1,0,3
-6,-2,3,4,-5,0,-2,-1,-9,-1,0,2
-6,-2,3,4,-5,0,-2,-1,-9,-1,0,2
-7,-3,4,5,-6,0,-2,-2,-9,-1,0,3
-8,-3,4,5,-6,0,-3,-2,-9,-1,0,3
-8,-3,4,5,-6,0,-3,-2,-9,-1,0,2
-8,-4,4,5,-6,0,-3,-2,-10,-2,0,2
-8,-5,3,6,-6,-1,-2,-3,-10,-2,-1,2
-8,-6,3,6,-6,-1,-2,-3,-11,-3,-2,1
-8,-5,3,6,-6,-1,-2,-3,-11,-3,-2,0
-9,-5,4,7,-7,-1,-2,-3,-11,-3,-2,0
-10,-5,5,7,-8,0,-1,-3,-11,-3,-2,1
-10,-5,5,7,-7,0,-1,-3,-11,-3,-2,1
-9,-5,4,7,-6,-1,-1,-2,-11,-3,-1,1
-9,-5,3,7,-6,-1,-1,-2,-11,-3,-1,1
-9,-5,3,7,-6,-1,-1,-2,-11,-3,-1,2
-10,-6,4,8,-8,-1,-1,-2,-11,-3,-2,2
-11,-5,5,8,-8,0,-1,-2,-11,-3,-2,1
-10,-4,6,7,-8,0,-2,-2,-11,-3,-2,1
-10,-4,6,7,-8,0,-2,-2,-11,-3,-2,2
-11,-4,6,8,-8,1,-2,-2,-11,-3,-2,2
-12,-4,7,8,-9,1,-2,-2,-11,-4,-3,2
-14,-4,8,9,-10,2,-2,-2,-11,-4,-3,1
-15,-6,8,10,-11,1,-2,-2,-11,-4,-3,1
-15,-8,8,11,-11,0,-1,-2,-11,-4,-3,1
-16,-9,7,12,-12,0,-1,-2,-11,-4,-4,0
-15,-9,7,12,-12,0,-1,-2,-12,-5,-4,0
-15,-8,7,12,-11,0,-1,-3,-12,-5,-4,0
-16,-9,7,12,-11,-1,-1,-3,-13,-4,-4,0
-17,-9,7,13,-12,-1,-1,-3,-13,-5,-5,0
-18,-9,8,13,-12,0,-1,-3,-13,-5,-5,0
-18,-8,8,13,-12,0,-1,-3,-13,-5,-4,0
-18,-8,8,13,-12,0,-1,-4,-14,-5,-4,0
-16,-8,7,12,-11,0,-1,-4,-14,-5,-4,0
-16,-8,7,12,-11,-1,-1,-4,-14,-5,-3,0
-17,-8,9,12,-13,0,0,-3,-13,-4,-2,1
-18,-8,10,13,-14,1,0,-2,-13,-3,-2,2
-17,-7,10,12,-13,1,0,-2,-13,-3,-2,2
-16,-7,9,11,-12,1,0,-3,-13,-3,-3,1
-15,-6,8,11,-12,1,0,-3,-13,-3,-3,1
-15,-6,8,10,-11,1,-1,-3,-13,-3,-3,2
-14,-6,8,10,-11,1,-1,-3,-14,-3,-3,2
-14,-6,8,9,-11,1,0,-3,-14,-3,-3,2
-13,-5,7,9,-10,1,0,-3,-14,-3,-3,2
-12,-5,7,8,-10,1,0,-3,-14,-4,-3,2
-12,-5,7,8,-9,1,0,-3,-13,-4,-3,3
-12,-5,7,8,-10,1,0,-3,-13,-4,-3,3
-12,-4,8,8,-10,2,0,-3,-13,-4,-3,2
-12,-3,9,7,-10,3,-1,-3,-14,-4,-3,2
-13,-4,8,8,-10,2,0,-3,-13,-4,-2,3
-13,-5,7,9,-10,0,0,-2,-12,-3,-2,3
-12,-5,7,8,-10,0,0,-2,-12,-3,-2,3
-11,-4,7,8,-10,0,0,-2,-12,-3,-2,3
-11,-4,6,7,-9,0,0,-2,-12,-3,-2,4
-11,-4,6,7,-9,0,0,-2,-12,-3,-2,4
-11,-4,6,7,-9,1,0,-2,-12,-3,-2,4
-11,-3,7,7,-9,1,0,-2,-12,-3,-2,4
-11,-4,7,7,-9,0,0,-2,-12,-3,-2,4
-11,-4,6,7,-8,0,0,-2,-12,-3,-2,3
-11,-3,7,7,-9,1,0,-1,-12,-3,-2,3
-12,-3,9,7,-10,2,1,-1,-12,-2,-1,3
-13,-3,10,8,-12,3,1,-1,-12,-2,-1,4
-13,-3,10,8,-11,3,1,-1,-12,-3,-2,4
-13,-4,9,8,-11,2,1,-1,-13,-3,-2,3
-14,-4,10,9,-11,2,1,-1,-12,-3,-2,2
-16,-4,11,10,-13,3,1,0,-12,-3,-1,3
-17,-4,12,11,-14,3,1,0,-11,-3,-1,3
-17,-5,11,11,-14,2,0,-1,-12,-3,-2,2
-16,-5,10,10,-13,2,0,-1,-12,-4,-2,1
-15,-5,10,10,-12,2,0,-1,-12,-4,-2,1
-15,-5,10,10,-12,2,0,-1,-12,-4,-3,1
-16,-6,10,10,-13,2,0,-1,-13,-4,-3,0
-15,-6,8,11,-11,0,0,-2,-13,-4,-4,-1
-14,-7,6,11,-10,-1,-1,-3,-14,-5,-4,-1
-15,-7,8,11,-11,0,-1,-3,-14,-5,-4,-1
-19,-7,11,13,-15,1,0,-2,-13,-4,-3,0
-24,-7,16,15,-20,4,2,-1,-12,-2,-1,0
-27,-8,19,17,-23,5,4,0,-11,-1,0,1
-27,-9,18,17,-23,4,7,2,-11,-2,-1,1
-24,-9,14,17,-20,2,12,4,-11,-4,-3,-1
-23,-10,12,17,-18,1,20,8,-11,-6,-5,-4
-24,-10,12,18,-18,1,33,14,-10,-8,-7,-7
-26,-11,13,19,-20,1,46,22,-9,-10,-9,-9
-26,-13,12,19,-20,0,57,31,-8,-12,-12,-12
-25,-16,8,20,-17,-4,66,42,-8,-15,-15,-15
-22,-20,2,20,-13,-9,72,53,-7,-17,-18,-19
-17,-23,-5,20,-7,-14,76,64,-5,-18,-20,-21
-11,-25,-13,18,0,-19,78,76,-1,-17,-21,-23
-5,-24,-19,15,7,-21,77,87,4,-13,-18,-22
1,-19,-21,9,11,-20,72,96,12,-6,-12,-18
8,-11,-20,1,14,-15,61,106,24,6,-2,-10
19,-3,-22,-8,20,-13,42,120,41,24,11,1
33,4,-28,-19,30,-12,19,137,62,47,28,13
48,13,-35,-31,42,-12,-6,154,86,72,46,27
64,21,-42,-44,53,-11,-34,165,108,97,64,43
79,28,-49,-54,64,-11,-63,168,126,118,81,57
88,33,-54,-61,72,-11,-91,155,136,134,95,69
92,37,-54,-65,74,-9,-114,121,136,144,106,78
92,40,-51,-66,72,-5,-134,68,123,145,111,85
88,41,-47,-65,68,-3,-150,4,97,137,111,87
84,42,-42,-64,63,-1,-163,-55,64,122,107,86
79,43,-35,-62,57,3,-170,-100,29,102,100,83
71,45,-26,-59,49,8,-171,-130,-7,78,89,78
63,44,-19,-54,41,12,-165,-147,-38,54,77,70
55,43,-12,-48,33,15,-155,-151,-62,35,66,62
45,42,-3,-43,24,18,-141,-147,-76,22,58,54
35,41,6,-37,14,23,-124,-136,-82,13,50,47
24,38,14,-31,5,25,-106,-121,-82,6,41,38
15,33,17,-24,-1,24,-89,-106,-78,0,31,27
9,26,17,-17,-4,21,-73,-91,-73,-5,21,15
3,18,15,-11,-6,16,-60,-77,-66,-8,13,5
-1,10,13,-4,-7,11,-49,-66,-60,-10,6,-3
-6,3,10,2,-8,6,-38,-56,-54,-12,1,-10
-10,-2,9,7,-9,3,-29,-48,-48,-14,-2,-16
-14,-6,8,11,-11,1,-21,-41,-42,-14,-4,-20
-19,-9,9,14,-13,0,-13,-34,-37,-13,-6,-23
-21,-10,10,16,-15,0,-7,-30,-33,-13,-7,-24
-21,-11,9,15,-15,-1,-3,-27,-30,-12,-7,-26
-19,-10,9,14,-15,0,0,-25,-27,-10,-7,-27
-18,-8,10,13,-15,1,1,-23,-25,-9,-6,-27
-18,-7,11,13,-15,2,1,-21,-23,-8,-5,-27
-18,-6,12,13,-15,3,2,-19,-21,-7,-5,-27
-17,-5,13,12,-14,4,4,-17,-19,-6,-4,-26
-17,-4,13,10,-14,4,5,-16,-18,-5,-3,-26
-16,-3,13,10,-14,4,6,-14,-17,-5,-3,-25
-16,-3,13,9,-14,4,7,-13,-16,-5,-2,-25
-17,-2,14,9,-15,5,8,-12,-16,-5,-2,-25
-17,-2,15,9,-16,6,8,-11,-15,-5,-2,-25
-17,-2,14,9,-16,6,9,-10,-15,-5,-2,-24
-17,-3,14,10,-15,5,9,-10,-15,-5,-2,-24
-16,-3,13,10,-15,5,10,-9,-14,-5,-2,-24
-16,-3,13,10,-14,4,10,-9,-13,-5,-2,-23
-16,-4,13,10,-14,4,11,-8,-13,-5,-2,-22
-16,-4,13,10,-14,3,11,-8,-12,-5,-2,-21
-15,-3,12,9,-14,3,12,-8,-12,-5,-2,-21
-15,-3,12,9,-13,3,12,-7,-12,-5,-2,-21
-15,-3,11,9,-13,3,12,-7,-12,-5,-2,-20
-15,-3,11,9,-13,3,12,-6,-12,-5,-2,-20
-15,-3,11,9,-13,3,12,-6,-11,-5,-2,-20
-15,-3,11,9,-13,3,12,-5,-11,-5,-2,-19
-15,-3,11,9,-13,3,12,-5,-11,-5,-2,-19
-15,-4,10,9,-12,2,12,-4,-10,-5,-2,-18
-14,-4,10,9,-12,2,12,-4,-10,-5,-2,-17
-13,-4,10,8,-12,2,12,-4,-9,-5,-2,-16
-13,-4,9,8,-11,2,12,-4,-9,-5,-2,-16
-13,-4,9,8,-11,2,13,-4,-9,-5,-2,-15
-14,-4,11,9,-13,3,14,-3,-8,-4,-1,-14
-16,-4,12,9,-14,4,14,-2,-7,-3,-1,-13
-15,-5,11,9,-13,3,14,-2,-6,-3,-1,-12
-14,-5,10,9,-12,2,13,-2,-6,-3,-1,-12
-14,-5,9,9,-11,2,13,-2,-6,-3,-1,-12
-13,-5,8,8,-10,2,14,-2,-6,-3,-1,-12
-12,-4,7,7,-9,1,14,-2,-6,-4,-1,-12
-10,-4,6,7,-8,1,13,-2,-7,-4,-2,-11
-10,-4,5,7,-7,0,13,-3,-7,-4,-3,-11
-12,-4,7,8,-9,1,14,-2,-6,-4,-2,-10
-16,-4,11,10,-13,3,15,0,-4,-3,0,-8
-18,-4,14,11,-16,4,16,1,-2,-2,1,-6
-19,-5,14,11,-16,4,16,1,-2,-2,1,-5
-17,-5,13,10,-15,4,16,1,-2,-2,1,-5
-15,-4,11,9,-13,3,15,0,-2,-2,0,-6
-15,-4,11,9,-13,3,15,0,-2,-2,0,-5
-15,-5,10,9,-12,2,15,0,-2,-2,0,-5
-14,-5,9,9,-11,2,15,0,-1,-2,0,-5
-13,-5,8,8,-11,2,15,0,-1,-2,0,-5
-13,-4,9,8,-11,2,14,0,-1,-3,0,-5
-13,-4,9,7,-11,2,14,0,-1,-3,-1,-5
-12,-4,8,8,-10,1,14,0,-1,-3,-1,-5
-12,-5,7,8,-9,0,15,1,0,-2,0,-4
-13,-5,8,9,-10,1,16,2,1,-1,0,-3
-14,-5,10,9,-12,2,16,2,2,0,1,-2
-14,-4,10,9,-12,3,16,2,2,0,1,-2
-13,-4,9,8,-11,2,16,2,2,0,1,-2
-12,-4,8,7,-10,1,16,2,2,-1,1,-2
-11,-4,7,7,-9,1,16,2,2,-1,1,-2
-12,-4,8,7,-10,2,16,2,3,-1,1,-1
-13,-3,10,7,-11,3,16,3,3,0,2,-1
-12,-2,11,7,-11,4,16,3,4,0,2,0
-12,-2,11,6,-11,4,16,3,4,0,1,0
-13,-1,12,7,-12,5,16,3,4,0,1,0
-14,-1,13,7,-13,5,16,3,5,0,2,0
-14,-2,12,8,-13,4,16,4,6,1,2,0
-14,-2,11,8,-12,4,16,4,6,1,2,1
-13,-2,11,7,-11,4,17,4,7,1,2,1
-12,-2,11,7,-11,4,17,4,8,1,2,1
-13,-1,11,7,-12,5,17,5,8,1,2,1
-13,-2,12,7,-13,5,17,5,8,1,2,2
-14,-2,12,7,-13,5,16,5,8,1,2,2
-13,-1,12,7,-13,5,16,5,8,1,2,2
-13,-1,12,6,-13,5,16,5,9,1,2,2
-13,0,13,6,-13,6,16,5,9,1,2,2
-13,0,14,6,-13,7,16,5,9,1,2,3
-13,0,14,6,-14,7,16,5,9,1,3,3
-13,1,15,6,-14,8,16,6,10,1,3,3
-13,3,17,5,-15,9,16,6,10,1,3,4
-13,3,17,5,-15,10,16,6,11,2,3,4
-13,4,17,4,-15,10,16,7,11,2,4,4
-13,4,17,4,-15,10,16,7,12,3,4,4
-13,4,17,4,-15,10,16,8,13,3,5,4
-13,4,17,4,-15,10,16,8,13,3,5,5
-13,4,18,4,-15,11,16,8,13,4,5,5
-13,4,18,4,-15,11,16,8,14,4,5,5
-13,5,18,3,-15,11,16,8,14,4,6,6
-13,5,18,3,-16,11,15,8,15,4,6,6
-13,5,19,3,-16,12,15,8,15,4,6,6
-12,7,20,2,-16,13,14,8,16,5,6,6
-11,8,19,1,-16,13,14,8,16,5,6,6
-11,8,19,1,-15,13,13,8,16,5,6,7
-11,9,19,0,-15,14,13,9,17,5,7,8
-11,10,20,0,-16,15,13,9,17,6,7,8
-12,11,23,0,-17,17,13,10,18,7,9,9
-14,12,26,0,-20,19,13,10,20,9,10,10
-15,13,28,1,-21,20,13,10,21,10,11,12
-14,13,27,0,-20,20,13,10,21,10,12,12
-12,14,25,-1,-18,19,12,9,21,10,12,12
-10,15,24,-2,-17,19,12,9,21,10,12,13
-10,16,25,-3,-17,20,11,9,21,10,12,14
-9,17,26,-4,-17,21,11,9,22,11,12,15
-10,18,28,-4,-19,22,11,9,23,12,14,15
-11,19,31,-4,-21,24,10,9,24,13,15,16
-12,20,33,-4,-23,25,10,9,25,14,16,18
-13,21,35,-4,-24,27,10,9,26,15,18,19
-14,22,36,-4,-25,28,10,10,27,17,19,20
-14,23,37,-5,-26,29,10,10,28,18,20,22
-13,24,37,-6,-25,30,9,10,28,18,21,23
-11,25,36,-7,-24,31,9,9,29,19,21,23
-9,27,36,-9,-22,31,8,9,29,19,22,23
-7,29,36,-11,-22,32,7,8,30,20,23,24
-7,30,37,-12,-22,33,6,8,30,21,23,25
-6,31,37,-13,-22,34,5,7,31,21,24,26
-4,32,37,-15,-21,34,5,7,32,22,25,26
-4,34,37,-15,-20,35,4,7,33,24,26,27
-3,34,37,-16,-20,36,4,7,33,25,27,28
-3,35,38,-16,-20,36,3,7,34,26,28,29
-4,35,39,-16,-22,37,3,7,36,28,29,30
-5,36,42,-16,-24,39,4,8,37,29,31,32
-4,36,41,-17,-23,39,3,8,38,30,32,34
-2,37,40,-18,-21,38,2,7,39,31,32,34
-2,37,40,-19,-21,39,2,7,39,32,33,35
-2,38,41,-19,-21,40,2,7,39,33,34,36
-2,39,41,-19,-22,40,2,6,40,33,35,37
-1,39,41,-19,-21,40,1,6,40,34,35,37
0,39,40,-20,-20,39,1,6,40,34,35,37
1,40,39,-21,-19,39,1,6,40,35,35,37
2,40,38,-22,-17,39,0,6,40,35,35,37
4,40,36,-22,-16,38,0,5,40,35,35,37
5,40,34,-23,-15,37,-1,5,40,35,35,37
5,40,34,-23,-14,37,-1,5,41,36,35,37
3,39,35,-22,-15,37,0,5,42,36,35,37
2,39,35,-21,-16,37,0,6,42,36,35,37
1,38,35,-20,-16,37,0,6,42,36,34,37
2,38,35,-21,-16,36,0,6,42,36,34,36
3,37,34,-21,-15,35,0,6,42,35,33,35
4,36,33,-21,-14,34,0,7,42,35,32,34
2,35,33,-19,-15,34,1,8,42,35,31,33
0,34,34,-17,-17,34,2,9,42,34,31,32
-1,32,33,-16,-17,33,3,10,42,34,30,32
-2,30,31,-15,-16,30,3,10,41,32,29,31
0,27,26,-14,-13,27,4,10,39,30,26,29
2,25,22,-14,-10,24,4,9,36,28,24,26
3,23,20,-14,-8,21,4,8,34,26,22,23
3,20,18,-12,-7,19,4,8,32,24,20,21
2,17,16,-10,-7,17,4,8,30,22,18,19
2,16,15,-9,-6,15,4,8,28,20,16,17
2,15,13,-9,-5,14,4,8,26,18,14,15
1,13,12,-8,-5,12,3,7,23,16,12,14
0,12,11,-7,-5,11,4,6,21,13,10,13
0,10,10,-6,-5,10,4,5,20,12,8,11
0,9,9,-5,-5,9,4,5,18,10,7,9
0,8,8,-5,-4,9,4,4,17,9,5,8
0,7,8,-4,-4,8,4,4,16,7,4,7
0,6,7,-4,-4,7,4,3,15,6,3,6
-1,5,7,-3,-4,6,4,3,14,5,3,5
-1,4,7,-2,-4,5,4,3,13,4,2,4
-1,2,5,-1,-4,4,4,2,11,3,1,4
-1,1,4,-1,-3,2,4,1,10,2,0,3
-1,1,3,0,-2,1,4,1,9,1,-1,1
0,1,2,-1,-2,1,5,1,8,0,-2,0
0,1,2,-1,-2,1,5,1,8,0,-2,0
-1,1,3,0,-2,1,5,1,8,0,-2,0
0,0,2,0,-1,1,4,0,7,0,-2,0
0,0,2,-1,-1,1,4,0,7,0,-2,0
0,0,2,-1,-1,1,4,0,7,-1,-2,0
-1,0,2,0,-2,1,4,0,6,-1,-3,-1
-1,1,3,0,-2,2,4,-1,6,-2,-3,-2
-1,1,3,0,-2,2,4,-1,5,-2,-3,-2
-1,1,3,0,-2,1,4,-1,5,-2,-3,-2
0,0,2,0,-1,1,4,-1,5,-2,-3,-2
0,0,1,0,-1,1,4,-1,5,-2,-3,-2
0,1,2,-1,-1,2,3,-2,5,-2,-4,-2
0,2,3,-1,-2,2,3,-2,4,-3,-4,-2
0,0,1,0,-1,1,3,-2,4,-3,-4,-2
0,-2,0,1,0,-1,3,-2,4,-3,-4,-2
0,-2,-1,1,0,-2,3,-2,4,-3,-4,-3
0,-3,-2,1,1,-2,3,-2,3,-3,-5,-4
1,-3,-3,0,2,-3,3,-2,3,-4,-5,-4
2,-2,-4,0,2,-3,3,-2,3,-4,-5,-4
1,-2,-3,0,2,-2,3,-2,4,-4,-5,-4
0,-1,0,0,0,-1,4,-2,4,-3,-4,-3
-1,-1,0,1,0,-1,4,-2,4,-3,-4,-2
0,-1,0,1,0,-1,4,-2,4,-3,-5,-2
-2,-1,0,1,-1,-1,5,-2,4,-3,-5,-2
-3,-1,2,1,-2,0,5,-1,5,-2,-4,-2
-2,-1,1,1,-1,0,5,-1,4,-3,-4,-2
0,-1,0,0,0,0,4,-1,4,-4,-5,-2
1,-1,-1,0,1,0,3,-1,4,-4,-5,-3
1,0,-1,0,1,0,3,-1,4,-3,-5,-3
0,0,0,0,0,0,4,-1,4,-3,-5,-2
0,0,0,0,0,0,4,-1,4,-3,-5,-2
0,0,0,0,0,0,4,-1,4,-3,-5,-3
0,0,0,0,0,0,4,-1,4,-3,-5,-4
0,0,0,0,0,0,4,-1,4,-4,-5,-5
0,0,-1,0,0,0,4,-1,4,-4,-6,-5
1,0,-2,-1,1,-1,4,-1,4,-5,-6,-5
1,0,-2,-1,1,-1,4,0,4,-4,-5,-5
1,0,-1,-1,1,-1,4,0,5,-4,-5,-4
1,0,-1,-1,1,-1,3,0,5,-4,-6,-4
2,0,-1,-1,1,-1,3,0,5,-4,-6,-4
3,0,-1,-2,2,-1,3,0,5,-4,-6,-5
3,0,-2,-2,2,-1,3,0,5,-4,-6,-5
3,0,-2,-2,2,-1,4,0,5,-4,-5,-4
3,0,-2,-2,2,-1,4,0,6,-4,-5,-4
3,1,-2,-2,2,-1,3,0,6,-4,-6,-4
4,1,-3,-3,3,-1,3,0,5,-4,-6,-4
4,0,-3,-2,3,-2,3,0,5,-4,-6,-4
3,0,-3,-2,3,-2,3,0,6,-4,-6,-4
3,0,-3,-2,3,-1,3,0,6,-4,-6,-5
3,0,-3,-1,3,-2,3,0,6,-4,-5,-5
3,-1,-5,-1,3,-3,3,0,6,-4,-5,-5
4,-1,-6,-1,4,-4,3,0,6,-4,-6,-5
4,-1,-7,-2,5,-4,3,1,6,-4,-6,-6
4,-1,-6,-2,4,-3,3,1,7,-4,-6,-6
5,0,-6,-2,4,-2,3,1,7,-4,-6,-5
5,0,-6,-2,5,-2,3,1,6,-4,-6,-5
6,0,-6,-2,5,-2,3,1,6,-4,-6,-6
6,0,-5,-2,5,-2,3,1,6,-4,-6,-6
6,1,-5,-3,5,-2,3,1,7,-4,-6,-5
6,1,-4,-4,5,-1,3,1,7,-4,-6,-5
6,1,-5,-4,5,-2,3,1,7,-4,-6,-5
7,1,-6,-5,6,-2,2,1,7,-4,-6,-5
7,1,-7,-5,7,-2,2,1,7,-4,-6,-5
7,1,-7,-5,7,-2,2,1,7,-4,-6,-5
7,0,-6,-4,7,-2,2,2,7,-4,-6,-5
7,0,-5,-4,6,-2,3,2,8,-4,-6,-5
6,0,-5,-4,5,-2,3,3,8,-3,-6,-5
6,0,-6,-4,6,-3,3,3,8,-3,-6,-4
6,-1,-7,-4,6,-4,3,3,8,-3,-6,-4
7,0,-7,-4,6,-4,3,3,8,-3,-5,-4
7,0,-7,-4,7,-4,3,3,8,-3,-5,-4
8,0,-8,-4,7,-4,3,3,8,-4,-6,-4
8,0,-8,-4,8,-4,3,2,7,-4,-6,-4
8,0,-7,-4,8,-3,3,2,7,-4,-6,-4
8,1,-7,-5,8,-3,3,2,7,-4,-6,-5
8,1,-7,-5,8,-3,2,2,7,-4,-7,-5
9,1,-8,-6,8,-3,2,2,6,-4,-7,-5
9,1,-8,-6,8,-3,2,2,6,-4,-7,-5
10,1,-8,-6,9,-3,2,2,6,-5,-7,-5
10,1,-8,-6,9,-3,2,1,6,-5,-7,-4
11,1,-9,-6,10,-4,2,1,6,-5,-7,-4
11,1,-9,-7,10,-4,2,1,6,-4,-6,-4
11,1,-9,-7,10,-4,2,1,6,-4,-6,-4
12,1,-11,-7,11,-5,1,1,6,-4,-6,-4
13,1,-12,-8,12,-5,1,1,6,-5,-7,-4
13,1,-12,-8,12,-5,1,1,5,-5,-7,-5
13,1,-12,-8,12,-4,0,1,5,-5,-7,-5
13,1,-11,-7,11,-4,0,1,5,-5,-7,-5
12,0,-11,-7,11,-4,0,1,5,-5,-7,-4
13,0,-13,-7,13,-6,0,0,5,-5,-7,-5
16,0,-16,-9,16,-7,0,0,4,-6,-8,-6
17,0,-16,-9,16,-7,0,0,4,-6,-8,-6
16,0,-15,-9,15,-7,0,0,5,-6,-8,-5
16,0,-15,-9,15,-7,0,0,5,-6,-8,-5
17,0,-16,-10,17,-7,-1,-1,4,-6,-9,-6
18,0,-18,-11,18,-8,-2,-2,3,-7,-10,-7
19,0,-19,-11,19,-9,-2,-2,3,-8,-10,-7
20,0,-19,-11,20,-10,-2,-3,2,-8,-10,-7
20,0,-19,-11,19,-9,-2,-3,2,-8,-10,-7
20,0,-19,-11,19,-9,-2,-2,2,-8,-10,-7
19,0,-19,-10,19,-9,-2,-2,2,-8,-10,-6
18,0,-18,-10,18,-9,-1,-2,2,-8,-10,-6
19,0,-18,-10,18,-9,-2,-3,2,-8,-10,-7
19,0,-18,-11,19,-8,-2,-3,2,-8,-10,-7
19,0,-18,-11,19,-8,-2,-3,2,-8,-10,-7
20,0,-19,-11,19,-9,-2,-3,2,-8,-10,-7
20,-1,-21,-10,20,-10,-2,-3,2,-8,-10,-7
20,-1,-21,-10,20,-11,-2,-3,2,-8,-10,-7
20,-1,-21,-10,20,-11,-2,-3,2,-8,-10,-6
21,-1,-22,-10,21,-11,-2,-3,1,-8,-10,-6
21,-1,-22,-10,22,-12,-2,-3,1,-8,-10,-6
21,-2,-22,-10,21,-12,-2,-3,1,-8,-10,-6
20,-2,-22,-10,21,-12,-2,-3,1,-9,-10,-6
20,-2,-21,-10,21,-12,-2,-3,1,-9,-10,-6
20,-2,-21,-10,21,-12,-2,-3,1,-9,-10,-6
21,-1,-22,-10,21,-12,-3,-3,1,-9,-10,-7
21,-1,-23,-11,22,-12,-3,-3,1,-9,-10,-7
21,-2,-23,-10,22,-12,-3,-3,1,-9,-10,-7
21,-2,-23,-10,22,-12,-3,-3,1,-9,-10,-7
21,-2,-22,-10,21,-12,-3,-3,1,-9,-10,-7
21,-2,-22,-10,21,-11,-3,-3,1,-9,-10,-6
20,-2,-22,-9,20,-11,-3,-3,0,-8,-10,-6
20,-2,-22,-9,20,-11,-3,-3,0,-8,-10,-6
20,-2,-22,-9,20,-11,-3,-3,0,-8,-10,-7
20,-1,-22,-9,20,-11,-3,-4,0,-8,-10,-7
20,-1,-22,-9,20,-11,-3,-4,0,-8,-11,-7
20,-2,-22,-9,20,-11,-3,-5,0,-9,-11,-7
20,-2,-22,-9,21,-12,-3,-5,0,-9,-11,-7
20,-2,-22,-10,21,-12,-3,-5,0,-9,-11,-7
20,-2,-22,-10,21,-12,-3,-5,0,-9,-11,-6
19,-2,-22,-9,20,-12,-3,-5,0,-9,-11,-6
19,-2,-22,-9,21,-12,-3,-5,0,-9,-11,-7
20,-2,-23,-9,21,-12,-3,-5,0,-9,-11,-7
20,-2,-23,-9,21,-12,-3,-5,0,-9,-11,-7
20,-2,-22,-9,21,-12,-3,-5,0,-9,-11,-7
20,-1,-21,-9,21,-12,-3,-6,0,-10,-12,-8
20,-2,-22,-9,21,-12,-3,-5,0,-10,-12,-8
20,-4,-24,-8,21,-14,-3,-5,0,-9,-11,-7
19,-5,-24,-7,21,-15,-3,-5,0,-9,-11,-7
19,-4,-24,-7,21,-14,-3,-5,0,-9,-12,-7
20,-4,-24,-8,22,-14,-3,-5,0,-10,-12,-7
20,-3,-24,-8,22,-13,-3,-5,0,-10,-12,-8
20,-3,-24,-9,22,-13,-3,-5,0,-10,-12,-8
21,-3,-24,-9,22,-14,-3,-5,0,-10,-12,-7
21,-3,-25,-9,23,-14,-3,-5,0,-10,-12,-7
22,-3,-25,-9,23,-14,-3,-5,0,-10,-12,-7
21,-3,-25,-9,23,-14,-3,-5,0,-10,-12,-7
20,-3,-24,-8,22,-13,-3,-5,0,-10,-12,-6
20,-3,-23,-8,21,-13,-3,-5,0,-10,-12,-7
20,-3,-24,-8,22,-13,-3,-5,0,-10,-12,-7
20,-3,-24,-8,22,-13,-3,-5,0,-10,-12,-7
20,-3,-24,-8,22,-13,-3,-5,0,-10,-12,-7
21,-3,-24,-9,23,-13,-4,-6,-1,-10,-12,-7
22,-3,-25,-9,23,-14,-4,-6,-1,-11,-13,-8
20,-3,-23,-8,21,-13,-4,-6,-1,-10,-12,-7
17,-3,-20,-7,18,-11,-3,-5,0,-9,-12,-6
16,-3,-19,-6,17,-11,-2,-4,0,-9,-11,-6
16,-4,-20,-6,18,-12,-3,-5,-1,-9,-11,-6
17,-4,-21,-7,19,-13,-3,-5,-1,-10,-12,-6
18,-4,-22,-7,20,-13,-4,-6,-1,-10,-12,-6
18,-4,-22,-7,20,-13,-4,-6,-1,-10,-12,-6
18,-4,-22,-7,20,-13,-4,-6,-1,-10,-12,-6
19,-4,-22,-7,20,-13,-4,-6,-2,-11,-13,-7
19,-4,-23,-8,21,-13,-4,-7,-2,-11,-13,-7
20,-3,-24,-8,22,-14,-4,-7,-3,-12,-14,-7
21,-3,-25,-9,23,-14,-4,-7,-3,-12,-13,-8
21,-3,-24,-8,22,-14,-4,-6,-2,-11,-13,-8
18,-3,-22,-7,20,-13,-4,-6,-1,-10,-12,-7
16,-3,-20,-6,18,-12,-3,-6,-1,-10,-12,-6
16,-3,-19,-6,18,-11,-3,-6,-1,-10,-12,-6
15,-3,-19,-6,17,-11,-3,-5,-1,-9,-11,-6
14,-3,-18,-5,16,-10,-3,-5,0,-9,-11,-5
14,-3,-18,-5,16,-11,-3,-5,0,-9,-11,-5
15,-3,-19,-5,16,-11,-3,-5,0,-10,-11,-6
15,-4,-19,-5,17,-12,-3,-5,0,-10,-11,-6
14,-4,-18,-5,16,-11,-3,-5,0,-9,-11,-6
13,-4,-17,-4,14,-11,-2,-5,0,-9,-11,-5
13,-4,-17,-5,15,-10,-2,-5,0,-9,-11,-5
14,-4,-19,-5,16,-11,-3,-5,0,-9,-11,-5
15,-4,-19,-6,17,-12,-3,-6,-1,-9,-12,-6
15,-3,-18,-6,17,-11,-3,-6,-1,-9,-12,-6
15,-2,-17,-6,16,-10,-3,-5,-1,-9,-11,-6
14,-2,-16,-6,15,-9,-3,-5,-1,-9,-11,-6
14,-2,-16,-6,15,-9,-3,-5,-1,-9,-11,-6
15,-2,-18,-6,16,-10,-3,-6,-1,-9,-11,-6
15,-3,-19,-6,17,-11,-3,-6,-1,-9,-11,-6
15,-3,-19,-6,17,-11,-3,-6,-1,-9,-10,-6
14,-3,-18,-5,16,-11,-3,-6,0,-9,-10,-6
14,-3,-17,-5,15,-10,-3,-6,0,-9,-10,-5
14,-3,-17,-4,15,-10,-2,-6,0,-9,-10,-5
14,-4,-17,-4,15,-11,-2,-6,0,-9,-10,-6
14,-4,-18,-5,15,-11,-2,-6,0,-8,-10,-6
14,-4,-18,-5,15,-11,-3,-6,0,-8,-10,-5
14,-4,-18,-5,15,-11,-3,-6,0,-8,-10,-5
13,-4,-18,-5,15,-11,-2,-6,0,-8,-10,-5
13,-4,-18,-5,15,-11,-2,-6,0,-8,-10,-5
13,-4,-17,-4,14,-11,-2,-6,0,-8,-10,-5
13,-4,-17,-4,14,-10,-2,-6,0,-8,-10,-5
13,-4,-16,-4,14,-10,-2,-6,0,-8,-10,-5
13,-4,-16,-4,14,-10,-2,-5,0,-8,-10,-6
12,-4,-16,-4,13,-10,-2,-5,0,-8,-10,-6
11,-4,-15,-3,13,-10,-2,-5,0,-8,-10,-5
12,-4,-15,-3,13,-10,-2,-5,0,-8,-10,-5
12,-3,-15,-4,13,-9,-2,-5,0,-8,-9,-6
12,-3,-15,-4,13,-9,-2,-6,0,-8,-9,-6
11,-3,-14,-4,12,-9,-2,-6,0,-8,-9,-6
11,-3,-14,-4,12,-9,-1,-6,0,-8,-9,-6
11,-3,-14,-4,12,-9,-1,-6,0,-8,-9,-6
11,-3,-14,-3,12,-9,-1,-6,0,-8,-9,-5
10,-4,-14,-3,12,-9,-1,-6,0,-8,-9,-5
10,-4,-14,-3,12,-9,-1,-6,0,-8,-9,-5
10,-4,-14,-3,12,-9,-1,-6,0,-8,-9,-5
10,-3,-14,-3,12,-9,-1,-5,0,-7,-9,-5
10,-3,-14,-3,12,-9,-1,-5,0,-7,-9,-5
10,-3,-14,-3,11,-9,-1,-5,0,-7,-9,-5
9,-3,-14,-2,11,-9,-1,-5,0,-7,-8,-5
9,-3,-13,-2,11,-9,-1,-5,0,-6,-8,-5
9,-3,-13,-2,11,-9,-1,-5,0,-6,-8,-5
9,-3,-12,-2,11,-9,-1,-5,0,-6,-8,-5
9,-3,-12,-2,11,-9,-1,-5,0,-6,-8,-5
8,-3,-12,-2,10,-8,-1,-5,0,-6,-7,-5
8,-3,-12,-2,9,-8,-1,-5,0,-6,-7,-5
7,-4,-12,-1,9,-8,-1,-5,0,-6,-7,-5
7,-4,-12,-1,9,-8,-1,-5,1,-6,-7,-5
8,-4,-12,-1,9,-8,-1,-5,1,-6,-7,-5
8,-4,-12,-1,9,-8,-1,-5,1,-6,-7,-5
8,-4,-12,-1,9,-8,-1,-6,1,-6,-7,-5
8,-4,-12,-2,10,-8,0,-6,1,-6,-8,-6
9,-3,-12,-2,10,-8,0,-5,1,-6,-8,-6
7,-3,-10,-2,8,-7,0,-4,1,-5,-7,-5
4,-2,-7,0,5,-6,1,-4,2,-4,-6,-4
4,-2,-6,0,4,-5,1,-4,2,-4,-6,-3
5,-1,-7,-1,6,-5,0,-4,2,-4,-6,-4
6,-1,-8,-2,7,-4,0,-4,2,-4,-6,-4
6,-1,-7,-1,6,-3,1,-4,2,-4,-6,-3
5,0,-6,-1,6,-3,1,-4,2,-4,-5,-3
7,0,-7,-3,7,-3,1,-4,2,-4,-5,-3
9,0,-9,-4,9,-4,1,-4,2,-4,-6,-4
9,0,-10,-4,10,-5,1,-5,2,-4,-6,-4
8,0,-9,-4,8,-5,1,-4,3,-4,-6,-3
7,0,-7,-3,6,-3,2,-3,4,-3,-5,-3
6,0,-5,-3,5,-2,3,-2,5,-2,-4,-2
5,0,-5,-3,5,-2,4,-2,5,-2,-4,-2
5,0,-5,-3,5,-2,5,-2,5,-2,-4,-2
6,0,-6,-3,5,-3,5,-2,5,-2,-4,-2
6,0,-6,-3,5,-3,5,-1,5,-2,-4,-2
6,0,-7,-3,5,-4,6,-1,5,-2,-4,-1
6,-1,-7,-2,6,-4,6,-1,5,-2,-4,-1
7,-1,-8,-3,7,-5,6,0,5,-2,-4,-2
8,0,-9,-3,8,-5,6,0,5,-2,-4,-2
8,0,-9,-4,8,-4,6,0,5,-2,-4,-2
8,-1,-9,-4,8,-5,6,0,6,-2,-4,-2
8,-1,-10,-4,9,-5,6,0,6,-2,-4,-2
8,-2,-10,-4,9,-6,5,0,6,-2,-4,-2
8,-2,-11,-4,9,-6,5,0,6,-2,-4,-2
8,-2,-11,-4,9,-6,4,0,6,-2,-4,-1
8,-1,-9,-4,8,-5,3,0,5,-2,-4,-2
7,0,-8,-3,7,-4,2,-1,5,-2,-4,-2
7,-2,-8,-2,7,-5,2,-1,5,-2,-4,-2
6,-4,-10,-1,8,-7,1,-1,5,-2,-3,-1
6,-4,-10,0,7,-8,1,-1,5,-2,-3,-1
5,-4,-9,0,6,-7,0,-2,4,-2,-3,-2
5,-4,-8,0,6,-7,0,-2,4,-2,-3,-2
4,-4,-9,0,6,-7,0,-3,4,-2,-3,-1
4,-4,-9,0,6,-7,0,-3,4,-2,-3,-1
5,-4,-9,0,6,-7,-1,-3,4,-2,-3,-2
5,-4,-10,0,7,-7,-1,-3,3,-2,-3,-2
4,-5,-10,0,7,-7,-1,-4,3,-2,-4,-2
3,-5,-10,0,7,-7,-1,-4,2,-3,-4,-3
4,-5,-10,0,7,-7,-1,-4,2,-3,-4,-3
4,-4,-9,0,7,-6,-1,-4,2,-3,-4,-3
4,-4,-9,0,6,-6,-1,-4,2,-3,-4,-2
2,-5,-8,1,5,-6,-1,-4,2,-3,-5,-2
1,-5,-8,2,4,-6,0,-4,2,-3,-5,-2
2,-6,-9,2,5,-7,0,-4,2,-4,-5,-3
2,-6,-9,2,5,-7,0,-4,2,-4,-5,-3
0,-6,-6,2,3,-6,0,-4,2,-3,-5,-3
0,-5,-5,2,2,-5,0,-3,2,-3,-5,-3
0,-5,-4,2,2,-5,0,-3,1,-4,-5,-4
0,-5,-5,2,2,-5,0,-3,1,-4,-5,-4
0,-6,-6,3,2,-6,0,-3,1,-4,-5,-3
0,-6,-6,3,3,-6,0,-4,1,-4,-5,-4
1,-5,-7,2,4,-6,0,-4,1,-4,-5,-4
3,-5,-9,1,6,-7,0,-5,1,-4,-6,-5
4,-5,-9,0,6,-7,0,-5,1,-4,-6,-5
1,-6,-7,2,4,-6,0,-4,1,-4,-5,-4
-2,-6,-5,4,1,-5,1,-3,2,-3,-5,-3
-3,-6,-3,4,0,-5,2,-3,2,-3,-5,-3
-4,-6,-3,5,-1,-4,2,-3,2,-3,-5,-3
-4,-6,-2,5,-1,-4,2,-3,2,-3,-5,-3
-4,-6,-1,5,-2,-4,3,-3,2,-3,-5,-3
-5,-6,0,5,-2,-3,3,-2,2,-3,-4,-3
-5,-6,0,5,-2,-3,3,-2,2,-3,-4,-3
-5,-6,-1,5,-2,-4,3,-3,2,-3,-5,-3
-4,-6,-1,5,-2,-4,3,-3,2,-3,-5,-4
-4,-6,-2,5,-1,-4,3,-4,2,-4,-6,-4
-3,-6,-3,5,-1,-5,2,-4,1,-4,-6,-4
-3,-6,-3,5,0,-5,2,-4,1,-4,-6,-4
-3,-6,-3,4,0,-4,2,-4,1,-3,-5,-4
-3,-6,-3,4,0,-4,2,-4,1,-3,-5,-4
-3,-6,-3,4,0,-4,2,-4,1,-3,-5,-4
-3,-6,-3,4,-1,-4,2,-4,1,-3,-5,-4
-3,-6,-2,4,-1,-4,2,-3,1,-3,-5,-4
-3,-6,-2,4,-1,-4,2,-3,1,-3,-5,-4
-3,-6,-2,4,-1,-4,2,-2,1,-3,-5,-4
-4,-6,-1,5,-2,-4,2,-2,1,-3,-5,-3
-4,-6,-1,6,-2,-4,3,-2,1,-3,-5,-3
-4,-5,-1,5,-2,-3,4,-2,2,-3,-4,-3
-4,-5,-1,5,-2,-3,4,-2,2,-3,-4,-3
-4,-6,-1,5,-2,-4,4,-2,2,-3,-4,-3
-4,-6,-1,5,-2,-4,4,-2,2,-3,-4,-3
-3,-5,-1,4,-1,-3,4,-2,2,-3,-4,-3
-3,-4,-1,4,-1,-3,5,-2,2,-2,-3,-3
-3,-4,0,4,-2,-2,5,-2,2,-2,-3,-3
-4,-4,0,4,-2,-2,4,-2,2,-2,-3,-3
-5,-4,0,5,-3,-2,4,-2,2,-2,-3,-3
-4,-4,0,4,-3,-2,5,-2,2,-2,-3,-2
-4,-3,0,4,-2,-2,5,-2,2,-2,-3,-2
-4,-4,0,4,-2,-2,5,-2,2,-2,-3,-1
-4,-4,0,4,-2,-2,5,-2,2,-2,-3,-1
-4,-5,0,4,-2,-2,5,-2,2,-2,-3,-1
-4,-5,0,5,-2,-2,5,-2,2,-1,-3,-1
-5,-5,0,5,-2,-2,5,-1,2,-1,-3,0
-5,-5,0,5,-2,-2,6,-1,2,-1,-3,0
-4,-4,0,4,-2,-2,6,0,2,-1,-3,-1
-4,-4,0,4,-2,-1,6,0,2,-1,-3,-1
-4,-4,0,4,-2,-1,6,0,2,-1,-3,-1
-4,-4,0,5,-2,-1,6,0,2,-1,-3,-1
-4,-4,0,4,-2,-1,6,0,3,-1,-3,-2
-3,-4,0,4,-1,-1,6,0,3,-1,-3,-1
-4,-4,0,4,-2,-2,6,0,3,-1,-3,-1
-5,-4,0,5,-3,-1,7,0,3,-1,-3,-1
-6,-4,1,5,-3,-1,7,1,3,0,-2,-1
-6,-4,1,5,-4,-1,8,1,3,0,-2,-1
-6,-4,2,6,-4,-1,8,1,2,0,-2,0
-6,-4,2,6,-4,-1,8,1,2,0,-2,-1
-6,-4,2,5,-4,-1,8,1,1,0,-2,-1
-6,-4,2,5,-4,-1,8,1,1,0,-2,-1
-6,-5,2,6,-4,-1,8,1,1,0,-2,-1
-6,-5,2,6,-4,-1,8,1,1,0,-2,0
-6,-4,2,5,-3,-1,7,1,1,0,-3,-1
-6,-4,2,5,-3,0,7,1,1,0,-3,-1
-6,-3,4,5,-5,0,7,1,1,0,-2,0
-7,-3,4,5,-6,1,8,1,1,0,-2,0
-7,-3,4,5,-6,1,8,1,1,0,-2,0
-7,-3,4,5,-6,1,9,2,1,0,-2,-1
-7,-4,3,6,-6,1,12,5,1,0,-3,-1
-8,-5,2,7,-6,0,18,9,2,-1,-4,-2
-9,-7,2,8,-6,-1,27,15,4,-3,-6,-3
-10,-8,2,9,-6,-2,40,22,6,-5,-9,-6
-11,-10,2,11,-7,-3,52,31,8,-8,-12,-9
-11,-13,-1,12,-5,-7,61,40,9,-12,-15,-12
-9,-17,-7,13,-2,-12,69,49,9,-15,-18,-15
-7,-21,-13,14,2,-17,75,58,11,-16,-20,-18
-3,-23,-19,13,7,-21,79,67,14,-15,-21,-19
1,-23,-25,11,12,-23,82,77,20,-11,-19,-18
7,-20,-28,6,17,-23,82,86,28,-4,-14,-15
16,-12,-29,-2,22,-20,78,94,38,6,-6,-8
27,-3,-29,-12,28,-16,66,103,51,22,6,1
38,6,-31,-22,34,-13,46,114,70,43,22,15
51,15,-35,-33,43,-10,21,127,91,70,42,30
64,25,-39,-44,51,-8,-5,136,112,97,62,47
76,33,-43,-55,60,-5,-32,140,130,121,82,63
85,39,-46,-62,66,-3,-58,132,140,141,97,78
90,43,-46,-66,68,-1,-84,109,142,153,109,90
91,47,-44,-69,68,2,-106,71,132,158,116,98
89,50,-39,-70,64,6,-123,20,111,154,120,104
84,52,-32,-69,58,10,-137,-33,82,143,120,107
78,54,-24,-67,51,15,-147,-78,49,126,116,108
71,56,-14,-64,42,21,-153,-111,15,102,108,106
62,57,-4,-60,33,27,-152,-130,-17,75,97,101
53,57,3,-54,24,31,-146,-137,-43,52,84,94
43,56,11,-49,16,34,-134,-135,-61,34,73,87
34,55,20,-44,7,38,-119,-125,-69,22,62,79
25,53,26,-38,0,40,-103,-111,-71,13,51,69
17,47,29,-31,-6,38,-87,-95,-68,5,40,58
10,39,28,-24,-9,34,-72,-80,-62,-1,29,47
5,31,26,-18,-11,29,-60,-67,-54,-4,21,37
0,23,23,-12,-11,23,-49,-55,-47,-7,14,28
-2,15,18,-6,-11,17,-39,-45,-41,-8,8,21
-6,8,15,0,-11,12,-30,-36,-35,-9,3,15
-13,2,15,6,-14,9,-21,-27,-28,-9,0,10
-17,-2,15,10,-16,7,-13,-19,-21,-8,-1,6
-16,-4,12,11,-14,4,-7,-14,-17,-7,-3,3
-15,-5,10,10,-13,2,-4,-10,-14,-7,-4,1
-16,-5,11,10,-14,2,-1,-7,-11,-5,-4,0
-17,-5,13,10,-15,4,1,-5,-8,-3,-3,1
-17,-3,15,9,-16,6,2,-3,-5,-2,-2,1
-16,-1,16,8,-16,7,3,-1,-4,-2,-2,2
-16,-1,15,9,-16,7,5,0,-2,-1,-1,3
-17,-1,15,10,-16,6,7,2,0,0,0,3
-19,-1,17,10,-17,7,9,4,2,1,1,4
-20,-1,19,11,-19,8,10,6,3,2,1,4
-21,-1,19,11,-20,9,11,7,3,2,1,4
-20,-1,19,11,-20,9,11,7,4,2,1,4
-19,-1,18,10,-19,8,11,7,4,2,1,3
-19,-1,17,10,-18,8,12,7,4,2,1,3
-18,-1,17,10,-18,8,12,7,4,1,1,3
-18,-1,16,10,-17,8,12,7,3,1,1,3
-17,-1,15,9,-16,7,12,7,3,1,0,2
-16,-1,14,8,-15,6,12,7,3,0,0,2
