leadI,leadII,leadIII,leadaVR,leadaVL,leadaVF,leadV1,leadV2,leadV3,leadV4,leadV5,leadV6
0,-1,0,0,0,0,0,1,0,0,-1,-1
0,-2,-1,1,1,-2,1,2,1,-2,-2,-2
0,-3,-2,2,1,-3,2,2,1,-3,-3,-3
-1,-4,-3,2,1,-3,2,2,1,-4,-4,-4
-1,-4,-3,3,1,-3,2,3,2,-6,-6,-5
-2,-5,-3,3,1,-4,2,4,2,-7,-7,-5
-2,-6,-4,4,1,-5,2,5,2,-8,-7,-5
-2,-6,-4,4,2,-5,2,6,2,-7,-8,-5
-2,-6,-4,4,2,-5,3,7,2,-7,-8,-5
-2,-6,-4,4,2,-5,3,7,3,-7,-9,-5
-2,-6,-4,4,1,-5,4,7,3,-7,-9,-5
-2,-6,-3,4,1,-5,4,8,4,-7,-9,-6
-2,-6,-3,4,0,-5,4,9,4,-7,-9,-7
-2,-6,-3,4,0,-5,4,9,4,-8,-9,-8
-2,-6,-3,4,1,-5,4,10,4,-9,-10,-9
-2,-6,-3,3,1,-5,5,11,5,-10,-11,-9
-2,-5,-3,3,1,-5,5,12,5,-12,-12,-9
-2,-5,-3,3,1,-4,5,13,5,-13,-14,-10
-2,-6,-3,3,1,-5,5,14,5,-13,-17,-10
-2,-7,-4,4,1,-6,6,15,6,-14,-18,-10
-2,-8,-5,5,1,-7,7,16,7,-14,-18,-10
-3,-8,-5,5,1,-7,7,18,8,-13,-17,-9
-3,-8,-5,5,1,-7,8,19,9,-13,-17,-9
-3,-8,-4,5,1,-6,9,20,10,-12,-17,-9
-3,-8,-5,6,1,-7,9,22,11,-12,-18,-10
-3,-8,-5,6,1,-7,10,23,11,-13,-18,-10
-3,-8,-5,6,0,-7,10,25,12,-14,-19,-11
-4,-8,-4,6,0,-7,11,28,13,-13,-19,-11
-4,-9,-4,7,0,-7,12,30,14,-13,-18,-11
-4,-9,-4,7,0,-7,13,32,16,-13,-19,-12
-4,-9,-5,6,0,-7,13,33,17,-14,-19,-13
-4,-9,-4,6,0,-7,13,34,18,-16,-20,-14
-5,-10,-4,7,0,-7,13,36,19,-18,-21,-15
-6,-10,-4,8,-1,-7,14,38,20,-19,-23,-15
-6,-10,-4,8,-1,-7,15,40,21,-19,-24,-15
-6,-10,-4,8,-1,-7,16,42,22,-19,-26,-16
-6,-10,-3,8,-1,-7,17,44,23,-20,-28,-18
-6,-11,-3,8,-1,-8,18,46,24,-21,-30,-20
-6,-11,-4,8,0,-9,20,47,25,-22,-31,-20
-6,-12,-5,8,0,-9,21,49,26,-23,-32,-21
-6,-12,-6,9,0,-9,21,51,27,-24,-33,-21
-6,-13,-6,9,0,-9,22,52,28,-24,-34,-22
-7,-13,-6,10,0,-10,23,54,30,-24,-34,-23
-7,-14,-6,10,0,-10,24,56,31,-25,-35,-24
-7,-14,-7,10,0,-10,25,58,32,-26,-35,-25
-6,-14,-7,10,0,-10,26,59,33,-27,-36,-25
-6,-14,-7,10,0,-11,26,61,34,-27,-37,-25
-7,-14,-7,10,0,-11,27,62,34,-27,-39,-26
-7,-14,-7,10,0,-11,27,62,35,-27,-40,-27
-7,-14,-7,10,0,-11,28,63,36,-28,-40,-26
-7,-14,-8,11,0,-11,29,63,36,-28,-40,-27
-7,-14,-8,11,0,-11,29,63,36,-28,-41,-28
-7,-14,-8,11,0,-11,29,64,36,-28,-41,-30
-7,-14,-8,11,0,-11,29,64,36,-29,-42,-30
-7,-15,-8,11,0,-12,29,64,37,-29,-42,-31
-7,-15,-8,11,0,-12,29,64,37,-29,-42,-31
-7,-15,-8,11,0,-12,29,64,37,-29,-42,-30
-8,-15,-8,11,0,-12,29,64,37,-29,-41,-30
-8,-15,-8,11,0,-12,29,63,36,-29,-40,-30
-7,-15,-9,11,1,-12,29,62,36,-29,-40,-28
-6,-15,-9,11,1,-12,29,61,36,-28,-40,-27
-6,-15,-9,11,1,-12,28,60,36,-27,-41,-27
-6,-15,-9,11,1,-12,28,60,35,-27,-41,-26
-6,-15,-8,11,1,-12,27,59,35,-26,-40,-26
-6,-15,-8,11,0,-11,27,57,34,-25,-39,-25
-6,-15,-7,10,0,-11,27,55,33,-25,-38,-25
-6,-14,-7,10,0,-11,26,52,32,-25,-38,-26
-5,-13,-8,9,1,-11,24,51,30,-26,-38,-26
-5,-13,-8,9,1,-11,23,49,29,-26,-38,-25
-5,-12,-8,9,1,-10,23,48,28,-26,-36,-25
-4,-12,-8,8,1,-10,22,46,27,-25,-35,-25
-4,-12,-8,7,1,-10,21,44,26,-25,-35,-26
-4,-11,-7,7,1,-10,20,42,24,-23,-34,-25
-4,-11,-7,6,1,-9,20,40,23,-21,-32,-24
-3,-10,-6,6,1,-9,19,38,22,-20,-29,-22
-3,-10,-6,6,1,-8,19,36,21,-19,-27,-21
-3,-9,-6,6,1,-7,18,35,21,-19,-26,-20
-3,-9,-6,6,0,-7,17,33,20,-18,-25,-19
-3,-9,-6,6,1,-7,16,31,18,-18,-25,-18
-2,-9,-6,5,1,-7,15,29,17,-17,-25,-17
-2,-9,-6,5,2,-7,14,27,16,-17,-24,-17
-2,-9,-6,5,2,-8,13,24,14,-16,-23,-17
-1,-9,-7,5,2,-8,12,22,13,-16,-23,-17
-1,-9,-7,5,2,-8,11,20,12,-15,-22,-16
-1,-8,-7,4,2,-8,10,19,11,-14,-21,-16
-1,-7,-6,4,2,-7,9,17,10,-14,-21,-15
-1,-7,-6,4,2,-6,8,15,8,-13,-20,-15
0,-6,-5,3,2,-6,8,13,7,-13,-20,-15
0,-6,-5,3,2,-6,7,12,6,-13,-19,-14
0,-6,-5,2,2,-6,7,10,6,-13,-18,-12
0,-6,-5,2,2,-6,6,9,5,-13,-16,-10
0,-5,-5,2,2,-5,6,9,5,-14,-15,-9
0,-5,-5,2,2,-5,5,8,4,-14,-15,-9
0,-5,-5,2,2,-5,5,8,4,-13,-15,-10
0,-5,-5,2,2,-4,4,7,4,-12,-16,-9
0,-5,-5,2,2,-4,4,6,4,-11,-16,-8
0,-5,-5,1,2,-4,4,4,4,-11,-15,-8
1,-4,-4,1,2,-4,4,3,3,-11,-13,-7
1,-4,-4,1,2,-3,4,2,2,-10,-12,-7
1,-3,-3,1,1,-3,3,2,1,-10,-12,-7
0,-3,-3,1,1,-3,3,2,1,-10,-12,-8
0,-3,-3,1,1,-3,3,2,2,-10,-12,-8
0,-3,-3,1,1,-3,2,2,2,-9,-12,-9
0,-3,-4,1,2,-3,2,1,2,-9,-12,-9
1,-3,-4,1,2,-3,2,1,2,-9,-12,-9
1,-3,-4,1,2,-3,2,2,2,-8,-12,-8
1,-3,-4,1,2,-3,2,2,2,-7,-12,-7
1,-4,-4,1,2,-4,2,2,2,-7,-12,-7
1,-4,-5,1,3,-4,2,2,3,-7,-12,-7
2,-4,-5,1,4,-5,2,3,3,-7,-12,-7
3,-4,-6,0,4,-5,2,3,3,-7,-11,-7
3,-3,-6,0,4,-5,2,4,3,-6,-10,-7
3,-3,-5,0,4,-4,2,4,3,-6,-9,-7
2,-3,-5,0,3,-4,2,4,3,-6,-9,-7
2,-3,-5,0,3,-4,3,5,4,-5,-8,-7
3,-3,-6,0,4,-4,3,5,5,-3,-7,-7
3,-3,-6,0,4,-4,3,6,6,-1,-6,-7
3,-3,-6,0,5,-4,4,8,7,0,-5,-6
4,-2,-6,0,5,-4,5,9,8,2,-4,-6
4,-2,-6,-1,5,-4,5,10,9,3,-3,-6
3,-2,-5,0,4,-4,5,11,9,3,-2,-6
3,-2,-5,0,4,-4,5,11,10,4,-2,-5
3,-2,-5,-1,4,-4,5,11,10,4,-1,-5
3,-1,-5,-1,4,-3,5,11,11,4,0,-5
3,-1,-5,-1,4,-3,6,11,11,4,0,-5
3,-1,-5,-1,4,-3,6,11,10,5,1,-4
4,-1,-5,-1,5,-3,5,11,10,7,2,-5
4,-1,-6,-2,5,-3,5,11,11,7,2,-6
5,-1,-6,-2,5,-3,6,12,11,7,0,-6
5,-1,-6,-2,5,-3,6,12,11,8,0,-5
6,0,-6,-3,5,-3,6,11,11,8,0,-5
6,0,-5,-3,5,-2,6,9,12,8,1,-4
6,1,-4,-4,5,-1,6,7,12,8,2,-3
5,2,-3,-4,5,0,6,6,12,9,4,-2
5,2,-3,-4,4,0,6,6,12,11,7,0
5,3,-2,-4,4,1,5,5,12,13,10,1
5,4,-1,-5,3,2,4,5,11,15,12,2
5,5,0,-6,2,3,3,4,11,16,12,3
5,6,0,-6,3,3,1,2,10,17,11,4
6,7,0,-7,3,4,0,1,9,17,10,5
7,8,1,-8,3,5,-1,0,8,18,13,7
8,9,1,-9,3,6,-3,-1,7,19,16,8
8,10,2,-10,3,7,-4,-3,6,20,17,9
8,11,3,-10,2,8,-6,-5,5,20,18,9
8,12,4,-10,1,8,-7,-7,3,20,18,9
7,12,4,-10,1,9,-8,-9,2,20,19,10
8,12,4,-10,2,9,-10,-10,0,20,19,11
9,13,4,-11,2,9,-12,-12,-1,19,19,12
9,14,5,-11,2,9,-13,-14,-2,18,19,13
9,14,5,-11,2,10,-14,-16,-3,17,19,14
9,14,5,-11,1,10,-15,-17,-3,18,19,15
9,15,6,-12,1,10,-15,-16,-3,19,20,16
9,15,6,-12,1,11,-14,-16,-3,20,21,16
8,15,6,-12,1,11,-14,-15,-3,21,22,16
8,14,6,-12,0,11,-13,-14,-2,22,23,16
7,14,7,-11,0,11,-12,-13,-1,23,24,16
6,12,7,-9,0,10,-11,-12,-1,23,24,15
5,10,6,-8,0,9,-10,-11,-1,23,23,15
5,9,4,-7,0,7,-9,-11,-1,23,22,15
5,7,2,-6,1,5,-9,-11,0,22,21,14
5,5,0,-5,2,3,-8,-11,0,22,21,14
5,4,-1,-5,3,2,-7,-10,0,22,21,14
5,3,-1,-5,3,1,-7,-10,0,21,21,14
5,3,-2,-4,3,1,-6,-9,0,21,21,13
4,2,-2,-3,3,0,-6,-9,0,21,21,12
4,1,-3,-3,3,0,-6,-9,-1,20,20,11
4,1,-3,-3,3,0,-6,-9,-1,20,20,11
3,0,-3,-2,3,0,-6,-10,-2,19,19,11
3,0,-3,-2,3,-1,-6,-11,-2,18,18,10
2,0,-3,-2,3,-2,-6,-12,-3,16,17,9
2,-1,-3,-2,3,-2,-6,-12,-3,16,17,9
2,-1,-3,-1,3,-2,-5,-13,-4,15,17,9
3,-1,-3,-1,3,-2,-6,-13,-4,15,17,9
3,0,-3,-1,3,-2,-6,-14,-5,15,16,8
3,0,-3,-1,3,-2,-6,-13,-5,15,16,7
3,0,-3,-1,3,-2,-6,-13,-5,15,16,7
3,0,-3,-2,3,-2,-6,-12,-5,15,16,8
3,0,-4,-2,4,-2,-7,-12,-5,15,16,8
3,0,-4,-2,4,-2,-7,-13,-5,14,16,8
3,0,-3,-2,3,-2,-7,-14,-5,13,14,6
3,0,-3,-2,3,-1,-7,-15,-5,12,13,5
3,0,-3,-2,3,-1,-7,-15,-5,13,14,5
3,0,-3,-2,3,-1,-7,-13,-5,13,14,5
3,0,-3,-1,3,-1,-7,-12,-6,14,14,6
3,0,-3,-1,2,-1,-7,-13,-6,14,14,6
3,0,-2,-2,2,-1,-7,-13,-6,14,14,6
3,0,-2,-2,3,0,-7,-14,-6,14,14,6
3,0,-3,-2,3,-1,-6,-14,-6,14,14,6
3,0,-3,-2,3,-1,-6,-14,-6,14,14,6
3,0,-3,-2,3,-2,-6,-14,-6,14,14,7
4,0,-3,-2,3,-2,-7,-14,-6,13,14,7
4,0,-3,-2,3,-2,-7,-14,-6,13,14,7
4,0,-3,-2,3,-2,-7,-14,-6,13,14,7
4,0,-3,-2,3,-2,-7,-14,-6,13,14,6
4,0,-3,-2,3,-2,-7,-13,-6,13,14,6
4,0,-3,-2,3,-1,-7,-13,-6,13,14,6
4,0,-3,-2,3,-1,-7,-13,-6,13,14,6
4,0,-3,-2,3,-1,-7,-13,-6,13,14,6
4,0,-3,-2,3,-2,-7,-12,-5,13,14,6
4,0,-3,-2,3,-2,-7,-10,-5,13,14,5
4,0,-4,-2,4,-3,-7,-8,-4,14,14,5
5,-1,-5,-2,5,-3,-8,-5,-2,15,14,4
6,-1,-6,-3,6,-4,-8,-2,0,17,16,4
7,0,-7,-3,6,-3,-9,-2,3,22,19,5
7,0,-6,-4,6,-2,-10,-7,5,27,23,7
8,2,-5,-5,6,-1,-13,-16,5,33,27,9
8,4,-3,-6,5,1,-17,-31,1,40,34,12
9,6,-1,-8,5,3,-21,-49,-4,48,42,16
9,10,1,-10,4,5,-26,-69,-11,58,53,21
9,13,4,-12,3,9,-31,-90,-19,69,65,28
9,17,8,-14,1,13,-36,-112,-27,81,77,35
10,22,12,-16,-1,17,-43,-133,-36,94,90,42
12,28,16,-20,-2,22,-51,-153,-46,108,104,49
13,33,20,-23,-3,27,-59,-172,-56,121,118,57
14,39,25,-27,-5,32,-68,-189,-67,135,132,65
15,45,30,-30,-7,37,-77,-206,-78,148,147,74
16,51,36,-34,-9,43,-88,-223,-91,161,161,83
17,58,41,-38,-11,49,-99,-237,-105,172,175,93
18,63,45,-41,-13,54,-110,-248,-119,181,188,102
20,68,48,-44,-13,58,-119,-256,-132,190,201,111
22,73,50,-47,-13,61,-128,-260,-142,197,213,121
24,77,52,-50,-14,65,-136,-264,-151,197,220,128
24,79,55,-51,-15,67,-144,-269,-164,182,214,131
22,78,57,-50,-17,67,-151,-276,-180,150,194,129
18,76,59,-47,-20,67,-155,-285,-197,106,163,121
13,74,61,-43,-23,67,-157,-291,-212,59,127,112
8,71,63,-40,-26,67,-155,-293,-223,16,94,104
5,69,64,-37,-29,67,-151,-290,-228,-16,66,97
3,67,64,-34,-30,66,-147,-282,-228,-41,44,91
1,65,64,-33,-31,65,-142,-271,-224,-58,26,85
0,65,66,-32,-33,65,-136,-257,-216,-68,13,80
-3,64,68,-31,-35,66,-129,-241,-204,-73,4,76
-5,63,70,-29,-37,66,-120,-224,-190,-74,-3,72
-6,62,69,-28,-37,65,-110,-205,-175,-73,-8,68
-6,59,66,-26,-36,62,-101,-186,-158,-71,-12,63
-7,55,62,-24,-34,59,-91,-166,-142,-68,-15,56
-7,50,57,-21,-32,54,-81,-147,-125,-63,-18,49
-6,43,50,-18,-28,47,-71,-127,-109,-58,-20,42
-6,35,43,-14,-25,39,-60,-109,-94,-53,-22,33
-6,28,36,-11,-21,32,-51,-93,-81,-49,-23,24
-6,23,30,-9,-18,25,-42,-78,-69,-45,-24,15
-6,18,25,-7,-16,20,-35,-66,-59,-41,-24,8
-6,15,21,-5,-14,18,-29,-55,-50,-36,-23,3
-5,14,19,-4,-13,17,-23,-47,-42,-31,-22,0
-5,11,17,-3,-12,15,-19,-41,-37,-27,-21,-3
-6,8,15,-1,-11,12,-15,-36,-32,-25,-20,-5
-6,5,13,0,-10,10,-12,-30,-27,-22,-19,-6
-5,3,10,0,-7,6,-9,-23,-22,-20,-17,-7
-4,0,6,1,-5,3,-6,-16,-17,-18,-16,-8
-5,-2,3,3,-4,0,-2,-10,-12,-15,-14,-9
-5,-3,1,3,-3,-1,0,-6,-8,-13,-13,-9
-4,-4,0,4,-1,-2,2,-3,-4,-12,-13,-9
-4,-6,-2,5,-1,-3,3,-2,-2,-12,-13,-10
-5,-7,-2,6,-1,-4,4,0,-1,-12,-14,-11
-5,-8,-3,6,-1,-5,4,1,0,-12,-14,-13
-5,-8,-3,6,-1,-5,5,3,0,-12,-14,-14
-4,-8,-3,6,0,-6,5,5,0,-12,-14,-15
-3,-7,-4,5,0,-6,5,6,1,-11,-13,-15
-3,-6,-3,5,0,-5,5,7,3,-10,-12,-14
-3,-5,-2,4,0,-4,5,7,4,-8,-11,-13
-3,-4,-1,4,0,-3,6,8,5,-7,-10,-12
-2,-3,-1,3,0,-2,7,9,6,-6,-9,-11
-2,-3,-1,3,0,-2,8,10,7,-6,-9,-10
-2,-4,-1,3,0,-2,9,11,7,-6,-9,-11
-2,-5,-2,3,0,-4,10,12,8,-7,-9,-11
-2,-8,-5,4,1,-6,11,13,9,-7,-9,-12
-2,-11,-7,6,2,-9,12,14,10,-7,-9,-12
-3,-12,-9,7,3,-10,12,14,11,-8,-9,-12
-3,-12,-9,7,3,-11,11,14,11,-8,-9,-11
-2,-12,-9,7,3,-10,10,13,10,-8,-9,-10
-3,-12,-8,8,2,-10,9,12,8,-7,-10,-9
-4,-11,-6,7,1,-8,9,11,7,-6,-10,-10
-3,-8,-4,6,1,-6,8,12,7,-6,-10,-11
-3,-6,-3,4,0,-4,8,12,7,-5,-10,-11
-3,-4,-1,3,0,-3,8,13,7,-6,-10,-11
-3,-4,-1,3,-1,-2,9,14,8,-7,-10,-11
-3,-5,-2,4,0,-3,11,15,10,-8,-11,-11
-3,-6,-3,5,0,-5,12,16,12,-9,-11,-11
-3,-7,-4,6,0,-6,13,17,13,-9,-11,-12
-3,-8,-4,6,0,-6,13,17,13,-9,-12,-12
-3,-9,-4,6,1,-7,12,17,12,-10,-13,-13
-3,-8,-3,6,0,-6,11,17,11,-10,-14,-14
-4,-7,-1,6,-1,-4,11,17,11,-11,-15,-15
-5,-6,0,5,-2,-3,10,16,10,-12,-17,-16
-5,-5,1,5,-3,-2,9,15,10,-13,-18,-17
-5,-5,0,5,-3,-2,10,16,10,-13,-18,-18
-5,-5,0,5,-3,-2,11,18,11,-13,-17,-17
-5,-4,1,5,-3,-2,13,20,12,-13,-16,-15
-4,-4,0,4,-2,-2,13,21,12,-14,-16,-14
-5,-5,0,5,-2,-2,11,21,12,-14,-16,-14
-5,-6,0,6,-2,-3,11,22,13,-14,-16,-14
-5,-7,-1,6,-1,-4,12,23,13,-13,-15,-14
-5,-8,-3,6,0,-6,13,25,14,-13,-15,-15
-5,-9,-4,7,0,-7,14,25,15,-14,-15,-16
-5,-10,-5,7,0,-8,16,26,16,-15,-16,-17
-5,-10,-5,8,0,-8,17,26,17,-16,-17,-18
-5,-10,-5,8,0,-7,17,27,17,-16,-18,-18
-5,-10,-5,7,0,-7,17,29,18,-16,-18,-18
-5,-10,-5,7,0,-7,17,31,18,-16,-18,-16
-5,-9,-4,7,-1,-6,18,33,19,-16,-18,-15
-6,-9,-3,7,-1,-6,18,34,20,-16,-18,-15
-6,-8,-2,7,-2,-5,18,35,21,-16,-18,-16
-6,-8,-2,7,-2,-5,19,36,22,-17,-19,-16
-6,-9,-2,8,-2,-6,20,38,24,-18,-19,-16
-6,-11,-4,9,-1,-8,22,40,25,-19,-20,-17
-6,-13,-6,9,0,-10,23,43,27,-21,-22,-17
-6,-14,-7,9,0,-10,23,45,28,-22,-23,-18
-6,-13,-6,9,0,-9,23,47,28,-22,-25,-19
-6,-11,-5,8,0,-8,21,48,28,-22,-27,-21
-6,-10,-4,7,-1,-6,20,48,28,-23,-29,-23
-6,-8,-2,7,-2,-5,19,49,29,-22,-30,-24
-6,-8,-2,7,-2,-5,20,50,30,-22,-31,-26
-7,-10,-2,8,-2,-6,21,51,31,-22,-31,-27
-7,-10,-2,8,-2,-6,23,53,33,-22,-32,-28
-6,-9,-2,7,-2,-6,26,57,35,-22,-32,-27
-6,-9,-3,7,-1,-6,28,61,37,-22,-31,-27
-6,-10,-3,8,-1,-6,30,65,40,-23,-32,-27
-7,-11,-3,9,-2,-7,31,68,42,-24,-33,-27
-8,-12,-4,10,-2,-8,32,69,43,-25,-34,-28
-8,-13,-4,11,-2,-8,32,71,44,-25,-34,-29
-8,-13,-4,11,-2,-9,32,73,45,-26,-35,-29
-9,-14,-4,12,-3,-9,33,75,46,-26,-36,-30
-10,-14,-4,12,-3,-9,33,76,47,-27,-38,-31
-10,-14,-4,12,-3,-9,34,78,48,-27,-39,-32
-10,-15,-5,12,-3,-9,34,79,50,-27,-40,-33
-10,-16,-5,13,-3,-10,35,81,52,-27,-41,-35
-10,-16,-6,13,-3,-10,36,82,54,-28,-41,-36
-9,-15,-6,12,-2,-10,37,83,55,-30,-42,-37
-7,-15,-7,11,0,-10,38,84,55,-30,-43,-38
-6,-14,-8,10,1,-11,39,85,55,-30,-43,-38
-5,-14,-8,9,1,-11,39,86,56,-29,-43,-38
-6,-14,-8,10,1,-11,39,87,56,-28,-42,-37
-7,-14,-7,11,0,-11,39,87,57,-27,-42,-36
-8,-15,-8,12,0,-12,40,88,57,-26,-42,-36
-8,-17,-10,13,1,-13,40,87,58,-26,-41,-35
-7,-19,-11,13,2,-15,39,87,58,-26,-41,-35
-7,-19,-11,13,2,-15,38,86,57,-26,-41,-34
-7,-17,-10,12,1,-13,36,85,56,-25,-40,-34
-7,-15,-8,11,0,-11,34,82,53,-25,-41,-35
-7,-14,-7,10,0,-10,34,80,52,-25,-41,-36
-7,-13,-5,10,-1,-9,35,80,52,-24,-39,-36
-7,-13,-5,10,-1,-8,36,80,53,-22,-36,-35
-6,-13,-6,9,0,-9,37,80,54,-22,-35,-34
-5,-13,-7,9,0,-10,37,78,54,-21,-34,-34
-6,-15,-8,10,1,-11,37,77,53,-21,-33,-33
-6,-17,-10,11,2,-13,37,76,53,-19,-31,-32
-5,-18,-12,12,3,-15,36,75,51,-19,-30,-30
-5,-19,-14,12,4,-16,34,72,49,-19,-30,-29
-4,-19,-15,12,6,-16,32,69,46,-20,-31,-29
-2,-17,-15,10,7,-16,29,65,43,-19,-31,-29
-2,-15,-13,8,6,-14,25,62,41,-18,-31,-29
-2,-12,-10,7,4,-11,22,59,38,-17,-30,-29
-1,-9,-7,5,2,-8,20,55,36,-17,-30,-29
-1,-6,-4,4,1,-5,19,52,35,-17,-29,-28
-1,-5,-3,4,1,-4,19,49,34,-17,-29,-28
-1,-5,-4,3,2,-5,18,48,33,-17,-28,-28
-1,-6,-5,3,3,-5,18,47,31,-17,-27,-27
-1,-7,-5,4,2,-6,18,45,29,-17,-25,-26
-1,-8,-6,4,3,-8,18,42,27,-18,-23,-24
0,-9,-8,5,3,-9,17,39,26,-16,-21,-21
0,-9,-9,5,4,-9,16,37,25,-13,-18,-18
0,-9,-8,5,4,-9,15,35,23,-9,-15,-17
0,-8,-7,4,3,-8,13,33,20,-7,-14,-16
1,-5,-5,2,3,-6,12,31,19,-7,-13,-17
1,-4,-4,1,2,-4,12,28,18,-8,-14,-17
0,-4,-4,2,2,-4,13,26,17,-11,-15,-18
0,-7,-7,4,3,-7,13,25,16,-13,-16,-18
0,-10,-10,5,5,-10,12,25,15,-15,-16,-17
1,-11,-11,5,5,-11,11,23,14,-15,-16,-15
1,-10,-10,5,5,-10,9,22,13,-15,-15,-13
0,-9,-9,5,4,-9,7,20,12,-14,-14,-12
0,-7,-7,4,2,-7,5,18,10,-13,-14,-12
0,-5,-4,3,1,-4,3,16,7,-12,-14,-13
0,-2,-2,1,1,-1,2,14,4,-10,-14,-14
0,0,0,0,0,0,2,13,3,-10,-13,-15
0,0,-1,0,0,0,4,12,4,-11,-13,-15
0,-2,-3,1,1,-2,5,12,6,-14,-13,-14
1,-4,-6,1,2,-4,5,12,7,-15,-13,-13
2,-6,-7,2,3,-6,5,13,7,-15,-12,-12
1,-7,-8,3,4,-7,5,12,6,-14,-11,-11
1,-8,-9,4,4,-8,6,12,5,-13,-11,-11
1,-8,-9,4,5,-8,6,11,5,-12,-11,-11
1,-6,-7,3,5,-6,6,10,5,-11,-10,-10
1,-4,-5,2,4,-4,5,8,4,-10,-11,-10
1,-2,-4,1,3,-3,4,6,2,-12,-12,-11
1,-2,-3,1,2,-3,3,5,1,-14,-15,-12
1,-3,-4,1,3,-4,3,5,1,-16,-16,-13
1,-4,-4,2,3,-4,3,6,2,-17,-17,-13
0,-4,-4,2,2,-4,4,8,3,-18,-17,-13
0,-5,-5,3,3,-5,5,9,3,-18,-17,-13
0,-6,-6,3,4,-6,5,9,3,-17,-16,-12
0,-7,-7,3,4,-7,6,9,4,-14,-15,-12
0,-8,-7,4,4,-7,7,9,4,-11,-13,-12
0,-8,-8,4,4,-8,7,9,5,-9,-11,-12
0,-8,-8,4,4,-8,8,9,5,-9,-11,-13
0,-8,-8,4,4,-8,9,9,5,-9,-11,-13
1,-7,-8,3,4,-8,10,10,6,-9,-10,-12
2,-7,-8,3,5,-8,10,10,7,-8,-7,-10
2,-7,-8,3,5,-8,9,10,8,-7,-5,-7
3,-5,-8,2,5,-7,8,10,8,-3,-1,-3
4,-2,-6,0,5,-4,6,10,8,4,5,0
5,1,-4,-3,4,-1,3,10,9,14,14,4
5,3,-1,-4,3,1,2,10,11,26,25,8
5,5,0,-5,2,2,2,11,14,38,35,10
5,5,0,-5,2,2,4,14,19,49,46,14
6,4,-1,-5,3,1,7,18,25,61,57,18
7,4,-2,-5,4,1,8,23,32,75,70,23
7,5,-2,-6,5,1,9,28,39,92,85,30
9,6,-2,-7,5,2,10,35,46,112,103,38
11,9,-2,-10,6,3,10,41,52,129,119,45
15,11,-3,-13,8,4,11,48,56,139,131,50
18,13,-5,-15,11,4,11,54,58,141,135,52
20,12,-8,-16,14,2,10,60,59,134,130,51
20,8,-11,-14,16,-1,11,67,60,119,116,45
19,4,-15,-12,17,-5,11,72,59,96,94,36
19,0,-19,-10,19,-9,10,76,57,71,69,26
19,-1,-20,-9,19,-10,7,79,54,48,45,17
19,0,-18,-9,18,-9,4,81,52,29,22,9
18,1,-16,-9,16,-7,3,83,51,11,-1,-1
16,1,-13,-8,14,-6,5,86,51,-7,-25,-12
13,0,-12,-6,12,-5,10,90,51,-26,-47,-24
9,-2,-11,-3,11,-7,15,95,51,-45,-68,-37
6,-7,-13,0,10,-10,19,99,49,-65,-88,-49
4,-12,-16,4,10,-14,21,101,45,-85,-105,-59
3,-17,-20,7,11,-18,22,102,39,-103,-119,-67
2,-21,-23,9,12,-22,23,103,33,-116,-130,-73
1,-24,-25,11,12,-25,23,103,27,-126,-138,-76
1,-26,-27,12,13,-26,24,103,21,-135,-146,-78
1,-26,-27,13,14,-27,24,102,17,-142,-152,-80
0,-27,-27,14,13,-27,26,101,15,-148,-156,-82
-2,-29,-26,16,12,-28,30,99,15,-151,-158,-85
-4,-31,-27,18,12,-29,34,96,14,-154,-160,-87
-7,-34,-27,20,11,-31,38,94,14,-158,-162,-90
-10,-38,-27,24,9,-32,43,92,14,-160,-163,-92
-14,-42,-27,28,6,-34,48,90,14,-160,-163,-93
-18,-46,-27,32,4,-36,53,85,12,-160,-162,-95
-21,-49,-26,35,2,-37,57,79,9,-158,-160,-95
-24,-50,-25,37,0,-37,59,70,4,-157,-158,-95
-27,-50,-22,39,-2,-36,61,59,-2,-156,-155,-94
-29,-49,-19,40,-4,-35,61,48,-9,-155,-151,-92
-31,-49,-17,40,-7,-33,62,37,-15,-154,-146,-89
-33,-48,-14,41,-9,-32,63,26,-20,-150,-141,-86
-34,-48,-12,42,-12,-30,63,17,-24,-145,-135,-83
-36,-47,-9,42,-14,-28,63,10,-28,-137,-127,-78
-38,-45,-6,42,-17,-26,63,5,-31,-128,-119,-73
-40,-43,-2,42,-19,-23,63,0,-33,-118,-109,-67
-41,-40,1,42,-21,-20,62,-5,-35,-108,-99,-61
-42,-38,5,41,-23,-17,62,-12,-36,-100,-90,-56
-42,-36,7,40,-25,-14,61,-18,-37,-93,-83,-52
-42,-35,8,39,-25,-13,60,-23,-38,-88,-78,-49
-42,-34,8,38,-25,-12,59,-27,-41,-84,-74,-46
-41,-33,9,36,-25,-11,56,-31,-45,-80,-70,-44
-40,-31,9,35,-25,-10,53,-34,-47,-76,-66,-41
-38,-30,8,34,-24,-10,51,-36,-48,-71,-61,-39
-35,-28,8,32,-22,-10,49,-37,-46,-67,-57,-36
-33,-26,7,30,-21,-9,47,-36,-44,-62,-52,-33
-31,-24,7,28,-19,-8,45,-35,-41,-58,-47,-30
-29,-21,8,25,-18,-6,43,-34,-38,-53,-43,-27
-28,-19,8,23,-18,-5,42,-31,-33,-48,-39,-24
-26,-18,9,22,-18,-4,41,-29,-28,-43,-35,-22
-25,-16,9,21,-18,-3,40,-27,-25,-39,-33,-21
-24,-15,9,20,-17,-3,39,-27,-23,-35,-30,-20
-23,-15,8,20,-16,-4,38,-26,-23,-32,-27,-19
-22,-15,7,19,-15,-5,36,-26,-23,-30,-24,-18
-21,-15,6,19,-13,-5,34,-25,-25,-28,-21,-16
-20,-15,5,18,-13,-5,32,-26,-27,-26,-19,-14
-20,-14,5,17,-12,-5,29,-29,-30,-25,-17,-12
-19,-13,5,16,-12,-4,28,-33,-31,-23,-14,-10
-18,-12,5,15,-12,-4,26,-37,-33,-21,-12,-8
-16,-11,5,14,-11,-3,24,-39,-34,-18,-10,-7
-14,-10,5,12,-10,-3,20,-41,-36,-16,-7,-5
-13,-9,4,11,-9,-3,16,-42,-37,-14,-5,-4
-11,-8,4,11,-8,-2,13,-42,-37,-12,-2,-2
-10,-7,4,10,-7,-2,11,-43,-37,-10,0,0
-10,-6,4,9,-7,-1,8,-43,-36,-8,2,2
-9,-5,4,8,-6,-1,5,-43,-34,-5,4,4
-8,-4,4,6,-6,0,2,-42,-32,-3,6,6
-7,-2,4,5,-6,0,-1,-39,-29,0,9,8
-5,-1,4,3,-5,1,-5,-36,-27,4,12,9
-4,0,5,2,-5,2,-8,-33,-24,8,15,11
-2,2,5,1,-4,3,-11,-31,-22,10,17,12
-1,3,5,0,-4,4,-12,-30,-20,12,19,14
-1,4,6,-1,-3,4,-12,-28,-19,13,21,15
-1,4,6,-1,-3,5,-13,-27,-18,14,22,16
-1,5,7,-2,-4,5,-13,-26,-17,15,22,17
-1,5,7,-2,-4,5,-14,-26,-17,17,23,17
0,5,7,-2,-4,5,-14,-26,-17,17,23,17
0,5,6,-3,-3,5,-15,-26,-17,17,24,17
1,5,6,-3,-3,6,-15,-26,-16,17,25,17
1,6,6,-3,-2,6,-16,-26,-16,18,26,18
1,6,6,-3,-2,6,-16,-26,-16,18,27,18
1,6,5,-3,-2,6,-16,-26,-16,19,27,19
1,7,5,-4,-2,6,-16,-26,-16,20,28,20
1,7,5,-4,-2,6,-16,-26,-16,21,28,21
1,7,6,-4,-2,6,-16,-26,-16,22,29,22
2,7,6,-4,-2,6,-17,-26,-16,24,31,23
2,8,6,-5,-2,7,-17,-27,-16,26,33,24
2,8,6,-5,-2,7,-17,-27,-16,27,35,24
2,8,6,-5,-2,7,-17,-27,-16,27,36,25
2,8,7,-5,-2,7,-17,-27,-16,28,37,26
2,9,7,-5,-2,8,-18,-27,-16,29,38,27
2,9,7,-5,-2,8,-18,-28,-16,30,39,28
3,9,7,-6,-2,8,-18,-28,-16,31,40,29
3,10,7,-6,-2,8,-19,-29,-16,33,42,30
3,10,7,-6,-2,9,-19,-29,-16,35,44,31
3,10,7,-6,-2,9,-20,-30,-16,37,46,32
4,11,8,-7,-2,9,-20,-30,-16,38,48,34
4,11,8,-7,-2,10,-21,-30,-16,40,50,35
4,12,8,-8,-2,10,-21,-31,-16,41,52,37
4,12,8,-8,-2,10,-22,-31,-16,43,53,38
5,13,8,-9,-2,11,-22,-31,-15,45,55,39
5,13,9,-9,-2,11,-23,-32,-15,48,57,41
6,14,9,-10,-2,12,-24,-32,-15,50,60,42
6,15,10,-10,-2,12,-25,-33,-15,53,62,44
6,16,10,-11,-2,13,-25,-33,-15,55,65,45
7,18,11,-12,-2,14,-26,-33,-15,56,68,47
7,18,11,-12,-2,14,-27,-34,-15,58,70,48
8,19,12,-13,-2,15,-28,-35,-14,60,71,50
8,19,12,-13,-2,15,-29,-35,-14,62,73,52
8,20,12,-14,-2,16,-29,-36,-14,65,76,54
8,21,13,-14,-2,17,-30,-36,-14,68,78,56
9,22,14,-15,-2,18,-31,-37,-14,71,81,57
9,23,14,-16,-2,19,-32,-38,-14,73,84,59
10,25,15,-17,-2,19,-33,-38,-13,74,87,61
11,26,15,-18,-2,20,-34,-38,-13,76,89,62
11,26,16,-19,-2,20,-35,-38,-13,77,90,64
12,27,16,-19,-2,21,-36,-38,-13,79,92,65
12,27,16,-19,-2,22,-37,-39,-13,81,93,66
12,28,17,-20,-2,23,-38,-39,-13,83,95,68
13,30,17,-21,-2,24,-39,-39,-13,85,97,69
13,31,18,-21,-2,24,-40,-39,-12,86,99,70
14,32,18,-22,-2,25,-41,-39,-12,88,100,72
14,32,18,-23,-2,25,-42,-39,-11,88,102,73
15,33,18,-23,-2,25,-42,-39,-11,89,103,74
15,34,18,-24,-1,26,-43,-38,-10,90,103,75
16,34,18,-25,-1,26,-44,-38,-10,91,103,76
17,35,18,-26,0,26,-45,-38,-9,92,104,77
18,35,18,-26,0,26,-46,-38,-9,93,105,78
18,36,18,-27,0,26,-46,-37,-8,94,106,78
19,36,18,-27,1,27,-47,-37,-8,94,107,78
19,37,18,-28,1,27,-47,-37,-7,94,107,78
19,37,18,-28,1,27,-48,-36,-7,94,107,78
20,37,17,-28,1,27,-48,-35,-6,94,107,78
20,37,17,-28,1,27,-48,-34,-6,94,106,78
20,37,17,-28,1,27,-48,-34,-5,94,106,77
20,37,17,-28,1,27,-48,-33,-4,93,105,77
20,37,17,-28,1,27,-48,-31,-4,93,105,76
20,37,17,-28,2,27,-48,-30,-3,92,104,76
20,37,17,-28,2,27,-48,-29,-2,91,103,75
20,37,17,-28,2,27,-48,-28,-1,90,102,75
21,36,16,-28,2,26,-48,-27,0,89,101,74
21,36,15,-28,3,26,-48,-26,0,87,100,73
21,36,15,-28,3,25,-48,-25,1,86,98,72
21,36,15,-28,3,25,-47,-24,2,86,97,71
21,35,14,-28,3,25,-47,-23,2,85,96,70
21,35,14,-28,3,24,-46,-21,3,83,95,69
21,34,14,-27,3,24,-45,-20,4,82,93,68
21,34,14,-27,3,24,-45,-19,5,80,92,67
21,33,13,-26,4,23,-44,-17,6,78,90,65
21,33,12,-26,4,22,-44,-16,6,76,88,63
21,32,11,-26,5,21,-43,-15,7,75,85,61
21,31,11,-25,5,21,-42,-14,7,74,83,60
20,30,10,-25,5,20,-41,-13,8,72,82,59
20,29,10,-24,5,20,-40,-12,8,71,80,57
20,29,10,-24,5,19,-39,-11,9,69,78,56
19,28,10,-23,5,19,-38,-11,10,67,76,54
19,27,9,-23,5,18,-37,-10,11,65,74,53
19,26,9,-23,5,17,-36,-9,11,63,72,51
19,26,8,-22,5,16,-35,-8,12,62,70,50
18,26,8,-22,5,16,-33,-7,12,61,69,49
18,25,8,-21,5,16,-32,-6,13,59,67,47
17,24,8,-21,5,16,-31,-5,13,58,66,46
16,23,8,-20,5,15,-30,-4,13,56,64,44
16,23,7,-20,5,15,-29,-4,13,54,62,43
16,22,7,-19,5,15,-28,-3,14,52,60,42
16,21,6,-19,5,14,-27,-3,14,51,58,41
16,21,6,-18,5,13,-25,-2,15,49,57,39
15,20,5,-18,5,12,-24,-2,15,48,55,38
15,20,5,-17,5,12,-23,-1,15,47,53,36
14,19,5,-17,5,12,-22,-1,15,46,51,35
14,19,5,-16,5,12,-21,-1,15,44,50,34
14,18,5,-16,5,11,-20,-1,15,42,48,33
14,17,5,-15,5,11,-20,0,14,40,46,32
13,17,5,-15,4,10,-19,0,14,39,45,31
13,16,5,-14,4,10,-19,-1,14,37,43,30
12,16,4,-14,4,10,-18,-1,14,37,42,30
12,15,4,-13,4,9,-17,-1,14,36,41,29
12,15,4,-13,4,9,-16,-1,14,35,40,27
11,14,4,-12,3,8,-15,-1,14,34,40,26
11,14,4,-12,3,8,-15,-1,14,33,39,26
11,13,4,-12,4,8,-14,-1,14,32,38,25
10,13,4,-12,4,8,-14,-1,14,30,36,25
10,13,4,-11,3,8,-14,-1,13,29,34,24
9,13,4,-11,3,8,-13,-2,13,28,33,23
9,12,3,-10,3,8,-13,-2,12,27,32,22
9,12,3,-10,3,7,-12,-2,12,26,31,22
9,11,3,-10,3,7,-11,-2,11,25,30,21
9,11,3,-10,3,7,-11,-2,11,24,30,21
9,11,2,-10,3,7,-11,-2,10,23,29,20
9,10,2,-10,3,6,-11,-2,10,22,28,19
9,10,2,-10,3,6,-10,-2,9,21,26,18
9,10,2,-10,3,5,-10,-2,9,21,25,17
8,10,2,-9,3,5,-9,-2,9,20,24,16
8,10,2,-9,3,5,-9,-2,9,19,22,15
8,10,2,-9,3,5,-9,-3,8,19,21,15
8,9,2,-9,3,5,-9,-3,8,18,20,14
7,9,2,-8,3,5,-9,-3,8,17,19,14
7,9,2,-8,3,5,-9,-3,8,16,19,13
7,8,2,-8,3,5,-9,-3,8,16,18,13
7,8,2,-8,3,5,-9,-3,7,16,18,12
7,8,2,-8,3,5,-8,-3,7,16,18,11
8,8,1,-8,3,4,-8,-4,7,16,19,10
8,8,1,-8,3,4,-7,-4,7,15,19,10
7,8,2,-7,3,5,-7,-3,7,15,19,10
7,8,2,-7,3,5,-7,-3,7,14,17,10
7,8,2,-7,3,5,-7,-2,6,14,16,10
7,8,2,-7,3,5,-6,-3,6,13,15,10
6,8,2,-7,2,5,-6,-3,6,13,15,10
6,8,2,-7,2,5,-5,-3,6,12,15,10
5,8,2,-7,1,5,-5,-2,5,12,15,9
5,8,2,-6,1,5,-5,-2,5,12,15,9
5,8,2,-6,1,5,-5,-2,5,11,15,9
5,7,2,-6,1,4,-5,-3,5,11,14,9
4,7,3,-6,1,4,-5,-3,5,11,14,8
4,6,3,-5,0,4,-5,-3,5,10,13,8
3,6,3,-5,0,4,-5,-3,5,10,13,8
3,5,3,-4,0,3,-4,-3,4,9,13,8
3,5,2,-4,0,3,-4,-3,4,9,13,7
3,5,2,-4,0,4,-4,-3,4,8,12,7
3,6,2,-4,0,4,-4,-3,4,8,11,7
3,6,2,-4,0,4,-4,-3,4,8,10,6
3,6,2,-4,0,4,-4,-3,4,8,9,5
4,6,2,-4,0,4,-4,-3,3,8,9,5
4,6,3,-4,0,4,-4,-3,3,7,9,5
3,6,3,-4,0,4,-4,-4,2,7,9,5
3,6,4,-4,0,4,-4,-4,2,8,9,5
2,5,4,-4,0,4,-4,-4,3,8,9,5
2,5,3,-4,0,4,-4,-5,3,8,9,5
3,5,3,-4,0,4,-3,-5,3,7,9,6
3,5,3,-3,0,4,-3,-5,2,7,9,6
3,5,3,-3,0,4,-3,-5,2,6,8,6
3,4,2,-3,0,3,-3,-5,2,6,8,6
3,4,2,-4,0,3,-3,-5,2,6,8,6
3,4,2,-4,0,3,-3,-5,1,6,9,6
3,4,2,-4,0,3,-3,-5,1,6,9,4
3,4,2,-4,0,3,-3,-5,1,5,8,3
3,4,2,-4,0,3,-3,-5,1,4,8,2
3,4,2,-3,0,3,-3,-5,1,3,7,2
2,4,2,-3,0,3,-3,-5,1,3,7,2
2,4,3,-2,0,3,-3,-5,1,4,7,3
2,4,2,-2,0,3,-3,-6,1,4,7,3
2,4,2,-2,0,3,-3,-7,1,5,7,4
2,4,2,-2,0,3,-3,-7,1,5,7,4
2,4,2,-2,0,3,-3,-6,1,5,7,4
2,3,2,-2,0,3,-3,-6,1,5,7,4
2,3,2,-2,0,2,-3,-7,1,5,8,4
2,3,1,-2,0,2,-3,-7,0,6,9,4
3,3,0,-2,1,2,-3,-7,0,5,9,4
3,3,0,-2,1,1,-3,-7,0,4,8,4
3,3,0,-2,1,1,-3,-7,0,4,8,4
3,2,0,-2,1,1,-3,-8,0,4,8,4
3,2,0,-1,1,0,-3,-9,0,4,7,3
3,2,-1,-1,1,0,-3,-9,0,4,7,3
3,2,-1,-2,2,0,-2,-7,0,4,7,3
3,2,-1,-2,2,0,-2,-6,0,4,7,3
2,2,0,-2,1,0,-3,-6,0,4,7,3
2,2,0,-2,1,0,-3,-7,0,4,6,3
2,2,0,-2,1,0,-3,-7,0,4,6,3
2,2,-1,-2,1,0,-3,-7,-1,4,6,4
2,1,-1,-1,1,0,-3,-7,-1,4,6,4
2,1,-1,-1,1,0,-3,-7,-1,4,6,4
2,1,-1,-1,1,0,-3,-7,-1,4,7,5
2,1,-1,-1,2,0,-3,-8,-1,3,9,5
3,0,-2,-1,2,0,-3,-8,-2,2,9,6
3,0,-1,-1,2,0,-3,-8,-2,3,9,6
3,1,-1,-1,2,0,-3,-8,-1,4,9,8
3,2,0,-2,2,1,-3,-8,-1,6,9,9
3,3,0,-3,2,1,-3,-8,0,10,12,10
3,4,0,-4,2,2,-3,-7,1,16,18,12
4,6,1,-5,2,3,-4,-6,3,24,27,15
5,7,2,-6,2,4,-4,-6,6,32,37,19
6,9,3,-7,2,6,-4,-6,9,42,48,23
7,11,4,-9,2,7,-3,-4,13,53,59,28
8,12,5,-10,2,8,-3,-1,18,65,70,34
9,13,5,-11,2,9,-2,3,23,79,82,39
10,15,6,-13,2,10,-2,7,29,94,95,46
11,17,7,-14,2,12,-2,11,34,112,112,53
12,19,7,-16,2,13,-2,16,40,131,131,61
14,20,6,-17,4,13,-2,22,45,146,147,66
17,20,3,-18,6,12,-3,29,48,152,155,68
20,19,-1,-19,10,9,-3,37,50,147,149,64
23,16,-7,-19,15,4,-3,46,50,132,132,55
25,12,-13,-19,19,0,-2,55,51,113,110,44
26,8,-18,-18,23,-5,0,64,52,93,86,31
26,3,-22,-15,25,-9,2,73,53,71,58,16
25,-1,-25,-12,25,-14,6,83,55,47,29,-1
23,-6,-28,-8,26,-18,9,92,55,23,0,-16
21,-10,-31,-5,26,-21,13,100,56,2,-27,-29
20,-13,-32,-2,26,-23,17,108,58,-17,-49,-41
18,-16,-33,0,26,-25,20,113,59,-35,-68,-52
17,-18,-34,1,26,-26,22,116,57,-54,-86,-62
15,-20,-36,2,26,-28,23,116,52,-74,-103,-71
14,-25,-39,5,27,-32,24,117,46,-92,-119,-80
12,-30,-42,8,27,-36,25,118,40,-108,-133,-88
11,-34,-44,11,27,-40,26,118,34,-122,-146,-96
9,-37,-45,13,27,-42,27,118,28,-133,-157,-102
8,-39,-46,15,27,-43,29,116,24,-141,-165,-107
6,-40,-46,17,26,-44,32,115,22,-147,-171,-111
3,-42,-45,20,24,-44,35,115,21,-153,-176,-114
0,-43,-43,22,22,-43,38,114,21,-158,-180,-115
-3,-44,-41,23,19,-42,41,114,21,-160,-182,-116
-5,-45,-39,24,17,-42,45,113,21,-160,-182,-117
-8,-46,-37,26,14,-42,48,113,21,-160,-180,-117
-11,-47,-34,29,11,-41,53,112,21,-159,-179,-116
-15,-47,-31,31,8,-40,58,111,21,-158,-177,-114
-18,-48,-28,33,5,-39,63,108,19,-157,-174,-113
-22,-49,-26,36,2,-38,67,102,16,-156,-171,-112
-27,-50,-23,39,-2,-37,71,96,13,-153,-167,-110
-32,-51,-20,41,-6,-36,75,89,10,-148,-162,-108
-36,-52,-15,43,-11,-34,79,81,7,-142,-155,-103
-40,-50,-10,44,-15,-31,81,71,3,-134,-147,-96
-42,-49,-6,45,-19,-28,80,60,-2,-127,-137,-89
-44,-47,-2,45,-21,-24,78,48,-8,-120,-127,-82
-45,-44,2,45,-24,-21,75,35,-15,-114,-117,-76
-45,-41,4,44,-25,-18,72,24,-20,-108,-110,-70
-45,-39,5,43,-25,-17,69,15,-22,-103,-104,-65
-45,-38,6,41,-25,-16,66,6,-25,-100,-100,-62
-44,-37,6,40,-25,-15,62,-2,-28,-98,-98,-61
-43,-37,6,39,-24,-15,59,-11,-33,-95,-94,-58
-41,-36,6,38,-23,-15,56,-19,-37,-91,-89,-54
-38,-34,5,36,-22,-15,54,-25,-38,-86,-85,-51
-36,-32,6,35,-21,-14,52,-27,-37,-80,-80,-48
-35,-31,6,34,-21,-13,51,-27,-35,-74,-74,-46
-35,-29,6,32,-20,-12,50,-28,-33,-69,-68,-44
-34,-28,6,31,-20,-12,47,-29,-32,-65,-63,-41
-32,-26,5,29,-18,-11,45,-28,-30,-62,-59,-37
-30,-25,5,27,-17,-11,44,-27,-26,-58,-55,-33
-28,-24,4,25,-16,-10,43,-26,-23,-53,-52,-30
-26,-23,4,24,-15,-10,41,-26,-21,-50,-50,-28
-25,-22,4,24,-14,-9,40,-27,-20,-47,-47,-27
-23,-22,2,23,-13,-10,37,-27,-21,-46,-44,-25
-21,-21,0,22,-11,-10,34,-29,-24,-45,-41,-24
-20,-21,-1,21,-10,-10,30,-33,-27,-44,-38,-23
-19,-20,-2,19,-8,-11,27,-36,-30,-43,-37,-22
-18,-20,-2,18,-8,-11,25,-38,-33,-43,-37,-20
-17,-20,-2,18,-7,-11,24,-41,-35,-42,-36,-18
-16,-20,-2,17,-6,-11,22,-43,-36,-40,-35,-16
-14,-19,-3,17,-5,-11,19,-46,-37,-37,-34,-14
-13,-18,-3,16,-5,-11,16,-47,-38,-33,-31,-13
-12,-17,-4,16,-4,-11,14,-48,-38,-30,-28,-13
-12,-16,-4,15,-4,-10,11,-50,-38,-28,-24,-13
-11,-15,-4,13,-3,-10,7,-51,-37,-27,-22,-13
-9,-14,-4,11,-2,-9,4,-51,-36,-25,-20,-12
-8,-12,-4,9,-2,-8,1,-50,-35,-22,-18,-10
-7,-10,-3,8,-2,-7,0,-47,-33,-19,-16,-8
-6,-9,-2,7,-1,-6,-3,-44,-30,-16,-14,-5
-4,-7,-1,5,-1,-5,-5,-41,-27,-13,-11,-3
-3,-5,-1,4,0,-3,-6,-38,-25,-11,-9,-1
-2,-4,-1,3,0,-2,-7,-36,-22,-9,-8,0
-2,-3,-1,2,0,-2,-8,-34,-21,-8,-6,1
-2,-3,0,2,0,-1,-10,-33,-20,-8,-5,2
-2,-3,0,1,0,-1,-11,-32,-20,-7,-4,3
-1,-3,-1,1,0,-1,-11,-33,-20,-7,-3,4
-1,-3,-1,1,0,-2,-12,-34,-20,-6,-3,4
-1,-2,0,1,0,-1,-12,-34,-20,-6,-3,4
-1,-2,0,2,0,-1,-12,-34,-20,-5,-2,4
-2,-2,0,2,-1,-1,-12,-34,-21,-6,-1,3
-2,-2,0,2,-1,-1,-13,-34,-21,-7,-2,4
-2,-3,0,2,0,-1,-13,-34,-21,-7,-2,4
-2,-2,0,1,0,0,-13,-34,-21,-7,-2,5
-2,-2,1,1,-1,0,-13,-34,-21,-8,-3,6
-2,-2,1,1,-1,0,-14,-34,-21,-9,-4,6
-2,-2,0,1,-1,0,-14,-34,-21,-9,-4,6
-1,-2,0,1,-1,-1,-14,-34,-21,-10,-3,6
-1,-2,0,1,-1,-1,-14,-34,-22,-11,-3,6
-1,-1,0,1,-1,0,-14,-34,-22,-10,-3,6
-1,0,1,0,-1,0,-15,-35,-23,-9,-3,6
-1,0,1,0,-1,0,-15,-35,-23,-8,-3,5
-1,0,1,0,-1,0,-15,-36,-23,-6,-3,4
-1,0,2,0,-1,1,-15,-36,-23,-5,-2,4
-1,0,2,0,-1,1,-15,-36,-23,-4,-2,4
-1,0,2,0,-1,1,-15,-37,-23,-3,-1,5
-1,1,3,0,-2,1,-15,-37,-23,-2,0,6
-1,1,3,0,-2,2,-15,-37,-23,-2,1,6
-1,2,3,0,-2,2,-15,-36,-22,-2,2,7
-1,2,4,-1,-2,3,-15,-37,-22,-3,3,8
-2,2,4,-1,-3,3,-15,-38,-23,-3,3,10
-1,2,4,-1,-3,3,-16,-38,-24,-3,4,13
-1,2,4,-1,-3,3,-16,-39,-24,-2,6,14
-1,3,4,-1,-3,3,-16,-39,-24,-1,7,14
-1,3,4,-1,-3,4,-16,-40,-24,-1,7,14
-1,4,5,-1,-3,4,-17,-41,-24,0,7,14
-2,4,6,-1,-3,5,-17,-43,-24,1,7,14
-1,4,6,-1,-3,5,-18,-43,-25,3,7,15
-1,5,6,-2,-3,5,-19,-42,-25,3,8,15
-1,5,7,-3,-4,6,-19,-42,-25,4,10,16
-1,6,7,-3,-4,6,-20,-43,-25,5,12,17
0,6,8,-3,-4,7,-21,-43,-25,7,14,17
0,7,9,-3,-4,8,-21,-43,-24,9,16,18
0,7,9,-4,-4,8,-22,-45,-24,11,18,19
0,8,9,-4,-4,9,-22,-46,-24,12,19,21
0,8,9,-4,-4,9,-23,-46,-24,14,21,23
0,9,10,-4,-5,10,-24,-47,-23,16,24,24
0,10,10,-5,-5,10,-24,-47,-23,17,25,25
0,11,11,-6,-5,11,-24,-47,-23,18,26,27
1,12,11,-6,-5,12,-25,-48,-23,19,27,28
1,13,12,-7,-5,12,-25,-48,-23,20,29,27
2,13,12,-7,-5,12,-26,-47,-22,23,32,28
2,14,12,-8,-5,13,-26,-47,-22,25,34,29
3,14,12,-8,-5,13,-27,-47,-23,26,36,31
3,15,13,-9,-5,14,-28,-48,-23,26,36,32
2,16,14,-9,-6,15,-29,-49,-23,27,35,32
3,17,15,-10,-6,16,-29,-49,-22,29,36,33
3,19,16,-11,-6,17,-30,-50,-22,30,37,33
4,20,16,-12,-6,18,-30,-50,-22,32,38,33
4,20,16,-12,-6,18,-31,-50,-22,34,40,34
4,20,16,-12,-6,18,-31,-50,-21,35,42,36
5,20,16,-13,-5,18,-32,-50,-20,35,43,37
5,21,16,-13,-6,18,-32,-49,-20,35,44,38
5,21,17,-13,-6,19,-33,-49,-20,36,45,39
5,21,17,-14,-6,19,-34,-49,-20,37,45,40
5,21,17,-14,-5,19,-35,-49,-19,38,46,40
5,21,16,-14,-5,19,-35,-48,-19,38,46,41
5,22,16,-14,-5,19,-35,-47,-18,39,47,41
6,22,16,-14,-5,19,-35,-47,-18,40,48,42
6,23,16,-15,-5,19,-35,-46,-17,41,49,43
6,23,16,-15,-5,19,-35,-46,-17,41,49,43
7,23,16,-15,-5,19,-35,-46,-16,42,49,42
7,23,16,-16,-4,19,-35,-45,-15,42,49,42
8,23,16,-16,-4,19,-35,-44,-14,42,50,43
9,23,15,-16,-3,19,-35,-43,-13,43,51,43
9,23,15,-16,-3,19,-35,-41,-12,43,51,42
9,23,14,-16,-2,18,-35,-40,-11,44,51,42
9,23,14,-16,-2,18,-34,-38,-10,44,51,43
9,23,14,-16,-2,18,-34,-37,-9,45,51,44
9,22,13,-16,-2,17,-34,-37,-9,46,52,44
9,21,13,-15,-1,17,-33,-36,-8,46,52,43
9,21,12,-15,-1,16,-33,-35,-7,46,51,41
9,21,12,-15,-2,17,-33,-34,-6,46,51,41
8,21,13,-15,-2,17,-33,-32,-5,47,51,41
8,21,13,-15,-2,17,-32,-31,-4,47,51,39
8,21,14,-15,-2,17,-31,-30,-3,45,50,38
8,20,13,-15,-2,17,-30,-29,-2,44,50,36
8,20,12,-15,-1,16,-30,-29,-1,43,49,36
9,19,11,-15,-1,15,-29,-27,0,42,48,36
9,19,10,-14,0,14,-28,-26,0,42,46,36
9,18,9,-14,0,14,-27,-25,1,42,45,35
9,18,9,-13,0,13,-26,-23,2,43,44,34
8,17,10,-13,0,13,-25,-22,3,44,44,32
7,17,10,-12,-1,13,-24,-21,4,44,45,31
7,16,9,-12,-1,13,-23,-20,5,44,46,31
6,16,9,-11,-1,12,-21,-18,6,44,46,31
6,16,9,-11,-1,12,-20,-17,7,44,46,31
6,16,9,-11,-1,12,-20,-16,7,44,46,30
6,15,8,-11,0,11,-19,-15,8,44,46,29
6,14,7,-10,0,11,-18,-14,9,43,46,28
6,13,7,-10,0,10,-17,-13,10,42,45,29
6,13,7,-10,0,10,-16,-12,10,41,45,28
7,13,7,-10,0,10,-15,-12,10,40,43,26
7,13,7,-9,0,9,-15,-11,10,40,41,25
7,12,7,-9,0,9,-14,-11,11,39,39,24
6,11,6,-8,0,8,-14,-10,11,39,37,23
6,11,6,-8,0,8,-13,-9,12,37,35,21
6,10,5,-8,0,7,-13,-8,12,36,34,20
6,10,5,-8,0,7,-12,-8,13,36,34,20
5,10,5,-8,0,7,-11,-8,14,36,34,19
5,10,5,-7,0,7,-10,-7,14,36,34,19
4,9,5,-7,0,7,-10,-6,14,36,33,20
4,9,5,-7,0,6,-9,-6,15,35,32,20
4,8,4,-6,0,6,-9,-6,14,32,30,18
4,8,3,-6,0,5,-9,-6,13,30,28,18
4,7,2,-6,1,5,-9,-6,13,28,25,18
4,7,2,-6,1,4,-9,-5,12,28,23,17
4,6,1,-5,1,4,-8,-5,12,27,23,16
5,6,1,-5,1,4,-8,-4,11,27,23,15
5,6,1,-6,2,4,-8,-4,11,27,25,14
5,6,1,-6,2,4,-8,-3,11,28,26,15
5,6,1,-6,2,4,-7,-3,11,28,27,16
5,6,1,-6,2,3,-7,-3,11,27,26,16
5,5,1,-5,2,3,-7,-3,11,26,26,16
5,5,0,-5,2,3,-7,-2,10,25,26,14
5,4,0,-5,2,3,-6,-2,10,24,24,11
5,4,0,-5,3,2,-6,-2,10,24,22,10
5,3,-1,-5,3,2,-6,-2,10,23,21,10
5,3,-1,-5,3,1,-6,-2,9,22,20,10
5,3,-2,-5,4,0,-6,-2,9,22,20,11
5,3,-2,-5,4,0,-6,-1,9,21,20,11
5,3,-2,-5,4,0,-6,-1,9,21,20,11
5,3,-2,-5,4,0,-6,-1,8,21,20,11
5,3,-3,-4,4,0,-6,-1,8,20,18,10
5,2,-3,-4,4,0,-6,-1,8,20,16,9
4,2,-3,-3,3,0,-6,0,8,19,14,8
4,1,-3,-3,3,0,-6,0,7,19,13,7
5,1,-3,-3,4,0,-5,0,7,18,13,6
5,1,-3,-3,4,0,-5,0,7,18,13,5
5,1,-3,-3,3,0,-5,0,6,17,13,5
5,1,-3,-3,3,0,-5,0,6,16,12,5
5,1,-4,-3,4,-1,-5,0,6,15,12,5
5,1,-4,-3,4,-1,-5,0,6,14,11,5
5,0,-5,-3,4,-2,-5,0,7,14,11,5
5,0,-5,-3,4,-2,-5,0,6,14,11,5
5,0,-4,-2,4,-2,-5,0,6,14,11,5
4,0,-4,-2,4,-2,-5,0,6,14,10,4
4,-1,-4,-2,4,-3,-5,0,6,13,10,4
4,-1,-5,-2,5,-3,-4,1,6,13,9,3
4,-1,-5,-2,5,-3,-4,2,5,12,9,3
4,-1,-5,-1,5,-3,-4,2,5,11,8,3
4,-1,-5,-1,4,-3,-4,0,5,10,8,3
3,-1,-5,-1,4,-3,-3,-1,5,10,8,2
3,-1,-5,-1,4,-3,-3,0,5,10,8,3
3,-1,-5,-1,4,-3,-2,1,4,10,7,3
3,-1,-5,-1,4,-3,-2,2,4,9,7,3
2,-1,-4,0,3,-3,-2,1,3,9,6,2
1,-1,-4,0,3,-3,-2,1,3,9,6,2
1,-1,-3,0,2,-2,-1,1,3,8,6,2
1,-1,-3,0,2,-2,-1,0,3,8,5,1
1,-2,-3,0,2,-2,-2,0,3,7,5,1
1,-2,-3,0,2,-2,-2,0,3,7,4,1
1,-2,-3,0,2,-2,-2,0,2,6,4,1
1,-2,-3,0,2,-2,-1,-1,2,6,3,0
1,-2,-3,0,2,-2,-1,-1,2,6,3,-1
1,-2,-4,0,2,-3,-2,-1,1,6,3,-1
1,-2,-4,0,2,-3,-2,-1,1,6,3,-1
1,-2,-4,0,3,-3,-1,-1,1,5,3,-1
1,-2,-4,0,3,-3,-1,-2,1,5,3,-1
1,-2,-4,0,3,-3,-1,-3,1,5,2,-1
0,-2,-3,1,2,-3,-1,-3,1,5,2,-1
0,-2,-3,1,2,-3,-1,-3,1,5,2,-1
0,-2,-2,1,1,-3,-1,-3,0,5,2,-1
0,-2,-2,1,1,-3,-1,-3,0,5,2,-1
0,-2,-2,1,1,-2,-1,-3,0,4,2,-1
0,-2,-2,1,1,-2,-1,-3,-1,4,1,-1
0,-1,-2,0,1,-2,-2,-3,-1,3,0,-2
0,-1,-1,0,1,-1,-2,-3,-2,3,0,-3
0,-1,-1,0,1,-1,-2,-4,-2,3,0,-4
0,-1,-1,0,1,-1,-3,-5,-2,3,0,-4
0,-1,0,0,1,-1,-3,-6,-2,4,0,-3
0,0,0,0,0,0,-4,-7,-3,5,1,-2
0,1,1,0,0,0,-5,-7,-3,7,4,-1
0,2,1,-1,0,1,-6,-7,-3,10,7,0
1,3,2,-1,0,2,-6,-7,-2,14,12,2
1,4,2,-2,0,3,-7,-7,-1,20,17,3
2,5,4,-4,0,4,-7,-8,0,27,24,5
2,7,6,-5,-1,6,-8,-8,3,36,32,8
2,10,8,-6,-2,9,-9,-6,7,47,42,12
3,13,10,-8,-3,11,-10,-3,11,60,52,16
4,15,11,-10,-3,13,-11,1,16,73,63,19
5,17,12,-11,-3,14,-11,5,22,88,76,23
6,18,12,-13,-2,15,-10,10,28,104,92,29
8,20,12,-15,-2,16,-10,16,35,121,110,35
11,21,11,-17,0,16,-11,24,41,136,125,41
15,21,8,-19,3,14,-12,31,44,144,134,44
18,19,2,-19,8,11,-13,40,46,140,131,42
20,15,-3,-18,12,6,-11,50,47,125,116,36
22,11,-10,-16,16,0,-9,61,48,106,95,26
22,6,-16,-14,19,-5,-6,71,49,85,71,14
21,0,-20,-11,20,-10,-2,81,50,61,44,0
20,-5,-25,-7,22,-15,3,91,51,36,13,-16
19,-12,-29,-4,24,-21,8,99,52,10,-18,-32
17,-18,-33,0,25,-25,13,106,53,-12,-45,-46
14,-22,-34,4,24,-28,19,114,54,-32,-68,-56
11,-25,-35,7,23,-30,23,121,55,-50,-86,-65
10,-27,-37,9,24,-32,26,126,53,-67,-103,-73
8,-30,-39,11,24,-34,29,128,49,-84,-118,-82
6,-34,-40,13,24,-37,32,129,45,-101,-132,-90
5,-38,-43,16,24,-41,35,131,40,-116,-146,-99
4,-42,-45,18,24,-44,39,133,35,-130,-158,-108
2,-46,-47,21,25,-47,42,133,31,-143,-170,-116
0,-50,-49,24,25,-49,46,132,28,-152,-179,-122
-1,-52,-50,26,25,-51,49,130,26,-159,-185,-125
-3,-53,-50,28,24,-52,52,127,24,-165,-190,-127
-6,-54,-48,29,21,-51,55,123,22,-168,-192,-128
-9,-54,-45,31,18,-49,57,120,21,-170,-193,-127
-12,-53,-41,32,14,-47,59,116,19,-170,-193,-127
-15,-52,-36,33,10,-44,61,111,18,-168,-191,-126
-16,-50,-32,33,7,-41,63,108,17,-166,-189,-124
-19,-49,-28,34,4,-39,67,105,15,-163,-186,-123
-23,-48,-23,36,0,-36,70,100,14,-161,-182,-121
-26,-46,-18,36,-3,-32,73,94,11,-158,-176,-117
-30,-43,-13,37,-8,-28,76,86,8,-154,-169,-113
-34,-42,-8,37,-12,-25,78,77,5,-149,-162,-109
-37,-40,-2,38,-17,-21,79,67,0,-144,-155,-104
-41,-38,3,38,-23,-17,78,56,-4,-139,-147,-99
-43,-36,9,39,-27,-13,76,44,-10,-132,-138,-91
-45,-33,14,39,-30,-9,74,30,-17,-126,-129,-83
-46,-29,18,38,-32,-5,70,16,-25,-119,-121,-76
-46,-25,21,36,-33,-1,66,2,-31,-113,-113,-69
-45,-21,23,34,-34,1,62,-8,-34,-106,-105,-62
-45,-19,24,32,-34,2,59,-15,-36,-100,-97,-57
-43,-18,24,30,-34,3,57,-22,-36,-96,-91,-53
-42,-17,25,29,-34,4,54,-28,-38,-92,-86,-49
-41,-16,25,28,-34,5,50,-34,-40,-88,-81,-46
-38,-16,23,27,-32,4,47,-38,-41,-84,-77,-43
-36,-16,21,26,-29,3,46,-39,-40,-79,-73,-40
-35,-16,19,26,-27,2,46,-39,-37,-75,-69,-38
-34,-16,18,26,-25,1,46,-39,-35,-69,-65,-36
-35,-16,18,26,-25,1,45,-38,-32,-63,-61,-35
-34,-16,17,25,-25,1,43,-36,-30,-58,-57,-33
-33,-15,17,24,-25,1,42,-33,-27,-53,-54,-33
-32,-15,17,23,-25,1,42,-29,-22,-49,-52,-33
-30,-15,16,22,-24,0,43,-27,-18,-47,-50,-34
-30,-15,16,22,-23,0,44,-25,-15,-46,-48,-33
-29,-15,15,22,-22,0,44,-23,-13,-44,-44,-30
-28,-15,13,22,-20,-1,42,-22,-14,-41,-40,-27
-27,-15,11,21,-18,-2,39,-24,-16,-39,-37,-24
-25,-16,8,21,-16,-4,36,-27,-20,-38,-35,-23
-24,-17,6,20,-15,-5,34,-30,-23,-37,-33,-22
-23,-17,5,20,-14,-6,32,-32,-26,-37,-33,-21
-22,-18,4,19,-14,-7,30,-34,-28,-36,-32,-19
-20,-18,3,19,-12,-7,28,-36,-30,-36,-31,-18
-19,-17,2,18,-11,-7,25,-38,-30,-34,-30,-16
-18,-16,2,17,-10,-6,23,-39,-30,-32,-28,-15
-16,-15,2,16,-8,-6,20,-40,-31,-29,-25,-14
-15,-14,1,15,-7,-6,16,-42,-31,-27,-23,-14
-14,-13,0,13,-6,-5,14,-42,-30,-26,-22,-14
-13,-12,1,12,-6,-5,11,-42,-29,-25,-20,-13
-12,-11,1,11,-7,-4,9,-40,-26,-23,-18,-11
-11,-10,1,10,-6,-3,7,-37,-23,-19,-15,-9
-9,-9,0,8,-5,-4,4,-33,-20,-15,-11,-6
-6,-8,0,7,-3,-4,1,-30,-18,-12,-7,-4
-5,-7,-1,6,-2,-4,-1,-28,-17,-9,-4,-2
-6,-6,0,6,-2,-3,-3,-26,-15,-7,-1,0
-6,-5,0,6,-3,-2,-4,-24,-14,-6,0,0
-5,-3,1,4,-3,-1,-5,-23,-13,-5,0,1
-4,-2,2,3,-4,0,-7,-23,-13,-5,0,2
-4,-1,3,2,-4,1,-8,-24,-13,-6,-1,1
-4,0,3,2,-4,1,-9,-24,-13,-6,-1,1
-4,-1,3,2,-4,1,-8,-24,-13,-6,-1,1
-4,-1,4,2,-4,1,-7,-24,-13,-4,0,2
-5,-1,4,2,-4,1,-7,-23,-13,-3,0,3
-5,-1,4,2,-4,1,-8,-23,-13,-4,0,4
-4,-1,3,2,-4,1,-10,-24,-14,-4,0,3
-4,-1,3,2,-4,1,-11,-25,-15,-4,-1,1
-4,0,4,1,-4,2,-11,-25,-15,-5,-1,0
-3,0,4,1,-4,2,-11,-24,-15,-5,-1,0
-3,0,5,1,-4,3,-10,-24,-14,-6,-1,0
-4,1,6,1,-5,4,-11,-25,-14,-6,0,1
-5,2,8,1,-6,5,-11,-26,-14,-5,0,2
-5,3,9,0,-6,6,-12,-27,-15,-5,0,2
-4,3,8,0,-6,5,-11,-28,-15,-5,0,2
-4,2,6,0,-5,4,-9,-27,-15,-5,1,3
-4,0,4,1,-5,3,-8,-26,-15,-5,1,3
-3,0,3,1,-4,2,-8,-26,-14,-5,2,4
-3,0,3,1,-4,2,-8,-25,-14,-4,4,5
-3,0,4,1,-5,3,-9,-25,-15,-3,5,6
-3,1,4,0,-5,3,-11,-26,-16,-2,6,6
-3,1,5,0,-4,3,-13,-27,-16,-2,7,5
-3,1,6,0,-5,4,-15,-27,-16,-2,7,6
-3,2,7,0,-5,5,-14,-28,-16,0,9,7
-3,3,8,-1,-6,6,-13,-29,-16,1,10,9
-3,4,8,-1,-6,7,-13,-30,-17,3,10,10
-3,6,9,-2,-7,8,-14,-32,-18,5,11,11
-3,8,11,-3,-7,9,-16,-33,-19,7,11,12
-2,9,12,-4,-7,10,-17,-34,-19,7,12,12
-1,10,12,-4,-6,11,-17,-34,-19,7,13,12
-1,10,12,-4,-6,11,-17,-32,-18,7,16,14
-1,10,12,-4,-7,11,-16,-32,-17,8,18,17
-2,8,12,-3,-7,10,-16,-32,-17,9,20,18
-3,6,11,-2,-7,9,-16,-32,-18,9,21,18
-4,5,10,-1,-7,8,-15,-32,-17,10,22,19
-3,5,9,-2,-6,7,-14,-32,-16,11,24,21
-1,5,7,-2,-4,6,-13,-32,-16,13,25,23
0,6,7,-3,-4,7,-14,-33,-16,16,27,24
-1,8,10,-4,-6,9,-16,-34,-17,19,29,26
0,12,13,-6,-7,13,-18,-36,-19,22,31,26
0,16,16,-8,-8,16,-20,-38,-20,24,31,25
0,18,17,-10,-9,17,-22,-39,-20,25,32,24
1,19,17,-11,-8,18,-23,-40,-20,26,34,25
1,20,18,-11,-8,18,-24,-39,-19,27,36,27
2,20,18,-11,-8,19,-26,-39,-18,28,37,28
2,20,18,-12,-8,19,-28,-39,-18,29,39,30
2,20,18,-12,-8,20,-28,-39,-18,31,41,32
2,20,19,-12,-9,20,-28,-40,-18,34,44,34
2,21,19,-12,-8,20,-28,-40,-18,37,47,37
4,21,17,-13,-7,19,-29,-40,-18,39,49,39
5,22,17,-14,-6,19,-29,-39,-17,39,50,40
5,23,17,-14,-6,20,-29,-39,-17,40,51,41
4,23,18,-14,-6,21,-29,-40,-17,39,50,41
4,22,18,-13,-7,21,-30,-40,-17,39,48,39
5,22,17,-13,-6,20,-31,-39,-17,40,49,39
6,22,16,-14,-6,19,-32,-39,-16,42,50,39
7,23,16,-15,-5,19,-33,-38,-15,43,51,40
8,25,17,-17,-5,21,-34,-38,-15,44,52,40
8,27,19,-18,-5,23,-35,-38,-16,45,52,41
8,28,20,-19,-5,24,-36,-38,-16,46,52,40
9,29,20,-20,-5,25,-36,-37,-15,46,52,39
9,29,20,-20,-5,25,-35,-35,-13,47,54,39
10,28,19,-20,-5,23,-35,-33,-11,48,55,40
11,27,17,-19,-4,21,-34,-33,-10,48,55,40
11,26,15,-19,-3,20,-34,-32,-9,48,55,40
11,25,15,-19,-2,20,-35,-31,-9,48,57,42
11,25,15,-19,-2,20,-35,-29,-8,50,58,43
11,25,14,-18,-1,20,-35,-28,-8,52,60,45
11,24,13,-18,-1,19,-35,-27,-8,53,60,46
11,23,13,-17,0,18,-35,-26,-7,54,60,46
11,23,13,-17,-1,18,-34,-25,-6,54,59,45
10,24,14,-17,-2,18,-34,-23,-5,53,58,44
10,24,15,-17,-2,19,-33,-22,-3,52,57,43
10,25,15,-17,-2,19,-33,-21,-1,51,55,42
10,24,13,-17,-1,19,-32,-19,0,50,54,41
11,23,12,-17,0,17,-31,-18,1,50,54,41
11,21,10,-17,0,15,-30,-16,2,50,54,40
11,19,8,-16,1,13,-29,-14,3,48,53,38
11,19,7,-16,2,12,-29,-13,4,46,51,37
12,19,7,-17,3,12,-28,-12,4,47,50,36
12,19,7,-17,3,13,-27,-12,5,48,49,35
12,20,7,-17,3,13,-28,-12,5,49,48,34
12,20,8,-17,2,14,-28,-12,5,49,46,32
11,20,9,-16,1,15,-27,-12,6,48,45,31
9,19,10,-14,0,15,-26,-11,6,47,43,30
9,18,9,-14,0,14,-24,-9,8,44,42,29
9,17,8,-14,0,13,-21,-6,10,40,41,28
10,16,5,-13,2,11,-18,-3,12,38,40,27
10,13,3,-12,3,8,-16,-1,13,36,40,27
10,11,1,-11,4,6,-16,0,14,36,39,27
10,11,0,-11,4,5,-16,0,13,37,38,26
9,11,1,-11,4,6,-15,0,12,38,38,26
9,12,3,-11,2,8,-15,0,12,39,37,24
8,14,6,-11,1,10,-16,0,11,39,36,22
7,14,7,-11,0,11,-16,0,11,37,35,20
6,14,8,-10,-1,11,-15,0,12,35,33,19
6,12,7,-9,0,10,-15,1,12,33,32,18
6,11,5,-9,0,7,-15,2,13,31,32,18
6,9,3,-8,1,5,-14,3,13,31,31,18
6,8,2,-8,2,4,-12,4,14,31,30,19
7,8,1,-9,3,4,-11,4,14,31,29,19
8,8,1,-9,3,5,-11,4,14,30,27,18
8,8,1,-8,3,5,-10,4,14,27,24,16
8,7,0,-8,4,3,-8,5,14,25,22,14
8,6,-1,-8,5,2,-7,6,15,23,21,13
7,6,0,-7,4,2,-6,7,15,22,20,13
4,6,1,-6,2,3,-5,8,15,22,21,13
3,5,1,-6,1,3,-6,8,14,23,21,13
3,5,0,-5,2,2,-7,8,14,23,22,14
5,4,-2,-5,4,0,-8,8,13,24,22,14
6,3,-4,-5,6,-1,-7,8,13,23,22,14
7,2,-5,-4,6,-2,-6,8,13,23,21,14
6,1,-6,-3,6,-2,-6,9,13,23,21,13
6,0,-6,-3,6,-3,-4,10,13,24,21,13
6,0,-5,-3,6,-3,-3,10,12,23,20,12
5,1,-4,-4,5,-2,-3,9,11,21,17,11
5,2,-2,-4,4,0,-4,9,10,17,15,9
5,3,-2,-4,3,0,-4,9,10,14,13,7
5,4,-1,-4,3,0,-4,9,10,13,11,6
4,4,-1,-4,2,1,-4,9,10,13,11,5
5,4,-2,-4,3,1,-4,9,10,14,11,6
6,4,-3,-5,4,0,-3,10,10,15,12,8
6,2,-4,-4,5,-1,-3,11,11,14,11,8
5,0,-5,-3,5,-3,-2,11,11,12,9,7
4,-2,-6,-2,5,-4,-1,12,11,10,8,5
4,-3,-7,-1,6,-5,0,12,11,8,7,4
5,-3,-8,-1,6,-6,0,13,11,8,7,3
5,-3,-8,-1,7,-6,0,13,10,9,8,3
5,-3,-8,-1,7,-6,0,12,9,11,9,5
4,-3,-8,-1,6,-5,-1,12,9,13,10,6
3,-3,-7,0,5,-5,-1,11,8,13,10,7
3,-2,-6,0,5,-4,0,11,8,13,10,8
3,-1,-5,-1,4,-4,0,12,8,12,10,8
3,-1,-4,-1,4,-3,0,12,8,11,9,8
2,-2,-4,-1,3,-3,1,12,8,10,8,8
2,-3,-5,0,4,-4,2,13,9,8,7,6
3,-3,-6,0,4,-5,3,13,10,6,5,5
3,-4,-7,0,4,-5,4,14,11,5,4,3
2,-5,-7,1,4,-6,5,14,11,5,4,2
0,-7,-8,3,4,-7,5,14,11,5,4,2
0,-10,-10,4,5,-9,5,15,10,6,5,2
0,-11,-11,5,6,-11,5,15,9,7,7,3
0,-10,-11,4,6,-11,5,14,9,8,8,4
1,-9,-10,4,5,-10,4,14,8,8,9,5
1,-8,-9,3,5,-9,4,14,8,8,9,5
1,-7,-8,3,4,-7,4,14,8,8,9,6
1,-5,-7,2,4,-6,4,14,8,8,8,6
2,-5,-7,1,4,-6,5,14,8,7,7,6
2,-6,-8,1,5,-7,6,14,8,5,6,6
2,-7,-10,2,6,-9,7,14,9,3,5,6
2,-10,-12,3,7,-11,9,15,10,1,5,6
1,-12,-13,5,7,-12,9,15,10,2,6,6
0,-12,-12,5,6,-12,8,15,9,4,6,6
0,-10,-10,5,5,-10,7,13,8,5,6,6
0,-9,-9,4,5,-9,6,12,7,6,5,5
0,-9,-9,4,5,-9,5,12,7,5,5,5
0,-9,-10,4,5,-10,5,12,7,4,5,4
0,-10,-10,4,5,-10,6,13,7,3,5,4
-1,-10,-10,5,4,-11,6,13,7,3,6,5
-1,-11,-10,5,4,-11,6,12,7,3,7,5
-1,-11,-10,5,4,-11,6,11,7,3,8,6
-1,-10,-9,5,4,-10,7,10,7,3,8,7
-1,-10,-9,5,4,-10,7,10,6,4,8,8
-1,-10,-9,5,4,-10,7,11,6,5,8,9
-1,-9,-9,5,4,-9,7,12,6,5,8,9
-1,-9,-8,4,3,-9,7,12,6,5,8,9
-1,-8,-7,4,3,-8,6,11,5,5,8,8
-1,-7,-6,3,3,-7,6,10,5,5,8,8
-1,-6,-5,3,2,-6,5,9,4,5,7,7
-1,-5,-4,2,2,-5,5,8,4,5,7,7
-1,-4,-3,2,1,-4,4,7,3,7,8,8
-1,-3,-2,1,0,-2,3,6,3,9,11,9
-1,-2,-1,1,0,-1,3,6,2,12,14,10
-1,-1,0,0,0,0,2,5,2,14,17,12
0,0,1,0,0,0,1,5,3,18,22,15
0,2,1,-1,0,1,0,4,3,23,28,18
1,3,2,-2,0,2,-1,5,5,29,35,22
2,5,3,-4,0,3,-2,5,7,38,45,27
3,7,3,-5,0,5,-3,7,10,50,56,31
4,9,4,-7,0,6,-3,9,14,62,68,36
5,10,5,-8,0,7,-3,12,19,76,81,41
6,12,5,-10,0,8,-4,15,24,92,97,47
8,14,6,-12,1,9,-4,19,28,109,114,55
10,15,5,-13,2,10,-5,23,32,126,132,63
12,16,4,-15,4,10,-5,29,36,140,147,69
15,16,0,-16,7,8,-6,35,40,147,154,70
18,14,-4,-16,11,5,-6,43,43,144,148,65
20,10,-10,-15,15,0,-5,52,45,131,130,53
21,5,-16,-13,19,-5,-3,62,47,115,108,39
21,0,-22,-11,22,-11,0,72,50,97,83,23
21,-7,-28,-8,24,-17,4,83,53,76,55,4
20,-13,-33,-4,26,-23,9,93,55,53,25,-15
18,-19,-37,0,27,-28,14,102,57,28,-5,-32
16,-24,-40,3,28,-32,18,109,59,6,-32,-47
14,-28,-42,7,28,-34,22,116,61,-14,-55,-60
12,-31,-43,9,28,-37,26,120,61,-33,-76,-70
10,-34,-44,12,28,-39,28,122,60,-52,-94,-79
9,-37,-47,14,28,-42,30,124,57,-69,-110,-87
8,-42,-50,16,28,-46,33,126,54,-86,-124,-96
7,-46,-53,19,29,-50,36,129,51,-101,-138,-105
5,-50,-55,22,29,-53,39,131,47,-115,-150,-112
3,-54,-56,25,28,-55,42,132,44,-126,-159,-118
0,-56,-56,28,28,-56,45,133,42,-134,-166,-122
-2,-57,-55,29,27,-56,47,132,41,-141,-172,-125
-4,-57,-53,31,25,-55,50,131,41,-147,-177,-127
-6,-58,-52,32,23,-55,52,130,41,-151,-180,-129
-8,-58,-50,33,21,-55,55,129,41,-154,-182,-129
-11,-59,-47,34,18,-54,58,127,41,-156,-182,-128
-14,-59,-44,36,14,-52,62,126,41,-156,-181,-127
-17,-59,-41,38,11,-50,66,125,42,-155,-179,-125
-20,-58,-37,39,8,-48,70,123,42,-153,-175,-123
-23,-56,-33,39,5,-45,73,119,41,-152,-171,-120
-26,-55,-29,40,2,-42,76,112,38,-151,-167,-116
-30,-55,-25,41,-1,-40,80,105,35,-148,-162,-111
-33,-54,-20,42,-6,-37,83,98,32,-144,-155,-106
-37,-51,-14,43,-11,-33,86,91,29,-138,-147,-100
-39,-48,-8,43,-16,-28,87,82,24,-131,-138,-93
-40,-44,-3,42,-19,-24,85,70,17,-125,-129,-86
-40,-40,1,40,-21,-19,82,57,9,-119,-120,-79
-41,-36,5,39,-23,-15,79,45,2,-113,-112,-72
-41,-34,7,37,-24,-13,76,35,-4,-109,-105,-66
-41,-32,8,35,-24,-11,73,27,-9,-104,-99,-61
-39,-30,9,33,-24,-10,70,20,-12,-99,-93,-57
-38,-28,10,32,-24,-9,67,12,-15,-95,-88,-53
-37,-26,10,31,-24,-8,64,4,-19,-91,-84,-49
-35,-25,10,29,-23,-8,61,-3,-23,-88,-79,-46
-33,-23,10,28,-22,-7,57,-9,-27,-84,-75,-43
-32,-21,11,27,-21,-5,55,-13,-29,-80,-71,-40
-30,-19,11,25,-21,-4,53,-15,-28,-76,-66,-37
-29,-17,12,23,-20,-2,51,-16,-26,-71,-62,-33
-28,-15,13,21,-20,-1,49,-17,-24,-66,-56,-29
-27,-13,13,19,-20,0,47,-17,-22,-61,-51,-26
-25,-11,14,17,-20,1,44,-17,-20,-56,-47,-23
-23,-9,14,15,-19,2,42,-16,-17,-52,-43,-20
-20,-6,15,13,-18,3,40,-17,-14,-48,-39,-17
-19,-4,15,11,-17,5,37,-18,-13,-45,-36,-14
-17,-3,14,10,-16,5,34,-19,-13,-43,-33,-12
-15,-2,12,8,-14,5,30,-19,-15,-42,-31,-11
-14,-2,11,7,-12,4,25,-21,-17,-41,-30,-10
-13,-2,9,7,-11,3,20,-24,-21,-40,-28,-9
-12,-2,9,6,-10,3,16,-28,-26,-39,-27,-8
-11,-1,9,6,-10,3,13,-32,-30,-38,-25,-7
-10,-1,9,5,-10,3,12,-36,-34,-37,-24,-5
-9,0,9,5,-9,4,10,-39,-36,-36,-22,-3
-7,0,8,3,-8,4,8,-41,-37,-34,-19,-1
-6,1,7,2,-6,4,7,-42,-37,-31,-16,0
-5,2,7,0,-5,5,5,-41,-36,-28,-13,2
-3,3,6,-1,-4,5,4,-41,-35,-25,-11,4
-2,3,5,-1,-3,4,2,-41,-34,-22,-9,5
-1,3,5,-2,-3,4,1,-41,-32,-20,-6,7
0,4,4,-2,-2,4,0,-40,-30,-17,-4,8
0,4,4,-2,-2,4,-2,-38,-28,-14,-2,9
1,4,3,-3,-1,3,-5,-35,-25,-12,0,11
1,4,3,-3,-1,3,-7,-33,-23,-9,2,12
1,4,3,-4,0,3,-9,-31,-21,-7,4,13
1,5,3,-4,0,4,-11,-29,-19,-5,6,14
2,5,3,-4,0,4,-12,-27,-17,-3,7,14
2,5,3,-4,0,4,-12,-25,-16,-2,8,15
2,5,3,-4,0,4,-13,-25,-16,-1,8,15
2,5,4,-4,0,4,-13,-25,-16,-1,8,15
2,5,4,-4,0,4,-13,-25,-16,-1,8,15
2,6,4,-4,0,4,-14,-25,-17,-1,8,15
2,6,4,-5,0,4,-14,-25,-17,-2,8,15
3,6,3,-5,0,4,-14,-26,-17,-2,8,15
3,6,3,-5,0,4,-15,-26,-17,-2,9,15
3,7,3,-5,0,5,-15,-26,-17,-1,9,15
3,7,4,-5,0,5,-16,-26,-17,-1,9,15
3,7,4,-5,0,5,-16,-27,-17,-1,9,15
3,7,4,-5,0,6,-16,-27,-17,-1,9,16
3,7,4,-5,0,6,-16,-28,-17,-1,10,16
3,7,4,-5,0,7,-16,-28,-18,0,10,17
3,8,5,-5,-1,7,-16,-29,-18,0,11,17
3,8,5,-6,-1,7,-17,-29,-18,0,11,18
3,8,5,-6,-1,7,-17,-29,-18,1,12,18
3,9,5,-7,-1,7,-17,-30,-18,1,12,19
3,9,6,-7,-1,8,-17,-30,-18,2,13,19
3,10,6,-8,-1,8,-18,-31,-19,2,13,20
3,10,7,-8,-1,8,-18,-31,-19,2,14,20
3,10,7,-8,-1,9,-18,-31,-19,3,15,21
4,11,8,-8,-1,9,-18,-32,-19,4,16,21
4,11,8,-8,-1,10,-19,-33,-19,5,17,22
4,12,8,-8,-1,10,-19,-33,-19,6,18,22
4,12,9,-8,-2,10,-20,-34,-19,6,19,23
4,13,9,-9,-2,11,-20,-34,-20,7,20,23
4,13,10,-9,-3,11,-20,-35,-20,8,21,24
4,14,10,-9,-3,12,-21,-36,-21,9,22,25
4,14,10,-9,-3,12,-21,-36,-21,10,23,26
4,15,11,-10,-3,13,-22,-37,-21,11,25,28
4,15,11,-10,-3,13,-22,-37,-21,13,26,29
4,16,12,-11,-3,14,-23,-38,-21,15,28,30
4,17,13,-11,-4,15,-23,-40,-21,17,30,31
4,18,13,-12,-4,15,-24,-40,-21,18,32,33
4,18,14,-12,-5,16,-24,-41,-22,20,34,34
4,19,14,-13,-5,17,-25,-41,-22,21,35,36
5,19,15,-13,-5,17,-26,-42,-22,23,37,37
5,20,15,-14,-5,18,-27,-43,-22,25,39,38
5,21,16,-14,-5,19,-28,-43,-22,27,41,39
6,22,16,-15,-5,19,-29,-44,-22,29,43,40
6,23,17,-16,-5,20,-30,-44,-22,31,45,42
7,24,17,-16,-5,21,-30,-45,-22,32,47,43
7,25,18,-17,-6,22,-31,-46,-21,34,49,45
7,26,19,-17,-6,23,-32,-47,-21,35,50,47
7,26,20,-18,-7,23,-32,-47,-21,37,52,49
7,27,21,-18,-7,24,-33,-46,-21,39,54,50
7,28,21,-19,-7,24,-34,-47,-21,41,55,51
7,29,22,-19,-7,25,-35,-47,-20,43,57,52
8,30,22,-20,-7,26,-36,-48,-20,44,58,52
8,31,22,-20,-7,26,-37,-48,-20,46,60,53
9,32,22,-21,-7,27,-37,-48,-21,47,62,54
9,32,23,-21,-7,27,-38,-48,-21,48,63,55
10,33,23,-22,-7,28,-39,-48,-20,49,64,56
10,33,23,-22,-6,28,-39,-48,-20,50,66,57
10,33,23,-23,-6,28,-40,-48,-19,51,67,58
11,34,23,-23,-6,29,-40,-48,-19,53,67,59
11,34,23,-24,-6,29,-41,-47,-18,54,68,60
12,35,23,-24,-5,29,-41,-47,-18,55,69,60
12,35,23,-25,-5,29,-42,-47,-17,55,70,61
12,36,23,-25,-5,29,-42,-46,-17,56,71,61
13,36,23,-26,-4,29,-42,-46,-16,56,71,61
13,36,23,-26,-4,29,-42,-45,-15,57,72,61
14,37,22,-26,-3,29,-42,-44,-14,58,72,61
14,37,22,-26,-3,30,-42,-43,-13,59,72,60
14,37,22,-27,-3,30,-42,-42,-12,60,73,60
14,37,22,-27,-3,30,-42,-41,-11,60,73,61
14,37,22,-26,-3,30,-42,-40,-11,61,74,61
14,37,22,-26,-3,30,-42,-38,-10,61,74,61
14,37,22,-26,-3,29,-41,-37,-9,61,74,60
14,36,21,-26,-3,29,-41,-35,-8,61,74,60
14,36,21,-26,-3,29,-41,-34,-6,61,74,60
14,36,21,-26,-3,29,-40,-33,-5,61,73,59
14,36,21,-25,-3,29,-40,-32,-4,61,73,59
15,35,21,-25,-2,28,-39,-30,-3,61,72,58
15,35,20,-26,-2,28,-38,-29,-2,61,71,57
16,35,19,-26,-1,27,-38,-28,-1,61,70,55
16,35,19,-25,-1,27,-37,-27,0,60,69,54
16,35,19,-25,-1,27,-36,-25,1,60,68,54
16,35,18,-25,-1,27,-35,-23,2,59,67,53
16,34,18,-25,-1,27,-34,-22,4,59,66,52
16,34,18,-25,-1,26,-33,-22,5,58,64,51
16,33,18,-25,-1,26,-32,-21,6,57,63,49
16,33,17,-24,-1,25,-31,-20,7,57,62,48
15,32,17,-24,-1,25,-30,-19,7,56,61,46
15,31,16,-23,-1,24,-29,-17,8,55,60,44
14,30,16,-23,-1,24,-28,-15,9,54,59,43
14,30,15,-22,-1,23,-27,-13,10,53,58,43
14,29,15,-22,-1,22,-26,-12,11,52,57,42
14,29,15,-21,-1,22,-25,-11,12,51,55,42
14,28,14,-21,-1,21,-23,-9,12,50,54,41
14,27,14,-21,-1,21,-22,-8,13,49,52,40
13,27,14,-21,-1,20,-21,-8,14,48,50,39
13,26,14,-20,0,20,-20,-8,14,46,48,37
12,26,13,-20,0,20,-19,-7,15,44,46,36
12,25,13,-19,0,19,-18,-6,15,43,45,35
12,24,12,-19,0,18,-17,-6,16,42,44,34
12,24,11,-19,0,17,-16,-5,16,42,43,33
12,23,11,-19,1,17,-15,-5,16,41,42,31
12,23,10,-19,1,16,-14,-4,16,40,41,29
12,22,10,-18,2,16,-14,-4,16,39,40,28
12,22,9,-18,2,15,-13,-3,16,38,39,28
12,21,8,-17,2,15,-12,-2,16,37,38,27
12,20,8,-16,2,14,-12,-1,16,36,37,26
12,19,7,-16,2,14,-11,-1,17,35,36,25
12,19,7,-16,3,13,-11,-1,16,35,35,25
12,18,6,-16,3,13,-11,-1,16,34,34,24
12,18,6,-16,3,12,-11,-1,16,32,33,23
12,17,6,-16,3,12,-10,-1,16,31,32,22
12,17,5,-15,3,11,-10,0,16,30,31,21
12,16,5,-14,3,11,-9,0,16,29,30,20
12,16,4,-14,4,10,-9,0,15,27,29,19
12,15,3,-14,4,9,-9,0,15,26,27,18
12,15,2,-14,4,8,-8,0,14,25,26,17
12,14,2,-14,5,8,-8,0,14,24,25,17
12,13,1,-14,5,7,-8,1,13,23,24,16
12,13,0,-13,5,7,-8,1,13,22,24,16
12,12,0,-13,5,6,-7,1,13,22,23,15
12,11,0,-12,6,6,-7,1,13,21,22,15
12,11,0,-12,6,6,-6,2,12,20,22,14
12,11,-1,-12,6,5,-6,2,12,19,21,13
12,10,-1,-11,6,5,-6,2,11,18,20,12
12,10,-2,-11,6,4,-6,2,11,17,20,12
12,9,-2,-11,6,4,-5,2,11,17,19,12
12,9,-2,-11,6,4,-5,2,10,16,19,12
12,8,-3,-11,7,3,-5,2,10,15,18,11
11,8,-3,-10,7,3,-5,2,10,14,17,11
11,7,-4,-10,7,2,-5,2,9,13,16,11
11,7,-4,-10,8,2,-5,2,9,12,16,11
11,6,-4,-9,8,2,-5,3,9,11,15,11
11,6,-4,-9,8,1,-5,3,9,10,15,10
11,5,-5,-9,8,0,-5,4,9,9,13,9
11,5,-5,-9,8,0,-5,4,8,8,11,8
11,4,-5,-8,8,0,-5,4,8,7,9,8
11,4,-5,-8,8,0,-5,4,7,6,8,7
10,3,-6,-7,8,0,-4,4,7,6,7,7
10,3,-6,-7,8,-1,-4,4,7,6,7,7
9,2,-6,-7,8,-1,-3,4,7,6,8,7
9,2,-6,-7,7,-1,-3,4,7,6,9,6
9,1,-7,-6,7,-2,-3,4,7,6,9,6
9,1,-7,-6,7,-2,-2,4,7,6,9,6
9,1,-7,-6,8,-2,-2,4,6,5,9,6
9,1,-7,-6,8,-2,-2,4,6,5,9,5
8,1,-7,-6,8,-2,-2,4,5,4,8,4
8,1,-7,-5,7,-2,-2,4,5,3,7,3
7,0,-7,-5,7,-2,-2,3,5,2,6,3
7,0,-7,-5,7,-2,-2,3,5,1,5,2
7,0,-6,-4,7,-2,-1,3,4,1,4,2
7,0,-6,-4,7,-2,-1,3,4,0,4,2
7,0,-6,-4,7,-2,-1,2,4,0,4,2
7,0,-6,-4,7,-2,-1,2,3,0,4,2
6,0,-6,-3,6,-2,-1,3,3,0,4,2
6,0,-6,-3,6,-2,-1,2,3,0,4,3
6,0,-6,-3,6,-2,0,2,3,0,3,2
6,-1,-7,-3,6,-3,0,1,3,-1,3,2
6,-1,-7,-3,6,-3,0,1,2,-2,2,2
5,-2,-7,-2,6,-4,0,1,2,-2,2,2
5,-2,-7,-2,6,-4,0,0,3,-2,2,2
5,-2,-7,-2,6,-4,0,0,3,-2,2,2
5,-2,-7,-2,6,-4,0,0,2,-2,2,1
5,-2,-7,-1,6,-4,0,0,2,-2,2,1
5,-3,-7,-1,6,-5,0,0,2,-2,1,1
5,-3,-8,-1,6,-5,0,0,2,-2,0,1
5,-3,-8,-1,6,-5,0,0,2,-3,0,1
5,-3,-8,-1,6,-5,0,0,2,-3,0,0
5,-3,-8,-1,6,-5,0,0,2,-3,0,0
5,-3,-8,-1,6,-5,0,0,2,-3,0,1
5,-2,-7,-1,5,-5,0,0,2,-3,0,1
4,-2,-7,-1,5,-4,0,-1,2,-3,0,1
4,-3,-7,-1,5,-4,0,-2,1,-3,-1,0
4,-3,-7,0,5,-5,0,-2,1,-3,-1,-1
4,-3,-7,0,5,-5,0,-1,1,-3,-1,-1
4,-3,-7,0,5,-5,0,-1,1,-3,-1,-1
4,-3,-7,0,6,-5,0,-2,1,-3,-1,-1
4,-3,-7,0,6,-5,0,-2,1,-3,-1,0
4,-3,-7,0,5,-5,0,-3,1,-2,-1,0
4,-3,-7,0,5,-4,0,-4,1,-2,0,0
4,-2,-6,0,4,-4,-1,-3,1,0,2,1
4,-2,-6,-1,4,-4,-1,-2,2,1,5,4
5,-1,-6,-1,4,-3,-1,-2,2,5,10,7
5,0,-5,-2,4,-2,-1,-2,2,9,14,9
5,0,-4,-2,4,-1,-2,-2,3,14,19,11
5,1,-3,-3,4,0,-2,-2,5,21,25,14
6,2,-3,-4,4,0,-2,-1,8,30,34,17
7,4,-2,-5,4,1,-3,0,11,41,46,22
7,5,-2,-6,4,1,-3,1,15,53,58,27
8,6,-2,-7,4,2,-3,5,20,67,71,31
8,7,-1,-8,4,3,-3,10,26,84,85,36
10,9,-1,-9,5,4,-3,15,31,101,101,42
13,11,-1,-12,6,5,-3,20,37,119,118,50
15,13,-1,-14,8,6,-3,26,43,134,133,56
17,14,-3,-15,10,6,-4,33,47,143,143,58
20,12,-7,-16,13,3,-4,41,49,141,141,56
21,9,-12,-15,17,-1,-3,50,50,129,128,48
23,4,-19,-14,20,-7,-2,58,50,112,107,37
24,0,-25,-12,24,-12,0,68,51,92,84,24
24,-6,-31,-10,27,-18,2,78,53,71,57,10
23,-11,-35,-7,29,-23,6,88,54,47,27,-7
22,-17,-39,-3,30,-27,10,97,55,22,-3,-24
20,-22,-41,0,30,-31,15,105,55,-1,-33,-39
18,-26,-43,4,30,-34,19,112,56,-22,-58,-52
15,-30,-45,7,30,-37,23,118,57,-41,-78,-62
13,-33,-47,10,30,-39,26,122,56,-59,-95,-71
12,-37,-49,12,30,-42,29,124,53,-77,-111,-79
10,-41,-51,15,30,-45,31,125,49,-94,-127,-88
8,-45,-54,18,30,-48,34,127,45,-109,-142,-97
6,-49,-55,20,30,-51,36,128,40,-123,-155,-106
5,-52,-56,23,30,-54,39,130,37,-134,-166,-113
4,-54,-57,25,30,-55,41,130,35,-142,-175,-118
2,-55,-57,26,30,-56,43,129,32,-149,-181,-123
-1,-57,-56,28,28,-56,45,127,30,-155,-187,-127
-4,-58,-55,30,25,-56,49,124,29,-159,-191,-131
-6,-58,-53,32,23,-55,52,122,28,-161,-192,-132
-8,-58,-50,33,20,-54,55,120,28,-162,-192,-132
-10,-59,-48,34,18,-53,58,118,27,-162,-192,-131
-12,-59,-46,35,16,-52,61,116,27,-162,-190,-129
-15,-59,-42,37,13,-50,65,114,27,-161,-187,-127
-19,-59,-38,39,9,-48,68,110,25,-159,-183,-124
-23,-58,-34,41,5,-46,71,104,22,-157,-178,-120
-27,-58,-30,42,1,-44,74,96,18,-155,-172,-118
-32,-57,-25,44,-4,-41,78,89,15,-151,-166,-114
-36,-56,-20,45,-9,-38,81,81,12,-146,-160,-110
-40,-54,-14,46,-13,-34,83,72,8,-140,-153,-105
-41,-50,-8,45,-17,-29,82,60,2,-133,-146,-99
-42,-46,-2,44,-20,-24,79,47,-3,-125,-137,-93
-43,-43,2,43,-23,-20,76,35,-10,-119,-129,-87
-44,-40,5,42,-24,-17,73,23,-16,-113,-121,-80
-44,-38,6,41,-25,-15,70,14,-21,-108,-113,-75
-43,-36,7,39,-26,-14,67,7,-24,-104,-106,-69
-43,-34,7,38,-26,-13,64,-1,-26,-101,-101,-66
-41,-33,8,36,-25,-12,61,-8,-29,-98,-98,-64
-40,-31,8,35,-24,-12,58,-15,-33,-95,-95,-61
-38,-30,8,33,-23,-11,54,-21,-36,-91,-93,-59
-36,-29,7,32,-22,-11,52,-24,-37,-86,-90,-56
-34,-28,7,31,-21,-10,51,-26,-35,-81,-84,-52
-33,-26,7,30,-20,-9,50,-26,-32,-75,-78,-48
-32,-25,7,28,-19,-9,48,-26,-30,-70,-71,-44
-31,-23,7,26,-19,-8,46,-26,-29,-66,-64,-41
-29,-21,7,24,-19,-7,45,-25,-26,-62,-60,-38
-27,-20,7,22,-18,-6,45,-23,-21,-58,-58,-36
-25,-18,8,21,-18,-5,44,-22,-17,-54,-56,-34
-24,-17,8,20,-17,-4,43,-21,-15,-50,-53,-32
-23,-16,8,19,-16,-3,42,-21,-15,-48,-50,-31
-22,-15,7,19,-15,-3,39,-21,-17,-48,-49,-29
-21,-15,6,18,-13,-4,35,-24,-20,-47,-47,-27
-21,-15,5,18,-13,-4,30,-29,-24,-47,-45,-25
-19,-15,3,17,-12,-5,26,-34,-29,-46,-44,-25
-18,-15,2,16,-11,-6,23,-38,-33,-45,-43,-25
-17,-15,2,15,-10,-6,21,-41,-35,-43,-41,-24
-16,-15,1,15,-10,-6,19,-44,-37,-41,-39,-23
-14,-14,1,14,-9,-6,16,-46,-39,-40,-37,-23
-13,-14,0,14,-7,-7,13,-48,-40,-39,-35,-22
-12,-13,-2,12,-5,-7,11,-50,-40,-38,-33,-20
-10,-12,-2,10,-4,-7,8,-51,-39,-37,-31,-18
-8,-10,-3,8,-2,-6,5,-53,-39,-35,-30,-17
-6,-10,-4,7,-1,-7,3,-54,-38,-33,-28,-15
-4,-9,-5,6,0,-7,0,-54,-36,-29,-26,-14
-2,-9,-6,5,1,-8,-3,-51,-34,-25,-24,-13
0,-8,-6,4,3,-7,-7,-47,-32,-21,-21,-10
1,-6,-7,3,4,-7,-9,-43,-28,-16,-17,-7
2,-5,-7,2,4,-6,-10,-40,-26,-12,-12,-4
3,-3,-7,0,5,-5,-11,-37,-24,-10,-8,-1
3,-2,-7,0,5,-4,-12,-35,-22,-9,-6,0
4,-1,-7,-2,6,-4,-13,-35,-22,-9,-6,0
6,0,-7,-3,6,-3,-14,-35,-21,-8,-7,0
7,1,-6,-4,6,-2,-14,-35,-21,-7,-6,0
7,2,-5,-5,6,-1,-14,-34,-20,-6,-4,1
7,4,-4,-6,6,0,-14,-33,-20,-5,-2,1
7,4,-3,-6,5,1,-14,-32,-19,-4,0,2
6,4,-2,-5,5,1,-14,-32,-18,-3,1,2
6,5,-1,-5,4,2,-14,-31,-18,-3,1,2
5,5,0,-5,3,2,-14,-31,-18,-2,0,2
4,5,1,-5,1,3,-14,-31,-18,-2,-2,2
3,5,2,-5,0,3,-14,-30,-17,-1,-3,2
2,5,3,-4,-1,4,-13,-29,-17,-1,-2,3
2,5,4,-3,-1,4,-12,-29,-17,-1,-1,5
1,5,4,-3,-1,4,-12,-29,-17,0,0,6
0,5,4,-2,-2,5,-12,-29,-17,1,1,6
0,5,5,-2,-2,5,-12,-30,-17,2,0,5
0,5,5,-3,-3,5,-13,-30,-17,1,0,5
0,5,5,-3,-3,5,-13,-30,-17,1,2,5
0,5,6,-3,-3,5,-13,-31,-17,1,4,6
0,5,6,-2,-3,5,-13,-33,-17,1,5,6
-1,5,7,-2,-4,6,-14,-33,-18,2,5,6
-1,5,7,-2,-4,6,-14,-33,-18,2,5,5
-2,5,7,-2,-4,6,-14,-33,-19,1,4,5
-2,6,7,-2,-4,6,-14,-34,-19,1,4,7
-2,6,7,-2,-4,7,-14,-35,-19,2,5,9
-2,7,8,-2,-5,7,-15,-35,-18,3,7,11
-2,7,8,-2,-5,8,-15,-35,-19,3,7,12
-2,7,9,-2,-6,8,-15,-35,-19,5,8,12
-1,8,9,-3,-6,9,-16,-36,-19,6,9,13
-1,9,10,-3,-6,10,-17,-38,-19,8,10,12
-1,9,10,-3,-6,10,-18,-38,-20,9,12,12
-2,9,10,-3,-6,10,-18,-39,-20,10,14,13
-1,10,10,-4,-6,10,-19,-39,-20,12,16,14
0,10,10,-5,-5,10,-19,-40,-20,14,18,17
0,11,11,-5,-6,11,-19,-41,-20,15,20,19
1,11,11,-6,-6,11,-19,-41,-21,16,22,19
1,12,11,-6,-6,11,-20,-40,-21,17,23,19
1,12,11,-6,-5,11,-21,-41,-21,19,24,20
1,12,11,-6,-5,12,-22,-41,-20,21,25,22
0,14,13,-7,-6,14,-23,-42,-20,23,27,23
0,15,15,-7,-7,15,-24,-42,-20,25,30,25
0,16,16,-8,-8,16,-25,-43,-20,27,32,26
1,17,16,-9,-8,16,-25,-43,-20,29,35,27
2,17,16,-9,-7,16,-25,-44,-19,30,38,28
2,18,16,-10,-7,17,-26,-45,-19,32,40,29
2,18,16,-10,-7,17,-27,-45,-18,33,41,31
3,19,16,-11,-7,18,-28,-46,-18,35,43,33
3,20,16,-12,-7,19,-28,-46,-18,37,44,35
3,21,17,-12,-7,19,-29,-46,-18,39,46,37
3,21,17,-13,-7,20,-30,-46,-18,40,47,38
4,22,18,-13,-7,20,-31,-46,-18,41,49,40
4,22,19,-13,-8,21,-32,-46,-18,41,50,40
4,23,19,-14,-7,21,-33,-46,-18,42,50,39
5,24,19,-15,-7,22,-33,-46,-18,43,49,40
5,26,20,-15,-7,23,-34,-46,-17,45,48,41
6,27,20,-16,-7,23,-34,-46,-16,49,50,43
6,27,21,-17,-7,24,-34,-46,-15,51,53,44
6,28,21,-17,-7,24,-35,-45,-14,53,56,46
6,27,20,-17,-7,24,-36,-45,-14,54,59,47
7,27,20,-17,-6,24,-37,-44,-14,55,62,48
8,28,20,-17,-6,24,-38,-44,-13,54,64,49
8,28,20,-18,-6,24,-38,-44,-13,54,64,49
9,28,19,-18,-6,24,-39,-43,-13,53,63,49
9,28,18,-18,-5,24,-39,-42,-12,54,62,49
9,28,18,-19,-5,23,-39,-41,-11,55,62,48
10,29,18,-20,-4,23,-39,-40,-10,56,63,48
11,29,17,-20,-3,23,-39,-39,-9,58,64,48
12,28,16,-20,-3,22,-39,-38,-8,59,65,49
12,28,16,-20,-2,22,-39,-37,-7,59,65,49
12,28,16,-20,-1,22,-39,-36,-7,59,65,48
12,28,15,-20,-1,22,-39,-34,-6,59,65,48
12,28,15,-20,-1,22,-39,-33,-5,60,65,47
11,27,15,-19,-2,21,-38,-32,-4,59,65,47
11,27,15,-19,-2,21,-37,-31,-4,58,64,47
12,27,14,-19,-1,21,-37,-29,-3,57,62,45
13,26,13,-20,-1,20,-36,-28,-2,55,61,44
13,26,13,-20,-1,19,-36,-28,-2,54,59,44
13,26,13,-20,-1,19,-36,-27,-1,55,58,42
12,25,13,-19,-1,19,-35,-25,0,56,58,40
11,25,13,-18,-1,19,-33,-22,2,57,59,40
12,24,12,-18,0,18,-32,-21,3,56,59,40
12,24,11,-18,0,18,-32,-19,4,56,58,40
12,23,11,-18,0,18,-31,-18,5,55,57,39
12,23,11,-18,0,18,-30,-17,5,54,56,38
11,22,11,-17,0,17,-28,-15,6,53,55,37
11,22,11,-17,0,17,-27,-13,7,52,54,36
11,21,10,-17,0,16,-26,-12,8,50,52,33
11,21,9,-16,0,15,-26,-13,9,48,49,32
11,20,8,-16,1,14,-25,-13,9,47,47,31
11,19,8,-15,1,14,-24,-13,9,46,45,30
11,19,8,-15,1,13,-24,-11,9,45,44,29
11,18,7,-15,1,13,-23,-10,9,44,42,28
11,18,7,-15,2,13,-22,-9,9,44,40,27
11,17,6,-15,2,12,-21,-8,9,43,40,27
11,17,6,-14,2,12,-19,-7,9,43,40,27
11,16,6,-13,2,11,-17,-6,11,43,40,27
10,16,6,-12,2,11,-16,-5,12,42,40,25
10,16,6,-12,1,11,-16,-4,13,41,39,24
10,15,6,-12,1,11,-15,-4,13,41,37,24
10,15,5,-12,2,10,-15,-3,13,40,36,22
9,14,5,-12,2,10,-15,-2,13,40,35,21
9,14,5,-12,2,9,-14,-1,13,39,35,20
8,13,5,-11,2,9,-12,0,13,38,35,20
8,13,5,-11,2,9,-11,0,13,37,34,20
8,13,4,-11,2,9,-11,1,13,37,33,20
8,12,4,-10,2,8,-10,1,13,36,32,20
7,11,3,-10,2,7,-10,1,14,34,30,20
7,10,2,-9,2,6,-10,2,14,33,29,19
7,9,2,-9,3,6,-9,2,14,31,28,18
7,9,1,-9,3,6,-9,2,14,30,27,16
8,9,1,-8,3,6,-9,3,13,30,25,14
8,9,1,-8,3,6,-9,3,13,28,24,13
9,9,0,-8,4,5,-8,4,13,27,22,12
9,8,0,-8,4,5,-8,4,13,26,21,11
9,8,0,-8,4,4,-7,5,13,26,20,10
8,8,0,-8,4,4,-7,5,14,25,19,9
8,8,0,-8,4,4,-6,5,14,24,19,9
7,7,0,-7,4,4,-6,5,13,24,18,9
7,7,0,-7,4,4,-6,5,13,23,17,8
7,7,0,-7,3,3,-5,6,12,21,16,8
7,7,0,-7,3,3,-5,6,12,20,15,8
7,6,-1,-7,4,3,-5,6,11,19,14,7
7,6,-2,-7,4,2,-5,6,11,18,13,6
8,6,-2,-7,5,2,-5,6,10,17,13,5
8,6,-3,-7,5,2,-5,7,10,17,12,5
8,5,-3,-7,5,2,-5,7,10,16,11,5
8,5,-3,-7,5,2,-5,7,10,15,11,4
8,5,-3,-6,5,1,-4,6,10,14,10,4
8,4,-3,-6,5,1,-4,6,10,13,9,3
7,4,-3,-5,5,1,-3,6,9,13,8,2
7,4,-3,-5,4,1,-3,7,9,12,7,2
6,3,-3,-5,4,0,-2,6,9,11,6,1
6,3,-3,-5,4,0,-2,5,8,11,6,1
6,3,-3,-5,4,0,-1,5,8,10,5,0
6,3,-3,-4,4,0,-2,5,7,10,5,0
5,2,-3,-4,4,0,-2,5,6,9,4,0
5,2,-3,-4,4,0,-2,5,6,9,4,-1
5,2,-3,-4,4,0,-2,5,6,8,3,-1
5,2,-2,-3,3,0,-1,5,6,7,2,-2
4,2,-1,-3,2,0,-1,5,5,7,1,-2
3,2,-1,-3,2,0,-1,5,5,6,1,-3
3,2,-1,-3,2,0,-1,5,4,6,0,-3
3,2,-1,-3,2,0,-1,4,3,5,0,-4
3,2,-1,-3,2,0,-1,3,2,5,-1,-4
3,2,-1,-2,2,0,-1,2,2,4,-1,-5
3,2,-1,-2,2,0,-1,2,1,4,-2,-5
3,2,-1,-2,1,0,-1,1,1,3,-2,-7
2,2,0,-2,1,0,-1,1,0,2,-3,-8
2,2,0,-2,1,1,-2,0,0,2,-4,-8
2,2,0,-2,0,1,-2,0,0,1,-5,-9
2,3,1,-3,0,2,-3,-1,-1,0,-6,-10
2,3,1,-3,0,2,-3,-2,-1,0,-7,-11
2,3,1,-3,0,2,-3,-2,-1,-1,-8,-12
2,4,1,-3,0,3,-3,-3,-1,-2,-8,-13
2,4,2,-3,0,3,-4,-4,-1,-2,-9,-14
2,4,2,-3,0,3,-4,-5,-2,-2,-9,-14
2,4,3,-3,0,3,-5,-5,-2,-2,-10,-14
2,5,3,-3,-1,4,-5,-5,-3,-1,-10,-15
2,5,4,-3,-1,4,-6,-5,-4,-2,-11,-16
2,6,4,-3,-1,5,-5,-6,-5,-3,-11,-17
1,6,5,-3,-1,5,-5,-6,-5,-4,-11,-17
1,5,5,-3,-1,5,-4,-7,-5,-5,-11,-17
1,4,4,-3,-1,4,-4,-7,-5,-6,-11,-17
1,4,3,-3,-1,3,-4,-6,-5,-6,-11,-16
1,3,3,-3,-1,3,-4,-6,-5,-6,-11,-16
1,3,2,-2,0,2,-4,-5,-5,-6,-11,-16
1,2,2,-2,0,2,-3,-5,-5,-6,-11,-15
0,1,1,-1,0,1,-2,-5,-4,-6,-11,-14
0,0,0,0,0,0,-1,-5,-4,-6,-11,-13
0,0,0,0,1,0,-1,-5,-4,-5,-10,-11
0,-1,0,0,0,-1,0,-5,-3,-4,-9,-10
0,-1,0,0,0,-1,0,-5,-3,-3,-7,-8
0,-1,0,0,0,-1,0,-5,-3,-2,-5,-7
0,-2,-1,0,0,-2,0,-4,-3,-2,-4,-6
0,-3,-2,1,0,-3,0,-4,-3,-2,-3,-6
0,-3,-2,1,0,-2,0,-4,-3,-3,-4,-6
0,-3,-2,1,0,-2,-1,-5,-3,-4,-7,-7
0,-3,-2,1,0,-2,-1,-6,-3,-5,-9,-9
0,-2,-1,1,0,-2,-1,-6,-3,-5,-10,-10
0,-1,-1,1,0,-1,0,-5,-2,-5,-9,-10
0,0,0,0,0,-1,0,-4,-2,-5,-8,-10
0,-1,-1,1,0,-1,0,-4,-2,-5,-6,-10
-1,-2,-1,1,0,-1,0,-5,-2,-3,-3,-9
-1,-2,0,1,0,-1,0,-5,-1,1,2,-6
-1,-1,0,0,0,0,1,-4,0,8,8,-2
0,0,0,0,0,0,0,-3,1,16,16,3
1,1,0,-2,0,1,0,-2,2,24,24,8
2,4,1,-3,0,2,-1,-1,5,33,34,12
3,5,1,-4,0,3,-1,1,8,44,44,16
4,6,2,-5,1,3,-1,3,13,56,56,20
5,7,1,-6,1,4,-1,8,19,70,67,23
6,8,1,-7,3,4,-1,12,25,84,80,28
8,9,1,-9,4,5,-2,16,31,99,94,34
9,10,1,-10,4,6,-4,21,36,115,109,40
12,12,0,-12,6,6,-5,28,41,129,124,45
15,13,-2,-14,8,5,-5,36,44,137,133,48
18,12,-6,-15,11,3,-5,45,45,134,132,46
19,10,-11,-15,14,0,-4,55,46,120,118,39
21,6,-16,-14,18,-4,-2,65,47,99,97,28
21,1,-21,-12,20,-9,0,75,47,77,72,15
20,-5,-26,-8,23,-15,4,86,49,53,45,1
19,-13,-31,-3,25,-22,9,97,50,28,14,-13
18,-19,-36,0,27,-27,13,106,50,3,-16,-29
17,-24,-40,3,28,-32,16,114,50,-18,-43,-43
15,-26,-42,5,28,-34,19,120,50,-37,-67,-55
13,-28,-42,7,27,-35,21,125,50,-56,-88,-65
11,-31,-42,10,26,-36,24,127,48,-75,-107,-75
8,-34,-43,13,25,-39,27,127,45,-93,-124,-84
5,-39,-44,16,25,-42,30,128,42,-109,-139,-92
3,-44,-47,20,25,-45,33,130,38,-123,-153,-101
2,-49,-50,23,26,-49,36,132,33,-135,-165,-109
0,-52,-52,26,26,-52,39,132,30,-145,-174,-117
-2,-55,-53,28,25,-54,42,132,28,-153,-182,-123
-4,-56,-52,30,23,-54,44,131,26,-160,-187,-128
-6,-56,-50,31,22,-53,46,128,24,-166,-192,-131
-9,-57,-48,32,19,-52,49,125,23,-170,-195,-132
-12,-56,-45,33,17,-51,53,122,23,-171,-195,-133
-14,-56,-42,34,14,-49,56,120,22,-171,-195,-132
-17,-56,-39,36,10,-47,60,117,21,-170,-194,-130
-21,-57,-35,39,6,-46,63,115,21,-168,-191,-128
-25,-57,-31,41,2,-44,67,113,21,-166,-188,-126
-29,-56,-27,42,-1,-42,70,108,19,-165,-185,-124
-32,-55,-23,43,-5,-40,73,100,16,-164,-181,-122
-36,-54,-19,45,-8,-37,77,93,13,-163,-176,-119
-40,-53,-14,46,-13,-34,81,86,11,-159,-169,-115
-43,-52,-8,47,-17,-30,84,79,8,-153,-161,-109
-46,-49,-3,47,-22,-26,86,70,4,-145,-152,-103
-48,-46,2,47,-26,-22,86,60,-1,-138,-143,-97
-49,-44,6,47,-29,-18,84,48,-7,-131,-135,-90
-50,-41,9,46,-30,-16,80,35,-13,-125,-127,-85
-49,-38,11,44,-31,-13,77,23,-18,-120,-120,-81
-50,-36,12,43,-31,-12,74,14,-21,-115,-114,-76
-50,-36,13,43,-32,-11,72,6,-23,-110,-109,-72
-49,-34,14,41,-31,-10,69,-2,-25,-106,-104,-68
-47,-33,14,39,-31,-9,66,-10,-27,-103,-100,-64
-45,-31,14,38,-30,-8,62,-17,-31,-101,-95,-59
-43,-29,14,36,-29,-8,59,-22,-34,-97,-91,-55
-42,-28,14,35,-28,-7,58,-24,-34,-91,-86,-51
-41,-27,14,34,-28,-7,57,-24,-32,-86,-81,-49
-41,-27,13,34,-27,-8,57,-25,-30,-81,-77,-48
-39,-26,11,32,-25,-8,56,-25,-27,-76,-72,-45
-36,-25,10,30,-23,-8,55,-23,-24,-72,-67,-43
-34,-25,8,29,-21,-8,54,-21,-20,-67,-62,-40
-32,-26,6,28,-19,-9,53,-20,-16,-62,-58,-37
-31,-26,5,28,-18,-10,51,-19,-12,-58,-54,-34
-29,-24,5,27,-18,-10,48,-18,-11,-56,-51,-32
-28,-22,6,25,-17,-8,44,-18,-12,-54,-49,-31
-27,-20,6,24,-17,-7,39,-20,-15,-54,-48,-31
-26,-20,5,22,-16,-7,34,-24,-19,-54,-48,-32
-24,-18,5,20,-14,-6,28,-28,-25,-53,-48,-33
-22,-17,5,19,-13,-6,25,-33,-29,-52,-48,-33
-22,-17,5,19,-13,-6,23,-37,-33,-51,-48,-33
-22,-17,5,19,-14,-6,21,-40,-36,-51,-48,-32
-22,-18,4,20,-13,-7,19,-42,-38,-50,-46,-31
-21,-19,2,20,-12,-8,18,-44,-39,-48,-44,-29
-20,-19,0,19,-10,-10,17,-46,-39,-47,-42,-27
-18,-19,-2,18,-8,-10,16,-46,-39,-45,-39,-25
-15,-17,-3,16,-6,-10,13,-47,-39,-43,-38,-24
-13,-16,-3,14,-5,-10,9,-47,-39,-41,-37,-24
-11,-15,-4,12,-3,-9,5,-47,-38,-40,-36,-24
-9,-14,-5,11,-2,-10,3,-44,-35,-38,-34,-23
-6,-15,-8,11,0,-11,1,-40,-31,-35,-31,-22
-4,-15,-11,10,3,-13,-1,-36,-28,-33,-28,-20
-3,-15,-12,9,4,-14,-3,-33,-25,-30,-24,-17
-2,-15,-13,8,6,-14,-4,-31,-23,-27,-20,-14
0,-13,-13,7,6,-13,-4,-29,-21,-23,-16,-11
0,-12,-12,5,6,-12,-5,-27,-20,-19,-12,-8
2,-10,-11,3,6,-10,-5,-26,-19,-17,-10,-6
3,-8,-10,1,7,-9,-6,-26,-19,-16,-10,-4
4,-6,-10,0,7,-8,-6,-26,-18,-16,-10,-3
5,-4,-9,0,7,-7,-5,-26,-18,-17,-10,-3
6,-2,-9,-1,7,-6,-4,-27,-18,-17,-11,-3
7,-1,-9,-2,8,-5,-4,-27,-18,-16,-11,-3
7,0,-8,-3,7,-4,-4,-27,-18,-16,-11,-3
6,1,-6,-3,6,-2,-4,-27,-18,-14,-11,-2
6,2,-3,-4,5,0,-4,-27,-18,-13,-11,-2
4,2,-1,-3,3,1,-3,-28,-18,-12,-11,-3
2,2,1,-2,0,2,-2,-28,-17,-12,-11,-4
0,2,3,-1,-2,3,-1,-26,-15,-12,-10,-4
-2,3,5,0,-4,4,0,-24,-13,-11,-9,-3
-4,3,7,0,-5,5,-1,-24,-12,-9,-7,-3
-5,4,8,0,-7,6,-2,-25,-12,-8,-6,-2
-5,5,10,0,-7,8,-2,-26,-12,-8,-5,-1
-4,6,11,0,-7,8,-2,-26,-11,-7,-4,0
-4,5,9,0,-6,7,-2,-25,-12,-7,-3,1
-3,4,8,-1,-6,6,-3,-25,-13,-7,-2,3
-3,5,8,-1,-6,6,-5,-24,-13,-6,-1,5
-3,5,8,-1,-5,6,-7,-25,-14,-5,0,6
-3,4,7,-1,-5,5,-9,-26,-15,-5,0,6
-4,3,7,0,-6,5,-9,-26,-15,-5,0,6
-5,3,8,0,-7,5,-8,-26,-14,-4,1,6
-5,5,10,0,-8,7,-9,-26,-15,-4,1,7
-5,7,12,-1,-8,9,-10,-26,-16,-3,1,7
-5,9,13,-2,-9,11,-12,-28,-17,-3,0,6
-5,10,14,-2,-9,12,-12,-29,-18,-3,0,6
-5,10,14,-2,-9,12,-12,-30,-18,-3,1,6
-5,9,13,-2,-9,11,-11,-31,-18,-3,2,7
-5,8,12,-1,-8,10,-11,-30,-18,-2,5,9
-5,8,12,-1,-8,10,-11,-30,-17,1,8,11
-4,8,12,-1,-8,10,-12,-30,-17,3,10,13
-4,8,12,-2,-8,10,-12,-32,-18,6,12,15
-4,8,12,-2,-8,10,-13,-33,-18,8,14,17
-4,9,13,-2,-8,11,-13,-34,-19,10,16,18
-3,12,15,-4,-8,13,-15,-35,-19,13,17,18
-1,16,17,-7,-9,16,-17,-35,-20,15,18,18
-1,19,20,-9,-10,19,-18,-36,-21,15,19,18
-1,19,20,-9,-10,19,-19,-36,-20,15,20,18
-1,19,20,-9,-10,19,-19,-36,-20,16,22,20
-1,18,19,-9,-10,19,-19,-37,-19,18,25,22
-1,16,18,-8,-10,17,-19,-37,-19,19,27,24
-1,14,16,-6,-9,15,-21,-38,-20,20,29,25
-1,12,14,-5,-8,14,-22,-38,-20,21,30,27
0,13,14,-6,-7,14,-22,-37,-18,24,33,29
1,16,14,-8,-7,15,-22,-36,-17,29,37,33
2,18,15,-10,-6,16,-24,-37,-18,33,40,36
3,19,15,-11,-6,17,-27,-39,-19,35,41,38
3,21,17,-12,-7,19,-28,-41,-21,36,42,38
3,23,20,-13,-9,21,-29,-42,-22,38,44,38
3,25,22,-14,-10,23,-30,-42,-21,39,45,39
3,26,24,-14,-10,25,-32,-41,-21,40,46,39
3,28,25,-15,-11,26,-33,-41,-20,40,46,39
4,29,25,-16,-10,27,-34,-41,-20,40,46,39
5,30,23,-17,-9,27,-34,-41,-20,41,46,40
6,28,21,-17,-8,24,-34,-41,-19,42,48,40
7,27,19,-17,-7,22,-33,-40,-18,44,51,42
8,26,18,-17,-6,21,-33,-39,-17,48,54,44
9,26,18,-18,-5,21,-34,-38,-16,51,56,46
10,27,18,-19,-4,22,-35,-37,-16,52,57,47
10,28,18,-19,-4,23,-36,-37,-16,52,56,47
9,29,19,-19,-5,24,-37,-38,-14,51,56,47
8,30,20,-19,-6,25,-36,-37,-13,50,56,47
9,30,20,-19,-5,24,-36,-36,-12,50,56,47
9,29,18,-19,-4,23,-37,-34,-13,50,56,46
9,27,18,-18,-4,22,-37,-33,-13,50,56,46
8,26,18,-18,-5,22,-38,-32,-13,52,57,45
7,27,19,-18,-5,22,-38,-31,-12,54,58,45
9,27,18,-18,-4,22,-37,-30,-11,55,58,46
10,27,17,-19,-3,22,-37,-29,-10,56,59,46
11,27,16,-19,-2,22,-36,-27,-8,58,60,47
11,28,16,-20,-2,22,-36,-25,-7,59,61,48
11,29,17,-20,-2,23,-36,-23,-5,59,61,48
11,30,18,-20,-3,23,-36,-23,-4,58,59,47
12,29,18,-20,-2,23,-35,-22,-4,57,58,45
12,28,16,-20,-2,22,-34,-21,-2,56,57,43
11,26,15,-19,-1,20,-32,-19,0,56,57,42
11,24,12,-18,0,18,-32,-17,1,56,57,42
12,22,10,-18,0,16,-33,-16,1,56,58,43
12,22,9,-17,1,15,-34,-15,1,56,58,43
12,22,9,-18,1,15,-34,-14,1,57,58,44
13,23,9,-18,2,15,-33,-13,1,56,57,43
13,23,10,-18,2,16,-31,-12,3,55,55,42
12,22,10,-17,2,15,-28,-11,5,54,53,41
12,21,9,-17,2,15,-25,-9,7,53,51,39
11,20,9,-16,1,14,-24,-8,8,52,50,37
10,20,10,-16,0,15,-23,-7,8,51,49,36
10,21,11,-16,0,16,-23,-6,9,51,48,34
9,22,11,-16,0,16,-24,-5,9,50,47,33
9,21,11,-15,0,16,-23,-4,10,48,45,31
8,18,9,-13,0,14,-21,-3,11,47,43,29
8,15,7,-12,2,11,-19,-1,13,46,42,29
9,13,4,-11,3,8,-16,1,15,45,42,29
10,12,3,-11,3,7,-15,2,15,45,41,29
9,12,3,-10,2,7,-14,3,15,45,40,28
7,12,4,-10,1,8,-14,4,14,46,40,27
7,13,5,-10,0,9,-14,4,14,47,40,27
6,14,7,-10,0,10,-14,5,15,46,40,27
5,14,7,-9,-1,11,-12,5,15,43,38,26
6,14,7,-9,-1,11,-10,7,16,40,37,25
6,13,6,-9,0,10,-8,9,18,39,36,25
6,12,5,-9,0,8,-7,9,19,38,35,24
6,11,4,-8,0,7,-8,10,19,37,35,23
5,9,3,-8,0,5,-8,11,19,37,34,23
6,8,1,-7,1,4,-7,12,19,37,34,23
7,8,0,-7,3,3,-6,12,18,38,34,24
7,8,0,-7,3,3,-6,12,18,38,33,24
6,7,1,-6,3,3,-5,12,18,37,31,23
5,7,1,-5,2,3,-3,12,18,34,28,21
5,6,1,-5,1,3,-2,13,19,30,25,19
5,5,0,-5,2,2,0,15,20,27,23,16
5,4,-1,-5,3,0,0,16,20,25,23,15
6,2,-4,-4,4,-1,-1,16,20,24,23,15
6,1,-5,-4,5,-2,-2,16,19,24,24,15
6,1,-5,-4,6,-2,-3,16,18,26,26,17
6,2,-4,-4,5,-1,-3,16,17,28,28,18
6,4,-2,-4,4,0,-2,16,17,30,29,19
6,5,0,-5,3,1,-1,17,16,31,29,19
6,6,0,-6,3,2,0,17,16,30,28,18
6,5,0,-5,3,2,1,17,16,28,26,17
5,3,-2,-4,3,0,2,18,17,25,24,15
5,1,-4,-3,4,-1,4,19,17,23,22,14
5,-2,-7,-2,5,-4,6,21,18,21,21,13
5,-5,-10,0,7,-7,7,21,19,19,20,13
5,-7,-12,0,8,-9,6,21,18,18,19,14
5,-7,-12,1,9,-10,5,20,17,18,19,14
5,-5,-10,0,8,-8,3,19,16,19,19,14
5,-3,-8,0,6,-5,2,18,14,19,19,14
5,0,-6,-1,5,-3,2,17,14,18,19,14
5,0,-5,-2,4,-2,3,17,13,17,17,12
4,0,-5,-2,4,-3,4,17,13,15,16,11
4,-1,-6,-1,4,-4,5,18,14,13,14,10
3,-2,-6,0,4,-4,5,17,14,12,13,9
3,-3,-6,0,4,-5,6,17,14,12,13,9
3,-3,-6,0,4,-4,6,17,14,13,13,9
2,-2,-5,0,3,-4,7,18,14,13,13,9
2,-2,-5,0,3,-4,7,19,13,13,12,9
2,-2,-5,0,3,-3,7,19,13,12,12,8
1,-2,-4,0,3,-3,6,18,12,12,12,8
1,-1,-4,0,2,-2,6,18,11,11,11,7
1,-1,-3,0,2,-2,5,17,10,11,11,7
1,0,-2,0,2,-1,5,16,10,11,10,6
1,0,-2,0,2,-1,4,15,9,11,10,5
1,0,-1,0,1,0,4,15,9,11,10,5
1,1,-1,0,1,0,4,15,9,11,9,5
1,1,0,0,0,0,4,14,9,10,9,5
1,1,0,0,0,0,4,13,8,9,8,5
1,1,0,0,0,0,4,13,8,8,8,4
1,1,0,-1,0,0,4,13,7,7,7,4
1,1,0,-1,0,1,4,13,7,7,7,4
1,1,0,-1,0,1,4,12,7,7,7,4
1,1,0,-1,0,1,4,12,6,7,6,3
1,2,0,-1,0,1,4,11,6,6,6,3
1,2,0,-1,0,1,4,11,6,6,6,3
1,2,0,-1,0,1,4,10,5,6,6,3
0,1,0,-1,0,1,4,10,5,6,6,3
0,1,0,-1,0,1,4,10,4,6,6,3
0,1,0,-1,0,1,3,9,4,6,6,3
0,1,0,-1,0,1,3,9,3,6,6,3
0,1,0,-1,0,1,3,8,3,6,6,3
0,1,0,-1,0,0,3,8,3,6,6,3
0,1,0,-1,0,0,3,8,3,6,6,3
0,1,0,-1,0,0,3,8,3,6,6,3
0,1,0,0,0,0,3,8,3,5,6,3
0,1,0,0,0,0,3,8,3,5,6,3
0,1,0,0,0,0,3,8,3,5,6,3
0,1,0,0,0,0,3,8,3,5,6,3
0,1,0,0,0,0,3,7,2,4,6,3
0,0,0,0,0,0,2,7,2,4,6,3
0,0,0,0,0,0,2,6,2,4,6,3
0,0,-1,0,0,0,2,6,1,4,6,3
0,0,-1,0,0,0,2,6,1,4,6,3
0,0,-1,0,0,0,2,5,1,4,6,4
0,0,-1,0,0,0,2,5,1,4,6,4
0,0,-1,0,0,0,2,4,1,4,7,5
0,0,0,0,0,0,1,4,1,5,8,6
0,0,0,0,0,0,1,3,1,7,10,7
0,1,0,0,0,0,0,3,1,9,13,9
1,2,0,-1,0,1,0,3,1,12,18,12
1,3,0,-2,0,1,0,2,2,17,23,15
2,4,0,-3,0,2,-1,2,2,23,30,19
3,5,0,-4,1,2,-1,3,4,30,38,23
4,6,0,-5,1,3,-2,4,6,39,48,28
5,7,0,-6,2,4,-3,5,8,49,59,32
6,8,1,-7,2,4,-3,7,12,62,71,37
7,9,1,-8,2,5,-3,10,17,76,85,42
8,11,1,-9,3,6,-4,14,22,91,100,49
10,13,1,-11,3,7,-4,17,26,108,117,56
12,14,1,-13,5,7,-5,22,31,124,134,63
16,15,-1,-15,7,6,-6,28,35,137,148,69
19,14,-5,-16,11,4,-6,35,38,142,154,70
21,11,-10,-16,16,0,-6,43,41,137,146,64
23,7,-16,-15,20,-5,-5,53,43,124,129,53
24,2,-22,-13,23,-10,-3,63,45,108,107,39
24,-3,-28,-11,26,-15,0,73,47,90,82,23
23,-9,-33,-7,28,-21,3,83,50,69,53,5
22,-15,-38,-3,29,-26,8,92,53,45,22,-13
21,-20,-42,0,30,-31,13,100,55,21,-8,-31
19,-25,-44,3,31,-35,17,108,57,0,-35,-47
17,-29,-46,6,31,-37,21,115,59,-20,-58,-59
15,-32,-47,9,31,-39,25,118,59,-38,-78,-70
13,-35,-48,11,31,-41,27,119,57,-56,-96,-80
11,-38,-50,13,31,-44,30,121,54,-73,-112,-89
9,-42,-52,16,31,-47,32,124,51,-89,-126,-97
8,-46,-55,19,31,-51,35,126,47,-104,-140,-106
6,-50,-57,22,31,-54,37,128,44,-118,-152,-113
5,-54,-58,24,30,-56,40,129,41,-129,-161,-119
3,-56,-59,26,30,-57,42,128,40,-137,-168,-123
1,-57,-58,28,29,-57,45,127,39,-143,-173,-126
-1,-57,-56,30,27,-57,47,126,39,-149,-178,-128
-4,-58,-54,31,25,-56,50,126,39,-153,-181,-130
-7,-58,-52,32,22,-55,53,125,40,-155,-183,-130
-9,-58,-50,34,20,-54,56,124,40,-156,-183,-130
-12,-58,-47,35,17,-53,60,123,41,-156,-181,-129
-14,-58,-44,36,14,-51,63,122,42,-155,-179,-127
-17,-57,-40,37,11,-49,67,120,42,-154,-176,-125
-20,-57,-36,38,8,-47,69,115,40,-153,-173,-122
-24,-56,-32,40,4,-44,72,109,37,-152,-168,-119
-28,-56,-28,41,0,-42,76,102,34,-149,-162,-114
-32,-54,-23,42,-4,-39,79,96,32,-144,-155,-109
-35,-52,-17,43,-9,-34,81,88,28,-139,-147,-103
-37,-48,-12,42,-13,-30,81,77,23,-133,-139,-96
-38,-44,-7,41,-17,-26,79,65,16,-126,-130,-89
-38,-41,-2,40,-19,-22,76,52,8,-120,-122,-81
-39,-38,1,39,-21,-18,72,41,0,-115,-114,-75
-39,-35,4,38,-21,-16,69,32,-5,-110,-107,-69
-39,-33,5,36,-22,-14,67,25,-9,-105,-100,-64
-39,-31,7,35,-22,-12,64,18,-12,-101,-95,-60
-38,-30,8,33,-23,-11,61,11,-15,-97,-90,-57
-37,-28,8,32,-23,-10,57,3,-20,-93,-86,-53
-35,-27,8,31,-22,-10,54,-3,-24,-90,-82,-50
-33,-25,7,29,-21,-9,51,-7,-27,-87,-79,-48
-31,-24,7,28,-20,-9,49,-9,-28,-84,-75,-45
-30,-23,7,27,-19,-8,48,-11,-26,-79,-70,-42
-29,-22,7,26,-18,-8,46,-12,-24,-74,-66,-39
-28,-20,6,24,-17,-7,44,-13,-22,-69,-61,-36
-26,-19,6,22,-16,-7,42,-13,-20,-64,-56,-33
-25,-17,6,21,-16,-6,41,-12,-17,-59,-51,-30
-24,-16,7,20,-16,-5,40,-11,-14,-55,-47,-27
-23,-15,7,19,-15,-4,39,-11,-12,-52,-45,-24
-21,-14,8,18,-15,-3,38,-12,-11,-50,-42,-22
-20,-13,8,17,-14,-3,36,-12,-11,-48,-40,-21
-19,-13,7,17,-13,-3,33,-12,-12,-46,-39,-20
-19,-13,6,16,-12,-3,30,-13,-14,-44,-37,-19
-18,-13,5,16,-12,-4,26,-17,-18,-44,-34,-18
-17,-13,3,15,-11,-5,23,-21,-23,-43,-33,-18
-16,-13,2,15,-10,-6,20,-25,-27,-43,-32,-17
-15,-14,1,15,-8,-7,18,-29,-31,-42,-31,-17
-14,-14,0,14,-7,-7,15,-33,-34,-42,-31,-16
-13,-14,0,14,-6,-8,12,-36,-36,-41,-30,-15
-12,-14,-2,14,-5,-8,9,-38,-37,-39,-28,-14
-11,-14,-4,13,-3,-9,7,-41,-38,-37,-26,-13
-10,-14,-6,13,-2,-10,4,-43,-38,-35,-24,-11
-9,-14,-7,12,-1,-11,2,-45,-39,-34,-22,-10
-7,-14,-8,10,0,-11,-1,-46,-39,-32,-20,-8
-5,-13,-9,9,1,-11,-4,-45,-37,-29,-18,-6
-3,-13,-9,8,2,-12,-7,-43,-35,-26,-15,-4
-1,-12,-10,7,4,-12,-10,-41,-33,-23,-12,-2
0,-10,-10,5,5,-11,-12,-38,-30,-20,-9,-1
1,-9,-10,4,6,-9,-14,-36,-27,-17,-6,0
2,-7,-10,2,6,-8,-15,-34,-24,-15,-4,1
3,-5,-10,1,6,-7,-16,-32,-22,-13,-2,3
4,-4,-9,0,6,-7,-16,-30,-21,-11,-1,4
5,-3,-8,-1,6,-6,-15,-30,-20,-10,0,5
6,-2,-7,-2,6,-5,-14,-30,-19,-10,0,5
7,-1,-6,-3,6,-4,-14,-30,-19,-9,0,6
8,0,-6,-4,7,-3,-13,-30,-18,-9,1,6
8,2,-5,-5,7,-1,-12,-30,-16,-7,2,7
8,4,-4,-6,6,0,-11,-29,-15,-5,4,9
8,6,-3,-7,6,2,-11,-28,-14,-4,5,11
8,7,-1,-8,5,3,-10,-28,-13,-3,6,12
7,8,1,-8,3,5,-9,-28,-13,-2,7,12
5,9,4,-7,0,6,-8,-28,-12,-2,7,12
3,10,8,-7,-2,8,-7,-27,-12,-1,7,13
1,10,10,-6,-4,10,-6,-27,-11,-1,8,14
0,11,12,-6,-6,11,-6,-26,-10,0,9,15
0,12,13,-6,-6,12,-7,-26,-9,1,10,15
0,13,13,-6,-6,13,-7,-26,-9,2,11,16
0,14,13,-7,-6,13,-8,-26,-9,3,11,17
0,14,13,-7,-7,14,-9,-26,-9,5,12,18
0,15,14,-7,-7,14,-10,-26,-10,6,14,19
0,15,15,-7,-8,15,-11,-27,-10,6,15,20
0,15,15,-8,-8,15,-12,-29,-11,7,16,20
0,15,16,-8,-8,15,-12,-30,-11,7,16,20
0,16,16,-8,-8,16,-13,-30,-12,8,16,20
0,16,16,-8,-8,17,-13,-30,-12,8,16,21
0,17,17,-8,-9,18,-14,-30,-12,8,17,21
0,17,17,-8,-9,18,-14,-31,-12,10,18,22
0,18,18,-8,-9,18,-15,-31,-13,11,20,23
0,18,19,-9,-9,18,-15,-32,-14,11,21,24
0,19,19,-9,-10,18,-15,-32,-14,12,23,25
0,19,19,-10,-10,19,-16,-33,-15,13,25,27
0,20,19,-10,-10,19,-16,-34,-15,14,26,29
1,20,19,-11,-10,20,-17,-35,-15,16,28,30
1,21,20,-11,-10,20,-17,-36,-15,19,29,30
1,22,20,-11,-10,20,-18,-36,-15,21,31,30
2,23,21,-12,-10,21,-19,-37,-15,22,32,31
2,24,21,-13,-10,22,-19,-37,-15,24,34,32
2,24,22,-13,-10,23,-20,-38,-15,26,37,34
2,25,22,-13,-10,23,-21,-39,-16,27,39,36
2,25,23,-14,-10,24,-22,-40,-16,29,41,37
2,26,24,-14,-10,25,-23,-41,-16,31,43,39
3,27,24,-15,-10,26,-24,-42,-16,32,45,41
3,29,25,-16,-10,27,-24,-42,-16,34,47,43
3,30,26,-17,-11,28,-25,-43,-16,37,49,44
3,30,26,-17,-11,28,-26,-44,-16,39,51,45
4,31,26,-18,-11,28,-27,-45,-16,41,54,47
4,31,27,-18,-11,28,-28,-45,-16,42,56,49
4,32,27,-18,-11,29,-29,-44,-16,43,59,51
5,33,28,-19,-11,30,-30,-44,-16,46,61,54
5,34,28,-20,-11,31,-30,-45,-15,48,64,56
5,35,29,-20,-11,32,-31,-46,-14,50,67,58
5,35,29,-21,-11,32,-32,-47,-15,52,69,58
6,36,29,-21,-11,33,-33,-47,-15,53,69,59
6,36,30,-22,-12,33,-34,-47,-16,53,68,59
7,37,30,-22,-12,33,-35,-47,-16,55,67,60
7,37,30,-23,-12,33,-36,-47,-15,57,68,61
8,37,30,-23,-12,34,-36,-47,-15,61,71,61
8,38,30,-23,-11,34,-37,-47,-14,64,74,62
9,39,30,-24,-11,35,-37,-47,-13,66,77,64
9,39,30,-24,-11,35,-38,-47,-12,67,79,65
9,40,30,-25,-11,35,-38,-47,-12,68,81,65
9,40,31,-25,-11,36,-39,-46,-11,68,83,66
9,40,31,-25,-11,36,-39,-45,-10,69,84,68
9,40,30,-25,-11,36,-40,-44,-10,69,85,68
10,40,30,-25,-10,35,-40,-44,-9,68,86,67
11,40,29,-25,-9,35,-40,-43,-9,68,85,67
11,41,29,-26,-8,35,-41,-42,-8,68,83,67
12,41,28,-26,-8,35,-41,-41,-7,68,81,67
12,41,28,-26,-7,35,-41,-40,-7,69,80,66
12,40,27,-26,-7,34,-41,-39,-6,69,79,66
12,39,27,-26,-7,33,-40,-37,-5,69,80,65
12,39,27,-26,-7,33,-40,-36,-4,71,82,65
13,39,26,-26,-7,33,-39,-34,-2,73,84,65
13,39,26,-26,-6,33,-39,-33,-1,73,84,65
14,39,25,-26,-6,32,-39,-32,0,73,84,64
14,38,24,-26,-5,32,-39,-31,0,72,83,64
14,37,23,-26,-4,31,-39,-30,1,71,82,64
14,36,22,-26,-4,30,-39,-29,2,70,80,64
14,36,21,-26,-3,29,-38,-27,3,68,79,63
15,35,21,-25,-3,28,-37,-26,4,68,78,62
15,35,20,-25,-2,27,-36,-24,5,67,77,61
15,34,19,-25,-2,27,-35,-22,6,67,76,58
15,34,19,-25,-2,27,-33,-21,6,66,75,56
14,33,19,-24,-2,26,-32,-20,7,65,73,55
14,33,19,-24,-2,26,-31,-19,8,64,72,54
14,32,18,-23,-2,25,-29,-18,9,62,70,53
14,31,18,-23,-2,25,-28,-16,10,60,69,52
14,30,17,-23,-1,24,-27,-14,10,58,66,52
14,29,15,-22,-1,23,-27,-13,11,56,64,51
14,28,14,-22,0,22,-26,-11,11,54,63,50
14,28,14,-21,0,21,-26,-11,12,54,61,48
14,27,13,-21,0,21,-25,-12,12,53,59,46
14,27,13,-20,1,20,-24,-12,13,53,57,44
13,26,13,-20,0,19,-22,-10,13,52,56,42
13,26,13,-19,0,19,-21,-8,13,52,55,42
13,25,12,-19,0,18,-20,-7,14,52,55,41
13,24,12,-19,0,18,-19,-6,15,51,54,40
12,24,12,-18,0,18,-18,-5,16,51,54,40
12,23,12,-18,0,18,-17,-4,16,50,53,40
11,22,11,-17,0,17,-17,-4,16,48,53,39
10,21,11,-16,0,16,-16,-3,16,45,52,38
10,21,10,-15,0,15,-14,-2,16,44,51,38
11,21,10,-15,0,15,-14,-1,16,42,50,37
11,20,10,-15,0,15,-14,-1,16,40,46,36
11,19,9,-15,0,14,-14,-1,16,37,42,35
11,18,7,-14,1,13,-13,0,16,34,39,35
11,16,5,-14,2,11,-12,0,16,32,36,33
12,16,4,-14,3,10,-12,0,15,32,34,32
12,15,3,-14,4,10,-12,1,15,32,34,30
12,15,3,-14,5,9,-11,1,15,33,35,28
12,14,3,-13,5,9,-10,2,15,33,35,27
12,13,2,-13,5,8,-9,2,15,32,35,27
12,13,2,-12,5,7,-8,2,15,31,34,26
11,13,2,-12,4,7,-8,2,15,29,33,25
10,13,3,-11,4,7,-8,2,15,27,31,24
10,13,3,-11,3,7,-8,2,15,25,29,23
9,12,3,-11,3,7,-8,2,14,25,28,22
9,12,3,-11,3,7,-8,3,14,26,27,20
8,11,3,-10,3,7,-7,3,13,26,26,19
8,11,3,-10,3,7,-7,3,13,26,25,18
8,11,3,-10,3,7,-7,3,13,25,25,17
9,10,2,-10,4,6,-7,3,12,24,26,17
9,10,0,-10,4,5,-6,4,12,22,26,17
9,9,0,-10,5,5,-6,4,11,20,24,18
9,8,-1,-9,5,4,-6,4,11,18,21,18
9,7,-2,-9,5,3,-5,4,11,17,19,18
9,6,-2,-8,5,2,-5,4,11,17,18,16
9,6,-2,-8,5,2,-4,4,10,17,19,15
9,5,-2,-7,5,1,-4,5,10,17,20,14
9,5,-2,-7,5,1,-3,5,10,18,21,13
9,5,-2,-7,5,1,-3,6,10,18,20,13
8,5,-2,-6,5,1,-2,6,10,18,20,13
7,4,-2,-6,5,1,-2,7,10,17,20,13
7,4,-2,-6,5,1,-2,7,10,17,20,13
7,4,-3,-6,5,1,-2,6,10,15,19,13
7,5,-2,-6,5,1,-2,5,10,14,18,11
7,5,-2,-6,5,1,-2,5,10,12,17,10
7,4,-2,-5,5,1,-2,6,9,10,16,10
5,3,-1,-4,4,0,-1,7,9,9,15,11
4,2,-1,-3,3,0,0,8,9,9,13,11
4,2,-1,-3,3,0,0,7,9,8,10,11
4,2,-2,-4,4,0,0,7,9,8,9,11
5,3,-3,-4,4,0,0,6,8,6,7,10
5,3,-3,-4,4,0,0,5,7,4,5,9
6,3,-3,-4,4,0,0,5,6,3,5,9
6,2,-4,-4,5,0,0,5,6,3,5,9
6,2,-4,-3,4,-1,0,5,6,2,3,8
4,1,-4,-2,4,-1,0,4,5,3,2,5
4,0,-4,-2,4,-1,0,4,4,6,3,4
4,1,-3,-2,3,-1,0,4,5,8,5,5
4,2,-2,-2,3,0,1,4,5,9,7,6
3,1,-2,-2,2,0,1,4,5,10,11,5
3,0,-2,-1,2,-1,1,4,5,11,13,5
3,0,-2,-2,2,-1,1,4,5,11,13,5
4,1,-2,-2,2,0,0,3,5,11,11,6
4,2,-1,-3,2,1,0,3,5,11,11,5
3,2,-1,-3,2,1,1,2,5,11,11,2
3,1,-2,-2,2,0,1,2,5,9,11,0
3,1,-2,-1,2,0,1,1,5,5,10,2
3,1,-2,-1,2,0,1,1,4,1,8,4
3,0,-3,-1,3,-1,1,1,2,-2,5,5
4,0,-5,-1,4,-2,0,0,0,-4,1,6
4,-1,-6,-1,5,-3,0,0,0,-3,-1,6
4,-2,-6,0,5,-4,0,0,1,-1,0,6
4,-2,-6,0,5,-4,0,0,1,2,3,6
4,-2,-6,-1,5,-4,0,-1,1,5,5,5
3,-2,-5,-1,4,-4,0,-1,1,7,7,3
2,-2,-4,0,3,-3,0,-1,1,8,8,3
2,-1,-3,0,2,-2,0,0,1,8,9,4
2,-1,-2,0,2,-2,0,-1,0,6,9,5
2,-1,-2,0,2,-1,0,-2,0,4,7,3
2,-1,-2,0,2,-1,-1,-3,-1,3,4,1
2,0,-2,0,2,-1,-1,-3,-1,3,1,1
2,0,-3,-1,3,-1,-2,-3,-1,3,0,2
3,0,-4,-1,3,-2,-2,-3,-2,3,0,2
3,-1,-4,-1,4,-3,-2,-3,-2,4,1,2
4,-1,-5,-1,5,-3,-1,-3,-1,4,3,3
4,-1,-6,-1,5,-4,-1,-3,-1,5,4,3
4,-1,-5,-1,5,-4,-1,-4,-2,5,4,3
3,-1,-5,0,4,-3,-1,-4,-2,5,4,3
2,-1,-4,0,4,-3,-1,-5,-2,5,4,3
2,0,-4,-1,3,-2,-2,-5,-2,5,5,4
3,0,-4,-1,3,-2,-2,-6,-2,6,7,4
3,0,-3,-1,3,-2,-3,-6,-2,7,9,6
3,0,-3,-1,3,-2,-3,-6,-1,11,13,8
3,0,-3,-2,3,-1,-4,-5,-1,16,18,11
4,1,-2,-3,3,0,-5,-5,0,22,24,14
5,3,-2,-4,3,0,-5,-5,2,29,31,17
6,4,-2,-5,4,1,-6,-3,5,39,40,21
7,6,-1,-6,4,2,-6,0,10,51,52,25
7,7,0,-7,4,3,-6,3,15,64,64,30
8,8,0,-8,4,4,-5,7,20,79,78,35
9,9,1,-9,3,6,-5,11,26,94,92,40
9,11,2,-10,3,7,-5,15,32,111,109,46
11,12,2,-12,4,8,-5,21,37,129,126,53
14,13,0,-14,7,7,-5,29,42,144,141,58
18,13,-4,-15,11,5,-5,37,46,150,148,60
21,11,-9,-16,15,1,-5,47,47,144,142,56
23,8,-15,-16,19,-3,-4,57,48,127,125,47
24,3,-21,-14,23,-8,-3,66,48,107,103,36
25,-1,-26,-12,25,-13,-1,75,48,85,79,22
24,-7,-31,-9,27,-19,2,84,49,60,50,8
22,-13,-35,-5,29,-24,6,92,49,34,18,-8
21,-18,-38,-1,29,-28,10,100,48,8,-14,-24
19,-23,-41,2,29,-32,15,108,49,-15,-43,-39
17,-27,-43,5,30,-35,19,115,50,-36,-66,-52
15,-31,-45,8,30,-38,23,120,50,-55,-86,-62
13,-33,-47,10,30,-40,26,123,48,-73,-104,-70
11,-36,-48,12,29,-42,28,124,45,-91,-120,-79
9,-40,-49,15,29,-44,30,125,40,-107,-135,-88
8,-44,-52,18,29,-48,32,125,34,-122,-148,-95
6,-48,-54,21,30,-51,35,125,29,-134,-160,-102
4,-52,-56,23,30,-53,38,125,25,-143,-169,-107
2,-54,-56,26,29,-55,40,124,22,-149,-175,-112
0,-56,-55,28,27,-55,43,122,20,-155,-180,-116
-3,-57,-54,30,25,-55,46,120,19,-160,-184,-119
-6,-57,-52,31,23,-55,48,118,18,-164,-187,-121
-8,-58,-50,33,21,-54,50,115,17,-167,-189,-122
-10,-58,-48,34,18,-53,53,113,16,-168,-190,-122
-12,-58,-45,35,16,-52,56,110,16,-168,-189,-122
-14,-58,-42,36,14,-50,60,108,16,-166,-187,-120
-18,-58,-38,38,10,-48,65,105,15,-164,-183,-118
-22,-58,-34,39,6,-46,68,100,13,-162,-179,-115
-25,-57,-30,40,2,-43,71,93,10,-160,-173,-113
-29,-56,-26,42,-1,-41,74,86,7,-157,-167,-110
-33,-56,-22,43,-6,-39,77,78,4,-152,-160,-106
-37,-55,-17,44,-10,-36,79,69,1,-146,-154,-101
-39,-53,-13,45,-13,-32,78,59,-3,-140,-146,-95
-40,-50,-8,45,-16,-28,77,48,-9,-133,-138,-88
-41,-46,-3,44,-19,-24,74,36,-15,-126,-129,-82
-41,-43,0,42,-20,-21,71,24,-21,-119,-120,-78
-41,-40,1,41,-22,-18,67,13,-26,-114,-113,-74
-41,-37,3,39,-22,-16,64,5,-29,-109,-106,-68
-40,-35,4,38,-22,-15,61,-2,-31,-106,-101,-63
-40,-34,5,37,-22,-14,57,-10,-33,-104,-97,-59
-40,-33,6,36,-23,-13,54,-18,-37,-103,-94,-55
-38,-32,7,35,-23,-13,51,-23,-41,-99,-90,-52
-36,-31,6,34,-22,-12,49,-26,-42,-92,-87,-50
-34,-29,6,32,-20,-12,48,-27,-41,-85,-83,-48
-33,-28,5,30,-19,-11,47,-28,-39,-80,-78,-47
-31,-26,5,29,-18,-11,45,-28,-37,-75,-72,-45
-30,-25,4,27,-17,-10,43,-29,-35,-71,-66,-43
-29,-24,4,26,-16,-9,41,-29,-32,-66,-61,-39
-28,-22,5,24,-16,-8,40,-28,-28,-63,-58,-35
-27,-21,6,23,-16,-7,39,-27,-26,-60,-56,-34
-26,-21,7,23,-16,-6,39,-26,-24,-57,-55,-32
-25,-20,6,22,-15,-6,38,-26,-23,-54,-52,-30
-24,-20,5,22,-14,-7,36,-26,-23,-51,-49,-27
-23,-20,4,21,-13,-7,32,-28,-25,-50,-46,-26
-21,-19,2,20,-12,-8,27,-31,-28,-50,-44,-26
-19,-19,1,19,-10,-8,22,-35,-33,-50,-44,-26
-18,-19,0,19,-9,-9,18,-39,-37,-50,-44,-26
-17,-19,0,18,-8,-10,16,-42,-39,-48,-43,-25
-17,-19,-1,18,-7,-10,13,-44,-41,-46,-40,-24
-16,-19,-2,17,-6,-10,10,-47,-43,-44,-37,-22
-15,-19,-3,17,-5,-11,8,-48,-44,-42,-35,-21
-15,-20,-5,17,-4,-12,5,-49,-45,-41,-33,-20
-13,-19,-6,16,-3,-13,3,-50,-46,-42,-31,-19
-11,-19,-8,15,-1,-13,0,-52,-46,-44,-32,-17
-8,-19,-10,14,1,-14,-4,-53,-46,-45,-33,-17
-6,-19,-12,12,3,-15,-8,-53,-44,-44,-33,-16
-4,-18,-13,11,5,-15,-10,-51,-42,-42,-32,-15
-2,-17,-14,9,6,-16,-13,-48,-40,-38,-30,-13
-1,-16,-15,8,7,-16,-15,-44,-38,-32,-26,-10
0,-15,-14,8,7,-15,-16,-42,-35,-26,-20,-8
0,-13,-14,7,7,-13,-17,-40,-32,-23,-16,-9
2,-12,-14,5,8,-13,-16,-37,-30,-21,-13,-10
3,-10,-13,4,8,-12,-16,-35,-27,-19,-12,-9
3,-9,-12,3,7,-10,-15,-34,-26,-17,-12,-8
3,-8,-11,2,7,-9,-15,-34,-26,-16,-12,-6
4,-6,-9,1,6,-7,-14,-34,-25,-14,-10,-6
4,-5,-9,1,6,-7,-13,-34,-24,-12,-8,-7
5,-4,-9,0,6,-6,-12,-35,-23,-11,-7,-8
6,-2,-8,-1,7,-5,-12,-34,-23,-10,-5,-6
7,-1,-8,-3,7,-4,-12,-34,-22,-10,-3,-1
7,0,-6,-4,6,-3,-11,-33,-21,-9,-1,1
6,1,-5,-4,5,-2,-10,-32,-19,-7,1,2
4,2,-2,-4,3,0,-10,-32,-18,-5,3,4
3,2,0,-3,1,1,-9,-32,-17,-4,2,6
1,2,1,-2,0,1,-8,-32,-16,-3,1,7
0,2,3,-1,-1,2,-7,-31,-16,-4,0,8
-1,3,5,-1,-3,4,-7,-30,-16,-4,0,9
-2,4,6,-1,-4,5,-7,-30,-16,-2,0,9
-3,5,7,-1,-5,6,-8,-29,-16,0,1,8
-2,5,8,-1,-5,7,-9,-29,-15,1,2,7
-1,6,8,-2,-5,7,-10,-29,-15,2,3,5
-1,6,8,-3,-4,7,-11,-30,-16,2,4,5
-1,7,8,-3,-4,8,-12,-32,-16,2,5,7
-1,7,8,-3,-5,8,-12,-32,-16,2,6,8
-2,7,9,-3,-6,9,-12,-32,-17,2,6,9
-3,8,10,-2,-7,9,-12,-32,-17,2,7,10
-4,8,11,-2,-8,9,-13,-32,-18,3,7,11
-4,7,12,-1,-8,9,-13,-33,-18,3,8,12
-4,7,11,-1,-7,9,-14,-33,-18,3,8,13
-3,7,10,-1,-6,8,-15,-34,-19,3,10,14
-2,7,10,-2,-6,8,-15,-34,-19,4,12,14
-2,8,10,-2,-6,9,-15,-35,-20,6,13,13
-1,8,10,-3,-6,9,-16,-35,-20,7,14,13
-1,9,10,-4,-6,10,-16,-36,-20,8,14,14
-1,9,10,-4,-6,10,-17,-37,-20,9,16,16
-1,10,11,-4,-6,11,-17,-38,-19,11,18,18
-1,10,11,-5,-6,11,-18,-39,-19,12,21,20
-1,11,12,-5,-6,12,-19,-39,-20,14,23,21
-1,12,13,-6,-7,13,-20,-40,-20,15,23,21
-1,13,14,-6,-7,14,-20,-40,-20,16,23,22
0,14,14,-7,-7,14,-21,-40,-20,18,25,23
0,14,15,-7,-8,15,-21,-40,-19,21,27,24
0,15,15,-8,-8,15,-22,-41,-19,24,29,26
0,15,16,-8,-8,16,-22,-41,-19,27,33,28
0,16,17,-9,-8,16,-23,-42,-18,29,36,30
0,17,18,-9,-8,17,-24,-42,-18,30,39,31
0,18,19,-9,-9,18,-24,-42,-18,32,41,32
0,19,19,-9,-9,19,-25,-42,-17,33,42,33
0,20,19,-10,-9,20,-26,-42,-17,35,43,34
2,21,19,-11,-8,20,-27,-43,-17,36,44,35
3,22,18,-12,-7,20,-28,-43,-17,38,46,36
4,22,18,-13,-7,20,-29,-44,-16,40,48,38
5,23,18,-14,-7,21,-30,-44,-16,42,51,40
5,23,19,-15,-7,21,-30,-44,-15,44,53,41
6,24,19,-15,-7,22,-31,-44,-15,45,55,42
6,25,20,-15,-7,22,-32,-44,-14,46,56,43
6,26,20,-15,-7,23,-33,-45,-14,48,56,44
6,26,21,-16,-7,23,-33,-46,-13,49,57,45
6,27,21,-16,-7,24,-34,-45,-13,50,59,46
6,27,22,-17,-7,24,-35,-44,-13,52,60,47
7,28,22,-18,-7,25,-35,-43,-13,53,62,48
7,28,22,-18,-6,25,-36,-42,-13,53,63,49
8,28,22,-18,-6,25,-36,-41,-12,54,64,50
8,29,22,-18,-6,25,-36,-41,-11,55,65,51
8,30,22,-19,-6,26,-36,-40,-10,56,66,51
8,30,22,-19,-7,26,-37,-39,-9,57,66,51
9,30,22,-19,-6,26,-37,-38,-9,58,66,52
9,30,21,-20,-6,26,-38,-38,-8,58,66,52
10,30,20,-20,-5,25,-38,-37,-8,58,66,53
10,30,20,-21,-4,25,-38,-36,-7,58,67,53
11,30,20,-21,-4,25,-38,-34,-6,59,67,52
11,30,20,-21,-4,25,-38,-33,-5,59,67,52
12,30,20,-21,-4,25,-38,-32,-4,60,68,52
12,30,19,-21,-3,24,-38,-31,-3,60,68,52
12,30,19,-21,-3,24,-37,-29,-2,60,68,51
12,30,18,-21,-3,24,-37,-28,-1,60,68,51
12,29,18,-21,-2,23,-37,-28,-1,60,68,51
13,29,17,-21,-1,23,-37,-27,0,60,68,51
13,28,16,-21,-1,22,-36,-26,1,60,67,49
13,28,15,-20,0,21,-35,-25,2,60,67,48
13,27,14,-20,0,21,-34,-23,2,58,66,47
13,26,14,-20,0,20,-34,-22,3,56,65,46
13,26,13,-20,0,20,-33,-21,4,55,63,45
13,25,13,-19,0,19,-32,-20,4,54,61,43
13,25,12,-19,0,18,-31,-19,5,53,59,43
13,24,12,-19,1,18,-31,-18,5,50,57,42
13,24,11,-19,1,17,-30,-17,6,48,55,41
12,23,11,-18,0,17,-29,-16,7,48,54,40
12,23,11,-18,0,17,-27,-14,8,49,53,39
12,23,11,-18,1,17,-26,-13,9,49,52,37
12,22,10,-17,1,16,-25,-11,10,50,52,36
12,21,9,-16,1,15,-24,-10,11,51,53,35
12,20,9,-16,1,14,-23,-9,11,50,53,34
12,20,9,-16,1,14,-22,-8,12,49,52,33
12,19,9,-15,1,14,-21,-7,12,49,51,32
11,19,8,-15,1,13,-19,-5,13,48,50,31
11,18,8,-14,1,13,-18,-4,13,46,48,30
11,17,7,-14,1,12,-17,-3,14,43,46,29
10,16,7,-13,1,11,-16,-4,14,40,43,28
10,16,7,-13,1,11,-16,-3,15,39,40,27
9,16,8,-13,1,12,-15,-2,15,38,38,26
9,16,7,-13,1,11,-14,-1,15,38,36,26
9,15,6,-12,2,10,-13,0,16,39,37,26
9,14,5,-12,2,10,-13,0,16,40,39,26
9,14,5,-11,2,9,-12,0,16,41,40,24
9,13,4,-11,2,9,-11,1,16,40,40,23
9,13,3,-11,2,8,-11,3,16,39,39,22
9,12,3,-10,3,7,-11,4,16,37,38,21
9,12,3,-10,3,7,-10,5,17,36,36,20
9,11,3,-9,3,6,-9,5,17,35,34,18
9,10,2,-9,3,6,-8,5,17,35,32,18
9,10,2,-10,4,6,-7,5,17,34,31,17
9,10,1,-10,4,6,-7,5,17,32,29,16
9,10,1,-9,3,6,-7,6,17,31,28,15
9,10,1,-9,3,6,-7,6,17,29,26,15
9,10,1,-9,3,6,-6,7,18,29,25,14
8,9,1,-9,3,5,-5,8,18,29,25,14
7,8,1,-8,3,5,-5,9,18,28,25,14
7,8,1,-7,3,4,-5,9,17,27,24,12
8,7,-1,-7,4,3,-4,9,17,26,23,11
9,7,-2,-8,6,2,-4,9,16,25,22,10
10,6,-3,-8,6,1,-4,9,16,23,21,10
9,6,-3,-8,6,1,-4,10,16,22,21,9
9,5,-3,-7,6,1,-4,10,16,21,20,8
9,5,-4,-7,7,0,-4,10,15,21,19,8
9,4,-4,-7,7,0,-3,10,15,20,18,8
9,4,-4,-7,7,0,-3,10,15,19,17,8
8,4,-4,-6,7,0,-2,10,14,17,16,7
8,4,-4,-6,7,0,-2,10,13,15,15,7
8,3,-4,-6,6,0,-2,11,13,14,15,7
8,3,-4,-5,6,0,-1,11,13,14,15,7
7,2,-5,-5,6,-1,-1,11,13,13,13,7
7,2,-5,-4,6,-1,0,11,13,13,11,7
7,1,-5,-4,6,-2,0,11,13,12,10,7
7,1,-5,-4,6,-2,0,10,12,12,10,6
6,0,-5,-3,5,-2,0,10,12,12,10,4
6,0,-4,-3,5,-2,0,10,12,11,9,2
6,0,-4,-3,5,-2,0,10,12,11,8,1
6,1,-4,-3,5,-2,0,10,12,10,8,0
6,1,-4,-3,6,-2,0,10,11,9,7,0
6,1,-5,-3,6,-2,1,9,11,8,6,0
6,0,-5,-3,6,-2,1,9,10,7,5,0
6,0,-5,-3,6,-2,1,8,10,7,4,0
6,0,-5,-3,6,-2,2,8,10,7,4,-1
6,0,-5,-2,6,-2,2,7,10,7,5,-1
5,0,-5,-2,5,-3,3,7,10,6,5,-1
5,-1,-6,-1,5,-3,3,7,10,6,5,-1
4,-2,-6,-1,4,-4,3,6,10,6,4,-1
4,-2,-5,0,4,-4,4,6,9,5,4,0
3,-2,-5,0,3,-3,4,6,9,4,4,0
3,-2,-4,0,3,-3,4,7,8,4,3,0
3,-2,-4,0,3,-3,4,7,8,3,1,0
3,-2,-4,0,3,-3,4,6,7,3,1,-1
3,-2,-5,0,3,-3,4,6,7,3,0,-2
4,-2,-5,0,4,-3,4,5,6,2,0,-2
3,-2,-5,0,4,-3,4,5,5,0,-1,-2
3,-2,-5,0,4,-3,4,4,5,-1,-1,-3
3,-3,-6,0,4,-4,4,3,5,-1,-1,-4
3,-3,-6,0,4,-4,3,2,5,-1,0,-3
3,-3,-6,0,3,-4,2,1,4,-1,0,-3
2,-3,-6,1,3,-4,2,1,4,-1,0,-2
3,-3,-7,1,4,-5,2,1,3,-1,0,-3
3,-3,-7,0,5,-5,2,1,3,-1,-1,-5
3,-3,-7,0,5,-5,2,1,2,-1,-1,-6
3,-3,-6,0,4,-5,2,0,2,-1,-1,-7
3,-4,-6,0,4,-5,3,0,3,-1,-1,-8
3,-4,-6,0,4,-5,3,0,3,-1,-2,-8
3,-3,-6,0,4,-4,3,0,2,-1,-4,-8
3,-3,-6,0,4,-4,3,0,2,-2,-4,-8
3,-3,-6,0,4,-5,3,0,2,-1,-2,-6
2,-4,-7,1,4,-5,2,0,2,-1,-2,-5
2,-4,-6,1,4,-5,2,-1,2,0,-1,-5
1,-4,-5,1,3,-4,2,-1,2,0,0,-5
1,-4,-5,1,3,-4,2,-1,2,1,1,-5
1,-4,-4,1,3,-4,1,-1,2,0,1,-5
1,-4,-4,1,3,-4,1,-1,1,-1,2,-5
1,-4,-5,1,3,-4,1,-1,0,-3,2,-6
1,-4,-6,1,3,-5,1,-1,0,-4,0,-6
1,-4,-6,1,3,-5,1,-2,0,-5,-5,-7
1,-4,-6,1,3,-4,1,-2,0,-6,-8,-7
1,-4,-5,1,3,-4,1,-2,0,-7,-9,-7
1,-4,-5,1,3,-4,1,-3,-1,-8,-9,-7
1,-5,-5,1,3,-4,1,-3,-2,-9,-10,-6
0,-5,-5,2,2,-4,1,-3,-2,-11,-11,-6
0,-5,-6,2,2,-5,1,-3,-2,-11,-12,-6
0,-5,-6,2,2,-5,0,-3,-2,-8,-12,-5
0,-5,-5,2,2,-5,0,-3,-1,-4,-10,-5
0,-5,-5,2,2,-5,1,-3,-1,0,-5,-5
0,-5,-5,2,2,-5,1,-3,-1,1,0,-5
1,-4,-5,1,3,-5,0,-3,-1,1,2,-5
3,-4,-6,0,4,-5,0,-4,-1,1,3,-4
3,-3,-6,-1,4,-4,0,-5,-1,2,4,-3
3,-2,-5,-1,4,-3,-1,-5,0,6,7,-1
3,-1,-4,-2,3,-2,0,-5,0,11,11,0
3,0,-3,-2,3,-2,0,-5,2,17,16,2
3,0,-3,-2,2,-1,-1,-4,5,25,24,4
4,1,-3,-3,2,0,-1,-2,8,35,34,9
5,2,-3,-4,3,0,-2,0,11,46,44,14
6,4,-2,-5,4,1,-2,3,16,58,55,19
7,6,-1,-7,3,3,-1,7,21,71,67,23
8,8,0,-8,3,4,-1,11,27,86,80,27
9,10,1,-10,3,6,-1,14,33,101,96,34
10,12,1,-11,4,6,-2,19,39,116,113,41
12,12,0,-12,6,6,-2,27,44,130,128,48
15,12,-3,-13,9,4,-3,35,46,137,136,51
18,10,-9,-14,14,1,-4,44,47,132,131,49
21,7,-14,-14,18,-3,-3,54,47,119,115,41
22,3,-20,-13,21,-7,-1,64,48,101,94,29
23,-1,-25,-12,24,-12,1,74,48,81,71,15
23,-6,-29,-10,26,-17,4,83,49,57,42,1
21,-11,-33,-6,27,-21,7,91,50,32,11,-15
20,-16,-37,-2,28,-26,10,100,50,8,-18,-32
18,-22,-41,2,29,-31,15,107,51,-15,-45,-46
16,-27,-44,6,29,-35,19,115,52,-35,-67,-58
14,-31,-45,9,29,-38,23,121,52,-52,-86,-69
12,-34,-47,11,29,-40,26,124,50,-69,-104,-78
10,-37,-48,13,29,-42,29,126,46,-86,-121,-87
9,-41,-50,15,30,-45,31,127,41,-102,-136,-96
8,-45,-53,18,30,-49,33,127,36,-118,-148,-103
5,-50,-55,21,30,-53,36,127,31,-131,-159,-110
3,-54,-57,25,30,-55,38,127,27,-142,-169,-116
2,-57,-59,28,30,-58,41,127,24,-148,-178,-122
0,-59,-59,30,29,-59,44,126,22,-152,-184,-126
-2,-60,-57,31,27,-58,48,124,21,-155,-187,-127
-5,-60,-55,32,25,-58,50,122,21,-158,-189,-128
-7,-61,-53,33,23,-57,53,119,20,-160,-190,-130
-10,-61,-51,35,20,-56,55,114,19,-161,-190,-131
-13,-61,-49,36,18,-55,58,110,17,-162,-189,-131
-16,-60,-45,38,14,-53,62,108,17,-162,-188,-130
-19,-60,-41,40,10,-50,66,106,16,-161,-185,-128
-23,-60,-38,42,7,-48,69,101,13,-158,-181,-125
-26,-60,-35,43,4,-47,73,94,9,-156,-177,-123
-30,-60,-30,45,0,-44,76,86,5,-153,-172,-120
-35,-59,-24,46,-5,-41,79,78,2,-149,-165,-117
-40,-58,-19,47,-10,-38,81,70,0,-144,-157,-111
-42,-56,-14,48,-14,-35,82,60,-4,-137,-149,-103
-44,-53,-9,48,-17,-31,80,49,-9,-130,-141,-97
-45,-49,-5,47,-20,-26,78,36,-14,-123,-131,-91
-45,-45,0,46,-23,-22,75,24,-20,-117,-123,-84
-45,-42,2,44,-24,-19,72,13,-25,-111,-116,-78
-45,-40,4,43,-25,-18,69,3,-28,-106,-110,-73
-44,-39,5,41,-25,-17,66,-5,-30,-101,-104,-69
-43,-38,6,39,-25,-16,63,-12,-32,-98,-99,-66
-43,-36,6,38,-25,-15,59,-19,-36,-95,-94,-63
-42,-35,6,37,-24,-14,55,-26,-40,-91,-89,-60
-40,-34,6,36,-23,-13,52,-30,-41,-86,-85,-58
-39,-33,6,36,-23,-13,51,-31,-41,-82,-80,-55
-38,-32,5,36,-22,-13,50,-32,-39,-79,-77,-51
-36,-31,4,34,-21,-13,48,-32,-37,-76,-73,-48
-34,-30,3,32,-19,-13,46,-33,-35,-71,-70,-45
-32,-28,3,29,-18,-12,44,-33,-33,-66,-68,-43
-30,-27,3,27,-17,-11,43,-32,-29,-62,-64,-41
-29,-25,2,26,-16,-11,41,-31,-26,-59,-59,-38
-28,-24,2,26,-16,-11,40,-29,-24,-57,-56,-36
-27,-24,2,25,-15,-10,40,-29,-23,-56,-53,-35
-26,-23,2,25,-14,-10,37,-30,-24,-54,-52,-34
-24,-23,0,24,-13,-11,33,-33,-26,-51,-52,-34
-22,-23,-1,23,-11,-11,28,-37,-30,-50,-51,-34
-21,-22,-2,22,-10,-12,23,-42,-34,-50,-49,-33
-21,-22,-2,21,-9,-12,19,-46,-39,-50,-48,-31
-20,-23,-3,21,-9,-13,16,-49,-42,-49,-47,-30
-20,-24,-5,22,-8,-14,13,-51,-44,-47,-46,-29
-19,-25,-6,22,-7,-15,11,-53,-46,-44,-43,-27
-18,-25,-7,21,-6,-16,9,-54,-46,-42,-39,-24
-16,-25,-9,21,-4,-17,7,-56,-47,-40,-37,-24
-14,-25,-11,20,-2,-17,4,-57,-46,-39,-36,-24
-13,-25,-12,19,0,-18,1,-57,-46,-37,-35,-23
-11,-24,-14,17,1,-18,-2,-56,-44,-35,-33,-21
-9,-23,-15,15,3,-19,-4,-55,-42,-32,-31,-18
-6,-22,-16,14,5,-19,-7,-53,-40,-29,-28,-16
-5,-21,-17,12,6,-19,-10,-49,-37,-25,-24,-13
-3,-20,-17,11,7,-19,-12,-46,-34,-22,-19,-11
-1,-19,-17,10,8,-19,-14,-43,-32,-20,-15,-9
0,-17,-18,9,9,-18,-15,-40,-30,-18,-13,-8
2,-16,-18,7,10,-17,-15,-38,-28,-17,-11,-7
3,-14,-18,5,10,-16,-15,-36,-27,-16,-11,-8
4,-13,-18,4,11,-15,-15,-35,-26,-15,-12,-8
6,-12,-18,2,11,-14,-15,-35,-25,-15,-13,-7
7,-10,-18,1,12,-14,-14,-35,-25,-14,-14,-7
8,-9,-17,0,12,-13,-13,-35,-25,-14,-13,-7
8,-7,-16,0,11,-12,-12,-35,-24,-13,-12,-6
8,-6,-15,0,11,-11,-11,-35,-23,-13,-11,-5
8,-5,-14,-1,11,-9,-10,-34,-22,-12,-10,-4
7,-4,-11,-1,9,-8,-10,-34,-21,-12,-9,-3
6,-3,-9,-1,7,-6,-10,-34,-20,-12,-8,-2
3,-3,-6,0,5,-4,-9,-34,-20,-11,-7,0
1,-3,-4,0,2,-3,-8,-33,-19,-9,-8,1
0,-3,-3,1,1,-2,-7,-32,-18,-7,-7,1
-1,-2,-2,1,0,-2,-6,-31,-17,-3,-4,1
-2,-1,-1,1,0,-1,-6,-31,-16,0,-2,1
-2,0,0,1,-1,0,-6,-31,-15,0,-1,1
-2,1,2,0,-1,1,-8,-31,-14,0,0,2
-2,1,3,0,-2,2,-9,-31,-14,1,0,2
-2,1,3,0,-2,2,-10,-31,-15,1,1,3
-2,2,3,0,-2,2,-11,-31,-15,1,1,3
-2,2,3,0,-2,2,-12,-32,-16,0,1,3
-2,2,3,0,-3,2,-12,-32,-17,0,1,4
-2,2,3,0,-3,2,-12,-32,-18,0,1,6
-2,2,4,0,-3,2,-13,-32,-18,0,2,7
-2,2,4,0,-3,3,-13,-33,-18,1,2,7
-2,2,4,0,-3,3,-14,-35,-18,1,3,7
-2,2,4,0,-3,3,-14,-36,-18,2,4,8
-2,3,5,-1,-3,4,-15,-35,-18,3,5,8
-2,3,5,-1,-4,4,-15,-34,-19,4,6,9
-2,3,5,-1,-4,4,-15,-34,-19,5,8,10
-2,4,5,-1,-4,4,-15,-35,-19,6,9,11
-2,5,5,-2,-4,4,-16,-35,-19,7,9,12
-1,6,6,-2,-4,5,-16,-36,-19,8,10,12
-1,7,7,-2,-5,6,-17,-36,-19,10,11,13
-1,7,8,-2,-5,7,-18,-38,-19,11,13,14
-1,8,9,-3,-5,8,-19,-39,-19,13,14,15
-1,8,9,-4,-5,9,-19,-40,-19,14,16,15
-1,9,10,-5,-5,9,-20,-41,-19,16,18,16
-1,9,10,-5,-5,10,-20,-41,-19,17,20,17
0,10,10,-6,-5,11,-21,-41,-19,19,22,19
0,11,11,-6,-6,12,-22,-42,-19,21,23,20
0,12,12,-6,-6,12,-23,-43,-19,23,25,22
0,13,13,-7,-7,13,-24,-43,-19,25,27,23
0,15,14,-8,-7,15,-25,-44,-19,27,29,24
0,16,16,-8,-8,16,-26,-44,-19,29,32,25
0,17,17,-9,-9,17,-27,-45,-19,31,34,26
0,18,18,-9,-10,18,-27,-46,-19,33,35,27
0,19,19,-10,-10,19,-28,-47,-19,34,36,28
0,20,19,-10,-10,19,-30,-47,-19,35,37,29
1,21,20,-11,-10,20,-31,-46,-19,36,38,30
2,23,21,-13,-10,22,-33,-46,-19,38,40,31
2,24,21,-14,-10,23,-34,-47,-19,40,41,32
2,25,22,-15,-10,24,-36,-47,-19,42,43,32
2,26,23,-15,-11,25,-36,-47,-19,43,44,31
2,27,24,-16,-11,26,-37,-47,-18,44,45,31
3,28,25,-16,-11,27,-38,-48,-18,45,45,32
4,30,25,-17,-11,27,-39,-48,-17,45,45,32
5,31,25,-18,-11,28,-40,-48,-17,46,45,31
5,32,26,-19,-11,29,-41,-47,-16,46,45,31
6,33,26,-19,-11,30,-41,-47,-16,47,46,31
6,33,27,-20,-11,30,-42,-46,-15,49,48,32
7,34,27,-21,-10,31,-44,-45,-14,51,50,34
8,35,27,-22,-9,31,-45,-45,-14,53,52,35
8,35,27,-22,-9,32,-45,-45,-13,54,54,37
8,35,27,-22,-10,31,-45,-44,-12,55,55,38
8,35,27,-21,-10,31,-44,-43,-11,56,57,40
7,34,27,-20,-10,30,-43,-41,-9,56,58,42
7,34,26,-20,-10,30,-41,-39,-8,56,58,43
8,33,25,-20,-9,29,-39,-37,-6,56,58,44
8,31,23,-20,-8,27,-38,-35,-4,56,58,44
8,29,21,-19,-7,25,-37,-34,-3,56,59,45
8,28,20,-19,-6,24,-36,-32,-2,57,59,45
8,27,19,-18,-6,24,-35,-31,-2,57,59,44
8,27,18,-18,-5,22,-36,-30,-1,57,58,42
8,26,17,-17,-4,21,-36,-28,-1,57,58,42
9,25,16,-17,-3,20,-35,-26,0,58,59,42
9,25,15,-17,-3,20,-35,-25,0,58,59,42
9,24,15,-17,-2,20,-35,-23,1,58,59,42
9,24,14,-17,-2,20,-34,-22,3,57,59,42
9,24,14,-17,-2,20,-33,-21,4,56,58,41
9,24,14,-17,-3,20,-32,-19,5,56,58,40
9,23,14,-16,-3,19,-31,-18,6,55,57,39
9,23,14,-16,-3,19,-31,-17,6,53,54,37
9,23,13,-16,-3,18,-30,-16,7,52,52,35
9,22,13,-16,-3,18,-28,-15,8,50,49,33
9,21,12,-15,-2,17,-27,-14,9,49,47,31
9,19,11,-14,-2,15,-25,-13,10,47,46,30
8,18,10,-13,-1,14,-23,-11,11,46,45,30
8,18,9,-13,-1,13,-22,-8,12,46,45,29
8,17,9,-13,-1,13,-21,-7,12,46,45,29
8,17,9,-13,-1,13,-20,-6,12,46,45,28
8,17,9,-13,-1,13,-20,-6,12,46,44,28
8,17,9,-13,-1,13,-20,-5,13,46,44,28
8,17,9,-13,-1,13,-20,-4,13,45,44,28
7,16,9,-12,-1,13,-19,-3,14,44,43,28
7,15,8,-12,-1,12,-18,-2,14,42,42,28
7,14,7,-11,0,11,-17,-1,15,41,42,28
7,13,6,-11,0,10,-16,0,16,41,42,27
7,12,6,-10,0,10,-16,0,16,40,40,25
5,12,7,-9,-1,10,-15,0,16,38,37,23
4,12,8,-8,-2,10,-13,1,17,37,35,21
3,12,8,-8,-3,10,-12,3,17,35,32,19
3,12,8,-8,-3,10,-11,3,17,33,29,16
3,12,8,-8,-3,10,-10,4,17,31,26,13
4,12,8,-8,-3,10,-9,5,18,30,25,11
4,12,8,-7,-3,10,-8,6,19,29,24,10
3,11,7,-7,-3,9,-7,7,20,28,24,9
3,10,7,-7,-3,9,-7,7,20,28,24,10
3,10,7,-7,-2,9,-7,6,19,29,25,10
3,10,7,-7,-2,9,-7,6,19,31,25,11
3,10,7,-7,-3,9,-7,8,18,31,26,12
2,10,7,-6,-3,9,-6,10,18,29,26,13
1,9,7,-5,-3,8,-5,10,19,27,25,13
1,8,6,-5,-3,7,-4,11,19,25,25,14
1,7,5,-4,-3,6,-3,11,20,23,24,14
1,6,4,-4,-3,5,-3,12,20,21,23,13
2,6,4,-4,-2,5,-2,13,19,19,21,12
2,6,4,-4,-2,5,-2,14,19,19,19,11
2,6,4,-4,-2,5,-3,15,19,20,19,11
3,6,3,-4,0,5,-3,15,18,20,18,10
4,6,1,-5,1,4,-3,15,18,19,17,8
5,5,0,-5,1,3,-2,15,17,18,16,7
5,4,0,-4,2,2,-1,15,17,17,15,5
5,4,-1,-4,2,1,-1,15,17,17,15,4
5,3,-1,-4,2,1,0,16,17,16,14,4
4,2,-1,-4,2,1,0,16,18,15,14,4
3,1,-1,-2,2,0,0,16,18,14,13,4
2,0,-2,-1,2,-1,0,16,18,12,12,4
1,-1,-2,0,1,-1,0,16,17,11,11,4
0,0,-1,0,0,0,0,16,16,11,10,4
0,1,0,-1,0,1,0,16,15,10,9,4
0,3,2,-2,-2,3,-1,14,14,10,8,4
0,4,4,-2,-3,4,-1,13,13,10,7,3
-1,4,5,-2,-3,4,-1,12,12,10,7,2
-1,4,5,-2,-3,5,0,12,12,10,7,2
0,4,4,-2,-3,5,0,12,12,9,6,2
0,5,4,-3,-2,5,1,12,13,8,5,1
0,5,4,-3,-2,5,2,13,13,8,4,0
0,5,4,-3,-2,5,3,13,13,7,4,0
0,5,4,-3,-2,4,3,14,13,7,4,0
0,4,3,-2,-2,3,4,14,13,5,3,-1
0,2,2,-1,-2,2,4,14,14,3,2,-2
0,1,0,0,-1,1,5,14,14,2,1,-2
0,0,0,0,-1,0,6,14,15,1,0,-2
-1,-2,-2,1,0,-1,7,14,15,1,0,-2
-1,-4,-4,2,0,-3,7,13,15,0,-1,-2
-1,-5,-4,3,0,-4,8,13,14,0,0,-1
-2,-5,-3,4,0,-3,9,13,14,1,0,-1
-3,-4,-2,4,-1,-3,8,12,12,2,0,-2
-3,-2,0,3,-2,-1,7,12,11,2,-1,-2
-4,-1,1,3,-3,0,7,11,11,2,-1,-3
-4,-1,2,3,-4,1,7,11,10,1,-2,-3
-4,0,2,2,-4,1,8,10,10,0,-2,-3
-4,-1,2,2,-4,1,8,10,10,0,-2,-3
-4,-1,2,3,-4,1,8,9,10,0,-1,-2
-4,-1,2,3,-4,1,8,9,10,0,0,-1
-4,-1,1,3,-3,0,8,8,9,-1,-1,-2
-3,-2,0,3,-2,0,7,8,9,-4,-4,-4
-3,-3,-1,3,-1,-2,7,7,8,-6,-5,-5
-3,-4,-1,3,-1,-2,7,7,8,-6,-6,-5
-3,-4,-2,3,0,-3,7,8,8,-6,-6,-6
-3,-5,-2,3,0,-3,6,8,7,-5,-6,-6
-2,-5,-2,3,0,-3,6,9,7,-5,-5,-6
-2,-5,-3,3,0,-3,6,8,7,-4,-4,-5
-2,-5,-3,3,0,-3,6,6,7,-3,-3,-4
-2,-6,-4,4,0,-4,7,5,8,-2,-3,-3
-3,-7,-5,5,0,-5,8,6,8,-2,-3,-2
-3,-7,-5,5,0,-5,8,7,7,-1,-3,-2
-2,-5,-4,4,0,-4,7,6,5,0,-3,-2
-2,-4,-2,3,0,-3,6,5,3,0,-4,-4
-3,-4,-1,3,-1,-3,4,3,2,-1,-6,-6
-3,-3,0,3,-1,-2,4,3,2,-3,-6,-6
-4,-3,1,3,-2,0,5,4,3,-4,-6,-6
-4,-2,1,3,-3,0,6,5,4,-5,-6,-5
-4,-3,0,3,-2,-1,6,6,5,-7,-7,-5
-4,-5,-1,3,-1,-3,7,6,6,-7,-7,-5
-4,-6,-2,4,-1,-4,8,6,6,-7,-7,-4
-4,-7,-3,5,-1,-5,9,5,6,-5,-5,-3
-4,-7,-3,5,-1,-6,9,5,5,-4,-3,-2
-4,-7,-3,6,-1,-5,7,4,5,-3,-1,0
-4,-6,-2,5,-1,-4,5,4,4,-1,1,1
-4,-4,-1,4,-1,-3,3,3,3,2,5,4
-3,-3,-1,3,-1,-2,2,3,3,7,10,7
-3,-2,0,2,-2,0,0,2,4,13,16,9
-2,1,2,0,-2,1,0,3,6,21,24,12
-1,4,3,-2,-2,3,-1,4,8,31,34,14
0,6,4,-3,-2,5,-1,5,11,43,45,17
0,6,4,-4,-2,6,0,8,15,56,58,20
1,6,4,-4,-2,6,0,13,21,70,72,25
2,6,2,-4,0,5,1,17,27,86,88,32
4,6,1,-6,1,4,0,21,31,102,105,41
7,7,0,-8,3,4,0,26,35,117,122,49
10,8,-2,-9,6,3,-1,32,39,128,134,55
13,7,-6,-10,9,0,0,39,41,129,137,56
16,4,-12,-11,14,-4,1,48,43,120,127,51
19,0,-20,-10,19,-10,2,58,44,103,108,40
20,-5,-27,-7,23,-16,2,69,44,84,85,26
20,-12,-33,-4,25,-22,3,79,46,64,58,11
19,-17,-37,-1,27,-27,7,90,48,42,28,-6
18,-21,-40,0,28,-30,11,98,49,20,-2,-24
17,-24,-42,3,29,-33,14,105,49,-1,-31,-41
15,-28,-43,6,29,-36,16,111,50,-22,-57,-56
12,-32,-44,10,28,-38,19,116,50,-41,-80,-69
10,-35,-45,12,27,-40,23,119,49,-60,-100,-79
8,-37,-45,14,26,-41,27,121,47,-78,-118,-88
5,-40,-46,17,25,-43,31,123,45,-96,-134,-96
3,-44,-49,20,26,-46,35,126,43,-112,-149,-104
2,-50,-53,23,27,-51,39,129,41,-126,-162,-112
1,-57,-57,27,28,-56,42,130,39,-138,-173,-119
-1,-63,-61,32,29,-62,45,131,37,-148,-181,-125
-4,-67,-62,36,29,-65,48,132,36,-154,-186,-128
-5,-68,-62,37,28,-66,49,132,35,-158,-190,-130
-6,-67,-60,37,27,-64,50,130,35,-161,-193,-133
-8,-64,-56,36,24,-60,52,128,34,-161,-195,-135
-11,-61,-51,36,19,-56,54,126,34,-161,-196,-136
-15,-59,-44,36,14,-51,59,125,34,-162,-196,-137
-19,-58,-39,38,9,-48,64,124,36,-163,-196,-137
-23,-59,-36,41,5,-48,68,121,37,-165,-195,-137
-28,-61,-33,43,2,-47,72,117,36,-166,-193,-135
-32,-61,-28,45,-2,-45,75,111,33,-164,-188,-131
-36,-60,-24,47,-5,-42,78,104,29,-161,-182,-127
-40,-59,-20,48,-9,-40,80,97,25,-156,-176,-123
-43,-57,-15,49,-13,-36,83,90,22,-149,-168,-117
-44,-54,-11,48,-17,-32,86,82,20,-142,-159,-111
-45,-53,-8,48,-19,-30,87,73,15,-136,-149,-104
-47,-52,-5,49,-21,-29,86,62,9,-130,-140,-96
-48,-51,-3,49,-22,-27,84,50,2,-125,-130,-87
-49,-50,-1,49,-24,-26,81,40,-4,-120,-123,-80
-50,-48,2,49,-26,-23,77,32,-8,-114,-116,-74
-50,-44,5,46,-28,-19,74,25,-12,-108,-109,-69
-49,-40,8,43,-29,-15,71,17,-14,-104,-105,-65
-47,-37,10,41,-29,-13,68,9,-17,-101,-101,-63
-45,-34,10,39,-28,-12,64,1,-21,-99,-98,-61
-43,-33,9,38,-27,-12,59,-5,-26,-95,-94,-60
-41,-33,8,37,-26,-13,57,-10,-29,-92,-91,-59
-41,-33,7,37,-25,-13,57,-11,-29,-89,-86,-57
-39,-33,6,36,-23,-14,57,-11,-27,-84,-81,-53
-36,-32,3,33,-20,-14,55,-11,-25,-80,-76,-49
-32,-30,1,30,-17,-14,52,-13,-24,-75,-71,-45
-30,-28,1,28,-16,-13,49,-14,-23,-70,-67,-42
-29,-25,3,27,-16,-10,47,-13,-21,-65,-64,-40
-29,-23,5,26,-17,-8,46,-13,-19,-62,-62,-39
-28,-22,6,25,-17,-8,44,-15,-18,-60,-60,-38
-27,-22,4,25,-16,-9,42,-16,-18,-58,-58,-36
-26,-24,1,25,-14,-11,39,-15,-18,-54,-55,-33
-26,-25,0,25,-13,-13,37,-14,-18,-50,-50,-29
-26,-27,-2,26,-12,-15,33,-15,-20,-48,-47,-27
-25,-27,-2,25,-12,-15,30,-18,-24,-47,-45,-25
-24,-24,-1,24,-12,-13,27,-22,-28,-46,-44,-24
-22,-22,0,22,-12,-11,26,-25,-31,-45,-43,-24
-21,-21,0,21,-11,-11,24,-28,-34,-45,-43,-25
-20,-22,-1,21,-9,-12,23,-31,-35,-46,-43,-26
-20,-23,-3,21,-8,-14,21,-33,-37,-47,-42,-25
-19,-24,-5,21,-7,-15,19,-34,-37,-45,-40,-24
-18,-25,-8,21,-5,-17,17,-35,-38,-42,-37,-22
-17,-27,-11,21,-2,-19,14,-36,-38,-37,-34,-21
-15,-28,-14,21,0,-20,10,-38,-39,-34,-32,-20
-13,-28,-16,20,1,-21,5,-39,-38,-32,-30,-19
-10,-28,-18,19,4,-22,2,-37,-36,-30,-28,-18
-6,-26,-20,16,7,-23,-1,-35,-34,-29,-26,-17
-2,-23,-21,13,9,-23,-5,-32,-33,-27,-24,-15
0,-20,-21,10,10,-21,-8,-30,-31,-24,-21,-13
0,-18,-19,7,9,-19,-11,-30,-29,-21,-19,-12
0,-16,-17,6,8,-16,-12,-30,-28,-18,-17,-11
0,-14,-16,6,7,-15,-11,-29,-26,-16,-16,-11
1,-14,-15,6,7,-14,-10,-27,-24,-15,-15,-10
2,-13,-16,6,8,-14,-9,-26,-22,-15,-14,-9
3,-13,-16,5,9,-14,-9,-25,-22,-14,-13,-7
4,-11,-15,3,9,-13,-9,-25,-22,-12,-11,-4
5,-8,-14,1,10,-12,-9,-25,-22,-9,-8,-1
7,-6,-14,-1,11,-10,-9,-25,-21,-8,-6,1
8,-5,-14,-2,11,-10,-9,-24,-20,-8,-5,3
7,-5,-14,-2,10,-10,-8,-24,-18,-8,-4,4
5,-6,-12,0,8,-9,-6,-23,-17,-8,-3,5
3,-5,-8,0,5,-6,-5,-23,-16,-6,-2,6
0,-3,-3,1,1,-2,-5,-23,-16,-3,-1,6
-1,1,2,0,-1,1,-4,-23,-16,-1,0,7
-2,3,5,-1,-3,4,-4,-22,-15,0,1,7
-2,5,7,-2,-5,6,-3,-21,-14,0,2,7
-2,7,8,-3,-5,7,-4,-21,-14,0,2,7
-3,7,9,-3,-6,8,-5,-21,-14,0,3,8
-4,7,10,-3,-7,8,-5,-21,-13,1,3,8
-4,5,9,-2,-7,7,-5,-21,-13,2,4,8
-3,4,7,-1,-6,5,-6,-21,-12,3,5,9
-2,3,6,0,-5,4,-7,-21,-13,4,6,10
-2,3,6,-1,-5,4,-8,-21,-13,4,7,11
-2,4,6,-2,-5,4,-8,-22,-14,5,7,12
-2,4,6,-2,-5,5,-9,-23,-15,6,8,14
-3,2,6,0,-5,4,-10,-24,-15,7,9,15
-5,1,5,1,-6,3,-10,-24,-16,7,10,16
-5,0,5,1,-5,3,-11,-24,-16,7,11,17
-4,2,5,0,-5,4,-13,-25,-17,8,12,17
-3,5,7,-1,-6,6,-15,-26,-18,10,13,18
-2,8,9,-3,-6,10,-17,-28,-20,12,15,19
-1,12,12,-5,-7,13,-18,-29,-20,14,16,20
-1,14,15,-6,-8,15,-18,-30,-19,16,18,21
-1,14,15,-7,-8,15,-16,-30,-18,16,19,21
-1,12,14,-6,-7,13,-15,-30,-17,16,20,21
-1,10,12,-5,-7,11,-15,-30,-17,17,21,21
-1,9,11,-5,-7,10,-15,-30,-18,19,23,22
-1,10,11,-5,-7,10,-17,-31,-18,22,26,25
0,13,12,-6,-7,12,-19,-33,-19,24,29,28
0,15,14,-7,-7,14,-20,-34,-19,26,32,31
-1,15,15,-7,-8,15,-20,-34,-19,28,35,34
-2,16,16,-7,-9,16,-19,-34,-18,31,38,36
-1,17,17,-8,-9,17,-18,-34,-18,34,41,37
0,17,18,-8,-9,17,-19,-35,-18,38,44,38
0,18,18,-9,-9,17,-21,-36,-19,40,45,39
0,18,18,-9,-10,18,-23,-36,-20,42,47,40
-1,19,19,-9,-10,19,-24,-36,-19,43,49,42
0,20,19,-10,-10,19,-25,-36,-18,43,51,44
0,21,20,-11,-10,20,-26,-37,-18,42,52,45
1,22,20,-12,-9,21,-27,-38,-18,43,54,47
2,24,20,-14,-9,22,-28,-39,-18,46,56,49
4,25,20,-15,-9,23,-29,-39,-18,49,59,51
4,26,21,-16,-9,24,-30,-39,-18,53,63,53
5,28,23,-17,-10,26,-31,-39,-18,57,66,54
5,29,24,-17,-10,27,-32,-40,-18,60,68,56
4,29,24,-17,-10,27,-33,-40,-18,61,69,56
4,29,24,-17,-10,27,-33,-40,-17,62,70,57
4,28,23,-16,-10,25,-32,-39,-16,62,72,58
5,26,20,-15,-8,23,-31,-37,-15,63,74,60
5,24,18,-15,-7,21,-30,-35,-13,65,76,62
6,24,18,-15,-7,21,-31,-35,-13,67,77,63
6,25,18,-16,-7,22,-33,-36,-14,68,78,64
7,27,19,-17,-7,23,-36,-37,-15,69,78,64
8,29,20,-19,-6,25,-37,-37,-14,70,78,64
8,30,20,-19,-6,25,-37,-36,-13,70,78,64
9,30,19,-20,-5,24,-37,-34,-11,71,78,64
10,29,18,-20,-3,23,-38,-33,-11,71,78,64
10,29,18,-20,-3,23,-40,-32,-11,71,79,64
10,30,19,-21,-4,24,-41,-32,-11,71,80,64
11,31,20,-22,-5,26,-40,-31,-10,72,81,65
11,32,21,-22,-6,27,-39,-30,-9,74,82,65
11,32,21,-22,-5,27,-37,-28,-8,75,83,66
11,32,20,-22,-4,26,-36,-27,-6,76,83,66
12,31,18,-22,-3,24,-34,-25,-4,75,82,66
12,29,16,-21,-2,23,-33,-23,-2,72,80,65
12,27,14,-20,-1,21,-33,-21,-1,70,78,64
13,25,12,-20,0,19,-33,-19,0,68,77,63
13,24,10,-19,0,18,-32,-17,0,68,76,62
13,24,10,-19,1,17,-32,-16,1,69,76,62
13,24,10,-18,1,17,-32,-15,3,69,76,61
13,24,10,-19,1,17,-32,-15,4,70,76,60
13,24,10,-19,1,17,-31,-13,6,70,76,59
13,25,10,-19,1,17,-31,-11,7,69,74,57
13,25,11,-19,1,18,-31,-11,7,69,72,55
13,26,11,-19,0,18,-29,-11,8,68,71,53
13,26,12,-19,0,19,-28,-11,8,67,69,52
12,26,13,-19,0,19,-27,-10,8,66,67,51
12,25,12,-19,0,19,-25,-9,9,64,65,49
12,24,12,-18,0,18,-24,-7,10,62,64,48
11,24,12,-17,-1,18,-24,-4,11,61,63,48
10,23,12,-17,-1,18,-23,-1,12,60,61,47
10,23,12,-16,-2,18,-22,0,13,58,60,46
9,22,12,-16,-2,17,-21,0,13,57,58,45
9,21,11,-15,-1,16,-20,0,14,56,57,44
9,20,11,-15,-1,16,-18,0,15,54,56,43
8,19,10,-14,-1,15,-16,1,16,53,55,43
8,19,10,-13,-1,14,-15,1,17,52,55,42
8,18,10,-13,-1,14,-15,1,17,52,55,42
8,18,10,-12,-1,14,-14,2,17,51,54,41
8,18,10,-12,-1,14,-14,2,16,51,53,39
8,18,10,-12,-2,14,-15,3,16,51,51,38
7,18,10,-12,-2,14,-15,3,15,50,49,36
7,18,10,-13,-2,14,-14,4,15,48,47,35
7,18,10,-13,-2,14,-13,5,15,46,45,33
7,18,10,-13,-2,14,-12,5,15,44,44,32
7,18,10,-13,-2,14,-12,4,15,42,43,31
7,17,9,-12,-2,13,-11,4,15,41,42,30
7,16,9,-12,-2,13,-10,5,16,40,41,30
6,15,9,-11,-2,12,-9,6,16,40,40,29
6,14,8,-10,-1,11,-8,6,16,39,39,28
6,14,7,-10,-1,10,-8,6,15,38,37,27
6,13,6,-9,0,10,-7,7,15,36,36,26
6,13,6,-9,0,9,-7,7,15,35,35,25
6,13,6,-9,0,9,-7,7,15,34,34,25
6,13,6,-9,0,9,-7,7,14,33,34,25
7,13,6,-9,0,9,-7,7,14,32,33,25
7,13,5,-9,0,9,-7,8,13,31,32,24
7,12,5,-9,1,8,-7,8,13,30,31,23
7,11,4,-9,1,8,-6,8,13,29,29,22
7,11,3,-9,1,7,-6,8,13,28,28,21
6,10,3,-9,1,7,-6,9,12,27,28,21
6,10,3,-8,1,6,-5,9,12,26,27,20
6,9,3,-8,1,6,-5,9,11,25,27,20
6,9,2,-7,2,5,-4,9,11,24,27,20
6,8,1,-7,2,4,-4,9,11,23,26,19
5,8,1,-6,2,4,-4,9,10,22,25,18
5,7,1,-6,2,4,-4,9,10,21,23,18
5,7,1,-6,2,4,-3,9,10,20,22,17
5,7,1,-6,2,4,-3,10,10,19,21,17
6,7,0,-6,2,3,-2,10,10,18,21,17
6,6,0,-6,3,3,-2,11,10,17,20,16
7,6,-1,-6,3,2,-2,11,10,17,20,16
7,5,-1,-6,4,2,-2,11,10,17,20,16
6,5,-1,-6,4,1,-1,11,10,17,19,16
6,4,-1,-6,4,1,-1,11,10,17,18,15
6,4,-2,-6,4,1,0,11,10,16,17,15
6,3,-2,-6,4,1,0,11,10,15,17,15
6,3,-3,-5,4,0,0,11,9,15,16,14
6,3,-3,-5,4,0,0,11,9,14,16,14
6,3,-3,-4,4,0,0,10,9,13,16,14
5,3,-2,-4,3,0,0,10,9,13,16,14
5,3,-2,-4,3,0,0,10,8,12,16,14
5,2,-3,-4,4,0,1,10,8,12,15,14
5,2,-3,-4,4,0,1,10,7,11,15,14
5,1,-3,-4,4,0,1,10,7,11,14,14
5,1,-3,-4,4,0,1,10,7,11,14,14
5,1,-3,-3,3,0,1,10,7,11,14,13
4,1,-3,-3,3,-1,1,10,7,10,14,13
5,1,-4,-3,4,-1,1,10,7,10,13,12
5,1,-4,-3,4,-2,1,10,6,9,13,12
5,1,-4,-3,4,-2,1,9,6,8,13,12
5,1,-4,-3,4,-2,1,9,5,7,12,12
5,1,-4,-4,4,-2,1,8,5,7,12,11
5,0,-4,-4,5,-2,1,7,5,6,11,11
5,0,-5,-4,5,-3,1,7,5,6,11,11
5,0,-5,-3,5,-3,1,7,5,6,11,12
5,-1,-5,-3,5,-3,1,8,5,6,11,12
4,-1,-5,-2,5,-3,1,7,5,6,11,12
4,-1,-6,-2,5,-3,1,7,4,6,11,12
4,-2,-6,-2,5,-3,1,6,4,6,11,12
4,-2,-6,-2,5,-3,1,6,3,5,11,12
4,-2,-6,-2,4,-3,1,6,3,5,11,12
4,-2,-6,-2,4,-4,1,6,3,4,11,11
4,-2,-6,-2,4,-4,0,5,3,4,11,11
4,-2,-7,-1,5,-4,0,5,2,3,10,10
4,-2,-7,-1,5,-4,0,6,2,3,10,10
4,-3,-7,-1,5,-5,0,6,2,3,10,9
4,-3,-7,-1,6,-5,0,6,2,3,10,9
4,-3,-8,-1,6,-6,0,5,1,3,9,9
5,-3,-8,-1,6,-6,0,4,1,3,9,9
5,-3,-8,-1,6,-6,0,3,1,2,9,9
5,-3,-8,-1,6,-6,0,3,1,2,9,9
5,-3,-8,-1,6,-6,0,3,1,1,9,9
5,-3,-9,-1,6,-6,0,3,0,0,8,9
5,-3,-9,-1,6,-6,0,3,0,0,8,9
5,-3,-9,-1,6,-5,0,3,0,0,8,9
5,-3,-8,-1,6,-5,0,3,0,0,8,9
5,-3,-8,-1,6,-5,-1,2,0,0,8,9
5,-2,-8,-1,6,-5,-1,2,0,0,8,9
5,-2,-8,-2,6,-5,-1,1,0,1,8,9
5,-2,-8,-2,6,-5,-1,1,0,1,8,9
5,-2,-7,-2,6,-5,-1,1,0,1,7,9
5,-1,-7,-2,6,-4,-2,0,0,1,7,9
5,-1,-6,-2,5,-4,-2,0,0,1,8,9
5,0,-6,-2,5,-3,-2,0,0,3,10,10
5,0,-5,-3,5,-3,-3,-1,0,4,12,11
5,1,-5,-3,5,-2,-3,-1,0,7,15,12
6,2,-4,-4,5,-2,-3,-1,0,10,19,14
7,3,-4,-5,5,-1,-3,-1,0,15,25,17
7,4,-3,-6,5,0,-4,-1,1,21,31,21
8,5,-3,-7,5,0,-4,0,4,30,40,26
9,6,-2,-8,5,1,-5,0,7,40,51,31
9,8,-2,-9,5,2,-5,2,10,52,63,36
10,9,-1,-10,5,3,-6,5,15,66,76,41
11,10,-1,-11,6,4,-6,9,20,81,90,46
12,12,0,-12,6,6,-6,12,25,97,105,52
14,14,0,-14,6,7,-7,16,30,114,122,59
16,16,0,-16,7,8,-7,22,35,129,139,66
19,16,-3,-18,10,7,-8,29,39,140,150,70
23,16,-7,-19,14,5,-9,36,42,141,152,69
25,13,-13,-19,19,1,-8,44,44,133,140,62
26,9,-18,-17,22,-4,-7,54,45,118,120,49
26,4,-23,-15,25,-10,-5,64,46,100,97,35
26,-1,-28,-12,27,-15,-2,74,48,79,71,18
25,-7,-33,-9,28,-20,2,83,51,56,40,0
23,-13,-37,-6,29,-25,7,92,53,32,9,-18
21,-18,-40,-2,30,-29,12,100,55,8,-20,-35
19,-22,-41,2,30,-32,17,108,57,-12,-46,-50
16,-26,-42,5,29,-34,21,113,58,-31,-67,-62
13,-29,-43,8,28,-36,24,117,57,-50,-87,-72
12,-32,-44,10,28,-38,26,119,54,-68,-104,-82
11,-35,-47,12,28,-41,28,121,50,-85,-120,-91
10,-39,-49,14,29,-44,31,123,47,-101,-134,-99
8,-44,-52,17,29,-48,33,124,43,-116,-147,-107
6,-47,-54,20,29,-50,37,125,40,-128,-159,-115
4,-50,-54,22,29,-52,40,126,38,-137,-168,-121
2,-51,-54,24,28,-53,42,126,37,-143,-175,-125
0,-52,-53,26,27,-53,45,125,37,-149,-180,-129
-2,-53,-52,27,25,-53,48,125,37,-154,-184,-131
-5,-53,-50,28,22,-52,51,124,37,-158,-187,-132
-7,-53,-48,29,20,-51,54,123,37,-160,-188,-132
-9,-53,-45,30,17,-50,57,122,38,-160,-189,-132
-11,-53,-43,32,15,-49,61,120,39,-159,-186,-132
-14,-53,-39,33,12,-47,65,118,40,-157,-183,-130
-17,-52,-35,35,9,-44,68,115,39,-156,-179,-127
-21,-52,-31,37,5,-42,71,109,35,-155,-174,-124
-25,-52,-27,39,1,-40,74,102,31,-153,-169,-121
-29,-51,-23,40,-3,-37,77,95,28,-150,-163,-117
-33,-50,-18,41,-8,-34,80,88,25,-145,-156,-113
-37,-47,-11,42,-14,-30,82,79,21,-139,-148,-107
-39,-44,-5,41,-18,-25,81,68,16,-132,-140,-100
-40,-40,0,40,-21,-20,79,56,9,-126,-131,-93
-41,-37,4,39,-23,-16,75,43,1,-121,-123,-86
-41,-34,7,38,-24,-13,72,32,-5,-116,-116,-79
-42,-32,9,37,-25,-11,69,23,-11,-111,-109,-73
-41,-30,10,36,-25,-10,66,16,-14,-107,-103,-68
-40,-29,11,34,-25,-9,63,8,-17,-103,-98,-66
-39,-27,11,33,-25,-8,60,0,-21,-100,-94,-64
-37,-26,11,32,-25,-8,57,-8,-26,-97,-90,-62
-36,-24,11,30,-25,-7,53,-14,-30,-93,-87,-61
-35,-23,11,29,-24,-6,51,-17,-31,-89,-84,-58
-34,-22,11,28,-22,-6,50,-18,-30,-85,-80,-55
-33,-21,11,27,-21,-5,48,-19,-28,-80,-75,-51
-32,-20,10,26,-20,-5,46,-20,-26,-75,-70,-47
-30,-18,10,24,-20,-5,44,-20,-25,-71,-65,-43
-28,-17,10,22,-19,-4,43,-20,-22,-67,-61,-41
-27,-15,10,21,-19,-3,42,-18,-19,-63,-58,-39
-25,-14,11,19,-19,-2,41,-18,-16,-60,-55,-37
-24,-13,10,18,-18,-2,40,-18,-14,-57,-51,-36
-23,-13,10,18,-17,-2,38,-19,-14,-55,-48,-35
-22,-13,8,17,-15,-2,35,-19,-15,-53,-46,-33
-21,-13,7,17,-14,-3,31,-21,-18,-53,-44,-32
-19,-13,6,16,-13,-4,27,-24,-22,-53,-44,-31
-18,-13,4,15,-12,-4,23,-28,-27,-53,-45,-31
-17,-13,3,15,-11,-5,21,-32,-31,-53,-46,-30
-16,-13,3,14,-11,-6,19,-36,-34,-52,-46,-29
-16,-13,2,14,-10,-6,16,-40,-36,-50,-44,-29
-15,-13,1,14,-9,-6,14,-43,-38,-48,-42,-29
-15,-14,0,14,-7,-7,11,-46,-40,-46,-40,-29
-14,-14,-1,14,-5,-8,8,-48,-41,-45,-37,-28
-12,-14,-3,13,-4,-8,6,-50,-41,-43,-34,-26
-10,-14,-5,12,-2,-9,3,-51,-41,-41,-32,-24
-8,-14,-6,11,-1,-10,0,-51,-41,-39,-31,-22
-6,-14,-8,10,0,-10,-2,-50,-40,-37,-29,-21
-4,-13,-9,9,1,-11,-5,-49,-38,-34,-26,-19
-3,-12,-9,7,2,-11,-8,-47,-35,-31,-23,-18
-1,-10,-9,6,3,-10,-11,-44,-33,-28,-21,-17
0,-8,-9,4,4,-9,-13,-41,-31,-26,-19,-15
0,-7,-8,3,4,-8,-15,-39,-29,-23,-16,-13
1,-6,-8,2,5,-7,-16,-36,-27,-20,-14,-12
3,-5,-9,1,5,-7,-16,-35,-26,-19,-13,-12
4,-4,-8,0,6,-6,-15,-35,-25,-18,-12,-12
5,-3,-8,-1,6,-5,-14,-35,-24,-17,-11,-11
6,-2,-7,-2,6,-4,-13,-35,-23,-17,-10,-10
6,0,-7,-3,7,-3,-12,-34,-22,-16,-9,-8
7,1,-6,-4,7,-2,-11,-34,-21,-15,-9,-7
7,3,-4,-5,6,0,-10,-33,-19,-14,-7,-6
8,5,-3,-6,6,1,-9,-33,-18,-13,-6,-4
7,7,-1,-7,4,3,-8,-32,-16,-11,-5,-3
5,8,2,-6,1,5,-7,-32,-16,-11,-4,-2
3,8,5,-6,-1,7,-7,-33,-16,-11,-4,-1
2,9,8,-6,-3,8,-6,-33,-15,-11,-4,0
0,9,10,-5,-5,9,-5,-33,-15,-10,-3,0
0,10,10,-5,-5,9,-4,-32,-14,-9,-1,1
-1,10,11,-4,-6,10,-5,-32,-14,-8,0,2
-2,11,12,-4,-7,11,-6,-32,-14,-7,1,2
-2,11,13,-4,-7,12,-8,-32,-15,-6,1,2
-2,12,13,-4,-8,13,-9,-31,-15,-6,0,2
-2,12,14,-4,-8,13,-10,-31,-15,-5,0,2
-2,12,14,-5,-8,13,-10,-32,-15,-4,0,2
-2,12,14,-5,-8,13,-11,-32,-16,-3,1,2
-2,12,14,-5,-8,13,-11,-33,-16,-3,2,3
-2,12,14,-5,-8,13,-11,-33,-16,-2,3,5
-2,12,14,-5,-8,13,-12,-33,-17,-2,5,6
-1,12,14,-5,-8,13,-13,-33,-17,-1,7,8
-1,12,13,-6,-8,13,-13,-33,-18,0,8,10
0,12,13,-6,-7,13,-13,-34,-18,0,10,11
-1,12,14,-6,-8,13,-13,-34,-18,1,11,11
-1,13,14,-6,-8,13,-13,-35,-18,2,11,11
-1,13,14,-6,-8,14,-14,-36,-18,3,11,11
-1,14,14,-6,-8,14,-14,-37,-18,4,11,12
-1,14,15,-6,-8,15,-15,-38,-18,5,13,13
-1,14,15,-6,-8,15,-15,-38,-18,7,15,14
-1,15,16,-7,-9,16,-16,-39,-18,10,17,16
-1,15,16,-7,-9,16,-17,-39,-18,12,19,17
0,16,17,-8,-9,17,-18,-40,-19,13,21,17
0,17,17,-8,-9,17,-18,-42,-20,13,23,19
0,18,18,-9,-9,18,-19,-44,-20,14,24,21
0,19,18,-9,-9,18,-19,-44,-20,16,26,24
0,19,19,-9,-10,18,-20,-44,-20,18,27,25
0,19,20,-9,-10,19,-21,-44,-19,21,29,26
0,20,21,-10,-11,20,-22,-45,-19,23,31,27
0,21,21,-10,-11,21,-23,-46,-20,26,34,28
0,23,22,-11,-11,22,-24,-46,-20,29,38,30
1,24,22,-12,-11,23,-25,-47,-20,31,41,31
1,24,22,-12,-11,23,-26,-47,-20,33,43,32
2,25,22,-13,-10,23,-27,-48,-20,35,45,34
3,25,21,-14,-10,23,-28,-49,-20,37,47,36
4,26,21,-15,-9,24,-29,-49,-19,39,50,38
5,26,22,-15,-9,24,-30,-50,-19,41,52,40
5,27,22,-16,-9,24,-31,-50,-19,42,54,42
5,28,23,-16,-9,25,-31,-50,-19,44,56,45
5,29,23,-17,-9,26,-32,-50,-18,46,58,47
5,29,23,-17,-9,26,-33,-50,-18,47,59,48
6,30,23,-18,-9,27,-34,-50,-18,47,60,48
7,30,23,-18,-8,27,-35,-50,-17,49,62,49
7,31,23,-19,-8,27,-36,-50,-17,50,63,49
8,31,23,-19,-8,27,-37,-50,-17,52,64,50
8,31,23,-19,-8,27,-38,-50,-16,53,65,50
8,32,23,-20,-8,27,-39,-50,-16,54,66,50
9,32,23,-20,-7,27,-39,-50,-15,55,68,50
10,32,22,-21,-6,27,-39,-49,-15,55,68,51
11,32,22,-21,-6,27,-39,-48,-14,56,69,51
11,33,22,-22,-6,27,-39,-47,-13,57,69,52
11,33,21,-22,-6,27,-40,-46,-13,58,69,52
12,33,21,-22,-5,27,-40,-45,-12,58,69,52
12,33,21,-23,-5,27,-41,-44,-11,59,69,52
13,33,21,-23,-4,27,-41,-43,-10,59,70,53
13,33,21,-23,-4,27,-41,-42,-9,60,71,53
13,33,20,-23,-4,26,-41,-41,-8,61,71,54
14,33,19,-23,-3,26,-41,-39,-7,60,70,53
14,32,18,-23,-3,25,-40,-36,-7,60,69,53
14,32,18,-22,-3,25,-39,-35,-6,59,68,52
14,32,17,-22,-2,24,-39,-35,-4,59,68,51
14,31,16,-22,-2,23,-38,-35,-3,59,67,52
14,30,16,-21,-2,23,-38,-34,-2,59,66,51
14,29,16,-21,-1,22,-37,-32,-1,59,65,50
14,29,16,-22,-1,22,-37,-30,0,59,65,47
14,29,15,-22,-1,22,-37,-28,0,58,65,46
14,29,14,-21,0,22,-36,-27,1,57,64,46
14,28,14,-21,0,21,-36,-25,2,56,63,46
14,28,13,-21,0,21,-34,-23,2,56,62,46
15,27,12,-21,0,20,-33,-20,3,55,61,45
15,26,11,-20,1,19,-32,-20,3,54,59,44
15,26,11,-20,1,18,-31,-20,5,53,58,42
14,25,10,-19,1,18,-30,-18,6,52,56,40
13,24,10,-19,1,17,-29,-17,7,52,55,39
12,23,10,-18,1,17,-28,-15,8,51,55,38
12,23,10,-17,0,17,-27,-14,8,51,54,38
11,23,10,-17,0,17,-25,-14,8,51,53,37
10,22,10,-16,0,16,-24,-13,9,50,52,35
10,21,10,-15,0,15,-23,-11,9,49,51,35
10,20,9,-15,0,14,-22,-10,9,48,50,35
11,20,8,-15,0,14,-22,-8,10,46,49,35
11,19,7,-15,1,13,-21,-8,11,45,47,34
11,19,7,-14,2,13,-20,-7,11,44,45,32
11,18,6,-14,2,12,-19,-6,12,43,43,30
11,18,6,-14,2,12,-18,-5,12,42,41,28
11,17,6,-14,3,11,-17,-5,12,40,41,27
12,17,5,-14,3,11,-16,-4,13,39,42,26
11,16,5,-13,2,10,-15,-4,13,38,41,26
10,15,5,-12,2,10,-15,-3,13,36,38,25
10,14,5,-12,2,9,-14,-2,13,34,36,24
9,14,4,-11,2,9,-13,-1,14,33,34,24
9,13,4,-11,2,9,-12,-1,15,32,32,24
9,13,4,-11,2,9,-11,-1,15,32,31,22
9,13,3,-11,2,8,-11,0,15,32,31,20
9,12,2,-10,3,7,-10,0,15,32,31,19
9,12,2,-10,3,7,-10,1,15,32,31,19
9,11,1,-10,3,6,-9,2,15,32,31,18
9,11,0,-10,3,6,-9,2,15,31,30,17
9,10,0,-10,3,6,-8,3,16,30,30,18
9,10,0,-10,3,5,-8,3,16,29,29,18
9,9,0,-9,3,5,-7,3,15,29,28,17
9,9,0,-9,3,5,-7,3,15,28,27,15
9,9,0,-9,3,4,-6,3,14,26,26,14
9,8,0,-8,3,4,-6,4,14,25,25,14
8,8,0,-8,3,4,-6,5,14,24,24,14
8,8,-1,-8,4,3,-6,5,14,24,23,13
8,8,-1,-8,4,3,-6,5,14,23,22,13
8,7,-1,-7,4,2,-5,5,14,22,21,11
8,7,-1,-7,4,2,-5,5,13,21,20,10
8,6,-2,-7,5,1,-5,5,12,19,19,10
8,6,-2,-7,5,1,-5,5,12,17,18,10
8,5,-3,-6,5,1,-4,5,12,16,16,10
8,5,-3,-6,5,1,-4,6,12,16,13,9
8,5,-3,-6,5,1,-3,7,12,16,11,8
8,5,-3,-6,5,0,-3,7,12,15,11,7
9,4,-4,-6,6,0,-3,6,12,15,12,6
9,4,-5,-6,6,0,-3,6,12,15,13,6
8,3,-5,-6,6,0,-2,6,12,15,14,5
8,3,-4,-5,5,0,-2,7,12,15,14,5
8,3,-4,-5,5,0,-1,7,11,15,13,4
7,3,-4,-5,5,0,-1,6,11,14,13,4
7,3,-4,-4,4,0,-1,6,10,13,12,4
6,2,-4,-4,4,-1,-1,6,10,12,11,4
6,2,-5,-4,5,-1,-1,6,9,11,11,4
5,1,-5,-3,4,-1,0,6,9,10,11,5
4,1,-4,-3,4,-2,0,6,9,9,10,5
4,0,-4,-2,4,-2,0,7,9,8,8,4
4,0,-5,-2,4,-3,0,6,9,7,7,2
5,0,-5,-2,5,-3,0,6,9,7,6,1
5,0,-4,-2,5,-2,1,6,9,8,6,0
4,0,-4,-2,4,-2,1,6,9,8,6,0
3,0,-3,-1,3,-2,2,5,9,8,6,0
2,0,-3,0,3,-2,2,5,9,8,6,0
2,-1,-3,0,2,-2,2,5,8,8,6,0
2,0,-3,0,2,-2,2,5,7,8,6,0
3,0,-3,-1,3,-2,2,4,7,7,7,1
2,0,-3,-1,3,-2,2,4,7,6,7,2
2,0,-3,-1,2,-2,2,3,6,3,6,1
3,0,-3,-1,3,-2,2,3,5,0,4,0
3,0,-4,-1,3,-2,2,3,5,-1,1,-1
3,-1,-5,-1,4,-2,2,2,4,-1,-1,-2
4,-1,-6,-1,4,-3,2,2,4,0,-3,-2
4,-1,-6,-1,4,-4,2,3,4,2,-3,-2
3,-1,-5,0,4,-4,2,3,4,3,-1,-2
