leadI,leadII,leadIII,leadaVR,leadaVL,leadaVF,leadV1,leadV2,leadV3,leadV4,leadV5,leadV6
3,1,-2,-2,2,0,2,2,2,0,0,0
9,3,-6,-6,7,-1,6,7,7,0,0,-1
11,3,-8,-7,10,-3,8,9,9,0,0,-1
12,2,-10,-7,11,-4,9,10,10,-1,0,-2
12,1,-11,-6,11,-5,9,12,12,-1,-1,-3
13,2,-12,-7,13,-5,10,14,14,0,-1,-3
15,2,-12,-8,14,-5,11,17,18,0,-1,-3
15,3,-12,-9,14,-5,13,21,23,2,0,-3
15,3,-12,-9,13,-5,14,25,28,4,0,-3
15,4,-11,-9,13,-4,14,28,34,7,2,-2
15,5,-10,-10,13,-2,15,31,40,11,4,-2
14,6,-8,-11,12,0,15,33,45,16,8,0
15,9,-6,-12,11,2,15,35,49,21,13,2
18,12,-7,-15,13,3,13,37,50,26,18,6
24,14,-9,-19,17,3,10,38,51,31,24,9
29,16,-12,-22,21,2,7,39,54,37,30,13
33,20,-12,-27,23,4,4,42,65,47,39,19
38,28,-9,-34,24,9,0,44,80,61,52,27
44,41,-3,-43,24,18,-4,40,89,78,68,38
49,56,6,-53,22,30,-9,28,80,95,86,51
52,71,17,-62,18,43,-17,7,46,108,103,65
55,84,28,-69,14,56,-26,-20,0,117,117,78
56,96,39,-75,8,67,-34,-46,-45,122,128,90
55,105,50,-79,3,77,-39,-67,-89,122,134,99
53,107,55,-80,-1,81,-40,-80,-126,113,131,101
48,102,54,-75,-3,78,-35,-83,-153,96,117,96
39,92,53,-66,-7,73,-27,-79,-172,75,98,87
28,83,55,-56,-13,69,-19,-78,-192,54,79,76
17,74,56,-45,-19,65,-14,-78,-213,30,59,66
7,60,51,-33,-21,55,-8,-73,-230,3,35,52
0,42,41,-21,-21,42,0,-62,-241,-24,10,36
-5,26,31,-10,-18,28,5,-53,-246,-47,-11,20
-8,13,22,-2,-15,17,5,-51,-250,-64,-27,7
-10,0,12,5,-11,5,2,-52,-252,-79,-41,-3
-11,-12,0,12,-5,-7,-1,-55,-250,-90,-52,-13
-11,-23,-11,16,0,-18,-4,-60,-243,-98,-60,-20
-10,-30,-20,20,5,-25,-6,-65,-232,-102,-64,-26
-10,-35,-26,22,8,-31,-7,-72,-216,-102,-66,-30
-10,-38,-28,24,9,-34,-8,-79,-198,-99,-65,-32
-10,-39,-29,24,10,-34,-9,-85,-180,-93,-62,-32
-8,-37,-28,23,10,-33,-9,-87,-161,-85,-58,-31
-6,-32,-25,20,9,-29,-10,-85,-143,-76,-52,-29
-4,-26,-21,15,9,-24,-10,-80,-124,-66,-46,-26
-1,-19,-18,10,9,-19,-9,-72,-104,-56,-38,-22
1,-13,-16,6,9,-15,-8,-61,-86,-47,-32,-18
3,-9,-14,3,9,-12,-6,-52,-69,-39,-26,-15
5,-6,-13,0,9,-10,-4,-44,-54,-32,-21,-13
8,-4,-13,-1,10,-8,-2,-36,-40,-26,-17,-11
10,-2,-12,-3,10,-7,-1,-28,-27,-20,-13,-9
11,0,-10,-4,10,-5,0,-20,-16,-15,-10,-7
12,1,-9,-6,11,-4,1,-14,-8,-11,-7,-6
12,2,-9,-7,11,-3,3,-9,-1,-7,-5,-5
11,2,-9,-7,11,-2,4,-5,4,-4,-3,-3
12,3,-9,-8,11,-2,5,-2,8,-3,-2,-3
14,3,-11,-9,13,-4,6,0,11,-2,-2,-3
15,2,-13,-9,14,-5,6,0,14,-1,-2,-3
16,1,-14,-8,15,-6,6,1,16,-1,-2,-3
17,1,-15,-8,15,-7,6,1,18,-1,-2,-3
17,0,-16,-8,16,-7,6,2,20,0,-1,-3
16,0,-15,-8,15,-7,6,2,21,0,-1,-3
13,0,-14,-7,14,-7,6,2,22,1,-1,-3
12,-1,-14,-6,13,-7,6,3,23,1,-1,-3
13,-1,-14,-6,14,-7,6,3,24,2,0,-2
14,0,-15,-7,14,-7,6,4,25,2,0,-2
15,0,-14,-7,15,-7,7,4,26,3,1,-2
15,1,-14,-8,15,-7,7,5,28,4,1,-1
16,0,-15,-8,15,-8,7,5,29,4,1,-1
16,0,-16,-8,16,-8,6,5,29,4,1,-1
16,0,-15,-8,15,-8,6,5,29,5,2,-1
15,0,-15,-8,14,-7,6,5,30,5,3,-1
15,0,-15,-8,15,-8,6,5,30,5,3,-1
16,0,-17,-8,17,-9,5,5,29,4,2,-2
16,-1,-18,-7,17,-10,4,4,29,3,2,-3
15,-2,-17,-5,16,-10,4,4,30,3,2,-3
14,-3,-17,-5,16,-11,4,4,30,3,2,-3
15,-3,-18,-6,17,-11,4,4,30,3,2,-3
16,-3,-18,-7,18,-11,4,4,29,3,2,-3
17,-2,-18,-8,18,-11,4,4,29,4,2,-3
17,-1,-18,-9,18,-10,4,4,29,4,3,-2
18,0,-18,-10,19,-9,4,4,30,5,3,-2
19,0,-19,-10,19,-9,4,4,30,5,4,-1
18,1,-18,-10,19,-8,4,4,30,5,4,-1
18,1,-18,-10,18,-8,4,4,30,6,4,-1
19,1,-19,-10,20,-9,4,4,30,6,4,-1
21,1,-21,-11,22,-10,3,4,30,5,3,-1
23,1,-21,-12,22,-10,3,4,30,5,3,-1
23,2,-21,-13,22,-9,2,4,30,4,4,0
22,1,-20,-12,21,-9,2,4,30,4,4,0
21,1,-20,-12,21,-9,2,4,29,3,4,-1
21,1,-20,-11,21,-9,2,5,29,3,4,0
19,0,-19,-10,20,-9,2,6,30,4,4,0
19,0,-19,-9,20,-9,2,7,30,4,4,0
19,0,-20,-9,20,-10,2,8,30,4,3,0
19,0,-20,-9,20,-10,2,9,29,4,3,0
19,0,-19,-9,19,-10,2,10,29,4,3,0
18,-1,-19,-8,18,-10,2,11,29,3,3,0
16,-1,-18,-7,18,-10,2,11,28,3,3,0
16,-2,-18,-7,18,-10,2,11,27,2,3,-1
17,-2,-20,-7,19,-11,1,11,26,1,2,-1
18,-2,-21,-8,20,-11,1,12,24,0,2,-2
19,-2,-21,-8,20,-11,0,12,22,0,1,-2
19,-2,-20,-8,20,-11,0,13,21,0,1,-2
19,-2,-20,-8,20,-11,0,13,21,0,1,-2
19,-2,-20,-9,20,-11,0,14,20,0,1,-2
19,-1,-20,-9,20,-10,0,14,20,0,1,-2
19,0,-20,-10,19,-9,0,15,20,0,1,-1
17,0,-18,-9,18,-8,0,16,19,0,1,-1
15,1,-15,-9,16,-7,0,16,18,0,2,0
14,2,-11,-9,14,-4,1,17,17,0,2,1
14,3,-10,-9,13,-3,1,17,15,0,2,1
15,3,-11,-9,14,-4,0,16,14,-1,2,0
16,2,-13,-10,15,-5,0,16,13,-2,1,0
16,3,-13,-10,15,-5,1,17,13,-1,2,1
16,3,-13,-10,15,-5,1,17,12,-1,2,1
16,3,-13,-9,15,-5,0,16,11,-2,2,0
15,2,-13,-8,14,-6,0,16,10,-2,2,0
13,2,-11,-7,12,-6,0,16,10,-2,2,0
12,1,-10,-7,11,-5,0,16,9,-2,2,0
12,1,-10,-7,11,-5,0,16,8,-2,2,0
12,2,-9,-7,11,-4,0,16,8,-2,2,0
11,3,-8,-7,10,-3,1,16,7,-2,2,1
11,4,-7,-7,9,-1,1,16,7,-1,3,1
12,6,-7,-8,10,-1,0,15,6,-1,3,1
14,7,-7,-10,11,0,0,15,6,-1,3,1
14,8,-7,-11,11,0,0,15,6,-1,3,2
15,9,-5,-12,10,2,0,15,7,0,4,3
15,9,-4,-12,10,3,0,15,8,0,4,3
15,10,-4,-13,10,3,0,15,9,1,5,4
17,12,-4,-14,10,4,0,14,10,2,6,4
18,14,-4,-16,11,5,0,14,11,3,7,5
18,16,-3,-17,11,6,0,14,12,4,8,7
17,17,0,-18,9,8,0,15,14,6,10,9
17,19,1,-18,8,10,1,15,15,8,11,10
17,20,3,-19,7,11,1,15,17,10,12,11
16,21,5,-19,6,12,1,16,19,11,13,12
17,22,5,-19,6,13,1,16,20,12,14,12
19,23,4,-21,7,13,0,16,21,13,15,13
19,24,5,-21,7,14,0,16,22,14,15,13
17,24,6,-20,6,15,0,16,23,14,16,13
15,24,8,-20,4,15,0,17,25,15,17,13
15,25,9,-20,3,17,0,19,27,17,19,14
15,28,11,-22,2,19,0,20,30,20,21,15
16,30,13,-23,2,21,0,22,32,22,23,17
16,31,15,-24,1,22,0,23,34,24,24,18
15,32,16,-24,0,24,0,23,36,25,25,19
15,33,18,-24,-1,25,0,22,37,26,26,19
15,34,19,-24,-1,26,-1,20,38,26,26,20
16,36,20,-26,-1,27,-2,19,39,27,26,20
17,38,21,-28,-1,29,-3,18,40,28,27,21
17,39,22,-29,-1,30,-4,17,41,29,28,21
17,39,22,-28,-1,31,-4,16,42,29,28,21
17,39,22,-28,-1,31,-5,15,43,30,29,21
17,38,21,-27,-1,30,-5,15,44,30,29,21
16,38,21,-27,-2,30,-5,15,44,30,29,22
16,37,21,-26,-2,29,-5,15,45,30,28,22
15,37,21,-26,-2,29,-6,15,45,30,28,22
15,37,22,-26,-3,29,-6,16,46,31,29,21
14,37,22,-26,-3,29,-6,16,47,31,29,21
14,36,21,-26,-2,29,-6,17,48,31,29,21
16,36,19,-26,-1,28,-7,16,48,30,28,20
17,35,17,-27,1,27,-7,16,48,30,28,19
17,34,16,-26,1,25,-6,16,48,29,27,18
16,31,15,-24,1,23,-6,16,48,29,26,18
16,29,13,-23,2,21,-5,16,48,29,26,18
16,28,11,-22,3,19,-4,16,48,29,26,18
16,27,11,-22,3,18,-3,16,48,29,26,17
15,26,10,-21,3,18,-3,16,47,28,25,17
15,26,10,-21,3,18,-3,15,46,28,25,16
15,26,11,-21,2,18,-3,14,46,27,24,16
13,26,12,-20,1,19,-3,14,45,27,24,16
12,26,14,-20,0,19,-3,14,45,27,24,16
12,27,14,-20,0,20,-2,14,45,26,23,15
12,26,14,-20,0,20,-2,14,44,26,23,15
12,25,13,-19,0,19,-1,15,44,25,22,14
10,23,13,-17,0,18,0,15,43,24,21,14
8,21,12,-15,-1,17,1,16,43,23,20,13
7,18,11,-13,-1,14,2,16,42,22,18,12
7,15,8,-11,0,11,2,15,40,20,16,10
8,13,5,-11,2,9,1,14,38,18,14,8
8,12,3,-10,2,7,1,14,37,17,13,7
7,10,3,-8,2,6,1,14,37,17,13,7
6,9,3,-8,2,6,1,13,36,17,13,6
6,9,3,-7,2,6,1,13,36,16,12,6
6,9,3,-7,2,6,1,13,35,16,12,5
6,9,3,-8,2,6,2,14,35,15,12,5
6,10,3,-8,1,7,3,15,34,15,12,5
5,9,3,-8,1,7,3,15,34,15,12,5
5,9,3,-8,1,6,4,15,33,14,12,5
6,9,2,-8,2,5,4,15,32,14,12,5
7,9,2,-8,2,6,4,15,31,14,12,6
7,9,2,-8,2,6,4,14,30,14,11,6
6,9,2,-7,2,6,4,14,30,13,11,5
6,8,2,-7,2,6,5,13,29,12,10,5
5,7,2,-7,1,6,5,13,28,11,9,4
3,6,2,-6,1,5,5,13,28,10,8,4
2,5,2,-4,0,4,5,13,27,9,7,3
2,4,2,-3,0,4,6,13,26,9,7,2
2,4,1,-3,0,3,6,13,25,8,6,2
2,3,0,-3,1,2,6,12,24,8,6,1
2,3,0,-2,2,1,6,12,23,7,5,1
2,2,-1,-2,2,0,7,12,23,7,5,1
2,1,-2,-2,2,0,7,12,22,6,5,1
2,0,-2,-1,2,-1,8,12,22,6,5,0
0,-1,-3,0,2,-2,8,12,21,5,4,0
-1,-3,-2,1,1,-2,9,13,21,5,4,0
-2,-3,-1,2,0,-2,9,13,20,5,3,0
-3,-4,-1,3,0,-2,9,12,19,4,3,0
-2,-4,-2,3,0,-3,9,12,18,3,2,-1
0,-4,-4,2,2,-4,8,11,16,2,1,-1
-1,-4,-4,2,2,-4,8,11,15,2,1,-1
-1,-4,-4,3,2,-4,8,11,15,1,0,-2
-2,-5,-3,3,2,-4,8,11,15,1,0,-2
-2,-5,-3,3,2,-4,9,11,15,1,0,-2
-2,-5,-3,3,2,-5,9,12,14,1,0,-1
-3,-7,-4,4,1,-6,9,11,14,1,0,-1
-4,-8,-4,6,1,-7,9,11,13,0,0,-2
-5,-9,-4,7,0,-7,9,12,13,0,0,-2
-5,-10,-4,7,0,-7,10,12,13,0,0,-1
-4,-10,-5,6,1,-7,10,12,13,0,0,-1
-3,-9,-5,5,2,-7,9,11,13,0,0,-2
-3,-9,-5,5,2,-7,9,11,12,0,0,-2
-3,-9,-5,5,2,-7,9,11,12,0,0,-3
-2,-8,-5,5,2,-7,10,11,12,0,0,-3
-2,-8,-6,5,2,-7,10,11,12,0,-1,-4
-3,-9,-6,6,2,-8,10,11,11,0,-2,-4
-4,-10,-6,7,2,-8,10,11,11,-1,-2,-5
-3,-10,-7,7,2,-9,10,11,11,-1,-2,-5
-2,-10,-7,6,3,-9,10,11,11,-1,-2,-5
-2,-10,-7,6,3,-9,9,11,11,-2,-3,-6
-3,-10,-7,6,3,-8,9,11,10,-2,-3,-6
-3,-9,-5,6,2,-8,9,11,10,-2,-3,-6
-3,-9,-5,6,1,-8,9,11,9,-2,-3,-5
-3,-9,-5,5,2,-8,9,11,9,-3,-3,-5
-2,-9,-5,5,2,-8,9,11,8,-3,-3,-5
-2,-8,-6,5,2,-7,10,11,9,-2,-3,-5
-1,-8,-6,4,3,-7,10,12,9,-1,-2,-4
-1,-8,-7,4,3,-8,10,11,9,-2,-2,-4
-1,-10,-8,5,4,-9,10,11,8,-3,-3,-5
-2,-11,-8,6,3,-10,9,10,8,-3,-4,-5
-3,-11,-7,7,2,-9,9,11,8,-3,-3,-4
-3,-10,-6,7,1,-8,9,11,8,-2,-3,-4
-3,-9,-6,7,1,-8,9,11,8,-2,-3,-4
-4,-9,-6,7,1,-8,9,12,9,-2,-4,-4
-4,-10,-6,7,1,-8,9,12,9,-2,-4,-4
-4,-10,-6,7,1,-7,9,12,10,-2,-4,-4
-3,-9,-6,6,1,-7,9,12,10,-2,-4,-4
-3,-9,-6,6,1,-7,9,12,10,-2,-3,-4
-3,-9,-5,5,1,-7,10,13,10,-2,-3,-4
-3,-8,-4,5,0,-6,10,13,10,-1,-3,-4
-3,-7,-2,5,0,-5,11,13,10,-1,-3,-3
-3,-5,-2,4,0,-4,10,13,9,-1,-3,-3
-3,-5,-2,4,0,-4,10,13,9,-1,-3,-3
-3,-6,-4,4,1,-5,9,13,9,-1,-3,-3
-2,-7,-5,4,2,-6,9,13,8,-2,-3,-4
-2,-8,-6,4,2,-7,9,13,8,-2,-3,-4
-3,-9,-6,5,2,-8,10,13,8,-2,-3,-4
-4,-10,-6,6,1,-8,10,14,8,-1,-3,-4
-4,-10,-6,7,1,-8,10,15,9,-1,-3,-4
-4,-9,-6,7,1,-8,11,17,11,-1,-3,-4
-4,-8,-5,6,1,-7,13,21,14,0,-2,-4
-3,-7,-5,5,1,-6,14,25,17,1,-2,-3
-3,-6,-4,5,1,-5,15,29,22,2,-1,-3
-3,-6,-4,5,0,-5,16,32,27,4,0,-3
-3,-5,-4,4,0,-4,16,34,33,7,0,-3
-1,-4,-3,3,1,-4,16,36,38,10,2,-2
0,-2,-2,2,1,-2,15,37,43,15,6,0
1,0,-1,0,1,-1,13,37,45,21,12,2
3,3,-1,-3,2,0,10,36,46,28,18,6
6,6,-1,-6,3,2,6,35,49,35,25,11
8,9,0,-9,4,4,4,37,58,45,34,17
10,16,5,-13,3,10,1,38,69,58,46,25
13,27,13,-21,0,20,-3,30,70,74,62,36
18,40,22,-30,-1,31,-9,11,52,89,78,48
23,55,31,-39,-3,43,-17,-17,17,102,94,61
26,69,42,-48,-7,55,-27,-52,-26,113,110,74
28,83,54,-55,-12,68,-36,-86,-70,123,124,88
30,95,65,-62,-17,80,-42,-116,-109,129,135,99
30,103,72,-66,-20,87,-45,-137,-143,127,138,106
29,102,73,-66,-22,88,-43,-145,-168,116,131,105
25,96,70,-60,-23,83,-40,-146,-185,98,116,98
18,84,66,-51,-24,75,-36,-142,-201,75,95,87
8,69,61,-39,-26,65,-31,-135,-219,48,72,74
-3,49,52,-23,-27,51,-24,-123,-236,19,47,58
-13,28,42,-7,-27,35,-16,-108,-251,-12,19,41
-22,9,31,7,-26,20,-12,-98,-263,-40,-6,24
-27,-7,20,17,-24,7,-12,-92,-270,-63,-26,9
-29,-21,8,25,-19,-6,-14,-89,-270,-80,-42,-3
-29,-31,-2,30,-14,-16,-17,-92,-266,-91,-53,-13
-28,-38,-10,33,-9,-24,-20,-100,-257,-98,-59,-20
-27,-43,-17,35,-5,-30,-23,-108,-242,-100,-63,-25
-27,-46,-20,36,-2,-33,-24,-113,-223,-99,-64,-28
-26,-47,-22,36,-1,-35,-24,-113,-202,-94,-62,-29
-26,-46,-22,36,-1,-34,-23,-110,-181,-87,-59,-29
-25,-43,-19,34,-3,-31,-22,-104,-160,-78,-53,-27
-23,-38,-15,31,-4,-26,-20,-94,-138,-68,-47,-24
-20,-31,-11,25,-5,-21,-18,-81,-116,-57,-40,-20
-17,-24,-7,20,-5,-15,-15,-69,-96,-47,-33,-16
-15,-18,-3,16,-6,-10,-12,-58,-77,-38,-26,-12
-12,-13,-1,12,-5,-6,-10,-48,-61,-30,-21,-9
-9,-9,0,9,-4,-4,-8,-37,-45,-25,-17,-7
-7,-7,0,7,-3,-3,-6,-26,-31,-19,-14,-5
-6,-5,0,6,-3,-2,-4,-17,-19,-14,-11,-4
-5,-5,0,5,-3,-2,-1,-10,-9,-10,-8,-2
-4,-4,0,5,-2,-2,0,-5,-2,-7,-6,-1
-4,-4,0,4,-2,-2,1,-1,3,-5,-4,-1
-4,-3,0,4,-2,-2,2,1,6,-4,-3,0
-3,-3,-1,3,-1,-2,2,3,9,-3,-3,0
-1,-3,-2,3,0,-3,2,5,11,-2,-2,0
-1,-4,-3,3,1,-4,2,6,14,-1,-2,0
-3,-6,-3,5,0,-5,2,7,16,-1,-2,0
-5,-8,-3,7,0,-5,2,8,18,0,-1,0
-5,-8,-3,7,-1,-6,2,9,19,1,0,0
-6,-8,-2,7,-1,-5,2,10,20,2,1,0
-6,-7,-1,6,-2,-4,2,11,21,3,2,1
-6,-6,0,6,-2,-4,2,12,22,3,2,1
-6,-6,0,6,-2,-4,2,13,23,3,1,1
-5,-7,-1,6,-1,-4,2,13,24,3,1,1
-5,-8,-3,6,0,-5,2,14,25,3,1,1
-5,-9,-3,7,0,-6,3,15,26,4,1,1
-5,-9,-4,7,0,-6,3,15,27,4,2,1
-4,-9,-5,6,0,-7,3,16,27,5,2,0
-2,-9,-6,5,2,-7,2,16,27,5,1,0
0,-9,-7,4,3,-7,1,15,27,4,1,-1
0,-9,-8,4,4,-8,1,15,27,4,0,-1
0,-9,-8,4,4,-8,1,15,27,4,1,-1
-1,-9,-7,5,3,-8,1,16,28,5,1,0
-1,-9,-7,5,2,-8,1,16,29,5,2,0
-1,-8,-7,5,2,-8,1,16,30,6,2,0
-1,-8,-6,5,2,-7,1,16,30,6,3,1
0,-7,-6,4,3,-7,1,16,31,7,3,1
0,-7,-7,3,4,-7,1,16,31,7,3,1
0,-8,-7,4,4,-8,0,16,31,7,3,1
-2,-9,-7,6,3,-8,0,16,31,7,3,1
-3,-9,-6,6,2,-8,0,16,31,6,4,1
-3,-9,-6,6,2,-8,-1,15,31,6,4,1
-2,-9,-8,6,3,-8,-2,15,31,5,3,0
-1,-10,-9,6,4,-9,-2,15,31,5,3,0
-1,-11,-10,6,5,-10,-2,15,31,5,3,0
-1,-12,-11,6,5,-11,-2,16,31,5,3,0
0,-13,-13,6,7,-12,-2,17,31,5,3,0
2,-12,-14,5,8,-13,-2,18,31,5,4,0
4,-11,-15,4,9,-13,-2,19,31,5,4,1
5,-9,-15,2,10,-12,-1,20,31,6,5,2
6,-8,-15,1,10,-11,-1,20,31,6,5,3
5,-8,-14,1,9,-10,-1,21,31,6,5,4
3,-8,-12,2,7,-9,-2,21,30,7,5,5
2,-8,-9,3,5,-8,-2,22,30,7,6,6
1,-7,-8,3,4,-7,-2,23,30,7,6,7
2,-7,-9,2,5,-8,-3,23,28,6,5,7
5,-6,-10,0,7,-8,-4,23,27,5,5,7
5,-5,-11,0,8,-8,-4,23,27,5,5,7
5,-5,-11,0,8,-8,-4,24,26,5,5,7
4,-5,-11,1,8,-8,-4,24,25,4,5,6
4,-5,-11,1,7,-8,-4,25,24,4,4,6
5,-4,-10,0,7,-7,-5,25,23,3,4,6
5,-3,-10,-1,8,-7,-5,26,22,3,3,6
6,-2,-9,-2,8,-6,-5,27,21,4,3,7
7,-1,-8,-2,8,-5,-4,28,21,4,3,7
6,-1,-8,-2,7,-5,-4,29,21,4,3,7
5,-2,-7,-1,6,-4,-4,29,20,3,3,8
3,-3,-6,0,5,-4,-4,29,18,3,3,8
2,-3,-6,1,4,-4,-4,29,17,2,3,8
2,-3,-7,1,5,-5,-4,29,15,2,2,8
2,-3,-6,1,4,-5,-3,29,14,2,2,7
2,-3,-6,1,4,-5,-3,29,13,1,2,7
2,-4,-6,1,4,-5,-4,28,12,0,2,7
2,-4,-6,1,4,-5,-4,28,11,0,2,6
2,-3,-5,1,4,-4,-4,28,11,0,2,7
1,-2,-4,1,3,-3,-4,28,10,0,3,7
0,-1,-3,1,2,-2,-4,28,10,0,3,8
0,-1,-2,2,1,-1,-3,28,9,1,3,8
-2,-1,0,2,0,-1,-3,28,9,1,3,8
-3,-2,1,3,-2,0,-2,27,9,1,3,8
-4,-2,1,3,-2,0,-2,27,8,1,3,7
-3,-2,1,3,-2,0,-2,27,8,0,3,7
-3,-2,1,3,-2,0,-2,27,8,0,2,7
-3,-2,1,3,-2,0,-2,26,8,0,2,7
-3,-1,1,2,-1,0,-3,26,8,0,2,8
-2,0,1,1,-1,0,-3,26,9,1,3,8
-2,0,2,1,-1,1,-2,27,11,2,4,9
-2,1,3,0,-2,2,-1,28,12,4,6,10
-1,2,4,0,-2,3,-1,29,14,6,7,11
-3,4,7,0,-4,5,0,30,17,8,9,12
-4,5,10,0,-7,7,1,32,19,9,10,14
-3,7,10,-1,-6,8,1,32,20,10,10,14
0,8,9,-4,-4,8,0,31,21,10,10,14
2,10,8,-6,-2,9,0,31,21,10,11,14
2,10,8,-7,-2,9,0,31,23,11,12,14
2,11,8,-7,-2,10,0,31,24,13,13,15
3,12,9,-8,-2,11,0,31,26,14,14,15
2,13,12,-8,-4,13,0,32,28,16,16,16
1,15,15,-9,-6,15,0,32,30,17,17,18
1,18,17,-9,-8,17,0,33,31,18,18,19
0,20,20,-10,-9,19,-1,33,33,19,18,20
0,22,22,-11,-10,21,-1,34,35,20,19,20
1,23,23,-12,-10,23,0,34,36,21,20,21
2,25,23,-14,-10,24,0,35,38,22,21,21
4,26,22,-16,-8,24,0,36,40,23,22,22
5,27,22,-17,-8,24,0,36,41,24,22,22
6,27,21,-17,-7,24,0,36,43,24,22,22
6,27,20,-17,-6,23,-1,37,44,25,23,22
7,27,19,-17,-6,24,-1,37,46,26,23,22
9,29,19,-18,-5,25,-1,36,48,27,24,23
10,30,19,-19,-5,25,-1,35,49,28,25,23
10,30,20,-20,-4,25,-1,33,50,29,26,24
10,30,20,-20,-4,25,-1,30,51,30,27,24
9,30,21,-19,-5,25,-2,28,51,30,27,24
9,30,21,-19,-5,25,-3,27,52,30,27,24
9,31,21,-20,-5,25,-4,27,52,31,27,24
10,32,21,-21,-5,25,-4,27,53,31,27,25
12,32,20,-22,-4,26,-5,27,53,31,27,25
13,33,20,-23,-3,26,-5,27,54,31,27,25
14,33,19,-23,-2,26,-6,27,54,31,26,25
15,34,19,-24,-1,26,-7,26,54,31,26,25
16,35,18,-25,0,26,-8,26,54,31,26,25
17,35,18,-26,0,26,-9,26,54,31,25,24
18,35,17,-27,1,25,-10,25,54,30,25,24
19,34,16,-27,2,25,-10,25,53,29,24,23
18,33,15,-26,2,24,-10,25,52,28,23,22
16,31,14,-24,1,23,-9,25,52,27,22,21
14,29,14,-22,0,22,-9,25,51,26,21,20
12,27,15,-20,-1,21,-8,24,50,25,20,19
10,25,15,-18,-2,20,-8,23,49,24,19,18
9,23,14,-16,-2,19,-9,22,47,23,18,17
9,21,12,-15,-1,17,-9,20,45,21,16,15
9,19,10,-14,0,14,-9,19,44,20,15,14
9,17,7,-13,0,11,-9,19,43,19,14,14
8,14,5,-11,1,9,-8,20,43,18,13,13
7,11,4,-9,2,7,-7,20,43,18,13,13
7,10,3,-9,2,6,-6,21,43,18,13,13
6,9,3,-8,2,6,-6,21,42,18,12,13
6,9,3,-7,1,5,-5,21,41,17,12,12
5,8,3,-7,1,5,-4,21,40,17,12,12
4,8,3,-6,0,5,-3,22,39,16,11,12
4,8,4,-6,0,6,-3,21,38,15,11,11
4,8,4,-6,0,6,-3,20,37,14,10,11
4,8,3,-6,0,6,-3,20,36,13,9,11
4,8,3,-6,1,6,-3,19,34,13,8,10
5,8,2,-6,2,5,-3,19,33,12,7,9
6,7,1,-6,3,4,-3,19,31,11,6,8
5,6,0,-5,3,3,-2,19,30,10,6,8
5,4,-1,-4,3,1,-2,19,29,9,5,7
6,2,-4,-4,5,-1,-2,18,27,7,4,6
6,0,-7,-3,6,-3,-1,18,26,6,3,4
5,-1,-7,-2,6,-4,-1,18,26,6,2,3
5,-2,-8,-1,6,-5,0,18,25,5,2,3
6,-2,-9,-1,8,-5,0,18,25,5,1,3
7,-1,-10,-2,9,-6,1,18,24,5,1,3
8,-1,-10,-3,9,-6,1,18,24,4,1,3
9,0,-9,-4,9,-5,2,18,23,4,1,3
8,0,-8,-4,8,-4,3,18,23,4,1,3
7,1,-7,-4,7,-3,3,18,23,4,2,3
6,1,-6,-4,6,-3,3,18,23,4,2,3
6,1,-6,-4,6,-3,3,18,22,4,1,3
6,0,-7,-3,7,-4,3,17,21,3,0,3
7,-1,-9,-3,8,-5,3,17,20,2,0,2
6,-2,-9,-2,8,-6,3,16,19,2,0,1
5,-4,-10,-1,7,-6,3,16,18,1,-1,1
5,-5,-11,0,8,-7,3,15,17,0,-1,0
5,-6,-12,0,9,-9,3,14,15,-1,-2,0
5,-9,-13,2,9,-11,3,13,14,-2,-3,-1
3,-11,-14,3,9,-13,3,13,13,-3,-4,-2
2,-12,-15,4,9,-14,3,12,12,-4,-5,-3
1,-13,-15,5,9,-14,2,12,11,-5,-6,-4
1,-14,-15,6,8,-15,2,11,11,-5,-7,-4
1,-14,-16,6,8,-15,2,11,10,-5,-7,-5
2,-14,-16,6,9,-15,2,10,10,-5,-7,-5
2,-14,-16,6,8,-14,2,10,10,-5,-7,-5
1,-13,-13,6,7,-13,3,10,10,-5,-7,-5
0,-12,-11,6,5,-12,3,10,9,-5,-8,-5
0,-12,-11,5,6,-12,3,10,8,-6,-9,-5
2,-11,-12,4,8,-12,3,9,7,-7,-9,-6
3,-11,-14,3,9,-12,3,10,7,-7,-9,-6
3,-11,-15,3,9,-13,3,10,6,-7,-9,-6
4,-12,-16,3,10,-14,3,10,6,-7,-9,-6
4,-12,-16,4,10,-14,3,10,5,-8,-9,-6
4,-13,-17,4,10,-15,3,10,5,-8,-9,-7
2,-14,-17,5,9,-16,3,10,4,-8,-10,-7
1,-16,-17,7,8,-17,3,10,4,-8,-10,-7
0,-16,-17,7,8,-17,3,10,4,-9,-10,-7
0,-16,-16,7,8,-16,3,10,4,-9,-10,-7
0,-15,-16,7,8,-16,3,10,4,-9,-10,-7
0,-15,-15,7,8,-15,3,10,4,-9,-10,-6
0,-14,-14,7,7,-15,3,10,4,-9,-10,-6
1,-13,-14,6,7,-14,3,10,4,-9,-10,-6
2,-12,-14,5,8,-14,4,10,4,-8,-10,-6
3,-10,-14,4,8,-13,4,10,4,-8,-10,-6
4,-10,-14,3,8,-12,4,10,4,-8,-10,-6
4,-10,-14,3,8,-12,4,10,3,-9,-10,-6
3,-12,-15,4,8,-13,4,10,3,-9,-11,-6
2,-13,-16,5,9,-15,4,10,2,-10,-11,-7
2,-14,-17,6,10,-16,4,10,2,-10,-11,-7
3,-15,-18,6,10,-17,4,10,2,-10,-11,-8
3,-15,-18,6,11,-18,5,11,3,-10,-11,-8
3,-16,-19,6,11,-18,5,11,3,-10,-11,-8
2,-16,-19,6,11,-18,6,11,3,-10,-11,-8
2,-17,-19,7,11,-18,7,11,4,-10,-11,-7
1,-17,-18,7,10,-18,7,12,5,-9,-10,-6
0,-17,-18,8,9,-18,7,12,5,-9,-9,-6
0,-18,-19,8,10,-19,6,11,4,-9,-10,-6
0,-19,-19,10,10,-20,5,10,4,-10,-10,-7
-3,-21,-18,12,8,-20,4,9,3,-10,-11,-7
-5,-22,-17,14,6,-20,4,9,3,-10,-11,-8
-5,-22,-17,13,6,-20,4,9,3,-10,-11,-8
-3,-20,-17,12,6,-19,4,9,2,-11,-11,-8
-1,-19,-17,10,7,-18,4,9,2,-11,-12,-8
0,-17,-17,9,8,-18,4,9,1,-11,-12,-8
0,-17,-17,8,9,-18,4,9,1,-11,-12,-8
0,-18,-18,9,9,-18,4,9,1,-11,-12,-8
0,-19,-18,10,8,-19,4,9,1,-11,-12,-8
-2,-20,-18,11,8,-19,4,9,1,-11,-12,-8
-4,-22,-18,13,7,-20,4,9,1,-11,-12,-9
-6,-23,-18,14,6,-20,4,9,2,-11,-12,-9
-6,-24,-18,15,6,-21,5,11,3,-11,-13,-10
-5,-24,-19,15,6,-21,5,13,5,-12,-14,-11
-5,-24,-19,15,6,-22,6,16,7,-12,-14,-12
-5,-23,-18,14,6,-21,7,20,11,-11,-14,-12
-4,-22,-17,13,6,-20,8,25,17,-9,-13,-12
-4,-20,-15,12,5,-18,8,28,23,-6,-11,-12
-4,-17,-13,10,5,-16,8,31,29,-2,-8,-10
-2,-13,-11,8,4,-13,8,32,35,3,-4,-8
0,-9,-9,4,4,-9,7,33,39,9,1,-4
3,-5,-9,0,6,-7,5,32,41,16,8,1
8,-2,-10,-3,8,-6,2,32,44,24,15,6
13,2,-11,-8,12,-5,-1,34,50,32,23,12
18,8,-9,-13,14,-1,-4,35,60,43,34,19
23,18,-3,-21,13,7,-8,29,66,58,48,28
27,32,5,-29,11,18,-13,11,56,74,64,40
31,46,15,-38,8,31,-19,-17,29,88,81,53
34,61,27,-48,4,44,-27,-52,-8,101,97,67
36,77,40,-57,-1,59,-34,-89,-49,112,112,81
37,91,54,-64,-8,72,-39,-123,-89,119,123,94
39,100,62,-70,-11,81,-42,-148,-124,118,127,102
40,101,62,-70,-11,81,-41,-160,-152,109,122,102
38,93,57,-66,-10,75,-38,-162,-171,91,107,95
31,82,51,-57,-10,66,-34,-159,-187,70,88,83
21,67,46,-44,-12,57,-28,-153,-204,46,66,70
8,50,40,-29,-15,45,-20,-141,-222,19,43,56
-3,30,32,-13,-17,31,-12,-126,-238,-10,16,39
-13,11,24,0,-18,18,-7,-116,-253,-38,-8,22
-18,-4,15,11,-16,5,-7,-113,-264,-61,-29,7
-20,-18,3,19,-12,-8,-11,-113,-269,-79,-45,-5
-22,-29,-7,26,-7,-19,-15,-119,-269,-92,-57,-15
-23,-38,-15,30,-4,-27,-19,-128,-262,-100,-64,-22
-23,-44,-21,33,-1,-33,-23,-137,-250,-103,-68,-28
-23,-48,-25,35,2,-37,-25,-140,-232,-103,-69,-31
-22,-50,-29,35,4,-39,-24,-138,-211,-99,-68,-33
-20,-50,-30,35,5,-40,-23,-133,-190,-93,-65,-33
-19,-47,-27,33,4,-37,-23,-124,-168,-85,-60,-31
-18,-42,-23,30,3,-33,-22,-112,-146,-75,-53,-28
-15,-37,-21,26,2,-29,-20,-98,-125,-66,-47,-25
-13,-32,-19,22,2,-26,-19,-84,-105,-57,-41,-23
-11,-27,-17,19,2,-22,-17,-72,-87,-48,-35,-20
-9,-23,-15,16,2,-19,-15,-60,-69,-41,-30,-17
-6,-19,-14,13,3,-16,-13,-48,-53,-34,-26,-14
-4,-17,-13,11,4,-15,-10,-36,-39,-29,-22,-12
-3,-15,-11,9,4,-13,-7,-26,-26,-24,-19,-10
-2,-14,-10,9,4,-12,-4,-18,-16,-19,-16,-8
-1,-13,-10,8,4,-12,-2,-11,-9,-16,-14,-7
0,-12,-11,6,6,-12,-1,-7,-4,-14,-13,-7
2,-10,-13,4,7,-12,0,-3,0,-12,-11,-7
3,-9,-14,2,8,-11,1,0,4,-10,-10,-6
4,-9,-14,2,9,-11,1,2,7,-9,-9,-6
4,-10,-15,3,9,-12,1,4,9,-9,-9,-6
4,-10,-15,3,9,-12,2,5,11,-8,-9,-6
6,-9,-15,2,10,-12,2,6,13,-7,-9,-6
7,-9,-15,1,10,-12,3,8,14,-6,-8,-6
6,-10,-16,2,11,-13,3,8,15,-6,-7,-6
6,-11,-17,2,11,-14,2,9,16,-5,-7,-6
4,-12,-17,3,11,-14,3,10,17,-5,-7,-6
2,-13,-17,5,10,-14,3,11,18,-4,-6,-6
3,-14,-18,5,11,-15,3,11,19,-5,-6,-6
4,-14,-20,5,12,-17,3,11,20,-5,-7,-7
5,-15,-21,5,13,-17,3,12,21,-5,-6,-6
6,-15,-20,5,12,-18,3,12,22,-4,-6,-6
6,-16,-21,5,12,-19,3,13,22,-4,-6,-7
6,-16,-21,5,13,-19,3,13,22,-4,-7,-7
7,-15,-21,4,14,-19,3,13,23,-4,-6,-7
8,-13,-21,2,15,-18,3,14,24,-3,-6,-6
8,-12,-21,1,15,-17,3,15,25,-2,-5,-6
9,-11,-21,1,15,-16,3,15,26,-2,-5,-5
9,-10,-20,0,15,-15,3,16,27,-1,-4,-5
9,-10,-19,1,14,-15,3,16,27,0,-3,-4
8,-10,-18,1,13,-15,3,16,27,0,-2,-3
7,-11,-17,1,12,-14,3,16,27,0,-2,-3
6,-11,-17,1,12,-14,3,16,27,0,-2,-3
7,-12,-19,2,13,-15,2,15,27,0,-2,-3
7,-13,-21,2,14,-16,1,14,26,-1,-3,-4
7,-14,-22,3,15,-17,0,14,25,-1,-4,-4
7,-15,-22,4,15,-18,0,14,25,-1,-3,-4
7,-16,-23,5,15,-20,0,14,25,-1,-4,-4
8,-17,-25,5,16,-21,0,14,24,-2,-4,-5
9,-18,-27,4,18,-22,0,14,24,-2,-5,-5
10,-17,-27,3,18,-22,0,15,24,-2,-5,-5
10,-16,-27,3,18,-22,0,15,23,-2,-5,-5
10,-15,-26,2,18,-21,-1,15,23,-2,-5,-5
10,-14,-25,2,18,-20,-1,16,23,-2,-4,-4
9,-13,-23,2,16,-19,0,17,23,-2,-3,-4
9,-13,-22,2,15,-18,0,18,23,-2,-2,-3
10,-13,-23,1,16,-18,-1,18,22,-2,-2,-3
13,-12,-25,0,19,-18,-2,18,21,-3,-3,-3
15,-12,-26,-2,21,-19,-2,19,20,-3,-3,-3
15,-11,-26,-2,21,-19,-2,20,20,-2,-2,-2
14,-11,-25,-2,20,-18,-2,21,20,-2,-2,-2
14,-11,-24,-1,19,-18,-2,21,20,-2,-2,-2
13,-11,-24,-1,19,-18,-3,22,19,-3,-2,-2
13,-11,-24,0,18,-17,-4,22,17,-4,-3,-2
12,-11,-23,0,18,-17,-4,22,16,-4,-3,-2
11,-11,-23,0,17,-17,-5,23,15,-5,-3,-2
11,-11,-22,1,16,-16,-5,24,14,-5,-4,-2
10,-11,-22,1,16,-16,-4,25,13,-5,-4,-2
10,-11,-21,1,15,-16,-4,26,12,-5,-4,-2
10,-11,-22,1,15,-16,-4,26,11,-6,-4,-2
11,-10,-21,0,15,-16,-4,27,11,-6,-4,-2
9,-9,-18,0,13,-14,-3,28,10,-5,-3,-1
8,-9,-17,0,12,-12,-2,29,10,-5,-3,-1
10,-8,-18,-1,14,-13,-3,29,8,-5,-3,-1
12,-8,-20,-2,16,-13,-3,28,6,-6,-4,-2
13,-8,-21,-3,17,-14,-3,28,6,-6,-4,-1
14,-7,-21,-3,17,-14,-3,29,5,-6,-4,-1
14,-7,-21,-3,17,-14,-3,29,5,-6,-4,0
14,-7,-21,-3,17,-14,-3,28,5,-7,-4,0
14,-7,-20,-3,17,-14,-3,28,4,-7,-4,0
13,-7,-20,-3,17,-13,-3,28,4,-7,-4,0
13,-6,-19,-3,16,-12,-2,28,4,-6,-4,0
12,-5,-17,-3,15,-11,-1,28,4,-5,-3,0
12,-3,-16,-4,14,-10,-1,29,5,-4,-2,1
12,-3,-16,-3,13,-10,0,29,5,-4,-2,1
11,-4,-16,-2,13,-10,0,28,4,-5,-2,1
10,-4,-16,-2,13,-10,0,28,4,-5,-2,1
11,-4,-16,-3,14,-10,0,27,4,-5,-2,1
11,-4,-17,-3,14,-10,-1,27,3,-5,-3,0
11,-5,-17,-3,14,-11,-1,26,3,-5,-3,0
11,-5,-17,-3,14,-11,-2,26,3,-5,-3,0
12,-5,-17,-4,14,-11,-2,25,3,-5,-3,0
12,-3,-16,-4,14,-10,-1,25,4,-4,-2,1
13,-2,-15,-5,13,-8,-1,26,6,-3,-1,2
13,0,-14,-6,13,-7,-1,26,7,-2,0,3
14,1,-13,-7,13,-6,-1,27,8,-1,0,4
14,2,-12,-8,13,-5,-1,27,9,0,1,5
13,2,-10,-8,12,-4,-1,27,10,1,2,5
13,4,-8,-9,11,-2,-1,28,12,2,4,6
14,6,-7,-10,11,0,0,29,14,3,5,7
14,7,-6,-10,10,0,0,29,15,4,5,7
13,7,-5,-10,9,1,0,30,17,5,6,7
13,8,-5,-10,9,2,0,30,19,7,8,8
14,10,-4,-11,9,3,0,31,21,8,9,9
14,12,-3,-12,9,5,0,31,23,10,10,11
14,12,-2,-13,8,6,1,32,26,12,11,12
14,13,-1,-14,7,6,1,33,28,13,11,12
15,14,0,-15,7,7,1,33,30,14,12,13
15,15,0,-15,7,7,1,34,31,14,12,13
15,16,0,-16,7,8,1,34,33,15,13,14
16,17,1,-16,7,8,1,35,35,16,14,15
15,17,2,-16,7,9,1,36,37,17,15,15
13,17,4,-15,5,11,1,37,40,18,16,16
11,18,7,-15,2,12,2,38,42,20,17,16
9,19,10,-14,0,14,2,39,44,21,18,17
9,20,12,-15,-1,16,2,39,46,22,19,18
10,22,13,-17,-1,17,1,38,47,23,19,19
11,24,13,-18,-1,18,0,35,47,24,20,19
11,24,14,-18,-1,19,-1,32,47,24,20,20
11,25,14,-18,-1,20,-2,30,48,25,21,20
11,26,15,-19,-1,21,-3,29,48,25,21,20
11,26,16,-19,-2,21,-4,27,49,25,20,20
11,26,15,-18,-2,21,-5,26,49,24,20,20
11,25,15,-18,-2,20,-5,25,49,24,20,20
10,25,16,-18,-3,21,-5,25,49,25,20,20
9,25,16,-17,-3,21,-6,24,49,25,20,20
8,24,16,-16,-4,20,-6,24,49,24,19,19
8,23,16,-16,-4,20,-7,24,50,24,19,18
9,24,14,-16,-2,19,-7,24,50,25,19,18
11,23,12,-17,0,18,-8,24,50,24,19,17
12,22,11,-16,1,16,-8,24,50,24,18,17
11,21,11,-15,0,16,-8,23,50,23,18,17
10,20,10,-15,0,15,-8,23,50,23,17,16
10,20,9,-15,0,14,-8,22,49,22,16,16
9,19,9,-14,0,14,-7,22,49,21,15,15
8,17,9,-12,0,13,-7,22,48,21,15,14
7,15,8,-11,0,11,-6,21,47,20,14,14
7,13,7,-10,0,10,-6,20,45,19,13,13
6,12,6,-10,0,9,-6,19,43,18,12,12
6,11,5,-9,0,9,-6,18,42,17,11,12
6,11,5,-9,0,8,-5,18,42,17,11,12
5,11,5,-8,0,8,-4,18,42,17,11,12
4,11,6,-7,-1,8,-3,18,41,17,11,12
4,10,6,-7,-1,8,-3,18,41,16,11,12
5,10,5,-7,0,7,-2,18,40,16,11,12
6,10,4,-8,1,7,-2,18,38,15,10,11
6,9,3,-8,2,6,-1,18,37,14,10,10
6,8,2,-7,2,6,0,18,35,13,9,9
6,8,2,-6,2,5,0,17,34,12,8,8
5,8,2,-6,1,5,1,17,33,12,7,7
5,7,2,-5,1,4,1,17,32,11,6,7
4,5,1,-4,1,3,1,16,31,10,6,6
2,3,0,-2,1,1,1,15,30,9,5,6
1,1,0,-1,1,0,1,14,28,8,4,5
0,0,0,0,0,0,2,14,27,8,4,4
-1,-1,0,1,0,0,3,14,27,8,4,4
-2,-2,0,2,-1,-1,3,15,26,7,4,3
-2,-3,-1,2,0,-2,3,14,25,6,3,2
-1,-4,-3,2,1,-3,3,13,24,5,1,1
0,-5,-6,2,3,-5,3,13,23,4,0,1
0,-7,-7,3,3,-7,4,13,23,4,0,1
0,-8,-7,4,3,-7,5,14,22,4,0,1
0,-8,-7,4,3,-8,5,14,21,4,0,0
0,-8,-8,4,4,-8,6,14,20,3,0,0
1,-7,-7,3,4,-7,6,14,20,3,0,0
0,-7,-7,3,4,-7,6,13,19,2,-1,0
0,-7,-7,4,3,-7,6,13,18,2,-1,0
-1,-8,-6,5,2,-7,6,12,17,1,-2,0
-2,-9,-6,6,1,-7,6,12,16,1,-2,0
-4,-11,-7,8,1,-8,6,11,14,0,-3,-1
-5,-12,-7,9,0,-9,6,10,13,0,-3,-2
-5,-13,-8,9,1,-10,6,10,13,0,-4,-2
-5,-13,-7,9,1,-10,7,10,12,-1,-4,-2
-6,-13,-7,9,0,-10,7,10,12,-1,-5,-2
-5,-13,-7,9,1,-10,7,10,12,-2,-5,-3
-4,-13,-8,9,2,-10,7,9,11,-3,-6,-3
-4,-13,-9,9,3,-11,7,8,10,-3,-6,-4
-4,-14,-10,9,3,-11,7,8,10,-4,-7,-4
-4,-14,-10,9,3,-12,7,8,9,-4,-7,-4
-4,-14,-9,9,2,-12,7,8,9,-4,-8,-4
-5,-14,-8,10,1,-12,7,7,8,-5,-8,-5
-8,-15,-7,12,0,-12,7,7,7,-6,-9,-5
-10,-17,-6,13,-2,-12,7,6,6,-6,-10,-5
-10,-18,-7,14,-1,-13,6,5,5,-7,-11,-6
-11,-19,-8,15,-1,-14,6,4,4,-8,-11,-7
-12,-20,-9,16,-1,-14,6,4,3,-9,-12,-8
-12,-21,-9,17,-1,-14,6,4,3,-9,-12,-9
-12,-21,-9,17,-1,-15,6,4,2,-9,-12,-9
-12,-22,-9,17,-2,-16,7,5,2,-9,-12,-9
-13,-23,-10,18,-1,-17,7,5,3,-9,-12,-9
-12,-23,-10,17,-1,-17,7,6,3,-9,-12,-9
-12,-22,-10,17,-1,-16,8,6,3,-9,-12,-8
-11,-20,-9,16,-1,-14,8,6,3,-9,-12,-8
-11,-19,-8,15,-1,-13,8,6,2,-9,-12,-8
-10,-18,-8,14,0,-13,8,6,2,-9,-12,-8
-9,-17,-9,14,0,-13,7,5,2,-9,-12,-9
-8,-18,-9,13,1,-13,7,5,1,-9,-12,-9
-7,-18,-11,13,2,-14,6,5,1,-9,-12,-9
-6,-19,-12,12,3,-15,6,5,1,-9,-12,-9
-6,-19,-13,12,3,-16,7,5,1,-9,-12,-9
-7,-19,-12,13,2,-15,8,5,2,-9,-12,-9
-8,-19,-11,14,1,-15,9,6,3,-8,-11,-9
-9,-19,-10,14,0,-14,10,7,3,-7,-11,-9
-8,-18,-10,14,0,-14,10,7,4,-7,-11,-9
-6,-18,-11,12,2,-14,9,6,4,-8,-11,-10
-5,-17,-12,11,3,-14,9,6,4,-8,-11,-10
-5,-17,-11,11,2,-14,9,6,4,-8,-11,-10
-6,-17,-11,11,2,-14,9,6,3,-8,-11,-9
-6,-17,-11,11,2,-14,9,5,3,-9,-12,-9
-6,-17,-11,11,2,-14,9,5,3,-9,-12,-9
-5,-17,-12,11,3,-14,9,5,3,-9,-11,-9
-4,-17,-13,11,4,-15,10,5,3,-9,-11,-9
-5,-19,-13,12,4,-16,10,5,3,-8,-11,-9
-6,-20,-14,13,3,-17,10,5,3,-8,-11,-9
-7,-21,-14,14,3,-17,10,5,3,-8,-12,-10
-6,-20,-14,13,3,-17,10,5,3,-8,-12,-10
-6,-20,-14,13,3,-17,11,6,4,-7,-12,-10
-7,-21,-14,14,2,-17,11,6,4,-7,-12,-10
-8,-21,-14,15,2,-18,11,6,3,-8,-12,-10
-7,-22,-15,14,3,-18,10,5,3,-8,-12,-10
-7,-22,-15,15,4,-19,10,5,3,-8,-12,-11
-7,-22,-15,15,4,-19,9,5,3,-8,-12,-11
-7,-22,-15,15,4,-19,9,5,3,-8,-12,-11
-8,-22,-14,15,3,-19,9,5,3,-8,-12,-11
-8,-22,-14,15,3,-18,9,5,3,-8,-12,-11
-9,-22,-14,15,2,-18,9,6,3,-7,-12,-10
-9,-22,-14,16,2,-18,9,6,3,-7,-12,-10
-9,-22,-13,16,1,-17,10,7,4,-7,-12,-9
-9,-21,-12,16,1,-16,11,10,7,-6,-11,-9
-9,-20,-11,15,0,-15,12,13,10,-5,-11,-9
-9,-20,-10,15,0,-15,13,17,14,-4,-11,-9
-8,-19,-10,14,0,-15,14,21,19,-3,-11,-9
-8,-18,-10,13,0,-14,15,25,24,-1,-10,-9
-8,-17,-8,13,-1,-13,15,28,30,2,-8,-8
-9,-15,-5,12,-2,-10,15,30,36,7,-4,-6
-9,-12,-3,11,-3,-8,14,31,40,13,0,-3
-6,-9,-2,8,-2,-5,11,31,42,19,5,0
-1,-5,-3,4,1,-4,8,30,44,25,11,5
3,-2,-4,0,3,-3,5,31,48,31,18,9
7,2,-4,-4,5,-1,2,35,57,40,27,15
11,10,0,-10,5,5,0,34,68,53,40,23
14,22,8,-18,2,15,-5,24,70,68,55,34
17,36,19,-27,-1,28,-9,2,55,84,72,46
21,51,29,-36,-4,40,-16,-30,24,98,89,60
26,65,39,-46,-6,52,-24,-68,-14,109,103,73
30,80,49,-55,-9,65,-32,-106,-55,117,115,85
32,91,58,-61,-13,75,-36,-137,-93,118,122,94
32,94,62,-63,-15,78,-37,-155,-126,111,119,97
30,90,60,-60,-15,75,-33,-161,-149,96,107,92
24,79,55,-52,-16,67,-28,-160,-166,76,89,82
14,67,53,-41,-19,60,-23,-156,-183,55,70,70
2,52,49,-27,-23,51,-16,-149,-202,31,49,57
-10,33,43,-11,-27,38,-8,-136,-220,4,25,41
-22,14,36,4,-29,25,-1,-122,-236,-22,0,25
-30,-2,28,17,-29,13,1,-117,-250,-45,-20,10
-34,-16,17,25,-26,0,-1,-117,-259,-64,-37,-2
-35,-29,6,32,-21,-11,-5,-121,-262,-79,-50,-12
-36,-39,-3,37,-17,-21,-8,-129,-260,-89,-58,-20
-36,-45,-9,40,-14,-27,-12,-138,-251,-94,-63,-26
-34,-49,-15,41,-10,-31,-16,-144,-237,-96,-66,-30
-32,-50,-18,41,-7,-33,-19,-146,-219,-95,-67,-32
-31,-50,-19,41,-6,-34,-19,-142,-198,-91,-65,-33
-30,-48,-18,40,-6,-33,-19,-135,-177,-84,-62,-33
-28,-45,-16,37,-6,-30,-18,-125,-157,-76,-57,-31
-26,-40,-14,33,-6,-27,-17,-111,-135,-67,-51,-28
-23,-35,-12,29,-6,-23,-14,-96,-114,-57,-44,-25
-20,-30,-10,25,-6,-20,-13,-83,-95,-48,-38,-21
-17,-26,-9,21,-5,-17,-11,-71,-77,-40,-32,-17
-16,-22,-6,19,-6,-14,-9,-58,-61,-33,-26,-14
-17,-19,-2,18,-8,-11,-7,-45,-45,-26,-21,-11
-16,-17,0,17,-8,-9,-4,-34,-31,-20,-17,-10
-14,-16,-1,15,-6,-9,-2,-26,-20,-16,-15,-9
-11,-16,-3,13,-4,-10,-1,-19,-12,-13,-14,-9
-9,-15,-5,12,-2,-10,0,-13,-6,-11,-12,-8
-8,-15,-7,11,-1,-11,1,-8,-2,-10,-11,-8
-8,-16,-8,11,-1,-11,2,-5,1,-9,-11,-8
-8,-16,-8,11,-1,-11,3,-3,4,-8,-11,-8
-6,-16,-9,11,0,-12,3,-1,7,-7,-10,-7
-5,-16,-10,10,2,-13,4,0,9,-6,-10,-7
-5,-16,-11,11,3,-14,4,2,11,-5,-10,-7
-5,-17,-11,11,3,-14,4,3,13,-5,-10,-7
-4,-17,-12,11,4,-15,4,4,14,-4,-9,-6
-4,-17,-13,10,4,-15,4,5,15,-3,-8,-6
-3,-16,-13,9,4,-14,4,6,16,-2,-7,-5
-3,-16,-14,9,4,-14,4,7,17,-2,-7,-5
-2,-16,-14,9,5,-15,4,8,18,-2,-7,-5
-2,-15,-14,8,6,-15,3,8,20,-2,-7,-5
-1,-15,-14,8,6,-15,3,9,21,-1,-7,-5
-1,-15,-13,8,6,-14,4,10,21,-1,-6,-5
-1,-15,-13,8,6,-14,4,10,22,0,-6,-5
-1,-15,-14,8,6,-14,4,10,22,0,-5,-5
-1,-16,-14,8,6,-15,4,10,23,0,-5,-4
-1,-16,-15,9,6,-15,4,11,23,0,-5,-4
-1,-16,-15,9,6,-15,4,11,24,0,-5,-4
-1,-16,-15,9,6,-15,3,12,25,0,-4,-4
-1,-17,-15,9,6,-16,3,12,25,0,-4,-4
-1,-17,-15,9,6,-16,3,12,25,0,-3,-3
-1,-17,-15,9,6,-16,3,12,26,0,-3,-3
-1,-17,-15,9,6,-16,3,12,26,1,-3,-3
-1,-16,-15,9,6,-15,3,12,26,1,-2,-3
0,-15,-15,8,6,-15,2,12,26,1,-2,-3
2,-14,-17,6,8,-15,1,12,25,1,-3,-3
4,-13,-18,4,10,-15,0,11,25,1,-3,-3
4,-13,-18,4,10,-15,0,12,24,1,-3,-3
3,-13,-16,5,9,-15,0,12,24,1,-2,-2
2,-13,-15,5,8,-14,-1,12,23,1,-2,-2
2,-12,-14,5,8,-13,-1,12,23,1,-2,-2
2,-12,-13,5,7,-12,-1,12,22,0,-3,-2
3,-12,-15,4,8,-13,-2,12,21,0,-3,-2
4,-12,-16,4,10,-14,-2,13,20,-1,-3,-2
4,-13,-17,5,10,-15,-2,14,21,0,-3,-2
4,-13,-18,5,11,-16,-2,15,21,0,-2,-2
5,-14,-19,5,12,-17,-2,16,21,0,-2,-2
5,-14,-20,5,12,-17,-2,17,20,0,-2,-2
5,-15,-21,5,13,-18,-3,17,19,-1,-3,-2
5,-16,-22,5,13,-19,-3,17,18,-1,-3,-2
4,-16,-21,5,12,-18,-3,17,18,-1,-3,-2
4,-16,-19,5,11,-17,-4,17,17,-1,-3,-2
3,-15,-18,5,11,-17,-4,18,15,-1,-3,-2
3,-15,-18,5,10,-17,-5,18,14,-2,-3,-2
3,-14,-17,5,10,-16,-5,19,14,-2,-3,-2
3,-13,-16,5,10,-15,-5,20,13,-1,-2,-1
2,-11,-15,4,9,-13,-5,21,12,-1,-2,-1
1,-11,-13,5,8,-12,-5,21,11,-1,-2,0
2,-11,-14,4,8,-12,-5,21,10,-2,-2,0
3,-11,-15,4,9,-13,-5,22,9,-2,-3,0
3,-11,-15,4,9,-13,-4,22,9,-2,-3,0
3,-12,-16,4,9,-14,-4,23,8,-2,-3,0
4,-12,-17,4,10,-15,-4,23,6,-3,-3,-1
5,-14,-20,4,12,-16,-5,22,5,-4,-4,-2
5,-15,-21,5,12,-17,-5,22,3,-5,-5,-3
4,-15,-20,5,12,-17,-6,21,2,-6,-6,-4
3,-15,-18,5,11,-16,-6,21,1,-6,-6,-4
2,-15,-16,6,9,-15,-6,21,0,-6,-6,-4
1,-15,-15,6,8,-15,-6,21,0,-6,-6,-4
0,-14,-14,6,7,-14,-6,21,0,-6,-6,-4
0,-13,-13,6,6,-13,-6,21,0,-6,-6,-4
1,-12,-13,6,7,-13,-5,21,0,-6,-5,-4
1,-12,-14,5,7,-13,-5,21,-1,-6,-5,-4
1,-11,-13,5,7,-12,-4,21,-1,-6,-5,-3
1,-11,-12,5,6,-11,-3,21,0,-5,-4,-2
2,-9,-12,3,6,-10,-3,21,0,-5,-4,-1
3,-8,-11,2,7,-10,-3,21,0,-4,-3,-1
4,-7,-11,2,7,-9,-3,20,1,-4,-3,0
4,-7,-11,2,7,-9,-3,20,1,-3,-2,0
4,-7,-10,1,7,-9,-2,19,1,-3,-2,0
3,-6,-9,1,6,-8,-2,19,2,-2,-1,1
2,-6,-8,2,5,-7,-2,19,2,-1,-1,1
1,-6,-7,2,4,-7,-2,19,3,-1,-1,1
1,-6,-8,2,4,-7,-2,18,3,-1,-1,1
2,-5,-8,2,4,-7,-2,18,4,-1,0,2
3,-4,-8,1,5,-7,-2,18,5,0,0,2
3,-4,-8,0,5,-6,-2,18,5,0,0,3
2,-4,-7,1,4,-6,-2,18,6,0,1,3
2,-3,-6,1,4,-5,-3,18,7,0,1,4
2,-3,-5,0,3,-5,-3,19,8,1,2,4
1,-2,-4,0,2,-4,-2,20,10,3,3,5
0,-1,-2,0,1,-2,-1,21,13,5,4,7
0,0,0,0,0,0,0,23,16,7,6,8
1,3,2,-2,0,2,0,24,18,9,8,10
3,5,2,-4,0,3,1,25,20,10,9,11
5,7,2,-6,1,4,1,26,22,10,9,11
5,8,2,-6,1,4,1,26,24,11,10,12
5,9,4,-7,0,6,1,27,26,13,11,13
5,11,5,-8,0,8,1,28,28,14,12,14
6,12,6,-9,-1,9,1,29,30,16,13,14
6,13,7,-9,-1,10,1,29,32,17,14,15
5,14,8,-9,-1,11,1,30,34,18,15,16
4,13,9,-8,-3,11,2,31,36,18,15,16
2,13,11,-7,-4,12,2,32,38,19,16,16
3,14,11,-8,-4,12,2,33,40,20,16,16
4,16,12,-10,-4,13,2,33,42,21,17,17
4,17,12,-10,-5,14,2,33,43,22,17,17
3,17,14,-10,-6,15,2,32,45,24,18,18
3,19,15,-11,-6,17,2,31,47,25,19,18
3,20,17,-11,-7,19,1,29,48,26,20,19
2,21,19,-11,-8,21,1,27,49,27,21,19
1,23,21,-11,-9,22,0,25,50,27,22,20
2,24,21,-12,-9,23,-1,24,50,27,22,20
4,24,20,-13,-8,22,-2,22,50,27,21,20
5,25,20,-14,-7,22,-3,21,50,27,21,20
5,26,20,-15,-7,23,-4,21,51,27,22,20
6,26,20,-16,-6,23,-4,21,52,28,22,20
5,25,19,-15,-6,22,-4,21,52,28,22,20
4,22,18,-13,-6,20,-5,20,52,27,21,19
5,20,15,-12,-5,18,-6,19,52,26,20,18
5,19,14,-12,-5,16,-6,20,52,26,20,18
4,17,14,-10,-6,15,-6,20,52,26,19,17
2,15,14,-8,-6,14,-7,19,51,25,19,17
0,14,14,-7,-7,14,-7,19,50,24,18,16
0,13,13,-6,-7,13,-6,19,49,24,18,16
0,13,12,-6,-5,12,-6,18,49,24,18,16
1,12,11,-6,-4,11,-5,18,48,23,17,15
1,12,10,-6,-4,11,-5,17,48,23,16,15
1,12,10,-6,-4,10,-4,17,47,22,16,15
1,11,10,-6,-4,10,-4,16,46,21,15,14
2,10,9,-6,-4,9,-4,16,45,20,14,13
3,10,7,-6,-3,9,-4,15,44,19,14,12
2,10,7,-6,-2,9,-3,15,43,19,13,12
1,9,7,-5,-3,8,-3,15,42,18,13,11
0,7,6,-3,-3,7,-2,15,41,18,12,11
0,5,5,-2,-3,5,-1,15,41,18,12,10
0,4,5,-2,-3,4,0,15,40,18,12,10
0,4,4,-2,-2,4,1,16,39,17,12,10
0,3,4,-1,-2,3,2,16,38,16,11,9
0,2,3,0,-2,3,3,16,37,15,10,8
-1,2,3,0,-2,2,3,16,36,15,10,8
-2,1,4,0,-3,3,4,15,35,14,9,7
-3,1,4,1,-3,3,4,15,33,13,9,7
-4,0,4,1,-4,2,4,14,32,12,8,6
-3,0,3,1,-4,2,4,14,30,11,8,6
-3,0,2,1,-3,1,4,13,29,11,7,5
-3,-1,2,2,-3,0,4,13,28,10,7,5
-4,-3,1,3,-3,-1,5,13,28,10,6,5
-6,-5,1,5,-4,-2,5,12,27,9,5,4
-9,-8,0,8,-5,-4,5,12,25,8,4,3
-11,-11,0,11,-5,-5,5,11,24,7,3,2
-11,-12,-1,11,-4,-6,5,10,23,6,2,1
-10,-12,-2,11,-4,-6,5,10,22,5,1,1
-10,-11,-1,11,-5,-6,5,9,21,4,1,1
-10,-11,0,11,-5,-6,5,9,20,4,0,1
-10,-11,-1,11,-5,-7,5,9,20,3,0,1
-10,-12,-3,11,-3,-8,5,9,19,3,0,0
-9,-13,-5,11,-2,-9,5,9,18,3,-1,0
-8,-14,-6,11,-1,-10,6,9,17,2,-1,-1
-8,-15,-7,11,-1,-10,6,9,17,1,-2,-2
-9,-15,-6,12,-1,-10,7,9,16,1,-1,-2
-9,-15,-6,12,-2,-10,7,10,16,1,-1,-2
-9,-15,-5,12,-2,-10,7,9,16,1,-2,-2
-11,-15,-4,13,-3,-10,7,9,15,1,-2,-2
-13,-15,-3,15,-5,-10,7,8,14,0,-2,-3
-14,-16,-3,16,-5,-10,8,8,13,0,-3,-3
-14,-17,-4,16,-4,-11,8,8,12,-1,-4,-3
-14,-19,-5,16,-4,-12,7,7,11,-3,-5,-4
-14,-20,-6,17,-4,-13,7,7,10,-4,-5,-5
-15,-21,-7,18,-4,-14,8,6,10,-4,-6,-5
-15,-22,-7,19,-4,-15,8,6,10,-4,-6,-5
-14,-22,-8,18,-3,-15,8,6,10,-4,-6,-5
-12,-21,-9,17,-1,-16,8,6,9,-4,-7,-6
-10,-20,-10,15,0,-16,9,6,9,-4,-7,-6
-10,-19,-10,14,0,-15,9,7,9,-4,-7,-6
-9,-18,-10,14,0,-14,9,7,9,-4,-7,-6
-9,-18,-10,14,0,-14,10,7,8,-5,-7,-6
-10,-20,-10,15,0,-15,10,7,7,-6,-8,-6
-12,-22,-10,18,-1,-16,9,6,7,-7,-8,-7
-14,-24,-10,19,-1,-17,9,6,6,-7,-9,-8
-14,-25,-11,20,-1,-18,9,5,6,-7,-9,-9
-13,-25,-12,20,0,-19,9,5,6,-7,-9,-9
-13,-25,-12,19,0,-18,9,4,6,-8,-9,-9
-13,-24,-11,19,0,-18,9,4,6,-8,-9,-9
-13,-25,-11,19,-1,-18,9,4,5,-8,-9,-9
-13,-25,-12,19,0,-19,9,4,5,-8,-9,-9
-13,-25,-12,19,0,-19,9,4,5,-7,-9,-9
-13,-25,-11,20,-1,-19,9,4,5,-7,-9,-9
-13,-25,-12,19,0,-19,10,4,5,-7,-9,-9
-12,-25,-13,19,0,-19,10,4,4,-8,-9,-9
-13,-26,-13,20,0,-20,11,4,4,-8,-9,-9
-13,-26,-13,20,0,-20,11,5,4,-8,-9,-9
-14,-27,-13,21,0,-20,11,5,4,-8,-9,-9
-15,-27,-13,21,-1,-20,11,5,3,-8,-9,-9
-15,-27,-13,21,-1,-20,11,5,3,-8,-9,-10
-14,-27,-13,20,-1,-20,11,4,2,-9,-9,-10
-13,-26,-12,20,0,-20,11,4,2,-9,-10,-11
-15,-26,-11,21,-1,-19,11,4,2,-9,-10,-12
-16,-26,-10,21,-3,-18,11,4,2,-9,-10,-12
-16,-25,-9,21,-3,-18,11,4,2,-9,-10,-12
-16,-25,-9,21,-2,-18,11,4,2,-9,-10,-12
-15,-25,-10,20,-2,-18,11,4,2,-9,-10,-11
-14,-25,-11,20,-1,-18,11,4,3,-9,-10,-11
-13,-25,-11,19,-1,-18,11,4,3,-8,-10,-11
-12,-24,-11,19,-1,-18,12,4,3,-8,-9,-10
-13,-23,-9,18,-2,-16,12,4,4,-8,-9,-9
-13,-22,-7,18,-3,-15,13,4,4,-8,-8,-8
-13,-20,-6,17,-3,-14,13,4,4,-7,-8,-8
-12,-19,-7,16,-3,-13,12,3,4,-7,-8,-8
-13,-20,-7,16,-3,-13,12,3,4,-7,-8,-8
-14,-21,-8,17,-3,-14,12,2,4,-7,-8,-8
-14,-23,-9,18,-3,-16,12,1,4,-8,-9,-9
-14,-23,-10,18,-2,-17,11,1,3,-8,-10,-10
-14,-24,-10,19,-2,-17,11,0,3,-8,-10,-10
-14,-25,-10,20,-2,-18,11,0,3,-9,-10,-10
-15,-26,-11,20,-2,-19,11,0,3,-9,-10,-11
-15,-26,-11,20,-2,-19,11,0,3,-9,-10,-11
-15,-25,-10,20,-2,-18,11,0,3,-9,-9,-10
-15,-25,-10,20,-2,-18,12,0,4,-8,-9,-9
-16,-25,-9,20,-3,-18,12,0,4,-8,-9,-9
-16,-24,-8,20,-3,-17,12,1,5,-8,-9,-9
-16,-23,-7,20,-4,-16,12,3,7,-8,-8,-10
-17,-24,-7,21,-5,-16,13,6,10,-7,-8,-10
-19,-25,-7,22,-6,-17,15,11,14,-6,-8,-10
-18,-26,-8,23,-5,-18,16,15,19,-4,-8,-10
-17,-26,-10,22,-3,-18,16,19,25,-2,-7,-11
-15,-25,-9,20,-3,-17,16,21,32,2,-5,-10
-15,-22,-7,19,-4,-15,16,23,38,7,-1,-8
-13,-18,-5,16,-4,-12,15,25,42,13,3,-5
-9,-14,-5,12,-2,-10,13,25,44,19,9,-1
-4,-10,-7,8,1,-9,9,25,45,25,16,4
1,-6,-9,3,5,-8,5,27,49,32,23,9
7,-1,-9,-3,8,-5,2,30,59,42,32,16
12,8,-4,-10,8,1,0,30,71,56,45,25
15,20,5,-17,5,12,-4,22,71,72,62,38
18,33,16,-26,1,24,-9,1,52,87,78,50
22,48,26,-35,-1,37,-17,-29,16,100,94,63
25,63,38,-43,-6,50,-25,-62,-27,110,108,76
26,76,50,-50,-12,63,-32,-93,-68,116,120,88
26,86,59,-55,-16,72,-35,-118,-107,115,124,96
26,87,61,-56,-17,73,-35,-131,-139,104,118,97
23,81,58,-51,-17,69,-30,-134,-162,86,104,91
15,70,55,-42,-20,62,-23,-132,-180,66,85,80
5,58,54,-31,-24,56,-17,-129,-199,44,65,68
-6,45,51,-19,-28,48,-10,-124,-219,20,45,55
-17,27,45,-4,-30,36,-2,-113,-236,-6,21,40
-26,9,36,9,-31,22,5,-101,-250,-32,-3,23
-33,-6,27,20,-30,9,7,-96,-260,-54,-22,8
-38,-20,17,29,-28,-2,6,-97,-266,-71,-38,-3
-39,-33,6,37,-23,-14,3,-102,-267,-85,-50,-13
-40,-43,-3,42,-18,-24,0,-110,-264,-94,-59,-21
-40,-50,-9,45,-15,-30,-3,-121,-255,-100,-64,-27
-40,-54,-15,47,-12,-34,-7,-130,-241,-101,-67,-31
-39,-57,-18,48,-10,-37,-9,-135,-223,-100,-67,-34
-39,-58,-20,49,-9,-38,-10,-136,-203,-95,-65,-34
-39,-57,-19,48,-10,-38,-10,-132,-182,-89,-62,-33
-37,-53,-17,46,-10,-35,-10,-125,-161,-80,-56,-31
-34,-47,-13,41,-11,-30,-10,-115,-140,-71,-50,-27
-32,-42,-10,37,-11,-26,-9,-101,-119,-61,-43,-24
-31,-37,-7,34,-11,-22,-7,-88,-100,-52,-37,-20
-28,-32,-5,30,-11,-18,-5,-77,-83,-45,-32,-17
-25,-27,-3,26,-10,-15,-4,-66,-67,-38,-27,-15
-22,-24,-3,23,-9,-14,-3,-56,-52,-32,-23,-13
-19,-23,-5,22,-7,-14,-2,-45,-39,-28,-20,-12
-17,-22,-5,21,-6,-14,-1,-36,-27,-23,-18,-11
-15,-22,-6,19,-5,-14,0,-28,-18,-19,-15,-9
-14,-21,-6,18,-4,-14,1,-22,-10,-15,-13,-8
-14,-21,-7,18,-3,-14,3,-17,-5,-13,-11,-7
-14,-21,-7,18,-2,-14,4,-14,-1,-11,-10,-7
-12,-20,-8,17,-1,-14,4,-12,2,-10,-10,-7
-11,-19,-9,16,0,-14,4,-11,4,-10,-9,-7
-10,-20,-10,15,0,-15,4,-10,7,-9,-9,-7
-10,-20,-9,16,0,-15,5,-8,9,-8,-9,-6
-11,-20,-8,16,-1,-14,5,-6,12,-7,-7,-6
-12,-20,-7,16,-2,-14,6,-4,15,-6,-6,-5
-11,-19,-8,16,-1,-14,6,-3,16,-5,-6,-5
-10,-20,-10,15,0,-15,6,-3,16,-5,-6,-6
-10,-20,-11,15,1,-16,6,-3,17,-5,-6,-6
-11,-20,-11,15,0,-16,6,-2,17,-4,-6,-6
-10,-20,-11,15,0,-15,5,-2,18,-4,-6,-6
-9,-20,-12,15,1,-16,4,-2,18,-5,-6,-6
-8,-20,-12,14,2,-16,4,-2,18,-5,-7,-6
-8,-20,-12,14,2,-15,4,-1,19,-4,-6,-6
-8,-19,-11,14,2,-15,4,0,19,-4,-6,-5
-8,-19,-11,14,2,-15,4,0,20,-3,-6,-5
-8,-20,-12,14,2,-16,5,0,20,-3,-5,-5
-8,-21,-13,14,3,-17,5,0,20,-3,-5,-5
-7,-21,-13,14,3,-17,6,1,21,-3,-5,-5
-7,-21,-14,14,4,-18,6,1,21,-3,-5,-5
-6,-21,-15,14,5,-18,5,1,21,-3,-5,-6
-4,-20,-16,13,6,-18,5,1,22,-3,-4,-6
-4,-19,-16,12,6,-18,4,1,22,-3,-4,-6
-4,-19,-15,12,6,-17,4,1,22,-3,-4,-5
-4,-19,-15,12,6,-17,3,1,22,-3,-4,-5
-4,-18,-15,11,6,-17,3,1,22,-2,-3,-5
-3,-18,-15,11,6,-17,3,1,23,-2,-3,-4
-3,-17,-14,11,5,-16,3,2,23,-2,-2,-4
-4,-18,-14,12,5,-17,2,2,22,-2,-3,-4
-4,-19,-15,13,5,-18,2,2,22,-2,-3,-4
-4,-20,-16,13,6,-18,2,2,22,-2,-3,-3
-3,-21,-18,13,8,-19,2,2,22,-2,-3,-3
-3,-21,-19,12,9,-20,2,2,21,-2,-3,-3
-2,-21,-19,12,9,-19,1,2,21,-2,-3,-2
-2,-20,-18,11,9,-19,1,3,21,-2,-2,-2
-2,-20,-18,11,8,-18,1,3,21,-1,-2,-1
-3,-20,-17,12,7,-18,1,4,21,-1,-1,-1
-4,-20,-17,12,6,-18,1,4,21,-2,-1,-1
-3,-20,-17,12,7,-19,1,4,20,-3,-2,-1
-2,-19,-17,11,8,-18,0,4,19,-3,-2,-1
-1,-18,-17,10,8,-17,0,5,19,-3,-1,-1
-1,-17,-16,10,8,-17,0,5,18,-3,-1,-1
-1,-18,-17,10,8,-17,-1,5,17,-4,-2,-1
-1,-19,-19,10,9,-19,-2,5,16,-6,-2,-2
0,-20,-20,10,10,-20,-2,5,15,-7,-3,-2
0,-20,-21,10,10,-21,-3,6,15,-7,-3,-2
0,-19,-20,10,10,-20,-3,7,15,-7,-3,-2
0,-18,-18,9,10,-18,-2,8,15,-7,-3,-1
0,-17,-18,9,10,-18,-2,9,14,-7,-3,-1
0,-17,-18,9,10,-18,-1,10,13,-7,-3,-1
0,-18,-19,9,10,-18,-1,10,12,-7,-3,-1
0,-18,-19,9,10,-19,-2,10,11,-7,-3,-1
0,-18,-19,9,10,-19,-2,10,10,-7,-3,-1
0,-18,-19,9,10,-19,-2,11,9,-8,-3,-1
0,-18,-18,9,9,-18,-2,11,8,-8,-3,-1
0,-17,-16,9,8,-17,-2,11,7,-8,-4,-1
-1,-16,-15,9,7,-16,-3,10,6,-9,-4,-1
-2,-16,-15,10,6,-15,-3,10,5,-9,-5,-1
-3,-16,-14,11,6,-15,-3,10,5,-10,-5,0
-3,-16,-14,10,6,-15,-3,10,4,-10,-5,0
-3,-17,-14,10,6,-15,-3,9,3,-10,-5,0
-3,-18,-15,11,6,-16,-3,9,2,-10,-5,0
-3,-18,-15,11,6,-16,-2,9,2,-10,-5,0
-3,-18,-14,11,5,-16,-2,8,1,-10,-5,0
-3,-17,-14,10,5,-16,-2,8,1,-10,-5,1
-3,-16,-13,10,5,-15,-2,8,1,-10,-5,1
-4,-16,-12,10,5,-14,-2,7,1,-9,-5,2
-5,-16,-12,10,4,-14,-2,7,1,-9,-5,2
-5,-16,-11,11,3,-13,-2,6,1,-9,-5,2
-6,-17,-11,11,2,-13,-2,6,1,-9,-4,2
-7,-17,-10,12,1,-13,-2,6,2,-8,-3,2
-7,-16,-9,11,1,-12,-2,6,2,-8,-3,3
-6,-15,-8,10,1,-11,-2,7,3,-7,-2,3
-5,-13,-8,9,1,-10,-2,7,5,-6,-1,4
-4,-11,-7,8,2,-9,-2,8,6,-5,0,4
-2,-9,-7,6,2,-8,-2,8,7,-4,1,5
-3,-7,-6,5,2,-7,-1,9,8,-2,2,6
-4,-6,-3,5,0,-5,-1,9,9,-1,3,7
-5,-6,-1,5,-1,-4,-1,9,10,0,4,8
-4,-5,-1,4,0,-3,-2,9,11,0,5,9
-3,-5,-1,3,0,-3,-2,9,12,1,5,9
-4,-4,0,4,-1,-2,-2,9,13,2,6,10
-4,-3,1,4,-3,0,-2,10,15,3,7,10
-4,-1,2,3,-3,0,-2,10,17,4,7,11
-4,0,3,2,-3,1,-2,11,19,5,8,11
-4,0,4,2,-4,3,-2,12,20,7,9,12
-5,1,6,2,-6,4,-2,12,22,7,9,12
-5,2,7,1,-6,5,-2,13,24,8,10,13
-3,4,8,-1,-5,6,-1,14,26,10,12,14
-2,6,8,-2,-5,7,-1,15,28,11,13,15
-2,7,8,-2,-5,8,-1,16,30,12,14,15
-3,7,9,-1,-6,8,-1,17,32,13,15,16
-4,7,10,0,-6,8,-1,18,35,14,15,16
-3,8,9,-1,-6,9,-1,19,37,15,15,17
-2,9,9,-3,-5,9,-1,20,38,16,15,17
-2,10,11,-4,-6,11,-1,21,40,17,16,18
-2,11,15,-4,-8,13,0,22,42,19,18,19
-3,13,17,-5,-10,15,0,23,44,21,19,21
-3,14,19,-5,-11,17,0,22,46,23,21,22
-3,15,20,-5,-12,18,-1,20,47,25,22,23
-4,16,20,-5,-12,18,-1,19,48,26,23,23
-4,18,21,-6,-12,19,-2,17,48,26,23,24
-2,20,21,-8,-11,20,-2,16,49,27,24,24
-1,21,21,-10,-10,20,-2,16,49,27,24,25
0,21,21,-10,-10,21,-3,15,48,27,24,25
0,20,21,-11,-10,21,-4,15,48,27,24,24
1,20,21,-10,-10,21,-4,15,48,27,24,24
1,20,20,-10,-9,20,-5,15,48,26,23,24
1,19,18,-10,-8,19,-6,15,48,26,23,23
0,18,16,-9,-7,17,-6,15,49,25,22,22
-1,17,16,-8,-8,17,-6,16,49,25,22,22
-4,15,17,-6,-10,16,-6,17,49,25,21,21
-5,14,18,-5,-11,16,-6,17,49,25,21,21
-3,14,17,-6,-10,15,-7,16,47,24,19,20
-1,13,15,-6,-8,14,-7,15,46,22,18,18
0,13,13,-6,-6,13,-6,15,45,21,18,17
0,13,12,-6,-5,13,-6,15,44,20,17,17
0,13,12,-6,-5,12,-6,16,44,19,17,17
0,13,12,-6,-5,12,-5,16,44,19,17,17
0,13,12,-6,-5,12,-4,16,43,20,17,18
0,12,11,-6,-5,12,-3,16,43,20,17,18
0,12,11,-6,-5,12,-2,16,42,20,17,18
-1,11,11,-5,-6,11,-2,16,41,19,16,18
-3,10,11,-3,-7,11,-1,16,41,19,16,17
-5,7,11,-1,-8,10,-1,16,40,17,14,15
-6,6,10,0,-8,8,-1,17,39,16,13,13
-6,4,9,1,-7,7,-1,17,37,15,11,12
-6,2,7,2,-7,5,0,17,36,13,10,10
-7,0,7,4,-7,3,0,17,34,12,8,9
-9,-3,6,6,-8,1,1,17,33,12,7,9
-10,-4,6,7,-8,1,2,17,33,11,7,9
-11,-5,7,8,-9,1,3,18,32,11,7,9
-12,-5,7,9,-9,1,4,18,31,10,7,9
-12,-6,6,9,-9,0,4,19,31,10,7,9
-12,-7,5,10,-8,-1,5,19,30,9,6,8
-12,-8,4,10,-8,-2,5,19,28,8,6,8
-12,-9,3,10,-7,-3,5,19,27,7,5,7
-13,-10,2,11,-7,-4,5,19,26,6,4,7
-13,-12,1,12,-7,-5,5,18,25,5,3,6
-12,-12,0,12,-6,-6,6,18,24,4,3,5
-12,-13,-1,12,-5,-6,6,17,23,4,2,4
-12,-13,-1,12,-5,-6,6,17,22,3,2,4
-11,-13,-1,12,-5,-6,6,16,21,3,1,3
-11,-13,-2,11,-4,-7,6,16,20,2,1,3
-11,-12,-1,11,-5,-7,6,16,20,2,0,3
-12,-12,0,11,-5,-6,6,16,19,1,0,2
-12,-13,-1,12,-5,-7,7,16,18,1,0,2
-12,-14,-2,12,-5,-8,8,16,17,0,0,1
-11,-14,-3,13,-4,-9,9,17,17,1,0,1
-11,-14,-4,12,-3,-9,9,17,17,1,0,1
-10,-14,-4,12,-3,-9,10,17,17,0,0,1
-11,-14,-4,12,-3,-9,10,17,16,0,0,1
-12,-15,-3,13,-4,-10,10,16,16,0,-1,1
-13,-17,-3,15,-4,-11,10,16,15,-1,-1,1
-14,-19,-4,16,-4,-12,10,15,14,-2,-2,0
-15,-20,-5,17,-5,-12,10,14,13,-3,-3,0
-16,-21,-5,18,-5,-13,10,14,12,-3,-4,0
-17,-22,-5,19,-6,-13,10,13,12,-4,-4,-1
-17,-22,-5,19,-5,-14,10,13,11,-4,-4,-1
-17,-22,-6,19,-5,-14,10,13,11,-4,-4,-1
-17,-21,-5,19,-5,-13,10,13,10,-4,-4,-1
-17,-21,-5,19,-6,-13,11,13,10,-4,-4,-1
-17,-21,-4,19,-6,-12,11,13,10,-4,-4,-1
-17,-21,-4,19,-7,-12,12,13,10,-4,-4,-1
-18,-22,-3,20,-7,-12,13,13,10,-4,-4,-1
-19,-22,-4,20,-8,-13,13,13,9,-5,-4,-1
-21,-24,-4,22,-9,-13,12,12,8,-6,-5,-2
-23,-26,-3,24,-10,-14,12,11,7,-7,-7,-2
-24,-27,-3,26,-11,-15,11,10,7,-8,-8,-3
-24,-27,-4,26,-10,-15,11,10,6,-9,-9,-4
-23,-28,-5,26,-9,-16,10,9,5,-10,-10,-5
-23,-29,-6,25,-8,-17,10,9,5,-10,-10,-5
-22,-28,-6,24,-7,-17,10,9,4,-11,-11,-5
-21,-27,-7,24,-7,-17,11,9,4,-11,-11,-5
-21,-28,-7,24,-6,-18,11,9,4,-11,-11,-6
-21,-28,-8,25,-6,-18,12,9,4,-11,-11,-6
-21,-28,-8,25,-6,-18,12,9,4,-12,-11,-7
-20,-27,-8,24,-5,-18,12,9,4,-12,-11,-7
-20,-27,-7,23,-5,-17,13,10,4,-11,-10,-7
-19,-27,-7,23,-5,-17,13,10,3,-11,-10,-8
-19,-26,-7,22,-5,-17,13,10,3,-11,-10,-8
-17,-26,-8,21,-4,-17,13,10,2,-11,-10,-8
-16,-26,-9,20,-3,-18,13,9,2,-11,-10,-7
-16,-26,-11,21,-3,-18,13,9,2,-11,-10,-7
-15,-27,-12,21,-2,-19,13,9,3,-11,-10,-7
-15,-27,-12,21,-1,-19,13,9,3,-11,-10,-6
-15,-27,-13,21,-1,-20,13,8,3,-11,-10,-6
-14,-27,-13,21,-1,-20,13,8,2,-11,-11,-7
-14,-27,-13,20,-1,-20,13,8,3,-11,-11,-7
-15,-28,-12,21,-2,-20,14,8,3,-11,-10,-7
-16,-28,-12,22,-2,-20,14,9,3,-11,-10,-7
-16,-29,-12,22,-2,-21,14,9,3,-11,-10,-8
-16,-29,-13,22,-2,-21,15,9,3,-10,-10,-8
-16,-28,-13,22,-1,-20,15,9,3,-10,-9,-7
-16,-27,-12,21,-2,-19,15,9,3,-9,-9,-7
-16,-26,-11,21,-3,-18,15,9,3,-9,-8,-6
-17,-26,-10,21,-3,-18,15,9,4,-9,-8,-6
-17,-27,-10,22,-4,-17,15,9,4,-8,-7,-5
-18,-27,-9,22,-5,-17,14,9,5,-8,-7,-5
-18,-26,-8,22,-5,-17,14,8,5,-8,-7,-4
-18,-25,-7,22,-5,-17,14,8,5,-8,-7,-3
-18,-25,-7,22,-5,-17,14,8,6,-7,-6,-2
-18,-26,-8,22,-5,-17,14,8,5,-7,-7,-2
-18,-26,-8,22,-4,-17,14,8,5,-8,-7,-3
-18,-26,-8,22,-4,-17,14,8,5,-8,-7,-3
-18,-26,-8,21,-4,-16,15,8,5,-8,-8,-3
-17,-26,-8,21,-4,-16,15,8,5,-8,-8,-3
-16,-25,-8,20,-4,-16,14,7,4,-8,-9,-3
-17,-24,-6,20,-5,-15,14,7,4,-7,-9,-3
-18,-23,-4,20,-7,-14,14,7,5,-7,-9,-3
-19,-22,-3,20,-8,-13,14,7,5,-8,-9,-4
-20,-22,-2,20,-9,-12,13,7,5,-8,-9,-4
-18,-22,-3,19,-7,-12,14,8,6,-8,-9,-4
-17,-22,-5,19,-6,-13,15,11,10,-7,-9,-4
-18,-24,-6,20,-6,-15,17,15,15,-5,-9,-4
-17,-25,-7,21,-5,-16,19,19,21,-3,-7,-4
-16,-24,-8,20,-4,-17,20,23,27,0,-6,-4
-16,-23,-8,20,-4,-16,21,26,33,2,-4,-4
-16,-22,-5,19,-5,-14,21,28,38,6,-1,-2
-17,-19,-2,18,-7,-11,21,29,43,11,3,0
-15,-17,-2,16,-6,-9,19,30,45,16,8,4
-10,-15,-4,12,-3,-9,16,31,45,20,13,7
-5,-12,-7,8,1,-9,12,32,46,26,19,10
0,-8,-7,4,3,-7,8,34,54,34,27,15
4,0,-5,-2,5,-2,5,36,68,46,38,23
8,10,1,-9,4,5,1,35,80,63,53,33
11,22,10,-17,1,16,-4,26,79,81,71,46
14,36,21,-26,-3,28,-10,7,53,96,89,59
17,50,32,-34,-7,40,-18,-18,10,107,105,73
19,62,42,-41,-11,52,-26,-44,-35,114,118,86
20,73,52,-46,-15,62,-32,-66,-79,115,125,97
20,79,58,-49,-19,69,-34,-81,-119,109,125,102
18,77,59,-47,-21,68,-31,-86,-148,95,114,99
11,70,57,-40,-23,63,-24,-83,-168,75,96,90
1,60,58,-31,-29,59,-16,-81,-187,53,76,79
-10,51,60,-21,-35,55,-11,-82,-210,30,56,68
-21,38,58,-9,-39,48,-6,-80,-230,4,34,55
-31,21,51,5,-41,36,1,-71,-244,-24,10,40
-38,3,41,17,-39,22,9,-59,-250,-47,-12,24
-42,-11,31,27,-37,10,11,-54,-254,-65,-29,11
-44,-24,20,34,-33,-2,9,-55,-256,-80,-43,0
-44,-36,8,40,-27,-14,6,-57,-255,-93,-54,-9
-43,-44,-2,43,-21,-24,4,-61,-250,-101,-62,-17
-42,-50,-9,45,-16,-30,2,-68,-240,-106,-68,-22
-40,-54,-15,46,-12,-35,0,-76,-226,-108,-71,-27
-40,-57,-18,48,-10,-38,-2,-84,-208,-106,-71,-29
-39,-59,-20,49,-9,-39,-2,-91,-190,-100,-68,-30
-38,-60,-21,49,-8,-40,-2,-94,-171,-93,-64,-29
-36,-59,-23,48,-6,-40,-2,-91,-151,-84,-59,-27
-33,-56,-22,45,-6,-39,-1,-86,-131,-73,-52,-24
-31,-51,-20,41,-5,-36,-1,-77,-112,-63,-45,-20
-29,-47,-18,38,-5,-33,0,-67,-93,-53,-38,-17
-28,-43,-16,35,-5,-29,0,-58,-77,-46,-32,-14
-27,-39,-13,33,-6,-26,1,-50,-62,-39,-27,-11
-26,-37,-10,32,-7,-23,3,-42,-47,-33,-23,-9
-26,-35,-9,31,-8,-21,4,-33,-33,-27,-19,-6
-24,-34,-9,30,-8,-21,5,-25,-21,-22,-16,-5
-22,-34,-11,29,-6,-22,6,-18,-12,-17,-14,-3
-21,-35,-13,28,-4,-24,7,-13,-4,-13,-12,-2
-21,-35,-15,28,-3,-25,9,-8,2,-9,-9,0
-20,-35,-16,27,-2,-26,10,-5,7,-7,-7,0
-19,-35,-17,26,-1,-26,11,-3,10,-6,-6,1
-17,-34,-17,25,0,-25,11,-1,13,-6,-6,1
-16,-33,-16,25,0,-24,11,0,16,-5,-5,2
-16,-32,-15,24,0,-24,11,1,18,-4,-5,2
-16,-32,-15,24,0,-24,11,1,20,-3,-5,1
-15,-31,-15,23,0,-23,11,1,21,-3,-5,1
-15,-29,-15,22,0,-22,11,1,22,-2,-4,1
-14,-28,-15,21,0,-21,11,2,23,-2,-4,1
-14,-28,-15,21,0,-21,11,2,23,-2,-4,0
-14,-28,-16,21,1,-22,11,2,25,-2,-4,0
-13,-28,-16,20,1,-22,12,3,26,-1,-3,0
-13,-28,-15,20,1,-21,12,4,27,-1,-3,0
-13,-28,-14,20,1,-21,12,4,28,0,-3,0
-13,-28,-14,20,1,-21,12,4,29,0,-3,0
-11,-27,-15,19,2,-21,12,4,29,0,-3,0
-9,-26,-16,17,4,-21,11,4,29,0,-3,0
-9,-26,-16,17,4,-21,11,4,29,0,-3,0
-9,-25,-16,17,4,-20,11,4,30,0,-2,1
-9,-25,-16,17,4,-20,11,4,31,1,-2,1
-9,-25,-16,17,3,-20,11,4,31,1,-2,1
-9,-25,-16,16,3,-20,11,4,32,2,-2,1
-8,-24,-16,16,3,-19,11,4,32,2,-1,1
-7,-23,-16,15,4,-19,11,4,32,3,0,2
-7,-23,-16,15,4,-19,10,4,32,3,0,3
-7,-24,-17,15,4,-20,10,4,33,3,0,3
-8,-25,-17,16,4,-20,9,3,32,2,0,3
-7,-25,-17,16,4,-21,8,2,31,2,0,3
-7,-25,-18,16,5,-21,7,2,30,1,-1,2
-7,-25,-18,16,5,-21,7,1,30,0,-2,2
-7,-26,-18,16,5,-22,6,1,30,0,-2,2
-7,-27,-20,17,5,-23,6,0,29,0,-2,2
-8,-28,-21,17,6,-24,5,0,29,-1,-3,2
-9,-29,-20,19,5,-24,5,0,29,-1,-3,1
-10,-30,-20,20,4,-25,6,1,29,-1,-3,1
-10,-31,-21,20,5,-26,6,1,29,-2,-3,1
-8,-31,-23,20,7,-27,5,1,28,-2,-4,0
-7,-31,-24,19,8,-27,5,1,28,-3,-4,0
-7,-31,-24,19,8,-27,5,1,28,-3,-4,0
-6,-29,-23,17,8,-26,5,2,28,-2,-3,0
-4,-26,-22,15,8,-24,6,3,28,-2,-2,1
-3,-23,-20,13,8,-22,6,4,28,-1,-1,2
-3,-21,-18,12,7,-20,6,5,28,0,0,4
-2,-20,-17,11,7,-19,6,6,28,0,0,4
-2,-19,-17,11,7,-18,5,7,27,-1,-1,4
-2,-19,-17,11,7,-18,5,7,26,-1,-1,4
-2,-19,-17,11,7,-18,4,8,25,-2,-1,4
-2,-19,-17,11,7,-18,4,8,24,-3,-2,4
-2,-19,-18,11,7,-18,3,8,22,-3,-2,4
-2,-20,-18,11,7,-19,3,9,21,-4,-3,4
-2,-20,-18,11,7,-19,3,9,20,-5,-3,4
-2,-20,-18,11,8,-19,4,9,20,-5,-3,4
-2,-20,-19,11,8,-19,4,10,19,-5,-3,4
-2,-21,-19,11,8,-20,4,11,19,-6,-4,4
-3,-22,-19,12,8,-20,4,11,17,-6,-4,3
-4,-23,-19,13,7,-21,4,11,16,-6,-4,3
-4,-23,-19,14,7,-21,4,11,14,-6,-4,3
-5,-23,-18,15,6,-21,4,11,13,-6,-4,3
-6,-23,-17,15,5,-20,4,11,12,-6,-4,3
-7,-23,-16,15,4,-20,4,11,11,-7,-4,3
-8,-23,-15,15,3,-19,4,11,10,-7,-4,3
-7,-22,-15,14,4,-19,3,11,9,-7,-4,3
-5,-20,-15,12,5,-18,3,10,8,-8,-4,3
-4,-18,-14,11,5,-17,3,10,6,-8,-4,3
-2,-16,-14,9,5,-15,2,9,4,-8,-4,3
-2,-15,-14,9,5,-15,2,8,2,-9,-5,2
-3,-15,-13,9,4,-14,1,7,1,-9,-5,2
-4,-15,-11,10,3,-13,1,7,1,-9,-5,3
-5,-14,-9,10,2,-12,2,7,2,-8,-4,4
-6,-13,-7,10,1,-11,2,8,3,-7,-3,5
-7,-13,-6,10,0,-10,3,8,4,-7,-2,6
-7,-13,-6,10,0,-10,3,8,5,-6,-2,7
-6,-14,-7,10,0,-11,3,8,5,-6,-2,7
-6,-14,-8,9,1,-11,3,8,5,-5,-2,7
-5,-12,-7,8,1,-10,3,9,6,-4,-1,8
-4,-10,-6,7,1,-8,4,9,7,-2,0,9
-2,-7,-5,5,1,-7,4,9,8,-1,1,10
-1,-6,-5,3,2,-6,3,9,9,-1,2,10
-1,-5,-4,2,2,-5,3,9,10,0,3,11
-1,-4,-3,2,1,-4,3,9,11,1,4,12
-2,-3,-1,2,-1,-2,3,10,12,3,6,13
-2,-2,0,2,-2,-1,3,10,14,5,8,14
-2,-1,0,1,-2,0,3,11,15,7,9,15
-1,0,1,0,-1,1,3,11,17,8,10,15
-1,1,2,0,-2,2,3,11,18,9,10,16
0,3,3,-1,-2,3,3,11,20,10,11,16
0,4,3,-2,-1,3,2,12,22,10,12,17
1,5,4,-3,-1,4,2,13,24,11,12,17
2,6,4,-4,-1,5,2,14,27,13,13,18
2,7,5,-5,-1,6,3,16,29,14,15,19
3,9,6,-6,-2,8,3,17,31,16,16,19
3,11,8,-7,-3,10,3,18,33,18,18,21
3,15,12,-8,-4,13,3,19,35,19,19,22
2,17,15,-9,-6,16,3,18,36,21,20,23
1,19,19,-9,-9,19,2,17,38,22,21,23
0,20,21,-10,-10,20,1,15,39,22,21,23
0,20,20,-11,-10,20,0,13,39,23,21,23
1,20,19,-11,-9,20,0,12,40,24,22,24
0,20,19,-11,-9,20,0,12,41,25,23,24
0,20,19,-10,-9,20,0,12,42,26,24,24
0,20,19,-10,-9,20,-1,11,43,26,24,24
0,20,20,-10,-9,20,-1,11,43,26,23,24
0,21,21,-10,-9,21,-2,11,44,26,23,25
0,22,22,-11,-10,21,-2,11,45,27,24,25
0,22,22,-11,-11,22,-2,12,46,28,25,26
0,22,22,-11,-11,22,-2,12,47,28,25,26
0,22,21,-11,-10,21,-2,13,48,29,25,26
0,20,19,-10,-9,19,-2,13,48,29,25,26
-1,18,18,-9,-9,17,-2,13,48,28,24,25
-1,15,16,-7,-9,15,-2,12,48,28,23,24
-1,13,14,-6,-8,13,-3,12,47,27,22,22
-1,11,13,-5,-7,12,-3,12,46,25,21,21
0,10,12,-4,-6,11,-2,12,46,24,21,21
-1,10,11,-4,-6,10,-2,12,46,24,21,21
-2,9,11,-3,-6,10,-1,12,46,24,21,21
-3,9,12,-3,-7,10,-1,11,45,24,21,20
-4,9,13,-2,-8,11,0,11,45,24,21,20
-6,8,14,-1,-10,11,0,11,46,24,21,21
-6,8,14,-1,-11,11,1,12,45,24,21,21
-5,7,12,-1,-9,10,1,11,44,23,20,20
-2,6,9,-2,-6,8,1,11,42,22,19,19
-2,5,8,-1,-5,6,1,11,41,21,17,18
-6,2,8,2,-7,5,2,12,40,20,16,17
-10,0,9,5,-10,5,3,12,39,20,16,17
-12,-1,10,6,-11,5,4,13,39,19,15,16
-11,-1,9,6,-11,4,4,13,38,19,15,16
-9,-1,7,5,-9,3,4,13,37,18,14,15
-7,-2,5,4,-7,1,5,13,36,17,13,14
-7,-3,4,5,-5,0,6,13,36,16,12,14
-7,-4,3,6,-5,0,6,13,35,15,11,13
-7,-5,2,6,-4,-1,6,13,35,14,9,12
-7,-5,1,6,-4,-2,7,13,34,13,9,12
-8,-6,1,7,-4,-2,7,13,34,13,8,12
-10,-7,2,8,-5,-3,8,13,33,12,8,12
-9,-8,1,8,-5,-3,8,13,33,12,8,12
-8,-8,0,8,-4,-4,8,13,32,11,8,12
-8,-8,0,8,-4,-4,8,13,31,11,8,12
-8,-7,0,8,-4,-4,9,13,31,11,8,12
-7,-8,0,8,-3,-4,9,14,30,10,7,12
-7,-9,-1,8,-3,-5,9,14,30,10,7,11
-8,-10,-2,9,-2,-6,9,13,30,9,6,11
-8,-12,-4,9,-2,-8,10,13,29,9,6,10
-8,-13,-6,10,-1,-9,10,13,28,9,5,9
-8,-14,-6,10,-1,-10,11,13,28,8,5,9
-8,-14,-5,11,-1,-10,11,13,27,8,4,8
-8,-14,-4,11,-2,-9,12,13,27,8,4,8
-9,-14,-4,12,-2,-9,12,13,27,7,3,7
-10,-14,-3,13,-3,-9,12,12,26,7,3,7
-11,-14,-3,13,-4,-9,12,12,25,6,3,7
-12,-15,-3,13,-4,-9,12,12,24,6,3,7
-11,-15,-4,13,-3,-10,11,11,23,5,3,6
-10,-17,-7,13,-2,-12,11,10,22,4,2,5
-11,-19,-9,15,-1,-14,12,10,21,4,2,5
-12,-21,-8,17,-2,-14,12,11,21,4,2,5
-13,-21,-8,18,-2,-14,13,11,21,4,1,5
-13,-21,-8,18,-2,-14,13,10,20,3,1,4
-13,-21,-8,18,-2,-15,13,9,18,2,0,3
-13,-21,-9,17,-2,-15,13,8,17,1,0,3
-12,-21,-10,17,-1,-16,13,8,17,1,-1,3
-12,-21,-10,16,-1,-16,14,9,16,1,-1,3
-13,-21,-9,17,-2,-16,14,9,15,1,-1,2
-13,-22,-9,18,-2,-16,14,9,14,0,-2,1
-13,-23,-10,18,-1,-17,14,9,14,0,-2,1
-12,-24,-11,18,-1,-17,14,8,13,-1,-3,0
-13,-24,-11,19,-1,-18,14,8,13,-2,-3,0
-13,-24,-11,19,-1,-18,14,8,13,-2,-3,0
-14,-23,-10,19,-1,-17,15,8,14,-1,-3,0
-16,-24,-9,20,-3,-17,15,8,14,-1,-3,0
-17,-25,-8,22,-4,-17,15,8,13,-2,-4,0
-18,-26,-9,22,-4,-18,15,8,13,-3,-5,0
-18,-27,-9,23,-4,-18,16,8,12,-3,-5,0
-18,-28,-10,23,-4,-18,16,8,12,-3,-5,0
-17,-27,-10,22,-3,-18,16,8,11,-4,-4,1
-17,-26,-9,22,-4,-18,16,8,11,-4,-4,1
-17,-26,-8,22,-4,-17,16,8,11,-4,-4,2
-17,-26,-9,22,-4,-18,16,8,11,-4,-4,1
-16,-25,-10,21,-2,-18,16,7,11,-5,-5,1
-14,-24,-11,19,-1,-18,15,7,11,-4,-5,1
-13,-24,-11,18,0,-18,15,8,11,-4,-5,1
-12,-24,-11,18,0,-18,16,8,12,-3,-5,1
-13,-24,-11,19,0,-18,16,8,12,-3,-5,1
-14,-25,-11,20,-1,-18,17,8,12,-3,-5,0
-14,-26,-11,20,-1,-19,17,8,12,-3,-6,0
-15,-27,-12,21,-1,-20,16,7,11,-3,-7,-2
-16,-28,-13,22,-1,-21,16,7,11,-4,-8,-3
-17,-29,-13,23,-1,-21,15,6,10,-4,-8,-3
-18,-29,-12,23,-2,-21,16,6,9,-5,-8,-3
-19,-29,-10,24,-3,-20,16,6,9,-5,-7,-3
-19,-29,-10,24,-4,-20,16,6,9,-4,-6,-2
-19,-29,-10,24,-4,-20,16,6,10,-4,-6,-2
-19,-29,-10,24,-3,-20,16,7,10,-4,-7,-2
-18,-28,-10,23,-3,-20,17,7,11,-4,-7,-2
-17,-27,-10,22,-3,-19,17,7,11,-4,-6,-1
-16,-25,-9,21,-3,-18,17,7,11,-4,-5,-1
-14,-23,-9,19,-2,-18,17,7,11,-3,-4,0
-13,-23,-10,18,-1,-17,17,7,12,-2,-3,0
-12,-23,-10,18,0,-17,17,7,12,-2,-3,0
-13,-23,-9,18,-1,-16,17,7,12,-2,-4,-1
-14,-23,-9,19,-1,-16,17,7,12,-2,-5,-1
-14,-23,-9,19,-2,-16,17,7,12,-2,-5,-1
-14,-23,-9,19,-2,-16,17,7,12,-2,-5,-2
-14,-23,-10,19,-2,-17,17,7,12,-2,-5,-2
-14,-24,-11,19,-1,-18,16,7,12,-2,-6,-2
-13,-25,-13,19,0,-19,16,6,11,-3,-7,-3
-12,-25,-13,19,1,-19,16,6,10,-3,-7,-3
-12,-25,-13,18,1,-19,16,6,10,-3,-7,-3
-11,-24,-13,18,2,-19,16,7,11,-3,-6,-3
-10,-23,-13,17,2,-18,17,8,12,-3,-6,-3
-11,-22,-12,17,1,-18,18,11,14,-3,-6,-3
-11,-22,-11,17,0,-17,19,15,18,-2,-6,-3
-12,-22,-10,17,0,-17,20,20,22,0,-6,-3
-12,-22,-9,17,-1,-16,22,25,29,2,-5,-3
-12,-21,-9,17,-1,-15,23,29,35,5,-4,-2
-11,-20,-9,16,-1,-15,23,31,41,8,-2,-2
-11,-18,-7,15,-1,-13,22,32,45,12,0,0
-10,-14,-5,12,-2,-10,20,33,48,17,5,3
-6,-9,-4,8,0,-7,18,33,49,24,12,7
-1,-5,-4,3,1,-5,14,33,51,32,21,13
2,0,-3,-1,3,-2,11,35,59,41,30,18
6,6,0,-6,3,3,9,38,72,53,40,25
10,16,6,-13,2,11,5,35,80,68,53,34
13,29,15,-21,0,22,0,22,72,84,70,46
16,43,26,-29,-4,35,-6,0,44,98,87,59
19,58,38,-38,-8,48,-15,-30,3,110,103,72
21,71,49,-45,-13,60,-24,-63,-41,119,118,86
23,84,60,-53,-18,72,-32,-94,-84,126,130,98
24,91,66,-58,-20,79,-37,-119,-123,126,135,107
25,91,66,-58,-20,79,-37,-133,-154,117,130,108
22,85,63,-54,-20,74,-34,-137,-176,99,115,102
15,74,60,-45,-22,67,-30,-136,-194,77,96,92
4,62,58,-33,-26,60,-25,-132,-211,53,75,80
-6,46,53,-20,-29,49,-19,-123,-228,26,52,67
-15,28,43,-6,-28,35,-11,-109,-243,-4,26,50
-22,10,32,6,-26,21,-4,-96,-255,-33,-1,32
-28,-6,22,18,-25,7,-2,-89,-263,-57,-23,17
-32,-21,10,27,-21,-6,-3,-86,-265,-76,-41,4
-32,-34,-1,33,-16,-17,-6,-86,-263,-89,-54,-7
-32,-42,-10,37,-11,-26,-9,-91,-256,-98,-62,-15
-31,-48,-17,39,-6,-32,-12,-99,-244,-102,-67,-21
-30,-51,-22,41,-3,-36,-15,-106,-228,-103,-69,-25
-30,-53,-24,43,-2,-39,-16,-110,-209,-99,-68,-27
-30,-54,-24,43,-2,-39,-16,-111,-188,-93,-65,-28
-30,-52,-22,42,-3,-38,-15,-108,-168,-86,-60,-27
-29,-49,-20,39,-4,-35,-14,-101,-146,-77,-54,-25
-27,-44,-17,36,-5,-31,-12,-91,-124,-67,-48,-22
-26,-40,-13,33,-6,-27,-9,-78,-104,-56,-41,-18
-25,-35,-11,30,-7,-23,-7,-67,-85,-46,-35,-14
-23,-31,-9,27,-7,-19,-4,-56,-68,-38,-29,-11
-21,-27,-7,25,-7,-16,-1,-45,-51,-30,-24,-8
-20,-23,-4,22,-7,-14,1,-33,-35,-23,-19,-4
-17,-20,-3,19,-7,-12,4,-23,-22,-17,-14,-2
-14,-18,-3,17,-5,-11,6,-15,-10,-12,-11,0
-14,-18,-3,16,-5,-11,7,-9,-2,-9,-8,0
-15,-18,-3,16,-6,-10,9,-4,4,-7,-7,1
-15,-18,-3,16,-6,-10,10,-1,8,-5,-6,2
-14,-18,-4,17,-5,-11,10,1,11,-3,-4,2
-15,-19,-5,17,-4,-12,11,3,13,-1,-3,3
-15,-21,-6,18,-4,-13,11,5,16,0,-2,3
-14,-22,-9,19,-2,-16,11,6,19,0,-3,2
-13,-24,-11,18,-1,-18,11,7,20,0,-3,2
-11,-24,-12,18,0,-18,11,7,21,1,-3,2
-11,-23,-12,17,0,-18,12,8,23,1,-3,2
-11,-23,-11,17,0,-17,12,8,24,2,-3,2
-11,-22,-10,17,0,-16,12,8,24,2,-3,2
-9,-21,-11,16,0,-15,11,8,25,1,-3,2
-8,-20,-12,14,2,-15,11,9,25,1,-4,2
-6,-19,-13,13,4,-15,10,9,26,2,-3,2
-5,-18,-13,11,5,-16,10,10,28,2,-3,3
-4,-18,-14,11,5,-16,11,12,30,4,-2,3
-4,-19,-15,11,6,-17,12,13,31,4,-1,3
-3,-19,-15,11,6,-17,12,13,31,4,0,3
-4,-19,-15,11,6,-17,12,13,32,5,0,4
-4,-19,-15,11,6,-17,12,14,32,6,1,4
-3,-19,-16,11,7,-18,12,14,33,7,2,4
-2,-19,-18,11,8,-19,12,14,33,6,1,3
-1,-20,-19,11,9,-19,11,13,33,5,1,3
0,-20,-20,11,10,-20,11,13,33,6,1,3
0,-19,-20,10,10,-19,11,14,34,6,1,3
0,-19,-20,9,10,-19,10,13,34,6,1,3
1,-19,-20,9,10,-19,10,13,33,6,0,2
1,-19,-20,9,10,-19,9,12,33,5,0,2
0,-19,-20,9,10,-19,9,12,33,5,0,2
0,-19,-20,10,10,-19,9,12,33,5,0,2
0,-20,-20,10,10,-20,8,12,32,5,0,2
0,-20,-21,10,11,-21,8,12,32,5,0,2
0,-20,-21,10,11,-21,8,12,32,5,1,3
1,-20,-22,10,11,-21,8,12,32,5,1,4
1,-20,-22,9,11,-21,8,12,32,5,2,4
2,-20,-22,9,12,-21,7,12,32,5,2,4
2,-19,-22,9,12,-21,7,12,31,5,1,4
3,-19,-22,8,13,-21,7,13,31,5,1,4
5,-17,-22,6,13,-20,7,13,31,5,1,4
6,-16,-22,5,14,-19,7,14,31,5,2,5
6,-15,-22,4,14,-18,6,14,30,5,3,5
5,-16,-21,6,13,-19,5,14,29,5,3,5
3,-18,-22,8,13,-20,5,15,28,5,4,5
3,-20,-23,9,14,-21,4,15,27,4,3,5
4,-22,-26,9,15,-23,3,15,26,3,1,5
5,-22,-27,9,16,-25,3,16,25,1,0,4
6,-22,-29,8,18,-25,2,17,24,0,-2,3
7,-22,-30,8,19,-26,2,18,23,0,-3,3
7,-23,-30,8,19,-26,2,18,22,0,-4,2
7,-24,-31,9,19,-27,2,19,21,-1,-4,1
7,-23,-30,8,19,-26,2,19,20,-1,-3,2
7,-22,-29,7,18,-25,2,20,20,0,-3,2
7,-20,-28,7,18,-24,2,21,19,0,-2,3
6,-20,-27,7,17,-24,2,21,19,0,-2,3
5,-21,-27,8,17,-24,2,22,18,-1,-3,3
5,-21,-27,8,17,-24,2,22,16,-2,-4,2
6,-21,-27,7,17,-24,2,22,15,-3,-4,2
7,-20,-27,7,17,-23,2,22,13,-3,-3,3
8,-19,-27,6,17,-22,2,22,12,-2,-3,3
10,-19,-28,5,19,-23,1,22,10,-3,-3,3
11,-20,-31,4,21,-25,1,21,9,-4,-4,2
11,-20,-32,4,22,-26,1,21,8,-4,-5,1
12,-20,-33,4,23,-27,1,21,7,-4,-4,2
12,-20,-32,4,23,-26,1,21,6,-4,-4,2
10,-20,-31,5,22,-26,1,21,6,-5,-4,2
9,-21,-31,5,21,-26,1,21,5,-5,-4,2
9,-21,-30,5,20,-25,1,21,5,-5,-4,2
9,-21,-30,6,20,-25,1,21,5,-5,-4,2
10,-20,-31,5,21,-25,1,21,4,-5,-5,2
11,-19,-31,4,21,-25,1,20,4,-5,-5,2
12,-18,-31,3,22,-24,1,20,4,-4,-4,3
13,-16,-30,1,22,-23,1,20,4,-4,-4,4
13,-15,-29,1,21,-22,1,20,5,-4,-3,4
13,-14,-28,1,21,-21,1,20,6,-4,-2,5
15,-14,-28,0,22,-21,1,19,6,-3,-2,5
16,-13,-29,-1,23,-21,1,19,7,-3,-2,5
17,-12,-28,-2,23,-20,1,20,8,-1,-1,6
18,-9,-27,-4,23,-18,1,20,9,0,0,7
19,-7,-26,-6,23,-17,1,20,10,2,1,8
19,-6,-25,-6,22,-16,1,20,12,3,2,8
19,-5,-24,-7,22,-15,1,20,14,4,3,9
20,-4,-24,-8,22,-14,1,20,15,5,4,10
20,-2,-23,-9,21,-12,1,21,17,5,5,10
21,0,-21,-10,21,-11,1,21,18,6,6,11
20,0,-20,-10,20,-10,1,21,18,6,7,12
20,0,-20,-9,20,-9,1,21,19,7,8,12
19,0,-19,-9,20,-8,1,21,21,9,9,13
19,2,-17,-10,19,-7,1,22,23,10,9,13
18,2,-16,-10,18,-7,1,22,25,11,10,14
17,2,-16,-9,17,-6,1,23,26,12,10,14
17,2,-15,-9,16,-6,1,24,28,14,11,15
17,3,-14,-10,15,-5,1,25,30,15,12,16
17,3,-13,-10,15,-5,1,26,31,16,13,16
17,4,-12,-11,15,-4,1,27,33,18,15,16
18,6,-11,-11,14,-2,1,28,35,20,16,17
18,8,-10,-12,14,-1,1,29,37,21,17,17
19,9,-10,-14,14,0,1,28,38,22,17,18
20,11,-9,-15,15,1,0,27,40,22,18,19
21,14,-8,-17,15,3,0,26,41,23,20,20
21,15,-6,-18,14,4,0,24,42,24,21,20
21,16,-5,-18,13,6,-1,22,42,25,21,20
20,17,-3,-18,12,7,-2,20,42,25,21,21
20,18,-2,-18,11,8,-2,19,42,26,21,21
20,18,-1,-19,11,8,-3,19,43,26,21,22
20,18,-1,-19,11,8,-3,18,43,26,21,23
20,18,-2,-19,11,8,-4,18,44,26,21,23
20,18,-2,-19,11,8,-4,17,44,27,21,23
20,18,-2,-19,11,8,-5,17,45,27,21,23
20,17,-2,-18,11,7,-5,17,45,27,21,23
20,16,-4,-18,12,6,-5,17,46,27,21,22
20,14,-6,-17,13,4,-5,17,47,26,20,21
19,12,-8,-15,14,1,-6,17,46,25,18,19
20,9,-11,-14,15,-1,-7,16,46,24,17,17
21,7,-14,-13,17,-3,-7,16,45,23,15,15
21,6,-15,-12,18,-4,-6,17,45,23,15,14
20,5,-15,-12,17,-4,-5,18,45,22,15,14
19,4,-15,-11,17,-5,-5,18,45,22,14,13
19,4,-15,-11,18,-5,-5,18,44,21,14,13
20,4,-16,-11,18,-6,-5,17,44,21,14,13
20,4,-16,-11,18,-6,-5,17,44,21,14,13
19,4,-15,-11,17,-5,-4,17,44,21,14,13
19,4,-15,-11,16,-5,-4,17,43,21,14,13
18,3,-15,-10,16,-5,-4,16,42,20,13,13
18,3,-14,-10,16,-5,-4,16,41,19,13,13
17,4,-13,-10,15,-4,-4,16,41,18,12,12
16,4,-12,-9,14,-3,-3,16,41,17,11,12
15,4,-11,-9,13,-3,-2,16,40,16,10,10
14,3,-10,-8,12,-3,-1,16,39,15,8,8
13,4,-9,-7,11,-3,0,16,38,14,7,7
13,4,-9,-8,11,-2,0,16,37,13,6,5
13,4,-9,-8,11,-2,0,16,35,12,5,4
13,4,-9,-8,11,-2,0,15,33,11,4,3
13,5,-8,-8,11,-2,0,15,31,10,3,2
13,5,-8,-8,11,-2,0,14,29,9,2,1
13,4,-9,-8,11,-2,-1,13,27,7,0,0
13,3,-10,-7,11,-3,-1,12,26,6,-1,0
13,3,-10,-7,12,-4,-1,11,24,4,-2,-1
13,3,-10,-8,12,-4,-1,11,22,3,-3,-2
13,3,-10,-7,11,-4,-1,11,21,3,-3,-3
12,3,-9,-7,11,-3,-1,11,20,3,-2,-3
12,3,-9,-7,10,-3,-1,11,20,2,-3,-3
11,2,-9,-6,10,-3,-1,10,19,1,-4,-3
10,2,-8,-5,9,-3,-1,10,18,0,-5,-4
9,1,-8,-5,8,-3,0,9,17,0,-6,-4
8,1,-8,-4,8,-3,0,9,17,0,-6,-5
8,0,-8,-4,8,-4,0,9,17,-1,-6,-5
9,1,-8,-5,8,-4,0,9,16,-1,-6,-6
11,2,-8,-6,9,-3,0,8,15,-2,-6,-6
12,3,-8,-7,10,-3,0,8,13,-3,-7,-7
12,4,-8,-7,10,-2,0,7,12,-4,-8,-7
11,4,-6,-7,9,-1,0,7,11,-4,-7,-7
10,5,-4,-7,7,0,1,7,10,-4,-7,-7
9,6,-3,-7,6,1,0,6,9,-4,-9,-8
7,6,-1,-6,4,2,0,5,8,-6,-11,-9
6,6,0,-5,3,3,-1,4,7,-7,-13,-10
5,5,0,-5,2,3,-1,4,5,-8,-13,-11
4,5,0,-4,2,2,-1,3,4,-9,-14,-12
5,5,0,-5,2,2,-2,2,2,-11,-16,-13
6,6,0,-5,3,3,-2,1,1,-12,-17,-14
7,6,0,-6,3,3,-2,1,1,-12,-17,-14
7,7,0,-6,3,3,-2,1,0,-13,-17,-15
7,7,0,-7,3,4,-2,0,0,-13,-17,-15
6,7,1,-6,2,4,-2,0,0,-13,-17,-15
4,8,3,-6,0,6,-2,0,0,-14,-17,-15
2,8,5,-5,-1,7,-1,0,-1,-15,-18,-16
1,7,5,-4,-2,6,0,0,-2,-16,-19,-17
1,6,4,-3,-1,5,0,0,-3,-16,-20,-18
1,5,4,-2,-2,4,0,0,-3,-17,-20,-19
1,5,4,-2,-2,4,-1,-1,-3,-17,-21,-20
1,4,3,-2,-1,3,-1,-1,-3,-18,-21,-20
2,4,2,-2,0,3,-1,-2,-4,-19,-22,-20
2,4,1,-2,0,2,-2,-2,-4,-19,-22,-20
2,4,1,-2,0,2,-2,-2,-4,-19,-22,-20
2,4,2,-2,0,3,-1,-2,-4,-18,-22,-20
1,5,4,-2,-1,4,-1,-1,-4,-18,-22,-19
0,5,6,-2,-3,6,-1,-1,-4,-17,-21,-19
0,6,7,-2,-3,6,-1,-1,-4,-17,-22,-19
1,6,6,-3,-2,6,-1,-1,-5,-18,-23,-19
3,7,5,-4,-1,6,-1,-2,-6,-18,-24,-20
3,8,5,-5,0,6,-1,-2,-6,-18,-24,-20
3,8,5,-5,-1,7,-1,-3,-7,-18,-23,-20
3,8,5,-5,-1,7,-1,-3,-8,-19,-23,-20
4,8,4,-6,0,6,-1,-4,-8,-19,-23,-21
4,8,4,-6,0,6,-2,-4,-8,-20,-23,-21
4,8,3,-6,0,5,-2,-5,-8,-20,-24,-22
4,8,3,-6,0,5,-2,-4,-8,-21,-24,-22
4,8,3,-6,0,5,-2,-4,-8,-20,-23,-21
4,8,3,-6,0,6,-1,-4,-7,-20,-23,-21
4,8,3,-5,0,6,-1,-4,-7,-21,-24,-21
4,8,3,-5,0,6,-1,-4,-7,-21,-25,-22
4,8,4,-5,0,6,0,-4,-6,-21,-25,-22
3,8,5,-4,-1,6,0,-4,-6,-21,-24,-22
2,9,6,-4,-1,6,0,-4,-5,-20,-22,-21
2,10,7,-5,-2,7,1,-4,-5,-19,-22,-21
3,11,7,-6,-2,8,1,-4,-4,-19,-22,-21
3,11,8,-6,-2,9,0,-4,-5,-20,-23,-22
2,11,9,-6,-2,10,0,-4,-6,-20,-23,-22
2,12,11,-7,-4,12,0,-4,-6,-19,-22,-22
1,13,12,-7,-5,13,0,-4,-6,-19,-22,-22
0,13,13,-6,-6,13,-1,-5,-7,-20,-22,-22
0,12,12,-5,-7,12,-2,-6,-8,-20,-23,-23
-1,11,12,-5,-6,11,-3,-6,-9,-20,-23,-23
-1,11,12,-5,-6,11,-3,-6,-9,-21,-24,-24
-2,11,13,-4,-8,12,-2,-5,-9,-21,-24,-24
-3,11,14,-3,-9,12,-2,-5,-9,-21,-24,-24
-2,11,14,-4,-8,13,-2,-5,-9,-22,-25,-24
0,12,13,-5,-7,13,-3,-5,-9,-22,-25,-25
0,12,12,-5,-6,12,-3,-6,-9,-22,-26,-25
0,13,13,-6,-6,12,-2,-5,-8,-22,-26,-26
0,13,13,-6,-7,12,-1,-3,-6,-22,-26,-26
-1,13,14,-5,-7,12,0,0,-3,-21,-25,-26
-2,13,14,-5,-8,12,0,5,1,-20,-24,-26
-1,14,14,-5,-8,13,2,9,6,-18,-23,-25
0,16,16,-6,-8,15,3,13,12,-15,-21,-24
1,18,17,-8,-8,17,3,16,18,-12,-19,-24
2,21,18,-11,-8,20,3,18,24,-8,-17,-23
4,25,21,-14,-8,23,2,19,28,-2,-13,-21
6,29,23,-17,-9,27,0,19,30,3,-8,-17
8,34,25,-21,-8,29,-4,18,32,9,-2,-13
12,39,25,-25,-7,31,-8,19,36,16,5,-7
16,44,26,-29,-5,34,-11,22,44,25,14,-2
20,50,29,-35,-4,39,-15,21,53,37,25,5
24,60,35,-41,-6,47,-19,11,52,52,40,15
27,72,45,-49,-9,59,-24,-10,34,67,56,27
29,86,56,-57,-13,71,-31,-42,0,81,73,40
32,100,68,-65,-17,84,-40,-78,-40,93,90,54
34,115,80,-74,-22,97,-49,-115,-82,101,103,68
37,128,90,-82,-26,109,-55,-147,-120,104,112,78
39,135,95,-87,-28,115,-56,-166,-152,100,111,83
38,134,95,-85,-28,114,-54,-173,-176,87,101,80
34,125,91,-78,-29,107,-49,-172,-192,68,84,70
26,112,87,-68,-31,99,-44,-168,-208,45,63,58
15,97,83,-55,-34,90,-38,-160,-226,20,40,46
3,79,77,-40,-36,78,-30,-147,-244,-8,15,31
-8,61,70,-25,-38,65,-22,-133,-259,-37,-10,14
-18,44,63,-12,-40,53,-19,-124,-271,-62,-33,-1
-25,29,54,-1,-39,41,-21,-122,-279,-83,-51,-14
-28,15,43,7,-36,28,-25,-122,-281,-98,-64,-26
-30,4,34,13,-32,18,-28,-128,-278,-109,-74,-34
-30,-3,27,17,-29,11,-31,-138,-269,-115,-81,-40
-29,-8,21,19,-26,7,-35,-146,-255,-118,-84,-45
-28,-10,18,20,-23,4,-36,-149,-236,-116,-84,-47
-27,-11,16,20,-22,2,-36,-147,-216,-110,-81,-48
-26,-10,15,19,-21,2,-36,-142,-196,-104,-79,-48
-24,-7,17,17,-20,4,-36,-133,-175,-96,-74,-47
-23,-2,20,13,-21,8,-34,-119,-152,-86,-67,-45
-21,4,24,9,-22,13,-31,-105,-130,-76,-61,-41
-18,10,28,5,-23,18,-28,-92,-111,-66,-54,-38
-15,15,30,1,-23,22,-25,-81,-93,-58,-47,-34
-13,19,32,-2,-22,26,-23,-69,-77,-51,-42,-31
-10,22,33,-5,-21,28,-21,-58,-62,-45,-38,-29
-7,26,33,-8,-20,30,-19,-47,-49,-39,-34,-27
-5,30,34,-11,-19,32,-17,-39,-37,-35,-31,-26
-3,32,34,-13,-19,33,-15,-32,-28,-31,-28,-25
-3,32,35,-14,-20,33,-13,-26,-21,-28,-27,-24
-4,32,36,-13,-20,33,-12,-21,-15,-26,-26,-24
-5,30,35,-12,-20,32,-10,-18,-10,-23,-24,-22
-5,28,33,-11,-19,31,-9,-15,-6,-21,-22,-21
-5,26,31,-9,-18,29,-8,-12,-3,-20,-21,-19
-6,23,29,-7,-17,26,-7,-10,0,-18,-20,-18
-6,20,27,-6,-17,23,-7,-8,3,-17,-19,-18
-6,19,25,-5,-15,21,-6,-7,5,-16,-18,-17
-5,18,23,-5,-14,19,-6,-6,6,-15,-18,-16
-4,16,21,-5,-12,18,-5,-5,8,-15,-18,-16
-4,14,19,-4,-11,16,-5,-4,9,-15,-17,-15
-5,13,18,-3,-11,15,-5,-4,10,-14,-17,-15
-6,12,18,-2,-12,15,-4,-2,11,-13,-16,-15
-7,10,18,0,-12,14,-4,-1,12,-12,-16,-15
-7,9,16,0,-12,12,-3,0,14,-12,-15,-15
-7,8,15,0,-11,11,-3,1,15,-12,-15,-14
-7,8,15,0,-12,12,-3,2,16,-11,-14,-14
-7,9,16,0,-12,13,-3,2,17,-10,-12,-13
-6,10,16,-1,-12,13,-3,3,17,-8,-11,-11
-4,11,16,-3,-10,13,-2,3,18,-7,-10,-10
-2,12,15,-5,-8,13,-2,3,18,-7,-9,-10
0,13,14,-6,-7,13,-3,3,18,-7,-9,-9
0,12,13,-6,-7,13,-3,3,18,-7,-9,-9
0,11,12,-6,-6,11,-3,3,18,-7,-9,-10
0,10,10,-5,-6,10,-3,3,18,-8,-9,-10
0,9,8,-5,-4,9,-3,3,18,-7,-9,-11
1,8,7,-4,-3,7,-4,3,18,-8,-10,-11
2,7,5,-4,-2,6,-4,3,18,-8,-10,-11
2,7,5,-4,-1,6,-4,3,18,-8,-10,-11
1,6,5,-3,-2,6,-4,3,18,-8,-10,-11
0,5,5,-2,-3,5,-4,3,19,-8,-10,-11
-1,4,5,-1,-4,5,-4,4,19,-8,-9,-11
-3,4,7,0,-6,5,-4,5,20,-7,-8,-10
-4,5,8,0,-7,7,-5,5,20,-7,-8,-9
-2,6,9,-1,-6,8,-6,5,19,-7,-8,-9
0,8,9,-3,-5,9,-6,5,19,-7,-8,-10
1,10,9,-5,-4,9,-7,5,18,-7,-8,-10
3,11,8,-6,-3,9,-7,4,17,-7,-9,-10
4,11,7,-7,-2,8,-8,4,16,-8,-9,-10
5,10,6,-7,-1,7,-8,5,16,-8,-8,-9
4,9,5,-7,0,6,-8,6,16,-8,-8,-9
4,8,4,-6,0,6,-7,7,16,-8,-8,-9
4,8,3,-6,0,6,-8,8,15,-8,-8,-9
4,7,2,-5,1,4,-8,8,14,-8,-8,-9
4,6,1,-5,2,3,-8,9,14,-8,-8,-9
4,5,0,-4,2,2,-8,9,13,-8,-9,-9
4,5,1,-4,2,2,-8,10,12,-8,-9,-9
5,5,1,-5,2,3,-8,11,11,-9,-9,-9
5,5,0,-5,2,3,-8,11,10,-9,-9,-8
6,6,0,-6,3,3,-9,12,9,-10,-9,-8
7,6,0,-6,3,3,-9,12,8,-10,-9,-7
6,6,0,-6,3,3,-9,13,7,-10,-9,-7
5,5,0,-5,3,3,-9,14,6,-10,-8,-7
5,5,1,-5,2,3,-9,14,6,-10,-8,-7
4,6,2,-5,1,4,-9,15,5,-10,-8,-7
4,6,3,-5,0,4,-9,15,4,-10,-8,-7
3,6,3,-5,0,4,-9,15,2,-10,-8,-7
3,6,3,-5,0,4,-9,16,1,-10,-8,-7
3,7,4,-6,0,6,-9,17,1,-10,-8,-6
3,9,6,-6,-1,7,-9,17,0,-11,-8,-6
2,9,7,-6,-2,8,-9,17,-1,-12,-9,-6
2,9,7,-5,-2,7,-10,16,-3,-12,-10,-6
3,9,6,-6,-2,7,-11,15,-5,-12,-10,-7
3,9,7,-6,-2,8,-10,15,-5,-12,-10,-6
1,9,8,-5,-3,8,-10,15,-4,-12,-10,-6
0,8,8,-3,-5,8,-9,16,-4,-13,-10,-5
-2,7,8,-2,-6,8,-9,16,-4,-13,-10,-5
-3,6,9,-1,-7,8,-8,16,-4,-13,-9,-4
-5,6,10,0,-8,8,-7,17,-3,-12,-8,-3
-4,5,10,0,-7,8,-6,17,-2,-11,-8,-3
-3,5,8,0,-6,7,-5,17,-2,-11,-9,-3
-2,5,7,0,-5,6,-5,17,-3,-12,-9,-3
-2,5,7,-1,-4,5,-5,16,-3,-12,-9,-4
0,6,7,-2,-4,6,-6,15,-3,-11,-8,-4
1,8,6,-4,-3,7,-7,15,-3,-11,-8,-5
2,8,6,-5,-2,7,-8,14,-3,-11,-8,-5
2,9,6,-6,-2,7,-8,14,-2,-10,-8,-5
2,10,8,-6,-2,9,-8,15,-1,-9,-8,-4
1,12,10,-7,-4,11,-7,16,0,-8,-7,-3
1,13,12,-7,-5,12,-7,17,2,-7,-5,-2
2,14,12,-8,-5,13,-7,18,3,-6,-4,-1
3,16,12,-9,-4,13,-6,18,4,-5,-3,-1
4,17,12,-10,-4,14,-6,18,6,-4,-2,0
4,17,12,-10,-4,14,-5,19,7,-3,-1,0
5,18,13,-11,-4,15,-5,20,8,-1,0,0
5,20,14,-12,-4,17,-5,20,9,0,1,1
5,22,17,-14,-5,19,-5,21,11,2,2,2
6,25,19,-15,-6,22,-5,22,13,4,4,3
6,27,21,-16,-7,24,-5,23,16,5,5,4
6,29,23,-17,-8,26,-5,24,18,5,6,4
4,29,25,-17,-10,27,-5,25,20,6,7,5
3,30,26,-16,-11,28,-5,25,22,7,8,7
3,31,27,-17,-12,29,-5,26,23,8,8,8
3,32,28,-18,-12,29,-5,26,24,8,8,8
4,32,28,-18,-12,30,-5,26,25,8,8,8
5,33,28,-18,-12,30,-6,26,26,9,9,8
5,33,28,-18,-11,30,-6,27,28,10,9,8
5,33,29,-18,-12,30,-6,28,30,11,9,9
5,35,30,-19,-12,32,-6,29,32,13,10,9
5,37,31,-21,-12,34,-6,29,34,14,11,10
6,38,32,-22,-12,35,-6,28,35,15,12,10
6,39,33,-23,-13,36,-7,27,36,16,14,11
5,40,35,-23,-15,37,-7,25,37,17,15,12
3,41,37,-22,-17,39,-7,24,37,18,16,13
2,42,39,-22,-19,41,-7,22,38,18,16,13
2,42,40,-22,-19,41,-8,22,38,19,17,14
3,42,40,-22,-19,41,-9,21,39,20,17,14
3,42,38,-22,-17,40,-10,20,39,20,16,13
2,41,37,-22,-17,39,-11,19,39,19,15,13
1,40,37,-21,-17,39,-11,19,40,19,16,12
1,40,38,-21,-18,38,-11,20,41,20,16,12
1,39,38,-20,-18,38,-11,20,41,20,16,12
2,39,37,-20,-18,38,-12,21,42,19,15,12
3,39,37,-21,-17,38,-12,21,42,20,15,12
3,41,38,-22,-17,39,-11,21,43,20,15,13
3,41,38,-22,-17,40,-11,21,42,20,15,13
5,41,35,-23,-15,38,-12,21,41,19,14,12
6,39,32,-23,-13,35,-12,20,40,18,13,11
6,37,30,-22,-12,33,-12,19,40,17,13,9
8,35,27,-22,-10,31,-11,19,39,16,11,8
10,34,24,-22,-7,29,-11,18,38,15,10,7
10,32,23,-21,-6,27,-11,18,37,14,9,7
10,31,22,-20,-6,26,-10,17,36,13,8,6
10,31,20,-20,-5,26,-9,17,36,12,8,6
10,30,19,-20,-4,25,-9,17,35,12,8,5
9,30,20,-19,-5,25,-8,16,35,11,7,5
6,28,21,-17,-7,24,-8,16,34,10,7,5
4,26,22,-16,-9,24,-8,15,33,10,6,5
3,26,23,-15,-10,24,-8,15,32,10,6,5
4,26,23,-15,-10,24,-7,14,30,9,6,5
3,25,22,-14,-10,24,-7,14,29,8,4,4
2,24,22,-13,-10,23,-7,14,27,7,3,3
2,23,21,-12,-9,22,-7,14,26,5,1,2
2,22,20,-12,-9,21,-6,13,24,4,0,1
2,22,20,-12,-9,21,-6,13,23,4,0,1
1,22,20,-11,-10,21,-5,13,23,4,0,1
1,22,20,-11,-10,21,-4,13,21,3,-1,0
2,21,19,-12,-9,20,-4,12,20,2,-1,0
3,21,17,-12,-7,18,-4,11,18,1,-2,-1
4,19,15,-12,-6,17,-4,11,17,0,-2,-2
3,17,14,-10,-5,16,-4,10,16,0,-3,-3
2,15,14,-9,-5,15,-4,10,15,-1,-4,-4
1,14,13,-8,-5,14,-4,9,14,-2,-5,-5
1,14,13,-8,-5,13,-3,9,14,-3,-6,-6
0,14,14,-8,-6,13,-3,9,14,-3,-6,-6
0,14,15,-7,-7,14,-2,9,13,-3,-6,-6
-1,14,15,-7,-8,14,-2,8,12,-3,-6,-6
-2,14,16,-6,-9,14,-2,8,10,-3,-7,-6
-2,14,17,-5,-10,15,-2,8,10,-3,-7,-6
-3,13,16,-4,-10,15,-2,7,9,-4,-7,-7
-5,11,16,-3,-10,14,-2,7,8,-5,-8,-8
-6,8,15,-1,-11,12,-2,7,8,-6,-9,-8
-7,6,13,0,-10,10,-1,7,7,-6,-9,-9
-8,3,11,2,-10,7,-1,6,6,-8,-11,-9
-8,0,8,4,-9,4,-1,5,4,-10,-12,-10
-8,-1,7,5,-8,2,-1,5,3,-11,-13,-10
-7,-1,6,4,-7,2,0,5,2,-11,-13,-10
-6,1,6,3,-6,4,0,5,2,-10,-13,-10
-5,3,7,1,-6,5,0,5,1,-10,-13,-11
-5,3,8,1,-7,6,-1,4,1,-11,-14,-11
-7,3,10,2,-9,7,-1,4,0,-11,-15,-11
-8,2,10,3,-9,6,0,4,0,-11,-15,-11
-8,1,10,3,-9,5,0,4,0,-11,-15,-10
-8,1,10,3,-9,5,0,4,0,-11,-15,-11
-10,0,11,5,-10,5,1,4,-1,-11,-15,-11
-12,-1,11,6,-11,5,1,4,-1,-11,-15,-11
-12,-1,10,7,-11,4,1,4,-1,-11,-15,-12
-11,-2,9,6,-10,4,1,4,-2,-12,-16,-13
-11,-1,9,6,-9,4,1,3,-2,-12,-16,-13
-10,0,9,5,-9,5,1,4,-2,-12,-16,-13
-9,0,10,4,-9,5,2,4,-1,-12,-15,-13
-9,0,10,4,-9,5,2,4,-1,-12,-15,-13
-10,0,10,5,-10,5,2,4,-1,-12,-15,-13
-11,0,11,5,-11,5,3,4,-1,-11,-14,-13
-10,0,10,5,-10,5,3,4,-1,-11,-14,-13
-8,0,8,5,-8,3,3,4,-1,-11,-14,-13
-7,0,7,4,-7,3,4,4,-1,-11,-14,-13
-7,0,7,4,-7,3,4,4,-1,-11,-14,-13
-7,0,7,4,-6,3,3,4,-2,-11,-14,-13
-7,0,6,3,-6,2,3,3,-3,-12,-15,-14
-7,-1,5,4,-6,2,3,2,-3,-12,-15,-14
-8,-1,6,5,-6,1,3,2,-3,-13,-16,-14
-8,-2,6,5,-7,1,3,2,-3,-14,-16,-14
-9,-3,5,6,-7,1,3,2,-4,-14,-17,-14
-9,-4,5,7,-7,1,3,2,-4,-15,-17,-15
-8,-4,5,6,-7,1,3,2,-4,-15,-18,-15
-7,-4,4,6,-6,0,3,2,-3,-15,-18,-15
-8,-4,4,6,-6,0,3,3,-3,-14,-17,-14
-8,-3,4,5,-6,0,4,3,-2,-14,-17,-13
-7,-1,5,4,-6,1,4,3,-2,-13,-17,-13
-7,0,7,3,-7,3,4,3,-2,-13,-17,-13
-7,1,8,3,-7,4,4,3,-2,-13,-16,-12
-6,3,8,2,-7,5,4,3,-2,-13,-15,-12
-5,4,9,1,-7,6,4,3,-2,-12,-15,-12
-6,4,10,1,-8,7,4,3,-1,-12,-15,-12
-7,3,10,2,-8,6,4,3,-2,-12,-15,-13
-7,2,10,3,-8,6,4,3,-2,-12,-15,-13
-8,1,10,3,-9,5,4,2,-3,-13,-15,-13
-9,0,9,4,-9,5,4,2,-3,-13,-15,-13
-8,0,8,4,-8,4,4,2,-3,-14,-16,-14
-7,0,7,3,-7,4,4,2,-3,-14,-16,-14
-7,0,7,4,-8,4,4,2,-3,-14,-17,-15
-9,-2,8,5,-9,3,4,2,-3,-13,-17,-15
-10,-3,7,6,-9,2,4,2,-3,-13,-16,-15
-9,-4,6,6,-8,1,3,2,-3,-13,-16,-15
-8,-4,5,6,-7,0,3,1,-4,-14,-17,-15
-9,-4,5,7,-7,0,3,2,-3,-13,-17,-15
-10,-5,5,7,-8,0,3,3,-2,-13,-17,-15
-11,-5,6,8,-9,0,3,3,-1,-13,-17,-15
-12,-5,7,8,-9,1,3,3,-1,-13,-17,-15
-12,-5,7,8,-9,1,3,3,0,-13,-17,-15
-12,-5,8,8,-10,2,4,4,1,-13,-16,-15
-13,-5,8,9,-10,2,4,5,3,-12,-16,-14
-13,-4,9,8,-11,2,5,8,6,-12,-15,-14
-12,-2,9,7,-11,3,6,11,9,-12,-16,-14
-12,-1,10,7,-11,3,7,14,12,-11,-16,-14
-13,-1,12,7,-13,5,8,18,17,-9,-15,-14
-14,0,14,7,-14,6,8,22,23,-6,-13,-13
-11,1,13,5,-12,7,8,24,28,-2,-11,-12
-7,3,12,2,-9,8,7,25,33,1,-8,-11
-5,5,11,0,-8,8,5,26,36,6,-3,-8
-3,6,10,-1,-7,8,2,25,37,12,2,-5
0,9,9,-4,-5,9,-2,25,39,19,9,-1
5,13,8,-9,-2,10,-4,28,46,27,17,4
11,20,10,-15,0,14,-6,31,58,40,28,11
15,30,16,-22,-1,22,-9,27,67,55,43,22
17,42,26,-29,-4,33,-13,11,60,71,60,34
18,55,37,-37,-9,46,-19,-16,36,86,76,47
21,69,49,-45,-13,59,-27,-52,0,98,92,60
24,84,60,-54,-18,73,-35,-90,-40,107,107,74
27,99,71,-62,-22,85,-41,-124,-79,113,118,85
30,108,77,-68,-23,92,-44,-149,-114,112,121,92
31,107,76,-69,-23,91,-43,-161,-142,102,114,92
27,98,72,-63,-23,85,-37,-161,-160,85,98,84
18,86,70,-52,-27,78,-31,-157,-175,65,79,73
7,73,68,-40,-31,71,-25,-152,-193,42,59,61
-2,58,61,-27,-32,60,-19,-143,-214,15,35,47
-11,39,51,-13,-31,45,-12,-130,-233,-14,9,29
-20,22,42,0,-31,32,-8,-121,-249,-41,-15,13
-27,8,35,10,-31,21,-8,-119,-260,-62,-33,0
-31,-5,25,18,-29,10,-12,-121,-266,-78,-47,-11
-33,-16,16,24,-25,-1,-15,-126,-266,-89,-57,-20
-33,-25,8,29,-21,-9,-19,-134,-261,-97,-64,-27
-32,-32,1,32,-17,-15,-22,-142,-249,-102,-69,-32
-31,-35,-3,33,-14,-19,-25,-146,-231,-102,-71,-35
-31,-36,-5,33,-13,-21,-25,-144,-211,-99,-70,-37
-31,-36,-5,34,-13,-21,-24,-139,-190,-93,-68,-37
-30,-34,-3,33,-13,-19,-24,-131,-169,-86,-63,-35
-28,-29,-1,30,-14,-16,-23,-119,-148,-76,-57,-33
-26,-24,1,25,-14,-12,-21,-105,-126,-66,-50,-29
-23,-19,3,21,-13,-8,-19,-90,-107,-56,-43,-25
-19,-14,5,16,-13,-4,-17,-78,-89,-48,-37,-21
-16,-9,7,12,-12,0,-15,-67,-73,-41,-32,-19
-13,-4,9,9,-11,2,-14,-56,-58,-35,-29,-17
-11,-1,9,6,-10,4,-13,-45,-45,-31,-26,-16
-10,0,10,5,-10,5,-12,-35,-33,-27,-24,-15
-10,2,11,5,-11,6,-10,-27,-23,-23,-22,-14
-9,3,11,3,-10,7,-9,-20,-15,-20,-20,-13
-7,4,10,1,-9,7,-7,-15,-10,-17,-19,-12
-6,4,10,0,-8,7,-6,-11,-6,-15,-17,-12
-7,4,10,1,-9,7,-5,-8,-2,-14,-16,-12
-8,2,10,3,-9,6,-4,-6,1,-14,-16,-11
-8,1,8,4,-8,5,-3,-4,3,-13,-15,-11
-7,0,6,4,-6,3,-2,-2,6,-12,-15,-11
-5,0,5,4,-5,2,-2,0,8,-11,-14,-11
-4,0,4,2,-4,2,-1,1,11,-10,-13,-10
-2,1,4,1,-3,2,-1,2,13,-9,-12,-9
-1,2,3,0,-1,2,-1,3,14,-8,-11,-9
1,2,1,-1,0,2,-2,3,14,-8,-11,-9
2,2,0,-2,1,1,-2,4,15,-8,-11,-9
3,2,0,-2,2,1,-2,4,15,-8,-11,-10
2,2,0,-2,2,1,-3,4,16,-8,-12,-10
2,2,0,-2,2,1,-3,4,16,-8,-12,-10
2,1,0,-1,1,0,-3,5,16,-7,-11,-10
0,0,0,0,0,0,-3,6,17,-6,-10,-9
-2,-1,1,1,-1,0,-2,7,17,-6,-9,-9
-3,-2,1,2,-2,0,-2,8,18,-5,-9,-9
-3,-2,1,3,-2,0,-1,9,18,-4,-8,-9
-3,-3,0,3,-1,-1,-1,9,19,-4,-8,-9
-1,-3,-2,3,0,-3,-2,9,19,-5,-8,-9
0,-4,-4,3,2,-4,-2,9,19,-5,-9,-10
1,-4,-5,2,4,-5,-2,9,19,-5,-9,-10
2,-4,-6,1,5,-6,-2,9,19,-5,-9,-10
3,-4,-7,1,5,-6,-2,9,19,-5,-9,-10
3,-5,-7,1,5,-6,-2,9,20,-5,-8,-9
2,-5,-7,1,5,-6,-2,9,20,-5,-7,-8
2,-4,-7,1,5,-5,-2,9,21,-4,-6,-7
3,-2,-6,0,5,-4,-2,9,21,-3,-5,-6
3,-1,-4,0,3,-3,-2,10,21,-2,-5,-6
1,0,-2,0,1,-1,-2,10,21,-2,-4,-5
1,0,-1,0,0,-1,-2,11,21,-2,-4,-5
1,0,-1,0,0,-1,-2,11,21,-2,-3,-5
1,-1,-1,0,1,-1,-2,12,22,-1,-3,-5
1,-1,-2,0,2,-1,-3,12,22,-1,-2,-5
3,-1,-4,0,4,-3,-4,11,21,-2,-3,-5
5,-1,-7,-1,6,-4,-5,11,19,-3,-4,-6
6,-1,-7,-1,7,-4,-6,11,18,-4,-5,-7
7,0,-7,-2,7,-4,-6,11,17,-4,-5,-7
8,0,-7,-3,8,-4,-7,11,16,-5,-6,-7
8,0,-7,-3,8,-4,-7,11,15,-5,-6,-7
7,-1,-7,-3,7,-4,-7,11,15,-5,-6,-7
7,-1,-8,-3,7,-4,-7,11,14,-5,-6,-7
8,-1,-8,-3,8,-4,-8,12,13,-5,-6,-7
9,0,-9,-4,9,-4,-8,13,12,-5,-6,-7
9,0,-8,-4,8,-3,-8,14,11,-6,-6,-6
9,1,-8,-4,8,-3,-8,16,11,-6,-6,-6
9,1,-7,-5,8,-3,-7,17,10,-6,-5,-5
8,1,-7,-5,8,-3,-7,17,10,-6,-5,-4
8,2,-6,-5,7,-2,-7,18,9,-6,-5,-3
8,3,-4,-5,6,0,-8,18,9,-6,-5,-4
8,4,-3,-6,6,1,-8,18,8,-6,-5,-4
7,5,-2,-6,5,1,-8,18,7,-6,-6,-5
6,5,-2,-6,5,1,-8,19,6,-7,-6,-5
7,5,-2,-6,5,1,-8,19,5,-8,-7,-6
7,4,-3,-6,5,0,-8,19,4,-8,-7,-6
7,4,-3,-5,5,0,-8,19,3,-9,-8,-6
7,4,-4,-5,5,0,-8,19,2,-9,-8,-6
6,3,-4,-4,5,0,-9,19,1,-10,-9,-7
5,2,-4,-3,4,0,-8,19,0,-10,-9,-7
4,2,-3,-3,4,0,-8,20,-1,-10,-8,-6
4,3,-1,-3,3,1,-7,20,-1,-9,-7,-5
4,4,0,-3,2,1,-6,20,-1,-8,-7,-5
3,4,0,-3,1,2,-6,20,-1,-8,-6,-4
2,4,1,-2,0,2,-6,20,-1,-8,-6,-4
1,3,2,-2,0,2,-6,20,-1,-8,-5,-3
2,3,1,-3,0,2,-6,19,-1,-8,-6,-3
4,3,0,-4,2,1,-6,18,-1,-9,-6,-4
5,3,-1,-4,3,1,-6,18,-1,-9,-6,-4
5,3,-1,-4,3,1,-6,17,-1,-9,-6,-3
4,3,-1,-4,3,1,-6,17,-1,-9,-6,-3
4,4,0,-4,2,2,-6,17,-1,-9,-6,-3
3,5,1,-4,1,3,-6,17,-1,-8,-6,-3
3,7,3,-5,0,4,-6,17,0,-7,-5,-2
4,9,4,-6,0,6,-6,17,0,-6,-4,-1
4,11,5,-7,0,8,-6,17,0,-5,-3,0
4,12,6,-8,0,9,-6,17,1,-4,-2,1
5,13,6,-9,0,9,-6,18,2,-3,-1,1
7,13,6,-10,1,9,-6,18,3,-3,0,1
7,13,5,-10,1,9,-7,18,4,-3,0,1
7,12,5,-9,1,8,-7,18,5,-3,-1,1
5,11,5,-8,0,8,-7,18,6,-2,-1,1
4,11,6,-7,0,7,-7,19,8,-2,-1,1
4,10,5,-7,0,7,-6,20,10,-1,0,1
5,11,5,-8,0,8,-6,22,12,1,1,1
6,13,6,-10,0,10,-5,23,14,3,3,2
7,15,8,-11,0,11,-4,24,16,4,4,3
6,16,11,-11,-1,13,-4,25,18,6,6,4
6,19,13,-12,-3,16,-3,26,21,7,7,5
5,21,16,-12,-5,18,-3,27,23,9,9,7
4,23,18,-13,-7,20,-3,28,26,10,10,8
5,25,20,-15,-7,23,-2,30,28,12,12,10
5,27,22,-16,-8,25,-2,31,30,13,13,11
5,28,23,-17,-8,26,-1,32,32,14,13,12
5,29,23,-18,-9,26,-1,33,33,15,14,12
4,29,24,-18,-10,27,0,34,35,16,14,12
4,29,25,-17,-10,27,-1,35,37,17,15,12
4,29,25,-17,-11,27,-2,35,38,17,15,12
4,30,27,-17,-11,28,-2,34,40,18,15,13
4,33,29,-18,-12,31,-3,33,41,18,15,13
5,35,30,-20,-12,32,-4,30,42,19,15,13
6,37,30,-21,-11,33,-5,28,42,19,15,13
6,38,31,-22,-12,34,-5,26,42,19,16,13
6,39,33,-23,-13,35,-6,24,43,20,17,14
7,40,33,-23,-13,36,-6,24,44,21,19,15
7,40,33,-24,-13,36,-6,24,46,23,19,16
7,40,33,-24,-13,36,-7,24,47,23,19,16
8,40,32,-24,-12,36,-7,24,47,23,19,16
8,39,31,-23,-11,35,-8,23,47,23,18,15
7,38,30,-23,-11,34,-8,23,47,23,17,15
7,37,28,-22,-10,32,-8,23,48,23,17,14
8,35,26,-22,-9,30,-9,23,48,22,17,14
9,34,24,-22,-8,29,-10,22,48,21,16,13
10,34,24,-22,-7,28,-10,22,47,20,15,12
10,34,23,-22,-7,28,-10,21,47,20,14,12
11,33,22,-22,-5,27,-10,21,47,20,14,12
11,32,20,-21,-4,25,-9,21,47,20,14,12
10,30,20,-20,-4,24,-8,21,47,20,14,12
9,29,19,-19,-5,24,-8,21,47,19,14,11
9,29,19,-19,-5,24,-7,20,46,19,14,11
9,29,20,-19,-5,25,-7,20,45,19,14,11
8,30,21,-19,-6,25,-7,19,45,19,14,11
8,30,21,-19,-6,25,-7,18,44,18,13,10
8,30,21,-19,-6,25,-7,17,42,16,11,10
8,29,21,-19,-6,25,-7,16,40,15,10,9
8,28,19,-18,-5,23,-7,16,38,14,10,9
8,26,18,-17,-5,22,-6,16,37,14,9,8
5,24,17,-14,-6,20,-5,16,37,13,9,7
3,21,17,-12,-7,19,-4,16,36,12,8,6
2,19,17,-10,-7,17,-4,16,34,10,6,4
2,17,15,-9,-6,16,-4,16,33,9,5,3
1,16,15,-9,-7,15,-3,16,32,8,4,3
0,16,17,-7,-9,16,-2,16,32,8,4,3
-1,16,17,-7,-10,16,-1,16,31,8,4,3
-1,16,17,-7,-9,15,-1,16,30,7,4,2
-1,15,16,-6,-9,15,-1,15,29,6,3,2
-2,14,16,-5,-9,14,0,15,27,7,3,2
-2,13,15,-5,-9,14,0,14,26,7,3,2
-3,12,15,-4,-9,13,0,14,25,6,3,1
-3,11,15,-4,-9,13,0,14,24,5,2,0
-3,11,14,-4,-8,12,0,13,23,4,2,0
-1,11,13,-5,-7,12,0,12,21,3,1,-1
-1,11,12,-5,-6,11,0,12,20,3,0,-2
-2,10,12,-4,-6,10,0,11,20,2,-1,-2
-3,8,12,-2,-7,9,1,11,19,2,-2,-2
-5,6,12,0,-8,9,2,12,19,1,-2,-2
-7,4,12,1,-9,8,3,12,19,1,-2,-2
-7,3,10,1,-8,7,3,12,19,0,-3,-2
-5,3,8,0,-6,6,3,11,17,-1,-4,-4
-3,4,7,0,-5,5,3,11,16,-2,-5,-4
-2,4,7,-1,-5,5,3,10,15,-2,-5,-5
-3,4,7,0,-5,5,3,10,14,-3,-5,-5
-3,3,6,0,-5,4,4,10,14,-3,-5,-5
-1,3,4,-1,-3,3,4,10,14,-2,-5,-5
0,2,2,-1,-1,2,4,9,14,-3,-5,-5
0,2,2,-1,-1,2,4,9,13,-3,-6,-5
0,3,2,-1,-1,2,4,9,13,-4,-7,-5
0,3,4,-2,-2,3,5,9,12,-4,-7,-5
-2,3,5,-1,-4,4,5,8,12,-5,-7,-4
-5,2,7,1,-6,4,5,8,11,-5,-7,-4
-7,0,8,3,-8,4,5,7,10,-5,-7,-4
-8,-1,7,4,-8,3,4,6,9,-6,-7,-5
-7,-2,4,5,-6,1,3,5,8,-7,-9,-6
-6,-3,3,5,-5,0,3,5,7,-8,-10,-8
-7,-4,3,6,-5,0,3,4,7,-9,-11,-9
-7,-4,3,6,-5,-1,4,4,7,-9,-11,-9
-8,-5,3,7,-5,-1,4,4,7,-10,-12,-10
-9,-6,3,8,-6,-2,4,4,6,-10,-13,-11
-10,-7,4,8,-7,-1,4,3,5,-11,-14,-12
-11,-7,4,8,-8,-1,4,3,5,-10,-13,-12
-11,-6,5,9,-8,0,4,3,5,-9,-13,-11
-11,-6,5,9,-9,0,4,3,5,-9,-13,-11
-10,-6,5,8,-8,0,4,3,4,-9,-13,-11
-9,-6,3,8,-6,-1,4,2,4,-11,-14,-12
-10,-8,2,9,-6,-2,4,2,3,-12,-15,-13
-11,-10,2,10,-7,-4,4,1,3,-12,-16,-13
-12,-11,1,11,-7,-5,5,2,3,-12,-15,-13
-12,-12,0,12,-6,-6,6,2,3,-12,-15,-12
-11,-12,-1,12,-5,-7,6,2,3,-12,-15,-12
-12,-12,0,12,-5,-6,6,2,3,-12,-15,-13
-13,-12,1,12,-6,-6,6,3,3,-11,-14,-12
-13,-12,2,12,-7,-5,7,3,3,-11,-14,-12
-13,-11,2,11,-7,-5,7,3,3,-11,-13,-11
-12,-10,3,10,-7,-4,7,3,3,-11,-13,-11
-12,-9,4,10,-8,-3,7,3,3,-11,-13,-11
-12,-8,4,9,-8,-2,7,3,3,-11,-13,-11
-10,-7,4,9,-7,-1,7,3,3,-11,-13,-11
-10,-6,4,8,-7,-1,7,3,3,-11,-13,-11
-10,-6,3,8,-7,-2,7,3,2,-11,-14,-12
-9,-7,2,8,-6,-2,7,3,1,-11,-14,-12
-9,-7,2,8,-6,-3,7,3,2,-11,-14,-12
-10,-8,3,9,-7,-3,7,4,3,-11,-14,-12
-11,-8,3,10,-7,-3,8,4,3,-11,-13,-12
-11,-9,2,10,-7,-3,8,4,3,-11,-13,-12
-10,-9,1,9,-6,-3,7,4,3,-11,-13,-12
-9,-8,1,8,-5,-3,7,4,3,-11,-13,-12
-9,-7,2,8,-6,-2,7,4,3,-11,-13,-12
-10,-7,4,8,-7,-1,7,4,3,-11,-13,-12
-11,-6,5,8,-8,0,7,4,3,-11,-13,-12
-12,-6,6,8,-9,0,7,4,4,-10,-13,-12
-12,-7,6,8,-9,0,7,4,4,-10,-13,-13
-11,-8,3,9,-7,-2,7,4,4,-10,-13,-13
-10,-8,1,9,-6,-3,8,4,4,-10,-13,-13
-9,-9,-1,8,-4,-4,8,4,5,-10,-13,-13
-8,-8,-1,8,-3,-4,8,5,5,-10,-13,-13
-7,-8,-1,7,-2,-4,8,5,5,-10,-13,-13
-6,-7,-1,6,-2,-4,8,5,5,-9,-13,-13
-6,-6,0,6,-2,-3,8,5,5,-9,-13,-13
-6,-6,1,6,-3,-3,8,5,5,-9,-13,-13
-7,-6,2,6,-5,-2,7,5,5,-9,-13,-12
-8,-5,4,7,-6,-1,8,6,6,-9,-12,-12
-10,-5,5,7,-8,0,9,7,8,-8,-11,-11
-11,-5,6,8,-9,0,10,10,10,-7,-11,-11
-12,-6,6,9,-9,0,11,13,13,-7,-11,-11
-12,-7,6,9,-9,0,12,16,16,-6,-11,-11
-11,-7,5,9,-8,-1,13,20,21,-5,-11,-11
-11,-7,5,8,-8,-1,13,24,27,-3,-10,-12
-11,-5,6,8,-8,0,13,27,32,0,-8,-12
-9,-3,6,6,-8,1,13,28,38,4,-6,-11
-8,0,7,4,-7,3,12,29,42,9,-1,-9
-7,2,8,2,-7,5,10,30,45,15,4,-5
-5,4,8,0,-6,7,6,29,45,20,10,-1
0,7,7,-4,-3,8,1,29,47,26,16,3
4,11,6,-8,0,9,-2,32,55,34,24,8
10,18,9,-14,1,14,-5,33,67,47,37,17
16,31,16,-23,0,23,-8,26,71,64,53,28
20,45,26,-32,-2,35,-12,6,59,81,70,41
23,59,36,-41,-6,48,-18,-25,31,95,86,55
25,73,48,-49,-11,61,-26,-63,-7,106,101,68
26,87,60,-57,-16,74,-33,-101,-47,114,113,80
28,98,70,-63,-21,84,-38,-133,-85,116,120,90
29,102,74,-66,-22,88,-39,-153,-118,110,118,92
28,98,71,-63,-22,84,-35,-158,-142,96,107,88
23,87,65,-56,-21,76,-29,-157,-159,77,89,78
16,75,60,-45,-23,68,-24,-153,-177,55,70,67
5,61,56,-33,-26,59,-18,-148,-197,31,49,54
-6,44,50,-19,-28,48,-10,-136,-217,4,26,39
-15,26,42,-5,-28,35,-3,-123,-234,-23,1,23
-23,10,35,6,-29,23,0,-117,-247,-46,-20,8
-30,-4,27,17,-28,11,-2,-117,-256,-65,-36,-5
-34,-18,18,26,-26,0,-5,-119,-260,-79,-49,-15
-36,-27,10,31,-24,-8,-8,-125,-257,-88,-57,-22
-36,-33,4,34,-21,-14,-12,-134,-249,-94,-63,-28
-35,-37,-1,35,-18,-19,-16,-141,-235,-96,-66,-32
-34,-40,-5,37,-15,-22,-18,-143,-217,-95,-67,-35
-33,-42,-8,37,-12,-24,-20,-141,-198,-92,-66,-37
-32,-42,-9,36,-11,-25,-20,-135,-178,-87,-63,-37
-30,-39,-8,34,-10,-24,-20,-126,-157,-79,-58,-36
-28,-35,-6,31,-11,-20,-19,-112,-135,-69,-52,-33
-25,-29,-2,27,-12,-16,-17,-97,-114,-59,-44,-29
-22,-23,0,22,-11,-11,-14,-83,-95,-50,-38,-25
-19,-18,2,18,-11,-8,-12,-71,-78,-42,-32,-22
-17,-14,3,15,-10,-5,-10,-59,-62,-35,-27,-19
-16,-10,5,12,-9,-2,-8,-47,-48,-29,-23,-17
-15,-8,7,11,-10,0,-6,-35,-34,-23,-19,-14
-14,-6,8,10,-10,0,-3,-25,-21,-18,-15,-12
-12,-5,8,9,-9,1,-1,-16,-11,-14,-12,-10
-10,-4,7,7,-9,1,0,-10,-5,-11,-10,-9
-9,-4,6,6,-8,0,1,-5,0,-10,-9,-9
-8,-4,4,6,-6,0,1,-2,3,-9,-8,-9
-7,-5,2,5,-5,-1,2,0,5,-8,-7,-8
-6,-5,1,5,-3,-2,3,2,8,-7,-7,-7
-5,-6,0,5,-2,-3,3,3,10,-7,-7,-7
-4,-6,-2,5,-1,-4,3,4,12,-7,-8,-8
-4,-7,-3,6,0,-5,2,5,13,-6,-7,-8
-3,-8,-4,6,1,-6,2,6,15,-4,-6,-8
-2,-9,-6,5,2,-7,2,7,16,-3,-5,-8
-2,-9,-6,6,2,-7,2,8,17,-3,-5,-8
-3,-9,-6,6,1,-7,2,9,19,-2,-4,-8
-4,-9,-6,6,1,-7,3,10,20,-2,-4,-7
-4,-10,-6,6,1,-8,3,11,21,-3,-5,-8
-5,-11,-7,7,1,-8,3,11,22,-3,-6,-8
-5,-13,-7,8,1,-9,3,12,23,-2,-5,-8
-5,-13,-7,9,1,-10,3,13,24,-1,-4,-8
-4,-13,-7,9,1,-10,4,14,25,0,-3,-7
-3,-12,-8,8,2,-10,4,15,25,1,-3,-7
-1,-11,-9,7,3,-10,4,15,25,1,-3,-7
0,-11,-11,6,5,-11,4,15,25,0,-3,-8
0,-11,-12,5,6,-12,3,15,26,0,-3,-8
1,-11,-13,4,7,-12,3,16,26,1,-3,-8
2,-10,-13,4,8,-12,3,16,26,1,-3,-9
2,-11,-13,4,8,-12,1,15,26,1,-3,-9
1,-12,-13,5,7,-13,0,15,26,1,-3,-10
1,-12,-13,6,7,-13,0,15,26,1,-3,-10
1,-13,-14,6,8,-14,0,15,26,1,-3,-10
2,-14,-16,6,9,-15,0,15,26,1,-3,-10
2,-14,-18,6,10,-16,0,15,26,1,-2,-10
2,-14,-17,6,9,-15,0,15,26,2,-2,-9
1,-14,-15,6,8,-14,0,16,27,3,-1,-9
0,-14,-14,6,7,-14,0,16,27,4,0,-8
1,-14,-14,6,7,-14,0,16,26,4,0,-8
2,-13,-14,5,8,-14,0,16,26,3,0,-8
3,-12,-15,4,9,-14,-1,16,25,3,0,-8
3,-12,-15,4,9,-14,-1,17,25,3,0,-8
2,-12,-15,5,9,-14,-1,17,25,3,0,-8
2,-12,-16,5,9,-14,-1,18,24,2,0,-7
3,-12,-16,4,10,-14,-2,18,23,2,-1,-8
4,-13,-17,4,11,-15,-3,18,21,1,-2,-8
5,-13,-18,4,11,-15,-4,18,20,0,-2,-9
5,-13,-17,4,11,-15,-5,18,19,0,-2,-9
5,-13,-17,4,11,-15,-5,19,18,0,-2,-9
5,-13,-18,4,12,-15,-5,19,18,0,-2,-9
5,-13,-18,4,12,-15,-5,20,18,0,-2,-8
5,-13,-18,4,11,-15,-5,20,17,0,-2,-8
5,-12,-17,3,11,-14,-5,21,17,0,-2,-7
5,-12,-17,3,11,-14,-5,22,16,0,-2,-7
5,-12,-16,3,11,-14,-5,22,15,0,-2,-7
5,-11,-15,3,10,-13,-5,23,14,0,-2,-7
5,-10,-14,3,9,-12,-5,23,13,0,-2,-7
5,-8,-13,2,9,-11,-5,23,11,-1,-2,-7
5,-7,-12,2,8,-10,-6,23,10,-1,-3,-7
5,-7,-12,2,8,-9,-6,23,9,-2,-3,-7
5,-7,-13,2,8,-10,-6,23,8,-2,-4,-7
6,-8,-14,1,9,-10,-6,23,6,-3,-4,-7
7,-8,-15,1,10,-11,-6,23,5,-3,-4,-7
8,-8,-16,0,11,-12,-6,24,5,-4,-4,-7
8,-8,-16,0,12,-12,-6,24,4,-4,-4,-7
8,-8,-16,0,12,-13,-5,24,4,-3,-3,-7
7,-9,-16,1,12,-13,-5,24,3,-3,-3,-7
6,-9,-16,1,11,-13,-4,24,3,-3,-4,-7
6,-10,-16,2,11,-13,-4,24,2,-4,-4,-7
5,-10,-15,2,10,-12,-4,23,2,-4,-4,-7
5,-9,-13,2,9,-11,-4,23,2,-4,-4,-6
5,-9,-13,2,8,-11,-4,23,2,-3,-3,-5
6,-8,-13,1,9,-11,-4,22,1,-3,-3,-5
7,-7,-13,0,10,-10,-4,22,1,-3,-3,-5
7,-7,-13,0,10,-10,-4,22,1,-3,-3,-4
7,-6,-14,0,11,-10,-4,22,1,-3,-3,-4
8,-6,-14,-1,12,-10,-4,21,1,-2,-2,-3
8,-7,-15,-1,12,-11,-3,21,1,-2,-2,-3
7,-8,-15,0,11,-11,-3,21,1,-2,-2,-3
7,-8,-15,0,11,-11,-3,21,1,-2,-2,-2
8,-7,-15,0,12,-11,-3,21,2,-2,-1,-2
9,-6,-14,-1,12,-10,-3,21,3,-1,-1,-2
8,-6,-13,-1,11,-10,-4,20,3,-1,-1,-2
7,-6,-12,0,10,-9,-4,20,4,0,-1,-2
5,-6,-11,0,8,-8,-4,20,5,0,0,-1
5,-4,-9,0,7,-6,-4,20,7,2,1,0
6,-2,-7,-2,6,-4,-4,21,9,4,2,1
5,0,-5,-3,5,-1,-4,21,11,5,3,2
5,1,-3,-3,3,0,-3,21,13,6,4,2
4,2,-1,-3,2,1,-3,22,15,7,5,3
4,3,0,-3,1,2,-2,23,17,8,7,4
4,5,1,-5,1,3,-2,25,19,10,8,5
5,7,2,-6,1,4,-1,26,21,11,9,6
6,9,2,-8,1,5,-1,26,23,12,10,6
6,10,4,-8,0,7,-1,27,25,13,11,7
6,11,6,-8,0,8,-1,27,27,14,11,7
7,12,7,-9,0,9,-2,28,29,15,12,8
8,13,7,-10,0,10,-2,28,31,16,12,8
8,15,8,-11,0,12,-2,29,33,17,13,9
8,16,9,-12,-1,13,-1,31,35,18,14,10
9,17,9,-13,0,13,-1,32,37,19,14,10
9,18,10,-13,-1,13,-1,33,39,20,15,10
8,19,11,-13,-2,15,-1,34,41,21,16,11
8,19,12,-13,-3,16,-1,34,43,22,17,11
7,19,13,-13,-3,16,-1,33,44,23,17,12
7,19,13,-13,-3,17,-1,32,45,24,18,12
6,20,14,-13,-4,17,-2,29,46,24,18,13
6,20,14,-13,-4,17,-2,27,46,24,18,13
7,20,14,-13,-3,17,-3,26,47,25,19,14
7,20,14,-13,-3,17,-4,25,48,26,20,15
7,20,13,-13,-3,17,-5,24,48,25,19,15
7,20,13,-13,-3,17,-6,23,49,25,19,14
7,19,12,-13,-2,16,-6,22,49,25,19,14
7,18,12,-12,-2,15,-7,22,49,25,18,14
7,18,11,-12,-2,15,-7,22,50,25,18,14
7,18,11,-12,-2,15,-7,22,50,25,18,14
8,18,11,-13,-1,15,-8,22,51,25,18,14
9,19,11,-13,-1,15,-8,22,51,26,19,14
9,19,11,-14,-1,15,-9,22,51,26,19,14
8,20,11,-14,-1,15,-9,22,51,27,20,15
7,20,12,-14,-2,16,-8,22,52,27,20,15
6,20,14,-14,-3,17,-7,22,52,26,19,15
6,20,14,-14,-4,17,-7,22,51,25,19,14
6,19,13,-13,-3,16,-7,21,50,24,18,13
7,17,11,-13,-2,14,-6,20,49,23,17,12
6,16,9,-11,-1,12,-6,19,48,22,16,11
6,14,8,-10,-1,11,-6,19,47,21,14,10
6,12,7,-9,0,9,-6,19,47,21,13,9
5,10,6,-8,0,8,-5,19,46,20,12,8
5,8,4,-7,1,6,-5,19,45,20,11,7
5,7,3,-6,1,4,-4,18,44,19,11,7
4,6,2,-5,1,4,-3,18,43,19,10,7
3,5,2,-4,1,3,-3,18,42,18,10,6
2,5,3,-4,0,4,-1,18,41,18,10,5
1,5,4,-3,-1,5,0,19,41,18,10,5
1,5,5,-3,-2,5,0,19,40,17,10,4
0,5,7,-2,-3,6,0,19,38,16,9,4
0,6,8,-3,-3,7,0,19,37,16,9,4
0,6,8,-3,-3,7,1,18,36,15,9,4
0,5,7,-2,-3,6,1,18,35,15,9,4
-1,4,5,-1,-3,4,1,17,34,14,8,4
0,3,4,-1,-2,3,1,17,33,12,6,3
0,2,2,0,-1,1,1,15,31,10,5,2
0,1,1,0,0,0,1,14,30,8,3,1
0,0,1,1,0,0,1,13,28,7,2,0
-3,-3,1,3,-1,-1,2,13,27,6,1,0
-5,-4,1,4,-3,-1,2,13,26,6,1,0
-5,-4,1,5,-3,-1,3,13,26,6,0,-1
-6,-4,1,5,-4,-1,3,13,25,6,0,-1
-7,-6,1,7,-5,-2,4,13,24,6,0,-1
-9,-8,1,9,-6,-3,4,12,24,6,0,-2
-10,-10,0,10,-5,-4,5,11,23,5,0,-2
-9,-11,-1,10,-3,-6,5,11,23,4,-1,-2
-8,-12,-3,10,-2,-8,5,10,22,3,-1,-3
-8,-13,-4,11,-1,-9,5,10,21,2,-2,-4
-8,-14,-5,11,-1,-10,5,10,19,1,-3,-5
-6,-14,-7,10,1,-11,5,10,18,0,-4,-6
-4,-13,-8,9,2,-11,5,9,17,0,-5,-7
-4,-12,-8,8,1,-10,5,9,16,0,-5,-7
-4,-12,-7,8,1,-9,5,8,15,-1,-6,-7
-3,-12,-7,8,2,-9,6,8,15,-1,-6,-7
-3,-12,-8,8,2,-10,6,8,14,-1,-7,-7
-4,-13,-8,9,2,-11,6,7,13,-2,-7,-7
-5,-14,-8,10,2,-12,6,7,12,-2,-7,-7
-7,-15,-8,11,0,-12,7,7,11,-2,-7,-6
-8,-16,-8,13,0,-12,7,7,10,-2,-7,-6
-9,-17,-8,13,0,-13,7,7,10,-2,-7,-7
-8,-17,-9,13,0,-13,8,7,10,-3,-8,-7
-9,-18,-9,14,0,-13,8,6,10,-4,-9,-7
-10,-20,-9,15,0,-14,8,5,9,-5,-10,-8
-9,-21,-10,15,1,-15,8,5,8,-6,-10,-9
-8,-21,-11,14,2,-16,8,4,8,-6,-11,-10
-8,-21,-12,15,2,-17,8,4,7,-7,-11,-11
-9,-22,-13,15,1,-17,8,4,7,-7,-11,-11
-9,-22,-13,16,1,-18,8,4,7,-8,-12,-12
-9,-22,-13,15,1,-17,8,4,7,-8,-12,-12
-8,-21,-12,15,2,-17,8,4,7,-8,-12,-12
-8,-21,-12,15,2,-17,9,4,7,-8,-12,-11
-7,-21,-12,14,2,-17,9,4,7,-8,-12,-11
-7,-20,-12,14,2,-17,10,4,7,-8,-12,-11
-6,-19,-12,13,3,-16,10,4,7,-8,-11,-11
-5,-18,-12,11,3,-15,10,4,7,-7,-11,-10
-4,-17,-12,10,4,-14,10,4,7,-7,-10,-10
-5,-17,-12,11,3,-14,10,4,6,-7,-10,-10
-7,-19,-12,12,2,-15,10,4,6,-7,-10,-10
-8,-19,-11,13,1,-15,11,4,6,-7,-10,-10
-8,-20,-11,14,1,-15,11,4,5,-7,-11,-11
-8,-20,-11,14,1,-15,11,4,4,-8,-12,-12
-8,-21,-11,14,1,-16,11,4,4,-8,-12,-12
-8,-21,-11,14,1,-16,12,4,4,-8,-12,-11
-8,-21,-11,14,1,-16,11,3,4,-9,-13,-12
-8,-21,-12,14,2,-16,11,3,3,-10,-14,-13
-8,-21,-13,15,2,-17,10,2,3,-11,-14,-14
-8,-22,-13,15,3,-18,10,2,3,-11,-15,-14
-8,-22,-14,15,3,-18,10,2,3,-10,-15,-14
-8,-23,-14,16,3,-18,10,2,3,-9,-14,-14
-8,-23,-14,16,3,-18,11,2,4,-9,-14,-13
-8,-23,-14,16,3,-18,11,2,4,-9,-14,-13
-8,-22,-13,15,3,-18,11,2,4,-9,-14,-13
-9,-22,-12,15,2,-17,10,2,4,-9,-14,-13
-11,-23,-12,17,0,-18,10,2,4,-9,-14,-13
-13,-25,-12,18,0,-18,10,2,5,-9,-13,-13
-13,-25,-12,19,0,-19,10,2,5,-9,-13,-12
-12,-25,-13,19,0,-19,10,2,5,-9,-12,-12
-12,-26,-13,19,0,-19,10,2,5,-9,-12,-12
-11,-25,-12,18,0,-19,11,2,5,-8,-12,-11
-12,-24,-11,18,0,-18,11,3,5,-8,-12,-11
-12,-24,-11,19,-1,-18,11,3,4,-8,-12,-12
-13,-24,-11,19,-1,-18,10,2,4,-9,-13,-13
-12,-23,-11,18,-1,-17,10,1,3,-9,-14,-13
-12,-22,-10,17,-1,-16,10,1,3,-9,-14,-13
-12,-23,-10,17,-1,-16,10,1,3,-9,-14,-13
-12,-23,-11,17,0,-17,10,1,3,-10,-14,-13
-11,-24,-12,17,0,-18,10,0,3,-10,-14,-13
-11,-24,-13,18,1,-19,10,0,3,-10,-14,-13
-11,-25,-14,18,1,-20,10,0,3,-10,-14,-13
-10,-26,-16,18,2,-21,10,0,3,-10,-14,-13
-9,-25,-16,17,3,-21,10,0,4,-9,-14,-13
-9,-25,-16,17,3,-20,11,1,5,-8,-14,-13
-9,-24,-13,16,1,-18,12,3,8,-7,-13,-12
-10,-22,-10,16,0,-16,13,6,11,-6,-13,-12
-11,-21,-8,16,-1,-14,15,9,14,-6,-12,-12
-11,-20,-7,15,-2,-14,16,14,19,-4,-11,-12
-12,-19,-6,15,-3,-13,17,18,24,-2,-10,-11
-12,-18,-5,15,-4,-12,18,22,30,0,-9,-11
-12,-16,-5,14,-4,-11,17,24,36,4,-7,-10
-10,-14,-5,12,-3,-9,16,25,41,8,-4,-9
-6,-11,-5,9,-1,-7,14,26,44,13,0,-6
-2,-8,-5,6,0,-6,11,25,44,18,5,-3
1,-6,-6,2,3,-6,7,24,44,23,11,0
5,-3,-7,-1,6,-5,3,26,49,30,18,5
9,2,-6,-6,8,-2,0,28,60,40,28,11
13,11,-2,-12,8,4,-4,27,72,55,42,21
17,23,5,-20,5,14,-8,18,74,72,59,33
21,36,14,-28,3,25,-13,-2,57,88,76,46
25,48,23,-37,1,36,-20,-32,21,101,91,59
28,61,33,-45,-2,47,-28,-65,-20,111,106,72
30,74,45,-53,-7,59,-35,-97,-62,117,117,84
32,83,53,-58,-10,68,-39,-122,-101,115,120,90
32,85,53,-59,-11,69,-38,-135,-133,104,114,90
29,78,49,-54,-10,64,-32,-137,-155,87,100,84
21,68,46,-45,-12,57,-25,-134,-173,67,81,74
10,56,46,-34,-18,51,-19,-132,-192,45,62,63
-2,43,45,-21,-24,44,-12,-127,-213,21,42,51
-14,26,40,-6,-27,33,-3,-115,-231,-5,18,37
-23,9,33,6,-28,21,4,-103,-244,-31,-5,21
-29,-4,26,17,-27,10,7,-99,-254,-52,-24,8
-34,-18,16,26,-25,-1,5,-100,-261,-69,-40,-4
-37,-32,5,35,-22,-14,1,-105,-263,-83,-52,-14
-38,-43,-4,40,-18,-23,-1,-113,-260,-93,-60,-22
-37,-49,-11,43,-13,-30,-4,-123,-250,-98,-65,-27
-36,-53,-17,44,-9,-35,-7,-130,-236,-99,-68,-31
-34,-55,-21,44,-6,-37,-9,-134,-217,-97,-68,-33
-33,-55,-22,44,-5,-38,-10,-134,-197,-93,-66,-34
-31,-53,-21,42,-4,-37,-10,-130,-178,-87,-63,-34
-30,-50,-19,40,-5,-35,-10,-123,-158,-79,-58,-33
-29,-46,-16,37,-6,-31,-10,-112,-137,-70,-52,-31
-26,-41,-14,33,-6,-28,-9,-99,-117,-61,-46,-28
-22,-36,-13,29,-5,-25,-8,-86,-98,-53,-41,-25
-20,-31,-12,26,-5,-21,-7,-74,-81,-45,-36,-21
-20,-28,-9,24,-6,-18,-5,-63,-65,-38,-31,-18
-18,-24,-6,21,-6,-15,-4,-52,-49,-32,-26,-15
-16,-20,-3,18,-6,-12,-2,-40,-35,-25,-21,-12
-14,-17,-2,16,-6,-10,0,-31,-24,-20,-17,-10
-13,-16,-2,15,-5,-10,0,-24,-15,-16,-15,-9
-11,-16,-4,13,-3,-10,1,-18,-9,-14,-14,-9
-10,-16,-5,12,-2,-10,2,-14,-4,-12,-13,-8
-9,-15,-6,11,-1,-10,3,-12,-1,-11,-12,-8
-7,-15,-7,11,0,-11,3,-9,2,-9,-11,-8
-6,-16,-8,11,1,-12,3,-7,5,-8,-10,-7
-6,-16,-10,11,2,-13,3,-5,8,-7,-10,-7
-5,-17,-10,11,3,-14,3,-4,10,-6,-9,-7
-5,-17,-11,11,4,-15,3,-4,12,-6,-9,-7
-4,-17,-11,10,4,-15,3,-3,13,-5,-8,-7
-4,-16,-12,9,4,-14,3,-2,14,-5,-8,-7
-4,-16,-12,9,4,-14,3,-2,15,-5,-8,-7
-4,-16,-12,10,4,-14,3,-1,16,-4,-8,-7
-4,-16,-11,10,3,-13,3,0,17,-4,-8,-7
-4,-16,-12,10,3,-13,3,1,18,-4,-8,-7
-5,-17,-11,11,3,-14,4,2,19,-4,-8,-8
-6,-17,-10,11,2,-14,5,3,20,-2,-6,-7
-6,-17,-10,11,2,-14,6,4,22,-1,-3,-5
-5,-17,-11,11,2,-14,6,4,22,0,-2,-4
-5,-17,-11,11,3,-14,6,5,23,0,-1,-4
-4,-16,-12,10,4,-14,5,5,23,0,-2,-4
-2,-16,-14,9,6,-14,5,5,23,0,-3,-4
0,-15,-15,7,7,-14,4,5,23,0,-3,-5
1,-15,-15,6,8,-15,4,5,24,0,-4,-5
1,-15,-15,6,8,-15,4,4,24,0,-4,-6
0,-15,-15,6,8,-15,3,4,23,0,-4,-6
0,-15,-15,6,8,-15,3,3,23,0,-4,-6
0,-15,-16,6,8,-15,3,3,23,0,-3,-5
0,-15,-16,7,8,-15,3,4,23,0,-2,-4
0,-16,-16,8,8,-15,3,5,24,0,-2,-4
-1,-17,-16,9,8,-16,3,6,25,0,-2,-3
0,-18,-17,9,8,-16,3,6,25,0,-2,-3
0,-18,-18,8,9,-17,2,6,25,0,-2,-3
1,-18,-19,7,10,-17,2,6,25,0,-2,-3
2,-18,-19,7,11,-18,2,6,24,0,-2,-3
1,-18,-19,8,10,-18,2,6,24,0,-2,-3
1,-18,-20,8,10,-18,1,6,23,0,-2,-3
1,-18,-20,8,11,-19,0,6,23,0,-2,-3
2,-18,-21,8,11,-19,0,6,22,-1,-3,-3
2,-17,-20,7,11,-19,0,6,22,-1,-3,-3
3,-17,-19,6,11,-18,0,7,22,-1,-3,-3
2,-17,-18,6,11,-17,0,8,21,-1,-2,-2
2,-17,-18,7,10,-17,-1,8,20,-1,-2,-2
2,-17,-18,7,10,-17,-1,9,19,-1,-2,-2
2,-16,-17,6,10,-16,-2,10,18,-1,-2,-2
2,-14,-16,5,10,-15,-2,11,17,-1,-1,-1
3,-12,-15,4,10,-14,-2,11,17,-1,-1,0
4,-12,-16,3,10,-14,-3,11,16,-1,-1,-1
5,-12,-17,3,11,-14,-3,12,16,-2,-2,-1
6,-11,-17,2,12,-14,-3,12,15,-2,-2,-2
6,-10,-17,1,12,-13,-3,13,15,-3,-2,-2
7,-9,-16,1,12,-13,-3,13,14,-3,-2,-2
8,-8,-17,0,13,-12,-3,13,13,-4,-3,-2
8,-8,-17,-1,13,-12,-4,14,12,-4,-3,-2
7,-8,-15,0,12,-12,-4,14,11,-4,-3,-2
3,-10,-13,3,9,-12,-3,15,10,-4,-3,-2
1,-11,-12,4,7,-12,-3,15,9,-4,-3,-2
0,-13,-12,6,6,-12,-3,15,9,-4,-3,-2
-2,-14,-11,7,5,-13,-2,15,8,-4,-2,-2
-2,-14,-11,8,5,-13,-2,15,8,-4,-2,-1
-2,-14,-12,8,5,-14,-2,16,7,-5,-2,-1
-1,-14,-13,7,6,-13,-2,16,6,-5,-2,-1
0,-13,-13,6,6,-13,-2,16,5,-6,-2,-1
0,-13,-12,6,6,-12,-2,16,4,-6,-3,-1
0,-12,-12,5,6,-12,-2,15,3,-6,-3,-1
1,-11,-11,4,6,-11,-3,15,2,-6,-4,-1
1,-11,-12,4,6,-12,-3,14,2,-7,-4,-1
2,-11,-13,4,7,-12,-4,13,2,-7,-4,-1
2,-11,-12,4,7,-12,-4,12,1,-7,-4,-1
0,-10,-11,4,6,-11,-4,12,1,-7,-4,0
-1,-11,-10,5,5,-11,-3,12,1,-7,-3,0
-1,-12,-10,6,4,-11,-3,12,1,-7,-3,0
-2,-12,-10,7,3,-11,-3,13,2,-6,-3,0
-3,-12,-9,7,3,-10,-2,13,2,-6,-3,1
-2,-12,-9,7,3,-10,-2,13,3,-6,-3,1
-2,-12,-9,6,4,-11,-1,13,3,-5,-2,2
-1,-11,-9,6,4,-10,-1,13,4,-4,-1,3
0,-10,-9,5,4,-9,-2,13,5,-3,-1,4
0,-8,-8,3,4,-8,-2,13,5,-2,0,5
0,-6,-7,2,4,-6,-2,13,6,-1,0,5
1,-4,-6,1,4,-5,-2,13,7,0,1,6
1,-3,-5,0,4,-4,-2,13,9,1,2,7
2,-1,-3,0,3,-3,-2,13,11,2,3,8
2,0,-1,-1,2,-1,-2,13,13,3,4,8
2,0,-1,-2,2,0,-2,14,14,4,5,9
2,1,-1,-2,2,0,-2,14,15,5,6,9
3,2,-1,-3,3,0,-1,15,17,6,7,10
4,3,-1,-4,3,1,-1,16,19,7,9,11
4,5,0,-5,2,2,0,17,21,9,10,11
5,6,1,-6,2,3,0,17,23,11,11,12
5,8,2,-7,1,4,0,18,25,12,12,12
6,9,4,-8,1,6,0,19,27,14,13,13
6,11,6,-9,0,8,-1,20,29,15,14,13
5,13,8,-9,-1,10,-1,21,31,17,16,14
4,14,9,-10,-2,11,-1,22,33,18,17,15
4,15,10,-10,-3,12,-1,23,35,19,17,16
4,17,12,-12,-4,14,0,25,37,20,18,17
4,20,15,-13,-5,17,0,26,39,21,19,18
5,23,16,-15,-5,19,0,27,40,22,20,19
6,24,17,-16,-5,20,-1,27,42,22,20,19
6,25,18,-16,-5,21,-1,27,43,23,21,20
6,26,20,-16,-7,23,-1,25,44,24,22,21
5,27,22,-16,-8,24,-2,23,44,24,22,21
4,27,23,-16,-9,25,-2,21,45,25,22,21
3,27,25,-16,-11,26,-2,20,46,26,23,21
2,27,25,-15,-12,26,-3,19,47,26,23,22
2,27,24,-15,-11,25,-3,19,47,26,23,22
4,26,22,-15,-9,24,-4,18,48,27,24,22
4,25,20,-15,-8,23,-4,18,49,28,24,22
4,24,20,-14,-7,22,-4,19,50,29,25,23
3,23,20,-13,-7,22,-4,19,50,29,25,23
3,22,20,-13,-7,21,-5,19,51,29,25,24
3,22,20,-12,-8,21,-6,19,51,29,25,24
1,22,20,-12,-9,21,-6,19,52,30,26,24
0,21,21,-12,-9,21,-6,20,52,30,26,24
0,20,20,-11,-9,20,-6,20,52,30,25,23
-1,19,20,-10,-10,20,-6,20,51,29,24,22
-1,18,20,-9,-10,19,-5,20,50,28,23,22
-1,17,19,-8,-10,18,-5,19,49,27,22,21
0,17,17,-9,-8,17,-5,19,48,25,20,20
0,17,17,-9,-8,17,-5,18,46,24,19,19
0,17,17,-8,-8,16,-5,18,45,23,19,18
0,15,15,-7,-7,15,-5,17,44,22,18,17
0,12,13,-6,-6,12,-4,17,43,21,17,16
0,11,11,-6,-5,11,-4,16,42,20,16,15
1,11,10,-6,-4,10,-3,16,42,20,15,14
2,11,9,-6,-3,10,-3,16,41,19,14,14
2,11,8,-6,-3,10,-2,16,41,19,14,14
2,10,8,-6,-2,9,-1,17,40,19,14,13
2,9,8,-6,-2,8,0,17,39,18,13,12
0,7,8,-5,-3,8,0,17,38,17,11,11
0,7,8,-4,-4,7,0,17,37,16,10,11
-2,6,8,-3,-5,7,1,18,36,15,10,11
-3,6,9,-2,-6,7,2,18,35,15,10,11
-4,5,9,-1,-6,7,2,17,34,15,10,11
-4,4,8,0,-6,6,2,17,33,14,10,10
-4,3,7,0,-5,5,3,16,32,14,9,10
-3,2,5,0,-3,3,3,16,31,14,9,9
-2,1,3,0,-2,1,3,16,30,13,8,9
-1,1,2,0,-1,1,3,15,29,12,8,8
-1,1,2,0,-1,1,3,15,27,11,8,8
0,2,2,-1,-1,2,3,14,25,10,7,7
0,2,2,-1,-1,2,4,14,24,10,6,7
-1,1,3,0,-1,2,5,14,23,9,5,6
-3,0,3,1,-2,1,6,14,23,9,5,6
-3,-1,3,2,-3,0,6,14,22,9,5,5
-4,-3,1,3,-2,-1,7,14,22,8,4,5
-4,-4,0,3,-2,-2,7,14,21,7,4,4
-4,-5,0,4,-2,-3,7,14,20,6,3,4
-4,-5,0,4,-2,-3,7,14,19,6,3,3
-5,-4,0,4,-2,-2,8,14,19,5,3,3
-5,-4,1,4,-3,-1,8,14,18,5,2,3
-6,-4,2,5,-3,-1,8,13,18,5,2,3
-6,-5,2,5,-4,-1,9,13,17,4,1,2
-8,-7,2,7,-4,-2,10,13,17,4,1,1
-9,-8,1,8,-5,-3,10,13,17,3,1,1
-9,-10,0,9,-5,-5,10,13,16,3,1,1
-9,-11,-1,10,-4,-6,10,13,15,2,1,0
-9,-13,-4,10,-2,-8,10,13,14,1,0,0
-8,-14,-6,11,-1,-10,10,12,14,0,-1,-1
-9,-15,-6,12,-1,-11,10,12,13,0,-3,-1
-9,-16,-6,13,-2,-10,10,12,13,0,-4,-2
-10,-16,-5,13,-2,-10,10,11,12,-1,-4,-2
-10,-16,-5,13,-2,-10,10,11,12,-1,-4,-2
-9,-15,-5,12,-2,-11,10,11,11,-2,-5,-2
-9,-15,-6,12,-1,-11,10,11,10,-2,-5,-2
-9,-15,-6,11,-1,-11,11,11,10,-3,-6,-2
-8,-14,-6,11,0,-11,11,11,9,-3,-6,-3
-8,-14,-6,11,0,-10,11,11,9,-3,-6,-3
-9,-15,-5,12,-2,-10,12,11,9,-3,-6,-2
-8,-14,-5,11,-2,-9,12,10,8,-3,-6,-2
-6,-13,-6,9,0,-9,12,9,8,-4,-6,-3
-4,-12,-6,7,1,-9,12,9,7,-4,-7,-3
-5,-12,-6,7,1,-9,12,9,7,-4,-7,-3
-6,-13,-6,8,1,-9,12,9,7,-4,-6,-3
-8,-14,-7,10,0,-10,11,9,6,-4,-6,-4
-8,-15,-8,11,0,-11,11,9,6,-5,-6,-4
-8,-16,-8,12,0,-12,11,9,5,-5,-6,-4
-7,-16,-8,12,0,-12,11,9,5,-5,-5,-4
-8,-16,-8,12,0,-12,11,9,5,-5,-5,-4
-8,-17,-8,13,0,-13,11,8,5,-5,-6,-4
-8,-18,-8,13,0,-13,11,8,5,-5,-6,-4
-8,-17,-8,12,0,-13,11,8,5,-5,-6,-3
-9,-17,-8,12,0,-12,12,8,5,-5,-6,-3
-9,-16,-8,12,0,-12,13,8,5,-5,-6,-3
-8,-16,-8,12,0,-12,13,8,5,-6,-7,-3
-8,-16,-8,12,0,-13,12,7,4,-7,-8,-4
-9,-18,-9,13,0,-14,12,7,4,-7,-9,-4
-9,-19,-9,13,0,-15,13,7,5,-7,-9,-4
-8,-19,-9,13,1,-15,13,8,5,-7,-9,-4
-8,-18,-9,13,1,-14,14,8,5,-7,-9,-4
-9,-18,-9,13,0,-14,14,8,5,-7,-9,-4
-8,-18,-9,13,0,-14,14,8,5,-7,-9,-5
-6,-18,-11,12,2,-14,13,8,5,-7,-9,-5
-5,-18,-12,11,3,-15,13,8,4,-7,-9,-6
-6,-19,-11,12,2,-15,13,8,4,-8,-9,-6
-8,-19,-11,13,1,-15,13,7,4,-8,-9,-6
-8,-19,-11,13,1,-15,12,7,3,-9,-10,-6
-8,-19,-11,13,1,-15,12,6,3,-9,-10,-7
-9,-19,-10,13,0,-14,12,6,3,-9,-10,-7
-9,-18,-8,13,0,-13,12,6,3,-8,-9,-6
-9,-17,-7,13,-1,-12,12,6,3,-8,-9,-5
-9,-17,-6,13,-1,-12,12,6,3,-7,-8,-4
-9,-16,-6,13,-2,-11,13,6,4,-7,-8,-3
-8,-15,-5,12,-2,-10,13,7,4,-6,-7,-2
-6,-13,-6,10,0,-9,13,7,4,-6,-7,-2
-5,-13,-7,9,1,-10,14,8,5,-5,-7,-2
-6,-13,-7,9,0,-10,14,8,5,-5,-7,-2
-8,-14,-6,11,-1,-10,14,8,6,-4,-7,-2
-8,-15,-6,11,-1,-10,14,8,6,-4,-7,-2
-7,-14,-7,11,0,-10,14,8,5,-5,-7,-3
-5,-14,-7,10,0,-10,13,7,4,-6,-8,-4
-5,-13,-7,9,0,-9,13,7,4,-6,-7,-4
-5,-13,-7,9,0,-9,13,7,4,-6,-7,-4
-6,-14,-7,9,0,-10,13,7,4,-6,-7,-4
-7,-14,-8,10,0,-11,13,7,5,-5,-7,-3
-8,-15,-8,11,0,-12,13,8,6,-5,-7,-3
-8,-17,-9,12,0,-13,14,10,7,-5,-7,-3
-8,-18,-10,13,0,-14,15,12,10,-4,-7,-4
-9,-19,-10,13,0,-14,16,16,14,-3,-7,-4
-9,-19,-9,13,0,-14,17,20,18,-1,-7,-4
-8,-18,-8,12,0,-13,18,23,24,0,-6,-4
-8,-15,-7,11,0,-11,18,26,30,3,-4,-3
-8,-13,-4,10,-2,-8,18,27,35,7,-1,-2
-8,-10,-2,8,-3,-6,17,28,40,12,3,0
-6,-6,0,6,-2,-4,15,29,42,17,7,4
-3,-4,0,3,-1,-2,13,30,43,22,13,8
1,-2,-2,0,1,-1,10,31,45,28,19,12
4,0,-3,-3,3,0,7,34,51,36,27,18
8,5,-2,-7,4,2,4,36,64,47,38,25
15,15,0,-15,6,8,0,35,77,62,53,34
22,29,6,-25,7,18,-5,26,77,79,70,46
26,43,16,-34,4,30,-11,8,54,95,87,60
28,57,28,-42,0,42,-19,-17,14,107,103,73
31,70,39,-50,-3,54,-28,-44,-32,115,116,86
33,82,49,-58,-7,66,-34,-69,-76,118,125,96
35,89,55,-63,-10,73,-37,-87,-116,113,126,101
32,88,56,-61,-12,72,-35,-95,-147,100,117,100
25,80,55,-53,-15,68,-27,-93,-167,82,102,92
14,71,57,-43,-22,65,-19,-90,-184,62,83,82
1,62,60,-32,-30,61,-13,-90,-205,39,63,72
-9,49,58,-20,-34,54,-8,-87,-226,14,41,60
-19,32,51,-6,-35,41,0,-78,-242,-14,16,44
-28,14,42,7,-35,28,7,-67,-250,-39,-7,28
-33,-1,32,17,-33,16,10,-62,-256,-58,-26,14
-35,-14,21,24,-28,4,8,-62,-260,-74,-40,2
-35,-26,10,29,-22,-7,5,-65,-260,-87,-52,-8
-34,-35,0,34,-17,-17,2,-70,-256,-96,-60,-16
-33,-40,-7,36,-13,-24,0,-78,-246,-102,-65,-21
-32,-44,-13,37,-10,-28,-2,-85,-231,-103,-67,-25
-30,-46,-16,38,-7,-31,-4,-92,-214,-101,-67,-27
-29,-47,-18,38,-5,-32,-5,-99,-197,-97,-66,-29
-28,-46,-17,37,-5,-31,-6,-102,-179,-91,-63,-29
-27,-44,-16,35,-5,-29,-7,-100,-161,-83,-59,-28
-25,-41,-15,32,-5,-27,-7,-95,-142,-74,-54,-26
-23,-37,-13,29,-5,-24,-7,-87,-122,-65,-48,-24
-21,-32,-12,25,-4,-21,-7,-75,-103,-56,-41,-21
-18,-28,-11,21,-4,-19,-6,-65,-85,-48,-35,-18
-16,-24,-9,19,-4,-17,-4,-55,-69,-41,-30,-16
-15,-22,-8,18,-4,-15,-2,-46,-53,-34,-25,-13
-14,-20,-6,17,-4,-13,0,-36,-39,-27,-21,-10
-12,-19,-6,16,-3,-12,2,-27,-26,-20,-17,-8
-11,-18,-6,14,-2,-12,4,-20,-15,-15,-13,-7
-10,-17,-6,13,-2,-12,5,-15,-8,-12,-11,-6
-10,-16,-6,12,-1,-11,6,-11,-2,-9,-9,-5
-9,-14,-6,10,-1,-10,7,-8,2,-7,-8,-4
-7,-12,-6,9,0,-9,7,-5,6,-6,-7,-3
-6,-10,-5,7,0,-8,7,-3,8,-5,-7,-3
-4,-10,-6,6,0,-8,6,-3,10,-5,-8,-4
-3,-10,-6,6,1,-8,6,-2,11,-5,-8,-4
-3,-9,-5,5,0,-7,6,-2,12,-4,-8,-5
-3,-9,-5,5,0,-6,6,-2,13,-4,-7,-5
-2,-8,-5,5,0,-7,6,-2,14,-3,-7,-5
-2,-8,-6,5,1,-7,6,-1,15,-3,-7,-5
-3,-9,-7,6,1,-8,6,0,17,-3,-6,-5
-4,-11,-8,8,1,-9,7,1,19,-3,-5,-5
-4,-13,-9,9,2,-11,8,2,20,-2,-5,-5
-4,-14,-10,9,3,-12,8,3,21,-2,-5,-5
-3,-15,-11,8,4,-12,8,3,22,-2,-6,-6
-2,-14,-11,8,5,-13,8,3,22,-1,-5,-6
-1,-14,-12,7,5,-13,8,3,23,-1,-5,-5
-1,-14,-12,7,6,-13,8,3,23,0,-4,-5
0,-13,-13,6,6,-13,7,3,23,0,-4,-5
0,-12,-13,6,6,-13,7,3,24,0,-4,-5
0,-12,-13,5,7,-13,6,3,24,0,-4,-5
1,-12,-13,5,7,-13,6,3,25,1,-4,-5
1,-12,-14,5,8,-13,6,3,25,1,-4,-5
2,-13,-15,5,8,-14,6,3,26,1,-3,-5
2,-14,-16,6,8,-15,6,3,26,1,-3,-5
2,-14,-16,6,8,-15,6,2,26,1,-3,-6
1,-14,-16,6,8,-15,6,2,26,1,-3,-6
1,-13,-15,6,7,-14,5,2,26,1,-2,-6
1,-12,-14,5,8,-14,4,1,25,1,-3,-6
2,-12,-14,4,9,-13,3,0,24,0,-3,-7
3,-12,-15,4,9,-14,2,0,23,0,-2,-7
2,-13,-15,5,9,-14,2,0,23,0,-2,-7
2,-14,-16,6,9,-15,1,0,22,0,-2,-7
3,-14,-17,6,10,-16,1,0,22,0,-2,-7
2,-15,-18,6,10,-16,1,0,22,0,-3,-8
1,-16,-18,8,9,-17,1,1,22,0,-3,-8
0,-19,-19,9,9,-19,1,1,22,0,-3,-8
-1,-21,-20,11,9,-20,1,2,22,-1,-3,-8
-1,-21,-20,11,9,-21,1,2,22,-1,-3,-8
0,-21,-21,11,10,-21,1,3,21,-2,-3,-8
0,-21,-21,10,10,-21,1,3,21,-2,-3,-8
1,-20,-21,9,11,-20,0,4,21,-2,-2,-7
1,-18,-19,7,10,-18,0,5,22,-2,-2,-7
1,-16,-17,7,9,-16,0,6,22,-1,-2,-6
1,-15,-16,6,9,-15,0,6,21,-2,-2,-6
3,-14,-17,5,10,-15,-1,6,19,-3,-3,-7
3,-13,-17,4,11,-15,-2,6,18,-3,-4,-8
2,-13,-16,5,10,-15,-2,6,17,-4,-5,-8
1,-12,-14,5,8,-14,-2,7,17,-4,-5,-8
0,-12,-13,5,6,-13,-2,7,16,-5,-5,-8
0,-12,-13,5,7,-13,-3,6,14,-6,-6,-9
1,-12,-15,5,8,-14,-4,6,12,-8,-7,-10
2,-12,-15,5,8,-14,-4,7,10,-8,-8,-10
2,-12,-15,5,8,-13,-4,7,8,-8,-8,-10
2,-11,-14,5,8,-13,-4,8,8,-8,-8,-9
2,-11,-14,5,8,-13,-3,9,8,-8,-7,-9
2,-11,-13,5,8,-12,-2,9,8,-7,-7,-9
2,-11,-13,5,7,-12,-2,10,7,-7,-6,-8
1,-12,-13,5,7,-13,-2,10,6,-8,-7,-8
1,-12,-14,6,7,-13,-2,10,5,-8,-7,-8
1,-11,-13,5,7,-13,-2,10,4,-8,-7,-8
1,-10,-12,4,7,-11,-2,9,3,-9,-7,-8
1,-8,-11,3,6,-10,-2,9,2,-9,-7,-8
1,-7,-9,3,6,-8,-2,8,1,-9,-7,-8
1,-7,-8,3,5,-7,-2,7,1,-9,-7,-8
1,-7,-7,3,4,-7,-2,7,1,-9,-7,-8
1,-7,-7,2,4,-7,-2,7,1,-9,-7,-8
1,-6,-7,2,4,-7,-2,7,0,-9,-7,-8
1,-6,-8,2,4,-7,-2,7,0,-9,-7,-9
0,-7,-9,3,5,-8,-1,6,0,-9,-7,-9
0,-8,-10,3,5,-9,-1,6,0,-9,-7,-9
0,-9,-10,4,5,-9,0,7,0,-8,-6,-9
0,-8,-9,3,5,-8,0,7,1,-7,-6,-8
1,-6,-8,2,5,-7,0,8,1,-7,-5,-7
3,-3,-7,0,5,-6,-1,8,2,-6,-4,-6
4,0,-5,-2,4,-3,-1,8,2,-4,-3,-5
4,2,-2,-3,2,0,-1,8,3,-3,-1,-4
3,4,0,-3,0,2,-1,8,4,-2,0,-3
2,5,2,-3,0,3,-1,8,5,-1,0,-2
3,6,3,-4,0,4,-1,8,6,0,1,-2
3,7,4,-5,0,5,-1,7,8,0,2,-1
3,7,4,-5,-1,5,-1,7,9,1,3,0
3,7,5,-5,-1,6,-1,8,10,2,4,0
3,8,5,-5,-1,6,-1,8,12,4,5,1
4,10,6,-7,-1,8,-1,9,13,6,6,2
4,10,7,-7,-2,9,0,11,15,8,8,3
3,10,6,-7,-2,8,0,12,18,10,10,4
3,10,6,-7,-1,8,0,14,21,12,11,5
3,11,7,-8,-1,9,1,16,23,14,13,7
3,12,9,-8,-3,10,1,17,26,15,14,8
3,14,11,-9,-4,12,1,18,28,16,15,8
4,18,13,-11,-4,15,1,19,30,17,16,9
6,21,15,-14,-5,17,1,19,31,19,18,10
7,24,16,-16,-5,20,1,19,33,20,19,12
7,27,18,-17,-5,22,0,18,34,22,20,13
7,29,20,-18,-6,24,0,16,35,23,21,14
6,30,22,-18,-7,26,-1,14,36,23,21,14
6,29,23,-18,-8,26,-2,13,36,23,21,14
5,29,24,-17,-9,26,-3,12,37,23,21,14
4,29,25,-17,-10,27,-3,11,37,23,21,14
4,29,26,-17,-11,27,-3,11,38,24,21,14
4,30,25,-17,-11,28,-3,11,38,24,22,14
4,29,25,-16,-11,27,-3,12,39,25,22,14
3,28,25,-16,-11,27,-4,12,40,25,22,14
3,27,24,-16,-10,26,-5,12,40,25,22,14
4,27,23,-16,-9,25,-6,12,41,25,21,14
4,25,22,-15,-9,23,-6,12,42,25,21,13
3,24,21,-13,-9,22,-6,12,42,25,21,13
3,23,19,-13,-8,20,-6,12,42,25,20,12
5,22,17,-14,-6,19,-6,11,42,24,20,11
6,21,14,-14,-4,17,-5,11,42,23,19,10
7,19,12,-13,-3,16,-5,11,42,23,19,9
6,18,11,-12,-3,15,-5,12,42,23,19,9
4,16,12,-11,-4,14,-4,12,43,23,19,9
2,15,13,-9,-5,14,-4,11,43,23,18,9
1,14,13,-8,-6,14,-3,11,42,22,17,9
0,14,14,-7,-7,14,-3,10,42,22,16,9
-1,14,15,-7,-8,15,-2,10,42,21,16,9
0,15,15,-7,-8,15,-2,10,41,21,16,8
1,16,15,-9,-7,15,-3,10,41,20,15,8
2,17,14,-9,-6,16,-3,9,40,19,15,7
2,17,14,-10,-6,16,-3,9,39,19,14,7
2,16,13,-10,-5,15,-1,10,39,18,14,6
2,15,12,-9,-5,14,0,11,39,17,13,6
1,13,12,-8,-5,12,1,11,38,16,12,5
1,11,11,-6,-5,11,1,11,37,15,10,4
0,10,10,-5,-4,10,2,11,36,15,9,3
0,9,9,-4,-4,9,2,12,35,14,9,3
-1,7,8,-3,-5,8,3,12,35,14,9,3
-1,5,8,-3,-4,7,3,12,34,14,8,2
-1,5,7,-3,-4,6,4,12,33,13,8,2
-1,5,6,-3,-3,6,4,12,33,12,8,2
-1,5,6,-3,-3,6,4,12,32,12,8,2
0,6,6,-3,-2,6,4,12,32,11,7,1
0,6,5,-3,-2,5,4,12,31,11,7,1
1,6,5,-4,-2,6,4,11,30,11,7,0
0,7,6,-4,-3,7,4,11,29,11,7,0
0,7,8,-4,-5,8,4,11,28,10,6,0
0,8,8,-4,-4,9,4,11,27,10,6,0
1,7,6,-5,-2,7,4,10,26,9,5,-1
2,5,3,-4,0,4,5,10,25,8,4,-1
1,2,0,-2,0,1,6,11,25,7,4,-2
0,0,-1,0,0,-1,7,11,25,7,4,-2
-1,-2,-1,2,0,-2,8,12,25,7,3,-3
-3,-3,0,3,-1,-2,8,12,24,6,3,-3
-4,-4,0,3,-2,-2,8,11,23,6,2,-3
-4,-4,0,4,-2,-2,8,11,22,5,2,-3
-5,-4,0,4,-3,-2,8,11,21,4,1,-3
-4,-3,1,4,-3,-2,8,11,21,3,1,-4
-4,-3,0,4,-2,-2,8,10,20,3,0,-4
-4,-3,0,4,-2,-2,9,10,20,2,0,-4
-5,-4,0,5,-3,-2,9,10,19,2,0,-4
-5,-5,-1,5,-3,-3,10,10,19,1,0,-5
-6,-7,-1,6,-3,-3,10,10,18,1,-1,-5
-8,-8,0,7,-4,-3,10,10,18,1,-1,-6
-9,-9,0,8,-5,-4,11,11,18,1,-1,-6
-10,-9,1,9,-5,-4,11,11,18,2,-1,-6
-11,-10,1,10,-6,-4,12,11,17,1,-1,-6
-10,-10,0,10,-5,-4,12,11,16,0,-2,-6
-9,-10,-1,9,-4,-4,12,10,15,0,-2,-6
-9,-10,-1,9,-4,-5,11,9,14,0,-3,-6
-8,-10,-1,9,-4,-5,11,8,13,-1,-3,-6
-9,-10,-1,9,-4,-5,11,8,12,-1,-4,-6
-9,-9,-1,8,-4,-5,10,7,12,-2,-4,-7
-9,-9,-1,8,-4,-5,10,7,11,-3,-5,-7
-9,-10,-1,9,-4,-6,10,7,10,-3,-5,-8
-10,-11,-1,10,-4,-6,10,7,10,-4,-6,-8
-10,-12,-1,11,-4,-6,11,7,9,-4,-6,-8
-11,-13,-2,12,-4,-7,11,7,9,-5,-7,-8
-11,-15,-3,13,-4,-9,11,7,8,-6,-8,-9
-11,-15,-4,13,-3,-10,11,7,8,-6,-8,-9
-11,-15,-4,13,-3,-10,11,7,8,-6,-8,-9
-10,-15,-5,12,-2,-11,11,7,7,-6,-8,-10
-8,-14,-7,12,-1,-11,11,7,7,-6,-8,-10
-7,-14,-7,11,0,-11,11,7,7,-7,-9,-11
-7,-13,-6,11,0,-10,11,7,7,-7,-9,-11
-8,-13,-4,11,-1,-9,11,7,7,-6,-9,-10
-8,-13,-3,11,-2,-8,11,7,7,-6,-8,-10
-8,-13,-3,11,-2,-9,11,7,7,-6,-9,-10
-8,-13,-4,11,-2,-10,11,7,6,-7,-9,-10
-9,-14,-5,11,-2,-10,11,7,6,-8,-10,-10
-9,-15,-6,12,-1,-11,11,7,6,-8,-10,-10
-10,-16,-7,13,-1,-12,11,7,6,-8,-11,-11
-10,-17,-7,14,-2,-12,11,6,6,-8,-11,-11
-11,-17,-6,14,-2,-12,11,6,6,-8,-11,-11
-11,-18,-6,15,-2,-12,11,6,6,-8,-10,-11
-11,-18,-6,15,-2,-12,12,6,6,-8,-10,-12
-11,-18,-6,15,-2,-12,12,6,5,-8,-10,-12
-12,-19,-7,15,-3,-13,11,6,5,-8,-11,-13
-13,-19,-6,16,-4,-12,11,6,5,-9,-11,-13
-13,-18,-4,16,-5,-11,11,6,5,-9,-11,-13
-13,-17,-4,15,-5,-11,10,5,4,-9,-11,-14
-13,-18,-4,16,-4,-11,9,3,4,-10,-11,-15
-15,-19,-3,17,-6,-11,9,3,4,-10,-11,-15
-17,-19,-1,18,-7,-10,9,3,4,-10,-11,-14
-17,-19,-1,18,-7,-10,8,2,3,-10,-12,-14
-16,-19,-3,17,-6,-11,8,2,3,-10,-12,-14
-15,-20,-4,17,-6,-12,9,3,3,-9,-11,-14
-15,-21,-5,18,-6,-13,9,3,4,-9,-11,-14
-16,-21,-5,18,-6,-13,10,3,5,-8,-11,-14
-16,-21,-5,18,-6,-13,10,3,5,-8,-11,-14
-17,-22,-5,19,-5,-13,10,3,6,-8,-10,-13
-17,-23,-6,19,-5,-14,10,3,6,-7,-10,-13
-17,-23,-5,20,-6,-14,10,3,6,-7,-9,-13
-17,-22,-4,19,-7,-13,11,3,6,-6,-9,-12
-17,-21,-4,19,-7,-13,11,4,8,-6,-8,-11
-17,-20,-3,19,-7,-12,11,4,8,-5,-8,-11
-17,-20,-3,19,-7,-12,11,4,9,-6,-8,-11
-16,-19,-3,18,-6,-12,11,4,9,-6,-9,-11
-16,-18,-2,17,-6,-10,11,4,9,-6,-10,-11
-14,-16,-2,15,-6,-9,11,5,10,-6,-10,-11
-12,-15,-3,13,-4,-9,12,7,12,-6,-10,-12
-10,-14,-4,12,-3,-9,13,10,15,-6,-10,-12
-10,-13,-4,12,-3,-9,14,14,19,-5,-10,-12
-10,-13,-3,12,-4,-8,15,18,24,-3,-9,-12
-10,-13,-2,11,-4,-8,16,22,30,0,-7,-12
-10,-12,-2,10,-4,-7,17,24,35,4,-4,-10
-10,-10,0,9,-5,-5,16,26,40,9,-1,-8
-9,-7,2,8,-6,-3,15,26,44,15,4,-5
-7,-3,3,5,-5,0,12,26,46,21,10,-1
-3,0,3,1,-3,1,8,26,48,27,17,2
1,2,2,-2,0,2,4,27,53,35,24,7
5,7,2,-6,1,4,1,29,64,45,34,13
9,15,7,-13,1,11,-3,25,71,59,47,21
12,28,16,-21,-2,21,-8,11,65,75,62,32
15,42,27,-29,-6,34,-15,-12,39,89,79,45
18,56,37,-37,-9,46,-23,-44,0,102,95,58
22,71,48,-46,-12,59,-32,-78,-44,113,111,72
24,85,59,-55,-17,72,-39,-111,-85,120,124,85
26,96,68,-61,-20,82,-44,-136,-123,121,130,94
28,100,71,-64,-21,85,-44,-150,-153,114,126,97
27,95,68,-61,-21,81,-40,-153,-174,98,114,92
21,84,64,-53,-23,74,-36,-151,-190,78,95,82
11,71,61,-41,-26,65,-31,-146,-207,54,74,70
0,54,56,-27,-29,55,-24,-137,-226,27,51,56
-13,34,47,-10,-30,40,-16,-124,-243,-3,24,39
-24,13,38,5,-30,25,-10,-111,-256,-33,-2,21
-32,-4,28,18,-29,12,-8,-104,-265,-58,-24,5
-35,-19,17,27,-26,-1,-9,-101,-269,-78,-42,-8
-36,-32,5,34,-21,-13,-12,-101,-268,-92,-55,-19
-37,-42,-4,39,-17,-23,-15,-108,-262,-101,-65,-27
-36,-49,-12,42,-12,-31,-19,-117,-251,-106,-70,-33
-35,-52,-17,43,-9,-35,-21,-123,-234,-106,-72,-37
-35,-54,-19,44,-8,-37,-22,-126,-213,-102,-71,-38
-34,-53,-19,44,-7,-36,-22,-125,-192,-96,-68,-39
-31,-50,-18,41,-6,-34,-22,-121,-172,-89,-64,-38
-28,-44,-16,37,-5,-30,-21,-113,-151,-80,-58,-35
-25,-38,-12,32,-6,-26,-19,-101,-129,-69,-50,-31
-23,-33,-9,27,-7,-21,-17,-88,-108,-58,-43,-27
-22,-28,-6,24,-8,-17,-14,-76,-89,-49,-36,-23
-21,-24,-3,22,-9,-14,-12,-65,-71,-41,-30,-20
-20,-21,-2,20,-9,-12,-9,-53,-55,-34,-26,-18
-18,-18,-1,19,-8,-10,-7,-42,-40,-28,-22,-16
-17,-17,0,17,-8,-9,-4,-31,-26,-23,-19,-14
-15,-15,0,15,-8,-7,-2,-23,-15,-18,-15,-13
-13,-13,1,13,-7,-6,0,-16,-6,-15,-12,-11
-12,-11,1,11,-7,-5,1,-11,0,-12,-10,-10
-11,-10,1,10,-7,-4,2,-7,4,-10,-9,-10
-10,-9,1,9,-6,-4,2,-5,8,-8,-8,-9
-9,-9,0,9,-5,-5,3,-3,10,-7,-7,-8
-8,-10,-1,9,-4,-5,3,-2,13,-6,-7,-8
-8,-10,-2,10,-3,-6,3,-1,15,-6,-7,-8
-7,-11,-3,10,-3,-7,3,0,17,-5,-7,-9
-7,-11,-4,9,-2,-8,3,2,18,-5,-7,-9
-6,-10,-4,8,-2,-8,3,3,20,-4,-6,-8
-7,-10,-4,8,-2,-8,4,4,21,-3,-5,-8
-8,-11,-3,9,-2,-8,4,5,22,-3,-5,-8
-9,-13,-4,11,-2,-9,4,6,23,-2,-5,-8
-9,-14,-5,11,-1,-10,4,6,23,-2,-5,-8
-7,-14,-6,11,0,-10,4,6,24,-2,-5,-9
-6,-13,-7,10,0,-10,4,7,25,-2,-4,-9
-5,-13,-7,9,1,-10,4,7,26,-1,-4,-8
-4,-12,-8,8,1,-10,4,8,27,0,-3,-8
-4,-11,-8,7,1,-10,4,8,28,0,-3,-8
-4,-12,-8,8,1,-11,3,8,28,-1,-4,-8
-4,-12,-9,8,2,-11,3,9,28,-1,-4,-8
-4,-12,-9,8,2,-11,3,9,28,0,-3,-8
-4,-12,-8,8,2,-10,3,10,29,0,-3,-7
-4,-13,-7,9,1,-10,3,10,30,0,-2,-6
-4,-13,-7,9,1,-11,3,10,30,1,-2,-6
-5,-13,-7,9,1,-11,2,10,31,1,-1,-6
-5,-13,-7,9,0,-11,2,10,31,2,-1,-6
-5,-14,-8,9,1,-11,2,10,31,2,-1,-6
-4,-14,-10,8,2,-12,2,10,30,2,-1,-6
-3,-13,-10,8,3,-12,2,10,30,2,-1,-6
-2,-12,-10,7,4,-11,1,9,29,1,-1,-6
-1,-12,-10,7,5,-11,1,9,29,1,-1,-7
-1,-12,-10,7,4,-11,0,9,28,0,-1,-7
-2,-13,-10,7,4,-12,0,9,28,0,-1,-8
-1,-13,-11,7,4,-12,-1,9,27,0,-2,-8
-1,-14,-12,7,5,-13,-2,9,27,0,-2,-9
-1,-14,-12,7,5,-13,-1,9,27,0,-2,-9
-1,-14,-12,8,5,-13,-1,10,27,0,-2,-8
-1,-14,-13,8,6,-13,-2,10,26,0,-2,-8
0,-15,-13,8,6,-14,-2,11,26,-1,-3,-8
0,-14,-13,7,6,-14,-3,11,25,-1,-3,-8
0,-13,-13,6,6,-14,-3,12,25,-1,-3,-8
0,-13,-13,6,6,-13,-4,12,25,-1,-3,-8
-1,-13,-12,6,5,-13,-4,12,24,-1,-3,-8
-2,-12,-11,7,4,-12,-4,13,24,-1,-2,-8
-1,-12,-11,6,5,-12,-4,14,23,-1,-2,-8
0,-11,-11,6,5,-11,-5,15,23,-1,-2,-8
-1,-11,-9,6,4,-10,-5,16,22,-1,-2,-8
-1,-11,-8,6,4,-10,-5,17,21,-2,-2,-7
-1,-11,-9,5,4,-10,-5,17,20,-3,-3,-7
0,-11,-11,5,6,-11,-5,18,19,-4,-3,-7
0,-11,-12,5,6,-12,-5,18,18,-4,-3,-7
1,-11,-13,5,7,-12,-5,19,18,-4,-3,-7
2,-11,-13,5,7,-12,-5,20,17,-4,-3,-7
3,-11,-14,4,8,-12,-5,21,17,-4,-3,-7
3,-11,-14,4,8,-13,-4,22,16,-5,-3,-7
3,-12,-14,5,8,-13,-4,23,16,-5,-3,-6
2,-12,-14,5,8,-13,-4,23,15,-5,-3,-6
2,-11,-12,4,7,-12,-4,24,14,-5,-3,-6
1,-9,-10,4,5,-10,-3,25,14,-5,-3,-5
0,-7,-8,4,3,-8,-2,26,13,-4,-2,-4
0,-7,-8,4,3,-8,-2,25,12,-4,-2,-4
0,-8,-8,4,3,-8,-2,25,11,-4,-2,-4
0,-8,-9,4,3,-8,-2,25,10,-4,-2,-3
1,-8,-9,3,4,-8,-2,25,9,-4,-2,-3
1,-9,-9,3,4,-9,-2,24,8,-4,-2,-3
1,-9,-10,3,4,-9,-2,24,8,-4,-2,-3
1,-9,-10,3,4,-9,-2,24,7,-4,-2,-3
1,-8,-9,3,5,-9,-2,24,7,-5,-2,-3
1,-8,-9,3,5,-8,-2,24,6,-5,-2,-3
1,-7,-8,3,4,-8,-2,23,6,-5,-2,-3
1,-6,-6,3,3,-7,-2,23,6,-5,-2,-2
0,-5,-4,3,2,-5,-2,23,6,-5,-2,-2
0,-5,-3,2,1,-4,-2,23,6,-5,-1,-1
0,-4,-3,2,1,-4,-2,23,7,-5,-1,-1
1,-3,-4,1,2,-4,-2,23,7,-5,-1,-1
3,-2,-5,0,4,-4,-2,22,8,-5,-1,-1
3,-1,-5,0,4,-3,-2,22,8,-4,0,0
3,-1,-3,0,3,-2,-2,22,9,-3,0,0
2,0,-2,0,2,-1,-3,22,10,-2,0,0
2,1,0,-1,2,0,-3,22,11,-1,1,1
2,2,1,-2,1,1,-3,23,12,0,2,1
2,2,1,-2,1,2,-3,23,13,1,3,2
2,3,2,-2,0,2,-3,24,15,2,3,2
2,4,3,-3,0,3,-3,24,16,3,4,3
2,5,4,-3,0,5,-3,24,17,4,5,4
3,6,4,-4,-1,6,-3,25,19,5,6,5
3,8,6,-5,-1,7,-3,26,21,6,7,6
3,10,8,-6,-2,9,-3,27,23,8,9,8
3,12,9,-7,-3,10,-3,29,26,10,10,9
4,13,10,-8,-3,11,-3,30,28,11,11,10
5,15,11,-10,-3,13,-2,31,29,12,12,10
6,17,12,-11,-3,15,-2,32,31,14,13,10
7,21,13,-13,-3,17,-1,33,34,15,14,11
7,23,15,-15,-4,19,-1,34,36,16,15,12
6,24,17,-15,-6,20,-2,34,37,18,16,13
5,25,19,-15,-7,21,-2,33,38,19,17,14
5,25,20,-15,-8,22,-3,32,39,20,17,14
3,25,22,-15,-9,22,-3,31,40,21,18,14
3,26,23,-14,-10,23,-3,29,41,21,18,14
2,27,24,-14,-11,25,-3,27,42,22,19,15
2,27,24,-14,-11,26,-4,26,42,22,20,15
3,28,24,-15,-10,26,-5,25,43,22,20,15
5,28,23,-16,-9,26,-7,24,43,22,19,15
5,28,23,-17,-8,26,-8,23,43,22,19,14
6,29,24,-17,-8,26,-8,23,44,22,19,14
6,30,24,-18,-8,26,-8,23,45,23,19,14
5,30,25,-18,-9,27,-8,24,46,23,19,15
5,30,24,-17,-9,27,-8,24,47,23,19,15
6,29,23,-17,-8,26,-8,24,47,23,18,15
6,28,22,-17,-8,25,-8,24,48,23,18,15
5,27,21,-16,-8,25,-8,24,48,24,19,14
5,25,20,-15,-8,23,-7,25,49,24,19,14
5,23,19,-14,-7,21,-7,25,49,23,19,13
5,21,18,-13,-7,19,-6,26,49,22,18,13
5,20,16,-12,-6,18,-6,25,49,21,17,12
5,20,15,-12,-5,17,-6,24,48,20,16,11
5,19,15,-12,-5,16,-5,23,48,20,16,10
4,19,15,-11,-5,16,-5,23,48,20,16,10
2,18,15,-10,-6,16,-4,22,47,20,16,10
0,17,16,-8,-7,16,-5,22,46,19,15,10
0,15,15,-8,-7,15,-5,21,45,18,14,9
0,14,14,-8,-7,14,-5,20,44,17,13,9
0,14,14,-7,-7,14,-4,21,43,17,13,8
0,14,15,-7,-7,14,-3,21,43,17,12,8
0,13,15,-6,-7,13,-2,21,43,17,12,7
-1,12,14,-5,-8,13,-1,21,42,16,11,6
-2,11,14,-4,-8,12,0,22,42,15,10,6
-2,10,12,-4,-7,11,0,22,41,15,10,5
-2,9,11,-4,-6,10,0,22,40,14,10,5
-1,9,10,-4,-5,9,0,22,40,14,10,4
-1,8,9,-4,-5,8,1,22,39,13,9,4
-1,7,9,-3,-5,7,1,21,37,12,8,3
-2,6,9,-2,-6,7,1,20,36,11,8,3
-3,6,9,-1,-6,7,1,20,35,10,7,3
-2,6,9,-2,-5,7,1,19,34,10,7,2
-2,7,9,-2,-5,8,2,19,34,10,7,2
-3,7,10,-2,-6,8,2,19,33,10,7,3
-4,7,11,-1,-8,8,3,19,32,9,6,3
-5,6,11,0,-8,8,3,18,31,9,5,2
-4,5,10,0,-7,6,3,17,29,8,4,1
-3,4,7,0,-5,4,2,16,27,6,2,0
-3,2,5,1,-4,3,2,16,25,5,1,-1
-3,1,4,1,-3,2,2,16,25,5,1,-2
-3,0,4,2,-3,1,2,16,24,4,1,-3
-3,0,4,2,-3,1,3,16,24,4,1,-3
-3,0,3,2,-3,0,3,15,24,3,1,-3
-2,0,2,2,-2,0,3,15,24,3,1,-3
-3,0,2,2,-2,0,4,15,23,3,1,-3
-5,-1,4,3,-4,1,5,15,23,3,1,-3
-7,-2,4,5,-6,0,5,15,22,3,1,-3
-8,-4,4,7,-6,0,6,15,21,3,0,-3
-9,-6,3,8,-7,-2,6,14,20,2,0,-3
-10,-8,3,9,-7,-3,6,14,19,1,-2,-4
-10,-9,2,10,-6,-4,5,13,18,0,-3,-4
-10,-9,1,10,-5,-5,5,12,17,-1,-4,-5
-10,-10,0,11,-5,-5,5,11,16,-2,-4,-5
-10,-9,0,11,-5,-5,4,10,15,-2,-5,-6
-10,-9,0,10,-5,-5,4,9,14,-3,-6,-7
-10,-9,0,10,-5,-5,4,9,14,-3,-7,-8
-10,-10,0,10,-5,-5,4,8,13,-4,-7,-8
-11,-10,0,10,-5,-5,4,8,13,-4,-8,-8
-11,-10,1,10,-6,-5,5,8,13,-4,-8,-8
-13,-10,2,11,-7,-5,6,8,12,-4,-8,-8
-15,-11,3,13,-9,-5,6,9,12,-4,-8,-8
-16,-12,3,14,-10,-5,7,9,12,-5,-8,-8
-16,-13,2,15,-10,-6,7,9,12,-5,-8,-8
-16,-14,2,15,-9,-6,8,9,12,-6,-8,-8
-15,-14,2,14,-8,-6,8,9,11,-6,-8,-8
-13,-14,0,14,-6,-8,8,9,11,-6,-9,-9
-11,-15,-3,13,-4,-9,8,9,11,-6,-9,-10
-9,-15,-6,12,-2,-11,8,8,10,-7,-10,-11
-7,-15,-8,11,0,-12,8,8,10,-7,-10,-12
-6,-14,-9,10,1,-12,8,7,10,-7,-10,-12
-6,-14,-8,10,1,-12,8,7,10,-7,-9,-11
-6,-14,-7,10,1,-11,8,7,10,-6,-9,-11
-6,-13,-7,9,1,-11,8,6,10,-6,-9,-11
-5,-12,-6,9,0,-10,8,6,10,-6,-9,-10
-5,-11,-6,8,0,-9,8,5,10,-6,-8,-10
-5,-10,-6,8,0,-9,8,5,10,-6,-8,-9
-5,-10,-5,8,0,-8,9,5,9,-6,-8,-9
-5,-9,-5,8,-1,-8,9,4,9,-6,-8,-9
-5,-9,-4,8,-1,-7,9,4,9,-6,-8,-9
-5,-9,-4,8,-1,-7,9,4,8,-6,-9,-9
-5,-10,-5,8,0,-9,8,3,8,-7,-10,-10
-6,-12,-6,9,0,-10,8,2,8,-8,-10,-10
-7,-13,-6,10,-1,-10,8,2,8,-7,-10,-10
-7,-12,-5,10,-1,-9,9,3,9,-7,-9,-10
-6,-10,-5,9,0,-9,9,2,8,-7,-9,-10
-5,-10,-5,8,0,-9,9,2,7,-7,-9,-11
-5,-10,-6,8,0,-9,8,1,7,-7,-10,-11
-5,-11,-6,9,0,-9,8,1,7,-8,-10,-11
-6,-12,-5,10,0,-9,8,1,7,-8,-10,-11
-8,-12,-4,11,-1,-9,8,1,7,-8,-10,-11
-8,-12,-4,10,-1,-9,8,0,7,-8,-11,-11
-7,-12,-5,10,-1,-10,8,0,6,-8,-11,-12
-8,-13,-5,10,-1,-10,8,0,6,-9,-11,-12
-9,-13,-5,11,-2,-10,8,0,6,-9,-11,-12
-9,-14,-5,12,-2,-10,7,-1,5,-9,-11,-12
-10,-14,-5,12,-2,-10,7,-1,5,-9,-11,-12
-10,-14,-5,12,-3,-10,7,-1,5,-9,-11,-12
-10,-14,-5,12,-3,-10,7,-1,5,-9,-11,-12
-10,-15,-5,13,-3,-10,7,-1,6,-9,-11,-12
-10,-15,-5,13,-3,-10,7,-1,6,-9,-11,-12
-9,-15,-5,13,-2,-10,7,-1,6,-9,-11,-12
-9,-15,-5,12,-2,-10,7,0,6,-9,-11,-12
-9,-15,-6,12,-2,-10,7,0,7,-9,-11,-12
-7,-14,-7,11,0,-11,7,0,7,-9,-11,-12
-6,-14,-8,10,0,-11,7,0,7,-9,-11,-12
-7,-13,-7,10,0,-10,7,0,7,-9,-11,-12
-7,-13,-7,10,0,-10,7,0,7,-8,-10,-12
-7,-13,-6,10,0,-9,7,0,8,-8,-10,-12
-8,-13,-5,11,-1,-9,8,2,9,-7,-11,-12
-10,-14,-4,13,-3,-9,9,4,11,-7,-11,-13
-12,-14,-2,14,-5,-9,11,8,14,-6,-11,-13
-12,-13,-1,13,-5,-8,12,12,19,-5,-11,-13
-10,-12,-1,12,-5,-7,13,17,24,-3,-10,-13
-9,-10,-1,10,-4,-6,14,20,30,0,-8,-13
-8,-9,-1,9,-3,-5,14,22,36,3,-6,-12
-7,-6,0,7,-3,-3,13,23,42,8,-2,-10
-5,-2,3,4,-4,0,12,24,46,15,4,-6
-3,1,3,1,-3,2,10,24,48,21,10,-2
0,2,2,-1,-1,2,5,23,49,27,16,1
3,5,1,-4,1,3,1,24,56,34,23,6
8,11,3,-9,2,7,-1,27,67,45,34,13
12,21,9,-16,1,15,-5,22,74,60,48,22
14,33,18,-24,-2,25,-9,6,66,77,64,35
17,46,29,-32,-6,37,-14,-20,41,92,81,48
19,60,40,-40,-10,50,-22,-55,3,105,98,62
23,76,52,-49,-14,63,-30,-93,-38,116,113,75
26,91,64,-58,-18,77,-36,-127,-78,122,124,87
29,101,71,-65,-21,86,-40,-153,-114,121,128,95
