leadI,leadII,leadIII,leadaVR,leadaVL,leadaVF,leadV1,leadV2,leadV3,leadV4,leadV5,leadV6
5,3,-1,-4,3,1,2,2,1,0,-1,1
12,9,-3,-11,8,2,5,7,2,1,-3,3
16,12,-5,-14,10,3,6,9,3,2,-5,4
19,13,-6,-16,12,4,8,11,4,2,-5,5
20,14,-6,-17,13,4,9,12,4,3,-5,5
20,14,-6,-17,13,4,11,14,5,3,-5,6
20,14,-6,-17,13,4,12,14,5,4,-4,6
20,14,-6,-17,13,4,12,15,5,4,-4,6
20,15,-5,-18,13,4,12,15,6,6,-3,7
20,15,-5,-18,13,5,11,16,7,7,-2,8
20,16,-4,-18,13,5,10,17,8,8,-1,9
21,16,-4,-19,13,6,10,17,9,9,0,10
23,18,-4,-20,14,7,10,18,10,10,0,11
25,21,-4,-23,15,8,12,19,12,12,2,12
26,23,-4,-24,15,9,14,20,13,13,4,13
26,23,-3,-25,15,10,14,21,14,14,5,14
26,23,-2,-25,15,10,13,22,15,15,6,15
26,23,-2,-24,14,10,13,22,16,16,6,16
26,24,-1,-24,14,10,14,22,18,18,7,17
25,24,0,-24,13,11,15,22,19,20,9,18
24,24,0,-24,12,12,15,22,20,22,10,19
22,24,2,-23,10,12,14,21,21,23,12,20
21,24,2,-22,9,13,14,21,22,25,14,21
21,24,3,-22,9,13,13,21,23,26,15,21
20,24,3,-21,9,13,12,21,24,27,15,22
20,24,3,-21,8,13,12,21,25,27,16,22
19,24,4,-21,8,14,11,21,26,28,16,23
19,24,4,-21,7,14,11,20,27,29,16,23
18,24,5,-21,6,15,11,20,27,30,17,23
19,25,6,-22,6,16,11,20,28,31,17,23
19,26,7,-22,6,16,11,20,29,32,18,24
20,27,7,-23,6,17,12,20,29,33,19,24
20,27,7,-23,6,17,12,20,30,33,19,25
20,27,7,-23,6,17,12,20,30,33,19,25
19,27,8,-23,5,18,11,19,30,33,19,25
19,28,8,-24,5,18,11,19,30,34,19,25
19,28,9,-24,5,18,11,18,30,34,19,24
19,28,9,-23,5,18,11,18,29,33,19,24
19,28,8,-23,6,18,10,17,29,33,18,23
19,28,8,-23,5,18,9,17,28,33,18,23
19,28,9,-23,5,18,9,16,28,32,17,23
19,28,10,-23,4,19,8,16,28,32,17,23
18,27,9,-22,4,18,8,15,28,32,17,23
16,25,9,-20,4,17,8,14,27,31,17,23
13,22,9,-17,3,16,8,12,25,30,16,21
9,18,9,-13,1,14,8,10,23,28,14,20
5,14,9,-9,0,11,7,9,21,27,13,18
2,11,9,-6,-2,10,6,7,19,25,11,16
2,11,9,-6,-2,10,6,7,18,24,10,16
2,11,9,-7,-2,10,6,6,18,23,10,16
2,11,8,-6,-2,9,6,6,17,23,10,16
1,9,8,-5,-3,9,6,5,17,22,9,15
1,10,8,-5,-3,9,5,5,16,22,8,15
3,12,9,-7,-2,11,5,5,16,22,9,16
3,13,9,-8,-2,11,5,5,16,21,9,16
2,12,10,-7,-3,11,4,4,15,21,8,15
1,11,10,-6,-3,11,4,4,14,20,8,14
0,10,10,-5,-4,10,3,3,13,19,7,14
-1,8,10,-4,-4,9,3,2,12,18,6,13
-2,6,10,-2,-5,8,2,1,11,17,5,12
-4,5,10,0,-6,7,1,0,11,16,4,11
-6,3,10,1,-8,6,1,0,10,15,4,10
-8,1,10,3,-8,5,1,0,10,15,4,10
-9,0,10,5,-9,5,1,0,9,14,4,10
-10,0,11,5,-11,6,1,-1,9,14,3,10
-12,1,13,5,-12,7,2,-1,8,13,3,10
-13,1,14,6,-13,8,2,-1,8,13,3,10
-13,1,15,6,-14,8,2,-1,8,12,3,10
-12,3,15,4,-13,9,2,-1,8,12,3,10
-10,5,15,2,-12,10,2,-1,8,11,3,10
-7,8,15,0,-11,11,3,-1,8,11,3,10
-6,9,15,-1,-10,11,4,-1,8,11,3,10
-6,8,14,-1,-10,11,5,-2,7,10,2,10
-6,7,14,0,-10,10,4,-2,7,9,2,9
-6,7,14,0,-10,10,4,-2,6,8,2,9
-7,6,14,1,-10,9,3,-3,6,8,2,9
-7,5,14,1,-10,9,1,-4,5,7,2,9
-8,6,14,1,-11,10,0,-6,4,6,1,9
-9,5,15,2,-12,10,-2,-9,2,4,0,8
-12,4,16,4,-13,10,-5,-12,0,3,0,7
-14,3,17,5,-15,10,-7,-14,-1,1,-1,7
-15,3,18,5,-16,11,-8,-15,-2,0,-1,7
-15,2,18,6,-16,10,-9,-15,-3,0,-2,7
-15,1,18,7,-16,10,-9,-16,-4,-1,-2,6
-16,1,18,8,-16,9,-9,-17,-6,-3,-3,6
-17,0,18,8,-17,9,-10,-17,-7,-4,-3,5
-17,-1,17,9,-17,8,-10,-18,-8,-6,-4,4
-18,-2,15,10,-17,6,-11,-18,-9,-7,-5,3
-18,-3,14,11,-16,5,-12,-19,-10,-8,-5,3
-18,-4,13,11,-16,5,-14,-19,-10,-9,-5,3
-19,-5,13,12,-16,4,-15,-20,-10,-9,-6,3
-19,-6,12,13,-15,3,-15,-20,-10,-9,-6,2
-18,-7,11,12,-14,2,-15,-20,-11,-9,-6,2
-17,-8,10,13,-13,1,-15,-20,-11,-10,-7,1
-17,-9,8,14,-12,0,-14,-20,-11,-10,-7,0
-17,-11,6,14,-11,-2,-14,-20,-11,-11,-7,0
-17,-12,5,15,-11,-3,-13,-19,-11,-11,-7,0
-18,-13,5,16,-11,-4,-13,-19,-11,-12,-8,-1
-18,-14,4,16,-11,-5,-12,-17,-11,-13,-9,-2
-18,-14,4,16,-11,-5,-10,-15,-10,-13,-9,-2
-18,-13,4,16,-11,-4,-9,-14,-9,-13,-8,-2
-17,-13,4,16,-10,-5,-8,-13,-8,-14,-8,-2
-18,-15,4,17,-11,-6,-7,-12,-8,-15,-8,-3
-21,-17,4,19,-12,-7,-8,-13,-9,-17,-9,-4
-25,-20,4,23,-14,-8,-8,-14,-11,-19,-10,-4
-27,-23,4,25,-15,-10,-9,-16,-12,-21,-11,-5
-28,-25,3,26,-15,-11,-9,-17,-13,-22,-12,-5
-29,-26,3,27,-16,-11,-10,-17,-14,-23,-13,-5
-29,-27,3,28,-15,-12,-10,-17,-15,-23,-14,-4
-28,-27,2,28,-15,-12,-9,-18,-15,-24,-14,-3
-29,-27,2,28,-15,-13,-9,-18,-15,-24,-14,-4
-29,-27,2,29,-16,-12,-9,-18,-15,-24,-14,-5
-30,-27,2,29,-16,-12,-9,-18,-15,-24,-14,-5
-30,-27,2,29,-15,-13,-9,-18,-16,-24,-14,-6
-29,-27,1,29,-15,-13,-9,-18,-16,-24,-14,-6
-29,-27,1,28,-14,-13,-9,-17,-16,-24,-14,-7
-28,-27,1,28,-14,-13,-9,-17,-16,-25,-14,-8
-27,-26,1,27,-13,-12,-9,-17,-16,-25,-14,-8
-26,-25,1,26,-13,-12,-9,-17,-16,-26,-14,-8
-27,-26,1,27,-13,-13,-9,-18,-16,-27,-14,-9
-27,-26,0,27,-13,-13,-8,-18,-16,-29,-14,-9
-28,-27,0,28,-13,-14,-8,-18,-16,-30,-14,-9
-29,-28,0,29,-14,-14,-9,-18,-16,-31,-14,-10
-29,-28,0,29,-14,-14,-9,-18,-17,-32,-15,-11
-28,-28,0,28,-14,-14,-9,-18,-17,-32,-15,-12
-27,-29,-1,28,-13,-15,-9,-18,-17,-32,-15,-12
-27,-29,-2,28,-13,-15,-9,-18,-16,-32,-15,-12
-28,-29,-2,29,-13,-15,-9,-17,-16,-32,-15,-12
-28,-29,-2,29,-13,-15,-8,-17,-15,-32,-15,-12
-27,-28,-1,28,-12,-15,-8,-15,-14,-31,-14,-12
-27,-27,0,27,-12,-14,-7,-14,-12,-30,-13,-12
-27,-27,0,27,-13,-13,-6,-12,-10,-29,-12,-12
-28,-27,1,28,-14,-13,-7,-11,-8,-27,-11,-12
-27,-27,1,28,-14,-13,-8,-11,-5,-24,-10,-12
-27,-28,0,28,-14,-14,-9,-10,-2,-21,-8,-11
-26,-28,-1,27,-12,-15,-8,-8,1,-17,-6,-10
-23,-27,-4,25,-9,-16,-6,-5,7,-11,-1,-7
-19,-26,-7,23,-6,-17,-5,-2,14,-2,4,-3
-16,-25,-10,21,-3,-18,-5,1,23,7,11,1
-13,-24,-11,19,0,-18,-6,5,33,18,18,5
-10,-22,-12,16,1,-17,-7,7,44,30,27,11
-4,-16,-12,10,4,-14,-11,7,56,45,38,19
2,-7,-9,2,5,-8,-17,2,67,62,51,30
8,5,-3,-6,5,0,-25,-6,76,79,65,43
13,18,5,-15,4,11,-33,-19,82,94,79,56
17,31,13,-24,2,22,-41,-34,86,108,91,67
20,42,21,-30,0,31,-48,-49,90,120,101,77
19,48,29,-33,-4,38,-56,-64,92,130,109,84
14,51,37,-32,-11,44,-64,-81,91,137,115,89
8,52,45,-30,-17,48,-72,-97,85,136,116,90
0,48,49,-24,-24,48,-78,-112,70,122,107,86
-9,41,50,-16,-30,45,-83,-125,46,99,91,78
-16,34,49,-9,-32,41,-88,-136,18,71,72,70
-22,24,46,-1,-33,35,-92,-144,-11,42,52,58
-29,10,39,10,-33,24,-92,-148,-39,11,29,44
-36,-9,28,23,-32,9,-88,-144,-64,-18,5,29
-43,-27,17,36,-30,-6,-81,-135,-81,-45,-18,14
-47,-42,6,45,-26,-19,-72,-122,-91,-65,-36,4
-48,-53,-4,51,-22,-29,-62,-106,-92,-75,-47,-3
-47,-58,-11,52,-18,-35,-53,-88,-86,-76,-51,-10
-43,-57,-15,50,-14,-36,-43,-71,-77,-72,-50,-15
-37,-53,-17,45,-9,-35,-33,-54,-66,-66,-46,-21
-32,-50,-19,41,-6,-34,-25,-40,-56,-59,-42,-26
-29,-49,-19,40,-4,-33,-18,-29,-48,-54,-38,-29
-28,-49,-20,39,-4,-33,-14,-21,-41,-50,-35,-30
-27,-48,-20,38,-4,-33,-11,-15,-36,-46,-33,-31
-27,-47,-19,37,-4,-33,-10,-11,-33,-43,-31,-31
-28,-47,-18,38,-5,-32,-9,-10,-31,-42,-30,-30
-31,-47,-16,39,-7,-32,-8,-10,-30,-41,-29,-30
-33,-47,-15,40,-9,-31,-8,-10,-29,-40,-29,-30
-35,-47,-13,41,-10,-30,-8,-11,-29,-40,-29,-32
-36,-47,-12,41,-11,-29,-8,-12,-29,-39,-29,-37
-35,-46,-11,41,-11,-28,-8,-13,-29,-39,-28,-43
-35,-45,-10,40,-12,-27,-8,-14,-28,-38,-28,-50
-35,-44,-9,39,-12,-26,-8,-15,-28,-38,-28,-55
-35,-43,-8,39,-13,-26,-8,-16,-28,-38,-28,-57
-35,-42,-8,39,-13,-25,-9,-16,-28,-37,-28,-59
-35,-42,-7,38,-13,-25,-9,-16,-28,-36,-27,-55
-34,-41,-7,38,-13,-24,-10,-17,-28,-36,-27,-47
-33,-39,-6,36,-13,-23,-10,-17,-28,-36,-26,-39
-31,-38,-6,35,-12,-22,-10,-18,-28,-36,-26,-35
-30,-37,-6,34,-12,-21,-9,-18,-27,-36,-26,-35
-29,-36,-6,33,-12,-21,-8,-18,-27,-36,-26,-36
-29,-36,-6,33,-12,-21,-8,-18,-27,-35,-25,-36
-30,-36,-6,33,-12,-21,-8,-18,-27,-35,-25,-39
-30,-36,-6,33,-12,-21,-8,-18,-27,-35,-25,-44
-30,-35,-5,33,-12,-21,-9,-18,-27,-35,-25,-46
-30,-35,-5,33,-12,-20,-9,-18,-27,-35,-25,-43
-29,-34,-5,32,-12,-20,-8,-18,-27,-34,-25,-39
-27,-33,-5,30,-11,-19,-8,-17,-26,-34,-24,-35
-25,-31,-5,28,-10,-18,-8,-17,-26,-33,-23,-33
-23,-30,-5,27,-8,-18,-8,-17,-25,-33,-23,-34
-23,-30,-6,27,-7,-19,-8,-17,-25,-33,-23,-34
-24,-32,-7,28,-8,-20,-9,-17,-26,-34,-24,-35
-27,-35,-7,32,-9,-21,-9,-17,-27,-34,-24,-37
-30,-38,-7,35,-11,-23,-10,-17,-27,-35,-25,-39
-31,-40,-7,36,-12,-24,-10,-17,-28,-36,-25,-39
-32,-41,-8,37,-12,-24,-10,-18,-28,-36,-26,-39
-32,-41,-8,37,-12,-25,-11,-18,-28,-37,-26,-39
-32,-41,-8,37,-12,-25,-11,-18,-28,-37,-27,-38
-31,-40,-9,36,-11,-25,-11,-17,-28,-37,-27,-38
-29,-40,-10,35,-9,-25,-10,-16,-28,-37,-27,-38
-28,-39,-11,34,-8,-25,-9,-16,-28,-37,-26,-39
-26,-37,-11,32,-7,-24,-9,-15,-27,-36,-26,-39
-24,-36,-11,31,-6,-23,-8,-15,-27,-36,-25,-38
-24,-35,-11,30,-6,-23,-7,-14,-27,-36,-25,-38
-24,-35,-11,30,-6,-23,-7,-14,-26,-36,-25,-39
-24,-36,-11,31,-7,-23,-8,-13,-26,-36,-25,-39
-25,-36,-10,31,-7,-23,-8,-13,-26,-36,-26,-40
-25,-36,-10,31,-7,-23,-8,-13,-26,-36,-26,-40
-24,-35,-11,30,-6,-23,-7,-13,-25,-35,-26,-40
-22,-34,-11,28,-5,-23,-7,-12,-24,-35,-26,-40
-22,-34,-12,28,-4,-23,-7,-11,-24,-34,-26,-40
-23,-36,-12,29,-5,-24,-8,-11,-24,-35,-26,-41
-24,-37,-12,31,-5,-25,-8,-11,-24,-35,-27,-41
-23,-37,-13,31,-5,-25,-7,-11,-23,-35,-27,-41
-22,-36,-13,30,-4,-25,-5,-10,-23,-35,-26,-41
-20,-35,-14,28,-3,-25,-5,-9,-22,-35,-26,-41
-19,-34,-15,27,-2,-25,-4,-8,-22,-34,-25,-40
-18,-34,-16,26,0,-25,-4,-6,-21,-34,-25,-39
-17,-34,-17,26,0,-26,-4,-5,-20,-33,-24,-39
-16,-34,-18,26,1,-26,-3,-4,-19,-32,-24,-38
-15,-33,-17,25,1,-25,-3,-3,-18,-31,-23,-38
-15,-32,-17,25,0,-24,-3,-2,-17,-31,-22,-38
-16,-32,-16,25,0,-24,-3,-2,-17,-31,-22,-38
-14,-30,-16,23,1,-23,-3,-1,-17,-30,-21,-37
-12,-28,-16,20,2,-22,-1,0,-16,-29,-20,-36
-11,-27,-16,19,3,-22,-1,1,-15,-29,-20,-35
-12,-28,-16,20,2,-22,-1,1,-16,-29,-20,-35
-15,-30,-15,23,0,-22,-2,0,-17,-30,-21,-36
-18,-32,-14,26,-2,-23,-3,0,-17,-30,-21,-36
-20,-34,-14,28,-3,-24,-4,0,-18,-31,-22,-37
-21,-36,-15,29,-3,-25,-5,0,-18,-32,-22,-37
-22,-37,-15,30,-4,-25,-5,0,-19,-32,-23,-37
-24,-38,-14,31,-5,-26,-6,0,-19,-32,-23,-37
-24,-38,-13,31,-5,-25,-6,0,-18,-31,-23,-36
-23,-36,-13,29,-5,-24,-5,1,-17,-30,-22,-35
-21,-35,-13,28,-4,-24,-4,2,-17,-30,-21,-33
-21,-34,-13,28,-4,-23,-4,3,-17,-29,-21,-32
-19,-33,-13,26,-3,-22,-3,4,-16,-29,-20,-31
-17,-30,-13,24,-1,-21,-2,5,-15,-27,-19,-30
-14,-27,-13,21,0,-20,-1,6,-13,-26,-18,-28
-12,-26,-14,19,1,-20,-1,6,-12,-25,-17,-27
-12,-26,-14,19,1,-20,-2,7,-12,-24,-17,-26
-13,-27,-13,20,0,-20,-2,7,-12,-24,-17,-26
-14,-27,-12,21,0,-20,-2,7,-12,-24,-17,-25
-16,-28,-11,22,-2,-19,-2,7,-11,-23,-16,-25
-18,-29,-11,24,-3,-19,-2,7,-11,-23,-16,-24
-19,-29,-10,25,-5,-19,-1,7,-10,-22,-16,-24
-20,-29,-9,25,-6,-19,-1,7,-10,-21,-15,-23
-21,-29,-9,26,-6,-19,0,7,-10,-21,-15,-23
-22,-29,-8,26,-7,-19,0,8,-9,-20,-15,-22
-22,-29,-7,26,-7,-19,0,9,-8,-19,-14,-21
-19,-27,-7,24,-6,-17,0,10,-6,-17,-13,-20
-16,-23,-7,20,-5,-15,1,12,-4,-15,-11,-18
-12,-19,-7,16,-3,-13,2,15,-1,-13,-8,-15
-9,-16,-7,12,-1,-11,3,16,0,-11,-6,-13
-7,-14,-7,10,0,-10,3,17,1,-9,-5,-12
-6,-12,-7,9,0,-10,3,18,3,-8,-4,-10
-5,-11,-6,9,0,-9,4,18,4,-6,-3,-9
-5,-11,-6,9,0,-9,4,18,5,-5,-1,-8
-6,-12,-6,10,0,-9,4,18,6,-3,0,-8
-7,-12,-4,10,-2,-8,4,18,7,-2,0,-7
-8,-11,-3,10,-2,-7,3,18,8,-1,1,-6
-8,-11,-2,9,-3,-6,2,17,9,1,3,-5
-8,-11,-2,10,-3,-6,2,17,10,2,4,-4
-10,-11,-1,11,-4,-6,1,16,10,3,4,-3
-12,-12,0,12,-6,-6,1,15,10,4,5,-3
-14,-12,1,14,-7,-6,0,14,11,5,5,-2
-15,-13,1,14,-8,-6,0,14,11,6,6,-2
-14,-12,2,14,-8,-6,0,14,12,7,7,-1
-14,-12,2,13,-8,-5,0,13,13,8,8,-1
-14,-12,3,13,-8,-5,-1,13,14,9,9,0
-14,-11,3,13,-8,-4,-1,13,14,10,10,0
-13,-10,3,11,-8,-3,-1,13,15,11,10,1
-11,-8,3,10,-7,-2,-2,12,15,12,11,2
-9,-7,2,8,-6,-2,-2,12,15,12,11,2
-7,-6,2,7,-5,-1,-1,11,15,12,11,2
-6,-5,1,6,-4,-2,0,11,15,12,11,2
-6,-5,1,6,-3,-2,0,11,15,13,11,2
-6,-6,1,6,-3,-2,0,10,15,13,11,2
-6,-5,1,6,-4,-2,0,10,15,13,11,2
-7,-5,1,6,-4,-2,0,9,15,12,10,2
-8,-6,1,7,-4,-2,0,8,14,12,10,1
-9,-7,1,9,-5,-2,-1,7,13,11,9,1
-11,-8,2,10,-7,-3,-1,6,12,10,8,1
-13,-10,2,12,-8,-3,-2,5,11,10,8,0
-14,-11,3,13,-9,-3,-4,4,10,9,7,0
-15,-11,3,13,-9,-4,-5,4,10,9,7,-1
-15,-12,3,13,-9,-4,-6,3,9,8,6,-1
-15,-12,2,14,-9,-5,-7,3,8,7,5,-2
-15,-13,2,14,-9,-5,-7,2,7,6,4,-2
-16,-14,1,15,-9,-6,-6,1,6,5,4,-3
-15,-14,1,15,-8,-6,-6,0,6,5,3,-3
-15,-14,0,15,-8,-6,-6,0,5,4,3,-3
-14,-14,0,14,-7,-6,-6,0,5,4,3,-3
-14,-14,0,14,-7,-7,-6,-1,5,4,3,-3
-14,-15,-1,14,-7,-7,-6,-1,5,3,2,-3
-14,-14,-1,14,-6,-7,-6,-1,4,3,2,-3
-13,-14,-1,13,-6,-7,-6,-2,3,3,1,-3
-13,-14,-1,13,-6,-7,-6,-2,2,2,1,-4
-12,-13,-1,12,-6,-7,-6,-2,2,2,1,-4
-11,-11,0,11,-5,-6,-6,-2,2,2,1,-4
-12,-10,0,11,-6,-5,-6,-2,2,2,1,-4
-11,-8,1,10,-6,-3,-6,-2,2,2,1,-3
-9,-5,2,7,-5,-1,-5,-1,3,3,2,-2
-7,-2,3,5,-5,0,-4,0,4,4,3,-1
-4,0,3,2,-4,2,-3,0,4,4,3,0
-1,4,4,-1,-3,4,-2,0,5,5,4,1
0,6,5,-3,-3,6,-1,0,5,5,4,2
0,7,6,-3,-3,7,0,0,5,5,4,2
1,7,6,-4,-2,7,0,0,5,5,4,2
1,7,6,-4,-2,7,0,0,4,5,4,2
0,6,6,-3,-2,6,-1,0,4,5,4,1
-2,3,6,0,-3,5,-2,-1,2,4,3,0
-4,1,6,1,-4,3,-2,-2,1,3,2,0
-3,1,5,1,-4,3,-1,-2,1,2,1,0
-1,3,5,0,-3,4,0,-2,1,2,1,0
-1,4,5,-1,-3,5,-1,-2,1,2,1,0
-1,4,6,-1,-4,5,-2,-3,0,2,1,0
-2,6,7,-1,-5,7,-3,-4,0,2,1,0
-1,8,9,-3,-5,9,-4,-5,0,2,2,0
0,9,9,-4,-4,10,-5,-7,-1,2,2,1
0,9,9,-5,-4,10,-6,-8,-2,1,1,1
0,10,9,-5,-4,10,-8,-9,-4,1,1,1
0,9,10,-4,-5,10,-10,-11,-5,0,0,0
-1,9,10,-4,-5,9,-11,-12,-6,-1,0,0
-1,8,9,-4,-5,9,-11,-12,-6,-2,0,0
0,8,9,-4,-4,9,-11,-12,-7,-2,-1,-1
1,8,8,-4,-3,8,-10,-12,-7,-3,-1,-1
2,9,7,-5,-2,8,-9,-12,-7,-3,-1,0
3,10,7,-6,-2,8,-8,-12,-6,-2,0,0
4,10,7,-7,-1,8,-8,-12,-6,-2,0,1
3,9,6,-6,-1,8,-9,-12,-6,-2,0,1
1,7,6,-4,-2,6,-10,-13,-7,-2,0,1
0,4,5,-2,-2,5,-11,-13,-7,-2,0,0
-1,1,3,0,-2,3,-12,-13,-8,-2,0,0
-4,-2,2,3,-3,0,-13,-14,-9,-3,-1,-1
-7,-7,1,7,-4,-2,-13,-15,-10,-5,-3,-3
-9,-10,0,10,-4,-4,-11,-15,-11,-6,-4,-4
-10,-11,0,10,-4,-5,-9,-14,-11,-6,-4,-4
-10,-11,0,11,-4,-6,-8,-13,-10,-6,-4,-4
-10,-10,0,11,-4,-5,-6,-11,-9,-6,-4,-4
-10,-10,0,10,-4,-5,-4,-10,-8,-5,-4,-4
-9,-9,0,9,-4,-4,-4,-9,-8,-5,-4,-4
-8,-8,0,8,-4,-3,-4,-9,-8,-5,-4,-5
-7,-7,0,7,-4,-3,-5,-9,-8,-5,-4,-5
-7,-8,0,8,-4,-3,-4,-9,-8,-5,-4,-5
-7,-8,0,8,-4,-3,-3,-9,-8,-6,-5,-6
-7,-9,-1,8,-3,-4,-3,-9,-9,-7,-5,-6
-7,-10,-3,9,-3,-6,-4,-10,-10,-8,-6,-7
-8,-12,-4,10,-3,-7,-5,-11,-11,-9,-7,-8
-9,-14,-4,12,-3,-9,-5,-12,-12,-10,-8,-9
-10,-16,-4,13,-3,-10,-6,-12,-13,-10,-9,-9
-10,-16,-4,13,-3,-10,-6,-12,-13,-10,-9,-9
-9,-15,-4,13,-2,-10,-6,-12,-12,-10,-9,-9
-8,-14,-5,12,-2,-10,-6,-11,-12,-10,-9,-9
-7,-13,-5,10,-1,-10,-6,-11,-12,-10,-9,-9
-6,-12,-5,9,-1,-9,-6,-11,-12,-10,-9,-9
-7,-13,-6,10,-1,-10,-5,-11,-12,-10,-9,-9
-7,-14,-6,11,-1,-10,-5,-11,-13,-11,-10,-10
-8,-15,-7,11,-1,-11,-5,-11,-13,-11,-10,-10
-9,-16,-7,13,-1,-11,-5,-11,-13,-11,-10,-10
-10,-17,-7,14,-2,-11,-5,-11,-13,-11,-10,-10
-12,-18,-6,15,-3,-12,-6,-12,-14,-11,-10,-10
-13,-19,-7,16,-4,-13,-7,-12,-14,-12,-11,-11
-13,-20,-7,17,-4,-14,-7,-12,-14,-12,-12,-11
-14,-20,-7,17,-3,-14,-8,-12,-14,-12,-12,-11
-13,-20,-7,16,-3,-14,-7,-11,-14,-12,-12,-11
-12,-19,-7,16,-2,-13,-7,-11,-13,-11,-12,-11
-11,-19,-7,16,-2,-13,-7,-11,-13,-11,-12,-11
-11,-19,-7,16,-2,-13,-7,-11,-12,-11,-12,-11
-11,-19,-7,16,-2,-13,-7,-10,-12,-11,-12,-11
-12,-19,-7,16,-3,-13,-6,-9,-11,-10,-12,-11
-13,-19,-6,16,-4,-13,-4,-8,-9,-9,-11,-11
-14,-19,-6,17,-4,-13,-4,-8,-7,-8,-11,-11
-14,-20,-7,17,-3,-13,-4,-7,-4,-6,-10,-10
-13,-21,-8,17,-3,-15,-4,-6,-1,-3,-9,-10
-12,-21,-10,16,-1,-16,-3,-4,2,0,-7,-9
-9,-21,-13,15,1,-17,-3,-2,8,6,-3,-7
-4,-19,-15,12,5,-17,-4,1,15,13,2,-3
0,-17,-17,8,9,-16,-4,6,25,23,10,1
6,-14,-20,3,13,-16,-5,12,37,35,18,6
11,-9,-21,-1,16,-15,-7,15,49,47,27,12
18,-2,-21,-9,20,-12,-11,14,61,62,39,20
27,9,-19,-18,23,-5,-16,10,72,80,53,32
35,22,-13,-29,24,4,-23,2,83,98,69,45
41,35,-6,-38,23,14,-30,-10,90,114,83,57
44,46,2,-45,21,24,-38,-24,94,127,96,68
43,54,10,-49,17,32,-47,-39,98,138,106,76
40,59,18,-50,11,39,-56,-56,101,147,114,83
35,62,27,-49,4,44,-65,-74,99,153,119,88
28,62,34,-45,-3,48,-73,-91,91,150,118,89
20,58,38,-39,-9,48,-78,-106,75,135,109,85
12,53,40,-32,-14,47,-82,-120,50,111,93,76
6,45,39,-25,-17,43,-86,-132,20,83,75,64
0,35,35,-17,-17,36,-89,-140,-10,54,55,51
-4,22,27,-8,-15,25,-89,-142,-38,24,33,36
-10,6,17,2,-13,12,-84,-136,-61,-4,9,17
-16,-9,7,13,-12,-1,-76,-126,-77,-30,-13,-2
-21,-23,-1,22,-10,-13,-67,-114,-86,-48,-31,-17
-25,-33,-8,29,-8,-22,-57,-99,-87,-57,-42,-27
-25,-38,-14,31,-5,-27,-46,-82,-81,-58,-45,-32
-23,-40,-18,31,-2,-29,-37,-65,-72,-55,-45,-33
-21,-39,-20,30,0,-30,-28,-49,-63,-50,-42,-32
-17,-37,-20,27,2,-29,-19,-35,-53,-45,-38,-30
-13,-34,-21,24,5,-28,-12,-23,-45,-39,-34,-28
-9,-31,-22,20,7,-27,-7,-14,-37,-34,-31,-26
-5,-28,-22,16,8,-25,-3,-8,-32,-30,-28,-24
-4,-25,-21,14,8,-24,-1,-4,-28,-28,-26,-22
-4,-24,-20,14,7,-23,0,-2,-25,-26,-25,-21
-3,-22,-19,13,7,-21,0,-1,-23,-25,-23,-19
-2,-19,-18,11,8,-18,1,0,-22,-23,-22,-18
-1,-17,-17,10,8,-17,2,0,-21,-22,-21,-17
-3,-18,-15,11,6,-17,1,-2,-21,-22,-20,-17
-6,-20,-14,13,4,-17,0,-3,-21,-22,-20,-17
-7,-20,-13,14,2,-17,0,-5,-21,-22,-20,-17
-8,-21,-12,14,1,-17,0,-6,-22,-22,-21,-17
-9,-21,-11,15,0,-16,0,-7,-22,-22,-21,-17
-10,-20,-10,15,0,-15,0,-8,-22,-22,-21,-17
-11,-20,-9,15,0,-14,0,-8,-22,-22,-21,-17
-10,-19,-9,15,0,-14,0,-8,-22,-22,-21,-17
-11,-20,-9,15,-1,-14,0,-8,-22,-22,-21,-17
-12,-20,-8,16,-2,-14,-1,-9,-22,-22,-21,-17
-12,-19,-8,16,-2,-14,-1,-9,-22,-22,-21,-17
-11,-18,-7,14,-2,-13,-1,-9,-21,-22,-21,-17
-11,-17,-7,14,-3,-13,-1,-9,-21,-22,-21,-17
-12,-19,-7,15,-3,-13,-1,-9,-21,-22,-21,-17
-14,-20,-7,17,-4,-14,-1,-10,-21,-23,-22,-18
-15,-21,-6,18,-4,-14,-1,-10,-22,-23,-22,-18
-15,-21,-6,18,-4,-13,-1,-10,-22,-23,-22,-18
-14,-21,-6,17,-3,-13,-1,-10,-22,-23,-22,-18
-13,-21,-7,17,-3,-14,-1,-10,-22,-23,-22,-18
-12,-21,-8,17,-2,-15,-1,-10,-22,-23,-22,-18
-10,-19,-8,15,-1,-14,-1,-10,-22,-23,-22,-17
-7,-17,-9,12,0,-13,0,-9,-21,-22,-22,-17
-6,-15,-9,10,1,-12,0,-8,-21,-22,-21,-16
-5,-14,-9,9,1,-12,1,-7,-20,-21,-20,-16
-4,-14,-9,9,2,-11,1,-7,-20,-21,-19,-16
-4,-14,-9,9,2,-11,1,-6,-19,-20,-19,-15
-3,-13,-9,8,3,-11,1,-6,-19,-20,-19,-15
-3,-13,-9,8,3,-11,1,-6,-19,-20,-19,-15
-3,-14,-9,8,3,-12,1,-6,-19,-21,-20,-15
-5,-15,-10,10,2,-13,0,-6,-20,-22,-20,-15
-8,-19,-11,13,1,-15,0,-6,-20,-22,-21,-16
-12,-23,-11,18,0,-18,0,-7,-21,-23,-22,-17
-16,-27,-11,21,-2,-20,-1,-8,-22,-24,-23,-18
-17,-29,-12,23,-2,-20,-2,-8,-23,-25,-24,-19
-16,-28,-12,22,-2,-20,-2,-8,-23,-25,-24,-20
-15,-27,-11,21,-2,-19,-2,-7,-22,-24,-24,-20
-13,-25,-10,19,-2,-18,-2,-7,-21,-24,-23,-19
-12,-22,-10,17,-1,-17,-1,-6,-20,-24,-23,-19
-10,-21,-10,15,0,-16,0,-4,-19,-23,-22,-19
-10,-20,-10,15,0,-16,1,-3,-18,-23,-22,-18
-10,-20,-10,15,0,-16,2,-2,-17,-22,-21,-18
-10,-20,-10,15,0,-15,2,-1,-17,-22,-21,-18
-10,-20,-10,15,0,-15,2,0,-17,-22,-22,-18
-10,-21,-10,16,0,-15,0,0,-17,-23,-22,-18
-12,-23,-10,17,-1,-16,-1,0,-17,-23,-23,-19
-13,-24,-10,18,-1,-17,-1,0,-17,-24,-23,-19
-13,-24,-11,18,-1,-18,0,0,-17,-24,-23,-19
-12,-24,-11,18,0,-18,1,0,-17,-24,-23,-19
-13,-24,-11,18,0,-18,2,1,-17,-24,-23,-20
-13,-24,-11,19,-1,-18,2,2,-16,-24,-23,-20
-12,-23,-11,18,0,-17,3,3,-15,-23,-23,-19
-11,-22,-12,17,0,-17,3,4,-14,-23,-22,-19
-9,-21,-12,15,1,-17,4,5,-14,-23,-22,-18
-8,-21,-13,15,2,-17,4,5,-14,-23,-22,-18
-9,-22,-13,16,1,-18,4,6,-14,-23,-22,-19
-10,-23,-13,17,1,-19,3,6,-15,-24,-22,-19
-10,-23,-13,16,1,-18,3,6,-14,-24,-22,-19
-9,-22,-13,16,1,-18,3,7,-14,-23,-21,-19
-9,-22,-13,16,2,-17,3,7,-14,-23,-21,-18
-9,-21,-13,15,2,-17,3,8,-13,-23,-21,-18
-9,-21,-12,16,1,-17,2,8,-13,-23,-21,-18
-11,-23,-12,17,0,-17,2,8,-13,-22,-21,-17
-12,-24,-12,18,0,-17,3,9,-12,-22,-20,-17
-11,-23,-11,17,0,-16,4,10,-11,-21,-19,-16
-10,-21,-10,15,0,-15,5,11,-10,-20,-18,-15
-9,-18,-10,13,0,-14,6,12,-10,-20,-18,-15
-6,-16,-10,11,1,-13,6,13,-9,-19,-17,-14
-4,-14,-10,9,2,-13,7,14,-9,-19,-17,-14
-3,-12,-10,8,3,-12,7,15,-8,-18,-16,-13
-2,-11,-9,6,3,-11,8,16,-7,-17,-15,-12
-1,-9,-8,5,3,-10,9,17,-6,-16,-14,-11
0,-8,-8,4,3,-9,9,18,-5,-14,-13,-10
1,-6,-7,3,3,-7,10,19,-4,-13,-11,-9
2,-4,-7,1,3,-5,10,21,-3,-12,-10,-8
3,-2,-6,0,4,-4,10,22,-2,-11,-9,-7
4,-1,-6,-1,4,-4,9,22,-1,-10,-8,-6
3,-2,-5,0,3,-4,10,22,0,-10,-8,-6
0,-5,-4,3,1,-4,10,21,0,-10,-8,-6
-3,-7,-3,5,0,-5,10,21,0,-9,-8,-6
-5,-9,-3,7,-1,-5,10,22,0,-9,-7,-6
-7,-10,-3,9,-2,-6,10,22,1,-8,-7,-5
-8,-10,-2,9,-3,-6,10,23,1,-7,-6,-5
-8,-10,-2,9,-4,-6,10,23,2,-6,-5,-4
-8,-9,-2,8,-4,-6,11,25,3,-5,-4,-3
-7,-8,-1,8,-4,-5,11,26,5,-3,-3,-2
-7,-7,0,7,-4,-4,11,27,6,-2,-1,-1
-6,-6,0,6,-3,-3,11,28,8,0,0,0
-5,-4,0,4,-3,-1,12,29,9,1,1,1
-3,-2,1,2,-2,0,12,30,11,3,2,3
-2,0,1,1,-2,1,13,30,12,5,4,5
-1,1,1,0,-2,2,13,31,14,7,6,6
-1,2,3,-1,-2,3,13,31,15,8,8,8
0,3,4,-1,-2,3,13,31,16,10,9,9
0,4,4,-2,-2,4,13,31,17,12,11,10
0,4,5,-2,-2,4,12,31,18,13,12,11
0,5,5,-3,-2,5,12,31,20,15,13,12
0,5,6,-3,-2,6,11,31,21,16,14,13
0,6,6,-3,-3,6,11,30,22,17,15,14
-2,6,7,-2,-5,6,10,29,22,18,16,14
-3,5,8,-1,-6,6,10,28,22,19,16,14
-2,5,8,-2,-6,6,9,28,23,19,16,14
-1,7,8,-3,-5,7,9,28,24,20,17,15
0,8,8,-4,-4,8,9,28,25,21,18,15
0,8,9,-4,-5,8,9,27,25,22,18,15
-1,7,9,-3,-6,8,8,27,25,22,18,15
-3,7,10,-2,-7,9,8,26,25,22,18,15
-3,7,10,-2,-7,9,9,25,25,22,18,15
-3,8,10,-2,-7,9,10,25,25,22,18,15
-3,8,10,-2,-7,9,11,24,25,22,18,15
-4,7,10,-1,-8,8,10,24,24,22,17,15
-6,4,10,0,-8,7,9,23,23,21,17,14
-8,1,10,3,-9,6,8,21,21,20,16,13
-9,0,9,5,-9,5,7,19,20,19,15,13
-10,-1,9,5,-9,4,6,18,20,18,14,12
-10,-2,8,5,-9,3,6,17,19,18,13,11
-10,-2,8,6,-10,3,5,16,18,17,13,10
-11,-3,8,6,-10,2,5,16,18,17,12,10
-11,-3,8,7,-11,2,5,15,17,16,12,10
-11,-2,8,7,-10,3,5,15,17,16,12,10
-10,-2,8,6,-10,3,5,15,16,16,12,10
-10,-1,8,6,-9,4,5,14,16,16,12,10
-9,0,9,5,-9,4,6,14,16,16,12,10
-7,1,9,3,-8,5,6,13,16,16,12,10
-6,2,8,2,-7,5,6,13,16,15,12,10
-6,2,8,2,-7,5,6,13,15,15,12,10
-5,3,8,1,-7,5,7,13,15,15,12,10
-5,3,8,1,-7,5,6,13,14,14,12,10
-6,2,8,2,-7,4,5,12,13,14,11,9
-7,0,8,4,-8,4,5,11,12,13,10,9
-8,0,8,5,-8,3,4,10,11,12,10,8
-8,-1,7,5,-8,3,4,10,11,12,9,8
-7,0,7,4,-7,3,4,9,11,12,9,8
-6,2,7,1,-7,4,4,9,11,12,10,8
-4,5,9,0,-7,6,5,10,12,12,10,9
-4,6,10,-1,-7,8,6,10,12,13,11,9
-5,7,11,-1,-8,9,7,10,12,13,11,9
-5,7,12,-1,-9,10,7,10,11,13,11,9
-5,8,13,-2,-9,11,8,10,11,13,11,10
-6,8,14,-1,-10,11,8,10,11,13,11,10
-7,8,15,0,-11,11,8,10,11,12,11,9
-7,9,15,-1,-11,12,8,9,10,12,11,9
-6,10,15,-2,-11,13,8,9,10,12,11,10
-6,10,15,-2,-11,13,8,9,10,11,10,10
-7,9,15,-1,-11,12,8,9,9,11,10,10
-7,8,15,0,-11,12,8,9,9,11,10,10
-7,8,16,0,-11,12,9,9,9,11,10,10
-7,8,16,0,-11,12,9,9,9,10,10,10
-8,8,16,0,-12,12,9,8,9,10,9,9
-8,8,16,0,-12,12,7,7,9,9,9,9
-8,8,16,0,-12,12,5,6,8,9,8,9
-8,9,17,0,-13,13,4,5,7,8,8,8
-9,8,17,1,-13,13,3,2,6,8,7,8
-10,8,18,1,-14,13,2,0,4,7,7,8
-10,9,18,1,-14,13,1,-1,2,7,7,8
-10,9,18,0,-14,14,0,-2,1,6,7,8
-10,9,19,0,-14,14,0,-3,1,5,7,8
-11,8,19,1,-15,14,-1,-4,0,4,6,8
-12,8,19,2,-16,13,-1,-4,-1,3,5,7
-12,7,18,3,-15,12,-2,-4,-1,3,5,7
-12,5,16,3,-14,10,-2,-5,-2,2,4,6
-12,3,15,4,-14,9,-3,-5,-3,1,4,5
-11,3,14,4,-13,8,-4,-6,-3,1,3,5
-8,5,14,1,-11,9,-5,-5,-3,1,4,6
-5,7,13,-1,-10,10,-5,-4,-2,2,5,7
-4,8,12,-1,-9,10,-4,-4,-2,2,5,7
-5,5,11,0,-8,8,-4,-4,-2,2,4,6
-7,2,9,3,-8,5,-4,-4,-3,1,4,5
-8,0,8,4,-8,3,-4,-4,-3,1,3,4
-9,-2,7,5,-8,2,-3,-4,-3,1,3,3
-8,-3,5,5,-7,1,-3,-4,-3,1,2,3
-8,-4,4,5,-6,0,-3,-3,-3,0,2,2
-8,-4,4,5,-6,0,-2,-3,-3,0,1,2
-8,-3,4,5,-6,1,0,-1,-2,1,2,2
-7,-1,5,4,-6,2,1,0,0,2,3,2
-6,0,5,3,-6,2,3,1,0,2,3,3
-6,-1,5,4,-6,2,4,2,1,2,3,2
-8,-2,5,5,-6,1,5,2,0,2,2,2
-9,-3,5,6,-7,1,5,1,0,1,1,1
-10,-5,5,7,-8,0,4,1,-1,0,0,1
-11,-6,5,9,-8,-1,3,0,-2,-1,0,0
-11,-7,4,9,-8,-1,2,0,-3,-1,0,0
-10,-6,4,8,-7,-1,2,0,-3,-1,0,0
-10,-5,4,8,-7,-1,3,0,-3,-1,0,0
-11,-6,4,9,-7,-1,3,0,-3,-2,-1,0
-13,-7,4,10,-9,-2,3,-1,-4,-2,-2,-1
-14,-8,5,11,-10,-1,3,-1,-4,-2,-2,-1
-13,-7,5,10,-9,-1,4,0,-3,-2,-1,0
-12,-7,5,9,-9,-1,4,0,-3,-1,-1,0
-11,-7,4,8,-8,-1,3,0,-3,-1,-1,0
-10,-6,3,7,-7,-1,3,0,-3,-1,-1,-1
-8,-5,3,6,-6,0,2,1,-2,-1,-1,0
-7,-4,3,5,-5,0,2,1,-2,-1,0,0
-7,-3,3,5,-5,0,3,1,-2,0,0,0
-7,-4,2,5,-5,-1,4,1,-2,0,0,0
-7,-5,2,6,-5,-1,4,0,-2,-1,0,0
-8,-6,2,7,-5,-1,4,0,-3,-1,0,0
-9,-8,1,8,-5,-2,4,0,-4,-2,-1,-1
-11,-11,1,11,-6,-4,3,-1,-5,-3,-2,-2
-14,-13,1,13,-7,-6,3,-2,-6,-4,-3,-3
-15,-13,2,15,-8,-6,3,-2,-6,-5,-4,-4
-16,-13,2,15,-9,-6,3,-1,-5,-5,-4,-4
-16,-13,2,15,-9,-6,4,0,-4,-4,-4,-4
-14,-12,2,13,-8,-5,4,1,-2,-3,-3,-3
-11,-9,2,10,-7,-3,5,3,0,-1,-2,-2
-8,-6,3,7,-6,-1,7,5,3,0,0,0
-7,-5,3,6,-6,0,9,6,5,2,1,0
-8,-5,3,6,-6,0,10,6,7,5,2,0
-10,-7,3,8,-6,-2,10,7,9,7,3,0
-11,-9,1,10,-6,-4,10,8,12,9,4,0
-11,-11,0,12,-5,-6,9,10,16,13,6,1
-10,-13,-3,12,-3,-8,8,12,21,19,10,4
-7,-13,-6,10,-1,-9,6,15,29,27,17,7
-3,-12,-9,7,2,-10,4,20,39,37,24,11
1,-10,-11,4,5,-10,1,22,49,48,32,16
7,-7,-13,0,9,-9,-2,21,59,61,42,23
13,0,-12,-6,12,-5,-8,15,68,76,55,33
19,11,-8,-15,14,1,-14,7,77,91,69,45
25,24,-2,-24,14,10,-22,-6,84,106,83,57
31,36,4,-33,14,20,-30,-21,88,119,95,68
35,47,11,-41,12,29,-38,-37,92,132,106,77
36,56,19,-46,8,38,-47,-52,96,143,116,86
33,62,29,-47,2,45,-56,-69,96,150,123,93
27,64,37,-45,-5,50,-62,-86,91,149,125,95
19,62,43,-40,-12,52,-66,-101,76,137,117,92
9,56,46,-32,-18,51,-69,-116,53,114,102,83
0,48,48,-24,-24,48,-73,-130,24,87,84,71
-8,38,46,-15,-27,42,-77,-140,-5,58,63,58
-14,25,39,-5,-27,33,-79,-144,-33,29,41,43
-19,11,31,4,-25,21,-75,-139,-55,1,18,25
-23,-2,21,12,-23,10,-68,-128,-69,-22,-3,7
-24,-13,12,18,-19,0,-59,-113,-76,-39,-20,-7
-23,-20,3,21,-14,-8,-50,-96,-76,-47,-29,-16
-20,-23,-3,21,-8,-13,-40,-78,-69,-48,-33,-20
-16,-24,-8,20,-4,-16,-30,-60,-60,-44,-32,-22
-14,-24,-10,19,-1,-17,-20,-44,-51,-40,-30,-21
-14,-25,-11,20,-1,-18,-12,-32,-43,-36,-28,-21
-13,-26,-12,20,0,-19,-6,-21,-37,-32,-26,-20
-11,-25,-13,19,0,-19,-1,-12,-30,-28,-24,-19
-9,-24,-14,17,1,-19,2,-6,-25,-25,-21,-17
-8,-22,-14,16,2,-19,4,-1,-22,-23,-19,-16
-8,-22,-13,16,1,-18,6,2,-19,-21,-18,-15
-10,-21,-12,16,0,-17,7,3,-18,-20,-17,-14
-11,-21,-11,16,-1,-16,7,4,-17,-19,-17,-14
-13,-21,-9,17,-2,-15,7,4,-16,-19,-16,-13
-14,-21,-7,17,-4,-14,7,4,-15,-18,-16,-13
-15,-21,-5,18,-5,-13,7,3,-15,-18,-15,-13
-16,-21,-5,19,-6,-13,6,2,-15,-18,-15,-13
-18,-23,-4,21,-8,-13,5,0,-16,-18,-15,-13
-20,-24,-4,22,-8,-14,4,0,-16,-19,-16,-13
-19,-23,-4,21,-8,-13,4,-1,-16,-19,-16,-13
-18,-21,-4,19,-7,-12,4,0,-16,-18,-15,-12
-17,-19,-3,18,-7,-11,5,0,-15,-17,-15,-11
-17,-19,-2,18,-7,-11,5,0,-15,-17,-15,-11
-17,-19,-2,18,-7,-11,5,-1,-15,-17,-15,-11
-16,-19,-1,17,-7,-10,5,-1,-15,-17,-14,-11
-17,-18,-1,17,-8,-10,5,-1,-14,-17,-14,-11
-18,-18,0,18,-9,-10,5,-1,-14,-16,-14,-11
-20,-19,0,19,-10,-10,4,-1,-14,-16,-14,-11
-21,-20,0,20,-11,-10,3,-1,-15,-17,-14,-12
-21,-20,0,20,-10,-11,3,-1,-15,-17,-14,-12
-19,-20,0,19,-9,-10,3,-1,-15,-17,-14,-12
-18,-19,0,18,-9,-9,4,-1,-15,-17,-14,-11
-18,-19,0,18,-9,-9,4,-1,-15,-17,-14,-11
-17,-18,-1,18,-9,-9,5,-1,-15,-17,-14,-11
-16,-17,-1,17,-8,-9,5,-1,-15,-17,-14,-11
-15,-16,-1,16,-7,-9,5,0,-14,-16,-14,-11
-15,-16,-2,16,-6,-9,6,0,-14,-16,-14,-11
-14,-16,-3,15,-6,-10,6,0,-14,-16,-13,-11
-13,-16,-3,14,-5,-10,7,0,-14,-16,-13,-11
-11,-15,-3,13,-4,-9,7,0,-14,-16,-13,-11
-10,-14,-3,12,-3,-9,7,0,-14,-17,-13,-11
-11,-14,-3,13,-3,-9,6,0,-15,-17,-14,-11
-13,-16,-3,15,-4,-10,6,0,-15,-17,-14,-12
-15,-18,-3,17,-5,-11,5,-1,-15,-18,-15,-12
-15,-19,-3,17,-5,-11,4,-1,-15,-18,-15,-13
-16,-19,-3,17,-6,-12,4,0,-16,-19,-15,-13
-16,-19,-3,17,-6,-12,4,0,-16,-19,-15,-13
-15,-19,-4,17,-6,-12,5,0,-16,-19,-15,-13
-15,-20,-4,17,-6,-12,5,0,-16,-19,-15,-13
-15,-20,-4,17,-6,-12,6,1,-15,-19,-15,-13
-14,-19,-4,16,-5,-12,6,1,-14,-18,-15,-13
-12,-17,-5,15,-4,-12,7,2,-13,-18,-15,-12
-11,-17,-6,14,-2,-12,7,3,-13,-18,-15,-12
-11,-17,-6,14,-2,-12,6,3,-13,-18,-16,-13
-12,-18,-6,15,-2,-13,6,2,-14,-19,-17,-14
-13,-20,-6,17,-3,-13,5,2,-15,-20,-17,-15
-14,-22,-7,18,-4,-14,5,2,-15,-20,-18,-15
-16,-23,-7,20,-5,-15,5,3,-15,-20,-18,-15
-16,-23,-7,20,-4,-15,5,3,-14,-20,-18,-15
-15,-23,-7,19,-4,-16,5,4,-14,-20,-18,-15
-14,-23,-8,19,-3,-16,5,4,-14,-21,-18,-15
-14,-22,-8,18,-3,-15,5,4,-14,-21,-18,-15
-12,-20,-7,16,-2,-14,6,5,-13,-21,-18,-15
-11,-19,-8,15,-2,-13,7,5,-13,-21,-17,-15
-11,-19,-8,15,-2,-13,7,6,-13,-21,-17,-15
-12,-20,-9,16,-2,-14,7,6,-13,-21,-17,-15
-12,-20,-9,16,-2,-14,7,7,-13,-21,-18,-16
-12,-21,-9,17,-2,-15,6,7,-13,-21,-18,-16
-13,-22,-9,18,-2,-16,4,7,-13,-22,-19,-17
-14,-23,-9,18,-2,-16,4,8,-14,-23,-19,-17
-14,-23,-9,19,-2,-16,4,8,-14,-23,-19,-17
-14,-23,-9,19,-2,-16,5,9,-14,-23,-19,-17
-13,-22,-9,18,-2,-15,6,10,-13,-22,-18,-17
-11,-20,-9,16,-1,-14,7,11,-13,-21,-17,-16
-9,-18,-9,13,0,-13,7,12,-12,-21,-16,-15
-8,-16,-8,12,0,-12,8,13,-12,-20,-16,-14
-6,-14,-8,10,1,-11,10,13,-11,-20,-15,-13
-5,-12,-8,9,2,-11,10,14,-10,-19,-15,-13
-4,-11,-8,8,2,-10,10,14,-10,-19,-14,-12
-3,-11,-9,7,3,-10,10,15,-9,-18,-14,-12
-3,-11,-9,7,3,-10,10,15,-9,-18,-13,-11
-3,-12,-10,7,3,-10,10,15,-9,-17,-13,-11
-3,-12,-10,8,3,-10,10,15,-8,-17,-12,-10
-4,-13,-9,8,3,-10,10,16,-8,-16,-12,-10
-5,-13,-8,9,2,-10,10,17,-7,-15,-11,-9
-6,-13,-7,10,1,-10,10,18,-6,-14,-10,-9
-8,-14,-6,11,0,-10,8,18,-6,-14,-9,-9
-9,-14,-6,12,-1,-10,7,19,-6,-14,-9,-8
-9,-15,-5,13,-1,-10,7,19,-5,-14,-9,-8
-9,-14,-5,12,-1,-10,7,20,-4,-13,-8,-7
-7,-13,-4,10,-1,-8,8,20,-3,-11,-7,-6
-6,-11,-4,9,0,-8,9,21,-2,-10,-6,-6
-5,-11,-4,8,0,-8,10,22,-1,-9,-5,-5
-4,-10,-4,7,0,-7,10,23,0,-8,-4,-4
-4,-9,-4,7,0,-7,10,24,0,-7,-3,-4
-3,-8,-4,6,0,-6,10,24,1,-6,-2,-3
-3,-8,-4,6,0,-6,10,25,2,-6,-2,-2
-3,-8,-5,7,0,-6,10,26,3,-5,-1,-1
-4,-8,-5,7,0,-6,10,27,4,-4,0,-1
-4,-8,-4,7,0,-5,10,27,5,-3,0,0
-5,-8,-3,7,-1,-5,10,28,6,-1,1,0
-7,-9,-2,8,-2,-5,10,28,7,0,1,0
-8,-10,-1,10,-3,-5,10,29,8,1,2,1
-9,-9,0,10,-4,-5,10,30,9,2,4,2
-9,-8,0,9,-4,-4,10,31,11,4,5,4
-8,-6,0,8,-4,-3,10,32,13,6,7,6
-6,-4,1,5,-4,-1,10,33,16,9,10,8
-5,-2,2,4,-4,0,10,33,17,11,11,9
-4,-1,2,3,-3,0,9,32,18,13,13,10
-2,0,2,1,-2,1,10,32,19,14,14,11
-1,2,3,0,-2,2,11,32,21,16,16,13
0,4,3,-2,-1,3,12,33,23,18,17,14
0,5,4,-2,-1,4,13,33,24,19,18,15
1,6,5,-3,-2,6,13,32,24,20,19,16
2,9,6,-5,-2,8,13,32,25,21,20,17
2,10,7,-6,-2,9,13,32,26,22,21,17
2,10,7,-6,-2,9,13,32,26,23,21,17
2,10,8,-5,-3,9,13,31,26,23,21,17
2,10,8,-6,-3,9,12,30,27,23,21,17
2,11,9,-6,-3,10,12,29,27,24,21,17
2,11,10,-6,-3,10,12,29,27,24,21,17
1,10,10,-6,-4,10,11,28,27,23,21,17
0,11,10,-6,-5,10,11,28,26,23,21,17
1,12,10,-7,-5,11,11,27,26,23,21,17
2,13,10,-8,-4,11,11,26,26,23,21,17
2,13,10,-8,-4,11,12,25,25,23,20,16
2,13,10,-7,-4,11,12,24,25,22,20,16
2,12,10,-7,-4,11,11,23,24,22,19,15
2,12,10,-7,-4,11,11,23,23,21,19,15
2,12,9,-7,-3,11,10,22,22,21,18,15
2,12,9,-6,-3,10,10,21,21,20,18,14
1,11,9,-6,-4,10,9,20,21,19,17,14
0,11,9,-6,-4,10,9,20,20,19,17,14
0,11,10,-5,-4,10,9,19,20,18,16,13
0,11,10,-5,-4,10,9,18,19,18,16,13
0,11,10,-5,-4,10,9,18,18,17,15,13
0,10,10,-5,-4,9,8,17,17,16,15,12
-1,8,9,-3,-5,8,8,16,16,15,14,11
-3,6,9,-1,-5,7,8,16,15,14,14,11
-4,5,8,0,-6,6,8,15,14,14,13,10
-5,4,8,0,-6,6,7,14,13,13,12,9
-6,2,8,2,-7,5,5,13,12,12,11,8
-7,0,8,3,-7,4,3,11,11,11,10,7
-6,1,8,2,-7,4,3,11,11,10,10,7
-3,3,8,0,-6,5,4,11,11,10,10,8
-2,4,8,-1,-5,6,5,11,11,10,10,8
-3,5,8,-1,-6,6,7,10,10,10,10,8
-4,5,9,0,-7,7,8,10,10,10,10,8
-5,5,10,0,-7,8,8,10,10,10,10,8
-6,5,11,0,-8,8,9,10,10,10,10,8
-6,6,12,1,-9,9,9,10,10,11,11,9
-6,7,13,0,-10,10,10,10,11,11,11,9
-6,9,14,-1,-10,11,10,10,11,11,11,9
-4,11,15,-2,-10,13,10,10,11,11,11,9
-3,12,15,-3,-9,14,10,10,10,10,11,9
-3,13,16,-4,-9,14,10,9,10,10,11,9
-4,12,16,-3,-9,14,10,9,9,10,10,9
-5,10,15,-2,-9,13,10,8,9,9,10,9
-6,9,14,-2,-9,12,9,8,8,8,9,9
-6,8,14,-1,-9,11,9,8,8,8,9,8
-6,8,13,-1,-9,11,9,7,7,7,8,7
-6,7,13,-1,-10,10,8,7,7,7,8,6
-7,7,14,0,-10,11,7,6,6,6,7,6
-7,8,15,-1,-11,12,6,6,6,6,7,6
-6,10,16,-2,-11,13,4,4,5,6,7,7
-5,12,17,-3,-11,14,2,2,4,6,7,7
-4,13,17,-4,-11,15,1,0,3,5,7,7
-4,14,18,-5,-11,15,0,-1,3,5,7,7
-4,14,18,-4,-11,15,-1,-2,2,4,7,7
-3,14,17,-5,-10,16,-1,-2,1,3,6,7
-1,16,17,-7,-9,16,-1,-3,0,3,6,7
0,17,17,-8,-7,16,-1,-3,0,2,5,7
1,17,16,-9,-7,16,-1,-3,0,2,5,6
1,16,15,-8,-7,15,-1,-3,0,1,5,6
0,14,15,-6,-7,14,-2,-4,-1,1,4,5
-1,13,14,-5,-7,13,-3,-4,-1,1,4,5
-2,12,13,-4,-7,12,-4,-5,-2,1,4,5
-3,10,12,-3,-7,11,-5,-5,-3,0,4,5
-3,8,11,-2,-7,9,-6,-6,-4,0,3,4
-3,7,10,-1,-6,8,-7,-6,-4,0,3,4
-2,6,8,-1,-5,6,-7,-6,-4,-1,2,3
-2,5,7,-1,-5,5,-6,-5,-4,-1,2,3
-1,4,6,-1,-4,5,-5,-5,-4,-1,2,2
-1,4,5,-1,-3,4,-4,-5,-4,-2,2,2
-2,3,6,-1,-4,4,-3,-4,-4,-2,1,2
-3,3,7,0,-5,4,-2,-3,-3,-2,1,1
-5,2,7,1,-6,4,0,-2,-3,-2,1,1
-5,2,8,1,-6,5,0,-1,-2,-2,1,1
-4,3,8,0,-6,5,1,0,-2,-2,1,1
-3,4,8,0,-5,6,1,0,-2,-2,1,0
-3,3,7,0,-5,5,0,0,-2,-2,0,0
-2,4,6,0,-4,5,1,0,-2,-2,0,0
0,7,6,-3,-3,7,2,1,-1,-2,0,0
3,9,6,-6,-1,8,4,1,-1,-2,0,0
4,10,6,-7,-1,8,4,1,-2,-2,0,0
4,10,6,-6,-1,8,3,0,-2,-2,-1,0
2,8,5,-4,-1,6,2,0,-3,-3,-1,-1
0,5,5,-2,-2,5,2,-1,-3,-3,-2,-1
-3,2,5,1,-4,4,2,-2,-4,-4,-2,-2
-6,0,6,4,-6,2,2,-4,-5,-6,-3,-3
-9,-4,5,7,-7,0,1,-5,-6,-7,-5,-4
-11,-6,4,9,-8,-1,1,-6,-7,-8,-6,-5
-11,-6,4,9,-7,-2,1,-5,-7,-8,-6,-5
-10,-6,3,8,-6,-2,1,-5,-7,-8,-6,-5
-11,-7,3,9,-7,-3,0,-5,-7,-8,-6,-5
-11,-8,3,10,-7,-3,0,-5,-7,-8,-6,-5
-9,-6,3,8,-6,-2,0,-4,-6,-7,-4,-4
-6,-4,2,6,-5,-1,1,-2,-5,-5,-3,-3
-4,-3,1,4,-3,-1,3,-2,-5,-5,-2,-2
-4,-3,1,4,-3,-1,4,-2,-5,-5,-2,-2
-5,-3,2,4,-4,-1,4,-2,-5,-5,-3,-3
-7,-5,2,6,-4,-2,3,-2,-6,-6,-4,-4
-8,-6,1,7,-4,-2,3,-2,-6,-6,-4,-4
-7,-5,1,6,-4,-2,4,-1,-5,-5,-4,-4
-5,-3,2,4,-3,-1,5,0,-4,-5,-3,-3
-3,-1,2,3,-3,0,5,0,-3,-4,-3,-3
-2,0,2,1,-2,1,6,1,-2,-3,-2,-3
0,2,2,-1,-1,2,7,3,0,-2,-2,-2
1,4,2,-3,0,3,8,4,2,0,-1,-1
1,4,3,-3,0,4,9,5,4,2,0,0
0,3,3,-2,-1,3,10,6,6,4,1,0
0,1,2,-1,-1,2,10,6,9,6,2,0
0,0,0,0,0,0,10,7,11,8,3,0
0,-3,-2,1,1,-2,9,9,14,10,5,1
0,-4,-4,2,2,-5,7,11,19,15,9,2
4,-3,-7,0,5,-6,5,14,26,23,14,6
9,-1,-10,-4,9,-6,3,18,35,34,22,10
16,2,-13,-9,14,-6,0,20,45,45,31,16
24,9,-14,-16,19,-3,-4,18,56,59,42,25
33,19,-14,-26,24,2,-10,13,65,75,56,36
42,30,-12,-36,27,9,-16,3,73,90,70,47
47,40,-7,-43,27,17,-23,-11,79,103,83,57
48,48,0,-48,24,24,-32,-28,82,115,94,67
47,54,7,-50,19,31,-41,-45,85,126,104,75
44,60,15,-52,14,38,-49,-62,88,136,113,83
39,64,25,-52,7,44,-57,-79,88,143,120,89
34,67,34,-50,0,50,-62,-94,82,143,121,92
27,67,40,-47,-6,54,-66,-109,68,131,114,90
19,63,44,-41,-12,54,-70,-123,45,108,99,82
9,56,46,-32,-18,51,-74,-137,18,81,81,70
0,46,45,-23,-22,46,-79,-147,-11,52,60,56
-7,33,39,-12,-24,36,-82,-151,-38,22,37,39
-14,17,31,-1,-23,24,-79,-147,-59,-5,13,21
-19,2,22,9,-21,11,-71,-137,-73,-27,-8,3
-23,-11,13,17,-18,0,-62,-123,-79,-43,-25,-11
-23,-20,4,21,-14,-8,-53,-107,-78,-50,-34,-20
-22,-25,-2,23,-9,-14,-43,-89,-72,-51,-37,-24
-19,-27,-7,23,-5,-17,-35,-71,-64,-49,-37,-26
-17,-27,-11,23,-3,-19,-27,-55,-56,-45,-36,-27
-15,-27,-13,22,-1,-20,-20,-42,-48,-41,-34,-26
-12,-27,-14,20,1,-20,-14,-30,-41,-37,-31,-25
-10,-26,-15,18,2,-21,-9,-20,-35,-33,-29,-24
-8,-25,-16,17,4,-21,-5,-13,-30,-30,-26,-22
-6,-24,-17,15,5,-21,-3,-8,-27,-28,-24,-21
-4,-21,-17,13,6,-20,0,-4,-24,-26,-23,-19
-3,-19,-16,11,6,-17,1,-2,-22,-24,-22,-18
-1,-16,-16,9,6,-15,2,-1,-21,-23,-21,-17
1,-13,-15,6,7,-13,3,0,-19,-22,-19,-16
4,-9,-13,3,8,-10,3,1,-17,-21,-18,-15
6,-6,-12,1,8,-9,3,1,-16,-20,-17,-14
6,-6,-11,0,8,-8,3,0,-16,-19,-17,-13
6,-5,-10,0,8,-8,3,-1,-16,-19,-16,-13
6,-5,-10,0,8,-7,4,-1,-15,-18,-16,-12
4,-5,-9,0,7,-7,4,-1,-15,-18,-15,-11
2,-5,-8,1,5,-6,4,-1,-15,-18,-16,-12
1,-4,-6,2,4,-5,5,-2,-15,-18,-16,-12
0,-4,-5,3,3,-5,5,-2,-15,-18,-16,-13
-1,-6,-5,4,2,-6,5,-3,-16,-19,-17,-13
-4,-8,-4,6,1,-7,4,-4,-16,-19,-17,-14
-6,-11,-4,8,0,-8,4,-4,-17,-19,-17,-14
-7,-13,-5,10,0,-9,3,-5,-17,-20,-17,-14
-8,-14,-6,11,0,-10,2,-5,-17,-20,-18,-14
-8,-15,-6,11,0,-11,2,-5,-18,-21,-18,-15
-7,-14,-6,10,0,-10,2,-5,-18,-21,-18,-15
-6,-13,-6,10,0,-10,2,-5,-18,-21,-19,-15
-6,-12,-6,9,0,-10,2,-5,-18,-21,-19,-15
-4,-10,-6,7,0,-9,2,-4,-18,-21,-19,-15
0,-6,-6,4,2,-7,3,-3,-17,-20,-18,-14
2,-4,-6,1,4,-5,4,-2,-16,-20,-17,-13
2,-4,-6,1,4,-5,4,-2,-16,-20,-17,-13
1,-4,-6,2,3,-5,4,-2,-16,-20,-17,-13
0,-4,-5,2,3,-5,4,-2,-16,-20,-17,-14
0,-5,-5,3,2,-6,3,-2,-16,-20,-17,-14
-2,-7,-5,5,1,-6,3,-3,-17,-21,-18,-14
-3,-9,-5,6,0,-7,3,-4,-17,-21,-19,-15
-6,-11,-5,8,0,-8,3,-5,-18,-22,-20,-15
-8,-14,-5,11,-1,-9,2,-5,-19,-22,-20,-16
-10,-16,-6,13,-2,-11,2,-6,-19,-23,-21,-17
-10,-16,-6,13,-2,-11,1,-6,-20,-24,-21,-18
-10,-16,-6,14,-2,-12,1,-6,-20,-25,-22,-18
-11,-17,-6,14,-2,-12,1,-6,-20,-25,-22,-18
-11,-17,-7,14,-2,-12,0,-6,-20,-25,-22,-18
-10,-17,-8,14,-1,-12,0,-6,-20,-25,-22,-18
-8,-17,-9,13,0,-12,0,-5,-20,-25,-22,-18
-6,-16,-9,11,1,-12,0,-5,-20,-25,-22,-18
-5,-15,-9,10,2,-11,0,-4,-20,-25,-22,-19
-4,-14,-9,9,2,-11,0,-4,-20,-25,-22,-19
-3,-12,-8,8,2,-10,1,-3,-19,-24,-22,-18
-1,-10,-8,6,3,-9,2,-2,-18,-24,-21,-18
0,-9,-8,5,4,-9,2,-1,-18,-24,-21,-17
0,-9,-9,4,4,-9,2,-1,-17,-24,-21,-17
0,-9,-9,4,4,-9,3,-1,-17,-24,-22,-18
0,-10,-10,5,5,-10,3,-1,-18,-24,-22,-18
0,-11,-11,5,5,-11,2,0,-18,-25,-22,-19
0,-11,-11,6,5,-11,2,0,-18,-26,-22,-19
-2,-13,-11,8,4,-12,2,0,-19,-27,-23,-20
-4,-15,-11,10,3,-13,2,-1,-19,-28,-24,-21
-3,-14,-12,9,4,-13,2,0,-19,-28,-24,-21
0,-11,-12,6,6,-12,2,1,-19,-27,-24,-21
3,-8,-12,3,7,-10,2,2,-18,-26,-23,-20
6,-6,-12,0,8,-9,3,3,-17,-25,-22,-19
9,-3,-12,-2,9,-8,3,5,-16,-24,-21,-18
10,-2,-12,-3,10,-7,4,5,-15,-24,-20,-18
9,-2,-12,-3,10,-8,4,6,-15,-24,-20,-18
9,-3,-12,-2,10,-8,5,7,-14,-24,-19,-17
8,-3,-12,-2,10,-7,6,7,-14,-23,-19,-17
8,-3,-11,-1,10,-7,6,7,-14,-23,-19,-17
6,-4,-11,0,9,-8,5,8,-15,-24,-20,-17
5,-5,-10,1,7,-8,4,8,-15,-24,-20,-17
4,-6,-10,1,6,-8,4,9,-15,-24,-20,-17
3,-6,-10,1,6,-8,4,9,-15,-23,-19,-17
2,-7,-10,2,6,-8,4,9,-15,-23,-19,-17
0,-9,-9,4,5,-9,4,9,-15,-23,-19,-17
-1,-10,-9,6,4,-9,4,9,-15,-23,-19,-17
-2,-11,-9,7,4,-10,4,9,-15,-23,-19,-16
-2,-11,-9,7,4,-10,4,9,-15,-23,-19,-16
-2,-11,-10,7,3,-11,3,9,-15,-23,-19,-16
-3,-12,-10,8,2,-11,3,9,-15,-23,-18,-15
-4,-13,-10,9,2,-11,2,9,-15,-23,-18,-15
-4,-13,-10,8,2,-11,2,10,-14,-22,-17,-14
-3,-12,-10,8,3,-11,2,11,-13,-21,-15,-13
-3,-12,-10,7,3,-11,2,12,-12,-20,-14,-13
-2,-11,-9,6,3,-10,2,13,-11,-19,-14,-12
-1,-9,-8,5,3,-9,3,14,-10,-17,-13,-11
0,-8,-8,3,4,-8,5,15,-9,-16,-12,-10
1,-6,-8,2,4,-7,6,16,-7,-14,-10,-8
2,-5,-8,1,5,-7,7,18,-5,-13,-9,-7
4,-3,-7,0,5,-5,7,20,-3,-11,-7,-6
5,-1,-6,-2,5,-4,7,21,-1,-10,-6,-5
5,0,-5,-2,5,-3,7,23,0,-8,-4,-4
5,0,-5,-2,5,-3,6,24,1,-7,-3,-3
6,1,-5,-3,6,-2,6,25,2,-5,-2,-2
8,3,-5,-5,6,-1,7,25,3,-4,-1,0
10,6,-5,-8,7,1,10,26,4,-2,1,1
13,8,-4,-10,7,2,11,28,6,0,2,2
14,10,-4,-12,8,4,13,29,8,2,4,4
14,12,-3,-13,8,5,13,29,10,3,6,6
13,12,-2,-12,7,5,13,30,11,5,7,7
13,12,-2,-12,7,6,13,30,12,6,8,7
14,13,-1,-13,7,6,13,30,13,8,9,8
14,14,0,-14,7,7,12,30,14,9,10,9
14,15,0,-14,6,8,12,30,16,11,11,10
14,15,1,-14,5,8,12,30,17,12,12,11
12,14,2,-13,4,8,11,30,18,13,13,11
10,13,2,-11,3,8,10,29,19,14,14,12
10,13,2,-11,3,8,9,29,20,15,15,12
10,13,2,-11,3,8,9,29,21,16,16,13
10,14,2,-11,3,8,10,29,22,17,16,13
10,14,2,-11,3,8,10,28,22,18,17,14
10,13,2,-11,3,8,10,28,23,18,17,14
10,13,3,-11,3,9,10,28,23,19,17,14
10,14,4,-12,2,10,10,27,23,20,18,15
11,15,4,-12,2,10,11,27,24,21,19,16
10,16,5,-12,2,11,11,27,25,22,19,16
10,17,6,-13,1,12,11,27,26,22,20,16
10,18,7,-13,1,12,11,27,26,22,20,16
10,18,7,-13,1,12,10,26,25,22,20,16
8,16,7,-11,0,12,8,25,25,21,19,16
6,13,7,-9,-1,11,7,24,24,20,18,15
4,12,7,-7,-2,10,6,23,23,20,17,14
4,11,7,-7,-2,10,6,22,22,19,17,14
3,10,7,-6,-2,9,6,21,21,18,16,13
2,9,7,-5,-2,8,6,20,20,18,15,12
1,9,7,-5,-3,8,7,19,19,17,15,11
1,8,7,-5,-3,8,7,18,19,17,14,11
0,7,7,-4,-3,7,7,18,18,16,13,10
-1,6,7,-2,-4,7,7,17,17,14,12,10
-1,5,7,-2,-5,6,6,16,16,14,12,9
0,6,7,-2,-5,7,5,15,15,14,11,9
0,7,7,-3,-4,7,5,14,15,13,11,9
-1,6,7,-2,-4,6,5,13,14,12,11,8
-2,4,6,-1,-5,5,5,12,13,11,10,8
-4,3,6,0,-5,4,5,11,12,11,9,7
-4,3,6,0,-5,4,5,10,11,10,9,7
-2,4,6,-1,-5,5,4,9,11,10,9,8
0,5,5,-2,-4,6,4,9,10,10,9,8
0,5,5,-2,-3,5,4,9,9,9,8,7
0,5,4,-2,-2,5,4,8,8,8,8,7
1,6,4,-3,-2,5,5,8,8,8,8,6
3,8,4,-5,-1,7,6,9,9,9,9,7
5,11,5,-8,0,8,7,9,9,9,9,8
7,14,6,-10,0,10,8,10,10,10,10,8
7,15,7,-11,0,11,9,10,10,10,10,9
6,16,8,-11,-1,12,9,10,10,10,10,9
4,16,11,-10,-3,13,9,10,10,10,10,9
3,16,12,-10,-5,14,10,10,11,10,10,9
3,17,13,-10,-5,15,10,10,11,10,10,10
3,17,14,-10,-6,16,11,10,11,10,10,10
2,17,14,-9,-6,16,11,10,10,10,10,10
1,17,14,-9,-7,16,10,10,10,9,10,10
2,17,14,-9,-6,16,10,10,9,9,10,9
2,17,14,-10,-6,16,10,10,9,9,9,9
2,17,14,-9,-6,15,9,10,8,8,9,9
2,16,14,-8,-6,15,9,10,8,8,8,8
2,15,13,-7,-6,14,9,9,8,7,8,8
3,15,13,-8,-5,14,9,9,8,7,8,8
5,18,13,-11,-4,16,9,9,8,8,9,8
8,21,13,-15,-3,18,8,9,8,9,10,9
9,23,13,-16,-3,19,6,7,8,8,10,10
8,23,13,-16,-3,19,4,4,7,8,9,10
7,22,14,-15,-3,18,2,3,6,7,9,10
6,21,14,-13,-4,18,1,1,4,6,8,10
5,19,14,-12,-4,17,0,0,2,5,7,10
4,18,14,-11,-5,16,0,-1,1,4,6,9
2,17,13,-9,-5,15,-1,-2,0,3,5,8
0,14,13,-7,-6,13,-2,-4,-1,1,4,7
-1,12,12,-6,-7,12,-3,-5,-2,0,3,6
-2,11,12,-5,-7,12,-4,-5,-3,0,2,5
-2,11,12,-5,-7,11,-4,-5,-3,0,2,5
0,12,12,-6,-6,12,-3,-5,-3,0,3,6
2,14,12,-8,-5,13,-3,-4,-1,2,5,7
3,15,12,-9,-4,14,-2,-3,0,3,6,8
5,16,11,-10,-3,14,-2,-2,0,3,6,8
7,17,10,-11,-1,13,-1,-2,0,3,6,8
7,16,8,-11,0,12,-1,-2,0,3,6,8
7,14,7,-10,0,11,0,-2,0,2,6,7
6,12,5,-8,0,9,-1,-2,-1,1,5,6
5,9,4,-7,0,6,-2,-2,-1,0,3,5
4,7,3,-5,0,5,-2,-2,-2,0,2,4
2,6,3,-3,-1,5,-1,-2,-2,0,2,3
0,5,5,-2,-3,5,0,-1,-1,0,2,3
-1,5,5,-2,-4,6,1,0,-1,0,2,3
-1,5,6,-2,-4,6,3,0,0,0,2,3
0,6,6,-3,-4,6,4,1,0,0,2,3
0,5,6,-2,-4,6,4,1,0,0,1,2
-2,4,6,-1,-4,5,4,0,-1,-1,1,1
-3,2,6,0,-5,4,4,0,-2,-2,0,1
-4,1,6,2,-5,4,3,0,-3,-3,-1,0
-5,0,5,3,-6,3,2,-1,-4,-4,-2,-1
-7,-1,5,4,-6,3,1,-2,-5,-5,-3,-2
-7,-1,5,5,-6,2,1,-3,-5,-5,-3,-3
-6,-1,4,4,-5,2,1,-3,-5,-5,-3,-3
-4,0,4,2,-4,2,1,-2,-5,-5,-3,-2
-3,1,4,1,-4,2,2,-2,-4,-4,-2,-2
-2,1,4,0,-3,2,2,-2,-4,-4,-2,-1
-2,1,4,0,-3,2,2,-2,-4,-3,-2,-1
-3,1,4,1,-4,2,2,-2,-4,-4,-2,-2
-5,-1,4,2,-5,2,2,-2,-5,-5,-3,-2
-7,-3,4,4,-6,1,1,-3,-5,-6,-4,-3
-9,-4,4,6,-6,0,0,-3,-6,-6,-5,-4
-9,-5,4,7,-6,0,0,-3,-6,-7,-5,-4
-10,-6,4,8,-7,0,0,-3,-7,-7,-5,-4
-11,-7,4,9,-7,-1,0,-3,-7,-7,-6,-4
-12,-9,4,11,-8,-2,0,-4,-7,-7,-6,-5
-14,-11,4,13,-9,-3,0,-4,-8,-8,-6,-5
-16,-12,4,14,-11,-4,-1,-4,-8,-8,-7,-6
-18,-13,5,15,-12,-4,-1,-4,-8,-9,-7,-6
-18,-12,5,15,-11,-3,0,-4,-8,-8,-7,-6
-16,-10,5,13,-10,-2,1,-3,-7,-7,-6,-6
-15,-9,6,12,-10,-1,2,-2,-5,-7,-6,-5
-15,-8,7,12,-11,-1,2,-1,-4,-6,-6,-5
-15,-8,7,12,-11,0,3,0,-2,-4,-5,-4
-15,-8,7,12,-11,0,5,2,0,-2,-4,-3
-15,-7,8,12,-12,0,7,4,3,0,-2,-2
-15,-7,7,12,-12,0,8,5,5,2,-1,-2
-15,-7,6,12,-11,0,8,6,8,5,0,-1
-14,-8,5,11,-10,-1,7,7,11,7,2,0
-11,-8,3,10,-7,-2,6,9,14,11,4,0
-6,-5,0,6,-3,-2,5,11,19,17,9,3
1,-1,-3,0,2,-2,4,15,27,27,17,8
9,3,-6,-6,7,-2,2,18,37,37,26,14
16,7,-8,-12,12,-1,-1,19,47,50,36,21
23,13,-10,-18,16,1,-6,15,56,64,48,30
29,20,-9,-24,19,5,-12,7,64,79,62,40
35,29,-6,-32,20,12,-19,-4,71,94,75,51
41,40,-1,-40,21,19,-27,-19,76,107,88,62
45,50,4,-47,20,27,-36,-35,80,118,99,72
47,58,11,-52,18,35,-43,-51,83,130,110,80
47,66,20,-56,13,43,-50,-68,86,140,119,89
45,74,30,-59,8,52,-55,-83,86,147,126,95
40,78,38,-59,1,58,-59,-97,79,144,125,97
34,78,45,-56,-5,61,-62,-111,63,129,116,93
27,76,49,-51,-11,62,-64,-125,40,105,100,84
19,70,50,-44,-15,60,-68,-137,13,78,81,72
10,59,48,-34,-18,54,-72,-146,-15,48,59,58
1,44,42,-22,-20,43,-73,-148,-40,19,35,40
-7,27,35,-10,-21,31,-70,-142,-59,-6,11,21
-15,10,27,2,-21,19,-64,-131,-71,-28,-9,3
-22,-6,18,14,-21,6,-56,-117,-76,-42,-24,-10
-27,-18,10,22,-19,-4,-48,-102,-75,-48,-33,-19
-28,-25,3,26,-16,-11,-40,-85,-68,-48,-36,-23
-27,-27,-1,27,-13,-14,-32,-68,-60,-45,-35,-24
-25,-27,-3,26,-11,-14,-24,-52,-52,-41,-33,-24
-23,-26,-4,25,-9,-14,-17,-39,-44,-37,-31,-23
-20,-24,-4,22,-7,-14,-11,-27,-38,-33,-28,-21
-16,-22,-5,19,-5,-14,-6,-18,-32,-30,-25,-20
-11,-19,-6,15,-2,-13,-1,-10,-27,-27,-22,-18
-8,-16,-7,12,-1,-12,2,-4,-23,-24,-20,-16
-8,-15,-7,12,-1,-11,4,-1,-20,-22,-19,-15
-10,-16,-6,13,-2,-11,4,0,-19,-21,-18,-14
-12,-16,-5,14,-4,-10,5,1,-18,-21,-18,-14
-13,-16,-3,14,-5,-9,5,1,-17,-21,-18,-14
-14,-15,-2,14,-5,-8,5,1,-17,-20,-18,-14
-15,-15,-1,15,-6,-8,6,1,-16,-20,-18,-14
-15,-16,0,16,-8,-8,5,0,-16,-19,-18,-14
-16,-16,1,16,-9,-7,4,0,-16,-19,-18,-14
-17,-16,2,16,-10,-7,3,-1,-16,-19,-17,-14
-18,-16,2,17,-11,-6,4,-2,-16,-19,-17,-13
-20,-16,3,18,-12,-6,4,-2,-16,-19,-17,-13
-21,-16,3,18,-12,-5,4,-3,-17,-19,-17,-13
-21,-16,4,18,-12,-5,4,-3,-17,-19,-17,-13
-20,-16,4,18,-11,-6,3,-4,-17,-20,-17,-13
-19,-15,4,17,-11,-6,3,-3,-17,-20,-17,-13
-17,-14,4,16,-11,-5,4,-3,-17,-19,-17,-12
-16,-13,4,15,-11,-5,4,-3,-16,-19,-16,-12
-15,-12,4,14,-11,-4,4,-2,-16,-19,-16,-12
-16,-12,4,14,-11,-4,4,-2,-16,-19,-16,-12
-16,-12,4,14,-11,-4,3,-2,-16,-19,-16,-12
-16,-12,4,14,-10,-4,3,-2,-16,-19,-16,-12
-16,-12,4,14,-10,-4,4,-2,-16,-19,-16,-12
-16,-12,4,15,-10,-4,4,-2,-16,-19,-16,-12
-16,-12,4,14,-10,-4,5,-2,-16,-18,-16,-12
-14,-10,4,12,-10,-3,6,-1,-16,-18,-16,-11
-12,-10,3,11,-9,-3,7,-1,-15,-18,-16,-11
-12,-10,2,11,-8,-3,7,-1,-15,-18,-16,-12
-12,-10,2,11,-8,-4,7,-1,-15,-19,-17,-12
-13,-11,1,12,-8,-4,7,-1,-15,-19,-17,-13
-13,-12,1,12,-7,-5,6,-1,-16,-19,-17,-13
-13,-12,1,12,-6,-5,5,-1,-16,-20,-17,-13
-13,-12,1,13,-7,-5,4,-1,-16,-20,-17,-13
-13,-12,0,13,-7,-6,4,-1,-16,-20,-17,-13
-12,-12,0,13,-7,-6,4,-1,-16,-20,-17,-14
-11,-11,0,12,-7,-6,4,-1,-16,-20,-18,-14
-11,-11,0,11,-7,-6,5,0,-16,-20,-18,-14
-12,-11,0,11,-7,-6,5,0,-16,-20,-18,-14
-12,-11,0,12,-7,-6,4,0,-16,-20,-18,-14
-13,-12,0,12,-7,-6,3,0,-16,-21,-18,-15
-14,-13,0,14,-7,-7,2,0,-16,-21,-19,-15
-15,-15,0,15,-7,-7,2,-1,-17,-22,-19,-16
-16,-15,0,16,-8,-7,2,-1,-17,-23,-20,-16
-16,-15,1,16,-9,-7,3,-1,-17,-23,-21,-17
-17,-15,1,16,-9,-7,3,-1,-17,-23,-21,-17
-17,-15,1,16,-9,-7,2,-1,-17,-23,-21,-18
-18,-16,1,17,-9,-8,2,-1,-18,-24,-21,-18
-19,-17,0,18,-9,-9,2,-1,-18,-24,-21,-18
-18,-18,0,18,-8,-10,2,-1,-18,-24,-21,-18
-18,-19,-1,18,-8,-10,2,-1,-18,-24,-22,-19
-18,-20,-1,19,-8,-11,1,-1,-18,-25,-22,-19
-18,-20,-2,19,-8,-11,0,-1,-18,-25,-23,-19
-17,-20,-2,19,-8,-11,1,0,-18,-25,-23,-19
-15,-18,-3,17,-7,-11,2,1,-17,-25,-22,-19
-13,-15,-3,14,-5,-10,3,3,-17,-24,-22,-18
-9,-12,-3,11,-3,-8,5,4,-16,-24,-21,-18
-6,-9,-3,8,-2,-7,6,6,-14,-23,-20,-17
-6,-9,-3,8,-1,-6,6,7,-13,-22,-19,-16
-6,-9,-3,8,-1,-6,7,7,-13,-22,-19,-15
-6,-9,-3,8,-1,-6,7,8,-13,-22,-18,-15
-7,-10,-3,9,-1,-6,7,8,-13,-22,-18,-15
-8,-11,-3,10,-2,-7,7,8,-13,-22,-19,-15
-9,-12,-3,11,-3,-8,7,9,-13,-22,-19,-15
-7,-10,-3,9,-2,-7,7,10,-13,-22,-19,-15
-5,-8,-3,7,-1,-6,7,11,-12,-21,-18,-14
-3,-6,-3,5,-1,-5,7,11,-12,-21,-17,-13
-2,-6,-3,4,0,-5,7,11,-12,-20,-16,-13
-1,-5,-4,4,0,-4,7,11,-11,-20,-16,-12
-1,-5,-4,4,0,-4,7,12,-11,-19,-15,-11
-2,-6,-5,4,0,-4,7,13,-11,-19,-15,-11
-3,-6,-5,5,0,-5,7,13,-11,-19,-14,-11
-4,-7,-4,6,0,-5,6,14,-11,-18,-14,-11
-4,-7,-4,6,0,-6,6,14,-10,-18,-13,-11
-5,-8,-3,6,-1,-6,6,15,-10,-18,-13,-11
-6,-9,-3,8,-2,-6,6,15,-10,-18,-13,-11
-7,-10,-3,9,-2,-7,6,15,-9,-18,-13,-10
-8,-10,-3,9,-3,-7,5,15,-9,-17,-12,-10
-8,-10,-3,10,-3,-6,5,15,-8,-16,-12,-9
-9,-11,-2,10,-4,-6,4,15,-8,-15,-11,-9
-8,-10,-2,9,-3,-6,4,15,-7,-14,-10,-8
-5,-7,-2,7,-2,-5,5,17,-6,-13,-9,-6
-2,-4,-2,4,0,-4,8,18,-4,-11,-7,-5
0,-2,-2,1,0,-2,9,19,-2,-10,-6,-4
2,0,-2,0,1,-1,10,20,-1,-9,-5,-3
1,0,-2,0,1,-1,11,21,0,-8,-4,-3
0,-1,-2,1,1,-2,11,22,0,-7,-4,-3
0,-2,-2,2,1,-2,10,22,0,-7,-3,-2
0,-2,-2,2,0,-2,9,23,1,-6,-2,-2
0,-1,-1,1,0,-1,9,24,2,-4,-1,-1
1,0,-1,0,0,0,8,25,3,-3,0,0
1,0,-1,0,0,0,8,26,5,-1,1,1
1,1,0,0,0,0,8,27,6,0,2,2
1,1,0,0,0,1,8,27,7,1,3,3
1,2,1,-1,0,1,8,28,8,2,4,4
1,3,2,-2,0,3,9,28,10,4,6,5
3,6,3,-4,0,5,10,30,12,7,8,7
5,10,4,-7,0,7,11,31,15,9,11,9
7,12,5,-9,0,8,11,32,17,12,13,11
7,13,6,-10,0,9,11,33,18,14,15,12
6,13,7,-9,-1,10,11,33,20,15,16,13
5,12,7,-8,-1,10,10,32,21,16,16,13
4,11,7,-7,-1,9,10,32,21,16,16,14
4,11,7,-7,-1,9,10,31,22,17,17,14
4,11,8,-7,-2,9,9,30,22,18,17,15
2,11,8,-6,-3,9,9,29,22,19,18,15
1,10,9,-5,-4,9,8,29,23,20,18,15
1,10,9,-5,-4,9,8,28,23,20,19,15
1,10,9,-5,-4,10,8,28,24,20,19,15
0,10,9,-4,-4,10,7,27,24,20,19,15
0,10,10,-4,-5,10,7,26,24,21,19,15
0,10,11,-4,-5,10,7,26,24,21,19,15
0,11,11,-5,-6,11,7,25,24,22,19,15
0,11,12,-5,-6,11,7,25,24,21,19,15
-1,10,12,-4,-7,10,7,24,24,21,19,15
-1,10,12,-4,-7,10,7,23,23,20,18,14
0,11,11,-5,-7,11,7,22,23,21,18,14
1,13,11,-7,-5,11,8,22,23,21,19,14
4,15,10,-9,-4,12,9,22,24,22,19,15
7,17,10,-12,-2,13,10,22,24,22,19,15
9,19,10,-14,-1,14,11,22,24,22,19,16
8,19,10,-13,-2,14,11,22,23,21,19,16
6,17,10,-11,-3,13,10,21,22,20,18,15
4,15,10,-9,-4,12,8,20,21,19,17,14
2,13,10,-7,-5,11,6,18,20,17,15,13
0,11,11,-5,-6,11,5,17,19,16,14,11
-2,9,11,-3,-7,10,5,15,17,15,13,10
-4,7,11,-1,-8,9,5,13,15,13,11,9
-5,6,11,0,-8,8,4,12,14,12,10,8
-6,4,10,1,-9,7,4,12,13,12,10,7
-8,2,10,3,-9,6,4,11,13,11,9,7
-9,1,10,4,-10,5,4,11,13,11,9,7
-10,1,11,4,-10,6,3,11,12,11,9,6
-10,1,10,4,-10,5,3,10,12,10,9,6
-10,0,9,5,-10,4,3,10,11,10,8,6
-9,0,8,5,-9,4,3,9,10,10,8,6
-8,0,8,4,-9,4,3,9,10,9,8,6
-6,2,8,2,-8,5,4,9,10,9,8,6
-5,4,9,1,-7,6,5,9,10,10,8,7
-5,4,10,1,-8,7,5,9,11,10,9,7
-7,4,11,1,-9,7,5,9,10,10,8,7
-8,4,11,2,-10,8,5,8,10,9,8,6
-8,5,12,1,-10,8,5,8,9,9,8,6
-7,5,12,1,-10,9,5,8,9,9,8,6
-7,6,13,0,-10,9,6,8,9,8,8,6
-5,8,13,-1,-9,10,7,8,9,8,8,6
-4,10,13,-3,-9,11,7,8,9,8,8,6
-2,11,13,-4,-8,11,8,8,8,8,8,6
0,12,13,-5,-7,12,9,8,9,9,8,7
2,14,12,-7,-5,13,10,9,10,9,8,8
3,15,11,-8,-4,13,10,10,10,10,9,8
3,14,11,-8,-4,12,10,10,10,9,8,8
1,12,11,-6,-5,12,9,10,9,8,8,7
0,12,12,-5,-6,11,8,9,8,8,7,7
-1,11,12,-5,-7,11,7,8,7,7,7,7
-2,11,12,-4,-7,12,5,6,6,7,7,7
-3,11,13,-3,-8,12,2,3,5,6,6,7
-4,10,14,-3,-9,13,0,1,4,5,6,7
-4,11,15,-3,-9,13,-1,0,3,4,6,7
-4,11,16,-3,-10,13,-2,-2,2,3,6,7
-4,11,15,-2,-10,13,-3,-3,0,2,5,6
-4,11,14,-2,-9,12,-3,-4,0,1,4,6
-3,11,13,-3,-9,12,-4,-5,-1,1,4,5
-2,11,12,-4,-7,12,-4,-5,-1,0,3,5
-2,10,12,-4,-7,11,-4,-5,-2,0,3,4
-2,9,11,-4,-6,10,-4,-5,-2,0,3,4
0,11,11,-6,-5,11,-4,-5,-1,0,3,5
4,14,11,-9,-3,13,-3,-3,0,1,5,6
5,16,11,-11,-3,13,-2,-2,1,2,6,6
6,17,11,-12,-2,14,-2,-2,1,3,6,7
7,18,10,-12,-2,14,-1,-1,1,3,6,7
7,17,9,-12,-1,13,-1,-1,1,3,6,7
6,15,9,-11,-1,12,-1,-1,1,3,5,7
5,13,8,-9,-1,11,0,0,1,3,5,7
4,12,8,-8,-2,10,0,0,1,3,5,6
3,12,8,-7,-2,10,0,0,1,3,5,6
2,11,8,-7,-2,10,0,1,1,3,5,5
1,10,8,-5,-3,9,1,1,1,2,4,5
0,9,8,-5,-4,9,2,2,1,2,4,4
0,9,7,-5,-4,8,3,2,1,2,3,4
0,8,7,-4,-4,8,3,2,1,1,3,3
-1,6,7,-2,-4,6,3,1,0,0,1,2
-4,2,6,0,-5,4,2,0,-1,-1,0,1
-5,0,5,2,-5,3,1,0,-2,-2,-1,0
-5,0,5,2,-5,2,1,0,-2,-3,-2,-1
-6,-1,4,3,-5,1,0,-2,-3,-4,-3,-2
-7,-3,3,5,-5,0,0,-3,-4,-5,-4,-3
-6,-2,2,4,-4,0,0,-3,-5,-5,-4,-3
-4,0,2,2,-3,0,2,-3,-4,-4,-4,-2
-3,0,2,1,-3,1,3,-3,-4,-4,-4,-2
-3,0,2,2,-3,0,3,-3,-4,-4,-4,-2
-3,-1,1,3,-2,0,3,-2,-4,-4,-4,-2
-3,-2,1,3,-2,0,3,-2,-3,-4,-3,-2
-3,-2,1,3,-2,0,2,-1,-3,-4,-3,-2
-3,-1,1,3,-2,0,2,-1,-3,-4,-3,-1
-3,-1,1,2,-2,0,3,-1,-3,-4,-3,-1
-2,0,1,2,-1,0,4,-1,-3,-3,-3,-1
-2,-1,1,2,-2,0,4,-1,-3,-3,-3,-1
-3,-1,2,3,-3,0,4,-1,-3,-4,-3,-1
-4,-2,2,4,-3,0,4,-1,-3,-4,-3,-1
-6,-4,2,5,-3,-1,4,-1,-3,-4,-3,-2
-8,-6,1,7,-4,-3,4,-1,-4,-5,-4,-2
-9,-7,1,8,-5,-3,4,-2,-5,-6,-4,-3
-10,-8,1,9,-5,-3,3,-2,-5,-6,-5,-3
-10,-8,2,9,-6,-3,2,-1,-5,-6,-5,-3
-11,-9,2,10,-7,-3,2,-1,-5,-6,-5,-3
-12,-10,3,11,-8,-4,2,0,-4,-6,-5,-4
-12,-9,3,10,-7,-3,3,0,-4,-5,-5,-4
-12,-9,3,10,-7,-3,4,0,-2,-4,-4,-4
-12,-9,3,11,-8,-3,5,2,0,-3,-3,-3
-12,-8,4,10,-8,-2,6,4,3,0,-2,-2
-10,-6,4,8,-7,-1,8,6,6,2,-1,-1
-8,-4,4,6,-6,0,9,7,9,5,1,0
-5,-3,2,4,-4,0,10,8,13,9,3,1
0,-1,0,0,0,0,11,11,17,13,7,3
4,1,-2,-2,3,0,11,13,21,19,11,6
9,2,-5,-5,7,-1,10,16,28,27,18,10
13,3,-9,-9,11,-2,8,20,37,37,25,14
18,6,-12,-12,15,-3,5,23,47,48,33,20
24,10,-14,-17,19,-2,1,22,57,61,44,27
29,16,-14,-22,21,1,-5,17,66,75,56,36
34,24,-11,-28,22,6,-12,9,73,90,70,47
38,33,-7,-35,22,13,-20,-3,80,105,83,58
42,42,-1,-41,21,21,-28,-19,84,117,95,68
44,51,6,-47,19,28,-36,-35,87,129,106,77
46,59,13,-52,17,36,-43,-50,90,140,116,85
45,67,22,-56,12,44,-50,-66,91,148,123,93
40,71,31,-55,4,51,-56,-82,86,148,125,96
31,71,38,-50,-3,54,-61,-98,73,137,118,93
21,66,43,-43,-11,54,-65,-114,52,115,103,84
10,58,46,-34,-18,52,-69,-128,25,88,84,73
1,49,47,-25,-23,48,-73,-139,-3,59,63,59
-7,37,43,-15,-25,40,-75,-145,-30,30,40,43
-16,21,37,-2,-26,29,-73,-142,-53,1,16,24
-26,3,29,11,-27,15,-68,-134,-69,-23,-7,5
-33,-13,20,23,-26,2,-61,-123,-78,-42,-25,-10
-36,-25,11,31,-24,-8,-54,-108,-79,-51,-36,-21
-36,-31,4,34,-20,-14,-46,-91,-73,-53,-40,-26
-33,-33,-1,33,-16,-18,-37,-73,-65,-50,-40,-28
-29,-33,-5,31,-12,-19,-29,-57,-56,-45,-37,-27
-25,-32,-8,28,-8,-20,-21,-43,-48,-40,-34,-25
-22,-30,-9,26,-6,-20,-14,-31,-41,-36,-31,-23
-20,-30,-10,24,-5,-20,-10,-21,-35,-33,-29,-22
-17,-29,-11,23,-3,-20,-6,-13,-31,-31,-27,-20
-15,-27,-13,21,-1,-20,-3,-8,-27,-28,-24,-18
-13,-25,-13,19,0,-19,0,-4,-23,-26,-22,-17
-11,-22,-12,16,0,-17,2,-1,-21,-24,-20,-15
-9,-19,-11,14,0,-15,3,0,-19,-22,-19,-14
-8,-17,-9,12,1,-13,4,1,-18,-21,-18,-14
-6,-14,-8,10,1,-11,5,1,-17,-20,-18,-13
-5,-13,-7,9,1,-10,5,1,-16,-19,-17,-12
-6,-13,-7,9,1,-10,5,1,-16,-19,-16,-12
-7,-13,-6,10,0,-10,5,0,-16,-19,-16,-12
-9,-14,-6,11,-1,-10,5,-1,-16,-19,-16,-12
-10,-14,-5,12,-2,-10,5,-1,-16,-19,-16,-12
-11,-15,-5,12,-3,-10,5,-1,-16,-19,-16,-12
-11,-15,-5,13,-3,-10,6,-1,-16,-19,-16,-12
-11,-15,-5,13,-3,-9,6,-1,-16,-19,-16,-12
-11,-14,-4,12,-3,-9,6,-1,-16,-19,-16,-12
-10,-13,-3,11,-3,-8,7,-1,-15,-19,-16,-12
-11,-13,-3,12,-4,-8,6,-2,-15,-19,-16,-12
-12,-14,-2,13,-5,-8,6,-2,-15,-19,-16,-12
-13,-14,-2,14,-5,-8,5,-2,-16,-19,-16,-12
-13,-15,-2,14,-5,-8,5,-2,-16,-19,-16,-12
-12,-14,-3,13,-4,-8,4,-2,-17,-20,-16,-12
-11,-14,-3,13,-4,-8,4,-3,-17,-20,-17,-12
-11,-14,-3,13,-4,-8,4,-3,-17,-20,-17,-13
-11,-14,-3,13,-4,-8,4,-3,-17,-20,-17,-13
-11,-14,-3,12,-4,-8,4,-3,-17,-20,-17,-13
-10,-12,-3,11,-4,-8,4,-2,-16,-20,-17,-13
-9,-10,-3,10,-3,-7,5,-2,-16,-19,-17,-13
-7,-8,-2,8,-2,-5,6,-1,-15,-19,-16,-12
-5,-6,-2,6,-2,-4,8,0,-15,-18,-15,-11
-4,-5,-2,5,-1,-3,9,0,-14,-18,-15,-11
-4,-6,-2,5,-1,-4,9,0,-14,-18,-14,-11
-6,-8,-2,7,-1,-5,8,0,-15,-18,-15,-11
-7,-10,-2,9,-1,-6,8,0,-15,-19,-15,-12
-8,-11,-3,10,-2,-7,8,0,-15,-19,-15,-12
-8,-12,-3,10,-2,-8,7,0,-15,-19,-16,-12
-9,-13,-4,11,-2,-9,7,0,-16,-19,-16,-13
-9,-14,-5,12,-2,-9,6,0,-16,-20,-17,-13
-9,-14,-5,12,-2,-10,5,0,-17,-20,-17,-14
-10,-16,-5,13,-2,-11,3,0,-17,-21,-18,-15
-12,-18,-5,15,-3,-12,2,-1,-17,-21,-18,-15
-14,-19,-5,17,-4,-12,2,-1,-17,-21,-19,-16
-13,-19,-5,16,-3,-12,2,-2,-17,-22,-19,-16
-12,-17,-6,15,-2,-12,2,-2,-17,-22,-19,-16
-10,-16,-6,13,-2,-12,2,-1,-17,-22,-19,-16
-9,-14,-6,11,-1,-11,3,-1,-17,-22,-19,-16
-8,-13,-6,10,-1,-10,3,-1,-17,-22,-19,-16
-8,-14,-7,10,0,-10,4,0,-17,-23,-20,-17
-8,-15,-7,11,0,-11,4,0,-17,-23,-20,-17
-8,-15,-8,11,0,-11,3,0,-17,-24,-21,-17
-7,-16,-8,11,0,-12,3,0,-17,-24,-21,-18
-7,-16,-8,12,0,-12,2,0,-17,-25,-22,-18
-7,-17,-9,12,0,-13,2,0,-17,-25,-22,-19
-7,-17,-9,13,0,-14,2,1,-17,-26,-22,-19
-7,-17,-9,12,0,-14,3,1,-17,-26,-22,-19
-7,-16,-9,11,0,-13,3,2,-17,-26,-22,-19
-5,-13,-8,9,1,-11,3,4,-16,-25,-22,-19
-2,-10,-8,6,2,-9,4,6,-14,-23,-20,-18
0,-8,-9,4,4,-8,5,7,-13,-22,-19,-17
2,-8,-10,3,5,-9,6,7,-12,-22,-19,-17
2,-8,-10,3,5,-9,6,7,-12,-22,-19,-17
3,-8,-10,3,6,-9,6,7,-12,-22,-19,-17
3,-7,-11,2,6,-9,6,8,-12,-22,-18,-16
4,-7,-12,2,7,-10,6,9,-12,-21,-17,-15
4,-8,-12,2,8,-10,6,9,-12,-21,-17,-14
3,-8,-12,2,7,-10,6,9,-12,-21,-17,-14
2,-8,-11,2,6,-10,5,9,-13,-21,-17,-14
1,-9,-11,3,6,-10,5,9,-13,-21,-17,-14
0,-10,-11,4,5,-11,4,9,-13,-21,-17,-14
0,-11,-10,5,5,-11,4,9,-13,-21,-17,-15
-1,-12,-10,6,4,-11,4,9,-13,-22,-17,-15
-2,-12,-10,7,4,-11,4,9,-13,-22,-17,-15
-3,-12,-10,7,3,-11,4,9,-13,-22,-17,-15
-3,-13,-10,7,3,-12,4,10,-13,-21,-16,-14
-2,-12,-10,7,3,-12,4,10,-12,-20,-15,-13
-2,-12,-10,6,3,-11,4,11,-11,-19,-14,-13
-2,-12,-10,7,3,-11,5,12,-10,-18,-14,-12
-1,-12,-10,6,4,-11,5,13,-9,-17,-13,-12
0,-11,-11,6,5,-11,5,13,-9,-17,-12,-11
0,-10,-10,5,5,-10,5,13,-8,-16,-11,-11
1,-8,-10,3,5,-9,5,14,-7,-15,-10,-10
2,-7,-9,2,5,-8,5,15,-6,-14,-9,-9
1,-6,-8,2,5,-7,5,16,-5,-13,-8,-8
1,-6,-7,2,4,-7,5,17,-4,-12,-7,-7
0,-6,-6,3,3,-6,5,17,-3,-11,-6,-6
0,-6,-5,3,2,-5,6,17,-3,-10,-5,-5
0,-6,-4,2,2,-5,6,17,-2,-9,-4,-4
0,-5,-4,2,2,-5,6,18,-2,-9,-4,-4
0,-5,-4,2,2,-5,6,18,-1,-8,-3,-3
1,-4,-4,1,3,-4,7,19,0,-7,-2,-2
3,-2,-5,0,4,-4,8,21,2,-5,0,-1
4,0,-5,-2,5,-3,8,22,4,-3,1,0
5,0,-5,-3,5,-3,8,23,5,-1,2,1
6,1,-5,-3,5,-2,8,24,6,0,3,2
5,1,-5,-3,5,-2,7,24,7,1,3,3
4,0,-4,-2,4,-2,7,24,8,1,4,3
4,0,-4,-2,4,-2,7,24,8,2,4,4
4,1,-4,-2,4,-1,7,24,9,3,5,4
4,2,-3,-3,4,0,7,24,10,5,7,5
4,3,-2,-3,3,0,7,24,12,7,8,7
4,3,-1,-3,3,0,7,25,14,9,10,8
4,4,0,-4,2,1,8,25,16,11,11,9
4,5,0,-5,2,2,8,25,17,13,13,10
4,6,1,-5,1,3,9,25,18,14,14,11
4,6,2,-5,1,3,9,25,19,15,15,12
5,6,2,-6,1,4,9,26,21,16,16,13
5,7,2,-6,2,4,10,26,22,17,17,14
6,7,1,-7,2,4,10,26,23,19,18,15
7,8,1,-7,3,4,10,26,24,20,18,15
7,9,1,-8,3,5,10,26,24,21,19,15
7,10,2,-8,2,6,9,25,24,21,20,15
6,9,2,-7,2,6,9,24,24,21,19,15
4,8,3,-5,0,5,8,22,23,20,18,14
1,5,4,-3,-1,5,7,21,22,19,17,13
-1,4,4,-1,-2,4,6,20,22,19,17,12
-1,3,4,-1,-3,4,6,20,22,19,16,12
0,4,4,-2,-2,4,5,20,22,19,16,11
1,5,4,-3,-1,4,5,20,22,19,16,11
2,6,4,-3,-1,4,5,20,22,19,16,11
2,6,4,-4,-1,5,5,20,22,19,16,11
2,6,5,-4,-1,5,5,19,21,18,15,11
2,6,5,-4,-1,5,6,18,20,18,15,11
2,6,4,-4,-1,5,6,17,19,17,14,10
1,6,4,-4,-1,4,6,16,18,16,14,10
0,6,5,-3,-2,4,6,15,18,16,14,9
0,6,5,-3,-2,4,6,15,17,15,13,9
1,6,5,-3,-1,4,7,14,17,15,13,8
2,6,4,-4,-1,4,7,14,16,15,12,8
2,6,4,-4,0,5,6,14,16,15,12,8
3,6,4,-4,0,5,6,14,16,14,12,8
3,6,3,-5,0,4,6,13,15,14,12,8
3,6,3,-5,0,4,6,13,15,13,11,8
2,6,3,-4,0,4,6,12,14,12,11,8
2,6,3,-4,-1,4,6,11,13,12,10,8
3,7,3,-6,0,5,7,11,13,12,10,8
5,9,3,-7,0,6,7,12,13,12,11,9
7,10,4,-8,1,7,7,12,13,12,11,9
7,11,4,-9,1,8,7,12,13,12,11,9
7,12,5,-9,1,8,7,12,13,12,11,10
7,12,5,-9,1,8,8,12,13,12,11,10
7,12,5,-9,1,8,9,12,13,12,11,10
8,13,5,-11,1,9,10,12,13,12,11,10
9,14,5,-12,1,9,11,11,13,12,11,10
8,14,6,-11,1,9,11,11,12,11,10,9
7,13,6,-10,0,9,11,10,11,10,10,9
5,12,7,-8,0,9,10,9,10,10,9,8
4,11,7,-8,-1,9,10,9,9,9,9,8
4,11,7,-7,-1,9,9,8,9,9,9,8
3,10,7,-6,-1,8,9,8,8,8,8,8
2,8,6,-5,-1,6,9,7,7,7,7,7
1,6,5,-4,-1,5,8,6,7,6,6,6
2,6,5,-4,-1,5,8,6,7,6,5,5
3,7,5,-5,-1,6,9,7,7,6,6,5
4,9,5,-6,-1,7,10,8,8,7,7,6
5,12,6,-8,-1,9,10,8,8,8,8,7
5,14,8,-10,-1,11,9,7,8,8,8,8
5,15,10,-10,-2,12,7,5,7,8,8,8
4,15,11,-10,-3,13,5,3,5,7,8,8
3,15,11,-9,-3,13,2,0,4,5,7,8
2,14,12,-9,-4,13,0,-1,2,4,6,7
2,14,12,-9,-4,13,-1,-3,0,3,5,7
3,15,12,-9,-4,13,-1,-4,0,2,5,6
3,15,12,-9,-4,13,-2,-4,-1,1,4,6
3,14,11,-8,-4,12,-2,-5,-2,0,3,5
2,13,10,-8,-4,11,-3,-5,-3,0,2,4
3,12,10,-8,-3,11,-4,-6,-4,-1,2,4
3,12,9,-7,-2,10,-4,-6,-4,0,2,4
3,11,8,-7,-2,9,-3,-6,-3,0,3,4
5,11,6,-8,0,9,-3,-6,-3,0,3,4
6,12,6,-9,0,9,-3,-6,-3,0,3,4
7,12,5,-9,0,9,-3,-6,-3,0,3,4
7,11,4,-9,1,8,-3,-5,-3,0,3,3
8,10,3,-9,2,6,-2,-4,-2,0,3,3
8,10,2,-9,3,6,-2,-3,-2,0,3,3
8,9,2,-9,3,5,-2,-3,-3,0,3,3
7,8,1,-8,3,4,-2,-3,-3,0,2,2
7,8,1,-7,3,4,-2,-3,-3,0,2,2
7,8,1,-7,3,4,-1,-3,-2,0,2,2
6,7,1,-6,2,4,0,-2,-2,0,2,2
4,5,0,-4,1,2,1,-2,-2,0,1,1
3,3,0,-2,1,1,1,-1,-2,-1,0,1
1,1,0,-1,0,0,2,-1,-2,-1,0,0
0,0,0,0,0,0,2,-1,-2,-2,0,0
-1,-1,0,1,-1,-1,3,-1,-3,-2,-1,-1
-3,-2,0,3,-2,-1,3,-1,-3,-3,-1,-2
-5,-5,0,5,-2,-2,2,-1,-4,-4,-2,-3
-6,-6,-1,6,-2,-4,2,-2,-5,-5,-3,-3
-5,-7,-2,6,-1,-5,2,-2,-5,-5,-4,-4
-3,-6,-3,5,0,-5,1,-2,-6,-6,-5,-4
-3,-6,-3,5,0,-6,1,-2,-6,-6,-5,-4
-3,-6,-4,5,0,-6,1,-2,-6,-6,-5,-4
-2,-6,-4,4,1,-6,1,-2,-6,-6,-5,-4
-2,-5,-4,4,1,-6,2,-2,-6,-5,-5,-4
-2,-6,-5,4,1,-6,2,-2,-6,-5,-5,-4
-2,-7,-5,5,1,-6,1,-3,-6,-6,-5,-4
-3,-8,-5,6,0,-7,1,-3,-6,-6,-5,-4
-4,-9,-5,7,0,-7,1,-3,-7,-7,-5,-4
-5,-9,-4,7,0,-7,1,-3,-7,-7,-5,-4
-5,-9,-4,7,-1,-7,2,-3,-7,-7,-5,-5
-5,-8,-3,6,-1,-6,2,-3,-7,-7,-5,-5
-5,-8,-3,6,-1,-6,2,-3,-7,-7,-6,-5
-5,-9,-4,7,-1,-7,2,-3,-7,-7,-6,-6
-6,-10,-4,8,-2,-7,2,-2,-7,-7,-6,-6
-7,-12,-3,10,-2,-7,1,-2,-7,-8,-7,-6
-8,-12,-3,10,-3,-7,0,-2,-7,-8,-7,-6
-7,-11,-3,9,-2,-7,0,-2,-7,-7,-6,-5
-5,-9,-3,8,-2,-6,1,-1,-6,-6,-6,-5
-4,-8,-3,7,-1,-6,1,-1,-5,-6,-5,-5
-4,-8,-3,6,-1,-7,2,-1,-4,-5,-5,-5
-4,-8,-3,6,0,-7,3,0,-2,-3,-4,-4
-3,-7,-3,5,0,-6,5,2,1,-1,-2,-3
-2,-5,-2,4,0,-4,6,4,4,2,0,-1
-2,-5,-3,3,0,-4,7,5,8,5,2,0
-1,-6,-4,4,1,-5,8,7,10,7,3,0
0,-7,-5,4,2,-7,9,8,14,11,5,0
1,-7,-7,2,4,-8,9,11,19,16,9,2
5,-5,-9,0,7,-8,8,15,26,24,14,5
9,-4,-12,-2,10,-9,6,19,35,34,21,8
13,-2,-14,-5,14,-9,5,23,45,45,29,13
18,1,-16,-9,17,-8,3,25,57,58,39,20
25,8,-16,-16,20,-4,-1,23,68,74,52,29
31,17,-13,-23,22,2,-7,18,79,91,66,40
36,29,-7,-32,22,10,-14,8,87,107,81,52
43,43,0,-42,22,21,-22,-5,93,122,94,64
48,56,7,-51,21,31,-30,-20,97,134,106,75
49,66,15,-57,18,40,-38,-35,100,146,116,83
48,73,25,-59,12,49,-46,-51,102,155,124,91
44,78,34,-60,5,56,-52,-67,100,159,129,97
39,79,40,-58,0,60,-56,-82,90,152,126,97
30,74,44,-52,-6,59,-60,-97,70,133,113,90
20,65,45,-43,-12,55,-65,-112,44,107,95,78
11,55,44,-32,-16,49,-70,-124,15,77,74,65
2,42,40,-22,-18,41,-73,-132,-14,46,52,50
-5,27,32,-10,-18,29,-73,-133,-40,16,27,31
-12,10,22,1,-17,16,-69,-127,-60,-11,2,11
-17,-6,12,12,-15,2,-61,-116,-73,-34,-18,-6
-20,-19,2,20,-12,-8,-53,-102,-77,-47,-31,-18
-20,-26,-5,23,-8,-15,-44,-86,-75,-52,-38,-25
-18,-29,-10,23,-4,-20,-35,-70,-67,-51,-39,-28
-16,-29,-14,22,-1,-22,-27,-54,-59,-47,-37,-28
-15,-29,-16,21,1,-23,-20,-40,-51,-43,-35,-27
-13,-28,-17,20,2,-23,-14,-29,-44,-39,-32,-25
-9,-26,-18,18,4,-23,-10,-19,-37,-34,-29,-23
-5,-24,-18,15,6,-22,-5,-10,-31,-30,-26,-21
-2,-22,-19,12,7,-21,-1,-4,-26,-27,-23,-19
0,-20,-19,10,8,-20,2,0,-22,-24,-20,-17
0,-19,-18,10,8,-19,5,1,-20,-22,-19,-16
0,-18,-17,9,8,-18,6,2,-19,-21,-18,-15
0,-15,-16,7,8,-16,7,3,-18,-20,-17,-14
3,-10,-15,3,9,-13,8,4,-17,-19,-16,-13
4,-7,-13,1,9,-11,7,4,-16,-18,-15,-12
4,-7,-12,2,7,-10,6,3,-16,-18,-15,-12
0,-10,-10,4,4,-10,4,2,-16,-18,-15,-12
-3,-12,-8,7,2,-10,3,0,-16,-19,-15,-13
-5,-13,-7,8,0,-10,3,0,-16,-19,-15,-13
-5,-13,-7,9,0,-10,3,-1,-17,-19,-16,-13
-5,-13,-7,9,1,-10,4,-2,-17,-19,-16,-13
-5,-12,-7,9,1,-9,4,-2,-17,-20,-17,-13
-5,-11,-6,8,1,-9,4,-3,-17,-20,-17,-13
-5,-11,-6,8,0,-9,4,-3,-17,-21,-17,-13
-5,-12,-6,9,0,-9,3,-3,-17,-21,-17,-13
-5,-12,-6,9,0,-10,3,-3,-17,-21,-17,-13
-5,-12,-6,9,0,-9,3,-3,-17,-20,-17,-13
-5,-12,-6,9,0,-9,4,-3,-16,-20,-16,-13
-5,-12,-7,9,0,-10,5,-2,-16,-20,-16,-13
-6,-13,-7,10,0,-10,4,-2,-16,-21,-17,-14
-8,-13,-6,11,-1,-10,4,-3,-17,-21,-18,-14
-8,-13,-5,11,-2,-10,5,-3,-17,-20,-18,-14
-7,-13,-5,10,-1,-10,5,-3,-17,-20,-17,-14
-6,-13,-5,9,-1,-10,6,-3,-17,-20,-17,-14
-6,-13,-6,9,0,-9,6,-3,-17,-20,-16,-14
-5,-12,-6,9,0,-9,6,-2,-16,-20,-16,-13
-4,-11,-6,8,0,-8,6,-2,-15,-20,-15,-13
-4,-10,-6,7,1,-8,6,-2,-15,-19,-15,-13
-4,-11,-7,8,1,-9,6,-2,-16,-19,-16,-13
-5,-12,-7,9,1,-10,6,-2,-16,-19,-16,-14
-6,-14,-8,11,1,-11,5,-3,-16,-20,-17,-14
-7,-16,-8,12,1,-13,5,-3,-17,-21,-18,-15
-8,-18,-9,13,0,-14,4,-3,-18,-22,-18,-16
-9,-20,-10,15,0,-16,3,-4,-19,-22,-19,-17
-11,-21,-10,16,0,-16,1,-4,-19,-23,-19,-17
-11,-21,-10,16,-1,-16,0,-4,-20,-24,-20,-17
-10,-20,-10,15,0,-15,0,-4,-20,-24,-20,-17
-9,-18,-10,13,0,-15,1,-4,-19,-23,-20,-17
-7,-17,-10,12,0,-14,2,-3,-19,-23,-20,-17
-6,-17,-10,11,1,-14,2,-3,-19,-23,-19,-16
-6,-16,-10,11,1,-14,2,-2,-18,-22,-19,-16
-5,-15,-10,10,2,-13,3,0,-17,-22,-18,-15
-4,-15,-10,9,2,-13,3,0,-16,-22,-18,-15
-4,-15,-11,10,3,-13,4,1,-16,-21,-18,-15
-5,-16,-11,11,3,-14,4,1,-15,-21,-18,-15
-5,-17,-12,11,3,-14,5,1,-15,-21,-18,-15
-5,-17,-12,11,3,-14,5,2,-14,-21,-18,-15
-3,-16,-12,10,4,-14,6,3,-13,-20,-18,-15
-2,-15,-11,9,4,-14,6,4,-13,-20,-18,-15
-1,-13,-11,7,4,-13,6,5,-12,-20,-18,-15
1,-11,-12,5,6,-12,6,6,-11,-20,-18,-15
3,-9,-12,3,7,-11,6,6,-11,-20,-17,-15
4,-8,-13,2,8,-11,6,7,-11,-20,-17,-15
4,-9,-13,3,8,-11,6,7,-11,-21,-17,-16
3,-9,-12,3,7,-11,6,7,-11,-21,-18,-16
3,-10,-12,4,7,-11,7,7,-12,-21,-18,-16
2,-11,-12,4,7,-12,7,6,-12,-22,-18,-16
1,-12,-12,5,7,-13,7,6,-12,-22,-18,-16
1,-12,-13,5,7,-13,7,7,-12,-21,-18,-16
0,-14,-13,7,6,-14,7,8,-12,-21,-17,-16
-2,-16,-14,9,5,-15,7,8,-13,-22,-17,-16
-3,-16,-14,9,5,-15,6,8,-13,-22,-17,-16
-2,-14,-13,8,5,-14,6,9,-12,-21,-16,-16
-1,-14,-13,7,5,-14,6,10,-11,-21,-16,-15
0,-13,-13,7,5,-14,6,10,-11,-20,-16,-15
0,-12,-12,5,6,-12,7,11,-10,-19,-15,-14
2,-10,-12,3,6,-11,8,12,-10,-19,-15,-14
2,-8,-11,2,6,-10,9,13,-9,-19,-14,-13
1,-8,-11,3,6,-9,9,13,-10,-19,-14,-14
0,-9,-10,4,5,-9,8,12,-10,-19,-14,-14
-1,-10,-9,5,4,-9,8,12,-10,-19,-14,-13
-1,-10,-9,6,3,-9,8,12,-9,-18,-13,-13
-2,-11,-9,7,3,-10,8,12,-9,-18,-13,-13
-3,-13,-10,8,3,-11,7,12,-9,-18,-13,-13
-5,-15,-10,10,2,-13,6,12,-10,-18,-13,-14
-7,-17,-10,13,1,-14,5,11,-10,-18,-14,-14
-9,-19,-10,15,0,-14,5,11,-10,-18,-14,-14
-11,-20,-9,15,0,-14,5,12,-9,-18,-13,-13
-10,-18,-9,14,0,-13,6,13,-7,-16,-12,-12
-6,-14,-8,10,1,-11,7,15,-5,-14,-10,-10
-2,-10,-8,6,2,-9,9,17,-3,-12,-8,-8
0,-8,-8,4,3,-8,10,18,-2,-10,-6,-6
2,-6,-8,2,4,-7,10,19,-1,-9,-5,-5
4,-4,-7,0,5,-6,11,20,0,-8,-4,-4
5,-2,-7,-1,6,-5,11,21,1,-6,-2,-3
6,-1,-7,-2,6,-4,11,21,2,-5,-1,-2
7,0,-7,-3,6,-3,11,22,3,-4,-1,-2
7,0,-7,-4,6,-3,12,22,4,-3,0,-1
7,0,-7,-3,6,-3,12,22,4,-3,0,-1
6,0,-6,-3,5,-3,12,23,5,-2,1,0
5,0,-6,-2,4,-3,12,23,5,-1,2,0
5,0,-5,-3,4,-2,12,24,7,0,4,2
5,0,-5,-3,4,-2,11,24,8,2,6,3
5,0,-5,-3,4,-2,11,24,9,3,7,4
4,0,-4,-2,4,-2,10,24,10,5,8,5
3,1,-3,-2,3,-1,10,24,11,6,9,5
2,2,-1,-2,1,0,10,24,12,7,10,6
1,3,1,-2,0,2,10,24,13,9,11,7
1,3,2,-2,-1,3,9,24,14,10,12,8
0,4,3,-2,-1,4,9,25,16,12,13,9
0,4,4,-2,-2,5,9,25,18,14,15,11
0,5,5,-2,-2,6,10,25,20,16,16,12
0,6,5,-3,-2,6,10,26,22,17,17,13
1,8,5,-5,-2,7,11,26,23,19,18,13
2,9,6,-6,-1,8,10,26,24,19,18,13
3,9,6,-6,-1,8,10,26,24,20,19,13
3,9,6,-7,-1,8,10,26,24,20,19,12
4,10,6,-7,0,8,10,26,25,21,19,13
5,11,6,-8,0,9,11,25,25,21,20,13
6,12,6,-9,0,9,11,25,25,21,20,13
6,12,6,-8,0,9,11,24,25,22,20,14
5,11,6,-8,0,9,11,24,25,22,20,14
4,9,5,-6,0,7,10,23,24,22,19,13
2,7,4,-4,-1,6,9,21,23,21,18,12
1,5,4,-3,-1,5,9,20,22,20,17,12
0,4,5,-2,-2,5,8,20,22,19,17,11
-1,4,6,-2,-3,5,7,20,22,19,17,11
0,5,6,-2,-3,5,7,19,21,19,17,11
0,7,7,-4,-3,7,7,19,21,19,17,11
2,10,8,-6,-3,9,7,18,21,19,17,11
3,12,8,-8,-3,10,8,18,21,19,17,11
3,11,8,-7,-3,10,9,17,20,18,16,10
2,10,7,-6,-3,9,9,16,18,17,15,10
2,9,6,-5,-2,7,9,15,17,16,14,9
2,7,6,-4,-2,6,9,14,17,16,14,9
1,6,6,-3,-2,5,8,14,16,15,14,9
0,4,5,-1,-3,4,7,13,15,14,13,8
-2,2,5,0,-4,3,6,12,14,13,12,7
-4,1,4,1,-4,2,6,11,14,12,11,6
-4,0,4,2,-4,1,6,11,13,12,11,6
-5,0,4,2,-5,1,5,11,13,12,10,6
-6,0,5,3,-5,1,4,10,12,11,10,6
-6,0,5,3,-5,1,3,9,11,11,9,5
-5,0,5,2,-5,2,3,9,11,11,9,5
-4,2,5,1,-4,3,3,9,11,11,9,5
-3,3,6,0,-4,4,5,9,11,10,9,5
-2,5,7,-1,-5,6,6,10,11,10,9,6
-2,6,8,-2,-5,7,7,10,11,10,10,6
-2,8,9,-3,-6,9,8,10,11,10,10,6
-2,9,11,-3,-6,10,9,10,11,11,11,7
-2,10,12,-4,-7,11,10,11,12,11,11,8
-2,10,12,-5,-7,11,10,11,12,11,11,9
-1,11,12,-5,-7,11,10,10,11,11,11,9
-1,11,12,-5,-7,11,10,10,11,11,11,9
-1,11,12,-5,-7,11,10,10,11,11,11,9
-1,10,12,-5,-6,10,9,10,10,10,11,8
-1,10,10,-4,-6,9,9,9,9,10,10,8
0,10,9,-5,-5,9,9,8,8,9,10,7
0,10,9,-5,-5,9,9,7,8,9,9,7
0,9,9,-5,-5,9,9,7,7,8,9,6
0,9,9,-5,-5,9,8,6,7,8,8,6
-1,9,9,-5,-5,9,7,5,6,7,8,6
0,10,10,-6,-5,10,6,4,6,7,8,6
0,12,11,-7,-5,11,4,3,5,6,8,7
1,13,11,-7,-5,12,3,1,4,6,8,7
1,14,12,-8,-5,13,2,0,3,5,7,7
1,14,12,-8,-6,13,1,-1,2,5,7,7
0,13,13,-7,-6,13,0,-2,1,4,6,6
-2,12,13,-5,-7,13,-1,-3,0,3,5,5
-3,10,12,-4,-7,11,-1,-4,-2,1,3,3
-4,8,11,-2,-8,10,-2,-5,-3,0,2,2
-4,7,11,-1,-8,9,-2,-6,-4,-1,2,2
-5,6,11,-1,-8,8,-1,-6,-3,0,2,2
-5,5,10,0,-8,7,-2,-6,-3,0,3,2
-5,4,9,0,-8,7,-3,-6,-3,0,3,2
-5,4,9,0,-8,6,-4,-6,-3,0,3,3
-5,4,9,0,-8,6,-4,-6,-3,0,3,3
-6,3,9,1,-8,6,-5,-6,-3,0,3,3
-6,2,8,2,-8,5,-4,-6,-3,0,2,3
-5,2,7,2,-7,5,-4,-5,-3,0,2,2
-4,2,6,1,-6,4,-3,-4,-3,0,2,2
-4,1,6,1,-6,4,-3,-4,-3,-1,2,2
-3,1,5,0,-5,3,-1,-3,-3,-1,2,1
-1,3,5,-1,-4,4,1,-1,-2,0,3,2
3,6,4,-5,-1,5,4,1,0,2,4,3
5,8,4,-7,0,6,6,2,1,3,4,4
6,9,3,-8,1,6,7,3,1,3,4,4
6,8,3,-8,1,5,8,3,1,3,4,3
6,8,2,-7,1,5,7,3,0,2,3,2
6,8,2,-7,1,5,7,2,0,0,2,1
6,8,1,-7,2,5,6,2,-1,-1,0,0
6,7,1,-7,2,4,6,1,-2,-2,0,-1
4,5,0,-5,2,3,6,1,-3,-3,-1,-2
2,2,0,-2,1,1,5,0,-4,-4,-2,-3
0,-1,0,0,0,-1,4,0,-4,-4,-3,-3
-2,-2,-1,1,-1,-2,3,0,-4,-4,-3,-3
-3,-3,0,2,-2,-2,3,0,-4,-4,-2,-3
-3,-3,0,3,-2,-2,3,0,-3,-3,-2,-3
-4,-4,0,4,-2,-2,3,1,-3,-3,-2,-3
-4,-4,-1,4,-2,-3,3,0,-4,-4,-2,-3
-4,-6,-1,5,-2,-3,3,0,-4,-4,-2,-3
-6,-8,-1,7,-3,-4,3,0,-5,-5,-3,-3
-7,-9,-1,8,-3,-5,3,-1,-5,-5,-3,-3
-8,-9,-1,9,-3,-5,3,-1,-6,-6,-3,-4
-8,-10,-2,9,-3,-6,2,-1,-6,-6,-3,-4
-8,-10,-2,9,-3,-6,2,-2,-6,-6,-4,-4
-9,-11,-2,10,-3,-7,2,-2,-6,-6,-4,-4
-8,-10,-2,10,-3,-6,2,-1,-6,-5,-4,-4
-8,-10,-2,9,-3,-6,2,-1,-6,-5,-4,-4
-8,-10,-2,8,-3,-6,2,-1,-6,-5,-4,-4
-8,-10,-2,8,-3,-6,2,-1,-6,-5,-4,-4
-8,-10,-2,8,-3,-6,3,0,-6,-5,-4,-4
-7,-9,-2,8,-3,-5,3,0,-5,-5,-3,-4
-6,-7,-1,6,-2,-4,4,1,-4,-5,-3,-4
-4,-5,-1,4,-2,-3,4,2,-2,-4,-2,-4
-3,-4,-1,3,-1,-3,5,3,-1,-3,-2,-4
-3,-4,-1,3,-1,-3,5,3,0,-3,-2,-4
-4,-5,-1,4,-1,-3,6,4,2,-1,-2,-4
-5,-7,-2,6,-1,-4,6,4,4,0,-1,-4
-5,-9,-4,7,-1,-6,6,4,6,3,0,-4
-4,-10,-6,6,0,-7,6,6,10,7,2,-3
-1,-9,-8,4,3,-8,6,8,16,13,6,-1
2,-7,-10,1,6,-8,7,12,24,21,12,1
7,-5,-12,-1,9,-9,6,17,34,31,19,6
11,-3,-15,-4,12,-9,5,22,45,42,27,11
15,-1,-16,-8,15,-8,3,25,57,55,36,17
21,5,-16,-13,18,-5,-1,25,69,70,49,26
27,14,-13,-21,20,1,-6,20,80,88,63,37
32,24,-8,-28,20,9,-12,11,88,105,78,49
34,35,0,-35,17,18,-20,-2,94,119,91,60
36,45,8,-40,13,27,-28,-17,97,131,102,69
37,53,16,-45,10,35,-36,-32,100,142,112,78
37,61,24,-48,6,42,-45,-47,102,152,120,86
34,66,32,-50,0,49,-53,-63,100,158,126,92
28,67,39,-47,-6,53,-59,-79,91,154,124,93
20,63,44,-41,-12,54,-63,-93,73,138,114,87
12,57,45,-34,-17,52,-66,-106,49,113,97,77
5,50,45,-27,-20,48,-69,-117,22,86,79,65
-1,40,41,-19,-22,41,-73,-124,-7,56,58,50
-8,25,33,-8,-21,28,-75,-126,-34,25,34,32
-14,7,21,3,-18,13,-72,-121,-57,-5,9,12
-18,-9,9,13,-14,0,-66,-112,-73,-31,-14,-6
-20,-21,-1,20,-10,-11,-57,-99,-80,-48,-30,-20
-20,-29,-9,24,-6,-19,-47,-84,-80,-56,-39,-28
-19,-33,-14,25,-3,-23,-37,-68,-74,-56,-41,-32
-17,-34,-17,25,0,-25,-26,-52,-65,-52,-40,-33
-14,-33,-19,23,2,-26,-18,-38,-56,-48,-38,-32
-11,-31,-20,20,4,-26,-11,-26,-47,-43,-34,-30
-8,-29,-21,18,6,-26,-5,-16,-39,-38,-31,-28
-5,-27,-22,16,8,-25,-1,-8,-33,-34,-28,-25
-1,-24,-22,12,9,-24,2,-2,-28,-30,-25,-23
1,-22,-22,10,10,-22,4,2,-24,-27,-22,-20
1,-20,-22,9,10,-20,6,4,-22,-24,-20,-19
0,-19,-20,9,9,-19,7,6,-20,-22,-19,-18
-1,-19,-19,10,8,-18,7,7,-18,-21,-18,-17
-3,-19,-17,11,7,-18,7,7,-17,-21,-17,-16
-2,-18,-16,10,7,-17,6,6,-16,-20,-16,-15
-1,-16,-15,9,7,-16,6,5,-16,-20,-15,-14
-1,-15,-13,8,6,-14,6,3,-16,-19,-15,-14
-1,-14,-12,7,5,-13,6,2,-16,-19,-15,-14
-1,-13,-11,6,4,-11,6,1,-16,-19,-15,-14
-2,-12,-11,6,4,-11,6,1,-16,-19,-15,-14
-3,-12,-10,7,3,-11,6,0,-17,-19,-15,-14
-5,-13,-10,8,3,-11,6,0,-17,-19,-15,-15
-6,-14,-9,10,2,-12,5,-1,-17,-20,-15,-15
-7,-14,-9,11,1,-12,4,-1,-17,-20,-15,-15
-6,-15,-9,11,1,-12,4,-2,-17,-21,-15,-15
-6,-15,-9,10,1,-12,4,-2,-17,-21,-15,-15
-6,-15,-9,11,0,-12,4,-3,-18,-21,-15,-15
-9,-17,-8,13,0,-13,3,-3,-18,-21,-16,-15
-12,-20,-8,15,-1,-14,3,-4,-19,-22,-16,-16
-13,-21,-8,17,-2,-15,2,-4,-19,-22,-17,-17
-14,-21,-8,17,-3,-14,2,-5,-19,-23,-17,-17
-13,-19,-7,15,-2,-13,2,-5,-19,-23,-17,-17
-10,-18,-7,13,-1,-12,3,-5,-19,-22,-17,-16
-9,-18,-8,13,-1,-12,3,-5,-19,-22,-17,-16
-9,-17,-8,13,-1,-12,4,-6,-19,-22,-17,-16
-9,-17,-8,12,0,-13,4,-6,-19,-22,-17,-16
-8,-17,-9,12,0,-13,5,-5,-19,-22,-16,-16
-7,-16,-9,11,1,-13,5,-5,-19,-22,-16,-16
-7,-15,-9,11,1,-13,5,-4,-19,-22,-17,-17
-8,-16,-9,12,1,-13,5,-4,-19,-22,-18,-17
-10,-18,-9,14,0,-14,4,-4,-19,-23,-18,-18
-10,-19,-9,14,0,-14,3,-4,-19,-23,-19,-18
-10,-19,-9,15,0,-15,3,-4,-19,-23,-19,-18
-11,-20,-9,15,0,-15,3,-4,-19,-23,-18,-18
-12,-21,-9,16,-1,-15,3,-3,-19,-23,-18,-18
-12,-21,-10,16,0,-15,3,-3,-18,-22,-17,-17
-11,-20,-10,15,0,-15,3,-2,-18,-22,-17,-17
-9,-20,-11,14,1,-15,3,-2,-18,-22,-18,-17
-9,-21,-12,14,2,-16,3,-2,-18,-22,-18,-17
-8,-21,-13,14,2,-17,2,-2,-18,-22,-18,-18
-8,-21,-13,14,1,-17,2,-2,-18,-22,-18,-18
-8,-21,-13,14,2,-17,2,-1,-18,-23,-18,-18
-7,-21,-14,13,3,-17,3,-1,-17,-23,-18,-18
-6,-21,-15,13,4,-18,3,0,-17,-23,-18,-19
-6,-21,-16,14,4,-18,4,0,-17,-23,-18,-19
-7,-23,-16,15,4,-19,5,0,-17,-24,-19,-20
-9,-24,-16,16,3,-20,5,1,-16,-24,-19,-20
-10,-26,-16,18,2,-21,4,1,-16,-24,-20,-21
-10,-26,-17,18,2,-21,2,1,-16,-24,-20,-21
-8,-24,-17,16,3,-21,1,2,-16,-24,-20,-21
-6,-23,-17,14,5,-20,2,3,-15,-24,-19,-20
-4,-21,-17,12,6,-19,3,3,-15,-23,-19,-20
-2,-19,-16,10,6,-18,4,4,-14,-23,-18,-20
-1,-18,-16,9,7,-17,5,4,-14,-23,-18,-19
-1,-18,-17,9,7,-17,5,5,-13,-23,-18,-19
-1,-18,-17,9,7,-17,6,6,-13,-23,-18,-18
-2,-18,-17,10,6,-17,6,6,-12,-23,-18,-18
-2,-19,-17,10,6,-18,6,6,-13,-23,-19,-19
-3,-20,-17,11,6,-18,5,6,-13,-24,-19,-19
-3,-20,-16,11,6,-18,5,7,-13,-23,-19,-19
-4,-20,-15,12,5,-18,6,7,-12,-23,-18,-19
-4,-20,-15,12,5,-18,6,8,-12,-23,-18,-19
-4,-19,-15,11,5,-17,7,8,-11,-22,-17,-18
-3,-18,-15,10,6,-16,8,10,-10,-21,-16,-17
-1,-17,-15,9,6,-16,9,11,-10,-21,-15,-16
0,-16,-15,7,7,-15,9,11,-9,-20,-15,-15
1,-14,-15,5,7,-14,9,12,-9,-20,-14,-15
2,-12,-14,4,8,-13,9,12,-8,-19,-14,-14
3,-11,-14,3,8,-13,10,13,-8,-19,-13,-14
2,-11,-14,3,8,-13,10,13,-8,-18,-13,-14
0,-12,-14,4,7,-13,9,14,-8,-18,-13,-13
0,-12,-13,5,6,-13,9,14,-8,-18,-12,-13
-1,-13,-13,6,6,-13,9,14,-8,-18,-12,-13
-1,-13,-13,6,5,-13,9,14,-8,-17,-12,-13
-1,-13,-13,6,5,-13,10,15,-7,-17,-11,-13
0,-13,-13,6,6,-13,10,16,-6,-16,-11,-12
0,-13,-13,6,6,-13,11,16,-5,-16,-10,-12
-1,-13,-12,7,5,-13,11,17,-5,-15,-9,-11
-2,-14,-12,7,4,-13,11,18,-4,-14,-8,-11
-3,-14,-11,8,4,-13,11,18,-3,-13,-7,-10
-4,-14,-11,8,3,-12,10,19,-3,-12,-7,-9
-4,-14,-11,8,3,-12,9,19,-2,-11,-6,-8
-3,-14,-11,7,3,-11,8,20,-1,-11,-6,-8
-2,-13,-10,6,4,-11,8,20,0,-10,-5,-7
-2,-12,-10,6,4,-11,9,20,0,-9,-5,-7
-1,-11,-10,5,4,-11,10,20,0,-9,-4,-7
-1,-10,-9,5,4,-10,10,21,0,-8,-4,-7
-1,-10,-9,4,4,-10,11,21,1,-7,-3,-6
-1,-9,-9,4,4,-9,11,22,2,-6,-2,-5
-1,-9,-8,4,3,-9,12,23,4,-5,-1,-4
-1,-9,-8,4,3,-8,12,23,5,-3,0,-3
-1,-9,-7,5,3,-8,13,24,6,-2,1,-3
-1,-8,-6,5,2,-7,12,24,7,0,2,-2
-1,-7,-5,4,1,-6,11,24,8,1,3,-2
0,-4,-4,2,1,-4,11,25,10,2,4,0
1,-1,-3,0,2,-2,11,25,12,4,6,1
2,1,-2,-2,2,-1,12,26,13,6,7,3
3,3,-1,-3,2,0,12,26,15,8,8,5
5,5,-1,-5,2,1,13,26,16,9,9,6
5,6,0,-6,2,2,13,26,17,10,10,7
5,5,0,-6,2,3,12,26,18,11,10,8
4,5,1,-5,1,3,12,26,19,12,11,9
3,5,2,-5,0,4,12,26,20,14,12,10
2,5,3,-4,-1,4,11,25,21,15,13,10
0,4,4,-3,-2,4,11,24,21,16,14,10
-1,3,5,-2,-3,4,10,23,21,16,14,10
-2,4,5,-1,-4,4,10,23,21,16,14,10
-2,4,5,-1,-4,5,9,22,21,17,14,10
-3,4,6,0,-5,5,9,21,21,17,14,10
-4,3,6,0,-5,5,9,20,21,17,14,10
-5,2,7,1,-6,5,9,20,21,17,14,10
-6,2,8,1,-7,5,8,19,21,17,14,10
-6,1,8,2,-7,4,7,19,21,17,13,9
-7,0,7,2,-8,4,6,18,20,17,13,9
-8,0,7,4,-8,3,6,17,20,17,12,9
-8,-1,7,5,-8,2,5,16,19,16,12,8
-7,-1,6,4,-7,2,5,16,19,16,11,8
-5,0,5,2,-5,3,6,16,18,16,11,8
-2,2,4,0,-3,3,6,16,18,16,11,8
0,3,4,-2,-2,4,7,16,18,16,12,8
1,5,4,-3,-1,4,7,16,18,16,12,8
1,5,4,-3,-2,5,7,15,18,15,11,8
0,5,5,-2,-3,5,6,14,17,15,11,8
-2,5,6,-1,-4,5,6,14,17,14,10,7
-3,4,6,0,-5,5,6,13,16,14,10,7
-4,3,7,0,-6,5,6,13,15,13,9,6
-6,2,7,2,-7,4,5,12,13,12,9,5
-7,0,7,3,-8,3,4,11,12,11,8,4
-8,-1,7,4,-8,3,4,10,12,11,8,4
-8,-1,7,4,-8,2,4,10,12,11,8,5
-8,-1,7,4,-8,2,4,10,11,11,8,5
-8,-1,7,4,-8,3,4,10,11,10,7,5
-7,0,7,4,-8,3,4,9,11,10,7,5
-7,1,7,3,-8,4,5,9,11,10,7,5
-7,1,8,4,-8,4,5,9,10,10,7,5
-7,1,8,3,-9,5,6,9,10,10,7,5
-6,3,9,2,-8,6,6,10,11,10,8,5
-4,6,10,-1,-8,8,7,11,12,11,9,6
-1,10,12,-4,-7,10,8,12,13,12,10,8
0,13,13,-7,-6,12,9,13,14,13,11,9
1,14,13,-8,-6,14,10,13,14,14,11,9
0,13,14,-7,-7,14,10,12,14,13,11,9
-2,12,14,-5,-8,13,10,11,13,12,10,8
-4,10,13,-3,-8,12,9,10,11,11,9,7
-5,7,13,-1,-9,10,8,8,9,10,7,6
-6,5,12,0,-9,8,6,6,7,8,6,4
-8,2,11,2,-9,6,5,5,6,7,5,3
-9,0,10,4,-10,4,5,5,5,6,4,2
-9,0,10,5,-10,5,5,5,5,6,3,2
-8,1,10,4,-10,6,5,5,5,5,3,2
-8,3,11,3,-9,7,5,5,5,5,3,2
-6,5,11,0,-9,8,4,5,5,5,3,3
-4,8,11,-2,-8,10,3,4,5,6,4,4
-3,10,12,-4,-8,11,2,3,5,6,5,5
-2,12,13,-6,-8,12,1,1,4,5,5,5
-1,13,14,-6,-7,13,1,0,3,5,5,5
-2,12,14,-5,-7,13,0,-2,2,4,4,5
-3,11,14,-4,-7,12,-1,-4,0,3,3,5
-2,10,13,-4,-7,12,-1,-5,0,2,3,5
-1,11,12,-5,-7,12,-1,-5,-1,1,3,5
-1,11,12,-5,-6,12,-1,-5,-1,1,3,4
-1,11,12,-5,-6,11,-1,-5,-2,0,2,4
-2,10,12,-5,-7,11,-2,-5,-3,0,2,3
-2,9,12,-3,-7,10,-2,-6,-4,0,1,3
-3,8,12,-2,-8,10,-3,-6,-4,0,1,3
-3,8,12,-2,-8,10,-3,-5,-3,0,2,4
-1,10,11,-4,-7,11,-3,-5,-2,0,3,4
0,11,10,-5,-5,10,-3,-4,-2,1,3,4
0,10,8,-5,-4,9,-4,-4,-3,1,3,4
1,8,6,-5,-3,7,-5,-4,-3,1,2,3
1,7,5,-4,-3,5,-4,-3,-2,1,2,3
1,6,5,-4,-2,5,-2,-3,-2,1,2,3
0,4,4,-2,-2,4,-1,-3,-2,0,1,2
-2,2,4,0,-3,3,0,-3,-2,0,0,1
-6,-1,4,4,-5,1,0,-2,-2,0,0,0
-10,-5,4,8,-7,0,0,-2,-3,-1,-1,0
-13,-9,3,11,-8,-2,0,-2,-3,-2,-1,-1
-13,-10,2,12,-8,-4,0,-2,-4,-2,-2,-2
-13,-11,2,12,-8,-4,1,-2,-4,-3,-2,-3
-13,-11,2,12,-8,-4,2,-2,-5,-3,-3,-3
-13,-11,2,12,-8,-4,2,-2,-5,-4,-3,-4
-13,-11,2,12,-7,-4,2,-3,-6,-4,-4,-4
-12,-10,1,11,-6,-4,1,-3,-6,-5,-4,-5
-11,-9,1,11,-5,-4,1,-4,-7,-5,-4,-5
-11,-10,0,11,-6,-4,0,-4,-7,-6,-5,-5
-12,-11,0,11,-6,-5,-1,-5,-7,-6,-5,-6
-12,-12,0,12,-7,-6,-1,-5,-8,-7,-6,-6
-12,-13,0,12,-6,-6,-1,-5,-8,-7,-6,-6
-11,-13,-1,12,-6,-7,-1,-5,-8,-7,-6,-6
-10,-12,-1,11,-5,-7,0,-5,-8,-7,-7,-6
-10,-12,-2,12,-4,-7,0,-5,-8,-7,-7,-6
-10,-12,-2,12,-4,-7,0,-5,-8,-7,-6,-6
-9,-11,-2,11,-4,-7,1,-4,-8,-7,-6,-5
-8,-10,-2,9,-3,-6,2,-3,-7,-6,-5,-5
-7,-9,-2,8,-3,-6,3,-2,-7,-6,-5,-4
-7,-8,-2,7,-3,-5,4,-1,-6,-6,-5,-4
-6,-8,-2,7,-3,-5,3,-1,-6,-6,-5,-4
-7,-9,-2,7,-3,-5,3,-1,-6,-6,-6,-5
-8,-10,-2,8,-3,-6,2,-1,-7,-7,-6,-5
-9,-11,-2,10,-3,-6,1,-2,-7,-7,-7,-6
-10,-12,-2,11,-4,-7,0,-2,-7,-7,-7,-7
-9,-12,-3,11,-4,-7,0,-2,-7,-7,-8,-7
-9,-12,-3,11,-4,-7,1,-2,-7,-7,-8,-7
-10,-13,-2,12,-4,-8,1,-2,-6,-7,-8,-8
-11,-14,-2,12,-5,-8,2,-2,-5,-7,-8,-8
-12,-14,-2,13,-5,-9,3,-1,-4,-6,-7,-8
-13,-15,-2,14,-5,-8,4,0,-2,-4,-7,-7
-14,-14,-1,14,-6,-8,5,2,0,-2,-6,-7
-13,-14,0,14,-6,-7,6,3,4,0,-4,-6
-12,-13,-1,13,-5,-8,6,5,7,4,-2,-5
-10,-14,-3,12,-3,-9,7,7,11,7,0,-4
-9,-15,-6,12,-2,-11,6,9,15,11,3,-3
-7,-16,-8,11,0,-12,4,11,21,17,7,-1
-4,-14,-10,9,2,-12,3,14,30,26,13,2
0,-12,-11,6,5,-12,1,19,40,36,20,7
4,-9,-13,3,8,-11,0,22,52,49,29,12
10,-4,-13,-2,11,-9,-4,22,64,64,40,20
15,4,-11,-9,13,-4,-8,18,75,81,54,30
21,16,-5,-18,13,5,-15,10,85,99,69,42
26,30,3,-28,11,16,-22,-2,91,114,83,54
30,43,13,-36,9,28,-30,-17,95,127,95,65
32,54,21,-43,6,38,-37,-31,99,139,106,75
34,65,29,-49,3,47,-44,-45,104,150,116,84
36,74,38,-55,0,56,-52,-60,105,159,124,92
35,80,45,-57,-4,62,-58,-74,100,159,126,96
30,78,48,-53,-9,63,-63,-89,85,147,118,91
20,69,49,-44,-14,58,-68,-103,60,122,101,81
9,57,47,-32,-19,52,-73,-116,30,92,81,68
0,44,44,-21,-22,44,-77,-125,0,61,60,53
-8,28,37,-9,-23,33,-78,-129,-29,30,37,36
-15,11,27,2,-21,19,-74,-125,-53,0,12,17
-21,-5,15,13,-19,5,-67,-115,-70,-25,-11,-1
-24,-20,5,23,-16,-8,-58,-102,-80,-44,-28,-16
-25,-29,-4,28,-12,-18,-48,-87,-81,-54,-39,-26
-23,-34,-10,30,-7,-23,-39,-70,-75,-55,-42,-30
-21,-36,-14,29,-4,-26,-30,-53,-67,-52,-42,-31
-18,-34,-15,27,-2,-25,-21,-38,-57,-47,-39,-30
-16,-32,-16,24,0,-24,-13,-25,-48,-42,-35,-28
-15,-31,-16,23,0,-24,-7,-15,-40,-37,-31,-26
-14,-31,-17,22,0,-24,-4,-8,-34,-33,-29,-25
-13,-30,-18,22,1,-25,-1,-2,-29,-30,-27,-23
-13,-30,-18,22,1,-25,0,1,-25,-28,-25,-22
-15,-32,-17,24,0,-25,1,2,-23,-26,-24,-22
-17,-33,-16,26,-1,-25,2,3,-22,-25,-24,-22
-17,-33,-15,25,-1,-24,3,3,-22,-24,-23,-22
-16,-31,-14,24,-1,-23,4,4,-21,-23,-22,-20
-15,-29,-13,22,-1,-21,5,3,-20,-23,-21,-19
-15,-26,-12,20,-2,-19,5,2,-20,-23,-21,-19
-14,-24,-10,19,-2,-17,5,1,-19,-22,-20,-18
-12,-21,-9,17,-2,-16,4,0,-19,-21,-20,-17
-11,-19,-9,16,-1,-15,4,0,-18,-21,-19,-16
-11,-20,-8,15,-1,-15,2,0,-19,-20,-18,-16
-12,-21,-8,16,-1,-15,1,-1,-19,-21,-18,-16
-13,-22,-8,18,-2,-16,1,-3,-20,-22,-19,-16
-15,-24,-8,19,-2,-17,0,-4,-21,-23,-19,-17
-16,-26,-9,21,-3,-17,-1,-5,-21,-23,-20,-18
-17,-25,-9,21,-4,-17,-1,-6,-21,-23,-20,-18
-16,-24,-9,20,-3,-17,-1,-5,-20,-23,-20,-18
-15,-23,-8,19,-3,-16,0,-5,-19,-22,-19,-17
-16,-23,-7,20,-4,-16,0,-4,-19,-22,-19,-17
-16,-23,-7,20,-4,-15,0,-4,-19,-22,-19,-17
-14,-21,-7,18,-3,-14,1,-4,-19,-21,-19,-16
-12,-19,-7,16,-2,-13,1,-3,-18,-21,-18,-16
-11,-18,-7,14,-2,-12,2,-3,-17,-20,-18,-15
-10,-17,-6,14,-2,-12,3,-3,-17,-20,-17,-15
-10,-16,-6,13,-2,-11,3,-2,-17,-20,-17,-15
-9,-15,-6,12,-1,-11,3,-2,-17,-19,-17,-15
-8,-14,-6,12,-1,-10,4,-2,-17,-19,-17,-15
-7,-14,-6,11,-1,-10,4,-1,-16,-19,-17,-15
-7,-13,-6,11,0,-10,5,0,-16,-19,-17,-15
-6,-13,-6,10,0,-10,5,0,-16,-19,-17,-15
-6,-12,-6,9,0,-9,5,0,-16,-19,-17,-15
-6,-12,-6,9,0,-9,4,-1,-16,-19,-17,-15
-6,-13,-7,10,0,-10,3,-1,-17,-19,-17,-16
-7,-15,-7,11,0,-11,2,-2,-17,-20,-18,-16
-9,-17,-8,13,0,-13,2,-2,-18,-21,-19,-17
-9,-18,-8,14,0,-14,2,-2,-18,-21,-19,-17
-8,-18,-9,13,0,-14,3,-2,-18,-21,-19,-17
-7,-17,-9,12,1,-14,3,-2,-18,-21,-19,-17
-6,-16,-10,11,2,-13,3,-1,-17,-21,-19,-17
-4,-14,-9,9,2,-12,4,0,-17,-20,-18,-17
-3,-13,-9,8,3,-12,4,0,-16,-20,-18,-17
-3,-13,-10,8,3,-12,5,0,-16,-20,-19,-17
-4,-14,-10,9,3,-13,5,0,-16,-21,-19,-17
-4,-15,-10,10,3,-14,4,0,-16,-21,-19,-17
-4,-16,-10,10,3,-14,4,1,-15,-21,-19,-17
-4,-16,-10,10,3,-14,4,2,-15,-21,-19,-17
-4,-15,-11,9,3,-14,4,2,-14,-21,-19,-18
-3,-15,-11,9,4,-14,4,3,-14,-21,-20,-18
-2,-14,-12,8,5,-14,5,4,-14,-21,-20,-18
0,-14,-13,7,5,-13,5,5,-13,-21,-19,-18
0,-13,-13,7,6,-13,5,6,-12,-20,-19,-18
0,-13,-13,7,6,-13,6,7,-11,-20,-18,-18
-1,-14,-12,8,5,-14,6,7,-11,-20,-18,-18
-2,-15,-12,9,5,-14,6,8,-10,-20,-18,-18
-2,-15,-13,9,4,-14,6,8,-10,-20,-18,-18
-3,-16,-13,10,4,-14,6,9,-10,-20,-19,-18
-3,-16,-12,10,4,-14,6,9,-10,-20,-19,-18
-3,-16,-12,10,4,-14,6,10,-10,-20,-19,-18
-3,-16,-12,10,4,-15,6,10,-10,-20,-19,-18
-2,-16,-13,10,4,-15,6,10,-10,-20,-19,-18
-1,-16,-13,9,5,-15,6,11,-9,-20,-19,-17
0,-15,-14,8,6,-15,6,12,-9,-20,-18,-17
0,-15,-14,8,6,-14,6,13,-9,-20,-18,-17
-1,-16,-14,8,6,-14,6,13,-9,-20,-18,-17
-2,-16,-14,8,6,-15,6,14,-9,-20,-18,-16
-1,-15,-14,8,7,-15,6,14,-8,-19,-17,-16
0,-15,-14,7,7,-15,7,15,-8,-19,-16,-15
0,-15,-14,8,7,-15,7,15,-7,-19,-16,-15
0,-15,-13,8,6,-15,7,15,-7,-19,-16,-15
-1,-15,-13,8,5,-14,7,15,-7,-19,-16,-15
-1,-15,-13,8,5,-14,7,16,-7,-18,-15,-15
0,-13,-13,7,6,-13,8,17,-7,-17,-14,-14
2,-11,-13,4,7,-12,9,18,-6,-16,-13,-13
6,-7,-13,1,9,-10,10,19,-4,-14,-11,-11
9,-3,-12,-2,10,-8,11,20,-3,-13,-10,-10
11,-1,-12,-4,11,-7,11,20,-2,-13,-9,-9
12,-1,-12,-4,11,-7,12,21,-1,-12,-8,-9
12,-1,-12,-4,11,-7,12,22,-1,-12,-8,-8
10,-2,-12,-3,10,-7,12,22,0,-12,-8,-8
8,-4,-11,-2,9,-7,12,22,0,-11,-8,-8
5,-5,-10,0,8,-7,12,22,0,-11,-8,-7
3,-5,-9,0,6,-7,13,23,1,-10,-7,-7
2,-5,-8,1,5,-7,13,23,1,-9,-6,-6
2,-5,-7,1,4,-7,13,24,2,-8,-6,-6
2,-4,-7,1,4,-6,12,24,2,-7,-5,-5
3,-3,-7,0,5,-6,12,25,3,-6,-4,-5
4,-2,-6,0,5,-5,12,27,4,-5,-4,-4
4,-2,-5,0,5,-4,13,28,5,-4,-3,-4
3,-2,-5,0,4,-3,14,28,6,-3,-2,-3
4,-1,-5,-1,4,-3,15,29,7,-2,-1,-2
6,1,-5,-3,5,-1,15,30,9,0,0,-1
8,3,-5,-5,6,0,16,32,11,1,2,0
9,5,-4,-6,6,1,16,32,12,3,4,1
9,5,-3,-6,5,1,15,32,13,4,4,2
9,5,-2,-6,5,1,15,32,14,5,5,3
8,5,-2,-6,5,2,15,33,15,6,6,4
8,5,-1,-6,5,2,15,32,16,8,8,5
8,6,-1,-6,5,3,14,32,17,9,9,6
9,7,-1,-7,5,3,14,32,18,10,11,7
9,8,-1,-8,5,4,13,31,19,12,12,8
9,9,0,-9,5,4,13,31,20,13,13,9
10,10,0,-9,4,5,13,30,21,15,13,10
11,11,0,-10,4,6,13,30,22,16,14,11
12,13,1,-12,5,7,14,30,23,17,15,12
14,14,2,-13,5,8,14,30,24,18,17,13
15,16,2,-15,6,9,14,30,25,20,18,14
16,18,3,-16,6,11,15,30,27,21,20,15
16,20,4,-17,5,12,15,30,28,23,20,16
14,20,5,-16,4,12,15,30,28,23,21,16
12,19,6,-15,3,12,15,30,29,24,21,16
10,18,7,-13,1,12,15,30,29,24,21,16
8,16,7,-11,0,12,15,29,28,24,21,16
7,14,7,-10,0,11,13,28,28,23,21,16
6,12,7,-9,0,10,12,27,27,23,20,15
5,11,6,-8,0,9,12,25,26,22,19,15
4,10,6,-7,0,8,11,24,25,21,18,14
4,10,5,-6,0,7,10,23,25,21,18,13
4,10,5,-6,0,7,10,23,24,20,17,13
5,11,5,-7,0,7,10,22,24,20,17,13
6,11,5,-8,0,8,10,22,23,20,17,12
6,10,5,-7,0,7,10,21,23,19,17,12
5,9,5,-6,0,7,9,20,22,19,16,11
4,8,5,-5,0,6,7,19,21,18,16,11
3,8,5,-5,-1,6,6,18,20,17,15,10
3,8,4,-5,-1,6,6,17,19,16,14,10
3,8,4,-5,0,6,6,16,18,16,14,9
3,7,3,-5,0,5,6,16,18,15,13,9
4,7,3,-5,0,5,7,15,17,15,13,8
5,7,2,-5,1,4,7,15,17,15,13,9
6,8,2,-7,2,5,7,16,17,15,13,9
8,10,2,-9,3,6,7,16,17,15,13,10
11,12,1,-11,5,7,7,16,17,15,13,10
12,13,1,-12,5,7,8,15,16,15,13,10
11,12,2,-11,5,7,8,14,15,14,12,9
9,10,2,-9,4,6,7,13,14,13,12,9
7,9,2,-8,3,6,7,13,14,13,11,8
6,9,3,-7,2,6,8,13,14,13,11,8
6,9,4,-7,1,7,8,13,14,13,11,8
5,10,5,-7,0,7,9,13,13,13,11,8
3,9,7,-6,-1,8,8,12,12,12,11,8
1,9,8,-5,-3,8,8,11,12,12,11,8
0,9,9,-5,-4,9,9,11,12,12,11,9
0,9,9,-5,-4,9,9,11,12,12,12,9
1,9,9,-5,-4,9,10,11,12,12,11,9
1,10,9,-5,-4,10,10,10,12,11,11,8
2,11,10,-6,-4,10,10,10,12,11,11,8
2,12,11,-7,-4,11,10,10,12,11,11,8
3,12,10,-7,-4,11,10,10,11,11,10,8
4,13,10,-8,-3,11,11,10,11,11,10,8
4,13,9,-9,-2,11,11,10,10,11,10,8
5,14,9,-9,-2,12,11,10,10,10,10,8
7,16,10,-10,-1,13,11,10,10,10,10,8
8,17,10,-12,-1,13,11,10,10,10,10,8
8,18,10,-12,-1,14,10,10,10,10,10,8
8,19,10,-13,-1,14,8,8,10,10,10,8
8,20,10,-14,0,15,6,6,8,10,10,8
8,20,10,-14,0,15,3,4,7,9,9,8
7,18,10,-12,-1,14,1,1,5,8,8,8
6,17,10,-11,-2,14,0,0,3,6,7,7
6,17,11,-12,-2,15,-1,-2,2,5,6,7
7,18,12,-12,-2,16,-1,-2,1,4,5,6
7,18,11,-12,-2,15,-2,-3,0,3,5,6
8,18,10,-12,-2,15,-2,-3,0,3,5,6
8,18,10,-13,-1,15,-2,-3,0,3,5,6
9,19,10,-14,0,15,-1,-2,0,3,6,7
12,21,10,-16,1,15,0,-1,1,4,7,8
13,22,9,-17,1,15,0,-1,1,5,8,9
13,21,9,-16,1,15,1,-1,2,6,9,10
11,18,8,-14,1,13,1,-1,1,5,8,9
9,16,7,-13,1,12,1,-1,1,5,8,9
9,14,4,-12,2,10,1,-1,1,5,7,8
9,12,2,-11,3,8,1,-1,0,4,7,8
10,11,0,-11,4,6,1,-1,0,4,6,7
11,10,-1,-11,6,4,1,-1,0,3,5,6
11,8,-2,-10,7,3,1,0,0,2,4,5
11,7,-3,-8,7,2,1,0,0,2,4,4
10,7,-2,-7,6,2,2,1,0,2,3,4
9,6,-2,-7,6,2,2,2,1,2,3,3
8,6,-2,-7,6,2,3,2,1,2,3,3
8,5,-2,-7,6,2,4,2,1,2,2,2
8,4,-2,-6,5,1,5,2,0,2,2,2
7,3,-3,-5,5,0,5,1,0,1,2,1
5,1,-3,-3,5,-1,5,1,-1,0,1,0
4,0,-4,-2,4,-2,4,0,-2,-1,0,0
3,-1,-4,-1,4,-2,4,0,-3,-2,-1,-1
3,-2,-5,0,5,-3,3,-1,-4,-3,-2,-2
3,-2,-6,0,5,-3,3,-1,-4,-4,-2,-2
3,-3,-7,0,5,-4,2,-1,-5,-4,-3,-2
2,-4,-7,1,5,-5,2,-1,-5,-4,-3,-3
2,-5,-7,1,5,-5,1,-1,-5,-4,-3,-3
1,-5,-7,2,5,-6,1,-1,-5,-4,-3,-4
1,-5,-7,1,5,-6,1,-1,-5,-4,-3,-4
2,-4,-7,0,5,-5,2,-1,-4,-4,-3,-3
3,-3,-7,0,6,-5,2,0,-4,-4,-3,-3
5,-1,-7,-2,6,-4,2,0,-4,-4,-3,-2
6,0,-6,-3,6,-3,3,0,-3,-3,-2,-2
5,0,-6,-2,6,-3,3,0,-3,-3,-2,-1
4,-1,-6,-1,6,-3,3,0,-3,-3,-2,-1
3,-3,-6,0,5,-4,3,0,-2,-3,-2,-1
2,-4,-6,1,5,-5,3,0,-2,-3,-2,-1
0,-6,-6,3,4,-6,3,0,-2,-3,-2,-2
0,-7,-7,4,4,-7,3,0,-3,-4,-3,-2
-1,-8,-7,4,3,-8,3,0,-3,-4,-3,-3
-2,-9,-7,5,3,-8,3,0,-3,-4,-3,-3
-2,-9,-6,5,2,-8,3,0,-3,-4,-4,-4
-2,-9,-6,5,2,-8,4,0,-3,-4,-4,-4
-1,-8,-6,4,3,-7,5,1,-2,-3,-3,-4
0,-7,-6,3,3,-7,6,2,-1,-3,-3,-4
0,-5,-6,2,4,-6,8,4,1,-2,-2,-4
2,-3,-6,0,5,-5,9,6,3,0,-1,-3
4,-2,-6,-1,5,-4,11,7,7,2,0,-2
5,-1,-7,-1,6,-4,11,8,10,5,1,-1
7,-2,-10,-2,8,-6,11,10,14,8,3,0
10,-2,-13,-4,12,-8,10,12,18,13,6,0
14,-2,-16,-6,15,-9,8,15,25,19,10,3
17,-1,-18,-8,18,-10,5,19,33,28,16,6
20,0,-21,-10,21,-10,4,24,44,38,23,10
24,1,-23,-12,24,-10,3,27,55,49,31,15
29,6,-23,-17,26,-9,0,27,66,62,41,23
35,14,-21,-24,28,-4,-5,23,77,79,54,33
42,25,-16,-33,29,4,-11,16,88,96,69,44
45,36,-9,-40,27,13,-19,3,95,111,83,56
45,45,0,-45,23,22,-28,-12,99,124,95,66
45,52,7,-48,19,29,-37,-27,103,136,105,75
44,59,15,-51,15,37,-45,-42,107,147,115,84
44,67,24,-55,11,46,-54,-59,108,155,123,92
41,72,31,-57,6,52,-61,-75,103,156,126,96
35,71,36,-53,0,54,-68,-91,89,145,119,93
27,65,37,-46,-5,51,-73,-107,65,123,105,84
21,58,37,-39,-8,47,-77,-120,36,96,87,74
17,51,33,-34,-8,42,-81,-129,6,68,69,62
12,39,26,-25,-7,33,-82,-132,-23,38,47,47
4,22,17,-13,-6,19,-79,-129,-47,9,23,28
-3,4,7,0,-6,6,-71,-120,-66,-17,0,9
-8,-9,-1,9,-4,-5,-60,-107,-76,-38,-19,-7
-10,-19,-8,14,-1,-14,-49,-91,-78,-49,-31,-17
-10,-24,-14,17,1,-19,-39,-74,-73,-52,-35,-22
-9,-26,-17,18,3,-22,-29,-56,-65,-49,-36,-24
-8,-27,-19,17,5,-23,-20,-40,-55,-45,-34,-24
-6,-26,-20,16,6,-23,-12,-26,-46,-40,-31,-23
-4,-25,-21,15,8,-23,-5,-15,-38,-35,-28,-22
-3,-24,-21,14,8,-23,0,-6,-31,-31,-26,-20
-3,-24,-21,14,8,-22,2,0,-26,-28,-24,-19
-3,-24,-20,14,8,-22,4,3,-22,-25,-22,-18
-4,-23,-20,14,8,-22,5,5,-20,-24,-20,-17
-4,-22,-19,13,8,-21,5,6,-19,-22,-19,-16
-4,-22,-18,13,7,-20,5,6,-18,-21,-18,-16
-5,-21,-17,13,6,-19,5,6,-17,-21,-18,-15
-5,-21,-16,13,5,-18,5,6,-16,-20,-18,-15
-5,-19,-14,12,4,-17,5,4,-16,-20,-17,-14
-4,-18,-13,11,4,-16,4,3,-16,-20,-17,-14
-3,-16,-12,9,4,-15,4,2,-16,-19,-16,-13
-3,-15,-12,8,4,-14,4,1,-16,-19,-16,-13
-2,-14,-12,7,4,-13,4,1,-15,-19,-15,-12
-2,-13,-11,7,4,-12,4,0,-15,-18,-15,-12
-3,-13,-11,8,4,-12,4,0,-15,-18,-15,-12
-4,-14,-11,9,3,-12,4,0,-15,-18,-15,-12
-4,-15,-10,10,3,-12,4,0,-15,-18,-15,-12
-4,-14,-10,9,3,-12,4,0,-15,-18,-15,-12
-2,-13,-10,7,4,-11,4,0,-15,-18,-14,-11
-2,-11,-9,6,4,-10,4,0,-14,-17,-14,-11
-2,-11,-9,6,3,-10,4,0,-14,-17,-14,-11
-1,-9,-9,5,4,-9,5,0,-13,-16,-14,-10
3,-5,-9,1,6,-7,6,2,-12,-15,-13,-9
5,-3,-9,0,8,-6,7,3,-11,-15,-12,-9
7,-3,-10,-1,9,-6,7,3,-11,-15,-12,-9
8,-3,-11,-1,10,-7,8,3,-11,-15,-12,-9
8,-4,-12,-1,10,-7,8,2,-11,-15,-12,-9
6,-6,-12,0,9,-8,7,1,-12,-16,-13,-9
2,-8,-12,3,7,-10,6,0,-13,-16,-14,-10
0,-11,-12,5,6,-11,5,0,-14,-17,-15,-11
-2,-13,-12,7,6,-13,5,0,-14,-18,-15,-11
-4,-14,-11,8,5,-13,5,0,-15,-18,-16,-12
-4,-15,-10,9,4,-13,6,0,-15,-18,-16,-13
-5,-15,-10,10,3,-13,7,0,-15,-18,-16,-13
-6,-17,-10,12,2,-13,6,0,-15,-19,-16,-13
-7,-18,-10,13,1,-14,5,0,-15,-19,-17,-14
-8,-19,-11,13,1,-15,4,0,-15,-20,-17,-14
-8,-19,-11,13,1,-16,4,0,-15,-20,-17,-14
-8,-19,-11,13,1,-16,5,0,-15,-20,-17,-14
-7,-19,-12,13,2,-16,5,0,-15,-20,-17,-14
-7,-19,-12,13,2,-16,6,0,-15,-20,-17,-14
-6,-19,-13,13,3,-16,6,0,-15,-20,-17,-14
-4,-18,-13,12,4,-16,6,1,-15,-19,-17,-14
-2,-16,-14,9,5,-15,7,2,-14,-19,-16,-14
0,-13,-14,7,6,-14,8,3,-12,-18,-15,-13
1,-13,-15,6,7,-14,9,4,-11,-18,-15,-12
0,-15,-15,8,7,-15,9,4,-11,-18,-15,-12
-1,-16,-15,9,6,-16,9,4,-12,-19,-16,-13
-2,-17,-14,10,6,-15,8,3,-13,-19,-17,-14
-3,-18,-14,11,6,-16,7,4,-13,-20,-18,-15
-3,-19,-15,12,6,-17,7,4,-13,-20,-18,-15
-4,-20,-15,12,5,-18,6,4,-13,-21,-19,-16
-4,-19,-15,12,5,-18,6,4,-13,-21,-19,-16
-3,-18,-15,10,6,-17,7,5,-13,-21,-19,-16
0,-16,-16,8,7,-16,8,6,-12,-20,-18,-15
2,-13,-16,6,9,-15,8,8,-11,-20,-18,-15
4,-11,-16,3,10,-14,9,10,-10,-19,-17,-14
7,-9,-16,1,11,-13,10,11,-9,-18,-17,-14
8,-8,-16,0,12,-12,10,12,-8,-18,-16,-13
8,-9,-16,0,11,-12,10,13,-7,-18,-16,-13
5,-11,-16,2,10,-13,10,13,-7,-18,-17,-13
2,-13,-16,6,8,-15,10,13,-8,-19,-17,-14
-1,-16,-16,9,7,-16,10,13,-8,-19,-17,-14
-4,-19,-16,12,6,-18,9,13,-9,-20,-18,-15
-5,-21,-16,13,6,-18,9,13,-9,-20,-18,-15
-5,-20,-15,13,5,-18,8,13,-9,-20,-19,-15
-3,-19,-15,11,6,-17,8,14,-9,-20,-18,-15
-1,-17,-15,10,7,-16,9,15,-9,-20,-18,-15
0,-16,-16,9,7,-16,9,15,-8,-20,-17,-14
0,-16,-16,8,8,-16,9,16,-8,-20,-17,-14
1,-15,-16,7,8,-15,10,16,-8,-19,-16,-13
2,-13,-16,6,9,-14,10,17,-7,-18,-15,-12
3,-12,-16,4,9,-14,11,18,-6,-17,-14,-11
3,-12,-16,4,9,-13,11,19,-5,-16,-13,-10
4,-11,-15,3,9,-13,12,20,-5,-16,-13,-10
4,-10,-15,2,9,-12,13,21,-4,-15,-12,-9
4,-9,-14,2,9,-12,14,21,-3,-15,-11,-8
4,-9,-14,2,9,-11,14,22,-3,-14,-11,-8
5,-8,-13,1,9,-11,14,23,-2,-13,-10,-7
5,-7,-13,1,9,-10,15,24,-1,-12,-9,-6
4,-7,-12,2,8,-10,15,24,-1,-12,-8,-6
1,-9,-12,4,7,-11,15,24,-1,-12,-8,-6
-1,-11,-11,6,5,-11,14,24,-1,-12,-8,-6
-2,-11,-10,7,4,-11,14,25,0,-11,-8,-6
-2,-10,-9,6,4,-10,14,25,0,-10,-7,-5
-1,-9,-9,6,4,-10,14,26,1,-9,-6,-5
0,-8,-8,4,4,-9,14,27,2,-8,-6,-4
1,-7,-8,3,5,-8,14,28,3,-7,-5,-3
1,-7,-8,3,5,-8,14,29,4,-6,-4,-3
1,-7,-8,3,5,-8,14,29,5,-5,-3,-2
0,-8,-8,3,5,-8,15,30,6,-4,-2,-1
0,-8,-8,4,5,-8,15,30,6,-3,-1,-1
0,-8,-8,4,4,-7,14,31,7,-2,0,0
0,-7,-8,3,4,-7,14,31,8,-1,0,0
1,-5,-7,2,4,-6,15,32,9,0,1,1
2,-4,-7,1,4,-6,15,33,11,1,3,3
4,-2,-6,0,5,-4,16,34,13,4,5,5
6,1,-5,-3,5,-2,17,35,16,6,8,7
8,4,-4,-5,6,0,17,36,18,9,10,9
9,6,-2,-7,6,2,17,37,19,11,11,10
8,6,-1,-7,5,2,17,37,21,12,12,11
6,6,0,-6,4,3,17,36,22,13,13,12
5,6,1,-6,2,3,17,36,23,15,14,12
5,6,1,-5,2,4,17,35,24,16,15,13
5,6,2,-6,1,4,16,35,24,17,16,13
5,7,2,-6,1,5,16,34,25,18,17,14
6,9,2,-7,2,6,16,34,27,20,18,15
8,11,2,-9,3,7,17,34,28,22,19,16
9,12,2,-10,4,7,17,34,28,23,20,17
10,13,3,-11,4,8,17,34,29,23,21,18
11,15,3,-13,5,9,17,34,29,24,21,18
13,17,3,-15,5,10,17,34,30,24,22,19
13,18,4,-15,5,11,16,33,30,25,22,20
11,16,4,-13,3,10,15,32,30,25,22,19
7,13,4,-10,1,9,14,30,29,25,22,18
5,10,4,-7,0,7,13,29,28,24,21,18
4,8,4,-6,0,7,11,28,27,24,21,17
3,7,4,-5,0,6,11,27,26,23,20,17
3,7,4,-5,0,6,11,26,25,23,20,17
2,6,4,-4,-1,5,12,25,24,22,19,16
2,6,4,-4,-1,5,12,24,23,21,18,15
3,6,3,-4,0,5,12,23,23,20,17,15
3,7,3,-5,0,5,11,22,22,20,17,15
3,6,3,-5,0,5,11,22,22,20,17,15
3,5,3,-4,0,5,10,21,21,19,17,14
2,4,3,-3,0,4,9,20,20,19,16,14
1,3,3,-2,0,3,8,19,20,18,15,13
0,2,3,-1,0,2,8,18,19,17,14,13
0,2,2,-1,0,2,8,17,18,16,14,12
0,2,2,-1,0,2,8,16,17,15,13,12
0,1,1,0,0,2,7,16,16,15,13,11
0,1,1,0,-1,2,7,15,16,14,12,11
0,1,1,0,-1,2,7,15,15,14,12,11
1,1,1,-1,0,2,8,15,15,14,12,11
2,2,1,-2,1,2,9,15,15,14,12,11
2,2,1,-2,1,2,9,14,14,13,12,11
3,3,1,-3,1,2,9,14,14,13,12,11
2,3,1,-2,0,2,8,14,14,13,12,11
1,3,1,-1,0,2,8,13,13,13,12,10
0,3,2,-1,-1,2,8,13,13,13,11,10
2,6,3,-3,-1,5,9,13,14,14,12,11
4,10,5,-7,0,7,10,14,15,14,13,12
6,12,6,-9,0,9,11,14,15,15,14,13
6,12,7,-9,0,9,12,14,14,14,14,13
5,12,7,-8,-1,9,12,14,14,14,13,13
5,12,8,-8,-1,10,12,13,14,14,13,13
6,14,8,-10,-1,11,13,13,14,14,14,13
8,16,8,-11,0,12,14,13,14,14,14,13
8,16,8,-12,0,12,13,13,13,14,14,13
7,16,8,-11,0,12,12,13,13,13,13,13
4,13,8,-8,-2,11,11,12,11,12,12,12
2,11,9,-6,-3,10,10,12,10,11,11,11
1,9,8,-5,-3,9,10,11,10,11,10,10
1,9,7,-5,-3,8,10,11,10,11,10,10
2,10,7,-6,-3,9,10,11,10,11,10,10
3,12,8,-8,-3,10,10,11,10,11,10,10
5,15,10,-10,-3,12,10,10,10,11,11,11
6,19,12,-12,-3,15,8,9,10,11,11,12
6,21,13,-13,-3,17,6,8,9,11,12,13
6,21,14,-13,-3,17,5,6,8,10,12,13
5,19,14,-12,-4,17,4,5,7,9,11,12
5,17,14,-11,-4,16,3,3,5,8,10,11
4,16,13,-10,-5,15,1,1,4,6,8,10
4,15,12,-10,-5,14,0,0,2,5,7,9
4,15,11,-9,-4,13,0,-1,1,4,6,8
4,14,9,-9,-3,12,0,-1,0,3,6,8
5,15,8,-10,-2,11,0,-1,0,3,6,8
8,17,8,-12,0,12,1,0,0,4,7,9
11,19,8,-15,2,13,1,0,2,5,8,10
13,21,8,-17,3,14,1,1,3,6,9,11
14,21,8,-18,3,15,1,1,4,7,10,12
12,19,8,-16,2,14,1,1,4,6,10,11
9,15,6,-12,1,11,0,0,3,5,9,10
6,11,5,-9,1,8,0,0,2,4,8,9
4,8,3,-7,1,6,0,0,1,3,7,8
2,5,2,-4,0,3,0,0,0,2,5,6
1,3,1,-2,0,1,-1,-1,-1,1,4,5
0,0,1,0,0,0,-1,-1,-1,0,3,4
-2,-1,2,2,-1,0,0,-1,-1,0,2,3
-4,-2,2,4,-2,0,0,-1,-1,0,2,3
-5,-3,2,5,-3,-1,1,-1,-1,-1,1,2
-6,-4,1,6,-4,-1,1,0,-1,-1,1,2
-7,-5,1,6,-4,-2,1,0,-2,-1,0,1
-7,-6,1,7,-4,-3,1,0,-2,-2,0,0
-7,-7,1,7,-4,-3,0,-1,-3,-2,-1,0
-7,-7,0,7,-4,-3,0,-1,-3,-3,-2,-1
-6,-7,0,6,-3,-3,0,-1,-4,-3,-2,-1
-5,-6,0,5,-2,-3,0,-1,-4,-3,-2,-1
-3,-4,0,3,-1,-2,1,-1,-4,-3,-2,-1
-2,-2,0,2,-1,-1,2,-1,-4,-3,-2,-1
0,-1,0,1,0,-1,3,0,-3,-3,-1,-1
0,0,0,0,0,0,4,1,-3,-3,-1,0
0,-1,0,0,0,0,4,1,-3,-3,-1,0
-1,-2,0,1,0,-1,4,1,-3,-3,-1,-1
-2,-4,-1,3,-1,-2,3,1,-3,-3,-2,-1
-4,-6,-1,5,-1,-4,3,1,-4,-3,-2,-2
-5,-8,-1,7,-1,-5,2,0,-4,-4,-3,-3
-7,-10,-2,8,-2,-6,1,-1,-5,-5,-4,-4
-7,-10,-3,9,-2,-7,0,-1,-6,-6,-5,-4
-8,-10,-3,9,-2,-7,0,-1,-6,-6,-5,-4
-8,-10,-2,9,-2,-6,0,-1,-6,-6,-5,-4
-7,-9,-2,8,-2,-5,0,-1,-5,-6,-4,-3
-5,-7,-2,6,-2,-5,2,0,-5,-5,-4,-3
-4,-7,-3,6,-1,-5,3,0,-4,-4,-3,-2
-4,-7,-3,6,-1,-5,3,0,-4,-4,-3,-2
-5,-7,-2,6,-1,-5,4,0,-4,-5,-4,-3
-5,-7,-2,6,-2,-4,4,1,-4,-5,-4,-3
-5,-6,-1,6,-2,-4,4,2,-3,-5,-3,-2
-5,-6,-1,6,-2,-4,5,2,-2,-4,-3,-2
-5,-6,-1,6,-3,-4,5,3,-1,-4,-3,-2
-6,-7,-1,6,-3,-4,6,4,0,-3,-3,-2
-6,-7,0,6,-3,-4,6,5,1,-1,-2,-2
-6,-6,0,6,-3,-4,7,6,4,0,-1,-2
-6,-6,0,6,-3,-4,7,6,6,3,0,-1
-7,-7,0,7,-3,-5,8,7,9,6,2,0
-7,-9,-2,8,-3,-7,8,8,12,8,3,0
-6,-11,-5,9,-1,-9,7,9,16,12,5,0
-3,-11,-9,7,2,-10,5,12,23,18,10,2
1,-11,-12,5,6,-11,4,16,32,27,16,6
6,-8,-15,1,11,-11,2,21,42,38,24,11
13,-2,-17,-5,15,-9,0,24,54,52,35,18
22,7,-16,-15,19,-4,-3,22,66,68,48,28
31,20,-12,-25,22,4,-9,17,77,85,63,40
38,33,-6,-36,22,13,-16,7,85,101,77,52
43,45,0,-44,21,22,-24,-7,91,114,90,64
47,56,8,-52,19,32,-31,-23,95,127,102,74
51,68,16,-60,18,42,-38,-37,99,139,113,84
54,78,24,-66,15,52,-44,-52,103,149,123,93
52,85,32,-69,10,59,-51,-69,101,154,128,99
46,86,40,-67,3,63,-57,-85,91,149,126,99
36,81,45,-59,-4,63,-62,-101,72,131,114,92
25,73,47,-50,-11,60,-67,-116,45,104,97,82
14,62,47,-39,-16,54,-72,-129,14,74,76,69
5,49,43,-27,-19,46,-77,-138,-17,44,54,54
-2,33,35,-15,-18,33,-78,-139,-44,14,30,36
-10,14,24,-2,-17,19,-74,-133,-65,-13,5,16
-17,-3,14,9,-15,5,-66,-123,-78,-35,-15,-1
-21,-16,5,18,-13,-6,-57,-108,-82,-48,-29,-14
-21,-23,-2,22,-10,-13,-46,-91,-79,-53,-36,-22
-20,-26,-7,22,-7,-17,-37,-73,-71,-52,-37,-25
-17,-27,-10,21,-4,-19,-28,-56,-62,-48,-36,-26
-16,-27,-12,21,-2,-20,-20,-42,-53,-44,-35,-26
-15,-28,-14,21,-1,-21,-14,-30,-46,-41,-33,-25
-14,-29,-15,21,0,-22,-10,-20,-40,-38,-31,-24
-13,-29,-16,21,1,-23,-6,-13,-34,-34,-29,-23
-11,-28,-17,19,2,-23,-3,-7,-29,-31,-26,-22
-10,-26,-17,18,3,-21,0,-3,-25,-28,-24,-21
-8,-24,-16,16,3,-20,1,0,-23,-25,-22,-19
-7,-21,-14,14,3,-18,3,1,-21,-23,-20,-17
-6,-18,-12,12,3,-15,4,2,-19,-22,-19,-16
-6,-16,-10,11,2,-14,5,2,-18,-21,-18,-15
-7,-15,-8,11,1,-12,5,2,-17,-20,-17,-14
-7,-13,-6,11,0,-10,5,2,-16,-20,-17,-13
-6,-11,-4,9,-1,-8,4,2,-15,-18,-16,-13
-6,-9,-3,7,-2,-6,5,1,-15,-18,-15,-12
-7,-10,-3,8,-2,-6,5,0,-15,-18,-15,-12
-9,-11,-2,9,-3,-7,5,0,-15,-18,-15,-12
-10,-11,-1,9,-4,-6,5,0,-15,-18,-15,-11
-10,-11,-1,10,-4,-6,5,-1,-16,-19,-15,-11
-10,-11,-1,10,-4,-6,5,-1,-16,-19,-15,-11
-10,-10,0,10,-4,-6,5,-2,-15,-19,-15,-11
-10,-10,0,9,-4,-6,5,-2,-15,-18,-15,-11
-10,-10,0,9,-4,-6,4,-2,-15,-18,-15,-11
-10,-10,-1,10,-4,-6,4,-2,-15,-18,-15,-12
-10,-11,-1,10,-4,-6,3,-3,-16,-18,-15,-12
-10,-11,-1,10,-4,-7,3,-3,-16,-19,-16,-12
-10,-11,-1,10,-4,-7,3,-3,-16,-19,-16,-13
-8,-9,-1,9,-3,-6,3,-2,-16,-19,-16,-13
-8,-8,-1,8,-3,-5,3,-2,-16,-19,-16,-13
-8,-8,-1,8,-2,-5,3,-3,-16,-19,-16,-13
-6,-7,-1,7,-2,-5,4,-2,-16,-19,-16,-13
-4,-6,-1,5,-1,-4,4,-2,-16,-19,-16,-13
-3,-5,-1,4,0,-4,4,-1,-16,-19,-16,-13
-3,-5,-2,4,0,-4,4,-1,-16,-19,-16,-13
-4,-7,-3,5,0,-5,3,-1,-16,-20,-16,-13
-4,-8,-4,6,0,-5,3,-1,-16,-20,-16,-14
-6,-9,-4,7,0,-7,3,-2,-16,-21,-17,-14
-8,-12,-5,10,-1,-8,2,-2,-17,-22,-18,-15
-10,-14,-5,12,-2,-10,2,-3,-18,-22,-19,-16
-11,-15,-5,13,-3,-10,2,-3,-19,-22,-19,-16
-10,-14,-5,12,-3,-9,2,-2,-18,-22,-18,-16
-9,-12,-4,11,-3,-8,2,-2,-18,-22,-18,-16
-9,-11,-4,10,-3,-8,3,-2,-17,-22,-18,-15
-9,-12,-4,11,-3,-8,3,-2,-17,-22,-18,-15
-10,-13,-4,12,-3,-9,3,-2,-18,-22,-19,-16
-11,-14,-4,13,-3,-9,3,-2,-18,-23,-19,-16
-10,-13,-4,12,-2,-9,3,-1,-18,-23,-19,-17
-8,-12,-4,10,-1,-8,4,0,-17,-23,-19,-17
-7,-11,-4,9,-1,-8,4,0,-17,-23,-19,-17
-6,-10,-5,9,-1,-8,4,0,-17,-23,-20,-17
-6,-10,-5,8,0,-8,4,0,-17,-24,-20,-17
-5,-10,-6,8,0,-8,4,0,-17,-24,-20,-17
-6,-12,-6,9,0,-9,3,0,-17,-24,-21,-18
-7,-13,-6,10,0,-10,2,0,-17,-24,-21,-18
-7,-13,-6,11,0,-9,2,0,-17,-24,-21,-18
-8,-13,-5,11,-1,-9,3,1,-17,-24,-22,-18
-9,-13,-4,12,-2,-9,4,1,-17,-25,-22,-19
-9,-13,-4,12,-2,-9,4,2,-17,-25,-22,-19
-8,-13,-5,11,-2,-9,4,2,-17,-25,-23,-19
-8,-13,-5,11,-2,-9,4,2,-17,-26,-23,-19
-7,-13,-6,11,-1,-9,4,2,-17,-26,-23,-19
-5,-12,-6,9,0,-9,4,3,-17,-25,-22,-19
-3,-11,-8,8,2,-9,4,4,-16,-25,-22,-19
-3,-11,-9,8,3,-10,4,5,-16,-25,-22,-20
-2,-11,-9,7,3,-9,3,6,-16,-25,-22,-20
-1,-9,-9,5,4,-8,4,7,-15,-24,-22,-19
0,-7,-9,3,4,-8,5,8,-14,-23,-21,-18
1,-6,-9,2,5,-7,6,9,-13,-23,-20,-17
2,-4,-8,0,5,-6,7,11,-12,-22,-19,-16
3,-3,-8,0,5,-5,7,12,-12,-22,-18,-16
3,-3,-7,0,5,-6,7,12,-12,-22,-18,-16
2,-4,-7,1,5,-6,6,12,-12,-22,-18,-16
1,-6,-7,2,4,-7,6,13,-12,-22,-18,-16
0,-7,-7,4,4,-7,6,13,-12,-22,-18,-16
-1,-8,-7,4,3,-7,6,13,-12,-22,-18,-16
-1,-8,-7,4,3,-7,6,14,-12,-22,-17,-16
-1,-8,-7,4,2,-7,7,14,-12,-22,-17,-15
-2,-9,-7,5,2,-8,6,14,-12,-22,-17,-15
-3,-10,-7,6,1,-8,5,15,-12,-21,-17,-15
-4,-10,-7,7,1,-8,5,15,-12,-21,-17,-14
-4,-10,-6,7,0,-8,5,15,-11,-21,-16,-14
-4,-10,-5,7,0,-7,5,16,-10,-20,-15,-13
-5,-9,-5,7,0,-6,6,16,-9,-19,-14,-13
-5,-8,-4,7,-1,-6,6,16,-9,-18,-13,-12
-6,-8,-3,7,-2,-5,6,17,-8,-17,-12,-11
-5,-6,-2,6,-2,-4,6,18,-7,-16,-11,-10
-4,-5,-1,5,-2,-3,7,19,-6,-14,-10,-9
-2,-4,-1,3,-1,-3,8,20,-5,-13,-9,-8
-1,-2,-1,2,-1,-2,9,21,-4,-12,-7,-7
0,-1,0,0,0,0,10,22,-3,-11,-6,-6
0,0,0,0,0,0,10,23,-2,-10,-5,-5
-1,0,0,0,-1,0,10,23,-1,-9,-5,-5
-1,0,1,0,-1,1,10,24,0,-8,-4,-4
-1,1,1,0,-1,1,11,25,1,-7,-3,-3
0,2,1,0,-1,1,11,26,2,-6,-2,-2
0,3,1,-1,-1,2,12,27,4,-5,-1,-1
2,5,2,-3,0,3,12,29,5,-3,0,0
3,6,2,-4,0,4,12,31,7,-1,2,1
4,8,3,-6,0,5,12,32,9,1,3,2
5,10,3,-8,0,7,12,33,11,3,5,4
6,12,4,-10,0,8,13,33,13,5,6,5
7,13,5,-11,1,9,13,33,14,6,8,6
8,14,5,-11,0,9,13,33,15,8,9,7
7,14,6,-11,0,10,13,33,16,9,10,8
7,14,7,-11,0,10,12,33,18,10,11,9
7,14,8,-11,-1,11,12,33,19,12,12,10
6,14,8,-10,-1,11,12,32,20,13,13,10
6,14,8,-10,-1,11,12,32,21,14,14,11
7,16,8,-11,-1,12,11,32,22,15,15,12
6,17,10,-12,-2,13,11,31,23,16,16,12
6,18,11,-12,-2,14,10,31,23,17,16,13
6,18,11,-12,-3,15,10,31,24,18,17,13
6,18,12,-12,-3,15,10,30,24,19,17,14
6,18,12,-12,-3,15,10,30,25,19,18,14
5,18,12,-12,-3,15,11,29,25,20,18,14
4,17,12,-11,-4,14,11,28,25,20,18,14
3,16,12,-10,-5,14,10,27,24,20,18,14
2,16,13,-9,-5,14,9,26,24,20,17,14
1,16,13,-9,-5,14,8,25,24,20,17,13
2,16,13,-10,-5,14,8,25,24,20,17,13
2,17,13,-10,-5,14,8,24,24,20,17,13
3,17,13,-10,-5,15,8,24,23,20,17,13
3,18,13,-11,-5,15,8,23,23,20,17,13
4,18,13,-11,-5,16,8,23,23,20,17,13
4,18,13,-11,-5,16,8,22,22,20,17,13
4,18,13,-11,-5,16,8,22,22,19,17,13
4,18,13,-11,-5,16,8,21,22,19,16,13
3,17,14,-10,-6,16,8,20,21,18,16,12
1,15,14,-8,-7,15,8,19,20,17,15,12
0,13,13,-6,-7,13,7,18,19,16,13,11
-2,10,13,-4,-8,12,6,16,17,15,12,9
-4,9,13,-2,-8,11,5,14,15,13,11,8
-4,9,13,-2,-8,12,4,14,14,13,10,8
-3,10,13,-3,-8,12,4,14,14,12,10,7
-2,10,12,-3,-7,12,4,13,13,12,10,7
0,12,12,-5,-7,12,4,13,13,12,10,7
1,14,12,-7,-6,13,5,13,13,12,10,8
1,15,13,-8,-6,14,5,12,13,12,10,8
0,14,13,-8,-6,13,5,11,12,11,9,8
0,13,12,-7,-6,13,4,10,11,10,9,7
0,13,12,-6,-5,12,4,9,10,10,8,7
-1,11,12,-5,-6,12,4,8,10,9,8,6
-2,10,12,-4,-7,11,4,8,9,8,7,6
-1,11,13,-5,-7,12,4,8,9,8,7,6
0,14,13,-7,-7,14,5,8,9,8,7,6
0,15,14,-8,-7,15,6,9,9,8,7,7
0,16,15,-9,-8,15,7,9,9,8,7,7
0,17,16,-9,-8,16,7,10,10,8,8,7
0,18,17,-9,-8,18,8,10,10,9,8,8
0,19,18,-9,-8,19,8,10,10,9,8,8
0,19,19,-9,-9,19,8,9,9,9,9,8
1,21,19,-10,-9,20,9,9,9,9,9,8
2,23,19,-12,-8,21,9,9,9,9,9,8
5,25,19,-15,-8,22,10,10,9,10,10,9
6,26,19,-17,-7,22,10,10,9,10,10,10
7,27,19,-17,-6,22,11,10,9,10,10,10
7,26,19,-17,-5,22,11,10,9,10,10,10
6,26,19,-16,-6,22,11,10,9,9,10,9
5,25,19,-14,-7,22,11,10,9,9,9,9
3,23,19,-13,-7,21,9,9,8,8,9,8
2,21,19,-11,-8,20,8,8,7,8,8,8
0,20,20,-10,-10,20,5,5,6,6,7,8
0,20,21,-10,-11,20,3,2,4,5,6,7
-2,20,22,-9,-13,21,0,0,2,4,5,6
-4,18,23,-7,-14,21,-1,-2,0,3,5,6
-7,16,24,-4,-15,20,-3,-3,0,2,4,5
-9,15,24,-3,-16,20,-3,-4,-1,1,4,5
-10,15,25,-2,-17,21,-3,-4,-2,1,3,5
-9,16,26,-3,-17,21,-3,-4,-2,0,3,5
-8,17,25,-4,-17,21,-3,-4,-3,0,2,4
-6,17,23,-5,-15,20,-3,-4,-3,0,1,4
-4,17,21,-6,-14,19,-3,-5,-4,0,1,4
-3,17,20,-7,-12,19,-3,-5,-4,0,1,5
-1,18,20,-8,-11,19,-3,-5,-3,0,2,5
0,19,19,-9,-10,19,-3,-5,-3,0,3,5
0,20,19,-10,-9,20,-3,-5,-3,0,3,5
1,20,17,-11,-7,19,-3,-5,-3,0,4,5
1,18,16,-10,-7,17,-3,-5,-3,0,3,5
1,16,14,-9,-6,15,-3,-5,-3,0,2,4
0,14,13,-7,-6,13,-3,-5,-3,-1,1,3
0,12,12,-6,-6,12,-3,-4,-4,-1,0,2
0,10,11,-5,-6,11,-3,-4,-4,-2,0,2
-1,10,11,-5,-6,11,-2,-3,-4,-2,0,1
-2,10,12,-4,-7,11,-2,-2,-4,-2,0,1
-4,9,13,-3,-8,11,-1,-2,-3,-2,0,0
-5,9,13,-3,-8,11,-1,-1,-3,-2,0,0
-6,8,13,-2,-9,11,0,-1,-3,-2,0,0
-7,7,14,0,-10,11,0,-2,-3,-2,-1,0
-8,6,14,1,-11,10,0,-2,-4,-3,-2,-1
-8,5,14,1,-11,10,0,-2,-4,-4,-3,-2
-8,5,14,2,-11,10,0,-2,-5,-4,-4,-2
-8,5,14,2,-11,9,0,-2,-5,-5,-4,-3
-8,4,13,2,-11,8,0,-2,-6,-5,-4,-3
-9,3,12,3,-11,8,0,-3,-6,-6,-5,-3
-10,2,12,3,-11,8,0,-3,-7,-6,-5,-4
-11,1,12,4,-12,7,0,-3,-7,-7,-5,-4
-12,0,12,5,-12,7,0,-3,-7,-7,-5,-4
-13,0,12,6,-12,6,0,-3,-7,-7,-5,-4
-13,-1,12,7,-13,6,0,-3,-7,-7,-6,-5
-14,-1,12,7,-13,5,0,-3,-7,-7,-6,-5
-13,-1,12,7,-12,5,0,-3,-7,-7,-6,-5
-12,0,12,6,-12,6,0,-3,-7,-7,-6,-5
-11,0,12,5,-11,6,0,-3,-7,-7,-6,-5
-12,0,12,5,-11,5,0,-3,-7,-7,-6,-5
-13,-1,11,6,-11,5,0,-3,-7,-8,-7,-5
-13,-2,11,7,-12,4,0,-3,-7,-8,-7,-6
-14,-3,10,8,-12,3,0,-3,-7,-8,-7,-6
-14,-2,11,7,-12,4,0,-3,-7,-7,-7,-6
-13,-1,12,6,-13,5,0,-2,-7,-7,-6,-5
-13,0,13,6,-13,6,1,-2,-7,-7,-6,-5
-14,0,13,6,-14,6,2,-1,-7,-7,-6,-5
-13,0,13,6,-13,7,2,-1,-6,-7,-6,-5
-10,3,12,3,-12,8,4,0,-5,-6,-5,-5
-7,6,12,0,-10,9,6,1,-3,-4,-4,-4
-4,9,12,-3,-9,11,8,3,0,-3,-3,-3
0,12,12,-6,-7,12,10,5,2,-1,-2,-2
1,14,13,-8,-6,14,11,7,5,1,0,0
2,16,13,-9,-5,15,11,9,8,4,1,0
3,17,13,-10,-4,15,12,10,10,6,2,1
4,17,11,-11,-3,14,12,11,13,9,4,2
5,16,9,-11,-1,13,12,12,16,13,6,3
7,15,7,-11,0,12,11,14,21,18,9,5
8,14,4,-11,2,10,9,17,27,25,15,7
10,13,2,-11,4,8,7,20,35,34,22,11
12,13,0,-12,5,7,4,22,44,44,29,15
16,15,-1,-16,7,8,0,21,53,56,39,22
22,21,-1,-22,11,11,-6,15,62,70,51,32
28,29,0,-29,13,16,-13,6,69,84,65,42
32,38,5,-36,13,22,-22,-7,75,98,78,53
36,49,11,-43,12,31,-31,-23,79,111,90,64
39,58,18,-49,10,39,-40,-40,83,122,101,73
42,67,25,-54,8,46,-47,-57,86,133,111,82
42,76,33,-59,5,55,-53,-73,88,142,119,89
40,82,42,-61,0,62,-58,-89,84,144,122,94
34,83,49,-58,-7,66,-61,-103,71,134,117,92
25,79,53,-52,-14,66,-64,-118,50,114,103,85
16,71,56,-44,-20,64,-68,-131,24,88,86,74
6,62,55,-35,-24,59,-73,-142,-4,59,66,61
-2,49,51,-24,-27,50,-77,-148,-32,30,43,45
-10,33,44,-11,-27,38,-76,-146,-54,2,19,27
-19,17,36,1,-27,26,-70,-137,-70,-22,-3,8
-25,1,27,12,-26,13,-61,-125,-78,-40,-21,-7
-28,-9,18,19,-23,4,-52,-109,-79,-49,-32,-18
-26,-15,11,20,-19,-2,-42,-91,-73,-50,-36,-23
-21,-16,5,19,-14,-5,-33,-72,-65,-48,-36,-24
-18,-17,1,17,-10,-7,-25,-55,-56,-44,-35,-24
-16,-16,0,16,-8,-8,-17,-41,-48,-39,-32,-24
-14,-16,-1,15,-6,-9,-11,-29,-41,-35,-30,-23
-13,-15,-2,14,-5,-9,-6,-20,-35,-32,-28,-22
-12,-15,-3,13,-4,-9,-3,-14,-30,-30,-26,-21
-11,-14,-4,13,-4,-9,-1,-9,-27,-28,-25,-20
-11,-14,-3,12,-4,-8,0,-5,-25,-26,-23,-19
-12,-13,-2,12,-5,-7,1,-3,-23,-25,-22,-18
-13,-13,-1,13,-6,-7,2,-1,-22,-24,-21,-17
-14,-13,1,13,-7,-6,3,0,-21,-23,-20,-17
-14,-11,3,12,-9,-4,3,0,-19,-22,-20,-16
-14,-9,5,12,-10,-3,3,0,-18,-22,-19,-16
-15,-9,7,12,-11,-2,3,-1,-18,-22,-19,-16
-17,-9,7,13,-12,-2,2,-3,-18,-22,-19,-15
-17,-10,7,14,-12,-2,2,-4,-18,-21,-19,-15
-16,-9,7,12,-12,-1,2,-4,-18,-21,-18,-14
-13,-7,6,10,-10,0,3,-3,-17,-20,-17,-13
-11,-5,7,7,-9,0,3,-2,-17,-19,-17,-13
-10,-3,7,6,-9,1,3,-2,-17,-19,-17,-13
-10,-3,7,6,-9,1,3,-2,-17,-19,-17,-13
-10,-2,7,6,-9,2,3,-3,-17,-19,-17,-13
-10,-2,7,6,-10,2,3,-3,-16,-19,-16,-13
-10,-2,8,6,-10,3,3,-3,-16,-19,-16,-12
-10,-1,8,6,-10,4,3,-3,-16,-19,-16,-12
-10,-1,9,5,-10,4,3,-2,-16,-18,-16,-12
-11,-1,9,6,-10,4,3,-2,-16,-18,-16,-12
-12,-2,10,6,-11,3,3,-2,-16,-19,-16,-12
-13,-3,10,7,-11,3,3,-2,-16,-19,-16,-12
-13,-3,10,8,-12,3,3,-2,-16,-19,-16,-12
-14,-4,10,9,-12,3,3,-3,-16,-19,-16,-13
-14,-4,10,10,-12,2,2,-3,-16,-20,-17,-13
-16,-6,9,11,-13,1,2,-4,-17,-20,-18,-14
-18,-9,9,14,-13,0,1,-5,-18,-22,-19,-15
-20,-11,9,15,-14,-1,1,-5,-19,-23,-20,-16
-20,-11,8,15,-14,-1,1,-5,-19,-23,-20,-16
-18,-10,8,14,-13,-1,1,-5,-19,-23,-20,-16
-15,-7,8,11,-12,0,2,-4,-18,-22,-19,-15
-13,-5,8,9,-11,1,3,-3,-18,-21,-18,-14
-11,-3,8,7,-10,2,3,-2,-17,-20,-18,-14
-10,-2,7,6,-10,3,4,-2,-17,-20,-18,-14
-9,-2,7,5,-8,3,4,-1,-17,-20,-18,-14
-7,-1,6,4,-7,3,4,-1,-17,-20,-18,-14
-6,-1,6,3,-6,3,4,-1,-17,-21,-18,-14
-6,-2,5,3,-5,2,4,-1,-17,-21,-18,-14
-6,-2,4,4,-5,1,3,-1,-17,-21,-18,-15
-6,-2,3,4,-5,1,3,-1,-17,-22,-19,-15
-7,-3,3,4,-5,0,3,-1,-17,-22,-19,-16
-7,-3,3,5,-5,0,4,-1,-17,-22,-19,-16
-8,-4,3,6,-6,0,4,0,-17,-22,-19,-16
-9,-4,4,7,-6,0,3,0,-17,-23,-19,-16
-11,-6,4,8,-7,0,3,0,-17,-23,-20,-16
-12,-7,4,9,-7,-1,3,0,-18,-23,-21,-17
-12,-8,4,10,-7,-1,3,0,-18,-23,-21,-17
-12,-8,4,10,-7,-1,3,0,-18,-24,-21,-17
-12,-8,3,10,-7,-2,3,0,-18,-25,-21,-18
-11,-8,3,9,-7,-2,3,0,-18,-25,-22,-18
-10,-6,2,8,-6,-2,3,0,-18,-25,-22,-18
-8,-4,2,6,-5,-1,3,1,-17,-24,-21,-17
-7,-3,3,5,-5,0,3,1,-17,-24,-21,-17
-7,-3,3,5,-5,0,3,2,-17,-24,-21,-17
-8,-3,3,5,-5,0,3,2,-17,-24,-21,-17
-9,-4,4,6,-6,0,3,2,-17,-25,-22,-17
-10,-6,3,7,-7,-1,3,3,-17,-25,-22,-18
-10,-7,2,8,-6,-2,2,3,-17,-26,-22,-18
-10,-8,1,9,-6,-3,2,3,-18,-26,-22,-19
-11,-10,1,11,-6,-4,1,3,-18,-27,-23,-19
-13,-11,0,12,-7,-5,1,3,-19,-27,-23,-19
-13,-11,0,12,-7,-5,1,4,-19,-27,-23,-19
-11,-10,0,11,-6,-5,1,4,-19,-27,-23,-19
-10,-9,0,9,-5,-4,1,5,-18,-27,-22,-19
-9,-8,0,8,-4,-4,2,6,-18,-27,-22,-18
-8,-7,0,7,-4,-3,2,6,-17,-26,-21,-18
-6,-5,0,6,-3,-3,3,7,-16,-25,-20,-17
-5,-3,0,4,-2,-2,3,9,-15,-24,-19,-16
-2,0,0,1,-1,0,4,10,-14,-23,-18,-15
2,4,0,-3,0,2,5,12,-12,-21,-16,-13
6,7,0,-7,3,3,6,14,-11,-20,-15,-12
8,8,0,-8,4,4,6,15,-11,-19,-14,-11
7,8,0,-7,4,3,7,15,-10,-18,-14,-11
5,6,0,-5,2,3,7,14,-10,-19,-14,-11
1,3,1,-2,0,2,6,14,-10,-19,-14,-11
-4,-1,1,2,-3,0,5,13,-11,-19,-14,-11
-8,-4,2,5,-5,0,4,13,-11,-19,-14,-12
-9,-5,2,7,-6,0,4,14,-10,-19,-13,-11
-9,-4,3,7,-7,0,4,15,-9,-18,-12,-10
-8,-2,4,5,-7,1,4,16,-8,-17,-11,-9
-6,-1,5,4,-6,1,4,17,-7,-15,-10,-8
-6,0,5,3,-6,2,5,18,-6,-14,-9,-7
-6,-1,6,4,-6,2,6,18,-5,-13,-8,-6
-7,-1,6,4,-7,2,7,19,-4,-12,-7,-5
-8,-2,5,4,-7,2,7,20,-3,-11,-6,-5
-8,-2,5,5,-7,1,7,21,-2,-10,-6,-4
-8,-3,5,5,-7,1,7,22,-1,-9,-5,-4
-7,-2,4,5,-6,0,7,23,0,-8,-4,-4
-6,-1,4,3,-5,1,7,24,1,-7,-3,-3
-4,0,4,2,-5,2,7,25,3,-5,-2,-1
-3,2,4,0,-4,2,8,27,4,-3,0,0
-1,3,4,-1,-3,3,8,28,6,-1,1,2
1,5,4,-3,-2,5,9,29,8,0,3,3
2,7,4,-5,-1,6,10,29,9,2,5,4
3,9,4,-6,-1,7,10,30,10,4,6,5
4,10,4,-7,-1,7,10,30,11,5,7,6
4,10,5,-7,-1,8,10,30,12,6,8,7
4,11,6,-7,-1,8,10,30,14,8,9,8
4,12,7,-8,-2,9,9,31,16,10,11,9
5,14,8,-9,-2,11,9,31,18,12,13,11
5,15,9,-10,-2,12,8,32,20,14,14,12
5,15,10,-10,-3,12,8,31,21,16,15,13
6,16,10,-11,-2,13,9,31,21,17,16,14
9,19,10,-14,-1,14,9,31,22,18,17,14
12,21,9,-17,1,15,10,31,23,19,18,15
14,23,9,-18,2,16,10,30,24,20,19,15
14,23,9,-19,2,16,11,30,25,21,19,16
14,23,9,-19,2,16,11,29,25,22,20,16
13,23,9,-18,2,16,12,29,26,22,20,17
12,23,10,-17,1,16,12,28,26,23,21,17
10,22,11,-16,0,16,12,28,26,23,21,17
8,22,12,-15,-2,16,12,27,26,23,21,17
7,21,13,-14,-3,16,12,27,26,23,21,17
6,21,14,-13,-4,17,12,26,26,23,20,16
4,19,15,-12,-5,17,11,25,25,22,20,16
3,18,15,-11,-6,16,10,23,24,22,19,15
4,18,14,-11,-5,16,10,23,24,21,18,15
4,18,14,-11,-5,16,10,22,23,21,18,15
4,18,13,-11,-5,16,10,22,23,21,17,15
4,18,13,-11,-5,16,9,21,22,20,17,14
5,18,13,-12,-4,15,9,20,21,19,16,13
6,18,12,-12,-3,14,8,19,20,18,15,12
6,17,11,-12,-2,14,8,18,19,17,14,11
6,16,11,-11,-2,13,7,17,18,16,14,11
5,16,10,-10,-3,13,7,16,17,15,13,10
5,15,10,-10,-3,12,6,15,16,14,13,10
4,15,10,-9,-3,12,6,15,16,14,12,9
3,14,10,-9,-4,12,5,14,15,13,11,9
3,13,10,-8,-4,12,5,14,14,12,11,8
3,13,9,-9,-4,12,4,13,14,12,10,8
4,14,9,-9,-4,12,4,12,13,11,10,8
5,14,9,-9,-3,12,4,11,12,11,9,8
5,14,9,-10,-3,12,4,11,12,10,9,8
5,14,8,-10,-2,12,4,10,11,10,8,7
5,14,8,-10,-2,12,4,10,11,10,8,7
5,14,8,-10,-2,12,4,9,10,9,7,7
5,15,9,-10,-2,12,5,9,10,9,7,7
5,15,9,-10,-3,12,5,9,10,9,7,7
4,14,10,-9,-4,12,5,9,9,8,7,7
2,14,11,-7,-5,13,5,9,9,8,7,7
1,14,12,-7,-6,13,5,8,9,7,7,7
0,14,13,-7,-7,14,5,8,9,7,7,7
-1,14,14,-6,-8,14,5,7,8,7,7,7
-1,14,14,-6,-8,14,5,7,8,7,7,6
0,15,15,-7,-7,15,6,7,8,7,7,6
1,16,15,-9,-7,15,6,7,7,6,7,6
2,17,15,-9,-7,15,6,7,7,6,6,6
1,16,15,-9,-7,15,6,6,6,5,6,6
1,16,14,-8,-7,14,6,6,6,5,6,6
0,14,13,-7,-7,14,6,6,6,5,5,6
0,13,13,-6,-7,13,6,6,5,4,5,5
-1,13,12,-6,-7,13,6,6,5,4,5,5
-1,13,12,-6,-7,13,5,6,5,4,5,5
0,14,13,-7,-7,14,5,6,5,4,5,6
1,16,14,-9,-6,15,4,5,5,4,5,6
3,18,14,-11,-5,15,2,3,4,4,5,6
5,19,14,-12,-5,16,1,1,3,4,5,6
4,19,14,-11,-5,16,0,-1,2,3,5,6
3,18,14,-11,-5,16,-1,-3,0,2,4,6
4,20,15,-12,-5,17,-1,-4,0,1,4,6
7,22,14,-15,-3,18,0,-3,0,1,4,6
9,23,13,-16,-2,17,0,-3,0,1,4,5
10,22,12,-16,-1,16,-1,-4,-1,0,3,4
10,21,11,-15,0,14,-2,-4,-2,0,2,4
10,20,10,-15,0,14,-3,-5,-3,0,2,4
11,20,9,-15,0,13,-3,-5,-3,0,2,5
11,19,8,-15,1,13,-4,-5,-2,1,3,6
12,19,7,-16,2,13,-4,-5,-2,1,4,6
13,20,6,-17,3,13,-4,-5,-2,1,4,6
13,19,5,-16,4,12,-4,-5,-2,0,3,6
12,17,3,-15,4,10,-4,-5,-3,0,2,4
11,14,2,-13,5,8,-4,-5,-3,-1,1,3
11,13,1,-12,5,7,-4,-4,-3,-1,1,3
11,12,0,-12,5,6,-3,-4,-3,-2,0,2
11,11,0,-11,6,5,-3,-4,-3,-2,0,2
10,10,0,-9,5,5,-3,-4,-3,-2,0,1
7,8,0,-7,3,5,-2,-3,-3,-2,0,1
5,7,1,-5,2,4,-1,-3,-3,-3,0,0
3,5,1,-4,1,3,0,-2,-3,-3,-1,0
3,5,1,-3,0,3,1,-2,-3,-3,-2,-1
3,5,2,-4,0,4,2,-1,-3,-3,-2,-1
2,5,3,-3,-1,4,2,-1,-3,-3,-2,-1
1,5,3,-3,-1,5,2,-1,-3,-3,-2,-1
2,5,3,-3,-1,5,2,-1,-3,-3,-2,-1
2,5,3,-3,0,4,1,-2,-4,-4,-2,-1
1,3,2,-2,0,3,0,-3,-5,-5,-3,-2
0,1,1,0,-1,1,0,-3,-6,-6,-4,-3
-2,-1,0,1,-2,0,0,-4,-7,-7,-5,-4
-4,-3,0,3,-2,-1,-1,-5,-8,-8,-6,-5
-5,-4,0,5,-3,-1,-1,-6,-8,-9,-6,-5
-5,-4,0,5,-3,-1,-1,-6,-8,-8,-6,-5
-4,-3,0,4,-2,-1,-1,-5,-8,-8,-6,-5
-3,-2,0,2,-1,-1,-1,-5,-8,-8,-6,-5
-1,-1,-1,1,0,-1,-1,-4,-8,-8,-6,-5
0,-2,-1,1,0,-2,-1,-4,-8,-8,-6,-6
0,-2,-2,1,1,-2,-1,-4,-8,-8,-7,-6
0,-2,-2,1,1,-2,-1,-4,-8,-8,-7,-7
0,-2,-2,1,1,-3,-1,-4,-8,-9,-8,-7
-1,-3,-3,2,0,-3,-1,-5,-8,-9,-8,-7
-2,-4,-3,3,0,-4,-1,-6,-9,-10,-9,-7
-2,-5,-3,3,0,-4,-1,-6,-9,-10,-9,-7
-1,-4,-3,2,1,-3,0,-6,-9,-10,-9,-7
0,-4,-3,1,1,-3,0,-5,-9,-10,-9,-7
0,-4,-4,1,1,-4,-1,-5,-9,-10,-9,-7
0,-4,-4,1,1,-4,-1,-5,-8,-10,-9,-7
0,-4,-3,1,1,-3,-1,-4,-7,-9,-9,-7
0,-3,-3,2,1,-3,0,-3,-6,-9,-9,-7
0,-3,-3,2,1,-3,1,-3,-5,-8,-8,-7
-1,-2,-2,2,1,-2,3,-2,-4,-7,-8,-7
-1,-2,-1,2,0,-2,4,-1,-2,-6,-7,-6
-2,-3,-1,2,-1,-2,4,0,0,-4,-6,-6
-2,-3,-1,2,-1,-2,5,1,2,-1,-4,-6
-1,-3,-1,1,0,-2,5,3,6,2,-2,-5
2,-1,-3,-1,2,-1,6,6,10,6,1,-3
7,1,-5,-4,6,-1,6,10,16,12,6,0
12,4,-7,-8,10,-1,5,14,23,20,12,4
18,6,-11,-12,15,-2,3,18,32,30,19,9
24,9,-14,-17,20,-2,2,20,41,40,28,15
32,14,-17,-23,25,-1,-1,19,50,53,38,22
39,21,-18,-31,29,2,-6,13,59,67,51,31
46,31,-16,-39,31,7,-13,4,67,82,65,42
52,42,-11,-48,31,15,-21,-8,73,97,78,53
57,52,-5,-55,31,23,-29,-23,78,110,91,64
60,61,1,-61,30,31,-37,-39,82,121,102,74
61,70,8,-66,27,39,-43,-54,86,133,112,83
60,77,17,-69,22,48,-50,-70,88,142,121,91
55,81,26,-68,14,54,-56,-86,84,144,124,95
45,80,34,-63,5,58,-61,-102,72,134,118,92
34,74,40,-55,-4,58,-65,-118,52,114,104,84
23,67,43,-46,-11,55,-69,-132,26,88,86,73
13,58,43,-36,-15,51,-74,-144,-1,60,66,60
4,45,40,-25,-17,43,-77,-151,-29,31,43,45
-4,30,33,-13,-18,32,-77,-150,-52,3,19,27
-11,14,25,-1,-18,20,-72,-142,-68,-21,-3,9
-17,-1,17,9,-17,8,-64,-130,-77,-39,-22,-6
-20,-13,7,16,-14,-2,-56,-115,-79,-49,-33,-17
-20,-21,-1,20,-10,-11,-47,-98,-74,-52,-38,-24
-19,-25,-6,22,-7,-16,-40,-81,-67,-51,-39,-27
-17,-26,-10,21,-4,-18,-33,-64,-59,-47,-38,-28
-15,-26,-13,20,0,-19,-26,-50,-51,-43,-36,-28
-12,-26,-15,19,2,-20,-19,-38,-45,-39,-34,-27
-9,-26,-17,17,5,-21,-14,-28,-39,-37,-32,-26
-6,-25,-18,15,6,-21,-9,-20,-35,-34,-30,-25
-5,-24,-19,14,7,-21,-6,-14,-31,-32,-29,-24
-5,-23,-18,14,6,-21,-4,-10,-29,-31,-27,-23
-6,-23,-17,14,5,-20,-3,-7,-26,-29,-26,-22
-7,-22,-17,14,4,-19,-2,-5,-24,-28,-25,-21
-6,-20,-16,13,4,-18,-1,-3,-22,-26,-23,-20
-4,-17,-14,11,4,-15,0,-2,-21,-25,-22,-18
-2,-13,-12,8,4,-12,2,-2,-19,-23,-21,-17
0,-10,-10,5,4,-10,4,-2,-18,-22,-20,-16
1,-8,-9,3,4,-8,4,-2,-18,-22,-20,-15
1,-6,-8,2,4,-7,4,-2,-17,-21,-19,-15
1,-6,-7,1,4,-6,4,-2,-17,-21,-19,-14
1,-6,-7,1,4,-6,4,-2,-17,-21,-18,-14
0,-6,-7,2,4,-6,4,-2,-16,-21,-18,-14
0,-6,-7,2,4,-6,4,-2,-16,-20,-18,-14
0,-6,-7,2,4,-6,4,-3,-16,-21,-18,-14
0,-7,-6,3,3,-6,4,-4,-16,-21,-18,-14
0,-7,-6,3,3,-6,4,-4,-16,-21,-18,-14
-1,-7,-6,4,2,-6,4,-4,-17,-21,-18,-14
-1,-7,-6,3,2,-6,4,-3,-17,-20,-18,-14
0,-5,-6,1,3,-5,5,-2,-16,-20,-17,-13
2,-2,-6,0,4,-4,6,-2,-16,-19,-16,-13
2,-2,-6,0,5,-4,6,-2,-16,-19,-16,-12
1,-3,-6,1,4,-5,6,-3,-16,-20,-17,-13
0,-6,-6,3,4,-6,5,-4,-17,-21,-18,-14
-1,-7,-6,4,3,-7,4,-5,-17,-22,-18,-14
-1,-8,-7,4,3,-8,4,-5,-18,-22,-19,-14
-1,-8,-7,4,3,-8,3,-5,-18,-23,-19,-15
-2,-9,-8,5,3,-9,3,-6,-19,-23,-20,-16
-2,-10,-8,6,3,-9,2,-6,-20,-23,-20,-16
-1,-9,-9,6,4,-9,2,-6,-20,-23,-20,-16
-1,-9,-9,6,4,-9,2,-6,-20,-23,-20,-16
-1,-10,-9,6,4,-9,2,-6,-20,-24,-20,-16
0,-9,-9,5,4,-9,2,-6,-19,-23,-20,-16
0,-9,-9,4,5,-9,2,-5,-19,-23,-20,-16
0,-8,-9,4,5,-9,2,-5,-19,-23,-20,-16
0,-8,-10,4,5,-9,3,-5,-19,-23,-20,-16
0,-9,-11,4,5,-10,3,-4,-19,-23,-20,-16
0,-10,-11,5,4,-10,2,-5,-19,-24,-21,-17
0,-10,-11,5,4,-10,2,-5,-20,-24,-21,-18
-1,-11,-11,6,4,-11,1,-5,-20,-25,-22,-18
-2,-13,-11,7,4,-11,1,-6,-20,-25,-22,-19
-3,-14,-11,8,4,-12,0,-6,-20,-25,-23,-19
-3,-14,-11,8,4,-12,0,-5,-20,-25,-23,-19
-2,-14,-11,7,5,-12,0,-5,-20,-25,-23,-19
-3,-14,-11,8,4,-13,0,-4,-20,-26,-23,-19
-4,-15,-11,8,4,-13,0,-4,-20,-26,-23,-19
-4,-14,-11,9,3,-12,0,-4,-19,-26,-23,-19
-3,-14,-12,8,4,-12,1,-3,-19,-26,-23,-18
-2,-13,-12,8,5,-12,1,-2,-18,-26,-23,-18
-1,-13,-12,7,5,-12,1,-2,-18,-26,-23,-18
0,-13,-12,6,6,-12,1,-1,-18,-26,-23,-18
0,-12,-12,5,6,-12,1,0,-18,-26,-23,-18
0,-11,-12,5,6,-12,1,0,-18,-26,-23,-19
0,-12,-12,5,6,-12,1,0,-18,-26,-23,-19
0,-12,-12,6,6,-12,0,0,-18,-26,-24,-19
-1,-13,-12,7,5,-12,0,0,-18,-26,-24,-20
-2,-14,-12,8,5,-13,0,0,-18,-27,-25,-20
-2,-15,-12,8,5,-13,0,0,-19,-28,-25,-21
-1,-15,-13,8,5,-13,0,1,-19,-28,-25,-21
0,-14,-14,7,6,-13,-1,1,-19,-28,-25,-21
0,-14,-15,7,7,-14,-2,1,-20,-28,-25,-21
1,-14,-16,6,8,-15,-1,2,-20,-28,-25,-21
2,-13,-17,5,9,-15,0,2,-20,-28,-25,-21
4,-12,-17,3,10,-14,0,3,-20,-28,-25,-21
6,-10,-17,2,12,-14,0,3,-20,-28,-25,-21
7,-10,-18,1,12,-14,0,4,-19,-28,-24,-20
6,-11,-18,2,12,-14,0,4,-19,-28,-24,-20
5,-11,-17,2,11,-14,0,5,-19,-28,-23,-20
5,-11,-17,2,11,-14,0,5,-18,-27,-23,-19
7,-9,-17,0,12,-13,1,6,-17,-26,-22,-18
8,-7,-17,-1,12,-12,2,8,-16,-25,-21,-17
9,-6,-17,-2,12,-11,2,9,-15,-24,-20,-16
10,-5,-16,-3,13,-10,3,10,-14,-23,-18,-15
13,-2,-16,-6,14,-9,4,11,-13,-22,-17,-13
16,0,-16,-8,16,-8,4,12,-12,-20,-15,-12
16,0,-17,-8,16,-8,4,13,-11,-20,-15,-11
14,-2,-16,-6,16,-8,4,13,-11,-19,-14,-11
13,-2,-15,-5,14,-8,4,13,-10,-19,-14,-11
13,-1,-14,-6,13,-7,4,14,-10,-18,-13,-10
14,1,-13,-7,13,-6,4,15,-9,-17,-12,-9
14,2,-13,-7,13,-6,4,16,-8,-16,-11,-8
14,2,-12,-7,13,-5,4,16,-7,-15,-11,-8
13,2,-12,-7,13,-5,4,16,-6,-15,-10,-7
13,1,-12,-7,12,-5,4,16,-5,-14,-9,-7
12,0,-12,-6,12,-5,4,16,-5,-13,-8,-6
10,-1,-12,-4,11,-6,4,16,-4,-12,-8,-6
8,-3,-12,-3,10,-7,3,16,-4,-12,-8,-6
7,-3,-11,-1,9,-7,3,17,-4,-11,-8,-6
6,-4,-11,0,8,-8,2,17,-3,-11,-7,-5
6,-5,-11,0,8,-8,2,18,-3,-10,-7,-5
6,-4,-11,0,8,-7,2,19,-1,-9,-6,-4
7,-3,-10,-1,8,-6,3,20,0,-7,-4,-3
7,-2,-9,-2,8,-5,3,21,2,-5,-2,-1
7,-1,-8,-3,8,-4,3,22,4,-3,0,0
7,0,-8,-3,8,-4,3,23,6,-1,1,1
8,0,-8,-4,8,-3,4,24,7,1,2,2
9,2,-8,-5,8,-2,4,24,9,2,4,3
10,3,-7,-7,8,-1,4,24,10,4,5,4
11,4,-7,-8,8,-1,4,25,11,5,6,5
11,5,-7,-8,9,0,4,25,12,7,7,6
11,5,-7,-9,9,0,5,25,14,8,9,7
11,6,-6,-9,8,0,5,25,16,10,10,8
12,7,-5,-10,8,1,5,25,18,12,12,10
13,8,-5,-10,8,2,6,26,19,14,13,11
15,11,-4,-12,9,4,7,26,21,16,14,12
18,15,-4,-16,10,6,8,27,22,18,16,14
20,17,-3,-19,11,7,8,28,23,19,17,14
20,17,-3,-19,11,7,8,27,24,19,17,14
20,16,-3,-18,11,7,7,27,24,19,17,14
20,16,-3,-18,11,6,7,26,24,19,17,14
20,16,-3,-18,11,7,6,26,24,20,17,14
20,16,-3,-18,11,7,6,25,24,20,17,14
20,17,-3,-18,11,7,5,25,23,20,17,14
20,17,-3,-18,11,7,5,24,23,19,16,14
19,17,-3,-18,10,7,5,23,23,19,16,14
18,15,-3,-16,9,6,5,22,22,18,15,13
17,14,-3,-15,9,6,5,21,22,18,15,13
17,14,-3,-15,9,6,5,20,21,18,15,12
16,13,-2,-14,8,6,5,19,20,17,14,12
14,11,-2,-12,7,5,5,18,19,16,13,11
11,10,-1,-10,5,5,5,18,18,15,12,10
10,9,-1,-9,4,4,5,17,18,14,11,10
9,8,-1,-8,4,4,5,16,17,14,11,9
9,8,-1,-8,4,4,4,15,17,14,10,9
9,8,-1,-8,4,4,4,15,16,13,10,8
8,7,-1,-7,4,3,4,14,15,13,9,8
8,6,-2,-7,4,2,4,13,14,12,9,8
8,5,-2,-6,5,1,4,12,13,11,8,7
6,4,-2,-5,4,1,4,11,12,10,7,6
5,2,-2,-3,3,0,3,10,11,9,6,5
4,2,-3,-3,3,0,2,9,10,8,6,5
4,1,-3,-3,3,0,2,8,10,7,5,4
4,1,-3,-3,3,0,1,8,9,7,5,4
5,2,-2,-3,3,0,1,7,9,6,5,4
6,4,-2,-4,4,0,1,7,8,6,5,4
7,5,-2,-5,4,1,1,7,8,6,4,4
7,5,-2,-6,4,1,1,7,8,6,4,4
8,6,-2,-7,4,2,2,7,8,6,4,4
10,8,-2,-8,5,2,3,8,8,6,4,4
11,9,-2,-10,6,3,3,8,8,6,5,4
13,11,-2,-12,7,4,4,8,9,7,5,5
15,13,-1,-14,7,6,5,9,9,7,6,5
16,15,-1,-15,8,7,5,9,10,8,7,6
17,16,0,-16,8,8,6,10,10,9,8,7
17,17,0,-17,8,9,7,10,10,8,8,7
17,18,0,-17,8,9,7,9,9,8,7,7
16,17,1,-16,7,9,6,9,8,7,7,6
15,17,1,-16,7,9,5,8,7,6,6,6
14,15,1,-15,6,9,5,7,6,5,5,5
12,14,1,-13,5,8,4,6,5,4,4,4
11,13,1,-12,4,7,4,5,5,3,4,4
10,12,1,-11,4,6,4,5,4,2,3,3
10,11,0,-11,4,6,4,5,4,2,3,3
10,11,0,-11,4,5,3,5,4,2,3,3
9,11,1,-10,3,6,3,4,3,1,3,3
7,11,3,-9,2,6,1,2,2,1,2,2
5,10,4,-7,0,7,-1,0,0,0,2,2
3,9,5,-6,-1,7,-3,-2,0,0,1,2
3,9,6,-6,-1,8,-4,-3,-1,0,1,2
4,10,6,-7,-1,8,-5,-4,-1,0,1,2
4,10,6,-7,-1,8,-5,-5,-2,-1,1,2
6,10,5,-8,0,8,-5,-6,-3,-2,0,2
7,11,4,-9,1,8,-5,-7,-3,-2,0,2
8,12,3,-10,2,8,-5,-7,-4,-3,0,2
9,12,2,-10,3,7,-5,-7,-4,-3,0,2
9,11,2,-11,4,6,-5,-7,-4,-3,0,2
10,12,1,-12,5,6,-5,-7,-4,-3,0,2
11,12,0,-12,5,6,-6,-7,-4,-3,0,2
12,12,0,-12,6,5,-6,-7,-5,-3,0,2
13,12,-1,-12,7,5,-7,-7,-5,-3,0,2
13,11,-2,-12,8,4,-7,-7,-5,-3,0,2
13,10,-3,-12,8,3,-7,-7,-5,-2,0,2
13,9,-4,-11,8,2,-7,-7,-5,-2,0,2
13,8,-5,-11,9,1,-6,-6,-4,-2,0,2
13,7,-6,-10,9,0,-5,-5,-4,-2,0,1
13,6,-7,-10,10,0,-4,-5,-4,-3,-1,0
14,8,-7,-11,11,0,-2,-3,-3,-2,-1,0
17,11,-6,-14,12,2,1,-1,-1,-1,0,1
18,12,-6,-15,12,3,3,1,0,0,0,1
17,11,-7,-14,12,2,3,1,0,0,0,1
15,8,-7,-12,11,0,2,1,0,-1,-1,0
13,6,-8,-9,11,-1,2,0,-1,-2,-2,0
11,3,-8,-7,10,-2,2,0,-2,-3,-3,-1
9,0,-8,-5,9,-3,2,-1,-4,-5,-4,-2
8,-1,-8,-3,8,-4,1,-2,-5,-6,-5,-3
6,-2,-9,-1,7,-5,0,-3,-6,-7,-6,-4
5,-4,-9,0,7,-6,-1,-4,-7,-8,-7,-5
4,-4,-9,0,6,-6,-1,-4,-7,-8,-8,-6
4,-4,-9,0,6,-6,0,-4,-7,-8,-8,-6
4,-3,-8,0,6,-6,1,-4,-7,-8,-7,-5
5,-2,-8,-1,6,-5,1,-3,-7,-7,-7,-5
5,-2,-8,-1,6,-5,2,-3,-6,-7,-6,-4
4,-3,-8,0,6,-5,2,-3,-6,-8,-7,-5
3,-5,-8,1,5,-6,1,-3,-6,-8,-8,-5
2,-6,-9,2,5,-7,1,-4,-6,-9,-8,-6
1,-8,-9,3,5,-8,1,-4,-7,-9,-8,-6
0,-9,-9,5,4,-9,1,-4,-7,-9,-9,-7
-1,-10,-9,5,4,-10,0,-5,-8,-10,-9,-7
-1,-11,-9,6,4,-10,0,-5,-9,-10,-9,-8
-1,-11,-10,6,4,-11,-1,-6,-9,-10,-10,-8
-2,-12,-10,7,4,-11,-1,-6,-10,-10,-10,-8
-3,-13,-10,8,3,-11,-1,-6,-10,-11,-11,-9
-3,-13,-10,8,3,-11,-1,-6,-10,-11,-11,-9
-2,-12,-10,8,3,-11,-1,-5,-10,-11,-11,-9
-1,-11,-10,6,4,-10,0,-5,-9,-11,-11,-8
0,-10,-10,5,4,-10,0,-4,-8,-10,-10,-8
0,-8,-9,4,4,-9,1,-4,-7,-9,-10,-7
2,-6,-8,2,4,-8,3,-3,-6,-8,-9,-7
3,-4,-8,0,5,-7,4,-1,-4,-7,-8,-6
3,-4,-8,0,6,-6,5,0,-2,-5,-7,-6
3,-4,-7,0,5,-6,6,1,0,-3,-7,-5
3,-3,-7,0,5,-5,6,2,2,-1,-5,-4
4,-3,-8,0,6,-6,6,3,5,1,-4,-4
4,-4,-9,0,6,-7,6,4,7,4,-2,-3
5,-5,-10,0,7,-8,5,6,10,7,0,-2
7,-5,-12,-1,10,-9,5,8,15,13,4,0
12,-3,-15,-5,14,-9,5,12,22,21,10,4
18,-1,-19,-9,18,-10,3,16,31,31,18,9
24,2,-22,-13,23,-10,1,19,41,42,26,14
30,7,-23,-19,27,-8,-2,19,51,55,37,21
36,13,-23,-25,29,-5,-8,15,60,69,50,31
41,21,-21,-31,30,0,-15,7,68,84,64,41
45,30,-16,-37,30,6,-22,-4,74,99,77,52
49,40,-10,-44,30,14,-30,-20,78,112,90,63
52,49,-4,-50,28,22,-38,-36,82,124,101,72
54,57,3,-55,26,30,-44,-51,86,135,111,81
53,64,11,-58,21,38,-51,-67,88,144,119,89
48,68,20,-58,14,45,-57,-82,85,147,123,93
41,69,28,-55,6,49,-61,-97,74,138,118,92
33,67,34,-50,-1,50,-64,-111,55,119,105,85
22,61,38,-42,-9,49,-68,-125,30,94,87,74
11,53,40,-32,-15,46,-71,-136,3,65,67,61
1,40,38,-21,-18,39,-73,-143,-24,36,44,45
-8,24,33,-8,-20,29,-73,-143,-48,7,19,26
-16,8,24,4,-19,16,-69,-136,-66,-19,-4,7
-20,-6,14,14,-17,4,-63,-124,-76,-38,-23,-9
-21,-17,5,19,-14,-6,-55,-110,-79,-49,-35,-21
-20,-23,-3,21,-9,-13,-47,-94,-75,-53,-41,-27
-16,-25,-9,20,-4,-18,-38,-77,-67,-51,-41,-29
-12,-24,-13,18,0,-19,-29,-61,-58,-46,-39,-28
-8,-23,-16,16,4,-19,-21,-47,-50,-41,-36,-27
-3,-20,-17,12,7,-19,-13,-34,-42,-37,-33,-25
3,-16,-19,7,11,-18,-7,-23,-35,-33,-30,-22
8,-13,-21,3,15,-17,-2,-15,-30,-30,-27,-20
13,-10,-22,-1,17,-17,1,-8,-26,-27,-25,-18
15,-7,-22,-4,18,-15,3,-2,-22,-24,-22,-17
15,-6,-21,-4,17,-14,5,0,-20,-23,-21,-16
12,-6,-20,-3,15,-14,5,2,-19,-22,-20,-15
9,-7,-18,-1,13,-13,6,2,-18,-22,-19,-14
5,-10,-17,2,11,-13,6,2,-17,-21,-19,-14
0,-13,-14,6,8,-14,5,1,-17,-22,-20,-15
-4,-16,-12,11,5,-14,4,-1,-18,-22,-21,-16
-7,-19,-11,13,2,-15,3,-3,-18,-23,-21,-16
-8,-19,-10,14,1,-15,1,-4,-19,-23,-21,-16
-9,-20,-10,14,0,-15,1,-5,-19,-23,-21,-16
-9,-20,-12,14,1,-16,1,-5,-19,-23,-21,-16
-9,-21,-13,15,1,-17,1,-5,-19,-23,-21,-16
-9,-21,-12,15,2,-16,2,-5,-19,-23,-21,-16
-8,-19,-12,14,2,-15,2,-5,-19,-23,-21,-16
-8,-19,-11,14,2,-15,2,-5,-19,-22,-20,-16
-8,-20,-11,15,2,-16,2,-5,-19,-22,-20,-15
-9,-20,-11,15,1,-16,2,-5,-18,-22,-20,-15
-9,-20,-10,14,1,-15,2,-5,-18,-21,-20,-14
-10,-19,-9,14,0,-14,2,-5,-19,-22,-20,-15
-11,-20,-9,15,0,-15,1,-6,-20,-23,-20,-16
-12,-20,-9,16,-1,-15,0,-6,-20,-23,-21,-16
-12,-20,-8,16,-1,-15,0,-6,-20,-23,-21,-16
-12,-19,-7,15,-2,-14,0,-6,-19,-23,-21,-16
-11,-18,-7,15,-2,-13,1,-6,-19,-23,-21,-16
-11,-18,-7,15,-2,-13,1,-6,-19,-23,-21,-16
-9,-17,-7,14,-1,-13,1,-6,-19,-23,-22,-17
-8,-16,-8,12,0,-13,1,-6,-19,-23,-22,-17
-7,-15,-9,11,1,-12,2,-5,-19,-23,-22,-17
-6,-14,-8,10,1,-12,2,-5,-19,-23,-22,-17
-5,-13,-8,9,2,-11,3,-5,-18,-23,-22,-17
-4,-12,-8,8,2,-11,4,-4,-18,-22,-21,-16
