leadI,leadII,leadIII,leadaVR,leadaVL,leadaVF,leadV1,leadV2,leadV3,leadV4,leadV5,leadV6
1,0,-1,0,1,0,0,1,15,-3,0,-9
3,0,-3,-1,3,-1,0,4,38,-9,1,-24
5,0,-4,-2,5,-2,-1,5,52,-12,2,-33
6,1,-5,-3,6,-2,-2,6,60,-14,2,-38
7,2,-5,-4,7,-1,-2,7,64,-14,3,-41
9,3,-5,-5,7,-1,-3,7,67,-15,3,-43
9,3,-5,-5,7,-1,-3,7,68,-16,3,-44
8,3,-5,-5,7,-1,-3,7,68,-17,2,-46
8,2,-5,-4,7,-1,-4,6,68,-17,2,-47
7,1,-6,-4,7,-2,-4,5,67,-17,2,-47
8,1,-7,-4,8,-2,-5,4,67,-18,1,-48
9,1,-8,-5,9,-3,-5,4,66,-19,1,-48
10,1,-9,-5,10,-4,-4,5,65,-20,1,-47
10,0,-9,-5,10,-5,-3,5,64,-21,1,-46
11,0,-10,-5,11,-6,-2,5,63,-22,0,-45
10,-1,-11,-4,11,-7,-2,5,62,-23,0,-45
7,-2,-10,-2,9,-7,-1,5,62,-22,1,-44
5,-3,-8,0,7,-6,0,6,61,-22,2,-43
3,-5,-8,1,6,-7,0,5,60,-23,1,-43
2,-7,-8,2,5,-8,0,4,58,-24,0,-44
0,-8,-8,4,5,-8,0,4,55,-25,-1,-45
0,-9,-8,5,4,-8,1,3,52,-26,-2,-46
0,-8,-7,5,4,-8,1,4,51,-25,-2,-47
0,-7,-6,4,3,-7,2,5,51,-24,-2,-47
-1,-7,-6,4,3,-7,2,5,51,-24,-2,-48
-1,-7,-7,4,3,-7,3,5,50,-25,-3,-48
0,-6,-8,2,4,-7,3,5,50,-25,-3,-48
2,-6,-8,1,5,-7,4,5,50,-26,-3,-48
2,-7,-9,2,5,-8,4,5,50,-26,-3,-49
0,-9,-10,5,5,-10,3,5,50,-26,-4,-50
-2,-11,-9,7,3,-11,2,4,50,-26,-4,-51
-3,-12,-9,8,3,-11,2,4,50,-26,-4,-52
-4,-13,-9,9,2,-12,1,3,49,-27,-5,-54
-4,-13,-9,9,2,-11,2,3,49,-28,-5,-54
-4,-11,-8,7,2,-10,3,4,49,-29,-6,-55
-3,-10,-8,6,2,-10,4,4,49,-29,-6,-56
-3,-11,-8,7,2,-10,4,4,49,-29,-6,-57
-3,-11,-8,7,2,-10,5,5,50,-28,-6,-58
-3,-11,-8,7,3,-10,5,5,50,-27,-5,-59
-1,-11,-10,6,5,-11,5,5,50,-26,-6,-60
0,-11,-11,6,6,-12,5,5,50,-28,-6,-60
-1,-11,-11,6,5,-11,5,5,49,-29,-6,-61
-2,-12,-10,6,4,-11,4,5,49,-30,-6,-61
-3,-12,-10,7,3,-11,4,5,49,-30,-6,-62
-3,-13,-10,7,3,-12,4,5,48,-30,-7,-63
-3,-13,-10,8,3,-12,4,5,48,-30,-7,-64
-3,-14,-11,9,3,-12,4,5,48,-30,-7,-64
-3,-15,-11,9,4,-13,4,5,48,-30,-7,-65
-3,-15,-12,10,4,-13,4,5,48,-30,-7,-65
-3,-15,-13,9,5,-13,4,5,48,-30,-7,-66
-2,-15,-13,9,5,-14,4,5,48,-30,-7,-67
-2,-15,-13,8,5,-14,3,4,48,-30,-7,-68
-1,-14,-13,7,6,-14,3,4,48,-30,-7,-69
-1,-13,-13,7,6,-13,4,3,48,-30,-7,-70
-1,-13,-12,7,5,-13,4,3,47,-30,-7,-71
-2,-13,-11,7,4,-12,4,3,47,-31,-8,-72
-2,-12,-10,7,4,-11,4,3,47,-32,-8,-73
-3,-13,-9,7,3,-11,3,3,47,-33,-9,-74
-4,-13,-9,8,2,-11,3,3,47,-33,-9,-74
-4,-13,-8,8,2,-11,3,3,48,-32,-8,-74
-4,-13,-8,8,2,-11,4,3,48,-32,-8,-75
-3,-13,-9,8,2,-12,4,3,49,-31,-8,-75
-3,-13,-10,8,2,-12,4,3,49,-32,-8,-75
-3,-14,-10,9,3,-12,4,2,49,-32,-8,-75
-3,-15,-11,9,4,-13,4,2,49,-33,-8,-75
-3,-16,-12,9,4,-14,4,2,49,-33,-8,-75
-4,-17,-13,10,5,-15,4,2,49,-33,-8,-75
-3,-17,-13,10,5,-16,4,1,50,-33,-7,-76
-3,-17,-13,10,5,-16,4,0,50,-33,-7,-76
-4,-18,-14,11,5,-17,3,-1,49,-33,-8,-77
-3,-18,-15,10,6,-17,3,-2,49,-33,-8,-78
-2,-17,-14,9,6,-16,3,-3,49,-33,-8,-79
-3,-16,-12,9,5,-14,3,-4,50,-32,-7,-79
-4,-14,-9,9,3,-12,3,-5,51,-31,-7,-80
-4,-13,-8,9,2,-11,4,-6,52,-32,-7,-81
-3,-12,-8,8,3,-10,4,-7,52,-33,-8,-82
-2,-12,-9,7,3,-11,4,-9,52,-34,-8,-82
-2,-13,-10,7,4,-12,4,-10,51,-35,-8,-82
-2,-13,-10,8,4,-13,4,-12,50,-35,-9,-82
-2,-13,-11,7,4,-13,4,-13,50,-36,-9,-82
-1,-13,-12,7,5,-13,5,-15,54,-36,-9,-82
-2,-14,-12,8,6,-13,5,-17,26,-36,-10,-82
-3,-16,-13,9,5,-14,6,-19,-50,-37,-10,-82
-4,-17,-13,11,5,-15,6,-21,-364,-37,-10,-82
-5,-19,-13,12,4,-15,6,-23,-276,-36,-9,-82
-6,-20,-13,13,4,-16,5,-25,133,-36,-9,-83
-6,-20,-14,13,4,-17,5,-27,70,-35,-8,-83
-6,-19,-13,12,4,-17,4,-29,-201,-35,-8,-83
-6,-19,-13,12,4,-16,4,-32,-538,-35,-8,-84
-5,-17,-12,11,4,-15,4,-34,-900,-34,-8,-85
-5,-16,-11,10,4,-14,4,-36,-1256,-34,-8,-85
-4,-15,-11,9,4,-13,4,-38,-757,-33,-8,-86
-3,-13,-10,8,4,-11,5,-40,266,-33,-8,-87
-2,-11,-10,6,4,-10,5,-42,779,-33,-8,-87
-2,-11,-10,6,4,-10,5,-44,1000,-34,-8,-88
-3,-12,-10,7,4,-12,5,-46,1059,-35,-9,-88
-3,-14,-10,8,4,-13,5,-49,1031,-36,-8,-88
-3,-15,-11,9,4,-14,6,-51,959,-36,-8,-87
-3,-16,-12,9,5,-15,6,-53,868,-35,-7,-87
-3,-17,-14,10,6,-16,6,-55,771,-35,-7,-88
-4,-18,-15,12,5,-17,6,-58,676,-35,-8,-89
-5,-19,-14,13,4,-17,6,-61,587,-35,-8,-89
-6,-19,-13,13,3,-16,6,-64,506,-34,-8,-89
-5,-17,-11,11,3,-14,7,-67,433,-34,-7,-89
-4,-14,-9,9,3,-13,7,-70,368,-33,-7,-89
-4,-13,-8,8,2,-12,8,-74,311,-33,-6,-88
-3,-12,-9,7,3,-12,7,-78,260,-32,-6,-88
-1,-12,-11,6,5,-12,7,-82,216,-31,-6,-87
0,-12,-12,6,6,-12,8,-86,176,-30,-6,-86
0,-13,-13,7,6,-13,8,-89,142,-28,-5,-86
-1,-14,-13,7,5,-13,8,-93,112,-26,-4,-86
-1,-14,-12,7,5,-13,7,-96,85,-24,-4,-88
-2,-14,-11,8,5,-13,7,-100,63,-23,-3,-90
-2,-14,-11,8,5,-13,6,-103,43,-23,-3,-93
-2,-13,-10,8,5,-13,6,-105,26,-22,-3,-96
-3,-12,-9,8,4,-12,5,-108,11,-23,-3,-99
-3,-12,-9,8,3,-11,5,-110,-2,-24,-3,-102
-3,-12,-9,8,3,-11,5,-112,-14,-25,-4,-105
-3,-13,-11,8,4,-12,5,-113,-24,-26,-4,-107
-4,-14,-11,9,4,-13,6,-112,-32,-27,-4,-111
-5,-16,-11,11,3,-14,6,-110,-39,-28,-5,-114
-5,-18,-12,11,4,-15,7,-105,-62,-29,-6,-116
-4,-19,-14,11,5,-17,8,-100,-8,-30,-7,-119
-3,-21,-17,12,7,-19,9,-95,384,-29,-7,-120
-1,-21,-19,11,9,-20,10,-88,341,-26,-6,-121
2,-20,-22,9,12,-21,11,-78,-157,-19,-3,-120
5,-19,-24,7,15,-22,11,-66,-459,-9,1,-119
9,-17,-26,4,17,-22,11,-54,-812,7,8,-116
13,-15,-27,1,20,-21,10,-42,-1174,28,16,-112
15,-13,-27,0,21,-21,10,-30,-678,55,26,-107
17,-11,-28,-3,23,-20,9,-19,340,90,38,-100
21,-6,-28,-7,25,-18,7,-9,848,128,52,-91
26,0,-28,-13,27,-14,5,-2,1063,166,69,-80
32,7,-26,-19,29,-10,1,2,1116,199,87,-67
38,15,-24,-26,31,-4,-4,4,1083,224,105,-54
43,24,-20,-33,31,2,-9,2,1007,243,123,-41
47,33,-14,-40,31,9,-13,-1,912,257,141,-29
48,40,-7,-44,28,16,-16,-3,813,267,156,-18
46,46,0,-46,24,23,-16,-5,716,269,163,-12
41,50,9,-46,18,29,-15,-10,624,259,159,-11
34,52,17,-43,9,34,-13,-19,597,240,143,-18
25,52,27,-38,0,39,-11,-32,408,213,117,-33
13,51,38,-32,-12,44,-8,-48,-77,182,86,-52
1,52,50,-26,-24,51,-6,-65,42,150,54,-73
-10,52,62,-21,-36,57,-3,-79,-74,122,27,-92
-20,53,73,-17,-46,63,0,-87,-284,102,8,-106
-28,54,82,-13,-54,68,2,-91,89,86,-4,-117
-33,56,89,-12,-60,72,3,-92,450,73,-11,-124
-34,60,94,-13,-63,77,4,-92,346,64,-15,-129
-35,62,97,-14,-65,79,4,-90,58,58,-16,-132
-35,62,96,-13,-65,79,4,-85,-45,51,-17,-135
-35,59,93,-11,-64,76,3,-79,-508,44,-19,-138
-36,53,89,-8,-63,71,1,-75,-295,35,-22,-141
-37,46,83,-4,-60,65,0,-71,148,26,-25,-144
-37,40,78,-2,-57,59,-2,-67,-261,20,-26,-145
-34,37,72,-1,-53,54,-3,-62,-838,16,-27,-146
-30,35,66,-2,-47,50,-4,-58,-939,13,-27,-147
-26,35,61,-4,-43,48,-4,-53,-581,10,-27,-147
-24,34,57,-5,-40,46,-5,-49,-369,7,-26,-147
-22,32,53,-5,-38,43,-6,-45,-244,5,-26,-148
-21,30,50,-5,-36,41,-7,-41,-66,4,-25,-149
-20,28,48,-4,-34,38,-7,-37,340,2,-24,-149
-20,25,45,-3,-33,35,-8,-35,321,0,-23,-148
-19,20,40,-1,-30,30,-8,-33,-439,-2,-23,-148
-18,16,35,0,-26,25,-7,-30,-398,-3,-22,-146
-16,12,29,2,-22,20,-7,-28,-255,-4,-22,-143
-16,8,24,4,-19,16,-7,-25,-381,-4,-22,-138
-16,4,19,5,-17,11,-7,-23,-117,-4,-21,-123
-15,1,15,6,-15,8,-7,-21,127,-3,-20,-93
-14,-1,13,7,-14,6,-6,-17,140,-2,-18,-51
-13,-2,11,7,-12,5,-5,-15,-176,-1,-16,-5
-11,-3,9,7,-10,3,-4,-13,-21,-2,-15,44
-10,-5,7,7,-8,1,-4,-12,265,-4,-15,95
-11,-6,5,8,-7,0,-3,-12,501,-5,-14,151
-11,-6,5,8,-7,0,-3,-10,595,-4,-13,218
-10,-5,4,7,-6,0,-3,-9,506,-3,-12,293
-9,-4,4,6,-6,0,-3,-8,222,-4,-11,366
-8,-3,4,5,-6,0,-2,-7,-252,-4,-10,431
-6,-2,4,3,-5,1,-2,-6,-71,-3,-9,489
-5,-1,4,3,-4,1,-2,-5,441,-3,-8,538
-6,-2,4,4,-5,0,-2,-5,264,-4,-7,579
-6,-3,4,5,-5,0,-2,-5,-367,-5,-7,616
-6,-3,4,5,-5,0,-1,-4,-470,-6,-7,650
-7,-3,3,6,-5,0,-1,-4,-294,-8,-8,679
-8,-4,3,6,-6,0,-2,-4,17,-10,-9,702
-7,-3,3,5,-6,0,-1,-3,385,-10,-8,720
-6,-2,3,4,-5,0,-1,-2,763,-10,-7,733
-5,-2,3,3,-4,0,0,-1,1127,-10,-6,742
-5,-2,3,3,-4,0,0,0,629,-9,-5,748
-6,-3,3,5,-4,0,0,0,-395,-8,-5,752
-7,-3,3,5,-5,0,0,0,-910,-7,-4,753
-8,-3,5,6,-6,1,0,0,-1135,-7,-4,752
-10,-2,7,6,-8,2,0,0,-1197,-9,-5,750
-11,-2,9,6,-10,3,-1,0,-1171,-11,-6,746
-11,-2,9,6,-10,3,-1,0,-1100,-13,-7,741
-9,0,10,4,-10,4,-1,0,-1009,-15,-7,736
-8,0,10,4,-10,4,-1,0,-914,-15,-7,731
-8,0,10,4,-9,4,0,1,-820,-14,-6,726
-8,0,9,4,-8,4,0,2,-733,-13,-5,720
-8,0,8,4,-8,4,0,2,-653,-13,-4,713
-9,0,9,4,-9,4,0,3,-501,-12,-4,705
-10,0,10,5,-10,5,1,3,-320,-12,-4,695
-10,0,10,5,-10,5,1,3,-211,-12,-4,684
-11,0,11,6,-11,5,0,2,-147,-13,-4,670
-12,0,11,6,-12,5,0,1,-108,-15,-5,655
-12,0,12,6,-12,6,-1,1,-85,-15,-6,641
-10,3,13,3,-12,8,0,2,-71,-13,-5,627
-7,7,13,0,-10,10,0,3,-63,-12,-4,612
-6,9,14,-2,-10,12,0,4,-58,-11,-4,595
-7,9,16,-1,-11,13,1,4,-55,-10,-4,575
-9,8,18,0,-13,13,1,4,-53,-9,-3,552
-10,7,17,1,-13,12,1,4,-51,-9,-3,525
-10,5,16,2,-13,11,1,4,-50,-10,-4,495
-11,4,16,3,-14,11,1,3,-50,-11,-5,462
-12,4,16,3,-14,11,1,3,-49,-11,-5,428
-12,3,16,4,-14,10,1,2,-49,-10,-5,395
-12,4,16,4,-14,11,1,2,-48,-9,-4,364
-12,5,17,3,-14,12,1,2,-48,-9,-4,336
-11,6,18,2,-14,13,1,2,-47,-9,-4,309
-10,7,18,1,-14,13,2,2,-47,-10,-3,283
-10,9,19,0,-14,14,2,2,-46,-10,-3,260
-10,10,20,0,-15,15,1,3,-46,-8,-2,238
-11,11,22,0,-16,17,1,3,-45,-7,-2,218
-11,12,24,0,-17,18,1,2,-45,-9,-2,200
-11,13,25,-1,-18,19,1,2,-44,-12,-3,183
-11,13,25,-1,-18,20,1,2,-44,-13,-4,169
-11,13,25,-1,-18,19,1,2,-44,-14,-4,156
-11,12,24,0,-18,18,1,2,-43,-15,-4,143
-13,10,24,1,-18,17,2,2,-43,-16,-3,131
-14,10,24,1,-19,17,3,2,-43,-16,-3,119
-13,11,24,1,-18,17,4,2,-42,-16,-2,109
-12,12,24,0,-18,18,4,3,-42,-15,-2,99
-11,13,24,0,-18,18,3,3,-41,-15,-1,90
-11,13,25,0,-18,19,2,3,-41,-14,-1,82
-12,13,26,0,-19,20,2,3,-41,-14,-1,73
-13,13,27,0,-20,21,1,3,-40,-14,0,65
-13,14,28,0,-21,21,1,3,-40,-15,0,57
-14,14,28,0,-21,21,1,3,-39,-16,0,50
-14,14,27,0,-20,21,1,3,-39,-18,-1,42
-13,13,26,0,-20,20,2,3,-39,-19,-1,36
-12,13,25,-1,-19,19,2,3,-38,-19,0,31
-10,15,25,-3,-18,20,3,4,-38,-18,1,27
-7,18,26,-6,-17,22,4,6,-38,-17,2,23
-6,20,26,-7,-16,23,5,7,-37,-17,3,19
-6,20,26,-6,-16,23,4,8,-37,-17,3,14
-6,19,26,-6,-16,22,4,9,-37,-18,3,9
-7,18,25,-5,-16,22,4,9,-36,-18,3,5
-8,17,25,-5,-16,21,4,9,-36,-19,3,2
-8,17,24,-5,-16,21,4,9,-36,-21,3,1
-7,17,24,-6,-16,21,4,9,-35,-22,2,0
-5,18,24,-7,-15,21,3,10,-35,-23,2,1
-4,19,23,-8,-14,21,2,10,-35,-23,2,2
-3,21,24,-9,-13,22,2,11,-34,-21,3,4
-3,22,25,-9,-14,23,2,13,-34,-19,5,7
-5,21,26,-8,-15,23,2,14,-34,-18,6,11
-4,20,25,-8,-14,22,1,14,-33,-19,6,16
-4,19,24,-8,-14,21,1,14,-33,-20,5,22
-5,18,23,-6,-14,20,0,14,-32,-20,6,30
-6,16,22,-5,-14,19,0,15,-32,-20,6,38
-5,16,21,-5,-13,19,0,15,-32,-21,6,46
-4,16,21,-6,-12,18,0,16,-31,-23,6,56
-4,17,21,-6,-12,19,0,16,-31,-23,6,68
-3,18,21,-8,-12,20,1,17,-31,-23,6,83
-2,19,21,-9,-11,20,1,18,-30,-22,6,98
-2,19,21,-9,-11,20,2,18,-30,-23,6,115
-2,19,21,-9,-11,20,2,18,-29,-23,6,130
-2,17,20,-8,-11,19,1,18,-29,-23,6,143
-3,16,19,-7,-11,17,0,18,-29,-24,5,154
-3,15,18,-6,-11,16,0,18,-28,-25,5,162
-3,14,17,-5,-11,16,-1,18,-28,-25,5,169
-3,14,17,-5,-10,15,-1,17,-28,-26,4,175
-2,14,16,-6,-9,15,-1,17,-27,-27,3,180
-2,14,16,-6,-8,15,-1,17,-27,-29,2,185
-3,13,16,-5,-9,14,-2,17,-27,-30,2,190
-4,10,15,-3,-9,13,-2,17,-26,-31,1,194
-5,8,14,-1,-10,11,-2,16,-26,-32,0,198
-6,6,14,0,-10,10,-2,16,-26,-33,0,201
-4,7,13,-2,-9,10,-2,17,-25,-32,0,204
0,10,11,-5,-6,11,-1,18,-25,-32,1,207
2,11,10,-7,-4,10,-1,18,-24,-32,2,208
3,11,9,-7,-3,10,0,19,-24,-32,2,209
4,12,9,-8,-2,10,0,20,-24,-32,2,210
5,13,8,-9,-1,10,1,20,-24,-32,2,211
5,13,8,-9,-1,10,0,20,-23,-32,2,210
5,13,8,-9,-1,10,0,20,-23,-32,1,209
4,12,8,-7,-2,10,0,20,-22,-32,0,207
3,10,7,-6,-2,9,-1,20,-22,-33,-1,205
3,8,6,-5,-2,7,-1,20,-22,-33,-2,204
4,7,4,-5,0,6,-1,20,-21,-35,-2,202
4,6,3,-5,1,4,-1,20,-21,-36,-2,201
2,4,2,-3,1,3,-1,20,-21,-37,-3,200
1,2,1,-2,0,1,-1,20,-20,-38,-3,199
2,1,0,-2,1,0,0,20,-20,-38,-3,197
3,0,-2,-2,2,0,-1,21,-20,-38,-3,195
3,0,-3,-1,3,-1,-1,21,-19,-39,-4,191
3,0,-3,-1,3,-1,-1,21,-19,-40,-4,188
5,1,-3,-3,4,-1,-1,22,-19,-40,-4,185
7,2,-4,-4,6,-1,-1,23,-18,-39,-4,181
6,1,-4,-3,5,-2,-1,23,-18,-38,-4,177
5,1,-4,-2,4,-2,-1,23,-18,-38,-4,173
5,1,-4,-2,4,-2,-1,24,-17,-39,-4,169
4,0,-4,-1,4,-2,-1,24,-17,-41,-5,164
4,-1,-5,-1,4,-3,-1,24,-17,-41,-5,159
4,-2,-6,-1,4,-4,0,24,-16,-40,-5,154
4,-2,-6,-1,5,-4,-1,24,-16,-39,-4,148
4,-2,-6,-1,5,-5,-1,24,-15,-39,-5,141
4,-1,-6,-1,5,-5,-1,25,-15,-39,-5,135
4,-1,-7,-1,5,-5,-1,25,-15,-41,-6,128
4,-3,-8,0,6,-5,-1,25,-15,-43,-6,121
5,-4,-9,0,7,-6,-1,25,-14,-44,-6,115
5,-5,-10,0,8,-7,-1,25,-14,-45,-6,108
5,-7,-11,2,8,-9,-1,25,-13,-45,-7,100
3,-9,-11,3,7,-10,0,25,-13,-46,-7,92
3,-9,-11,4,7,-10,0,25,-13,-45,-7,85
3,-8,-11,3,7,-9,1,25,-12,-44,-7,78
4,-6,-11,1,7,-8,2,26,-12,-43,-6,72
6,-3,-10,-1,7,-6,2,26,-12,-42,-6,65
6,-2,-9,-2,7,-5,2,27,-12,-41,-6,59
7,-1,-8,-3,7,-5,2,27,-11,-41,-6,52
8,0,-8,-4,7,-4,2,27,-11,-42,-6,45
7,0,-7,-3,7,-5,1,27,-11,-45,-7,39
5,-3,-8,-1,7,-6,1,26,-10,-47,-7,32
4,-6,-9,0,7,-8,1,26,-10,-47,-7,26
3,-7,-10,2,7,-9,1,26,-9,-47,-7,21
3,-8,-11,2,7,-9,1,26,-9,-47,-7,17
2,-9,-11,3,6,-10,1,25,-9,-47,-7,12
0,-10,-11,5,5,-11,1,25,-8,-48,-7,6
0,-10,-10,5,5,-10,2,25,-8,-48,-7,1
0,-9,-10,4,5,-10,3,25,-8,-49,-6,-4
0,-8,-9,4,5,-9,4,25,-8,-50,-7,-9
0,-8,-9,4,4,-9,4,25,-7,-50,-7,-14
-1,-8,-8,5,4,-8,4,25,-7,-50,-8,-18
0,-8,-8,4,4,-8,4,26,-7,-50,-8,-22
0,-8,-8,4,5,-8,4,26,-6,-51,-8,-25
0,-8,-8,4,5,-8,4,25,-6,-52,-8,-28
0,-9,-9,5,5,-9,4,25,-5,-51,-7,-31
0,-10,-9,5,5,-10,3,25,-5,-50,-7,-34
0,-10,-10,5,5,-10,3,25,-5,-50,-7,-37
0,-9,-9,4,5,-9,3,25,-4,-50,-7,-39
0,-7,-8,3,4,-8,3,26,-4,-50,-6,-41
0,-7,-7,3,4,-7,3,27,-4,-50,-6,-41
0,-7,-8,4,4,-8,2,26,-3,-51,-6,-42
-1,-8,-8,4,4,-8,1,26,-3,-53,-7,-43
-1,-9,-9,5,4,-9,1,26,-3,-53,-7,-43
-1,-9,-9,4,4,-9,2,26,-2,-52,-6,-43
0,-8,-9,3,5,-8,3,27,-2,-52,-5,-43
2,-7,-9,2,6,-8,4,27,-2,-51,-5,-42
2,-6,-9,2,6,-7,4,28,-1,-50,-4,-41
2,-7,-9,2,6,-7,4,28,-1,-50,-4,-39
1,-7,-8,3,5,-7,4,28,-1,-50,-4,-37
1,-7,-8,3,5,-7,4,29,0,-49,-3,-33
2,-6,-8,2,5,-6,5,30,0,-48,-2,-29
3,-5,-8,1,6,-7,5,31,0,-49,-2,-26
4,-5,-9,1,6,-7,4,31,0,-50,-2,-22
4,-6,-9,1,6,-8,4,35,1,-50,-2,-18
3,-6,-9,1,6,-9,4,44,1,-49,-2,-14
3,-7,-9,2,6,-9,4,56,1,-48,-2,-10
3,-7,-10,2,6,-9,4,67,2,-47,-2,-6
4,-6,-10,1,7,-9,5,77,2,-47,-2,-2
4,-6,-10,1,7,-9,5,82,2,-46,-2,1
4,-6,-10,1,7,-8,5,84,2,-45,-1,5
5,-5,-10,0,7,-7,5,85,3,-44,0,8
5,-4,-8,0,7,-6,6,84,3,-44,0,11
5,-3,-7,0,6,-5,6,81,3,-44,1,13
5,-1,-6,-1,6,-4,6,78,4,-43,1,15
6,0,-6,-2,6,-3,6,76,4,-42,2,16
6,0,-4,-2,5,-2,6,75,4,-41,3,18
5,1,-3,-2,4,-1,7,74,5,-42,3,19
7,1,-4,-3,6,-1,7,73,5,-44,3,19
7,1,-5,-3,7,-2,7,72,5,-45,2,19
5,0,-5,-2,6,-3,7,71,6,-45,3,19
4,-1,-4,-1,5,-2,8,71,6,-44,4,20
5,0,-4,-2,5,-2,9,71,7,-42,5,20
5,-1,-5,-2,6,-3,9,71,7,-41,5,20
4,-2,-6,-1,6,-4,9,70,7,-41,5,20
4,-2,-6,-1,5,-4,8,70,8,-41,5,20
5,0,-5,-2,5,-2,8,70,8,-41,6,19
6,2,-3,-3,5,0,8,70,8,-40,6,18
6,2,-3,-4,5,0,8,69,9,-40,6,17
5,2,-3,-3,5,0,6,67,9,-41,5,14
4,0,-4,-2,5,-1,5,64,74,-42,4,11
3,-1,-4,0,4,-2,3,62,-56,-45,3,8
3,-1,-5,-1,5,-3,3,60,-541,-48,2,6
5,0,-5,-2,6,-3,4,59,-646,-49,2,5
6,1,-5,-3,6,-2,4,59,-512,-48,2,4
8,2,-6,-4,7,-2,3,59,-139,-47,3,2
10,3,-7,-5,9,-3,2,59,528,-48,2,0
11,2,-9,-5,10,-3,1,58,947,-50,1,-4
11,2,-9,-5,10,-3,0,58,556,-50,0,-8
10,3,-8,-6,9,-3,-1,58,12,-50,1,-11
10,3,-7,-6,9,-2,-2,58,-270,-50,1,-13
11,3,-7,-6,9,-2,-2,58,-89,-50,2,-15
12,3,-8,-7,10,-3,-2,58,636,-50,2,-17
12,2,-9,-6,10,-4,-3,57,1086,-51,2,-19
10,0,-10,-5,10,-5,-3,56,743,-52,2,-22
10,0,-10,-4,10,-6,-4,55,111,-52,2,-25
10,-1,-11,-4,11,-7,-4,54,300,-52,2,-28
11,-1,-12,-4,12,-7,-5,53,279,-53,1,-32
11,-1,-12,-4,12,-7,-5,52,256,-53,1,-34
10,-1,-10,-4,11,-6,-4,51,335,-53,2,-36
11,0,-10,-5,11,-5,-4,51,-266,-53,2,-38
12,0,-11,-6,12,-5,-5,50,-355,-54,1,-39
13,1,-11,-6,12,-5,-4,50,-69,-54,2,-41
13,1,-12,-7,13,-5,-2,51,-333,-53,3,-42
13,1,-12,-7,13,-5,0,51,-35,-53,3,-44
13,0,-13,-6,13,-6,0,49,644,-53,3,-48
12,-1,-13,-5,13,-7,0,48,758,-53,2,-51
10,-3,-13,-3,12,-8,0,46,570,-54,1,-54
7,-5,-12,-1,10,-9,0,44,236,-57,0,-56
5,-7,-11,1,9,-9,0,42,-157,-59,-2,-59
4,-8,-11,2,8,-9,0,40,-561,-61,-3,-61
4,-8,-11,2,8,-9,0,39,-950,-60,-2,-63
4,-7,-11,2,8,-9,0,38,-1312,-60,-2,-65
4,-8,-11,2,8,-10,0,36,-805,-60,-2,-67
2,-10,-11,4,7,-11,0,35,231,-59,-2,-70
0,-11,-10,5,5,-11,1,34,759,-59,-2,-71
1,-11,-11,5,6,-11,2,33,996,-60,-2,-72
2,-10,-12,4,7,-11,3,32,1070,-61,-2,-73
3,-9,-12,3,8,-10,4,32,1055,-61,-2,-74
4,-9,-13,3,9,-10,5,31,995,-60,-2,-75
4,-9,-13,2,9,-10,5,30,915,-58,-2,-76
4,-8,-13,2,9,-10,6,30,829,-57,-2,-77
5,-8,-13,2,10,-11,6,29,743,-56,-2,-78
5,-9,-14,2,10,-12,6,28,662,-56,-3,-79
3,-11,-14,3,10,-13,6,27,587,-55,-4,-80
2,-13,-14,5,9,-14,6,26,520,-55,-5,-80
1,-14,-15,6,8,-14,6,25,472,-55,-6,-80
0,-16,-15,8,7,-15,5,23,381,-52,-7,-81
-1,-17,-15,9,7,-15,5,22,66,-47,-8,-82
-1,-15,-15,8,7,-15,5,22,-535,-41,-7,-83
0,-13,-14,6,7,-14,5,22,-456,-36,-7,-83
2,-11,-14,4,8,-13,5,22,193,-32,-8,-84
3,-10,-14,3,8,-13,5,20,602,-28,-8,-85
2,-10,-13,4,7,-12,5,19,997,-23,-8,-85
0,-11,-12,5,6,-12,5,18,1368,-17,-9,-85
0,-13,-12,7,6,-13,5,17,865,-11,-9,-85
-1,-14,-12,8,6,-13,5,16,-168,-3,-8,-85
-1,-15,-12,8,6,-13,4,16,-695,4,-7,-84
-2,-16,-13,9,6,-14,3,16,-931,9,-7,-84
-2,-16,-13,9,6,-15,3,15,-1005,11,-8,-85
-2,-16,-14,9,6,-16,4,14,-1026,13,-8,-85
-1,-16,-14,9,6,-16,5,14,-895,16,-7,-84
-1,-16,-15,9,7,-16,6,13,-546,20,-7,-84
-1,-18,-17,9,8,-18,5,10,-204,23,-8,-85
-2,-19,-17,10,8,-18,4,7,348,25,-9,-86
-2,-19,-16,11,7,-17,5,3,856,27,-10,-86
-2,-19,-16,11,7,-17,5,-1,789,29,-11,-87
-3,-20,-16,11,6,-17,4,-6,909,33,-11,-88
-3,-20,-16,12,6,-18,4,-9,892,38,-10,-88
-3,-20,-16,11,7,-18,3,-12,735,40,-9,-88
-3,-19,-16,11,7,-18,3,-15,410,42,-10,-87
-3,-19,-15,11,6,-17,4,-16,-90,46,-10,-86
-4,-18,-14,11,5,-16,5,-17,74,51,-10,-85
-4,-18,-13,11,5,-16,6,-18,576,55,-10,-84
-4,-18,-14,11,5,-16,6,-19,392,59,-10,-84
-3,-18,-15,11,6,-16,7,-20,-243,62,-11,-83
-3,-17,-15,10,6,-16,7,-21,-349,65,-10,-83
-3,-17,-14,10,6,-15,7,-22,-176,66,-10,-83
-2,-16,-14,10,6,-15,7,-23,134,67,-10,-82
-2,-16,-14,9,6,-15,7,-25,500,69,-10,-81
-2,-17,-15,9,7,-16,6,-26,876,71,-10,-80
-2,-17,-14,9,7,-16,5,-27,1238,74,-10,-80
-3,-18,-14,10,6,-16,4,-29,740,76,-10,-81
-4,-18,-13,11,5,-16,4,-30,-284,77,-11,-81
-5,-18,-13,11,4,-15,4,-31,-800,78,-11,-81
-3,-16,-13,10,5,-14,4,-31,-1023,80,-10,-81
-2,-15,-13,9,5,-14,4,-31,-1085,84,-9,-81
-3,-15,-12,9,4,-13,4,-31,-1109,86,-9,-81
-3,-15,-11,9,4,-13,5,-31,-1174,86,-9,-81
-3,-15,-11,9,4,-13,6,-31,-1264,85,-10,-81
-3,-16,-12,9,4,-14,6,-31,-1349,86,-10,-81
-3,-16,-12,9,4,-14,6,-31,-1437,88,-10,-80
-4,-17,-12,10,4,-14,6,-31,-1543,90,-10,-80
-5,-17,-12,11,3,-14,6,-30,-1677,93,-9,-80
-6,-18,-12,11,3,-14,6,-30,-981,95,-9,-80
-5,-18,-13,11,3,-15,6,-30,251,96,-9,-80
-5,-19,-13,12,3,-16,5,-31,991,96,-9,-81
-6,-20,-13,13,3,-16,4,-31,1428,97,-10,-81
-7,-20,-13,13,3,-16,3,-32,1677,98,-10,-82
-7,-20,-14,13,4,-17,3,-32,1816,97,-11,-82
-7,-21,-14,14,4,-17,4,-33,1905,97,-11,-83
-7,-21,-14,14,3,-17,4,-33,1184,99,-10,-83
-7,-21,-14,14,3,-17,4,-33,17,100,-10,-83
-8,-23,-15,15,3,-18,4,-34,-585,100,-11,-83
-9,-25,-15,17,3,-19,3,-35,-865,100,-11,-83
-10,-26,-15,18,3,-20,3,-35,-964,100,-11,-83
-9,-25,-15,17,3,-20,4,-35,-963,101,-10,-83
-9,-24,-14,16,3,-19,4,-34,-910,102,-9,-82
-8,-22,-14,15,3,-18,5,-34,-833,103,-8,-82
-6,-21,-14,13,3,-17,5,-34,-747,104,-9,-82
-5,-19,-14,12,4,-16,5,-34,-661,103,-10,-82
-4,-18,-14,11,4,-16,5,-35,-580,103,-10,-82
-4,-17,-12,11,3,-15,5,-35,-506,103,-10,-82
-4,-16,-11,10,3,-14,5,-35,-439,102,-9,-81
-4,-16,-11,10,3,-13,5,-35,-378,102,-9,-82
-4,-16,-12,10,4,-13,5,-35,-324,102,-9,-82
-5,-17,-12,11,3,-14,4,-35,-275,101,-9,-83
-6,-18,-12,12,3,-15,4,-36,-232,101,-10,-83
-7,-19,-12,13,3,-16,4,-36,-194,100,-10,-83
-8,-21,-13,14,2,-17,4,-37,-162,98,-11,-84
-9,-22,-13,15,2,-18,3,-37,-149,98,-11,-84
-8,-21,-13,14,2,-18,4,-36,-94,98,-10,-84
-7,-20,-13,13,3,-17,4,-36,38,99,-9,-84
-6,-18,-12,12,3,-15,4,-36,-43,100,-9,-85
-5,-16,-10,11,2,-13,4,-36,-370,99,-9,-85
-5,-14,-9,10,2,-12,5,-36,-358,99,-9,-84
-5,-14,-9,10,2,-12,5,-36,184,98,-9,-84
-4,-15,-10,10,3,-12,4,-36,80,98,-9,-84
-4,-16,-12,10,4,-14,4,-35,-513,97,-9,-84
-4,-19,-14,11,4,-16,5,-33,-583,96,-10,-84
-5,-22,-16,13,5,-19,5,-31,-377,96,-11,-85
-5,-24,-18,14,6,-21,6,-29,-38,97,-12,-85
-4,-24,-20,14,8,-22,6,-27,352,98,-13,-85
-3,-24,-21,14,8,-22,7,-24,750,100,-12,-82
-2,-24,-22,14,10,-23,7,-20,1132,104,-10,-77
0,-25,-24,13,12,-24,7,-14,651,108,-7,-70
1,-25,-26,11,14,-25,7,-7,-369,115,-1,-61
5,-23,-27,9,16,-25,6,0,-903,122,7,-50
8,-21,-28,6,18,-24,6,6,-1165,131,18,-36
10,-19,-29,4,19,-24,5,13,-1272,142,30,-21
13,-17,-30,2,21,-23,3,19,-1296,153,45,-5
18,-11,-29,-3,23,-20,0,23,-1279,166,63,12
27,-1,-28,-12,27,-15,-3,24,-1243,179,83,33
34,8,-26,-21,29,-9,-7,22,-1200,193,103,54
39,18,-21,-28,29,-1,-11,17,-1160,205,123,74
43,29,-14,-36,28,7,-14,9,-1130,216,142,93
44,37,-6,-40,25,16,-16,1,-1106,224,157,108
41,43,2,-42,20,23,-17,-7,-1085,227,165,118
37,47,10,-42,14,29,-16,-17,-1067,221,160,121
30,49,20,-40,5,34,-15,-31,-1052,205,143,116
21,50,29,-35,-4,39,-13,-48,-1042,182,116,105
9,48,39,-28,-15,44,-11,-67,-1033,153,84,89
-4,47,51,-21,-28,49,-9,-88,-1027,124,52,71
-17,47,63,-15,-40,56,-6,-106,-1021,101,24,55
-26,48,74,-11,-50,62,-3,-117,-1010,85,4,43
-32,50,83,-9,-57,67,0,-123,-990,76,-8,34
-36,51,89,-7,-62,71,0,-127,-963,71,-15,28
-40,53,95,-6,-67,74,0,-129,-933,67,-20,23
-41,55,97,-7,-69,76,0,-128,-905,65,-22,21
-40,55,95,-7,-68,75,0,-125,-879,64,-24,19
-39,53,91,-7,-65,72,0,-121,-853,64,-25,17
-38,50,86,-6,-62,68,-1,-115,-830,64,-26,17
-37,46,82,-4,-60,64,-1,-110,-812,64,-27,16
-37,42,78,-3,-57,60,-3,-106,-800,64,-28,16
-36,37,74,-1,-54,56,-5,-103,-796,64,-29,14
-35,32,69,1,-52,51,-7,-99,-799,64,-29,12
-34,29,64,3,-49,46,-9,-95,-806,64,-30,11
-32,27,59,3,-46,43,-10,-90,-815,65,-30,10
-31,25,55,3,-44,40,-10,-84,-828,66,-30,9
-30,23,52,3,-41,37,-10,-79,-848,67,-30,9
-29,20,48,3,-39,34,-10,-74,-871,68,-29,9
-27,17,44,4,-35,31,-9,-69,-892,69,-27,9
-25,13,39,5,-32,26,-9,-65,-899,70,-26,9
-24,8,34,7,-29,22,-9,-62,-871,70,-25,9
-23,4,29,9,-26,17,-9,-59,-807,71,-25,8
-21,2,24,9,-23,13,-8,-55,-729,72,-24,8
-20,0,20,10,-20,10,-7,-51,-647,73,-23,8
-20,-2,17,11,-19,7,-6,-47,-568,74,-23,8
-20,-5,14,12,-17,4,-6,-43,-496,73,-23,7
-19,-7,11,13,-15,2,-5,-40,-429,73,-22,6
-17,-8,9,12,-13,0,-4,-37,-374,73,-21,6
-15,-9,6,12,-10,-1,-3,-34,-313,73,-20,6
-13,-9,5,11,-9,-2,-2,-31,-231,74,-18,6
-12,-10,4,11,-8,-2,-1,-28,-463,74,-17,6
-12,-10,3,12,-8,-3,0,-26,-369,73,-17,5
-13,-11,2,12,-8,-4,0,-24,244,72,-17,4
-14,-12,1,12,-7,-5,0,-22,659,72,-17,3
-14,-12,1,13,-7,-5,0,-20,929,71,-16,2
-14,-12,1,12,-7,-5,0,-18,1087,69,-16,2
-13,-12,2,12,-7,-5,0,-17,1202,66,-15,1
-12,-11,2,11,-7,-4,0,-16,1318,63,-15,0
-11,-10,2,11,-7,-4,0,-15,1430,59,-15,-1
-11,-9,2,10,-7,-4,0,-14,1540,55,-16,-2
-12,-9,2,10,-7,-4,0,-12,1654,51,-16,-3
-13,-8,3,10,-8,-3,0,-10,1773,47,-17,-5
-13,-8,5,10,-9,-2,0,-8,1064,44,-17,-6
-14,-8,5,10,-9,-1,0,-7,-131,40,-17,-7
-14,-8,5,11,-9,-1,0,-6,-771,35,-17,-8
-13,-9,5,11,-9,-2,0,-5,-1082,30,-16,-10
-13,-8,5,10,-9,-2,0,-3,-1204,27,-15,-10
-12,-6,5,9,-9,-1,0,-1,-1220,23,-15,-11
-12,-5,6,8,-9,0,1,2,-1174,18,-14,-11
-13,-4,7,8,-10,1,2,6,-1094,13,-14,-11
-13,-3,8,8,-10,2,2,8,-998,9,-13,-11
-12,-3,7,7,-10,2,2,10,-901,4,-13,-11
-12,-4,7,7,-10,1,2,11,-809,-1,-12,-12
-14,-5,9,9,-11,1,2,12,-723,-6,-12,-12
-16,-7,10,11,-13,1,2,13,-639,-11,-13,-13
-16,-7,9,11,-12,1,1,15,-558,-15,-14,-15
-15,-8,9,11,-12,0,1,16,-482,-19,-14,-18
-16,-8,9,12,-13,0,1,17,-412,-22,-15,-20
-17,-7,10,12,-14,1,1,18,-347,-24,-15,-21
-18,-7,11,12,-14,2,1,19,-280,-25,-15,-22
-18,-5,12,11,-15,3,2,20,-201,-26,-14,-23
-16,-3,13,10,-14,5,3,20,-108,-27,-14,-23
-15,-2,13,8,-14,6,4,20,-12,-28,-14,-25
-15,-1,14,8,-14,6,4,20,75,-30,-14,-27
-16,0,15,8,-15,7,4,21,153,-32,-14,-29
-15,1,15,6,-15,8,4,21,222,-34,-14,-31
-14,3,16,5,-15,9,3,22,280,-34,-14,-32
-14,3,17,5,-16,10,3,22,329,-35,-13,-33
-14,4,18,5,-16,11,3,22,361,-35,-13,-34
-15,4,19,5,-17,11,3,22,378,-35,-12,-35
-15,4,19,5,-17,11,3,22,413,-36,-11,-37
-16,3,19,6,-17,11,3,21,479,-38,-10,-39
-17,2,20,7,-19,11,3,20,566,-39,-10,-41
-17,2,20,7,-19,11,3,20,685,-39,-9,-44
-16,3,19,6,-18,11,4,20,825,-40,-9,-46
-16,3,20,6,-18,11,4,19,869,-41,-9,-48
-17,3,21,7,-19,12,5,19,682,-42,-10,-50
-17,4,22,6,-20,13,5,18,304,-43,-10,-52
-17,5,23,6,-20,13,4,18,-91,-43,-10,-54
-17,5,23,5,-20,14,4,18,-350,-44,-10,-56
-16,7,23,4,-19,15,4,18,-387,-44,-8,-58
-14,9,23,2,-19,16,4,18,-206,-44,-7,-59
-13,11,24,1,-18,17,5,18,135,-43,-5,-60
-14,10,24,1,-19,17,5,18,596,-43,-5,-61
-15,9,24,2,-19,17,5,18,297,-43,-5,-63
-15,9,24,2,-19,17,5,18,-605,-44,-5,-65
-15,9,25,2,-20,17,5,19,-378,-43,-5,-67
-16,9,25,3,-20,17,5,18,-251,-43,-5,-69
-17,9,25,3,-21,17,4,18,-316,-44,-5,-72
-16,9,25,3,-21,17,4,18,114,-45,-5,-74
-16,10,26,2,-21,18,4,18,-65,-45,-4,-75
-15,11,26,2,-21,18,4,18,127,-44,-4,-77
-15,12,27,1,-21,19,3,18,633,-43,-3,-78
-14,12,27,1,-20,19,3,18,559,-44,-3,-80
-14,12,26,1,-20,19,3,18,365,-44,-3,-81
-14,12,26,1,-21,19,3,19,297,-43,-2,-82
-13,13,27,0,-20,20,3,20,248,-42,0,-83
-11,15,27,-2,-19,21,4,21,208,-42,1,-84
-11,15,27,-2,-19,21,3,21,175,-44,1,-85
-12,15,27,-2,-20,21,2,21,146,-45,1,-87
-12,15,27,-1,-20,21,2,22,118,-46,1,-88
-13,15,28,-1,-20,22,3,23,92,-46,1,-89
-13,15,28,-1,-20,22,3,23,68,-46,1,-90
-12,16,28,-2,-20,22,3,24,44,-46,1,-91
-11,16,27,-2,-19,21,4,24,21,-46,1,-92
-11,15,26,-2,-19,20,4,25,-1,-45,2,-93
-10,15,26,-2,-18,20,4,25,-25,-44,3,-93
-10,15,25,-2,-18,20,4,26,-49,-45,4,-94
-9,15,24,-3,-17,19,4,26,-71,-45,4,-94
-8,15,24,-4,-16,20,4,27,-102,-44,5,-94
-7,16,24,-5,-15,20,4,27,-129,-45,6,-94
-6,16,23,-5,-15,20,4,27,20,-46,5,-95
-7,16,23,-4,-15,19,3,27,557,-47,5,-97
-7,15,23,-4,-15,19,3,27,590,-48,5,-97
-7,15,23,-4,-15,19,2,27,148,-48,5,-98
-6,16,22,-4,-14,19,2,27,-12,-49,4,-98
-4,17,21,-6,-12,19,2,28,-128,-49,4,-99
-3,17,20,-6,-12,18,2,28,-211,-50,3,-99
-3,16,20,-5,-12,18,2,28,-269,-50,3,-99
-3,15,19,-5,-12,17,2,28,-314,-51,3,-99
-3,15,19,-6,-11,17,2,29,-350,-52,3,-99
-3,15,18,-6,-11,17,3,29,-382,-52,3,-98
-3,15,18,-6,-11,16,3,29,-412,-52,4,-97
-3,14,18,-6,-11,16,3,29,-441,-53,4,-96
-3,14,17,-5,-10,15,3,28,-468,-55,3,-96
-3,14,17,-5,-10,15,2,28,-496,-55,3,-95
-3,14,17,-5,-10,16,2,28,-522,-56,3,-93
-3,13,17,-5,-10,15,1,28,-548,-57,2,-92
-4,12,17,-4,-10,14,1,28,-573,-58,2,-90
-4,11,16,-3,-10,14,0,28,-598,-59,1,-89
-4,10,15,-3,-10,13,0,28,-623,-60,0,-88
-4,10,14,-3,-10,12,0,28,-649,-61,0,-86
-1,11,13,-5,-8,12,0,28,-675,-62,0,-84
1,13,12,-7,-6,12,1,28,-702,-63,0,-80
2,13,11,-7,-5,12,1,28,-728,-64,-1,-77
2,12,10,-6,-4,11,0,27,-753,-65,-1,-73
2,11,9,-6,-3,10,0,27,-778,-65,-2,-70
0,9,9,-4,-4,9,0,27,-803,-66,-2,-67
-2,8,9,-2,-6,8,0,27,-828,-66,-2,-64
-3,6,9,-1,-6,7,0,27,-854,-67,-3,-61
-2,6,8,-1,-6,7,0,27,-880,-69,-4,-58
0,7,7,-3,-4,7,1,27,-906,-69,-4,-55
2,8,6,-5,-3,7,1,27,-933,-69,-4,-51
3,8,6,-5,-2,7,1,27,-958,-70,-4,-48
3,8,6,-5,-1,7,2,27,-983,-71,-4,-45
3,8,5,-6,-1,7,2,27,-1009,-72,-4,-42
4,8,3,-6,0,6,2,27,-1033,-72,-4,-39
4,6,1,-5,1,4,2,26,-824,-72,-4,-38
3,4,0,-3,1,2,1,25,-472,-73,-5,-36
2,2,-1,-2,1,0,1,24,-263,-74,-6,-34
1,0,-2,0,1,-1,1,23,-140,-75,-7,-33
1,-2,-3,0,2,-2,1,22,-66,-76,-8,-31
1,-3,-3,0,2,-3,1,21,-22,-76,-8,-30
2,-3,-4,0,3,-3,1,19,3,-76,-8,-29
3,-2,-5,-1,4,-3,2,18,19,-76,-8,-29
2,-2,-4,0,3,-3,2,16,28,-76,-8,-30
1,-4,-5,1,3,-4,1,13,32,-77,-9,-30
1,-5,-6,2,3,-5,1,9,35,-78,-10,-31
2,-5,-7,2,4,-6,1,7,36,-78,-11,-31
3,-4,-7,1,5,-6,1,4,36,-77,-11,-31
2,-5,-8,2,5,-7,1,2,37,-76,-11,-31
1,-7,-8,3,5,-7,1,1,37,-74,-10,-32
2,-5,-8,2,5,-6,2,0,37,-71,-9,-32
5,-3,-8,0,7,-5,3,-1,36,-69,-8,-32
6,-2,-9,-1,7,-5,3,-3,36,-68,-8,-34
5,-3,-9,-1,7,-6,3,-5,36,-67,-8,-36
4,-4,-9,0,7,-6,4,-8,35,-64,-8,-38
3,-5,-8,1,6,-6,4,-10,34,-60,-9,-41
2,-6,-8,2,6,-7,3,-12,34,-55,-10,-45
1,-8,-9,4,5,-8,3,-14,33,-48,-11,-48
0,-9,-9,5,5,-9,2,-15,33,-41,-11,-52
0,-9,-9,5,5,-9,2,-16,32,-32,-11,-55
0,-8,-9,4,5,-8,3,-17,32,-21,-11,-57
1,-7,-8,3,5,-7,3,-18,31,-10,-11,-60
1,-6,-8,2,5,-7,3,-20,31,-2,-11,-63
2,-5,-8,2,5,-7,3,-21,30,4,-10,-66
3,-5,-8,1,5,-6,3,-22,30,9,-10,-69
3,-4,-8,1,5,-6,3,-23,29,13,-10,-73
3,-4,-8,1,5,-6,3,-24,29,16,-10,-76
2,-5,-8,2,5,-7,3,-25,28,20,-11,-78
1,-7,-9,3,5,-8,3,-26,28,24,-11,-81
1,-8,-10,3,5,-9,3,-28,27,29,-11,-83
1,-8,-10,4,6,-9,3,-29,27,36,-10,-85
0,-9,-10,4,6,-10,3,-30,26,42,-10,-87
0,-10,-10,5,5,-10,3,-32,26,47,-10,-90
0,-9,-10,4,6,-9,3,-33,25,50,-10,-92
1,-9,-10,4,6,-9,3,-34,25,53,-9,-94
0,-9,-10,4,6,-9,3,-36,24,54,-9,-96
-1,-10,-9,5,4,-9,3,-38,24,56,-9,-99
-1,-10,-8,5,4,-9,2,-41,23,57,-10,-101
0,-10,-9,5,5,-10,2,-43,23,57,-11,-103
0,-10,-9,5,5,-10,1,-45,22,59,-11,-105
-1,-11,-9,6,4,-10,0,-46,22,61,-10,-106
-2,-11,-8,6,4,-10,0,-48,21,64,-10,-107
-2,-11,-8,6,4,-10,0,-49,21,65,-9,-109
-2,-11,-8,7,3,-9,0,-51,20,66,-9,-110
-2,-9,-7,6,3,-8,1,-52,20,67,-8,-111
-1,-7,-6,4,3,-6,1,-53,20,69,-7,-111
0,-6,-6,3,3,-6,1,-55,19,70,-6,-112
-1,-7,-6,4,3,-6,1,-57,19,71,-6,-113
-1,-7,-6,4,3,-6,1,-59,18,71,-7,-114
-1,-8,-6,4,4,-7,1,-61,18,70,-7,-115
0,-7,-7,4,4,-7,1,-62,17,70,-7,-116
0,-7,-8,4,5,-7,0,-63,17,69,-7,-117
0,-8,-8,4,5,-8,0,-65,16,68,-8,-119
-1,-9,-8,5,4,-9,0,-66,16,68,-8,-120
-1,-9,-8,5,4,-9,0,-66,15,68,-7,-120
-1,-9,-8,5,4,-9,0,-67,15,69,-7,-119
-1,-9,-8,5,4,-9,-1,-67,14,69,-6,-119
-1,-9,-8,5,4,-9,-1,-68,14,69,-6,-117
0,-9,-8,5,4,-8,-1,-68,13,69,-5,-114
0,-8,-8,4,5,-8,-1,-68,13,69,-5,-111
1,-7,-9,3,5,-8,-2,-68,12,69,-4,-107
1,-6,-9,2,6,-7,-2,-68,12,69,-4,-103
2,-5,-8,1,6,-7,-2,-67,11,69,-3,-99
1,-5,-8,2,5,-7,-2,-68,11,68,-3,-96
1,-5,-7,2,5,-7,-2,-68,10,67,-3,-92
3,-3,-7,0,6,-6,-2,-68,10,68,-3,-87
5,-1,-7,-1,7,-4,-1,-67,9,69,-2,-81
6,-1,-7,-2,7,-4,-1,-66,9,69,-1,-76
5,-2,-7,-1,7,-5,-1,-66,8,69,-1,-71
4,-2,-7,-1,6,-5,-1,-65,8,69,0,-66
5,-2,-6,-1,6,-4,0,-63,7,70,1,-60
5,-1,-6,-2,6,-4,0,-62,7,70,1,-54
5,-1,-7,-2,6,-4,0,-62,6,70,1,-49
4,-2,-6,-1,5,-4,0,-61,6,70,1,-42
2,-3,-5,0,4,-4,0,-60,6,71,2,-34
3,-1,-5,-1,4,-3,0,-59,5,70,2,-24
4,0,-4,-3,5,-2,1,-57,5,70,3,-13
5,1,-4,-3,5,-2,1,-56,4,69,3,-3
6,2,-5,-4,6,-2,1,-55,4,69,3,6
7,3,-5,-5,7,-2,2,-54,3,69,3,15
9,4,-5,-6,7,-1,2,-52,3,69,4,23
9,5,-5,-7,7,0,2,-51,2,69,5,30
9,5,-4,-6,7,0,2,-51,2,69,5,37
8,4,-4,-5,6,0,0,-51,1,69,5,45
7,2,-5,-4,6,-1,-1,-52,1,68,4,53
5,0,-5,-2,6,-2,-3,-53,1,67,3,62
3,-1,-5,0,4,-3,-5,-53,0,66,3,69
2,-2,-4,0,3,-3,-6,-53,0,65,2,77
3,0,-4,-1,4,-2,-6,-53,0,64,2,85
6,2,-4,-4,5,-1,-6,-52,-1,64,2,92
8,3,-5,-5,7,-1,-6,-51,-1,63,2,98
9,3,-6,-6,8,-1,-7,-51,-2,63,3,104
11,3,-7,-7,10,-2,-7,-50,-2,64,3,111
12,3,-8,-8,11,-2,-8,-49,-3,64,4,118
11,3,-7,-7,10,-2,-8,-47,-3,65,6,126
10,3,-7,-7,10,-2,-8,-46,-4,66,7,132
11,3,-8,-7,10,-2,-8,-46,-4,66,7,136
11,3,-9,-7,11,-3,-9,-45,-5,65,6,137
11,2,-9,-6,10,-4,-10,-45,-5,64,5,138
11,1,-10,-6,10,-4,-11,-45,-6,63,5,139
11,0,-10,-5,11,-5,-12,-45,-6,63,4,139
10,0,-11,-4,11,-6,-13,-45,-7,63,4,140
9,0,-10,-4,11,-6,-13,-44,-7,63,4,140
10,0,-10,-4,11,-6,-13,-43,-8,64,5,139
11,0,-11,-5,12,-5,-13,-42,-8,64,5,139
12,1,-11,-6,12,-5,-13,-42,-9,63,5,138
12,1,-11,-6,13,-5,-13,-41,-9,63,4,136
12,0,-12,-6,13,-5,-13,-41,-9,63,4,134
12,0,-11,-6,12,-5,-13,-40,-10,63,4,133
11,0,-11,-6,11,-5,-12,-39,-10,63,3,131
11,0,-11,-5,11,-5,-12,-39,-11,63,3,128
10,-1,-11,-4,11,-6,-11,-38,-11,63,3,126
10,-2,-11,-3,11,-6,-10,-37,-12,64,4,124
8,-3,-11,-2,10,-7,-10,-37,-12,64,4,121
6,-4,-11,0,9,-8,-10,-36,-13,64,4,118
4,-5,-10,1,8,-8,-9,-36,-13,63,4,114
3,-5,-9,1,7,-7,-9,-35,-14,63,4,109
4,-5,-9,1,7,-7,-9,-35,-14,62,3,104
5,-5,-10,0,9,-8,-9,-35,-15,61,2,99
6,-5,-11,0,9,-8,-9,-35,-15,60,1,94
5,-6,-10,0,9,-8,-9,-34,-16,60,0,89
4,-7,-10,1,8,-9,-9,-34,-16,59,0,84
3,-8,-11,3,8,-9,-9,-33,-17,59,0,80
1,-9,-11,4,7,-10,-9,-33,-17,59,-1,75
0,-10,-11,5,6,-10,-9,-32,-18,59,-1,70
0,-11,-12,6,6,-11,-10,-32,-18,58,-1,65
1,-11,-13,5,7,-12,-10,-31,-18,57,-1,59
3,-11,-13,4,8,-12,-9,-31,-19,57,-1,54
3,-10,-12,4,8,-11,-8,-30,-19,57,-1,50
3,-9,-12,3,8,-11,-7,-29,-20,57,-1,45
3,-9,-12,3,9,-11,-7,-28,-20,57,-1,41
4,-8,-12,2,9,-11,-7,-27,-21,56,-1,37
4,-8,-13,2,9,-11,-7,-26,-21,56,-2,32
4,-9,-13,3,9,-11,-7,-26,-22,55,-2,27
2,-11,-14,4,9,-12,-7,-26,-22,54,-3,22
1,-13,-14,6,9,-13,-8,-26,-23,53,-4,18
1,-14,-15,6,9,-14,-9,-25,-23,52,-4,14
1,-14,-15,7,8,-14,-9,-25,-24,51,-5,11
0,-15,-15,7,8,-15,-9,-25,-24,51,-5,7
1,-14,-15,6,8,-14,-9,-24,-25,52,-5,4
1,-13,-15,5,8,-14,-9,-24,-25,52,-5,1
1,-12,-14,5,7,-13,-9,-24,-26,52,-5,-2
0,-12,-13,6,7,-13,-9,-23,-26,52,-4,-5
0,-13,-13,6,7,-13,-8,-22,-27,52,-4,-8
0,-13,-12,6,7,-13,-8,-22,-27,52,-5,-11
0,-13,-12,7,7,-13,-7,-22,-28,51,-5,-13
0,-13,-13,7,7,-13,-7,-22,-28,51,-6,-15
0,-13,-13,7,7,-13,-7,-22,-29,50,-6,-17
0,-14,-14,8,7,-14,-7,-22,-29,50,-6,-19
0,-13,-14,7,7,-13,-7,-21,-30,50,-6,-21
2,-12,-14,5,8,-13,-7,-20,-30,50,-6,-21
1,-13,-14,6,9,-14,-8,-20,-31,50,-7,-22
1,-15,-14,7,8,-15,-9,-20,-31,50,-7,-23
1,-15,-14,7,8,-15,-9,-20,-32,50,-6,-23
0,-14,-14,7,8,-14,-10,-20,-32,50,-6,-22
0,-14,-12,7,6,-13,-10,-19,-33,51,-6,-21
-1,-13,-11,7,5,-12,-9,-19,-33,51,-6,-20
0,-12,-11,6,6,-12,-9,-19,-34,51,-6,-19
1,-11,-12,4,7,-12,-9,-19,-34,51,-6,-18
3,-10,-13,3,9,-12,-9,-19,-35,50,-6,-16
4,-9,-13,2,10,-11,-9,-18,-35,50,-6,-13
3,-9,-12,3,9,-11,-8,-17,-35,50,-6,-10
2,-10,-12,4,9,-11,-8,-17,-36,50,-6,-7
2,-12,-13,5,9,-12,-8,-17,-36,50,-6,-4
2,-13,-15,5,9,-14,-8,-17,-37,48,-7,-2
1,-13,-15,6,9,-14,-8,-17,-37,48,-8,0
1,-13,-15,6,8,-14,-8,-17,-38,48,-8,3
1,-13,-14,6,8,-14,-8,-17,-38,48,-8,6
1,-13,-14,6,8,-13,-8,-16,-39,49,-8,9
3,-11,-13,4,9,-12,-7,-15,-39,50,-7,12
3,-11,-13,4,9,-12,-8,-15,-40,50,-7,16
2,-12,-14,5,9,-13,-9,-15,-40,50,-7,19
1,-14,-15,6,8,-14,-9,-15,-41,49,-7,22
1,-14,-15,6,8,-14,-9,-15,-41,48,-7,26
2,-13,-15,6,8,-14,-8,-14,-42,48,-7,30
3,-13,-15,5,9,-14,-7,-13,13,48,-7,33
2,-13,-15,6,9,-14,-7,-12,-100,48,-7,36
1,-14,-14,6,8,-14,-6,-11,-517,49,-7,39
0,-13,-13,6,7,-13,-6,-10,-353,49,-7,43
0,-13,-13,6,7,-13,-6,-10,377,49,-7,45
0,-14,-13,6,7,-13,-6,-10,675,48,-7,47
-1,-14,-13,7,7,-14,-6,-10,535,48,-7,49
-2,-15,-13,8,6,-14,-6,-10,607,48,-7,51
-2,-16,-13,9,6,-15,-6,-10,354,48,-7,53
-2,-16,-14,9,6,-15,-6,-10,-7,49,-6,54
0,-16,-14,9,7,-15,-6,-10,-301,49,-6,55
0,-15,-14,8,8,-15,-7,-10,-441,49,-6,56
1,-15,-14,7,8,-15,-7,-10,-389,50,-6,56
1,-14,-14,7,8,-14,-7,-10,-137,51,-6,56
2,-14,-15,6,8,-14,-7,-10,310,52,-6,56
1,-14,-15,7,8,-14,-7,-10,107,52,-7,55
0,-14,-14,7,7,-14,-7,-10,-424,52,-7,55
0,-13,-14,7,8,-14,-7,-10,-263,51,-7,55
1,-12,-14,6,8,-13,-7,-10,353,52,-6,55
1,-11,-12,5,7,-12,-6,-9,444,53,-5,55
1,-11,-11,5,7,-11,-5,-8,256,54,-4,56
2,-10,-12,4,8,-11,-5,-8,-66,54,-4,56
3,-10,-12,3,8,-11,-5,-8,-442,54,-4,55
3,-10,-12,3,8,-10,-5,-8,-827,54,-4,55
3,-10,-13,3,8,-10,-5,-8,-1196,54,-4,54
2,-10,-13,4,8,-11,-6,-8,-704,54,-4,53
0,-12,-13,6,6,-12,-7,-8,315,54,-5,52
-1,-14,-12,8,5,-13,-7,-8,826,53,-5,51
-1,-14,-12,7,6,-13,-7,-8,1047,53,-4,51
1,-11,-12,5,7,-12,-6,-6,1105,54,-3,51
2,-10,-12,4,7,-11,-5,-4,1076,55,-2,51
2,-9,-11,4,7,-10,-5,-2,1003,56,-2,50
2,-9,-12,3,7,-10,-5,-1,911,56,-2,49
3,-8,-12,3,7,-10,-5,0,814,56,-2,49
3,-9,-12,3,8,-11,-5,1,719,56,-2,47
4,-9,-13,3,9,-11,-6,1,630,55,-2,45
3,-10,-14,4,9,-12,-6,1,549,55,-3,43
2,-12,-14,5,8,-13,-6,2,475,54,-4,41
1,-13,-15,6,8,-14,-6,4,410,53,-6,40
1,-14,-16,6,9,-15,-5,7,351,53,-6,38
0,-15,-16,7,9,-16,-3,10,300,53,-7,37
0,-16,-15,8,8,-16,-2,14,255,55,-7,36
-1,-16,-16,9,8,-16,-1,16,215,56,-7,34
1,-17,-19,8,10,-18,-1,19,181,56,-7,33
4,-18,-22,8,13,-21,-1,25,150,58,-6,32
7,-19,-25,7,16,-22,-1,32,123,63,-2,33
11,-17,-27,4,19,-22,-2,40,99,71,4,36
15,-14,-29,0,22,-22,-3,48,79,80,13,41
18,-11,-30,-3,24,-21,-3,57,53,89,24,47
22,-7,-30,-7,27,-19,-3,65,49,98,36,55
28,-2,-30,-13,29,-16,-4,72,83,110,51,66
33,4,-29,-19,31,-12,-6,75,-340,122,68,78
39,12,-28,-25,33,-8,-10,74,-616,134,86,90
44,19,-25,-31,35,-2,-15,70,-226,145,104,102
47,26,-21,-36,34,3,-19,64,235,155,122,113
48,33,-14,-40,31,9,-22,57,685,165,140,123
47,40,-7,-43,27,16,-24,51,1082,173,154,132
45,45,1,-45,22,23,-24,44,603,174,158,137
39,48,9,-44,16,28,-24,33,-410,165,151,135
32,50,17,-41,8,34,-23,19,-919,148,133,126
23,51,27,-37,-1,39,-20,2,-1237,125,108,111
12,51,38,-31,-13,45,-17,-19,-1279,98,77,92
0,51,50,-26,-25,51,-15,-40,-924,70,47,72
-10,53,63,-21,-36,58,-12,-56,-421,50,23,55
-18,56,75,-18,-46,65,-9,-65,98,37,7,42
-24,58,83,-17,-53,70,-7,-70,667,29,-2,34
-28,60,89,-16,-58,74,-6,-74,517,25,-8,29
-31,61,93,-15,-61,77,-6,-76,-282,22,-12,25
-33,60,93,-14,-62,76,-7,-76,-827,20,-15,22
-34,57,91,-12,-62,74,-7,-74,-1167,19,-17,19
-35,53,88,-9,-61,71,-8,-71,-1411,17,-19,16
-35,49,84,-7,-60,67,-9,-67,-1620,15,-22,13
-34,45,79,-6,-57,62,-11,-63,-1797,13,-24,12
-33,41,74,-4,-53,57,-13,-59,-1095,12,-25,11
-33,35,69,-2,-50,52,-14,-55,-682,12,-26,10
-32,31,64,0,-48,47,-16,-51,-1257,12,-27,10
-31,28,59,1,-45,44,-16,-45,-1590,12,-27,11
-28,26,54,1,-42,41,-16,-40,-1795,13,-27,11
-27,24,50,1,-39,37,-17,-35,-1098,14,-27,11
-25,22,46,2,-36,34,-17,-31,142,15,-26,11
-23,20,42,2,-33,31,-18,-28,877,16,-26,12
-23,17,40,2,-31,28,-18,-25,1304,17,-25,13
-23,14,37,4,-29,25,-17,-22,1542,18,-25,14
-20,12,33,4,-26,21,-17,-19,1669,18,-25,15
-17,10,28,4,-22,18,-16,-16,1727,19,-24,17
-15,8,23,4,-19,16,-14,-13,1747,21,-23,18
-13,6,19,4,-16,13,-13,-10,1749,22,-23,19
-13,3,15,6,-14,9,-12,-7,1741,24,-23,20
-14,0,12,8,-13,5,-11,-5,1729,25,-22,20
-14,-3,10,8,-12,3,-10,-4,1716,27,-21,22
-12,-4,8,8,-10,1,-9,-2,1700,28,-20,23
-11,-5,6,8,-8,0,-9,-1,1674,29,-19,24
-10,-6,4,8,-6,-1,-9,0,1636,30,-18,26
-8,-6,2,8,-5,-2,-8,0,1609,31,-17,27
-7,-6,1,7,-4,-3,-8,0,1619,31,-17,27
-7,-7,0,7,-4,-3,-7,0,1654,32,-16,27
-7,-7,0,7,-4,-4,-7,0,1677,32,-16,27
-7,-7,0,7,-4,-4,-6,0,1680,33,-15,27
-7,-7,0,7,-4,-4,-6,0,1677,34,-15,27
-8,-8,0,8,-4,-4,-6,-1,1676,34,-15,26
-8,-9,0,8,-3,-5,-6,-2,1678,34,-15,26
-6,-7,0,7,-3,-4,-5,-3,1687,34,-15,26
-6,-6,0,7,-3,-3,-5,-3,1701,34,-14,25
-6,-5,1,7,-4,-2,-5,-3,1715,34,-14,25
-7,-4,2,6,-5,-1,-5,-4,1738,34,-14,24
-7,-4,2,6,-5,0,-5,-4,1778,34,-14,24
-7,-4,3,6,-5,0,-5,-5,1818,35,-14,23
-8,-4,3,6,-5,0,-5,-6,1846,35,-14,23
-8,-4,4,7,-6,0,-5,-7,1866,35,-14,22
-8,-4,5,6,-6,0,-5,-8,1879,34,-14,22
-8,-4,5,6,-6,0,-5,-9,1892,34,-14,21
-8,-4,5,6,-6,0,-5,-10,1907,35,-14,21
-8,-3,5,6,-7,0,-5,-10,1925,36,-13,20
-8,-2,6,5,-7,1,-5,-10,1110,37,-12,20
-9,-3,6,6,-8,1,-5,-10,-201,36,-12,19
-11,-4,7,7,-9,1,-5,-11,-972,36,-12,18
-11,-3,7,6,-9,2,-4,-12,-1419,36,-12,17
-10,-1,8,5,-9,3,-3,-12,-1679,37,-11,17
-10,-1,8,5,-9,3,-3,-12,-1830,37,-10,16
-10,-1,8,6,-9,3,-3,-13,-1915,37,-10,15
-10,-1,8,6,-9,3,-3,-14,-1816,37,-11,14
-11,-1,9,7,-10,3,-3,-15,-1583,37,-11,13
-12,-2,9,8,-10,3,-4,-16,-1501,36,-11,12
-12,-2,10,7,-10,3,-5,-16,-878,36,-12,11
-10,0,10,5,-10,5,-5,-17,-109,36,-12,10
-8,3,11,3,-9,7,-4,-17,-242,36,-11,10
-6,5,11,0,-8,8,-4,-17,-204,37,-11,10
-6,6,12,0,-9,9,-4,-17,-174,38,-11,9
-8,5,13,2,-10,9,-4,-18,-256,38,-11,8
-12,3,15,5,-13,9,-3,-18,328,38,-11,7
-13,3,16,5,-14,10,-3,-18,396,39,-10,7
-13,4,17,5,-14,11,-3,-18,89,39,-10,7
-12,4,17,4,-14,11,-3,-18,336,39,-10,6
-12,5,17,3,-14,11,-3,-18,24,40,-10,6
-11,6,17,2,-13,11,-3,-18,-667,40,-10,6
-10,7,17,2,-13,12,-3,-19,-789,40,-10,6
-10,7,17,2,-14,12,-3,-19,-609,41,-10,5
-10,7,18,2,-14,13,-3,-19,-284,41,-9,5
-11,8,18,2,-14,13,-3,-20,103,42,-9,5
-10,9,19,1,-14,14,-2,-20,504,43,-8,5
-9,10,20,0,-14,15,-2,-20,890,43,-8,5
-8,11,20,0,-14,16,-2,-21,1250,43,-8,4
-8,12,20,-1,-14,16,-3,-23,741,43,-8,4
-8,12,21,0,-15,16,-4,-24,-297,43,-8,3
-10,11,21,0,-16,16,-4,-26,-826,43,-8,3
-11,11,22,0,-16,16,-4,-27,-1065,43,-8,4
-11,10,22,0,-16,16,-4,-27,-1143,43,-8,4
-12,10,22,1,-16,16,-4,-28,-1130,43,-8,3
-12,10,22,1,-17,16,-4,-29,-1071,43,-8,3
-12,11,23,1,-17,16,-4,-29,-989,43,-8,3
-12,11,24,1,-17,17,-4,-30,-897,44,-7,4
-12,11,24,1,-18,17,-4,-30,-807,45,-6,4
-11,13,24,0,-17,18,-4,-30,-720,46,-6,5
-9,15,24,-2,-16,19,-4,-30,-640,46,-6,6
-8,16,24,-3,-16,20,-3,-30,-568,46,-5,7
-8,16,25,-4,-16,20,-3,-30,-502,46,-5,8
-8,16,24,-4,-15,20,-3,-30,-441,47,-4,10
-8,16,23,-4,-15,20,-4,-30,-384,47,-4,11
-8,15,23,-3,-15,19,-4,-30,-332,47,-4,11
-8,14,23,-2,-15,19,-5,-30,-287,47,-4,12
-8,14,23,-2,-15,19,-5,-30,-251,48,-4,13
-9,15,25,-2,-17,20,-6,-29,-222,49,-3,15
-10,15,26,-2,-18,20,-6,-29,-202,50,-3,17
-9,16,26,-3,-17,21,-6,-28,-191,51,-2,20
-8,17,26,-4,-16,21,-6,-28,-187,52,-1,22
-7,18,26,-5,-16,21,-6,-27,-190,53,0,24
-6,19,26,-6,-16,22,-5,-25,-194,55,0,26
-6,19,26,-6,-15,23,-5,-25,-202,56,1,27
-6,19,25,-5,-15,22,-5,-25,-212,57,1,28
-5,19,25,-6,-15,22,-5,-25,-224,57,0,29
-5,20,25,-7,-15,22,-5,-24,-237,56,0,31
-4,20,24,-7,-14,22,-5,-23,-251,57,0,33
-4,20,24,-8,-13,21,-5,-22,-262,58,1,35
-3,20,23,-8,-13,21,-5,-22,-272,59,1,37
-3,20,23,-8,-12,21,-5,-21,-279,59,1,38
-3,19,22,-8,-12,21,-5,-21,-286,58,1,38
-3,17,21,-7,-12,20,-5,-21,-296,57,0,39
-4,16,20,-6,-11,19,-5,-21,-304,57,0,39
-3,16,19,-7,-10,18,-6,-21,-309,58,0,40
-1,16,17,-7,-9,17,-6,-21,-314,58,0,40
0,17,17,-8,-8,17,-6,-21,-315,59,0,41
0,16,16,-8,-8,16,-6,-21,-311,59,-1,41
-1,14,16,-6,-8,15,-7,-21,-303,58,-2,41
-2,13,16,-4,-9,15,-8,-21,-292,57,-2,41
-2,13,16,-4,-9,15,-8,-20,-280,58,-2,41
-2,14,16,-5,-8,15,-7,-19,-265,58,-2,40
-1,15,15,-6,-8,16,-7,-19,-248,59,-2,40
0,16,15,-8,-7,16,-7,-18,-229,59,-2,40
1,17,15,-9,-7,16,-6,-18,-207,60,-2,40
2,17,14,-9,-6,16,-6,-18,-186,60,-2,40
2,17,14,-9,-5,15,-6,-18,-164,59,-3,39
2,16,13,-9,-5,15,-6,-17,-143,59,-4,39
2,15,13,-9,-5,15,-6,-17,-131,59,-4,38
1,14,12,-8,-5,14,-6,-17,-127,59,-5,37
1,13,12,-8,-4,13,-6,-17,-118,59,-5,37
1,13,12,-8,-4,13,-6,-17,-98,60,-4,37
0,13,12,-7,-5,12,-6,-17,-67,60,-4,36
0,12,11,-6,-5,12,-6,-17,-26,60,-4,36
0,11,10,-5,-5,11,-6,-17,17,59,-5,35
0,10,9,-5,-4,10,-6,-17,67,58,-6,34
0,9,9,-4,-4,10,-6,-17,126,57,-7,33
0,9,8,-4,-3,9,-6,-17,176,57,-7,32
1,9,7,-5,-2,9,-6,-17,202,56,-8,31
2,8,6,-5,-2,8,-7,-17,204,56,-8,29
2,8,6,-5,-1,7,-7,-17,188,56,-9,28
3,8,5,-5,-1,7,-8,-17,167,57,-9,28
4,9,5,-6,0,7,-8,-17,143,57,-9,27
5,9,4,-7,0,7,-8,-17,105,57,-9,27
6,10,4,-8,1,7,-8,-16,43,56,-9,26
5,9,4,-7,1,7,-8,-15,-25,56,-9,26
4,8,4,-6,1,6,-8,-15,-49,55,-9,25
3,7,3,-5,1,5,-8,-14,-14,55,-9,25
4,5,1,-5,2,3,-8,-13,24,54,-10,25
6,4,-2,-5,4,1,-8,-12,29,54,-11,24
7,3,-5,-5,6,-1,-8,-12,13,53,-11,24
7,2,-7,-4,7,-2,-8,-11,-18,52,-11,23
6,1,-6,-3,6,-2,-7,-9,-50,52,-11,23
5,0,-6,-3,6,-2,-7,-8,-67,52,-11,22
5,-1,-6,-2,6,-3,-7,-7,-80,52,-12,21
5,-2,-7,-1,6,-4,-7,-7,-107,52,-12,20
4,-3,-7,0,6,-5,-7,-6,-140,52,-13,19
4,-3,-8,0,6,-6,-7,-6,-156,52,-13,18
5,-2,-8,-1,6,-5,-6,-4,-156,53,-13,18
6,-1,-8,-1,7,-5,-6,-2,-152,53,-12,18
5,-2,-9,-1,7,-6,-6,-1,-147,54,-12,18
5,-3,-9,0,7,-6,-6,0,-157,54,-12,18
6,-4,-9,-1,8,-6,-6,2,-191,55,-12,18
6,-4,-10,-1,8,-7,-6,3,-229,55,-11,19
7,-4,-10,-1,9,-7,-6,4,-251,56,-11,19
7,-4,-11,-1,9,-8,-5,5,-251,56,-10,19
7,-5,-12,0,9,-8,-4,7,-229,57,-10,19
6,-6,-13,1,9,-9,-4,8,-195,58,-10,18
4,-9,-13,3,8,-11,-4,8,-159,57,-10,17
3,-10,-14,4,8,-12,-5,8,-129,56,-11,16
4,-10,-14,4,9,-12,-5,9,-102,55,-12,15
3,-10,-13,4,9,-12,-5,9,-76,56,-12,15
2,-10,-12,4,8,-11,-5,11,-52,56,-12,15
3,-8,-12,2,8,-10,-4,13,-36,57,-12,15
5,-6,-11,0,8,-9,-3,15,-26,57,-11,15
6,-4,-11,0,8,-8,-3,16,-21,57,-11,15
6,-4,-11,0,8,-8,-3,18,-17,58,-11,15
7,-4,-11,-1,9,-8,-3,19,-8,58,-10,15
7,-4,-11,-1,10,-7,-3,20,1,58,-9,16
6,-5,-11,-1,9,-7,-3,21,9,59,-9,16
5,-5,-10,0,8,-7,-3,21,14,60,-9,16
4,-6,-11,0,8,-8,-4,21,13,60,-9,16
5,-6,-11,0,8,-8,-5,22,6,58,-10,15
5,-6,-11,0,8,-8,-5,23,-5,57,-11,15
3,-6,-10,1,7,-8,-5,25,-24,56,-12,15
2,-7,-9,3,5,-8,-5,26,-45,56,-12,15
2,-7,-9,3,5,-8,-6,26,-60,56,-12,15
2,-7,-9,2,6,-8,-6,27,-68,56,-12,15
3,-7,-9,2,6,-8,-5,29,-64,56,-11,15
3,-7,-10,1,7,-8,-5,30,-53,56,-11,16
4,-6,-10,0,7,-7,-5,32,-47,56,-10,16
3,-5,-9,0,6,-7,-5,33,-53,57,-10,17
3,-5,-9,1,5,-7,-5,33,-66,57,-9,16
4,-4,-9,0,6,-6,-5,34,-70,58,-9,16
5,-3,-9,0,7,-6,-5,34,-55,58,-9,16
6,-3,-9,-1,8,-6,-5,33,-31,57,-9,16
5,-4,-9,0,7,-6,-5,33,-7,57,-9,16
3,-5,-9,1,6,-7,-5,33,9,56,-9,16
1,-8,-9,3,5,-8,-5,33,14,55,-10,16
-1,-10,-9,5,4,-9,-6,32,14,54,-10,16
-1,-11,-10,6,4,-10,-6,33,7,54,-10,17
1,-10,-10,4,6,-10,-5,33,-6,54,-9,18
2,-9,-11,3,7,-10,-4,33,-14,55,-8,19
3,-8,-11,2,7,-9,-4,34,-15,55,-7,20
4,-7,-11,1,8,-9,-4,34,-15,56,-7,20
5,-7,-11,1,8,-9,-4,34,-17,56,-6,21
3,-8,-11,2,7,-9,-5,34,-23,55,-6,20
1,-9,-10,4,6,-9,-5,33,-33,54,-7,20
0,-9,-10,4,6,-9,-5,33,-41,53,-7,19
1,-8,-10,3,6,-9,-5,34,-53,52,-6,19
2,-8,-10,3,7,-9,-5,34,-65,52,-6,19
2,-8,-10,3,7,-9,-4,35,-75,52,-6,20
3,-6,-9,2,6,-8,-3,36,-91,53,-5,20
5,-4,-9,0,7,-7,-2,38,-102,54,-4,21
7,-2,-9,-2,8,-6,-2,40,-100,55,-3,21
8,-1,-8,-4,9,-5,-2,42,-100,56,-2,21
8,0,-8,-4,9,-4,-2,43,-113,56,-2,21
9,0,-9,-5,10,-4,-1,45,-131,56,-1,22
8,0,-8,-4,9,-3,-1,47,-144,56,0,22
6,0,-7,-3,7,-3,-1,48,-136,55,0,22
6,0,-6,-3,6,-2,0,49,-91,55,1,21
8,1,-7,-4,7,-2,0,50,-31,55,1,21
8,1,-7,-4,8,-3,0,51,17,55,1,20
7,0,-7,-4,8,-3,0,52,50,55,2,20
7,1,-6,-4,7,-2,0,54,74,55,3,20
8,2,-5,-5,7,-1,1,55,91,55,3,20
8,2,-6,-5,8,-1,1,55,95,55,3,19
10,3,-6,-6,9,-1,1,55,86,54,3,18
12,5,-6,-8,9,0,0,55,72,54,4,18
13,7,-6,-9,10,0,0,54,56,54,4,17
12,6,-6,-9,9,0,-1,54,39,54,4,17
10,5,-5,-8,8,0,-2,53,21,53,4,16
9,5,-5,-7,7,0,-2,51,2,52,4,15
9,5,-4,-7,7,1,-3,49,-15,50,4,14
9,5,-4,-7,7,1,-3,47,-29,48,4,13
9,5,-4,-7,7,1,-4,46,-42,47,4,12
9,4,-5,-6,7,0,-5,44,-55,45,3,11
8,2,-6,-5,7,-1,-7,43,-69,43,3,11
8,0,-8,-4,8,-3,-8,41,-82,40,2,10
7,-1,-9,-3,8,-4,-9,40,-94,38,2,10
7,-2,-9,-3,8,-5,-10,40,-108,37,2,10
9,-1,-10,-4,9,-5,-10,39,-117,36,3,10
10,0,-10,-5,10,-5,-10,39,-124,36,4,10
10,0,-10,-5,10,-5,-10,39,-128,35,4,10
11,1,-10,-6,10,-4,-11,38,-129,33,4,10
12,2,-11,-7,11,-4,-12,37,-133,30,4,9
14,3,-11,-8,12,-4,-12,35,-137,26,3,9
15,3,-11,-9,13,-4,-13,34,-140,23,3,8
16,4,-11,-10,14,-3,-13,33,-144,20,3,8
17,5,-11,-11,14,-3,-13,31,-152,17,3,8
16,5,-11,-11,14,-2,-14,30,-157,15,3,8
14,4,-11,-9,13,-3,-14,29,-155,11,3,7
13,4,-11,-9,13,-3,-14,28,-185,7,3,7
15,5,-11,-10,14,-3,-14,28,-271,4,4,7
16,5,-11,-11,14,-3,-13,27,-394,0,4,8
16,4,-11,-10,14,-3,-12,27,-550,-4,4,8
15,3,-11,-10,14,-4,-11,26,-696,-10,5,9
14,2,-12,-9,14,-4,-11,25,-747,-14,5,9
13,0,-12,-7,14,-5,-11,26,-691,-18,4,8
11,-1,-12,-5,12,-6,-10,28,-594,-20,4,8
9,-2,-11,-3,11,-6,-9,30,-507,-22,5,8
9,-2,-11,-2,10,-6,-8,29,-445,-24,5,8
9,-3,-12,-2,10,-7,-8,28,-400,-25,4,7
8,-4,-12,-1,10,-7,-8,28,-367,-27,4,6
8,-5,-12,-1,10,-8,-7,27,-356,-28,3,5
8,-5,-12,-1,10,-8,-6,27,-357,-28,3,5
8,-5,-12,-1,10,-8,-6,26,-340,-28,3,5
8,-5,-13,-1,11,-9,-6,25,-302,-29,3,4
8,-6,-14,-1,11,-10,-6,24,-258,-29,3,3
8,-6,-14,0,11,-10,-5,23,-217,-30,3,3
7,-6,-13,0,10,-10,-4,23,-177,-30,3,2
5,-7,-12,1,8,-9,-4,22,-142,-30,3,2
5,-7,-11,1,8,-8,-4,22,-115,-30,3,2
5,-7,-11,2,8,-8,-4,21,-97,-32,2,1
4,-8,-12,2,8,-9,-4,20,-91,-34,1,0
5,-7,-12,2,9,-9,-4,20,-98,-36,0,0
5,-7,-13,1,9,-9,-4,19,-108,-36,0,0
5,-8,-14,2,9,-10,-4,19,-100,-37,-1,0
4,-9,-14,2,9,-11,-4,18,-71,-37,-1,-1
4,-10,-15,3,9,-12,-4,18,-33,-38,-2,-1
4,-11,-15,4,9,-12,-4,18,11,-39,-2,-2
2,-13,-15,6,8,-13,-4,17,62,-39,-3,-3
1,-14,-15,7,7,-14,-4,17,118,-39,-3,-3
2,-13,-15,5,8,-13,-3,17,171,-38,-2,-3
4,-11,-15,4,10,-13,-2,16,212,-37,-2,-3
4,-10,-16,3,10,-13,-2,14,243,-38,-3,-3
3,-10,-15,3,10,-13,-2,12,268,-38,-3,-4
3,-9,-14,3,9,-12,-2,11,282,-38,-3,-4
4,-7,-13,1,9,-10,-1,10,285,-38,-3,-4
6,-6,-12,0,9,-9,0,9,280,-38,-3,-4
6,-6,-12,0,9,-8,0,7,266,-38,-3,-5
5,-7,-12,1,9,-9,0,5,247,-38,-4,-6
3,-9,-12,3,8,-10,0,3,225,-38,-5,-7
3,-10,-13,3,8,-11,0,1,202,-39,-6,-8
4,-10,-13,3,9,-11,0,0,178,-40,-6,-9
4,-10,-13,3,9,-11,0,-2,152,-40,-7,-10
4,-10,-14,3,9,-11,0,-3,129,-41,-7,-11
4,-10,-14,2,9,-12,0,-4,115,-40,-7,-11
5,-9,-15,2,10,-12,0,-5,107,-40,-7,-12
4,-10,-15,3,10,-12,0,-6,105,-40,-7,-13
3,-12,-16,4,10,-14,0,-8,108,-40,-7,-14
2,-14,-16,6,9,-14,0,-10,114,-40,-7,-15
1,-14,-15,7,8,-14,0,-12,123,-39,-6,-16
0,-15,-15,7,8,-14,0,-13,132,-38,-6,-17
0,-15,-16,8,8,-15,0,-15,138,-39,-6,-18
0,-16,-16,8,8,-15,0,-16,143,-39,-7,-20
0,-15,-16,8,7,-15,0,-16,147,-40,-7,-21
0,-15,-15,8,7,-15,0,-16,152,-40,-7,-22
1,-14,-15,7,8,-15,0,-17,158,-39,-7,-23
1,-14,-15,7,8,-15,1,-17,165,-39,-7,-25
1,-14,-15,7,8,-15,1,-18,170,-39,-7,-26
1,-14,-15,7,8,-15,0,-19,175,-39,-7,-27
0,-14,-15,6,8,-14,0,-20,177,-39,-7,-28
1,-13,-14,6,8,-13,1,-20,180,-38,-7,-29
2,-12,-15,5,9,-13,1,-20,183,-38,-7,-30
3,-11,-15,3,10,-13,1,-20,185,-37,-6,-31
4,-10,-15,2,10,-12,1,-20,187,-37,-6,-32
5,-10,-15,2,11,-12,1,-20,189,-38,-7,-34
5,-11,-15,2,11,-13,1,-20,192,-38,-7,-35
4,-11,-15,3,11,-13,1,-21,194,-38,-7,-36
3,-11,-15,3,10,-13,1,-21,196,-38,-7,-38
2,-12,-16,4,10,-14,1,-22,196,-39,-7,-39
1,-14,-16,6,9,-15,1,-22,196,-39,-8,-41
-1,-16,-16,8,8,-16,1,-23,196,-40,-9,-42
-2,-17,-15,9,7,-16,0,-23,196,-41,-10,-44
-1,-16,-14,9,7,-15,0,-23,197,-41,-10,-45
0,-14,-14,8,7,-14,1,-23,198,-40,-10,-45
1,-13,-14,6,8,-13,1,-23,199,-40,-9,-46
3,-11,-14,4,9,-13,2,-23,200,-41,-9,-46
4,-10,-14,3,9,-12,2,-22,199,-41,-9,-46
3,-10,-14,4,9,-12,2,-22,198,-41,-9,-46
3,-12,-14,5,9,-13,2,-22,197,-41,-9,-47
2,-13,-14,5,9,-13,2,-22,195,-41,-9,-47
2,-14,-14,6,8,-13,2,-22,195,-41,-9,-48
1,-14,-14,7,8,-14,2,-23,194,-41,-9,-48
0,-15,-14,8,7,-14,2,-23,194,-41,-8,-49
-1,-15,-14,9,7,-14,2,-24,193,-41,-8,-49
-1,-14,-14,8,7,-14,2,-24,190,-41,-8,-48
0,-12,-14,6,8,-13,3,-24,187,-42,-7,-48
2,-11,-14,4,8,-12,3,-24,184,-42,-7,-47
3,-10,-14,3,9,-12,4,-24,182,-43,-7,-47
3,-11,-14,3,9,-12,4,-24,180,-43,-7,-46
3,-11,-13,3,8,-11,4,-25,179,-42,-7,-45
2,-11,-13,3,8,-11,4,-26,178,-42,-7,-43
2,-11,-13,3,8,-11,4,-27,178,-42,-6,-42
3,-10,-13,2,8,-11,4,-27,178,-42,-6,-40
4,-9,-13,2,9,-11,4,-28,177,-42,-6,-39
4,-10,-13,2,9,-11,3,-29,177,-42,-6,-38
3,-10,-13,3,8,-12,3,-29,178,-41,-6,-38
2,-11,-13,4,8,-12,3,-30,179,-41,-5,-37
2,-11,-13,5,8,-12,3,-30,180,-41,-6,-37
3,-12,-14,5,9,-13,3,-31,178,-42,-6,-36
2,-11,-14,5,9,-12,3,-31,176,-43,-5,-34
1,-11,-13,5,8,-12,4,-30,174,-43,-5,-33
1,-12,-13,5,7,-12,4,-30,173,-43,-5,-32
1,-12,-13,6,7,-12,5,-30,173,-43,-5,-31
0,-13,-13,7,6,-13,5,-30,173,-43,-5,-31
-1,-14,-13,8,5,-13,4,-31,172,-43,-5,-30
-1,-14,-13,8,6,-14,4,-31,171,-43,-5,-29
1,-14,-15,7,8,-14,4,-31,171,-43,-5,-28
2,-14,-16,6,9,-14,4,-31,171,-42,-5,-27
0,-16,-16,7,9,-15,5,-30,170,-43,-5,-27
0,-17,-17,8,9,-17,6,-29,170,-43,-6,-26
1,-17,-18,7,10,-17,7,-26,171,-43,-6,-26
3,-16,-19,7,11,-18,9,-23,173,-42,-7,-26
4,-16,-20,6,12,-18,10,-21,177,-41,-7,-26
5,-17,-21,6,13,-19,11,-19,183,-40,-6,-26
6,-18,-23,6,14,-20,10,-15,190,-37,-5,-25
8,-19,-26,6,17,-22,10,-10,199,-33,-2,-23
11,-18,-29,3,20,-23,9,-4,209,-27,4,-18
15,-15,-30,0,23,-22,9,2,220,-18,12,-11
19,-12,-32,-3,26,-22,8,9,230,-8,23,-4
23,-9,-32,-7,28,-21,8,16,240,3,35,4
28,-4,-32,-12,30,-18,6,21,250,16,50,14
33,2,-31,-18,32,-14,3,22,258,28,67,26
39,9,-29,-24,34,-9,-1,20,266,41,85,39
44,17,-27,-31,36,-4,-6,15,271,54,103,52
48,26,-22,-37,36,2,-11,7,274,65,121,65
49,33,-16,-41,34,9,-14,-2,275,75,139,77
50,40,-10,-45,31,15,-16,-9,276,85,154,88
50,47,-2,-48,27,22,-16,-16,274,89,162,95
48,53,5,-50,21,29,-15,-25,266,83,159,96
41,56,15,-48,13,35,-14,-37,249,68,145,90
30,55,25,-42,2,40,-12,-54,226,45,120,76
18,54,36,-36,-9,45,-9,-74,196,17,90,58
5,54,48,-30,-21,51,-6,-95,166,-12,59,38
-6,55,60,-25,-33,57,-3,-112,141,-36,32,20
-16,55,71,-20,-43,63,0,-122,124,-51,14,7
-23,57,80,-17,-51,68,1,-128,115,-60,3,-3
-27,59,88,-16,-57,73,2,-132,110,-64,-3,-9
-30,61,93,-15,-61,77,2,-134,106,-67,-7,-14
-32,61,95,-14,-63,78,1,-134,106,-69,-11,-18
-34,59,93,-12,-63,76,1,-131,109,-71,-13,-20
-34,55,89,-10,-62,72,0,-126,113,-72,-16,-23
-34,51,85,-9,-59,68,0,-122,117,-73,-18,-25
-33,47,80,-7,-56,64,-1,-117,121,-74,-19,-27
-32,43,75,-6,-53,59,-3,-112,126,-74,-20,-28
-30,40,70,-5,-49,55,-5,-107,125,-74,-20,-28
-29,36,65,-4,-47,51,-6,-101,118,-74,-20,-29
-28,32,61,-2,-44,47,-7,-96,280,-73,-20,-29
-26,29,56,-1,-41,43,-7,-90,-53,-72,-20,-30
-24,27,51,-1,-38,39,-8,-85,-807,-71,-20,-30
-21,26,46,-2,-34,36,-8,-79,-621,-69,-20,-30
-19,25,42,-2,-31,34,-8,-74,-126,-68,-20,-30
-18,22,39,-2,-28,31,-8,-69,-34,-66,-19,-30
-16,19,35,-1,-25,27,-8,-65,40,-65,-19,-29
-15,16,31,-1,-22,24,-7,-60,92,-64,-18,-29
-13,13,27,0,-20,21,-6,-55,121,-62,-17,-28
-12,11,23,0,-18,18,-5,-51,140,-60,-16,-28
-10,8,19,0,-15,14,-4,-47,152,-58,-16,-28
-9,6,14,1,-12,10,-3,-42,160,-57,-16,-28
-8,3,11,2,-10,7,-2,-38,167,-56,-15,-28
-9,0,8,5,-8,3,-1,-35,171,-55,-15,-28
-9,-4,6,6,-7,1,-1,-32,173,-54,-15,-28
-8,-6,3,7,-5,-1,0,-30,174,-54,-14,-28
-6,-7,0,7,-3,-3,0,-27,175,-53,-14,-28
-6,-8,-1,7,-2,-4,0,-24,176,-51,-13,-28
-7,-9,-2,8,-3,-5,0,-23,177,-50,-13,-28
-8,-10,-2,9,-3,-5,0,-21,178,-49,-13,-28
-8,-9,0,9,-4,-4,1,-19,179,-48,-12,-27
-8,-7,0,8,-4,-3,1,-16,180,-46,-11,-27
-7,-6,0,7,-3,-3,1,-14,180,-46,-10,-27
-5,-6,0,6,-2,-3,1,-13,180,-46,-10,-27
-4,-4,1,4,-2,-2,2,-10,179,-46,-9,-27
-4,-3,2,3,-3,0,3,-8,179,-46,-9,-26
-5,-3,2,4,-4,0,3,-6,179,-46,-9,-26
-5,-3,2,4,-4,0,2,-5,179,-45,-9,-26
-5,-3,2,3,-3,0,2,-3,179,-45,-9,-25
-4,-2,2,3,-2,0,2,-2,180,-44,-8,-25
-5,-3,2,4,-3,0,2,-1,179,-43,-8,-25
-6,-3,3,4,-3,0,2,0,179,-42,-8,-25
-5,-3,3,4,-4,0,2,0,179,-42,-8,-25
-5,-3,3,4,-4,0,2,1,178,-41,-8,-25
-4,-2,3,3,-4,0,2,2,178,-41,-8,-25
-4,-1,4,3,-5,1,2,2,177,-41,-8,-25
-6,-1,5,3,-6,2,2,3,177,-41,-8,-25
-7,-1,6,4,-7,2,2,3,176,-41,-8,-25
-8,-1,6,5,-7,2,2,3,175,-41,-8,-25
-8,-1,6,5,-7,2,2,3,174,-41,-8,-25
-8,-1,7,5,-7,2,2,3,173,-41,-8,-25
-8,-1,8,5,-8,3,3,4,172,-40,-8,-24
-7,0,9,4,-8,4,3,5,173,-39,-6,-24
-7,2,10,3,-8,6,4,6,173,-38,-5,-23
-7,3,11,3,-9,7,4,6,173,-37,-5,-23
-8,3,11,3,-9,7,4,7,173,-37,-5,-23
-8,2,11,3,-9,7,4,7,171,-37,-5,-23
-9,2,11,3,-10,7,3,7,170,-38,-6,-23
-9,2,12,3,-10,8,3,7,169,-38,-6,-24
-9,2,12,3,-11,8,3,8,168,-38,-6,-24
-8,2,12,3,-10,8,3,9,167,-38,-6,-24
-8,3,12,2,-10,8,3,10,167,-38,-6,-24
-8,3,12,2,-10,8,3,10,167,-38,-6,-24
-8,4,12,2,-10,8,4,10,166,-38,-6,-23
-8,4,12,2,-10,9,4,10,166,-38,-6,-23
-9,4,13,2,-11,9,5,10,165,-38,-6,-23
-10,4,14,3,-12,9,5,11,164,-37,-6,-23
-11,3,15,4,-12,9,5,12,163,-37,-6,-23
-10,4,15,3,-12,9,5,12,162,-36,-6,-24
-9,4,15,3,-12,9,4,12,161,-36,-6,-24
-10,5,15,3,-12,10,4,11,160,-36,-6,-24
-10,5,16,3,-13,11,4,11,160,-36,-5,-24
-11,6,17,2,-14,11,4,10,159,-36,-5,-24
-11,6,17,2,-14,12,3,10,158,-36,-5,-25
-13,6,18,3,-15,12,3,9,157,-36,-5,-25
-14,6,20,3,-17,13,3,9,157,-36,-5,-25
-15,6,22,4,-18,14,4,9,156,-36,-5,-24
-15,6,22,4,-18,14,4,9,156,-36,-4,-24
-15,7,22,4,-18,15,5,10,156,-36,-3,-23
-13,8,22,2,-17,15,5,10,156,-36,-2,-22
-11,9,21,1,-16,15,5,10,156,-35,-2,-21
-10,10,21,0,-15,15,5,10,156,-34,-1,-21
-10,10,21,0,-15,15,4,10,155,-33,0,-21
-10,10,21,0,-15,16,4,9,155,-32,0,-21
-9,12,21,-1,-15,16,5,9,154,-32,0,-21
-8,13,21,-2,-14,17,5,9,154,-31,0,-20
-8,14,21,-3,-14,18,5,9,153,-32,0,-20
-8,14,21,-3,-14,18,5,9,152,-32,0,-20
-8,14,21,-3,-14,18,5,9,152,-32,1,-20
-7,14,21,-3,-14,18,5,9,152,-31,1,-20
-7,14,21,-3,-14,18,5,9,151,-31,1,-20
-7,14,21,-3,-14,18,4,9,151,-30,1,-19
-7,14,22,-3,-14,18,4,9,150,-30,1,-19
-8,13,22,-2,-15,17,3,9,149,-29,1,-20
-9,13,22,-1,-16,17,3,9,149,-29,2,-20
-10,13,23,-1,-17,18,3,9,149,-28,3,-20
-9,14,24,-2,-16,19,3,9,148,-27,3,-19
-8,16,24,-3,-15,20,3,10,148,-27,4,-19
-8,16,24,-3,-16,20,3,10,147,-27,4,-18
-8,15,24,-3,-16,19,3,11,147,-27,4,-18
-8,14,23,-3,-15,19,2,11,147,-27,4,-18
-7,15,23,-4,-14,19,2,12,147,-27,4,-17
-6,17,22,-5,-14,19,3,12,147,-26,5,-16
-5,17,22,-6,-13,20,3,13,146,-26,5,-15
-4,17,21,-6,-13,19,3,13,146,-25,5,-15
-3,18,21,-7,-12,19,2,13,146,-24,6,-14
-2,18,21,-7,-12,19,2,14,146,-23,6,-14
-2,17,21,-7,-12,18,2,14,145,-23,6,-14
-3,17,21,-7,-12,18,2,15,145,-23,6,-14
-3,16,20,-7,-11,18,2,15,144,-23,6,-13
-3,16,20,-7,-11,18,2,15,144,-23,7,-13
-4,15,19,-6,-11,17,1,15,143,-23,7,-13
-5,14,19,-5,-11,17,1,15,143,-24,6,-13
-4,15,19,-5,-11,17,2,16,142,-24,6,-12
-1,16,18,-7,-9,16,2,16,142,-24,6,-12
-1,15,17,-7,-9,16,2,17,141,-24,6,-12
-2,15,18,-7,-10,16,2,17,141,-23,6,-12
-1,16,18,-8,-9,17,3,18,141,-23,6,-12
1,18,17,-9,-8,17,3,18,140,-22,6,-12
1,17,16,-9,-7,16,3,18,139,-23,6,-12
0,15,16,-7,-7,15,2,18,138,-24,5,-12
-1,13,15,-5,-8,14,1,17,136,-24,4,-12
-2,12,15,-4,-8,13,0,17,136,-24,4,-12
-2,12,14,-5,-8,13,1,17,135,-23,4,-12
0,12,13,-6,-7,12,1,17,135,-23,4,-12
0,11,12,-5,-6,12,1,17,134,-24,4,-13
0,11,11,-5,-5,11,0,18,133,-25,3,-13
1,11,10,-6,-4,11,0,18,132,-25,3,-12
1,11,10,-6,-4,11,0,19,131,-25,3,-12
0,11,10,-5,-4,10,0,20,131,-25,3,-11
0,10,10,-4,-5,9,0,20,130,-26,3,-11
0,9,9,-4,-4,8,1,20,129,-27,2,-11
1,8,7,-4,-4,7,1,19,128,-28,1,-11
0,6,6,-3,-3,6,1,19,127,-30,0,-12
0,4,4,-3,-2,5,1,18,125,-31,-1,-13
0,4,4,-2,-2,4,1,18,124,-31,-1,-13
1,4,4,-2,-1,3,1,19,124,-31,-1,-13
2,4,3,-3,-1,3,1,19,123,-30,-1,-13
2,4,2,-3,0,3,0,19,122,-31,-2,-13
2,3,1,-2,0,2,0,19,121,-31,-2,-13
2,3,1,-2,0,1,0,19,120,-31,-3,-13
3,3,0,-3,1,1,0,19,119,-31,-3,-13
3,3,0,-3,1,0,0,19,119,-30,-3,-13
3,3,0,-3,1,0,0,19,118,-30,-2,-13
2,2,0,-2,1,0,0,20,118,-30,-2,-13
2,2,0,-2,1,0,0,20,117,-30,-2,-13
3,1,-1,-2,2,0,0,20,117,-30,-2,-13
4,2,-2,-3,3,-1,0,21,117,-31,-3,-13
5,2,-2,-3,4,-1,1,21,116,-32,-3,-13
5,0,-3,-2,4,-2,1,21,116,-33,-4,-13
4,-1,-4,-1,4,-3,1,21,115,-33,-4,-13
6,-1,-6,-2,6,-4,1,22,114,-33,-4,-13
7,-1,-8,-3,8,-4,1,22,114,-33,-4,-12
7,-2,-8,-2,8,-5,1,23,113,-32,-4,-12
7,-3,-9,-1,8,-6,1,23,113,-32,-5,-13
6,-4,-10,0,8,-7,1,23,112,-32,-5,-13
5,-5,-10,0,7,-8,1,22,112,-31,-5,-12
4,-6,-10,1,7,-8,1,22,111,-31,-5,-12
4,-7,-11,1,7,-9,1,22,111,-31,-5,-12
5,-7,-11,1,8,-9,1,23,110,-30,-4,-11
4,-7,-11,1,8,-9,1,23,110,-30,-4,-11
5,-7,-11,1,8,-9,1,23,109,-30,-4,-11
5,-7,-13,1,9,-10,1,23,109,-31,-4,-11
5,-8,-14,1,9,-11,1,23,108,-32,-4,-11
5,-8,-13,1,9,-11,2,23,107,-32,-4,-11
5,-7,-13,1,9,-10,2,23,106,-31,-4,-10
5,-7,-13,1,9,-10,2,23,106,-31,-4,-10
5,-7,-12,1,8,-10,2,23,105,-30,-4,-10
3,-8,-12,2,8,-10,2,23,104,-31,-5,-10
2,-10,-12,4,7,-11,1,23,103,-32,-5,-10
2,-10,-12,4,7,-11,1,23,102,-32,-5,-11
2,-10,-11,3,7,-11,2,23,101,-31,-5,-10
3,-9,-11,3,7,-10,2,23,101,-31,-4,-10
4,-9,-12,2,7,-11,3,23,101,-30,-4,-10
4,-9,-13,2,8,-11,3,23,100,-30,-4,-10
3,-9,-13,3,8,-11,3,23,100,-30,-4,-10
3,-10,-13,3,8,-12,2,22,99,-30,-4,-11
4,-10,-14,3,9,-12,2,22,98,-30,-4,-11
4,-10,-13,3,9,-12,2,22,97,-29,-3,-11
3,-9,-12,3,8,-11,3,22,96,-29,-3,-11
3,-9,-12,3,8,-11,3,22,95,-29,-4,-11
3,-9,-12,3,8,-11,3,21,94,-30,-4,-12
3,-8,-13,2,9,-11,3,21,93,-31,-5,-12
4,-8,-12,2,8,-11,3,21,93,-30,-4,-12
3,-8,-12,2,8,-11,4,22,93,-30,-4,-11
3,-8,-11,2,7,-11,4,22,92,-30,-4,-11
3,-9,-11,3,7,-11,4,22,91,-30,-4,-12
2,-10,-12,3,7,-12,3,22,91,-29,-4,-12
2,-10,-12,3,7,-12,3,22,90,-29,-3,-12
2,-9,-11,3,7,-11,4,23,90,-28,-2,-12
2,-9,-11,3,6,-10,4,23,90,-27,-2,-11
1,-10,-11,4,6,-11,3,23,89,-28,-2,-12
0,-10,-11,5,5,-11,3,22,88,-28,-2,-12
1,-10,-12,5,6,-12,3,22,87,-28,-2,-12
1,-11,-12,5,6,-12,3,22,86,-28,-2,-13
0,-11,-12,5,6,-12,3,22,86,-28,-2,-13
1,-10,-11,5,6,-11,3,22,86,-28,-2,-13
3,-9,-11,3,7,-10,3,22,86,-27,-2,-14
4,-8,-11,2,7,-10,3,22,85,-27,-2,-14
3,-8,-11,2,7,-10,3,22,85,-27,-2,-14
2,-8,-10,2,6,-9,3,22,84,-27,-2,-14
2,-7,-9,2,6,-8,3,23,84,-26,-1,-14
1,-7,-9,2,5,-8,3,24,84,-26,-1,-13
1,-7,-9,2,5,-8,3,25,84,-26,0,-13
2,-7,-10,2,6,-8,3,25,84,-25,0,-13
2,-8,-11,3,6,-9,3,25,84,-25,0,-13
2,-10,-11,4,6,-10,3,25,84,-24,1,-13
2,-10,-12,5,6,-11,3,25,83,-24,1,-13
2,-11,-12,5,7,-12,3,25,83,-24,1,-13
0,-13,-12,6,6,-13,3,25,82,-24,0,-13
-2,-14,-12,8,6,-13,2,26,81,-24,0,-13
-1,-13,-12,6,6,-12,3,27,82,-23,1,-13
1,-10,-12,3,7,-11,4,28,82,-22,2,-12
4,-7,-12,1,8,-10,5,29,83,-21,2,-11
5,-6,-12,0,8,-9,6,30,83,-20,3,-11
6,-4,-11,-1,8,-8,6,31,84,-19,4,-11
8,-3,-11,-3,9,-7,6,32,84,-18,5,-10
9,-2,-10,-4,10,-6,6,33,85,-16,6,-10
9,-1,-10,-4,10,-5,7,34,85,-16,6,-9
9,0,-9,-4,10,-5,7,34,85,-15,6,-9
8,0,-8,-4,9,-4,7,35,86,-14,7,-8
7,0,-7,-4,7,-4,8,36,86,-14,7,-8
6,0,-6,-3,6,-4,8,36,86,-14,7,-8
5,-1,-6,-2,6,-5,8,36,86,-13,7,-8
6,-1,-6,-2,6,-5,9,36,86,-12,7,-7
7,0,-6,-4,7,-4,9,37,86,-12,8,-7
7,0,-7,-4,8,-4,9,38,85,-11,8,-6
7,0,-7,-4,8,-4,8,38,85,-11,8,-7
7,0,-8,-3,8,-4,8,38,84,-11,8,-7
7,0,-8,-3,8,-4,7,38,84,-11,8,-8
8,0,-8,-3,9,-4,7,38,83,-11,8,-8
8,0,-8,-4,9,-4,6,37,83,-11,8,-8
9,2,-7,-5,9,-3,6,36,82,-11,8,-7
10,3,-6,-6,9,-2,6,36,81,-11,8,-7
10,4,-6,-7,8,-1,5,35,80,-11,8,-7
10,4,-6,-7,8,-1,4,34,79,-11,8,-7
11,3,-7,-7,9,-3,2,32,77,-12,7,-7
12,3,-10,-7,11,-4,1,31,76,-13,7,-8
13,2,-11,-7,11,-5,0,31,75,-13,7,-8
12,1,-11,-6,11,-5,-1,31,74,-13,7,-8
10,0,-11,-4,10,-6,-1,31,74,-14,6,-8
7,-2,-10,-2,9,-7,-2,30,73,-14,6,-8
6,-3,-10,-2,9,-7,-2,30,73,-14,6,-8
7,-3,-11,-2,9,-7,-3,31,72,-14,6,-7
8,-3,-12,-3,10,-8,-3,30,71,-14,6,-7
10,-3,-13,-3,11,-9,-4,30,70,-14,6,-7
12,-2,-13,-5,13,-8,-4,30,69,-14,7,-6
12,-1,-13,-5,13,-8,-4,30,69,-14,7,-6
12,-1,-13,-5,13,-8,-4,30,69,-14,7,-6
14,0,-14,-6,14,-7,-3,30,69,-13,8,-5
15,0,-14,-8,15,-7,-3,30,68,-12,8,-4
16,1,-14,-8,15,-7,-3,30,68,-13,8,-4
16,1,-14,-8,15,-7,-4,29,66,-14,7,-4
16,1,-14,-8,15,-7,-4,29,65,-14,7,-3
15,1,-14,-8,14,-7,-3,29,65,-14,7,-2
14,0,-14,-7,14,-7,-3,29,64,-15,7,-2
14,-1,-15,-6,14,-8,-3,29,63,-16,6,-2
13,-2,-15,-5,14,-8,-3,28,63,-16,5,-2
12,-3,-15,-4,13,-9,-3,27,62,-16,5,-2
10,-4,-14,-3,12,-9,-3,27,61,-16,5,-2
8,-5,-13,-2,11,-10,-2,27,60,-16,5,-2
6,-6,-13,0,10,-10,-2,27,59,-16,4,-2
5,-7,-13,0,9,-11,-1,27,58,-16,4,-2
5,-7,-12,1,9,-10,0,27,58,-16,4,-2
5,-6,-12,1,9,-10,1,27,58,-16,3,-1
5,-6,-11,1,9,-9,2,28,57,-16,3,-1
5,-7,-11,1,8,-9,2,28,57,-16,2,-1
4,-8,-12,1,8,-10,2,28,56,-16,2,-2
3,-9,-12,2,8,-10,2,28,55,-16,1,-2
4,-9,-13,1,8,-10,2,28,54,-16,1,-3
5,-9,-14,1,9,-11,2,28,53,-17,0,-3
6,-9,-15,1,10,-12,2,27,52,-18,0,-4
6,-9,-16,1,11,-13,3,27,51,-19,-1,-4
5,-10,-16,2,10,-13,3,27,51,-19,-1,-4
3,-11,-16,4,9,-13,3,27,51,-19,-1,-4
2,-12,-16,5,9,-14,3,27,50,-19,-1,-4
2,-14,-16,6,9,-15,2,26,49,-20,-2,-5
1,-15,-17,6,9,-15,1,26,48,-21,-2,-5
0,-15,-16,7,8,-15,1,27,48,-21,-1,-5
0,-15,-15,7,8,-15,2,27,47,-21,-1,-6
0,-15,-15,7,8,-15,2,26,47,-21,-2,-7
0,-14,-15,7,8,-15,2,26,46,-20,-2,-7
1,-13,-14,7,8,-14,3,27,46,-20,-1,-7
3,-12,-15,5,9,-14,3,27,46,-19,-1,-6
5,-10,-16,3,11,-13,3,27,46,-19,-1,-6
6,-9,-15,1,11,-12,4,28,46,-19,-1,-6
6,-9,-15,1,10,-12,5,28,46,-19,-1,-5
5,-10,-15,3,10,-13,5,28,46,-19,-1,-6
4,-12,-16,4,10,-14,5,27,45,-20,-1,-6
4,-13,-17,5,11,-15,4,27,44,-20,-2,-7
4,-14,-19,5,11,-17,4,26,43,-20,-2,-8
3,-15,-19,6,11,-17,4,26,42,-20,-3,-9
3,-15,-19,6,11,-17,4,26,41,-21,-3,-9
3,-15,-19,6,11,-17,4,26,41,-21,-3,-10
2,-15,-18,6,10,-17,4,26,40,-21,-3,-10
1,-15,-16,7,9,-16,4,26,40,-20,-3,-11
0,-15,-15,7,7,-15,4,26,40,-20,-3,-11
-1,-16,-14,9,6,-15,4,26,39,-20,-4,-11
-2,-17,-15,10,6,-16,4,26,38,-21,-4,-12
-2,-17,-15,10,6,-16,3,26,38,-21,-5,-12
-1,-16,-15,9,7,-15,3,26,38,-21,-5,-12
0,-15,-15,7,8,-15,3,26,37,-21,-4,-11
0,-15,-16,7,8,-15,3,26,37,-21,-4,-11
1,-15,-16,7,9,-16,3,25,36,-21,-4,-11
2,-15,-17,6,10,-16,3,25,36,-21,-4,-11
3,-14,-17,5,10,-16,4,25,36,-21,-4,-11
3,-14,-17,5,11,-16,4,25,35,-21,-4,-11
2,-15,-17,6,11,-16,3,25,35,-21,-4,-12
1,-16,-17,7,10,-16,3,25,34,-21,-4,-12
0,-16,-16,8,9,-16,3,25,34,-20,-4,-12
0,-16,-16,8,8,-16,3,25,34,-20,-4,-12
0,-16,-16,9,8,-16,3,25,33,-20,-4,-12
0,-16,-16,8,8,-16,3,25,33,-20,-4,-13
0,-16,-16,8,8,-17,3,25,32,-20,-4,-13
0,-16,-16,8,8,-17,4,25,32,-20,-4,-13
0,-16,-16,8,7,-16,4,25,32,-20,-4,-13
0,-16,-15,8,7,-16,4,25,32,-20,-4,-13
0,-15,-15,7,7,-15,4,25,32,-20,-4,-13
1,-14,-15,6,8,-14,5,26,32,-19,-3,-12
1,-13,-15,6,8,-14,6,26,32,-19,-3,-12
1,-13,-15,6,8,-14,6,25,32,-19,-3,-12
2,-13,-15,6,9,-14,6,25,31,-19,-3,-12
2,-13,-16,5,9,-14,6,25,31,-19,-3,-12
2,-13,-16,6,9,-15,6,25,30,-19,-3,-12
0,-15,-16,7,9,-15,5,24,29,-19,-4,-13
0,-15,-16,7,9,-16,5,24,29,-20,-4,-13
2,-15,-17,6,9,-15,5,24,28,-20,-4,-13
3,-14,-17,5,10,-15,5,24,28,-20,-4,-13
2,-15,-17,6,10,-16,4,24,28,-20,-4,-13
1,-16,-17,8,9,-17,4,23,27,-20,-5,-14
0,-18,-17,9,9,-18,4,23,26,-21,-5,-14
0,-18,-17,10,9,-18,4,22,26,-21,-6,-15
0,-17,-17,9,9,-17,4,22,25,-21,-6,-15
0,-16,-17,8,8,-17,5,23,25,-21,-6,-15
0,-16,-16,8,8,-16,5,23,25,-20,-6,-15
0,-16,-16,7,7,-16,6,23,25,-20,-5,-15
0,-15,-15,7,7,-15,6,24,25,-20,-5,-14
0,-14,-14,6,7,-14,7,24,25,-19,-4,-14
0,-14,-14,7,7,-15,7,24,25,-20,-5,-14
-1,-16,-15,9,7,-16,7,24,24,-20,-5,-14
-1,-16,-15,9,7,-16,7,23,23,-21,-6,-15
0,-15,-16,8,8,-16,7,24,23,-20,-5,-15
1,-15,-16,7,9,-16,6,24,23,-20,-5,-14
2,-15,-16,7,9,-16,6,24,23,-20,-5,-14
3,-14,-17,6,10,-16,6,24,23,-20,-4,-14
3,-14,-17,6,10,-16,6,24,23,-19,-4,-14
3,-14,-18,6,11,-16,6,25,23,-19,-3,-14
3,-14,-18,6,11,-16,6,25,23,-18,-3,-14
2,-14,-17,6,10,-16,6,25,23,-18,-3,-14
2,-15,-16,7,9,-16,6,24,22,-19,-3,-14
2,-15,-17,7,9,-16,6,24,21,-19,-4,-14
2,-15,-17,7,9,-16,6,23,21,-19,-4,-15
2,-15,-17,6,10,-16,6,23,21,-19,-4,-15
1,-15,-17,6,9,-16,6,24,21,-19,-4,-15
1,-15,-16,6,9,-16,6,24,21,-18,-4,-15
1,-14,-16,6,9,-15,7,25,21,-18,-3,-15
2,-13,-15,5,9,-15,7,25,21,-17,-3,-14
2,-13,-15,5,8,-14,8,25,21,-17,-2,-14
1,-13,-14,6,8,-14,8,25,21,-16,-2,-14
1,-14,-14,6,7,-14,8,24,21,-16,-2,-14
1,-13,-14,6,7,-14,8,24,20,-16,-2,-14
1,-13,-14,6,7,-14,8,25,20,-17,-2,-14
1,-14,-15,6,8,-15,8,26,21,-17,-3,-15
2,-15,-17,7,9,-16,9,27,21,-17,-4,-16
3,-15,-18,6,10,-17,10,30,23,-17,-4,-17
5,-15,-19,5,12,-17,11,32,24,-16,-5,-17
5,-16,-21,6,13,-19,11,34,25,-16,-5,-18
4,-18,-22,7,13,-20,11,36,27,-15,-5,-18
4,-20,-24,8,14,-22,11,40,31,-13,-4,-18
5,-21,-26,8,15,-23,11,46,37,-8,-1,-17
8,-20,-28,6,18,-24,11,52,44,-1,5,-13
11,-18,-30,3,20,-24,10,59,53,7,13,-7
15,-16,-31,0,23,-24,9,66,63,16,24,0
19,-12,-32,-3,25,-23,9,73,73,27,36,8
24,-8,-32,-8,28,-20,7,78,83,39,50,19
29,-2,-32,-14,31,-17,5,80,90,51,67,30
35,5,-30,-20,32,-12,1,78,96,63,85,43
40,14,-28,-27,34,-7,-3,74,99,75,103,56
45,22,-23,-34,34,0,-7,67,99,87,121,69
47,31,-16,-39,32,8,-11,59,99,99,139,82
47,39,-9,-43,29,15,-13,52,99,108,155,93
47,45,-2,-46,26,21,-14,44,96,111,162,99
46,50,4,-48,22,27,-13,34,85,104,158,100
42,53,12,-47,15,33,-11,20,66,88,143,93
33,54,22,-43,6,38,-9,2,40,66,118,79
20,52,32,-36,-5,43,-7,-19,9,38,88,61
7,52,45,-30,-18,48,-4,-40,-23,9,58,42
-5,53,57,-24,-31,55,-1,-58,-49,-13,32,24
-14,54,68,-20,-41,61,2,-69,-66,-28,14,11
-21,55,77,-17,-48,66,4,-75,-76,-37,3,1
-25,57,83,-16,-53,70,4,-80,-82,-42,-3,-5
-27,59,87,-16,-57,73,4,-82,-86,-45,-7,-9
-28,60,90,-16,-59,75,4,-82,-87,-45,-9,-12
-30,59,89,-14,-59,74,4,-79,-85,-46,-10,-15
-31,55,86,-12,-58,71,3,-76,-83,-47,-13,-18
-31,51,81,-10,-56,66,2,-73,-80,-48,-15,-21
-30,47,76,-9,-53,61,0,-69,-77,-50,-17,-23
-30,42,72,-7,-50,57,-1,-65,-74,-51,-19,-24
-29,38,68,-5,-47,53,-2,-61,-71,-51,-19,-25
-28,34,63,-4,-44,48,-4,-57,-67,-51,-20,-26
-26,31,57,-3,-41,44,-5,-52,-64,-51,-20,-26
-24,28,52,-2,-38,40,-5,-48,-60,-49,-20,-27
-23,26,49,-1,-36,37,-5,-43,-57,-47,-20,-27
-24,23,46,0,-35,34,-6,-39,-53,-46,-20,-28
-23,20,43,1,-33,31,-6,-35,-50,-45,-20,-28
-21,18,38,1,-30,28,-6,-32,-47,-43,-20,-28
-18,15,33,0,-25,24,-6,-28,-44,-42,-20,-28
-15,13,28,0,-21,20,-6,-25,-41,-41,-19,-27
-14,11,24,1,-18,18,-5,-21,-38,-39,-18,-27
-13,9,21,1,-16,15,-4,-17,-34,-38,-17,-26
-12,7,17,2,-14,13,-3,-13,-31,-36,-17,-26
-11,4,14,2,-12,10,-2,-10,-28,-35,-16,-25
-10,2,11,3,-10,7,-2,-7,-25,-33,-16,-25
-9,-1,8,4,-8,4,-1,-4,-23,-32,-15,-25
-10,-4,6,7,-7,1,-1,-2,-21,-31,-15,-25
-11,-7,4,9,-7,-1,0,-1,-19,-30,-14,-24
-10,-9,2,9,-5,-3,0,0,-18,-30,-14,-24
-9,-9,0,9,-4,-4,0,1,-18,-29,-13,-24
-9,-9,0,9,-4,-5,0,2,-17,-29,-13,-24
-8,-8,-1,9,-3,-4,0,3,-16,-28,-12,-23
-7,-7,-1,7,-3,-4,1,4,-15,-26,-11,-22
-6,-6,-1,5,-2,-3,1,5,-14,-24,-10,-21
-4,-5,-1,4,-1,-3,2,6,-13,-23,-9,-20
-3,-4,-1,3,0,-3,2,7,-13,-23,-9,-20
-3,-4,0,2,0,-2,3,7,-12,-22,-8,-19
-2,-2,0,1,0,0,4,8,-12,-22,-8,-18
-2,-1,1,1,-1,0,5,9,-12,-22,-7,-18
-3,-2,1,2,-1,0,5,9,-12,-22,-8,-19
-4,-2,2,2,-2,0,5,9,-13,-22,-8,-19
-3,-1,2,2,-2,0,5,9,-13,-21,-8,-19
-3,-1,2,1,-2,0,5,8,-13,-21,-8,-19
-4,-2,2,2,-2,0,5,8,-13,-21,-8,-19
-5,-3,3,3,-3,0,4,8,-13,-21,-8,-19
-5,-3,3,3,-4,0,4,7,-14,-21,-8,-20
-5,-3,3,3,-4,0,4,7,-14,-21,-7,-20
-5,-1,3,3,-4,1,4,7,-14,-20,-7,-20
-5,0,4,2,-5,2,4,7,-14,-20,-6,-19
-5,1,5,2,-5,3,4,7,-14,-19,-5,-19
-5,0,5,2,-6,2,4,7,-15,-19,-5,-19
-7,-1,6,4,-7,1,4,7,-15,-20,-5,-19
-8,-2,6,5,-7,1,4,7,-15,-20,-5,-19
-8,-2,6,5,-7,2,5,7,-16,-20,-5,-19
-8,-1,6,5,-7,3,5,7,-16,-20,-5,-20
-7,0,6,4,-7,3,5,7,-16,-20,-6,-20
-7,0,7,4,-7,4,5,6,-17,-20,-6,-20
-6,1,7,3,-6,4,5,6,-17,-20,-6,-20
-5,1,7,2,-6,4,5,6,-17,-20,-5,-20
-6,1,8,2,-6,4,5,7,-17,-19,-5,-20
-6,2,9,2,-7,5,6,7,-17,-18,-4,-19
-6,2,9,2,-7,6,6,7,-17,-18,-4,-19
-6,2,8,1,-7,6,6,7,-17,-18,-4,-19
-6,3,8,1,-7,6,6,6,-18,-18,-4,-19
-6,3,9,1,-7,6,6,6,-18,-17,-4,-19
-7,3,9,2,-8,6,5,6,-19,-17,-4,-20
-8,3,10,3,-9,6,5,5,-19,-17,-4,-20
-9,4,12,3,-10,7,6,5,-19,-17,-4,-20
-8,5,13,2,-10,9,6,5,-19,-16,-4,-20
-7,6,14,1,-10,10,6,5,-19,-16,-4,-21
-7,6,14,1,-10,10,6,5,-20,-16,-4,-21
-8,7,15,1,-11,11,6,5,-20,-16,-4,-21
-8,7,16,1,-11,11,6,5,-20,-15,-4,-20
-9,8,17,1,-12,12,6,6,-20,-15,-3,-20
-9,8,17,0,-13,12,6,5,-20,-14,-2,-20
-9,8,17,0,-13,12,6,5,-20,-14,-2,-21
-9,8,17,1,-13,12,5,4,-21,-14,-2,-21
-9,8,17,0,-13,13,5,4,-21,-14,-2,-21
-7,11,18,-1,-13,15,5,5,-20,-13,-1,-21
-7,12,18,-2,-12,16,5,6,-20,-13,0,-20
-8,12,18,-1,-13,16,5,5,-20,-13,0,-21
-9,11,18,0,-13,15,4,5,-21,-13,0,-21
-9,11,19,0,-13,15,4,4,-21,-13,0,-21
-9,11,19,0,-13,15,4,4,-21,-12,0,-21
-8,12,20,-1,-14,16,4,4,-21,-12,0,-21
-9,11,21,0,-15,16,4,4,-21,-11,0,-21
-11,11,22,0,-17,17,5,5,-20,-11,1,-20
-10,12,23,-1,-17,18,5,5,-20,-10,2,-20
-9,14,22,-2,-16,19,6,6,-19,-9,2,-19
-8,14,22,-3,-15,19,6,6,-19,-9,2,-19
-8,14,22,-3,-14,18,6,6,-19,-9,2,-19
-8,14,22,-3,-14,18,6,6,-19,-9,3,-18
-7,14,22,-3,-14,18,6,6,-19,-9,3,-18
-7,14,21,-4,-14,19,5,6,-19,-9,3,-18
-7,14,21,-4,-14,19,5,6,-19,-9,3,-18
-7,15,21,-4,-14,19,4,6,-19,-9,3,-17
-7,15,21,-4,-14,19,4,6,-19,-9,3,-16
-7,15,21,-4,-14,19,4,7,-19,-9,4,-15
-6,15,21,-5,-13,19,4,7,-19,-8,4,-14
-5,16,21,-6,-13,19,4,8,-19,-8,4,-13
-4,17,21,-6,-12,19,4,8,-18,-7,5,-13
-4,17,21,-6,-12,19,4,8,-18,-7,5,-12
-4,17,21,-6,-13,19,4,9,-17,-6,6,-10
-4,17,22,-6,-13,20,4,9,-17,-6,6,-6
-5,17,22,-6,-13,20,4,9,-17,-6,6,-3
-6,15,22,-4,-14,19,3,9,-16,-6,6,0
-7,14,22,-3,-14,18,3,9,-16,-6,6,1
-7,14,22,-3,-14,18,2,10,-16,-6,7,3
-6,15,22,-4,-14,19,2,10,-16,-5,7,6
-3,17,21,-7,-12,19,2,11,-15,-5,8,8
0,18,19,-9,-10,19,2,11,-15,-5,8,9
1,19,19,-10,-9,19,2,11,-15,-5,8,9
1,20,19,-10,-9,20,3,12,-14,-4,8,10
1,20,19,-11,-8,20,3,13,-14,-4,9,10
2,20,19,-11,-8,20,3,13,-14,-3,9,11
2,20,18,-11,-8,20,3,14,-14,-3,9,12
2,20,18,-11,-8,19,3,14,-14,-3,9,12
2,19,18,-11,-8,19,3,14,-14,-4,9,12
2,19,17,-11,-7,18,3,14,-14,-4,9,12
2,19,17,-11,-7,18,2,13,-14,-4,8,12
3,18,15,-10,-6,17,2,13,-15,-4,7,11
2,17,14,-9,-5,16,1,13,-15,-5,7,11
1,15,13,-8,-5,15,1,13,-16,-5,6,10
1,15,13,-8,-5,15,1,13,-16,-5,6,10
2,16,14,-9,-5,15,1,13,-16,-5,7,10
2,16,14,-9,-5,15,1,14,-16,-5,7,10
2,16,13,-9,-5,14,1,14,-16,-5,6,9
1,14,13,-8,-5,14,1,13,-17,-6,6,9
1,13,12,-7,-5,13,1,13,-17,-6,5,8
1,12,11,-6,-5,12,1,13,-17,-7,5,8
1,12,11,-6,-4,12,0,13,-17,-8,5,8
2,13,11,-7,-4,12,0,13,-17,-8,5,8
2,13,11,-8,-3,12,1,14,-17,-8,5,8
3,13,10,-8,-3,11,1,13,-17,-8,4,8
4,13,9,-8,-2,11,1,13,-18,-9,4,7
5,13,8,-9,-1,11,1,13,-18,-9,3,7
6,13,7,-9,0,11,1,13,-18,-10,2,6
6,12,6,-9,0,10,1,13,-18,-11,2,6
6,10,5,-8,0,9,0,13,-18,-11,1,6
5,8,4,-6,0,7,0,13,-19,-12,0,5
3,6,2,-4,0,4,-1,12,-20,-13,0,4
2,4,2,-3,0,3,-1,12,-21,-13,-1,4
2,3,1,-3,0,2,0,12,-21,-13,-1,4
2,3,0,-2,1,1,0,13,-21,-13,-1,4
3,2,0,-2,1,1,0,12,-21,-13,-1,3
5,3,-1,-4,3,1,0,13,-20,-13,-1,3
8,6,-2,-7,5,1,1,14,-19,-12,0,4
9,7,-3,-8,6,2,1,14,-19,-11,0,4
9,6,-3,-8,6,1,1,14,-19,-11,0,3
9,6,-3,-8,6,1,1,14,-19,-10,0,3
9,6,-4,-8,6,1,1,15,-18,-10,0,2
9,5,-4,-7,6,0,1,15,-18,-11,0,2
9,4,-5,-6,7,-1,1,15,-18,-12,0,2
8,2,-7,-5,7,-2,1,15,-19,-13,-1,2
8,0,-8,-4,8,-3,1,15,-19,-14,-1,2
8,0,-8,-4,8,-4,1,15,-19,-14,-2,2
8,0,-9,-4,9,-4,2,15,-19,-14,-2,2
8,-1,-9,-3,9,-5,2,15,-20,-15,-3,2
6,-3,-10,-1,8,-6,2,15,-20,-16,-3,1
6,-4,-11,0,8,-7,2,15,-20,-16,-4,1
6,-5,-12,0,9,-9,2,15,-20,-17,-4,1
5,-7,-13,1,9,-10,1,14,-20,-17,-4,0
4,-9,-14,2,9,-12,1,14,-20,-16,-4,0
4,-9,-14,2,9,-12,1,14,-20,-15,-3,0
5,-8,-14,1,9,-11,1,14,-20,-14,-3,0
7,-6,-14,-1,10,-10,1,15,-20,-14,-3,0
8,-5,-14,-2,11,-9,1,15,-19,-13,-2,0
7,-5,-13,-2,10,-9,2,16,-19,-13,-2,0
7,-4,-13,-2,10,-8,3,16,-18,-13,-2,0
8,-3,-12,-2,10,-8,4,17,-18,-12,-2,1
9,-2,-13,-3,10,-7,4,17,-18,-12,-2,1
9,-4,-13,-3,11,-8,4,17,-18,-12,-2,1
7,-6,-14,-1,10,-9,4,16,-19,-13,-2,1
5,-9,-14,1,9,-11,4,16,-20,-14,-2,0
3,-11,-15,4,9,-12,3,15,-21,-14,-2,0
3,-12,-15,4,9,-13,3,14,-22,-13,-2,-1
3,-11,-15,4,9,-13,3,14,-22,-11,-2,-2
2,-11,-14,4,8,-13,3,13,-22,-11,-2,-2
2,-10,-14,4,8,-12,3,13,-23,-13,-3,-2
3,-10,-14,3,8,-12,4,12,-23,-15,-3,-2
3,-10,-14,3,8,-11,4,12,-23,-16,-3,-1
4,-10,-14,3,8,-11,4,12,-23,-16,-3,-1
4,-11,-15,3,9,-12,4,12,-23,-15,-3,-1
4,-12,-15,4,9,-13,4,12,-24,-15,-3,-1
3,-12,-16,4,10,-14,4,13,-23,-15,-3,0
4,-11,-16,4,10,-14,5,14,-22,-14,-2,0
3,-11,-15,4,10,-13,4,14,-22,-14,-2,0
2,-11,-15,4,9,-13,3,13,-23,-13,-2,-2
1,-11,-14,5,7,-13,2,12,-24,-13,-2,-3
1,-10,-12,4,7,-11,2,12,-24,-12,-2,-4
2,-8,-11,3,6,-10,1,11,-25,-13,-3,-5
4,-7,-10,1,7,-9,1,11,-25,-13,-3,-5
5,-5,-10,0,8,-8,2,12,-25,-13,-3,-4
5,-5,-10,0,8,-7,2,12,-25,-13,-3,-3
4,-6,-10,1,7,-8,2,12,-24,-14,-3,-2
3,-8,-11,2,7,-9,2,12,-24,-14,-3,-2
3,-9,-13,3,7,-11,2,12,-24,-14,-3,-1
2,-11,-14,4,7,-12,3,12,-24,-14,-3,-1
2,-12,-14,5,7,-12,3,12,-23,-13,-2,0
2,-11,-13,4,7,-12,3,13,-23,-12,-2,0
2,-11,-13,4,8,-12,4,13,-22,-12,-1,1
2,-10,-13,4,8,-11,4,13,-22,-13,-1,1
1,-10,-12,4,7,-11,4,13,-23,-13,-1,2
0,-11,-12,5,7,-11,4,13,-23,-13,-1,2
0,-11,-12,5,6,-11,4,14,-22,-12,-1,3
1,-10,-12,4,7,-10,4,14,-22,-12,0,5
2,-10,-13,3,7,-11,4,15,-21,-12,0,6
2,-11,-14,4,8,-12,4,15,-21,-12,0,8
2,-11,-14,4,8,-13,4,16,-21,-11,1,9
1,-11,-13,4,7,-12,5,16,-20,-9,2,10
1,-11,-13,4,7,-12,5,17,-19,-7,3,10
2,-9,-12,3,7,-10,5,18,-18,-5,4,9
5,-5,-12,0,8,-8,6,19,-17,-3,4,8
8,-2,-11,-3,8,-5,6,20,-16,-2,5,7
10,0,-10,-5,9,-4,7,21,-15,-1,6,7
10,0,-9,-6,9,-4,6,22,-14,-1,6,7
9,0,-9,-5,9,-4,6,22,-14,-2,5,7
9,0,-8,-5,9,-4,6,22,-14,-2,5,7
8,0,-8,-5,9,-4,6,23,-13,-2,6,7
7,-1,-8,-3,8,-4,7,23,-13,-2,6,8
6,-3,-9,-2,7,-5,7,24,-13,-3,6,8
5,-4,-10,-1,7,-6,8,25,-12,-3,6,8
3,-5,-10,0,6,-7,8,25,-11,-2,7,8
3,-6,-10,1,6,-7,9,26,-10,-1,7,8
5,-5,-10,0,7,-7,9,27,-9,1,8,8
7,-3,-10,-2,8,-7,9,28,-9,2,9,8
8,-2,-9,-3,9,-6,9,28,-8,3,9,8
8,-1,-9,-4,9,-5,8,28,-8,3,9,8
8,0,-9,-4,9,-5,7,28,-9,2,8,7
9,0,-9,-5,9,-4,6,27,-9,1,8,7
10,2,-9,-6,9,-3,6,27,-10,1,8,7
10,3,-8,-7,9,-2,5,26,-10,2,8,8
10,3,-8,-7,9,-2,5,24,-11,2,8,8
10,2,-8,-6,9,-3,4,23,-12,1,7,8
10,0,-9,-5,10,-4,3,22,-13,0,7,8
10,0,-11,-5,11,-5,2,21,-13,-1,7,8
11,-1,-12,-5,12,-6,1,21,-13,-1,7,9
11,-2,-14,-4,13,-8,0,21,-13,-1,7,8
11,-3,-16,-4,13,-9,0,21,-14,-1,6,8
11,-3,-16,-4,13,-9,-2,21,-14,-1,6,8
12,-3,-16,-4,13,-9,-3,21,-15,-1,5,8
12,-3,-15,-4,13,-8,-3,21,-15,0,6,9
12,-1,-13,-5,13,-7,-3,21,-14,0,7,10
14,0,-13,-7,14,-7,-3,21,-14,0,7,12
14,0,-13,-7,14,-6,-3,20,-15,0,7,13
14,0,-14,-7,14,-7,-4,20,-16,-1,7,14
13,-1,-15,-6,14,-7,-5,20,-16,-2,7,16
11,-3,-15,-4,13,-8,-5,19,-16,-2,7,17
10,-4,-15,-3,12,-9,-5,19,-16,-2,7,19
11,-4,-16,-4,14,-10,-5,19,-16,-2,7,21
12,-4,-17,-4,15,-10,-5,18,-16,-2,7,23
12,-4,-18,-4,15,-11,-5,18,-16,-3,7,24
13,-4,-18,-4,16,-11,-5,18,-16,-3,7,26
14,-4,-18,-5,16,-10,-5,19,-16,-2,8,27
13,-4,-17,-4,15,-10,-4,19,-16,-1,8,28
12,-4,-16,-3,14,-10,-3,19,-16,0,8,28
11,-4,-15,-3,13,-9,-3,19,-16,1,8,29
11,-3,-15,-3,13,-9,-3,18,-17,1,7,29
11,-3,-14,-4,13,-8,-2,18,-17,-1,5,30
10,-3,-14,-3,12,-8,-2,18,-18,-3,4,31
8,-4,-13,-2,11,-8,-1,17,-19,-4,3,33
7,-5,-13,0,10,-9,-1,17,-19,-5,3,34
6,-6,-12,0,10,-9,0,17,-19,-5,2,35
6,-6,-12,0,10,-9,1,18,-19,-6,2,37
6,-7,-13,0,10,-9,2,18,-19,-6,2,40
5,-8,-13,1,9,-10,3,19,-18,-6,2,42
5,-9,-14,2,9,-11,3,20,-18,-7,2,44
5,-10,-15,2,10,-12,4,20,-18,-7,2,46
5,-11,-16,3,10,-13,4,20,-19,-7,2,46
4,-13,-17,4,11,-15,4,19,-19,-7,2,46
4,-14,-18,5,11,-16,4,19,-20,-7,1,46
3,-15,-18,5,10,-16,4,18,-20,-7,1,46
3,-15,-18,6,10,-16,3,18,-20,-7,0,45
3,-14,-18,5,10,-16,3,18,-21,-7,0,45
4,-13,-18,4,11,-15,3,18,-21,-7,0,45
5,-12,-18,3,11,-14,3,18,-21,-7,-1,45
5,-12,-18,3,11,-14,3,17,-21,-7,-1,44
5,-12,-18,3,11,-14,2,17,-21,-7,-1,44
6,-11,-17,2,11,-14,2,17,-21,-6,-1,44
6,-10,-17,1,11,-13,3,17,-21,-6,-1,44
6,-10,-17,1,11,-13,3,18,-21,-7,-2,44
4,-12,-17,3,11,-14,3,18,-21,-9,-2,44
2,-15,-17,5,10,-15,3,17,-22,-10,-3,44
0,-17,-17,8,9,-16,3,17,-22,-11,-3,44
-1,-18,-17,9,8,-17,3,17,-22,-10,-2,44
-2,-18,-16,10,7,-17,4,17,-21,-9,-2,44
-2,-18,-16,10,7,-16,4,17,-21,-9,-2,44
-1,-17,-16,8,8,-16,5,17,-21,-9,-2,43
0,-16,-17,7,8,-16,4,17,-22,-9,-3,42
0,-17,-17,8,8,-17,3,17,-22,-9,-3,41
0,-17,-17,8,8,-17,3,17,-22,-8,-3,40
0,-16,-17,8,8,-16,3,17,-23,-8,-3,39
0,-16,-17,8,8,-16,3,16,-23,-9,-4,38
0,-15,-16,7,8,-15,3,16,-23,-10,-4,37
0,-14,-16,7,8,-14,3,17,-23,-10,-3,36
1,-14,-16,6,9,-14,4,17,-23,-10,-4,35
2,-14,-17,6,9,-15,4,16,-23,-10,-4,34
2,-15,-18,7,10,-16,4,16,-23,-10,-4,33
1,-17,-19,7,10,-18,4,16,-23,-10,-4,32
0,-19,-19,9,10,-19,4,16,-23,-10,-4,31
-1,-20,-19,10,9,-19,4,16,-23,-10,-4,30
-1,-21,-19,10,9,-20,4,16,-23,-10,-4,30
0,-20,-20,9,10,-20,4,16,-23,-10,-4,29
1,-18,-21,8,11,-19,4,16,-23,-10,-4,29
2,-17,-20,7,11,-19,4,16,-23,-10,-4,28
1,-17,-19,7,10,-18,5,17,-23,-9,-4,28
0,-16,-18,7,9,-17,5,17,-23,-8,-4,27
2,-14,-17,6,10,-15,5,17,-23,-6,-3,27
3,-13,-17,5,10,-14,5,17,-23,-6,-3,27
3,-13,-16,5,9,-14,5,16,-23,-7,-3,27
2,-13,-16,5,9,-14,4,16,-24,-8,-4,27
2,-13,-16,5,8,-14,4,16,-24,-9,-4,27
2,-14,-16,6,8,-14,4,16,-24,-10,-4,28
1,-15,-17,6,9,-15,4,16,-24,-11,-5,28
1,-16,-18,7,9,-17,4,15,-24,-12,-5,28
1,-17,-18,8,9,-17,4,15,-24,-11,-5,29
1,-18,-19,8,10,-18,4,15,-24,-11,-4,30
2,-18,-21,8,11,-19,3,15,-24,-10,-4,30
4,-18,-23,7,13,-20,4,15,-24,-9,-4,31
4,-18,-23,6,13,-20,4,16,-24,-9,-3,31
4,-18,-23,7,13,-20,5,16,-24,-8,-3,31
2,-18,-21,7,11,-19,5,16,-24,-8,-3,31
0,-18,-19,8,9,-18,6,16,-23,-7,-3,31
0,-18,-17,8,8,-17,5,16,-23,-8,-3,30
0,-17,-17,8,7,-16,5,16,-23,-9,-3,29
-1,-18,-16,9,7,-16,5,16,-24,-10,-4,29
-3,-18,-15,10,6,-16,5,16,-24,-10,-4,28
-3,-18,-15,10,5,-16,5,16,-24,-9,-4,28
-3,-17,-15,10,6,-16,5,15,-24,-9,-4,27
-1,-16,-15,9,7,-16,5,15,-24,-9,-4,27
0,-16,-16,8,8,-16,5,15,-24,-9,-5,27
0,-16,-16,7,8,-16,5,15,-24,-9,-5,26
1,-16,-16,7,8,-16,5,15,-25,-9,-5,26
0,-16,-16,7,8,-16,5,15,-25,-9,-4,26
0,-16,-16,8,8,-16,5,15,-24,-9,-4,26
-1,-17,-17,9,8,-17,5,15,-24,-10,-4,25
-2,-19,-17,10,8,-18,5,15,-24,-10,-4,25
-2,-20,-18,11,7,-19,5,15,-24,-10,-4,25
-3,-20,-17,12,7,-19,5,16,-24,-10,-4,25
-2,-19,-17,11,7,-18,6,16,-24,-9,-4,25
-1,-18,-17,9,8,-17,6,16,-24,-10,-4,24
0,-16,-17,7,9,-16,6,16,-24,-10,-4,23
1,-16,-17,7,9,-16,6,15,-24,-10,-4,22
1,-15,-17,7,9,-16,5,15,-24,-8,-4,21
2,-14,-16,6,9,-15,5,16,-23,-6,-3,21
4,-11,-15,3,9,-13,6,16,-23,-5,-2,21
5,-10,-15,2,9,-12,6,16,-23,-6,-3,21
4,-11,-15,3,9,-12,6,16,-23,-8,-4,20
1,-13,-15,6,7,-13,5,16,-23,-8,-4,20
-1,-16,-15,8,7,-14,5,16,-23,-9,-4,20
-1,-17,-15,9,7,-15,5,16,-23,-9,-4,19
0,-16,-16,8,8,-15,6,16,-23,-9,-4,19
1,-16,-17,8,9,-16,6,16,-23,-9,-3,19
2,-16,-17,7,10,-16,6,16,-22,-7,-2,19
3,-15,-18,5,10,-16,6,17,-22,-6,-2,19
4,-14,-18,5,10,-15,6,17,-22,-5,-1,18
4,-13,-17,4,10,-15,6,17,-21,-5,-1,18
3,-13,-17,4,10,-14,6,17,-21,-6,-1,18
2,-14,-16,5,9,-14,6,17,-21,-7,-2,17
2,-14,-16,5,9,-14,6,16,-22,-8,-2,17
1,-15,-16,6,9,-15,6,16,-22,-9,-3,16
0,-16,-16,7,8,-16,6,16,-22,-8,-4,15
0,-17,-16,9,7,-17,6,17,-22,-7,-4,14
-1,-19,-16,10,7,-18,7,19,-21,-7,-5,12
0,-19,-18,9,8,-18,8,21,-19,-6,-6,11
1,-18,-19,8,9,-18,9,24,-16,-5,-5,11
3,-17,-20,6,11,-18,11,27,-13,-4,-5,11
5,-17,-22,5,13,-19,12,31,-9,-1,-3,11
7,-17,-24,5,15,-20,12,36,-3,3,0,12
8,-19,-27,6,17,-22,11,42,3,8,4,15
10,-20,-30,5,19,-24,10,48,10,14,10,19
13,-19,-32,2,22,-25,9,54,18,21,19,25
16,-17,-33,0,24,-25,8,60,28,30,29,32
22,-13,-35,-5,28,-24,7,67,38,42,42,41
29,-6,-35,-12,32,-21,5,71,49,55,59,53
36,2,-34,-20,34,-16,2,72,57,70,77,66
41,10,-31,-26,36,-10,-1,69,62,83,96,79
45,18,-27,-32,36,-4,-6,63,64,95,115,92
49,26,-22,-37,36,2,-11,53,62,106,133,103
52,35,-17,-43,35,9,-14,45,61,115,150,114
52,42,-10,-47,32,16,-16,38,59,121,161,123
49,47,-1,-48,25,23,-15,30,53,118,163,128
42,50,8,-46,17,29,-13,18,39,106,152,124
34,51,17,-43,8,34,-11,2,17,87,131,113
23,50,27,-37,-2,38,-9,-17,-12,61,103,96
10,49,39,-30,-14,44,-6,-39,-44,33,71,76
-4,49,52,-22,-28,51,-3,-60,-75,7,42,56
-15,50,64,-17,-39,57,0,-74,-96,-11,21,40
-22,52,74,-15,-48,63,2,-83,-109,-23,7,28
-27,55,82,-14,-54,69,4,-88,-116,-29,-1,20
-30,57,89,-14,-59,73,4,-91,-119,-33,-7,14
-32,58,93,-13,-62,76,4,-92,-120,-35,-10,11
-32,59,93,-13,-62,76,4,-91,-119,-36,-12,8
-32,58,90,-13,-61,74,4,-87,-116,-37,-14,6
-33,54,87,-11,-60,71,3,-83,-112,-39,-16,3
-33,49,82,-8,-58,66,2,-80,-110,-41,-19,1
-33,44,76,-6,-55,61,0,-77,-107,-43,-21,-1
-31,40,71,-4,-51,56,-2,-73,-104,-44,-22,-2
-29,35,66,-3,-48,51,-3,-68,-99,-44,-22,-2
-28,31,61,-2,-45,46,-5,-64,-95,-43,-23,-3
-27,28,56,-1,-42,43,-6,-59,-91,-42,-23,-3
-25,26,52,0,-39,39,-6,-54,-87,-40,-22,-4
-25,23,47,1,-36,36,-7,-50,-83,-37,-22,-4
-24,21,43,2,-34,33,-7,-46,-80,-35,-22,-5
-21,19,40,1,-30,30,-8,-42,-76,-34,-21,-5
-19,16,36,1,-27,27,-8,-38,-72,-32,-20,-5
-17,13,32,2,-24,23,-7,-34,-68,-31,-19,-4
-15,11,28,1,-21,20,-6,-30,-65,-29,-18,-4
-13,9,24,1,-18,17,-5,-26,-61,-29,-18,-4
-13,6,20,3,-16,13,-4,-23,-58,-28,-18,-4
-14,4,17,4,-15,11,-2,-19,-55,-26,-17,-4
-12,2,14,5,-13,9,-1,-16,-52,-24,-16,-3
-10,0,10,5,-10,6,0,-14,-49,-21,-15,-3
-8,-2,6,5,-8,3,0,-12,-47,-20,-14,-2
-7,-4,3,5,-6,0,0,-10,-45,-19,-13,-2
-7,-6,1,6,-4,-2,0,-8,-43,-19,-13,-1
-6,-7,0,6,-3,-3,0,-6,-41,-19,-13,-1
-7,-8,0,7,-4,-4,1,-4,-40,-18,-12,0
-8,-9,0,8,-4,-4,1,-4,-39,-18,-12,0
-8,-9,0,8,-4,-4,1,-4,-39,-18,-13,-1
-8,-9,-1,8,-3,-4,1,-3,-39,-17,-12,0
-7,-9,-1,8,-3,-4,2,-3,-38,-16,-11,0
-7,-9,-2,8,-2,-5,2,-3,-38,-15,-11,0
-6,-10,-3,8,-1,-6,2,-3,-37,-15,-10,0
-6,-11,-4,8,-1,-7,2,-2,-36,-14,-10,0
-5,-10,-3,7,-1,-6,2,-1,-35,-12,-9,0
-5,-7,-2,6,-2,-4,3,0,-35,-11,-9,0
-5,-5,0,5,-3,-2,3,0,-35,-11,-9,0
-5,-4,1,5,-3,-1,3,0,-35,-12,-9,0
-5,-3,1,4,-3,0,2,-1,-36,-12,-10,-1
-5,-3,2,4,-3,0,2,-1,-36,-12,-10,-2
-5,-3,3,4,-4,0,2,-1,-36,-11,-10,-2
-6,-3,3,4,-4,0,3,-1,-35,-11,-10,-1
-6,-3,4,4,-5,0,3,0,-35,-10,-9,-1
-6,-3,4,4,-5,1,3,0,-35,-10,-9,0
-6,-3,4,4,-4,1,3,0,-35,-10,-9,0
-6,-3,4,4,-4,1,3,0,-35,-10,-8,0
-6,-2,5,4,-5,2,3,0,-35,-9,-8,0
-6,-1,6,4,-5,3,3,0,-35,-8,-8,0
-6,-1,6,3,-6,3,3,-1,-36,-8,-8,0
-6,0,6,3,-6,3,3,-1,-36,-8,-8,0
-6,-1,6,3,-6,3,3,-2,-37,-8,-8,-1
-8,-2,6,4,-6,2,3,-2,-37,-7,-8,-2
-9,-2,6,5,-7,2,3,-2,-37,-7,-8,-2
-10,-3,6,6,-7,2,2,-2,-37,-7,-8,-3
-10,-4,6,7,-8,2,2,-3,-38,-7,-9,-3
-10,-3,7,6,-8,2,2,-3,-39,-7,-9,-3
-9,-1,8,5,-8,4,3,-4,-39,-6,-8,-3
-8,0,8,4,-8,5,3,-4,-39,-5,-8,-3
-8,1,9,3,-8,5,3,-4,-39,-6,-8,-3
-7,2,10,2,-9,6,3,-4,-39,-6,-8,-3
-8,2,11,2,-10,7,3,-3,-39,-5,-8,-3
-8,3,12,2,-10,8,3,-3,-39,-5,-8,-4
-7,5,13,1,-10,9,3,-3,-38,-4,-8,-4
-7,6,13,0,-10,9,3,-3,-38,-4,-8,-4
-9,5,13,2,-11,9,3,-3,-38,-4,-7,-4
-10,4,14,3,-12,9,3,-4,-38,-4,-7,-4
-11,5,15,3,-13,10,3,-4,-39,-5,-7,-5
-11,6,16,3,-14,11,3,-4,-39,-6,-7,-5
-11,6,18,2,-14,12,3,-4,-38,-6,-7,-5
-11,7,18,2,-14,13,3,-4,-38,-5,-6,-5
-10,7,18,2,-14,13,2,-4,-38,-4,-6,-5
-10,7,17,1,-13,13,2,-5,-38,-3,-6,-5
-10,7,18,1,-14,13,2,-5,-39,-4,-6,-6
-10,9,20,0,-15,15,3,-5,-39,-4,-6,-6
-10,10,21,0,-16,16,3,-5,-38,-3,-5,-6
-9,11,21,-1,-15,16,3,-5,-38,-3,-5,-6
-8,12,21,-2,-15,17,3,-5,-38,-2,-4,-6
-8,13,21,-3,-14,17,3,-5,-38,-2,-4,-6
-7,13,21,-3,-14,18,3,-5,-38,-3,-4,-6
-8,14,22,-3,-15,18,4,-5,-37,-3,-4,-6
-9,14,23,-2,-16,19,4,-5,-37,-3,-3,-5
-10,13,23,-2,-16,19,4,-4,-37,-3,-2,-4
-10,12,22,-1,-16,17,4,-5,-37,-3,-2,-5
-10,11,21,0,-15,16,3,-5,-36,-4,-2,-5
-10,10,20,0,-15,15,3,-4,-36,-4,-1,-4
-10,10,20,0,-15,15,3,-4,-35,-3,-1,-4
-10,10,21,0,-15,16,3,-4,-35,-1,0,-4
-10,11,21,0,-15,17,3,-4,-34,0,0,-4
-9,12,22,-1,-15,17,3,-5,-34,-1,0,-4
-9,13,22,-1,-15,17,2,-5,-35,-1,0,-4
-8,13,22,-2,-15,17,2,-5,-35,0,0,-4
-8,13,22,-2,-15,17,2,-5,-34,1,1,-4
-9,13,22,-2,-16,17,2,-5,-33,2,1,-4
-10,13,23,-1,-16,18,2,-5,-34,1,0,-5
-9,14,24,-2,-16,19,2,-5,-34,0,0,-5
-9,16,25,-3,-16,21,3,-5,-33,-1,0,-5
-10,16,25,-3,-17,21,3,-5,-33,-1,0,-5
-9,17,26,-4,-17,21,2,-4,-32,0,0,-4
-8,17,25,-5,-16,21,2,-3,-31,1,1,-3
-7,17,25,-5,-15,21,2,-3,-31,1,2,-3
-8,16,24,-4,-16,21,1,-3,-31,1,3,-2
-8,15,23,-4,-15,20,1,-3,-30,1,3,-2
-7,15,22,-4,-14,19,0,-2,-29,2,3,-1
-7,15,21,-4,-14,19,0,-1,-28,3,4,0
-7,15,21,-3,-14,18,0,0,-27,4,4,0
-4,16,20,-6,-12,19,1,0,-27,4,5,1
-1,19,20,-9,-10,20,1,1,-26,5,6,2
0,19,19,-10,-9,20,1,1,-26,4,6,2
0,19,19,-10,-9,19,1,1,-26,4,6,2
0,19,19,-10,-9,19,1,1,-25,4,6,2
-1,18,20,-9,-10,20,1,1,-25,5,6,2
-2,18,19,-8,-10,19,1,1,-25,5,6,2
-2,18,19,-8,-10,19,0,1,-25,4,5,1
-2,18,19,-7,-10,18,0,1,-25,4,5,1
-1,17,18,-7,-9,18,0,1,-25,3,5,1
0,17,17,-9,-8,18,0,1,-25,3,5,1
1,18,17,-9,-7,18,0,1,-25,3,4,2
0,17,18,-9,-8,18,0,1,-25,1,4,2
0,17,18,-9,-8,18,0,2,-25,0,3,2
0,16,16,-9,-7,17,1,3,-24,1,3,3
0,16,15,-8,-7,16,1,3,-24,1,3,3
0,15,14,-8,-7,15,0,3,-23,2,3,3
0,14,13,-7,-7,14,0,3,-23,3,3,3
0,13,13,-6,-6,13,0,3,-23,3,3,3
1,12,13,-6,-6,13,-1,2,-24,2,3,3
1,11,12,-6,-6,12,-1,2,-25,0,2,3
0,11,12,-5,-6,11,-1,1,-26,-1,1,3
0,10,11,-5,-5,11,-2,1,-26,-1,1,2
0,9,9,-4,-5,10,-2,0,-26,-1,0,2
0,8,9,-3,-5,9,-3,0,-27,-2,0,1
-1,8,8,-3,-5,8,-2,0,-27,-3,0,0
-1,6,8,-2,-5,7,-2,0,-27,-4,-1,0
-1,5,7,-1,-4,6,-2,1,-27,-4,-2,0
1,6,6,-3,-2,6,-2,1,-26,-4,-1,0
3,7,4,-4,0,6,-1,2,-26,-3,0,0
4,6,3,-5,1,5,-1,2,-26,-2,0,0
5,6,1,-5,2,4,-1,2,-26,-3,0,0
5,6,0,-5,2,3,-1,2,-26,-5,-1,0
4,4,0,-4,2,2,-2,2,-26,-6,-2,0
4,3,0,-4,2,2,-2,2,-25,-5,-2,0
4,4,0,-4,2,2,-2,2,-25,-4,-2,0
4,4,0,-4,2,3,-2,2,-25,-3,-2,0
4,4,0,-4,2,2,-2,2,-25,-3,-3,-1
4,3,0,-4,2,2,-2,2,-26,-5,-5,-2
4,3,0,-3,3,1,-2,2,-26,-8,-6,-3
3,2,-1,-3,3,0,-1,2,-26,-9,-7,-3
3,1,-2,-3,3,0,-1,3,-25,-9,-7,-2
4,0,-3,-3,4,-2,-2,4,-24,-8,-6,-1
4,-1,-5,-2,5,-3,-2,4,-24,-7,-6,-1
3,-3,-6,0,5,-5,-2,4,-23,-7,-5,0
3,-5,-8,0,6,-7,-1,4,-23,-8,-5,0
3,-6,-10,1,6,-8,0,4,-23,-8,-5,0
4,-7,-11,1,7,-9,-1,4,-23,-7,-4,0
6,-5,-12,0,9,-9,0,5,-22,-5,-2,1
9,-3,-12,-3,10,-7,0,6,-21,-3,-1,1
9,-2,-11,-4,10,-6,-1,6,-21,-2,-1,1
8,-2,-11,-3,9,-6,-1,6,-21,-3,-2,0
6,-4,-11,-1,9,-7,-1,6,-22,-5,-3,0
6,-4,-11,-1,9,-7,-1,6,-22,-7,-5,-1
6,-5,-11,0,9,-8,-1,5,-23,-7,-6,-2
6,-6,-12,0,9,-9,0,5,-23,-7,-6,-2
7,-5,-12,0,9,-9,0,6,-22,-6,-6,-2
7,-5,-12,-1,9,-9,1,6,-22,-5,-6,-2
6,-5,-12,0,9,-9,1,6,-22,-5,-6,-2
6,-5,-12,0,8,-9,1,6,-21,-5,-6,-1
5,-6,-12,0,8,-9,1,6,-21,-5,-6,-1
5,-7,-13,0,9,-10,1,6,-21,-5,-6,-1
6,-8,-14,1,10,-10,1,6,-21,-5,-6,-1
5,-8,-13,1,9,-11,1,5,-21,-5,-5,-1
4,-9,-13,2,9,-11,1,5,-22,-7,-6,-2
4,-9,-13,2,8,-11,1,4,-22,-8,-6,-2
4,-9,-13,2,8,-11,1,4,-22,-7,-6,-2
3,-9,-13,3,8,-11,2,5,-22,-6,-6,-2
3,-10,-13,3,8,-11,2,5,-22,-5,-6,-2
3,-9,-12,2,7,-10,2,5,-22,-4,-6,-3
2,-7,-10,2,6,-8,2,5,-21,-3,-5,-3
2,-7,-9,2,5,-8,2,5,-21,-4,-5,-3
2,-6,-9,2,5,-8,1,5,-22,-5,-6,-4
3,-6,-10,1,6,-9,1,4,-23,-6,-6,-4
3,-7,-11,1,7,-9,1,4,-22,-6,-6,-3
3,-8,-12,2,7,-10,1,4,-22,-5,-6,-3
2,-11,-13,4,7,-12,1,3,-23,-6,-6,-3
0,-13,-14,6,7,-13,1,3,-23,-8,-7,-3
0,-13,-14,6,7,-13,1,3,-23,-9,-7,-2
1,-12,-14,5,8,-13,2,3,-23,-8,-6,-2
2,-11,-13,5,8,-12,3,4,-22,-7,-6,-1
2,-10,-13,4,7,-12,3,4,-23,-7,-6,-2
2,-9,-12,3,6,-11,2,3,-24,-6,-6,-2
3,-7,-12,2,7,-10,2,3,-24,-5,-6,-3
4,-6,-11,1,7,-9,2,3,-24,-4,-5,-3
4,-6,-10,0,6,-7,2,3,-24,-4,-5,-3
4,-6,-9,1,6,-7,2,3,-24,-5,-4,-3
3,-7,-9,2,6,-8,1,3,-24,-6,-4,-3
2,-9,-10,4,5,-9,1,3,-24,-6,-4,-3
1,-10,-10,5,5,-9,1,3,-24,-6,-4,-2
0,-10,-11,5,5,-10,1,3,-24,-6,-4,-2
0,-10,-11,5,5,-11,1,4,-24,-6,-4,-2
1,-10,-12,4,6,-11,2,4,-23,-6,-4,-2
2,-9,-12,3,6,-11,2,5,-23,-6,-4,-2
3,-10,-12,3,7,-11,2,5,-22,-5,-4,-2
3,-10,-12,3,7,-11,2,6,-22,-3,-3,-2
3,-10,-13,3,8,-11,2,6,-21,-2,-3,-2
3,-11,-13,4,8,-12,2,6,-21,-2,-3,-2
2,-11,-13,4,7,-12,2,6,-21,-2,-3,-2
1,-11,-12,5,6,-12,2,6,-21,-2,-3,-2
1,-10,-12,4,6,-11,2,6,-21,-2,-3,-2
2,-9,-12,3,6,-11,2,6,-20,-1,-2,-1
3,-9,-11,3,6,-10,2,7,-19,0,-1,0
3,-8,-11,2,6,-9,2,8,-18,1,0,0
4,-7,-10,1,6,-8,3,9,-17,3,1,0
4,-5,-10,0,7,-7,4,10,-16,4,1,1
5,-4,-10,0,7,-7,4,11,-15,5,1,2
6,-3,-10,-1,8,-7,4,12,-15,5,2,2
7,-3,-10,-2,8,-7,4,13,-14,6,2,3
7,-3,-10,-3,9,-7,4,14,-13,7,3,3
8,-3,-11,-3,9,-7,4,14,-12,9,3,3
9,-2,-11,-4,10,-7,4,15,-11,10,4,3
10,-1,-11,-4,11,-6,4,15,-10,11,4,3
8,-1,-10,-3,9,-5,5,16,-10,12,4,2
7,-1,-8,-3,8,-4,5,16,-9,12,4,2
6,0,-7,-3,7,-3,6,17,-9,12,4,1
6,0,-6,-3,6,-2,6,17,-8,13,4,1
6,1,-4,-3,5,-2,6,18,-8,14,5,1
5,0,-4,-2,4,-2,6,18,-7,15,5,2
6,0,-5,-3,5,-2,6,18,-6,16,6,2
8,0,-7,-4,7,-3,7,19,-6,15,6,3
9,0,-8,-4,8,-3,7,20,-6,14,6,3
9,1,-8,-5,8,-3,6,20,-5,14,7,4
9,2,-7,-5,8,-2,6,21,-5,15,8,4
10,2,-8,-6,9,-2,5,20,-5,14,8,4
12,3,-9,-7,11,-3,4,18,-6,14,7,4
12,2,-9,-7,11,-3,3,16,-7,13,6,3
11,1,-9,-6,10,-4,2,14,-8,11,5,3
8,-1,-8,-3,8,-4,2,13,-9,10,5,3
6,-2,-8,-2,7,-4,1,13,-9,10,5,3
6,-3,-9,-1,8,-5,0,13,-9,11,6,2
6,-4,-10,-1,8,-6,0,13,-9,12,6,2
6,-4,-11,0,8,-7,-1,13,-9,12,6,2
6,-4,-11,-1,9,-7,-1,13,-9,11,6,1
7,-4,-11,-2,9,-7,-2,13,-10,10,6,1
9,-2,-10,-3,9,-6,-2,13,-10,9,5,0
11,0,-11,-5,11,-6,-3,12,-11,9,4,0
13,0,-12,-6,12,-6,-4,12,-11,10,4,0
13,0,-13,-7,13,-6,-5,11,-11,11,4,0
13,1,-13,-7,13,-5,-6,11,-11,12,4,0
14,2,-13,-8,13,-5,-6,11,-11,11,5,0
13,1,-13,-8,13,-5,-6,10,-11,10,5,0
11,-1,-12,-5,12,-7,-6,9,-12,8,4,0
9,-3,-12,-3,11,-8,-6,9,-12,7,4,1
9,-3,-12,-3,11,-8,-6,9,-12,8,5,2
10,-4,-13,-3,11,-8,-6,9,-11,9,6,2
11,-3,-14,-4,12,-8,-6,9,-12,10,6,3
13,-1,-15,-5,13,-7,-6,9,-12,9,6,3
15,0,-15,-7,15,-7,-5,9,-12,7,5,3
15,0,-16,-7,16,-7,-5,10,-12,5,5,3
14,-1,-15,-6,15,-8,-4,10,-12,4,4,3
12,-2,-14,-5,14,-8,-4,10,-12,4,3,2
10,-2,-13,-4,12,-8,-3,10,-12,4,3,2
9,-4,-13,-2,12,-8,-3,10,-12,4,3,2
8,-5,-14,-1,11,-9,-3,9,-12,5,2,2
7,-5,-13,0,10,-9,-2,9,-12,6,3,2
5,-7,-13,1,9,-10,-2,9,-12,7,3,2
4,-8,-13,2,9,-10,-2,9,-13,7,2,1
4,-8,-13,2,8,-11,-1,9,-13,6,2,0
3,-9,-12,2,8,-11,-1,9,-13,5,1,0
5,-8,-12,1,9,-10,0,9,-13,5,1,-1
6,-7,-13,0,10,-9,1,10,-12,6,2,-1
6,-7,-13,0,10,-9,1,10,-12,5,1,-1
5,-8,-13,1,9,-10,2,10,-13,3,0,-3
3,-10,-13,4,9,-12,2,9,-14,1,-1,-3
1,-12,-14,6,8,-13,3,9,-15,1,-2,-3
1,-13,-15,6,8,-14,3,9,-14,2,-1,-3
2,-13,-16,5,10,-14,2,9,-13,3,-1,-3
4,-14,-17,4,11,-15,2,9,-13,3,-1,-3
4,-15,-17,5,11,-15,2,9,-13,1,-2,-4
4,-15,-17,5,10,-15,2,8,-14,0,-3,-4
4,-14,-17,5,10,-15,2,8,-14,0,-4,-5
3,-13,-16,5,9,-14,2,9,-14,0,-4,-5
3,-13,-16,5,9,-14,2,9,-14,0,-5,-5
2,-14,-16,6,9,-15,2,9,-15,-1,-6,-6
2,-15,-17,7,9,-16,1,8,-15,-1,-6,-7
1,-16,-17,7,9,-17,0,7,-15,0,-6,-7
1,-16,-17,7,9,-16,0,7,-15,-1,-6,-8
1,-16,-17,7,9,-16,0,7,-15,-2,-6,-8
1,-15,-16,7,8,-15,0,7,-15,-1,-6,-8
2,-13,-16,6,9,-14,1,8,-15,0,-5,-7
4,-12,-16,4,10,-14,1,8,-15,1,-4,-7
5,-12,-17,4,12,-15,0,8,-16,0,-5,-8
6,-13,-18,4,13,-16,0,7,-16,0,-5,-9
6,-14,-18,4,12,-17,1,8,-15,0,-4,-9
4,-14,-17,4,10,-16,2,9,-15,1,-3,-8
2,-15,-17,6,9,-16,2,8,-15,1,-3,-9
1,-16,-17,7,8,-16,2,7,-15,1,-4,-10
0,-16,-17,8,8,-17,2,6,-16,0,-5,-11
0,-17,-17,9,8,-17,1,6,-17,-1,-6,-11
-1,-18,-18,10,8,-18,1,6,-17,-2,-6,-11
-1,-19,-17,11,8,-18,2,6,-17,-2,-6,-11
-1,-18,-16,10,8,-18,2,7,-16,-2,-7,-11
0,-18,-16,9,8,-18,2,7,-16,-2,-7,-11
0,-17,-17,8,9,-18,1,7,-16,-1,-6,-11
0,-17,-16,8,8,-17,1,7,-16,-1,-6,-12
0,-16,-16,8,8,-16,1,7,-16,-2,-7,-12
1,-15,-16,7,9,-15,2,7,-16,-2,-7,-12
2,-14,-16,6,9,-15,2,8,-16,-2,-6,-12
2,-14,-16,6,9,-15,2,7,-16,-2,-6,-12
3,-15,-17,6,10,-16,1,7,-16,-2,-6,-12
2,-16,-18,6,10,-16,1,6,-16,-1,-6,-12
0,-16,-17,7,8,-16,0,6,-16,-1,-7,-13
-2,-17,-16,9,6,-16,0,6,-16,-1,-7,-13
-4,-17,-14,10,4,-15,0,6,-17,-1,-8,-14
-3,-16,-13,10,4,-15,0,6,-17,-1,-8,-15
-1,-14,-13,8,6,-14,1,6,-17,-1,-8,-14
0,-13,-13,7,7,-13,2,6,-17,-1,-7,-14
0,-13,-13,6,7,-13,3,6,-16,-1,-7,-13
0,-14,-13,7,7,-13,3,6,-16,-1,-7,-13
0,-15,-15,7,7,-14,4,7,-15,-1,-7,-13
0,-16,-16,8,8,-16,4,7,-15,-1,-7,-13
0,-17,-18,8,9,-17,4,7,-15,-1,-7,-13
0,-18,-19,9,10,-18,4,7,-16,-2,-7,-13
0,-19,-20,10,10,-19,3,7,-16,-2,-7,-13
0,-19,-19,10,10,-20,2,6,-16,-2,-7,-13
-1,-20,-19,10,9,-19,2,6,-16,-2,-7,-13
-1,-19,-18,10,9,-19,2,6,-16,-2,-7,-13
-1,-19,-18,10,8,-18,2,6,-16,-2,-7,-12
-1,-18,-17,10,8,-17,2,6,-16,-2,-7,-12
0,-18,-17,10,8,-17,2,6,-16,-2,-7,-12
0,-17,-17,9,8,-17,2,6,-16,-2,-7,-11
1,-16,-17,8,8,-17,2,6,-16,-2,-7,-11
0,-16,-16,8,7,-16,2,6,-16,-2,-7,-12
-1,-15,-15,8,6,-15,2,6,-16,-2,-8,-12
-1,-15,-14,8,6,-15,2,6,-16,-2,-8,-13
0,-15,-15,8,7,-15,2,6,-16,-3,-8,-13
0,-15,-16,7,8,-15,2,6,-17,-5,-9,-14
2,-15,-17,7,9,-16,3,6,-17,-5,-9,-14
2,-16,-18,7,9,-16,4,6,-16,-4,-9,-13
1,-17,-18,8,9,-17,4,6,-16,-3,-8,-13
1,-17,-19,8,10,-18,4,6,-16,-2,-8,-13
1,-18,-19,9,10,-18,4,6,-16,-1,-8,-12
0,-18,-18,9,9,-18,4,7,-15,-1,-8,-12
-1,-19,-17,10,8,-18,5,7,-15,-1,-7,-12
-1,-18,-17,10,8,-18,5,7,-15,-1,-7,-12
-1,-17,-16,9,7,-17,5,7,-15,-1,-6,-12
-1,-16,-15,9,6,-15,4,8,-15,0,-6,-12
-2,-16,-14,9,5,-14,3,8,-15,0,-6,-13
-3,-16,-13,10,5,-14,2,7,-15,0,-7,-13
-3,-17,-14,10,5,-15,1,7,-16,-1,-8,-14
-2,-18,-15,10,6,-16,1,6,-16,-2,-8,-14
-3,-18,-15,10,6,-17,2,6,-16,-3,-8,-14
-4,-19,-15,12,5,-17,2,6,-16,-4,-8,-13
-5,-20,-15,13,5,-18,2,6,-16,-4,-8,-13
-3,-18,-16,11,6,-17,2,7,-16,-3,-7,-12
0,-16,-16,9,7,-16,3,7,-15,-3,-7,-11
1,-16,-16,8,8,-16,4,7,-14,-2,-6,-11
1,-16,-16,8,8,-16,4,7,-14,-2,-6,-11
1,-16,-16,8,8,-16,4,7,-14,-2,-6,-11
1,-16,-17,7,8,-16,5,7,-14,-2,-6,-11
1,-16,-17,7,9,-16,5,7,-14,-2,-6,-12
1,-16,-18,8,9,-17,5,7,-14,-2,-6,-12
0,-18,-18,9,9,-18,5,7,-14,-2,-7,-12
0,-19,-18,10,9,-19,5,8,-13,-2,-8,-14
-1,-20,-19,11,9,-20,6,10,-12,-2,-9,-15
-1,-21,-19,11,9,-20,6,13,-10,-1,-10,-17
0,-20,-20,11,9,-20,7,15,-8,0,-10,-17
0,-20,-20,10,10,-21,7,17,-6,2,-10,-17
1,-20,-22,10,11,-21,7,20,-3,4,-9,-17
4,-21,-25,9,14,-23,8,25,2,7,-6,-15
7,-21,-28,8,17,-24,8,31,9,13,-1,-12
10,-20,-30,6,19,-24,8,37,17,21,6,-8
12,-18,-30,3,21,-24,8,44,26,30,15,-3
15,-16,-30,1,22,-23,7,50,36,39,26,4
19,-13,-31,-3,24,-22,6,56,46,50,39,13
24,-7,-31,-8,27,-19,3,61,55,62,56,25
29,-1,-29,-14,28,-15,0,62,63,76,75,39
34,6,-28,-20,30,-11,-3,60,68,89,95,52
40,13,-27,-26,32,-7,-8,54,70,100,114,65
43,19,-24,-31,33,-1,-12,45,68,110,133,77
45,27,-17,-36,31,6,-15,36,66,119,151,89
45,36,-9,-40,27,14,-16,29,64,127,165,99
44,42,0,-43,22,21,-15,22,58,128,169,103
39,46,8,-42,15,27,-14,11,45,119,160,100
30,47,18,-38,6,32,-13,-4,24,99,138,90
18,46,28,-32,-4,36,-11,-22,-3,72,108,72
5,45,39,-25,-16,42,-9,-43,-35,42,73,51
-7,45,51,-19,-29,48,-6,-64,-66,12,40,30
-16,47,63,-15,-39,55,-3,-80,-88,-11,15,13
-22,49,72,-14,-47,61,-1,-89,-102,-24,-1,1
-26,52,80,-13,-53,67,0,-94,-109,-31,-11,-7
-30,55,87,-12,-58,71,0,-97,-113,-35,-17,-12
-33,57,92,-11,-63,75,0,-99,-115,-37,-20,-15
-35,57,93,-10,-65,75,1,-98,-114,-37,-22,-18
-36,56,91,-9,-65,73,1,-94,-111,-37,-24,-21
-37,52,87,-7,-63,70,0,-91,-107,-37,-25,-23
-36,49,83,-6,-60,66,0,-87,-103,-39,-27,-25
-35,45,79,-4,-57,62,-2,-84,-100,-41,-29,-27
-34,40,74,-2,-54,58,-4,-81,-97,-41,-30,-28
-33,35,69,0,-50,52,-6,-77,-94,-42,-30,-29
-31,31,63,0,-47,47,-8,-73,-90,-41,-30,-29
-29,28,57,1,-43,43,-9,-68,-86,-39,-30,-29
-27,26,53,1,-41,40,-9,-63,-81,-37,-29,-29
-25,25,48,0,-38,37,-9,-58,-76,-35,-28,-29
-23,23,45,0,-35,34,-9,-53,-72,-34,-27,-29
-23,20,42,1,-33,31,-9,-49,-68,-33,-27,-29
-21,17,38,2,-30,28,-9,-46,-64,-31,-26,-28
-19,13,33,3,-27,24,-8,-42,-61,-29,-25,-28
-18,10,29,3,-24,20,-8,-39,-58,-28,-24,-27
-17,8,25,4,-21,16,-7,-36,-55,-27,-24,-27
-16,6,21,5,-19,13,-6,-32,-52,-25,-23,-26
-14,4,17,5,-16,11,-5,-28,-48,-23,-22,-26
-13,3,13,5,-14,9,-4,-24,-44,-20,-21,-25
-12,0,10,6,-11,5,-4,-22,-41,-18,-20,-25
-11,-4,6,8,-9,2,-3,-20,-39,-17,-19,-24
-11,-7,4,9,-8,-1,-3,-18,-37,-16,-19,-23
-10,-9,2,9,-6,-4,-2,-16,-36,-15,-18,-23
-10,-10,0,9,-5,-5,-2,-14,-34,-14,-17,-23
-10,-10,0,9,-5,-5,-1,-13,-33,-13,-16,-22
-10,-9,0,9,-5,-5,-1,-12,-32,-12,-16,-22
-9,-9,0,9,-5,-5,-1,-11,-31,-10,-16,-22
-8,-8,0,8,-4,-4,-1,-11,-30,-11,-16,-22
-8,-9,-1,8,-4,-4,-2,-11,-31,-13,-17,-23
-8,-10,-1,9,-4,-5,-2,-11,-31,-13,-17,-23
-8,-10,-1,9,-3,-5,-2,-10,-30,-11,-15,-22
-6,-8,-1,7,-3,-4,-1,-9,-29,-10,-13,-21
-6,-7,0,7,-3,-3,-1,-9,-29,-11,-12,-20
-7,-7,0,7,-4,-4,-1,-8,-29,-11,-12,-20
-8,-8,0,8,-5,-4,0,-8,-29,-11,-13,-20
-8,-8,0,9,-4,-4,0,-8,-28,-11,-13,-20
-8,-9,0,9,-4,-4,1,-8,-28,-10,-13,-20
-9,-10,0,10,-5,-4,2,-8,-27,-10,-13,-20
-10,-11,0,11,-5,-5,1,-8,-28,-10,-13,-21
-11,-11,0,11,-5,-5,1,-9,-29,-11,-13,-21
-11,-11,0,11,-6,-5,0,-9,-29,-11,-13,-22
-12,-10,1,11,-7,-5,0,-9,-29,-10,-13,-22
-12,-8,2,11,-7,-3,0,-9,-29,-9,-13,-21
-10,-6,3,9,-7,-1,0,-8,-28,-8,-12,-21
-9,-4,4,7,-7,0,1,-8,-28,-7,-12,-21
-8,-3,5,6,-8,1,1,-8,-27,-7,-12,-21
-8,-2,6,6,-8,2,1,-8,-27,-6,-11,-21
-8,-2,6,5,-8,2,1,-8,-27,-6,-11,-20
-7,-2,5,5,-6,1,1,-8,-28,-7,-12,-20
-7,-2,5,5,-6,1,1,-8,-28,-8,-12,-21
-8,-3,5,5,-7,1,1,-8,-29,-9,-13,-21
-9,-3,5,6,-8,1,1,-9,-29,-9,-13,-21
-10,-4,5,7,-8,1,1,-10,-29,-10,-14,-22
-10,-4,6,7,-9,1,1,-10,-29,-10,-14,-22
-11,-4,7,7,-9,2,0,-11,-30,-9,-14,-23
-11,-4,8,7,-10,2,0,-11,-30,-8,-14,-24
-12,-3,9,7,-10,3,0,-12,-30,-7,-14,-25
-12,-2,11,7,-11,4,0,-11,-30,-6,-13,-25
-12,0,12,6,-12,6,0,-11,-30,-4,-12,-25
-11,2,13,4,-12,8,1,-10,-29,-4,-11,-25
-10,4,14,3,-12,10,1,-10,-29,-4,-11,-25
-10,5,15,2,-12,11,1,-10,-29,-4,-10,-24
-9,6,15,2,-12,11,1,-10,-29,-4,-10,-24
-9,5,15,2,-12,10,2,-10,-29,-4,-10,-23
-9,5,15,2,-12,10,2,-10,-29,-4,-10,-23
-10,5,16,2,-13,11,1,-10,-29,-4,-9,-23
-12,4,16,4,-14,10,0,-11,-29,-4,-9,-23
-13,3,16,5,-15,10,0,-12,-30,-4,-9,-23
-13,3,17,5,-15,10,-1,-12,-31,-5,-9,-24
-14,3,17,6,-16,11,-1,-13,-31,-6,-10,-25
-15,3,18,6,-16,11,-1,-13,-31,-8,-11,-26
-14,4,18,5,-16,11,-1,-13,-31,-8,-11,-26
-13,5,18,4,-16,11,0,-13,-30,-6,-10,-26
-12,6,19,3,-16,12,0,-12,-29,-4,-9,-25
-11,8,20,1,-16,14,0,-12,-29,-2,-7,-24
-11,10,21,0,-16,15,1,-12,-29,-2,-7,-23
-11,10,21,1,-16,15,0,-12,-29,-4,-7,-24
-11,10,21,1,-16,15,0,-12,-29,-4,-7,-24
-11,10,21,0,-16,15,1,-11,-28,-3,-6,-23
-10,10,21,0,-16,15,1,-11,-27,-2,-5,-23
-10,10,21,0,-16,15,0,-12,-28,-2,-5,-24
-10,9,21,0,-16,15,0,-13,-29,-3,-6,-25
-11,9,22,1,-17,15,0,-13,-29,-4,-7,-25
-13,9,23,2,-18,16,1,-12,-29,-3,-6,-25
-15,8,23,3,-19,16,1,-12,-29,-2,-6,-25
-15,8,23,3,-19,16,0,-13,-28,-2,-6,-25
-14,9,23,2,-19,16,0,-13,-28,-1,-5,-24
-12,11,24,0,-18,18,0,-11,-27,0,-4,-24
-10,14,24,-1,-18,19,0,-10,-26,1,-2,-23
-9,15,25,-3,-18,20,0,-10,-25,3,-1,-22
-9,16,26,-4,-17,21,0,-10,-25,4,0,-22
-8,17,26,-5,-17,21,0,-10,-25,4,0,-22
-7,17,25,-5,-16,21,0,-10,-25,2,0,-22
-8,17,26,-4,-17,21,0,-10,-25,1,-1,-22
-10,15,26,-3,-18,21,0,-10,-25,1,-1,-22
-11,14,25,-1,-18,20,0,-9,-24,1,-1,-22
-11,14,25,-1,-18,20,0,-9,-24,1,-1,-21
-10,14,24,-1,-17,19,0,-9,-24,0,-1,-21
-9,15,24,-2,-17,19,0,-8,-23,0,-1,-20
-7,15,23,-3,-16,19,0,-8,-22,0,0,-18
-6,16,22,-4,-14,19,0,-7,-21,1,0,-17
-5,16,21,-5,-13,19,0,-7,-21,1,0,-16
-5,15,20,-5,-13,18,-1,-6,-21,2,1,-16
-5,15,20,-5,-13,18,-2,-6,-20,3,1,-16
-6,14,20,-4,-13,17,-2,-6,-20,4,2,-16
-7,14,20,-3,-14,17,-2,-5,-19,6,3,-16
-7,14,20,-3,-14,17,-2,-5,-19,7,4,-15
-6,14,20,-3,-13,17,-2,-5,-19,6,4,-15
-5,13,19,-4,-12,16,-3,-5,-19,6,4,-14
-4,13,19,-4,-12,16,-3,-5,-18,6,4,-14
-3,13,18,-5,-11,16,-3,-5,-18,6,4,-13
-2,14,18,-6,-10,16,-3,-4,-18,6,4,-13
-2,15,18,-6,-10,16,-2,-4,-18,6,4,-12
-2,16,18,-6,-10,17,-2,-3,-17,5,3,-12
-3,15,18,-5,-10,16,-3,-3,-18,4,2,-12
-4,13,17,-4,-11,15,-3,-4,-18,2,1,-13
-5,11,17,-2,-11,13,-4,-4,-18,2,1,-13
-5,10,16,-2,-11,12,-4,-4,-18,2,1,-13
-4,10,15,-3,-10,12,-4,-4,-18,1,2,-12
-2,11,14,-4,-9,12,-4,-4,-19,1,1,-12
-2,11,14,-4,-9,12,-4,-5,-19,0,0,-13
-3,11,14,-4,-9,12,-4,-5,-19,0,0,-13
-2,12,14,-5,-8,13,-3,-4,-19,0,0,-13
-1,12,13,-5,-7,13,-3,-4,-18,1,0,-12
1,12,12,-6,-5,12,-2,-3,-18,1,0,-12
2,12,10,-7,-4,11,-2,-3,-18,1,1,-11
3,11,9,-7,-3,10,-1,-2,-17,2,1,-11
3,11,8,-6,-3,10,-1,-2,-17,3,2,-11
2,10,8,-5,-3,9,-2,-2,-17,2,1,-11
1,9,7,-5,-3,8,-2,-3,-18,-1,-1,-12
2,9,6,-5,-2,7,-2,-3,-19,-3,-2,-12
2,8,5,-4,-2,6,-2,-3,-19,-4,-2,-11
1,6,5,-3,-2,5,-3,-3,-19,-4,-3,-11
-1,4,4,-1,-3,4,-4,-4,-20,-5,-3,-11
-1,2,4,0,-3,3,-4,-4,-20,-5,-4,-12
-1,1,3,0,-2,2,-4,-4,-20,-4,-4,-12
-1,1,2,0,-2,1,-4,-4,-20,-4,-4,-12
-1,1,1,0,-1,1,-4,-4,-20,-4,-4,-13
0,2,1,-1,0,1,-4,-3,-20,-4,-4,-13
2,3,0,-2,1,1,-4,-3,-20,-4,-5,-13
2,3,0,-3,1,1,-4,-3,-20,-5,-5,-12
3,2,0,-3,1,0,-4,-2,-19,-5,-5,-12
3,2,0,-3,1,0,-4,-2,-18,-5,-5,-12
4,3,-1,-3,2,0,-4,-1,-18,-5,-5,-12
4,2,-1,-3,2,0,-4,-1,-17,-5,-5,-12
3,0,-2,-1,2,-1,-5,-1,-17,-5,-6,-12
3,0,-3,-1,3,-2,-5,-1,-17,-4,-6,-12
3,-1,-4,0,3,-3,-4,0,-17,-5,-6,-12
3,-2,-6,0,4,-4,-4,0,-17,-6,-7,-12
3,-4,-7,0,4,-5,-3,0,-17,-6,-7,-13
3,-5,-8,1,5,-6,-3,0,-17,-7,-8,-13
3,-6,-9,1,5,-8,-3,0,-18,-7,-8,-13
3,-7,-10,2,6,-9,-3,0,-18,-7,-9,-12
2,-8,-10,3,6,-9,-3,0,-17,-6,-9,-12
0,-10,-10,5,5,-10,-3,0,-17,-6,-9,-12
-1,-10,-10,6,4,-10,-2,0,-17,-6,-9,-12
0,-10,-10,5,5,-10,-2,0,-17,-7,-9,-11
1,-9,-11,4,6,-10,-2,0,-17,-7,-9,-11
4,-7,-12,2,8,-10,-1,0,-16,-7,-9,-10
6,-7,-12,0,9,-10,-1,1,-16,-6,-8,-10
6,-7,-13,0,9,-10,-1,1,-15,-5,-7,-9
5,-7,-12,0,8,-10,0,1,-15,-4,-7,-9
5,-7,-12,1,8,-10,0,1,-14,-5,-6,-8
5,-7,-13,1,9,-10,0,1,-14,-5,-6,-8
5,-7,-13,1,9,-10,0,1,-15,-6,-6,-8
4,-8,-12,2,8,-10,-1,1,-15,-6,-7,-9
2,-9,-12,3,7,-10,-1,0,-15,-5,-7,-9
1,-10,-11,4,5,-10,-2,0,-15,-5,-8,-10
0,-10,-10,5,4,-10,-2,0,-16,-7,-9,-10
0,-10,-10,5,5,-10,-2,0,-16,-8,-10,-11
1,-10,-11,4,6,-10,-2,0,-17,-8,-10,-11
1,-9,-12,4,6,-10,-1,0,-16,-6,-9,-10
2,-9,-12,4,7,-10,-1,0,-16,-5,-8,-10
2,-9,-11,4,7,-10,0,0,-16,-5,-8,-10
2,-9,-10,4,6,-10,0,0,-16,-6,-8,-10
1,-9,-9,4,5,-10,0,0,-16,-7,-9,-11
1,-9,-9,4,5,-9,0,0,-17,-7,-9,-11
2,-8,-10,3,6,-9,1,-1,-17,-8,-9,-11
1,-9,-11,3,6,-9,1,-1,-17,-8,-9,-11
0,-10,-11,5,5,-9,1,-2,-17,-7,-9,-12
-1,-10,-11,6,5,-10,1,-2,-17,-6,-8,-12
-1,-11,-11,6,5,-10,1,-2,-17,-5,-7,-12
-2,-12,-11,7,5,-11,1,-2,-17,-5,-7,-13
-3,-13,-11,8,4,-12,1,-2,-18,-6,-8,-13
-4,-14,-11,8,3,-12,1,-2,-18,-6,-8,-14
-4,-14,-10,9,2,-13,1,-2,-18,-7,-8,-14
-4,-13,-10,8,2,-12,1,-2,-18,-7,-8,-14
-1,-11,-10,6,3,-10,1,-2,-18,-8,-8,-14
0,-9,-10,4,5,-9,1,-2,-18,-8,-9,-14
1,-9,-10,3,6,-9,0,-2,-18,-7,-9,-15
1,-9,-10,4,6,-10,0,-3,-18,-7,-9,-15
0,-10,-10,4,5,-10,0,-3,-18,-7,-8,-15
0,-10,-10,5,5,-10,-1,-3,-19,-8,-9,-15
0,-11,-11,5,5,-11,-2,-3,-19,-8,-9,-16
-1,-11,-10,6,4,-11,-2,-2,-18,-8,-8,-16
-2,-11,-10,7,3,-11,-1,-2,-17,-6,-7,-15
-2,-12,-10,7,3,-11,-1,-2,-17,-5,-6,-15
-3,-13,-10,7,3,-11,-1,-2,-16,-5,-6,-15
-2,-12,-9,7,3,-10,-1,-1,-16,-5,-6,-14
-1,-11,-9,6,4,-10,0,-1,-16,-5,-5,-13
0,-10,-9,5,4,-10,0,-1,-15,-5,-5,-12
0,-10,-9,5,4,-10,-1,-1,-15,-5,-4,-12
0,-10,-10,5,4,-10,-2,-1,-15,-5,-4,-12
0,-11,-10,5,4,-10,-2,0,-15,-5,-4,-12
-1,-12,-11,6,5,-11,-1,0,-14,-5,-3,-12
0,-12,-11,6,5,-11,0,0,-13,-3,-2,-11
1,-10,-11,5,6,-10,0,1,-12,-1,-1,-10
3,-8,-11,3,7,-9,1,3,-11,-1,0,-10
3,-8,-11,2,7,-10,2,3,-11,-1,0,-9
3,-8,-11,2,7,-10,2,4,-11,-1,0,-9
5,-7,-11,1,7,-9,3,5,-10,-1,0,-9
7,-5,-11,-1,8,-7,3,5,-9,0,0,-8
8,-4,-11,-2,9,-7,3,6,-9,0,0,-8
7,-4,-11,-1,9,-7,3,6,-8,0,0,-9
5,-5,-11,0,8,-8,2,6,-8,1,0,-9
4,-5,-10,0,7,-8,2,7,-7,3,1,-8
4,-5,-10,0,7,-8,2,8,-6,4,2,-8
4,-4,-9,0,7,-7,2,8,-5,5,3,-7
4,-4,-9,0,6,-7,2,9,-5,5,3,-7
3,-4,-8,0,6,-7,3,9,-5,4,3,-8
4,-3,-7,-1,6,-5,4,9,-4,5,3,-8
6,-1,-7,-2,6,-4,4,10,-4,6,3,-7
6,0,-6,-3,6,-3,5,11,-3,8,4,-7
5,0,-5,-3,5,-2,5,12,-2,8,4,-7
5,0,-4,-3,4,-2,5,12,-1,7,4,-7
5,0,-4,-2,4,-2,5,13,-1,7,4,-7
5,0,-4,-2,4,-2,5,13,0,7,4,-6
5,0,-4,-3,5,-2,4,14,0,8,5,-5
5,0,-5,-3,5,-3,3,13,0,8,5,-5
4,-1,-5,-1,5,-3,2,12,0,8,5,-6
2,-3,-5,0,4,-4,1,11,-1,7,4,-7
2,-2,-5,0,4,-4,0,9,-2,7,3,-8
3,-1,-5,-1,5,-3,0,8,-3,7,3,-8
5,0,-5,-3,6,-3,-1,8,-3,7,3,-8
7,1,-6,-4,7,-2,-1,7,-3,8,4,-7
9,2,-6,-6,7,-2,-2,7,-3,8,5,-6
9,3,-6,-6,8,-2,-2,7,-3,8,5,-5
9,1,-6,-5,8,-3,-3,7,-3,7,5,-5
8,0,-7,-4,8,-4,-4,7,-3,6,5,-5
8,0,-8,-4,8,-4,-4,7,-2,7,5,-5
8,0,-8,-4,9,-4,-5,7,-3,7,5,-5
8,-1,-9,-4,9,-5,-5,7,-4,6,5,-5
8,-1,-9,-4,9,-5,-6,7,-4,6,4,-6
8,-1,-10,-4,9,-6,-6,7,-4,6,5,-6
9,-1,-10,-4,10,-6,-6,7,-4,7,5,-6
11,0,-11,-6,12,-6,-6,6,-4,8,6,-5
13,1,-12,-7,12,-5,-7,6,-4,8,6,-5
13,1,-12,-7,12,-5,-7,6,-4,7,6,-5
12,0,-12,-6,12,-6,-7,5,-5,6,6,-5
11,0,-12,-6,12,-7,-8,5,-5,5,5,-5
11,-1,-13,-5,12,-7,-8,4,-6,3,4,-5
11,-2,-13,-4,12,-8,-8,4,-6,2,4,-4
10,-3,-13,-3,11,-8,-8,4,-6,2,3,-3
9,-3,-12,-3,11,-7,-7,4,-6,2,3,-1
10,-3,-12,-3,11,-7,-7,4,-6,2,3,0
10,-3,-13,-3,11,-7,-7,5,-6,2,3,0
10,-3,-13,-3,11,-7,-6,5,-6,2,3,0
10,-3,-13,-3,11,-7,-6,5,-6,2,3,1
10,-3,-12,-3,10,-7,-6,5,-6,2,3,1
9,-3,-12,-3,10,-7,-6,5,-6,2,3,1
7,-3,-10,-2,9,-7,-5,5,-6,2,2,2
6,-3,-9,-2,8,-6,-4,5,-7,1,1,2
5,-3,-9,-1,7,-6,-4,5,-7,1,1,2
5,-4,-9,0,7,-7,-3,5,-7,0,0,1
4,-6,-10,1,7,-8,-3,5,-7,0,0,1
4,-8,-11,2,7,-10,-3,5,-7,1,0,0
3,-9,-12,3,7,-10,-3,5,-7,1,0,0
1,-10,-12,5,6,-11,-2,5,-8,0,0,-1
0,-12,-11,6,6,-11,-2,5,-8,0,-1,-2
-1,-13,-12,6,6,-12,-2,4,-9,-1,-2,-3
-1,-14,-12,7,6,-13,-2,4,-10,-2,-3,-4
-2,-14,-13,8,6,-14,-2,4,-10,-2,-4,-4
-1,-15,-13,8,6,-14,-2,4,-10,-2,-4,-5
0,-14,-14,7,7,-14,-1,4,-10,-2,-4,-5
2,-13,-15,5,9,-14,-1,4,-10,-2,-4,-5
2,-13,-15,5,9,-14,0,5,-9,-2,-4,-5
2,-13,-15,6,9,-14,0,5,-9,-2,-4,-5
1,-13,-15,6,9,-14,0,6,-8,-1,-4,-5
1,-13,-16,6,9,-15,0,6,-8,-1,-4,-5
2,-13,-16,5,10,-14,1,6,-8,-2,-4,-4
3,-12,-15,4,10,-14,1,6,-8,-2,-4,-4
4,-12,-15,4,10,-14,1,6,-8,-2,-5,-5
4,-12,-16,4,10,-14,1,6,-8,-2,-5,-5
4,-12,-16,4,10,-14,1,6,-9,-2,-5,-6
3,-13,-15,5,9,-14,1,6,-9,-2,-5,-6
3,-12,-15,4,9,-14,1,6,-9,-2,-5,-6
4,-12,-15,4,9,-14,0,5,-9,-3,-5,-7
3,-12,-15,4,9,-14,0,5,-10,-4,-6,-8
2,-13,-14,5,8,-14,0,5,-10,-5,-7,-8
1,-13,-14,6,7,-14,0,5,-10,-5,-7,-9
2,-13,-14,6,8,-14,0,5,-10,-5,-7,-9
3,-13,-15,6,8,-14,0,5,-10,-5,-7,-9
3,-13,-15,5,9,-14,0,5,-10,-5,-6,-9
3,-14,-16,5,9,-14,0,5,-10,-4,-6,-9
2,-14,-15,6,9,-14,0,5,-10,-4,-6,-9
1,-14,-15,6,8,-14,0,5,-10,-4,-6,-9
1,-14,-15,7,8,-15,0,5,-11,-5,-7,-9
1,-15,-15,7,8,-15,-1,5,-11,-5,-7,-10
0,-15,-15,8,8,-16,-1,4,-11,-5,-7,-10
0,-16,-15,8,8,-16,-2,4,-11,-5,-7,-11
0,-16,-15,8,8,-16,-2,4,-11,-5,-7,-11
-1,-16,-14,9,7,-15,-1,4,-11,-5,-7,-11
-2,-17,-14,9,6,-15,0,4,-10,-4,-7,-11
-1,-17,-14,9,6,-15,0,4,-10,-3,-7,-11
-1,-17,-15,9,6,-15,0,5,-10,-2,-6,-10
-1,-17,-15,9,6,-16,0,5,-10,-2,-6,-10
-2,-18,-15,10,6,-16,0,4,-10,-2,-6,-11
-2,-18,-15,11,6,-17,0,4,-11,-4,-7,-11
-3,-19,-15,11,6,-17,0,3,-11,-6,-8,-12
-3,-19,-15,11,6,-17,0,3,-12,-7,-8,-12
-2,-18,-16,10,7,-17,0,3,-12,-8,-8,-12
-1,-17,-16,9,7,-16,0,3,-12,-7,-8,-12
0,-15,-15,8,7,-15,1,4,-12,-7,-8,-12
1,-14,-15,7,8,-14,2,4,-11,-7,-8,-11
2,-13,-15,6,8,-14,2,5,-11,-6,-7,-11
2,-14,-16,7,8,-15,2,5,-11,-5,-7,-11
1,-15,-15,7,8,-15,3,5,-10,-5,-7,-11
1,-15,-14,7,8,-14,3,6,-10,-5,-7,-11
1,-15,-14,7,7,-14,2,6,-10,-5,-7,-11
2,-14,-15,6,8,-14,2,6,-10,-5,-7,-11
4,-13,-15,5,9,-14,2,6,-10,-5,-7,-11
3,-13,-15,5,9,-14,2,5,-10,-5,-7,-11
1,-14,-14,6,7,-14,1,5,-11,-5,-8,-11
1,-13,-14,6,7,-13,1,5,-11,-5,-7,-11
1,-12,-13,5,7,-13,1,5,-10,-5,-6,-11
2,-12,-13,5,8,-13,1,5,-10,-5,-6,-11
2,-12,-13,5,8,-13,0,5,-10,-5,-6,-11
1,-13,-14,6,8,-13,0,5,-10,-5,-6,-11
1,-14,-14,7,8,-14,0,4,-10,-5,-7,-12
1,-14,-15,7,8,-15,0,4,-10,-5,-7,-12
1,-15,-15,7,7,-15,0,4,-10,-5,-7,-12
1,-15,-15,7,7,-15,0,4,-10,-5,-7,-12
1,-15,-15,6,7,-15,0,4,-10,-6,-7,-12
1,-14,-14,6,8,-15,0,5,-10,-6,-7,-12
1,-14,-14,6,8,-15,1,5,-10,-5,-7,-12
1,-14,-14,6,7,-15,2,5,-10,-5,-7,-12
0,-15,-14,7,6,-14,2,5,-10,-5,-7,-12
-2,-16,-13,9,4,-14,2,5,-10,-5,-7,-12
-4,-18,-13,11,4,-15,2,4,-10,-6,-7,-12
-3,-18,-14,11,4,-16,2,4,-10,-7,-7,-13
-2,-18,-14,10,5,-16,2,4,-10,-6,-7,-13
-1,-17,-15,9,6,-16,2,4,-10,-5,-7,-13
-1,-17,-15,9,7,-16,1,4,-10,-6,-8,-14
-1,-17,-15,9,7,-16,1,4,-10,-6,-8,-14
0,-16,-15,8,7,-16,2,4,-10,-6,-8,-13
0,-15,-15,8,8,-15,2,5,-9,-7,-8,-13
-1,-16,-15,8,7,-15,2,5,-9,-7,-8,-13
-1,-16,-15,9,6,-15,2,5,-9,-7,-8,-13
-2,-17,-15,9,6,-15,2,5,-10,-8,-8,-14
-2,-18,-15,10,6,-16,2,5,-10,-8,-8,-14
-2,-18,-15,10,6,-16,2,5,-10,-8,-8,-14
0,-17,-15,9,7,-16,2,5,-10,-7,-8,-14
1,-16,-16,8,8,-16,2,5,-10,-7,-8,-14
1,-15,-16,7,8,-16,2,5,-10,-6,-8,-13
2,-14,-16,6,8,-15,2,5,-9,-5,-7,-13
2,-12,-15,5,8,-14,2,6,-8,-3,-6,-12
2,-12,-14,5,8,-13,2,7,-7,-2,-5,-12
2,-11,-14,5,7,-13,3,7,-7,-1,-4,-12
2,-11,-14,5,7,-13,3,8,-7,-1,-4,-12
2,-12,-15,5,8,-14,3,8,-7,-2,-5,-13
2,-14,-16,6,8,-16,4,8,-6,-4,-6,-14
1,-16,-17,8,8,-17,4,10,-5,-5,-8,-15
0,-18,-17,9,8,-18,5,12,-4,-5,-10,-16
0,-18,-18,9,9,-18,6,14,-2,-3,-10,-16
2,-18,-19,8,10,-18,6,17,0,-2,-9,-16
4,-17,-21,7,12,-19,7,21,4,0,-8,-16
6,-17,-23,6,14,-20,7,26,10,3,-5,-14
8,-16,-25,5,16,-21,7,33,17,9,0,-10
10,-16,-27,4,18,-22,6,39,25,17,8,-5
13,-16,-29,2,21,-23,5,45,34,26,18,1
18,-14,-32,-1,25,-23,4,52,45,37,30,8
24,-9,-34,-7,29,-22,3,59,55,49,44,18
30,-3,-33,-12,31,-19,1,63,64,62,61,30
34,3,-31,-18,32,-14,-2,62,71,75,79,42
39,10,-28,-24,33,-9,-6,58,75,87,98,54
43,19,-24,-31,33,-2,-10,51,76,98,116,67
47,28,-18,-37,32,5,-14,42,74,108,134,79
48,37,-11,-42,29,13,-17,33,73,119,151,90
46,43,-3,-44,24,20,-18,26,70,125,162,98
41,47,6,-44,17,26,-19,17,62,122,162,100
35,49,15,-41,9,31,-19,4,47,109,150,95
27,50,24,-38,1,36,-17,-11,24,88,128,83
16,49,34,-32,-9,40,-15,-30,-4,62,99,67
3,48,45,-25,-21,46,-13,-52,-36,32,66,47
-8,49,57,-20,-33,52,-11,-71,-65,4,35,28
-17,51,68,-17,-43,59,-7,-84,-85,-15,13,13
-23,55,78,-15,-51,66,-3,-91,-96,-26,0,3
-26,58,85,-15,-56,72,-1,-96,-102,-32,-8,-3
-28,60,90,-15,-60,75,0,-98,-105,-36,-13,-8
-30,61,92,-15,-61,77,0,-99,-107,-38,-16,-12
-32,59,91,-13,-61,75,0,-97,-106,-39,-18,-15
-33,55,88,-11,-60,71,0,-94,-103,-39,-20,-18
-33,52,84,-9,-59,67,-1,-91,-100,-39,-22,-21
-32,48,79,-8,-56,63,-2,-88,-97,-41,-24,-23
-30,45,74,-7,-53,59,-4,-85,-93,-42,-26,-25
-29,41,70,-6,-50,55,-6,-81,-90,-43,-27,-26
-28,37,65,-5,-47,51,-8,-76,-86,-42,-27,-26
-26,34,61,-5,-44,47,-9,-71,-82,-41,-27,-26
-23,33,57,-5,-40,44,-10,-66,-77,-40,-27,-26
-22,31,53,-4,-38,42,-10,-61,-73,-39,-26,-26
-22,28,50,-3,-36,39,-10,-56,-69,-38,-26,-27
-21,25,45,-1,-34,35,-10,-53,-65,-36,-26,-27
-20,20,40,0,-32,30,-11,-50,-62,-34,-25,-27
-20,16,36,1,-29,26,-11,-47,-59,-33,-25,-27
-19,12,32,3,-26,23,-11,-43,-56,-31,-24,-26
-18,9,29,4,-24,19,-10,-38,-52,-30,-23,-26
-18,7,25,5,-21,16,-9,-34,-49,-28,-22,-26
-16,5,21,6,-18,13,-8,-31,-46,-26,-21,-26
-13,4,17,5,-15,11,-7,-27,-42,-24,-20,-26
-11,3,14,5,-13,8,-7,-24,-38,-22,-19,-25
-11,1,12,5,-11,6,-6,-21,-35,-20,-19,-25
-11,-2,10,6,-10,4,-5,-19,-33,-19,-18,-25
-10,-4,7,7,-9,1,-5,-17,-31,-19,-18,-24
-9,-6,5,7,-7,0,-4,-16,-30,-19,-17,-24
-7,-6,2,7,-5,-2,-4,-15,-29,-19,-17,-24
-7,-6,1,7,-3,-3,-4,-13,-28,-18,-16,-23
-6,-6,0,7,-3,-3,-4,-12,-27,-17,-15,-22
-6,-5,0,6,-3,-3,-4,-11,-25,-15,-14,-21
-5,-4,0,6,-3,-3,-4,-10,-24,-14,-13,-20
-5,-5,0,6,-3,-3,-3,-10,-23,-13,-12,-20
-4,-5,0,5,-3,-2,-3,-10,-23,-13,-12,-20
-4,-5,0,5,-2,-2,-3,-10,-24,-13,-13,-21
-5,-5,0,5,-2,-3,-2,-10,-24,-13,-13,-21
-5,-5,1,6,-3,-3,-2,-9,-23,-12,-12,-21
-6,-5,1,6,-4,-3,-1,-8,-23,-12,-12,-21
-6,-5,2,6,-4,-2,-1,-8,-23,-12,-12,-21
-6,-5,2,6,-4,-2,-1,-8,-22,-11,-12,-21
-6,-5,2,6,-5,-2,-1,-8,-22,-11,-12,-21
-5,-4,2,5,-5,-1,0,-8,-22,-10,-12,-21
-5,-3,3,4,-4,0,0,-8,-22,-9,-11,-20
-4,-2,3,3,-4,0,0,-9,-23,-10,-12,-20
-5,-2,3,3,-4,0,0,-9,-23,-10,-12,-20
-7,-3,4,5,-5,0,0,-9,-22,-10,-12,-20
-9,-4,5,6,-7,0,0,-9,-23,-11,-12,-21
-11,-5,5,8,-8,0,0,-9,-23,-11,-12,-21
-12,-6,6,9,-9,0,0,-9,-23,-11,-12,-21
-12,-6,6,9,-9,0,0,-9,-23,-10,-11,-21
-12,-6,6,9,-9,1,0,-9,-23,-10,-10,-21
-10,-3,7,6,-9,2,0,-9,-23,-9,-9,-20
-9,-1,7,5,-8,3,0,-9,-23,-9,-9,-20
-9,-1,8,5,-8,3,0,-9,-23,-9,-9,-20
-8,0,8,4,-8,3,0,-9,-23,-9,-9,-20
-6,1,8,2,-7,4,0,-8,-22,-8,-9,-20
-4,3,8,0,-6,5,1,-8,-22,-8,-8,-20
-4,4,9,0,-7,6,1,-8,-22,-8,-9,-20
-5,4,10,0,-8,7,1,-8,-23,-7,-9,-20
-6,5,11,0,-9,8,0,-9,-23,-8,-9,-21
-5,5,11,0,-9,8,0,-10,-23,-8,-10,-21
-7,5,11,0,-9,8,-1,-10,-24,-8,-10,-22
-9,4,13,2,-11,8,-1,-10,-24,-8,-10,-21
-9,4,14,3,-12,9,-1,-10,-24,-7,-9,-21
-9,5,14,3,-12,9,-1,-10,-24,-7,-9,-21
-10,5,15,3,-13,10,0,-10,-24,-6,-8,-20
-9,6,16,2,-13,11,0,-10,-23,-6,-7,-20
-9,7,17,2,-13,11,1,-10,-23,-6,-7,-20
-10,7,17,2,-14,11,1,-10,-23,-6,-7,-20
-11,7,18,3,-15,11,1,-10,-23,-5,-7,-20
-11,7,18,2,-14,11,0,-10,-24,-5,-7,-21
-10,7,18,2,-14,12,0,-10,-24,-5,-7,-21
-10,7,18,2,-14,12,0,-10,-24,-5,-7,-22
-11,7,19,2,-15,13,0,-10,-24,-5,-7,-22
-11,7,19,2,-15,13,0,-10,-24,-4,-7,-22
-11,8,20,1,-16,14,0,-10,-24,-4,-6,-21
-10,9,19,0,-15,14,0,-10,-24,-5,-6,-21
-9,10,19,0,-14,14,1,-10,-23,-5,-5,-20
-9,10,19,0,-14,14,1,-10,-23,-4,-5,-20
-10,9,19,1,-15,14,1,-10,-22,-4,-4,-19
-11,8,20,2,-16,14,1,-10,-22,-3,-4,-19
-12,8,20,2,-16,14,1,-10,-23,-3,-4,-19
-13,7,20,3,-16,13,0,-11,-23,-3,-5,-20
-13,7,20,4,-17,13,0,-11,-23,-3,-5,-20
-13,8,22,3,-17,14,0,-10,-22,-2,-4,-20
-13,9,22,2,-18,15,0,-10,-22,-2,-3,-21
-12,9,22,1,-17,15,-1,-11,-23,-2,-3,-22
-10,12,23,-1,-16,17,-1,-10,-22,-1,-3,-21
-8,16,24,-3,-16,20,0,-9,-20,0,-1,-20
-7,18,25,-5,-16,21,1,-9,-19,1,0,-19
-6,19,25,-6,-15,22,1,-9,-19,1,0,-18
-5,19,25,-7,-15,22,1,-8,-19,1,0,-18
-6,19,26,-6,-16,22,1,-8,-19,1,0,-17
-8,18,27,-5,-17,22,1,-7,-19,2,1,-17
-8,18,27,-5,-17,22,0,-7,-19,2,1,-17
-7,18,25,-6,-16,21,0,-7,-18,3,2,-16
-6,18,24,-6,-15,21,0,-7,-18,3,2,-15
-4,18,23,-7,-14,21,-1,-7,-18,2,2,-14
-4,18,23,-6,-14,21,-1,-7,-17,2,3,-12
-6,18,25,-5,-15,21,0,-7,-16,2,3,-10
-7,17,25,-4,-16,21,0,-6,-15,3,4,-8
-6,18,24,-6,-15,21,0,-6,-15,3,4,-7
-4,18,23,-7,-14,20,0,-5,-14,4,4,-5
-4,18,23,-7,-14,20,0,-4,-14,5,5,-4
-5,18,23,-6,-14,20,0,-4,-13,5,5,-4
-5,18,23,-6,-14,20,0,-3,-13,6,5,-3
-5,18,23,-5,-14,20,-1,-3,-13,5,5,-3
-5,17,23,-5,-14,20,-1,-3,-13,4,4,-2
-5,17,22,-6,-14,20,-1,-2,-12,4,4,-1
-5,17,22,-6,-14,19,-1,-2,-12,4,4,-1
-5,16,22,-6,-14,19,-1,-2,-12,4,4,0
-4,17,22,-7,-13,20,-1,-2,-12,5,5,0
-2,19,22,-8,-12,20,-1,-1,-11,5,5,1
-1,20,21,-9,-11,20,-1,-1,-11,5,5,2
0,19,20,-9,-10,19,-2,0,-11,5,5,2
0,18,19,-8,-10,18,-2,-1,-11,4,5,2
-1,16,18,-7,-10,17,-3,-1,-11,4,5,2
-2,14,17,-6,-10,15,-3,-1,-12,4,5,2
-3,13,17,-5,-10,15,-3,0,-12,4,4,2
-4,13,18,-5,-11,15,-3,0,-11,4,4,2
-3,13,17,-5,-10,15,-3,0,-11,3,4,2
-2,14,16,-6,-9,14,-2,0,-11,4,5,2
0,15,14,-8,-7,14,-2,1,-10,4,5,3
3,16,12,-9,-5,13,-2,1,-10,4,5,3
4,15,12,-9,-4,13,-2,1,-10,4,5,4
2,14,13,-8,-5,13,-1,1,-10,4,6,4
1,13,13,-7,-6,13,-1,1,-10,4,6,4
1,13,12,-7,-6,12,-1,1,-10,4,5,4
1,12,11,-6,-5,11,-2,0,-11,3,3,3
0,12,11,-6,-6,11,-2,0,-11,1,2,2
0,12,11,-5,-6,11,-2,0,-11,1,2,2
0,11,11,-5,-6,11,-2,0,-11,1,1,2
0,10,10,-5,-5,10,-3,0,-11,1,1,2
1,10,8,-5,-4,9,-3,0,-12,0,1,1
3,10,7,-6,-3,8,-2,1,-12,0,1,1
4,11,6,-7,-1,8,-2,1,-12,0,0,1
5,10,6,-7,0,7,-3,1,-12,0,0,0
4,9,5,-6,0,6,-3,1,-12,0,0,0
4,7,5,-5,0,5,-3,1,-12,-1,-1,0
4,7,4,-5,0,5,-3,1,-13,-3,-2,0
5,7,3,-6,1,5,-2,1,-13,-3,-2,0
6,7,2,-6,1,4,-2,1,-12,-3,-1,0
5,6,2,-5,1,3,-2,1,-12,-3,-1,0
4,4,1,-4,1,2,-2,1,-12,-3,-2,0
3,3,0,-3,1,1,-2,2,-12,-4,-2,0
3,3,0,-3,2,1,-2,2,-12,-5,-3,0
4,2,-1,-3,2,0,-1,2,-12,-6,-3,0
4,1,-2,-2,3,-1,-2,2,-13,-6,-4,-1
4,0,-3,-2,3,-2,-2,2,-13,-6,-4,-1
4,1,-3,-2,4,-2,-2,2,-12,-6,-4,-1
5,1,-4,-3,5,-2,-2,3,-12,-5,-4,-1
6,0,-5,-3,5,-3,-2,3,-12,-5,-4,-2
5,-1,-6,-1,5,-4,-2,3,-12,-6,-4,-2
4,-3,-6,0,4,-5,-3,2,-12,-7,-5,-3
4,-4,-7,0,5,-5,-3,2,-12,-8,-5,-3
5,-3,-8,-1,6,-5,-2,3,-12,-7,-5,-2
5,-3,-8,-1,6,-6,-2,3,-11,-6,-5,-2
4,-4,-9,0,6,-7,-2,3,-11,-5,-5,-3
3,-5,-9,1,6,-8,-2,3,-11,-4,-5,-3
4,-5,-9,1,7,-8,-1,4,-10,-3,-4,-3
4,-5,-9,0,7,-8,-1,4,-10,-3,-4,-3
4,-5,-10,1,7,-8,-1,4,-10,-4,-4,-4
5,-5,-10,0,7,-8,-1,4,-10,-4,-5,-5
6,-4,-10,-1,8,-7,-1,4,-9,-5,-4,-4
7,-3,-10,-2,8,-6,0,4,-9,-5,-4,-4
7,-3,-10,-2,8,-6,0,4,-9,-6,-4,-4
7,-3,-10,-2,8,-7,-1,4,-9,-6,-4,-4
7,-3,-10,-2,8,-7,-1,4,-9,-6,-4,-3
7,-3,-10,-2,8,-7,0,4,-8,-5,-4,-3
7,-3,-10,-2,8,-7,0,4,-8,-5,-4,-2
7,-4,-11,-1,8,-8,0,4,-8,-6,-4,-2
6,-6,-11,0,8,-9,0,3,-9,-6,-4,-3
5,-7,-11,0,7,-9,0,3,-9,-6,-4,-3
4,-7,-11,1,6,-9,0,3,-9,-6,-4,-3
4,-7,-10,1,7,-9,0,3,-9,-5,-4,-3
5,-6,-11,0,8,-9,0,2,-9,-5,-4,-3
5,-5,-10,0,8,-8,0,2,-9,-5,-4,-3
4,-5,-9,1,7,-8,0,2,-10,-5,-5,-3
4,-5,-10,1,7,-8,0,2,-10,-5,-5,-3
5,-5,-10,0,7,-8,0,2,-10,-5,-5,-3
4,-6,-10,1,6,-8,0,2,-10,-6,-5,-3
1,-8,-10,3,5,-9,0,2,-10,-6,-5,-3
0,-10,-10,5,5,-9,0,1,-11,-7,-5,-3
0,-10,-10,5,5,-10,0,1,-11,-8,-5,-2
2,-10,-11,4,6,-10,1,2,-10,-8,-5,-1
3,-9,-11,3,7,-11,1,3,-9,-7,-4,0
4,-9,-12,3,7,-11,1,3,-9,-6,-4,0
4,-9,-12,3,7,-11,1,3,-9,-6,-4,0
3,-10,-13,4,7,-12,1,2,-10,-5,-4,0
2,-10,-13,5,7,-12,1,2,-10,-5,-4,-1
1,-11,-13,5,7,-12,1,2,-10,-4,-4,-1
1,-10,-12,4,7,-11,0,2,-10,-5,-4,-1
1,-9,-11,4,6,-10,0,2,-11,-6,-4,-1
1,-9,-10,4,6,-10,0,2,-11,-7,-5,-1
2,-8,-10,4,5,-9,0,2,-10,-7,-5,-1
2,-8,-10,3,5,-9,0,2,-10,-7,-5,-1
2,-8,-10,4,5,-9,0,1,-10,-7,-5,-1
2,-8,-10,3,5,-9,0,1,-10,-7,-5,0
3,-7,-10,2,6,-9,1,2,-9,-6,-4,0
4,-7,-11,1,7,-9,1,2,-9,-6,-4,0
3,-8,-11,3,7,-10,0,2,-9,-5,-4,0
2,-10,-12,4,7,-11,0,2,-9,-5,-4,0
1,-12,-12,5,7,-12,-1,2,-9,-5,-3,0
0,-12,-12,6,6,-12,-1,2,-9,-5,-3,0
0,-11,-11,5,5,-11,0,3,-8,-5,-2,1
2,-8,-10,3,6,-9,0,3,-8,-4,-2,1
3,-7,-10,2,6,-8,0,3,-7,-4,-1,2
3,-6,-9,2,6,-8,0,3,-7,-4,-1,2
3,-6,-9,2,6,-8,0,4,-7,-4,-1,1
3,-5,-8,1,6,-8,0,4,-6,-3,0,2
4,-4,-8,0,6,-7,0,5,-5,-2,0,2
3,-4,-8,0,6,-7,0,5,-4,-1,1,2
3,-5,-8,1,5,-7,0,6,-4,-1,1,2
3,-4,-8,0,6,-7,1,6,-3,0,1,3
4,-3,-8,0,6,-6,1,7,-2,0,2,4
6,-2,-8,-2,7,-5,2,8,-1,1,3,5
8,0,-8,-4,8,-4,3,10,0,2,4,6
9,1,-8,-5,8,-4,4,11,2,3,5,7
9,1,-8,-5,9,-4,4,12,3,4,5,7
9,2,-8,-5,9,-3,5,13,3,4,6,7
10,2,-7,-5,9,-3,5,14,4,5,6,8
9,2,-7,-5,9,-3,5,14,4,5,7,7
8,0,-8,-4,8,-4,5,14,4,5,7,7
8,0,-8,-3,8,-4,5,14,4,6,6,6
8,0,-8,-3,8,-4,6,14,5,6,6,6
8,0,-7,-3,7,-4,6,15,5,7,7,6
7,0,-7,-3,7,-4,6,15,6,8,7,6
8,0,-7,-4,7,-3,6,16,7,8,7,6
9,2,-7,-5,7,-2,6,17,7,8,8,6
10,3,-7,-7,8,-1,6,17,8,9,8,6
10,4,-7,-7,8,-1,6,17,8,9,8,6
10,4,-7,-7,8,-2,5,16,8,9,8,6
8,3,-6,-6,7,-1,4,15,7,9,8,6
7,3,-5,-5,6,-1,3,14,7,8,8,6
7,3,-5,-5,7,-1,2,13,6,7,8,5
7,2,-6,-4,7,-2,1,11,5,6,7,4
8,1,-7,-5,8,-3,0,10,4,6,7,3
9,2,-8,-5,8,-3,-1,10,3,6,7,3
10,2,-8,-6,9,-3,-1,10,3,6,7,3
11,2,-9,-6,10,-3,-2,10,3,7,7,3
12,2,-9,-7,11,-3,-3,10,3,7,7,4
12,2,-9,-7,11,-3,-4,10,4,7,7,5
11,2,-9,-6,10,-3,-5,10,4,7,7,6
9,1,-8,-5,9,-4,-5,10,3,6,7,6
9,1,-9,-5,9,-4,-6,9,3,6,7,6
10,2,-9,-6,10,-4,-7,9,3,5,7,6
12,2,-10,-7,11,-4,-7,9,2,5,7,6
13,3,-10,-7,11,-4,-7,9,2,5,7,6
13,3,-9,-7,11,-3,-7,9,2,5,7,6
14,3,-10,-8,12,-3,-7,9,2,5,7,7
15,3,-11,-9,13,-4,-7,9,2,4,7,8
15,2,-13,-8,14,-5,-7,9,2,4,8,10
15,2,-13,-8,14,-5,-6,9,2,4,8,11
15,2,-13,-8,14,-6,-6,9,2,4,8,13
14,1,-13,-7,14,-6,-6,9,2,5,8,14
13,0,-13,-6,13,-6,-6,9,2,5,8,16
13,0,-13,-6,13,-7,-6,9,2,4,7,17
13,0,-13,-6,13,-7,-6,8,2,4,7,18
13,0,-13,-6,13,-6,-5,9,2,4,7,19
12,0,-12,-6,13,-6,-4,9,2,4,7,20
11,0,-12,-5,12,-6,-4,9,2,4,7,21
10,0,-11,-4,11,-6,-3,9,1,4,7,22
10,0,-11,-5,10,-6,-3,9,1,4,7,22
10,0,-10,-5,10,-5,-3,9,1,4,7,23
9,-1,-10,-4,10,-6,-3,8,0,3,6,23
7,-4,-11,-2,9,-7,-3,7,-1,1,4,22
5,-6,-11,0,8,-9,-3,6,-2,0,3,21
4,-7,-11,1,8,-9,-2,6,-2,0,2,21
4,-6,-11,1,8,-9,-1,7,-1,0,2,21
4,-7,-11,2,8,-9,0,7,-1,0,2,20
3,-8,-12,3,7,-10,0,7,-1,0,2,19
3,-9,-12,3,8,-10,0,7,-1,0,2,19
4,-9,-13,3,8,-11,1,7,-1,0,2,18
4,-10,-13,3,8,-11,1,7,-1,0,1,18
4,-11,-14,3,8,-12,0,7,-2,-1,0,17
3,-12,-15,4,9,-12,0,7,-2,-1,0,17
3,-12,-15,4,9,-13,0,7,-2,-1,-1,17
3,-12,-15,4,9,-13,0,7,-2,-2,-1,16
3,-12,-15,5,9,-13,0,7,-2,-2,-1,16
2,-12,-15,5,9,-13,0,7,-2,-2,-1,15
2,-13,-15,6,8,-13,0,6,-2,-2,-2,14
2,-13,-14,6,8,-13,0,6,-2,-2,-2,14
2,-12,-14,5,8,-13,0,7,-2,-2,-2,13
3,-12,-14,4,8,-12,0,7,-2,-2,-2,13
4,-12,-14,4,9,-12,0,6,-2,-2,-2,12
4,-11,-15,4,9,-12,0,6,-2,-2,-2,12
5,-11,-15,3,10,-13,0,6,-3,-2,-3,11
6,-10,-16,2,11,-13,0,6,-3,-2,-3,11
5,-10,-15,2,10,-13,0,6,-3,-3,-3,11
5,-10,-14,3,9,-12,1,6,-3,-3,-3,11
4,-11,-14,4,9,-12,1,6,-3,-3,-3,11
3,-11,-14,4,8,-12,1,7,-3,-3,-3,11
4,-11,-14,3,8,-12,1,7,-2,-3,-3,11
4,-10,-14,3,9,-12,2,7,-1,-3,-3,11
4,-10,-14,3,9,-12,2,7,-1,-3,-3,10
4,-10,-14,3,9,-12,2,7,-1,-3,-3,10
3,-11,-14,4,8,-13,2,7,-2,-3,-3,9
1,-12,-14,5,7,-13,2,7,-2,-2,-3,9
0,-13,-13,6,6,-13,2,7,-2,-2,-2,9
-1,-13,-13,7,5,-13,2,7,-2,-2,-2,8
-1,-13,-13,7,6,-13,2,7,-2,-2,-2,8
0,-13,-13,6,6,-13,1,6,-2,-3,-2,8
0,-14,-14,7,6,-13,1,6,-3,-3,-3,7
0,-14,-13,7,6,-13,1,6,-3,-4,-3,7
1,-13,-13,6,6,-13,1,6,-2,-3,-3,7
1,-12,-13,6,7,-13,1,6,-2,-3,-3,7
2,-12,-15,5,8,-14,1,6,-3,-4,-3,6
3,-13,-16,5,9,-14,1,6,-3,-4,-3,6
2,-14,-16,6,9,-15,1,6,-3,-4,-4,6
1,-15,-16,7,9,-15,1,6,-4,-5,-4,6
1,-15,-16,7,8,-15,1,6,-4,-5,-4,6
1,-15,-15,7,8,-15,1,6,-3,-4,-4,6
2,-14,-15,6,9,-14,1,5,-3,-4,-4,5
3,-13,-15,5,9,-14,0,5,-4,-4,-4,5
4,-13,-16,5,10,-14,0,5,-4,-4,-5,4
3,-13,-16,5,9,-14,1,5,-4,-4,-5,4
1,-14,-15,6,8,-14,1,5,-4,-4,-5,3
0,-14,-15,7,8,-14,1,5,-4,-4,-5,3
0,-14,-16,7,8,-15,1,5,-4,-3,-5,3
0,-16,-16,8,8,-15,1,5,-4,-4,-5,3
-1,-17,-16,9,8,-16,1,4,-4,-4,-5,3
0,-17,-16,9,8,-17,1,4,-4,-3,-5,3
0,-16,-16,8,8,-16,2,4,-4,-3,-5,3
0,-15,-15,8,8,-16,2,4,-4,-2,-5,3
0,-15,-15,8,7,-15,2,5,-3,-2,-5,3
0,-14,-14,7,7,-14,2,5,-3,-3,-5,3
0,-13,-14,7,7,-13,2,6,-3,-3,-5,3
0,-13,-13,6,7,-13,3,6,-3,-3,-5,3
1,-12,-13,5,7,-13,3,6,-3,-4,-5,3
1,-12,-13,5,7,-13,3,6,-2,-4,-5,3
2,-12,-13,5,7,-13,3,6,-2,-4,-5,3
1,-13,-14,5,7,-13,3,6,-2,-4,-5,2
0,-15,-14,7,7,-14,3,5,-3,-5,-5,2
0,-15,-14,8,7,-15,3,5,-3,-5,-5,2
0,-15,-15,8,8,-15,3,5,-3,-4,-5,2
0,-15,-15,8,8,-16,3,5,-2,-4,-4,2
0,-15,-15,8,8,-15,3,5,-2,-3,-4,2
0,-14,-15,7,7,-14,4,6,-1,-3,-3,2
1,-13,-15,6,7,-14,4,7,-1,-3,-3,2
1,-13,-14,5,7,-13,4,7,-1,-4,-3,2
1,-12,-14,5,7,-13,5,7,-1,-4,-3,2
2,-12,-14,4,8,-12,5,7,-1,-4,-3,2
2,-12,-14,4,8,-12,4,6,-1,-4,-3,1
1,-12,-13,4,8,-12,4,6,-1,-4,-3,1
1,-12,-13,5,8,-12,4,6,-1,-4,-3,1
0,-12,-13,5,7,-13,3,6,-2,-5,-4,1
0,-13,-14,6,7,-13,3,5,-2,-5,-4,0
0,-14,-15,7,7,-14,2,5,-2,-4,-4,0
0,-14,-15,7,7,-15,2,5,-2,-3,-4,0
0,-15,-16,7,8,-15,2,5,-2,-3,-4,0
0,-15,-16,8,8,-15,3,5,-2,-4,-4,0
1,-14,-16,7,8,-15,3,5,-2,-4,-4,0
2,-13,-15,5,8,-14,4,6,-1,-5,-4,0
3,-12,-15,5,8,-14,4,6,-1,-5,-5,0
3,-12,-15,4,8,-14,4,6,-1,-5,-5,0
3,-11,-15,3,8,-13,4,6,-1,-5,-5,0
4,-11,-15,3,9,-13,4,6,-1,-5,-5,0
3,-12,-15,4,8,-13,4,6,-1,-5,-5,0
0,-14,-15,6,7,-14,4,6,-1,-4,-5,0
-1,-16,-15,8,7,-15,4,6,-1,-4,-5,-1
-1,-16,-15,8,7,-15,3,6,-1,-4,-4,-1
0,-15,-15,8,7,-15,3,6,-1,-3,-4,-1
0,-15,-15,7,7,-14,3,7,0,-3,-4,-1
0,-14,-15,7,7,-14,4,8,1,-2,-4,-2
1,-13,-15,6,7,-13,5,11,2,-1,-5,-2
2,-12,-15,5,8,-13,7,14,4,-1,-6,-2
2,-13,-15,5,8,-14,8,17,6,0,-6,-3
1,-15,-17,7,9,-16,8,18,8,0,-6,-3
2,-17,-19,7,10,-18,8,21,11,2,-6,-3
4,-18,-23,7,13,-20,8,26,16,5,-3,-1
7,-19,-27,6,16,-22,8,32,22,10,1,1
10,-19,-30,4,20,-24,7,37,30,16,7,5
14,-17,-32,1,23,-25,6,44,39,24,16,11
20,-13,-33,-3,26,-23,6,53,50,34,28,19
26,-7,-33,-10,29,-20,7,60,62,46,43,29
32,0,-32,-16,32,-16,6,65,73,60,60,41
38,7,-31,-23,34,-12,3,65,80,74,78,53
43,15,-29,-29,35,-7,-2,61,84,86,96,66
48,23,-26,-35,36,-1,-7,54,85,98,114,78
50,30,-21,-40,35,5,-11,46,85,109,131,90
51,37,-15,-44,33,11,-15,37,84,119,148,101
51,43,-8,-46,29,17,-16,31,83,126,160,109
49,48,-1,-47,25,23,-16,22,76,124,162,113
43,51,7,-46,18,29,-16,10,62,112,152,110
35,53,18,-43,8,35,-14,-5,40,92,132,101
23,52,28,-38,-3,40,-11,-24,12,67,105,85
10,51,40,-30,-15,45,-9,-46,-20,38,73,66
-2,50,52,-24,-28,51,-6,-66,-50,11,44,46
-12,51,63,-19,-38,57,-3,-81,-72,-9,21,30
-21,52,74,-15,-47,63,0,-89,-84,-20,7,18
-27,54,82,-13,-55,68,1,-94,-92,-27,-2,10
-30,57,88,-13,-59,72,2,-97,-96,-31,-7,5
-30,60,91,-14,-61,75,2,-98,-98,-32,-10,1
-31,60,91,-14,-61,75,1,-97,-97,-33,-12,-1
-31,57,88,-12,-61,72,1,-94,-94,-34,-14,-4
-32,53,84,-10,-59,68,0,-91,-90,-34,-16,-7
-31,50,80,-9,-56,65,0,-87,-87,-35,-18,-9
-31,46,76,-7,-54,61,-2,-83,-84,-35,-20,-11
-30,42,72,-6,-51,57,-4,-79,-81,-36,-21,-12
-29,38,68,-5,-49,53,-6,-75,-77,-36,-21,-13
-27,35,63,-4,-46,49,-8,-71,-74,-37,-22,-14
-26,32,59,-3,-43,45,-9,-67,-71,-37,-22,-15
-24,30,54,-3,-40,41,-10,-62,-67,-36,-22,-15
-23,27,49,-2,-37,38,-10,-58,-63,-35,-23,-16
-23,23,45,0,-35,34,-11,-55,-60,-34,-23,-16
-23,19,41,2,-33,30,-11,-51,-56,-33,-23,-17
-21,16,37,2,-29,27,-11,-47,-52,-31,-22,-16
-18,14,32,2,-25,24,-10,-43,-49,-29,-21,-15
-16,12,28,2,-22,21,-9,-39,-46,-27,-20,-15
-14,10,25,2,-20,18,-7,-34,-42,-26,-19,-14
-13,9,21,2,-17,15,-6,-30,-39,-24,-18,-14
-11,7,17,2,-15,12,-5,-27,-35,-21,-17,-14
-11,4,13,3,-13,9,-4,-24,-32,-19,-17,-14
-10,1,10,4,-11,6,-4,-21,-29,-17,-16,-14
-9,-1,7,5,-9,3,-3,-19,-27,-17,-16,-13
-8,-3,5,6,-7,1,-3,-17,-25,-17,-16,-13
-7,-5,3,6,-5,0,-3,-15,-24,-17,-15,-12
-7,-6,1,6,-4,-2,-3,-14,-23,-16,-15,-12
-6,-6,0,6,-4,-3,-3,-13,-22,-16,-14,-12
