leadI,leadII,leadIII,leadaVR,leadaVL,leadaVF,leadV1,leadV2,leadV3,leadV4,leadV5,leadV6
0,-5,-5,2,2,-5,1,1,1,1,-1,-4
-1,-14,-13,7,6,-14,4,4,2,3,-3,-11
-1,-20,-18,9,8,-19,6,5,3,4,-4,-15
-2,-23,-20,11,9,-21,7,6,4,4,-5,-18
-3,-24,-21,12,10,-23,8,7,4,5,-6,-19
-3,-25,-22,13,10,-23,9,7,5,5,-6,-21
-3,-25,-22,13,10,-24,9,7,5,4,-7,-22
-3,-25,-22,14,10,-24,8,7,4,3,-9,-22
-4,-25,-22,14,10,-24,7,7,4,2,-9,-22
-4,-25,-21,14,9,-23,6,7,4,2,-10,-22
-4,-25,-21,13,9,-23,5,6,3,1,-10,-22
-4,-24,-21,13,9,-22,4,6,3,0,-11,-22
-4,-24,-20,13,9,-22,3,5,2,-1,-11,-22
-5,-25,-20,14,8,-22,3,5,1,-2,-12,-23
-6,-25,-20,15,8,-22,3,5,1,-3,-12,-23
-5,-26,-20,15,8,-23,3,5,1,-3,-12,-23
-4,-26,-21,15,9,-23,4,5,1,-3,-12,-24
-3,-26,-23,14,10,-24,4,5,1,-2,-11,-24
-2,-26,-23,14,10,-24,5,6,2,-1,-11,-23
-2,-26,-24,13,11,-24,5,6,2,-1,-11,-23
-2,-26,-24,13,11,-24,4,6,2,-1,-11,-23
-3,-26,-24,14,10,-24,3,6,2,-1,-11,-23
-4,-27,-24,15,10,-24,2,6,2,-1,-11,-23
-4,-27,-23,15,9,-24,2,6,2,-2,-12,-23
-4,-26,-22,15,9,-23,2,6,2,-3,-12,-22
-4,-25,-21,15,9,-23,1,6,1,-4,-12,-22
-4,-25,-21,14,9,-23,1,6,1,-4,-13,-22
-3,-25,-22,14,10,-23,0,5,0,-5,-13,-23
-3,-25,-22,14,10,-23,0,5,0,-6,-14,-23
-2,-25,-22,13,10,-23,1,5,0,-6,-14,-23
-3,-26,-23,14,10,-24,1,6,0,-6,-14,-23
-3,-26,-23,14,10,-25,1,6,0,-6,-13,-24
-2,-26,-23,14,11,-25,1,6,0,-5,-13,-24
-2,-26,-23,14,11,-24,1,6,0,-5,-12,-24
-2,-26,-23,14,11,-25,1,6,0,-4,-11,-23
-2,-27,-23,14,11,-25,1,6,0,-4,-10,-23
-3,-27,-23,14,11,-25,1,6,0,-3,-9,-23
-3,-27,-23,14,11,-25,1,6,1,-2,-8,-23
-3,-26,-24,14,11,-25,1,6,1,-1,-7,-22
-3,-26,-24,14,11,-25,2,5,1,-1,-7,-22
-3,-26,-24,14,11,-25,2,5,0,-1,-7,-22
-2,-26,-24,14,11,-25,2,4,0,-1,-7,-22
-2,-26,-24,14,11,-25,1,3,0,-2,-8,-22
-2,-27,-25,14,11,-26,1,2,-1,-2,-8,-22
-1,-26,-25,14,12,-25,0,2,-1,-1,-8,-22
-1,-25,-24,13,12,-24,0,1,-2,-1,-8,-21
-1,-24,-23,12,11,-24,0,1,-2,0,-7,-21
-2,-24,-22,12,10,-23,0,1,-2,1,-7,-20
-4,-24,-21,13,9,-22,0,2,-1,2,-6,-19
-5,-24,-20,13,8,-22,0,3,0,3,-6,-18
-4,-24,-20,13,8,-22,1,3,0,5,-5,-18
-3,-24,-22,13,9,-23,1,3,0,5,-5,-18
-2,-24,-23,12,11,-23,2,3,0,5,-5,-18
-1,-24,-24,12,11,-24,2,3,1,5,-5,-18
-1,-25,-24,12,12,-24,2,3,1,5,-5,-18
-1,-26,-25,12,12,-25,2,3,1,5,-5,-18
-2,-26,-25,13,12,-25,3,3,2,6,-5,-18
-3,-26,-24,13,11,-25,3,4,2,6,-4,-18
-3,-26,-23,14,10,-25,3,4,3,6,-4,-18
-3,-27,-24,14,10,-25,4,4,3,4,-4,-17
-3,-27,-24,14,10,-25,4,4,4,3,-3,-17
-3,-26,-23,14,9,-24,4,5,4,2,-3,-16
-3,-25,-22,13,9,-24,4,4,4,1,-2,-15
-3,-25,-22,13,9,-24,4,4,4,1,-2,-14
-3,-25,-22,13,9,-24,4,3,4,0,-2,-14
-3,-24,-21,13,9,-23,4,3,4,0,-2,-14
-3,-23,-20,12,9,-22,4,3,4,0,-2,-14
-3,-23,-20,12,9,-21,4,2,4,0,-2,-14
-2,-23,-21,12,10,-21,3,2,5,0,-2,-14
-2,-23,-21,12,10,-21,3,2,5,1,-2,-14
-2,-23,-21,12,10,-22,4,2,5,0,-3,-14
-2,-24,-22,13,10,-23,5,2,6,0,-4,-14
-2,-25,-23,13,11,-24,6,3,6,1,-3,-13
-1,-24,-23,12,11,-24,6,3,7,2,-3,-13
-1,-24,-23,12,11,-24,6,4,8,3,-3,-13
-2,-24,-22,12,10,-23,6,4,8,3,-2,-12
-2,-24,-22,12,10,-23,6,4,9,4,-2,-12
-2,-23,-21,12,10,-22,6,5,10,4,-2,-12
-2,-23,-21,12,9,-22,6,5,10,5,-1,-12
-2,-22,-21,12,9,-22,6,5,11,5,-1,-12
-1,-23,-22,11,10,-22,7,5,11,6,0,-12
0,-23,-23,11,11,-23,7,5,12,7,0,-12
0,-23,-23,11,11,-23,6,5,12,8,0,-12
-1,-24,-24,12,12,-24,6,5,12,8,0,-13
-1,-24,-24,12,12,-24,7,5,12,7,0,-13
-1,-24,-24,12,12,-24,7,5,12,7,0,-12
-1,-23,-22,11,11,-23,8,4,12,7,-1,-11
-1,-22,-21,11,10,-21,8,5,12,8,0,-10
-2,-21,-20,11,10,-20,8,5,13,9,0,-9
-2,-21,-19,11,9,-20,8,6,15,10,1,-9
-2,-20,-18,11,8,-19,8,7,15,10,1,-8
-3,-20,-17,11,8,-18,9,7,16,10,1,-8
-2,-20,-18,11,8,-18,9,7,16,10,0,-8
-2,-20,-19,11,9,-19,9,7,16,10,0,-8
-2,-19,-18,10,9,-18,9,6,16,10,0,-7
-2,-18,-17,10,8,-17,9,5,15,10,1,-7
-1,-17,-17,9,8,-17,9,4,15,10,1,-6
0,-16,-17,8,9,-17,10,4,15,11,2,-6
0,-15,-16,7,9,-16,10,5,16,11,2,-6
0,-14,-14,6,8,-14,10,6,17,12,3,-6
0,-13,-14,6,7,-13,10,7,19,13,3,-6
0,-13,-14,6,7,-13,11,9,20,13,4,-6
0,-13,-14,6,7,-13,11,10,21,14,4,-6
0,-13,-14,6,7,-14,10,10,21,14,3,-6
-1,-14,-15,7,7,-14,10,10,22,13,3,-6
-1,-16,-16,7,8,-15,10,10,22,13,3,-7
0,-16,-16,7,8,-16,9,10,22,13,3,-7
0,-16,-16,7,8,-16,8,9,21,13,3,-8
0,-15,-16,6,9,-16,8,8,21,12,3,-7
1,-15,-17,6,9,-16,7,8,20,12,3,-7
2,-15,-18,6,10,-16,6,7,20,11,3,-7
3,-14,-18,6,11,-16,5,7,19,10,3,-6
3,-14,-18,6,10,-15,4,7,19,8,3,-6
3,-14,-18,5,11,-16,3,7,19,5,2,-5
4,-15,-18,5,11,-16,3,6,19,2,2,-5
4,-15,-18,4,11,-16,2,6,20,0,2,-5
4,-15,-18,5,11,-16,2,6,20,-2,2,-5
3,-16,-20,5,11,-17,1,6,20,-3,1,-6
3,-17,-21,6,12,-19,0,6,19,-5,1,-7
3,-17,-22,6,13,-19,0,5,18,-6,1,-7
3,-17,-21,7,12,-19,-1,5,17,-6,1,-8
3,-17,-20,7,12,-19,-1,4,17,-6,1,-8
4,-17,-21,6,13,-19,-1,4,17,-4,1,-7
4,-17,-21,6,12,-18,-1,3,17,-2,2,-7
3,-17,-21,6,12,-18,-1,3,16,-1,2,-6
3,-18,-21,7,13,-19,-1,3,16,0,2,-6
4,-19,-23,7,14,-20,-1,4,16,0,3,-6
4,-19,-24,7,14,-21,-1,4,16,-1,3,-7
4,-19,-24,7,15,-21,-1,4,16,-2,3,-7
5,-18,-24,6,15,-21,-2,4,15,-3,2,-7
5,-18,-24,6,15,-21,-2,3,14,-4,2,-7
5,-19,-24,6,15,-21,-2,2,14,-4,3,-7
5,-19,-24,6,15,-21,-2,2,14,-4,3,-7
5,-19,-24,6,15,-21,-2,3,14,-4,3,-7
5,-19,-24,6,15,-21,-2,3,14,-4,3,-8
5,-19,-24,6,15,-21,-3,3,14,-4,3,-8
4,-18,-23,7,13,-20,-3,3,14,-5,3,-8
2,-17,-20,7,11,-18,-2,3,14,-5,4,-8
0,-16,-17,8,9,-16,-1,4,15,-5,5,-8
0,-16,-16,8,8,-16,0,4,15,-5,5,-7
-1,-17,-15,9,7,-16,1,5,15,-7,4,-7
-2,-18,-15,11,6,-16,2,5,15,-8,3,-7
-3,-19,-16,12,6,-17,2,5,15,-8,3,-7
-3,-20,-17,12,7,-18,3,5,15,-9,3,-7
-3,-21,-18,12,8,-19,3,4,15,-9,2,-8
-3,-21,-17,12,7,-19,3,4,15,-10,2,-9
-4,-22,-17,13,7,-19,3,4,14,-11,2,-10
-5,-23,-18,14,7,-20,3,3,13,-12,1,-11
-5,-23,-18,14,7,-20,3,2,12,-13,1,-11
-5,-22,-17,14,6,-20,2,2,12,-14,1,-11
-5,-21,-16,13,6,-19,2,2,12,-14,1,-10
-5,-20,-15,13,5,-18,2,2,12,-14,1,-9
-5,-20,-14,13,5,-17,2,2,12,-14,1,-8
-6,-19,-13,13,4,-16,3,2,13,-14,1,-7
-7,-19,-13,13,4,-16,3,3,13,-14,0,-7
-6,-19,-14,13,4,-16,3,3,13,-15,0,-7
-5,-19,-14,12,5,-16,3,2,13,-16,1,-7
-4,-19,-14,11,5,-16,3,2,12,-17,1,-7
-4,-19,-15,12,5,-17,3,2,12,-18,0,-7
-5,-21,-16,13,5,-18,4,2,13,-19,0,-7
-6,-22,-17,14,6,-20,4,2,13,-18,0,-8
-5,-23,-18,14,7,-20,4,2,13,-17,0,-8
-5,-23,-19,14,7,-21,4,1,13,-16,0,-8
-4,-23,-18,13,7,-20,3,1,13,-15,0,-8
-4,-21,-17,12,6,-19,3,1,13,-14,1,-7
-5,-19,-14,11,4,-16,3,1,13,-13,2,-6
-5,-16,-10,10,3,-12,3,2,15,-10,3,-4
-5,-13,-7,9,1,-10,4,2,17,-6,5,-2
-6,-11,-4,9,0,-7,5,4,20,0,10,0
-8,-9,0,9,-3,-4,7,6,24,6,15,3
-9,-7,3,8,-5,-2,10,10,30,13,20,6
-9,-5,4,7,-6,0,13,15,37,21,27,10
-7,-2,5,4,-5,1,15,21,46,33,36,16
-3,2,5,0,-4,4,15,28,58,47,48,23
1,8,6,-5,-2,7,14,35,72,63,61,31
8,15,6,-11,1,10,13,43,87,80,75,41
16,20,3,-18,7,12,12,54,102,95,88,50
25,22,-4,-23,15,10,11,64,115,105,96,55
33,19,-15,-26,25,2,10,74,121,105,96,54
40,11,-30,-26,36,-9,11,83,122,96,88,47
46,1,-45,-24,46,-21,14,92,120,83,76,38
50,-7,-58,-22,55,-33,17,99,116,68,62,27
52,-16,-69,-18,61,-42,20,103,108,49,47,16
51,-23,-76,-14,64,-49,22,100,93,29,29,5
49,-30,-80,-8,65,-55,23,91,75,9,11,-6
45,-38,-83,-2,64,-60,23,79,55,-10,-6,-17
38,-44,-82,3,61,-62,23,62,34,-28,-22,-26
30,-49,-80,9,56,-63,23,43,13,-44,-35,-34
22,-54,-77,15,50,-64,23,23,-6,-58,-46,-40
14,-58,-74,21,44,-65,24,8,-21,-67,-53,-45
6,-61,-69,26,38,-64,26,0,-29,-73,-57,-48
0,-61,-62,30,32,-61,27,-5,-34,-75,-59,-49
-3,-59,-56,31,27,-58,28,-9,-36,-75,-59,-49
-4,-56,-52,31,24,-53,27,-10,-36,-73,-57,-46
-5,-52,-47,29,21,-49,26,-11,-34,-69,-54,-43
-7,-49,-41,28,17,-45,26,-10,-30,-63,-49,-40
-10,-47,-37,28,14,-42,28,-8,-26,-57,-45,-37
-11,-45,-34,27,12,-39,30,-5,-21,-51,-40,-34
-13,-42,-30,27,9,-36,32,-2,-16,-46,-36,-32
-15,-40,-25,27,5,-32,35,0,-14,-43,-34,-30
-17,-37,-20,27,1,-28,38,2,-12,-41,-31,-27
-19,-34,-15,27,-2,-24,42,3,-10,-38,-28,-24
-20,-31,-10,26,-5,-19,48,5,-8,-34,-26,-22
-22,-28,-6,26,-8,-17,52,5,-6,-31,-24,-19
-24,-27,-3,25,-9,-15,56,5,-4,-29,-22,-18
-24,-26,-2,24,-10,-14,60,5,-2,-27,-20,-17
-24,-25,-2,24,-10,-14,66,7,0,-25,-19,-17
-25,-26,-2,25,-11,-14,73,9,2,-25,-18,-17
-25,-27,-3,26,-11,-15,80,11,3,-24,-17,-18
-25,-29,-4,27,-10,-16,85,11,3,-24,-16,-19
-26,-30,-5,28,-10,-16,88,9,1,-25,-16,-19
-26,-29,-4,28,-11,-16,88,6,0,-25,-15,-18
-26,-28,-3,28,-11,-15,85,3,-1,-26,-15,-17
-26,-27,-2,27,-12,-14,81,0,-3,-27,-15,-16
-26,-26,-1,27,-12,-14,77,-2,-4,-27,-15,-15
-26,-26,0,26,-13,-13,73,-4,-4,-27,-15,-14
-25,-26,-1,26,-12,-13,67,-6,-4,-27,-15,-14
-24,-26,-2,26,-11,-14,61,-8,-4,-26,-15,-13
-23,-27,-5,26,-9,-15,53,-10,-4,-26,-14,-13
-20,-28,-7,25,-6,-17,46,-11,-4,-26,-14,-13
-18,-27,-9,24,-4,-18,38,-11,-3,-26,-13,-13
-17,-26,-10,22,-3,-18,30,-12,-2,-25,-12,-13
-16,-25,-11,21,-2,-18,21,-12,-2,-24,-11,-12
-14,-24,-11,19,-1,-18,13,-13,-1,-23,-9,-10
-12,-22,-10,17,-1,-16,6,-13,-1,-23,-7,-8
-10,-19,-10,15,0,-14,1,-12,0,-21,-6,-6
-8,-17,-10,13,1,-13,0,-11,2,-19,-4,-4
-6,-16,-10,12,1,-12,-1,-9,4,-17,-3,-3
-5,-15,-10,11,2,-12,-1,-8,6,-15,-2,-3
-4,-16,-11,11,4,-13,-1,-6,7,-14,-1,-4
-3,-16,-12,10,5,-14,-2,-5,9,-13,0,-4
-3,-15,-12,8,5,-13,-3,-3,10,-12,1,-3
-3,-13,-10,8,4,-11,-4,-2,11,-13,1,-1
-3,-12,-9,7,3,-10,-5,-2,10,-14,0,0
-3,-11,-8,7,2,-9,-6,-2,10,-15,0,0
-3,-11,-8,7,2,-8,-6,-2,9,-16,0,0
-3,-11,-7,7,2,-8,-6,-3,8,-16,0,1
-3,-10,-6,7,2,-8,-7,-3,8,-16,0,1
-3,-10,-7,7,2,-8,-7,-3,9,-15,1,1
-2,-10,-8,6,3,-10,-8,-2,11,-14,2,1
-1,-11,-10,6,4,-11,-8,-2,12,-13,3,0
-1,-12,-11,6,4,-11,-8,-2,12,-13,4,0
-1,-12,-11,7,4,-11,-9,-2,12,-13,5,0
-1,-13,-11,7,4,-11,-9,-2,12,-13,5,1
-1,-12,-11,6,4,-10,-9,-1,12,-13,5,2
-1,-11,-10,6,4,-10,-9,-1,12,-14,5,3
-1,-11,-9,6,4,-10,-9,-1,11,-15,4,3
-2,-11,-8,6,3,-10,-9,-2,11,-16,4,3
-2,-10,-8,6,3,-9,-10,-2,10,-17,4,3
-2,-9,-7,6,3,-8,-11,-3,9,-18,4,3
-1,-8,-7,5,3,-7,-12,-3,8,-18,4,4
0,-8,-7,4,3,-7,-12,-3,9,-17,4,4
0,-8,-7,4,4,-7,-12,-3,10,-16,5,4
0,-8,-8,5,4,-8,-11,-3,10,-16,5,4
0,-10,-8,6,4,-9,-11,-3,10,-15,5,4
-1,-11,-9,6,4,-10,-11,-3,10,-14,6,5
-1,-11,-9,6,4,-10,-11,-3,10,-14,7,5
-1,-10,-9,6,4,-10,-11,-3,9,-15,6,6
0,-9,-9,5,4,-9,-11,-3,8,-16,4,6
0,-9,-9,4,4,-8,-11,-3,8,-16,3,6
0,-8,-9,4,4,-7,-12,-3,8,-15,4,6
0,-6,-7,3,3,-6,-12,-3,8,-14,5,6
1,-5,-6,2,3,-5,-13,-4,8,-13,6,7
2,-4,-6,1,4,-4,-14,-4,8,-13,7,7
3,-3,-6,0,5,-4,-14,-3,8,-13,7,8
3,-3,-6,0,5,-4,-15,-3,9,-11,8,9
3,-3,-6,0,5,-4,-15,-3,10,-10,9,10
3,-4,-7,0,5,-5,-15,-3,10,-10,9,10
3,-4,-8,0,6,-6,-15,-4,9,-9,9,10
3,-4,-9,0,6,-6,-15,-5,8,-10,8,10
4,-4,-8,0,6,-6,-16,-6,7,-10,7,9
4,-3,-8,0,6,-5,-17,-6,7,-10,7,10
5,-1,-7,-1,6,-4,-18,-6,7,-10,8,10
5,0,-7,-2,6,-4,-18,-6,7,-9,8,9
6,0,-7,-3,6,-3,-19,-7,7,-9,9,9
6,0,-7,-3,6,-4,-19,-7,7,-9,9,9
6,-1,-8,-3,7,-4,-19,-6,7,-8,10,9
6,-1,-9,-2,7,-5,-19,-6,7,-8,10,10
5,-2,-9,-1,7,-5,-19,-7,6,-8,9,10
4,-4,-9,0,7,-6,-19,-7,6,-8,9,10
5,-5,-11,0,9,-8,-19,-7,6,-8,9,9
6,-5,-12,0,10,-8,-20,-7,6,-8,9,9
6,-4,-11,-1,9,-7,-20,-7,6,-7,10,10
7,-2,-10,-2,9,-6,-20,-8,6,-6,10,11
8,-1,-10,-3,9,-6,-21,-8,5,-7,10,11
9,0,-10,-4,9,-5,-22,-9,5,-7,10,12
9,0,-9,-5,10,-4,-22,-9,5,-6,11,13
9,1,-9,-5,9,-4,-23,-9,4,-5,11,13
9,0,-9,-4,9,-4,-23,-10,3,-6,11,14
9,0,-9,-4,10,-4,-23,-11,2,-7,11,14
9,1,-9,-5,10,-4,-23,-11,2,-7,11,14
10,1,-9,-5,10,-4,-23,-10,3,-6,11,15
9,0,-9,-5,9,-4,-23,-9,4,-5,11,15
8,0,-8,-4,8,-4,-23,-8,5,-4,12,15
8,0,-8,-4,8,-3,-22,-7,5,-4,13,14
8,1,-8,-4,8,-3,-22,-7,5,-3,13,14
8,0,-8,-4,8,-4,-22,-6,5,-4,13,13
8,0,-8,-4,8,-4,-21,-6,5,-4,12,14
8,1,-7,-4,8,-3,-21,-6,5,-5,11,14
8,2,-5,-5,7,-2,-21,-6,5,-5,10,15
8,2,-6,-5,7,-2,-21,-6,5,-5,9,16
9,2,-7,-5,8,-3,-20,-5,5,-4,10,15
9,1,-8,-5,9,-3,-19,-4,6,-4,11,15
9,1,-8,-5,9,-3,-18,-3,6,-3,12,15
9,1,-9,-5,9,-4,-18,-3,7,-1,13,15
10,1,-9,-6,10,-4,-18,-3,8,0,15,14
10,2,-9,-6,10,-4,-18,-3,8,0,15,14
11,2,-9,-6,10,-3,-18,-4,7,0,14,14
11,3,-8,-7,10,-3,-18,-5,5,-2,12,14
10,2,-8,-7,10,-3,-18,-5,4,-4,10,14
10,2,-8,-6,10,-3,-17,-5,3,-6,9,15
10,2,-7,-6,9,-3,-17,-4,4,-7,8,16
9,3,-6,-6,8,-2,-16,-3,5,-5,9,17
8,2,-5,-6,7,-2,-14,-1,7,-4,9,17
8,1,-6,-5,7,-2,-13,-1,9,-3,10,17
7,0,-6,-4,7,-3,-12,0,9,-2,10,17
6,0,-6,-3,7,-3,-11,0,10,-2,11,17
6,0,-6,-3,6,-3,-11,0,10,-2,10,16
6,0,-6,-3,7,-3,-10,0,10,-3,10,16
7,0,-7,-4,7,-3,-10,1,10,-4,9,16
7,0,-7,-4,7,-3,-10,1,10,-3,10,16
6,0,-7,-4,7,-3,-9,2,10,-2,10,16
6,0,-7,-3,7,-4,-8,2,10,-1,11,16
5,-1,-6,-2,6,-4,-6,3,11,-1,11,16
5,0,-5,-2,6,-3,-5,4,11,-1,11,16
5,0,-5,-2,5,-2,-5,5,11,-2,11,16
5,0,-4,-2,5,-2,-5,4,11,-2,11,16
5,0,-4,-2,4,-2,-5,4,10,-4,9,16
4,0,-3,-2,4,-1,-4,4,9,-6,7,16
3,0,-3,-2,3,-1,-3,4,8,-6,6,16
3,0,-3,-2,3,-1,-1,5,9,-4,7,16
3,0,-3,-1,3,-2,0,6,9,-3,7,15
2,-1,-4,0,3,-3,1,7,10,-2,7,14
1,-2,-4,0,3,-4,2,7,10,-2,7,14
1,-4,-5,1,3,-5,3,7,10,-2,7,13
1,-5,-6,2,3,-5,4,7,10,-2,7,13
1,-5,-6,2,3,-6,4,7,10,-3,6,12
0,-5,-6,2,3,-6,4,7,10,-4,6,11
1,-5,-6,2,4,-6,4,7,10,-4,6,11
1,-5,-7,1,5,-6,4,6,9,-4,5,10
1,-4,-6,1,4,-5,5,5,8,-5,5,11
0,-3,-3,1,2,-3,5,5,8,-6,4,12
-1,-3,-2,2,0,-2,6,5,7,-6,3,13
-1,-3,-2,2,0,-2,6,5,7,-6,3,13
-1,-3,-2,2,1,-3,7,5,7,-5,3,13
-1,-3,-2,2,1,-3,8,5,6,-5,3,13
-2,-4,-2,2,1,-3,9,5,6,-5,2,12
-2,-5,-3,3,1,-4,9,5,5,-5,1,11
-2,-5,-4,4,1,-5,9,5,5,-6,1,10
-3,-5,-3,4,0,-4,8,5,5,-6,1,10
-3,-5,-2,3,0,-3,8,5,5,-6,1,10
-3,-5,-2,3,0,-3,8,5,5,-6,1,9
-3,-5,-2,3,0,-3,7,4,5,-6,0,9
-3,-5,-3,4,0,-4,7,4,5,-6,0,9
-3,-5,-2,4,0,-4,6,3,4,-6,0,9
-3,-5,-2,4,0,-4,6,1,3,-6,0,9
-2,-5,-3,4,0,-4,6,0,2,-6,0,10
-2,-5,-3,4,0,-4,6,0,1,-6,0,10
-3,-5,-3,4,0,-4,6,0,0,-6,0,9
-3,-6,-3,5,0,-4,6,0,0,-6,0,9
-3,-7,-4,5,1,-5,6,0,0,-7,-1,8
-3,-6,-3,4,1,-4,6,0,0,-8,-1,9
-3,-5,-2,4,0,-3,6,0,1,-8,-1,10
-3,-4,-2,4,0,-3,6,0,1,-7,-1,10
-3,-4,-1,4,0,-3,6,0,1,-7,-1,10
-3,-3,0,4,-1,-2,6,0,1,-5,0,11
-3,-2,0,3,-1,0,6,1,2,-4,0,12
-3,-1,1,2,-1,0,6,1,2,-4,1,12
-3,-1,1,2,-1,0,6,1,3,-4,1,13
-3,-1,1,2,-2,0,5,1,3,-4,1,13
-3,-1,2,2,-2,1,5,1,3,-5,1,13
-3,-1,2,3,-2,1,4,0,2,-5,1,13
-3,-2,1,3,-2,0,4,0,2,-5,1,12
-2,-1,1,2,-1,0,4,0,2,-5,1,12
-2,0,1,2,-1,1,4,1,2,-5,1,12
-2,0,2,1,-1,1,4,1,2,-5,2,12
-2,0,1,1,-1,1,4,1,2,-5,2,12
-1,0,1,0,0,1,4,1,2,-5,2,12
-1,0,1,0,-1,1,3,1,2,-4,3,12
-1,0,2,0,-1,2,3,1,2,-4,3,12
-2,0,2,0,-2,2,3,1,2,-4,3,12
-2,0,3,0,-2,2,3,1,2,-4,3,13
-3,1,3,0,-2,2,3,1,2,-4,3,13
-3,1,4,0,-3,2,3,0,2,-4,3,13
-4,0,4,1,-3,2,2,0,1,-4,3,13
-4,0,4,1,-2,2,2,0,1,-4,3,13
-3,1,4,0,-2,2,2,0,1,-5,3,12
-2,1,4,0,-2,2,2,0,1,-5,3,12
-2,1,3,0,-2,2,2,0,0,-5,3,12
-1,1,3,0,-1,2,2,0,0,-5,3,12
-1,1,3,0,-1,2,2,0,0,-6,3,12
-1,2,3,0,-1,2,2,0,0,-6,2,12
0,2,3,0,-1,2,2,0,0,-6,2,12
0,2,2,0,0,2,2,0,0,-6,2,12
0,1,2,0,0,2,2,0,0,-5,2,11
0,1,2,0,-1,2,2,-1,0,-5,3,11
0,1,3,0,-1,2,2,-1,0,-5,3,10
0,1,2,0,-1,2,2,-1,0,-5,3,10
0,1,2,0,-1,1,1,-2,-1,-5,3,10
-1,1,2,0,-1,1,1,-2,-1,-5,3,9
-1,1,3,0,-2,2,0,-2,-1,-5,3,9
-2,1,3,0,-2,2,1,-2,-1,-5,3,9
-2,0,2,0,-1,1,1,-2,-1,-5,3,8
-1,0,2,0,-1,2,1,-2,-1,-5,3,8
-1,1,3,0,-2,2,1,-2,-1,-5,3,7
-1,1,3,0,-2,2,1,-3,-2,-5,3,7
-1,0,3,0,-1,1,0,-3,-2,-5,3,7
-1,1,3,0,-1,1,0,-4,-2,-4,3,6
-1,1,3,0,-1,1,0,-4,-2,-4,4,6
-1,1,2,0,-1,1,0,-4,-2,-4,4,6
-1,0,2,0,-1,1,0,-4,-3,-4,4,6
-1,0,2,0,-1,1,0,-4,-3,-4,4,5
-2,0,3,0,-2,2,0,-4,-3,-4,4,5
-2,0,3,1,-2,2,0,-4,-3,-4,4,5
-2,0,3,1,-2,1,0,-5,-3,-3,4,4
-2,0,3,0,-2,1,0,-5,-4,-3,4,4
-2,1,3,0,-2,2,0,-5,-4,-2,4,4
-2,1,4,0,-2,2,0,-5,-4,-2,4,4
-1,1,3,0,-2,2,1,-5,-4,-1,4,4
-1,1,3,0,-2,2,1,-5,-4,-1,4,4
-1,2,3,-1,-2,3,1,-5,-4,0,4,4
0,2,4,-1,-2,3,1,-6,-4,0,4,4
0,3,4,-1,-2,3,1,-6,-4,1,4,4
0,3,4,-2,-2,4,1,-6,-4,2,4,4
0,4,4,-2,-2,4,1,-6,-4,3,4,4
0,5,5,-3,-2,5,2,-6,-4,4,4,4
0,6,5,-3,-2,5,2,-6,-4,4,4,4
0,6,5,-3,-2,5,3,-6,-4,5,4,4
0,6,6,-3,-3,6,3,-6,-3,5,4,4
0,6,7,-3,-4,6,4,-5,-3,6,5,4
0,6,7,-3,-4,6,4,-5,-3,6,5,4
-1,6,7,-3,-4,6,4,-4,-3,7,5,4
-1,7,8,-3,-5,7,4,-4,-3,7,6,4
-1,8,9,-3,-5,8,4,-4,-2,8,6,5
-1,8,9,-4,-5,8,4,-4,-2,9,7,5
0,9,9,-4,-4,9,4,-3,-1,10,7,6
0,9,9,-5,-4,9,4,-3,0,10,7,7
0,9,10,-5,-5,10,4,-3,0,11,7,7
0,9,10,-5,-5,10,3,-3,0,11,7,6
0,9,9,-5,-4,10,3,-3,0,11,7,6
1,10,9,-6,-4,10,3,-3,0,11,7,6
1,10,9,-6,-4,10,2,-4,-1,11,7,6
0,10,9,-5,-4,10,1,-5,-1,11,7,6
0,10,9,-5,-4,9,0,-5,-1,11,7,6
0,9,9,-5,-4,9,0,-6,-2,11,7,6
0,9,8,-5,-3,8,-1,-6,-2,11,7,6
1,9,8,-5,-3,8,-1,-7,-2,11,7,6
1,8,7,-5,-2,7,-1,-7,-2,11,7,6
1,8,6,-5,-2,7,-2,-7,-3,11,7,6
2,8,6,-5,-1,6,-2,-8,-3,11,7,5
2,7,5,-5,0,6,-3,-8,-3,11,7,4
2,6,3,-5,0,4,-3,-8,-3,11,7,3
2,5,2,-4,0,3,-3,-8,-3,10,6,3
2,4,3,-4,0,3,-3,-8,-3,10,6,3
2,5,3,-4,0,4,-3,-8,-3,9,6,3
2,5,3,-4,0,4,-3,-8,-2,9,6,4
2,4,3,-4,0,4,-3,-8,-2,9,7,4
2,4,3,-4,0,4,-3,-8,-2,8,7,4
2,4,3,-3,0,4,-4,-8,-2,8,6,4
2,4,2,-3,0,3,-4,-7,-2,8,6,4
3,4,2,-4,1,3,-4,-7,-2,8,6,4
3,5,2,-4,1,3,-4,-8,-3,7,6,3
4,5,2,-5,1,4,-4,-8,-3,7,5,3
4,6,2,-5,1,4,-4,-9,-3,7,5,3
4,6,2,-5,1,4,-4,-9,-3,7,5,3
4,6,2,-5,1,4,-4,-9,-3,7,5,3
3,6,3,-5,0,4,-4,-8,-2,7,6,3
2,6,4,-4,-1,5,-4,-8,-2,7,6,3
2,6,4,-4,-1,5,-4,-7,-2,7,6,3
1,5,4,-3,-1,5,-4,-7,-1,7,6,3
0,5,5,-2,-2,5,-4,-7,-1,7,6,3
-2,4,6,-1,-3,5,-4,-6,-1,7,5,2
-2,4,6,-1,-3,5,-3,-6,0,7,5,1
-3,4,6,0,-4,5,-3,-6,0,7,5,0
-3,4,7,0,-4,5,-3,-6,-1,6,5,0
-3,3,7,0,-5,5,-3,-6,-1,5,5,0
-3,3,6,0,-4,4,-3,-6,-1,4,4,0
-2,2,5,0,-4,4,-3,-6,-1,4,5,0
-3,2,5,0,-4,3,-3,-6,-1,3,5,0
-4,1,5,0,-4,3,-3,-6,-1,3,5,0
-5,0,5,1,-4,2,-2,-5,-1,2,5,0
-5,0,5,2,-4,2,-2,-5,-1,2,5,0
-6,0,5,2,-5,2,-2,-4,0,1,5,0
-6,0,6,2,-5,3,-2,-4,0,1,5,0
-6,0,6,2,-5,3,-2,-4,0,1,6,0
-6,0,6,3,-5,2,-2,-4,0,1,6,0
-6,0,6,3,-5,2,-2,-5,0,1,6,-1
-5,0,5,3,-5,2,-2,-5,0,0,6,-1
-5,0,4,3,-4,2,-2,-5,0,0,6,-1
-5,-1,3,3,-4,1,-2,-6,-1,0,6,-1
-5,-1,3,2,-4,1,-3,-6,-1,-1,6,-1
-5,0,4,2,-4,2,-3,-6,-1,-1,6,0
-5,0,5,2,-5,2,-3,-5,-1,-1,6,0
-6,0,6,2,-5,2,-2,-4,0,-1,6,-1
-6,0,6,3,-6,3,-2,-3,0,-1,6,-1
-7,0,7,3,-7,3,-2,-3,0,-2,6,-1
-8,0,7,4,-8,3,-2,-3,0,-2,6,-1
-9,0,8,4,-8,3,-2,-3,0,-1,7,-1
-9,0,9,3,-9,4,-3,-4,0,-1,8,0
-8,3,11,2,-9,6,-4,-6,0,-1,9,1
-8,6,14,0,-10,9,-5,-7,0,0,10,3
-8,9,17,0,-12,12,-5,-8,1,2,13,5
-8,12,20,-1,-13,15,-4,-6,3,5,17,8
-7,15,23,-3,-15,18,-2,-3,8,11,21,11
-6,18,25,-6,-16,21,0,0,14,19,28,16
-5,23,28,-9,-16,24,0,6,24,31,39,23
-2,27,29,-13,-16,28,0,11,36,47,51,31
2,33,31,-18,-14,32,0,18,51,64,66,40
8,40,32,-24,-12,36,0,28,68,84,83,49
14,45,31,-30,-8,38,0,39,87,103,100,59
21,46,25,-34,-2,36,0,52,103,116,111,65
28,43,16,-35,6,29,2,65,116,121,115,66
33,37,4,-35,15,20,5,78,126,120,113,63
39,29,-9,-34,24,9,9,91,135,116,107,57
43,20,-23,-32,33,-2,13,102,140,108,98,50
45,12,-34,-29,40,-12,17,108,138,94,85,40
46,4,-42,-26,45,-20,18,107,127,74,68,29
45,-2,-48,-21,47,-26,18,100,109,50,48,17
42,-9,-52,-16,47,-31,17,88,86,24,27,4
38,-16,-53,-10,45,-35,16,70,59,-1,6,-8
31,-21,-52,-4,42,-37,13,48,29,-25,-12,-19
24,-26,-50,1,38,-39,11,26,2,-45,-27,-28
17,-31,-49,7,34,-41,11,9,-18,-59,-38,-34
11,-35,-47,11,30,-42,12,0,-29,-67,-45,-39
5,-36,-44,15,25,-41,14,-5,-35,-71,-48,-41
2,-37,-40,17,21,-39,14,-8,-38,-72,-49,-42
0,-36,-36,17,19,-36,13,-11,-39,-71,-48,-41
0,-33,-31,17,16,-33,12,-12,-39,-69,-45,-38
-2,-30,-26,17,13,-28,12,-12,-38,-64,-42,-35
-4,-26,-21,16,9,-24,13,-11,-35,-59,-38,-33
-7,-24,-16,16,5,-20,16,-9,-32,-54,-34,-30
-10,-22,-11,16,0,-17,19,-6,-29,-49,-31,-27
-13,-19,-7,15,-3,-13,23,-4,-26,-46,-28,-25
-15,-16,-1,14,-7,-9,27,-2,-24,-43,-26,-22
-17,-13,3,14,-10,-5,31,-1,-22,-41,-23,-21
-18,-11,7,14,-12,-2,35,0,-21,-39,-21,-20
-18,-9,10,14,-14,0,39,0,-20,-37,-19,-19
-19,-8,12,14,-15,2,43,0,-19,-35,-18,-18
-20,-7,13,13,-15,3,47,0,-19,-33,-16,-17
-21,-7,13,13,-16,3,53,1,-18,-32,-15,-16
-22,-7,14,14,-18,3,59,2,-17,-31,-14,-15
-24,-7,16,14,-19,3,63,2,-17,-30,-13,-15
-24,-7,16,15,-20,3,65,2,-17,-30,-13,-15
-24,-7,16,15,-20,3,66,0,-18,-31,-13,-15
-24,-7,17,15,-20,4,64,-1,-19,-31,-13,-15
-24,-7,18,15,-21,4,61,-4,-21,-30,-14,-15
-24,-7,18,16,-21,4,56,-7,-22,-30,-14,-15
-24,-8,17,16,-20,4,51,-10,-23,-30,-13,-15
-23,-8,15,15,-19,3,44,-12,-24,-30,-13,-14
-23,-7,14,14,-19,3,37,-15,-24,-29,-12,-14
-22,-7,13,14,-18,3,30,-17,-25,-29,-12,-13
-21,-8,12,14,-16,1,24,-18,-25,-29,-11,-13
-19,-9,10,13,-15,0,19,-18,-25,-28,-11,-13
-17,-8,10,12,-13,1,13,-18,-24,-27,-10,-11
-15,-6,9,10,-12,1,8,-18,-23,-25,-9,-9
-12,-4,9,8,-10,2,2,-18,-22,-22,-7,-8
-10,-2,8,6,-9,2,-2,-16,-20,-19,-5,-6
-9,0,8,4,-8,3,-5,-15,-18,-16,-3,-4
-8,2,9,2,-8,4,-7,-14,-16,-15,-1,-3
-7,2,9,1,-7,5,-8,-12,-14,-14,0,-2
-6,3,8,1,-6,5,-8,-10,-13,-13,1,-2
-4,3,8,0,-5,5,-8,-9,-12,-12,2,-1
-3,4,8,0,-5,5,-9,-8,-11,-11,2,-1
-3,4,7,-1,-4,5,-10,-9,-11,-10,3,-1
-2,4,7,-1,-4,5,-11,-9,-11,-9,3,-1
-2,5,6,-2,-3,5,-12,-9,-11,-8,4,-1
-2,5,6,-2,-3,5,-12,-9,-11,-7,4,-1
-2,5,6,-2,-3,5,-13,-9,-11,-7,4,-2
-1,5,5,-3,-3,5,-13,-9,-10,-7,4,-2
0,5,5,-3,-2,5,-13,-9,-10,-6,4,-1
0,6,5,-3,-2,5,-13,-8,-11,-6,4,-1
0,6,6,-3,-2,6,-13,-8,-11,-6,5,-1
0,6,6,-3,-2,6,-13,-8,-11,-5,5,-1
0,6,6,-3,-2,6,-13,-8,-11,-5,5,-1
0,7,6,-4,-3,6,-13,-8,-11,-5,5,-1
0,7,7,-4,-3,7,-13,-8,-11,-5,5,-1
0,7,7,-4,-2,7,-13,-8,-10,-4,5,-2
1,7,7,-4,-2,7,-13,-7,-10,-3,6,-2
1,7,7,-4,-2,7,-14,-7,-10,-3,6,-2
1,7,7,-4,-2,7,-15,-8,-11,-3,6,-2
1,7,6,-4,-2,6,-15,-8,-11,-3,6,-1
1,7,6,-5,-2,6,-15,-8,-11,-3,6,0
1,8,6,-5,-2,6,-16,-8,-11,-3,7,0
2,8,6,-5,-2,6,-16,-9,-11,-2,7,1
2,8,6,-5,-2,6,-16,-9,-11,-2,8,2
2,8,6,-5,-1,6,-16,-9,-11,-1,8,2
2,8,6,-5,-1,6,-17,-9,-11,-1,8,1
2,9,6,-5,-1,7,-17,-9,-11,-1,8,1
2,9,6,-6,-1,7,-17,-9,-11,-1,9,1
3,9,5,-6,0,7,-17,-9,-11,0,9,1
3,9,5,-6,0,7,-17,-9,-11,0,9,2
3,9,5,-6,-1,7,-17,-9,-11,0,9,1
3,9,5,-6,-1,6,-18,-9,-11,0,9,1
4,9,5,-6,0,6,-18,-9,-11,0,9,2
4,9,4,-7,0,6,-19,-9,-12,-1,9,2
5,9,4,-7,0,6,-19,-9,-12,0,9,2
5,10,4,-8,0,7,-20,-9,-11,1,10,2
6,10,4,-8,1,7,-20,-8,-11,2,10,3
6,10,4,-8,1,7,-21,-8,-10,2,11,3
6,10,5,-8,0,7,-21,-7,-10,2,11,4
6,11,6,-9,0,7,-22,-7,-10,3,12,4
6,11,6,-9,0,7,-22,-7,-10,3,13,4
5,11,6,-8,0,7,-22,-7,-10,4,13,5
5,11,6,-8,0,8,-22,-6,-10,4,14,6
5,11,6,-8,0,8,-23,-6,-10,5,14,6
5,11,5,-8,0,8,-23,-6,-10,5,14,6
6,11,5,-9,1,8,-24,-6,-10,6,14,6
6,11,5,-9,1,8,-24,-6,-10,7,14,6
7,12,5,-10,1,8,-24,-6,-10,8,14,6
8,12,4,-11,2,8,-25,-7,-10,8,14,6
10,12,3,-12,4,7,-25,-7,-11,8,14,6
11,13,2,-12,4,7,-26,-7,-11,8,14,6
11,13,2,-12,4,7,-27,-7,-11,8,14,6
10,13,2,-12,4,7,-27,-7,-12,8,14,6
10,13,2,-12,5,7,-28,-8,-12,8,14,6
11,13,2,-13,5,7,-28,-8,-12,9,14,5
11,14,2,-13,5,8,-28,-7,-12,9,15,5
12,14,2,-14,5,8,-28,-7,-12,10,14,5
12,14,2,-14,5,8,-28,-7,-12,10,14,5
13,15,2,-14,6,8,-28,-7,-12,11,14,6
13,15,2,-15,6,9,-28,-7,-12,11,15,6
14,16,2,-15,6,9,-28,-7,-13,11,15,6
14,15,1,-15,7,8,-29,-8,-14,11,15,6
15,15,1,-16,7,8,-29,-9,-15,11,15,6
16,17,1,-17,8,8,-29,-9,-15,11,16,6
16,17,2,-17,8,9,-30,-9,-15,11,16,7
16,18,2,-17,7,9,-30,-9,-15,11,16,7
16,19,3,-18,7,10,-29,-8,-14,12,17,8
16,20,5,-18,6,12,-28,-7,-13,12,18,8
16,22,6,-19,5,13,-28,-6,-13,13,19,8
16,23,7,-20,5,14,-27,-5,-12,14,19,7
16,23,8,-20,4,15,-26,-4,-11,15,20,8
16,23,8,-20,4,15,-25,-3,-10,15,20,9
15,23,9,-20,4,16,-25,-2,-10,14,20,10
15,23,9,-20,4,16,-24,-2,-10,14,20,10
15,24,9,-20,4,16,-23,-2,-10,15,20,11
16,24,9,-21,4,16,-23,-2,-10,15,20,10
16,24,9,-21,3,16,-22,-1,-10,15,20,10
15,24,9,-21,3,16,-22,-1,-10,16,20,9
15,24,8,-20,3,16,-22,-1,-10,16,21,9
15,23,8,-20,3,16,-21,-1,-10,16,21,9
15,23,8,-20,4,16,-20,-1,-10,16,21,8
15,23,8,-19,4,15,-19,-1,-9,15,21,8
14,21,7,-18,4,14,-19,0,-9,15,20,8
13,20,7,-17,4,13,-19,0,-9,15,20,8
12,19,7,-16,3,12,-19,0,-9,15,21,7
12,19,6,-16,3,12,-18,1,-8,15,21,6
12,18,6,-16,4,11,-18,1,-8,15,21,5
12,18,5,-16,4,11,-18,1,-9,15,20,5
12,18,6,-15,4,11,-18,1,-9,15,20,5
11,17,6,-15,4,11,-18,0,-10,15,20,4
11,17,5,-14,4,11,-18,-1,-12,14,20,3
12,16,5,-14,4,10,-18,-1,-12,13,19,3
12,17,5,-15,4,10,-17,-1,-12,12,19,4
12,17,5,-15,4,11,-17,-1,-12,12,19,5
12,17,5,-15,4,11,-17,-1,-13,11,18,5
12,16,4,-14,4,10,-16,-2,-13,11,18,5
12,15,3,-14,5,9,-16,-2,-13,10,17,5
12,15,3,-14,5,8,-15,-2,-14,9,16,5
12,14,2,-13,5,8,-14,-2,-15,8,15,4
11,13,2,-13,5,7,-13,-2,-15,8,14,3
11,13,2,-12,4,7,-13,-2,-16,7,13,2
10,12,3,-12,3,7,-12,-2,-16,7,13,1
9,12,3,-11,3,7,-12,-2,-16,7,12,1
10,11,2,-11,4,7,-11,-1,-16,7,11,0
10,11,2,-11,4,7,-10,-1,-16,7,11,0
9,11,3,-11,4,7,-9,-1,-16,7,10,0
9,11,3,-11,4,7,-9,-1,-17,6,10,0
10,11,2,-11,4,7,-9,-2,-17,6,9,0
10,12,2,-11,4,7,-8,-2,-18,5,9,0
9,13,3,-11,4,8,-8,-2,-18,4,9,0
8,13,4,-11,3,8,-7,-2,-18,4,9,0
7,12,4,-10,3,8,-7,-3,-18,3,9,0
7,11,4,-10,2,7,-7,-3,-19,3,8,-1
6,10,5,-9,2,7,-7,-4,-19,2,8,-1
6,10,5,-9,1,7,-7,-4,-19,2,7,-2
6,10,5,-8,1,7,-6,-4,-19,1,6,-2
5,9,5,-7,1,7,-6,-4,-20,0,5,-2
3,9,6,-6,0,7,-5,-5,-20,0,5,-2
2,8,7,-5,-2,7,-5,-5,-21,-1,4,-3
1,8,7,-5,-2,7,-5,-6,-22,-2,4,-3
0,7,7,-4,-3,7,-4,-6,-23,-3,3,-2
0,7,8,-4,-3,7,-4,-7,-23,-3,2,-2
-1,7,8,-3,-4,7,-4,-7,-23,-3,2,-2
-2,6,8,-2,-4,7,-4,-7,-23,-3,2,-3
-2,6,8,-2,-4,7,-3,-7,-23,-3,2,-4
-2,5,7,-1,-4,6,-3,-7,-24,-4,1,-4
-2,5,7,-1,-4,6,-3,-8,-24,-4,0,-5
-3,5,8,-1,-5,6,-3,-8,-24,-4,0,-5
-4,4,8,-1,-5,5,-3,-8,-24,-5,0,-4
-4,3,8,0,-5,5,-3,-9,-25,-5,0,-4
-4,4,9,0,-6,6,-3,-9,-25,-5,0,-4
-4,4,9,0,-6,6,-3,-9,-26,-6,0,-4
-4,5,9,0,-6,6,-3,-9,-26,-6,0,-3
-4,5,8,0,-6,6,-3,-10,-26,-7,0,-3
-4,5,9,0,-6,6,-3,-10,-26,-7,0,-4
-4,5,9,-1,-6,7,-3,-10,-26,-7,-1,-4
-3,5,9,-1,-5,7,-2,-10,-26,-7,-1,-5
-3,5,8,-1,-5,6,-2,-10,-26,-7,-1,-5
-4,4,8,-1,-6,6,-2,-10,-26,-7,-2,-6
-4,4,9,-1,-6,6,-2,-10,-26,-7,-2,-6
-4,4,9,0,-6,6,-2,-10,-26,-6,-1,-6
-4,4,9,0,-6,6,-2,-9,-26,-6,-1,-5
-5,5,9,0,-6,7,-1,-9,-26,-6,0,-4
-5,5,10,0,-7,7,-1,-9,-26,-6,0,-4
-5,5,9,0,-7,7,-1,-9,-25,-7,0,-5
-5,5,9,0,-7,7,-1,-9,-25,-7,0,-6
-5,5,10,0,-7,7,-1,-9,-25,-6,0,-6
-5,5,11,0,-7,8,-1,-9,-25,-5,0,-4
-4,5,10,0,-6,8,-2,-9,-25,-5,0,-3
-4,5,9,0,-6,7,-2,-9,-25,-4,0,-3
-5,5,10,0,-6,7,-2,-9,-25,-4,0,-3
-5,5,10,0,-7,7,-2,-9,-25,-4,0,-4
-5,5,10,0,-7,7,-2,-9,-24,-4,0,-4
-5,5,10,0,-7,7,-2,-9,-24,-4,0,-4
-5,5,10,0,-7,7,-2,-9,-24,-5,0,-4
-6,5,10,0,-7,8,-2,-9,-24,-5,0,-5
-6,4,11,1,-8,8,-2,-9,-23,-5,0,-5
-6,4,10,1,-8,7,-2,-9,-23,-5,0,-5
-6,4,10,0,-8,7,-3,-9,-22,-5,0,-5
-6,5,11,0,-8,8,-3,-9,-22,-5,0,-5
-6,5,11,0,-8,8,-3,-9,-22,-5,0,-5
-6,5,11,0,-7,7,-3,-9,-22,-5,0,-5
-5,5,10,0,-7,7,-3,-9,-22,-5,0,-5
-4,6,10,-1,-6,8,-3,-8,-22,-5,0,-4
-4,7,11,-1,-6,9,-2,-8,-22,-5,0,-4
-3,7,11,-2,-6,9,-2,-8,-22,-5,0,-4
-3,7,10,-2,-6,9,-2,-8,-22,-5,0,-4
-3,7,10,-2,-6,9,-3,-9,-23,-6,0,-4
-3,7,11,-1,-6,9,-3,-9,-23,-6,0,-4
-4,7,10,-1,-6,8,-3,-9,-23,-6,0,-5
-3,6,9,-1,-6,8,-3,-9,-23,-6,0,-6
-3,7,9,-1,-6,8,-3,-10,-24,-7,0,-6
-4,8,11,-2,-7,9,-4,-11,-24,-7,-1,-6
-4,9,14,-2,-8,11,-4,-12,-24,-7,-1,-5
-5,11,16,-2,-10,13,-4,-13,-25,-7,0,-3
-6,14,20,-3,-12,16,-4,-14,-25,-6,1,-1
-6,17,24,-5,-14,20,-5,-15,-24,-3,5,1
-7,21,28,-6,-17,24,-4,-15,-23,1,10,5
-7,24,31,-8,-18,27,-3,-14,-19,6,15,8
-7,27,33,-10,-19,29,-2,-10,-13,14,21,11
-5,31,36,-13,-20,33,-1,-5,-2,27,29,16
-2,36,38,-17,-19,37,0,2,11,43,41,23
1,41,39,-21,-18,40,0,11,28,62,54,31
7,47,40,-27,-16,43,1,24,49,83,71,40
14,53,39,-33,-12,45,4,40,72,105,88,49
21,55,34,-38,-5,44,7,57,94,123,101,55
28,52,23,-40,3,37,10,74,112,132,107,56
35,46,9,-40,13,27,15,92,125,133,106,54
40,37,-4,-39,23,16,20,108,135,129,101,48
43,28,-17,-36,31,5,26,122,139,120,91,41
45,18,-28,-32,38,-5,31,130,135,104,78,31
45,9,-37,-28,42,-14,34,128,121,83,60,20
44,0,-43,-23,45,-21,35,117,98,57,41,8
41,-7,-47,-17,45,-27,34,100,69,28,19,-4
36,-13,-49,-11,43,-32,32,77,36,-1,-2,-16
29,-20,-50,-4,41,-35,28,48,0,-28,-21,-27
21,-26,-49,2,37,-38,24,19,-32,-50,-37,-36
13,-32,-47,9,31,-39,23,-1,-54,-64,-49,-42
6,-35,-43,14,26,-39,24,-13,-66,-72,-56,-47
1,-36,-39,17,21,-38,26,-19,-71,-75,-59,-49
0,-34,-35,17,18,-35,26,-22,-72,-74,-59,-49
-1,-31,-29,16,15,-31,26,-24,-71,-71,-56,-48
-3,-27,-23,15,11,-26,26,-24,-68,-66,-52,-45
-4,-22,-18,14,7,-20,27,-22,-64,-60,-47,-41
-6,-17,-12,12,3,-14,29,-18,-58,-53,-42,-36
-9,-12,-5,10,-1,-8,33,-13,-52,-46,-36,-32
-12,-8,2,9,-6,-2,37,-9,-47,-40,-32,-28
-14,-5,8,9,-10,2,41,-6,-42,-35,-29,-26
-17,-2,15,9,-15,6,47,-3,-38,-31,-26,-24
-19,0,20,9,-19,9,53,-1,-35,-28,-23,-23
-20,1,23,9,-21,12,58,0,-33,-27,-21,-22
-21,2,24,9,-21,13,64,2,-32,-25,-20,-21
-22,2,24,9,-22,13,71,4,-31,-24,-19,-20
-23,2,24,10,-22,13,78,6,-30,-22,-19,-19
-24,2,24,10,-23,13,82,6,-29,-21,-19,-18
-25,1,24,11,-24,13,83,4,-30,-21,-19,-18
-25,0,24,12,-24,12,82,0,-32,-22,-19,-19
-26,-1,25,13,-25,11,79,-3,-34,-23,-20,-19
-27,-2,26,14,-25,11,77,-6,-35,-24,-20,-20
-27,-2,25,14,-25,11,73,-9,-37,-25,-20,-20
-27,-3,24,14,-24,10,67,-13,-39,-25,-20,-20
-26,-3,22,14,-23,10,59,-17,-40,-25,-20,-20
-25,-3,21,13,-22,10,49,-20,-41,-25,-20,-20
-23,-3,19,12,-20,9,39,-23,-41,-24,-19,-19
-20,-2,17,11,-18,8,29,-25,-40,-22,-17,-18
-17,0,16,8,-16,8,21,-25,-39,-20,-15,-16
-13,2,16,5,-14,8,13,-24,-37,-18,-13,-14
-10,4,15,3,-12,9,7,-23,-34,-15,-11,-13
-8,6,14,1,-11,10,2,-22,-32,-13,-9,-11
-6,8,14,-1,-10,11,-1,-21,-30,-10,-7,-10
-5,10,14,-2,-9,12,-5,-20,-28,-8,-5,-9
-5,11,15,-3,-9,13,-8,-19,-26,-7,-4,-8
-4,12,15,-4,-8,13,-10,-19,-25,-6,-4,-7
-4,12,15,-4,-8,13,-11,-18,-24,-5,-4,-6
-3,12,15,-5,-7,13,-12,-18,-24,-5,-3,-6
-2,13,15,-5,-7,13,-12,-18,-24,-4,-3,-6
-1,13,14,-6,-7,13,-12,-18,-24,-4,-2,-6
-1,14,14,-6,-7,13,-14,-18,-24,-4,-2,-6
-1,14,14,-7,-7,14,-15,-18,-23,-3,-1,-6
-1,14,14,-7,-7,15,-16,-18,-23,-3,-1,-6
-1,14,14,-7,-7,14,-17,-18,-22,-2,-1,-6
-1,14,14,-7,-6,14,-17,-18,-22,-2,-1,-6
0,14,13,-7,-6,13,-17,-18,-21,-2,-1,-6
0,14,13,-7,-6,13,-17,-18,-21,-2,-2,-6
0,14,13,-7,-6,13,-16,-17,-20,-2,-2,-6
0,14,13,-7,-6,13,-16,-17,-20,-2,-2,-6
0,14,13,-7,-6,13,-17,-17,-20,-2,-2,-7
-1,14,14,-7,-6,13,-17,-16,-20,-2,-2,-7
-1,13,14,-7,-6,13,-18,-16,-19,-1,-2,-7
0,13,13,-7,-5,13,-18,-16,-19,-1,-2,-7
0,12,12,-7,-5,12,-18,-16,-19,-1,-2,-7
0,12,12,-7,-4,12,-18,-16,-19,-1,-2,-7
0,13,12,-7,-4,12,-18,-16,-19,-1,-2,-8
0,13,12,-7,-4,12,-18,-16,-19,-1,-1,-8
0,13,12,-7,-5,12,-19,-16,-19,-1,-1,-8
0,13,13,-7,-5,13,-19,-16,-18,-1,-1,-8
0,14,14,-8,-5,14,-19,-16,-18,-1,-1,-7
0,14,14,-8,-5,14,-20,-16,-18,-1,-1,-7
0,14,14,-8,-5,14,-20,-16,-18,-1,-1,-7
0,14,14,-8,-6,14,-20,-15,-17,0,-1,-7
0,15,14,-9,-6,14,-20,-15,-17,0,-1,-6
1,15,13,-9,-5,14,-20,-14,-16,0,0,-6
1,15,13,-9,-4,14,-20,-14,-15,1,0,-6
2,16,13,-9,-4,15,-20,-14,-15,1,0,-6
3,16,13,-10,-4,15,-21,-15,-15,1,0,-6
4,16,12,-10,-3,14,-21,-15,-15,1,0,-6
5,16,12,-11,-2,14,-22,-15,-15,1,0,-6
5,16,12,-11,-2,14,-22,-15,-15,1,0,-6
4,17,12,-11,-3,14,-22,-15,-15,1,0,-6
4,16,12,-11,-3,14,-22,-15,-15,2,1,-6
4,16,12,-10,-3,14,-22,-15,-15,2,1,-6
3,16,12,-10,-4,14,-23,-15,-14,2,1,-6
3,16,13,-10,-4,15,-23,-15,-14,2,1,-6
3,16,12,-10,-3,14,-24,-15,-14,3,1,-6
4,15,11,-10,-2,13,-24,-15,-14,3,1,-6
4,16,11,-10,-2,13,-25,-15,-14,4,1,-6
4,16,12,-11,-2,14,-25,-15,-14,4,1,-6
4,17,12,-11,-2,14,-26,-16,-15,4,0,-6
5,17,12,-11,-2,14,-26,-17,-15,4,0,-6
6,17,11,-12,-1,14,-27,-17,-15,4,0,-6
6,18,11,-13,-1,15,-27,-17,-15,4,0,-6
7,19,11,-13,-1,15,-28,-17,-15,4,0,-6
7,18,10,-13,0,14,-28,-17,-15,4,0,-6
7,18,9,-13,0,14,-28,-17,-15,4,0,-6
7,18,9,-13,0,13,-28,-18,-15,5,0,-7
7,17,9,-13,0,13,-29,-18,-15,5,0,-7
8,17,8,-13,0,12,-29,-19,-15,6,0,-7
8,16,7,-13,1,11,-29,-19,-15,7,0,-7
9,15,6,-13,2,10,-29,-19,-15,8,-1,-8
9,15,5,-13,3,10,-30,-20,-15,8,-1,-8
9,14,5,-13,3,10,-30,-20,-15,8,-2,-8
9,14,4,-13,3,10,-30,-20,-15,9,-2,-8
9,14,4,-13,3,10,-30,-20,-15,9,-3,-9
9,15,5,-13,3,10,-30,-20,-15,9,-4,-9
9,15,5,-13,3,10,-30,-20,-15,9,-4,-9
10,15,4,-13,4,9,-30,-20,-15,9,-4,-9
10,15,4,-13,4,9,-31,-20,-15,9,-4,-9
10,15,4,-14,4,10,-31,-20,-15,9,-5,-9
11,15,4,-14,4,10,-31,-20,-15,8,-5,-9
11,15,3,-14,5,9,-31,-20,-16,7,-5,-10
11,15,3,-14,5,9,-31,-20,-16,7,-5,-10
11,15,3,-14,5,9,-31,-20,-16,7,-5,-10
11,15,3,-14,5,9,-31,-21,-16,8,-4,-10
11,15,3,-14,5,9,-30,-21,-15,8,-4,-10
11,15,3,-14,5,9,-30,-21,-15,9,-4,-10
11,15,3,-14,5,9,-29,-21,-14,10,-3,-10
11,15,4,-14,4,9,-29,-20,-14,10,-3,-10
11,15,4,-13,4,9,-28,-20,-13,10,-2,-10
10,15,4,-13,4,9,-27,-19,-13,11,-1,-10
10,15,5,-13,3,10,-27,-19,-12,11,-1,-10
9,15,5,-13,2,10,-26,-18,-12,11,-1,-10
8,14,5,-12,3,9,-25,-17,-11,11,0,-10
9,13,4,-13,3,9,-24,-17,-11,12,0,-10
9,13,4,-13,3,9,-24,-16,-10,12,0,-10
8,13,5,-12,2,9,-23,-16,-10,12,1,-10
8,13,5,-12,2,9,-23,-16,-10,12,1,-10
7,14,6,-11,2,9,-23,-16,-9,13,1,-9
7,14,7,-11,1,10,-22,-16,-9,13,1,-9
6,15,8,-11,1,11,-22,-15,-9,13,1,-8
6,15,7,-11,1,11,-21,-15,-9,13,1,-8
6,15,7,-11,1,11,-20,-14,-8,13,0,-8
6,15,7,-11,0,11,-19,-13,-8,13,0,-8
5,15,7,-11,0,11,-18,-12,-7,13,0,-8
5,14,7,-11,0,10,-16,-11,-6,13,0,-8
5,13,6,-10,0,9,-16,-10,-5,13,0,-9
5,12,6,-10,0,9,-15,-9,-4,13,0,-10
5,12,6,-10,0,9,-13,-9,-4,13,0,-10
5,12,6,-9,0,9,-13,-9,-4,13,0,-11
4,11,6,-8,0,8,-12,-8,-4,12,0,-11
3,10,6,-7,0,7,-11,-8,-4,12,0,-11
2,9,6,-7,0,7,-10,-8,-3,12,0,-11
2,10,7,-7,-1,8,-8,-7,-3,12,0,-11
2,9,7,-7,-1,7,-7,-7,-3,12,0,-10
1,9,6,-6,-1,7,-7,-6,-3,11,0,-10
1,8,7,-6,-1,7,-6,-6,-3,11,-1,-10
1,9,7,-6,-2,7,-6,-5,-3,10,-1,-10
1,9,7,-6,-2,7,-5,-5,-3,10,-1,-9
0,8,7,-6,-2,7,-4,-5,-3,9,-2,-9
0,8,8,-5,-2,8,-4,-5,-3,9,-2,-9
-1,8,8,-5,-3,8,-3,-5,-2,9,-3,-9
-1,8,8,-5,-3,8,-2,-4,-2,9,-3,-9
-1,8,7,-5,-3,7,-2,-4,-2,8,-4,-10
-1,7,8,-4,-3,6,-1,-4,-2,7,-4,-10
-1,7,8,-4,-3,7,-1,-4,-2,7,-5,-10
-1,7,8,-4,-3,7,-1,-4,-2,7,-5,-11
-1,6,8,-3,-3,7,-1,-4,-3,6,-6,-11
-2,6,8,-3,-3,7,-1,-5,-3,6,-6,-12
-3,6,9,-3,-4,7,-1,-5,-3,6,-6,-12
-3,5,8,-3,-4,6,-1,-5,-3,6,-5,-12
-3,5,7,-3,-4,5,-1,-6,-4,5,-5,-12
-2,5,6,-3,-3,5,-1,-6,-4,5,-5,-12
-2,5,7,-3,-3,5,-1,-6,-4,5,-5,-12
-3,5,7,-2,-4,6,-1,-6,-3,5,-5,-12
-3,4,7,-1,-4,6,-1,-6,-3,5,-5,-12
-3,4,7,-1,-4,6,0,-6,-3,5,-5,-12
-3,5,7,-2,-4,6,0,-5,-3,4,-5,-12
-3,5,8,-2,-4,6,0,-5,-3,3,-5,-12
-3,5,8,-2,-4,6,0,-5,-3,2,-6,-12
-3,5,8,-2,-4,5,0,-5,-3,1,-7,-12
-3,5,8,-1,-4,5,0,-5,-3,1,-7,-12
-4,4,8,-1,-4,5,0,-5,-3,1,-7,-13
-4,4,7,-1,-4,5,0,-5,-3,1,-7,-13
-4,4,7,-1,-4,5,0,-6,-3,1,-8,-13
-4,4,7,-1,-4,6,-1,-6,-3,0,-8,-13
-4,5,8,-1,-4,6,-1,-6,-3,0,-8,-12
-3,5,8,-2,-4,6,-2,-6,-3,0,-7,-12
-3,6,8,-2,-5,7,-2,-6,-3,-1,-7,-11
-3,6,9,-2,-5,7,-2,-6,-3,-1,-7,-11
-3,6,9,-3,-5,8,-2,-6,-3,-2,-7,-11
-3,6,9,-3,-5,7,-1,-6,-3,-2,-7,-11
-2,6,8,-2,-4,7,-1,-5,-3,-2,-7,-11
-2,5,7,-2,-4,6,-1,-5,-2,-2,-6,-12
-2,5,7,-2,-4,6,-1,-4,-1,-1,-5,-12
-2,5,7,-2,-4,6,-1,-4,0,-1,-4,-12
-2,5,6,-2,-3,5,-1,-4,0,-1,-4,-12
-2,5,6,-2,-3,5,-2,-4,0,-2,-4,-12
-2,6,7,-2,-4,6,-2,-5,-1,-2,-4,-11
-2,6,8,-2,-4,7,-3,-5,-1,-2,-4,-11
-2,6,7,-2,-4,6,-3,-5,0,-2,-4,-11
-2,6,7,-2,-4,6,-3,-5,0,-2,-4,-11
-2,6,8,-3,-4,7,-3,-5,0,-3,-4,-11
-2,6,8,-3,-4,7,-3,-5,0,-5,-5,-11
-2,5,7,-3,-3,6,-3,-5,0,-6,-5,-12
-1,4,6,-3,-2,5,-2,-5,0,-6,-5,-12
-1,4,5,-2,-3,5,-2,-5,0,-7,-5,-13
-2,4,6,-2,-3,5,-2,-5,0,-7,-5,-13
-2,4,6,-1,-4,5,-2,-5,0,-8,-5,-13
-2,4,6,-1,-4,6,-2,-5,0,-8,-5,-13
-3,5,7,-1,-4,6,-2,-4,0,-8,-4,-13
-3,5,8,-1,-5,7,-2,-4,0,-8,-4,-12
-3,5,8,-1,-5,7,-2,-4,1,-8,-3,-12
-3,5,8,-1,-5,6,-2,-4,1,-8,-3,-12
-2,6,8,-2,-4,7,-2,-4,1,-8,-3,-11
-2,7,8,-3,-4,8,-2,-4,1,-8,-2,-11
-1,8,9,-4,-4,9,-3,-4,1,-7,-2,-10
-1,9,9,-4,-4,9,-4,-4,1,-7,-2,-10
-1,9,9,-4,-4,9,-4,-4,1,-7,-2,-10
-1,8,9,-4,-4,8,-3,-4,1,-7,-2,-10
-1,7,8,-3,-4,7,-3,-4,1,-7,-2,-11
-1,6,7,-2,-3,6,-2,-4,1,-7,-2,-11
-1,5,6,-2,-3,5,-2,-4,1,-7,-2,-12
-2,5,6,-2,-3,5,-2,-3,1,-7,-2,-12
-2,4,6,-1,-3,5,-2,-3,1,-6,-2,-13
-2,3,5,-1,-3,4,-2,-2,2,-6,-2,-13
-2,3,5,-1,-2,4,-2,-2,2,-7,-2,-14
-2,4,5,-1,-2,4,-2,-3,2,-7,-2,-14
-1,5,6,-2,-3,5,-3,-3,2,-7,-1,-13
-1,5,7,-2,-3,6,-3,-4,2,-7,-1,-12
-2,5,7,-2,-4,6,-3,-4,2,-7,0,-11
-2,6,8,-2,-4,7,-3,-3,2,-7,0,-10
-2,6,9,-3,-5,7,-3,-3,2,-7,0,-10
-2,7,8,-3,-4,7,-3,-2,2,-7,0,-10
-1,7,7,-3,-3,7,-3,-2,2,-8,0,-10
-1,7,7,-2,-3,7,-3,-2,2,-8,0,-11
-2,7,8,-2,-4,7,-3,-2,2,-8,0,-11
-2,6,9,-1,-5,7,-3,-2,2,-8,0,-11
-3,5,8,-1,-5,6,-3,-2,2,-8,0,-11
-3,5,9,-1,-6,7,-3,-2,2,-8,0,-11
-3,6,9,-1,-6,7,-3,-2,2,-8,0,-11
-3,6,8,-1,-5,7,-4,-2,1,-8,-1,-11
-2,6,8,-1,-5,7,-4,-2,1,-8,-1,-11
-3,6,8,-1,-5,8,-4,-2,1,-8,-1,-11
-3,6,9,-1,-6,8,-4,-2,2,-8,-1,-10
-3,6,10,-1,-6,8,-4,-2,2,-8,-2,-10
-3,6,9,-1,-6,8,-4,-1,2,-8,-2,-10
-3,5,9,-1,-5,7,-4,-1,2,-8,-2,-10
-3,5,8,-1,-5,7,-4,-1,2,-9,-1,-11
-3,4,7,-1,-5,6,-4,-1,1,-10,-1,-11
-2,4,6,-1,-4,5,-4,-1,0,-10,-2,-11
-2,4,6,-1,-4,5,-4,-2,0,-11,-2,-11
-2,5,7,-1,-4,6,-4,-2,0,-11,-2,-11
-2,6,8,-2,-4,7,-5,-2,0,-11,-2,-10
-1,6,8,-2,-4,7,-5,-2,0,-11,-2,-10
-1,6,8,-2,-4,7,-5,-2,0,-10,-2,-9
-1,6,8,-2,-4,7,-4,-2,0,-10,-2,-9
-1,6,8,-2,-4,7,-4,-2,0,-9,-2,-8
-1,6,7,-2,-4,7,-4,-2,0,-9,-2,-8
-1,5,7,-2,-4,6,-4,-2,0,-8,-3,-8
-1,5,7,-2,-4,6,-4,-2,0,-8,-3,-8
-1,5,7,-2,-4,6,-4,-1,1,-8,-3,-8
-1,6,6,-2,-3,6,-4,-1,1,-8,-3,-8
-1,6,7,-2,-3,7,-4,-2,1,-8,-3,-8
-1,7,8,-2,-4,8,-4,-2,1,-8,-3,-7
-1,9,10,-3,-6,10,-4,-2,0,-8,-2,-6
-1,10,11,-4,-6,11,-4,-2,0,-8,-2,-5
-1,11,11,-5,-6,11,-3,-1,0,-8,-2,-5
0,12,11,-5,-5,11,-2,0,1,-8,-2,-5
0,11,11,-5,-5,11,-2,0,2,-7,-1,-5
0,11,10,-5,-5,11,-1,1,2,-7,-1,-5
0,10,9,-5,-4,10,-1,1,3,-7,-1,-5
1,10,8,-6,-3,9,0,1,3,-7,-1,-5
1,10,8,-6,-3,9,0,1,3,-7,-1,-5
1,10,9,-6,-3,9,0,1,3,-7,-1,-5
1,10,10,-6,-4,10,1,1,3,-7,-1,-4
1,11,10,-6,-4,10,1,2,3,-6,0,-4
1,12,11,-7,-4,11,1,2,4,-5,0,-3
0,12,12,-7,-5,12,1,3,5,-3,1,-3
0,13,12,-7,-6,13,1,3,5,-3,2,-2
0,13,12,-7,-6,13,1,3,5,-3,2,-2
1,14,13,-7,-6,14,1,4,5,-3,1,-1
0,14,13,-7,-6,14,1,4,5,-4,1,-1
0,13,13,-7,-6,13,0,4,5,-4,1,-1
0,12,11,-6,-5,12,0,4,4,-5,0,-1
1,12,11,-6,-4,11,0,4,4,-6,0,-1
1,11,11,-6,-4,11,-1,3,3,-7,-1,-2
1,11,10,-6,-4,11,-2,3,2,-8,-2,-2
1,11,10,-7,-4,10,-2,3,1,-8,-2,-1
2,12,10,-7,-3,10,-3,3,2,-7,-1,-1
2,12,10,-8,-3,11,-4,3,3,-6,-1,-1
3,12,9,-8,-3,11,-5,2,3,-5,0,-1
3,12,8,-8,-2,10,-5,2,3,-4,0,-1
3,12,7,-8,-1,10,-5,2,3,-5,-1,-1
3,12,7,-8,-1,9,-5,1,2,-6,-1,-1
3,11,7,-7,-1,9,-5,1,1,-6,-1,-1
3,9,6,-7,0,8,-5,0,1,-7,-1,-1
3,8,5,-6,0,6,-5,-1,0,-7,-2,-1
3,8,4,-6,0,6,-5,-1,0,-7,-2,-2
4,8,4,-7,0,6,-4,0,0,-7,-2,-2
5,8,3,-8,1,6,-4,0,0,-7,-2,-2
6,9,2,-8,2,5,-5,0,0,-8,-2,-2
6,9,2,-8,3,5,-5,-1,0,-8,-2,-2
7,10,2,-9,3,6,-5,-1,0,-7,-2,-2
7,11,3,-9,3,7,-5,-1,0,-7,-2,-1
6,10,3,-9,2,7,-5,-1,0,-8,-3,-1
6,10,3,-9,2,7,-5,-1,0,-8,-3,-1
6,10,3,-9,2,7,-5,-1,0,-9,-4,-1
5,10,3,-8,2,6,-5,-1,0,-9,-4,-1
5,9,3,-7,1,6,-5,-1,0,-8,-3,-1
4,8,3,-7,1,6,-4,-1,0,-8,-3,-1
4,8,3,-7,1,6,-4,-1,0,-7,-3,-1
4,8,3,-6,1,6,-4,-1,0,-7,-3,-1
4,8,3,-6,0,6,-4,-1,0,-7,-3,-2
4,8,4,-6,0,6,-3,-1,0,-7,-3,-2
2,7,5,-5,-1,6,-3,-1,0,-8,-4,-3
0,7,5,-4,-2,6,-2,-1,0,-8,-4,-3
-1,6,6,-3,-3,6,-2,-1,0,-7,-3,-3
-2,6,7,-2,-4,6,-2,-1,0,-7,-4,-3
-2,6,8,-2,-4,7,-1,-1,0,-8,-5,-3
-3,6,8,-2,-5,7,-1,0,0,-8,-6,-3
-3,6,8,-1,-5,7,0,0,0,-8,-6,-3
-3,5,8,-1,-5,6,0,0,1,-8,-7,-3
-4,5,9,-1,-6,6,0,0,1,-8,-7,-3
-4,6,9,-1,-6,7,0,0,1,-8,-6,-2
-4,6,9,-1,-6,7,0,0,1,-8,-6,-1
-4,6,9,-1,-6,7,0,-1,0,-8,-6,-1
-4,6,9,-1,-6,7,0,-1,0,-8,-6,-1
-4,5,8,0,-6,7,0,-1,-1,-9,-7,-1
-4,4,8,0,-6,6,0,-1,-1,-10,-7,-2
-4,3,7,0,-6,5,0,-1,-1,-10,-7,-3
-4,3,7,0,-6,6,0,-1,-1,-10,-7,-3
-4,4,8,0,-7,7,0,-2,-1,-10,-7,-3
-4,5,9,0,-7,8,0,-2,0,-9,-6,-3
-3,6,9,-1,-6,8,0,-2,0,-9,-6,-2
-3,7,9,-1,-6,8,0,-2,0,-9,-7,-3
-3,7,9,-1,-6,8,0,-2,0,-9,-8,-3
-3,6,9,-1,-6,8,0,-2,0,-8,-7,-3
-3,5,8,-1,-5,7,0,-1,1,-6,-6,-2
-3,5,7,-1,-5,6,0,-1,1,-6,-5,-2
-3,4,8,0,-6,6,0,-1,1,-6,-5,-1
-4,5,9,0,-7,7,0,0,1,-6,-5,-1
-5,6,11,0,-8,9,0,0,2,-4,-4,0
-6,8,14,0,-10,11,0,0,5,0,-1,2
-7,11,18,-1,-13,15,1,0,7,4,3,5
-8,15,23,-2,-16,20,2,3,11,9,8,8
-8,19,27,-4,-17,23,4,7,16,15,13,12
-7,22,29,-7,-18,25,6,11,23,22,18,16
-5,26,31,-11,-18,29,8,17,32,31,26,21
-1,31,32,-15,-17,31,8,23,43,44,37,28
3,35,30,-20,-13,33,8,29,55,58,50,36
10,38,27,-24,-8,33,7,37,69,74,65,44
17,41,24,-29,-3,33,7,47,84,90,78,52
24,43,18,-33,4,31,6,57,95,99,87,58
32,40,8,-35,12,24,5,65,100,98,86,57
38,34,-5,-36,22,15,5,72,99,87,78,52
44,27,-18,-36,31,4,6,79,96,73,66,43
48,18,-32,-34,39,-7,9,85,91,58,52,32
51,8,-44,-31,47,-19,11,87,83,41,36,21
52,-1,-54,-26,53,-28,13,84,70,21,18,10
49,-9,-60,-20,55,-34,14,76,53,1,0,-1
45,-15,-61,-14,53,-38,14,63,33,-18,-18,-12
38,-19,-58,-8,49,-39,13,47,13,-35,-34,-22
30,-23,-54,-2,42,-39,11,28,-6,-50,-46,-29
22,-26,-49,3,36,-38,11,10,-23,-62,-55,-34
14,-30,-45,8,30,-38,12,-2,-35,-70,-61,-39
7,-33,-42,13,24,-38,15,-7,-42,-74,-65,-43
1,-36,-38,17,20,-38,18,-10,-46,-75,-67,-45
-3,-37,-34,19,16,-36,19,-13,-47,-74,-66,-45
-5,-35,-30,20,13,-32,19,-15,-48,-72,-63,-43
-5,-30,-25,18,10,-27,18,-15,-46,-68,-60,-39
-6,-26,-19,16,7,-22,18,-15,-43,-63,-55,-35
-8,-21,-14,15,3,-18,19,-13,-38,-58,-51,-31
-10,-18,-9,14,0,-14,22,-10,-33,-53,-47,-28
-12,-16,-4,13,-4,-10,25,-6,-28,-47,-43,-25
-15,-15,-1,14,-7,-8,28,-3,-24,-42,-40,-23
-17,-13,3,14,-10,-6,32,-1,-21,-37,-36,-21
-19,-11,8,15,-13,-1,36,1,-18,-32,-32,-19
-21,-8,12,15,-16,2,41,4,-15,-29,-29,-17
-22,-7,15,15,-18,5,46,5,-14,-27,-27,-15
-22,-5,17,14,-19,6,50,5,-13,-26,-26,-13
-23,-3,19,13,-20,8,53,4,-12,-25,-25,-11
-23,-2,21,12,-22,9,58,5,-11,-24,-24,-10
-24,-2,21,12,-23,9,64,6,-10,-23,-24,-10
-24,-3,21,13,-23,8,70,7,-9,-23,-24,-11
-25,-4,21,14,-23,8,76,7,-9,-23,-24,-11
-26,-4,21,15,-24,9,80,6,-10,-23,-24,-11
-26,-4,22,16,-24,9,81,4,-11,-22,-23,-11
-27,-5,21,17,-24,8,80,1,-12,-22,-23,-11
-27,-5,21,17,-24,8,77,-1,-13,-22,-23,-11
-27,-5,21,17,-24,8,74,-4,-13,-22,-23,-10
-28,-5,21,17,-24,7,71,-6,-14,-22,-22,-10
-27,-6,20,16,-24,7,66,-8,-15,-24,-22,-9
-26,-6,19,16,-23,6,60,-10,-16,-25,-22,-8
-25,-5,19,15,-22,6,53,-13,-17,-25,-22,-8
-23,-5,18,15,-21,6,45,-14,-18,-24,-22,-7
-21,-4,16,13,-19,6,37,-15,-18,-24,-21,-7
-19,-3,15,11,-17,6,29,-16,-17,-23,-20,-6
-17,-2,14,10,-16,6,21,-16,-15,-21,-19,-5
-16,0,14,8,-15,7,13,-16,-13,-19,-17,-3
-15,1,14,6,-14,7,6,-15,-11,-17,-15,-1
-12,2,13,4,-13,7,2,-14,-9,-16,-13,0
-10,4,14,3,-12,9,0,-13,-8,-15,-12,1
-9,6,14,1,-11,10,-2,-12,-8,-14,-11,2
-8,7,14,0,-11,11,-3,-10,-6,-13,-10,3
-8,8,14,0,-11,12,-4,-9,-5,-12,-10,3
-7,9,15,-1,-11,12,-5,-8,-3,-10,-9,4
-7,9,14,-1,-10,11,-6,-8,-1,-9,-8,4
-6,8,12,-1,-9,10,-7,-7,0,-9,-7,4
-5,6,10,-1,-7,8,-7,-7,0,-8,-6,4
-4,6,9,-1,-7,8,-7,-6,0,-8,-6,4
-4,6,9,-1,-7,8,-7,-6,0,-9,-6,4
-4,6,10,-1,-7,8,-7,-5,0,-9,-6,4
-4,7,10,-1,-7,9,-8,-6,0,-9,-5,5
-3,9,11,-2,-7,10,-9,-6,0,-9,-5,6
-3,10,12,-3,-7,11,-11,-7,0,-9,-4,7
-3,11,12,-4,-8,11,-12,-7,0,-10,-4,8
-3,10,12,-3,-8,11,-12,-7,-1,-11,-4,8
-3,9,11,-3,-7,10,-12,-7,-1,-12,-4,8
-3,8,11,-3,-7,10,-12,-6,0,-12,-4,8
-3,8,11,-3,-7,10,-12,-6,0,-12,-4,7
-3,8,11,-3,-7,10,-12,-5,0,-11,-4,7
-3,8,11,-3,-6,10,-12,-5,1,-11,-4,8
-2,9,11,-3,-7,10,-13,-6,1,-11,-4,8
-2,10,12,-4,-7,11,-15,-6,1,-11,-4,8
-1,11,12,-4,-7,11,-16,-6,1,-11,-3,9
-1,11,12,-5,-6,11,-16,-6,1,-10,-2,9
-1,11,12,-5,-6,12,-16,-6,1,-9,-1,9
-1,11,12,-5,-6,12,-16,-6,2,-8,-1,9
0,11,11,-5,-6,11,-15,-6,2,-8,-2,9
0,10,11,-5,-5,11,-15,-6,2,-8,-2,9
0,11,11,-5,-5,11,-15,-6,2,-8,-1,9
0,11,11,-5,-6,11,-16,-6,3,-8,-1,9
0,11,11,-5,-6,11,-16,-7,2,-8,-1,10
0,10,10,-5,-5,10,-17,-7,1,-8,-1,10
0,10,10,-5,-5,10,-17,-8,0,-9,-2,11
0,12,12,-6,-6,12,-18,-9,-1,-10,-2,12
0,14,13,-7,-6,14,-18,-10,-2,-10,-2,14
1,14,13,-8,-6,14,-19,-10,-1,-10,-3,15
2,14,12,-8,-5,14,-19,-9,0,-9,-3,15
2,13,10,-8,-4,12,-18,-8,0,-9,-3,14
2,12,9,-7,-3,11,-18,-8,0,-9,-3,13
2,11,8,-7,-3,10,-17,-7,1,-8,-2,12
2,11,9,-6,-3,10,-17,-7,1,-7,-1,12
1,11,10,-6,-4,11,-18,-7,1,-6,0,12
2,12,11,-7,-4,11,-20,-8,0,-6,0,12
3,12,10,-7,-3,11,-21,-9,0,-6,0,12
3,13,9,-8,-2,10,-21,-10,-1,-5,0,13
3,13,9,-8,-3,11,-21,-10,-1,-5,1,14
3,14,10,-9,-3,12,-22,-10,-1,-5,1,15
3,14,10,-9,-3,12,-22,-10,0,-5,2,16
3,15,11,-9,-3,13,-22,-10,0,-5,2,17
3,15,11,-9,-4,13,-22,-10,0,-5,1,17
3,14,11,-9,-4,13,-22,-10,1,-4,1,17
3,13,10,-9,-3,11,-22,-9,1,-5,1,16
3,12,8,-8,-3,10,-22,-9,0,-6,0,15
3,12,8,-7,-2,10,-22,-10,0,-7,0,15
4,13,8,-8,-2,10,-23,-10,-1,-7,-1,15
4,13,8,-8,-1,10,-24,-11,-1,-7,-1,16
5,14,7,-9,0,11,-25,-11,-2,-6,0,17
6,14,7,-10,0,11,-25,-12,-2,-5,0,18
6,14,8,-10,0,11,-26,-12,-2,-5,2,18
6,14,8,-10,0,11,-26,-12,-2,-4,3,18
6,13,7,-10,0,11,-26,-12,-2,-4,4,18
6,13,6,-10,0,10,-26,-12,-1,-3,4,18
6,13,5,-10,1,10,-26,-12,-1,-2,4,18
6,13,4,-10,1,9,-26,-12,-1,-2,4,18
7,12,3,-9,1,8,-25,-12,-1,-2,3,17
7,11,3,-9,2,7,-25,-12,-2,-3,2,17
7,11,2,-9,2,7,-24,-12,-2,-3,2,17
7,10,2,-9,3,7,-24,-11,-2,-3,2,17
7,10,2,-9,3,6,-24,-11,-1,-3,2,18
7,10,2,-9,3,6,-24,-10,-1,-3,2,18
7,10,1,-8,3,6,-24,-10,-1,-3,2,18
7,10,1,-8,3,6,-23,-9,-1,-3,2,18
7,10,1,-8,3,6,-23,-9,0,-3,2,18
7,10,1,-8,3,6,-23,-8,0,-3,3,18
7,11,2,-9,3,7,-23,-8,0,-3,3,19
7,11,3,-9,2,7,-22,-8,0,-3,3,20
7,11,3,-9,2,8,-22,-8,0,-3,3,20
7,11,3,-9,2,8,-21,-7,0,-4,3,21
6,11,3,-9,2,8,-21,-7,0,-4,4,21
6,11,4,-9,1,8,-20,-6,0,-4,4,22
6,11,4,-9,1,8,-20,-6,0,-4,4,22
6,11,4,-9,1,8,-20,-6,0,-4,4,22
6,12,5,-9,1,9,-20,-6,1,-4,4,22
6,12,6,-9,1,9,-20,-5,1,-3,5,22
6,13,6,-9,1,9,-20,-5,1,-3,5,22
7,13,5,-10,1,9,-20,-5,1,-3,5,22
8,14,5,-11,2,10,-19,-5,2,-3,5,23
9,15,5,-12,2,11,-19,-5,2,-2,5,23
9,15,5,-12,2,11,-19,-5,2,-2,5,23
9,15,5,-12,2,11,-18,-5,2,-3,4,23
8,14,6,-11,1,11,-18,-4,2,-3,4,23
7,14,7,-10,0,11,-17,-3,3,-3,4,23
6,14,7,-10,0,11,-15,-3,3,-3,4,23
6,13,7,-9,0,10,-14,-2,3,-3,4,23
5,13,6,-9,0,10,-13,-2,3,-3,3,23
5,13,6,-9,0,10,-12,-1,3,-3,4,23
4,12,6,-8,0,10,-12,0,3,-3,4,23
4,12,6,-8,-1,9,-11,0,4,-3,4,23
4,11,6,-7,-1,9,-10,0,4,-3,4,23
4,11,7,-7,-2,9,-9,1,5,-2,4,23
3,11,8,-6,-2,9,-8,1,5,-2,4,23
3,11,8,-6,-2,9,-7,2,5,-2,4,23
2,10,8,-6,-2,9,-6,2,5,-2,4,23
2,10,8,-5,-3,9,-5,3,5,-1,4,23
1,10,8,-5,-3,9,-5,3,5,-1,4,23
1,10,8,-5,-3,9,-4,4,6,-1,4,22
0,9,8,-4,-3,9,-3,4,6,-1,4,22
0,9,8,-4,-4,8,-3,5,6,-1,4,21
0,8,8,-4,-4,8,-2,5,6,-1,4,21
-1,8,8,-3,-4,7,-1,5,6,-1,4,21
-1,7,7,-3,-4,7,-1,5,6,-1,4,21
-1,6,7,-2,-4,7,0,5,6,-1,4,21
-1,6,7,-2,-4,7,0,5,5,-2,3,21
-1,6,7,-1,-4,7,0,5,5,-2,3,21
-1,5,6,-1,-4,6,0,5,5,-2,2,20
-1,5,6,-1,-3,6,0,4,4,-2,2,20
-1,5,6,-1,-3,6,1,4,4,-3,2,20
-2,5,6,-1,-4,6,1,3,3,-3,2,20
-2,4,6,-1,-4,5,1,3,3,-3,2,20
-2,4,5,0,-4,5,2,3,2,-3,2,20
-3,4,6,0,-4,5,2,3,2,-3,1,19
-4,3,6,0,-5,5,2,3,2,-3,1,19
-4,3,6,1,-5,5,2,3,2,-3,1,19
-5,2,6,1,-5,4,2,3,2,-3,2,19
-5,2,6,1,-5,5,2,3,2,-3,2,19
-5,3,7,1,-5,5,2,3,2,-3,2,19
-5,3,6,1,-5,4,2,3,2,-3,2,19
-4,2,6,1,-5,4,2,2,2,-3,2,19
-4,2,6,1,-5,4,2,2,2,-3,2,20
-4,2,6,1,-5,4,2,2,2,-3,2,20
-4,2,6,1,-5,4,2,1,1,-3,2,19
-4,2,5,1,-4,3,2,1,1,-3,2,19
-4,2,5,1,-4,3,2,1,0,-3,1,18
-4,2,6,1,-5,4,2,1,0,-3,1,18
-4,2,6,1,-5,4,2,1,1,-3,1,18
-4,2,5,1,-4,3,2,1,1,-3,1,18
-4,2,5,1,-4,3,2,1,1,-3,2,17
-5,3,6,1,-5,4,2,1,1,-2,2,17
-5,3,6,1,-5,4,2,1,1,-2,2,17
-5,3,5,1,-4,4,2,1,1,-2,3,17
-4,3,5,0,-4,4,2,1,1,-2,3,17
-4,3,6,0,-4,4,1,1,1,-2,3,17
-4,3,6,0,-4,4,1,1,1,-2,3,18
-4,3,5,0,-4,4,1,1,1,-1,4,18
-3,3,5,0,-4,4,1,1,1,-1,4,18
-3,3,6,0,-4,5,1,1,0,-1,4,18
-4,4,6,0,-5,5,1,1,0,-1,4,19
-4,4,6,0,-4,5,1,1,0,-1,4,19
-4,4,6,0,-4,5,1,1,0,0,4,18
-4,4,7,0,-4,5,1,1,0,0,4,18
-4,4,7,0,-4,5,1,1,0,0,4,17
-4,4,6,0,-4,5,1,1,0,1,4,17
-3,4,6,0,-4,5,1,1,0,1,5,16
-3,4,6,0,-4,5,1,1,0,2,5,16
-3,4,6,0,-4,5,1,1,0,2,5,16
-3,4,5,0,-4,5,1,1,0,2,5,16
-2,3,5,-1,-3,4,1,1,0,2,6,15
-2,3,5,-1,-3,4,1,1,1,3,6,15
-3,4,5,-1,-4,5,1,1,1,3,6,15
-3,4,6,-1,-4,5,1,1,1,4,6,15
-2,4,6,-1,-4,5,2,1,1,4,6,15
-2,4,6,-1,-4,5,2,1,1,5,6,14
-2,4,6,-1,-4,6,2,1,1,5,6,14
-2,4,6,-1,-4,6,2,1,1,6,7,14
-2,4,6,-1,-3,5,2,1,1,6,7,14
-2,4,6,-1,-3,4,2,1,2,7,7,14
-2,4,7,-1,-4,5,2,1,2,7,7,14
-2,4,7,-1,-4,5,2,1,2,8,7,14
-2,4,7,-1,-4,5,2,1,2,8,7,14
-2,4,6,-1,-4,4,2,1,2,8,7,14
-3,4,6,0,-4,5,2,1,2,8,7,14
-3,4,6,0,-4,5,2,1,2,9,8,14
-3,4,6,0,-4,5,2,1,2,9,8,14
-3,3,6,0,-4,4,2,1,2,10,8,14
-3,3,5,0,-4,4,2,1,2,10,8,14
-3,3,5,-1,-4,4,2,1,2,10,8,14
-3,3,6,-1,-4,4,3,1,3,11,8,14
-3,3,6,0,-4,4,3,1,3,12,8,14
-3,3,6,0,-4,4,3,1,3,12,8,14
-3,3,6,0,-4,4,3,1,3,13,9,14
-2,3,6,0,-4,4,3,1,3,13,9,14
-2,3,5,0,-4,4,3,1,3,13,9,14
-3,3,5,0,-4,4,3,1,3,13,9,14
-3,3,6,0,-5,4,3,1,3,13,10,14
-3,3,6,0,-5,4,3,1,3,13,10,14
-2,3,6,0,-4,4,3,1,3,13,10,14
-1,3,5,-1,-3,4,3,0,3,13,10,14
-1,3,5,-1,-2,4,2,0,3,13,10,13
-1,3,5,-1,-2,4,2,0,3,14,11,13
-2,3,5,-1,-3,4,2,0,3,14,11,13
-2,3,5,-1,-3,4,2,0,3,14,11,14
-1,4,5,-1,-3,4,2,0,3,14,12,14
-1,4,6,-2,-3,4,2,0,3,13,12,13
-1,4,5,-2,-3,4,2,0,3,13,13,13
-1,4,5,-2,-2,3,2,0,3,13,13,13
-1,4,5,-2,-3,4,2,0,4,13,13,13
-1,5,6,-2,-3,4,2,1,4,13,14,14
-1,5,7,-2,-3,5,2,1,5,13,14,14
-1,5,7,-2,-3,5,2,1,5,13,14,15
-1,5,7,-2,-3,6,2,1,6,13,14,15
-1,6,7,-2,-4,6,2,2,6,13,15,15
-1,6,8,-3,-4,7,3,2,7,13,15,15
0,7,7,-3,-4,7,3,2,7,13,16,16
0,7,7,-3,-3,7,3,2,7,13,16,15
0,7,7,-3,-3,7,3,2,8,13,16,15
0,8,7,-3,-3,7,3,3,8,13,16,15
0,8,7,-4,-2,7,3,3,9,12,16,15
1,8,7,-4,-2,7,3,4,9,12,16,16
0,9,8,-4,-3,8,3,4,9,12,17,17
0,9,8,-4,-3,8,3,5,10,11,18,17
0,9,8,-4,-3,8,3,5,10,11,18,17
1,9,8,-5,-3,8,3,5,10,10,18,16
1,9,8,-5,-3,8,2,5,10,10,18,16
1,9,8,-5,-3,8,2,5,10,10,18,16
1,9,8,-5,-3,7,1,4,10,10,18,16
1,8,7,-5,-2,7,0,4,10,9,18,16
2,8,6,-5,-2,6,-1,3,10,9,18,15
2,7,6,-5,-1,6,-1,3,10,9,18,15
2,7,5,-4,-1,6,-2,3,10,8,17,15
1,7,5,-4,-1,6,-2,2,9,8,17,14
1,6,5,-4,-1,5,-3,2,9,7,16,14
1,6,5,-4,-1,5,-4,2,9,6,16,15
1,6,4,-3,-1,4,-4,2,9,5,15,15
1,5,3,-3,-1,4,-5,2,9,5,15,15
1,5,3,-3,0,3,-6,1,9,4,15,14
1,4,2,-3,0,2,-6,1,8,3,14,14
1,2,1,-2,1,1,-6,1,8,2,14,13
1,1,-1,-1,2,0,-6,1,7,2,13,13
2,0,-2,-1,3,-1,-7,1,7,1,13,13
2,0,-2,-1,3,-1,-7,1,7,1,12,13
2,0,-3,-1,3,-2,-7,1,7,0,11,14
2,-1,-4,-1,4,-3,-7,1,7,0,11,14
3,-1,-5,-1,4,-3,-7,1,7,0,10,14
3,0,-4,-1,4,-3,-6,2,8,0,8,14
3,0,-4,-2,4,-2,-6,3,8,0,8,14
4,0,-4,-2,5,-2,-7,2,7,0,7,15
5,0,-4,-3,5,-2,-7,1,7,0,8,16
5,0,-4,-3,5,-2,-8,0,7,0,8,16
5,0,-4,-3,5,-2,-8,0,7,-1,8,16
5,0,-4,-3,5,-2,-8,0,7,-1,8,16
5,0,-4,-2,5,-2,-8,0,6,-2,8,16
4,1,-3,-2,4,-1,-8,0,6,-2,8,16
3,1,-2,-2,3,-1,-8,0,5,-3,7,15
3,0,-2,-1,3,-1,-8,0,5,-4,6,14
2,0,-2,-1,2,-2,-7,1,6,-4,6,14
1,-1,-2,0,2,-2,-7,1,6,-4,6,14
0,-1,0,0,1,-1,-6,2,6,-4,7,14
0,-1,0,0,0,-1,-6,2,6,-4,7,13
-1,-1,0,1,0,-1,-5,2,6,-3,7,12
-2,-2,0,2,-1,-1,-5,2,6,-3,7,12
-3,-1,1,2,-1,0,-5,2,6,-3,7,12
-3,-1,1,2,-1,-1,-4,2,6,-3,7,13
-3,-2,0,2,-1,-2,-4,2,5,-4,7,13
-3,-3,0,3,-1,-2,-3,2,5,-4,6,13
-4,-4,0,3,-1,-2,-3,2,5,-4,5,13
-4,-4,0,4,-2,-2,-3,2,4,-4,4,12
-4,-5,0,4,-2,-3,-3,2,3,-4,4,12
-4,-5,0,5,-2,-3,-3,2,3,-4,3,11
-4,-4,0,5,-2,-2,-3,2,3,-4,3,11
-4,-4,0,5,-2,-2,-3,2,3,-3,3,11
-4,-4,0,5,-2,-3,-3,2,4,-3,3,10
-4,-4,0,5,-2,-3,-3,2,4,-2,3,9
-5,-4,0,5,-2,-2,-3,2,3,-2,2,9
-5,-5,1,5,-2,-2,-2,2,3,-2,1,9
-5,-5,1,5,-2,-2,-2,2,3,-2,1,9
-5,-5,1,5,-2,-2,-2,3,3,-2,2,10
-5,-4,2,5,-3,-1,-2,3,3,-2,2,10
-6,-4,2,5,-3,-1,-2,3,3,-2,3,10
-6,-4,3,5,-4,-1,-2,3,2,-3,3,10
-6,-4,3,5,-4,-1,-2,2,1,-3,3,10
-6,-4,3,5,-4,-1,-2,2,1,-4,3,11
-6,-3,3,4,-4,0,-3,2,0,-4,4,12
-6,-2,4,4,-4,0,-3,1,0,-3,4,13
-6,-1,5,4,-4,2,-4,0,0,-2,4,14
-6,1,8,3,-6,4,-4,-1,0,0,6,15
-6,5,11,1,-8,8,-4,-2,1,3,8,16
-7,8,15,0,-10,11,-3,-1,3,8,12,18
-8,10,18,0,-12,13,-2,1,6,14,17,20
-7,13,20,-2,-13,16,0,5,11,21,23,23
-6,17,22,-5,-14,19,0,10,20,32,32,29
-4,21,25,-8,-14,23,1,16,31,47,45,37
0,26,26,-13,-12,26,1,23,45,64,59,45
5,32,26,-19,-9,29,1,32,62,83,76,54
12,39,26,-25,-6,32,2,44,82,104,93,63
19,42,23,-30,-1,32,3,57,100,121,106,70
26,40,14,-32,6,26,4,71,114,130,113,72
32,35,2,-33,15,17,7,84,125,131,112,70
38,27,-10,-32,24,8,11,98,133,127,107,65
42,19,-23,-30,33,-2,16,110,138,119,99,58
45,10,-35,-28,41,-12,20,118,137,106,87,49
48,3,-46,-25,48,-21,22,119,128,87,72,39
48,-4,-53,-22,52,-29,23,112,110,65,53,27
46,-11,-57,-17,52,-34,22,100,88,40,33,14
41,-17,-58,-11,50,-38,20,83,61,15,13,2
35,-23,-57,-5,47,-40,17,61,32,-9,-5,-8
28,-28,-55,1,42,-42,14,37,2,-30,-21,-17
20,-33,-53,6,37,-43,12,17,-20,-46,-33,-23
13,-37,-51,12,32,-44,12,6,-34,-56,-42,-28
7,-40,-48,16,27,-44,14,0,-42,-61,-47,-32
2,-41,-44,19,23,-42,15,-5,-45,-62,-49,-34
0,-39,-40,20,20,-40,15,-8,-46,-60,-48,-34
-1,-36,-35,20,18,-37,14,-9,-46,-57,-45,-31
-2,-33,-31,19,15,-33,14,-8,-44,-53,-41,-28
-4,-30,-26,19,11,-29,15,-7,-42,-48,-38,-25
-6,-27,-20,18,7,-24,17,-5,-39,-44,-34,-21
-9,-25,-15,17,3,-20,20,-2,-35,-39,-30,-17
-12,-23,-11,18,0,-17,23,-1,-33,-36,-27,-15
-15,-21,-6,18,-4,-14,27,0,-31,-33,-24,-14
-18,-18,0,18,-8,-9,32,2,-28,-30,-22,-13
-20,-15,6,18,-12,-5,37,4,-26,-27,-20,-12
-22,-13,10,18,-15,-3,41,5,-24,-24,-18,-10
-23,-12,12,18,-16,-1,45,6,-23,-22,-17,-9
-24,-11,13,18,-17,1,48,6,-22,-20,-15,-7
-24,-10,13,17,-18,2,53,6,-22,-19,-14,-6
-24,-10,13,17,-18,1,59,7,-21,-19,-14,-6
-24,-11,13,18,-18,1,64,7,-21,-18,-13,-6
-25,-11,15,18,-19,1,66,6,-21,-18,-13,-6
-26,-10,16,18,-20,2,67,4,-22,-18,-13,-7
-25,-10,16,18,-20,2,65,1,-24,-18,-13,-8
-24,-10,15,18,-19,2,61,-1,-26,-18,-14,-9
-24,-10,14,17,-18,1,56,-3,-27,-18,-13,-9
-24,-10,14,17,-19,1,52,-5,-27,-17,-12,-8
-25,-11,14,18,-19,1,46,-7,-27,-17,-12,-8
-24,-11,13,18,-18,0,40,-10,-28,-17,-12,-8
-24,-11,13,17,-18,0,34,-12,-28,-17,-11,-8
-23,-11,12,17,-17,0,27,-13,-28,-16,-11,-8
-22,-11,11,17,-16,0,21,-14,-28,-15,-10,-7
-21,-11,10,16,-14,-1,16,-15,-27,-14,-8,-6
-18,-9,9,15,-13,0,10,-14,-25,-12,-6,-5
-16,-7,9,12,-11,0,5,-13,-23,-9,-4,-3
-13,-6,8,10,-10,1,1,-12,-22,-7,-2,-1
-11,-5,7,9,-8,1,-2,-11,-20,-5,0,1
-9,-4,6,7,-7,1,-4,-10,-19,-3,0,2
-8,-2,6,5,-6,1,-5,-9,-18,-3,1,3
-7,-1,6,4,-5,1,-6,-8,-16,-2,2,4
-6,-1,5,4,-5,1,-6,-7,-15,-1,3,5
-6,-1,5,4,-5,1,-7,-7,-15,0,3,5
-6,-1,5,4,-5,2,-9,-7,-14,0,4,5
-5,0,5,3,-4,2,-10,-7,-14,0,4,5
-5,0,4,3,-4,1,-11,-7,-14,0,4,6
-5,-1,4,3,-4,1,-11,-7,-14,0,5,6
-5,-1,4,3,-4,1,-11,-6,-14,0,5,6
-5,0,5,3,-4,2,-11,-6,-14,0,6,7
-5,0,5,3,-4,2,-11,-5,-13,1,6,6
-5,0,5,3,-4,2,-11,-4,-13,2,6,5
-5,0,6,3,-4,3,-11,-4,-12,2,6,5
-5,0,6,3,-4,3,-11,-3,-11,3,7,5
-5,0,6,3,-4,3,-11,-3,-11,3,7,5
-5,0,6,3,-4,2,-11,-3,-11,4,8,6
-5,0,7,2,-5,3,-11,-3,-11,4,9,6
-5,1,7,2,-5,3,-11,-3,-11,4,9,6
-5,1,6,2,-5,3,-12,-3,-12,4,9,6
-5,0,5,2,-4,2,-12,-3,-12,3,9,7
-4,1,4,1,-4,2,-12,-3,-12,3,9,8
-3,2,5,0,-3,3,-12,-4,-12,3,10,8
-2,2,5,0,-3,3,-12,-4,-12,3,10,8
-2,2,4,0,-3,3,-13,-4,-12,3,9,7
-2,2,4,0,-3,3,-13,-4,-12,3,8,6
-2,2,5,0,-3,3,-13,-4,-12,3,8,6
-2,2,5,0,-3,4,-13,-4,-12,4,8,6
-2,3,5,-1,-3,4,-13,-4,-12,4,8,6
-2,3,5,-1,-2,4,-14,-4,-11,5,9,7
-2,3,5,-1,-3,4,-15,-4,-11,5,9,7
-1,3,5,-1,-3,4,-15,-4,-11,5,9,7
-1,3,5,-1,-3,4,-15,-4,-11,6,9,7
-1,3,5,-1,-3,4,-15,-3,-10,6,9,7
-1,4,5,-1,-3,4,-15,-3,-10,6,9,6
-1,5,6,-2,-3,5,-15,-3,-10,6,9,6
0,5,5,-2,-2,5,-15,-3,-10,6,9,6
0,5,4,-2,-2,4,-16,-3,-10,6,9,6
-1,4,4,-2,-2,4,-16,-3,-10,6,9,6
-1,4,4,-2,-2,4,-16,-3,-10,6,9,5
0,4,4,-2,-2,4,-17,-3,-10,6,9,6
0,4,4,-2,-1,4,-17,-4,-10,6,9,7
0,5,4,-3,-1,4,-17,-4,-10,6,9,7
1,5,4,-3,-1,4,-18,-5,-11,6,9,7
1,5,4,-3,-1,4,-18,-5,-11,6,9,7
1,5,3,-3,0,4,-18,-5,-10,6,9,8
1,5,4,-3,0,4,-18,-4,-10,7,10,9
1,6,4,-4,0,4,-19,-4,-9,7,10,9
2,6,3,-4,0,4,-19,-4,-9,7,10,9
2,5,3,-4,0,4,-20,-4,-9,7,11,9
3,5,3,-4,1,4,-20,-4,-9,7,11,9
2,6,3,-4,0,4,-20,-4,-9,7,12,10
2,6,4,-4,0,4,-20,-4,-9,7,12,10
2,6,3,-4,1,4,-21,-5,-9,7,12,10
3,6,3,-4,1,3,-21,-5,-9,6,12,10
3,6,3,-4,1,3,-22,-5,-9,6,12,10
3,6,2,-4,1,4,-22,-5,-9,6,13,10
3,6,2,-4,2,3,-23,-5,-10,6,13,10
4,6,2,-5,2,3,-23,-6,-10,6,12,10
4,6,2,-5,2,3,-24,-6,-10,6,12,10
4,7,2,-5,2,4,-24,-6,-10,5,11,10
5,7,2,-5,2,3,-24,-6,-10,5,11,9
5,7,1,-6,2,3,-24,-7,-11,5,10,9
6,7,1,-6,3,3,-24,-7,-11,5,10,8
6,7,1,-6,3,4,-24,-7,-11,5,10,7
6,7,1,-6,3,4,-24,-7,-11,4,9,7
6,7,1,-7,3,4,-24,-7,-11,4,9,8
6,7,1,-7,3,4,-24,-7,-11,4,9,9
6,8,2,-7,3,5,-24,-7,-11,4,9,10
7,8,2,-7,3,5,-24,-7,-11,5,9,10
7,8,2,-7,3,5,-24,-7,-11,5,10,10
6,8,3,-7,2,5,-23,-7,-10,6,10,9
6,8,3,-7,2,5,-23,-7,-10,6,9,9
6,8,3,-7,2,5,-23,-7,-11,6,9,8
6,8,2,-7,3,5,-23,-6,-11,6,9,8
7,8,2,-7,3,5,-23,-6,-11,6,9,7
7,8,2,-8,3,5,-23,-7,-11,6,10,7
7,9,2,-8,3,5,-23,-7,-11,5,10,7
8,9,1,-8,4,5,-23,-7,-11,5,10,8
8,9,1,-8,4,5,-23,-7,-11,5,10,8
7,9,2,-8,4,5,-22,-7,-11,5,10,8
7,9,3,-8,3,5,-21,-7,-11,5,10,8
6,9,3,-8,3,5,-21,-6,-11,4,10,8
6,8,3,-8,2,5,-20,-6,-11,4,10,7
5,8,3,-7,1,6,-19,-6,-11,4,10,7
4,8,4,-7,0,6,-18,-5,-10,4,10,7
4,8,4,-7,0,6,-18,-5,-10,4,10,7
4,8,4,-7,1,6,-18,-5,-10,4,10,8
4,8,4,-7,1,6,-18,-4,-10,4,10,8
4,9,5,-7,0,7,-17,-4,-10,4,10,8
3,9,6,-6,0,7,-17,-4,-10,4,10,8
3,8,5,-6,0,6,-16,-4,-10,4,10,8
3,8,5,-6,0,6,-16,-4,-9,4,10,8
3,8,5,-6,0,6,-15,-3,-9,5,10,8
3,8,5,-6,0,6,-14,-3,-8,5,10,8
3,8,5,-6,0,6,-14,-3,-8,6,10,8
2,8,6,-5,0,6,-13,-3,-8,6,10,8
2,8,6,-5,-1,7,-12,-2,-8,6,10,7
2,8,6,-5,-1,7,-11,-2,-8,6,9,6
2,8,6,-5,0,6,-11,-2,-8,6,8,5
2,7,6,-5,-1,6,-10,-2,-8,6,8,5
1,7,7,-5,-2,7,-10,-1,-7,5,8,4
0,7,8,-4,-3,7,-9,-1,-7,5,8,4
0,7,7,-4,-3,7,-8,-1,-7,4,7,3
0,7,7,-3,-3,7,-7,0,-7,4,7,2
0,7,8,-3,-3,7,-7,0,-7,4,6,2
-1,7,8,-3,-4,7,-6,0,-8,4,6,2
-1,6,8,-2,-4,7,-5,0,-8,3,5,1
-2,6,8,-2,-4,6,-5,0,-8,3,5,0
-2,6,8,-2,-4,6,-5,0,-9,3,4,0
-2,6,8,-2,-4,6,-4,0,-9,3,4,0
-2,5,7,-2,-4,6,-4,-1,-10,2,3,0
-2,5,7,-1,-4,5,-3,-1,-10,1,2,0
-2,4,7,-1,-4,5,-3,-2,-11,0,2,0
-2,5,8,-1,-4,6,-3,-2,-11,0,3,0
-2,5,8,-1,-4,6,-3,-3,-12,0,3,0
-2,4,8,-1,-4,6,-2,-3,-12,0,2,-1
-2,4,8,-1,-4,6,-2,-3,-12,0,1,-1
-2,4,8,-1,-4,5,-2,-3,-13,0,0,-2
-2,4,7,-1,-4,5,-2,-3,-13,0,0,-2
-2,3,7,-1,-4,5,-2,-3,-13,0,0,-2
-3,3,7,-1,-4,5,-2,-3,-13,0,-1,-2
-4,3,8,0,-5,5,-2,-3,-13,0,-1,-3
-4,3,9,0,-6,5,-2,-4,-14,-1,-1,-3
-5,2,8,0,-6,5,-2,-4,-14,-1,-1,-3
-5,2,8,1,-6,4,-2,-4,-14,-2,-1,-3
-6,2,8,1,-6,5,-2,-4,-15,-2,-1,-3
-6,2,8,1,-6,5,-1,-4,-15,-2,-1,-4
-6,2,8,1,-6,5,-1,-4,-15,-2,-1,-3
-6,2,8,1,-6,4,-1,-4,-15,-2,-1,-3
-6,3,8,1,-6,5,-1,-4,-15,-2,-1,-3
-5,3,9,0,-6,5,-1,-4,-15,-2,-1,-3
-4,3,8,0,-5,5,-1,-4,-15,-2,-1,-3
-4,3,8,0,-5,5,-1,-4,-15,-3,-1,-2
-4,4,8,0,-5,6,-1,-5,-15,-3,-1,-2
-4,4,9,0,-5,6,-1,-5,-15,-3,-1,-3
-3,4,8,0,-5,6,-2,-6,-15,-3,-1,-3
-3,4,8,0,-4,5,-2,-6,-15,-3,-1,-3
-3,4,8,0,-4,5,-2,-6,-15,-3,-1,-2
-3,4,8,0,-5,5,-2,-6,-15,-3,-1,-2
-4,3,8,0,-5,5,-2,-6,-15,-3,-1,-3
-4,3,8,0,-5,5,-2,-5,-15,-3,-1,-3
-4,3,8,0,-5,5,-2,-5,-14,-2,-1,-3
-4,3,8,0,-6,5,-2,-4,-14,-1,-1,-3
-4,3,8,0,-6,5,-2,-4,-13,-1,-1,-3
-4,3,8,0,-5,5,-2,-4,-13,-1,-1,-3
-4,3,7,0,-5,5,-2,-4,-13,-1,0,-3
-4,4,8,0,-5,5,-2,-4,-13,-1,0,-4
-4,4,8,0,-5,6,-2,-4,-13,-1,0,-4
-4,3,8,0,-5,6,-2,-4,-13,-1,0,-4
-4,3,8,0,-6,6,-2,-4,-13,-2,0,-4
-4,4,8,0,-6,6,-2,-4,-13,-2,0,-4
-4,4,8,0,-6,6,-2,-4,-13,-2,0,-4
-4,3,8,0,-6,6,-2,-4,-13,-2,0,-4
-4,3,8,0,-6,6,-2,-4,-13,-2,0,-4
-4,3,8,0,-6,6,-2,-4,-13,-2,0,-4
-4,4,8,0,-6,6,-2,-4,-13,-2,0,-4
-3,4,8,0,-6,6,-2,-3,-13,-2,0,-4
-3,4,8,0,-6,6,-2,-3,-13,-2,0,-4
-3,4,8,0,-6,6,-2,-3,-13,-2,0,-5
-3,4,8,0,-6,6,-2,-4,-13,-2,0,-5
-3,4,8,0,-6,6,-2,-4,-13,-2,0,-5
-4,3,8,0,-6,6,-2,-4,-13,-2,0,-5
-4,3,8,0,-6,6,-2,-4,-13,-2,0,-5
-4,4,9,0,-6,7,-2,-4,-13,-2,0,-5
-5,4,9,0,-6,7,-2,-4,-13,-3,0,-5
-5,4,9,0,-6,7,-2,-4,-13,-3,0,-5
-5,4,9,0,-6,7,-2,-4,-13,-3,0,-5
-5,5,9,0,-7,7,-2,-4,-13,-3,0,-5
-4,5,9,0,-7,7,-2,-4,-13,-3,0,-5
-4,4,9,0,-6,7,-2,-4,-13,-3,-1,-5
-3,4,9,-1,-6,7,-2,-4,-14,-3,-1,-5
-3,5,9,-1,-6,7,-3,-5,-14,-3,-1,-5
-3,5,9,-1,-6,7,-3,-5,-14,-3,-1,-5
-3,5,9,-1,-6,7,-3,-5,-15,-3,-1,-5
-3,6,9,-2,-6,7,-3,-6,-15,-3,-1,-5
-3,6,9,-2,-7,8,-3,-6,-15,-3,-1,-5
-3,7,10,-2,-7,8,-3,-7,-16,-3,-2,-5
-3,7,10,-2,-7,8,-3,-7,-16,-4,-2,-5
-3,6,10,-2,-7,8,-3,-7,-17,-4,-2,-5
-3,6,10,-2,-7,9,-4,-7,-17,-4,-2,-5
-3,7,10,-2,-7,9,-4,-7,-17,-4,-2,-5
-4,6,10,-2,-7,9,-4,-7,-17,-4,-2,-5
-4,6,10,-2,-7,9,-4,-7,-17,-4,-2,-6
-4,6,10,-2,-7,9,-4,-7,-17,-4,-3,-6
-4,6,10,-1,-7,9,-4,-7,-17,-4,-3,-6
-4,6,10,-1,-7,8,-4,-7,-17,-4,-3,-6
-4,5,9,-1,-6,7,-4,-7,-17,-4,-3,-6
-4,6,9,-1,-6,7,-3,-7,-17,-4,-3,-7
-4,6,9,-1,-7,8,-3,-7,-17,-4,-3,-7
-4,5,9,-1,-7,7,-2,-7,-17,-4,-3,-7
-4,5,9,0,-7,7,-2,-7,-17,-4,-4,-8
-4,4,9,0,-7,6,-2,-7,-17,-4,-4,-8
-5,4,10,0,-8,7,-2,-7,-17,-4,-4,-8
-5,4,10,0,-8,7,-2,-7,-17,-4,-4,-8
-5,4,9,0,-7,7,-2,-7,-17,-3,-4,-8
-4,4,8,-1,-7,7,-2,-7,-17,-3,-4,-8
-4,5,9,-1,-6,7,-2,-7,-17,-3,-4,-8
-4,5,9,-1,-6,7,-2,-7,-17,-3,-4,-9
-3,4,8,-1,-6,6,-2,-7,-17,-2,-4,-9
-3,4,7,-1,-5,6,-2,-7,-16,-2,-4,-9
-3,5,8,-2,-6,7,-2,-7,-16,-2,-4,-9
-3,5,8,-2,-6,7,-2,-7,-16,-2,-4,-9
-4,5,8,-2,-6,7,-2,-7,-16,-2,-4,-10
-4,6,8,-1,-6,7,-2,-7,-16,-2,-4,-10
-3,6,9,-1,-7,8,-2,-7,-16,-2,-5,-10
-3,7,10,-2,-7,8,-2,-7,-16,-2,-5,-10
-3,7,10,-2,-7,9,-2,-7,-16,-2,-5,-10
-3,8,10,-2,-7,9,-2,-7,-16,-2,-5,-10
-3,8,11,-3,-7,10,-1,-7,-16,-2,-5,-9
-3,9,11,-3,-7,10,-1,-7,-15,-1,-4,-9
-2,10,11,-4,-7,11,0,-7,-15,0,-4,-9
-2,10,11,-4,-6,11,0,-7,-15,0,-3,-9
-1,10,11,-4,-6,11,0,-7,-15,1,-3,-9
-1,11,11,-4,-6,11,0,-7,-15,1,-3,-9
0,11,10,-4,-6,11,0,-7,-15,1,-3,-9
0,10,10,-4,-6,11,0,-7,-15,1,-3,-9
-1,10,11,-4,-6,11,0,-7,-15,1,-3,-9
-1,11,11,-5,-7,11,0,-7,-15,1,-3,-9
0,11,11,-5,-6,11,0,-7,-14,1,-3,-9
0,12,11,-6,-6,11,0,-7,-14,1,-3,-9
0,12,11,-6,-6,12,-1,-7,-14,2,-3,-9
0,13,12,-6,-7,13,-1,-7,-14,2,-3,-9
0,13,13,-6,-7,14,-1,-6,-13,3,-3,-9
0,13,14,-6,-8,14,-1,-6,-13,4,-3,-8
-1,13,14,-6,-8,14,-1,-6,-12,5,-3,-8
-1,13,14,-6,-8,14,-2,-6,-12,5,-3,-8
-1,13,14,-6,-8,13,-2,-7,-13,5,-3,-8
-1,12,13,-6,-7,12,-3,-7,-13,5,-4,-8
-1,11,11,-5,-7,11,-3,-8,-14,4,-5,-9
-1,10,10,-5,-6,11,-3,-8,-14,4,-5,-10
0,9,9,-5,-6,10,-3,-9,-14,4,-6,-10
0,9,8,-5,-4,9,-3,-9,-13,5,-6,-11
1,8,6,-5,-3,8,-3,-9,-13,5,-6,-11
2,8,5,-5,-2,7,-4,-9,-13,5,-7,-12
2,7,5,-4,-1,6,-4,-9,-14,4,-7,-12
1,6,4,-3,-1,5,-4,-9,-14,4,-8,-13
1,4,2,-3,-1,4,-4,-9,-14,4,-8,-13
1,3,1,-2,-1,3,-5,-9,-14,4,-9,-14
1,3,2,-2,-1,3,-5,-10,-14,4,-9,-14
2,3,2,-3,0,3,-5,-10,-14,3,-10,-14
3,3,1,-3,0,2,-5,-11,-15,3,-11,-15
4,3,0,-3,1,2,-6,-12,-15,2,-12,-15
5,4,0,-4,2,2,-6,-12,-15,2,-12,-15
4,4,0,-4,2,2,-6,-12,-15,2,-12,-15
4,3,0,-4,2,1,-6,-12,-15,2,-12,-15
4,3,0,-4,2,2,-6,-12,-15,3,-12,-14
5,5,0,-5,2,3,-6,-12,-14,3,-12,-14
6,5,0,-6,2,3,-6,-12,-14,3,-12,-14
6,5,0,-6,2,3,-6,-12,-14,3,-12,-14
5,5,0,-5,1,3,-6,-12,-14,3,-12,-14
4,6,2,-5,0,4,-7,-12,-14,3,-11,-14
4,6,3,-5,0,5,-7,-12,-14,3,-11,-14
3,6,3,-5,-1,5,-7,-12,-14,2,-11,-14
3,5,3,-4,-1,4,-7,-13,-14,2,-12,-14
2,5,3,-4,-1,4,-7,-13,-14,1,-12,-14
1,5,3,-3,-2,4,-6,-13,-14,1,-12,-14
1,4,3,-3,-2,4,-6,-13,-14,1,-12,-15
0,4,3,-2,-3,4,-5,-13,-14,1,-12,-15
0,3,4,-1,-3,4,-5,-13,-14,1,-12,-15
-1,3,5,0,-4,4,-4,-13,-14,1,-11,-15
-2,2,5,0,-4,3,-4,-13,-14,1,-11,-15
-3,1,5,1,-5,3,-4,-12,-13,0,-10,-15
-4,1,5,1,-5,2,-3,-12,-13,0,-10,-15
-4,1,5,2,-6,2,-3,-12,-13,-2,-11,-15
-5,1,5,2,-6,2,-4,-13,-13,-3,-11,-16
-5,0,5,2,-6,2,-4,-13,-14,-3,-11,-16
-5,0,5,3,-6,2,-5,-14,-15,-4,-11,-16
-5,0,5,3,-6,2,-5,-14,-15,-5,-11,-16
-6,0,5,3,-6,2,-5,-15,-16,-5,-11,-16
-5,0,5,3,-6,2,-5,-15,-16,-5,-10,-16
-5,0,5,2,-6,2,-5,-14,-15,-5,-9,-15
-5,0,5,2,-6,2,-4,-14,-15,-5,-8,-15
-5,0,4,3,-6,2,-4,-13,-14,-5,-8,-14
-5,-1,3,3,-5,1,-3,-13,-14,-5,-8,-14
-5,-2,3,4,-5,0,-3,-13,-14,-5,-8,-14
-5,-3,2,4,-5,0,-3,-13,-14,-5,-8,-14
-5,-3,2,4,-5,-1,-3,-12,-14,-6,-9,-14
-4,-3,2,4,-5,-1,-3,-12,-13,-6,-9,-14
-5,-3,2,4,-5,0,-3,-12,-13,-6,-8,-13
-5,-2,3,3,-6,0,-3,-12,-13,-6,-8,-13
-5,-1,5,3,-6,2,-3,-13,-13,-7,-8,-12
-6,0,6,2,-7,3,-3,-13,-13,-6,-8,-11
-5,2,8,2,-8,5,-4,-13,-13,-5,-7,-10
-5,5,9,1,-8,7,-4,-14,-12,-2,-5,-8
-5,7,12,0,-10,10,-5,-14,-10,1,-2,-6
-6,10,16,-2,-12,13,-5,-13,-8,5,2,-3
-6,13,19,-3,-13,16,-4,-12,-4,10,6,0
-7,15,22,-4,-15,18,-1,-9,1,16,11,3
-8,17,25,-5,-17,21,1,-3,9,24,17,6
-7,20,27,-7,-17,24,3,3,20,37,27,12
-3,25,28,-11,-16,27,4,12,34,53,40,19
1,31,28,-16,-14,29,5,22,50,71,54,27
7,36,27,-21,-11,31,5,33,68,90,70,36
14,40,25,-27,-6,32,5,46,87,108,85,44
22,41,18,-32,1,30,6,59,102,120,95,50
30,38,7,-35,11,23,7,71,111,122,96,50
37,32,-6,-35,21,13,8,83,114,114,90,44
43,23,-21,-33,31,1,12,94,114,101,78,36
48,13,-36,-31,41,-11,16,104,110,85,64,26
52,3,-49,-28,49,-22,19,109,102,67,48,15
53,-4,-58,-24,54,-31,21,107,87,45,29,3
52,-11,-63,-20,56,-38,22,98,67,23,10,-8
48,-18,-66,-15,56,-42,21,84,45,0,-8,-20
42,-24,-66,-9,54,-45,21,66,21,-22,-26,-31
34,-29,-64,-2,48,-46,19,43,-4,-41,-42,-40
25,-35,-60,5,42,-47,18,19,-28,-58,-55,-48
16,-41,-58,12,36,-49,19,0,-46,-69,-64,-54
8,-45,-54,19,30,-50,21,-12,-57,-76,-69,-59
0,-48,-49,24,23,-49,23,-18,-63,-78,-72,-61
-5,-49,-44,27,18,-47,24,-23,-65,-78,-72,-62
-8,-48,-39,28,14,-44,23,-26,-66,-77,-70,-60
-9,-45,-35,27,12,-40,22,-28,-64,-73,-66,-57
-10,-40,-30,25,9,-35,22,-28,-60,-67,-61,-53
-11,-35,-24,23,6,-30,23,-26,-55,-61,-55,-49
-13,-30,-18,22,2,-24,25,-24,-50,-55,-50,-45
-14,-26,-14,21,-1,-20,28,-20,-44,-49,-44,-41
-15,-23,-9,20,-5,-16,31,-17,-40,-44,-40,-38
-18,-20,-3,19,-9,-11,35,-15,-36,-39,-36,-36
-20,-17,3,19,-13,-7,40,-11,-33,-36,-33,-33
-22,-14,8,18,-16,-3,46,-9,-30,-33,-31,-31
-24,-13,11,18,-18,-1,51,-8,-27,-30,-28,-29
-25,-11,14,18,-20,1,55,-7,-25,-28,-26,-27
-26,-10,15,18,-21,2,61,-5,-22,-25,-24,-26
-26,-10,15,19,-21,2,68,-3,-20,-23,-22,-25
-27,-10,15,19,-22,2,74,-1,-18,-22,-21,-24
-27,-10,16,19,-23,3,79,-1,-17,-21,-20,-24
-28,-9,18,19,-24,3,81,-1,-17,-21,-20,-23
-29,-9,19,19,-24,4,80,-3,-18,-21,-19,-23
-29,-9,19,19,-24,4,77,-6,-19,-21,-19,-23
-29,-9,19,19,-24,5,73,-9,-20,-22,-18,-23
-28,-8,19,18,-24,5,68,-12,-20,-22,-18,-23
-27,-8,18,18,-23,5,63,-14,-20,-22,-18,-24
-26,-8,16,17,-22,4,57,-15,-20,-22,-17,-24
-25,-9,15,17,-21,3,49,-17,-20,-22,-17,-23
-24,-9,14,16,-20,2,41,-18,-20,-22,-16,-23
-22,-10,12,16,-18,0,34,-20,-20,-22,-16,-23
-21,-10,10,15,-16,-1,27,-21,-20,-21,-15,-22
-19,-10,8,15,-14,-1,20,-21,-19,-20,-14,-21
-17,-9,7,13,-13,-1,14,-21,-18,-19,-12,-20
-16,-7,7,12,-12,0,8,-20,-16,-18,-11,-19
-14,-5,7,10,-12,1,3,-19,-14,-16,-9,-17
-12,-3,7,8,-11,2,0,-17,-12,-15,-8,-15
-10,-1,7,5,-10,3,-3,-15,-10,-13,-7,-14
-8,0,7,4,-9,4,-4,-13,-8,-12,-6,-13
-6,0,7,3,-7,3,-5,-11,-7,-10,-5,-13
-5,0,6,2,-6,3,-5,-10,-6,-9,-4,-12
-5,1,6,2,-6,3,-6,-10,-5,-8,-3,-12
-4,1,6,1,-5,3,-8,-10,-4,-7,-3,-11
-3,1,5,1,-5,3,-9,-10,-4,-7,-2,-10
-2,2,4,0,-4,3,-11,-10,-3,-6,-2,-10
-2,3,5,0,-5,4,-12,-10,-3,-5,-1,-9
-2,3,6,0,-5,4,-12,-10,-3,-5,-1,-9
-2,3,5,0,-5,4,-11,-9,-2,-6,-1,-9
-2,3,5,0,-4,3,-11,-9,-2,-6,-1,-9
-1,3,5,0,-3,3,-11,-9,-2,-5,-1,-9
-2,3,5,0,-3,3,-11,-9,-1,-5,-1,-9
-2,2,4,0,-4,3,-11,-8,0,-4,-1,-8
-2,1,3,0,-4,2,-11,-7,0,-4,-1,-8
-2,1,3,0,-4,2,-12,-7,0,-5,-2,-7
-2,2,3,0,-4,3,-12,-7,0,-6,-2,-7
-1,2,4,0,-4,3,-12,-7,0,-7,-2,-7
-1,3,4,0,-3,3,-12,-7,0,-7,-1,-6
0,4,5,-1,-3,4,-13,-8,0,-6,-1,-5
0,5,5,-2,-4,5,-13,-8,0,-6,-1,-4
0,5,6,-2,-4,5,-13,-8,0,-5,-1,-4
0,5,6,-2,-4,5,-13,-7,0,-5,-1,-3
0,5,5,-2,-4,5,-14,-7,0,-4,-1,-3
0,5,5,-2,-4,5,-14,-7,1,-4,0,-3
0,5,5,-2,-4,5,-14,-7,1,-3,0,-3
0,5,5,-2,-4,5,-14,-7,2,-3,1,-3
0,6,6,-3,-4,5,-14,-7,2,-2,1,-3
0,6,6,-3,-4,6,-14,-7,2,-2,0,-3
0,6,6,-3,-4,6,-14,-6,2,-2,0,-3
0,6,5,-3,-4,6,-14,-6,2,-2,0,-2
0,6,5,-3,-3,5,-14,-6,3,-2,1,-2
0,6,5,-3,-3,5,-14,-6,3,-2,2,-2
0,6,5,-3,-3,5,-14,-5,3,-2,2,-2
1,5,4,-2,-2,4,-14,-5,4,-2,2,-1
2,5,3,-2,-1,3,-15,-5,4,-2,2,-1
2,5,3,-3,-1,4,-16,-5,4,-2,2,-1
2,6,3,-3,-1,5,-17,-5,4,-2,2,0
2,7,4,-4,-1,5,-18,-5,4,-2,2,0
3,7,3,-5,0,5,-19,-5,4,-2,2,0
4,8,3,-6,0,6,-20,-5,4,-1,2,1
5,9,3,-7,0,6,-20,-5,5,0,3,2
5,9,3,-7,0,6,-20,-5,5,0,3,2
5,8,2,-6,0,5,-20,-5,5,0,2,1
4,7,2,-6,0,4,-20,-5,5,-1,2,1
4,7,2,-6,0,4,-20,-5,4,-2,1,2
5,7,2,-6,0,4,-21,-5,4,-2,1,3
6,8,2,-7,1,5,-21,-5,5,-1,2,3
6,9,2,-8,1,6,-21,-5,5,-1,3,4
6,10,3,-8,0,6,-21,-5,6,0,3,4
6,11,4,-8,0,6,-22,-5,7,1,4,5
7,11,3,-9,1,6,-22,-4,8,2,4,5
8,11,2,-9,2,6,-22,-4,8,3,5,5
8,11,2,-9,2,6,-23,-4,9,4,5,5
8,10,1,-9,3,5,-23,-4,9,4,5,5
9,10,0,-9,4,5,-24,-4,9,4,5,5
10,10,-1,-10,5,4,-24,-4,9,4,6,5
10,10,-1,-10,5,4,-24,-5,8,4,6,5
11,10,-1,-11,6,4,-24,-5,8,3,5,5
11,10,-2,-11,6,4,-25,-5,7,2,5,5
12,10,-2,-11,7,3,-25,-5,7,1,4,5
12,10,-2,-11,7,3,-25,-5,7,0,3,5
12,10,-2,-11,7,4,-25,-5,7,0,3,5
12,11,-2,-11,7,4,-25,-5,8,1,4,6
13,11,-2,-12,7,4,-26,-5,8,1,4,7
13,12,-1,-12,6,5,-26,-6,7,0,4,8
13,13,0,-13,6,6,-27,-7,6,0,4,8
13,13,0,-13,6,6,-27,-7,6,0,5,9
13,14,0,-13,6,6,-27,-7,6,0,5,9
13,14,0,-13,6,6,-27,-7,7,1,5,9
13,14,0,-13,6,6,-26,-6,8,1,5,9
13,13,0,-13,6,6,-25,-5,9,1,5,9
14,12,-2,-12,7,4,-24,-5,10,2,6,9
14,11,-3,-12,8,3,-23,-4,10,3,6,8
13,10,-3,-12,8,3,-22,-3,11,3,5,8
12,9,-3,-11,7,2,-22,-2,12,4,5,7
10,9,-2,-10,6,2,-21,-1,13,4,6,7
10,9,-1,-9,5,3,-21,-1,13,5,7,7
10,10,0,-10,5,4,-20,0,14,5,7,7
10,12,1,-10,4,6,-20,-1,14,5,8,8
10,12,1,-11,4,6,-20,-1,14,5,8,8
10,13,1,-11,4,7,-20,0,14,5,8,9
10,13,2,-11,3,7,-19,0,14,5,7,9
10,13,2,-11,3,8,-18,0,14,5,7,9
10,12,2,-11,3,7,-18,1,14,5,6,9
10,12,1,-11,4,6,-17,1,14,4,5,8
10,11,0,-10,4,5,-17,1,15,4,4,8
10,11,0,-10,4,5,-16,1,15,3,4,7
10,10,0,-10,5,4,-15,1,16,3,3,7
10,9,-1,-9,5,4,-14,1,16,3,3,6
10,8,-1,-9,5,3,-14,2,17,4,3,6
9,8,0,-9,4,4,-13,2,17,4,3,6
9,9,0,-9,4,4,-12,2,17,3,3,7
9,9,0,-9,4,4,-12,3,17,2,3,7
8,9,0,-9,3,4,-11,3,17,2,3,8
7,10,1,-8,2,5,-10,3,17,2,3,8
7,9,2,-8,2,5,-10,4,17,2,2,8
7,9,2,-8,2,5,-9,4,18,2,2,8
7,9,2,-8,1,5,-8,5,20,2,2,8
7,9,2,-8,1,6,-8,6,21,3,2,8
6,9,2,-7,1,5,-7,7,22,4,2,7
6,8,1,-6,1,4,-5,8,23,5,2,6
5,6,1,-5,1,3,-3,9,23,5,1,5
5,5,0,-4,1,2,-2,9,23,4,0,4
4,4,0,-4,1,2,-1,9,22,3,0,3
4,4,0,-4,0,2,-1,9,22,2,0,4
3,4,0,-4,0,2,0,9,22,1,-1,5
3,4,1,-3,0,3,1,9,22,0,-1,5
2,4,2,-3,-1,3,1,9,22,0,-2,5
1,3,1,-2,-1,3,2,9,22,0,-2,4
1,3,1,-2,-1,2,2,9,22,0,-2,4
1,3,1,-2,-1,2,2,9,22,0,-2,3
1,3,2,-2,-1,3,2,9,22,0,-2,3
0,3,2,-1,-1,2,3,9,22,0,-2,2
0,2,1,-1,-1,2,3,9,21,-1,-3,2
0,1,1,-1,-1,1,4,8,21,-2,-5,2
0,1,1,-1,-1,1,4,8,20,-3,-6,2
0,0,1,0,-1,1,5,8,20,-4,-8,2
-1,0,1,0,-2,1,5,8,19,-4,-8,2
-1,1,2,0,-2,1,5,8,19,-4,-8,3
-2,1,3,0,-3,2,5,8,19,-3,-7,3
-2,1,3,0,-3,2,5,8,19,-3,-6,3
-2,0,2,1,-3,1,5,8,19,-3,-6,3
-2,0,2,1,-3,0,5,7,19,-4,-6,2
-2,0,2,1,-3,0,5,7,18,-5,-7,2
-2,0,2,1,-3,0,5,6,18,-5,-7,1
-2,0,1,1,-2,0,5,6,19,-4,-7,1
-1,0,1,0,-2,0,5,6,19,-4,-7,0
-1,0,2,0,-2,1,5,6,19,-4,-7,0
-1,0,2,0,-2,1,5,6,19,-4,-7,0
-1,0,1,0,-1,0,5,6,19,-4,-7,0
-1,0,1,0,-1,0,6,6,19,-4,-8,0
-1,0,1,1,-2,0,6,6,19,-3,-8,0
-2,-1,1,1,-2,0,7,7,19,-3,-8,0
-2,-1,1,2,-2,0,7,7,19,-2,-8,0
-2,-1,1,2,-2,0,7,7,19,-2,-8,0
-2,-1,1,1,-2,0,7,6,18,-3,-8,0
-2,0,2,1,-2,0,7,5,17,-4,-8,0
-2,0,2,1,-3,0,7,5,17,-4,-8,0
-2,0,2,1,-3,0,7,6,17,-5,-8,0
-2,0,2,1,-3,0,7,6,17,-5,-8,0
-2,-1,2,2,-3,0,7,7,18,-6,-9,0
-3,-2,1,2,-3,0,7,7,18,-6,-10,1
-3,-3,0,3,-2,0,8,7,18,-5,-10,1
-4,-3,1,4,-3,0,8,7,18,-5,-10,1
-4,-1,2,3,-4,0,8,7,18,-4,-9,2
-4,0,4,3,-5,2,8,7,18,-3,-8,2
-4,1,5,2,-5,3,7,7,19,-2,-7,3
-4,2,6,1,-5,4,6,6,19,-1,-6,3
-4,3,6,1,-5,4,6,6,19,-1,-5,4
-4,3,6,1,-5,4,7,6,18,-2,-5,4
-4,2,5,1,-4,3,7,6,18,-3,-6,4
-4,0,4,2,-4,2,7,7,19,-3,-7,4
-4,-1,3,2,-4,1,8,7,19,-3,-8,3
-4,-2,2,3,-3,0,8,8,20,-3,-8,2
-4,-2,1,3,-3,0,9,8,20,-2,-8,1
-4,-2,0,3,-2,-1,9,7,20,-2,-7,0
-4,-2,1,3,-2,0,9,7,20,-2,-6,0
-3,-1,1,3,-2,0,7,6,19,-2,-7,0
-3,0,2,2,-2,1,6,5,19,-3,-8,1
-2,1,3,1,-3,2,6,5,18,-3,-8,3
-3,1,4,1,-3,3,6,5,18,-3,-8,4
-3,1,4,1,-4,3,6,5,18,-3,-7,4
-4,1,4,2,-4,2,6,5,18,-3,-7,4
-4,1,4,2,-4,2,6,5,18,-2,-6,4
-4,1,3,2,-3,2,7,5,19,-1,-5,4
-4,0,3,2,-3,1,7,6,20,-1,-5,4
-4,0,2,2,-3,1,7,6,20,-1,-6,4
-4,0,2,2,-3,1,6,5,19,-1,-6,3
-4,0,3,2,-4,2,6,5,19,-1,-6,3
-3,1,4,1,-4,3,6,5,18,-1,-6,3
-3,2,5,1,-4,3,6,5,18,-2,-6,3
-3,2,4,1,-4,3,6,5,17,-3,-7,3
-3,1,4,1,-4,2,6,5,17,-4,-8,3
-3,1,4,1,-4,2,6,5,17,-4,-8,3
-3,2,4,1,-4,2,6,5,18,-4,-8,3
-3,1,4,1,-4,2,6,5,18,-2,-7,4
-3,1,4,2,-4,2,6,4,18,-1,-6,4
-3,1,4,2,-4,2,6,4,18,0,-5,4
-3,0,4,2,-4,2,6,4,18,0,-4,4
-3,0,4,2,-4,1,6,4,18,0,-4,4
-3,0,3,2,-4,1,6,4,18,0,-5,5
-3,0,3,2,-4,1,6,4,18,1,-5,6
-3,0,3,3,-4,1,6,4,18,1,-5,5
-3,-1,2,3,-4,0,6,4,17,1,-5,5
-3,-2,2,4,-3,0,6,4,17,0,-6,5
-3,-2,2,4,-3,0,6,3,16,0,-6,5
-3,-1,3,3,-3,1,5,3,15,0,-6,6
-3,0,3,2,-3,2,5,3,15,0,-6,7
-2,2,4,1,-3,3,5,3,15,1,-5,8
-2,3,4,1,-3,3,4,2,16,1,-5,8
-2,3,4,0,-3,3,4,2,16,2,-5,7
-2,2,4,0,-3,3,4,3,17,3,-5,7
-1,1,2,0,-2,2,5,3,17,4,-5,7
-2,0,2,1,-2,1,5,4,18,4,-5,7
-2,0,2,1,-3,1,6,4,17,4,-5,7
-2,2,3,1,-3,2,6,3,17,4,-5,7
-2,3,4,0,-3,4,6,3,17,4,-4,8
-1,5,5,0,-3,5,6,3,17,4,-3,9
-1,6,6,-1,-3,6,6,3,17,4,-3,9
-1,6,6,-2,-3,6,6,3,17,5,-4,10
0,6,6,-2,-3,6,6,3,17,5,-4,10
0,6,5,-2,-3,6,7,4,18,6,-3,10
-1,5,5,-1,-3,5,7,4,19,6,-2,10
-1,4,6,-1,-3,5,8,4,19,6,-2,10
-1,5,6,-1,-3,5,8,4,19,6,-2,10
-1,5,6,-1,-3,6,8,4,19,6,-2,11
0,6,6,-2,-3,6,8,4,19,6,-2,11
0,7,6,-3,-3,6,8,4,18,6,-2,11
0,7,7,-3,-3,7,7,4,18,7,-2,11
0,8,7,-4,-3,7,6,4,18,8,-1,12
0,9,8,-4,-3,8,6,5,19,8,0,12
0,9,9,-4,-4,9,5,5,19,8,0,12
0,8,8,-4,-4,8,5,5,19,8,0,12
0,7,7,-3,-3,7,5,5,19,8,0,12
0,6,6,-2,-3,6,4,5,19,8,-1,11
0,5,5,-2,-3,5,4,5,18,8,-1,11
0,5,5,-2,-2,5,3,4,17,7,0,11
0,6,5,-2,-2,5,2,4,17,7,0,12
1,6,5,-3,-2,6,1,3,16,5,-1,12
1,7,5,-4,-2,6,0,3,15,4,-2,13
2,8,5,-5,-1,6,0,3,15,3,-3,14
3,7,4,-5,-1,6,0,3,15,2,-3,15
3,7,4,-4,-1,5,-1,2,15,3,-3,15
3,6,3,-4,0,5,-1,2,14,3,-2,14
3,5,2,-4,0,4,-2,1,14,4,-1,13
3,3,1,-3,1,2,-2,1,14,5,-1,12
3,2,0,-2,2,0,-2,0,13,5,-2,11
3,1,-1,-2,2,0,-2,0,12,5,-2,10
3,1,-2,-2,2,-1,-2,-1,11,4,-3,10
3,1,-2,-2,2,-1,-2,-1,10,3,-3,10
3,1,-1,-2,2,0,-2,-1,10,3,-3,11
3,3,0,-2,2,1,-2,-1,10,3,-3,12
3,4,1,-3,2,2,-2,-1,10,3,-2,13
4,4,0,-4,2,2,-2,-1,9,3,-2,13
4,4,0,-4,3,1,-2,-1,9,3,-2,13
4,3,-1,-4,3,0,-2,-1,9,2,-3,13
4,2,-1,-3,3,0,-2,-1,9,2,-3,13
4,1,-2,-2,3,0,-2,-1,9,1,-3,12
4,0,-3,-1,3,-1,-1,-1,9,1,-3,12
3,0,-3,-1,3,-1,-1,-1,9,0,-3,11
3,0,-3,-1,3,-1,-1,-2,9,0,-4,11
3,0,-3,-1,3,-2,-1,-2,9,1,-4,11
3,0,-3,-1,3,-2,-1,-1,9,1,-4,11
2,0,-3,0,3,-2,0,-1,9,2,-4,10
1,0,-1,0,1,-1,0,-1,9,2,-4,10
0,0,0,1,0,-1,0,-1,9,2,-3,9
0,0,0,1,0,-1,1,-1,9,3,-3,9
-1,0,0,2,-1,0,1,0,9,3,-3,9
-2,0,2,2,-2,0,2,0,10,4,-2,10
-4,0,3,3,-3,1,2,0,10,4,-2,10
-5,-1,4,3,-4,1,3,0,10,4,-3,11
-5,-1,4,3,-4,1,3,0,9,2,-4,11
-5,-1,4,3,-5,1,3,0,9,1,-5,11
-5,0,5,3,-5,2,2,0,8,0,-5,11
-5,0,5,3,-5,2,2,-1,8,0,-5,11
-5,0,4,3,-5,1,2,-1,7,0,-5,11
-5,-1,4,3,-5,1,2,-1,7,0,-5,11
-5,-1,4,3,-5,1,2,-2,6,0,-5,11
-5,-1,4,3,-5,1,2,-2,6,0,-5,11
-5,-1,4,3,-4,1,2,-2,6,0,-5,11
-5,0,4,3,-4,1,2,-2,6,0,-5,11
-5,0,4,3,-4,2,2,-2,6,0,-5,11
-4,0,4,2,-4,2,2,-2,6,0,-5,11
-4,0,4,2,-4,2,2,-2,6,0,-5,11
-4,0,4,2,-4,2,2,-2,6,0,-5,11
-4,0,4,2,-4,2,2,-2,5,0,-5,11
-5,0,4,3,-4,2,2,-2,5,0,-5,11
-5,-1,4,3,-4,1,2,-2,5,0,-5,11
-5,-1,4,3,-4,1,2,-2,5,-1,-5,11
-5,0,5,3,-5,2,2,-2,5,-1,-5,12
-5,1,7,2,-5,4,1,-3,5,0,-4,13
-5,3,8,2,-6,5,1,-3,6,1,-2,15
-5,5,10,1,-7,8,1,-3,7,3,0,17
-5,8,13,0,-9,11,1,-3,8,7,3,19
-5,11,16,-2,-10,14,2,-1,11,11,7,22
-5,13,18,-3,-12,16,4,2,16,17,12,25
-5,15,20,-4,-13,17,6,6,22,24,18,29
-4,18,22,-6,-13,20,7,11,31,34,26,34
-1,22,24,-10,-12,23,8,17,43,47,38,41
3,27,23,-15,-10,25,7,24,55,62,51,50
10,32,22,-21,-6,27,6,32,69,78,66,59
17,37,20,-27,-1,28,5,41,83,94,80,67
24,39,14,-31,5,27,4,51,96,105,91,73
31,36,5,-34,13,21,4,60,103,107,93,73
38,30,-7,-34,22,12,6,68,105,99,86,68
43,22,-21,-32,32,1,8,77,105,87,75,59
46,14,-34,-30,40,-9,11,85,103,73,62,50
48,4,-45,-26,47,-20,14,90,98,58,48,39
49,-4,-54,-22,51,-29,16,89,86,39,31,29
47,-11,-59,-18,53,-35,17,82,69,19,13,18
43,-17,-61,-12,51,-39,17,70,49,-1,-4,7
37,-22,-60,-7,48,-41,17,55,28,-20,-20,-3
30,-27,-57,-1,43,-42,15,36,7,-37,-34,-11
22,-31,-54,4,38,-42,14,17,-13,-52,-45,-18
14,-34,-50,10,32,-42,15,2,-27,-62,-53,-23
7,-38,-46,15,27,-42,18,-4,-35,-67,-58,-26
1,-40,-43,19,22,-42,21,-7,-39,-69,-60,-28
-2,-41,-39,21,18,-40,23,-9,-41,-69,-61,-28
-4,-39,-35,22,15,-37,22,-11,-41,-66,-59,-27
-4,-36,-31,21,13,-34,20,-12,-40,-62,-55,-24
-5,-33,-27,20,11,-30,20,-12,-37,-57,-51,-21
-7,-29,-22,19,8,-26,21,-11,-33,-52,-46,-18
-8,-25,-17,18,5,-21,22,-9,-29,-47,-42,-15
-10,-22,-12,17,1,-17,24,-7,-25,-42,-37,-12
-13,-20,-7,16,-3,-14,27,-4,-22,-38,-33,-9
-15,-18,-2,16,-7,-10,31,-2,-20,-34,-30,-7
-17,-15,2,16,-10,-6,36,0,-18,-31,-28,-5
-18,-12,7,15,-13,-3,41,2,-16,-28,-25,-4
-19,-10,9,15,-14,0,45,4,-14,-25,-23,-3
-20,-9,11,15,-15,1,49,3,-13,-23,-21,-2
-20,-7,12,14,-15,2,51,2,-12,-22,-20,-2
-20,-6,13,14,-16,3,55,2,-11,-21,-19,-1
-21,-7,13,14,-17,3,62,2,-10,-20,-18,-1
-22,-8,13,15,-17,2,68,2,-11,-20,-18,-1
-22,-8,13,15,-18,2,74,2,-12,-20,-18,-1
-22,-8,14,15,-18,3,78,1,-13,-20,-18,0
-23,-8,15,15,-19,3,80,0,-13,-20,-17,0
-24,-8,15,16,-19,3,79,-2,-13,-19,-17,0
-24,-8,15,16,-19,3,77,-4,-13,-19,-17,0
-25,-8,15,16,-20,3,75,-7,-14,-19,-17,0
-25,-9,15,17,-20,3,72,-9,-14,-19,-16,0
-24,-9,15,17,-19,3,67,-11,-15,-19,-16,1
-23,-10,14,16,-18,2,62,-12,-16,-18,-16,1
-22,-10,13,16,-17,1,55,-14,-17,-18,-16,1
-21,-10,12,15,-16,1,47,-16,-18,-17,-16,1
-20,-10,10,15,-15,0,39,-18,-18,-17,-15,1
-19,-9,9,14,-14,0,31,-19,-17,-16,-13,1
-17,-8,9,12,-13,1,23,-19,-16,-14,-11,3
-15,-6,8,10,-11,1,15,-19,-15,-12,-9,4
-12,-4,7,8,-10,1,8,-19,-14,-10,-7,6
-10,-3,6,6,-8,2,3,-18,-12,-8,-5,7
-9,-1,7,5,-8,3,1,-17,-11,-6,-4,7
-8,0,7,4,-7,4,-1,-15,-9,-4,-3,7
-7,1,7,4,-7,4,-2,-13,-7,-3,-2,8
-6,1,6,3,-6,4,-3,-12,-6,-2,-1,9
-5,1,6,3,-5,4,-5,-11,-5,-1,-1,10
-5,2,6,2,-5,4,-6,-11,-4,0,0,10
-4,2,6,1,-5,4,-7,-11,-4,0,0,11
-3,2,5,1,-4,4,-8,-11,-4,1,1,11
-2,2,5,0,-4,4,-8,-11,-4,1,1,11
-3,2,6,0,-4,4,-9,-11,-4,1,1,11
-3,2,6,0,-4,4,-9,-11,-4,1,2,11
-3,3,5,0,-3,4,-8,-11,-3,2,2,11
-2,3,5,0,-3,4,-9,-11,-3,3,3,11
-2,3,5,0,-3,4,-9,-10,-2,3,3,11
-1,3,5,-1,-3,4,-10,-10,-2,4,4,11
-1,3,5,-1,-2,4,-10,-10,-2,4,4,11
0,4,5,-2,-2,4,-10,-10,-2,4,4,11
0,4,5,-2,-2,5,-10,-10,-1,4,5,11
-1,5,6,-2,-3,5,-10,-10,-1,4,5,11
-1,5,6,-2,-3,5,-10,-9,-1,4,5,11
-1,5,6,-2,-3,5,-11,-9,-1,4,6,11
-1,5,6,-2,-3,5,-11,-9,-1,3,6,11
-1,5,6,-2,-3,5,-12,-9,-1,3,7,11
0,5,6,-2,-3,5,-12,-9,-1,3,7,11
0,5,6,-2,-3,5,-12,-9,-1,3,7,11
0,5,6,-2,-3,5,-13,-9,-1,3,7,11
0,5,6,-2,-3,5,-13,-9,-1,3,7,11
0,5,5,-2,-2,5,-13,-9,-1,4,8,11
0,5,5,-2,-2,4,-13,-9,-1,4,8,12
0,5,5,-2,-2,4,-13,-9,-1,4,9,12
0,5,5,-2,-2,5,-14,-9,-1,4,9,12
0,5,5,-2,-1,5,-14,-9,-1,4,10,12
0,5,4,-2,-1,4,-15,-9,-1,4,10,12
1,5,4,-3,0,4,-15,-9,0,5,11,12
1,5,4,-3,0,4,-15,-9,0,5,11,12
1,5,4,-3,0,4,-15,-9,0,6,12,12
1,5,3,-3,0,4,-15,-9,0,6,12,12
2,5,3,-3,0,4,-16,-9,0,7,12,11
2,6,3,-3,0,4,-16,-9,0,7,12,11
2,6,3,-4,0,5,-17,-9,0,7,13,12
2,6,3,-4,0,5,-17,-9,0,7,13,12
2,6,3,-4,0,5,-18,-9,0,7,14,13
2,6,4,-4,0,5,-18,-8,0,7,14,13
3,7,4,-4,0,5,-18,-8,0,7,14,13
3,6,3,-4,0,5,-18,-8,0,6,14,13
3,6,3,-4,0,4,-19,-8,0,6,14,13
3,6,3,-5,0,4,-19,-8,0,6,14,14
3,6,3,-5,0,4,-20,-8,0,6,14,14
3,6,2,-5,0,4,-21,-8,1,6,14,14
3,6,2,-5,1,4,-21,-8,1,6,14,14
4,6,2,-6,1,4,-21,-8,1,6,15,14
4,6,2,-6,1,4,-22,-8,1,6,15,14
5,6,1,-6,2,4,-22,-8,1,7,14,14
6,6,0,-6,3,3,-23,-8,1,7,14,14
6,7,0,-6,3,3,-23,-8,1,7,14,14
6,7,0,-6,3,3,-24,-8,1,7,14,14
6,7,0,-6,3,3,-25,-8,1,7,14,14
6,6,0,-7,4,3,-25,-8,1,7,15,14
6,6,0,-7,4,3,-26,-8,1,8,15,14
6,7,0,-7,4,3,-26,-8,1,8,15,14
6,7,0,-7,4,3,-26,-8,1,7,15,14
6,7,0,-7,4,3,-26,-8,1,7,15,14
7,7,-1,-8,5,3,-26,-8,1,7,16,14
8,8,-1,-8,5,3,-26,-8,1,6,16,14
8,8,-1,-8,5,3,-27,-8,1,5,15,14
9,8,-1,-8,6,2,-27,-8,1,5,14,14
9,8,-1,-8,6,2,-26,-8,1,5,14,14
9,8,-1,-8,5,3,-26,-8,1,5,14,14
9,8,-1,-8,5,3,-26,-7,1,5,14,14
9,7,-2,-8,6,2,-26,-7,1,5,14,14
9,7,-2,-8,6,2,-26,-7,1,5,14,13
9,7,-2,-8,6,2,-26,-6,1,5,15,14
8,7,-2,-8,6,2,-26,-6,2,5,15,14
8,7,-1,-8,5,2,-26,-5,2,5,15,14
8,7,-1,-8,5,2,-25,-5,2,5,15,14
8,7,-1,-8,5,3,-25,-5,2,5,15,14
8,8,0,-8,4,3,-25,-5,2,5,14,14
7,8,0,-7,4,3,-24,-4,3,5,14,14
7,7,0,-7,4,3,-23,-4,3,5,15,14
7,7,0,-7,4,3,-23,-3,3,5,15,14
7,8,0,-7,4,3,-23,-3,3,5,14,13
7,8,0,-7,4,4,-23,-4,3,5,14,13
7,7,0,-7,4,4,-23,-4,3,5,13,12
7,7,0,-7,5,3,-23,-4,3,5,13,12
7,7,0,-7,4,3,-22,-4,3,4,12,12
7,7,0,-7,4,3,-22,-3,3,4,12,12
7,7,-1,-7,4,3,-21,-3,4,4,12,12
7,7,-1,-7,4,3,-20,-3,4,3,12,12
7,7,0,-7,4,4,-19,-3,4,3,12,12
7,7,0,-7,4,4,-19,-2,4,3,12,12
7,7,0,-7,4,3,-18,-2,4,3,12,12
6,7,0,-6,3,3,-18,-1,5,4,12,12
6,7,1,-6,3,4,-17,-1,5,4,12,11
5,7,1,-6,2,5,-16,0,6,5,12,11
5,7,1,-6,2,4,-15,0,6,5,12,11
4,6,1,-5,2,4,-15,1,6,5,12,12
4,6,1,-5,2,4,-14,1,6,5,12,12
3,6,2,-5,1,4,-14,2,6,5,11,11
3,6,3,-4,0,4,-13,2,6,5,11,10
2,5,3,-4,0,4,-12,3,6,5,11,10
2,5,3,-4,0,3,-12,3,6,5,11,10
2,5,3,-4,0,4,-11,3,6,4,11,10
2,5,3,-3,0,4,-11,3,6,4,10,9
1,4,2,-3,0,3,-10,3,6,4,9,9
1,4,2,-2,0,3,-10,3,6,4,8,8
1,4,3,-2,-1,3,-9,4,6,4,8,8
0,4,3,-2,-1,3,-8,4,6,4,7,9
-1,3,3,-1,-1,3,-7,4,5,3,7,10
-1,2,3,-1,-1,2,-7,4,5,3,7,10
-1,2,3,-1,-1,2,-6,4,4,2,7,10
-2,2,3,0,-1,2,-6,4,4,2,6,9
-2,1,3,0,-1,2,-5,3,4,2,5,9
-2,1,2,0,-1,1,-5,3,4,2,5,8
-1,1,2,0,-1,1,-5,3,3,2,4,8
-1,1,2,0,-1,1,-5,3,3,1,4,7
-1,1,2,0,-1,1,-5,2,2,1,3,6
-1,0,2,0,-1,1,-4,2,1,0,3,5
-2,0,2,0,-1,1,-4,2,0,0,3,5
-2,0,3,0,-2,1,-4,1,0,0,3,5
-2,0,2,0,-2,1,-4,1,-1,0,3,5
-2,0,2,1,-2,0,-4,1,-1,0,3,5
-2,0,3,1,-2,1,-3,1,-2,0,3,4
-2,1,3,1,-2,1,-3,0,-2,0,3,4
-3,1,3,1,-2,2,-3,0,-2,0,3,4
-3,0,3,1,-2,2,-3,0,-2,0,2,4
-3,0,4,1,-3,2,-3,1,-2,0,2,4
-4,1,5,1,-3,3,-3,0,-2,-1,1,4
-4,1,5,1,-3,2,-3,0,-3,-1,0,4
-4,1,4,1,-3,2,-3,0,-3,-2,0,4
-4,1,4,1,-3,2,-3,0,-4,-3,0,4
-3,1,4,1,-3,2,-3,0,-4,-3,0,4
-3,1,4,1,-2,2,-3,0,-4,-3,1,4
-2,0,3,1,-2,2,-3,0,-4,-3,2,3
-2,0,2,1,-1,1,-3,0,-4,-3,2,2
-2,0,3,0,-1,1,-3,0,-5,-3,2,2
-2,0,3,0,-2,1,-3,0,-5,-3,1,3
-2,0,3,1,-2,1,-3,0,-5,-3,1,4
-3,0,3,1,-3,1,-3,0,-5,-3,1,5
-3,0,4,1,-3,2,-3,0,-5,-2,1,6
-4,0,4,1,-4,2,-3,0,-5,-2,1,6
-4,0,4,2,-4,2,-3,0,-5,-1,1,6
-4,0,4,2,-3,2,-3,0,-5,-1,2,7
-4,0,5,2,-4,2,-3,0,-4,0,3,7
-4,1,5,2,-4,3,-3,0,-4,0,3,6
-4,1,5,2,-3,2,-3,0,-4,-1,3,5
-4,1,4,1,-2,2,-3,0,-4,-1,2,4
-3,1,3,1,-2,2,-3,0,-4,-1,2,3
-3,1,3,1,-2,2,-3,0,-5,0,2,3
-3,1,4,1,-2,2,-3,0,-5,0,2,3
-3,1,4,1,-2,2,-3,0,-5,0,3,3
-3,1,4,1,-3,3,-3,0,-5,0,3,3
-3,2,5,1,-3,3,-3,0,-5,0,4,4
-3,2,6,1,-3,3,-2,0,-5,0,4,4
-3,2,5,1,-3,3,-2,0,-5,0,4,3
-2,2,5,1,-3,3,-3,0,-6,0,4,3
-2,2,5,0,-3,3,-3,0,-6,0,4,4
-1,2,4,0,-2,3,-4,0,-7,0,4,4
-1,2,4,0,-2,3,-4,-1,-7,0,4,4
-2,2,5,0,-3,4,-4,-1,-7,0,4,4
-2,3,6,0,-3,4,-4,-1,-7,0,4,5
-3,3,7,0,-4,5,-4,0,-6,0,4,5
-3,3,7,0,-4,5,-4,0,-6,1,4,5
-3,3,7,0,-4,5,-4,0,-6,1,4,6
-4,3,7,0,-5,5,-4,0,-6,2,4,6
-4,3,7,0,-5,5,-3,0,-6,2,4,6
-4,3,6,0,-5,5,-3,0,-6,2,4,5
-3,3,5,0,-4,4,-4,0,-6,2,4,4
-3,3,5,0,-4,5,-4,0,-6,2,4,4
-3,4,6,0,-4,5,-4,0,-6,2,4,4
-3,4,7,0,-4,5,-4,0,-6,2,4,4
-3,3,7,1,-4,5,-4,0,-6,2,5,3
-4,3,7,1,-4,5,-4,0,-6,3,5,3
-4,3,7,1,-5,5,-4,0,-6,3,5,3
-4,3,7,1,-4,5,-3,1,-6,3,5,3
-3,3,6,1,-4,5,-3,1,-6,3,5,3
-3,3,6,1,-4,5,-4,1,-6,3,5,4
-3,3,7,1,-4,5,-4,0,-6,3,4,4
-3,3,7,1,-4,5,-4,0,-6,3,4,4
-3,3,6,1,-3,4,-4,0,-7,3,4,5
-3,2,6,1,-3,4,-4,0,-7,2,4,5
-4,3,7,0,-4,4,-4,0,-8,2,4,6
-4,3,7,0,-4,5,-4,0,-8,2,4,6
-4,3,7,0,-4,5,-4,0,-8,2,4,5
-4,2,6,1,-5,5,-4,0,-9,1,3,4
-4,3,7,1,-5,5,-4,0,-10,0,3,4
-3,3,7,0,-5,5,-4,0,-10,1,2,4
-3,3,7,0,-5,5,-4,0,-10,1,2,4
-4,3,7,0,-5,5,-4,-1,-10,1,2,4
-4,3,7,0,-5,5,-4,-1,-10,0,2,4
-3,3,7,0,-4,5,-4,-1,-10,0,2,4
-3,3,6,0,-4,4,-4,-1,-10,0,2,3
-3,3,6,0,-4,4,-4,-1,-10,1,2,3
-3,3,6,1,-4,5,-4,-1,-10,1,2,2
-3,3,6,1,-4,5,-4,-1,-10,1,1,1
-3,3,6,0,-4,5,-4,0,-10,1,1,1
-4,3,6,0,-4,5,-4,0,-10,1,1,2
-4,3,6,1,-4,5,-4,0,-10,1,1,3
-4,3,6,1,-4,5,-5,-1,-11,1,1,3
-4,2,6,1,-4,5,-5,-2,-12,1,1,3
-4,2,7,1,-5,5,-5,-2,-13,1,2,3
-4,3,7,1,-5,5,-5,-2,-13,1,2,3
-4,3,8,0,-5,6,-5,-2,-13,0,2,3
-3,4,8,0,-5,6,-5,-2,-13,0,3,3
-3,4,7,0,-4,6,-5,-2,-13,0,3,3
-3,4,8,0,-5,6,-5,-2,-13,1,3,2
-3,5,9,0,-5,7,-5,-1,-12,1,3,2
-2,6,9,-1,-5,8,-4,-1,-12,2,4,2
-2,7,9,-2,-5,8,-4,0,-12,2,5,2
-2,7,10,-2,-5,9,-3,0,-11,3,5,3
-2,8,10,-2,-5,9,-3,0,-11,3,5,3
-2,8,10,-2,-5,9,-2,0,-11,2,5,4
-1,8,10,-2,-5,9,-2,0,-11,2,5,4
-1,8,9,-2,-4,9,-2,0,-12,2,5,4
0,9,9,-3,-4,10,-2,0,-13,2,5,4
0,10,9,-4,-4,10,-2,0,-13,2,5,4
0,10,9,-4,-4,10,-2,0,-13,2,5,4
0,9,10,-4,-4,10,-2,0,-12,3,5,4
0,10,11,-4,-5,10,-2,0,-11,4,6,4
0,11,11,-5,-5,11,-2,1,-10,5,7,4
0,11,11,-5,-5,11,-2,1,-10,5,7,4
0,11,11,-5,-5,11,-2,1,-9,6,7,4
0,11,11,-5,-5,12,-3,1,-10,6,6,4
0,11,11,-4,-5,12,-3,1,-10,5,6,4
0,10,11,-4,-5,11,-4,0,-11,4,5,4
0,9,10,-3,-5,10,-4,0,-12,3,5,4
0,9,10,-3,-5,10,-5,-1,-13,2,4,3
0,8,9,-3,-4,9,-6,-1,-13,2,4,3
0,8,9,-4,-4,9,-6,-2,-14,2,4,3
0,8,8,-4,-3,9,-6,-2,-14,2,4,3
1,8,7,-4,-3,8,-6,-2,-14,2,4,3
1,7,7,-4,-2,8,-7,-2,-14,2,4,4
1,6,6,-4,-1,7,-7,-3,-15,2,4,3
1,5,4,-3,0,5,-7,-3,-16,0,4,2
1,4,3,-2,0,3,-7,-3,-17,-1,4,1
1,3,3,-2,0,3,-7,-4,-18,-2,3,0
1,3,2,-2,0,2,-7,-4,-18,-2,2,0
1,2,1,-2,0,2,-8,-4,-17,-2,2,0
2,2,1,-2,1,2,-8,-4,-17,-2,1,1
2,3,1,-2,1,2,-8,-4,-17,-1,1,1
2,3,1,-2,1,2,-8,-4,-17,-1,1,1
3,3,0,-3,2,2,-8,-3,-17,-1,2,1
4,3,0,-3,3,1,-8,-3,-17,-1,2,1
4,4,0,-4,3,2,-8,-3,-17,-1,3,2
4,4,0,-4,2,2,-8,-4,-17,-1,3,2
4,4,1,-4,2,3,-8,-4,-17,-1,3,2
4,4,1,-4,2,3,-8,-5,-17,0,3,1
4,5,2,-4,1,3,-8,-5,-17,0,3,1
3,5,2,-4,1,4,-8,-5,-17,0,3,1
3,5,2,-4,0,4,-7,-5,-17,0,3,1
2,4,2,-3,0,3,-7,-5,-17,-1,2,0
1,4,3,-2,0,4,-7,-5,-17,-1,2,0
1,4,3,-2,0,4,-7,-5,-18,-1,2,0
0,4,4,-2,-1,4,-7,-6,-18,-2,2,0
0,3,4,-1,-1,4,-6,-6,-19,-2,2,1
-1,3,5,0,-2,4,-6,-6,-19,-3,1,1
-2,2,5,0,-3,4,-5,-6,-19,-3,1,1
-3,2,5,0,-3,4,-5,-6,-19,-2,1,1
-3,2,5,1,-4,4,-4,-5,-19,-2,1,0
-3,1,6,1,-4,4,-4,-5,-18,-2,0,-1
-3,1,6,1,-4,4,-4,-5,-18,-2,0,-2
-4,1,7,1,-5,4,-4,-5,-18,-3,-1,-2
-5,1,7,2,-5,4,-3,-5,-18,-4,-1,-3
-5,0,6,2,-5,3,-3,-5,-19,-4,-2,-3
-5,0,6,2,-5,3,-3,-5,-19,-5,-2,-4
-5,0,6,2,-5,3,-3,-5,-19,-5,-3,-3
-6,0,6,2,-5,3,-3,-5,-20,-5,-3,-3
-6,0,6,2,-5,3,-3,-5,-20,-4,-3,-2
-6,0,6,2,-5,3,-3,-5,-20,-4,-3,-2
-6,0,7,2,-5,4,-3,-5,-20,-4,-3,-1
-6,0,6,2,-5,3,-3,-6,-21,-3,-3,-1
-6,0,6,2,-5,3,-3,-6,-21,-3,-2,-2
-6,0,6,2,-5,3,-3,-6,-21,-3,-2,-2
-6,0,6,2,-5,3,-3,-6,-21,-3,-1,-2
-6,0,6,3,-5,3,-3,-6,-21,-3,-1,-2
-6,-1,6,3,-5,3,-3,-6,-21,-3,-1,-3
-6,-1,6,3,-5,3,-3,-6,-21,-3,-1,-3
-6,0,7,3,-6,3,-3,-6,-21,-3,-1,-4
-6,0,7,3,-6,4,-3,-7,-22,-3,-1,-4
-6,0,7,2,-6,4,-3,-8,-22,-3,-1,-3
-6,2,9,2,-7,6,-4,-9,-22,-3,-1,-1
-6,4,12,1,-8,8,-4,-10,-22,-2,0,0
-7,7,15,0,-10,11,-4,-10,-22,0,2,2
-8,10,19,-1,-13,15,-4,-10,-20,3,5,5
-9,12,23,-1,-15,18,-3,-9,-18,7,9,7
-10,15,27,-2,-18,21,-1,-7,-13,13,13,9
-10,19,30,-4,-19,24,1,-3,-6,21,19,12
-8,23,33,-7,-20,28,2,2,4,33,28,18
-5,29,35,-12,-19,32,3,10,18,49,41,26
-1,36,37,-18,-18,36,3,19,34,67,56,35
5,42,37,-24,-15,40,4,30,54,88,72,45
13,48,35,-30,-10,41,5,45,76,109,89,55
21,50,30,-35,-4,40,6,60,96,126,102,62
28,47,20,-37,4,34,8,76,112,134,108,63
34,41,8,-38,14,25,11,91,125,135,108,60
40,34,-5,-37,24,14,16,107,135,133,103,54
44,25,-19,-35,33,3,21,120,140,125,94,46
46,16,-30,-32,40,-6,26,128,139,112,82,37
48,8,-40,-29,45,-15,28,129,127,92,66,26
48,0,-47,-25,48,-23,28,121,107,67,47,14
46,-8,-53,-19,50,-29,27,106,81,40,26,1
42,-15,-55,-13,49,-34,24,86,51,13,5,-10
35,-21,-55,-7,45,-37,19,59,18,-13,-14,-21
27,-27,-53,0,41,-39,15,30,-14,-36,-30,-30
19,-32,-52,6,37,-41,14,8,-38,-52,-42,-37
12,-36,-49,12,32,-42,15,-4,-53,-61,-50,-42
5,-38,-45,16,26,-41,17,-12,-61,-66,-55,-46
1,-39,-40,18,21,-39,18,-17,-65,-68,-57,-47
-1,-38,-36,19,18,-37,17,-20,-66,-67,-56,-45
-2,-36,-32,19,16,-34,15,-22,-66,-65,-54,-43
-4,-32,-26,18,12,-29,15,-22,-64,-61,-51,-41
-6,-28,-21,18,9,-24,16,-21,-62,-56,-48,-38
-8,-25,-16,17,6,-20,19,-19,-59,-52,-45,-36
-10,-23,-12,17,2,-17,23,-17,-55,-48,-43,-34
-14,-20,-6,17,-2,-13,27,-15,-53,-45,-40,-32
-17,-18,0,17,-7,-9,31,-13,-50,-41,-37,-30
-20,-15,6,17,-12,-5,37,-11,-47,-38,-33,-27
-22,-12,11,17,-16,-1,42,-9,-44,-35,-31,-25
-23,-10,14,17,-18,1,46,-8,-43,-33,-29,-23
-24,-9,17,17,-20,3,50,-7,-42,-31,-28,-22
-26,-8,18,17,-21,5,56,-6,-41,-30,-27,-22
-27,-8,18,18,-21,5,62,-5,-39,-28,-26,-21
-28,-8,19,18,-22,5,66,-5,-38,-27,-26,-21
-28,-8,20,18,-23,6,68,-7,-39,-27,-25,-21
-29,-8,20,18,-23,6,67,-9,-40,-27,-25,-21
-29,-9,20,18,-23,5,64,-11,-41,-27,-25,-21
-28,-9,20,18,-23,5,59,-14,-42,-27,-25,-21
-28,-9,20,18,-23,5,54,-17,-43,-27,-25,-21
-28,-9,19,18,-22,5,49,-20,-44,-28,-25,-21
-27,-9,17,18,-21,4,42,-22,-45,-28,-25,-21
-26,-9,16,18,-20,4,35,-24,-45,-27,-25,-20
-25,-9,15,17,-19,3,29,-25,-44,-26,-24,-20
-23,-9,14,16,-18,3,24,-25,-44,-26,-23,-20
-21,-9,13,15,-17,2,18,-25,-42,-24,-22,-19
-20,-8,13,13,-16,3,13,-25,-41,-23,-20,-18
-18,-6,13,11,-15,4,7,-24,-39,-20,-18,-16
-16,-4,13,9,-13,4,2,-22,-36,-18,-16,-14
-14,-2,12,7,-12,5,-1,-21,-34,-15,-14,-13
-12,0,11,6,-10,5,-4,-20,-32,-13,-13,-11
-10,1,11,4,-9,6,-5,-18,-30,-12,-11,-10
-9,2,11,3,-9,7,-6,-17,-28,-11,-10,-10
-7,2,11,2,-8,7,-7,-15,-27,-10,-10,-9
-7,2,11,1,-8,7,-7,-14,-26,-9,-9,-9
-6,3,11,1,-8,8,-8,-14,-25,-9,-9,-8
-6,4,12,0,-8,9,-10,-14,-25,-8,-9,-8
-6,5,12,0,-8,9,-11,-15,-25,-8,-9,-8
-6,5,12,0,-8,9,-11,-15,-25,-7,-8,-8
-6,6,12,0,-8,9,-12,-15,-25,-7,-8,-8
-5,6,12,0,-8,9,-13,-15,-25,-7,-8,-8
-4,6,11,-1,-7,9,-13,-15,-25,-7,-8,-8
-3,6,10,-1,-6,8,-13,-15,-24,-7,-9,-8
-3,6,10,-1,-6,8,-13,-15,-24,-7,-9,-8
-3,6,10,-1,-6,8,-13,-15,-23,-7,-9,-8
-3,6,10,-1,-5,8,-13,-15,-23,-7,-9,-8
-3,6,10,-1,-5,8,-13,-14,-23,-7,-9,-8
-3,6,10,-1,-5,8,-13,-14,-23,-7,-9,-8
-2,7,10,-2,-5,8,-13,-14,-23,-7,-9,-8
-2,7,10,-2,-5,8,-13,-14,-23,-7,-8,-8
-2,7,10,-2,-5,8,-14,-14,-22,-6,-8,-8
-2,6,10,-2,-5,8,-14,-14,-22,-6,-8,-8
-2,6,10,-2,-5,8,-14,-14,-22,-5,-8,-8
-2,6,10,-2,-5,8,-14,-14,-21,-5,-7,-8
-2,6,10,-2,-5,8,-14,-14,-21,-4,-7,-8
-2,6,10,-2,-5,8,-14,-13,-20,-4,-6,-8
-3,6,10,-2,-5,8,-14,-13,-19,-4,-6,-8
-3,6,10,-2,-5,8,-14,-13,-19,-4,-6,-8
-3,6,9,-2,-5,8,-14,-12,-19,-3,-6,-8
-2,6,8,-2,-5,7,-14,-12,-19,-3,-6,-8
-2,6,8,-2,-4,7,-14,-13,-19,-3,-6,-8
-2,6,8,-2,-4,8,-15,-13,-19,-3,-6,-8
-2,6,9,-2,-4,8,-15,-13,-18,-3,-6,-8
-1,7,9,-3,-4,8,-15,-13,-18,-3,-6,-7
-1,8,9,-3,-4,8,-15,-13,-18,-3,-6,-7
0,8,9,-4,-4,9,-16,-13,-18,-3,-6,-7
0,8,9,-4,-4,9,-16,-13,-18,-3,-6,-6
0,8,9,-4,-4,9,-16,-13,-18,-3,-6,-6
0,8,9,-4,-4,9,-16,-13,-17,-3,-5,-6
0,9,9,-4,-4,9,-16,-13,-17,-2,-5,-6
0,9,9,-5,-4,9,-16,-12,-16,-1,-4,-6
0,9,8,-5,-3,9,-16,-12,-16,-1,-4,-6
0,9,8,-5,-3,9,-17,-12,-15,0,-3,-6
1,10,8,-5,-3,9,-17,-12,-15,0,-3,-6
2,11,8,-6,-2,10,-18,-12,-15,0,-3,-6
3,11,8,-7,-2,10,-18,-12,-15,0,-3,-6
3,12,8,-7,-1,10,-19,-12,-15,0,-3,-6
4,12,8,-8,-1,10,-19,-12,-15,0,-3,-6
4,11,7,-8,-1,9,-20,-12,-15,1,-3,-6
4,11,7,-8,0,9,-20,-12,-15,2,-3,-5
4,11,7,-8,-1,9,-21,-12,-14,3,-3,-5
4,12,7,-8,-1,9,-21,-12,-14,3,-3,-5
4,12,7,-8,-1,9,-22,-13,-14,3,-4,-5
4,12,7,-8,0,9,-22,-13,-14,4,-4,-5
5,12,6,-9,0,9,-23,-13,-14,4,-4,-5
6,12,6,-9,1,9,-23,-13,-14,5,-4,-5
7,13,5,-10,1,9,-24,-13,-15,5,-4,-6
8,13,5,-11,2,9,-24,-13,-15,5,-4,-6
8,13,4,-10,2,8,-24,-13,-15,6,-4,-6
8,13,4,-10,2,8,-24,-13,-14,6,-4,-6
8,13,4,-10,2,9,-25,-13,-14,7,-4,-6
8,13,4,-10,2,9,-25,-13,-13,8,-4,-6
9,13,4,-10,3,9,-25,-13,-13,8,-4,-6
9,13,4,-10,3,9,-25,-13,-13,8,-4,-6
9,13,4,-11,3,8,-25,-14,-13,8,-4,-6
9,13,4,-11,3,8,-26,-14,-13,8,-4,-6
9,13,3,-11,3,8,-26,-14,-13,8,-4,-6
9,13,3,-11,3,8,-26,-14,-13,8,-4,-6
9,13,3,-11,3,8,-27,-14,-13,8,-5,-7
9,13,3,-11,4,8,-27,-15,-13,8,-6,-7
10,12,2,-11,5,7,-27,-15,-13,8,-7,-8
11,12,1,-11,5,7,-27,-15,-14,8,-8,-8
11,12,2,-11,5,7,-27,-15,-14,8,-8,-8
10,12,2,-11,4,8,-26,-14,-13,8,-9,-8
9,12,3,-10,3,8,-26,-14,-13,8,-9,-8
9,12,2,-10,3,8,-25,-14,-13,8,-9,-8
10,12,2,-11,4,8,-25,-14,-13,8,-9,-8
10,13,2,-11,4,8,-25,-14,-13,8,-10,-8
10,13,2,-11,4,8,-24,-14,-13,8,-10,-8
9,12,2,-11,4,7,-23,-13,-13,8,-10,-8
9,12,3,-11,3,7,-23,-13,-13,8,-9,-8
9,13,4,-11,3,8,-23,-13,-13,8,-9,-8
9,13,4,-11,3,8,-23,-13,-13,8,-8,-8
9,13,3,-11,3,8,-22,-12,-13,8,-8,-8
9,13,3,-11,3,8,-22,-12,-13,8,-7,-8
9,13,3,-11,3,8,-21,-12,-13,8,-7,-8
9,13,3,-11,3,8,-21,-12,-13,8,-7,-8
9,11,2,-10,3,7,-20,-12,-13,8,-7,-9
8,10,2,-9,3,6,-20,-12,-13,8,-7,-9
7,10,3,-8,2,6,-19,-12,-12,7,-7,-10
7,10,3,-8,2,6,-18,-12,-12,7,-6,-10
7,10,3,-8,2,6,-17,-11,-11,7,-6,-10
7,10,2,-8,2,6,-17,-11,-11,7,-6,-10
7,10,2,-8,2,7,-17,-11,-11,7,-6,-10
7,10,2,-8,2,7,-16,-11,-11,7,-5,-9
7,10,2,-8,2,6,-15,-10,-10,7,-5,-9
7,10,2,-8,2,6,-14,-10,-10,7,-5,-9
7,10,3,-8,2,6,-13,-9,-9,7,-4,-9
7,10,3,-8,1,6,-12,-9,-9,7,-4,-9
7,10,3,-8,1,6,-11,-8,-9,7,-3,-9
6,9,2,-7,1,6,-10,-8,-8,7,-3,-9
6,9,3,-7,1,7,-9,-7,-8,7,-3,-9
5,9,4,-6,0,7,-8,-7,-8,6,-4,-10
4,9,4,-6,0,7,-8,-6,-8,6,-4,-10
4,9,4,-5,0,7,-7,-6,-8,6,-4,-10
4,9,4,-5,-1,7,-7,-5,-8,5,-4,-10
3,8,5,-5,-1,7,-6,-5,-8,5,-4,-10
2,8,5,-4,-2,7,-5,-5,-8,4,-4,-10
2,8,5,-4,-2,7,-5,-5,-8,4,-4,-10
1,7,5,-4,-2,7,-4,-5,-8,3,-5,-10
1,7,5,-4,-2,7,-4,-5,-8,3,-5,-10
1,6,5,-4,-2,6,-3,-5,-8,2,-5,-10
1,6,4,-3,-1,5,-3,-4,-8,2,-6,-10
1,5,4,-3,-1,5,-2,-4,-8,2,-6,-10
0,5,5,-3,-2,5,-2,-5,-8,2,-6,-10
0,5,5,-2,-2,5,-2,-5,-8,1,-6,-10
0,5,4,-2,-2,5,-1,-5,-8,0,-6,-10
0,5,4,-2,-2,5,-1,-5,-8,0,-7,-10
0,5,4,-2,-2,5,-1,-5,-9,-1,-7,-11
0,5,4,-2,-2,5,-1,-6,-9,-1,-8,-11
0,4,4,-1,-2,4,-1,-6,-9,-1,-8,-10
0,4,4,-1,-2,4,0,-6,-9,-1,-8,-10
-1,4,4,-1,-2,4,0,-6,-9,0,-8,-10
-1,3,4,0,-2,3,0,-6,-9,0,-7,-11
-1,2,3,0,-2,3,0,-6,-9,0,-7,-11
-2,1,3,0,-2,2,0,-5,-8,0,-6,-11
-2,1,3,1,-3,2,0,-5,-8,0,-6,-11
-3,1,3,1,-3,2,0,-5,-8,0,-6,-11
-3,0,3,1,-3,2,0,-5,-8,-1,-7,-11
-3,0,3,2,-3,2,0,-5,-8,-1,-8,-11
-3,1,4,2,-3,3,0,-5,-9,-2,-8,-11
-3,1,4,1,-4,3,1,-5,-9,-2,-9,-11
-4,1,4,1,-4,3,1,-5,-9,-3,-9,-11
-4,1,4,1,-4,3,1,-5,-9,-3,-9,-11
-4,1,4,1,-4,3,0,-6,-9,-3,-9,-11
-4,2,5,1,-4,3,0,-6,-9,-3,-9,-11
-4,2,5,1,-4,3,0,-6,-9,-3,-9,-11
-3,2,4,1,-3,3,0,-6,-9,-2,-9,-11
-3,2,4,1,-3,3,1,-6,-8,-2,-8,-11
-3,2,4,1,-3,3,1,-6,-8,-1,-8,-11
-3,1,4,1,-3,3,1,-6,-8,-1,-7,-11
-4,1,4,1,-3,2,1,-5,-7,0,-7,-11
-4,1,4,1,-3,2,1,-5,-7,0,-6,-11
-4,1,5,1,-3,3,1,-4,-7,0,-6,-11
-4,1,5,1,-3,3,2,-4,-7,-1,-6,-11
-4,0,4,2,-3,2,2,-4,-7,-1,-6,-12
-4,0,4,2,-3,2,2,-4,-7,-1,-6,-12
-3,0,3,1,-3,2,2,-4,-7,-1,-6,-12
-3,0,3,1,-3,2,2,-4,-6,-1,-6,-12
-3,0,2,1,-3,2,2,-3,-6,-1,-6,-12
-3,0,2,1,-3,1,2,-3,-6,-1,-6,-12
-3,0,3,1,-3,2,2,-3,-6,-1,-5,-12
-3,1,3,1,-3,2,2,-3,-6,-1,-5,-12
-2,1,3,1,-3,2,2,-4,-6,-2,-5,-12
-2,1,3,1,-3,2,2,-4,-6,-2,-5,-12
-2,2,4,1,-3,3,2,-5,-6,-3,-5,-11
-2,2,4,0,-4,3,1,-5,-6,-3,-5,-11
-2,2,5,0,-4,3,1,-5,-5,-3,-5,-11
-3,2,5,0,-4,3,1,-4,-5,-3,-5,-11
-3,1,5,1,-4,3,1,-4,-5,-3,-5,-11
-4,1,5,1,-4,3,1,-4,-5,-3,-5,-12
-4,1,5,1,-4,3,2,-4,-5,-3,-5,-12
-4,0,4,2,-4,2,2,-3,-4,-3,-4,-12
-4,0,3,2,-4,2,2,-3,-4,-3,-4,-12
-4,0,4,2,-4,2,2,-2,-3,-3,-4,-12
-5,0,4,2,-5,2,2,-2,-3,-3,-3,-12
-5,-1,3,2,-4,2,2,-2,-3,-3,-3,-12
-5,-1,3,2,-4,1,2,-2,-3,-3,-3,-12
-5,0,3,2,-4,1,2,-2,-3,-4,-3,-13
-4,0,4,2,-4,2,2,-2,-4,-5,-3,-13
-4,1,4,1,-4,3,1,-2,-4,-5,-3,-12
-4,2,5,1,-4,3,1,-3,-4,-5,-3,-12
-4,2,5,1,-4,4,1,-3,-4,-6,-4,-12
-4,2,4,0,-4,4,1,-3,-4,-6,-4,-12
-3,1,3,0,-3,3,1,-3,-4,-7,-4,-12
-3,1,2,0,-3,2,1,-3,-3,-7,-4,-12
-3,1,2,0,-2,2,1,-3,-3,-7,-4,-12
-3,0,2,0,-2,2,1,-3,-2,-7,-4,-13
-3,0,2,1,-2,1,1,-2,-2,-6,-4,-13
-2,-1,1,1,-1,0,1,-1,-1,-6,-4,-13
-2,-1,0,1,-1,0,1,-1,-1,-6,-4,-13
-3,-1,1,1,-2,1,1,-1,-1,-6,-4,-12
-4,0,2,1,-3,1,1,-1,-1,-6,-4,-12
-4,0,3,1,-4,2,1,-2,-1,-6,-3,-11
-4,0,4,1,-4,2,1,-2,-1,-6,-4,-11
-4,1,4,1,-4,3,0,-3,-2,-7,-4,-10
-4,1,4,1,-4,3,0,-3,-1,-6,-4,-10
-4,1,4,1,-4,3,0,-2,-1,-6,-4,-10
-4,1,4,1,-4,3,0,-2,0,-6,-4,-10
-4,1,4,1,-4,3,0,-2,0,-6,-4,-10
-4,0,4,1,-4,3,0,-2,0,-6,-4,-10
-3,0,4,1,-4,2,1,-1,0,-6,-4,-10
-3,-1,3,1,-3,2,1,-1,0,-6,-4,-10
-3,-1,3,1,-3,1,1,-1,0,-6,-4,-10
-3,-1,3,1,-3,1,1,-1,0,-6,-4,-10
-4,-1,2,2,-3,1,1,-1,0,-7,-5,-10
-4,-1,2,2,-2,0,1,-1,0,-7,-5,-10
-3,-1,2,2,-2,0,1,-1,0,-7,-5,-10
-3,-1,2,1,-2,1,1,-1,0,-7,-4,-9
-3,-1,1,1,-2,0,1,-1,0,-7,-4,-9
-2,0,1,1,-2,0,0,-1,0,-7,-5,-8
-2,0,1,0,-2,1,0,-1,0,-8,-5,-8
-2,1,2,0,-2,2,0,-1,0,-7,-5,-8
-2,2,2,0,-2,2,0,0,0,-7,-5,-7
-2,2,2,0,-2,3,1,0,0,-6,-4,-6
-2,3,3,-1,-2,4,1,0,0,-6,-4,-6
-1,4,5,-2,-3,5,1,0,1,-5,-3,-5
-1,5,5,-2,-3,6,2,0,2,-4,-3,-5
-1,5,5,-2,-3,6,2,1,2,-3,-2,-4
-1,5,5,-2,-3,5,3,2,3,-2,-2,-4
-1,4,5,-2,-3,5,3,2,3,-2,-1,-4
-1,4,4,-1,-3,4,4,3,3,-1,0,-4
-1,3,4,-1,-3,4,4,3,4,-1,0,-4
0,4,4,-1,-2,4,4,3,4,-1,-1,-4
0,4,4,-2,-2,4,4,3,4,-2,-1,-4
0,4,5,-2,-2,5,4,3,4,-2,-1,-4
0,4,4,-2,-2,5,4,3,4,-2,-1,-4
0,5,4,-3,-1,5,4,3,3,-3,-1,-4
1,6,5,-3,-1,5,4,3,3,-3,-1,-3
1,7,5,-4,-1,6,4,3,3,-3,-1,-2
1,7,5,-4,-1,6,4,3,4,-3,-2,-1
1,6,4,-3,-1,5,4,3,3,-3,-2,-1
1,5,4,-3,-1,5,3,2,3,-4,-3,-1
1,4,3,-3,-1,4,2,2,3,-4,-3,-2
1,3,2,-2,0,3,2,2,3,-3,-3,-2
2,3,1,-2,1,2,1,2,3,-2,-3,-3
3,3,0,-3,2,2,0,1,3,-2,-2,-3
3,3,0,-3,2,2,-1,1,3,-1,-2,-3
4,3,0,-3,2,2,-2,1,3,-1,-1,-3
4,4,0,-4,2,2,-2,1,4,0,0,-2
4,5,0,-4,2,3,-2,1,4,0,1,-1
4,5,1,-5,2,3,-3,0,4,0,1,-1
4,5,0,-5,2,3,-3,0,4,0,0,0
4,5,0,-4,3,3,-3,0,3,-1,-1,0
4,4,-1,-4,3,2,-3,0,3,-2,-2,0
4,3,-2,-3,3,1,-2,0,3,-2,-3,0
3,1,-2,-2,3,0,-2,1,3,-2,-4,-1
3,0,-3,-2,3,-1,-1,1,3,-2,-4,-1
3,0,-4,-2,4,-1,-1,1,2,-3,-4,-1
3,0,-4,-2,4,-1,-1,1,1,-4,-4,-1
3,0,-3,-2,3,-1,-1,1,2,-3,-4,-1
2,1,-2,-2,3,0,-1,1,2,-3,-4,-1
3,2,-2,-2,2,0,-1,1,3,-2,-4,0
3,3,-1,-3,2,1,-1,0,2,-2,-3,0
4,3,-1,-4,2,2,-2,-1,1,-2,-3,0
4,3,-1,-4,2,1,-2,-1,1,-2,-2,0
4,2,-1,-3,2,1,-2,-2,1,-2,-2,0
4,2,-1,-3,2,1,-2,-2,1,-1,-2,0
4,3,0,-3,2,1,-2,-1,1,-1,-2,0
3,2,0,-3,2,1,-1,-1,1,-2,-3,-1
3,1,0,-2,1,0,-1,0,2,-3,-3,-1
2,1,0,-1,0,1,0,0,2,-3,-4,-1
0,2,1,-1,0,2,0,0,2,-4,-5,0
0,2,2,-1,-1,3,0,0,1,-4,-5,0
-1,2,3,0,-2,3,1,0,1,-4,-6,0
-2,2,3,0,-3,3,1,0,2,-4,-6,-1
-2,1,3,0,-3,3,1,0,2,-4,-7,-1
-3,0,2,1,-2,2,1,0,2,-3,-7,-2
-3,-1,2,2,-2,1,2,0,3,-2,-6,-2
-4,-2,2,3,-3,1,2,0,4,-1,-5,-2
-4,-2,2,3,-3,1,2,0,4,-1,-5,-3
-5,-2,3,3,-4,1,2,0,4,-1,-5,-3
-5,-2,3,3,-4,1,2,0,4,-1,-5,-3
-5,-1,3,3,-4,1,2,0,4,-2,-5,-3
-5,-1,3,3,-4,1,3,0,4,-3,-6,-2
-5,0,3,3,-4,1,3,0,3,-4,-7,-2
-5,0,3,3,-4,1,3,0,3,-5,-8,-1
-5,-1,3,3,-4,1,4,0,3,-6,-8,-1
-5,-1,3,3,-4,1,4,0,3,-6,-9,-1
-5,-2,3,4,-4,0,4,0,3,-7,-9,-2
-6,-3,3,4,-4,0,4,0,3,-7,-9,-3
-6,-4,3,5,-4,0,4,0,4,-6,-8,-3
-7,-3,3,5,-5,0,4,0,4,-5,-8,-3
-7,-3,4,5,-5,1,3,-1,4,-4,-8,-3
-7,-3,4,5,-5,1,3,-1,4,-4,-8,-3
-7,-2,4,4,-5,1,3,-1,5,-3,-7,-2
-7,-2,4,4,-5,1,3,-1,6,-2,-6,-2
-6,-2,4,4,-5,1,3,0,6,-2,-5,-2
-6,-2,4,4,-5,1,3,0,6,-1,-5,-2
-6,-1,4,3,-5,1,4,0,6,-1,-4,-1
-6,0,6,3,-5,2,4,0,7,0,-3,0
-6,1,7,2,-6,4,4,0,8,2,-1,1
-6,4,10,0,-7,7,5,0,11,6,1,4
-6,7,13,0,-9,10,6,2,15,10,5,7
-7,10,16,-1,-11,13,7,6,20,16,9,10
-7,13,19,-3,-13,17,9,10,27,23,15,13
-6,16,22,-5,-14,20,10,16,36,33,24,18
-3,21,23,-9,-13,23,11,23,48,47,35,25
2,26,24,-14,-11,25,10,31,61,62,48,33
8,31,23,-19,-8,27,10,40,76,78,62,42
15,35,20,-25,-3,28,9,51,92,94,75,50
23,36,14,-29,4,26,9,62,106,106,86,57
30,34,4,-32,12,20,9,72,114,108,89,58
37,29,-9,-33,22,11,9,81,115,101,83,53
43,21,-23,-32,33,0,11,90,114,88,71,45
49,11,-38,-30,43,-13,15,98,110,73,57,34
53,0,-53,-27,53,-26,18,104,103,56,41,22
54,-9,-64,-23,59,-36,20,103,90,36,24,9
53,-17,-70,-18,62,-44,21,95,72,15,6,-3
49,-24,-73,-12,61,-48,21,82,51,-6,-11,-14
43,-29,-73,-6,58,-50,20,65,29,-26,-28,-23
36,-33,-68,-1,52,-50,18,45,6,-45,-43,-31
27,-35,-63,4,45,-48,16,22,-15,-60,-55,-37
18,-39,-58,10,38,-48,17,4,-31,-70,-64,-41
9,-43,-53,16,31,-48,19,-6,-41,-76,-69,-44
1,-46,-48,21,25,-47,23,-11,-46,-77,-71,-46
-4,-47,-43,25,20,-45,26,-13,-47,-76,-71,-47
-6,-46,-39,26,17,-43,26,-15,-47,-74,-68,-45
-8,-44,-36,26,14,-40,25,-16,-46,-70,-64,-43
-9,-40,-31,25,12,-35,24,-16,-42,-65,-60,-39
-9,-35,-26,23,9,-30,24,-16,-38,-59,-55,-36
-10,-30,-20,21,5,-25,25,-14,-34,-54,-50,-32
-11,-26,-15,19,2,-21,27,-11,-29,-48,-46,-29
-13,-24,-11,18,-1,-17,31,-8,-25,-43,-43,-26
-15,-22,-6,18,-5,-14,35,-5,-21,-39,-40,-23
-18,-20,0,18,-9,-10,40,-1,-18,-35,-37,-21
-20,-17,4,18,-13,-6,46,2,-14,-31,-34,-19
-22,-15,8,18,-15,-2,52,4,-10,-27,-31,-17
-23,-12,11,18,-17,0,56,4,-8,-23,-28,-16
-24,-11,13,18,-18,2,59,3,-7,-21,-25,-15
-24,-10,13,18,-19,2,64,4,-6,-20,-24,-14
-25,-11,13,18,-19,1,70,5,-6,-20,-23,-13
-26,-12,14,19,-20,1,76,5,-6,-20,-23,-13
-27,-13,14,20,-21,1,81,5,-7,-20,-23,-12
-28,-13,15,21,-22,1,84,4,-7,-20,-23,-12
-29,-13,16,21,-22,2,85,3,-8,-20,-23,-11
-29,-12,17,21,-23,2,83,0,-9,-21,-23,-11
-29,-11,17,20,-23,3,80,-1,-9,-21,-24,-10
-28,-10,17,19,-23,3,77,-3,-9,-21,-24,-9
-27,-9,17,18,-22,3,74,-6,-10,-21,-24,-9
-26,-10,16,18,-21,2,68,-8,-10,-21,-23,-9
-26,-11,14,18,-20,1,62,-10,-11,-21,-22,-9
-25,-13,11,18,-18,0,55,-12,-11,-21,-22,-9
-23,-14,8,18,-16,-2,47,-13,-12,-21,-21,-9
-22,-14,7,18,-14,-3,38,-14,-11,-20,-20,-9
-20,-13,6,17,-13,-2,30,-14,-10,-19,-18,-7
-18,-11,6,15,-12,-1,22,-14,-8,-16,-16,-6
-15,-8,7,12,-11,0,14,-14,-6,-14,-14,-4
-13,-6,7,9,-10,0,7,-14,-4,-12,-13,-2
-11,-4,7,7,-9,2,2,-12,-2,-11,-12,0
-9,-2,7,5,-8,2,0,-10,-1,-10,-11,0
-9,-2,6,5,-7,2,0,-8,0,-10,-10,1
-8,-2,5,5,-6,2,0,-6,2,-9,-10,2
-8,-3,4,5,-5,1,-1,-5,3,-8,-9,2
-7,-3,3,5,-5,0,-1,-5,4,-7,-8,1
-7,-3,2,5,-4,0,-2,-4,5,-6,-7,1
-6,-3,2,5,-4,0,-4,-5,5,-6,-7,1
-5,-2,2,4,-4,0,-5,-5,4,-5,-6,1
-4,-1,3,3,-4,1,-6,-5,4,-5,-6,2
-4,0,4,2,-4,2,-7,-5,4,-6,-7,2
-4,0,4,2,-4,3,-8,-4,4,-6,-7,3
-4,0,4,2,-3,3,-8,-4,4,-6,-7,3
-4,0,4,2,-3,2,-8,-3,5,-6,-7,3
-3,0,3,2,-2,1,-8,-2,6,-5,-6,3
-3,-1,2,2,-2,0,-8,-2,7,-5,-6,3
-3,-1,2,2,-2,0,-9,-2,7,-5,-5,4
-3,0,2,1,-2,1,-9,-2,7,-5,-4,4
-2,0,2,0,-2,1,-10,-3,7,-5,-4,4
-1,0,2,0,-1,1,-10,-3,6,-6,-4,4
-1,1,2,0,-1,2,-11,-3,5,-6,-4,4
-2,2,3,0,-2,2,-11,-3,5,-5,-3,5
-2,2,3,0,-3,2,-12,-3,5,-5,-2,5
-1,2,3,0,-2,2,-12,-3,6,-4,-2,6
-1,1,2,0,-2,2,-12,-3,6,-5,-2,6
-1,1,2,0,-2,1,-11,-3,6,-6,-3,6
-1,0,1,1,-1,1,-11,-2,6,-7,-4,6
0,0,0,1,0,0,-12,-2,6,-7,-3,6
0,0,0,1,0,0,-12,-2,6,-7,-2,7
0,0,0,0,0,1,-12,-3,5,-7,-2,7
0,1,1,0,0,1,-13,-3,5,-7,-2,8
1,2,1,-1,0,1,-13,-3,5,-6,-2,8
2,2,1,-2,0,1,-13,-3,6,-6,-1,8
2,3,1,-2,0,2,-13,-3,6,-5,0,8
2,2,1,-2,0,2,-14,-3,6,-5,0,8
2,2,0,-2,0,1,-14,-3,5,-5,0,8
2,2,0,-2,1,1,-15,-3,5,-6,0,8
2,2,0,-2,1,1,-15,-3,5,-6,0,8
2,3,1,-3,1,2,-15,-3,5,-6,0,9
3,4,1,-3,1,2,-15,-3,5,-6,-1,9
3,3,0,-3,1,2,-15,-3,5,-6,-1,9
2,3,0,-2,1,2,-15,-2,5,-6,-1,9
2,3,1,-2,0,3,-16,-3,4,-5,-1,10
2,4,2,-3,0,3,-16,-3,4,-4,0,10
2,5,2,-4,0,4,-17,-3,5,-2,1,11
3,6,4,-4,0,5,-18,-3,6,-1,2,11
3,7,5,-5,0,5,-18,-3,5,-1,3,11
3,7,4,-5,0,5,-19,-4,5,-2,2,11
4,7,3,-5,1,5,-19,-4,5,-2,2,11
4,7,3,-6,1,5,-20,-4,5,-1,1,12
4,7,3,-6,1,5,-20,-5,5,-1,1,12
5,7,2,-6,1,5,-20,-5,5,0,2,12
5,7,1,-6,1,5,-20,-5,5,0,2,12
5,6,1,-6,2,4,-20,-6,5,0,3,12
6,6,0,-6,3,4,-21,-7,4,0,3,12
7,6,0,-6,3,3,-22,-7,4,0,3,12
7,6,0,-6,4,3,-23,-8,4,0,4,13
8,7,-1,-7,4,3,-24,-8,4,0,4,13
8,7,-1,-7,4,3,-24,-8,3,0,4,14
9,8,-1,-8,5,4,-25,-8,3,0,4,14
9,8,-1,-9,5,4,-25,-7,3,0,4,15
9,8,-2,-9,5,3,-25,-7,3,0,3,15
9,8,-1,-9,5,4,-25,-7,3,0,2,15
9,9,0,-9,5,4,-25,-7,3,0,2,15
9,9,0,-9,5,5,-25,-7,3,0,2,15
10,9,0,-9,5,5,-25,-7,3,0,2,16
10,9,-1,-9,5,5,-25,-8,3,0,3,16
10,9,-1,-9,5,4,-26,-8,3,1,3,16
10,9,-1,-9,6,4,-26,-8,4,2,3,16
11,9,-2,-10,6,4,-26,-7,4,3,4,16
11,9,-2,-10,6,4,-25,-6,5,3,5,16
10,9,-1,-9,6,4,-25,-6,5,3,5,15
10,8,-2,-9,7,3,-24,-5,5,3,5,13
11,6,-4,-8,8,1,-23,-5,5,2,4,12
10,5,-5,-8,8,0,-22,-5,4,1,3,12
10,5,-5,-8,8,0,-22,-5,4,1,3,13
10,6,-5,-8,8,0,-23,-6,4,1,3,14
11,6,-5,-9,8,1,-23,-6,3,1,2,15
12,6,-5,-9,8,1,-23,-6,3,1,2,16
12,7,-4,-9,8,1,-23,-6,3,1,2,16
11,7,-3,-9,7,2,-22,-6,3,1,2,16
11,7,-2,-9,7,2,-21,-5,4,2,3,16
10,7,-2,-9,6,2,-20,-5,4,3,4,16
10,8,-2,-9,6,3,-19,-4,5,3,4,16
10,8,-2,-8,5,3,-18,-3,5,3,4,15
9,7,-2,-7,5,3,-17,-1,6,3,4,15
8,6,-2,-6,5,2,-16,0,7,3,4,15
8,5,-2,-6,5,1,-15,0,7,3,3,15
7,4,-2,-5,5,0,-14,0,7,3,3,14
7,3,-3,-5,5,0,-14,0,7,3,3,14
7,3,-3,-5,5,0,-13,0,7,3,3,14
6,3,-2,-5,5,0,-13,1,7,4,3,14
5,4,-1,-5,4,1,-12,2,8,4,3,14
5,4,-1,-5,3,1,-11,2,8,4,3,15
5,4,-1,-4,3,1,-10,3,8,4,4,15
5,4,-1,-4,3,1,-9,4,8,4,4,15
4,4,0,-4,2,1,-8,4,8,3,4,15
4,4,0,-4,2,1,-7,4,9,3,3,15
4,4,0,-4,3,1,-6,5,10,4,3,15
4,4,0,-4,3,1,-6,5,11,4,2,14
4,3,0,-4,3,1,-5,6,11,5,2,14
3,2,-1,-3,3,0,-4,6,11,5,1,13
3,0,-3,-2,3,-1,-3,7,11,5,1,12
2,0,-3,-1,3,-2,-2,7,11,5,0,11
2,-1,-3,-1,2,-2,-1,7,11,4,0,11
2,-1,-3,-1,2,-2,-1,7,11,3,0,11
2,-1,-3,-1,2,-2,0,7,11,2,0,11
1,-1,-3,0,2,-2,0,7,10,1,-1,11
1,-1,-2,0,2,-1,0,7,10,0,-1,11
1,-1,-1,0,1,0,0,7,9,0,-2,11
1,0,-1,0,1,0,0,7,9,1,-2,11
1,0,0,0,1,0,1,7,9,1,-2,11
1,0,0,-1,0,0,1,7,9,1,-2,10
1,0,0,-1,0,0,2,6,8,0,-2,10
1,0,-1,0,1,0,2,6,7,-1,-3,10
1,0,-2,0,1,-1,3,5,6,-2,-3,10
1,-1,-2,0,1,-1,3,4,5,-4,-4,10
0,0,-1,0,0,0,3,3,4,-5,-4,10
0,0,0,0,0,0,4,3,4,-5,-4,10
-1,0,0,1,-1,0,4,3,4,-4,-4,11
-2,-1,1,2,-2,0,4,3,4,-4,-4,11
-3,-1,2,3,-3,0,4,3,4,-3,-5,11
-3,-1,2,3,-3,0,4,3,4,-3,-5,11
-3,-1,2,2,-3,0,4,3,4,-4,-5,12
-3,-1,2,2,-3,0,4,3,3,-4,-5,12
-4,-1,3,2,-3,1,4,3,3,-4,-5,11
-4,-1,4,2,-4,1,4,3,2,-4,-6,11
-5,-1,4,3,-4,1,4,3,2,-4,-6,10
-5,-1,4,3,-4,1,4,3,2,-4,-6,10
-6,-1,5,4,-5,2,4,3,2,-4,-6,10
-6,0,5,4,-5,2,4,3,2,-4,-6,11
-6,-1,5,4,-6,2,4,3,2,-4,-6,11
-7,-1,5,4,-6,2,4,3,2,-4,-6,11
-7,-1,6,4,-7,2,4,3,2,-4,-6,12
-7,-1,6,4,-7,3,3,3,1,-4,-6,12
-7,-1,5,4,-6,2,3,2,1,-4,-6,12
-6,-2,4,4,-6,2,3,2,0,-4,-6,12
-6,-1,4,3,-5,2,3,2,0,-4,-6,12
-5,0,4,3,-5,3,3,2,0,-4,-6,12
-5,0,4,2,-5,3,3,2,0,-4,-6,12
-5,0,4,2,-4,2,3,2,0,-4,-6,12
-5,0,4,2,-4,2,3,2,0,-4,-6,12
-4,0,5,2,-4,3,3,2,0,-4,-6,13
-4,1,5,1,-4,3,3,2,0,-4,-5,13
-4,0,4,1,-4,3,3,2,0,-4,-5,13
-4,0,4,2,-4,3,3,2,0,-4,-5,13
-4,0,4,2,-4,3,3,2,0,-4,-5,13
-4,0,4,2,-4,3,3,2,0,-4,-5,13
-4,0,4,2,-4,3,3,2,0,-4,-5,13
-4,0,4,2,-4,3,3,2,0,-4,-5,13
-4,0,5,2,-5,3,3,2,0,-4,-5,13
-5,0,5,2,-5,3,3,2,0,-4,-5,13
-5,0,4,2,-5,3,3,2,0,-4,-5,14
-4,0,4,2,-5,3,3,2,0,-4,-4,14
-4,0,4,2,-5,3,2,2,0,-4,-4,14
-4,0,4,2,-5,3,2,2,0,-4,-4,14
-4,0,3,2,-4,2,2,2,0,-4,-4,14
-4,0,3,2,-4,2,2,2,0,-4,-4,14
-4,0,4,2,-4,2,2,2,0,-4,-3,14
-3,0,4,1,-4,3,2,2,0,-4,-3,14
-3,0,3,1,-4,2,2,2,0,-4,-3,14
-3,0,3,1,-3,2,2,2,0,-4,-3,14
-3,0,3,1,-3,2,2,2,0,-4,-2,14
-3,0,3,1,-4,2,2,2,0,-4,-2,13
-3,0,3,1,-4,2,2,1,-1,-4,-2,13
-3,0,3,1,-3,2,1,1,-1,-4,-2,13
-3,0,3,1,-3,2,1,1,-1,-4,-2,13
-3,0,3,1,-4,2,1,1,-1,-4,-2,13
-4,0,3,1,-4,2,1,1,-1,-4,-1,13
-4,0,3,1,-4,1,1,1,-1,-4,-1,13
-4,0,3,1,-3,1,1,1,-1,-4,-1,13
-4,0,3,1,-3,2,1,1,-1,-4,-1,13
-4,0,3,1,-3,2,1,0,-2,-4,-1,13
-4,0,2,2,-3,2,0,0,-2,-5,-1,13
-3,0,2,2,-3,1,0,0,-2,-5,-1,12
-2,0,2,1,-2,2,0,0,-2,-5,0,12
-2,0,2,0,-2,2,0,0,-2,-5,0,12
-2,0,2,0,-2,2,0,0,-2,-5,0,12
-2,0,2,0,-2,1,0,-1,-3,-4,0,12
-2,0,2,0,-3,1,0,-1,-3,-4,0,12
-2,0,2,0,-3,1,0,-2,-3,-3,0,12
-2,0,2,0,-2,1,0,-2,-3,-3,0,13
-2,0,2,0,-2,1,0,-2,-3,-2,1,13
-2,0,2,0,-2,1,0,-2,-3,-2,1,12
-2,0,2,0,-3,2,0,-2,-3,-1,1,11
-2,0,2,0,-3,2,0,-2,-3,-1,1,11
-2,0,2,0,-3,1,0,-2,-3,-1,1,11
-2,0,2,0,-3,1,0,-2,-3,-1,1,11
-2,0,2,0,-3,2,0,-2,-3,0,1,11
-2,0,2,0,-3,2,1,-2,-2,0,1,10
-2,0,2,0,-3,2,1,-2,-2,0,1,10
-2,1,2,0,-2,2,1,-2,-2,1,2,11
-1,1,3,0,-2,2,1,-2,-2,1,2,11
-2,1,3,0,-3,3,1,-2,-2,2,2,11
-2,1,4,0,-3,3,1,-2,-2,2,3,11
-2,2,4,0,-4,3,1,-2,-1,3,3,10
-2,3,5,0,-4,4,2,-2,-1,4,4,10
-2,4,5,-1,-4,5,2,-1,0,5,4,11
-2,4,5,-1,-4,5,2,-1,0,6,5,11
-2,5,6,-1,-4,6,2,-1,0,7,5,11
-1,5,6,-2,-4,7,3,-1,1,7,5,11
-1,6,7,-2,-4,7,3,-1,1,7,5,11
-1,6,7,-3,-4,7,3,-1,1,7,5,11
-1,6,6,-3,-4,6,3,-1,1,7,6,10
-1,6,7,-3,-4,6,3,0,1,7,6,10
-1,7,7,-3,-4,7,3,0,2,8,6,11
-1,7,8,-3,-4,7,3,0,3,8,6,11
-1,7,8,-3,-4,8,3,0,3,8,6,12
-1,7,8,-3,-4,8,3,0,4,9,6,12
-1,7,9,-3,-5,9,3,0,4,9,7,12
0,7,9,-4,-5,9,3,0,4,10,7,13
0,7,8,-4,-4,8,3,0,4,10,7,13
1,8,8,-5,-4,8,3,0,4,10,8,13
1,9,7,-6,-3,8,2,0,4,11,8,13
1,8,7,-6,-3,8,1,0,4,11,9,13
1,7,6,-5,-3,7,1,0,4,11,9,12
1,7,6,-5,-3,7,0,0,4,11,9,13
1,7,7,-5,-3,8,0,-1,4,11,9,13
1,8,7,-5,-3,8,-1,-1,4,11,9,13
2,8,6,-5,-2,7,-1,-2,4,11,9,14
2,8,5,-6,-1,7,-2,-2,4,11,9,14
2,8,4,-6,-1,7,-2,-2,4,10,9,14
2,8,4,-6,-1,6,-3,-3,4,9,8,13
2,7,4,-5,-1,5,-3,-3,4,8,8,12
2,5,3,-4,0,4,-4,-3,4,8,7,11
1,4,2,-3,0,3,-4,-3,4,7,7,11
1,3,2,-3,-1,3,-4,-3,4,7,7,10
0,2,2,-2,0,2,-4,-3,4,7,7,9
0,2,1,-2,0,2,-4,-3,4,7,7,9
1,2,0,-2,0,2,-4,-3,5,6,8,9
1,2,0,-2,0,2,-4,-3,5,6,8,10
1,1,0,-2,0,1,-4,-3,5,5,8,10
1,1,0,-2,0,1,-4,-3,6,5,8,11
2,2,0,-3,1,1,-5,-3,6,5,9,11
3,3,0,-3,1,1,-5,-3,6,5,10,11
3,3,-1,-4,2,1,-5,-3,7,5,10,11
4,3,-1,-4,2,1,-6,-3,7,5,10,11
4,3,-1,-4,2,1,-6,-3,7,4,10,11
4,3,-1,-4,2,1,-6,-4,7,4,10,10
3,3,0,-3,2,1,-6,-4,7,3,11,10
3,2,0,-3,2,1,-6,-4,7,2,11,10
2,2,0,-2,2,1,-6,-4,8,1,11,10
1,1,0,-2,2,1,-6,-4,8,1,11,9
0,1,0,-1,1,1,-6,-4,8,0,11,9
0,0,0,-1,0,1,-6,-4,9,0,11,10
-1,0,0,0,-1,1,-5,-4,9,0,11,10
-2,0,1,0,-2,1,-5,-4,9,-1,11,10
-3,0,1,0,-2,1,-4,-3,9,-1,11,9
-3,0,1,1,-2,0,-4,-3,9,-2,11,9
-3,0,1,1,-2,0,-4,-3,9,-2,11,9
-3,0,2,1,-3,0,-4,-3,9,-3,11,9
-4,-1,2,2,-3,0,-3,-3,9,-3,11,9
-5,-2,2,2,-3,0,-3,-3,10,-3,10,9
-5,-2,1,3,-3,0,-3,-3,10,-4,10,9
-5,-2,2,3,-4,0,-3,-2,10,-4,10,9
-5,-3,2,3,-4,0,-3,-2,10,-5,9,9
-5,-3,2,3,-4,-1,-3,-2,10,-5,9,8
-5,-4,1,3,-4,-1,-3,-2,10,-5,8,8
-5,-4,1,3,-4,-1,-3,-2,10,-5,7,7
-6,-3,2,3,-4,-1,-3,-2,10,-5,6,7
-6,-3,2,4,-5,-1,-3,-2,10,-5,6,7
-6,-4,2,4,-4,-1,-3,-2,10,-5,6,7
-6,-4,2,4,-4,-1,-3,-2,10,-5,6,7
-6,-4,2,4,-4,-1,-3,-2,10,-5,6,7
-6,-4,1,4,-4,-1,-3,-2,10,-5,6,7
-6,-5,1,4,-4,-2,-3,-2,10,-5,5,7
-6,-5,1,4,-4,-2,-3,-2,10,-4,5,7
-6,-4,1,4,-4,-1,-3,-2,10,-4,4,7
-6,-4,1,4,-4,-1,-3,-2,10,-4,4,7
-6,-4,1,4,-4,-1,-3,-2,10,-4,4,7
-6,-4,2,4,-4,0,-3,-2,10,-3,4,7
-6,-2,4,4,-5,1,-3,-3,10,-3,5,7
-6,0,6,3,-6,3,-3,-4,9,-3,6,8
-6,2,8,2,-7,5,-4,-5,10,-1,8,10
-6,5,11,1,-9,8,-4,-5,10,1,10,12
-7,8,15,0,-11,12,-4,-5,12,5,14,14
-8,11,19,-1,-13,15,-2,-3,16,10,18,17
-8,13,21,-2,-15,18,0,0,22,17,24,20
-7,17,24,-4,-16,21,1,5,30,27,33,25
-5,22,27,-8,-16,25,2,12,42,41,44,32
-1,27,28,-13,-15,28,2,19,56,57,58,41
3,33,29,-19,-13,31,2,28,72,77,74,51
10,39,28,-25,-9,34,2,39,91,98,91,61
17,44,26,-31,-4,35,2,52,110,116,106,70
24,43,18,-34,2,31,2,65,125,126,114,73
31,38,6,-35,12,22,4,79,136,127,114,71
37,31,-8,-34,22,11,7,92,144,122,109,65
43,23,-22,-33,32,0,11,104,150,115,101,57
47,14,-34,-31,40,-10,15,114,151,103,89,48
50,6,-45,-28,47,-19,19,117,145,87,74,39
50,-2,-53,-24,51,-27,20,113,130,67,57,28
48,-10,-58,-19,52,-34,20,103,109,43,37,16
44,-16,-61,-14,52,-38,19,88,85,18,17,4
38,-22,-61,-8,49,-41,17,67,57,-6,-1,-7
31,-27,-60,-2,45,-43,13,42,27,-28,-18,-17
24,-33,-58,4,41,-45,12,20,1,-46,-30,-25
16,-37,-55,10,35,-46,13,6,-15,-57,-39,-31
9,-40,-51,15,30,-45,15,-1,-24,-63,-45,-35
5,-41,-47,17,25,-44,17,-6,-28,-65,-47,-36
2,-40,-43,18,22,-42,16,-9,-30,-63,-46,-36
0,-38,-39,18,19,-39,15,-11,-30,-60,-43,-34
-1,-35,-33,18,16,-34,14,-12,-29,-56,-39,-31
-3,-32,-28,17,13,-30,14,-12,-28,-52,-35,-28
-5,-29,-24,17,9,-26,15,-11,-25,-48,-32,-26
-8,-26,-19,17,5,-22,18,-9,-22,-43,-28,-23
-10,-23,-15,17,1,-18,21,-6,-19,-39,-25,-21
-13,-21,-10,17,-2,-15,25,-4,-17,-35,-23,-19
-16,-19,-4,17,-7,-12,30,-2,-14,-32,-20,-16
-19,-17,2,17,-11,-8,36,0,-12,-29,-18,-14
-20,-14,7,17,-14,-4,40,1,-10,-26,-16,-12
-21,-13,9,17,-15,-2,43,2,-9,-24,-14,-11
-22,-11,10,17,-16,0,46,2,-8,-23,-12,-9
-23,-10,11,17,-17,0,52,3,-7,-21,-11,-8
-24,-10,12,17,-18,1,58,5,-5,-19,-11,-7
-25,-10,12,17,-18,1,63,5,-5,-19,-11,-7
-25,-11,12,17,-19,0,66,4,-6,-19,-11,-7
-25,-11,13,17,-19,0,67,3,-7,-19,-12,-7
-25,-11,13,17,-19,1,66,0,-8,-19,-12,-7
-25,-11,13,17,-19,1,63,-3,-10,-19,-12,-7
-25,-12,12,18,-18,0,58,-6,-11,-20,-12,-8
-25,-13,11,18,-18,0,53,-9,-12,-20,-12,-8
-24,-13,10,18,-17,-1,47,-12,-12,-20,-13,-8
-23,-13,9,17,-17,-1,41,-14,-13,-21,-13,-7
-22,-13,8,17,-15,-3,35,-16,-13,-21,-14,-7
-20,-13,6,16,-14,-4,28,-17,-14,-21,-14,-6
-19,-13,6,16,-13,-4,21,-18,-14,-21,-14,-6
-18,-13,5,15,-12,-4,16,-18,-14,-20,-13,-6
-16,-12,4,14,-10,-4,10,-18,-13,-19,-12,-5
-14,-11,3,12,-9,-3,5,-17,-11,-17,-9,-3
-12,-9,2,9,-7,-3,0,-16,-8,-14,-6,-1
-10,-7,2,7,-6,-2,-3,-14,-5,-11,-4,0
-9,-6,2,6,-6,-2,-5,-13,-3,-9,-2,1
-8,-4,2,5,-5,-1,-6,-11,-1,-7,0,0
-7,-3,2,4,-5,0,-7,-9,0,-6,0,0
-6,-3,2,3,-5,0,-8,-8,0,-6,1,0
-5,-2,2,3,-4,0,-9,-8,1,-5,2,0
-4,-2,1,2,-2,0,-9,-8,1,-5,2,2
-3,-1,1,1,-2,0,-10,-8,2,-5,2,3
-3,0,2,1,-3,1,-11,-7,2,-4,3,4
-4,0,2,1,-3,1,-12,-7,2,-4,3,4
-4,0,3,1,-4,1,-12,-7,2,-4,3,5
-4,0,3,0,-4,2,-12,-6,2,-3,4,6
-4,1,4,0,-4,2,-12,-6,3,-2,5,6
-4,1,4,0,-5,3,-12,-5,3,-1,6,7
-4,1,4,0,-5,3,-12,-5,3,-1,6,6
-4,1,4,0,-5,3,-12,-5,3,-1,7,6
-4,2,5,0,-5,4,-14,-5,3,-1,7,5
-4,2,5,0,-5,4,-14,-5,3,0,7,6
-3,2,4,0,-4,3,-14,-5,2,0,7,6
-3,2,4,0,-4,3,-14,-6,2,0,8,6
-3,2,4,0,-5,4,-14,-6,1,0,8,6
-3,2,5,0,-5,4,-14,-5,1,0,7,6
-2,2,4,-1,-4,3,-15,-5,1,0,7,6
-2,2,4,-1,-3,3,-15,-5,0,0,7,5
-2,3,4,-1,-3,3,-15,-5,0,1,7,5
-2,3,4,-1,-3,3,-15,-5,0,1,8,5
-2,3,3,-1,-3,3,-15,-5,0,2,8,5
-1,3,3,-1,-3,3,-15,-5,0,2,8,4
-1,3,3,-1,-3,3,-15,-5,0,3,8,4
-1,3,4,-2,-3,4,-15,-5,0,4,8,4
-1,3,4,-2,-2,4,-15,-5,0,4,8,4
0,4,4,-3,-2,4,-15,-5,0,5,9,4
0,4,4,-3,-2,4,-15,-5,0,5,9,4
0,5,4,-3,-2,4,-16,-4,1,5,9,5
0,5,5,-3,-3,5,-16,-4,1,6,9,5
0,5,5,-2,-3,5,-16,-4,1,6,9,5
0,5,5,-3,-3,5,-16,-4,1,6,10,5
0,5,5,-3,-3,5,-17,-4,1,6,10,6
0,5,5,-3,-3,5,-17,-4,1,6,11,6
0,5,5,-3,-2,4,-18,-3,1,7,11,6
0,5,5,-3,-2,4,-18,-3,1,7,11,6
0,5,5,-3,-2,5,-18,-3,1,7,11,6
0,6,5,-3,-2,5,-19,-3,1,7,11,6
0,6,4,-3,-1,5,-19,-3,1,7,11,7
0,6,4,-3,-1,5,-20,-3,1,7,11,7
1,5,4,-3,-1,5,-20,-4,0,7,11,7
1,5,4,-4,-1,5,-21,-4,0,8,12,7
2,6,4,-4,-1,5,-21,-4,0,8,12,7
2,6,3,-5,0,5,-22,-4,0,8,12,8
3,6,3,-5,0,5,-22,-4,0,8,12,9
3,7,3,-6,0,5,-22,-4,-1,7,12,9
4,7,2,-6,1,5,-22,-4,-1,7,12,9
4,7,1,-6,1,4,-23,-4,-1,7,13,10
5,7,1,-6,2,4,-23,-4,-2,7,13,10
5,7,0,-6,2,4,-24,-4,-2,7,13,11
5,7,0,-6,2,4,-24,-4,-1,7,13,11
5,7,0,-6,2,4,-24,-3,-1,8,14,11
6,7,0,-6,2,4,-25,-3,-1,8,14,11
6,8,1,-7,2,4,-25,-3,-1,9,15,11
6,8,1,-8,2,4,-25,-3,-1,9,15,11
7,8,0,-8,3,4,-25,-3,-1,9,15,11
7,8,0,-8,3,4,-26,-3,-1,9,14,11
8,8,0,-8,3,4,-26,-3,-1,9,14,11
8,9,0,-8,3,4,-27,-3,-1,9,13,11
8,9,0,-9,4,4,-27,-3,-1,9,13,11
9,8,0,-9,4,3,-27,-3,-2,8,13,10
8,8,0,-9,4,3,-27,-3,-2,8,13,9
8,8,0,-9,4,3,-27,-3,-3,8,12,9
8,8,0,-9,4,3,-27,-4,-3,8,12,9
9,9,-1,-9,5,3,-27,-4,-3,7,13,8
9,9,-1,-9,5,3,-27,-4,-4,7,13,8
9,10,0,-9,5,4,-27,-4,-4,6,14,9
9,9,-1,-9,5,3,-27,-4,-4,6,14,9
10,9,-2,-9,5,3,-27,-4,-5,6,14,10
10,9,-2,-10,5,3,-27,-4,-5,6,14,11
10,9,-1,-10,5,3,-26,-3,-5,6,14,10
10,9,-1,-10,5,4,-26,-3,-5,6,14,10
10,9,-1,-10,5,4,-26,-3,-6,6,14,9
9,9,-1,-9,5,4,-25,-3,-5,7,14,9
8,9,0,-9,4,4,-25,-3,-5,7,14,10
9,9,0,-9,5,4,-24,-2,-5,7,14,10
10,10,-1,-10,5,4,-23,-2,-5,7,13,9
10,10,0,-10,5,4,-23,-2,-5,6,13,9
9,10,0,-10,4,4,-22,-2,-6,6,12,9
8,10,0,-10,4,4,-21,-1,-6,6,12,9
8,10,0,-9,4,4,-21,-1,-6,6,12,9
8,10,0,-9,4,5,-21,-1,-6,5,13,9
8,11,0,-9,4,5,-21,-1,-6,5,13,10
8,11,0,-9,4,5,-20,-1,-6,5,13,11
8,10,0,-9,3,5,-19,-1,-6,5,13,10
7,9,1,-8,3,5,-18,-1,-6,5,13,8
6,9,1,-8,2,5,-18,-1,-6,5,13,7
6,9,2,-8,1,5,-17,0,-6,6,13,6
5,9,2,-8,1,5,-16,0,-6,6,13,6
5,9,2,-8,1,5,-15,0,-6,7,13,7
5,9,2,-8,1,5,-15,0,-7,7,13,7
5,9,3,-7,1,6,-14,0,-7,7,13,7
4,8,3,-7,0,6,-13,0,-7,7,12,7
4,8,3,-6,0,6,-13,0,-6,7,12,7
4,8,3,-6,0,6,-13,0,-6,7,12,7
3,8,4,-6,0,6,-12,0,-7,6,12,7
3,8,4,-6,0,6,-11,0,-7,6,12,7
3,8,3,-5,0,5,-10,1,-7,5,11,6
3,7,4,-5,-1,5,-10,1,-7,5,10,6
2,7,5,-5,-2,6,-9,1,-8,5,10,5
1,7,5,-4,-2,6,-8,1,-8,5,10,5
1,6,4,-4,-2,5,-7,1,-8,5,9,5
1,6,4,-3,-2,4,-6,1,-9,4,9,4
1,6,4,-3,-2,4,-6,0,-9,3,8,3
1,6,4,-3,-2,4,-5,0,-10,2,8,3
1,5,3,-3,-2,3,-5,0,-10,2,7,2
1,5,3,-3,-2,3,-5,0,-11,1,6,2
0,4,3,-3,-2,3,-5,0,-11,1,6,1
0,4,3,-2,-2,4,-4,0,-11,1,5,0
0,3,2,-2,-1,3,-4,-1,-11,1,5,-1
0,3,2,-1,-1,3,-3,-1,-11,0,4,-1
0,3,2,-1,-2,3,-3,-1,-11,0,4,-2
-1,3,3,-1,-2,3,-2,-1,-11,0,4,-2
-1,3,4,0,-3,3,-2,-1,-11,0,4,-2
-2,2,4,0,-3,3,-2,-1,-12,0,3,-2
-2,2,5,0,-4,4,-2,-1,-13,0,3,-2
-2,2,5,0,-4,4,-2,-2,-13,-1,2,-2
-2,2,4,0,-3,3,-2,-2,-14,-1,2,-2
-2,2,3,0,-2,3,-2,-3,-15,-2,1,-2
-2,2,3,0,-2,3,-2,-4,-16,-2,1,-2
-2,2,4,0,-3,3,-2,-4,-16,-3,1,-1
-2,2,4,0,-3,3,-2,-5,-17,-3,1,-1
-1,2,3,0,-3,3,-2,-5,-17,-4,1,-1
-1,2,3,0,-3,3,-2,-5,-18,-4,0,-1
-2,1,3,0,-3,3,-2,-5,-18,-5,0,-1
-3,1,3,0,-3,3,-2,-4,-18,-5,0,-1
-3,1,3,0,-3,2,-2,-4,-18,-5,0,-1
-3,1,3,0,-3,2,-2,-4,-18,-5,0,-1
-3,1,4,1,-4,3,-2,-4,-18,-4,0,-1
-4,1,5,1,-4,3,-1,-4,-17,-4,0,-2
-4,1,4,1,-4,3,-1,-4,-17,-4,0,-3
-3,1,4,1,-4,3,-1,-4,-17,-4,0,-3
-3,2,4,1,-4,3,-1,-4,-17,-4,0,-3
-3,2,4,1,-4,4,-1,-4,-17,-4,-1,-3
-3,2,4,0,-4,3,-2,-4,-17,-4,-1,-3
-2,2,3,0,-3,3,-2,-4,-18,-4,-1,-3
-2,2,4,0,-3,3,-2,-5,-18,-5,-1,-3
-2,2,4,0,-4,3,-2,-5,-18,-5,-1,-3
-2,2,4,0,-3,3,-2,-5,-18,-6,-1,-3
-2,2,4,0,-3,3,-2,-5,-18,-6,-1,-4
-3,2,5,0,-3,3,-2,-5,-19,-6,-1,-4
-3,2,5,0,-4,4,-2,-5,-19,-5,-1,-4
-3,2,5,0,-4,4,-2,-4,-18,-5,0,-4
-3,3,5,0,-4,4,-2,-4,-18,-4,0,-3
-2,3,5,0,-4,4,-2,-4,-18,-4,0,-3
-2,3,5,-1,-3,4,-2,-4,-18,-4,0,-3
-1,3,5,-1,-3,4,-2,-4,-18,-4,0,-2
-2,3,5,-1,-3,4,-2,-4,-18,-3,0,-2
-2,3,5,-1,-3,4,-2,-4,-18,-3,1,-2
-2,3,5,-1,-4,4,-2,-4,-18,-3,1,-2
-3,3,5,0,-4,4,-2,-4,-18,-2,1,-1
-3,3,5,0,-4,4,-2,-4,-17,-1,1,-2
-2,3,5,-1,-4,4,-2,-4,-17,-1,0,-2
-2,4,6,-1,-4,5,-2,-3,-17,-1,0,-3
-2,4,6,-1,-4,5,-2,-3,-16,-1,1,-3
-2,4,6,-1,-4,5,-2,-4,-17,-1,1,-3
-2,3,6,-1,-4,5,-3,-4,-17,-2,0,-3
-2,3,6,-1,-4,5,-3,-4,-17,-3,0,-3
-2,3,6,-1,-4,5,-2,-4,-17,-3,0,-3
-2,3,5,-1,-4,5,-2,-4,-17,-3,0,-3
-2,3,5,-1,-4,5,-2,-4,-17,-3,0,-2
-2,4,6,-1,-4,5,-2,-4,-17,-3,0,-2
-2,4,7,-1,-4,6,-2,-4,-17,-3,1,-1
-2,4,7,-1,-4,6,-2,-4,-17,-3,1,-1
-2,4,6,-1,-4,6,-2,-4,-17,-3,1,-1
-2,5,6,-2,-4,6,-2,-4,-17,-3,1,-1
-2,5,5,-2,-4,6,-2,-4,-18,-3,1,0
-2,4,5,-1,-4,5,-2,-4,-17,-2,0,-1
-2,4,5,-1,-4,5,-2,-3,-17,-1,0,-2
-2,4,6,-1,-4,5,-3,-3,-17,-1,0,-3
-3,3,6,0,-4,5,-3,-4,-17,-1,0,-3
-3,3,6,0,-4,5,-3,-4,-18,-1,1,-3
-2,3,5,-1,-3,5,-3,-4,-18,-1,1,-2
-1,3,4,-1,-2,5,-3,-4,-18,-1,1,-2
-2,4,5,-1,-3,5,-3,-4,-17,-1,1,-2
-2,4,5,-1,-3,5,-3,-4,-17,-1,1,-2
-2,3,5,0,-4,5,-3,-4,-17,-1,1,-2
-2,4,6,0,-4,5,-3,-3,-17,-1,2,-1
-2,4,6,-1,-4,5,-3,-3,-17,-1,2,-1
-1,4,6,-1,-4,5,-3,-3,-17,-1,1,-2
-2,4,6,-1,-4,5,-3,-3,-17,-1,1,-2
-2,3,6,0,-4,5,-3,-3,-17,-1,1,-3
-3,3,7,0,-5,5,-3,-2,-17,-1,0,-4
-3,4,6,0,-5,5,-3,-2,-17,-1,0,-4
-2,4,6,-1,-4,5,-2,-2,-17,-1,0,-4
-2,4,6,-1,-4,6,-2,-2,-17,-1,1,-4
-2,4,6,-1,-5,6,-2,-2,-17,0,1,-4
-2,4,7,-1,-5,6,-2,-2,-17,0,1,-4
-2,4,6,-1,-5,6,-2,-2,-18,0,1,-4
-2,4,6,-1,-4,5,-2,-3,-18,1,1,-5
-2,4,6,-1,-4,5,-2,-3,-18,1,1,-5
-2,5,6,-1,-3,5,-2,-3,-18,1,1,-6
-1,5,5,-1,-3,5,-2,-3,-18,0,1,-6
-1,4,5,-1,-2,5,-2,-3,-18,0,1,-6
-1,4,5,-1,-2,5,-2,-4,-18,0,0,-6
0,4,5,-2,-2,5,-2,-4,-19,-1,0,-6
0,4,4,-2,-2,5,-2,-4,-19,-1,0,-5
0,4,4,-2,-1,4,-2,-4,-19,-1,0,-5
0,5,4,-2,-1,5,-2,-4,-19,0,0,-4
0,6,5,-2,-2,6,-2,-4,-19,0,1,-4
0,6,6,-2,-2,7,-2,-4,-18,0,2,-3
0,7,6,-2,-3,7,-2,-4,-18,0,2,-3
0,7,7,-2,-3,8,-1,-4,-18,0,1,-3
-1,7,9,-3,-4,9,0,-3,-17,1,1,-3
-1,8,10,-3,-5,10,0,-2,-16,1,2,-3
-1,8,10,-3,-5,10,1,-2,-15,1,3,-2
-1,9,11,-4,-6,10,1,-2,-15,2,3,-2
-2,9,11,-4,-6,11,1,-2,-15,2,4,-2
-2,10,12,-4,-7,11,1,-2,-15,3,5,-2
-1,10,12,-4,-6,11,1,-2,-15,3,5,-2
-1,10,11,-5,-6,11,1,-2,-15,4,6,-2
-1,11,11,-5,-6,11,0,-2,-15,4,6,-2
0,11,11,-6,-6,12,0,-2,-15,5,6,-2
0,11,11,-6,-5,12,0,-2,-15,5,6,-2
0,11,10,-6,-5,11,0,-2,-15,5,6,-2
0,11,10,-6,-5,11,0,-2,-15,5,6,-2
0,11,10,-6,-5,11,0,-3,-15,5,6,-2
0,11,10,-6,-4,11,0,-3,-15,5,6,-2
0,10,9,-6,-4,10,-1,-4,-15,4,5,-2
0,10,8,-6,-3,9,-2,-5,-16,4,5,-3
0,10,8,-6,-3,9,-3,-6,-17,3,4,-3
1,9,8,-6,-3,9,-4,-6,-18,3,4,-3
1,9,7,-6,-2,8,-5,-7,-19,2,4,-3
2,9,6,-6,-2,8,-5,-7,-19,2,4,-3
2,9,6,-6,-2,8,-6,-7,-19,1,4,-4
2,9,5,-6,-1,7,-6,-8,-19,1,3,-4
2,8,5,-5,-1,7,-6,-8,-20,1,3,-4
2,7,4,-5,-1,6,-7,-9,-20,1,2,-4
2,7,4,-5,0,6,-7,-9,-21,0,1,-5
3,6,3,-4,0,5,-8,-9,-22,0,1,-6
3,5,2,-4,0,5,-8,-10,-22,0,0,-6
3,5,2,-4,0,4,-8,-10,-22,-1,0,-7
3,5,2,-4,0,4,-8,-10,-23,-1,0,-7
3,6,2,-5,0,4,-8,-11,-23,-1,0,-7
4,6,1,-5,1,4,-8,-11,-24,-1,0,-7
5,6,1,-6,2,4,-8,-11,-24,-1,0,-7
6,7,1,-7,3,5,-8,-11,-24,-1,0,-7
6,7,1,-7,3,5,-8,-11,-23,-1,0,-7
7,8,1,-8,3,6,-8,-11,-23,-1,0,-6
7,8,1,-8,3,6,-8,-11,-23,-1,0,-6
7,8,1,-7,3,6,-8,-11,-23,-1,0,-6
6,8,1,-7,2,5,-7,-11,-23,-1,0,-7
6,7,1,-6,2,5,-7,-11,-23,-1,0,-7
5,7,0,-6,2,4,-6,-11,-23,-1,0,-7
5,6,0,-6,2,4,-6,-11,-23,-1,0,-8
4,6,0,-5,2,3,-5,-11,-23,-1,0,-9
4,5,0,-5,1,3,-5,-11,-23,-1,0,-9
3,5,0,-4,1,3,-5,-10,-22,-1,0,-9
2,4,1,-3,0,3,-4,-10,-22,0,0,-9
0,4,3,-2,-1,4,-4,-10,-21,0,0,-10
-1,4,4,-2,-2,4,-3,-10,-21,0,0,-10
-2,3,4,-1,-3,4,-3,-10,-21,0,0,-10
-3,3,5,0,-3,4,-3,-10,-21,0,0,-10
-3,3,5,0,-4,4,-2,-10,-21,0,0,-10
-3,2,5,0,-4,4,-2,-10,-21,0,0,-11
-3,2,4,0,-4,4,-2,-10,-21,0,0,-11
-3,1,4,0,-4,4,-2,-10,-21,0,0,-12
-3,1,4,0,-4,4,-2,-11,-22,0,0,-12
-3,1,5,0,-4,4,-1,-11,-22,-1,0,-12
-3,1,5,1,-4,4,-1,-11,-22,-1,-1,-12
-4,1,5,1,-4,3,-1,-11,-22,-1,-1,-12
-4,0,5,2,-5,3,-1,-11,-22,-1,-1,-13
-5,0,5,2,-5,3,0,-11,-22,-1,-1,-13
-5,0,4,2,-5,3,0,-11,-22,-1,-1,-13
-4,0,4,2,-4,2,0,-11,-22,0,-1,-13
-4,0,4,2,-4,2,0,-11,-22,0,-1,-14
-4,0,4,1,-4,3,0,-11,-22,0,-1,-14
-4,0,4,1,-4,3,0,-11,-22,0,-1,-15
-4,0,4,1,-4,2,0,-11,-22,1,-1,-15
-4,0,4,1,-4,2,0,-11,-22,1,-1,-15
-4,0,4,0,-4,3,0,-12,-22,2,-1,-15
-4,1,4,0,-4,3,0,-12,-22,2,-1,-15
-4,1,4,0,-4,3,0,-13,-22,3,-1,-15
-4,1,4,0,-4,4,0,-14,-22,3,-1,-15
-4,2,6,0,-5,5,0,-15,-22,3,0,-14
-4,4,8,0,-6,7,-1,-16,-22,4,0,-13
-4,6,10,-1,-7,9,-1,-17,-21,7,2,-12
-4,9,14,-3,-9,12,-1,-18,-20,11,5,-9
-5,13,18,-4,-11,15,-1,-17,-17,17,8,-7
-6,15,21,-5,-13,19,1,-16,-14,22,12,-4
-7,17,24,-6,-15,21,3,-13,-8,29,17,-1
-7,20,26,-7,-16,24,6,-7,0,39,23,2
-5,24,29,-10,-17,27,7,0,13,53,33,8
-2,29,31,-14,-16,31,8,8,28,71,47,16
2,34,31,-19,-15,34,9,18,46,91,62,24
9,40,31,-25,-12,36,9,30,67,112,79,34
16,46,29,-32,-7,38,10,45,89,133,95,43
24,47,23,-36,0,36,10,60,107,147,105,48
31,44,12,-38,9,28,13,75,120,150,107,47
38,37,-2,-38,20,18,17,90,129,146,103,43
43,28,-16,-37,30,7,22,104,135,138,95,36
48,19,-30,-34,39,-4,27,116,137,126,83,26
51,9,-43,-31,46,-16,31,123,131,109,68,15
52,0,-52,-26,51,-26,32,121,117,87,50,3
50,-8,-59,-21,54,-34,32,110,95,62,29,-9
46,-16,-63,-15,54,-40,31,94,68,35,8,-21
40,-24,-64,-8,52,-44,29,72,38,9,-12,-33
33,-30,-64,-1,49,-46,26,44,6,-14,-29,-43
25,-36,-62,5,44,-48,23,17,-22,-34,-44,-51
18,-40,-59,11,39,-49,23,-3,-43,-48,-54,-58
10,-44,-55,16,33,-49,24,-15,-55,-56,-61,-62
3,-47,-51,21,27,-49,25,-22,-61,-60,-64,-64
-1,-47,-46,23,22,-47,25,-26,-64,-60,-65,-65
-4,-45,-40,24,18,-43,24,-29,-64,-59,-63,-63
-6,-42,-35,24,15,-39,23,-30,-62,-56,-60,-61
-8,-39,-30,23,11,-34,23,-31,-60,-52,-56,-58
-10,-35,-25,22,8,-29,25,-30,-56,-47,-52,-54
-12,-31,-20,21,4,-24,27,-28,-52,-42,-48,-51
-14,-27,-14,20,0,-19,30,-26,-48,-37,-44,-47
-17,-24,-8,20,-5,-15,34,-23,-43,-32,-41,-44
-20,-21,-1,19,-10,-11,39,-20,-39,-28,-38,-41
-23,-18,5,19,-14,-6,44,-17,-35,-25,-35,-39
-25,-16,10,19,-17,-3,49,-15,-32,-22,-33,-37
-26,-15,12,19,-19,-1,53,-15,-31,-20,-31,-35
-26,-13,12,19,-19,0,58,-15,-29,-19,-29,-34
-26,-12,13,19,-20,1,63,-14,-28,-17,-29,-33
-26,-12,14,19,-20,1,69,-13,-27,-17,-29,-32
-27,-12,14,19,-21,1,72,-14,-27,-17,-29,-31
-28,-13,15,19,-21,1,73,-15,-27,-17,-29,-31
-28,-13,16,20,-22,2,72,-16,-28,-17,-29,-30
-29,-13,16,20,-22,2,69,-18,-29,-18,-29,-30
-29,-13,16,20,-22,2,65,-20,-30,-18,-29,-30
-29,-13,15,20,-22,2,60,-23,-30,-18,-29,-29
-29,-14,14,21,-21,1,55,-25,-31,-18,-29,-29
-28,-14,13,21,-21,0,48,-27,-30,-17,-28,-29
-27,-15,12,20,-20,-1,41,-28,-30,-16,-27,-29
-26,-15,10,20,-18,-2,34,-29,-29,-16,-27,-28
-24,-15,8,19,-16,-3,27,-30,-29,-15,-26,-28
-21,-14,7,17,-14,-3,20,-30,-28,-15,-25,-27
-19,-13,6,16,-12,-3,15,-29,-26,-14,-24,-26
-17,-12,5,14,-11,-3,11,-29,-24,-12,-23,-25
-14,-10,4,12,-9,-3,6,-28,-21,-11,-22,-23
-13,-8,4,10,-8,-2,2,-26,-19,-9,-21,-21
-11,-6,4,8,-8,-1,-1,-25,-17,-8,-20,-20
-9,-4,4,7,-7,0,-4,-23,-15,-6,-18,-18
-8,-3,3,5,-6,0,-6,-22,-14,-4,-17,-17
-6,-2,3,4,-5,1,-7,-20,-13,-3,-15,-16
-5,-1,3,3,-4,1,-7,-19,-12,-3,-14,-15
-4,-1,3,2,-4,1,-8,-19,-11,-3,-13,-14
-3,-1,3,2,-3,1,-9,-18,-10,-2,-12,-13
-3,-1,3,2,-3,1,-10,-18,-9,-1,-11,-13
-3,0,2,2,-3,1,-10,-18,-9,0,-10,-12
-3,0,1,2,-3,1,-10,-18,-8,0,-9,-12
-3,-1,1,2,-2,0,-11,-18,-8,0,-8,-12
-3,-1,1,2,-2,0,-11,-17,-7,0,-7,-12
-3,-1,1,2,-3,0,-11,-17,-7,0,-6,-12
-3,-1,2,2,-3,0,-10,-16,-6,0,-6,-12
-3,-2,2,3,-3,0,-10,-16,-5,0,-6,-12
-3,-2,2,3,-3,0,-10,-16,-5,0,-6,-11
-3,-1,2,2,-3,0,-11,-16,-5,0,-5,-11
-3,0,2,1,-3,1,-12,-16,-5,0,-5,-11
-2,0,1,1,-2,1,-12,-16,-5,0,-4,-10
-2,1,1,0,-2,1,-13,-16,-5,0,-4,-10
-2,1,2,0,-2,2,-13,-17,-5,0,-3,-9
-1,2,3,0,-2,2,-14,-17,-6,0,-3,-9
-1,2,3,-1,-2,2,-14,-17,-6,1,-3,-9
-1,2,3,-1,-2,2,-14,-17,-5,1,-3,-9
0,2,3,-1,-2,3,-14,-16,-4,2,-3,-9
0,3,2,-2,-2,3,-14,-16,-4,2,-3,-9
0,2,1,-2,-1,2,-14,-16,-4,2,-3,-9
0,1,0,-1,0,1,-14,-15,-3,2,-3,-9
0,0,-1,-1,0,0,-14,-15,-3,3,-2,-9
0,0,-1,-1,0,0,-14,-15,-2,4,-1,-9
0,0,-1,-1,0,0,-14,-15,-2,4,-1,-8
0,0,-1,-1,0,0,-14,-14,-1,4,0,-8
0,0,0,-1,0,0,-14,-14,-1,5,0,-8
1,1,0,-2,0,1,-15,-14,-1,5,0,-7
1,2,0,-2,0,1,-16,-14,-1,5,0,-7
1,2,0,-3,0,2,-16,-14,-1,5,1,-6
1,2,0,-3,0,2,-17,-14,-1,5,1,-6
1,2,1,-3,0,2,-17,-14,-1,4,1,-5
1,3,1,-3,0,2,-18,-14,0,4,1,-5
1,3,1,-3,0,2,-18,-14,0,4,1,-5
2,3,1,-3,0,2,-19,-14,0,4,2,-6
3,4,1,-4,0,3,-19,-14,1,4,2,-6
4,4,1,-5,0,3,-19,-13,1,4,2,-6
4,4,0,-5,1,3,-20,-13,1,4,1,-6
4,4,0,-4,1,2,-20,-13,1,3,1,-6
4,4,0,-4,1,2,-20,-13,1,3,1,-6
5,4,-1,-5,2,2,-20,-13,2,3,1,-6
5,4,-2,-5,3,2,-20,-12,2,3,1,-6
6,4,-2,-5,3,1,-21,-11,3,3,1,-6
6,3,-2,-5,3,1,-21,-11,3,4,2,-6
6,3,-2,-5,3,1,-21,-11,4,4,2,-5
6,3,-2,-5,4,1,-22,-11,4,5,3,-5
6,4,-2,-6,4,1,-22,-11,5,5,5,-4
7,4,-2,-6,5,1,-23,-11,5,6,6,-4
7,5,-2,-6,4,2,-23,-11,6,6,7,-4
7,5,-1,-6,4,2,-24,-11,6,6,8,-3
7,6,-1,-7,4,3,-24,-11,6,7,8,-3
8,7,-1,-8,4,3,-25,-11,6,7,8,-2
8,8,-1,-8,4,3,-25,-11,6,6,8,-2
8,7,-2,-8,5,3,-25,-11,6,6,8,-2
9,7,-3,-8,6,2,-25,-11,6,6,8,-2
9,6,-4,-8,7,2,-26,-11,6,6,8,-2
10,6,-4,-8,7,1,-26,-11,6,5,8,-2
10,6,-4,-8,7,1,-27,-11,5,4,7,-3
10,6,-4,-8,7,0,-27,-10,5,4,6,-3
10,6,-4,-9,7,0,-27,-10,5,5,7,-3
11,7,-4,-9,7,1,-28,-10,5,5,7,-2
11,7,-3,-10,7,1,-28,-10,5,4,8,-2
11,8,-3,-10,7,2,-28,-10,5,4,8,-2
11,8,-3,-10,7,2,-28,-10,5,4,8,-2
11,9,-3,-10,7,2,-28,-9,6,4,8,-1
12,9,-3,-10,7,2,-28,-9,6,5,9,-1
12,9,-3,-11,7,2,-27,-8,7,5,9,-1
13,9,-4,-12,8,2,-27,-8,7,6,10,-1
13,9,-4,-12,8,2,-26,-7,7,6,10,-1
13,9,-4,-12,8,2,-26,-7,8,7,10,-1
13,8,-4,-11,8,2,-25,-7,8,7,10,-1
13,8,-5,-11,8,2,-25,-6,8,7,10,-1
13,8,-5,-11,8,2,-25,-6,8,7,10,-1
13,8,-5,-11,8,2,-25,-6,8,6,10,-1
13,8,-5,-11,8,2,-25,-5,8,5,10,-1
13,8,-5,-11,8,1,-24,-5,8,4,9,-2
13,8,-5,-11,8,1,-24,-4,8,4,8,-2
12,8,-4,-10,8,2,-23,-4,8,4,8,-3
12,8,-4,-10,8,2,-22,-4,8,4,7,-3
12,7,-4,-10,8,1,-21,-3,8,4,6,-3
11,7,-4,-9,7,1,-20,-2,9,4,6,-3
10,7,-3,-9,6,1,-19,-1,9,5,6,-3
10,6,-3,-8,6,1,-18,-1,10,5,6,-3
9,6,-3,-8,6,0,-17,0,10,6,7,-3
9,5,-3,-7,5,0,-16,0,11,6,7,-3
8,5,-2,-7,5,1,-16,0,11,7,7,-3
8,5,-2,-7,4,1,-16,0,11,7,7,-3
8,5,-2,-7,4,1,-15,0,11,7,7,-2
8,5,-2,-7,5,1,-13,1,11,7,7,-2
8,5,-3,-8,5,1,-12,2,11,7,6,-2
8,5,-2,-7,4,1,-11,2,11,7,6,-2
8,5,-2,-7,4,1,-10,3,11,7,6,-2
8,5,-2,-7,4,1,-9,3,12,7,5,-2
7,5,-2,-6,4,0,-9,4,12,7,4,-2
7,5,-2,-6,4,0,-8,4,12,6,3,-3
7,4,-2,-6,4,0,-8,5,12,7,3,-3
7,4,-2,-6,4,0,-7,5,13,7,3,-3
7,4,-2,-6,4,0,-6,5,13,7,2,-3
6,4,-2,-5,4,0,-6,5,13,7,1,-3
5,3,-2,-5,3,0,-5,5,13,6,1,-3
5,3,-2,-4,3,0,-3,6,13,6,0,-3
4,3,-1,-4,2,1,-2,6,13,5,0,-3
3,2,0,-4,2,1,-1,7,13,5,0,-3
2,1,0,-3,1,0,0,7,13,5,0,-3
1,0,0,-2,0,0,0,7,13,5,0,-3
0,0,0,-1,0,0,1,8,13,5,0,-3
0,0,1,0,-1,0,2,8,13,4,0,-3
0,0,1,0,-1,0,2,8,13,3,0,-3
0,0,1,0,-1,0,3,9,13,2,-1,-4
0,0,1,-1,-1,0,3,9,13,2,-2,-4
0,1,1,-2,-1,0,3,8,13,1,-2,-4
0,1,1,-2,-1,0,3,8,13,1,-3,-5
0,0,0,-1,-1,0,3,7,12,1,-3,-5
0,0,0,0,-1,0,4,7,12,0,-4,-6
-1,-1,0,0,-1,-1,5,7,12,0,-4,-6
-1,-1,0,0,-1,-1,5,7,12,0,-4,-7
-2,-2,0,1,-1,-2,5,8,12,-1,-4,-7
