leadI,leadII,leadIII,leadaVR,leadaVL,leadaVF,leadV1,leadV2,leadV3,leadV4,leadV5,leadV6
-8,-7,1,7,-6,-2,-3,-19,-9,-9,-9,-9
-19,-14,5,15,-16,-4,-5,-39,-18,-17,-17,-17
-18,-10,8,13,-18,-1,-2,-39,-15,-15,-15,-14
-9,-2,7,4,-12,2,0,-33,-13,-13,-12,-11
-3,2,5,-1,-8,3,0,-30,-13,-12,-12,-11
-5,0,5,1,-10,2,0,-31,-13,-12,-12,-11
-8,-2,5,3,-11,1,0,-34,-13,-12,-13,-11
-6,-1,5,2,-10,2,0,-36,-13,-11,-13,-12
-7,0,6,2,-11,3,0,-36,-13,-11,-14,-13
-10,-3,7,5,-13,2,0,-37,-13,-11,-15,-14
-12,-5,7,7,-14,1,0,-40,-13,-11,-16,-16
-12,-5,7,7,-14,1,-1,-42,-14,-12,-16,-17
-12,-5,8,7,-14,1,0,-41,-14,-12,-16,-16
-11,-3,8,5,-13,1,0,-41,-14,-12,-15,-15
-7,-1,6,2,-10,2,-1,-41,-14,-14,-16,-15
-5,1,6,0,-10,3,-1,-41,-14,-14,-15,-14
-4,2,6,0,-10,4,0,-40,-13,-13,-14,-12
-4,1,4,0,-8,4,0,-39,-13,-14,-14,-12
-6,-1,5,2,-10,2,0,-39,-13,-14,-14,-13
-8,-3,5,4,-11,1,0,-39,-13,-14,-14,-13
-8,-3,5,4,-11,1,0,-39,-13,-14,-14,-13
-8,-3,6,4,-11,1,1,-40,-13,-12,-12,-11
-8,-3,6,4,-11,0,1,-40,-13,-12,-12,-12
-9,-4,6,5,-12,0,-1,-41,-15,-13,-14,-14
-12,-5,7,7,-14,0,-2,-41,-14,-13,-15,-14
-12,-4,8,7,-14,2,-1,-40,-13,-13,-15,-14
-9,-2,7,5,-12,2,-1,-40,-14,-14,-16,-14
-8,-1,6,3,-11,2,-1,-40,-14,-14,-16,-14
-9,-2,6,4,-12,2,0,-40,-14,-14,-16,-14
-9,-5,4,5,-11,0,-1,-42,-15,-15,-17,-16
-7,-7,1,5,-9,-3,-1,-43,-17,-16,-18,-17
-8,-6,3,5,-10,-1,0,-42,-16,-15,-17,-17
-10,-4,7,5,-13,1,0,-40,-14,-14,-16,-16
-9,-2,7,4,-12,3,2,-39,-14,-14,-16,-14
-8,-1,6,2,-11,3,1,-39,-14,-15,-16,-14
-8,-1,6,3,-10,2,0,-39,-14,-15,-16,-14
-6,0,5,2,-9,2,0,-38,-14,-15,-16,-14
-1,2,4,-2,-7,3,0,-38,-14,-15,-16,-14
-1,2,5,-2,-8,3,2,-38,-13,-14,-15,-13
-5,1,7,0,-11,4,3,-37,-12,-13,-15,-13
-3,1,5,-1,-8,3,1,-38,-14,-15,-16,-14
-2,1,3,-1,-7,3,0,-39,-15,-16,-18,-15
-6,0,5,1,-10,3,0,-39,-15,-16,-17,-14
-8,-1,6,3,-11,3,-2,-39,-15,-16,-17,-13
-8,-1,6,3,-11,3,-2,-40,-15,-16,-17,-13
-7,-1,6,2,-11,3,-1,-40,-15,-16,-16,-12
-7,-1,6,2,-11,3,0,-40,-15,-16,-16,-13
-8,-2,6,3,-12,2,-1,-41,-16,-17,-17,-14
-9,-1,8,3,-13,4,-1,-41,-16,-16,-16,-13
-7,1,8,1,-12,5,-1,-40,-15,-15,-15,-13
-2,4,5,-2,-8,5,-2,-41,-16,-14,-16,-13
2,7,5,-5,-6,6,-1,-40,-15,-14,-15,-13
2,9,7,-7,-6,8,0,-39,-14,-12,-13,-11
3,9,7,-7,-6,9,2,-38,-13,-13,-12,-10
4,10,7,-9,-6,9,1,-37,-13,-13,-11,-9
3,10,8,-9,-7,10,0,-37,-12,-12,-11,-8
2,10,8,-9,-7,10,-1,-37,-12,-12,-10,-8
3,11,8,-9,-7,10,-2,-37,-12,-11,-9,-6
2,12,10,-9,-8,12,-1,-36,-11,-10,-7,-4
1,11,10,-7,-9,12,0,-36,-10,-10,-7,-4
-1,9,10,-5,-11,10,1,-36,-10,-9,-7,-4
-3,6,11,-3,-11,9,1,-36,-10,-9,-7,-4
-6,6,12,-1,-13,9,1,-35,-10,-8,-6,-4
-5,8,13,-3,-13,10,2,-33,-8,-6,-4,-2
0,12,12,-8,-10,12,3,-31,-6,-4,-2,0
5,15,11,-12,-7,12,4,-29,-5,-3,0,2
6,15,9,-12,-5,12,3,-28,-5,-3,0,2
3,11,9,-9,-7,10,3,-29,-6,-5,-2,1
1,10,9,-6,-8,10,4,-29,-6,-5,-2,0
5,13,9,-10,-6,12,6,-28,-4,-3,0,2
12,19,8,-16,-2,14,7,-26,-2,-1,2,4
13,22,9,-19,-2,16,6,-24,-1,0,3,5
11,22,11,-19,-4,17,6,-23,0,2,5,6
9,21,12,-17,-5,17,7,-23,0,2,5,6
8,21,12,-16,-6,17,9,-22,0,3,6,7
9,21,12,-17,-6,17,10,-21,1,4,7,8
9,21,12,-17,-6,17,10,-21,3,6,9,9
9,21,12,-17,-6,17,9,-20,4,7,9,10
8,20,12,-16,-6,17,9,-18,4,7,9,10
7,20,12,-16,-6,16,10,-17,4,7,10,10
7,20,12,-16,-6,16,10,-16,4,7,10,10
9,19,10,-16,-5,15,9,-16,4,7,9,10
9,18,9,-15,-4,13,8,-17,4,7,8,9
6,16,10,-13,-6,13,8,-18,4,7,8,8
4,16,11,-11,-8,14,8,-16,5,8,9,9
5,17,11,-13,-6,14,9,-15,6,8,9,9
7,18,11,-14,-6,15,9,-15,6,8,9,9
7,19,12,-15,-6,16,9,-14,6,8,9,9
7,20,13,-16,-6,17,9,-14,6,8,9,9
7,20,13,-16,-7,17,8,-14,6,8,9,9
5,20,14,-15,-8,17,9,-14,7,9,9,9
4,18,14,-13,-10,17,9,-16,6,8,9,9
2,16,14,-11,-10,16,9,-17,5,7,9,9
0,15,14,-10,-11,15,8,-19,3,5,8,8
1,14,12,-9,-10,14,7,-21,3,5,8,7
1,15,13,-10,-10,14,6,-21,3,6,8,7
1,16,15,-11,-10,15,5,-22,3,7,8,7
2,16,13,-11,-9,14,4,-22,3,7,7,6
2,16,12,-11,-9,14,3,-22,3,7,6,6
0,16,14,-10,-11,14,3,-23,3,7,7,6
-1,14,14,-8,-12,14,3,-24,2,6,7,6
-2,11,14,-6,-12,13,3,-26,1,6,7,6
-3,11,15,-6,-13,13,3,-27,2,7,8,7
0,14,15,-9,-11,14,3,-26,2,8,9,8
1,15,14,-10,-9,15,3,-25,2,8,9,8
-1,10,12,-7,-9,11,2,-26,1,5,7,6
-2,6,10,-4,-9,8,1,-27,0,3,5,4
-3,6,10,-3,-10,8,0,-27,0,2,4,4
-4,7,11,-3,-11,9,1,-27,0,3,5,5
-4,9,12,-5,-11,10,2,-26,1,3,6,5
-4,9,12,-5,-11,10,2,-26,1,3,5,4
-4,8,12,-4,-11,10,2,-26,1,3,5,4
-3,9,12,-5,-11,10,3,-26,1,4,5,4
-2,10,13,-5,-11,11,4,-26,1,5,5,4
-3,9,13,-4,-11,10,4,-26,1,4,4,3
-4,8,12,-3,-11,9,3,-27,0,4,3,2
-4,8,12,-3,-12,9,3,-27,1,4,3,2
-4,9,12,-4,-12,10,3,-27,1,5,3,2
-5,8,13,-3,-12,10,3,-28,1,5,3,1
-7,5,12,-1,-12,9,1,-29,0,4,1,0
-9,4,13,0,-13,8,1,-29,0,3,0,0
-8,6,14,-1,-14,10,2,-28,0,4,1,0
-5,7,14,-3,-13,10,4,-26,1,5,2,0
-5,8,14,-3,-13,10,4,-26,1,5,2,0
-4,9,14,-5,-13,11,4,-25,2,5,2,0
-2,12,14,-7,-11,13,6,-24,3,5,3,1
-1,14,14,-9,-11,14,6,-23,4,5,3,1
-2,14,16,-9,-12,15,6,-22,4,6,4,2
-1,14,15,-9,-11,14,6,-22,4,6,4,1
0,13,12,-8,-9,12,5,-24,3,5,2,0
0,13,13,-8,-9,12,6,-23,3,5,3,1
0,14,15,-8,-10,14,7,-22,5,7,5,2
0,14,14,-8,-10,14,7,-22,5,7,4,3
-1,14,15,-8,-11,14,7,-22,5,7,4,3
-3,13,15,-6,-12,13,6,-22,5,6,4,2
-3,11,14,-5,-12,12,6,-23,3,5,2,1
-5,9,14,-3,-13,11,5,-23,2,4,1,0
-6,8,15,-3,-14,12,5,-22,2,4,1,0
-3,10,15,-5,-12,12,6,-22,2,4,1,0
-2,10,13,-6,-10,12,5,-23,2,3,0,-1
-3,9,13,-5,-11,11,5,-23,2,3,0,-1
-1,11,13,-7,-10,12,5,-23,2,3,0,-2
1,15,14,-10,-9,14,7,-22,3,5,0,-2
0,16,15,-10,-10,14,7,-22,4,6,1,-2
-2,13,15,-7,-12,13,7,-22,3,6,1,-3
-3,12,16,-6,-12,13,7,-22,3,6,1,-3
-3,12,16,-6,-12,13,7,-22,3,6,1,-3
-4,10,15,-4,-12,11,6,-22,3,5,0,-3
-5,9,15,-3,-12,11,4,-23,2,4,0,-3
-3,11,15,-6,-11,11,4,-23,2,4,1,-2
2,15,14,-10,-8,13,5,-23,3,6,2,-1
2,16,15,-10,-9,14,7,-22,4,7,3,0
0,13,14,-8,-10,12,7,-22,4,7,3,1
0,12,13,-8,-9,12,7,-22,2,6,2,0
0,13,13,-9,-8,12,7,-22,2,5,2,0
0,12,13,-8,-9,12,8,-21,3,5,2,1
-1,12,13,-7,-9,12,8,-21,3,5,1,0
-1,10,13,-6,-9,11,6,-23,1,4,0,-2
-2,10,13,-6,-10,10,5,-24,1,4,-1,-3
-2,10,13,-6,-10,10,5,-24,1,4,-1,-4
-4,7,12,-4,-11,8,5,-24,1,4,-2,-4
-8,3,12,1,-12,6,5,-23,1,3,-2,-4
-12,-1,11,5,-13,4,5,-23,0,2,-3,-4
-9,0,10,2,-11,4,5,-21,0,2,-3,-4
-1,7,9,-5,-6,7,8,-16,3,3,-1,-3
4,12,9,-10,-4,9,12,-9,7,6,1,-1
6,12,7,-10,-3,8,15,-4,10,7,1,-1
5,10,5,-9,-2,5,16,-3,10,5,0,-3
1,6,5,-5,-4,3,17,-2,10,5,-2,-5
-1,3,5,-3,-5,3,19,0,12,7,-1,-5
0,2,2,-2,-3,1,19,3,14,9,-1,-6
2,-1,-2,-2,1,-2,19,5,14,9,-3,-10
5,-2,-6,-3,4,-4,20,11,16,10,-3,-10
10,2,-8,-7,7,-4,21,20,22,15,2,-7
18,9,-8,-15,10,-1,22,30,31,23,11,0
26,20,-5,-24,12,6,22,42,43,36,26,13
33,34,1,-35,12,15,23,55,58,54,45,29
34,48,13,-43,7,29,24,65,74,73,67,48
40,65,24,-54,6,44,23,71,88,92,90,69
53,85,33,-71,8,59,21,73,100,112,116,92
65,106,42,-87,10,74,15,72,110,130,141,115
76,124,48,-101,12,85,5,65,115,144,163,137
88,140,52,-115,14,94,-4,61,121,157,185,157
99,154,56,-128,17,103,-11,61,128,169,207,177
108,169,61,-140,19,113,-18,58,135,181,227,196
111,186,75,-151,14,129,-24,42,138,190,242,213
99,201,103,-152,-4,152,-29,11,132,190,246,224
67,205,139,-138,-36,172,-33,-35,114,179,234,222
29,200,173,-116,-73,186,-37,-87,87,159,211,208
-4,187,193,-92,-100,189,-38,-127,62,137,184,190
-24,164,190,-72,-109,175,-38,-152,37,110,151,164
-30,137,168,-55,-103,151,-40,-163,13,76,110,128
-31,110,142,-41,-91,125,-40,-158,-1,49,74,96
-31,88,119,-30,-78,101,-39,-145,-5,35,54,75
-23,75,99,-27,-64,86,-36,-131,-4,30,45,63
-16,69,85,-28,-52,76,-32,-115,1,31,41,54
-17,58,76,-22,-47,66,-26,-97,7,33,35,44
-18,46,65,-15,-43,55,-19,-80,12,31,27,32
-16,36,53,-11,-37,43,-14,-66,12,26,18,21
-15,27,43,-7,-33,33,-11,-58,9,20,10,11
-14,20,34,-4,-29,25,-8,-52,6,13,5,5
-12,16,28,-4,-24,20,-5,-48,2,8,2,3
-10,15,25,-4,-21,19,-2,-44,0,4,2,3
-7,15,22,-5,-17,18,0,-40,-2,2,1,2
-5,14,19,-5,-13,16,0,-39,-4,0,0,0
-5,12,18,-3,-12,14,2,-37,-5,0,-1,-1
-4,11,17,-3,-12,13,3,-35,-4,0,-2,-2
-2,11,15,-5,-11,11,3,-34,-6,-2,-4,-3
-4,9,15,-3,-13,10,3,-34,-7,-4,-6,-4
-6,7,14,-2,-14,9,2,-34,-6,-4,-6,-4
-3,9,12,-5,-11,9,2,-34,-6,-4,-6,-5
1,11,9,-8,-7,10,2,-34,-7,-4,-7,-6
0,9,9,-6,-6,9,2,-34,-8,-6,-8,-6
-1,6,8,-3,-6,7,2,-34,-9,-7,-9,-8
0,5,7,-3,-5,6,2,-34,-11,-9,-11,-9
-2,2,5,0,-7,3,0,-34,-12,-10,-12,-11
-4,0,5,1,-8,1,0,-34,-13,-11,-14,-12
-4,1,6,0,-10,3,1,-33,-11,-10,-12,-10
-2,5,8,-3,-9,6,4,-30,-9,-8,-10,-8
1,8,7,-6,-6,7,5,-30,-9,-9,-10,-8
1,6,5,-6,-4,6,4,-31,-11,-11,-11,-9
0,4,3,-3,-3,4,3,-32,-12,-11,-12,-10
-1,3,5,-1,-5,4,3,-31,-11,-10,-12,-10
-1,4,6,-2,-6,4,3,-29,-10,-9,-12,-10
1,4,4,-3,-5,3,1,-29,-10,-10,-12,-10
-1,2,4,-1,-6,1,0,-29,-10,-11,-12,-10
-5,-1,4,1,-8,1,2,-29,-10,-11,-11,-10
-3,0,3,0,-6,1,2,-30,-12,-11,-12,-11
-2,0,2,0,-5,1,1,-32,-13,-11,-13,-12
-6,-1,5,2,-7,1,2,-32,-12,-10,-12,-11
-8,-2,6,4,-9,1,3,-30,-10,-8,-11,-11
-7,-2,5,4,-8,0,1,-30,-11,-9,-12,-11
-6,-1,5,2,-8,0,1,-30,-12,-11,-14,-12
-2,2,5,-1,-7,3,2,-28,-11,-10,-13,-11
2,7,5,-6,-5,5,4,-27,-9,-9,-11,-10
4,8,4,-7,-3,5,5,-27,-9,-9,-11,-9
1,5,4,-5,-4,4,5,-27,-10,-10,-12,-10
-2,1,4,-1,-4,2,5,-27,-11,-11,-12,-10
-3,0,4,0,-5,2,5,-26,-11,-10,-11,-9
-2,1,4,0,-5,2,5,-25,-10,-10,-12,-9
-2,1,4,0,-5,1,5,-25,-11,-12,-13,-10
-2,1,4,0,-7,1,5,-25,-11,-13,-13,-10
-3,0,4,0,-7,1,5,-25,-11,-13,-13,-10
-3,0,3,0,-6,1,5,-25,-10,-13,-12,-9
-1,1,2,-1,-4,1,4,-26,-10,-12,-12,-9
-2,0,2,-1,-4,1,3,-26,-10,-12,-12,-9
-3,0,3,0,-4,1,3,-25,-10,-12,-12,-9
-2,1,4,0,-5,2,4,-24,-10,-10,-11,-9
-1,4,4,-2,-5,4,6,-23,-9,-9,-10,-8
1,6,4,-4,-4,4,6,-23,-9,-9,-10,-8
2,5,3,-4,-4,3,5,-25,-10,-10,-12,-9
0,3,3,-2,-5,2,4,-26,-11,-10,-12,-9
-2,1,4,-1,-6,2,4,-25,-10,-10,-12,-9
-2,1,5,-1,-6,3,5,-23,-9,-8,-11,-9
-2,2,4,-1,-5,3,5,-23,-9,-8,-11,-9
-1,1,3,-1,-5,2,4,-23,-10,-9,-12,-9
-3,0,3,0,-5,1,4,-24,-10,-10,-13,-9
-2,0,2,0,-5,0,4,-24,-10,-10,-13,-9
0,2,2,-1,-5,0,4,-24,-10,-11,-13,-9
0,2,3,-2,-5,1,5,-23,-9,-10,-11,-9
-1,2,4,-2,-6,3,6,-21,-8,-8,-9,-7
-3,2,4,-1,-6,3,6,-21,-7,-8,-8,-7
-3,1,4,0,-6,3,5,-21,-8,-9,-10,-8
-1,2,3,-2,-4,3,4,-21,-8,-9,-11,-8
1,5,2,-4,-3,3,4,-21,-7,-9,-11,-8
0,5,5,-3,-5,4,7,-19,-6,-7,-10,-7
-1,5,7,-3,-7,5,9,-18,-6,-7,-10,-6
0,5,6,-4,-6,5,7,-19,-7,-8,-11,-8
1,4,4,-4,-4,3,6,-20,-7,-9,-11,-9
0,2,2,-3,-4,2,6,-20,-8,-9,-11,-9
-4,0,4,0,-6,2,6,-19,-8,-9,-11,-9
-5,-1,3,1,-6,1,5,-20,-9,-10,-12,-10
-2,0,2,0,-4,1,5,-20,-9,-10,-12,-11
-3,2,5,0,-7,3,8,-18,-6,-7,-10,-8
-4,3,7,0,-8,4,10,-15,-4,-5,-8,-7
-1,3,4,-2,-6,2,7,-17,-6,-6,-10,-9
0,3,4,-3,-5,3,5,-17,-7,-7,-11,-10
0,4,5,-3,-5,4,6,-16,-6,-7,-10,-9
2,4,2,-4,-2,3,6,-17,-7,-8,-11,-9
2,4,2,-4,-1,3,7,-17,-8,-8,-13,-10
-3,3,5,-1,-6,4,9,-16,-6,-6,-11,-9
-5,3,7,0,-8,4,10,-14,-3,-5,-10,-7
-2,4,6,-2,-7,4,9,-14,-3,-5,-10,-8
0,5,5,-3,-5,4,8,-14,-5,-6,-10,-9
-1,3,4,-2,-5,2,8,-14,-5,-6,-10,-8
0,1,3,-1,-4,2,8,-14,-5,-7,-10,-8
0,1,2,-1,-4,3,8,-15,-6,-7,-10,-8
0,2,2,-1,-4,3,9,-14,-5,-7,-10,-7
1,3,2,-3,-3,3,8,-13,-5,-8,-10,-7
0,3,2,-3,-3,2,7,-14,-6,-9,-11,-8
-1,2,3,-1,-5,2,8,-14,-6,-9,-11,-8
-2,1,3,0,-6,2,9,-14,-6,-9,-11,-9
-2,1,3,0,-5,1,8,-15,-6,-9,-13,-11
-2,1,3,0,-5,1,8,-16,-7,-9,-13,-11
-1,1,3,-1,-5,2,8,-16,-7,-9,-13,-11
0,3,3,-3,-4,3,8,-16,-7,-7,-13,-11
0,5,4,-4,-5,5,9,-15,-6,-6,-12,-10
-2,4,6,-2,-6,5,9,-13,-4,-5,-11,-10
-2,3,5,-1,-6,4,9,-12,-5,-7,-11,-10
-2,3,5,-1,-6,4,9,-12,-6,-10,-12,-10
-4,2,5,0,-7,4,9,-12,-6,-10,-12,-10
-3,1,4,0,-6,3,9,-12,-6,-10,-12,-10
-4,0,4,0,-6,2,9,-12,-6,-11,-12,-9
-6,0,5,2,-8,2,9,-11,-6,-11,-10,-8
-5,0,4,1,-7,2,8,-11,-6,-11,-10,-7
-3,0,3,0,-6,2,7,-12,-6,-11,-10,-7
-2,1,3,0,-6,2,7,-12,-6,-11,-10,-7
2,3,2,-3,-3,2,8,-12,-6,-9,-10,-7
1,4,3,-4,-3,3,9,-12,-6,-8,-10,-6
-2,4,5,-2,-6,5,10,-11,-4,-6,-9,-6
-2,6,6,-2,-6,5,11,-10,-4,-6,-9,-6
0,7,5,-4,-5,6,11,-10,-4,-7,-9,-6
0,6,5,-4,-5,6,11,-10,-5,-8,-9,-6
-1,4,5,-2,-6,6,10,-10,-5,-8,-9,-6
-1,4,5,-3,-6,5,10,-9,-4,-7,-8,-5
1,7,5,-6,-4,6,10,-9,-4,-7,-8,-5
1,7,6,-5,-5,6,10,-9,-4,-7,-8,-5
-3,6,8,-3,-8,6,9,-10,-4,-6,-8,-5
-4,6,9,-2,-9,7,9,-10,-4,-6,-7,-5
-4,6,9,-2,-9,7,10,-10,-4,-6,-7,-5
-2,6,8,-3,-7,7,10,-10,-4,-6,-7,-5
0,6,6,-4,-5,7,8,-10,-4,-5,-7,-5
0,6,7,-4,-6,8,8,-9,-3,-3,-6,-4
-4,6,11,-2,-10,9,9,-8,-2,-2,-4,-3
-6,6,12,-1,-11,9,10,-9,-2,-2,-5,-3
-5,6,11,-1,-10,8,10,-10,-3,-3,-6,-4
-3,8,10,-3,-9,8,10,-10,-2,-4,-6,-4
-3,8,10,-3,-9,9,10,-8,-1,-4,-4,-2
-6,6,11,-1,-10,9,10,-7,-1,-4,-4,-2
-7,5,12,0,-12,9,10,-7,-1,-3,-4,-1
-7,5,12,0,-12,9,10,-6,-1,-3,-2,1
-4,7,12,-2,-11,11,11,-5,0,-1,0,2
-1,11,13,-6,-9,13,11,-5,2,0,1,4
0,13,13,-7,-9,14,11,-5,3,2,3,5
-1,14,14,-7,-10,14,11,-5,4,4,4,6
-2,14,15,-7,-11,15,12,-4,5,6,6,7
0,15,14,-8,-9,15,13,-3,6,7,7,7
2,15,14,-10,-8,15,12,-3,6,7,7,7
2,15,14,-9,-8,15,12,-3,6,7,7,8
0,14,15,-7,-9,15,12,-2,6,7,7,8
-2,12,15,-5,-11,14,11,-3,5,6,6,7
-4,11,15,-4,-12,13,10,-4,5,7,6,7
-5,11,15,-3,-12,13,10,-4,5,7,7,7
-3,12,14,-5,-10,12,9,-4,6,7,7,6
-1,13,14,-7,-9,13,9,-3,6,8,7,6
-3,13,17,-7,-11,15,10,-2,8,9,9,7
-5,12,19,-5,-13,15,10,-1,8,9,9,8
-6,10,17,-3,-14,14,10,-3,7,8,9,8
-4,11,16,-4,-12,14,10,-3,7,8,9,9
1,15,14,-8,-8,15,10,-3,8,9,10,10
2,18,16,-10,-8,17,11,-3,8,10,11,10
0,20,19,-10,-11,19,12,-2,10,13,13,12
2,22,20,-13,-10,21,13,0,13,15,15,14
4,24,19,-15,-9,22,14,0,13,16,15,14
4,24,20,-15,-9,22,14,0,14,16,15,14
3,24,20,-14,-9,21,14,0,14,16,15,14
3,23,20,-14,-9,21,14,0,13,16,14,14
3,22,19,-13,-9,20,13,0,13,15,14,13
1,21,18,-11,-9,19,13,-1,12,14,13,12
1,19,18,-10,-10,18,13,-1,11,13,12,11
0,18,18,-9,-11,17,13,-1,11,13,12,12
-2,16,19,-8,-11,16,12,-2,11,13,12,12
-2,14,18,-7,-11,16,10,-3,10,12,12,11
-2,14,16,-7,-11,15,8,-4,10,12,12,11
-1,15,15,-8,-10,15,6,-4,10,12,12,11
1,18,16,-10,-9,17,8,-4,10,12,12,11
1,19,17,-10,-9,18,12,-3,11,14,14,13
1,18,17,-9,-9,17,13,-3,12,15,14,13
1,17,17,-9,-9,17,12,-3,12,14,13,12
0,16,17,-8,-9,17,11,-3,11,14,13,11
-1,15,18,-7,-10,16,11,-3,11,14,13,11
-2,16,18,-8,-11,16,11,-2,11,14,13,11
0,18,18,-10,-10,18,13,-2,11,14,13,12
1,20,18,-11,-10,18,13,-2,12,14,13,12
0,19,18,-10,-10,17,13,-2,11,14,12,11
0,17,17,-8,-10,16,12,-3,10,12,10,10
-3,14,17,-6,-11,15,11,-3,10,12,9,8
-5,11,17,-3,-11,13,10,-3,9,12,9,8
-5,10,16,-3,-11,13,9,-5,8,11,8,7
-5,10,16,-4,-11,13,9,-5,9,11,7,7
-2,14,16,-7,-10,14,11,-4,10,12,8,8
3,18,15,-11,-7,16,11,-4,10,12,8,8
3,19,15,-11,-7,16,10,-4,10,13,9,8
1,17,17,-9,-9,16,11,-3,11,14,10,9
2,17,16,-10,-8,16,11,-3,11,13,10,9
2,18,16,-10,-7,17,11,-3,11,13,10,9
1,18,17,-9,-8,18,13,-2,12,14,10,10
2,19,17,-10,-8,17,12,-2,10,13,10,10
0,18,17,-9,-9,17,11,-3,9,13,10,9
-3,15,18,-6,-11,15,11,-2,10,12,10,10
-2,15,16,-6,-10,14,11,-2,10,11,10,10
0,17,16,-9,-8,15,11,-2,10,11,10,10
2,18,16,-10,-7,16,11,-2,10,11,11,11
3,17,15,-10,-6,15,10,-3,9,10,9,10
1,16,16,-8,-7,15,10,-3,9,10,8,9
0,16,17,-8,-9,15,11,-2,10,11,9,9
1,17,16,-9,-7,15,11,-2,10,11,8,8
1,17,15,-9,-7,15,10,-3,9,11,7,7
0,15,16,-8,-9,15,10,-3,9,11,7,7
-1,15,16,-7,-9,15,10,-4,9,10,7,7
-1,15,16,-6,-9,15,10,-4,8,10,7,6
-3,14,17,-5,-10,15,10,-4,8,10,7,6
-3,13,17,-4,-10,14,9,-5,7,10,6,6
-2,13,16,-4,-9,13,9,-6,7,9,6,6
-2,14,16,-5,-9,13,9,-5,7,9,7,6
-1,14,16,-6,-9,14,9,-5,7,9,7,7
-1,14,16,-6,-9,14,9,-5,7,9,7,7
-1,14,15,-7,-8,14,9,-5,7,9,7,7
1,15,14,-8,-7,14,10,-5,7,9,8,8
3,17,14,-10,-5,15,10,-5,7,10,9,8
5,19,14,-12,-3,15,10,-5,7,10,9,9
5,19,14,-12,-4,15,10,-4,8,11,9,9
1,18,17,-10,-7,16,9,-4,9,12,9,9
0,16,17,-7,-8,15,8,-4,9,11,9,8
0,14,14,-7,-7,12,6,-6,6,9,6,5
-3,11,14,-3,-8,11,6,-7,5,7,5,4
-5,9,14,-2,-9,11,7,-7,5,7,5,4
-1,11,13,-4,-7,11,7,-7,5,6,5,4
1,13,12,-7,-5,12,7,-7,4,7,6,5
0,13,15,-6,-7,13,9,-6,5,7,7,7
-3,11,15,-3,-9,11,9,-7,4,6,7,7
-4,8,13,-2,-9,9,8,-9,3,4,6,6
-4,7,12,-2,-8,8,6,-9,2,4,5,6
-3,8,12,-3,-7,9,6,-9,3,5,5,6
1,14,13,-7,-6,13,8,-8,5,8,7,8
4,18,14,-11,-5,16,10,-6,7,10,9,10
3,19,16,-11,-6,17,10,-5,7,10,10,10
4,20,16,-12,-5,17,9,-5,6,9,9,10
3,18,16,-11,-6,16,10,-5,6,9,9,10
0,15,16,-8,-8,15,10,-6,6,9,9,10
1,14,14,-7,-6,13,9,-7,4,7,7,8
1,13,12,-7,-5,12,6,-10,2,6,5,5
-1,11,12,-5,-6,11,6,-10,3,6,5,5
-2,11,13,-4,-8,12,7,-8,4,7,6,7
-2,12,13,-5,-7,12,6,-8,4,6,6,6
-1,12,13,-5,-7,12,6,-8,3,6,6,7
-3,10,13,-3,-8,11,7,-8,3,7,7,8
-2,9,12,-3,-7,9,6,-10,1,5,6,7
-1,10,12,-5,-6,10,6,-10,0,5,5,6
-6,10,16,-2,-10,12,8,-8,3,7,7,8
-5,11,16,-3,-10,12,9,-6,5,8,9,10
5,16,10,-11,-2,12,6,-9,3,5,5,6
5,16,11,-12,-2,13,4,-11,2,4,4,5
-1,13,15,-6,-8,13,8,-7,5,7,8,9
3,14,13,-9,-4,13,8,-7,4,6,7,8
7,17,11,-12,-1,13,6,-9,2,4,5,6
3,16,15,-9,-5,14,9,-7,4,7,7,9
2,16,15,-9,-6,14,10,-6,5,7,8,9
3,16,14,-9,-5,13,7,-8,2,6,5,7
0,12,12,-6,-5,11,5,-10,1,4,4,5
0,10,10,-5,-4,8,3,-11,0,2,2,4
-1,8,9,-3,-4,7,3,-11,0,2,2,4
-1,8,10,-3,-5,8,4,-11,0,3,3,5
0,10,11,-6,-5,10,6,-9,2,5,5,7
1,13,13,-7,-5,12,8,-8,3,6,7,8
0,13,14,-7,-5,12,8,-8,2,6,6,8
-1,12,14,-5,-6,12,7,-9,2,5,6,7
-1,12,13,-5,-6,11,7,-9,3,5,6,7
0,12,12,-7,-5,11,6,-9,3,5,6,7
4,14,11,-9,-2,12,4,-9,2,5,6,6
4,14,11,-9,-2,12,4,-10,2,5,6,6
2,12,11,-7,-3,11,4,-10,2,5,6,6
4,14,11,-9,-2,11,4,-9,2,5,6,6
5,16,12,-10,-2,12,5,-9,2,6,6,6
2,16,14,-8,-5,14,7,-9,3,6,6,7
1,16,14,-7,-6,14,8,-9,3,6,6,7
2,14,12,-7,-5,13,8,-9,2,5,6,7
0,12,13,-6,-6,12,7,-9,2,5,6,7
-3,10,13,-4,-7,11,7,-9,2,6,6,7
-3,7,10,-2,-6,8,5,-10,0,4,5,6
-4,3,8,0,-6,5,3,-13,-2,2,2,4
-5,3,8,1,-7,5,3,-13,-2,1,2,3
-2,7,9,-2,-5,7,5,-11,0,2,3,5
4,14,10,-8,-2,10,6,-9,1,3,4,5
8,19,10,-13,0,13,7,-8,2,4,5,7
7,18,10,-12,-1,13,7,-8,2,4,5,7
4,14,10,-9,-2,12,6,-9,1,3,4,6
2,12,11,-7,-4,12,6,-9,1,3,5,7
2,12,11,-7,-4,12,6,-9,1,4,5,7
3,13,10,-8,-2,11,6,-9,1,4,5,7
3,13,9,-8,-2,11,4,-10,1,3,4,7
3,12,9,-7,-2,10,4,-10,0,3,4,6
4,12,9,-7,-1,9,4,-10,0,3,4,5
3,12,9,-7,-2,9,4,-10,0,4,4,4
0,11,11,-5,-5,10,5,-10,0,5,4,4
-2,10,11,-4,-6,10,5,-10,0,6,5,5
-1,10,10,-4,-5,10,4,-10,1,6,5,5
0,10,10,-4,-4,9,4,-10,0,5,5,5
0,10,10,-4,-4,9,3,-11,0,4,4,4
0,10,10,-4,-5,9,4,-11,0,4,4,4
1,11,10,-6,-4,10,5,-10,0,4,3,4
4,14,10,-9,-3,12,7,-9,1,5,4,4
4,16,12,-10,-3,13,7,-9,2,6,4,4
3,15,12,-9,-4,13,6,-9,2,6,4,3
4,15,12,-9,-3,13,6,-9,2,5,3,3
4,15,12,-9,-3,13,6,-9,1,4,3,3
1,12,11,-6,-4,12,4,-9,0,2,2,2
-3,7,10,-2,-6,8,2,-11,-2,0,0,1
-3,7,10,-1,-6,8,2,-11,-2,1,0,1
-3,10,12,-3,-7,10,2,-10,0,3,3,4
0,12,12,-6,-5,11,2,-9,1,4,4,6
6,15,10,-10,0,11,2,-9,0,3,4,7
9,18,9,-12,1,13,4,-9,0,3,5,8
6,18,11,-11,-2,14,6,-8,1,5,7,9
4,16,11,-10,-3,13,7,-7,3,7,7,9
7,16,9,-11,0,12,5,-8,2,7,6,7
7,16,10,-11,0,12,3,-10,1,7,6,6
3,14,11,-8,-3,12,4,-10,1,7,6,6
0,11,11,-5,-4,10,4,-10,1,7,5,5
0,9,9,-4,-4,9,3,-11,0,5,2,2
-1,9,10,-3,-5,9,3,-10,-1,2,1,2
-2,9,11,-3,-7,9,4,-9,-1,0,2,4
1,12,11,-6,-5,11,5,-9,-1,0,3,5
6,16,10,-11,-1,12,5,-9,0,1,4,5
6,16,10,-11,-1,12,5,-9,0,3,4,5
3,13,11,-8,-3,11,5,-9,0,3,4,4
0,11,11,-6,-4,11,5,-9,0,3,3,3
-1,10,11,-4,-5,10,5,-9,0,4,2,3
-1,8,9,-3,-4,8,3,-10,-1,2,2,2
-1,8,8,-3,-4,8,2,-11,-3,1,1,2
1,9,8,-4,-4,8,3,-12,-3,1,1,3
4,12,8,-8,-2,9,3,-11,-2,2,1,4
5,14,10,-9,-2,11,4,-10,0,3,2,5
3,13,11,-7,-4,11,5,-8,1,5,3,6
4,14,9,-9,-1,11,5,-8,0,4,3,6
7,16,9,-11,0,12,5,-9,0,4,3,6
6,17,10,-11,-1,14,6,-7,1,4,5,7
6,17,10,-11,-2,14,7,-6,2,4,6,8
7,17,10,-12,-1,13,6,-6,2,3,6,8
4,16,12,-10,-4,13,5,-7,0,3,7,8
0,12,13,-5,-6,11,4,-8,-1,3,7,8
-1,10,11,-4,-6,10,3,-10,-2,3,5,6
-1,11,11,-4,-6,10,4,-10,0,4,6,6
0,12,11,-6,-4,11,7,-7,3,7,8,8
4,14,9,-8,-2,11,7,-6,3,6,7,8
4,14,9,-9,-2,11,6,-6,1,4,6,7
1,12,11,-6,-4,11,6,-6,1,3,5,7
1,12,11,-6,-4,11,7,-5,1,4,6,7
6,18,11,-12,-2,13,7,-4,2,6,6,7
9,22,13,-15,-2,17,9,-2,5,9,8,8
7,22,14,-13,-4,17,9,-1,6,10,9,7
5,20,14,-11,-4,17,9,-2,6,10,9,7
6,20,13,-13,-2,17,9,-2,5,9,9,7
8,21,13,-15,-1,17,10,-1,6,9,10,9
9,21,13,-15,-1,17,10,0,8,11,11,11
10,21,11,-15,0,16,9,0,8,11,10,11
8,21,11,-14,-1,16,8,0,6,10,8,9
4,19,13,-11,-4,16,9,0,6,9,7,9
3,18,12,-10,-4,15,9,1,6,8,6,9
7,19,10,-12,-1,14,9,1,5,6,6,9
9,19,9,-13,1,14,9,1,6,6,7,9
7,17,10,-12,-1,14,10,3,7,6,8,10
4,16,12,-9,-3,14,12,3,6,6,8,10
4,16,12,-9,-3,14,12,3,6,7,8,10
8,19,10,-13,-1,15,11,3,7,9,9,10
12,23,8,-17,1,15,10,4,7,11,11,11
13,25,10,-18,1,16,11,5,10,13,14,13
12,24,10,-18,0,16,11,6,11,13,16,15
12,23,9,-17,2,16,9,5,9,12,15,13
13,23,9,-18,2,17,7,5,9,12,14,13
13,23,10,-18,2,17,7,5,9,12,14,13
12,23,10,-17,1,17,7,3,8,12,12,12
11,23,11,-17,0,17,7,2,8,14,11,12
12,25,11,-18,0,17,7,1,8,14,11,12
12,26,12,-18,0,18,5,0,7,12,11,12
12,26,12,-18,0,18,3,-3,5,11,11,12
12,25,11,-18,1,17,1,-4,3,10,10,11
12,25,11,-17,0,18,-1,-6,2,8,8,8
9,23,13,-15,-2,18,-1,-6,3,8,8,8
4,19,13,-11,-4,16,1,-4,5,8,11,11
7,18,9,-12,-1,13,0,-5,1,4,9,11
14,19,4,-16,4,11,-4,-10,-5,-1,4,7
11,18,5,-14,3,11,-3,-10,-3,0,6,9
7,15,5,-11,0,10,0,-7,0,2,8,12
8,13,4,-10,2,8,0,-7,0,1,7,11
8,13,4,-10,2,9,0,-7,0,1,8,11
9,15,4,-12,2,10,0,-6,0,3,9,12
12,19,5,-16,3,13,0,-6,0,5,10,12
14,22,7,-17,3,14,1,-5,2,8,11,13
15,23,5,-19,4,14,1,-5,2,10,11,12
17,24,5,-20,6,14,2,-5,2,10,10,11
16,24,6,-19,5,15,2,-4,3,10,10,11
13,23,8,-18,2,16,3,-3,3,9,10,12
12,22,8,-16,2,15,2,-4,2,5,8,11
11,19,6,-14,2,12,0,-5,0,1,5,9
8,17,7,-12,0,12,0,-6,-1,0,4,8
7,16,7,-10,-1,12,2,-6,0,0,4,8
8,17,7,-12,0,12,3,-5,0,2,4,8
8,18,8,-13,0,13,4,-5,1,4,4,8
7,16,8,-11,0,12,3,-6,0,5,4,7
4,12,7,-7,-2,9,2,-7,0,5,4,6
1,9,7,-5,-3,8,2,-8,0,4,4,5
1,9,7,-5,-3,8,2,-8,-1,3,4,5
1,10,8,-5,-4,9,2,-8,-1,2,5,5
2,12,8,-5,-4,10,1,-9,-2,2,5,5
4,13,7,-7,-2,10,1,-9,-2,2,5,5
5,14,7,-9,-2,11,2,-9,-2,2,4,5
3,14,9,-8,-3,11,3,-9,-3,1,4,6
1,10,8,-5,-3,9,3,-10,-5,-1,3,6
0,9,8,-4,-4,8,3,-10,-6,-2,2,5
0,9,8,-4,-4,9,3,-10,-5,-1,1,4
0,9,9,-4,-5,9,4,-9,-3,2,1,4
0,10,9,-4,-5,10,4,-8,-1,5,2,4
-1,8,8,-2,-6,8,3,-8,-2,3,0,3
-3,6,8,-1,-7,7,2,-10,-4,1,-1,0
-1,8,8,-3,-6,9,3,-10,-4,0,-1,0
2,11,8,-6,-4,10,3,-9,-4,0,-1,0
3,12,8,-7,-3,10,3,-9,-4,0,-1,0
3,13,8,-7,-3,11,3,-8,-3,0,0,1
3,13,8,-7,-3,10,4,-7,-3,-1,0,3
0,9,8,-4,-5,9,4,-7,-4,-2,0,3
-5,4,8,1,-7,7,3,-7,-5,-4,-1,2
-5,2,5,1,-6,4,1,-9,-6,-6,-4,-1
-3,4,6,0,-5,6,2,-9,-5,-4,-2,-1
-2,10,10,-3,-6,11,4,-6,-3,0,1,2
1,14,10,-7,-4,12,5,-6,-3,2,1,2
2,14,9,-7,-4,11,4,-7,-3,2,0,2
0,13,11,-6,-6,11,5,-6,-1,2,1,3
-1,13,12,-6,-7,12,6,-5,-1,2,1,4
0,13,11,-6,-7,12,7,-4,-1,0,1,4
0,12,9,-5,-5,11,6,-4,-2,-2,0,3
0,9,7,-4,-4,9,5,-6,-4,-3,-1,2
-1,8,7,-2,-4,8,5,-6,-4,-3,0,2
-1,9,8,-2,-5,9,5,-6,-4,-1,1,3
-1,9,8,-3,-5,9,5,-7,-4,0,1,4
0,9,6,-4,-3,8,4,-8,-4,0,0,2
1,8,5,-4,-3,7,5,-7,-4,-1,-1,0
0,9,7,-4,-4,8,6,-6,-3,0,-1,0
0,10,8,-5,-4,9,5,-5,-3,0,-2,-1
0,11,9,-5,-5,10,6,-4,-2,2,-1,-1
-3,9,10,-2,-8,10,7,-2,0,3,0,0
-4,6,8,0,-7,8,8,0,0,1,-1,0
-3,4,6,0,-4,5,8,1,0,0,-4,-2
-5,2,5,2,-5,4,10,4,1,0,-5,-3
-4,3,4,1,-5,4,15,8,2,1,-5,-4
0,4,1,-2,-1,4,17,11,4,2,-7,-7
1,3,-1,-1,0,2,19,15,6,3,-7,-10
0,-1,-3,1,0,-2,21,21,10,4,-7,-11
4,-3,-8,0,5,-5,23,27,11,3,-8,-13
9,-1,-11,-3,9,-5,23,33,13,3,-7,-12
13,4,-10,-7,11,-2,24,43,21,12,2,-3
18,14,-8,-15,13,3,25,53,33,25,17,10
25,26,-2,-25,13,12,27,64,47,43,36,26
30,41,7,-35,11,24,28,73,62,64,59,44
37,58,18,-47,9,38,27,78,76,83,82,64
47,77,29,-62,8,53,21,79,87,101,105,87
55,97,40,-76,7,69,13,77,97,118,130,111
63,114,49,-87,7,82,5,70,102,130,154,134
69,126,56,-96,6,92,-6,59,103,140,177,156
75,140,62,-106,6,101,-18,48,106,153,200,178
86,159,69,-122,7,115,-26,42,114,169,227,203
99,182,79,-140,8,131,-33,36,125,188,254,228
107,201,92,-153,5,147,-38,24,129,199,271,246
97,212,113,-154,-9,163,-41,1,124,198,275,255
65,209,144,-137,-40,177,-41,-31,111,188,264,251
23,195,171,-108,-73,184,-37,-65,92,169,238,233
-8,176,183,-83,-95,181,-33,-95,68,142,202,207
-23,155,177,-65,-100,166,-33,-116,40,108,159,175
-29,127,154,-48,-92,140,-33,-127,15,71,110,136
-31,99,128,-32,-81,113,-31,-125,-1,43,69,99
-30,81,108,-24,-71,95,-31,-116,-6,29,47,75
-27,71,96,-21,-63,84,-31,-104,-4,25,39,62
-26,61,87,-17,-58,74,-28,-88,0,25,34,53
-22,51,72,-15,-47,62,-22,-72,1,23,25,38
-16,42,56,-12,-36,50,-15,-58,2,19,14,23
-17,32,47,-6,-32,40,-8,-44,5,18,9,14
-18,23,39,-1,-29,32,-2,-33,6,16,6,7
-14,19,30,-1,-23,25,0,-27,1,9,0,1
-12,15,25,0,-21,21,0,-25,-3,3,-3,-1
-14,11,23,2,-20,18,1,-22,-5,0,-4,-1
-15,7,21,4,-19,14,1,-19,-5,-2,-5,0
-15,5,18,5,-17,12,3,-16,-5,-4,-5,0
-12,6,15,3,-13,11,5,-13,-6,-6,-6,-2
-7,6,12,1,-9,10,5,-13,-7,-6,-7,-3
-9,5,13,3,-11,10,6,-12,-7,-4,-7,-2
-11,5,13,4,-12,10,6,-10,-5,-3,-7,-2
-7,7,11,2,-10,9,6,-10,-5,-5,-9,-4
-5,7,10,0,-9,9,6,-10,-6,-6,-11,-6
-5,7,10,0,-8,9,6,-9,-6,-6,-12,-8
-5,6,10,0,-8,9,7,-9,-6,-6,-11,-8
-6,5,9,1,-7,8,7,-8,-6,-6,-9,-7
-6,3,8,2,-7,6,6,-8,-8,-9,-10,-7
-6,3,8,3,-7,6,5,-8,-11,-11,-11,-7
-8,2,8,4,-8,6,6,-7,-10,-10,-11,-6
-9,1,7,5,-9,5,8,-7,-9,-9,-11,-6
-9,1,6,5,-8,4,8,-7,-9,-9,-13,-8
-7,2,6,3,-7,4,7,-7,-9,-10,-13,-8
-6,1,7,3,-7,4,7,-6,-8,-9,-11,-8
-8,1,7,4,-8,4,7,-6,-8,-7,-11,-9
-6,1,6,3,-6,4,6,-6,-8,-7,-12,-11
-4,0,3,3,-4,3,6,-6,-10,-9,-14,-13
-4,0,2,3,-4,2,6,-6,-11,-11,-14,-12
-7,-1,3,5,-6,1,7,-5,-11,-13,-13,-10
-8,-2,4,6,-7,1,7,-5,-11,-14,-12,-8
-8,-2,4,6,-7,1,6,-5,-12,-14,-13,-8
-10,-3,5,7,-8,1,6,-6,-12,-12,-14,-8
-7,-1,4,5,-6,1,6,-6,-12,-10,-15,-10
-4,0,3,2,-4,1,7,-6,-12,-9,-15,-10
-5,0,4,4,-6,1,9,-5,-9,-8,-13,-8
-5,0,4,3,-5,1,10,-3,-8,-8,-13,-8
-4,0,2,2,-4,1,8,-3,-9,-12,-15,-10
-5,-1,1,3,-4,1,6,-5,-11,-16,-17,-10
-4,0,1,2,-4,1,5,-5,-11,-15,-16,-10
-4,1,3,2,-5,3,8,-4,-8,-11,-12,-8
-5,0,3,2,-4,2,9,-3,-7,-8,-11,-6
-4,0,2,2,-4,1,8,-5,-9,-9,-12,-8
-7,-1,3,5,-6,1,7,-6,-10,-11,-14,-10
-9,-4,3,7,-7,0,7,-6,-10,-11,-15,-11
-7,-2,1,5,-5,0,6,-5,-10,-10,-15,-12
-5,0,2,4,-4,1,6,-5,-8,-9,-14,-11
-8,0,4,5,-7,3,6,-4,-8,-9,-14,-10
-9,-2,4,6,-8,2,6,-5,-9,-10,-15,-12
-7,0,4,4,-6,2,7,-5,-9,-8,-15,-12
-5,1,5,2,-6,3,8,-4,-8,-5,-12,-9
-6,0,4,3,-6,2,8,-3,-7,-6,-10,-6
-3,-1,0,2,-2,0,6,-4,-10,-10,-12,-6
-2,-1,-2,2,0,-1,5,-6,-12,-14,-14,-7
-6,-2,1,5,-4,0,7,-6,-12,-14,-14,-7
-7,0,3,5,-6,2,7,-5,-11,-11,-14,-8
-4,2,4,2,-5,3,8,-4,-9,-8,-13,-9
-4,1,4,2,-5,3,8,-3,-7,-8,-12,-9
-6,-1,3,4,-6,1,6,-3,-9,-11,-13,-9
-6,-2,3,4,-6,0,6,-3,-10,-13,-14,-9
-6,-2,3,4,-6,0,7,-3,-10,-13,-13,-7
-7,-3,3,5,-6,0,7,-4,-11,-13,-13,-6
-5,-3,0,4,-3,0,4,-6,-12,-13,-16,-9
-6,-3,0,6,-3,-1,3,-8,-12,-13,-17,-10
-9,-5,1,8,-6,-1,4,-6,-11,-12,-15,-11
-9,-5,2,7,-6,-1,6,-5,-11,-12,-14,-10
-7,-2,2,5,-5,0,7,-4,-10,-12,-13,-9
-6,0,3,3,-5,1,7,-3,-8,-10,-12,-8
-5,0,3,2,-5,1,7,-3,-8,-8,-11,-7
-3,1,2,1,-4,1,7,-3,-8,-9,-11,-7
-2,3,3,0,-4,3,7,-2,-8,-9,-11,-7
-2,4,4,0,-4,5,7,-2,-7,-8,-10,-5
-2,4,3,0,-3,4,7,-2,-7,-8,-9,-4
-1,3,1,-1,-2,3,6,-4,-9,-10,-12,-5
0,3,0,-1,-1,2,4,-6,-13,-15,-17,-8
-2,1,1,1,-3,1,3,-7,-14,-16,-19,-12
-6,-1,2,4,-6,1,5,-6,-12,-13,-19,-12
-5,-1,2,3,-6,1,6,-4,-10,-12,-18,-12
-5,0,3,3,-6,1,7,-3,-9,-12,-15,-10
-5,-1,3,4,-5,0,7,-4,-10,-12,-13,-8
-4,-2,0,3,-3,-1,4,-6,-12,-12,-13,-8
-5,-2,0,4,-4,-1,3,-6,-11,-9,-13,-8
-8,-2,3,6,-7,0,5,-5,-9,-7,-12,-6
-8,-1,3,6,-7,1,6,-4,-10,-9,-12,-6
-6,0,2,4,-5,1,6,-3,-11,-12,-12,-6
-3,1,2,1,-4,2,7,-3,-10,-12,-11,-5
-1,2,2,0,-3,2,7,-2,-9,-12,-10,-5
-1,2,2,0,-2,2,7,-2,-9,-12,-10,-6
-4,2,4,2,-5,3,7,-1,-8,-10,-11,-6
-6,3,5,2,-7,4,8,0,-6,-7,-11,-5
-2,5,3,-1,-3,4,6,-1,-7,-5,-13,-6
0,7,1,-3,-2,4,5,-3,-10,-5,-16,-9
-4,3,4,1,-5,4,7,-3,-8,-5,-15,-9
-9,-2,5,5,-9,2,9,-1,-6,-7,-13,-7
-8,-4,3,6,-7,0,7,-1,-8,-11,-13,-6
-6,-3,1,4,-5,-1,5,-3,-11,-13,-14,-8
-5,-2,1,4,-5,0,4,-3,-10,-12,-15,-9
-7,-1,4,5,-6,1,6,-1,-8,-10,-13,-8
-4,0,1,2,-4,1,6,0,-7,-10,-13,-8
2,3,-2,-2,0,0,5,-1,-8,-10,-14,-9
1,3,0,-2,-1,2,4,-1,-8,-8,-14,-9
-4,1,4,1,-5,3,4,-1,-7,-8,-13,-7
-4,0,2,2,-5,1,3,-2,-8,-10,-14,-8
-3,0,2,1,-4,1,5,-2,-9,-12,-15,-9
-5,1,4,2,-6,2,7,-1,-8,-10,-13,-7
-6,1,4,3,-6,1,7,0,-7,-8,-10,-5
-2,3,2,0,-3,2,7,0,-6,-7,-8,-3
4,7,1,-5,0,3,7,0,-6,-7,-8,-2
4,7,1,-5,0,4,7,0,-8,-8,-8,-3
0,3,1,-1,-2,3,7,-1,-8,-8,-9,-3
-3,1,1,0,-3,2,7,-1,-8,-8,-10,-3
-3,0,1,1,-3,1,5,-1,-8,-8,-11,-5
-3,0,2,1,-3,1,4,0,-7,-7,-12,-6
-3,2,3,1,-4,2,5,0,-6,-7,-11,-5
-1,3,2,-1,-2,2,5,1,-6,-8,-11,-5
0,3,0,-1,-1,2,5,0,-6,-10,-11,-5
0,2,0,0,-1,1,5,0,-7,-10,-11,-5
-1,1,0,0,-1,1,5,0,-7,-10,-11,-5
-3,1,1,0,-4,2,5,0,-7,-9,-11,-5
-5,1,3,1,-5,2,5,0,-7,-7,-10,-3
-2,3,3,-1,-4,2,5,0,-7,-6,-9,-1
2,7,2,-4,-1,3,4,0,-6,-4,-9,-1
2,8,3,-5,-1,4,5,0,-5,-5,-9,-1
2,7,2,-4,-1,4,5,0,-7,-9,-11,-2
2,6,1,-4,-1,4,4,0,-9,-12,-13,-3
2,6,1,-4,-1,4,4,0,-9,-12,-10,-2
3,6,0,-5,0,4,4,0,-8,-11,-8,-1
2,6,1,-5,0,4,4,0,-7,-8,-6,0
-1,5,4,-2,-3,4,4,0,-5,-4,-4,0
-2,5,5,-2,-5,4,6,1,-3,-4,-3,1
-3,5,6,-1,-5,4,6,2,-5,-7,-5,0
-1,5,5,-2,-4,4,4,1,-6,-10,-6,-2
2,8,4,-5,-2,6,4,1,-6,-8,-6,-1
1,11,7,-6,-4,9,5,1,-5,-3,-3,1
-2,10,9,-4,-7,10,5,1,-3,-2,-2,3
-2,10,8,-4,-6,9,5,1,-3,-3,-2,3
0,11,7,-5,-4,9,5,1,-3,-4,-1,5
0,11,8,-5,-5,9,5,1,-3,-5,-1,7
-2,10,10,-3,-8,9,5,1,-3,-4,0,9
-3,9,10,-3,-8,9,5,1,-3,-3,0,10
0,10,7,-5,-5,8,5,1,-4,-2,0,9
1,10,6,-5,-4,8,5,1,-4,0,1,8
0,11,9,-5,-7,11,5,2,-2,2,2,8
-1,13,12,-6,-9,13,5,2,-2,3,2,8
-1,14,12,-6,-8,13,4,2,-1,3,2,7
-1,13,11,-6,-7,12,4,2,-1,3,4,7
0,13,11,-6,-6,11,4,2,0,2,5,8
0,13,10,-5,-6,11,3,2,0,2,5,9
-2,11,10,-5,-7,11,3,4,0,0,6,11
-3,11,11,-4,-8,11,4,5,-1,-4,6,12
-4,11,12,-3,-9,11,4,5,-1,-2,6,12
-4,12,12,-4,-9,12,4,5,1,3,6,11
0,17,13,-8,-8,14,5,6,3,8,7,11
1,19,14,-9,-7,16,5,6,4,9,6,11
0,18,15,-8,-8,16,5,6,4,7,6,11
0,19,15,-9,-8,17,5,6,3,6,7,13
1,19,15,-9,-8,18,5,6,3,6,7,13
1,18,15,-9,-8,18,5,7,5,6,8,14
2,19,14,-11,-7,18,7,8,5,6,10,16
4,19,12,-12,-5,16,7,9,5,4,10,17
2,18,12,-10,-7,15,7,9,5,4,11,18
-2,16,14,-7,-9,15,7,7,5,7,12,18
-1,18,16,-8,-9,17,6,7,6,9,13,18
2,22,16,-12,-7,19,7,10,8,11,15,19
5,24,16,-14,-6,20,7,11,9,11,15,19
4,24,16,-14,-7,21,8,11,9,13,15,19
3,24,17,-13,-8,21,8,11,11,16,17,19
1,23,18,-12,-9,21,8,13,13,18,19,21
1,23,18,-12,-9,20,6,12,12,17,19,22
1,21,16,-11,-8,18,5,11,11,16,20,22
1,21,16,-10,-8,18,7,11,12,18,20,23
2,21,16,-10,-8,18,8,12,12,18,21,23
3,21,16,-11,-7,18,8,12,12,18,21,23
2,20,16,-10,-7,18,9,12,12,15,20,22
1,20,16,-10,-8,18,9,13,12,13,19,22
1,21,18,-10,-9,19,9,15,13,13,19,22
1,22,18,-11,-9,20,9,16,14,16,18,22
1,21,17,-11,-9,18,8,14,13,16,16,20
0,19,16,-9,-9,17,7,13,12,16,14,17
-1,18,16,-7,-9,17,7,12,11,16,12,15
-3,18,18,-7,-11,18,7,12,12,16,12,15
-4,20,20,-7,-12,21,9,13,13,18,14,17
-1,21,19,-9,-10,20,9,14,14,18,14,17
0,21,17,-9,-9,19,8,14,14,16,14,17
-3,19,19,-7,-11,19,9,14,13,15,14,18
-4,19,19,-6,-12,19,9,14,13,15,14,17
-2,19,18,-8,-11,18,8,14,14,16,14,16
-1,20,18,-8,-10,18,9,16,15,16,16,17
-1,19,18,-8,-10,18,10,17,15,14,17,18
-1,19,18,-8,-9,19,10,15,14,16,15,17
-2,19,19,-7,-10,19,9,13,15,21,14,15
-4,18,20,-6,-13,19,9,13,18,25,15,13
-6,16,20,-4,-13,18,9,14,18,24,14,13
-7,15,19,-3,-13,17,9,15,17,18,14,14
-7,15,18,-3,-13,17,9,15,15,14,15,15
-5,16,18,-5,-11,17,10,15,15,13,15,15
-5,16,18,-5,-12,17,10,16,16,15,15,15
-7,15,18,-3,-12,17,9,15,15,18,15,16
-5,16,18,-4,-11,18,9,14,16,23,17,18
-4,18,19,-6,-11,19,8,15,18,24,17,18
-6,18,20,-5,-13,19,10,15,18,23,16,18
-7,17,21,-4,-14,19,11,15,18,23,15,16
-6,18,21,-5,-15,19,9,15,19,24,14,15
-7,18,22,-4,-15,20,9,16,19,22,13,14
-6,16,20,-4,-13,19,10,16,16,16,12,13
-6,16,19,-4,-13,18,10,16,16,14,11,12
-7,14,20,-2,-13,18,12,17,17,15,12,13
-7,14,19,-2,-13,18,13,18,18,17,13,13
-5,15,17,-4,-11,17,13,18,18,17,13,13
-4,15,17,-3,-11,16,12,18,18,18,13,13
-7,15,19,-2,-14,17,13,18,20,21,13,13
-7,15,19,-2,-14,17,13,18,20,22,10,10
-6,15,18,-3,-13,17,12,16,18,19,6,7
-7,15,20,-2,-14,17,12,17,17,17,6,7
-9,13,20,-1,-14,17,12,19,18,17,7,9
-9,12,18,0,-13,15,11,18,18,18,8,9
-10,11,18,0,-14,14,10,17,17,18,9,9
-10,12,19,0,-15,16,12,18,18,18,10,10
-8,13,18,-2,-14,16,14,19,19,18,13,12
-7,13,17,-2,-13,15,14,19,19,18,13,12
-9,11,18,0,-14,15,13,18,18,18,14,13
-10,12,19,0,-15,16,13,18,20,20,15,14
-9,12,19,0,-15,16,12,19,20,20,15,14
-9,11,19,0,-14,16,12,19,18,17,11,11
-12,7,18,4,-16,13,11,18,16,14,9,9
-15,4,17,7,-17,11,10,16,16,14,6,7
-15,5,18,6,-17,12,10,16,17,16,6,7
-11,9,18,2,-15,14,11,18,19,19,8,8
-5,15,17,-4,-12,17,11,19,21,21,10,9
-4,16,18,-5,-12,18,10,19,19,21,10,9
-8,13,19,-1,-15,17,10,18,19,22,10,9
-10,13,21,0,-16,17,12,19,21,23,11,10
-7,14,20,-2,-14,17,13,20,21,23,11,9
-5,14,18,-3,-12,17,13,19,20,20,9,6
-5,13,17,-2,-12,16,12,18,18,16,7,5
-8,13,19,-1,-14,16,12,19,17,15,7,7
-10,13,20,0,-15,17,13,18,18,16,8,8
-10,11,20,0,-16,16,13,17,18,18,8,8
-10,10,19,0,-15,15,12,16,17,18,6,6
-9,11,18,0,-13,15,12,17,17,17,5,5
-9,11,18,0,-13,15,12,17,17,18,6,5
-11,8,18,2,-15,14,11,16,17,18,7,6
-12,6,18,5,-16,13,9,14,16,17,7,6
-13,5,18,5,-16,13,8,14,15,15,7,7
-12,7,17,3,-15,13,9,15,15,14,7,7
-8,10,17,0,-14,15,9,15,15,14,9,8
-7,11,17,-1,-14,15,10,16,16,14,10,10
-7,10,16,0,-13,14,11,17,16,13,10,11
-5,10,15,-2,-10,13,11,17,16,13,9,10
-4,11,14,-2,-9,13,12,16,16,16,8,9
-4,11,15,-2,-10,15,14,16,17,21,8,7
-6,11,18,-1,-12,16,13,16,19,24,8,5
-9,11,19,0,-14,16,12,16,18,20,7,5
-9,10,19,0,-14,15,10,16,16,15,6,5
-9,8,17,1,-14,13,8,14,14,11,6,5
-10,7,16,2,-14,13,8,14,13,10,6,6
-9,8,17,1,-14,14,11,15,14,11,7,6
-7,9,17,0,-13,14,12,15,15,13,7,6
-9,10,18,1,-14,15,12,15,15,16,7,6
-9,8,16,2,-13,14,11,13,14,16,6,5
-7,8,13,1,-10,11,9,11,12,15,4,3
-7,8,15,1,-11,13,9,11,13,14,4,2
-10,8,17,2,-14,13,9,11,13,14,5,3
-9,7,15,2,-13,12,8,10,13,12,4,3
-8,7,14,1,-12,11,7,10,12,10,4,3
-10,5,15,3,-13,11,7,11,11,8,4,4
-13,4,16,6,-16,11,8,12,12,11,5,5
-12,4,16,5,-15,12,8,12,12,13,6,8
-11,5,15,4,-13,12,7,10,10,12,6,8
-11,5,15,4,-13,12,7,9,10,12,6,8
-8,7,16,2,-13,13,8,10,12,14,7,7
-5,10,15,-1,-11,14,8,10,12,15,6,6
-5,11,16,-1,-12,14,8,10,12,14,4,4
-7,9,16,0,-13,13,7,10,12,12,3,3
-8,8,15,1,-12,12,7,10,11,10,3,3
-6,8,13,1,-11,12,7,11,10,9,3,4
-6,8,13,0,-11,12,7,11,11,9,5,5
-6,10,14,0,-11,13,7,11,12,11,7,7
-5,10,15,-1,-11,14,8,11,12,12,8,9
-5,10,15,-1,-12,14,9,12,13,15,10,10
-5,12,17,-2,-12,16,10,14,15,17,12,11
-5,13,18,-3,-12,16,10,16,16,17,11,10
-4,14,17,-3,-12,16,10,16,16,16,11,10
-4,13,16,-3,-11,15,10,16,17,18,11,10
-4,12,15,-3,-10,15,9,16,17,18,10,9
-1,14,15,-6,-8,15,10,17,17,16,9,9
2,17,14,-8,-6,16,13,18,16,13,9,10
2,17,14,-8,-6,16,13,19,15,12,10,11
0,16,15,-6,-8,16,12,19,16,13,12,12
-3,14,16,-4,-10,16,12,19,18,16,12,12
-3,14,15,-3,-10,15,12,19,19,19,13,12
-2,15,15,-4,-8,16,12,19,19,22,14,11
0,16,15,-6,-8,17,13,20,20,23,15,12
0,17,15,-7,-8,17,13,22,20,22,15,12
0,15,15,-5,-8,16,13,21,19,19,13,11
0,13,13,-4,-7,14,11,19,16,15,10,8
1,13,12,-6,-5,13,9,19,16,16,9,9
1,17,15,-7,-7,17,11,21,20,21,13,12
1,20,18,-9,-9,20,11,23,22,23,16,15
1,20,18,-9,-8,20,11,24,21,20,16,16
2,20,16,-9,-6,20,11,23,20,17,15,15
4,20,15,-10,-6,20,11,22,19,18,15,15
2,19,16,-9,-7,19,10,21,19,19,15,15
1,17,16,-8,-8,18,9,20,18,18,13,14
1,17,16,-9,-8,18,7,18,17,17,13,14
1,18,16,-9,-7,18,6,16,17,17,13,14
1,17,14,-8,-6,16,3,13,14,15,12,14
0,17,15,-7,-7,16,2,10,12,12,12,14
-1,18,17,-6,-9,19,2,10,12,12,13,16
0,18,17,-7,-8,19,1,10,12,12,13,16
0,15,14,-6,-7,16,-1,9,11,11,12,14
-1,12,13,-3,-7,14,-2,7,9,12,11,12
-1,11,12,-3,-7,13,-1,7,10,14,11,12
0,11,11,-4,-6,12,0,7,10,13,11,10
1,11,9,-4,-4,12,0,8,9,10,10,10
0,10,9,-3,-5,11,1,8,7,8,9,10
-4,8,10,0,-7,10,1,7,7,7,9,11
-4,9,10,0,-7,12,1,7,9,9,10,13
0,12,10,-4,-6,13,2,8,11,12,12,14
3,15,10,-8,-4,14,5,9,12,14,12,14
5,16,11,-10,-3,15,5,10,12,15,12,14
4,16,12,-9,-5,14,3,10,11,15,11,11
0,13,12,-5,-6,14,1,8,10,14,10,9
0,12,11,-4,-7,13,0,7,9,13,9,9
0,13,10,-4,-6,13,0,7,9,13,10,8
0,14,11,-4,-6,15,2,8,11,13,10,10
-2,11,12,-2,-8,14,4,9,11,11,10,12
-4,8,12,0,-9,12,4,8,9,9,10,12
-4,8,12,0,-8,11,4,8,9,8,10,13
-5,8,12,0,-9,10,4,8,9,10,11,13
-3,8,10,-1,-7,10,4,8,9,10,11,12
-1,9,8,-2,-5,10,3,7,8,10,10,11
-2,9,10,-1,-7,11,3,7,8,11,9,10
-5,8,11,1,-8,11,5,7,8,12,9,9
-5,6,10,2,-8,9,4,5,8,10,6,6
-6,4,9,2,-8,8,3,5,5,5,3,3
-10,2,12,5,-11,8,4,5,4,2,1,2
-13,0,12,7,-12,7,4,5,3,2,1,2
-11,0,11,7,-11,6,4,4,2,2,1,2
-10,0,9,7,-10,6,4,3,1,2,1,2
-11,0,9,7,-11,6,3,3,2,2,1,3
-13,0,10,9,-12,6,3,4,2,2,1,3
-13,-1,9,9,-12,5,3,4,2,1,1,3
-10,0,9,6,-10,5,3,4,2,1,1,3
-9,3,11,5,-9,7,5,5,4,4,2,3
-8,5,12,3,-10,9,6,6,6,7,4,3
-8,5,12,2,-10,10,5,6,6,7,4,2
-8,5,12,3,-9,9,5,6,5,5,4,2
-8,3,10,5,-10,8,4,5,5,4,4,2
-10,2,10,6,-11,7,4,5,4,3,3,2
-12,1,11,8,-13,8,4,5,4,3,3,2
-10,1,10,6,-11,7,4,5,3,4,3,3
-10,1,9,6,-10,6,4,4,3,5,4,3
-11,1,11,7,-11,7,5,4,4,7,4,3
-11,2,12,6,-11,8,6,6,5,7,4,4
-9,4,12,4,-10,9,7,6,5,6,4,4
-9,3,11,5,-11,8,7,6,5,5,3,4
-9,2,9,5,-10,7,7,6,4,4,3,4
-9,2,9,5,-10,7,7,6,4,4,2,3
-11,0,10,7,-11,7,7,6,4,4,2,3
-13,-2,10,9,-11,5,5,5,3,2,0,1
-13,-2,9,9,-10,4,4,4,2,2,-1,0
-11,-1,10,8,-10,5,5,5,2,3,0,1
-11,0,10,6,-10,6,6,5,2,3,0,1
-13,0,10,8,-11,6,6,5,3,4,1,0
-13,-1,10,9,-12,6,6,6,4,4,2,1
-12,0,10,7,-11,6,7,7,4,4,3,3
-9,2,10,5,-9,7,8,7,4,3,3,4
-7,3,9,3,-8,7,8,7,4,3,3,4
-8,3,9,4,-9,7,8,7,4,4,3,4
-9,0,8,6,-9,5,6,7,4,4,2,2
-10,-3,6,8,-8,2,4,6,2,3,1,0
-13,-5,6,11,-10,2,4,7,2,3,1,0
-15,-5,7,12,-11,2,4,8,4,3,1,0
-12,-3,6,9,-10,3,6,10,5,3,1,0
-7,0,5,6,-7,4,9,13,6,5,0,0
-5,0,4,5,-5,3,12,16,8,5,-1,-2
-7,-3,3,7,-5,0,14,19,9,3,-4,-6
-9,-6,2,10,-5,-1,15,22,9,3,-7,-9
-9,-9,0,10,-4,-3,16,26,11,4,-7,-11
-7,-10,-5,10,0,-6,18,31,13,4,-8,-13
-3,-10,-11,9,3,-8,19,36,15,3,-9,-13
0,-11,-14,7,5,-11,21,42,17,4,-7,-12
2,-8,-14,4,7,-9,22,49,24,12,0,-6
7,-1,-10,-1,7,-4,24,59,34,26,13,4
14,11,-5,-11,9,4,24,68,48,44,31,18
23,26,1,-23,10,15,25,79,64,63,52,35
29,41,10,-34,9,27,25,88,79,80,74,53
29,56,24,-42,2,42,23,92,92,98,100,75
30,75,41,-51,-5,60,20,91,103,118,127,100
37,96,56,-65,-9,78,14,86,112,137,155,126
48,117,66,-80,-9,93,6,77,118,153,182,152
60,136,74,-96,-8,107,-2,68,120,166,208,176
68,152,82,-108,-8,118,-11,60,125,180,233,200
72,166,93,-118,-11,131,-18,53,133,198,262,226
72,182,110,-125,-19,147,-25,42,142,215,289,250
61,193,131,-126,-34,164,-29,24,143,223,301,264
37,197,158,-116,-60,180,-29,-5,135,216,293,263
5,194,187,-98,-90,192,-28,-42,116,196,263,245
-23,180,201,-77,-113,192,-25,-77,89,165,219,214
-42,160,200,-57,-122,181,-23,-104,59,129,171,180
-52,135,185,-40,-120,161,-25,-121,30,89,124,145
-54,104,156,-24,-106,131,-26,-125,6,53,80,107
-49,76,124,-11,-87,101,-26,-118,-5,30,48,76
-45,59,103,-5,-75,83,-25,-107,-5,24,35,58
-41,51,91,-3,-67,73,-23,-93,0,26,32,50
-36,46,80,-3,-58,65,-22,-77,6,30,29,41
-32,38,67,-1,-50,54,-18,-61,11,32,23,29
-30,29,56,2,-44,44,-11,-45,15,31,17,20
-26,22,46,4,-37,35,-6,-32,15,26,12,12
-23,15,36,6,-31,26,-3,-23,11,17,6,6
-22,9,28,8,-26,20,-1,-16,7,10,3,3
-21,5,24,10,-23,16,1,-12,4,5,1,1
-21,2,20,10,-20,13,3,-9,2,2,-1,0
-19,0,17,10,-18,11,4,-7,0,1,-2,-2
-19,0,15,11,-17,9,4,-5,0,1,-3,-3
-18,-1,14,11,-17,8,5,-4,0,0,-5,-4
-17,0,15,11,-17,8,5,-2,-1,0,-7,-5
-19,-2,16,13,-18,8,6,-1,-1,-2,-8,-6
-22,-7,14,17,-18,5,6,-1,-2,-4,-9,-7
-22,-10,10,18,-16,2,5,-1,-2,-6,-9,-7
-19,-9,9,15,-14,1,5,0,-3,-8,-9,-7
-16,-6,8,12,-12,2,5,1,-3,-8,-8,-5
-14,-4,7,10,-10,3,5,2,-3,-7,-6,-5
-12,-4,5,10,-9,2,4,2,-3,-6,-6,-5
-13,-7,4,12,-9,0,4,2,-4,-6,-7,-6
-15,-9,4,14,-10,-2,5,2,-5,-7,-9,-8
-15,-10,4,15,-10,-2,6,2,-5,-7,-10,-8
-16,-10,4,15,-10,-2,7,2,-5,-7,-9,-8
-15,-10,2,14,-8,-3,6,1,-5,-9,-10,-10
-14,-12,0,14,-7,-3,6,1,-5,-9,-11,-11
-17,-12,2,15,-9,-3,6,3,-5,-9,-11,-11
-16,-9,4,13,-10,-1,6,5,-4,-9,-10,-9
-11,-7,2,10,-7,-1,6,6,-4,-10,-10,-8
-9,-7,2,10,-6,-1,7,7,-4,-10,-9,-8
-12,-8,3,11,-8,-1,8,7,-3,-8,-8,-7
-13,-10,3,13,-8,-1,8,7,-3,-6,-8,-8
-13,-10,1,13,-7,-2,7,6,-3,-7,-8,-9
-13,-9,2,12,-7,-1,8,6,-3,-7,-8,-9
-13,-7,3,11,-7,0,9,7,-2,-6,-8,-8
-14,-6,4,11,-9,1,9,7,-2,-7,-8,-8
-14,-7,4,11,-9,1,9,7,-3,-7,-9,-9
-12,-7,4,11,-9,1,9,7,-3,-6,-9,-8
-12,-7,3,11,-8,0,7,7,-3,-6,-8,-7
-13,-9,3,12,-8,-1,6,7,-3,-6,-8,-6
-14,-10,3,13,-8,-1,6,7,-3,-7,-8,-6
-14,-10,2,13,-8,-2,6,7,-3,-8,-8,-7
-12,-10,1,13,-6,-2,6,7,-4,-9,-8,-8
-12,-9,1,12,-6,-1,7,7,-4,-9,-8,-7
-12,-8,1,12,-6,-1,7,7,-4,-9,-8,-7
-9,-8,-1,11,-4,-3,7,7,-4,-9,-9,-8
-8,-8,-2,11,-4,-4,6,6,-5,-9,-10,-9
-11,-9,0,12,-6,-2,8,7,-3,-8,-9,-8
-13,-9,3,13,-8,-1,9,8,-3,-8,-9,-7
-15,-9,3,13,-9,-1,9,7,-4,-8,-9,-8
-15,-11,3,14,-9,-2,7,6,-4,-8,-10,-9
-18,-13,3,17,-10,-3,5,5,-4,-7,-10,-10
-20,-14,2,19,-11,-4,5,5,-5,-8,-10,-10
-18,-14,1,17,-9,-4,5,6,-5,-9,-10,-10
-14,-11,0,14,-7,-3,6,7,-5,-10,-10,-10
-13,-11,0,14,-7,-4,6,7,-5,-10,-11,-11
-12,-10,1,13,-7,-4,7,7,-5,-10,-11,-10
-11,-7,2,11,-7,-1,8,8,-4,-9,-11,-10
-10,-6,2,9,-7,0,8,8,-3,-8,-11,-10
-10,-6,2,9,-6,0,7,8,-3,-7,-11,-11
-11,-6,2,9,-6,0,8,8,-3,-6,-10,-10
-12,-7,3,11,-7,0,9,9,-1,-5,-8,-8
-12,-8,3,11,-7,0,8,9,-2,-6,-7,-7
-10,-8,1,11,-6,-1,8,8,-3,-8,-8,-7
-10,-8,0,11,-6,-1,8,8,-4,-8,-8,-7
-10,-8,0,11,-6,-1,8,7,-5,-8,-8,-7
-9,-8,-1,10,-4,-2,7,6,-6,-8,-8,-7
-9,-8,0,10,-4,-2,6,7,-4,-7,-7,-6
-11,-8,1,11,-6,-1,7,8,-3,-6,-5,-5
-15,-9,3,14,-9,-1,7,8,-3,-6,-5,-4
-15,-11,3,15,-9,-2,7,8,-3,-6,-6,-5
-12,-11,1,13,-7,-3,6,7,-4,-7,-7,-6
-12,-10,0,13,-6,-3,5,6,-4,-8,-8,-7
-14,-10,3,14,-9,-2,5,8,-4,-8,-8,-6
-16,-10,4,15,-10,-1,6,8,-4,-8,-8,-6
-15,-10,2,15,-8,-2,6,8,-5,-9,-8,-7
-10,-8,0,11,-5,-2,6,8,-6,-11,-8,-7
-8,-6,0,9,-4,0,7,9,-5,-11,-8,-6
-10,-6,1,10,-6,0,7,10,-4,-11,-8,-6
-10,-6,2,10,-6,0,7,9,-4,-10,-8,-6
-8,-4,2,8,-6,1,8,9,-3,-8,-6,-5
-8,-3,3,8,-6,2,9,10,-2,-5,-5,-4
-10,-5,3,10,-7,1,8,10,-2,-5,-5,-4
-12,-7,3,12,-8,0,6,9,-3,-5,-5,-5
-12,-8,3,12,-8,0,6,9,-4,-7,-6,-6
-11,-8,2,11,-7,0,6,9,-5,-9,-8,-8
-8,-7,0,9,-4,-1,5,9,-5,-9,-8,-9
-6,-6,-1,8,-3,-1,5,8,-5,-9,-8,-9
-10,-8,1,11,-6,-1,6,8,-4,-8,-9,-9
-14,-10,3,14,-9,-1,6,8,-4,-7,-9,-9
-13,-10,2,14,-8,-2,6,8,-4,-7,-9,-9
-11,-8,1,12,-6,-2,7,8,-4,-7,-9,-9
-10,-7,1,11,-6,-1,7,9,-4,-8,-8,-8
-11,-8,2,12,-6,-1,7,9,-4,-8,-8,-8
-11,-8,2,12,-7,-1,7,9,-4,-8,-8,-7
-10,-7,1,11,-6,0,7,9,-4,-8,-8,-7
-9,-7,1,10,-6,0,7,8,-4,-9,-9,-7
-11,-8,2,12,-7,0,6,8,-4,-9,-9,-7
-14,-10,3,14,-10,0,6,8,-4,-8,-8,-7
-15,-10,3,14,-10,0,6,8,-4,-7,-8,-7
-13,-8,3,12,-8,0,5,8,-4,-7,-8,-7
-11,-7,3,10,-7,0,5,8,-4,-7,-9,-7
-11,-7,2,10,-7,0,6,8,-4,-8,-9,-8
-10,-8,1,10,-6,-1,6,8,-5,-9,-10,-8
-10,-9,0,12,-6,-2,6,7,-6,-10,-10,-8
-11,-9,0,12,-6,-2,5,7,-6,-11,-9,-8
-10,-6,1,10,-6,0,6,9,-4,-10,-8,-6
-9,-5,2,10,-6,1,7,9,-4,-10,-8,-6
-10,-8,1,11,-6,-1,7,8,-5,-12,-9,-7
-10,-10,0,12,-5,-3,5,7,-6,-13,-11,-8
-11,-9,1,12,-6,-2,6,7,-6,-12,-11,-8
-9,-8,0,11,-5,-2,6,7,-6,-12,-10,-7
-8,-7,0,9,-5,-1,6,7,-6,-11,-10,-7
-10,-5,3,10,-8,1,7,9,-5,-10,-10,-7
-11,-5,4,10,-9,2,7,8,-5,-10,-10,-8
-9,-5,1,9,-6,0,6,7,-6,-10,-12,-10
-8,-5,1,9,-5,0,6,7,-6,-10,-12,-10
-10,-7,2,11,-7,0,8,7,-6,-11,-11,-9
-10,-8,1,11,-6,-1,8,7,-7,-13,-12,-9
-8,-6,1,9,-6,0,6,6,-7,-14,-12,-9
-11,-5,5,10,-9,2,6,6,-6,-12,-10,-6
-12,-6,5,11,-10,2,7,7,-6,-12,-9,-5
-11,-5,4,10,-9,2,6,7,-7,-12,-9,-5
-11,-5,4,10,-9,2,6,6,-7,-11,-9,-5
-11,-6,3,11,-7,0,6,5,-7,-11,-10,-6
-9,-7,2,10,-6,0,6,5,-8,-11,-10,-7
-9,-7,2,11,-6,-1,5,4,-9,-12,-11,-8
-11,-9,1,13,-6,-2,4,3,-11,-14,-13,-9
-14,-11,2,15,-9,-2,3,2,-11,-13,-12,-9
-16,-11,4,15,-11,-1,4,3,-9,-12,-11,-7
-14,-7,5,12,-10,1,5,4,-7,-12,-8,-4
-7,-1,4,6,-6,3,6,6,-6,-11,-6,-2
-4,0,2,5,-4,3,6,5,-7,-12,-6,-2
-6,-2,2,7,-5,2,5,5,-7,-12,-6,-2
-8,-3,4,8,-6,3,5,5,-7,-10,-5,-1
-8,-3,5,8,-7,3,6,5,-6,-9,-4,-1
-8,-4,3,9,-7,1,5,4,-7,-10,-5,-2
-10,-4,4,9,-8,1,5,3,-8,-12,-6,-2
-10,-3,5,9,-9,3,5,3,-8,-12,-5,-1
-10,-2,6,8,-10,4,6,3,-8,-11,-4,-1
-10,-2,6,8,-10,4,5,3,-8,-11,-5,-1
-9,-2,6,8,-9,5,5,3,-8,-11,-5,-1
-7,0,6,6,-7,5,4,4,-8,-11,-5,-1
-7,0,6,6,-7,5,4,4,-8,-11,-5,-1
-12,-3,8,10,-10,5,4,3,-8,-11,-5,0
-15,-6,8,13,-12,3,4,2,-9,-13,-6,-1
-15,-7,7,13,-11,2,4,2,-9,-13,-6,-1
-10,-2,7,9,-10,5,5,3,-7,-11,-3,1
-6,2,7,4,-8,7,6,4,-6,-8,-1,3
-6,3,8,4,-8,8,6,5,-5,-6,0,4
-6,3,9,3,-8,8,7,6,-4,-6,1,5
-5,5,10,2,-8,10,9,7,-4,-6,2,7
-7,5,11,3,-9,10,9,7,-3,-6,3,7
-7,4,10,4,-9,9,6,6,-3,-5,3,7
-7,3,9,4,-8,8,5,6,-3,-5,2,5
-8,3,9,4,-9,8,5,7,-2,-4,2,4
-7,3,9,3,-9,8,5,7,-3,-4,1,4
-6,4,9,2,-9,9,6,7,-3,-2,2,4
-7,6,12,3,-11,11,7,8,0,0,4,6
-8,6,15,3,-12,13,8,10,2,3,6,8
-7,6,13,3,-11,12,9,10,3,2,6,8
-6,7,13,2,-10,12,9,11,3,2,8,10
-5,9,14,0,-10,13,9,13,5,3,10,13
-4,11,13,-1,-10,14,6,13,5,3,11,13
-5,9,13,0,-10,13,4,12,4,3,11,13
-8,7,15,2,-13,14,6,13,6,5,12,15
-9,6,15,3,-13,13,9,14,7,7,12,15
-6,6,12,2,-11,11,9,13,7,8,11,13
-6,6,13,2,-11,11,9,13,7,9,11,12
-6,7,14,1,-11,12,9,13,8,9,11,12
-6,8,14,1,-11,12,8,14,7,6,11,12
-8,7,14,2,-12,12,8,14,6,5,11,11
-10,4,12,5,-12,10,8,14,6,4,12,11
-11,1,12,7,-13,9,8,15,7,4,12,11
-11,1,12,7,-13,10,9,16,8,5,13,12
-7,4,12,3,-11,11,10,18,10,7,14,13
-3,7,12,0,-9,12,10,18,10,9,15,14
-3,10,13,-1,-9,13,9,18,11,11,16,14
-4,11,16,-1,-11,15,9,18,12,14,17,15
-5,12,16,-1,-11,16,9,19,13,15,16,14
-7,10,16,0,-13,16,10,19,14,15,15,13
-8,8,16,2,-13,15,10,20,15,15,15,13
-6,8,14,1,-11,14,10,20,14,13,13,11
-6,8,14,1,-11,14,10,20,14,12,13,10
-8,6,15,2,-12,13,11,20,14,11,13,11
-8,6,14,3,-12,11,10,20,14,11,12,10
-8,7,14,2,-12,11,10,20,13,12,13,10
-8,8,15,2,-12,13,11,21,14,14,15,13
-9,8,16,3,-13,13,11,22,16,15,16,13
-9,6,15,3,-13,12,10,22,16,15,16,13
-7,5,13,3,-11,12,9,22,16,13,15,13
-7,6,12,2,-10,12,10,22,15,13,14,12
-7,6,14,2,-11,13,11,22,16,14,15,13
-7,7,15,2,-12,14,11,22,16,14,15,13
-7,7,15,2,-11,13,11,22,16,15,15,12
-7,7,13,2,-11,12,11,22,16,16,15,12
-7,8,13,2,-11,13,11,23,17,16,15,13
-6,10,15,0,-11,15,11,24,19,17,16,13
-5,11,15,0,-11,16,13,25,19,16,16,13
-7,9,15,1,-12,15,13,25,19,16,16,13
-10,6,16,3,-14,14,11,24,19,16,16,12
-9,5,15,3,-12,12,10,23,18,15,14,11
-8,4,13,3,-11,11,10,23,17,15,13,10
-11,4,15,5,-14,11,11,23,17,16,14,11
-10,6,16,4,-14,12,13,24,18,17,15,11
-8,7,15,2,-12,12,13,25,19,17,15,11
-9,7,15,2,-13,12,13,25,19,16,15,11
-9,7,15,2,-12,13,13,25,19,16,15,10
-8,7,15,2,-12,13,13,25,20,17,15,10
-9,6,16,3,-13,13,13,26,20,17,15,10
-11,4,16,5,-14,12,13,26,20,16,14,9
-12,2,15,6,-14,11,12,25,18,15,13,7
-14,0,15,9,-15,10,11,24,17,14,12,7
-12,2,14,7,-13,10,11,24,18,14,12,7
-8,6,14,3,-12,12,13,25,20,16,14,9
-10,6,16,4,-14,13,14,26,21,16,15,10
-12,3,16,6,-15,12,13,25,19,16,14,10
-11,3,15,5,-14,11,12,24,19,16,14,10
-9,5,15,3,-12,12,13,25,20,17,14,10
-8,5,15,2,-12,12,13,26,20,18,14,10
-8,4,14,4,-12,11,13,25,19,18,14,8
-12,1,14,7,-14,10,12,24,19,18,13,6
-13,1,14,8,-15,9,12,24,19,17,13,6
-10,4,14,5,-13,11,13,25,19,17,13,8
-7,7,13,2,-11,11,14,25,19,16,13,8
-6,6,13,1,-11,11,13,25,19,14,13,8
-7,6,14,2,-11,11,13,25,19,14,13,9
-6,6,14,2,-11,12,13,25,19,14,14,10
-6,7,14,1,-11,13,13,25,19,13,14,10
-7,6,14,2,-12,13,14,26,20,14,15,12
-8,6,14,3,-12,12,14,26,20,15,15,12
-8,5,12,3,-11,10,11,24,18,14,14,9
-8,3,10,4,-10,8,10,22,16,14,12,8
-10,1,11,6,-12,8,10,22,16,14,12,8
-11,1,12,6,-13,8,11,22,16,14,12,8
-9,1,12,6,-11,8,11,22,16,13,12,8
-10,0,12,6,-11,8,11,21,15,12,11,7
-11,0,12,8,-12,8,12,21,15,12,11,7
-9,2,11,5,-10,8,12,21,16,12,11,7
-5,6,11,1,-9,10,12,22,16,14,12,7
-5,5,10,2,-9,9,12,22,16,14,12,7
-6,3,9,3,-8,7,10,20,15,12,10,6
-6,3,10,3,-9,8,10,20,14,12,10,6
-7,3,12,3,-10,9,11,21,16,12,11,8
-6,3,11,2,-9,9,11,21,16,12,11,8
-5,4,10,2,-8,9,11,21,16,12,11,7
-6,3,10,3,-9,9,11,21,16,12,11,8
-5,4,9,3,-8,9,10,20,15,12,10,7
-7,4,10,4,-10,8,10,20,15,13,11,8
-9,2,11,5,-11,8,12,20,15,14,12,9
-7,2,9,4,-9,6,10,19,14,12,9,6
-6,1,8,3,-7,6,7,17,12,10,7,4
-10,0,11,6,-11,7,8,18,13,10,10,7
-13,-1,13,8,-14,8,10,20,15,11,12,9
-11,0,12,7,-12,7,9,20,13,9,11,8
-11,-1,11,8,-12,6,8,18,12,8,10,7
-14,-2,11,10,-13,6,9,18,11,8,10,7
-13,-1,11,8,-12,6,9,17,11,8,10,7
-9,1,10,5,-10,7,9,17,12,9,10,7
-6,3,9,3,-8,7,9,18,12,9,10,7
-6,1,9,4,-7,6,9,17,12,8,9,7
-6,1,9,4,-8,6,9,17,12,8,9,7
-6,2,10,3,-8,8,10,18,12,9,10,8
-6,4,11,3,-9,9,10,19,13,10,11,9
-5,4,10,2,-8,9,10,19,13,10,11,9
-5,4,9,2,-8,8,8,18,11,8,9,7
-7,3,10,3,-9,8,6,17,9,7,8,5
-9,1,10,4,-10,7,6,17,10,8,8,5
-9,1,11,4,-10,7,8,17,11,9,9,6
-8,2,11,4,-10,7,8,17,11,10,9,6
-8,2,11,4,-10,7,8,16,11,10,9,6
-5,4,10,2,-8,8,9,17,13,11,10,6
-4,6,10,1,-7,9,10,18,13,12,11,7
-4,6,10,0,-7,9,10,18,13,12,11,7
-6,5,11,1,-9,9,10,18,13,11,11,7
-7,4,11,3,-10,8,10,18,13,11,10,7
-7,3,11,3,-9,8,9,18,13,10,10,6
-7,3,11,2,-9,8,9,19,13,10,9,6
-7,3,11,3,-9,8,10,19,14,10,9,7
-5,3,10,2,-8,8,10,20,14,9,10,8
-1,6,9,-1,-6,9,11,22,14,9,11,8
-1,8,10,-2,-6,10,12,23,15,10,12,9
-3,8,11,-1,-8,11,13,25,17,13,14,10
-1,10,12,-3,-7,13,15,26,19,15,16,12
0,12,12,-5,-7,14,15,26,20,16,17,13
-1,11,13,-4,-7,14,14,26,20,16,17,14
-1,11,12,-4,-8,13,14,27,20,16,17,14
0,11,12,-4,-7,13,13,27,20,16,16,13
0,11,12,-4,-6,13,13,27,20,16,16,13
0,10,11,-3,-6,12,13,27,19,16,16,13
0,10,10,-3,-5,11,12,26,18,15,15,12
0,9,10,-3,-5,10,12,25,17,14,15,11
-2,8,10,-2,-6,10,13,26,18,16,16,12
-1,9,10,-3,-6,10,13,26,19,17,16,12
1,11,10,-5,-4,11,12,26,20,17,16,12
2,13,10,-7,-4,13,12,26,21,18,16,13
3,13,11,-7,-4,13,12,27,21,17,16,13
5,13,8,-7,-2,11,10,26,19,15,15,13
4,13,9,-5,-2,12,9,25,18,13,15,13
-2,12,14,-3,-8,14,9,25,18,14,16,14
-3,12,14,-2,-8,14,7,22,16,12,16,14
0,12,10,-4,-6,12,5,19,13,10,14,13
1,12,10,-5,-5,12,4,17,13,9,14,13
0,11,10,-4,-6,12,2,16,11,9,14,13
-3,8,11,-1,-8,11,0,14,10,9,13,12
-6,4,11,2,-9,9,0,13,10,9,13,10
-5,4,9,2,-7,8,-1,12,10,9,11,9
-2,5,7,0,-5,8,-1,12,10,9,11,7
1,8,7,-3,-3,9,0,13,10,9,11,8
2,10,7,-5,-3,9,1,15,10,9,11,9
1,10,7,-5,-4,9,1,15,10,9,11,9
1,9,7,-5,-4,9,2,15,11,9,11,11
2,9,6,-5,-2,8,2,15,11,8,11,11
1,9,7,-4,-3,9,3,15,11,9,12,11
0,8,8,-2,-4,9,3,15,11,9,14,12
-1,5,7,0,-4,7,3,15,11,9,14,12
0,4,5,0,-3,6,3,15,11,9,13,12
1,6,5,-1,-2,6,4,15,11,9,13,12
2,6,4,-3,-2,6,4,15,10,8,13,12
2,7,5,-3,-2,6,4,15,10,8,13,12
0,7,7,-2,-4,7,4,15,10,9,13,12
-1,5,6,0,-4,7,3,15,10,9,13,12
-1,4,5,0,-3,6,3,14,10,8,13,11
-1,4,5,0,-3,6,4,14,10,8,13,11
-1,5,5,0,-3,6,5,14,10,8,13,11
-1,5,6,0,-4,6,5,14,10,8,12,10
-2,5,6,0,-5,6,6,14,9,7,11,9
0,5,5,0,-4,6,6,14,9,6,10,8
0,5,5,0,-3,6,6,14,8,5,9,7
-3,3,6,1,-5,6,6,14,8,5,8,7
-5,2,7,3,-6,5,6,12,7,4,6,5
-8,0,8,6,-8,5,6,11,6,3,6,4
-11,-1,8,7,-9,4,6,11,6,3,6,4
-11,-2,7,8,-9,3,5,10,4,2,5,4
-8,-2,5,7,-8,2,3,9,3,0,3,3
-7,-2,5,6,-7,2,3,9,3,0,3,3
-8,-2,6,7,-9,2,4,10,4,1,4,3
-10,-3,8,8,-10,2,4,11,5,1,5,3
-10,-3,7,8,-9,2,5,11,5,1,5,3
-9,-2,6,7,-8,2,5,10,5,1,4,3
-9,-2,6,7,-8,3,6,10,5,2,5,3
-10,-2,7,7,-9,3,7,10,5,3,5,4
-8,-2,7,6,-8,3,7,10,5,4,5,3
-6,-2,4,6,-6,1,6,9,5,4,4,1
-6,-3,4,6,-6,1,6,9,5,3,3,0
-10,-1,9,7,-10,3,8,11,6,4,5,2
-11,-1,11,7,-11,5,8,12,6,4,5,2
-11,-2,9,7,-10,3,7,11,5,3,3,1
-13,-4,9,9,-11,2,6,11,4,2,2,0
-14,-6,7,11,-11,1,5,10,3,1,1,0
-14,-7,5,12,-10,0,3,9,2,0,1,-1
-14,-9,5,13,-10,-1,3,9,2,-1,1,-1
-15,-10,5,14,-11,-2,3,9,2,-1,1,-1
-15,-10,6,14,-11,-1,3,9,2,-1,2,0
-13,-8,6,12,-10,0,4,9,3,0,4,1
-12,-4,7,9,-10,2,7,12,5,2,6,3
-8,0,7,5,-8,4,10,14,6,3,8,6
-5,1,6,2,-7,4,10,15,7,4,8,7
-7,0,7,4,-8,4,9,15,7,4,8,8
-8,-1,7,6,-8,3,6,15,7,2,8,7
-7,-2,6,6,-7,2,4,14,6,1,7,5
-9,-2,7,8,-9,2,5,13,5,2,6,4
-12,-3,9,9,-11,2,8,13,5,2,6,4
-11,-3,7,8,-9,2,8,12,5,2,5,2
-9,-3,5,8,-8,1,8,12,4,2,4,2
-10,-5,5,9,-8,0,7,11,4,2,3,1
-12,-6,6,11,-10,0,7,12,4,2,3,1
-13,-7,6,11,-10,0,8,12,4,2,3,1
-13,-8,5,12,-9,-1,7,12,4,2,2,0
-11,-7,5,11,-9,-1,7,12,5,3,2,0
-9,-5,4,9,-7,0,9,16,7,4,3,0
-7,-5,2,8,-5,-1,10,19,7,2,1,-1
-7,-6,1,8,-5,-2,12,22,7,1,0,-2
-7,-7,0,8,-4,-3,15,26,9,1,-1,-4
-6,-8,-1,8,-3,-4,19,29,10,1,-3,-6
-8,-10,-2,10,-3,-4,21,33,13,2,-3,-7
-7,-12,-3,11,-2,-6,24,37,15,3,-3,-9
-5,-14,-7,11,0,-9,25,42,17,3,-4,-10
-1,-14,-11,8,5,-12,25,48,19,5,-3,-10
5,-10,-13,4,8,-12,26,57,26,11,2,-5
10,-3,-12,-2,10,-8,26,67,37,24,15,4
17,8,-8,-10,11,0,27,79,50,39,31,17
22,21,-1,-19,10,10,29,90,65,57,51,33
27,35,7,-30,9,22,29,97,79,75,73,52
36,53,16,-43,9,35,25,100,91,94,97,72
44,74,30,-58,7,53,19,100,104,114,123,96
54,94,40,-74,7,68,11,95,114,133,151,121
66,113,47,-88,9,80,1,88,119,147,175,143
75,129,55,-101,9,92,-9,79,122,160,198,166
83,144,61,-112,10,102,-20,69,127,174,222,189
91,160,70,-125,10,115,-30,60,135,189,248,214
95,178,83,-135,5,131,-39,47,141,204,271,236
91,190,99,-139,-4,146,-46,24,139,207,280,249
72,193,121,-131,-24,158,-50,-8,125,196,272,248
36,185,149,-109,-57,168,-49,-46,105,178,249,235
2,170,169,-85,-85,169,-47,-80,80,152,216,212
-20,152,173,-65,-98,162,-47,-105,53,122,178,185
-33,126,160,-45,-98,143,-47,-121,26,88,135,152
-35,97,132,-29,-85,115,-45,-123,4,53,90,113
-31,74,105,-20,-69,91,-42,-112,-3,34,61,84
-28,61,89,-15,-60,77,-36,-94,0,30,51,69
-25,52,78,-12,-52,67,-30,-77,6,31,47,60
-25,42,68,-8,-46,56,-24,-61,9,29,39,47
-26,29,56,0,-42,42,-18,-45,11,26,28,33
-28,15,45,8,-38,30,-13,-30,12,21,19,21
-27,6,35,12,-32,20,-12,-21,9,16,11,11
-24,0,26,14,-27,13,-9,-15,5,10,6,4
-24,-4,20,16,-24,9,-5,-10,3,5,3,2
-23,-6,16,16,-20,6,0,-6,2,2,2,2
-19,-5,14,14,-17,5,4,-2,2,0,2,1
-19,-5,14,13,-16,5,6,1,3,0,2,2
-17,-4,14,13,-16,5,7,4,3,1,2,2
-12,-3,11,10,-12,4,7,5,2,0,0,0
-10,-3,9,8,-11,2,7,7,2,-1,-1,-1
-12,-4,9,10,-12,2,7,7,2,-1,-1,-1
-12,-4,9,10,-12,2,7,7,1,-2,-2,-1
-12,-5,7,10,-11,2,7,7,1,-2,-2,-1
-10,-5,5,9,-8,1,8,7,1,-3,-2,-2
-10,-6,4,9,-7,0,9,8,1,-3,-2,-2
-13,-9,4,12,-9,-1,8,8,0,-4,-4,-4
-15,-14,4,16,-10,-4,7,8,-2,-8,-7,-7
-17,-17,2,18,-11,-7,5,7,-4,-10,-9,-9
-16,-17,1,18,-10,-7,5,8,-4,-10,-9,-9
-13,-14,0,15,-8,-6,5,8,-2,-8,-9,-9
-12,-11,0,13,-7,-5,5,8,-2,-7,-8,-9
-13,-11,1,14,-8,-5,5,8,-2,-7,-8,-9
-12,-11,0,13,-7,-5,5,8,-3,-8,-8,-9
-11,-11,-1,12,-4,-6,5,8,-4,-9,-8,-9
-11,-12,0,13,-5,-6,6,9,-3,-9,-8,-9
-13,-12,2,14,-8,-5,7,10,-2,-8,-8,-8
-14,-13,2,15,-9,-5,8,11,-2,-8,-8,-8
-14,-14,1,16,-9,-7,8,11,-2,-9,-8,-9
-16,-14,3,17,-10,-6,8,12,-1,-9,-8,-8
-16,-12,3,15,-10,-4,9,13,0,-8,-6,-6
-11,-10,1,12,-7,-3,10,13,0,-8,-6,-6
-10,-10,0,11,-6,-4,10,13,-1,-8,-7,-6
-10,-11,0,12,-6,-4,9,13,-1,-8,-7,-6
-10,-11,0,12,-6,-5,8,12,-1,-7,-7,-6
-10,-11,0,12,-6,-5,7,12,-1,-7,-7,-6
-10,-11,0,13,-6,-5,8,12,-1,-7,-7,-6
-13,-11,2,14,-8,-4,9,12,-1,-7,-7,-6
-13,-11,1,14,-8,-4,9,12,-1,-7,-7,-6
-11,-11,0,13,-7,-4,9,12,-1,-7,-7,-6
-13,-13,0,15,-7,-6,9,12,-2,-9,-8,-7
-16,-17,0,18,-8,-8,9,11,-3,-10,-9,-8
-17,-18,0,20,-9,-9,9,11,-3,-10,-9,-8
-17,-17,0,20,-9,-9,8,12,-3,-10,-9,-8
-14,-15,0,17,-8,-7,7,12,-2,-8,-8,-8
-12,-12,0,14,-7,-5,7,13,-1,-7,-7,-8
-12,-11,0,13,-8,-5,7,14,-1,-7,-7,-8
-9,-11,-1,12,-6,-5,7,13,-2,-8,-7,-8
-8,-9,0,10,-6,-3,9,13,-1,-7,-6,-6
-8,-7,2,10,-7,-1,11,15,1,-5,-4,-5
-7,-7,2,10,-6,-1,11,15,1,-5,-4,-5
-7,-8,0,10,-5,-3,11,14,0,-6,-6,-6
-11,-11,1,13,-7,-4,10,14,-1,-8,-7,-8
-14,-13,1,16,-9,-6,9,13,-3,-9,-8,-8
-16,-16,0,18,-9,-8,7,12,-4,-10,-9,-9
-19,-18,0,20,-11,-9,7,12,-4,-10,-9,-9
-19,-18,1,20,-11,-7,7,12,-2,-9,-8,-8
-15,-14,1,16,-9,-5,9,14,-1,-8,-7,-7
-11,-11,0,14,-6,-5,9,14,-1,-8,-6,-6
-10,-10,1,13,-6,-4,9,14,-1,-8,-6,-6
-11,-10,2,13,-8,-3,9,15,0,-8,-6,-6
-10,-9,2,12,-7,-3,9,15,-1,-7,-6,-6
-8,-8,0,10,-6,-3,8,15,-1,-6,-6,-5
-8,-9,0,10,-6,-3,9,15,0,-6,-5,-5
-9,-10,0,11,-6,-3,9,15,0,-5,-5,-5
-8,-9,0,11,-5,-3,9,15,1,-5,-5,-5
-9,-9,1,11,-6,-3,9,15,0,-6,-5,-5
-10,-10,1,13,-7,-3,9,15,0,-7,-6,-5
-11,-10,1,13,-7,-4,9,15,0,-8,-6,-5
-10,-10,0,13,-7,-4,8,15,-1,-9,-6,-6
-11,-11,0,13,-7,-4,8,15,-1,-10,-6,-6
-12,-11,0,14,-7,-5,8,16,-1,-9,-6,-5
-12,-12,0,14,-7,-5,8,16,-1,-9,-6,-5
-11,-13,-1,15,-6,-6,8,15,-2,-10,-7,-6
-11,-15,-2,16,-6,-8,8,13,-3,-10,-8,-7
-13,-15,0,17,-8,-7,8,13,-2,-8,-8,-7
-14,-15,0,17,-9,-7,8,14,-1,-7,-8,-7
-10,-11,0,13,-7,-5,9,16,0,-6,-7,-7
-8,-8,0,11,-6,-3,9,17,0,-5,-6,-6
-9,-7,2,10,-6,-2,9,18,1,-5,-5,-5
-8,-6,2,10,-7,-1,9,18,1,-5,-5,-5
-8,-7,2,10,-7,-1,9,18,1,-5,-5,-5
-8,-7,2,10,-6,-1,9,18,1,-6,-5,-5
-8,-8,2,11,-7,-2,9,17,1,-6,-5,-4
-9,-9,1,12,-7,-2,9,17,0,-6,-5,-4
-9,-9,0,12,-6,-3,8,17,0,-7,-6,-5
-8,-9,0,12,-5,-4,8,17,0,-7,-6,-5
-10,-9,0,12,-6,-4,8,18,0,-7,-5,-4
-10,-8,1,12,-7,-3,8,18,0,-7,-5,-4
-9,-8,1,12,-7,-3,7,18,0,-8,-5,-5
-9,-10,0,12,-7,-4,7,17,0,-9,-6,-6
-11,-10,1,14,-8,-4,8,17,0,-8,-7,-6
-10,-10,1,13,-8,-4,8,18,0,-7,-7,-6
-10,-11,0,13,-7,-4,7,18,0,-8,-7,-6
-13,-13,0,16,-8,-5,6,16,-2,-9,-9,-8
-15,-14,0,18,-9,-6,6,16,-2,-9,-10,-9
-12,-11,0,15,-7,-4,8,17,0,-8,-8,-7
-9,-6,2,11,-7,-1,10,19,1,-7,-6,-5
-9,-5,3,10,-8,0,11,20,2,-7,-5,-4
-9,-7,2,11,-8,-2,10,19,1,-8,-5,-4
-8,-8,2,11,-8,-3,10,19,1,-8,-5,-4
-8,-8,1,11,-7,-3,10,19,1,-8,-5,-4
-8,-7,1,11,-6,-3,10,19,0,-8,-6,-5
-9,-8,1,13,-7,-3,10,19,0,-9,-6,-6
-10,-10,0,14,-6,-4,9,19,0,-9,-7,-7
-9,-9,0,12,-6,-4,7,19,0,-9,-7,-7
-9,-7,1,11,-7,-2,7,19,0,-8,-7,-6
-10,-7,3,12,-9,-2,7,20,0,-8,-6,-6
-12,-10,2,14,-9,-4,7,19,-1,-9,-7,-6
-12,-11,1,16,-9,-5,7,17,-1,-10,-8,-7
-11,-11,1,15,-9,-5,7,17,-1,-10,-8,-7
-10,-10,0,14,-7,-4,8,18,-1,-9,-7,-6
-8,-8,0,12,-6,-3,9,19,-1,-9,-7,-6
-6,-7,0,10,-5,-3,9,19,-1,-9,-7,-6
-6,-7,0,10,-5,-3,9,19,-1,-9,-7,-6
-6,-7,0,10,-5,-3,8,19,-1,-9,-7,-5
-6,-8,0,10,-6,-3,8,19,0,-8,-7,-5
-7,-8,0,11,-6,-3,8,19,0,-8,-7,-5
-9,-7,1,12,-7,-2,9,19,0,-8,-7,-4
-9,-7,1,12,-7,-2,9,19,0,-8,-6,-4
-9,-8,0,12,-6,-2,8,18,-1,-8,-6,-4
-9,-9,0,12,-6,-3,7,18,-1,-9,-7,-5
-8,-8,0,12,-5,-3,7,18,-1,-9,-7,-5
-9,-7,1,11,-7,-2,8,19,-1,-9,-6,-4
-9,-7,2,12,-8,-2,9,19,-1,-10,-6,-3
-7,-6,1,11,-7,-2,9,18,-2,-11,-6,-3
-6,-5,1,10,-6,-1,9,18,-2,-11,-6,-2
-7,-5,1,10,-6,-1,8,18,-1,-11,-5,-2
-7,-6,0,10,-5,-2,6,17,-2,-11,-5,-2
-8,-7,0,11,-6,-2,6,17,-2,-10,-5,-2
-11,-8,2,13,-8,-2,6,17,-2,-9,-4,-2
-12,-9,3,14,-9,-2,6,16,-2,-8,-4,-2
-8,-6,2,10,-7,-1,7,16,-2,-8,-4,-1
-4,-2,2,6,-6,0,8,17,0,-7,-2,0
-3,-1,3,6,-6,2,8,18,1,-7,-1,1
-5,-2,4,7,-7,2,6,18,0,-7,-1,1
-6,-2,4,9,-8,2,7,18,0,-7,-1,1
-7,-3,4,9,-7,1,7,18,0,-7,-1,0
-8,-3,4,10,-7,1,7,17,-1,-7,-1,0
-9,-5,4,11,-8,0,6,17,-1,-7,-1,0
-9,-6,3,11,-8,-1,5,17,-1,-8,-2,-1
-9,-6,4,11,-9,0,4,17,-1,-8,-1,0
-9,-5,6,11,-10,1,4,17,0,-7,0,2
-8,-3,6,9,-10,3,5,17,0,-6,1,3
-5,0,6,6,-8,4,7,18,1,-4,2,4
-3,2,5,4,-6,4,7,18,2,-4,3,5
-5,0,6,7,-8,4,6,19,2,-3,3,5
-8,-1,7,8,-10,4,7,19,2,-3,4,6
-6,0,8,7,-9,5,7,20,3,-2,5,8
-5,1,7,5,-9,5,7,20,3,-2,5,8
-4,0,6,5,-8,4,7,19,3,-2,5,7
-3,2,6,3,-7,5,7,20,4,-1,6,7
-1,6,7,1,-7,8,8,21,6,1,8,9
-2,7,9,1,-8,9,8,23,7,3,9,10
-5,5,9,3,-9,8,7,23,7,3,10,10
-5,4,9,4,-9,8,6,23,7,3,9,11
-5,4,10,3,-9,8,6,23,8,4,10,12
-4,4,10,3,-9,8,6,23,8,4,11,12
-4,4,10,3,-9,8,6,23,8,4,11,12
-4,6,10,2,-9,9,7,24,9,5,12,13
-3,6,10,2,-9,9,8,24,9,6,12,14
-4,5,10,3,-9,8,6,24,9,6,13,14
-4,3,9,4,-9,7,5,23,8,6,13,14
-3,5,9,2,-8,7,6,24,9,6,13,14
-4,5,10,2,-9,8,6,24,10,7,14,15
-6,4,11,4,-11,8,7,24,10,8,14,16
-4,6,12,2,-10,9,8,25,11,8,15,16
-3,8,12,1,-10,11,8,26,12,9,16,16
-4,6,12,2,-10,10,8,26,13,9,16,16
-4,5,10,3,-9,8,8,25,11,8,15,14
-5,5,11,3,-10,9,8,26,12,9,15,15
-6,8,14,2,-12,11,10,28,14,12,16,16
-5,10,15,1,-12,13,10,28,16,14,17,16
-4,9,14,1,-12,12,9,28,16,14,16,16
-4,9,15,1,-12,12,9,28,16,14,16,16
-4,9,13,0,-11,12,9,28,16,13,16,16
-6,6,13,2,-11,11,9,27,16,13,16,15
-9,4,14,5,-13,11,9,27,16,13,16,15
-10,3,14,7,-14,10,9,28,16,13,17,15
-9,3,12,6,-12,9,9,28,16,12,17,15
-6,4,11,5,-11,8,8,27,15,12,16,15
-5,5,11,3,-10,8,8,28,16,12,16,15
-4,6,13,2,-11,9,10,29,17,12,17,15
-4,8,14,1,-11,11,11,29,18,13,18,16
-4,8,13,0,-11,11,10,29,18,14,18,16
-4,8,12,0,-10,11,9,29,18,14,18,16
-4,9,13,0,-10,12,9,29,18,15,18,16
-5,9,14,1,-12,12,9,30,19,16,19,17
-6,7,15,2,-13,12,10,30,19,16,19,17
-7,5,14,3,-13,10,10,29,18,16,17,16
-8,4,14,4,-13,9,10,28,18,15,17,14
-9,3,14,6,-14,9,9,28,18,14,16,13
-10,2,14,6,-14,9,9,28,18,13,15,13
-8,4,14,5,-12,9,10,29,18,13,16,13
-6,7,13,2,-11,10,11,29,18,13,16,14
-6,7,13,2,-11,10,11,30,18,14,16,14
-7,5,14,4,-13,10,11,30,19,14,16,14
-6,6,14,2,-11,10,11,30,19,15,16,14
-2,9,13,0,-9,11,11,30,20,15,17,14
-2,9,13,0,-9,11,11,30,20,16,16,14
-5,7,14,2,-11,11,11,30,20,16,16,13
-6,7,14,2,-11,11,11,30,20,16,16,12
-7,7,14,3,-12,11,11,30,20,16,16,12
-8,5,14,4,-12,10,12,31,20,16,15,12
-8,4,13,5,-12,9,11,30,20,15,14,11
-9,2,13,6,-13,7,9,29,19,13,13,11
-9,1,13,6,-13,7,9,29,18,13,12,10
-8,2,12,5,-12,7,9,30,18,13,12,10
-7,4,13,4,-11,8,10,31,20,14,13,11
-6,6,14,2,-10,10,12,32,21,15,14,12
-5,7,13,1,-10,10,12,32,21,16,14,12
-6,6,14,2,-11,10,11,32,21,16,14,12
-8,5,15,4,-13,10,12,31,21,17,14,12
-8,5,14,4,-13,9,12,31,22,18,14,12
-5,5,13,2,-12,9,11,31,22,18,14,12
-4,6,13,2,-11,10,11,31,22,19,14,12
-5,6,14,2,-11,10,12,31,22,19,14,11
-6,6,14,3,-12,9,12,31,22,18,14,11
-7,4,13,3,-12,8,12,31,21,17,14,10
-7,4,12,3,-11,8,12,31,21,15,13,9
-7,5,13,3,-11,8,12,32,21,15,14,9
-5,5,12,3,-10,7,10,32,20,14,14,10
-4,4,10,3,-9,7,10,31,19,13,13,10
-4,3,9,3,-8,6,11,31,19,13,13,9
-5,2,9,4,-9,5,11,31,18,12,12,9
-9,0,11,6,-11,5,11,31,20,13,12,9
-11,0,13,7,-14,6,11,31,21,14,14,11
-9,1,11,6,-12,5,9,31,19,13,14,11
-6,2,9,4,-9,5,8,30,18,12,13,10
-5,3,10,3,-9,6,9,30,19,13,14,10
-6,3,11,4,-10,8,11,31,20,15,14,11
-7,2,11,6,-11,6,11,30,19,15,13,9
-8,0,10,7,-11,4,10,29,18,13,11,8
-9,-3,8,9,-11,1,9,27,16,11,9,6
-12,-6,7,11,-12,0,7,25,15,10,7,5
-12,-5,8,11,-12,0,7,26,15,10,8,5
-7,0,8,6,-10,3,9,27,16,10,9,6
-2,3,7,2,-6,5,9,28,17,11,10,7
-1,4,7,1,-6,5,10,28,17,11,11,9
-2,3,8,2,-7,5,10,28,17,11,11,9
-4,1,7,4,-8,4,8,28,16,10,10,9
-6,0,7,6,-8,2,7,27,16,9,10,9
-7,-1,8,6,-9,2,7,27,16,9,10,9
-5,1,8,4,-9,3,9,27,16,10,11,9
0,5,7,0,-6,5,9,27,17,10,11,10
0,5,7,0,-6,5,10,27,17,10,11,10
-5,2,8,4,-9,5,10,27,16,10,11,10
-5,1,8,4,-8,5,9,27,16,10,10,9
-3,2,7,3,-7,5,9,27,16,11,10,9
-2,3,7,2,-6,5,9,27,17,11,11,11
-2,2,7,2,-6,4,9,27,16,11,12,11
-3,1,7,3,-7,3,9,25,15,9,11,10
-3,1,6,3,-6,2,8,24,14,8,10,10
-1,1,4,2,-4,2,6,23,13,8,9,8
-3,0,4,4,-5,1,6,23,12,8,8,7
-4,-1,3,5,-6,1,6,22,12,8,8,7
-2,-1,3,4,-5,1,5,22,12,8,8,6
-1,0,3,3,-4,1,6,22,12,8,8,6
-1,1,4,2,-4,1,7,22,13,8,9,7
-2,0,5,2,-5,1,6,22,13,8,9,7
-4,-2,4,4,-5,0,5,21,12,7,7,6
-6,-4,3,7,-6,-1,3,20,10,6,6,5
-10,-7,5,11,-9,-1,4,20,10,5,6,5
-11,-7,5,12,-10,-1,5,20,10,5,6,6
-6,-3,4,8,-7,0,6,21,11,5,7,6
1,2,3,1,-3,1,7,22,11,6,8,7
2,4,4,0,-3,2,8,22,12,7,9,9
-2,2,6,2,-6,2,8,22,13,7,9,9
-3,0,5,3,-5,1,5,22,12,6,8,8
-1,0,2,3,-3,0,3,21,10,6,7,7
-1,0,1,3,-3,0,3,21,10,6,7,7
-2,0,3,3,-5,1,5,21,11,6,8,7
-3,-1,4,5,-6,1,6,21,11,6,8,8
-4,-3,4,6,-6,0,6,20,10,6,7,7
-4,-3,4,6,-6,0,5,20,10,6,7,7
-3,-1,4,4,-5,1,6,22,11,7,8,8
1,3,4,-1,-2,3,8,23,13,8,10,9
5,7,4,-5,-1,5,9,25,14,9,10,10
5,8,4,-5,-1,6,10,25,14,9,10,10
4,6,4,-3,-1,4,9,25,14,9,10,10
4,6,4,-3,-1,5,8,25,15,9,11,10
4,7,5,-3,-1,5,9,27,16,10,12,11
4,6,5,-3,-2,4,9,27,16,11,13,12
3,4,3,-2,-2,3,9,27,15,11,12,12
3,4,4,-2,-2,3,11,27,15,11,12,12
1,4,5,-1,-4,4,12,28,16,11,13,13
0,4,5,0,-5,4,12,29,17,12,14,13
3,6,4,-2,-2,4,11,30,17,12,13,12
8,10,3,-6,0,5,12,31,18,12,14,13
8,11,4,-7,0,6,13,32,19,14,16,15
7,9,4,-6,0,5,13,32,19,14,16,15
5,6,2,-4,0,3,11,30,18,12,15,14
5,4,1,-3,0,2,9,29,16,11,14,12
5,3,0,-3,0,1,7,28,16,10,13,11
6,4,0,-3,0,2,7,29,16,10,13,12
7,7,1,-5,0,4,8,31,19,12,15,14
9,10,2,-8,2,6,9,32,20,14,16,15
10,10,0,-8,3,5,7,31,19,13,15,14
10,8,0,-7,3,3,6,29,17,12,14,14
9,8,2,-6,1,4,6,29,17,12,14,15
8,9,4,-7,0,6,7,29,17,13,15,16
8,9,3,-7,1,6,5,26,15,11,14,15
7,7,1,-6,1,4,2,22,12,9,12,13
7,7,1,-5,1,4,0,20,11,9,12,13
7,8,1,-5,1,4,-1,19,11,9,12,13
8,8,0,-5,2,3,-3,17,10,8,11,13
10,8,-1,-6,3,3,-3,17,10,9,12,13
11,8,-1,-7,4,3,-2,17,10,9,12,13
10,5,-2,-5,4,1,-2,17,9,8,11,12
9,3,-3,-4,4,0,-2,17,9,7,10,11
9,1,-4,-3,4,-2,-2,17,8,6,9,10
7,0,-5,-2,4,-3,-1,17,7,5,9,10
5,-1,-5,0,4,-3,-1,17,7,5,9,10
4,0,-4,0,3,-3,-1,17,8,5,9,10
6,1,-4,-1,4,-2,0,17,9,5,10,11
9,3,-5,-4,6,-2,0,17,9,6,10,12
14,4,-8,-7,8,-2,-1,17,8,5,10,12
14,4,-7,-7,8,-1,0,18,9,5,10,12
11,4,-3,-6,5,0,1,20,10,7,11,13
11,5,-3,-6,5,0,1,20,10,7,12,13
11,4,-5,-6,6,-1,0,19,9,7,12,13
8,2,-5,-3,5,-2,0,18,8,6,10,12
5,0,-5,0,4,-2,-1,16,7,5,9,11
4,0,-4,0,3,-2,0,15,7,5,9,11
6,1,-4,-1,3,-1,1,15,7,5,9,11
7,2,-2,-2,2,0,2,16,8,6,10,11
5,1,-1,-1,0,0,3,18,8,6,10,11
5,0,-2,0,2,-1,1,18,7,4,9,10
5,-1,-4,0,2,-3,0,16,7,3,7,8
2,-2,-3,2,1,-3,1,16,7,4,6,8
1,-2,-2,2,0,-3,2,16,7,4,6,8
0,-3,-3,3,0,-3,2,15,6,2,5,6
-2,-6,-3,6,0,-4,2,13,4,1,3,5
0,-6,-3,5,0,-4,1,13,4,1,3,5
2,-4,-3,3,0,-3,1,13,4,1,3,5
1,-4,-3,3,0,-3,1,13,4,1,3,5
0,-5,-3,5,0,-4,0,13,3,0,2,3
-2,-7,-4,6,0,-6,0,11,3,0,1,2
-5,-9,-3,9,-2,-6,1,11,3,0,1,2
-6,-9,-2,10,-3,-6,2,12,3,0,2,2
-4,-8,-3,8,-2,-5,2,12,3,1,3,2
-1,-8,-4,6,0,-6,1,12,3,0,3,2
0,-9,-5,7,0,-7,0,12,2,-1,1,1
-2,-11,-5,9,-1,-8,0,12,2,-2,0,1
-4,-11,-5,10,-1,-8,0,12,2,-2,0,1
-1,-7,-4,6,0,-6,1,13,3,-2,1,2
1,-3,-4,2,1,-3,3,13,4,0,2,3
0,-4,-4,4,1,-4,3,13,4,0,2,3
-4,-8,-3,8,-1,-5,2,12,3,-1,1,3
-4,-9,-3,9,-1,-5,3,12,3,-1,1,3
-1,-6,-3,5,-1,-4,4,14,4,0,3,4
1,-3,-3,3,0,-3,4,14,4,1,3,4
0,-5,-4,4,0,-4,1,13,3,1,2,3
0,-5,-4,4,0,-5,0,13,3,1,1,3
0,-4,-4,4,0,-5,2,13,4,1,1,3
1,-4,-5,4,1,-5,3,13,4,1,1,2
0,-6,-5,5,1,-5,3,13,4,0,1,2
-2,-8,-6,7,0,-7,2,13,3,-1,0,1
-3,-12,-6,10,0,-8,1,14,2,-1,0,0
-5,-12,-4,10,-2,-8,2,17,3,-1,0,0
-5,-9,-1,9,-3,-5,3,19,5,0,1,2
-2,-5,-1,5,-3,-3,5,19,5,2,2,3
0,-3,-1,4,-2,-3,5,17,5,2,2,3
-1,-4,-3,4,-1,-4,5,15,5,2,2,2
-2,-6,-4,6,-1,-5,3,14,5,2,2,2
-4,-8,-3,8,-2,-5,2,13,4,1,2,2
-6,-10,-3,10,-3,-5,3,12,4,1,2,2
-5,-12,-4,10,-2,-7,3,12,3,0,1,2
-4,-10,-4,9,-1,-7,4,13,4,0,1,2
0,-7,-5,5,0,-5,5,14,5,1,2,2
3,-4,-6,2,2,-5,6,16,6,2,2,2
2,-4,-6,2,2,-6,6,18,6,2,2,2
2,-7,-8,4,3,-8,7,20,6,1,0,0
2,-9,-10,5,3,-9,9,23,7,0,-2,-3
0,-12,-11,7,3,-10,12,25,8,0,-4,-5
-1,-14,-11,10,3,-11,15,29,9,0,-6,-7
-3,-17,-12,12,3,-14,17,34,11,0,-7,-9
-5,-22,-15,15,3,-18,18,38,11,-1,-8,-11
-5,-26,-18,18,4,-23,18,40,11,-1,-10,-13
-2,-26,-23,16,8,-25,19,44,13,1,-9,-13
4,-20,-25,10,12,-23,21,54,21,10,-2,-8
15,-8,-23,-1,16,-15,24,69,34,23,11,2
25,5,-20,-13,20,-6,26,85,49,38,28,16
33,17,-14,-23,22,3,26,97,63,52,46,31
40,32,-7,-34,22,14,25,104,75,67,66,49
48,50,2,-47,22,26,21,105,87,84,88,69
59,69,11,-63,23,40,13,103,97,102,112,92
71,89,18,-78,25,53,3,98,105,118,136,114
82,108,26,-93,26,66,-6,93,111,134,160,136
96,125,30,-108,30,78,-16,94,116,147,182,157
109,143,34,-124,35,89,-27,97,123,161,204,179
121,161,40,-138,38,102,-37,95,130,176,228,201
127,176,50,-149,36,114,-49,83,134,188,247,220
120,184,65,-150,27,125,-58,56,130,189,254,231
96,185,90,-139,3,138,-63,16,118,182,248,232
59,178,121,-117,-32,149,-63,-28,99,167,231,222
20,162,144,-89,-64,152,-59,-65,77,146,204,203
-6,142,149,-66,-80,145,-56,-93,52,118,171,178
-17,116,135,-47,-79,126,-56,-109,25,83,129,144
-21,88,111,-31,-69,101,-56,-100,6,52,88,108
-19,67,89,-21,-56,80,-54,-75,0,35,61,82
-13,57,72,-20,-43,66,-48,-61,3,30,51,69
-10,51,63,-19,-36,58,-41,-44,7,30,46,60
-12,41,55,-13,-34,47,-33,-15,9,28,38,47
-14,29,44,-6,-30,35,-23,-8,10,23,27,33
-13,19,33,-1,-25,25,-16,-10,10,19,18,21
-12,10,22,3,-19,15,-13,1,9,14,10,11
-10,2,13,6,-14,8,-11,6,7,9,5,5
-9,-2,7,7,-10,4,-7,1,5,3,1,3
-8,-4,5,8,-8,2,-3,0,4,0,0,1
-7,-5,3,8,-6,0,0,3,3,-3,-1,1
-5,-5,1,7,-4,-2,0,5,1,-4,-1,1
-4,-5,0,7,-3,-3,0,5,0,-4,-3,0
-5,-6,-1,8,-3,-4,1,5,0,-3,-3,-1
-5,-8,-2,9,-4,-5,1,8,0,-3,-4,-3
-7,-11,-2,11,-4,-6,1,13,0,-3,-6,-4
-9,-13,-3,13,-4,-7,1,20,0,-3,-6,-4
-8,-16,-6,14,-2,-10,0,21,-1,-6,-8,-6
-7,-17,-8,14,-1,-12,0,17,-3,-8,-11,-8
-7,-16,-8,13,0,-12,1,19,-3,-8,-10,-8
-5,-14,-9,11,1,-12,3,21,-3,-7,-10,-8
-2,-11,-10,9,2,-12,3,20,-3,-6,-9,-8
-2,-11,-9,9,1,-11,2,20,-3,-6,-8,-7
-3,-13,-8,10,0,-11,2,18,-3,-6,-8,-6
-3,-13,-9,10,0,-11,2,13,-3,-8,-8,-6
-3,-15,-10,11,1,-11,3,28,-3,-9,-8,-6
-4,-16,-11,12,2,-13,3,74,-4,-11,-9,-7
-5,-17,-11,13,2,-13,2,105,-4,-11,-9,-7
-3,-15,-11,11,3,-13,2,94,-3,-10,-8,-6
-2,-13,-11,10,3,-13,2,78,-3,-9,-8,-6
-3,-14,-10,11,2,-13,2,75,-3,-10,-9,-7
-2,-15,-10,11,2,-13,3,82,-4,-11,-9,-7
-1,-13,-10,9,3,-11,3,87,-3,-11,-9,-8
-1,-13,-10,8,3,-11,3,81,-3,-11,-9,-8
-2,-15,-10,10,3,-12,3,73,-3,-11,-10,-8
-4,-17,-11,11,3,-13,3,67,-4,-11,-12,-9
-5,-17,-11,12,2,-14,3,64,-4,-12,-13,-9
-5,-16,-11,12,2,-14,3,61,-5,-12,-13,-9
-2,-14,-11,10,3,-14,3,61,-6,-12,-13,-9
0,-13,-12,9,4,-13,3,60,-5,-12,-13,-9
0,-13,-11,9,3,-12,3,52,-4,-9,-13,-10
1,-12,-11,8,4,-11,3,40,-3,-8,-13,-10
2,-12,-12,7,6,-11,3,34,-3,-8,-13,-10
1,-13,-12,7,6,-12,2,32,-4,-10,-13,-10
0,-14,-12,8,5,-12,2,31,-4,-11,-13,-10
0,-14,-13,8,6,-13,3,31,-4,-11,-12,-10
0,-14,-14,8,6,-14,3,32,-5,-10,-12,-10
-2,-14,-11,10,3,-13,4,31,-4,-9,-10,-9
-4,-15,-9,11,1,-12,5,29,-3,-7,-8,-7
-3,-15,-9,10,1,-13,5,30,-2,-6,-7,-6
-1,-14,-10,9,3,-13,5,31,-2,-7,-7,-6
-3,-15,-9,10,2,-12,5,32,-2,-8,-7,-5
-3,-15,-10,10,2,-12,5,34,-2,-9,-8,-6
-2,-14,-11,9,4,-13,4,33,-4,-10,-10,-7
-1,-14,-12,10,5,-14,3,31,-5,-10,-11,-9
-1,-16,-13,10,5,-15,2,30,-5,-10,-12,-11
-2,-16,-13,11,4,-15,1,30,-5,-9,-13,-12
-3,-16,-11,11,2,-14,2,30,-4,-8,-12,-11
-4,-17,-10,12,1,-14,4,31,-4,-8,-11,-9
-4,-19,-12,13,2,-15,3,31,-5,-11,-11,-9
-7,-20,-10,14,1,-16,2,31,-6,-12,-12,-9
-10,-21,-9,17,-1,-15,2,31,-5,-12,-11,-8
-8,-20,-9,15,0,-15,2,31,-5,-12,-11,-8
-3,-16,-10,11,2,-14,2,32,-5,-12,-12,-8
0,-13,-11,8,4,-13,3,34,-5,-12,-12,-8
3,-12,-12,6,6,-13,3,34,-4,-12,-12,-8
3,-12,-12,6,6,-13,3,34,-4,-12,-12,-8
3,-12,-12,6,6,-12,4,33,-5,-12,-11,-8
4,-11,-12,5,7,-12,4,31,-6,-11,-11,-9
5,-9,-13,3,9,-12,4,28,-6,-11,-12,-10
3,-9,-12,4,7,-12,5,25,-3,-8,-11,-10
0,-11,-10,7,5,-12,5,20,-2,-7,-11,-10
0,-12,-10,7,5,-12,4,15,-3,-9,-11,-11
0,-13,-10,8,4,-12,4,13,-4,-10,-11,-11
-1,-14,-10,9,3,-12,4,14,-5,-11,-11,-10
1,-14,-12,8,5,-13,2,14,-6,-13,-13,-12
0,-14,-11,8,5,-13,1,17,-6,-13,-14,-12
-5,-16,-8,12,1,-13,3,19,-4,-11,-12,-10
-7,-18,-10,13,1,-14,3,16,-4,-11,-13,-10
-5,-17,-11,13,2,-15,2,16,-5,-12,-14,-11
-2,-15,-11,10,3,-14,2,32,-5,-12,-13,-10
3,-13,-13,6,7,-14,3,55,-5,-12,-12,-10
4,-11,-12,5,7,-12,3,64,-5,-11,-11,-9
1,-12,-10,7,4,-12,4,56,-4,-8,-9,-7
1,-12,-10,7,5,-12,4,40,-3,-7,-9,-7
1,-11,-10,6,6,-12,3,30,-2,-6,-8,-7
2,-10,-10,5,6,-12,3,32,-1,-6,-8,-6
2,-11,-12,6,6,-12,4,33,-2,-8,-9,-7
2,-12,-12,6,6,-13,4,37,-4,-10,-9,-7
0,-13,-11,8,4,-13,4,47,-3,-10,-9,-7
-3,-14,-9,10,2,-13,4,59,-3,-9,-9,-7
-3,-16,-9,11,2,-13,3,66,-4,-9,-9,-8
-2,-14,-10,10,4,-13,3,62,-5,-8,-10,-9
1,-12,-10,6,6,-12,3,71,-3,-7,-9,-9
2,-10,-10,5,6,-11,3,81,-1,-6,-8,-8
0,-10,-8,6,4,-11,4,65,0,-6,-8,-7
-1,-11,-8,8,3,-11,4,63,-2,-9,-9,-8
2,-11,-10,5,6,-12,3,83,-4,-12,-11,-9
3,-11,-13,5,7,-13,2,88,-5,-12,-12,-9
0,-15,-12,8,5,-14,2,92,-7,-13,-13,-10
-2,-17,-11,11,4,-15,1,98,-7,-13,-13,-10
-4,-18,-11,12,3,-15,1,91,-7,-12,-14,-11
-1,-15,-11,9,5,-14,2,87,-5,-12,-13,-10
4,-7,-9,2,6,-10,5,91,-1,-10,-9,-6
9,-1,-9,-3,8,-7,6,89,-1,-7,-6,-4
10,-2,-10,-3,9,-7,4,78,-2,-6,-6,-4
8,-2,-8,-1,7,-6,4,69,0,-4,-5,-3
9,0,-7,-3,7,-5,4,65,1,-3,-5,-2
11,0,-7,-4,9,-4,4,64,2,-3,-5,-3
9,0,-7,-3,8,-4,4,64,2,-3,-5,-3
7,-1,-6,-2,7,-4,4,64,0,-5,-6,-4
6,-2,-6,-1,6,-4,5,62,0,-4,-7,-5
5,-2,-6,-1,6,-5,5,61,1,-3,-7,-5
7,-1,-6,-1,6,-4,4,61,2,-2,-6,-5
7,-1,-6,-1,5,-4,4,59,3,-1,-5,-5
10,0,-6,-3,7,-4,5,57,2,-3,-5,-4
12,0,-8,-5,10,-4,7,56,2,-4,-4,-2
11,0,-8,-5,10,-5,8,56,3,-4,-2,0
11,0,-8,-5,10,-5,9,57,5,-3,0,1
11,0,-8,-5,9,-5,10,58,6,-1,1,1
12,1,-9,-6,10,-5,10,60,5,-1,0,0
15,3,-10,-7,12,-5,9,60,5,0,-1,0
14,2,-10,-7,11,-5,9,59,5,0,-1,0
13,0,-10,-5,11,-5,9,58,4,1,-1,-1
14,0,-10,-5,12,-5,9,57,4,1,0,0
17,2,-10,-7,13,-4,10,58,6,2,1,1
17,3,-9,-8,13,-3,12,59,8,3,2,3
17,3,-9,-8,13,-4,12,61,9,2,2,4
17,3,-11,-8,13,-5,11,61,8,0,2,5
15,1,-11,-6,11,-6,11,62,7,0,2,5
13,0,-11,-5,11,-6,11,62,7,0,2,4
13,0,-11,-5,11,-6,11,61,7,1,2,4
13,0,-11,-5,12,-6,11,61,8,3,3,4
15,0,-11,-6,13,-6,11,61,8,3,3,4
14,0,-11,-6,12,-7,11,60,8,3,4,4
12,-1,-9,-4,11,-7,12,58,7,2,4,4
12,-3,-11,-3,11,-8,12,57,5,0,2,3
11,-3,-12,-2,11,-9,11,57,4,-1,1,3
8,-5,-11,0,9,-9,10,58,5,-2,0,3
9,-6,-12,0,10,-9,8,58,4,-5,0,2
11,-4,-13,-2,12,-9,7,58,2,-5,-2,0
11,-2,-11,-3,11,-7,8,57,2,-4,-1,0
10,-1,-8,-3,8,-5,9,57,3,-1,0,0
10,-2,-9,-3,9,-6,8,54,2,-1,-2,-1
12,-2,-10,-3,10,-7,7,51,1,-2,-2,-2
9,-2,-9,-2,8,-6,7,50,1,-3,-2,-1
3,-6,-7,2,4,-7,6,47,0,-6,-3,-1
-1,-10,-6,6,2,-8,4,45,-3,-9,-5,-1
-1,-10,-7,7,2,-9,3,43,-3,-9,-5,-1
3,-7,-7,3,5,-8,3,44,-2,-7,-3,1
8,-3,-7,-1,7,-6,3,44,-1,-4,-1,3
8,-1,-6,-2,6,-5,3,44,0,-2,0,3
9,-1,-6,-2,7,-5,2,43,0,-1,0,3
10,-1,-8,-3,7,-5,1,42,0,-1,0,3
7,-2,-7,-1,6,-5,1,42,-1,-1,-1,2
3,-4,-6,2,4,-5,0,41,-2,-4,-2,0
1,-7,-6,4,3,-6,0,40,-3,-6,-4,0
0,-9,-6,6,3,-9,0,39,-5,-9,-5,-2
1,-9,-7,5,4,-9,0,39,-5,-10,-5,-1
5,-7,-7,1,5,-7,1,41,-4,-8,-3,1
7,-5,-7,0,6,-6,1,41,-3,-4,0,3
6,-5,-7,0,5,-6,0,41,-2,-2,1,3
6,-4,-7,0,5,-6,0,41,0,0,3,3
6,-3,-6,0,5,-5,0,41,0,0,4,3
7,0,-6,-2,5,-3,0,43,0,0,5,5
7,0,-6,-3,6,-3,0,43,1,0,5,6
7,-1,-6,-2,6,-4,0,42,1,-1,5,6
6,-3,-6,0,5,-4,-1,41,0,-3,3,5
6,-3,-5,0,4,-4,-1,40,-2,-3,1,3
5,-3,-5,0,4,-4,0,38,-1,-1,2,3
5,-3,-5,0,4,-4,0,39,0,1,4,3
4,-3,-4,0,3,-3,0,40,1,2,4,4
3,-3,-4,0,3,-3,1,40,2,1,5,5
4,-3,-5,0,4,-4,1,40,2,-1,4,5
3,-4,-5,1,4,-5,0,40,0,-3,4,5
0,-8,-4,5,1,-6,-1,38,0,-1,4,5
-2,-11,-4,7,0,-8,-3,37,0,0,4,5
0,-11,-6,6,2,-8,-3,38,1,1,5,5
4,-7,-8,2,5,-8,-1,39,2,2,6,6
7,-5,-9,0,7,-7,0,40,2,2,6,6
7,-4,-8,0,7,-6,1,40,3,4,6,7
8,-2,-8,-1,7,-6,1,40,5,6,7,7
8,-1,-8,-2,7,-6,1,40,5,7,6,6
7,-3,-7,-1,6,-5,1,40,5,5,5,5
4,-4,-5,1,4,-5,1,41,5,3,4,5
1,-4,-3,3,1,-3,2,41,6,4,4,5
1,-4,-2,2,1,-2,2,42,6,6,4,5
1,-4,-2,2,1,-3,1,40,5,7,3,4
1,-4,-3,2,2,-4,0,39,5,7,2,2
0,-5,-2,3,1,-4,0,39,5,7,2,1
-1,-5,-2,4,0,-4,0,40,6,6,2,1
0,-6,-3,3,1,-5,0,40,6,4,3,1
2,-6,-5,3,2,-5,0,41,6,1,3,2
3,-6,-6,2,3,-6,0,42,5,0,2,3
3,-6,-6,2,4,-6,1,41,5,0,2,3
1,-7,-5,3,2,-6,3,42,6,1,3,3
1,-5,-3,2,2,-4,4,43,7,2,3,3
4,-2,-3,0,3,-3,5,44,7,4,4,3
3,-2,-3,0,2,-3,4,43,7,7,4,2
3,-2,-3,0,2,-3,4,43,9,9,5,3
5,0,-3,-1,3,-2,4,43,10,11,7,3
5,-1,-3,-1,3,-2,3,43,11,11,6,3
3,-3,-3,1,2,-2,3,43,9,7,5,2
3,-4,-3,1,2,-3,3,43,8,4,3,1
3,-3,-3,0,3,-3,3,43,7,4,2,0
2,-3,-2,1,1,-3,4,43,8,6,2,0
1,-3,-2,1,1,-3,4,44,8,7,2,0
2,-4,-4,1,2,-4,3,44,7,6,1,0
2,-5,-4,2,2,-4,2,42,6,5,1,0
0,-6,-3,3,1,-4,2,42,6,5,2,0
0,-7,-3,5,1,-4,1,42,8,6,2,1
0,-8,-4,5,1,-5,2,43,9,8,2,0
-1,-9,-4,5,1,-6,2,43,8,8,0,-1
-4,-12,-5,7,0,-8,2,41,6,6,0,-1
-5,-14,-6,9,0,-10,0,40,6,5,0,-2
-4,-13,-7,8,1,-10,-1,40,7,7,1,-1
0,-9,-6,5,2,-7,0,42,9,9,2,0
4,-2,-4,0,3,-3,4,43,9,9,4,1
6,0,-4,-2,4,-1,6,44,9,8,5,2
6,0,-3,-2,4,-1,6,44,11,11,6,2
5,0,-2,-2,3,-1,5,45,14,15,7,2
4,-1,-3,-1,4,-2,5,47,14,14,8,2
7,-1,-6,-2,6,-4,5,48,13,10,7,2
7,-2,-7,-2,6,-5,6,49,12,7,4,1
4,-4,-7,0,5,-5,7,51,12,5,2,0
3,-7,-8,2,5,-7,8,54,13,7,1,-2
3,-9,-10,3,5,-9,9,56,17,12,1,-2
3,-10,-10,4,5,-10,11,63,22,17,3,-2
4,-9,-10,3,6,-9,13,69,28,22,7,0
5,-8,-10,1,7,-9,15,76,35,27,13,4
10,-7,-16,-1,13,-11,16,85,41,32,20,6
16,-6,-20,-4,18,-13,17,93,47,37,26,9
18,-3,-20,-7,19,-11,20,104,55,46,35,15
22,2,-18,-11,20,-7,23,117,66,58,50,25
29,10,-17,-18,22,-3,23,127,78,74,67,38
36,21,-12,-28,23,4,22,135,91,93,87,54
44,39,-3,-41,22,17,21,138,107,111,109,73
53,57,6,-54,22,31,19,142,120,127,132,95
63,74,13,-67,24,43,15,149,126,138,151,115
69,89,21,-78,24,55,9,151,128,146,168,134
75,102,29,-88,23,66,1,145,129,157,187,153
85,118,35,-101,25,77,-8,139,131,170,206,173
97,134,38,-114,28,86,-16,129,135,180,224,191
106,145,41,-124,31,93,-21,116,135,183,232,202
108,154,49,-130,27,101,-23,99,130,177,230,208
97,162,68,-129,13,115,-22,75,120,165,220,210
74,168,97,-121,-12,132,-21,40,103,150,204,207
40,167,130,-103,-44,148,-21,-1,81,134,186,200
5,158,155,-81,-74,156,-19,-39,59,119,165,187
-16,142,160,-61,-88,151,-18,-66,40,102,139,164
-26,118,146,-44,-87,132,-17,-83,25,81,110,134
-29,90,122,-28,-77,105,-17,-85,13,58,79,103
-28,64,96,-16,-64,80,-19,-81,4,39,53,75
-28,48,80,-9,-55,64,-22,-81,0,29,37,55
-30,37,71,-3,-51,54,-24,-71,1,28,31,45
-26,33,62,-3,-44,47,-25,-52,7,32,28,36
-20,29,52,-4,-36,40,-22,-41,16,38,26,27
-16,23,42,-3,-29,32,-15,-34,22,41,22,19
-12,19,32,-2,-22,25,-12,-27,23,39,16,11
-10,14,24,-1,-18,19,-10,-19,21,33,11,5
-8,7,17,1,-14,12,-7,-13,17,25,6,2
-4,2,9,1,-9,6,-5,-10,12,16,2,0
-3,0,6,1,-6,2,-3,-6,9,10,1,0
-3,-3,3,3,-4,0,-1,-1,4,3,0,0
-2,-5,0,4,-1,-2,-2,-1,1,0,-3,-2
-4,-8,-1,6,0,-4,-2,-2,0,0,-4,-4
-2,-10,-5,7,2,-7,-3,-2,-1,-2,-7,-5
0,-8,-7,6,3,-7,-3,-2,-3,-4,-8,-7
-2,-9,-5,7,0,-7,-2,1,-2,-3,-8,-7
-2,-10,-6,7,0,-9,-1,5,-2,-5,-9,-8
-1,-10,-7,6,1,-10,-2,6,-4,-7,-13,-11
0,-11,-7,6,3,-10,-2,4,-4,-7,-14,-12
0,-11,-9,6,5,-10,-3,1,-3,-4,-13,-12
0,-12,-9,7,5,-11,-3,0,-3,-1,-12,-11
-1,-13,-10,8,5,-11,-4,0,-5,-3,-12,-11
0,-13,-12,8,6,-13,-4,0,-6,-5,-12,-11
4,-13,-15,6,8,-15,-4,-1,-7,-8,-13,-11
4,-14,-15,6,8,-15,-3,-1,-7,-9,-13,-11
2,-15,-13,7,6,-15,-3,0,-6,-9,-12,-10
2,-15,-13,6,7,-15,-3,0,-6,-10,-11,-10
2,-15,-15,6,9,-15,-3,0,-8,-11,-11,-9
2,-15,-15,6,9,-15,-2,1,-9,-11,-11,-9
3,-15,-15,6,9,-15,-2,3,-7,-11,-12,-10
3,-16,-17,7,10,-15,-2,7,-7,-12,-13,-11
3,-16,-18,8,9,-17,-3,9,-8,-13,-14,-11
2,-17,-18,8,8,-18,-3,7,-9,-14,-15,-12
0,-19,-18,10,8,-19,-3,5,-10,-12,-16,-13
-2,-22,-18,12,7,-21,-4,3,-10,-12,-17,-14
-4,-24,-18,15,6,-22,-4,2,-11,-13,-19,-15
-3,-22,-17,13,7,-20,-4,2,-10,-14,-18,-15
1,-18,-17,8,9,-18,-4,5,-7,-12,-16,-13
3,-15,-17,7,9,-16,-3,6,-7,-11,-15,-12
1,-17,-17,9,8,-17,-3,6,-9,-12,-15,-14
0,-19,-16,11,6,-18,-5,4,-10,-11,-16,-15
-1,-20,-16,11,6,-18,-5,4,-9,-9,-15,-14
1,-18,-16,8,8,-18,-4,4,-7,-7,-14,-13
6,-14,-16,4,11,-16,-3,6,-6,-9,-14,-12
7,-11,-16,2,12,-14,-1,8,-5,-11,-15,-12
7,-12,-16,2,12,-14,-1,8,-7,-13,-16,-12
6,-13,-18,4,12,-16,-3,8,-9,-13,-17,-12
6,-14,-19,5,11,-17,-4,7,-9,-9,-16,-11
5,-15,-18,5,10,-17,-3,7,-7,-6,-14,-10
4,-15,-18,6,10,-17,-2,7,-6,-6,-14,-12
4,-16,-18,6,10,-17,-2,7,-7,-8,-14,-13
4,-15,-17,6,10,-17,-2,7,-6,-10,-13,-13
1,-16,-16,7,8,-17,-2,7,-6,-10,-13,-13
1,-17,-16,7,9,-17,-3,6,-8,-11,-13,-14
4,-16,-18,6,11,-17,-3,5,-9,-11,-13,-13
2,-17,-17,7,9,-17,-2,7,-7,-10,-12,-11
0,-19,-17,9,8,-18,-2,9,-6,-11,-11,-8
2,-18,-18,8,9,-18,-2,9,-8,-13,-11,-8
4,-17,-19,6,11,-18,-2,9,-8,-13,-12,-9
5,-17,-19,6,11,-18,-4,7,-8,-11,-13,-10
3,-17,-18,7,11,-18,-3,7,-8,-9,-13,-10
2,-16,-16,7,9,-17,-3,7,-7,-7,-13,-10
2,-16,-16,7,9,-17,-3,7,-5,-4,-13,-11
3,-15,-17,6,9,-17,-2,8,-5,-4,-14,-12
3,-15,-17,6,9,-17,-2,8,-6,-5,-14,-13
4,-14,-16,5,9,-16,-2,8,-6,-7,-14,-13
7,-13,-17,3,11,-16,-4,8,-7,-10,-14,-13
7,-13,-19,3,12,-17,-5,8,-8,-13,-14,-12
5,-16,-19,5,11,-18,-4,8,-9,-15,-14,-12
1,-18,-16,8,8,-18,-3,8,-7,-13,-14,-12
-2,-19,-15,10,6,-18,-3,8,-6,-11,-14,-12
0,-18,-17,9,8,-18,-3,8,-7,-10,-13,-11
6,-14,-18,4,11,-17,-3,8,-7,-10,-12,-10
8,-12,-18,2,13,-16,-3,9,-6,-8,-10,-8
6,-15,-18,5,11,-16,-2,9,-4,-5,-9,-8
2,-18,-18,8,9,-19,-3,9,-4,-4,-10,-10
0,-22,-19,10,9,-21,-4,8,-5,-5,-12,-13
0,-22,-20,10,9,-22,-5,8,-6,-8,-14,-14
-1,-22,-18,11,8,-21,-6,7,-8,-11,-14,-14
-2,-21,-18,11,7,-20,-6,8,-8,-11,-14,-13
2,-18,-19,8,10,-20,-5,8,-7,-10,-14,-12
5,-15,-19,5,11,-18,-4,8,-7,-9,-14,-12
5,-13,-17,4,10,-16,-3,10,-6,-8,-13,-12
5,-13,-16,4,9,-15,-2,10,-5,-6,-13,-12
5,-13,-16,4,10,-16,-2,10,-5,-4,-13,-12
4,-13,-15,4,9,-15,-1,12,-4,-3,-13,-11
3,-12,-14,4,9,-14,-1,12,-3,-6,-13,-11
3,-13,-15,4,9,-15,-2,13,-4,-10,-13,-11
4,-13,-15,4,10,-15,-2,13,-5,-13,-13,-11
4,-14,-16,4,10,-17,-2,12,-6,-12,-11,-9
4,-15,-17,5,10,-17,-1,12,-4,-8,-9,-9
5,-15,-18,5,10,-18,-1,12,-3,-6,-9,-9
5,-15,-18,5,10,-18,-1,13,-3,-5,-9,-9
4,-17,-19,6,10,-18,-2,13,-4,-7,-9,-9
3,-18,-19,7,10,-20,-4,13,-4,-8,-11,-10
3,-18,-19,8,10,-20,-4,13,-3,-7,-11,-11
3,-18,-19,7,11,-20,-2,13,-3,-6,-11,-11
5,-15,-18,5,11,-19,-1,13,-3,-4,-10,-9
3,-16,-18,6,10,-18,-1,13,-2,-3,-10,-9
2,-17,-18,7,9,-18,-1,14,-2,-4,-10,-11
5,-15,-19,5,11,-18,0,16,-2,-8,-10,-11
7,-13,-18,3,12,-16,1,18,-2,-9,-10,-9
7,-12,-16,2,12,-15,1,17,-2,-8,-8,-8
7,-12,-16,2,12,-15,1,16,-1,-4,-7,-8
4,-13,-15,3,10,-14,0,16,2,1,-5,-7
2,-13,-13,5,8,-14,0,17,3,1,-6,-7
3,-13,-15,5,9,-16,0,17,0,-2,-9,-9
4,-13,-16,4,9,-16,0,16,-1,-5,-12,-10
4,-13,-16,4,9,-16,-1,16,-1,-5,-12,-10
4,-14,-16,4,9,-16,-1,17,-1,-6,-11,-9
2,-14,-14,5,8,-16,0,17,0,-5,-8,-7
2,-14,-14,5,8,-16,0,17,0,-4,-7,-7
3,-14,-15,5,9,-16,0,17,0,-2,-7,-8
4,-14,-15,5,9,-16,-1,17,0,-2,-8,-10
4,-14,-15,4,9,-16,-2,17,0,-2,-9,-12
3,-13,-14,5,8,-15,-2,18,0,-3,-9,-11
2,-13,-13,5,6,-15,0,19,1,-4,-8,-9
1,-13,-12,5,6,-14,0,20,1,-6,-8,-8
1,-12,-12,4,6,-13,1,20,1,-6,-8,-6
2,-11,-11,4,7,-13,1,19,1,-5,-7,-6
3,-11,-12,3,8,-13,0,17,0,-3,-7,-7
2,-11,-11,4,7,-13,0,16,0,0,-7,-9
1,-11,-10,5,5,-12,0,16,0,0,-7,-10
1,-11,-10,5,5,-12,0,16,0,0,-7,-8
1,-11,-10,4,5,-12,0,17,1,0,-6,-5
0,-12,-10,4,4,-12,0,17,2,0,-4,-4
-1,-12,-10,5,4,-12,0,17,4,0,-4,-3
0,-12,-10,5,5,-12,0,18,3,-2,-4,-3
2,-11,-10,4,6,-12,0,19,2,-3,-5,-3
1,-10,-9,4,5,-11,1,19,2,-1,-4,-3
-1,-10,-6,5,3,-10,1,19,4,1,-2,-3
-1,-10,-6,5,2,-10,1,20,5,3,-1,-2
-1,-10,-6,5,2,-10,1,21,5,2,-1,-1
0,-8,-6,2,3,-9,1,21,5,1,0,0
3,-6,-8,1,5,-9,0,20,5,2,0,0
4,-6,-9,0,7,-9,0,20,6,5,0,0
5,-4,-7,-1,7,-7,1,21,8,8,1,0
4,-3,-6,0,6,-6,1,21,8,8,1,0
2,-4,-5,0,4,-6,1,21,6,6,2,0
1,-4,-4,1,2,-6,1,21,7,5,2,0
0,-5,-3,2,1,-6,1,22,8,5,2,1
-2,-6,-3,2,0,-6,1,22,8,4,2,1
1,-6,-5,1,3,-7,0,21,7,4,1,1
5,-5,-8,-1,6,-7,0,21,9,8,2,1
4,-3,-5,-1,4,-5,3,22,11,10,6,3
2,-3,-3,0,3,-4,6,24,12,9,8,6
3,-3,-3,0,3,-4,5,25,12,8,8,6
2,-3,-4,0,3,-5,3,24,12,10,8,6
2,-4,-4,0,3,-5,2,23,11,11,8,6
2,-3,-4,-1,3,-5,2,23,11,12,7,4
1,-3,-3,0,1,-4,2,21,12,15,7,2
0,-4,-2,1,1,-4,2,21,14,15,7,2
1,-3,-3,0,2,-4,2,23,13,11,7,3
3,-3,-3,0,3,-4,3,24,11,7,8,6
3,-4,-4,0,3,-5,3,22,11,9,9,8
1,-5,-3,1,2,-5,3,21,12,12,10,10
0,-5,-2,1,1,-5,3,21,12,13,10,10
2,-2,-3,-1,1,-4,3,21,12,14,10,10
6,2,-3,-5,4,-2,4,21,15,17,12,10
10,4,-4,-7,6,-1,4,22,17,18,12,10
10,2,-6,-7,8,-3,3,22,16,16,11,9
8,0,-6,-5,7,-3,3,22,14,14,10,7
4,0,-2,-3,3,-1,4,22,15,17,11,7
2,0,0,-2,1,-1,5,23,15,18,11,7
4,0,-2,-3,3,-2,5,23,14,14,9,5
5,1,-2,-4,3,-2,4,23,13,13,8,4
3,1,-1,-4,2,-1,4,22,14,15,8,6
3,1,0,-4,2,-1,4,21,16,17,9,7
3,0,-1,-3,2,-2,3,21,16,16,9,7
2,-3,-2,-1,2,-3,3,21,14,14,9,8
2,-4,-3,0,3,-5,2,20,14,13,9,7
4,-4,-5,-1,4,-5,1,20,13,12,8,6
5,-4,-6,-2,6,-6,1,20,12,10,8,7
5,-4,-7,-1,5,-7,1,20,12,11,9,8
4,-5,-7,-1,5,-7,3,19,12,13,11,9
4,-5,-7,-1,5,-7,3,19,12,14,11,9
2,-5,-6,1,3,-7,3,19,13,13,10,8
1,-6,-6,1,3,-7,3,19,12,12,8,7
3,-4,-6,-1,5,-6,3,19,12,13,8,6
3,-2,-4,-2,3,-4,4,20,13,17,10,6
4,-2,-3,-2,3,-3,4,20,15,17,11,7
5,-2,-5,-2,5,-5,3,20,14,14,10,7
6,-2,-6,-2,6,-5,3,20,14,14,10,7
7,-2,-7,-3,7,-5,3,20,14,14,10,6
9,0,-8,-5,8,-5,4,20,13,13,9,6
10,0,-8,-6,9,-5,4,20,13,13,9,6
6,-2,-7,-3,7,-6,3,19,13,13,9,6
3,-4,-6,-1,4,-6,3,19,13,13,9,5
2,-5,-5,0,3,-6,3,19,13,13,8,5
2,-5,-5,0,3,-6,3,19,13,12,7,5
5,-4,-6,-2,5,-6,3,18,10,11,7,5
6,-3,-7,-2,6,-6,1,17,10,11,7,5
4,-4,-7,-1,5,-6,-1,17,11,12,7,5
3,-5,-7,0,5,-6,-1,17,10,11,7,6
3,-6,-8,0,6,-7,-1,17,10,11,8,6
4,-5,-8,-1,6,-7,0,16,11,14,8,6
5,-5,-8,-1,6,-7,1,16,12,17,7,4
4,-6,-8,-1,6,-7,1,16,11,15,6,3
4,-6,-8,0,6,-7,1,16,9,11,5,3
6,-4,-9,-2,8,-7,1,16,9,9,5,3
9,-3,-11,-4,10,-7,1,17,9,7,5,4
7,-3,-9,-3,8,-7,2,18,9,7,6,4
4,-3,-6,-1,5,-6,2,18,9,8,6,5
4,-3,-6,-1,5,-6,3,18,9,9,7,6
4,-5,-8,-1,6,-8,3,17,9,9,7,7
4,-7,-10,0,6,-9,1,15,8,9,6,5
4,-8,-10,0,6,-10,1,14,9,11,5,3
4,-7,-9,0,6,-9,1,14,10,14,6,2
5,-6,-9,0,6,-8,1,14,10,15,4,1
3,-6,-7,0,5,-7,1,15,9,12,2,0
2,-6,-6,1,4,-7,2,15,8,10,2,0
3,-4,-6,0,5,-7,2,16,9,10,4,1
6,-1,-6,-4,7,-5,2,16,10,10,5,3
7,-1,-6,-4,7,-5,2,16,9,9,7,5
6,-4,-8,-3,7,-6,2,16,8,7,8,6
6,-5,-10,-2,8,-8,1,14,7,6,7,5
4,-7,-9,0,7,-8,0,13,6,6,5,4
1,-8,-7,2,4,-8,1,13,6,7,4,4
-1,-9,-7,3,2,-8,1,13,6,7,3,3
0,-8,-7,2,3,-8,0,12,6,8,2,1
3,-4,-6,-1,4,-6,0,13,6,8,3,2
5,-2,-7,-3,6,-6,0,13,6,7,4,3
5,-5,-8,-2,6,-7,-1,12,5,5,4,4
5,-5,-8,-2,6,-7,0,12,4,5,5,5
4,-4,-7,-2,6,-6,0,12,5,8,5,5
4,-4,-7,-2,6,-6,0,11,5,9,4,5
4,-4,-8,-2,6,-7,0,11,5,9,3,3
4,-4,-8,-2,7,-6,0,11,6,10,3,3
5,-3,-7,-3,6,-6,0,12,7,10,3,3
5,-3,-7,-3,6,-6,0,13,7,8,3,3
5,-5,-7,-2,6,-6,0,12,5,6,3,2
5,-5,-8,-2,6,-7,0,11,4,4,1,1
5,-7,-9,0,7,-8,0,10,3,3,0,0
3,-8,-9,1,6,-9,0,10,2,3,0,0
2,-8,-9,2,5,-9,0,10,2,4,1,0
1,-9,-10,2,5,-10,0,9,2,3,1,0
1,-10,-10,2,5,-11,0,10,2,2,1,0
3,-8,-10,1,6,-11,0,10,2,2,0,-1
3,-8,-10,0,7,-10,0,9,2,3,0,-1
3,-8,-9,1,6,-10,0,9,2,5,1,0
4,-7,-9,0,6,-9,0,10,3,6,2,1
5,-4,-8,-2,6,-7,0,11,5,6,2,2
7,-2,-8,-4,7,-6,1,12,5,6,2,2
8,-1,-9,-5,8,-6,0,12,5,6,2,2
6,-2,-9,-4,7,-5,0,11,5,6,3,3
6,-3,-8,-3,7,-6,0,11,5,7,4,4
6,-4,-8,-3,7,-6,0,11,4,7,4,4
4,-4,-7,-1,6,-6,0,10,3,6,4,3
3,-6,-7,0,5,-7,0,9,3,5,3,1
3,-6,-9,0,6,-8,0,9,3,5,2,1
4,-6,-10,0,7,-8,0,9,2,4,2,1
5,-7,-10,0,7,-9,-2,9,2,3,2,1
4,-8,-12,0,7,-11,-3,7,1,3,1,1
3,-9,-10,1,6,-10,-3,7,0,2,0,0
1,-9,-8,2,5,-10,-1,8,1,2,0,0
3,-9,-10,1,6,-10,-1,8,1,2,0,0
4,-8,-11,0,8,-11,-1,7,1,3,-1,-2
3,-8,-10,0,7,-10,0,8,2,3,-1,-2
2,-6,-9,0,6,-8,1,9,2,3,0,0
5,-5,-10,-1,7,-8,0,9,1,1,0,-1
6,-5,-10,-2,8,-8,-2,8,0,1,0,-1
4,-6,-9,-1,6,-8,-3,7,1,3,0,0
3,-7,-9,0,6,-9,-3,7,1,3,1,0
2,-7,-9,0,6,-9,-3,7,0,3,1,0
3,-6,-9,0,6,-8,-1,7,0,3,1,0
5,-5,-10,-2,8,-8,0,8,1,2,1,0
6,-5,-10,-2,8,-8,0,9,2,2,1,1
3,-8,-10,1,6,-9,0,8,1,2,1,0
1,-10,-9,3,5,-10,0,8,0,2,0,0
1,-10,-10,3,6,-10,-1,7,0,2,0,0
4,-8,-10,0,7,-9,0,8,1,3,1,0
6,-5,-10,-3,8,-8,0,9,3,5,3,2
6,-5,-10,-3,8,-8,-1,8,2,3,3,2
3,-8,-10,0,6,-10,-2,7,1,1,1,1
-1,-10,-9,3,4,-10,-1,7,0,1,2,1
-1,-12,-10,5,5,-10,-1,6,0,2,1,1
0,-11,-10,3,6,-10,-1,5,0,4,1,0
2,-7,-9,1,6,-8,-1,6,1,5,1,0
3,-5,-7,0,5,-7,0,7,1,5,1,0
3,-6,-8,0,5,-8,0,7,1,2,0,-1
1,-8,-9,1,5,-10,0,7,0,-1,-2,-2
0,-10,-10,3,5,-11,-1,7,-1,-2,-1,-2
2,-9,-11,1,7,-11,-1,7,0,-1,0,-1
6,-6,-12,-1,9,-9,-1,8,0,0,1,0
7,-6,-12,-2,9,-9,0,8,1,2,2,1
6,-7,-12,0,9,-10,0,8,0,2,2,1
3,-10,-12,2,7,-12,-1,6,-1,2,1,1
0,-13,-11,4,6,-13,-2,5,-1,2,0,0
2,-10,-11,2,6,-11,-2,6,0,2,0,0
6,-6,-11,-1,8,-9,-1,8,1,2,1,1
6,-4,-11,-3,8,-8,0,9,2,2,1,1
6,-5,-11,-3,9,-8,-1,8,0,0,-1,-1
5,-7,-11,-1,9,-9,-2,7,-1,0,-2,-3
4,-7,-10,0,8,-9,-1,7,0,3,-1,-3
5,-6,-10,-2,8,-8,0,7,2,6,0,-1
6,-6,-11,-2,9,-9,0,7,2,6,0,-1
4,-7,-11,0,8,-10,0,6,0,3,-1,-1
2,-8,-10,1,6,-10,-1,5,0,2,-1,-1
1,-9,-10,2,6,-11,-1,5,0,1,-1,-1
1,-10,-11,2,6,-12,-1,6,-1,0,-1,-1
3,-9,-11,1,7,-11,0,6,-1,-1,-1,0
5,-8,-11,0,8,-11,0,6,-1,-2,0,0
4,-9,-12,0,8,-11,0,6,-1,-2,0,0
3,-10,-12,2,8,-12,-1,6,-1,-2,0,0
2,-11,-11,3,7,-12,-1,6,-1,0,0,0
1,-10,-10,3,6,-11,-2,6,0,2,1,0
2,-9,-11,2,7,-11,-3,6,0,4,2,0
3,-8,-11,0,7,-11,-2,6,0,5,2,0
4,-7,-11,0,7,-9,-1,6,0,4,2,0
5,-7,-12,0,9,-10,-2,6,-1,1,1,-1
3,-9,-12,1,8,-12,-3,4,-1,0,0,-3
2,-12,-13,3,8,-13,-3,3,-1,0,-2,-4
2,-12,-13,3,8,-14,-3,4,-2,-2,-3,-4
2,-10,-11,2,7,-12,-1,5,-2,-2,-3,-3
4,-7,-11,0,8,-11,0,7,-1,0,-1,-1
6,-5,-12,-2,9,-10,1,7,-1,1,1,0
6,-5,-10,-2,8,-10,1,7,0,2,2,1
4,-6,-10,-1,7,-10,0,7,0,2,2,1
4,-6,-10,-1,8,-10,-1,7,0,2,1,0
5,-5,-10,-2,9,-9,-1,7,0,2,1,0
6,-5,-10,-2,9,-9,0,7,0,1,0,0
5,-6,-11,-1,9,-10,0,7,0,0,0,0
5,-7,-11,0,9,-10,0,7,-1,0,0,0
4,-8,-11,0,8,-11,0,6,-1,0,0,0
4,-9,-13,0,9,-12,-1,6,-2,0,-1,-2
4,-12,-14,1,9,-15,-2,5,-3,-1,-1,-3
3,-12,-14,1,9,-15,-2,5,-2,-1,0,-3
2,-10,-12,1,8,-13,-2,5,-1,0,0,-2
1,-9,-9,1,7,-10,-1,6,0,2,0,-2
3,-8,-10,0,8,-10,0,6,0,2,0,-1
5,-8,-11,0,9,-11,0,6,0,2,0,-1
5,-8,-11,0,9,-12,0,6,-1,1,-1,-1
5,-8,-12,0,9,-12,-1,6,-2,1,-2,-2
5,-8,-12,0,8,-12,-2,5,-2,1,-2,-2
3,-8,-11,0,7,-12,-2,5,-2,1,-2,-2
3,-8,-11,0,7,-12,-1,6,-2,0,-2,-2
5,-7,-12,-1,9,-12,-1,6,-1,0,-2,-2
5,-7,-12,-1,9,-11,-1,6,-1,0,-1,-2
5,-7,-12,-1,9,-10,0,7,0,0,1,-1
6,-6,-12,-1,10,-10,0,8,0,0,1,0
5,-7,-12,-1,9,-11,0,8,0,0,1,0
5,-8,-13,-1,10,-12,1,8,0,1,2,0
5,-6,-12,-2,10,-11,2,9,2,3,4,2
5,-5,-10,-2,9,-9,3,11,4,5,6,4
5,-4,-9,-2,9,-8,3,12,4,6,6,3
5,-4,-9,-2,9,-8,3,12,4,6,5,2
5,-5,-9,-1,8,-8,3,12,5,6,4,1
5,-6,-10,-1,8,-9,3,11,5,6,3,1
6,-6,-10,-1,9,-10,2,12,5,6,3,1
8,-4,-11,-3,10,-10,2,13,5,6,3,1
10,-1,-11,-6,11,-8,3,15,6,6,4,2
8,0,-8,-7,9,-6,5,16,7,7,6,4
7,-1,-8,-6,8,-6,7,17,7,7,6,4
9,-1,-10,-7,10,-7,6,17,7,7,6,5
10,-1,-10,-7,11,-7,5,17,7,7,7,5
8,-2,-9,-5,9,-6,5,17,8,7,8,5
7,-1,-8,-5,9,-6,5,18,8,8,8,5
11,1,-10,-8,11,-6,5,18,9,9,8,4
13,2,-10,-9,12,-6,5,18,9,10,7,4
10,1,-9,-8,11,-6,5,18,9,10,6,4
9,0,-8,-6,10,-6,4,18,8,10,6,3
9,-2,-10,-6,11,-7,4,18,8,10,6,3
9,-2,-10,-6,11,-7,4,18,8,9,6,3
9,-2,-10,-6,11,-7,4,19,8,8,6,3
11,-1,-12,-7,12,-8,2,19,8,6,6,3
15,1,-12,-9,15,-8,1,18,8,7,6,4
14,1,-11,-9,13,-7,1,17,8,8,6,5
9,-1,-9,-5,10,-7,0,15,6,7,6,5
5,-5,-9,-2,8,-9,-2,11,4,7,4,4
3,-7,-9,0,7,-9,-4,8,2,6,4,3
4,-4,-9,-2,8,-7,-4,8,2,6,5,3
9,0,-8,-7,10,-5,-4,8,2,5,6,5
10,1,-8,-8,11,-5,-5,8,2,5,7,5
11,1,-9,-8,12,-5,-5,7,2,5,7,5
13,2,-10,-10,13,-6,-5,6,2,5,6,5
14,1,-11,-9,13,-7,-6,6,1,3,5,5
14,-1,-14,-8,14,-9,-7,6,0,1,3,4
13,-2,-15,-7,14,-10,-7,6,0,0,2,3
12,-2,-14,-7,14,-9,-5,6,0,2,3,3
13,-3,-16,-7,15,-10,-4,5,0,2,3,2
12,-4,-16,-5,15,-11,-4,5,-1,1,3,1
9,-6,-13,-3,12,-11,-4,6,0,1,3,1
9,-6,-14,-3,12,-12,-3,7,1,2,5,3
12,-5,-16,-5,14,-13,-3,7,1,3,5,3
12,-4,-15,-5,13,-12,-3,7,1,4,5,4
10,-4,-14,-4,12,-11,-3,8,2,4,6,5
8,-7,-15,-2,12,-12,-3,6,0,3,4,4
6,-9,-15,0,11,-13,-4,5,-1,2,3,2
5,-9,-13,0,10,-11,-4,5,-1,3,2,2
7,-6,-12,-3,10,-10,-3,5,0,3,3,2
10,-3,-12,-5,12,-9,-4,5,0,4,4,2
12,-1,-12,-7,13,-9,-3,6,1,4,4,2
11,-3,-12,-5,11,-9,-2,7,1,2,4,3
9,-4,-12,-4,11,-10,-1,7,1,2,5,4
10,-3,-13,-5,12,-9,0,7,1,4,6,5
12,-2,-14,-7,15,-9,0,7,1,4,6,5
11,-4,-15,-5,15,-10,-1,6,0,4,4,3
7,-8,-15,-1,13,-13,-1,4,0,1,2,2
5,-11,-15,1,11,-15,-2,4,-3,-2,0,0
2,-13,-15,4,9,-16,-3,3,-5,-5,-3,-2
1,-14,-15,5,8,-16,-3,2,-5,-6,-4,-3
0,-15,-15,5,8,-16,-3,2,-6,-6,-5,-4
0,-16,-16,6,9,-16,-4,2,-6,-6,-5,-5
3,-14,-17,4,11,-16,-3,2,-6,-5,-5,-5
5,-13,-17,2,12,-16,-3,2,-6,-5,-5,-4
4,-13,-17,2,12,-16,-3,2,-5,-4,-4,-4
2,-13,-15,4,10,-16,-3,1,-5,-3,-4,-5
0,-14,-14,5,8,-16,-2,2,-5,-2,-4,-4
0,-13,-14,5,8,-15,-1,2,-4,-1,-3,-4
3,-12,-15,3,10,-15,-1,2,-4,-1,-3,-4
4,-12,-16,3,10,-16,-1,2,-4,-1,-3,-5
2,-13,-14,3,8,-15,-1,2,-3,0,-3,-5
3,-11,-12,2,8,-13,0,4,-2,-1,-2,-4
5,-9,-13,0,10,-12,0,4,-3,-2,-2,-4
4,-11,-13,1,10,-14,0,4,-4,-4,-3,-4
2,-12,-13,4,8,-15,0,4,-4,-5,-3,-4
2,-13,-14,4,8,-16,-1,4,-4,-5,-3,-4
2,-13,-15,3,9,-16,-1,4,-4,-5,-3,-4
2,-12,-15,3,9,-15,-1,4,-4,-4,-3,-4
2,-13,-15,3,9,-15,-1,4,-4,-4,-3,-5
0,-16,-15,6,9,-17,-2,3,-5,-4,-3,-6
-4,-19,-14,10,6,-18,-2,2,-6,-4,-5,-7
-9,-23,-13,14,4,-20,-3,0,-7,-6,-6,-9
-12,-26,-13,17,2,-21,-3,0,-8,-7,-8,-10
-9,-21,-13,13,3,-19,-1,2,-5,-6,-7,-9
0,-11,-11,4,7,-13,1,6,-2,-3,-3,-5
6,-6,-11,-1,9,-11,1,7,-1,-2,-2,-3
5,-8,-13,0,9,-13,-1,6,-3,-4,-3,-4
5,-10,-14,0,10,-14,-2,4,-3,-4,-3,-4
7,-10,-15,0,11,-15,-1,4,-4,-4,-3,-4
6,-10,-14,0,11,-14,1,5,-3,-3,-3,-4
3,-10,-12,1,9,-13,3,6,-2,-2,-3,-3
3,-10,-13,2,9,-14,2,6,-2,-1,-4,-5
3,-11,-15,2,10,-15,1,6,-3,-2,-5,-6
3,-11,-15,2,10,-16,1,6,-4,-3,-6,-7
4,-12,-15,2,10,-16,1,7,-4,-3,-6,-8
3,-13,-16,3,10,-17,3,9,-2,-2,-7,-8
3,-14,-18,3,11,-18,5,13,0,-2,-7,-8
4,-16,-20,3,13,-20,8,17,2,-3,-8,-10
2,-20,-22,6,14,-22,9,21,3,-4,-11,-13
1,-24,-25,9,14,-26,11,24,4,-4,-13,-16
1,-27,-29,11,17,-30,11,28,5,-5,-16,-20
5,-30,-36,11,21,-36,12,32,6,-5,-18,-23
7,-31,-38,10,23,-37,13,38,9,-2,-16,-21
9,-27,-36,7,22,-33,16,47,17,4,-7,-15
15,-18,-33,0,25,-27,17,57,28,17,6,-5
24,-5,-28,-11,27,-18,19,68,42,33,25,10
33,12,-20,-24,28,-5,20,80,58,53,48,28
41,31,-9,-38,26,9,21,89,74,74,71,49
46,50,3,-50,22,25,18,93,88,94,96,71
52,69,16,-62,19,40,12,90,98,113,123,94
58,87,28,-74,16,55,4,84,106,131,149,118
67,107,38,-88,15,70,-3,76,112,147,177,143
78,125,48,-103,15,84,-12,68,116,161,203,169
86,142,57,-115,15,98,-21,60,122,176,229,193
93,160,67,-129,14,112,-30,52,129,193,255,218
94,175,81,-137,8,127,-36,41,136,207,277,238
85,183,98,-136,-5,139,-40,23,136,211,284,249
63,184,121,-126,-27,150,-42,-6,126,202,274,246
28,177,148,-104,-59,160,-39,-41,107,181,247,229
-2,162,165,-81,-83,161,-35,-74,80,151,206,202
-21,142,164,-62,-92,150,-35,-100,50,114,162,170
-30,116,147,-44,-88,129,-36,-115,21,74,114,134
-32,85,118,-28,-75,100,-36,-117,0,40,69,97
-31,61,93,-17,-61,75,-35,-111,-10,22,41,69
-31,48,79,-11,-55,62,-34,-101,-8,20,31,55
-29,40,69,-8,-48,52,-32,-89,-4,21,28,44
-24,31,55,-5,-38,39,-30,-74,-2,20,20,31
-19,20,39,-2,-28,26,-24,-58,0,15,11,17
-15,12,26,0,-20,16,-18,-43,1,10,4,7
-14,5,18,3,-15,9,-13,-32,1,8,0,0
-12,-1,11,5,-11,4,-10,-24,0,5,-3,-3
-8,-5,4,5,-5,-1,-8,-19,-3,1,-5,-6
-5,-7,-1,4,-1,-5,-6,-15,-5,-3,-8,-8
-5,-9,-4,5,0,-8,-5,-12,-7,-7,-10,-10
-5,-11,-6,7,1,-12,-4,-10,-8,-9,-11,-12
-4,-12,-8,7,3,-13,-4,-8,-8,-9,-12,-13
-3,-11,-9,6,4,-13,-3,-6,-8,-9,-12,-12
-2,-12,-10,6,5,-15,-3,-5,-10,-10,-13,-12
-2,-15,-13,7,6,-16,-3,-5,-11,-13,-15,-14
-3,-17,-13,8,6,-17,-2,-4,-11,-14,-15,-15
-3,-18,-14,8,7,-18,-1,-4,-11,-14,-16,-15
-1,-19,-17,8,9,-20,-3,-4,-12,-16,-18,-17
-1,-19,-18,9,9,-21,-3,-4,-13,-17,-18,-17
-3,-21,-17,11,7,-22,-3,-4,-13,-17,-18,-17
-4,-22,-18,12,7,-23,-3,-4,-13,-17,-18,-18
-3,-21,-18,11,8,-23,-2,-3,-14,-15,-18,-18
-3,-21,-17,10,7,-21,-1,-1,-12,-14,-17,-18
-2,-21,-17,9,8,-21,0,0,-12,-13,-17,-18
0,-20,-18,7,9,-21,0,0,-12,-14,-18,-18
0,-19,-19,7,10,-21,-1,0,-12,-14,-18,-18
1,-19,-20,7,12,-21,-1,0,-12,-16,-18,-18
1,-19,-20,7,12,-22,-1,-1,-13,-17,-19,-18
0,-20,-20,9,11,-22,-1,-1,-13,-18,-19,-18
-2,-21,-20,10,10,-23,-1,-1,-14,-19,-20,-19
-1,-22,-21,10,10,-24,-1,0,-14,-19,-20,-20
-1,-22,-21,10,10,-24,0,0,-14,-20,-20,-20
-1,-23,-21,11,10,-24,0,0,-15,-20,-20,-20
-1,-24,-22,11,11,-25,-1,0,-15,-20,-21,-20
0,-23,-23,10,12,-25,-1,0,-14,-19,-21,-20
0,-22,-22,9,12,-25,0,0,-13,-19,-21,-20
-1,-24,-22,11,11,-25,0,0,-13,-20,-21,-20
-2,-24,-22,12,11,-25,-1,0,-15,-20,-21,-20
-2,-24,-22,11,11,-25,-1,0,-14,-19,-20,-19
-2,-24,-22,11,10,-24,-1,0,-14,-17,-19,-19
-3,-25,-21,12,9,-25,-1,0,-14,-16,-19,-19
-3,-25,-21,12,9,-25,-1,0,-14,-16,-20,-19
-1,-24,-22,10,11,-25,-1,0,-14,-16,-20,-19
1,-22,-22,8,12,-24,0,0,-13,-16,-20,-19
1,-21,-22,8,12,-24,0,0,-13,-16,-20,-19
2,-20,-22,7,12,-24,0,0,-13,-17,-20,-19
4,-19,-22,5,14,-23,0,1,-13,-17,-19,-19
4,-18,-23,5,14,-23,0,1,-13,-17,-19,-19
5,-19,-24,5,16,-24,-2,1,-14,-19,-20,-20
4,-20,-24,6,15,-24,-1,1,-14,-19,-20,-20
1,-21,-22,8,12,-23,0,1,-13,-18,-19,-18
0,-21,-20,9,11,-23,0,2,-13,-19,-19,-18
0,-22,-23,9,12,-25,-1,1,-14,-20,-21,-19
1,-23,-24,9,13,-26,-1,0,-15,-21,-21,-20
1,-23,-24,9,13,-25,0,0,-15,-21,-20,-20
0,-23,-23,9,13,-25,0,1,-15,-20,-20,-19
1,-24,-24,9,13,-25,-1,0,-15,-20,-20,-20
0,-25,-24,10,13,-26,-2,0,-15,-20,-21,-21
-2,-26,-24,12,12,-26,-2,0,-15,-20,-21,-21
-3,-26,-24,12,12,-27,-2,-1,-16,-20,-21,-21
0,-24,-24,10,13,-26,-1,-1,-16,-20,-21,-21
3,-21,-24,7,14,-25,0,0,-15,-19,-20,-19
5,-21,-25,6,16,-25,0,0,-15,-19,-20,-20
6,-22,-27,6,17,-27,-1,0,-15,-20,-21,-21
4,-22,-25,7,16,-26,0,0,-15,-20,-21,-20
1,-21,-21,7,12,-23,1,2,-14,-18,-19,-18
2,-20,-21,6,13,-22,0,2,-14,-19,-19,-17
4,-20,-23,5,15,-23,-1,1,-14,-19,-19,-17
4,-20,-24,5,15,-23,-1,1,-13,-19,-19,-17
4,-20,-24,6,15,-24,-1,1,-14,-19,-19,-17
4,-20,-24,6,14,-23,0,0,-15,-19,-19,-17
3,-21,-24,6,14,-23,0,0,-14,-19,-20,-17
3,-22,-24,7,15,-25,0,0,-14,-20,-21,-18
3,-22,-24,7,15,-25,0,0,-14,-20,-21,-19
2,-23,-24,7,14,-25,0,1,-15,-20,-21,-19
1,-24,-25,8,14,-26,-1,0,-16,-21,-22,-20
1,-23,-25,8,14,-26,-2,0,-16,-21,-22,-20
0,-24,-25,9,13,-26,-2,0,-16,-21,-21,-19
0,-24,-25,9,14,-26,-2,0,-16,-20,-20,-19
2,-23,-25,8,15,-26,-2,0,-16,-20,-20,-19
1,-23,-25,8,14,-25,-1,0,-16,-19,-20,-19
2,-23,-25,8,14,-25,0,0,-15,-18,-20,-19
4,-23,-25,6,16,-25,0,0,-15,-18,-20,-19
4,-23,-25,6,16,-25,0,0,-14,-17,-20,-19
3,-22,-25,7,15,-25,0,0,-14,-18,-20,-19
4,-21,-25,6,15,-24,0,1,-14,-19,-21,-19
5,-20,-25,5,16,-24,0,1,-14,-19,-21,-19
5,-20,-26,5,16,-25,-1,1,-15,-19,-21,-20
5,-22,-26,6,17,-25,-1,1,-16,-21,-21,-20
3,-23,-26,7,15,-25,-1,1,-16,-22,-21,-20
1,-24,-25,8,14,-25,-1,1,-16,-22,-21,-20
0,-26,-25,9,14,-26,-3,0,-17,-22,-22,-20
-2,-28,-25,12,13,-28,-4,-1,-17,-22,-22,-21
-2,-30,-26,13,13,-29,-4,-1,-17,-22,-23,-21
0,-27,-27,11,15,-28,-2,0,-17,-22,-23,-20
5,-21,-27,5,17,-25,0,1,-15,-20,-21,-19
7,-17,-24,2,17,-22,1,3,-13,-18,-19,-16
4,-17,-22,4,14,-21,1,4,-13,-17,-18,-16
4,-19,-23,5,15,-23,0,3,-13,-18,-19,-18
5,-21,-25,5,16,-24,-2,1,-14,-19,-20,-19
5,-21,-25,5,16,-24,-1,2,-13,-19,-19,-18
6,-20,-25,4,16,-23,0,4,-11,-18,-17,-17
8,-18,-25,2,18,-23,0,4,-12,-19,-17,-17
7,-18,-25,2,17,-23,-1,4,-13,-19,-18,-17
5,-18,-23,3,15,-23,0,4,-12,-18,-16,-15
5,-18,-24,4,16,-23,0,4,-12,-18,-16,-15
7,-18,-26,2,18,-23,0,3,-12,-18,-17,-16
9,-18,-27,1,19,-23,-2,3,-12,-18,-18,-16
7,-19,-26,2,18,-24,-1,3,-12,-17,-18,-15
6,-22,-27,4,18,-25,-1,3,-13,-18,-18,-15
6,-23,-28,5,18,-27,-3,2,-14,-19,-19,-17
5,-22,-27,5,17,-26,-3,2,-14,-18,-19,-17
6,-19,-25,3,17,-25,-1,4,-12,-16,-17,-16
7,-17,-25,1,18,-24,0,4,-12,-17,-17,-16
8,-17,-25,1,18,-23,0,5,-12,-18,-17,-15
9,-17,-26,1,19,-23,0,5,-11,-17,-16,-14
10,-17,-27,0,20,-23,0,5,-11,-17,-16,-13
9,-18,-27,1,19,-23,0,5,-11,-17,-15,-13
7,-20,-27,3,18,-24,0,5,-12,-17,-15,-13
5,-22,-27,5,16,-25,-2,3,-13,-18,-16,-14
5,-21,-25,4,16,-24,-2,3,-13,-17,-16,-15
7,-17,-24,2,16,-22,0,5,-11,-15,-15,-13
9,-14,-24,0,17,-21,0,5,-10,-14,-15,-13
9,-14,-24,0,18,-21,-1,5,-11,-15,-15,-13
9,-15,-23,0,17,-21,-1,5,-11,-15,-14,-11
9,-15,-23,0,17,-21,-1,5,-11,-16,-13,-10
8,-16,-24,1,17,-21,-1,5,-10,-16,-12,-9
7,-18,-24,2,17,-22,-1,4,-11,-16,-12,-10
6,-19,-25,3,17,-24,-3,3,-12,-17,-13,-12
6,-20,-25,3,17,-24,-4,3,-12,-17,-13,-12
6,-20,-25,3,17,-24,-3,3,-12,-17,-13,-12
7,-18,-25,2,17,-23,-3,3,-12,-17,-13,-11
9,-15,-24,0,17,-21,-1,4,-11,-16,-11,-9
10,-13,-23,-2,17,-20,-1,4,-11,-15,-10,-9
12,-11,-22,-4,18,-18,0,5,-10,-14,-9,-7
12,-9,-21,-5,18,-17,0,6,-8,-12,-7,-6
11,-10,-21,-4,17,-17,-2,6,-8,-11,-6,-6
10,-11,-21,-2,17,-17,-3,6,-8,-11,-6,-5
9,-12,-21,-2,17,-18,-3,5,-8,-10,-6,-4
10,-11,-21,-3,17,-18,-3,5,-8,-10,-6,-4
13,-9,-21,-5,18,-16,-2,5,-8,-10,-5,-3
15,-5,-21,-8,19,-15,-1,6,-7,-10,-4,-2
16,-4,-21,-9,19,-14,-1,6,-7,-10,-4,-2
16,-4,-21,-9,19,-14,-2,6,-7,-10,-3,-2
16,-5,-21,-8,19,-15,-2,6,-7,-10,-3,-2
16,-5,-21,-9,20,-15,-2,6,-7,-10,-3,-1
18,-4,-21,-10,21,-15,-2,7,-7,-10,-3,-1
15,-4,-18,-8,18,-13,-1,8,-5,-9,-2,0
10,-6,-16,-5,14,-13,-1,8,-5,-8,-2,0
8,-8,-16,-3,13,-15,-3,7,-6,-8,-2,0
8,-8,-16,-2,12,-15,-4,7,-6,-7,-2,0
8,-7,-16,-3,12,-14,-4,7,-5,-5,0,1
10,-5,-15,-5,13,-12,-3,8,-3,-3,2,3
11,-2,-13,-7,13,-10,-1,9,-2,-2,3,3
13,0,-14,-9,14,-8,0,10,-1,-1,3,3
17,1,-15,-12,17,-8,0,11,0,-1,4,3
16,1,-15,-12,17,-8,0,11,0,-1,4,3
12,0,-12,-10,14,-8,0,11,0,0,4,4
12,0,-13,-9,13,-8,0,11,0,0,5,5
15,0,-14,-11,15,-9,0,12,1,0,6,5
16,1,-14,-12,16,-9,0,12,1,0,6,6
16,1,-14,-12,16,-8,-1,12,0,0,6,6
14,1,-13,-11,15,-8,-1,12,0,0,7,6
14,1,-12,-11,14,-7,0,13,2,1,9,9
15,2,-13,-11,15,-7,-1,14,3,3,9,10
15,2,-14,-11,15,-7,-2,13,3,3,9,10
14,2,-12,-10,14,-7,-1,14,4,4,10,10
14,2,-12,-10,14,-7,0,14,4,4,11,10
14,1,-13,-10,14,-7,0,14,4,3,10,9
12,-1,-12,-8,13,-8,0,14,4,3,9,8
8,-3,-11,-5,11,-8,0,14,4,3,9,8
8,-2,-10,-6,11,-8,0,14,5,4,10,8
12,0,-10,-9,12,-6,0,15,6,5,11,9
14,2,-11,-10,14,-6,1,15,6,5,11,9
13,2,-11,-10,13,-6,1,15,6,6,11,9
13,2,-10,-10,13,-6,2,15,7,6,11,9
13,2,-11,-10,13,-6,2,16,7,6,10,9
13,2,-11,-10,12,-6,1,17,8,6,10,9
13,1,-11,-10,12,-6,1,17,8,6,10,9
14,1,-12,-10,13,-6,1,17,8,6,10,8
14,1,-13,-10,14,-7,2,17,8,5,9,8
13,0,-12,-9,13,-7,2,16,7,5,9,8
12,0,-10,-9,12,-6,2,16,7,6,9,8
11,1,-9,-9,10,-6,2,17,8,6,10,8
11,1,-10,-9,11,-6,3,16,7,6,10,7
11,1,-10,-9,12,-6,4,16,8,6,10,7
11,1,-10,-9,12,-6,3,16,8,6,9,6
11,1,-10,-9,12,-5,3,15,8,6,8,5
9,0,-9,-7,10,-5,4,16,8,7,8,6
9,0,-9,-7,10,-6,4,17,9,7,8,6
9,0,-10,-7,10,-6,3,16,8,6,7,5
9,-2,-11,-6,11,-7,2,16,7,5,6,4
9,-3,-11,-5,11,-8,2,16,7,4,6,3
8,-4,-12,-4,10,-8,1,15,6,3,4,2
5,-6,-11,-2,9,-9,1,14,6,2,4,1
3,-6,-10,-1,7,-9,2,15,6,3,5,2
5,-4,-10,-3,9,-9,4,15,7,5,5,3
8,-3,-10,-5,10,-9,4,15,8,6,5,3
8,-3,-10,-5,10,-9,4,15,8,6,5,2
9,-1,-10,-6,10,-7,4,15,8,6,4,2
8,-1,-9,-6,9,-6,4,16,8,6,4,2
8,-1,-8,-6,8,-5,4,16,9,6,4,2
7,0,-7,-6,8,-4,4,16,9,6,4,1
6,0,-6,-6,7,-4,4,17,10,7,4,2
6,0,-7,-5,7,-5,5,17,10,7,4,2
6,-1,-8,-5,9,-6,5,17,9,5,4,2
6,-2,-8,-4,9,-7,4,17,9,4,3,1
5,-3,-8,-3,8,-7,4,17,8,4,3,1
5,-5,-9,-2,8,-8,4,17,8,3,2,1
4,-7,-9,-1,7,-8,4,17,8,3,1,1
2,-8,-9,0,6,-8,4,17,8,3,1,0
2,-8,-9,0,6,-9,4,17,8,3,1,0
1,-8,-9,0,6,-10,3,16,7,3,0,-1
0,-9,-10,1,6,-10,3,16,7,3,0,-2
0,-9,-10,1,6,-11,4,16,7,3,0,-2
2,-8,-10,0,7,-10,5,17,7,4,0,-2
4,-4,-8,-2,7,-7,6,18,9,6,1,-1
4,-2,-6,-4,5,-5,7,19,10,7,3,-1
4,-2,-6,-3,5,-5,6,19,11,7,3,-1
6,-2,-8,-5,8,-5,6,19,10,6,2,-2
6,-3,-8,-5,8,-5,7,19,10,5,1,-2
4,-4,-8,-4,8,-6,7,18,10,5,1,-2
3,-4,-8,-3,8,-7,6,18,9,4,1,-3
2,-5,-8,-1,6,-7,5,18,9,4,0,-3
-1,-8,-7,1,4,-9,4,18,8,4,0,-4
-2,-11,-8,4,3,-10,3,16,7,2,-1,-5
-3,-12,-8,4,3,-11,4,16,6,1,-2,-6
-3,-12,-8,4,3,-10,6,16,6,2,-2,-6
-1,-11,-8,3,4,-10,6,16,6,3,-2,-6
0,-8,-8,0,5,-8,6,17,8,4,-1,-5
1,-5,-7,-1,5,-7,5,18,9,5,-1,-4
1,-4,-6,-1,4,-6,5,19,10,5,-1,-4
1,-6,-7,-1,5,-8,5,18,8,3,-2,-5
0,-10,-10,1,6,-10,4,16,6,0,-5,-7
-1,-12,-10,3,5,-11,4,16,5,-1,-5,-8
0,-8,-8,1,5,-9,5,17,6,1,-3,-6
2,-6,-7,0,5,-7,6,17,7,2,-3,-5
0,-8,-8,2,4,-9,5,16,7,2,-3,-6
-1,-8,-8,1,4,-9,5,16,7,2,-3,-6
1,-6,-8,-1,6,-9,5,17,7,2,-3,-6
2,-6,-9,-1,7,-9,5,17,7,2,-3,-6
3,-5,-8,-2,7,-8,6,18,8,2,-2,-5
6,-3,-8,-5,8,-6,7,19,9,4,-1,-4
7,-3,-9,-5,9,-6,7,19,9,4,0,-3
5,-4,-9,-3,7,-7,7,19,8,2,-1,-4
2,-6,-8,-1,6,-7,6,19,8,2,-2,-4
0,-8,-9,1,5,-9,5,18,6,1,-3,-5
-1,-11,-10,3,5,-11,3,17,5,0,-3,-5
-1,-11,-10,3,6,-12,3,16,5,0,-3,-5
1,-10,-11,1,7,-11,3,16,5,0,-3,-5
3,-8,-10,-1,7,-10,4,16,5,0,-3,-5
2,-8,-9,-1,6,-9,6,16,5,0,-3,-5
1,-10,-11,0,7,-11,4,15,4,0,-4,-6
1,-13,-13,2,8,-13,4,13,3,-1,-5,-7
-1,-14,-14,5,6,-14,3,12,2,-2,-6,-9
-4,-15,-13,7,5,-14,3,12,2,-2,-7,-9
0,-11,-11,2,6,-12,4,14,3,-1,-5,-7
4,-5,-10,-3,8,-9,4,15,4,1,-3,-6
6,-4,-10,-4,9,-8,3,15,5,1,-3,-6
6,-5,-10,-4,9,-9,3,14,4,1,-4,-7
4,-6,-10,-2,8,-9,3,14,4,1,-4,-7
4,-8,-11,-1,8,-9,4,15,4,0,-3,-6
7,-6,-13,-3,11,-9,4,14,3,-1,-4,-6
7,-6,-14,-4,12,-9,3,13,2,-2,-5,-7
4,-8,-13,-1,9,-11,3,13,2,-2,-4,-6
3,-9,-12,0,9,-11,2,13,1,-3,-4,-6
3,-10,-12,0,9,-12,0,12,1,-3,-5,-7
0,-11,-12,1,8,-12,1,12,1,-2,-5,-7
1,-11,-12,1,9,-13,2,11,1,-2,-5,-7
3,-11,-14,1,10,-13,1,9,0,-3,-6,-9
1,-13,-14,2,9,-13,1,8,0,-3,-7,-9
-3,-14,-12,5,5,-13,1,9,1,-3,-6,-8
-2,-12,-11,4,5,-12,3,11,1,-2,-6,-8
1,-9,-12,1,8,-12,3,11,1,-2,-6,-8
1,-10,-12,1,7,-12,2,10,1,-4,-7,-8
1,-10,-12,1,7,-12,1,10,0,-5,-7,-8
2,-9,-12,0,9,-11,2,10,0,-5,-7,-8
5,-7,-12,-2,10,-10,2,10,0,-4,-6,-7
6,-7,-14,-2,11,-11,1,10,-1,-5,-6,-7
6,-9,-15,-1,12,-12,0,9,-1,-5,-6,-7
4,-10,-15,0,10,-13,0,9,-1,-5,-6,-6
1,-12,-14,2,9,-13,1,9,-1,-4,-6,-6
1,-12,-15,1,10,-14,0,8,-1,-4,-6,-7
4,-13,-18,1,12,-16,-1,6,-3,-7,-8,-9
3,-14,-18,2,12,-17,-1,5,-4,-8,-8,-9
-1,-16,-16,5,9,-17,-1,5,-3,-7,-8,-9
-2,-18,-16,7,8,-18,-1,5,-4,-8,-9,-9
0,-15,-16,5,8,-16,0,6,-3,-7,-8,-9
4,-8,-13,-1,9,-11,2,9,0,-4,-5,-6
8,-4,-13,-6,11,-9,2,11,0,-3,-3,-4
8,-4,-13,-6,11,-10,2,10,0,-4,-4,-4
8,-5,-15,-5,12,-11,2,9,0,-4,-4,-5
10,-4,-16,-6,15,-11,2,9,0,-4,-3,-5
10,-4,-14,-6,13,-10,3,11,2,-2,-2,-4
7,-5,-13,-4,12,-10,3,13,3,-1,-1,-3
9,-4,-14,-5,13,-10,2,12,2,-1,-2,-4
9,-5,-14,-5,13,-10,1,12,1,-2,-3,-5
7,-6,-15,-4,12,-11,2,12,0,-2,-2,-4
8,-6,-15,-4,12,-11,3,11,0,-2,-2,-4
8,-6,-15,-4,12,-11,3,11,1,-2,-2,-4
6,-6,-13,-3,11,-10,4,13,3,0,0,-3
8,-4,-13,-5,12,-9,4,15,5,1,2,-1
11,-3,-15,-8,14,-9,4,15,5,1,0,-2
9,-3,-14,-6,13,-9,4,15,5,1,-1,-3
8,-5,-14,-5,11,-10,6,16,5,1,-1,-3
8,-5,-14,-5,11,-10,6,16,5,0,-1,-3
9,-3,-14,-6,12,-9,6,16,5,0,-1,-3
11,-1,-14,-8,13,-8,6,17,5,0,0,-2
13,0,-15,-10,15,-8,6,18,6,0,0,-2
12,0,-12,-10,13,-7,6,19,7,1,2,0
11,0,-11,-8,12,-7,6,20,7,2,2,1
14,0,-15,-10,15,-9,6,20,7,2,2,0
17,0,-18,-12,18,-9,4,19,6,1,2,0
16,-1,-19,-10,18,-9,3,19,6,1,1,0
14,-2,-19,-9,17,-9,2,18,5,1,1,-1
13,-2,-18,-9,16,-9,2,16,5,1,0,-2
12,-2,-16,-8,15,-9,2,16,4,0,-1,-3
11,-2,-14,-8,14,-9,2,16,4,0,-1,-3
13,0,-14,-9,14,-9,1,15,4,0,-1,-3
14,1,-14,-10,15,-7,0,14,3,0,-1,-3
15,2,-14,-12,15,-6,-1,12,2,0,0,-1
18,2,-16,-13,17,-6,-4,9,0,-2,0,-1
16,1,-17,-11,17,-6,-6,6,-1,-3,-1,-1
11,-1,-15,-8,14,-7,-6,6,-1,-3,-1,-1
9,-5,-16,-6,14,-10,-7,5,-2,-4,-1,-2
11,-6,-19,-6,16,-12,-7,4,-4,-6,-2,-3
13,-4,-19,-8,17,-12,-5,6,-2,-5,-2,-2
14,-3,-18,-8,17,-12,-5,7,-2,-5,-2,-2
14,-4,-19,-7,17,-13,-6,6,-3,-5,-3,-2
13,-5,-19,-7,17,-13,-6,6,-3,-5,-3,-2
12,-5,-19,-6,17,-12,-5,5,-3,-5,-2,-2
13,-5,-19,-6,17,-11,-5,5,-3,-5,-2,-2
14,-4,-19,-8,18,-11,-4,6,-2,-5,-2,-2
14,-4,-19,-9,19,-11,-4,6,-2,-5,-1,0
13,-5,-20,-7,18,-12,-4,6,-3,-5,-1,0
12,-7,-20,-6,18,-14,-4,5,-3,-6,-1,-1
11,-7,-20,-5,17,-14,-4,5,-3,-6,-1,-1
11,-8,-21,-5,17,-14,-4,5,-3,-5,-2,-1
13,-7,-21,-6,18,-13,-4,5,-3,-4,-2,-2
13,-6,-21,-7,19,-13,-4,5,-3,-4,-2,-2
13,-8,-23,-6,19,-15,-5,3,-4,-5,-3,-4
12,-8,-22,-5,18,-15,-4,3,-4,-6,-3,-4
11,-7,-20,-5,16,-13,-3,4,-3,-5,-2,-3
10,-7,-18,-5,15,-13,-2,5,-2,-5,-3,-3
8,-8,-18,-3,15,-13,-4,5,-3,-6,-3,-3
7,-10,-18,-1,13,-13,-4,5,-3,-7,-3,-3
6,-10,-17,-1,13,-13,-2,5,-3,-7,-3,-3
6,-9,-17,-2,13,-12,-1,5,-3,-7,-3,-3
6,-10,-17,-2,13,-13,-1,4,-4,-8,-5,-4
2,-13,-17,1,11,-15,-2,2,-6,-9,-7,-6
0,-16,-17,4,10,-17,-3,0,-8,-11,-10,-8
2,-15,-19,3,12,-17,-2,0,-9,-12,-11,-10
3,-15,-19,3,12,-17,-1,0,-9,-11,-11,-10
2,-16,-19,4,12,-17,-2,0,-9,-10,-11,-10
2,-17,-20,4,12,-18,-3,0,-8,-10,-11,-11
-1,-19,-20,6,11,-19,-5,-1,-9,-12,-11,-12
-2,-21,-20,7,10,-19,-5,-1,-9,-12,-12,-12
1,-18,-20,4,11,-19,-4,0,-9,-12,-11,-11
4,-14,-19,1,12,-17,-2,1,-7,-11,-9,-9
2,-13,-17,1,11,-15,-1,2,-7,-9,-9,-8
1,-14,-17,3,10,-17,-2,1,-8,-10,-10,-9
1,-17,-18,4,11,-18,-3,0,-10,-12,-11,-10
0,-17,-18,5,10,-18,-3,0,-10,-12,-11,-10
0,-16,-18,4,10,-16,-2,0,-8,-11,-10,-10
2,-15,-19,3,11,-16,-2,1,-7,-10,-10,-10
2,-15,-19,2,12,-17,-2,1,-7,-10,-10,-10
2,-15,-19,2,12,-17,-2,1,-8,-11,-10,-11
0,-16,-18,3,10,-17,-1,1,-8,-11,-10,-10
0,-16,-18,4,10,-17,-1,2,-8,-11,-10,-9
3,-14,-19,2,12,-17,-1,2,-8,-11,-10,-9
4,-14,-20,1,14,-17,-2,1,-8,-12,-10,-9
3,-14,-20,1,14,-17,-2,1,-8,-12,-10,-9
2,-15,-19,2,12,-17,-2,1,-8,-12,-9,-9
0,-16,-18,3,11,-17,-2,1,-8,-12,-9,-9
-1,-18,-19,5,10,-18,-2,1,-9,-12,-10,-9
-1,-19,-20,6,11,-20,-2,0,-10,-12,-10,-10
0,-18,-20,5,12,-19,-1,0,-10,-12,-10,-9
3,-15,-19,2,12,-17,0,1,-8,-10,-9,-8
3,-14,-18,2,12,-16,0,1,-8,-10,-9,-8
3,-14,-18,2,12,-16,0,1,-8,-10,-9,-9
3,-14,-18,1,12,-16,0,1,-8,-10,-9,-9
3,-13,-17,1,12,-16,0,1,-8,-10,-9,-9
2,-13,-17,1,11,-16,0,2,-8,-10,-9,-9
1,-15,-18,3,12,-17,-1,1,-8,-10,-10,-10
1,-16,-19,3,12,-18,-1,1,-9,-10,-11,-11
0,-17,-19,4,11,-18,-1,2,-8,-10,-11,-11
0,-16,-19,4,11,-18,0,3,-7,-10,-11,-11
3,-15,-20,2,13,-18,0,4,-7,-10,-11,-12
3,-16,-20,2,13,-19,1,6,-6,-10,-11,-12
1,-18,-21,4,12,-20,2,8,-5,-11,-13,-14
1,-21,-23,6,14,-23,3,11,-6,-13,-16,-17
-1,-24,-24,8,13,-25,7,14,-5,-13,-18,-20
-3,-27,-24,11,12,-26,11,18,-2,-12,-19,-21
-1,-27,-27,10,14,-27,13,22,0,-11,-19,-21
0,-29,-31,10,17,-30,15,26,1,-11,-20,-22
2,-30,-35,10,20,-32,16,31,2,-10,-20,-23
9,-27,-37,5,24,-32,17,39,7,-6,-16,-20
16,-19,-36,-2,27,-29,19,50,18,5,-5,-12
22,-10,-33,-10,29,-22,19,62,30,19,9,-1
26,0,-28,-17,29,-15,18,71,43,34,25,10
30,11,-20,-25,27,-5,18,80,57,52,44,27
41,31,-13,-39,28,8,16,87,71,70,67,47
58,56,-5,-60,32,25,12,89,83,89,93,70
69,77,5,-77,33,41,4,85,93,107,119,95
78,95,14,-90,33,54,-5,78,100,122,144,119
89,113,22,-105,35,67,-15,71,105,136,169,142
99,130,29,-119,36,79,-25,64,111,151,193,166
109,146,36,-131,38,90,-36,56,118,166,217,188
117,162,44,-143,38,102,-47,44,125,181,240,210
117,174,56,-149,31,115,-56,26,125,188,255,226
101,178,75,-144,14,127,-62,-2,115,183,253,230
69,173,102,-124,-15,138,-65,-40,97,168,237,222
29,159,128,-97,-47,143,-63,-78,73,145,209,203
0,140,138,-74,-67,139,-61,-107,47,116,174,178
-15,119,133,-56,-72,125,-60,-127,19,83,134,148
-21,92,113,-40,-66,102,-60,-134,-4,49,89,111
-20,69,88,-29,-52,78,-57,-127,-14,26,55,79
-14,55,68,-25,-40,62,-53,-111,-14,18,38,60
-12,46,55,-21,-32,50,-49,-96,-10,17,32,48
-12,36,45,-16,-27,40,-42,-82,-7,16,25,38
-12,24,34,-10,-22,29,-33,-65,-5,12,15,25
-12,13,22,-4,-16,17,-26,-49,-4,8,6,12
-11,4,13,0,-11,8,-21,-38,-4,3,0,3
-11,-3,6,3,-8,1,-17,-29,-5,-1,-5,-3
-10,-9,0,5,-3,-5,-14,-23,-8,-7,-9,-7
-7,-11,-6,5,0,-9,-11,-19,-10,-11,-12,-10
-4,-10,-8,3,3,-9,-7,-15,-10,-12,-13,-10
-1,-9,-10,1,6,-9,-4,-12,-10,-13,-13,-10
0,-9,-12,1,7,-11,-3,-10,-10,-14,-14,-11
2,-11,-15,1,9,-14,-5,-9,-12,-16,-15,-12
0,-14,-16,2,9,-16,-6,-9,-13,-17,-17,-13
-5,-18,-14,7,5,-17,-5,-8,-13,-17,-19,-15
-8,-21,-15,10,4,-19,-4,-8,-14,-18,-20,-17
-7,-23,-17,10,6,-20,-4,-8,-14,-18,-21,-18
-6,-21,-17,9,6,-19,-3,-6,-13,-18,-20,-18
-3,-19,-17,7,8,-18,-2,-5,-13,-17,-19,-18
0,-18,-20,5,12,-19,-2,-6,-15,-19,-21,-19
1,-20,-23,6,13,-22,-3,-6,-16,-21,-21,-19
-1,-21,-21,7,10,-22,-3,-5,-16,-21,-21,-19
-2,-21,-19,7,9,-21,-4,-4,-15,-20,-21,-19
0,-20,-20,6,11,-21,-4,-3,-15,-19,-21,-19
1,-20,-22,5,13,-22,-2,-3,-15,-19,-22,-19
1,-21,-23,6,13,-22,-2,-3,-15,-20,-23,-20
-1,-22,-23,8,12,-23,-2,-3,-16,-21,-23,-20
-2,-24,-23,10,11,-23,-2,-3,-16,-21,-24,-21
-2,-24,-23,10,11,-25,-2,-3,-16,-22,-24,-21
-2,-25,-24,10,11,-26,-2,-3,-17,-22,-24,-21
-2,-25,-24,9,11,-26,-2,-3,-17,-22,-23,-20
-2,-24,-23,9,11,-25,-2,-2,-17,-22,-23,-20
-3,-26,-23,10,10,-25,-2,-2,-16,-22,-22,-20
-3,-26,-23,10,11,-25,-3,-2,-16,-22,-22,-20
-2,-25,-23,10,11,-23,-3,-2,-16,-22,-22,-20
-3,-25,-22,10,11,-23,-2,-2,-17,-22,-22,-20
-3,-25,-23,10,11,-25,-2,-2,-17,-22,-23,-21
0,-23,-24,7,13,-24,-1,-1,-16,-21,-23,-22
2,-20,-23,4,13,-23,0,0,-15,-19,-22,-21
3,-19,-22,4,13,-22,0,0,-15,-19,-22,-20
2,-20,-22,4,13,-22,-1,0,-15,-20,-22,-20
0,-22,-23,6,13,-24,-2,0,-15,-21,-23,-21
0,-23,-24,7,13,-25,-3,-1,-16,-21,-23,-21
0,-23,-24,7,13,-24,-1,0,-16,-21,-23,-21
0,-22,-24,6,13,-24,0,0,-16,-21,-23,-21
-1,-22,-23,7,11,-24,0,0,-16,-21,-23,-21
-2,-23,-22,8,10,-24,0,0,-16,-21,-23,-21
0,-23,-23,7,12,-24,0,0,-16,-22,-24,-21
0,-24,-24,7,13,-25,-1,0,-16,-23,-24,-21
0,-24,-24,7,13,-25,-1,0,-16,-23,-24,-21
-2,-25,-23,9,11,-24,-1,0,-16,-23,-24,-21
-3,-25,-23,9,11,-24,-1,0,-16,-23,-24,-20
-1,-24,-24,8,13,-24,-1,0,-17,-23,-24,-20
0,-22,-24,7,13,-24,-1,0,-17,-24,-24,-20
0,-21,-23,6,13,-23,-1,0,-17,-23,-24,-20
1,-21,-23,6,14,-24,-1,0,-16,-23,-24,-20
3,-22,-24,5,14,-24,-1,0,-16,-23,-23,-20
1,-20,-22,5,13,-22,0,2,-15,-21,-22,-19
2,-19,-21,4,13,-21,1,2,-14,-21,-21,-19
3,-19,-24,3,15,-23,0,1,-15,-22,-22,-19
1,-21,-25,5,15,-25,0,1,-15,-23,-23,-20
0,-22,-24,6,13,-25,0,1,-16,-23,-23,-20
0,-22,-24,6,13,-25,-1,0,-16,-23,-23,-20
-1,-23,-24,7,13,-25,-1,0,-16,-23,-23,-20
0,-24,-24,7,13,-25,-2,0,-17,-23,-24,-22
0,-24,-24,7,14,-25,-2,0,-17,-22,-24,-22
-2,-24,-22,8,12,-24,0,0,-16,-21,-24,-22
-1,-23,-23,7,13,-24,0,0,-16,-21,-25,-22
3,-21,-25,4,16,-24,-1,0,-17,-22,-25,-22
3,-20,-25,4,16,-24,-1,0,-17,-22,-25,-22
1,-22,-25,6,14,-24,-1,0,-17,-23,-25,-22
-1,-23,-23,8,12,-24,0,1,-17,-24,-25,-21
-2,-22,-20,8,10,-22,1,2,-15,-22,-23,-19
0,-21,-22,5,13,-22,1,2,-15,-21,-22,-19
5,-20,-25,3,16,-24,0,1,-17,-23,-24,-21
2,-21,-23,4,14,-24,-1,1,-16,-22,-23,-21
-1,-23,-22,7,11,-24,-1,1,-15,-21,-22,-19
-1,-23,-24,7,13,-26,-1,1,-16,-22,-23,-20
-1,-22,-24,7,12,-25,-1,1,-16,-22,-23,-20
-1,-21,-22,7,12,-23,0,2,-15,-21,-21,-18
1,-21,-23,5,14,-23,0,2,-15,-21,-21,-18
5,-21,-26,4,17,-24,-1,0,-16,-23,-22,-20
5,-22,-26,3,17,-24,-2,0,-17,-24,-24,-21
0,-23,-24,6,14,-24,-1,0,-16,-22,-23,-20
-2,-24,-22,7,12,-24,0,0,-16,-21,-23,-19
0,-23,-23,7,13,-24,-1,0,-16,-22,-24,-21
0,-21,-23,5,13,-24,-1,0,-16,-22,-25,-22
0,-20,-23,5,14,-23,-1,1,-15,-22,-25,-22
2,-21,-24,5,15,-24,-1,2,-15,-22,-24,-21
1,-22,-24,5,15,-24,-1,2,-15,-23,-24,-21
-1,-24,-22,8,13,-24,-1,2,-16,-24,-24,-21
-2,-24,-22,8,11,-25,-1,2,-16,-24,-24,-21
-2,-23,-22,7,11,-24,0,2,-16,-24,-24,-21
0,-21,-22,5,13,-24,0,2,-15,-23,-23,-19
2,-20,-24,4,15,-24,0,2,-15,-23,-23,-20
2,-21,-24,4,15,-25,-1,1,-16,-24,-24,-20
0,-23,-23,7,13,-25,-1,1,-16,-24,-24,-20
-1,-25,-23,9,12,-25,-1,1,-16,-24,-23,-20
4,-23,-26,4,16,-25,-1,1,-17,-24,-24,-20
7,-20,-26,1,18,-24,-1,1,-17,-24,-24,-20
3,-21,-24,3,16,-24,0,1,-16,-24,-24,-20
1,-23,-24,6,14,-26,-1,0,-17,-25,-25,-20
0,-24,-25,7,15,-26,-2,0,-18,-26,-26,-22
1,-23,-25,6,15,-26,-2,0,-18,-26,-26,-22
0,-22,-23,6,14,-25,0,1,-17,-24,-25,-21
0,-20,-21,5,13,-22,2,3,-15,-23,-23,-19
1,-19,-21,4,13,-22,3,3,-15,-23,-23,-19
3,-20,-23,4,15,-24,1,2,-16,-23,-24,-20
3,-20,-23,4,15,-24,0,2,-16,-23,-24,-20
2,-20,-23,4,14,-24,0,2,-15,-23,-24,-20
2,-20,-24,4,15,-25,-1,2,-15,-23,-24,-20
2,-20,-25,4,16,-25,-1,2,-16,-24,-25,-21
0,-22,-24,5,14,-25,0,1,-17,-25,-25,-21
-1,-23,-23,7,13,-25,0,1,-17,-25,-25,-22
0,-24,-24,6,13,-24,0,0,-17,-25,-25,-22
1,-23,-24,5,15,-24,-1,0,-18,-25,-25,-21
1,-22,-23,5,15,-24,0,0,-18,-25,-24,-20
1,-21,-22,5,15,-24,0,0,-18,-25,-24,-20
0,-22,-23,6,14,-25,-1,-1,-19,-26,-25,-20
0,-24,-24,7,14,-26,-2,-1,-19,-27,-25,-20
0,-24,-24,7,14,-27,-3,-1,-20,-27,-26,-21
-1,-24,-24,7,13,-26,-2,-2,-20,-27,-26,-21
0,-23,-24,6,15,-26,-2,-2,-20,-28,-26,-21
4,-20,-24,3,16,-24,-1,-1,-20,-27,-26,-21
6,-17,-24,1,17,-23,-1,-1,-19,-26,-25,-20
5,-18,-24,2,17,-23,-1,-2,-20,-27,-25,-20
3,-20,-24,3,17,-24,-1,-2,-20,-27,-26,-20
3,-19,-24,2,17,-24,-1,-1,-19,-27,-24,-19
3,-18,-23,2,16,-23,-1,0,-18,-26,-23,-18
3,-19,-24,2,16,-24,-1,-1,-19,-26,-23,-18
3,-20,-25,2,17,-24,-2,-2,-20,-27,-24,-18
4,-20,-25,2,17,-24,-2,-3,-21,-27,-25,-19
4,-20,-24,2,17,-24,-2,-3,-21,-27,-25,-19
2,-20,-23,4,15,-24,-2,-3,-21,-28,-24,-18
0,-20,-21,5,14,-23,-2,-3,-20,-28,-24,-18
0,-21,-22,5,14,-24,-4,-4,-21,-29,-25,-18
0,-22,-22,5,14,-25,-4,-4,-22,-29,-25,-18
0,-20,-21,4,14,-23,-3,-3,-21,-27,-23,-17
2,-19,-21,3,14,-23,-3,-3,-21,-27,-23,-16
2,-20,-22,3,15,-23,-3,-4,-22,-28,-23,-17
2,-19,-22,3,15,-23,-3,-4,-21,-28,-22,-16
3,-17,-21,2,15,-22,-3,-3,-20,-26,-21,-15
5,-15,-21,0,16,-22,-4,-4,-20,-26,-21,-15
7,-14,-23,-2,18,-21,-4,-4,-20,-26,-20,-15
8,-11,-20,-4,18,-18,-1,-2,-18,-23,-18,-13
8,-10,-18,-4,16,-17,0,-1,-17,-22,-17,-12
6,-12,-19,-3,16,-18,-1,-2,-19,-24,-18,-13
4,-14,-19,0,15,-18,-2,-3,-19,-24,-18,-13
3,-15,-19,0,14,-18,-3,-3,-19,-23,-18,-12
3,-15,-19,0,14,-18,-5,-3,-19,-23,-18,-12
3,-14,-18,0,14,-18,-6,-3,-18,-23,-18,-12
3,-14,-18,0,14,-18,-6,-3,-18,-23,-18,-12
3,-13,-18,0,14,-18,-5,-2,-17,-22,-17,-11
4,-12,-17,-2,14,-17,-4,-2,-16,-21,-16,-10
4,-11,-17,-2,13,-17,-4,-2,-16,-20,-15,-10
4,-11,-17,-2,14,-17,-4,-2,-16,-20,-15,-10
5,-11,-18,-3,15,-17,-3,-2,-16,-20,-15,-10
5,-11,-18,-3,15,-17,-3,-1,-16,-19,-15,-10
4,-11,-17,-2,13,-17,-4,-1,-15,-18,-14,-9
3,-12,-16,-1,12,-17,-5,-1,-14,-18,-13,-8
3,-12,-15,-1,12,-17,-5,0,-14,-17,-12,-8
5,-10,-16,-3,13,-16,-4,0,-13,-16,-11,-7
7,-8,-16,-6,15,-14,-2,1,-12,-15,-10,-6
8,-5,-15,-7,15,-11,-1,3,-10,-13,-8,-4
8,-4,-13,-8,14,-10,-1,4,-9,-11,-7,-3
8,-4,-13,-8,14,-10,-1,5,-8,-11,-6,-3
8,-4,-13,-7,14,-11,-2,5,-8,-11,-6,-3
8,-4,-13,-7,14,-11,-2,4,-8,-11,-6,-3
9,-4,-14,-8,14,-11,-2,4,-8,-10,-6,-3
9,-4,-14,-8,15,-11,-2,4,-8,-10,-6,-2
8,-5,-14,-7,14,-12,-2,4,-8,-10,-6,-2
5,-6,-13,-6,13,-12,-2,5,-7,-9,-5,-3
5,-6,-13,-5,12,-12,-2,5,-7,-9,-5,-3
6,-7,-15,-6,14,-13,-3,4,-7,-9,-5,-3
6,-7,-16,-6,14,-14,-3,4,-6,-9,-5,-4
6,-7,-15,-5,14,-14,-3,4,-6,-9,-5,-4
3,-9,-13,-3,12,-14,-3,4,-6,-9,-5,-4
0,-10,-12,-1,10,-13,-2,5,-5,-8,-5,-4
2,-8,-12,-3,10,-11,-1,6,-4,-7,-4,-3
5,-5,-12,-6,12,-10,0,7,-3,-6,-4,-3
5,-4,-12,-7,12,-10,-1,8,-3,-5,-4,-2
6,-3,-11,-7,12,-9,-1,8,-2,-5,-3,-2
7,-3,-12,-8,13,-9,-1,8,-2,-6,-3,-2
9,-3,-14,-9,15,-10,-2,8,-2,-6,-4,-2
8,-4,-14,-8,15,-10,-1,8,-2,-6,-4,-2
7,-4,-12,-8,13,-10,1,8,-1,-6,-3,-2
7,-3,-12,-8,13,-10,1,8,-1,-6,-3,-2
7,-4,-13,-7,13,-10,0,8,-1,-6,-4,-3
5,-5,-12,-7,12,-10,0,8,-1,-6,-4,-3
3,-5,-10,-5,10,-10,0,9,-1,-4,-4,-2
1,-6,-10,-4,9,-10,0,9,-1,-3,-4,-3
1,-6,-11,-4,9,-10,0,8,-1,-3,-4,-4
2,-8,-12,-3,10,-12,-1,8,-1,-4,-5,-4
2,-9,-12,-3,11,-12,0,8,-1,-4,-5,-5
2,-8,-12,-4,11,-11,0,8,0,-4,-5,-5
2,-8,-12,-3,10,-11,0,8,0,-4,-5,-5
0,-9,-11,-2,9,-11,0,8,0,-4,-5,-6
0,-9,-11,-2,9,-11,0,8,0,-4,-5,-6
0,-9,-11,-2,9,-11,0,9,0,-4,-5,-6
0,-9,-10,-1,8,-11,0,9,0,-3,-5,-5
0,-8,-9,-2,8,-10,1,10,1,-3,-5,-4
1,-6,-9,-4,8,-9,2,12,2,-2,-4,-4
1,-5,-9,-5,9,-9,2,12,2,-2,-4,-3
4,-4,-10,-6,10,-9,2,11,2,-2,-4,-3
5,-3,-10,-7,11,-8,3,11,2,-2,-3,-3
3,-4,-9,-6,9,-8,2,11,2,-2,-3,-3
2,-5,-9,-4,9,-8,2,11,2,-2,-4,-3
2,-5,-9,-4,9,-9,2,11,2,-2,-4,-4
1,-6,-9,-4,9,-9,2,11,2,-2,-4,-4
3,-5,-10,-6,10,-9,2,12,2,-2,-4,-4
5,-5,-11,-6,11,-10,2,12,2,-2,-5,-5
3,-6,-11,-5,11,-10,1,11,2,-3,-6,-6
1,-8,-11,-3,10,-11,1,11,1,-3,-6,-6
0,-10,-11,-1,9,-12,1,10,0,-5,-8,-7
-2,-12,-11,0,9,-13,1,10,0,-6,-8,-8
-2,-11,-10,0,8,-12,2,11,0,-5,-7,-7
-2,-10,-10,0,8,-12,3,12,1,-5,-7,-7
-2,-11,-10,0,7,-12,3,11,1,-5,-7,-8
-3,-11,-9,1,6,-12,3,11,1,-5,-7,-8
-2,-10,-9,0,7,-12,3,12,1,-5,-7,-8
2,-8,-11,-3,9,-11,3,12,1,-4,-7,-7
3,-8,-12,-4,11,-12,2,11,1,-4,-6,-7
2,-8,-12,-3,11,-12,1,11,1,-4,-6,-7
3,-8,-12,-4,11,-11,1,11,1,-4,-6,-7
2,-7,-12,-4,11,-11,1,11,1,-3,-6,-6
2,-7,-11,-4,10,-10,2,11,1,-3,-6,-6
3,-5,-11,-5,11,-10,3,11,2,-2,-5,-6
4,-5,-11,-6,11,-10,3,11,2,-2,-5,-6
4,-7,-13,-5,11,-11,2,11,2,-4,-6,-6
4,-9,-15,-4,13,-13,1,10,0,-5,-7,-7
3,-10,-15,-3,13,-13,2,10,0,-5,-8,-8
0,-11,-13,-2,11,-13,3,10,0,-5,-8,-8
-3,-12,-11,1,8,-13,3,10,0,-5,-8,-8
-6,-14,-11,3,6,-14,0,9,0,-6,-8,-9
-4,-15,-12,3,7,-16,-2,8,-2,-7,-10,-10
-3,-14,-14,2,8,-16,-2,7,-2,-7,-10,-11
-3,-14,-12,2,8,-15,-1,8,-2,-6,-9,-10
-2,-13,-12,2,8,-14,0,9,-1,-5,-8,-9
0,-10,-12,-1,9,-13,2,10,0,-4,-7,-7
2,-7,-10,-4,9,-10,3,11,0,-4,-6,-6
3,-7,-11,-5,11,-11,3,10,-1,-6,-7,-7
5,-6,-14,-6,13,-11,1,9,-2,-8,-9,-9
4,-7,-13,-5,13,-11,1,8,-2,-8,-9,-8
2,-8,-12,-3,10,-12,1,8,-1,-8,-9,-8
2,-9,-12,-3,10,-12,1,8,-1,-8,-9,-8
3,-9,-13,-3,11,-12,0,7,-2,-8,-10,-10
1,-10,-13,-2,10,-12,0,7,-2,-8,-10,-10
1,-10,-14,-2,11,-13,0,8,-2,-8,-10,-10
4,-9,-16,-4,13,-13,0,7,-3,-9,-11,-11
3,-10,-16,-4,13,-13,-1,6,-3,-8,-11,-10
0,-11,-14,-1,11,-14,-1,5,-4,-8,-11,-10
0,-12,-14,0,10,-15,-2,3,-5,-9,-11,-11
1,-12,-15,-1,11,-15,-2,3,-5,-9,-10,-10
1,-11,-15,-1,11,-15,-1,3,-5,-8,-9,-10
0,-11,-13,-1,9,-14,0,3,-4,-6,-8,-9
-1,-12,-12,-1,9,-14,0,3,-4,-6,-8,-8
0,-14,-15,0,11,-17,-2,2,-5,-8,-10,-10
0,-16,-17,1,11,-18,-3,2,-6,-10,-12,-11
-1,-15,-15,1,10,-16,-2,5,-5,-10,-11,-10
0,-12,-14,0,10,-15,-1,8,-5,-10,-9,-8
4,-8,-15,-5,13,-13,0,9,-5,-10,-8,-8
6,-5,-14,-7,14,-12,-1,10,-4,-9,-8,-8
5,-7,-14,-5,13,-13,-1,10,-4,-8,-8,-8
4,-9,-16,-4,13,-14,-3,8,-6,-9,-10,-9
3,-10,-16,-4,13,-14,-4,6,-6,-9,-11,-9
1,-10,-15,-3,12,-14,-2,6,-5,-8,-10,-9
3,-9,-15,-4,12,-13,-2,5,-5,-8,-10,-9
4,-9,-17,-4,14,-14,-2,2,-6,-9,-11,-10
0,-11,-15,-1,11,-14,-2,2,-6,-9,-11,-10
-2,-12,-14,1,8,-15,-2,2,-6,-9,-11,-10
-2,-13,-15,1,9,-16,-3,1,-7,-10,-12,-11
-1,-13,-15,0,10,-16,-4,1,-7,-11,-12,-11
1,-10,-15,-2,11,-14,-4,3,-7,-11,-11,-11
3,-8,-15,-4,13,-13,-3,4,-7,-11,-11,-10
3,-10,-15,-3,13,-14,-2,2,-7,-11,-10,-10
1,-13,-17,-1,13,-17,-3,0,-9,-13,-11,-11
0,-14,-17,0,11,-17,-4,0,-9,-13,-13,-12
-1,-13,-14,0,9,-15,-3,0,-9,-12,-13,-11
0,-11,-14,0,10,-14,-3,0,-8,-11,-12,-10
2,-10,-15,-3,12,-13,-3,1,-7,-10,-11,-9
6,-7,-15,-6,14,-12,-5,1,-7,-10,-10,-9
6,-6,-16,-6,14,-12,-5,1,-7,-10,-10,-9
5,-7,-15,-5,12,-12,-3,1,-7,-10,-10,-10
5,-6,-15,-7,13,-12,-2,2,-7,-11,-10,-10
6,-5,-15,-8,13,-12,-1,2,-7,-11,-9,-9
6,-5,-15,-8,14,-12,-1,3,-6,-10,-9,-9
5,-6,-15,-6,13,-12,-2,3,-5,-10,-9,-9
2,-7,-14,-4,12,-12,-2,3,-5,-10,-9,-9
0,-9,-13,-3,10,-12,-2,4,-5,-9,-8,-8
1,-8,-13,-4,10,-11,-1,5,-4,-7,-6,-7
5,-6,-14,-7,13,-11,0,6,-2,-6,-5,-5
8,-3,-14,-9,14,-11,1,8,-1,-4,-5,-4
8,-3,-14,-9,14,-11,2,10,0,-3,-4,-4
8,-4,-15,-9,14,-11,2,10,0,-3,-4,-4
6,-6,-15,-8,14,-11,2,9,-1,-4,-4,-4
3,-7,-13,-5,11,-11,2,9,-1,-4,-4,-4
2,-7,-12,-5,10,-9,3,9,-1,-4,-3,-4
6,-3,-12,-8,13,-8,4,9,0,-3,-2,-3
9,0,-12,-11,14,-7,5,10,2,-1,-1,-3
10,0,-12,-12,13,-7,5,11,2,-1,-1,-3
12,1,-15,-13,16,-8,3,10,0,-2,-2,-3
13,1,-16,-14,17,-9,1,9,0,-2,-3,-3
9,-1,-15,-11,15,-9,1,9,0,-2,-2,-2
8,-3,-15,-10,15,-9,0,9,0,-2,-2,-3
9,-3,-16,-10,16,-9,0,9,0,-2,-4,-4
9,-3,-15,-10,16,-9,0,9,0,-2,-4,-5
10,-2,-15,-10,16,-9,0,9,0,-2,-4,-5
12,-1,-16,-13,17,-9,-1,9,0,-4,-5,-5
15,0,-16,-15,19,-9,-1,8,-2,-5,-5,-4
13,1,-14,-14,17,-8,-2,8,-2,-5,-5,-3
10,1,-12,-13,14,-6,-2,8,-1,-5,-5,-2
8,0,-12,-12,14,-6,-3,6,-2,-5,-5,-2
9,0,-14,-12,15,-6,-7,2,-4,-6,-5,-3
11,0,-15,-12,17,-7,-10,0,-6,-8,-5,-4
12,-1,-16,-12,17,-8,-10,-2,-6,-7,-5,-4
11,-3,-17,-11,17,-10,-11,-1,-6,-7,-4,-5
11,-5,-20,-10,19,-13,-12,-2,-7,-8,-5,-6
12,-6,-22,-10,21,-15,-12,-2,-8,-9,-5,-6
12,-5,-22,-10,20,-14,-11,0,-7,-9,-5,-4
12,-3,-20,-11,20,-13,-8,2,-6,-9,-4,-3
12,-2,-20,-11,20,-11,-7,2,-6,-9,-4,-2
12,-2,-20,-11,20,-11,-7,0,-7,-9,-5,-3
11,-4,-19,-10,19,-11,-8,-1,-7,-9,-6,-4
10,-5,-19,-9,18,-11,-8,-1,-7,-8,-6,-4
10,-5,-19,-9,18,-12,-8,-1,-6,-7,-5,-4
11,-5,-19,-11,19,-12,-8,-1,-6,-6,-5,-3
11,-5,-20,-10,19,-12,-9,-1,-8,-7,-5,-4
10,-6,-20,-8,19,-14,-10,-3,-9,-8,-7,-5
10,-6,-20,-8,19,-13,-10,-2,-8,-8,-6,-4
11,-5,-21,-9,19,-13,-10,-1,-7,-8,-5,-3
11,-6,-21,-9,20,-14,-10,-2,-8,-10,-6,-4
10,-7,-21,-8,19,-14,-11,-3,-10,-11,-7,-5
8,-7,-21,-8,19,-14,-11,-3,-10,-10,-7,-6
5,-10,-19,-5,17,-15,-10,-3,-9,-9,-8,-7
0,-12,-18,-2,13,-15,-8,-1,-7,-9,-7,-6
3,-9,-18,-5,14,-14,-5,0,-7,-9,-7,-5
10,-5,-19,-9,18,-13,-5,0,-8,-10,-8,-6
9,-5,-19,-9,18,-13,-7,-1,-9,-10,-8,-6
6,-8,-18,-5,17,-13,-9,-2,-9,-10,-7,-6
4,-11,-19,-3,16,-14,-11,-3,-9,-9,-7,-8
2,-12,-19,-2,15,-15,-10,-5,-11,-10,-8,-9
2,-13,-19,-2,14,-15,-9,-5,-11,-11,-9,-9
1,-13,-19,-2,14,-15,-7,-5,-11,-12,-11,-10
0,-14,-19,0,14,-17,-7,-6,-13,-14,-12,-12
-1,-17,-20,1,14,-19,-8,-8,-15,-15,-15,-14
-2,-19,-20,4,13,-20,-8,-9,-16,-15,-17,-16
-2,-19,-20,4,13,-20,-7,-8,-14,-15,-18,-16
-1,-16,-19,2,13,-18,-5,-5,-13,-15,-17,-13
0,-12,-18,-1,13,-15,-5,-3,-12,-15,-14,-11
3,-11,-20,-3,14,-15,-5,-3,-13,-16,-13,-10
1,-13,-21,-2,14,-16,-7,-5,-13,-16,-13,-9
-1,-14,-20,0,12,-17,-9,-5,-14,-16,-13,-9
-2,-15,-19,1,12,-17,-9,-6,-14,-15,-13,-10
-1,-16,-20,1,13,-19,-7,-6,-14,-15,-13,-11
0,-16,-21,1,15,-20,-7,-6,-14,-15,-14,-11
-1,-16,-20,2,13,-19,-6,-5,-13,-14,-13,-10
-3,-16,-18,3,12,-17,-6,-5,-13,-15,-12,-10
-3,-16,-18,3,11,-17,-6,-6,-15,-16,-14,-11
-3,-17,-18,3,11,-17,-6,-6,-15,-15,-14,-12
-2,-15,-18,1,12,-17,-6,-5,-13,-13,-14,-12
0,-14,-19,0,13,-17,-6,-5,-12,-12,-14,-12
1,-14,-19,0,14,-17,-6,-4,-11,-12,-14,-12
1,-14,-20,0,14,-17,-6,-4,-12,-14,-14,-13
0,-15,-19,1,13,-17,-6,-4,-14,-16,-15,-13
-3,-15,-18,2,11,-17,-6,-5,-14,-16,-15,-13
-4,-14,-17,1,10,-16,-6,-5,-15,-16,-15,-13
-1,-13,-18,0,11,-16,-6,-6,-15,-15,-15,-13
-1,-13,-18,0,11,-16,-6,-5,-13,-13,-14,-12
-1,-13,-17,0,10,-15,-4,-3,-12,-12,-13,-11
-1,-13,-17,0,11,-15,-4,-3,-11,-12,-13,-10
-1,-13,-17,0,12,-15,-4,-3,-11,-12,-13,-10
-1,-13,-17,0,12,-15,-4,-3,-12,-13,-13,-11
-1,-14,-18,1,12,-16,-5,-3,-13,-14,-13,-12
-3,-16,-18,2,11,-17,-5,-4,-13,-13,-12,-11
-4,-17,-18,3,11,-18,-6,-4,-13,-12,-12,-11
-5,-17,-18,4,10,-18,-7,-4,-13,-11,-12,-11
-3,-17,-19,3,11,-18,-7,-4,-13,-11,-12,-12
-2,-16,-19,1,12,-18,-6,-4,-13,-12,-13,-13
-1,-16,-19,1,12,-18,-6,-4,-14,-14,-15,-13
-1,-15,-19,1,12,-17,-4,-2,-13,-15,-15,-13
-1,-14,-17,1,10,-16,-1,1,-11,-14,-15,-13
-3,-16,-19,2,10,-18,0,3,-10,-14,-17,-15
-3,-19,-23,4,13,-21,1,5,-10,-16,-19,-17
-1,-20,-26,3,15,-23,3,8,-10,-16,-21,-18
-1,-22,-27,4,16,-26,5,11,-9,-16,-22,-20
-5,-26,-28,8,15,-28,7,14,-7,-15,-23,-21
-5,-30,-30,10,16,-30,8,17,-6,-15,-25,-23
-4,-32,-33,10,17,-32,8,21,-5,-15,-26,-26
-1,-31,-35,9,20,-33,9,28,0,-12,-23,-25
8,-23,-38,0,26,-30,12,37,7,-3,-15,-20
22,-10,-38,-13,33,-24,13,49,18,10,-2,-11
28,1,-33,-22,34,-16,14,61,31,26,14,3
31,12,-25,-29,31,-7,14,71,44,42,32,19
36,26,-17,-39,31,3,12,76,57,58,52,36
45,45,-6,-52,29,19,9,80,70,76,77,59
55,67,7,-68,28,37,4,80,83,96,105,84
67,87,15,-84,30,51,-4,76,92,112,130,109
81,106,19,-101,34,62,-14,68,96,125,152,131
93,123,24,-116,37,73,-26,59,98,137,175,152
101,138,31,-127,37,83,-36,51,103,150,199,175
110,155,39,-140,38,96,-46,43,111,164,224,199
114,172,51,-151,35,111,-55,30,115,175,244,221
105,180,69,-150,22,124,-61,6,111,175,251,232
81,180,94,-137,-2,137,-65,-26,98,168,243,230
43,171,123,-115,-36,147,-64,-62,81,155,223,217
8,157,143,-90,-64,149,-59,-92,61,136,194,195
-12,139,145,-70,-76,141,-57,-114,38,109,160,169
-21,114,129,-54,-72,120,-57,-128,12,74,116,134
-24,86,104,-39,-61,94,-55,-129,-8,41,72,96
-25,64,84,-27,-51,73,-53,-118,-16,23,44,70
-24,49,69,-20,-42,59,-50,-105,-16,15,32,54
-22,40,57,-16,-35,48,-47,-91,-13,13,26,44
-21,30,45,-12,-29,37,-41,-75,-10,11,18,31
-20,19,33,-7,-23,26,-32,-59,-7,9,9,17
-18,11,23,-5,-17,16,-26,-46,-6,7,0,5
-15,5,13,-3,-11,8,-21,-37,-8,3,-6,-3
-11,0,5,-1,-5,1,-17,-30,-9,0,-11,-8
-9,-3,0,-1,-1,-2,-13,-23,-10,-6,-14,-10
-6,-6,-5,-1,3,-6,-10,-19,-13,-13,-17,-11
-6,-9,-9,0,5,-9,-10,-18,-16,-18,-18,-12
-10,-13,-8,4,3,-10,-10,-16,-16,-18,-18,-12
-12,-15,-9,6,2,-12,-10,-14,-16,-17,-20,-14
-9,-15,-12,5,4,-14,-10,-13,-16,-17,-22,-17
-7,-15,-14,4,6,-15,-10,-12,-18,-19,-23,-20
-6,-15,-15,2,7,-15,-9,-11,-18,-21,-23,-20
-6,-15,-15,2,7,-15,-7,-10,-18,-21,-22,-19
-7,-17,-14,4,7,-16,-7,-11,-18,-21,-22,-19
-9,-19,-14,7,6,-17,-7,-12,-18,-21,-23,-19
-7,-19,-16,6,8,-18,-8,-13,-18,-20,-24,-20
-6,-19,-18,5,9,-18,-9,-13,-19,-20,-25,-23
-7,-20,-19,6,8,-20,-9,-12,-19,-19,-26,-24
-6,-20,-20,6,9,-20,-8,-11,-19,-18,-26,-24
-5,-19,-20,5,9,-20,-8,-9,-20,-19,-27,-25
-5,-19,-19,5,8,-20,-7,-9,-20,-20,-26,-23
-4,-18,-20,4,10,-20,-7,-9,-20,-21,-25,-22
-1,-18,-22,2,14,-21,-8,-10,-22,-23,-26,-22
-3,-21,-22,4,13,-21,-8,-11,-23,-24,-28,-23
-9,-23,-19,8,9,-20,-6,-9,-22,-25,-28,-23
-10,-25,-19,10,8,-22,-6,-7,-21,-25,-27,-23
-9,-26,-22,10,9,-24,-9,-7,-22,-26,-28,-24
-9,-26,-23,10,9,-26,-10,-7,-24,-28,-29,-24
-8,-25,-23,9,10,-26,-9,-7,-24,-28,-29,-24
-5,-22,-23,6,10,-23,-7,-6,-22,-28,-29,-23
-3,-19,-22,3,12,-21,-5,-5,-20,-27,-29,-22
0,-18,-22,1,13,-20,-4,-5,-20,-25,-29,-22
-2,-19,-22,3,13,-20,-4,-5,-20,-25,-29,-22
-3,-19,-21,3,12,-20,-4,-5,-20,-25,-27,-21
-2,-18,-21,3,12,-20,-5,-5,-21,-23,-26,-21
-3,-18,-21,3,11,-20,-5,-6,-21,-21,-25,-22
-5,-20,-21,5,9,-22,-6,-7,-20,-18,-25,-24
-6,-21,-22,6,9,-23,-7,-7,-20,-17,-26,-25
-6,-22,-22,6,9,-23,-8,-7,-21,-21,-27,-25
-6,-22,-21,6,9,-21,-8,-6,-21,-25,-27,-24
-5,-20,-20,5,10,-20,-7,-5,-21,-27,-27,-22
-2,-19,-21,3,12,-20,-7,-6,-22,-27,-28,-23
-2,-18,-21,3,13,-20,-7,-7,-23,-26,-29,-24
-4,-19,-20,4,10,-20,-6,-7,-23,-24,-30,-23
-6,-20,-20,5,10,-21,-6,-7,-24,-25,-31,-25
