leadI,leadII,leadIII,leadaVR,leadaVL,leadaVF,leadV1,leadV2,leadV3,leadV4,leadV5,leadV6
12,20,8,-16,2,14,-5,0,8,26,43,38
33,53,20,-43,7,36,-16,-2,18,68,112,102
48,74,26,-61,11,50,-26,-6,18,89,152,141
60,86,27,-73,16,57,-35,-11,12,96,169,158
69,91,22,-80,24,56,-41,-14,5,93,165,157
76,88,11,-82,33,50,-47,-16,-2,80,145,141
80,78,-2,-79,41,38,-51,-18,-15,58,112,113
81,62,-19,-72,50,22,-55,-24,-35,25,69,77
79,42,-37,-61,57,2,-56,-31,-59,-17,17,36
73,19,-54,-47,63,-17,-54,-39,-86,-67,-40,-9
64,-3,-67,-31,65,-35,-50,-47,-113,-119,-102,-57
56,-23,-78,-16,66,-50,-46,-54,-137,-169,-163,-105
50,-40,-90,-5,70,-65,-42,-58,-156,-210,-216,-147
46,-57,-103,5,75,-80,-37,-59,-167,-240,-257,-181
41,-71,-113,15,78,-92,-32,-58,-173,-258,-284,-206
35,-81,-116,23,76,-99,-26,-56,-172,-265,-298,-222
28,-86,-114,28,71,-100,-19,-52,-166,-262,-302,-230
20,-87,-107,32,64,-97,-12,-47,-154,-252,-297,-230
13,-84,-97,35,55,-91,-6,-41,-140,-238,-287,-226
4,-81,-85,37,45,-83,-1,-34,-124,-222,-275,-220
-4,-78,-73,41,34,-76,3,-29,-112,-208,-263,-214
-11,-77,-65,43,27,-71,7,-25,-101,-196,-253,-209
-15,-76,-61,45,23,-69,11,-22,-92,-185,-243,-204
-17,-76,-60,46,21,-68,14,-18,-83,-174,-234,-198
-18,-77,-59,47,20,-68,17,-15,-74,-165,-226,-193
-19,-76,-58,47,19,-67,20,-13,-67,-157,-219,-189
-21,-74,-52,48,15,-64,23,-10,-61,-150,-213,-185
-26,-73,-46,49,10,-60,26,-7,-56,-144,-207,-182
-28,-73,-43,50,8,-58,27,-6,-53,-139,-203,-180
-31,-73,-41,51,5,-56,29,-5,-51,-135,-199,-178
-33,-71,-38,52,2,-54,30,-4,-48,-130,-194,-175
-31,-68,-37,50,2,-52,30,-3,-45,-127,-191,-173
-27,-64,-37,46,4,-51,29,-4,-44,-125,-189,-172
-26,-63,-37,44,5,-50,29,-4,-43,-123,-187,-171
-31,-64,-33,47,1,-49,30,-3,-41,-121,-185,-170
-35,-67,-31,51,-2,-49,32,-1,-38,-118,-182,-168
-36,-69,-33,52,-2,-51,32,0,-37,-116,-180,-167
-36,-70,-34,53,-1,-51,33,1,-35,-115,-178,-166
-36,-69,-32,52,-2,-50,33,3,-34,-112,-175,-163
-35,-67,-31,51,-2,-49,34,4,-32,-110,-172,-161
-35,-67,-32,50,-2,-49,34,4,-32,-109,-171,-160
-35,-69,-34,51,-1,-51,33,3,-33,-109,-171,-160
-36,-70,-34,53,-1,-52,33,3,-33,-109,-171,-159
-36,-69,-32,52,-2,-51,34,4,-31,-108,-169,-158
-36,-68,-31,52,-3,-49,35,5,-30,-106,-167,-157
-37,-67,-30,52,-3,-48,36,5,-29,-105,-165,-156
-37,-66,-29,51,-4,-47,37,4,-29,-104,-164,-155
-37,-65,-29,51,-4,-46,37,3,-28,-103,-162,-154
-37,-65,-28,51,-4,-46,36,2,-27,-103,-161,-153
-37,-65,-27,51,-5,-46,36,1,-26,-102,-159,-152
-37,-64,-27,50,-5,-46,35,0,-26,-102,-158,-152
-37,-64,-26,50,-6,-45,35,-1,-26,-101,-158,-151
-39,-66,-26,51,-6,-46,35,-2,-26,-101,-158,-151
-41,-70,-27,55,-6,-49,35,-4,-27,-102,-158,-152
-43,-72,-28,57,-6,-50,35,-6,-27,-102,-158,-151
-43,-73,-28,57,-7,-50,35,-6,-26,-101,-156,-150
-43,-70,-27,56,-8,-49,36,-7,-25,-100,-155,-148
-43,-68,-25,55,-9,-47,36,-9,-25,-99,-154,-147
-43,-66,-23,54,-9,-46,36,-10,-25,-99,-153,-146
-41,-65,-23,53,-9,-45,36,-9,-25,-97,-151,-145
-39,-63,-24,50,-7,-44,36,-8,-23,-96,-149,-143
-37,-62,-24,49,-6,-43,36,-8,-23,-95,-148,-142
-38,-63,-24,50,-7,-43,36,-7,-23,-94,-147,-142
-39,-63,-23,51,-8,-43,36,-7,-23,-94,-147,-142
-40,-63,-22,51,-9,-43,36,-7,-24,-93,-146,-141
-40,-61,-21,50,-9,-42,36,-6,-24,-92,-145,-140
-39,-59,-20,48,-9,-40,37,-5,-24,-91,-144,-138
-37,-58,-21,47,-8,-40,37,-4,-24,-91,-143,-137
-36,-58,-22,46,-7,-40,37,-3,-24,-90,-143,-137
-35,-57,-22,45,-6,-40,37,-2,-24,-90,-142,-136
-35,-56,-21,45,-7,-39,37,-2,-25,-89,-141,-136
-36,-56,-20,45,-8,-38,37,-1,-25,-89,-141,-136
-38,-58,-19,48,-9,-38,37,-1,-26,-89,-140,-136
-40,-60,-20,49,-10,-39,37,0,-25,-88,-140,-135
-39,-60,-21,49,-9,-40,37,1,-25,-87,-139,-134
-39,-60,-21,49,-9,-40,37,2,-25,-86,-139,-134
-39,-60,-20,49,-10,-40,35,2,-26,-86,-139,-133
-42,-63,-20,51,-10,-42,34,2,-27,-86,-139,-134
-45,-67,-21,55,-11,-44,33,2,-28,-87,-140,-134
-47,-69,-21,58,-12,-45,32,2,-28,-87,-140,-135
-48,-69,-21,58,-12,-45,31,2,-28,-86,-139,-135
-47,-67,-20,57,-13,-43,31,2,-27,-85,-138,-134
-46,-63,-17,55,-14,-40,31,3,-27,-84,-137,-133
-46,-61,-15,53,-15,-38,31,4,-26,-83,-136,-132
-45,-61,-16,53,-15,-39,31,5,-26,-82,-136,-131
-45,-62,-18,53,-14,-40,30,5,-25,-82,-135,-131
-42,-62,-20,52,-11,-41,31,6,-24,-81,-134,-129
-38,-60,-20,49,-9,-40,32,7,-22,-79,-133,-128
-36,-59,-21,47,-8,-40,32,7,-21,-78,-132,-127
-35,-60,-24,47,-5,-42,31,6,-22,-78,-132,-127
-35,-62,-27,48,-4,-44,29,5,-24,-80,-133,-128
-38,-64,-26,51,-6,-45,28,4,-25,-81,-134,-128
-41,-63,-22,52,-10,-44,27,4,-24,-81,-134,-128
-41,-62,-20,51,-10,-42,27,5,-22,-79,-132,-126
-39,-60,-20,49,-9,-40,28,6,-20,-77,-130,-124
-39,-60,-19,49,-10,-39,27,7,-19,-76,-129,-123
-41,-62,-18,51,-11,-40,27,7,-19,-76,-129,-123
-41,-63,-20,52,-10,-41,26,7,-19,-76,-130,-123
-41,-62,-20,52,-10,-41,27,7,-19,-76,-130,-122
-42,-60,-19,51,-11,-39,27,7,-19,-76,-130,-122
-42,-60,-18,51,-12,-39,27,7,-19,-75,-131,-121
-41,-60,-18,51,-11,-40,27,6,-19,-75,-131,-121
-40,-60,-19,50,-10,-40,27,5,-20,-75,-132,-122
-40,-60,-19,50,-10,-40,28,4,-20,-76,-132,-122
-40,-60,-18,50,-11,-40,29,4,-20,-76,-132,-122
-40,-59,-17,50,-11,-39,29,3,-20,-76,-132,-121
-39,-58,-17,48,-11,-38,30,3,-20,-75,-131,-120
-39,-58,-18,48,-10,-38,30,3,-20,-75,-130,-120
-42,-60,-18,51,-12,-39,30,2,-21,-75,-130,-120
-44,-62,-18,53,-13,-40,29,1,-21,-75,-130,-120
-43,-61,-18,52,-12,-39,29,1,-20,-75,-129,-120
-42,-59,-17,50,-12,-38,29,2,-19,-73,-128,-119
-41,-57,-15,48,-12,-36,29,3,-18,-72,-126,-117
-39,-54,-14,46,-12,-34,29,3,-17,-71,-125,-116
-39,-51,-11,45,-14,-31,30,4,-16,-70,-124,-115
-40,-49,-8,45,-16,-28,30,5,-15,-69,-123,-114
-38,-48,-9,43,-14,-29,29,5,-15,-69,-123,-114
-34,-47,-14,40,-10,-31,27,4,-16,-70,-123,-115
-34,-47,-14,40,-10,-31,26,5,-16,-69,-122,-114
-37,-48,-11,42,-13,-29,26,6,-15,-68,-120,-113
-37,-48,-10,42,-13,-29,25,6,-15,-67,-119,-112
-37,-47,-10,42,-13,-28,25,6,-15,-66,-118,-111
-37,-48,-9,42,-14,-28,25,5,-15,-65,-117,-110
-36,-48,-10,42,-13,-29,25,3,-16,-66,-117,-110
-37,-47,-10,42,-13,-28,25,2,-16,-66,-117,-110
-37,-47,-9,41,-14,-28,26,2,-16,-66,-116,-109
-35,-46,-10,40,-13,-28,25,1,-17,-66,-115,-108
-34,-45,-10,39,-12,-28,24,1,-17,-65,-114,-107
-34,-44,-9,38,-12,-27,23,1,-17,-64,-113,-106
-33,-44,-9,38,-12,-26,22,1,-18,-64,-112,-106
-34,-44,-8,38,-13,-26,21,1,-18,-63,-111,-106
-34,-43,-7,38,-14,-25,21,2,-17,-62,-111,-105
-34,-42,-8,38,-13,-25,21,3,-16,-61,-111,-104
-34,-43,-9,39,-13,-26,21,2,-16,-61,-111,-103
-36,-45,-9,41,-14,-26,20,0,-17,-62,-112,-103
-38,-46,-8,42,-15,-27,19,-1,-19,-63,-114,-104
-39,-47,-8,42,-16,-27,18,-2,-19,-63,-115,-103
-39,-46,-7,42,-16,-26,18,-2,-19,-63,-115,-102
-38,-45,-6,41,-16,-26,18,-2,-20,-63,-115,-102
-37,-43,-6,40,-15,-25,18,-3,-20,-63,-115,-101
-35,-41,-6,38,-15,-23,18,-3,-21,-62,-114,-101
-33,-38,-5,36,-14,-22,18,-3,-21,-62,-114,-100
-32,-36,-3,34,-14,-20,18,-3,-21,-62,-113,-100
-31,-34,-2,33,-14,-18,17,-3,-20,-62,-113,-99
-31,-33,-2,32,-14,-18,18,-3,-20,-61,-112,-98
-31,-33,-1,32,-14,-17,18,-2,-19,-61,-111,-96
-32,-34,-1,32,-15,-18,17,-2,-18,-60,-110,-94
-33,-36,-2,33,-15,-19,17,-2,-18,-59,-109,-94
-33,-37,-3,34,-15,-20,16,-2,-19,-59,-109,-94
-35,-38,-3,36,-16,-20,16,-2,-19,-60,-109,-94
-36,-39,-3,38,-17,-21,16,-2,-19,-60,-109,-94
-37,-41,-4,39,-17,-23,16,-3,-20,-60,-109,-94
-38,-42,-4,40,-17,-23,16,-3,-20,-61,-109,-94
-39,-41,-1,40,-19,-21,17,-2,-21,-60,-109,-93
-39,-40,0,40,-20,-20,18,-2,-21,-61,-109,-92
-37,-40,-3,39,-17,-22,18,-3,-22,-62,-110,-93
-35,-40,-5,37,-15,-23,17,-3,-23,-63,-110,-93
-36,-40,-4,38,-16,-22,17,-3,-23,-63,-110,-93
-39,-40,-1,39,-19,-21,17,-3,-23,-63,-110,-92
-39,-41,-2,40,-19,-21,16,-3,-23,-63,-109,-92
-37,-43,-5,40,-16,-24,15,-3,-24,-64,-110,-92
-36,-45,-9,40,-13,-27,14,-4,-26,-65,-111,-93
-35,-45,-10,40,-12,-28,13,-3,-26,-65,-111,-93
-35,-45,-9,40,-13,-27,12,-2,-25,-65,-111,-93
-36,-45,-8,41,-14,-27,13,0,-24,-65,-110,-91
-36,-44,-7,40,-15,-26,14,1,-24,-64,-109,-90
-34,-42,-8,37,-13,-25,15,2,-23,-64,-108,-89
-30,-39,-9,34,-11,-24,16,2,-23,-63,-107,-88
-29,-38,-9,33,-10,-23,17,2,-23,-63,-106,-88
-27,-37,-9,32,-9,-23,17,1,-23,-63,-106,-87
-25,-36,-10,31,-8,-23,17,1,-23,-63,-107,-87
-26,-37,-10,31,-8,-23,17,1,-24,-63,-107,-87
-29,-38,-8,33,-10,-23,16,1,-24,-63,-106,-86
-31,-39,-7,35,-12,-23,16,1,-25,-63,-106,-86
-32,-39,-7,35,-12,-23,15,1,-25,-64,-106,-86
-32,-39,-8,36,-12,-24,13,0,-26,-64,-106,-86
-31,-39,-8,35,-12,-23,12,0,-26,-64,-106,-86
-29,-37,-8,33,-11,-22,12,1,-25,-64,-106,-86
-26,-35,-8,31,-9,-22,13,2,-25,-63,-105,-85
-26,-35,-9,31,-8,-22,14,2,-25,-63,-104,-84
-26,-36,-10,31,-8,-23,15,1,-25,-64,-105,-84
-26,-38,-12,32,-7,-24,16,1,-26,-64,-105,-84
-27,-39,-13,33,-7,-25,17,1,-26,-64,-105,-83
-27,-40,-13,33,-8,-26,17,1,-26,-64,-104,-82
-28,-42,-13,35,-8,-27,16,1,-27,-64,-104,-82
-29,-44,-14,36,-7,-29,16,1,-27,-64,-104,-82
-29,-44,-14,36,-8,-29,16,2,-27,-64,-104,-81
-30,-43,-12,37,-9,-27,17,3,-26,-63,-103,-80
-31,-43,-11,37,-10,-27,16,4,-26,-63,-102,-80
-30,-43,-12,36,-9,-27,15,4,-26,-63,-102,-80
-29,-42,-13,35,-8,-27,15,5,-25,-62,-102,-80
-29,-41,-12,34,-8,-26,15,6,-24,-62,-101,-79
-28,-40,-13,33,-7,-26,15,5,-25,-63,-102,-80
-25,-39,-14,31,-5,-27,14,5,-25,-64,-102,-80
-23,-39,-15,30,-4,-27,14,4,-26,-65,-103,-80
-22,-39,-16,30,-3,-28,14,4,-26,-65,-103,-80
-21,-38,-16,30,-3,-27,14,5,-26,-65,-103,-80
-23,-37,-13,30,-5,-25,16,6,-25,-64,-102,-78
-25,-36,-11,30,-7,-23,17,7,-24,-64,-101,-77
-22,-36,-14,29,-4,-25,16,7,-25,-64,-102,-78
-20,-37,-17,28,-2,-27,16,8,-24,-64,-101,-77
-24,-37,-14,30,-5,-25,18,10,-21,-62,-99,-75
-28,-38,-10,33,-9,-24,19,12,-20,-61,-98,-73
-27,-40,-12,34,-8,-26,18,11,-21,-62,-99,-74
-23,-41,-18,32,-3,-29,17,9,-23,-65,-102,-77
-20,-41,-21,31,0,-31,16,7,-24,-67,-103,-79
-20,-42,-22,31,1,-32,15,6,-25,-67,-104,-80
-21,-43,-21,32,0,-32,15,6,-25,-67,-104,-80
-22,-42,-20,32,-1,-31,14,6,-25,-67,-104,-79
-19,-42,-22,30,0,-32,13,5,-26,-68,-104,-79
-18,-42,-23,29,2,-33,12,3,-26,-68,-104,-79
-19,-43,-22,30,0,-32,13,3,-26,-68,-104,-79
-21,-42,-20,31,-1,-31,13,4,-25,-67,-102,-78
-21,-41,-19,31,-1,-30,13,3,-24,-67,-101,-77
-21,-39,-18,30,-1,-29,13,3,-23,-67,-101,-76
-19,-38,-19,29,0,-28,12,2,-23,-67,-101,-76
-19,-38,-19,29,0,-28,12,1,-23,-67,-101,-76
-21,-39,-18,30,-2,-29,11,0,-23,-67,-101,-77
-22,-40,-18,31,-2,-29,9,-1,-23,-67,-101,-77
-22,-39,-17,31,-3,-28,8,-2,-24,-67,-101,-77
-22,-38,-15,30,-3,-27,8,-3,-24,-67,-101,-77
-23,-37,-14,30,-4,-25,8,-3,-23,-66,-100,-76
-25,-37,-13,31,-6,-25,8,-3,-23,-66,-99,-75
-25,-38,-13,32,-6,-26,8,-4,-22,-65,-98,-75
-25,-39,-14,32,-5,-27,7,-5,-22,-65,-98,-75
-25,-39,-15,32,-5,-27,5,-7,-23,-65,-98,-76
-24,-39,-14,31,-5,-27,3,-8,-22,-64,-98,-75
-24,-38,-14,31,-5,-26,3,-8,-22,-64,-97,-74
-22,-37,-14,30,-4,-26,4,-9,-22,-63,-97,-74
-22,-37,-13,29,-4,-25,5,-10,-22,-63,-96,-74
-23,-37,-13,30,-4,-25,6,-11,-22,-63,-96,-75
-22,-38,-15,30,-3,-27,7,-11,-22,-63,-96,-75
-19,-37,-18,28,0,-28,7,-12,-22,-62,-96,-75
-16,-34,-18,25,1,-27,8,-11,-21,-61,-95,-75
-17,-33,-16,25,-1,-24,10,-10,-19,-59,-93,-74
-21,-32,-11,26,-5,-22,11,-9,-17,-57,-91,-72
-23,-31,-8,27,-7,-20,12,-7,-15,-55,-89,-71
-23,-31,-7,27,-8,-19,11,-7,-15,-55,-89,-71
-24,-31,-6,27,-9,-19,10,-7,-14,-55,-89,-71
-24,-30,-5,27,-9,-18,9,-7,-14,-54,-89,-71
-25,-29,-4,27,-10,-17,9,-6,-12,-52,-87,-71
-25,-29,-4,27,-10,-17,9,-5,-11,-51,-86,-70
-26,-30,-4,28,-11,-17,8,-5,-11,-50,-86,-70
-27,-31,-3,29,-11,-17,8,-5,-10,-49,-85,-70
-27,-31,-3,29,-11,-16,8,-5,-9,-48,-84,-69
-25,-30,-4,28,-10,-17,8,-4,-7,-47,-83,-68
-23,-29,-4,26,-9,-16,8,-3,-6,-46,-82,-68
-23,-26,-3,25,-9,-15,8,-2,-5,-45,-81,-67
-24,-26,-2,25,-11,-14,8,-1,-4,-44,-80,-67
-24,-26,-1,26,-12,-14,9,-1,-3,-43,-80,-67
-25,-26,0,26,-13,-13,10,-1,-3,-42,-79,-66
-25,-25,1,26,-13,-12,11,-1,-2,-41,-78,-66
-26,-26,1,26,-13,-12,11,-1,-2,-39,-77,-65
-26,-27,0,26,-12,-13,11,0,-2,-38,-76,-65
-26,-27,0,26,-12,-13,10,-1,-1,-38,-76,-65
-26,-26,1,26,-13,-13,10,-1,-1,-37,-75,-65
-27,-26,1,26,-14,-12,10,-1,0,-36,-74,-64
-28,-27,1,27,-14,-13,10,-1,0,-35,-74,-64
-30,-29,1,29,-15,-13,9,-1,0,-34,-73,-64
-32,-31,1,31,-17,-14,9,-1,1,-33,-72,-63
-36,-33,3,34,-19,-14,8,-2,1,-33,-72,-63
-37,-33,4,35,-20,-14,7,-3,1,-33,-72,-63
-35,-32,3,33,-19,-14,6,-3,1,-32,-70,-62
-35,-31,3,33,-19,-14,6,-3,1,-31,-69,-61
-37,-32,4,34,-20,-14,5,-3,2,-29,-67,-60
-36,-31,4,34,-20,-14,4,-3,3,-28,-66,-59
-35,-30,4,32,-20,-13,5,-3,3,-27,-66,-58
-32,-28,3,30,-18,-12,6,-2,4,-26,-65,-57
-29,-26,3,28,-16,-11,7,-1,4,-25,-64,-56
-28,-25,3,26,-16,-10,9,1,5,-23,-62,-55
-27,-23,5,25,-16,-8,13,4,8,-20,-58,-53
-26,-20,6,23,-17,-6,15,7,11,-17,-55,-50
-25,-18,7,21,-17,-5,16,8,13,-15,-53,-49
-24,-16,6,20,-16,-5,17,9,14,-14,-52,-48
-21,-15,5,18,-14,-4,17,9,14,-13,-51,-48
-19,-14,5,17,-13,-4,17,9,14,-13,-51,-48
-20,-16,5,18,-13,-4,18,9,14,-12,-50,-47
-22,-17,7,20,-15,-4,17,9,14,-12,-50,-47
-25,-17,8,21,-16,-4,16,9,14,-12,-50,-47
-27,-19,8,23,-17,-5,15,9,13,-12,-50,-47
-28,-20,8,24,-18,-6,15,9,13,-11,-49,-47
-29,-20,9,25,-20,-6,15,9,14,-11,-48,-46
-28,-19,9,24,-19,-5,15,10,14,-10,-47,-45
-24,-18,6,21,-15,-6,16,10,14,-10,-47,-45
-22,-18,4,21,-13,-7,16,10,14,-10,-46,-44
-24,-18,6,21,-15,-6,16,10,14,-9,-46,-43
-26,-17,8,22,-17,-4,17,12,14,-8,-44,-42
-25,-17,9,21,-17,-4,18,13,15,-7,-43,-41
-25,-16,9,21,-17,-4,18,13,15,-7,-43,-40
-27,-17,10,22,-19,-3,17,12,14,-8,-43,-40
-30,-18,12,24,-22,-3,17,12,14,-8,-43,-40
-32,-19,13,25,-23,-3,17,13,14,-8,-42,-40
-31,-19,12,25,-22,-3,17,13,14,-8,-42,-39
-30,-20,11,26,-21,-4,17,13,14,-7,-41,-39
-30,-22,9,26,-20,-6,17,14,14,-7,-41,-39
-31,-24,8,27,-19,-7,17,15,14,-7,-40,-39
-32,-25,8,28,-20,-8,16,14,13,-7,-40,-39
-32,-25,8,28,-21,-8,15,14,13,-8,-41,-40
-32,-25,7,28,-20,-9,14,13,12,-9,-42,-41
-33,-26,7,29,-21,-9,15,13,11,-10,-42,-41
-35,-26,9,31,-23,-8,16,13,11,-10,-42,-41
-36,-25,11,31,-24,-6,17,13,11,-10,-42,-40
-35,-24,11,30,-23,-6,17,13,10,-11,-43,-41
-35,-25,10,31,-23,-7,16,12,9,-12,-43,-41
-37,-27,10,32,-24,-8,16,12,8,-13,-43,-41
-36,-27,10,32,-24,-8,16,12,7,-13,-43,-41
-36,-26,11,31,-24,-8,16,12,7,-13,-43,-41
-37,-26,11,32,-25,-8,15,12,7,-14,-43,-42
-38,-27,11,33,-25,-8,15,13,6,-14,-43,-42
-38,-27,11,33,-25,-8,15,13,6,-14,-43,-41
-40,-27,13,34,-27,-7,15,12,6,-15,-44,-41
-43,-29,14,36,-30,-7,14,11,4,-17,-45,-43
-43,-30,13,37,-29,-8,13,10,2,-19,-47,-44
-41,-30,12,35,-27,-8,13,11,1,-19,-47,-45
-39,-28,12,34,-26,-8,14,12,1,-19,-46,-44
-38,-27,12,33,-25,-7,14,12,2,-18,-46,-43
-37,-27,11,32,-24,-8,13,12,1,-19,-46,-43
-37,-27,10,33,-24,-8,13,11,0,-20,-47,-44
-38,-28,10,33,-24,-9,13,10,0,-21,-48,-45
-38,-28,10,33,-25,-9,14,10,0,-21,-47,-45
-39,-28,11,34,-25,-9,16,11,0,-21,-47,-44
-39,-28,11,34,-25,-9,18,12,0,-21,-47,-45
-39,-28,11,33,-25,-8,20,12,0,-21,-47,-45
-39,-27,12,33,-26,-7,20,12,0,-22,-48,-45
-40,-26,13,33,-27,-7,20,11,0,-22,-48,-45
-40,-26,14,33,-27,-6,20,10,0,-23,-48,-46
-42,-26,16,34,-29,-4,20,10,0,-23,-48,-45
-42,-26,16,34,-30,-4,19,9,0,-23,-48,-45
-39,-27,12,33,-26,-7,18,8,-1,-25,-50,-46
-36,-27,9,31,-23,-8,18,6,-2,-25,-50,-47
-36,-26,9,31,-23,-8,18,5,-2,-25,-50,-47
-35,-27,9,31,-22,-9,19,3,-3,-26,-50,-47
-36,-28,8,32,-22,-10,19,2,-4,-27,-51,-48
-35,-28,7,31,-21,-11,18,1,-5,-27,-51,-48
-34,-28,6,31,-21,-11,18,2,-4,-27,-51,-48
-38,-30,8,34,-24,-11,19,3,-3,-27,-51,-47
-43,-34,9,39,-27,-12,19,3,-3,-27,-51,-47
-47,-37,9,42,-29,-13,18,3,-4,-28,-52,-48
-50,-39,10,45,-30,-14,17,3,-4,-28,-52,-48
-49,-41,8,45,-28,-16,16,3,-4,-28,-51,-48
-44,-40,4,42,-24,-17,16,2,-4,-28,-51,-48
-41,-40,2,40,-21,-18,16,1,-5,-29,-51,-48
-41,-40,2,41,-22,-18,17,0,-6,-29,-52,-49
-44,-41,4,42,-24,-18,16,-1,-7,-30,-53,-50
-45,-41,4,43,-24,-18,15,-2,-9,-32,-54,-51
-43,-40,3,41,-23,-18,14,-4,-10,-33,-55,-53
-42,-39,3,40,-23,-17,13,-5,-10,-34,-55,-53
-42,-38,5,40,-24,-15,14,-6,-11,-34,-55,-53
-41,-36,6,38,-24,-14,15,-6,-12,-34,-54,-53
-38,-33,6,35,-22,-13,15,-6,-11,-32,-53,-51
-36,-31,5,33,-21,-13,16,-4,-9,-31,-51,-49
-37,-33,4,35,-21,-14,14,-4,-8,-30,-50,-48
-38,-34,4,36,-21,-15,13,-3,-7,-30,-50,-48
-37,-33,4,35,-21,-15,12,-2,-6,-29,-50,-48
-36,-33,3,35,-20,-15,11,-1,-6,-29,-50,-49
-34,-31,3,33,-19,-14,11,-1,-6,-29,-49,-49
-32,-28,4,30,-18,-11,12,0,-5,-29,-48,-48
-31,-25,6,28,-19,-9,12,1,-4,-28,-47,-46
-31,-25,7,28,-20,-8,13,2,-3,-27,-46,-46
-31,-25,8,28,-20,-8,13,1,-3,-27,-46,-46
-31,-24,7,28,-19,-8,13,1,-4,-27,-46,-46
-31,-25,6,28,-19,-9,13,1,-4,-27,-46,-46
-31,-26,6,29,-19,-10,13,1,-4,-28,-46,-46
-33,-27,6,30,-20,-10,13,1,-4,-28,-46,-46
-35,-28,7,31,-22,-10,13,2,-5,-28,-46,-47
-37,-30,7,33,-23,-11,12,2,-6,-29,-48,-48
-37,-32,5,34,-22,-13,12,2,-7,-30,-49,-48
-36,-32,3,34,-20,-14,12,2,-7,-30,-49,-48
-35,-32,3,33,-19,-14,12,2,-6,-29,-48,-47
-36,-32,4,34,-20,-14,14,3,-5,-28,-46,-45
-38,-32,6,35,-22,-13,15,4,-5,-26,-44,-43
-38,-32,7,36,-23,-12,14,5,-5,-26,-44,-44
-37,-32,5,35,-21,-14,13,4,-6,-28,-45,-45
-36,-33,3,35,-20,-15,11,4,-8,-29,-46,-47
-38,-34,5,36,-22,-14,11,4,-8,-29,-46,-46
-42,-33,9,38,-26,-11,12,5,-7,-28,-45,-45
-46,-32,14,39,-30,-9,13,6,-5,-27,-44,-44
-46,-32,14,39,-31,-8,14,6,-4,-25,-42,-42
-42,-32,9,37,-26,-11,13,5,-4,-26,-42,-43
-40,-33,7,37,-24,-12,13,5,-5,-26,-43,-43
-42,-33,8,38,-25,-12,14,5,-5,-26,-42,-43
-41,-33,8,37,-25,-12,14,5,-5,-26,-43,-43
-40,-33,7,37,-23,-13,14,4,-6,-27,-44,-45
-40,-33,7,37,-24,-13,13,3,-6,-28,-45,-45
-38,-30,8,34,-23,-11,13,2,-6,-28,-45,-45
-35,-27,9,31,-22,-9,13,1,-6,-28,-45,-45
-36,-27,10,31,-23,-8,12,0,-6,-28,-45,-45
-37,-26,11,32,-25,-7,12,0,-6,-27,-44,-45
-36,-26,10,31,-23,-8,12,0,-6,-27,-44,-44
-35,-27,7,31,-21,-10,12,-1,-7,-28,-45,-45
-37,-30,6,33,-22,-11,12,-2,-7,-28,-45,-45
-39,-32,7,35,-23,-12,12,-3,-7,-27,-45,-45
-40,-32,8,35,-24,-12,12,-4,-7,-28,-45,-45
-39,-31,8,35,-24,-12,12,-5,-8,-29,-45,-45
-40,-31,9,35,-25,-11,11,-6,-8,-29,-45,-45
-41,-30,11,35,-26,-10,10,-7,-8,-29,-44,-45
-40,-29,12,35,-26,-9,11,-7,-7,-28,-43,-44
-37,-27,11,32,-24,-8,12,-6,-6,-26,-41,-43
-35,-24,11,30,-23,-6,13,-6,-5,-25,-39,-42
-36,-24,12,30,-25,-5,12,-6,-5,-25,-39,-42
-38,-26,13,32,-26,-6,10,-8,-6,-26,-40,-42
-39,-28,11,34,-25,-8,9,-9,-7,-27,-41,-42
-39,-30,9,35,-25,-10,8,-9,-7,-27,-40,-41
-40,-31,9,35,-25,-11,8,-8,-7,-27,-39,-41
-41,-31,10,36,-26,-11,7,-8,-8,-27,-39,-41
-42,-32,9,37,-26,-11,7,-9,-9,-27,-40,-42
-41,-31,9,36,-25,-11,7,-8,-9,-27,-40,-42
-39,-29,10,34,-25,-9,8,-7,-8,-26,-39,-41
-37,-27,10,32,-24,-8,9,-5,-6,-25,-38,-40
-35,-26,9,31,-23,-8,9,-5,-5,-24,-37,-39
-36,-27,9,32,-23,-9,10,-5,-5,-24,-37,-38
-38,-29,9,33,-23,-10,11,-5,-6,-24,-36,-38
-38,-29,9,33,-23,-10,12,-5,-6,-23,-36,-38
-38,-28,9,33,-23,-9,12,-4,-5,-23,-35,-38
-39,-28,11,34,-25,-9,12,-4,-5,-23,-35,-37
-41,-29,12,35,-27,-8,12,-3,-5,-23,-35,-37
-41,-29,12,36,-27,-9,11,-2,-5,-23,-35,-37
-39,-28,10,34,-25,-9,11,-2,-5,-23,-35,-37
-36,-26,9,31,-23,-9,10,-1,-6,-23,-36,-37
-35,-26,9,31,-22,-9,9,-1,-6,-23,-36,-38
-36,-27,9,32,-22,-9,8,-1,-7,-24,-37,-39
-37,-30,7,34,-22,-11,8,0,-7,-24,-38,-40
-38,-34,4,37,-21,-15,8,-1,-8,-25,-39,-41
-38,-35,3,37,-21,-16,8,-1,-8,-26,-39,-42
-37,-32,4,35,-21,-14,8,-1,-8,-26,-39,-42
-38,-30,7,34,-22,-12,9,0,-8,-26,-39,-41
-38,-30,8,34,-23,-11,9,0,-7,-25,-38,-41
-36,-28,8,32,-22,-10,9,0,-6,-24,-37,-40
-34,-26,8,30,-21,-9,10,1,-5,-23,-36,-38
-31,-25,8,28,-19,-9,11,2,-5,-22,-36,-38
-31,-24,8,27,-19,-8,11,2,-4,-22,-36,-38
-31,-24,7,28,-19,-9,10,2,-5,-23,-36,-38
-30,-25,5,28,-18,-10,10,2,-5,-23,-36,-38
-30,-25,5,28,-18,-10,9,3,-5,-23,-36,-38
-31,-25,5,28,-19,-10,10,3,-5,-23,-36,-37
-31,-25,5,28,-18,-10,10,3,-5,-23,-36,-37
-30,-25,3,28,-17,-11,9,2,-5,-23,-37,-38
-29,-27,3,28,-16,-12,9,1,-6,-23,-37,-39
-30,-27,3,28,-17,-12,9,1,-5,-23,-36,-38
-30,-27,4,28,-17,-11,10,1,-4,-22,-35,-37
-30,-28,3,29,-17,-12,10,1,-4,-22,-34,-37
-30,-28,2,29,-17,-13,9,1,-4,-22,-34,-37
-29,-27,2,28,-17,-13,9,1,-4,-22,-34,-36
-29,-26,3,28,-17,-12,9,1,-5,-22,-34,-36
-29,-26,3,28,-17,-12,8,0,-5,-23,-34,-36
-30,-27,3,29,-17,-12,7,-1,-6,-23,-35,-37
-30,-27,3,29,-16,-12,8,-1,-7,-23,-34,-37
-29,-27,3,28,-15,-11,8,-2,-6,-23,-34,-37
-28,-26,3,27,-15,-11,8,-2,-6,-23,-34,-37
-29,-26,3,28,-16,-11,9,-2,-6,-23,-34,-37
-32,-29,3,31,-17,-13,9,-3,-7,-23,-34,-37
-36,-31,4,34,-20,-14,9,-3,-7,-24,-34,-38
-37,-33,4,35,-20,-15,8,-3,-7,-24,-34,-38
-35,-33,2,34,-18,-15,8,-3,-7,-24,-34,-38
-32,-30,2,31,-17,-14,7,-2,-6,-23,-33,-37
-30,-26,4,28,-17,-11,8,0,-5,-22,-32,-36
-31,-25,6,28,-19,-9,8,0,-5,-22,-32,-36
-35,-26,9,31,-22,-8,8,0,-5,-22,-32,-37
-36,-25,10,31,-23,-8,9,1,-5,-22,-32,-37
-33,-24,8,29,-21,-8,9,1,-4,-21,-32,-37
-32,-24,8,29,-20,-8,9,2,-4,-21,-32,-37
-35,-25,10,30,-22,-7,9,3,-4,-21,-31,-36
-36,-25,11,31,-23,-7,10,4,-3,-20,-30,-36
-36,-26,11,31,-23,-7,9,4,-4,-21,-31,-36
-35,-27,9,31,-22,-9,7,3,-5,-22,-32,-38
-35,-27,8,32,-22,-9,5,2,-6,-23,-33,-38
-37,-27,10,33,-24,-8,6,3,-5,-22,-32,-37
-37,-26,11,32,-25,-7,7,4,-4,-21,-31,-36
-34,-23,11,29,-23,-6,8,5,-3,-21,-31,-35
-31,-20,11,26,-21,-5,9,6,-3,-20,-29,-34
-29,-20,9,25,-19,-6,10,6,-3,-20,-28,-34
-27,-21,6,25,-17,-8,10,5,-4,-20,-28,-34
-26,-22,4,25,-15,-9,10,5,-4,-20,-29,-34
-28,-24,3,27,-16,-10,10,4,-4,-21,-29,-34
-30,-27,2,29,-16,-11,9,4,-4,-21,-30,-35
-32,-28,3,31,-18,-12,9,3,-4,-21,-30,-35
-34,-28,6,32,-20,-11,9,2,-4,-21,-30,-35
-34,-27,7,31,-20,-10,9,1,-4,-22,-30,-35
-34,-26,9,31,-21,-9,10,0,-4,-22,-30,-35
-35,-26,10,31,-23,-8,10,-1,-5,-22,-30,-35
-36,-28,9,32,-23,-9,9,-2,-5,-23,-30,-36
-36,-29,6,33,-22,-11,7,-4,-6,-23,-31,-37
-35,-30,4,33,-20,-12,6,-5,-7,-24,-31,-37
-33,-30,2,32,-18,-13,5,-6,-7,-24,-31,-37
-32,-28,3,31,-18,-12,5,-6,-7,-23,-30,-36
-32,-26,6,29,-19,-10,6,-6,-5,-22,-28,-35
-30,-23,8,27,-19,-7,7,-5,-4,-20,-26,-33
-30,-20,12,26,-21,-4,8,-4,-3,-19,-24,-32
-29,-18,13,25,-21,-3,8,-4,-2,-18,-23,-31
-27,-16,11,23,-20,-2,7,-4,-2,-18,-22,-30
-27,-16,11,22,-20,-2,7,-4,-2,-17,-22,-30
-29,-17,11,23,-20,-2,8,-4,-2,-17,-22,-30
-29,-19,9,24,-19,-4,8,-4,-2,-17,-22,-30
-26,-19,7,23,-17,-6,8,-4,-2,-17,-22,-30
-26,-20,7,23,-16,-7,9,-3,-1,-17,-21,-30
-28,-21,8,25,-18,-7,9,-3,-1,-16,-20,-29
-31,-22,9,27,-20,-7,9,-3,-1,-16,-20,-29
-32,-22,10,27,-21,-7,8,-3,-2,-16,-20,-30
-31,-21,10,26,-21,-6,7,-4,-3,-17,-20,-30
-32,-20,10,26,-22,-5,7,-4,-3,-17,-20,-30
-34,-21,11,27,-23,-5,7,-3,-3,-16,-20,-30
-33,-22,10,28,-22,-6,7,-3,-3,-17,-21,-31
-31,-23,8,27,-19,-7,6,-3,-4,-18,-22,-32
-28,-22,7,26,-18,-8,5,-3,-5,-19,-23,-32
-28,-22,7,26,-18,-8,5,-3,-5,-19,-23,-32
-28,-22,7,26,-18,-8,5,-3,-4,-19,-23,-32
-29,-22,7,25,-19,-7,6,-2,-4,-18,-22,-31
-29,-22,7,25,-19,-7,7,0,-3,-17,-22,-30
-30,-22,7,25,-19,-7,8,0,-3,-16,-21,-30
-30,-20,9,25,-19,-5,7,1,-3,-16,-21,-30
-29,-20,9,25,-19,-4,6,1,-3,-16,-21,-29
-29,-20,9,25,-19,-5,6,1,-3,-16,-21,-29
-29,-20,9,25,-19,-5,6,2,-2,-15,-20,-29
-30,-22,9,26,-20,-6,6,2,-2,-15,-20,-29
-33,-27,7,30,-20,-10,5,1,-3,-17,-22,-31
-36,-32,4,34,-21,-14,4,0,-4,-17,-23,-32
-40,-36,4,38,-22,-16,3,1,-4,-17,-23,-32
-42,-38,4,40,-23,-16,2,1,-4,-17,-23,-32
-40,-36,4,39,-22,-15,3,1,-3,-16,-23,-31
-37,-33,4,36,-20,-14,3,2,-2,-15,-21,-30
-33,-30,3,32,-18,-13,4,3,-1,-14,-20,-29
-28,-26,3,28,-16,-12,5,5,1,-12,-18,-27
-22,-22,1,22,-13,-11,7,8,3,-9,-15,-24
-15,-18,-1,17,-8,-10,9,10,6,-7,-13,-22
-11,-14,-2,13,-5,-9,11,12,7,-5,-11,-20
-10,-12,-2,11,-4,-8,12,14,8,-4,-10,-19
-12,-13,-2,13,-5,-8,12,14,8,-4,-11,-19
-17,-16,0,17,-9,-8,12,14,7,-5,-11,-20
-22,-18,3,21,-12,-8,11,15,7,-6,-12,-21
-22,-20,2,22,-12,-9,11,15,6,-6,-12,-21
-21,-20,0,21,-11,-10,10,15,6,-7,-13,-22
-19,-20,-1,20,-9,-11,10,14,6,-7,-13,-22
-20,-20,0,20,-10,-10,10,14,6,-7,-13,-22
-23,-20,3,21,-13,-9,10,15,6,-7,-13,-22
-23,-20,4,21,-13,-8,10,15,5,-8,-13,-22
-21,-20,0,21,-10,-10,9,15,4,-9,-14,-22
-19,-21,-3,20,-8,-12,9,14,3,-10,-14,-23
-18,-22,-3,20,-7,-12,9,13,2,-11,-15,-23
-18,-22,-3,20,-8,-12,9,12,0,-12,-17,-24
-18,-22,-3,20,-8,-13,9,10,-1,-14,-18,-26
-19,-23,-3,21,-8,-13,9,10,-2,-14,-18,-26
-21,-24,-2,22,-10,-13,10,11,-2,-14,-19,-26
-23,-25,-2,23,-10,-14,9,12,-3,-15,-19,-27
-23,-26,-3,24,-10,-14,9,11,-3,-16,-20,-28
-23,-26,-3,24,-9,-14,8,11,-4,-17,-21,-28
-22,-26,-4,24,-9,-15,8,11,-4,-17,-21,-28
-23,-28,-4,26,-9,-16,7,9,-5,-18,-22,-28
-27,-30,-3,29,-13,-17,6,8,-6,-18,-22,-29
-30,-30,0,30,-16,-15,7,8,-5,-17,-22,-28
-31,-28,3,29,-17,-13,9,9,-4,-16,-20,-27
-30,-27,3,29,-17,-12,11,10,-4,-16,-20,-26
-29,-28,1,28,-15,-13,10,8,-5,-18,-21,-27
-26,-27,-1,27,-12,-14,9,6,-7,-20,-23,-29
-23,-25,-2,25,-10,-13,9,5,-7,-20,-23,-29
-22,-24,-3,23,-9,-13,9,5,-7,-19,-22,-28
-20,-25,-5,22,-8,-14,9,4,-7,-19,-21,-28
-20,-27,-6,23,-7,-16,9,4,-7,-18,-20,-28
-22,-29,-6,25,-8,-18,9,4,-7,-18,-20,-28
-24,-31,-6,27,-9,-19,9,4,-7,-18,-20,-28
-24,-30,-6,27,-9,-19,9,4,-7,-18,-20,-28
-24,-29,-5,27,-9,-18,10,3,-7,-19,-21,-29
-24,-30,-6,27,-9,-18,9,2,-9,-21,-22,-30
-25,-32,-6,29,-9,-19,8,1,-9,-22,-23,-31
-27,-32,-5,30,-11,-18,9,1,-8,-21,-23,-31
-30,-32,-1,31,-14,-17,10,2,-7,-20,-21,-30
-31,-32,0,31,-15,-16,9,2,-6,-19,-21,-30
-30,-32,-1,30,-14,-17,8,1,-6,-20,-21,-30
-29,-30,0,29,-14,-16,7,1,-6,-20,-21,-30
-29,-29,0,29,-14,-15,7,1,-6,-20,-21,-29
-29,-30,0,29,-14,-15,6,0,-7,-20,-21,-29
-30,-33,-2,32,-14,-17,4,-1,-9,-22,-22,-30
-35,-38,-2,37,-17,-19,4,-2,-11,-23,-23,-32
-41,-41,0,41,-21,-20,5,-2,-12,-24,-23,-32
-40,-40,1,40,-21,-20,5,-2,-12,-24,-23,-32
-34,-36,-1,34,-16,-19,6,-1,-11,-23,-23,-32
-27,-30,-3,28,-11,-17,7,0,-11,-22,-22,-31
-21,-26,-4,23,-8,-16,8,1,-10,-21,-21,-30
-20,-24,-5,22,-7,-15,8,3,-8,-20,-21,-29
-22,-24,-3,23,-10,-13,9,4,-7,-20,-20,-28
-24,-25,-1,25,-12,-12,9,4,-7,-19,-20,-28
-26,-26,0,26,-14,-12,9,3,-7,-19,-20,-28
-27,-25,2,25,-15,-11,9,3,-7,-19,-19,-28
-25,-22,4,23,-14,-9,10,3,-6,-18,-19,-28
-23,-20,3,21,-13,-9,11,3,-6,-18,-19,-28
-24,-20,3,22,-13,-9,11,2,-6,-18,-19,-28
-28,-22,4,25,-16,-9,10,2,-6,-18,-19,-27
-30,-25,4,27,-17,-10,11,2,-6,-18,-18,-27
-31,-28,3,29,-17,-12,11,2,-6,-18,-18,-27
-32,-29,2,30,-17,-13,11,1,-7,-19,-19,-29
-34,-31,3,32,-19,-14,11,0,-8,-21,-20,-30
-35,-32,4,34,-20,-14,11,-1,-9,-22,-21,-31
-34,-30,4,32,-19,-13,11,-1,-10,-22,-21,-31
-31,-27,3,29,-17,-12,10,0,-10,-22,-21,-31
-29,-26,2,28,-15,-12,10,0,-9,-22,-21,-31
-29,-27,2,28,-15,-13,10,0,-8,-21,-21,-30
-29,-25,3,27,-16,-11,10,1,-7,-19,-19,-28
-26,-22,4,24,-15,-9,10,1,-5,-18,-18,-27
-23,-19,4,21,-14,-7,9,1,-4,-18,-17,-26
-21,-16,4,18,-13,-5,8,1,-4,-17,-17,-26
-19,-14,4,17,-12,-5,8,1,-4,-17,-17,-26
-19,-14,5,16,-12,-5,8,1,-4,-17,-16,-26
-20,-14,7,17,-13,-4,8,0,-4,-17,-16,-26
-22,-14,8,17,-15,-3,8,-1,-5,-17,-16,-26
-21,-14,6,18,-14,-4,7,-2,-5,-17,-16,-26
-20,-15,5,17,-12,-4,7,-3,-5,-17,-16,-26
-19,-13,6,16,-13,-3,7,-3,-4,-17,-15,-25
-19,-12,7,16,-14,-2,8,-3,-3,-16,-15,-25
-22,-13,9,17,-16,-1,8,-2,-2,-15,-15,-25
-27,-13,14,20,-22,1,9,-1,2,-12,-14,-25
-33,-13,20,22,-27,3,10,1,7,-7,-12,-25
-34,-10,23,22,-29,6,10,2,13,-1,-9,-23
-30,-6,24,18,-27,8,10,4,20,6,-3,-19
-26,-1,24,14,-26,11,10,7,27,15,6,-12
-22,3,25,9,-24,14,9,9,33,25,19,-2
-16,9,25,3,-21,17,8,12,41,37,35,12
-12,15,26,-1,-20,21,8,16,50,53,57,31
-8,21,29,-6,-19,25,7,20,60,72,83,54
-3,29,31,-12,-17,29,4,22,70,94,112,79
3,38,33,-20,-14,35,0,25,81,116,144,106
10,48,36,-29,-12,41,-4,26,90,140,176,134
18,59,40,-38,-11,49,-9,28,99,166,212,165
27,75,47,-51,-10,61,-15,30,106,191,251,199
40,92,52,-66,-7,72,-23,29,109,212,285,231
54,106,52,-80,0,79,-35,27,107,226,313,258
68,116,48,-92,9,83,-47,25,102,234,333,279
79,123,44,-102,18,84,-59,22,95,236,341,291
87,126,39,-107,24,83,-69,17,85,230,335,290
93,125,31,-109,31,78,-77,12,74,216,314,275
100,118,18,-110,41,68,-83,8,63,195,277,245
108,107,-1,-108,54,53,-88,4,48,167,229,205
114,93,-21,-104,67,36,-92,-1,28,130,177,162
114,74,-40,-95,76,17,-93,-9,2,86,123,117
109,52,-56,-81,82,-2,-92,-19,-29,36,67,73
99,32,-67,-66,83,-18,-90,-31,-61,-15,14,30
88,14,-74,-51,82,-30,-88,-43,-93,-65,-35,-9
79,-2,-81,-38,81,-42,-87,-53,-120,-109,-78,-43
73,-18,-91,-28,83,-55,-85,-59,-139,-142,-112,-70
66,-33,-99,-17,83,-66,-81,-60,-149,-164,-135,-91
58,-45,-103,-7,80,-74,-74,-59,-151,-174,-147,-104
49,-51,-100,0,73,-75,-66,-55,-146,-173,-150,-109
40,-52,-92,6,65,-72,-57,-50,-135,-164,-144,-107
29,-51,-81,11,55,-66,-49,-45,-121,-151,-135,-103
19,-49,-68,15,44,-59,-42,-41,-106,-137,-123,-96
10,-45,-55,17,33,-50,-36,-37,-93,-123,-111,-89
2,-41,-43,19,23,-43,-30,-33,-81,-110,-100,-82
-3,-38,-35,20,16,-37,-23,-28,-69,-97,-90,-75
-6,-34,-29,20,11,-32,-16,-23,-59,-86,-80,-68
-6,-31,-26,19,9,-29,-10,-19,-50,-76,-71,-62
-4,-29,-26,17,10,-27,-7,-16,-43,-68,-65,-58
-6,-29,-23,18,8,-26,-5,-14,-38,-63,-60,-56
-11,-30,-19,21,4,-25,-3,-13,-34,-58,-55,-53
-14,-30,-16,22,2,-23,-3,-13,-31,-54,-52,-51
-16,-29,-12,22,-1,-21,-2,-13,-28,-50,-49,-49
-19,-27,-7,23,-6,-17,0,-12,-25,-45,-45,-46
-22,-26,-3,24,-10,-15,1,-10,-22,-41,-40,-43
-23,-24,-1,24,-12,-13,2,-7,-17,-36,-36,-40
-20,-21,-1,21,-10,-11,5,-4,-13,-31,-31,-35
-17,-18,-2,18,-8,-10,7,0,-9,-27,-27,-32
-16,-17,-1,17,-8,-9,8,2,-6,-25,-25,-31
-18,-17,2,17,-10,-8,9,3,-4,-23,-24,-30
-21,-18,3,19,-11,-7,10,4,-3,-22,-23,-29
-22,-20,2,20,-11,-9,11,4,-2,-21,-22,-29
-22,-21,0,21,-11,-10,12,5,-2,-20,-22,-29
-21,-21,0,21,-11,-10,12,5,-2,-19,-21,-29
-22,-20,1,21,-12,-9,12,6,-1,-18,-20,-28
-23,-20,3,22,-14,-8,12,7,0,-17,-20,-27
-25,-21,4,23,-15,-8,10,8,-1,-18,-21,-28
-27,-22,5,25,-15,-9,8,8,-2,-19,-22,-29
-28,-22,6,25,-16,-8,7,8,-3,-19,-22,-29
-27,-21,6,24,-16,-7,8,9,-2,-19,-22,-29
-26,-19,7,22,-16,-6,9,9,-1,-18,-20,-28
-26,-18,7,21,-16,-5,10,10,0,-17,-19,-27
-25,-18,6,21,-16,-5,12,10,0,-17,-18,-26
-24,-18,5,20,-15,-6,13,10,1,-16,-18,-26
-23,-19,4,21,-13,-7,13,10,1,-16,-18,-26
-25,-21,4,23,-14,-9,12,9,1,-17,-19,-27
-28,-23,5,25,-15,-9,11,9,1,-17,-20,-27
-29,-24,5,27,-17,-9,10,9,2,-17,-20,-27
-30,-26,4,28,-17,-11,10,9,2,-17,-20,-27
-30,-27,2,28,-16,-13,10,8,2,-17,-20,-28
-30,-28,0,29,-15,-14,9,7,1,-18,-21,-29
-30,-29,0,30,-15,-15,9,7,1,-18,-21,-29
-31,-28,2,30,-17,-13,10,8,1,-18,-21,-29
-30,-26,4,29,-17,-11,12,9,2,-17,-20,-28
-30,-24,5,28,-17,-10,13,10,2,-16,-20,-28
-29,-23,6,26,-17,-9,15,11,2,-15,-19,-27
-24,-21,3,22,-13,-9,15,12,2,-15,-19,-27
-18,-19,0,19,-9,-9,16,11,1,-15,-19,-26
-17,-18,-1,18,-8,-9,17,10,1,-15,-19,-26
-19,-19,0,19,-9,-9,18,10,0,-15,-19,-26
-20,-20,0,20,-10,-10,19,9,0,-15,-19,-26
-20,-21,-1,21,-10,-11,19,8,-2,-16,-20,-27
-23,-25,-2,24,-10,-14,18,7,-3,-17,-22,-28
-24,-27,-2,26,-11,-15,17,7,-4,-17,-22,-29
-23,-26,-2,25,-10,-14,16,7,-4,-17,-22,-29
-22,-23,-1,23,-10,-12,16,7,-4,-16,-21,-29
-22,-22,0,22,-10,-11,16,7,-5,-16,-21,-28
-23,-22,0,22,-11,-10,15,6,-5,-16,-21,-28
-23,-22,0,22,-11,-10,15,6,-4,-16,-20,-28
-20,-20,0,20,-10,-9,15,5,-4,-16,-20,-28
-18,-18,0,18,-8,-8,15,3,-4,-15,-20,-28
-17,-17,1,17,-8,-8,14,2,-4,-15,-19,-28
-19,-17,2,18,-10,-8,13,0,-4,-15,-19,-28
-21,-18,3,20,-12,-8,11,-2,-4,-15,-19,-29
-23,-19,4,21,-13,-8,9,-3,-5,-16,-20,-30
-24,-19,5,21,-15,-7,7,-3,-4,-16,-19,-30
-26,-19,5,22,-16,-6,6,-3,-4,-15,-19,-29
-25,-19,5,22,-15,-7,6,-2,-3,-15,-18,-29
-22,-18,4,21,-13,-7,6,0,-2,-14,-18,-28
-21,-18,3,20,-12,-7,5,0,-2,-14,-18,-28
-21,-18,3,20,-12,-7,4,0,-2,-14,-17,-28
-21,-17,4,19,-12,-7,4,0,-1,-13,-17,-28
-21,-16,4,19,-13,-6,5,0,0,-12,-16,-26
-21,-15,5,18,-13,-5,5,1,0,-11,-15,-25
-21,-15,5,18,-14,-4,5,2,1,-11,-14,-25
-21,-14,6,18,-14,-4,5,2,1,-11,-14,-25
-21,-13,7,18,-14,-3,6,3,1,-11,-14,-24
-21,-13,7,17,-13,-3,6,4,1,-11,-14,-24
-21,-14,7,18,-13,-4,5,3,0,-11,-14,-25
-24,-16,8,20,-15,-4,5,3,0,-10,-14,-25
-26,-18,8,22,-16,-5,6,4,1,-10,-14,-25
-23,-17,5,20,-14,-6,6,4,1,-10,-14,-25
-18,-16,1,17,-10,-7,6,4,1,-10,-15,-25
-18,-16,1,17,-10,-7,7,5,1,-10,-14,-24
-22,-17,5,20,-14,-6,7,5,1,-10,-14,-24
-24,-17,6,21,-15,-6,7,5,0,-11,-15,-25
-23,-18,5,21,-14,-7,6,5,0,-12,-15,-26
-22,-18,4,20,-13,-8,5,5,0,-12,-16,-26
-22,-18,3,20,-13,-7,5,5,0,-11,-15,-25
-22,-19,2,21,-12,-9,4,5,0,-11,-16,-26
-23,-21,1,22,-12,-10,3,4,-1,-12,-17,-26
-21,-19,1,20,-12,-9,3,3,-1,-12,-17,-26
-19,-18,1,19,-11,-8,5,4,0,-11,-15,-25
-22,-20,2,21,-12,-9,6,4,1,-10,-14,-24
-24,-20,3,23,-14,-9,7,4,1,-10,-14,-24
-22,-18,4,20,-13,-8,8,5,2,-8,-13,-23
-18,-13,4,16,-11,-5,9,6,4,-7,-11,-21
-16,-10,5,13,-10,-2,10,7,5,-5,-9,-19
-17,-10,6,13,-11,-2,10,6,6,-4,-8,-18
-17,-11,6,14,-11,-2,9,5,6,-5,-8,-18
-18,-11,7,14,-13,-1,8,4,6,-5,-8,-18
-20,-10,9,15,-14,0,8,4,6,-5,-8,-18
-22,-11,11,17,-16,0,9,4,6,-5,-8,-18
-24,-12,12,18,-17,-1,9,5,6,-4,-8,-18
-24,-12,12,18,-18,0,8,5,6,-4,-8,-18
-24,-10,13,17,-18,1,9,6,7,-3,-7,-17
-22,-8,14,15,-18,2,11,7,8,-2,-6,-16
-21,-7,14,14,-18,4,11,7,9,-1,-5,-15
-19,-5,15,12,-18,5,12,7,9,-1,-5,-15
-18,-3,15,10,-17,6,12,8,9,0,-5,-14
-18,-3,15,11,-17,5,12,9,9,0,-5,-14
-19,-4,15,11,-17,5,13,11,9,0,-5,-13
-20,-4,15,12,-17,5,13,12,8,0,-5,-13
-22,-5,16,14,-18,5,14,13,8,0,-5,-13
-23,-7,15,15,-19,4,14,14,7,0,-5,-13
-24,-9,15,16,-20,3,14,14,7,0,-5,-13
-25,-9,17,17,-21,4,14,15,6,0,-5,-13
-25,-8,18,16,-21,4,14,17,6,0,-5,-13
-25,-7,18,16,-21,5,13,18,6,0,-6,-13
-26,-7,18,17,-22,4,12,19,6,0,-7,-13
-27,-8,18,18,-22,4,11,20,5,-1,-8,-14
-26,-8,17,17,-22,4,11,20,5,-1,-9,-13
-24,-7,16,15,-20,5,11,21,5,-1,-9,-12
-22,-6,15,14,-19,4,12,21,5,-1,-9,-11
-21,-6,14,14,-18,4,13,21,4,-1,-10,-11
-20,-7,14,14,-17,4,13,22,4,-1,-10,-11
-20,-7,14,14,-18,4,14,22,4,-1,-10,-11
-20,-6,13,14,-17,3,13,22,3,-1,-11,-11
-17,-5,11,12,-14,3,11,20,2,-2,-13,-11
-15,-3,11,10,-13,3,10,20,2,-3,-13,-11
-16,-3,12,9,-14,5,11,19,2,-3,-13,-10
-16,-4,12,10,-14,4,11,18,2,-3,-14,-10
-16,-5,11,11,-13,2,10,17,1,-4,-14,-10
-16,-5,10,11,-13,2,9,17,0,-4,-14,-10
-14,-4,10,10,-12,2,8,16,0,-5,-14,-10
-13,-4,9,9,-11,1,6,16,-1,-6,-15,-11
-13,-5,8,9,-10,1,4,15,-2,-7,-16,-12
-12,-4,7,9,-10,1,4,14,-2,-7,-16,-11
-10,-3,7,7,-8,2,4,14,-3,-7,-16,-11
-8,-2,5,5,-6,1,3,14,-3,-7,-16,-10
-7,-2,4,5,-5,0,3,13,-3,-8,-17,-10
-6,-3,3,5,-5,0,2,11,-4,-9,-17,-10
-6,-4,2,6,-4,-1,2,10,-5,-9,-17,-10
-8,-7,1,8,-5,-3,2,9,-5,-10,-17,-11
-9,-8,1,9,-5,-3,3,9,-6,-10,-17,-10
-9,-8,1,9,-4,-4,3,8,-6,-11,-18,-10
-9,-8,1,9,-4,-4,3,7,-7,-11,-18,-10
-10,-8,1,10,-5,-3,3,6,-8,-12,-19,-11
-8,-8,0,8,-3,-4,3,4,-9,-13,-20,-12
-5,-6,-2,6,-1,-4,2,3,-10,-14,-20,-12
-4,-4,0,4,-2,-2,2,3,-8,-13,-19,-11
-4,-3,1,4,-2,-1,2,3,-7,-12,-18,-10
-2,-2,0,2,0,-1,1,2,-8,-12,-19,-10
3,-1,-4,-1,4,-2,0,1,-8,-13,-19,-10
5,0,-6,-2,6,-3,0,0,-8,-13,-19,-10
7,0,-6,-3,7,-3,0,0,-8,-13,-19,-10
9,1,-7,-5,9,-3,-2,-2,-9,-14,-20,-10
10,1,-8,-5,9,-3,-3,-4,-10,-15,-21,-11
8,1,-7,-4,7,-3,-4,-6,-10,-16,-21,-11
6,0,-5,-3,5,-2,-3,-6,-11,-16,-21,-11
6,0,-5,-3,5,-2,-3,-6,-11,-17,-21,-11
8,0,-8,-4,8,-3,-3,-7,-12,-17,-21,-11
10,0,-10,-4,10,-4,-3,-7,-12,-17,-20,-10
10,-1,-12,-4,11,-6,-2,-7,-12,-17,-20,-10
9,-4,-14,-2,12,-8,-2,-8,-13,-17,-20,-10
6,-5,-11,0,9,-8,-3,-10,-13,-18,-20,-10
1,-6,-7,2,5,-7,-4,-11,-14,-19,-21,-10
1,-7,-8,3,5,-8,-6,-12,-16,-20,-22,-11
2,-9,-11,3,7,-10,-8,-13,-17,-22,-22,-12
4,-10,-14,3,9,-12,-10,-14,-18,-22,-23,-13
5,-9,-15,2,10,-12,-11,-14,-19,-22,-23,-13
6,-8,-14,1,10,-11,-12,-14,-18,-22,-23,-13
4,-7,-12,2,8,-9,-12,-13,-18,-21,-22,-12
3,-6,-10,2,7,-8,-12,-13,-18,-22,-22,-12
5,-4,-9,0,7,-7,-11,-13,-18,-22,-22,-11
8,-1,-8,-4,8,-5,-10,-13,-17,-22,-21,-10
10,0,-9,-5,9,-5,-9,-12,-17,-22,-20,-9
9,-1,-11,-4,9,-6,-8,-12,-17,-22,-19,-9
10,-3,-13,-3,11,-8,-8,-12,-17,-23,-20,-9
10,-4,-15,-2,12,-9,-9,-12,-18,-23,-21,-9
8,-6,-14,0,11,-10,-9,-13,-18,-24,-21,-9
4,-8,-13,2,9,-10,-9,-13,-19,-24,-21,-9
4,-8,-12,2,8,-10,-9,-13,-19,-24,-21,-9
8,-6,-14,-1,11,-10,-9,-13,-19,-24,-20,-8
12,-4,-16,-4,14,-10,-9,-13,-19,-24,-20,-8
14,-4,-18,-5,16,-11,-9,-12,-19,-24,-20,-9
14,-4,-18,-5,16,-11,-9,-12,-19,-24,-20,-9
11,-6,-17,-2,14,-11,-10,-11,-19,-23,-20,-8
9,-7,-17,0,13,-12,-10,-10,-19,-24,-21,-8
8,-9,-17,1,13,-13,-10,-9,-19,-25,-22,-9
6,-10,-16,2,11,-13,-10,-8,-19,-25,-23,-9
6,-8,-14,1,10,-11,-8,-6,-18,-24,-22,-8
7,-7,-14,0,11,-11,-7,-4,-17,-23,-21,-7
7,-8,-15,1,11,-12,-7,-3,-17,-23,-21,-7
7,-8,-15,1,11,-12,-5,-1,-16,-23,-21,-7
9,-8,-16,0,12,-12,-4,0,-16,-23,-21,-7
8,-9,-18,1,13,-13,-3,0,-17,-23,-22,-7
6,-12,-18,4,12,-15,-4,-1,-18,-24,-23,-9
4,-13,-18,5,11,-15,-5,-1,-18,-25,-24,-9
6,-12,-18,3,12,-14,-5,0,-18,-25,-24,-9
10,-10,-20,0,15,-15,-5,0,-17,-25,-25,-9
12,-9,-21,-1,17,-15,-5,0,-17,-25,-25,-10
12,-8,-19,-2,16,-13,-4,1,-17,-25,-25,-9
12,-5,-18,-3,15,-11,-3,1,-16,-24,-24,-8
12,-4,-17,-4,15,-11,-2,2,-16,-23,-23,-7
12,-4,-18,-4,16,-11,-1,2,-15,-23,-24,-7
12,-4,-18,-4,16,-11,0,3,-15,-23,-24,-8
13,-5,-20,-4,17,-13,0,2,-15,-24,-26,-9
16,-7,-24,-4,20,-16,-2,1,-16,-24,-28,-10
13,-9,-23,-2,18,-16,-2,0,-15,-24,-28,-11
7,-10,-18,1,12,-14,-1,1,-14,-23,-28,-11
8,-10,-17,1,12,-14,-1,1,-14,-23,-28,-11
11,-9,-20,-1,16,-15,-1,0,-14,-23,-29,-12
12,-9,-21,-1,17,-15,0,0,-14,-23,-29,-12
12,-8,-21,-2,17,-14,1,1,-13,-22,-28,-11
15,-6,-21,-4,18,-13,1,2,-12,-21,-28,-11
17,-4,-22,-6,20,-13,1,3,-10,-20,-27,-10
19,-5,-23,-6,21,-15,1,3,-9,-19,-27,-10
19,-5,-24,-6,21,-16,0,2,-9,-19,-28,-11
19,-5,-24,-6,21,-15,0,2,-8,-18,-28,-10
17,-5,-22,-5,19,-14,0,2,-7,-17,-27,-10
16,-6,-21,-5,19,-14,-1,1,-7,-17,-28,-11
16,-6,-22,-4,20,-15,-2,1,-7,-18,-29,-11
16,-7,-23,-4,20,-15,-3,1,-6,-17,-29,-12
15,-7,-22,-4,19,-15,-3,1,-5,-16,-28,-11
16,-6,-22,-4,19,-15,-4,1,-5,-16,-28,-11
16,-6,-22,-4,19,-15,-5,1,-5,-15,-28,-12
15,-8,-22,-3,19,-15,-6,0,-4,-15,-28,-12
14,-9,-23,-3,19,-16,-6,1,-3,-15,-28,-12
14,-8,-22,-3,19,-15,-6,2,-2,-14,-27,-12
14,-6,-20,-4,18,-13,-5,2,-2,-13,-27,-12
12,-6,-19,-3,16,-12,-5,2,-2,-13,-27,-12
9,-8,-18,0,14,-13,-6,1,-2,-13,-27,-13
7,-10,-17,2,13,-14,-6,0,-2,-13,-27,-13
9,-8,-17,0,13,-13,-6,0,-1,-11,-26,-13
13,-7,-19,-2,16,-13,-5,0,0,-9,-25,-12
15,-7,-21,-4,18,-14,-4,1,2,-8,-24,-10
15,-6,-21,-4,18,-14,-3,1,3,-6,-22,-9
15,-4,-19,-6,18,-11,-2,2,5,-5,-21,-8
17,0,-18,-9,18,-9,-2,3,7,-3,-19,-6
17,0,-17,-9,18,-8,-2,4,8,-1,-18,-6
17,-1,-19,-7,19,-10,-3,3,9,-1,-18,-6
18,-3,-21,-6,20,-12,-4,3,9,0,-18,-6
15,-4,-19,-4,17,-12,-4,4,9,0,-17,-5
11,-5,-15,-2,13,-11,-4,4,10,1,-17,-5
10,-4,-13,-2,11,-9,-5,4,10,1,-16,-5
13,-1,-13,-6,13,-7,-5,4,11,2,-15,-5
16,1,-14,-9,15,-6,-5,5,12,3,-15,-5
17,2,-15,-10,17,-6,-5,5,12,4,-14,-5
18,3,-15,-11,17,-6,-3,6,13,5,-13,-5
19,5,-14,-12,17,-4,-1,7,14,6,-12,-4
19,5,-14,-12,17,-4,0,7,15,7,-11,-3
20,6,-14,-13,17,-4,0,6,15,8,-11,-3
19,7,-11,-13,15,-2,1,6,15,9,-10,-2
16,7,-9,-12,13,-1,2,6,16,10,-10,-1
15,6,-9,-12,13,-1,1,6,15,10,-10,-1
16,6,-11,-12,14,-2,0,5,15,11,-10,-2
17,7,-11,-12,15,-2,0,4,16,11,-9,-2
17,6,-10,-11,14,-2,-1,4,17,12,-7,-1
16,5,-11,-11,14,-3,-2,4,17,13,-7,-1
17,4,-13,-11,15,-5,-3,4,16,13,-7,-2
16,2,-14,-9,15,-6,-4,3,16,13,-7,-2
14,0,-14,-7,14,-7,-4,4,17,14,-6,-1
12,-1,-13,-6,13,-7,-3,4,17,14,-5,0
11,-1,-12,-5,11,-6,-2,5,17,15,-3,0
10,0,-11,-5,11,-5,-2,5,17,16,-2,1
11,0,-11,-5,11,-6,-2,5,17,16,-2,1
13,0,-12,-6,12,-6,-3,4,17,16,-2,1
15,2,-12,-8,13,-5,-3,4,17,17,-2,1
15,5,-10,-10,12,-3,-2,4,17,17,-1,1
15,6,-9,-11,12,-2,-3,3,17,16,-1,0
17,7,-11,-12,14,-2,-4,2,16,15,-1,0
18,7,-11,-12,15,-2,-6,2,16,15,-1,-1
16,5,-11,-10,14,-2,-6,1,15,15,-2,-1
15,4,-11,-9,14,-3,-6,1,15,15,-2,-1
14,3,-10,-8,13,-4,-5,1,15,16,-1,-1
13,2,-10,-7,12,-4,-4,1,15,16,0,0
12,2,-10,-7,11,-5,-4,1,15,16,0,0
12,2,-10,-7,11,-5,-4,1,14,16,0,0
12,0,-11,-7,12,-6,-5,0,13,14,-1,-1
11,-1,-12,-5,11,-7,-6,-1,13,13,-2,-2
9,-1,-10,-4,10,-6,-6,-1,13,13,-2,-2
9,-1,-10,-4,10,-5,-5,-2,13,13,-1,-2
13,0,-12,-6,13,-6,-5,-3,12,12,-1,-2
14,1,-12,-7,13,-5,-5,-4,11,12,-1,-2
11,1,-9,-6,10,-4,-5,-4,11,12,-1,-2
9,0,-7,-4,8,-4,-6,-5,10,11,-2,-3
8,0,-8,-4,8,-5,-7,-6,9,9,-4,-5
10,0,-10,-4,10,-6,-8,-7,8,7,-6,-6
13,0,-13,-6,13,-6,-8,-8,7,7,-6,-7
13,0,-13,-6,13,-6,-8,-8,7,7,-6,-7
12,1,-11,-6,11,-4,-8,-8,6,6,-5,-6
11,1,-9,-5,10,-4,-8,-9,5,6,-5,-6
11,1,-10,-5,10,-5,-8,-10,4,5,-6,-7
12,0,-12,-6,12,-6,-8,-11,3,4,-7,-8
12,0,-13,-6,13,-7,-8,-11,3,4,-7,-8
12,0,-13,-5,13,-7,-8,-11,3,4,-7,-7
13,0,-14,-6,14,-7,-7,-11,4,4,-6,-7
15,1,-14,-8,15,-7,-7,-11,4,3,-6,-7
14,0,-14,-7,14,-7,-7,-11,3,3,-6,-7
13,-1,-14,-6,13,-7,-7,-12,3,3,-6,-7
13,-1,-14,-6,14,-8,-7,-11,3,3,-6,-7
14,-1,-15,-7,15,-8,-6,-11,3,3,-6,-8
14,-1,-14,-6,14,-8,-5,-11,3,2,-6,-8
11,-1,-12,-5,12,-7,-4,-12,2,1,-7,-8
10,-1,-12,-4,11,-7,-4,-13,2,1,-7,-9
12,-1,-14,-5,13,-8,-5,-14,1,0,-8,-10
15,-1,-16,-6,15,-9,-7,-16,0,-2,-9,-12
13,-1,-14,-5,13,-8,-8,-17,-2,-3,-10,-13
9,-2,-11,-2,9,-6,-8,-17,-2,-4,-11,-13
6,-3,-9,-1,7,-6,-8,-17,-2,-5,-11,-13
6,-3,-9,-1,8,-7,-8,-17,-3,-5,-11,-13
5,-3,-9,-1,8,-7,-8,-17,-3,-5,-11,-13
5,-3,-9,-1,8,-7,-8,-16,-3,-5,-11,-13
7,-3,-11,-2,9,-7,-8,-15,-3,-5,-11,-13
11,-2,-13,-4,12,-7,-9,-14,-3,-5,-11,-14
14,-1,-14,-6,14,-7,-10,-14,-3,-5,-12,-14
14,-1,-14,-6,13,-7,-10,-13,-3,-5,-12,-14
12,-1,-13,-5,12,-7,-10,-12,-3,-5,-12,-14
11,-2,-13,-5,12,-7,-9,-11,-3,-5,-12,-14
10,-2,-12,-4,11,-7,-9,-11,-3,-6,-12,-14
7,-2,-11,-3,9,-7,-8,-11,-4,-6,-12,-14
7,-3,-11,-2,10,-7,-8,-11,-4,-7,-13,-14
11,-2,-13,-5,12,-8,-7,-10,-5,-7,-13,-14
13,-2,-15,-6,14,-8,-7,-10,-4,-7,-13,-13
12,-4,-16,-4,15,-10,-6,-10,-4,-7,-13,-13
11,-5,-15,-4,14,-10,-5,-9,-4,-7,-12,-13
12,-3,-15,-5,14,-9,-4,-8,-4,-6,-12,-13
15,-1,-16,-8,16,-9,-3,-7,-3,-6,-12,-13
17,1,-16,-10,17,-8,-3,-5,-2,-5,-12,-13
17,2,-16,-10,16,-7,-2,-3,-1,-4,-11,-12
18,1,-17,-10,17,-7,-2,-2,0,-4,-11,-11
19,0,-18,-9,18,-9,-3,-2,-1,-4,-11,-11
14,-3,-16,-5,15,-9,-3,-2,-1,-5,-11,-11
8,-7,-14,0,11,-10,-4,-3,-2,-6,-12,-12
5,-9,-14,1,9,-11,-5,-3,-3,-6,-13,-13
6,-7,-13,0,10,-10,-4,-2,-2,-5,-12,-13
10,-4,-14,-3,13,-9,-4,-1,-1,-5,-11,-12
15,-1,-17,-7,16,-9,-5,-1,-1,-5,-11,-13
17,0,-17,-9,18,-9,-4,-1,-1,-5,-11,-13
16,0,-15,-9,16,-7,-3,0,-1,-5,-11,-12
16,0,-15,-9,16,-7,-2,-1,-2,-6,-12,-13
18,0,-18,-9,18,-9,-1,-2,-3,-7,-13,-14
16,-1,-18,-8,17,-9,-1,-3,-4,-7,-13,-15
13,-1,-16,-6,15,-9,-2,-4,-4,-8,-13,-15
12,-2,-16,-5,14,-9,-3,-5,-5,-8,-14,-16
12,-2,-16,-5,14,-10,-3,-5,-4,-8,-13,-15
12,-2,-16,-4,14,-9,-1,-4,-3,-7,-12,-14
11,-3,-14,-4,13,-9,0,-3,-2,-6,-11,-13
8,-4,-12,-2,10,-8,0,-3,-2,-6,-10,-13
7,-4,-11,-1,9,-8,0,-2,-2,-5,-10,-12
9,-2,-11,-3,9,-6,0,-1,-2,-5,-9,-12
11,1,-10,-6,10,-4,0,-1,-2,-4,-8,-12
11,3,-9,-7,10,-3,0,0,-1,-4,-8,-12
10,2,-8,-6,9,-3,0,0,-1,-4,-8,-12
7,0,-8,-3,8,-4,-1,-1,-2,-5,-9,-13
4,-4,-8,0,6,-6,-1,-1,-2,-6,-10,-14
1,-6,-7,2,4,-6,-1,-2,-3,-6,-10,-14
0,-6,-7,2,3,-6,-1,-2,-3,-6,-10,-15
0,-6,-6,3,3,-6,-1,-2,-3,-7,-11,-15
0,-5,-5,2,2,-5,0,-2,-3,-7,-11,-15
1,-3,-4,1,2,-4,0,-1,-2,-6,-10,-14
1,-2,-4,0,2,-3,1,0,-1,-5,-9,-13
1,-2,-5,1,3,-4,1,0,-1,-5,-9,-14
1,-3,-5,1,3,-4,2,0,-1,-5,-9,-14
2,-3,-5,0,4,-4,2,0,-1,-5,-9,-14
1,-3,-5,1,4,-4,2,0,-1,-6,-9,-14
0,-4,-4,2,2,-4,3,0,0,-5,-8,-13
-2,-5,-2,3,0,-3,5,0,0,-5,-7,-12
-2,-5,-2,4,0,-4,5,0,-1,-6,-8,-13
-2,-5,-3,4,0,-4,5,-1,-2,-7,-9,-14
-4,-6,-3,5,0,-5,5,-1,-2,-7,-9,-14
-5,-8,-3,7,-1,-5,4,0,-3,-7,-9,-14
-4,-9,-5,7,0,-7,3,0,-3,-7,-9,-14
-2,-9,-6,6,2,-7,2,0,-3,-7,-9,-14
-2,-9,-6,6,2,-7,3,1,-2,-6,-9,-14
-2,-8,-5,5,2,-6,3,1,-2,-6,-8,-14
0,-7,-7,3,4,-7,3,1,-2,-7,-8,-14
3,-6,-10,1,7,-8,2,1,-2,-7,-9,-15
4,-6,-11,0,7,-8,2,1,-2,-8,-9,-15
3,-6,-10,1,6,-7,2,1,-2,-8,-9,-15
4,-5,-10,0,7,-7,2,1,-2,-7,-9,-15
5,-4,-9,-1,7,-7,2,1,-2,-7,-8,-14
4,-4,-8,-1,6,-6,2,1,-1,-6,-8,-14
4,-4,-9,0,6,-6,2,0,-1,-6,-7,-13
5,-4,-10,-1,7,-7,2,-1,-1,-6,-7,-14
5,-5,-11,0,8,-8,2,-2,-1,-6,-7,-14
4,-6,-10,1,7,-8,2,-4,-2,-6,-7,-14
2,-7,-9,2,5,-8,1,-5,-2,-7,-8,-14
1,-7,-8,3,4,-7,0,-6,-3,-8,-8,-15
0,-8,-7,4,3,-7,-1,-6,-4,-9,-9,-15
-3,-9,-7,5,2,-8,-3,-7,-5,-10,-10,-16
-5,-11,-6,7,0,-8,-5,-9,-6,-11,-11,-18
-7,-13,-6,9,0,-9,-7,-10,-8,-13,-13,-19
-8,-15,-7,11,-1,-11,-9,-12,-9,-14,-14,-20
-9,-15,-7,12,-1,-11,-9,-13,-9,-14,-14,-20
-9,-15,-6,13,-2,-11,-9,-12,-8,-13,-13,-19
-9,-15,-6,12,-1,-11,-9,-12,-8,-12,-13,-19
-6,-14,-8,10,0,-11,-8,-11,-8,-11,-12,-18
-3,-12,-9,7,3,-10,-7,-9,-7,-11,-11,-17
0,-10,-10,4,5,-9,-5,-7,-5,-9,-10,-16
2,-6,-9,1,6,-7,-3,-5,-3,-8,-9,-15
3,-4,-8,0,6,-6,-2,-4,-2,-7,-8,-14
2,-4,-7,0,5,-5,-1,-3,-1,-6,-8,-14
0,-3,-5,1,3,-3,0,-2,0,-5,-7,-13
0,-2,-3,1,1,-2,1,-1,0,-5,-6,-12
0,-3,-2,2,1,-2,1,-1,0,-5,-7,-13
-2,-6,-3,4,0,-4,0,-2,-2,-7,-8,-15
-4,-10,-5,7,0,-7,0,-2,-3,-8,-9,-16
-3,-11,-7,8,1,-9,0,-2,-3,-9,-9,-16
0,-11,-10,6,4,-10,1,-1,-3,-8,-9,-15
1,-10,-11,4,6,-11,1,-1,-3,-8,-8,-15
1,-11,-12,5,7,-12,0,-2,-3,-8,-9,-16
0,-12,-12,6,6,-12,-1,-3,-4,-9,-10,-16
0,-10,-10,5,5,-10,0,-1,-3,-8,-9,-15
1,-9,-10,3,6,-9,2,0,-2,-7,-8,-15
3,-9,-12,2,7,-10,2,0,-2,-7,-8,-15
2,-10,-12,3,7,-11,2,0,-3,-8,-8,-15
1,-10,-12,4,6,-11,1,-1,-4,-9,-9,-16
2,-9,-12,3,7,-11,0,-1,-4,-9,-10,-17
2,-10,-12,4,7,-11,-1,-2,-5,-10,-10,-17
-1,-12,-11,6,5,-11,-1,-2,-5,-10,-10,-17
-3,-13,-9,8,3,-11,-1,-2,-5,-10,-10,-17
-3,-12,-9,8,3,-11,-1,-3,-5,-10,-10,-17
-3,-12,-8,7,3,-10,-1,-3,-5,-10,-9,-17
-2,-10,-7,6,2,-9,0,-3,-5,-10,-9,-17
-1,-8,-6,5,2,-7,1,-4,-5,-10,-9,-17
-1,-8,-7,4,3,-7,1,-4,-6,-10,-9,-17
-1,-9,-9,5,4,-9,2,-4,-6,-10,-9,-17
1,-10,-12,4,6,-11,1,-5,-6,-10,-10,-17
2,-10,-12,4,7,-11,1,-4,-6,-9,-9,-17
1,-8,-10,3,5,-8,2,-2,-5,-8,-8,-16
1,-6,-8,3,5,-7,2,-1,-4,-7,-7,-15
0,-6,-6,3,4,-6,1,0,-3,-7,-7,-15
-2,-7,-5,5,1,-5,2,1,-3,-7,-6,-15
-4,-8,-4,6,0,-6,2,2,-2,-6,-6,-15
-4,-8,-4,6,0,-6,1,2,-2,-7,-6,-15
-4,-8,-4,6,0,-6,0,2,-2,-8,-7,-15
-6,-9,-4,8,-1,-6,0,3,-2,-7,-7,-15
-10,-12,-2,11,-3,-7,1,5,-1,-6,-5,-13
-11,-14,-2,13,-4,-8,1,5,0,-5,-5,-13
-11,-15,-3,13,-4,-9,1,3,-1,-6,-5,-13
-11,-15,-3,13,-4,-8,2,2,-2,-6,-6,-14
-11,-14,-2,12,-4,-7,2,2,-2,-6,-6,-14
-10,-12,-1,10,-4,-6,3,3,-1,-6,-6,-14
-11,-10,0,10,-5,-5,5,5,0,-5,-5,-13
-12,-10,1,11,-7,-4,6,7,1,-4,-4,-13
-13,-10,2,11,-7,-4,7,8,1,-3,-3,-12
-14,-11,2,12,-8,-4,7,8,2,-3,-3,-12
-17,-12,5,14,-11,-3,7,9,3,-3,-2,-11
-21,-14,7,17,-14,-3,7,9,3,-2,-1,-11
-23,-15,8,19,-15,-3,6,9,3,-2,-1,-11
-22,-14,8,18,-15,-2,5,9,3,-3,-1,-11
-19,-14,6,16,-12,-3,5,8,2,-4,-2,-12
-18,-15,3,16,-10,-6,4,6,0,-5,-3,-13
-18,-17,1,18,-10,-7,3,4,-1,-7,-5,-15
-19,-18,1,19,-10,-8,3,2,-2,-8,-6,-16
-18,-17,0,18,-9,-8,3,2,-2,-8,-6,-16
-15,-15,0,15,-8,-7,4,2,-2,-7,-5,-15
-12,-11,1,11,-7,-5,4,3,-1,-6,-3,-14
-11,-9,2,10,-7,-3,3,3,0,-5,-2,-13
-12,-8,4,10,-8,-2,2,4,0,-5,-1,-13
-13,-8,5,10,-9,-1,2,4,0,-5,-1,-12
-13,-6,6,9,-9,0,2,3,0,-4,0,-12
-12,-6,6,9,-9,0,2,2,1,-4,0,-11
-11,-6,4,9,-8,-1,1,1,1,-4,0,-11
-12,-7,4,10,-8,-2,1,0,1,-4,0,-12
-13,-9,4,11,-8,-2,1,-1,1,-4,0,-12
-13,-9,3,11,-8,-3,1,0,1,-4,1,-11
-11,-7,3,9,-7,-2,2,0,2,-3,2,-11
-9,-6,3,8,-6,-2,3,1,3,-1,3,-10
-8,-4,3,6,-5,-1,4,2,4,-1,4,-10
-7,-3,3,5,-5,-1,5,2,4,0,5,-10
-7,-4,3,6,-5,-1,5,2,4,0,5,-9
-10,-6,4,8,-7,-1,4,2,5,0,6,-9
-12,-8,4,10,-8,-2,3,2,5,1,7,-8
-11,-8,2,9,-6,-2,2,3,6,1,7,-8
-9,-7,1,8,-4,-3,2,3,7,1,8,-8
-10,-9,0,9,-5,-4,2,3,7,1,8,-8
-15,-14,0,14,-7,-6,1,3,7,1,7,-8
-18,-18,0,18,-9,-9,1,3,6,1,7,-9
-20,-20,0,20,-10,-10,2,3,6,1,6,-10
-21,-20,0,21,-10,-10,3,3,6,0,5,-11
-18,-19,-1,19,-8,-10,3,2,5,0,4,-12
-14,-18,-4,16,-4,-11,2,1,3,-2,3,-13
-14,-18,-3,16,-5,-10,1,1,2,-3,3,-13
-14,-16,-2,15,-5,-8,0,1,2,-3,3,-13
-12,-14,-2,12,-5,-7,0,2,2,-3,3,-12
-11,-11,0,11,-6,-5,-1,3,2,-2,4,-11
-9,-8,1,9,-5,-4,-1,4,3,-2,4,-11
-6,-8,-2,7,-1,-5,-1,3,1,-3,4,-11
-5,-9,-4,8,0,-7,-2,2,0,-4,2,-12
-7,-11,-5,9,-1,-8,-2,1,-2,-5,2,-13
-8,-12,-5,10,-1,-9,-1,0,-4,-6,1,-13
-9,-14,-6,11,-1,-10,0,0,-5,-7,0,-15
-11,-18,-7,14,-2,-12,0,0,-6,-9,-1,-17
-15,-23,-7,19,-4,-15,1,-1,-6,-10,-3,-18
-18,-25,-7,21,-5,-16,0,-1,-7,-11,-4,-19
-15,-23,-8,19,-4,-16,0,-1,-7,-11,-4,-20
-11,-19,-8,15,-1,-14,0,-1,-6,-11,-3,-19
-9,-18,-9,13,0,-13,-2,-1,-6,-11,-3,-19
-11,-19,-8,15,-1,-14,-3,-1,-6,-11,-2,-18
-13,-21,-7,17,-2,-14,-4,-2,-7,-12,-2,-18
-15,-22,-7,18,-3,-15,-4,-3,-8,-12,-2,-19
-15,-23,-8,19,-3,-15,-4,-3,-7,-12,-2,-18
-14,-22,-8,18,-2,-15,-4,-2,-6,-11,-1,-17
-10,-19,-8,15,0,-14,-2,-2,-6,-9,0,-16
-7,-17,-9,13,1,-13,0,-2,-6,-9,1,-16
-6,-17,-10,12,1,-13,0,-2,-6,-9,1,-15
-6,-16,-9,11,2,-13,2,-1,-6,-8,2,-14
-5,-13,-8,9,2,-11,3,0,-4,-7,4,-13
-4,-12,-7,8,1,-9,5,1,-3,-6,5,-13
-6,-12,-5,9,0,-8,6,2,-2,-5,6,-12
-8,-13,-5,11,-1,-8,6,3,-2,-5,6,-12
-9,-13,-5,11,-2,-9,6,4,-2,-5,6,-12
-10,-15,-5,13,-2,-10,7,5,-2,-5,5,-13
-11,-17,-6,15,-2,-12,7,5,-2,-6,4,-13
-13,-19,-6,17,-3,-13,7,6,-3,-7,3,-13
-17,-22,-5,20,-5,-14,6,6,-3,-8,2,-14
-20,-24,-4,22,-7,-14,6,6,-3,-8,1,-14
-20,-23,-4,21,-7,-13,6,7,-3,-8,1,-14
-15,-22,-7,18,-3,-14,4,6,-4,-9,0,-15
-10,-21,-11,16,1,-16,3,5,-6,-10,-1,-17
-11,-22,-10,17,0,-16,3,6,-6,-10,-2,-18
-15,-22,-5,19,-5,-14,3,7,-4,-9,-1,-17
-17,-21,-3,19,-7,-12,3,7,-4,-9,-1,-16
-17,-21,-4,19,-6,-12,2,6,-5,-10,-2,-17
-15,-21,-5,18,-4,-13,2,6,-6,-11,-3,-17
-13,-20,-6,16,-3,-13,2,5,-7,-12,-4,-18
-15,-19,-5,17,-4,-12,3,5,-7,-12,-4,-18
-16,-19,-3,18,-6,-11,4,5,-7,-12,-4,-18
-15,-18,-3,17,-6,-11,4,4,-7,-12,-4,-18
-14,-17,-3,16,-5,-11,4,3,-8,-12,-5,-19
-13,-18,-4,16,-5,-11,3,1,-9,-13,-6,-20
-17,-19,-2,18,-7,-11,3,0,-9,-14,-7,-20
-21,-21,0,21,-10,-10,3,0,-9,-14,-7,-21
-22,-22,0,22,-11,-10,2,0,-10,-14,-7,-21
-23,-23,-1,23,-11,-12,1,-1,-11,-16,-9,-23
-23,-25,-3,24,-10,-14,0,-2,-12,-17,-10,-24
-23,-26,-3,25,-10,-15,1,-2,-11,-16,-9,-23
-25,-26,-1,26,-12,-14,2,0,-10,-14,-8,-22
-26,-26,0,26,-13,-13,3,-1,-10,-14,-8,-22
-25,-27,0,26,-13,-14,4,-2,-10,-15,-8,-23
-23,-26,-2,25,-10,-14,4,-3,-10,-15,-8,-23
-21,-25,-4,23,-8,-14,4,-4,-10,-15,-7,-22
-22,-24,-2,23,-10,-12,4,-5,-11,-15,-7,-22
-23,-22,0,22,-12,-10,4,-5,-10,-15,-6,-21
-20,-19,1,20,-11,-9,4,-4,-10,-14,-5,-20
-19,-18,1,19,-11,-9,4,-4,-9,-13,-5,-20
-22,-19,3,21,-13,-8,4,-4,-9,-12,-4,-19
-24,-20,4,22,-14,-8,4,-3,-8,-11,-2,-19
-25,-20,4,23,-14,-8,4,-3,-6,-10,-1,-18
-26,-21,3,24,-14,-9,4,-2,-6,-9,0,-17
-25,-22,1,23,-13,-10,1,-3,-7,-11,-1,-18
-24,-23,-1,23,-11,-12,0,-5,-8,-13,-3,-20
-25,-24,-1,24,-12,-12,0,-5,-9,-13,-3,-21
-25,-23,0,25,-13,-11,0,-6,-8,-12,-3,-20
-24,-22,0,24,-12,-11,1,-6,-8,-12,-3,-20
-22,-21,0,22,-11,-10,1,-7,-8,-12,-3,-20
-21,-20,1,21,-11,-9,2,-7,-8,-12,-3,-19
-23,-20,2,22,-12,-9,2,-7,-7,-12,-3,-20
-28,-23,5,26,-17,-8,2,-7,-7,-13,-4,-22
-34,-25,9,30,-22,-7,2,-7,-5,-12,-4,-23
-36,-22,13,29,-25,-4,4,-6,-1,-7,-2,-22
-34,-15,18,25,-26,1,6,-3,5,0,3,-19
-31,-8,21,20,-26,6,8,0,12,7,9,-14
-27,-3,23,15,-25,10,9,3,20,16,18,-7
-23,1,25,11,-24,13,10,7,29,27,30,2
-21,5,27,8,-24,16,10,11,36,38,46,15
-20,8,29,6,-24,19,10,15,44,52,64,30
-18,13,31,2,-24,23,9,18,54,68,85,48
-11,22,33,-5,-21,28,8,22,65,89,111,71
-1,33,33,-15,-17,33,6,26,77,112,141,97
6,40,34,-23,-14,37,1,29,88,135,170,122
13,49,35,-31,-11,42,-5,31,97,158,200,147
22,59,37,-41,-8,48,-14,32,104,181,232,173
32,72,40,-52,-4,55,-24,33,109,202,263,201
45,86,41,-66,1,63,-34,33,112,219,292,228
60,99,39,-80,10,69,-43,33,111,232,314,250
76,108,31,-92,22,70,-53,32,108,237,326,264
90,113,23,-101,33,68,-62,30,101,236,326,269
101,114,13,-107,44,63,-70,26,90,226,311,261
109,109,0,-108,54,54,-78,21,77,207,281,239
116,100,-15,-108,65,42,-84,19,63,181,239,206
122,89,-32,-105,77,28,-89,15,45,148,190,165
123,75,-48,-99,86,13,-94,7,20,108,138,123
120,56,-63,-88,91,-3,-95,-2,-9,63,87,81
111,35,-76,-73,94,-19,-94,-13,-41,14,37,41
99,15,-83,-57,92,-33,-90,-26,-74,-35,-11,3
88,-1,-88,-43,88,-44,-87,-40,-106,-83,-54,-30
81,-15,-95,-32,88,-55,-85,-50,-132,-123,-91,-59
76,-29,-104,-23,90,-67,-84,-56,-149,-152,-119,-83
69,-43,-111,-13,90,-78,-80,-58,-158,-170,-138,-100
60,-54,-114,-3,87,-84,-75,-57,-160,-178,-147,-111
49,-60,-110,4,80,-85,-67,-54,-153,-176,-147,-113
39,-62,-101,11,70,-81,-58,-48,-140,-165,-138,-110
30,-59,-90,14,60,-73,-49,-42,-124,-149,-125,-102
24,-52,-76,14,50,-64,-41,-36,-106,-131,-109,-91
18,-46,-64,14,41,-55,-34,-30,-91,-114,-96,-81
11,-44,-55,17,33,-50,-29,-26,-79,-101,-85,-74
3,-44,-47,21,26,-46,-26,-23,-70,-91,-76,-69
-2,-45,-43,24,20,-44,-23,-20,-62,-82,-69,-65
-6,-45,-40,25,17,-43,-20,-17,-55,-75,-62,-61
-9,-45,-37,27,13,-41,-16,-14,-48,-68,-56,-57
-12,-45,-34,29,10,-39,-13,-13,-43,-63,-51,-54
-14,-43,-29,29,7,-36,-11,-12,-38,-57,-46,-51
-15,-40,-25,28,5,-33,-9,-11,-35,-52,-42,-49
-17,-38,-20,28,2,-29,-8,-11,-32,-48,-38,-46
-21,-37,-16,30,-2,-27,-8,-12,-30,-44,-34,-44
-26,-39,-13,32,-6,-26,-7,-12,-28,-41,-31,-42
-30,-39,-11,34,-9,-25,-6,-10,-25,-38,-28,-39
-32,-37,-6,34,-13,-22,-3,-8,-22,-34,-24,-36
-32,-35,-3,33,-15,-19,0,-6,-19,-31,-21,-34
-31,-34,-4,32,-14,-18,2,-5,-17,-29,-19,-32
-31,-35,-4,33,-14,-19,3,-4,-14,-27,-17,-31
-34,-36,-2,36,-16,-19,5,-2,-12,-24,-15,-30
-37,-37,0,38,-19,-18,5,-1,-11,-23,-14,-28
-41,-38,1,39,-21,-18,4,-1,-11,-22,-14,-28
-42,-39,2,40,-22,-18,3,-1,-12,-22,-14,-28
-39,-36,2,37,-21,-17,3,0,-12,-22,-13,-28
-34,-33,0,33,-17,-16,4,0,-12,-22,-13,-28
-32,-33,-2,33,-15,-17,4,0,-12,-23,-13,-28
-33,-36,-2,35,-16,-18,5,0,-12,-23,-13,-29
-36,-39,-2,39,-17,-20,5,0,-12,-23,-13,-29
-38,-41,-3,41,-17,-21,4,-2,-12,-23,-13,-30
-37,-40,-3,39,-16,-21,3,-3,-12,-24,-14,-30
-35,-38,-4,37,-15,-21,3,-4,-13,-24,-14,-31
-34,-37,-4,35,-15,-21,2,-5,-13,-25,-15,-31
-33,-36,-4,34,-15,-20,2,-6,-13,-25,-15,-31
-36,-36,-2,36,-17,-19,2,-6,-12,-24,-14,-30
-39,-37,1,38,-20,-18,2,-6,-10,-23,-12,-28
-39,-36,3,38,-21,-16,2,-6,-9,-22,-11,-27
-37,-33,4,36,-21,-14,1,-6,-9,-21,-10,-27
-36,-32,4,35,-20,-14,1,-6,-8,-20,-9,-26
-37,-31,4,35,-21,-13,1,-6,-8,-20,-9,-26
-40,-32,6,36,-23,-13,1,-7,-8,-20,-8,-25
-42,-34,7,37,-24,-14,1,-8,-8,-20,-8,-26
-42,-37,4,39,-23,-16,1,-9,-9,-20,-8,-27
-42,-38,3,40,-23,-17,1,-10,-10,-21,-9,-28
-44,-39,4,42,-24,-17,1,-11,-11,-21,-10,-28
-46,-41,5,44,-25,-17,1,-12,-12,-22,-10,-29
-46,-40,5,44,-25,-17,2,-12,-12,-21,-10,-29
-43,-37,5,41,-24,-16,2,-11,-11,-20,-8,-28
-40,-34,5,37,-22,-15,2,-10,-11,-19,-7,-27
-38,-33,5,35,-21,-15,1,-10,-11,-19,-7,-27
-36,-33,3,34,-20,-15,1,-9,-11,-19,-6,-27
-35,-33,2,33,-19,-15,2,-8,-10,-18,-5,-26
-36,-32,5,34,-21,-13,4,-6,-9,-17,-4,-24
-39,-32,7,36,-23,-12,5,-5,-9,-17,-3,-24
-38,-32,6,36,-22,-12,5,-5,-9,-17,-3,-25
-38,-33,4,35,-20,-14,4,-6,-11,-17,-4,-26
-38,-34,3,36,-20,-15,3,-7,-12,-18,-5,-28
-40,-35,4,37,-22,-16,3,-7,-13,-19,-7,-28
-42,-37,5,39,-24,-16,3,-7,-13,-18,-8,-28
-43,-38,4,40,-24,-17,2,-6,-13,-18,-11,-28
-41,-38,3,40,-22,-17,1,-6,-13,-19,-14,-28
-39,-37,2,38,-20,-17,1,-6,-13,-19,-17,-28
-37,-37,0,38,-18,-18,0,-6,-13,-19,-19,-28
-38,-38,0,39,-18,-19,0,-6,-12,-19,-21,-28
-41,-39,0,40,-20,-20,1,-5,-12,-19,-22,-27
-41,-39,0,39,-20,-19,2,-5,-11,-18,-22,-27
-38,-36,0,37,-19,-17,2,-5,-11,-17,-23,-27
-35,-34,0,35,-18,-16,2,-5,-11,-17,-24,-27
-35,-34,0,35,-18,-16,2,-6,-11,-17,-25,-27
-37,-35,1,36,-19,-16,1,-6,-11,-18,-25,-27
-40,-37,2,38,-21,-17,1,-7,-11,-18,-26,-27
-41,-39,2,40,-21,-18,0,-9,-12,-18,-27,-28
-41,-40,0,40,-20,-19,-2,-12,-14,-20,-29,-29
-41,-39,0,40,-20,-19,-3,-13,-14,-20,-30,-30
-40,-37,1,39,-20,-18,-3,-14,-14,-20,-29,-29
-36,-35,0,36,-19,-18,-3,-15,-13,-19,-29,-28
-33,-34,-1,34,-17,-18,-3,-16,-14,-19,-30,-28
-30,-34,-3,33,-14,-18,-4,-16,-14,-20,-30,-28
-30,-34,-4,33,-13,-18,-4,-16,-14,-20,-31,-28
-35,-36,-2,36,-16,-18,-3,-15,-12,-19,-30,-27
-40,-39,0,40,-20,-19,-3,-16,-11,-18,-30,-27
-40,-41,-3,41,-18,-22,-6,-17,-12,-19,-31,-28
-38,-42,-5,40,-16,-23,-8,-19,-12,-20,-32,-29
-36,-41,-6,38,-15,-23,-8,-19,-12,-20,-32,-29
-34,-40,-6,37,-14,-23,-9,-20,-12,-20,-33,-30
-34,-40,-6,37,-14,-23,-9,-20,-12,-20,-34,-30
-34,-40,-5,37,-14,-22,-9,-20,-11,-20,-34,-29
-35,-39,-3,37,-15,-21,-9,-19,-10,-18,-34,-28
-35,-38,-3,36,-14,-20,-10,-19,-9,-18,-33,-28
-34,-38,-4,35,-14,-20,-12,-20,-10,-18,-34,-29
-33,-35,-3,34,-14,-19,-13,-20,-10,-18,-34,-28
-33,-33,0,32,-15,-17,-14,-19,-9,-17,-33,-27
-33,-33,0,32,-16,-16,-14,-20,-8,-17,-32,-27
-33,-35,-1,34,-16,-18,-14,-20,-8,-17,-32,-28
-34,-36,-1,35,-16,-19,-12,-20,-8,-17,-32,-27
-35,-35,1,35,-17,-17,-10,-19,-8,-16,-31,-26
-34,-34,0,34,-16,-17,-10,-19,-9,-16,-31,-26
-33,-35,-3,34,-14,-19,-11,-20,-10,-17,-32,-27
-34,-38,-5,36,-14,-21,-13,-21,-11,-18,-33,-28
-38,-40,-4,39,-16,-22,-13,-20,-11,-18,-33,-28
-39,-39,-2,39,-18,-20,-12,-18,-10,-16,-31,-26
-36,-35,0,36,-18,-16,-10,-14,-7,-13,-28,-23
-33,-31,2,32,-17,-14,-8,-12,-5,-11,-26,-20
-31,-31,0,32,-16,-15,-7,-12,-6,-12,-26,-21
-33,-33,0,34,-16,-17,-8,-13,-8,-13,-28,-22
-36,-35,1,35,-18,-17,-8,-14,-10,-15,-29,-23
-38,-35,1,36,-19,-17,-8,-14,-11,-15,-29,-23
-38,-35,2,36,-19,-17,-7,-14,-11,-14,-29,-22
-36,-32,2,34,-18,-15,-7,-13,-10,-14,-28,-22
-32,-30,1,31,-17,-14,-8,-13,-10,-14,-28,-21
-31,-30,1,31,-16,-14,-8,-13,-10,-14,-29,-21
-33,-30,2,32,-17,-14,-8,-13,-11,-14,-29,-21
-33,-30,3,32,-18,-13,-8,-13,-11,-14,-29,-21
-31,-27,3,29,-17,-12,-8,-12,-11,-13,-28,-20
-29,-25,3,27,-15,-11,-7,-10,-10,-11,-27,-18
-29,-26,2,27,-15,-12,-8,-9,-10,-11,-26,-18
-30,-28,1,29,-15,-13,-10,-9,-11,-13,-27,-19
-32,-30,3,31,-17,-13,-11,-9,-11,-13,-28,-19
-34,-30,4,32,-19,-12,-11,-9,-10,-13,-27,-18
-32,-29,4,30,-18,-12,-10,-8,-9,-12,-27,-17
-30,-26,4,28,-17,-11,-9,-7,-8,-11,-26,-16
-29,-23,5,27,-17,-9,-8,-7,-7,-9,-25,-15
-29,-20,7,25,-18,-7,-8,-7,-7,-9,-25,-14
-27,-17,8,22,-18,-5,-9,-7,-8,-9,-26,-14
-26,-17,8,21,-17,-5,-10,-8,-8,-10,-26,-14
-26,-19,5,22,-15,-7,-11,-9,-9,-10,-26,-14
-26,-21,4,23,-15,-8,-10,-10,-9,-10,-26,-13
-26,-22,4,24,-15,-8,-10,-11,-9,-10,-26,-12
-26,-21,5,23,-15,-8,-10,-12,-10,-10,-27,-12
-26,-21,5,23,-15,-7,-10,-12,-10,-10,-27,-11
-26,-20,5,23,-15,-7,-9,-12,-10,-10,-26,-10
-25,-21,3,23,-14,-8,-9,-12,-10,-10,-26,-10
-25,-21,3,23,-14,-9,-9,-12,-10,-11,-26,-10
-28,-22,5,25,-16,-8,-10,-12,-10,-11,-26,-9
-30,-23,6,26,-18,-8,-11,-12,-11,-11,-27,-10
-30,-24,6,27,-18,-8,-12,-12,-12,-12,-27,-10
-29,-24,6,27,-18,-8,-13,-12,-12,-12,-28,-11
-28,-23,5,26,-17,-8,-13,-12,-13,-13,-28,-11
-27,-22,5,25,-16,-8,-13,-12,-13,-14,-29,-11
-27,-21,6,24,-17,-7,-13,-12,-12,-14,-29,-10
-26,-20,6,23,-16,-7,-14,-12,-12,-14,-29,-10
-25,-20,5,22,-15,-7,-14,-12,-13,-15,-29,-10
-25,-20,5,22,-15,-7,-14,-13,-14,-16,-30,-10
-23,-19,4,21,-14,-7,-14,-14,-15,-17,-31,-11
-19,-18,2,18,-10,-8,-14,-16,-17,-18,-32,-12
-17,-18,0,17,-8,-8,-15,-17,-18,-19,-33,-13
-19,-19,1,19,-10,-8,-16,-17,-18,-19,-33,-12
-22,-20,2,21,-12,-8,-17,-17,-18,-19,-32,-11
-22,-22,0,22,-11,-10,-18,-16,-18,-19,-32,-11
-24,-23,0,24,-12,-12,-18,-15,-17,-18,-31,-10
-27,-25,0,26,-13,-13,-17,-13,-16,-17,-29,-8
-27,-27,0,27,-13,-14,-17,-12,-15,-16,-28,-7
-25,-26,-1,26,-12,-14,-15,-11,-14,-16,-27,-6
-22,-25,-3,24,-9,-14,-15,-11,-14,-16,-27,-6
-20,-26,-5,23,-7,-15,-15,-13,-15,-17,-29,-7
-20,-26,-5,22,-7,-15,-14,-14,-15,-17,-30,-7
-21,-26,-4,23,-7,-15,-13,-14,-15,-17,-30,-8
-22,-26,-3,23,-9,-15,-13,-14,-16,-18,-31,-8
-24,-25,-2,24,-10,-14,-13,-14,-16,-18,-31,-9
-23,-25,-3,23,-9,-14,-13,-13,-17,-19,-32,-9
-20,-24,-5,22,-7,-14,-14,-13,-17,-19,-32,-9
-17,-24,-7,20,-4,-15,-14,-12,-17,-19,-31,-9
-16,-24,-8,20,-4,-15,-15,-11,-17,-19,-31,-9
-18,-25,-7,21,-5,-15,-16,-11,-17,-20,-32,-9
-19,-25,-7,22,-5,-16,-17,-12,-19,-21,-33,-9
-19,-25,-8,22,-5,-17,-17,-13,-20,-22,-34,-9
-18,-24,-8,21,-5,-17,-17,-14,-20,-22,-34,-9
-17,-23,-8,20,-4,-16,-16,-14,-21,-22,-34,-9
-16,-24,-9,20,-4,-17,-16,-14,-21,-23,-34,-10
-16,-26,-10,21,-3,-18,-16,-15,-22,-24,-35,-10
-16,-27,-10,22,-3,-18,-17,-16,-22,-25,-36,-11
-17,-28,-10,23,-3,-19,-17,-17,-23,-25,-37,-12
-19,-28,-9,23,-4,-18,-17,-18,-24,-25,-37,-12
-20,-26,-7,23,-6,-17,-16,-17,-22,-24,-35,-11
-20,-24,-6,22,-6,-16,-15,-16,-21,-22,-34,-9
-19,-24,-5,21,-6,-16,-14,-16,-20,-22,-33,-8
-19,-26,-7,22,-5,-17,-14,-16,-20,-22,-33,-7
-17,-28,-9,22,-3,-19,-15,-17,-21,-24,-34,-9
-15,-28,-11,21,-1,-20,-18,-19,-23,-26,-36,-11
-15,-28,-13,22,0,-20,-19,-20,-24,-27,-36,-11
-16,-29,-13,23,0,-21,-18,-20,-24,-27,-36,-10
-14,-30,-16,22,1,-23,-17,-20,-24,-27,-35,-10
-11,-29,-18,20,4,-24,-17,-20,-24,-28,-36,-10
-10,-28,-19,19,4,-24,-17,-21,-25,-28,-36,-10
-10,-29,-19,20,4,-24,-18,-21,-25,-28,-36,-10
-11,-31,-19,21,4,-25,-18,-20,-25,-28,-36,-10
-11,-31,-19,21,4,-25,-19,-20,-24,-28,-36,-10
-10,-29,-18,20,4,-23,-19,-19,-23,-28,-36,-10
-7,-26,-18,17,6,-22,-19,-19,-23,-27,-35,-9
-7,-25,-18,16,6,-22,-19,-20,-24,-28,-36,-10
-10,-26,-17,18,4,-21,-19,-20,-24,-29,-37,-11
-12,-26,-16,19,2,-21,-18,-20,-25,-30,-38,-12
-13,-27,-15,19,2,-22,-18,-20,-25,-30,-38,-12
-12,-27,-15,19,1,-21,-16,-19,-25,-30,-38,-12
-12,-28,-16,20,2,-22,-15,-19,-25,-30,-38,-11
-12,-29,-17,21,2,-23,-15,-19,-25,-31,-39,-12
-12,-30,-17,22,2,-24,-15,-19,-26,-31,-40,-12
-13,-30,-17,22,2,-24,-15,-19,-25,-31,-40,-12
-13,-29,-17,22,2,-23,-16,-18,-24,-30,-39,-12
-13,-29,-16,21,1,-22,-17,-17,-24,-30,-39,-11
-14,-28,-15,21,0,-21,-17,-16,-24,-30,-39,-11
-14,-28,-14,21,0,-21,-17,-16,-24,-30,-39,-11
-13,-28,-14,21,0,-21,-17,-17,-24,-30,-39,-11
-14,-28,-13,21,0,-21,-17,-17,-24,-29,-38,-11
-17,-30,-13,23,-2,-21,-17,-16,-23,-29,-38,-11
-18,-32,-14,25,-1,-23,-19,-16,-23,-29,-39,-12
-17,-32,-15,24,0,-24,-20,-16,-23,-29,-39,-12
-15,-31,-16,22,1,-24,-19,-15,-21,-28,-38,-12
-13,-30,-17,21,2,-24,-18,-14,-20,-27,-37,-11
-11,-28,-17,19,3,-23,-17,-13,-19,-26,-36,-11
-7,-25,-17,16,4,-21,-15,-12,-17,-24,-35,-10
-6,-23,-16,14,4,-19,-13,-11,-16,-23,-35,-10
-6,-22,-15,15,3,-18,-13,-11,-16,-23,-34,-10
-7,-22,-14,15,3,-18,-13,-10,-15,-22,-34,-10
-8,-23,-14,16,3,-19,-13,-10,-15,-23,-35,-10
-9,-24,-15,16,3,-20,-13,-10,-15,-23,-35,-10
-9,-25,-16,16,3,-20,-13,-9,-14,-22,-35,-10
-9,-25,-15,16,2,-20,-13,-9,-14,-22,-35,-11
-9,-24,-15,16,2,-19,-13,-8,-13,-22,-35,-11
-7,-23,-15,15,3,-18,-13,-7,-13,-21,-34,-11
-6,-22,-16,14,4,-19,-13,-7,-12,-20,-34,-11
-6,-22,-16,14,4,-19,-13,-6,-12,-20,-34,-11
-10,-24,-14,17,2,-19,-13,-5,-11,-19,-33,-10
-14,-27,-13,21,0,-20,-13,-4,-10,-18,-33,-10
-17,-28,-12,22,-2,-20,-11,-3,-8,-17,-32,-10
-16,-27,-11,21,-3,-19,-10,-2,-7,-15,-31,-9
-15,-26,-11,20,-2,-18,-9,-2,-6,-14,-30,-9
-13,-26,-12,19,-1,-19,-10,-2,-6,-14,-30,-9
-13,-26,-12,19,-1,-19,-10,-2,-5,-13,-30,-9
-12,-24,-11,18,-1,-18,-9,-2,-4,-12,-29,-8
-10,-21,-12,15,0,-17,-9,-2,-3,-11,-29,-8
-5,-19,-13,12,4,-16,-10,-2,-3,-11,-29,-9
-3,-18,-15,10,6,-16,-11,-2,-2,-11,-29,-10
-3,-17,-15,9,6,-16,-12,-2,-2,-10,-29,-10
-3,-17,-14,9,5,-15,-13,-2,0,-9,-28,-9
-3,-17,-14,10,4,-15,-13,-2,1,-7,-27,-8
-6,-19,-12,12,2,-15,-13,-2,2,-6,-26,-8
-10,-20,-9,15,-1,-14,-13,-2,3,-5,-25,-8
-10,-20,-10,15,-1,-15,-15,-2,3,-5,-25,-8
-7,-18,-11,13,1,-15,-16,-3,3,-4,-25,-9
-5,-15,-11,10,3,-13,-15,-2,4,-3,-24,-8
-3,-14,-12,8,4,-13,-15,-2,4,-2,-23,-8
-2,-14,-12,8,5,-13,-14,-3,4,-1,-22,-7
-4,-15,-11,10,4,-13,-13,-2,6,0,-21,-6
-3,-16,-12,10,4,-14,-13,-2,7,1,-21,-5
-1,-16,-14,9,6,-15,-13,-2,8,1,-20,-5
-1,-14,-12,8,5,-13,-13,-3,9,2,-19,-5
-3,-13,-9,8,3,-11,-12,-2,10,4,-17,-3
-4,-12,-7,8,2,-9,-11,-2,11,6,-15,-3
-4,-11,-7,8,2,-9,-11,-2,12,7,-15,-3
-4,-12,-8,8,2,-10,-11,-3,13,7,-15,-3
-6,-14,-8,9,1,-11,-12,-4,13,8,-15,-4
-8,-15,-8,12,0,-11,-12,-4,13,9,-14,-3
-8,-15,-7,12,-1,-11,-11,-4,14,9,-14,-2
-5,-13,-8,9,1,-11,-11,-4,14,10,-14,-2
-3,-12,-9,7,2,-10,-10,-4,14,11,-13,-1
-4,-12,-7,8,1,-9,-9,-4,15,12,-11,0
-7,-12,-5,9,-1,-8,-8,-4,15,14,-9,0
-10,-12,-2,10,-3,-7,-7,-3,16,15,-8,0
-9,-10,-1,9,-4,-6,-6,-3,17,15,-7,1
-6,-7,0,6,-3,-4,-6,-2,17,16,-6,1
-4,-3,2,4,-3,-1,-6,-2,17,16,-6,2
-4,0,4,2,-4,2,-6,-1,18,17,-5,2
-2,1,4,1,-4,2,-5,-1,19,18,-5,2
-1,0,2,1,-2,1,-5,0,19,19,-4,3
0,0,0,0,0,0,-4,3,20,20,-3,4
0,0,0,0,0,0,-5,4,20,21,-2,4
-1,-2,0,1,0,0,-6,4,19,20,-3,4
-5,-4,1,4,-3,-1,-7,3,19,20,-2,4
-8,-5,3,6,-6,-1,-8,3,19,20,-2,4
-8,-4,4,6,-7,0,-8,3,19,20,-2,3
-8,-3,4,6,-6,0,-7,3,18,20,-2,3
-6,-3,3,5,-5,0,-6,6,18,20,-2,3
-7,-5,1,6,-5,-2,-4,11,18,20,-3,3
-11,-10,0,10,-6,-4,-4,14,18,19,-4,3
-14,-14,0,14,-7,-6,-3,16,17,18,-6,2
-13,-14,-1,13,-6,-7,-1,17,17,17,-6,2
-11,-12,-1,11,-4,-6,0,19,17,18,-6,2
-9,-11,-1,10,-4,-5,2,20,17,18,-6,3
-9,-9,0,9,-5,-5,3,20,17,18,-6,3
-8,-9,-1,9,-4,-5,3,20,18,18,-6,3
-7,-9,-2,8,-3,-6,2,19,18,17,-6,3
-5,-7,-3,6,-1,-5,1,18,17,17,-6,3
-3,-6,-3,4,0,-5,0,16,16,16,-6,3
-3,-6,-3,4,0,-4,0,15,15,15,-7,2
-2,-5,-2,3,0,-4,0,14,15,14,-8,1
1,-3,-3,0,2,-3,0,14,14,13,-8,0
3,-1,-3,-1,2,-2,0,13,13,12,-9,-1
2,-1,-3,0,2,-2,0,11,12,10,-10,-2
0,-3,-3,2,1,-3,0,8,10,9,-12,-3
-3,-6,-3,4,0,-4,0,6,9,8,-13,-4
-5,-7,-2,6,0,-4,0,5,8,7,-13,-5
-5,-7,-2,5,0,-4,0,3,7,6,-14,-5
-3,-7,-3,5,1,-5,-1,2,5,4,-15,-6
0,-7,-6,3,2,-6,-2,1,4,3,-15,-7
1,-7,-7,2,3,-7,-2,1,4,2,-15,-7
2,-7,-8,2,4,-8,-2,1,4,2,-16,-7
3,-7,-10,2,6,-8,-2,1,3,1,-16,-8
3,-6,-9,1,6,-7,-2,1,3,1,-16,-8
5,-4,-9,-1,7,-6,-2,1,3,0,-17,-8
7,-3,-10,-3,9,-6,-2,0,3,0,-18,-9
8,-3,-10,-3,10,-6,-2,0,3,0,-18,-9
9,-3,-11,-3,10,-6,-1,1,4,0,-17,-9
11,-3,-12,-4,11,-7,-2,1,4,0,-17,-9
12,-3,-14,-5,13,-8,-3,0,3,0,-18,-9
13,-3,-16,-5,14,-9,-4,-1,1,-2,-19,-10
13,-3,-18,-5,15,-10,-4,-2,0,-3,-20,-11
12,-4,-18,-4,15,-11,-4,-2,0,-3,-20,-11
12,-5,-18,-4,15,-11,-4,-3,-1,-4,-21,-11
13,-6,-20,-3,17,-13,-4,-4,-2,-5,-22,-12
13,-8,-21,-3,18,-15,-4,-5,-3,-7,-23,-13
13,-9,-21,-2,17,-15,-4,-6,-4,-8,-23,-14
11,-10,-20,-1,15,-15,-5,-6,-4,-8,-23,-14
8,-11,-20,1,14,-15,-5,-5,-4,-8,-23,-14
8,-11,-20,1,14,-15,-6,-5,-5,-8,-23,-14
10,-11,-22,0,16,-16,-6,-5,-7,-9,-24,-15
13,-11,-25,-1,19,-18,-7,-6,-8,-10,-25,-16
14,-10,-25,-2,20,-18,-7,-6,-7,-10,-25,-16
15,-9,-24,-3,20,-17,-7,-6,-7,-10,-24,-16
17,-8,-24,-4,20,-16,-6,-6,-7,-10,-25,-17
17,-7,-24,-5,20,-15,-5,-6,-6,-10,-25,-17
16,-5,-21,-5,18,-13,-2,-5,-6,-10,-24,-16
17,-5,-21,-6,19,-13,-1,-6,-6,-10,-24,-15
20,-6,-26,-7,23,-16,-1,-8,-8,-12,-26,-17
22,-7,-30,-7,27,-18,-2,-9,-10,-13,-27,-18
24,-7,-31,-8,28,-19,-2,-9,-10,-13,-27,-18
26,-5,-32,-10,29,-19,-2,-10,-10,-13,-27,-18
27,-5,-32,-11,30,-19,-3,-11,-10,-14,-28,-19
26,-5,-32,-10,29,-19,-4,-12,-11,-15,-28,-20
25,-7,-31,-9,28,-20,-4,-13,-11,-15,-28,-20
23,-7,-30,-8,26,-19,-3,-13,-11,-14,-27,-19
22,-6,-29,-8,25,-18,-3,-14,-11,-14,-27,-18
22,-5,-28,-9,25,-17,-4,-15,-12,-15,-28,-19
22,-5,-28,-8,25,-16,-5,-16,-12,-16,-28,-19
21,-6,-27,-7,24,-17,-6,-17,-13,-16,-28,-19
20,-8,-28,-5,24,-18,-7,-18,-14,-17,-29,-19
19,-11,-29,-4,24,-20,-8,-19,-15,-17,-30,-20
18,-13,-30,-2,24,-21,-8,-19,-15,-18,-29,-21
17,-12,-29,-3,23,-20,-7,-18,-14,-17,-28,-20
18,-9,-28,-5,23,-18,-5,-17,-12,-15,-26,-18
20,-6,-27,-7,24,-16,-4,-15,-11,-13,-25,-16
22,-4,-27,-9,25,-15,-4,-13,-11,-13,-24,-15
21,-5,-26,-8,24,-15,-4,-13,-11,-13,-25,-15
19,-7,-26,-6,23,-16,-6,-13,-11,-13,-25,-16
18,-7,-26,-5,22,-17,-8,-13,-12,-14,-26,-17
19,-8,-27,-6,23,-17,-9,-13,-12,-14,-26,-18
20,-7,-27,-6,23,-17,-9,-13,-12,-14,-26,-18
21,-6,-27,-8,24,-16,-8,-12,-11,-14,-26,-17
22,-4,-27,-10,25,-15,-8,-12,-11,-14,-25,-16
23,-3,-27,-11,25,-15,-8,-12,-11,-14,-25,-16
23,-2,-26,-11,25,-14,-7,-12,-11,-14,-25,-16
22,-1,-24,-11,23,-13,-7,-12,-11,-14,-25,-16
20,-2,-22,-9,22,-12,-7,-13,-11,-14,-25,-16
20,-2,-22,-9,21,-12,-7,-13,-11,-14,-26,-17
20,-2,-22,-9,21,-12,-7,-14,-12,-14,-26,-17
21,-1,-22,-10,21,-11,-7,-14,-12,-14,-25,-16
21,0,-22,-11,22,-11,-7,-13,-11,-14,-25,-16
20,-1,-22,-10,22,-12,-6,-12,-11,-14,-24,-15
20,-2,-22,-10,22,-12,-5,-11,-10,-14,-24,-14
22,0,-22,-11,23,-11,-4,-11,-10,-13,-23,-14
24,3,-22,-14,24,-9,-3,-9,-8,-12,-22,-13
25,4,-21,-15,23,-8,-2,-8,-6,-10,-21,-12
25,4,-21,-15,23,-8,-2,-7,-6,-10,-21,-11
26,3,-22,-15,24,-9,-3,-8,-7,-11,-21,-12
27,3,-24,-15,25,-10,-4,-9,-8,-12,-22,-12
26,2,-24,-14,25,-11,-4,-8,-8,-12,-21,-12
24,1,-23,-13,24,-11,-4,-8,-8,-11,-21,-11
24,0,-24,-12,24,-12,-4,-8,-8,-12,-21,-11
26,-1,-26,-13,26,-13,-5,-9,-8,-12,-21,-12
28,0,-28,-14,28,-14,-5,-10,-8,-13,-21,-12
29,0,-29,-15,29,-13,-5,-10,-8,-13,-21,-12
27,0,-27,-14,27,-12,-5,-11,-8,-12,-21,-13
24,0,-24,-12,24,-11,-5,-12,-8,-12,-21,-13
23,-1,-24,-11,23,-12,-6,-14,-10,-13,-22,-14
23,-2,-26,-11,24,-14,-6,-16,-11,-14,-23,-15
22,-2,-25,-10,24,-14,-6,-17,-10,-14,-23,-15
22,-1,-24,-10,23,-13,-6,-17,-9,-14,-23,-15
22,-1,-23,-10,23,-13,-6,-18,-9,-14,-23,-15
22,-2,-23,-10,22,-13,-7,-20,-9,-14,-23,-16
23,0,-23,-11,23,-12,-9,-25,-10,-15,-24,-17
26,4,-22,-15,24,-9,-13,-33,-11,-16,-24,-18
30,7,-22,-18,25,-8,-16,-40,-12,-17,-24,-18
30,8,-23,-19,26,-8,-17,-46,-14,-18,-24,-18
29,7,-23,-18,26,-8,-18,-49,-15,-19,-24,-19
27,5,-23,-16,25,-9,-19,-50,-15,-18,-23,-19
25,3,-22,-14,23,-9,-19,-50,-15,-18,-22,-20
22,0,-22,-11,22,-10,-20,-50,-16,-18,-22,-20
22,-1,-23,-10,22,-11,-20,-49,-16,-18,-22,-21
24,-1,-25,-11,24,-12,-20,-47,-16,-18,-22,-21
25,-1,-27,-12,26,-13,-20,-45,-16,-18,-21,-20
24,-2,-27,-11,25,-14,-20,-44,-17,-18,-21,-20
22,-1,-25,-10,24,-13,-20,-42,-17,-17,-21,-19
24,0,-24,-12,24,-12,-19,-39,-16,-16,-21,-19
28,3,-25,-16,27,-11,-18,-37,-15,-16,-20,-18
31,5,-26,-18,29,-10,-17,-34,-14,-15,-20,-17
31,6,-25,-19,28,-9,-15,-32,-13,-13,-19,-16
30,5,-24,-18,27,-9,-14,-30,-13,-13,-18,-15
28,4,-24,-16,26,-10,-13,-29,-13,-13,-19,-15
26,2,-24,-15,25,-11,-13,-28,-14,-13,-20,-15
26,1,-26,-14,26,-13,-14,-27,-14,-14,-21,-16
29,0,-30,-15,30,-16,-16,-27,-15,-15,-22,-17
31,-1,-33,-15,32,-17,-17,-26,-15,-15,-23,-17
30,-2,-32,-14,31,-16,-17,-25,-13,-14,-22,-16
28,-2,-30,-13,29,-16,-16,-23,-13,-14,-22,-16
30,-3,-33,-14,31,-17,-17,-24,-15,-15,-23,-17
35,-2,-37,-16,35,-19,-17,-24,-15,-16,-25,-18
37,-1,-38,-18,37,-19,-16,-23,-14,-16,-24,-18
37,0,-37,-19,37,-18,-15,-20,-13,-14,-23,-17
35,1,-35,-19,35,-16,-13,-17,-11,-13,-22,-16
33,0,-33,-17,34,-16,-12,-15,-11,-12,-22,-15
33,-1,-35,-16,34,-18,-10,-11,-11,-12,-22,-15
34,-2,-37,-16,36,-19,-8,-6,-11,-12,-22,-14
34,-3,-37,-15,36,-20,-6,-1,-9,-10,-22,-13
33,-4,-37,-14,34,-20,-4,4,-8,-9,-21,-12
33,-4,-37,-15,34,-20,-2,7,-7,-8,-21,-11
34,-4,-38,-15,35,-21,0,8,-6,-8,-21,-11
32,-5,-38,-14,35,-22,0,8,-6,-8,-22,-11
30,-6,-37,-13,34,-22,0,9,-6,-9,-22,-11
29,-5,-35,-12,33,-21,0,10,-6,-9,-23,-12
30,-4,-35,-13,34,-20,1,11,-6,-9,-23,-12
32,-3,-36,-15,35,-19,2,11,-6,-10,-24,-12
34,-3,-38,-16,36,-20,3,11,-6,-11,-24,-12
34,-3,-38,-16,36,-20,4,12,-6,-11,-25,-11
31,-4,-36,-14,33,-20,7,14,-5,-9,-24,-10
28,-4,-34,-12,31,-19,8,16,-4,-8,-23,-9
29,-5,-35,-12,32,-20,8,16,-5,-9,-23,-9
31,-5,-36,-13,34,-21,8,16,-5,-9,-23,-9
31,-6,-37,-12,34,-21,8,16,-5,-9,-23,-9
28,-9,-36,-10,32,-22,7,15,-6,-10,-24,-10
23,-11,-34,-6,28,-22,5,13,-7,-12,-26,-12
19,-12,-31,-4,25,-21,2,11,-8,-13,-27,-13
17,-12,-30,-2,23,-21,0,8,-9,-14,-28,-14
16,-12,-29,-2,23,-21,-1,5,-9,-15,-28,-14
19,-9,-28,-5,24,-19,0,3,-8,-14,-27,-14
23,-5,-28,-9,26,-17,0,2,-8,-13,-25,-13
26,-2,-28,-11,27,-15,1,0,-7,-13,-24,-13
26,-1,-27,-12,27,-14,0,-1,-7,-13,-24,-14
27,0,-27,-13,27,-13,-1,-2,-8,-14,-25,-15
27,1,-26,-14,26,-12,-2,-3,-7,-13,-24,-15
25,2,-23,-14,24,-10,-1,-2,-6,-12,-23,-13
23,2,-22,-13,22,-10,0,-2,-6,-12,-23,-13
22,0,-22,-11,22,-11,0,-2,-7,-13,-23,-13
19,-1,-20,-9,19,-10,0,-2,-7,-13,-23,-13
17,1,-16,-9,16,-7,0,-1,-6,-12,-22,-12
17,2,-13,-10,15,-5,0,0,-5,-11,-20,-11
16,3,-13,-10,14,-4,0,0,-4,-9,-19,-9
17,3,-15,-10,16,-5,0,0,-4,-8,-18,-8
18,3,-17,-10,18,-6,0,0,-4,-8,-18,-8
18,2,-16,-10,17,-7,0,0,-4,-9,-19,-9
16,2,-14,-9,15,-6,1,0,-4,-8,-18,-8
16,4,-12,-10,14,-4,3,0,-3,-7,-17,-8
17,6,-10,-11,14,-3,3,0,-3,-7,-17,-8
17,6,-10,-12,14,-2,2,0,-2,-6,-17,-8
18,6,-11,-12,14,-2,2,0,-2,-6,-17,-8
17,6,-11,-11,14,-2,3,0,-1,-5,-16,-7
15,5,-10,-10,13,-2,3,0,0,-5,-15,-7
13,5,-9,-9,11,-2,4,0,0,-4,-15,-7
12,5,-7,-9,10,-2,5,0,0,-4,-14,-7
10,4,-6,-8,9,-2,5,0,0,-3,-14,-6
10,1,-8,-7,10,-4,4,0,1,-3,-13,-6
9,0,-8,-5,9,-4,4,-1,1,-3,-13,-6
7,0,-6,-3,7,-3,4,-1,1,-3,-13,-6
6,-1,-7,-2,6,-3,2,-2,0,-4,-14,-7
5,-3,-9,-1,7,-5,0,-4,-1,-5,-16,-8
3,-5,-9,1,6,-7,-2,-6,-2,-6,-17,-9
-1,-8,-8,4,3,-8,-2,-6,-1,-5,-17,-9
-4,-9,-5,6,0,-8,-2,-5,-1,-5,-16,-9
-2,-8,-5,5,1,-7,-1,-5,0,-4,-15,-9
4,-3,-6,-1,6,-5,0,-3,1,-2,-13,-7
9,0,-7,-5,8,-4,1,-1,3,-1,-11,-5
10,0,-9,-5,9,-4,1,-1,4,0,-10,-4
11,0,-10,-6,11,-4,0,-1,4,0,-10,-4
13,2,-11,-7,12,-4,0,-1,5,0,-10,-4
12,3,-10,-8,11,-3,0,0,5,1,-9,-3
13,4,-9,-9,11,-3,1,0,6,1,-9,-2
14,4,-10,-10,12,-3,2,1,5,1,-10,-2
13,3,-10,-9,12,-3,2,1,5,1,-10,-2
13,2,-10,-8,12,-4,2,1,4,0,-10,-2
13,3,-10,-8,12,-3,2,1,3,0,-11,-2
13,3,-10,-8,11,-3,2,1,3,0,-11,-2
11,2,-10,-7,10,-3,1,1,2,-2,-13,-4
10,2,-10,-6,10,-4,0,0,1,-4,-15,-6
10,2,-9,-6,10,-4,0,-1,-1,-6,-18,-7
11,2,-10,-6,11,-4,-1,-4,-3,-8,-20,-9
12,1,-11,-7,13,-5,-1,-6,-5,-9,-21,-10
12,-2,-13,-5,13,-8,-1,-6,-5,-9,-21,-10
10,-4,-14,-3,13,-9,0,-5,-5,-9,-21,-10
10,-5,-16,-2,13,-11,1,-4,-5,-9,-21,-9
10,-5,-17,-2,14,-12,2,-4,-5,-9,-21,-9
10,-4,-16,-3,13,-11,4,-4,-4,-8,-20,-9
10,-3,-14,-3,12,-9,5,-4,-4,-8,-20,-8
10,-3,-13,-3,12,-8,5,-4,-4,-8,-20,-8
10,-3,-13,-3,12,-8,5,-4,-4,-9,-21,-8
10,-3,-13,-4,12,-8,4,-4,-4,-9,-20,-8
11,-3,-13,-5,13,-7,4,-4,-4,-8,-20,-8
12,-1,-14,-6,13,-7,3,-4,-5,-8,-20,-8
13,0,-14,-7,13,-7,3,-4,-5,-8,-20,-8
13,0,-14,-7,13,-6,2,-3,-5,-8,-20,-8
12,0,-14,-6,13,-7,2,-3,-5,-8,-21,-8
11,-2,-13,-4,12,-8,1,-3,-6,-8,-22,-8
9,-3,-13,-3,11,-8,1,-2,-6,-8,-22,-9
9,-4,-13,-2,11,-9,0,-2,-6,-8,-23,-9
8,-5,-12,-2,11,-9,0,-2,-6,-8,-23,-10
7,-5,-12,-1,10,-9,0,-1,-6,-8,-23,-10
6,-7,-13,0,10,-10,0,0,-5,-8,-23,-10
7,-7,-14,0,11,-11,1,2,-4,-8,-23,-10
7,-7,-15,0,11,-11,1,3,-3,-8,-23,-10
8,-7,-15,0,12,-11,0,3,-3,-8,-23,-10
7,-8,-15,0,11,-12,0,3,-3,-8,-23,-9
5,-9,-15,2,10,-12,-1,4,-3,-7,-22,-9
3,-11,-15,3,10,-13,-2,3,-4,-8,-23,-9
2,-12,-15,5,9,-14,-3,3,-5,-9,-24,-11
1,-13,-14,6,8,-14,-3,2,-6,-10,-25,-11
2,-13,-14,5,8,-13,-2,1,-7,-11,-25,-12
3,-12,-14,4,9,-13,-2,1,-8,-12,-26,-12
1,-11,-12,4,7,-11,-1,2,-7,-11,-26,-12
0,-9,-9,4,5,-9,0,2,-7,-11,-26,-12
1,-8,-10,3,6,-9,0,1,-8,-12,-26,-13
1,-10,-12,4,7,-11,0,0,-8,-12,-27,-14
-2,-13,-11,8,5,-12,1,0,-8,-12,-26,-14
-6,-14,-7,10,0,-11,3,0,-7,-11,-25,-13
-10,-13,-2,11,-3,-8,5,1,-6,-9,-23,-11
-10,-10,1,10,-6,-4,6,2,-5,-8,-22,-9
-10,-6,4,8,-7,-1,7,2,-5,-8,-22,-9
-10,-5,6,7,-8,0,7,2,-5,-8,-23,-10
-12,-5,8,8,-10,1,8,1,-5,-8,-23,-10
-13,-6,7,10,-11,0,9,1,-5,-8,-23,-10
-18,-11,7,15,-12,-2,9,1,-5,-9,-24,-10
-25,-17,8,21,-16,-4,8,0,-6,-11,-25,-12
-27,-18,9,23,-19,-3,8,0,-6,-10,-25,-12
-24,-14,10,19,-17,-1,10,1,-4,-9,-23,-10
-19,-10,9,14,-14,0,11,2,-2,-7,-21,-8
-17,-7,9,12,-13,1,11,2,-1,-6,-20,-7
-18,-5,13,11,-15,3,12,2,0,-5,-19,-6
-18,-4,14,11,-17,5,12,2,0,-4,-18,-5
-18,-2,15,10,-17,6,12,2,0,-3,-18,-5
-19,-1,18,10,-19,8,12,3,1,-3,-17,-4
-21,0,20,11,-21,10,13,3,1,-3,-16,-4
-20,0,19,10,-19,9,13,2,1,-3,-16,-4
-19,-2,16,11,-18,6,12,1,1,-4,-17,-5
-21,-3,17,13,-19,6,12,1,2,-3,-16,-4
-22,-2,19,12,-21,8,13,3,3,-2,-15,-2
-20,1,21,10,-21,10,13,4,4,0,-14,-1
-18,3,21,7,-19,12,13,4,4,0,-13,-1
-16,5,21,6,-18,13,13,5,4,1,-13,0
-17,5,22,6,-20,14,13,6,5,1,-12,0
-17,5,23,6,-20,14,12,5,5,0,-13,0
-16,5,22,5,-19,13,12,5,5,0,-13,-1
-17,5,23,6,-20,14,13,5,7,1,-13,-1
-20,6,27,7,-24,16,15,6,9,3,-12,-1
-22,8,31,7,-27,19,15,7,11,5,-11,-1
-23,10,34,6,-29,22,17,8,16,8,-10,-1
-23,13,37,5,-30,25,19,10,22,14,-6,2
-24,16,40,4,-32,28,20,13,30,22,1,7
-26,17,43,4,-34,30,21,17,38,32,11,15
-27,18,45,4,-36,31,21,20,45,42,23,24
-25,20,44,2,-35,32,19,22,52,53,38,36
-20,23,44,-1,-33,33,18,24,60,67,55,51
-15,30,46,-7,-31,38,16,27,70,84,77,69
-9,39,49,-15,-29,44,14,32,82,106,104,92
0,50,50,-25,-25,50,12,37,95,130,134,117
10,61,50,-36,-19,55,7,42,108,153,164,142
21,72,49,-47,-14,60,1,45,119,177,194,166
32,84,51,-58,-9,67,-5,47,128,201,225,193
43,97,53,-70,-5,75,-13,47,133,221,255,219
55,110,54,-83,0,82,-23,44,134,237,279,242
69,120,51,-94,9,85,-33,42,132,246,296,260
83,128,44,-106,20,86,-44,40,127,249,303,270
97,133,36,-116,31,85,-53,38,119,245,298,271
108,135,27,-122,42,81,-61,34,108,233,280,260
117,131,13,-124,52,72,-67,31,96,213,248,236
125,122,-3,-123,65,59,-71,28,83,186,207,202
129,110,-19,-119,75,45,-75,24,64,152,161,163
128,96,-33,-112,80,31,-79,16,38,112,112,123
124,79,-45,-101,84,16,-82,4,6,66,63,83
118,60,-56,-89,87,2,-82,-9,-29,17,15,45
109,43,-64,-76,87,-10,-81,-25,-64,-32,-30,9
99,27,-71,-62,85,-22,-78,-39,-96,-77,-70,-22
90,12,-78,-50,85,-33,-76,-48,-121,-114,-102,-48
84,-1,-85,-41,85,-43,-73,-53,-136,-139,-126,-68
77,-12,-90,-32,84,-51,-68,-54,-144,-155,-142,-82
67,-24,-92,-22,79,-58,-62,-52,-144,-160,-149,-91
56,-32,-88,-13,72,-60,-54,-49,-137,-156,-147,-93
46,-33,-79,-7,62,-56,-47,-43,-124,-145,-139,-88
37,-29,-67,-4,52,-48,-39,-36,-108,-128,-126,-80
29,-24,-53,-2,41,-38,-32,-30,-91,-111,-111,-70
22,-19,-41,-1,32,-30,-25,-24,-77,-96,-98,-61
15,-17,-32,1,24,-25,-20,-19,-65,-84,-88,-55
10,-16,-25,3,18,-21,-15,-16,-56,-74,-80,-50
5,-16,-21,5,13,-19,-11,-12,-48,-66,-72,-46
0,-17,-18,9,8,-18,-7,-9,-41,-58,-66,-42
-6,-19,-13,13,3,-17,-4,-7,-36,-53,-61,-39
-12,-21,-9,16,-1,-15,-3,-6,-32,-48,-57,-37
-14,-20,-6,17,-3,-13,-1,-5,-28,-43,-53,-34
-15,-19,-3,17,-5,-11,0,-4,-25,-38,-49,-31
-18,-18,0,18,-8,-9,1,-4,-22,-34,-45,-29
-22,-18,3,20,-12,-8,3,-3,-19,-31,-42,-27
-24,-17,5,21,-14,-7,4,-3,-17,-28,-38,-25
-25,-16,8,21,-17,-4,5,-3,-15,-25,-36,-23
-26,-14,11,20,-19,-2,7,-1,-11,-21,-33,-21
-22,-9,12,16,-17,1,9,2,-7,-16,-28,-16
-16,-2,13,9,-15,5,12,5,-3,-12,-24,-12
-13,1,15,6,-14,8,13,7,0,-9,-22,-10
-13,3,16,5,-14,9,14,9,1,-7,-20,-8
-14,2,16,5,-14,8,15,9,2,-6,-18,-8
-15,0,16,7,-15,7,16,9,2,-5,-17,-7
-16,0,16,7,-16,8,17,9,2,-5,-17,-7
-17,0,17,8,-17,8,17,9,3,-5,-18,-8
-17,1,17,8,-17,9,16,9,3,-5,-18,-8
-16,1,17,8,-17,9,16,10,4,-4,-17,-7
-16,1,17,8,-16,9,17,10,6,-3,-16,-6
-16,1,17,8,-16,9,17,11,6,-2,-15,-5
-18,0,18,9,-18,9,18,12,7,-1,-14,-4
-23,1,23,11,-23,11,19,13,9,0,-12,-3
-27,1,28,12,-27,14,20,14,10,1,-10,-2
-27,1,27,13,-27,14,20,13,10,1,-10,-3
-25,0,23,13,-24,11,19,12,9,0,-12,-4
-23,-2,20,13,-22,9,18,10,8,-2,-13,-6
-24,-3,21,14,-23,9,17,9,8,-2,-13,-5
-26,-3,23,15,-25,10,17,10,8,-1,-12,-4
-24,-2,22,13,-23,10,17,10,8,-1,-12,-4
-23,-1,22,12,-22,10,17,10,8,-1,-12,-4
-27,-1,25,13,-25,11,18,11,9,0,-11,-3
-30,-2,27,15,-29,12,18,11,10,1,-10,-3
-32,-4,27,17,-29,11,18,11,9,1,-10,-4
-33,-6,26,19,-29,10,18,10,8,0,-12,-5
-33,-7,25,20,-29,9,18,10,7,-1,-13,-6
-32,-8,24,21,-28,8,17,9,7,-1,-14,-6
-33,-9,24,21,-28,7,17,9,6,-2,-15,-6
-34,-8,25,21,-29,8,16,9,6,-1,-14,-6
-35,-7,28,20,-31,10,16,9,6,-1,-13,-6
-35,-6,29,20,-32,11,15,9,6,-1,-13,-6
-34,-5,28,19,-31,11,15,9,5,-1,-13,-6
-32,-3,28,18,-30,12,15,10,5,0,-13,-5
-32,-3,28,18,-31,12,16,11,5,0,-12,-4
-35,-5,29,20,-32,12,17,12,5,1,-12,-4
-37,-8,28,22,-32,10,17,12,4,0,-13,-5
-37,-9,27,23,-32,8,17,11,3,-1,-14,-6
-38,-9,28,23,-32,9,17,11,3,-1,-14,-6
-37,-7,29,22,-33,10,18,12,5,0,-12,-5
-36,-5,29,20,-32,11,19,13,6,1,-12,-4
-35,-5,30,20,-32,12,20,13,6,2,-11,-4
-34,-3,30,19,-31,12,20,12,5,2,-11,-4
-32,-1,30,17,-31,13,20,11,5,2,-11,-4
-31,0,30,16,-30,14,21,12,6,2,-10,-3
-31,0,30,15,-30,15,21,14,7,3,-9,-3
-31,0,30,16,-30,14,20,14,7,4,-9,-3
-30,0,29,15,-29,14,19,13,6,3,-9,-3
-29,0,28,15,-29,13,18,13,6,3,-9,-4
-30,-1,29,16,-29,13,18,14,7,3,-9,-4
-31,-2,29,17,-30,13,17,14,7,3,-9,-4
-32,-2,30,17,-31,13,17,14,7,3,-9,-4
-33,-2,31,18,-32,14,18,14,7,3,-8,-3
-33,-1,31,17,-32,15,18,15,7,4,-8,-2
-32,-1,30,16,-31,14,18,14,7,3,-8,-3
-31,-1,29,16,-30,14,17,12,6,3,-9,-4
-31,-1,29,16,-30,14,17,11,7,3,-8,-4
-31,-2,29,16,-30,14,17,11,8,4,-7,-3
-32,-3,29,17,-30,13,18,11,8,4,-7,-3
-31,-3,28,16,-30,13,18,11,8,4,-7,-2
-31,-3,28,16,-29,12,18,12,9,4,-7,-2
-31,-3,27,17,-29,11,17,12,9,4,-7,-2
-30,-3,27,17,-28,11,17,12,9,4,-7,-2
-30,-3,27,17,-28,11,16,12,9,3,-7,-2
-31,-4,27,17,-29,11,16,11,9,3,-8,-3
-32,-4,27,18,-29,11,15,11,8,3,-8,-3
-32,-4,27,18,-29,11,15,11,8,3,-8,-3
-33,-5,27,19,-29,10,15,11,9,4,-7,-3
-33,-6,26,20,-29,9,15,11,10,4,-7,-2
-31,-5,25,18,-28,9,15,11,10,5,-6,-1
-28,-4,24,16,-26,10,16,11,10,5,-6,-1
-27,-3,23,15,-25,10,16,11,10,5,-6,-1
-27,-3,24,14,-26,10,16,11,10,5,-5,-1
-29,-2,26,15,-28,11,16,12,11,6,-4,0
-30,-1,28,15,-29,13,15,12,12,7,-4,0
-29,-2,27,15,-28,12,14,12,12,6,-4,0
-29,-2,25,15,-27,11,12,11,12,6,-5,0
-28,-2,25,15,-27,11,12,11,12,6,-5,0
-28,-2,26,15,-27,11,11,11,11,5,-6,0
-29,-2,27,15,-27,12,11,11,11,5,-6,0
-29,-1,27,15,-28,12,11,11,12,5,-5,0
-30,-1,28,16,-29,13,11,12,13,6,-4,1
-31,-1,29,16,-30,13,12,12,13,7,-3,1
-30,0,29,15,-29,13,12,12,13,7,-3,1
-30,-1,28,15,-28,12,12,12,13,7,-3,1
-29,-1,27,15,-28,12,12,12,13,7,-3,1
-28,1,28,13,-28,14,12,13,13,8,-3,2
-28,2,28,12,-28,15,12,14,14,8,-3,2
-26,2,27,11,-27,15,11,15,14,8,-3,2
-24,4,27,9,-26,15,11,15,14,8,-3,2
-23,6,28,8,-26,17,12,16,14,9,-2,2
-23,6,28,9,-26,17,14,16,15,10,-1,3
-23,4,26,9,-24,15,14,16,14,10,-2,3
-21,5,26,8,-23,15,14,16,13,9,-3,3
-20,8,27,6,-24,17,14,16,13,9,-3,4
-19,8,27,6,-23,17,14,16,13,10,-2,5
-19,6,25,7,-22,15,14,16,12,10,-2,5
-22,4,25,9,-24,14,13,16,11,9,-2,5
-24,3,26,10,-25,14,12,15,10,8,-3,4
-23,2,24,11,-24,12,11,13,8,6,-4,2
-21,3,23,9,-22,12,10,11,7,6,-5,2
-19,5,24,7,-21,14,11,12,9,7,-3,4
-20,8,27,6,-23,17,13,14,11,9,-1,6
-19,10,28,5,-23,19,15,16,13,11,0,8
-15,12,27,1,-21,19,15,16,13,11,1,9
-12,14,26,-1,-19,20,14,15,13,11,1,9
-12,15,27,-2,-20,20,13,14,12,11,1,9
-11,16,27,-2,-20,21,13,14,13,11,1,10
-12,15,27,-2,-20,21,12,13,13,11,2,10
-13,14,28,0,-21,21,11,12,12,10,1,10
-15,13,28,1,-22,21,9,10,11,9,0,10
-16,13,28,2,-22,20,7,9,9,8,0,9
-16,12,27,2,-22,19,6,8,8,7,-1,8
-17,10,26,3,-21,17,5,7,7,6,-2,7
-18,8,25,4,-22,16,6,6,6,5,-1,7
-17,8,25,4,-21,16,6,6,6,5,-1,7
-14,9,24,2,-20,16,6,6,6,5,-1,7
-11,13,25,0,-19,18,6,6,6,5,0,8
-11,16,27,-2,-20,21,8,8,8,7,1,10
-13,17,29,-2,-21,23,9,9,8,7,1,11
-13,17,28,-2,-20,22,8,9,7,6,1,11
-11,15,25,-2,-18,20,7,8,6,5,0,11
-11,14,24,-1,-17,19,6,8,6,5,1,11
-12,14,25,-1,-18,19,5,8,6,5,1,11
-12,13,25,0,-19,18,3,7,5,4,1,10
-12,12,24,0,-18,17,2,5,4,3,0,9
-13,11,23,1,-18,16,1,5,3,3,-1,9
-14,10,23,1,-18,16,1,4,3,2,-1,9
-14,9,22,1,-18,16,1,3,1,1,-2,8
-15,9,23,2,-19,16,1,4,1,1,-2,8
-17,10,26,3,-22,18,2,5,2,2,0,10
-18,12,29,2,-23,20,3,6,2,2,0,10
-15,13,29,0,-22,21,3,6,2,2,0,11
-13,14,28,-1,-20,21,4,6,2,2,0,11
-13,12,26,0,-19,19,5,6,1,2,0,11
-15,8,23,3,-19,15,4,5,0,1,-1,10
-15,6,22,4,-18,14,4,5,0,0,-1,10
-16,6,22,4,-19,14,4,6,1,1,0,11
-17,6,23,5,-20,14,4,7,2,1,1,12
-16,7,23,4,-19,14,4,6,1,1,0,12
-13,7,22,2,-17,14,4,6,0,0,0,11
-11,8,21,1,-16,14,4,5,0,-1,-1,10
-11,8,21,1,-16,14,4,5,-1,-1,-1,10
-14,7,21,3,-18,14,4,5,0,-1,-1,10
-15,7,21,3,-18,14,4,4,0,0,0,11
-13,8,19,1,-16,13,3,4,0,0,0,12
-10,10,18,0,-14,14,3,4,0,0,0,12
-8,11,19,-2,-13,15,3,4,0,0,1,12
-6,12,18,-3,-12,15,4,3,0,0,0,12
-6,12,18,-3,-12,14,4,2,-1,-1,0,12
-6,11,18,-2,-12,14,4,1,-1,-1,0,12
-7,11,17,-2,-12,14,3,-1,-2,-2,0,11
-8,10,17,-1,-13,14,1,-3,-3,-3,-1,10
-12,8,18,1,-14,13,0,-3,-4,-4,-1,10
-14,7,19,3,-16,13,0,-3,-3,-4,0,11
-14,6,19,3,-16,12,-1,-3,-3,-4,0,11
-12,6,18,3,-15,11,-2,-4,-4,-4,0,11
-10,6,16,2,-13,11,-2,-4,-4,-4,0,11
-8,7,16,0,-12,11,-1,-4,-4,-4,0,11
-7,8,16,0,-12,11,0,-5,-4,-5,0,11
-7,8,15,0,-11,11,0,-6,-4,-5,-1,10
-7,7,13,0,-10,9,0,-7,-6,-7,-2,9
-6,7,12,-1,-9,9,0,-8,-6,-7,-3,9
-5,8,12,-2,-8,9,0,-8,-6,-8,-3,10
-5,7,11,-1,-8,9,0,-8,-7,-8,-3,10
-7,4,11,1,-9,7,0,-8,-7,-8,-4,9
-8,3,12,2,-9,7,-1,-8,-7,-8,-3,9
-8,5,14,1,-11,9,0,-8,-6,-8,-2,11
-8,7,15,0,-11,11,0,-7,-5,-7,-2,12
-5,7,12,-1,-8,10,0,-7,-5,-8,-2,12
-4,7,9,-2,-6,8,-1,-7,-6,-9,-3,11
-5,5,8,0,-7,7,-2,-7,-7,-10,-4,10
-8,2,8,3,-8,5,-2,-6,-8,-10,-5,9
-9,0,7,5,-8,3,-2,-5,-7,-9,-5,9
-9,-1,7,5,-8,2,-2,-5,-7,-10,-5,9
-8,0,7,4,-7,3,-3,-6,-8,-11,-5,9
-4,2,6,1,-5,3,-3,-6,-8,-11,-5,9
-1,4,6,-1,-3,4,-2,-5,-8,-11,-5,9
0,6,6,-2,-3,5,-1,-4,-7,-11,-4,9
-1,5,6,-1,-4,5,-1,-4,-7,-10,-4,9
-1,5,5,-2,-3,5,0,-3,-6,-9,-3,9
2,7,4,-4,-1,5,0,-2,-6,-8,-3,10
4,8,4,-6,0,6,0,-1,-6,-8,-2,10
4,8,5,-5,0,7,0,-1,-6,-8,-2,10
3,8,6,-5,-1,7,0,-1,-6,-9,-3,10
2,9,7,-5,-2,8,0,-1,-5,-9,-3,10
1,9,8,-4,-4,8,0,0,-5,-9,-3,10
0,8,7,-4,-3,7,0,0,-5,-9,-3,9
1,8,5,-4,-2,6,-1,0,-5,-9,-3,9
2,8,4,-5,-1,6,-1,0,-4,-9,-4,8
2,7,4,-5,-1,6,-1,0,-4,-9,-4,8
0,6,5,-3,-3,6,0,1,-4,-9,-4,8
0,6,6,-3,-3,6,0,1,-3,-8,-3,8
1,7,6,-4,-3,6,0,2,-2,-7,-3,8
1,7,6,-4,-3,6,1,3,-1,-7,-3,8
0,8,7,-4,-3,7,1,4,-1,-7,-3,8
0,8,7,-4,-3,7,0,5,0,-7,-3,7
0,6,6,-3,-3,6,0,5,0,-7,-4,6
0,4,4,-1,-2,4,0,5,0,-7,-4,6
-1,2,3,0,-2,3,1,5,0,-7,-4,6
-2,0,3,1,-3,2,2,4,0,-6,-4,6
-4,0,5,2,-5,3,2,4,0,-6,-4,5
-5,1,7,2,-6,4,3,4,0,-6,-4,5
-6,2,9,2,-7,5,3,5,0,-5,-3,6
-9,4,12,2,-11,8,4,7,1,-3,-1,7
-10,7,16,2,-13,10,5,9,4,-1,0,8
-8,9,15,0,-12,11,6,11,6,0,1,9
-3,9,12,-3,-8,10,6,13,7,1,1,9
0,8,8,-3,-5,8,5,14,8,0,1,8
0,6,7,-3,-4,7,4,14,8,0,0,8
-2,5,8,-2,-5,7,4,15,9,1,1,8
-5,4,9,0,-7,6,3,16,10,2,1,8
-4,4,8,0,-6,6,2,16,10,2,1,8
-2,6,7,-2,-4,6,2,16,11,3,2,8
-1,8,9,-3,-5,9,2,16,13,5,3,9
-1,12,13,-5,-7,13,4,17,15,7,5,11
-1,15,16,-7,-8,16,5,19,17,9,7,12
-1,17,18,-8,-9,18,6,19,18,11,8,14
-1,16,16,-7,-8,16,6,18,19,12,9,14
-1,14,15,-7,-7,14,6,18,19,12,9,13
-2,14,15,-7,-8,13,6,18,19,13,10,14
-2,14,16,-7,-8,14,6,17,20,15,11,15
-2,15,17,-7,-9,15,6,17,21,16,12,16
-2,15,17,-7,-9,16,5,16,22,17,13,16
-2,15,18,-7,-10,17,4,15,23,18,13,16
-2,15,18,-7,-10,17,2,15,23,18,14,16
-2,15,17,-7,-10,16,2,14,24,19,14,16
-2,15,17,-7,-10,16,2,14,25,20,15,16
-3,15,17,-6,-10,16,3,14,26,21,16,17
-3,15,17,-6,-10,16,3,13,26,22,16,17
-3,15,18,-6,-10,16,3,13,26,22,16,17
-3,15,18,-6,-11,17,4,12,26,23,17,17
-4,15,18,-5,-11,17,4,12,27,24,18,17
-6,13,19,-3,-12,16,5,12,28,25,18,17
-8,13,20,-2,-14,16,5,12,29,26,19,17
-8,13,21,-2,-15,17,5,12,29,27,20,18
-7,15,21,-4,-14,18,4,12,30,28,21,18
-5,16,20,-5,-13,18,3,12,30,28,22,18
-5,15,20,-5,-13,17,3,12,31,29,22,19
-6,14,20,-4,-13,17,2,11,31,30,23,19
-7,13,20,-3,-14,17,1,11,31,30,23,19
-9,12,21,-1,-15,17,0,10,30,29,22,18
-10,11,21,0,-16,16,-1,9,29,29,22,17
-11,10,21,0,-17,15,-2,9,29,29,22,17
-12,8,20,2,-17,14,-2,9,29,29,22,17
-12,9,20,1,-17,14,-1,9,29,29,22,17
-9,11,20,-1,-15,15,0,9,30,30,23,18
-5,14,19,-4,-13,16,1,9,30,30,24,18
-5,15,20,-5,-13,18,2,10,31,32,25,19
-8,15,23,-4,-16,19,4,11,33,34,27,21
-11,14,24,-2,-17,19,4,12,33,34,27,21
-11,13,23,-1,-17,17,4,11,32,33,26,19
-12,12,23,0,-17,17,3,12,32,32,25,19
-12,12,24,0,-18,18,3,13,33,33,26,19
-10,15,24,-2,-18,19,3,13,33,33,26,19
-7,17,24,-4,-16,20,2,13,32,33,26,19
-8,15,23,-3,-15,19,2,12,32,32,26,18
-10,12,23,0,-16,17,3,12,32,32,26,19
-9,12,22,-1,-15,17,3,12,32,32,26,19
-5,14,19,-4,-12,17,3,11,31,31,25,19
-3,15,18,-6,-11,17,2,10,30,30,25,18
-3,17,20,-7,-12,18,2,9,29,29,24,17
-4,17,21,-6,-13,19,2,8,28,29,24,17
-5,16,21,-5,-13,19,3,8,28,29,24,17
-4,17,21,-6,-12,19,3,8,29,29,25,17
-6,17,22,-5,-13,19,4,7,29,29,25,17
-8,16,24,-4,-15,20,4,6,28,29,25,17
-9,17,25,-4,-16,21,5,5,27,28,25,17
-7,18,25,-5,-16,21,5,5,27,28,25,17
-5,20,25,-7,-15,22,5,5,27,28,25,17
-4,21,25,-8,-15,23,5,6,27,28,25,17
-5,19,24,-7,-15,22,3,6,27,27,24,16
-6,17,23,-6,-15,20,2,6,26,26,23,15
-5,16,22,-6,-14,19,1,5,26,25,22,15
-4,16,21,-6,-12,19,1,5,26,25,22,15
-5,16,22,-6,-13,19,1,5,25,24,22,15
-8,15,23,-4,-15,18,1,4,25,24,22,15
-10,12,22,-1,-16,17,2,4,23,23,21,14
-11,10,22,0,-16,16,3,4,22,22,21,14
-11,10,21,0,-16,16,5,4,21,22,20,14
-10,12,22,-1,-16,17,7,4,20,22,20,14
-9,13,22,-2,-16,18,9,5,20,21,20,14
-9,14,22,-2,-15,18,9,6,19,20,19,13
-9,13,22,-2,-16,17,10,7,19,19,19,13
-12,13,24,0,-18,18,11,9,20,20,20,14
-13,13,26,0,-20,18,11,11,21,21,20,15
-13,12,25,0,-19,18,11,12,21,21,20,15
-12,12,24,0,-19,18,10,13,21,21,20,15
-12,11,23,1,-19,17,10,13,20,20,19,14
-13,9,22,2,-18,16,9,13,19,18,18,13
-14,8,22,3,-19,15,9,14,19,18,18,13
-18,7,26,5,-22,17,9,15,19,17,18,13
-21,7,28,6,-24,18,9,15,18,17,17,12
-18,8,27,5,-22,17,9,16,18,16,17,12
-17,8,25,4,-20,16,10,17,17,16,17,12
-17,7,25,5,-21,15,10,17,17,16,17,12
-16,7,23,5,-20,15,9,17,16,15,16,11
-15,6,22,5,-19,14,8,15,15,13,14,9
-17,4,22,7,-19,13,8,15,14,12,13,8
-21,2,23,9,-22,13,9,16,14,12,13,8
-24,0,24,12,-24,12,9,17,14,12,13,8
-26,-1,23,13,-24,10,7,16,13,11,11,7
-26,-2,23,14,-24,10,6,15,12,10,10,7
-23,-1,22,12,-22,10,7,15,13,11,12,8
-19,0,19,9,-19,10,9,15,14,12,13,9
-17,0,18,8,-18,10,10,14,14,12,13,9
-16,2,18,7,-17,11,11,14,14,11,13,9
-15,4,19,6,-17,12,12,14,14,11,12,8
-14,5,19,4,-16,12,12,13,14,11,12,8
-12,6,18,3,-15,12,12,11,13,11,11,8
-12,7,19,3,-15,13,13,11,13,11,11,8
-14,8,22,3,-18,15,14,11,14,12,12,9
-15,7,24,4,-19,16,14,10,14,12,13,9
-17,5,24,6,-21,15,13,10,14,11,13,8
-20,3,24,8,-22,14,12,9,13,11,13,8
-20,2,23,9,-21,13,11,9,13,10,12,7
-17,3,19,8,-18,11,9,9,12,9,11,6
-15,4,19,6,-16,11,9,9,13,10,12,6
-16,5,20,6,-18,12,10,9,14,10,12,7
-18,5,22,7,-20,13,11,9,14,10,12,7
-19,5,23,7,-21,13,13,9,13,10,12,7
-19,3,21,8,-20,12,13,8,12,9,11,6
-19,0,18,10,-19,9,12,6,9,7,9,4
-20,-1,19,11,-19,9,12,5,8,6,9,4
-19,1,20,10,-20,11,13,7,9,8,11,6
-19,1,20,9,-19,11,13,8,10,9,11,7
-20,0,20,10,-20,10,12,7,10,9,11,6
-22,-1,20,12,-21,9,10,6,10,8,10,5
-24,-3,20,13,-21,8,8,6,9,7,9,4
-25,-3,22,14,-23,9,8,7,10,7,9,4
-25,-1,23,12,-24,11,8,8,11,8,11,5
-21,1,22,10,-22,12,8,9,10,8,11,5
-17,1,18,8,-18,10,8,9,9,7,10,4
-16,0,16,8,-17,9,9,9,9,7,9,4
-16,1,17,8,-17,9,10,8,9,7,9,4
-16,2,18,7,-17,10,10,8,9,7,9,4
-14,4,18,5,-16,11,11,8,9,7,10,4
-10,6,17,2,-14,12,11,8,9,7,10,4
-8,10,17,-1,-12,13,12,9,10,8,11,6
-8,11,19,-1,-14,15,14,10,11,9,13,8
-10,11,21,0,-16,16,16,10,11,9,14,9
-12,10,22,0,-17,17,16,11,11,9,14,9
-12,10,22,1,-17,17,15,11,11,10,14,8
-11,10,21,1,-16,16,13,11,11,10,14,7
-10,10,19,0,-15,15,12,11,11,10,13,7
-10,11,21,0,-15,16,12,12,12,11,14,7
-11,11,22,0,-17,16,12,13,14,11,15,8
-12,9,22,1,-17,15,12,12,14,11,15,7
-13,6,20,3,-17,13,11,12,14,10,14,7
-15,4,19,5,-17,12,10,12,14,11,13,7
-16,3,19,6,-18,12,10,12,13,11,13,7
-17,3,20,7,-19,12,10,11,12,10,13,7
-19,3,22,8,-21,13,10,11,12,10,12,6
-21,2,23,10,-22,13,10,11,11,9,12,6
-21,1,23,10,-22,13,11,11,11,9,12,6
-21,2,23,9,-22,13,12,11,11,9,12,6
-18,4,23,6,-21,13,13,11,11,10,13,6
-16,7,23,4,-19,14,15,12,12,10,13,7
-14,10,23,2,-19,16,16,13,12,11,13,8
-14,10,24,2,-19,17,16,14,12,11,13,8
-14,9,23,3,-19,16,16,13,12,10,13,7
-16,6,21,5,-18,14,15,13,12,9,12,6
-17,4,21,6,-18,13,15,12,11,9,11,6
-16,3,20,6,-18,12,14,12,11,8,11,6
-15,4,19,4,-17,11,14,11,10,8,11,6
-15,4,19,4,-17,11,13,10,10,8,11,6
-16,4,19,5,-17,10,13,10,9,7,10,5
-17,4,20,6,-18,11,12,9,8,7,11,5
-18,4,21,7,-20,12,12,9,9,8,12,6
-19,5,23,7,-21,14,12,9,9,8,12,6
-17,5,23,6,-20,14,12,9,10,8,12,6
-15,6,22,4,-19,14,12,9,10,8,12,6
-15,6,22,4,-19,14,13,10,10,9,12,6
-16,5,22,5,-19,13,13,10,10,8,12,5
-17,4,22,6,-20,12,13,10,9,8,11,4
-17,5,22,6,-20,13,13,10,9,7,10,4
-15,6,21,5,-18,13,13,10,9,7,10,4
-13,7,20,3,-16,14,13,10,9,7,10,4
-12,7,19,3,-15,14,12,9,9,6,10,4
-12,6,18,3,-15,13,12,9,9,6,10,4
-12,4,17,4,-15,11,12,8,9,6,10,4
-13,3,17,5,-15,10,12,8,9,6,10,4
-13,3,17,4,-15,10,11,8,9,7,10,4
-11,5,16,2,-14,10,9,7,10,7,10,4
-7,8,14,0,-11,11,8,6,10,6,10,4
-5,9,13,-1,-9,11,8,5,9,6,9,3
-5,8,12,0,-9,10,9,4,8,5,9,2
-7,6,13,1,-10,10,9,4,8,5,8,2
-9,3,12,3,-11,8,9,4,8,5,8,1
-10,1,12,4,-11,7,11,3,8,4,7,1
-11,1,13,5,-12,7,12,3,8,4,7,2
-11,1,12,5,-11,6,12,3,7,3,7,1
-8,1,9,4,-8,4,12,2,6,2,6,0
-7,2,8,3,-7,4,11,1,5,2,6,0
-7,2,8,3,-7,5,10,1,5,2,6,0
-5,3,8,1,-6,5,9,1,5,2,6,0
-3,5,8,-1,-6,7,10,2,6,3,7,1
-2,7,9,-2,-6,8,11,4,7,4,8,2
-2,8,10,-3,-7,9,11,5,7,5,9,2
-1,10,11,-4,-6,10,11,5,8,5,9,2
0,12,11,-6,-5,11,11,7,9,7,10,3
0,14,13,-7,-6,13,11,8,10,8,11,4
0,14,14,-7,-6,14,10,7,10,7,10,3
2,14,12,-7,-5,13,9,5,8,5,8,1
4,13,9,-8,-2,11,8,3,7,4,6,0
3,11,9,-7,-3,10,9,3,7,4,6,0
1,10,9,-5,-4,9,10,3,7,4,6,0
1,9,8,-5,-3,8,10,3,6,3,6,0
2,9,7,-5,-2,7,10,3,5,3,5,0
2,9,6,-5,-2,7,10,3,5,3,5,0
0,8,8,-4,-3,8,10,4,5,3,5,0
-3,6,10,-2,-6,8,10,4,6,3,5,0
-6,5,11,0,-8,8,10,5,6,3,6,0
-6,5,11,0,-9,8,10,6,7,4,6,0
-4,6,10,-1,-8,8,10,6,7,4,6,0
-2,6,8,-2,-6,7,9,6,7,3,6,0
-1,5,6,-2,-3,6,8,6,7,3,6,0
0,3,3,-1,-2,4,7,5,6,2,5,0
-2,2,4,0,-3,4,7,6,6,3,6,0
-3,3,7,0,-5,5,7,6,6,3,6,0
-2,5,8,-2,-5,6,7,7,6,3,6,0
0,6,8,-3,-4,7,6,7,6,3,6,0
0,7,8,-4,-4,7,6,7,7,3,6,1
-1,8,9,-3,-5,8,6,9,8,4,7,2
-1,9,10,-3,-6,9,7,11,9,5,8,3
1,9,7,-4,-3,7,6,10,8,5,8,3
2,8,5,-5,-1,6,6,9,7,4,7,2
0,7,7,-3,-3,6,6,9,6,3,6,1
-2,7,9,-2,-5,7,7,9,5,3,6,1
-1,8,9,-3,-5,8,8,9,5,3,6,1
-1,8,9,-4,-5,8,8,8,4,2,6,1
-2,7,9,-2,-6,8,8,8,4,2,5,0
-4,6,10,0,-7,7,8,9,3,1,5,0
-6,4,10,1,-8,7,8,11,4,2,5,1
-7,3,10,2,-8,7,9,13,6,4,6,1
-7,3,10,2,-8,7,8,13,6,4,6,1
-5,4,10,0,-7,7,7,13,7,5,7,2
-3,6,10,-1,-7,8,6,13,7,5,8,3
-3,7,11,-2,-7,8,6,13,7,5,9,4
-4,6,10,-1,-7,7,7,14,7,6,9,4
-6,4,10,1,-8,6,9,14,8,7,10,5
-9,2,10,3,-9,6,10,14,8,7,10,5
-8,1,9,3,-8,5,10,13,7,7,10,4
-7,1,8,3,-7,5,10,13,6,6,8,2
-7,0,7,3,-7,3,10,13,6,5,6,1
-7,-1,6,3,-7,2,10,13,6,4,5,1
-5,0,6,2,-6,3,10,14,7,5,6,1
-3,4,7,0,-6,5,11,15,8,6,7,2
-3,6,8,-1,-6,6,12,16,9,7,8,2
-3,5,8,-1,-6,6,12,16,9,7,8,2
-1,5,6,-2,-4,5,12,17,9,8,8,2
1,6,5,-4,-2,6,14,18,10,9,9,3
2,7,5,-5,-2,7,15,19,12,10,10,4
3,6,3,-4,0,5,14,18,11,9,9,4
2,4,1,-3,0,2,12,16,10,8,9,3
2,3,0,-3,1,1,12,16,10,8,9,3
4,4,-1,-4,3,0,11,16,9,7,8,3
6,4,-2,-5,4,0,11,16,7,6,7,2
5,3,-3,-4,4,0,10,16,5,5,6,1
5,3,-3,-4,4,0,10,16,5,5,6,1
6,4,-3,-5,4,0,10,16,6,6,6,2
7,6,-2,-6,5,1,10,17,6,6,6,2
10,7,-2,-8,6,2,9,17,6,6,6,2
11,7,-3,-9,6,1,7,16,5,6,6,2
9,6,-3,-7,6,0,5,15,4,5,5,1
8,4,-4,-6,6,-1,3,14,2,3,3,0
8,3,-5,-5,6,-1,2,12,1,1,1,-1
7,3,-4,-5,6,-1,2,12,0,0,0,-2
6,2,-3,-4,5,-1,3,11,-1,0,0,-2
5,1,-4,-3,5,-1,4,11,-1,-1,-2,-3
6,0,-6,-3,6,-3,5,11,-2,-2,-3,-4
5,-2,-7,-1,6,-5,6,11,-2,-2,-4,-5
2,-5,-8,1,5,-7,7,11,-2,-2,-4,-5
0,-8,-9,4,5,-9,8,11,-3,-3,-4,-5
-1,-10,-9,6,4,-10,7,10,-5,-4,-5,-6
-5,-14,-9,10,3,-11,7,9,-6,-5,-6,-7
-9,-18,-9,14,1,-13,6,8,-7,-6,-7,-8
-11,-21,-9,16,0,-15,6,7,-7,-7,-8,-8
-10,-20,-10,15,0,-15,6,8,-7,-7,-8,-8
-6,-16,-9,11,1,-13,6,9,-6,-7,-8,-8
-3,-10,-8,6,2,-10,7,10,-5,-6,-8,-8
0,-6,-7,3,3,-7,8,10,-4,-5,-8,-7
3,-4,-7,0,4,-6,8,11,-4,-4,-7,-6
6,-1,-7,-2,6,-4,9,11,-3,-3,-7,-5
9,1,-7,-5,8,-3,10,12,-2,-2,-6,-4
10,2,-7,-6,9,-2,10,12,-1,-2,-5,-4
8,2,-7,-5,7,-2,10,14,0,-1,-4,-3
7,0,-8,-4,7,-4,10,15,0,-1,-4,-3
7,-2,-10,-2,8,-6,9,14,-2,-3,-6,-4
3,-6,-10,1,6,-8,9,14,-3,-4,-7,-5
1,-7,-9,2,5,-8,9,14,-4,-5,-7,-6
5,-5,-11,0,8,-7,10,15,-4,-5,-8,-6
9,-3,-12,-3,10,-7,10,15,-4,-4,-8,-5
9,-2,-11,-3,10,-7,11,15,-4,-4,-8,-5
8,-2,-10,-2,9,-6,11,16,-3,-5,-8,-5
7,-4,-11,-1,9,-7,11,15,-3,-5,-9,-6
6,-6,-13,0,9,-9,10,14,-4,-7,-10,-7
7,-7,-15,0,11,-11,9,13,-4,-8,-11,-7
8,-8,-16,0,12,-12,9,13,-5,-8,-11,-7
7,-8,-15,0,11,-12,9,13,-5,-8,-12,-7
5,-8,-13,1,9,-11,8,13,-4,-9,-12,-8
6,-7,-12,1,9,-10,7,12,-4,-9,-12,-8
6,-6,-12,0,9,-9,7,11,-4,-9,-12,-8
4,-5,-10,0,7,-8,7,10,-4,-9,-12,-8
2,-5,-9,1,5,-7,7,10,-4,-9,-12,-8
1,-4,-8,1,4,-6,8,9,-4,-8,-12,-8
1,-3,-7,1,4,-6,8,8,-4,-8,-12,-8
0,-4,-6,1,3,-5,8,8,-4,-8,-12,-8
-1,-4,-4,2,1,-4,8,7,-4,-8,-12,-8
-2,-4,-2,3,0,-3,9,7,-4,-8,-12,-8
-2,-5,-1,3,-1,-3,8,7,-5,-8,-12,-9
-4,-6,-1,5,-2,-3,8,7,-5,-9,-12,-9
-7,-8,-1,8,-3,-5,8,7,-5,-9,-12,-9
-10,-10,-1,10,-4,-6,8,6,-5,-9,-13,-10
-12,-12,0,12,-6,-6,8,6,-4,-9,-13,-9
-14,-11,2,12,-8,-5,8,6,-4,-8,-13,-8
-15,-11,3,12,-9,-4,8,6,-4,-8,-13,-8
-14,-11,2,12,-8,-5,8,6,-5,-9,-13,-8
-12,-12,0,12,-6,-6,8,6,-5,-9,-13,-8
-13,-12,1,12,-7,-6,9,7,-4,-8,-13,-8
-15,-11,3,13,-9,-4,10,7,-4,-8,-12,-7
-15,-10,4,12,-10,-3,11,7,-4,-8,-13,-8
-16,-9,7,12,-12,-1,13,8,-3,-7,-12,-7
-18,-7,11,12,-14,1,15,10,-2,-6,-11,-6
-18,-8,10,13,-14,0,16,10,-3,-6,-12,-6
-17,-11,6,13,-11,-2,14,9,-4,-8,-13,-7
-15,-12,3,13,-9,-4,12,9,-4,-8,-14,-8
-14,-12,2,13,-8,-5,10,9,-4,-8,-14,-8
-14,-12,1,12,-7,-6,9,8,-5,-8,-14,-8
-14,-12,1,12,-7,-5,9,7,-5,-9,-14,-8
-15,-12,2,13,-9,-5,9,7,-5,-9,-15,-9
-17,-12,4,14,-10,-4,10,7,-4,-8,-14,-8
-16,-11,5,13,-10,-3,12,8,-3,-7,-14,-8
-13,-10,4,11,-8,-3,12,9,-2,-7,-14,-8
-12,-8,4,10,-7,-2,12,9,-1,-7,-14,-8
-11,-5,6,8,-8,0,13,8,0,-6,-14,-9
-11,-1,9,6,-10,4,13,8,2,-4,-13,-9
-14,2,15,6,-14,8,14,8,6,-1,-12,-9
-19,3,21,7,-20,12,16,9,12,4,-8,-7
-23,4,25,9,-24,15,18,11,18,11,-2,-3
-24,6,29,9,-26,17,19,14,26,19,6,3
-21,11,31,4,-25,21,21,18,34,30,17,12
-17,15,32,1,-24,23,21,21,42,40,31,24
-16,17,33,0,-24,24,21,24,49,52,46,37
-11,23,34,-6,-22,28,21,28,59,68,67,55
-2,32,35,-15,-19,34,20,33,72,88,93,78
5,42,36,-23,-16,39,18,37,86,111,121,103
11,50,37,-30,-13,44,14,40,97,133,150,127
18,58,39,-38,-10,49,9,41,106,154,179,151
28,70,42,-49,-7,56,4,43,114,177,210,177
42,86,44,-64,-1,65,-2,44,121,200,241,205
57,103,46,-80,5,75,-8,43,124,219,270,232
71,117,46,-94,12,82,-17,40,124,232,293,255
84,125,41,-104,21,83,-29,36,119,237,305,270
95,129,33,-111,31,82,-41,32,110,235,306,276
104,131,25,-117,40,79,-52,28,98,225,295,271
111,128,16,-119,48,72,-60,23,85,207,269,253
115,119,3,-117,56,61,-68,18,70,183,231,222
120,108,-12,-113,66,48,-74,13,53,153,186,183
124,95,-29,-109,76,33,-79,6,31,117,139,142
123,79,-44,-101,83,17,-83,-3,3,75,90,102
117,61,-56,-89,87,2,-84,-15,-30,28,41,63
108,42,-66,-75,87,-12,-83,-28,-64,-20,-5,24
98,25,-73,-61,86,-23,-81,-41,-97,-67,-50,-11
89,9,-79,-48,85,-34,-80,-52,-125,-109,-88,-42
84,-3,-87,-40,86,-45,-77,-59,-144,-140,-118,-67
81,-14,-95,-33,88,-54,-72,-61,-155,-161,-139,-85
76,-25,-100,-26,88,-63,-67,-61,-160,-172,-151,-97
66,-33,-100,-17,83,-67,-60,-59,-157,-174,-156,-103
55,-36,-92,-10,74,-65,-52,-54,-147,-166,-150,-102
47,-34,-82,-6,64,-58,-44,-46,-130,-151,-138,-95
40,-29,-70,-5,55,-50,-37,-38,-112,-134,-124,-86
32,-25,-58,-2,45,-41,-31,-32,-95,-117,-110,-77
24,-24,-48,0,37,-36,-26,-26,-82,-103,-98,-69
19,-23,-42,2,31,-32,-20,-21,-70,-91,-88,-63
14,-22,-36,3,26,-30,-15,-16,-60,-80,-79,-58
10,-22,-33,5,22,-28,-10,-13,-52,-72,-71,-53
8,-22,-31,6,19,-27,-7,-10,-45,-65,-66,-50
5,-22,-28,8,16,-25,-5,-8,-39,-58,-61,-47
2,-21,-23,9,13,-22,-2,-6,-34,-53,-57,-44
2,-19,-20,8,11,-19,-1,-6,-30,-49,-54,-42
2,-16,-18,7,10,-16,0,-6,-28,-45,-50,-39
0,-15,-14,8,7,-14,3,-5,-24,-40,-45,-36
-4,-16,-12,10,4,-14,5,-5,-21,-36,-41,-32
-6,-17,-11,11,2,-15,6,-6,-19,-33,-38,-30
-6,-17,-12,11,2,-15,6,-6,-17,-31,-36,-29
-3,-14,-12,8,4,-13,6,-6,-16,-29,-34,-27
-2,-12,-10,7,4,-11,7,-4,-13,-26,-32,-25
-3,-11,-7,7,2,-9,8,-3,-11,-24,-29,-24
-2,-10,-6,7,2,-8,9,-3,-10,-22,-28,-23
0,-9,-8,5,4,-8,9,-3,-10,-21,-27,-23
1,-7,-8,3,4,-7,10,-3,-10,-20,-26,-22
-1,-6,-5,4,2,-5,12,-2,-10,-19,-24,-20
-4,-6,-3,5,0,-4,13,-2,-9,-17,-22,-18
-4,-7,-4,6,0,-6,14,-2,-8,-17,-21,-18
-5,-9,-4,7,0,-7,15,-2,-7,-16,-21,-18
-6,-10,-4,8,-1,-7,14,-1,-6,-16,-21,-18
-7,-12,-4,10,-1,-8,13,-1,-5,-15,-20,-18
-6,-13,-5,10,0,-9,12,-1,-3,-14,-20,-18
-3,-11,-7,7,2,-9,10,0,-2,-14,-20,-19
-2,-10,-7,6,2,-9,10,0,-2,-14,-19,-19
-6,-10,-4,7,-1,-7,11,0,0,-13,-18,-18
-11,-9,1,9,-6,-4,13,1,1,-11,-17,-16
-12,-8,2,9,-7,-3,14,1,2,-11,-16,-15
-10,-9,0,9,-6,-4,14,1,2,-11,-16,-15
-11,-10,0,11,-6,-5,14,1,2,-10,-15,-14
-12,-11,1,12,-6,-5,14,1,3,-10,-15,-14
-12,-12,0,13,-6,-5,14,0,2,-11,-15,-14
-14,-14,0,14,-6,-7,14,0,1,-12,-16,-15
-13,-15,-2,14,-5,-9,14,-1,1,-12,-16,-16
-10,-12,-3,11,-3,-8,14,-2,1,-12,-16,-15
-8,-9,-1,8,-3,-6,14,-2,2,-11,-15,-15
-9,-8,0,8,-4,-4,13,-2,2,-11,-16,-15
-9,-9,0,9,-4,-4,12,-3,2,-12,-17,-16
-10,-9,1,10,-5,-4,11,-4,0,-12,-17,-17
-12,-10,2,11,-7,-4,11,-4,0,-12,-17,-16
-12,-10,2,12,-7,-4,12,-3,0,-11,-17,-15
-10,-10,0,11,-5,-6,13,-3,0,-11,-17,-15
-8,-10,-2,9,-3,-7,12,-3,0,-12,-17,-15
-7,-9,-2,8,-3,-6,12,-4,0,-12,-17,-15
-8,-9,0,8,-4,-5,12,-4,-1,-12,-17,-15
-8,-9,0,8,-4,-4,12,-4,-1,-12,-17,-15
-8,-9,0,8,-4,-4,12,-3,-1,-11,-17,-15
-9,-9,0,9,-5,-3,14,-2,0,-10,-16,-15
-10,-9,1,10,-6,-3,15,0,0,-9,-16,-15
-10,-8,1,9,-5,-3,16,0,0,-8,-16,-15
-8,-6,1,7,-4,-2,16,1,0,-8,-16,-15
-7,-5,1,5,-4,-2,16,1,0,-8,-17,-15
-6,-6,0,6,-3,-4,15,1,0,-9,-17,-15
-6,-7,-1,7,-2,-5,15,1,0,-9,-18,-16
-7,-8,-1,8,-3,-5,15,1,-1,-9,-18,-16
-9,-10,-1,10,-4,-5,15,1,-1,-9,-18,-17
-11,-13,-2,13,-4,-7,15,1,-2,-9,-18,-17
-12,-15,-3,14,-4,-8,15,1,-2,-9,-18,-17
-12,-15,-3,13,-4,-9,16,2,-2,-9,-18,-16
-11,-14,-3,12,-4,-9,16,2,-2,-9,-18,-16
-11,-15,-3,12,-4,-9,16,1,-2,-10,-18,-16
-10,-13,-3,11,-3,-8,16,1,-2,-10,-18,-15
-8,-11,-4,10,-2,-7,15,2,-2,-9,-18,-15
-6,-10,-4,9,-1,-7,15,2,-2,-9,-18,-15
-5,-10,-4,8,0,-6,14,2,-2,-9,-18,-16
-5,-9,-3,8,0,-6,14,3,-2,-9,-18,-16
-5,-9,-3,7,0,-6,13,3,-2,-9,-18,-16
-4,-9,-5,7,1,-7,13,3,-2,-9,-18,-16
-3,-9,-6,6,2,-8,12,4,-2,-9,-18,-16
-2,-10,-6,6,2,-8,11,4,-1,-8,-18,-16
-2,-10,-7,6,3,-9,11,4,0,-8,-18,-16
-2,-10,-7,5,3,-8,10,4,-1,-9,-19,-17
-1,-8,-7,4,3,-7,9,5,-2,-9,-19,-18
0,-6,-5,3,2,-5,9,6,-1,-8,-19,-18
-1,-3,-2,2,1,-2,9,7,-1,-8,-18,-17
0,-2,-1,1,0,-1,10,7,-1,-8,-18,-17
-1,-3,-1,2,0,-2,11,8,-1,-8,-18,-16
-2,-5,-2,4,0,-4,12,8,-1,-8,-18,-16
-2,-7,-4,5,1,-5,12,7,-1,-8,-18,-16
-1,-8,-6,5,2,-6,12,7,-1,-8,-18,-16
-2,-9,-7,5,3,-7,12,7,-1,-8,-18,-16
-2,-10,-8,6,4,-8,12,7,-2,-8,-18,-16
0,-9,-10,4,5,-9,12,7,-2,-8,-18,-16
1,-8,-10,3,6,-9,12,7,-1,-8,-18,-16
0,-9,-10,4,5,-10,12,7,-1,-8,-18,-16
0,-9,-9,4,4,-10,12,7,-2,-9,-18,-17
1,-7,-8,3,4,-8,12,7,-1,-9,-18,-17
1,-6,-8,2,4,-7,12,7,-1,-9,-19,-17
1,-7,-8,2,5,-7,11,7,-1,-8,-19,-17
1,-7,-9,3,5,-7,10,8,0,-8,-18,-17
2,-6,-9,2,6,-7,9,8,0,-8,-18,-16
5,-5,-10,0,7,-7,8,8,-1,-8,-18,-16
7,-3,-10,-2,8,-6,8,8,-1,-8,-18,-16
8,-2,-10,-2,9,-6,8,9,-1,-8,-18,-16
8,-3,-11,-2,9,-7,9,9,0,-7,-18,-15
8,-5,-13,-1,10,-8,9,10,0,-7,-18,-15
7,-5,-13,0,10,-9,9,10,0,-7,-18,-15
9,-4,-14,-2,12,-8,10,10,-1,-7,-18,-15
11,-2,-14,-4,13,-8,11,10,-1,-7,-18,-15
10,-2,-13,-3,12,-7,12,11,-1,-7,-17,-14
7,-2,-9,-1,8,-6,12,12,-1,-6,-17,-14
2,-3,-5,1,3,-5,11,12,0,-6,-16,-13
0,-5,-4,2,2,-6,9,12,-1,-7,-17,-13
2,-6,-7,2,4,-7,8,12,-1,-7,-17,-14
4,-5,-8,0,6,-6,8,12,-1,-7,-16,-13
5,-3,-8,-1,6,-5,8,13,-1,-7,-16,-13
5,-2,-8,-1,6,-4,8,12,-1,-7,-16,-13
3,-5,-8,1,5,-6,7,12,-1,-7,-17,-13
0,-7,-8,4,4,-7,7,10,-2,-8,-17,-14
0,-8,-8,4,4,-8,6,9,-3,-8,-18,-14
1,-6,-8,3,4,-7,7,9,-3,-8,-18,-14
2,-3,-6,1,4,-5,9,9,-3,-7,-17,-13
4,0,-5,-1,4,-2,10,10,-2,-6,-16,-12
4,2,-3,-2,4,0,10,9,-2,-6,-16,-11
5,4,-2,-4,4,1,10,8,-2,-6,-15,-10
6,4,-2,-4,4,1,8,7,-3,-6,-15,-10
3,2,-2,-2,3,0,7,6,-4,-7,-15,-9
0,1,0,0,0,0,8,6,-3,-6,-14,-8
-1,1,2,0,-2,1,8,6,-3,-6,-13,-7
2,3,0,-3,1,1,7,5,-3,-6,-14,-8
7,5,-2,-6,4,1,7,5,-4,-6,-13,-8
9,7,-2,-8,6,2,7,5,-3,-6,-13,-7
12,9,-3,-10,8,3,8,4,-4,-7,-13,-7
15,10,-4,-12,9,3,8,4,-4,-7,-14,-7
14,10,-3,-12,8,3,8,4,-4,-7,-14,-7
12,9,-1,-10,7,3,8,3,-4,-7,-13,-6
9,7,-1,-8,5,3,8,3,-4,-7,-13,-6
7,7,0,-6,3,3,7,2,-4,-7,-13,-6
8,7,0,-7,4,3,7,2,-4,-7,-12,-5
10,8,-1,-9,5,3,7,2,-4,-7,-12,-4
10,9,-1,-9,6,4,6,1,-4,-7,-12,-4
11,8,-2,-9,6,3,5,0,-5,-8,-12,-4
11,8,-3,-9,7,2,4,-1,-7,-9,-12,-4
9,7,-2,-9,6,2,3,-2,-7,-10,-13,-5
8,7,-1,-8,4,2,3,-2,-7,-10,-13,-5
8,6,-3,-8,5,1,2,-3,-8,-11,-14,-5
10,6,-5,-8,7,0,1,-3,-9,-13,-15,-6
12,6,-6,-9,9,0,0,-4,-11,-14,-16,-7
14,6,-8,-10,11,0,-1,-4,-11,-15,-17,-8
15,5,-8,-10,12,-1,-2,-5,-11,-16,-18,-8
13,5,-7,-9,10,-1,-2,-5,-11,-16,-18,-8
11,5,-6,-8,8,0,-2,-6,-11,-16,-17,-8
8,5,-3,-7,6,0,-1,-6,-11,-15,-16,-7
7,5,-2,-7,5,1,-1,-6,-11,-15,-16,-7
9,5,-4,-7,7,0,-2,-6,-12,-16,-16,-7
9,4,-5,-6,7,0,-3,-7,-13,-17,-17,-7
5,0,-5,-2,5,-2,-4,-8,-14,-17,-17,-7
1,-2,-4,1,3,-2,-4,-9,-14,-18,-17,-8
1,-4,-5,2,3,-4,-4,-9,-14,-18,-18,-8
4,-4,-7,0,6,-5,-6,-10,-15,-19,-18,-9
5,-2,-7,-1,7,-5,-7,-10,-15,-18,-18,-8
4,0,-5,-2,4,-3,-6,-9,-13,-17,-16,-6
4,0,-4,-3,4,-2,-4,-8,-12,-16,-15,-5
5,1,-4,-3,4,-1,-3,-9,-13,-16,-15,-5
4,0,-3,-2,4,-1,-3,-9,-14,-17,-16,-7
3,-1,-3,0,3,-2,-3,-10,-15,-19,-18,-8
2,-1,-3,0,3,-2,-3,-10,-16,-20,-19,-9
2,-1,-3,0,3,-2,-3,-10,-17,-20,-19,-9
3,1,-2,-2,2,0,-3,-10,-17,-20,-18,-8
3,2,-1,-3,2,0,-2,-10,-16,-19,-17,-7
5,2,-3,-4,4,0,-2,-10,-16,-18,-17,-7
6,1,-5,-4,5,-1,-3,-10,-16,-18,-17,-6
7,2,-5,-5,6,-1,-2,-9,-15,-18,-15,-5
10,4,-5,-7,8,0,0,-9,-14,-17,-14,-3
11,6,-5,-8,9,0,1,-9,-14,-17,-13,-2
11,7,-4,-8,8,1,1,-10,-14,-17,-14,-3
11,6,-6,-8,9,0,0,-12,-15,-19,-15,-4
13,4,-9,-9,11,-3,-1,-13,-16,-20,-17,-5
15,5,-10,-10,12,-3,-3,-14,-17,-20,-17,-6
18,9,-10,-14,14,0,-3,-15,-17,-20,-17,-5
22,13,-8,-17,15,2,-2,-14,-16,-20,-15,-4
23,16,-7,-19,15,4,0,-13,-15,-19,-14,-4
24,16,-8,-19,16,4,0,-13,-15,-19,-14,-4
24,13,-10,-18,17,2,0,-14,-16,-21,-16,-5
21,9,-12,-15,16,-1,-1,-16,-18,-23,-18,-7
19,6,-12,-13,15,-3,-1,-17,-19,-23,-19,-7
17,4,-12,-11,14,-4,-1,-17,-18,-23,-19,-6
16,2,-13,-9,14,-5,-2,-18,-19,-25,-20,-7
15,0,-14,-8,15,-7,-4,-20,-21,-27,-22,-8
15,-1,-16,-7,16,-8,-6,-20,-22,-28,-23,-8
17,-1,-19,-7,18,-10,-6,-20,-22,-28,-23,-8
18,-2,-20,-8,19,-10,-6,-18,-21,-27,-22,-7
17,-2,-19,-7,18,-10,-6,-16,-20,-26,-21,-5
17,-2,-19,-8,18,-10,-6,-15,-19,-26,-20,-5
17,-1,-19,-9,18,-10,-7,-15,-20,-27,-21,-5
17,-1,-17,-9,17,-9,-8,-14,-20,-27,-22,-5
17,0,-17,-9,18,-8,-8,-14,-21,-27,-22,-6
19,0,-19,-10,19,-9,-9,-14,-22,-28,-23,-7
19,0,-19,-10,19,-8,-9,-14,-22,-29,-24,-8
18,0,-18,-9,18,-8,-8,-13,-22,-29,-23,-8
17,0,-18,-8,17,-9,-8,-12,-22,-29,-23,-7
15,-1,-17,-7,16,-8,-8,-12,-22,-29,-23,-7
15,0,-16,-8,15,-8,-9,-12,-22,-29,-24,-7
17,0,-18,-9,17,-9,-9,-12,-22,-29,-25,-8
20,-1,-21,-10,21,-11,-9,-11,-23,-30,-25,-8
19,-1,-21,-9,20,-10,-8,-10,-22,-29,-24,-8
18,-1,-20,-8,19,-10,-8,-9,-22,-29,-24,-8
19,0,-20,-9,19,-10,-7,-8,-22,-30,-25,-8
20,0,-21,-10,20,-9,-7,-8,-23,-30,-26,-9
20,1,-20,-10,20,-9,-6,-7,-22,-29,-26,-9
20,1,-20,-11,20,-9,-6,-7,-21,-28,-25,-9
20,0,-20,-11,20,-10,-5,-6,-20,-27,-25,-8
20,-1,-21,-10,20,-11,-4,-6,-20,-27,-25,-8
21,-2,-23,-9,22,-12,-3,-5,-19,-26,-25,-9
22,-3,-25,-9,23,-13,-3,-6,-20,-26,-25,-10
20,-4,-24,-7,22,-13,-3,-6,-20,-27,-25,-10
18,-4,-23,-6,21,-12,-2,-6,-19,-27,-25,-10
19,-3,-23,-7,21,-13,-2,-7,-20,-27,-26,-11
20,-4,-25,-7,23,-14,-3,-7,-20,-27,-26,-12
20,-4,-25,-7,22,-15,-3,-8,-19,-26,-26,-12
20,-4,-23,-8,21,-14,-4,-8,-18,-26,-26,-12
19,-3,-22,-8,20,-12,-5,-7,-17,-25,-26,-11
20,-2,-21,-8,20,-11,-5,-6,-16,-24,-25,-10
21,-2,-23,-9,22,-12,-5,-6,-16,-23,-24,-10
22,-2,-25,-9,23,-13,-5,-5,-15,-22,-23,-9
23,-1,-26,-10,24,-13,-5,-4,-13,-20,-22,-7
23,0,-24,-11,24,-12,-5,-3,-12,-19,-20,-6
22,0,-22,-11,22,-11,-4,-3,-11,-18,-19,-6
21,0,-21,-11,21,-10,-4,-4,-10,-17,-19,-6
20,0,-19,-10,20,-9,-4,-4,-10,-17,-19,-6
19,0,-18,-10,19,-8,-3,-4,-9,-16,-19,-6
20,1,-18,-10,19,-8,-2,-3,-8,-15,-18,-6
20,2,-18,-10,18,-7,-2,-3,-8,-14,-18,-6
17,1,-17,-9,17,-8,-2,-2,-7,-13,-17,-6
17,1,-18,-9,17,-8,-2,-2,-7,-13,-17,-6
19,2,-19,-10,19,-8,-4,-2,-7,-13,-17,-7
20,2,-19,-11,19,-8,-6,-1,-6,-12,-16,-6
19,2,-17,-11,18,-7,-5,0,-4,-10,-14,-5
20,3,-16,-12,18,-6,-4,2,-1,-7,-12,-3
22,5,-17,-14,19,-6,-4,2,0,-6,-10,-2
21,5,-16,-13,18,-5,-3,3,1,-5,-9,-1
20,4,-16,-11,17,-6,-3,4,2,-4,-8,-1
22,4,-19,-13,20,-6,-3,4,2,-3,-8,-1
23,4,-19,-14,20,-6,-4,4,3,-2,-8,-1
18,4,-14,-12,16,-4,-3,5,5,0,-6,0
16,4,-11,-11,14,-2,-4,6,6,1,-4,1
16,6,-10,-12,13,-1,-5,7,7,2,-3,2
18,9,-9,-14,13,0,-5,9,8,4,-1,3
21,12,-9,-16,15,1,-5,10,9,6,0,4
21,12,-10,-16,15,1,-4,10,10,7,0,4
19,9,-11,-13,14,0,-4,9,10,7,0,4
15,5,-11,-9,13,-2,-4,8,11,7,0,4
13,3,-11,-8,12,-3,-4,7,11,8,1,4
15,3,-12,-9,13,-3,-3,7,12,9,2,4
16,4,-12,-10,14,-3,-1,7,13,10,3,4
14,5,-10,-9,12,-2,0,9,14,12,5,6
12,6,-6,-8,9,0,2,10,16,14,7,7
12,7,-6,-9,8,0,1,10,17,15,8,8
14,8,-7,-10,9,0,0,10,17,15,8,8
17,9,-8,-12,12,1,0,10,17,16,9,9
18,10,-8,-13,12,1,0,10,17,17,11,10
17,9,-8,-13,12,1,0,9,18,18,12,11
17,8,-9,-12,13,0,1,9,18,18,12,11
16,8,-8,-12,13,0,1,8,17,18,12,11
13,7,-6,-10,10,0,1,7,17,18,13,11
11,7,-5,-8,8,0,1,6,16,18,13,11
12,7,-5,-9,8,0,1,5,15,18,13,11
15,8,-6,-11,10,1,0,5,15,18,13,11
15,10,-6,-12,11,2,0,6,16,19,14,11
14,12,-2,-13,9,5,0,8,18,21,16,13
15,15,0,-15,8,8,0,9,19,22,17,14
18,17,-1,-17,10,8,0,9,19,22,17,14
18,17,-2,-17,10,7,-1,8,19,22,18,14
16,15,-1,-15,9,7,0,9,19,23,19,14
15,14,-1,-14,8,6,0,9,19,23,19,14
14,13,-1,-13,7,6,0,9,18,22,19,14
12,12,0,-12,6,6,0,8,18,22,18,13
11,11,-1,-11,6,5,0,8,17,21,18,13
11,9,-2,-10,7,4,1,7,17,21,18,12
12,10,-2,-11,7,4,1,6,16,21,17,11
13,12,-1,-12,7,5,1,5,15,21,17,11
13,13,0,-13,7,6,1,4,14,20,16,10
13,14,0,-13,6,7,1,3,14,19,16,9
14,14,0,-14,7,7,1,3,14,19,15,9
15,14,-1,-14,8,7,1,2,14,18,14,8
14,14,0,-14,7,7,0,1,13,17,14,8
14,15,0,-15,7,8,1,1,12,16,13,8
15,14,-1,-15,8,6,1,1,11,15,12,7
14,10,-4,-12,9,2,1,1,10,14,10,6
13,6,-6,-9,9,0,1,0,9,13,9,4
14,7,-7,-10,10,0,2,0,9,12,8,3
15,9,-6,-11,10,1,3,1,9,12,9,4
14,8,-5,-11,9,2,3,2,9,11,9,4
12,7,-5,-9,8,2,2,1,8,10,8,4
12,6,-5,-9,8,1,2,1,8,9,7,3
12,6,-5,-9,8,1,2,0,7,9,7,2
11,7,-5,-9,8,1,2,1,7,8,6,2
11,7,-5,-9,8,1,2,1,6,8,6,1
12,8,-5,-10,8,2,2,1,6,7,6,2
13,9,-5,-10,9,2,3,1,6,7,6,2
13,7,-7,-9,10,0,4,1,5,6,6,2
12,3,-10,-7,11,-2,3,1,4,5,4,0
10,1,-9,-5,10,-3,2,0,3,4,2,0
8,0,-8,-4,8,-3,2,0,2,3,1,-1
7,0,-7,-4,8,-3,1,0,1,2,0,-2
7,0,-7,-3,7,-4,0,-1,0,0,-1,-3
6,0,-7,-3,6,-3,1,-1,0,0,-1,-4
6,2,-5,-4,5,-1,2,0,0,0,-1,-4
6,4,-3,-4,5,1,4,0,1,1,0,-3
9,5,-4,-7,6,2,5,1,2,1,0,-2
13,7,-7,-10,10,1,5,2,2,2,0,-1
16,6,-9,-11,13,-1,5,3,3,2,0,-1
15,3,-12,-9,14,-4,4,3,2,1,-1,-2
13,0,-12,-7,13,-6,4,3,0,0,-2,-3
10,-1,-11,-4,11,-7,4,2,-1,-1,-3,-4
6,-2,-9,-2,8,-6,4,2,-2,-2,-3,-5
3,-2,-6,-1,5,-4,4,3,-2,-2,-3,-5
4,-1,-7,-1,5,-3,3,3,-2,-3,-4,-6
7,0,-8,-3,8,-3,1,2,-4,-5,-6,-8
9,0,-8,-4,9,-3,0,3,-4,-5,-7,-8
10,0,-9,-5,10,-3,-1,4,-4,-5,-7,-8
11,0,-10,-5,11,-4,-1,4,-4,-5,-7,-8
10,-1,-11,-4,11,-6,-1,4,-4,-5,-7,-8
8,-4,-12,-2,10,-8,0,4,-4,-6,-7,-9
6,-5,-12,0,9,-8,1,4,-4,-6,-8,-9
5,-5,-11,0,8,-7,2,4,-4,-6,-8,-10
6,-4,-11,-1,9,-7,4,4,-5,-6,-9,-10
9,-4,-13,-2,11,-7,5,3,-5,-7,-9,-10
8,-5,-13,-1,11,-8,7,4,-5,-7,-9,-9
5,-6,-11,0,8,-8,9,6,-4,-6,-8,-7
4,-6,-10,1,7,-7,10,8,-3,-5,-6,-5
2,-6,-9,2,5,-7,10,8,-3,-4,-5,-4
-1,-6,-6,3,2,-6,10,9,-3,-4,-5,-4
-2,-6,-5,3,1,-5,10,8,-3,-4,-5,-4
0,-5,-6,2,3,-5,10,8,-4,-4,-7,-5
2,-5,-7,0,4,-5,10,8,-4,-5,-8,-6
3,-5,-7,0,5,-5,11,8,-4,-5,-8,-7
2,-5,-6,1,4,-5,11,7,-5,-6,-9,-7
1,-6,-6,2,4,-6,11,6,-6,-7,-9,-8
1,-7,-9,3,5,-8,10,5,-7,-8,-11,-9
1,-7,-10,3,6,-9,9,3,-8,-9,-12,-9
0,-7,-9,3,5,-8,9,2,-8,-9,-12,-9
1,-4,-7,1,4,-5,10,2,-8,-8,-11,-8
3,-1,-5,-1,4,-2,11,3,-8,-8,-11,-7
5,0,-5,-2,5,-2,12,4,-8,-7,-10,-7
7,-1,-8,-2,7,-4,11,4,-7,-7,-10,-7
7,-2,-10,-2,8,-5,11,5,-7,-6,-9,-6
7,-2,-10,-2,8,-5,12,4,-7,-6,-9,-6
5,-4,-10,-1,8,-7,11,3,-7,-7,-9,-6
4,-6,-11,0,8,-9,11,3,-8,-7,-10,-7
4,-7,-12,1,8,-10,11,2,-8,-8,-11,-8
3,-8,-12,2,7,-10,11,1,-9,-8,-12,-9
2,-9,-11,3,6,-9,11,0,-10,-10,-13,-10
1,-8,-9,3,5,-8,11,0,-11,-11,-14,-11
2,-7,-9,2,5,-8,11,1,-10,-10,-13,-11
3,-7,-10,2,7,-9,10,2,-9,-10,-13,-11
3,-7,-11,2,8,-10,10,2,-8,-10,-13,-11
3,-7,-11,2,7,-9,9,3,-8,-9,-13,-11
3,-5,-9,1,7,-8,9,3,-7,-9,-13,-11
4,-4,-8,0,6,-6,8,3,-7,-8,-12,-10
5,-3,-8,0,6,-5,7,3,-7,-7,-12,-10
5,-2,-7,-1,6,-4,7,4,-7,-7,-11,-10
5,-1,-7,-1,5,-4,7,4,-6,-6,-10,-9
4,-2,-7,-1,5,-5,7,4,-6,-7,-10,-9
3,-4,-7,0,5,-6,7,4,-7,-7,-11,-10
3,-5,-8,1,5,-7,6,3,-8,-8,-12,-11
3,-5,-8,1,6,-7,6,2,-8,-9,-12,-11
4,-4,-9,0,7,-7,7,2,-8,-8,-12,-11
6,-4,-10,0,8,-8,7,3,-7,-8,-11,-10
7,-5,-12,0,9,-9,6,2,-8,-9,-12,-11
6,-6,-13,0,9,-9,5,1,-9,-11,-13,-12
6,-5,-12,0,9,-9,5,1,-10,-11,-14,-12
7,-5,-13,-1,10,-9,5,1,-10,-11,-14,-11
6,-5,-13,0,10,-9,4,1,-10,-10,-13,-11
6,-5,-12,0,9,-9,4,1,-9,-10,-13,-11
5,-6,-11,0,9,-8,4,1,-9,-10,-13,-11
4,-6,-11,1,8,-8,5,2,-8,-10,-13,-11
4,-6,-10,1,7,-7,6,2,-7,-9,-12,-10
3,-6,-9,1,7,-7,7,2,-6,-8,-12,-9
3,-7,-10,2,7,-8,7,2,-7,-8,-12,-9
5,-7,-12,1,8,-9,7,2,-8,-9,-12,-9
5,-6,-12,1,8,-9,7,1,-8,-9,-12,-9
5,-5,-10,1,7,-8,8,1,-9,-9,-12,-10
5,-5,-10,0,8,-8,8,1,-9,-10,-12,-10
5,-6,-11,0,8,-8,8,1,-10,-10,-13,-11
4,-6,-10,0,7,-8,9,1,-10,-10,-13,-11
6,-5,-10,0,8,-8,10,1,-10,-10,-14,-11
9,-5,-14,-2,11,-10,9,1,-11,-11,-14,-11
11,-5,-17,-3,14,-11,8,1,-12,-12,-15,-12
13,-4,-18,-4,15,-11,7,1,-12,-12,-16,-13
13,-4,-18,-4,16,-11,7,2,-12,-12,-16,-13
11,-6,-18,-2,15,-12,6,2,-12,-12,-16,-13
10,-8,-18,0,15,-13,5,2,-12,-12,-16,-13
8,-9,-18,0,14,-14,4,2,-12,-13,-17,-13
7,-10,-17,1,13,-14,3,1,-13,-14,-18,-14
7,-10,-17,1,12,-14,2,0,-15,-15,-19,-15
7,-10,-18,1,12,-14,1,0,-15,-16,-19,-16
7,-9,-17,1,12,-13,0,0,-15,-15,-19,-16
9,-6,-16,-1,12,-11,1,2,-13,-14,-18,-15
13,-4,-17,-4,15,-10,1,3,-12,-13,-17,-15
15,-3,-18,-5,17,-10,2,3,-12,-12,-17,-14
14,-4,-18,-4,16,-11,3,3,-12,-12,-17,-13
12,-7,-18,-2,15,-12,3,2,-12,-13,-17,-13
10,-9,-18,-1,14,-13,3,2,-12,-13,-18,-13
8,-9,-17,0,12,-13,4,3,-11,-13,-17,-13
6,-9,-15,2,11,-13,5,3,-11,-13,-17,-13
7,-9,-17,1,12,-13,5,3,-11,-13,-18,-14
8,-9,-18,0,13,-13,4,3,-12,-14,-18,-15
6,-9,-16,1,12,-12,4,4,-11,-13,-18,-14
5,-9,-14,2,10,-11,4,4,-11,-12,-18,-14
7,-8,-15,1,11,-11,4,4,-11,-12,-18,-14
11,-5,-16,-2,14,-11,4,4,-11,-12,-18,-14
13,-3,-16,-4,15,-10,4,4,-10,-12,-17,-13
12,-4,-16,-3,14,-10,5,4,-10,-12,-16,-12
9,-6,-16,-1,13,-12,6,3,-11,-13,-16,-12
7,-10,-18,1,13,-14,6,1,-12,-14,-17,-13
6,-12,-19,3,13,-16,6,0,-13,-15,-19,-14
5,-13,-18,4,12,-16,7,-2,-14,-16,-20,-15
4,-13,-18,5,12,-16,8,-3,-14,-16,-20,-15
4,-14,-18,5,12,-17,8,-3,-14,-16,-20,-15
3,-15,-19,6,11,-17,7,-3,-13,-16,-19,-15
2,-16,-19,7,11,-18,7,-4,-13,-16,-19,-15
0,-17,-17,8,9,-17,6,-6,-14,-16,-20,-16
-1,-16,-15,8,7,-16,5,-7,-14,-17,-20,-16
-2,-14,-13,8,6,-14,5,-7,-13,-16,-19,-15
-2,-13,-12,7,5,-13,5,-7,-11,-15,-17,-14
0,-12,-12,6,6,-12,6,-6,-10,-13,-16,-13
2,-9,-12,3,7,-10,5,-5,-9,-12,-15,-13
4,-7,-11,1,8,-9,5,-5,-9,-12,-14,-12
5,-4,-10,0,7,-7,5,-4,-7,-11,-14,-11
5,-2,-9,-1,7,-5,6,-3,-6,-10,-13,-10
5,-3,-9,-1,8,-6,6,-4,-6,-10,-13,-10
5,-5,-11,0,8,-8,7,-5,-6,-10,-13,-11
5,-7,-12,0,9,-10,7,-6,-7,-11,-13,-11
6,-8,-13,0,9,-10,6,-7,-7,-11,-14,-12
6,-7,-14,0,10,-10,5,-8,-8,-12,-14,-12
8,-6,-14,-1,11,-10,5,-9,-8,-12,-13,-12
9,-4,-13,-2,11,-9,4,-8,-7,-11,-12,-12
8,-3,-11,-2,10,-7,4,-8,-7,-11,-12,-11
9,-1,-10,-4,10,-6,3,-9,-7,-11,-12,-12
9,0,-9,-5,9,-4,1,-11,-8,-12,-13,-13
7,0,-7,-4,7,-3,0,-12,-8,-13,-14,-14
4,-3,-7,0,6,-5,-2,-12,-8,-13,-14,-15
3,-8,-10,2,7,-9,-3,-12,-9,-14,-15,-16
3,-10,-12,3,8,-11,-4,-12,-9,-14,-14,-15
3,-9,-12,3,8,-11,-3,-11,-8,-13,-13,-14
3,-8,-12,2,7,-10,-2,-10,-8,-12,-12,-13
4,-8,-12,2,8,-10,-1,-10,-7,-12,-12,-12
5,-8,-13,1,9,-11,0,-9,-7,-11,-11,-11
7,-6,-14,0,10,-10,0,-9,-6,-11,-11,-11
9,-4,-14,-2,12,-9,1,-9,-6,-11,-11,-11
11,-3,-15,-4,13,-9,1,-10,-6,-11,-11,-11
12,-2,-14,-5,13,-8,2,-10,-5,-11,-11,-12
10,-1,-11,-4,11,-6,3,-10,-5,-10,-10,-11
9,-2,-11,-3,10,-6,3,-10,-5,-10,-10,-11
8,-3,-11,-2,10,-8,0,-11,-6,-11,-10,-12
7,-3,-11,-1,10,-7,-1,-12,-7,-12,-11,-12
9,-1,-10,-3,10,-5,-2,-12,-6,-11,-9,-11
12,2,-10,-6,11,-3,-2,-11,-4,-9,-7,-9
13,3,-11,-7,12,-3,-2,-10,-3,-8,-6,-8
15,1,-14,-8,14,-6,-2,-10,-3,-8,-5,-8
17,1,-16,-9,17,-7,-2,-10,-3,-8,-5,-8
18,3,-16,-10,18,-6,-2,-9,-2,-7,-4,-8
19,4,-15,-11,17,-5,-1,-9,-1,-6,-4,-8
19,5,-14,-12,17,-4,0,-8,-1,-6,-4,-8
19,6,-14,-12,17,-3,0,-8,-1,-7,-5,-9
19,4,-15,-11,17,-5,0,-8,-1,-7,-5,-9
16,1,-16,-8,16,-7,0,-8,-1,-6,-4,-8
16,-1,-17,-7,17,-9,0,-8,0,-6,-4,-8
18,-1,-19,-8,18,-10,-1,-8,0,-5,-3,-8
17,-1,-19,-8,18,-10,-1,-7,0,-5,-3,-7
16,-2,-18,-7,17,-10,-1,-7,0,-4,-3,-7
17,-1,-18,-8,17,-10,-2,-7,0,-4,-3,-7
17,0,-18,-8,18,-9,-3,-7,0,-4,-3,-7
15,-2,-18,-6,17,-9,-5,-7,0,-5,-3,-7
13,-3,-16,-5,15,-9,-6,-7,0,-6,-4,-7
14,-2,-16,-6,16,-9,-6,-6,0,-6,-4,-8
16,-1,-17,-7,17,-9,-7,-6,0,-6,-4,-8
16,-1,-18,-8,17,-9,-7,-6,-1,-6,-4,-9
16,-2,-19,-7,18,-10,-8,-6,-2,-7,-5,-9
17,-3,-20,-7,18,-11,-8,-7,-3,-8,-5,-10
17,-3,-19,-7,18,-11,-7,-7,-4,-8,-4,-9
15,-3,-18,-6,17,-10,-4,-6,-4,-7,-3,-8
14,-4,-18,-5,17,-11,-3,-5,-5,-7,-2,-7
14,-5,-19,-4,17,-12,-3,-6,-6,-8,-4,-8
13,-5,-18,-4,15,-11,-3,-6,-6,-9,-5,-10
12,-4,-16,-3,14,-10,-2,-6,-6,-10,-6,-11
12,-5,-16,-3,14,-11,-1,-6,-7,-11,-7,-12
13,-6,-18,-3,16,-12,-2,-7,-8,-12,-9,-14
15,-6,-21,-4,18,-13,-3,-8,-10,-13,-10,-15
17,-6,-23,-4,20,-14,-3,-9,-10,-14,-11,-15
19,-6,-26,-5,22,-16,-3,-9,-9,-13,-10,-14
19,-7,-27,-6,23,-16,-3,-8,-8,-12,-9,-13
17,-9,-26,-4,21,-17,-3,-9,-9,-12,-9,-12
11,-11,-22,0,17,-17,-3,-9,-9,-12,-9,-12
6,-11,-17,2,12,-15,-3,-9,-8,-12,-9,-11
5,-11,-16,3,11,-14,-3,-9,-8,-11,-9,-12
7,-11,-18,2,13,-15,-3,-8,-8,-11,-9,-12
9,-9,-18,0,14,-13,-2,-7,-7,-10,-7,-11
11,-7,-18,-1,15,-12,-1,-5,-6,-9,-6,-10
12,-6,-19,-2,15,-12,-1,-5,-6,-10,-6,-10
10,-7,-18,-1,14,-12,-2,-6,-7,-11,-7,-11
8,-8,-17,0,12,-13,-2,-6,-8,-11,-7,-11
7,-9,-17,1,12,-14,-2,-6,-8,-12,-8,-11
7,-11,-19,2,14,-16,-2,-6,-8,-12,-8,-12
6,-14,-21,4,14,-18,-3,-6,-8,-13,-9,-13
6,-14,-21,4,14,-17,-3,-6,-8,-12,-8,-13
8,-12,-21,2,14,-16,-2,-6,-7,-11,-7,-12
9,-10,-20,1,14,-15,-1,-5,-7,-10,-6,-11
9,-8,-19,0,14,-14,0,-5,-6,-10,-6,-10
10,-6,-18,-1,13,-12,0,-5,-6,-11,-6,-10
11,-5,-16,-3,13,-11,1,-5,-5,-10,-6,-10
11,-4,-16,-3,14,-10,0,-5,-5,-10,-6,-10
11,-6,-17,-2,14,-11,0,-6,-6,-10,-6,-11
7,-8,-16,0,12,-12,0,-6,-6,-10,-6,-11
5,-9,-15,2,10,-11,1,-6,-5,-9,-5,-11
7,-8,-16,1,12,-12,1,-6,-5,-10,-6,-12
9,-8,-18,0,13,-12,1,-6,-6,-10,-7,-13
9,-7,-18,0,13,-12,1,-6,-6,-11,-7,-13
9,-7,-16,0,12,-11,1,-6,-6,-11,-7,-12
8,-6,-14,0,11,-10,1,-6,-6,-10,-7,-12
8,-5,-13,-1,11,-9,0,-6,-6,-10,-7,-12
9,-3,-12,-2,11,-8,0,-6,-5,-10,-7,-12
8,-3,-11,-2,10,-7,0,-7,-5,-10,-7,-12
7,-3,-11,-1,9,-7,0,-8,-6,-10,-7,-12
6,-4,-11,0,8,-7,-1,-9,-6,-10,-7,-12
5,-4,-10,0,7,-7,-1,-9,-6,-10,-6,-12
2,-4,-7,1,4,-5,-1,-9,-5,-10,-6,-12
0,-4,-4,2,1,-4,-1,-9,-5,-10,-6,-12
-2,-5,-2,3,0,-4,-1,-9,-6,-11,-7,-12
-4,-8,-3,6,0,-6,-1,-9,-7,-12,-7,-13
-5,-11,-5,8,0,-8,-1,-10,-8,-12,-8,-14
-4,-12,-7,8,0,-9,0,-10,-8,-12,-7,-14
-1,-10,-8,6,3,-9,0,-10,-7,-12,-7,-13
2,-6,-9,3,5,-8,0,-11,-7,-11,-7,-13
3,-3,-7,0,5,-6,1,-11,-7,-11,-6,-13
4,-2,-6,-1,5,-4,1,-11,-6,-10,-6,-13
4,-2,-7,-1,5,-5,1,-11,-6,-10,-6,-13
2,-6,-8,1,5,-7,0,-12,-7,-11,-7,-14
-1,-10,-8,5,4,-9,-2,-13,-7,-12,-8,-15
-1,-11,-9,6,4,-10,-3,-14,-7,-12,-9,-16
1,-9,-10,4,6,-9,-3,-13,-6,-11,-8,-15
3,-8,-11,2,7,-9,-2,-13,-5,-9,-6,-14
4,-7,-12,1,8,-9,-2,-13,-4,-9,-6,-13
6,-6,-12,0,9,-9,-3,-13,-4,-9,-6,-12
6,-4,-11,-1,9,-7,-4,-13,-4,-9,-5,-12
7,-2,-10,-2,9,-6,-4,-14,-4,-9,-5,-12
8,-2,-10,-3,10,-5,-5,-14,-4,-9,-5,-12
8,-2,-10,-3,9,-5,-5,-14,-3,-9,-5,-12
8,-2,-10,-2,9,-5,-4,-13,-3,-8,-4,-12
9,-1,-10,-3,9,-5,-3,-14,-3,-9,-5,-12
9,0,-9,-3,9,-5,-3,-14,-4,-9,-6,-13
8,0,-8,-3,9,-5,-2,-13,-3,-9,-6,-13
7,-1,-8,-3,8,-5,-1,-13,-2,-9,-6,-14
6,1,-6,-3,6,-2,0,-11,0,-7,-6,-15
6,5,-1,-5,4,2,3,-8,4,-3,-5,-15
4,9,4,-6,0,7,4,-5,10,3,-2,-14
2,11,9,-6,-3,11,5,-2,17,10,2,-11
0,13,13,-6,-6,13,6,1,24,18,9,-6
1,15,14,-8,-6,14,5,3,30,26,18,0
7,20,13,-14,-2,15,4,3,35,34,29,9
12,24,12,-18,1,17,3,5,40,44,44,23
15,26,12,-21,2,19,3,9,49,58,64,41
16,30,14,-23,1,22,3,14,59,77,90,65
18,37,18,-27,0,28,2,18,70,98,120,92
26,46,20,-36,3,34,-1,21,80,120,151,120
38,59,21,-48,8,40,-6,22,89,142,184,149
48,74,26,-61,11,50,-12,24,97,165,220,181
57,90,32,-74,13,61,-18,24,102,188,258,216
68,106,37,-87,16,71,-26,22,104,208,294,250
79,120,41,-100,19,80,-34,19,102,222,325,282
88,130,42,-109,23,86,-42,15,97,232,350,308
96,138,41,-117,27,90,-50,11,90,236,365,327
106,143,37,-124,34,90,-59,6,80,232,367,333
116,144,28,-129,44,86,-68,-1,67,220,353,324
121,137,16,-129,53,76,-76,-7,54,201,324,300
124,126,1,-125,62,63,-82,-12,39,177,283,266
128,115,-14,-122,72,49,-86,-17,21,145,236,226
130,102,-29,-117,80,36,-88,-23,-1,106,185,184
128,86,-42,-108,85,22,-88,-30,-28,59,130,140
123,66,-57,-95,90,5,-87,-40,-57,8,72,94
116,47,-69,-81,92,-10,-85,-50,-86,-42,15,48
108,31,-77,-69,93,-23,-82,-58,-111,-87,-35,7
100,16,-84,-57,93,-34,-79,-63,-129,-122,-76,-27
93,0,-93,-46,93,-46,-77,-66,-142,-147,-107,-55
86,-13,-99,-36,93,-57,-73,-66,-148,-162,-128,-77
76,-24,-101,-26,89,-63,-67,-65,-148,-168,-139,-91
64,-33,-98,-16,81,-65,-61,-61,-141,-165,-140,-96
52,-37,-90,-8,71,-63,-55,-55,-128,-153,-132,-93
45,-33,-78,-6,61,-56,-47,-47,-111,-136,-119,-86
39,-27,-65,-6,52,-46,-39,-40,-93,-118,-104,-77
32,-23,-55,-4,44,-40,-32,-34,-80,-103,-92,-69
26,-24,-49,-1,39,-37,-27,-30,-70,-91,-83,-65
22,-25,-46,1,35,-36,-22,-26,-61,-82,-75,-61
19,-25,-44,2,31,-35,-19,-22,-53,-73,-67,-56
17,-23,-41,2,29,-32,-16,-18,-45,-64,-60,-52
15,-22,-38,2,27,-30,-14,-14,-38,-57,-53,-48
12,-21,-34,4,23,-27,-11,-11,-32,-50,-47,-44
10,-19,-29,4,20,-24,-8,-9,-27,-43,-42,-40
8,-17,-23,5,16,-20,-6,-7,-22,-38,-37,-37
6,-15,-19,4,14,-17,-4,-6,-19,-33,-32,-35
6,-12,-17,3,13,-15,-3,-6,-16,-29,-29,-33
7,-9,-15,1,12,-12,-3,-6,-15,-27,-26,-31
6,-8,-14,0,10,-11,-2,-7,-14,-25,-24,-30
3,-8,-13,1,8,-10,0,-7,-12,-23,-22,-28
1,-8,-11,2,6,-9,2,-6,-10,-21,-20,-26
0,-8,-9,3,5,-8,3,-4,-6,-18,-17,-24
0,-8,-8,3,4,-8,4,-3,-4,-15,-14,-23
0,-9,-7,4,4,-8,4,-2,-2,-14,-13,-23
-2,-10,-7,6,2,-8,4,-2,-1,-13,-12,-23
-5,-10,-5,7,0,-8,4,-1,-1,-12,-11,-23
-7,-9,-3,8,-2,-7,4,0,0,-11,-10,-22
-5,-8,-4,7,-1,-7,4,0,0,-10,-10,-22
-2,-7,-6,5,1,-7,4,0,0,-10,-10,-22
-1,-7,-7,4,3,-7,3,0,1,-10,-10,-22
-1,-7,-7,4,3,-7,3,0,2,-9,-9,-22
-1,-8,-6,5,3,-7,3,0,3,-9,-9,-22
-1,-8,-6,5,3,-7,3,-1,4,-8,-8,-22
-1,-8,-6,5,2,-7,4,-2,4,-8,-7,-21
-1,-9,-7,5,3,-8,5,-3,4,-8,-6,-20
0,-9,-9,5,4,-10,6,-4,4,-8,-6,-20
0,-9,-9,4,4,-9,7,-5,4,-8,-6,-19
0,-8,-9,3,4,-8,7,-6,5,-8,-6,-19
0,-7,-8,3,4,-7,7,-7,5,-8,-6,-19
-1,-7,-6,4,2,-7,7,-8,5,-8,-6,-20
-1,-6,-5,4,2,-6,6,-9,5,-8,-6,-20
1,-5,-6,2,4,-6,5,-9,5,-7,-5,-20
2,-5,-8,1,5,-7,5,-9,6,-7,-4,-19
2,-6,-8,2,4,-7,4,-9,6,-6,-4,-18
1,-6,-9,2,4,-7,4,-9,7,-6,-4,-18
1,-7,-9,2,5,-8,4,-8,7,-5,-4,-18
1,-7,-10,3,5,-8,5,-8,7,-5,-4,-18
1,-7,-9,3,5,-8,6,-8,7,-4,-4,-17
1,-7,-9,2,5,-8,7,-8,7,-4,-4,-17
3,-7,-9,1,6,-8,8,-8,5,-5,-4,-18
4,-7,-10,1,7,-9,8,-8,4,-5,-4,-18
4,-7,-11,1,7,-9,9,-7,4,-5,-4,-18
2,-8,-11,2,7,-9,9,-6,4,-5,-5,-18
1,-8,-10,3,5,-8,8,-6,3,-6,-5,-18
0,-8,-9,3,5,-8,8,-5,3,-5,-5,-18
0,-8,-8,4,4,-8,8,-4,3,-5,-5,-18
-1,-9,-8,5,3,-8,8,-3,3,-4,-5,-18
-2,-10,-8,6,2,-8,9,-2,3,-4,-5,-18
-1,-10,-9,6,3,-9,11,0,3,-3,-4,-17
0,-10,-11,5,6,-10,11,0,2,-3,-4,-17
1,-11,-12,5,7,-11,11,0,2,-3,-5,-17
-1,-12,-11,6,5,-11,11,1,2,-3,-4,-17
-2,-13,-11,7,4,-11,11,3,2,-2,-4,-16
-1,-12,-11,6,5,-12,11,4,3,-1,-3,-16
-1,-11,-11,6,5,-11,10,4,3,-1,-3,-16
-2,-11,-8,7,3,-10,9,3,2,-1,-3,-16
-2,-10,-7,6,2,-8,8,3,1,-2,-4,-17
1,-7,-8,3,4,-7,7,2,1,-2,-5,-18
6,-3,-9,-1,8,-6,6,2,0,-3,-5,-18
7,-2,-10,-2,9,-6,6,2,0,-3,-6,-18
6,-2,-9,-1,8,-6,5,3,0,-3,-6,-18
3,-3,-7,0,6,-5,5,3,1,-2,-6,-18
3,-3,-7,0,6,-5,5,3,1,-2,-6,-17
4,-5,-10,0,8,-8,4,3,1,-2,-6,-17
3,-9,-11,2,7,-10,5,3,1,-1,-5,-17
0,-11,-11,5,6,-11,6,3,1,-1,-5,-17
-1,-11,-10,5,5,-10,6,3,2,-1,-4,-16
-1,-9,-9,4,4,-9,6,4,2,0,-4,-15
0,-8,-9,3,5,-9,7,4,2,0,-3,-15
0,-9,-10,3,6,-9,6,4,2,0,-3,-15
-1,-9,-8,4,4,-8,6,3,2,0,-4,-15
-1,-8,-6,4,3,-7,5,2,1,0,-4,-16
0,-9,-8,4,5,-8,5,2,1,-1,-4,-16
2,-9,-10,3,6,-9,6,3,2,0,-4,-16
-1,-9,-6,5,2,-7,7,4,3,0,-3,-15
-6,-9,-3,7,-1,-6,7,4,3,0,-3,-15
-7,-10,-4,9,-1,-7,6,3,2,0,-3,-16
-6,-10,-5,8,0,-7,5,3,2,0,-3,-16
-5,-9,-5,7,0,-7,5,4,2,0,-3,-15
-4,-9,-5,7,1,-7,5,4,3,0,-3,-15
-4,-10,-5,7,1,-8,5,5,3,1,-3,-15
-4,-9,-4,7,0,-7,5,5,4,0,-3,-14
-4,-8,-3,6,-1,-5,5,5,3,0,-3,-15
-4,-7,-3,5,0,-5,5,5,3,0,-3,-15
-3,-6,-3,5,0,-5,6,6,3,0,-3,-15
-3,-5,-2,4,0,-4,7,7,4,1,-2,-14
-2,-3,0,3,-1,-2,8,9,6,3,-1,-13
-3,-2,1,2,-2,0,9,10,7,4,0,-12
-2,-2,1,2,-1,-1,7,10,7,4,0,-12
-2,-4,0,3,0,-2,5,10,7,3,0,-12
-4,-6,0,5,-2,-3,5,10,7,3,0,-12
-6,-8,-1,6,-2,-4,4,10,6,2,-1,-12
-5,-8,-3,6,-1,-5,4,10,6,2,-1,-12
-3,-7,-5,5,1,-6,5,10,6,2,-1,-12
0,-7,-7,3,3,-7,5,9,6,2,-1,-13
1,-6,-7,2,4,-7,5,9,6,2,-2,-13
0,-6,-5,2,3,-6,5,9,6,2,-1,-13
-2,-6,-3,3,0,-5,5,10,6,3,0,-12
-2,-6,-2,3,0,-4,6,11,7,4,0,-11
-1,-4,-2,2,0,-3,6,12,8,5,1,-10
0,-2,-1,1,0,-1,6,12,9,5,2,-10
1,0,-1,-1,1,0,6,13,9,6,3,-9
2,1,-1,-2,2,0,7,13,9,6,3,-9
2,1,-2,-2,2,0,8,13,9,6,3,-9
3,0,-3,-2,3,-1,8,13,8,6,3,-9
3,0,-3,-2,3,-1,8,14,8,6,3,-9
4,0,-3,-3,3,0,7,14,7,5,2,-9
3,1,-2,-2,2,0,7,14,6,5,2,-9
2,1,-1,-2,1,0,7,14,6,5,1,-9
2,2,-1,-2,2,0,6,14,5,4,1,-9
5,4,-1,-4,3,0,6,14,5,4,2,-8
8,6,-2,-7,5,1,5,14,6,5,3,-7
9,7,-2,-8,6,2,4,14,6,5,3,-6
7,7,0,-7,4,2,3,12,5,4,2,-6
6,6,0,-7,3,3,2,11,5,5,3,-5
9,6,-3,-8,6,2,1,11,5,5,3,-4
12,7,-5,-9,8,1,1,10,4,5,4,-4
11,7,-4,-9,7,2,1,10,4,4,4,-5
9,7,-2,-7,5,2,1,9,3,3,3,-6
9,6,-2,-7,5,2,0,7,2,2,2,-7
10,6,-3,-8,6,2,0,5,1,1,1,-8
9,6,-2,-8,6,2,0,4,0,0,0,-8
9,6,-2,-8,6,2,0,3,0,0,0,-8
10,7,-3,-9,7,2,0,2,0,0,0,-7
10,9,-1,-10,6,3,0,1,0,0,0,-6
9,10,0,-9,4,5,0,1,0,0,1,-6
8,8,0,-8,4,3,-1,0,-2,-1,0,-6
10,6,-3,-8,6,1,-2,-2,-4,-3,-1,-7
10,4,-5,-7,8,-1,-2,-3,-4,-3,-1,-7
10,2,-7,-6,8,-2,-2,-4,-5,-4,-1,-7
10,1,-8,-6,9,-3,-2,-4,-6,-4,-1,-7
11,2,-8,-7,9,-3,-1,-4,-6,-4,-1,-7
11,2,-8,-7,10,-3,-1,-4,-5,-4,-1,-7
10,2,-8,-6,9,-3,0,-3,-5,-3,0,-7
8,1,-6,-5,7,-2,0,-2,-4,-3,0,-7
7,2,-5,-5,6,-1,0,-3,-5,-3,-1,-7
10,4,-6,-7,8,-1,-2,-4,-6,-5,-2,-7
12,5,-6,-9,9,0,-3,-6,-8,-6,-3,-8
10,5,-5,-8,8,0,-3,-7,-9,-7,-3,-8
9,4,-4,-7,7,0,-2,-6,-9,-7,-2,-7
7,3,-3,-6,6,0,-2,-6,-9,-7,-2,-7
5,3,-3,-4,5,0,-2,-6,-10,-8,-3,-7
4,2,-2,-3,3,0,-3,-6,-11,-8,-3,-8
1,1,-1,-1,1,0,-4,-6,-10,-8,-3,-7
2,1,-1,-2,2,0,-4,-5,-9,-8,-3,-7
7,2,-3,-5,5,0,-4,-5,-9,-8,-3,-6
10,3,-6,-7,8,-1,-4,-5,-9,-9,-4,-6
11,4,-5,-8,8,-1,-4,-4,-9,-8,-3,-6
12,6,-4,-9,8,0,-2,-3,-8,-7,-2,-4
12,8,-4,-10,8,1,-1,-2,-7,-6,0,-3
12,7,-5,-9,9,1,-1,-2,-7,-6,0,-2
12,5,-7,-9,10,0,-1,-2,-7,-6,0,-2
11,4,-7,-7,9,-1,-1,-1,-6,-6,0,-2
10,4,-6,-6,8,-1,0,-1,-6,-6,0,-1
10,4,-5,-7,8,-1,0,-2,-7,-7,-1,-1
9,3,-4,-6,7,-1,-1,-3,-8,-8,-2,-2
8,3,-4,-6,6,-1,-2,-4,-9,-9,-2,-3
6,2,-3,-4,6,-1,-2,-5,-10,-10,-3,-4
