leadI,leadII,leadIII,leadaVR,leadaVL,leadaVF,leadV1,leadV2,leadV3,leadV4,leadV5,leadV6
-2,0,2,1,-2,1,-2,2,-4,-15,-18,2
-9,-3,6,6,-7,1,-7,4,-12,-40,-47,6
-13,-6,7,10,-10,0,-11,4,-18,-55,-66,7
-13,-3,9,8,-11,2,-13,5,-21,-63,-77,7
-12,1,12,5,-12,6,-13,6,-22,-66,-83,7
-12,2,13,5,-13,7,-13,7,-22,-68,-87,7
-13,-1,12,7,-13,5,-15,7,-24,-70,-91,6
-14,-3,11,9,-12,3,-16,6,-24,-71,-95,4
-12,-3,10,8,-11,3,-16,7,-24,-71,-96,3
-7,0,8,3,-7,4,-16,8,-22,-69,-97,2
-2,5,8,-1,-5,6,-14,9,-20,-67,-97,1
-4,5,9,0,-7,6,-14,10,-18,-65,-97,1
-7,2,9,2,-8,5,-14,11,-17,-64,-98,1
-8,2,10,3,-9,6,-12,12,-16,-62,-98,0
-14,0,13,8,-14,7,-11,14,-14,-60,-98,0
-20,-5,15,13,-17,5,-11,14,-13,-59,-99,0
-17,-4,13,11,-15,5,-12,13,-13,-58,-100,0
-12,-2,11,8,-12,4,-13,13,-13,-58,-102,-1
-12,-2,10,7,-11,4,-13,13,-13,-57,-103,-1
-11,0,12,6,-12,5,-13,14,-12,-56,-104,-1
-9,2,11,3,-10,6,-13,13,-12,-55,-105,-1
-7,2,8,3,-8,5,-16,12,-13,-56,-107,-2
-6,1,6,3,-6,4,-17,12,-14,-56,-108,-4
-7,1,7,3,-7,4,-17,13,-14,-55,-109,-4
-10,0,10,5,-10,5,-15,14,-13,-53,-108,-4
-13,0,13,6,-13,6,-14,16,-13,-51,-108,-3
-13,0,13,6,-13,6,-13,17,-13,-49,-108,-1
-11,0,12,5,-11,5,-14,17,-14,-48,-108,0
-8,0,7,4,-8,3,-14,17,-15,-48,-109,0
-5,-1,2,3,-3,1,-15,17,-15,-48,-110,0
0,0,-1,1,0,0,-16,17,-16,-48,-110,1
4,3,-2,-3,3,1,-16,17,-16,-47,-111,1
4,5,0,-4,1,3,-15,18,-15,-46,-110,2
-3,3,5,0,-4,3,-14,19,-15,-45,-110,4
-8,-1,7,5,-8,2,-14,19,-15,-44,-111,5
-5,-1,4,3,-5,0,-14,20,-15,-43,-111,6
1,1,0,-1,0,0,-15,20,-15,-43,-112,6
3,2,-1,-3,2,0,-15,20,-14,-42,-112,7
-1,1,2,0,-1,2,-14,21,-13,-41,-112,7
-7,-2,4,5,-5,0,-15,20,-13,-40,-113,8
-9,-6,2,8,-5,-3,-17,19,-14,-41,-115,8
-6,-7,-1,7,-2,-5,-19,18,-16,-42,-116,7
-2,-6,-4,4,1,-6,-21,17,-17,-42,-117,7
3,-1,-4,-1,3,-4,-20,17,-16,-41,-117,8
6,3,-2,-4,4,0,-18,19,-15,-40,-116,9
5,5,0,-4,2,2,-17,20,-14,-39,-115,10
4,6,2,-5,1,4,-16,20,-13,-38,-115,11
2,6,4,-4,0,5,-17,20,-13,-38,-116,11
0,4,4,-1,-2,4,-19,18,-14,-38,-118,11
2,6,3,-4,0,4,-19,18,-14,-38,-119,11
11,12,1,-11,5,6,-18,18,-13,-38,-119,12
17,14,-3,-15,10,4,-20,17,-13,-39,-121,12
15,9,-5,-11,10,1,-23,15,-15,-42,-123,11
9,5,-4,-7,7,0,-23,14,-15,-43,-124,10
7,4,-3,-5,5,0,-22,14,-14,-42,-123,11
6,3,-4,-5,5,0,-22,14,-13,-42,-124,11
5,2,-4,-4,4,0,-23,13,-13,-43,-125,12
5,3,-3,-4,4,0,-23,12,-13,-43,-126,12
4,4,0,-4,2,1,-23,11,-13,-44,-127,12
1,4,4,-3,-1,3,-23,11,-13,-45,-128,12
0,4,6,-2,-3,5,-23,10,-13,-47,-129,12
0,5,5,-3,-2,5,-23,9,-14,-48,-130,12
2,5,2,-4,0,4,-23,7,-14,-49,-131,11
1,4,2,-2,0,3,-23,6,-14,-49,-132,11
-3,3,5,0,-4,5,-23,5,-13,-49,-133,11
-4,4,7,0,-5,5,-23,6,-12,-48,-132,12
0,4,4,-1,-2,3,-22,5,-12,-48,-133,12
2,3,1,-2,1,1,-22,1,-12,-49,-139,10
2,1,0,-1,1,0,-22,-6,-13,-50,-150,4
1,0,0,-1,0,0,-20,-13,-13,-50,-161,0
-1,1,2,0,-2,2,-18,-19,-11,-50,-170,-2
-5,1,6,2,-6,4,-17,-22,-9,-49,-174,0
-7,0,6,4,-7,3,-17,-22,-6,-49,-173,4
-6,0,5,3,-5,3,-17,-19,-3,-49,-168,10
-6,0,5,4,-5,2,-18,-14,0,-48,-159,18
-9,-4,5,7,-7,0,-19,-7,2,-48,-150,25
-12,-4,8,9,-9,1,-19,0,5,-47,-140,33
-14,-2,12,9,-13,5,-19,6,7,-46,-131,39
-15,1,17,8,-16,9,-17,12,9,-45,-126,42
-13,3,16,6,-15,10,-16,15,11,-44,-124,44
-7,3,10,3,-8,7,-15,16,11,-44,-125,45
-3,3,6,1,-4,5,-15,17,12,-44,-127,46
-8,1,8,4,-8,5,-14,17,13,-44,-129,47
-15,-3,11,10,-12,3,-15,17,13,-44,-132,48
-15,-5,9,11,-12,1,-16,17,13,-45,-133,50
-11,-3,8,7,-9,2,-16,19,13,-45,-133,52
-9,0,10,4,-10,5,-14,23,15,-44,-130,55
-7,3,12,2,-10,8,-13,27,16,-43,-128,58
-5,5,11,0,-9,8,-12,29,17,-42,-127,60
-6,3,8,2,-8,6,-13,30,17,-43,-128,61
-10,-2,7,7,-9,2,-15,29,15,-45,-131,60
-14,-6,7,11,-10,0,-17,28,14,-47,-133,59
-14,-7,7,11,-11,0,-17,28,14,-48,-136,59
-13,-7,7,10,-10,0,-17,28,14,-49,-138,58
-14,-8,6,11,-10,-1,-17,27,13,-50,-140,57
-16,-12,5,14,-11,-3,-18,26,13,-52,-142,56
-19,-14,6,17,-13,-4,-18,25,13,-52,-143,54
-19,-11,8,15,-13,-1,-17,26,14,-52,-144,54
-18,-7,10,13,-14,1,-16,26,15,-51,-145,54
-18,-6,11,13,-14,2,-16,26,15,-50,-146,54
-14,-2,11,8,-12,3,-16,25,15,-50,-148,53
-7,2,10,3,-8,5,-16,24,15,-50,-149,53
-6,1,9,2,-7,4,-16,24,15,-50,-150,53
-8,-2,7,5,-8,2,-17,22,13,-51,-152,52
-8,-3,6,5,-7,1,-17,21,11,-52,-154,50
-9,-3,7,6,-8,2,-16,21,11,-51,-155,49
-15,-5,9,9,-12,2,-15,21,10,-50,-155,49
-19,-7,10,13,-14,1,-14,20,9,-50,-156,48
-20,-11,7,16,-13,-2,-15,17,7,-51,-160,47
-22,-15,6,18,-14,-5,-17,15,5,-53,-163,45
-22,-13,10,17,-16,-1,-15,15,5,-52,-162,45
-20,-7,14,13,-17,3,-12,16,6,-50,-159,45
-18,-6,14,12,-16,4,-11,16,6,-50,-158,45
-16,-6,11,11,-13,2,-12,14,5,-51,-157,43
-16,-6,10,11,-12,2,-13,12,4,-52,-157,41
-17,-6,10,12,-13,2,-14,10,3,-53,-157,39
-17,-5,11,11,-13,2,-15,8,4,-54,-155,38
-15,-2,12,9,-13,4,-15,8,5,-54,-153,37
-11,0,11,6,-11,5,-15,7,6,-55,-151,37
-6,1,8,3,-7,4,-16,5,7,-56,-150,35
-8,-3,6,6,-8,1,-17,4,7,-58,-149,34
-16,-10,6,14,-12,-2,-16,4,8,-57,-146,33
-19,-11,7,16,-13,-2,-13,5,10,-55,-142,33
-16,-7,8,12,-12,0,-10,6,12,-53,-139,33
-15,-5,8,10,-11,0,-10,5,13,-53,-137,33
-14,-7,6,11,-10,-1,-11,3,11,-55,-136,32
-13,-11,2,12,-8,-5,-14,0,9,-57,-135,31
-14,-14,1,14,-8,-7,-16,-1,7,-59,-134,29
-18,-13,6,15,-12,-3,-15,-2,6,-58,-132,28
-18,-7,12,12,-15,3,-12,0,6,-56,-127,29
-18,-3,14,11,-16,6,-10,0,6,-54,-124,29
-21,-5,15,14,-18,5,-11,-1,4,-55,-123,29
-23,-7,15,15,-18,4,-11,-2,3,-55,-121,29
-21,-6,14,14,-17,3,-10,-1,2,-54,-119,29
-19,-6,13,12,-16,3,-10,-1,0,-54,-117,29
-15,-7,8,11,-12,0,-11,-2,-1,-55,-116,29
-11,-8,3,10,-8,-3,-12,-3,-3,-56,-115,28
-14,-10,4,13,-10,-3,-12,-3,-4,-56,-114,27
-20,-11,8,16,-14,-1,-11,-3,-5,-56,-112,27
-21,-10,9,16,-14,0,-11,-3,-6,-56,-110,26
-19,-9,8,14,-12,0,-11,-3,-6,-56,-109,25
-18,-9,8,14,-12,-1,-12,-4,-7,-56,-107,25
-19,-10,9,14,-13,0,-12,-3,-7,-56,-105,24
-18,-8,11,13,-14,1,-11,-2,-6,-54,-103,25
-17,-6,11,12,-14,2,-10,-2,-5,-53,-100,25
-16,-5,11,11,-14,3,-10,-2,-5,-52,-99,24
-14,-3,10,9,-12,3,-10,-3,-5,-52,-98,24
-14,-2,10,9,-12,4,-10,-3,-5,-52,-96,23
-18,-4,12,12,-15,3,-10,-3,-4,-52,-95,23
-18,-4,13,11,-15,4,-10,-3,-4,-52,-94,23
-10,-1,9,6,-9,4,-10,-3,-3,-52,-92,23
-5,0,5,3,-5,2,-10,-3,-2,-52,-90,23
-5,-3,3,4,-4,0,-10,-3,-2,-51,-88,23
-8,-7,3,8,-6,-2,-13,-4,-3,-52,-88,21
-12,-5,8,9,-10,1,-12,-4,-3,-51,-85,21
-16,0,16,8,-16,8,-9,-3,-1,-48,-82,21
-20,0,18,11,-19,8,-9,-3,0,-48,-80,21
-20,-4,14,12,-17,4,-10,-3,0,-48,-79,21
-14,-2,11,8,-12,4,-10,-3,0,-47,-77,21
-8,0,9,3,-9,4,-9,-2,0,-47,-74,21
-7,0,8,3,-8,4,-9,-2,0,-46,-72,21
-6,0,7,2,-7,3,-9,-2,1,-46,-70,20
-5,0,6,2,-6,3,-10,-3,1,-45,-68,19
-9,-1,7,5,-8,3,-10,-3,1,-45,-66,19
-13,-1,11,7,-11,4,-8,-1,3,-43,-63,20
-13,1,13,6,-13,7,-6,0,5,-41,-60,21
-12,2,14,5,-13,8,-6,0,6,-41,-58,22
-12,3,15,4,-13,9,-6,0,6,-41,-56,23
-13,3,16,5,-15,10,-6,0,7,-40,-54,23
-13,3,17,5,-16,11,-6,0,8,-40,-52,23
-14,2,17,6,-16,10,-7,0,7,-40,-51,23
-18,-1,16,10,-16,7,-8,-1,6,-40,-50,22
-17,-1,15,9,-15,7,-8,-2,6,-40,-48,22
-9,5,14,2,-10,9,-7,-1,7,-39,-46,22
0,11,10,-5,-4,10,-6,-1,8,-38,-44,22
1,11,10,-6,-4,10,-6,-1,8,-38,-43,21
-5,8,15,-2,-10,11,-6,0,8,-38,-42,21
-12,4,18,4,-16,11,-6,0,8,-37,-40,21
-16,1,19,7,-18,10,-6,0,7,-37,-39,20
-16,1,18,8,-17,9,-7,-1,6,-37,-38,20
-12,3,16,5,-13,9,-8,-2,5,-37,-36,20
-6,6,13,0,-9,9,-8,-2,4,-37,-35,20
-6,6,12,0,-9,8,-9,-3,2,-38,-35,19
-11,4,15,3,-12,9,-10,-4,1,-38,-34,18
-13,3,17,4,-15,10,-11,-5,1,-38,-33,18
-10,5,16,2,-13,10,-11,-5,1,-37,-30,18
-9,7,17,0,-13,12,-10,-4,1,-35,-28,19
-12,9,21,1,-17,15,-10,-4,2,-34,-25,20
-13,10,23,2,-18,16,-10,-4,2,-33,-24,20
-12,10,22,2,-17,16,-13,-6,1,-34,-23,20
-11,12,23,0,-16,17,-15,-8,0,-34,-23,19
-6,17,24,-5,-15,20,-15,-7,0,-34,-21,19
-4,19,24,-7,-14,21,-15,-7,0,-33,-19,19
-7,15,23,-4,-15,19,-15,-7,0,-33,-18,19
-6,14,21,-3,-14,17,-15,-7,0,-33,-16,19
-2,16,18,-7,-11,17,-15,-8,-1,-33,-15,19
0,17,18,-8,-9,18,-15,-8,-1,-32,-13,20
0,16,15,-8,-7,16,-15,-8,-1,-32,-12,20
2,14,11,-8,-4,13,-17,-9,-2,-32,-12,20
4,14,11,-9,-3,12,-17,-9,-2,-32,-11,19
0,16,17,-7,-9,16,-15,-8,-2,-31,-9,20
-12,14,25,-1,-19,19,-13,-7,-1,-30,-6,21
-18,8,26,5,-22,17,-14,-8,-3,-31,-6,21
-18,4,22,7,-20,13,-16,-10,-5,-33,-6,20
-18,3,21,8,-19,12,-17,-11,-6,-34,-6,19
-16,4,20,6,-18,12,-16,-11,-6,-34,-5,19
-10,8,18,1,-14,13,-13,-10,-5,-33,-4,19
-5,10,15,-2,-9,12,-12,-10,-5,-33,-3,20
-4,9,13,-2,-8,11,-12,-10,-5,-34,-2,19
-8,5,13,2,-11,9,-11,-10,-6,-35,-2,18
-13,0,13,6,-13,6,-10,-10,-6,-36,-1,17
-13,0,12,7,-13,6,-10,-11,-7,-36,-1,16
-12,0,12,6,-12,5,-9,-11,-6,-36,0,16
-13,-4,9,9,-11,1,-9,-11,-7,-37,0,15
-11,-9,2,10,-7,-4,-12,-14,-8,-39,0,13
-5,-9,-3,7,-2,-6,-13,-15,-9,-40,-1,12
-6,-8,-2,7,-2,-5,-11,-15,-9,-39,0,11
-9,-6,2,8,-7,-2,-9,-13,-8,-37,2,11
-10,-4,5,7,-8,0,-8,-13,-8,-37,2,11
-11,-7,4,8,-7,-1,-9,-14,-9,-37,2,11
-13,-9,5,11,-9,-2,-10,-15,-9,-38,3,10
-16,-7,9,11,-12,0,-9,-14,-8,-37,4,10
-16,-6,10,11,-13,2,-8,-14,-8,-36,6,10
-14,-5,9,10,-12,2,-7,-14,-8,-35,7,10
-14,-5,8,10,-11,1,-7,-14,-7,-34,7,10
-17,-10,7,14,-12,-1,-8,-15,-8,-35,7,9
-20,-15,5,18,-13,-5,-9,-16,-9,-35,6,8
-16,-14,3,15,-10,-5,-8,-15,-8,-34,7,8
-9,-8,1,9,-5,-3,-6,-15,-7,-33,9,8
-8,-4,4,6,-6,0,-5,-15,-6,-32,10,8
-12,-4,8,9,-10,1,-5,-15,-6,-32,11,8
-14,-6,8,10,-11,0,-6,-15,-6,-32,11,7
-11,-6,5,9,-8,-1,-5,-14,-6,-31,12,7
-10,-6,2,8,-7,-2,-3,-14,-5,-29,14,8
-12,-10,0,11,-7,-4,-4,-14,-5,-30,14,8
-10,-13,-3,11,-3,-8,-6,-16,-6,-31,13,7
-5,-13,-8,8,1,-10,-7,-16,-6,-31,14,6
-5,-13,-7,9,1,-10,-7,-16,-5,-31,15,5
-9,-14,-4,12,-2,-10,-6,-15,-5,-30,16,5
-11,-15,-3,13,-4,-10,-7,-16,-5,-31,17,5
-14,-15,-1,15,-7,-9,-8,-17,-6,-31,17,5
-16,-12,3,14,-10,-5,-6,-15,-5,-29,18,5
-17,-10,6,13,-12,-1,-4,-14,-4,-28,20,6
-18,-11,7,14,-13,-1,-4,-14,-4,-28,21,7
-18,-12,7,15,-12,-2,-5,-14,-4,-28,22,7
-16,-12,6,14,-11,-3,-5,-14,-4,-28,23,7
-18,-14,5,16,-12,-4,-5,-14,-4,-27,23,7
-19,-15,5,17,-12,-5,-3,-13,-4,-27,24,7
-16,-14,2,15,-9,-6,0,-11,-3,-28,24,7
-12,-14,-2,13,-6,-8,2,-8,-2,-27,23,7
-13,-13,-1,13,-7,-7,5,-5,0,-25,24,7
-15,-13,1,14,-8,-6,6,-2,2,-23,26,7
-16,-14,1,15,-9,-6,5,0,5,-20,28,7
-18,-17,1,17,-9,-8,3,2,7,-18,30,8
-17,-18,-1,17,-8,-10,1,6,12,-13,34,9
-10,-14,-4,12,-3,-9,1,12,20,-5,39,11
5,-3,-8,0,7,-6,2,21,29,5,47,15
20,7,-14,-13,17,-4,1,28,39,17,56,20
27,14,-13,-20,20,1,0,34,49,29,65,25
31,27,-5,-29,18,11,2,42,61,44,78,32
39,40,1,-40,19,21,3,49,75,60,91,40
47,48,1,-48,22,25,-3,52,87,74,103,48
49,53,4,-51,22,29,-13,51,98,89,116,57
45,57,11,-51,16,34,-25,45,107,101,127,65
43,61,18,-52,12,39,-39,30,108,107,134,72
40,64,24,-52,7,43,-51,8,101,104,136,77
36,63,27,-49,3,45,-58,-16,88,93,131,78
33,56,24,-44,4,40,-61,-38,67,72,119,75
26,43,17,-35,4,30,-63,-57,42,44,100,66
15,27,12,-21,1,20,-64,-75,13,11,78,55
4,16,12,-9,-5,14,-66,-92,-16,-21,58,42
-3,9,13,-2,-9,11,-67,-106,-41,-48,42,31
-9,3,12,4,-11,7,-67,-114,-58,-66,30,22
-18,-5,13,13,-16,3,-66,-118,-67,-76,23,16
-28,-10,17,20,-23,3,-64,-117,-70,-80,20,11
-31,-8,22,20,-27,7,-61,-113,-69,-80,19,9
-30,-7,22,18,-26,8,-55,-106,-65,-78,20,7
-30,-11,18,20,-25,4,-51,-100,-61,-76,21,5
-30,-18,11,24,-21,-3,-50,-94,-58,-75,21,3
-30,-23,6,27,-19,-8,-47,-88,-54,-74,21,0
-31,-23,7,28,-20,-8,-42,-81,-49,-70,23,0
-30,-21,9,27,-20,-6,-36,-72,-43,-64,26,0
-29,-22,8,26,-19,-7,-30,-63,-36,-59,29,0
-29,-25,5,27,-18,-10,-26,-56,-30,-54,31,0
-31,-28,2,29,-17,-13,-21,-50,-25,-50,34,0
-29,-28,2,28,-15,-13,-16,-44,-20,-46,37,1
-22,-20,2,21,-12,-9,-9,-37,-15,-40,41,3
-16,-14,2,15,-9,-6,-4,-31,-10,-35,46,5
-13,-13,0,13,-7,-6,-1,-27,-8,-33,48,6
-13,-13,0,14,-7,-6,0,-25,-7,-31,49,6
-15,-13,2,14,-9,-5,0,-22,-5,-30,49,6
-13,-11,1,12,-8,-5,1,-20,-4,-28,50,7
-10,-10,0,9,-6,-4,2,-18,-3,-26,50,7
-9,-9,0,8,-5,-4,2,-17,-2,-25,50,7
-9,-8,1,7,-5,-3,2,-16,-2,-25,51,7
-10,-7,3,8,-7,-2,4,-15,-1,-24,52,7
-10,-7,4,8,-7,-1,6,-13,0,-22,53,7
-6,-6,1,6,-4,-2,7,-12,0,-20,54,7
0,-5,-4,2,1,-4,5,-12,-1,-20,54,6
2,-6,-9,2,5,-7,3,-13,-3,-21,53,5
1,-9,-10,4,5,-9,1,-13,-4,-21,52,4
-3,-13,-10,8,4,-11,1,-13,-4,-21,52,3
-12,-16,-4,14,-3,-10,3,-11,-2,-19,53,3
-19,-14,4,17,-11,-5,7,-9,0,-16,56,4
-17,-8,9,13,-13,0,10,-7,1,-13,58,5
-14,-5,8,10,-12,1,11,-6,2,-12,59,5
-14,-9,4,13,-10,-2,10,-7,2,-12,59,5
-16,-14,2,16,-10,-5,8,-7,3,-12,59,5
-18,-15,3,17,-11,-5,8,-7,4,-11,59,5
-17,-14,3,15,-10,-5,8,-7,5,-10,61,5
-12,-11,2,11,-7,-4,8,-6,6,-9,62,5
-9,-8,1,9,-5,-3,8,-7,7,-9,62,5
-9,-8,0,8,-4,-4,8,-7,8,-9,63,5
-10,-10,1,10,-6,-5,8,-7,9,-9,64,5
-13,-13,1,14,-7,-6,9,-6,11,-8,65,5
-18,-18,0,18,-9,-9,7,-7,11,-9,65,5
-21,-23,-1,22,-10,-12,6,-7,12,-9,64,4
-17,-21,-3,19,-7,-11,6,-7,13,-9,65,4
-5,-11,-6,8,0,-8,8,-5,14,-7,67,5
4,-3,-7,0,5,-4,10,-4,15,-6,68,6
4,-1,-5,-1,4,-3,10,-4,15,-6,68,6
-1,-4,-4,2,1,-4,9,-4,15,-7,68,6
-7,-9,-2,8,-3,-5,9,-4,14,-7,67,5
-8,-10,-2,9,-3,-5,10,-4,14,-6,68,6
-5,-8,-3,6,-1,-4,11,-2,15,-5,70,6
-4,-6,-2,5,-1,-3,13,-1,16,-3,71,7
-8,-9,0,8,-4,-3,13,-1,15,-3,71,7
-12,-14,-1,12,-5,-7,11,-3,13,-4,70,7
-12,-18,-5,15,-3,-12,8,-5,10,-6,69,5
-10,-21,-10,15,0,-16,6,-6,8,-8,68,4
-7,-18,-11,13,1,-15,6,-5,8,-8,68,3
-3,-12,-9,8,2,-11,8,-4,9,-6,69,3
-2,-6,-5,5,1,-6,10,-2,10,-4,71,4
-8,-6,1,7,-4,-2,12,0,11,-2,72,5
-14,-7,6,10,-9,-1,14,1,12,0,74,6
-11,-6,5,8,-7,0,14,2,13,0,75,6
-9,-5,3,6,-6,-1,12,1,12,-1,74,6
-9,-7,2,8,-6,-3,11,1,12,-2,73,5
-11,-8,3,9,-7,-3,11,1,13,-2,73,4
-10,-8,1,10,-6,-3,11,2,14,-2,73,4
-6,-10,-4,9,-1,-7,10,1,14,-2,73,3
-3,-11,-8,8,2,-9,10,1,15,-2,72,2
-3,-10,-6,7,2,-8,9,1,15,-2,72,1
-7,-11,-3,9,-1,-7,8,1,16,-2,72,1
-8,-12,-3,10,-2,-8,8,1,16,-2,73,0
-6,-10,-4,8,-1,-8,8,2,17,-2,74,0
-4,-8,-3,6,0,-6,10,4,19,-1,75,1
-5,-7,-2,6,-1,-5,10,4,20,0,76,1
-5,-6,-1,6,-1,-4,10,4,20,0,76,1
-3,-6,-2,5,0,-4,10,5,20,0,75,1
-5,-8,-4,7,0,-6,9,5,20,0,75,0
-6,-12,-6,9,0,-9,7,4,19,-1,74,0
-2,-12,-9,7,3,-11,6,4,18,-1,74,-1
0,-9,-9,4,5,-10,7,5,19,0,74,-1
-2,-7,-5,4,2,-7,9,7,21,2,77,0
-3,-5,-3,3,0,-4,12,10,23,4,79,0
-1,-5,-5,3,2,-5,12,11,23,5,79,1
1,-6,-8,2,5,-6,11,11,22,5,79,1
3,-5,-10,1,7,-7,10,11,22,5,79,1
3,-6,-10,1,7,-8,9,11,22,6,79,1
1,-8,-10,3,6,-9,8,11,21,6,79,1
1,-9,-10,4,5,-10,6,10,20,5,78,0
2,-7,-9,2,5,-8,5,10,20,5,78,0
3,-5,-8,0,5,-7,5,10,20,5,78,0
1,-6,-8,2,4,-7,5,10,20,5,78,0
-1,-8,-8,5,3,-8,5,10,20,5,79,0
-1,-10,-9,6,4,-9,5,10,20,5,79,0
3,-8,-10,3,7,-9,6,11,20,6,79,1
5,-6,-10,0,8,-8,7,12,21,8,81,2
4,-6,-9,1,7,-8,7,13,22,10,82,3
5,-6,-11,0,8,-9,6,14,22,10,83,3
7,-6,-14,-1,10,-10,5,14,22,10,83,3
8,-6,-15,-1,11,-11,4,13,21,10,83,3
8,-7,-15,0,11,-11,2,12,21,9,83,3
8,-5,-13,-1,11,-9,2,12,21,10,84,3
11,1,-10,-5,11,-4,4,14,22,11,86,4
9,2,-7,-5,8,-2,5,15,23,13,88,5
6,-1,-6,-2,6,-3,5,15,22,13,88,5
9,-1,-10,-4,10,-6,3,14,21,13,88,5
11,-1,-13,-5,12,-7,1,13,20,12,88,5
7,-4,-11,-1,9,-8,1,13,20,12,88,5
3,-7,-11,2,7,-9,0,13,19,11,87,5
5,-8,-14,2,10,-11,-1,12,18,10,86,4
7,-6,-14,1,11,-10,-2,11,17,9,86,3
4,-4,-9,1,7,-7,-1,12,17,10,86,3
6,-2,-8,-2,8,-5,0,12,18,10,87,3
13,2,-11,-8,13,-4,0,12,18,11,87,4
14,3,-11,-9,12,-4,0,13,18,11,88,4
12,0,-12,-7,12,-5,0,12,18,11,88,4
13,0,-13,-6,13,-7,0,12,19,11,88,4
11,1,-10,-6,11,-4,2,12,20,13,89,5
11,4,-6,-7,9,-1,2,12,20,13,89,6
13,7,-5,-10,10,1,1,10,19,12,88,6
12,6,-5,-9,9,0,-1,8,17,10,86,5
12,4,-7,-8,10,-1,-2,6,16,8,85,4
13,2,-11,-8,12,-4,-3,5,15,7,84,3
15,0,-15,-8,15,-7,-2,5,16,7,83,3
15,-1,-17,-7,15,-9,0,5,16,8,83,3
10,-2,-14,-3,11,-9,1,5,17,8,84,3
5,-2,-8,-1,6,-6,3,6,18,9,85,3
1,-1,-3,0,2,-3,4,7,18,10,85,3
-1,-3,-1,2,0,-3,5,6,18,10,85,3
-2,-5,-2,4,0,-4,4,5,17,10,85,3
-3,-6,-2,5,-1,-4,3,3,16,9,84,2
-8,-8,-1,8,-4,-5,2,1,15,8,83,2
-14,-13,0,13,-8,-6,1,-1,13,7,81,2
-11,-11,-1,12,-6,-6,1,-2,13,6,80,1
-1,-3,-3,3,0,-3,3,-2,13,7,81,1
5,2,-3,-2,4,-1,5,-2,14,7,82,1
6,3,-3,-3,5,-1,5,-2,13,7,81,1
5,0,-4,-2,5,-2,4,-4,13,6,80,0
0,-3,-3,2,2,-4,4,-5,12,6,80,0
-5,-7,-2,6,-1,-4,4,-6,12,5,79,0
-5,-8,-4,7,-1,-6,3,-7,11,5,79,0
0,-6,-8,4,3,-6,4,-8,11,4,78,0
3,-2,-7,0,5,-4,6,-7,12,5,79,0
0,-2,-2,2,1,-2,8,-7,12,6,80,0
-7,-4,2,6,-5,-1,8,-7,12,6,80,1
-8,-5,2,7,-5,-2,8,-7,11,6,80,1
-7,-8,-1,7,-2,-5,6,-9,10,5,79,0
-9,-10,-2,9,-3,-6,4,-11,8,4,78,0
-3,-3,-1,3,-1,-2,7,-9,10,6,80,1
5,6,-1,-5,2,3,11,-8,11,8,81,2
5,5,-1,-4,2,2,10,-9,10,7,80,2
-3,-3,0,4,-2,-2,8,-11,8,6,79,1
-11,-10,1,11,-6,-4,7,-12,7,4,78,0
-12,-9,3,11,-7,-3,6,-12,6,3,77,-1
-6,-5,2,6,-4,-1,6,-12,6,3,78,-1
-3,-2,1,2,-2,0,7,-12,6,4,79,0
-5,-2,2,4,-4,0,8,-11,7,5,80,0
-7,-3,2,5,-5,0,9,-11,8,6,81,1
-3,-3,-1,3,-2,-2,9,-12,7,6,80,2
-2,-3,-3,3,0,-3,9,-12,7,5,80,2
-4,-5,-2,5,0,-5,8,-13,6,5,79,1
-2,-6,-4,4,1,-6,7,-14,5,4,78,1
0,-4,-5,2,3,-5,6,-15,4,3,78,0
-4,-5,-1,4,-1,-4,7,-15,4,4,79,0
-10,-9,1,9,-6,-4,8,-15,4,4,79,0
-13,-12,0,12,-7,-5,7,-17,3,3,79,0
-14,-13,0,14,-7,-6,5,-18,2,2,77,-1
-11,-12,-2,12,-4,-7,5,-19,1,1,77,-1
-5,-7,-2,7,-1,-5,7,-18,2,2,78,-1
-6,-5,2,6,-3,-2,9,-17,3,3,79,0
-10,-5,5,8,-7,-1,9,-16,3,4,79,0
-8,-7,1,7,-3,-4,8,-18,3,3,78,0
-3,-8,-5,5,1,-7,6,-19,2,2,77,0
-8,-12,-5,10,-1,-9,6,-20,2,2,77,-1
-14,-16,-3,15,-6,-9,6,-20,2,1,76,-1
-10,-12,-2,12,-4,-7,7,-20,3,1,76,-1
-5,-4,1,6,-3,-3,8,-20,4,2,77,-1
-5,-2,4,5,-4,0,9,-19,5,2,78,-1
-4,-4,1,4,-2,-2,9,-19,6,2,78,0
0,-5,-3,3,2,-5,9,-20,7,2,79,0
1,-6,-6,2,4,-6,8,-20,8,2,79,0
-3,-6,-2,4,0,-4,9,-20,10,3,80,0
-11,-8,2,10,-7,-2,10,-20,12,3,80,0
-11,-9,1,11,-7,-3,9,-21,12,2,79,0
-3,-4,-1,4,-1,-3,10,-20,13,2,80,0
0,-1,0,1,0,-1,12,-19,14,3,80,0
-5,-2,4,4,-4,1,13,-18,15,3,81,0
-9,-3,7,6,-8,2,13,-18,15,4,82,0
-9,-3,6,5,-8,2,13,-19,15,3,82,0
-6,-2,3,3,-5,1,13,-18,16,3,82,0
-4,-1,1,2,-3,1,15,-18,17,4,83,1
-4,-2,0,3,-3,0,14,-18,16,4,83,1
-5,-4,0,5,-3,-1,13,-19,15,3,82,1
-9,-8,0,9,-4,-4,11,-21,13,1,81,0
-13,-13,0,13,-6,-7,9,-22,11,0,80,0
-15,-15,0,15,-7,-8,9,-23,10,-1,79,-1
-12,-13,0,12,-5,-7,9,-23,10,-1,79,-1
-7,-8,-1,7,-3,-5,9,-23,10,-1,79,-1
-7,-5,0,6,-3,-2,9,-24,10,-1,79,-1
-9,-6,2,8,-6,-2,9,-24,9,-2,79,-1
-8,-8,0,9,-4,-4,9,-25,9,-2,79,-1
-6,-9,-3,8,-1,-6,10,-26,9,-1,79,-1
-7,-10,-2,9,-2,-6,11,-25,10,-1,80,0
-10,-9,1,10,-5,-4,12,-25,10,0,81,0
-10,-8,3,9,-6,-3,12,-25,11,0,81,0
-10,-7,3,8,-6,-2,13,-24,11,0,82,0
-9,-6,2,7,-6,-2,14,-24,12,1,83,0
-6,-3,1,5,-4,-2,15,-24,13,1,83,1
-5,-3,1,4,-3,-1,14,-24,14,1,84,1
-11,-8,2,10,-7,-3,13,-25,14,1,83,1
-14,-12,1,14,-8,-6,11,-26,14,0,83,1
-9,-11,-1,10,-3,-6,10,-27,14,0,83,0
-5,-8,-2,6,-1,-5,11,-27,15,0,83,0
-5,-4,1,4,-3,-2,12,-26,16,1,84,0
-5,-1,3,3,-4,0,15,-25,18,3,86,1
-4,0,2,2,-3,0,15,-24,19,3,86,2
-1,0,0,0,-1,0,14,-25,19,3,86,2
1,0,-2,0,1,-1,13,-25,19,3,86,1
2,-1,-3,1,2,-3,13,-25,19,3,86,1
3,-5,-7,1,5,-6,11,-26,18,2,85,0
3,-7,-10,2,7,-8,10,-27,17,1,85,0
1,-6,-8,2,5,-7,10,-27,17,1,85,0
-1,-3,-2,1,1,-3,11,-26,18,2,86,0
-5,-1,4,3,-5,1,13,-25,19,4,88,1
-11,-1,8,6,-10,3,13,-25,19,4,88,2
-14,-2,12,9,-14,5,14,-24,20,5,89,2
-12,0,12,6,-12,7,15,-23,21,6,89,3
-6,4,11,2,-8,8,16,-22,22,7,90,5
-4,5,10,0,-7,8,16,-22,22,7,91,6
-4,6,11,-1,-7,8,16,-22,23,7,91,6
-5,6,11,-1,-8,8,16,-22,24,8,92,7
-4,7,11,-1,-7,8,16,-22,24,8,93,7
-5,5,10,0,-8,7,16,-22,24,8,93,7
-7,3,10,3,-9,6,16,-22,24,8,94,7
-3,4,7,0,-5,6,16,-23,24,8,94,8
3,9,6,-6,-1,7,16,-23,24,9,94,8
3,12,9,-8,-2,11,18,-22,25,10,95,9
-1,12,14,-5,-7,12,19,-22,26,11,96,10
-4,10,14,-3,-9,12,18,-24,25,10,95,11
-6,7,12,-1,-9,10,15,-26,24,9,94,10
-7,5,11,0,-9,8,13,-27,23,8,93,10
-7,4,10,1,-9,7,13,-27,23,8,94,10
-5,7,12,0,-9,10,14,-25,24,10,95,11
0,13,14,-6,-7,14,16,-24,25,12,97,12
2,16,14,-8,-6,15,15,-24,26,13,98,13
2,13,11,-7,-5,12,14,-25,25,12,97,13
1,11,9,-6,-4,9,13,-26,24,12,97,13
1,11,10,-6,-5,11,13,-25,25,12,97,14
1,12,10,-7,-5,11,13,-24,25,12,97,14
1,13,10,-7,-5,11,11,-25,24,11,97,14
2,16,13,-8,-6,14,12,-25,24,12,97,14
6,22,15,-14,-5,18,14,-23,25,13,99,15
12,26,14,-18,-1,20,16,-23,25,14,100,16
10,22,12,-15,-1,17,15,-24,23,14,100,17
0,11,11,-5,-6,11,12,-25,20,12,98,16
-10,1,11,4,-10,6,10,-26,17,10,97,15
-10,0,9,4,-10,5,10,-26,16,10,96,14
-3,6,8,-1,-6,7,12,-24,16,11,97,14
1,9,7,-4,-4,8,12,-23,15,11,97,14
1,6,5,-3,-3,5,12,-23,14,10,97,13
0,1,1,0,-1,0,11,-24,12,9,95,12
0,-2,-2,2,1,-2,9,-26,10,7,94,10
2,-1,-3,0,2,-3,9,-26,8,6,93,9
4,1,-3,-3,3,-1,10,-25,8,6,93,9
3,3,-1,-3,2,1,13,-23,8,7,93,10
-2,2,2,0,-2,2,15,-22,8,7,93,10
-7,-1,5,4,-6,1,15,-22,7,6,92,10
-14,-9,4,12,-8,-3,13,-23,4,4,90,8
-15,-14,1,15,-8,-6,11,-24,3,2,88,6
-9,-9,0,9,-4,-4,14,-22,3,4,90,6
-2,-5,-2,4,0,-3,16,-20,4,5,91,7
2,-4,-7,1,4,-5,15,-20,3,4,90,7
2,-5,-8,1,4,-6,13,-20,2,3,88,7
-2,-7,-6,4,1,-7,13,-20,1,2,87,6
-6,-9,-4,8,-2,-7,14,-19,1,2,88,6
-10,-10,-1,11,-5,-6,16,-17,2,3,89,6
-13,-10,2,12,-8,-4,17,-16,2,4,89,7
-15,-11,5,14,-10,-3,17,-15,2,4,89,6
-17,-12,6,15,-11,-2,16,-15,2,4,88,6
-16,-11,6,14,-11,-2,16,-14,2,4,88,6
-15,-11,4,13,-9,-3,17,-13,3,5,88,6
-11,-12,-1,12,-5,-6,17,-11,3,5,87,6
-3,-9,-7,6,1,-8,16,-11,3,4,87,6
3,-7,-11,2,7,-9,15,-11,2,3,86,5
1,-11,-12,5,6,-11,14,-11,1,2,85,4
-3,-14,-11,9,4,-12,15,-9,2,3,85,4
-5,-13,-6,9,0,-9,17,-7,4,5,87,5
-9,-11,-1,10,-4,-6,19,-5,5,7,89,6
-11,-12,-1,11,-5,-6,18,-5,5,6,88,6
-12,-13,-2,12,-5,-7,15,-6,3,5,87,5
-14,-13,0,13,-7,-7,14,-5,3,4,86,5
-15,-13,0,14,-8,-6,15,-4,3,4,87,5
-14,-14,-1,15,-7,-8,16,-3,3,4,87,5
-12,-17,-5,15,-4,-11,15,-3,2,4,86,5
-7,-17,-10,12,2,-13,14,-3,1,3,86,5
0,-15,-15,7,8,-15,13,-3,0,3,85,4
0,-15,-15,7,8,-15,13,-3,0,2,85,4
-6,-17,-11,11,2,-14,13,-2,0,2,85,3
-13,-19,-5,16,-4,-13,13,0,0,2,85,3
-16,-19,-3,17,-7,-11,13,0,0,2,85,3
-14,-17,-3,16,-5,-10,14,2,0,3,85,3
-10,-16,-5,14,-2,-10,15,3,0,3,85,3
-8,-13,-4,11,-2,-8,19,7,0,4,85,3
-8,-9,-1,9,-2,-5,24,11,2,6,86,3
-7,-9,-2,9,-2,-5,26,14,4,8,86,3
-6,-10,-5,8,0,-7,26,15,5,8,86,3
-4,-7,-4,5,0,-6,26,18,6,10,87,3
-4,-5,-1,4,-1,-4,25,21,9,12,88,3
-5,-5,-1,5,-1,-4,24,25,13,16,90,4
-1,-5,-4,4,2,-5,24,32,20,24,95,6
4,-5,-8,1,6,-6,23,40,28,33,101,9
12,0,-12,-5,12,-5,22,47,37,44,108,13
24,9,-14,-16,19,-2,22,54,48,56,117,18
32,18,-14,-25,23,2,22,61,59,69,128,25
37,25,-12,-31,24,6,21,68,71,83,139,31
39,31,-9,-35,24,10,16,73,83,97,150,38
41,39,-4,-40,23,17,7,75,95,112,162,46
47,49,0,-48,23,25,-4,73,105,127,173,54
57,62,4,-59,26,33,-16,65,112,138,183,62
64,73,8,-68,28,41,-27,49,112,142,189,69
62,77,16,-70,23,48,-34,28,104,137,190,74
53,75,22,-64,16,49,-38,6,89,122,183,75
43,64,21,-54,11,43,-40,-14,66,98,167,70
30,45,14,-38,8,29,-44,-34,37,65,145,60
18,25,5,-22,6,15,-49,-54,5,29,121,46
6,11,4,-8,1,7,-51,-70,-25,-2,100,33
-7,0,7,4,-7,3,-52,-82,-47,-26,84,22
-19,-9,9,14,-14,1,-52,-88,-61,-40,73,14
-28,-16,13,22,-20,0,-52,-90,-67,-47,67,7
-36,-20,16,28,-26,-1,-51,-88,-69,-49,64,3
-35,-18,16,26,-26,-1,-46,-82,-66,-48,63,0
-28,-14,12,20,-20,-1,-40,-73,-62,-46,63,-1
-24,-16,8,19,-16,-4,-35,-65,-57,-44,63,-2
-21,-19,2,20,-12,-8,-32,-57,-53,-42,63,-3
-16,-19,-2,18,-6,-11,-27,-49,-47,-38,64,-5
-16,-20,-3,18,-7,-11,-22,-40,-41,-34,66,-5
-20,-21,0,21,-10,-10,-18,-32,-35,-28,68,-5
-23,-21,3,22,-13,-9,-12,-23,-28,-23,71,-5
-26,-21,5,23,-15,-8,-7,-16,-22,-18,74,-4
-23,-21,2,22,-13,-10,-2,-10,-18,-15,75,-3
-16,-19,-2,18,-7,-11,1,-4,-14,-12,77,-3
-12,-15,-2,14,-5,-9,5,1,-10,-9,79,-2
-14,-15,0,15,-7,-8,10,7,-6,-5,82,-1
-13,-17,-3,15,-5,-10,13,10,-4,-2,83,-1
-7,-17,-10,12,1,-13,13,12,-3,-1,84,-1
-5,-17,-12,11,4,-14,13,13,-2,0,84,-1
-10,-19,-10,14,0,-14,12,14,-2,0,84,-1
-12,-17,-6,14,-2,-12,13,15,-2,1,84,-1
-8,-12,-5,10,-2,-9,15,17,0,3,86,0
-8,-10,-3,9,-2,-7,18,20,1,5,87,1
-10,-10,-1,10,-4,-6,20,23,1,7,88,1
-9,-10,-1,10,-4,-5,21,24,2,8,88,1
-8,-11,-4,10,-2,-7,20,25,2,8,88,1
-8,-14,-6,12,-1,-9,19,25,1,8,87,1
-12,-18,-6,15,-3,-11,19,25,1,8,87,1
-16,-20,-6,18,-5,-13,18,25,1,8,86,0
-16,-22,-7,19,-4,-15,16,24,0,6,84,0
-14,-20,-7,17,-3,-14,16,24,0,6,84,-1
-8,-15,-7,12,0,-11,18,25,1,7,85,-1
-4,-13,-9,9,2,-12,19,26,2,7,85,0
-2,-13,-11,8,4,-12,19,27,2,8,85,0
0,-10,-10,5,6,-10,20,28,4,9,86,0
0,-7,-7,3,4,-7,21,29,6,10,87,1
-3,-6,-2,4,0,-4,22,30,8,11,89,2
-8,-7,0,7,-4,-3,22,31,9,12,90,2
-11,-9,1,9,-6,-4,22,32,10,12,90,3
-10,-10,-1,10,-4,-6,22,32,10,11,89,2
-6,-10,-4,9,-1,-7,21,33,11,11,89,2
-5,-10,-4,8,0,-7,23,34,13,12,90,2
-7,-12,-4,10,-1,-8,24,36,15,13,91,3
-8,-14,-5,11,-1,-9,24,37,15,13,91,3
-8,-14,-5,11,-1,-10,22,36,15,12,91,2
-5,-10,-6,8,0,-8,22,37,16,11,91,2
-1,-8,-7,5,2,-8,22,38,17,11,92,2
-2,-8,-7,5,2,-8,21,39,16,11,91,2
-5,-11,-6,8,0,-8,21,40,16,10,91,2
-6,-12,-6,10,0,-9,20,40,15,9,90,2
-4,-13,-8,9,2,-10,19,40,14,9,89,1
-3,-13,-10,8,4,-11,19,41,14,9,89,1
-5,-14,-9,10,2,-11,19,42,14,9,89,1
-13,-19,-7,16,-3,-13,18,42,13,9,88,0
-20,-23,-3,21,-8,-13,17,43,11,8,87,0
-21,-22,-1,21,-10,-12,18,44,10,8,87,0
-17,-15,1,16,-9,-7,19,46,10,10,87,0
-11,-8,3,10,-7,-2,21,48,10,11,88,0
-8,-3,4,6,-6,0,23,50,10,13,89,0
-3,0,2,2,-3,1,24,51,10,14,89,1
4,1,-2,-3,3,0,24,52,10,14,89,1
7,-1,-7,-3,7,-4,23,53,10,14,89,2
6,-6,-11,-1,9,-8,22,54,10,14,89,2
2,-9,-11,3,7,-10,22,55,10,15,89,2
-6,-13,-7,9,0,-10,22,56,10,16,89,2
-13,-17,-4,15,-5,-11,22,57,10,16,88,1
-16,-21,-5,18,-6,-13,20,57,10,16,87,0
-13,-20,-7,17,-3,-14,19,58,10,16,86,0
-8,-15,-7,12,0,-10,21,60,12,17,87,0
-5,-10,-6,7,0,-7,22,62,15,19,88,0
-3,-10,-8,6,2,-8,21,62,16,19,87,0
0,-9,-10,4,5,-10,20,62,16,18,87,-1
4,-5,-10,0,6,-8,20,64,17,19,87,-1
6,-3,-10,-1,7,-7,21,66,19,21,88,0
5,-5,-11,0,8,-9,21,67,19,21,88,-1
1,-10,-13,4,7,-12,19,67,19,21,87,-2
-3,-13,-10,8,3,-11,19,69,19,22,87,-2
-4,-10,-7,7,1,-8,20,70,21,23,88,-2
-3,-9,-6,6,2,-8,20,71,22,24,88,-2
-5,-12,-7,8,1,-10,18,71,21,23,87,-2
-5,-15,-10,10,2,-13,16,70,20,22,86,-3
-2,-14,-12,8,5,-13,17,71,20,22,87,-3
-1,-11,-10,6,4,-11,20,74,22,25,88,-2
-4,-9,-5,6,0,-6,23,77,23,27,90,-1
-5,-9,-3,7,-1,-5,23,79,24,28,90,-1
-5,-11,-5,8,0,-7,21,79,23,28,89,-2
-3,-12,-9,7,2,-9,19,79,23,27,88,-2
2,-8,-11,2,7,-9,19,79,23,27,88,-2
8,-3,-12,-3,10,-8,19,80,23,28,89,-2
8,-2,-12,-3,10,-7,18,81,23,28,89,-2
4,-5,-11,1,7,-8,18,81,22,28,89,-2
2,-8,-11,3,6,-10,17,82,22,28,89,-2
4,-6,-11,1,8,-9,17,84,22,29,89,-2
7,-5,-12,-1,10,-8,17,85,23,30,89,-1
9,-5,-14,-2,11,-9,16,86,23,30,89,-1
9,-4,-14,-3,12,-9,15,86,23,30,89,-1
7,-5,-12,-1,10,-9,16,88,23,32,90,0
2,-7,-11,2,6,-9,15,89,23,32,91,1
0,-10,-10,6,4,-10,14,89,23,32,91,1
2,-8,-11,4,6,-9,14,89,23,32,91,1
10,-2,-13,-3,11,-7,15,91,24,34,92,1
16,2,-14,-9,15,-5,16,92,24,35,93,2
16,0,-16,-8,16,-8,14,92,23,34,92,2
16,-3,-19,-7,18,-11,11,91,22,33,90,1
17,-3,-20,-8,19,-12,11,91,21,33,90,1
17,-1,-19,-8,18,-10,11,91,22,34,92,2
15,-1,-18,-7,17,-10,11,91,21,34,92,2
12,-5,-18,-3,15,-11,9,89,18,33,91,2
7,-9,-17,1,12,-12,8,89,17,32,90,1
3,-10,-13,3,9,-11,8,89,17,33,90,1
6,-6,-11,0,9,-8,9,90,17,34,91,2
14,1,-13,-8,13,-5,10,91,17,34,91,2
19,6,-13,-13,16,-3,10,91,17,35,91,3
18,7,-11,-13,13,-2,11,92,17,36,92,3
14,5,-10,-10,11,-3,12,92,16,37,93,4
12,1,-11,-7,11,-4,11,91,15,37,92,3
12,0,-13,-5,13,-6,9,89,13,36,91,3
14,-1,-16,-6,15,-7,8,88,12,36,90,2
15,-2,-16,-6,16,-8,7,87,10,35,89,2
10,-2,-11,-4,11,-6,7,87,10,35,89,1
2,-4,-5,0,3,-5,8,87,10,36,89,1
2,-2,-4,0,3,-4,8,86,9,36,88,1
9,2,-8,-6,8,-4,7,84,8,35,87,1
12,3,-10,-7,11,-4,7,83,7,34,86,0
11,4,-7,-7,9,-2,8,83,7,35,87,0
10,5,-5,-8,8,0,10,83,8,37,88,1
10,4,-6,-7,8,0,11,83,7,37,88,1
10,2,-7,-7,8,-2,10,82,7,36,87,1
11,2,-8,-7,9,-3,10,80,7,36,86,0
13,1,-12,-7,12,-5,8,78,6,34,84,0
14,0,-15,-7,14,-7,7,75,5,32,82,-1
10,-1,-12,-4,11,-7,7,74,4,32,82,-2
1,-3,-5,1,3,-4,9,74,5,33,82,-2
-4,-4,-1,4,-1,-2,11,74,5,34,82,-2
-2,-4,-1,3,0,-2,11,73,5,34,82,-2
-2,-5,-2,3,0,-3,11,72,5,33,81,-2
-5,-8,-2,6,-1,-5,11,71,4,33,80,-3
-5,-9,-3,6,0,-6,11,70,5,32,79,-3
-2,-5,-3,3,0,-5,12,69,6,33,79,-3
0,-1,-3,1,1,-3,13,69,6,33,79,-3
4,0,-5,-1,4,-3,14,68,6,33,79,-3
5,0,-6,-2,5,-3,14,67,5,33,78,-3
3,-1,-6,0,4,-3,13,65,4,32,77,-4
-2,-6,-4,4,1,-4,11,63,2,31,75,-5
-5,-10,-4,7,0,-6,10,62,2,30,74,-6
-2,-7,-5,4,1,-5,11,62,2,31,74,-7
1,-3,-4,0,2,-3,12,61,3,31,74,-7
0,-2,-3,0,1,-2,12,61,3,31,74,-7
-1,-4,-4,3,1,-4,11,60,2,31,74,-8
-2,-7,-6,5,1,-6,10,59,1,30,73,-8
-4,-9,-5,7,0,-7,10,58,1,30,73,-9
-5,-10,-5,8,0,-7,12,58,1,30,73,-9
-1,-8,-6,4,2,-6,13,59,2,31,74,-9
2,-3,-5,0,4,-4,15,59,3,32,74,-8
2,-1,-3,-1,2,-2,15,59,3,32,75,-8
0,-2,-2,0,1,-3,14,58,2,32,75,-9
-3,-5,-2,4,0,-4,13,57,1,31,74,-9
-5,-8,-4,7,0,-6,12,56,0,30,73,-10
-2,-8,-8,5,3,-8,11,55,-1,29,72,-11
-1,-8,-8,4,4,-7,11,54,-2,29,72,-12
-2,-10,-8,6,3,-8,9,53,-3,28,70,-13
-3,-12,-8,7,2,-9,8,51,-5,26,69,-14
-5,-10,-4,6,0,-7,9,51,-6,27,69,-14
-4,-6,-2,4,-1,-5,10,52,-6,28,70,-13
-2,-3,-2,2,0,-3,11,52,-6,29,71,-13
-4,-2,1,4,-3,-1,12,53,-6,30,72,-12
-6,-2,3,4,-5,0,13,54,-6,31,73,-11
-2,0,1,1,-2,1,14,54,-6,31,73,-11
-1,-3,0,1,0,-1,13,54,-7,31,73,-10
-2,-5,-1,3,0,-2,12,53,-8,30,72,-10
0,-4,-2,1,1,-3,11,51,-9,29,70,-11
1,-4,-4,1,2,-4,10,50,-11,27,68,-12
-1,-7,-6,3,2,-7,9,49,-13,27,67,-14
0,-8,-8,4,4,-9,9,48,-13,27,66,-14
3,-6,-10,1,7,-8,9,48,-13,27,66,-15
5,-4,-10,0,8,-7,10,48,-13,27,66,-15
-1,-6,-4,3,1,-5,10,48,-13,28,66,-14
-12,-11,1,11,-7,-4,11,48,-12,28,66,-14
-15,-11,3,12,-9,-3,12,49,-11,29,67,-13
-10,-6,5,7,-7,0,13,49,-9,30,67,-12
-8,-3,4,5,-6,0,13,48,-8,31,67,-12
-9,-6,2,7,-6,-2,11,47,-7,30,66,-13
-8,-6,1,7,-4,-3,10,47,-6,29,66,-13
-7,-6,0,7,-3,-3,11,47,-5,29,67,-13
-9,-8,1,9,-4,-3,10,47,-5,28,66,-14
-9,-9,0,9,-5,-4,10,46,-4,28,65,-14
-7,-9,-1,8,-3,-4,11,47,-4,28,65,-14
-4,-8,-3,5,0,-5,11,47,-3,29,65,-13
-2,-6,-3,4,0,-4,11,48,-3,29,65,-13
-3,-6,-3,5,0,-5,10,48,-3,30,65,-13
-2,-8,-5,5,2,-7,10,47,-3,29,64,-13
2,-8,-10,3,6,-9,9,46,-4,28,63,-13
3,-9,-12,3,8,-10,8,46,-5,27,63,-14
-1,-10,-9,5,4,-9,8,46,-5,27,62,-14
-3,-8,-5,5,1,-5,9,47,-5,29,63,-13
-4,-5,-1,4,-1,-2,11,48,-4,31,63,-12
-9,-8,0,8,-4,-4,10,48,-5,31,63,-12
-11,-12,-1,12,-4,-7,8,46,-7,30,61,-12
-4,-10,-6,8,1,-9,7,46,-7,30,61,-12
2,-6,-9,2,6,-8,9,48,-7,31,62,-12
0,-6,-5,3,2,-6,11,49,-6,33,63,-11
-5,-6,0,6,-2,-3,12,50,-5,34,64,-10
-6,-5,1,5,-4,-2,12,51,-4,35,65,-9
-4,-4,0,3,-2,-1,12,51,-4,35,64,-8
-1,-3,-2,1,0,-2,10,50,-5,34,63,-8
0,-3,-3,2,1,-3,9,50,-5,34,63,-8
-4,-7,-3,6,0,-5,9,50,-5,34,62,-8
-10,-13,-2,12,-4,-8,7,50,-5,34,62,-8
-13,-15,-2,14,-5,-8,6,50,-5,33,62,-9
-8,-10,-1,9,-3,-5,7,51,-3,34,62,-9
-3,-3,0,3,-1,-1,7,52,-2,35,63,-8
-1,0,1,0,-1,2,7,53,-1,36,63,-8
1,2,2,-2,-1,2,7,53,-1,36,63,-8
5,3,-2,-4,3,0,6,53,-1,36,63,-8
4,0,-4,-2,5,-2,5,53,0,36,62,-8
-1,-3,-2,3,1,-3,5,53,0,36,63,-7
-5,-5,0,6,-1,-3,5,54,0,37,63,-7
-4,-6,-2,6,0,-4,5,54,1,37,63,-7
-1,-5,-4,3,1,-4,4,54,1,37,63,-8
4,-3,-7,-1,5,-4,4,55,2,37,64,-8
10,0,-9,-6,9,-4,4,55,2,37,64,-8
10,2,-8,-7,9,-3,3,55,2,37,64,-8
5,1,-5,-3,5,-2,3,55,2,37,64,-8
0,-2,-3,2,1,-3,3,55,3,37,64,-7
-2,-3,-2,3,0,-3,4,55,3,38,64,-7
0,-2,-3,1,2,-2,4,55,3,38,65,-7
0,-2,-3,1,2,-2,3,54,3,38,64,-7
-3,-4,-1,3,-1,-2,2,54,3,38,64,-7
-4,-2,1,3,-3,0,3,54,4,39,65,-6
-2,1,3,0,-3,1,4,55,6,40,66,-5
0,3,2,-2,-1,2,5,55,6,41,67,-5
4,5,0,-4,2,2,5,54,6,41,67,-5
4,5,0,-4,2,2,4,53,6,41,67,-5
2,3,1,-2,0,2,4,52,5,41,67,-5
4,6,2,-4,1,4,4,52,6,41,67,-5
10,11,1,-10,5,6,5,52,6,42,67,-5
10,10,0,-11,5,5,5,51,6,41,67,-5
8,6,-1,-8,4,2,3,49,5,40,66,-6
8,6,-1,-7,5,1,2,48,4,40,65,-6
6,6,0,-6,3,2,3,47,4,40,65,-6
-2,3,6,0,-3,4,5,48,6,41,67,-5
-8,3,12,3,-9,7,8,50,7,43,68,-4
-5,5,11,1,-7,8,8,50,8,43,69,-3
1,7,6,-4,-2,7,8,49,8,43,69,-2
4,8,4,-6,0,7,7,49,8,43,68,-2
2,6,5,-5,-1,6,6,48,8,42,68,-2
1,6,5,-4,-2,6,4,46,7,41,68,-3
2,7,5,-4,-1,6,2,44,6,40,67,-3
2,8,5,-4,-1,7,1,42,6,40,67,-3
4,11,6,-6,-1,8,1,42,6,40,67,-3
9,15,5,-12,2,10,2,42,7,42,69,-2
12,16,4,-14,4,10,1,42,7,42,69,-2
11,15,4,-13,3,10,-1,41,6,42,69,-2
11,17,5,-15,3,12,-1,41,6,43,70,-1
11,19,9,-16,1,14,0,42,7,44,71,0
8,19,11,-14,-1,15,0,42,8,44,72,1
6,16,10,-11,-2,13,0,42,8,44,72,1
3,12,8,-7,-2,9,0,42,8,44,72,1
2,9,7,-5,-2,7,0,41,7,44,71,0
7,11,4,-9,1,7,0,41,7,43,71,0
15,15,1,-15,6,8,0,40,7,43,71,0
18,16,0,-18,9,8,-1,39,6,43,71,0
17,16,0,-17,9,7,-3,38,5,42,70,0
12,14,1,-13,5,7,-3,37,5,42,70,0
10,12,1,-10,4,6,-2,36,6,42,70,0
13,13,0,-12,6,6,0,36,6,43,71,0
14,15,1,-13,6,8,0,36,6,42,71,0
9,11,2,-10,4,7,-2,33,4,40,69,-1
4,5,1,-4,1,3,-4,30,2,38,67,-2
2,3,1,-3,0,2,-4,28,1,37,66,-3
3,4,1,-4,1,3,-2,27,1,37,66,-3
6,4,-1,-5,3,1,-1,26,1,37,65,-4
6,2,-4,-4,5,-1,-1,24,1,37,64,-4
2,-1,-4,0,3,-3,0,23,1,36,64,-5
0,-3,-3,2,1,-3,0,21,0,35,63,-7
0,-3,-3,2,1,-3,0,20,-1,34,62,-8
0,-3,-2,2,1,-2,0,19,-1,34,61,-9
0,-4,-3,1,1,-3,0,17,-2,33,60,-9
2,-4,-5,0,2,-4,0,16,-3,32,59,-10
2,-4,-6,0,3,-5,0,15,-3,32,59,-10
1,-6,-8,2,4,-7,1,14,-3,31,59,-10
-1,-8,-8,5,3,-8,2,13,-3,31,58,-10
-1,-6,-6,4,2,-6,3,13,-2,31,58,-10
7,0,-8,-3,7,-3,4,12,-2,31,58,-10
13,1,-12,-7,12,-5,2,10,-3,30,56,-11
10,-6,-15,-2,12,-11,0,8,-5,28,54,-13
4,-13,-16,4,10,-15,-1,6,-6,26,53,-14
-2,-15,-13,8,5,-14,0,5,-5,26,53,-14
-5,-11,-6,8,1,-9,3,6,-3,28,55,-13
-1,-6,-5,3,2,-5,5,6,-2,30,57,-12
2,-3,-7,1,5,-5,5,6,-2,30,57,-12
1,-6,-8,3,4,-8,4,5,-2,29,56,-12
-3,-12,-9,7,3,-11,3,4,-2,28,56,-12
-5,-14,-9,9,1,-12,3,3,-2,27,56,-12
-5,-13,-8,9,1,-11,4,3,-2,28,56,-12
-3,-12,-8,7,2,-10,5,3,-2,28,56,-11
0,-10,-10,4,5,-10,4,1,-3,28,55,-12
2,-9,-13,3,7,-11,3,0,-4,27,54,-12
1,-10,-12,4,6,-11,3,0,-4,27,54,-13
0,-11,-12,6,6,-12,4,-1,-4,27,54,-13
4,-10,-16,3,10,-13,3,-1,-5,27,53,-13
9,-10,-20,0,15,-15,2,-2,-6,26,53,-13
8,-12,-20,2,14,-16,1,-3,-7,26,52,-13
3,-14,-17,5,10,-15,2,-3,-7,26,53,-12
-4,-15,-11,9,4,-13,2,-3,-7,26,53,-12
-7,-13,-7,10,0,-10,3,-3,-7,26,53,-12
-3,-10,-8,7,2,-9,4,-3,-7,27,53,-12
0,-10,-10,6,5,-11,4,-3,-7,28,53,-11
0,-12,-11,6,5,-12,5,-3,-7,28,54,-11
1,-12,-12,6,6,-12,5,-3,-7,28,54,-11
1,-13,-14,6,7,-14,6,-3,-8,27,53,-11
-3,-18,-14,10,5,-16,8,-2,-8,27,52,-12
-5,-20,-14,12,4,-17,10,0,-7,27,51,-13
-1,-15,-15,8,7,-15,11,1,-6,27,51,-14
2,-10,-14,4,8,-12,13,4,-4,29,51,-14
4,-8,-14,2,9,-12,14,7,-1,32,53,-14
7,-8,-16,1,11,-13,14,10,2,36,55,-13
12,-5,-18,-3,15,-12,14,16,7,42,59,-11
18,-2,-19,-8,18,-11,15,24,15,49,65,-8
22,-1,-23,-11,22,-12,13,30,23,57,70,-5
30,3,-25,-17,28,-11,11,36,33,68,77,-2
39,13,-25,-26,32,-6,12,44,44,81,87,3
47,25,-23,-36,35,1,13,51,56,95,98,10
53,35,-18,-44,36,8,10,57,68,109,109,17
58,46,-13,-52,36,16,3,61,80,123,120,24
67,57,-11,-62,39,23,-7,62,92,138,132,32
74,65,-8,-70,41,28,-19,58,102,151,143,41
72,70,-1,-71,36,34,-32,46,107,159,152,49
64,75,11,-70,27,43,-42,27,105,161,157,55
58,76,18,-68,20,47,-50,3,95,154,155,59
52,70,16,-61,18,43,-55,-21,76,135,145,58
50,59,8,-54,21,33,-59,-43,51,108,127,50
48,48,-1,-48,25,23,-62,-62,22,76,105,39
38,34,-5,-36,21,15,-64,-81,-8,43,83,27
20,19,-1,-20,11,9,-66,-98,-37,14,64,15
6,6,0,-7,3,3,-69,-111,-58,-8,49,5
1,-3,-4,1,2,-3,-70,-118,-71,-22,38,-3
0,-9,-8,4,3,-9,-70,-120,-77,-28,32,-9
-2,-10,-7,6,2,-9,-65,-117,-77,-29,30,-13
-7,-12,-4,10,-2,-9,-59,-111,-74,-28,29,-16
-10,-14,-4,12,-4,-9,-53,-103,-70,-27,28,-18
-12,-15,-3,13,-5,-9,-47,-95,-65,-24,28,-19
-17,-18,-1,17,-8,-9,-41,-86,-60,-21,29,-20
-20,-21,-1,20,-9,-10,-37,-79,-55,-19,30,-20
-17,-21,-4,18,-6,-12,-33,-72,-49,-15,31,-21
-14,-21,-6,17,-4,-13,-29,-65,-43,-11,33,-22
-13,-20,-8,17,-3,-14,-24,-58,-38,-6,35,-21
-11,-19,-8,16,-1,-14,-19,-52,-33,-2,37,-20
-10,-18,-9,14,0,-14,-13,-46,-28,2,39,-20
-5,-14,-10,9,2,-12,-8,-40,-24,6,41,-19
2,-7,-11,2,6,-9,-3,-34,-19,10,44,-18
4,-7,-12,1,8,-10,0,-30,-16,13,45,-17
2,-10,-13,3,8,-12,1,-27,-14,14,46,-17
4,-11,-15,3,10,-13,2,-25,-12,16,47,-16
5,-13,-18,3,12,-16,2,-24,-12,16,47,-16
4,-15,-20,5,12,-18,2,-23,-11,17,47,-16
2,-15,-18,7,10,-17,2,-22,-11,18,47,-16
1,-14,-16,7,8,-15,2,-21,-11,18,48,-16
6,-11,-18,3,11,-14,3,-19,-11,19,48,-16
10,-7,-18,-2,14,-13,4,-16,-10,21,50,-16
11,-6,-17,-3,14,-12,5,-14,-9,23,50,-15
10,-7,-16,-2,13,-12,5,-14,-10,23,50,-14
8,-7,-15,-1,12,-11,4,-13,-10,24,50,-14
7,-8,-15,0,11,-12,4,-13,-10,24,50,-13
5,-11,-17,3,11,-14,3,-13,-11,24,49,-14
6,-12,-19,3,12,-15,1,-14,-12,23,49,-14
8,-9,-19,1,13,-14,1,-13,-11,24,49,-14
9,-5,-15,-2,12,-10,3,-11,-10,25,50,-14
9,-3,-13,-4,11,-8,3,-10,-9,26,51,-14
10,-3,-14,-4,12,-9,3,-10,-9,25,50,-15
10,-5,-15,-3,13,-10,2,-10,-8,25,50,-15
9,-6,-16,-2,13,-11,3,-10,-7,25,50,-15
9,-7,-17,-1,13,-12,3,-10,-6,25,51,-15
13,-6,-20,-4,16,-12,4,-10,-5,25,51,-14
15,-6,-22,-4,18,-14,4,-10,-4,25,51,-14
10,-13,-23,0,17,-18,3,-11,-4,24,50,-15
7,-19,-25,5,16,-22,0,-12,-5,22,49,-17
8,-17,-25,4,16,-21,1,-11,-3,22,49,-18
9,-11,-20,0,15,-16,6,-8,0,25,52,-17
9,-5,-15,-3,12,-10,10,-4,4,29,55,-15
9,-3,-13,-3,11,-8,11,-4,5,29,55,-13
9,-5,-15,-2,12,-10,8,-6,4,27,54,-14
9,-7,-17,-1,13,-12,7,-7,4,26,53,-14
10,-8,-18,-1,14,-13,7,-6,4,26,54,-14
12,-7,-20,-2,16,-14,7,-6,3,26,54,-14
12,-7,-19,-2,16,-14,7,-6,3,26,54,-14
9,-11,-19,1,14,-15,7,-6,2,26,53,-15
7,-13,-19,3,13,-16,8,-6,2,26,53,-15
11,-9,-20,-1,15,-15,9,-5,2,27,54,-15
15,-6,-21,-5,18,-14,9,-4,1,27,54,-14
16,-7,-23,-4,19,-15,8,-5,0,26,53,-14
19,-7,-26,-6,22,-16,7,-6,-2,26,52,-15
23,-4,-27,-10,24,-15,7,-5,-2,26,53,-15
20,-4,-23,-8,21,-14,9,-4,-2,27,54,-14
12,-7,-19,-2,15,-13,11,-3,-2,28,55,-14
7,-9,-17,0,12,-14,11,-2,-2,28,55,-14
8,-8,-17,0,13,-13,11,-2,-3,28,55,-13
8,-7,-17,0,13,-13,9,-3,-3,28,54,-13
6,-9,-16,1,11,-13,6,-4,-4,26,53,-14
5,-8,-15,2,10,-12,5,-5,-5,26,53,-14
9,-4,-14,-2,11,-9,7,-4,-4,27,53,-14
13,-2,-16,-5,14,-9,8,-3,-3,28,54,-14
9,-7,-17,0,13,-13,7,-3,-3,27,53,-15
5,-12,-17,3,12,-15,7,-3,-2,27,53,-16
8,-9,-18,0,13,-14,9,-2,0,28,54,-15
11,-5,-17,-3,14,-11,11,0,3,30,56,-14
9,-4,-14,-2,12,-9,11,0,5,31,56,-13
9,-5,-14,-2,12,-10,11,0,5,31,56,-12
11,-7,-18,-2,14,-12,10,0,5,31,56,-13
13,-9,-22,-2,17,-15,10,0,6,31,56,-13
13,-10,-22,-1,17,-16,10,1,6,31,56,-13
12,-10,-22,-1,17,-16,9,1,6,31,55,-13
12,-10,-22,-1,18,-16,8,1,6,31,55,-13
10,-10,-20,0,15,-15,9,2,7,32,55,-14
8,-9,-18,0,13,-13,10,3,8,33,56,-13
12,-5,-18,-3,15,-11,11,4,9,34,57,-12
15,-1,-17,-7,16,-9,12,5,10,35,58,-11
16,0,-16,-8,16,-7,12,6,10,36,59,-10
16,0,-17,-8,16,-8,12,6,10,36,59,-10
14,-2,-17,-6,15,-9,12,7,11,36,60,-10
11,-4,-16,-3,13,-10,11,6,10,36,59,-10
11,-5,-16,-3,13,-11,9,6,10,35,59,-10
13,-4,-18,-4,15,-11,8,6,10,36,59,-10
17,-4,-22,-6,19,-13,7,6,9,36,59,-10
19,-5,-25,-7,22,-15,5,5,9,36,59,-10
18,-5,-24,-7,21,-15,5,6,9,36,59,-10
20,-3,-24,-9,22,-14,6,7,9,37,60,-10
23,-3,-27,-10,25,-16,6,8,9,37,60,-10
21,-7,-29,-7,25,-18,7,9,9,37,61,-10
17,-9,-27,-4,22,-18,7,10,10,37,62,-9
20,-5,-25,-8,23,-15,7,11,10,39,62,-9
23,1,-23,-13,23,-11,7,13,11,41,64,-8
20,2,-18,-12,19,-8,7,14,12,42,65,-6
17,2,-16,-9,16,-7,7,15,13,43,66,-5
17,2,-16,-9,17,-7,7,16,13,44,67,-4
19,2,-18,-11,19,-8,6,16,13,44,67,-3
21,0,-21,-11,21,-11,3,15,12,43,67,-3
22,-2,-24,-10,23,-13,1,13,11,41,66,-4
21,-3,-24,-9,22,-14,-1,12,10,41,65,-5
23,0,-24,-12,23,-12,0,13,10,42,66,-4
27,2,-24,-15,26,-11,0,14,11,43,67,-3
27,3,-24,-15,26,-11,-1,13,10,43,67,-3
25,2,-23,-13,24,-10,-2,12,9,42,67,-3
23,0,-24,-12,24,-12,-3,12,9,42,67,-3
20,-1,-22,-10,21,-11,-2,12,10,43,68,-3
20,1,-19,-11,20,-9,-2,13,10,43,69,-2
26,5,-20,-16,22,-8,-2,13,11,44,69,-2
29,6,-22,-18,25,-8,-3,12,11,44,69,-2
27,5,-22,-16,25,-8,-5,11,10,43,68,-2
21,1,-20,-11,21,-9,-6,9,8,42,68,-2
16,-2,-19,-7,18,-10,-7,8,8,41,68,-2
17,0,-18,-9,18,-8,-6,8,8,42,68,-1
26,6,-20,-16,24,-7,-5,8,9,43,69,0
35,9,-26,-22,31,-9,-6,7,8,42,68,0
37,8,-28,-23,33,-10,-6,7,8,41,68,0
29,6,-22,-18,25,-9,-6,7,9,42,69,0
19,4,-15,-12,17,-6,-4,8,9,43,70,1
17,6,-11,-12,14,-3,-3,8,10,44,71,2
18,8,-10,-13,14,-1,-3,8,10,44,70,3
17,7,-10,-13,14,-2,-4,6,8,43,69,3
17,6,-11,-12,14,-3,-5,5,7,41,67,2
17,5,-11,-12,15,-3,-6,3,7,40,66,1
17,5,-12,-12,15,-4,-6,2,6,39,66,1
18,4,-14,-12,16,-5,-6,2,6,39,66,1
17,0,-17,-9,17,-9,-7,1,5,38,65,1
17,-3,-21,-7,19,-12,-9,-1,4,36,64,0
21,-2,-24,-10,23,-13,-10,-3,2,35,62,0
20,0,-22,-10,22,-11,-9,-4,2,35,62,-1
13,1,-13,-7,14,-6,-6,-3,3,37,63,-1
10,3,-6,-7,9,-1,-3,-2,4,39,65,0
12,6,-6,-9,10,0,-2,-2,5,39,65,1
16,7,-9,-12,13,-1,-3,-3,4,38,65,0
20,6,-14,-13,18,-4,-5,-6,2,36,63,0
20,4,-17,-12,19,-6,-5,-7,1,36,63,-1
15,1,-15,-9,15,-6,-4,-7,1,37,63,0
10,-1,-13,-5,12,-6,-4,-8,1,37,63,0
7,-2,-11,-3,9,-6,-4,-9,1,36,63,0
5,-2,-7,-2,7,-5,-3,-9,2,36,63,0
6,-1,-7,-3,8,-4,-2,-10,2,36,63,0
9,0,-8,-5,9,-4,-1,-10,2,36,63,0
6,0,-4,-4,5,-1,0,-9,3,37,64,0
2,0,-1,-2,2,0,-1,-9,3,37,64,1
2,-1,-3,-1,3,-2,-3,-11,1,36,62,0
1,-3,-5,0,4,-4,-4,-12,1,35,62,0
1,-4,-6,1,4,-5,-4,-13,0,35,61,0
5,-2,-7,-1,6,-5,-5,-15,0,33,59,-1
8,0,-8,-4,9,-5,-5,-15,0,33,59,-2
9,-1,-10,-4,10,-6,-4,-15,0,33,59,-3
8,-2,-9,-3,8,-6,-4,-15,0,33,59,-3
6,0,-6,-3,6,-3,-3,-15,0,34,59,-3
6,0,-6,-4,6,-2,-3,-15,0,34,60,-3
5,-3,-8,-2,7,-5,-4,-16,-1,34,59,-3
0,-6,-7,2,4,-6,-5,-17,-1,33,58,-3
-4,-7,-4,5,1,-6,-4,-17,-2,33,58,-4
-1,-7,-6,4,2,-7,-4,-17,-2,33,58,-4
2,-5,-7,1,5,-6,-3,-17,-2,33,58,-3
5,-2,-6,-1,5,-4,-2,-17,-2,33,58,-3
5,-1,-6,-2,5,-3,-3,-17,-3,33,58,-3
3,-2,-5,-1,4,-3,-3,-17,-3,33,58,-3
3,-1,-5,-1,4,-2,-2,-17,-3,34,58,-3
4,-1,-6,-2,5,-3,-1,-17,-3,35,59,-2
2,-2,-6,-1,4,-3,-1,-16,-3,35,59,-2
1,-4,-5,1,3,-5,-2,-17,-4,35,58,-3
0,-7,-7,3,4,-7,-4,-18,-5,33,57,-4
2,-7,-9,2,6,-8,-5,-19,-7,32,56,-5
5,-5,-9,0,7,-7,-4,-19,-7,32,56,-5
6,-3,-8,-2,7,-5,-4,-19,-8,32,56,-5
7,-1,-8,-3,8,-4,-5,-20,-9,31,55,-5
6,-1,-8,-3,8,-4,-5,-20,-10,31,55,-5
3,-3,-8,0,6,-5,-5,-19,-10,31,55,-5
2,-4,-7,1,5,-6,-5,-18,-9,32,55,-5
0,-5,-6,2,4,-6,-4,-18,-8,32,56,-5
-4,-8,-5,5,1,-7,-4,-18,-8,31,55,-5
-6,-10,-4,7,-1,-7,-5,-19,-9,30,54,-6
-2,-7,-4,4,1,-5,-5,-19,-8,30,54,-6
3,-3,-6,0,5,-4,-5,-19,-7,31,55,-6
9,-1,-10,-3,10,-5,-5,-18,-6,32,56,-6
11,0,-11,-5,11,-5,-3,-17,-4,33,57,-5
4,0,-5,-2,5,-3,-2,-16,-2,34,59,-5
2,0,-2,-1,3,-2,-1,-16,0,34,59,-4
4,0,-4,-3,5,-2,-3,-17,0,33,59,-5
3,-3,-6,0,5,-5,-4,-18,0,32,58,-5
2,-5,-6,1,4,-6,-4,-17,0,32,58,-5
4,-3,-7,0,5,-4,-2,-16,1,33,59,-5
3,-1,-5,0,4,-3,-1,-15,1,34,60,-4
-1,-3,-2,2,0,-2,-1,-15,1,34,61,-3
-1,-3,-3,2,1,-3,-2,-15,0,33,61,-3
3,-2,-6,-1,5,-4,-3,-16,-1,32,60,-4
6,-1,-8,-2,7,-5,-4,-16,-2,32,60,-4
5,-2,-7,-1,6,-4,-3,-16,-3,32,61,-4
3,-3,-6,0,5,-4,-3,-15,-3,32,61,-4
3,-2,-5,0,4,-3,-3,-15,-4,32,61,-4
0,-2,-2,1,2,-2,-2,-14,-4,33,61,-3
-3,-2,1,3,-1,0,0,-12,-3,34,62,-3
-5,-2,2,3,-3,0,0,-11,-3,35,63,-2
-3,-1,1,2,-2,0,0,-11,-3,35,64,-2
-1,-2,-1,1,1,-1,0,-12,-3,35,64,-1
1,-3,-4,0,3,-3,-1,-12,-4,34,64,-1
2,-2,-4,0,4,-3,0,-12,-4,35,64,-1
1,-1,-3,0,3,-2,0,-12,-3,35,64,-1
-1,-3,-2,2,1,-3,-1,-12,-3,35,64,-1
-1,-3,-2,2,1,-3,0,-12,-3,35,64,-1
0,-2,-3,1,2,-3,0,-11,-2,35,65,0
0,-3,-4,1,3,-4,-1,-11,-2,35,65,0
1,-5,-6,1,4,-5,-2,-12,-2,35,65,0
1,-5,-6,1,3,-6,-2,-12,-1,35,65,0
0,-5,-5,2,2,-5,-2,-12,0,36,65,0
2,-3,-6,0,4,-5,-2,-12,0,35,65,0
2,-1,-4,0,4,-3,-1,-12,0,36,66,0
2,1,-2,-1,3,-1,-1,-11,0,36,66,0
6,4,-2,-5,5,0,-2,-12,0,36,66,-1
8,6,-3,-7,6,1,-2,-12,0,36,66,-1
5,3,-2,-4,3,0,-2,-12,1,36,67,-2
-2,-2,0,2,-1,-1,-2,-12,1,36,67,-2
-9,-7,1,8,-5,-3,-2,-12,1,36,67,-2
-7,-7,0,7,-3,-3,-1,-11,2,37,68,-2
1,0,-2,0,2,-1,1,-10,3,38,70,-2
8,5,-3,-6,6,0,1,-10,3,38,70,-2
8,4,-4,-6,6,-1,0,-11,2,37,70,-2
6,1,-4,-3,6,-2,0,-11,2,37,69,-2
7,1,-5,-4,7,-3,-1,-11,2,36,69,-2
10,1,-8,-6,9,-3,-1,-11,2,36,69,-2
12,2,-9,-7,10,-3,0,-11,2,37,70,-2
11,2,-9,-7,10,-3,0,-11,2,37,70,-2
7,0,-9,-3,8,-4,-2,-11,2,36,69,-3
1,-5,-7,2,4,-6,-4,-13,1,34,68,-4
-6,-9,-5,8,0,-7,-5,-14,0,33,68,-5
-7,-8,-2,8,-2,-5,-3,-13,1,34,69,-5
0,2,0,-1,0,1,0,-11,3,36,72,-3
8,12,2,-10,2,8,4,-10,5,38,74,-2
8,14,5,-12,1,10,5,-9,6,39,75,-1
8,13,5,-11,1,10,5,-9,6,39,76,0
9,13,3,-12,3,8,5,-10,7,39,76,0
8,10,2,-10,3,6,5,-11,7,38,76,0
3,8,4,-6,0,6,4,-11,6,38,76,0
0,7,7,-4,-3,7,4,-11,6,38,76,0
1,9,7,-5,-3,8,5,-12,6,38,76,0
5,10,5,-7,0,8,4,-13,6,37,76,-1
7,11,3,-9,2,7,3,-14,5,37,75,-1
8,10,2,-10,2,7,3,-14,4,37,75,-1
6,10,3,-8,1,7,3,-15,3,37,75,-1
4,10,5,-7,0,8,3,-15,2,36,75,-1
2,7,4,-4,-1,6,2,-16,1,35,74,-2
2,4,0,-3,1,2,-1,-19,-1,33,73,-3
9,7,-3,-8,6,2,-2,-20,-2,33,73,-3
14,15,0,-15,7,7,0,-19,-1,35,75,-2
10,18,8,-14,1,13,2,-17,1,38,77,-1
5,18,14,-12,-4,17,2,-16,2,39,79,0
4,15,11,-10,-4,14,0,-17,1,38,78,0
5,10,4,-8,0,8,-3,-20,-1,36,76,-1
8,11,2,-10,3,7,-4,-21,-2,35,76,-2
12,19,6,-16,3,12,-2,-19,0,37,78,-1
13,24,10,-19,2,17,-1,-18,0,38,80,0
12,24,13,-18,0,18,-1,-18,0,38,80,1
11,23,13,-17,0,18,-1,-18,0,38,80,0
13,22,9,-18,2,16,-2,-19,-1,37,80,0
15,21,7,-18,4,15,-2,-19,-2,37,80,0
11,20,8,-16,2,15,-3,-18,-1,37,80,0
6,19,12,-13,-3,16,-1,-17,0,38,82,1
6,21,13,-14,-3,17,0,-16,2,40,84,2
8,22,12,-15,-1,17,-1,-17,1,39,83,3
10,22,12,-16,0,17,-2,-18,0,37,82,2
8,18,10,-13,-1,14,-3,-19,-1,36,81,2
1,8,6,-4,-2,8,-5,-21,-3,34,80,0
1,7,5,-4,-2,7,-3,-20,-2,35,81,0
8,15,5,-12,1,11,0,-18,0,37,83,1
12,19,4,-16,4,12,1,-17,0,38,84,1
9,15,4,-12,2,9,1,-17,0,37,83,1
6,9,2,-8,2,5,-1,-19,-2,34,81,0
7,5,-3,-6,5,0,-4,-22,-4,31,79,-1
10,4,-6,-7,8,-1,-5,-23,-6,28,77,-3
13,5,-7,-9,10,-1,-4,-24,-7,28,76,-4
8,4,-4,-6,6,0,-1,-23,-6,28,77,-4
1,2,0,-1,0,1,0,-21,-5,29,77,-4
0,3,1,-1,0,2,1,-20,-5,30,78,-4
4,4,-2,-5,3,1,1,-20,-5,29,77,-4
6,3,-4,-5,5,0,0,-21,-6,28,76,-5
-2,-3,-2,2,0,-2,-1,-22,-7,27,74,-6
-14,-12,2,13,-8,-4,-2,-23,-8,25,73,-7
-17,-12,6,14,-11,-2,-2,-23,-8,25,73,-7
-7,-1,6,4,-6,3,2,-20,-6,27,76,-6
1,4,2,-3,0,4,4,-18,-4,29,78,-4
3,2,-3,-2,3,-1,3,-19,-5,28,77,-4
4,-1,-7,-1,5,-5,2,-19,-5,27,76,-5
6,-1,-9,-3,7,-6,1,-20,-6,26,76,-5
7,0,-8,-4,7,-4,1,-20,-6,26,76,-5
5,0,-4,-2,4,-2,3,-18,-5,26,77,-4
1,-1,-2,0,2,-1,4,-17,-4,27,77,-3
-3,-5,-2,4,0,-3,3,-18,-4,26,77,-3
-7,-9,-1,8,-2,-5,1,-19,-4,25,76,-4
-8,-10,-2,8,-1,-6,0,-19,-5,24,76,-5
-8,-10,-3,8,-1,-8,0,-19,-5,23,76,-6
-9,-11,-3,9,-2,-8,1,-19,-4,23,76,-7
-8,-12,-5,9,-1,-9,1,-18,-4,23,77,-6
-8,-14,-7,11,0,-11,0,-19,-5,23,76,-6
-7,-15,-8,11,1,-12,0,-19,-5,22,76,-6
1,-8,-10,3,6,-9,2,-19,-5,23,77,-6
7,-1,-8,-3,8,-5,4,-17,-4,24,78,-6
1,-2,-4,0,3,-4,4,-17,-4,24,78,-6
-6,-7,-2,6,-1,-5,3,-18,-5,23,77,-6
-5,-7,-3,5,0,-6,2,-18,-5,23,77,-7
0,-4,-4,1,2,-5,3,-18,-5,23,77,-7
0,-5,-5,2,3,-6,3,-18,-6,23,77,-6
-4,-9,-4,6,0,-7,3,-18,-6,22,76,-6
-7,-9,-1,8,-3,-5,3,-17,-6,23,76,-6
-6,-7,0,6,-3,-3,4,-17,-6,23,76,-7
-6,-6,0,5,-2,-3,4,-18,-7,22,76,-7
-5,-5,0,5,-2,-3,4,-17,-7,22,76,-7
-3,-5,-2,3,0,-4,6,-16,-7,22,76,-7
0,-6,-7,3,3,-7,7,-16,-8,21,75,-7
0,-9,-9,4,4,-9,9,-14,-8,20,74,-8
-4,-10,-6,7,0,-8,12,-11,-7,21,74,-8
-9,-11,-1,10,-4,-6,15,-8,-5,23,76,-8
-8,-9,0,8,-4,-5,15,-5,-3,25,77,-7
-2,-6,-3,4,0,-5,15,-1,0,28,79,-7
0,-4,-4,2,2,-4,15,4,4,33,83,-5
1,-1,-3,0,2,-2,16,12,12,40,88,-3
6,2,-6,-5,6,-2,17,20,21,49,95,0
16,6,-11,-12,14,-2,16,28,31,59,102,4
27,13,-15,-20,21,-1,14,35,41,70,110,9
35,22,-13,-29,24,4,13,43,53,83,121,15
40,33,-6,-37,23,13,12,50,66,98,132,22
46,44,0,-46,23,22,6,56,79,113,144,30
54,55,1,-55,27,27,-4,58,92,128,155,38
59,64,4,-62,28,34,-17,56,103,141,166,46
63,73,9,-68,27,41,-30,47,110,150,176,53
65,81,15,-74,25,48,-42,29,110,154,182,60
63,86,22,-75,21,54,-51,6,103,149,183,65
55,81,26,-69,15,54,-57,-18,88,135,176,66
46,69,24,-57,11,47,-63,-42,64,110,161,60
35,53,19,-44,8,36,-66,-63,36,80,141,50
20,36,15,-28,2,25,-69,-83,5,47,120,38
6,21,14,-14,-4,17,-73,-102,-25,17,101,27
-4,11,14,-4,-9,12,-74,-116,-48,-6,86,16
-7,7,13,-1,-10,10,-73,-123,-62,-20,76,8
-8,4,11,1,-9,8,-70,-124,-68,-27,70,2
-12,-1,10,6,-11,5,-67,-121,-69,-31,67,-1
-15,-7,9,11,-12,1,-62,-115,-68,-32,65,-5
-15,-11,5,13,-9,-3,-55,-107,-65,-31,64,-8
-15,-13,3,14,-8,-5,-49,-99,-61,-30,64,-10
-17,-13,5,15,-10,-5,-43,-90,-57,-27,65,-11
-19,-13,6,15,-12,-4,-37,-81,-51,-24,66,-12
-18,-13,4,15,-11,-5,-33,-72,-45,-20,67,-12
-19,-16,2,17,-10,-7,-29,-64,-40,-16,69,-12
-23,-22,0,22,-12,-11,-24,-57,-35,-12,71,-12
-24,-25,0,24,-12,-13,-20,-51,-30,-8,73,-11
-17,-18,0,18,-8,-10,-13,-43,-25,-4,77,-10
-8,-9,0,9,-4,-5,-5,-36,-20,1,81,-8
-7,-7,0,7,-3,-4,-1,-30,-16,4,83,-7
-7,-7,0,6,-2,-4,1,-26,-13,6,85,-6
-7,-7,-1,6,-2,-5,3,-23,-11,7,86,-6
-8,-10,-2,8,-2,-6,3,-21,-11,7,86,-6
-8,-11,-3,9,-2,-7,4,-18,-10,9,87,-6
-5,-10,-5,7,0,-7,6,-16,-9,11,89,-5
-2,-8,-5,5,1,-7,7,-13,-8,12,90,-4
-4,-7,-2,6,-1,-5,9,-11,-8,14,91,-3
-7,-8,0,7,-3,-4,11,-9,-7,15,92,-2
-9,-10,0,9,-4,-5,10,-8,-8,14,92,-2
-11,-11,0,10,-5,-6,9,-8,-9,13,91,-2
-11,-8,2,8,-6,-3,10,-6,-8,15,92,-2
-7,-1,5,3,-6,1,13,-3,-6,18,95,-1
-4,2,5,0,-5,3,14,-1,-6,20,96,0
-3,-1,2,2,-3,0,12,-2,-8,18,95,0
-2,-6,-2,4,0,-4,10,-4,-10,16,94,-2
-3,-8,-4,5,0,-7,9,-4,-10,15,93,-3
-3,-7,-3,4,0,-6,10,-3,-9,16,94,-3
-1,-5,-3,2,1,-4,12,-2,-8,16,94,-3
-4,-5,-1,4,-1,-3,13,-1,-7,17,95,-3
-10,-7,2,8,-6,-2,13,-1,-6,18,96,-2
-10,-6,4,8,-7,-1,13,0,-5,19,97,-2
-3,-1,2,3,-3,0,13,0,-4,20,98,-2
1,0,-1,0,1,-1,12,0,-3,19,98,-2
-1,-4,-2,3,0,-3,11,-1,-3,18,97,-3
-7,-7,1,7,-4,-2,11,0,-2,18,98,-3
-10,-6,4,8,-7,0,13,1,1,20,100,-2
-10,-5,4,7,-7,0,14,2,3,21,102,-1
-10,-6,3,7,-6,-1,13,2,4,21,102,-2
-8,-6,2,7,-6,-1,13,1,5,20,102,-2
-6,-5,1,5,-4,-1,12,1,6,20,102,-2
-4,-4,0,5,-3,-2,12,1,6,20,103,-2
-5,-5,0,5,-3,-2,13,1,7,20,103,-2
-5,-7,-1,6,-2,-4,13,1,7,19,104,-2
-3,-7,-4,4,1,-6,12,1,7,19,104,-2
2,-6,-9,0,6,-7,12,2,7,18,105,-2
2,-6,-9,0,6,-7,13,2,8,19,106,-2
-4,-8,-4,5,0,-6,14,3,8,19,106,-2
-7,-8,-1,7,-3,-5,15,3,7,19,107,-2
-6,-7,0,7,-3,-4,15,3,6,19,107,-2
-7,-7,0,8,-4,-4,14,4,5,19,108,-2
-12,-11,1,12,-7,-6,13,3,4,19,107,-2
-17,-15,1,16,-9,-7,12,3,2,17,107,-2
-17,-16,0,16,-8,-8,12,3,0,16,106,-3
-9,-13,-4,10,-2,-8,12,4,0,16,106,-3
-1,-6,-5,3,2,-6,13,5,0,17,107,-3
-1,-3,-2,2,0,-3,13,5,-1,17,107,-3
-2,-4,-1,3,-1,-3,13,6,-1,17,107,-3
-1,-4,-2,3,0,-4,13,6,-2,17,107,-3
1,-3,-3,1,1,-4,14,7,-1,18,107,-3
-1,-3,-2,2,0,-3,15,9,0,19,108,-2
-6,-6,-1,5,-2,-3,15,9,0,18,107,-1
-6,-7,-2,5,-2,-3,14,9,0,17,105,-2
-2,-4,-3,2,0,-3,13,9,0,17,104,-2
-3,-5,-2,4,-1,-3,12,9,0,16,102,-3
-9,-10,0,10,-5,-5,10,8,0,15,101,-4
-11,-14,-2,13,-5,-8,8,7,0,14,99,-5
-4,-9,-5,7,0,-8,9,8,2,15,99,-5
6,0,-7,-3,7,-4,13,11,5,18,101,-4
7,1,-7,-5,8,-2,15,13,7,20,102,-3
5,-2,-8,-2,7,-5,15,13,8,19,102,-3
6,-2,-8,-3,7,-5,14,13,9,19,101,-3
3,-1,-4,-1,3,-3,14,14,9,19,101,-3
-2,-2,0,2,-1,-2,14,14,10,20,100,-2
0,-2,-1,1,0,-3,14,14,10,20,100,-2
4,-1,-4,-1,3,-3,14,15,11,20,100,-2
2,-2,-3,0,2,-3,14,15,11,21,100,-2
-2,-3,-2,3,0,-3,14,16,12,21,100,-2
-3,-4,-2,4,-1,-3,14,16,12,21,100,-2
-3,-5,-3,4,0,-4,14,16,12,21,99,-2
-3,-5,-3,4,0,-5,13,16,12,21,99,-2
-1,-5,-3,3,1,-4,13,16,12,22,99,-2
0,-4,-3,2,1,-4,13,17,12,22,99,-2
1,-3,-4,1,2,-4,13,17,12,23,99,-1
5,-2,-7,-1,5,-4,13,18,13,23,100,-1
7,-1,-9,-3,8,-4,13,19,13,24,100,0
6,0,-6,-3,6,-2,13,20,13,25,100,0
5,1,-5,-3,5,-1,13,20,13,25,100,0
8,3,-5,-5,7,-1,12,21,13,25,101,1
10,6,-4,-8,7,1,13,21,14,26,101,1
9,8,-1,-8,5,3,14,22,15,28,102,2
10,8,-2,-8,5,2,14,22,15,28,102,3
13,7,-5,-10,9,1,13,22,15,28,101,3
15,8,-7,-12,11,1,12,22,15,29,101,4
13,7,-6,-11,9,1,12,22,15,29,101,4
14,7,-6,-11,9,1,12,22,15,30,101,5
14,6,-7,-10,10,0,11,22,15,30,100,5
10,2,-8,-6,8,-3,9,21,14,29,98,5
8,-3,-11,-2,9,-8,4,18,12,26,95,4
10,-5,-14,-2,11,-10,1,15,10,25,93,3
10,-3,-13,-3,11,-8,1,15,10,25,94,2
9,-1,-10,-4,10,-5,3,17,11,27,95,3
7,1,-5,-4,6,-1,5,18,13,29,97,4
7,5,-2,-7,5,2,8,20,14,31,99,5
9,7,-3,-9,6,3,9,20,15,32,100,6
11,5,-5,-8,7,1,7,19,14,32,99,7
14,6,-7,-10,10,0,5,18,13,31,98,6
17,9,-8,-13,12,0,4,17,12,30,98,6
17,10,-7,-13,11,1,3,16,12,30,98,7
14,9,-4,-12,9,2,4,17,12,30,99,7
13,9,-4,-11,8,3,4,16,11,30,100,7
12,9,-4,-11,8,3,2,15,10,29,99,7
12,8,-5,-10,9,2,1,13,9,27,98,6
13,7,-6,-10,10,0,0,12,8,26,96,5
11,5,-6,-8,8,0,-1,10,7,25,94,4
10,4,-5,-7,7,-1,-1,10,7,25,93,4
12,8,-4,-10,7,1,0,10,7,26,94,4
11,8,-2,-10,6,3,1,10,7,27,94,4
9,4,-4,-7,6,0,0,8,5,25,92,4
14,6,-8,-10,11,-1,-2,6,4,23,90,3
16,9,-7,-13,12,1,-1,6,4,23,90,3
11,9,-2,-10,7,3,1,7,5,24,91,3
8,9,0,-8,4,5,3,8,6,26,92,4
8,8,0,-8,4,4,4,7,6,26,92,5
6,8,2,-7,2,4,3,6,5,26,92,5
2,7,5,-5,-2,6,3,5,4,25,91,4
0,6,5,-4,-2,6,2,4,3,24,90,3
5,8,3,-7,1,5,2,2,3,23,89,2
7,7,0,-7,3,3,2,1,2,22,89,1
3,1,-1,-2,2,0,2,0,2,22,88,1
2,1,0,-1,1,0,3,0,2,22,88,1
5,5,0,-5,2,2,5,0,3,23,88,1
8,8,0,-8,4,3,5,0,2,23,87,1
8,8,0,-8,3,3,4,-1,2,22,87,0
5,7,2,-6,1,4,5,-2,2,22,87,0
4,7,2,-5,1,4,5,-3,2,22,88,0
4,5,0,-4,1,2,4,-4,1,21,87,-1
5,3,-1,-4,3,1,2,-6,0,20,85,-2
6,5,0,-5,3,2,2,-6,-1,19,85,-3
3,6,4,-4,0,5,3,-7,-1,19,85,-3
-2,5,8,0,-6,6,3,-8,-1,19,85,-4
-5,4,10,1,-8,7,3,-8,-2,19,85,-5
-5,4,10,1,-8,7,5,-8,-1,20,86,-5
-6,2,9,2,-8,6,7,-7,0,21,88,-4
-6,0,6,2,-7,4,7,-7,0,21,88,-4
-4,0,5,1,-5,3,7,-7,0,22,88,-3
-1,3,5,0,-4,4,7,-7,0,22,88,-3
1,5,5,-2,-3,5,6,-8,-1,21,88,-3
1,5,4,-2,-2,4,5,-10,-2,20,87,-4
-2,2,4,0,-3,2,3,-12,-3,19,86,-5
-4,1,5,1,-4,3,4,-12,-3,19,86,-6
0,3,3,-1,-2,3,5,-12,-3,19,87,-5
3,3,0,-3,2,2,5,-13,-4,18,87,-6
1,0,-1,-1,2,0,4,-14,-5,17,86,-7
-2,-2,0,3,0,-1,4,-14,-5,17,86,-7
-5,-3,2,5,-3,0,4,-13,-5,18,87,-8
-9,-3,6,7,-7,1,4,-13,-5,18,88,-8
-11,-4,7,8,-9,2,4,-14,-5,18,88,-8
-10,-4,6,8,-8,1,3,-15,-6,18,87,-8
-11,-8,4,10,-8,-1,2,-17,-7,17,86,-9
-15,-11,4,13,-10,-3,2,-17,-7,17,87,-9
-12,-7,5,10,-9,0,4,-16,-6,18,88,-8
-3,0,4,2,-4,2,5,-16,-6,18,89,-7
0,3,3,-1,-2,4,5,-16,-6,18,89,-7
-2,3,5,0,-4,4,5,-15,-6,19,90,-7
-3,3,6,0,-6,4,6,-15,-5,19,92,-6
-5,2,7,1,-7,4,6,-14,-5,20,93,-5
-6,0,6,2,-6,3,5,-15,-6,19,93,-5
-5,0,5,2,-5,2,4,-16,-7,18,92,-6
-3,1,5,0,-4,3,4,-16,-7,18,92,-6
-3,0,3,1,-3,2,3,-17,-8,17,92,-6
-3,0,3,1,-4,2,4,-16,-7,18,92,-6
-2,4,6,0,-5,5,6,-15,-6,18,92,-5
-2,6,9,-2,-6,8,7,-15,-6,19,92,-5
-3,7,10,-2,-7,9,6,-15,-6,19,92,-4
-3,7,10,-2,-6,9,6,-16,-6,18,91,-5
-4,3,8,0,-5,6,5,-17,-6,17,90,-5
-6,-1,4,3,-5,2,4,-17,-5,16,90,-6
-9,-5,3,7,-6,0,5,-17,-5,16,89,-6
-11,-6,4,9,-8,-1,6,-17,-4,16,89,-6
-11,-5,5,9,-8,0,7,-17,-3,16,89,-6
-10,-7,3,9,-7,-2,5,-18,-4,14,87,-7
-7,-8,-1,9,-4,-5,3,-19,-5,13,84,-9
-4,-5,-1,5,-2,-3,3,-19,-5,13,83,-9
-4,-1,4,3,-4,1,6,-16,-3,15,84,-9
-7,1,9,3,-8,6,10,-14,-1,18,85,-7
-8,2,11,2,-10,7,11,-13,0,19,85,-6
-6,3,10,1,-9,7,10,-14,-1,18,84,-6
-5,3,9,2,-8,6,8,-15,-3,17,82,-7
-7,0,7,4,-8,3,7,-16,-4,16,80,-7
-9,-4,5,7,-8,1,6,-16,-5,15,79,-7
-12,-6,5,9,-9,0,5,-17,-7,15,77,-8
-14,-7,6,10,-10,0,5,-18,-7,14,75,-9
-10,-4,5,6,-7,0,5,-17,-8,15,74,-9
-4,0,3,1,-2,1,6,-17,-8,15,73,-9
-2,1,4,0,-3,3,6,-17,-8,15,72,-9
0,4,4,-2,-3,4,6,-17,-8,15,70,-9
2,4,2,-3,0,3,5,-17,-8,14,68,-10
0,3,4,-1,-3,3,7,-16,-7,15,66,-10
-4,4,10,0,-7,7,10,-13,-6,18,66,-9
-5,5,11,0,-8,8,11,-12,-5,19,64,-9
-7,1,9,3,-8,5,10,-13,-6,18,60,-9
-14,-7,7,10,-10,0,7,-15,-7,16,54,-10
-16,-11,5,14,-11,-2,5,-17,-9,14,48,-11
-11,-7,5,9,-9,-1,5,-16,-8,14,44,-12
-8,-4,6,6,-8,0,6,-16,-8,15,40,-13
-11,-7,5,9,-9,-1,6,-16,-7,15,35,-13
-8,-5,3,6,-7,-1,7,-15,-6,16,32,-12
-2,3,5,-1,-4,4,10,-12,-4,18,30,-11
-1,8,8,-4,-4,9,11,-11,-3,19,26,-10
-2,9,10,-4,-6,10,11,-11,-2,19,21,-10
-2,9,11,-4,-6,11,11,-11,-2,20,16,-9
-2,8,10,-3,-6,10,11,-11,-1,20,10,-8
-4,5,10,0,-8,8,10,-11,-1,20,4,-8
-11,0,11,5,-12,6,8,-12,-2,19,-2,-9
-14,-3,11,8,-13,4,7,-12,-2,18,-8,-10
-8,0,8,4,-9,4,7,-12,-2,18,-14,-10
-4,1,6,1,-5,4,8,-12,-2,18,-19,-10
-6,1,9,2,-7,5,9,-12,-1,19,-24,-10
-7,3,11,2,-9,7,10,-12,0,19,-29,-9
-2,6,8,-2,-5,7,9,-12,0,19,-35,-9
1,6,6,-4,-3,6,8,-12,0,19,-41,-10
0,6,6,-3,-5,6,7,-12,0,18,-48,-10
-1,5,7,-2,-6,6,7,-12,0,18,-54,-11
-2,4,7,-1,-6,5,7,-12,0,18,-60,-11
-5,3,7,1,-6,5,7,-12,0,18,-66,-11
-3,5,8,-1,-6,6,7,-12,0,18,-71,-11
-2,8,11,-2,-6,10,8,-12,1,19,-76,-10
-8,7,15,0,-11,11,9,-12,2,19,-81,-10
-10,5,15,2,-13,10,10,-11,3,20,-85,-9
-6,4,10,1,-9,8,9,-11,3,20,-90,-9
-1,3,4,-1,-4,4,7,-13,2,18,-98,-10
-1,3,3,-1,-3,3,5,-14,1,17,-105,-11
-1,5,6,-1,-3,4,6,-14,1,18,-111,-12
0,7,7,-4,-2,6,6,-13,1,18,-116,-12
2,8,6,-5,-1,6,6,-14,1,18,-122,-12
2,7,6,-4,-1,6,5,-15,0,17,-127,-13
-2,6,8,-2,-5,7,6,-14,1,17,-131,-13
-5,5,10,0,-9,7,6,-14,1,18,-134,-13
-3,6,9,-2,-7,7,7,-13,1,19,-137,-12
0,8,7,-4,-4,7,7,-13,1,19,-139,-12
0,7,7,-3,-4,7,7,-14,1,19,-142,-12
0,7,7,-3,-4,7,7,-14,1,19,-145,-12
-3,8,11,-2,-7,9,7,-13,1,19,-149,-11
-9,6,15,1,-12,11,7,-13,0,19,-154,-11
-11,6,18,2,-14,12,8,-13,0,19,-161,-11
-7,11,18,-2,-13,14,8,-13,0,20,-167,-11
-1,14,15,-7,-8,14,8,-13,0,20,-173,-10
0,15,14,-9,-7,15,8,-13,0,21,-179,-9
-1,14,14,-7,-8,14,8,-12,0,21,-185,-9
-3,8,12,-3,-7,10,8,-13,0,21,-193,-9
-7,5,13,0,-9,9,7,-13,-1,21,-203,-9
-10,6,17,2,-14,12,7,-13,-1,21,-214,-9
-14,5,20,4,-17,13,4,-15,-2,20,-230,-9
-13,6,21,3,-18,13,1,-17,-4,19,-248,-10
-7,11,19,-2,-14,15,1,-16,-3,20,-267,-9
-3,14,17,-6,-11,15,2,-15,-2,22,-287,-8
-2,15,17,-7,-10,16,3,-14,-1,24,-308,-7
-1,17,19,-7,-10,17,3,-14,0,25,-330,-6
0,17,17,-8,-8,17,1,-15,-1,23,-357,-6
5,19,14,-12,-3,16,0,-16,-2,22,-390,-6
9,24,15,-16,-2,19,1,-15,-1,22,-428,-6
7,27,19,-17,-5,23,2,-14,0,23,-469,-5
3,25,22,-14,-9,23,3,-13,0,24,-513,-4
0,20,20,-10,-10,21,2,-13,0,24,-561,-3
-2,15,17,-7,-10,16,1,-14,0,23,-611,-3
-2,13,15,-6,-9,14,0,-15,0,23,-666,-4
1,15,14,-8,-6,14,0,-15,0,23,-726,-4
2,15,14,-8,-5,14,-1,-16,-1,22,-792,-4
-3,9,14,-2,-8,11,-4,-17,-2,20,-862,-4
-9,4,13,3,-11,8,-5,-18,-4,18,-933,-5
-6,8,14,0,-10,11,-3,-17,-3,19,-1002,-6
1,17,15,-9,-7,16,1,-14,-1,21,-1069,-4
5,20,14,-12,-5,17,2,-13,0,22,-1135,-3
5,18,12,-12,-4,15,2,-14,-1,22,-1201,-3
4,15,11,-10,-4,14,1,-14,-1,21,-1264,-3
4,12,10,-8,-3,11,0,-15,-3,19,-1325,-3
5,9,6,-7,0,7,0,-17,-4,16,-1384,-4
7,8,3,-7,2,5,-1,-17,-5,15,-1440,-5
5,9,5,-7,0,6,0,-17,-5,14,-1493,-6
0,8,7,-4,-4,7,1,-17,-5,14,-1544,-6
-2,5,7,-2,-5,6,1,-17,-6,14,-1593,-7
-1,2,3,-2,-2,2,-1,-19,-8,12,-1642,-8
-2,-1,0,1,-1,-1,-3,-20,-9,10,-1690,-10
-8,-2,7,5,-7,2,-2,-20,-9,10,-1733,-11
-13,1,15,6,-14,7,1,-18,-7,12,-1773,-11
-15,0,16,8,-16,8,3,-16,-7,12,-1813,-10
-15,-3,12,9,-14,4,3,-17,-8,12,-1852,-10
-12,-6,6,9,-9,0,2,-18,-9,11,-1889,-11
-10,-6,2,7,-6,-2,2,-18,-9,11,-1925,-11
-8,-5,1,6,-5,-2,2,-18,-9,11,-1960,-11
-8,-7,0,7,-3,-4,2,-18,-9,11,-1995,-11
-8,-8,-1,8,-3,-5,2,-18,-10,10,-2029,-11
-7,-7,1,7,-4,-3,2,-18,-10,10,-2061,-12
-3,-2,1,3,-2,-1,2,-18,-10,10,-2093,-12
0,0,0,0,0,0,1,-18,-10,10,-1288,-12
-2,-2,1,2,-1,-1,2,-18,-10,10,13,-12
-10,-5,4,7,-7,-1,3,-17,-10,11,776,-12
-14,-8,5,10,-10,-2,3,-17,-10,11,1217,-12
-14,-11,2,12,-9,-4,3,-18,-10,10,1467,-12
-9,-10,-1,10,-5,-5,3,-17,-10,10,1606,-13
-5,-7,-2,6,-2,-4,4,-16,-10,10,1679,-13
-3,-5,-1,4,-1,-3,5,-15,-9,11,1713,-12
-2,-3,0,3,-1,-2,5,-14,-9,11,1724,-12
-2,-2,0,2,-1,-1,5,-14,-9,11,1721,-12
-3,-2,1,2,-2,-1,6,-14,-9,12,1711,-12
-4,-3,0,3,-2,-2,5,-14,-9,12,1696,-12
-6,-6,-1,5,-2,-4,3,-15,-10,10,1677,-12
-8,-9,-1,8,-3,-5,2,-16,-11,9,1658,-13
-10,-10,0,10,-5,-5,2,-16,-11,9,1639,-14
-11,-11,0,11,-5,-5,2,-16,-11,9,1621,-14
-13,-13,1,14,-6,-6,1,-16,-12,8,1603,-15
-17,-16,2,17,-10,-7,0,-17,-13,7,1586,-15
-21,-18,3,20,-12,-8,0,-19,-14,6,1569,-16
-18,-15,2,16,-10,-7,0,-19,-14,6,1553,-16
-10,-7,1,8,-6,-3,2,-17,-13,8,1540,-15
-6,-3,2,4,-4,-1,5,-15,-12,10,1527,-13
-5,-4,0,4,-3,-2,8,-13,-11,10,1514,-12
-3,-6,-2,4,-1,-4,9,-12,-11,9,1500,-13
-4,-8,-3,6,0,-6,12,-10,-10,9,1487,-13
-8,-11,-2,10,-3,-6,13,-8,-9,10,1475,-14
-15,-13,1,14,-8,-6,14,-6,-8,11,1464,-14
-18,-13,3,15,-10,-5,15,-3,-5,13,1454,-13
-15,-10,3,12,-10,-3,15,1,-2,16,1445,-13
-8,-5,2,6,-5,-2,15,7,3,21,1438,-11
1,-1,-2,0,1,-2,16,15,11,29,1433,-9
8,1,-6,-5,6,-2,17,24,21,38,1431,-6
16,5,-9,-10,12,-2,15,32,31,48,1430,-2
26,14,-10,-19,18,2,14,39,42,60,1430,2
33,26,-6,-29,20,10,14,48,55,74,1433,9
38,37,-1,-37,20,18,11,55,67,88,1437,16
43,47,3,-45,20,25,2,59,79,101,1440,23
51,58,5,-55,22,32,-10,60,91,115,1510,30
58,67,8,-62,24,37,-22,58,102,129,839,37
60,72,13,-66,22,43,-36,48,107,137,-288,44
61,78,18,-69,21,48,-50,28,105,138,-867,50
63,82,20,-72,21,51,-61,1,95,131,-1135,54
58,78,21,-68,18,50,-70,-26,77,115,-1232,54
46,67,21,-57,13,44,-76,-52,52,91,-1238,48
31,52,20,-42,6,36,-79,-73,24,62,-1196,39
19,40,21,-30,-1,30,-80,-92,-6,33,-1128,29
8,31,21,-19,-6,26,-81,-110,-35,6,-1048,19
-1,19,20,-8,-11,20,-81,-123,-57,-14,-964,10
-9,8,18,0,-13,13,-80,-129,-70,-28,-880,1
-14,0,16,8,-15,8,-79,-131,-77,-36,-799,-5
-18,-4,15,12,-16,5,-73,-127,-77,-38,-722,-10
-19,-7,12,14,-16,2,-64,-119,-75,-38,-651,-13
-20,-10,8,16,-14,-1,-57,-111,-72,-37,-588,-16
-21,-13,6,17,-14,-3,-51,-103,-69,-36,-532,-18
-25,-15,8,20,-17,-4,-46,-94,-64,-34,-481,-20
-30,-18,10,24,-21,-4,-40,-84,-58,-30,-435,-21
-29,-19,11,24,-21,-4,-35,-76,-52,-26,-394,-22
-23,-16,8,20,-16,-4,-31,-68,-47,-22,-358,-22
-16,-13,5,15,-11,-4,-25,-61,-41,-18,-326,-22
-15,-11,5,13,-10,-3,-20,-55,-37,-15,-298,-21
-17,-10,6,14,-12,-2,-14,-50,-33,-11,-274,-21
-17,-9,6,13,-12,-2,-9,-44,-29,-8,-253,-20
-15,-9,4,12,-9,-3,-5,-38,-26,-5,-235,-20
-13,-10,1,12,-7,-5,-2,-33,-23,-3,-219,-19
-12,-14,-2,13,-5,-9,-1,-30,-21,-1,-205,-20
-8,-12,-2,10,-3,-7,1,-27,-19,1,-192,-19
-5,-5,2,5,-3,-1,5,-22,-15,5,-178,-18
-7,-4,5,5,-5,0,7,-20,-13,7,-168,-16
-10,-6,4,8,-7,-1,7,-20,-13,6,-161,-16
-12,-8,4,10,-8,-2,6,-19,-14,6,-156,-16
-13,-9,3,11,-8,-4,6,-19,-15,5,-151,-17
-13,-9,3,11,-7,-4,7,-17,-15,6,-146,-17
-11,-7,3,9,-7,-2,8,-14,-14,7,-141,-16
-7,-5,2,6,-5,-1,8,-13,-13,8,-136,-16
-4,-2,3,3,-4,0,9,-12,-13,9,-132,-15
-7,-3,4,5,-5,0,9,-11,-13,10,-129,-15
-10,-6,4,8,-6,-1,9,-12,-13,10,-127,-16
-13,-8,4,10,-8,-2,9,-12,-13,10,-126,-16
-11,-6,3,8,-7,-2,9,-11,-13,10,-124,-16
-4,-4,0,3,-2,-2,9,-11,-14,10,-123,-17
-1,-2,-1,1,0,-2,10,-10,-13,11,-120,-17
-2,-2,0,1,-2,-1,10,-9,-12,12,-117,-17
-3,-3,1,3,-3,-1,10,-8,-11,12,-114,-17
-7,-5,4,6,-6,0,10,-8,-10,12,-111,-18
-11,-6,6,9,-9,0,10,-8,-10,11,-109,-18
-10,-7,4,9,-7,-1,9,-9,-10,10,-109,-19
-8,-5,3,6,-5,-1,9,-8,-9,10,-107,-19
-7,-3,4,5,-5,0,10,-7,-8,11,-105,-18
-7,-5,2,6,-4,-2,9,-7,-7,11,-104,-19
-7,-9,-1,8,-4,-5,7,-8,-7,9,-103,-20
-8,-10,-1,9,-4,-6,7,-8,-6,9,-101,-21
-11,-11,0,11,-7,-5,7,-7,-5,10,-98,-21
-14,-12,2,13,-9,-4,8,-7,-4,10,-95,-21
-9,-8,0,9,-4,-3,9,-6,-3,10,-93,-20
-2,-4,-3,3,1,-3,9,-6,-2,10,-92,-19
-2,-2,-2,2,1,-2,10,-6,-1,11,-90,-19
-4,-1,2,2,-2,1,12,-4,0,13,-87,-19
-5,0,4,2,-5,2,13,-3,2,14,-85,-18
-7,-2,5,4,-7,2,13,-2,2,15,-83,-18
-8,-4,5,6,-8,1,13,-2,2,15,-82,-17
-8,-4,4,6,-7,0,12,-2,1,14,-81,-17
-6,-4,3,6,-4,-1,11,-3,0,13,-81,-16
-5,-4,1,5,-2,-2,11,-3,-2,13,-80,-16
-7,-6,2,7,-4,-2,11,-3,-3,13,-80,-16
-10,-7,3,8,-6,-2,12,-3,-5,13,-79,-16
-8,-5,3,7,-6,-1,12,-2,-6,13,-79,-16
-5,-4,1,4,-4,-2,12,-2,-7,13,-79,-16
-2,-5,-2,3,0,-4,11,-3,-8,13,-79,-16
-1,-5,-3,3,0,-4,11,-2,-9,13,-78,-16
-2,-4,-1,3,-1,-2,12,-1,-9,13,-77,-15
-4,-4,1,4,-2,-1,12,-1,-10,13,-77,-15
-5,-2,2,3,-3,0,12,0,-11,13,-77,-15
-4,-1,3,2,-3,1,12,0,-12,13,-77,-15
-5,-4,1,4,-3,-2,11,0,-12,13,-77,-15
-8,-10,-1,8,-4,-6,10,0,-12,13,-77,-16
-10,-11,0,11,-6,-6,9,0,-12,13,-76,-16
-7,-7,1,7,-5,-3,10,2,-10,14,-75,-16
-5,-4,1,4,-3,-2,11,3,-9,15,-74,-16
-5,-5,1,5,-2,-2,11,4,-8,15,-74,-16
-7,-5,1,6,-3,-2,10,5,-8,14,-74,-17
-9,-6,2,7,-5,-2,10,5,-7,14,-74,-17
-10,-7,3,7,-6,-2,12,7,-6,15,-73,-17
-7,-6,1,6,-5,-3,12,8,-4,16,-72,-17
-4,-5,0,4,-3,-3,12,8,-4,15,-72,-17
0,-2,0,1,-1,-2,11,8,-4,15,-71,-17
2,0,-1,-1,1,-1,10,8,-3,15,-70,-17
3,0,-2,-2,3,-1,11,10,-2,15,-69,-17
1,-3,-5,0,3,-4,12,11,-2,16,-68,-17
-5,-9,-5,6,0,-7,10,12,-2,16,-68,-17
-10,-11,-1,10,-4,-6,10,12,-2,16,-67,-17
-10,-7,2,8,-6,-2,12,14,0,17,-65,-17
-8,-6,3,7,-6,-1,11,14,0,17,-64,-16
-5,-6,0,6,-3,-3,10,14,0,17,-64,-17
1,-2,-2,1,1,-2,11,16,1,18,-61,-17
6,3,-2,-4,4,0,13,18,2,20,-58,-16
7,5,-2,-6,5,1,13,20,2,20,-57,-15
7,5,-2,-6,5,1,12,21,2,20,-55,-15
5,4,-1,-5,3,1,13,22,2,21,-54,-14
3,2,0,-3,1,1,13,23,3,22,-52,-13
1,0,-1,-1,1,0,13,24,4,23,-50,-13
3,0,-3,-2,3,-1,11,25,4,23,-49,-12
4,0,-3,-2,3,-1,10,25,4,23,-48,-12
1,-1,-2,0,1,-2,8,25,4,23,-48,-13
0,-4,-4,2,2,-4,7,25,3,22,-47,-13
-1,-7,-6,4,3,-6,6,25,2,22,-45,-14
-2,-7,-5,4,1,-6,6,26,1,22,-43,-14
1,-2,-4,0,2,-3,7,27,2,23,-41,-13
8,4,-3,-6,4,0,9,29,4,25,-38,-11
11,8,-2,-9,5,2,10,30,5,27,-35,-9
12,8,-3,-10,6,2,10,31,5,28,-34,-8
14,9,-4,-12,8,2,9,32,4,28,-33,-7
17,11,-5,-14,11,2,8,32,4,28,-33,-7
19,11,-7,-15,13,1,8,32,3,28,-32,-6
17,10,-7,-14,12,1,8,32,3,29,-32,-6
15,10,-5,-13,11,2,7,32,2,29,-31,-5
16,9,-7,-13,12,1,5,31,1,27,-32,-5
17,7,-10,-12,13,-1,3,29,-1,25,-32,-6
14,4,-10,-9,12,-3,1,28,-2,24,-33,-6
12,3,-8,-7,9,-2,0,28,-3,24,-32,-6
12,4,-6,-8,9,-1,1,28,-3,25,-31,-6
9,4,-4,-6,7,0,1,29,-3,25,-30,-5
6,5,0,-5,3,2,3,30,-3,26,-28,-5
7,8,2,-8,2,5,4,30,-2,27,-27,-4
11,10,0,-10,5,5,4,29,-3,27,-26,-3
16,11,-4,-13,9,3,2,28,-3,26,-26,-3
19,12,-7,-15,13,2,0,26,-4,25,-27,-2
20,11,-9,-15,14,1,0,25,-5,24,-27,-2
19,10,-8,-14,13,1,0,24,-6,24,-27,-2
16,9,-7,-13,12,1,0,24,-6,24,-27,-2
10,8,-2,-10,7,3,0,24,-7,24,-26,-2
6,11,4,-9,1,7,2,24,-6,25,-25,-1
7,13,6,-11,0,10,3,24,-6,25,-24,0
8,12,5,-10,1,8,3,23,-6,25,-24,0
7,11,4,-9,1,7,3,21,-7,24,-24,0
6,10,4,-7,0,7,3,20,-7,24,-24,0
4,8,4,-5,0,6,3,19,-8,24,-24,0
3,6,3,-5,1,5,3,19,-8,23,-24,0
5,6,1,-6,3,4,2,18,-10,22,-24,-1
10,7,-3,-8,6,3,1,16,-11,21,-25,-3
14,9,-5,-11,10,2,1,15,-12,20,-25,-4
12,10,-1,-10,6,5,3,15,-12,20,-24,-4
3,8,5,-5,-1,7,4,15,-12,21,-23,-4
-1,7,8,-2,-5,7,4,15,-12,21,-23,-4
-2,5,7,-1,-4,6,3,14,-13,20,-22,-4
-3,3,6,-1,-4,4,3,13,-13,20,-22,-4
-3,3,6,0,-4,4,4,13,-14,20,-22,-4
-2,3,5,0,-3,3,4,11,-15,20,-22,-5
-1,3,4,-1,-2,3,3,9,-16,18,-22,-6
0,3,4,-2,-2,4,3,8,-17,17,-22,-7
0,3,4,-2,-2,3,3,6,-18,16,-22,-8
2,4,2,-3,0,2,2,5,-18,16,-22,-8
6,6,0,-7,3,2,3,4,-17,17,-20,-8
7,8,0,-9,3,4,4,4,-17,18,-19,-8
3,8,5,-7,0,6,5,5,-17,19,-17,-8
-1,7,8,-4,-4,8,6,5,-16,20,-16,-7
-2,5,7,-2,-4,7,6,4,-16,20,-15,-7
-3,2,5,0,-4,4,5,2,-17,19,-15,-7
-5,0,5,2,-5,3,4,1,-18,18,-15,-7
-6,-1,5,3,-6,2,4,0,-19,17,-15,-7
-6,-1,5,4,-6,2,4,-1,-19,17,-15,-7
-6,0,6,2,-6,3,4,-1,-19,17,-14,-7
-3,3,6,-1,-5,5,6,-1,-18,18,-12,-7
-1,5,6,-2,-3,5,7,0,-18,19,-10,-6
0,5,5,-3,-2,5,6,-1,-18,18,-9,-6
0,6,6,-3,-2,6,6,-2,-18,18,-9,-6
0,6,8,-3,-4,7,6,-2,-18,18,-8,-6
-3,6,10,-1,-6,8,7,-1,-17,19,-6,-5
-7,2,10,2,-9,6,7,-1,-17,19,-5,-4
-11,0,11,6,-11,5,7,-1,-17,19,-4,-4
-11,-1,10,6,-10,4,7,-1,-18,19,-3,-4
-7,-1,6,4,-6,2,5,-2,-19,18,-3,-4
-3,-1,1,2,-2,0,4,-4,-21,17,-3,-6
4,2,-2,-3,3,0,3,-5,-22,16,-3,-7
8,6,-2,-6,4,2,3,-5,-22,16,-1,-7
5,6,1,-5,1,4,4,-5,-21,17,1,-6
2,5,3,-3,-1,4,4,-6,-22,16,1,-6
0,3,4,-1,-3,4,4,-7,-23,16,2,-6
-4,4,8,0,-7,6,5,-6,-24,16,3,-5
-5,5,10,0,-8,8,7,-5,-24,17,5,-4
-7,3,10,1,-9,7,7,-4,-24,18,7,-4
-10,-1,9,5,-10,4,7,-5,-24,18,8,-4
-8,-1,8,5,-8,3,7,-5,-24,18,9,-4
-3,2,7,0,-6,5,8,-5,-24,18,10,-3
-2,4,7,-1,-5,5,7,-6,-25,17,10,-3
-3,2,6,0,-4,3,5,-7,-26,15,9,-3
-2,0,3,1,-3,2,4,-9,-27,14,9,-4
-1,1,2,0,-1,2,4,-9,-27,14,10,-4
0,3,3,-2,-1,3,5,-9,-26,15,11,-4
-1,5,5,-2,-3,5,6,-8,-25,15,12,-3
-2,3,6,0,-4,4,6,-9,-25,15,13,-3
-4,0,6,2,-5,3,5,-10,-25,14,13,-3
-6,0,7,3,-7,3,5,-11,-25,14,14,-3
-3,2,6,0,-5,4,5,-11,-24,14,15,-3
0,4,3,-2,-2,4,4,-11,-25,13,15,-3
-2,2,4,0,-4,4,4,-11,-25,13,15,-3
-10,0,10,4,-10,5,6,-10,-24,14,17,-3
-12,1,13,5,-12,7,8,-8,-23,16,18,-2
-7,3,11,1,-9,7,8,-8,-22,16,19,-1
-3,4,9,0,-7,6,8,-8,-23,16,19,-1
-2,3,7,0,-5,5,6,-10,-24,15,19,-2
0,3,5,-1,-3,4,5,-11,-24,14,18,-3
0,2,4,-1,-2,3,5,-10,-24,14,18,-3
-4,0,5,1,-4,3,5,-10,-24,14,19,-3
-7,0,7,3,-7,4,7,-9,-24,15,19,-3
-7,2,9,2,-8,5,8,-9,-25,15,20,-3
-6,3,9,1,-8,6,8,-9,-25,14,20,-3
-6,1,9,2,-8,4,8,-9,-25,14,21,-3
-7,0,7,4,-7,3,8,-9,-25,14,21,-3
-7,-1,7,4,-7,3,8,-9,-24,15,21,-2
-5,2,8,1,-6,5,9,-8,-24,15,22,-2
-2,5,7,-2,-5,6,9,-7,-24,16,22,-2
-2,4,6,-2,-4,6,8,-7,-24,15,22,-2
-2,3,5,-1,-4,5,6,-8,-24,14,21,-3
0,4,4,-2,-2,4,5,-8,-25,13,21,-3
0,5,6,-3,-3,5,6,-8,-24,14,22,-3
-3,5,10,-1,-7,7,7,-6,-22,15,24,-3
-8,4,13,2,-11,8,9,-5,-21,17,26,-2
-9,3,13,3,-11,8,10,-4,-20,17,26,-1
-7,3,11,2,-9,7,10,-3,-19,18,26,-1
-7,3,10,1,-8,7,10,-3,-19,18,26,0
-9,3,11,2,-9,7,9,-3,-19,18,26,0
-8,3,10,1,-9,7,8,-4,-19,17,26,-1
-4,4,8,0,-6,6,8,-3,-18,17,27,-1
-1,5,7,-2,-5,5,9,-2,-17,18,28,0
-1,4,7,-1,-4,5,9,-2,-16,19,29,0
-4,0,6,2,-5,3,8,-2,-16,18,28,0
-11,-5,6,8,-9,1,7,-2,-16,18,28,0
-14,-7,7,11,-11,1,7,-2,-15,18,28,0
-9,-3,5,6,-7,1,7,-1,-14,19,29,0
0,2,1,-1,-1,2,8,0,-12,19,30,1
1,4,3,-3,-1,4,9,0,-11,20,30,1
-2,6,9,-2,-6,7,11,2,-10,21,31,2
-1,8,11,-3,-7,8,12,3,-8,23,32,3
0,8,9,-4,-5,8,12,4,-8,23,33,4
0,7,8,-3,-5,7,11,3,-8,23,32,4
-2,6,8,-2,-5,8,10,3,-9,23,32,4
-2,7,8,-3,-5,9,9,3,-9,22,32,4
-2,6,8,-2,-6,8,9,3,-9,22,32,3
-5,3,8,0,-7,7,9,3,-9,22,32,3
-7,1,8,2,-8,5,9,3,-9,22,32,3
-7,0,8,3,-8,4,8,2,-9,21,31,2
-6,0,8,2,-7,4,7,2,-9,20,31,2
-1,4,7,-1,-4,5,8,3,-8,20,32,1
4,7,4,-6,0,6,8,3,-8,21,32,2
8,9,0,-9,4,5,8,3,-8,21,32,2
10,9,-2,-10,6,3,7,3,-8,20,31,2
5,6,0,-5,2,3,8,3,-8,21,32,2
-4,4,8,0,-6,5,10,5,-6,23,33,3
-9,4,14,2,-12,7,11,6,-5,24,33,3
-8,4,14,2,-11,7,10,5,-6,23,32,3
-4,6,12,-2,-7,8,10,4,-6,23,32,2
-1,10,12,-5,-6,10,10,5,-5,24,32,3
-2,11,13,-4,-7,12,10,5,-5,24,31,3
-1,11,12,-5,-6,12,10,5,-5,24,31,3
1,13,12,-7,-5,13,10,5,-5,24,30,3
3,14,11,-8,-4,13,9,4,-5,24,29,3
5,15,11,-9,-3,13,9,4,-4,24,29,3
3,13,11,-8,-5,12,10,5,-3,24,29,4
0,10,12,-5,-6,11,10,5,-3,24,28,5
-1,8,11,-3,-6,10,9,4,-3,23,26,5
-2,10,13,-4,-8,12,10,4,-2,24,26,5
-4,12,16,-3,-10,14,11,6,0,25,27,6
-4,11,16,-3,-10,14,11,6,0,25,26,7
-3,10,13,-3,-8,11,9,4,-1,24,24,6
-3,9,13,-3,-8,11,8,3,-1,24,23,6
-1,12,14,-5,-9,13,8,3,0,24,23,6
0,14,14,-7,-7,14,7,2,0,23,22,6
1,13,12,-7,-6,12,3,0,-1,22,20,5
3,12,10,-8,-3,11,0,-2,-2,21,17,4
9,17,7,-13,1,12,1,-1,-1,22,17,4
14,22,8,-18,3,15,4,0,1,24,19,6
10,23,13,-17,-1,18,6,2,3,26,19,7
3,21,18,-12,-7,19,6,2,4,26,19,8
-2,17,20,-8,-12,18,5,2,4,26,18,9
-4,16,21,-6,-13,18,5,3,5,26,18,10
-3,17,21,-7,-12,19,5,4,6,27,18,10
0,19,20,-9,-10,20,5,4,7,27,17,11
3,20,18,-11,-7,19,5,3,7,27,16,11
4,18,15,-11,-5,17,4,3,7,27,15,10
5,17,13,-11,-4,16,3,2,7,26,14,10
7,19,12,-13,-3,16,3,2,7,26,13,10
7,17,10,-13,-2,14,2,1,6,25,11,10
6,15,9,-11,-2,12,1,0,5,24,10,10
8,17,9,-12,-1,12,3,1,6,24,10,10
7,17,9,-12,-1,13,4,1,7,25,10,10
3,13,9,-8,-3,12,4,1,7,24,9,10
0,10,9,-5,-4,11,3,0,6,24,8,9
1,10,9,-5,-4,10,4,0,6,24,7,10
3,11,8,-7,-2,10,5,0,6,23,7,10
4,12,7,-8,-1,9,5,0,5,22,6,10
4,11,7,-7,-1,8,4,0,5,21,4,9
0,9,8,-4,-4,8,4,0,4,20,3,8
-3,7,10,-2,-7,8,4,0,5,19,2,8
-3,5,8,-1,-5,6,5,0,5,19,1,7
-1,2,3,0,-2,3,4,0,4,18,0,7
0,0,1,0,-1,1,4,0,4,17,-1,6
-1,1,2,0,-1,2,5,0,4,17,-1,6
-1,1,2,0,-2,1,6,1,5,17,-1,6
-2,-2,0,2,-1,-1,6,1,5,16,-2,6
-2,-5,-3,3,0,-5,4,0,5,15,-4,5
0,-5,-4,3,2,-5,3,0,5,14,-5,4
-5,-7,-1,6,-2,-4,3,0,5,13,-5,3
-16,-11,4,14,-10,-3,3,0,5,13,-6,2
-18,-12,5,15,-12,-2,4,0,5,13,-6,2
-10,-6,3,8,-6,-1,5,1,6,14,-5,3
-3,-1,1,2,-2,0,7,3,8,15,-3,4
1,1,0,-1,1,0,8,3,8,15,-3,4
1,0,0,0,0,0,6,2,8,14,-4,4
-6,-6,1,6,-4,-2,4,0,8,12,-5,3
-10,-11,0,11,-5,-5,2,-1,7,10,-7,1
-8,-11,-4,9,-2,-7,1,-2,6,9,-7,0
-4,-6,-3,5,0,-4,3,-1,7,9,-6,0
-2,-2,-1,2,0,-1,5,0,8,10,-5,1
-3,-3,-1,3,0,-2,5,1,8,10,-5,1
-1,-4,-3,2,1,-4,5,1,9,10,-5,0
1,-3,-4,1,3,-4,6,2,10,10,-4,0
-3,-3,0,3,-2,-2,8,3,12,12,-2,1
-10,-6,4,8,-8,0,10,4,14,13,-1,2
-13,-9,3,12,-9,-2,9,4,14,12,-1,2
-13,-11,0,13,-8,-4,7,3,13,11,-2,1
-11,-13,-2,12,-5,-6,6,3,12,10,-2,1
-11,-15,-4,13,-3,-9,5,2,11,9,-3,0
-8,-17,-7,12,0,-12,3,1,10,7,-4,-1
0,-14,-12,7,6,-13,3,1,10,7,-4,-2
5,-9,-12,2,8,-11,5,3,12,8,-2,-2
-4,-7,-2,6,-1,-5,9,6,15,10,0,0
-14,-7,6,11,-11,0,11,8,17,12,2,1
-14,-7,5,10,-10,0,11,8,17,12,2,2
-10,-7,1,8,-6,-2,10,8,16,12,2,2
-7,-7,0,7,-3,-3,10,8,15,11,1,1
-5,-8,-3,6,-1,-5,11,9,15,10,0,0
-5,-11,-4,8,0,-8,13,11,16,9,0,0
-8,-14,-4,11,-2,-9,15,13,17,9,-1,-1
-10,-12,-1,11,-5,-7,19,17,20,11,0,-1
-11,-8,3,9,-7,-2,21,21,23,14,2,-1
-11,-7,4,9,-8,-1,21,25,26,16,4,0
-10,-9,0,9,-5,-3,18,28,28,18,5,0
-5,-6,-1,5,-2,-3,18,33,34,23,9,1
1,-1,-1,0,1,-1,20,43,43,32,16,4
7,3,-2,-5,4,1,21,53,54,42,23,7
13,10,-2,-11,7,3,21,61,65,53,32,12
20,17,-2,-18,10,7,20,69,76,64,41,17
25,24,-1,-24,12,11,18,76,87,76,50,22
31,32,0,-31,15,16,12,81,99,89,60,28
42,43,0,-42,21,21,2,84,111,103,72,36
54,55,-1,-54,28,27,-11,83,122,116,83,43
65,66,0,-65,33,32,-24,76,131,127,94,51
71,77,6,-74,33,41,-37,63,134,133,103,58
70,85,17,-77,26,50,-48,41,130,132,107,64
61,83,23,-72,18,52,-57,14,118,121,104,67
50,73,23,-61,13,47,-66,-13,97,100,91,64
37,57,20,-47,8,38,-73,-38,70,72,73,56
23,41,18,-32,2,29,-77,-59,41,43,53,45
12,30,17,-20,-2,24,-78,-79,12,15,35,35
2,19,17,-10,-7,19,-78,-95,-12,-8,19,26
-10,7,17,1,-13,13,-78,-104,-30,-25,7,17
-16,0,17,9,-17,8,-76,-107,-38,-35,-1,9
-15,-3,13,9,-15,4,-72,-105,-41,-40,-6,3
-15,-7,8,12,-12,0,-66,-99,-40,-41,-9,-1
-21,-15,6,18,-14,-4,-59,-91,-38,-41,-11,-5
-28,-21,6,24,-18,-7,-52,-82,-35,-40,-12,-7
-28,-23,3,26,-16,-9,-46,-73,-31,-39,-12,-9
-25,-24,0,24,-12,-11,-41,-64,-27,-36,-12,-11
-24,-22,1,23,-13,-10,-35,-54,-21,-31,-9,-11
-23,-19,4,21,-14,-7,-28,-43,-14,-25,-6,-10
-21,-19,3,21,-12,-9,-22,-35,-8,-21,-4,-10
-21,-22,0,22,-11,-11,-17,-28,-3,-18,-2,-10
-20,-21,0,21,-10,-11,-12,-21,1,-15,-1,-11
-17,-17,-1,17,-9,-9,-6,-14,5,-12,1,-10
-16,-16,-1,16,-8,-8,-1,-8,9,-8,4,-8
-14,-15,-2,14,-6,-8,3,-2,12,-5,6,-7
-11,-14,-3,12,-4,-8,6,3,15,-1,9,-6
-9,-13,-3,11,-2,-8,7,7,17,1,10,-5
-10,-13,-1,11,-4,-7,8,10,18,2,12,-5
-11,-12,1,12,-6,-6,10,12,19,3,13,-4
-12,-11,2,12,-7,-5,11,14,19,4,15,-4
-13,-13,0,13,-7,-6,11,14,19,4,15,-4
-14,-17,-3,15,-5,-10,10,15,18,3,14,-4
-14,-20,-7,17,-4,-13,9,15,17,2,13,-5
-11,-19,-9,15,-1,-14,9,17,16,2,14,-6
-7,-14,-8,11,0,-11,11,20,17,4,16,-6
-8,-13,-4,11,-2,-9,13,23,19,6,18,-5
-13,-13,1,14,-8,-7,14,25,19,7,19,-4
-14,-10,4,13,-10,-3,16,27,20,8,21,-4
-11,-6,6,9,-9,0,17,29,20,9,22,-3
-12,-5,6,8,-10,0,18,30,20,9,22,-2
-16,-9,5,12,-11,-1,17,31,19,8,22,-3
-18,-15,2,16,-10,-5,16,31,18,7,21,-3
-14,-14,0,14,-7,-6,16,33,18,8,22,-3
-7,-9,-1,8,-3,-5,16,34,19,9,23,-2
-3,-6,-1,5,-2,-4,16,36,20,9,24,-2
-4,-6,0,5,-3,-3,17,37,21,9,24,-2
-4,-5,0,5,-3,-3,16,37,21,9,25,-3
-5,-6,0,5,-3,-3,16,38,22,9,25,-3
-9,-10,-1,9,-4,-5,16,38,23,9,26,-3
-11,-13,-2,12,-4,-7,15,38,23,8,26,-3
-9,-14,-4,11,-2,-8,14,39,24,8,26,-3
-6,-14,-6,11,0,-10,13,40,24,8,26,-4
-10,-16,-4,14,-3,-10,13,41,25,8,26,-4
-19,-18,2,19,-12,-8,14,43,27,8,27,-4
-24,-18,7,21,-17,-5,16,45,29,9,29,-4
-25,-18,6,21,-17,-6,15,46,30,8,29,-3
-21,-16,4,18,-14,-6,16,47,31,8,30,-3
-13,-10,2,11,-8,-3,18,49,33,10,32,-2
-4,-5,-1,4,-1,-3,18,51,35,11,34,-1
0,-4,-2,2,0,-2,18,51,35,12,35,0
-1,-4,-1,3,-1,-2,18,51,35,12,35,0
-2,-5,0,4,-1,-2,17,51,34,11,34,0
-3,-6,-1,5,-1,-3,17,51,33,11,35,-1
-4,-7,-2,6,-1,-5,18,52,32,11,35,-1
-6,-10,-4,7,-2,-6,17,53,31,10,35,-1
-9,-12,-4,10,-3,-7,17,53,29,10,35,-1
-15,-14,0,14,-7,-7,16,54,28,10,35,-1
-17,-16,0,16,-9,-7,16,54,27,10,36,-1
-10,-14,-3,12,-3,-8,16,55,25,10,36,-1
-5,-10,-4,8,0,-7,16,56,24,10,37,-1
-8,-10,-1,9,-4,-6,16,57,23,10,37,-1
-10,-10,0,10,-6,-5,16,58,22,9,37,-1
-11,-8,2,10,-7,-4,17,60,22,9,37,-1
-12,-9,2,11,-8,-3,18,62,21,10,38,-1
-12,-10,1,11,-6,-4,18,63,21,10,39,-1
-11,-12,-1,11,-4,-6,17,64,21,10,39,-1
-8,-14,-5,12,-1,-9,16,64,21,10,38,-1
-4,-14,-9,10,2,-11,14,64,20,9,38,-1
-3,-12,-7,8,2,-9,15,66,21,9,39,-1
-4,-9,-4,7,0,-6,17,68,23,10,40,-1
-3,-8,-5,5,0,-6,17,69,24,10,41,-1
-4,-8,-4,6,0,-6,17,70,25,10,42,-1
-10,-10,0,10,-5,-5,18,72,26,11,43,0
-17,-15,2,16,-10,-6,18,73,27,11,44,0
-17,-17,1,17,-9,-7,18,73,28,12,44,0
-14,-16,0,15,-6,-8,18,74,29,13,45,0
-12,-15,0,14,-6,-8,18,74,29,13,45,0
-11,-15,-3,13,-4,-9,16,74,29,13,45,0
-8,-15,-7,11,-1,-11,14,73,28,12,44,-1
-5,-12,-7,8,0,-10,15,73,29,12,44,-1
-4,-8,-4,6,0,-6,18,75,30,14,45,-1
-3,-6,-3,4,0,-5,18,76,31,15,45,0
-3,-7,-4,5,1,-5,18,76,31,15,44,0
-6,-10,-3,8,-1,-6,18,76,32,16,44,0
-9,-12,-2,11,-3,-6,17,76,32,16,44,0
-11,-15,-3,13,-5,-8,16,75,32,16,43,0
-12,-15,-2,14,-6,-8,16,75,32,16,42,0
-11,-12,-1,12,-6,-6,17,76,33,16,42,1
-11,-12,-2,12,-5,-6,17,77,33,17,42,1
-9,-13,-4,11,-3,-8,17,77,34,17,41,1
-2,-8,-6,5,2,-6,18,79,35,19,42,2
3,-5,-8,1,6,-6,18,79,36,20,42,3
3,-7,-9,2,6,-7,15,78,36,19,40,3
4,-7,-10,1,7,-8,14,78,35,18,40,2
5,-5,-10,0,8,-7,14,78,36,19,40,2
6,-3,-9,-1,7,-6,14,79,37,19,40,3
5,-2,-8,-1,6,-5,15,80,37,19,40,4
3,-5,-8,1,6,-6,13,79,37,19,39,3
2,-7,-8,2,5,-7,12,79,36,18,38,3
1,-5,-6,2,4,-5,12,80,37,20,39,3
1,-3,-3,1,3,-3,12,81,39,22,40,4
2,-4,-5,1,4,-4,12,82,39,22,41,5
2,-6,-7,2,4,-6,9,81,38,22,40,5
3,-6,-9,1,5,-7,7,80,37,21,39,4
7,-5,-12,-1,9,-8,6,79,36,20,38,4
10,-6,-16,-2,13,-10,3,77,34,18,36,3
10,-7,-17,-1,13,-11,2,76,32,17,35,2
6,-8,-13,1,9,-10,2,76,32,17,36,2
2,-7,-9,2,5,-8,3,77,32,18,37,3
6,-3,-9,-1,7,-6,4,77,31,19,37,3
10,0,-9,-5,9,-4,5,77,31,20,38,4
9,1,-7,-5,8,-3,6,77,31,20,38,4
7,0,-6,-4,6,-3,5,76,31,20,38,5
6,0,-7,-3,6,-4,3,74,29,18,36,5
6,-2,-8,-1,7,-5,1,71,27,16,35,4
0,-8,-8,4,4,-8,0,69,26,15,33,2
-1,-10,-7,6,3,-8,0,68,26,15,33,2
5,-1,-5,-1,5,-3,3,70,28,18,36,3
6,5,0,-5,3,3,7,71,30,21,38,4
3,4,1,-4,0,3,6,70,30,20,37,5
6,2,-3,-4,4,0,3,67,28,18,36,4
9,2,-6,-5,7,-2,2,65,27,17,35,3
7,3,-4,-5,5,0,4,65,27,17,35,4
6,4,-2,-5,4,1,5,64,27,18,36,5
6,4,-2,-5,4,2,5,63,27,18,36,5
4,4,0,-4,2,3,5,62,26,18,36,4
5,4,-1,-5,2,2,4,61,25,17,35,3
6,2,-4,-5,4,0,3,58,23,15,33,2
4,0,-4,-2,3,-2,2,56,22,14,31,1
-1,-4,-3,2,0,-3,1,55,21,13,30,1
-4,-5,-2,4,-1,-3,1,53,20,12,30,0
-2,-3,-1,3,0,-2,2,53,20,12,30,0
-1,-2,-1,1,0,-1,3,51,19,12,29,-1
-1,-3,-2,2,0,-2,1,49,17,10,27,-2
-2,-4,-2,3,0,-3,1,47,16,9,26,-4
-4,-5,-1,4,-2,-3,1,46,16,9,26,-5
-5,-7,-2,6,-2,-5,1,44,15,8,25,-6
-5,-9,-5,7,0,-7,0,43,14,7,24,-6
-5,-9,-5,7,0,-8,0,42,14,6,24,-6
-6,-5,-1,6,-2,-3,5,43,16,9,26,-5
-6,-2,3,5,-5,0,9,45,17,11,28,-4
-6,-2,4,5,-5,1,9,44,17,11,28,-3
-4,-2,2,3,-3,0,9,42,16,11,27,-4
-4,-2,2,3,-3,0,8,41,15,10,27,-4
-7,-4,3,5,-5,0,7,40,15,10,26,-5
-8,-5,2,6,-5,-1,6,38,14,9,25,-5
-9,-5,3,7,-6,-1,5,37,13,8,25,-6
-12,-6,5,9,-9,0,5,36,12,8,24,-6
-12,-6,6,9,-9,0,6,35,12,8,24,-6
-9,-5,4,7,-7,0,6,34,12,8,23,-7
-8,-7,2,7,-5,-1,6,33,11,7,23,-8
-10,-9,2,9,-6,-2,5,32,11,7,22,-9
-11,-8,3,9,-7,-1,5,31,10,7,22,-9
-8,-7,1,7,-5,-2,5,30,10,6,22,-9
-7,-7,-1,7,-3,-4,4,29,9,5,21,-10
-9,-8,0,9,-5,-4,4,29,8,5,21,-10
-13,-9,3,12,-8,-3,5,29,8,6,22,-9
-16,-10,6,14,-11,-3,5,28,8,6,22,-9
-19,-13,7,16,-13,-3,5,27,7,5,22,-10
-18,-15,4,17,-12,-5,4,26,7,5,21,-10
-15,-14,1,14,-9,-6,4,25,6,4,21,-11
-10,-12,-1,11,-5,-6,4,24,5,4,22,-11
-4,-10,-5,7,0,-7,4,23,4,4,22,-11
-1,-8,-6,5,1,-6,4,23,4,4,22,-10
-6,-7,0,7,-3,-3,5,23,4,5,22,-10
-12,-7,6,10,-9,0,6,23,4,6,23,-9
-12,-6,7,10,-9,0,6,22,3,6,23,-9
-11,-5,6,8,-8,0,6,22,3,7,24,-9
-14,-6,7,10,-11,0,6,21,2,7,24,-9
-16,-8,7,12,-12,0,6,20,1,6,23,-9
-15,-9,6,12,-11,-1,6,20,1,6,23,-9
-15,-10,5,12,-10,-1,6,20,0,6,23,-10
-14,-10,4,12,-9,-2,5,18,0,5,23,-10
-13,-9,3,12,-8,-2,4,17,-2,4,22,-11
-16,-13,3,15,-9,-4,2,15,-3,2,20,-13
-24,-19,4,22,-14,-7,1,12,-5,1,19,-14
-24,-19,4,22,-14,-7,2,11,-5,1,19,-14
-16,-13,3,14,-10,-5,4,11,-4,3,20,-14
-10,-8,1,9,-6,-3,5,12,-3,3,21,-13
-9,-6,2,8,-6,-2,5,12,-2,4,22,-12
-11,-4,6,8,-8,0,6,12,-2,4,23,-11
-8,-4,5,7,-6,0,6,11,-2,4,22,-11
-4,-4,0,4,-2,-2,5,10,-2,3,21,-12
-3,-5,-2,4,0,-3,5,9,-2,2,21,-12
-7,-8,0,8,-3,-4,6,8,-1,3,22,-12
-13,-8,5,11,-9,-1,8,9,0,4,23,-11
-16,-6,10,11,-14,2,9,9,0,5,24,-11
-16,-6,10,11,-14,2,9,9,0,5,24,-11
-14,-7,7,10,-11,0,8,8,-1,5,24,-11
-13,-8,5,11,-9,-1,8,8,-1,4,24,-11
-15,-10,5,13,-10,-2,7,6,-2,4,23,-11
-13,-11,3,12,-8,-3,7,5,-3,3,23,-11
-7,-6,2,7,-4,-2,8,5,-3,4,23,-11
-3,-3,1,3,-3,0,8,5,-3,4,24,-11
-6,-4,3,5,-5,0,8,5,-4,5,24,-12
-12,-7,6,9,-10,0,9,5,-4,5,25,-12
-15,-8,7,11,-11,-1,9,5,-4,5,25,-12
-13,-8,6,10,-10,-1,8,5,-5,5,25,-12
-14,-7,7,10,-10,0,8,5,-5,5,25,-12
-19,-9,10,14,-14,0,8,4,-5,5,25,-12
-22,-11,11,16,-16,0,7,3,-6,4,25,-12
-20,-11,10,16,-15,0,6,2,-7,3,24,-13
-17,-10,7,13,-12,-1,6,2,-7,3,23,-13
-14,-10,3,12,-8,-3,6,1,-7,3,23,-13
-14,-12,1,13,-7,-5,6,1,-7,3,24,-13
-14,-12,1,13,-7,-5,5,1,-7,3,24,-13
-13,-11,1,12,-6,-4,5,1,-6,3,25,-13
-12,-9,2,11,-6,-3,7,2,-5,4,26,-13
-13,-8,5,10,-8,-1,9,3,-3,5,27,-13
-10,-5,6,8,-8,0,10,4,-2,7,28,-12
-5,-1,4,3,-5,1,10,4,-2,7,29,-11
-3,0,4,2,-4,2,9,4,-2,7,29,-11
-7,-1,6,4,-7,2,9,4,-2,8,29,-11
-10,-2,7,7,-9,3,8,4,-2,8,30,-11
-11,-3,7,8,-9,2,8,5,-1,8,31,-11
-8,-2,5,6,-6,1,9,5,-1,9,31,-10
-5,-1,3,4,-4,1,9,5,0,9,32,-10
-5,-2,4,4,-4,0,8,5,0,9,32,-10
-8,-6,4,7,-6,-1,8,5,0,9,33,-10
-11,-9,3,9,-7,-2,7,5,0,10,33,-10
-13,-10,4,11,-9,-2,7,5,0,10,34,-10
-15,-11,4,13,-10,-2,6,4,0,9,34,-10
-16,-13,3,14,-9,-4,3,2,-1,8,33,-10
-13,-9,3,11,-8,-2,3,2,-1,8,33,-10
-10,-4,6,7,-7,1,5,3,0,9,35,-10
-12,-3,9,7,-10,3,7,4,2,11,37,-9
-14,-5,9,9,-12,2,8,5,2,12,38,-8
-13,-6,7,9,-10,1,8,5,2,12,38,-7
-10,-7,4,8,-7,0,7,4,2,12,38,-7
-6,-5,1,6,-4,-1,6,4,2,12,38,-7
-3,-2,0,2,-2,0,7,4,3,12,39,-7
-3,0,1,2,-2,0,7,4,3,12,40,-7
-6,-2,2,4,-4,0,6,3,3,11,39,-7
-11,-9,1,10,-6,-4,3,1,1,10,38,-7
-11,-14,-2,12,-5,-8,1,0,0,8,38,-8
-6,-11,-4,8,-1,-7,2,0,1,9,39,-8
-5,-5,1,5,-4,-1,5,2,3,11,42,-7
-9,-2,8,6,-10,3,7,3,4,13,44,-6
-8,0,9,4,-9,5,8,4,5,14,45,-5
-9,0,9,4,-9,5,9,4,6,14,46,-5
-13,-3,9,9,-11,3,7,2,5,13,45,-5
-13,-5,7,9,-10,1,6,1,4,13,45,-5
-10,-3,7,7,-8,1,7,1,4,14,46,-4
-10,-2,8,6,-9,2,8,1,5,14,47,-4
-10,-2,9,6,-10,3,8,1,5,14,47,-4
-10,-2,9,6,-10,4,8,1,5,14,48,-4
-7,-1,5,4,-7,2,7,0,5,13,48,-4
-6,-2,3,4,-5,1,6,0,4,13,48,-4
-9,-2,6,6,-8,1,7,-1,4,14,48,-4
-11,-3,7,7,-9,2,7,-1,4,14,49,-4
-10,-5,5,8,-7,0,6,-2,4,13,49,-3
-8,-5,3,6,-5,-1,6,-3,3,13,49,-3
-5,0,6,2,-6,3,8,-1,5,15,51,-2
-7,4,12,1,-10,8,10,0,6,16,53,-1
-11,2,13,4,-12,7,9,0,5,15,53,0
-13,-1,11,7,-12,4,7,-2,5,14,53,0
-11,-1,9,6,-10,3,6,-2,4,13,53,0
-6,4,9,1,-7,6,8,-2,5,14,54,0
-5,6,11,-1,-7,8,9,-1,6,15,56,0
-6,5,12,0,-9,8,8,-2,6,16,56,0
-7,3,11,1,-9,7,7,-3,6,15,56,0
-7,2,10,2,-9,6,5,-4,5,15,57,0
-6,4,11,1,-9,8,4,-5,5,15,58,0
-3,8,11,-2,-7,10,3,-5,6,15,59,0
-1,11,12,-5,-6,12,2,-6,6,16,60,0
0,13,12,-7,-6,13,2,-6,6,16,62,0
-1,13,14,-6,-7,14,2,-6,6,17,63,0
-5,11,17,-3,-11,13,3,-6,7,18,65,1
-7,8,16,-1,-11,12,3,-6,8,18,66,1
-8,6,15,0,-11,11,2,-6,8,18,66,1
-9,5,15,2,-12,11,1,-7,7,18,66,1
-10,4,14,3,-12,10,0,-8,7,17,66,0
-7,5,12,1,-10,9,-1,-8,7,17,67,0
-3,8,11,-2,-7,10,0,-8,7,17,68,0
0,11,11,-4,-6,10,0,-9,7,17,68,0
0,10,10,-4,-5,9,-1,-10,6,17,69,0
0,7,7,-3,-3,6,-2,-11,5,16,68,0
1,6,5,-3,-2,5,-3,-12,4,15,69,0
3,8,6,-5,-1,7,-1,-11,5,16,70,0
7,11,4,-9,1,8,0,-10,5,16,71,0
9,10,0,-9,4,6,-1,-11,5,16,71,0
8,9,2,-8,2,6,-1,-12,4,15,71,-1
3,10,7,-6,-2,9,0,-12,3,15,72,-1
-1,9,12,-3,-7,10,0,-13,3,16,72,-1
-4,6,11,0,-8,8,1,-14,3,15,72,-1
-4,3,8,1,-6,5,1,-14,2,14,72,-2
-5,1,6,2,-5,4,1,-15,1,13,72,-2
-6,0,6,3,-6,3,1,-16,0,12,72,-3
-8,-1,7,5,-7,3,1,-16,0,11,72,-4
-10,-3,6,7,-8,2,1,-17,-1,11,72,-4
-11,-5,5,9,-8,0,1,-18,-2,10,72,-4
-10,-7,2,10,-7,-3,0,-19,-3,9,72,-5
-8,-8,0,8,-4,-4,-1,-20,-4,7,72,-6
-7,-9,-2,8,-3,-5,-1,-21,-5,6,72,-7
-9,-11,-2,10,-4,-6,0,-20,-5,6,74,-7
-11,-11,0,11,-5,-6,1,-20,-4,7,75,-6
-11,-10,0,11,-6,-4,2,-19,-4,7,76,-6
-11,-8,2,10,-7,-2,2,-19,-4,8,77,-5
-13,-9,3,12,-9,-3,1,-19,-5,8,78,-5
-16,-13,2,15,-10,-5,0,-20,-6,7,77,-5
-16,-16,0,16,-8,-8,0,-21,-6,6,77,-6
-12,-14,-1,13,-6,-7,0,-21,-6,6,78,-6
-10,-12,-1,10,-5,-6,1,-21,-6,7,80,-6
-11,-14,-3,11,-4,-8,0,-22,-7,6,80,-7
-10,-16,-7,12,-1,-11,-1,-23,-8,4,79,-8
-8,-13,-6,10,0,-9,0,-23,-8,5,80,-8
-7,-10,-3,8,-2,-6,2,-21,-7,7,82,-7
-8,-10,-1,9,-3,-5,2,-21,-7,7,83,-6
-9,-10,0,10,-4,-5,2,-22,-7,6,84,-6
-9,-12,-1,11,-4,-6,2,-22,-7,6,85,-6
-7,-13,-4,10,-2,-8,2,-22,-8,6,85,-7
-6,-13,-6,10,0,-9,1,-23,-8,5,85,-8
-7,-13,-6,10,0,-9,1,-23,-9,4,85,-8
-4,-10,-5,7,0,-7,1,-23,-9,4,86,-9
0,-8,-7,5,3,-7,2,-23,-9,5,87,-9
-2,-10,-7,7,2,-8,2,-23,-9,5,88,-9
-9,-15,-6,13,-2,-10,1,-25,-11,4,88,-10
-13,-19,-5,17,-4,-12,0,-26,-12,3,87,-11
-13,-18,-5,16,-5,-11,1,-26,-11,3,88,-11
-12,-15,-3,14,-5,-9,2,-25,-11,4,90,-11
-10,-12,-2,12,-4,-7,3,-25,-11,5,91,-11
-10,-11,-2,11,-4,-7,3,-25,-11,5,91,-11
-11,-15,-4,14,-3,-9,2,-26,-13,4,91,-11
-16,-20,-4,19,-5,-13,0,-27,-14,3,91,-12
-18,-22,-4,20,-7,-13,1,-27,-14,3,92,-13
-12,-18,-5,14,-4,-11,4,-25,-13,4,94,-12
-7,-14,-6,10,-1,-10,8,-22,-12,5,95,-12
-7,-13,-5,9,-1,-8,11,-20,-12,5,96,-12
-5,-10,-5,7,0,-7,14,-17,-10,6,97,-13
-2,-8,-6,5,2,-7,15,-15,-8,8,98,-13
-2,-8,-6,5,2,-7,15,-12,-6,10,100,-12
-3,-8,-5,6,2,-6,15,-8,-3,13,103,-12
-1,-6,-4,4,2,-5,16,-3,2,18,108,-10
0,-5,-5,2,3,-4,17,4,9,25,113,-8
2,-6,-7,2,4,-6,16,12,17,33,120,-5
4,-6,-11,1,7,-8,13,18,25,40,126,-2
10,-2,-13,-4,11,-8,10,24,34,50,134,1
22,10,-12,-16,16,-1,10,32,46,64,145,7
36,28,-9,-31,22,9,10,41,60,79,158,14
47,42,-6,-44,27,17,5,47,73,95,171,22
55,52,-4,-53,30,24,-5,50,86,109,184,30
63,62,0,-62,32,31,-17,47,96,122,196,39
68,73,5,-70,31,39,-30,36,101,129,206,48
69,79,12,-74,28,45,-43,16,98,129,211,54
66,79,14,-72,26,47,-56,-12,87,119,209,57
57,72,16,-65,21,44,-67,-41,68,101,200,55
43,61,17,-52,14,39,-73,-67,43,76,185,49
30,46,16,-38,7,31,-77,-89,16,48,166,40
19,33,14,-26,3,24,-79,-110,-13,20,149,29
10,25,14,-17,-1,20,-81,-128,-40,-5,134,19
-1,15,17,-7,-9,16,-81,-141,-60,-24,121,11
-14,2,18,5,-16,10,-80,-147,-72,-36,112,3
-20,-4,16,12,-18,6,-78,-147,-77,-42,107,-3
-18,-6,13,12,-15,3,-70,-142,-76,-42,106,-7
-20,-11,9,16,-14,-1,-62,-134,-73,-42,106,-10
-27,-19,7,23,-16,-5,-56,-126,-70,-42,105,-13
-28,-22,6,25,-16,-8,-51,-119,-66,-41,105,-16
-25,-21,4,23,-14,-8,-46,-110,-61,-39,106,-18
-21,-19,2,20,-12,-8,-40,-101,-56,-35,107,-18
-19,-17,1,18,-11,-8,-34,-92,-50,-30,110,-18
-19,-17,1,17,-11,-8,-29,-84,-44,-26,112,-18
-17,-16,1,16,-9,-7,-23,-77,-39,-22,114,-18
-15,-15,0,14,-7,-7,-18,-70,-34,-18,117,-17
-15,-14,1,14,-7,-6,-12,-63,-30,-14,120,-16
-16,-15,0,15,-7,-7,-8,-58,-26,-12,123,-15
-14,-17,-3,16,-5,-10,-6,-54,-24,-11,124,-15
-11,-17,-6,14,-3,-11,-4,-49,-22,-9,126,-15
-7,-13,-6,10,-1,-9,0,-44,-19,-6,130,-14
-6,-11,-5,8,-1,-8,3,-40,-17,-3,132,-13
-9,-12,-3,10,-3,-7,4,-38,-16,-2,134,-13
-10,-10,-1,9,-4,-5,5,-36,-15,-1,135,-13
-7,-5,1,6,-4,-1,7,-34,-14,0,137,-12
-6,-5,0,5,-2,-2,8,-32,-14,0,139,-12
-7,-8,-1,8,-3,-4,8,-31,-13,1,141,-12
-9,-8,1,9,-5,-3,9,-29,-13,2,142,-11
-9,-8,1,9,-6,-3,9,-28,-12,2,144,-11
-8,-10,0,8,-4,-5,9,-27,-12,2,145,-11
-5,-8,-2,6,-2,-6,9,-26,-12,3,147,-11
0,-4,-3,2,1,-4,11,-24,-11,5,149,-11
-1,-3,-2,2,1,-3,11,-23,-11,5,151,-10
-6,-4,0,6,-3,-2,11,-23,-11,6,152,-10
-8,-5,2,7,-5,-2,12,-22,-10,6,153,-10
-6,-6,-1,7,-2,-4,11,-23,-11,6,154,-10
-2,-8,-6,6,2,-8,9,-24,-12,4,154,-11
-2,-11,-8,7,2,-10,8,-26,-13,3,154,-12
-7,-12,-4,10,-2,-8,8,-26,-13,3,155,-12
-11,-13,-2,12,-4,-8,7,-26,-13,3,156,-13
-12,-16,-5,14,-3,-11,5,-28,-13,1,156,-14
-11,-18,-8,14,-1,-13,3,-29,-14,0,155,-15
-8,-17,-9,12,1,-13,3,-29,-13,-1,156,-16
-6,-15,-8,11,1,-11,5,-28,-11,0,158,-16
-3,-10,-7,7,1,-8,8,-25,-8,2,161,-15
3,-2,-5,0,3,-3,12,-22,-4,5,165,-13
4,2,-1,-3,2,0,15,-20,-1,7,169,-12
-1,1,2,0,-2,2,15,-19,0,8,171,-11
-7,-2,4,4,-5,1,15,-19,1,8,172,-11
-9,-4,4,6,-6,0,15,-19,1,8,173,-11
-7,-4,2,6,-4,0,14,-19,1,7,174,-11
-2,-3,-1,3,0,-1,12,-20,1,6,174,-12
0,-3,-2,2,1,-1,12,-20,2,6,175,-12
-4,-3,1,4,-3,0,12,-20,3,6,176,-12
-8,-4,4,6,-7,1,12,-20,3,6,177,-13
-9,-6,3,7,-7,0,11,-21,2,5,177,-13
-10,-9,0,9,-4,-4,10,-22,0,4,177,-14
-6,-10,-4,7,0,-7,10,-23,-1,3,178,-14
-1,-6,-6,3,4,-6,11,-22,-1,4,180,-14
0,-5,-6,2,4,-5,11,-21,-2,4,181,-14
-2,-8,-6,6,2,-7,11,-22,-4,3,182,-15
-6,-13,-7,11,0,-10,10,-22,-5,2,182,-16
-8,-14,-5,12,-2,-9,11,-22,-6,3,184,-16
-7,-11,-3,10,-2,-7,12,-21,-6,4,186,-15
-7,-10,-3,8,-2,-7,12,-20,-7,4,187,-15
-8,-9,-2,8,-3,-6,13,-19,-7,5,189,-15
-7,-7,-1,6,-2,-4,14,-17,-7,6,191,-14
-4,-4,-1,3,-1,-2,15,-16,-6,7,193,-14
-2,-2,0,2,0,-1,15,-16,-6,7,194,-14
-2,-2,0,2,-1,-1,14,-15,-6,6,195,-14
-1,-3,-1,2,0,-2,14,-15,-5,6,196,-14
2,-3,-5,1,3,-4,12,-15,-5,5,196,-14
2,-6,-9,2,5,-8,9,-17,-7,3,196,-15
0,-8,-9,4,5,-9,8,-17,-7,2,196,-17
0,-6,-7,3,4,-7,9,-16,-5,3,198,-17
1,-1,-4,0,3,-3,12,-13,-3,6,202,-16
3,1,-3,-2,3,-1,14,-12,-1,7,204,-15
2,-2,-4,0,3,-3,14,-11,0,7,206,-14
0,-5,-4,3,1,-4,14,-11,1,7,207,-14
0,-4,-3,2,1,-4,14,-10,2,7,209,-13
2,-3,-4,0,3,-4,13,-10,2,7,209,-13
3,-3,-6,0,5,-5,12,-11,1,6,208,-14
0,-5,-6,2,4,-5,11,-11,1,5,208,-15
-2,-5,-3,3,1,-4,12,-10,2,6,209,-16
0,-2,-3,0,2,-3,12,-10,2,6,209,-16
6,-1,-8,-2,7,-4,13,-9,3,6,210,-16
7,-3,-9,-1,8,-6,13,-8,3,7,210,-16
3,-4,-7,1,5,-5,13,-8,4,7,209,-16
-1,-5,-4,3,1,-4,13,-7,4,7,209,-15
-4,-5,-1,4,-1,-2,12,-7,5,8,209,-15
-2,-3,-2,2,0,-2,12,-6,5,8,210,-15
1,-2,-4,0,3,-3,12,-4,6,8,210,-15
2,-4,-6,1,5,-5,12,-3,6,8,211,-15
1,-6,-7,3,4,-6,12,-3,7,8,211,-15
1,-6,-6,3,4,-6,12,-2,7,9,212,-15
4,-5,-8,1,6,-6,11,-2,7,8,212,-14
6,-5,-10,0,8,-8,9,-3,6,7,211,-14
5,-5,-10,0,8,-8,8,-3,6,7,211,-14
6,-2,-9,-2,8,-6,9,-1,7,8,212,-13
12,3,-10,-8,12,-4,10,0,8,9,214,-11
16,7,-10,-12,13,-1,10,1,9,10,215,-10
12,6,-7,-9,9,0,9,1,9,10,216,-10
11,3,-8,-7,9,-2,9,1,10,11,217,-10
16,4,-12,-10,14,-3,9,1,10,11,218,-9
17,5,-12,-11,14,-2,9,2,11,12,219,-8
13,5,-9,-9,11,-1,10,3,12,13,220,-7
10,3,-7,-7,8,-1,9,4,12,13,220,-6
5,-1,-7,-3,6,-4,6,2,10,11,219,-7
-1,-6,-5,3,2,-6,4,1,9,9,218,-8
-4,-8,-3,6,0,-6,3,1,9,9,218,-8
1,-6,-6,2,4,-6,3,1,9,10,219,-8
11,-1,-11,-4,11,-5,3,1,9,10,220,-8
17,3,-13,-9,15,-4,3,1,9,11,221,-7
19,6,-13,-12,16,-3,4,2,9,12,222,-6
23,10,-12,-16,17,-1,5,2,9,12,224,-5
25,13,-12,-19,18,0,5,2,9,12,224,-4
20,10,-10,-15,15,-1,3,1,8,11,224,-4
14,5,-8,-10,11,-1,1,0,7,11,224,-4
14,6,-7,-10,10,0,2,0,8,12,225,-3
16,8,-8,-12,12,1,2,0,8,12,226,-2
20,9,-10,-14,14,0,0,-1,6,11,225,-2
23,11,-11,-17,16,0,-1,-3,5,10,224,-3
20,12,-7,-16,13,2,0,-2,5,11,225,-3
15,11,-3,-14,9,4,2,-1,6,12,227,-2
15,9,-6,-13,10,2,2,-1,6,11,227,-1
13,6,-8,-10,11,0,0,-3,5,10,226,-2
9,3,-7,-6,8,-1,-1,-4,5,9,226,-2
11,4,-7,-7,9,-1,0,-4,5,9,227,-2
17,7,-9,-11,13,-1,0,-5,5,9,227,-2
16,7,-8,-11,12,-1,0,-6,4,8,227,-2
12,5,-7,-9,9,-1,0,-7,3,7,227,-2
11,6,-5,-8,8,0,0,-8,3,6,227,-2
9,6,-4,-8,6,1,1,-7,3,7,228,-2
7,5,-2,-6,5,2,3,-7,4,7,229,-1
5,3,-2,-4,4,1,2,-8,3,6,229,-1
7,2,-4,-4,5,0,1,-9,2,5,228,-1
10,3,-6,-6,8,-1,1,-10,2,4,228,-2
10,5,-4,-7,7,1,3,-9,3,5,228,-2
7,6,0,-5,3,3,6,-8,4,6,229,-1
3,4,0,-3,1,2,6,-9,4,5,229,-1
0,2,1,-1,-1,2,6,-9,4,5,228,-1
0,2,2,-1,-1,2,6,-10,4,4,228,-2
5,5,0,-6,2,3,6,-11,4,4,228,-2
10,7,-2,-9,6,3,5,-12,3,3,228,-2
7,7,0,-7,4,4,6,-13,3,3,228,-3
2,7,5,-4,-2,7,7,-12,4,3,229,-3
1,6,5,-3,-2,6,8,-12,4,3,229,-3
3,5,1,-4,0,3,6,-14,3,1,227,-4
3,5,0,-4,1,2,6,-14,2,1,226,-5
1,2,0,-2,0,1,6,-15,2,1,226,-5
-1,-1,0,1,0,0,5,-15,2,1,226,-5
-3,-2,1,2,-2,0,5,-15,2,1,227,-5
-5,-2,3,4,-4,1,6,-15,2,1,227,-5
-7,-3,6,5,-7,2,7,-15,3,2,228,-5
-9,-2,8,6,-8,3,7,-15,3,2,229,-4
-6,-1,6,4,-6,2,7,-15,2,1,229,-5
0,0,0,0,0,0,6,-16,1,0,228,-6
3,0,-3,-2,3,-1,5,-17,1,0,228,-6
-1,-1,0,1,0,0,6,-16,1,0,228,-6
-9,-5,4,7,-6,0,6,-16,1,0,229,-5
-10,-6,5,8,-7,0,4,-17,0,-1,229,-6
-4,-3,3,4,-3,0,3,-18,0,-2,229,-7
0,0,1,1,0,0,3,-18,-1,-2,230,-7
0,0,1,1,0,0,5,-17,0,-2,232,-7
0,1,1,0,-1,1,6,-16,0,-1,235,-7
2,3,0,-3,1,2,7,-15,0,0,238,-6
2,4,1,-3,0,3,7,-15,0,0,242,-6
-4,1,4,1,-4,3,6,-15,0,0,247,-6
-7,-1,5,4,-5,2,6,-15,0,0,252,-6
-6,-3,3,5,-4,0,5,-16,0,0,258,-6
-5,-4,2,5,-3,0,5,-16,0,-1,264,-7
-4,-3,2,4,-3,0,6,-15,0,-1,271,-7
-4,-2,2,4,-3,0,6,-15,-1,-1,278,-8
-4,-4,0,4,-2,-1,6,-15,-1,-2,286,-8
-5,-3,0,4,-2,-1,6,-15,-2,-2,294,-8
-4,-3,0,3,-2,0,6,-15,-2,-2,302,-8
-3,-2,0,2,-1,0,6,-15,-2,-2,310,-8
-3,-2,0,3,-1,0,6,-15,-2,-3,317,-8
-7,-5,2,6,-4,-1,5,-15,-2,-4,324,-8
-8,-6,2,8,-5,-1,5,-16,-2,-5,329,-8
-4,-3,1,4,-3,-1,5,-16,-1,-5,334,-8
0,-1,0,0,0,-1,6,-16,0,-5,338,-8
0,-1,-1,0,1,-1,6,-16,1,-5,342,-8
-2,-1,0,1,-1,0,6,-15,2,-5,345,-8
-6,-2,4,3,-5,2,7,-14,4,-4,348,-8
-7,-1,6,4,-6,3,8,-13,5,-3,351,-7
-6,0,7,3,-7,4,9,-12,7,-2,353,-6
-6,1,8,3,-8,5,10,-11,9,-2,354,-5
-6,1,7,3,-7,4,10,-11,10,-2,354,-5
-3,1,4,1,-4,2,9,-12,10,-4,352,-5
-1,1,1,0,-1,1,7,-13,9,-5,349,-7
1,2,0,-1,1,1,6,-14,8,-6,346,-8
2,3,0,-3,1,2,7,-13,9,-6,344,-8
0,2,1,-1,0,2,8,-12,9,-5,343,-9
-4,-1,3,3,-3,1,9,-11,9,-4,342,-9
-7,-3,5,6,-6,1,10,-11,9,-4,342,-8
-8,-3,5,6,-6,1,9,-11,8,-5,340,-8
-8,-4,4,6,-5,0,9,-12,7,-6,338,-8
-7,-4,3,6,-5,0,8,-12,7,-6,336,-8
-7,-2,3,5,-5,0,8,-11,6,-5,335,-8
-6,-1,4,4,-5,1,9,-11,6,-5,333,-8
-7,-2,5,4,-6,1,9,-11,5,-6,331,-9
-7,-2,5,5,-6,2,8,-11,4,-6,328,-9
-5,0,5,3,-5,2,9,-11,4,-6,325,-9
-3,0,4,1,-3,2,9,-11,4,-6,321,-9
-3,0,3,2,-2,1,8,-11,4,-7,316,-9
-3,0,4,2,-3,1,8,-10,4,-7,312,-10
-3,2,5,0,-3,4,10,-8,6,-5,308,-9
-2,3,5,0,-3,4,10,-8,7,-5,304,-9
0,1,1,0,0,1,8,-9,6,-6,298,-9
3,0,-4,-1,4,-2,6,-10,5,-7,292,-10
5,0,-5,-2,5,-2,6,-10,6,-7,287,-11
2,1,0,-1,0,0,8,-8,7,-5,285,-10
-4,1,5,2,-4,2,9,-7,8,-4,282,-9
-9,-3,7,6,-8,1,8,-8,8,-5,277,-9
-10,-4,6,7,-8,0,7,-8,8,-5,273,-10
-6,0,5,3,-5,1,7,-8,9,-5,270,-9
-1,3,4,0,-2,3,7,-8,9,-4,267,-9
0,5,4,-3,-1,5,7,-7,10,-4,264,-8
2,8,5,-5,-1,6,8,-6,11,-3,261,-8
2,7,6,-4,-2,6,8,-6,12,-2,259,-8
2,4,3,-3,0,3,8,-6,12,-2,255,-8
4,4,0,-4,2,2,7,-5,12,-3,252,-8
2,3,1,-3,0,2,8,-4,12,-3,250,-8
0,2,2,-2,0,1,8,-3,12,-3,247,-8
-2,1,3,0,-2,2,8,-2,13,-2,246,-8
-6,0,7,3,-7,3,8,-2,14,-2,245,-8
-8,0,7,4,-8,3,7,-2,14,-2,242,-8
-3,1,5,1,-4,3,5,-3,13,-3,239,-8
0,4,6,-1,-3,4,5,-4,13,-4,235,-8
-2,5,8,-1,-5,6,6,-3,13,-3,230,-8
-3,4,8,0,-6,6,7,-2,14,-3,225,-8
-2,4,7,-1,-4,6,7,-1,14,-2,219,-7
1,6,5,-4,-1,5,7,-1,15,-2,211,-7
0,6,6,-3,-3,6,7,0,15,-2,203,-6
-2,6,8,-2,-6,7,8,0,16,-1,196,-6
-1,6,7,-2,-4,6,8,0,17,-1,187,-6
2,5,3,-4,0,4,7,0,17,-2,177,-6
0,3,4,-1,-2,3,6,0,17,-2,167,-6
-8,-1,8,4,-8,3,6,0,17,-2,157,-6
-10,-2,9,6,-10,3,6,0,17,-2,147,-6
-6,2,8,1,-7,5,7,1,17,-1,139,-6
-1,6,8,-3,-5,6,8,2,18,0,131,-5
4,10,6,-7,-1,7,9,2,19,0,124,-5
10,13,4,-12,3,8,10,3,19,1,117,-4
11,13,3,-12,4,7,10,3,19,1,109,-4
7,11,4,-8,1,7,9,3,19,1,101,-4
1,8,8,-4,-3,8,9,3,19,1,93,-4
-1,8,10,-3,-5,9,10,3,20,1,87,-3
0,11,12,-5,-6,11,10,4,20,2,81,-3
-1,10,11,-4,-6,10,9,3,18,0,74,-3
-6,3,10,1,-8,7,6,1,16,-2,67,-4
-7,3,10,2,-8,6,6,0,15,-2,62,-5
-1,10,12,-3,-7,11,8,2,17,0,59,-4
4,17,13,-10,-5,15,9,3,18,2,57,-2
7,20,12,-13,-3,16,7,3,17,2,53,-1
8,20,11,-13,-2,15,3,0,16,0,48,-1
8,20,11,-14,-1,15,1,-1,15,-1,44,-1
12,22,10,-17,1,16,0,-1,15,0,40,-1
10,21,11,-15,0,16,1,0,15,0,36,-1
2,18,16,-9,-7,17,1,0,16,1,32,-1
1,18,17,-9,-8,17,0,1,16,2,27,0
6,19,14,-12,-4,17,0,1,17,2,21,0
3,18,14,-10,-5,16,1,2,17,2,14,0
-1,17,17,-7,-9,17,3,3,18,3,6,1
2,19,15,-10,-6,17,3,3,18,3,-1,1
10,20,8,-15,1,13,0,1,17,1,-11,1
12,18,6,-15,4,11,-2,0,16,0,-19,0
6,16,9,-11,-1,12,-2,1,17,1,-27,0
0,13,13,-6,-6,12,-1,1,17,1,-34,1
-2,11,14,-4,-8,12,-3,0,16,0,-43,0
-3,10,12,-3,-8,11,-4,0,15,-1,-53,0
-2,10,12,-4,-7,11,-3,0,15,-1,-63,-1
1,13,11,-7,-5,12,-2,1,15,-1,-71,0
6,17,10,-12,-1,13,0,2,16,0,-79,0
9,17,8,-13,1,12,0,2,16,0,-88,1
6,12,6,-9,0,9,0,1,15,-1,-98,0
1,7,7,-4,-2,7,0,0,14,-2,-107,0
0,5,6,-2,-3,6,-1,0,14,-4,-116,0
0,4,4,-1,-2,4,-1,-1,13,-5,-126,-1
-4,1,4,2,-4,3,-1,-2,12,-7,-135,-2
-7,-3,4,5,-5,1,-2,-3,11,-8,-144,-3
-6,-2,3,4,-4,1,-2,-3,10,-9,-152,-4
0,3,3,-2,-1,3,0,-3,11,-8,-159,-5
5,8,3,-7,1,6,2,-1,12,-7,-164,-4
7,7,1,-7,3,4,3,-1,11,-7,-170,-4
6,3,-2,-5,4,0,1,-3,10,-9,-178,-5
2,-2,-3,0,2,-2,-1,-5,8,-12,-186,-7
-6,-4,1,6,-4,-1,-1,-5,7,-12,-193,-8
-10,-4,5,7,-8,1,1,-4,8,-11,-197,-8
-8,-3,4,6,-6,1,2,-3,9,-10,-202,-7
-7,-4,2,5,-4,-1,1,-4,8,-11,-209,-8
-10,-9,1,9,-5,-4,0,-6,6,-13,-216,-9
-13,-14,0,13,-6,-8,-1,-8,6,-14,-222,-11
-7,-11,-2,9,-2,-8,-1,-7,6,-14,-226,-11
6,0,-5,-2,5,-4,1,-6,8,-13,-230,-11
11,5,-5,-8,8,-1,3,-5,9,-12,-234,-10
6,3,-3,-4,4,0,4,-5,10,-11,-238,-9
0,0,-1,0,0,-1,5,-4,10,-11,-242,-9
-2,-2,0,2,-1,-1,5,-4,10,-11,-247,-9
-4,-2,3,2,-3,0,6,-4,10,-11,-251,-9
-9,-4,6,5,-7,1,6,-5,10,-11,-255,-8
-14,-8,6,11,-10,-1,4,-6,9,-13,-260,-9
-14,-14,1,14,-8,-7,1,-9,6,-16,-265,-10
-9,-14,-4,12,-2,-9,0,-10,5,-17,-270,-12
0,-7,-7,4,3,-7,1,-9,5,-17,-272,-12
6,0,-8,-2,6,-4,3,-8,6,-16,-274,-11
5,0,-7,-2,6,-3,2,-8,6,-16,-277,-11
2,-5,-8,1,5,-6,1,-9,5,-17,-280,-11
1,-9,-9,4,5,-9,1,-9,5,-17,-282,-12
-1,-9,-7,5,3,-8,3,-7,6,-16,-283,-12
-1,-7,-5,5,2,-7,4,-6,6,-15,-284,-11
-5,-9,-3,8,-1,-6,4,-6,6,-15,-286,-11
-12,-13,-1,13,-6,-7,3,-7,6,-16,-288,-10
-13,-13,-1,13,-6,-7,3,-7,5,-16,-291,-10
-6,-8,-3,7,-1,-5,3,-7,5,-16,-293,-10
-4,-5,-2,4,-1,-4,4,-6,5,-16,-295,-10
-8,-7,1,7,-4,-3,4,-6,5,-16,-298,-10
-12,-12,0,11,-6,-6,6,-6,5,-17,-301,-11
-14,-16,-1,15,-6,-10,7,-4,5,-18,-305,-12
-15,-19,-2,18,-7,-11,9,-3,5,-19,-309,-13
-12,-15,-2,14,-5,-8,11,0,7,-18,-312,-14
-6,-8,-2,8,-2,-5,13,2,9,-16,-314,-14
-6,-7,-2,7,-2,-4,14,6,11,-14,-316,-13
-9,-9,-1,9,-3,-5,13,9,14,-11,-318,-13
-7,-9,-2,8,-2,-6,12,14,18,-7,-318,-12
2,-5,-6,1,4,-5,12,22,24,-1,-317,-10
16,3,-12,-9,14,-5,13,30,33,7,-315,-7
26,9,-15,-17,20,-3,13,38,42,17,-311,-3
29,13,-14,-20,21,0,13,46,52,28,-306,2
31,20,-12,-25,21,3,13,54,63,40,-300,8
38,29,-10,-33,23,9,11,60,74,52,-293,15
44,38,-8,-41,26,15,5,64,85,65,-287,21
46,43,-4,-45,26,19,-6,65,95,77,-279,28
49,49,0,-49,26,25,-19,62,104,89,-272,36
57,60,3,-58,28,31,-31,52,108,97,-267,43
61,68,8,-64,26,38,-42,33,106,97,-267,50
55,68,15,-60,20,41,-50,8,95,88,-274,53
46,62,16,-53,14,39,-54,-15,77,70,-288,51
37,50,12,-43,12,31,-55,-36,53,45,-308,44
28,37,8,-32,10,23,-57,-55,25,16,-332,34
17,25,6,-22,5,16,-60,-74,-5,-14,-356,23
8,16,8,-13,0,12,-63,-92,-33,-40,-377,12
-3,9,12,-3,-7,11,-63,-103,-51,-58,-393,3
-14,2,17,6,-15,9,-63,-108,-61,-69,-405,-3
-21,-7,15,14,-18,4,-63,-110,-66,-75,-414,-8
-26,-13,13,20,-20,0,-62,-108,-66,-77,-421,-12
-25,-11,14,19,-20,1,-56,-101,-63,-75,-425,-14
-22,-7,14,15,-19,4,-48,-91,-57,-71,-428,-15
-20,-7,12,13,-16,2,-43,-83,-53,-69,-431,-15
-19,-10,9,14,-14,0,-39,-75,-49,-67,-435,-16
-21,-13,8,16,-14,-2,-35,-67,-44,-65,-438,-17
-22,-14,8,17,-15,-3,-32,-59,-39,-62,-441,-17
-21,-14,8,17,-15,-3,-27,-51,-33,-57,-444,-17
-20,-13,8,17,-14,-3,-21,-43,-27,-52,-445,-16
-20,-16,4,18,-12,-6,-16,-37,-21,-48,-448,-15
-18,-17,0,18,-9,-9,-11,-31,-18,-45,-451,-15
-17,-16,0,16,-8,-8,-7,-26,-15,-42,-455,-15
-17,-15,0,15,-8,-8,-4,-21,-12,-40,-459,-14
-16,-15,0,15,-8,-7,-1,-17,-9,-37,-463,-14
-13,-11,1,12,-6,-5,2,-13,-7,-35,-467,-13
-6,-7,-1,7,-2,-4,4,-9,-5,-32,-471,-13
0,-6,-5,4,1,-5,5,-7,-3,-31,-475,-12
-2,-9,-6,6,1,-8,5,-6,-3,-30,-480,-11
-6,-11,-5,9,-2,-8,6,-4,-3,-29,-485,-11
-10,-10,0,10,-5,-5,8,-2,-2,-27,-489,-11
-15,-9,5,11,-10,-2,9,-1,-2,-27,-494,-10
-16,-10,6,13,-11,-2,9,0,-4,-27,-499,-10
-13,-10,3,11,-7,-4,8,0,-4,-27,-505,-10
-5,-7,-1,5,-1,-4,9,1,-4,-27,-509,-10
3,-3,-4,0,3,-3,10,2,-3,-26,-513,-9
5,0,-4,-2,4,-2,10,3,-3,-25,-517,-9
1,-2,-4,1,1,-3,10,3,-3,-25,-522,-9
-3,-6,-4,5,0,-4,9,2,-4,-25,-527,-10
-5,-7,-3,6,0,-5,8,2,-5,-26,-532,-10
-6,-6,-2,5,-1,-4,9,2,-4,-25,-536,-10
-6,-6,-1,6,-1,-4,11,4,-3,-23,-539,-9
-6,-8,-2,7,-1,-6,11,4,-2,-23,-543,-8
-7,-10,-2,9,-2,-7,10,3,-1,-24,-547,-8
-8,-10,-1,10,-4,-6,10,3,0,-24,-551,-8
-8,-9,0,9,-5,-5,10,3,0,-23,-554,-8
-7,-7,0,8,-4,-4,12,4,2,-22,-557,-7
-7,-5,1,6,-4,-2,13,5,3,-21,-560,-7
-8,-6,1,6,-4,-2,13,5,4,-21,-564,-6
-8,-7,1,7,-4,-3,13,5,5,-21,-567,-6
-9,-9,0,9,-4,-4,12,4,5,-21,-571,-5
-10,-11,0,10,-5,-5,11,4,6,-22,-575,-6
-8,-10,-1,9,-3,-5,10,4,6,-22,-578,-6
-6,-9,-3,7,-2,-6,10,4,7,-22,-581,-6
-3,-7,-3,5,0,-5,12,5,9,-20,-582,-5
1,-4,-6,1,3,-5,14,6,10,-19,-583,-5
4,-3,-8,0,6,-5,13,6,10,-20,-586,-5
1,-4,-6,1,4,-5,13,6,10,-20,-589,-5
1,-4,-4,1,2,-4,14,6,9,-19,-591,-5
3,-2,-4,-1,3,-3,14,7,10,-18,-593,-4
1,-3,-4,1,2,-4,15,8,10,-18,-595,-4
-3,-7,-3,5,0,-5,14,7,8,-19,-598,-3
-3,-7,-4,5,0,-6,13,7,7,-20,-600,-3
-3,-7,-4,5,0,-5,13,8,6,-20,-602,-3
-5,-7,-3,6,-1,-5,13,8,4,-21,-604,-4
-6,-7,-2,6,-2,-4,12,7,3,-22,-607,-4
-7,-7,0,6,-3,-3,12,8,2,-21,-608,-4
-8,-7,1,7,-5,-3,13,9,2,-20,-608,-3
-7,-7,1,7,-5,-3,14,10,2,-20,-609,-3
-5,-5,1,6,-4,-2,15,10,2,-20,-609,-2
-3,-4,-1,4,-2,-3,15,11,2,-20,-610,-2
0,-6,-6,3,2,-6,14,10,1,-21,-612,-2
3,-6,-10,1,6,-8,13,10,0,-22,-613,-3
3,-4,-9,0,6,-7,13,11,0,-22,-614,-3
0,-4,-5,2,3,-5,13,11,0,-22,-615,-3
-3,-5,-2,4,0,-4,13,12,1,-21,-615,-3
-6,-6,0,6,-3,-3,14,13,3,-20,-615,-3
-7,-8,-1,8,-3,-5,15,14,4,-20,-615,-2
-6,-9,-3,8,-1,-6,14,13,4,-20,-615,-2
-5,-9,-3,8,-1,-6,13,13,4,-21,-616,-2
-4,-6,-2,6,-1,-4,14,13,5,-20,-615,-2
-1,-3,-3,2,1,-3,14,14,6,-20,-614,-2
1,-3,-5,0,3,-4,14,14,6,-20,-614,-2
0,-5,-5,2,3,-5,13,14,7,-20,-613,-2
-2,-5,-3,3,0,-4,13,14,7,-20,-612,-2
-3,-5,0,4,-1,-3,13,15,7,-20,-611,-2
-5,-6,0,5,-2,-3,12,14,7,-21,-611,-2
-7,-10,-3,9,-2,-6,11,14,6,-22,-610,-2
-7,-12,-5,10,-2,-8,11,15,7,-21,-609,-1
-3,-8,-6,6,1,-7,13,18,9,-19,-606,0
1,-5,-6,2,3,-6,15,19,10,-18,-604,0
1,-4,-6,1,3,-5,15,20,10,-18,-603,1
2,-2,-4,0,3,-4,15,21,10,-17,-601,1
1,-1,-3,0,1,-3,14,22,10,-17,-599,2
0,-3,-4,1,1,-4,12,21,9,-18,-598,2
2,-5,-8,1,4,-7,10,20,7,-20,-597,1
4,-6,-10,2,6,-8,9,20,6,-21,-596,1
4,-4,-9,0,6,-7,10,21,7,-21,-594,1
6,-1,-8,-2,7,-5,11,23,8,-20,-591,1
5,-2,-8,-2,7,-6,12,25,8,-19,-588,1
5,-5,-10,0,7,-8,11,25,7,-19,-587,1
7,-5,-12,-2,9,-9,9,24,7,-20,-586,1
13,0,-12,-7,12,-7,9,25,7,-19,-583,2
16,4,-12,-10,14,-4,10,27,9,-17,-579,3
15,3,-12,-9,13,-4,10,27,9,-17,-577,3
14,1,-12,-7,13,-5,9,28,9,-17,-575,3
15,1,-14,-7,15,-6,9,29,9,-16,-572,4
15,0,-15,-7,16,-8,9,29,10,-16,-570,4
13,0,-13,-7,14,-7,9,29,10,-15,-567,5
11,0,-11,-6,11,-5,9,29,10,-15,-564,5
16,3,-12,-10,15,-5,8,29,10,-15,-563,5
21,4,-16,-12,19,-6,7,29,10,-15,-561,5
15,0,-15,-7,16,-8,6,28,9,-15,-560,6
8,-2,-11,-2,10,-7,6,29,8,-15,-558,6
6,-1,-8,-2,7,-5,6,29,8,-15,-556,7
6,0,-7,-3,7,-4,7,29,8,-14,-554,7
10,1,-9,-6,10,-4,6,29,8,-15,-553,7
16,2,-13,-10,15,-6,4,27,7,-16,-552,7
18,2,-15,-10,16,-7,3,26,6,-17,-552,7
13,1,-12,-7,12,-6,2,25,6,-17,-551,7
9,1,-8,-5,8,-4,3,25,7,-16,-549,7
8,2,-6,-4,6,-2,3,26,7,-16,-548,7
10,3,-8,-6,9,-3,2,25,5,-17,-548,7
17,4,-13,-10,15,-5,0,23,4,-19,-549,6
21,7,-14,-14,18,-4,-1,21,2,-20,-550,5
18,7,-10,-13,14,-1,-1,21,2,-20,-550,4
15,7,-7,-12,11,0,1,21,4,-18,-549,5
14,5,-8,-10,11,-2,3,21,5,-17,-548,6
10,0,-10,-5,10,-5,2,21,5,-17,-549,6
3,-6,-10,1,6,-8,0,19,4,-19,-551,6
-2,-10,-8,6,3,-9,-2,17,3,-21,-554,4
2,-5,-8,2,5,-6,-1,16,3,-21,-555,4
10,2,-8,-6,10,-3,1,16,4,-19,-555,4
12,5,-7,-9,11,-1,2,15,4,-19,-555,4
14,6,-6,-11,11,0,3,15,4,-19,-556,4
16,8,-7,-12,12,0,4,14,4,-19,-557,4
16,7,-9,-12,13,-1,3,13,4,-19,-558,4
14,6,-8,-10,11,-1,3,13,4,-20,-560,4
15,7,-9,-11,12,0,3,12,4,-20,-561,4
13,7,-7,-10,10,0,4,12,4,-20,-562,4
7,6,-1,-7,5,1,5,11,4,-20,-562,3
4,6,2,-5,1,3,5,10,3,-21,-563,3
2,5,4,-4,-1,4,5,9,3,-21,-565,2
0,3,5,-2,-3,4,6,8,3,-21,-566,2
0,2,3,-1,-2,3,6,7,2,-21,-567,2
0,1,1,0,-1,1,5,6,1,-22,-568,1
0,0,1,0,-1,1,5,6,1,-22,-569,0
-1,1,2,0,-1,2,5,5,1,-21,-569,0
-1,1,2,0,-1,1,6,4,0,-22,-570,0
-1,-1,0,0,0,0,6,3,0,-22,-571,0
0,-2,-1,0,0,-2,7,1,-1,-23,-571,-1
1,0,-1,-1,1,-1,6,0,-1,-23,-572,-1
2,2,0,-2,0,1,6,0,-1,-23,-572,-2
2,3,1,-2,0,2,7,0,-1,-22,-572,-2
0,0,0,0,0,0,8,0,-1,-22,-572,-1
-2,-2,0,3,-1,-1,8,0,-1,-22,-572,-1
-5,-3,2,4,-4,-1,8,-1,-2,-22,-572,-1
-8,-6,2,7,-6,-2,8,-2,-2,-22,-573,-2
-9,-9,0,8,-5,-5,6,-4,-3,-23,-574,-2
-7,-10,-1,8,-4,-6,6,-5,-4,-24,-574,-2
-4,-7,-1,5,-2,-4,7,-5,-3,-23,-573,-2
0,0,0,0,0,0,9,-4,-2,-21,-572,-2
2,3,1,-2,0,3,10,-4,-2,-21,-571,-1
0,4,3,-1,-1,4,10,-5,-2,-20,-570,-1
-2,3,5,0,-4,5,10,-5,-2,-20,-570,-1
-4,2,7,1,-5,4,10,-6,-3,-20,-569,-1
-2,3,6,0,-4,4,9,-8,-3,-21,-569,-1
0,4,5,-2,-2,4,9,-9,-3,-21,-569,-1
0,3,3,-2,-2,3,9,-9,-3,-21,-568,0
-1,1,2,0,-2,2,9,-10,-4,-21,-568,0
-3,-1,1,2,-2,1,8,-10,-5,-21,-568,0
-4,-5,0,5,-2,-2,7,-12,-6,-22,-568,-1
-5,-8,-2,7,-1,-5,6,-14,-9,-23,-569,-3
-5,-8,-3,7,-1,-5,5,-15,-10,-24,-568,-4
-4,-6,-1,4,-1,-3,6,-15,-10,-24,-567,-4
-3,-3,1,2,-2,-1,8,-14,-9,-23,-565,-4
-4,-2,2,2,-3,0,8,-14,-9,-23,-564,-4
-5,-2,4,3,-4,1,8,-15,-9,-23,-563,-4
-4,0,6,1,-5,4,9,-14,-8,-22,-561,-4
-4,1,7,1,-5,5,11,-12,-7,-20,-558,-3
-8,0,8,4,-8,4,11,-13,-7,-20,-557,-2
-11,-4,7,7,-9,2,10,-14,-7,-21,-556,-3
-11,-7,5,8,-8,-1,8,-16,-7,-22,-556,-4
-8,-6,2,7,-6,-2,8,-17,-6,-23,-555,-4
-6,-4,2,4,-4,0,8,-16,-5,-23,-553,-4
-7,-4,3,5,-5,0,8,-16,-4,-23,-552,-5
-12,-8,4,10,-7,-1,6,-18,-4,-25,-552,-6
-13,-8,5,11,-8,-1,5,-19,-4,-26,-551,-7
-7,0,6,4,-6,3,7,-17,-2,-24,-547,-6
-1,5,6,-1,-4,5,8,-15,0,-22,-544,-6
-3,0,4,1,-4,2,7,-16,0,-23,-543,-6
-8,-5,3,6,-6,-1,6,-17,-1,-24,-543,-6
-8,-6,3,6,-5,-1,5,-18,-1,-24,-541,-7
-5,-2,3,2,-3,0,6,-17,-1,-23,-539,-7
-4,0,4,1,-3,2,7,-16,0,-22,-537,-7
-4,0,4,2,-4,2,8,-16,0,-22,-535,-7
-4,0,4,2,-3,2,8,-16,0,-21,-533,-7
-4,0,5,2,-4,3,9,-17,0,-21,-531,-7
-6,1,8,2,-7,4,10,-16,0,-20,-529,-7
-7,1,9,2,-8,4,12,-15,0,-19,-527,-6
-6,0,8,2,-7,4,13,-16,0,-19,-525,-6
-6,0,6,3,-6,3,12,-16,-2,-19,-524,-6
-7,-2,5,4,-6,2,11,-17,-4,-20,-523,-6
-9,-3,5,6,-7,1,10,-18,-5,-20,-522,-7
-9,-3,5,6,-7,1,10,-18,-6,-20,-521,-7
-6,-3,3,5,-5,0,10,-18,-5,-20,-519,-7
-6,-2,4,5,-5,0,10,-18,-5,-19,-517,-7
-8,-1,7,5,-7,2,11,-18,-4,-19,-515,-7
-6,0,7,3,-7,3,11,-18,-3,-18,-513,-6
-3,0,4,1,-4,2,11,-18,-4,-18,-511,-6
-2,0,2,1,-2,1,9,-19,-5,-19,-511,-7
-3,-1,1,2,-2,0,8,-20,-5,-19,-510,-7
-4,0,2,2,-2,1,8,-20,-4,-19,-508,-7
-3,0,2,1,-2,0,8,-20,-3,-19,-507,-7
-2,-1,0,1,-1,-1,7,-21,-3,-19,-505,-8
-1,-3,-1,1,0,-3,6,-22,-3,-19,-503,-8
-1,-4,-2,2,0,-4,7,-22,-3,-18,-501,-8
-4,-5,-1,3,-2,-3,8,-22,-2,-18,-499,-8
-5,-4,0,3,-3,-2,7,-22,-2,-18,-497,-8
-4,-1,2,2,-3,0,8,-21,-1,-17,-494,-8
-1,3,2,-1,-1,2,9,-20,0,-16,-491,-7
6,7,0,-6,3,3,10,-20,1,-15,-489,-6
8,9,0,-8,4,4,9,-21,1,-14,-487,-5
1,5,4,-3,-1,4,8,-22,0,-15,-485,-5
-6,-1,7,3,-7,2,8,-23,0,-15,-483,-6
-8,-1,8,4,-8,3,8,-23,0,-14,-480,-6
-5,3,9,0,-7,6,9,-23,1,-13,-477,-5
-3,5,9,-1,-6,7,10,-23,2,-12,-475,-5
-4,4,8,0,-6,6,9,-23,2,-13,-473,-5
-4,4,8,0,-6,6,7,-25,1,-14,-471,-5
0,5,5,-1,-3,5,5,-26,0,-15,-470,-6
3,4,1,-3,1,2,4,-28,-1,-16,-469,-6
5,4,0,-4,2,2,4,-29,-1,-15,-467,-6
2,3,1,-3,0,2,6,-28,0,-14,-464,-6
-6,-2,4,3,-5,1,6,-29,0,-14,-462,-6
-12,-7,4,9,-8,-1,5,-31,0,-15,-460,-7
-7,-4,3,6,-5,0,6,-31,0,-15,-458,-7
1,6,4,-3,-1,5,8,-29,1,-13,-453,-6
5,12,7,-8,-1,9,9,-28,2,-11,-450,-5
3,12,9,-7,-4,10,9,-29,2,-11,-448,-4
0,9,9,-4,-5,9,8,-31,1,-12,-446,-4
3,7,4,-5,-1,6,7,-32,1,-12,-445,-5
7,8,0,-8,4,4,7,-33,1,-13,-443,-5
1,5,2,-3,0,4,7,-33,2,-13,-440,-5
-12,0,10,6,-11,5,8,-32,2,-12,-436,-5
-15,1,14,7,-14,7,9,-32,2,-12,-433,-5
-7,8,14,0,-10,10,10,-32,3,-11,-430,-4
1,13,12,-6,-6,12,12,-31,5,-9,-427,-3
4,14,11,-8,-3,12,12,-30,6,-8,-425,-2
6,13,8,-9,-1,10,11,-31,5,-8,-423,-2
2,10,8,-6,-3,10,10,-32,4,-9,-422,-2
-3,10,12,-4,-7,12,10,-32,4,-9,-419,-2
2,15,12,-9,-5,14,11,-32,4,-8,-416,-2
7,18,10,-13,-1,14,12,-31,4,-8,-413,-2
3,16,12,-10,-4,14,10,-32,3,-8,-411,-2
1,17,16,-8,-8,15,8,-33,3,-8,-409,-2
2,20,19,-10,-8,18,8,-34,4,-7,-406,-1
1,20,21,-10,-10,20,7,-34,4,-6,-404,0
-1,18,20,-8,-10,19,7,-34,4,-5,-401,0
1,16,15,-8,-6,16,5,-35,3,-5,-399,0
4,15,9,-10,-2,13,3,-36,2,-6,-398,0
3,15,10,-9,-3,13,1,-37,2,-7,-396,0
2,16,14,-9,-5,15,1,-37,2,-6,-393,0
3,18,15,-10,-6,16,2,-36,2,-5,-389,0
4,19,16,-11,-5,17,4,-34,3,-3,-386,1
6,21,17,-13,-5,18,5,-33,3,-1,-383,2
6,22,17,-14,-5,19,6,-33,3,-1,-381,2
6,23,17,-14,-5,19,4,-34,3,-2,-380,2
5,23,16,-14,-5,19,3,-35,3,-3,-378,2
3,21,15,-12,-5,18,2,-36,2,-3,-376,2
0,15,14,-8,-6,15,0,-38,1,-5,-375,2
-2,10,13,-4,-7,12,-2,-40,0,-7,-374,0
0,11,12,-5,-5,11,-2,-41,-1,-8,-372,0
2,14,13,-8,-4,13,0,-40,-1,-7,-369,0
3,14,12,-9,-4,13,1,-39,0,-6,-366,0
4,14,10,-10,-3,12,2,-38,0,-5,-364,0
6,17,9,-12,-1,13,3,-38,1,-5,-362,0
9,17,7,-14,1,12,3,-38,0,-5,-361,0
10,15,3,-13,3,9,2,-39,-1,-7,-360,0
8,9,1,-8,3,5,1,-40,-2,-8,-360,-1
4,4,0,-4,2,2,1,-40,-3,-9,-358,-2
2,2,1,-2,1,1,1,-41,-4,-9,-356,-3
-3,-1,3,1,-2,0,2,-41,-4,-10,-354,-3
-9,-6,3,7,-6,-1,1,-43,-6,-11,-354,-5
-10,-8,1,9,-5,-3,0,-44,-7,-12,-353,-6
-5,-6,-1,5,-1,-3,1,-44,-7,-12,-351,-7
-1,-3,-3,2,1,-3,2,-44,-7,-12,-349,-7
0,-2,-3,1,1,-3,2,-44,-7,-12,-348,-7
0,-1,-2,1,1,-2,3,-43,-6,-12,-345,-7
1,-1,-1,0,1,-1,4,-43,-6,-11,-343,-7
-3,-3,1,3,-2,-1,4,-43,-6,-11,-341,-7
-9,-5,4,7,-7,0,4,-43,-6,-11,-338,-7
-9,-5,4,7,-7,0,4,-43,-6,-11,-336,-7
-6,-3,1,4,-3,-1,4,-43,-6,-12,-335,-7
-4,-2,0,3,-2,-2,3,-43,-6,-13,-334,-8
-3,0,2,2,-2,0,4,-43,-6,-13,-332,-8
0,2,2,0,-1,2,4,-43,-6,-13,-329,-8
3,2,-1,-1,2,0,4,-44,-7,-13,-327,-9
6,-2,-7,-1,7,-5,2,-45,-8,-15,-326,-10
8,-4,-13,-2,11,-9,0,-47,-9,-16,-326,-12
7,-4,-12,-2,10,-8,-1,-47,-9,-16,-324,-13
-3,-3,-1,2,-1,-2,3,-45,-7,-14,-321,-12
-12,-4,7,7,-10,1,6,-43,-5,-12,-318,-11
-13,-8,5,10,-9,-1,4,-44,-6,-13,-317,-10
-12,-12,1,12,-7,-5,2,-46,-7,-14,-316,-11
-9,-11,-1,11,-4,-6,3,-46,-7,-14,-314,-11
-6,-8,-2,8,-2,-5,4,-45,-6,-13,-310,-11
-5,-6,-1,6,-2,-3,6,-43,-5,-11,-307,-10
-6,-5,0,5,-3,-2,7,-43,-4,-10,-304,-9
-6,-7,-1,6,-2,-3,6,-43,-5,-11,-303,-9
-6,-8,-2,6,-2,-4,5,-44,-6,-12,-303,-10
-6,-6,0,6,-2,-3,4,-44,-6,-13,-301,-10
-7,-6,1,6,-4,-2,4,-45,-7,-14,-300,-10
-6,-7,0,7,-3,-4,3,-46,-8,-15,-299,-11
-7,-9,-1,9,-3,-6,3,-47,-8,-15,-297,-11
-10,-12,-2,11,-4,-7,3,-47,-8,-15,-295,-11
-9,-11,-3,10,-3,-7,4,-46,-8,-14,-292,-11
-4,-8,-5,6,0,-7,4,-45,-7,-13,-289,-11
-1,-6,-6,3,2,-6,5,-44,-6,-13,-288,-11
-2,-7,-5,4,1,-6,7,-42,-6,-13,-287,-11
-8,-12,-4,10,-2,-8,9,-40,-6,-13,-286,-12
-13,-17,-3,16,-5,-10,10,-39,-6,-14,-286,-13
-15,-19,-3,17,-6,-11,10,-38,-5,-14,-285,-14
-11,-14,-2,13,-4,-8,12,-34,-1,-11,-281,-14
-5,-7,-2,5,-2,-4,14,-29,2,-7,-276,-13
0,-3,-3,1,1,-3,14,-24,7,-2,-270,-11
5,-1,-7,-3,6,-4,13,-18,13,3,-264,-10
14,3,-12,-9,13,-5,12,-11,21,11,-257,-8
22,7,-14,-14,17,-4,11,-3,30,21,-248,-5
26,13,-12,-18,18,0,12,5,42,34,-237,0
31,21,-9,-25,20,5,13,13,54,48,-224,7
39,31,-7,-34,22,12,11,20,66,61,-212,14
46,42,-4,-44,25,19,5,24,77,74,-200,21
50,50,-2,-50,26,24,-5,26,88,88,-187,28
52,54,0,-54,26,27,-17,23,98,100,-174,35
58,62,2,-61,28,32,-29,13,104,110,-163,42
64,73,9,-69,28,41,-40,-4,104,112,-156,49
61,76,15,-68,23,46,-49,-29,95,106,-155,54
53,70,17,-60,18,43,-55,-54,77,90,-163,53
43,58,14,-49,15,36,-59,-78,53,64,-178,47
28,42,13,-35,8,28,-62,-98,25,34,-197,37
15,29,13,-22,1,21,-64,-118,-4,3,-216,25
4,19,13,-12,-4,16,-68,-137,-33,-25,-232,14
-7,10,15,-2,-11,13,-70,-151,-55,-46,-245,4
-15,3,17,5,-16,10,-69,-157,-67,-58,-253,-4
-16,0,15,8,-16,8,-67,-157,-72,-64,-257,-9
-15,-2,13,9,-14,5,-64,-154,-72,-65,-258,-13
-19,-8,12,14,-16,2,-60,-149,-70,-65,-259,-15
-25,-13,11,19,-18,-1,-55,-142,-66,-64,-258,-18
-25,-15,10,20,-18,-2,-50,-133,-62,-62,-256,-20
-22,-14,6,17,-14,-4,-44,-125,-57,-59,-253,-21
-19,-15,3,16,-11,-6,-40,-117,-53,-56,-251,-23
-19,-18,0,18,-10,-9,-37,-109,-48,-53,-249,-24
-19,-20,-1,19,-9,-10,-32,-102,-42,-49,-246,-24
-15,-17,-1,16,-8,-8,-26,-93,-36,-43,-242,-23
-9,-12,-2,12,-4,-7,-20,-85,-30,-38,-237,-22
-6,-12,-5,9,-1,-8,-15,-79,-26,-35,-234,-21
-5,-11,-6,8,0,-9,-11,-74,-22,-33,-231,-21
-8,-11,-4,9,-2,-8,-8,-69,-19,-30,-228,-21
-10,-12,-3,10,-3,-7,-5,-65,-17,-28,-225,-20
-8,-10,-3,8,-2,-7,-1,-60,-14,-25,-221,-20
-6,-8,-2,7,-2,-5,2,-56,-11,-22,-218,-19
-6,-7,0,6,-2,-4,4,-54,-9,-19,-215,-18
-5,-6,0,6,-3,-3,4,-52,-9,-18,-213,-18
-7,-9,-1,8,-3,-5,4,-51,-9,-17,-212,-18
-9,-12,-2,11,-4,-7,4,-50,-9,-17,-210,-18
-11,-14,-3,12,-4,-8,4,-50,-9,-17,-209,-18
-8,-11,-4,9,-1,-7,5,-49,-9,-17,-207,-18
-2,-5,-4,3,0,-4,7,-46,-8,-15,-204,-17
-2,-4,-3,3,0,-3,7,-45,-8,-15,-202,-17
-2,-4,-3,4,0,-4,7,-45,-8,-14,-200,-17
0,-3,-3,2,0,-3,7,-43,-7,-13,-199,-16
1,-2,-3,1,2,-2,8,-43,-6,-12,-197,-16
1,-3,-3,1,2,-3,7,-43,-6,-12,-196,-15
0,-6,-6,3,3,-6,6,-44,-7,-13,-195,-16
2,-7,-8,2,5,-7,5,-44,-7,-14,-194,-16
2,-5,-7,1,4,-6,6,-43,-7,-14,-192,-17
1,-4,-5,1,2,-4,6,-42,-6,-13,-190,-17
0,-5,-6,2,3,-6,5,-43,-6,-13,-189,-17
1,-7,-8,3,4,-8,5,-43,-5,-13,-188,-18
0,-7,-6,4,2,-7,6,-43,-4,-12,-186,-18
-3,-5,-2,4,0,-4,7,-42,-2,-11,-183,-17
-4,-5,-1,4,-1,-3,7,-41,0,-10,-181,-16
-4,-8,-4,5,0,-6,6,-41,0,-11,-180,-16
-4,-10,-7,6,1,-9,3,-42,0,-13,-179,-17
-2,-8,-6,4,1,-7,3,-41,0,-13,-178,-18
1,0,-2,-1,1,-1,7,-38,3,-10,-175,-17
4,3,-1,-4,2,1,9,-36,5,-8,-172,-16
4,0,-4,-2,3,-2,9,-36,6,-7,-170,-15
4,-5,-9,1,7,-8,7,-37,5,-8,-170,-16
6,-9,-14,2,10,-12,5,-38,5,-9,-169,-16
4,-10,-14,2,9,-12,5,-38,5,-10,-169,-17
-1,-10,-8,4,4,-9,5,-37,5,-9,-167,-18
-1,-7,-6,3,2,-6,7,-36,5,-8,-165,-18
2,-4,-7,0,5,-6,8,-35,5,-7,-162,-17
1,-5,-6,2,4,-6,8,-34,5,-7,-161,-16
-5,-8,-3,7,0,-6,7,-34,4,-7,-159,-16
-7,-9,-2,8,-2,-5,7,-34,3,-7,-158,-16
-4,-6,-2,5,0,-4,7,-34,2,-7,-157,-16
-2,-5,-3,3,0,-4,7,-34,1,-7,-156,-16
0,-4,-4,2,2,-4,6,-34,0,-7,-155,-16
2,-3,-5,0,3,-4,7,-33,0,-7,-154,-16
2,-2,-4,0,3,-4,7,-32,0,-6,-152,-16
0,-3,-4,1,2,-4,7,-33,-1,-7,-151,-16
1,-5,-7,2,4,-6,6,-33,-3,-8,-150,-16
2,-7,-10,2,6,-8,6,-34,-4,-8,-150,-16
4,-8,-12,2,8,-9,6,-34,-4,-8,-149,-16
2,-9,-11,3,6,-9,5,-35,-4,-9,-148,-16
-3,-11,-7,7,1,-9,4,-35,-4,-9,-147,-16
-7,-12,-4,9,-2,-8,4,-35,-4,-9,-146,-17
-9,-11,-2,10,-4,-7,4,-35,-4,-9,-144,-17
-8,-8,0,8,-4,-5,4,-35,-3,-8,-143,-17
-2,-3,-1,2,0,-2,6,-33,-2,-7,-140,-17
3,0,-3,-1,3,-1,8,-32,0,-5,-138,-16
4,0,-4,-2,4,-2,9,-31,1,-4,-136,-16
6,0,-6,-3,6,-2,8,-30,2,-4,-136,-15
9,0,-8,-4,9,-4,7,-31,2,-5,-136,-15
11,0,-10,-6,11,-5,7,-31,3,-5,-135,-15
14,1,-12,-8,13,-5,6,-31,3,-5,-133,-15
12,0,-12,-6,12,-6,5,-32,3,-5,-132,-15
5,-4,-10,-1,8,-7,5,-32,3,-6,-131,-15
1,-6,-8,2,5,-7,5,-31,4,-5,-129,-15
2,-6,-8,1,5,-7,6,-30,5,-5,-126,-14
2,-6,-8,1,5,-7,6,-30,6,-5,-124,-14
1,-5,-7,2,4,-6,6,-29,7,-4,-122,-13
0,-4,-5,1,2,-4,7,-27,8,-2,-120,-12
3,-3,-6,0,4,-5,7,-26,8,-2,-118,-12
9,-3,-12,-4,10,-7,6,-25,7,-2,-117,-12
16,0,-16,-8,16,-8,5,-25,7,-3,-115,-12
17,2,-15,-10,16,-6,5,-24,7,-3,-113,-12
9,-3,-13,-3,11,-8,3,-24,7,-3,-112,-12
3,-8,-12,2,8,-10,2,-25,6,-4,-111,-13
4,-7,-11,1,8,-9,3,-24,6,-3,-109,-13
8,-3,-11,-3,9,-7,4,-22,7,-1,-106,-12
10,-1,-11,-5,11,-6,6,-20,8,0,-104,-11
9,-1,-10,-5,10,-6,6,-19,9,0,-102,-10
7,-3,-10,-2,9,-7,5,-19,9,0,-100,-9
5,-5,-11,0,8,-8,4,-19,8,0,-98,-9
5,-5,-10,0,8,-8,3,-19,8,0,-97,-9
6,-4,-10,-1,9,-7,3,-18,9,1,-95,-8
12,0,-11,-6,12,-5,4,-16,10,2,-92,-7
16,3,-13,-10,15,-5,4,-15,11,3,-90,-6
16,3,-13,-10,15,-5,3,-15,10,4,-89,-6
15,4,-11,-10,13,-4,2,-15,10,4,-87,-6
15,4,-11,-9,13,-3,1,-15,10,4,-85,-6
15,3,-12,-8,14,-4,0,-16,10,4,-85,-6
17,2,-15,-10,17,-6,-1,-16,9,3,-84,-6
20,3,-17,-11,19,-7,-2,-16,9,3,-83,-7
17,0,-17,-8,17,-9,-3,-17,8,2,-82,-7
13,-4,-17,-5,15,-10,-5,-18,7,1,-81,-7
17,-1,-17,-8,17,-8,-4,-17,7,2,-78,-7
21,6,-15,-13,18,-4,-2,-15,8,4,-75,-6
23,10,-13,-16,18,-1,-1,-14,9,5,-72,-5
24,11,-13,-17,19,-1,-1,-14,9,5,-71,-5
22,9,-14,-15,18,-2,-1,-15,8,5,-70,-5
16,5,-12,-10,14,-3,-2,-15,8,4,-70,-5
10,1,-9,-6,10,-3,-3,-16,7,3,-69,-5
8,1,-7,-5,8,-2,-4,-16,7,3,-68,-5
11,4,-7,-8,10,-1,-4,-17,6,2,-67,-5
14,4,-9,-9,11,-2,-6,-18,5,1,-67,-6
12,0,-11,-6,11,-5,-9,-20,3,0,-67,-7
14,1,-14,-8,14,-6,-11,-22,2,-1,-67,-8
21,7,-15,-14,18,-4,-8,-20,3,1,-64,-8
25,11,-14,-18,20,-1,-5,-18,5,2,-62,-6
23,10,-13,-17,19,-1,-5,-18,5,2,-61,-5
19,6,-12,-13,16,-2,-5,-19,4,2,-60,-5
15,5,-9,-10,12,-1,-5,-19,3,1,-60,-6
14,7,-6,-11,10,1,-4,-19,3,2,-58,-6
14,7,-6,-11,10,0,-3,-19,3,2,-57,-6
15,6,-10,-11,13,-2,-4,-20,3,1,-57,-6
20,7,-14,-14,17,-3,-6,-22,1,0,-58,-7
24,9,-15,-16,20,-3,-7,-24,0,-1,-58,-8
20,9,-12,-14,17,-2,-6,-23,0,-1,-58,-9
12,6,-6,-9,10,0,-3,-22,1,0,-56,-8
8,5,-2,-7,5,1,-1,-22,1,0,-54,-8
8,6,-1,-7,5,2,-1,-22,1,0,-54,-8
8,8,0,-8,4,4,-1,-23,1,0,-53,-8
9,10,0,-9,5,5,0,-23,1,0,-52,-9
9,8,-2,-8,5,3,-1,-24,0,-1,-51,-9
6,3,-3,-5,5,0,-2,-25,0,-2,-52,-9
4,0,-4,-3,5,-1,-2,-26,-1,-2,-52,-10
3,0,-3,-2,4,0,-2,-27,-2,-2,-52,-10
0,-2,-1,0,1,-1,-1,-27,-2,-2,-51,-10
-1,-5,-3,3,1,-3,-1,-28,-3,-2,-50,-10
2,-4,-6,1,4,-5,-1,-29,-3,-3,-49,-10
6,0,-7,-3,6,-3,0,-29,-3,-3,-48,-11
6,1,-6,-4,6,-2,-1,-30,-4,-3,-48,-11
5,0,-5,-3,5,-2,-1,-30,-4,-4,-48,-12
5,1,-5,-3,5,-1,0,-30,-4,-3,-47,-12
5,2,-4,-4,5,-1,1,-29,-4,-2,-46,-12
5,2,-2,-4,4,0,1,-29,-4,-2,-45,-12
5,4,-1,-4,3,1,2,-29,-4,-2,-43,-12
6,5,-2,-5,4,1,2,-29,-5,-2,-43,-12
7,5,-3,-6,5,1,1,-29,-5,-3,-42,-13
5,5,0,-5,3,2,1,-30,-5,-3,-41,-13
4,5,1,-5,1,3,2,-30,-5,-2,-40,-13
4,6,1,-5,1,3,2,-29,-5,-2,-40,-13
1,2,1,-2,0,2,1,-30,-7,-3,-40,-14
-3,-2,1,2,-2,0,0,-31,-8,-4,-40,-16
-5,-6,-1,5,-2,-3,-1,-32,-10,-5,-40,-17
-9,-9,0,9,-4,-5,-1,-32,-11,-6,-40,-18
-13,-10,3,11,-8,-3,-1,-32,-11,-6,-39,-18
-12,-9,3,10,-8,-3,-1,-32,-11,-6,-38,-18
-8,-7,1,7,-5,-3,-1,-32,-12,-7,-38,-18
-4,-3,1,3,-3,-1,0,-32,-12,-6,-36,-18
0,0,1,0,-1,0,1,-31,-11,-5,-35,-17
2,2,0,-2,0,1,1,-30,-12,-4,-34,-17
1,2,0,-2,0,1,2,-30,-12,-4,-33,-17
1,1,0,-1,1,0,1,-30,-13,-4,-32,-17
0,1,-1,-1,1,0,0,-31,-14,-5,-32,-17
-1,0,0,0,0,0,0,-32,-15,-6,-32,-18
-2,0,0,0,-1,0,-1,-32,-15,-7,-32,-19
-3,-1,0,1,-2,-1,-2,-32,-16,-7,-32,-19
0,0,0,0,-1,0,-2,-32,-16,-7,-31,-20
6,4,-2,-5,3,0,-1,-32,-17,-7,-30,-20
8,3,-4,-5,5,0,-1,-33,-17,-7,-30,-20
1,-1,-2,0,2,-2,-1,-33,-17,-7,-29,-20
-3,-2,0,3,-2,-1,0,-32,-17,-7,-27,-20
-2,-1,0,2,-2,0,1,-31,-16,-6,-26,-19
-2,0,0,1,-1,0,0,-31,-16,-7,-26,-19
-1,0,1,0,-1,0,0,-31,-16,-7,-25,-19
1,0,-2,0,1,-1,0,-31,-15,-7,-25,-19
4,-2,-7,-1,6,-5,-1,-31,-15,-8,-25,-20
5,-4,-9,0,7,-7,-2,-32,-16,-8,-25,-20
1,-3,-4,1,3,-4,0,-31,-14,-8,-24,-20
-2,1,3,0,-2,2,2,-29,-12,-6,-21,-19
-3,3,6,0,-4,4,2,-28,-11,-5,-20,-18
-4,1,5,1,-5,3,2,-27,-10,-6,-19,-18
-5,0,5,2,-5,2,2,-27,-10,-6,-19,-18
-4,0,4,2,-4,1,3,-26,-9,-5,-18,-18
-2,1,4,0,-3,2,3,-25,-8,-4,-17,-18
0,2,2,-1,-1,1,3,-24,-8,-4,-16,-18
0,-1,-1,0,0,-1,2,-25,-9,-5,-16,-19
0,-5,-5,3,2,-5,0,-26,-11,-7,-16,-20
0,-6,-7,4,2,-7,-1,-26,-13,-8,-16,-21
-1,-7,-6,4,2,-7,-2,-27,-14,-9,-16,-21
-1,-6,-5,3,2,-6,-2,-26,-14,-9,-16,-22
-1,-3,-2,2,0,-3,0,-24,-14,-8,-14,-22
-5,-1,3,2,-4,1,3,-21,-12,-5,-12,-21
-6,0,7,2,-6,3,5,-19,-11,-4,-10,-20
-4,2,7,1,-5,4,5,-17,-11,-3,-9,-20
-4,3,7,0,-5,5,4,-17,-11,-4,-9,-20
-5,1,6,1,-6,3,4,-16,-11,-4,-9,-20
-5,-1,3,3,-4,1,3,-16,-12,-4,-9,-21
-4,-1,1,2,-3,0,3,-15,-12,-4,-8,-21
0,1,0,-1,0,1,4,-14,-12,-3,-7,-21
3,2,0,-3,1,1,4,-13,-12,-3,-6,-21
1,1,1,-1,0,1,4,-12,-12,-3,-5,-21
0,1,2,0,-1,1,4,-11,-12,-3,-4,-21
0,0,1,0,-1,0,2,-11,-12,-3,-4,-22
0,0,0,0,-1,0,1,-10,-11,-3,-3,-22
-1,-1,0,1,-1,-1,2,-9,-10,-2,-3,-21
-3,-2,0,2,-1,-1,2,-8,-9,-1,-2,-21
-1,-1,0,1,0,-1,2,-7,-9,-1,-1,-21
6,3,-3,-5,5,0,2,-6,-8,0,0,-21
14,6,-8,-10,11,-1,1,-6,-9,-1,0,-21
18,7,-11,-12,15,-3,-1,-7,-10,-3,0,-23
16,5,-10,-10,13,-3,-1,-7,-10,-3,0,-24
7,3,-4,-5,6,-1,0,-5,-8,-1,2,-23
-2,3,4,0,-3,3,2,-2,-6,1,5,-22
-6,4,9,0,-7,7,3,-1,-4,3,7,-21
-6,5,10,0,-8,8,3,0,-3,4,8,-20
-7,3,10,1,-8,7,3,0,-3,5,10,-19
-9,0,9,4,-9,4,3,1,-2,5,11,-19
-11,-5,6,8,-9,0,2,0,-3,4,11,-19
-8,-4,5,5,-6,0,2,1,-3,4,12,-20
0,4,4,-2,-2,4,4,3,-1,5,14,-19
6,10,3,-8,1,6,4,4,0,6,16,-17
5,8,2,-7,2,5,3,4,0,6,16,-17
2,4,1,-3,1,3,2,3,0,5,15,-18
-3,0,1,1,-2,0,2,3,-1,4,15,-19
-8,-5,2,7,-5,-1,1,2,-1,3,15,-20
-7,-5,2,6,-4,-1,1,3,0,3,16,-21
1,2,2,-1,0,2,2,5,0,4,18,-21
7,9,2,-8,2,6,4,7,2,5,20,-20
9,13,4,-10,2,8,4,7,3,6,21,-19
7,15,8,-11,0,11,4,7,3,6,22,-18
5,15,9,-10,-2,12,4,7,3,6,23,-18
3,12,9,-8,-2,11,5,8,3,7,24,-18
3,12,8,-8,-1,10,7,9,5,8,25,-18
5,12,6,-8,0,9,7,10,6,8,26,-18
5,9,5,-7,0,7,5,9,5,6,25,-18
1,5,5,-3,-2,5,3,7,3,5,25,-19
-1,3,5,-1,-3,4,1,7,3,4,25,-20
0,5,5,-3,-2,5,1,7,2,4,26,-20
1,6,5,-4,-1,5,1,7,2,4,27,-20
1,6,4,-4,-1,4,1,7,1,4,27,-21
5,8,3,-7,1,6,1,7,1,5,28,-21
8,14,6,-12,1,10,3,9,2,6,30,-21
10,19,10,-14,0,15,3,9,3,8,32,-20
12,21,10,-16,0,16,1,9,2,8,33,-19
13,20,8,-16,2,14,-1,8,1,8,33,-20
12,20,8,-16,1,14,-2,7,1,8,34,-20
7,20,11,-14,-2,15,-2,7,1,10,36,-19
3,19,14,-11,-5,16,-1,8,1,11,37,-18
2,18,14,-10,-6,15,-1,8,1,12,38,-17
2,16,13,-9,-5,14,-2,8,1,12,38,-17
2,15,12,-8,-5,13,-3,7,1,11,39,-18
5,17,12,-10,-4,14,-3,8,1,12,40,-18
7,17,10,-12,-1,14,-4,8,1,12,41,-18
8,17,9,-12,0,13,-5,7,1,11,41,-18
6,17,10,-11,-1,13,-5,7,1,11,41,-19
5,17,11,-11,-2,14,-5,8,2,11,42,-19
7,18,10,-13,-1,14,-5,8,2,12,43,-19
10,22,11,-16,0,16,-5,9,3,12,45,-18
11,22,10,-16,0,16,-5,9,3,12,45,-18
11,17,6,-13,2,12,-6,8,2,10,45,-18
11,12,2,-11,4,8,-8,7,1,8,44,-19
10,10,0,-9,4,6,-8,7,1,8,44,-20
9,9,0,-9,4,5,-9,6,1,7,44,-20
11,10,-2,-11,6,4,-9,6,1,6,44,-21
11,11,-1,-11,6,5,-7,6,1,7,45,-21
9,9,0,-9,5,4,-6,7,2,7,46,-21
8,9,0,-8,5,4,-5,7,2,6,46,-22
6,9,4,-7,1,6,-4,7,2,6,46,-22
2,8,7,-4,-2,7,-3,8,2,6,47,-22
0,4,4,-1,-2,4,-3,7,1,6,46,-22
0,0,0,0,0,1,-3,7,0,5,46,-23
-2,-1,0,0,0,0,-3,7,0,4,46,-24
-5,-4,0,4,-2,-2,-3,6,0,4,45,-24
-7,-6,0,6,-3,-3,-4,5,-2,2,45,-25
-4,-6,-1,5,-1,-4,-4,5,-2,1,45,-26
-2,-6,-3,4,0,-4,-4,5,-2,1,45,-27
0,-5,-3,3,1,-4,-4,5,-2,0,45,-27
4,-1,-4,-1,4,-2,-3,5,-2,1,47,-27
7,1,-6,-3,6,-2,-1,6,-1,2,48,-27
7,0,-7,-3,7,-4,-1,6,-1,2,49,-27
5,-3,-8,-1,7,-5,-3,6,-2,2,48,-28
3,-5,-8,0,6,-6,-3,6,-2,2,48,-28
1,-6,-6,2,4,-6,-2,6,-1,2,48,-28
-1,-5,-3,3,1,-4,-1,6,-1,2,49,-27
-2,-5,-2,4,-1,-3,-1,6,-1,2,49,-27
-2,-7,-4,4,0,-5,-3,4,-2,0,48,-28
-1,-8,-6,5,1,-7,-4,4,-3,0,48,-29
-2,-7,-5,5,1,-6,-4,4,-3,0,48,-30
-2,-6,-4,4,1,-5,-4,4,-3,0,49,-30
-1,-4,-3,3,1,-4,-3,4,-3,1,49,-30
2,-3,-5,1,4,-4,-3,4,-3,1,50,-31
3,-4,-6,0,5,-6,-3,4,-3,1,50,-31
1,-6,-6,2,4,-6,-4,4,-3,1,50,-32
0,-7,-5,4,2,-7,-4,4,-3,1,50,-33
-1,-7,-6,4,2,-7,-3,5,-3,1,51,-33
1,-6,-8,3,4,-7,-3,5,-3,2,52,-33
3,-6,-11,1,7,-8,-3,4,-3,2,53,-33
3,-7,-12,2,8,-9,-3,4,-4,1,53,-34
1,-10,-12,5,7,-11,-4,3,-5,1,53,-36
-4,-15,-11,9,4,-12,-4,2,-6,0,53,-37
-6,-16,-9,11,1,-12,-4,3,-6,0,53,-37
-7,-13,-5,10,-1,-9,-3,3,-6,1,54,-37
-7,-9,-1,8,-3,-5,-1,4,-6,1,56,-37
-4,-4,0,4,-2,-2,0,4,-6,2,57,-36
1,-1,-2,0,2,-1,0,4,-6,2,58,-36
3,-1,-4,-1,4,-2,0,5,-7,1,58,-37
2,-3,-5,0,4,-4,2,7,-7,1,57,-37
-1,-8,-6,5,3,-7,6,10,-6,1,57,-37
-4,-14,-9,10,2,-11,7,12,-6,1,56,-38
-5,-17,-10,11,2,-13,7,14,-5,1,56,-39
0,-14,-13,7,6,-14,6,15,-3,2,57,-40
7,-13,-20,3,13,-16,3,16,-2,3,58,-41
9,-11,-21,0,15,-16,2,21,2,7,61,-41
11,-3,-15,-4,13,-9,6,31,12,16,69,-38
18,6,-12,-12,15,-3,10,42,23,28,78,-33
26,12,-13,-19,21,0,10,51,34,39,87,-28
33,18,-14,-26,25,2,9,58,44,50,95,-22
38,25,-13,-32,26,6,8,65,54,62,105,-16
40,31,-9,-35,24,11,6,71,65,75,115,-10
41,37,-4,-39,22,16,0,75,76,87,126,-4
49,48,-2,-48,26,23,-11,78,89,102,138,2
62,61,-2,-61,33,29,-22,77,101,116,152,10
71,72,1,-71,36,36,-34,68,108,126,163,19
73,81,8,-77,34,44,-46,50,107,129,168,26
70,83,14,-76,29,48,-56,25,98,122,167,30
60,74,15,-67,23,45,-63,-1,80,105,157,29
48,61,14,-54,17,38,-67,-25,55,79,140,23
34,45,12,-39,11,29,-70,-46,26,49,120,12
21,31,10,-26,5,21,-74,-68,-4,17,99,0
13,22,9,-17,2,16,-76,-86,-33,-10,82,-11
9,17,7,-13,1,12,-77,-99,-54,-30,69,-21
7,12,5,-8,1,8,-77,-105,-66,-42,59,-29
2,5,4,-3,0,5,-76,-106,-72,-49,53,-35
-7,-1,7,4,-7,4,-71,-102,-72,-50,51,-39
-17,-6,11,12,-14,3,-65,-95,-69,-49,50,-41
-22,-11,11,17,-17,0,-58,-88,-66,-47,49,-43
-23,-13,9,18,-17,-2,-53,-80,-61,-45,50,-45
-18,-12,5,15,-12,-3,-47,-71,-56,-43,51,-46
-11,-10,1,10,-6,-4,-43,-62,-51,-40,53,-47
-10,-12,-2,11,-4,-7,-41,-55,-46,-37,53,-48
-12,-15,-2,14,-5,-8,-37,-48,-41,-34,54,-49
-13,-16,-1,14,-6,-8,-31,-39,-35,-29,57,-49
-10,-13,-2,11,-4,-7,-24,-31,-30,-24,60,-48
-4,-9,-5,6,0,-7,-17,-25,-25,-20,63,-47
-1,-7,-7,4,3,-7,-13,-20,-22,-17,65,-46
0,-6,-7,2,3,-6,-9,-15,-19,-15,67,-46
1,-4,-6,1,3,-5,-6,-10,-15,-12,70,-46
2,-4,-6,0,4,-5,-5,-6,-13,-10,71,-45
6,-4,-9,-1,7,-7,-5,-4,-13,-9,72,-46
9,-6,-14,-1,11,-9,-4,-1,-12,-8,72,-46
6,-9,-15,1,10,-11,-3,0,-12,-6,72,-46
-1,-12,-11,7,4,-11,-1,2,-11,-5,73,-46
-10,-16,-7,13,-2,-11,0,3,-12,-5,74,-46
-15,-18,-3,17,-6,-11,0,3,-13,-5,74,-47
-12,-13,-1,12,-5,-7,1,5,-12,-4,76,-47
-3,-6,-3,4,0,-4,3,8,-11,-2,78,-46
2,-5,-6,1,4,-5,3,9,-10,-1,79,-46
1,-8,-8,4,5,-8,3,10,-10,0,79,-46
0,-9,-8,5,3,-8,3,12,-9,0,80,-46
0,-6,-6,3,3,-6,5,13,-8,1,81,-45
4,-1,-7,-1,5,-4,6,14,-8,2,82,-45
9,0,-10,-4,9,-5,5,13,-9,1,82,-45
10,-2,-14,-4,12,-9,2,11,-10,-1,81,-47
9,-7,-17,-2,13,-12,-1,10,-11,-3,80,-48
5,-10,-15,2,11,-13,-1,10,-11,-3,80,-49
0,-12,-10,6,5,-11,1,12,-8,-1,82,-48
-1,-9,-7,5,2,-8,2,13,-6,0,83,-47
1,-5,-7,2,3,-6,4,14,-5,1,85,-47
2,-3,-6,1,4,-4,6,15,-4,3,87,-46
3,-1,-5,0,4,-3,8,16,-2,4,89,-46
3,-1,-6,-1,4,-4,7,17,-2,4,90,-45
2,-2,-5,0,4,-4,7,17,-1,4,91,-45
0,-2,-3,1,2,-2,7,18,0,5,92,-45
-1,-3,-1,2,0,-2,6,18,1,5,92,-45
-3,-6,-2,5,-1,-3,4,16,0,4,91,-46
-6,-8,-2,7,-2,-4,4,16,0,4,91,-47
-6,-9,-4,8,-2,-6,5,16,0,4,92,-48
-2,-8,-6,5,1,-6,5,16,0,5,93,-49
1,-4,-7,1,4,-6,7,17,0,6,94,-49
4,-3,-8,-1,6,-6,7,18,1,6,95,-49
5,-3,-9,-1,7,-7,6,18,0,6,95,-49
8,-2,-10,-3,9,-7,6,18,0,6,95,-50
8,-2,-9,-3,9,-6,6,18,0,6,95,-50
5,-3,-7,-1,7,-5,6,18,-1,6,95,-50
2,-5,-6,1,5,-5,6,18,-2,6,95,-50
1,-8,-9,3,5,-8,5,17,-5,5,95,-51
0,-11,-12,5,7,-11,3,16,-8,3,94,-53
0,-12,-13,5,7,-12,2,15,-10,2,94,-54
3,-8,-12,2,8,-10,3,17,-10,3,95,-55
7,-2,-9,-2,8,-5,6,19,-9,6,97,-54
8,0,-7,-4,7,-3,7,20,-8,7,98,-53
6,0,-6,-3,6,-2,7,21,-8,7,99,-52
7,2,-5,-3,5,0,9,22,-8,8,100,-52
9,3,-6,-5,7,0,9,22,-8,8,100,-52
9,1,-9,-4,9,-4,8,21,-10,7,100,-52
8,-2,-11,-2,10,-7,6,20,-11,6,99,-54
6,-5,-11,0,9,-9,5,20,-11,5,99,-55
1,-8,-9,3,5,-9,4,20,-10,5,99,-56
1,-8,-8,3,4,-8,5,20,-9,6,100,-56
7,-4,-9,-1,8,-6,7,21,-7,8,101,-55
11,0,-10,-6,11,-4,8,22,-6,9,102,-55
11,3,-8,-6,10,-2,10,24,-4,11,104,-54
9,1,-7,-4,8,-2,9,24,-4,10,104,-54
7,-1,-8,-3,8,-4,7,23,-5,9,104,-55
8,-1,-10,-3,10,-6,6,22,-5,8,103,-56
8,-3,-10,-2,10,-7,6,22,-4,8,103,-57
4,-6,-10,1,7,-8,5,22,-4,8,103,-57
4,-7,-10,1,6,-8,6,22,-4,8,103,-58
3,-7,-9,2,5,-7,6,22,-3,9,103,-58
1,-9,-9,4,4,-8,4,21,-4,8,102,-59
3,-8,-10,3,6,-9,4,21,-4,7,102,-59
11,0,-11,-6,12,-5,6,23,-3,9,105,-59
20,7,-12,-14,17,-2,8,25,-1,11,107,-57
21,8,-12,-15,18,-2,7,25,-1,11,108,-57
19,6,-12,-12,16,-3,7,25,-1,11,108,-57
18,4,-13,-11,16,-4,6,25,0,11,108,-57
21,3,-18,-12,19,-6,5,25,0,10,106,-58
26,5,-21,-15,23,-7,4,25,-1,10,104,-59
25,5,-20,-15,22,-7,4,25,0,10,101,-59
19,4,-15,-11,18,-6,4,26,0,11,99,-59
