leadI,leadII,leadIII,leadaVR,leadaVL,leadaVF,leadV1,leadV2,leadV3,leadV4,leadV5,leadV6
6,8,1,-7,2,4,-4,0,13,17,17,13
15,23,7,-19,4,14,-13,-4,34,48,47,36
20,34,13,-27,3,23,-21,-13,48,71,69,55
21,39,17,-30,1,28,-29,-26,52,84,82,66
17,37,18,-27,-1,27,-34,-41,48,86,85,70
13,30,16,-21,-2,22,-39,-56,37,78,78,66
9,20,11,-14,-1,15,-46,-70,21,62,64,55
5,10,5,-7,0,7,-54,-80,3,39,42,38
1,1,0,-1,0,0,-58,-88,-17,11,15,18
-3,-6,-3,5,0,-6,-58,-94,-40,-21,-15,-5
-9,-15,-6,12,-2,-11,-55,-99,-65,-54,-46,-29
-14,-24,-10,20,-3,-17,-50,-103,-89,-84,-72,-49
-17,-30,-13,24,-2,-22,-43,-102,-108,-107,-91,-63
-17,-31,-14,25,-2,-23,-35,-98,-119,-122,-103,-71
-17,-30,-13,24,-2,-22,-26,-90,-123,-129,-109,-76
-16,-28,-11,22,-3,-20,-17,-79,-121,-129,-110,-77
-15,-26,-10,21,-3,-18,-9,-67,-114,-126,-109,-77
-15,-24,-9,20,-4,-17,-1,-55,-107,-121,-106,-76
-15,-22,-7,19,-4,-15,5,-45,-99,-115,-103,-75
-15,-21,-5,18,-5,-13,11,-37,-92,-110,-99,-73
-14,-20,-4,17,-5,-12,15,-29,-85,-105,-96,-71
-14,-19,-4,17,-5,-12,19,-23,-79,-100,-92,-69
-14,-18,-4,16,-5,-11,23,-17,-75,-96,-89,-68
-14,-19,-4,16,-5,-12,25,-13,-71,-94,-87,-67
-14,-20,-5,17,-5,-13,27,-10,-69,-92,-86,-67
-14,-20,-6,18,-4,-13,29,-8,-67,-90,-85,-67
-13,-20,-6,17,-3,-13,31,-5,-65,-88,-84,-66
-11,-19,-7,15,-2,-13,32,-3,-63,-87,-83,-65
-11,-19,-8,15,-2,-13,33,-1,-61,-86,-82,-65
-12,-19,-8,16,-2,-13,33,0,-60,-84,-81,-65
-11,-19,-8,15,-2,-13,34,0,-58,-83,-79,-64
-11,-18,-8,15,-1,-13,35,1,-57,-82,-79,-64
-11,-19,-8,15,-1,-13,35,1,-57,-81,-78,-64
-11,-20,-8,16,-2,-14,35,2,-56,-81,-78,-64
-12,-20,-8,16,-1,-14,35,2,-56,-81,-78,-64
-12,-20,-8,16,-1,-14,35,3,-56,-80,-78,-64
-11,-20,-8,16,-1,-14,36,4,-55,-79,-78,-64
-11,-19,-8,16,-1,-14,36,5,-54,-79,-77,-63
-12,-20,-9,16,-1,-14,35,5,-54,-78,-77,-64
-12,-21,-9,17,-1,-15,35,5,-54,-78,-77,-64
-13,-22,-8,18,-2,-15,35,5,-54,-78,-77,-64
-13,-22,-8,18,-2,-15,35,5,-53,-78,-76,-64
-13,-22,-8,17,-2,-15,35,5,-53,-78,-76,-64
-14,-22,-8,18,-3,-15,35,5,-53,-78,-76,-64
-15,-24,-8,20,-4,-16,35,5,-53,-78,-77,-64
-16,-24,-8,20,-4,-16,34,5,-53,-78,-77,-64
-15,-23,-8,20,-4,-16,34,5,-53,-77,-76,-64
-13,-22,-8,18,-3,-15,35,6,-52,-77,-76,-63
-12,-21,-8,17,-2,-15,35,6,-51,-76,-76,-62
-11,-21,-8,16,-1,-15,36,7,-51,-76,-75,-62
-11,-20,-8,16,-1,-14,36,7,-50,-76,-75,-61
-11,-20,-8,15,-1,-14,36,7,-50,-76,-75,-61
-11,-20,-8,15,-2,-14,36,7,-50,-76,-75,-61
-11,-19,-8,15,-2,-14,36,8,-50,-75,-74,-61
-11,-19,-8,15,-2,-14,36,9,-49,-75,-74,-60
-12,-20,-8,16,-2,-14,35,9,-49,-75,-74,-61
-12,-20,-8,16,-2,-14,35,9,-49,-75,-74,-61
-13,-20,-8,16,-2,-14,35,9,-49,-75,-74,-61
-13,-21,-8,17,-3,-14,35,9,-49,-75,-74,-61
-15,-22,-8,18,-4,-15,35,9,-49,-75,-74,-61
-16,-23,-8,19,-4,-15,34,8,-49,-75,-74,-61
-15,-23,-8,19,-4,-15,34,8,-49,-75,-74,-61
-14,-22,-7,18,-4,-14,34,9,-49,-74,-74,-61
-13,-21,-7,17,-3,-14,34,9,-48,-74,-74,-61
-13,-20,-6,17,-3,-14,34,9,-48,-74,-74,-61
-13,-20,-7,17,-3,-13,34,9,-48,-74,-74,-61
-11,-18,-7,15,-2,-12,34,9,-48,-74,-74,-60
-10,-17,-7,13,-1,-11,34,10,-48,-73,-74,-60
-11,-17,-7,14,-2,-11,34,9,-48,-73,-74,-60
-13,-19,-7,16,-3,-12,33,9,-49,-74,-74,-61
-14,-20,-6,18,-4,-13,33,8,-49,-74,-75,-61
-14,-20,-6,18,-5,-13,33,8,-49,-74,-74,-61
-13,-19,-6,16,-4,-12,34,9,-48,-73,-74,-60
-11,-18,-6,15,-3,-12,35,9,-48,-73,-73,-60
-11,-18,-6,15,-2,-12,36,10,-47,-73,-73,-59
-11,-19,-7,15,-2,-13,36,11,-47,-72,-72,-59
-11,-20,-9,15,-1,-14,37,12,-46,-71,-71,-58
-11,-20,-10,15,0,-15,37,13,-45,-71,-71,-57
-11,-21,-10,16,0,-15,37,14,-44,-70,-70,-57
-12,-22,-11,17,0,-16,37,14,-44,-70,-70,-56
-12,-23,-11,17,0,-17,37,15,-44,-70,-70,-56
-12,-24,-12,17,0,-17,37,15,-44,-70,-70,-56
-12,-23,-11,17,0,-17,37,15,-44,-69,-70,-56
-12,-23,-11,17,0,-17,37,16,-44,-69,-70,-56
-12,-24,-11,18,-1,-17,37,16,-44,-69,-70,-56
-13,-24,-11,18,-1,-17,37,16,-44,-70,-70,-56
-12,-23,-10,18,-1,-17,37,17,-43,-70,-70,-56
-12,-21,-10,16,-1,-16,37,17,-43,-69,-70,-55
-11,-20,-10,15,-1,-15,38,18,-42,-69,-69,-55
-11,-20,-10,15,-1,-15,37,18,-42,-69,-69,-55
-11,-21,-10,15,-1,-15,37,18,-42,-69,-69,-55
-11,-21,-10,16,-1,-15,37,18,-42,-69,-69,-55
-12,-22,-9,17,-2,-16,36,18,-43,-70,-70,-55
-12,-22,-9,17,-2,-16,36,18,-43,-70,-70,-55
-13,-22,-9,17,-2,-16,36,18,-44,-70,-70,-55
-13,-21,-8,17,-2,-15,36,18,-44,-70,-70,-55
-12,-20,-7,16,-2,-14,36,18,-43,-69,-70,-55
-12,-19,-7,15,-2,-13,36,19,-43,-69,-69,-54
-12,-18,-7,15,-3,-13,36,19,-43,-69,-70,-54
-12,-18,-6,15,-3,-12,36,19,-43,-69,-70,-54
-11,-17,-6,14,-3,-11,36,20,-43,-69,-69,-54
-11,-16,-5,13,-3,-10,36,20,-43,-69,-69,-53
-11,-16,-5,13,-3,-10,36,20,-43,-69,-69,-53
-11,-15,-4,13,-4,-9,36,20,-43,-69,-69,-53
-11,-14,-3,13,-4,-9,35,20,-43,-69,-69,-53
-10,-14,-3,13,-3,-8,35,20,-43,-69,-69,-53
-9,-13,-3,12,-3,-8,35,21,-43,-69,-69,-53
-9,-12,-2,11,-3,-7,35,21,-43,-68,-69,-53
-9,-11,-2,10,-3,-6,35,21,-43,-68,-69,-53
-9,-11,-1,10,-4,-5,35,21,-43,-68,-69,-53
-9,-10,0,10,-5,-5,35,22,-43,-68,-68,-53
-10,-10,0,10,-5,-5,35,22,-43,-68,-68,-53
-10,-10,1,10,-5,-5,34,22,-43,-69,-68,-53
-11,-9,1,10,-6,-5,34,22,-44,-69,-68,-53
-11,-10,2,11,-6,-5,33,22,-44,-69,-69,-53
-13,-11,2,12,-8,-5,32,21,-44,-70,-69,-54
-13,-10,3,12,-9,-4,32,21,-44,-70,-69,-54
-12,-8,5,10,-9,-2,32,22,-44,-70,-69,-53
-10,-5,6,7,-8,0,32,22,-43,-69,-68,-52
-8,-2,6,5,-7,1,31,22,-43,-69,-68,-51
-6,0,7,3,-7,3,31,22,-43,-69,-67,-51
-6,1,7,2,-7,4,32,22,-43,-69,-67,-50
-6,1,8,3,-7,4,32,22,-44,-69,-67,-50
-7,1,9,3,-8,4,31,22,-44,-69,-67,-50
-8,1,10,4,-9,5,31,22,-44,-69,-67,-49
-8,1,10,4,-9,5,30,22,-44,-69,-66,-49
-8,1,10,3,-9,6,30,22,-44,-69,-66,-49
-8,2,11,2,-9,6,29,22,-44,-69,-65,-49
-7,4,11,1,-9,7,29,22,-44,-69,-65,-48
-6,5,11,0,-9,8,29,22,-44,-68,-64,-47
-6,5,12,0,-9,8,29,22,-44,-68,-64,-47
-6,6,12,0,-9,8,28,22,-44,-68,-64,-46
-6,6,13,0,-10,9,27,22,-44,-68,-63,-46
-7,6,14,0,-10,10,27,22,-44,-68,-63,-45
-7,6,14,0,-10,10,26,21,-44,-68,-63,-45
-6,7,13,0,-10,10,25,20,-44,-68,-62,-45
-5,8,13,-1,-9,10,25,20,-44,-67,-62,-44
-4,9,13,-2,-9,10,24,19,-44,-67,-61,-43
-4,9,13,-2,-9,11,24,19,-44,-67,-60,-42
-4,9,13,-2,-9,11,24,18,-44,-66,-60,-42
-3,9,13,-3,-8,11,23,18,-44,-66,-59,-41
-2,10,13,-3,-7,11,23,17,-44,-65,-58,-40
-2,10,13,-4,-7,11,23,17,-43,-64,-57,-39
-3,9,13,-3,-8,10,23,16,-43,-63,-56,-39
-4,8,13,-2,-8,10,22,16,-44,-63,-56,-39
-5,7,13,-1,-8,9,21,15,-44,-62,-55,-39
-4,8,12,-1,-8,9,21,15,-43,-62,-55,-38
-3,8,12,-2,-7,9,21,15,-42,-61,-54,-38
-2,9,11,-3,-6,9,21,15,-41,-60,-53,-37
-1,8,10,-3,-5,8,21,15,-41,-59,-52,-36
0,8,9,-3,-4,8,21,15,-40,-58,-51,-36
0,8,8,-4,-3,7,21,15,-39,-57,-50,-35
1,7,7,-4,-2,6,21,15,-38,-56,-49,-34
0,5,5,-2,-2,4,21,15,-38,-55,-48,-33
-2,2,4,0,-2,2,20,15,-37,-55,-48,-33
-2,0,3,1,-2,1,19,15,-37,-54,-47,-33
-2,0,2,1,-2,0,19,14,-36,-53,-46,-33
-3,-2,1,2,-1,-1,19,14,-36,-52,-46,-32
-3,-3,0,2,-1,-2,19,13,-36,-51,-45,-32
-2,-2,0,1,0,-2,19,13,-35,-50,-44,-31
0,-1,-1,0,1,-2,19,14,-33,-48,-42,-30
2,0,-2,-1,2,-2,19,14,-32,-47,-41,-30
3,0,-3,-1,3,-3,19,14,-31,-45,-40,-29
4,-1,-4,-1,4,-3,19,14,-30,-44,-39,-29
4,-1,-4,-1,4,-4,19,14,-29,-43,-38,-28
4,-2,-5,0,5,-4,19,14,-28,-42,-38,-28
3,-3,-5,0,5,-5,19,14,-27,-41,-38,-28
2,-5,-6,1,5,-6,18,14,-27,-41,-38,-28
2,-6,-7,2,5,-7,18,13,-27,-40,-37,-28
2,-7,-8,2,5,-7,18,13,-26,-39,-36,-28
2,-7,-8,2,5,-8,18,13,-25,-37,-35,-28
1,-8,-9,3,5,-9,17,13,-24,-36,-35,-27
1,-9,-9,4,5,-9,17,13,-24,-35,-34,-27
2,-9,-9,3,6,-9,17,13,-23,-34,-33,-26
2,-9,-9,3,6,-9,17,13,-22,-33,-33,-26
2,-8,-9,3,6,-9,16,13,-21,-32,-32,-26
2,-8,-9,3,6,-9,16,14,-20,-31,-31,-25
2,-8,-10,3,7,-9,16,14,-19,-30,-30,-25
2,-8,-11,3,7,-10,16,14,-18,-29,-30,-25
2,-9,-11,3,7,-10,16,14,-18,-29,-29,-24
1,-10,-11,4,7,-11,16,14,-18,-28,-29,-24
1,-10,-11,4,7,-11,16,14,-18,-28,-29,-24
2,-10,-11,4,7,-11,16,14,-17,-27,-28,-24
2,-10,-11,4,8,-11,16,14,-17,-26,-28,-24
2,-10,-11,4,7,-11,16,14,-16,-25,-28,-24
1,-11,-12,5,7,-12,15,13,-16,-25,-28,-24
0,-13,-12,7,6,-13,14,13,-17,-25,-28,-25
0,-13,-12,8,6,-13,14,13,-16,-25,-28,-25
1,-11,-12,6,7,-12,14,14,-15,-24,-27,-24
3,-9,-12,4,8,-11,14,14,-14,-23,-26,-23
4,-9,-12,3,8,-10,15,14,-13,-23,-26,-23
4,-9,-12,3,8,-10,15,14,-13,-23,-26,-23
3,-10,-12,4,8,-11,14,14,-14,-23,-27,-23
2,-10,-12,4,7,-11,14,14,-13,-22,-27,-23
3,-9,-12,3,7,-10,14,14,-13,-22,-26,-22
3,-8,-12,3,7,-10,14,15,-12,-21,-25,-22
3,-8,-12,3,8,-10,14,15,-12,-21,-25,-22
3,-9,-12,3,8,-11,14,15,-13,-21,-25,-22
2,-9,-12,4,7,-11,14,15,-13,-21,-25,-22
2,-9,-12,4,7,-10,14,15,-13,-21,-24,-21
2,-10,-12,4,7,-10,14,14,-13,-20,-24,-21
1,-10,-12,5,7,-11,14,14,-13,-20,-24,-22
1,-10,-12,5,7,-11,14,14,-12,-20,-24,-22
2,-9,-12,3,7,-10,14,15,-12,-19,-23,-21
3,-8,-11,2,7,-9,15,15,-11,-19,-23,-21
4,-7,-11,1,7,-9,14,15,-11,-19,-23,-21
5,-6,-11,0,8,-9,14,15,-11,-19,-23,-21
5,-6,-12,0,8,-9,13,15,-11,-19,-23,-21
5,-6,-12,0,8,-9,13,15,-11,-19,-23,-21
5,-6,-12,0,8,-9,13,15,-11,-19,-23,-21
5,-6,-12,1,8,-9,14,15,-11,-19,-23,-21
4,-7,-11,1,8,-9,14,15,-11,-19,-23,-21
3,-7,-11,2,7,-9,14,15,-11,-19,-23,-21
2,-8,-11,3,7,-9,13,14,-11,-19,-23,-22
2,-8,-11,2,7,-9,13,14,-11,-19,-23,-22
2,-8,-11,3,7,-9,13,14,-11,-19,-23,-22
1,-8,-10,3,6,-8,14,14,-12,-19,-23,-22
2,-8,-10,3,6,-8,14,13,-12,-20,-23,-22
2,-8,-10,3,6,-8,14,13,-13,-20,-23,-22
1,-8,-10,3,6,-8,14,13,-13,-20,-23,-23
1,-8,-10,3,6,-8,14,12,-13,-20,-23,-23
3,-6,-10,2,6,-7,14,12,-13,-20,-23,-22
5,-4,-9,0,7,-6,14,12,-12,-19,-22,-22
5,-4,-9,0,6,-6,14,12,-13,-20,-23,-22
4,-4,-9,0,6,-6,14,11,-13,-20,-23,-22
5,-4,-9,0,6,-6,14,11,-13,-20,-23,-22
5,-4,-9,0,6,-6,14,10,-13,-20,-23,-22
4,-4,-8,0,6,-6,14,10,-14,-21,-24,-22
3,-5,-8,1,5,-6,14,9,-15,-22,-24,-23
2,-5,-8,2,5,-6,14,9,-15,-22,-24,-23
2,-6,-8,2,5,-6,14,8,-16,-23,-25,-24
1,-7,-8,3,5,-7,14,7,-17,-23,-25,-24
0,-7,-7,3,4,-7,14,7,-17,-24,-26,-25
1,-6,-7,2,4,-6,14,6,-17,-24,-26,-25
2,-4,-7,1,5,-5,15,6,-17,-23,-26,-24
3,-3,-7,0,5,-5,15,6,-17,-23,-25,-24
2,-4,-7,0,4,-5,15,5,-17,-24,-26,-24
0,-5,-6,1,4,-5,15,5,-18,-24,-26,-25
0,-5,-6,2,3,-5,15,4,-19,-25,-27,-25
0,-5,-6,1,3,-5,15,4,-19,-25,-27,-25
0,-4,-5,1,3,-5,15,4,-19,-25,-27,-25
0,-4,-5,2,3,-5,14,3,-19,-25,-27,-25
0,-5,-5,2,2,-5,14,3,-19,-26,-27,-25
1,-4,-5,1,3,-4,14,3,-19,-26,-28,-25
2,-3,-5,0,3,-4,14,3,-19,-26,-28,-25
2,-2,-4,0,3,-3,15,3,-20,-26,-28,-25
1,-3,-4,0,3,-3,15,2,-20,-26,-28,-25
-1,-4,-3,2,1,-4,15,2,-21,-27,-29,-26
-2,-6,-3,4,0,-4,14,1,-22,-28,-30,-27
-1,-5,-3,3,1,-4,14,1,-22,-28,-30,-27
1,-2,-3,1,1,-3,15,2,-21,-27,-29,-26
2,-1,-3,0,2,-2,16,2,-21,-27,-29,-26
2,0,-3,0,2,-2,16,2,-21,-27,-29,-26
3,0,-3,-1,3,-2,16,2,-21,-27,-28,-26
3,0,-3,-2,3,-1,16,2,-21,-27,-28,-26
4,0,-3,-2,4,-1,16,2,-21,-27,-28,-26
4,0,-3,-2,4,-1,16,2,-21,-27,-28,-26
3,0,-3,-1,3,-1,16,2,-21,-27,-28,-26
2,-1,-2,0,2,-1,16,2,-21,-27,-29,-26
1,-1,-2,0,1,-1,15,2,-22,-27,-29,-26
2,0,-2,0,1,-1,15,2,-22,-27,-29,-26
2,0,-2,-1,2,-1,15,2,-22,-27,-29,-26
2,0,-1,-1,2,-1,15,2,-22,-27,-29,-26
1,0,-1,0,1,-1,14,2,-22,-27,-29,-26
0,-1,-1,0,1,-1,14,2,-22,-27,-29,-26
1,0,-1,0,2,-1,14,2,-21,-27,-29,-26
2,0,-1,-1,2,0,14,2,-21,-26,-28,-26
2,0,-1,-1,2,0,14,2,-21,-26,-28,-26
1,0,-1,0,2,-1,14,1,-21,-26,-29,-26
0,-2,-2,1,1,-2,13,1,-21,-26,-29,-27
-1,-3,-2,2,0,-3,13,1,-21,-26,-29,-27
-2,-4,-2,3,0,-3,12,1,-21,-26,-30,-27
-4,-6,-2,5,-1,-4,12,1,-22,-27,-30,-28
-6,-8,-2,8,-2,-5,11,0,-22,-27,-30,-28
-8,-10,-2,10,-2,-6,10,0,-22,-28,-31,-28
-8,-11,-2,11,-2,-7,10,0,-22,-28,-31,-28
-8,-12,-3,11,-2,-7,9,0,-22,-27,-31,-28
-8,-12,-3,11,-2,-8,9,0,-22,-27,-31,-28
-8,-11,-3,10,-2,-8,9,0,-22,-26,-30,-28
-8,-11,-3,10,-2,-8,10,0,-22,-26,-30,-27
-7,-11,-4,9,-2,-8,10,0,-21,-26,-29,-27
-7,-11,-4,9,-1,-8,10,0,-21,-25,-29,-27
-8,-12,-4,10,-2,-8,10,0,-21,-25,-29,-27
-10,-14,-3,12,-3,-9,9,0,-21,-25,-29,-27
-11,-14,-3,12,-4,-9,9,0,-21,-25,-29,-27
-10,-13,-4,12,-3,-9,9,0,-20,-24,-28,-27
-11,-15,-4,13,-3,-10,8,0,-21,-25,-29,-28
-12,-17,-5,14,-3,-11,7,0,-22,-25,-29,-28
-12,-18,-5,15,-3,-12,6,-1,-22,-25,-30,-28
-13,-19,-5,16,-4,-12,6,-1,-22,-25,-30,-28
-14,-19,-5,17,-4,-12,6,-1,-22,-25,-29,-28
-14,-19,-5,17,-5,-12,6,-1,-21,-25,-29,-28
-14,-19,-5,17,-4,-12,6,-1,-21,-25,-28,-27
-14,-19,-5,17,-4,-12,6,-1,-21,-24,-28,-27
-15,-20,-5,17,-4,-12,6,0,-20,-24,-28,-27
-15,-20,-5,17,-4,-12,5,0,-20,-23,-28,-26
-15,-19,-5,17,-4,-12,5,0,-19,-23,-27,-26
-14,-19,-5,16,-4,-12,5,0,-19,-22,-27,-25
-13,-18,-5,16,-3,-12,5,0,-19,-22,-27,-25
-14,-19,-5,16,-4,-12,5,0,-19,-22,-27,-25
-15,-20,-5,17,-4,-12,5,0,-19,-22,-27,-25
-16,-20,-5,18,-5,-12,5,-1,-19,-22,-27,-25
-15,-20,-6,18,-5,-12,5,-1,-19,-22,-27,-25
-15,-20,-6,17,-4,-12,5,-1,-19,-22,-27,-25
-15,-20,-6,18,-4,-13,5,-1,-19,-22,-27,-25
-15,-21,-5,19,-5,-13,5,-1,-19,-22,-27,-25
-16,-21,-5,19,-5,-14,5,-1,-19,-22,-27,-24
-15,-21,-5,18,-5,-13,5,-1,-18,-21,-27,-24
-15,-20,-5,17,-4,-13,5,-1,-18,-21,-26,-24
-15,-20,-5,17,-4,-13,5,-1,-18,-21,-26,-24
-15,-20,-5,17,-4,-13,5,-1,-18,-20,-26,-24
-15,-20,-5,17,-4,-13,5,-1,-17,-20,-26,-24
-15,-20,-5,17,-4,-13,5,-1,-17,-20,-26,-24
-15,-21,-6,18,-4,-13,5,-2,-18,-20,-26,-25
-15,-21,-6,18,-4,-14,5,-2,-18,-20,-26,-25
-15,-22,-6,18,-4,-15,5,-2,-18,-20,-26,-25
-15,-22,-6,18,-4,-15,5,-1,-17,-20,-25,-24
-14,-20,-6,17,-4,-14,5,-1,-17,-20,-25,-24
-14,-19,-6,17,-3,-13,5,-1,-16,-19,-25,-24
-15,-21,-6,18,-4,-14,5,-1,-16,-19,-25,-24
-16,-22,-6,19,-4,-14,4,-1,-16,-19,-25,-23
-16,-22,-6,19,-4,-14,4,-1,-16,-19,-24,-23
-16,-22,-6,19,-5,-14,4,-1,-16,-18,-24,-23
-16,-23,-6,19,-5,-14,3,-1,-16,-19,-24,-23
-17,-23,-6,20,-6,-15,3,-1,-16,-19,-24,-23
-17,-24,-6,20,-6,-15,3,-1,-17,-19,-24,-23
-17,-24,-7,20,-6,-16,3,-2,-17,-19,-25,-23
-17,-24,-7,20,-6,-16,3,-2,-17,-19,-25,-23
-17,-24,-7,20,-5,-15,3,-2,-17,-19,-24,-23
-16,-23,-7,19,-5,-15,3,-2,-16,-19,-24,-23
-15,-22,-7,18,-4,-15,3,-2,-16,-18,-24,-23
-14,-22,-7,18,-4,-15,3,-2,-15,-18,-24,-23
-15,-22,-7,18,-4,-15,4,-2,-15,-18,-23,-23
-15,-22,-7,18,-4,-15,4,-2,-15,-18,-23,-22
-15,-22,-7,18,-4,-15,4,-1,-15,-17,-23,-22
-15,-22,-7,18,-4,-15,3,-1,-15,-17,-23,-22
-16,-23,-7,19,-4,-15,3,-1,-15,-17,-23,-22
-18,-25,-7,21,-5,-16,2,-1,-15,-17,-23,-23
-19,-26,-7,22,-6,-17,1,-2,-16,-18,-24,-23
-20,-27,-7,23,-6,-17,1,-2,-16,-18,-24,-23
-20,-27,-7,23,-6,-17,1,-2,-16,-18,-24,-23
-19,-27,-7,23,-6,-17,1,-2,-16,-18,-24,-23
-19,-27,-7,23,-6,-17,1,-3,-16,-18,-24,-24
-18,-26,-7,22,-6,-17,2,-2,-15,-17,-23,-23
-16,-23,-7,20,-5,-16,3,-1,-14,-16,-22,-22
-14,-21,-7,18,-4,-15,3,0,-13,-15,-22,-21
-13,-21,-7,17,-3,-14,3,0,-13,-15,-21,-21
-12,-21,-8,16,-2,-14,3,0,-12,-15,-21,-21
-13,-22,-8,17,-2,-15,3,0,-13,-15,-21,-21
-14,-23,-8,19,-3,-16,2,0,-13,-15,-21,-22
-15,-24,-8,20,-3,-16,2,0,-13,-15,-21,-22
-16,-25,-8,20,-4,-16,3,0,-13,-15,-21,-22
-16,-25,-8,20,-4,-16,3,0,-12,-15,-21,-22
-15,-24,-9,20,-3,-16,3,0,-12,-14,-20,-21
-14,-24,-9,19,-3,-16,3,1,-11,-14,-20,-21
-14,-24,-9,19,-3,-16,3,1,-11,-13,-19,-20
-14,-24,-9,19,-3,-16,3,2,-10,-13,-19,-20
-13,-23,-9,18,-2,-16,3,2,-10,-13,-19,-20
-13,-23,-10,18,-2,-16,3,2,-9,-12,-19,-20
-14,-23,-9,19,-2,-16,3,2,-9,-12,-19,-20
-14,-23,-9,19,-2,-16,3,3,-8,-11,-18,-19
-13,-22,-9,18,-2,-16,3,3,-8,-10,-18,-19
-12,-21,-9,17,-1,-16,3,3,-8,-9,-17,-19
-11,-20,-9,16,-1,-15,3,3,-8,-9,-17,-19
-11,-21,-10,16,-1,-16,2,2,-8,-9,-17,-19
-11,-22,-10,17,-1,-16,2,2,-8,-9,-17,-19
-11,-21,-11,16,0,-16,1,2,-8,-9,-17,-19
-10,-21,-11,15,0,-15,1,2,-8,-9,-16,-19
-10,-21,-11,15,0,-15,0,1,-9,-9,-16,-19
-10,-22,-12,16,0,-16,-1,0,-10,-10,-17,-20
-12,-24,-11,18,-1,-17,-3,-1,-11,-11,-18,-21
-14,-25,-10,20,-3,-18,-4,-2,-11,-11,-19,-21
-14,-24,-10,19,-3,-17,-4,-3,-11,-11,-19,-20
-13,-24,-10,19,-2,-17,-4,-3,-11,-11,-19,-20
-12,-23,-10,18,-1,-16,-4,-3,-11,-11,-18,-20
-11,-22,-10,17,0,-16,-3,-3,-11,-11,-18,-20
-11,-22,-10,17,0,-16,-3,-2,-10,-10,-18,-19
-11,-23,-10,17,-1,-16,-2,-2,-10,-10,-17,-19
-12,-23,-10,17,-1,-17,-2,-2,-10,-10,-17,-18
-12,-23,-10,17,-1,-17,-2,-2,-10,-10,-17,-18
-12,-23,-10,17,-1,-17,-2,-2,-10,-10,-17,-18
-11,-22,-10,17,-1,-16,-1,-2,-10,-9,-17,-17
-12,-22,-10,17,-1,-16,-1,-2,-10,-9,-17,-17
-12,-22,-10,17,-1,-16,-2,-3,-11,-10,-17,-18
-13,-23,-10,18,-1,-16,-2,-4,-12,-10,-18,-18
-13,-23,-10,18,-1,-17,-3,-4,-12,-11,-18,-18
-13,-23,-10,18,-1,-17,-3,-4,-12,-11,-18,-18
-11,-21,-10,16,0,-16,-2,-4,-11,-10,-17,-17
-10,-20,-10,15,0,-16,-1,-3,-11,-10,-17,-17
-10,-20,-10,15,0,-16,-1,-3,-11,-10,-17,-17
-11,-21,-9,16,-1,-16,-1,-3,-11,-10,-17,-17
-13,-22,-9,17,-2,-16,-1,-3,-11,-11,-18,-18
-15,-23,-8,19,-3,-16,-2,-4,-12,-12,-19,-18
-16,-24,-8,20,-4,-16,-2,-5,-13,-13,-20,-19
-17,-24,-7,20,-5,-16,-1,-6,-13,-13,-20,-20
-19,-26,-6,22,-6,-16,-1,-6,-14,-14,-21,-21
-20,-27,-6,23,-8,-17,-1,-6,-14,-14,-22,-22
-19,-25,-6,22,-8,-16,-1,-6,-14,-14,-21,-21
-17,-23,-6,20,-7,-15,0,-5,-13,-13,-21,-21
-16,-22,-6,19,-6,-14,0,-4,-13,-13,-20,-20
-16,-21,-6,18,-6,-13,0,-4,-12,-12,-20,-19
-16,-21,-6,18,-6,-13,0,-4,-12,-12,-19,-19
-17,-22,-6,19,-6,-14,0,-4,-12,-12,-19,-19
-18,-23,-6,20,-6,-14,0,-4,-12,-12,-19,-19
-18,-23,-5,20,-6,-14,0,-4,-12,-12,-19,-19
-18,-24,-5,21,-7,-15,0,-5,-12,-12,-19,-19
-19,-24,-5,21,-7,-15,-1,-5,-13,-12,-19,-19
-19,-24,-5,21,-7,-15,-1,-5,-12,-12,-19,-19
-18,-23,-5,21,-7,-15,0,-5,-12,-12,-19,-19
-18,-22,-5,20,-7,-14,0,-5,-11,-12,-19,-18
-17,-22,-5,20,-6,-14,0,-5,-11,-12,-19,-18
-17,-22,-5,19,-6,-14,0,-5,-11,-12,-19,-18
-16,-22,-5,19,-6,-14,0,-5,-11,-12,-19,-18
-16,-22,-5,19,-6,-14,0,-5,-11,-12,-19,-18
-16,-23,-5,20,-6,-14,-1,-5,-12,-12,-19,-18
-17,-23,-5,20,-6,-14,-1,-5,-12,-12,-19,-18
-17,-23,-5,20,-6,-14,0,-4,-11,-12,-19,-18
-17,-22,-5,20,-7,-14,0,-4,-11,-12,-18,-18
-17,-22,-5,20,-7,-14,0,-4,-11,-11,-18,-18
-17,-21,-5,19,-7,-13,0,-4,-10,-11,-18,-17
-16,-20,-5,18,-6,-13,0,-4,-10,-10,-17,-17
-16,-21,-5,19,-6,-14,0,-4,-10,-10,-17,-17
-16,-21,-5,19,-6,-14,0,-4,-10,-10,-17,-17
-16,-22,-5,19,-6,-14,0,-4,-10,-10,-17,-17
-16,-22,-5,19,-6,-14,-1,-4,-10,-10,-17,-17
-16,-22,-5,19,-6,-14,-1,-4,-10,-10,-17,-17
-16,-22,-5,19,-5,-14,-1,-4,-10,-10,-17,-16
-15,-22,-6,18,-5,-14,-1,-4,-10,-10,-18,-16
-16,-22,-6,19,-6,-14,-1,-4,-10,-11,-18,-17
-17,-24,-6,20,-7,-15,-1,-4,-10,-11,-18,-17
-18,-24,-6,21,-7,-16,0,-4,-10,-11,-18,-17
-19,-25,-6,22,-7,-16,0,-4,-11,-11,-18,-17
-19,-25,-6,22,-7,-16,0,-4,-11,-11,-18,-17
-18,-24,-6,21,-7,-15,0,-4,-10,-11,-17,-17
-17,-22,-5,20,-6,-15,0,-4,-10,-10,-17,-17
-16,-21,-5,19,-6,-14,0,-4,-10,-10,-17,-16
-15,-21,-6,18,-5,-14,-1,-5,-10,-10,-17,-16
-15,-21,-6,19,-5,-14,-1,-5,-10,-10,-16,-16
-16,-23,-7,20,-5,-15,-1,-4,-9,-10,-16,-16
-15,-23,-8,19,-4,-16,0,-2,-8,-8,-15,-16
-13,-23,-9,18,-2,-16,1,1,-6,-7,-14,-15
-11,-22,-10,16,-1,-16,3,5,-3,-5,-13,-14
-10,-21,-10,15,0,-16,6,12,0,-3,-12,-14
-9,-20,-10,14,0,-15,10,21,6,0,-10,-12
-9,-17,-8,12,-1,-13,15,32,14,4,-6,-10
-8,-14,-7,10,-1,-10,19,44,23,11,-1,-7
-6,-11,-5,8,-1,-8,21,57,35,21,6,-1
-4,-8,-5,5,0,-7,21,67,47,32,16,6
0,-5,-6,2,3,-6,17,70,56,44,27,15
5,-2,-7,-1,6,-5,11,68,64,55,39,24
9,1,-9,-5,9,-4,3,63,70,66,51,34
14,4,-10,-9,11,-3,-4,55,75,77,63,44
18,7,-10,-12,13,-2,-12,45,80,88,75,54
21,11,-10,-16,15,0,-21,33,85,101,88,66
24,19,-5,-22,14,7,-32,19,90,115,103,79
25,30,4,-28,10,17,-42,4,94,129,118,92
25,39,13,-32,5,27,-51,-10,98,143,132,105
23,44,20,-33,1,32,-60,-27,98,151,141,114
19,42,23,-30,-3,33,-66,-45,92,151,143,117
13,35,23,-24,-6,29,-72,-62,80,143,137,113
7,25,19,-16,-7,22,-79,-77,64,127,124,103
1,14,13,-8,-7,13,-86,-89,46,105,103,87
-4,4,8,0,-7,6,-91,-98,25,77,76,67
-10,-4,5,7,-9,0,-91,-106,2,46,45,44
-15,-12,3,14,-10,-5,-88,-112,-23,13,13,20
-19,-19,0,19,-10,-10,-83,-115,-47,-17,-14,0
-21,-24,-3,23,-9,-14,-77,-116,-67,-42,-34,-14
-22,-27,-4,25,-9,-16,-69,-113,-80,-59,-48,-25
-23,-28,-3,25,-10,-15,-61,-106,-87,-69,-57,-31
-24,-26,-2,25,-11,-14,-53,-96,-86,-72,-60,-34
-24,-24,0,24,-12,-13,-44,-84,-80,-69,-59,-34
-23,-22,1,22,-13,-11,-36,-72,-73,-63,-56,-33
-22,-19,2,20,-13,-9,-28,-61,-65,-58,-53,-31
-21,-17,3,19,-13,-7,-22,-52,-58,-53,-50,-30
-21,-16,4,18,-13,-6,-17,-44,-52,-48,-47,-29
-21,-16,5,18,-13,-6,-13,-38,-46,-44,-44,-27
-20,-15,5,17,-13,-5,-9,-32,-41,-41,-41,-26
-19,-14,5,16,-12,-5,-6,-27,-37,-38,-39,-25
-18,-13,4,15,-11,-5,-4,-22,-33,-35,-37,-24
-18,-14,3,16,-10,-6,-2,-19,-31,-33,-36,-24
-19,-16,2,17,-11,-7,0,-16,-29,-32,-35,-24
-20,-17,2,18,-11,-8,0,-15,-28,-31,-35,-25
-20,-18,1,19,-11,-8,1,-13,-28,-31,-35,-25
-19,-18,1,19,-10,-9,2,-13,-27,-30,-34,-25
-19,-19,1,19,-10,-9,2,-12,-27,-30,-34,-25
-19,-19,0,19,-10,-10,2,-12,-26,-30,-34,-25
-19,-19,0,19,-10,-10,2,-11,-25,-29,-34,-25
-20,-20,0,20,-10,-11,2,-10,-24,-29,-34,-25
-21,-21,0,21,-11,-11,3,-9,-24,-28,-34,-25
-20,-20,0,20,-10,-10,4,-9,-23,-28,-33,-24
-18,-19,0,18,-9,-9,5,-8,-22,-27,-33,-24
-18,-19,0,18,-9,-9,5,-7,-22,-27,-33,-24
-19,-20,0,19,-10,-10,5,-7,-22,-28,-33,-24
-19,-21,0,20,-10,-11,5,-7,-22,-28,-33,-24
-20,-21,0,20,-10,-11,6,-6,-22,-27,-32,-24
-20,-21,0,20,-10,-11,6,-6,-22,-27,-32,-24
-20,-21,0,20,-10,-11,6,-6,-22,-27,-32,-24
-19,-20,0,19,-10,-10,6,-6,-21,-27,-32,-24
-18,-19,0,18,-9,-10,6,-5,-21,-27,-31,-23
-19,-19,0,19,-10,-10,6,-5,-21,-27,-31,-23
-20,-20,0,20,-10,-10,6,-5,-21,-26,-31,-23
-20,-20,0,20,-11,-10,6,-4,-21,-26,-31,-23
-21,-21,0,21,-11,-11,5,-4,-21,-27,-31,-24
-22,-23,-1,22,-11,-12,5,-5,-21,-28,-32,-24
-21,-23,-1,22,-10,-12,5,-4,-21,-28,-32,-24
-19,-20,-1,19,-9,-11,5,-3,-21,-27,-32,-23
-17,-18,-1,17,-8,-10,6,-2,-20,-27,-31,-23
-17,-18,-1,17,-8,-9,6,-2,-20,-27,-31,-22
-17,-18,-1,17,-9,-9,6,-2,-20,-27,-31,-22
-17,-18,-1,17,-9,-9,6,-2,-20,-27,-31,-22
-17,-18,0,17,-9,-9,7,-2,-20,-27,-31,-22
-17,-18,0,17,-9,-9,7,-1,-19,-26,-30,-22
-18,-18,0,18,-10,-9,7,-1,-20,-27,-30,-23
-20,-20,0,20,-10,-10,6,-2,-20,-27,-31,-23
-21,-21,0,21,-11,-11,6,-2,-21,-28,-32,-24
-21,-21,0,21,-11,-11,6,-2,-21,-29,-33,-24
-21,-21,0,21,-11,-11,6,-2,-21,-29,-33,-24
-21,-21,0,21,-11,-11,6,-2,-21,-29,-33,-24
-20,-20,0,20,-10,-10,7,-1,-21,-29,-33,-24
-18,-18,0,18,-9,-9,7,-1,-20,-28,-32,-24
-17,-17,0,17,-9,-9,7,0,-20,-28,-32,-24
-17,-17,0,17,-9,-9,8,0,-20,-28,-32,-24
-17,-17,1,17,-9,-8,8,0,-20,-28,-32,-24
-17,-17,1,17,-9,-8,8,0,-20,-28,-32,-23
-17,-17,0,17,-9,-9,8,0,-20,-28,-33,-23
-18,-18,0,18,-9,-9,8,0,-21,-29,-33,-24
-19,-19,0,19,-10,-9,8,0,-21,-29,-33,-24
-19,-19,1,19,-10,-9,8,0,-21,-29,-33,-24
-19,-19,1,19,-10,-9,8,1,-21,-29,-34,-24
-20,-19,1,19,-10,-9,7,1,-21,-30,-34,-24
-20,-20,1,20,-11,-9,7,1,-22,-30,-35,-25
-21,-20,1,20,-11,-9,7,1,-22,-30,-35,-25
-20,-19,1,19,-11,-8,7,1,-21,-30,-34,-25
-18,-17,1,17,-10,-7,7,2,-21,-29,-34,-25
-17,-15,2,16,-10,-7,8,3,-20,-29,-33,-24
-17,-15,2,16,-10,-6,8,4,-20,-29,-33,-24
-18,-15,2,17,-10,-7,8,4,-20,-30,-34,-24
-19,-17,2,18,-10,-7,8,4,-21,-30,-34,-24
-19,-17,2,18,-11,-7,9,4,-21,-30,-34,-24
-19,-16,3,17,-11,-6,10,5,-21,-30,-34,-24
-18,-16,3,17,-11,-6,10,5,-21,-31,-34,-24
-18,-16,3,17,-11,-6,11,5,-21,-31,-34,-24
-18,-16,3,17,-11,-6,11,5,-21,-32,-35,-24
-18,-16,3,17,-11,-6,11,6,-21,-32,-35,-25
-18,-16,3,17,-11,-6,11,6,-21,-32,-35,-25
-18,-15,3,16,-11,-6,11,7,-21,-32,-35,-25
-18,-14,3,16,-11,-6,12,7,-21,-32,-35,-25
-18,-14,3,16,-11,-5,12,7,-21,-32,-35,-25
-18,-14,3,15,-11,-5,12,7,-21,-32,-35,-25
-18,-13,4,15,-11,-5,12,7,-21,-32,-35,-25
-18,-13,4,15,-11,-4,12,7,-21,-32,-35,-25
-17,-13,4,15,-11,-4,12,7,-21,-32,-35,-25
-16,-12,5,14,-11,-3,13,7,-21,-32,-35,-24
-15,-10,5,13,-11,-2,13,7,-21,-31,-34,-24
-17,-11,5,14,-12,-3,13,8,-21,-32,-35,-25
-20,-14,5,17,-13,-4,12,7,-22,-33,-36,-26
-22,-16,6,19,-14,-5,12,7,-23,-34,-36,-26
-22,-15,7,19,-15,-4,12,7,-22,-34,-36,-26
-19,-11,8,15,-14,-1,13,8,-21,-33,-34,-25
-15,-7,9,11,-12,0,14,9,-20,-32,-33,-24
-14,-6,9,10,-12,1,14,9,-20,-32,-33,-24
-14,-5,9,9,-12,2,13,10,-20,-32,-33,-24
-15,-4,10,9,-12,2,13,10,-20,-32,-33,-24
-15,-4,11,10,-13,3,14,10,-20,-32,-33,-24
-15,-3,11,9,-13,3,14,11,-20,-32,-33,-24
-14,-3,11,9,-13,3,14,11,-21,-32,-33,-24
-15,-4,12,10,-14,3,14,11,-21,-33,-34,-24
-16,-4,12,10,-14,3,13,10,-21,-34,-35,-24
-17,-4,13,10,-15,4,13,10,-22,-35,-35,-24
-17,-4,13,11,-15,4,13,10,-22,-35,-36,-25
-18,-4,13,11,-16,4,13,10,-23,-36,-36,-25
-18,-4,14,10,-16,5,13,10,-23,-36,-36,-25
-17,-3,14,10,-16,6,13,10,-23,-36,-36,-25
-17,-2,15,9,-17,6,13,10,-23,-36,-36,-25
-18,-1,16,9,-17,7,12,10,-24,-37,-36,-25
-18,-1,16,9,-17,7,12,10,-24,-37,-36,-25
-17,0,17,8,-17,9,12,10,-24,-36,-36,-24
-16,2,18,7,-17,10,12,11,-24,-36,-35,-24
-16,3,18,6,-17,11,12,11,-23,-36,-35,-23
-16,4,18,6,-18,12,11,11,-23,-37,-35,-23
-15,4,19,6,-18,12,11,11,-24,-37,-35,-23
-14,6,20,4,-17,13,11,11,-23,-36,-34,-23
-13,7,21,3,-17,14,11,11,-23,-36,-34,-22
-13,8,21,3,-17,14,10,11,-23,-36,-34,-22
-14,7,21,3,-18,14,10,11,-23,-36,-34,-22
-14,7,21,3,-18,15,10,11,-23,-36,-33,-22
-14,8,21,3,-18,15,10,11,-23,-36,-33,-21
-13,8,21,2,-18,15,10,11,-23,-36,-32,-20
-13,9,22,2,-18,16,10,11,-23,-36,-32,-20
-12,10,22,1,-17,16,10,10,-23,-35,-31,-19
-11,11,22,0,-17,16,9,10,-23,-35,-31,-18
-12,10,22,1,-17,16,8,9,-24,-35,-31,-18
-12,10,22,1,-17,16,7,9,-24,-35,-30,-18
-13,10,22,2,-17,16,6,8,-24,-35,-30,-18
-13,10,22,2,-17,16,5,7,-24,-35,-29,-17
-12,10,22,1,-17,16,5,7,-24,-35,-29,-16
-12,11,22,1,-17,16,5,6,-24,-35,-29,-16
-11,11,22,0,-16,16,4,6,-24,-34,-29,-15
-10,12,21,-1,-15,16,4,6,-23,-34,-28,-15
-9,12,21,-1,-15,16,4,6,-23,-33,-27,-14
-8,12,21,-1,-14,16,4,6,-23,-32,-26,-14
-8,12,20,-1,-14,16,3,6,-23,-31,-25,-13
-7,12,19,-1,-13,15,3,6,-22,-31,-24,-13
-6,12,18,-2,-12,15,3,6,-22,-30,-23,-12
-5,11,17,-2,-11,14,3,5,-21,-29,-22,-12
-6,10,16,-1,-11,12,3,5,-21,-29,-22,-11
-7,7,15,0,-11,11,3,5,-20,-28,-21,-11
-8,6,14,1,-11,9,3,5,-20,-28,-21,-11
-9,4,13,2,-10,8,2,5,-20,-28,-20,-11
-9,3,12,3,-10,7,2,4,-19,-28,-20,-11
-8,3,11,3,-9,6,1,4,-18,-27,-19,-11
-7,3,10,3,-8,6,1,5,-17,-26,-18,-10
-7,2,9,2,-7,5,1,5,-16,-25,-18,-10
-7,0,8,3,-7,4,1,5,-16,-25,-17,-10
-7,-1,6,4,-7,2,0,5,-15,-24,-17,-10
-7,-2,5,5,-6,1,0,5,-14,-24,-16,-10
-7,-2,4,5,-6,0,1,5,-13,-23,-15,-9
-5,-2,3,4,-5,0,1,5,-12,-22,-14,-8
-5,-2,3,3,-4,0,2,5,-12,-21,-13,-8
-5,-3,2,4,-4,0,2,5,-11,-20,-13,-8
-5,-4,2,4,-4,0,2,5,-11,-19,-12,-8
-6,-5,1,6,-4,-1,1,4,-10,-19,-12,-8
-7,-7,1,7,-4,-3,1,4,-10,-18,-12,-8
-7,-7,0,7,-4,-3,1,4,-8,-16,-11,-7
-4,-6,0,5,-2,-3,2,5,-7,-14,-9,-6
-3,-5,-1,4,-1,-3,2,5,-6,-13,-8,-6
-4,-6,-1,4,-1,-4,1,5,-5,-12,-8,-6
-5,-7,-1,5,-1,-4,1,5,-5,-12,-7,-6
-6,-8,-2,7,-2,-5,1,5,-4,-11,-7,-6
-7,-10,-2,8,-2,-6,1,5,-4,-11,-7,-6
-7,-10,-3,9,-2,-6,1,5,-3,-10,-7,-6
-7,-10,-3,8,-1,-7,1,5,-3,-9,-6,-6
-6,-10,-3,8,-1,-7,0,5,-2,-9,-5,-6
-5,-9,-4,7,-1,-7,0,5,-2,-8,-5,-6
-3,-8,-4,6,0,-7,0,6,-1,-7,-5,-5
-3,-8,-4,5,0,-7,0,6,0,-6,-5,-5
-4,-8,-4,6,0,-7,0,6,0,-6,-4,-4
-4,-8,-5,6,0,-7,0,6,0,-5,-4,-4
-5,-9,-5,7,0,-7,0,6,0,-5,-4,-4
-5,-11,-5,8,0,-8,0,6,0,-5,-4,-4
-6,-12,-5,8,0,-8,-1,6,0,-5,-4,-4
-7,-13,-5,9,-1,-9,-1,5,0,-5,-4,-4
-7,-13,-5,10,-1,-9,0,5,0,-5,-4,-4
-8,-13,-5,10,-1,-9,0,5,0,-5,-4,-4
-8,-13,-5,10,-1,-9,0,5,1,-4,-4,-4
-8,-13,-5,10,-1,-9,0,5,1,-4,-3,-4
-7,-12,-5,9,-1,-9,0,5,1,-3,-3,-4
-4,-11,-6,7,0,-9,0,6,2,-3,-2,-4
-3,-9,-6,6,1,-8,0,6,3,-2,-2,-4
-3,-9,-5,6,0,-7,0,7,3,-2,-1,-3
-4,-10,-5,7,0,-8,0,7,3,-2,-1,-3
-5,-10,-6,8,0,-8,0,7,3,-2,-1,-3
-5,-11,-6,8,0,-8,0,7,3,-2,-1,-4
-5,-11,-6,8,0,-8,0,8,3,-2,-1,-4
-5,-11,-6,7,0,-8,0,8,4,-2,-1,-3
-4,-10,-5,6,0,-8,0,9,4,-1,0,-3
-4,-9,-6,6,1,-8,-1,9,5,-1,0,-3
-3,-9,-6,6,1,-8,-1,8,5,-1,0,-3
-3,-9,-6,6,1,-8,-1,8,5,-1,0,-3
-3,-9,-6,6,1,-8,-1,8,5,-1,0,-2
-3,-8,-5,5,1,-7,0,8,5,0,0,-2
-3,-8,-5,5,1,-7,0,8,5,0,0,-3
-3,-9,-5,6,0,-7,0,8,5,-1,0,-3
-5,-10,-5,7,0,-8,0,8,4,-1,-1,-3
-6,-11,-5,9,-1,-8,0,8,4,-1,-1,-3
-7,-12,-5,10,-2,-8,0,8,4,-1,-1,-3
-7,-12,-5,10,-1,-8,-1,8,4,-2,-1,-3
-6,-12,-6,9,0,-8,-1,8,4,-2,-1,-3
-5,-11,-6,8,0,-8,0,8,4,-2,-1,-3
-4,-9,-5,6,0,-7,0,8,5,-2,-1,-3
-3,-8,-5,6,0,-6,0,8,5,-2,-1,-3
-4,-9,-5,7,0,-7,0,7,5,-2,-1,-3
-5,-10,-5,8,0,-7,0,7,4,-3,-2,-3
-5,-11,-5,8,0,-8,0,7,4,-3,-2,-3
-5,-10,-5,8,0,-8,0,6,3,-3,-2,-3
-5,-10,-5,8,0,-8,0,6,3,-4,-2,-3
-6,-11,-5,8,0,-8,0,5,2,-4,-2,-3
-7,-12,-5,9,-1,-8,0,4,2,-5,-3,-4
-6,-10,-5,8,-1,-8,0,4,2,-5,-3,-4
-5,-9,-4,7,-1,-7,0,4,2,-5,-3,-4
-5,-8,-4,6,-1,-6,0,5,2,-5,-3,-4
-5,-8,-4,7,-1,-6,0,5,1,-5,-3,-4
-6,-9,-4,8,-2,-6,0,4,1,-6,-4,-4
-7,-10,-3,8,-2,-6,0,4,0,-6,-4,-4
-7,-10,-2,8,-3,-6,0,4,0,-6,-4,-4
-7,-10,-2,9,-3,-6,0,4,0,-7,-4,-5
-8,-10,-2,9,-3,-6,0,3,-1,-8,-5,-6
-8,-9,-2,9,-3,-6,0,2,-2,-8,-6,-6
-7,-8,-2,8,-3,-5,0,2,-2,-9,-6,-6
-7,-8,-2,7,-3,-5,0,2,-2,-9,-6,-5
-6,-7,-2,7,-3,-4,0,1,-2,-9,-6,-5
-6,-8,-2,7,-3,-4,0,1,-3,-9,-6,-5
-8,-9,-1,9,-3,-5,0,0,-4,-10,-7,-5
-10,-11,-1,11,-4,-6,0,0,-5,-11,-8,-6
-11,-12,-1,12,-5,-7,0,0,-5,-11,-9,-7
-11,-12,-1,12,-5,-7,0,-1,-6,-12,-9,-7
-10,-11,-1,11,-5,-6,0,-1,-6,-12,-10,-7
-9,-9,0,9,-4,-5,0,-1,-6,-12,-10,-7
-8,-7,0,7,-4,-4,0,-1,-6,-12,-10,-6
-7,-6,0,6,-4,-3,0,-1,-6,-12,-10,-6
-6,-5,0,5,-3,-2,0,-1,-5,-12,-10,-6
-6,-5,0,5,-3,-2,1,-1,-5,-12,-10,-5
-6,-5,0,5,-3,-2,1,-1,-5,-12,-10,-5
-6,-5,0,6,-4,-2,1,-2,-6,-12,-10,-6
-8,-6,0,7,-5,-2,1,-2,-6,-13,-11,-6
-9,-7,0,8,-5,-3,1,-3,-7,-13,-11,-7
-10,-8,0,9,-6,-3,1,-3,-7,-14,-11,-7
-9,-7,0,8,-5,-3,1,-3,-7,-14,-11,-7
-8,-6,1,8,-5,-3,0,-3,-7,-14,-11,-7
-7,-5,1,7,-5,-2,0,-3,-7,-14,-11,-7
-7,-5,1,6,-5,-2,0,-2,-6,-14,-11,-7
-7,-5,1,6,-5,-2,0,-3,-6,-14,-11,-7
-8,-6,1,7,-5,-2,0,-4,-7,-14,-11,-7
-8,-6,1,7,-5,-1,0,-4,-7,-14,-12,-7
-9,-6,2,7,-5,-1,0,-5,-7,-14,-12,-7
-9,-6,2,7,-6,-1,0,-5,-7,-14,-12,-7
-9,-5,2,7,-6,-1,0,-5,-7,-14,-12,-7
-8,-5,2,6,-5,-1,0,-5,-7,-14,-12,-7
-8,-5,2,6,-5,-1,0,-5,-7,-14,-12,-7
-7,-5,2,5,-5,-1,0,-5,-7,-14,-12,-7
-7,-5,2,5,-5,-1,0,-5,-6,-14,-11,-7
-7,-5,2,6,-5,-1,0,-5,-6,-14,-11,-7
-8,-5,2,6,-5,-1,0,-5,-6,-14,-11,-7
-9,-5,2,7,-5,-1,0,-5,-6,-13,-11,-7
-9,-5,2,7,-5,-1,0,-5,-6,-13,-11,-7
-8,-6,2,7,-5,-1,0,-4,-6,-13,-11,-7
-9,-6,2,7,-5,-2,0,-4,-6,-13,-11,-7
-9,-7,2,8,-6,-2,0,-4,-5,-13,-10,-7
-9,-7,1,7,-5,-2,0,-4,-5,-13,-10,-7
-8,-6,1,7,-5,-2,0,-4,-5,-13,-10,-7
-8,-6,1,7,-4,-2,-1,-4,-5,-12,-10,-6
-8,-7,0,7,-4,-2,-1,-5,-5,-12,-10,-6
-8,-8,0,8,-4,-3,-1,-5,-6,-12,-10,-6
-8,-8,0,8,-4,-3,-1,-6,-6,-12,-10,-6
-9,-9,0,8,-5,-4,-1,-6,-5,-12,-10,-6
-9,-9,0,8,-5,-4,-1,-6,-5,-11,-10,-6
-8,-8,0,7,-4,-3,-1,-5,-4,-11,-9,-5
-7,-7,0,6,-4,-3,-1,-5,-3,-10,-8,-5
-6,-6,0,6,-3,-2,-1,-4,-2,-9,-7,-4
-6,-6,0,6,-3,-2,-1,-4,-2,-9,-7,-3
-7,-7,0,7,-3,-2,-1,-4,-2,-8,-7,-3
-7,-7,0,7,-3,-2,-1,-4,-2,-8,-7,-3
-7,-7,-1,7,-3,-2,-1,-4,-2,-8,-7,-3
-6,-7,-1,7,-3,-3,-2,-4,-2,-8,-7,-3
-6,-7,-1,7,-3,-3,-2,-4,-2,-8,-7,-3
-7,-7,-1,7,-3,-3,-3,-4,-2,-8,-7,-3
-7,-7,-1,7,-3,-3,-3,-4,-2,-8,-7,-3
-7,-7,-1,7,-3,-3,-3,-4,-2,-8,-7,-4
-7,-7,-1,7,-3,-3,-3,-4,-2,-8,-7,-4
-6,-7,-1,6,-3,-2,-2,-4,-1,-7,-7,-4
-5,-6,-1,6,-2,-2,-2,-4,-1,-7,-6,-4
-5,-6,-2,5,-2,-3,-2,-4,-1,-6,-6,-4
-5,-6,-2,5,-2,-3,-2,-4,-1,-6,-6,-4
-5,-7,-2,5,-2,-3,-2,-4,0,-6,-5,-4
-6,-7,-2,6,-2,-4,-2,-3,0,-6,-5,-4
-6,-8,-3,7,-2,-4,-3,-3,0,-6,-5,-4
-7,-9,-3,8,-2,-5,-3,-3,0,-7,-5,-4
-7,-9,-3,8,-2,-5,-3,-3,0,-6,-5,-4
-7,-8,-2,8,-3,-4,-3,-3,0,-5,-5,-3
-6,-8,-1,7,-3,-3,-3,-3,0,-5,-5,-2
-5,-7,-1,6,-2,-3,-3,-3,0,-5,-5,-2
-4,-5,-2,5,-1,-3,-3,-3,0,-5,-4,-2
-3,-5,-2,5,-1,-3,-3,-3,1,-5,-4,-2
-4,-6,-2,5,-1,-3,-3,-4,1,-5,-4,-2
-5,-7,-2,6,-2,-4,-3,-4,1,-4,-4,-2
-6,-8,-2,7,-2,-4,-3,-4,1,-4,-4,-2
-6,-9,-2,7,-2,-4,-3,-4,1,-4,-4,-2
-6,-9,-2,7,-2,-4,-3,-4,1,-3,-4,-2
-5,-8,-2,7,-1,-4,-3,-4,1,-2,-4,-1
-5,-7,-3,6,-1,-4,-3,-4,1,-2,-4,-1
-5,-8,-3,6,-1,-4,-3,-4,1,-2,-4,-2
-5,-7,-3,6,-1,-4,-2,-3,2,-2,-4,-2
-3,-6,-3,4,0,-3,-2,-3,2,-1,-3,-1
-2,-5,-3,3,1,-3,-2,-3,3,-1,-3,-1
-3,-6,-4,4,1,-4,-3,-3,2,-1,-3,-2
-4,-7,-4,6,0,-4,-3,-4,2,-1,-3,-2
-5,-8,-4,6,0,-4,-3,-4,2,-1,-3,-2
-5,-8,-4,7,0,-5,-4,-4,2,-1,-3,-2
-5,-8,-4,7,-1,-5,-4,-4,2,-2,-3,-2
-6,-9,-4,8,-1,-5,-4,-4,2,-2,-3,-1
-5,-8,-3,7,-1,-5,-4,-4,2,-1,-3,-1
-4,-8,-3,6,-1,-5,-3,-4,3,-1,-2,0
-4,-7,-3,6,0,-5,-3,-4,3,0,-1,0
-3,-7,-3,6,0,-5,-2,-4,3,0,-1,1
-4,-8,-3,6,0,-5,-2,-5,2,0,-1,1
-5,-9,-3,7,0,-5,-2,-5,2,0,-1,1
-6,-10,-3,8,-1,-5,-2,-5,2,0,-1,1
-6,-9,-3,8,-1,-5,-2,-5,2,0,-1,1
-5,-9,-3,7,-1,-5,-2,-5,2,0,-1,1
-5,-8,-3,7,0,-5,-2,-5,2,0,-1,1
-4,-8,-3,6,0,-5,-3,-5,2,0,-1,1
-4,-8,-3,6,0,-5,-3,-5,2,0,-1,0
-4,-8,-3,6,0,-5,-3,-5,2,0,-1,0
-4,-7,-3,6,0,-5,-2,-5,2,0,-1,0
-4,-7,-4,6,0,-5,-2,-5,2,0,-1,0
-5,-9,-4,7,0,-5,-3,-5,1,0,-2,0
-5,-10,-4,7,0,-6,-3,-6,1,0,-2,-1
-5,-9,-4,7,0,-6,-3,-5,2,0,-2,-1
-4,-9,-4,7,0,-6,-3,-5,3,1,-1,0
-3,-8,-4,6,0,-6,-3,-5,3,1,-1,0
-3,-8,-5,5,1,-6,-3,-4,4,2,0,0
-3,-8,-5,5,1,-6,-2,-4,4,2,0,1
-3,-9,-6,6,1,-6,-2,-4,4,2,0,1
-3,-9,-6,6,1,-7,-2,-4,4,2,0,1
-2,-9,-7,5,2,-7,-2,-3,5,2,0,1
-2,-8,-7,5,3,-7,-2,-3,5,3,0,2
-2,-8,-7,5,3,-7,-2,-2,6,3,0,2
-1,-7,-7,5,3,-7,-2,-2,6,4,1,2
0,-6,-7,4,3,-6,-2,-2,6,4,1,2
0,-5,-7,3,4,-6,-2,-1,7,5,2,3
1,-5,-7,2,4,-5,-2,-1,7,5,2,4
1,-5,-7,2,4,-5,-2,-1,8,6,3,4
1,-5,-7,2,4,-5,-2,-1,8,6,3,5
2,-4,-7,1,5,-5,-2,-1,8,6,4,5
2,-5,-7,1,5,-5,-3,-1,8,6,3,5
1,-7,-7,3,5,-7,-4,-2,7,5,2,4
0,-9,-8,5,4,-8,-5,-3,6,4,1,3
-2,-10,-8,6,3,-9,-6,-4,5,3,1,3
-2,-10,-8,6,3,-9,-7,-4,5,3,1,3
-1,-9,-8,5,3,-8,-7,-5,4,3,1,4
-1,-9,-8,5,3,-8,-7,-5,4,3,1,4
-2,-9,-7,5,2,-8,-7,-6,3,2,0,4
-1,-8,-7,5,2,-7,-7,-6,3,3,0,4
1,-6,-7,3,4,-7,-7,-6,4,3,1,5
3,-5,-8,1,5,-6,-6,-6,4,4,1,5
3,-4,-8,0,6,-6,-6,-6,4,4,2,6
3,-5,-8,1,6,-6,-6,-6,4,4,2,6
2,-6,-8,2,5,-6,-6,-6,4,4,2,6
1,-6,-8,3,5,-6,-6,-6,4,4,2,6
1,-6,-8,2,5,-6,-6,-6,4,4,2,6
1,-6,-8,2,5,-6,-5,-6,4,4,2,5
0,-7,-8,4,4,-7,-6,-6,4,4,2,5
-2,-10,-8,6,2,-8,-7,-7,3,3,1,4
-4,-11,-8,8,2,-9,-8,-8,2,2,0,3
-3,-11,-8,7,2,-9,-7,-9,2,1,0,3
-1,-9,-8,5,3,-8,-6,-8,2,2,0,4
1,-6,-8,3,4,-7,-5,-7,3,3,1,5
1,-6,-8,2,5,-6,-5,-7,3,3,1,5
1,-6,-8,3,4,-7,-5,-8,2,3,0,4
0,-7,-8,3,4,-7,-5,-8,2,3,0,3
0,-7,-7,3,4,-6,-5,-8,2,3,0,3
0,-6,-7,3,3,-6,-5,-7,2,3,0,3
0,-6,-6,3,3,-5,-5,-8,2,2,0,3
-1,-6,-6,3,2,-5,-5,-8,1,1,0,2
-2,-7,-5,4,1,-5,-4,-9,0,1,-1,1
-3,-7,-4,5,0,-5,-4,-9,0,1,-1,1
-4,-7,-4,5,0,-5,-3,-9,0,1,-2,1
-4,-7,-4,5,0,-5,-3,-9,0,1,-2,1
-4,-7,-4,6,0,-5,-3,-9,0,1,-2,1
-5,-8,-3,7,-1,-5,-3,-9,0,1,-2,1
-6,-9,-3,8,-1,-5,-4,-9,0,1,-2,1
-7,-10,-3,8,-2,-5,-4,-9,0,1,-2,1
-6,-9,-3,8,-2,-5,-3,-9,0,1,-2,1
-6,-10,-3,8,-1,-6,-3,-9,0,0,-3,1
-5,-10,-3,8,-1,-6,-3,-10,0,0,-3,1
-4,-8,-3,6,0,-6,-2,-9,0,1,-2,1
-3,-7,-4,5,0,-5,-2,-9,0,1,-2,2
-3,-7,-4,5,0,-5,-2,-9,0,1,-2,2
-3,-7,-4,5,0,-5,-2,-9,0,1,-2,2
-3,-7,-4,5,0,-5,-1,-8,0,1,-1,2
-3,-7,-4,5,0,-5,-1,-8,0,1,-1,1
-3,-8,-4,6,0,-5,-1,-8,0,1,-1,1
-4,-8,-4,6,0,-6,-1,-9,0,1,-1,1
-4,-9,-4,6,0,-6,-1,-9,0,1,-1,1
-6,-9,-4,7,-1,-6,-1,-9,0,1,-1,1
-7,-10,-3,8,-1,-6,-1,-9,1,1,-1,1
-6,-10,-4,8,-1,-6,-2,-8,1,1,-1,1
-7,-10,-4,9,-1,-7,-2,-8,1,1,-1,1
-7,-12,-4,10,-1,-7,-2,-8,1,1,-1,1
-7,-12,-5,9,-1,-7,-2,-8,1,1,-1,1
-5,-9,-5,7,0,-6,-1,-8,1,1,-1,1
-3,-7,-4,6,0,-5,-1,-7,2,1,-1,1
-3,-7,-4,5,0,-5,0,-7,1,1,-1,1
-3,-7,-5,6,0,-6,0,-8,0,0,-2,0
-4,-8,-5,6,0,-6,0,-8,0,0,-2,0
-5,-9,-5,7,0,-6,0,-8,0,0,-2,0
-4,-8,-4,6,0,-5,0,-8,1,1,-1,1
-3,-7,-4,5,0,-5,0,-7,2,2,0,2
-4,-7,-4,5,0,-5,0,-7,2,2,0,2
-5,-8,-4,7,0,-5,-1,-7,2,2,0,2
-5,-9,-4,7,-1,-6,-1,-7,2,2,0,2
-5,-9,-4,7,-1,-6,0,-7,2,2,0,2
-5,-9,-4,7,-1,-6,0,-7,2,2,0,2
-4,-9,-4,7,-1,-6,0,-7,3,2,0,2
-4,-9,-5,6,0,-6,0,-7,3,2,0,2
-4,-9,-5,6,0,-6,-1,-8,2,2,0,2
-4,-9,-5,6,0,-6,-1,-8,2,2,0,2
-4,-9,-5,6,0,-7,-1,-8,2,2,0,2
-4,-9,-6,6,0,-7,-1,-7,3,2,0,2
-3,-9,-7,6,2,-8,-1,-5,4,2,0,2
-1,-9,-8,5,3,-8,0,-2,5,4,1,3
0,-9,-9,4,4,-9,2,2,8,5,2,3
0,-9,-10,4,5,-9,5,9,12,7,4,4
0,-8,-9,3,5,-8,9,17,18,11,7,5
0,-6,-7,3,4,-6,13,27,25,16,10,6
1,-4,-6,1,3,-5,17,39,33,22,14,9
4,-1,-5,-2,5,-3,20,51,44,30,21,14
9,3,-6,-6,7,-1,21,63,56,42,31,22
13,7,-7,-10,9,0,19,68,67,54,43,31
17,10,-8,-13,12,1,13,68,75,66,55,41
21,13,-9,-17,15,2,6,64,82,78,68,51
26,17,-10,-21,18,4,0,57,88,90,81,61
30,19,-11,-24,21,5,-7,47,93,102,93,72
33,23,-10,-28,22,7,-16,34,98,115,107,83
34,29,-6,-31,20,12,-26,20,102,128,122,96
34,38,3,-36,16,21,-36,4,106,141,136,109
33,46,12,-40,10,30,-45,-12,109,154,149,121
32,52,20,-42,6,37,-54,-28,110,163,159,131
27,52,24,-40,2,39,-60,-45,104,164,161,134
22,47,25,-35,-1,37,-65,-62,93,157,156,132
17,39,22,-28,-2,32,-71,-78,78,142,143,123
11,30,18,-21,-2,25,-78,-92,58,120,122,108
6,20,13,-13,-3,17,-85,-103,36,92,95,87
2,11,8,-6,-3,10,-87,-112,12,60,64,64
-2,3,5,0,-4,4,-86,-118,-12,26,32,40
-6,-4,1,6,-5,-1,-82,-122,-36,-5,3,19
-9,-11,-2,11,-4,-6,-77,-123,-57,-31,-18,2
-11,-16,-4,14,-4,-10,-70,-121,-71,-49,-33,-9
-12,-17,-4,15,-4,-10,-62,-114,-79,-60,-42,-16
-12,-15,-3,14,-5,-9,-53,-104,-78,-63,-45,-19
-12,-13,-1,12,-5,-7,-44,-92,-72,-60,-44,-20
-11,-11,0,12,-5,-5,-35,-79,-65,-55,-42,-19
-11,-10,0,11,-5,-4,-28,-68,-57,-50,-39,-18
-10,-8,1,10,-6,-2,-22,-59,-51,-45,-35,-17
-10,-7,3,9,-6,-1,-17,-51,-44,-40,-32,-15
-9,-5,4,8,-6,0,-13,-44,-38,-36,-28,-13
-8,-4,4,6,-6,1,-9,-37,-32,-31,-25,-11
-7,-3,4,5,-5,1,-6,-32,-27,-28,-23,-10
-7,-3,4,5,-5,1,-3,-28,-24,-25,-21,-10
-8,-4,3,6,-5,0,-1,-25,-22,-23,-19,-9
-9,-6,2,7,-5,-1,0,-23,-20,-22,-19,-10
-9,-7,1,8,-5,-2,1,-21,-19,-21,-18,-10
-8,-7,1,8,-5,-2,2,-20,-18,-21,-18,-10
-8,-7,1,7,-5,-2,3,-18,-17,-20,-17,-10
-8,-7,0,8,-5,-2,4,-17,-16,-20,-17,-10
-8,-8,0,8,-4,-3,4,-17,-16,-19,-17,-10
-7,-8,0,8,-4,-3,5,-16,-15,-19,-16,-10
-7,-8,-1,8,-3,-4,6,-15,-15,-18,-16,-10
-8,-8,-1,8,-3,-4,7,-15,-15,-18,-16,-10
-8,-9,-2,9,-3,-4,7,-14,-15,-18,-16,-10
-8,-9,-2,9,-3,-4,7,-14,-14,-17,-16,-10
-8,-9,-1,9,-4,-4,7,-13,-14,-17,-16,-9
-8,-9,-1,9,-4,-4,7,-13,-13,-16,-15,-9
-8,-9,-1,9,-4,-4,7,-12,-13,-16,-15,-8
-8,-9,-1,9,-4,-4,6,-12,-12,-15,-14,-8
-9,-10,-1,10,-4,-5,6,-12,-13,-15,-14,-8
-10,-11,-2,11,-4,-6,6,-12,-13,-16,-15,-9
-10,-12,-2,11,-4,-6,6,-12,-14,-16,-15,-9
-10,-11,-2,10,-3,-5,7,-12,-14,-16,-16,-9
-10,-11,-2,11,-4,-5,7,-12,-14,-17,-16,-9
-10,-12,-2,12,-4,-5,7,-12,-14,-17,-17,-10
-10,-12,-2,12,-5,-5,7,-11,-13,-17,-16,-10
-11,-12,-1,12,-5,-5,8,-11,-13,-17,-16,-9
-11,-12,-1,12,-5,-6,9,-11,-13,-17,-16,-9
-10,-11,-1,11,-4,-6,9,-11,-13,-17,-15,-9
-8,-9,-1,9,-3,-5,10,-10,-12,-16,-15,-9
-8,-9,-1,9,-3,-5,10,-9,-12,-16,-15,-9
-9,-10,-2,9,-3,-5,10,-8,-12,-17,-15,-9
-8,-10,-2,9,-2,-5,10,-8,-12,-17,-15,-9
-6,-9,-3,7,-1,-5,10,-8,-12,-17,-15,-9
-7,-9,-2,7,-2,-5,10,-8,-12,-17,-15,-9
-8,-9,-2,8,-3,-5,9,-8,-12,-17,-15,-9
-8,-9,-1,9,-3,-5,9,-8,-12,-17,-15,-9
-8,-9,-1,9,-3,-5,9,-8,-12,-17,-16,-9
-8,-10,-2,9,-3,-5,9,-8,-13,-18,-16,-10
-8,-10,-2,10,-3,-6,9,-8,-13,-18,-17,-10
-9,-10,-2,10,-3,-6,10,-8,-13,-18,-17,-10
-9,-10,-2,10,-4,-6,10,-8,-13,-18,-17,-10
-9,-10,-2,10,-4,-5,10,-7,-13,-18,-17,-10
-8,-9,-2,9,-4,-5,10,-7,-13,-18,-17,-11
-10,-11,-2,11,-4,-6,9,-8,-13,-19,-17,-11
-12,-13,-1,13,-5,-6,9,-8,-14,-20,-18,-12
-13,-13,-1,13,-6,-6,10,-8,-14,-20,-18,-12
-12,-12,-1,12,-5,-6,10,-7,-13,-19,-18,-11
-10,-11,-1,10,-4,-5,11,-7,-13,-19,-18,-11
-8,-9,-1,8,-3,-5,11,-6,-13,-19,-18,-10
-6,-7,-1,7,-2,-4,11,-6,-13,-19,-17,-10
-6,-7,-1,7,-2,-4,11,-5,-13,-19,-17,-10
-7,-7,-1,7,-3,-3,11,-5,-13,-19,-17,-10
-7,-7,0,8,-3,-3,11,-5,-13,-18,-17,-10
-7,-7,0,8,-3,-3,11,-4,-13,-18,-17,-10
-7,-7,0,7,-3,-3,11,-4,-13,-18,-18,-10
-7,-7,0,7,-3,-3,11,-4,-13,-19,-18,-10
-8,-8,0,8,-4,-3,11,-4,-13,-20,-19,-10
-9,-9,0,9,-4,-4,10,-4,-14,-21,-19,-10
-8,-8,0,9,-4,-4,10,-3,-14,-21,-19,-10
-7,-7,0,7,-4,-3,11,-2,-13,-21,-19,-10
-7,-6,0,6,-4,-2,11,-1,-13,-21,-19,-10
-7,-6,0,6,-4,-2,11,-1,-13,-21,-19,-10
-8,-6,0,6,-4,-2,11,-1,-14,-22,-20,-11
-8,-6,1,6,-4,-2,11,-1,-14,-22,-20,-11
-7,-6,1,6,-4,-2,11,-1,-14,-22,-20,-11
-7,-6,1,6,-4,-2,11,0,-14,-22,-20,-11
-8,-6,1,7,-4,-2,11,0,-14,-22,-21,-11
-9,-8,1,9,-5,-2,11,0,-14,-23,-21,-11
-10,-8,1,9,-6,-2,11,0,-15,-24,-22,-11
-9,-7,1,8,-5,-1,11,0,-15,-24,-21,-11
-8,-6,2,8,-5,-1,11,0,-15,-24,-21,-11
-9,-7,2,8,-6,-2,11,0,-15,-24,-22,-11
-10,-7,2,9,-6,-2,11,0,-16,-24,-22,-12
-11,-7,3,9,-7,-1,10,0,-16,-24,-22,-12
-11,-7,3,9,-7,0,10,0,-16,-24,-22,-12
-10,-6,3,8,-6,0,10,0,-16,-24,-23,-12
-9,-5,3,8,-6,0,10,1,-16,-24,-23,-12
-10,-5,4,8,-6,0,10,1,-16,-24,-23,-12
-9,-4,5,7,-7,1,11,2,-16,-24,-22,-12
-8,-1,5,5,-6,2,11,3,-15,-24,-22,-11
-6,0,6,3,-6,4,12,4,-15,-23,-22,-11
-6,1,6,2,-6,4,13,4,-15,-23,-22,-10
-7,0,6,3,-6,4,13,4,-15,-23,-22,-10
-7,-1,6,4,-6,3,12,4,-15,-24,-22,-11
-7,-1,7,4,-7,3,12,4,-15,-24,-22,-11
-7,0,7,3,-7,4,12,5,-15,-24,-22,-10
-7,1,8,2,-7,5,12,5,-15,-24,-22,-10
-8,1,8,3,-8,5,11,5,-15,-25,-23,-11
-9,1,9,4,-9,5,11,5,-16,-25,-24,-11
-8,2,9,3,-9,6,10,5,-16,-26,-24,-12
-8,3,10,2,-9,7,10,5,-16,-26,-25,-12
-7,4,11,1,-9,8,10,5,-17,-26,-25,-12
-8,4,11,1,-9,9,10,5,-17,-26,-25,-12
-9,3,12,2,-10,9,10,5,-18,-27,-25,-12
-9,3,12,3,-10,9,10,5,-18,-27,-25,-12
-9,4,13,2,-10,9,11,5,-18,-27,-25,-11
-9,5,13,1,-10,10,11,5,-18,-28,-25,-11
-9,6,14,1,-10,10,10,6,-18,-28,-25,-11
-8,7,14,0,-10,11,10,6,-18,-28,-25,-11
-8,7,15,0,-11,11,9,6,-18,-29,-25,-11
-8,7,15,0,-11,12,9,6,-19,-29,-25,-11
-7,9,16,-1,-11,13,9,6,-19,-29,-24,-11
-5,11,16,-3,-11,15,9,7,-18,-28,-24,-10
-4,12,17,-4,-11,16,9,6,-18,-28,-24,-9
-5,12,17,-3,-12,16,9,6,-19,-29,-24,-9
-7,12,18,-2,-13,16,8,6,-19,-29,-23,-9
-7,13,19,-3,-13,16,8,6,-19,-29,-23,-8
-5,15,19,-5,-12,17,8,6,-19,-28,-22,-7
-4,16,19,-6,-11,18,8,6,-19,-28,-21,-7
-3,16,20,-6,-11,19,7,6,-19,-28,-21,-6
-3,16,19,-6,-11,19,7,6,-19,-28,-21,-6
-3,17,19,-7,-10,19,7,6,-19,-28,-20,-6
-2,18,19,-8,-10,20,7,6,-19,-28,-20,-5
-3,18,20,-7,-11,20,6,6,-19,-28,-20,-5
-4,17,20,-6,-11,19,5,6,-20,-28,-20,-5
-4,16,20,-6,-11,19,5,5,-20,-28,-20,-5
-4,16,19,-6,-11,18,4,4,-21,-28,-20,-5
-4,15,19,-6,-11,18,3,4,-21,-28,-20,-5
-4,16,19,-6,-11,18,3,3,-21,-28,-19,-5
-4,16,19,-6,-11,18,2,3,-21,-28,-19,-4
-4,16,19,-6,-11,18,2,3,-21,-28,-18,-4
-3,16,19,-7,-11,18,2,3,-20,-27,-17,-3
-1,17,18,-8,-9,18,2,3,-20,-27,-16,-3
-1,17,18,-8,-9,18,1,3,-20,-26,-15,-2
-1,17,17,-8,-9,18,1,3,-20,-25,-15,-2
-1,16,17,-7,-8,18,0,3,-19,-25,-14,-2
-1,15,16,-7,-8,17,0,2,-19,-24,-14,-2
0,14,15,-7,-7,16,0,2,-18,-24,-14,-1
1,15,14,-8,-6,15,1,3,-17,-22,-13,0
2,15,13,-8,-5,15,1,3,-16,-21,-11,0
2,14,12,-8,-5,13,1,3,-15,-20,-10,0
2,12,10,-7,-4,11,1,3,-15,-20,-10,0
1,10,9,-5,-4,10,1,2,-15,-19,-10,0
1,9,8,-5,-4,10,2,3,-14,-18,-9,1
2,10,7,-6,-3,9,3,3,-13,-17,-7,2
2,9,7,-5,-2,9,3,3,-12,-16,-6,2
1,7,6,-4,-2,7,3,3,-11,-15,-6,2
1,6,4,-4,-1,6,2,3,-11,-14,-5,2
2,5,3,-4,0,5,2,3,-10,-12,-5,2
3,5,2,-4,1,4,2,3,-8,-11,-4,3
3,4,0,-4,1,3,2,3,-7,-10,-3,3
3,2,0,-2,2,1,2,3,-7,-9,-3,2
2,0,-1,-1,2,0,2,2,-7,-9,-3,2
1,0,-1,0,2,0,2,2,-6,-8,-3,1
1,-1,-1,0,2,0,2,2,-5,-7,-2,1
1,-2,-2,0,2,-1,2,2,-5,-7,-2,1
0,-3,-3,1,1,-2,2,1,-4,-7,-2,0
0,-5,-3,2,1,-3,2,1,-4,-6,-2,0
0,-5,-4,2,2,-3,2,2,-3,-5,-2,1
2,-3,-4,1,3,-3,2,2,-2,-4,0,1
3,-3,-5,0,4,-3,2,2,-1,-2,1,2
3,-3,-5,0,4,-3,2,2,0,-1,2,2
2,-3,-5,1,4,-3,1,2,0,0,2,3
2,-4,-5,1,3,-4,1,2,0,0,3,3
1,-5,-6,2,3,-4,1,2,0,0,3,3
1,-5,-6,2,3,-5,1,2,1,0,3,2
1,-6,-6,3,3,-5,1,1,1,0,3,2
0,-6,-6,3,3,-6,1,1,1,1,3,1
0,-7,-6,4,3,-6,1,1,2,1,3,1
0,-6,-6,3,3,-6,2,1,2,2,3,1
1,-5,-7,2,3,-6,2,1,3,3,4,1
2,-4,-7,1,4,-5,2,2,4,4,5,2
2,-4,-7,1,4,-5,2,2,5,5,6,3
2,-5,-7,2,4,-6,2,2,5,5,6,4
1,-6,-8,3,4,-6,2,2,6,5,6,4
1,-7,-8,3,4,-7,2,2,6,6,7,4
0,-8,-8,4,4,-7,2,2,6,6,7,4
-1,-9,-8,5,4,-8,2,2,6,6,7,4
-2,-10,-8,6,3,-8,1,2,6,6,7,3
-1,-9,-8,5,4,-8,1,2,6,7,7,3
0,-8,-9,3,5,-8,1,2,6,7,7,3
1,-7,-9,3,5,-8,1,2,6,7,7,3
0,-8,-8,3,5,-8,1,2,7,7,7,3
0,-8,-7,3,4,-8,1,2,7,7,7,3
1,-7,-8,3,5,-7,2,2,7,8,7,3
2,-7,-8,2,5,-7,2,3,7,8,7,3
2,-7,-9,2,5,-8,3,3,7,8,7,3
2,-7,-9,3,5,-8,3,4,7,8,7,3
2,-7,-9,3,5,-8,3,4,7,8,7,3
2,-7,-9,2,5,-8,3,4,8,8,8,3
2,-7,-9,2,5,-7,3,5,8,8,8,3
2,-7,-9,3,5,-7,3,5,9,8,8,3
1,-7,-8,3,4,-7,3,5,9,8,7,3
1,-8,-9,4,4,-7,3,5,8,8,7,3
1,-8,-9,4,4,-7,3,5,8,8,7,3
0,-8,-9,4,4,-7,3,5,8,7,7,3
0,-9,-9,5,4,-8,3,4,7,7,7,2
0,-8,-8,4,3,-8,3,4,7,6,6,2
0,-8,-8,4,3,-8,3,4,7,6,6,2
0,-8,-8,4,4,-8,3,4,7,6,6,2
1,-7,-8,4,4,-8,3,3,7,6,6,2
1,-7,-8,4,5,-8,3,3,6,6,6,2
1,-7,-8,4,4,-8,3,2,6,6,6,2
0,-7,-8,4,4,-7,3,2,6,6,6,2
0,-7,-7,4,3,-7,4,2,6,6,6,2
0,-7,-7,4,3,-6,4,2,6,6,6,2
0,-7,-7,4,3,-6,4,1,5,5,5,1
-1,-8,-7,5,3,-7,4,0,5,5,5,1
-1,-9,-7,6,2,-7,4,0,4,4,4,0
-2,-9,-7,6,2,-7,3,-1,4,4,4,0
-1,-9,-7,6,2,-7,3,-1,4,3,3,0
-1,-7,-6,5,2,-6,3,-1,4,3,3,0
-1,-7,-6,5,2,-6,3,-1,3,3,3,0
-2,-7,-5,5,1,-6,3,-1,2,3,3,0
-1,-6,-5,4,2,-6,3,-2,2,2,2,0
0,-5,-5,2,2,-5,4,-2,2,2,2,-1
1,-5,-5,2,2,-5,5,-2,2,2,2,-1
0,-5,-4,2,2,-4,5,-2,2,2,2,-1
0,-5,-4,3,2,-4,5,-2,1,1,2,-1
0,-5,-4,3,2,-4,5,-2,1,1,2,-1
-1,-6,-5,4,2,-5,5,-3,0,0,1,-1
-3,-7,-5,5,1,-6,5,-4,-1,0,0,-2
-3,-7,-4,5,0,-6,5,-4,-1,0,0,-2
-2,-5,-4,4,0,-5,6,-4,-1,0,1,-1
-1,-4,-3,3,0,-4,6,-4,-1,0,1,-1
-1,-4,-3,3,0,-3,5,-4,-1,0,0,-1
-1,-4,-4,3,0,-4,5,-5,-2,-1,0,-1
-1,-4,-4,3,0,-4,5,-5,-2,-1,0,-1
-1,-4,-3,3,1,-3,5,-5,-2,-1,0,-1
-1,-3,-3,2,1,-3,6,-5,-2,-1,0,-2
-1,-3,-3,2,1,-3,6,-5,-3,-2,-1,-2
-1,-3,-3,2,1,-3,6,-6,-4,-3,-1,-3
-2,-4,-3,3,0,-3,6,-6,-4,-3,-1,-3
-2,-4,-2,3,0,-3,6,-6,-5,-4,-1,-3
-2,-4,-2,3,0,-3,6,-6,-5,-4,-2,-3
-3,-4,-2,3,0,-3,6,-6,-5,-4,-2,-3
-3,-4,-2,3,0,-3,6,-6,-5,-4,-2,-3
-3,-5,-2,4,-1,-3,6,-6,-6,-4,-2,-4
-4,-6,-1,5,-1,-3,5,-7,-6,-5,-3,-4
-5,-6,-1,5,-2,-3,6,-7,-6,-5,-3,-4
-4,-5,-1,4,-1,-2,6,-6,-6,-5,-3,-4
-3,-4,-1,3,-1,-2,6,-6,-6,-5,-3,-4
-3,-3,-1,3,-1,-2,6,-6,-6,-5,-3,-4
-3,-3,-1,4,-1,-2,5,-6,-6,-5,-3,-4
-3,-4,-1,4,-1,-2,5,-7,-6,-5,-3,-5
-3,-5,-1,5,-1,-3,5,-7,-6,-6,-3,-5
-4,-5,-1,5,-1,-3,5,-7,-6,-6,-3,-5
-4,-5,-1,5,-2,-3,5,-7,-7,-6,-3,-5
-4,-5,-1,5,-2,-3,6,-7,-7,-6,-4,-5
-4,-5,-1,5,-1,-3,6,-7,-7,-6,-4,-6
-3,-5,-2,4,-1,-3,5,-7,-8,-7,-5,-6
-3,-4,-2,4,-1,-2,6,-7,-7,-6,-5,-6
-3,-4,-2,4,-1,-2,6,-6,-6,-6,-4,-6
-3,-4,-2,4,-1,-2,7,-6,-6,-5,-4,-6
-3,-5,-2,4,-1,-2,6,-6,-5,-5,-4,-6
-3,-5,-2,4,-1,-2,6,-6,-5,-5,-3,-5
-3,-5,-2,4,-1,-2,5,-5,-5,-5,-3,-5
-2,-4,-2,3,0,-2,5,-5,-4,-4,-2,-4
-3,-5,-2,4,-1,-2,4,-5,-4,-4,-2,-4
-4,-6,-2,5,-1,-3,4,-5,-5,-4,-2,-4
-4,-6,-2,5,-1,-3,4,-5,-5,-4,-2,-4
-3,-5,-2,4,-1,-2,5,-5,-4,-4,-1,-4
-1,-4,-2,3,0,-2,5,-4,-3,-3,0,-3
-1,-3,-2,2,0,-2,6,-3,-3,-2,0,-3
-1,-4,-2,3,0,-2,6,-3,-3,-2,-1,-3
-2,-4,-2,3,0,-2,6,-3,-3,-2,-1,-3
-2,-4,-2,3,0,-2,6,-3,-2,-2,-1,-3
-2,-4,-2,3,0,-2,6,-2,-2,-2,0,-2
-2,-5,-3,4,0,-3,6,-3,-2,-2,0,-2
-3,-6,-3,5,0,-4,5,-3,-2,-2,0,-3
-2,-6,-3,5,0,-4,4,-3,-2,-1,0,-3
-1,-5,-3,4,1,-3,4,-2,-1,0,0,-2
0,-3,-3,2,1,-2,5,-1,0,0,1,-1
1,-3,-3,1,1,-2,5,-1,0,0,2,-1
0,-4,-3,2,1,-3,4,-2,0,0,1,-2
-1,-5,-3,3,1,-3,3,-2,0,0,1,-2
-1,-5,-3,3,1,-3,4,-2,0,0,1,-2
-1,-5,-3,3,1,-3,4,-1,0,0,2,-2
-1,-5,-3,3,1,-3,4,-1,0,0,2,-2
-1,-5,-3,4,1,-4,4,-1,0,0,1,-2
-3,-6,-3,5,0,-4,4,-1,0,0,1,-2
-4,-7,-3,5,0,-4,4,-1,0,0,1,-2
-3,-6,-3,5,0,-4,4,-1,1,0,2,-2
-1,-6,-3,4,0,-4,4,-1,1,0,2,-1
0,-6,-4,3,1,-4,4,-1,1,0,2,-1
0,-5,-5,3,2,-4,4,-1,1,1,3,-1
1,-5,-5,2,3,-4,4,-1,2,2,4,0
1,-4,-4,1,3,-3,5,0,2,3,4,0
0,-4,-4,2,3,-4,4,0,2,3,4,0
0,-4,-5,2,3,-4,4,0,2,3,4,0
0,-4,-5,2,2,-4,5,0,2,3,4,0
0,-4,-4,2,2,-4,5,0,2,3,4,0
-2,-5,-4,4,1,-4,4,0,2,3,4,0
-3,-6,-4,5,1,-4,4,0,2,2,4,0
-2,-6,-4,4,1,-4,4,0,2,2,4,0
-1,-5,-4,3,2,-4,4,0,2,3,4,0
0,-5,-4,2,2,-4,4,0,2,3,5,0
0,-5,-4,2,3,-4,4,0,3,3,5,0
0,-5,-4,2,2,-4,4,0,3,3,5,1
0,-6,-5,3,2,-4,4,0,3,3,5,1
-1,-6,-5,4,2,-4,4,0,3,3,5,1
-1,-6,-5,4,2,-4,4,0,3,3,5,1
-1,-6,-5,4,2,-4,4,0,3,4,5,1
-1,-7,-5,4,2,-5,4,0,3,4,5,1
-2,-7,-5,5,2,-5,4,0,3,4,5,0
-1,-6,-5,4,2,-5,4,0,3,4,5,0
0,-6,-5,3,2,-5,5,0,3,4,5,0
0,-6,-5,3,2,-5,5,0,3,4,5,0
0,-6,-5,3,2,-5,5,0,3,4,5,0
0,-6,-5,3,2,-5,5,0,3,4,5,0
0,-6,-5,3,2,-5,4,0,3,4,5,0
0,-5,-5,2,3,-5,4,0,3,4,5,1
2,-4,-6,1,4,-5,4,1,4,5,6,1
2,-4,-6,1,4,-5,4,1,4,5,6,1
2,-4,-5,1,3,-5,4,2,4,5,6,1
2,-4,-5,1,3,-4,4,2,4,5,6,1
1,-4,-5,1,3,-4,4,2,4,5,6,2
0,-5,-5,2,2,-4,4,1,4,5,6,2
0,-6,-5,3,2,-4,4,1,4,5,6,2
0,-6,-5,3,2,-4,4,1,4,5,6,2
0,-6,-5,3,2,-5,4,1,4,5,6,2
-1,-6,-5,4,1,-5,4,1,4,5,6,2
-1,-7,-5,4,1,-6,3,1,3,5,6,1
-1,-8,-6,5,2,-7,3,0,3,5,6,1
-1,-8,-6,5,2,-7,4,0,3,5,6,1
-1,-7,-6,4,2,-6,4,0,3,5,6,1
0,-6,-6,3,2,-5,4,1,3,5,6,2
2,-4,-6,1,3,-4,4,1,4,6,7,2
3,-3,-6,0,4,-4,4,2,4,6,7,2
3,-3,-6,0,4,-4,4,2,4,7,8,2
3,-4,-6,0,4,-4,4,3,5,7,8,3
2,-4,-6,1,4,-5,4,3,5,7,9,3
2,-4,-7,1,4,-5,4,4,6,8,9,4
3,-4,-7,1,5,-5,4,4,6,8,9,4
3,-4,-7,1,5,-5,4,5,6,8,9,4
3,-4,-7,0,5,-5,4,5,6,8,9,4
4,-4,-8,0,6,-5,4,5,6,8,9,4
4,-4,-8,0,6,-5,4,5,7,8,10,4
4,-4,-7,0,6,-5,4,5,7,8,10,4
4,-4,-7,0,5,-5,4,6,8,9,11,5
4,-4,-7,0,5,-5,4,7,8,9,11,5
4,-4,-7,0,6,-5,4,7,8,10,11,5
4,-3,-7,-1,6,-5,4,7,8,10,11,5
5,-3,-7,-1,6,-5,4,7,8,10,11,5
5,-3,-7,-1,6,-5,3,7,8,10,11,5
4,-4,-8,0,6,-6,2,6,8,10,11,5
4,-5,-8,0,6,-6,1,5,7,9,10,5
4,-6,-9,0,6,-7,0,4,7,9,10,5
4,-6,-9,0,7,-7,0,4,6,8,10,5
4,-5,-8,0,7,-6,0,4,6,8,10,5
3,-5,-8,0,6,-6,0,4,6,8,10,5
3,-4,-7,0,6,-5,0,4,6,8,10,5
3,-4,-7,0,5,-5,0,3,6,8,10,5
3,-4,-7,0,5,-5,0,3,5,7,10,5
3,-4,-7,0,5,-6,0,3,5,7,10,5
3,-4,-7,0,5,-6,0,3,5,7,10,6
3,-4,-8,0,6,-6,0,3,5,7,10,6
4,-4,-8,0,6,-6,0,3,5,7,10,5
5,-4,-9,0,7,-6,0,3,5,7,9,5
5,-4,-8,0,7,-6,0,3,5,7,9,5
4,-5,-8,1,6,-6,0,3,5,7,9,5
4,-4,-8,0,6,-6,0,4,5,7,10,5
5,-3,-8,0,6,-6,0,4,5,7,10,5
5,-3,-8,-1,6,-6,0,4,5,7,9,5
6,-2,-8,-2,7,-5,0,4,5,7,9,6
7,-1,-8,-2,7,-5,0,4,6,7,10,6
6,-2,-8,-1,7,-5,0,3,6,7,10,6
5,-4,-8,0,7,-6,0,3,5,7,9,6
3,-6,-9,1,7,-7,0,3,4,6,9,5
1,-8,-8,3,5,-8,0,2,3,5,8,4
-2,-10,-7,6,3,-9,0,2,3,5,8,4
-3,-11,-7,7,2,-9,0,1,3,5,7,3
-3,-9,-6,6,2,-8,0,1,3,5,7,3
-1,-6,-6,3,2,-6,1,2,3,5,6,3
0,-4,-5,1,3,-5,2,2,3,4,6,2
1,-3,-5,1,3,-4,2,2,3,4,6,2
2,-3,-4,0,3,-3,3,2,3,4,6,2
2,-3,-4,0,3,-3,3,3,3,5,6,2
1,-3,-4,1,3,-3,3,3,3,5,6,2
0,-4,-4,2,2,-3,3,3,3,5,6,2
0,-5,-4,3,2,-4,3,2,2,4,6,2
-1,-6,-4,4,1,-5,2,2,2,4,6,1
-2,-6,-4,4,0,-5,2,1,2,4,6,1
-1,-6,-4,4,1,-5,2,1,2,4,6,2
0,-5,-4,2,2,-4,2,2,3,5,6,2
1,-5,-4,2,2,-4,2,2,3,5,6,2
0,-5,-4,3,2,-4,2,2,3,4,6,2
-1,-6,-4,3,1,-4,2,2,3,4,6,2
-1,-6,-4,4,1,-4,2,2,3,4,6,2
-2,-7,-4,4,1,-5,2,2,3,4,6,2
-2,-7,-4,4,1,-5,2,3,3,5,6,2
-1,-6,-4,4,1,-5,2,3,3,5,7,2
-1,-6,-4,4,1,-5,2,3,3,5,7,2
-1,-7,-4,4,1,-6,2,3,3,5,7,2
-1,-7,-4,4,1,-6,2,3,3,5,7,2
0,-6,-5,3,2,-5,2,3,3,5,7,2
1,-5,-5,2,3,-5,2,4,3,5,8,2
0,-5,-5,2,2,-5,2,4,3,5,8,2
0,-5,-5,2,2,-5,2,3,3,5,7,2
0,-5,-5,2,2,-5,2,3,2,5,7,1
0,-5,-5,2,2,-5,2,3,2,5,6,1
0,-5,-5,2,2,-5,2,3,2,5,6,1
1,-4,-5,2,2,-5,3,4,3,5,6,1
0,-5,-4,2,1,-5,2,4,3,5,6,1
-1,-6,-4,3,1,-5,1,4,3,4,6,1
-2,-7,-4,4,0,-5,1,4,2,4,6,1
-2,-7,-4,4,0,-5,1,4,2,4,6,1
-2,-7,-4,4,0,-5,1,4,2,4,6,1
-1,-7,-4,4,0,-5,1,4,3,5,7,1
-1,-7,-4,4,1,-6,1,4,3,5,7,2
0,-7,-4,4,1,-6,1,5,3,5,8,2
0,-7,-5,3,2,-6,2,5,3,6,8,3
0,-7,-5,3,2,-6,3,5,3,6,8,3
-1,-8,-5,4,2,-6,3,5,3,6,8,3
-2,-8,-5,5,1,-6,3,5,3,6,8,3
-1,-7,-5,4,2,-5,4,5,4,6,9,3
1,-5,-5,2,3,-5,4,5,4,6,9,3
2,-5,-6,2,3,-6,4,4,3,6,9,2
1,-5,-6,2,3,-6,3,5,3,6,9,2
1,-6,-7,3,4,-7,3,7,4,7,9,2
1,-7,-9,3,5,-8,3,10,6,8,9,2
1,-8,-10,3,5,-8,5,14,9,9,10,2
2,-7,-10,2,6,-8,8,21,13,12,12,3
4,-5,-10,0,7,-7,12,30,20,16,15,5
6,-2,-8,-2,7,-6,16,40,27,21,19,7
7,0,-6,-3,6,-4,19,51,36,27,24,10
8,3,-5,-5,6,-2,22,64,47,37,31,16
12,7,-4,-9,8,0,23,75,60,49,41,24
17,11,-5,-14,11,2,22,81,71,62,53,34
22,14,-6,-18,14,3,16,80,80,74,66,44
26,17,-7,-22,17,5,9,75,86,86,79,54
29,20,-8,-25,19,6,2,66,91,98,92,64
31,22,-9,-26,20,6,-5,54,95,110,104,74
33,24,-9,-28,20,7,-13,39,98,122,117,85
33,29,-4,-31,18,12,-22,22,100,135,130,98
33,39,6,-35,13,22,-31,4,102,148,144,111
33,49,17,-40,8,33,-39,-13,103,160,156,123
31,55,25,-42,3,40,-47,-31,102,168,164,131
27,56,29,-41,-1,43,-53,-50,94,166,164,133
22,52,30,-37,-4,41,-57,-67,81,157,157,128
17,44,27,-31,-5,36,-61,-82,64,141,143,118
12,34,22,-23,-6,28,-68,-95,45,119,122,102
7,23,16,-15,-6,20,-75,-104,24,92,95,81
2,12,11,-7,-6,12,-78,-110,1,60,64,57
-2,3,6,0,-5,5,-78,-114,-22,26,31,32
-6,-5,2,5,-5,-1,-75,-115,-44,-5,3,11
-8,-12,-3,10,-3,-7,-70,-113,-63,-32,-19,-6
-9,-17,-7,13,-2,-11,-63,-108,-76,-51,-34,-17
-10,-19,-8,14,-1,-13,-56,-100,-83,-62,-43,-25
-11,-19,-8,15,-2,-13,-48,-90,-83,-66,-47,-29
-10,-17,-6,14,-2,-12,-40,-78,-77,-64,-46,-30
-9,-14,-5,12,-2,-10,-32,-65,-69,-58,-42,-28
-8,-10,-2,10,-3,-7,-25,-53,-60,-52,-38,-26
-6,-7,0,7,-3,-4,-19,-43,-52,-45,-33,-23
-5,-4,1,5,-3,-1,-14,-35,-44,-39,-28,-20
-5,-3,2,4,-4,0,-9,-28,-38,-34,-24,-17
-5,-2,3,3,-4,0,-5,-22,-32,-30,-21,-15
-5,-2,3,3,-4,0,-2,-17,-28,-27,-19,-14
-6,-4,2,5,-4,-1,0,-13,-25,-25,-17,-14
-7,-6,2,6,-4,-2,2,-10,-23,-23,-16,-14
-7,-7,1,7,-4,-3,4,-8,-21,-21,-15,-14
-7,-7,1,7,-4,-3,4,-6,-20,-20,-15,-14
-7,-7,1,6,-4,-3,5,-4,-18,-19,-14,-14
-6,-6,0,5,-3,-3,5,-3,-17,-19,-14,-14
-5,-5,1,5,-3,-2,6,-1,-15,-18,-13,-14
-5,-5,1,5,-4,-2,7,0,-14,-17,-12,-13
-6,-5,1,5,-4,-2,7,0,-14,-16,-12,-13
-6,-6,1,7,-4,-3,8,0,-15,-16,-12,-13
-6,-7,0,7,-3,-3,8,1,-15,-16,-12,-13
-6,-7,0,7,-3,-3,9,1,-14,-16,-12,-13
-6,-7,0,7,-3,-3,10,2,-14,-16,-12,-13
-6,-6,0,6,-2,-3,10,3,-14,-15,-12,-13
-5,-6,-1,5,-2,-3,10,4,-13,-15,-12,-12
-4,-6,-1,5,-2,-4,10,4,-12,-15,-11,-12
-4,-7,-1,5,-2,-4,10,4,-11,-15,-11,-12
-4,-7,-1,5,-1,-4,10,5,-11,-14,-11,-12
-4,-7,-1,5,-1,-4,10,5,-11,-14,-11,-11
-3,-7,-1,5,-1,-4,10,6,-11,-14,-11,-11
-3,-6,-1,5,-1,-4,11,6,-11,-14,-11,-11
-4,-6,0,4,-2,-3,11,6,-12,-14,-11,-12
-5,-6,0,5,-2,-3,11,6,-12,-15,-12,-13
-6,-7,0,5,-2,-4,10,6,-12,-16,-12,-13
-6,-8,0,6,-2,-5,10,6,-12,-16,-13,-13
-6,-8,0,6,-3,-5,9,6,-12,-16,-13,-13
-6,-8,0,7,-3,-5,9,6,-13,-16,-13,-13
-6,-8,0,7,-3,-5,9,6,-13,-16,-13,-12
-6,-8,0,7,-3,-5,9,6,-13,-16,-12,-12
-6,-8,0,7,-3,-5,9,7,-13,-16,-12,-11
-5,-7,0,6,-2,-4,9,7,-12,-15,-11,-11
-5,-6,0,5,-2,-4,10,8,-12,-15,-11,-11
-4,-6,0,5,-2,-3,10,8,-12,-15,-11,-11
-4,-6,0,5,-2,-3,11,9,-12,-15,-11,-11
-5,-7,0,5,-2,-4,11,9,-12,-15,-11,-11
-6,-8,0,7,-3,-4,10,8,-13,-16,-11,-12
-8,-9,0,8,-4,-4,10,8,-13,-17,-12,-12
-8,-9,0,8,-4,-4,10,8,-13,-17,-12,-12
-7,-7,0,7,-3,-3,10,9,-13,-17,-12,-12
-6,-6,0,6,-2,-3,10,9,-13,-17,-12,-12
-6,-7,0,6,-3,-3,10,9,-13,-17,-12,-13
-6,-7,0,6,-3,-4,10,8,-13,-17,-12,-13
-6,-8,0,6,-3,-4,11,8,-13,-17,-13,-13
-6,-8,0,6,-2,-4,11,9,-12,-17,-13,-13
-6,-7,0,6,-2,-4,11,9,-12,-17,-13,-13
-6,-7,0,6,-2,-4,11,9,-13,-18,-13,-13
-5,-6,0,6,-1,-3,11,9,-13,-19,-14,-13
-4,-5,0,5,-1,-3,11,9,-14,-19,-14,-13
-4,-5,0,4,-2,-2,11,10,-14,-19,-14,-13
-5,-5,1,5,-2,-2,11,10,-14,-19,-14,-13
-6,-5,1,5,-3,-2,11,11,-14,-19,-14,-13
-7,-6,1,6,-3,-3,10,11,-14,-19,-15,-14
-7,-7,1,7,-4,-3,10,11,-14,-20,-15,-14
-8,-7,1,7,-4,-3,10,11,-14,-20,-16,-14
-7,-7,1,6,-4,-3,10,12,-14,-20,-16,-14
-6,-6,1,5,-4,-2,10,12,-14,-20,-16,-14
-7,-6,1,6,-4,-3,10,12,-15,-21,-16,-15
-8,-7,1,7,-5,-3,10,12,-15,-21,-17,-15
-7,-6,1,6,-5,-3,10,12,-15,-21,-17,-15
-6,-5,1,5,-4,-2,11,13,-14,-21,-16,-14
-5,-5,1,5,-4,-2,11,13,-14,-21,-16,-14
-5,-5,2,5,-4,-1,11,14,-14,-21,-17,-14
-5,-4,2,4,-4,-1,11,14,-14,-22,-17,-14
-4,-4,2,3,-3,0,11,15,-14,-22,-17,-14
-4,-3,2,3,-3,0,11,15,-14,-21,-16,-14
-5,-3,2,4,-4,0,11,16,-14,-21,-16,-14
-5,-3,3,4,-4,0,11,17,-14,-21,-15,-14
-4,-2,3,3,-4,1,11,17,-13,-21,-15,-14
-3,-2,3,3,-4,1,11,17,-14,-21,-16,-14
-4,-2,3,3,-4,0,11,17,-14,-22,-16,-14
-6,-3,4,4,-5,0,11,17,-15,-22,-17,-14
-6,-3,4,5,-5,0,11,16,-15,-23,-17,-15
-7,-3,4,5,-5,0,11,16,-15,-23,-17,-15
-7,-2,5,5,-6,1,11,16,-15,-24,-17,-15
-7,-2,5,5,-6,1,10,16,-15,-24,-17,-15
-7,-1,5,4,-6,2,10,17,-15,-23,-17,-15
-5,0,6,3,-6,3,10,17,-15,-23,-17,-15
-4,1,6,2,-6,3,10,18,-15,-23,-17,-15
-5,2,7,2,-6,4,10,18,-15,-23,-17,-15
-6,1,7,2,-7,4,10,18,-15,-23,-17,-15
-7,0,7,3,-7,4,9,18,-15,-23,-17,-15
-8,0,8,4,-7,4,9,18,-15,-23,-17,-15
-8,-1,8,4,-8,4,9,18,-15,-24,-17,-15
-8,0,9,4,-8,4,9,18,-15,-24,-17,-14
-6,1,9,2,-8,5,9,18,-15,-24,-17,-14
-5,2,9,1,-8,6,9,18,-15,-24,-18,-14
-5,3,9,0,-8,6,9,18,-15,-24,-18,-14
-4,5,9,-1,-7,7,9,19,-15,-24,-18,-13
-3,6,10,-2,-7,9,9,19,-15,-24,-18,-12
-3,7,12,-2,-7,10,9,20,-15,-24,-17,-12
-4,8,13,-3,-8,10,8,20,-15,-24,-18,-13
-4,8,13,-3,-8,11,8,19,-16,-25,-18,-13
-4,8,13,-2,-8,11,7,19,-16,-25,-19,-13
-4,9,14,-2,-9,12,7,18,-17,-26,-19,-13
-4,10,15,-3,-10,12,7,18,-17,-27,-19,-13
-4,11,15,-3,-10,13,7,19,-17,-27,-19,-12
-4,12,16,-3,-10,14,6,19,-17,-27,-19,-12
-4,12,17,-3,-10,14,6,19,-17,-27,-19,-12
-4,13,17,-4,-10,15,6,19,-17,-27,-19,-12
-4,13,17,-4,-10,15,6,19,-17,-27,-19,-12
-4,13,18,-4,-11,15,6,19,-17,-27,-19,-12
-5,13,19,-4,-12,16,6,19,-17,-27,-19,-12
-4,14,20,-5,-12,17,5,19,-17,-27,-19,-11
-4,15,20,-5,-12,17,5,18,-18,-28,-19,-11
-4,15,21,-5,-13,17,4,18,-18,-28,-19,-11
-5,15,21,-5,-13,17,3,18,-18,-28,-19,-11
-5,15,21,-6,-13,18,2,18,-18,-28,-19,-11
-4,16,21,-6,-13,18,1,17,-18,-28,-18,-10
-4,17,22,-7,-13,19,1,17,-18,-28,-18,-9
-3,18,22,-8,-13,20,1,16,-18,-28,-17,-8
-1,20,22,-9,-13,21,1,16,-18,-27,-17,-7
-1,20,23,-9,-13,21,1,15,-19,-27,-16,-7
-1,20,23,-9,-13,21,0,14,-19,-28,-16,-7
-2,20,23,-9,-13,21,0,14,-20,-28,-16,-7
-1,21,23,-10,-11,21,0,14,-20,-27,-15,-6
0,22,23,-11,-10,22,-1,14,-20,-27,-14,-5
0,22,23,-11,-10,22,-1,13,-20,-26,-13,-5
-1,21,23,-10,-11,22,-2,13,-20,-26,-13,-4
-1,21,23,-9,-12,22,-2,12,-20,-26,-13,-4
-1,20,22,-9,-12,22,-3,12,-20,-26,-13,-3
-1,20,22,-9,-12,21,-3,11,-20,-26,-12,-3
-1,20,22,-9,-12,21,-3,11,-19,-25,-11,-2
0,21,21,-11,-10,21,-3,12,-19,-24,-10,-1
2,22,21,-12,-9,21,-3,12,-18,-23,-9,0
2,21,20,-11,-9,20,-4,12,-18,-23,-8,0
2,20,19,-11,-8,19,-4,12,-18,-22,-8,0
2,19,18,-10,-8,19,-4,12,-18,-22,-8,0
3,18,16,-10,-7,18,-4,12,-17,-21,-7,0
3,17,15,-10,-7,17,-4,11,-17,-21,-7,1
3,16,14,-9,-6,16,-4,11,-16,-20,-6,1
2,15,13,-9,-6,14,-4,11,-16,-19,-5,1
2,13,12,-8,-5,13,-4,11,-15,-18,-5,1
1,11,11,-7,-5,11,-4,11,-15,-17,-4,1
1,10,10,-6,-5,10,-4,11,-14,-16,-3,2
2,10,9,-6,-4,9,-3,11,-13,-14,-2,2
2,9,7,-6,-3,9,-3,11,-12,-13,-1,3
2,8,6,-5,-3,8,-3,11,-12,-13,0,3
2,8,6,-6,-2,8,-3,11,-11,-12,0,4
3,8,5,-6,-2,7,-3,11,-10,-11,1,5
2,7,4,-5,-1,6,-3,11,-9,-11,1,5
1,4,3,-3,-1,3,-3,11,-9,-10,1,4
1,2,3,-2,0,2,-3,10,-9,-10,1,4
1,2,2,-2,0,2,-3,11,-8,-9,2,4
2,3,2,-3,0,2,-3,11,-7,-7,3,4
2,2,1,-3,0,2,-3,11,-6,-6,3,4
1,1,1,-2,0,1,-4,10,-6,-6,3,4
0,0,0,-1,0,0,-5,10,-5,-5,3,4
0,-1,0,0,0,0,-5,10,-5,-5,4,4
1,0,0,-1,1,0,-4,10,-4,-3,4,5
3,1,0,-3,2,0,-3,11,-3,-2,5,5
3,1,0,-3,2,0,-2,11,-2,0,6,5
2,0,-1,-2,2,-1,-2,11,-1,0,6,5
1,-1,-1,0,2,-2,-2,10,-1,1,6,5
1,-2,-2,0,2,-2,-2,10,0,1,6,5
1,-3,-2,1,2,-3,-2,10,0,1,6,5
1,-3,-3,1,2,-3,-2,10,0,1,7,5
1,-3,-3,1,3,-4,-2,10,0,2,7,5
1,-3,-4,0,3,-4,-2,10,0,2,8,5
2,-2,-4,0,3,-3,-2,10,1,3,8,6
3,-1,-4,-1,4,-3,-2,11,1,4,8,6
4,-1,-5,-2,4,-3,-2,11,2,4,8,6
4,-1,-5,-2,4,-3,-3,11,2,4,8,6
4,-2,-5,-1,4,-3,-3,11,3,5,8,6
4,-2,-5,-1,4,-3,-2,11,3,5,9,6
3,-2,-5,0,4,-3,-2,11,3,5,9,6
1,-4,-5,1,3,-5,-2,10,3,5,9,5
0,-6,-5,3,2,-6,-3,10,2,4,8,5
-1,-7,-5,4,2,-7,-4,10,2,5,8,5
-1,-7,-5,4,2,-7,-4,9,3,5,8,5
0,-6,-5,3,2,-6,-3,9,3,6,9,6
1,-5,-5,1,3,-5,-3,10,4,7,9,6
2,-4,-5,0,3,-5,-2,11,5,7,10,7
2,-3,-6,0,3,-4,-2,11,5,8,10,7
3,-3,-6,0,4,-4,-2,12,5,8,10,7
3,-3,-6,0,4,-4,-3,12,5,8,10,7
3,-3,-6,0,4,-5,-3,12,5,7,10,7
1,-5,-6,2,4,-6,-3,12,5,7,9,6
0,-7,-6,3,3,-7,-3,11,4,6,8,5
-1,-8,-6,4,2,-7,-3,11,4,6,8,4
0,-7,-6,3,2,-6,-2,11,4,6,8,4
1,-5,-6,1,3,-5,-2,12,5,6,8,5
2,-3,-6,0,4,-5,-1,12,5,6,8,5
3,-2,-5,0,4,-4,-1,12,6,7,9,6
3,-2,-5,0,4,-4,-1,12,6,7,10,7
3,-2,-4,0,4,-4,-2,12,6,8,10,7
2,-3,-4,0,4,-5,-2,12,6,8,10,7
2,-3,-4,0,3,-5,-2,12,6,8,10,7
2,-3,-4,0,3,-4,-2,12,6,8,10,7
3,-3,-5,-1,4,-4,-2,11,6,8,10,7
2,-3,-5,0,4,-5,-2,11,5,8,9,6
1,-4,-5,1,3,-5,-2,10,5,7,9,6
0,-5,-5,2,2,-5,-2,10,4,6,8,5
0,-5,-5,2,2,-5,-2,9,4,5,8,5
0,-5,-4,3,2,-5,-2,9,3,5,7,4
0,-5,-4,2,2,-5,-2,8,3,5,7,4
0,-4,-5,1,2,-5,-2,8,2,4,7,4
1,-4,-4,1,2,-5,-1,8,2,4,6,4
0,-4,-4,1,2,-4,-1,7,2,4,6,4
0,-4,-3,1,1,-4,-1,7,1,3,5,3
0,-4,-3,1,1,-4,-1,7,1,3,5,3
0,-4,-3,1,2,-4,-1,7,1,3,5,3
1,-3,-3,0,2,-3,-1,6,1,3,5,3
2,-2,-3,-1,3,-3,-1,6,1,3,5,3
2,-2,-3,-1,3,-3,-1,5,0,2,5,3
1,-3,-3,0,2,-3,-1,5,0,1,4,2
0,-4,-2,1,1,-3,-1,4,-1,1,4,2
-1,-4,-2,2,0,-4,-1,4,-2,0,3,1
-2,-4,-2,2,0,-4,-1,4,-2,0,3,1
-2,-4,-2,2,0,-4,-1,4,-2,0,3,1
-2,-4,-2,2,0,-4,-1,4,-2,0,3,1
-2,-4,-2,3,0,-4,-1,3,-3,-1,2,0
-2,-4,-2,3,0,-3,-1,3,-3,-1,2,0
-1,-3,-2,2,0,-3,-1,3,-3,-1,2,0
-1,-3,-1,2,0,-3,-1,3,-3,-2,1,0
-2,-3,-1,3,0,-3,-1,2,-4,-2,1,0
-2,-4,0,3,-1,-3,-1,2,-5,-3,0,0
-2,-3,0,3,0,-2,-1,2,-5,-3,0,-1
-1,-2,0,1,0,-2,0,2,-5,-3,0,-1
-1,-1,0,1,0,-1,0,1,-5,-3,0,-1
-2,-3,0,2,-1,-2,0,0,-6,-4,-1,-1
-3,-4,0,3,-2,-2,0,0,-7,-5,-2,-2
-3,-3,1,2,-2,-1,0,0,-7,-5,-2,-2
-2,-1,1,1,-1,0,1,0,-6,-5,-2,-1
-1,0,1,0,-1,0,1,0,-6,-4,-2,-1
-1,0,1,0,-1,1,1,0,-6,-4,-2,-1
-1,0,2,0,-1,1,1,0,-6,-4,-2,-1
-2,0,2,1,-2,0,1,0,-7,-4,-2,-1
-3,-1,2,2,-2,0,1,0,-7,-5,-3,-1
-2,-1,2,1,-2,0,1,0,-7,-5,-3,-1
-2,0,2,0,-2,0,1,0,-7,-5,-3,-1
-2,0,2,0,-2,0,1,0,-7,-5,-3,-1
-1,0,2,0,-1,0,1,0,-7,-5,-3,-1
0,1,1,-1,-1,0,1,0,-7,-5,-2,-1
0,1,1,-1,-1,1,1,0,-7,-5,-2,0
0,1,1,-1,-1,1,1,0,-7,-5,-2,0
0,1,2,-1,-1,1,0,-1,-7,-5,-2,0
-1,0,2,0,-2,1,0,-1,-7,-5,-2,0
-3,-1,2,1,-2,0,0,-1,-7,-5,-2,-1
-4,-2,2,3,-3,0,0,-1,-7,-5,-2,-1
-5,-3,2,4,-3,0,-1,-1,-7,-5,-3,-2
-5,-3,2,4,-3,0,-1,-1,-7,-5,-3,-2
-4,-2,2,3,-3,0,0,-1,-7,-5,-2,-2
-2,0,2,1,-2,0,0,-1,-7,-4,-2,-1
-1,0,2,0,-1,1,0,-1,-6,-4,-2,-1
-1,0,2,0,-1,1,0,-1,-6,-4,-2,-1
0,0,2,-1,0,1,0,-1,-6,-3,-1,-1
0,0,2,-1,0,1,1,0,-5,-3,-1,0
0,0,2,0,0,1,1,0,-5,-3,-1,0
0,0,2,0,0,1,0,0,-5,-3,-1,0
0,0,1,0,0,1,0,0,-5,-3,-1,0
0,0,1,0,0,1,0,0,-5,-3,-1,0
-1,0,1,0,-1,1,0,0,-5,-3,-1,0
-1,0,1,0,-1,1,0,0,-4,-2,0,0
-1,0,1,0,-1,1,0,1,-4,-2,0,0
0,0,1,0,0,0,0,1,-3,-1,0,1
0,0,0,0,0,0,1,1,-3,-1,1,1
0,0,1,0,0,0,1,2,-2,0,1,1
0,0,1,0,0,0,1,2,-2,0,2,1
-1,0,1,0,0,0,1,2,-2,0,2,1
-1,0,0,0,0,0,1,2,-2,0,2,1
0,0,0,0,0,0,1,2,-1,0,2,1
0,0,0,-1,1,0,1,3,-1,0,2,1
0,0,0,-1,1,0,1,3,-1,0,2,1
0,-1,0,0,0,0,0,3,-1,0,2,1
-1,-2,0,1,0,0,0,3,-1,0,2,1
-1,-2,0,2,0,0,0,3,-1,1,2,1
-1,-3,0,2,0,-1,-1,3,-1,1,2,1
-1,-3,-1,1,0,-1,-1,3,0,1,2,1
0,-2,-1,1,1,-1,0,3,0,2,3,2
0,-1,-1,0,1,-1,0,3,0,2,3,2
0,-1,-1,0,1,-1,0,3,1,2,3,2
0,-1,-1,0,1,-1,0,3,1,2,3,2
1,-1,-1,0,2,-1,0,3,1,2,3,2
1,0,-1,0,2,-1,0,3,1,2,3,2
1,0,-1,0,1,-1,1,3,1,2,3,2
0,-1,-1,0,1,-1,1,3,1,2,3,2
0,-2,-1,1,1,-2,0,3,0,2,3,2
0,-2,-1,1,1,-2,0,2,0,2,3,1
1,-1,-1,0,1,-1,1,3,0,3,3,2
2,0,-1,-1,2,-1,1,3,1,3,4,2
2,0,-2,-1,2,-1,1,3,1,3,4,2
2,0,-2,-1,2,-1,1,3,1,3,4,2
2,0,-2,-1,2,-1,1,3,1,4,4,2
1,-1,-2,0,2,-1,1,4,1,4,4,2
0,-1,-2,0,1,-1,0,4,1,3,4,2
0,-1,-2,0,1,-1,0,4,1,3,4,2
0,-1,-2,0,1,-1,0,3,1,3,5,2
0,-2,-1,1,1,-1,0,3,1,4,5,2
0,-2,-1,1,1,-2,0,3,1,4,5,2
0,-3,-2,1,1,-2,0,3,1,4,5,3
0,-3,-2,1,1,-2,0,3,1,4,5,3
0,-3,-2,1,0,-2,0,3,2,5,5,3
0,-3,-2,1,0,-2,0,3,2,5,5,3
0,-3,-2,1,1,-2,0,3,2,5,5,3
1,-2,-3,0,2,-2,0,4,3,5,6,3
2,-1,-3,-1,3,-2,0,4,3,5,6,3
2,-1,-3,-1,3,-2,0,4,3,5,6,3
2,-1,-3,-1,3,-2,0,4,3,5,6,3
2,-1,-2,-1,3,-2,0,4,3,5,6,3
2,-1,-2,-1,2,-2,0,4,3,5,6,4
2,-1,-2,-1,2,-2,1,4,3,5,6,4
2,0,-2,-1,3,-1,1,4,3,6,6,4
2,0,-2,-1,3,-1,2,5,4,6,6,4
2,0,-2,-1,2,-1,2,5,4,6,6,4
1,-1,-2,0,2,-2,1,5,4,6,6,4
1,-1,-3,0,2,-2,1,5,4,5,6,4
1,-1,-3,0,2,-2,1,5,4,5,6,4
1,0,-2,-1,2,-1,1,5,4,6,6,4
2,0,-3,-1,2,-1,1,4,3,6,6,3
1,-1,-3,0,2,-2,1,4,3,6,6,3
1,-2,-3,0,2,-2,1,4,3,6,6,3
1,-2,-4,0,2,-3,1,4,3,6,6,3
0,-3,-4,1,2,-3,0,4,2,6,6,3
-1,-4,-4,2,1,-4,0,3,2,5,5,2
0,-4,-4,2,2,-4,0,3,3,5,6,2
0,-3,-4,1,2,-4,0,4,3,6,6,3
1,-2,-4,0,2,-3,1,4,4,6,7,3
1,-2,-4,0,2,-3,1,4,4,7,7,3
1,-2,-4,0,2,-3,1,4,4,7,7,3
2,-1,-4,0,2,-2,1,4,4,7,7,3
2,-1,-4,-1,3,-2,1,4,4,7,7,3
2,-1,-4,-1,3,-2,1,4,4,7,7,3
2,-2,-4,-1,3,-3,0,4,4,7,7,3
1,-3,-4,0,3,-3,0,3,4,7,7,3
0,-4,-4,1,2,-4,0,3,4,7,7,3
0,-4,-4,2,2,-4,-1,3,4,7,7,3
0,-4,-5,1,3,-4,0,4,4,7,7,4
1,-4,-5,1,3,-4,0,4,4,7,8,4
1,-4,-6,1,3,-5,0,4,4,8,8,4
3,-2,-6,0,4,-4,1,5,5,8,8,5
5,0,-6,-2,5,-3,2,6,6,9,9,6
6,0,-6,-3,6,-3,2,6,7,9,9,6
6,0,-6,-2,6,-3,2,7,7,9,10,6
5,-1,-6,-2,6,-4,2,7,7,9,10,6
6,-1,-6,-2,6,-3,2,7,7,10,10,6
6,0,-6,-2,6,-3,2,8,8,10,11,6
5,-1,-6,-2,5,-3,1,7,8,10,10,6
4,-2,-6,-1,5,-3,0,7,8,10,10,6
4,-2,-6,-1,5,-3,0,7,8,10,10,6
4,-2,-6,-1,5,-3,0,7,8,10,10,7
4,-2,-6,-1,6,-4,0,7,8,10,10,7
5,-1,-7,-2,6,-4,0,7,8,10,10,7
6,-1,-7,-2,7,-4,0,7,8,10,10,7
7,0,-8,-3,7,-4,0,7,8,10,10,7
9,0,-9,-4,8,-4,0,6,7,10,11,7
9,0,-9,-4,8,-4,0,6,7,10,11,7
7,0,-8,-4,7,-4,-1,5,7,10,11,7
6,0,-8,-3,6,-4,-1,5,7,10,11,7
6,0,-7,-3,6,-4,-2,4,6,10,11,7
6,0,-7,-3,6,-4,-2,4,6,10,11,7
6,-1,-7,-2,6,-4,-3,3,5,9,10,7
7,-1,-8,-2,6,-5,-3,3,5,9,10,7
7,-1,-8,-2,6,-5,-3,3,5,9,10,7
6,-1,-8,-2,6,-5,-2,3,5,9,10,8
5,-2,-8,-2,6,-5,-2,3,5,9,10,8
5,-2,-8,-2,6,-5,-2,3,5,9,10,8
6,-1,-7,-2,6,-5,-1,3,5,9,10,8
5,-1,-7,-2,6,-5,-1,3,5,9,10,8
4,-2,-6,-2,5,-5,-1,3,5,8,10,8
5,-1,-6,-2,5,-4,0,3,5,8,10,8
6,0,-6,-2,6,-4,0,3,5,8,10,7
6,-1,-6,-2,6,-4,0,2,4,8,9,7
6,-1,-7,-2,6,-4,-1,2,4,7,9,6
6,-1,-7,-2,6,-5,-1,2,4,7,9,6
7,-1,-7,-3,7,-4,-1,2,4,7,9,6
7,0,-6,-3,6,-4,-1,2,4,7,9,6
6,0,-6,-2,6,-4,-1,2,4,7,8,6
5,-1,-6,0,5,-4,-1,1,3,6,8,6
4,-1,-5,0,4,-4,-1,1,3,6,7,5
3,-1,-4,-1,3,-3,0,1,3,6,7,5
3,0,-4,-1,3,-2,0,1,3,6,6,4
2,-1,-3,0,2,-2,0,0,3,5,6,4
2,-2,-3,0,2,-3,1,0,2,5,5,3
1,-2,-3,1,1,-3,1,0,2,4,5,2
0,-3,-3,2,1,-4,1,0,2,4,4,2
0,-3,-3,2,1,-4,0,0,2,4,4,2
0,-3,-3,2,1,-4,0,0,2,4,4,2
0,-3,-3,1,1,-3,0,0,2,4,4,2
1,-2,-3,0,2,-3,0,0,2,4,4,3
1,-2,-3,0,2,-3,0,0,3,4,5,3
0,-2,-3,1,2,-3,0,0,3,4,5,3
1,-1,-3,0,2,-2,1,1,3,5,5,4
3,0,-3,-1,3,-2,2,1,3,6,6,4
4,1,-3,-2,3,-1,2,2,4,6,6,5
3,0,-3,-1,3,-2,2,2,3,6,6,4
0,-2,-3,1,1,-3,1,1,3,6,6,3
-1,-4,-3,3,0,-4,0,1,2,5,5,3
0,-4,-3,3,1,-4,0,1,2,5,5,3
0,-3,-3,2,1,-3,0,1,3,5,5,3
1,-2,-3,1,1,-3,0,1,3,5,5,3
0,-2,-3,1,1,-3,0,1,3,5,5,3
0,-3,-3,2,1,-3,1,1,3,5,5,3
0,-3,-3,2,1,-3,1,1,3,5,5,3
1,-3,-3,1,2,-3,1,1,3,5,6,3
1,-2,-3,1,2,-3,2,2,3,6,6,3
1,-2,-3,1,1,-3,2,2,3,6,6,3
1,-2,-3,0,1,-3,2,3,3,6,6,3
1,-1,-3,0,2,-2,2,3,4,6,7,3
2,0,-3,0,2,-2,2,3,4,7,7,3
2,0,-3,0,2,-2,2,3,4,7,7,3
2,0,-3,0,2,-2,2,4,5,7,7,4
2,0,-3,0,3,-2,2,4,5,7,7,4
1,-1,-3,1,2,-2,2,4,5,7,6,4
-1,-3,-3,3,1,-3,2,4,4,6,5,4
-2,-4,-3,4,0,-3,1,4,3,6,5,3
-1,-4,-3,4,0,-3,1,4,3,5,5,3
-1,-4,-3,3,0,-3,0,4,3,5,5,2
0,-3,-3,2,1,-3,0,4,4,5,5,2
0,-2,-2,1,1,-3,0,3,4,5,5,2
0,-2,-3,2,1,-3,0,3,4,5,5,2
0,-3,-3,2,1,-3,0,3,4,5,5,2
0,-2,-3,1,2,-3,1,3,4,6,6,3
1,-2,-3,1,2,-3,1,3,5,7,7,4
0,-3,-4,2,2,-4,1,3,5,7,7,4
0,-4,-5,2,3,-5,1,4,5,7,7,4
1,-5,-6,2,4,-6,1,5,6,8,7,4
2,-5,-7,1,5,-6,2,7,7,8,8,4
2,-5,-8,1,5,-7,3,11,9,9,9,4
4,-4,-9,0,6,-6,5,18,13,11,10,5
6,-1,-8,-2,7,-5,10,27,19,15,13,7
8,2,-6,-4,6,-2,15,37,27,20,17,9
9,5,-4,-6,6,0,19,49,37,27,22,12
12,9,-2,-10,7,3,23,62,48,36,29,17
15,11,-2,-13,9,4,24,73,60,47,38,24
18,13,-3,-15,11,5,21,78,70,59,49,32
20,15,-4,-18,12,6,15,78,78,70,60,41
23,17,-5,-20,14,6,8,73,85,82,72,51
26,20,-6,-23,16,7,0,64,90,94,85,61
29,22,-6,-25,18,7,-6,53,95,106,97,71
32,26,-6,-29,19,9,-14,40,99,119,111,82
36,34,-2,-35,19,15,-23,26,104,133,126,95
40,46,6,-42,17,26,-33,9,107,146,140,109
40,57,16,-48,12,36,-42,-7,110,159,153,121
37,61,24,-49,6,43,-52,-26,109,167,161,129
32,61,29,-46,1,45,-59,-45,102,167,163,132
26,56,30,-41,-1,43,-63,-62,90,160,157,129
21,48,27,-34,-3,37,-68,-78,74,146,145,120
15,37,22,-26,-3,29,-75,-90,56,125,125,106
10,26,16,-18,-3,21,-81,-99,37,99,100,86
6,16,10,-11,-2,13,-84,-106,15,68,70,64
0,6,6,-3,-3,6,-84,-111,-9,34,38,39
-5,-4,2,5,-3,-1,-81,-114,-34,1,8,16
-9,-11,-2,10,-3,-7,-76,-114,-55,-26,-15,-1
-10,-16,-5,13,-2,-10,-69,-111,-69,-45,-30,-13
-10,-17,-5,13,-2,-11,-61,-104,-77,-57,-39,-20
-10,-15,-4,12,-2,-10,-52,-94,-78,-61,-42,-23
-9,-13,-4,11,-2,-9,-43,-82,-73,-59,-42,-24
-8,-11,-3,9,-2,-7,-35,-70,-66,-54,-40,-23
-6,-7,-1,6,-2,-4,-27,-58,-57,-48,-36,-21
-4,-3,0,4,-2,-2,-20,-48,-49,-43,-32,-19
-3,-1,2,2,-2,0,-15,-40,-42,-38,-28,-17
-3,1,4,1,-3,2,-11,-33,-36,-33,-24,-15
-4,1,5,1,-3,2,-7,-27,-31,-29,-22,-13
-5,0,5,2,-4,2,-4,-23,-27,-26,-20,-12
-5,-1,4,3,-4,1,-1,-19,-23,-23,-18,-12
-5,-2,3,4,-4,0,0,-15,-21,-21,-17,-12
-6,-4,2,5,-4,-1,2,-13,-19,-20,-16,-12
-6,-5,2,5,-4,-1,3,-11,-18,-19,-16,-12
-5,-4,1,5,-4,-1,4,-9,-17,-18,-15,-11
-4,-3,1,4,-3,-1,4,-8,-15,-17,-14,-11
-5,-3,1,4,-3,-1,5,-7,-14,-16,-14,-10
-5,-4,1,5,-3,-2,5,-6,-13,-16,-13,-10
-5,-4,1,6,-3,-2,5,-5,-13,-15,-13,-10
-5,-4,0,5,-3,-2,6,-5,-12,-15,-13,-10
-4,-3,0,4,-2,-2,7,-4,-12,-14,-12,-10
-3,-3,0,3,-2,-1,8,-3,-11,-14,-12,-10
-4,-4,0,4,-3,-2,8,-2,-11,-14,-12,-11
-5,-5,0,6,-3,-2,8,-2,-11,-14,-13,-11
-6,-6,0,7,-3,-3,8,-1,-11,-14,-13,-11
-5,-5,0,6,-2,-2,8,-1,-10,-14,-12,-10
-4,-4,0,5,-1,-2,9,0,-10,-13,-12,-10
-3,-4,0,4,-1,-2,9,0,-10,-14,-12,-10
-3,-4,-1,4,-1,-2,9,0,-11,-14,-12,-10
-3,-4,-1,4,-2,-2,9,0,-11,-14,-12,-10
-3,-4,-1,4,-2,-2,10,0,-11,-14,-12,-10
-4,-4,-1,5,-2,-2,10,0,-11,-14,-12,-9
-5,-5,0,6,-3,-2,10,0,-11,-14,-12,-9
-6,-6,0,6,-3,-2,10,0,-11,-14,-12,-9
-6,-6,0,6,-3,-2,10,1,-10,-14,-12,-9
-5,-5,0,6,-3,-2,10,1,-10,-14,-12,-9
-5,-4,0,5,-3,-2,10,2,-10,-14,-12,-9
-4,-4,0,5,-3,-2,10,2,-10,-14,-12,-10
-5,-6,0,6,-3,-3,9,2,-10,-14,-13,-10
-5,-7,0,7,-3,-4,9,2,-11,-15,-14,-11
-5,-7,-1,7,-2,-4,9,2,-11,-16,-14,-11
-5,-7,-1,6,-2,-3,9,2,-11,-16,-14,-11
-5,-6,0,6,-2,-3,9,2,-10,-15,-14,-11
-6,-6,0,6,-3,-2,10,3,-10,-15,-14,-11
-6,-6,0,6,-4,-3,9,3,-10,-16,-14,-11
-6,-7,0,7,-3,-4,9,2,-11,-16,-14,-12
-6,-7,0,7,-3,-4,10,3,-11,-16,-13,-12
-5,-6,0,6,-2,-3,10,3,-10,-15,-13,-11
-4,-5,0,5,-2,-3,11,4,-10,-14,-13,-11
-5,-6,0,5,-1,-3,11,4,-10,-14,-13,-11
-5,-6,0,5,-1,-3,11,3,-10,-15,-14,-11
-5,-6,0,5,-1,-3,11,3,-10,-15,-14,-11
-6,-6,0,6,-2,-3,11,3,-10,-16,-14,-12
-8,-8,0,8,-3,-4,11,3,-11,-17,-14,-13
-9,-9,0,9,-4,-5,10,2,-12,-17,-15,-13
-8,-8,0,8,-4,-4,11,3,-12,-17,-15,-13
-6,-6,1,6,-3,-2,12,4,-11,-16,-14,-12
-4,-4,1,4,-2,-1,12,4,-10,-16,-14,-11
-3,-3,1,3,-2,-1,12,5,-10,-16,-14,-11
-3,-2,1,3,-2,-1,12,5,-10,-16,-14,-11
-4,-3,1,4,-2,-1,12,5,-10,-16,-14,-11
-4,-4,1,5,-2,-1,12,5,-10,-17,-14,-11
-4,-4,1,5,-2,-1,12,6,-10,-17,-14,-11
-3,-3,1,4,-1,-1,12,6,-10,-17,-14,-11
-4,-4,1,4,-2,-1,12,6,-10,-17,-14,-11
-5,-5,1,6,-3,-2,11,6,-11,-18,-15,-12
-7,-6,1,7,-4,-2,11,6,-11,-19,-16,-13
-8,-7,2,8,-5,-2,11,6,-12,-19,-17,-13
-7,-6,2,7,-4,-2,11,6,-12,-19,-17,-13
-5,-3,2,4,-3,0,12,7,-11,-19,-16,-12
-3,-1,2,2,-2,1,13,8,-10,-18,-15,-11
-3,0,3,2,-2,1,13,8,-10,-18,-15,-11
-4,0,3,2,-3,1,13,9,-10,-19,-16,-11
-4,-1,3,3,-3,1,13,9,-11,-19,-16,-12
-5,-1,3,3,-4,1,13,9,-11,-20,-17,-12
-5,-2,3,4,-4,1,13,9,-11,-20,-17,-13
-6,-2,4,4,-5,1,13,9,-11,-20,-17,-13
-6,-2,4,4,-5,1,13,9,-11,-20,-17,-13
-6,-2,4,5,-5,1,13,9,-11,-20,-17,-13
-6,-2,4,4,-5,1,13,9,-11,-20,-17,-13
-6,-1,4,4,-5,1,13,9,-11,-21,-17,-13
-6,-1,5,4,-6,1,13,10,-11,-21,-17,-13
-7,-2,5,5,-6,1,13,10,-11,-22,-18,-13
-8,-2,6,6,-7,1,12,10,-11,-22,-18,-14
-7,-2,6,5,-7,2,12,10,-11,-21,-18,-14
-6,0,6,4,-6,3,12,10,-11,-21,-18,-14
-6,1,6,3,-6,4,12,10,-11,-21,-18,-14
-6,1,7,3,-6,4,12,10,-12,-22,-18,-14
-6,1,7,3,-6,4,12,10,-12,-22,-19,-14
-6,2,8,3,-6,4,12,10,-12,-22,-19,-14
-5,2,8,2,-6,5,12,10,-12,-22,-19,-14
-5,3,8,2,-6,5,12,10,-13,-23,-19,-14
-5,3,8,2,-7,5,12,10,-13,-23,-19,-14
-7,2,8,3,-8,5,11,10,-14,-24,-20,-14
-8,1,9,4,-9,5,11,10,-14,-24,-21,-15
-7,3,10,3,-8,6,12,10,-14,-24,-21,-14
-5,6,10,0,-7,8,13,11,-13,-23,-20,-13
-3,8,11,-2,-7,9,13,12,-12,-23,-19,-12
-4,8,12,-1,-8,10,13,12,-12,-23,-19,-12
-4,8,12,-1,-8,10,13,12,-13,-23,-19,-12
-5,8,13,-1,-8,10,12,12,-13,-23,-19,-12
-5,8,13,-1,-8,10,12,12,-13,-23,-19,-12
-5,8,13,-1,-9,11,11,12,-13,-23,-19,-12
-6,7,14,-1,-9,11,10,12,-14,-24,-20,-12
-8,7,15,0,-10,11,9,11,-14,-25,-21,-13
-8,7,15,0,-11,11,8,11,-15,-26,-21,-13
-7,9,16,0,-11,12,9,11,-15,-26,-21,-13
-5,11,16,-2,-11,14,10,12,-14,-26,-21,-12
-4,13,17,-4,-10,15,10,12,-14,-26,-21,-12
-3,14,17,-5,-10,16,10,13,-14,-26,-21,-12
-2,16,18,-6,-10,17,10,13,-14,-26,-21,-11
-2,16,18,-6,-10,17,10,13,-14,-26,-21,-11
-3,15,19,-5,-11,17,10,13,-15,-27,-21,-11
-4,14,19,-4,-11,17,9,12,-16,-27,-21,-11
-4,14,19,-4,-11,17,8,11,-17,-27,-21,-11
-4,15,20,-5,-11,17,8,11,-17,-27,-20,-10
-4,16,20,-5,-11,18,7,11,-17,-27,-20,-10
-3,17,20,-6,-11,18,7,11,-17,-27,-20,-9
-2,18,21,-7,-11,19,7,11,-17,-27,-19,-8
-2,19,21,-8,-11,19,6,11,-17,-27,-19,-8
-2,18,22,-7,-12,20,6,11,-17,-27,-19,-8
-3,18,22,-7,-13,20,6,10,-17,-27,-19,-8
-3,19,22,-7,-12,20,6,10,-17,-27,-19,-8
-3,19,22,-7,-12,20,5,9,-17,-27,-19,-8
-4,18,22,-6,-13,20,4,8,-18,-27,-19,-8
-4,18,22,-6,-13,20,3,8,-18,-27,-19,-8
-3,18,22,-7,-13,20,2,7,-18,-27,-18,-7
-3,19,22,-8,-13,20,2,7,-18,-27,-18,-7
-3,18,22,-7,-13,20,1,7,-18,-27,-17,-6
-3,18,22,-7,-12,20,1,6,-18,-27,-16,-5
-1,19,22,-9,-11,20,2,6,-17,-26,-15,-4
0,21,22,-10,-10,21,2,6,-16,-24,-14,-2
0,21,21,-10,-10,21,1,6,-16,-23,-13,-2
0,20,20,-10,-9,20,1,5,-16,-23,-12,-2
2,20,19,-11,-8,19,1,5,-16,-22,-12,-1
4,22,18,-12,-7,19,1,6,-15,-21,-10,0
5,22,17,-13,-6,19,2,6,-14,-20,-9,0
5,20,16,-12,-6,18,2,6,-13,-20,-9,0
4,19,16,-11,-5,17,1,6,-13,-19,-8,0
4,17,15,-10,-5,15,1,6,-13,-19,-8,0
4,16,13,-9,-4,14,0,6,-12,-18,-7,1
3,14,12,-8,-4,13,0,6,-12,-17,-7,1
2,12,10,-7,-4,11,0,5,-12,-16,-6,1
2,11,9,-6,-4,10,0,5,-12,-16,-6,1
2,10,8,-6,-3,9,0,5,-11,-15,-5,1
2,9,7,-5,-2,8,0,5,-10,-14,-5,2
2,8,7,-4,-2,7,0,5,-10,-13,-5,2
2,7,6,-3,-1,6,0,4,-9,-13,-5,2
2,6,5,-3,-1,5,0,4,-8,-12,-4,2
2,6,4,-3,0,4,0,4,-8,-11,-4,2
2,5,3,-2,0,4,0,4,-7,-9,-3,2
2,4,2,-2,0,3,0,4,-5,-8,-2,3
2,4,1,-2,0,3,0,5,-4,-6,-1,3
2,3,1,-2,1,2,0,5,-3,-5,0,3
2,3,1,-2,1,2,0,5,-2,-4,0,4
3,3,0,-2,2,1,0,5,-1,-3,0,4
3,3,0,-2,2,1,0,5,-1,-3,1,4
3,2,-1,-2,2,0,0,5,0,-2,1,4
3,2,-1,-2,2,0,0,6,0,-1,2,4
3,1,-2,-2,3,0,0,6,1,-1,2,4
4,1,-2,-2,3,-1,1,6,2,0,3,4
4,1,-3,-2,4,-1,1,6,2,1,3,4
3,0,-3,-1,3,-2,1,6,3,1,3,4
2,-1,-3,0,3,-2,1,5,3,2,4,5
2,-2,-3,1,3,-3,1,5,4,3,4,5
1,-2,-3,1,3,-3,1,6,4,4,5,5
2,-2,-4,0,3,-3,1,6,5,5,5,5
2,-3,-4,0,3,-4,0,6,5,5,6,5
1,-4,-5,1,3,-4,0,6,6,6,6,5
0,-4,-5,2,3,-4,0,6,6,6,6,5
1,-4,-5,1,3,-4,0,6,7,6,6,5
2,-3,-6,1,4,-4,0,6,7,7,7,5
2,-3,-6,1,4,-4,0,6,8,7,7,5
2,-3,-6,1,4,-4,0,6,8,8,7,5
2,-3,-6,1,4,-4,0,6,9,8,7,5
2,-3,-6,1,4,-4,0,6,9,9,7,6
2,-3,-6,1,4,-4,0,6,9,9,7,6
2,-3,-6,1,4,-4,1,7,10,9,8,6
2,-3,-6,1,4,-5,1,7,10,9,8,7
2,-3,-6,1,4,-5,1,7,10,9,8,7
2,-4,-7,1,4,-6,1,7,10,9,8,6
1,-5,-7,2,4,-6,1,7,10,9,8,6
0,-6,-7,3,4,-7,0,7,10,10,8,6
0,-6,-7,4,3,-7,0,7,10,10,9,6
0,-6,-7,3,4,-6,0,7,10,11,9,6
2,-5,-7,2,5,-6,0,8,10,11,9,6
3,-4,-8,1,5,-6,0,8,10,11,9,6
3,-4,-8,1,6,-6,1,8,11,11,9,6
2,-5,-8,1,5,-6,1,8,11,11,9,6
2,-5,-8,1,5,-6,1,8,11,11,8,6
3,-4,-8,0,6,-6,1,8,11,12,9,7
4,-2,-7,-1,6,-5,2,9,12,12,9,7
4,-2,-7,-1,6,-5,2,9,12,12,9,7
2,-4,-7,0,5,-6,1,9,11,11,8,6
0,-6,-7,2,4,-7,1,8,10,10,7,5
0,-7,-7,3,4,-7,1,8,10,10,7,5
0,-6,-6,2,4,-6,1,8,10,10,7,5
2,-4,-6,1,5,-5,2,8,11,11,8,6
3,-3,-7,0,5,-5,2,8,11,11,8,6
2,-3,-7,0,5,-5,2,7,11,11,7,5
2,-4,-7,1,5,-5,2,7,11,11,7,5
2,-3,-7,0,5,-5,2,8,11,10,7,5
2,-3,-7,0,5,-5,2,8,11,10,7,5
2,-4,-7,1,5,-5,2,7,10,10,7,5
1,-5,-7,2,4,-5,2,6,9,10,7,5
0,-6,-7,3,4,-5,2,6,9,9,6,5
0,-5,-7,2,4,-5,2,6,9,9,6,5
1,-4,-7,1,4,-4,2,6,9,9,6,5
1,-4,-6,1,4,-5,2,5,8,9,6,5
1,-5,-6,2,3,-5,2,5,8,8,5,4
1,-5,-5,2,3,-5,3,5,7,7,5,4
1,-4,-5,1,3,-4,3,5,7,7,5,4
1,-4,-5,1,3,-4,3,4,7,7,5,4
1,-4,-5,1,3,-4,3,4,7,7,5,4
1,-3,-5,0,3,-4,3,3,7,7,5,4
1,-3,-5,0,3,-4,3,3,6,7,5,4
1,-3,-5,1,3,-4,3,2,6,7,4,4
0,-4,-5,1,3,-4,2,1,5,6,3,3
0,-5,-5,2,2,-4,2,0,4,5,2,2
-1,-5,-5,2,2,-4,2,0,3,4,2,2
-1,-5,-4,2,2,-3,2,0,3,4,2,2
-1,-4,-4,1,2,-3,2,0,3,4,2,2
-1,-4,-3,1,2,-3,2,0,3,4,2,2
0,-3,-3,1,1,-3,3,0,3,3,2,2
0,-3,-3,1,1,-3,3,0,2,3,1,2
-1,-3,-3,1,1,-3,3,-1,1,2,0,1
-1,-3,-2,1,0,-3,3,-1,0,1,0,1
-2,-3,-2,2,0,-3,3,-2,0,0,-1,0
-2,-3,-2,2,0,-2,3,-2,0,0,-2,0
-1,-3,-2,1,0,-2,3,-2,0,0,-2,0
-2,-3,-2,2,0,-2,2,-2,-1,0,-2,0
-3,-4,-1,3,-1,-3,2,-3,-1,-1,-2,0
-4,-5,-1,4,-1,-3,2,-3,-1,-1,-2,0
-2,-3,-1,2,0,-2,2,-3,-1,-1,-2,0
0,0,-1,0,0,-1,3,-3,0,0,-1,0
1,1,-1,-1,1,0,4,-3,0,0,-1,1
1,1,0,0,1,0,4,-3,0,-1,-1,1
-1,0,0,1,0,0,3,-3,-1,-1,-2,0
-2,-2,0,2,-1,-1,3,-4,-2,-2,-2,0
-3,-2,0,2,-1,-1,2,-4,-2,-2,-3,0
-2,-1,0,2,-1,0,3,-3,-2,-2,-2,0
-2,0,0,1,-1,0,3,-3,-2,-2,-2,0
-1,0,0,1,-1,0,3,-4,-2,-2,-3,-1
-1,0,0,1,-1,0,3,-4,-3,-3,-3,-1
-1,0,0,1,-1,0,3,-4,-3,-3,-4,-1
-1,-1,0,1,-1,0,3,-4,-3,-3,-4,-1
-1,-1,0,1,-1,0,3,-4,-3,-3,-4,-1
-1,-1,0,1,-1,0,3,-4,-3,-3,-4,-1
-1,-1,0,1,-1,0,3,-4,-2,-3,-4,-1
-1,-1,0,1,-1,0,3,-4,-2,-3,-4,-1
-2,-1,0,1,-1,0,3,-4,-2,-3,-4,-1
-3,-2,0,2,-2,-1,2,-4,-2,-3,-4,-2
-5,-3,1,3,-3,-1,2,-5,-2,-3,-4,-2
-6,-4,1,5,-3,-1,1,-5,-2,-3,-4,-2
-5,-4,0,4,-2,-1,1,-5,-2,-3,-4,-2
-2,-3,0,2,-1,-1,1,-4,-2,-2,-3,-1
0,-1,-1,1,0,0,1,-4,-2,-2,-3,-1
0,-1,-1,1,0,-1,2,-4,-2,-2,-3,-1
0,-1,-1,1,0,-1,2,-4,-1,-1,-3,-1
0,-1,-1,0,0,-1,2,-3,-1,-1,-2,0
0,-1,-1,0,0,-1,2,-3,0,0,-2,0
0,-1,-1,0,0,-1,2,-3,0,0,-2,0
0,-1,-1,0,0,-1,2,-3,0,0,-2,0
0,-1,-1,1,0,-1,2,-3,0,0,-2,0
0,-2,-1,1,0,-1,2,-3,0,0,-2,0
-1,-2,-1,1,0,-1,2,-3,0,0,-1,0
-1,-3,-2,1,0,-2,1,-3,0,0,-1,0
-1,-3,-2,2,0,-2,1,-3,0,0,-1,0
-1,-3,-2,2,0,-2,1,-2,0,0,-1,0
0,-2,-2,1,0,-1,1,-1,1,1,0,0
0,-2,-2,1,0,-1,1,-1,2,1,0,0
0,-2,-2,1,0,-1,1,-1,2,1,0,0
0,-2,-2,1,0,-1,1,-1,2,1,0,1
-1,-3,-2,1,0,-2,0,-1,2,1,0,1
-2,-4,-2,3,0,-3,0,-1,2,1,0,0
-3,-5,-2,4,0,-3,0,-2,2,1,0,0
-3,-5,-3,3,0,-3,0,-2,2,2,0,0
-2,-4,-3,2,0,-3,0,-1,3,2,1,1
-1,-3,-3,1,1,-3,0,-1,3,3,1,1
0,-3,-3,1,1,-3,0,-1,4,3,1,1
0,-2,-3,0,2,-3,0,-1,4,3,2,2
0,-3,-3,1,2,-3,0,-1,4,3,2,2
0,-4,-3,2,1,-3,0,-1,4,3,2,2
-1,-4,-3,2,1,-4,-1,-1,4,3,2,1
0,-4,-3,1,2,-3,0,0,5,3,2,1
1,-2,-3,0,2,-2,0,0,6,4,3,2
1,-2,-3,0,2,-2,0,0,6,5,3,2
0,-3,-4,0,2,-3,-1,0,6,4,3,1
0,-3,-4,0,2,-3,-1,0,6,4,3,1
1,-2,-4,0,2,-3,0,0,6,4,3,2
1,-2,-3,0,2,-2,0,0,6,4,3,2
1,-2,-3,0,2,-2,0,0,6,5,4,2
1,-1,-3,0,3,-1,0,0,7,5,4,3
2,0,-3,-1,3,-2,0,0,7,5,4,3
2,-1,-4,-1,3,-2,0,0,7,5,4,2
2,-1,-4,0,3,-2,0,0,7,5,4,2
2,-1,-4,0,2,-2,0,0,7,5,4,2
2,-1,-4,0,2,-2,0,0,7,5,4,2
2,-1,-4,0,2,-2,0,0,7,5,4,2
2,-1,-4,0,2,-2,0,0,7,5,4,2
2,-1,-4,0,2,-2,0,0,7,5,4,2
1,-2,-3,0,2,-3,0,0,7,5,4,2
0,-3,-3,1,1,-3,-1,0,7,5,3,1
-1,-4,-3,2,1,-4,-1,0,7,5,3,1
-1,-5,-3,3,1,-4,-1,0,7,5,4,2
-1,-4,-3,2,1,-4,-1,0,7,5,4,2
0,-3,-4,1,2,-3,-1,0,7,5,4,2
1,-2,-4,0,3,-3,0,0,7,6,5,2
2,-2,-4,0,3,-3,0,0,7,6,5,2
2,-2,-4,0,3,-3,-1,0,7,6,5,2
2,-1,-5,0,3,-3,-1,0,8,6,5,2
3,0,-5,-1,3,-3,0,1,8,6,5,3
2,0,-4,-1,3,-2,0,1,9,6,5,3
1,-1,-4,0,2,-3,0,0,9,6,5,3
0,-2,-4,0,2,-3,0,0,8,6,5,3
0,-3,-4,0,2,-4,-1,0,8,6,5,3
0,-4,-4,1,2,-4,-1,0,7,6,5,3
1,-3,-4,0,3,-4,-1,0,8,6,5,3
1,-3,-4,0,3,-4,-1,0,8,6,5,3
1,-3,-4,0,3,-4,-1,0,8,6,5,3
1,-2,-4,0,3,-3,-1,0,8,6,5,3
1,-2,-4,0,3,-3,-1,0,8,6,5,3
1,-2,-4,0,3,-3,-1,0,8,6,5,3
2,-2,-4,0,3,-3,0,0,8,6,5,3
3,-2,-4,-1,4,-3,0,0,9,6,6,4
3,-1,-4,-1,4,-3,0,1,9,6,6,4
3,-2,-4,-1,4,-3,0,1,9,6,6,4
1,-3,-3,0,3,-3,0,1,9,6,6,4
0,-3,-4,1,3,-4,0,0,9,6,6,3
1,-3,-5,0,4,-4,-1,0,9,6,6,3
2,-2,-5,0,4,-3,-1,0,9,7,6,3
2,-2,-5,0,4,-3,-1,0,9,7,6,3
1,-3,-5,0,3,-4,-1,0,8,6,5,3
1,-4,-5,1,3,-4,-1,0,8,6,5,2
1,-4,-5,1,3,-5,-1,0,8,6,5,2
1,-4,-5,0,4,-5,-1,0,9,7,5,3
2,-3,-6,0,4,-4,-1,1,10,7,5,3
3,-2,-6,-1,4,-4,-1,1,10,8,6,4
3,-2,-6,-1,4,-4,0,2,11,8,6,4
3,-2,-6,-1,5,-4,0,2,11,8,6,4
3,-2,-7,-1,5,-4,0,2,12,8,6,4
2,-3,-7,0,4,-5,0,2,12,8,6,4
1,-5,-7,1,4,-5,0,2,12,8,6,4
1,-5,-6,1,4,-6,0,3,12,8,6,4
3,-3,-6,0,5,-5,1,4,13,9,7,5
5,-2,-6,-2,5,-5,1,4,13,9,8,6
5,-1,-7,-2,6,-4,1,5,13,10,9,7
5,-1,-7,-2,6,-4,0,5,13,10,9,7
6,0,-7,-3,6,-4,0,6,14,10,9,7
8,1,-7,-5,7,-3,1,6,14,11,9,7
8,1,-7,-5,7,-3,0,6,15,11,9,7
7,0,-7,-4,7,-3,0,6,15,11,9,7
7,0,-7,-3,7,-4,-1,5,14,10,9,7
7,0,-8,-4,8,-4,-1,5,14,10,9,7
7,0,-8,-4,8,-5,-2,4,13,9,9,6
6,-1,-8,-2,8,-5,-3,2,12,8,8,6
5,-2,-8,-1,7,-6,-4,1,11,8,8,6
5,-2,-8,-1,7,-6,-5,0,10,7,7,6
4,-2,-7,0,6,-5,-5,0,10,7,7,6
4,-2,-7,0,5,-5,-5,0,10,7,7,6
4,-2,-7,-1,6,-5,-5,0,11,8,7,6
5,-1,-7,-2,6,-5,-5,0,11,8,8,6
5,-1,-8,-2,7,-5,-5,0,11,8,8,6
5,-2,-8,-1,7,-6,-5,0,11,8,8,6
4,-3,-8,-1,7,-6,-5,0,11,8,8,7
5,-3,-8,-1,7,-6,-4,0,11,8,8,7
6,-2,-8,-2,8,-5,-4,1,11,9,8,7
7,-1,-8,-3,8,-5,-3,1,11,9,8,7
7,-1,-8,-3,8,-5,-3,1,11,9,8,7
5,-2,-7,-1,6,-5,-4,0,11,8,7,6
3,-3,-7,0,5,-6,-4,-1,10,7,7,5
4,-3,-8,0,6,-6,-4,-1,9,7,7,5
5,-3,-8,-1,7,-6,-4,-1,9,7,7,5
5,-2,-8,-1,7,-6,-4,-1,9,6,6,5
5,-3,-8,-1,7,-6,-4,-2,8,6,6,5
5,-4,-8,0,7,-7,-4,-2,8,5,5,4
4,-4,-8,0,6,-6,-3,-2,8,5,5,4
4,-3,-8,0,6,-6,-3,-2,8,5,5,4
3,-3,-7,0,5,-6,-3,-2,8,5,5,4
2,-4,-7,0,5,-6,-4,-2,8,5,5,4
2,-3,-6,0,4,-5,-4,-2,8,5,5,3
3,-2,-5,-1,4,-4,-3,-2,8,5,5,3
3,-1,-4,-1,4,-3,-3,-2,8,5,5,3
1,-2,-4,0,3,-4,-3,-2,8,5,4,2
0,-4,-3,1,2,-4,-3,-2,7,4,3,2
0,-4,-3,1,2,-4,-2,-2,7,4,3,1
1,-3,-4,0,3,-4,-1,-2,8,4,3,1
2,-2,-4,0,3,-3,-1,-2,8,4,3,2
1,-3,-4,1,3,-3,-1,-2,8,4,3,2
0,-3,-3,1,2,-3,0,-2,8,4,3,2
0,-3,-3,1,2,-3,0,-2,8,4,4,2
-1,-4,-3,2,2,-4,0,-2,7,3,4,1
-1,-4,-4,2,2,-4,-1,-2,7,3,3,1
0,-4,-4,1,3,-4,-1,-2,7,4,3,1
1,-3,-4,1,3,-4,-1,-2,8,4,4,2
0,-3,-3,1,2,-3,-1,-2,8,4,4,2
-1,-3,-3,2,1,-3,-1,-2,8,4,4,2
-1,-3,-3,2,1,-3,-1,-1,8,4,4,2
-1,-3,-3,2,1,-3,-1,-1,8,4,4,2
-1,-4,-3,2,1,-4,-2,-1,8,4,4,1
-2,-5,-3,3,0,-4,-2,-1,8,4,4,1
-3,-6,-3,4,0,-5,-2,-1,8,4,4,1
-4,-6,-3,5,0,-5,-2,-2,7,4,4,1
-3,-6,-3,4,0,-5,-1,-2,7,4,4,1
-2,-5,-3,3,0,-4,-1,-2,7,4,4,1
0,-4,-3,2,1,-4,-1,-1,7,4,4,1
0,-3,-3,1,2,-4,-1,-1,7,4,4,1
0,-3,-3,1,2,-4,-1,-1,7,4,4,1
0,-4,-3,1,1,-4,-1,-1,7,4,4,1
-1,-4,-3,2,1,-4,-1,-1,8,4,4,1
-1,-4,-3,2,1,-3,-1,0,8,4,4,2
-1,-4,-3,2,1,-3,-1,0,8,4,4,2
-1,-4,-3,2,1,-4,-1,0,8,4,4,2
0,-3,-4,2,1,-4,0,0,7,4,4,2
1,-2,-4,1,2,-4,0,0,7,4,4,2
1,-2,-4,0,2,-4,0,0,8,4,4,2
1,-2,-4,0,2,-4,0,0,8,4,5,2
0,-3,-4,1,2,-4,0,0,8,4,5,2
-1,-5,-4,2,2,-5,0,-1,8,4,4,2
-2,-6,-4,3,1,-5,0,-1,8,4,4,1
-2,-6,-4,3,1,-5,0,-1,8,4,3,1
-2,-5,-3,3,1,-5,0,0,8,4,3,2
-1,-4,-3,2,1,-5,0,0,7,3,3,2
-2,-5,-3,3,0,-5,0,-1,7,3,3,1
-2,-5,-3,3,1,-6,-1,-1,7,3,3,1
0,-5,-4,2,2,-5,0,-1,8,4,4,1
2,-4,-5,0,4,-5,0,1,9,5,5,2
3,-3,-6,0,6,-6,2,4,11,7,6,3
4,-4,-7,0,6,-7,4,8,13,8,7,3
4,-5,-8,0,7,-7,6,13,17,9,7,3
4,-3,-8,-1,7,-6,9,22,22,12,9,4
5,-1,-7,-2,6,-4,13,32,28,16,11,5
5,1,-5,-3,5,-2,17,43,37,21,15,8
7,4,-3,-6,6,0,21,56,48,30,22,12
11,8,-2,-9,7,2,22,68,61,42,32,20
14,11,-2,-12,8,3,20,74,71,54,43,29
19,14,-4,-16,11,4,14,73,79,65,55,39
25,18,-6,-22,15,6,8,69,86,77,67,49
30,23,-7,-27,19,7,1,62,92,89,80,60
34,26,-8,-30,21,8,-7,52,97,101,92,70
38,29,-8,-34,23,9,-16,40,102,113,106,81
40,36,-4,-38,22,14,-26,26,107,127,120,93
41,45,4,-43,18,23,-36,11,111,141,135,107
39,53,14,-47,13,32,-45,-5,114,154,149,119
37,58,21,-48,8,39,-54,-21,116,164,160,130
32,58,26,-46,3,41,-61,-39,111,167,164,134
27,53,26,-41,0,39,-66,-56,100,161,160,132
21,44,22,-34,0,33,-72,-72,85,147,148,124
16,33,17,-25,-1,25,-80,-85,66,126,128,109
11,23,12,-17,0,17,-87,-95,46,100,103,89
6,14,8,-10,-1,10,-89,-103,24,70,73,67
1,6,5,-4,-2,5,-88,-109,0,37,41,43
-3,-1,2,2,-2,0,-84,-113,-24,4,12,21
-6,-8,-1,6,-2,-5,-78,-115,-46,-23,-11,4
-8,-12,-3,9,-2,-9,-71,-113,-62,-43,-28,-8
-9,-13,-4,10,-2,-9,-63,-108,-72,-56,-38,-17
-10,-12,-2,10,-3,-8,-54,-99,-74,-61,-43,-21
-10,-10,0,9,-4,-6,-45,-87,-69,-60,-44,-22
-10,-9,0,9,-5,-4,-37,-74,-62,-55,-41,-22
-9,-8,2,8,-5,-3,-29,-63,-54,-50,-38,-21
-9,-6,3,7,-6,-2,-23,-53,-46,-45,-34,-19
-8,-3,5,5,-6,0,-17,-45,-39,-40,-30,-17
-6,-1,6,3,-6,1,-13,-37,-33,-35,-27,-15
-5,0,6,2,-5,2,-9,-31,-28,-31,-24,-13
-5,1,6,1,-6,3,-6,-26,-24,-28,-22,-12
-6,0,6,2,-6,2,-4,-22,-22,-26,-21,-12
-6,-1,5,3,-5,1,-2,-19,-20,-24,-20,-12
-6,-1,4,3,-4,1,0,-16,-18,-23,-19,-12
-5,-2,3,3,-4,0,1,-14,-16,-21,-18,-12
-5,-1,3,2,-3,0,2,-12,-14,-20,-17,-11
-5,-1,2,2,-3,0,3,-11,-13,-20,-17,-11
-5,-2,2,3,-4,0,3,-10,-12,-19,-16,-11
-6,-3,2,4,-4,-1,4,-9,-12,-19,-16,-11
-6,-4,2,4,-4,-1,4,-8,-12,-18,-16,-11
-6,-4,2,4,-4,-1,5,-8,-11,-18,-16,-11
-6,-4,1,5,-3,-2,5,-8,-11,-18,-16,-12
-6,-5,1,5,-3,-3,6,-7,-11,-18,-16,-12
-6,-5,1,5,-3,-3,6,-6,-11,-17,-16,-12
-6,-4,1,5,-3,-2,7,-5,-10,-17,-15,-12
-5,-3,1,4,-3,-2,7,-4,-9,-16,-15,-12
-5,-3,1,3,-3,-2,8,-4,-9,-16,-15,-12
-5,-4,1,3,-3,-2,8,-4,-9,-16,-15,-12
-5,-4,0,4,-2,-2,8,-4,-9,-16,-15,-12
-5,-5,0,4,-2,-3,8,-4,-9,-16,-15,-12
-5,-6,0,5,-2,-3,8,-4,-9,-16,-15,-12
-7,-7,0,6,-3,-4,8,-4,-9,-17,-15,-12
-7,-7,0,6,-3,-4,8,-3,-9,-17,-15,-12
-7,-6,0,6,-3,-4,8,-2,-9,-17,-15,-12
-7,-7,0,7,-4,-4,7,-2,-9,-17,-16,-12
-8,-8,0,7,-4,-4,7,-2,-10,-18,-16,-12
-8,-8,0,8,-4,-4,7,-2,-9,-18,-16,-12
-7,-7,0,7,-4,-4,7,-2,-9,-18,-16,-12
-6,-6,1,6,-3,-3,8,-1,-8,-17,-15,-11
-4,-4,1,4,-2,-2,10,0,-7,-17,-15,-11
-3,-3,1,3,-2,-2,10,0,-7,-17,-15,-11
-4,-3,1,3,-2,-2,10,0,-7,-17,-16,-11
-5,-4,1,4,-3,-2,10,0,-8,-17,-16,-12
-5,-4,1,4,-3,-2,9,1,-8,-17,-16,-12
-5,-4,1,4,-3,-2,9,1,-8,-18,-16,-12
-6,-5,1,5,-3,-3,9,0,-8,-18,-16,-12
-7,-6,1,6,-4,-3,9,0,-8,-18,-16,-12
-7,-6,0,6,-3,-3,9,0,-8,-19,-16,-13
-7,-6,0,6,-3,-3,9,0,-8,-19,-16,-13
-6,-5,0,5,-3,-3,9,0,-8,-19,-16,-13
-7,-5,1,5,-3,-3,9,0,-8,-19,-17,-13
-7,-5,1,6,-4,-3,9,0,-8,-19,-17,-13
-7,-5,2,6,-4,-3,10,0,-8,-19,-17,-13
-6,-4,2,5,-3,-2,10,1,-8,-19,-17,-13
-5,-3,1,4,-3,-2,11,1,-8,-19,-17,-13
-4,-3,1,4,-2,-2,11,2,-8,-20,-18,-14
-6,-5,1,5,-3,-3,10,1,-9,-20,-18,-14
-7,-6,1,6,-4,-3,10,1,-9,-21,-19,-15
-8,-7,1,7,-4,-3,10,1,-9,-21,-19,-15
-8,-7,1,7,-4,-3,10,2,-9,-21,-19,-15
-8,-6,1,6,-4,-3,11,2,-9,-21,-19,-15
-7,-6,2,6,-4,-3,11,3,-9,-21,-19,-15
-7,-5,2,6,-4,-3,11,3,-9,-21,-19,-15
-7,-5,2,6,-4,-3,11,4,-9,-21,-19,-15
-7,-5,2,5,-4,-2,11,4,-9,-21,-19,-15
-6,-4,2,5,-4,-1,11,5,-8,-21,-18,-14
-5,-3,2,3,-3,-1,12,6,-8,-20,-18,-13
-4,-2,2,3,-3,0,12,6,-8,-20,-18,-13
-4,-2,2,3,-3,-1,12,6,-8,-21,-18,-13
-5,-3,2,4,-3,-2,12,6,-8,-22,-19,-14
-6,-4,2,5,-3,-2,12,6,-9,-23,-20,-15
-7,-5,2,6,-4,-3,12,6,-9,-23,-20,-15
-8,-6,2,6,-4,-3,12,6,-10,-23,-21,-16
-8,-6,2,6,-4,-3,12,7,-10,-23,-21,-16
-7,-5,2,6,-4,-2,12,7,-10,-23,-21,-16
-7,-5,3,6,-5,-2,12,8,-10,-23,-21,-16
-8,-5,3,6,-5,-2,12,8,-9,-24,-21,-16
-7,-5,3,6,-5,-1,12,9,-9,-24,-21,-16
-6,-4,3,5,-5,-1,12,9,-9,-23,-21,-15
-6,-3,4,4,-4,0,12,10,-9,-23,-20,-15
-6,-3,4,4,-4,0,12,10,-9,-24,-20,-15
-6,-3,4,4,-5,0,12,10,-9,-24,-20,-15
-7,-3,5,4,-5,0,12,11,-9,-24,-20,-15
-7,-2,5,4,-5,0,12,11,-9,-24,-20,-14
-6,-2,4,4,-5,0,12,11,-9,-24,-20,-14
-6,-2,4,4,-5,0,12,11,-9,-24,-21,-15
-5,-2,4,3,-5,1,12,11,-9,-24,-21,-15
-5,-1,5,3,-5,2,13,11,-9,-24,-21,-15
-5,0,5,2,-6,2,13,12,-9,-24,-21,-15
-5,1,6,2,-6,3,13,12,-9,-24,-21,-15
-5,1,7,1,-6,4,13,12,-9,-24,-21,-15
-6,1,7,2,-6,4,12,11,-10,-25,-22,-15
-7,0,8,3,-7,4,12,11,-10,-25,-22,-16
-7,1,8,2,-7,5,12,12,-10,-25,-23,-16
-6,2,9,1,-7,5,12,12,-10,-25,-23,-15
-6,2,9,2,-8,5,12,12,-11,-26,-23,-15
-7,2,10,2,-8,5,12,12,-11,-26,-23,-15
-7,3,10,1,-8,6,12,13,-11,-26,-23,-15
-6,4,11,0,-8,7,11,13,-11,-26,-23,-15
-5,6,11,0,-7,7,11,13,-11,-26,-23,-15
-5,7,11,-1,-8,8,12,13,-11,-26,-23,-15
-6,7,13,-1,-9,9,12,13,-11,-26,-23,-15
-7,6,13,0,-10,9,12,13,-11,-27,-23,-15
-7,7,14,-1,-10,10,12,13,-12,-27,-24,-15
-6,8,14,-2,-10,10,11,14,-12,-28,-24,-15
-6,9,15,-2,-10,11,11,14,-12,-28,-24,-15
-6,10,16,-2,-10,12,11,14,-12,-28,-24,-15
-6,10,16,-2,-11,13,11,14,-13,-28,-24,-15
-6,10,17,-2,-11,13,10,13,-13,-29,-24,-15
-6,11,17,-2,-11,14,10,13,-13,-29,-24,-15
-6,11,18,-3,-11,14,9,13,-13,-29,-24,-14
-6,12,19,-3,-12,15,8,13,-13,-30,-24,-14
-8,11,19,-2,-13,15,7,12,-14,-31,-24,-14
-8,12,20,-2,-13,15,7,12,-15,-31,-25,-14
-8,13,21,-3,-14,16,7,12,-15,-31,-25,-14
-8,14,21,-3,-14,17,8,12,-15,-31,-25,-14
-7,14,21,-3,-14,17,8,11,-16,-32,-25,-14
-6,15,21,-4,-13,17,7,11,-16,-32,-24,-14
-5,16,21,-5,-13,18,7,11,-16,-32,-24,-13
-3,17,21,-7,-12,18,6,11,-16,-32,-23,-13
-2,19,21,-8,-12,19,6,11,-16,-32,-23,-12
-2,20,22,-9,-12,20,6,11,-16,-32,-22,-12
-1,21,22,-10,-11,20,6,11,-16,-32,-22,-11
0,22,22,-11,-11,21,6,11,-16,-31,-21,-11
-1,22,23,-11,-11,22,5,10,-16,-31,-21,-10
-2,21,23,-9,-12,22,5,9,-16,-31,-21,-10
-2,21,23,-9,-13,22,5,9,-16,-31,-21,-10
-1,21,23,-9,-12,22,5,8,-16,-31,-21,-9
-1,21,23,-10,-12,22,5,8,-17,-31,-20,-9
-1,21,23,-10,-12,21,4,7,-17,-31,-20,-9
-1,22,23,-10,-12,21,3,7,-17,-31,-19,-9
-1,22,23,-10,-12,21,3,7,-16,-30,-18,-8
-1,21,22,-10,-12,21,3,6,-16,-29,-17,-7
-1,21,22,-9,-11,21,3,6,-16,-29,-16,-7
-1,20,21,-9,-11,20,2,6,-16,-28,-16,-6
0,20,21,-9,-11,20,2,6,-15,-27,-15,-5
0,20,20,-10,-10,19,2,6,-15,-26,-14,-4
1,19,19,-10,-9,19,1,5,-14,-25,-14,-4
0,18,18,-10,-9,18,1,5,-14,-24,-13,-4
0,17,16,-9,-8,16,0,5,-14,-23,-13,-3
1,16,15,-9,-6,15,0,5,-13,-22,-12,-3
2,16,14,-9,-5,14,0,5,-12,-21,-11,-2
2,15,13,-9,-5,14,1,5,-11,-20,-10,-2
2,15,12,-9,-4,13,1,5,-10,-19,-9,-1
3,14,11,-9,-3,12,1,5,-10,-18,-8,-1
3,13,10,-8,-3,11,1,5,-9,-18,-8,-1
3,12,9,-8,-2,10,1,5,-9,-17,-8,-1
4,11,7,-7,-1,9,1,5,-8,-16,-7,0
5,10,6,-7,0,8,1,5,-7,-14,-6,0
5,9,5,-7,0,7,1,5,-6,-13,-5,0
5,8,4,-6,0,6,1,5,-6,-12,-4,0
4,6,3,-5,1,5,1,4,-5,-12,-4,0
4,5,2,-5,1,4,1,4,-4,-11,-3,0
4,5,2,-5,1,4,1,4,-3,-10,-3,1
5,5,1,-5,2,3,1,4,-2,-9,-2,1
4,4,0,-4,2,2,1,4,-2,-8,-2,1
4,3,0,-4,2,1,1,4,-1,-7,-1,1
4,2,0,-4,2,1,1,4,-1,-6,-1,1
4,2,-1,-4,3,0,1,4,0,-5,0,1
4,2,-1,-3,3,0,1,4,0,-4,0,1
4,1,-2,-3,3,0,1,4,1,-3,1,1
4,1,-2,-2,3,0,1,4,2,-3,2,1
3,0,-3,-1,3,-1,1,4,2,-2,2,2
1,-2,-3,0,2,-2,0,4,2,-2,2,2
0,-4,-3,1,2,-4,-1,3,2,-2,2,1
-1,-5,-3,2,1,-5,-1,3,3,-1,2,1
0,-4,-3,2,1,-4,-1,3,3,0,3,1
1,-3,-3,1,2,-4,-1,3,4,1,3,1
2,-2,-3,0,2,-3,-1,4,5,2,4,1
3,-1,-4,-1,3,-3,0,4,5,3,4,2
4,0,-4,-2,4,-2,0,4,6,4,4,2
5,0,-4,-2,4,-2,0,4,6,4,5,3
5,0,-4,-3,5,-2,1,4,7,5,5,3
5,0,-4,-3,5,-2,1,4,8,5,6,3
4,0,-4,-2,4,-2,0,4,8,5,6,3
3,-2,-4,0,4,-3,0,4,8,5,6,2
2,-3,-4,0,3,-4,0,3,8,5,5,2
3,-2,-4,-1,4,-4,0,4,8,6,6,2
5,0,-4,-2,4,-3,0,4,9,6,6,2
5,0,-4,-2,4,-3,0,4,9,7,6,2
4,-1,-4,-1,4,-4,0,4,9,7,7,2
4,-1,-5,-1,5,-4,0,5,9,7,7,2
4,-1,-5,-1,5,-4,0,5,9,7,8,3
4,-2,-5,-1,5,-4,0,5,9,8,8,3
4,-2,-5,-1,5,-4,0,5,10,8,8,4
3,-2,-5,0,4,-4,0,5,10,8,8,4
2,-3,-5,0,4,-4,0,5,10,8,7,3
2,-4,-6,1,4,-5,0,5,10,8,7,3
3,-3,-6,0,4,-5,0,5,10,8,7,3
4,-1,-6,-1,5,-5,0,6,11,9,8,4
4,-1,-6,-1,4,-4,0,6,11,10,9,4
3,-2,-6,-1,4,-4,0,6,11,10,9,4
3,-2,-6,0,5,-5,0,6,10,9,8,4
3,-2,-6,0,5,-5,1,6,10,9,8,4
3,-2,-6,0,5,-4,1,6,10,9,8,4
3,-2,-5,0,4,-4,1,6,10,9,8,3
2,-2,-5,0,4,-4,1,6,10,9,8,3
2,-3,-6,0,3,-5,0,6,10,8,7,3
1,-4,-6,1,3,-5,0,6,10,8,7,3
1,-4,-6,1,3,-5,0,6,10,8,7,3
2,-3,-6,1,4,-5,1,6,10,8,7,3
2,-3,-6,0,4,-4,1,6,10,8,7,3
1,-4,-6,1,3,-5,1,5,9,7,6,2
0,-5,-6,2,3,-6,0,4,8,7,5,1
0,-6,-6,2,3,-6,0,4,7,7,5,1
2,-4,-6,0,4,-5,0,4,8,7,5,1
4,-2,-6,-1,5,-4,1,5,8,7,5,2
4,-1,-6,-2,5,-4,2,5,8,7,5,2
4,-1,-5,-2,5,-4,2,4,8,7,5,2
3,-1,-5,-1,4,-4,2,4,8,7,5,2
3,-1,-4,-1,4,-4,2,4,8,7,5,2
3,-1,-4,-1,4,-4,2,3,7,6,5,2
2,-2,-4,-1,4,-4,2,3,6,6,4,1
2,-2,-4,0,3,-4,2,2,5,5,4,1
1,-2,-4,0,3,-3,2,2,5,5,3,1
1,-2,-4,0,2,-3,2,1,5,4,3,1
0,-2,-4,0,2,-3,2,1,4,4,3,0
0,-3,-4,1,2,-3,2,0,4,4,3,0
-1,-4,-4,2,1,-3,2,-1,3,3,2,-1
-2,-5,-3,3,0,-3,2,-1,3,3,1,-1
-2,-4,-3,3,0,-3,2,-2,2,2,0,-2
0,-2,-3,1,1,-2,3,-2,2,2,0,-2
1,-1,-3,0,2,-2,3,-2,2,1,0,-2
0,-1,-2,0,1,-2,3,-3,1,1,0,-2
0,-2,-2,1,1,-2,2,-3,1,1,0,-2
0,-2,-2,2,1,-2,2,-3,0,0,0,-2
-1,-3,-2,2,1,-2,2,-4,0,0,-1,-2
-1,-3,-2,3,0,-2,2,-4,0,0,-1,-2
-2,-3,-1,3,0,-2,2,-4,0,-1,-1,-3
-3,-4,0,4,0,-2,2,-5,-1,-2,-2,-3
-3,-4,0,4,-1,-2,1,-6,-2,-2,-3,-4
-4,-5,0,5,-1,-2,1,-7,-2,-3,-4,-4
-4,-4,0,4,-1,-2,1,-7,-2,-3,-4,-4
-3,-3,0,3,-1,-1,2,-6,-2,-3,-4,-3
-2,-2,0,2,0,-1,2,-6,-2,-3,-4,-3
-1,-1,0,1,0,0,3,-6,-2,-3,-4,-3
0,0,0,0,0,0,3,-6,-2,-3,-3,-3
0,0,0,0,0,0,3,-6,-2,-3,-3,-3
0,0,0,0,0,0,3,-6,-2,-4,-4,-3
0,0,0,0,0,0,2,-6,-2,-4,-4,-4
0,0,0,0,0,0,2,-6,-2,-4,-4,-4
0,0,1,0,0,1,3,-6,-2,-4,-4,-4
0,0,1,0,0,1,3,-6,-2,-5,-4,-4
-1,0,1,1,-1,0,3,-6,-3,-5,-4,-5
-3,-2,1,3,-2,-1,3,-7,-4,-6,-4,-5
-4,-2,1,4,-3,-1,3,-7,-4,-6,-4,-5
-4,-2,2,3,-3,0,3,-7,-4,-6,-4,-5
-3,-1,1,2,-2,0,3,-7,-4,-6,-5,-6
-2,-2,1,2,-2,0,2,-7,-4,-6,-5,-6
-3,-3,0,3,-2,-1,2,-7,-5,-7,-6,-7
-3,-3,0,3,-2,-1,2,-7,-5,-7,-6,-7
-3,-2,1,3,-2,-1,2,-7,-4,-6,-6,-7
-3,-2,1,3,-2,0,2,-7,-4,-6,-6,-6
-2,-1,1,3,-2,0,2,-7,-4,-6,-6,-6
-1,-1,1,2,-1,0,2,-7,-4,-6,-5,-6
-1,0,1,2,-1,0,2,-7,-4,-6,-5,-6
-1,0,1,2,-1,0,2,-7,-3,-5,-5,-6
-1,0,2,1,-1,0,2,-6,-3,-5,-5,-5
-1,0,2,1,-1,1,2,-6,-2,-4,-4,-5
-1,0,2,1,-1,1,1,-6,-2,-4,-4,-5
-1,0,2,1,-2,0,1,-6,-2,-4,-4,-5
-1,0,2,1,-2,0,1,-5,-1,-4,-4,-5
-1,0,2,1,-2,0,1,-5,-1,-4,-3,-5
-1,0,1,1,-1,0,1,-5,-1,-4,-3,-5
-1,0,1,1,-1,0,1,-5,-1,-3,-3,-5
-1,0,1,1,-1,0,0,-4,-1,-3,-2,-4
-1,0,0,1,0,0,0,-4,0,-2,-2,-4
-1,-1,0,1,0,0,0,-4,0,-2,-2,-4
-1,-1,0,2,0,-1,0,-4,0,-2,-2,-4
-1,-2,0,2,0,-1,0,-4,0,-2,-2,-4
-2,-3,0,3,0,-2,0,-4,0,-2,-2,-4
-1,-2,0,3,0,-2,0,-3,0,-2,-1,-4
0,-1,0,2,0,-1,0,-3,0,-1,-1,-3
0,0,0,1,0,0,1,-2,1,0,0,-3
1,0,0,0,0,0,1,-2,1,0,0,-2
1,0,0,0,1,0,1,-2,1,0,0,-2
1,1,0,0,1,0,1,-2,2,1,0,-2
0,0,0,0,1,0,0,-2,2,1,0,-2
-1,-1,0,1,0,0,0,-2,2,1,0,-2
-2,-2,0,2,0,-1,-1,-3,1,1,0,-3
-2,-2,-1,2,1,-2,-1,-3,1,1,0,-3
-2,-3,-1,3,1,-2,-1,-3,1,1,0,-3
-1,-3,-1,3,1,-2,-2,-3,1,1,0,-3
0,-1,-2,1,1,-1,-1,-2,2,1,1,-2
1,0,-2,0,2,-1,-1,-2,2,2,1,-2
1,0,-2,0,2,0,-1,-1,3,2,2,-2
2,1,-2,-1,2,0,-1,-1,3,3,2,-2
3,1,-2,-2,2,0,-1,-1,3,3,2,-1
3,1,-2,-2,3,0,-1,-1,4,3,2,-1
2,1,-2,-1,2,0,-2,-1,4,3,2,-1
1,0,-2,0,2,-1,-2,-1,3,3,2,-2
1,-1,-2,0,2,-1,-2,-2,3,3,1,-2
0,-1,-2,0,2,-1,-2,-2,3,3,1,-2
0,-2,-2,1,1,-2,-2,-2,3,3,1,-2
-1,-3,-2,2,1,-2,-2,-2,3,2,1,-2
-1,-3,-2,2,1,-2,-2,-2,3,2,1,-2
0,-3,-2,1,1,-2,-2,-2,3,2,1,-2
0,-2,-2,1,1,-2,-2,-2,3,3,1,-2
0,-2,-2,1,1,-2,-2,-2,3,3,1,-2
1,-2,-2,0,1,-2,-2,-2,4,3,2,-1
1,-1,-2,0,2,-2,-2,-2,4,3,2,-1
1,-1,-2,0,2,-2,-2,-2,4,3,2,-1
1,-1,-2,0,2,-2,-2,-1,4,3,3,-1
1,-1,-2,0,2,-2,-2,-1,5,4,3,0
1,-1,-2,0,2,-2,-2,-1,5,4,3,0
1,-2,-2,0,2,-2,-2,-1,5,4,3,-1
2,-1,-3,0,2,-2,-2,-1,5,4,2,-1
3,-1,-3,0,3,-2,-2,-1,5,4,2,-1
2,-1,-3,0,2,-2,-2,-1,5,4,2,-1
0,-2,-2,1,2,-2,-3,-1,5,4,2,-1
0,-3,-2,2,1,-2,-3,-1,5,4,2,-1
-1,-4,-2,2,1,-3,-4,-1,5,4,2,-1
-1,-4,-2,2,1,-3,-4,-1,5,4,2,-1
0,-3,-2,2,1,-3,-3,-1,5,5,2,-1
0,-3,-3,1,2,-3,-3,-1,5,5,2,-1
1,-2,-3,0,2,-3,-3,-1,5,5,3,0
2,-1,-3,0,3,-2,-3,0,5,5,3,0
2,-1,-3,-1,3,-2,-3,0,5,6,3,0
2,-1,-3,-1,3,-2,-3,0,5,6,3,0
2,-1,-3,-1,3,-2,-3,0,5,7,3,0
2,-1,-3,-1,3,-2,-3,0,6,7,3,0
2,-1,-3,0,2,-2,-3,0,6,8,3,0
1,-1,-2,0,2,-2,-3,0,6,8,3,0
0,-2,-2,0,1,-2,-3,0,6,9,3,0
0,-2,-2,1,1,-3,-3,-1,6,9,3,0
0,-3,-2,1,1,-3,-4,-1,6,9,2,0
0,-3,-2,2,1,-3,-4,-1,6,9,2,-1
0,-3,-2,1,1,-3,-3,-1,6,9,2,-1
1,-2,-2,0,2,-2,-3,-1,6,9,3,0
2,-1,-2,-1,2,-2,-3,0,6,10,3,0
2,0,-2,-2,3,-2,-3,0,7,10,4,1
2,-1,-2,-1,3,-2,-3,0,7,10,4,1
2,-1,-2,-1,3,-2,-3,0,7,10,4,1
3,0,-2,-1,3,-1,-3,0,7,11,4,1
3,0,-2,-2,3,-1,-2,0,7,11,5,1
4,1,-2,-2,3,-1,-2,0,7,12,5,1
4,0,-3,-2,4,-2,-2,0,7,12,5,1
3,-1,-3,-1,4,-3,-3,0,7,11,4,1
2,-2,-4,0,3,-3,-3,0,7,11,4,1
2,-2,-4,0,3,-4,-3,0,8,12,5,1
2,-2,-4,0,4,-4,-3,0,8,12,5,1
3,-2,-4,0,4,-4,-3,1,8,12,5,1
3,-2,-4,0,4,-4,-2,1,9,13,5,2
3,-2,-4,0,4,-4,-2,2,9,13,5,2
3,-2,-5,-1,4,-4,-1,2,9,13,5,2
4,-2,-5,-1,5,-4,-2,2,9,13,6,2
4,-2,-6,-2,5,-4,-2,3,10,14,6,2
4,-2,-6,-1,5,-4,-3,3,10,14,6,2
3,-3,-5,0,4,-4,-3,4,10,14,6,2
3,-2,-5,-1,5,-4,-3,4,10,15,7,3
5,-1,-6,-2,6,-3,-3,5,11,15,7,3
5,-1,-6,-2,6,-3,-2,5,12,15,7,4
4,-1,-6,-2,6,-3,-2,5,12,16,7,4
4,-1,-6,-2,6,-3,-2,5,12,16,8,4
5,-1,-6,-2,6,-3,-3,5,12,16,8,4
5,-1,-6,-2,6,-4,-3,5,12,15,8,4
5,-2,-6,-1,6,-4,-3,5,11,15,8,4
5,-2,-6,-1,6,-4,-3,4,11,14,7,4
5,-2,-7,-1,6,-4,-4,3,10,14,7,4
6,-2,-8,-2,7,-5,-5,2,9,13,6,4
6,-2,-8,-2,7,-5,-6,2,9,13,7,4
6,-1,-8,-2,7,-5,-6,1,9,14,7,4
6,-1,-7,-2,7,-5,-6,1,9,14,7,5
6,0,-7,-2,7,-4,-6,1,9,14,8,5
6,0,-7,-3,7,-4,-6,1,9,14,8,5
6,-1,-7,-3,7,-4,-6,1,9,14,8,5
6,-1,-7,-2,7,-4,-6,1,9,14,8,5
6,-1,-7,-2,7,-4,-6,1,9,14,8,5
6,-2,-7,-2,7,-4,-7,1,9,14,8,5
6,-2,-7,-2,7,-4,-7,1,9,14,8,5
6,-2,-7,-2,7,-4,-7,1,9,14,8,5
5,-2,-7,-2,6,-4,-6,1,9,14,8,5
5,-2,-7,-1,6,-4,-6,0,9,14,7,5
4,-3,-7,0,6,-5,-6,0,8,13,7,4
4,-3,-7,0,6,-5,-6,-1,8,13,6,4
4,-3,-7,0,6,-5,-6,-1,7,12,6,4
4,-2,-7,-1,6,-5,-6,-1,7,12,6,4
5,-1,-7,-2,6,-4,-6,-1,6,13,6,4
6,-1,-7,-2,7,-4,-6,-1,6,13,5,4
6,-1,-7,-3,7,-4,-6,-1,6,13,5,4
7,0,-6,-4,7,-4,-6,-1,7,13,6,5
8,1,-6,-5,7,-3,-5,-1,8,13,6,5
8,1,-6,-5,7,-2,-5,-1,8,13,6,5
7,1,-6,-4,7,-2,-5,-1,8,13,6,4
7,1,-6,-4,6,-2,-5,-1,7,13,5,4
6,1,-5,-3,6,-2,-5,-1,6,13,5,3
4,0,-4,-2,5,-2,-5,-1,6,12,4,2
3,0,-4,-1,4,-2,-5,-2,6,12,3,1
1,-1,-3,0,3,-2,-5,-2,5,11,2,0
0,-2,-3,1,2,-3,-5,-3,5,10,1,0
0,-3,-3,1,2,-3,-5,-3,5,10,1,0
-1,-3,-3,2,1,-3,-5,-3,5,10,1,0
-1,-3,-3,2,1,-3,-5,-3,4,9,1,0
-1,-3,-3,2,1,-3,-5,-4,4,9,1,0
-1,-3,-3,2,1,-3,-5,-4,3,9,1,0
-1,-3,-3,3,1,-3,-5,-4,3,9,1,0
-2,-3,-3,3,1,-3,-5,-4,4,9,1,0
-2,-3,-3,3,1,-3,-4,-3,4,9,1,0
-1,-3,-2,2,1,-3,-4,-3,5,9,2,0
-1,-2,-2,2,1,-2,-3,-3,5,9,2,0
-1,-2,-2,2,1,-2,-3,-3,5,9,2,0
-1,-2,-2,2,1,-2,-3,-3,5,9,2,0
0,-2,-2,1,1,-2,-4,-2,5,9,2,0
0,-2,-3,1,2,-2,-4,-2,5,9,2,0
0,-1,-3,0,2,-2,-4,-1,6,10,2,0
1,-1,-3,0,2,-2,-3,-1,6,10,2,0
1,-1,-3,0,2,-2,-3,-1,6,10,2,0
0,-1,-3,0,2,-2,-3,-1,6,10,2,0
0,-1,-3,0,2,-2,-3,-1,6,10,2,0
0,-2,-3,1,2,-2,-3,-1,5,10,2,0
-1,-3,-3,2,1,-3,-3,-1,5,10,2,0
-1,-4,-3,3,1,-3,-3,-1,5,9,1,0
-2,-5,-3,3,1,-4,-3,-1,5,9,1,0
-1,-5,-4,3,1,-4,-3,-1,5,9,1,0
0,-4,-4,2,2,-4,-2,-1,6,10,1,1
0,-3,-4,1,2,-4,-2,-1,6,10,2,1
0,-4,-4,1,3,-4,-2,-1,6,10,2,1
0,-4,-3,2,2,-3,-2,-1,6,11,2,1
0,-3,-3,2,2,-3,-2,0,6,11,3,1
0,-3,-3,2,2,-3,-1,0,6,11,3,1
0,-4,-4,2,2,-3,-1,0,6,11,2,1
-1,-5,-4,3,1,-4,-1,-1,5,10,2,0
-2,-6,-4,4,1,-5,-1,-1,5,10,1,0
-1,-6,-4,4,1,-5,-1,-1,5,10,1,0
0,-5,-4,3,2,-5,-1,-1,5,10,1,0
0,-5,-4,2,2,-5,-1,-1,5,10,1,0
0,-5,-5,2,3,-5,-1,-1,5,10,1,0
0,-5,-5,2,3,-5,-1,-1,5,10,2,1
1,-4,-5,2,4,-5,-1,0,6,10,3,1
2,-4,-7,1,5,-6,0,1,7,11,4,2
3,-5,-8,1,6,-7,0,3,8,12,5,2
3,-6,-10,2,7,-8,0,6,10,13,5,3
2,-8,-11,2,7,-9,2,9,12,14,6,3
3,-7,-11,1,7,-9,5,15,16,16,7,3
5,-5,-10,-1,8,-8,9,24,21,19,9,4
6,-2,-8,-2,8,-5,14,35,29,24,13,6
7,1,-6,-4,7,-3,18,47,38,30,18,9
10,5,-5,-8,7,0,21,60,49,40,25,15
15,9,-5,-12,10,1,21,71,62,52,36,22
19,13,-6,-16,12,3,18,76,72,64,47,32
24,15,-7,-20,16,3,11,73,79,75,58,41
28,18,-9,-23,19,4,4,68,85,86,70,50
33,21,-11,-27,22,5,-3,60,90,97,82,60
36,23,-12,-30,23,6,-11,50,95,108,94,70
39,27,-11,-33,24,8,-19,38,100,121,108,81
41,35,-6,-38,23,14,-28,24,105,135,123,95
40,44,4,-42,18,24,-38,9,109,148,137,108
38,51,14,-44,12,32,-48,-6,113,161,151,121
36,56,20,-46,8,38,-57,-23,114,170,162,131
32,55,23,-44,5,39,-63,-40,108,172,165,135
28,50,23,-39,3,36,-68,-57,97,165,160,132
23,41,19,-32,2,29,-75,-71,81,151,146,123
17,30,13,-24,2,21,-83,-84,63,129,125,107
11,20,8,-15,1,14,-89,-94,42,101,98,86
5,11,5,-8,0,8,-90,-102,18,69,67,63
0,3,2,-2,0,3,-88,-108,-6,35,35,39
-4,-3,0,3,-1,-1,-83,-112,-30,4,6,18
-7,-9,-2,8,-1,-6,-77,-114,-51,-21,-15,1
-8,-13,-3,10,-2,-8,-69,-111,-65,-40,-30,-10
-9,-13,-3,10,-3,-8,-61,-105,-73,-51,-39,-17
-8,-11,-3,9,-3,-7,-52,-95,-72,-54,-43,-20
-7,-8,-2,8,-3,-5,-43,-82,-67,-51,-42,-21
-6,-6,-1,6,-3,-3,-35,-69,-59,-46,-39,-20
-5,-4,0,5,-3,-1,-28,-59,-51,-41,-36,-19
-5,-2,1,4,-3,0,-21,-50,-44,-36,-33,-17
-4,0,3,3,-3,1,-16,-42,-38,-32,-30,-15
-3,0,3,3,-3,1,-11,-36,-33,-28,-27,-14
-4,-1,3,3,-3,1,-7,-30,-28,-24,-24,-13
-4,-1,3,3,-4,1,-4,-25,-24,-21,-22,-13
-5,-2,3,4,-4,0,-2,-21,-21,-19,-21,-12
-6,-4,2,5,-4,-1,0,-18,-18,-18,-20,-12
-8,-6,1,7,-5,-2,0,-15,-17,-17,-19,-12
-9,-7,1,8,-5,-3,1,-13,-16,-16,-19,-12
-8,-7,1,8,-4,-3,3,-12,-15,-15,-18,-12
-6,-6,0,6,-3,-3,4,-11,-14,-13,-17,-11
-5,-5,0,5,-2,-2,5,-10,-12,-12,-16,-11
-4,-5,0,4,-2,-2,6,-9,-11,-11,-15,-10
-4,-5,-1,5,-2,-3,6,-8,-11,-11,-15,-10
-4,-5,-1,4,-1,-3,6,-7,-10,-11,-15,-10
-3,-5,-2,4,-1,-3,6,-6,-10,-11,-15,-10
-3,-5,-2,4,-1,-3,7,-6,-9,-10,-14,-10
-4,-5,-2,5,-1,-4,8,-5,-9,-10,-14,-10
-5,-7,-2,6,-1,-5,8,-5,-9,-10,-15,-11
-5,-8,-2,6,-1,-5,8,-5,-9,-10,-15,-11
-4,-7,-2,5,-1,-5,8,-5,-8,-9,-15,-11
-3,-7,-2,5,-1,-5,9,-5,-8,-9,-14,-11
-4,-7,-2,5,-1,-5,9,-5,-8,-9,-14,-10
-5,-7,-2,6,-1,-5,9,-5,-8,-9,-13,-10
-5,-8,-2,7,-1,-6,9,-5,-8,-9,-13,-10
-6,-9,-2,7,-1,-6,9,-4,-8,-8,-13,-10
-6,-9,-2,8,-1,-6,9,-4,-8,-8,-14,-10
-7,-9,-2,8,-2,-6,9,-4,-8,-9,-14,-10
-7,-9,-3,8,-2,-6,9,-3,-8,-9,-14,-10
-6,-9,-3,7,-2,-6,9,-3,-8,-9,-14,-10
-7,-10,-3,8,-2,-6,9,-3,-8,-10,-15,-10
-8,-11,-3,9,-3,-7,9,-3,-9,-10,-15,-10
-7,-10,-3,8,-2,-6,9,-2,-9,-10,-15,-10
-5,-7,-3,7,-2,-5,10,-1,-8,-10,-14,-9
-4,-5,-2,5,-1,-4,11,0,-7,-9,-14,-9
-2,-4,-3,3,0,-3,12,0,-6,-9,-13,-9
-2,-5,-3,3,0,-4,11,0,-6,-9,-14,-9
-2,-6,-4,4,0,-5,11,0,-6,-10,-14,-10
-2,-6,-4,3,0,-5,11,0,-6,-10,-14,-10
-2,-5,-4,3,0,-5,11,0,-7,-9,-14,-10
-2,-5,-4,3,0,-5,11,0,-7,-9,-14,-10
-2,-5,-4,3,0,-5,11,0,-7,-9,-15,-10
-2,-6,-4,4,0,-5,11,0,-8,-10,-15,-10
-3,-6,-3,5,0,-5,11,0,-8,-10,-16,-11
-4,-7,-3,6,-1,-5,11,0,-8,-11,-16,-11
-5,-8,-2,7,-1,-5,11,0,-8,-11,-17,-11
-6,-8,-2,7,-1,-6,11,0,-8,-11,-17,-11
-6,-8,-2,7,-2,-6,11,0,-9,-11,-17,-11
-7,-9,-2,8,-2,-6,10,0,-9,-12,-17,-11
-7,-9,-2,9,-3,-6,10,0,-9,-12,-18,-12
-7,-9,-2,8,-3,-6,10,0,-9,-12,-18,-12
-6,-8,-2,8,-2,-5,10,0,-9,-12,-18,-12
-6,-8,-2,7,-2,-5,10,0,-9,-12,-18,-12
-6,-7,-2,6,-2,-4,10,0,-9,-12,-18,-12
-4,-6,-2,4,-1,-4,11,0,-9,-12,-17,-11
-3,-5,-2,4,-1,-3,11,1,-9,-12,-17,-11
-4,-6,-2,5,-2,-4,11,2,-9,-13,-18,-11
-6,-8,-2,7,-2,-5,11,2,-10,-13,-18,-12
-8,-9,-2,8,-3,-5,11,1,-10,-14,-19,-13
-9,-10,-2,9,-4,-6,11,1,-11,-14,-19,-13
-9,-10,-2,9,-3,-6,11,1,-11,-14,-20,-13
-7,-9,-2,8,-3,-5,11,2,-10,-14,-20,-13
-6,-7,-1,6,-3,-5,11,3,-10,-14,-20,-13
-5,-6,-1,5,-3,-4,11,3,-9,-14,-20,-12
-4,-5,-1,5,-2,-3,11,4,-9,-15,-20,-12
-4,-5,-1,5,-2,-3,11,4,-9,-15,-20,-12
-4,-5,0,5,-2,-3,12,4,-9,-15,-20,-12
-4,-4,0,4,-2,-2,13,5,-9,-15,-20,-12
-3,-3,0,3,-2,-1,13,5,-9,-15,-20,-12
-4,-3,0,4,-2,-1,13,6,-9,-15,-20,-12
-5,-4,1,5,-3,-1,12,6,-9,-16,-20,-13
-5,-4,1,5,-4,-1,12,6,-10,-16,-21,-13
-6,-5,1,6,-4,-1,11,6,-10,-16,-21,-14
-6,-5,1,6,-4,-1,11,6,-10,-16,-22,-14
-5,-5,1,5,-4,-1,11,6,-10,-16,-22,-14
-6,-5,2,5,-4,-1,11,6,-10,-16,-22,-14
-7,-5,2,6,-4,-1,11,6,-10,-17,-22,-14
-7,-5,2,6,-5,-1,11,6,-11,-17,-23,-14
-6,-3,2,4,-5,-1,11,6,-11,-18,-23,-14
-5,-2,3,3,-4,0,11,6,-11,-18,-23,-14
-5,-2,3,3,-4,0,11,7,-11,-18,-23,-14
-6,-2,3,4,-5,0,11,7,-11,-18,-23,-14
-8,-4,4,6,-6,0,11,7,-11,-18,-24,-15
-9,-4,5,7,-7,0,11,7,-11,-19,-24,-15
-9,-3,5,6,-7,1,11,8,-11,-19,-24,-15
-7,-2,6,5,-7,2,11,8,-10,-19,-24,-15
-6,0,6,3,-6,2,11,9,-10,-19,-24,-15
-5,0,6,3,-6,3,10,9,-11,-19,-24,-15
-5,1,7,2,-6,3,10,9,-11,-19,-24,-15
-4,2,7,1,-6,4,11,9,-11,-19,-24,-15
-3,3,7,0,-6,6,11,9,-12,-19,-24,-15
-2,4,8,0,-6,7,12,9,-12,-19,-24,-15
-3,5,9,0,-6,7,12,9,-12,-19,-24,-15
-3,5,10,0,-7,8,12,9,-11,-19,-24,-15
-3,6,10,-1,-7,8,12,10,-11,-19,-24,-14
-3,7,11,-2,-7,9,12,10,-11,-19,-24,-14
-3,7,11,-2,-8,9,11,10,-11,-20,-24,-14
-3,8,12,-2,-8,10,10,10,-11,-20,-24,-14
-4,8,13,-1,-9,10,10,10,-12,-21,-25,-14
-5,8,13,-1,-9,11,9,10,-12,-21,-25,-14
-6,8,14,0,-10,11,9,10,-13,-22,-26,-14
-7,8,14,0,-10,11,8,10,-13,-22,-26,-14
-7,8,15,0,-10,11,8,10,-13,-23,-26,-14
-7,9,16,0,-11,12,8,10,-13,-23,-26,-14
-7,10,17,-1,-11,13,8,10,-13,-23,-26,-14
-6,11,17,-2,-11,14,8,10,-13,-23,-26,-14
-4,13,17,-4,-11,14,7,10,-13,-23,-26,-13
-3,14,18,-5,-11,15,7,10,-13,-23,-25,-13
-3,14,18,-6,-11,16,7,10,-13,-23,-25,-12
-2,15,18,-6,-10,16,7,10,-13,-24,-25,-12
-2,15,18,-6,-10,16,6,9,-13,-24,-25,-13
-3,15,18,-6,-10,16,6,9,-14,-24,-25,-13
-3,15,19,-7,-11,17,5,9,-14,-25,-25,-13
-3,16,19,-7,-11,18,5,9,-15,-25,-25,-13
-4,16,20,-7,-12,18,4,8,-15,-25,-25,-13
-5,15,21,-5,-13,18,3,7,-16,-26,-25,-13
-5,16,21,-5,-13,18,2,7,-16,-26,-25,-12
-3,17,21,-7,-12,19,1,7,-16,-25,-24,-11
-2,18,21,-8,-12,20,1,7,-16,-25,-23,-10
-1,19,22,-8,-12,21,1,7,-16,-25,-22,-10
-1,20,22,-9,-12,21,1,7,-16,-24,-22,-9
0,20,21,-10,-11,21,0,6,-16,-24,-22,-9
0,21,21,-11,-11,21,0,6,-16,-24,-22,-9
0,21,21,-11,-11,21,0,5,-16,-24,-21,-8
1,21,21,-11,-10,21,0,5,-16,-24,-21,-8
2,22,20,-12,-9,21,-1,5,-16,-23,-19,-7
3,23,20,-13,-8,22,-1,5,-15,-22,-18,-6
3,22,20,-12,-9,21,-1,4,-15,-22,-18,-6
1,20,20,-11,-9,20,-2,4,-15,-22,-18,-6
0,18,19,-9,-10,19,-2,3,-15,-22,-18,-6
0,17,19,-8,-9,18,-2,3,-15,-22,-18,-6
1,17,18,-9,-8,17,-2,3,-14,-21,-17,-6
2,17,16,-10,-7,17,-2,4,-13,-20,-16,-5
2,17,15,-9,-7,16,-2,4,-12,-19,-15,-4
2,15,14,-8,-6,14,-3,4,-12,-18,-15,-4
2,14,13,-7,-6,13,-3,4,-11,-17,-14,-4
2,13,12,-7,-5,12,-3,4,-11,-17,-13,-3
1,11,11,-6,-5,11,-3,3,-10,-16,-12,-3
0,9,10,-5,-5,9,-3,3,-10,-15,-12,-3
0,7,9,-3,-4,8,-3,2,-9,-14,-11,-3
0,7,8,-4,-3,7,-3,2,-8,-13,-10,-2
2,8,6,-5,-2,7,-2,3,-7,-11,-9,-1
5,9,5,-7,0,7,-2,3,-5,-9,-7,0
6,10,4,-8,0,7,-1,4,-4,-7,-6,1
6,9,4,-8,1,6,-1,4,-3,-6,-5,1
5,7,3,-6,1,5,-2,4,-2,-6,-5,1
3,5,2,-4,1,3,-3,3,-2,-6,-5,1
2,3,2,-3,1,2,-3,3,-2,-6,-5,0
3,4,1,-3,1,2,-2,3,-1,-4,-4,0
5,5,1,-5,2,3,-2,4,0,-3,-3,1
6,5,0,-5,3,2,-2,4,1,-2,-3,1
5,3,-1,-4,3,1,-3,3,1,-1,-3,0
4,2,-1,-3,2,0,-3,3,1,-1,-3,0
3,1,-1,-2,2,0,-3,3,2,0,-2,0
2,0,-1,-1,2,-1,-3,3,3,1,-2,0
2,-1,-2,0,2,-1,-3,3,3,1,-2,0
1,-2,-2,0,2,-2,-3,3,4,2,-2,0
1,-3,-2,1,2,-3,-4,3,4,2,-2,0
0,-4,-3,2,1,-4,-4,2,4,3,-2,0
0,-5,-3,3,1,-5,-5,2,4,3,-1,0
2,-3,-4,0,2,-4,-4,2,6,5,0,1
4,-1,-4,-1,4,-3,-4,2,7,6,0,1
4,-1,-5,-1,4,-3,-4,2,7,6,1,1
4,-2,-5,-1,4,-3,-4,2,7,7,1,1
4,-1,-5,-1,4,-3,-3,3,8,8,1,1
3,-1,-5,-1,4,-3,-3,3,8,9,2,1
3,-1,-5,-1,4,-3,-3,3,9,9,2,1
3,-2,-5,-1,4,-4,-4,3,9,9,2,1
2,-3,-5,0,3,-4,-4,3,9,9,2,1
1,-4,-5,1,3,-5,-5,3,9,9,2,1
1,-4,-5,1,3,-5,-5,3,9,10,2,1
3,-3,-5,0,3,-4,-4,3,10,11,3,2
4,-2,-5,-1,4,-3,-4,4,11,11,3,2
4,-2,-5,0,5,-4,-4,4,11,12,4,2
4,-2,-5,0,5,-4,-4,4,11,12,4,2
4,-3,-6,0,5,-5,-4,4,11,12,4,2
4,-3,-6,0,6,-5,-4,4,11,12,4,3
4,-3,-7,0,5,-5,-4,4,11,12,4,3
3,-4,-7,0,4,-5,-4,4,11,12,4,3
2,-5,-7,1,4,-6,-4,4,11,12,4,2
2,-5,-7,2,4,-6,-4,4,11,12,4,2
3,-5,-7,1,4,-6,-4,4,11,13,4,2
4,-3,-7,0,5,-5,-3,5,12,14,5,3
4,-2,-6,0,5,-4,-3,5,12,14,5,3
4,-2,-6,0,5,-4,-3,5,12,13,5,2
3,-3,-5,0,4,-4,-4,5,12,13,4,2
2,-3,-5,1,4,-4,-4,5,12,12,4,1
1,-4,-5,1,3,-4,-5,5,12,12,4,1
1,-3,-5,1,3,-4,-5,5,12,12,4,1
1,-3,-5,1,3,-5,-4,5,12,12,3,1
1,-4,-5,1,3,-5,-4,5,11,12,3,1
1,-5,-5,2,3,-6,-5,4,11,12,3,0
1,-4,-5,1,3,-5,-5,4,10,12,3,0
2,-4,-5,1,3,-5,-5,4,10,12,4,1
2,-4,-6,1,3,-4,-5,4,10,12,4,1
2,-3,-6,0,3,-4,-5,3,10,12,4,1
3,-2,-6,0,4,-3,-4,3,10,12,4,1
3,-2,-6,0,4,-3,-4,3,10,12,3,1
2,-3,-6,0,3,-4,-4,2,9,11,2,0
1,-4,-5,1,2,-4,-4,1,8,11,2,0
0,-4,-5,2,2,-4,-4,1,7,11,2,0
0,-4,-4,2,1,-4,-4,1,7,10,2,0
0,-4,-4,2,1,-4,-4,1,7,10,2,0
0,-3,-4,1,1,-4,-3,1,7,10,2,0
1,-3,-4,1,2,-4,-3,0,7,10,2,0
2,-2,-4,0,2,-3,-2,0,7,10,2,0
2,-1,-3,0,2,-3,-2,0,7,10,2,0
3,-1,-3,-1,2,-2,-2,0,7,10,2,1
2,-1,-3,0,2,-2,-2,0,7,9,2,1
1,-2,-3,1,1,-2,-2,-1,5,8,1,0
0,-4,-3,2,1,-3,-2,-2,4,7,0,0
0,-4,-3,2,1,-4,-3,-3,3,6,-1,-1
-1,-4,-3,3,0,-4,-4,-3,2,6,-1,-1
-1,-4,-2,3,0,-4,-4,-4,2,5,-1,-2
-2,-4,-2,3,0,-4,-4,-4,1,5,-2,-2
-3,-4,-1,4,-1,-4,-5,-5,1,4,-3,-3
-2,-4,-1,3,-1,-3,-5,-5,0,4,-3,-3
-1,-2,-1,2,0,-2,-4,-5,0,4,-3,-3
0,0,0,0,0,0,-3,-4,0,4,-3,-2
1,1,0,0,0,0,-2,-4,0,4,-3,-2
0,0,0,0,0,0,-2,-5,0,3,-4,-3
-1,-1,0,1,0,-1,-2,-6,-1,2,-5,-4
-2,-2,0,2,-1,-1,-3,-6,-1,2,-5,-4
-2,-2,0,2,-2,-1,-3,-6,-2,1,-5,-4
-3,-2,0,2,-2,-1,-3,-7,-2,1,-6,-4
-3,-2,0,2,-2,-1,-3,-7,-3,0,-6,-5
-2,-1,1,2,-2,-1,-3,-8,-3,0,-7,-5
-2,-1,1,2,-2,0,-2,-8,-4,0,-7,-5
-3,-2,2,2,-3,0,-2,-8,-4,-1,-8,-5
-4,-2,3,3,-4,0,-2,-8,-5,-1,-8,-6
-3,-1,3,2,-3,1,-3,-8,-4,-1,-8,-5
-2,0,3,1,-3,1,-3,-8,-4,-1,-8,-5
-3,0,3,2,-3,1,-3,-9,-5,-1,-8,-6
-3,0,2,2,-3,0,-3,-9,-5,-2,-8,-6
-2,0,2,2,-3,0,-3,-9,-5,-2,-8,-6
-1,0,2,0,-2,1,-2,-9,-4,-1,-7,-6
0,1,2,0,-2,2,-2,-8,-4,-1,-7,-5
-1,0,2,0,-2,1,-2,-8,-4,-2,-8,-5
-2,0,2,1,-3,1,-3,-9,-5,-2,-8,-6
-2,0,2,2,-3,1,-3,-9,-5,-2,-9,-6
-2,0,2,2,-2,0,-3,-9,-5,-2,-9,-6
-2,0,2,2,-2,1,-2,-9,-5,-2,-9,-6
-2,0,3,1,-3,1,-2,-8,-4,-2,-8,-5
-2,0,3,1,-3,2,-2,-8,-4,-2,-8,-5
-2,0,3,1,-3,1,-2,-8,-5,-2,-9,-6
-2,0,3,1,-3,1,-3,-8,-5,-2,-9,-6
-1,1,3,0,-3,2,-2,-8,-4,-2,-9,-6
-1,1,3,0,-3,2,-2,-7,-4,-1,-8,-5
-1,1,3,0,-3,2,-2,-7,-4,-1,-8,-5
-1,1,3,0,-3,2,-2,-7,-4,-1,-7,-5
-2,0,3,1,-3,2,-2,-7,-4,-1,-7,-6
-4,0,3,2,-3,1,-3,-7,-4,-1,-8,-6
-5,-2,3,3,-4,1,-3,-7,-4,-1,-8,-7
-5,-2,3,3,-4,0,-3,-7,-4,-1,-8,-7
-3,-1,3,2,-4,1,-2,-7,-3,-1,-8,-6
-1,0,3,1,-3,1,-2,-6,-3,0,-7,-5
0,1,2,0,-2,1,-2,-6,-3,0,-6,-5
0,1,2,0,-2,1,-2,-6,-2,0,-6,-4
0,2,2,-1,-1,1,-2,-6,-2,0,-6,-4
0,2,2,-1,-1,2,-2,-5,-1,1,-5,-3
0,1,2,-1,-1,2,-2,-5,-1,1,-5,-3
0,1,2,-1,-1,2,-2,-5,-1,1,-5,-3
0,0,1,0,-1,2,-2,-5,-1,1,-5,-3
0,0,1,0,-1,1,-2,-6,-1,1,-5,-3
0,0,1,0,-1,1,-3,-6,-1,1,-5,-3
-1,0,1,0,-2,1,-3,-6,-1,1,-5,-3
-1,-1,1,1,-2,0,-3,-6,-1,1,-5,-3
-2,-1,1,1,-2,0,-3,-6,-1,1,-5,-3
-2,-1,1,2,-2,0,-3,-5,-1,2,-5,-3
-2,-1,1,2,-2,0,-3,-5,0,2,-5,-3
-2,-1,1,2,-2,0,-3,-5,0,3,-4,-3
-2,-1,1,1,-2,0,-3,-5,0,3,-4,-3
-1,-1,0,1,-1,0,-3,-5,0,3,-4,-3
-1,-1,0,1,-1,0,-3,-5,0,3,-4,-3
-1,-1,0,1,-1,0,-4,-5,0,3,-4,-3
-1,-1,0,2,-1,-1,-4,-5,0,3,-4,-3
-1,-1,0,2,-1,-1,-4,-5,0,3,-4,-3
-1,-1,0,2,-1,-1,-4,-5,0,3,-4,-3
0,-1,0,1,0,-1,-4,-4,0,3,-3,-3
0,0,0,0,0,0,-4,-4,1,3,-3,-2
0,0,0,0,0,0,-3,-4,1,3,-2,-2
0,0,0,1,0,-1,-3,-4,1,3,-2,-3
0,0,0,1,0,-1,-2,-4,1,3,-2,-3
0,0,0,0,0,-1,-2,-4,2,4,-2,-2
0,-1,0,0,0,-1,-3,-4,2,4,-2,-2
-1,-2,0,1,-1,-1,-3,-4,1,4,-2,-3
-1,-2,0,2,-1,-2,-3,-5,1,4,-2,-2
-1,-2,0,1,0,-2,-3,-5,1,5,-1,-2
0,-1,0,1,0,-2,-3,-5,1,5,-1,-2
0,-1,0,1,0,-2,-4,-5,1,5,0,-1
0,0,0,0,0,-1,-3,-4,2,5,0,-1
1,1,0,-1,0,0,-3,-3,3,6,1,0
2,1,0,-2,0,0,-2,-3,4,7,1,0
2,1,0,-2,0,0,-2,-3,4,7,1,0
2,1,-1,-1,1,0,-2,-3,4,7,1,0
2,0,-1,-1,1,0,-2,-3,4,7,1,0
1,0,-1,0,1,-1,-2,-3,4,7,0,0
0,-1,-1,1,0,-1,-3,-3,3,6,0,0
0,-1,-1,1,0,-1,-3,-3,3,6,0,-1
0,0,-1,0,0,-1,-3,-3,4,6,0,-1
1,0,-1,0,0,0,-4,-3,4,6,0,-1
1,0,-1,0,0,0,-4,-3,4,6,0,-1
0,0,-1,0,0,-1,-4,-3,4,6,0,-1
0,-1,-1,1,0,-1,-4,-3,4,6,0,-1
0,-2,-1,1,0,-1,-4,-3,4,6,0,-1
-1,-2,-1,1,0,-1,-4,-3,3,6,0,-1
-1,-2,-1,1,0,-2,-4,-4,3,5,0,-1
-1,-2,-2,1,0,-2,-4,-4,2,5,-1,-2
-1,-2,-2,1,0,-2,-3,-4,2,5,-1,-2
-1,-2,-1,1,0,-2,-3,-4,3,5,-1,-1
0,-1,-1,1,0,-2,-3,-4,3,6,0,-1
0,-1,-1,0,0,-2,-3,-3,4,6,0,-1
0,-1,-1,0,0,-2,-3,-3,4,7,0,-1
0,-2,-1,1,0,-2,-3,-3,4,7,0,-1
-1,-2,-1,1,0,-2,-4,-3,4,7,0,-1
-2,-3,-2,3,0,-3,-4,-3,3,6,0,-1
-3,-4,-2,4,0,-3,-5,-3,3,6,0,-1
-2,-4,-2,3,0,-3,-4,-3,3,6,0,0
0,-2,-2,1,1,-2,-3,-3,3,7,1,1
2,-1,-2,0,1,-1,-3,-3,4,8,2,1
2,0,-2,0,2,-1,-3,-3,4,8,2,1
3,0,-1,-1,2,-1,-3,-2,4,8,3,1
3,1,-1,-2,2,0,-2,-2,5,9,3,1
2,0,-1,-1,2,0,-2,-2,5,9,3,1
1,0,-2,0,2,-1,-2,-2,5,8,2,1
1,-1,-2,0,2,-1,-2,-2,5,8,2,1
1,-2,-2,1,2,-2,-3,-2,5,8,2,1
1,-3,-2,1,1,-2,-3,-2,4,8,2,1
0,-3,-2,1,1,-3,-4,-2,4,8,2,1
0,-4,-2,1,1,-3,-4,-2,4,8,2,1
0,-3,-3,1,2,-3,-3,-2,4,8,2,1
1,-3,-3,1,2,-3,-3,-2,4,8,2,1
2,-2,-4,0,3,-3,-3,-2,4,8,3,1
3,-1,-4,0,3,-2,-2,-1,5,9,3,1
4,0,-4,-1,3,-2,-2,0,6,10,4,2
3,-1,-4,-1,3,-2,-1,0,6,10,4,3
3,-1,-4,-1,3,-3,-2,1,7,10,5,3
2,-2,-4,0,3,-3,-2,1,7,10,5,3
3,-1,-4,-1,4,-3,-2,1,7,10,5,3
4,0,-4,-1,4,-2,-2,1,8,10,5,3
4,0,-4,-2,4,-2,-1,1,8,10,5,3
4,0,-4,-2,4,-2,-1,1,8,10,5,3
4,0,-4,-2,3,-2,-2,2,8,11,5,3
3,0,-4,-1,3,-2,-2,2,8,11,6,3
2,-1,-4,0,2,-3,-3,1,8,11,6,3
2,-2,-5,0,3,-3,-3,1,7,11,6,3
3,-2,-5,0,4,-4,-4,1,7,11,7,4
4,-2,-6,-1,5,-4,-4,1,7,11,7,4
6,0,-6,-2,6,-4,-4,1,7,11,7,4
6,0,-6,-3,6,-4,-5,0,7,11,7,4
5,-1,-6,-2,6,-4,-5,0,6,10,7,4
5,-1,-6,-2,5,-4,-6,0,6,10,7,4
5,0,-6,-3,5,-3,-6,-1,6,10,7,4
5,0,-6,-3,5,-3,-6,-1,6,10,6,4
4,-1,-5,-2,4,-3,-7,-2,5,9,6,4
5,-1,-5,-2,4,-3,-7,-2,5,9,6,4
6,-1,-5,-2,5,-3,-7,-2,5,10,6,4
6,-1,-5,-2,5,-3,-7,-2,5,10,6,4
6,-1,-6,-2,5,-4,-7,-2,5,10,6,4
6,-1,-6,-2,5,-4,-6,-2,5,10,6,4
6,-1,-6,-2,5,-4,-6,-2,5,10,6,4
5,-2,-6,-2,5,-3,-5,-2,5,10,6,4
4,-2,-5,-1,4,-3,-5,-2,5,9,6,3
4,-2,-5,-1,4,-3,-5,-2,5,9,5,3
4,-2,-5,-1,5,-3,-5,-2,4,8,5,3
4,-2,-5,-1,5,-3,-6,-2,4,8,4,2
4,-2,-5,-1,4,-3,-6,-3,3,7,4,2
3,-2,-5,-1,4,-3,-6,-4,3,7,3,2
4,-2,-6,-1,4,-3,-6,-4,3,7,3,2
5,-1,-6,-2,5,-3,-5,-4,3,7,4,2
5,-1,-6,-2,5,-3,-4,-4,3,7,4,3
5,-1,-6,-2,5,-3,-4,-4,3,8,5,3
3,-2,-5,-1,4,-3,-4,-4,3,8,5,3
2,-2,-5,0,4,-3,-4,-4,3,8,5,2
2,-3,-5,0,4,-3,-3,-4,3,7,4,2
2,-3,-5,0,3,-3,-3,-5,2,7,4,2
1,-3,-5,0,3,-3,-3,-5,2,7,4,1
0,-4,-4,1,2,-4,-3,-4,2,7,4,1
0,-4,-4,2,2,-4,-2,-4,2,7,3,1
0,-4,-4,2,1,-4,-1,-4,2,6,3,0
-1,-5,-4,3,1,-4,-1,-4,2,6,3,0
0,-4,-4,2,1,-3,-1,-3,3,6,3,1
0,-3,-4,1,2,-3,-1,-3,3,7,4,1
0,-3,-4,1,2,-4,-1,-3,3,7,4,1
0,-4,-4,2,1,-4,-1,-3,2,6,3,1
0,-4,-4,2,1,-4,-1,-4,2,6,3,1
0,-4,-4,2,1,-4,-1,-4,2,6,3,1
-1,-5,-4,3,1,-4,-1,-4,2,6,3,0
-2,-6,-4,4,1,-5,-2,-4,2,6,3,0
-1,-5,-4,3,2,-4,-2,-4,2,7,3,0
0,-4,-4,2,2,-4,-1,-3,3,7,3,1
0,-4,-4,2,1,-4,0,-3,3,7,3,1
-1,-5,-4,3,1,-4,-1,-3,3,7,3,1
0,-5,-4,3,1,-4,-1,-2,3,7,4,1
1,-3,-5,1,3,-4,0,-2,3,8,4,1
2,-3,-4,0,3,-3,0,-2,3,8,4,1
1,-4,-4,1,3,-4,0,-2,3,8,4,1
0,-4,-4,1,2,-4,0,-2,4,8,4,1
0,-5,-4,2,2,-4,0,-2,4,8,4,1
-1,-5,-4,2,1,-4,0,-2,4,8,4,1
0,-5,-4,2,1,-4,0,-1,4,7,4,1
0,-5,-5,2,2,-4,0,-1,4,7,4,1
0,-5,-5,2,2,-5,0,-1,4,7,4,0
0,-6,-5,3,2,-5,0,-1,4,7,4,0
-1,-6,-5,3,2,-5,0,-1,3,7,4,0
-1,-6,-5,3,2,-5,0,-1,3,7,4,0
-1,-6,-5,3,2,-5,0,-1,3,7,4,0
-1,-6,-5,3,2,-5,0,-1,3,7,4,0
-1,-6,-5,3,2,-5,0,-1,3,7,4,0
-1,-7,-5,3,2,-5,0,-1,3,6,4,0
-1,-7,-5,4,2,-5,0,-1,3,6,4,0
-2,-7,-5,4,2,-5,0,-1,3,6,4,0
-2,-7,-5,4,2,-5,0,-1,3,6,4,0
-1,-6,-5,3,2,-5,0,-1,3,6,4,1
0,-5,-5,2,3,-5,0,-1,4,6,4,1
1,-5,-5,2,3,-5,0,-1,4,6,4,1
1,-5,-5,2,3,-5,0,-1,4,6,4,1
1,-4,-5,1,3,-4,0,-1,4,6,4,1
1,-4,-5,1,3,-4,0,-1,4,6,4,1
1,-5,-6,1,3,-5,0,0,4,7,4,1
1,-6,-7,2,4,-6,0,0,5,8,4,1
1,-8,-9,3,4,-8,1,3,6,9,5,1
1,-9,-10,3,5,-9,2,6,8,9,5,1
2,-10,-11,3,5,-10,3,10,10,10,6,2
2,-9,-11,3,6,-10,6,17,15,13,8,3
3,-7,-10,2,6,-9,11,26,21,17,11,4
5,-4,-9,-1,7,-6,15,37,30,22,15,7
8,0,-7,-4,7,-3,20,50,40,30,21,11
11,5,-6,-8,8,0,23,63,53,41,30,18
16,8,-7,-12,10,1,23,73,65,53,41,26
20,11,-8,-16,13,2,19,77,74,66,52,35
25,15,-9,-21,17,3,12,74,82,78,65,45
30,19,-10,-25,20,4,5,68,89,90,78,56
34,22,-11,-28,22,5,-1,59,94,102,90,66
37,24,-12,-30,24,6,-8,47,98,114,103,76
39,28,-10,-32,24,8,-16,33,101,127,117,88
39,35,-3,-36,21,15,-25,16,104,139,131,101
38,43,6,-40,15,25,-35,-1,106,152,144,113
35,50,16,-42,8,34,-44,-18,107,163,156,124
31,54,24,-42,2,39,-52,-36,104,169,163,131
27,53,27,-40,-1,41,-57,-54,96,167,162,132
23,49,27,-36,-2,38,-61,-70,83,157,154,127
19,42,23,-31,-2,32,-66,-85,66,140,138,116
14,31,18,-22,-2,24,-73,-97,46,115,114,98
7,19,13,-13,-3,16,-80,-107,24,85,86,76
1,9,9,-5,-5,10,-82,-113,0,52,54,52
-3,1,5,1,-5,4,-81,-118,-24,18,22,28
-6,-6,1,6,-5,-2,-77,-120,-46,-12,-5,7
-8,-13,-3,11,-3,-8,-71,-119,-64,-36,-25,-7
-10,-17,-6,13,-2,-11,-64,-113,-76,-52,-37,-17
-10,-18,-7,14,-2,-12,-55,-105,-81,-60,-44,-23
-10,-17,-7,13,-1,-12,-47,-93,-78,-62,-46,-26
-10,-16,-6,13,-1,-11,-39,-80,-71,-58,-45,-26
-9,-14,-5,11,-1,-9,-31,-67,-63,-53,-42,-25
-8,-11,-4,9,-2,-7,-25,-56,-55,-47,-38,-23
-8,-9,-1,8,-3,-5,-19,-48,-48,-42,-35,-22
-8,-8,0,7,-4,-3,-15,-41,-42,-38,-31,-20
-6,-5,2,5,-5,-1,-10,-34,-35,-33,-27,-18
-4,-2,3,3,-4,0,-5,-28,-29,-28,-24,-16
-2,-1,3,1,-4,1,-2,-22,-24,-24,-21,-14
-2,0,2,1,-3,1,0,-18,-21,-21,-19,-13
-2,-1,1,1,-2,0,2,-15,-19,-20,-18,-13
-3,-3,0,2,-2,0,3,-13,-17,-19,-18,-13
-3,-4,0,3,-2,-1,4,-11,-16,-18,-17,-12
-3,-4,0,3,-2,-1,4,-10,-15,-17,-16,-12
-3,-5,0,4,-2,-2,4,-9,-14,-16,-16,-12
-5,-7,-1,6,-3,-3,5,-8,-13,-16,-15,-12
-6,-8,-1,7,-3,-5,5,-8,-13,-16,-15,-12
-7,-9,-2,8,-3,-5,6,-7,-13,-15,-15,-12
-6,-9,-2,7,-2,-5,7,-7,-13,-15,-15,-12
-5,-8,-3,7,-2,-5,8,-6,-13,-14,-15,-12
-5,-8,-3,7,-2,-5,8,-6,-13,-14,-15,-12
-5,-9,-3,7,-2,-5,8,-6,-13,-15,-16,-13
-5,-8,-3,6,-1,-5,8,-6,-12,-15,-16,-13
-4,-7,-3,5,-1,-5,8,-5,-11,-14,-15,-13
-3,-6,-3,5,0,-4,9,-4,-11,-14,-15,-13
-2,-6,-3,4,0,-4,9,-3,-10,-14,-15,-12
-2,-5,-3,4,0,-4,9,-3,-10,-14,-15,-12
-3,-6,-3,4,0,-4,9,-3,-11,-14,-15,-12
-4,-6,-2,5,-1,-4,9,-3,-11,-14,-14,-12
-5,-7,-2,6,-2,-4,9,-3,-11,-14,-14,-12
-6,-8,-1,7,-3,-4,9,-3,-11,-14,-14,-12
-7,-8,-1,8,-3,-5,9,-3,-11,-14,-14,-12
-7,-9,-2,8,-3,-5,9,-3,-11,-14,-14,-12
-6,-9,-2,7,-2,-6,9,-2,-11,-13,-14,-12
-5,-8,-3,6,-1,-5,10,-1,-10,-13,-14,-12
-4,-7,-3,5,-1,-5,11,0,-10,-13,-14,-12
-3,-7,-3,5,0,-4,11,0,-10,-14,-14,-12
-3,-7,-3,5,0,-4,11,0,-10,-14,-14,-12
-3,-7,-3,5,0,-4,10,0,-10,-14,-14,-12
-3,-6,-3,5,-1,-4,11,0,-10,-14,-14,-12
-3,-6,-2,5,-1,-3,11,1,-10,-14,-14,-11
-4,-7,-2,6,-1,-4,11,1,-10,-14,-14,-12
-4,-7,-2,6,-1,-4,11,1,-11,-15,-15,-12
-5,-8,-2,7,-2,-5,10,1,-11,-15,-15,-13
-6,-9,-3,8,-2,-5,10,1,-12,-16,-16,-14
-6,-9,-3,8,-2,-6,11,1,-12,-16,-16,-14
-6,-9,-3,8,-2,-6,11,1,-12,-16,-16,-14
-5,-8,-3,7,-2,-5,12,1,-11,-15,-16,-14
-5,-7,-3,6,-2,-5,11,1,-11,-15,-16,-13
-5,-7,-2,6,-2,-5,11,1,-11,-15,-16,-13
-5,-7,-2,6,-2,-4,10,2,-11,-15,-16,-13
-5,-6,-1,6,-2,-4,11,2,-11,-15,-15,-12
-4,-6,-1,5,-1,-3,12,2,-11,-15,-15,-12
-4,-6,-2,6,-1,-3,13,2,-11,-16,-15,-12
-4,-6,-2,6,-1,-4,13,2,-11,-16,-15,-12
-3,-6,-3,5,0,-4,13,2,-11,-16,-15,-12
-3,-6,-3,4,0,-4,13,3,-11,-16,-15,-12
-3,-6,-3,5,-1,-4,14,3,-11,-16,-15,-12
-4,-6,-3,5,-1,-5,14,3,-11,-16,-16,-13
-4,-7,-3,6,-1,-5,14,3,-11,-17,-17,-13
-5,-6,-2,6,-2,-4,13,3,-11,-17,-17,-13
-5,-6,-2,6,-2,-4,13,3,-11,-18,-17,-13
-6,-7,-2,7,-2,-4,12,3,-11,-18,-18,-14
-6,-7,-1,7,-3,-4,12,4,-12,-19,-18,-14
-6,-7,-1,6,-3,-4,13,4,-12,-19,-18,-14
-6,-7,-1,6,-3,-4,13,4,-12,-20,-19,-14
-6,-7,-1,7,-3,-4,13,4,-13,-20,-19,-15
-6,-7,-1,7,-3,-5,13,4,-13,-21,-20,-15
-6,-7,-1,7,-3,-5,13,4,-13,-21,-20,-15
-4,-5,-1,5,-2,-4,13,5,-13,-21,-20,-15
-4,-4,0,4,-2,-3,13,5,-13,-21,-20,-15
-5,-4,0,5,-3,-2,13,5,-13,-21,-20,-15
-5,-5,0,5,-4,-2,13,5,-13,-21,-20,-15
-5,-5,0,5,-4,-2,14,6,-13,-21,-20,-15
-5,-5,0,5,-4,-2,14,6,-13,-21,-20,-14
-6,-5,1,6,-4,-2,14,7,-13,-21,-20,-14
-6,-5,1,6,-4,-2,14,7,-13,-21,-20,-14
-6,-5,1,6,-4,-2,14,7,-13,-21,-20,-14
-6,-4,1,5,-4,-2,14,7,-12,-21,-19,-14
-5,-3,1,4,-4,-1,14,7,-12,-21,-19,-14
-5,-3,1,4,-4,-1,14,7,-12,-21,-19,-14
-4,-2,2,3,-4,-1,14,8,-12,-21,-19,-15
-4,-2,3,3,-4,0,14,8,-12,-21,-20,-15
-4,-1,4,3,-4,1,14,9,-12,-21,-20,-15
-4,-1,4,3,-4,1,14,9,-12,-22,-20,-15
-4,-1,4,3,-4,1,14,9,-13,-22,-21,-16
-5,-1,4,3,-5,1,13,9,-13,-23,-21,-16
-6,-1,5,3,-5,1,13,9,-14,-23,-22,-16
-7,-1,5,4,-6,1,12,9,-14,-24,-22,-16
-7,-1,5,4,-7,1,12,9,-14,-24,-22,-16
-6,0,6,3,-6,2,12,9,-14,-23,-22,-16
-5,1,6,1,-6,4,12,10,-14,-23,-21,-15
-3,3,7,0,-5,5,12,10,-13,-22,-20,-14
-3,3,7,0,-5,5,12,11,-13,-22,-20,-14
-4,4,8,0,-6,6,12,11,-12,-22,-20,-13
-4,4,8,0,-7,6,12,12,-12,-22,-20,-13
-5,4,9,0,-7,6,12,12,-13,-22,-20,-14
-5,4,9,0,-7,7,12,11,-13,-23,-21,-14
-5,4,10,0,-7,7,12,11,-14,-23,-21,-14
-5,4,11,0,-8,8,12,11,-14,-24,-21,-14
-6,4,11,0,-9,8,11,10,-15,-25,-22,-15
-6,5,12,0,-9,8,11,10,-15,-26,-23,-15
-5,7,13,-1,-9,9,11,11,-15,-26,-22,-15
-3,10,13,-3,-9,11,11,12,-14,-25,-21,-14
-1,12,13,-5,-8,12,11,12,-14,-25,-21,-13
-1,13,14,-6,-8,12,11,12,-15,-25,-21,-13
-1,13,14,-6,-9,13,11,12,-15,-25,-21,-13
-1,14,15,-6,-9,14,10,12,-15,-26,-22,-13
-1,13,16,-6,-9,14,10,12,-15,-26,-22,-14
-2,13,16,-5,-10,15,9,11,-16,-27,-22,-14
-2,14,17,-5,-10,15,9,11,-16,-27,-22,-13
-2,15,17,-6,-10,16,8,10,-16,-27,-22,-13
-1,16,17,-6,-10,16,8,10,-16,-27,-21,-12
-1,17,18,-7,-10,17,7,10,-16,-27,-21,-12
-2,17,18,-7,-11,17,7,10,-16,-27,-21,-11
-3,16,19,-6,-11,17,6,10,-17,-27,-21,-11
-3,15,19,-6,-11,17,5,9,-17,-27,-21,-11
-2,16,20,-7,-11,18,5,8,-17,-27,-20,-11
-1,18,20,-8,-11,19,5,8,-17,-27,-20,-11
-1,19,20,-9,-11,20,5,8,-17,-27,-20,-10
0,20,20,-9,-12,21,5,8,-18,-27,-20,-10
0,21,21,-9,-12,21,5,8,-18,-28,-20,-10
-1,20,21,-9,-12,21,5,7,-19,-28,-20,-10
-1,20,22,-9,-12,21,4,6,-19,-28,-19,-9
0,20,22,-10,-12,21,4,6,-19,-28,-19,-9
0,21,22,-11,-11,22,3,6,-19,-27,-18,-8
1,22,22,-11,-11,22,2,5,-19,-27,-17,-7
1,22,21,-11,-10,22,1,5,-19,-26,-16,-6
1,22,21,-12,-10,22,1,5,-18,-26,-15,-5
2,23,21,-12,-10,22,0,5,-18,-25,-14,-4
2,23,20,-12,-10,22,0,5,-17,-24,-13,-3
2,22,20,-12,-10,21,1,4,-17,-23,-13,-3
2,21,20,-12,-9,20,1,4,-17,-23,-12,-3
2,20,19,-12,-9,19,1,4,-17,-23,-12,-3
1,18,18,-10,-8,18,0,3,-17,-23,-12,-3
1,17,17,-9,-8,17,0,3,-17,-22,-12,-3
2,18,16,-10,-8,16,0,3,-16,-21,-11,-2
3,19,15,-11,-6,16,1,4,-15,-20,-10,-1
4,18,14,-11,-5,16,1,4,-14,-19,-9,-1
3,16,13,-10,-5,15,1,4,-14,-18,-8,-1
2,14,13,-9,-5,13,0,4,-14,-18,-8,0
2,12,12,-8,-5,12,0,4,-13,-18,-7,0
3,12,11,-8,-4,11,0,4,-13,-17,-7,0
3,12,10,-8,-4,11,0,4,-12,-16,-6,0
2,11,9,-7,-4,10,0,3,-12,-15,-6,0
2,10,8,-6,-3,8,0,3,-11,-14,-5,0
3,9,6,-6,-2,7,1,4,-10,-13,-5,0
3,8,5,-5,-1,6,1,4,-9,-12,-4,0
3,6,4,-4,-1,5,0,4,-9,-12,-4,0
3,5,3,-4,0,4,0,4,-8,-11,-3,0
3,4,2,-4,0,4,1,4,-7,-10,-2,1
3,4,1,-4,0,3,1,3,-6,-8,-1,1
3,4,1,-3,0,3,1,3,-5,-7,0,1
2,3,1,-2,0,2,1,3,-5,-6,0,1
1,1,0,0,0,0,1,3,-5,-6,0,1
0,0,-1,0,0,-1,0,2,-5,-6,0,1
2,0,-2,0,2,-1,1,3,-3,-5,1,2
5,2,-2,-4,3,0,2,4,-1,-3,3,4
7,4,-2,-6,4,0,3,4,0,-1,4,5
7,4,-3,-5,4,0,3,4,1,0,4,4
6,2,-3,-4,4,0,2,4,1,0,4,3
5,1,-3,-3,4,-1,1,3,1,1,4,2
4,1,-3,-3,4,-2,1,3,2,1,4,2
4,1,-3,-3,4,-2,1,3,2,2,4,2
4,0,-3,-3,4,-2,1,3,2,2,4,2
4,0,-3,-2,3,-2,1,3,2,2,5,2
4,0,-3,-2,3,-2,1,3,3,2,5,2
4,0,-3,-2,3,-3,1,3,3,3,6,2
3,-1,-4,-1,3,-3,1,3,4,4,6,2
2,-3,-4,0,3,-4,1,3,4,4,6,2
0,-4,-4,1,2,-4,0,3,4,4,6,2
0,-4,-5,2,2,-5,0,2,4,4,6,2
0,-4,-5,1,2,-5,0,2,4,4,6,2
2,-2,-5,0,3,-4,0,2,4,5,6,2
3,-1,-5,-1,3,-3,0,2,4,5,6,2
3,-1,-4,-2,3,-3,0,2,4,5,6,2
3,-1,-4,-2,3,-2,0,3,4,6,6,2
3,-1,-4,-1,3,-2,1,3,5,6,6,2
3,-1,-4,-1,3,-2,1,4,6,7,7,3
3,-1,-5,-1,3,-2,2,4,7,7,7,3
2,-2,-5,0,3,-3,2,5,7,7,7,3
2,-3,-6,0,3,-4,2,5,7,7,7,3
2,-4,-6,0,4,-5,2,5,7,8,8,3
2,-5,-6,0,4,-5,2,5,7,8,8,3
2,-5,-6,0,3,-5,2,5,7,8,8,3
2,-4,-6,0,3,-5,2,5,7,8,8,3
3,-3,-6,0,4,-4,2,5,8,8,8,3
4,-2,-6,-1,5,-4,2,6,8,8,8,3
4,-2,-7,-1,5,-4,1,6,8,8,8,2
4,-3,-7,-1,5,-5,1,5,7,8,7,2
3,-3,-6,0,4,-5,1,5,7,8,7,2
2,-4,-6,1,3,-5,1,5,7,8,7,2
1,-6,-6,2,3,-6,1,4,6,7,6,1
0,-6,-6,3,2,-6,1,4,5,6,6,0
1,-5,-6,2,3,-5,2,4,6,6,6,0
2,-3,-6,0,3,-4,3,5,7,7,6,0
2,-2,-5,0,3,-3,3,5,7,7,6,1
2,-2,-5,0,3,-3,3,5,7,7,6,1
1,-2,-4,1,2,-3,3,5,7,7,6,1
1,-3,-4,1,2,-3,3,5,7,7,6,1
2,-2,-4,0,3,-3,3,5,7,7,6,1
3,-2,-5,0,3,-3,3,4,7,7,6,1
2,-3,-5,1,3,-4,2,3,6,6,6,1
0,-4,-5,2,2,-5,2,2,5,5,5,0
0,-5,-5,2,2,-5,2,2,4,5,5,0
0,-5,-5,2,2,-5,3,2,4,5,5,0
0,-4,-5,2,2,-5,4,2,4,5,5,0
1,-3,-5,1,2,-4,4,2,4,5,5,0
2,-2,-5,0,3,-3,4,2,4,5,5,0
3,-2,-5,0,3,-3,4,2,4,4,4,0
2,-2,-4,0,2,-3,4,1,3,4,4,0
1,-2,-4,0,2,-3,4,1,3,3,3,0
1,-2,-3,0,1,-2,4,1,2,3,3,0
0,-2,-2,0,1,-2,4,0,1,2,2,-1
0,-2,-2,1,0,-2,3,0,0,1,1,-2
-1,-2,-2,2,0,-2,3,-1,0,0,1,-2
0,-2,-2,1,0,-1,4,0,0,0,1,-2
0,-1,-2,1,0,-1,5,0,0,0,1,-2
0,-2,-2,1,0,-1,5,-1,0,0,1,-2
-1,-2,-2,2,0,-2,5,-1,-1,0,0,-2
-2,-3,-2,3,0,-2,5,-2,-2,-1,0,-3
-3,-3,-2,3,0,-2,4,-2,-2,-1,0,-3
-1,-2,-2,2,0,-2,4,-2,-2,-1,0,-3
0,0,-1,0,0,-1,4,-2,-2,-2,0,-3
0,0,0,0,-1,0,4,-2,-3,-2,0,-3
-1,0,0,1,-1,0,4,-3,-3,-3,-1,-3
-1,-1,0,1,-1,0,4,-3,-4,-3,-1,-3
-1,-1,0,1,-1,0,5,-3,-4,-4,-1,-3
-1,0,0,1,-1,0,5,-3,-4,-4,-1,-3
0,0,0,0,-1,0,5,-3,-4,-4,-2,-3
-1,0,0,0,-1,0,5,-3,-5,-4,-2,-4
-2,-1,0,1,-2,0,4,-4,-5,-5,-4,-5
-4,-2,0,3,-3,0,3,-4,-6,-6,-5,-6
-4,-2,0,4,-3,0,4,-5,-7,-7,-6,-7
-3,-1,0,3,-3,0,4,-5,-7,-7,-6,-7
-1,1,1,0,-2,2,5,-4,-6,-6,-5,-6
0,2,1,-1,-1,3,6,-4,-6,-6,-4,-5
1,2,1,-2,-1,3,6,-4,-6,-6,-3,-5
1,2,1,-2,-1,3,6,-4,-6,-6,-3,-4
1,2,1,-2,-1,3,6,-4,-6,-5,-3,-4
0,2,1,-2,-1,2,5,-4,-6,-5,-3,-4
0,2,1,-1,-1,2,5,-4,-6,-5,-3,-4
0,1,1,0,-1,2,4,-4,-6,-6,-4,-4
0,1,1,0,-1,2,4,-4,-6,-6,-4,-4
-1,0,1,0,-2,1,4,-5,-7,-7,-4,-5
-3,0,2,2,-2,1,4,-5,-7,-7,-5,-5
-3,0,2,2,-3,0,4,-5,-7,-7,-5,-6
-3,0,2,2,-3,0,4,-4,-7,-7,-5,-6
-2,0,2,2,-3,0,4,-4,-7,-7,-5,-6
-1,0,1,1,-2,1,4,-4,-6,-6,-5,-6
0,1,1,0,-1,1,4,-4,-6,-6,-5,-5
0,1,1,0,-1,1,4,-4,-6,-6,-4,-5
0,1,1,0,-1,2,4,-4,-6,-6,-4,-5
0,2,1,0,-1,2,4,-4,-5,-5,-4,-5
0,2,1,-1,-1,2,4,-4,-5,-5,-3,-5
0,2,1,0,-1,2,4,-4,-5,-5,-3,-5
-1,1,1,0,-2,2,4,-4,-5,-5,-3,-5
-1,1,2,0,-2,2,4,-3,-5,-5,-3,-5
-1,1,2,0,-2,2,4,-3,-5,-5,-3,-5
-2,1,2,1,-2,2,4,-2,-5,-5,-3,-5
-2,0,1,1,-2,1,4,-2,-5,-5,-3,-5
-2,0,1,1,-2,1,4,-2,-4,-4,-2,-4
0,1,1,0,-1,1,5,-2,-3,-3,-1,-3
0,2,1,-1,-1,1,5,-1,-3,-3,-1,-3
0,1,1,-1,-1,1,4,-1,-3,-3,-1,-3
0,1,0,0,-1,1,4,-1,-3,-3,-1,-3
0,1,0,0,-1,1,4,-1,-3,-3,-1,-3
0,0,0,0,-1,0,4,-1,-3,-3,-1,-3
0,0,0,0,-1,0,4,-1,-3,-3,-1,-3
-1,0,0,0,-1,0,4,-1,-3,-3,-1,-3
-1,0,0,0,-1,0,4,-1,-2,-3,-1,-3
0,0,0,0,-1,0,4,-1,-2,-2,-1,-3
0,0,0,0,-1,0,3,-1,-2,-2,-1,-3
0,0,0,0,-1,0,3,0,-2,-1,0,-3
-1,0,0,0,-1,0,3,0,-2,-1,0,-3
0,0,0,0,0,0,3,0,-1,-1,0,-3
0,1,0,-1,0,0,3,1,0,0,1,-2
1,1,0,-2,0,0,3,1,0,0,1,-1
1,1,-1,-1,0,0,3,1,0,0,1,-1
2,1,-1,-1,1,0,3,2,0,0,1,-1
2,1,-2,-1,1,0,3,2,0,0,1,-1
2,0,-2,-1,1,0,3,2,0,0,1,-1
1,0,-2,0,1,-1,4,2,0,0,1,-1
1,0,-2,0,1,0,4,2,0,1,1,-1
1,0,-1,0,0,0,4,2,1,1,1,-1
1,0,-1,0,0,0,3,2,1,2,1,-1
2,0,-1,0,1,0,3,2,1,2,2,-1
1,0,-1,0,1,0,3,2,1,2,2,-1
0,0,-1,0,0,0,2,2,1,1,2,-1
0,-1,-1,1,0,0,2,1,1,1,2,-2
0,-1,-1,0,0,-1,2,1,1,1,2,-2
0,0,-1,0,0,-1,2,1,1,1,2,-2
0,0,-1,0,0,-1,2,1,1,1,2,-2
0,-1,-2,0,0,-1,1,1,1,1,1,-2
0,-2,-2,1,0,-2,1,1,0,1,0,-3
-1,-3,-2,2,0,-2,1,1,0,1,0,-3
0,-2,-2,1,0,-1,2,1,1,1,0,-3
1,0,-2,0,0,-1,3,2,1,2,1,-2
1,0,-2,-1,1,0,3,2,2,2,1,-2
1,0,-1,-1,1,0,3,2,2,2,2,-1
1,0,-1,-1,1,0,3,2,2,2,2,-1
2,0,-1,-1,1,0,3,2,2,2,2,-1
2,1,-1,-2,1,0,2,2,2,2,2,-1
3,2,-1,-2,2,0,2,2,2,2,3,0
4,2,-1,-3,2,0,2,3,2,3,3,0
4,3,-1,-3,2,0,2,3,2,3,3,0
4,3,-1,-3,2,0,3,3,2,3,3,0
4,3,-1,-3,2,0,3,3,2,3,3,0
3,2,-1,-3,2,0,3,3,2,3,3,0
3,2,-1,-2,2,0,2,4,2,3,3,0
3,1,-2,-2,2,0,2,4,3,3,4,0
2,0,-2,-1,2,-1,2,4,3,3,4,0
0,-1,-2,0,1,-1,2,4,3,3,4,0
-1,-2,-2,1,0,-2,2,4,3,3,4,0
0,-1,-2,1,0,-2,2,4,3,3,4,1
1,-1,-2,0,1,-1,2,3,3,3,5,1
1,-1,-3,0,1,-2,1,3,2,3,5,1
1,-1,-3,0,1,-2,1,3,2,3,5,0
1,-1,-3,0,1,-2,1,3,2,3,5,0
2,0,-3,-1,2,-2,2,3,2,4,5,1
3,0,-3,-1,3,-2,2,4,2,4,5,1
3,0,-4,-1,3,-2,2,4,3,4,5,1
3,0,-4,-1,3,-2,2,4,3,5,5,1
2,0,-4,-1,3,-2,2,5,4,5,5,1
2,-1,-4,-1,3,-2,2,5,4,5,5,1
2,0,-4,-1,3,-2,2,6,4,6,6,2
3,0,-3,-2,3,-2,2,6,5,6,6,2
4,1,-3,-3,3,-1,3,7,6,7,7,3
5,1,-4,-3,4,-1,3,7,6,7,7,3
5,1,-4,-3,4,-2,2,7,6,7,7,3
5,1,-4,-3,4,-2,2,7,6,7,7,3
6,2,-4,-3,5,-2,2,7,6,7,8,4
6,2,-4,-4,5,-1,2,8,7,8,9,4
7,2,-4,-5,5,-1,2,8,7,8,9,5
7,2,-4,-5,5,-1,2,8,7,8,9,5
6,1,-4,-4,5,-2,2,8,7,8,9,4
5,0,-5,-3,5,-2,1,7,7,7,9,4
4,-1,-5,-2,4,-3,0,6,6,7,8,3
4,-1,-6,-1,5,-3,-1,5,5,6,7,3
5,-1,-6,-2,5,-3,-2,5,4,6,7,3
6,0,-6,-3,5,-3,-2,4,4,6,7,3
5,0,-6,-3,5,-2,-2,3,4,6,7,3
4,0,-5,-3,4,-2,-2,3,3,6,7,3
4,0,-4,-3,3,-1,-2,2,3,6,7,3
4,1,-4,-3,4,-1,-2,2,3,6,7,3
4,0,-4,-2,4,-1,-2,2,3,6,7,3
4,0,-4,-2,4,-2,-2,2,3,6,7,3
5,0,-5,-2,4,-2,-2,2,3,6,7,3
5,0,-5,-3,5,-2,-2,2,3,6,7,3
5,0,-5,-3,5,-2,-2,2,3,5,7,3
6,0,-5,-3,5,-2,-2,2,3,5,7,3
6,1,-5,-4,5,-2,-2,2,3,6,8,3
6,1,-5,-4,5,-2,-1,2,3,6,8,4
6,1,-4,-4,4,-2,-1,2,2,6,8,4
6,1,-4,-3,4,-1,0,2,2,6,8,4
5,1,-4,-3,4,-1,0,2,2,6,8,4
5,1,-4,-3,4,-1,0,2,2,6,8,4
6,1,-5,-3,5,-1,0,2,2,6,8,4
6,1,-5,-4,6,-1,0,2,3,6,8,4
6,0,-5,-3,5,-2,0,1,2,6,8,4
5,0,-5,-3,5,-2,0,1,2,6,7,4
6,1,-5,-4,5,-1,0,1,2,6,7,4
7,2,-4,-5,5,0,1,1,2,5,8,4
5,2,-3,-4,4,0,2,1,2,5,7,4
3,1,-2,-2,2,0,1,1,1,4,6,3
1,0,-2,0,1,-1,1,0,1,3,6,2
0,-1,-2,0,1,-1,1,0,0,3,6,1
0,-1,-2,0,1,-2,1,0,0,3,6,1
0,-2,-3,1,1,-2,1,0,0,3,5,1
