leadI,leadII,leadIII,leadaVR,leadaVL,leadaVF,leadV1,leadV2,leadV3,leadV4,leadV5,leadV6
-1,0,0,0,0,0,0,-1,-2,4,-17,1
-2,-1,0,1,-1,0,0,-2,-5,10,-45,4
-3,-2,1,3,-2,0,0,-3,-7,13,-60,5
-4,-3,1,4,-3,0,1,-4,-8,15,-68,6
-5,-3,2,4,-3,0,1,-4,-8,17,-70,7
-5,-3,2,4,-4,0,2,-4,-8,18,-70,7
-5,-3,2,4,-4,0,2,-4,-8,19,-69,7
-5,-3,2,4,-4,0,2,-4,-8,20,-68,7
-5,-3,2,4,-4,0,2,-3,-8,21,-66,7
-5,-3,2,4,-4,0,3,-3,-8,21,-64,7
-5,-3,2,4,-4,0,3,-2,-7,22,-62,7
-5,-3,2,4,-4,0,3,-1,-7,23,-60,7
-5,-3,2,4,-4,0,3,0,-6,24,-58,7
-5,-3,2,4,-4,0,3,0,-5,25,-56,7
-5,-3,2,4,-4,0,4,0,-4,26,-54,7
-4,-2,2,4,-4,0,4,1,-4,26,-51,7
-4,-2,2,4,-4,0,5,1,-3,27,-48,7
-4,-2,2,4,-4,0,5,2,-3,27,-46,7
-4,-2,2,4,-4,0,6,2,-3,27,-44,7
-4,-2,2,3,-4,0,6,3,-3,27,-42,7
-4,-2,2,3,-4,0,7,4,-2,27,-41,7
-4,-2,2,3,-4,0,7,5,-2,27,-39,7
-4,-2,2,3,-3,0,7,5,-1,28,-38,7
-3,-2,1,3,-3,0,7,6,-1,29,-36,7
-3,-2,1,2,-3,0,8,7,0,30,-35,7
-2,-2,1,2,-3,0,8,8,0,31,-33,7
-2,-1,1,2,-2,0,8,9,1,32,-31,8
-2,-1,1,2,-2,0,9,10,1,33,-30,8
-2,-1,0,2,-1,0,9,11,2,34,-29,8
-2,-1,0,2,-1,0,10,12,3,35,-29,8
-2,-1,0,1,-1,0,11,13,4,36,-28,8
-1,-1,0,1,-1,0,12,14,5,36,-26,8
-1,0,0,0,-1,0,13,15,6,37,-26,8
0,0,0,0,-1,0,14,17,7,39,-26,8
0,0,0,0,-1,0,15,18,8,39,-26,8
0,0,0,0,-1,0,16,19,8,40,-26,8
0,0,0,0,-1,0,17,21,9,40,-26,8
0,0,0,0,0,0,17,22,10,40,-26,8
0,1,0,0,0,0,18,23,11,40,-26,8
1,1,0,-1,0,1,19,24,12,41,-26,8
1,1,0,-1,0,1,20,26,13,41,-25,8
1,1,0,-2,0,1,20,27,14,41,-23,8
2,2,0,-2,1,1,21,29,15,41,-22,8
4,4,-1,-4,2,1,21,30,16,41,-22,8
6,4,-1,-5,3,1,21,31,17,42,-21,8
7,5,-2,-6,4,1,21,32,18,42,-20,8
8,5,-2,-6,5,1,21,32,19,42,-19,8
8,5,-2,-6,5,1,21,32,20,42,-19,8
8,5,-2,-6,5,1,20,32,20,41,-20,8
9,5,-3,-6,6,1,18,32,20,41,-20,8
9,5,-3,-6,6,1,17,31,20,40,-20,8
9,5,-4,-7,7,1,15,31,19,40,-20,8
10,5,-4,-7,7,1,13,30,18,40,-20,8
10,5,-5,-7,7,0,12,28,17,40,-21,8
10,5,-5,-7,7,0,11,27,16,39,-22,8
10,5,-5,-7,7,0,10,26,16,39,-24,8
10,5,-5,-8,7,0,10,26,15,38,-25,8
10,5,-5,-7,7,0,9,25,15,38,-26,8
10,4,-5,-7,7,0,8,24,15,37,-27,9
10,4,-5,-7,7,0,7,24,15,37,-29,9
10,4,-5,-7,7,0,7,23,15,36,-31,9
10,4,-5,-7,7,0,6,22,14,36,-32,9
10,4,-5,-7,7,0,6,21,14,34,-33,9
9,4,-5,-6,7,0,5,20,14,33,-34,9
9,4,-5,-7,8,0,4,18,14,32,-34,9
10,5,-5,-8,8,0,4,17,14,31,-34,9
9,5,-5,-7,7,0,3,16,13,30,-35,9
8,4,-5,-6,6,0,2,15,12,29,-37,9
7,3,-4,-5,5,0,1,14,11,29,-39,9
7,4,-3,-6,5,1,1,13,10,29,-42,9
7,5,-3,-6,5,1,0,11,10,29,-46,9
7,4,-3,-6,5,1,0,10,10,29,-49,9
6,4,-2,-5,4,1,0,8,10,29,-53,9
5,4,-2,-5,4,1,-1,7,9,29,-59,9
5,4,-1,-5,3,2,-1,5,9,29,-64,9
4,4,-1,-4,3,2,-2,4,8,29,-66,9
4,4,0,-4,2,2,-2,3,8,28,-68,9
4,4,0,-4,2,2,-3,1,7,27,-72,9
3,4,0,-4,1,2,-3,0,6,27,-75,9
3,4,0,-4,1,2,-3,-1,6,26,-77,9
2,3,0,-3,1,2,-3,-3,5,25,-78,9
1,3,0,-2,0,2,-4,-4,5,24,-78,9
0,3,0,-2,0,2,-4,-5,4,23,-78,9
0,3,1,-2,0,2,-4,-5,4,23,-77,9
0,2,1,-1,0,2,-5,-6,3,22,-77,9
0,2,1,-1,0,2,-5,-7,3,21,-77,9
0,2,1,-1,0,2,-5,-8,2,21,-77,9
-1,1,1,-1,0,2,-5,-8,2,20,-76,9
-1,1,1,0,-1,2,-5,-9,2,19,-77,9
-2,0,1,0,-1,1,-5,-10,1,19,-81,9
-2,0,1,0,-1,1,-5,-10,1,18,-84,10
-2,0,1,0,-1,1,-5,-10,1,18,-87,10
-2,0,1,0,-1,1,-5,-10,1,17,-89,10
-2,-1,1,1,-1,1,-5,-10,1,16,-91,10
-2,-1,1,1,-1,0,-5,-11,1,15,-93,10
-2,-1,0,1,-1,0,-5,-11,1,14,-95,10
-2,-1,0,1,-1,0,-5,-12,1,13,-97,10
-2,-1,0,1,-1,0,-5,-12,1,12,-99,10
-2,-2,0,1,-1,0,-5,-12,1,12,-101,10
-3,-2,0,2,-1,0,-5,-12,1,12,-102,10
-3,-2,0,2,-1,0,-5,-12,1,12,-103,10
-3,-2,0,2,-1,0,-5,-13,1,12,-104,10
-3,-2,0,2,-1,0,-5,-13,1,13,-106,10
-3,-2,0,2,-1,0,-5,-13,1,14,-108,10
-3,-2,0,2,-1,0,-5,-13,1,15,-110,10
-3,-2,1,2,-2,0,-4,-13,1,16,-112,10
-3,-2,1,2,-2,0,-4,-13,1,17,-109,10
-3,-2,1,2,-2,0,-4,-13,1,18,-98,10
-3,-2,1,2,-2,0,-3,-13,1,18,-83,10
-3,-1,1,2,-2,1,-3,-12,1,18,-70,10
-3,-1,2,2,-2,1,-2,-12,1,18,-58,10
-3,-1,2,2,-2,1,-2,-12,1,18,-49,10
-3,-1,2,2,-2,1,-1,-12,1,18,-43,10
-3,-1,2,2,-2,1,-1,-12,1,18,-38,10
-4,0,3,2,-3,2,0,-12,1,18,-35,10
-4,0,3,2,-3,2,0,-12,2,18,-34,10
-4,0,3,2,-3,3,1,-11,2,19,-36,10
-4,1,4,1,-3,3,2,-11,3,19,-37,10
-4,1,4,1,-3,4,2,-10,4,19,-38,10
-3,2,5,0,-3,4,3,-9,5,20,-36,10
-3,3,5,0,-3,5,4,-8,6,20,-34,10
-2,4,6,-1,-4,5,5,-7,7,21,-33,10
-2,5,7,-2,-4,6,6,-7,7,22,-33,11
-2,6,7,-2,-4,7,6,-6,7,22,-35,11
-2,6,8,-2,-4,7,6,-6,8,23,-38,11
-2,6,8,-2,-4,7,7,-6,8,23,-42,11
-2,6,8,-2,-4,7,7,-6,8,23,-46,11
-2,6,8,-2,-4,7,7,-6,8,23,-50,11
-2,5,8,-2,-4,7,6,-6,8,23,-53,11
-2,5,7,-2,-4,6,6,-6,8,23,-57,11
-2,5,7,-2,-4,6,5,-6,8,23,-60,11
-2,4,6,-2,-4,6,5,-6,8,23,-62,11
-2,4,6,-1,-4,6,4,-7,8,23,-64,11
-2,4,5,-1,-4,5,3,-7,8,23,-66,11
-1,3,4,-1,-3,5,2,-8,8,22,-68,11
-1,3,4,-1,-3,4,1,-8,8,22,-71,11
-1,3,3,-1,-2,4,0,-8,8,22,-72,11
-1,3,3,-1,-2,4,-1,-8,7,21,-74,11
-1,2,3,-1,-2,3,-2,-8,7,21,-76,11
-1,2,3,0,-2,3,-2,-8,7,21,-77,11
-1,1,3,0,-2,2,-3,-8,7,21,-79,11
-1,1,2,0,-2,2,-3,-8,7,21,-80,11
-1,1,2,0,-2,2,-4,-8,7,22,-82,11
-1,0,1,0,-2,1,-4,-9,6,22,-83,12
-2,0,1,1,-2,1,-4,-9,6,23,-83,12
-2,0,1,1,-2,0,-4,-9,6,23,-83,12
-2,-1,1,2,-2,0,-4,-9,6,23,-83,12
-2,-1,1,2,-2,0,-4,-10,6,23,-83,12
-3,-1,1,2,-2,0,-4,-10,6,24,-82,12
-3,-1,1,2,-2,0,-4,-10,6,24,-81,12
-2,0,1,2,-2,0,-4,-10,6,24,-80,12
-1,0,1,1,-1,0,-4,-9,7,25,-78,12
-1,0,0,1,-1,0,-4,-9,7,25,-77,12
-2,-1,0,1,-1,0,-4,-9,7,25,-76,12
-2,-1,0,1,-1,0,-4,-9,7,25,-76,12
-2,-1,0,1,-1,0,-4,-9,7,25,-75,12
-2,-1,0,1,-1,0,-4,-9,7,25,-74,12
-2,-1,0,1,-1,0,-4,-9,7,25,-73,12
-1,-1,0,1,-1,0,-4,-9,7,25,-72,12
-1,-1,0,1,-1,0,-4,-9,8,26,-71,13
-1,-1,0,1,-1,0,-4,-9,9,26,-70,13
-2,-2,0,1,-1,0,-4,-9,9,25,-69,13
-2,-2,0,1,-1,-1,-4,-9,10,25,-69,13
-2,-2,0,1,0,-1,-3,-9,10,25,-70,13
-2,-2,0,1,0,-1,-3,-9,10,24,-70,13
-2,-2,0,2,-1,-1,-2,-10,10,24,-69,13
-2,-2,0,2,-1,-1,-2,-10,10,23,-69,13
-2,-2,0,2,-1,-1,-2,-10,10,23,-69,13
-2,-1,0,2,-1,0,-2,-10,11,22,-69,13
-1,-1,0,1,-1,0,-1,-10,11,22,-68,13
-1,-2,0,1,-1,0,-1,-10,11,21,-68,13
-1,-2,0,2,-1,0,-1,-10,11,21,-67,13
-1,-1,0,1,-1,0,-1,-10,11,22,-67,13
-1,-1,0,1,-1,0,0,-10,12,22,-66,13
-2,-1,0,1,-1,0,0,-10,12,22,-65,13
-2,-1,0,1,-1,0,0,-9,12,22,-65,14
-2,-1,0,1,-1,0,1,-9,13,21,-65,14
-3,-1,0,2,-2,0,3,-7,14,19,-66,14
-4,-1,1,2,-3,0,5,-5,16,18,-65,14
-4,-1,3,2,-4,1,8,0,19,17,-63,14
-4,0,4,1,-4,3,11,5,25,18,-60,14
-4,2,7,0,-5,5,15,13,32,21,-54,14
-2,6,9,-1,-5,7,19,21,41,25,-47,14
0,10,10,-5,-5,10,22,31,52,33,-38,14
4,16,12,-10,-4,14,25,43,66,44,-24,14
10,24,13,-17,-2,19,27,55,81,58,-7,14
17,32,14,-24,1,24,26,63,94,71,9,14
25,39,14,-32,5,27,22,66,102,82,24,14
32,46,13,-39,9,29,15,65,108,89,37,14
39,51,12,-45,14,31,9,63,110,91,47,14
44,54,10,-49,18,31,2,59,109,87,52,14
48,55,7,-51,21,31,-3,52,103,77,51,15
50,55,4,-52,23,30,-9,41,91,62,44,15
48,53,3,-50,22,29,-17,21,73,41,32,15
44,50,4,-47,19,28,-27,-6,47,16,16,15
39,45,5,-43,17,26,-38,-40,15,-10,-3,15
35,39,4,-38,15,22,-49,-70,-14,-35,-22,15
32,34,3,-34,14,19,-58,-90,-34,-52,-36,15
29,30,3,-30,13,17,-63,-99,-44,-63,-45,15
26,27,2,-26,12,14,-65,-100,-48,-69,-50,15
22,23,1,-22,11,12,-65,-96,-47,-74,-54,15
20,20,0,-19,10,11,-62,-89,-43,-77,-56,15
17,18,0,-17,8,10,-58,-80,-38,-79,-58,15
14,15,0,-14,7,9,-51,-71,-32,-81,-60,15
12,13,1,-12,5,8,-44,-62,-26,-83,-62,15
9,11,2,-11,4,7,-38,-54,-20,-83,-65,15
8,11,3,-10,2,7,-32,-46,-14,-82,-69,15
6,11,5,-9,1,8,-28,-40,-9,-80,-74,16
4,10,6,-7,0,8,-24,-35,-4,-78,-79,16
3,9,6,-6,-1,7,-20,-31,0,-77,-85,16
1,7,5,-4,-2,6,-17,-27,2,-77,-90,16
0,5,4,-3,-2,5,-13,-23,5,-77,-95,16
0,3,3,-2,-2,4,-11,-20,8,-78,-98,16
0,1,2,-1,-1,2,-9,-17,9,-80,-101,16
-1,0,1,0,-1,1,-7,-15,11,-83,-105,16
-1,-1,0,0,0,0,-6,-14,12,-86,-108,16
-1,-2,0,1,0,-1,-6,-14,12,-89,-113,16
-1,-3,-1,2,0,-1,-6,-13,13,-91,-117,16
-1,-3,-1,2,0,-2,-6,-13,13,-92,-121,16
-1,-3,-2,2,0,-2,-6,-13,13,-92,-126,16
-2,-4,-2,3,0,-3,-6,-13,12,-93,-131,16
-2,-4,-2,3,0,-3,-6,-13,12,-94,-137,16
-2,-5,-2,3,0,-3,-5,-13,12,-96,-142,16
-2,-5,-2,3,0,-3,-5,-13,12,-97,-145,17
-2,-5,-2,3,0,-3,-4,-12,12,-99,-148,17
-2,-6,-2,4,0,-4,-4,-12,12,-101,-149,17
-2,-6,-3,5,0,-4,-4,-12,11,-103,-149,17
-2,-6,-3,5,0,-4,-4,-12,11,-104,-148,17
-2,-5,-3,4,0,-4,-4,-12,10,-105,-147,17
-2,-5,-3,4,0,-4,-4,-11,10,-106,-146,17
-2,-5,-3,4,0,-4,-4,-11,9,-107,-145,17
-2,-6,-3,4,0,-4,-4,-11,8,-108,-144,17
-2,-6,-3,4,0,-4,-4,-11,8,-108,-143,17
-2,-6,-3,5,0,-4,-4,-11,7,-109,-142,17
-2,-6,-3,5,0,-4,-4,-11,7,-109,-140,17
-2,-5,-3,4,0,-4,-4,-11,7,-109,-137,17
-2,-5,-2,4,0,-4,-4,-11,7,-109,-134,17
-3,-5,-2,4,0,-4,-4,-11,7,-108,-132,17
-2,-5,-2,4,0,-4,-3,-11,7,-108,-129,17
-2,-4,-1,3,0,-3,-3,-11,8,-108,-128,18
-2,-4,-1,3,0,-2,-2,-11,8,-108,-126,18
-2,-4,-1,3,0,-2,-2,-11,8,-108,-125,18
-2,-4,-1,3,0,-2,-2,-12,8,-108,-124,18
-2,-3,-1,3,0,-1,-2,-12,8,-108,-123,18
-3,-3,0,4,-1,-1,-1,-12,9,-109,-123,18
-3,-4,0,4,-1,-1,-1,-12,9,-109,-123,18
-3,-3,0,4,-1,-1,-1,-12,9,-110,-125,18
-3,-3,0,3,-1,-1,-1,-12,10,-111,-128,18
-2,-3,0,3,0,-1,-1,-11,10,-112,-132,18
-2,-4,0,3,0,-1,-1,-11,10,-113,-137,18
-3,-5,0,4,0,-2,0,-11,10,-114,-145,18
-3,-5,0,4,0,-2,0,-11,11,-116,-160,18
-2,-4,0,4,0,-2,0,-11,12,-117,-171,18
-2,-3,0,3,0,-2,1,-11,13,-113,-163,18
-2,-4,-1,4,0,-2,1,-11,14,-104,-137,18
-3,-4,-1,4,0,-2,1,-10,14,-94,-111,19
-3,-5,-1,4,0,-2,1,-10,14,-89,-96,19
-3,-5,-1,4,0,-2,1,-9,14,-87,-92,19
-2,-4,-1,4,0,-2,1,-9,15,-86,-90,19
-2,-4,-1,4,0,-2,1,-8,16,-84,-85,19
-2,-4,-1,4,0,-2,1,-8,17,-81,-77,19
-2,-4,-1,4,0,-2,2,-7,17,-79,-69,19
-3,-4,-1,4,0,-2,2,-6,17,-79,-64,19
-3,-4,-1,5,0,-2,3,-6,17,-81,-65,19
-3,-4,-1,5,0,-2,4,-5,18,-82,-67,19
-3,-4,0,5,-1,-2,5,-4,18,-82,-69,20
-4,-5,0,5,-1,-2,5,-3,19,-80,-73,20
-4,-5,0,5,-2,-2,5,-3,19,-77,-78,20
-4,-5,0,5,-2,-2,6,-2,20,-74,-84,20
-4,-4,0,4,-2,-1,6,-1,20,-71,-90,20
-4,-4,0,4,-2,-1,7,-1,21,-70,-98,20
-4,-3,0,4,-2,-1,8,0,22,-70,-107,20
-3,-3,0,3,-1,0,9,1,23,-68,-118,20
-2,-2,0,2,0,0,10,2,24,-66,-129,20
-1,-1,0,1,0,0,12,4,25,-64,-137,20
-1,0,0,1,0,0,13,5,26,-61,-144,20
0,0,0,0,0,0,14,6,27,-59,-151,21
0,1,1,0,0,1,15,7,28,-58,-158,21
0,2,1,-1,0,2,15,7,29,-57,-166,21
1,2,2,-1,0,2,15,8,30,-57,-172,21
1,3,2,-2,0,3,16,9,31,-56,-176,21
1,3,2,-2,0,3,16,10,32,-54,-179,21
1,3,2,-2,0,3,16,10,32,-52,-180,21
2,3,2,-2,0,3,17,10,33,-49,-179,21
2,3,1,-2,0,3,17,10,34,-47,-179,21
2,3,1,-2,0,3,17,11,35,-46,-180,21
2,3,1,-2,1,3,17,12,35,-45,-180,21
2,3,0,-2,1,2,17,13,36,-45,-181,22
2,2,0,-2,2,1,16,13,36,-45,-181,22
3,1,-1,-3,3,0,16,14,36,-46,-180,22
5,2,-2,-3,4,0,16,15,37,-46,-177,22
6,2,-3,-4,5,0,16,16,37,-45,-172,22
7,2,-4,-4,5,0,15,18,37,-45,-168,22
7,2,-4,-4,6,0,14,19,37,-47,-165,22
7,3,-4,-4,6,0,14,19,38,-48,-162,22
7,3,-4,-5,6,0,14,20,38,-48,-159,22
8,3,-4,-5,6,0,14,20,38,-49,-154,22
8,3,-4,-5,6,0,14,20,38,-48,-146,23
8,4,-4,-6,6,0,14,20,38,-42,-139,23
8,4,-4,-6,6,0,14,20,38,-36,-131,23
9,4,-4,-6,6,0,14,20,38,-33,-122,23
9,4,-4,-6,7,0,13,20,38,-33,-113,23
9,5,-4,-7,7,1,13,20,38,-33,-103,23
10,5,-4,-7,7,1,12,21,38,-35,-94,23
10,6,-4,-7,7,1,12,21,38,-37,-81,23
10,7,-3,-8,7,2,12,21,38,-39,-63,23
10,7,-2,-8,7,3,12,21,39,-40,-48,23
10,7,-2,-9,7,3,12,21,39,-41,-37,23
10,7,-2,-9,7,3,12,21,39,-41,-30,24
10,8,-2,-9,7,3,12,21,39,-42,-22,24
10,8,-2,-9,7,3,11,21,38,-43,-14,24
10,8,-2,-9,7,3,11,21,38,-44,-7,24
10,8,-2,-9,7,3,10,21,37,-45,-1,24
10,8,-2,-9,7,3,10,20,37,-48,4,24
10,8,-2,-9,7,3,9,19,36,-51,10,24
10,8,-2,-9,7,3,8,19,36,-55,15,24
10,8,-2,-8,6,4,7,18,35,-58,16,24
9,8,-1,-8,6,4,7,17,35,-61,14,24
9,8,-1,-8,5,4,6,15,34,-63,11,24
8,8,0,-7,5,4,6,14,33,-64,6,25
8,8,0,-7,4,5,5,12,32,-66,2,25
8,8,0,-7,4,5,5,11,31,-70,1,25
7,8,1,-7,3,5,4,9,29,-75,4,25
6,7,1,-6,2,5,3,8,28,-80,11,25
5,6,2,-5,1,5,3,6,26,-85,18,25
4,6,2,-4,0,5,2,5,25,-88,24,25
3,5,2,-4,0,5,2,3,23,-89,29,25
2,5,3,-3,-1,5,1,2,22,-89,33,25
1,5,3,-3,-1,5,1,0,20,-89,35,25
0,4,4,-2,-2,4,0,-1,19,-88,34,26
-1,3,4,-1,-2,4,0,-2,17,-88,32,26
-1,3,5,0,-3,4,0,-3,16,-88,30,26
-1,3,5,0,-3,5,0,-4,15,-87,28,26
-2,2,5,0,-4,5,0,-5,14,-87,27,26
-3,2,5,1,-4,5,-1,-6,12,-87,25,26
-4,1,5,1,-4,5,-1,-7,11,-85,23,26
-4,1,5,2,-4,4,-1,-8,10,-84,21,26
-5,0,5,3,-5,4,-1,-9,9,-83,18,26
-6,-1,5,3,-5,3,-2,-10,8,-82,15,26
-5,-1,5,3,-5,3,-2,-11,8,-82,14,27
-5,0,5,3,-5,3,-2,-11,7,-81,14,27
-6,0,5,3,-5,3,-2,-12,6,-81,14,27
-6,0,5,4,-5,3,-2,-12,5,-81,14,27
-6,0,5,4,-5,3,-1,-12,5,-80,14,27
-6,0,5,4,-5,3,-1,-12,4,-78,14,27
-6,0,5,4,-5,3,-1,-12,4,-76,14,27
-6,0,5,4,-5,3,-1,-12,3,-75,14,27
-6,0,5,4,-5,3,-1,-12,3,-75,15,28
-6,-1,6,4,-6,3,0,-12,2,-75,15,28
-7,-1,6,4,-6,3,0,-12,2,-75,16,28
-7,0,6,4,-6,4,1,-12,2,-75,15,28
-7,0,6,4,-6,4,2,-11,2,-75,15,28
-6,0,6,4,-6,4,2,-11,2,-74,15,28
-5,0,7,3,-6,4,3,-10,2,-73,17,28
-5,0,7,3,-6,4,3,-10,2,-72,19,28
-5,0,7,3,-6,4,3,-10,2,-71,21,29
-5,1,7,2,-5,5,4,-9,2,-71,21,29
-4,2,7,2,-5,5,4,-9,2,-71,20,29
-4,3,7,1,-6,6,4,-9,2,-71,18,29
-4,3,7,1,-6,6,4,-9,2,-71,15,29
-4,4,7,1,-6,6,4,-9,2,-71,12,29
-4,4,8,1,-6,6,4,-9,2,-70,10,29
-4,3,8,1,-6,6,4,-10,2,-71,11,29
-4,3,8,2,-6,6,3,-10,2,-71,15,30
-4,2,7,2,-5,6,2,-11,2,-71,21,30
-4,2,6,1,-5,5,1,-11,2,-71,28,30
-3,2,6,1,-5,5,1,-11,2,-70,34,30
-3,2,6,1,-5,5,0,-11,2,-69,39,30
-3,2,5,1,-4,4,0,-11,2,-67,43,30
-3,1,5,1,-4,3,-1,-11,3,-66,46,30
-3,1,4,2,-4,3,-1,-11,3,-65,46,30
-4,0,4,2,-4,2,-2,-12,3,-64,46,31
-4,0,4,2,-4,2,-3,-12,3,-63,44,31
-4,0,4,2,-4,2,-4,-12,3,-62,42,31
-4,0,4,2,-4,2,-5,-12,3,-63,41,31
-4,0,4,2,-4,2,-5,-12,3,-65,40,31
-4,0,4,2,-4,2,-6,-12,3,-67,40,31
-4,0,4,2,-3,2,-6,-12,3,-69,40,31
-4,0,4,2,-3,2,-6,-12,3,-71,40,31
-4,0,4,2,-3,2,-6,-11,3,-71,39,32
-4,0,4,2,-3,2,-6,-11,2,-69,38,32
-4,0,4,2,-3,2,-7,-11,2,-68,37,32
-4,0,4,2,-3,2,-7,-11,2,-68,36,32
-4,0,4,2,-4,2,-7,-11,2,-68,35,32
-4,0,4,2,-4,2,-7,-11,2,-67,35,32
-4,-1,4,3,-4,2,-7,-11,1,-65,34,32
-4,-1,4,3,-4,2,-7,-11,1,-63,33,32
-4,0,4,3,-4,2,-7,-11,1,-62,32,33
-5,0,5,3,-5,3,-7,-11,1,-60,32,33
-5,0,5,3,-5,3,-7,-11,1,-59,32,33
-5,0,5,3,-5,3,-7,-11,1,-58,33,33
-5,-1,5,3,-5,3,-7,-11,1,-57,35,33
-5,-1,5,3,-4,3,-7,-11,1,-57,41,33
-5,-1,5,3,-4,3,-7,-11,0,-56,46,33
-5,-1,5,3,-4,3,-7,-11,0,-55,51,33
-5,-1,4,3,-4,2,-7,-11,0,-54,54,34
-4,-1,4,3,-3,2,-7,-11,-1,-53,56,34
-4,-1,4,3,-3,2,-7,-12,-1,-52,59,34
-4,0,4,3,-3,2,-7,-12,-1,-50,61,34
-4,0,4,3,-3,2,-7,-12,-1,-48,63,34
-5,-1,4,3,-3,2,-7,-12,-1,-46,64,34
-5,-1,4,4,-4,2,-7,-12,-1,-45,65,34
-5,-1,4,4,-4,2,-7,-11,-1,-43,67,57
-5,-1,4,3,-3,2,-7,-11,-1,-41,68,12
-5,-1,4,3,-3,2,-7,-11,-1,-40,70,-155
-5,-1,4,3,-4,2,-7,-11,-2,-39,72,-416
-5,-1,4,3,-4,2,-7,-11,-2,-38,73,-136
-4,0,4,3,-3,2,-6,-11,-2,-38,75,148
-5,-1,4,3,-4,2,-6,-11,-2,-39,76,353
-5,-1,4,3,-4,2,-6,-11,-2,-40,77,701
-5,-1,4,3,-4,2,-6,-11,-3,-42,78,453
-5,-1,4,3,-4,2,-6,-11,-3,-44,78,-114
-5,-1,4,3,-4,2,-6,-11,-3,-47,78,16
-5,-1,4,3,-4,2,-6,-11,-3,-49,78,607
-4,-1,4,3,-3,2,-6,-11,-3,-50,78,676
-4,-1,4,3,-3,2,-6,-11,-3,-50,78,471
-5,-1,4,3,-3,1,-6,-11,-3,-49,78,133
-5,-2,4,4,-4,1,-6,-12,-4,-48,78,-255
-5,-2,4,4,-4,1,-6,-12,-4,-46,79,-651
-5,-2,4,4,-4,1,-5,-12,-4,-45,79,-1031
-6,-2,4,4,-4,1,-5,-12,-4,-45,80,-547
-6,-2,4,4,-4,1,-5,-12,-3,-46,80,464
-6,-2,4,4,-4,1,-5,-12,-2,-47,80,967
-7,-2,4,4,-4,1,-5,-12,-1,-48,81,1181
-7,-3,4,5,-5,1,-4,-12,0,-50,81,1235
-7,-3,4,5,-5,1,-4,-12,0,-53,82,1199
-7,-4,4,6,-5,1,-3,-12,1,-56,82,1135
-7,-4,4,6,-5,1,-3,-12,2,-58,82,1069
-7,-3,5,5,-5,1,-2,-11,3,-60,83,617
-8,-3,5,6,-6,1,-1,-11,3,-62,83,357
-9,-3,6,6,-6,1,-1,-10,4,-64,84,634
-8,-2,6,5,-6,2,0,-9,5,-66,85,940
-7,-1,7,4,-6,3,1,-9,6,-67,86,1290
-7,0,7,4,-7,4,1,-8,7,-69,87,776
-7,0,7,4,-7,4,2,-8,7,-70,88,-258
-7,0,7,3,-7,4,2,-7,7,-71,89,-780
-7,0,8,3,-7,5,2,-7,8,-71,91,-1009
-7,0,8,3,-7,5,2,-8,8,-72,93,-1075
-7,0,8,3,-6,5,2,-8,8,-72,94,-1053
-6,1,8,2,-6,5,2,-8,8,-71,95,-986
-6,1,8,2,-6,5,1,-8,8,-69,95,-899
-6,1,8,2,-6,5,1,-9,8,-67,95,-806
-5,1,8,2,-6,5,0,-9,8,-66,96,-713
-5,1,7,2,-6,5,0,-9,8,-64,96,-627
-5,0,7,2,-5,4,0,-9,8,-61,97,-547
-6,0,7,2,-5,4,0,-9,8,-59,98,-476
-6,0,7,3,-5,3,0,-10,8,-56,99,-413
-6,0,7,3,-5,3,0,-10,7,-54,99,-358
-6,0,7,3,-5,3,-1,-10,7,-52,100,-309
-6,-1,7,3,-5,3,-1,-10,6,-50,100,-265
-6,-1,7,3,-5,3,-2,-10,6,-48,101,-226
-6,-1,7,3,-5,3,-2,-10,5,-45,102,-192
-6,-1,7,3,-5,3,-2,-10,5,-43,103,-162
-6,-1,7,3,-5,3,-2,-10,5,-41,104,-135
-6,-1,6,3,-5,2,-3,-10,5,-39,105,-113
-6,-1,6,3,-5,2,-4,-11,5,-38,107,-93
-6,-1,6,3,-5,2,-4,-11,5,-36,108,-76
-6,-1,5,3,-4,2,-5,-11,5,-35,108,-62
-6,-1,5,3,-4,1,-5,-11,5,-33,109,-48
-6,-2,5,3,-4,1,-5,-11,4,-32,109,-36
-6,-2,4,3,-3,1,-6,-11,4,-30,109,-25
-6,-2,4,3,-3,1,-6,-11,4,-29,109,-15
-6,-3,4,4,-4,0,-6,-12,3,-28,110,-33
-6,-3,4,4,-4,0,-6,-12,3,-28,111,25
-7,-4,4,5,-4,0,-6,-13,3,-28,111,225
-7,-4,4,5,-4,0,-6,-13,3,-27,112,273
-7,-4,3,5,-4,0,-6,-13,3,-27,112,220
-7,-4,3,5,-3,0,-6,-14,3,-26,113,-127
-7,-4,3,5,-3,0,-7,-14,2,-26,114,-288
-7,-4,3,5,-3,0,-7,-14,2,-25,114,304
-7,-4,3,5,-3,0,-7,-14,2,-25,115,344
-7,-4,3,5,-3,0,-7,-15,2,-24,115,18
-7,-4,3,5,-4,0,-8,-15,1,-23,115,253
-7,-4,3,5,-4,0,-8,-16,1,-23,115,772
-7,-4,3,6,-4,-1,-8,-16,0,-22,115,577
-7,-4,3,6,-4,-1,-8,-16,0,-21,115,-78
-7,-4,3,6,-4,-1,-8,-16,0,-20,115,-208
-7,-4,3,6,-4,-1,-8,-16,-1,-19,114,-65
-7,-4,3,6,-4,-1,-8,-16,-1,-18,114,201
-7,-4,3,5,-4,-1,-8,-16,-1,-17,114,518
-7,-4,3,5,-4,-1,-8,-16,-1,-16,114,848
-7,-4,3,5,-4,0,-8,-16,-1,-16,114,1171
-7,-4,3,5,-4,0,-8,-16,-1,-15,114,1470
-7,-4,3,5,-4,0,-8,-16,-1,-14,114,889
-7,-3,3,5,-4,0,-8,-17,-1,-13,114,-234
-7,-3,3,5,-4,0,-8,-17,-1,-12,113,-851
-7,-3,3,5,-4,0,-8,-17,-1,-11,113,-1164
-7,-4,3,5,-4,0,-8,-17,-1,-10,113,-1290
-7,-4,3,5,-4,0,-8,-18,-1,-9,114,-1303
-8,-4,3,5,-4,0,-8,-18,-1,-8,114,-1244
-8,-4,3,6,-5,0,-8,-18,-1,-7,114,-1147
-8,-4,3,6,-5,0,-8,-18,-1,-7,115,-1039
-8,-4,3,6,-5,-1,-8,-18,-1,-6,115,-933
-8,-5,3,6,-5,-1,-8,-18,0,-5,116,-838
-8,-5,3,6,-5,-1,-7,-18,0,-4,116,-756
-8,-5,3,6,-5,-1,-7,-17,0,-3,117,-683
-7,-4,3,5,-4,-1,-6,-17,0,-2,117,-616
-7,-4,3,5,-4,-1,-6,-16,0,-1,118,-552
-8,-4,3,5,-4,-1,-6,-16,0,0,118,-491
-8,-4,3,6,-4,-1,-6,-16,0,0,119,-434
-8,-4,3,6,-4,-1,-6,-16,0,1,119,-386
-8,-4,3,6,-4,-1,-6,-16,0,1,120,-351
-8,-4,3,6,-4,-1,-6,-16,0,2,121,-325
-8,-4,3,6,-4,-1,-6,-16,0,2,122,-303
-8,-4,3,6,-5,-1,-6,-16,0,3,122,-283
-8,-4,3,6,-5,0,-6,-16,0,4,123,-261
-8,-4,3,6,-5,0,-5,-16,0,5,124,-237
-8,-4,4,6,-6,0,-5,-15,0,6,124,-216
-8,-3,4,5,-6,0,-4,-15,0,7,124,-199
-8,-3,5,5,-6,1,-4,-14,0,8,124,-189
-8,-2,5,5,-6,1,-3,-14,0,9,124,-186
-8,-2,6,5,-6,2,-2,-13,0,9,124,-187
-9,-2,7,5,-7,2,0,-11,0,10,125,-192
-10,-2,8,6,-8,2,3,-8,1,11,125,-199
-11,-2,9,6,-9,3,7,-4,4,14,126,-207
-11,-1,10,6,-10,4,10,0,8,18,129,-218
-11,1,12,4,-11,7,14,7,14,23,133,-236
-10,5,14,2,-11,9,17,14,21,30,138,-255
-8,9,16,0,-11,12,20,21,29,39,145,-269
-4,14,18,-5,-11,16,22,30,39,50,155,-282
0,21,20,-11,-9,20,23,39,50,64,168,-291
7,29,21,-18,-7,25,22,47,62,78,182,-288
15,36,21,-26,-3,29,19,51,70,91,195,-274
22,43,20,-33,1,32,13,51,75,102,206,-259
30,50,19,-40,5,34,6,49,78,111,216,-244
37,55,17,-46,10,36,0,47,79,117,221,-231
42,57,15,-50,15,36,-6,42,77,117,222,-227
46,57,11,-51,18,35,-13,35,71,113,218,-237
47,56,8,-51,20,33,-19,24,61,104,209,-250
44,54,8,-49,18,31,-26,5,43,90,198,-257
39,50,9,-45,15,30,-35,-21,18,71,182,-256
34,44,9,-39,12,26,-45,-51,-11,49,163,-251
29,37,7,-33,11,22,-54,-78,-37,29,146,-236
26,31,6,-29,10,18,-61,-94,-54,15,134,-204
22,27,5,-25,9,16,-65,-101,-62,6,126,-166
19,23,3,-21,8,13,-66,-102,-65,1,121,-140
15,18,2,-17,7,11,-67,-99,-65,-1,117,-127
12,15,1,-14,6,8,-66,-94,-63,-3,114,-117
10,12,0,-11,5,7,-64,-87,-59,-3,112,-103
8,10,1,-10,4,6,-59,-78,-54,-1,111,-93
6,8,1,-8,2,5,-53,-68,-48,0,110,-95
5,7,2,-6,1,5,-46,-59,-41,2,109,-105
3,6,4,-5,0,5,-40,-51,-35,5,109,-110
1,6,6,-4,-2,6,-36,-44,-29,8,110,-109
0,6,7,-3,-3,7,-32,-39,-25,11,111,-107
-2,6,8,-2,-5,7,-28,-34,-21,14,112,-104
-4,5,8,0,-5,7,-24,-30,-18,15,112,-102
-4,4,8,0,-6,6,-21,-26,-16,17,112,-99
-5,2,7,0,-6,5,-17,-23,-14,18,112,-93
-5,1,6,1,-6,4,-15,-20,-12,19,111,-79
-6,0,6,2,-6,3,-13,-18,-11,20,111,-61
-7,-1,5,3,-6,2,-12,-17,-10,21,111,-38
-7,-2,5,5,-6,1,-11,-16,-10,21,110,-9
-8,-3,4,5,-6,1,-11,-16,-9,22,110,15
-8,-4,4,6,-6,0,-11,-16,-9,23,109,28
-8,-4,5,6,-6,0,-11,-15,-9,23,108,34
-8,-4,5,6,-6,0,-10,-15,-9,24,107,38
-8,-3,5,6,-6,0,-9,-14,-9,24,107,40
-9,-3,5,6,-6,0,-8,-14,-9,25,106,40
-9,-3,5,6,-7,1,-8,-13,-9,27,106,39
-9,-3,6,6,-7,1,-8,-13,-9,28,105,36
-9,-3,6,6,-7,1,-7,-13,-9,29,105,31
-9,-3,5,5,-7,1,-7,-13,-9,30,105,25
-8,-3,5,5,-6,1,-7,-13,-9,31,105,21
-8,-3,5,5,-6,1,-7,-12,-9,31,105,20
-8,-3,5,5,-6,1,-6,-12,-8,31,105,20
-8,-3,5,5,-6,0,-6,-12,-8,32,105,17
-8,-3,4,5,-6,0,-6,-12,-8,32,105,12
-8,-4,4,5,-5,0,-6,-12,-8,33,105,3
-8,-4,4,5,-5,0,-6,-12,-8,34,105,-5
-8,-3,4,5,-5,0,-6,-12,-8,35,105,-11
-7,-3,4,5,-5,0,-6,-11,-8,36,105,-15
-7,-3,4,5,-5,0,-6,-11,-8,37,104,-17
-7,-3,4,5,-5,0,-6,-11,-8,37,102,-18
-7,-3,3,5,-5,0,-5,-10,-8,37,101,-19
-7,-3,3,5,-5,0,-5,-10,-8,37,99,-20
-7,-3,3,5,-5,0,-4,-10,-8,37,97,-22
-7,-3,3,5,-5,0,-4,-10,-8,37,95,-26
-7,-3,3,5,-5,0,-4,-9,-8,38,93,-31
-7,-3,3,5,-5,0,-3,-9,-8,38,92,-36
-7,-3,3,5,-5,0,-3,-9,-8,38,90,-41
-8,-3,3,5,-5,0,-3,-8,-8,38,88,-47
-8,-3,3,5,-5,0,-3,-8,-8,38,86,-52
-8,-3,3,5,-6,0,-2,-7,-8,38,84,-57
-8,-3,4,5,-6,0,-2,-7,-8,38,82,-65
-8,-3,4,5,-6,0,-1,-7,-9,38,80,-79
-8,-3,4,5,-6,0,-1,-7,-9,38,78,-93
-8,-3,4,5,-6,0,-1,-6,-9,39,77,-105
-7,-2,4,4,-5,1,-1,-6,-9,40,75,-114
-7,-2,4,4,-5,1,-1,-5,-9,40,74,-121
-7,-2,4,4,-5,1,-1,-5,-9,41,73,-130
-7,-2,4,4,-5,1,-1,-5,-9,41,72,-142
-7,-2,4,4,-5,1,0,-5,-9,41,71,-154
-7,-1,4,4,-5,1,0,-4,-9,41,70,-169
-7,-1,4,4,-5,1,0,-4,-9,41,67,-202
-8,-2,4,5,-6,1,1,-4,-8,40,64,-253
-9,-2,4,5,-6,1,1,-3,-8,39,62,-267
-8,-1,5,5,-6,2,2,-3,-7,39,59,-230
-8,0,5,4,-6,2,3,-2,-7,38,56,-256
-8,0,6,4,-6,2,4,-1,-6,38,53,-443
-7,0,6,4,-6,3,4,0,-6,38,51,-695
-7,0,7,3,-6,3,5,1,-6,39,49,-840
-7,0,7,3,-6,4,6,1,-5,39,48,-874
-7,0,7,4,-7,4,6,2,-4,40,47,-822
-7,1,7,3,-7,4,7,2,-4,40,45,-474
-7,2,7,3,-7,5,8,3,-3,40,43,186
-7,2,7,2,-7,5,10,4,-2,40,41,850
-6,3,8,1,-7,6,11,6,-1,41,39,600
-6,4,9,1,-8,7,12,7,0,42,38,-253
-6,5,9,1,-8,7,13,8,0,48,39,-811
-6,6,10,0,-8,8,14,9,1,57,42,-436
-4,7,10,-1,-7,8,15,11,3,62,44,512
-3,8,10,-2,-7,9,16,12,4,62,46,981
-3,9,10,-3,-7,9,17,13,6,56,47,1176
-3,9,10,-3,-7,10,18,14,7,49,47,1218
-3,9,10,-2,-7,10,18,14,8,44,48,1180
-3,9,10,-2,-7,10,18,15,9,41,50,1103
-2,9,10,-3,-6,9,18,15,10,38,53,1015
-2,8,9,-3,-5,9,17,16,12,35,56,914
-2,8,9,-3,-5,8,17,16,13,32,59,725
-1,8,8,-3,-4,8,16,16,15,30,62,428
-1,8,8,-3,-4,8,15,17,16,29,66,115
0,8,7,-3,-4,7,14,17,17,29,71,-151
0,8,7,-3,-3,7,13,18,17,30,75,-371
0,7,6,-3,-3,7,12,18,17,31,77,-553
0,6,6,-3,-3,7,11,19,17,31,78,-698
0,6,5,-3,-3,7,11,19,17,31,77,-797
0,7,5,-3,-2,7,10,19,17,31,77,-848
0,7,5,-4,-2,7,9,19,16,31,78,-869
0,7,5,-4,-2,6,8,19,15,30,79,-877
0,7,5,-4,-2,6,8,19,14,28,79,-871
0,7,4,-4,-2,6,7,19,13,24,79,-845
0,7,4,-4,-2,6,7,19,12,20,79,-804
0,7,4,-4,-2,6,7,19,11,17,79,-767
0,7,4,-4,-2,6,7,20,11,15,79,-745
1,7,4,-4,-2,6,7,20,10,13,79,-736
1,7,4,-4,-1,6,8,21,9,11,80,-729
2,7,4,-4,-1,6,8,21,8,8,82,-713
2,8,4,-5,0,6,8,22,8,6,85,-689
3,9,4,-6,0,6,8,22,7,5,90,-664
3,9,4,-7,0,7,8,22,7,4,96,-636
4,9,4,-7,0,7,8,22,6,3,101,-606
4,9,3,-7,1,7,8,22,6,2,105,-595
4,9,3,-7,1,7,8,22,6,1,108,-620
4,9,3,-7,1,7,8,21,6,1,110,-664
4,9,4,-7,1,7,8,21,6,1,111,-698
4,9,4,-7,1,7,7,20,6,3,112,-716
4,9,4,-7,1,7,7,19,6,6,114,-724
5,10,4,-7,1,7,6,19,6,10,115,-722
5,10,4,-7,1,7,6,18,6,13,116,-704
5,10,4,-7,1,7,6,18,6,15,116,-675
5,10,4,-7,1,7,6,18,6,17,115,-651
6,10,4,-8,1,7,6,17,7,18,112,-638
6,11,4,-9,1,7,5,16,7,18,106,-630
6,11,4,-9,1,8,5,16,8,19,101,-625
6,11,5,-9,0,8,4,15,8,19,95,-626
5,12,5,-9,0,9,4,14,8,19,90,-631
5,12,6,-8,0,9,4,13,8,18,86,-626
5,12,6,-8,0,10,4,12,8,18,83,-604
4,12,7,-8,-1,10,4,12,8,19,81,-573
4,12,7,-8,-1,10,3,11,8,20,79,-544
4,12,8,-8,-2,10,3,10,8,22,77,-520
4,12,8,-7,-2,10,3,10,7,24,76,-500
3,12,9,-7,-3,10,2,9,7,26,75,-485
3,12,9,-7,-3,10,2,8,6,27,73,-466
2,12,9,-7,-3,11,2,7,6,27,69,-443
2,12,9,-7,-4,11,2,6,5,24,66,-423
1,12,10,-6,-4,11,2,5,5,18,64,-414
0,12,10,-6,-5,11,2,4,4,11,62,-413
0,11,11,-5,-6,11,2,3,4,5,61,-419
-1,11,11,-4,-7,11,1,2,3,1,59,-431
-2,10,11,-3,-7,11,1,1,2,-2,58,-448
-3,10,12,-3,-8,11,1,0,1,-5,57,-468
-3,9,12,-3,-8,11,0,-1,0,-7,57,-488
-4,9,12,-2,-8,11,0,-2,-1,-9,56,-509
-4,9,12,-2,-8,11,0,-3,-1,-9,56,-527
-5,9,12,-2,-8,11,0,-4,-2,-8,55,-545
-5,8,12,-1,-9,11,0,-5,-3,-7,55,-562
-6,8,13,-1,-9,11,0,-6,-3,-7,54,-577
-6,8,13,-1,-10,11,0,-6,-4,-7,54,-593
-6,8,14,-1,-10,11,0,-7,-5,-7,54,-610
-7,9,16,-1,-11,12,-1,-8,-6,-8,54,-623
-7,12,19,-2,-13,15,-1,-9,-8,-8,54,-630
-7,14,21,-3,-14,18,-2,-10,-9,-9,54,-634
-7,16,22,-4,-15,19,-2,-11,-10,-9,55,-638
-8,16,23,-4,-16,20,-2,-11,-10,-9,55,-647
-9,16,24,-3,-16,20,-2,-11,-10,-9,56,-657
-9,15,24,-3,-16,20,-1,-11,-10,-9,57,-669
-9,15,23,-2,-16,19,-1,-11,-10,-8,58,-684
-9,14,22,-2,-15,18,0,-11,-10,-7,59,-696
-8,12,20,-2,-14,16,0,-11,-10,-5,59,-701
-8,11,18,-1,-13,14,1,-10,-9,-4,60,-704
-8,9,17,0,-12,13,2,-10,-8,-2,60,-703
-8,8,15,0,-11,11,3,-9,-8,-1,61,-701
-8,7,13,0,-10,10,3,-8,-7,-1,61,-698
-8,6,12,1,-10,9,4,-8,-7,0,62,-694
-7,5,11,1,-9,8,5,-7,-6,0,66,-692
-7,4,10,1,-8,7,5,-6,-6,1,70,-693
-6,3,8,1,-7,6,6,-5,-5,2,72,-697
-5,2,7,1,-7,5,6,-5,-4,3,74,-705
-5,1,6,2,-6,4,6,-4,-4,4,74,-717
-5,0,5,2,-6,3,6,-4,-4,5,73,-733
-5,0,5,2,-5,3,6,-3,-4,5,73,-737
-4,1,5,1,-4,3,6,-3,-4,6,73,-715
-4,1,5,1,-4,3,5,-4,-4,6,73,-681
-5,0,4,2,-4,2,4,-4,-4,7,74,-641
-5,-1,3,3,-4,0,3,-4,-4,7,76,-599
-5,-3,2,3,-3,-1,2,-4,-5,8,79,-558
-5,-4,0,4,-2,-2,1,-5,-5,8,81,-517
-6,-5,0,5,-2,-3,0,-5,-6,8,83,-474
-6,-6,-1,6,-2,-4,0,-5,-6,7,84,-431
-6,-6,-2,6,-2,-4,-1,-6,-6,7,85,-392
-6,-7,-3,7,-2,-5,-1,-6,-6,6,85,-360
-6,-7,-3,7,-2,-5,-2,-6,-6,6,84,-333
-6,-8,-4,7,-1,-6,-2,-6,-6,6,84,-306
-6,-9,-4,8,-1,-7,-1,-6,-6,5,84,-278
-6,-10,-5,8,0,-7,-1,-6,-6,5,83,-255
-6,-10,-5,8,0,-7,-1,-6,-5,4,83,-238
-6,-10,-5,8,0,-7,-1,-5,-4,4,81,-225
-6,-10,-5,8,0,-7,-1,-5,-4,3,80,-213
-6,-11,-6,9,0,-8,-1,-5,-4,2,78,-201
-6,-11,-6,9,0,-8,-1,-4,-3,2,76,-194
-6,-11,-6,8,0,-8,-1,-4,-3,2,74,-191
-6,-11,-6,8,0,-8,-1,-4,-2,1,72,-189
-6,-11,-6,9,0,-9,0,-4,-1,1,71,-187
-6,-11,-7,9,0,-9,0,-4,-1,0,71,-182
-5,-11,-7,8,1,-9,0,-3,0,0,70,-181
-5,-11,-7,8,1,-9,0,-3,0,0,68,-185
-6,-11,-7,9,1,-9,0,-2,0,-1,67,-192
-6,-11,-7,9,0,-9,0,-2,0,-3,65,-199
-6,-12,-7,9,0,-9,0,-2,0,-4,64,-204
-6,-12,-7,9,0,-9,0,-2,0,-5,64,-205
-6,-11,-7,9,0,-8,1,-2,0,-6,63,-200
-6,-11,-7,9,0,-8,1,-2,0,-6,63,-191
-7,-12,-7,9,0,-9,1,-2,0,-6,63,-186
-7,-12,-6,10,0,-9,1,-1,1,-6,63,-190
-7,-12,-6,10,0,-9,2,-1,1,-7,63,-199
-7,-12,-6,9,0,-9,2,0,1,-7,63,-210
-7,-12,-6,9,0,-9,2,0,1,-8,63,-221
-7,-12,-7,9,0,-10,2,0,1,-9,63,-227
-7,-12,-7,9,0,-10,2,0,1,-9,63,-230
-7,-13,-7,9,0,-10,2,0,1,-9,63,-230
-7,-13,-7,9,0,-10,2,0,1,-9,64,-229
-7,-13,-7,9,0,-10,2,0,1,-8,65,-229
-7,-13,-7,10,0,-10,3,0,1,-8,65,-223
-7,-13,-7,10,0,-10,3,0,1,-7,66,-207
-7,-13,-7,10,0,-10,3,0,1,-7,66,-186
-7,-13,-7,10,1,-10,3,0,1,-7,66,-166
-7,-13,-7,10,1,-10,3,0,1,-7,66,-146
-7,-13,-7,10,1,-10,4,0,1,-6,66,-126
-7,-13,-7,10,1,-10,4,0,1,-6,66,-106
-7,-13,-7,10,1,-10,4,0,1,-6,65,-90
-7,-13,-8,10,1,-10,4,0,1,-6,65,-80
-7,-14,-8,10,1,-11,4,0,1,-6,65,-73
-7,-14,-8,10,1,-11,4,0,1,-6,65,-65
-6,-14,-8,9,1,-11,4,0,0,-6,64,-53
-6,-14,-8,9,1,-11,4,0,0,-5,64,-41
-6,-14,-8,9,1,-11,4,0,0,-5,64,-32
-7,-14,-8,10,1,-11,4,-1,0,-4,63,-28
-7,-14,-8,10,1,-11,4,-1,0,-4,63,-30
-7,-14,-8,10,1,-11,4,-1,0,-3,62,-37
-7,-14,-9,10,1,-11,4,-1,0,-3,62,-43
-7,-15,-9,10,1,-11,4,-1,-1,-2,61,-50
-7,-15,-9,11,1,-11,3,-1,-1,-2,61,-58
-8,-15,-9,11,1,-11,3,-1,-1,-1,63,-66
-8,-15,-9,11,1,-11,3,-1,-1,0,65,-71
-8,-15,-9,11,1,-12,3,-1,-1,0,66,-75
-8,-16,-9,11,1,-12,3,0,-1,0,67,-77
-8,-16,-9,11,1,-12,4,0,-1,1,68,-76
-8,-16,-9,11,1,-12,4,0,-1,1,69,-69
-8,-16,-9,12,1,-13,4,0,-1,1,69,-54
-8,-17,-9,12,1,-13,4,0,-1,1,68,-36
-8,-17,-9,12,1,-13,5,0,-1,1,68,-15
-8,-17,-10,12,1,-13,5,0,-1,1,68,6
-8,-17,-11,13,1,-14,6,0,-1,1,67,26
-8,-18,-11,13,2,-14,6,0,-1,1,66,42
-8,-18,-11,13,2,-15,6,0,-2,1,63,49
-8,-18,-11,13,2,-15,6,0,-2,1,60,50
-8,-18,-11,13,1,-15,6,1,-2,1,59,52
-8,-18,-11,13,1,-14,7,1,-1,1,57,60
-8,-18,-11,13,2,-14,7,2,-1,2,56,78
-7,-17,-11,12,2,-14,7,2,0,2,56,106
-7,-16,-10,12,2,-13,7,3,0,2,55,141
-7,-16,-9,12,1,-13,7,3,0,2,54,180
-7,-15,-8,11,1,-12,7,2,0,2,53,219
-6,-14,-8,10,1,-11,6,2,0,2,52,252
-6,-15,-9,10,1,-11,5,1,-1,2,51,276
-7,-16,-9,11,1,-12,4,0,-2,1,50,292
-7,-16,-9,12,1,-12,3,0,-3,1,48,293
-8,-16,-9,12,1,-12,2,-1,-4,0,47,289
-8,-16,-9,12,1,-13,1,-1,-5,0,45,287
-9,-17,-9,13,1,-13,1,-2,-6,-1,43,280
-9,-17,-9,13,1,-14,0,-2,-6,-1,41,262
-9,-17,-9,13,1,-13,0,-2,-6,-1,40,242
-9,-17,-9,13,1,-13,0,-2,-6,-1,39,238
-9,-17,-10,13,1,-13,0,-2,-6,-1,37,262
-9,-17,-10,13,1,-13,0,-2,-6,-1,36,242
-9,-17,-10,13,1,-13,0,-2,-6,-1,34,137
-9,-17,-10,13,1,-13,0,-2,-6,-1,32,92
-9,-17,-10,13,1,-13,0,-2,-6,-1,29,116
-9,-17,-10,13,1,-13,0,-2,-6,-1,26,118
-9,-17,-10,13,1,-13,0,-2,-6,-1,24,165
-9,-17,-10,13,0,-13,0,-2,-6,-1,23,261
-9,-17,-10,13,0,-13,0,-2,-6,-1,22,320
-10,-17,-9,13,0,-13,0,-2,-6,-2,21,341
-11,-18,-9,14,0,-13,1,-1,-6,-3,20,374
-12,-17,-7,14,-1,-13,3,0,-5,-3,19,418
-12,-16,-6,14,-2,-12,6,4,-2,-2,19,437
-12,-15,-4,14,-3,-10,10,9,2,1,21,418
-12,-14,-3,14,-4,-9,13,16,8,6,25,368
-12,-12,-1,12,-5,-7,16,23,15,13,30,314
-9,-8,0,9,-5,-4,19,31,24,22,39,273
-6,-3,1,5,-4,0,20,40,34,34,50,241
-2,3,3,0,-3,3,21,50,47,49,63,219
4,10,4,-7,0,7,22,61,60,65,77,206
11,18,4,-14,3,11,20,68,72,80,91,197
19,25,3,-22,8,14,16,71,79,93,105,188
26,31,2,-28,12,16,10,69,83,103,115,177
33,34,0,-33,17,17,4,65,84,107,121,160
38,36,-3,-37,21,16,-2,59,80,107,121,141
42,35,-7,-39,25,14,-8,51,72,100,115,130
43,34,-10,-38,27,12,-15,38,60,89,105,119
41,32,-11,-36,26,10,-21,18,40,74,91,96
36,29,-9,-32,23,9,-29,-9,14,52,73,66
30,24,-8,-27,20,7,-39,-42,-17,28,52,35
26,18,-9,-22,18,4,-47,-69,-45,6,34,3
22,12,-10,-17,17,0,-53,-85,-62,-8,21,-25
19,8,-11,-13,16,-2,-57,-93,-71,-16,13,-49
16,4,-12,-10,15,-4,-59,-94,-74,-21,7,-70
13,1,-13,-7,14,-6,-59,-92,-74,-24,2,-89
11,-1,-14,-4,13,-7,-59,-88,-72,-25,0,-107
8,-3,-13,-3,11,-8,-57,-81,-68,-24,-2,-123
6,-3,-12,-1,10,-8,-53,-72,-63,-23,-3,-137
5,-4,-11,0,8,-8,-48,-63,-56,-20,-4,-148
4,-4,-10,0,7,-7,-41,-53,-49,-16,-4,-153
3,-4,-8,0,5,-6,-35,-44,-42,-12,-3,-155
2,-4,-6,1,4,-5,-30,-36,-36,-8,-1,-157
0,-4,-5,1,3,-4,-25,-30,-31,-5,0,-159
-1,-4,-4,2,2,-4,-21,-25,-26,-2,0,-163
-2,-4,-4,3,1,-4,-17,-21,-23,0,0,-169
-2,-5,-4,4,1,-5,-14,-17,-20,1,0,-175
-3,-6,-5,5,2,-6,-10,-13,-17,2,0,-181
-3,-8,-6,6,2,-7,-7,-10,-15,2,0,-188
-4,-10,-7,7,2,-8,-5,-8,-13,3,0,-195
-4,-11,-8,7,2,-9,-4,-6,-12,3,0,-201
-4,-12,-8,8,2,-10,-3,-5,-11,4,0,-205
-5,-12,-9,8,2,-10,-2,-4,-11,4,0,-208
-5,-12,-9,8,2,-11,-2,-4,-11,4,0,-212
-5,-12,-9,8,2,-11,-2,-4,-10,4,0,-218
-5,-12,-9,8,2,-11,-1,-3,-10,4,0,-218
-5,-12,-9,8,2,-11,0,-2,-10,4,0,-210
-5,-12,-9,8,2,-11,1,-1,-9,4,0,-207
-5,-12,-8,8,2,-10,1,0,-8,3,0,-215
-5,-12,-8,9,1,-10,2,0,-7,3,1,-227
-5,-12,-8,9,1,-10,2,0,-6,3,1,-235
-6,-12,-8,9,1,-10,3,1,-5,3,2,-240
-6,-12,-7,9,1,-10,4,1,-5,4,2,-243
-5,-12,-7,9,1,-10,5,2,-4,4,3,-243
-5,-12,-8,9,1,-10,5,2,-4,4,3,-244
-6,-14,-8,10,1,-11,6,2,-4,3,3,-249
-6,-14,-9,10,1,-11,6,3,-4,3,3,-257
-6,-14,-9,10,1,-11,7,3,-3,2,3,-265
-6,-14,-10,10,1,-12,7,4,-3,2,4,-272
-5,-14,-10,9,2,-12,8,4,-2,2,5,-279
-4,-13,-10,8,2,-11,8,5,-2,2,6,-286
-4,-12,-10,7,3,-11,9,6,-1,2,7,-295
-3,-11,-10,7,3,-11,9,7,-1,2,9,-302
-3,-11,-10,7,3,-10,9,7,-1,2,10,-301
-3,-11,-9,7,3,-9,9,8,-1,2,11,-291
-3,-10,-8,7,2,-9,9,8,-1,3,12,-283
-3,-10,-8,7,2,-8,9,8,0,3,12,-281
-2,-9,-8,6,2,-8,8,8,0,3,13,-283
-2,-9,-8,6,3,-9,7,8,0,3,14,-287
-3,-10,-8,7,2,-9,6,7,-1,2,14,-292
-4,-12,-8,8,2,-10,5,6,-1,2,14,-299
-4,-12,-9,8,2,-10,4,5,-1,2,14,-308
-4,-12,-9,7,3,-10,3,5,-1,2,15,-317
-4,-12,-10,7,3,-11,2,4,-1,2,15,-324
-4,-13,-10,8,3,-11,2,4,-1,2,16,-329
-3,-13,-10,8,4,-11,1,4,-1,1,16,-334
-3,-12,-10,8,4,-11,1,4,0,1,17,-339
-3,-12,-10,8,4,-11,1,4,0,1,17,-342
-3,-12,-10,8,4,-11,1,4,1,2,18,-345
-3,-12,-10,8,4,-11,1,4,2,2,19,-350
-3,-12,-10,8,4,-11,1,4,3,2,20,-355
-3,-12,-10,8,4,-11,2,4,4,2,21,-358
-3,-12,-10,8,4,-11,2,4,5,2,21,-358
-3,-12,-10,8,4,-11,2,4,7,2,22,-357
-3,-12,-10,8,4,-11,2,4,8,2,22,-354
-3,-13,-10,8,4,-11,2,4,8,3,22,-348
-3,-13,-10,8,4,-11,2,5,9,3,22,-342
-3,-13,-11,8,4,-11,3,5,10,4,23,-338
-3,-13,-11,8,4,-11,3,5,11,4,23,-334
-3,-13,-11,8,4,-11,3,5,12,4,24,-331
-3,-13,-11,8,4,-11,3,6,13,4,24,-329
-3,-13,-11,8,4,-12,3,6,14,4,25,-329
-3,-13,-11,8,4,-12,3,6,15,4,25,-332
-3,-13,-11,8,4,-12,4,7,16,4,25,-335
-3,-13,-11,8,4,-12,5,7,17,5,25,-338
-3,-13,-11,8,4,-12,5,8,17,5,25,-341
-3,-13,-11,8,4,-12,6,9,18,6,25,-342
-2,-13,-11,8,5,-12,6,9,19,7,25,-343
-3,-13,-11,8,5,-11,7,10,19,8,26,-342
-3,-13,-11,7,5,-11,7,10,20,9,27,-340
-2,-12,-11,7,5,-11,8,11,20,11,28,-337
-1,-11,-11,6,5,-11,8,11,21,12,29,-333
-1,-11,-11,6,5,-11,8,12,22,13,30,-327
-1,-11,-11,6,5,-11,9,14,23,14,31,-322
-2,-11,-11,7,4,-11,9,15,24,15,33,-318
-1,-11,-11,6,5,-11,9,16,25,17,34,-313
-1,-11,-11,6,5,-11,9,17,26,18,36,-307
-1,-11,-11,6,5,-11,9,17,26,20,37,-299
-1,-11,-11,6,5,-11,10,18,27,21,38,-292
0,-10,-11,5,6,-10,10,19,28,22,39,-285
0,-10,-11,4,6,-10,11,20,29,23,41,-279
0,-9,-11,4,6,-10,11,22,30,24,42,-271
1,-9,-12,4,6,-9,11,23,31,24,43,-257
1,-9,-12,3,6,-9,11,24,32,25,44,-240
1,-8,-12,3,7,-9,11,25,33,27,45,-229
2,-8,-11,3,7,-9,12,25,34,28,46,-226
2,-7,-11,2,7,-9,12,26,34,30,47,-228
3,-7,-11,2,8,-9,12,28,35,31,49,-237
3,-7,-11,1,8,-9,13,29,36,31,50,-252
4,-6,-11,1,8,-9,13,30,37,31,51,-264
5,-5,-11,0,8,-8,13,32,39,31,52,-265
5,-4,-11,-1,9,-8,14,33,40,31,52,-256
6,-2,-11,-2,9,-7,15,35,41,32,53,-245
6,-2,-11,-2,9,-6,16,36,42,32,54,-235
7,-1,-11,-3,9,-6,17,37,43,32,54,-236
7,-1,-10,-3,9,-5,17,38,43,33,54,-266
8,0,-10,-3,9,-5,18,39,44,33,55,-312
8,0,-10,-4,9,-4,19,40,45,33,56,-334
8,0,-10,-4,9,-4,20,41,46,33,56,-373
8,1,-10,-5,10,-4,21,42,47,33,57,-464
8,1,-10,-5,10,-4,21,42,48,33,58,-543
9,1,-10,-5,11,-5,21,43,48,33,59,-560
9,1,-10,-5,11,-5,21,43,48,32,59,-517
10,0,-11,-5,11,-5,21,43,48,32,60,-435
10,0,-11,-5,11,-5,21,43,48,32,60,-343
10,1,-11,-5,11,-5,21,43,48,32,60,-242
10,1,-11,-6,11,-5,21,44,48,32,60,-145
11,2,-11,-6,11,-4,22,44,48,31,59,-85
11,3,-11,-7,11,-4,22,44,48,31,58,-37
12,3,-10,-7,11,-3,21,44,48,30,57,29
12,4,-10,-8,11,-3,21,43,48,29,57,102
12,5,-9,-9,11,-2,20,43,48,29,58,178
13,5,-9,-9,11,-2,19,42,48,28,59,249
12,5,-9,-9,11,-2,18,41,47,27,59,289
12,5,-9,-9,11,-2,17,40,45,25,60,300
12,5,-8,-9,11,-1,16,38,44,24,59,309
12,4,-8,-8,11,-1,14,35,42,23,59,329
11,4,-8,-8,10,-2,13,33,41,22,59,359
10,4,-8,-7,10,-2,12,31,39,21,60,402
9,4,-7,-7,9,-2,11,29,38,20,61,457
8,3,-7,-6,9,-2,10,27,36,19,61,515
7,2,-7,-5,8,-2,9,24,34,18,63,568
6,1,-6,-4,7,-2,8,22,32,17,64,617
5,1,-6,-3,7,-2,7,20,30,16,66,661
5,0,-6,-2,7,-2,6,19,29,15,68,705
4,0,-6,-2,6,-3,5,17,28,14,71,748
3,-1,-6,-1,5,-3,4,15,27,14,72,786
3,0,-6,-1,5,-3,4,14,26,13,74,825
3,0,-6,-1,5,-3,4,12,25,13,75,868
1,-2,-6,0,4,-4,3,11,23,12,75,912
0,-3,-6,1,4,-4,3,9,22,11,76,951
0,-4,-6,2,4,-4,2,8,21,10,76,978
0,-4,-6,2,4,-4,2,7,20,9,77,997
-1,-5,-6,3,3,-5,1,6,19,8,77,1009
-1,-5,-6,3,3,-5,1,5,19,7,78,1016
-1,-5,-6,3,3,-5,1,4,19,6,79,1022
-2,-5,-6,4,2,-5,1,3,18,6,80,1030
-2,-6,-6,4,3,-5,0,3,18,5,81,1039
-2,-6,-7,4,3,-5,0,2,17,4,83,1049
-2,-6,-7,4,3,-5,0,1,17,3,86,1060
-2,-7,-6,5,3,-5,0,0,16,2,89,1072
-3,-7,-6,5,2,-5,0,0,15,1,92,1088
-3,-7,-6,5,2,-6,0,-1,15,0,96,1111
-3,-7,-6,5,2,-6,0,-1,14,-1,99,1137
-4,-8,-6,6,2,-7,-1,-1,14,-2,101,1164
-4,-8,-6,6,2,-7,-1,-1,13,-3,104,1188
-4,-8,-6,6,2,-7,-1,-2,13,-3,108,1203
-4,-8,-6,6,2,-7,-1,-2,12,-4,110,1201
-4,-8,-6,6,2,-7,-1,-2,12,-6,111,1188
-4,-8,-6,6,2,-7,-2,-2,12,-7,109,1170
-4,-8,-6,6,2,-7,-2,-3,12,-8,106,1152
-4,-8,-6,7,1,-7,-2,-3,12,-9,103,1135
-5,-8,-6,7,1,-7,-2,-4,11,-9,99,1121
-5,-8,-6,7,1,-7,-2,-4,11,-9,96,1107
-5,-9,-6,7,1,-7,-2,-4,11,-9,94,1090
-6,-9,-6,8,1,-7,-2,-4,10,-9,91,1071
-6,-10,-6,8,0,-7,-2,-5,10,-9,86,1048
-6,-10,-6,8,0,-7,-2,-5,10,-9,82,1022
-6,-9,-5,8,0,-7,-2,-5,10,-8,78,994
-6,-9,-5,8,0,-6,-2,-5,9,-8,74,962
-5,-8,-5,7,0,-6,-2,-5,9,-7,71,929
-5,-8,-5,7,0,-6,-2,-5,10,-5,68,897
-5,-8,-5,7,0,-6,-2,-4,10,-4,65,868
-5,-7,-5,7,0,-5,-2,-4,11,-2,63,843
-4,-7,-5,7,0,-5,-2,-4,11,-1,62,820
-4,-6,-4,6,0,-5,-2,-4,12,0,61,800
-4,-6,-4,6,0,-4,-1,-4,13,0,60,783
-4,-5,-3,6,0,-4,-1,-4,14,1,59,770
-4,-5,-3,6,0,-4,-1,-4,15,1,59,759
-4,-5,-3,6,0,-3,-1,-4,15,2,58,751
-4,-5,-2,5,0,-3,0,-4,16,3,57,743
-4,-5,-2,5,0,-3,0,-4,16,4,56,733
-4,-5,-3,5,0,-3,0,-3,16,5,55,723
-4,-5,-3,5,0,-4,0,-3,17,6,54,711
-4,-6,-4,5,0,-4,1,-2,17,6,54,700
-4,-6,-4,5,0,-4,1,-2,18,7,53,691
-3,-6,-4,5,1,-4,1,-2,18,8,51,681
-3,-6,-4,5,1,-4,1,-1,18,9,50,673
-3,-6,-4,5,0,-4,1,-1,18,10,49,667
-3,-6,-4,5,0,-5,2,0,18,11,48,660
-3,-6,-5,6,0,-5,2,0,18,12,47,653
-3,-6,-5,6,0,-5,2,0,18,13,46,645
-3,-6,-5,6,0,-5,2,0,18,13,46,633
-3,-6,-4,6,0,-5,2,1,18,13,45,621
-3,-6,-4,6,0,-5,3,1,18,13,44,608
-3,-6,-4,6,0,-5,3,1,18,13,43,595
-3,-5,-4,5,0,-4,3,2,18,13,42,584
-3,-5,-3,5,0,-4,4,2,18,14,40,572
-3,-5,-3,4,0,-4,4,3,18,14,39,561
-2,-5,-4,4,0,-4,4,3,18,13,38,551
-2,-4,-4,3,0,-3,4,3,18,13,38,540
-2,-4,-4,3,0,-3,4,3,18,12,38,531
-1,-4,-4,3,1,-3,3,3,18,11,37,523
-1,-3,-4,2,1,-3,3,3,18,10,36,514
-1,-3,-3,2,1,-3,2,3,18,9,35,507
-1,-3,-3,2,1,-3,1,2,18,8,33,499
-1,-3,-3,2,1,-3,0,2,18,7,32,491
-1,-3,-3,2,1,-3,0,1,18,6,31,483
-1,-3,-3,3,0,-3,-1,1,17,5,29,475
-1,-3,-3,3,0,-3,-1,0,17,3,28,468
-1,-3,-3,3,0,-3,-1,0,17,2,27,463
-1,-3,-3,3,0,-3,-1,0,17,1,26,457
-1,-3,-3,3,0,-3,-2,0,17,0,25,453
-1,-4,-3,3,0,-3,-2,0,17,0,24,448
-2,-4,-3,3,0,-3,-2,0,17,-1,23,442
-2,-4,-3,3,0,-3,-2,0,17,-2,22,435
-3,-4,-2,3,0,-3,-2,0,17,-2,21,430
-3,-4,-2,3,0,-3,-2,0,17,-3,21,429
-3,-4,-3,3,0,-3,-2,0,16,-3,20,431
-3,-4,-3,4,0,-3,-2,0,16,-3,19,431
-3,-5,-3,4,0,-3,-3,-1,15,-4,18,429
-3,-5,-3,4,0,-3,-3,-1,15,-4,17,427
-3,-5,-3,4,0,-4,-3,-1,14,-4,16,424
-2,-5,-3,3,0,-4,-3,-1,14,-5,16,421
-2,-5,-3,3,0,-4,-4,-1,14,-5,15,416
-3,-5,-3,4,0,-4,-4,-1,13,-5,14,411
-3,-5,-3,4,0,-4,-4,-2,13,-6,13,405
-3,-5,-3,4,0,-4,-4,-2,12,-6,13,399
-3,-5,-3,4,0,-4,-4,-3,12,-6,12,393
-3,-5,-3,4,0,-4,-4,-3,12,-7,12,390
-3,-5,-3,5,0,-4,-4,-3,12,-7,11,386
-3,-5,-3,5,0,-4,-4,-3,12,-8,11,381
-3,-5,-3,5,0,-4,-4,-3,12,-8,11,374
-4,-6,-2,5,0,-4,-4,-3,11,-8,12,367
-4,-6,-2,5,0,-4,-4,-3,11,-8,13,360
-3,-5,-2,5,0,-4,-4,-3,11,-8,14,356
-3,-5,-2,5,0,-4,-4,-3,11,-7,14,352
-3,-5,-2,5,0,-4,-3,-3,11,-7,15,350
-3,-5,-2,4,0,-4,-3,-3,12,-6,15,348
-2,-4,-2,4,0,-3,-2,-3,12,-6,15,345
-2,-4,-2,4,0,-3,-2,-3,12,-6,15,342
-2,-4,-2,4,0,-2,-2,-3,12,-6,15,339
-3,-4,-1,4,0,-2,-2,-3,12,-6,15,336
-3,-3,-1,3,0,-2,-2,-3,12,-6,15,334
-3,-3,0,3,0,-2,-2,-3,11,-6,15,333
-3,-3,0,3,-1,-2,-2,-3,11,-7,14,332
-4,-3,0,3,-1,-2,-2,-3,11,-7,14,332
-4,-2,0,3,-1,-1,-2,-2,11,-7,13,332
-4,-2,0,3,-1,-1,-1,-2,11,-7,13,332
-4,-2,0,3,-1,0,0,-1,11,-7,11,330
-4,-2,1,3,-2,0,2,1,12,-7,10,329
-5,-2,2,4,-3,0,5,4,14,-6,9,328
-6,-2,4,4,-4,0,8,8,18,-4,9,329
-6,0,5,4,-5,2,11,14,24,0,10,331
-6,2,7,2,-6,4,15,21,31,6,14,335
-5,5,9,0,-6,7,18,28,40,14,20,339
-2,10,11,-4,-6,10,20,37,50,25,29,345
2,16,12,-9,-4,14,21,47,62,39,42,355
9,24,13,-16,-1,18,22,58,76,55,57,366
16,31,13,-23,2,22,22,67,89,70,71,377
23,38,13,-30,5,25,18,71,99,83,85,388
30,44,13,-36,9,27,12,71,104,94,96,397
36,48,11,-41,13,28,5,68,106,100,103,403
41,49,7,-44,18,27,-1,63,103,100,104,404
45,49,2,-46,22,25,-8,56,96,95,100,401
47,46,-2,-46,25,22,-15,44,85,84,91,393
46,43,-4,-44,25,19,-21,27,68,69,78,383
42,39,-4,-41,22,18,-28,2,44,49,61,372
37,34,-4,-36,20,15,-37,-29,13,24,42,360
32,28,-5,-30,18,11,-46,-58,-16,1,23,348
28,22,-7,-25,17,7,-53,-78,-36,-16,9,338
24,17,-8,-21,16,4,-57,-88,-47,-26,0,330
20,12,-8,-16,14,2,-59,-91,-52,-32,-6,323
16,8,-9,-12,13,0,-60,-90,-53,-36,-11,315
13,4,-10,-8,12,-2,-59,-86,-52,-37,-15,308
11,1,-10,-6,11,-4,-57,-79,-49,-38,-16,302
9,0,-10,-5,10,-4,-52,-71,-43,-37,-17,298
8,0,-9,-3,8,-4,-46,-61,-37,-35,-18,295
6,0,-7,-2,6,-3,-39,-51,-30,-32,-17,292
4,1,-5,-2,5,-2,-33,-42,-23,-28,-16,291
3,2,-2,-2,3,0,-27,-34,-17,-23,-14,289
2,3,0,-2,1,1,-22,-28,-11,-20,-11,287
1,4,1,-2,0,2,-19,-24,-7,-17,-9,283
1,4,1,-2,0,3,-16,-20,-4,-15,-8,280
0,3,1,-1,0,2,-13,-16,-1,-14,-8,276
0,1,0,0,0,1,-11,-13,1,-13,-8,272
0,0,-1,1,0,0,-8,-10,2,-12,-9,269
-1,-2,-2,2,0,-2,-6,-8,4,-12,-9,265
-1,-4,-3,3,0,-3,-5,-7,4,-11,-9,262
-2,-5,-4,4,1,-4,-5,-6,5,-11,-9,259
-2,-6,-5,4,1,-5,-5,-6,5,-11,-9,256
-2,-6,-5,4,2,-6,-5,-6,5,-11,-9,253
-2,-6,-6,5,2,-6,-6,-6,4,-11,-9,250
-2,-7,-6,5,2,-7,-6,-6,4,-11,-10,247
-2,-8,-6,6,2,-7,-6,-6,3,-11,-10,245
-2,-8,-6,6,2,-7,-6,-6,3,-12,-11,242
-3,-9,-6,7,1,-8,-6,-5,2,-12,-11,239
-3,-9,-6,7,1,-8,-6,-5,1,-12,-11,236
-3,-9,-6,7,1,-8,-5,-5,1,-12,-11,232
-3,-9,-6,7,1,-8,-5,-4,1,-12,-11,229
-3,-9,-6,7,1,-8,-5,-4,2,-12,-11,226
-3,-8,-6,6,1,-7,-5,-4,2,-11,-11,224
-3,-8,-6,6,1,-7,-5,-3,3,-11,-11,223
-3,-7,-6,6,1,-7,-5,-3,3,-10,-11,221
-2,-7,-6,6,1,-6,-4,-2,3,-9,-11,220
-3,-7,-5,6,1,-6,-4,-2,3,-9,-11,218
-4,-8,-5,7,0,-6,-4,-2,3,-9,-12,215
-5,-8,-4,7,0,-6,-4,-2,3,-9,-12,213
-4,-7,-4,6,0,-5,-4,-2,4,-8,-12,212
-4,-7,-4,6,0,-5,-3,-2,4,-8,-12,211
-4,-7,-4,6,0,-6,-3,-2,3,-8,-12,211
-4,-7,-4,6,0,-6,-3,-2,3,-8,-12,210
-3,-7,-4,6,0,-6,-2,-1,3,-7,-12,209
-3,-7,-4,6,0,-6,-2,-1,4,-7,-12,208
-3,-7,-4,6,0,-6,-2,-1,4,-7,-12,208
-4,-7,-4,6,0,-6,-2,-1,4,-7,-13,208
-4,-7,-4,7,0,-6,-2,-1,4,-7,-13,208
-4,-7,-4,7,0,-6,-2,-1,4,-7,-14,207
-4,-7,-4,7,0,-6,-2,-1,4,-7,-14,206
-4,-7,-4,6,0,-6,-2,0,4,-6,-14,206
-3,-6,-4,6,0,-5,-1,0,4,-6,-14,205
-4,-6,-4,6,0,-5,-1,0,4,-5,-14,204
-4,-7,-4,6,0,-6,-1,0,4,-5,-15,204
-3,-7,-5,6,0,-6,-1,0,4,-5,-15,205
-3,-6,-5,5,0,-5,0,1,5,-5,-15,205
-3,-6,-4,5,0,-5,0,1,5,-4,-15,205
-3,-6,-4,6,0,-5,0,1,5,-4,-15,206
-3,-6,-4,6,0,-5,0,1,5,-3,-15,207
-3,-6,-4,6,0,-5,0,1,5,-3,-15,208
-3,-6,-4,6,0,-5,0,1,5,-3,-15,208
-2,-5,-4,5,0,-5,0,1,5,-2,-15,207
-2,-5,-4,5,0,-5,1,2,5,-2,-15,206
-2,-5,-4,5,0,-5,1,2,5,-2,-15,204
-2,-5,-3,5,0,-4,1,3,5,-2,-15,202
-2,-5,-3,5,0,-4,1,3,5,-2,-15,200
-2,-5,-3,5,0,-4,1,3,6,-2,-15,199
-2,-5,-3,5,0,-4,1,4,6,-1,-15,198
-2,-5,-3,4,0,-4,2,4,7,-1,-15,196
-1,-5,-4,4,0,-5,2,4,7,-1,-15,194
-1,-5,-4,4,0,-5,2,5,7,-1,-15,192
-1,-5,-4,4,0,-5,2,5,8,0,-15,189
-1,-5,-4,4,0,-5,3,6,8,0,-16,187
-1,-5,-4,4,1,-5,3,7,9,1,-16,185
-1,-5,-4,4,1,-5,3,7,9,1,-16,184
-1,-5,-4,4,1,-5,3,8,10,1,-16,183
-1,-5,-4,4,1,-5,4,8,10,1,-16,181
0,-5,-4,4,1,-5,4,9,11,2,-16,179
0,-5,-4,4,1,-5,5,9,11,2,-16,177
0,-4,-4,4,1,-5,5,10,12,3,-16,176
0,-4,-4,3,1,-5,6,11,13,3,-15,176
0,-4,-4,3,2,-5,7,13,14,4,-15,175
0,-4,-4,3,2,-5,7,14,15,4,-15,175
0,-4,-4,3,2,-5,8,15,16,5,-14,175
0,-3,-5,2,2,-5,8,16,17,5,-14,175
1,-3,-5,2,2,-5,9,17,18,6,-13,174
1,-3,-5,2,2,-5,10,18,19,7,-13,172
1,-3,-6,2,2,-5,11,20,20,8,-12,170
1,-3,-6,1,2,-5,12,21,21,9,-12,168
2,-3,-6,1,3,-5,14,23,22,10,-11,166
2,-2,-6,0,3,-5,15,25,23,11,-10,164
3,-2,-6,0,4,-5,17,26,24,12,-10,162
4,-1,-6,0,4,-5,18,28,25,13,-9,160
4,-1,-6,0,5,-4,18,30,27,13,-9,158
5,0,-6,-1,5,-4,19,31,28,14,-8,156
6,0,-6,-1,6,-3,19,33,29,16,-8,155
7,1,-6,-2,6,-3,20,34,30,17,-7,153
7,2,-6,-3,7,-3,20,34,31,17,-7,151
8,2,-7,-3,7,-3,20,35,31,18,-7,149
8,2,-7,-4,7,-3,20,35,32,18,-7,147
8,2,-7,-4,7,-3,19,35,32,19,-7,145
8,2,-7,-4,7,-3,18,35,32,19,-7,142
9,2,-7,-4,7,-3,17,35,32,19,-6,139
9,2,-7,-4,8,-3,16,35,32,19,-6,136
9,2,-8,-4,8,-3,15,35,32,19,-6,133
9,2,-8,-4,8,-3,14,35,32,19,-7,128
9,2,-8,-4,8,-3,13,35,32,19,-7,122
9,2,-8,-4,8,-3,12,35,32,19,-7,118
9,2,-8,-4,8,-3,11,35,32,19,-7,115
9,2,-8,-4,8,-3,11,35,32,19,-7,112
10,2,-8,-4,8,-3,10,35,32,19,-7,109
10,2,-8,-5,9,-3,10,35,32,19,-7,107
10,2,-8,-5,9,-3,10,34,32,19,-7,106
10,3,-8,-5,9,-3,10,34,32,19,-7,106
10,3,-8,-6,9,-3,9,34,32,19,-7,107
11,3,-8,-6,9,-3,9,33,31,19,-7,107
11,3,-8,-6,9,-3,9,33,31,19,-7,107
11,3,-8,-7,9,-3,9,32,31,19,-7,106
11,3,-8,-7,9,-2,8,31,30,19,-7,105
11,3,-8,-7,9,-2,8,30,30,19,-8,104
10,3,-8,-6,8,-2,7,29,29,19,-9,101
10,2,-7,-6,8,-2,6,27,28,18,-10,99
10,3,-7,-6,8,-2,5,26,27,18,-10,96
9,3,-7,-6,7,-2,5,25,26,18,-11,94
9,3,-6,-5,7,-2,4,24,25,17,-11,92
8,3,-6,-5,6,-2,4,22,24,17,-12,91
8,3,-6,-4,6,-2,3,21,23,16,-13,90
7,3,-6,-4,6,-2,3,19,22,15,-14,89
7,3,-6,-4,6,-2,2,18,21,15,-16,88
7,3,-6,-4,6,-2,2,16,20,15,-17,86
6,2,-5,-4,6,-2,1,15,19,14,-18,83
6,2,-5,-3,5,-2,1,13,18,13,-19,81
5,1,-5,-2,4,-2,1,12,17,12,-20,79
4,0,-5,-1,4,-2,1,10,16,11,-21,77
2,-1,-5,0,3,-2,0,9,14,9,-23,75
2,-2,-4,1,3,-3,0,7,13,8,-25,74
1,-2,-4,1,3,-3,0,6,12,7,-26,72
1,-2,-3,1,2,-3,-1,5,11,6,-27,70
0,-2,-3,2,2,-3,-1,4,10,6,-28,68
0,-2,-3,2,1,-3,-2,3,9,5,-28,65
0,-2,-3,2,1,-3,-2,2,8,4,-29,63
0,-2,-3,2,0,-3,-2,1,8,3,-29,62
0,-2,-3,2,0,-3,-2,0,7,3,-30,62
0,-3,-3,3,0,-3,-2,0,6,2,-30,62
-2,-4,-3,4,0,-4,-3,-1,6,2,-31,61
-3,-5,-3,5,0,-4,-3,-2,5,1,-31,60
-2,-5,-3,4,0,-4,-3,-2,5,1,-31,58
-2,-4,-2,4,0,-4,-3,-3,5,0,-31,57
-2,-4,-2,3,0,-4,-3,-3,4,0,-31,55
-2,-4,-2,3,0,-4,-3,-4,4,0,-30,54
-2,-4,-2,3,0,-4,-3,-4,4,0,-30,54
-2,-4,-2,3,0,-4,-3,-4,4,0,-30,54
-2,-4,-2,3,0,-3,-3,-4,4,-1,-30,54
-2,-4,-2,3,0,-3,-3,-5,3,-1,-30,53
-2,-4,-2,3,0,-3,-3,-5,3,-1,-31,53
-2,-4,-2,3,0,-3,-3,-5,3,-1,-31,52
-2,-4,-2,3,0,-3,-4,-5,3,-1,-31,50
-2,-4,-2,3,0,-3,-4,-5,3,-1,-31,49
-2,-4,-2,3,0,-3,-4,-5,3,-1,-31,49
-2,-4,-2,3,0,-3,-4,-5,3,-1,-31,47
-2,-4,-2,3,0,-3,-4,-6,3,-1,-31,46
-2,-4,-2,3,0,-3,-3,-6,3,-1,-31,44
-2,-4,-2,3,0,-3,-3,-6,3,-1,-31,42
-2,-3,-2,3,0,-3,-2,-6,3,-1,-31,40
-2,-3,-2,3,0,-3,-2,-6,3,-1,-31,38
-2,-3,-1,3,0,-3,-1,-5,3,-1,-31,37
-2,-3,-1,3,-1,-2,0,-5,3,-1,-31,37
-2,-3,0,3,-1,-2,0,-4,4,-1,-31,37
-2,-2,0,3,-2,-2,1,-4,4,-1,-30,36
-2,-2,0,3,-2,-1,2,-3,5,0,-29,36
-2,-2,0,3,-1,-1,3,-2,5,0,-29,34
-2,-1,0,2,-1,-1,3,-2,5,0,-29,32
-1,-1,0,1,0,-1,4,-1,5,0,-29,31
0,0,0,0,0,-1,5,-1,6,0,-29,31
0,0,0,0,0,0,5,0,6,0,-29,31
1,1,0,0,0,0,6,0,7,0,-29,31
1,1,0,-1,0,0,6,0,7,0,-28,32
1,1,0,-1,0,0,5,0,7,0,-26,32
0,1,0,-1,0,0,5,0,7,0,-24,32
0,1,0,0,0,0,4,0,7,0,-23,31
0,1,0,0,0,0,3,0,6,0,-22,30
0,0,0,0,0,0,2,0,6,0,-22,29
0,0,0,0,0,0,1,-1,5,0,-22,27
0,0,0,1,0,-1,0,-2,5,-1,-23,25
0,-1,-1,1,0,-1,-1,-2,4,-1,-24,23
-1,-2,-1,2,0,-2,-2,-3,4,-2,-25,21
-1,-2,-2,2,0,-3,-3,-3,3,-2,-26,19
-1,-3,-3,3,0,-3,-4,-4,3,-3,-26,18
-1,-3,-3,3,0,-3,-5,-4,3,-3,-27,17
-1,-3,-3,3,0,-3,-5,-4,3,-4,-27,16
-1,-3,-3,3,0,-3,-5,-5,2,-4,-27,15
-2,-4,-3,3,0,-4,-5,-5,2,-4,-27,14
-2,-4,-3,3,0,-4,-5,-5,2,-4,-27,13
-2,-4,-4,3,0,-4,-6,-5,2,-4,-27,13
-2,-4,-4,3,0,-4,-6,-5,2,-4,-27,12
-2,-4,-4,3,0,-4,-6,-5,2,-4,-27,11
-2,-4,-4,3,0,-4,-6,-4,2,-4,-27,10
-2,-4,-4,3,0,-4,-6,-4,2,-4,-26,8
-1,-4,-4,3,0,-4,-6,-4,2,-4,-26,6
-1,-4,-4,3,1,-4,-6,-4,3,-4,-27,4
-1,-4,-4,3,1,-4,-5,-4,3,-4,-27,3
-1,-4,-4,3,1,-4,-5,-4,3,-5,-27,2
-1,-4,-4,3,1,-4,-5,-4,3,-5,-27,0
-1,-4,-4,3,1,-4,-5,-4,3,-6,-27,0
-1,-4,-4,3,0,-4,-5,-4,3,-6,-27,0
-1,-4,-4,3,0,-4,-5,-4,2,-6,-26,-1
-1,-4,-4,3,0,-4,-5,-4,2,-6,-26,-1
-1,-4,-4,3,0,-4,-5,-4,1,-6,-26,-2
-1,-4,-4,3,0,-4,-5,-4,1,-6,-25,-3
-1,-4,-4,2,1,-4,-5,-4,1,-6,-24,-3
-1,-4,-4,2,1,-4,-5,-4,1,-6,-23,-4
-1,-4,-3,3,1,-4,-5,-4,1,-6,-22,-5
-1,-4,-3,3,1,-4,-5,-4,1,-6,-22,-5
-1,-4,-3,3,1,-4,-5,-4,1,-6,-22,-5
-1,-4,-3,3,0,-3,-4,-4,0,-6,-22,-6
-1,-3,-3,3,0,-3,-4,-4,0,-6,-22,-6
-1,-3,-3,2,0,-3,-4,-3,0,-6,-22,-6
-1,-3,-3,2,0,-3,-4,-3,0,-6,-22,-7
-2,-3,-3,3,0,-4,-5,-4,0,-6,-23,-8
-2,-3,-3,3,0,-4,-5,-4,0,-6,-23,-10
-1,-3,-2,2,0,-3,-4,-4,1,-6,-23,-11
-1,-2,-2,2,0,-3,-4,-4,1,-5,-23,-12
-1,-2,-2,2,0,-3,-4,-4,1,-5,-23,-13
-1,-3,-2,2,0,-3,-4,-4,1,-5,-23,-14
-1,-3,-2,3,0,-3,-4,-4,1,-5,-24,-14
-1,-3,-2,3,0,-3,-4,-4,1,-6,-24,-15
-1,-3,-2,3,0,-3,-4,-4,1,-6,-24,-15
-1,-3,-2,3,0,-3,-4,-4,1,-6,-24,-15
-1,-3,-2,3,0,-3,-4,-4,1,-7,-24,-15
-1,-3,-2,2,0,-3,-4,-4,1,-7,-23,-15
-1,-2,-2,2,1,-3,-4,-4,1,-7,-23,-16
0,-2,-3,1,1,-3,-3,-4,1,-7,-22,-16
-1,-2,-3,1,1,-3,-3,-4,1,-7,-22,-17
-1,-2,-3,1,1,-3,-3,-4,1,-7,-21,-17
-1,-2,-3,1,1,-3,-3,-4,1,-7,-21,-18
-2,-3,-3,2,0,-3,-3,-4,1,-7,-21,-18
-2,-4,-3,3,0,-4,-3,-4,1,-7,-21,-18
-2,-3,-3,3,0,-4,-3,-4,1,-7,-20,-18
-1,-3,-3,2,0,-4,-2,-4,1,-7,-20,-19
-1,-3,-3,2,0,-4,-2,-4,1,-7,-20,-19
-1,-3,-3,2,0,-4,-2,-4,1,-7,-20,-20
-1,-3,-3,2,0,-4,-2,-4,1,-6,-20,-20
-1,-3,-3,2,0,-4,-1,-4,2,-6,-20,-20
-1,-2,-3,2,0,-4,-1,-4,2,-5,-19,-20
-1,-2,-3,2,0,-4,0,-3,3,-5,-19,-20
-1,-2,-3,2,0,-4,0,-3,3,-5,-18,-20
-1,-2,-3,2,0,-4,0,-3,3,-5,-18,-20
-1,-3,-3,2,0,-4,0,-3,3,-5,-18,-19
-1,-3,-3,2,0,-4,0,-3,3,-5,-17,-19
-1,-3,-3,2,0,-4,0,-3,3,-5,-17,-19
-1,-3,-3,2,0,-4,0,-3,3,-5,-16,-19
-1,-3,-3,2,0,-4,0,-3,3,-5,-16,-19
-1,-3,-3,3,0,-4,0,-3,3,-5,-16,-18
-1,-3,-3,3,0,-4,1,-3,3,-5,-15,-17
-1,-3,-2,3,0,-4,1,-3,3,-5,-15,-16
-1,-3,-2,2,0,-3,2,-2,3,-5,-14,-16
-1,-2,-2,2,0,-3,2,-2,3,-5,-14,-15
-1,-1,-1,1,0,-2,2,-2,3,-4,-13,-14
-1,0,-1,1,0,-1,2,-2,4,-4,-13,-13
-1,0,0,0,0,-1,2,-2,4,-4,-12,-12
-1,0,0,0,0,0,1,-3,3,-4,-12,-11
-1,0,0,0,0,0,1,-3,3,-4,-12,-10
0,0,0,0,0,0,0,-3,3,-4,-12,-9
0,0,0,0,0,0,0,-4,2,-4,-12,-8
0,0,0,0,0,-1,-1,-4,2,-4,-12,-8
0,0,-1,1,0,-1,-2,-5,1,-5,-12,-9
0,0,-1,1,0,-1,-2,-5,1,-5,-12,-9
-1,0,-1,1,0,-1,-3,-5,1,-5,-11,-9
-1,-1,-1,1,0,-1,-3,-5,1,-5,-11,-9
-1,-1,-1,1,0,-1,-3,-6,1,-6,-11,-10
-1,-1,-1,1,0,-1,-3,-6,0,-6,-11,-12
-1,-1,-1,1,0,-1,-3,-6,0,-6,-11,-13
-1,-1,-1,1,0,-2,-3,-6,0,-6,-11,-14
-1,-1,-1,1,0,-2,-3,-6,-1,-6,-11,-15
-1,-2,-2,1,0,-2,-3,-6,-1,-6,-11,-15
-1,-2,-2,1,0,-2,-3,-6,-1,-6,-11,-15
-1,-2,-2,1,0,-2,-3,-6,-1,-6,-11,-16
-1,-2,-2,1,0,-2,-3,-6,-1,-6,-11,-17
-1,-2,-2,1,0,-2,-3,-6,-1,-7,-11,-17
-1,-2,-2,1,0,-2,-3,-6,-1,-7,-11,-17
-1,-1,-2,1,0,-2,-3,-6,-1,-7,-10,-17
-1,-1,-1,1,0,-2,-3,-6,-1,-7,-10,-16
-1,-1,-1,1,0,-2,-3,-6,-1,-7,-9,-16
-1,-1,-1,1,0,-2,-3,-6,-1,-7,-9,-15
-1,-1,-1,1,0,-2,-3,-6,-1,-7,-9,-15
-1,-1,-1,1,0,-2,-3,-6,-1,-7,-9,-15
-1,-1,-1,1,0,-2,-3,-6,-1,-7,-9,-15
-1,-1,-1,1,0,-1,-3,-6,-1,-7,-9,-15
-1,-1,0,1,0,-1,-3,-6,-1,-7,-8,-16
-1,-1,0,2,0,-1,-3,-6,-2,-7,-8,-16
-1,-1,0,2,0,-1,-3,-6,-2,-7,-8,-17
-1,-1,0,2,0,-1,-3,-6,-2,-7,-7,-17
-1,-1,0,2,0,-1,-3,-7,-2,-8,-7,-18
-1,-1,0,2,0,-1,-3,-7,-2,-8,-7,-19
-1,-1,0,2,0,-1,-3,-7,-2,-8,-6,-18
-1,-1,0,2,0,-1,-3,-7,-2,-8,-6,-18
-1,-1,0,2,0,-1,-3,-7,-3,-8,-5,-17
-1,-1,0,2,0,-1,-3,-7,-3,-8,-5,-16
-1,-1,-1,2,0,-1,-3,-7,-4,-8,-5,-15
-1,-1,-1,2,0,-1,-3,-7,-4,-8,-4,-14
-1,-1,-1,2,0,-1,-3,-7,-4,-8,-4,-14
-1,-1,-1,2,0,-1,-3,-7,-4,-8,-4,-13
-1,-1,-1,2,0,-1,-3,-7,-4,-8,-4,-13
-2,-2,-1,2,0,-2,-3,-7,-4,-8,-4,-13
-2,-2,-1,3,0,-2,-3,-7,-4,-8,-3,-13
-2,-2,-1,3,0,-2,-3,-7,-4,-8,-3,-12
-2,-2,-1,2,0,-2,-3,-7,-5,-9,-3,-12
-2,-2,-1,2,0,-2,-3,-7,-5,-9,-2,-13
-2,-2,-1,3,-1,-2,-3,-7,-5,-9,-2,-13
-2,-2,-1,3,-1,-2,-2,-7,-5,-9,-2,-13
-2,-2,-1,3,0,-2,-2,-7,-5,-9,-1,-13
-2,-3,-1,3,0,-2,-2,-7,-5,-9,-1,-13
-2,-3,-1,3,0,-2,-2,-7,-5,-9,0,-14
-2,-2,-1,2,0,-2,-2,-7,-5,-9,1,-14
-2,-2,-1,3,0,-2,-2,-7,-5,-8,1,-14
-3,-3,-1,3,-1,-2,-2,-6,-5,-8,2,-14
-3,-2,-1,3,-1,-2,-1,-6,-5,-8,2,-14
-3,-2,-1,3,-1,-2,-1,-6,-5,-8,2,-14
-3,-2,-1,3,-1,-2,0,-6,-5,-8,3,-15
-2,-1,-1,3,-1,-1,0,-7,-4,-7,3,-15
-2,-1,0,3,-1,-1,0,-7,-4,-7,4,-16
-2,-1,0,3,-1,-1,1,-7,-4,-7,4,-16
-2,-2,0,3,-1,-1,1,-7,-4,-7,4,-16
-2,-3,0,3,0,-2,1,-7,-3,-7,5,-16
-2,-3,-1,3,0,-2,1,-7,-3,-7,5,-16
-2,-3,-2,3,0,-2,1,-7,-3,-7,6,-17
-2,-4,-2,4,0,-3,1,-7,-3,-7,6,-17
-2,-5,-3,4,0,-4,1,-7,-3,-7,6,-18
-1,-5,-3,4,1,-4,1,-7,-3,-7,6,-19
-1,-5,-4,4,1,-4,1,-7,-3,-7,6,-20
-1,-5,-4,4,1,-5,1,-7,-3,-7,6,-21
0,-5,-4,3,1,-5,1,-7,-3,-7,6,-22
-1,-5,-4,3,1,-4,1,-7,-3,-7,6,-23
-1,-5,-3,3,1,-4,1,-7,-3,-7,6,-23
-1,-4,-3,3,1,-4,1,-7,-3,-7,6,-24
-1,-4,-3,3,1,-4,1,-7,-3,-7,6,-24
-1,-4,-2,3,0,-4,1,-7,-3,-8,6,-24
-1,-4,-2,3,0,-4,1,-7,-3,-8,6,-25
-1,-4,-2,3,0,-4,1,-7,-3,-8,6,-25
-1,-4,-2,3,0,-4,0,-7,-4,-8,6,-25
-2,-5,-2,3,0,-4,0,-7,-4,-8,5,-25
-2,-5,-2,3,0,-4,0,-8,-4,-8,5,-25
-2,-5,-2,3,0,-4,0,-8,-4,-9,5,-25
-2,-5,-2,3,0,-4,0,-9,-4,-9,4,-25
-2,-4,-2,3,0,-3,0,-9,-5,-9,4,-25
-1,-3,-1,3,0,-3,0,-9,-5,-9,4,-24
-1,-2,-1,2,0,-2,0,-9,-5,-9,4,-24
-1,-2,-1,2,0,-2,0,-9,-5,-9,4,-24
-1,-2,-1,2,0,-2,0,-9,-5,-9,4,-24
-1,-2,-1,2,0,-2,0,-9,-5,-9,4,-25
-1,-2,-1,1,0,-1,-1,-9,-5,-9,4,-26
-1,-1,0,1,0,-1,-1,-9,-5,-9,4,-27
-1,-1,0,1,0,-1,-1,-9,-6,-10,4,-29
-1,-1,0,2,0,-1,-1,-10,-6,-10,4,-30
-2,-1,0,2,-1,-1,-1,-10,-7,-10,4,-31
-2,-1,0,2,-1,0,-1,-10,-7,-10,4,-32
-2,-1,0,2,-1,0,-1,-11,-7,-10,4,-33
-2,-1,0,2,-1,0,-1,-11,-7,-10,4,-34
-3,-1,1,3,-1,0,-1,-11,-7,-10,4,-34
-3,-1,1,3,-1,0,-1,-11,-7,-10,4,-34
-2,-1,1,2,-1,0,-1,-11,-7,-10,4,-36
-2,-1,1,2,-1,0,-1,-11,-7,-11,4,-37
-3,-2,1,3,-2,0,-1,-11,-7,-11,4,-39
-3,-2,1,3,-2,0,-1,-11,-7,-11,4,-41
-3,-2,1,2,-2,0,-1,-11,-7,-11,4,-42
-2,-2,1,2,-2,0,-1,-11,-7,-11,4,-44
-2,-1,1,2,-2,0,-1,-11,-8,-11,4,-46
-2,-1,1,2,-2,0,-1,-11,-8,-11,4,-47
-3,-2,1,2,-2,0,-1,-11,-8,-12,4,-48
-3,-2,1,2,-2,0,-1,-11,-8,-12,4,-49
-3,-2,1,2,-2,0,-1,-11,-8,-12,4,-49
-3,-2,1,2,-2,0,-1,-11,-8,-12,4,-49
-3,-2,2,2,-2,0,-1,-11,-8,-12,4,-50
-3,-2,2,2,-2,0,-1,-11,-9,-12,4,-51
-3,-2,2,2,-2,0,-1,-11,-9,-12,4,-51
-4,-2,2,3,-2,0,-1,-11,-9,-12,3,-52
-4,-2,2,3,-2,0,-1,-11,-9,-12,3,-53
-3,-1,2,2,-2,0,-1,-11,-9,-12,4,-55
-3,-1,3,2,-2,0,-1,-11,-9,-12,4,-57
-4,-1,3,2,-3,0,-1,-11,-9,-12,4,-59
-3,0,3,2,-3,1,0,-10,-9,-12,4,-61
-3,0,3,1,-3,1,0,-10,-9,-12,4,-61
-3,0,3,2,-3,1,0,-10,-9,-12,4,-60
-4,-1,3,2,-3,1,0,-10,-9,-12,5,-60
-3,0,3,2,-3,1,0,-10,-8,-11,5,-60
-3,0,3,2,-3,1,0,-10,-8,-11,6,-60
-4,0,4,2,-3,1,0,-10,-8,-11,6,-60
-4,-1,4,2,-3,1,0,-10,-8,-11,6,-60
-4,-1,4,2,-3,1,0,-10,-8,-11,6,-60
-3,0,4,2,-4,1,0,-10,-8,-10,6,-59
-3,0,4,2,-4,1,0,-10,-8,-10,6,-59
-4,0,4,2,-4,1,1,-10,-8,-10,6,-59
-4,-1,4,2,-4,1,1,-10,-8,-10,6,-59
-4,-1,4,2,-4,1,1,-10,-8,-10,6,-59
-3,0,4,2,-4,1,1,-9,-8,-9,6,-59
-3,0,4,1,-4,1,1,-9,-8,-9,6,-59
-3,0,4,1,-4,1,1,-8,-8,-9,6,-60
-3,0,4,1,-4,1,1,-8,-8,-9,6,-60
-3,0,4,2,-4,1,1,-8,-8,-9,6,-61
-4,-1,4,3,-4,0,1,-8,-8,-10,6,-61
-4,-1,4,3,-4,0,2,-7,-8,-10,7,-61
-3,-1,3,2,-4,0,2,-7,-7,-10,7,-60
-3,-2,3,3,-4,0,2,-7,-7,-10,7,-60
-4,-2,3,3,-4,0,2,-7,-7,-10,7,-60
-4,-2,2,3,-3,-1,2,-7,-7,-9,7,-59
-4,-2,2,3,-3,-1,2,-7,-7,-9,7,-59
-3,-3,1,3,-2,-1,2,-7,-7,-9,7,-59
-3,-3,1,3,-2,-1,2,-7,-7,-9,7,-58
-2,-3,0,2,-1,-1,3,-7,-7,-9,7,-57
-2,-3,0,2,-1,-2,3,-7,-7,-9,7,-57
-2,-3,0,2,-1,-2,3,-6,-7,-9,7,-57
-2,-3,0,2,-1,-2,3,-6,-7,-9,7,-57
-2,-3,0,2,-1,-2,3,-6,-7,-9,7,-57
-2,-3,0,2,-1,-2,3,-6,-7,-9,7,-57
-2,-3,0,2,-1,-2,2,-7,-7,-9,6,-57
-2,-3,0,2,-1,-2,2,-7,-7,-9,6,-57
-2,-3,0,2,-1,-2,1,-8,-8,-9,6,-57
-2,-3,0,2,-1,-2,1,-8,-8,-10,6,-57
-1,-3,-1,2,0,-2,0,-8,-8,-10,6,-57
-1,-4,-1,2,0,-3,0,-9,-8,-11,6,-58
-1,-4,-2,2,0,-3,0,-9,-9,-11,6,-59
-1,-4,-2,3,0,-3,0,-9,-9,-11,6,-60
-2,-4,-2,3,0,-3,0,-9,-9,-11,6,-60
-2,-4,-2,3,0,-3,0,-9,-9,-11,7,-60
-2,-4,-1,3,0,-3,0,-9,-9,-11,7,-60
-2,-4,-1,3,0,-3,0,-9,-9,-11,8,-59
-2,-4,-1,2,0,-3,0,-9,-9,-11,8,-59
-2,-3,-1,2,0,-2,0,-9,-9,-11,8,-59
-1,-3,-1,2,0,-2,0,-9,-9,-11,8,-59
-1,-2,0,2,0,-2,0,-9,-9,-11,8,-59
0,-2,0,2,0,-2,0,-9,-9,-11,8,-59
0,-2,0,2,0,-2,-1,-9,-10,-11,8,-59
0,-2,0,2,0,-2,-1,-9,-10,-11,8,-58
0,-1,0,1,0,-1,-1,-10,-10,-11,8,-58
0,-1,0,1,0,-1,-1,-10,-10,-11,8,-58
0,-1,0,1,0,-1,-1,-10,-10,-11,8,-58
0,-1,0,1,-1,-1,-1,-10,-10,-12,8,-58
0,-1,0,1,-1,-1,-1,-10,-10,-12,8,-58
0,-1,0,1,-1,-1,-1,-10,-10,-12,8,-58
-1,-1,0,2,-1,-1,-1,-10,-10,-12,8,-58
-1,-2,1,2,-1,-1,-1,-10,-10,-12,9,-58
-2,-2,1,2,-2,-1,-1,-10,-10,-12,9,-58
-2,-2,1,2,-2,0,-1,-10,-10,-11,9,-57
-2,-2,2,2,-2,0,-1,-10,-10,-11,10,-57
-2,-2,2,2,-2,0,-1,-10,-10,-11,11,-56
-2,-1,2,2,-3,0,0,-10,-10,-10,11,-56
-2,-1,3,2,-3,0,0,-9,-10,-10,11,-55
-3,-1,3,3,-4,0,2,-8,-10,-10,11,-55
-4,-1,4,3,-4,1,4,-6,-9,-10,11,-55
-5,-1,5,3,-5,2,7,-3,-6,-8,11,-55
-5,0,7,3,-6,3,10,1,-2,-5,13,-55
-6,1,8,2,-7,4,13,7,3,-1,15,-53
-6,3,10,1,-8,6,16,13,9,4,20,-50
-4,6,12,0,-8,8,18,20,16,11,26,-45
-1,11,13,-5,-8,12,20,28,26,21,36,-38
3,18,15,-11,-6,16,21,37,37,34,49,-29
9,26,17,-18,-4,21,21,44,48,48,63,-18
16,34,18,-26,-1,25,17,47,56,61,76,-8
24,41,18,-33,2,29,11,46,61,72,87,2
31,47,18,-39,6,32,4,44,65,81,98,12
37,51,16,-45,10,33,-2,43,68,88,105,19
43,54,13,-48,15,33,-8,40,67,89,108,24
47,55,9,-51,19,32,-13,34,62,86,106,25
49,54,6,-52,21,30,-19,25,53,78,99,22
48,52,4,-50,21,28,-25,9,37,65,88,17
44,48,4,-46,19,26,-34,-15,13,45,72,10
38,41,3,-40,16,22,-44,-45,-16,21,53,0
33,34,2,-34,15,17,-53,-73,-44,-2,34,-10
29,28,0,-29,14,13,-60,-91,-63,-19,20,-18
25,22,-1,-24,13,10,-63,-98,-72,-29,11,-24
21,17,-2,-19,12,7,-63,-99,-75,-34,6,-29
19,13,-4,-16,12,4,-62,-95,-74,-38,2,-33
16,11,-5,-13,11,2,-60,-89,-71,-39,0,-37
14,9,-5,-11,9,1,-56,-81,-67,-38,-1,-39
11,7,-4,-10,7,1,-50,-72,-61,-37,-1,-41
9,6,-2,-8,5,1,-43,-63,-55,-34,-1,-43
7,6,-1,-7,3,2,-36,-54,-49,-32,0,-44
6,6,1,-6,2,2,-30,-46,-43,-29,1,-44
3,6,3,-5,0,3,-24,-40,-38,-25,3,-44
1,5,4,-3,-2,4,-20,-34,-33,-23,4,-44
-1,4,5,-2,-3,4,-16,-30,-30,-21,5,-44
-2,4,5,-1,-4,4,-12,-26,-27,-19,6,-44
-2,3,4,0,-4,3,-8,-22,-24,-17,7,-44
-2,1,4,0,-4,2,-5,-18,-21,-16,7,-45
-2,0,3,1,-4,1,-3,-15,-19,-15,7,-46
-3,-3,2,2,-4,0,-1,-13,-17,-14,7,-47
-4,-4,2,3,-4,-1,0,-11,-16,-14,7,-48
-4,-5,1,4,-3,-2,1,-10,-15,-13,8,-49
-3,-5,0,4,-2,-2,1,-9,-14,-12,8,-49
-3,-4,0,4,-2,-2,2,-9,-14,-12,8,-48
-4,-5,0,4,-2,-2,2,-8,-14,-11,8,-48
-4,-5,0,4,-2,-2,2,-8,-14,-11,8,-48
-3,-5,0,4,-2,-2,2,-7,-13,-11,8,-48
-3,-5,0,4,-2,-2,3,-7,-13,-11,8,-48
-3,-5,0,4,-2,-3,2,-6,-13,-11,8,-48
-3,-6,0,4,-2,-3,2,-6,-13,-11,8,-49
-3,-6,-1,4,-2,-3,1,-7,-13,-11,8,-49
-3,-6,-1,5,-2,-3,1,-7,-13,-11,8,-49
-3,-6,-2,5,-1,-4,1,-7,-14,-11,8,-49
-3,-7,-2,5,-1,-4,1,-7,-14,-11,8,-48
-3,-7,-3,5,-1,-5,1,-7,-14,-11,8,-48
-3,-7,-3,5,-1,-5,1,-7,-14,-11,8,-48
-3,-7,-2,5,-1,-5,2,-6,-14,-11,8,-48
-3,-7,-2,5,-1,-5,2,-6,-14,-11,8,-48
-4,-7,-2,5,-1,-5,2,-6,-14,-11,8,-48
-4,-7,-2,5,-1,-5,2,-6,-14,-11,8,-48
-4,-7,-2,5,-1,-5,2,-6,-14,-11,8,-48
-4,-7,-2,4,-1,-4,2,-6,-14,-11,8,-48
-4,-7,-1,5,-1,-4,2,-6,-14,-11,9,-48
-4,-7,-1,5,-1,-4,2,-6,-14,-11,10,-48
-4,-7,-1,5,-1,-4,2,-6,-14,-11,10,-48
-4,-7,-1,5,-2,-4,2,-6,-14,-11,11,-47
-4,-7,-1,5,-2,-4,2,-6,-13,-11,11,-46
-4,-6,0,5,-2,-3,2,-6,-13,-11,11,-45
-4,-6,0,5,-2,-3,2,-6,-13,-11,12,-45
-4,-6,0,5,-2,-3,3,-6,-13,-11,12,-44
-4,-6,0,5,-2,-3,3,-6,-13,-10,12,-44
-4,-6,0,5,-3,-3,3,-6,-13,-10,11,-44
-4,-6,0,5,-3,-3,3,-5,-13,-10,11,-44
-4,-6,0,5,-3,-3,4,-5,-12,-10,11,-44
-4,-6,0,5,-3,-3,4,-5,-12,-10,11,-44
-4,-5,1,5,-3,-2,4,-5,-12,-9,11,-44
-4,-5,1,4,-3,-2,4,-4,-12,-9,11,-44
-4,-5,1,4,-3,-1,4,-4,-12,-9,11,-44
-5,-5,1,4,-3,-1,4,-4,-12,-9,11,-44
-5,-5,1,4,-3,-1,4,-4,-12,-9,11,-44
-5,-4,2,3,-3,-1,4,-4,-12,-9,11,-44
-5,-3,2,3,-4,0,4,-4,-12,-9,11,-44
-5,-3,3,3,-4,0,4,-4,-12,-10,11,-44
-5,-2,4,3,-4,0,4,-4,-12,-10,11,-44
-5,-3,3,3,-4,0,4,-4,-12,-9,11,-44
-5,-4,2,4,-3,-1,5,-3,-11,-9,11,-44
-5,-5,1,4,-3,-2,5,-2,-11,-8,11,-43
-5,-5,1,4,-3,-2,5,-2,-10,-8,11,-43
-5,-5,1,4,-3,-1,6,-1,-10,-7,11,-43
-5,-5,1,5,-3,-2,6,-1,-9,-7,12,-43
-4,-6,0,5,-3,-2,7,0,-9,-7,12,-44
-4,-6,0,5,-3,-3,7,0,-9,-7,13,-44
-5,-6,0,5,-3,-3,8,0,-8,-6,13,-44
-5,-6,1,5,-3,-2,8,1,-8,-6,13,-45
-5,-5,1,4,-3,-2,8,1,-8,-6,13,-45
-5,-4,1,4,-3,-1,8,2,-7,-5,13,-45
-5,-4,1,4,-3,-1,9,2,-7,-5,14,-45
-5,-5,1,4,-3,-1,9,3,-6,-5,14,-45
-5,-5,2,4,-3,-1,10,3,-6,-4,15,-45
-5,-5,2,4,-3,-1,10,4,-5,-4,15,-45
-4,-4,2,3,-3,-1,11,4,-5,-4,15,-45
-4,-4,1,3,-3,-1,11,5,-4,-4,15,-45
-4,-5,1,4,-2,-2,12,7,-3,-3,15,-45
-4,-5,0,4,-2,-2,13,8,-2,-3,16,-44
-4,-4,1,3,-2,-1,14,9,-1,-2,16,-44
-4,-4,1,3,-2,-1,15,9,0,-2,17,-44
-3,-3,2,3,-2,0,15,10,0,-1,17,-43
-3,-3,2,2,-2,0,16,11,1,0,17,-42
-3,-2,2,2,-2,0,16,12,1,0,18,-41
-3,-3,2,2,-2,0,16,13,2,0,18,-40
-3,-3,1,2,-2,-1,17,14,3,0,18,-40
-2,-3,0,2,-1,-1,17,15,4,0,19,-39
-2,-3,0,1,-1,0,18,16,5,0,19,-39
-1,-2,0,1,0,0,18,17,6,0,19,-38
-1,-2,0,0,0,0,19,18,7,1,20,-38
0,-3,0,0,0,-1,19,19,7,2,20,-38
-1,-3,0,1,0,-1,19,19,8,2,20,-37
0,-3,0,0,0,-1,19,20,8,3,20,-37
0,-2,0,0,0,0,19,21,9,3,21,-36
1,-1,0,-1,0,0,19,22,10,3,21,-36
1,0,-1,-1,1,-1,19,23,10,3,22,-36
1,-1,-1,-1,1,-1,19,24,11,4,22,-36
1,-1,-2,-1,2,-1,19,24,12,5,23,-35
1,-1,-2,-1,3,-2,19,25,12,5,23,-35
1,-2,-3,0,3,-2,19,25,12,6,24,-34
2,-3,-4,0,4,-3,18,25,12,6,24,-34
3,-2,-4,0,4,-3,17,26,12,6,24,-35
4,-1,-4,-1,4,-3,17,26,12,6,24,-35
4,0,-4,-2,4,-2,17,26,13,6,25,-35
4,0,-4,-2,4,-2,16,26,13,7,25,-35
4,0,-3,-3,4,-1,16,26,13,8,26,-35
4,0,-3,-3,4,-1,16,26,14,9,26,-35
4,0,-3,-3,4,-1,16,27,14,10,27,-35
5,0,-3,-3,4,-1,17,28,15,11,28,-34
6,2,-3,-5,5,0,17,29,16,12,29,-33
7,3,-3,-6,5,0,17,30,17,13,30,-32
8,4,-2,-7,5,1,17,30,17,14,31,-31
8,5,-2,-7,5,1,17,31,18,14,31,-30
9,5,-2,-7,5,1,17,31,18,15,32,-29
9,5,-2,-8,6,2,18,31,19,15,33,-28
9,6,-1,-8,6,2,17,30,19,15,33,-27
9,6,-1,-8,5,3,16,29,18,15,34,-26
9,6,0,-8,5,3,16,28,18,15,35,-26
9,7,0,-8,4,4,15,27,17,15,36,-25
8,8,0,-8,4,4,15,27,17,15,37,-25
8,8,1,-8,4,4,15,26,17,14,38,-25
7,8,1,-8,3,4,15,26,16,14,39,-25
7,8,1,-8,3,4,15,25,16,13,40,-26
7,9,2,-9,3,5,15,25,16,13,41,-27
7,9,2,-9,3,5,14,24,16,13,42,-27
8,9,2,-9,3,5,14,23,16,13,44,-28
8,9,2,-9,3,5,13,23,16,13,45,-28
8,9,2,-9,3,5,13,22,15,13,45,-28
8,8,1,-8,3,4,12,21,15,13,46,-28
7,7,1,-8,3,4,12,20,14,13,46,-28
7,7,1,-7,3,4,12,19,13,13,45,-28
6,6,2,-7,2,4,12,18,12,13,45,-29
6,6,2,-7,2,4,11,16,11,12,45,-29
5,6,3,-6,1,4,11,15,11,12,45,-30
5,6,3,-6,1,4,10,14,10,11,45,-30
4,6,3,-5,0,4,10,13,9,10,45,-30
3,5,3,-4,0,4,9,11,8,9,44,-30
2,5,4,-4,0,4,9,10,7,8,44,-31
1,4,4,-3,-1,4,8,9,6,8,44,-31
0,4,5,-3,-1,4,8,8,5,7,43,-32
0,3,5,-2,-2,4,7,7,4,7,43,-33
0,3,5,-2,-2,4,7,6,3,7,42,-33
0,3,5,-1,-2,4,7,5,3,6,41,-34
-1,2,5,-1,-3,4,6,4,2,5,40,-34
-1,1,4,0,-3,3,6,3,1,4,40,-34
-2,1,4,0,-3,3,5,2,0,3,39,-35
-2,0,4,1,-3,2,5,1,0,2,39,-35
-2,0,4,1,-3,2,5,0,-1,2,39,-36
-2,0,4,2,-3,2,5,0,-1,2,38,-36
-3,-1,4,2,-3,1,5,0,-2,2,38,-36
-4,-1,4,2,-3,1,5,-1,-2,1,38,-36
-4,-1,4,2,-3,1,5,-1,-3,1,38,-36
-4,-1,4,2,-3,1,6,-2,-3,1,38,-36
-4,-2,4,3,-3,1,6,-2,-4,1,38,-36
-4,-2,4,3,-3,1,6,-2,-4,1,38,-36
-4,-2,4,3,-3,1,7,-2,-4,0,38,-36
-3,-2,3,3,-3,1,7,-2,-4,0,38,-36
-3,-2,3,3,-3,0,7,-2,-4,0,38,-36
-4,-2,3,3,-3,0,7,-2,-4,0,37,-36
-4,-2,3,3,-3,0,7,-2,-5,0,37,-36
-4,-2,3,3,-3,0,7,-3,-5,0,37,-35
-4,-2,3,3,-3,0,7,-3,-5,0,37,-35
-4,-2,2,3,-3,0,7,-3,-5,0,37,-35
-4,-2,2,3,-3,0,6,-3,-6,0,37,-35
-4,-2,1,3,-2,-1,6,-3,-6,0,37,-36
-3,-2,1,3,-2,-1,5,-3,-6,0,37,-36
-3,-3,0,3,-1,-1,5,-4,-6,0,37,-37
-2,-3,0,3,-1,-1,4,-4,-6,0,37,-37
-2,-3,0,2,-1,-1,4,-4,-6,0,37,-37
-2,-3,0,2,-1,-1,4,-4,-7,0,36,-37
-2,-4,-1,3,0,-2,4,-5,-7,-1,35,-37
-2,-5,-2,4,0,-3,3,-5,-7,-1,35,-37
-2,-5,-1,4,0,-3,3,-5,-8,-2,35,-37
-2,-5,-1,4,0,-3,2,-6,-8,-2,35,-37
-3,-5,-1,4,-1,-3,1,-6,-8,-3,35,-38
-3,-7,-2,5,0,-4,0,-6,-8,-2,34,-38
-3,-8,-3,5,0,-5,0,-6,-7,-2,34,-38
-3,-8,-3,5,0,-5,0,-5,-7,-2,34,-38
-3,-8,-3,5,0,-5,0,-5,-7,-2,34,-38
-3,-7,-3,5,0,-5,0,-5,-7,-1,35,-37
-4,-8,-3,5,0,-5,0,-4,-7,-1,35,-37
-4,-8,-3,6,0,-5,0,-4,-6,0,35,-36
-3,-7,-2,5,0,-4,1,-3,-6,0,35,-35
-3,-7,-2,4,0,-4,1,-3,-5,1,36,-35
-3,-6,-2,4,-1,-3,1,-3,-5,1,36,-35
-3,-5,0,4,-2,-2,2,-3,-5,2,36,-35
-4,-5,0,4,-2,-1,2,-3,-5,2,36,-35
-4,-5,1,4,-2,-1,2,-3,-6,2,35,-35
-4,-5,1,4,-2,-1,2,-3,-6,2,35,-35
-4,-5,1,4,-2,-1,2,-3,-6,2,35,-35
-4,-4,1,3,-2,0,2,-3,-6,1,35,-35
-4,-3,2,3,-3,0,2,-3,-6,1,35,-35
-4,-3,2,3,-3,0,2,-3,-6,1,35,-35
-3,-4,1,3,-2,0,3,-3,-6,2,36,-35
-3,-4,0,3,-2,-1,3,-2,-5,2,36,-34
-4,-4,1,3,-2,-1,3,-2,-5,2,36,-34
-5,-4,2,4,-3,-1,3,-2,-6,2,35,-35
-4,-4,2,4,-3,-1,4,-2,-5,2,36,-34
-4,-3,2,3,-2,0,4,-1,-5,2,36,-34
-4,-2,3,2,-3,1,4,-1,-5,2,36,-34
-4,-2,4,3,-3,1,5,-1,-5,2,36,-34
-4,-3,3,3,-4,0,5,-1,-5,2,36,-34
-5,-3,3,3,-4,0,5,-1,-5,2,35,-34
-5,-2,3,3,-4,1,5,-1,-5,2,35,-34
-4,-2,3,3,-4,1,6,-1,-5,2,35,-33
-4,-2,3,3,-4,1,7,-1,-5,2,35,-33
-5,-2,3,3,-4,1,7,-1,-5,2,35,-33
-5,-2,3,3,-4,1,7,0,-5,2,35,-33
-6,-2,4,3,-4,1,7,0,-4,3,35,-33
-5,-2,4,3,-4,1,7,0,-4,3,35,-32
-5,-2,4,3,-4,1,7,0,-4,2,35,-32
-5,-2,4,3,-4,1,7,0,-4,2,35,-32
-5,-3,4,3,-4,0,7,0,-4,2,34,-32
-5,-3,4,3,-4,0,8,0,-5,2,34,-32
-5,-2,4,3,-4,1,8,0,-5,2,34,-32
-5,-2,4,3,-4,1,8,0,-5,2,34,-32
-5,-3,3,4,-4,1,8,0,-5,2,33,-31
-5,-3,3,4,-5,1,8,0,-6,2,33,-31
-6,-2,4,4,-5,1,8,0,-6,2,33,-31
-6,-2,4,4,-5,1,8,0,-6,2,33,-31
-6,-2,4,4,-5,1,8,0,-6,2,33,-31
-5,-2,4,3,-5,1,8,0,-6,2,33,-31
-5,-1,4,3,-5,1,8,0,-6,2,33,-31
-5,-1,4,2,-5,1,8,0,-7,2,33,-32
-5,-1,4,2,-5,1,8,0,-7,2,33,-32
-5,-1,4,2,-5,1,8,0,-7,2,33,-32
-5,-2,4,3,-5,1,8,0,-7,2,33,-32
-6,-2,4,3,-5,1,8,0,-7,2,32,-32
-6,-3,4,3,-5,1,8,0,-8,2,31,-32
-6,-3,4,3,-5,1,8,-1,-8,1,31,-32
-6,-3,3,3,-5,0,7,-1,-8,1,30,-32
-6,-3,3,3,-5,0,7,-1,-8,1,30,-32
-6,-3,3,3,-5,0,8,-1,-8,1,30,-32
-6,-3,3,3,-5,0,7,-1,-8,1,30,-32
-6,-3,3,4,-4,0,7,-1,-8,1,30,-32
-6,-4,3,4,-4,0,7,-1,-8,1,29,-32
-6,-3,3,4,-5,0,7,-2,-8,0,28,-33
-6,-2,4,3,-5,1,7,-2,-9,0,28,-33
-6,-3,3,3,-4,0,8,-2,-8,1,28,-33
-6,-4,2,4,-4,-1,8,-1,-8,1,28,-33
-6,-5,1,4,-4,-2,8,0,-8,0,27,-34
-6,-5,1,5,-4,-2,8,0,-8,0,27,-34
-6,-6,1,5,-4,-3,8,0,-8,0,26,-35
-6,-6,0,6,-3,-3,8,-1,-8,0,26,-35
-6,-7,0,6,-3,-4,8,-1,-8,0,26,-36
-6,-8,0,6,-3,-4,8,-2,-8,0,25,-36
-6,-8,-1,7,-3,-4,8,-2,-8,0,25,-37
-6,-8,-1,7,-3,-5,7,-2,-8,0,24,-37
-5,-8,-2,6,-2,-5,7,-2,-9,0,24,-38
-5,-8,-2,6,-2,-5,6,-2,-9,0,24,-38
-5,-8,-1,6,-2,-5,6,-2,-9,0,24,-38
-5,-8,-1,6,-2,-5,5,-2,-9,0,24,-38
-5,-7,-1,5,-2,-4,5,-2,-9,0,24,-37
-5,-7,-1,5,-2,-4,4,-2,-9,0,24,-37
-5,-7,-1,5,-2,-4,4,-3,-9,0,24,-38
-5,-7,-1,5,-2,-4,3,-3,-9,0,23,-38
-5,-6,-1,4,-2,-3,3,-4,-9,0,23,-38
-4,-7,-2,4,-1,-4,2,-4,-9,0,23,-37
-4,-8,-3,5,0,-5,2,-4,-10,0,23,-37
-4,-9,-4,5,0,-6,2,-5,-10,0,24,-37
-4,-9,-5,5,0,-7,2,-5,-10,0,24,-37
-4,-10,-5,5,0,-7,2,-5,-10,-1,24,-36
-4,-10,-5,5,0,-7,2,-5,-11,-1,24,-36
-4,-10,-5,5,0,-7,2,-5,-11,-1,24,-36
-4,-10,-5,5,0,-7,2,-5,-11,-1,24,-36
-3,-9,-6,5,1,-7,2,-5,-11,-1,24,-35
-3,-9,-6,5,1,-7,1,-5,-11,-1,23,-35
-2,-8,-5,5,0,-7,1,-5,-10,-1,23,-36
-2,-7,-4,4,0,-6,1,-5,-10,-2,22,-36
-2,-6,-3,3,0,-5,0,-5,-10,-2,21,-37
-2,-6,-4,4,0,-5,0,-5,-10,-2,21,-37
-3,-8,-5,5,0,-6,0,-5,-10,-2,21,-37
-2,-7,-5,4,0,-6,0,-5,-10,-2,21,-36
-2,-7,-4,4,0,-5,0,-6,-10,-3,21,-36
-2,-7,-3,4,0,-5,0,-6,-11,-3,21,-36
-3,-8,-3,5,0,-6,0,-6,-11,-3,20,-37
-4,-8,-2,5,-1,-5,1,-5,-11,-3,20,-37
-4,-7,-1,5,-1,-5,5,-3,-9,-3,20,-37
-5,-7,-1,5,-1,-4,8,1,-6,-1,21,-37
-5,-6,0,5,-2,-2,11,6,-1,2,23,-36
-5,-4,2,4,-4,0,14,13,5,7,27,-34
-4,-1,5,2,-5,2,17,21,13,15,32,-30
-1,3,6,-1,-4,5,19,28,22,24,41,-24
2,8,7,-6,-3,8,21,37,33,36,52,-15
6,15,9,-12,-1,12,22,48,46,51,67,-4
13,23,10,-19,2,16,22,58,60,66,82,7
22,31,9,-28,6,20,20,64,71,80,96,18
30,37,7,-35,11,23,15,66,78,92,109,29
37,41,4,-40,16,23,9,63,80,99,117,36
43,44,2,-44,20,23,3,58,78,101,120,40
47,46,0,-47,23,23,-3,50,72,97,118,40
50,45,-4,-48,26,21,-9,40,63,88,111,37
50,43,-6,-47,27,18,-15,25,49,76,101,32
46,41,-5,-45,25,18,-21,4,28,59,87,26
41,38,-3,-40,22,18,-30,-25,1,37,70,17
36,32,-3,-35,20,15,-39,-56,-29,14,51,7
32,27,-5,-30,19,11,-47,-79,-53,-6,36,-2
28,22,-6,-26,17,8,-51,-93,-67,-19,25,-10
24,16,-7,-21,15,4,-54,-98,-74,-27,18,-15
20,10,-9,-16,14,0,-55,-99,-76,-31,13,-20
16,6,-10,-12,13,-2,-56,-96,-76,-34,9,-25
14,4,-10,-10,11,-3,-55,-91,-73,-35,7,-28
12,3,-9,-8,10,-3,-53,-83,-69,-35,6,-30
10,2,-8,-7,9,-3,-49,-75,-63,-33,6,-32
8,1,-7,-5,8,-3,-44,-65,-56,-31,6,-34
7,1,-5,-5,6,-1,-38,-55,-49,-27,7,-35
6,2,-2,-5,4,0,-32,-47,-42,-24,8,-34
5,2,-1,-4,2,1,-28,-40,-37,-20,10,-33
3,1,0,-3,1,1,-23,-35,-32,-17,11,-33
2,0,0,-2,1,0,-19,-30,-29,-15,13,-32
0,0,0,0,0,0,-15,-25,-26,-13,14,-32
-1,-2,-1,0,0,-1,-11,-22,-23,-12,14,-32
-2,-4,-1,2,0,-3,-8,-18,-21,-11,14,-33
-2,-5,-2,3,0,-4,-6,-16,-19,-10,14,-33
-3,-7,-3,4,0,-5,-4,-14,-18,-10,14,-34
-3,-8,-4,5,0,-6,-3,-12,-16,-9,14,-35
-3,-8,-4,5,0,-7,-2,-11,-15,-8,14,-35
-3,-8,-4,5,0,-7,-1,-11,-15,-7,14,-35
-4,-8,-4,5,0,-7,-1,-10,-14,-6,14,-35
-4,-8,-5,5,1,-7,0,-10,-14,-5,14,-35
-4,-9,-5,5,1,-7,0,-9,-13,-5,14,-35
-4,-9,-4,5,0,-7,1,-8,-12,-5,14,-35
-4,-9,-4,6,0,-7,1,-7,-12,-5,14,-35
-4,-10,-4,6,0,-7,2,-7,-11,-5,14,-35
-5,-10,-4,6,0,-7,2,-7,-11,-5,14,-35
-5,-9,-3,6,0,-7,2,-7,-11,-4,14,-35
-6,-9,-3,6,0,-6,2,-6,-10,-4,14,-34
-6,-9,-3,7,0,-6,2,-6,-10,-4,14,-34
-6,-9,-3,7,0,-6,2,-6,-10,-5,14,-33
-6,-8,-3,7,-1,-6,3,-5,-10,-5,13,-33
-6,-8,-3,7,-1,-6,3,-5,-9,-5,13,-33
-5,-8,-3,7,-1,-7,4,-4,-9,-4,13,-33
-5,-9,-3,7,-1,-7,4,-4,-9,-4,13,-32
-5,-9,-4,7,0,-7,5,-4,-9,-4,13,-32
-5,-9,-4,7,0,-7,5,-4,-9,-4,13,-31
-5,-9,-5,6,0,-7,4,-4,-9,-4,13,-31
-5,-9,-5,6,0,-7,4,-4,-9,-4,13,-30
-5,-9,-4,6,0,-7,4,-4,-9,-4,13,-30
-5,-10,-5,6,0,-8,4,-4,-8,-4,14,-29
-5,-11,-6,6,1,-8,4,-3,-8,-4,13,-29
-4,-11,-6,6,1,-8,3,-3,-8,-4,13,-29
-4,-11,-6,6,1,-8,3,-3,-8,-4,13,-29
-4,-11,-6,7,1,-8,2,-3,-8,-4,13,-29
-4,-11,-6,7,1,-8,2,-3,-8,-4,13,-29
-4,-12,-7,7,2,-9,1,-3,-8,-4,14,-29
-4,-12,-7,7,2,-9,1,-3,-8,-4,14,-29
-4,-12,-8,7,2,-9,1,-2,-8,-4,14,-29
-4,-12,-8,7,2,-10,1,-2,-8,-4,14,-29
-4,-11,-7,7,1,-9,1,-1,-8,-4,14,-29
-3,-11,-6,6,1,-9,1,-1,-8,-4,14,-30
-3,-11,-7,6,1,-9,1,-1,-8,-4,14,-30
-3,-11,-7,6,1,-9,1,-1,-8,-3,14,-30
-3,-11,-7,6,1,-9,1,-1,-8,-3,13,-30
-3,-10,-7,6,1,-9,1,0,-8,-2,13,-30
-4,-10,-6,6,1,-9,1,0,-7,-2,13,-30
-4,-10,-6,6,1,-8,1,0,-7,-2,13,-30
-4,-10,-6,6,1,-8,1,1,-7,-2,13,-30
-4,-10,-5,6,1,-7,1,1,-7,-1,13,-31
-4,-9,-5,6,0,-7,1,1,-6,-1,13,-31
-4,-9,-5,6,0,-7,2,1,-6,-1,14,-30
-4,-8,-5,5,0,-7,2,2,-5,0,14,-29
-4,-8,-5,5,0,-7,3,2,-5,0,15,-28
-4,-8,-5,5,0,-7,3,3,-5,0,15,-27
-4,-8,-5,5,1,-7,3,3,-5,0,14,-27
-4,-9,-5,5,1,-7,2,3,-5,0,14,-26
-4,-8,-5,5,1,-7,2,3,-5,0,14,-26
-3,-7,-5,4,1,-6,2,4,-4,1,14,-25
-2,-6,-5,4,1,-6,3,5,-3,2,14,-25
-2,-6,-5,4,1,-5,3,6,-2,3,14,-25
-2,-6,-5,3,1,-5,3,6,-2,3,14,-25
-2,-6,-5,3,1,-5,3,6,-2,3,15,-25
-2,-6,-4,3,1,-5,3,7,-1,4,15,-24
-2,-6,-4,3,1,-5,4,7,0,4,16,-24
-1,-5,-4,3,1,-5,4,8,0,5,16,-23
-1,-5,-4,2,1,-5,5,9,0,5,17,-22
0,-5,-4,2,1,-5,5,10,1,6,17,-22
0,-5,-4,2,1,-5,5,11,2,7,18,-22
0,-5,-4,2,1,-5,6,12,3,8,18,-22
0,-4,-4,1,2,-4,7,13,5,9,19,-22
1,-3,-5,0,3,-4,7,14,6,9,19,-21
1,-3,-5,0,3,-4,8,15,7,9,19,-21
1,-3,-5,0,3,-4,8,16,8,10,19,-21
1,-4,-5,0,3,-5,9,17,8,10,19,-21
1,-4,-6,1,3,-5,9,18,8,10,19,-21
1,-4,-6,1,3,-6,10,19,8,10,19,-21
1,-4,-6,0,3,-5,10,19,9,10,20,-21
2,-4,-6,0,3,-5,11,20,10,11,20,-21
2,-3,-6,0,4,-5,11,21,11,11,21,-20
2,-3,-6,0,4,-5,12,23,12,12,21,-20
2,-2,-6,-1,4,-4,12,25,13,12,22,-19
3,-2,-6,-1,5,-4,13,26,14,13,22,-18
4,-2,-6,-2,5,-4,13,27,15,14,23,-17
4,-1,-6,-2,5,-3,14,29,16,15,23,-16
5,-1,-6,-2,5,-3,14,30,17,16,24,-15
5,-1,-5,-2,5,-3,15,31,18,17,25,-14
5,0,-5,-3,5,-3,15,32,19,18,25,-14
6,0,-5,-3,5,-3,16,33,20,19,26,-13
6,0,-6,-3,6,-3,16,34,20,19,26,-13
7,0,-6,-4,6,-2,16,35,21,20,27,-13
7,1,-6,-4,6,-2,16,36,22,21,27,-12
7,1,-6,-5,6,-2,16,37,23,22,27,-11
8,2,-6,-5,6,-2,16,38,23,22,27,-11
8,2,-7,-6,7,-2,16,38,24,22,28,-11
9,2,-7,-6,7,-2,16,39,24,22,28,-11
9,2,-7,-7,8,-2,16,39,25,23,29,-10
10,2,-7,-7,8,-2,16,39,25,23,29,-10
10,3,-7,-8,9,-2,16,40,26,24,30,-10
11,3,-7,-8,9,-2,16,40,26,25,30,-10
11,3,-8,-8,9,-2,16,40,26,25,30,-10
11,3,-8,-8,9,-2,16,40,26,26,31,-10
11,3,-8,-8,9,-2,16,40,26,26,31,-9
12,4,-8,-9,9,-2,16,40,27,26,31,-9
12,4,-8,-9,9,-2,16,40,27,26,31,-9
12,4,-8,-9,9,-2,16,40,27,26,32,-8
12,4,-8,-9,10,-2,16,40,27,26,32,-8
12,3,-8,-9,10,-2,15,40,27,26,32,-7
12,3,-9,-9,10,-2,15,40,27,26,32,-6
12,3,-9,-9,10,-2,15,39,26,26,32,-6
12,3,-10,-8,11,-3,14,38,26,26,32,-5
12,2,-10,-8,11,-3,14,37,25,26,32,-5
11,1,-10,-7,11,-4,14,35,23,25,31,-6
11,0,-10,-6,11,-4,13,33,22,25,30,-6
11,0,-10,-6,11,-4,12,32,20,24,29,-7
10,0,-10,-5,10,-5,11,30,19,23,28,-8
10,-1,-10,-5,10,-5,11,29,18,22,27,-9
9,-1,-10,-4,9,-5,10,27,17,21,26,-10
8,-1,-9,-4,8,-5,10,25,16,21,25,-10
7,-1,-9,-3,8,-5,9,23,15,20,25,-10
6,-2,-9,-3,8,-5,8,21,13,19,24,-10
6,-2,-9,-3,7,-6,7,19,11,18,22,-11
6,-3,-9,-2,7,-6,5,18,9,17,21,-12
5,-4,-9,-1,7,-6,4,16,8,16,20,-13
5,-4,-9,0,6,-6,3,14,7,15,19,-14
4,-5,-9,0,6,-7,1,13,5,14,18,-14
4,-5,-10,0,6,-7,0,11,4,13,17,-15
3,-6,-9,1,6,-7,0,10,2,13,17,-15
2,-6,-9,1,5,-7,-1,8,1,12,16,-15
2,-7,-9,2,5,-8,-1,7,0,11,15,-15
1,-8,-9,3,5,-9,-2,6,-1,10,13,-16
1,-9,-9,4,5,-9,-2,5,-2,8,12,-16
1,-10,-9,4,5,-10,-3,4,-3,7,11,-16
1,-10,-9,4,5,-10,-3,3,-4,6,11,-16
0,-10,-10,5,5,-10,-3,2,-4,6,11,-16
-1,-11,-10,6,4,-10,-3,2,-5,5,11,-17
-2,-12,-9,6,4,-11,-4,1,-5,5,10,-17
-2,-11,-9,6,3,-10,-4,1,-5,5,10,-18
-1,-11,-8,5,3,-10,-4,1,-5,5,10,-18
-1,-10,-8,5,3,-10,-5,1,-5,5,10,-18
0,-10,-8,4,3,-9,-5,0,-5,5,10,-18
0,-10,-8,4,3,-9,-5,0,-5,5,9,-18
0,-9,-8,4,3,-8,-6,0,-5,5,9,-18
0,-9,-7,4,3,-8,-6,0,-6,5,8,-18
-1,-8,-7,4,3,-7,-5,-1,-6,5,7,-19
-1,-8,-6,4,2,-7,-5,-2,-7,5,6,-19
-2,-8,-5,4,1,-6,-5,-2,-8,4,6,-19
-2,-8,-5,4,1,-6,-5,-3,-8,4,5,-19
-3,-8,-4,4,1,-6,-5,-3,-8,4,5,-19
-3,-8,-4,5,0,-6,-5,-3,-8,4,5,-19
-3,-8,-4,5,0,-6,-5,-2,-8,4,5,-19
-3,-8,-4,5,0,-6,-4,-2,-7,5,5,-19
-3,-8,-4,5,0,-6,-4,-2,-7,5,6,-19
-3,-8,-4,5,0,-6,-4,-1,-7,6,6,-18
-3,-8,-4,5,0,-6,-4,-1,-7,6,6,-18
-3,-8,-4,5,0,-6,-4,-2,-7,6,5,-18
-3,-8,-4,5,0,-6,-4,-2,-7,6,5,-19
-4,-9,-4,6,0,-7,-4,-2,-7,5,5,-19
-3,-8,-4,5,0,-6,-5,-2,-7,5,5,-19
-3,-7,-4,5,0,-5,-5,-3,-8,4,5,-18
-3,-7,-3,4,0,-5,-5,-4,-9,3,4,-18
-3,-7,-3,4,-1,-5,-5,-4,-9,2,4,-17
-3,-7,-3,4,-1,-5,-4,-3,-9,3,4,-16
-3,-6,-3,4,-1,-5,-4,-2,-8,4,4,-15
-2,-6,-3,3,-1,-4,-3,-1,-7,4,4,-14
-2,-5,-2,3,-1,-4,-2,0,-7,5,5,-13
-3,-5,-2,4,-1,-4,-2,0,-6,6,5,-12
-3,-5,-2,4,-1,-4,-2,0,-6,6,5,-12
-3,-5,-2,4,-1,-4,-1,0,-5,7,5,-13
-3,-5,-2,4,-1,-4,-1,0,-5,7,5,-13
-3,-5,-2,4,-1,-4,-1,0,-5,8,5,-13
-3,-5,-2,4,-1,-4,-1,0,-5,8,5,-13
-3,-5,-2,4,-1,-4,-1,0,-5,9,5,-13
-3,-5,-2,4,-1,-4,-1,0,-5,8,5,-14
-3,-5,-2,4,-1,-4,-1,0,-5,8,5,-14
-3,-5,-2,4,-1,-4,-1,0,-5,8,5,-14
-3,-5,-2,4,-1,-4,0,0,-5,8,5,-14
-3,-5,-2,4,-1,-4,0,1,-5,8,5,-13
-3,-6,-2,5,-1,-4,0,1,-5,8,6,-13
-3,-6,-2,5,-1,-4,0,1,-5,8,6,-13
-3,-7,-2,5,-1,-4,0,1,-5,8,5,-13
-3,-7,-2,5,-1,-4,0,1,-5,7,5,-14
-3,-7,-2,5,-1,-4,0,1,-5,7,5,-14
-3,-7,-2,5,-1,-4,0,1,-4,8,6,-14
-4,-7,-2,5,-1,-4,0,2,-4,7,5,-14
-4,-7,-2,5,-1,-4,0,2,-4,7,5,-14
-3,-7,-2,5,0,-4,0,2,-4,7,5,-14
-3,-7,-2,5,-1,-4,0,2,-4,8,4,-14
-3,-7,-2,5,-1,-4,0,2,-4,8,4,-14
-3,-7,-2,5,-1,-5,0,2,-4,9,4,-14
-3,-7,-2,5,-1,-5,0,2,-4,9,4,-14
-3,-6,-2,5,-1,-5,0,2,-4,9,4,-14
-3,-6,-2,5,-1,-5,0,2,-4,9,4,-15
-3,-6,-2,5,-1,-5,0,2,-4,8,4,-15
-3,-6,-2,5,-1,-4,0,2,-4,8,4,-15
-3,-6,-1,5,-1,-4,0,2,-4,8,4,-14
-3,-6,-1,5,-1,-4,0,2,-5,8,4,-14
-3,-6,-1,5,-1,-4,0,2,-5,8,4,-14
-3,-6,-1,5,-1,-4,0,2,-5,8,3,-14
-3,-6,-1,5,-1,-4,0,2,-5,8,3,-14
-3,-6,-1,5,-1,-4,0,2,-5,8,3,-14
-4,-6,-1,5,-1,-4,1,2,-5,8,2,-14
-4,-6,-1,5,-2,-3,1,2,-5,8,2,-14
-4,-6,-1,5,-2,-3,1,2,-5,7,1,-14
-4,-6,-1,5,-2,-4,1,2,-5,7,0,-15
-4,-6,0,5,-2,-4,1,2,-5,7,0,-15
-4,-6,0,5,-2,-3,1,2,-5,7,0,-15
-4,-5,0,5,-3,-3,1,2,-5,7,0,-15
-4,-5,1,5,-3,-3,2,2,-5,7,1,-15
-4,-6,0,5,-3,-3,3,3,-4,7,1,-15
-4,-6,0,6,-3,-3,4,4,-3,7,0,-16
-5,-7,1,6,-3,-3,7,7,-2,7,0,-17
-6,-7,1,6,-4,-3,9,10,0,8,0,-18
-6,-6,2,6,-4,-2,12,15,4,10,1,-18
-6,-4,4,5,-5,0,15,21,10,15,5,-16
-6,-1,6,4,-6,2,18,28,18,22,10,-13
-4,2,8,1,-6,5,20,36,27,32,18,-7
-1,9,11,-4,-6,10,23,46,39,45,31,3
4,17,14,-11,-5,16,24,57,54,63,47,16
11,26,16,-18,-3,21,25,68,70,81,65,29
19,34,17,-26,0,26,23,75,82,97,81,42
27,43,17,-35,4,30,17,77,90,110,95,54
35,49,16,-42,8,32,11,74,94,119,105,64
40,52,13,-46,13,32,3,70,93,123,110,69
44,53,10,-48,17,31,-4,63,89,120,108,71
46,51,6,-48,20,28,-11,53,80,111,100,68
46,49,4,-47,21,27,-18,38,65,98,89,63
43,47,5,-44,18,26,-26,16,43,79,73,55
38,43,7,-40,15,25,-35,-13,13,55,54,46
33,38,7,-35,12,22,-45,-45,-19,29,34,35
29,33,5,-30,11,19,-53,-69,-45,7,18,26
26,29,4,-27,11,16,-58,-83,-61,-6,7,18
23,26,4,-24,10,14,-63,-90,-69,-14,0,13
20,22,3,-21,8,12,-66,-91,-72,-19,-5,8
17,18,2,-17,7,10,-67,-89,-72,-22,-9,4
14,14,1,-14,6,8,-68,-84,-70,-23,-12,1
12,12,1,-12,5,7,-65,-77,-66,-23,-13,-1
11,10,1,-10,4,6,-60,-68,-60,-22,-15,-3
9,8,1,-9,3,5,-55,-58,-54,-20,-15,-6
7,7,2,-7,2,4,-49,-49,-47,-18,-15,-7
5,7,3,-6,1,4,-43,-42,-41,-14,-15,-8
4,6,3,-5,0,4,-38,-35,-36,-11,-14,-9
2,6,4,-4,-1,4,-33,-30,-31,-8,-13,-9
1,5,5,-3,-2,4,-29,-25,-27,-5,-12,-9
0,4,5,-2,-3,4,-25,-20,-24,-3,-11,-9
0,3,5,-1,-3,3,-21,-17,-21,-2,-11,-10
-1,1,4,0,-3,3,-19,-14,-19,-1,-10,-10
-1,0,4,0,-3,2,-17,-11,-18,0,-10,-11
-1,-1,3,1,-3,1,-15,-10,-16,0,-11,-12
-2,-2,2,2,-3,0,-14,-9,-16,0,-11,-13
-3,-3,1,3,-3,-1,-13,-8,-15,0,-12,-14
-3,-4,1,4,-3,-1,-12,-8,-15,0,-12,-14
-4,-4,1,4,-3,-1,-11,-7,-14,0,-12,-14
-4,-4,1,4,-3,-1,-11,-6,-14,0,-11,-14
-4,-4,1,4,-3,-1,-11,-5,-13,0,-11,-15
-4,-3,1,4,-3,-1,-11,-5,-13,-1,-12,-15
-4,-3,1,3,-3,-1,-10,-5,-13,-1,-12,-15
-4,-3,2,4,-3,-1,-9,-5,-13,-1,-12,-15
-5,-3,2,4,-4,-1,-9,-5,-13,-1,-12,-15
-6,-3,2,5,-4,-1,-9,-4,-13,-1,-12,-15
-6,-3,2,5,-4,-1,-9,-4,-12,0,-12,-15
-5,-4,2,5,-4,-1,-9,-3,-12,0,-12,-15
-5,-4,2,5,-4,-1,-9,-3,-12,0,-12,-15
-5,-4,2,5,-4,-1,-8,-2,-11,0,-12,-15
-5,-4,2,5,-3,-1,-8,-2,-11,0,-12,-15
-5,-4,1,5,-3,-1,-8,-2,-11,1,-12,-15
-5,-4,1,5,-3,-1,-7,-2,-11,1,-12,-15
-5,-3,1,4,-3,-1,-7,-1,-11,1,-12,-15
-5,-3,1,4,-3,-1,-7,-1,-11,1,-12,-15
-5,-3,2,4,-3,0,-7,-1,-11,1,-12,-15
-5,-3,2,4,-3,0,-7,-1,-11,1,-12,-15
-5,-3,2,4,-3,0,-7,-1,-11,1,-12,-15
-5,-3,2,4,-3,0,-6,0,-10,1,-12,-14
-5,-3,2,4,-3,0,-6,0,-10,1,-12,-14
-5,-3,2,4,-3,0,-6,0,-10,1,-12,-14
-5,-3,2,4,-3,0,-6,0,-10,1,-12,-15
-5,-2,2,4,-3,0,-6,0,-10,1,-12,-15
-5,-2,2,4,-4,0,-6,0,-10,1,-12,-15
-5,-2,3,4,-4,0,-6,1,-10,1,-12,-15
-5,-2,3,4,-4,0,-6,1,-10,1,-12,-15
-5,-2,3,4,-4,0,-6,2,-10,1,-12,-14
-4,-2,3,4,-4,0,-6,2,-9,1,-12,-14
-4,-2,3,4,-4,0,-5,2,-9,2,-12,-14
-4,-2,3,4,-4,0,-5,3,-8,2,-11,-14
-4,-2,3,3,-4,0,-5,3,-8,2,-11,-15
-4,-2,2,3,-3,0,-4,3,-8,3,-11,-15
-4,-2,2,3,-3,0,-4,3,-7,3,-11,-15
-4,-2,2,3,-3,0,-4,4,-7,3,-11,-15
-5,-2,2,3,-3,0,-4,4,-7,3,-11,-15
-5,-2,2,4,-3,0,-3,5,-7,3,-11,-15
-5,-2,2,4,-3,0,-3,5,-7,3,-11,-15
-5,-2,2,4,-3,0,-3,5,-6,3,-11,-15
-5,-2,2,4,-3,0,-2,6,-6,3,-11,-16
-5,-2,2,3,-3,0,-2,6,-5,3,-11,-16
-5,-2,2,3,-3,0,-1,7,-5,3,-11,-17
-5,-2,2,3,-3,0,0,7,-4,3,-11,-17
-5,-2,2,3,-3,0,0,8,-4,3,-11,-17
-5,-2,2,3,-3,0,1,8,-3,4,-10,-16
-5,-1,2,3,-3,0,1,9,-3,4,-10,-15
-4,-1,2,2,-3,0,2,10,-2,5,-10,-14
-4,0,3,2,-3,1,3,11,-1,6,-9,-13
-4,0,3,1,-4,2,4,12,0,6,-9,-12
-4,1,4,1,-4,2,4,12,0,7,-9,-11
-3,2,4,0,-4,3,4,13,1,7,-8,-10
-3,3,5,0,-4,4,4,13,1,7,-8,-10
-2,3,5,-1,-4,4,5,14,2,8,-7,-10
-2,3,5,-1,-4,4,5,14,2,8,-7,-9
-2,3,5,-1,-3,3,5,15,2,8,-7,-9
-1,3,4,-1,-3,3,5,15,3,8,-7,-9
-1,2,4,-1,-2,3,4,16,3,8,-7,-9
-1,2,3,-1,-2,2,4,16,3,9,-7,-9
-1,1,2,-1,-1,2,3,17,3,9,-7,-9
0,1,1,-1,0,1,3,17,4,9,-7,-9
0,1,0,-1,0,0,2,18,4,10,-7,-9
1,0,0,-1,0,0,2,19,5,10,-7,-9
1,0,-1,-1,1,-1,2,20,6,10,-7,-9
2,0,-3,-1,2,-2,2,22,7,11,-6,-8
3,0,-4,-1,3,-2,2,23,8,11,-6,-8
3,0,-4,-1,3,-2,2,25,9,12,-5,-7
3,-1,-5,0,3,-3,2,26,10,12,-5,-7
3,-1,-5,0,3,-3,2,27,11,13,-4,-7
3,-1,-5,-1,4,-3,3,28,12,14,-4,-6
3,-1,-5,-1,4,-3,3,29,12,14,-3,-6
4,-1,-5,-1,4,-3,4,30,13,15,-3,-6
5,0,-5,-2,5,-3,4,31,15,16,-2,-6
5,0,-5,-2,5,-3,5,33,16,17,-1,-5
6,1,-5,-3,5,-2,5,34,17,18,0,-5
7,2,-5,-4,5,-2,6,36,18,19,1,-4
7,2,-5,-4,6,-2,6,37,19,19,2,-3
7,2,-6,-5,6,-2,6,38,20,20,2,-3
8,3,-6,-5,7,-2,7,39,21,21,3,-2
8,3,-6,-6,7,-1,7,39,21,22,3,-2
8,3,-6,-6,7,-1,7,40,22,22,4,-2
8,3,-6,-6,7,-1,7,41,23,23,5,-1
8,3,-6,-6,7,-1,7,41,23,23,6,0
9,4,-6,-7,7,-1,7,42,24,24,7,0
9,4,-6,-7,7,0,7,42,24,25,7,0
10,5,-5,-8,7,0,8,43,25,26,8,1
10,6,-5,-8,7,1,8,43,25,26,8,1
10,7,-4,-9,7,1,9,43,25,27,8,1
10,7,-4,-9,7,2,9,43,25,27,8,1
10,7,-3,-9,7,2,9,43,25,27,9,1
10,7,-3,-9,7,2,8,43,24,27,9,1
10,8,-3,-9,7,2,8,43,24,27,10,2
10,8,-3,-9,7,2,8,42,24,27,10,2
10,8,-3,-9,7,2,7,42,24,27,10,2
10,8,-3,-9,7,2,7,41,23,27,10,2
10,8,-3,-9,7,2,6,40,23,27,10,2
10,9,-3,-9,6,2,6,39,23,27,10,3
10,9,-2,-9,6,3,6,38,22,27,10,3
10,9,-1,-9,5,3,5,36,22,26,10,4
9,9,-1,-9,5,4,5,35,21,26,10,4
8,9,0,-9,4,4,5,34,20,26,10,4
8,9,0,-9,4,5,4,32,19,25,10,4
7,9,0,-9,3,5,4,31,18,24,9,4
7,9,1,-9,3,6,3,29,17,23,8,3
7,9,1,-9,2,6,3,27,15,22,7,3
6,9,2,-8,2,6,2,25,14,21,7,2
6,9,2,-8,1,6,2,23,12,20,6,1
5,9,2,-7,1,6,1,21,11,19,5,0
5,9,2,-7,1,6,1,20,9,19,5,0
4,9,3,-7,1,6,0,18,8,18,4,-1
4,9,3,-6,0,6,0,16,6,17,3,-2
3,8,3,-5,0,5,0,14,5,16,2,-2
2,7,3,-5,0,5,0,13,4,15,1,-3
2,7,3,-4,0,5,-1,12,3,14,0,-3
2,6,4,-4,-1,5,-1,11,2,13,0,-4
2,6,4,-4,-1,5,-1,10,1,13,-1,-4
1,6,4,-4,-1,5,-1,9,0,12,-2,-5
1,6,3,-4,-1,5,-1,8,0,11,-3,-5
0,5,3,-3,-1,5,-2,7,-1,10,-4,-6
0,5,3,-2,-2,4,-2,6,-2,9,-5,-6
-1,5,3,-2,-2,4,-2,5,-2,9,-5,-7
-1,5,4,-2,-3,4,-2,5,-3,8,-6,-7
-1,5,4,-2,-3,4,-2,4,-3,8,-6,-7
-1,5,5,-2,-3,4,-2,4,-3,8,-7,-8
-1,5,5,-2,-3,5,-1,3,-3,8,-7,-8
-1,5,5,-2,-3,5,-1,3,-3,8,-7,-8
0,6,6,-3,-3,6,-1,3,-3,8,-7,-8
0,7,6,-3,-3,7,0,3,-3,8,-7,-8
0,8,7,-4,-3,8,0,3,-3,8,-7,-8
0,9,8,-4,-3,9,0,3,-3,8,-7,-8
0,9,8,-4,-4,9,-1,2,-4,8,-7,-8
0,9,8,-4,-4,8,-1,1,-4,8,-7,-8
-1,8,8,-3,-4,8,-2,0,-5,7,-7,-9
-1,7,8,-3,-4,7,-2,0,-5,7,-7,-9
-1,7,7,-3,-4,7,-3,0,-6,7,-8,-9
-1,6,7,-3,-4,7,-3,-1,-6,6,-8,-10
-1,6,6,-2,-4,6,-4,-1,-6,6,-8,-10
-1,6,6,-2,-3,6,-5,-2,-6,6,-9,-10
0,6,5,-3,-3,6,-6,-2,-7,6,-9,-10
0,7,5,-3,-3,6,-6,-2,-7,6,-9,-10
0,6,5,-3,-3,6,-7,-2,-8,6,-9,-10
0,6,5,-3,-2,6,-7,-2,-8,6,-9,-10
0,5,5,-2,-2,6,-8,-3,-8,5,-9,-10
-1,3,4,-1,-3,5,-9,-3,-9,4,-10,-11
-2,2,4,0,-3,4,-10,-4,-10,3,-11,-12
-1,2,3,0,-2,3,-11,-5,-10,3,-11,-12
-1,2,3,0,-2,3,-12,-5,-10,2,-11,-12
-1,2,2,0,-2,2,-13,-5,-10,2,-12,-12
-1,1,2,0,-2,2,-13,-5,-10,1,-12,-12
-1,1,1,0,-1,1,-13,-5,-10,1,-12,-13
-1,0,1,0,-1,1,-13,-5,-10,1,-12,-13
-1,0,0,1,-1,0,-13,-5,-10,1,-12,-14
-1,0,0,1,-1,0,-13,-5,-10,1,-12,-14
-1,0,0,1,-1,0,-12,-5,-10,1,-12,-14
-1,0,0,1,0,0,-12,-5,-9,2,-12,-14
-1,0,0,0,0,0,-12,-4,-9,2,-12,-14
-1,0,0,1,0,0,-12,-4,-9,2,-12,-14
-1,-1,0,1,0,0,-12,-4,-9,3,-12,-14
-1,0,0,0,0,0,-11,-3,-9,3,-11,-14
0,0,0,0,0,0,-11,-3,-9,3,-11,-14
-1,0,0,0,0,0,-11,-3,-9,3,-11,-14
-1,-1,0,0,0,0,-11,-3,-9,3,-11,-14
-1,-1,0,1,0,0,-11,-3,-9,3,-11,-14
-1,-1,0,1,0,0,-11,-3,-9,3,-11,-14
-1,-1,0,1,0,0,-11,-3,-9,3,-11,-14
-2,-1,0,1,-1,0,-11,-3,-8,3,-11,-14
-2,-1,0,1,-1,0,-11,-3,-8,3,-11,-14
-2,-1,0,1,-1,0,-10,-3,-8,4,-11,-14
-2,-1,0,1,-1,0,-10,-3,-8,4,-11,-14
-2,-1,0,1,-1,0,-10,-3,-7,4,-11,-14
-2,-1,1,1,-1,0,-10,-3,-7,4,-11,-14
-2,0,1,1,-1,0,-10,-3,-8,4,-11,-14
-1,0,1,1,-1,0,-10,-2,-7,5,-11,-14
-1,0,1,1,-1,0,-10,-2,-7,5,-11,-14
-2,0,1,1,-2,0,-10,-2,-7,5,-11,-14
-2,0,1,1,-2,0,-10,-2,-7,5,-11,-13
-2,0,1,1,-2,0,-10,-2,-7,5,-11,-13
-2,0,1,1,-2,0,-9,-2,-7,5,-11,-13
-2,0,1,1,-2,0,-9,-2,-7,5,-11,-13
-2,0,1,1,-2,0,-8,-1,-7,6,-11,-13
-2,0,1,1,-2,1,-8,-1,-6,6,-10,-13
-2,0,2,1,-3,1,-8,-1,-6,6,-10,-13
-2,0,2,0,-3,2,-8,0,-6,6,-9,-12
-1,1,2,0,-3,2,-8,0,-6,7,-9,-12
-1,1,2,0,-3,3,-8,0,-6,7,-9,-12
-1,1,2,0,-3,3,-8,0,-6,7,-9,-12
-1,1,2,0,-3,3,-7,0,-6,7,-9,-12
-1,1,2,0,-3,2,-7,0,-6,7,-9,-12
-1,1,2,0,-3,2,-7,0,-6,7,-9,-13
-1,1,2,0,-3,2,-7,0,-6,7,-9,-13
-1,1,2,0,-3,2,-7,0,-6,6,-9,-14
-1,1,2,0,-3,2,-6,0,-6,6,-8,-14
-1,1,2,0,-3,2,-6,0,-6,6,-8,-14
-1,1,2,0,-3,2,-6,0,-6,5,-8,-14
-1,1,2,0,-3,2,-5,0,-6,5,-8,-14
-1,1,2,0,-3,2,-5,0,-6,5,-8,-14
-1,1,2,0,-3,2,-5,0,-6,5,-8,-14
-1,0,2,0,-3,2,-5,0,-6,5,-9,-15
-1,1,2,0,-3,2,-5,0,-6,5,-9,-15
-1,1,2,0,-3,2,-5,0,-6,5,-10,-16
-2,0,2,0,-3,2,-4,0,-6,5,-10,-16
-2,0,2,0,-3,2,-4,0,-6,5,-10,-16
-2,1,3,0,-3,2,-3,1,-6,5,-10,-16
-2,1,3,0,-3,3,-3,1,-6,5,-10,-16
-2,2,4,0,-3,3,-2,2,-6,5,-9,-16
-2,3,4,0,-4,4,-2,2,-6,5,-9,-16
-2,4,5,-1,-4,4,-1,2,-6,5,-9,-16
-1,4,5,-1,-4,5,-1,2,-6,5,-8,-16
-1,5,6,-2,-4,6,-1,2,-5,5,-8,-15
-1,6,6,-2,-4,6,-2,2,-5,5,-8,-15
0,6,6,-3,-4,6,-2,1,-5,5,-8,-15
0,6,6,-3,-4,6,-3,1,-6,5,-8,-15
0,5,6,-3,-4,6,-3,0,-6,4,-9,-15
0,5,6,-2,-4,6,-3,0,-6,4,-9,-16
0,5,6,-2,-4,6,-4,0,-7,4,-9,-16
0,5,6,-2,-4,6,-4,0,-7,5,-9,-17
-1,5,6,-2,-4,6,-4,0,-7,5,-9,-17
-2,4,6,-1,-4,6,-5,-1,-7,5,-9,-17
-2,4,6,-1,-5,6,-5,-1,-7,5,-9,-17
-2,4,6,-1,-5,6,-5,-1,-7,5,-9,-17
-2,4,5,-1,-5,5,-6,-1,-7,5,-9,-17
-1,3,5,-1,-4,5,-7,-2,-8,5,-9,-18
-1,3,4,-1,-4,4,-7,-2,-8,4,-9,-18
-1,3,4,-1,-3,4,-8,-2,-8,4,-9,-18
-1,3,3,-1,-3,4,-8,-2,-8,4,-9,-18
0,3,3,-1,-3,4,-8,-2,-8,4,-9,-18
0,3,3,-1,-3,4,-8,-2,-8,4,-9,-18
-1,2,3,0,-3,3,-8,-3,-8,3,-10,-18
-1,2,2,0,-3,2,-8,-3,-8,3,-10,-18
-1,1,2,0,-2,2,-8,-3,-8,2,-10,-18
-1,1,1,0,-2,1,-8,-3,-8,2,-10,-17
-1,0,1,0,-2,1,-8,-3,-8,1,-10,-17
-1,0,0,1,-2,1,-9,-3,-8,1,-10,-17
-1,-1,0,1,-2,0,-9,-3,-8,1,-11,-17
-1,-1,0,1,-2,0,-9,-3,-8,1,-11,-17
-1,-1,-1,1,-1,0,-9,-3,-8,0,-11,-17
-1,-1,-1,1,-1,-1,-9,-3,-9,0,-11,-18
-1,-2,-1,2,-1,-1,-9,-4,-9,0,-11,-18
-1,-2,-1,2,-1,-1,-9,-4,-9,-1,-11,-19
-1,-2,-2,2,-1,-1,-10,-4,-9,-1,-11,-19
-1,-2,-2,2,-1,-1,-10,-4,-9,-1,-11,-19
-1,-2,-2,2,-1,-1,-10,-4,-9,-1,-11,-20
0,-2,-2,2,0,-2,-10,-4,-9,-1,-11,-20
0,-2,-3,2,0,-2,-10,-4,-9,-1,-11,-21
-1,-2,-3,2,0,-2,-9,-4,-8,-2,-11,-21
-1,-2,-2,2,0,-2,-9,-4,-8,-2,-11,-21
-1,-2,-2,2,0,-2,-9,-4,-8,-3,-11,-21
-1,-2,-2,2,0,-2,-9,-4,-9,-3,-11,-21
-1,-2,-2,2,0,-2,-9,-4,-9,-3,-12,-21
-1,-2,-2,2,0,-2,-9,-4,-9,-3,-12,-20
-1,-2,-2,2,0,-2,-9,-4,-9,-3,-12,-20
-1,-2,-2,2,0,-2,-9,-4,-9,-3,-12,-20
-1,-3,-2,2,0,-3,-8,-4,-9,-3,-12,-20
-1,-3,-3,2,0,-3,-8,-4,-9,-3,-12,-20
-1,-3,-3,2,0,-3,-8,-4,-9,-3,-12,-20
-1,-3,-3,2,0,-2,-8,-4,-9,-2,-12,-20
-1,-3,-3,2,0,-2,-8,-4,-9,-2,-12,-20
-1,-3,-3,2,0,-2,-7,-4,-9,-2,-12,-20
-1,-3,-3,2,0,-2,-7,-5,-9,-2,-13,-20
-1,-3,-3,2,0,-2,-7,-5,-9,-2,-13,-20
-1,-3,-2,2,0,-2,-7,-5,-9,-2,-13,-21
-1,-3,-2,2,0,-2,-7,-5,-9,-2,-13,-21
-1,-2,-2,2,0,-2,-6,-5,-9,-2,-13,-21
-1,-2,-2,2,0,-1,-6,-5,-9,-2,-13,-21
-1,-3,-2,2,-1,-1,-6,-5,-9,-2,-13,-21
-2,-3,-2,2,-1,-1,-6,-5,-9,-2,-13,-22
-2,-4,-2,3,-1,-2,-6,-5,-9,-2,-14,-22
-2,-4,-2,3,-1,-2,-6,-5,-9,-2,-14,-22
-2,-4,-2,3,-1,-2,-6,-5,-9,-2,-14,-21
-2,-4,-2,3,-1,-2,-6,-5,-9,-2,-13,-21
-2,-4,-2,3,-1,-2,-6,-5,-9,-2,-13,-21
-2,-4,-2,3,-1,-2,-6,-5,-9,-2,-13,-21
-2,-4,-2,3,-1,-2,-5,-5,-9,-1,-13,-21
-2,-3,-1,2,-1,-2,-5,-5,-9,-1,-12,-21
-2,-3,-1,2,-1,-1,-4,-5,-9,0,-12,-21
-2,-3,-1,2,-1,-1,-3,-4,-9,0,-12,-21
-2,-3,0,2,-2,-1,-2,-3,-9,0,-12,-21
-3,-3,0,3,-3,-1,0,-1,-7,0,-13,-21
-4,-2,1,3,-4,0,3,2,-5,0,-12,-21
-4,-1,3,3,-5,1,6,6,-1,3,-11,-21
-4,1,5,2,-6,3,9,12,4,7,-8,-19
-4,4,8,0,-7,6,13,19,11,13,-3,-15
-3,8,11,-2,-7,10,16,26,19,21,4,-10
-1,13,13,-6,-7,14,18,34,29,32,14,-3
3,20,15,-12,-6,18,19,43,41,47,27,7
9,28,17,-19,-4,23,19,53,55,63,43,19
16,36,18,-26,-2,28,17,59,66,78,58,31
23,43,19,-33,1,31,12,60,74,91,73,42
30,50,18,-40,4,34,5,59,80,102,85,52
36,54,17,-45,8,36,-2,57,83,110,94,59
41,57,15,-48,11,37,-9,54,83,112,97,63
44,58,13,-50,15,36,-16,48,78,109,95,63
46,57,10,-51,17,34,-22,39,69,100,87,59
45,55,9,-50,17,32,-28,23,53,85,76,54
42,51,9,-46,15,31,-36,-1,28,65,60,46
37,46,8,-41,13,28,-46,-34,-4,39,39,35
32,39,6,-35,12,23,-56,-64,-36,13,19,23
29,32,4,-30,12,19,-63,-85,-58,-7,4,13
25,27,3,-26,11,16,-68,-96,-71,-19,-6,6
22,23,2,-22,10,13,-70,-99,-76,-25,-12,1
19,19,0,-18,9,10,-71,-97,-77,-29,-17,-3
16,15,-1,-16,8,8,-71,-93,-76,-31,-21,-7
14,13,-2,-13,7,6,-69,-87,-72,-32,-23,-9
12,11,-2,-11,6,5,-65,-78,-66,-31,-23,-11
10,10,-1,-9,4,5,-59,-69,-60,-29,-23,-13
8,8,0,-8,3,4,-52,-60,-53,-27,-23,-15
6,8,1,-7,2,5,-46,-52,-47,-25,-22,-16
5,8,2,-6,1,6,-41,-44,-42,-22,-20,-16
3,8,4,-6,0,6,-36,-38,-37,-18,-19,-15
2,8,5,-5,-1,7,-31,-32,-33,-15,-17,-15
1,7,5,-4,-2,6,-27,-28,-29,-13,-16,-15
0,5,4,-3,-3,5,-23,-24,-26,-11,-15,-15
-1,3,3,-1,-3,3,-20,-20,-23,-10,-15,-16
-1,2,2,0,-2,2,-16,-17,-20,-10,-15,-16
-2,1,1,0,-2,1,-14,-15,-18,-9,-15,-17
-3,0,1,1,-2,0,-12,-13,-17,-9,-14,-17
-3,-1,1,2,-2,0,-11,-11,-15,-8,-14,-17
-3,-2,1,2,-2,0,-10,-11,-15,-7,-14,-17
-3,-2,0,2,-2,-1,-9,-10,-14,-6,-14,-17
-2,-2,-1,2,-1,-1,-9,-10,-14,-6,-14,-17
-2,-2,-2,2,-1,-2,-9,-9,-13,-7,-13,-17
-1,-2,-2,2,0,-2,-8,-9,-13,-7,-13,-17
-2,-3,-2,3,0,-2,-8,-8,-13,-7,-13,-18
-2,-4,-2,3,-1,-3,-7,-8,-13,-7,-13,-18
-2,-4,-2,3,0,-3,-7,-7,-13,-7,-13,-19
-2,-5,-2,3,0,-4,-7,-7,-12,-6,-13,-19
-2,-5,-2,3,0,-4,-6,-7,-12,-6,-13,-19
-2,-4,-2,3,0,-4,-6,-7,-12,-6,-13,-19
-2,-4,-3,3,0,-4,-5,-6,-12,-6,-13,-19
-2,-4,-3,3,0,-4,-5,-6,-12,-6,-13,-19
-2,-4,-3,3,0,-4,-4,-5,-12,-6,-12,-19
-2,-4,-3,3,0,-3,-4,-5,-12,-6,-12,-19
-2,-5,-3,3,0,-3,-4,-5,-12,-6,-12,-19
-2,-5,-3,3,0,-4,-4,-5,-12,-6,-13,-19
-2,-5,-3,3,0,-4,-4,-5,-12,-6,-13,-19
-2,-5,-3,3,0,-4,-3,-5,-12,-5,-13,-19
-2,-5,-3,3,0,-4,-3,-5,-12,-5,-13,-19
-2,-5,-3,3,0,-4,-3,-4,-12,-5,-13,-19
-2,-5,-3,3,0,-4,-3,-4,-12,-5,-13,-19
-2,-5,-3,3,0,-4,-2,-4,-11,-5,-13,-19
-2,-5,-3,3,0,-4,-2,-4,-11,-5,-13,-19
-2,-5,-3,3,0,-4,-1,-3,-11,-5,-12,-19
-2,-5,-3,3,0,-4,-1,-3,-11,-5,-12,-19
-2,-5,-3,3,0,-4,-1,-3,-11,-5,-12,-20
-2,-5,-3,3,0,-4,-1,-3,-11,-5,-12,-20
-2,-5,-3,3,0,-4,-1,-3,-11,-5,-12,-20
-2,-4,-3,3,0,-3,0,-2,-10,-5,-12,-20
-2,-4,-3,3,0,-3,0,-2,-10,-5,-12,-20
-1,-4,-3,3,0,-3,1,-1,-10,-5,-12,-20
-1,-4,-3,3,0,-3,2,-1,-10,-5,-12,-20
-1,-4,-3,3,0,-3,2,-1,-10,-4,-11,-20
-1,-4,-3,3,0,-3,3,0,-9,-4,-11,-20
-1,-4,-3,3,0,-4,3,0,-8,-4,-11,-20
0,-4,-3,2,0,-4,4,1,-7,-4,-10,-19
0,-3,-3,2,0,-3,5,1,-7,-4,-10,-19
0,-3,-2,2,0,-3,5,2,-6,-3,-10,-19
0,-2,-2,1,0,-2,6,2,-6,-3,-10,-18
0,-1,-1,0,0,-1,7,3,-5,-2,-9,-18
0,-1,0,0,0,-1,7,3,-5,-2,-9,-18
0,0,0,0,-1,0,7,3,-5,-1,-8,-18
0,0,0,0,-1,0,7,3,-5,-1,-8,-18
0,0,0,0,-1,0,6,3,-5,-1,-8,-18
0,0,0,0,-1,0,6,4,-4,-2,-8,-18
0,0,0,0,-1,0,6,4,-4,-2,-8,-18
0,0,0,0,0,0,5,4,-4,-2,-8,-18
0,0,0,0,0,0,5,4,-4,-2,-8,-19
0,0,-1,0,0,0,4,4,-4,-1,-8,-19
0,0,-1,0,0,0,4,4,-4,-1,-8,-20
0,0,-1,0,0,0,4,4,-4,-1,-8,-20
0,0,-1,0,0,0,4,5,-4,-1,-8,-21
0,0,-1,0,0,0,4,5,-4,-1,-8,-22
0,-1,-1,0,0,0,4,5,-4,-1,-8,-23
0,-1,-1,0,0,-1,4,6,-3,-1,-8,-23
0,-1,-1,0,0,-1,4,6,-3,-1,-8,-24
0,-1,-1,0,0,-1,4,7,-3,-1,-8,-24
0,-1,-1,0,0,-1,4,7,-3,-1,-7,-24
0,-1,-2,0,0,-1,4,7,-2,0,-7,-24
1,-1,-2,0,1,-1,4,8,-2,0,-7,-24
1,0,-2,0,1,-1,4,9,-1,0,-7,-25
2,0,-2,-1,1,-1,4,10,0,1,-6,-25
3,0,-2,-1,2,-1,4,12,0,1,-5,-25
3,0,-2,-2,2,-1,5,13,1,2,-5,-25
3,0,-2,-2,2,-1,5,14,2,2,-4,-26
3,0,-2,-2,2,-1,6,15,3,3,-4,-26
3,0,-2,-2,2,-1,7,15,4,3,-4,-27
4,1,-2,-2,2,0,7,16,5,4,-3,-27
4,1,-2,-2,2,0,7,17,5,5,-3,-27
4,1,-2,-2,2,0,7,18,6,6,-3,-28
4,0,-3,-2,2,-1,8,19,7,6,-3,-28
4,0,-3,-2,2,-1,8,20,8,7,-2,-28
4,0,-3,-3,3,-1,9,21,9,8,-2,-28
5,1,-3,-3,3,-1,10,22,10,8,-1,-28
6,2,-3,-4,4,0,11,23,11,9,-1,-28
5,1,-3,-3,4,-1,11,24,11,9,0,-28
5,1,-3,-3,3,-1,11,24,11,9,0,-28
5,2,-3,-4,3,0,12,25,12,10,0,-27
6,4,-2,-5,3,1,12,27,13,10,1,-27
6,3,-2,-5,3,1,12,27,13,10,1,-27
5,3,-2,-4,3,0,12,28,14,11,1,-28
6,3,-2,-5,4,0,13,28,14,11,2,-27
6,3,-2,-5,4,0,13,29,15,11,2,-27
6,3,-3,-5,4,0,14,29,15,11,3,-27
7,3,-3,-5,4,0,14,29,15,11,3,-26
7,4,-3,-6,4,1,14,30,16,11,3,-26
8,4,-3,-6,5,1,14,30,16,11,3,-26
8,5,-3,-7,5,1,14,30,16,11,4,-26
8,5,-3,-7,5,2,14,30,16,12,4,-26
9,6,-2,-7,5,2,14,30,17,12,4,-26
9,6,-2,-8,5,2,14,30,17,12,4,-26
10,7,-2,-8,5,2,14,30,17,12,4,-26
10,7,-2,-9,5,2,14,30,17,13,5,-26
10,7,-2,-8,5,2,14,30,17,13,5,-26
10,7,-2,-8,5,2,13,30,17,14,5,-26
10,7,-2,-9,6,2,13,30,17,14,5,-26
10,8,-2,-9,6,3,13,29,17,14,6,-25
10,7,-2,-9,6,2,12,28,16,14,5,-25
10,7,-3,-9,6,2,12,28,16,14,5,-25
11,7,-3,-9,6,2,11,27,15,14,5,-24
11,7,-3,-9,6,2,11,27,15,14,5,-24
11,7,-3,-9,6,2,10,26,14,14,5,-23
11,7,-2,-9,6,2,10,25,14,14,6,-23
11,8,-2,-9,6,2,9,24,13,14,6,-22
10,8,-2,-9,6,2,8,23,12,13,5,-22
10,7,-2,-9,6,2,8,21,11,13,5,-23
10,7,-2,-9,6,2,7,20,10,12,4,-23
10,7,-1,-8,5,2,7,19,9,12,4,-23
9,7,-1,-8,4,2,6,17,9,11,3,-23
9,7,-1,-7,4,2,6,16,8,11,3,-24
8,6,-1,-7,3,2,5,15,8,10,2,-24
7,6,0,-6,3,2,5,13,7,9,2,-24
6,5,0,-6,3,2,5,12,6,9,1,-24
6,5,0,-5,2,2,4,11,5,8,1,-22
5,5,0,-5,2,2,4,10,4,7,0,-21
4,4,1,-4,1,2,3,9,3,7,0,-21
3,4,1,-4,0,2,3,8,3,6,-1,-20
2,3,1,-3,0,2,3,7,2,6,-1,-20
2,3,1,-3,0,2,3,6,2,5,-2,-19
1,2,1,-2,0,2,3,5,1,4,-2,-19
1,1,0,-2,0,1,2,4,0,4,-3,-19
1,1,0,-1,0,1,2,3,-1,3,-4,-20
0,1,0,-1,-1,0,2,2,-2,2,-5,-20
0,1,0,-1,-1,0,2,1,-3,1,-6,-21
0,1,0,-1,-1,0,2,1,-3,1,-6,-21
0,0,0,0,-1,0,2,0,-4,0,-7,-22
0,0,1,0,-1,0,2,0,-4,0,-8,-22
0,0,1,0,-1,0,2,0,-4,0,-8,-22
-1,0,2,0,-2,0,3,0,-4,0,-8,-22
-1,0,2,0,-2,0,3,0,-4,0,-8,-22
-1,0,2,0,-2,1,4,0,-4,0,-8,-22
-1,1,2,-1,-2,1,5,0,-4,1,-8,-22
0,1,2,-1,-1,2,6,0,-3,1,-7,-22
0,2,2,-1,-1,2,6,0,-3,1,-7,-22
0,2,2,-1,-1,2,7,1,-3,2,-6,-22
0,3,3,-2,-1,3,8,1,-3,2,-6,-22
0,3,3,-2,-1,3,9,1,-3,2,-6,-21
0,4,4,-3,-2,4,9,1,-2,2,-5,-21
0,5,4,-3,-2,5,8,0,-2,2,-5,-21
0,5,4,-3,-2,5,7,0,-2,2,-5,-21
0,5,4,-3,-2,4,6,0,-3,2,-5,-21
0,4,3,-3,-2,4,4,-1,-3,1,-5,-21
0,4,3,-2,-2,3,2,-2,-4,1,-6,-21
0,3,3,-2,-2,3,1,-2,-5,1,-6,-21
0,3,2,-2,-2,3,-1,-3,-5,1,-6,-21
0,2,2,-1,-1,2,-2,-3,-5,1,-6,-21
0,2,1,-1,-1,1,-4,-4,-5,1,-6,-21
0,1,0,-1,0,0,-5,-4,-5,1,-6,-21
0,1,0,-1,0,0,-5,-4,-5,1,-6,-21
0,0,-1,0,0,0,-6,-5,-6,1,-7,-22
0,-1,-1,0,0,-1,-6,-5,-6,0,-7,-22
0,-1,-2,0,0,-1,-7,-6,-7,-1,-8,-23
0,-2,-2,1,0,-2,-7,-6,-7,-1,-8,-23
-1,-2,-2,1,0,-2,-7,-6,-7,-1,-8,-24
-1,-2,-2,2,0,-2,-7,-6,-7,-1,-8,-24
-2,-2,-2,2,0,-2,-7,-6,-7,-2,-8,-25
-2,-2,-2,2,0,-2,-7,-6,-7,-2,-9,-25
-1,-2,-2,2,0,-2,-7,-6,-7,-2,-9,-25
-1,-3,-1,2,0,-2,-7,-6,-8,-2,-10,-25
-2,-3,-1,2,0,-2,-7,-6,-8,-2,-10,-26
-1,-3,-1,2,0,-2,-7,-6,-8,-2,-10,-26
-1,-3,-1,2,0,-2,-7,-6,-8,-2,-10,-27
-1,-3,-1,2,0,-2,-7,-6,-8,-2,-10,-27
-1,-3,-1,2,0,-2,-6,-6,-8,-2,-10,-27
-1,-3,-1,2,0,-2,-6,-6,-7,-2,-10,-27
-1,-3,-1,2,0,-2,-6,-6,-7,-2,-9,-28
-1,-3,-1,2,0,-2,-6,-6,-7,-2,-9,-28
-2,-3,-1,2,-1,-2,-6,-6,-7,-2,-9,-29
-2,-3,-1,2,-1,-2,-6,-6,-7,-2,-9,-29
-2,-3,-1,2,-1,-2,-6,-6,-7,-2,-9,-30
-2,-3,-1,2,-1,-2,-6,-6,-7,-2,-9,-30
-2,-3,0,2,-2,-2,-6,-6,-7,-2,-9,-30
-3,-3,0,3,-2,-2,-6,-5,-6,-2,-9,-31
-3,-3,0,3,-2,-2,-5,-5,-6,-2,-9,-31
-3,-3,0,3,-2,-2,-5,-5,-6,-2,-9,-31
-3,-3,0,3,-2,-2,-5,-5,-6,-2,-9,-31
-3,-3,0,3,-2,-2,-4,-5,-6,-2,-9,-31
-3,-3,0,3,-2,-2,-4,-5,-6,-2,-10,-31
-2,-3,0,3,-2,-2,-4,-5,-6,-2,-10,-31
-2,-3,0,3,-2,-2,-4,-5,-6,-2,-11,-32
-3,-3,0,3,-2,-2,-4,-5,-6,-2,-11,-32
-3,-3,0,3,-2,-2,-4,-5,-6,-2,-11,-32
-3,-3,0,3,-2,-2,-4,-4,-6,-2,-11,-32
-3,-3,0,3,-2,-2,-4,-4,-6,-2,-11,-32
-3,-4,0,3,-2,-2,-4,-4,-6,-2,-11,-32
-3,-4,0,3,-2,-2,-3,-4,-6,-2,-11,-31
-3,-4,0,3,-2,-2,-3,-4,-5,-2,-11,-31
-3,-4,0,3,-3,-2,-3,-4,-5,-2,-11,-31
-3,-4,1,3,-3,-1,-2,-3,-5,-2,-11,-30
-3,-3,1,3,-3,-1,-2,-3,-5,-1,-11,-30
-4,-3,1,3,-3,-1,-2,-3,-5,-1,-11,-29
-4,-3,1,3,-3,-1,-2,-3,-5,-1,-11,-29
-4,-3,1,3,-3,0,-1,-3,-5,-1,-10,-28
-4,-3,1,3,-3,0,-1,-3,-4,-1,-10,-27
-4,-4,1,3,-3,-1,-1,-3,-4,-1,-10,-27
-4,-4,0,3,-3,-1,0,-2,-4,-1,-10,-26
-4,-4,0,3,-3,-1,0,-2,-4,-1,-10,-26
-4,-4,0,3,-3,-1,0,-2,-4,-1,-9,-25
-4,-4,1,3,-3,-1,0,-2,-4,-1,-9,-24
-4,-3,1,3,-3,-1,0,-2,-4,-1,-9,-24
-4,-3,1,3,-3,-1,0,-2,-4,-1,-9,-23
-3,-3,1,3,-2,-1,0,-2,-4,-1,-9,-23
-3,-3,1,3,-2,0,0,-2,-4,-1,-9,-23
-3,-2,2,3,-3,0,1,-2,-4,0,-9,-23
-3,-2,2,3,-3,0,1,-2,-4,0,-9,-23
-3,-2,2,3,-3,0,2,-2,-4,-1,-9,-23
-3,-2,2,3,-3,0,2,-2,-4,-1,-9,-23
-3,-2,2,3,-3,0,2,-2,-4,-1,-9,-22
-4,-2,3,3,-4,0,3,-2,-4,-1,-9,-20
-4,-2,3,3,-4,0,3,-2,-4,-1,-9,-19
-4,-2,3,3,-4,0,4,-2,-4,-1,-9,-18
-4,-2,3,3,-4,0,4,-2,-4,-2,-9,-17
-4,-2,3,3,-4,0,4,-2,-4,-2,-9,-17
-4,-2,3,3,-4,0,4,-2,-3,-2,-9,-16
-4,-2,3,2,-4,1,4,-2,-3,-2,-9,-16
-4,-1,3,2,-4,1,4,-1,-2,-1,-9,-15
-4,0,4,1,-4,2,5,-1,-2,-1,-8,-15
-4,0,4,1,-4,3,5,-1,-2,-1,-8,-14
-3,0,5,1,-4,3,5,-1,-2,0,-7,-14
-3,1,5,0,-5,4,5,-1,-2,0,-7,-14
-3,1,6,0,-5,4,5,-1,-2,0,-7,-14
-3,1,6,0,-5,4,5,-1,-2,0,-7,-14
-3,2,6,0,-5,4,4,-1,-1,0,-7,-14
-3,2,6,0,-5,4,4,-1,-1,0,-7,-14
-3,1,6,0,-5,4,4,-1,-1,0,-7,-14
-4,1,5,1,-5,3,3,-2,-1,-1,-7,-14
-4,0,5,1,-5,3,3,-2,-2,-1,-7,-15
-4,0,4,2,-5,2,2,-3,-2,-1,-8,-15
-4,0,4,2,-5,2,1,-3,-3,-1,-8,-15
-4,-1,4,2,-5,1,1,-4,-3,-1,-9,-15
-4,-1,4,2,-5,1,0,-4,-4,-1,-9,-15
-4,-1,3,2,-4,1,0,-4,-4,-2,-9,-15
-4,-1,3,2,-4,1,0,-4,-4,-2,-9,-15
-4,-2,3,2,-4,0,-1,-5,-4,-2,-9,-15
-4,-2,3,2,-4,0,-1,-5,-5,-3,-9,-15
-4,-2,3,2,-4,0,-1,-5,-5,-3,-9,-15
-4,-2,3,3,-4,0,-1,-5,-5,-3,-10,-15
-5,-3,3,4,-4,0,-1,-5,-6,-3,-10,-15
-6,-3,3,4,-5,0,-1,-5,-6,-3,-10,-15
-6,-3,3,4,-5,0,-1,-5,-6,-3,-11,-15
-6,-3,3,5,-5,0,-2,-6,-6,-3,-11,-15
-5,-4,2,5,-4,-1,-2,-6,-7,-3,-11,-15
-4,-3,2,4,-4,-1,-2,-7,-7,-3,-11,-15
-4,-3,2,3,-3,-1,-2,-7,-7,-3,-11,-15
-3,-3,1,3,-3,-1,-2,-7,-7,-3,-12,-15
-3,-3,1,3,-3,-1,-2,-7,-7,-4,-12,-15
-4,-3,1,4,-3,-1,-2,-7,-7,-4,-12,-15
-4,-3,1,4,-3,-1,-2,-7,-7,-4,-12,-15
-4,-3,1,4,-3,-1,-2,-7,-7,-4,-13,-15
-4,-4,1,4,-3,-1,-2,-7,-7,-4,-13,-15
-4,-4,1,4,-3,-1,-2,-7,-8,-4,-13,-15
-4,-4,1,4,-3,-1,-2,-7,-8,-4,-13,-15
-4,-4,1,4,-3,-1,-2,-7,-8,-4,-13,-15
-4,-4,1,4,-3,-1,-1,-7,-8,-4,-13,-15
-4,-4,1,4,-3,-1,-1,-7,-8,-4,-13,-15
-4,-4,1,4,-3,-1,-1,-7,-8,-5,-13,-15
-4,-4,1,4,-3,-1,-1,-8,-8,-5,-13,-15
-4,-4,1,4,-3,-1,-1,-8,-8,-5,-13,-15
-4,-5,1,4,-3,-1,-1,-8,-8,-5,-13,-15
-4,-5,1,4,-3,-2,-1,-8,-8,-5,-13,-15
-4,-5,1,4,-3,-2,-1,-8,-8,-5,-13,-14
-4,-5,1,4,-3,-2,-1,-8,-8,-5,-13,-14
-4,-5,1,4,-3,-2,-1,-8,-8,-5,-13,-14
-4,-5,1,4,-3,-2,-1,-8,-8,-5,-13,-14
-4,-5,1,4,-3,-2,-1,-8,-8,-5,-13,-14
-4,-5,1,4,-3,-2,-1,-8,-8,-4,-12,-14
-4,-5,1,4,-3,-2,-1,-8,-8,-4,-12,-14
-4,-5,1,5,-3,-2,-1,-8,-8,-4,-12,-13
-5,-5,1,5,-3,-1,-1,-8,-8,-4,-12,-13
-5,-5,1,5,-3,-1,-1,-8,-8,-4,-12,-12
-5,-5,1,5,-3,-1,0,-8,-8,-4,-12,-12
-4,-5,1,5,-3,-1,0,-8,-8,-4,-12,-12
-4,-5,2,5,-3,-1,0,-8,-8,-4,-12,-11
-4,-5,2,4,-3,-1,0,-8,-8,-4,-12,-11
-4,-5,2,4,-3,-1,0,-8,-8,-4,-11,-10
-5,-5,2,4,-3,-1,0,-8,-8,-4,-11,-10
-5,-5,2,4,-3,-1,0,-8,-8,-4,-11,-10
-5,-5,2,4,-3,-1,0,-8,-8,-5,-11,-10
-5,-5,2,4,-3,-1,0,-8,-8,-5,-11,-10
-5,-4,2,4,-3,-1,0,-7,-8,-5,-10,-9
-5,-4,2,4,-3,-1,0,-7,-8,-4,-10,-9
-5,-4,2,4,-3,-1,0,-7,-8,-4,-10,-9
-5,-4,2,4,-3,-1,1,-7,-8,-4,-10,-9
-5,-4,2,4,-3,-1,1,-7,-8,-4,-10,-9
-5,-4,2,4,-3,-1,2,-7,-7,-4,-9,-8
-5,-4,2,4,-3,0,2,-6,-7,-4,-9,-8
-5,-3,2,4,-3,0,3,-6,-7,-4,-8,-7
-5,-3,2,4,-3,0,3,-5,-7,-4,-8,-7
-5,-3,2,4,-4,0,3,-5,-6,-4,-8,-7
-5,-3,2,4,-4,0,4,-5,-6,-3,-8,-7
-5,-3,2,4,-4,0,4,-5,-5,-3,-8,-6
-5,-3,2,4,-4,0,5,-5,-5,-3,-8,-6
-4,-3,2,3,-4,0,5,-4,-5,-3,-8,-5
-4,-2,3,3,-4,1,6,-4,-5,-3,-8,-5
-3,-1,3,2,-3,1,6,-3,-4,-2,-7,-4
-3,-1,3,1,-3,1,7,-2,-4,-2,-7,-4
-3,0,3,1,-3,2,7,-1,-3,-2,-7,-3
-3,0,4,1,-3,2,8,-1,-3,-2,-6,-3
-2,0,4,1,-3,2,8,-1,-3,-1,-6,-3
-2,0,4,1,-3,2,7,-1,-3,-1,-6,-3
-2,-1,3,1,-3,2,7,-2,-3,-1,-6,-3
-2,-1,3,1,-3,1,6,-2,-3,-1,-6,-3
-1,-1,2,1,-2,1,5,-2,-4,-2,-6,-3
-1,-2,1,1,-2,0,4,-3,-4,-2,-7,-3
-2,-3,0,2,-1,-1,2,-3,-5,-3,-7,-3
-2,-4,0,3,-1,-2,1,-4,-6,-3,-8,-3
-2,-5,-1,3,0,-2,0,-4,-6,-4,-8,-3
-2,-5,-2,3,0,-3,0,-5,-7,-4,-8,-4
-2,-6,-2,3,0,-3,-1,-5,-7,-5,-8,-4
-2,-6,-3,4,0,-4,-2,-6,-7,-5,-8,-5
-2,-7,-3,4,0,-4,-2,-6,-8,-6,-9,-5
-2,-7,-3,5,0,-4,-3,-7,-8,-6,-9,-6
-2,-8,-4,5,0,-5,-4,-8,-9,-7,-10,-6
-2,-8,-4,5,0,-5,-5,-8,-10,-7,-11,-6
-2,-8,-4,5,0,-5,-5,-9,-10,-7,-11,-6
-3,-9,-4,6,0,-6,-4,-8,-10,-8,-12,-7
-3,-9,-4,6,0,-6,-2,-7,-9,-8,-12,-7
-4,-9,-4,7,-1,-6,0,-4,-8,-7,-13,-8
-5,-9,-3,7,-1,-5,3,0,-5,-6,-12,-7
-5,-8,-2,6,-2,-4,6,5,0,-2,-10,-6
-5,-7,0,6,-2,-3,9,11,6,2,-7,-4
-4,-5,1,4,-3,-1,11,17,13,8,-1,0
-2,-1,2,2,-2,1,13,25,22,17,7,6
1,4,4,-3,-2,5,15,34,33,29,19,14
7,11,6,-9,0,10,17,44,46,44,33,25
14,20,7,-17,2,14,15,50,57,59,48,36
21,27,7,-24,6,18,11,52,65,72,61,47
28,34,7,-31,10,21,4,51,70,83,73,57
35,40,6,-37,14,23,-2,50,74,91,82,65
41,43,4,-42,18,24,-8,48,75,95,87,71
45,45,1,-45,22,24,-14,44,72,94,88,73
48,45,-2,-46,25,23,-20,36,65,87,83,71
48,43,-4,-46,26,21,-26,23,52,75,73,67
45,40,-4,-43,24,19,-34,0,30,57,58,60
40,34,-5,-37,22,16,-45,-31,1,33,39,50
34,26,-7,-31,20,11,-55,-63,-31,7,18,38
30,19,-9,-25,20,5,-63,-87,-56,-14,1,27
26,13,-11,-21,19,2,-68,-100,-70,-27,-9,20
24,8,-12,-17,19,-1,-70,-103,-76,-35,-16,14
21,4,-14,-13,18,-4,-70,-101,-78,-39,-20,9
18,1,-15,-10,17,-6,-69,-96,-76,-41,-23,5
16,0,-15,-8,15,-7,-66,-89,-71,-41,-24,3
13,-2,-15,-6,14,-7,-61,-81,-66,-40,-25,2
11,-3,-14,-5,12,-7,-55,-71,-60,-38,-26,0
9,-4,-12,-3,10,-7,-48,-62,-53,-35,-26,-1
7,-5,-10,-1,8,-7,-42,-53,-47,-32,-25,-2
5,-5,-8,0,6,-6,-36,-46,-42,-28,-23,-2
3,-4,-5,0,4,-4,-31,-40,-36,-25,-21,-1
2,-4,-4,1,2,-2,-26,-35,-32,-22,-19,0
0,-4,-3,1,1,-2,-22,-31,-28,-20,-18,0
-1,-5,-3,2,0,-2,-18,-27,-24,-18,-17,0
-2,-7,-3,3,0,-3,-14,-23,-21,-16,-16,0
-3,-8,-3,4,0,-4,-11,-19,-19,-15,-16,0
-3,-8,-3,5,0,-5,-9,-17,-17,-14,-16,0
-4,-9,-3,6,0,-6,-7,-15,-15,-14,-16,0
-4,-9,-3,7,-1,-6,-5,-13,-14,-13,-15,0
-5,-10,-3,7,-1,-6,-5,-12,-13,-13,-15,0
-5,-10,-3,7,-1,-6,-4,-12,-13,-12,-14,0
-5,-10,-3,7,-1,-5,-4,-11,-12,-12,-14,1
-5,-9,-3,6,-1,-5,-3,-10,-11,-11,-13,1
-5,-9,-3,6,-1,-5,-2,-9,-11,-11,-13,2
-5,-9,-2,7,-1,-5,-1,-8,-10,-10,-13,2
-5,-9,-2,7,-2,-5,0,-7,-10,-10,-13,2
-6,-10,-2,8,-2,-5,0,-6,-9,-9,-13,2
-6,-10,-2,8,-2,-5,1,-6,-8,-9,-12,3
-6,-10,-2,8,-2,-4,1,-5,-8,-9,-12,3
-6,-9,-1,8,-3,-4,2,-5,-7,-9,-12,3
-6,-9,-1,7,-3,-4,2,-5,-7,-9,-12,4
-6,-9,-1,7,-3,-4,3,-5,-7,-9,-12,4
-6,-9,-1,7,-3,-4,3,-5,-7,-9,-12,5
-6,-9,-1,7,-3,-4,4,-5,-7,-9,-12,5
-6,-8,0,7,-3,-3,5,-4,-6,-9,-11,5
-6,-8,0,7,-3,-3,5,-4,-6,-9,-11,5
-6,-8,0,7,-3,-2,6,-3,-5,-8,-11,5
-6,-8,0,6,-3,-2,6,-2,-5,-8,-11,6
-5,-7,0,5,-3,-2,7,-1,-4,-7,-10,6
-5,-6,0,5,-3,-1,7,0,-3,-7,-10,7
-4,-5,1,4,-3,-1,8,0,-2,-6,-9,7
-4,-4,1,4,-3,0,8,1,-1,-6,-9,7
-4,-4,1,3,-3,0,8,1,-1,-5,-8,7
-3,-3,1,3,-3,0,8,1,-1,-5,-8,7
-3,-3,1,3,-2,0,7,1,-1,-6,-8,7
-3,-4,1,3,-2,0,6,0,-1,-6,-8,7
-3,-4,1,3,-2,0,5,0,-1,-6,-8,7
-3,-4,0,3,-2,-1,4,0,-2,-7,-8,7
-3,-5,0,4,-2,-1,3,-1,-2,-7,-9,7
-3,-5,0,4,-2,-2,2,-1,-3,-8,-9,7
-3,-6,0,5,-2,-2,1,-2,-3,-9,-9,7
-3,-6,-1,5,-1,-2,1,-2,-4,-9,-10,6
-3,-7,-2,5,-1,-3,1,-2,-4,-9,-10,6
-3,-7,-2,5,-1,-3,1,-2,-4,-9,-10,6
-4,-8,-2,5,-1,-4,0,-2,-4,-9,-10,6
-4,-8,-2,6,-1,-4,0,-2,-4,-9,-10,5
-5,-9,-2,6,-1,-4,0,-2,-4,-9,-11,5
-5,-9,-2,7,-1,-5,0,-2,-4,-9,-11,5
-5,-10,-3,7,-1,-5,0,-2,-4,-9,-11,5
-5,-10,-3,6,-1,-5,1,-2,-4,-9,-11,4
-5,-10,-3,6,-1,-5,1,-2,-4,-9,-11,4
-5,-10,-3,7,-1,-6,1,-2,-4,-9,-11,4
-5,-10,-3,7,-1,-6,1,-1,-4,-9,-11,4
-5,-10,-3,7,-1,-6,1,-1,-4,-9,-11,4
-5,-10,-3,7,-1,-6,2,-1,-4,-9,-11,4
-5,-10,-3,7,-1,-6,2,-1,-4,-9,-11,4
-5,-10,-3,7,-1,-6,3,0,-4,-9,-11,4
-5,-10,-3,7,-1,-6,3,0,-3,-9,-11,4
-5,-10,-3,7,-1,-6,3,0,-3,-9,-11,4
-5,-10,-3,7,-1,-6,3,0,-3,-8,-12,4
-5,-10,-4,7,-1,-6,3,0,-3,-8,-12,4
-4,-10,-4,7,0,-7,3,0,-3,-8,-12,3
-4,-10,-5,6,0,-7,3,0,-2,-8,-12,3
-4,-11,-5,6,0,-7,3,1,-2,-8,-12,3
-4,-11,-5,6,0,-7,3,2,-1,-8,-12,3
-4,-10,-5,6,0,-7,4,3,-1,-7,-11,3
-3,-10,-5,5,0,-6,5,4,0,-7,-11,3
-3,-9,-4,5,0,-6,5,5,0,-6,-10,3
-3,-9,-4,5,0,-6,5,5,1,-6,-10,3
-3,-8,-3,4,0,-5,6,6,2,-5,-10,3
-3,-8,-3,5,0,-5,6,7,3,-5,-10,3
-3,-9,-3,5,0,-5,7,7,4,-5,-9,3
-3,-9,-3,5,0,-5,7,8,5,-5,-9,3
-3,-8,-3,5,0,-5,8,9,6,-5,-9,3
-3,-7,-3,4,0,-4,9,11,7,-4,-9,3
-3,-6,-2,4,0,-4,10,12,8,-4,-8,3
-3,-6,-2,4,0,-3,10,13,9,-4,-8,3
-2,-6,-2,3,0,-3,11,14,10,-4,-8,3
-2,-6,-2,3,0,-3,12,15,10,-3,-8,3
-1,-5,-2,2,0,-3,12,16,11,-2,-8,4
0,-5,-2,2,0,-2,13,17,12,-1,-7,4
0,-4,-2,2,0,-2,14,18,13,-1,-7,4
0,-4,-2,2,0,-2,14,19,13,0,-6,3
0,-4,-2,2,0,-2,15,20,14,0,-6,3
0,-4,-1,2,0,-2,16,21,15,0,-5,3
0,-3,-1,1,0,-2,17,22,16,1,-5,3
0,-3,-1,1,1,-2,18,23,17,1,-5,3
0,-3,-1,1,1,-2,18,24,18,2,-4,3
1,-3,-1,1,1,-2,18,25,18,3,-4,3
1,-3,-2,1,1,-2,19,26,19,3,-3,3
1,-3,-2,0,1,-2,19,27,19,4,-2,3
2,-2,-2,0,2,-1,20,28,20,4,-2,4
3,-2,-2,0,2,-1,20,29,20,5,-1,5
3,-2,-2,-1,3,-1,21,29,21,5,-1,6
4,-1,-3,-1,3,-1,22,30,22,6,0,7
5,-1,-3,-2,4,-1,22,30,22,6,0,8
5,-1,-3,-2,5,-1,23,31,23,7,0,8
6,0,-4,-3,5,-1,23,31,24,7,1,9
6,0,-4,-3,5,-1,23,32,24,8,1,9
6,0,-4,-3,5,-1,23,32,25,8,2,10
6,0,-4,-3,5,-1,23,32,25,8,2,11
6,0,-5,-3,5,-1,23,32,26,8,2,12
7,0,-5,-4,6,-1,22,32,26,8,2,13
7,0,-6,-4,6,-1,22,31,25,8,2,14
8,0,-6,-4,7,-1,21,31,25,8,2,14
8,0,-6,-4,7,-1,20,31,24,8,2,15
9,1,-6,-5,7,-1,19,30,24,8,2,15
9,1,-6,-5,7,-1,18,29,23,8,2,16
10,1,-6,-6,7,-1,17,29,23,8,2,16
10,2,-6,-6,7,0,17,28,22,8,2,17
10,2,-5,-6,7,0,16,27,22,8,2,17
10,2,-5,-6,7,0,15,26,21,8,2,17
10,3,-4,-6,7,0,14,24,20,8,2,17
10,3,-4,-6,7,1,13,23,19,8,2,18
9,3,-3,-6,6,1,12,21,18,7,1,18
9,3,-3,-6,6,1,11,20,17,6,1,18
8,3,-2,-6,5,1,10,18,16,5,0,17
8,2,-2,-5,5,1,9,16,15,4,0,17
7,2,-2,-5,4,1,9,15,14,3,0,17
6,2,-1,-4,4,1,8,13,13,2,0,17
6,2,-1,-4,4,1,8,12,12,1,-1,16
5,1,-1,-3,3,1,7,10,11,0,-1,15
5,1,-1,-3,3,1,7,8,10,0,-2,14
4,0,-1,-2,2,1,6,7,9,0,-3,13
4,0,-1,-2,2,1,6,6,8,0,-3,12
3,0,-1,-1,1,1,5,4,7,-1,-4,12
2,0,0,-1,1,1,5,3,6,-1,-4,11
1,-1,0,0,0,1,4,2,5,-2,-5,10
1,-1,0,0,0,1,4,1,5,-2,-5,9
0,-1,1,0,0,1,4,0,4,-3,-6,8
0,-1,1,0,0,1,3,-1,3,-3,-7,8
0,-1,1,0,0,1,3,-2,2,-4,-7,7
0,-2,1,1,-1,1,3,-3,0,-5,-8,6
-1,-3,1,2,-2,0,2,-4,-1,-6,-8,4
-2,-3,2,2,-2,0,2,-5,-2,-7,-9,3
-2,-3,2,2,-2,1,2,-5,-2,-7,-9,2
-2,-3,2,2,-2,1,2,-6,-3,-8,-9,1
-2,-3,2,2,-2,1,2,-6,-4,-8,-9,0
-2,-3,2,2,-2,1,2,-7,-4,-8,-9,0
-3,-3,2,2,-3,1,2,-7,-5,-8,-10,0
-3,-3,2,3,-3,1,2,-8,-6,-9,-10,-1
-3,-4,2,3,-3,1,2,-8,-6,-9,-10,-1
-4,-4,2,4,-3,1,2,-9,-7,-10,-11,-2
-4,-4,2,4,-3,1,2,-9,-7,-10,-11,-2
-4,-4,2,4,-3,1,2,-9,-7,-10,-11,-3
-3,-3,2,4,-3,1,2,-9,-7,-10,-11,-3
-3,-3,2,3,-3,1,2,-9,-7,-10,-11,-3
-4,-4,2,4,-3,0,2,-10,-7,-10,-11,-4
-4,-5,2,4,-3,0,2,-10,-8,-10,-11,-4
-4,-4,2,4,-3,0,3,-10,-8,-10,-11,-5
-4,-4,3,4,-3,1,3,-10,-7,-10,-11,-5
-4,-3,3,4,-4,1,4,-9,-7,-10,-11,-5
-4,-3,3,4,-4,1,4,-9,-7,-10,-11,-5
-4,-3,3,3,-4,1,4,-9,-7,-10,-10,-5
-4,-3,3,3,-4,1,4,-9,-7,-10,-10,-5
-4,-3,3,3,-4,1,4,-9,-7,-10,-10,-5
-5,-3,3,4,-4,1,4,-9,-8,-10,-10,-5
-5,-3,3,4,-4,1,4,-9,-8,-10,-10,-5
-5,-2,3,4,-4,1,5,-9,-7,-10,-10,-5
-5,-2,3,4,-4,1,5,-8,-7,-10,-10,-5
-5,-3,3,4,-4,1,5,-8,-7,-10,-10,-6
-5,-3,3,4,-5,1,5,-8,-7,-10,-11,-6
-5,-3,3,4,-5,1,5,-8,-7,-10,-11,-6
-4,-2,3,4,-5,2,6,-8,-7,-9,-10,-5
-4,-2,3,4,-5,2,6,-8,-7,-9,-10,-5
-5,-3,3,4,-5,2,6,-8,-7,-9,-10,-4
-5,-3,4,4,-5,2,6,-7,-7,-9,-10,-3
-5,-2,4,4,-5,2,7,-7,-7,-9,-10,-3
-5,-2,4,4,-5,2,7,-6,-7,-9,-10,-3
-5,-3,4,4,-5,2,8,-6,-7,-8,-10,-2
-5,-3,4,4,-5,2,8,-6,-7,-8,-10,-2
-5,-3,4,4,-5,1,8,-6,-7,-8,-9,-2
-5,-3,4,4,-5,1,8,-6,-7,-8,-9,-2
-5,-3,4,4,-5,1,8,-6,-7,-8,-8,-1
-5,-3,4,4,-5,1,9,-5,-7,-8,-8,-1
-6,-3,4,4,-5,1,9,-4,-7,-8,-8,0
-6,-2,4,4,-5,1,10,-4,-6,-8,-8,0
-5,-2,4,4,-5,2,10,-3,-6,-7,-7,0
-5,-2,4,4,-5,2,11,-3,-5,-6,-7,1
-5,-2,4,4,-6,2,11,-2,-5,-6,-7,1
-5,-2,4,4,-5,2,12,-2,-4,-5,-7,1
-5,-2,4,4,-5,2,13,-1,-4,-5,-6,1
-5,-2,4,4,-5,2,14,0,-4,-5,-6,2
-4,-2,4,4,-5,2,14,0,-3,-5,-5,2
-4,-2,4,4,-4,2,15,0,-3,-5,-5,3
-4,-2,4,4,-4,2,15,1,-2,-5,-5,3
-4,-2,4,3,-4,2,16,1,-2,-4,-5,4
-3,-2,4,3,-4,2,16,2,-1,-4,-4,4
-3,-1,4,2,-4,2,17,3,-1,-3,-4,5
-2,0,4,2,-4,2,18,4,0,-3,-3,5
-2,0,4,1,-3,3,18,4,0,-2,-3,6
-2,0,4,1,-3,3,18,4,0,-2,-3,6
-2,0,4,1,-3,3,17,4,0,-2,-3,6
-2,0,4,1,-3,3,16,4,0,-2,-3,6
-2,0,4,1,-3,3,14,3,0,-3,-3,6
-2,-1,4,2,-3,2,13,2,-1,-3,-4,6
-2,-1,3,2,-3,1,11,1,-2,-4,-5,6
-2,-2,2,3,-2,0,10,0,-3,-4,-5,6
-2,-3,1,3,-2,0,8,-1,-4,-5,-6,6
-3,-3,1,4,-2,0,7,-1,-4,-5,-6,6
-3,-3,1,4,-2,0,6,-2,-5,-5,-6,6
-3,-3,1,4,-2,0,6,-2,-5,-6,-6,6
-2,-3,0,4,-2,-1,5,-2,-5,-6,-6,6
-2,-4,0,4,-2,-1,5,-3,-6,-6,-7,6
-2,-4,0,5,-2,-1,5,-3,-6,-6,-7,6
-2,-4,0,5,-2,-1,5,-3,-6,-6,-7,6
-2,-4,0,5,-2,-1,5,-4,-6,-6,-7,6
-2,-4,0,4,-2,-1,5,-4,-6,-6,-7,6
-2,-4,0,4,-2,-1,5,-4,-7,-6,-7,6
-2,-4,0,4,-2,-1,5,-4,-7,-6,-7,6
-2,-4,1,4,-2,-1,5,-4,-7,-6,-7,6
-2,-4,1,4,-2,-1,5,-4,-7,-6,-7,6
-2,-4,1,4,-2,0,5,-5,-7,-6,-7,7
-2,-4,1,4,-2,0,5,-5,-8,-6,-7,7
-2,-3,1,4,-2,0,5,-5,-8,-6,-7,7
-2,-3,1,4,-2,0,5,-5,-8,-6,-7,7
-2,-3,1,3,-2,0,5,-5,-8,-6,-7,7
-2,-2,1,3,-2,0,5,-5,-8,-6,-7,7
-2,-2,1,3,-2,0,5,-5,-8,-6,-7,7
-2,-2,1,3,-2,0,5,-5,-8,-6,-7,7
-2,-2,1,3,-2,0,5,-5,-8,-6,-6,7
-2,-2,1,3,-2,0,5,-5,-8,-6,-6,7
-2,-2,1,3,-2,0,5,-5,-8,-5,-6,7
-2,-2,1,3,-2,0,5,-5,-8,-6,-6,7
-2,-2,1,3,-2,0,5,-5,-8,-6,-5,7
-2,-2,1,2,-2,0,5,-5,-8,-6,-5,7
-2,-2,1,2,-2,0,5,-5,-8,-6,-5,7
-3,-3,1,3,-3,0,5,-5,-9,-6,-5,6
-4,-4,1,4,-3,0,5,-6,-9,-7,-5,6
-3,-3,1,3,-3,0,5,-6,-9,-7,-5,6
-3,-3,1,3,-2,1,6,-5,-9,-7,-5,6
-3,-3,1,4,-3,1,6,-5,-9,-7,-6,6
-4,-3,2,4,-3,1,6,-6,-10,-7,-6,6
-4,-3,2,5,-4,1,6,-6,-10,-7,-6,6
-4,-3,2,4,-4,1,6,-6,-10,-7,-6,6
-4,-2,3,4,-4,2,6,-7,-10,-7,-6,6
-4,-2,3,4,-4,2,6,-7,-10,-7,-6,6
-4,-2,3,4,-4,2,6,-7,-9,-7,-6,6
-4,-2,3,4,-4,2,6,-7,-9,-7,-6,6
-4,-2,3,4,-4,2,6,-7,-10,-7,-6,5
-4,-2,3,4,-4,2,6,-7,-10,-7,-6,5
-4,-2,3,4,-4,1,6,-7,-10,-7,-6,5
-4,-3,3,4,-4,1,6,-7,-10,-7,-6,5
-4,-3,2,4,-4,1,6,-7,-10,-7,-6,5
-4,-3,2,4,-4,1,6,-7,-10,-7,-6,5
-4,-3,2,4,-4,1,7,-7,-10,-7,-6,5
-4,-3,3,4,-4,1,7,-7,-10,-7,-6,5
-4,-2,3,4,-4,1,7,-7,-10,-7,-6,5
-4,-2,3,4,-4,1,7,-7,-10,-7,-6,6
-4,-1,4,4,-4,2,7,-7,-10,-7,-6,6
-4,-1,4,4,-4,2,7,-7,-10,-7,-5,6
-4,-1,4,4,-4,2,8,-7,-10,-7,-5,6
-4,-1,4,4,-4,2,8,-7,-10,-7,-5,6
-4,-1,4,4,-4,2,8,-6,-10,-7,-5,6
-4,-1,4,4,-5,2,8,-6,-10,-7,-5,6
-5,-2,3,4,-5,2,8,-6,-10,-7,-5,6
-5,-2,3,4,-5,2,7,-6,-10,-7,-5,6
-5,-2,3,4,-5,2,7,-6,-10,-7,-5,6
-4,-1,3,4,-4,2,7,-5,-10,-7,-5,7
-4,-1,3,4,-4,2,7,-5,-10,-6,-5,7
-4,-1,4,4,-5,2,8,-4,-10,-6,-5,8
-4,0,4,4,-5,3,8,-4,-10,-5,-5,8
-4,0,4,4,-5,3,8,-4,-10,-5,-5,8
-4,0,5,4,-5,3,9,-4,-9,-5,-5,9
-4,0,5,4,-5,3,9,-4,-9,-4,-4,9
-4,0,5,3,-5,4,9,-4,-9,-4,-4,9
-4,1,6,3,-5,4,9,-4,-9,-4,-4,10
-4,1,6,3,-5,4,9,-3,-8,-4,-4,10
-4,1,5,3,-5,4,9,-3,-8,-4,-4,10
-4,1,5,3,-5,4,9,-3,-8,-4,-4,10
-3,1,5,3,-5,4,8,-3,-8,-4,-4,10
-3,0,4,3,-5,4,8,-3,-8,-3,-3,10
-3,0,4,3,-4,4,8,-2,-8,-3,-3,10
-3,0,4,2,-4,3,8,-2,-8,-3,-3,10
-3,0,3,2,-4,3,7,-2,-8,-3,-3,10
-3,0,3,2,-4,3,7,-2,-8,-3,-3,10
-3,0,3,2,-4,3,6,-2,-9,-3,-3,10
-3,0,3,2,-4,2,6,-3,-9,-3,-3,10
-3,-1,3,3,-4,2,5,-3,-10,-3,-3,10
-3,-1,3,3,-4,2,5,-4,-10,-3,-3,10
-3,-1,3,3,-4,2,4,-4,-10,-3,-3,10
-3,-1,3,3,-4,2,4,-4,-10,-3,-3,10
-3,-1,3,3,-4,1,3,-5,-11,-4,-3,10
-3,-2,2,3,-3,1,3,-5,-11,-4,-4,9
-3,-2,2,3,-3,1,2,-5,-11,-4,-4,9
-3,-2,2,4,-4,1,2,-6,-11,-4,-4,9
-4,-2,2,4,-4,1,2,-6,-12,-4,-4,9
-4,-2,2,4,-4,1,1,-6,-12,-5,-4,9
-4,-2,2,4,-4,1,1,-6,-12,-5,-4,9
-4,-2,2,4,-4,1,1,-7,-12,-5,-4,9
-4,-2,2,4,-4,1,1,-7,-12,-5,-4,9
-4,-2,2,4,-4,1,1,-7,-12,-5,-4,9
-4,-2,2,4,-4,1,1,-7,-12,-5,-4,9
-4,-2,2,4,-4,1,1,-7,-12,-5,-4,9
-4,-1,2,3,-4,1,1,-7,-12,-4,-4,9
-3,-1,2,3,-4,1,1,-7,-12,-4,-4,9
-3,-1,2,3,-4,1,1,-7,-12,-4,-4,9
-3,0,2,3,-4,1,1,-7,-12,-4,-4,9
-3,0,3,2,-4,2,1,-6,-12,-3,-3,9
-3,0,3,2,-4,2,1,-6,-12,-3,-3,10
-3,0,3,2,-4,2,1,-6,-12,-3,-3,10
-3,0,3,3,-4,2,1,-6,-12,-3,-4,10
-4,0,3,3,-4,2,1,-6,-12,-3,-4,10
-4,0,3,3,-4,2,1,-6,-12,-2,-4,10
-4,0,3,3,-4,2,2,-6,-12,-2,-4,9
-4,0,4,3,-4,3,2,-5,-12,-2,-4,9
-4,0,4,3,-5,3,2,-5,-12,-2,-4,9
-4,0,5,3,-5,3,2,-5,-12,-2,-4,9
-4,0,5,3,-5,3,2,-5,-12,-2,-4,9
-4,0,5,3,-5,3,2,-5,-12,-1,-4,9
-5,0,5,3,-5,3,2,-5,-12,-1,-4,9
-5,0,5,3,-5,3,2,-5,-12,-1,-4,10
-5,0,5,3,-5,3,2,-5,-12,-1,-4,10
-5,0,5,3,-5,3,2,-5,-12,-1,-4,10
-5,0,5,3,-5,3,2,-5,-12,-1,-4,10
-5,0,5,3,-6,3,2,-5,-13,-1,-5,10
-6,0,6,3,-6,3,2,-5,-13,-1,-5,10
-5,0,6,3,-6,3,2,-5,-13,-1,-5,10
-5,1,6,3,-6,3,2,-5,-13,0,-5,10
-5,1,6,3,-6,3,2,-5,-13,0,-5,10
-5,0,6,3,-6,3,3,-5,-12,0,-5,10
-5,0,6,3,-6,4,3,-5,-12,0,-5,10
-5,0,6,3,-6,4,4,-5,-12,1,-5,10
-5,0,6,3,-6,3,4,-5,-12,1,-5,10
-6,0,6,4,-6,3,4,-5,-12,1,-5,9
-6,0,6,4,-6,3,4,-5,-12,1,-5,9
-6,0,6,4,-6,3,4,-5,-11,2,-5,9
-6,0,6,4,-6,3,4,-5,-11,2,-5,9
-6,0,6,3,-6,3,5,-5,-11,2,-6,9
-6,0,6,3,-6,3,5,-5,-11,2,-6,9
-6,0,6,3,-6,3,5,-5,-11,2,-6,10
-6,0,6,3,-6,3,6,-4,-11,2,-6,10
-6,0,6,3,-6,3,6,-4,-11,3,-6,10
-5,0,5,3,-6,3,6,-3,-11,3,-6,10
-5,0,5,3,-6,3,6,-3,-11,3,-6,10
-5,0,5,3,-6,3,6,-2,-10,3,-6,10
-5,0,4,3,-6,2,6,-2,-10,3,-6,10
-5,-1,4,3,-5,2,6,-2,-10,3,-6,10
-5,-1,3,3,-5,1,5,-2,-10,3,-6,10
-5,-2,3,3,-4,1,5,-1,-10,4,-5,10
-5,-2,3,3,-4,1,5,-1,-10,4,-5,10
-5,-2,3,3,-4,1,5,-1,-9,4,-5,10
-6,-2,3,4,-4,1,5,-1,-9,4,-5,10
-6,-2,3,4,-4,1,5,-1,-9,4,-5,10
-6,-2,3,4,-4,1,5,-1,-9,4,-5,10
-5,-1,3,3,-4,1,5,0,-9,4,-5,10
-5,-1,3,3,-4,1,5,0,-9,4,-4,11
-5,-1,2,3,-4,1,5,0,-9,4,-4,11
-5,-1,2,3,-4,1,4,-1,-9,5,-4,11
-4,-1,2,3,-3,1,4,-1,-9,5,-4,11
-4,-1,2,2,-3,1,3,-2,-9,5,-5,11
-4,-1,2,3,-3,0,2,-2,-10,5,-5,11
-4,-2,2,3,-3,0,2,-3,-10,5,-5,11
-4,-1,2,3,-3,0,1,-3,-10,6,-4,11
-4,-1,2,3,-3,1,1,-3,-10,6,-4,10
-4,-1,2,3,-3,1,0,-4,-10,6,-4,10
-4,-1,2,3,-3,0,0,-4,-11,5,-4,9
-4,-1,2,3,-3,0,0,-4,-11,5,-4,9
-4,-1,2,3,-3,0,-1,-4,-11,5,-4,9
-5,-2,2,4,-4,0,-1,-4,-11,5,-4,9
-5,-2,2,4,-4,0,0,-3,-11,5,-5,8
-6,-2,3,5,-5,1,2,-2,-10,6,-5,8
-7,-2,4,5,-6,1,5,0,-8,7,-5,8
-8,-1,5,5,-7,1,8,5,-4,9,-4,9
-8,0,6,5,-7,2,11,10,1,14,-2,10
-7,1,8,3,-8,4,14,16,7,20,1,13
-6,4,9,1,-8,7,16,23,15,27,7,17
-2,9,11,-3,-7,10,17,31,24,37,16,24
3,15,12,-9,-5,14,18,40,35,50,29,34
10,23,13,-16,-2,19,19,48,47,63,42,45
17,31,13,-24,1,22,16,52,55,76,55,55
25,38,12,-31,6,25,11,52,60,86,67,64
33,44,11,-38,10,27,5,50,64,95,78,73
40,49,9,-44,15,29,-1,48,66,100,85,79
45,52,6,-48,19,29,-7,44,65,101,87,83
49,53,3,-50,22,29,-13,37,60,97,84,83
50,52,1,-51,24,28,-19,27,50,88,77,80
48,50,0,-49,23,26,-25,11,34,75,66,74
43,46,1,-45,21,25,-33,-13,11,56,51,66
38,41,2,-39,18,22,-43,-43,-17,34,33,56
33,34,1,-33,16,17,-52,-71,-45,11,15,45
28,28,0,-28,15,13,-59,-89,-64,-5,1,36
24,23,-1,-24,13,10,-63,-97,-73,-14,-7,29
21,18,-3,-19,12,8,-64,-98,-77,-20,-12,23
17,13,-4,-15,10,6,-64,-95,-77,-23,-16,19
14,10,-5,-12,9,4,-63,-90,-75,-24,-19,15
12,8,-5,-10,8,3,-60,-83,-71,-24,-20,13
10,7,-4,-9,6,2,-55,-75,-66,-22,-20,12
8,6,-2,-7,4,2,-48,-66,-60,-20,-20,10
5,5,0,-5,2,2,-41,-57,-53,-17,-20,8
3,5,1,-4,0,3,-35,-48,-47,-13,-18,8
2,6,3,-4,-1,5,-30,-41,-41,-10,-16,8
0,6,5,-3,-3,6,-25,-36,-36,-7,-14,9
-1,6,7,-2,-4,7,-21,-31,-33,-4,-13,9
-2,5,7,-1,-5,7,-17,-27,-30,-2,-12,9
-3,4,7,0,-5,6,-14,-23,-27,-1,-11,9
-4,3,6,0,-5,5,-10,-19,-24,0,-11,9
-4,2,6,1,-5,4,-7,-16,-22,2,-11,8
-4,1,5,2,-5,3,-5,-14,-20,2,-11,8
-5,0,5,2,-5,2,-4,-12,-19,3,-10,7
-5,0,4,3,-5,2,-3,-11,-18,3,-10,6
-5,-1,4,3,-5,2,-2,-11,-17,3,-9,6
-5,-1,4,3,-5,2,-2,-10,-16,4,-9,6
-6,-1,4,3,-5,2,-1,-10,-16,4,-9,6
-6,-1,4,3,-5,1,0,-9,-15,4,-9,6
-6,-1,4,3,-5,1,0,-9,-15,4,-8,6
-6,-1,4,3,-5,1,0,-8,-15,4,-8,6
-6,-1,4,3,-5,1,1,-7,-14,5,-8,6
-6,-1,4,3,-5,1,1,-7,-14,5,-8,6
-6,-1,4,3,-5,1,1,-6,-14,5,-8,7
-6,-1,4,3,-5,1,2,-6,-13,5,-8,7
-5,-1,4,3,-5,2,3,-5,-13,6,-8,8
-5,0,4,3,-5,2,4,-5,-12,6,-8,8
-5,0,4,3,-5,2,4,-4,-12,7,-7,8
-5,0,5,3,-5,2,5,-4,-12,7,-7,8
-6,0,5,3,-5,2,5,-3,-11,7,-7,8
-6,0,5,3,-5,3,5,-3,-11,7,-7,8
-6,0,5,2,-5,3,6,-2,-10,7,-6,8
-6,0,5,2,-5,3,6,-2,-10,8,-6,8
-5,0,5,2,-5,3,7,-1,-9,8,-5,9
-5,1,5,1,-5,3,8,-1,-9,8,-5,9
-5,1,5,1,-5,3,9,0,-9,8,-5,9
-5,1,5,2,-6,3,9,0,-9,8,-5,8
-5,1,5,2,-6,3,10,0,-8,8,-5,8
-5,1,5,2,-5,3,10,1,-8,8,-5,8
-5,1,5,2,-5,3,10,1,-7,8,-5,8
-5,0,4,2,-5,2,10,2,-7,9,-5,8
-5,0,4,2,-4,2,11,2,-6,9,-5,8
-4,0,3,2,-4,1,11,3,-6,9,-5,8
-4,0,3,2,-3,1,12,3,-6,9,-5,8
-3,0,2,2,-3,1,12,4,-5,9,-4,8
-3,0,2,2,-3,1,13,4,-5,9,-4,8
-3,0,2,2,-3,1,13,5,-5,9,-4,8
-3,0,2,1,-2,0,12,5,-5,9,-4,8
-2,0,2,1,-2,0,12,5,-5,9,-4,8
-2,0,2,1,-2,0,12,5,-5,9,-4,8
-2,0,1,1,-2,0,11,4,-6,9,-4,8
-2,-1,1,1,-2,0,10,3,-6,8,-4,7
-2,-1,1,2,-2,0,9,3,-7,8,-4,7
-2,-2,0,2,-2,-1,7,2,-7,7,-5,6
-3,-2,0,3,-2,-1,6,1,-8,6,-5,6
-3,-3,0,3,-2,-1,4,0,-9,6,-6,5
-4,-3,0,3,-2,-2,3,0,-9,5,-6,5
-4,-4,-1,4,-1,-2,3,0,-9,5,-6,5
-4,-4,-1,4,-1,-3,2,-1,-10,4,-6,5
-4,-5,-2,4,-1,-3,2,-1,-10,4,-7,5
-4,-5,-2,4,-1,-3,2,-1,-10,3,-7,5
-4,-6,-2,4,-1,-4,2,-1,-10,3,-7,5
-4,-6,-2,4,-1,-4,2,-1,-10,3,-7,4
-4,-6,-3,4,0,-4,2,-1,-10,3,-7,4
-3,-6,-3,4,0,-5,2,-1,-10,3,-7,4
-3,-6,-4,4,0,-5,2,0,-10,3,-7,4
-3,-7,-4,4,0,-5,2,0,-9,3,-7,4
-3,-7,-4,4,0,-5,2,0,-9,3,-7,4
-2,-6,-4,4,0,-5,2,1,-9,3,-7,4
-2,-6,-4,4,0,-5,2,1,-9,3,-6,4
-2,-5,-4,4,0,-5,2,2,-9,4,-6,4
-3,-5,-4,4,0,-5,3,2,-8,4,-6,4
-3,-5,-3,4,0,-4,3,2,-8,4,-6,5
-3,-5,-3,4,0,-4,4,2,-7,4,-6,5
-3,-4,-2,4,0,-4,4,3,-6,5,-5,6
-3,-4,-2,4,0,-3,4,4,-6,5,-4,6
-2,-3,-2,3,0,-3,4,5,-5,6,-4,6
-2,-3,-2,3,0,-3,4,5,-5,6,-4,6
-1,-3,-2,3,0,-3,5,6,-4,6,-4,6
-2,-3,-2,3,0,-3,5,6,-4,6,-4,6
-2,-3,-2,3,0,-3,5,7,-3,6,-4,5
-1,-3,-3,2,0,-3,5,8,-3,6,-4,5
0,-3,-3,2,1,-3,6,9,-2,6,-4,5
0,-3,-3,1,1,-3,6,10,-2,6,-4,5
0,-2,-3,1,1,-3,7,11,-1,6,-4,5
0,-2,-3,1,1,-3,7,12,-1,6,-3,5
0,-2,-4,1,1,-3,8,12,0,7,-3,5
0,-2,-4,1,2,-3,8,13,1,7,-2,5
1,-2,-4,1,2,-3,9,14,2,8,-2,6
1,-1,-4,0,2,-3,9,15,2,8,-1,6
1,-1,-4,0,2,-3,10,16,3,8,-1,7
1,-1,-4,0,2,-3,10,17,3,8,-1,7
2,-1,-4,0,2,-3,10,18,4,9,0,7
3,0,-4,-1,3,-3,11,19,4,9,0,8
4,1,-4,-2,3,-2,11,20,5,10,1,8
4,1,-4,-2,4,-2,12,21,6,10,1,8
4,1,-4,-2,4,-2,12,22,7,11,2,8
4,1,-4,-2,4,-2,13,23,8,11,2,9
5,1,-4,-3,5,-1,13,24,9,11,3,9
6,2,-4,-3,5,-1,14,25,10,12,3,10
6,2,-4,-4,5,-1,14,25,10,12,4,10
7,2,-4,-4,5,-1,14,26,11,13,4,10
7,3,-4,-4,5,-1,14,27,11,13,5,11
8,3,-4,-4,6,0,14,27,12,13,5,11
8,4,-4,-5,6,0,14,27,12,14,6,12
9,4,-5,-6,6,0,15,27,13,14,6,12
9,4,-5,-6,6,0,15,28,13,14,7,12
9,4,-4,-7,6,0,15,28,13,14,7,13
9,5,-4,-7,6,0,15,28,13,14,8,13
9,5,-4,-7,7,0,14,29,13,14,8,13
10,5,-4,-7,7,0,14,29,13,14,8,14
10,6,-4,-7,7,0,14,29,13,15,8,14
10,6,-4,-8,7,0,14,28,13,15,8,15
10,7,-4,-8,7,0,14,28,13,15,8,15
10,7,-4,-8,7,0,14,28,12,14,8,15
11,7,-4,-8,7,0,13,27,12,14,8,15
11,7,-4,-8,7,1,13,26,12,14,9,15
11,7,-4,-8,7,1,12,26,12,14,9,15
10,6,-4,-8,8,1,12,25,11,13,9,15
10,6,-5,-7,8,0,11,24,11,13,9,16
10,6,-5,-7,8,0,11,23,10,13,9,16
10,6,-5,-8,8,0,10,22,10,13,9,17
10,6,-5,-8,7,0,10,21,9,12,9,16
9,6,-5,-8,7,0,9,20,9,12,9,16
9,6,-4,-8,6,1,9,19,8,12,9,15
9,6,-4,-8,6,1,9,18,8,11,9,15
9,6,-3,-8,6,2,9,17,7,11,9,15
8,6,-3,-7,5,2,9,16,7,11,9,15
8,6,-2,-7,5,2,9,15,6,10,9,15
7,6,-1,-7,4,2,9,14,5,10,9,15
7,6,-1,-7,4,2,9,13,5,10,9,15
6,6,0,-7,3,2,10,13,4,10,9,15
6,6,0,-6,3,2,10,12,4,9,8,14
6,6,0,-6,3,2,11,12,3,9,8,14
5,6,0,-5,2,2,11,11,2,8,7,13
4,5,0,-4,2,2,12,11,2,7,6,13
4,5,1,-4,1,2,12,10,1,6,6,13
3,5,1,-4,1,2,13,9,1,5,5,12
3,5,1,-3,1,2,13,8,0,4,4,11
3,4,0,-3,1,2,13,8,0,3,4,11
3,4,0,-3,1,1,13,7,0,2,3,10
3,3,0,-2,1,1,13,6,-1,2,3,10
2,3,0,-2,1,1,13,5,-1,1,2,9
2,2,-1,-1,1,0,13,5,-2,0,1,9
2,2,-1,-1,1,0,12,4,-3,-1,1,8
2,1,-2,-1,2,0,11,3,-3,-1,0,8
2,1,-2,-1,2,0,10,2,-4,-1,0,8
2,1,-2,-1,2,0,10,2,-4,-1,0,8
2,1,-2,-1,1,0,9,1,-4,-2,0,8
1,1,-1,0,1,0,9,1,-4,-2,0,7
1,1,-1,0,0,0,8,0,-5,-2,0,7
0,1,0,0,0,0,7,0,-5,-2,0,7
0,1,0,0,0,0,5,-1,-5,-3,0,7
0,0,0,0,0,0,4,-2,-6,-4,-1,7
0,0,0,1,0,0,2,-4,-8,-5,-1,6
-1,-1,0,1,0,0,0,-5,-9,-6,-2,6
-1,-1,0,2,0,-1,-1,-6,-10,-7,-2,6
-1,-2,-1,2,0,-1,-2,-6,-11,-7,-3,5
-1,-2,-1,2,-1,-2,-2,-7,-11,-7,-3,5
-1,-2,-1,2,-1,-2,-3,-7,-11,-7,-3,5
-1,-2,-1,2,-1,-2,-3,-7,-11,-8,-3,5
-1,-2,-2,2,-1,-2,-3,-7,-11,-8,-3,5
-2,-3,-2,2,-1,-3,-4,-8,-12,-8,-3,4
-2,-3,-2,3,-1,-3,-4,-8,-12,-9,-3,4
-2,-3,-2,3,-1,-3,-4,-9,-12,-9,-3,4
-2,-3,-2,3,-1,-3,-4,-9,-13,-9,-3,4
-2,-3,-2,3,-1,-3,-4,-9,-13,-9,-3,4
-2,-3,-2,3,-1,-3,-4,-9,-12,-9,-3,4
-3,-4,-2,4,-1,-3,-4,-9,-12,-10,-3,4
-3,-4,-2,4,-1,-3,-4,-9,-12,-10,-3,5
-3,-4,-2,4,-1,-3,-4,-9,-12,-11,-3,5
-3,-4,-2,4,-1,-3,-4,-9,-11,-11,-3,5
-3,-4,-2,4,-1,-3,-4,-9,-11,-11,-3,5
-3,-4,-2,4,-1,-3,-4,-9,-11,-11,-3,5
-3,-4,-2,4,-1,-3,-4,-9,-11,-12,-3,5
-3,-4,-2,4,-1,-3,-4,-9,-11,-12,-3,5
-3,-4,-2,3,-1,-3,-4,-8,-11,-12,-3,5
-2,-4,-2,3,-1,-3,-4,-8,-11,-12,-3,5
-2,-4,-2,3,-1,-2,-4,-8,-11,-12,-3,5
-2,-4,-2,3,-1,-2,-4,-7,-11,-12,-3,5
-3,-4,-1,3,-1,-2,-4,-7,-11,-12,-3,5
-3,-4,-1,3,-2,-2,-4,-7,-11,-12,-3,5
-3,-3,-1,3,-2,-2,-3,-7,-10,-11,-3,5
-3,-3,-1,2,-2,-1,-3,-7,-10,-11,-3,5
-3,-3,0,2,-2,-1,-3,-7,-9,-11,-3,5
-3,-3,0,3,-2,-1,-3,-7,-9,-11,-3,5
-3,-3,0,3,-2,-1,-3,-6,-9,-11,-3,5
-2,-3,0,3,-1,-1,-3,-6,-9,-11,-3,5
-2,-3,-1,3,-1,-1,-2,-6,-9,-10,-3,6
-2,-3,-1,3,-1,-2,-2,-6,-9,-10,-3,6
-2,-3,-1,3,-1,-2,-2,-6,-9,-10,-3,6
-2,-3,-1,3,-1,-2,-2,-5,-9,-10,-3,6
-2,-3,-1,3,-1,-2,-2,-5,-8,-10,-3,6
-2,-3,-1,3,-1,-2,-1,-5,-8,-10,-3,6
-3,-3,-1,3,-1,-2,-1,-5,-7,-10,-2,6
-3,-3,-1,3,-1,-2,-1,-5,-7,-10,-2,7
-3,-3,-1,3,-1,-2,-1,-5,-7,-10,-2,7
-3,-3,-1,3,-1,-2,-1,-5,-7,-10,-2,7
-3,-3,-2,3,-1,-3,0,-5,-7,-10,-2,7
-2,-3,-2,3,-1,-3,0,-4,-6,-10,-2,7
-2,-3,-2,3,-1,-3,0,-4,-6,-10,-2,7
-3,-3,-1,3,-1,-3,0,-3,-6,-11,-3,7
-3,-4,-1,4,-1,-3,0,-3,-6,-11,-3,7
-2,-4,-2,4,-1,-3,0,-3,-5,-11,-3,7
-2,-4,-2,4,0,-3,0,-3,-5,-10,-3,7
-2,-4,-2,4,0,-3,1,-3,-5,-10,-2,7
-2,-4,-2,4,0,-3,1,-2,-5,-10,-2,7
-2,-4,-2,4,0,-3,1,-2,-5,-10,-2,7
-2,-4,-2,4,0,-3,2,-2,-5,-10,-2,7
-2,-4,-2,4,-1,-3,2,-2,-5,-10,-2,7
-2,-4,-2,4,-1,-2,2,-2,-4,-10,-2,7
-2,-4,-1,3,-1,-2,3,-1,-4,-10,-2,7
-2,-4,-1,3,-1,-2,3,-1,-4,-10,-2,7
-2,-4,-1,3,-1,-2,3,-1,-4,-10,-2,7
-2,-4,0,3,-1,-2,4,-1,-4,-10,-1,7
-2,-4,0,3,-1,-2,4,-1,-4,-10,-1,7
-2,-3,0,3,-1,-2,4,0,-4,-10,-1,7
-2,-3,0,3,-1,-2,5,0,-4,-11,-1,7
-2,-3,0,3,-1,-1,5,0,-3,-11,-1,7
-2,-2,0,3,-1,-1,6,0,-3,-11,-1,7
-2,-2,0,3,-1,-1,6,0,-3,-11,-1,7
-2,-2,0,3,-1,-1,7,1,-3,-11,-1,7
-2,-2,0,3,-1,-1,8,1,-3,-11,-1,7
-2,-2,0,3,-1,-1,9,2,-2,-11,0,7
-2,-2,0,3,-2,0,10,2,-2,-11,0,7
-2,-2,1,3,-2,0,10,3,-1,-11,0,7
-2,-2,1,3,-2,0,11,3,-1,-11,0,6
-2,-2,1,3,-2,0,11,3,-1,-11,0,6
-2,-2,1,2,-2,0,11,3,-1,-11,1,6
-2,-1,1,2,-2,0,11,3,-1,-11,1,6
-2,-1,0,1,-1,0,11,3,-1,-11,2,6
-1,-1,0,1,-1,0,11,3,-1,-11,2,6
0,-1,0,1,-1,0,11,4,-1,-11,2,7
0,-1,0,1,-1,0,10,4,-1,-11,2,7
0,-1,0,1,0,-1,9,4,-1,-11,2,7
0,-1,-1,1,0,-1,8,3,-1,-11,2,8
0,-2,-1,1,0,-1,6,3,-1,-11,2,8
0,-2,-2,2,0,-2,5,1,-2,-12,1,7
0,-3,-2,2,0,-2,3,0,-3,-12,1,7
0,-4,-2,3,0,-3,2,0,-4,-12,0,7
-1,-4,-2,3,0,-3,1,-1,-4,-13,0,6
-1,-4,-2,3,0,-3,0,-2,-5,-13,0,6
-1,-4,-3,3,0,-3,0,-3,-5,-13,-1,6
-1,-5,-3,4,0,-4,0,-3,-5,-14,-1,5
-2,-6,-3,5,0,-4,-1,-3,-5,-14,-1,5
-2,-6,-3,5,0,-4,-1,-3,-6,-14,-1,5
-2,-6,-3,4,0,-4,-1,-3,-6,-14,-1,5
-2,-6,-3,4,0,-4,-1,-3,-6,-14,-1,5
-2,-6,-3,4,0,-5,-1,-4,-7,-14,-1,5
-3,-6,-3,4,0,-5,-1,-4,-7,-14,-1,5
-3,-6,-3,4,0,-5,-1,-4,-7,-14,-1,5
-3,-6,-3,4,0,-4,-1,-4,-7,-15,-2,5
-3,-6,-3,5,0,-4,-2,-4,-7,-15,-2,5
-3,-6,-3,5,0,-4,-2,-4,-7,-16,-3,4
-3,-6,-2,5,0,-4,-2,-5,-8,-16,-3,4
-3,-6,-2,5,-1,-4,-2,-5,-8,-16,-3,4
-3,-6,-1,5,-1,-4,-2,-5,-8,-16,-3,4
-4,-6,-1,5,-1,-4,-2,-5,-8,-16,-3,4
-4,-6,-1,5,-1,-4,-2,-5,-8,-16,-3,4
-4,-6,-2,5,-1,-4,-2,-5,-8,-16,-3,4
-4,-6,-2,6,-2,-4,-3,-5,-8,-16,-4,3
-5,-7,-1,6,-2,-4,-3,-5,-8,-16,-4,3
-6,-7,-1,6,-2,-4,-3,-5,-8,-16,-4,3
-6,-7,-1,6,-2,-4,-3,-5,-8,-16,-4,3
-6,-7,-1,6,-2,-4,-3,-6,-9,-16,-4,3
-6,-7,-1,6,-2,-4,-3,-6,-9,-16,-5,3
-6,-6,0,6,-2,-3,-3,-6,-9,-16,-5,3
-6,-6,0,6,-3,-3,-2,-5,-9,-16,-5,3
-6,-6,0,6,-4,-3,0,-4,-8,-15,-5,2
-8,-6,1,7,-5,-3,3,-1,-7,-15,-6,1
-8,-6,2,7,-6,-2,6,2,-3,-13,-5,2
-8,-5,3,6,-6,-1,9,7,1,-10,-3,3
-8,-3,5,6,-7,0,12,14,8,-5,1,5
-8,-1,7,5,-7,2,15,21,16,1,7,9
-6,2,9,2,-7,5,17,29,25,10,15,16
-2,8,10,-3,-6,9,18,38,36,23,27,25
4,16,11,-10,-3,13,20,49,49,38,41,36
12,23,11,-17,0,17,20,58,62,53,55,47
20,30,10,-25,4,19,18,64,72,66,69,57
28,36,9,-32,9,22,13,64,77,76,80,67
35,42,8,-38,13,24,6,61,79,83,88,74
40,45,5,-43,18,25,0,57,78,85,92,78
45,46,2,-46,22,24,-6,50,73,82,90,79
48,46,-1,-47,25,23,-12,41,64,74,84,76
48,44,-3,-46,26,21,-17,26,50,62,73,71
44,41,-2,-43,23,20,-24,4,29,45,59,64
39,38,-1,-38,20,18,-32,-24,2,23,42,55
33,32,-1,-33,17,15,-42,-55,-27,0,23,44
29,25,-3,-28,16,10,-50,-78,-50,-20,8,34
26,20,-4,-23,15,7,-55,-91,-64,-33,-2,27
21,16,-4,-19,14,5,-58,-96,-70,-40,-9,21
17,12,-4,-15,12,4,-59,-96,-72,-45,-13,17
14,9,-5,-12,10,2,-59,-93,-72,-47,-16,13
12,7,-5,-10,9,1,-57,-87,-69,-47,-18,10
10,5,-5,-8,7,1,-54,-80,-65,-46,-19,8
8,4,-4,-6,5,0,-50,-71,-59,-44,-20,6
6,4,-2,-5,3,0,-44,-61,-52,-42,-20,5
4,4,0,-4,1,1,-37,-52,-45,-39,-19,4
2,4,2,-3,0,3,-32,-44,-38,-35,-17,4
1,4,4,-2,-1,4,-27,-37,-33,-32,-15,4
0,4,5,-1,-3,5,-22,-31,-28,-28,-13,5
-2,3,5,0,-4,5,-17,-26,-24,-26,-11,5
-3,3,5,0,-4,4,-13,-21,-21,-24,-10,5
-3,2,4,1,-4,3,-8,-17,-18,-22,-10,5
-4,1,4,2,-4,2,-4,-14,-15,-21,-10,5
-4,0,4,2,-4,1,-1,-11,-12,-20,-10,4
-4,-1,4,3,-4,0,1,-8,-10,-19,-10,3
-4,-3,3,3,-4,0,2,-7,-9,-18,-10,3
-5,-3,3,4,-4,0,3,-6,-8,-17,-9,3
-5,-3,2,4,-4,0,3,-5,-7,-16,-9,3
-5,-3,2,4,-3,0,4,-4,-7,-16,-8,3
-5,-2,2,3,-3,-1,5,-3,-6,-15,-8,4
-4,-2,1,3,-2,-1,6,-1,-5,-14,-7,4
-4,-2,1,3,-2,-1,7,0,-4,-13,-7,5
-4,-3,1,3,-2,-1,7,1,-3,-13,-6,5
-4,-4,0,3,-2,-2,7,1,-2,-12,-6,5
-4,-4,0,4,-2,-2,6,1,-2,-12,-6,5
-4,-5,0,4,-2,-3,5,0,-3,-12,-6,5
-3,-5,-1,4,-1,-3,4,0,-3,-12,-6,5
-3,-5,-2,4,-1,-4,3,0,-4,-13,-6,5
-3,-6,-2,4,0,-4,2,-1,-4,-13,-7,5
-4,-7,-3,5,0,-5,1,-1,-5,-13,-8,4
-4,-7,-3,6,0,-6,0,-2,-5,-14,-9,3
-4,-8,-3,6,0,-6,0,-3,-6,-15,-9,2
-4,-8,-3,6,0,-6,-1,-3,-6,-15,-10,2
-4,-9,-3,6,0,-6,-2,-4,-7,-16,-10,1
-4,-9,-4,7,0,-6,-3,-4,-7,-16,-10,1
-4,-9,-4,7,0,-6,-3,-5,-8,-16,-10,1
-4,-9,-4,7,0,-7,-3,-5,-8,-16,-10,0
-4,-9,-4,7,0,-7,-3,-5,-7,-16,-11,0
-4,-9,-4,7,0,-7,-3,-4,-7,-16,-11,0
-4,-9,-4,6,0,-7,-3,-4,-7,-16,-11,0
-4,-9,-4,6,0,-7,-3,-4,-6,-16,-11,0
-4,-9,-4,6,0,-7,-3,-4,-6,-16,-10,0
-4,-9,-4,6,0,-7,-3,-4,-6,-16,-10,0
-4,-9,-4,6,0,-7,-3,-4,-6,-16,-10,0
-4,-9,-4,6,0,-7,-3,-4,-6,-16,-10,0
-4,-9,-4,6,0,-7,-3,-4,-6,-16,-10,0
-4,-9,-4,6,0,-7,-3,-4,-6,-16,-10,0
-5,-9,-4,7,0,-7,-3,-3,-6,-16,-10,0
-5,-9,-4,7,0,-7,-3,-3,-6,-15,-10,1
-4,-9,-4,7,0,-7,-3,-3,-6,-15,-10,1
-5,-9,-4,7,0,-7,-3,-3,-6,-16,-11,1
-5,-10,-4,8,0,-7,-3,-3,-6,-16,-11,0
-5,-9,-4,7,0,-7,-2,-2,-6,-15,-11,0
-5,-9,-4,7,0,-7,-1,-2,-5,-15,-11,0
-5,-9,-4,7,0,-7,-1,-2,-5,-15,-11,0
-5,-8,-4,6,0,-7,-1,-1,-4,-14,-10,0
-5,-8,-4,6,0,-6,-1,-1,-4,-14,-10,1
-5,-8,-4,7,0,-6,0,0,-4,-14,-9,1
-4,-8,-4,7,0,-6,0,0,-4,-14,-9,1
-4,-8,-4,6,0,-6,0,0,-3,-14,-8,1
-3,-8,-4,6,0,-6,0,0,-3,-13,-8,2
-4,-8,-4,6,0,-6,0,1,-2,-13,-8,2
-4,-8,-4,6,0,-6,0,1,-2,-13,-8,2
-4,-7,-4,6,0,-6,0,2,-2,-12,-8,2
-4,-7,-4,6,0,-5,0,3,-1,-12,-8,2
-4,-7,-3,6,0,-5,1,3,-1,-11,-8,2
-4,-7,-3,6,0,-5,1,4,-1,-11,-8,2
-4,-7,-3,6,0,-5,2,4,-1,-11,-8,2
-4,-7,-3,5,0,-4,2,5,0,-11,-8,2
-4,-6,-2,5,-1,-4,3,5,0,-11,-7,2
-4,-6,-2,5,-1,-4,3,6,0,-10,-7,2
-4,-6,-2,5,0,-4,3,6,1,-10,-7,2
-4,-6,-2,5,0,-5,3,7,1,-10,-7,2
-4,-6,-3,5,0,-5,3,8,2,-9,-7,2
-4,-6,-3,5,0,-5,4,9,3,-9,-6,2
-4,-6,-3,5,0,-5,5,10,4,-8,-5,2
-3,-6,-3,5,0,-5,6,11,5,-8,-5,3
-3,-6,-3,4,0,-5,6,11,5,-7,-4,3
-2,-5,-4,4,1,-5,6,12,6,-7,-4,3
-1,-5,-4,3,1,-5,7,13,6,-6,-4,3
-1,-4,-3,3,1,-4,7,14,7,-6,-4,3
