leadI,leadII,leadIII,leadaVR,leadaVL,leadaVF,leadV1,leadV2,leadV3,leadV4,leadV5,leadV6
1,4,3,-3,0,4,-1,-1,-1,-1,-2,-1
2,11,9,-7,-3,10,-4,-4,-4,-4,-5,-3
0,15,15,-7,-8,15,-5,-5,-6,-6,-6,-4
-3,18,21,-7,-12,19,-4,-5,-6,-5,-6,-3
-2,21,23,-9,-12,22,-3,-5,-6,-5,-6,-2
-3,19,22,-8,-12,20,-4,-7,-7,-6,-7,-4
-6,14,22,-4,-14,18,-6,-9,-9,-8,-9,-5
-7,14,22,-3,-14,18,-7,-10,-10,-9,-10,-5
-9,13,23,-2,-16,18,-6,-10,-9,-9,-10,-5
-13,11,24,1,-19,18,-5,-11,-7,-8,-9,-5
-14,10,24,2,-20,18,-4,-11,-6,-8,-8,-5
-15,8,22,3,-19,15,-4,-12,-8,-9,-9,-6
-15,6,21,4,-18,14,-3,-11,-9,-10,-10,-7
-12,8,20,2,-16,14,-1,-9,-7,-9,-9,-6
-10,9,20,0,-15,15,0,-8,-6,-8,-9,-6
-10,8,20,1,-15,14,0,-7,-6,-9,-9,-6
-11,7,19,2,-15,14,1,-6,-7,-9,-9,-6
-11,7,19,2,-15,13,1,-6,-6,-9,-9,-6
-11,7,19,2,-15,13,2,-6,-5,-8,-8,-5
-13,7,20,3,-16,13,2,-5,-5,-7,-7,-4
-17,5,21,5,-19,13,2,-5,-6,-7,-7,-4
-22,3,25,9,-23,14,2,-4,-6,-7,-6,-3
-24,4,27,10,-26,15,4,-3,-4,-5,-5,-2
-19,5,24,6,-22,15,5,-3,-4,-5,-6,-3
-13,6,18,3,-16,12,3,-3,-6,-7,-8,-5
-10,5,15,2,-12,10,2,-3,-7,-8,-9,-6
-8,5,13,2,-11,9,3,-2,-7,-8,-9,-6
-9,4,13,3,-11,8,4,0,-6,-8,-9,-6
-8,5,12,2,-10,8,5,0,-5,-7,-9,-5
-4,8,12,-2,-8,9,6,0,-4,-6,-7,-4
-2,9,11,-4,-6,9,7,0,-1,-5,-6,-3
-4,4,9,0,-6,6,5,-4,0,-6,-7,-5
-6,-1,6,4,-6,2,3,-6,-2,-8,-8,-7
-5,-1,4,3,-4,1,4,-4,-3,-7,-8,-7
-5,0,5,3,-5,3,5,0,-3,-6,-7,-6
-7,0,6,4,-6,3,5,1,-1,-5,-7,-6
-5,2,6,1,-5,4,6,2,1,-4,-6,-4
-2,6,7,-2,-4,6,8,3,2,-3,-5,-2
-7,0,7,3,-7,3,6,2,-1,-5,-7,-4
-14,-10,4,12,-9,-4,4,-1,-5,-8,-10,-7
-14,-12,2,12,-8,-5,8,0,-4,-6,-7,-4
-12,-5,7,8,-9,0,13,5,1,0,-2,1
-13,0,14,6,-13,7,16,8,5,3,1,4
-9,4,14,2,-11,9,15,8,6,2,1,3
-4,3,7,0,-5,5,11,3,2,-1,-2,-1
-4,-3,1,4,-3,-1,7,-1,-3,-5,-7,-6
-13,-8,4,11,-9,-3,6,-1,-6,-6,-8,-8
-25,-10,14,18,-20,0,9,2,-3,-4,-5,-4
-24,-8,17,16,-21,3,11,4,0,-1,-2,-1
-12,-5,8,8,-10,1,9,3,0,-1,-1,-1
-2,-3,1,3,-1,-1,8,2,0,-1,-1,-1
2,-1,-2,0,2,-1,9,4,0,-1,0,0
2,0,-3,0,2,-1,10,5,0,0,0,1
-2,-5,-3,4,0,-4,9,4,-1,-2,-2,0
-6,-10,-5,8,0,-8,7,2,-3,-4,-5,-1
-7,-11,-4,9,-1,-8,8,3,-2,-4,-5,-2
-15,-15,1,15,-8,-8,11,4,0,-2,-3,-1
-22,-21,2,21,-12,-10,12,3,2,-1,-3,-1
-21,-24,-2,23,-9,-13,12,1,2,-2,-4,-3
-19,-26,-6,23,-6,-16,14,3,3,-2,-5,-4
-17,-23,-7,21,-5,-15,18,7,6,-2,-4,-3
-13,-19,-6,16,-3,-12,21,9,9,-1,-3,-3
-13,-19,-6,16,-3,-12,20,8,12,0,-2,-4
-16,-16,-1,15,-7,-9,20,9,17,3,2,-1
-20,-10,10,14,-15,-1,23,15,25,10,9,5
-21,-6,16,13,-19,4,23,21,28,15,15,11
-12,-4,10,8,-11,2,18,20,27,16,16,12
0,0,1,0,0,1,13,17,26,18,19,15
4,5,1,-4,2,4,10,15,26,23,27,23
4,9,4,-7,0,8,6,14,27,28,36,31
13,13,0,-13,6,7,-2,8,24,32,42,38
24,17,-7,-21,16,4,-12,-1,20,34,48,43
34,24,-9,-30,22,6,-21,-9,14,38,55,51
45,35,-8,-40,27,12,-28,-17,2,41,60,57
54,41,-12,-47,33,14,-34,-25,-18,38,56,55
53,35,-17,-44,35,9,-35,-31,-44,26,44,47
43,18,-24,-30,33,-2,-31,-34,-73,6,25,35
37,-1,-40,-18,38,-20,-27,-34,-101,-20,1,17
39,-20,-59,-10,49,-39,-23,-34,-125,-45,-23,0
35,-36,-71,0,53,-53,-22,-36,-144,-63,-42,-15
29,-46,-76,7,53,-62,-22,-38,-157,-75,-56,-26
29,-50,-78,9,53,-65,-20,-38,-162,-82,-63,-31
28,-52,-80,12,53,-67,-18,-37,-163,-85,-67,-35
22,-58,-81,18,51,-70,-19,-38,-161,-87,-71,-39
13,-66,-78,27,45,-72,-20,-36,-155,-87,-71,-42
7,-69,-75,32,40,-72,-20,-34,-143,-81,-68,-41
7,-67,-75,30,41,-70,-20,-33,-129,-75,-64,-38
8,-63,-71,27,39,-66,-19,-30,-115,-67,-58,-35
1,-61,-62,29,32,-62,-17,-26,-100,-59,-52,-31
-1,-57,-56,28,27,-57,-14,-22,-86,-51,-45,-27
2,-50,-51,24,26,-51,-9,-18,-73,-42,-37,-21
0,-46,-45,24,22,-46,-5,-13,-63,-35,-30,-16
-4,-46,-42,26,19,-44,-4,-11,-55,-30,-25,-13
-4,-47,-43,26,19,-44,-4,-10,-49,-26,-23,-11
-3,-46,-43,25,20,-44,-4,-11,-42,-23,-20,-10
-2,-45,-43,23,20,-43,-3,-10,-34,-19,-17,-9
-3,-44,-41,23,19,-43,0,-6,-26,-14,-12,-6
-6,-45,-39,25,16,-43,1,-2,-18,-9,-8,-3
-8,-44,-35,25,13,-40,3,1,-12,-5,-5,-1
-9,-38,-29,24,9,-34,6,3,-6,-1,-2,0
-10,-32,-22,22,6,-28,11,7,1,3,2,4
-11,-31,-20,22,5,-25,14,9,5,7,6,7
-12,-33,-21,23,5,-27,13,6,6,7,6,7
-14,-35,-20,25,3,-27,13,4,6,7,6,6
-16,-35,-19,25,1,-27,15,7,8,8,7,7
-15,-34,-19,24,2,-27,17,11,10,10,8,8
-15,-33,-18,24,1,-27,18,12,13,11,9,9
-15,-33,-18,24,2,-27,18,12,15,12,9,9
-11,-33,-22,23,6,-29,18,11,15,12,9,10
-10,-34,-25,23,8,-30,17,10,14,12,9,10
-11,-33,-22,23,6,-27,17,12,14,14,11,11
-12,-30,-18,22,3,-24,17,13,15,15,12,12
-12,-30,-16,21,2,-23,16,13,14,14,11,11
-11,-30,-17,20,2,-24,15,13,15,14,11,10
-12,-31,-17,21,2,-25,14,13,16,13,10,10
-13,-32,-18,22,2,-26,14,13,16,13,10,10
-12,-31,-20,22,4,-26,14,12,16,13,11,10
-13,-32,-19,23,3,-26,14,12,16,14,12,11
-16,-34,-18,25,1,-25,15,11,17,15,13,12
-18,-35,-17,27,0,-25,16,12,18,16,14,13
-19,-35,-15,27,-2,-24,16,12,19,17,15,13
-16,-31,-15,23,0,-23,17,13,19,18,16,15
-6,-24,-17,15,5,-22,19,15,21,19,18,17
-1,-21,-19,11,8,-21,19,16,22,20,19,17
-4,-22,-18,13,6,-21,18,15,22,20,19,17
-8,-24,-15,16,3,-20,17,14,22,20,19,16
-9,-25,-15,18,3,-20,16,13,22,20,19,16
-6,-24,-18,16,6,-20,17,15,22,20,19,17
-5,-24,-18,15,7,-20,18,17,22,20,19,17
-14,-31,-16,23,1,-23,18,16,22,18,17,15
-22,-38,-15,30,-3,-27,16,14,20,17,15,13
-22,-41,-18,32,-2,-30,14,12,18,16,14,12
-24,-42,-17,33,-3,-30,15,13,18,16,15,13
-27,-38,-11,32,-7,-24,19,17,23,20,19,17
-25,-32,-6,29,-9,-18,22,21,29,23,23,21
-21,-29,-8,26,-6,-18,22,19,31,24,24,22
-17,-29,-13,24,-2,-20,19,16,31,23,22,21
-13,-30,-17,22,1,-23,18,15,29,22,20,19
-13,-31,-18,22,2,-25,17,16,28,21,19,18
-17,-33,-16,25,-1,-25,18,19,29,21,18,18
-19,-32,-13,25,-3,-23,19,21,31,22,19,19
-18,-31,-13,24,-2,-22,18,22,32,22,20,19
-18,-33,-14,25,-2,-23,16,21,31,21,20,18
-18,-32,-14,25,-1,-23,15,20,31,21,20,18
-13,-28,-14,21,0,-21,16,20,33,22,22,19
-9,-24,-15,17,3,-19,17,20,36,24,23,20
-9,-25,-15,17,3,-20,18,20,37,24,23,20
-12,-28,-15,20,2,-22,18,20,38,24,23,19
-14,-28,-13,21,0,-21,20,22,40,25,24,20
-11,-24,-13,18,2,-19,22,23,42,27,25,22
-9,-24,-15,17,4,-20,21,23,41,26,25,21
-10,-27,-16,19,4,-22,19,22,40,24,23,19
-10,-27,-17,19,4,-22,18,22,41,24,24,19
-11,-29,-18,20,4,-23,18,20,44,24,24,19
-14,-32,-18,24,2,-25,17,19,44,23,23,19
-13,-30,-16,22,1,-23,18,22,45,25,25,21
-10,-27,-15,18,3,-22,20,26,47,26,26,23
-12,-28,-15,20,1,-22,20,28,48,27,26,23
-16,-30,-14,23,0,-22,19,28,48,27,26,23
-15,-29,-15,22,1,-22,19,28,49,27,26,23
-13,-27,-15,21,2,-21,19,29,52,28,27,24
-14,-27,-14,22,0,-21,18,29,54,28,27,24
-18,-31,-13,25,-2,-22,16,28,57,28,27,24
-21,-31,-10,26,-5,-21,17,29,61,30,29,25
-16,-26,-9,21,-3,-18,18,30,65,33,32,28
-9,-21,-11,15,2,-17,18,29,67,34,34,29
-6,-20,-13,14,4,-16,17,28,67,35,35,29
-7,-20,-12,14,3,-16,17,29,67,35,35,30
-11,-22,-11,17,0,-16,16,29,67,35,35,30
-17,-25,-9,21,-3,-16,16,28,68,36,35,30
-18,-24,-7,21,-5,-15,17,28,70,37,37,31
-14,-20,-7,17,-3,-13,17,28,73,39,39,33
-8,-15,-8,11,0,-12,17,28,74,40,40,34
-4,-12,-7,7,2,-11,17,29,75,41,41,35
-4,-11,-6,7,1,-9,17,29,75,42,42,36
-6,-12,-6,9,0,-10,17,28,74,42,43,36
-9,-14,-4,12,-1,-9,16,28,74,42,44,37
-13,-14,-2,14,-4,-8,16,29,74,43,45,38
-12,-14,-2,13,-4,-7,14,30,73,43,45,39
-8,-12,-4,10,-2,-8,12,29,72,43,45,39
-7,-13,-5,10,-1,-9,11,28,71,43,45,38
-8,-14,-5,11,-1,-10,10,27,71,42,44,38
-7,-13,-5,10,-1,-9,10,26,71,42,44,38
-6,-11,-4,9,0,-8,10,27,70,42,44,38
-6,-11,-4,9,0,-8,10,27,69,42,44,38
-5,-10,-5,8,0,-7,10,26,68,42,43,39
-1,-6,-4,4,2,-5,11,27,68,43,44,40
1,-4,-4,2,3,-4,11,26,67,43,45,41
0,-6,-6,3,3,-6,10,24,65,42,44,40
-3,-10,-6,6,1,-8,9,22,63,41,43,39
-6,-12,-5,9,0,-8,9,21,61,40,43,39
-6,-11,-6,9,0,-8,10,21,59,40,42,38
-6,-13,-7,10,1,-10,10,21,56,39,41,38
-8,-17,-9,13,1,-13,9,20,53,37,40,36
-10,-21,-10,16,0,-16,9,19,51,36,39,36
-10,-20,-9,15,0,-15,10,19,49,36,39,36
-9,-16,-7,12,-1,-11,10,18,46,36,39,36
-8,-13,-5,10,-1,-9,10,18,44,36,39,36
-8,-13,-5,11,-1,-9,10,17,43,36,39,35
-11,-17,-6,15,-1,-11,10,17,40,35,37,34
-14,-20,-6,17,-3,-13,9,17,37,33,35,32
-14,-18,-4,17,-4,-11,10,17,35,32,34,31
-14,-19,-5,17,-4,-12,9,15,33,30,31,29
-14,-22,-7,18,-3,-15,9,14,30,28,29,27
-12,-23,-10,18,-1,-17,10,14,30,29,29,27
-11,-23,-11,17,0,-17,11,15,29,29,29,27
-14,-22,-8,18,-3,-15,11,14,28,28,28,27
-17,-21,-3,20,-7,-12,10,13,25,27,26,25
-19,-23,-3,21,-8,-13,10,12,23,25,25,23
-18,-24,-6,21,-5,-15,11,12,23,24,24,23
-16,-25,-8,21,-4,-16,13,11,24,24,25,23
-20,-27,-7,23,-6,-17,13,10,23,23,24,22
-23,-29,-6,26,-9,-18,12,9,20,22,21,20
-24,-30,-6,27,-9,-18,11,9,18,21,20,18
-21,-29,-8,25,-7,-18,10,9,17,20,19,18
-17,-29,-11,23,-3,-19,9,10,15,20,18,17
-17,-30,-12,23,-2,-21,9,11,14,19,18,17
-20,-33,-12,27,-4,-22,9,12,13,18,17,17
-23,-34,-11,29,-5,-23,9,13,12,17,17,17
-17,-29,-12,23,-2,-21,11,14,12,18,17,18
-7,-21,-14,14,3,-18,13,14,14,19,18,18
-6,-19,-13,13,3,-16,15,14,15,20,19,19
-13,-24,-11,19,-1,-18,15,14,14,20,19,18
-21,-33,-11,27,-5,-22,14,12,12,18,17,16
-24,-36,-11,31,-6,-24,14,11,12,17,17,15
-24,-33,-9,29,-6,-22,16,12,13,19,18,16
-22,-30,-7,26,-6,-19,15,12,13,19,18,16
-19,-27,-8,24,-5,-18,13,11,11,17,16,15
-19,-28,-9,24,-5,-19,11,10,9,16,15,14
-22,-30,-9,27,-7,-20,9,9,8,15,14,13
-22,-31,-9,27,-7,-20,9,9,8,15,14,14
-22,-33,-10,28,-6,-22,9,9,7,15,14,14
-23,-35,-11,29,-6,-23,9,9,7,14,14,13
-23,-35,-11,29,-6,-23,9,9,6,14,14,13
-23,-35,-11,29,-6,-23,10,8,6,15,14,13
-26,-36,-10,31,-8,-23,11,7,4,14,13,12
-28,-37,-10,32,-9,-24,12,6,3,13,12,10
-27,-37,-11,31,-8,-24,12,6,2,12,10,9
-25,-36,-12,30,-6,-24,12,6,2,12,9,8
-24,-38,-13,31,-5,-25,12,5,2,11,8,7
-24,-39,-14,31,-4,-26,12,5,1,10,8,7
-21,-37,-14,29,-3,-25,14,7,3,11,10,9
-18,-31,-12,24,-3,-21,16,9,7,13,12,11
-15,-25,-10,20,-2,-17,17,9,9,15,14,13
-13,-22,-10,18,-1,-16,17,10,7,16,15,14
-12,-21,-11,17,0,-17,16,10,3,16,14,13
-13,-23,-11,18,-1,-17,16,11,0,15,12,12
-18,-27,-9,22,-4,-18,15,11,-1,14,10,10
-22,-31,-9,26,-5,-20,15,10,0,13,10,10
-21,-32,-10,27,-5,-21,16,11,3,14,11,10
-20,-31,-10,26,-4,-21,16,10,5,14,11,10
-24,-32,-7,28,-8,-20,13,8,4,11,9,8
-31,-33,-3,33,-14,-19,12,7,4,10,8,7
-34,-30,2,32,-18,-15,14,9,6,11,10,9
-31,-27,2,29,-16,-13,15,10,7,12,11,9
-25,-27,-3,26,-11,-16,13,8,5,11,9,7
-21,-27,-5,24,-7,-16,12,7,5,10,9,7
-20,-25,-3,22,-8,-14,12,8,6,11,10,8
-21,-24,-2,22,-9,-13,12,8,7,12,11,9
-20,-24,-3,22,-8,-13,12,7,6,11,10,9
-20,-23,-3,22,-8,-14,13,7,6,11,10,9
-19,-22,-4,21,-7,-14,14,7,6,11,9,9
-19,-22,-5,21,-7,-14,14,7,6,11,9,9
-21,-22,-2,21,-9,-13,15,8,8,12,10,10
-21,-21,-1,21,-10,-11,16,7,9,13,11,10
-20,-23,-2,21,-8,-12,14,5,8,12,10,9
-20,-24,-2,21,-8,-13,12,5,7,12,9,8
-16,-19,-2,17,-6,-10,13,8,8,13,11,10
-13,-13,0,13,-6,-7,15,12,10,15,13,12
-18,-16,1,16,-9,-7,14,12,10,15,13,11
-21,-22,-2,21,-9,-12,11,9,8,13,10,9
-18,-24,-6,20,-6,-15,9,8,8,13,9,8
-15,-21,-6,18,-5,-14,10,8,9,13,10,9
-17,-20,-2,18,-7,-11,10,8,10,14,10,9
-18,-20,0,19,-9,-10,10,7,10,14,11,9
-17,-18,0,18,-8,-9,10,6,11,14,11,9
-14,-15,0,15,-7,-8,10,6,12,14,12,9
-11,-11,-1,11,-5,-6,10,7,14,15,13,10
-9,-9,-2,10,-4,-6,10,6,15,17,15,11
-11,-10,-1,11,-6,-6,9,5,14,17,15,12
-12,-9,2,11,-8,-3,9,5,11,18,15,12
-13,-8,6,10,-9,-1,9,6,10,18,16,13
-12,-7,7,9,-9,0,9,6,10,19,16,14
-10,-5,7,7,-8,1,8,7,10,18,17,15
-12,-6,7,9,-9,0,6,6,9,17,16,14
-16,-9,6,13,-11,-2,4,6,9,15,15,13
-16,-10,4,13,-9,-3,3,6,10,16,14,13
-16,-10,3,13,-9,-4,2,6,10,16,14,13
-14,-8,3,11,-8,-3,2,5,11,16,14,13
-9,-5,3,7,-6,-1,2,5,12,17,15,13
-8,-6,3,7,-5,-2,1,4,11,16,14,13
-11,-10,3,10,-6,-3,0,3,9,15,13,12
-12,-11,2,11,-6,-4,-1,3,8,14,13,11
-11,-10,1,10,-5,-4,-1,2,8,14,12,12
-6,-6,0,6,-2,-3,0,3,8,14,13,13
-1,-1,0,1,0,-2,0,4,9,15,14,14
0,0,0,0,0,-1,0,4,8,15,14,15
-2,-2,0,2,-1,-2,0,3,7,15,14,14
-6,-5,1,6,-3,-2,-1,3,7,14,14,14
-8,-7,2,8,-5,-2,-1,3,6,14,14,14
-5,-6,0,6,-2,-3,-1,3,5,13,14,14
-2,-6,-3,4,1,-4,-2,3,4,12,13,14
-3,-6,-3,5,0,-5,-2,3,4,11,13,14
-3,-5,-2,5,0,-4,-1,3,4,11,13,14
-3,-5,-3,5,0,-5,-1,3,4,11,12,14
-3,-6,-4,5,0,-6,-1,2,4,10,11,13
-1,-6,-5,4,2,-7,0,2,3,10,10,12
0,-7,-5,3,3,-7,0,2,3,10,10,12
-1,-9,-7,5,3,-8,-1,1,2,9,9,11
-2,-11,-8,6,3,-9,-2,1,1,8,8,10
-3,-11,-8,7,3,-9,-2,2,1,7,8,10
-4,-12,-8,8,2,-10,-2,2,1,7,7,9
-7,-14,-7,10,0,-11,-2,1,0,6,6,7
-11,-15,-5,13,-2,-11,-1,1,0,5,6,6
-9,-15,-7,12,0,-11,0,1,0,5,5,5
-4,-15,-10,9,3,-12,1,1,0,4,5,5
-1,-14,-12,8,6,-13,2,1,0,3,5,5
-2,-15,-12,9,5,-13,4,1,0,3,5,5
-6,-16,-10,11,3,-13,5,1,0,3,4,5
-9,-18,-9,13,0,-14,6,2,-1,3,4,5
-11,-19,-8,15,-1,-15,6,2,-1,3,3,4
-11,-21,-11,16,0,-17,6,2,-1,2,2,3
-11,-24,-14,18,1,-20,5,1,0,2,1,2
-11,-27,-15,19,2,-21,5,1,1,2,1,2
-11,-25,-13,18,1,-19,4,3,0,2,1,1
-9,-20,-10,15,0,-15,4,4,-1,1,1,1
-7,-17,-10,12,1,-13,3,4,-2,0,0,0
-9,-20,-11,14,1,-16,4,5,-2,0,0,0
-12,-23,-12,18,0,-18,5,4,-2,-1,-1,-1
-10,-24,-14,17,2,-20,4,2,-4,-3,-3,-3
-7,-23,-17,16,4,-21,4,0,-5,-4,-4,-4
-6,-23,-17,15,5,-20,6,0,-4,-3,-4,-3
-5,-22,-17,14,5,-19,7,0,-3,-3,-4,-3
-3,-21,-18,12,7,-19,8,2,-3,-2,-3,-2
-1,-19,-17,10,8,-18,9,4,-3,-1,-2,-1
1,-14,-16,7,9,-15,10,5,-2,0,-1,0
2,-12,-15,6,9,-14,10,5,-1,0,0,0
0,-15,-16,8,8,-16,9,4,-2,-1,-1,-1
-1,-17,-16,9,7,-17,9,3,-3,-2,-2,-2
-3,-18,-15,11,5,-17,9,3,-4,-2,-2,-2
-6,-22,-15,14,4,-19,8,2,-5,-3,-3,-3
-6,-24,-17,15,5,-21,6,0,-7,-5,-5,-5
-6,-25,-18,15,6,-21,6,1,-5,-5,-5,-5
-8,-26,-18,17,5,-21,7,2,-3,-4,-3,-4
-7,-28,-22,18,7,-24,7,3,-2,-3,-2,-3
-6,-28,-23,17,8,-25,7,2,-2,-3,-3,-3
-6,-23,-18,15,6,-21,7,2,-1,-3,-3,-4
-2,-19,-17,11,8,-19,8,3,0,-1,-3,-3
0,-19,-19,10,10,-20,9,5,0,-1,-3,-3
-1,-22,-20,12,9,-22,10,6,0,-1,-3,-3
-4,-24,-19,14,7,-22,11,7,0,-1,-3,-3
-5,-24,-20,14,7,-22,11,7,0,-1,-3,-3
-3,-24,-22,13,9,-22,11,7,0,-2,-3,-3
-3,-23,-21,13,9,-22,12,8,1,-1,-3,-3
-6,-25,-21,16,7,-23,13,8,1,-1,-2,-2
-6,-26,-21,16,8,-24,13,8,1,-1,-2,-3
-6,-28,-22,17,8,-26,13,7,0,-1,-2,-3
-8,-30,-22,19,7,-26,13,5,0,-1,-2,-3
-11,-30,-19,21,4,-24,14,4,2,0,-2,-2
-13,-27,-14,20,1,-20,15,4,5,1,0,-1
-10,-24,-14,17,1,-18,16,6,5,2,1,0
-7,-22,-15,15,4,-18,17,8,4,2,1,1
-6,-23,-17,15,5,-20,18,11,3,2,1,1
-8,-29,-21,19,6,-25,17,11,3,1,0,-1
-9,-34,-24,22,7,-29,17,12,4,0,-3,-3
-10,-33,-22,22,5,-28,19,13,6,-1,-3,-4
-11,-30,-19,21,4,-25,21,14,11,0,-2,-4
-12,-31,-19,21,3,-25,21,12,14,0,-2,-4
-16,-31,-17,24,0,-24,21,13,16,2,0,-3
-16,-27,-12,22,-2,-20,23,16,20,7,5,1
-11,-23,-13,17,1,-18,23,16,21,11,10,5
-5,-22,-18,14,6,-20,19,14,19,13,14,8
0,-18,-19,10,9,-19,14,12,17,18,20,14
8,-8,-16,0,11,-12,7,9,16,24,29,23
16,1,-14,-9,14,-6,-2,5,13,29,36,30
23,8,-14,-16,18,-3,-12,0,11,33,44,36
33,19,-14,-26,23,2,-22,-5,9,39,53,44
42,28,-14,-35,28,6,-32,-14,2,44,59,50
44,31,-13,-37,29,8,-39,-23,-14,41,58,51
46,29,-19,-37,33,4,-41,-28,-35,29,49,47
52,22,-31,-36,42,-6,-40,-27,-57,9,33,38
56,8,-48,-31,52,-21,-38,-25,-81,-15,12,24
52,-13,-65,-19,58,-39,-38,-25,-108,-40,-13,7
47,-33,-80,-7,62,-57,-40,-28,-135,-64,-37,-11
47,-45,-91,-1,68,-68,-40,-30,-155,-81,-55,-25
49,-47,-97,-1,72,-72,-39,-30,-164,-90,-65,-33
46,-50,-97,2,71,-74,-37,-29,-165,-93,-71,-37
41,-55,-97,7,69,-77,-38,-31,-161,-94,-73,-40
39,-57,-97,9,68,-77,-38,-32,-153,-93,-74,-41
37,-56,-94,10,66,-76,-36,-29,-142,-88,-71,-41
37,-53,-90,8,64,-72,-32,-24,-129,-82,-67,-39
37,-49,-86,6,62,-67,-27,-21,-117,-75,-62,-37
36,-47,-82,5,59,-64,-24,-19,-106,-69,-57,-35
35,-43,-78,4,56,-60,-21,-17,-94,-63,-52,-33
32,-38,-70,3,51,-54,-16,-14,-81,-55,-45,-30
27,-37,-64,5,46,-51,-13,-11,-70,-48,-40,-27
23,-39,-62,9,43,-51,-10,-10,-61,-44,-38,-26
21,-37,-58,9,40,-48,-7,-8,-53,-39,-34,-24
16,-36,-53,10,35,-45,-4,-6,-44,-34,-30,-21
12,-36,-49,11,31,-43,-2,-4,-37,-30,-27,-19
12,-34,-47,10,29,-41,0,-3,-30,-26,-24,-17
10,-34,-44,11,26,-39,1,-2,-26,-23,-21,-16
3,-35,-39,16,20,-37,2,-2,-22,-20,-18,-15
-2,-33,-31,18,13,-32,4,0,-16,-15,-14,-12
-5,-30,-26,18,9,-28,6,2,-10,-11,-10,-9
-6,-28,-22,18,7,-25,8,4,-5,-7,-7,-7
-8,-27,-19,18,6,-24,9,5,-2,-5,-6,-6
-9,-27,-18,18,5,-23,9,6,-1,-4,-5,-5
-10,-28,-18,18,4,-23,10,7,0,-3,-4,-5
-11,-29,-17,20,2,-23,10,8,1,-3,-4,-4
-11,-30,-18,21,2,-24,10,7,1,-3,-4,-5
-7,-28,-20,19,5,-25,10,6,1,-3,-4,-5
-5,-25,-20,16,6,-23,11,7,3,-1,-3,-4
-6,-22,-16,15,5,-19,13,8,6,1,0,-2
-6,-22,-14,14,4,-18,13,8,8,2,0,-2
-7,-23,-15,14,4,-19,12,8,8,1,0,-2
-9,-24,-14,16,3,-19,11,8,7,1,0,-2
-12,-25,-13,18,0,-19,11,8,7,1,0,-2
-11,-24,-12,17,0,-18,12,8,8,2,0,-2
-10,-22,-12,17,0,-17,12,9,9,3,1,-1
-12,-23,-11,18,0,-17,12,10,9,3,1,-1
-9,-22,-13,16,2,-17,12,11,9,3,1,-1
-5,-21,-15,14,5,-18,13,11,9,3,1,-1
-7,-23,-15,15,5,-19,13,11,9,3,1,-2
-7,-23,-16,15,5,-19,14,10,10,3,1,-1
-5,-21,-16,12,5,-18,15,10,12,4,3,0
-4,-20,-16,12,5,-18,16,10,13,5,3,0
-6,-22,-18,14,5,-21,14,9,11,3,1,-1
-7,-24,-18,16,5,-22,13,9,11,3,1,-2
-7,-23,-16,15,4,-20,14,10,12,5,3,0
-9,-24,-15,16,4,-20,13,10,13,5,3,0
-10,-25,-15,17,3,-20,12,9,14,4,3,0
-9,-26,-16,17,4,-20,12,9,15,4,3,-1
-7,-26,-19,16,6,-22,11,9,14,4,2,-2
-5,-26,-21,14,7,-23,10,9,13,4,2,-2
-5,-25,-20,15,6,-22,11,9,15,5,3,-2
-7,-24,-17,16,4,-21,12,10,16,6,4,-1
-10,-23,-14,16,1,-19,14,11,18,7,5,0
-11,-22,-11,17,0,-18,15,12,19,8,6,1
-8,-20,-12,14,2,-17,15,14,19,9,6,2
0,-18,-16,8,8,-17,15,15,20,9,7,2
2,-18,-19,7,11,-18,14,14,20,9,6,2
0,-21,-20,10,10,-20,13,14,20,8,6,2
-2,-24,-22,13,9,-22,11,14,22,7,5,1
-3,-26,-23,15,9,-24,9,13,23,7,4,0
-3,-25,-22,14,9,-24,9,12,25,8,5,0
-4,-24,-20,14,8,-22,9,12,25,9,6,0
-3,-22,-18,12,9,-21,11,15,24,10,7,1
4,-16,-19,5,12,-18,14,18,25,13,9,4
10,-10,-19,0,15,-15,17,19,27,15,11,6
10,-11,-20,0,14,-15,19,19,28,15,11,6
4,-15,-19,5,11,-17,19,18,28,14,11,5
1,-17,-18,7,9,-17,20,19,30,14,11,5
5,-13,-19,4,11,-16,21,21,32,16,12,6
6,-13,-19,3,12,-16,21,22,34,16,13,6
3,-16,-19,6,11,-18,20,21,35,15,12,5
4,-17,-21,6,13,-19,19,21,37,15,12,5
5,-19,-24,6,15,-21,19,21,39,16,12,5
4,-21,-25,8,15,-23,18,21,40,16,11,5
4,-21,-25,8,14,-22,18,21,41,16,11,5
2,-20,-23,9,12,-22,17,19,42,15,9,3
3,-17,-21,7,11,-19,16,19,43,16,9,3
7,-9,-17,1,11,-13,18,22,45,20,13,6
8,-5,-14,-1,11,-10,19,25,47,22,15,8
7,-8,-15,1,12,-12,16,23,47,20,15,7
7,-10,-16,1,12,-13,13,21,49,20,15,7
10,-5,-14,-3,12,-9,13,24,53,22,17,10
12,-1,-13,-6,12,-7,14,28,57,24,19,12
8,-4,-13,-2,10,-8,14,29,59,23,19,11
4,-7,-12,2,7,-9,15,29,61,24,19,11
4,-3,-9,0,6,-6,17,29,64,26,21,13
3,-1,-6,0,4,-4,17,27,64,26,21,12
0,-3,-4,2,2,-4,15,25,61,25,20,11
5,0,-4,-2,4,-2,16,25,61,26,21,12
12,6,-4,-9,8,1,17,26,63,28,24,14
13,8,-4,-10,8,2,17,25,64,28,25,15
11,7,-3,-9,7,2,15,23,65,29,25,15
10,9,-2,-9,6,3,14,23,66,30,26,16
12,12,-1,-12,6,5,14,23,67,31,27,17
12,12,-1,-12,7,5,12,22,65,30,26,17
10,11,0,-10,5,5,10,21,63,29,25,16
10,14,4,-12,3,8,11,22,64,30,26,18
11,17,7,-14,2,11,11,22,65,31,27,19
12,18,7,-15,3,12,10,22,64,32,28,20
15,21,6,-18,4,13,10,23,64,32,29,21
20,26,6,-23,6,16,10,23,64,33,30,21
21,29,7,-25,7,17,9,23,63,33,29,21
19,28,8,-23,5,17,8,22,62,32,28,20
18,27,9,-22,4,18,7,20,62,31,27,19
19,30,11,-24,3,20,7,20,62,32,28,20
18,31,13,-25,2,22,6,18,61,32,28,21
14,29,15,-22,0,22,4,16,56,30,27,20
13,29,16,-21,-1,23,2,14,53,29,26,19
17,32,16,-25,0,24,2,14,52,30,26,20
19,32,13,-25,3,22,3,14,52,30,27,21
15,26,10,-20,2,18,1,13,50,29,25,19
11,23,12,-17,0,17,0,10,47,27,22,17
10,25,15,-18,-2,20,-1,8,43,25,21,15
12,29,16,-21,-2,22,0,8,41,25,21,15
17,33,17,-25,0,25,1,9,39,25,22,15
19,36,17,-28,1,26,2,10,38,25,23,16
18,35,16,-27,1,26,1,9,36,24,22,15
16,32,15,-24,0,23,0,7,32,22,20,14
15,29,13,-22,0,21,-1,5,29,20,18,12
16,28,12,-22,2,20,-2,4,26,18,16,10
20,31,11,-25,4,21,-3,4,25,18,15,10
22,35,13,-28,4,23,-2,4,25,19,16,10
19,32,13,-26,2,22,-2,3,22,17,15,9
14,27,12,-21,1,20,-4,0,18,15,12,7
15,28,12,-22,1,20,-4,-1,17,14,12,6
18,30,12,-24,3,21,-2,0,15,14,12,6
20,31,10,-25,4,20,-2,0,13,13,10,5
20,29,8,-24,5,19,-2,0,11,12,9,3
18,27,8,-22,4,17,-3,-1,10,10,7,1
16,25,8,-20,3,16,-3,-2,9,10,5,0
14,23,9,-19,2,16,-3,-3,8,9,5,-1
13,23,10,-18,1,16,-3,-3,6,8,4,-2
15,24,9,-19,3,16,-4,-3,4,8,4,-2
17,24,7,-21,5,16,-4,-4,1,7,3,-2
18,25,6,-21,6,16,-4,-4,0,6,3,-2
18,25,6,-21,6,15,-3,-4,-1,6,2,-2
18,24,6,-21,6,14,-3,-4,-2,5,1,-3
19,25,5,-22,7,14,-3,-4,-2,5,1,-3
24,29,5,-27,9,16,-1,-2,-1,6,2,-2
27,31,5,-29,11,17,0,-1,-1,6,2,-1
22,27,5,-25,8,16,0,-3,-2,4,1,-3
15,22,6,-19,4,14,-1,-5,-4,3,0,-5
13,20,6,-17,3,13,-2,-7,-5,2,-1,-6
14,19,4,-16,4,12,-2,-8,-6,1,-2,-6
15,18,3,-16,5,10,-2,-7,-6,1,-2,-6
15,18,2,-16,6,10,-2,-5,-6,1,-3,-6
16,19,3,-18,6,11,-2,-5,-6,1,-3,-6
16,20,4,-19,6,11,-2,-5,-7,0,-4,-7
15,18,4,-17,5,10,-3,-7,-8,-1,-5,-8
16,18,3,-17,6,10,-4,-8,-9,-1,-5,-9
20,22,2,-21,9,11,-3,-8,-8,0,-5,-8
22,23,0,-22,10,11,-2,-8,-7,0,-4,-7
21,23,1,-21,9,12,-3,-7,-8,0,-4,-7
21,25,3,-22,8,14,-3,-7,-11,-1,-4,-7
21,26,5,-23,8,15,-4,-7,-12,-2,-5,-7
20,26,5,-23,7,15,-4,-7,-13,-2,-5,-8
22,26,4,-24,9,15,-4,-7,-12,-2,-6,-8
25,27,2,-26,11,15,-3,-7,-11,-2,-6,-9
25,27,2,-26,11,14,-3,-7,-10,-3,-6,-9
23,25,3,-24,10,14,-4,-7,-10,-4,-8,-10
20,24,5,-22,7,14,-5,-6,-11,-5,-9,-11
17,24,7,-21,5,15,-6,-6,-11,-6,-9,-11
15,24,8,-20,3,16,-6,-6,-8,-5,-8,-11
14,24,9,-19,2,16,-5,-6,-5,-4,-6,-9
16,26,10,-21,3,17,-4,-5,-5,-3,-5,-8
19,27,8,-23,5,17,-5,-4,-7,-3,-6,-8
17,24,7,-20,4,15,-6,-5,-10,-5,-8,-9
10,19,9,-14,0,14,-6,-7,-11,-6,-10,-10
6,18,11,-12,-3,15,-5,-7,-11,-6,-9,-10
5,18,12,-12,-4,15,-3,-6,-12,-6,-9,-11
3,17,12,-10,-4,14,-2,-6,-12,-7,-10,-11
3,16,12,-10,-4,14,-1,-6,-13,-7,-10,-12
4,16,11,-10,-3,13,-1,-7,-14,-7,-10,-12
8,19,10,-14,0,14,-1,-7,-14,-7,-9,-11
11,22,11,-17,0,16,1,-6,-12,-5,-8,-10
8,22,13,-15,-2,17,3,-5,-11,-4,-7,-9
7,22,14,-15,-3,18,4,-5,-11,-4,-6,-9
9,25,14,-17,-2,19,5,-2,-11,-4,-6,-7
6,23,16,-15,-5,19,6,0,-10,-4,-6,-6
-1,17,17,-8,-9,16,4,-1,-10,-6,-8,-8
-4,12,16,-4,-9,13,1,-4,-11,-8,-10,-11
-3,11,14,-4,-8,12,1,-5,-10,-9,-12,-12
0,13,13,-7,-5,13,2,-6,-8,-9,-11,-12
0,15,15,-7,-6,14,3,-5,-7,-8,-10,-11
-3,16,20,-6,-11,17,5,-4,-6,-6,-9,-9
-5,18,23,-6,-14,20,5,-3,-6,-5,-7,-7
-4,18,22,-8,-13,20,5,-4,-6,-5,-6,-7
-4,18,21,-8,-13,19,4,-4,-6,-5,-5,-7
-4,18,21,-8,-12,20,3,-4,-5,-4,-4,-7
4,24,19,-14,-8,21,2,-3,-4,-3,-3,-5
12,30,18,-21,-3,24,3,0,-2,-1,-1,-3
15,31,17,-23,-1,24,4,2,0,0,0,-1
15,31,17,-23,-1,24,3,2,0,0,-1,-2
14,33,19,-24,-2,26,4,2,0,1,-1,-1
7,30,22,-19,-7,26,4,1,-1,1,-1,-2
0,22,21,-11,-10,22,1,-1,-5,-1,-4,-5
-3,18,21,-7,-12,20,0,-2,-5,-2,-5,-6
-4,20,25,-7,-15,23,2,-2,-3,0,-2,-4
-5,23,29,-8,-17,26,4,-2,0,1,0,-2
-5,23,29,-8,-17,26,5,-2,0,1,0,-2
-5,21,26,-7,-16,24,4,-2,0,0,-1,-3
-11,14,25,-1,-18,20,0,-6,-1,-2,-3,-5
-14,12,25,1,-20,18,-2,-8,-2,-3,-4,-6
-1,23,24,-11,-13,24,0,-5,0,0,0,-2
4,32,27,-19,-11,30,3,0,3,4,4,2
-3,28,32,-13,-17,30,4,0,2,4,4,2
-5,26,32,-10,-18,29,3,-1,2,3,3,1
0,30,30,-15,-14,29,4,0,5,4,4,2
6,34,28,-20,-11,30,4,1,6,6,5,3
9,34,26,-21,-8,29,0,0,3,4,5,2
4,29,24,-16,-10,26,-4,-3,-1,2,3,0
0,25,24,-12,-12,25,-6,-4,-3,1,2,0
2,26,23,-14,-11,25,-7,-4,-3,1,2,0
4,29,24,-17,-10,27,-5,-3,0,3,4,2
1,30,29,-15,-14,29,-4,-2,3,5,5,4
-3,28,31,-12,-17,29,-4,-2,4,5,5,4
-6,25,31,-8,-19,28,-5,-3,2,4,4,4
-8,23,31,-7,-19,26,-6,-4,0,3,4,4
-7,22,29,-7,-18,25,-6,-4,0,3,4,4
-7,20,27,-6,-17,23,-5,-2,0,4,6,5
-4,22,25,-9,-14,23,-4,-1,1,5,7,6
3,27,23,-15,-9,25,-3,-1,2,5,7,6
4,29,24,-17,-9,26,-3,-2,2,5,6,6
2,29,26,-16,-11,27,-4,-2,2,4,5,5
2,30,27,-16,-12,28,-4,-1,1,3,5,5
2,30,28,-16,-13,28,-3,0,1,3,5,5
1,29,27,-15,-13,28,-3,0,1,3,4,5
3,29,25,-16,-11,27,-3,0,0,2,4,4
3,28,24,-16,-10,26,-4,0,-1,2,3,3
0,25,24,-13,-12,25,-4,0,-2,1,3,3
0,25,24,-12,-12,25,-4,0,-2,1,3,3
0,25,24,-12,-12,24,-4,-1,-3,1,3,3
-2,23,26,-10,-14,24,-3,-1,-3,0,2,2
-6,21,26,-7,-16,23,-2,-1,-3,1,3,3
-7,19,26,-6,-16,22,0,0,-2,2,4,3
-7,19,26,-6,-16,22,1,0,0,3,5,4
-5,20,25,-8,-15,22,1,1,0,3,5,4
-5,19,24,-7,-15,22,2,1,0,3,4,3
-7,18,25,-6,-16,22,2,1,0,2,3,2
-10,18,28,-4,-19,23,3,1,0,2,3,2
-12,17,30,-3,-21,23,4,1,0,1,2,2
-11,15,27,-2,-19,21,3,0,0,0,1,0
-10,14,24,-2,-17,18,2,0,-2,-1,-1,-2
-8,15,23,-4,-15,18,2,0,-2,-1,-1,-2
-6,16,22,-5,-14,19,3,0,-2,-1,-1,-2
-4,17,21,-6,-13,19,4,0,-1,0,-1,-2
-6,15,20,-4,-13,18,4,-2,0,-1,-2,-3
-10,13,23,-1,-17,18,6,-1,1,-1,-1,-2
-13,14,28,-1,-20,21,8,3,0,0,0,-1
-14,13,27,0,-20,19,7,4,-2,0,0,-1
-14,9,24,2,-19,16,5,1,-5,-1,-2,-4
-11,10,22,0,-16,16,5,1,-4,-1,-1,-3
-7,15,22,-4,-15,19,9,5,0,2,2,0
-9,17,27,-4,-18,23,11,7,3,5,5,2
-15,15,30,0,-22,23,9,5,2,4,4,1
-14,11,25,1,-19,18,6,2,-2,0,0,-2
-12,8,20,2,-16,14,3,0,-6,-3,-3,-5
-14,4,19,5,-16,11,3,-1,-6,-4,-4,-6
-17,2,19,7,-17,10,4,0,-5,-4,-4,-6
-16,3,19,6,-17,11,4,0,-2,-3,-3,-5
-11,8,18,1,-14,13,4,0,-1,-3,-3,-5
-4,12,17,-4,-11,14,6,1,0,-2,-3,-5
-4,11,16,-4,-10,14,7,3,-1,-1,-3,-4
-8,5,14,0,-11,10,7,4,-3,-2,-4,-4
-8,4,12,1,-10,8,7,4,-4,-2,-4,-4
-9,6,15,1,-11,10,6,3,-5,-3,-4,-4
-11,8,20,1,-15,13,6,3,-4,-2,-3,-4
-9,12,22,-2,-15,16,8,4,-2,-1,-2,-3
-7,14,22,-3,-15,18,9,3,0,0,-1,-2
-12,9,22,1,-17,15,7,0,-1,-1,-3,-4
-17,4,20,6,-19,12,4,-1,-3,-4,-6,-7
-19,1,21,8,-20,11,4,0,-4,-4,-6,-7
-21,3,24,8,-22,13,6,3,-2,-2,-4,-5
-19,6,26,7,-22,15,8,5,1,0,-2,-2
-17,7,26,5,-21,16,10,5,3,1,-1,-1
-17,7,25,5,-20,15,11,6,2,0,-1,-1
-20,1,21,10,-20,10,8,4,-1,-3,-3,-5
-20,-3,17,12,-18,6,6,1,-5,-5,-6,-8
-14,0,14,7,-14,7,7,1,-5,-5,-5,-8
-9,4,14,3,-12,9,8,1,-4,-3,-3,-6
-6,7,14,0,-10,10,10,2,-2,-1,-2,-5
-8,9,17,0,-12,12,12,3,0,0,0,-2
-16,6,23,5,-19,14,13,5,1,1,0,0
-19,3,23,8,-20,13,13,5,2,1,0,-1
-17,1,19,8,-18,10,12,3,3,-1,-3,-3
-19,-4,15,11,-17,6,12,3,3,-3,-6,-7
-22,-8,14,15,-18,3,13,5,3,-4,-8,-9
-24,-9,15,16,-20,4,14,8,4,-4,-8,-9
-23,-7,16,15,-20,5,16,10,7,-3,-6,-8
-20,-5,16,12,-18,6,16,11,10,0,-3,-6
-21,-5,17,13,-19,6,16,12,12,2,0,-4
-23,-5,17,14,-20,6,16,14,15,5,3,-1
-19,0,18,9,-18,8,15,14,16,8,7,2
-12,7,19,2,-16,13,11,12,15,11,11,6
-7,13,20,-3,-14,17,4,7,12,14,16,11
0,20,20,-10,-11,20,-3,1,8,18,23,18
11,30,19,-20,-4,25,-10,-2,7,24,32,26
23,40,17,-31,2,28,-18,-7,4,31,41,34
31,49,19,-40,6,33,-28,-15,-1,37,49,41
35,55,21,-45,8,38,-37,-24,-11,40,54,46
36,53,18,-45,10,35,-44,-33,-29,33,50,44
39,46,6,-43,17,26,-48,-38,-52,16,36,36
48,39,-9,-44,29,15,-48,-37,-75,-4,19,26
53,29,-24,-41,38,3,-47,-35,-99,-26,0,14
51,12,-39,-32,44,-12,-47,-36,-125,-48,-22,-2
50,-4,-53,-22,51,-28,-48,-39,-149,-68,-44,-17
47,-17,-63,-15,55,-40,-48,-42,-166,-83,-60,-29
41,-26,-67,-7,55,-47,-48,-44,-176,-92,-69,-37
40,-29,-68,-5,55,-49,-48,-44,-177,-95,-73,-40
43,-25,-68,-9,56,-47,-46,-42,-169,-93,-72,-40
45,-21,-67,-12,56,-44,-44,-39,-158,-89,-70,-40
45,-18,-64,-13,54,-41,-42,-37,-144,-84,-68,-39
41,-18,-60,-12,50,-39,-39,-35,-131,-79,-65,-39
34,-20,-55,-7,44,-38,-35,-33,-118,-73,-62,-39
27,-22,-49,-2,38,-36,-29,-30,-105,-67,-58,-37
21,-23,-45,1,33,-35,-24,-26,-94,-62,-55,-36
18,-23,-41,2,30,-33,-21,-23,-84,-57,-52,-36
17,-20,-37,1,27,-30,-19,-21,-75,-53,-49,-35
17,-16,-34,0,26,-26,-16,-19,-65,-47,-44,-32
17,-12,-30,-3,24,-21,-13,-17,-56,-41,-39,-29
17,-8,-26,-4,22,-17,-11,-16,-48,-37,-35,-26
16,-7,-24,-4,20,-15,-10,-14,-43,-33,-32,-25
14,-7,-20,-3,17,-13,-8,-11,-38,-30,-29,-23
11,-5,-15,-3,13,-11,-6,-8,-32,-26,-25,-20
8,-4,-11,-2,10,-8,-4,-6,-26,-21,-21,-18
4,-3,-6,-1,5,-5,-2,-4,-21,-17,-17,-15
0,-1,-1,0,1,-1,0,-3,-15,-13,-14,-12
-4,-2,1,2,-2,0,1,-3,-11,-11,-11,-10
-7,-3,3,4,-5,1,2,-3,-8,-9,-10,-10
-7,-2,5,4,-6,2,3,-3,-5,-8,-10,-9
-7,0,7,4,-7,4,5,-2,-3,-6,-9,-8
-7,0,9,4,-8,4,5,-1,-3,-6,-8,-8
-7,0,9,4,-8,4,6,-1,-3,-5,-8,-8
-7,0,9,4,-8,4,6,-1,-2,-5,-7,-7
-9,0,10,4,-10,5,6,-1,-1,-4,-6,-7
-11,-1,10,6,-10,4,6,-1,-2,-4,-7,-7
-10,0,9,5,-9,4,6,1,-2,-4,-7,-7
-7,4,11,1,-9,7,8,4,0,-2,-5,-5
-5,7,13,-1,-9,10,10,6,3,0,-3,-3
-5,8,14,-1,-9,10,10,6,4,0,-3,-3
-8,5,14,2,-10,9,9,5,4,-1,-4,-4
-10,2,13,4,-11,7,8,4,3,-2,-4,-5
-9,2,12,3,-10,6,8,3,4,-2,-4,-5
-9,2,12,3,-10,7,8,3,3,-2,-4,-5
-10,4,14,3,-12,9,8,4,3,-1,-3,-4
-8,6,14,1,-12,10,8,5,3,0,-3,-3
-6,6,12,0,-9,10,7,4,3,-1,-4,-4
-4,7,11,-1,-7,10,7,4,5,0,-4,-4
-2,9,12,-3,-6,11,8,5,7,0,-3,-3
-3,8,11,-2,-6,10,8,4,8,0,-3,-3
-3,8,11,-2,-6,9,7,3,8,0,-3,-3
-3,9,12,-3,-7,11,8,5,8,1,-1,-2
-7,7,14,0,-10,11,7,5,8,1,-1,-2
-11,3,14,4,-13,9,5,4,9,1,-1,-3
-11,1,13,5,-12,7,5,4,10,2,-1,-3
-10,0,11,5,-11,6,5,5,9,2,-2,-3
-9,3,13,3,-11,8,5,4,10,1,-3,-4
-8,8,16,0,-12,12,6,3,12,1,-2,-4
-7,11,18,-2,-11,14,7,4,12,2,-1,-3
-3,14,17,-5,-9,15,7,6,12,3,0,-2
0,16,16,-7,-8,16,8,7,12,3,0,-1
-1,14,15,-6,-8,15,6,6,11,2,-1,-1
-2,10,13,-4,-8,12,3,5,10,0,-2,-3
-3,10,14,-3,-9,13,4,6,11,0,-1,-2
-8,9,17,0,-13,13,5,8,13,1,-1,-2
-12,6,18,3,-15,12,5,7,12,0,-2,-3
-8,7,16,1,-11,11,4,5,11,0,-2,-4
-3,11,15,-4,-9,12,5,5,11,0,-2,-4
-1,14,16,-6,-8,15,7,6,13,2,0,-2
2,17,15,-10,-6,16,9,8,16,4,3,0
4,18,14,-11,-5,16,9,10,17,5,4,1
3,15,13,-9,-6,15,7,10,18,5,4,1
-2,10,13,-4,-8,12,6,9,19,4,3,0
-7,6,14,0,-10,10,6,8,21,3,2,-1
-7,6,13,0,-10,10,7,7,22,3,2,-1
-3,10,13,-3,-7,11,8,9,23,4,2,0
-3,11,14,-4,-8,12,9,11,24,4,2,0
-6,11,17,-2,-12,14,10,12,24,5,3,1
-7,12,19,-2,-13,15,10,11,25,5,3,1
-6,11,18,-3,-12,15,10,12,27,6,4,2
-1,13,15,-5,-8,14,11,14,31,8,5,3
1,14,14,-7,-6,14,11,13,33,8,6,4
-4,10,15,-3,-9,13,8,11,32,7,5,2
-7,8,16,0,-11,12,6,11,31,6,4,1
-7,10,16,-2,-11,13,6,13,33,7,4,2
-9,10,19,-1,-15,15,7,14,36,8,5,2
-11,12,23,-1,-17,17,7,14,39,9,6,3
-8,16,24,-4,-17,19,9,14,44,10,8,4
-4,18,23,-6,-14,20,10,15,46,12,10,5
1,19,20,-10,-9,19,9,17,45,13,11,6
3,20,18,-11,-7,18,8,19,45,13,11,7
-2,18,21,-8,-11,19,7,19,46,14,11,7
-7,18,26,-6,-16,22,7,19,49,15,12,7
-7,22,29,-7,-17,25,9,17,53,17,13,8
-1,27,28,-13,-14,28,10,16,54,18,14,10
6,32,27,-19,-10,29,10,19,54,19,15,11
5,31,26,-18,-10,29,9,20,54,19,15,11
1,26,26,-13,-12,26,7,19,53,18,14,10
0,25,26,-12,-12,25,5,18,55,18,15,11
0,28,29,-13,-14,28,5,18,58,21,18,13
-3,28,31,-12,-17,29,4,19,59,22,19,15
-5,27,31,-11,-18,29,2,19,58,22,19,15
-3,29,32,-13,-18,30,2,19,59,23,20,16
-1,32,33,-16,-17,32,2,19,60,24,21,17
1,34,32,-18,-16,33,2,19,60,25,22,17
3,34,31,-19,-15,33,1,17,59,24,22,17
4,34,31,-19,-14,33,0,16,58,24,22,17
3,35,32,-19,-14,34,0,16,58,26,23,18
2,35,33,-18,-15,34,1,16,59,28,25,20
2,32,30,-17,-14,31,1,17,59,29,27,21
2,30,27,-16,-12,28,1,18,58,29,27,22
3,32,29,-18,-13,30,1,17,57,28,25,21
3,37,33,-20,-15,34,0,15,55,26,23,20
2,37,35,-19,-17,36,-1,14,52,25,22,19
0,34,35,-17,-17,34,-2,12,50,24,20,18
1,33,33,-16,-15,33,-4,10,48,24,20,17
4,34,30,-18,-12,32,-4,9,47,24,20,17
6,35,29,-20,-11,32,-4,10,46,24,20,17
7,36,28,-21,-11,32,-4,10,43,23,20,16
5,34,28,-20,-12,31,-5,7,40,22,20,15
3,32,29,-18,-13,30,-5,5,37,21,18,14
3,33,29,-18,-13,31,-5,5,35,21,18,14
5,34,30,-20,-13,32,-3,6,34,22,19,15
5,35,30,-20,-13,33,-2,6,33,22,20,16
3,33,29,-18,-13,32,-2,5,31,21,19,16
2,30,27,-16,-12,29,-3,3,27,19,16,14
5,30,24,-18,-9,27,-4,2,24,17,14,12
9,33,23,-21,-7,28,-3,3,23,17,14,12
8,33,25,-21,-9,29,-2,4,22,17,14,12
4,30,26,-17,-11,28,-2,4,20,16,13,11
3,27,24,-15,-10,26,-2,3,17,14,11,9
4,26,22,-15,-9,24,-2,2,14,13,10,8
4,24,20,-14,-7,23,-2,1,12,13,10,7
4,24,20,-14,-7,22,-1,1,11,13,9,7
4,24,20,-14,-7,22,-1,0,11,12,8,7
2,21,19,-12,-8,20,-2,-2,8,10,6,5
1,18,17,-10,-8,17,-4,-4,5,8,3,2
0,17,18,-9,-10,17,-3,-4,4,7,3,2
-2,15,18,-6,-11,16,-3,-3,2,7,3,1
-2,13,16,-5,-9,14,-3,-4,0,6,2,0
-4,11,15,-3,-9,13,-3,-5,0,6,1,0
-5,10,16,-1,-10,14,-3,-4,-1,6,1,0
-3,12,16,-4,-9,14,-2,-3,-2,5,1,0
1,15,15,-8,-7,15,-1,-3,0,6,1,1
3,17,15,-10,-6,16,0,-2,2,6,1,1
4,18,14,-12,-5,16,0,-3,2,6,1,1
5,18,13,-12,-4,16,0,-2,0,6,1,1
3,18,15,-10,-6,17,0,0,-2,7,2,1
0,16,16,-8,-7,16,0,1,-3,7,3,1
-1,12,14,-5,-7,14,0,0,-4,6,1,0
-4,9,13,-2,-8,12,-1,-2,-5,4,0,-1
-3,10,14,-3,-9,12,0,-3,-4,4,0,-1
0,12,14,-6,-8,13,1,-1,-4,4,0,0
0,12,13,-6,-8,12,1,0,-5,3,0,0
0,14,14,-7,-8,13,1,0,-5,3,0,1
4,19,15,-11,-6,17,3,3,-2,6,2,3
6,23,16,-14,-5,19,5,4,-1,7,4,4
5,22,16,-13,-5,20,4,3,0,7,3,3
2,17,15,-9,-6,17,2,0,0,6,2,1
-1,12,13,-5,-7,13,0,-4,-2,4,0,-1
-3,9,13,-3,-8,11,-1,-4,-5,2,-1,-2
-4,7,12,-2,-9,10,-1,-3,-7,1,-2,-3
-6,5,11,0,-9,8,-1,-3,-9,0,-3,-3
-7,4,11,1,-10,8,0,-3,-9,0,-4,-4
-7,5,12,1,-10,9,0,-3,-9,0,-3,-4
-7,8,15,0,-11,11,1,-2,-8,0,-2,-2
-5,9,15,-1,-10,12,0,-1,-8,1,-1,-1
-2,9,12,-3,-7,11,0,0,-9,1,-1,-1
0,9,9,-4,-4,9,0,0,-10,1,-1,-1
1,9,8,-5,-3,8,1,0,-8,1,-1,0
0,9,8,-4,-4,8,2,-2,-6,1,-2,-1
-3,9,12,-2,-8,10,2,-6,-4,1,-3,-2
-5,10,16,-2,-10,13,3,-7,-4,1,-2,-2
-4,11,16,-3,-9,13,4,-6,-7,1,-2,-2
-5,7,13,0,-8,10,4,-4,-9,0,-3,-3
-9,2,11,4,-9,7,4,-2,-10,-1,-4,-4
-8,4,12,2,-9,7,5,-1,-9,-1,-3,-3
-2,11,13,-4,-7,11,6,0,-6,0,-2,-2
3,16,13,-9,-5,14,5,-1,-5,0,-3,-3
3,15,12,-9,-4,13,4,-2,-7,-1,-4,-4
0,12,12,-6,-5,12,3,-2,-8,-2,-5,-5
-2,10,13,-3,-7,12,2,-1,-9,-1,-5,-5
-6,9,17,-1,-11,14,3,0,-9,0,-4,-4
-11,10,22,0,-16,17,6,1,-7,1,-1,-2
-10,14,25,-2,-17,20,9,2,-4,3,0,0
-9,14,23,-3,-16,18,8,0,-5,2,-1,-1
-13,8,21,2,-18,14,5,-2,-8,0,-4,-3
-13,9,22,2,-18,15,5,-1,-7,0,-3,-2
-9,13,22,-2,-16,18,6,1,-4,2,-1,0
-10,12,22,-1,-16,18,6,0,-3,2,-1,0
-11,10,21,0,-15,17,5,0,-3,2,-1,0
-8,12,20,-2,-13,17,6,1,-4,3,0,0
-7,13,21,-4,-13,17,6,1,-3,3,0,1
-7,16,23,-5,-15,20,8,0,0,4,1,2
-6,19,25,-7,-16,22,10,-1,2,5,2,2
-6,17,24,-6,-15,20,9,-1,0,4,1,1
-6,13,19,-4,-13,16,8,1,-4,2,-1,0
-9,8,17,0,-13,13,8,0,-4,2,-1,0
-12,8,19,2,-15,14,8,-1,-2,2,0,0
-12,10,22,1,-17,16,7,-3,-1,3,0,1
-12,10,23,1,-17,17,6,-3,-2,2,1,1
-10,11,22,0,-16,16,4,-1,-4,2,0,0
-9,11,22,-1,-16,16,3,-1,-4,2,0,0
-10,12,23,-1,-17,17,3,-2,-3,4,1,0
-11,15,26,-2,-19,20,4,0,-1,6,3,2
-12,16,28,-1,-21,22,5,2,0,8,4,3
-13,16,29,-1,-22,23,5,3,1,9,6,4
-8,20,28,-5,-18,25,5,2,3,9,7,5
-2,24,27,-10,-14,26,5,2,4,10,7,6
-6,22,28,-8,-17,26,4,2,3,10,7,6
-8,20,29,-6,-18,24,3,1,3,9,7,6
0,24,25,-12,-13,24,3,1,3,10,7,7
3,25,22,-14,-10,23,2,1,3,10,7,7
-2,20,22,-9,-13,21,0,0,2,8,6,6
-9,14,23,-2,-17,19,-1,-1,0,7,4,5
-14,10,24,2,-19,18,-2,-4,-1,5,3,4
-14,9,23,2,-18,17,-3,-6,-1,4,2,3
-9,11,21,-1,-15,16,-4,-7,0,4,2,3
-6,13,21,-4,-14,17,-4,-7,0,4,3,3
-5,16,22,-6,-13,19,-4,-4,0,6,4,5
-3,20,24,-9,-13,21,-4,-1,1,7,6,7
0,22,24,-11,-12,23,-5,-1,3,8,8,9
1,23,22,-12,-10,23,-7,-4,4,8,8,8
0,21,20,-11,-10,21,-8,-5,1,7,7,7
0,21,20,-11,-9,21,-8,-4,0,6,6,7
4,24,20,-14,-7,23,-7,-2,0,7,7,7
4,25,21,-15,-8,23,-7,-2,-1,7,7,8
0,24,24,-12,-11,23,-7,-3,-1,6,6,8
1,26,24,-14,-11,24,-7,-2,0,7,7,9
1,25,24,-13,-11,24,-7,-2,0,8,7,9
0,23,23,-11,-12,23,-7,-2,0,8,7,9
0,22,22,-11,-11,23,-6,-1,-1,7,7,9
0,22,22,-11,-10,23,-6,-1,-2,6,7,9
3,24,20,-14,-7,23,-5,-1,-3,5,6,8
7,25,18,-17,-4,22,-5,-1,-3,5,5,8
8,25,17,-17,-4,21,-4,-1,-3,5,5,8
9,27,18,-18,-4,22,-3,0,-1,5,6,8
9,27,18,-18,-4,23,-3,-1,0,5,6,8
5,25,20,-15,-8,23,-3,-2,0,5,6,8
2,25,23,-13,-10,25,-2,0,0,6,7,9
3,25,22,-14,-9,24,-2,0,0,6,7,9
1,19,18,-10,-8,19,-3,0,-2,4,4,6
-3,11,14,-4,-8,12,-3,-2,-3,1,2,3
-4,8,13,-2,-9,10,-1,-3,-3,1,1,2
-6,10,17,-3,-12,13,0,-3,-2,2,2,3
-8,13,23,-3,-16,18,1,-1,-3,3,3,5
-8,15,23,-3,-15,19,2,1,-4,3,2,5
-3,14,18,-5,-10,16,1,1,-4,2,1,3
0,13,14,-6,-6,14,1,0,-4,2,1,3
1,13,11,-7,-4,12,2,-1,-4,1,1,2
5,13,8,-9,-1,11,1,-3,-5,0,0,0
4,15,11,-10,-2,12,1,-4,-4,-1,-1,-1
0,15,16,-7,-8,15,3,-3,-2,0,0,0
-5,12,19,-4,-12,15,2,-1,-3,0,0,0
-8,7,17,0,-12,12,0,-1,-7,-2,-3,-2
-11,4,15,3,-13,10,0,-2,-8,-3,-4,-3
-13,5,18,4,-15,12,2,-1,-6,-1,-2,-1
-11,9,20,1,-15,15,4,0,-3,0,0,1
-7,13,20,-3,-13,16,5,0,-2,1,0,1
-7,13,20,-3,-13,16,5,0,-1,1,0,1
-9,11,21,-2,-15,16,4,0,-1,1,0,1
-8,9,18,-1,-13,14,3,0,-3,1,0,0
-6,8,14,-1,-10,11,2,0,-5,0,-1,-1
-3,8,11,-2,-7,10,2,-1,-6,-1,-2,-2
-3,9,11,-3,-7,10,3,-1,-6,-1,-2,-2
-5,10,14,-2,-9,12,5,0,-5,0,0,-1
-8,8,16,0,-12,12,5,0,-5,0,0,0
-10,5,15,2,-12,10,4,0,-7,-2,-2,-1
-9,3,13,1,-11,8,3,0,-7,-3,-3,-2
-7,4,12,0,-10,8,3,1,-5,-2,-3,-1
-7,4,12,1,-10,8,4,1,-5,-2,-3,-1
-11,1,12,4,-11,7,3,0,-5,-2,-4,-2
-15,-2,13,9,-14,6,3,-2,-6,-3,-5,-3
-15,-1,13,8,-14,6,3,-3,-7,-3,-4,-3
-14,1,14,6,-14,8,4,-3,-7,-2,-3,-2
-16,1,18,7,-17,10,5,-1,-6,-1,-2,-2
-17,1,19,7,-18,10,4,0,-6,-1,-2,-2
-14,1,16,6,-15,8,2,0,-7,-3,-4,-4
-15,-1,14,7,-14,7,1,-1,-8,-4,-5,-5
-17,-2,15,9,-16,7,1,-1,-7,-3,-4,-4
-14,0,14,7,-14,7,2,-1,-6,-3,-4,-4
-9,1,10,4,-9,6,2,-2,-6,-3,-4,-4
-8,1,9,3,-8,5,1,-3,-6,-3,-5,-5
-10,-1,9,5,-10,4,1,-4,-7,-4,-6,-5
-11,-3,9,6,-10,4,0,-4,-8,-5,-7,-6
-10,-2,9,6,-10,3,0,-4,-8,-5,-8,-7
-10,-1,9,5,-10,4,0,-3,-9,-5,-8,-6
-11,0,10,6,-10,5,1,-2,-10,-5,-7,-6
-11,0,11,6,-11,5,2,-2,-10,-5,-7,-6
-11,0,11,6,-11,6,3,-1,-9,-5,-6,-5
-12,1,12,5,-11,7,4,-1,-7,-4,-5,-4
-10,1,12,4,-10,7,6,0,-5,-3,-4,-4
-5,2,9,0,-7,6,9,2,-2,-1,-3,-3
-5,1,7,1,-6,5,12,3,0,-2,-4,-5
-12,-4,9,7,-11,3,12,2,0,-4,-7,-8
-18,-7,11,12,-15,3,11,0,0,-6,-10,-10
-21,-7,14,14,-18,4,10,0,2,-5,-9,-10
-21,-5,15,13,-18,5,10,1,5,-3,-7,-8
-14,0,13,7,-13,6,10,5,8,0,-4,-6
-5,6,12,-1,-8,9,10,7,11,3,0,-2
-2,8,12,-4,-6,10,7,7,12,6,4,2
0,8,10,-5,-5,9,1,3,10,8,9,5
9,15,7,-13,1,11,-5,-1,7,12,14,11
22,25,4,-24,9,15,-11,-4,5,17,21,18
35,34,0,-35,17,17,-19,-9,3,21,28,24
44,39,-5,-41,24,17,-29,-16,-2,24,33,29
46,43,-3,-44,25,20,-40,-27,-12,26,38,34
49,50,1,-49,24,25,-47,-36,-28,27,39,37
55,52,-2,-54,28,24,-49,-41,-51,18,33,35
53,40,-11,-48,32,14,-49,-42,-79,0,17,25
41,17,-23,-31,32,-3,-47,-44,-109,-26,-5,9
35,-3,-37,-17,36,-20,-46,-45,-136,-50,-28,-8
39,-13,-52,-14,45,-32,-45,-47,-158,-68,-47,-22
47,-16,-64,-15,56,-40,-43,-49,-174,-81,-60,-31
53,-19,-72,-17,63,-46,-41,-48,-183,-88,-68,-37
55,-23,-77,-16,66,-50,-40,-48,-187,-93,-73,-42
51,-30,-81,-10,66,-55,-41,-49,-185,-95,-77,-46
43,-36,-78,-4,60,-57,-43,-51,-179,-96,-79,-50
33,-39,-71,2,51,-55,-43,-51,-169,-94,-80,-52
22,-40,-62,8,42,-51,-41,-49,-156,-89,-78,-52
15,-39,-54,11,35,-46,-38,-45,-142,-84,-74,-50
13,-34,-47,9,30,-40,-35,-41,-126,-76,-68,-47
17,-26,-43,4,30,-34,-31,-36,-110,-69,-62,-43
20,-21,-41,0,31,-31,-29,-33,-97,-63,-57,-40
20,-18,-37,0,28,-27,-25,-30,-86,-56,-52,-37
19,-15,-33,-2,26,-24,-22,-27,-75,-50,-47,-34
23,-11,-32,-6,27,-21,-20,-25,-66,-46,-43,-31
22,-10,-31,-7,27,-20,-19,-22,-59,-42,-40,-29
16,-14,-29,-1,22,-21,-19,-22,-53,-39,-38,-29
9,-16,-26,3,18,-21,-17,-21,-47,-36,-36,-28
8,-13,-22,2,15,-17,-13,-17,-40,-31,-31,-24
10,-7,-18,-2,14,-12,-9,-13,-31,-25,-25,-20
9,-3,-12,-3,11,-8,-6,-13,-23,-19,-20,-16
2,-5,-6,1,4,-6,-3,-12,-18,-16,-17,-14
-6,-9,-1,7,-2,-5,-2,-10,-18,-14,-15,-14
-10,-8,2,8,-5,-3,0,-6,-17,-12,-14,-13
-8,-4,4,5,-5,0,2,-3,-14,-10,-11,-10
-7,-4,3,5,-5,0,3,-2,-12,-9,-10,-9
-10,-9,0,9,-5,-4,0,-4,-12,-11,-12,-11
-10,-11,-1,11,-4,-6,-1,-5,-11,-12,-13,-13
-8,-9,0,9,-4,-4,-1,-4,-8,-11,-12,-12
-9,-7,2,8,-5,-3,0,-4,-6,-9,-10,-10
-10,-7,4,9,-6,-2,0,-4,-5,-8,-10,-9
-11,-7,5,9,-7,-1,0,-4,-5,-8,-10,-9
-12,-7,6,9,-9,0,0,-2,-6,-7,-10,-9
-13,-6,7,9,-10,1,1,-2,-4,-6,-9,-8
-11,-4,7,7,-9,2,2,-2,-1,-5,-8,-8
-8,-3,5,6,-6,1,2,-1,1,-5,-8,-8
-7,-4,3,6,-5,-1,2,1,0,-5,-8,-8
-10,-7,4,8,-7,-1,0,0,0,-6,-9,-10
-16,-10,6,13,-11,-2,0,-1,-1,-7,-9,-10
-18,-12,6,14,-11,-3,1,-2,-1,-7,-9,-10
-15,-11,4,12,-9,-4,2,-2,-1,-6,-8,-10
-10,-6,4,7,-7,-1,2,-2,1,-6,-8,-9
-7,-1,5,3,-6,2,1,-3,2,-5,-7,-9
-9,-2,7,5,-7,2,1,-2,1,-6,-8,-9
-12,-5,7,9,-9,1,0,-2,0,-7,-9,-10
-14,-7,7,11,-10,0,-1,-3,-1,-7,-9,-11
-15,-7,8,12,-12,1,-1,-3,-2,-7,-9,-11
-11,-4,8,7,-10,2,0,-1,-2,-6,-8,-10
-5,0,6,1,-6,3,0,0,-1,-5,-7,-9
-8,-2,6,4,-8,2,0,0,0,-5,-8,-9
-18,-9,9,13,-14,0,0,-1,0,-6,-9,-9
-24,-13,10,18,-17,-1,-1,-1,0,-7,-9,-10
-21,-12,8,17,-15,-1,-1,-2,0,-7,-9,-10
-17,-10,6,14,-12,-2,-1,-3,1,-7,-8,-10
-16,-10,6,13,-11,-2,0,-3,2,-6,-8,-10
-15,-9,7,12,-11,-1,0,-3,3,-6,-7,-9
-15,-8,7,11,-11,-1,0,-3,4,-6,-8,-9
-16,-8,8,11,-12,0,0,-3,6,-6,-8,-10
-16,-7,9,11,-13,1,0,-1,7,-5,-8,-9
-17,-6,10,11,-13,2,1,1,8,-3,-6,-8
-13,-2,10,8,-11,4,2,3,9,-2,-4,-6
-11,0,11,5,-10,5,3,5,9,-1,-3,-5
-15,-2,13,9,-13,5,2,4,9,-2,-4,-7
-18,-6,13,12,-15,3,0,1,7,-5,-7,-10
-17,-7,11,12,-14,2,-1,0,7,-6,-8,-11
-16,-5,11,10,-13,3,0,0,10,-4,-7,-10
-15,-5,11,9,-13,3,1,0,13,-3,-6,-9
-16,-5,11,11,-14,2,0,1,13,-3,-6,-9
-19,-5,13,12,-16,3,0,2,14,-3,-6,-9
-20,-4,16,13,-18,6,1,3,16,-2,-4,-7
-18,-2,17,10,-18,7,1,4,16,-1,-3,-6
-15,0,17,7,-16,8,1,5,19,0,-3,-6
-15,0,17,6,-16,9,0,3,22,0,-3,-7
-15,0,17,6,-16,8,0,2,23,0,-4,-7
-15,-1,15,7,-15,7,0,2,22,-1,-4,-8
-16,-1,14,8,-14,6,0,5,21,-1,-4,-7
-14,0,14,6,-14,7,1,6,22,0,-3,-6
-11,4,15,3,-13,10,2,8,25,1,-1,-4
-7,10,17,-1,-12,13,3,10,28,4,1,-2
-4,12,17,-4,-11,15,3,11,31,5,2,-1
-7,9,17,-1,-12,13,2,11,33,4,1,-1
-10,5,17,2,-13,11,0,9,33,3,0,-2
-11,7,19,1,-14,13,0,9,34,3,0,-3
-13,9,22,1,-17,16,0,9,35,3,0,-3
-17,10,26,3,-21,18,0,10,37,5,1,-3
-16,13,29,1,-22,21,1,12,40,7,3,-1
-10,19,29,-5,-20,24,3,13,43,9,6,0
-6,20,28,-7,-18,24,2,12,43,9,6,0
-7,18,27,-5,-18,22,0,10,43,9,5,-1
-8,18,28,-5,-18,23,0,10,45,9,5,0
-11,17,29,-4,-20,23,0,10,46,10,6,0
-15,14,29,0,-22,22,-2,9,46,9,6,1
-14,16,30,-2,-21,23,-3,9,47,10,8,2
-9,21,29,-6,-18,25,-3,10,48,12,10,3
-6,23,29,-9,-17,26,-5,10,50,13,11,4
-5,25,31,-10,-17,27,-6,10,51,14,12,4
-4,28,33,-12,-18,30,-6,11,52,15,13,6
0,34,34,-17,-16,34,-4,13,54,18,16,8
4,39,35,-22,-15,37,-3,14,55,20,18,11
1,36,34,-19,-16,35,-5,13,54,20,17,11
-2,31,33,-15,-17,32,-7,11,52,18,16,9
1,33,32,-17,-15,32,-5,12,53,19,17,11
5,35,31,-20,-13,33,-2,14,56,22,20,13
2,31,30,-16,-14,30,-4,11,54,21,19,13
-4,25,30,-10,-18,27,-8,6,49,18,15,9
-9,21,31,-6,-21,26,-10,3,45,15,12,6
-9,22,32,-6,-21,27,-10,4,42,14,12,6
-4,26,30,-11,-17,28,-8,6,42,15,13,7
1,30,29,-16,-14,30,-7,7,43,16,15,9
1,30,29,-16,-14,30,-7,6,42,16,15,9
0,30,31,-15,-15,30,-7,5,42,16,15,9
2,32,31,-17,-14,31,-7,5,40,17,15,9
2,30,29,-16,-13,29,-9,3,37,16,14,8
0,27,28,-14,-14,28,-9,2,35,15,13,8
-2,29,32,-14,-17,31,-7,3,35,17,15,9
-3,29,33,-13,-18,31,-7,3,34,17,15,9
-1,26,27,-13,-14,27,-9,0,30,14,12,6
4,27,23,-16,-9,25,-9,-2,28,13,10,4
7,33,25,-20,-8,29,-8,-1,26,14,11,5
6,35,29,-20,-10,32,-8,0,24,14,11,6
2,32,30,-16,-13,30,-9,0,21,13,10,5
0,27,27,-13,-13,26,-10,0,19,12,8,4
0,23,24,-12,-12,24,-10,-1,17,10,7,3
0,22,23,-11,-11,23,-10,-2,17,10,7,3
1,23,22,-13,-10,24,-8,-3,16,10,7,4
3,25,22,-14,-9,24,-6,-3,15,11,8,4
5,27,22,-16,-8,25,-5,-2,13,11,8,5
6,28,22,-17,-7,25,-5,-3,10,10,8,4
4,25,22,-14,-8,23,-5,-5,8,8,6,2
0,19,21,-9,-10,20,-6,-7,5,6,4,0
-5,13,20,-4,-12,17,-7,-7,1,4,1,-2
-7,10,19,-2,-12,15,-7,-6,-2,2,0,-3
-9,9,19,0,-13,14,-6,-5,-3,2,0,-3
-10,8,18,0,-13,14,-6,-5,-4,2,-1,-4
-10,7,18,1,-13,13,-7,-7,-4,1,-3,-6
-10,8,18,1,-13,13,-7,-7,-4,0,-4,-7
-8,10,18,-1,-12,14,-6,-7,-3,0,-3,-7
-5,13,18,-4,-11,15,-5,-7,-3,1,-3,-6
-3,13,17,-6,-9,14,-5,-8,-5,1,-3,-7
-2,13,16,-6,-8,14,-5,-7,-7,0,-4,-7
0,15,16,-8,-8,16,-4,-7,-4,1,-2,-6
1,17,16,-10,-7,17,-3,-7,-3,2,-1,-5
0,16,15,-9,-7,16,-4,-6,-5,0,-2,-5
0,16,15,-8,-7,15,-4,-5,-7,0,-3,-5
0,15,16,-7,-8,15,-4,-4,-7,0,-3,-5
-4,13,18,-4,-11,15,-4,-4,-7,0,-4,-6
-9,8,18,0,-14,14,-5,-6,-7,-1,-6,-7
-10,6,16,1,-13,12,-6,-9,-10,-3,-8,-9
-8,7,15,0,-12,12,-6,-9,-11,-3,-7,-10
-5,11,16,-3,-11,14,-3,-5,-10,-1,-5,-8
-2,14,16,-6,-9,15,-2,-3,-9,0,-3,-6
-2,12,14,-4,-8,13,-4,-4,-11,-2,-4,-8
-5,8,14,-2,-9,11,-5,-5,-12,-3,-6,-9
-6,8,15,-1,-11,12,-4,-5,-12,-3,-5,-8
-4,10,15,-3,-10,12,-2,-5,-10,-2,-5,-8
-2,10,14,-4,-8,12,-2,-5,-10,-3,-6,-8
-4,8,12,-2,-8,10,-2,-7,-10,-3,-7,-10
-5,5,10,-1,-7,8,-3,-8,-11,-4,-8,-10
-4,4,8,0,-6,6,-5,-9,-12,-5,-9,-11
-5,2,8,1,-7,5,-8,-11,-16,-8,-12,-14
-7,1,8,3,-8,5,-10,-13,-18,-10,-14,-16
-7,2,9,2,-8,6,-10,-13,-18,-10,-14,-16
-4,5,9,0,-6,6,-7,-12,-14,-8,-12,-14
0,8,7,-4,-3,7,-4,-11,-8,-5,-9,-12
1,10,9,-6,-3,8,-2,-9,-7,-4,-8,-11
-5,9,15,-3,-9,12,-2,-7,-10,-5,-9,-11
-12,9,20,1,-16,15,-2,-7,-13,-6,-9,-11
-11,10,21,0,-16,16,-2,-7,-14,-6,-9,-11
-6,14,19,-4,-12,17,-2,-6,-13,-5,-8,-10
-4,14,18,-5,-11,17,-2,-5,-14,-5,-8,-10
-6,10,16,-2,-11,14,-5,-7,-16,-7,-10,-12
-5,8,14,-2,-9,12,-6,-8,-17,-9,-12,-14
-4,9,14,-3,-8,11,-6,-9,-17,-9,-12,-14
-6,7,14,-1,-9,10,-6,-11,-17,-10,-13,-15
-8,5,14,1,-10,9,-6,-11,-18,-10,-13,-16
-9,5,14,1,-11,10,-4,-11,-17,-9,-12,-15
-10,5,15,2,-13,10,-4,-10,-17,-9,-11,-15
-12,4,16,4,-14,10,-4,-10,-17,-9,-11,-14
-9,6,15,1,-12,11,-3,-9,-16,-9,-11,-13
-6,9,15,-2,-10,12,-2,-8,-14,-8,-10,-12
-8,7,16,0,-11,12,-2,-8,-14,-9,-10,-12
-10,5,16,1,-12,11,-3,-9,-15,-9,-11,-12
-7,7,16,0,-11,11,-2,-8,-15,-8,-10,-11
-6,9,15,-2,-10,12,-1,-8,-14,-7,-10,-11
-7,9,16,-1,-11,12,-1,-8,-14,-7,-11,-11
-10,7,17,1,-13,12,-1,-9,-13,-7,-11,-11
-12,5,17,3,-14,11,-2,-10,-13,-8,-11,-12
-11,4,16,3,-13,10,-3,-10,-13,-8,-11,-13
-7,6,15,0,-11,11,-3,-10,-12,-8,-10,-12
-4,10,16,-4,-10,13,-2,-9,-9,-6,-8,-11
-2,13,16,-6,-9,14,-3,-8,-8,-6,-7,-10
-1,14,15,-7,-8,15,-3,-8,-7,-5,-7,-9
-1,15,15,-7,-8,15,-4,-8,-7,-5,-6,-9
-1,15,16,-7,-8,15,-4,-8,-7,-5,-6,-9
-1,16,17,-7,-9,16,-3,-7,-6,-4,-6,-8
0,17,17,-8,-8,17,-3,-6,-5,-4,-6,-7
-1,15,17,-7,-9,16,-3,-7,-6,-4,-7,-8
-3,13,16,-6,-9,15,-3,-7,-6,-5,-7,-8
-3,13,16,-6,-9,14,-3,-7,-5,-4,-6,-7
-3,13,16,-5,-10,14,-3,-8,-4,-4,-5,-7
-5,12,16,-3,-10,14,-4,-9,-5,-4,-6,-7
-5,11,15,-2,-10,13,-4,-8,-6,-5,-6,-8
-5,12,17,-3,-11,15,-4,-7,-6,-3,-5,-7
-5,14,19,-4,-11,17,-4,-6,-5,-2,-4,-6
-2,15,18,-7,-10,17,-5,-8,-4,-2,-4,-6
4,20,16,-13,-6,19,-5,-8,-3,-1,-3,-5
10,26,16,-19,-2,21,-4,-6,-1,0,-1,-3
12,26,14,-20,-1,20,-5,-6,-2,0,-1,-3
8,22,13,-15,-2,17,-7,-8,-4,-1,-3,-5
0,15,14,-8,-7,14,-9,-10,-5,-3,-4,-6
-5,10,14,-2,-10,12,-10,-11,-6,-4,-5,-7
-6,8,14,-1,-10,11,-11,-11,-7,-4,-6,-8
-4,8,13,-3,-8,11,-12,-11,-7,-5,-6,-8
0,11,12,-7,-5,12,-12,-10,-6,-5,-6,-7
1,14,13,-9,-5,14,-12,-10,-5,-4,-4,-6
0,15,16,-8,-7,15,-13,-10,-4,-3,-3,-4
1,16,15,-9,-6,15,-14,-11,-4,-3,-2,-4
4,15,11,-10,-3,13,-14,-12,-6,-4,-3,-5
8,15,7,-11,0,11,-15,-13,-7,-4,-3,-5
14,17,2,-15,6,10,-15,-13,-7,-4,-3,-4
18,19,0,-19,9,10,-14,-12,-5,-3,-2,-3
19,20,1,-20,9,11,-12,-12,-3,-2,-2,-2
18,20,1,-19,8,11,-12,-11,-5,-2,-2,-2
16,18,2,-18,7,10,-13,-11,-8,-3,-3,-3
14,19,5,-17,4,12,-12,-9,-9,-3,-2,-3
12,20,8,-17,2,14,-10,-7,-8,-2,0,-1
13,21,8,-17,2,14,-10,-7,-7,-2,0,0
14,20,5,-17,5,13,-11,-8,-7,-3,0,-1
16,19,2,-17,8,11,-12,-9,-8,-4,-2,-2
19,20,1,-20,9,11,-10,-7,-7,-3,-1,-1
20,22,2,-22,9,12,-9,-6,-6,-2,-1,-1
20,21,2,-21,8,11,-10,-7,-7,-3,-2,-2
20,20,2,-21,9,11,-10,-7,-8,-4,-3,-2
19,19,1,-19,8,10,-9,-7,-7,-5,-3,-2
14,15,1,-14,6,9,-9,-7,-7,-5,-3,-3
7,9,1,-8,3,6,-9,-9,-9,-7,-4,-4
3,3,0,-2,2,2,-11,-10,-10,-9,-6,-7
0,1,0,0,1,1,-10,-11,-9,-9,-7,-8
-4,0,4,1,-3,2,-8,-10,-6,-8,-7,-8
-5,0,6,2,-5,3,-7,-7,-6,-7,-6,-7
-1,0,3,0,-2,1,-6,-5,-6,-6,-5,-6
3,1,0,-3,2,0,-5,-6,-6,-6,-5,-5
2,1,-1,-2,1,0,-4,-7,-5,-5,-4,-5
-1,0,0,0,-1,0,-3,-8,-6,-6,-5,-5
-2,2,2,0,-2,2,-3,-8,-7,-7,-6,-6
-1,4,3,-1,-2,4,-1,-6,-6,-6,-5,-6
1,5,2,-3,0,4,1,-4,-6,-6,-5,-6
4,5,1,-5,2,3,1,-3,-7,-7,-6,-7
5,4,0,-5,3,1,0,-3,-7,-8,-8,-9
4,3,0,-5,3,1,0,-2,-6,-8,-8,-10
2,2,0,-3,1,1,1,-2,-4,-7,-7,-9
-4,-5,-1,4,-1,-3,0,-4,-4,-8,-8,-10
-6,-10,-3,8,-1,-6,0,-5,-6,-8,-9,-11
-3,-5,-2,4,0,-3,0,-3,-8,-8,-9,-11
-3,-1,1,2,-1,0,-1,-2,-10,-8,-10,-12
-4,0,4,2,-4,1,-1,-2,-9,-9,-11,-12
-4,0,5,1,-4,2,0,-2,-7,-8,-9,-11
-5,-2,3,3,-4,0,0,-4,-7,-9,-9,-11
-6,-4,2,4,-4,-1,0,-5,-7,-10,-9,-11
-2,0,2,1,-3,1,2,-3,-6,-8,-7,-9
0,2,2,0,-2,3,4,-1,-5,-6,-5,-7
-7,-2,3,5,-5,1,4,-2,-5,-7,-6,-8
-12,-6,4,9,-8,-1,3,-5,-5,-7,-7,-9
-10,-7,2,8,-6,-2,2,-6,-6,-8,-8,-10
-8,-8,0,8,-3,-4,0,-7,-8,-10,-10,-12
-4,-8,-2,6,-1,-5,0,-6,-7,-10,-10,-12
-4,-6,0,4,-1,-3,2,-6,-3,-8,-9,-10
-4,-4,1,4,-3,-1,4,-6,-1,-7,-7,-9
-2,-3,0,2,-1,-1,3,-5,-5,-7,-8,-10
-1,-5,-4,3,2,-4,0,-4,-10,-10,-9,-12
-5,-7,-4,6,0,-5,0,-3,-12,-11,-10,-12
-7,-7,0,6,-3,-3,1,-3,-11,-9,-8,-10
-7,-7,0,6,-2,-3,1,-3,-9,-9,-8,-10
-5,-8,-2,6,-1,-5,1,-4,-9,-9,-9,-11
-3,-8,-3,5,0,-6,0,-5,-9,-10,-10,-12
-2,-8,-5,4,1,-6,0,-5,-10,-10,-10,-12
-1,-7,-6,3,2,-6,1,-4,-11,-10,-10,-12
0,-4,-4,2,2,-4,3,-1,-9,-8,-8,-10
-2,-2,-2,2,0,-2,4,0,-8,-7,-7,-9
-3,-5,-3,4,0,-4,2,-3,-9,-8,-9,-11
-3,-7,-5,5,1,-7,0,-6,-9,-9,-10,-12
-2,-8,-7,5,2,-8,-1,-7,-9,-9,-11,-13
0,-7,-7,3,3,-8,-1,-7,-8,-9,-11,-13
0,-6,-5,3,2,-6,0,-6,-7,-9,-10,-12
-7,-7,0,7,-3,-4,1,-4,-6,-7,-9,-11
-13,-9,4,11,-8,-3,3,-2,-6,-6,-8,-10
-13,-8,3,10,-7,-3,4,-1,-5,-6,-8,-10
-8,-8,-1,8,-3,-5,4,0,-5,-7,-10,-12
-3,-7,-6,5,2,-6,4,0,-3,-8,-11,-13
0,-7,-7,3,4,-7,6,0,0,-8,-12,-15
-1,-8,-6,4,3,-7,7,0,2,-8,-13,-16
-1,-9,-6,5,2,-7,8,0,3,-8,-12,-16
-3,-10,-5,6,1,-7,9,2,4,-7,-11,-15
-7,-11,-4,8,0,-8,10,2,6,-6,-10,-15
-5,-10,-5,7,0,-8,10,2,9,-4,-7,-13
0,-5,-7,2,4,-6,9,2,10,-1,-3,-10
5,0,-7,-2,7,-4,6,1,8,3,2,-4
7,1,-6,-4,7,-3,0,-2,2,6,8,1
11,5,-5,-8,8,0,-8,-7,-4,10,14,7
21,14,-6,-18,14,3,-17,-12,-8,14,21,14
32,22,-9,-27,21,6,-25,-17,-12,18,29,21
39,28,-10,-34,25,8,-34,-22,-18,24,37,28
46,35,-11,-41,28,12,-42,-30,-27,28,43,34
50,39,-12,-45,32,13,-47,-38,-44,24,41,35
51,36,-17,-44,35,9,-51,-43,-66,11,31,30
52,25,-28,-39,41,-1,-52,-44,-90,-9,13,19
55,14,-41,-34,48,-13,-52,-43,-112,-31,-6,7
55,1,-53,-28,54,-26,-50,-43,-134,-51,-26,-7
51,-15,-65,-18,58,-40,-51,-46,-155,-71,-47,-22
47,-28,-74,-10,60,-51,-51,-49,-170,-87,-64,-35
49,-32,-81,-9,64,-57,-50,-52,-178,-95,-73,-43
52,-33,-87,-10,69,-60,-50,-52,-180,-98,-77,-47
53,-34,-88,-9,70,-61,-49,-50,-175,-97,-78,-48
47,-33,-82,-7,64,-57,-46,-45,-162,-92,-75,-46
41,-31,-73,-5,57,-52,-42,-41,-147,-85,-70,-44
41,-28,-70,-6,55,-49,-39,-37,-133,-79,-67,-42
43,-26,-69,-9,56,-48,-36,-34,-121,-74,-64,-42
41,-26,-67,-8,54,-47,-33,-31,-110,-69,-62,-42
35,-28,-64,-4,49,-46,-30,-29,-99,-65,-59,-41
26,-31,-58,2,42,-44,-27,-27,-88,-60,-56,-41
19,-32,-53,6,36,-42,-22,-23,-76,-53,-51,-38
16,-31,-49,7,33,-40,-16,-18,-65,-46,-46,-35
15,-29,-46,7,31,-37,-13,-15,-57,-41,-42,-33
18,-24,-43,2,31,-33,-11,-13,-50,-36,-37,-30
20,-21,-40,0,30,-31,-10,-12,-43,-32,-34,-28
14,-27,-40,5,27,-33,-11,-13,-39,-31,-33,-28
10,-28,-39,8,24,-33,-10,-13,-32,-28,-30,-26
14,-20,-34,3,24,-27,-6,-10,-24,-23,-25,-22
18,-11,-30,-3,24,-20,-3,-8,-19,-18,-21,-19
13,-11,-26,0,20,-18,-2,-7,-16,-16,-19,-18
5,-14,-21,5,13,-18,-2,-6,-14,-14,-18,-18
1,-15,-18,7,9,-17,0,-5,-11,-12,-16,-16
-1,-17,-16,9,6,-17,1,-3,-9,-10,-14,-15
-3,-17,-14,10,5,-16,2,-2,-7,-9,-12,-13
-2,-16,-14,9,5,-15,3,-2,-7,-9,-11,-13
-1,-14,-13,8,5,-14,3,-1,-6,-9,-11,-13
0,-10,-12,5,6,-11,5,1,-2,-7,-9,-11
1,-8,-11,3,7,-10,7,2,2,-4,-6,-9
2,-7,-11,3,7,-9,7,1,3,-3,-6,-9
1,-9,-11,4,7,-10,5,0,2,-4,-6,-9
-2,-10,-7,6,3,-9,5,0,3,-3,-6,-9
-4,-8,-3,6,0,-6,6,3,4,-2,-5,-7
0,-4,-2,2,1,-4,7,7,4,0,-5,-6
3,-2,-5,0,4,-4,8,7,3,-1,-6,-7
-1,-10,-9,6,4,-10,6,4,0,-4,-9,-11
-7,-17,-10,12,2,-14,5,2,-1,-6,-11,-13
-11,-17,-6,14,-2,-12,7,3,1,-3,-8,-10
-18,-18,-1,18,-8,-9,9,3,4,-1,-5,-8
-20,-17,2,19,-11,-7,10,4,5,0,-2,-5
-16,-14,2,15,-9,-6,11,6,6,1,0,-3
-10,-12,-2,10,-4,-8,11,5,7,0,-1,-3
-3,-10,-6,6,1,-9,10,3,6,0,-2,-4
0,-8,-8,4,4,-9,9,4,5,0,-2,-4
-1,-9,-9,5,5,-9,9,5,5,-1,-3,-5
-1,-10,-10,6,5,-10,9,5,6,-1,-3,-6
-1,-10,-10,6,5,-10,9,5,7,0,-3,-6
-1,-10,-9,6,4,-9,9,4,9,0,-3,-6
-2,-11,-8,6,3,-10,8,3,9,0,-3,-6
-4,-14,-8,9,2,-11,6,3,6,-2,-5,-7
-8,-15,-6,11,0,-11,6,4,6,-2,-5,-7
-8,-14,-4,11,-2,-10,8,6,7,-1,-3,-5
-6,-12,-5,9,0,-9,9,7,9,0,-2,-4
-4,-11,-8,8,2,-10,9,6,9,0,-3,-5
-2,-12,-10,8,4,-12,8,4,9,-2,-4,-7
2,-9,-11,4,7,-10,10,6,10,-1,-3,-7
4,-4,-9,1,6,-7,12,8,13,1,-1,-4
0,-7,-7,4,3,-7,12,7,13,1,-1,-4
-4,-13,-9,9,2,-11,8,5,10,-1,-3,-7
-4,-16,-11,10,3,-14,6,4,8,-2,-5,-8
-4,-17,-12,10,4,-14,6,5,9,-2,-4,-8
-7,-18,-11,12,2,-14,6,6,10,-2,-4,-7
-9,-17,-8,13,0,-12,7,7,13,-1,-3,-6
-10,-15,-6,12,-1,-10,9,8,16,0,-1,-4
-8,-13,-5,10,-1,-9,9,8,18,2,0,-3
-6,-12,-6,9,0,-10,9,8,19,2,0,-3
-6,-13,-6,9,0,-10,8,8,19,1,-1,-4
-6,-13,-5,9,0,-9,9,10,20,2,0,-3
-8,-12,-2,10,-2,-7,12,12,23,3,1,-1
-9,-12,-2,10,-2,-7,13,12,24,4,1,-1
-5,-10,-5,8,0,-8,12,12,25,4,1,-2
-4,-10,-7,7,2,-8,11,12,25,3,1,-3
-5,-12,-8,9,2,-10,10,12,25,3,0,-3
-6,-13,-7,10,1,-10,9,13,25,3,0,-3
-7,-12,-5,10,0,-9,10,15,27,5,2,-1
-8,-11,-3,10,-2,-7,11,15,29,5,3,0
-6,-10,-3,9,-1,-7,11,15,31,5,2,0
-7,-11,-4,9,0,-8,11,15,33,5,2,0
-10,-15,-6,13,-1,-10,11,16,36,5,2,-1
-10,-18,-8,14,0,-12,10,16,38,5,2,-1
-8,-16,-9,12,1,-12,9,16,38,5,2,-1
-4,-11,-7,7,1,-9,9,17,38,6,3,0
-2,-7,-4,4,1,-6,10,18,40,7,4,1
-3,-6,-2,4,0,-4,10,19,42,8,6,2
-2,-5,-2,4,0,-4,10,21,44,9,6,3
-1,-4,-3,3,1,-4,10,21,45,10,7,3
-3,-5,-3,4,0,-4,9,21,46,10,7,3
-4,-6,-1,5,-1,-3,9,21,48,11,8,4
-4,-4,0,4,-1,-1,10,21,51,13,9,5
-4,-2,2,3,-2,0,10,21,55,14,10,6
-5,-2,3,3,-3,0,10,22,56,15,11,7
-4,-1,2,3,-3,0,9,22,57,15,11,7
-1,0,1,1,0,0,8,22,57,16,12,8
1,0,0,0,1,0,8,22,57,17,13,9
1,1,1,-1,1,1,8,23,58,18,15,10
1,2,1,-1,0,2,8,23,58,18,16,11
1,2,1,-1,0,2,7,23,58,19,17,12
2,5,2,-3,0,4,7,23,60,20,18,13
4,8,4,-6,0,6,7,23,62,22,20,15
4,9,5,-6,0,6,6,21,62,23,21,15
4,9,5,-6,0,6,5,20,61,23,21,15
5,11,6,-8,0,8,6,20,62,24,22,17
7,13,6,-10,1,9,6,19,62,25,23,18
7,14,7,-10,1,10,6,20,60,24,23,18
7,14,7,-10,0,10,6,22,58,24,23,19
8,14,5,-11,2,9,5,22,57,25,23,19
10,15,4,-12,3,9,5,23,56,25,23,19
11,16,4,-14,3,10,5,22,57,25,23,19
11,14,3,-12,4,8,4,20,56,24,23,19
7,7,0,-6,3,3,1,17,51,21,20,16
1,1,0,-1,0,1,0,16,46,19,19,15
-2,0,2,1,-2,1,1,17,44,19,19,15
-4,0,5,2,-4,3,2,16,44,20,20,16
-4,1,5,1,-3,3,3,14,44,20,20,16
1,3,1,-3,1,2,3,13,44,20,20,16
4,1,-3,-3,4,-1,3,13,41,19,18,15
6,0,-6,-3,6,-3,3,12,37,18,17,14
9,1,-8,-5,8,-4,2,10,33,17,16,13
5,-2,-7,-2,6,-5,0,7,30,15,14,11
-1,-6,-4,3,2,-5,0,5,28,14,13,10
-3,-5,-1,4,0,-3,0,6,25,13,13,10
-6,-4,2,5,-3,-1,0,7,21,12,12,9
-7,-3,4,5,-5,0,0,7,19,12,12,9
-5,-3,1,4,-3,-1,0,6,17,11,11,8
-2,-3,-1,3,0,-3,-1,5,15,10,10,7
-1,-3,-2,2,1,-3,0,5,14,9,9,7
1,-1,-3,0,2,-2,2,5,15,10,10,8
1,-1,-3,0,2,-2,5,5,17,11,11,8
0,-3,-4,1,2,-4,5,4,15,9,9,7
0,-6,-7,3,4,-7,5,4,12,7,7,4
-1,-7,-7,4,3,-7,6,5,10,7,6,3
-5,-8,-3,6,0,-6,8,6,11,7,6,4
-9,-11,-2,10,-3,-7,7,4,12,7,6,3
-10,-13,-3,12,-3,-8,6,2,11,6,5,2
-9,-13,-4,11,-2,-9,5,2,9,6,5,2
-5,-15,-9,10,2,-12,3,1,3,3,2,0
-2,-16,-14,9,6,-15,0,0,-3,0,-1,-2
-2,-17,-15,9,7,-16,-1,0,-7,-1,-3,-3
-5,-17,-12,11,4,-14,0,1,-6,0,-2,-2
-9,-17,-8,13,0,-13,3,4,-4,0,-1,-1
-11,-19,-8,15,-1,-14,5,5,-2,1,-1,0
-12,-24,-10,18,0,-18,5,4,-1,0,-1,0
-15,-28,-12,21,-1,-21,5,3,-2,0,-2,-2
-14,-26,-12,20,-1,-19,7,2,-2,0,-2,-1
-10,-18,-9,14,-1,-13,10,4,0,2,1,2
-7,-14,-7,10,0,-10,12,5,1,4,4,4
-8,-14,-6,11,0,-10,12,6,1,4,4,4
-15,-17,-2,16,-6,-9,10,5,0,3,2,2
-21,-20,0,20,-11,-9,8,3,-1,0,0,0
-22,-20,1,20,-12,-9,7,3,-1,0,0,0
-20,-18,1,19,-11,-8,9,4,2,2,2,1
-14,-17,-3,16,-6,-11,9,5,1,3,2,1
-8,-16,-9,12,0,-13,8,4,-4,1,0,0
-10,-18,-9,15,0,-14,6,2,-7,-1,-2,-2
-15,-23,-9,20,-3,-15,5,0,-8,-3,-5,-4
-14,-23,-9,19,-2,-16,5,0,-7,-3,-5,-4
-13,-21,-8,18,-2,-15,7,1,-5,-2,-5,-3
-15,-22,-6,19,-4,-14,7,2,-5,-2,-4,-3
-17,-23,-6,20,-5,-15,7,2,-6,-2,-5,-4
-17,-24,-7,20,-5,-16,7,2,-6,-2,-5,-5
-16,-23,-7,19,-4,-16,8,1,-5,-1,-4,-4
-15,-24,-9,20,-3,-17,7,0,-5,-2,-3,-4
-16,-25,-10,21,-3,-18,7,-1,-5,-2,-3,-4
-16,-26,-10,21,-2,-18,7,-2,-6,-3,-3,-4
-14,-26,-12,20,0,-19,6,-2,-7,-4,-5,-5
-14,-27,-14,20,0,-21,4,-2,-9,-5,-7,-7
-17,-30,-12,23,-2,-22,4,0,-10,-5,-7,-7
-18,-30,-11,24,-3,-21,6,1,-10,-5,-6,-6
-16,-25,-9,21,-3,-17,8,3,-8,-3,-5,-5
-17,-21,-4,19,-6,-13,10,5,-5,-1,-3,-3
-17,-22,-6,20,-6,-14,10,4,-5,-1,-5,-4
-14,-26,-12,20,-1,-19,8,2,-8,-4,-8,-6
-15,-28,-14,21,0,-21,6,0,-10,-6,-9,-8
-18,-28,-11,23,-3,-20,7,0,-9,-6,-8,-7
-19,-27,-8,23,-5,-18,7,1,-8,-4,-6,-6
-17,-26,-8,21,-4,-18,7,0,-8,-4,-5,-6
-17,-26,-9,21,-4,-18,7,0,-8,-4,-5,-5
-23,-27,-4,25,-9,-16,9,2,-6,-2,-4,-3
-30,-28,1,29,-16,-14,10,3,-4,-1,-3,-2
-29,-28,0,28,-15,-14,9,3,-5,-2,-3,-2
-22,-23,-2,22,-10,-13,9,4,-4,-1,-2,-2
-17,-17,-1,17,-7,-10,12,5,-2,0,0,0
-17,-17,0,16,-7,-9,13,4,-1,1,0,1
-16,-19,-2,17,-6,-11,13,2,-2,0,-1,-1
-13,-20,-6,16,-3,-13,12,0,-4,-2,-4,-3
-15,-24,-9,20,-3,-16,9,0,-7,-4,-6,-4
-21,-32,-11,27,-5,-21,6,-2,-10,-7,-8,-7
-26,-36,-10,32,-8,-23,5,-4,-10,-8,-9,-9
-26,-35,-8,31,-8,-21,5,-4,-8,-7,-9,-9
-22,-30,-8,26,-7,-19,5,-5,-5,-6,-8,-8
-21,-28,-7,25,-6,-18,6,-3,-3,-5,-8,-8
-20,-27,-6,23,-6,-17,7,-1,-3,-5,-7,-7
-17,-25,-7,21,-4,-16,7,0,-4,-4,-6,-7
-18,-24,-6,21,-5,-15,7,0,-5,-3,-5,-6
-19,-22,-3,21,-8,-13,7,2,-3,-1,-2,-3
-17,-20,-3,18,-6,-12,7,3,-2,0,-2,-1
-14,-18,-5,16,-4,-11,7,2,0,0,-2,0
-15,-18,-3,16,-6,-10,7,1,3,1,-1,0
-18,-19,-1,18,-8,-10,7,-1,4,1,-1,0
-18,-19,-1,18,-8,-10,7,-2,4,1,-2,-1
-16,-15,1,15,-8,-8,9,2,5,2,0,0
-12,-11,1,12,-6,-5,11,7,5,4,1,1
-6,-8,-2,7,-2,-5,11,8,5,4,1,2
-4,-7,-3,5,0,-5,10,8,5,4,2,2
-9,-10,-1,10,-4,-5,7,7,4,4,2,2
-13,-14,0,14,-6,-7,4,3,3,2,1,2
-12,-14,-2,13,-5,-8,3,1,3,2,0,2
-6,-8,-2,8,-2,-5,4,1,5,4,2,4
-11,-5,7,8,-9,1,8,4,10,9,6,7
-27,-9,18,19,-23,4,10,6,11,11,8,8
-29,-15,14,23,-22,0,6,2,7,8,5,5
-15,-15,-1,16,-7,-8,0,-4,1,3,0,0
-1,-12,-11,7,4,-11,-2,-7,0,1,-1,-1
9,-5,-14,-1,12,-9,-2,-4,1,2,0,1
11,-1,-13,-5,13,-7,-1,-1,2,3,1,3
1,-5,-7,2,5,-6,-3,-1,1,3,2,3
-8,-11,-3,9,-2,-7,-6,-3,0,2,2,3
-8,-13,-5,10,-1,-9,-8,-5,-1,1,1,2
-3,-11,-8,7,2,-9,-7,-3,1,2,3,4
-7,-12,-5,10,-1,-8,-3,1,4,5,6,6
-16,-15,1,16,-9,-6,-1,4,5,6,7,8
-12,-12,1,12,-7,-5,-2,3,4,6,6,7
0,-5,-5,2,2,-5,-3,2,2,4,4,5
7,-1,-8,-3,8,-5,-4,1,1,3,3,4
8,0,-8,-4,8,-4,-4,-1,1,2,3,4
6,-1,-7,-2,7,-4,-4,-3,0,2,3,4
4,-3,-8,0,6,-5,-4,-5,-1,2,2,3
8,-2,-10,-2,9,-5,-4,-6,-2,2,2,3
9,-1,-11,-3,10,-6,-3,-4,-3,1,2,3
5,-5,-10,0,7,-7,-3,-3,-4,1,2,3
3,-5,-8,1,5,-6,-3,-2,-3,1,3,4
4,0,-4,-1,4,-2,-1,-1,-1,3,6,7
5,3,-3,-4,5,0,0,0,1,4,7,9
6,1,-4,-4,6,-1,-1,0,1,3,6,8
-2,-6,-5,4,1,-5,-3,0,-1,1,3,6
-15,-16,-1,16,-7,-8,-4,-1,-2,0,2,4
-20,-19,0,19,-11,-8,-3,-2,-1,1,2,4
-14,-16,-1,15,-7,-8,0,-2,1,1,2,4
-15,-17,-1,16,-7,-8,2,0,4,1,2,4
-23,-21,2,22,-13,-9,4,2,4,1,1,3
-26,-23,2,25,-14,-11,4,3,1,0,0,2
-16,-20,-4,18,-5,-12,4,2,-2,-1,-1,1
-2,-15,-12,9,5,-14,3,1,-4,-1,-1,0
-3,-17,-14,10,6,-15,4,0,-3,-1,-1,0
-15,-23,-9,19,-3,-16,4,0,-2,-1,-1,0
-19,-23,-4,21,-8,-13,4,-1,-2,-1,-2,0
-19,-23,-3,21,-8,-13,3,-2,-5,-3,-4,-1
-26,-27,0,26,-13,-14,3,-1,-6,-4,-5,-3
-28,-27,2,27,-15,-13,6,0,-3,-2,-3,-1
-18,-23,-4,20,-6,-13,6,1,-2,-2,-1,0
-6,-19,-12,12,4,-15,5,-1,-2,-3,-3,-2
-2,-16,-14,10,6,-15,5,-1,-1,-3,-4,-2
-7,-17,-9,13,1,-12,7,2,0,-1,-3,-1
-16,-21,-4,19,-5,-13,7,3,0,-1,-3,-1
-20,-25,-5,23,-7,-15,6,2,-3,-3,-5,-3
-18,-27,-8,22,-5,-18,4,0,-4,-5,-7,-5
-16,-27,-11,21,-2,-19,3,-1,-4,-6,-7,-6
-15,-26,-11,20,-2,-18,3,-1,-3,-6,-7,-6
-15,-26,-10,20,-2,-17,4,-1,-3,-6,-6,-5
-17,-25,-8,21,-4,-16,5,0,-2,-5,-5,-4
-22,-26,-4,24,-9,-15,7,2,-2,-3,-3,-2
-25,-27,-2,26,-12,-15,8,4,-1,-2,-3,-2
-25,-27,-2,26,-12,-15,8,3,-1,-2,-3,-2
-23,-26,-3,24,-10,-15,7,1,0,-2,-3,-2
-20,-25,-5,22,-7,-16,5,-1,-1,-3,-4,-3
-18,-25,-6,21,-6,-16,4,-2,-2,-4,-5,-3
-20,-24,-4,22,-8,-14,4,-1,-2,-4,-4,-3
-21,-24,-2,22,-10,-12,4,0,0,-3,-3,-2
-23,-24,-1,23,-11,-12,5,0,1,-2,-2,-2
-24,-25,-1,24,-12,-12,5,0,0,-3,-3,-3
-25,-25,-1,25,-13,-13,5,0,-1,-3,-3,-3
-24,-25,-1,25,-12,-14,6,2,-1,-2,-2,-2
-22,-24,-2,23,-10,-14,7,2,-1,-2,-3,-3
-21,-24,-3,22,-9,-14,7,2,0,-3,-4,-3
-23,-24,0,23,-11,-12,9,3,0,-2,-3,-2
-25,-23,2,24,-13,-10,11,4,2,0,-2,-1
-27,-25,2,26,-15,-10,11,3,2,-1,-2,-2
-29,-27,2,27,-16,-12,10,2,1,-3,-4,-3
-30,-27,3,28,-17,-11,10,2,0,-2,-4,-3
-30,-26,4,28,-17,-11,9,3,-1,-2,-5,-3
-23,-23,0,23,-11,-12,8,3,-2,-2,-5,-3
-13,-18,-5,16,-3,-12,8,3,-1,-1,-3,-2
-9,-16,-7,13,-1,-11,9,4,0,0,-1,-1
-14,-20,-6,16,-3,-12,9,4,0,0,-1,-1
-16,-22,-5,18,-5,-13,7,3,0,-1,-1,-2
-17,-19,-2,17,-7,-11,8,3,0,-1,-1,-1
-23,-21,1,21,-12,-10,8,2,0,-2,-1,-2
-29,-27,1,28,-16,-13,7,0,-1,-3,-2,-3
-28,-26,1,27,-15,-13,8,2,0,-3,-2,-3
-20,-20,0,20,-10,-10,11,6,3,0,0,-1
-17,-19,-2,18,-7,-10,12,7,4,-1,-2,-3
-22,-26,-3,24,-9,-14,11,5,3,-3,-5,-6
-29,-30,0,29,-14,-15,10,6,6,-3,-5,-6
-33,-30,3,31,-18,-13,11,7,11,0,-2,-4
-35,-30,4,32,-20,-13,12,7,16,2,0,-2
-35,-30,5,32,-20,-13,12,7,18,4,4,0
-30,-25,5,27,-18,-10,11,8,19,8,9,5
-19,-14,4,16,-12,-5,9,8,21,13,15,11
-7,-4,3,6,-5,-1,6,8,22,18,22,18
1,0,-1,0,2,-1,0,5,19,21,27,23
10,1,-9,-6,10,-4,-10,0,14,23,31,26
21,6,-15,-14,18,-4,-19,-6,9,26,36,32
31,17,-15,-24,23,1,-27,-12,3,30,44,40
36,26,-11,-31,24,7,-33,-19,-7,34,50,45
37,28,-9,-33,23,9,-38,-27,-25,31,47,45
32,22,-10,-27,21,6,-38,-35,-50,20,35,38
25,9,-16,-17,21,-3,-34,-40,-77,1,16,25
21,-8,-28,-6,25,-18,-29,-42,-103,-23,-7,9
21,-23,-43,1,32,-32,-25,-44,-126,-46,-30,-7
23,-33,-55,4,39,-44,-24,-46,-147,-65,-49,-21
22,-41,-64,9,43,-52,-25,-47,-163,-78,-62,-32
18,-51,-69,16,43,-60,-27,-47,-174,-88,-73,-41
10,-58,-69,24,39,-64,-26,-46,-175,-93,-78,-46
-1,-62,-61,31,30,-62,-23,-44,-167,-92,-77,-47
-10,-64,-55,37,23,-60,-22,-41,-158,-88,-75,-47
-8,-63,-55,35,24,-59,-24,-39,-149,-85,-74,-47
2,-55,-56,26,29,-55,-25,-36,-138,-79,-69,-44
11,-46,-56,17,33,-51,-25,-33,-124,-72,-63,-40
15,-41,-56,13,35,-49,-24,-32,-111,-65,-57,-37
13,-39,-53,12,33,-46,-22,-29,-97,-57,-50,-33
6,-38,-44,15,25,-41,-18,-24,-84,-49,-43,-28
-4,-37,-33,21,14,-36,-16,-22,-73,-43,-38,-24
-11,-36,-26,24,7,-31,-15,-22,-64,-38,-35,-23
-12,-33,-21,22,5,-27,-12,-21,-54,-33,-31,-20
-9,-28,-18,18,4,-23,-8,-17,-45,-27,-27,-15
-7,-23,-15,15,4,-19,-4,-12,-36,-21,-22,-12
-7,-19,-11,13,1,-15,-2,-7,-28,-17,-17,-9
-10,-15,-5,12,-2,-10,0,-3,-19,-12,-13,-6
-13,-15,-3,13,-5,-9,3,-1,-11,-7,-9,-4
-12,-16,-5,14,-3,-10,3,-1,-7,-5,-7,-3
-12,-17,-5,14,-3,-11,4,-2,-6,-4,-6,-4
-17,-19,-2,18,-7,-10,5,-1,-4,-2,-5,-4
-22,-19,3,20,-13,-7,6,2,-3,0,-3,-3
-22,-13,9,17,-16,-1,9,6,0,3,0,0
-19,-8,11,13,-16,1,10,7,4,5,2,2
-18,-9,8,13,-13,0,9,5,4,4,1,1
-19,-13,5,15,-12,-4,7,2,4,3,0,0
-25,-16,7,20,-16,-5,7,2,4,2,0,0
-28,-17,10,22,-19,-4,8,3,4,3,1,0
-28,-16,11,21,-19,-3,8,4,4,3,2,0
-27,-17,10,22,-19,-4,7,3,4,3,2,1
-26,-17,10,21,-18,-4,7,3,4,3,1,1
-24,-15,10,19,-18,-3,7,4,6,4,2,2
-26,-15,12,20,-20,-2,8,6,7,5,2,3
-32,-18,13,25,-23,-3,8,6,7,5,2,3
-34,-20,14,27,-24,-3,7,6,7,4,2,2
-32,-17,14,24,-23,-2,7,8,8,5,4,3
-29,-15,14,22,-21,-1,8,8,11,7,5,4
-28,-16,13,22,-20,-2,9,7,13,8,5,5
-26,-17,11,21,-19,-3,9,5,13,8,6,6
-24,-16,9,20,-17,-3,8,5,10,7,6,5
-21,-13,9,17,-16,-2,7,5,7,6,4,4
-20,-10,10,15,-16,0,8,5,8,7,4,4
-21,-10,10,15,-16,0,9,5,11,7,4,3
-21,-10,9,15,-15,-1,10,5,13,7,4,3
-21,-9,11,15,-16,0,10,5,15,8,5,4
-25,-9,16,16,-20,3,11,6,16,9,6,5
-28,-9,19,18,-23,4,11,8,15,10,7,6
-26,-9,17,18,-22,3,9,8,13,9,6,5
-24,-9,15,16,-20,2,8,8,13,8,5,4
-25,-10,15,17,-21,2,8,9,13,8,6,4
-27,-11,16,18,-22,2,9,9,13,9,7,5
-28,-10,18,18,-23,3,10,10,14,9,7,5
-24,-5,17,14,-20,5,11,11,16,10,8,6
-16,0,15,8,-15,7,11,11,17,11,8,7
-12,1,14,5,-13,7,10,11,18,11,8,7
-9,3,13,3,-11,8,10,11,20,11,7,7
-6,5,13,0,-10,9,10,12,22,11,7,8
-7,4,12,1,-10,8,10,11,22,11,7,8
-10,0,10,4,-10,5,8,11,20,10,6,6
-11,-1,9,6,-10,4,7,10,19,9,6,5
-12,-2,9,7,-10,3,7,8,19,9,6,4
-16,-5,10,10,-13,2,6,7,18,8,5,4
-21,-8,13,14,-16,2,5,6,18,8,5,3
-23,-10,14,16,-18,2,4,6,18,7,5,4
-20,-7,15,13,-18,4,6,8,21,9,7,6
-16,0,17,7,-17,9,10,11,27,13,11,10
-15,3,18,5,-17,11,13,14,30,15,13,12
-14,2,16,5,-15,9,12,15,29,14,13,11
-11,1,12,4,-11,7,12,15,30,14,13,10
-6,4,10,1,-7,7,13,15,32,15,13,11
-1,9,11,-4,-5,10,13,16,34,16,14,11
-2,11,14,-5,-7,12,12,17,34,15,13,11
-7,8,16,0,-12,12,10,17,33,14,12,9
-12,3,17,4,-15,10,9,15,32,13,11,8
-18,0,19,8,-19,10,8,15,35,14,12,9
-25,-2,23,13,-24,10,8,15,38,15,14,11
-27,-3,24,15,-25,10,8,16,40,16,15,12
-22,-1,20,11,-21,9,8,18,42,17,17,14
-17,0,17,8,-16,8,7,17,42,17,17,14
-14,1,16,6,-15,9,6,16,42,17,17,14
-11,5,17,3,-14,11,7,17,44,18,18,15
-7,10,18,-1,-13,14,9,20,48,20,20,18
-5,14,19,-5,-12,16,10,22,51,22,22,20
-5,15,20,-6,-13,17,10,23,54,23,23,20
-7,16,22,-5,-14,18,9,23,57,24,23,20
-8,15,21,-4,-14,17,9,22,60,24,24,20
-7,13,19,-3,-12,15,8,20,60,24,24,20
-9,12,21,-2,-14,16,7,19,59,25,24,21
-11,13,25,-1,-18,19,8,19,61,26,25,23
-11,14,26,-2,-19,20,8,20,63,27,27,24
-12,13,26,-1,-20,20,8,20,62,27,27,23
-14,12,26,0,-20,19,7,21,61,27,27,23
-8,17,24,-5,-16,20,7,21,63,29,28,25
1,26,24,-13,-11,24,8,21,66,31,31,27
3,29,24,-16,-10,26,8,20,66,32,32,28
1,23,21,-12,-9,21,4,18,61,29,29,25
1,21,20,-11,-8,20,1,17,58,28,28,25
2,25,23,-13,-10,24,3,20,60,31,31,27
0,25,26,-12,-13,26,3,22,61,32,32,28
-2,24,27,-11,-14,26,3,21,62,33,33,29
1,28,27,-14,-13,27,4,22,63,34,35,31
3,31,28,-17,-12,29,4,21,65,35,37,32
0,29,29,-14,-14,28,3,17,67,34,36,32
-7,25,31,-9,-18,27,1,14,65,33,35,31
-11,22,32,-5,-21,26,0,13,59,32,34,31
-8,21,29,-7,-18,25,0,14,52,30,32,30
-1,23,24,-11,-13,24,0,14,48,30,31,29
5,27,22,-17,-9,25,1,15,48,30,32,30
10,31,21,-21,-6,26,2,16,48,31,33,30
11,31,20,-22,-5,26,2,15,47,30,33,30
5,27,21,-17,-8,24,0,13,45,28,31,28
0,23,22,-12,-10,22,-1,12,42,26,29,27
0,22,22,-10,-11,21,-1,11,41,26,29,27
-8,19,27,-5,-18,23,0,12,41,27,29,28
-18,17,35,1,-27,26,2,12,42,29,31,29
-19,16,35,1,-27,26,2,11,40,28,30,28
-13,15,28,-1,-20,21,0,7,36,25,28,25
-4,15,19,-5,-11,17,-2,5,31,22,25,22
2,15,12,-8,-4,13,-3,5,27,19,22,21
4,15,9,-9,-2,12,-3,5,25,18,21,20
2,14,11,-7,-4,12,-3,5,24,18,20,20
-3,11,14,-3,-8,12,-2,4,23,18,20,19
-7,10,17,-1,-11,13,-1,2,24,18,20,19
-7,8,16,0,-11,12,-1,1,22,17,19,17
-5,7,11,-1,-8,8,-3,0,16,14,16,15
0,7,6,-3,-3,6,-4,1,11,12,14,13
2,8,5,-5,-1,6,-3,2,10,11,14,13
3,11,6,-7,-1,8,0,4,13,13,15,15
3,13,10,-8,-3,12,2,5,16,15,16,16
1,13,12,-7,-5,12,3,5,15,15,16,17
-1,8,9,-3,-5,8,3,6,10,13,14,15
-3,1,5,1,-4,3,1,5,6,10,11,12
-6,-2,4,4,-6,0,0,2,5,9,9,10
-10,-2,8,5,-9,3,0,1,5,9,9,9
-12,-1,11,6,-12,5,1,1,5,9,10,10
-11,0,9,5,-10,5,1,1,5,8,9,10
-6,0,5,3,-6,3,1,1,6,7,8,9
-6,0,6,3,-6,4,2,1,7,7,8,10
-9,1,10,4,-9,6,3,2,7,8,8,10
-9,1,11,4,-11,6,3,3,4,7,7,9
-10,-1,10,5,-10,4,2,2,2,4,5,7
-9,-2,7,5,-9,2,1,-1,2,3,4,6
-7,0,6,3,-7,2,2,-2,2,4,5,7
-3,2,5,0,-4,3,2,0,0,4,5,7
-1,1,3,0,-2,2,1,1,-4,2,5,6
-4,-2,2,3,-3,0,0,0,-6,1,4,4
-9,-6,4,8,-7,0,-1,-1,-6,0,2,3
-10,-4,6,7,-8,1,0,-1,-5,1,3,4
-7,-1,7,3,-7,3,3,1,-3,2,4,5
-8,0,8,3,-8,3,3,2,-1,3,5,6
-9,-1,7,4,-8,3,3,2,0,3,6,6
-5,0,4,2,-5,1,4,2,0,3,7,6
-2,0,1,1,-1,0,4,3,0,4,7,7
-5,-2,2,4,-3,0,3,4,-1,3,7,7
-10,-3,7,7,-8,2,3,4,-2,3,6,6
-13,-3,10,9,-12,4,4,2,-2,3,6,6
-16,-6,11,11,-14,2,4,0,-3,2,5,5
-14,-6,7,9,-11,0,4,-1,-4,0,4,5
-5,-1,4,2,-6,2,6,0,-3,1,4,5
-3,3,5,-1,-5,4,8,0,0,2,5,6
-8,0,6,3,-8,4,7,-1,0,2,4,5
-14,-7,6,10,-10,0,5,-1,-2,0,1,3
-14,-10,4,12,-9,-2,3,0,-6,-2,0,1
-12,-8,3,10,-7,-2,3,1,-8,-2,0,1
-12,-8,4,10,-8,-1,3,1,-8,-1,0,2
-15,-12,4,13,-10,-4,2,0,-8,-2,0,1
-17,-14,3,14,-11,-5,2,0,-7,-3,0,0
-13,-11,2,12,-8,-5,2,0,-6,-3,0,0
-9,-7,1,8,-6,-3,4,1,-3,-1,1,1
-11,-5,5,8,-8,0,6,3,0,0,2,3
-14,-6,7,11,-10,0,6,3,0,0,2,3
-11,-6,4,9,-7,-1,5,1,-1,0,1,3
-8,-4,3,7,-6,0,5,2,0,1,2,4
-13,-5,8,9,-11,1,7,2,1,2,4,5
-18,-8,10,13,-15,0,6,1,1,2,5,5
-17,-9,8,13,-13,0,6,1,0,1,5,5
-13,-6,7,9,-10,0,7,2,2,2,6,5
-10,-2,7,6,-9,3,9,3,4,4,7,7
-9,1,9,4,-9,5,11,5,6,5,8,8
-4,5,9,0,-6,7,11,6,5,5,8,9
-1,5,5,-1,-3,5,9,6,3,4,7,8
-6,0,4,3,-5,2,6,5,1,3,6,6
-14,-7,6,10,-11,0,4,4,0,2,5,5
-15,-9,5,12,-11,-1,3,4,0,1,5,5
-11,-6,4,8,-8,0,4,4,3,2,6,6
-7,-1,5,3,-6,3,5,4,7,3,8,8
-7,0,7,3,-6,4,5,1,8,4,7,7
-13,-5,8,9,-10,2,4,-1,6,2,5,6
-16,-8,8,13,-12,0,3,-1,3,1,4,5
-13,-8,5,11,-9,-1,2,0,0,0,3,4
-12,-8,4,10,-8,-2,1,0,0,0,3,4
-13,-7,6,9,-10,0,2,1,1,1,4,5
-15,-6,9,9,-12,1,3,1,3,2,5,6
-16,-6,10,10,-13,2,3,1,3,2,4,6
-13,-4,9,7,-11,2,3,1,3,2,4,6
-5,2,8,1,-6,5,4,3,5,4,6,7
-1,6,7,-2,-4,7,5,4,7,6,8,9
-1,5,7,-2,-4,6,5,4,8,6,8,10
-1,4,6,-2,-4,5,5,3,9,6,9,10
-3,5,8,-1,-6,7,6,3,11,8,10,11
-8,4,12,1,-11,8,6,4,11,8,11,12
-9,4,14,1,-12,9,5,3,11,9,11,12
-9,6,15,0,-12,11,4,2,14,10,12,13
-13,3,16,4,-14,10,3,0,14,10,12,13
-15,0,16,7,-15,8,0,0,11,9,11,12
-10,4,14,3,-12,9,0,1,9,10,12,12
-6,7,13,-1,-9,11,0,1,10,11,14,14
-4,10,14,-3,-9,12,1,1,12,12,16,15
-5,10,15,-3,-11,13,1,2,11,12,16,15
-11,6,17,1,-15,12,0,1,9,11,15,15
-16,4,20,4,-18,13,-1,1,7,11,14,14
-16,6,22,4,-18,14,-1,2,8,11,14,15
-10,8,18,1,-14,13,-1,3,7,11,14,14
-4,9,13,-2,-9,12,-2,2,5,9,12,13
-2,8,10,-2,-6,9,-3,0,4,8,11,12
-1,7,8,-3,-5,8,-4,-1,4,8,11,11
-1,6,7,-3,-4,7,-4,-1,4,7,10,11
-2,5,8,-1,-5,6,-5,-2,4,6,9,10
-3,4,8,-1,-6,6,-6,-2,3,6,9,10
-3,5,8,-1,-6,7,-6,-1,3,6,9,10
-4,5,9,0,-7,7,-6,-1,4,6,9,11
-7,3,10,1,-8,7,-6,-1,4,6,9,12
-5,6,11,0,-8,8,-5,0,5,7,10,14
2,13,11,-8,-4,12,-2,3,7,10,13,16
11,21,10,-16,0,16,1,5,10,12,16,18
11,22,10,-17,0,16,2,6,10,12,17,18
2,13,11,-8,-5,12,1,3,8,9,14,15
-8,3,11,2,-10,8,-1,-1,6,6,11,12
-12,1,12,5,-12,7,-1,-2,5,6,11,12
-12,2,13,5,-13,9,0,-1,5,7,12,14
-11,2,11,4,-11,7,0,0,5,7,12,14
-8,0,7,4,-8,4,0,0,5,7,12,14
-9,-1,7,5,-9,3,0,1,4,6,12,13
-9,0,9,4,-10,4,0,2,2,5,10,12
-8,2,10,2,-9,6,1,2,1,5,9,11
-9,1,11,3,-10,6,2,3,1,4,8,10
-11,0,11,5,-11,5,2,3,1,3,7,9
-9,1,11,4,-10,6,3,4,2,4,7,9
-7,4,11,2,-10,8,5,5,3,5,8,10
-8,3,11,3,-11,7,6,5,4,5,9,11
-12,0,12,6,-13,6,6,4,5,5,8,10
-14,-3,11,8,-13,4,5,3,5,4,7,9
-15,-5,10,9,-13,2,5,2,6,4,6,9
-17,-7,11,11,-14,2,5,0,5,4,6,8
-17,-6,11,11,-14,2,6,0,4,4,7,8
-17,-5,11,10,-13,3,7,2,4,4,7,8
-17,-5,11,11,-13,3,7,3,2,3,7,7
-17,-6,9,12,-13,1,6,4,1,2,7,6
-15,-5,8,11,-12,1,6,4,1,2,7,6
-12,-2,8,7,-10,2,7,5,2,4,8,7
-12,-1,10,6,-11,4,9,7,2,5,9,8
-13,-2,11,7,-12,4,9,7,3,5,8,8
-12,-1,10,6,-11,5,10,7,3,5,8,8
-13,-3,10,7,-11,4,10,7,3,4,7,8
-21,-8,13,15,-17,3,9,6,3,4,6,6
-27,-11,15,20,-21,3,9,5,4,3,6,6
-26,-10,16,18,-21,3,10,5,5,4,6,6
-24,-9,15,16,-20,3,9,5,4,4,5,6
-23,-8,14,15,-19,3,9,5,4,3,5,6
-23,-8,14,15,-19,3,9,5,3,3,5,6
-23,-8,15,15,-19,3,9,6,3,3,6,7
-21,-7,14,14,-17,3,11,8,4,5,7,8
-17,-6,11,12,-13,2,13,9,6,6,9,10
-15,-7,8,11,-11,1,13,8,6,6,9,10
-19,-8,10,14,-14,1,12,7,5,5,8,9
-22,-8,14,15,-18,2,11,6,5,5,7,8
-23,-7,15,15,-20,4,11,6,4,5,7,7
-24,-6,17,14,-21,5,11,6,5,5,7,7
-24,-6,18,14,-21,5,12,7,5,5,6,7
-23,-6,17,14,-20,5,12,7,4,5,6,7
-22,-6,16,14,-19,5,12,7,4,4,5,6
-22,-6,15,14,-18,5,12,6,3,3,4,5
-24,-8,15,16,-19,4,11,6,3,3,4,4
-25,-8,16,16,-20,4,12,6,3,3,4,5
-24,-7,17,15,-20,5,13,6,3,4,4,6
-26,-9,16,17,-21,3,12,5,2,3,4,5
-28,-12,16,19,-22,1,11,5,2,3,3,4
-24,-8,17,15,-20,4,12,6,3,4,5,5
-21,-4,17,13,-18,6,12,6,5,5,6,6
-23,-6,16,15,-19,5,12,6,4,5,6,5
-26,-8,17,17,-21,5,12,6,3,5,6,5
-27,-8,17,18,-22,5,12,7,3,5,6,5
-27,-10,16,19,-22,3,12,7,2,4,6,4
-27,-14,13,20,-20,0,12,7,2,4,5,4
-27,-16,11,20,-19,-2,14,8,3,4,4,4
-28,-16,13,21,-20,-1,16,9,6,4,3,3
-28,-14,13,20,-20,0,18,11,10,4,3,3
-26,-13,13,19,-19,0,20,12,13,5,3,2
-24,-10,14,17,-18,2,20,12,15,6,4,3
-21,-5,15,13,-18,5,21,14,19,9,7,5
-21,-2,17,12,-19,7,21,16,22,12,11,8
-21,-3,17,12,-19,7,19,16,23,14,14,10
-14,2,16,5,-15,9,17,16,25,18,19,14
-6,9,15,-2,-10,12,15,15,25,23,26,20
-5,10,15,-3,-10,13,7,9,22,26,30,24
-4,10,15,-3,-9,13,-2,3,17,28,35,29
4,16,12,-10,-4,15,-11,-1,15,33,43,35
18,28,9,-23,5,19,-19,-4,15,39,52,44
32,41,8,-36,12,25,-27,-9,11,46,61,52
40,50,9,-45,15,30,-35,-17,1,51,67,58
40,50,9,-46,16,29,-40,-24,-15,47,64,58
36,40,3,-38,16,21,-41,-29,-40,32,52,50
36,26,-10,-32,23,8,-41,-31,-67,8,31,37
40,14,-26,-27,33,-6,-39,-31,-93,-18,7,21
35,-3,-39,-16,37,-21,-38,-32,-116,-43,-17,3
26,-22,-49,-1,37,-35,-38,-35,-139,-64,-39,-13
22,-34,-57,6,39,-45,-39,-39,-156,-78,-55,-25
22,-40,-63,9,42,-51,-38,-41,-164,-87,-65,-34
23,-43,-67,10,45,-55,-37,-41,-167,-91,-70,-39
24,-44,-69,10,46,-57,-36,-39,-165,-92,-72,-41
24,-44,-68,10,46,-56,-36,-36,-159,-90,-73,-42
23,-43,-67,10,45,-55,-34,-34,-149,-86,-71,-42
23,-41,-64,9,44,-52,-31,-31,-135,-80,-66,-39
21,-38,-59,8,41,-48,-26,-27,-121,-72,-60,-36
17,-34,-51,9,34,-42,-22,-24,-106,-64,-54,-33
12,-30,-43,9,28,-36,-19,-20,-91,-57,-48,-30
11,-25,-36,6,24,-30,-15,-16,-77,-49,-42,-26
11,-19,-30,3,21,-24,-12,-13,-65,-41,-36,-23
10,-17,-27,2,19,-21,-10,-11,-57,-36,-32,-20
10,-16,-26,2,18,-20,-10,-10,-52,-33,-29,-19
9,-15,-24,2,16,-19,-9,-8,-46,-30,-27,-17
6,-15,-21,4,14,-17,-7,-7,-39,-26,-23,-15
4,-15,-19,5,11,-17,-5,-5,-32,-22,-20,-13
-2,-15,-14,8,5,-14,-1,-2,-24,-17,-15,-10
-9,-13,-4,10,-2,-9,2,0,-17,-11,-10,-7
-13,-11,1,11,-7,-5,4,1,-12,-8,-7,-5
-16,-12,4,13,-10,-4,5,1,-9,-7,-6,-5
-20,-13,6,16,-13,-3,6,0,-5,-6,-5,-5
-21,-13,8,16,-14,-1,8,0,-2,-4,-5,-4
-22,-11,10,16,-15,0,9,0,-2,-3,-4,-4
-23,-11,11,17,-17,0,9,0,-2,-2,-4,-4
-21,-9,10,15,-15,0,9,1,-1,-1,-3,-3
-14,-5,8,10,-11,1,10,4,0,0,-1,-2
-14,-3,9,8,-12,3,11,6,1,2,0,-1
-16,-3,12,9,-14,4,12,6,3,3,1,0
-17,-4,13,10,-15,4,11,6,4,3,1,0
-18,-5,12,11,-15,4,10,7,3,2,1,0
-16,-3,12,9,-14,5,11,9,3,3,1,1
-13,0,12,7,-13,6,12,10,5,4,3,2
-12,1,12,6,-12,7,12,10,7,4,4,3
-11,1,12,5,-12,7,12,10,8,5,4,3
-11,0,11,5,-11,6,12,10,8,5,4,2
-9,1,11,4,-10,6,12,9,8,5,4,2
-5,5,11,0,-8,8,15,10,11,7,6,4
-5,6,12,-1,-8,9,15,10,12,7,6,4
-12,-1,11,6,-11,5,12,6,8,2,2,0
-19,-9,9,14,-14,0,8,4,5,-1,-1,-3
-19,-8,10,14,-14,1,9,6,8,0,0,-1
-19,-5,13,12,-16,4,12,9,12,3,3,1
-20,-5,14,13,-17,4,13,9,14,3,3,1
-24,-9,14,17,-19,2,11,7,12,2,2,0
-25,-10,15,17,-20,2,11,7,10,2,1,0
-19,-5,14,11,-17,4,12,10,11,3,2,1
-15,-2,13,8,-14,5,13,11,12,4,3,1
-17,-4,12,11,-14,4,12,10,13,3,2,0
-18,-6,12,12,-14,3,11,9,13,2,1,0
-17,-6,11,12,-13,3,11,8,13,2,1,-1
-15,-5,11,11,-12,3,11,8,14,2,2,-1
-12,-3,10,8,-10,3,11,9,14,3,2,-1
-11,-3,9,8,-10,3,11,9,14,3,2,-1
-12,-3,10,8,-11,3,12,9,15,3,2,0
-14,-3,11,9,-13,4,12,10,15,3,3,0
-16,-4,11,11,-14,3,11,10,14,3,3,0
-16,-5,11,11,-14,3,12,12,15,4,4,1
-14,-4,10,10,-13,4,13,13,17,5,4,1
-12,-3,9,8,-11,4,12,11,17,4,3,0
-12,-3,9,8,-10,3,11,10,18,3,2,-1
-12,-6,6,9,-9,0,10,9,18,3,1,-1
-11,-9,3,10,-7,-3,10,11,19,3,1,0
-11,-9,1,9,-6,-4,11,12,20,3,1,0
-11,-7,2,8,-6,-2,11,13,20,3,1,0
-11,-5,5,8,-8,0,11,13,22,3,1,1
-13,-3,8,8,-10,2,12,14,25,5,3,2
-14,-3,10,9,-12,4,12,13,27,5,3,1
-12,-1,10,8,-11,5,11,12,28,5,4,1
-8,1,10,4,-9,6,11,14,28,6,5,2
-5,3,9,1,-7,6,11,15,29,6,5,2
-6,2,8,2,-7,5,10,15,29,6,4,2
-8,0,8,4,-8,4,10,15,30,6,5,2
-9,0,8,5,-8,4,10,15,32,6,6,2
-8,0,7,4,-7,4,10,16,34,7,8,2
-8,0,7,4,-8,4,10,15,35,8,8,2
-10,0,8,5,-9,4,11,15,38,8,9,2
-9,0,9,4,-9,5,12,16,40,10,10,4
-7,1,8,3,-8,5,12,17,42,11,11,5
-7,1,9,2,-7,5,12,17,42,12,11,6
-6,4,10,0,-7,6,12,18,43,11,10,5
-5,6,10,0,-7,8,13,20,45,12,10,5
-4,7,10,-1,-7,9,14,22,48,12,10,5
-4,5,8,0,-6,8,13,22,49,11,9,5
-4,4,7,0,-6,7,13,23,51,11,9,5
-2,8,9,-3,-5,9,14,25,54,14,12,7
0,11,11,-5,-5,11,15,25,57,16,14,9
0,11,11,-6,-5,11,13,24,57,16,14,10
0,12,11,-6,-5,11,12,24,58,17,15,11
1,13,11,-7,-4,12,12,24,60,18,17,12
0,13,11,-7,-5,12,11,23,61,19,18,13
0,13,12,-7,-6,13,10,23,62,19,19,13
-1,14,13,-7,-7,15,10,23,64,21,20,14
0,15,14,-8,-6,15,10,22,65,21,20,14
1,16,15,-9,-6,16,9,21,65,22,21,15
1,19,17,-10,-8,18,9,23,66,24,22,17
1,19,18,-10,-8,18,8,24,67,25,23,18
1,19,17,-10,-8,18,7,24,67,25,24,18
3,22,18,-12,-7,20,7,23,68,26,26,20
6,25,18,-15,-5,21,7,23,68,27,27,21
8,24,15,-16,-3,20,6,22,66,26,26,20
9,23,14,-16,-2,18,4,21,65,24,25,20
3,20,16,-11,-6,18,3,19,64,24,24,19
-5,14,19,-4,-12,16,1,17,62,23,23,18
-3,16,18,-6,-10,17,0,16,60,22,23,17
7,23,16,-14,-4,19,0,18,61,24,25,19
14,27,13,-19,0,20,0,18,59,24,25,20
14,25,11,-19,1,18,-1,17,55,23,24,19
9,20,10,-14,-1,15,-2,14,51,21,21,17
5,16,10,-10,-2,13,-1,12,48,19,20,16
7,18,10,-12,-1,14,0,14,46,19,21,17
10,21,10,-16,0,15,1,15,43,19,21,17
11,22,10,-17,1,16,0,15,42,19,22,17
13,25,11,-19,1,18,2,14,42,20,23,19
11,27,14,-19,-1,21,4,14,44,22,25,20
9,27,17,-18,-4,23,5,14,45,23,26,21
9,28,17,-19,-4,23,6,14,42,23,26,21
7,24,16,-15,-4,21,5,14,37,21,24,19
3,20,16,-12,-6,18,4,12,35,19,22,18
2,21,18,-12,-7,19,4,11,36,19,22,18
0,19,19,-10,-9,20,3,10,35,19,22,17
-4,16,20,-7,-11,19,2,9,32,17,20,16
-5,15,20,-5,-12,18,2,8,31,17,20,16
-5,12,16,-3,-10,15,1,7,29,16,19,15
3,10,7,-7,-1,9,0,6,22,14,15,12
16,15,-1,-15,9,7,0,8,16,11,12,9
18,17,-1,-17,10,8,1,8,12,10,11,8
5,9,3,-7,1,6,2,6,10,8,9,6
-7,3,9,2,-8,6,3,5,10,8,8,6
-7,5,11,0,-9,8,4,4,10,8,8,5
-1,8,8,-4,-4,8,3,3,8,6,6,4
5,10,3,-8,1,7,2,3,7,4,3,2
10,11,0,-11,5,6,3,3,6,3,2,1
9,9,0,-9,5,4,3,1,7,3,1,0
8,10,2,-9,3,6,5,1,8,5,3,2
13,18,4,-16,4,11,7,4,9,7,6,6
17,20,3,-19,7,12,7,5,7,7,6,6
15,16,0,-16,8,8,5,3,3,5,4,3
10,11,0,-11,5,5,3,3,1,3,2,1
3,7,3,-6,0,5,2,3,1,3,3,1
-1,5,5,-2,-3,5,3,3,2,4,3,1
-6,1,6,3,-6,4,3,1,3,4,2,0
-13,-3,9,8,-11,3,3,1,3,4,2,0
-17,-3,13,10,-15,5,5,3,4,6,4,2
-16,-4,12,10,-14,4,6,4,3,6,5,3
-6,-1,5,3,-6,2,5,1,2,5,4,1
3,5,2,-5,1,4,4,0,1,5,3,0
7,7,0,-7,3,4,4,0,-2,3,1,0
5,4,-2,-5,4,1,2,0,-4,1,0,-2
0,2,1,-1,0,1,3,0,-3,1,0,-3
-4,3,7,1,-5,5,4,0,0,3,0,-2
-7,3,10,2,-8,6,4,-1,1,3,0,-3
-4,6,10,-1,-6,7,4,-2,0,3,1,-3
4,11,7,-7,-1,9,5,1,-1,5,2,-2
6,10,4,-8,0,7,5,3,-3,4,1,-2
1,3,2,-3,0,3,2,1,-6,2,0,-3
0,1,0,-1,0,1,1,0,-8,1,-2,-4
3,3,0,-3,1,2,2,1,-8,1,-1,-4
3,4,0,-4,1,2,1,0,-9,0,-2,-5
3,1,-1,-2,2,0,0,-1,-11,-1,-4,-7
1,0,-2,0,1,-1,-1,-2,-11,-2,-5,-8
0,0,0,0,-1,0,1,-1,-9,0,-3,-6
1,2,1,-2,0,1,2,0,-7,1,-2,-5
5,6,0,-5,2,3,3,0,-6,2,-1,-4
4,6,2,-5,1,4,4,1,-5,3,-1,-2
-2,2,3,0,-2,3,3,0,-6,2,-2,-3
-7,-3,3,5,-5,0,1,-2,-8,0,-3,-4
-8,-3,3,6,-5,0,1,-2,-8,0,-4,-4
-8,-2,4,5,-6,1,2,-2,-7,1,-3,-3
-8,-2,5,5,-6,1,2,-3,-7,1,-3,-3
-7,-2,4,5,-6,1,2,-3,-6,1,-2,-3
-7,-2,4,5,-6,1,2,-3,-7,1,-2,-3
-8,-1,6,4,-7,2,2,-2,-7,2,-2,-3
-8,0,7,3,-7,4,3,-1,-6,2,-1,-2
-7,0,6,2,-6,4,3,0,-5,2,-1,-3
-5,1,5,2,-5,4,3,-1,-5,2,-2,-3
-4,1,4,1,-4,3,2,-2,-5,1,-3,-4
-5,0,4,2,-4,3,2,-2,-6,1,-3,-4
-5,1,5,2,-5,4,3,-1,-5,2,-2,-3
-2,4,6,-1,-4,5,4,0,-5,2,-2,-3
0,5,4,-3,-2,5,3,0,-4,2,-2,-4
0,4,4,-2,-2,5,3,-1,-3,2,-3,-4
-2,3,5,0,-3,4,3,-1,-3,2,-2,-4
-5,0,5,3,-5,3,2,-2,-4,1,-3,-5
-4,-1,2,3,-3,1,1,-3,-6,0,-4,-6
1,3,0,-2,0,2,2,-2,-4,0,-3,-5
5,6,0,-5,3,3,3,-1,-2,2,-1,-3
5,5,0,-5,2,3,2,-2,-3,2,-1,-4
4,5,1,-5,1,3,2,-1,-3,2,-1,-4
5,6,1,-6,2,4,2,0,-3,3,0,-3
6,6,0,-6,3,3,3,1,-1,4,1,-2
2,3,0,-2,1,1,3,1,0,5,2,-1
-1,0,0,0,0,0,4,0,0,5,3,0
2,5,1,-4,0,3,5,1,2,6,4,1
8,12,3,-10,2,7,5,2,3,7,4,2
7,11,3,-9,2,7,4,0,0,5,3,0
1,6,4,-4,-1,5,2,-2,-1,4,1,-1
0,5,5,-2,-3,6,2,-2,0,5,2,0
1,9,6,-5,-2,7,2,0,1,6,3,1
1,10,7,-5,-2,8,2,1,2,7,4,1
2,10,7,-5,-2,8,1,1,2,6,3,1
4,11,6,-7,0,8,1,0,3,6,4,1
5,12,6,-8,-1,9,1,0,5,8,5,2
2,12,10,-6,-4,11,2,1,6,10,7,4
1,12,10,-7,-4,11,2,2,6,10,8,5
7,14,6,-11,0,11,0,0,5,9,8,5
10,13,2,-12,4,8,-2,-2,3,7,7,4
9,9,0,-9,5,5,-5,-4,1,5,5,2
5,6,0,-5,3,3,-7,-5,0,5,3,0
0,5,5,-2,-2,4,-7,-4,2,6,4,1
-2,4,5,-1,-3,4,-6,-3,4,7,5,2
0,1,0,-1,0,0,-7,-3,3,6,4,1
0,0,-1,-1,1,-1,-9,-2,1,5,3,1
0,3,2,-2,0,2,-8,-1,1,6,3,2
5,11,4,-8,1,7,-6,0,2,8,6,4
10,16,5,-13,2,11,-5,0,4,10,8,6
3,13,9,-8,-2,11,-7,0,4,10,8,6
-3,11,13,-4,-8,12,-8,2,4,10,9,6
7,19,11,-13,-1,15,-8,4,5,12,11,8
18,23,4,-20,7,14,-10,3,5,11,10,8
17,19,2,-18,7,11,-12,0,5,10,9,7
15,18,3,-17,6,11,-11,-2,8,10,10,8
18,19,0,-18,9,10,-11,-4,8,10,10,8
22,19,-3,-20,13,8,-12,-3,4,10,9,7
20,20,0,-20,10,10,-10,0,1,10,10,8
12,18,5,-15,3,12,-8,3,-1,11,11,9
8,16,7,-12,0,11,-6,3,0,10,12,8
9,16,7,-13,1,11,-3,3,1,10,12,8
11,16,4,-14,3,9,0,2,2,9,11,8
14,16,1,-15,6,8,0,1,0,8,10,7
16,15,-1,-16,9,7,1,0,0,7,9,7
17,14,-4,-15,11,5,1,-2,-2,6,8,7
19,13,-6,-16,13,3,0,-3,-4,5,7,6
20,13,-7,-16,14,3,0,-3,-5,4,6,5
17,12,-6,-15,12,3,1,-2,-5,4,6,5
10,9,-1,-10,6,4,4,0,-3,5,6,5
-1,3,3,-2,-2,3,4,0,-1,5,5,4
-7,-1,4,4,-6,1,3,-3,0,5,4,2
-6,-3,1,4,-4,-1,2,-4,-1,3,2,0
-2,-3,-1,3,-1,-1,3,-3,-2,2,1,0
-3,0,3,1,-3,2,6,1,1,5,3,3
-5,5,12,0,-9,9,11,6,9,9,8,7
0,12,12,-6,-6,12,13,7,11,11,9,9
12,14,1,-13,5,7,10,4,5,7,5,5
13,6,-7,-10,10,0,4,0,-2,1,0,0
3,-3,-8,-1,6,-5,1,-2,-7,-1,-2,-3
-1,-5,-6,3,2,-5,1,-2,-7,-1,-2,-4
0,-3,-4,1,2,-2,3,0,-3,1,0,-2
-1,-1,-1,1,0,0,6,1,-1,2,1,-1
-4,-2,2,3,-3,1,7,2,-1,3,1,0
-3,-2,0,3,-2,0,6,4,-3,2,0,0
-1,-4,-3,2,1,-3,6,4,-3,1,0,-1
0,-4,-4,2,2,-4,6,6,-2,2,0,0
2,-3,-7,0,5,-5,5,5,-2,2,0,0
11,-1,-14,-5,13,-7,2,0,-4,0,-3,-3
19,3,-16,-11,18,-5,2,-1,-2,0,-3,-4
15,4,-11,-10,13,-2,5,1,0,1,0,-2
4,-2,-6,-1,5,-3,4,1,-2,1,-1,-3
-2,-7,-5,5,1,-5,3,0,-4,-1,-3,-5
-4,-7,-3,5,0,-5,3,1,-4,-1,-2,-4
-3,-5,-3,4,0,-4,4,1,-4,-1,-2,-4
-4,-5,-2,5,-1,-4,3,1,-5,-1,-2,-4
-7,-6,0,7,-3,-3,4,1,-5,-1,-1,-3
-7,-7,0,7,-3,-3,5,0,-3,0,-1,-3
-5,-7,-1,6,-1,-3,6,0,-2,0,-2,-4
-4,-6,-2,5,0,-3,7,1,-2,0,-2,-4
-4,-7,-3,6,0,-4,7,2,-3,-1,-3,-4
-5,-8,-3,6,0,-4,7,2,-3,-1,-3,-4
-4,-7,-3,5,0,-5,7,1,-3,-1,-3,-5
-3,-6,-4,4,1,-5,6,1,-3,-1,-3,-5
-2,-6,-5,4,1,-6,6,0,-3,-1,-3,-5
-4,-6,-4,4,0,-5,6,-1,-3,0,-3,-5
-6,-7,-2,5,-1,-4,6,0,-2,0,-3,-4
-6,-7,-2,5,-1,-4,6,1,-3,0,-3,-4
-4,-8,-3,5,0,-5,5,1,-3,0,-3,-4
-2,-7,-4,3,1,-5,6,0,-2,0,-3,-4
-1,-5,-4,2,2,-5,6,0,-1,0,-2,-4
0,-4,-5,1,3,-5,6,1,-2,0,-1,-3
3,-2,-6,-1,5,-5,6,2,-4,0,-1,-3
6,-2,-9,-2,7,-6,6,3,-5,1,0,-2
5,-4,-9,-1,7,-6,7,3,-4,2,0,-2
3,-4,-7,0,5,-5,7,3,-3,1,0,-2
1,-4,-5,1,3,-4,6,1,-4,0,-2,-4
2,-4,-6,1,4,-4,5,0,-3,-1,-2,-5
3,-3,-6,0,4,-5,5,0,-2,-1,-1,-4
3,-4,-8,0,6,-6,5,0,-3,-1,-2,-4
2,-6,-9,1,6,-8,4,-1,-4,-2,-3,-6
3,-5,-8,1,5,-7,5,-1,-3,-2,-3,-6
4,-4,-8,0,6,-6,7,1,-3,-2,-4,-6
5,-5,-10,0,8,-7,9,3,-1,-3,-5,-7
6,-6,-12,0,9,-9,10,5,1,-3,-6,-9
2,-9,-12,3,7,-10,10,4,3,-4,-7,-10
-1,-11,-10,6,4,-11,10,4,5,-3,-6,-10
-1,-9,-8,4,3,-8,11,5,7,-1,-4,-8
2,-5,-7,1,5,-6,12,6,11,2,-1,-6
5,-1,-7,-2,6,-4,12,7,13,6,3,-2
8,2,-7,-5,8,-3,10,6,15,10,8,1
12,6,-7,-9,10,-1,5,2,14,14,13,6
19,13,-7,-16,13,3,-2,-1,11,18,20,13
29,22,-7,-26,18,8,-9,-4,8,24,28,21
40,31,-9,-36,24,11,-17,-6,8,31,36,29
52,39,-13,-46,33,13,-28,-12,4,35,43,35
63,45,-18,-54,40,14,-41,-23,-4,38,48,39
68,48,-19,-58,44,14,-51,-34,-19,35,48,40
66,44,-22,-56,44,11,-55,-42,-38,24,41,36
62,32,-30,-48,47,1,-56,-43,-63,5,27,28
62,18,-44,-41,54,-12,-56,-41,-91,-18,7,15
67,6,-62,-37,65,-27,-56,-39,-120,-42,-14,0
68,-8,-77,-30,72,-42,-56,-40,-145,-63,-36,-14
62,-23,-86,-19,74,-54,-56,-42,-165,-80,-54,-28
59,-34,-94,-12,76,-64,-56,-43,-179,-93,-69,-39
61,-38,-99,-11,80,-68,-55,-44,-184,-99,-77,-45
57,-39,-97,-9,77,-68,-54,-44,-180,-99,-79,-47
50,-40,-90,-5,70,-65,-51,-43,-169,-95,-77,-46
48,-38,-86,-5,67,-62,-47,-40,-155,-89,-73,-44
46,-35,-81,-5,63,-58,-43,-36,-139,-83,-69,-43
40,-36,-76,-2,58,-56,-40,-33,-126,-78,-67,-42
36,-35,-72,0,54,-53,-36,-31,-114,-72,-64,-41
34,-31,-66,-1,50,-48,-31,-28,-102,-66,-59,-39
35,-28,-63,-2,49,-46,-27,-25,-92,-60,-55,-37
37,-26,-64,-5,51,-45,-25,-24,-82,-54,-51,-35
33,-26,-60,-3,47,-42,-22,-23,-72,-49,-46,-33
25,-26,-52,0,39,-38,-20,-22,-62,-44,-41,-30
21,-25,-47,1,35,-36,-18,-20,-56,-40,-37,-28
19,-26,-46,3,32,-36,-17,-18,-53,-38,-36,-28
16,-28,-45,5,30,-37,-16,-15,-48,-36,-34,-27
13,-27,-40,7,26,-34,-13,-13,-40,-31,-29,-24
2,-29,-32,13,16,-31,-11,-12,-33,-27,-25,-22
-5,-31,-27,18,11,-29,-11,-12,-28,-24,-23,-21
0,-26,-26,13,13,-26,-9,-9,-24,-20,-19,-19
4,-18,-23,6,14,-20,-4,-3,-18,-15,-14,-15
2,-15,-17,5,10,-16,-1,-1,-12,-10,-10,-12
3,-11,-16,3,9,-14,0,-1,-8,-8,-8,-10
7,-9,-17,0,11,-13,1,-1,-5,-7,-7,-9
6,-11,-18,2,11,-15,1,-1,-6,-7,-9,-10
5,-11,-17,3,10,-14,2,0,-6,-6,-9,-10
5,-9,-13,2,9,-11,5,0,-5,-4,-8,-9
2,-7,-8,2,5,-7,7,1,-2,-3,-6,-7
2,-3,-5,0,4,-4,9,1,1,-1,-3,-5
6,0,-5,-4,6,-2,10,1,3,0,-2,-4
3,-4,-8,0,6,-6,8,1,1,-1,-4,-7
-8,-14,-7,10,0,-11,5,0,-1,-3,-5,-9
-19,-17,0,18,-10,-8,7,1,1,-1,-3,-6
-24,-18,5,21,-14,-7,8,2,1,0,-1,-5
-19,-20,-1,20,-8,-11,6,1,-1,-2,-4,-7
-8,-18,-9,13,1,-13,5,0,-2,-4,-6,-9
-8,-16,-8,12,0,-12,7,0,0,-4,-6,-9
-17,-17,-1,17,-7,-9,9,0,3,-2,-4,-6
-16,-13,3,14,-9,-5,12,2,4,1,0,-3
-9,-7,0,8,-5,-4,12,5,3,2,0,-2
-4,-8,-6,6,0,-7,9,3,1,0,-2,-4
0,-10,-11,5,5,-11,6,1,-1,-2,-4,-6
0,-10,-10,6,4,-10,6,0,-2,-2,-4,-5
-5,-10,-5,7,0,-8,7,2,0,-1,-2,-3
-9,-13,-3,11,-2,-8,6,3,0,-1,-3,-4
-12,-16,-4,14,-3,-10,5,2,1,-2,-4,-5
-12,-16,-5,14,-3,-11,4,0,3,-3,-4,-6
-10,-15,-7,12,-1,-11,3,-1,5,-3,-4,-7
-7,-14,-9,10,0,-11,3,-1,7,-2,-4,-7
-7,-13,-7,10,0,-10,4,0,7,-1,-3,-6
-10,-14,-3,12,-4,-8,5,3,7,0,-2,-4
-14,-15,-1,14,-6,-8,6,4,7,0,-2,-4
-15,-16,-1,15,-6,-8,5,3,7,0,-2,-4
-16,-16,0,16,-7,-8,5,3,7,0,-2,-4
-16,-15,0,15,-7,-8,5,3,7,0,-2,-4
-13,-13,-1,13,-6,-8,4,4,8,1,-1,-4
-10,-11,-2,11,-4,-7,4,4,10,1,0,-4
-8,-10,-2,9,-3,-6,5,4,11,2,0,-3
-8,-11,-2,10,-3,-6,5,5,13,2,0,-3
-9,-10,-2,10,-4,-6,6,4,14,3,0,-2
-7,-8,-1,8,-3,-5,6,5,15,4,1,-2
-7,-9,-2,8,-2,-5,6,5,14,4,0,-2
-11,-12,-1,11,-4,-7,4,5,13,4,0,-3
-12,-13,-1,12,-5,-7,4,6,14,4,0,-4
-9,-12,-3,10,-3,-7,4,6,16,4,0,-3
-8,-11,-3,9,-3,-7,5,6,17,5,1,-2
-8,-9,-2,8,-4,-6,7,8,20,6,2,-1
-5,-7,-2,6,-2,-5,7,10,21,7,3,-1
-2,-7,-4,4,0,-5,6,10,21,6,2,-1
-3,-8,-4,5,1,-6,6,9,21,6,2,-2
-7,-10,-3,9,-1,-7,6,8,22,6,2,-2
-11,-13,-2,12,-4,-7,6,8,24,7,2,-1
-11,-12,-2,12,-4,-7,6,9,26,8,3,-1
-10,-9,-1,10,-5,-5,6,10,28,8,4,0
-7,-6,0,7,-4,-3,6,10,31,9,4,0
-4,-6,-2,5,-2,-4,6,11,32,9,5,0
-4,-6,-2,4,-1,-4,7,12,33,9,5,0
-2,-4,-1,3,0,-2,7,13,33,10,5,1
-1,-3,-2,2,1,-2,7,14,34,11,6,1
-3,-4,-3,4,1,-3,6,14,35,10,5,0
-4,-5,-3,5,0,-3,6,14,37,10,5,0
-1,-4,-3,3,1,-3,6,15,39,11,6,0
3,0,-4,-1,3,-1,6,17,43,13,7,1
6,3,-3,-5,4,1,7,18,46,14,8,2
3,2,-1,-3,2,1,6,17,49,14,8,2
1,2,1,-2,0,2,6,17,51,16,9,3
3,5,1,-4,1,3,7,18,53,19,12,6
4,5,0,-5,3,2,7,18,54,21,14,8
3,1,-3,-3,4,0,6,17,54,20,13,7
2,0,-2,-1,2,-1,4,17,54,20,13,7
0,2,2,-2,0,2,4,18,55,21,14,7
0,6,5,-4,-2,5,4,18,56,21,15,8
1,9,7,-6,-3,8,4,18,58,23,16,9
2,12,9,-7,-4,11,5,19,60,26,19,12
0,12,11,-7,-5,11,5,20,62,28,21,15
-3,10,12,-4,-7,11,4,18,62,28,22,15
-4,10,13,-3,-8,12,3,18,61,28,22,15
3,15,12,-9,-4,14,4,21,62,29,23,17
11,22,10,-17,0,16,5,21,64,30,25,19
12,21,9,-17,1,15,3,18,63,28,25,18
8,15,8,-12,0,11,0,15,61,26,23,16
4,12,9,-8,-2,10,-2,13,59,26,23,16
3,14,11,-8,-3,12,-3,12,57,27,24,16
8,18,10,-13,0,14,-3,13,55,27,24,17
12,21,8,-17,3,15,-3,15,54,28,25,18
12,21,8,-16,2,14,-2,16,54,28,25,18
10,19,7,-14,1,13,-2,14,54,27,25,18
9,16,6,-13,1,11,-3,12,53,26,24,17
9,16,7,-13,1,11,-4,12,51,26,24,17
6,17,10,-12,-1,13,-3,14,49,27,25,19
1,14,12,-8,-5,13,-4,13,47,27,25,19
1,13,12,-7,-5,13,-5,12,45,27,25,19
5,16,10,-11,-2,14,-5,11,44,27,25,19
6,15,8,-11,0,12,-7,8,41,25,23,17
4,11,6,-8,0,8,-10,6,38,23,20,14
0,5,4,-3,-2,5,-11,4,35,21,18,12
3,4,1,-4,0,3,-11,4,33,21,18,11
14,12,-2,-13,8,4,-9,4,34,22,19,13
24,20,-4,-22,14,8,-6,3,35,23,20,14
22,20,-3,-21,13,9,-5,2,32,22,18,13
13,14,0,-14,7,7,-5,1,27,19,16,11
2,6,2,-4,0,5,-4,2,22,18,14,10
-5,0,4,2,-4,3,-3,2,19,16,13,9
-3,0,3,1,-3,2,-2,2,18,16,12,9
4,5,1,-5,1,3,0,2,17,16,12,9
11,10,0,-11,5,5,1,2,16,17,12,9
9,10,1,-10,3,5,2,3,15,17,12,9
0,3,4,-2,-2,3,1,3,12,15,10,7
-5,-2,2,4,-4,0,0,0,9,13,7,4
-1,-1,-1,1,0,0,0,-1,7,13,7,3
4,2,-4,-3,4,0,1,0,5,13,7,3
3,-1,-4,-1,3,-1,0,-1,4,11,6,2
-3,-6,-2,4,0,-3,0,-4,4,10,5,2
-4,-7,-2,5,-1,-4,-1,-5,2,10,4,2
-2,-8,-5,5,1,-7,-2,-4,-1,8,3,0
-2,-10,-8,6,3,-9,-3,-4,-3,6,2,-1
1,-7,-8,3,5,-8,0,-4,-1,7,4,0
-1,-3,-3,3,0,-3,3,-2,0,10,7,3
-15,-7,6,11,-11,0,6,-1,2,12,9,4
-21,-10,9,15,-15,0,7,0,3,13,9,4
-15,-9,5,11,-10,-2,6,0,2,14,9,3
-11,-10,1,10,-6,-4,5,0,0,12,7,1
-12,-11,1,11,-6,-6,4,-1,-4,10,4,0
-10,-11,-1,10,-4,-6,2,-3,-8,7,1,-2
-5,-8,-4,6,0,-6,1,-3,-9,6,0,-3
-3,-6,-4,5,0,-5,2,-3,-8,5,0,-2
-6,-8,-4,7,-1,-5,1,-5,-8,4,-1,-3
-9,-10,-2,10,-4,-5,1,-5,-7,4,-1,-3
-11,-10,0,11,-6,-4,1,-4,-7,4,0,-2
-12,-10,1,11,-7,-4,1,-2,-6,5,1,-1
-9,-10,-1,10,-4,-5,0,-1,-6,5,1,-2
-3,-9,-6,6,1,-7,-1,-2,-7,3,0,-4
-5,-10,-5,7,0,-7,-1,-3,-6,3,-1,-4
-10,-10,-1,10,-4,-5,0,-3,-2,5,0,-2
-9,-9,-1,9,-4,-4,0,-3,-2,6,0,-1
-8,-9,-3,9,-3,-5,0,-2,-4,5,-1,-2
-9,-12,-4,11,-2,-8,-2,-2,-6,2,-3,-4
-10,-16,-6,12,-1,-11,-3,-2,-9,1,-4,-5
-11,-17,-6,13,-2,-11,-2,-2,-9,1,-4,-4
-10,-13,-2,11,-3,-8,0,-1,-8,2,-1,-3
-9,-10,0,9,-4,-5,0,-2,-8,2,-1,-3
-10,-11,-1,11,-4,-6,0,-4,-9,1,-2,-4
-13,-13,0,13,-6,-6,-1,-6,-9,0,-3,-6
-15,-14,0,14,-8,-6,-2,-6,-9,0,-4,-7
-12,-11,0,11,-6,-5,-1,-6,-8,0,-3,-6
-7,-7,0,7,-4,-3,0,-5,-6,2,-1,-5
-5,-5,0,5,-3,-2,0,-5,-7,3,-2,-5
-4,-6,0,5,-2,-3,0,-4,-8,2,-3,-5
-4,-5,-1,4,-1,-3,0,-3,-9,1,-4,-5
-5,-6,-1,5,-2,-3,0,-4,-10,1,-4,-5
-7,-9,-2,8,-2,-5,0,-6,-11,0,-4,-6
-11,-13,-3,12,-4,-7,0,-8,-11,0,-4,-6
-13,-14,-2,13,-5,-7,0,-7,-11,0,-4,-6
-11,-12,-1,11,-4,-6,0,-6,-13,0,-4,-7
-8,-10,-2,9,-3,-6,-1,-5,-14,-1,-4,-7
-10,-12,-2,11,-3,-7,-1,-5,-14,-1,-5,-8
-13,-13,0,13,-6,-7,-1,-4,-12,-1,-5,-7
-16,-13,2,14,-9,-5,0,-3,-9,0,-4,-6
-15,-12,2,13,-8,-5,0,-2,-9,0,-4,-5
-11,-13,-2,12,-4,-8,-1,-3,-11,-2,-5,-7
-7,-11,-5,9,-1,-8,-1,-2,-12,-2,-6,-8
-2,-6,-4,4,0,-5,1,-2,-9,0,-4,-6
-3,-6,-3,4,0,-4,1,-5,-6,1,-3,-6
-8,-10,-2,9,-3,-6,0,-8,-7,0,-4,-7
-11,-14,-3,13,-4,-9,-1,-9,-11,-2,-6,-8
-11,-15,-4,13,-3,-10,-2,-7,-13,-3,-6,-8
-12,-14,-3,13,-4,-9,-1,-6,-12,-3,-6,-7
-13,-14,-1,13,-6,-8,0,-5,-12,-3,-5,-7
-13,-13,0,13,-7,-6,0,-5,-11,-2,-4,-6
-13,-11,1,12,-7,-5,0,-5,-9,-1,-3,-5
-11,-10,1,10,-6,-4,0,-6,-7,0,-2,-5
-7,-7,0,7,-4,-4,1,-6,-6,1,-1,-4
-2,-3,-1,2,0,-3,1,-5,-6,2,0,-2
0,-3,-3,1,1,-4,0,-4,-7,1,-1,-2
-2,-6,-3,4,0,-6,0,-3,-8,0,-2,-3
-5,-8,-3,6,-1,-6,0,-3,-8,0,-3,-4
-6,-7,-1,7,-2,-4,0,-3,-7,0,-2,-3
-6,-5,0,5,-3,-1,1,-1,-5,1,-1,-2
-5,-2,2,3,-4,0,1,-1,-3,2,0,-2
-4,-1,2,2,-3,0,0,-3,-2,3,0,-2
-5,-2,2,3,-3,0,-1,-6,-3,2,0,-2
-9,-5,2,7,-5,-2,-3,-8,-4,1,-1,-3
-12,-9,3,10,-7,-3,-4,-9,-4,1,-2,-3
-12,-9,3,10,-7,-3,-3,-8,-3,1,-2,-3
-9,-7,2,8,-5,-2,-4,-6,-4,1,-2,-2
-8,-7,0,8,-4,-3,-6,-6,-6,0,-3,-3
-8,-8,0,8,-3,-4,-7,-6,-8,-1,-4,-4
-8,-9,0,8,-3,-5,-8,-6,-8,0,-4,-4
-6,-5,1,6,-3,-2,-7,-5,-5,1,-1,-2
-3,0,3,2,-3,0,-5,-4,-1,4,1,0
0,2,2,-1,-1,2,-3,-3,1,5,3,0
0,1,0,-1,0,1,-4,-5,1,5,3,0
-4,-2,1,3,-2,0,-5,-6,-1,4,2,0
-5,-2,2,3,-4,1,-5,-4,-2,4,3,0
-1,2,2,0,-1,2,-4,-3,-1,5,4,1
1,3,1,-3,0,2,-5,-3,-1,6,4,1
-1,1,2,0,-1,1,-7,-5,-2,5,3,1
-6,-2,3,4,-5,0,-9,-6,-4,4,2,0
-9,-3,5,6,-7,0,-9,-6,-3,4,3,2
-7,-3,3,5,-5,0,-9,-6,-3,4,4,3
-6,-2,3,4,-4,1,-9,-7,-2,4,4,4
-9,-1,6,5,-8,3,-9,-5,0,6,6,5
-10,-2,7,6,-9,2,-9,-5,0,6,6,6
-8,-4,3,6,-6,-1,-11,-7,-2,4,5,4
-8,-6,1,7,-5,-3,-12,-7,-5,2,4,3
-7,-5,1,6,-4,-2,-11,-5,-4,3,4,4
-4,-1,2,3,-3,0,-9,-4,-2,4,6,5
0,1,1,0,-1,1,-9,-3,-1,4,6,5
1,3,1,-2,0,2,-7,-2,0,5,7,6
0,2,1,-2,0,2,-7,-2,0,5,7,7
0,2,1,-1,0,2,-7,-3,-2,4,5,6
5,4,-1,-5,3,1,-6,-3,-3,3,5,5
12,7,-5,-10,8,0,-3,-1,0,6,7,7
11,3,-7,-7,9,-2,-1,-2,2,7,8,8
2,-5,-8,1,5,-7,-4,-5,-2,3,4,4
-4,-10,-6,7,1,-8,-6,-6,-6,0,1,1
-6,-9,-2,8,-1,-5,-6,-6,-7,0,1,0
-7,-7,-1,7,-3,-4,-6,-6,-8,0,1,0
-8,-7,0,8,-4,-3,-5,-6,-8,0,0,0
-10,-6,2,8,-7,-2,-3,-5,-7,0,1,0
-12,-6,6,9,-10,0,-2,-3,-5,1,2,0
-15,-8,7,12,-11,-1,-1,-2,-5,1,1,0
-16,-12,5,14,-11,-4,-2,-3,-7,-1,0,-1
-16,-14,3,15,-10,-6,-3,-4,-7,-2,-1,-2
-15,-12,3,13,-9,-4,-1,-3,-5,-1,0,-1
-15,-11,4,12,-9,-3,0,-3,-4,0,0,-1
-17,-13,3,15,-10,-5,0,-3,-5,-1,-1,-2
-18,-17,0,17,-9,-8,-1,-4,-7,-3,-3,-5
-16,-16,0,16,-8,-8,0,-3,-7,-3,-4,-5
-12,-11,2,11,-7,-5,2,-1,-4,-1,-2,-4
-13,-9,4,11,-8,-3,4,0,-2,0,-1,-3
-17,-13,4,15,-11,-4,3,-2,-2,0,-2,-4
-22,-18,4,20,-13,-6,2,-3,-3,-1,-3,-5
-25,-20,4,22,-14,-7,1,-2,-3,-1,-3,-5
-23,-20,3,21,-12,-8,2,-2,-3,0,-3,-4
-20,-18,2,19,-10,-8,2,-2,-4,-1,-3,-4
-18,-16,2,17,-10,-7,4,-1,-4,-1,-3,-3
-18,-15,3,16,-11,-6,5,-1,-3,-1,-2,-3
-17,-14,4,15,-11,-5,6,-1,-3,0,-1,-2
-16,-13,3,14,-10,-5,6,-1,-3,0,0,-2
-15,-14,1,14,-8,-6,5,-1,-4,0,-1,-2
-13,-14,-1,13,-5,-7,4,-1,-5,-1,-2,-2
-12,-15,-3,13,-4,-9,3,-2,-5,-1,-3,-4
-14,-18,-4,15,-4,-10,2,-3,-5,-2,-4,-5
-14,-20,-6,17,-3,-13,1,-4,-7,-4,-5,-6
-12,-20,-9,16,-1,-14,0,-4,-8,-5,-6,-8
-10,-19,-10,14,0,-14,0,-3,-8,-5,-6,-9
-10,-19,-9,14,0,-14,0,-4,-8,-6,-7,-10
-12,-20,-8,16,-2,-14,0,-6,-7,-6,-8,-10
-14,-20,-6,17,-4,-13,1,-6,-6,-5,-8,-10
-15,-19,-5,16,-4,-13,2,-5,-5,-4,-7,-9
-13,-18,-5,15,-3,-12,1,-3,-6,-4,-7,-9
-12,-18,-6,14,-2,-12,1,-2,-8,-5,-7,-9
-12,-19,-7,15,-2,-13,0,-3,-10,-6,-8,-9
-12,-20,-7,15,-3,-14,0,-4,-10,-6,-8,-9
-12,-19,-7,15,-3,-14,0,-4,-10,-6,-8,-9
-10,-18,-7,14,-2,-13,1,-4,-8,-6,-7,-8
-10,-16,-6,13,-2,-11,2,-4,-6,-4,-6,-7
-11,-17,-6,14,-2,-12,1,-5,-5,-4,-6,-7
-12,-19,-7,15,-2,-13,0,-7,-7,-5,-7,-9
-15,-21,-6,18,-4,-14,-1,-6,-9,-5,-7,-9
-17,-22,-5,19,-6,-14,-1,-5,-10,-6,-7,-9
-15,-21,-5,18,-5,-13,-1,-5,-10,-6,-7,-9
-12,-19,-6,16,-3,-12,-1,-5,-9,-5,-7,-8
-10,-18,-7,14,-1,-12,-1,-4,-9,-5,-6,-8
-9,-17,-8,13,0,-13,-1,-4,-8,-5,-6,-8
-9,-17,-8,13,0,-13,-1,-4,-8,-5,-7,-8
-12,-19,-7,15,-2,-13,0,-3,-8,-5,-6,-8
-14,-20,-7,17,-4,-14,2,-2,-6,-4,-6,-8
-14,-21,-7,17,-3,-14,4,-1,-4,-4,-7,-9
-13,-21,-8,17,-2,-15,6,0,-1,-4,-9,-11
-12,-22,-9,17,-1,-15,7,0,1,-5,-10,-13
-14,-22,-8,18,-2,-15,8,0,3,-5,-10,-13
-16,-22,-5,19,-5,-14,10,0,6,-3,-7,-12
-14,-18,-4,15,-4,-11,11,3,9,0,-3,-9
-6,-11,-5,8,0,-8,12,7,12,4,1,-6
-1,-7,-6,3,3,-7,10,8,12,6,5,-2
0,-6,-7,2,3,-7,5,5,10,9,8,1
1,-4,-6,1,4,-5,-1,-1,5,11,12,5
7,1,-6,-4,7,-2,-9,-8,0,15,18,11
17,9,-8,-13,12,1,-17,-12,-3,21,26,18
31,19,-11,-25,21,4,-25,-15,-6,26,35,26
43,30,-13,-37,28,8,-35,-20,-10,32,44,34
47,36,-11,-42,29,12,-44,-30,-18,36,49,40
45,35,-10,-41,28,12,-51,-39,-33,31,48,40
47,30,-17,-39,33,7,-55,-43,-54,17,37,35
52,21,-32,-37,42,-5,-56,-43,-80,-4,19,24
55,8,-47,-32,51,-19,-56,-42,-106,-27,-2,10
56,-4,-60,-26,58,-31,-54,-43,-129,-47,-22,-4
52,-17,-69,-18,61,-43,-52,-43,-149,-65,-40,-17
43,-32,-75,-6,59,-54,-51,-45,-166,-80,-56,-29
40,-43,-82,1,61,-63,-53,-47,-178,-92,-69,-40
47,-43,-90,-2,69,-67,-55,-46,-180,-97,-76,-45
53,-38,-92,-8,73,-66,-54,-43,-171,-95,-76,-45
51,-35,-87,-8,70,-61,-54,-43,-157,-90,-74,-44
50,-31,-82,-9,67,-57,-52,-41,-144,-85,-71,-44
49,-29,-79,-10,64,-54,-49,-36,-133,-79,-68,-43
44,-31,-75,-7,60,-53,-44,-32,-123,-74,-65,-43
41,-31,-72,-5,57,-52,-39,-30,-111,-69,-62,-43
36,-29,-65,-4,51,-47,-32,-25,-97,-62,-56,-40
29,-29,-58,0,44,-44,-25,-22,-83,-55,-52,-37
26,-31,-57,2,42,-44,-22,-21,-73,-51,-49,-37
24,-30,-55,3,40,-43,-19,-18,-65,-47,-46,-36
21,-27,-50,3,36,-39,-15,-15,-57,-42,-42,-33
24,-23,-49,0,37,-36,-12,-13,-50,-39,-39,-31
30,-20,-51,-5,41,-36,-11,-13,-45,-37,-37,-30
26,-20,-46,-3,36,-33,-9,-13,-39,-32,-33,-27
12,-21,-33,4,22,-27,-6,-10,-31,-26,-27,-22
4,-19,-24,7,14,-22,-2,-7,-25,-19,-21,-17
8,-14,-23,2,16,-19,0,-5,-21,-15,-18,-15
12,-12,-25,0,19,-19,0,-5,-18,-14,-18,-15
9,-14,-24,2,17,-19,0,-6,-14,-12,-17,-15
3,-16,-19,6,11,-17,3,-3,-8,-9,-13,-12
2,-16,-18,7,10,-16,6,1,-5,-6,-11,-10
5,-14,-18,4,11,-15,7,2,-4,-6,-10,-10
4,-9,-12,2,8,-10,9,3,-1,-4,-8,-10
-6,-13,-6,9,0,-10,9,3,0,-4,-8,-10
-12,-22,-10,16,-1,-16,6,0,-1,-6,-10,-13
-6,-20,-15,12,5,-17,5,0,-1,-7,-11,-15
1,-12,-15,5,8,-13,6,0,0,-6,-11,-14
5,-7,-14,1,9,-11,6,-1,0,-6,-11,-13
1,-9,-11,3,6,-10,5,-1,-1,-7,-11,-12
-6,-13,-7,9,0,-9,6,-1,0,-7,-10,-11
-10,-15,-4,13,-3,-9,6,-4,2,-6,-9,-11
-11,-16,-4,13,-3,-10,5,-5,1,-6,-8,-11
-12,-16,-3,13,-4,-9,6,-2,1,-6,-8,-11
-12,-14,-2,13,-4,-8,6,0,2,-5,-7,-10
-9,-15,-7,12,0,-11,4,0,0,-7,-9,-12
-9,-18,-10,13,1,-14,2,-1,-4,-9,-12,-14
-13,-19,-7,16,-3,-13,2,0,-3,-8,-12,-14
-15,-18,-3,16,-5,-10,3,1,0,-7,-10,-12
-11,-13,-1,12,-5,-7,5,1,4,-4,-8,-10
-7,-9,0,8,-3,-5,6,1,7,-2,-7,-8
-2,-8,-4,5,0,-6,6,1,8,-2,-6,-7
1,-9,-9,3,5,-9,7,3,9,-1,-6,-7
0,-12,-11,5,6,-12,8,4,11,0,-5,-7
-5,-14,-10,10,3,-12,8,2,11,0,-4,-6
-13,-14,-3,13,-4,-8,8,1,9,0,-4,-6
-16,-13,2,14,-9,-5,7,3,5,-1,-4,-7
-11,-13,-2,11,-4,-7,5,3,3,-3,-6,-8
-4,-13,-8,8,2,-10,3,2,2,-5,-8,-10
-3,-14,-10,8,4,-12,2,2,2,-6,-9,-11
-3,-15,-10,9,3,-12,2,2,3,-6,-10,-11
-4,-15,-10,10,3,-12,2,2,3,-6,-11,-12
-6,-14,-9,10,1,-12,2,2,4,-6,-11,-12
-4,-12,-8,7,2,-10,3,2,5,-5,-10,-11
0,-9,-8,4,4,-8,4,2,7,-4,-9,-10
-1,-9,-8,5,4,-8,4,1,8,-3,-9,-10
-1,-10,-7,6,3,-8,3,1,9,-3,-8,-9
-1,-10,-7,6,3,-8,3,1,10,-3,-8,-9
0,-9,-7,5,3,-8,3,1,10,-3,-8,-9
-1,-8,-7,5,3,-7,3,1,11,-3,-7,-9
-1,-8,-6,5,2,-7,4,1,13,-2,-6,-9
-1,-7,-7,4,3,-6,5,3,14,-1,-6,-8
0,-5,-6,2,3,-6,5,5,14,0,-5,-7
1,-5,-6,1,3,-5,5,6,15,0,-5,-7
-1,-8,-6,4,2,-7,4,5,15,-1,-6,-7
-3,-11,-6,6,1,-8,3,5,16,-1,-6,-8
-1,-8,-6,4,2,-7,5,6,18,0,-5,-7
2,-4,-6,1,4,-5,6,8,19,0,-4,-6
3,-3,-7,0,4,-5,6,8,20,1,-4,-5
2,-6,-9,1,5,-7,6,8,21,1,-3,-5
0,-9,-10,4,5,-10,6,9,23,2,-3,-5
0,-10,-10,4,4,-9,7,9,26,2,-2,-5
0,-8,-8,3,4,-7,6,8,27,2,-2,-5
0,-7,-6,3,3,-6,5,7,28,2,-3,-5
0,-5,-6,2,3,-5,6,8,29,2,-2,-4
2,-3,-6,0,4,-4,6,10,30,3,-1,-3
3,-2,-6,0,5,-4,4,10,31,3,-2,-4
2,-1,-5,-1,4,-3,4,11,33,3,-2,-5
-1,-1,0,0,-1,-1,5,12,37,5,-1,-4
-4,-2,1,2,-3,0,5,12,38,5,0,-3
-4,-5,-1,4,-2,-2,3,12,37,4,-1,-4
1,-4,-4,1,2,-3,3,13,38,4,-1,-4
10,2,-7,-6,8,-1,5,15,42,6,0,-1
11,4,-6,-8,9,0,6,15,45,8,2,0
6,2,-3,-4,5,0,5,15,47,8,3,0
1,2,0,-2,0,1,5,16,48,9,5,1
1,4,1,-4,0,3,5,17,48,10,6,2
6,9,2,-8,1,6,5,18,50,12,7,4
5,9,4,-8,0,7,5,18,52,13,9,5
3,6,4,-5,-1,6,3,17,52,13,9,5
8,9,2,-9,3,6,3,18,53,14,10,6
12,13,2,-13,5,8,4,20,55,16,13,8
9,14,5,-11,2,9,3,20,56,17,14,9
9,14,5,-11,2,10,2,20,56,17,14,9
11,16,5,-13,3,10,2,19,58,18,14,10
7,17,9,-12,-1,13,3,19,61,19,15,11
5,17,12,-12,-4,15,3,18,63,21,16,11
8,18,10,-14,-1,14,2,15,63,21,15,11
10,18,9,-15,1,14,1,13,62,21,15,11
11,19,9,-15,1,14,1,16,59,21,16,11
12,17,6,-14,3,11,0,18,55,19,15,11
9,15,5,-12,2,10,-1,19,52,18,15,11
7,16,7,-11,0,11,-1,20,52,20,17,12
11,19,6,-16,2,12,-1,19,52,21,18,13
14,20,5,-17,4,12,-2,16,50,20,18,13
12,18,6,-15,2,12,-2,15,49,19,17,14
7,14,9,-11,-1,12,-2,15,49,19,17,14
5,11,7,-8,0,9,-4,12,47,18,16,13
9,12,3,-11,4,7,-7,8,43,16,15,12
12,15,3,-14,5,9,-8,8,40,15,15,11
11,16,4,-14,4,10,-9,9,39,16,16,12
13,16,2,-15,5,9,-9,9,39,16,16,12
17,17,0,-18,9,8,-9,8,37,15,15,12
16,17,1,-17,7,9,-7,5,36,14,14,11
6,13,8,-10,-1,10,-5,2,36,15,15,11
-5,7,14,-1,-9,10,-3,0,36,15,14,11
-5,6,12,0,-8,9,-2,1,34,15,13,11
2,8,6,-5,-1,7,-2,4,30,14,13,11
6,10,3,-9,2,7,-1,6,26,14,12,10
2,9,6,-6,-1,8,-1,6,22,12,11,9
-5,6,11,-1,-8,9,-1,7,20,11,10,7
-6,8,14,-2,-9,11,1,8,21,12,10,8
-4,12,16,-4,-10,14,3,8,22,13,11,9
-5,10,16,-2,-10,13,2,4,20,11,9,7
-7,1,9,2,-8,6,-1,-2,14,5,3,2
-9,-6,3,7,-5,-1,-5,-6,6,0,-2,-2
-4,-6,-2,4,0,-3,-5,-5,1,-2,-4,-4
4,-1,-5,-2,5,-3,-4,-3,0,-2,-5,-4
8,1,-7,-5,8,-3,-3,-3,0,-2,-5,-4
11,2,-9,-7,11,-4,-3,-4,0,-3,-6,-5
7,0,-7,-4,8,-4,-2,-4,0,-3,-6,-5
0,-3,-2,1,1,-4,0,-3,0,-2,-5,-4
-2,-4,-2,3,0,-4,0,-3,0,-2,-4,-4
0,-4,-5,1,4,-5,0,-4,-2,-2,-5,-4
0,-4,-6,1,4,-5,0,-4,-4,-2,-5,-4
-4,-6,-4,4,1,-5,0,-4,-5,-2,-5,-5
-5,-8,-4,6,0,-6,-1,-7,-5,-3,-6,-6
-5,-9,-4,7,0,-7,-1,-8,-3,-3,-6,-6
-9,-11,-1,10,-4,-7,0,-9,-1,-3,-5,-6
-12,-12,0,13,-6,-7,0,-8,-1,-3,-5,-7
-11,-10,1,11,-6,-5,2,-5,-1,-2,-4,-6
-11,-7,4,10,-7,-2,4,-1,-2,-1,-3,-4
-13,-7,6,10,-9,0,4,0,-4,0,-3,-3
-14,-9,5,12,-9,-2,3,0,-6,-2,-4,-4
-13,-13,0,13,-6,-6,1,-3,-9,-4,-6,-7
-9,-12,-3,11,-2,-8,0,-5,-10,-5,-8,-8
-7,-11,-4,9,-1,-8,0,-5,-10,-6,-8,-8
-8,-11,-3,10,-3,-8,0,-4,-10,-6,-9,-8
-10,-12,-2,12,-4,-8,0,-3,-10,-7,-9,-8
-9,-12,-3,11,-3,-8,0,-4,-10,-8,-10,-8
-9,-13,-4,11,-2,-9,0,-4,-8,-7,-9,-7
-10,-14,-3,12,-3,-9,2,-4,-6,-4,-6,-5
-12,-15,-3,13,-4,-9,4,-4,-4,-2,-5,-3
-16,-14,1,15,-8,-7,4,-4,-4,-2,-4,-3
-18,-12,6,15,-12,-4,4,-3,-6,-3,-5,-4
-16,-11,4,13,-10,-4,2,-3,-9,-5,-7,-6
-11,-11,0,11,-5,-6,1,-4,-11,-7,-9,-8
-10,-12,-2,10,-3,-7,0,-5,-11,-8,-10,-9
-9,-12,-2,10,-2,-7,0,-6,-11,-9,-11,-9
-6,-11,-5,9,0,-8,-1,-7,-12,-9,-12,-10
-3,-11,-8,7,3,-9,-2,-8,-12,-10,-13,-11
-4,-10,-6,7,1,-8,-1,-7,-12,-9,-12,-11
-6,-9,-3,7,-1,-7,0,-7,-11,-8,-11,-10
-8,-12,-3,10,-2,-8,0,-8,-11,-8,-11,-10
-12,-14,-2,13,-4,-9,-1,-9,-11,-9,-11,-10
-12,-15,-3,13,-3,-9,0,-7,-10,-8,-11,-10
-8,-12,-4,10,0,-8,1,-5,-10,-7,-10,-9
-2,-6,-4,4,2,-5,3,-2,-8,-5,-9,-7
0,-2,-3,1,2,-2,4,-2,-7,-4,-9,-6
-2,-4,-2,3,0,-2,3,-4,-7,-6,-10,-7
-5,-6,-1,6,-2,-4,2,-7,-8,-7,-10,-8
-8,-9,-1,8,-4,-5,2,-8,-7,-7,-10,-8
-10,-11,0,10,-5,-6,2,-8,-9,-8,-9,-8
-12,-13,0,12,-5,-7,1,-6,-12,-8,-9,-8
-14,-15,0,14,-6,-8,0,-5,-15,-9,-9,-8
-15,-14,0,15,-7,-7,0,-5,-14,-9,-9,-8
-13,-12,1,13,-7,-5,2,-4,-12,-7,-8,-7
-9,-8,1,9,-5,-4,3,-3,-11,-6,-7,-6
-6,-6,0,6,-3,-3,3,-3,-10,-5,-7,-6
-8,-8,0,7,-4,-5,3,-4,-9,-4,-7,-6
-13,-15,-2,13,-5,-9,2,-6,-9,-5,-8,-7
-13,-17,-4,15,-4,-11,1,-8,-8,-6,-9,-8
-10,-14,-3,12,-2,-9,2,-8,-6,-5,-8,-7
-11,-10,1,10,-5,-4,5,-5,-4,-3,-6,-4
-11,-5,6,9,-8,0,7,-1,-4,-1,-4,-3
-13,-4,8,9,-10,2,8,0,-5,-1,-4,-3
-13,-6,6,10,-9,0,6,0,-7,-3,-6,-4
-9,-9,-1,10,-4,-5,4,-2,-9,-5,-8,-6
-5,-11,-7,8,2,-10,3,-2,-10,-6,-8,-7
-2,-10,-9,6,4,-10,4,-1,-9,-5,-7,-6
-1,-7,-7,4,4,-7,5,0,-6,-3,-5,-4
-2,-5,-3,3,2,-4,5,-1,-5,-3,-4,-3
-8,-7,1,7,-4,-2,4,-2,-4,-3,-4,-4
-15,-9,6,12,-10,-1,4,-3,-4,-2,-4,-4
-17,-9,7,13,-12,0,3,-4,-3,-1,-3,-4
-16,-9,7,13,-12,-1,2,-4,-3,-1,-3,-3
-16,-7,8,12,-13,0,2,-4,-1,0,-2,-2
-13,-4,8,8,-11,2,2,-4,0,0,-1,-1
-9,-2,5,5,-7,1,2,-3,0,0,-2,-1
-6,-4,2,5,-3,-1,1,-4,1,0,-2,-2
-7,-3,4,5,-4,0,1,-5,5,1,-1,0
-10,-2,8,7,-9,2,2,-5,6,4,1,1
-12,-5,7,9,-10,0,0,-6,1,2,0,0
-10,-6,3,8,-7,-1,-3,-7,-4,0,-2,-2
-10,-3,6,6,-8,1,-3,-5,-4,1,-1,0
-11,-1,10,6,-10,4,-2,-2,-3,3,1,2
-7,1,7,3,-6,4,-2,-2,-2,4,2,2
0,3,3,-1,0,3,-2,-4,-1,3,1,2
5,1,-2,-3,4,0,-4,-7,-1,1,0,0
1,-1,-1,0,1,0,-5,-8,0,1,0,0
-7,-3,5,5,-6,1,-5,-6,0,2,1,2
-8,-2,6,5,-8,2,-5,-4,-1,2,2,2
0,0,0,-1,-1,0,-7,-5,-2,2,1,2
8,2,-5,-6,6,-1,-9,-6,-3,2,1,1
8,3,-5,-6,7,0,-10,-6,-2,2,1,2
1,2,1,-2,1,2,-9,-5,0,3,2,3
-3,0,3,2,-2,2,-10,-5,-1,2,0,3
2,0,-2,0,3,0,-11,-6,-4,1,-1,1
9,3,-6,-6,8,-1,-10,-7,-3,1,0,1
8,5,-3,-6,5,1,-8,-7,0,4,2,3
1,6,5,-4,-2,5,-4,-5,2,7,7,7
-2,10,12,-4,-7,10,0,0,5,11,12,12
-2,11,12,-5,-6,11,2,2,7,13,14,15
0,6,5,-3,-1,5,0,0,3,9,11,12
5,2,-2,-3,5,0,-4,-2,-2,5,6,8
11,5,-6,-8,10,0,-7,-3,-4,2,4,6
12,6,-6,-9,9,0,-8,-6,-5,1,1,5
8,3,-4,-5,5,-1,-8,-8,-5,0,0,3
4,0,-5,-2,4,-3,-8,-9,-5,0,-1,2
4,-2,-7,-1,5,-5,-8,-10,-6,-2,-2,0
1,-4,-5,1,3,-5,-7,-10,-8,-2,-2,0
-9,-7,1,8,-4,-3,-4,-8,-9,0,0,0
-14,-10,4,12,-8,-2,-3,-5,-9,0,0,1
-9,-9,0,10,-3,-4,-4,-6,-10,-1,-1,0
-4,-9,-4,7,0,-6,-6,-8,-10,-3,-3,-2
-3,-10,-7,7,1,-8,-7,-10,-10,-4,-4,-3
-4,-12,-8,7,1,-10,-7,-11,-9,-4,-5,-3
-5,-11,-6,7,0,-9,-6,-9,-9,-3,-4,-2
-2,-6,-3,3,1,-5,-3,-6,-6,-1,-1,0
2,0,-1,-2,2,0,0,-3,-3,2,2,3
0,0,-1,0,2,-1,1,-2,-4,1,2,3
-5,-7,-3,6,0,-5,0,-2,-6,0,0,1
-9,-11,-2,10,-3,-6,0,-2,-6,0,0,1
-12,-11,1,12,-6,-5,1,-1,-4,0,0,1
-12,-11,1,11,-6,-5,1,0,-4,0,0,1
-9,-12,-3,10,-2,-8,0,-2,-5,0,-2,0
-8,-16,-7,11,0,-11,0,-3,-5,-1,-3,-1
-12,-17,-5,14,-2,-11,0,-4,-4,-1,-2,-1
-14,-16,-2,15,-5,-9,1,-5,-4,-1,-2,-1
-9,-12,-2,11,-2,-7,1,-6,-4,-1,-2,0
-4,-9,-5,7,1,-7,1,-6,-3,-1,-2,0
-2,-9,-6,6,2,-8,0,-6,-4,-1,-2,0
-4,-11,-6,8,1,-9,-1,-5,-7,-2,-3,-1
-7,-12,-4,10,-1,-9,-1,-4,-8,-2,-4,-2
-8,-10,-2,9,-3,-6,1,-2,-6,-1,-4,-1
-6,-8,-1,7,-2,-5,4,0,-3,0,-2,0
-3,-6,-3,4,0,-4,7,0,-2,2,0,2
-2,-6,-4,4,2,-5,8,0,-2,2,1,3
-5,-8,-3,7,0,-6,7,0,-2,2,2,3
-6,-8,-2,7,-1,-5,6,-1,-3,1,2,2
-3,-4,0,3,0,-3,6,0,-3,2,3,3
-2,-2,0,2,0,-1,6,1,-3,3,4,4
-7,-6,1,6,-4,-2,5,0,-2,2,4,3
-13,-9,3,11,-8,-3,5,-2,-2,1,2,3
-13,-12,1,12,-7,-4,4,-3,-2,1,1,2
-12,-14,-2,13,-4,-7,4,-1,-4,0,0,1
-10,-12,-2,11,-4,-6,4,0,-5,0,0,1
-9,-8,0,9,-4,-3,4,0,-3,0,0,1
-7,-6,1,7,-4,-2,5,0,-1,1,1,2
-7,-5,2,6,-5,-2,5,0,-2,2,2,2
-7,-2,4,4,-5,0,6,2,-2,3,3,4
-4,1,5,1,-4,2,7,4,-2,3,4,5
-6,-1,4,3,-5,2,7,3,-2,2,3,3
-9,-3,5,6,-6,1,7,1,-1,2,3,3
-4,-1,3,3,-2,1,8,0,1,3,3,3
2,0,-2,-1,3,-1,7,-1,0,3,3,3
1,-4,-5,2,4,-5,5,-1,-3,1,1,1
-2,-8,-5,5,1,-7,5,0,-5,0,0,1
-5,-6,0,5,-2,-3,6,2,-4,1,2,2
-8,-4,3,5,-5,-1,8,4,-3,3,3,4
-9,-8,1,7,-4,-3,8,3,-3,3,3,4
-7,-11,-4,8,-1,-7,7,1,-4,2,2,3
-4,-11,-7,7,2,-8,7,0,-4,1,1,2
-1,-9,-7,5,3,-8,6,-1,-4,0,0,1
0,-8,-8,4,5,-8,4,-3,-6,-1,-2,0
4,-5,-9,1,6,-7,4,-3,-5,-1,-2,0
3,-3,-6,0,4,-5,6,-2,0,0,0,1
2,-5,-7,1,4,-6,7,0,0,0,-1,0
6,-9,-14,1,9,-12,5,0,-4,-4,-5,-5
6,-12,-19,2,12,-15,4,-1,-5,-7,-8,-8
6,-9,-16,1,11,-12,7,1,-1,-5,-6,-6
9,-2,-11,-3,10,-6,11,6,5,0,-1,-1
8,0,-8,-3,9,-4,12,7,11,4,3,1
5,-4,-8,0,7,-6,10,6,15,6,4,2
7,-4,-11,-1,9,-7,7,4,16,7,6,4
14,-1,-15,-6,15,-8,2,1,14,8,8,6
22,3,-19,-13,20,-8,-3,0,11,10,12,10
30,11,-20,-21,25,-4,-8,-1,9,14,19,16
41,20,-22,-31,32,0,-15,-3,7,19,27,24
55,30,-25,-42,40,2,-22,-5,7,25,35,31
67,40,-26,-53,47,7,-30,-11,5,31,43,39
71,45,-26,-58,49,9,-40,-22,-3,34,48,44
71,44,-26,-57,49,8,-49,-33,-23,30,45,43
68,37,-31,-53,50,2,-52,-41,-50,17,34,36
65,25,-40,-46,52,-7,-51,-44,-80,-2,16,24
64,10,-53,-38,58,-21,-46,-44,-108,-26,-5,9
64,-4,-67,-31,65,-35,-42,-45,-131,-48,-26,-5
62,-16,-78,-23,70,-47,-39,-47,-152,-65,-44,-18
58,-26,-85,-16,72,-56,-38,-48,-169,-78,-57,-28
54,-35,-91,-9,73,-63,-39,-49,-181,-87,-67,-36
53,-41,-94,-5,74,-68,-40,-51,-186,-93,-74,-42
52,-44,-96,-4,74,-70,-42,-53,-184,-95,-77,-46
54,-42,-96,-6,75,-69,-42,-51,-177,-93,-77,-46
58,-37,-95,-11,76,-66,-42,-46,-166,-89,-74,-45
56,-35,-91,-11,73,-63,-41,-43,-152,-85,-70,-45
48,-35,-84,-7,65,-59,-38,-41,-137,-78,-65,-42
43,-30,-74,-6,58,-52,-32,-36,-118,-68,-57,-37
41,-24,-66,-7,53,-46,-26,-31,-99,-58,-49,-31
35,-25,-60,-3,48,-44,-23,-28,-87,-52,-45,-29
28,-27,-55,0,42,-42,-20,-24,-77,-47,-41,-27
27,-25,-51,0,39,-39,-16,-23,-68,-42,-38,-25
27,-24,-51,-1,39,-38,-14,-22,-61,-39,-36,-24
24,-26,-50,0,36,-37,-12,-20,-56,-37,-34,-24
20,-25,-45,1,31,-34,-10,-16,-49,-32,-30,-21
19,-22,-41,1,29,-31,-8,-15,-43,-28,-27,-18
22,-18,-41,-2,32,-30,-8,-14,-37,-25,-24,-17
23,-16,-39,-3,32,-28,-6,-12,-30,-21,-20,-14
17,-15,-32,-1,25,-23,-2,-8,-24,-16,-15,-10
13,-12,-24,-1,19,-17,1,-4,-17,-11,-10,-6
12,-8,-19,-2,16,-13,3,-2,-13,-7,-6,-4
12,-7,-18,-3,15,-12,4,-2,-10,-6,-5,-4
11,-7,-19,-2,15,-13,3,-3,-9,-7,-6,-5
10,-8,-19,-1,14,-14,2,-3,-7,-7,-6,-5
10,-6,-17,-2,14,-12,4,-1,-3,-4,-4,-3
11,-6,-17,-2,14,-12,6,0,-1,-3,-2,-2
10,-8,-18,0,15,-14,5,-1,-2,-3,-3,-2
9,-9,-18,0,15,-14,5,-1,-3,-3,-3,-2
9,-8,-16,-1,13,-12,5,0,-1,-2,-2,-1
8,-6,-14,-1,11,-10,6,0,0,-1,-1,-1
9,-4,-13,-3,11,-8,6,0,2,0,0,-1
11,-1,-12,-5,11,-7,6,0,2,0,0,-1
10,-1,-12,-5,11,-7,6,1,2,0,-1,-1
7,-4,-12,-1,10,-8,5,1,2,-1,-2,-2
5,-7,-12,1,9,-10,5,0,2,-2,-3,-3
7,-9,-15,1,11,-12,4,0,1,-3,-3,-3
8,-9,-17,0,13,-13,3,0,-1,-4,-4,-4
9,-9,-17,0,13,-13,2,0,-2,-5,-4,-4
8,-8,-16,0,12,-12,2,0,-1,-5,-4,-4
7,-7,-15,0,10,-11,3,1,0,-4,-4,-4
6,-7,-14,1,9,-11,4,1,2,-4,-4,-3
4,-9,-14,2,8,-12,4,1,2,-3,-4,-3
5,-8,-13,2,9,-11,5,1,3,-2,-3,-2
6,-6,-12,0,9,-9,6,2,4,0,-1,-1
4,-6,-11,1,9,-8,6,2,5,0,-1,-1
4,-8,-13,2,9,-10,5,1,5,0,-1,-2
6,-10,-17,1,12,-13,4,1,4,-1,-1,-2
7,-10,-18,1,13,-14,3,1,4,-1,-1,-3
6,-9,-16,2,11,-13,2,1,4,-2,-2,-3
4,-8,-14,2,9,-12,2,0,4,-3,-3,-3
5,-8,-14,2,10,-12,1,0,4,-3,-3,-3
7,-9,-16,1,12,-13,2,0,5,-3,-3,-3
9,-8,-17,0,13,-12,3,1,6,-2,-2,-2
10,-6,-16,-1,14,-11,3,1,6,-2,-3,-3
10,-6,-16,-2,13,-11,2,0,6,-3,-4,-4
10,-5,-16,-2,13,-10,2,1,7,-3,-4,-4
9,-5,-15,-2,12,-10,3,1,9,-2,-4,-4
6,-5,-12,0,8,-9,4,2,11,-1,-3,-3
3,-6,-9,1,6,-8,5,2,13,0,-2,-3
4,-6,-10,1,7,-8,5,3,13,0,-2,-3
7,-5,-12,0,10,-9,5,3,13,0,-2,-3
8,-6,-14,-1,11,-9,4,4,13,0,-1,-3
10,-6,-15,-2,12,-9,4,4,12,0,-1,-4
11,-6,-16,-2,13,-10,3,4,12,0,-2,-5
10,-7,-16,-1,12,-11,2,4,13,-1,-3,-5
8,-8,-16,0,11,-12,2,4,14,-1,-2,-5
9,-8,-16,0,12,-12,2,5,15,0,-1,-4
12,-5,-17,-3,15,-11,3,6,18,0,0,-2
19,1,-17,-10,18,-7,5,8,21,2,2,1
24,7,-17,-15,20,-4,6,10,24,4,4,3
21,4,-16,-13,19,-5,5,9,25,4,4,3
14,-2,-17,-6,16,-9,2,6,24,2,3,1
11,-6,-17,-2,14,-11,1,6,24,2,2,0
11,-5,-16,-3,14,-11,2,7,26,3,4,0
11,-4,-16,-3,14,-11,3,9,28,4,5,0
11,-4,-15,-3,13,-10,3,9,29,4,5,0
9,-4,-13,-2,11,-9,3,10,31,5,5,1
8,-4,-12,-2,10,-8,3,10,33,5,5,1
11,-2,-13,-4,12,-7,4,12,35,7,6,2
8,-3,-11,-3,10,-6,5,14,38,9,7,4
7,-3,-11,-2,9,-7,5,15,41,9,8,4
13,0,-13,-7,13,-6,4,15,43,9,8,3
17,4,-13,-11,15,-5,3,15,44,9,8,3
16,3,-13,-10,15,-5,1,13,45,9,9,3
16,4,-12,-10,14,-4,0,13,45,9,9,3
16,4,-12,-10,14,-3,0,13,45,9,8,3
16,5,-11,-11,14,-2,0,14,47,10,9,4
16,7,-9,-12,13,0,1,14,50,12,10,5
15,8,-7,-12,11,1,1,15,52,13,11,6
12,6,-7,-9,9,0,0,15,51,13,11,6
8,4,-5,-6,7,0,-2,15,51,13,12,6
9,6,-3,-8,6,1,-3,16,53,15,13,8
13,10,-4,-11,8,2,-3,17,55,16,15,10
15,10,-5,-12,10,2,-3,17,56,17,16,11
14,9,-5,-12,9,2,-5,16,57,17,16,12
14,11,-3,-13,9,4,-6,15,58,18,17,12
15,14,-1,-15,8,7,-5,14,60,20,19,13
19,18,-1,-19,10,9,-4,13,61,22,21,14
23,19,-3,-21,14,8,-4,12,60,22,21,14
22,18,-4,-20,14,7,-4,13,57,21,20,14
19,16,-3,-18,11,7,-3,14,55,21,20,14
17,15,-2,-16,9,7,-2,14,53,21,20,15
15,14,0,-14,7,7,-1,13,51,21,20,15
14,14,1,-14,6,8,-2,13,50,21,20,15
15,15,0,-16,8,8,-2,13,49,21,20,15
21,20,-1,-21,11,10,-2,13,49,22,22,16
26,26,0,-26,13,12,-1,15,49,24,23,17
25,26,0,-25,12,13,-1,15,48,24,24,18
20,21,0,-20,10,11,-2,13,46,22,23,17
18,18,0,-17,9,9,-4,10,44,21,21,15
16,15,0,-15,8,8,-5,8,43,20,19,14
9,9,0,-9,5,5,-8,4,41,18,17,12
5,6,0,-6,3,4,-9,1,39,16,15,10
11,11,0,-11,6,6,-8,2,37,17,16,11
16,16,0,-16,8,7,-8,4,34,17,16,11
13,12,0,-12,6,5,-9,4,29,16,14,9
10,10,0,-10,4,5,-9,4,26,15,13,9
9,11,1,-10,3,6,-8,3,26,15,14,9
8,10,2,-8,2,6,-7,1,26,15,13,9
6,8,1,-7,2,5,-7,1,23,14,12,9
3,5,2,-5,1,4,-6,1,20,13,11,8
-1,3,4,-2,-2,4,-5,1,19,13,11,8
-3,2,6,0,-4,4,-4,0,18,13,11,8
3,7,3,-5,0,5,-3,0,17,13,12,8
11,12,1,-12,5,6,-2,2,16,13,12,8
12,13,0,-12,6,6,-2,3,14,13,12,7
13,12,-1,-12,7,5,-3,2,12,12,10,5
15,10,-4,-12,9,3,-4,0,9,11,8,3
10,7,-3,-8,6,3,-3,-1,8,10,7,3
4,4,0,-4,2,3,-2,-1,8,11,7,3
0,1,1,-1,0,2,-2,-4,8,10,6,2
-2,-1,0,1,-1,0,-3,-7,7,9,5,0
-3,-2,0,3,-2,-1,-3,-7,5,9,4,0
-4,-4,0,5,-3,-2,-1,-4,3,9,5,1
-6,-6,0,7,-3,-3,-1,-2,2,9,4,0
-7,-7,0,7,-4,-3,-1,-3,0,7,3,-1
-6,-5,1,6,-4,-1,-2,-5,0,6,1,-2
-4,-3,1,4,-3,0,-2,-5,-1,6,0,-3
-3,-1,1,2,-2,0,-2,-4,-3,5,0,-3
-5,-2,2,4,-4,0,-2,-3,-4,5,0,-3
-8,-3,4,6,-6,0,-3,-3,-5,4,-1,-4
-7,-3,4,5,-6,0,-2,-2,-6,4,-1,-4
-1,1,3,0,-2,2,-1,-1,-4,5,0,-2
6,7,2,-7,2,5,1,0,-3,7,1,-1
8,8,1,-9,4,5,1,-1,-2,7,1,0
5,4,0,-5,3,3,0,-3,-4,6,0,-1
0,0,0,0,0,1,0,-5,-6,4,-1,-2
-3,-2,0,3,-1,-1,-1,-6,-7,3,-2,-3
-5,-4,0,5,-2,-2,-2,-6,-8,2,-3,-4
-8,-7,0,8,-5,-3,-2,-5,-9,1,-4,-6
-10,-9,1,10,-6,-3,-2,-4,-9,0,-4,-6
-10,-8,1,10,-6,-3,-1,-4,-9,0,-4,-7
-7,-7,0,7,-3,-4,-1,-5,-9,0,-4,-7
-5,-7,-1,6,-2,-4,-1,-7,-9,1,-4,-7
-8,-8,0,8,-4,-3,-1,-7,-10,1,-3,-7
-10,-8,1,9,-5,-3,-1,-6,-11,1,-3,-7
-10,-8,2,9,-6,-3,-1,-6,-11,1,-3,-7
-10,-6,3,8,-6,-2,0,-5,-10,1,-3,-6
-8,-4,3,7,-6,-1,0,-4,-9,1,-3,-6
-8,-5,2,7,-6,-2,0,-3,-9,1,-4,-7
-10,-8,1,10,-6,-3,-1,-5,-9,0,-5,-8
-11,-10,1,11,-6,-4,-1,-7,-10,-1,-6,-9
-9,-8,1,9,-5,-3,0,-4,-10,0,-4,-7
-7,-4,2,6,-5,-1,2,-2,-9,1,-3,-5
-7,-5,2,6,-5,-1,1,-3,-9,0,-3,-5
-9,-5,3,7,-7,-1,1,-3,-9,0,-3,-5
-12,-5,7,8,-10,0,2,-2,-7,1,-3,-4
-13,-5,8,9,-11,1,3,-1,-7,1,-3,-5
-12,-5,7,9,-9,1,3,-1,-8,0,-3,-6
-9,-4,5,7,-7,1,3,-1,-8,0,-3,-6
-4,-1,3,2,-3,1,3,0,-7,1,-2,-5
2,0,-1,-1,2,0,2,-1,-7,0,-3,-5
2,-2,-3,0,3,-3,0,-4,-8,-1,-4,-6
-5,-5,0,4,-1,-3,0,-5,-8,-2,-5,-7
-11,-8,2,9,-6,-4,0,-6,-9,-3,-6,-7
-11,-8,2,10,-7,-3,0,-6,-9,-3,-7,-8
-10,-6,3,8,-7,-2,1,-6,-9,-3,-6,-7
-11,-7,4,9,-7,-1,1,-5,-9,-3,-6,-7
-13,-10,4,12,-9,-2,0,-5,-9,-3,-6,-8
-15,-11,5,13,-10,-3,0,-5,-8,-3,-6,-7
-15,-11,4,12,-9,-3,0,-5,-7,-3,-5,-7
-12,-10,3,10,-7,-3,0,-4,-7,-3,-5,-7
-9,-7,1,8,-5,-3,0,-4,-8,-3,-5,-7
-8,-6,1,6,-5,-2,0,-5,-7,-3,-5,-7
-7,-4,2,5,-5,-1,0,-5,-6,-3,-5,-7
-4,-2,2,3,-3,0,0,-5,-5,-2,-4,-7
-3,-2,2,3,-3,0,-1,-6,-5,-2,-4,-7
-6,-3,4,4,-5,1,0,-5,-5,-1,-3,-6
-7,0,7,4,-7,3,1,-1,-4,0,-1,-3
-8,0,8,4,-7,4,1,0,-3,1,0,-3
-7,-1,6,3,-6,2,0,-2,-3,0,-2,-5
-5,-2,3,3,-4,0,-1,-6,-3,-2,-3,-6
-4,-4,0,3,-3,-1,-2,-6,-5,-3,-4,-7
-4,-3,0,3,-2,-1,-1,-4,-6,-3,-4,-7
-6,-2,4,4,-5,2,0,-1,-6,-1,-3,-5
-8,0,8,4,-7,4,0,1,-4,0,-2,-3
-6,0,7,3,-6,3,0,0,-3,0,-3,-3
-1,0,3,0,-2,2,-2,-1,-2,-1,-3,-3
0,1,1,-1,0,1,-3,-2,-1,0,-3,-3
-2,0,2,1,-3,1,-3,-5,0,0,-2,-3
-4,-1,3,3,-4,1,-4,-7,1,0,-2,-4
-1,0,2,0,-2,1,-4,-8,1,0,-1,-4
4,4,1,-4,1,2,-4,-5,1,1,0,-3
3,6,5,-5,0,6,-3,-2,1,2,1,-1
3,10,7,-7,-1,8,-2,-1,1,2,2,0
5,10,6,-8,0,8,-2,-2,-1,2,2,0
1,7,6,-4,-2,7,-2,-3,-3,1,1,0
0,7,7,-3,-3,7,-1,-3,-2,2,1,0
1,7,5,-4,-2,7,-2,-4,-2,1,1,-1
-2,5,6,-1,-4,6,-2,-5,-3,0,0,-2
-5,5,10,0,-8,8,-1,-3,-1,1,1,0
-6,9,15,-1,-10,12,0,0,1,4,4,2
-2,12,15,-5,-8,14,1,0,2,5,5,4
3,14,11,-9,-4,12,0,0,2,5,5,4
6,13,8,-10,0,10,-2,-2,1,4,4,3
8,13,5,-11,1,9,-4,-3,1,4,4,2
10,13,3,-12,3,8,-5,-5,1,3,4,2
16,18,1,-18,7,10,-5,-5,2,4,5,3
22,23,0,-22,10,12,-4,-5,4,5,6,4
17,19,2,-18,8,11,-6,-7,2,4,4,3
8,12,4,-10,2,8,-9,-8,-1,1,2,1
4,8,4,-6,1,6,-10,-7,-5,0,1,0
8,10,2,-9,3,7,-9,-7,-5,0,1,0
14,15,1,-15,7,8,-7,-6,-3,2,3,1
15,17,1,-16,7,9,-6,-4,-3,3,3,2
9,15,6,-13,1,11,-5,-1,-3,3,4,3
3,14,11,-9,-4,12,-3,0,-3,4,4,3
4,13,9,-9,-2,10,-4,-2,-4,2,1,2
15,12,-3,-14,9,4,-8,-6,-8,-2,-3,-2
25,12,-13,-19,19,0,-11,-8,-12,-5,-6,-4
25,10,-14,-17,19,-1,-10,-7,-12,-6,-6,-4
21,9,-11,-16,16,0,-9,-6,-9,-5,-4,-2
19,11,-8,-15,14,1,-7,-7,-5,-3,-1,-1
16,11,-5,-14,10,2,-6,-7,-3,-2,0,0
13,9,-4,-12,8,2,-6,-7,-5,-3,-1,-1
11,9,-2,-10,6,3,-5,-5,-6,-3,-2,-1
12,14,1,-13,6,7,0,0,-4,0,0,1
15,17,1,-17,7,9,2,2,-3,1,1,2
12,11,-1,-12,7,5,0,-1,-6,-2,-1,-1
6,3,-3,-6,5,1,-3,-4,-8,-4,-4,-4
5,1,-4,-4,4,-1,-3,-5,-8,-5,-4,-5
2,-1,-4,-1,3,-2,-4,-6,-8,-6,-5,-6
-2,-3,-2,1,0,-3,-3,-6,-8,-6,-5,-6
-3,-3,-1,2,-1,-3,-3,-6,-8,-7,-6,-7
-2,-2,-1,2,0,-2,-2,-4,-8,-7,-6,-7
-3,-4,-1,3,0,-3,-2,-3,-8,-7,-6,-7
-6,-6,0,6,-3,-3,-1,-2,-7,-6,-6,-7
-6,-6,0,6,-3,-2,0,-1,-7,-5,-5,-7
-5,-6,0,5,-3,-2,1,-2,-7,-5,-5,-7
-2,-3,0,2,-2,-1,1,-1,-6,-4,-5,-6
1,0,-1,-1,0,0,2,0,-5,-4,-4,-5
2,-1,-3,-1,2,-3,2,-1,-6,-5,-5,-6
0,-5,-5,2,2,-5,1,-4,-6,-7,-7,-8
-1,-6,-5,3,2,-6,1,-6,-3,-6,-7,-8
-1,-7,-5,4,2,-6,3,-4,0,-4,-5,-6
-3,-10,-6,7,1,-8,5,0,-1,-2,-4,-5
-6,-11,-4,8,-1,-7,6,3,-3,-2,-4,-4
-6,-6,-1,6,-2,-3,6,3,-5,-3,-5,-5
-1,0,0,0,-1,0,5,2,-6,-5,-6,-6
3,1,-2,-3,2,0,4,1,-6,-7,-8,-8
4,1,-3,-3,3,-1,3,0,-7,-8,-9,-9
3,0,-3,-2,3,-2,2,0,-7,-8,-10,-10
3,-1,-4,-2,4,-2,2,0,-7,-8,-10,-11
4,-1,-4,-2,4,-2,2,-1,-7,-8,-9,-11
1,-3,-3,0,2,-2,2,-1,-7,-8,-8,-10
-3,-5,-1,4,-1,-2,3,-1,-6,-7,-7,-9
-5,-5,0,5,-3,-2,4,-1,-5,-6,-5,-7
-4,-5,-1,4,-2,-2,4,0,-5,-5,-4,-6
-2,-4,-2,3,-1,-2,4,-1,-6,-5,-4,-6
-2,-6,-5,4,1,-5,2,-2,-8,-6,-6,-8
-4,-11,-7,7,1,-8,0,-3,-10,-8,-7,-10
-6,-14,-6,10,0,-10,0,-3,-9,-8,-8,-10
-7,-13,-5,10,0,-8,0,-2,-8,-7,-8,-9
-6,-12,-5,9,0,-8,1,-2,-8,-8,-9,-9
-6,-13,-7,9,0,-10,0,-3,-8,-9,-9,-10
-2,-8,-7,4,2,-8,2,-1,-6,-7,-7,-8
3,-2,-6,-1,4,-4,6,2,-3,-4,-4,-5
4,-1,-5,-2,4,-3,6,2,-2,-3,-3,-4
2,-3,-5,0,2,-4,6,1,-2,-3,-3,-4
3,-1,-3,-1,3,-2,8,2,0,-1,-1,-3
6,2,-3,-4,5,0,9,3,0,0,0,-2
5,-1,-5,-2,5,-2,9,2,0,-1,0,-3
0,-6,-6,3,2,-5,8,0,-1,-2,-1,-4
-3,-10,-7,6,1,-8,6,-2,-2,-3,-2,-5
-3,-13,-11,8,3,-12,4,-4,-5,-5,-4,-7
-2,-13,-13,7,4,-13,4,-2,-7,-6,-4,-8
0,-12,-12,6,5,-12,5,0,-7,-5,-4,-7
-1,-13,-12,7,4,-12,6,1,-6,-5,-5,-7
-2,-15,-12,9,4,-13,7,2,-4,-5,-6,-8
-1,-16,-13,9,5,-14,8,3,-2,-6,-7,-9
-1,-15,-14,8,5,-13,11,4,2,-5,-6,-9
-1,-13,-11,7,4,-11,14,7,6,-2,-4,-8
-2,-9,-7,5,2,-7,18,11,11,1,-1,-5
-1,-7,-6,4,2,-6,19,14,15,3,1,-4
0,-8,-9,4,4,-8,18,14,16,4,1,-4
2,-7,-10,2,5,-8,17,14,16,6,4,-1
4,-5,-8,0,6,-6,14,13,16,9,8,3
6,-3,-8,-1,7,-5,9,9,13,12,13,7
11,0,-10,-6,11,-5,2,0,9,16,19,12
19,6,-12,-13,16,-2,-6,-7,5,20,26,19
30,16,-13,-24,21,1,-14,-10,1,25,34,26
43,26,-16,-35,29,4,-24,-14,-4,30,41,33
54,33,-19,-43,36,6,-35,-21,-14,33,46,37
61,37,-23,-49,41,6,-43,-29,-28,31,45,38
63,34,-29,-48,46,2,-46,-32,-47,21,37,35
64,26,-37,-45,50,-5,-46,-32,-69,3,23,28
63,14,-49,-39,56,-17,-46,-33,-94,-18,5,17
61,-3,-64,-29,63,-33,-47,-36,-119,-40,-14,2
61,-17,-77,-22,69,-47,-47,-38,-142,-59,-33,-11
61,-25,-86,-18,73,-55,-44,-38,-159,-73,-48,-22
61,-31,-92,-15,76,-62,-44,-38,-171,-84,-60,-31
62,-33,-95,-15,79,-65,-45,-38,-173,-89,-66,-36
60,-34,-95,-13,78,-65,-44,-37,-167,-88,-67,-37
55,-38,-94,-9,75,-66,-45,-38,-159,-87,-68,-39
53,-41,-95,-6,73,-68,-45,-39,-149,-85,-69,-42
52,-38,-91,-7,71,-64,-42,-36,-136,-79,-65,-41
53,-32,-85,-11,68,-58,-35,-29,-120,-71,-59,-37
51,-30,-81,-11,66,-55,-30,-25,-106,-65,-54,-35
43,-32,-76,-6,59,-54,-27,-22,-94,-60,-51,-34
34,-35,-69,0,52,-52,-24,-20,-83,-55,-47,-34
31,-35,-66,2,48,-50,-20,-19,-72,-49,-44,-33
28,-33,-61,2,44,-46,-15,-16,-61,-43,-40,-30
24,-31,-55,3,39,-43,-12,-13,-54,-38,-37,-28
22,-31,-53,4,36,-41,-10,-10,-49,-35,-34,-26
20,-30,-50,5,34,-40,-9,-8,-44,-31,-30,-25
18,-28,-46,4,31,-37,-7,-7,-37,-27,-26,-23
16,-26,-41,4,28,-34,-4,-5,-30,-22,-22,-19
11,-24,-33,6,22,-29,0,-2,-22,-16,-17,-15
4,-20,-23,8,13,-22,5,2,-14,-9,-11,-11
3,-17,-20,6,11,-18,8,4,-7,-5,-7,-8
9,-13,-22,2,15,-17,8,2,-4,-3,-5,-7
11,-10,-22,-1,16,-15,9,2,-2,-1,-3,-5
9,-10,-20,0,14,-14,11,5,-1,0,-1,-4
6,-12,-18,3,11,-14,11,6,0,0,-1,-4
4,-13,-17,4,10,-14,12,5,2,1,-1,-4
4,-11,-15,3,9,-13,13,3,7,2,0,-4
4,-10,-14,2,9,-12,14,2,10,4,1,-4
4,-12,-16,4,9,-13,13,3,9,3,0,-4
2,-14,-15,6,8,-14,13,5,6,3,0,-5
0,-11,-11,5,5,-10,14,8,6,5,1,-3
3,-7,-10,2,5,-8,14,9,8,7,2,-1
7,-5,-12,-1,8,-8,13,9,8,7,3,-1
10,-3,-14,-3,12,-8,12,10,7,7,3,0
12,-5,-17,-3,15,-11,10,9,5,5,2,-2
10,-8,-18,-1,14,-13,9,10,5,5,2,-3
7,-7,-15,0,11,-10,11,11,9,7,4,-1
4,-7,-11,1,7,-8,12,12,13,9,6,0
-3,-9,-6,6,1,-7,13,13,14,10,7,1
-5,-10,-5,7,-1,-7,12,12,13,11,8,2
-2,-9,-7,6,2,-8,11,9,12,10,6,0
0,-9,-9,4,4,-8,11,7,13,10,6,0
1,-8,-9,4,4,-8,12,7,14,11,5,1
0,-9,-10,4,5,-9,12,9,15,11,5,1
-3,-13,-10,8,3,-11,12,12,15,11,5,1
-7,-16,-9,11,0,-12,12,13,14,11,6,1
-7,-13,-6,10,-1,-9,12,13,14,12,8,1
-8,-6,1,7,-5,-2,14,14,17,15,11,4
-7,-1,5,4,-7,2,15,14,20,16,13,6
-3,0,2,2,-3,1,15,12,20,15,12,6
-1,-1,0,2,-1,0,15,13,18,14,11,5
-1,0,0,1,-1,0,15,15,18,15,11,5
0,-1,-2,1,0,-2,14,14,18,13,9,4
2,-3,-5,0,3,-4,12,12,16,11,7,1
6,-1,-8,-3,6,-5,12,12,17,11,7,1
7,0,-8,-3,7,-4,13,12,18,12,7,1
0,-4,-4,2,2,-5,14,12,18,12,7,1
-7,-6,0,7,-4,-4,15,12,19,12,8,1
-9,-5,4,7,-6,-1,17,13,22,14,10,3
-5,-2,3,4,-4,0,18,15,25,16,11,5
0,-1,0,1,0,-1,18,14,28,16,11,5
-1,-4,-2,3,0,-3,17,13,30,16,10,5
-2,-6,-3,4,0,-4,16,13,28,16,9,4
-2,-5,-3,4,0,-4,15,14,27,15,8,3
-5,-6,-1,5,-2,-3,14,15,27,14,8,2
-4,-6,-1,5,-1,-3,14,15,28,15,9,2
0,-3,-2,1,1,-3,14,16,27,15,10,3
0,-1,-2,0,1,-2,14,19,28,17,12,5
-4,-4,0,4,-2,-2,14,20,29,18,13,6
-4,-3,1,4,-3,-1,15,19,33,19,14,7
0,1,1,-1,-1,1,16,19,36,20,15,8
3,2,0,-3,1,1,16,19,35,19,13,7
-1,1,1,-1,-1,1,17,21,35,18,12,6
-7,-2,4,4,-6,1,18,22,38,19,13,6
-8,-4,4,5,-6,0,19,23,40,20,13,6
-6,-3,3,4,-4,0,19,23,42,20,13,6
-5,-1,4,3,-4,1,19,23,43,20,13,6
-2,-1,1,1,-1,0,18,23,43,19,12,6
0,-2,-3,1,2,-2,15,22,42,17,10,4
0,-4,-4,2,2,-3,15,21,42,17,10,3
-1,-3,-2,1,1,-2,15,22,44,18,11,4
-1,-2,-1,1,0,-2,14,22,45,19,12,4
-4,-2,1,3,-2,-1,13,22,47,20,14,5
-8,-1,7,4,-7,2,14,23,52,22,17,8
-8,2,10,2,-9,6,16,26,56,25,20,11
-4,4,9,0,-6,6,16,27,58,25,20,12
-1,3,6,-1,-3,5,14,27,58,24,19,10
0,3,4,-2,-2,4,13,26,59,24,18,9
2,6,4,-5,-1,5,14,28,61,26,19,11
4,10,5,-8,0,7,16,30,64,28,21,13
6,12,5,-10,1,8,16,30,66,28,22,13
4,11,6,-8,0,8,15,28,67,29,22,14
1,10,8,-6,-3,9,15,27,68,30,23,15
2,12,10,-7,-4,11,15,29,68,31,25,16
2,14,12,-9,-5,14,15,31,69,32,26,18
3,17,14,-11,-5,16,15,31,70,33,28,20
8,22,13,-15,-3,17,16,32,71,35,29,21
9,22,12,-15,-2,17,15,33,72,36,30,22
5,18,13,-12,-4,15,13,30,72,35,29,21
2,16,13,-9,-5,14,10,27,71,34,28,20
2,17,14,-10,-6,15,9,26,69,34,28,20
1,18,17,-10,-8,18,10,28,67,34,28,21
1,20,18,-11,-9,19,10,29,67,34,28,22
7,22,15,-14,-5,19,10,30,66,34,28,22
8,22,14,-15,-4,18,10,29,65,34,29,22
6,21,15,-14,-5,18,11,27,64,34,30,23
3,19,16,-12,-7,18,11,26,64,35,31,24
-1,17,18,-8,-10,18,10,26,62,34,30,23
-1,19,19,-9,-10,19,9,26,58,32,28,22
1,22,20,-11,-10,21,9,27,56,32,28,22
-1,21,22,-10,-11,22,9,25,55,32,28,22
0,18,18,-9,-9,19,7,21,50,30,25,20
4,17,13,-11,-4,16,4,18,46,27,23,18
6,19,12,-13,-3,16,3,18,44,27,23,18
3,17,13,-11,-4,16,3,18,44,26,23,17
0,13,13,-7,-6,14,1,14,42,24,21,15
-1,11,12,-5,-6,11,0,11,38,22,20,14
3,12,9,-7,-3,10,1,12,36,22,19,14
9,15,5,-12,2,10,1,13,34,21,19,14
10,16,6,-13,2,10,2,13,34,21,18,14
7,17,10,-13,-2,14,5,15,35,23,19,16
8,21,13,-15,-3,17,7,17,35,24,20,18
9,23,13,-17,-2,18,7,17,33,23,19,17
7,21,12,-15,-3,17,7,15,31,22,17,15
6,18,11,-13,-2,15,7,13,28,20,15,13
5,13,7,-9,-1,10,6,10,23,17,12,10
4,9,4,-6,0,6,4,7,19,14,9,7
2,8,6,-5,-1,6,5,6,17,14,8,6
-1,7,9,-4,-5,8,7,7,17,14,9,7
-6,3,10,0,-8,7,7,6,14,13,9,6
-8,1,9,2,-9,5,8,6,12,12,8,6
-8,2,9,2,-8,6,10,9,11,12,9,7
-12,0,10,5,-10,5,11,10,10,12,8,7
-11,0,11,5,-10,5,11,9,9,11,7,6
-1,8,9,-4,-5,8,11,9,9,11,7,7
6,10,4,-9,1,6,10,9,8,10,6,6
8,5,-2,-7,5,1,7,6,4,6,3,2
5,-1,-5,-3,5,-3,5,4,2,2,0,-1
3,-2,-4,-1,4,-3,5,2,2,2,0,-2
4,0,-3,-3,4,-1,6,1,2,3,0,-1
5,3,-3,-4,4,0,8,2,0,4,1,-1
3,1,-3,-2,3,0,8,3,-3,3,0,-1
2,0,-2,-1,2,-1,8,3,-4,2,0,-1
2,1,-1,-1,1,0,8,3,-1,4,1,0
0,0,0,0,0,0,8,2,1,4,2,1
3,1,-1,-2,2,0,8,2,0,3,0,0
8,3,-4,-6,6,0,8,3,0,2,-1,-1
5,2,-3,-4,4,0,7,3,-1,1,-1,-1
0,0,-1,0,0,0,8,3,0,1,-1,-1
-2,0,1,0,-1,1,10,6,1,3,0,1
-2,2,4,0,-3,3,13,10,2,5,2,3
-4,3,6,0,-5,4,14,12,2,6,4,4
-8,3,11,2,-10,6,15,12,3,7,5,4
-12,1,13,4,-12,6,15,10,3,6,4,3
-10,-1,9,4,-9,3,13,7,1,3,2,1
-6,-2,5,3,-5,1,12,4,-1,1,0,-1
-2,-1,1,1,-2,0,11,3,-3,0,-1,-2
2,0,-2,-1,2,0,11,3,-4,0,-2,-2
5,0,-6,-2,5,-3,10,3,-6,0,-4,-3
8,0,-9,-4,8,-4,9,4,-7,-1,-5,-4
8,1,-6,-5,7,-2,10,5,-5,0,-3,-3
2,1,0,-2,1,0,11,6,-2,2,-1,-1
-2,0,3,1,-2,1,11,5,-1,2,0,-1
-3,-1,4,2,-3,1,10,4,-3,1,0,-1
-8,-3,5,6,-6,0,9,5,-4,1,-1,-1
-17,-9,8,13,-12,0,10,5,-4,1,-1,-2
-20,-10,9,15,-15,0,11,5,-2,2,-1,-2
-19,-10,8,15,-14,-1,11,3,-2,1,-2,-3
-16,-12,3,14,-10,-4,9,1,-5,-1,-5,-5
-8,-10,-2,8,-3,-6,8,0,-6,-2,-5,-5
0,-4,-3,1,1,-4,10,2,-5,0,-3,-3
3,1,-1,-3,2,0,11,4,-4,2,0,-1
3,4,1,-4,1,2,11,5,-4,2,1,0
3,4,0,-4,1,2,11,5,-4,1,0,0
3,4,0,-3,1,1,11,6,-4,1,0,0
4,4,0,-4,1,2,12,8,-3,1,-1,1
4,4,-1,-4,2,2,13,8,-2,2,-1,1
6,5,-1,-5,3,2,13,8,-1,2,-1,1
6,5,0,-6,2,2,13,8,-1,2,-1,1
3,2,0,-3,1,1,12,6,-1,1,-1,0
2,-2,-3,-1,2,-3,11,5,-2,0,-2,-1
7,-1,-8,-3,7,-5,12,5,-2,0,-2,-2
8,0,-7,-4,8,-3,13,5,-1,0,-1,-1
4,1,-3,-3,4,-1,13,4,-1,0,-2,-1
0,1,-1,-1,1,0,12,4,-1,-1,-3,-2
0,0,-1,0,0,0,12,5,-1,-1,-3,-2
1,0,-1,-1,1,0,12,6,0,0,-2,-1
2,2,0,-3,1,1,12,6,0,0,-1,-1
3,5,2,-4,1,3,12,6,0,1,0,0
4,8,3,-6,1,5,12,7,0,1,0,0
6,9,3,-8,2,6,12,6,0,2,1,1
7,9,1,-8,3,5,11,5,2,2,0,1
6,9,1,-7,2,5,12,4,5,2,0,1
5,9,3,-7,1,6,13,4,6,3,0,2
5,9,3,-7,1,5,13,5,4,2,0,2
6,8,1,-7,2,4,12,6,2,1,0,0
8,7,-1,-8,5,3,11,5,2,0,-1,0
9,7,-2,-8,6,2,11,5,3,0,-2,-1
10,9,-2,-10,7,3,12,4,5,0,-2,-1
10,10,-1,-10,6,4,12,3,6,1,-1,0
8,10,1,-9,4,5,12,4,4,2,0,1
7,11,3,-9,2,7,11,6,3,2,1,2
6,12,5,-9,0,8,12,8,4,4,3,4
5,13,9,-9,-2,10,13,9,7,6,5,6
5,15,11,-10,-3,13,13,10,9,7,7,7
9,17,8,-13,1,13,11,8,9,6,6,7
16,20,3,-18,6,12,10,6,9,6,6,7
19,22,2,-21,8,13,10,6,9,7,7,7
17,20,3,-19,7,12,8,5,7,7,7,7
11,15,3,-14,3,9,6,4,5,5,5,5
7,10,3,-8,1,6,6,3,6,5,4,4
5,7,2,-6,1,3,6,3,7,5,4,4
6,6,0,-6,3,2,8,4,8,7,6,6
10,9,-1,-10,6,3,8,6,9,8,8,7
14,13,-1,-14,8,5,7,6,8,8,9,8
16,17,0,-17,8,8,3,5,4,7,8,7
16,18,1,-17,8,9,0,4,2,5,7,7
17,21,3,-19,7,12,-1,5,3,6,7,8
19,25,6,-22,6,15,0,5,7,7,8,9
19,27,8,-23,6,17,1,4,11,8,8,9
22,28,7,-25,8,17,1,3,12,7,8,9
27,30,4,-29,12,16,0,2,8,6,7,8
32,33,2,-32,15,17,-1,3,3,5,6,8
34,35,2,-34,15,18,-1,4,1,5,6,8
28,37,9,-32,9,22,2,7,3,8,8,11
21,37,16,-29,2,26,4,8,6,10,9,12
20,35,15,-28,2,25,3,5,7,8,7,10
20,30,10,-25,4,20,0,0,5,5,4,7
16,22,6,-19,4,13,-4,-2,2,2,2,4
20,21,1,-20,9,10,-4,-2,1,2,2,4
29,28,0,-28,14,13,-1,0,2,4,4,7
34,32,0,-33,17,15,-1,2,1,5,6,8
30,29,0,-30,15,14,-3,2,0,4,6,7
24,26,3,-25,10,14,-3,3,0,5,7,8
21,25,4,-23,8,14,-2,3,4,5,7,8
20,22,2,-21,9,12,-3,0,5,3,4,5
19,19,0,-19,9,9,-4,-2,3,1,1,3
17,17,0,-17,8,8,-3,-1,1,0,0,2
10,14,5,-12,2,9,-1,1,1,1,2,3
5,12,7,-9,-1,9,1,2,1,2,4,5
8,11,5,-10,1,8,2,1,0,2,5,6
10,9,0,-10,5,4,2,0,-3,0,2,4
11,8,-3,-10,7,2,2,0,-5,-2,0,3
9,9,0,-9,4,4,6,0,0,0,2,5
7,8,1,-8,3,4,7,-2,3,1,3,5
9,6,-2,-8,6,2,7,-4,2,0,2,3
9,7,-1,-8,5,3,8,0,-1,0,2,2
7,8,2,-8,2,5,9,4,-3,1,3,3
8,8,0,-8,4,4,9,6,-3,1,2,3
8,6,0,-7,4,3,9,7,-1,1,2,3
6,8,1,-7,3,4,11,8,3,3,4,5
9,10,0,-9,5,5,11,9,5,4,5,5
13,11,-3,-12,9,3,9,8,3,2,3,4
13,9,-4,-11,9,2,7,6,0,1,1,2
10,6,-3,-8,7,2,7,5,-1,0,1,1
7,6,0,-7,3,3,10,5,1,2,2,1
6,7,2,-7,1,5,12,5,3,3,3,2
7,9,2,-8,2,6,13,3,4,3,4,2
9,11,2,-10,4,6,12,0,6,3,3,2
6,9,2,-8,2,5,12,-1,5,3,3,2
4,8,2,-6,1,5,12,1,3,2,2,2
8,9,1,-8,3,5,12,4,1,2,2,2
8,8,0,-8,3,4,12,5,0,2,2,2
5,8,3,-7,1,5,13,6,1,2,3,3
6,12,6,-10,0,9,15,9,2,4,5,5
6,14,8,-10,-1,11,16,12,4,5,6,7
1,11,10,-6,-4,10,16,13,4,5,5,6
0,9,8,-5,-3,8,15,12,5,4,4,4
4,10,6,-7,-1,8,14,9,7,4,3,3
5,12,7,-9,0,10,14,7,7,4,3,3
9,15,6,-12,1,10,14,6,5,4,3,3
12,16,5,-14,3,10,14,6,4,3,3,3
12,14,4,-13,3,9,13,4,3,2,2,2
10,12,2,-11,3,7,12,3,1,0,0,1
9,10,0,-10,4,5,10,4,0,-1,-2,0
8,9,0,-8,3,4,10,5,-1,-1,-3,-1
5,9,4,-7,0,6,11,5,-1,0,-2,0
3,11,8,-7,-3,9,11,6,0,0,0,1
0,12,12,-6,-6,12,12,6,1,2,1,2
-1,12,15,-6,-8,14,13,6,2,2,2,2
1,13,14,-7,-7,14,12,5,3,1,1,1
5,14,11,-9,-4,13,12,3,3,0,0,0
9,16,8,-13,0,12,11,4,2,0,0,0
11,16,5,-14,3,11,10,4,0,0,0,0
10,16,5,-13,3,11,11,5,-1,0,0,0
9,17,8,-13,1,13,13,6,1,1,0,1
6,16,11,-11,-2,14,14,6,2,1,0,1
3,14,12,-9,-4,13,13,5,2,0,-2,0
1,13,13,-7,-6,13,12,5,3,0,-2,-1
1,12,12,-7,-6,12,12,5,3,0,-2,-1
0,11,11,-6,-5,11,12,5,3,-1,-2,-1
-1,9,9,-4,-5,9,11,4,3,-2,-3,-2
-3,7,9,-2,-6,8,12,4,4,-2,-4,-3
-5,6,10,-1,-7,8,15,5,8,-2,-4,-3
-5,7,11,-1,-8,9,17,8,11,-1,-3,-3
-4,9,12,-2,-8,10,19,10,13,0,-1,-2
-2,12,15,-5,-8,13,19,12,16,2,1,-1
0,15,17,-7,-9,16,19,14,20,5,3,1
0,16,17,-8,-9,17,19,16,23,7,6,3
2,19,16,-11,-7,18,19,17,26,10,10,7
7,24,15,-16,-4,19,16,16,27,13,16,13
13,27,13,-21,0,19,11,13,26,17,21,18
19,31,11,-26,4,20,4,8,24,19,26,23
27,37,10,-33,9,23,-3,4,22,23,33,29
37,44,9,-41,14,27,-10,0,20,28,40,36
47,53,8,-50,19,31,-17,-4,16,33,47,43
57,63,6,-60,25,35,-26,-12,5,36,52,49
68,69,1,-68,33,36,-35,-24,-14,34,50,49
73,69,-4,-71,38,33,-38,-33,-38,25,41,44
69,61,-9,-65,39,26,-35,-36,-65,9,26,34
63,44,-19,-54,41,13,-29,-36,-93,-15,4,19
59,24,-34,-42,47,-5,-25,-36,-120,-41,-20,0
52,4,-47,-28,49,-21,-25,-38,-144,-64,-42,-17
43,-11,-53,-16,48,-32,-25,-41,-162,-80,-60,-31
38,-19,-57,-9,47,-38,-24,-43,-171,-89,-70,-39
35,-23,-58,-5,46,-40,-22,-44,-173,-94,-76,-44
31,-27,-59,-2,45,-43,-22,-45,-169,-96,-80,-48
32,-26,-59,-3,46,-42,-21,-43,-163,-94,-79,-48
35,-21,-56,-7,46,-38,-21,-38,-153,-89,-75,-46
38,-15,-53,-11,46,-34,-21,-34,-141,-83,-70,-43
39,-11,-50,-14,45,-30,-21,-32,-128,-76,-66,-41
34,-13,-46,-10,40,-29,-21,-31,-115,-71,-64,-40
28,-14,-41,-7,35,-28,-19,-30,-102,-64,-59,-38
25,-11,-36,-7,30,-23,-17,-26,-88,-58,-53,-34
22,-9,-31,-6,26,-20,-15,-22,-76,-52,-48,-31
18,-10,-28,-4,23,-19,-13,-19,-66,-46,-42,-28
15,-10,-26,-3,20,-18,-12,-18,-56,-40,-36,-24
14,-5,-19,-5,16,-12,-10,-18,-44,-34,-29,-20
16,5,-10,-11,13,-2,-6,-17,-32,-27,-22,-14
20,14,-5,-17,13,5,-2,-13,-22,-20,-15,-9
15,13,-1,-14,8,6,0,-8,-19,-16,-12,-7
