leadI,leadII,leadIII,leadaVR,leadaVL,leadaVF,leadV1,leadV2,leadV3,leadV4,leadV5,leadV6
0,-2,-2,1,1,-2,2,2,1,0,-1,-2
0,-6,-7,3,3,-6,5,5,3,-1,-4,-5
0,-8,-9,4,5,-8,7,7,5,-2,-5,-7
1,-9,-11,4,6,-9,9,8,6,-3,-6,-8
1,-10,-11,4,6,-10,10,9,6,-3,-7,-8
0,-11,-12,5,6,-11,10,10,7,-3,-7,-9
0,-11,-12,5,6,-11,11,10,7,-3,-7,-9
0,-11,-12,5,6,-11,11,11,8,-2,-6,-9
0,-11,-12,6,5,-11,11,11,8,-2,-6,-9
0,-11,-12,5,6,-11,11,11,8,-3,-6,-9
1,-11,-13,5,7,-12,11,11,8,-3,-6,-9
1,-12,-13,5,7,-12,11,11,8,-3,-6,-9
1,-12,-13,5,7,-12,11,11,8,-3,-6,-9
1,-12,-13,5,7,-12,11,11,8,-3,-6,-9
2,-12,-14,5,8,-12,11,11,7,-3,-6,-10
1,-12,-14,5,8,-13,11,11,7,-3,-6,-10
1,-12,-14,5,8,-13,10,11,7,-3,-6,-10
1,-12,-14,5,8,-13,10,11,7,-3,-7,-10
1,-12,-14,5,8,-13,10,11,7,-3,-7,-10
2,-12,-14,5,8,-13,10,11,7,-3,-7,-10
2,-12,-14,5,8,-12,10,11,7,-3,-7,-10
0,-13,-13,6,7,-12,10,11,8,-3,-7,-10
-1,-13,-12,7,6,-12,11,11,8,-2,-6,-10
-1,-13,-12,7,6,-12,11,11,9,-2,-6,-10
0,-13,-14,6,7,-13,11,11,8,-3,-7,-10
1,-14,-15,6,8,-14,10,11,8,-3,-7,-11
1,-14,-15,6,8,-14,9,11,8,-3,-8,-11
1,-14,-15,6,8,-14,9,11,8,-3,-8,-11
1,-14,-15,6,8,-14,9,11,8,-3,-8,-11
0,-14,-14,7,8,-14,9,11,8,-3,-8,-11
0,-14,-14,7,7,-14,9,11,8,-3,-8,-11
-1,-15,-13,8,6,-14,9,11,8,-3,-8,-11
-2,-15,-13,9,5,-14,9,11,9,-3,-8,-10
-2,-15,-13,9,5,-14,9,11,9,-3,-8,-10
-3,-15,-13,9,5,-14,9,11,9,-3,-8,-10
-2,-15,-13,8,6,-13,10,12,10,-3,-7,-9
-1,-14,-13,7,7,-13,10,12,10,-3,-7,-9
1,-13,-14,6,8,-13,10,12,10,-3,-7,-10
2,-13,-15,5,9,-13,10,12,10,-3,-8,-10
3,-13,-16,5,9,-14,10,12,9,-3,-8,-11
3,-13,-16,5,9,-14,10,12,9,-3,-8,-11
3,-13,-17,4,10,-14,9,12,9,-3,-8,-11
3,-13,-17,4,10,-14,9,12,9,-3,-8,-11
3,-14,-17,5,10,-14,9,12,9,-3,-9,-11
2,-14,-16,6,9,-15,9,12,9,-3,-9,-11
1,-15,-16,7,8,-15,9,12,9,-3,-9,-11
1,-15,-15,7,8,-15,9,12,9,-3,-9,-11
0,-15,-15,7,8,-15,9,12,10,-3,-9,-11
0,-14,-14,7,7,-14,9,13,10,-3,-8,-10
0,-13,-13,7,7,-13,9,14,11,-2,-8,-10
0,-13,-13,6,7,-13,10,14,11,-2,-8,-9
2,-13,-14,5,8,-13,9,14,11,-2,-8,-9
3,-12,-15,5,9,-13,9,14,11,-2,-8,-9
3,-12,-15,5,9,-13,9,15,11,-2,-7,-9
3,-13,-16,5,9,-14,9,14,11,-2,-8,-9
3,-13,-17,5,10,-15,8,14,11,-3,-8,-10
3,-13,-17,4,10,-15,9,14,11,-3,-8,-10
3,-12,-16,4,10,-14,9,14,12,-3,-8,-10
3,-12,-16,4,10,-14,10,14,12,-3,-8,-10
4,-12,-16,3,10,-14,10,14,12,-2,-8,-9
4,-12,-16,3,11,-14,10,14,12,-2,-8,-9
4,-12,-16,4,11,-14,10,14,12,-2,-8,-10
3,-14,-17,5,10,-15,10,14,12,-2,-9,-10
3,-15,-18,6,10,-16,10,15,13,-2,-9,-11
3,-16,-19,6,11,-17,10,17,14,-2,-9,-11
3,-17,-20,6,12,-18,10,19,17,-1,-10,-12
1,-18,-20,8,11,-18,11,21,19,0,-11,-13
0,-19,-20,9,11,-19,11,24,22,1,-11,-14
0,-19,-20,9,11,-19,12,27,27,4,-9,-14
1,-19,-20,9,11,-19,13,29,31,9,-7,-13
2,-17,-20,7,11,-18,12,31,36,15,-3,-11
4,-13,-18,4,11,-16,11,33,42,23,2,-7
7,-9,-17,1,12,-13,10,35,49,33,9,-1
10,-4,-15,-3,13,-10,8,37,57,45,18,4
14,1,-13,-8,14,-5,6,40,68,59,29,12
20,9,-11,-15,15,0,4,45,80,76,43,21
25,18,-7,-22,16,6,1,48,91,93,57,31
29,27,-2,-28,16,13,-3,47,100,110,72,42
31,36,4,-33,14,20,-8,41,103,126,86,52
33,44,11,-38,11,28,-13,30,102,139,99,62
34,53,19,-43,8,37,-18,18,97,150,111,72
35,63,28,-49,4,46,-23,6,92,158,123,82
33,72,39,-52,-2,56,-27,-7,81,157,129,90
26,78,52,-52,-12,66,-32,-27,60,143,128,95
15,82,66,-49,-25,75,-36,-50,31,120,121,97
4,86,81,-45,-38,84,-39,-70,1,91,110,97
-5,88,94,-41,-49,91,-41,-86,-28,61,97,96
-12,90,103,-39,-57,96,-44,-99,-56,32,84,94
-16,90,108,-37,-61,99,-47,-110,-82,5,72,91
-19,89,108,-35,-63,99,-49,-117,-101,-16,60,86
-19,86,105,-33,-61,96,-50,-118,-113,-31,49,80
-18,80,97,-31,-57,89,-49,-114,-117,-42,39,72
-18,69,86,-26,-52,79,-46,-105,-115,-48,27,61
-17,56,73,-19,-45,65,-40,-93,-109,-52,16,48
-16,43,60,-13,-38,52,-34,-79,-100,-54,5,34
-16,31,47,-7,-32,39,-28,-67,-90,-54,-3,23
-15,21,36,-3,-26,29,-23,-56,-81,-53,-10,13
-13,13,26,0,-20,20,-17,-46,-72,-51,-15,6
-11,6,18,2,-14,12,-13,-38,-63,-49,-18,0
-11,1,11,4,-11,7,-9,-31,-56,-46,-20,-4
-10,-3,6,6,-8,2,-6,-24,-49,-43,-21,-6
-9,-5,3,7,-6,0,-5,-20,-43,-40,-20,-7
-8,-6,1,7,-5,-2,-4,-16,-38,-36,-19,-7
-6,-5,0,5,-3,-2,-3,-13,-33,-32,-16,-5
-4,-3,1,4,-3,-1,-2,-11,-28,-28,-14,-4
-3,-1,1,2,-2,0,-2,-9,-24,-25,-11,-2
-1,0,2,0,-1,2,-2,-8,-21,-23,-9,0
0,3,3,-1,-1,4,-2,-8,-18,-21,-8,1
0,5,4,-2,-2,5,-3,-9,-17,-19,-7,2
-1,5,6,-2,-3,6,-4,-10,-16,-18,-6,3
-2,5,7,-1,-4,7,-5,-11,-15,-17,-6,3
-2,6,8,-2,-5,7,-5,-11,-15,-16,-5,4
-2,6,9,-2,-5,8,-5,-11,-14,-16,-5,4
-2,7,9,-2,-6,8,-5,-11,-14,-15,-4,4
-2,7,10,-3,-6,9,-6,-11,-13,-15,-3,5
-2,8,10,-3,-5,9,-6,-11,-13,-15,-3,5
-2,8,10,-3,-5,9,-6,-11,-13,-15,-3,5
-2,8,10,-3,-6,9,-6,-11,-13,-15,-3,5
-2,8,11,-3,-6,9,-6,-12,-13,-15,-3,5
-2,8,10,-3,-6,9,-6,-12,-13,-15,-3,5
-2,8,10,-3,-6,9,-7,-13,-13,-15,-4,5
-3,7,10,-2,-7,9,-7,-14,-13,-15,-4,5
-3,8,10,-2,-7,9,-7,-14,-13,-15,-4,5
-3,8,11,-3,-7,10,-7,-14,-13,-15,-4,6
-3,9,11,-3,-7,10,-7,-14,-13,-15,-4,6
-2,9,11,-4,-6,10,-7,-14,-14,-15,-4,6
-1,10,10,-4,-6,10,-8,-15,-14,-15,-4,6
-1,10,11,-5,-6,11,-8,-15,-14,-15,-3,6
-1,10,12,-5,-6,11,-8,-15,-14,-14,-3,7
-2,10,12,-4,-7,11,-8,-15,-14,-14,-2,7
-2,10,12,-4,-7,12,-8,-16,-14,-14,-2,8
-2,11,12,-5,-7,12,-8,-16,-14,-14,-1,8
-2,11,12,-5,-7,13,-9,-17,-14,-14,-1,8
-2,11,12,-5,-7,13,-9,-18,-15,-14,-1,8
-2,11,13,-4,-7,13,-10,-18,-15,-15,-1,8
-2,11,13,-4,-8,13,-10,-19,-15,-15,0,8
-2,12,14,-5,-8,13,-10,-19,-15,-15,0,9
-2,13,14,-5,-8,14,-10,-19,-16,-15,0,9
-1,14,14,-6,-7,14,-10,-19,-16,-14,0,10
0,15,14,-7,-7,15,-10,-20,-16,-14,1,11
-1,14,15,-7,-7,15,-11,-20,-16,-14,1,11
-2,14,16,-7,-8,16,-11,-21,-16,-14,1,11
-2,14,16,-6,-8,16,-12,-21,-17,-14,1,11
-2,14,16,-6,-8,16,-12,-21,-17,-14,1,11
-2,14,16,-7,-8,16,-12,-22,-18,-14,1,11
0,16,16,-8,-8,16,-12,-22,-18,-14,2,12
0,17,16,-9,-8,17,-13,-22,-18,-14,2,13
0,18,16,-9,-8,18,-13,-22,-18,-14,2,13
0,18,17,-9,-8,18,-14,-23,-19,-14,2,13
-1,18,18,-9,-9,19,-14,-24,-19,-14,3,14
-1,19,19,-9,-9,20,-14,-24,-19,-14,3,15
-2,19,21,-9,-10,21,-14,-24,-20,-14,4,15
-2,19,21,-9,-11,21,-14,-24,-20,-14,4,16
-1,20,22,-9,-11,21,-15,-25,-21,-15,4,16
-2,20,22,-9,-12,22,-15,-26,-21,-15,4,16
-2,21,23,-9,-12,22,-16,-27,-22,-15,4,17
-1,21,23,-10,-12,22,-16,-28,-22,-15,4,17
-1,22,23,-11,-11,22,-17,-29,-23,-15,5,17
-1,22,23,-11,-12,23,-17,-30,-23,-15,5,17
-1,22,23,-11,-12,23,-18,-30,-24,-15,5,17
-1,23,24,-11,-12,24,-18,-30,-24,-15,5,17
-2,23,25,-10,-13,24,-19,-31,-25,-15,6,17
-3,23,26,-10,-14,25,-19,-31,-26,-15,6,18
-4,23,27,-9,-15,26,-20,-32,-27,-15,6,18
-4,24,28,-10,-16,26,-20,-33,-28,-15,6,19
-3,25,29,-11,-16,27,-21,-33,-28,-15,7,19
-3,27,30,-12,-17,29,-21,-34,-29,-15,8,20
-2,29,31,-13,-17,30,-21,-35,-29,-15,9,22
-2,30,32,-14,-16,31,-21,-36,-30,-15,9,23
-2,30,32,-14,-16,32,-22,-37,-30,-15,10,23
-2,30,32,-14,-16,32,-22,-38,-31,-15,10,24
-1,31,33,-15,-16,33,-23,-39,-32,-15,11,24
-1,31,33,-15,-16,33,-24,-41,-33,-15,11,25
-1,32,34,-16,-17,33,-24,-42,-33,-15,12,25
-2,33,35,-16,-18,34,-25,-42,-34,-15,13,26
-2,34,37,-16,-19,36,-25,-43,-34,-15,14,27
-3,36,38,-17,-20,37,-25,-43,-34,-15,15,28
-3,37,40,-17,-21,39,-26,-44,-35,-15,15,29
-4,37,41,-16,-22,40,-26,-45,-36,-15,15,30
-5,37,42,-16,-23,40,-27,-47,-37,-15,16,30
-6,38,44,-16,-25,41,-28,-48,-38,-15,17,31
-6,39,45,-16,-26,42,-28,-50,-39,-15,17,32
-6,39,46,-17,-26,43,-29,-51,-40,-16,18,33
-4,41,46,-18,-25,44,-30,-52,-41,-16,19,34
-2,43,47,-20,-24,45,-31,-53,-42,-16,20,35
-1,46,47,-22,-23,47,-31,-53,-42,-15,21,37
0,48,48,-23,-23,49,-31,-54,-43,-15,22,38
0,50,49,-24,-24,50,-31,-55,-43,-15,23,40
-1,51,51,-25,-25,52,-32,-56,-44,-15,24,41
-1,52,53,-25,-26,53,-32,-57,-45,-15,24,42
-2,52,54,-25,-27,53,-33,-58,-46,-15,25,42
-3,52,55,-25,-28,54,-34,-60,-47,-16,25,43
-3,53,57,-25,-29,55,-35,-61,-48,-16,26,45
-4,54,58,-24,-30,56,-37,-63,-50,-16,26,46
-4,54,58,-24,-30,57,-38,-65,-51,-17,26,46
-4,56,59,-25,-30,58,-38,-66,-52,-17,27,47
-2,58,59,-28,-30,60,-39,-67,-53,-17,28,48
0,60,60,-29,-30,61,-39,-68,-53,-17,29,49
-1,61,61,-30,-31,61,-39,-69,-54,-17,29,50
0,62,63,-30,-31,62,-40,-69,-55,-17,30,51
0,64,64,-31,-31,64,-40,-70,-55,-16,31,52
0,65,65,-32,-32,65,-41,-71,-56,-16,32,54
0,66,66,-32,-32,67,-41,-72,-56,-16,33,55
0,66,67,-32,-33,67,-42,-73,-57,-16,34,55
-1,66,67,-32,-33,68,-43,-74,-58,-16,34,56
-1,66,68,-32,-34,68,-44,-75,-59,-16,35,57
-1,67,69,-33,-34,69,-44,-76,-60,-16,35,58
-1,69,70,-34,-35,70,-44,-76,-60,-16,36,59
0,70,71,-34,-35,71,-44,-76,-61,-16,37,60
0,71,72,-35,-35,72,-45,-76,-61,-16,37,61
0,72,72,-35,-35,73,-45,-77,-61,-16,38,62
0,73,73,-35,-35,73,-45,-77,-61,-16,38,62
0,73,73,-36,-35,74,-46,-77,-62,-16,38,62
0,73,73,-36,-35,74,-46,-78,-62,-16,38,62
0,73,73,-36,-35,73,-46,-78,-62,-16,39,62
1,74,72,-37,-35,73,-46,-78,-62,-16,39,62
1,74,72,-37,-35,73,-46,-78,-61,-16,39,63
1,75,72,-37,-35,74,-46,-77,-61,-16,40,63
1,75,72,-37,-35,74,-46,-76,-60,-15,40,63
1,75,72,-37,-34,74,-46,-75,-60,-15,40,64
2,75,72,-38,-34,74,-45,-75,-59,-14,40,64
3,75,71,-39,-33,74,-45,-74,-59,-14,40,64
5,75,70,-40,-32,74,-44,-73,-58,-14,40,64
5,75,69,-40,-32,73,-44,-72,-57,-13,40,64
5,74,69,-39,-31,72,-43,-71,-56,-13,40,64
5,73,68,-38,-31,71,-43,-69,-55,-13,39,64
5,73,67,-38,-30,70,-43,-68,-54,-13,39,64
6,72,66,-38,-29,69,-42,-66,-53,-13,39,63
6,71,64,-38,-29,68,-42,-63,-51,-12,39,63
6,70,63,-38,-28,67,-41,-61,-49,-12,39,62
8,70,61,-38,-27,67,-40,-58,-47,-11,39,62
10,70,60,-39,-25,66,-39,-56,-46,-10,39,61
12,70,58,-40,-22,65,-39,-54,-44,-9,39,61
14,69,56,-40,-21,64,-38,-52,-42,-8,39,60
15,69,54,-41,-19,63,-38,-50,-41,-8,39,60
15,68,52,-40,-18,60,-38,-48,-39,-8,38,58
15,66,50,-39,-17,58,-38,-46,-38,-8,37,57
16,65,48,-39,-16,57,-37,-44,-37,-7,37,56
17,63,46,-39,-14,55,-37,-43,-35,-7,36,55
17,61,44,-38,-13,54,-37,-42,-34,-7,35,54
17,59,43,-37,-13,52,-37,-41,-33,-7,34,53
17,57,41,-37,-11,50,-37,-39,-32,-6,33,52
18,56,38,-37,-9,48,-37,-37,-30,-6,32,51
20,56,35,-38,-6,46,-37,-34,-28,-5,31,50
21,54,32,-37,-4,44,-36,-31,-26,-4,31,49
21,52,30,-36,-3,41,-35,-28,-23,-4,30,47
22,50,27,-36,-1,39,-34,-24,-21,-3,30,46
23,48,25,-35,0,37,-32,-21,-18,-1,30,45
23,46,23,-34,0,36,-30,-18,-15,0,30,44
22,44,21,-32,1,33,-29,-16,-13,1,29,43
24,41,17,-31,4,29,-29,-14,-12,1,27,41
26,39,13,-32,6,27,-28,-11,-10,1,25,39
27,38,11,-32,8,25,-26,-7,-7,2,24,38
27,36,8,-31,9,23,-24,-4,-4,2,23,36
27,34,6,-30,10,21,-23,-1,-2,2,22,34
27,31,3,-28,11,18,-21,1,0,3,20,32
27,28,1,-27,12,15,-19,3,1,3,19,30
26,25,0,-25,13,13,-17,5,3,4,17,28
24,21,-2,-22,13,10,-15,6,4,4,16,26
22,17,-4,-19,14,7,-14,8,5,3,14,24
20,14,-6,-17,14,4,-13,9,6,3,12,22
20,12,-8,-16,15,3,-12,10,7,3,11,20
19,11,-9,-15,14,2,-10,12,8,3,10,18
18,9,-9,-13,14,1,-9,13,9,2,8,16
17,7,-10,-12,13,0,-7,13,9,2,6,14
16,5,-10,-10,13,-1,-6,13,10,2,5,13
15,3,-10,-9,13,-2,-5,14,11,2,3,11
13,1,-11,-7,12,-4,-4,15,12,2,2,10
13,0,-12,-6,13,-6,-3,16,13,2,1,8
13,-1,-14,-5,13,-7,-2,17,13,2,1,7
13,-1,-15,-5,14,-7,-1,17,14,2,0,6
12,-2,-15,-4,14,-8,0,18,15,2,0,5
11,-3,-15,-3,13,-8,1,18,16,2,-1,4
11,-4,-16,-3,14,-9,2,18,16,2,-2,4
11,-5,-16,-2,14,-9,3,18,17,3,-3,3
11,-5,-16,-2,14,-10,4,18,17,3,-3,2
10,-6,-16,-1,13,-10,5,18,18,3,-4,2
9,-7,-16,0,12,-10,5,18,18,3,-4,1
7,-8,-16,1,11,-11,6,18,18,3,-5,0
6,-9,-16,2,11,-12,6,19,18,3,-5,0
5,-10,-16,3,10,-12,7,19,19,3,-5,0
4,-11,-16,4,10,-12,8,19,19,3,-6,-1
3,-12,-15,5,10,-13,8,19,19,3,-7,-1
3,-13,-15,5,9,-13,8,19,19,3,-8,-2
2,-13,-15,6,9,-14,8,19,19,2,-9,-2
2,-14,-15,6,8,-14,8,18,19,2,-10,-3
2,-14,-15,6,9,-14,9,18,19,1,-10,-3
2,-14,-15,6,9,-14,9,18,19,1,-10,-4
1,-14,-15,7,8,-14,10,19,19,2,-10,-4
0,-14,-14,7,8,-14,10,19,19,2,-10,-5
0,-14,-14,8,7,-13,11,19,19,2,-10,-5
0,-14,-14,8,7,-13,11,19,19,3,-10,-5
0,-14,-14,8,7,-13,11,18,19,3,-10,-5
0,-15,-15,8,8,-14,11,18,19,2,-10,-6
0,-15,-15,8,8,-14,11,18,18,2,-10,-6
0,-15,-15,8,8,-15,11,18,18,2,-10,-6
0,-16,-16,8,8,-15,11,17,18,2,-11,-6
0,-16,-16,8,8,-15,11,17,18,1,-11,-7
0,-16,-16,8,8,-15,11,17,18,1,-11,-7
0,-16,-15,8,8,-15,11,17,18,1,-12,-7
0,-16,-15,8,7,-15,11,17,18,1,-12,-7
0,-15,-15,8,7,-15,11,17,18,1,-12,-7
0,-15,-15,8,8,-14,11,17,19,1,-12,-7
0,-15,-15,8,7,-14,11,18,19,2,-12,-6
-1,-15,-14,8,7,-14,11,18,19,2,-12,-6
-2,-16,-14,9,6,-14,11,18,18,2,-12,-7
-2,-17,-15,10,7,-15,11,18,18,2,-12,-7
-1,-16,-15,9,7,-15,12,18,18,2,-12,-7
0,-15,-15,8,8,-14,12,18,18,2,-12,-7
0,-15,-15,8,8,-14,12,18,18,2,-12,-6
0,-16,-15,8,7,-14,12,18,19,2,-12,-6
0,-16,-15,8,7,-15,12,18,19,2,-12,-6
0,-15,-16,8,8,-15,12,18,19,2,-12,-6
1,-15,-16,7,9,-14,12,18,19,3,-11,-6
1,-15,-15,7,9,-14,13,18,19,3,-11,-6
2,-15,-15,7,9,-14,13,19,19,3,-11,-5
2,-15,-16,7,9,-15,13,19,19,3,-11,-5
1,-15,-16,7,9,-15,13,19,19,3,-12,-6
0,-15,-16,8,9,-15,13,19,19,3,-12,-6
0,-15,-16,8,9,-15,13,19,19,3,-12,-6
0,-16,-16,8,9,-16,13,19,18,3,-12,-7
-1,-17,-16,10,8,-16,13,18,18,3,-12,-7
-1,-18,-16,10,8,-17,12,18,18,3,-12,-8
-1,-18,-16,10,8,-16,12,18,18,3,-12,-8
-1,-18,-16,10,8,-16,13,19,19,3,-11,-7
-1,-17,-15,10,8,-16,13,19,19,4,-11,-7
-1,-17,-16,10,8,-16,13,19,18,3,-11,-6
-1,-17,-16,9,8,-16,13,19,18,3,-11,-6
0,-17,-16,9,8,-16,13,19,18,3,-11,-6
0,-16,-16,8,8,-15,14,19,18,3,-10,-5
0,-16,-16,8,8,-15,14,19,18,3,-10,-5
0,-16,-16,8,8,-15,14,18,18,3,-11,-6
0,-16,-16,8,9,-16,14,18,18,3,-11,-6
0,-16,-16,8,9,-16,14,18,18,3,-12,-6
0,-16,-16,8,9,-16,14,18,18,2,-13,-6
1,-16,-16,8,9,-15,14,18,18,2,-13,-6
1,-15,-16,7,9,-15,14,18,18,2,-13,-7
0,-15,-15,8,8,-15,14,18,18,2,-13,-7
-1,-17,-15,9,7,-16,13,18,18,1,-14,-8
-1,-18,-16,10,7,-16,13,17,17,1,-14,-8
0,-17,-17,9,8,-16,13,18,17,1,-14,-8
0,-17,-17,9,9,-16,13,18,17,1,-14,-8
0,-17,-16,9,8,-16,14,18,17,1,-13,-8
-1,-18,-16,9,8,-16,14,18,17,1,-13,-8
0,-18,-16,9,8,-16,14,17,17,1,-13,-8
0,-17,-16,8,8,-16,14,17,17,1,-13,-7
0,-17,-16,9,8,-16,14,17,17,1,-13,-7
0,-17,-16,9,8,-16,14,18,17,1,-13,-7
0,-17,-16,9,8,-16,14,18,17,2,-13,-7
-1,-17,-15,9,7,-15,15,18,17,2,-12,-6
-1,-17,-15,9,7,-15,15,18,17,3,-12,-6
-1,-17,-14,9,6,-14,15,18,17,3,-11,-6
-1,-17,-14,9,7,-15,15,18,17,3,-11,-6
0,-16,-15,9,8,-15,15,18,17,3,-11,-7
0,-16,-15,8,9,-15,15,18,17,3,-11,-7
1,-15,-16,7,9,-15,15,19,17,3,-11,-7
1,-15,-16,7,9,-15,15,19,17,3,-12,-7
1,-15,-16,7,9,-15,15,19,17,3,-12,-7
1,-16,-16,7,10,-15,15,19,17,2,-12,-7
1,-16,-16,7,10,-16,15,19,17,2,-12,-7
1,-17,-16,8,9,-16,15,19,17,2,-13,-7
0,-17,-16,8,9,-16,16,19,17,2,-13,-7
0,-16,-16,8,8,-16,16,19,17,2,-13,-7
0,-16,-15,8,8,-15,16,19,17,2,-13,-7
0,-16,-15,8,8,-15,16,19,17,2,-13,-7
-1,-16,-15,9,7,-15,17,19,18,2,-13,-7
-1,-16,-14,9,7,-15,17,19,18,2,-12,-7
0,-16,-15,8,8,-14,17,19,18,2,-13,-7
0,-16,-16,8,8,-15,16,18,17,1,-14,-7
0,-17,-16,8,8,-15,16,18,17,1,-14,-7
0,-17,-16,8,8,-15,16,18,17,1,-14,-7
0,-17,-16,8,8,-15,16,18,17,1,-14,-7
-1,-17,-15,9,8,-15,16,18,17,1,-14,-7
-2,-18,-15,10,7,-16,16,18,17,1,-13,-8
-2,-18,-14,10,7,-16,16,18,17,1,-13,-8
-3,-18,-14,11,6,-15,16,18,17,1,-12,-7
-4,-18,-13,11,5,-15,16,18,17,1,-12,-7
-5,-18,-12,11,4,-14,17,19,17,2,-12,-6
-4,-17,-12,11,4,-13,17,19,17,2,-12,-6
-2,-17,-14,10,6,-14,17,18,17,2,-12,-6
-1,-17,-15,9,7,-15,16,18,16,1,-13,-6
0,-17,-16,9,8,-15,16,18,16,1,-13,-7
0,-17,-16,8,8,-15,16,18,16,1,-13,-7
0,-17,-16,8,8,-15,16,18,16,1,-13,-7
0,-16,-15,8,8,-15,16,18,16,1,-13,-8
0,-16,-15,7,9,-15,16,18,16,1,-13,-8
0,-16,-15,7,9,-15,16,18,16,2,-13,-8
0,-16,-15,7,8,-15,16,18,16,2,-12,-8
0,-16,-15,8,8,-15,16,18,17,2,-12,-8
0,-16,-15,8,8,-15,16,18,17,2,-12,-8
0,-15,-15,8,8,-15,17,19,17,2,-12,-8
0,-15,-15,8,8,-15,17,19,17,2,-12,-8
-1,-17,-15,9,8,-15,16,18,16,1,-13,-8
-1,-18,-15,10,7,-16,16,18,16,1,-13,-8
-1,-18,-15,9,7,-16,16,18,16,1,-13,-8
-1,-18,-15,9,7,-16,16,17,16,1,-13,-8
-1,-18,-15,10,7,-16,16,17,15,1,-13,-8
-1,-18,-15,10,6,-15,16,17,15,1,-13,-8
-1,-18,-14,10,6,-15,16,17,15,1,-13,-7
-1,-17,-14,10,6,-14,16,17,15,1,-13,-7
-1,-16,-14,9,6,-14,16,17,15,1,-13,-7
-1,-15,-14,9,6,-13,16,18,15,2,-12,-7
-1,-15,-13,8,6,-13,16,19,16,2,-12,-7
-1,-16,-13,8,6,-13,16,19,16,3,-11,-7
-2,-16,-13,8,6,-13,16,19,16,3,-11,-6
-2,-15,-13,8,6,-13,16,19,17,3,-11,-6
-2,-15,-13,8,6,-14,16,19,17,3,-11,-6
-2,-16,-13,9,6,-14,15,18,16,3,-11,-6
-2,-16,-13,10,6,-14,15,18,16,3,-11,-6
-3,-16,-13,10,6,-14,15,18,16,3,-11,-6
-2,-16,-14,10,6,-14,15,18,16,2,-11,-6
-1,-16,-14,9,7,-14,15,17,16,2,-11,-6
-1,-16,-14,9,6,-14,15,17,16,2,-11,-6
-1,-16,-14,9,6,-14,15,18,16,3,-11,-5
-1,-16,-14,9,6,-14,15,18,16,3,-11,-5
-1,-16,-14,9,6,-14,15,18,16,3,-11,-6
-1,-16,-14,9,6,-14,15,18,16,3,-11,-6
-2,-16,-14,9,6,-14,15,18,15,3,-11,-6
-3,-17,-13,10,5,-14,15,18,13,3,-11,-6
-4,-17,-12,11,4,-14,15,18,10,3,-11,-6
-4,-17,-12,11,4,-13,15,18,8,3,-11,-6
-4,-17,-12,11,4,-13,15,18,7,3,-11,-6
-4,-17,-12,11,4,-13,14,18,5,2,-12,-7
-4,-17,-12,10,4,-13,14,18,4,2,-12,-7
-4,-16,-12,10,4,-13,14,18,4,3,-12,-7
-3,-16,-12,10,5,-13,14,18,3,3,-12,-7
-3,-16,-12,10,5,-13,14,19,3,3,-12,-7
-4,-16,-11,10,3,-13,15,19,3,3,-11,-7
-6,-16,-9,11,2,-12,15,19,4,4,-11,-6
-6,-17,-9,12,2,-13,15,19,4,4,-11,-6
-6,-17,-10,12,2,-13,14,19,4,4,-11,-6
-6,-17,-10,11,2,-13,14,19,4,4,-10,-5
-5,-16,-10,10,2,-12,15,19,4,4,-10,-4
-4,-15,-10,10,3,-12,15,19,4,4,-10,-5
-4,-16,-11,10,4,-12,14,19,4,4,-10,-5
-4,-16,-11,11,4,-13,14,19,4,4,-10,-5
-4,-16,-11,11,3,-13,14,18,4,4,-10,-5
-4,-15,-11,10,3,-12,15,18,4,4,-10,-5
-4,-15,-11,10,3,-12,15,18,4,4,-10,-5
-4,-15,-11,10,3,-13,15,18,3,4,-10,-5
-4,-15,-11,10,3,-13,15,18,3,4,-10,-5
-4,-16,-11,10,3,-13,15,18,3,4,-10,-5
-5,-16,-11,11,3,-13,15,17,3,4,-10,-5
-4,-16,-11,11,3,-13,15,18,2,4,-9,-5
-4,-16,-11,10,3,-12,15,18,2,4,-9,-5
-4,-15,-11,10,3,-12,15,18,2,4,-9,-5
-4,-15,-11,9,3,-12,14,19,2,4,-9,-5
-4,-15,-11,9,3,-12,14,19,3,5,-9,-5
-4,-15,-11,9,3,-12,14,20,3,5,-9,-5
-5,-15,-10,9,2,-12,14,20,3,5,-9,-5
-5,-15,-9,10,2,-11,14,20,3,5,-9,-5
-5,-15,-9,10,2,-11,13,19,3,4,-10,-5
-5,-15,-9,10,2,-11,13,19,2,4,-10,-5
-5,-15,-10,10,2,-11,13,19,2,4,-10,-6
-5,-16,-10,11,2,-12,12,19,2,4,-10,-6
-6,-17,-11,12,2,-13,12,19,2,4,-11,-7
-6,-18,-11,12,2,-13,11,19,2,4,-11,-7
-6,-18,-11,12,2,-13,11,19,2,5,-10,-7
-6,-17,-10,11,2,-13,12,20,3,5,-10,-7
-6,-17,-10,11,2,-12,12,20,3,5,-9,-6
-6,-17,-10,11,2,-12,12,20,3,5,-9,-6
-5,-16,-10,11,3,-12,12,20,3,5,-9,-6
-4,-15,-11,10,4,-12,12,20,3,5,-9,-6
-4,-16,-11,10,4,-12,12,19,3,5,-9,-6
-4,-16,-11,11,4,-13,12,19,3,5,-9,-6
-5,-17,-11,11,3,-13,12,19,3,6,-9,-6
-5,-17,-10,11,3,-13,13,20,4,6,-9,-6
-5,-16,-10,11,3,-13,13,20,4,6,-8,-5
-5,-16,-10,10,3,-12,13,20,4,6,-8,-5
-6,-16,-10,11,2,-12,13,20,4,6,-7,-4
-7,-16,-9,11,1,-12,13,20,3,7,-7,-4
-7,-16,-9,11,1,-12,12,19,3,7,-7,-4
-6,-17,-10,11,2,-13,12,19,3,6,-8,-5
-6,-17,-11,12,3,-13,11,19,3,6,-9,-6
-6,-18,-11,12,3,-13,11,19,3,5,-10,-6
-6,-17,-11,12,3,-13,11,18,3,5,-10,-6
-6,-17,-11,11,3,-13,11,18,3,5,-10,-6
-5,-17,-11,11,3,-13,11,18,3,5,-10,-6
-5,-17,-11,11,3,-13,11,18,3,5,-10,-6
-5,-16,-10,11,3,-12,11,19,3,5,-10,-6
-5,-16,-10,10,3,-12,11,19,3,5,-9,-6
-5,-15,-10,10,3,-12,11,20,3,5,-9,-7
-5,-14,-10,10,3,-12,11,20,4,5,-8,-7
-5,-14,-10,10,2,-12,11,20,4,6,-8,-7
-5,-14,-10,9,2,-12,12,20,4,6,-8,-6
-5,-14,-10,9,2,-12,12,20,4,7,-8,-6
-4,-14,-10,9,2,-12,12,20,4,7,-8,-6
-4,-15,-10,9,2,-12,11,20,4,7,-8,-6
-4,-15,-10,10,2,-12,11,20,5,7,-8,-6
-5,-15,-10,10,2,-12,11,20,5,7,-8,-6
-5,-15,-10,10,2,-12,11,20,5,6,-8,-6
-5,-16,-11,10,3,-13,11,20,4,6,-8,-6
-5,-16,-11,11,3,-13,10,20,4,5,-9,-6
-5,-17,-11,11,3,-13,10,19,4,5,-9,-6
-6,-17,-10,12,2,-13,10,18,4,5,-9,-6
-7,-18,-10,13,1,-13,10,18,4,5,-9,-6
-8,-18,-10,13,1,-14,10,18,4,5,-9,-6
-7,-17,-10,12,2,-14,10,18,4,5,-9,-6
-6,-16,-10,11,2,-13,10,18,4,5,-8,-6
-6,-15,-9,10,2,-12,10,18,4,5,-8,-6
-6,-15,-9,10,2,-12,10,18,4,5,-8,-6
-5,-15,-9,10,2,-12,10,18,4,5,-8,-6
-4,-15,-10,9,2,-12,10,18,4,6,-8,-6
-4,-15,-10,9,3,-12,10,18,4,6,-8,-6
-4,-15,-10,10,3,-12,10,17,4,6,-9,-6
-4,-15,-10,10,3,-12,10,17,4,6,-9,-6
-4,-15,-10,10,3,-12,11,17,4,7,-8,-5
-4,-15,-10,10,3,-12,11,17,5,7,-8,-5
-4,-15,-10,10,3,-12,11,17,5,7,-8,-5
-4,-15,-10,10,3,-13,11,17,4,6,-8,-5
-4,-16,-11,10,3,-13,10,17,4,6,-8,-6
-5,-16,-11,10,3,-14,10,17,4,7,-7,-6
-6,-16,-10,11,2,-13,10,17,4,7,-7,-6
-7,-17,-10,12,1,-13,10,17,4,7,-7,-6
-7,-17,-10,12,1,-14,10,17,3,6,-8,-6
-7,-17,-9,12,1,-14,10,17,3,6,-8,-6
-7,-17,-9,12,1,-13,10,17,3,7,-9,-6
-7,-16,-9,11,1,-12,11,17,3,7,-9,-5
-6,-16,-9,11,1,-12,11,17,3,7,-9,-5
-7,-16,-9,11,1,-12,11,18,4,7,-9,-5
-6,-16,-9,11,1,-12,11,17,4,7,-9,-5
-4,-15,-10,10,3,-13,11,17,4,7,-9,-6
-3,-15,-11,9,3,-13,11,16,4,7,-9,-6
-4,-15,-10,9,3,-12,11,16,4,8,-8,-6
-4,-15,-9,10,3,-12,11,16,4,8,-8,-6
-4,-14,-9,10,3,-12,11,16,4,8,-8,-5
-4,-14,-9,9,3,-12,11,17,4,8,-8,-5
-4,-14,-9,9,3,-12,11,17,5,8,-8,-4
-4,-14,-9,9,3,-12,11,17,5,8,-8,-4
-4,-14,-9,9,3,-12,11,18,5,8,-8,-4
-3,-13,-9,8,3,-11,11,18,5,8,-8,-4
-2,-12,-9,7,4,-11,12,18,5,9,-7,-4
-1,-11,-9,6,4,-10,12,18,5,9,-7,-4
-1,-11,-9,6,4,-10,12,18,5,9,-6,-4
-1,-10,-9,6,4,-9,13,18,6,10,-6,-4
-2,-10,-8,6,3,-9,13,19,6,10,-5,-4
-2,-10,-8,6,2,-9,13,19,7,10,-5,-4
-3,-10,-7,6,2,-9,13,19,7,10,-5,-4
-4,-10,-7,7,1,-9,13,19,7,10,-5,-3
-4,-11,-6,8,1,-9,13,19,7,10,-5,-3
-5,-11,-6,8,1,-9,14,19,7,10,-5,-3
-5,-11,-5,8,0,-8,14,20,8,11,-4,-3
-4,-10,-5,7,0,-8,14,21,9,12,-4,-3
-4,-9,-5,7,0,-7,15,21,10,12,-5,-3
-4,-9,-5,7,0,-7,15,21,10,13,-5,-3
-5,-9,-4,7,-1,-6,16,22,11,13,-4,-2
-5,-8,-3,7,-1,-5,16,23,11,14,-3,-2
-3,-7,-4,6,0,-5,16,22,11,13,-3,-2
-1,-7,-5,5,1,-6,15,21,10,13,-3,-2
-1,-7,-5,5,1,-6,14,20,10,13,-3,-3
-2,-7,-5,5,1,-6,13,19,10,13,-3,-3
-2,-7,-5,5,1,-6,12,18,9,12,-4,-3
-1,-6,-5,4,1,-6,11,18,9,12,-4,-3
-1,-6,-5,3,1,-6,10,17,9,12,-4,-3
0,-5,-4,3,1,-5,10,17,9,12,-4,-3
0,-5,-4,2,1,-5,9,17,9,12,-3,-2
0,-5,-4,2,1,-4,9,17,8,12,-3,-2
0,-5,-4,2,1,-5,9,17,8,12,-3,-2
0,-5,-4,3,1,-5,8,16,7,12,-3,-2
0,-5,-4,3,1,-5,8,16,7,12,-3,-2
0,-5,-4,2,1,-5,8,16,8,12,-2,-2
1,-5,-5,2,2,-5,8,16,8,13,-2,-2
2,-5,-6,1,3,-5,8,16,8,13,-1,-1
3,-4,-7,0,4,-5,8,17,8,14,-1,-1
4,-4,-7,0,5,-5,9,17,8,14,-1,-1
3,-5,-8,1,5,-6,9,17,9,14,-1,-1
2,-6,-8,2,5,-6,9,18,9,14,-1,-2
2,-6,-8,2,5,-7,9,18,9,14,-1,-2
2,-6,-9,2,6,-8,9,18,10,14,-1,-2
2,-7,-9,3,5,-9,9,18,10,14,-1,-2
0,-9,-8,4,4,-9,10,18,10,13,-1,-3
-1,-10,-8,5,3,-10,10,18,9,12,-2,-4
-1,-11,-9,6,4,-10,11,18,9,11,-3,-4
-1,-12,-9,6,4,-11,11,18,8,10,-3,-5
-1,-12,-9,7,4,-11,11,18,8,9,-4,-5
-2,-13,-10,8,4,-11,11,17,7,8,-5,-6
-3,-14,-10,9,4,-12,11,17,7,7,-5,-7
-4,-15,-11,10,3,-13,11,16,6,6,-6,-7
-4,-16,-11,10,3,-13,11,16,6,6,-6,-8
-5,-16,-10,11,2,-13,11,16,5,6,-6,-8
-6,-17,-10,11,1,-13,11,16,5,6,-7,-9
-6,-17,-10,11,2,-14,11,16,5,5,-7,-9
-5,-17,-10,11,2,-13,11,16,5,6,-7,-9
-4,-16,-11,10,3,-13,12,17,6,6,-6,-9
-3,-15,-11,9,4,-13,12,17,6,6,-6,-9
-4,-15,-11,9,4,-13,11,17,6,6,-6,-9
-5,-16,-10,10,3,-13,11,17,6,6,-6,-9
-5,-16,-11,11,3,-14,10,16,5,6,-6,-9
-5,-16,-11,11,3,-14,10,16,5,5,-7,-9
-6,-17,-11,11,3,-14,9,16,5,5,-7,-9
-7,-18,-11,12,2,-14,9,16,5,4,-8,-9
-7,-18,-11,13,1,-14,9,16,5,4,-8,-9
-7,-18,-10,13,1,-14,9,16,5,4,-8,-9
-7,-18,-10,13,1,-14,9,16,5,4,-8,-9
-8,-18,-10,13,0,-14,9,16,5,4,-8,-10
-7,-18,-10,13,1,-14,9,16,6,5,-8,-10
-6,-18,-11,12,1,-14,9,16,6,5,-8,-11
-5,-17,-11,12,2,-14,9,17,7,5,-7,-11
-5,-17,-11,11,3,-14,9,17,7,6,-7,-11
-4,-17,-12,11,3,-15,9,17,7,6,-6,-11
-4,-17,-12,11,4,-15,9,16,7,6,-6,-10
-4,-18,-12,11,4,-16,9,16,7,6,-6,-11
-4,-18,-13,11,4,-16,9,16,7,6,-7,-13
-5,-18,-13,12,3,-16,9,16,7,6,-7,-16
-6,-18,-12,12,2,-15,9,17,7,7,-7,-18
-6,-18,-12,12,3,-15,9,17,7,7,-7,-20
-4,-18,-13,11,4,-16,9,17,7,7,-7,-21
-4,-18,-14,11,5,-16,9,16,7,7,-8,-23
-4,-18,-13,11,5,-16,9,16,7,7,-8,-24
-4,-18,-13,11,5,-16,9,16,7,7,-8,-24
-4,-18,-13,11,5,-16,9,16,7,7,-7,-25
-3,-17,-13,11,5,-16,9,16,7,7,-7,-25
-3,-17,-13,11,5,-16,9,17,7,8,-7,-26
-4,-17,-12,11,4,-16,9,17,8,8,-7,-26
-5,-17,-12,12,3,-15,9,17,8,8,-7,-26
-6,-18,-11,12,2,-15,10,17,8,8,-6,-26
-7,-18,-11,12,2,-15,10,17,9,8,-6,-26
-6,-18,-11,12,2,-15,10,17,9,7,-6,-26
-5,-18,-12,11,3,-15,10,17,9,7,-6,-26
-5,-18,-12,11,3,-15,10,17,9,6,-7,-26
-4,-18,-12,11,4,-16,10,17,9,6,-7,-27
-4,-17,-12,11,4,-15,10,17,9,6,-7,-27
-3,-16,-12,10,4,-15,10,17,9,6,-7,-27
-2,-16,-13,9,5,-15,10,17,9,6,-7,-27
-3,-17,-13,10,5,-16,10,17,9,6,-7,-28
-4,-18,-13,11,4,-16,10,17,9,6,-7,-28
-5,-19,-13,12,4,-16,10,17,9,6,-7,-28
-4,-18,-13,11,4,-16,10,18,9,6,-7,-28
-4,-18,-13,11,4,-16,10,18,9,6,-6,-28
-4,-19,-13,11,4,-16,10,18,8,6,-6,-28
-4,-19,-13,11,4,-16,10,18,8,6,-6,-28
-5,-19,-13,11,4,-16,10,18,9,6,-6,-27
-5,-19,-13,12,4,-16,10,18,9,6,-6,-27
-5,-19,-13,12,4,-16,10,18,9,6,-6,-27
-5,-19,-13,12,4,-16,10,18,9,6,-6,-27
-5,-19,-12,12,4,-16,10,19,10,6,-6,-27
-6,-19,-11,12,3,-16,10,19,10,5,-6,-27
-7,-20,-11,13,3,-16,10,19,10,5,-6,-27
-7,-19,-11,13,2,-16,10,19,10,5,-6,-26
-6,-19,-11,12,3,-16,10,19,10,5,-6,-26
-5,-18,-12,12,3,-16,10,18,9,5,-6,-26
-5,-18,-12,11,4,-16,10,17,9,5,-6,-26
-5,-18,-12,11,4,-15,10,18,10,5,-6,-26
-4,-18,-12,11,4,-15,11,18,10,6,-5,-26
-3,-17,-13,10,5,-16,11,18,10,6,-5,-27
-2,-17,-14,9,6,-16,10,18,10,6,-5,-27
-2,-18,-14,10,6,-16,10,18,10,6,-5,-26
-4,-18,-13,11,5,-16,10,19,11,6,-5,-26
-5,-18,-13,11,4,-16,10,19,11,6,-6,-26
-4,-18,-13,11,4,-16,10,18,11,5,-6,-26
-3,-17,-14,10,5,-16,10,18,11,5,-6,-26
-4,-18,-13,11,4,-16,10,18,11,5,-7,-27
-5,-19,-13,12,4,-16,10,18,11,5,-7,-27
-5,-19,-13,12,4,-16,10,18,10,5,-7,-28
-5,-19,-13,12,4,-16,10,18,10,5,-7,-28
-5,-18,-13,11,4,-16,10,18,10,5,-7,-29
-4,-18,-13,11,4,-16,10,18,10,5,-7,-29
-4,-18,-14,11,4,-16,10,18,10,5,-7,-29
-4,-18,-14,11,4,-16,10,18,10,6,-6,-29
-3,-18,-13,10,4,-16,10,18,11,7,-5,-28
-3,-18,-13,10,4,-16,10,19,12,7,-5,-28
-3,-18,-13,10,4,-16,10,19,12,7,-5,-28
-3,-18,-13,10,4,-16,10,19,12,7,-5,-27
-4,-18,-13,10,4,-15,11,19,12,7,-5,-27
-3,-17,-13,10,5,-15,11,19,12,7,-5,-26
-2,-17,-13,9,6,-15,11,19,12,7,-5,-26
-2,-17,-14,9,6,-15,11,19,12,7,-6,-26
-2,-17,-14,9,5,-15,11,19,13,8,-6,-26
-2,-17,-14,9,6,-16,11,20,14,8,-6,-27
-1,-18,-16,9,7,-17,11,20,14,8,-7,-28
0,-19,-18,10,9,-19,11,20,15,7,-8,-30
-1,-21,-20,11,9,-20,12,22,16,8,-8,-31
-1,-21,-20,11,9,-20,13,25,19,9,-8,-31
-1,-21,-20,11,9,-20,14,27,22,11,-8,-31
-1,-22,-20,11,9,-21,14,30,27,14,-8,-31
-2,-23,-20,12,9,-21,14,32,31,17,-7,-31
-2,-23,-19,12,8,-21,14,33,35,21,-4,-30
-1,-21,-18,10,8,-19,13,35,39,28,0,-26
0,-18,-17,8,8,-17,12,37,45,37,7,-22
1,-14,-15,6,8,-15,11,39,53,48,15,-17
4,-9,-13,2,9,-11,9,43,63,62,25,-11
9,-2,-11,-3,10,-6,8,47,75,79,38,-3
14,6,-8,-10,10,0,5,52,87,97,52,6
19,15,-3,-17,10,6,2,54,98,115,67,17
23,24,2,-24,10,13,-2,51,105,132,82,27
26,35,8,-31,8,22,-7,44,106,147,97,38
29,45,16,-37,6,30,-13,32,102,160,110,49
28,53,25,-40,2,39,-18,20,96,170,122,59
24,60,35,-42,-5,48,-23,7,88,175,131,68
18,66,48,-42,-14,57,-27,-9,72,169,134,75
10,72,62,-41,-26,67,-32,-30,47,149,129,78
1,77,77,-40,-39,78,-36,-51,17,121,120,79
-7,82,91,-38,-49,87,-39,-69,-13,89,107,79
-14,86,101,-36,-58,94,-42,-83,-43,57,93,77
-20,88,108,-35,-64,99,-45,-95,-71,26,79,74
-23,89,112,-34,-66,101,-47,-104,-94,0,67,71
-23,88,111,-32,-66,100,-49,-108,-109,-18,55,67
-23,84,107,-30,-64,95,-49,-108,-117,-31,44,60
-22,76,98,-27,-60,87,-48,-103,-119,-40,33,51
-21,64,86,-21,-54,75,-43,-93,-114,-45,21,38
-21,50,72,-15,-47,61,-37,-80,-105,-48,10,25
-21,36,58,-8,-40,48,-31,-67,-95,-48,1,12
-20,24,46,-2,-33,35,-25,-55,-85,-47,-6,2
-20,14,35,2,-27,25,-19,-45,-76,-45,-12,-6
-20,6,26,7,-23,16,-14,-36,-67,-43,-16,-12
-19,0,18,9,-18,9,-9,-28,-58,-40,-18,-17
-17,-5,12,10,-14,3,-5,-22,-51,-36,-20,-21
-15,-8,7,11,-11,0,-3,-17,-44,-33,-21,-23
-13,-9,4,10,-9,-2,-1,-12,-38,-30,-20,-24
-11,-9,3,9,-8,-3,0,-9,-33,-26,-17,-23
-10,-8,2,9,-7,-3,0,-6,-28,-22,-15,-21
-9,-7,3,8,-6,-2,0,-5,-23,-19,-12,-19
-8,-5,3,7,-6,-1,1,-3,-19,-16,-10,-17
-8,-3,5,5,-6,1,1,-3,-16,-13,-7,-16
-7,0,6,4,-7,3,0,-3,-14,-10,-5,-14
-7,1,8,3,-7,4,0,-4,-13,-9,-4,-13
-6,2,9,2,-8,5,-2,-5,-12,-8,-4,-13
-6,2,9,1,-8,6,-3,-6,-12,-7,-3,-13
-5,3,10,0,-8,6,-3,-6,-11,-7,-2,-12
-4,4,10,0,-7,7,-2,-6,-10,-6,-2,-11
-5,4,10,0,-7,7,-2,-6,-10,-6,-1,-10
-6,4,10,0,-8,7,-3,-7,-9,-6,-1,-10
-6,5,11,0,-8,8,-3,-7,-9,-6,-1,-9
-7,5,11,1,-9,8,-3,-7,-9,-5,0,-9
-8,4,12,2,-10,8,-3,-8,-10,-5,0,-9
-9,4,13,3,-11,8,-4,-8,-10,-5,0,-9
-9,4,13,3,-11,8,-4,-8,-10,-5,0,-9
-9,4,13,3,-11,8,-4,-8,-10,-5,0,-9
-9,3,13,3,-11,8,-5,-9,-10,-5,0,-9
-9,3,13,3,-11,8,-5,-10,-10,-5,0,-9
-9,4,13,2,-11,8,-5,-10,-10,-5,0,-9
-7,5,13,1,-10,8,-5,-11,-10,-5,0,-9
-7,6,13,0,-10,9,-5,-11,-10,-5,0,-9
-7,6,13,0,-10,9,-6,-11,-10,-5,0,-8
-6,7,14,0,-11,10,-6,-11,-10,-5,0,-8
-6,7,14,0,-11,10,-6,-12,-11,-6,0,-8
-6,7,15,0,-11,11,-7,-12,-11,-6,0,-8
-7,7,15,0,-11,11,-7,-13,-12,-6,0,-7
-7,8,15,0,-11,11,-7,-13,-12,-6,0,-7
-6,9,15,-1,-11,12,-6,-13,-11,-6,1,-6
-6,9,15,-1,-11,12,-6,-14,-11,-5,1,-5
-7,9,16,-1,-12,13,-7,-14,-11,-5,1,-4
-7,9,17,-1,-12,13,-7,-14,-12,-5,1,-4
-8,9,18,-1,-13,13,-8,-14,-12,-5,1,-4
-8,9,19,-1,-13,14,-8,-14,-13,-5,2,-3
-8,10,19,-1,-13,14,-8,-14,-13,-5,2,-3
-8,11,20,-1,-13,15,-8,-15,-12,-5,3,-2
-8,11,19,-1,-13,15,-8,-15,-12,-5,3,-2
-7,11,18,-2,-12,15,-9,-16,-13,-6,2,-3
-6,11,17,-2,-12,15,-10,-17,-13,-6,2,-3
-6,12,18,-2,-12,15,-11,-18,-14,-6,2,-3
-5,13,19,-3,-12,16,-11,-18,-14,-6,2,-2
-4,14,19,-4,-11,16,-11,-18,-15,-7,3,-2
-4,15,19,-5,-11,16,-11,-19,-15,-7,3,-1
-5,15,19,-5,-12,17,-11,-19,-15,-7,4,-1
-6,15,20,-5,-13,17,-11,-19,-15,-7,4,0
-7,15,21,-4,-14,18,-12,-19,-15,-7,5,0
-7,16,22,-5,-14,19,-12,-19,-15,-6,5,1
-6,17,23,-6,-14,20,-12,-20,-16,-6,5,2
-5,18,23,-6,-14,20,-12,-21,-16,-6,5,2
-4,18,23,-7,-14,21,-13,-21,-17,-6,6,3
-4,19,24,-7,-14,21,-13,-21,-17,-6,6,3
-5,19,25,-7,-15,22,-13,-22,-17,-6,7,4
-6,19,26,-6,-16,22,-14,-23,-17,-7,7,4
-7,19,27,-6,-17,22,-14,-24,-18,-7,8,5
-8,19,28,-5,-17,23,-15,-24,-19,-7,8,5
-8,19,28,-5,-18,24,-15,-25,-20,-7,8,5
-8,20,28,-6,-18,24,-16,-26,-20,-7,8,6
-7,21,28,-7,-18,24,-16,-27,-21,-8,9,6
-7,21,29,-7,-18,25,-17,-28,-22,-8,9,7
-7,22,29,-7,-18,25,-17,-29,-22,-9,10,7
-7,22,30,-7,-18,26,-18,-30,-23,-9,10,7
-7,24,31,-8,-18,27,-18,-30,-24,-9,11,8
-7,25,32,-8,-19,28,-19,-31,-24,-9,11,9
-7,27,34,-9,-20,30,-19,-31,-24,-9,12,10
-7,27,35,-10,-21,31,-19,-31,-25,-9,12,11
-7,28,36,-10,-21,31,-20,-33,-26,-9,12,12
-7,29,36,-11,-21,32,-21,-34,-27,-9,13,13
-6,30,36,-12,-21,33,-21,-35,-27,-9,14,14
-6,31,37,-13,-22,34,-22,-36,-28,-10,14,14
-6,32,38,-12,-22,34,-22,-37,-29,-10,14,15
-6,33,39,-12,-23,35,-23,-37,-29,-10,15,15
-6,33,40,-13,-23,36,-24,-38,-30,-10,15,16
-7,34,41,-13,-24,37,-25,-39,-31,-10,16,17
-7,35,42,-13,-24,38,-25,-41,-32,-10,17,18
-7,35,43,-14,-25,39,-26,-42,-33,-10,17,19
-7,36,44,-14,-25,40,-27,-43,-34,-11,18,20
-7,38,45,-15,-26,41,-27,-44,-34,-11,19,21
-7,39,46,-16,-26,42,-28,-45,-35,-11,20,22
-7,40,47,-16,-27,43,-28,-46,-36,-11,20,23
-7,42,48,-17,-27,44,-29,-47,-37,-11,21,24
-6,43,49,-18,-27,46,-30,-48,-38,-11,22,25
-6,44,51,-19,-28,47,-30,-49,-39,-11,23,26
-7,45,52,-18,-29,48,-31,-51,-40,-12,23,27
-7,45,53,-19,-30,49,-32,-52,-41,-12,24,28
-7,47,54,-20,-30,50,-33,-53,-42,-12,25,29
-7,48,55,-21,-31,51,-34,-54,-43,-12,25,30
-8,49,56,-20,-32,51,-35,-56,-44,-13,26,31
-8,50,57,-21,-32,53,-35,-57,-45,-13,26,32
-7,52,58,-22,-33,54,-36,-58,-46,-13,27,33
-7,53,60,-23,-33,56,-36,-59,-47,-13,28,35
-7,55,62,-24,-34,58,-37,-60,-47,-13,29,36
-7,57,63,-25,-34,59,-38,-61,-48,-13,30,38
-6,58,64,-26,-34,60,-39,-62,-49,-13,31,39
-6,60,65,-27,-35,62,-39,-63,-50,-13,32,40
-6,62,67,-28,-36,64,-40,-64,-50,-13,33,42
-5,64,69,-29,-36,65,-41,-64,-51,-12,34,43
-5,65,69,-30,-37,66,-42,-66,-52,-13,34,43
-5,65,70,-29,-38,67,-43,-67,-53,-13,35,44
-7,64,71,-28,-39,67,-44,-69,-55,-14,35,44
-9,64,73,-27,-41,68,-45,-70,-55,-15,36,45
-9,65,74,-28,-41,69,-45,-70,-56,-15,36,46
-7,66,74,-29,-41,69,-46,-71,-56,-15,37,47
-7,67,74,-30,-41,70,-46,-71,-57,-15,37,48
-8,68,76,-30,-42,71,-47,-71,-57,-15,38,49
-8,68,76,-30,-42,72,-47,-72,-58,-15,38,50
-7,69,77,-30,-42,72,-48,-72,-58,-15,39,50
-7,69,77,-31,-42,73,-48,-73,-59,-15,39,51
-6,70,77,-32,-41,74,-48,-74,-59,-15,40,51
-4,71,76,-33,-39,73,-49,-75,-60,-16,40,51
-3,72,75,-34,-39,73,-49,-75,-61,-17,40,51
-4,72,76,-33,-40,73,-49,-75,-61,-17,40,52
-5,72,76,-33,-40,73,-50,-75,-61,-17,40,52
-5,72,77,-33,-41,73,-50,-74,-61,-16,40,52
-4,72,76,-34,-40,73,-50,-74,-60,-16,40,52
-1,72,74,-35,-38,72,-51,-74,-60,-17,39,52
0,72,73,-36,-37,72,-51,-73,-60,-17,39,52
0,72,73,-35,-37,72,-50,-72,-59,-16,40,52
0,72,72,-35,-36,72,-50,-72,-59,-16,40,52
0,72,71,-36,-35,71,-50,-71,-58,-16,39,52
1,72,70,-36,-34,70,-50,-70,-57,-16,39,51
1,71,69,-36,-33,69,-50,-68,-56,-16,39,51
2,70,68,-36,-32,68,-49,-67,-56,-16,39,50
2,69,67,-36,-32,68,-49,-65,-55,-16,39,50
2,68,67,-35,-32,67,-48,-64,-54,-15,39,50
2,68,66,-35,-31,66,-48,-62,-53,-15,39,49
2,67,64,-35,-30,65,-47,-61,-51,-14,38,49
3,66,62,-35,-28,64,-47,-59,-49,-14,38,48
4,66,60,-35,-27,62,-46,-56,-48,-13,37,48
5,65,59,-35,-26,61,-45,-54,-46,-13,37,47
5,63,57,-35,-25,59,-45,-52,-44,-12,37,47
7,62,55,-34,-24,58,-44,-50,-43,-12,37,46
8,60,53,-34,-22,56,-43,-48,-41,-11,37,45
9,59,51,-34,-21,55,-42,-46,-39,-11,36,44
10,58,48,-34,-19,53,-41,-43,-37,-10,36,43
11,57,46,-34,-17,52,-40,-41,-35,-10,35,42
11,57,45,-34,-17,51,-39,-38,-33,-9,34,41
11,56,43,-34,-16,49,-38,-35,-31,-8,34,41
13,54,40,-34,-14,47,-37,-32,-29,-7,34,40
14,53,38,-33,-11,45,-36,-30,-27,-6,33,39
14,50,36,-32,-10,43,-36,-27,-25,-6,32,37
14,48,34,-31,-9,41,-35,-24,-22,-5,31,36
15,47,32,-31,-7,39,-33,-21,-19,-3,31,34
16,46,30,-31,-6,38,-31,-18,-16,-2,31,33
17,45,27,-31,-4,36,-30,-16,-14,-1,30,32
17,42,25,-30,-3,33,-30,-13,-12,0,29,31
17,40,22,-29,-2,31,-29,-11,-10,0,28,30
18,38,20,-28,-1,28,-29,-9,-8,0,28,29
19,37,18,-28,0,27,-28,-7,-6,1,27,27
20,36,16,-28,2,25,-28,-5,-4,1,27,26
20,34,14,-27,3,24,-28,-4,-2,1,26,24
20,32,12,-26,4,22,-27,-3,-1,1,24,22
20,30,10,-25,6,20,-26,-2,0,2,23,20
21,29,7,-25,7,18,-25,0,2,3,22,19
21,28,5,-25,8,16,-24,1,4,3,21,17
21,25,4,-23,9,14,-22,3,6,4,20,16
20,23,2,-22,9,12,-21,5,8,4,19,14
21,21,0,-21,10,10,-21,6,9,5,18,13
21,19,-1,-20,11,8,-20,7,11,5,17,11
21,18,-3,-19,13,7,-19,9,12,6,16,10
22,17,-5,-19,14,5,-17,10,13,6,15,8
21,16,-6,-19,15,4,-16,11,14,6,14,7
21,14,-7,-18,15,3,-14,13,16,7,14,6
20,12,-8,-16,14,1,-13,14,17,7,13,5
19,10,-9,-15,14,0,-11,15,18,8,12,3
19,8,-10,-13,14,-1,-10,16,19,8,11,2
17,5,-10,-11,14,-3,-8,16,20,8,10,0
15,3,-10,-9,13,-4,-7,17,20,8,9,-1
13,1,-11,-7,13,-5,-6,17,21,7,8,-2
10,-1,-12,-4,12,-7,-5,17,21,6,6,-4
8,-4,-13,-2,12,-9,-5,17,21,5,4,-6
7,-5,-13,0,11,-10,-4,17,20,4,2,-8
7,-6,-13,0,11,-10,-3,17,20,4,1,-8
7,-6,-13,0,10,-10,-2,17,20,4,0,-9
6,-7,-12,1,10,-10,-1,17,20,3,0,-10
6,-9,-13,1,10,-11,-1,16,19,3,-1,-12
5,-10,-14,2,10,-12,0,15,19,2,-2,-13
4,-11,-14,3,10,-13,0,15,19,2,-3,-14
3,-12,-15,4,10,-14,0,15,19,1,-4,-15
3,-12,-15,4,10,-14,0,16,19,1,-4,-16
3,-12,-16,4,10,-15,1,16,19,1,-5,-16
3,-12,-16,4,9,-15,1,16,19,1,-5,-16
3,-12,-15,4,9,-14,2,16,19,1,-5,-16
3,-12,-15,4,10,-14,2,16,19,1,-5,-16
4,-11,-15,3,10,-14,3,16,19,1,-5,-16
3,-12,-15,4,10,-14,3,16,19,1,-5,-16
2,-13,-15,5,9,-15,3,15,19,1,-5,-17
1,-14,-15,6,8,-15,3,15,19,1,-6,-17
0,-14,-15,6,8,-15,4,15,19,1,-6,-17
-1,-15,-15,7,7,-15,4,15,19,0,-7,-18
-2,-16,-14,9,6,-16,4,15,19,0,-7,-18
-3,-17,-14,9,6,-16,4,15,19,0,-8,-19
-2,-17,-14,10,6,-16,4,15,18,0,-8,-19
-2,-16,-14,9,6,-16,4,15,18,0,-8,-19
-1,-16,-15,9,7,-16,4,15,18,0,-8,-19
0,-16,-15,8,7,-16,4,15,18,0,-8,-19
0,-15,-16,7,8,-16,4,15,19,0,-8,-19
1,-15,-16,6,9,-16,4,15,19,0,-8,-19
1,-15,-16,6,9,-16,4,15,19,0,-9,-19
0,-17,-16,8,8,-17,4,15,19,-1,-9,-19
-1,-18,-16,9,7,-17,4,15,19,-1,-9,-19
-1,-17,-16,9,7,-17,4,15,19,0,-9,-19
-1,-17,-16,9,7,-17,5,15,19,0,-9,-19
-3,-18,-15,10,6,-17,5,15,19,0,-9,-19
-3,-18,-15,11,6,-17,5,16,20,0,-9,-19
-4,-18,-14,11,5,-16,5,16,20,0,-8,-18
-3,-17,-13,10,5,-16,6,17,21,0,-8,-18
-1,-16,-15,9,7,-16,6,17,21,0,-9,-18
1,-16,-16,7,9,-17,5,17,20,0,-9,-19
1,-16,-17,7,10,-17,5,17,20,0,-9,-19
1,-16,-18,7,10,-17,5,17,20,0,-9,-19
1,-16,-18,7,10,-18,5,16,19,0,-9,-19
1,-17,-18,7,10,-18,5,16,19,0,-9,-19
1,-17,-18,8,9,-18,4,16,19,0,-9,-19
1,-17,-18,8,9,-18,4,16,19,0,-9,-19
1,-17,-18,8,9,-18,4,16,19,0,-9,-19
0,-17,-17,8,9,-18,4,16,19,1,-9,-19
0,-17,-17,9,9,-18,4,17,20,1,-9,-19
0,-17,-17,8,9,-17,5,17,20,2,-8,-19
0,-16,-17,8,9,-17,5,18,20,2,-8,-19
0,-17,-17,8,9,-17,5,18,20,1,-8,-19
1,-16,-18,8,9,-17,5,17,19,1,-9,-19
1,-16,-18,7,9,-17,5,17,19,1,-9,-19
2,-15,-18,7,10,-17,5,17,19,1,-9,-19
3,-15,-19,6,11,-18,5,17,19,1,-9,-19
2,-16,-19,7,10,-18,5,17,19,1,-9,-19
2,-17,-19,7,10,-18,5,17,19,1,-9,-19
2,-16,-19,7,10,-17,5,18,19,1,-9,-19
1,-16,-18,7,10,-17,5,18,19,1,-9,-19
0,-17,-18,8,9,-17,5,18,18,0,-9,-19
0,-17,-17,8,9,-17,6,18,18,0,-9,-19
0,-16,-17,8,9,-17,6,18,18,0,-9,-18
0,-17,-18,8,10,-18,5,18,18,0,-9,-18
1,-17,-19,8,11,-19,5,18,18,0,-9,-18
1,-17,-19,8,11,-18,6,18,18,0,-9,-18
1,-16,-19,7,11,-18,6,19,18,0,-9,-18
2,-16,-19,7,11,-18,6,19,17,0,-9,-18
2,-16,-19,7,11,-18,6,18,17,0,-9,-18
2,-16,-20,7,11,-19,6,18,17,0,-9,-18
2,-16,-20,7,11,-19,6,18,17,0,-10,-18
1,-17,-19,8,10,-19,5,18,16,-1,-10,-18
0,-18,-19,9,10,-19,5,17,16,-1,-10,-18
0,-18,-19,9,10,-19,5,17,16,-1,-10,-18
0,-18,-19,9,10,-19,5,17,16,-1,-10,-18
0,-18,-19,9,10,-19,5,17,16,-1,-10,-18
0,-18,-18,9,9,-19,5,17,16,-1,-10,-18
0,-18,-19,9,10,-19,5,17,16,-1,-10,-18
0,-18,-19,9,10,-19,5,17,16,-1,-10,-18
0,-18,-18,9,10,-19,6,18,16,-1,-9,-18
0,-17,-18,8,10,-18,6,18,17,-1,-9,-18
1,-16,-18,7,11,-18,6,19,17,-1,-9,-18
1,-16,-18,7,11,-18,6,19,17,-1,-9,-18
0,-17,-18,8,10,-18,6,19,16,-1,-10,-18
0,-17,-19,8,10,-19,6,18,16,-1,-10,-18
1,-16,-19,8,11,-18,6,18,16,-1,-10,-18
2,-16,-19,7,11,-18,6,19,16,-1,-10,-17
2,-16,-19,8,11,-18,6,19,15,-1,-10,-17
1,-17,-19,8,11,-18,6,20,15,-1,-10,-17
0,-17,-18,8,10,-18,6,20,15,-1,-10,-17
0,-17,-18,8,10,-18,6,21,16,-1,-10,-17
0,-17,-18,8,10,-18,6,21,15,-1,-10,-17
1,-16,-18,7,10,-18,6,21,15,-1,-10,-17
1,-16,-18,7,10,-18,6,21,15,-1,-10,-17
1,-16,-18,8,10,-18,6,22,15,-1,-10,-17
1,-16,-18,8,10,-18,6,22,15,-1,-10,-16
1,-16,-18,8,10,-18,6,22,15,-1,-10,-16
1,-17,-19,8,11,-18,6,21,15,-1,-11,-17
0,-17,-19,8,10,-18,6,21,15,-2,-11,-17
0,-17,-18,8,10,-18,6,22,15,-2,-11,-17
0,-17,-18,8,9,-18,6,22,15,-2,-11,-17
0,-17,-18,8,9,-18,6,22,15,-2,-11,-17
0,-17,-17,8,9,-17,6,22,15,-1,-10,-16
0,-16,-17,7,9,-17,6,22,15,-1,-10,-16
1,-15,-17,7,10,-17,6,22,15,-1,-10,-16
2,-15,-18,7,10,-17,6,22,14,-2,-10,-16
2,-16,-19,7,11,-18,6,21,14,-2,-11,-16
2,-16,-19,7,11,-18,6,21,13,-2,-11,-16
2,-16,-19,7,11,-18,6,21,13,-2,-11,-17
2,-16,-19,6,12,-18,6,21,13,-3,-12,-17
1,-17,-19,7,11,-18,6,21,12,-3,-12,-17
0,-17,-18,8,10,-18,6,21,12,-3,-13,-17
0,-17,-18,8,10,-18,6,21,12,-3,-13,-18
1,-17,-19,8,11,-18,6,21,12,-3,-13,-18
1,-17,-19,7,11,-18,6,21,12,-3,-13,-18
2,-16,-18,7,11,-17,6,21,13,-3,-13,-17
2,-16,-18,7,11,-17,6,22,13,-3,-13,-17
2,-16,-18,7,11,-18,6,21,13,-3,-13,-17
1,-17,-18,8,11,-18,5,21,12,-4,-13,-18
2,-17,-19,7,11,-18,5,21,12,-4,-13,-18
2,-16,-19,7,11,-18,5,21,12,-4,-12,-18
2,-16,-18,7,10,-17,5,21,12,-3,-12,-18
1,-16,-18,8,10,-17,5,21,12,-3,-12,-17
1,-16,-17,8,9,-17,5,21,12,-3,-12,-17
0,-16,-17,8,9,-17,5,21,12,-3,-12,-17
0,-16,-17,7,9,-17,5,21,12,-3,-12,-17
0,-16,-17,7,9,-17,5,21,12,-3,-12,-17
0,-16,-17,7,9,-17,5,21,12,-3,-12,-17
0,-17,-17,7,9,-17,4,21,12,-3,-12,-17
1,-16,-17,7,9,-16,4,21,12,-3,-12,-16
1,-16,-17,7,9,-16,5,21,12,-3,-12,-16
1,-15,-17,7,10,-17,4,20,12,-4,-12,-16
1,-16,-18,8,10,-17,4,20,12,-4,-13,-16
1,-16,-18,8,10,-18,4,20,11,-4,-13,-16
1,-16,-18,8,10,-18,4,20,11,-4,-13,-16
1,-16,-18,8,10,-17,4,20,11,-4,-13,-16
1,-16,-17,8,10,-17,4,20,11,-4,-13,-16
1,-16,-17,8,10,-17,4,20,11,-4,-13,-16
1,-16,-17,8,10,-17,4,20,11,-4,-13,-16
1,-16,-17,8,9,-17,4,20,11,-4,-12,-16
0,-16,-17,8,9,-17,4,20,11,-4,-12,-16
1,-15,-17,7,9,-17,4,21,11,-4,-12,-16
1,-15,-17,7,9,-16,5,21,11,-4,-13,-15
2,-14,-17,6,9,-16,6,21,11,-3,-13,-15
3,-14,-18,5,10,-16,6,21,12,-3,-13,-14
3,-14,-18,5,11,-16,6,21,12,-3,-13,-15
3,-14,-19,6,11,-16,5,21,11,-3,-13,-15
2,-15,-18,7,10,-17,5,21,11,-3,-13,-15
1,-15,-18,8,10,-17,5,21,11,-3,-13,-15
1,-15,-17,8,10,-17,5,21,11,-3,-13,-15
0,-16,-17,8,10,-17,4,20,10,-4,-13,-15
0,-16,-17,8,10,-17,4,20,10,-4,-13,-15
0,-15,-17,7,9,-16,4,21,10,-4,-13,-14
0,-15,-16,7,8,-15,4,21,10,-4,-13,-14
0,-15,-15,8,8,-15,4,21,10,-4,-13,-14
0,-15,-16,7,8,-15,4,21,10,-4,-13,-14
1,-15,-17,7,10,-16,4,20,10,-4,-13,-14
2,-15,-18,6,10,-17,4,20,10,-4,-13,-14
2,-15,-18,7,10,-17,4,20,10,-4,-13,-14
1,-15,-18,7,10,-17,4,20,9,-4,-13,-14
1,-16,-18,7,10,-17,4,20,9,-4,-14,-14
0,-16,-18,8,10,-17,4,19,9,-4,-14,-15
0,-17,-18,8,10,-17,4,19,9,-4,-14,-15
0,-16,-18,8,10,-16,4,19,9,-4,-14,-14
2,-15,-18,7,10,-16,5,19,9,-4,-13,-14
2,-14,-18,6,10,-16,5,19,9,-4,-13,-14
2,-14,-18,6,10,-16,4,19,9,-4,-14,-14
2,-14,-17,7,9,-16,4,19,9,-4,-14,-14
1,-15,-17,7,9,-16,4,19,9,-4,-14,-14
1,-15,-17,7,9,-16,4,19,9,-4,-14,-14
1,-15,-17,8,9,-16,4,19,8,-4,-14,-14
1,-15,-17,8,9,-17,4,19,8,-4,-14,-14
1,-15,-17,7,9,-16,4,19,8,-4,-14,-14
2,-14,-17,6,9,-16,4,19,9,-4,-14,-14
3,-13,-17,5,10,-15,4,19,9,-4,-14,-14
3,-13,-17,5,10,-15,4,19,9,-4,-14,-14
2,-14,-16,6,9,-16,4,19,9,-4,-14,-14
0,-15,-16,8,9,-16,4,19,9,-5,-14,-14
0,-16,-17,8,9,-16,4,19,9,-5,-14,-14
1,-15,-17,7,10,-16,4,19,9,-4,-13,-14
1,-15,-17,7,10,-16,4,19,9,-4,-13,-14
0,-16,-17,8,9,-17,4,18,8,-5,-14,-14
0,-16,-17,9,8,-17,4,18,8,-5,-14,-14
0,-15,-17,8,8,-17,4,18,8,-4,-14,-13
1,-16,-17,8,9,-17,4,18,8,-4,-14,-13
1,-16,-18,8,9,-17,4,19,8,-4,-14,-14
3,-14,-18,6,10,-16,4,20,8,-4,-13,-13
4,-13,-17,4,10,-15,5,20,9,-3,-13,-13
3,-13,-17,5,9,-15,5,20,9,-3,-13,-13
2,-14,-16,6,9,-15,4,20,9,-3,-13,-13
1,-15,-16,7,9,-16,4,19,9,-4,-14,-13
0,-16,-17,8,9,-16,3,19,8,-4,-14,-14
0,-16,-17,8,9,-16,3,18,8,-4,-15,-14
0,-15,-17,8,9,-16,3,18,8,-4,-15,-14
0,-15,-17,7,9,-16,3,18,8,-4,-15,-14
0,-15,-17,7,9,-16,3,19,8,-4,-14,-14
1,-15,-17,7,9,-16,3,19,8,-4,-14,-14
2,-15,-18,7,10,-16,3,18,8,-5,-14,-14
2,-15,-18,7,10,-16,3,18,8,-5,-15,-13
2,-14,-17,7,9,-16,3,18,8,-5,-15,-13
2,-14,-17,7,9,-16,3,18,8,-4,-15,-13
2,-14,-17,6,9,-16,3,18,8,-4,-15,-13
3,-13,-17,6,9,-15,3,18,8,-4,-15,-12
3,-13,-17,6,9,-15,3,18,8,-4,-15,-12
2,-14,-17,6,9,-15,3,18,8,-4,-15,-12
2,-14,-17,6,9,-15,3,18,8,-4,-15,-12
2,-14,-17,6,9,-15,3,18,8,-4,-15,-12
1,-15,-17,7,9,-16,3,18,8,-4,-15,-12
1,-16,-17,8,9,-17,2,18,8,-5,-15,-13
1,-16,-17,8,9,-17,2,18,8,-5,-15,-13
1,-16,-17,8,9,-17,2,18,8,-5,-15,-13
1,-15,-17,7,9,-16,3,19,8,-5,-14,-12
1,-15,-17,7,9,-16,3,19,8,-5,-14,-12
2,-14,-17,6,9,-16,3,19,8,-5,-14,-12
2,-14,-16,6,9,-15,3,19,8,-5,-14,-12
1,-14,-16,7,8,-15,3,19,8,-4,-14,-12
1,-14,-15,7,8,-15,3,19,8,-4,-14,-12
1,-14,-15,7,8,-15,3,19,8,-4,-14,-12
1,-14,-16,8,8,-15,2,19,8,-4,-14,-12
1,-15,-16,8,8,-16,2,19,8,-5,-14,-13
1,-16,-17,8,8,-17,2,18,8,-5,-14,-13
0,-17,-18,9,8,-18,2,18,8,-5,-15,-13
0,-16,-17,8,8,-17,2,18,8,-5,-15,-13
1,-15,-17,7,9,-17,2,18,8,-5,-14,-13
2,-15,-17,7,9,-16,2,18,9,-5,-14,-13
2,-14,-16,7,9,-16,2,18,9,-5,-14,-13
2,-14,-16,7,9,-15,3,18,8,-5,-13,-13
1,-14,-16,7,9,-15,3,18,8,-5,-13,-13
1,-14,-16,7,9,-15,3,18,8,-5,-13,-12
1,-14,-16,7,9,-15,2,18,8,-5,-13,-12
2,-14,-17,7,9,-16,2,18,8,-5,-14,-12
3,-14,-17,7,10,-16,2,18,8,-5,-14,-12
3,-14,-18,7,10,-16,2,18,8,-5,-14,-12
3,-14,-18,7,10,-16,2,18,8,-6,-15,-13
3,-15,-18,7,10,-16,2,18,8,-6,-15,-13
1,-15,-17,7,9,-16,3,18,8,-5,-15,-13
1,-15,-16,7,9,-16,3,18,8,-5,-14,-13
1,-15,-16,7,9,-16,3,18,8,-5,-14,-13
1,-15,-16,7,9,-16,3,18,8,-5,-14,-13
1,-15,-16,8,8,-16,3,18,8,-5,-14,-12
1,-16,-16,8,8,-16,3,18,9,-5,-14,-12
1,-15,-16,8,8,-16,3,18,9,-5,-14,-12
2,-14,-16,7,9,-15,3,18,9,-5,-14,-12
1,-14,-15,7,8,-15,2,18,9,-5,-14,-12
0,-14,-15,7,7,-15,2,18,9,-5,-14,-12
1,-14,-15,7,7,-15,2,19,9,-5,-14,-12
1,-14,-15,7,8,-15,2,19,9,-5,-14,-12
1,-14,-15,8,8,-15,2,19,9,-5,-14,-12
0,-15,-15,9,7,-15,2,19,8,-5,-14,-12
0,-16,-15,9,7,-15,2,19,8,-5,-14,-12
0,-16,-16,9,7,-16,2,19,8,-5,-14,-13
0,-16,-16,9,7,-16,2,19,8,-5,-14,-13
0,-16,-16,8,8,-17,2,19,8,-5,-14,-13
1,-15,-16,7,8,-17,2,19,8,-5,-14,-13
1,-15,-16,7,8,-16,1,19,8,-5,-14,-13
0,-16,-16,8,8,-16,1,19,8,-5,-14,-13
0,-16,-17,8,8,-16,1,19,8,-5,-14,-13
1,-15,-17,8,8,-16,1,18,8,-5,-14,-13
1,-15,-17,7,9,-16,1,15,9,-5,-13,-13
1,-15,-16,7,9,-16,1,12,9,-5,-13,-12
1,-14,-16,7,8,-16,1,10,9,-5,-13,-12
1,-14,-15,7,8,-16,1,8,9,-5,-13,-12
0,-14,-13,8,6,-15,2,7,9,-5,-12,-11
-1,-14,-12,8,5,-14,3,7,10,-4,-12,-11
0,-13,-13,7,6,-14,4,6,10,-4,-12,-11
1,-13,-14,6,8,-14,4,5,10,-4,-12,-11
2,-13,-15,6,8,-14,5,4,10,-4,-12,-11
2,-13,-15,6,8,-14,5,4,10,-4,-12,-11
2,-12,-15,6,8,-14,5,4,10,-4,-12,-11
3,-12,-15,5,8,-14,5,4,10,-4,-12,-11
2,-12,-15,5,8,-14,5,4,10,-4,-12,-11
2,-12,-15,5,8,-14,5,4,10,-4,-12,-11
3,-11,-15,4,9,-13,5,5,11,-4,-12,-11
3,-10,-15,4,9,-13,5,5,11,-4,-11,-10
3,-10,-14,4,9,-12,5,5,11,-3,-11,-10
3,-10,-14,4,8,-12,5,5,11,-3,-11,-9
2,-10,-13,4,8,-12,5,5,11,-3,-11,-9
3,-10,-13,4,8,-12,6,6,11,-3,-11,-9
4,-9,-13,2,8,-12,7,6,12,-2,-10,-8
3,-8,-13,2,8,-11,7,7,13,-2,-10,-8
2,-9,-12,3,7,-11,7,7,13,-2,-10,-8
1,-9,-11,4,7,-11,8,8,14,-1,-10,-7
2,-8,-11,3,7,-10,9,8,14,-1,-9,-7
3,-7,-11,2,7,-9,10,8,15,-1,-9,-6
3,-7,-11,2,7,-9,10,8,15,-1,-9,-6
3,-7,-10,2,7,-8,9,8,15,-1,-9,-6
3,-6,-10,1,7,-8,9,8,15,-1,-9,-6
4,-6,-10,1,7,-8,8,7,15,-1,-9,-6
4,-6,-10,0,7,-8,7,7,14,-1,-9,-6
4,-5,-9,0,7,-8,5,6,14,-1,-9,-6
4,-5,-9,0,7,-7,4,5,14,-1,-9,-6
4,-5,-10,0,7,-7,3,4,13,-1,-9,-6
4,-5,-10,0,7,-8,3,4,13,-1,-9,-6
4,-6,-10,0,7,-8,3,3,12,-1,-9,-6
5,-6,-11,0,8,-9,2,3,12,-1,-9,-6
5,-5,-11,0,8,-9,2,3,12,-1,-9,-5
5,-5,-11,0,9,-9,2,3,12,-1,-8,-5
5,-5,-11,0,9,-9,1,3,12,-1,-8,-5
5,-5,-12,0,9,-9,1,3,12,-1,-8,-5
5,-5,-12,0,9,-9,1,4,12,-1,-8,-5
5,-6,-12,0,8,-9,0,4,12,-1,-8,-5
5,-6,-12,1,8,-10,0,4,12,-1,-8,-5
5,-6,-12,1,9,-10,1,4,13,-1,-8,-5
6,-6,-13,0,9,-10,1,4,13,-1,-8,-5
7,-6,-14,0,10,-10,1,4,13,-1,-8,-5
6,-7,-15,0,11,-11,1,4,13,-1,-8,-5
6,-9,-16,1,11,-12,1,5,13,-1,-8,-6
6,-10,-17,1,11,-13,2,5,13,-2,-9,-6
6,-10,-17,2,11,-14,2,5,13,-2,-9,-7
6,-11,-17,2,11,-14,2,5,12,-2,-10,-7
5,-12,-17,3,11,-15,2,5,12,-3,-10,-8
4,-13,-17,5,10,-15,2,5,11,-4,-11,-9
3,-14,-17,6,10,-15,2,5,11,-5,-11,-10
2,-14,-17,6,9,-15,2,5,10,-5,-12,-10
3,-14,-17,5,9,-15,3,5,10,-6,-12,-9
3,-13,-17,5,9,-15,3,5,10,-6,-12,-9
2,-13,-17,5,9,-16,4,5,10,-6,-13,-10
2,-13,-17,6,9,-16,4,5,10,-6,-13,-10
2,-13,-17,6,9,-16,4,5,10,-6,-13,-10
2,-14,-17,7,9,-16,3,5,9,-7,-13,-10
0,-16,-17,9,8,-17,3,5,9,-7,-14,-11
-1,-18,-17,10,8,-17,2,5,9,-8,-14,-11
-2,-18,-17,10,8,-17,3,5,9,-8,-14,-11
-2,-18,-17,10,8,-17,3,5,9,-8,-14,-11
-1,-18,-17,10,8,-17,3,5,9,-8,-14,-11
0,-17,-17,9,8,-17,3,5,9,-8,-14,-10
1,-16,-17,8,9,-17,3,5,9,-8,-14,-10
0,-17,-17,9,9,-17,3,5,9,-8,-14,-10
0,-17,-17,9,9,-18,3,4,9,-9,-15,-10
-1,-18,-17,10,9,-18,3,3,8,-9,-15,-10
-1,-18,-17,9,9,-18,4,3,8,-9,-15,-10
-1,-18,-17,9,8,-18,4,3,8,-9,-15,-10
-2,-18,-17,10,8,-18,5,4,9,-9,-15,-10
-1,-17,-17,9,8,-17,5,4,10,-8,-14,-9
0,-16,-17,8,9,-17,5,5,10,-8,-14,-9
1,-16,-16,7,9,-17,5,5,10,-8,-14,-9
0,-16,-16,8,8,-17,5,5,10,-8,-14,-9
-1,-18,-16,10,8,-17,5,5,10,-8,-14,-9
-2,-19,-16,11,7,-17,5,5,10,-8,-14,-9
-3,-19,-16,11,7,-17,5,5,10,-8,-14,-9
-3,-20,-17,12,7,-18,5,5,10,-9,-15,-9
-2,-20,-19,12,8,-20,5,5,9,-9,-16,-9
-1,-20,-20,11,9,-20,5,5,9,-9,-16,-10
0,-19,-20,10,10,-20,5,6,9,-9,-16,-9
0,-18,-19,9,10,-19,6,7,10,-8,-15,-9
0,-17,-18,9,9,-18,6,7,10,-8,-15,-9
0,-18,-18,9,9,-18,6,7,10,-8,-15,-9
0,-18,-18,9,9,-18,6,7,10,-8,-15,-9
0,-18,-18,9,9,-18,6,6,10,-8,-15,-9
-1,-18,-18,10,8,-18,7,6,10,-8,-15,-9
-2,-18,-17,10,7,-18,7,7,10,-8,-15,-9
-3,-18,-16,10,7,-18,7,7,10,-8,-15,-9
-2,-18,-17,10,7,-18,7,8,10,-8,-15,-9
0,-17,-17,9,8,-18,7,9,11,-8,-15,-9
0,-17,-18,9,9,-18,7,9,11,-8,-14,-8
1,-17,-18,9,9,-18,7,9,11,-8,-14,-8
1,-17,-19,9,10,-18,7,9,11,-7,-14,-8
1,-17,-19,9,10,-18,7,9,11,-7,-14,-7
0,-18,-19,9,9,-18,7,9,11,-7,-14,-7
0,-18,-19,9,9,-18,7,9,10,-7,-14,-7
1,-18,-20,8,10,-19,7,9,10,-7,-14,-7
1,-19,-20,8,11,-19,7,8,10,-7,-15,-7
1,-19,-20,9,10,-20,7,8,10,-7,-15,-7
1,-19,-20,9,11,-20,7,9,10,-7,-15,-7
2,-19,-21,8,12,-20,7,9,10,-8,-15,-7
3,-19,-22,7,12,-20,7,9,10,-8,-15,-7
2,-19,-22,8,12,-20,7,9,10,-8,-15,-7
1,-20,-21,9,11,-20,7,9,10,-8,-15,-7
0,-20,-21,9,10,-20,7,9,10,-8,-15,-7
1,-19,-21,9,11,-19,7,10,10,-7,-15,-7
2,-18,-21,8,11,-19,7,10,10,-7,-15,-7
1,-19,-20,9,10,-19,7,10,10,-7,-15,-7
1,-19,-20,9,10,-19,7,10,10,-7,-15,-7
0,-19,-20,10,10,-19,7,10,10,-7,-15,-7
0,-19,-20,10,10,-19,7,10,10,-7,-15,-7
1,-19,-20,9,10,-19,7,10,10,-7,-15,-7
1,-18,-20,9,10,-19,7,10,10,-7,-15,-7
1,-18,-20,9,10,-19,8,10,10,-7,-16,-7
2,-18,-20,8,10,-19,8,10,10,-7,-16,-7
2,-18,-20,8,11,-19,8,10,11,-7,-16,-7
2,-18,-21,8,11,-19,8,10,11,-7,-16,-7
2,-19,-21,8,11,-20,8,10,11,-7,-16,-7
2,-19,-21,8,11,-20,8,10,11,-7,-15,-7
2,-19,-21,8,10,-20,9,11,11,-7,-15,-7
2,-19,-21,8,10,-20,9,11,11,-7,-15,-7
2,-19,-22,8,11,-20,9,11,11,-6,-15,-7
2,-19,-22,8,11,-20,9,11,11,-6,-15,-7
1,-19,-21,9,10,-20,9,11,11,-6,-15,-7
0,-19,-20,9,10,-20,9,11,12,-6,-15,-7
0,-19,-19,9,10,-20,9,11,12,-6,-15,-6
1,-19,-20,9,10,-20,9,11,12,-6,-15,-6
1,-19,-21,9,11,-20,9,11,12,-6,-15,-6
1,-20,-21,9,11,-21,9,11,11,-6,-16,-6
1,-20,-22,9,11,-21,9,12,11,-6,-16,-6
2,-20,-22,9,12,-21,9,12,11,-6,-16,-6
2,-20,-22,9,12,-21,10,12,12,-6,-16,-6
2,-20,-22,9,12,-21,10,13,12,-6,-16,-7
2,-20,-22,9,12,-21,10,14,13,-6,-16,-7
2,-20,-23,9,12,-22,10,15,14,-5,-16,-8
2,-21,-24,9,12,-22,11,17,15,-4,-16,-9
3,-21,-25,10,13,-23,12,20,18,-3,-16,-10
3,-22,-25,10,14,-23,13,23,21,-1,-16,-10
3,-22,-25,10,14,-23,14,26,25,1,-15,-10
3,-22,-26,9,14,-23,15,29,30,5,-14,-10
5,-21,-26,8,15,-23,15,31,34,9,-12,-9
7,-18,-25,5,16,-22,14,33,39,15,-7,-7
9,-14,-24,3,16,-19,14,35,45,23,-1,-3
10,-10,-22,0,16,-16,13,37,52,33,6,2
11,-6,-19,-2,15,-13,11,40,61,46,15,8
14,-1,-17,-6,15,-9,9,44,72,62,27,16
18,5,-14,-11,16,-4,6,48,84,78,39,24
22,12,-11,-17,16,1,2,51,95,95,53,34
26,20,-6,-23,16,7,-2,49,102,112,67,44
31,30,-1,-30,16,14,-7,42,105,126,80,54
34,40,5,-37,14,22,-13,31,102,138,93,64
35,50,13,-42,11,32,-18,19,98,149,106,75
35,59,23,-46,6,41,-23,7,93,157,117,85
31,66,34,-48,-1,51,-27,-8,81,154,122,92
24,72,48,-47,-12,60,-32,-28,60,139,120,97
13,76,63,-45,-25,70,-36,-50,31,115,113,98
3,80,76,-42,-37,78,-39,-70,1,87,102,98
-4,83,87,-40,-46,85,-42,-87,-29,57,90,97
-11,86,96,-38,-53,91,-45,-100,-57,28,77,95
-15,87,101,-36,-58,94,-47,-111,-83,2,65,92
-17,85,101,-34,-59,93,-49,-117,-101,-18,54,88
-18,81,98,-31,-58,90,-49,-118,-112,-32,43,81
-19,73,91,-27,-55,82,-48,-113,-116,-42,32,73
-18,61,79,-22,-49,70,-43,-103,-113,-48,20,61
-18,48,65,-16,-41,56,-37,-89,-105,-51,8,48
-17,34,51,-10,-34,43,-31,-76,-96,-53,-2,34
-16,22,38,-4,-27,30,-26,-64,-87,-53,-10,23
-16,12,27,1,-21,20,-21,-54,-78,-52,-17,14
-15,3,19,6,-17,11,-15,-45,-69,-51,-22,6
-14,-3,11,8,-13,4,-10,-37,-61,-49,-25,1
-12,-7,5,10,-9,0,-5,-29,-53,-45,-26,-1
-10,-9,1,10,-6,-4,-2,-23,-46,-41,-26,-3
-9,-11,-2,10,-4,-6,0,-18,-40,-37,-25,-3
-8,-11,-3,10,-3,-7,0,-14,-35,-33,-23,-3
-7,-10,-4,8,-2,-7,1,-12,-30,-30,-20,-1
-5,-8,-4,6,-1,-6,1,-10,-26,-27,-18,0
-4,-6,-3,5,0,-5,2,-8,-22,-25,-16,2
-3,-4,-2,3,0,-3,2,-8,-19,-23,-14,4
-2,-2,-1,2,-1,-1,1,-8,-17,-21,-12,5
-2,-1,0,2,-1,0,0,-9,-16,-19,-11,6
-2,0,1,1,-2,1,0,-10,-15,-17,-11,7
-1,1,2,0,-2,1,0,-10,-14,-16,-10,8
-1,1,2,0,-2,2,-1,-10,-14,-15,-10,8
-1,2,3,-1,-2,2,-1,-10,-13,-15,-9,9
-1,2,3,-1,-2,3,-1,-10,-13,-15,-8,9
-1,3,3,-1,-2,3,-1,-10,-12,-15,-8,10
-1,3,4,-1,-3,4,-1,-10,-12,-14,-7,11
-2,4,4,0,-3,4,-1,-10,-11,-14,-7,11
-2,4,5,0,-4,4,-2,-10,-11,-14,-7,11
-2,3,5,0,-4,4,-2,-11,-11,-14,-7,10
-2,3,5,-1,-4,4,-2,-11,-11,-13,-7,10
-1,4,5,-2,-4,5,-2,-11,-11,-13,-6,10
-1,4,5,-2,-4,5,-2,-11,-11,-13,-6,11
-2,4,5,-1,-4,5,-2,-12,-11,-14,-6,11
-2,3,5,-1,-4,5,-3,-12,-12,-14,-6,11
-3,3,5,0,-4,5,-3,-13,-12,-14,-6,11
-3,3,6,0,-4,5,-3,-13,-13,-13,-6,11
-3,4,6,-1,-4,5,-3,-13,-13,-13,-5,12
-3,4,7,-1,-5,6,-4,-13,-13,-12,-5,13
-3,4,7,-1,-5,6,-4,-14,-14,-12,-5,13
-3,4,7,-1,-5,6,-4,-14,-14,-12,-5,14
-3,5,8,-1,-6,7,-4,-14,-14,-12,-4,14
-3,5,8,-1,-6,7,-4,-14,-14,-12,-4,14
-4,6,9,-1,-7,8,-3,-15,-14,-12,-3,15
-4,7,10,-2,-7,8,-3,-15,-14,-12,-3,16
-3,8,10,-2,-6,9,-3,-15,-14,-12,-3,16
-3,8,11,-2,-7,9,-4,-16,-14,-12,-3,17
-3,8,11,-2,-7,9,-4,-16,-14,-12,-3,17
-2,8,10,-3,-7,10,-4,-17,-14,-12,-3,17
-1,9,10,-3,-6,10,-4,-17,-15,-12,-2,17
-1,9,11,-4,-6,11,-4,-18,-15,-12,-2,17
-1,10,11,-4,-6,11,-4,-18,-15,-12,-2,18
-1,9,11,-4,-6,10,-5,-19,-16,-13,-2,18
-2,9,11,-3,-7,10,-5,-20,-17,-13,-2,18
-2,10,12,-4,-7,11,-5,-20,-17,-12,-1,19
-2,12,13,-5,-7,12,-5,-20,-17,-12,-1,20
-2,12,14,-5,-8,13,-5,-20,-18,-12,-1,20
-3,12,14,-4,-9,14,-6,-21,-19,-13,-1,20
-4,12,15,-4,-10,14,-7,-22,-19,-13,-1,20
-3,13,15,-5,-9,15,-7,-23,-19,-13,0,20
-3,14,16,-5,-10,15,-7,-24,-19,-13,0,21
-3,14,17,-5,-10,16,-7,-24,-19,-13,1,21
-4,14,18,-5,-11,16,-7,-24,-20,-12,2,22
-4,15,19,-5,-11,17,-7,-24,-20,-12,3,23
-5,15,20,-5,-12,17,-8,-25,-20,-12,3,24
-5,15,20,-5,-12,17,-8,-26,-21,-12,3,25
-4,16,19,-6,-12,18,-9,-27,-21,-12,3,25
-3,17,19,-7,-12,19,-9,-27,-22,-11,3,25
-2,18,20,-7,-11,19,-9,-28,-22,-11,4,26
-2,18,20,-7,-12,20,-10,-28,-23,-11,4,26
-3,18,21,-7,-12,20,-11,-29,-23,-11,4,26
-3,19,22,-8,-12,21,-11,-30,-24,-11,4,27
-3,19,22,-8,-12,21,-12,-30,-24,-11,5,28
-3,20,23,-9,-13,22,-12,-31,-24,-11,6,29
-3,21,24,-9,-13,23,-12,-31,-25,-12,6,30
-3,22,24,-10,-13,23,-13,-32,-25,-12,7,30
-3,22,24,-10,-14,24,-13,-33,-26,-12,7,30
-4,23,25,-10,-14,24,-14,-34,-27,-12,7,31
-3,23,26,-10,-15,25,-14,-35,-28,-12,7,31
-3,24,27,-11,-15,26,-15,-36,-28,-12,8,32
-3,25,28,-11,-15,27,-15,-36,-29,-12,8,33
-3,26,29,-12,-15,28,-16,-37,-29,-12,9,34
-3,28,30,-12,-16,29,-16,-37,-29,-12,10,35
-3,29,31,-12,-17,30,-17,-38,-30,-12,11,36
-4,29,32,-12,-18,31,-17,-39,-31,-12,12,37
-5,30,33,-13,-19,32,-18,-40,-32,-12,12,37
-6,30,35,-12,-21,32,-19,-41,-33,-13,12,37
-7,30,36,-12,-22,33,-20,-43,-33,-13,12,38
-7,31,37,-13,-22,34,-20,-44,-34,-12,13,39
-6,33,38,-13,-22,35,-20,-45,-34,-12,14,40
-6,34,39,-14,-22,36,-21,-46,-35,-13,15,41
-5,35,39,-15,-22,37,-22,-47,-36,-13,16,42
-4,37,40,-16,-22,39,-23,-47,-37,-13,17,43
-4,38,42,-17,-23,40,-24,-48,-38,-13,17,44
-4,40,44,-18,-24,42,-24,-48,-39,-12,18,45
-4,41,45,-18,-25,43,-25,-49,-39,-12,19,46
-4,42,46,-19,-25,44,-25,-50,-40,-12,20,48
-4,43,47,-19,-25,44,-26,-51,-41,-12,21,49
-4,44,47,-19,-25,45,-27,-53,-42,-12,22,50
-4,45,47,-20,-26,46,-28,-54,-43,-12,22,51
-4,46,48,-20,-27,47,-28,-55,-44,-12,23,52
-4,47,49,-21,-27,48,-29,-56,-45,-12,24,53
-4,48,51,-22,-28,50,-30,-58,-45,-13,24,54
-4,49,53,-22,-29,51,-30,-59,-47,-13,25,55
-5,50,54,-23,-30,52,-31,-60,-48,-13,25,56
-5,51,56,-23,-31,53,-32,-61,-49,-13,26,57
-6,52,57,-23,-32,55,-32,-62,-50,-13,27,58
-6,54,59,-24,-32,56,-33,-62,-50,-13,28,60
-6,55,60,-25,-33,58,-33,-63,-51,-13,30,61
-6,57,61,-25,-33,59,-34,-64,-52,-13,31,63
-6,57,62,-26,-34,60,-34,-66,-53,-13,31,63
-6,58,63,-26,-34,61,-35,-67,-54,-13,31,64
-5,59,63,-27,-34,62,-35,-68,-55,-13,32,65
-5,61,65,-28,-35,63,-36,-69,-55,-13,33,66
-4,63,66,-29,-35,64,-36,-69,-56,-13,34,68
-4,64,67,-29,-36,65,-37,-70,-56,-13,35,69
-4,64,67,-30,-36,66,-37,-71,-57,-13,35,69
-4,65,68,-30,-36,66,-38,-71,-58,-13,36,70
-4,65,68,-30,-36,67,-38,-72,-59,-13,36,70
-3,66,69,-31,-36,67,-39,-72,-59,-13,37,71
-3,67,69,-32,-36,67,-40,-73,-60,-13,37,71
-2,67,68,-32,-35,67,-40,-73,-60,-13,37,72
-2,67,68,-32,-35,67,-41,-74,-61,-14,37,72
-2,67,69,-32,-35,68,-41,-74,-61,-14,37,73
-2,67,69,-32,-36,68,-41,-74,-61,-14,37,73
-3,67,69,-32,-36,68,-41,-74,-62,-14,38,73
-2,67,69,-32,-36,68,-41,-75,-62,-14,38,74
-1,68,68,-33,-35,69,-41,-74,-62,-14,38,74
0,69,68,-34,-35,69,-41,-74,-61,-13,39,74
0,69,69,-34,-35,69,-40,-73,-61,-13,39,75
0,69,69,-34,-35,69,-40,-73,-61,-13,39,75
-1,69,68,-33,-35,69,-40,-73,-60,-13,39,75
0,68,68,-33,-34,68,-40,-72,-60,-13,39,75
0,68,66,-33,-33,67,-40,-71,-60,-13,39,75
1,67,65,-34,-31,66,-40,-70,-59,-13,38,74
2,67,63,-35,-30,65,-40,-69,-59,-13,38,74
3,67,62,-35,-29,64,-39,-67,-58,-12,38,73
3,66,61,-34,-28,63,-39,-66,-57,-12,38,73
4,65,60,-34,-28,62,-38,-65,-55,-11,38,72
5,65,58,-34,-27,61,-38,-64,-54,-11,37,72
5,64,57,-34,-26,60,-38,-62,-53,-12,36,71
6,63,56,-34,-25,60,-37,-60,-52,-12,36,71
6,62,55,-34,-25,59,-36,-58,-50,-11,35,70
6,61,53,-33,-24,57,-35,-56,-49,-10,35,69
7,60,52,-33,-23,56,-34,-54,-47,-10,34,68
8,59,50,-33,-21,54,-33,-51,-45,-9,34,67
9,58,48,-33,-20,53,-33,-49,-43,-9,33,66
9,56,46,-32,-19,51,-32,-46,-41,-8,33,65
9,55,44,-32,-17,50,-31,-44,-40,-8,33,64
9,53,42,-31,-16,48,-30,-42,-38,-7,32,63
10,51,39,-31,-14,45,-29,-40,-36,-7,31,61
11,49,36,-30,-13,43,-28,-37,-34,-6,30,60
11,47,34,-29,-12,40,-27,-34,-32,-5,30,59
12,45,31,-29,-10,38,-26,-31,-30,-4,29,58
13,43,29,-29,-8,36,-25,-28,-27,-4,28,57
15,42,26,-29,-6,35,-24,-25,-25,-3,27,56
16,41,24,-28,-4,33,-22,-22,-22,-2,27,55
16,40,22,-28,-3,32,-21,-19,-20,-1,26,54
17,39,20,-27,-2,30,-19,-16,-18,0,26,53
17,37,18,-27,-1,27,-18,-13,-15,1,25,51
18,35,15,-27,0,25,-17,-10,-13,2,24,49
19,33,13,-26,1,23,-16,-7,-10,3,23,48
19,31,11,-25,3,21,-14,-4,-7,4,23,46
20,30,9,-25,4,20,-13,-1,-4,5,23,45
21,30,7,-25,6,18,-11,1,-2,6,22,44
22,29,5,-25,8,17,-10,3,0,6,21,43
22,27,3,-24,9,15,-9,5,2,7,20,42
21,25,1,-23,9,14,-8,7,4,8,19,41
21,23,0,-22,10,12,-7,8,5,9,18,39
22,21,-2,-22,11,10,-6,9,7,9,17,38
22,20,-3,-21,12,8,-6,10,8,9,16,36
20,17,-3,-19,11,7,-5,10,9,9,15,35
19,15,-4,-16,11,5,-5,11,9,10,14,33
18,14,-5,-15,11,4,-4,11,10,10,13,32
17,13,-5,-14,11,4,-3,12,11,10,12,31
16,12,-6,-14,11,3,-2,13,13,11,11,29
16,10,-7,-13,11,1,-1,14,14,11,10,28
15,8,-8,-12,11,0,-1,15,15,11,9,26
14,6,-8,-11,10,-1,0,16,16,12,8,25
13,6,-8,-10,10,-1,1,18,18,13,8,25
14,5,-10,-10,11,-2,1,19,19,14,8,24
16,5,-12,-10,13,-3,2,19,19,14,7,22
16,4,-13,-9,14,-4,3,20,20,14,6,21
15,3,-13,-8,14,-4,4,20,20,15,5,21
15,3,-14,-8,14,-5,5,20,21,15,5,20
14,1,-14,-7,13,-6,6,20,21,15,4,20
12,-1,-15,-5,13,-8,7,20,21,14,3,19
11,-4,-16,-3,13,-10,8,20,21,13,2,17
10,-6,-17,-2,13,-12,8,20,21,12,0,15
10,-7,-17,-1,13,-12,9,21,21,12,0,14
8,-8,-17,0,13,-13,9,22,21,12,-1,13
7,-9,-18,1,13,-14,9,22,20,12,-2,12
7,-11,-19,2,13,-15,9,21,20,11,-3,11
6,-11,-19,2,12,-15,10,21,19,10,-4,10
5,-12,-19,3,12,-16,10,20,19,10,-5,9
4,-13,-19,4,11,-16,11,19,19,9,-6,9
2,-14,-18,6,10,-16,12,19,19,9,-6,8
2,-14,-18,6,9,-16,13,19,19,8,-7,8
1,-15,-17,7,9,-16,13,19,18,8,-7,8
1,-16,-17,8,8,-16,13,19,18,8,-8,7
0,-16,-17,8,8,-17,13,18,17,7,-8,7
0,-16,-17,8,8,-17,13,18,17,7,-8,6
0,-16,-17,8,8,-17,13,18,17,7,-8,6
-1,-17,-17,10,7,-17,13,18,17,7,-8,5
-3,-18,-17,11,6,-18,13,18,17,7,-9,5
-3,-19,-17,11,6,-18,13,18,17,7,-9,5
-3,-19,-17,11,6,-18,13,18,17,7,-9,5
-3,-19,-17,11,6,-18,13,17,17,7,-9,5
-3,-19,-17,11,6,-18,13,17,17,6,-9,5
-3,-19,-17,11,6,-18,13,17,17,6,-9,5
-2,-18,-17,10,6,-18,13,17,17,6,-9,5
-2,-18,-18,10,7,-18,13,16,17,6,-10,5
-2,-19,-18,11,7,-18,13,16,17,5,-11,4
-3,-19,-18,11,7,-19,12,16,17,5,-11,4
-3,-20,-18,12,6,-19,12,16,17,5,-11,4
-3,-20,-18,12,6,-19,12,16,16,5,-11,4
-4,-20,-18,12,6,-19,13,16,16,6,-11,4
-4,-20,-17,12,6,-18,13,16,17,6,-10,4
-3,-19,-17,11,6,-18,13,17,17,7,-10,5
-3,-18,-17,11,6,-18,14,17,17,7,-9,5
-2,-18,-17,10,6,-17,14,18,17,8,-9,5
-1,-18,-18,10,7,-18,14,18,17,8,-9,5
-2,-18,-18,10,7,-18,13,18,17,8,-9,5
-3,-19,-18,11,6,-18,13,18,17,8,-10,5
-3,-20,-18,12,6,-19,13,18,17,7,-10,5
-4,-21,-18,12,6,-19,13,18,17,7,-11,5
-4,-21,-18,12,6,-19,13,18,17,7,-11,5
-4,-20,-18,12,5,-19,13,18,17,7,-11,5
-4,-20,-18,12,5,-19,14,18,17,7,-10,5
-3,-20,-18,12,6,-19,14,18,17,7,-10,5
-3,-20,-18,12,6,-20,14,18,17,7,-11,5
-3,-20,-18,12,7,-19,14,18,17,7,-11,5
-3,-20,-18,12,7,-19,14,18,17,7,-11,5
-3,-20,-18,11,7,-18,14,17,17,7,-11,5
-2,-19,-19,11,7,-18,15,17,17,7,-11,5
-1,-19,-19,10,8,-19,15,17,16,7,-11,4
-2,-20,-19,10,7,-19,15,17,16,7,-11,4
-2,-20,-18,10,7,-19,15,18,15,7,-11,4
-2,-20,-18,10,8,-19,15,18,15,7,-11,4
-2,-20,-18,11,8,-19,15,18,15,7,-11,4
-3,-20,-18,12,7,-19,15,18,15,7,-11,4
-3,-21,-18,12,7,-19,15,18,15,7,-11,4
-3,-21,-18,12,7,-19,15,18,15,7,-11,4
-3,-21,-18,12,7,-19,15,18,14,7,-11,5
-3,-21,-18,12,7,-19,15,18,14,7,-10,5
-3,-20,-18,11,7,-19,15,18,14,7,-10,5
-3,-20,-18,11,7,-19,15,18,14,7,-10,5
-3,-20,-18,11,7,-19,15,18,14,7,-10,5
-3,-20,-18,12,7,-19,15,18,14,6,-10,5
-4,-21,-18,13,6,-19,15,18,13,6,-10,5
-5,-21,-17,13,6,-19,15,18,13,6,-10,5
-5,-22,-17,13,5,-19,16,18,13,6,-10,5
-5,-22,-17,13,5,-20,16,18,13,6,-10,5
-5,-22,-17,13,5,-20,16,18,13,6,-10,5
-4,-22,-17,13,5,-20,16,18,13,6,-10,5
-3,-21,-18,12,6,-20,16,18,13,6,-11,5
-1,-20,-18,11,7,-19,15,18,13,6,-11,5
-1,-19,-19,10,8,-19,15,18,13,6,-11,5
-1,-19,-19,10,8,-19,15,18,13,6,-11,5
-2,-20,-18,11,7,-19,15,18,13,6,-11,5
-2,-20,-18,12,7,-19,15,18,13,6,-11,5
-2,-20,-18,12,7,-19,15,18,13,6,-11,6
-2,-20,-18,12,7,-19,15,19,13,6,-11,6
-2,-20,-18,12,7,-19,15,19,13,6,-11,6
-2,-20,-18,12,7,-19,16,19,13,6,-11,6
-3,-20,-17,12,7,-19,16,19,13,6,-10,7
-3,-21,-18,12,7,-20,15,18,12,6,-10,6
-3,-22,-19,12,7,-20,15,18,12,5,-10,6
-3,-22,-19,12,7,-20,15,18,12,5,-10,6
-4,-22,-18,13,6,-20,15,18,12,6,-10,6
-4,-22,-18,13,6,-20,15,18,12,6,-10,6
-3,-21,-18,13,6,-20,14,18,12,6,-10,6
-3,-21,-18,12,6,-20,14,18,12,6,-9,7
-2,-20,-18,12,7,-19,15,19,13,7,-9,7
-1,-20,-18,11,7,-19,15,19,14,7,-9,7
-1,-20,-18,11,7,-19,16,19,14,6,-9,7
-1,-20,-18,11,7,-19,16,19,14,6,-10,7
-1,-20,-19,11,8,-19,15,19,13,6,-10,7
-1,-20,-19,11,8,-20,15,19,13,6,-11,6
-2,-20,-19,11,8,-20,15,19,13,6,-11,6
-2,-21,-19,12,7,-20,15,19,13,5,-11,6
-3,-21,-19,12,7,-20,15,18,13,5,-11,5
-4,-22,-18,13,6,-20,15,18,13,5,-11,0
-4,-21,-17,13,6,-19,15,18,14,5,-10,-7
-4,-21,-17,12,5,-18,15,18,14,6,-10,-13
-4,-21,-17,12,5,-19,14,18,14,6,-10,-17
-4,-21,-17,13,5,-19,14,18,13,5,-10,-21
-4,-21,-17,13,5,-19,14,18,13,5,-10,-24
-4,-21,-17,13,6,-19,14,18,14,6,-10,-27
-4,-21,-17,13,6,-19,14,18,14,6,-10,-28
-3,-21,-17,13,6,-19,14,17,14,6,-10,-29
-3,-20,-17,13,6,-19,14,17,14,6,-9,-30
-2,-20,-18,12,7,-19,14,18,13,6,-9,-31
-1,-19,-18,11,7,-19,14,18,13,6,-8,-31
-1,-19,-18,10,8,-19,14,18,14,6,-8,-31
-1,-19,-18,10,8,-19,14,18,14,6,-8,-32
-1,-19,-18,10,8,-19,14,18,14,6,-8,-33
-1,-19,-18,10,8,-19,14,18,14,6,-8,-35
-2,-19,-18,11,7,-19,14,18,14,6,-8,-36
-3,-20,-17,12,7,-19,13,18,14,6,-9,-38
-3,-20,-17,12,6,-19,13,18,14,5,-9,-40
-4,-20,-17,13,6,-19,13,18,14,5,-9,-42
-4,-20,-17,13,6,-19,14,18,15,6,-9,-43
-5,-21,-16,13,5,-19,14,18,15,6,-9,-45
-6,-21,-15,14,4,-19,14,18,15,6,-9,-46
-6,-21,-15,14,3,-18,14,18,15,6,-9,-47
-5,-20,-16,13,4,-18,14,18,15,6,-9,-48
-3,-20,-16,12,5,-18,14,18,15,6,-9,-49
-3,-19,-16,12,5,-18,14,18,15,6,-9,-49
-4,-20,-16,12,5,-18,14,17,15,6,-9,-50
-5,-20,-15,13,4,-18,14,17,15,6,-8,-50
-5,-20,-15,13,4,-18,14,17,16,6,-7,-49
-4,-19,-15,12,5,-18,14,17,16,6,-7,-49
-3,-20,-17,12,6,-19,13,16,15,5,-7,-50
-4,-21,-17,12,5,-19,12,16,15,5,-8,-51
-5,-21,-16,13,5,-19,12,16,14,5,-8,-51
-5,-21,-16,13,5,-19,11,15,13,5,-9,-51
-4,-21,-17,13,6,-19,10,14,13,4,-10,-52
-3,-21,-18,12,7,-20,10,14,13,4,-11,-52
-3,-21,-18,13,7,-20,10,14,13,4,-11,-52
-3,-21,-17,13,6,-19,10,14,14,5,-10,-52
-2,-20,-17,12,7,-19,10,15,14,5,-10,-51
-1,-19,-17,11,7,-18,10,15,15,6,-9,-50
-1,-18,-17,10,7,-18,11,16,15,6,-8,-49
-1,-18,-16,10,6,-18,11,16,16,7,-7,-48
-1,-18,-16,10,6,-18,11,16,16,7,-6,-47
-1,-17,-17,9,7,-18,11,16,17,8,-6,-47
-1,-18,-17,10,8,-18,10,15,16,7,-6,-47
-2,-19,-18,11,7,-19,9,14,16,7,-7,-47
-3,-20,-18,13,6,-19,9,14,15,7,-7,-47
-3,-20,-18,13,6,-19,9,14,15,7,-7,-47
-3,-20,-18,12,6,-19,9,14,15,6,-7,-47
-3,-20,-17,12,6,-19,9,14,15,6,-7,-46
-4,-20,-17,12,6,-19,9,14,16,6,-8,-46
-4,-20,-17,12,6,-19,9,14,16,6,-8,-45
-3,-20,-17,12,6,-19,9,14,16,6,-8,-45
-3,-19,-17,12,7,-19,9,14,15,6,-8,-44
-3,-19,-16,12,6,-18,9,13,15,6,-7,-44
-3,-19,-16,12,6,-18,9,13,16,6,-7,-43
-3,-18,-15,12,5,-17,9,13,16,6,-7,-43
-3,-18,-15,11,5,-17,8,13,15,6,-7,-43
-3,-19,-16,12,5,-18,8,13,15,6,-7,-43
-4,-19,-16,12,5,-18,8,13,14,6,-7,-43
-3,-20,-16,12,6,-18,8,13,14,6,-7,-42
-3,-20,-16,11,6,-18,8,13,14,7,-7,-42
-3,-20,-16,11,6,-18,8,13,14,7,-7,-42
-3,-20,-16,12,6,-18,8,13,14,6,-8,-42
-3,-21,-16,12,6,-19,8,13,13,6,-8,-42
-2,-20,-17,11,7,-18,8,13,13,6,-8,-41
-1,-18,-16,10,7,-18,8,13,13,6,-8,-41
-1,-17,-16,9,7,-17,9,14,13,7,-7,-40
-2,-17,-15,10,6,-17,9,13,13,7,-7,-40
-2,-17,-15,10,6,-17,9,13,13,7,-7,-40
-1,-17,-15,10,7,-17,9,13,13,7,-7,-40
-1,-18,-15,10,7,-17,9,13,13,7,-7,-40
-2,-18,-16,10,7,-17,9,13,13,7,-7,-40
-2,-19,-16,11,7,-18,9,13,12,7,-7,-40
-3,-20,-16,12,6,-18,8,13,12,7,-7,-40
-4,-21,-16,13,5,-19,8,12,12,7,-7,-40
-4,-21,-16,13,5,-19,8,12,13,7,-7,-40
-4,-20,-16,12,5,-18,8,12,13,7,-6,-39
-4,-20,-16,12,5,-18,8,12,13,7,-6,-39
-5,-20,-15,12,5,-18,8,12,13,7,-5,-38
-4,-19,-15,12,6,-18,8,12,13,7,-5,-38
-4,-19,-15,12,6,-18,8,12,12,7,-5,-37
-4,-19,-15,11,6,-17,8,12,12,7,-5,-37
-4,-18,-15,10,6,-17,8,12,13,8,-5,-37
-3,-17,-15,10,6,-17,8,12,13,8,-6,-37
-4,-18,-15,11,6,-17,8,12,13,8,-6,-37
-5,-18,-14,12,5,-17,8,12,13,8,-6,-37
-5,-18,-14,12,4,-17,8,12,13,8,-6,-37
-5,-19,-14,12,4,-17,7,11,12,7,-6,-37
-5,-20,-15,12,5,-18,7,10,11,7,-6,-37
-4,-21,-16,13,5,-19,6,10,11,7,-6,-37
-4,-21,-16,12,5,-18,6,10,11,7,-6,-37
-3,-19,-16,11,5,-17,7,10,11,7,-6,-36
-2,-18,-16,10,6,-17,9,11,12,7,-6,-35
-2,-17,-15,10,6,-16,9,12,12,7,-6,-35
-3,-17,-14,11,5,-16,9,12,12,7,-6,-35
-4,-18,-13,12,4,-16,9,12,12,7,-6,-35
-5,-18,-13,12,3,-16,9,12,13,7,-6,-35
-5,-18,-13,12,4,-16,9,12,13,7,-6,-35
-3,-18,-15,11,6,-17,8,12,12,7,-7,-36
-2,-18,-16,10,7,-17,8,12,12,6,-8,-36
-2,-18,-16,10,7,-17,8,12,12,6,-8,-36
-2,-18,-16,10,7,-17,8,12,12,6,-8,-36
-3,-18,-15,11,6,-17,8,12,12,7,-7,-36
-3,-18,-15,11,6,-17,8,12,12,7,-7,-35
-3,-18,-15,10,6,-17,8,12,12,8,-6,-35
-3,-18,-15,11,5,-17,8,12,13,8,-6,-35
-4,-18,-15,11,5,-17,8,12,12,8,-5,-35
-3,-18,-16,11,6,-17,8,12,12,8,-5,-35
-2,-17,-16,10,6,-17,8,12,12,8,-5,-35
-3,-18,-15,11,6,-17,8,12,12,8,-5,-34
-3,-18,-15,11,6,-17,8,12,12,8,-5,-34
-3,-18,-16,11,6,-17,7,12,12,7,-5,-34
-3,-18,-16,11,6,-17,7,12,12,7,-5,-34
-3,-18,-16,11,6,-17,7,12,12,8,-5,-34
-3,-18,-15,11,6,-17,8,12,12,8,-5,-33
-3,-18,-15,11,6,-17,8,12,12,9,-5,-33
-2,-18,-16,11,6,-17,7,12,12,8,-5,-33
-2,-19,-16,11,6,-18,7,11,11,8,-5,-33
-3,-18,-15,11,6,-17,7,11,12,8,-5,-33
-3,-17,-15,10,5,-16,8,12,12,9,-4,-32
-3,-17,-14,10,5,-16,8,12,13,9,-4,-32
-3,-17,-14,10,5,-16,8,12,13,9,-4,-32
-3,-17,-15,10,6,-16,7,12,12,8,-4,-33
-3,-18,-15,11,6,-17,7,11,12,8,-5,-33
-4,-19,-15,12,5,-17,7,11,12,8,-5,-33
-4,-19,-15,12,5,-17,7,11,12,8,-5,-32
-3,-18,-15,11,6,-17,8,11,11,8,-5,-32
-2,-18,-16,11,6,-17,8,11,11,7,-5,-32
-2,-18,-16,11,7,-17,8,11,11,7,-5,-32
-1,-17,-16,10,7,-17,8,11,11,7,-5,-32
-1,-17,-16,10,7,-17,8,12,11,7,-5,-31
-2,-17,-16,10,7,-17,9,12,11,7,-5,-31
-3,-18,-15,11,6,-17,9,12,11,8,-5,-31
-4,-18,-15,11,5,-16,10,12,12,8,-5,-31
-3,-17,-14,11,6,-16,10,12,12,8,-5,-31
-3,-17,-14,11,6,-17,9,12,12,8,-5,-31
-3,-18,-14,11,5,-17,9,13,12,8,-5,-31
-3,-18,-14,11,5,-17,9,13,12,8,-5,-31
-3,-17,-14,10,5,-16,9,14,13,8,-5,-31
-3,-17,-14,10,5,-16,9,14,13,8,-5,-31
-4,-17,-14,11,5,-16,9,14,13,8,-5,-31
-5,-18,-14,12,4,-16,9,14,13,8,-5,-31
-7,-19,-13,13,3,-16,9,14,12,8,-5,-30
-7,-19,-13,14,2,-16,9,14,12,8,-5,-30
-7,-20,-13,14,2,-17,8,14,11,7,-5,-30
-5,-20,-14,13,3,-17,8,14,11,7,-5,-30
-3,-19,-14,12,5,-17,8,14,11,7,-5,-30
-2,-18,-15,10,6,-16,8,14,12,8,-5,-30
-1,-17,-15,10,6,-16,8,14,12,8,-5,-30
-1,-17,-15,10,6,-16,8,14,12,8,-4,-29
-1,-16,-15,9,6,-16,8,14,13,8,-4,-29
-1,-16,-15,9,6,-16,9,15,13,8,-5,-29
-1,-16,-15,9,6,-16,9,15,12,8,-5,-29
-1,-17,-15,10,6,-16,9,15,12,8,-6,-30
-2,-17,-15,10,6,-16,9,15,12,8,-6,-30
-3,-18,-15,11,6,-17,8,15,12,8,-6,-30
-3,-18,-15,11,5,-17,8,15,11,8,-6,-30
-3,-18,-15,10,6,-17,8,15,11,8,-6,-30
-2,-17,-15,10,6,-17,8,15,11,7,-6,-30
-2,-18,-15,10,6,-17,8,14,11,7,-6,-29
-2,-17,-15,10,6,-17,8,15,12,7,-5,-29
-2,-17,-14,10,6,-16,9,15,12,8,-5,-28
-2,-17,-14,10,6,-16,9,15,12,8,-5,-28
-3,-17,-14,11,5,-16,9,15,12,8,-5,-28
-4,-17,-14,11,5,-16,9,15,12,8,-5,-28
-3,-17,-14,11,5,-16,9,15,12,8,-5,-28
-2,-17,-15,10,5,-16,9,15,12,8,-5,-28
-2,-17,-15,10,6,-16,9,15,12,8,-5,-28
-2,-16,-15,10,6,-16,9,15,12,9,-4,-27
-2,-16,-14,10,5,-15,9,15,12,9,-4,-27
-3,-16,-13,10,5,-14,9,15,12,9,-4,-27
-3,-16,-12,10,4,-14,9,15,13,9,-4,-27
-3,-15,-12,10,4,-13,10,15,13,9,-4,-27
-4,-15,-11,10,3,-13,10,15,13,9,-4,-27
-4,-15,-11,10,3,-13,10,15,13,9,-4,-27
-4,-15,-11,9,3,-13,10,16,13,9,-4,-27
-4,-14,-10,9,3,-13,10,16,14,10,-4,-26
-4,-13,-10,9,3,-12,10,16,14,10,-3,-26
-3,-13,-10,9,3,-12,10,16,14,10,-3,-26
-3,-13,-10,8,4,-12,10,16,14,10,-3,-26
-2,-13,-10,8,4,-12,10,16,14,10,-3,-25
-2,-13,-11,8,4,-12,10,16,14,10,-3,-25
-2,-13,-11,8,4,-12,10,17,14,10,-3,-25
-2,-12,-11,7,4,-12,10,17,14,11,-2,-25
-1,-12,-11,7,4,-12,11,17,15,11,-1,-25
-1,-12,-11,7,5,-12,11,17,15,11,-1,-24
-1,-12,-11,7,5,-11,11,17,15,11,-1,-24
-1,-12,-10,7,5,-11,11,17,16,11,-1,-23
-1,-10,-9,6,4,-10,11,17,16,12,-1,-23
-1,-8,-8,5,4,-8,12,17,17,12,0,-22
-1,-6,-6,4,3,-7,12,18,18,13,1,-21
-1,-5,-5,3,2,-6,12,18,18,14,1,-20
-1,-5,-4,3,2,-5,12,18,18,14,1,-20
-1,-6,-4,4,2,-5,11,17,18,14,1,-20
-1,-6,-5,4,2,-6,9,16,16,13,1,-20
0,-7,-6,4,3,-7,7,14,15,12,0,-21
0,-7,-7,4,4,-7,6,13,14,12,0,-21
1,-7,-8,4,4,-8,5,13,14,11,0,-21
0,-7,-8,4,4,-8,4,12,14,11,0,-21
0,-7,-7,5,3,-8,4,12,14,11,0,-21
0,-7,-7,4,3,-8,3,12,13,11,0,-21
0,-6,-7,3,4,-7,3,12,13,11,0,-21
1,-5,-7,2,4,-7,3,13,14,12,0,-20
2,-5,-7,1,5,-6,3,13,14,12,0,-20
3,-4,-7,1,5,-6,3,13,15,12,0,-19
3,-5,-8,1,5,-6,3,13,15,13,1,-19
3,-5,-8,1,6,-7,3,13,15,13,1,-19
3,-6,-9,2,6,-8,3,13,15,12,1,-20
3,-6,-9,2,6,-8,3,13,15,12,1,-20
2,-7,-10,3,6,-9,3,13,15,12,1,-20
1,-8,-10,4,6,-9,3,13,15,12,0,-20
0,-9,-10,5,5,-10,3,13,15,11,0,-20
0,-10,-11,6,5,-11,3,13,15,11,0,-21
0,-11,-12,6,6,-12,3,14,15,11,0,-21
0,-12,-13,7,6,-13,4,14,15,11,0,-21
0,-12,-13,7,6,-13,5,15,15,10,-1,-21
0,-13,-13,7,6,-14,5,14,14,10,-1,-22
-1,-13,-13,8,5,-14,5,13,14,9,-2,-22
-3,-14,-12,9,5,-14,5,13,13,8,-3,-23
-3,-15,-12,9,5,-14,5,12,12,8,-3,-23
-3,-15,-12,10,5,-14,4,12,12,7,-4,-23
-4,-16,-12,11,4,-14,4,12,11,7,-4,-24
-4,-17,-13,11,4,-15,4,12,11,6,-4,-24
-3,-18,-14,11,6,-16,3,11,10,6,-5,-25
-2,-18,-15,10,7,-17,3,11,9,5,-5,-25
-2,-18,-15,10,7,-17,3,11,9,5,-5,-25
-2,-18,-15,10,7,-17,3,11,9,5,-6,-25
-2,-18,-15,10,6,-17,3,11,9,5,-6,-25
-3,-18,-15,11,6,-17,3,10,9,5,-6,-25
-3,-18,-15,11,6,-17,3,10,9,5,-6,-24
-4,-18,-15,12,5,-17,3,10,9,5,-6,-24
-5,-18,-14,12,4,-17,3,10,9,5,-6,-24
-5,-18,-14,12,4,-17,4,10,9,5,-6,-24
-4,-18,-14,11,5,-17,4,11,9,5,-6,-24
-3,-17,-14,11,5,-16,5,11,10,5,-5,-24
-4,-17,-13,11,5,-16,5,12,10,5,-5,-23
-4,-17,-13,11,4,-15,5,12,10,5,-5,-23
-4,-16,-13,11,5,-15,5,12,10,5,-5,-23
-3,-16,-14,11,5,-15,5,12,10,5,-5,-23
-3,-17,-14,11,4,-15,6,12,10,5,-5,-23
-3,-17,-14,11,4,-15,6,12,10,5,-6,-23
-3,-18,-14,11,5,-16,5,12,10,5,-6,-23
-3,-18,-15,11,5,-17,5,11,9,4,-7,-23
-3,-19,-16,11,5,-18,5,11,9,4,-7,-24
-4,-20,-16,12,5,-18,4,10,8,3,-7,-24
-4,-20,-16,12,6,-18,4,10,8,3,-7,-24
-3,-20,-16,12,6,-18,4,10,9,4,-7,-24
-4,-20,-16,12,6,-18,4,10,9,4,-7,-24
-4,-20,-15,12,5,-18,4,11,9,4,-7,-24
-4,-20,-15,12,5,-18,4,11,9,4,-7,-24
-3,-19,-15,11,6,-18,4,11,10,4,-7,-24
-2,-18,-16,11,6,-18,4,11,10,4,-7,-23
-3,-18,-16,11,6,-18,4,12,11,4,-7,-23
-4,-19,-15,12,6,-18,4,12,11,4,-7,-23
-5,-19,-15,12,5,-18,5,12,11,4,-7,-23
-5,-19,-15,12,5,-18,5,12,11,4,-7,-23
-5,-19,-15,12,5,-18,5,12,11,4,-7,-23
-4,-19,-15,12,5,-18,5,12,11,4,-7,-23
-4,-19,-15,11,6,-17,5,12,11,4,-7,-23
-4,-20,-15,11,6,-18,5,11,11,4,-7,-23
-4,-21,-16,12,6,-19,4,10,11,4,-7,-23
-4,-20,-16,12,6,-19,4,10,10,4,-7,-23
-3,-19,-16,12,7,-18,4,11,10,4,-7,-23
-3,-19,-16,11,7,-18,5,11,11,4,-6,-22
-3,-18,-16,11,6,-17,5,11,11,4,-6,-22
-3,-18,-16,11,6,-17,5,11,11,4,-6,-22
-3,-18,-16,11,6,-17,5,11,11,4,-6,-22
-3,-19,-16,11,6,-18,5,11,12,4,-6,-22
-3,-19,-15,11,6,-18,5,11,12,4,-6,-22
-4,-20,-16,12,7,-18,5,11,12,4,-6,-22
-4,-20,-16,12,7,-18,5,11,12,4,-6,-22
-3,-19,-17,11,7,-18,5,11,12,4,-6,-22
-3,-19,-17,11,7,-18,5,11,12,4,-7,-22
-4,-19,-16,12,6,-18,5,11,12,4,-7,-22
-5,-20,-15,13,5,-18,5,12,12,4,-7,-22
-6,-20,-13,13,3,-17,6,12,13,5,-7,-21
-7,-20,-12,13,2,-16,6,13,13,5,-7,-21
-6,-19,-12,12,3,-16,6,13,13,5,-7,-21
-3,-18,-15,10,6,-17,6,12,13,5,-7,-21
-1,-18,-17,9,7,-17,5,12,13,5,-7,-21
-1,-18,-17,9,8,-18,5,12,13,5,-7,-21
-1,-19,-17,10,8,-18,5,12,13,5,-7,-21
-2,-19,-17,10,7,-19,5,12,12,4,-7,-21
-2,-19,-17,10,7,-19,5,12,12,4,-7,-21
-2,-19,-17,10,8,-19,5,12,12,4,-7,-21
-1,-19,-17,10,8,-18,5,12,12,4,-7,-20
0,-18,-16,9,8,-17,5,12,13,5,-6,-20
0,-17,-16,8,7,-16,6,13,14,6,-6,-19
-1,-16,-15,8,7,-16,6,13,15,7,-5,-19
0,-16,-15,8,7,-16,6,14,15,7,-5,-19
0,-16,-16,7,8,-16,6,14,15,6,-5,-19
0,-16,-16,8,8,-16,6,14,15,6,-5,-19
-1,-17,-15,9,7,-16,6,14,15,6,-5,-19
-2,-18,-16,10,7,-17,6,14,14,6,-6,-19
-2,-19,-17,10,8,-18,5,14,14,6,-6,-20
-1,-20,-18,10,9,-19,5,14,14,6,-7,-21
0,-20,-19,10,9,-19,5,15,15,6,-7,-21
-1,-21,-20,10,9,-20,6,17,17,7,-7,-22
-1,-22,-20,11,9,-21,6,19,19,7,-7,-22
-2,-23,-21,12,9,-22,7,21,21,8,-7,-23
-2,-24,-21,12,10,-23,8,24,24,10,-7,-23
-1,-23,-22,12,10,-23,9,27,29,13,-6,-23
-1,-23,-22,12,10,-23,9,30,34,17,-4,-22
0,-22,-21,11,10,-22,9,32,39,23,-1,-21
1,-19,-20,9,11,-20,8,33,44,30,3,-18
3,-15,-19,6,11,-18,7,35,50,39,10,-13
7,-10,-17,2,12,-14,6,37,58,50,18,-8
11,-4,-15,-3,13,-10,4,41,68,65,30,0
15,3,-12,-9,13,-5,2,46,80,81,43,8
18,9,-9,-14,13,0,-1,49,92,99,57,18
21,16,-4,-19,13,6,-5,50,101,116,71,28
23,25,1,-24,12,13,-9,46,106,133,86,39
26,34,8,-29,10,21,-15,37,106,147,100,49
27,43,16,-34,6,30,-20,25,101,158,113,60
27,53,26,-39,1,39,-25,13,96,167,125,70
26,62,36,-43,-4,48,-30,0,87,170,133,79
22,69,48,-45,-13,58,-35,-17,68,159,133,84
14,75,62,-44,-24,68,-39,-38,42,138,127,87
5,80,76,-42,-35,78,-43,-59,11,109,116,87
-4,84,89,-40,-46,86,-45,-76,-18,78,103,86
-11,86,99,-37,-54,92,-48,-90,-46,47,90,84
-17,87,105,-35,-60,96,-52,-102,-73,18,76,82
-19,87,107,-33,-62,97,-54,-110,-95,-5,64,78
-20,84,105,-32,-62,95,-56,-113,-109,-23,52,72
-20,79,100,-30,-60,90,-56,-112,-116,-35,42,65
-19,71,91,-26,-55,81,-53,-104,-116,-42,32,56
-19,59,79,-20,-49,69,-47,-92,-110,-46,20,43
-20,45,65,-13,-42,54,-41,-79,-101,-48,9,30
-20,31,52,-5,-35,41,-35,-66,-91,-48,0,17
-20,19,40,0,-29,29,-29,-55,-81,-47,-7,7
-19,10,30,4,-24,20,-24,-45,-72,-46,-12,-1
-18,3,21,7,-19,12,-19,-37,-63,-44,-16,-7
-16,-2,14,9,-15,6,-14,-29,-55,-41,-18,-11
-15,-5,9,10,-12,1,-11,-23,-48,-37,-18,-14
-13,-7,5,10,-9,-2,-8,-18,-42,-33,-18,-15
-11,-9,2,10,-7,-4,-7,-14,-36,-30,-17,-15
-10,-9,1,9,-5,-4,-6,-11,-31,-26,-15,-14
-8,-8,1,8,-4,-4,-5,-8,-26,-22,-13,-12
-7,-6,1,7,-3,-3,-5,-6,-22,-19,-10,-10
-6,-5,1,6,-3,-2,-6,-5,-19,-17,-8,-9
-6,-4,2,5,-4,-1,-7,-6,-17,-15,-7,-8
-5,-1,3,3,-4,0,-8,-6,-15,-14,-5,-7
-4,0,5,2,-5,2,-8,-7,-14,-12,-4,-6
-5,1,7,2,-6,4,-9,-7,-12,-10,-3,-5
-6,1,8,2,-7,5,-9,-8,-12,-9,-2,-4
-6,0,8,3,-6,4,-10,-9,-11,-9,-2,-4
-6,0,7,3,-6,4,-10,-9,-11,-10,-2,-4
-6,1,7,3,-6,4,-10,-9,-11,-10,-2,-4
-6,1,8,2,-6,5,-10,-9,-11,-10,-1,-3
-7,2,9,2,-7,6,-10,-10,-11,-10,-1,-3
-7,3,10,1,-8,6,-10,-10,-11,-9,-1,-3
-7,4,10,1,-8,6,-11,-11,-11,-9,-1,-3
-6,4,11,1,-8,6,-11,-11,-11,-9,-1,-3
-6,5,11,1,-8,7,-11,-11,-10,-9,-1,-2
-6,5,11,0,-8,7,-11,-11,-10,-9,-1,-2
-5,5,11,0,-8,8,-11,-12,-10,-9,-1,-2
-3,6,11,-1,-7,8,-12,-12,-10,-9,-1,-2
-3,7,11,-1,-7,8,-12,-12,-10,-9,-1,-2
-3,7,11,-2,-7,8,-13,-12,-11,-9,-1,-2
-3,7,11,-2,-7,8,-13,-13,-11,-9,-1,-1
-3,7,11,-1,-7,8,-14,-14,-12,-9,-1,-1
-4,7,10,-1,-7,8,-14,-14,-13,-10,-1,-1
-4,6,10,-1,-7,8,-14,-15,-13,-10,-1,-1
-4,6,10,-1,-7,9,-14,-15,-13,-10,0,0
-5,6,12,0,-8,9,-15,-15,-13,-10,0,0
-5,7,12,-1,-9,9,-15,-15,-13,-10,0,0
-4,9,13,-2,-8,10,-15,-15,-13,-9,0,0
-3,10,13,-3,-8,10,-15,-16,-13,-9,0,0
-3,10,13,-3,-8,11,-15,-16,-14,-9,0,1
-3,10,13,-3,-8,11,-16,-17,-15,-9,0,1
-4,9,13,-2,-9,11,-16,-17,-15,-9,1,1
-4,9,13,-2,-9,11,-16,-18,-16,-9,1,1
-3,10,14,-3,-9,12,-16,-18,-16,-9,1,2
-3,11,15,-3,-10,13,-16,-18,-15,-9,2,2
-4,12,16,-3,-10,14,-17,-19,-16,-9,2,2
-4,12,17,-3,-10,14,-18,-20,-17,-10,2,2
-5,12,17,-3,-10,14,-18,-21,-17,-10,2,3
-5,12,17,-3,-10,14,-18,-22,-17,-10,2,3
-5,12,17,-3,-10,14,-18,-22,-17,-10,3,4
-5,13,17,-4,-10,15,-18,-23,-17,-10,3,4
-4,13,17,-4,-10,15,-18,-23,-18,-10,3,4
-5,14,18,-5,-11,15,-18,-23,-18,-10,3,5
-5,14,19,-5,-12,16,-18,-23,-18,-10,3,5
-5,14,20,-5,-12,17,-18,-24,-19,-10,4,6
-5,15,20,-5,-12,17,-19,-25,-20,-10,4,6
-5,15,20,-6,-12,17,-19,-26,-20,-10,4,7
-5,16,21,-6,-12,18,-19,-26,-21,-10,4,7
-5,16,21,-6,-13,18,-19,-27,-21,-10,5,8
-5,17,22,-6,-13,19,-19,-27,-21,-10,6,8
-5,18,22,-7,-13,20,-19,-28,-22,-10,6,9
-5,18,23,-7,-13,20,-19,-29,-23,-11,7,9
-5,18,23,-7,-14,20,-20,-29,-23,-11,7,9
-6,19,24,-7,-14,21,-20,-29,-23,-11,7,10
-5,20,25,-7,-14,22,-20,-29,-24,-11,8,11
-4,21,25,-8,-14,23,-20,-30,-24,-11,8,11
-4,22,26,-9,-14,23,-20,-31,-25,-11,8,12
-5,22,27,-9,-14,24,-20,-32,-25,-11,9,12
-6,22,28,-8,-16,24,-20,-32,-25,-11,9,13
-6,23,29,-8,-17,25,-20,-32,-26,-11,10,13
-6,24,29,-8,-17,25,-20,-33,-27,-11,10,14
-5,24,29,-9,-16,26,-21,-34,-28,-11,10,14
-4,24,29,-10,-16,26,-21,-35,-29,-12,10,14
-5,25,30,-10,-17,27,-21,-37,-30,-12,10,15
-5,25,31,-10,-17,27,-22,-38,-31,-12,11,15
-5,26,31,-10,-17,28,-22,-39,-31,-13,11,16
-4,27,32,-11,-17,28,-23,-40,-32,-13,11,16
-4,27,32,-11,-18,29,-23,-41,-33,-13,12,17
-5,28,32,-11,-18,29,-24,-42,-34,-13,12,17
-5,29,34,-12,-19,31,-24,-42,-34,-13,14,19
-5,30,35,-13,-20,32,-24,-43,-35,-13,15,20
-4,32,37,-14,-20,34,-24,-44,-35,-13,16,22
-4,33,38,-14,-21,35,-24,-45,-36,-13,16,23
-5,33,40,-14,-22,36,-25,-46,-37,-13,17,24
-5,34,41,-14,-22,37,-25,-47,-37,-13,17,25
-3,36,41,-16,-22,38,-25,-48,-38,-13,18,25
-3,38,42,-17,-22,39,-25,-49,-38,-13,19,26
-2,40,43,-18,-22,40,-25,-50,-40,-13,20,27
-2,41,44,-19,-22,42,-26,-52,-41,-13,20,28
-3,42,45,-19,-23,43,-26,-53,-42,-13,21,29
-4,42,46,-18,-25,44,-27,-54,-43,-14,21,30
-5,41,48,-17,-26,44,-27,-56,-44,-15,22,31
-6,42,49,-17,-28,45,-28,-57,-45,-15,22,32
-6,44,51,-18,-28,46,-28,-57,-46,-15,23,33
-6,46,52,-20,-28,48,-28,-58,-46,-14,24,34
-5,47,52,-21,-28,49,-28,-59,-47,-14,25,35
-5,48,53,-21,-29,50,-28,-60,-48,-14,25,36
-5,49,54,-22,-29,52,-28,-62,-49,-15,26,37
-4,50,55,-23,-29,53,-29,-63,-50,-15,26,38
-4,52,57,-24,-30,54,-29,-64,-51,-15,27,39
-4,53,58,-24,-30,55,-29,-65,-52,-15,28,40
-3,55,59,-25,-30,56,-30,-66,-53,-15,28,41
-2,57,60,-27,-30,58,-30,-67,-54,-15,30,42
-2,59,61,-28,-31,59,-30,-67,-54,-15,31,44
-2,60,62,-28,-32,60,-30,-68,-55,-15,32,45
-3,60,63,-28,-32,61,-31,-69,-56,-15,33,46
-3,61,64,-29,-32,61,-31,-70,-57,-15,33,47
-2,62,65,-29,-33,62,-30,-71,-58,-15,34,48
-2,63,66,-30,-33,64,-30,-72,-58,-15,34,49
-2,64,66,-30,-34,65,-31,-73,-59,-15,35,50
-2,65,67,-31,-34,65,-31,-74,-60,-15,35,50
-3,65,67,-31,-34,66,-31,-74,-61,-16,35,50
-3,66,68,-31,-35,66,-31,-75,-62,-16,35,51
-2,67,68,-33,-34,67,-31,-75,-62,-17,36,52
-1,67,68,-33,-34,67,-31,-76,-63,-17,36,53
0,67,68,-33,-34,67,-31,-77,-63,-17,36,53
0,67,68,-33,-34,67,-31,-78,-63,-17,36,53
-1,67,69,-33,-34,67,-32,-78,-64,-17,36,53
-2,66,69,-32,-35,67,-32,-78,-64,-17,36,53
-2,67,69,-32,-35,67,-31,-78,-64,-17,36,54
-1,67,68,-33,-34,67,-31,-77,-64,-18,36,54
-1,67,68,-33,-34,67,-31,-77,-64,-18,36,54
-1,67,69,-33,-34,67,-30,-77,-64,-18,37,54
-1,67,69,-33,-34,68,-29,-76,-64,-18,37,55
0,68,69,-33,-34,68,-28,-75,-64,-17,37,55
0,68,68,-34,-33,68,-27,-74,-63,-17,37,55
1,68,66,-35,-31,67,-26,-73,-62,-16,37,55
2,68,65,-35,-30,66,-26,-72,-61,-16,37,55
2,67,64,-34,-30,65,-25,-71,-60,-16,37,54
2,66,63,-34,-29,64,-24,-70,-60,-16,37,54
3,66,62,-34,-28,63,-24,-69,-59,-16,36,53
4,65,60,-34,-27,62,-23,-68,-59,-16,36,53
5,65,59,-34,-26,62,-22,-66,-58,-16,36,52
6,64,58,-34,-25,61,-21,-65,-56,-15,35,52
6,63,57,-34,-24,60,-20,-63,-55,-15,35,51
6,62,55,-33,-24,58,-19,-62,-54,-15,34,51
6,60,54,-33,-23,56,-18,-60,-53,-15,34,50
7,58,51,-33,-22,54,-18,-59,-52,-15,33,48
8,57,49,-32,-20,52,-17,-58,-51,-15,32,47
9,56,46,-33,-18,51,-16,-56,-50,-14,32,46
11,55,44,-33,-16,50,-15,-53,-48,-13,31,46
12,55,43,-33,-14,49,-13,-50,-45,-13,31,45
12,54,41,-33,-13,47,-12,-48,-43,-13,30,44
12,51,39,-31,-13,45,-11,-45,-41,-12,30,43
11,49,38,-30,-13,43,-10,-43,-39,-12,29,41
11,47,36,-30,-12,41,-8,-41,-38,-11,28,40
14,47,33,-31,-9,39,-7,-39,-36,-11,27,39
16,46,30,-31,-6,37,-6,-37,-34,-10,27,38
16,44,27,-30,-5,35,-5,-34,-32,-9,26,37
17,41,25,-29,-3,33,-4,-31,-30,-9,25,35
17,39,22,-28,-2,31,-2,-28,-27,-8,24,34
18,37,20,-28,0,28,-1,-25,-25,-7,23,32
18,36,18,-27,1,26,0,-22,-22,-6,23,31
19,35,16,-27,2,25,2,-19,-19,-5,22,30
20,34,14,-27,3,23,4,-16,-17,-3,22,29
20,32,12,-25,4,21,6,-13,-15,-3,21,27
19,29,10,-24,5,19,7,-10,-13,-2,19,26
19,26,7,-22,6,17,9,-8,-11,-2,18,24
20,24,5,-22,8,15,10,-5,-9,-2,16,22
20,22,3,-21,9,13,11,-3,-6,-1,15,21
20,20,1,-20,9,11,12,-1,-4,0,15,19
20,19,0,-20,11,9,14,1,-1,0,14,17
22,19,-2,-21,12,8,16,3,0,1,14,16
23,18,-3,-21,13,7,18,5,3,2,14,16
23,17,-4,-20,14,6,20,7,5,3,13,15
23,16,-5,-19,14,6,21,9,6,4,12,14
22,15,-5,-18,14,5,22,11,8,5,11,13
22,14,-6,-18,14,3,22,12,9,5,10,11
21,12,-7,-17,15,2,22,12,10,5,9,9
19,11,-8,-15,14,0,22,12,11,5,8,7
18,9,-9,-14,14,0,22,12,11,6,7,6
17,7,-9,-12,14,-1,22,12,11,6,5,4
16,6,-10,-11,14,-2,23,12,12,6,4,4
16,5,-10,-11,14,-2,23,12,13,6,4,3
16,4,-11,-10,14,-3,23,12,14,6,3,2
17,4,-12,-10,14,-4,23,12,14,6,3,1
17,3,-13,-10,15,-5,24,12,15,6,3,0
17,3,-14,-10,16,-6,24,13,15,6,3,-1
17,2,-15,-9,16,-6,25,13,15,7,3,-1
16,1,-14,-8,15,-7,26,14,16,7,3,-2
16,1,-14,-8,15,-7,26,14,17,7,3,-2
15,-1,-15,-6,15,-8,26,15,18,7,3,-3
13,-2,-15,-5,14,-9,27,15,18,6,2,-3
12,-3,-14,-4,13,-9,28,16,18,6,1,-4
11,-3,-13,-3,13,-8,29,16,19,7,1,-4
10,-4,-13,-2,12,-9,29,16,19,7,1,-5
9,-5,-14,-1,12,-10,30,16,19,7,1,-6
9,-6,-15,-1,12,-11,30,17,19,7,0,-6
8,-6,-14,0,11,-11,31,17,19,7,0,-6
7,-7,-15,0,11,-12,31,17,18,6,0,-7
7,-9,-17,1,12,-13,31,16,17,5,-1,-8
7,-11,-18,2,13,-15,30,15,16,4,-3,-10
5,-14,-19,3,13,-17,30,14,15,2,-5,-11
4,-15,-19,5,12,-17,29,13,14,1,-6,-12
4,-16,-19,6,12,-18,29,13,14,0,-7,-13
4,-16,-19,6,12,-18,29,13,13,0,-7,-13
4,-15,-19,6,12,-17,29,12,13,0,-7,-13
5,-15,-19,5,12,-17,29,12,13,0,-7,-13
4,-15,-18,6,11,-17,29,12,12,0,-7,-13
3,-16,-18,7,10,-17,29,12,12,-1,-8,-13
1,-17,-18,8,10,-18,29,12,12,-1,-8,-14
1,-17,-17,8,10,-17,29,13,12,-1,-8,-14
2,-16,-17,7,10,-17,28,13,12,-1,-8,-14
2,-17,-18,7,10,-18,27,12,11,-1,-8,-14
2,-17,-18,8,10,-18,26,12,11,-2,-8,-15
1,-17,-18,8,10,-18,26,12,11,-2,-8,-15
0,-18,-17,9,9,-18,26,13,11,-2,-8,-15
0,-18,-17,9,9,-18,26,13,11,-2,-8,-15
0,-18,-17,9,9,-18,25,13,11,-2,-9,-15
0,-18,-18,8,10,-18,25,13,11,-2,-9,-15
1,-17,-18,8,10,-17,25,13,11,-2,-9,-15
2,-17,-18,8,10,-17,25,12,11,-2,-9,-15
1,-17,-18,8,9,-18,24,12,11,-2,-9,-15
0,-18,-18,9,9,-19,24,12,11,-2,-9,-15
0,-19,-18,10,9,-19,24,12,11,-2,-9,-15
0,-19,-18,10,9,-19,23,13,11,-2,-9,-15
0,-19,-18,10,9,-19,23,13,11,-2,-9,-15
0,-19,-18,10,9,-19,23,13,11,-2,-9,-15
-1,-19,-19,10,9,-19,23,13,11,-2,-9,-16
-1,-20,-19,10,9,-19,23,13,11,-2,-9,-16
0,-19,-19,10,9,-19,23,13,11,-2,-9,-16
0,-19,-19,9,10,-19,23,13,11,-2,-9,-16
1,-18,-19,8,11,-19,22,13,11,-2,-9,-16
2,-18,-20,8,12,-19,22,13,11,-2,-9,-16
2,-18,-19,8,11,-19,21,13,11,-2,-9,-16
1,-18,-19,9,10,-19,21,14,11,-2,-9,-16
0,-19,-19,9,10,-19,20,14,11,-2,-9,-16
0,-19,-20,10,10,-20,20,14,11,-3,-9,-16
0,-19,-19,10,10,-19,20,14,11,-3,-9,-15
0,-19,-19,9,10,-19,19,14,12,-3,-9,-15
0,-19,-18,9,10,-19,19,14,12,-3,-9,-15
0,-19,-18,10,9,-19,19,14,12,-3,-9,-16
0,-19,-18,10,9,-18,19,14,12,-3,-9,-16
0,-19,-18,9,9,-18,19,14,12,-3,-9,-15
1,-18,-18,8,10,-18,19,14,11,-3,-9,-15
1,-18,-19,8,11,-18,19,14,11,-3,-9,-15
0,-19,-19,9,10,-19,18,14,10,-3,-10,-16
-1,-21,-19,11,10,-20,18,13,10,-4,-10,-16
-1,-21,-20,11,10,-21,17,13,9,-4,-11,-16
0,-20,-20,9,11,-20,17,13,9,-5,-11,-16
2,-19,-20,8,12,-19,17,13,10,-5,-11,-16
2,-18,-20,7,12,-19,17,14,10,-5,-11,-16
2,-18,-20,8,12,-19,17,14,10,-6,-11,-16
2,-17,-20,8,11,-19,17,14,10,-6,-10,-16
1,-17,-19,8,11,-18,17,14,10,-6,-10,-15
1,-18,-19,8,11,-18,17,14,10,-6,-10,-15
1,-18,-19,8,11,-19,17,14,10,-6,-10,-15
1,-19,-20,8,11,-19,16,14,9,-6,-10,-15
1,-19,-20,9,11,-20,16,14,9,-6,-10,-15
1,-19,-20,9,11,-20,16,14,9,-6,-10,-15
2,-19,-20,8,11,-19,16,14,9,-6,-10,-15
1,-18,-20,8,11,-19,15,14,8,-6,-10,-15
1,-18,-20,9,11,-19,15,14,8,-7,-10,-15
1,-18,-19,9,11,-18,15,14,8,-7,-10,-15
1,-18,-19,9,10,-18,15,14,8,-7,-10,-14
0,-18,-18,9,10,-18,15,14,8,-7,-10,-14
0,-19,-18,9,10,-18,15,14,8,-7,-11,-15
0,-19,-18,10,9,-19,15,14,7,-8,-11,-15
0,-19,-18,10,9,-19,15,14,7,-8,-11,-15
-1,-19,-18,10,9,-19,15,14,7,-8,-11,-15
0,-18,-19,9,10,-18,14,13,7,-8,-11,-15
1,-18,-19,8,11,-18,14,13,6,-8,-11,-15
2,-17,-20,8,11,-18,14,13,6,-8,-11,-15
3,-17,-20,7,12,-18,14,13,6,-8,-11,-15
2,-17,-20,7,12,-18,14,14,7,-8,-11,-15
2,-17,-19,8,11,-18,14,14,7,-8,-11,-15
1,-17,-19,8,11,-18,14,14,7,-8,-11,-15
1,-18,-19,8,10,-18,14,14,7,-8,-11,-15
0,-19,-19,9,10,-19,13,14,6,-8,-12,-16
0,-19,-19,9,10,-19,13,14,6,-8,-12,-16
0,-19,-19,9,10,-19,13,14,6,-8,-12,-16
0,-19,-19,9,10,-19,13,14,6,-8,-12,-16
1,-18,-18,9,10,-18,13,14,6,-8,-12,-16
1,-18,-18,8,10,-18,13,14,6,-8,-12,-16
1,-18,-18,8,10,-18,13,14,6,-8,-12,-15
1,-18,-18,8,10,-18,13,14,6,-8,-12,-15
1,-18,-19,8,10,-18,13,14,6,-8,-12,-15
1,-18,-19,8,10,-19,13,14,6,-8,-12,-15
0,-19,-19,9,10,-19,13,14,6,-8,-12,-15
0,-19,-19,9,10,-19,13,14,6,-8,-12,-15
0,-19,-19,10,10,-19,13,14,6,-8,-12,-14
0,-19,-19,10,10,-19,13,14,6,-8,-12,-14
0,-19,-19,10,10,-19,13,14,6,-8,-12,-14
0,-19,-19,10,10,-20,13,13,6,-8,-12,-14
0,-19,-19,9,10,-20,13,13,6,-8,-12,-14
0,-19,-19,9,10,-19,13,13,6,-8,-12,-13
1,-18,-19,8,10,-19,13,13,7,-8,-12,-13
1,-18,-18,8,10,-19,13,13,7,-8,-12,-14
0,-18,-18,9,9,-19,13,13,7,-8,-12,-14
0,-18,-18,9,9,-19,13,13,6,-8,-12,-14
0,-19,-18,9,9,-19,12,13,6,-8,-12,-14
0,-18,-18,9,9,-18,12,13,6,-8,-12,-13
0,-18,-17,9,9,-17,13,13,7,-8,-11,-13
0,-17,-16,9,8,-17,13,13,7,-8,-11,-12
-1,-18,-16,9,8,-17,13,13,6,-8,-11,-12
-1,-18,-17,9,8,-18,12,13,5,-9,-12,-13
0,-19,-19,9,9,-19,11,13,5,-9,-12,-14
1,-18,-19,8,10,-19,11,13,5,-9,-13,-13
1,-18,-20,8,10,-19,11,13,5,-9,-13,-13
2,-18,-20,8,10,-19,11,13,5,-9,-13,-13
2,-18,-20,8,10,-18,11,13,5,-9,-13,-13
2,-17,-19,7,10,-18,11,13,5,-9,-13,-13
2,-16,-18,7,10,-17,11,13,6,-9,-13,-12
2,-16,-18,7,10,-17,11,14,6,-9,-13,-12
3,-16,-18,6,11,-17,11,14,6,-9,-12,-12
3,-16,-19,6,11,-18,11,14,6,-9,-12,-12
2,-17,-19,7,10,-18,10,13,6,-9,-12,-12
2,-17,-19,7,10,-18,10,13,6,-9,-12,-12
2,-18,-19,7,10,-18,10,13,5,-9,-12,-12
2,-18,-20,7,11,-18,10,13,5,-9,-12,-12
2,-18,-19,8,11,-18,10,13,5,-9,-12,-12
1,-18,-19,9,10,-18,10,13,5,-9,-12,-12
0,-18,-18,9,9,-18,10,13,5,-9,-12,-12
-1,-18,-17,10,8,-18,10,13,5,-9,-12,-12
-1,-18,-17,9,8,-18,10,13,5,-9,-12,-12
0,-18,-17,8,8,-17,10,13,5,-9,-12,-12
0,-18,-18,8,8,-17,9,13,5,-9,-12,-12
0,-18,-18,9,8,-18,9,13,5,-9,-12,-12
1,-18,-18,8,9,-18,9,13,5,-10,-12,-12
1,-17,-18,8,9,-18,9,13,5,-10,-12,-12
1,-17,-18,8,9,-18,9,13,5,-10,-12,-11
1,-17,-18,8,9,-17,9,13,5,-10,-12,-11
1,-17,-18,8,9,-17,9,13,5,-10,-12,-11
0,-17,-17,8,8,-17,9,13,5,-10,-12,-12
0,-17,-17,9,7,-17,9,13,5,-10,-12,-12
0,-17,-17,9,8,-17,9,13,5,-10,-12,-12
0,-18,-18,9,9,-17,9,12,5,-10,-12,-13
1,-18,-19,9,10,-18,9,11,4,-10,-12,-13
1,-19,-19,9,10,-19,9,11,4,-10,-12,-13
1,-18,-19,9,10,-19,9,12,4,-10,-12,-13
2,-18,-20,8,10,-19,9,12,4,-10,-13,-13
2,-18,-20,8,10,-19,8,12,4,-10,-13,-13
1,-18,-20,8,10,-19,8,12,4,-10,-13,-12
1,-18,-19,8,10,-18,9,12,4,-9,-13,-12
1,-17,-18,8,9,-17,9,12,5,-9,-12,-11
1,-17,-18,8,9,-17,9,11,5,-9,-12,-10
1,-17,-18,8,9,-17,9,11,5,-9,-12,-10
1,-16,-18,7,9,-17,9,11,5,-9,-12,-10
1,-16,-18,7,9,-17,9,11,5,-9,-12,-10
1,-16,-18,7,9,-17,9,11,5,-9,-12,-10
1,-16,-17,7,9,-17,9,11,5,-9,-12,-10
1,-16,-17,8,9,-17,9,11,5,-9,-12,-10
1,-17,-17,8,9,-17,9,11,5,-9,-12,-10
2,-17,-18,7,9,-17,9,11,5,-9,-12,-10
2,-17,-18,7,9,-17,9,11,5,-9,-12,-10
1,-17,-18,8,9,-17,9,11,5,-9,-12,-10
1,-17,-18,8,9,-17,9,11,5,-9,-12,-10
1,-16,-18,8,9,-17,9,11,5,-8,-12,-10
2,-16,-18,7,9,-17,9,11,5,-8,-12,-10
2,-15,-18,7,10,-17,9,11,5,-8,-12,-10
3,-16,-18,7,10,-17,9,10,5,-9,-12,-11
2,-16,-18,7,10,-17,8,10,5,-9,-12,-11
1,-16,-17,8,9,-17,8,10,5,-9,-12,-11
0,-16,-16,8,9,-17,8,10,5,-9,-12,-11
0,-16,-16,9,8,-17,8,10,5,-9,-12,-11
-1,-17,-16,10,7,-17,8,10,5,-9,-13,-11
-2,-18,-16,10,7,-17,8,10,5,-9,-13,-12
-1,-18,-16,10,7,-17,8,10,5,-9,-13,-12
0,-17,-16,9,8,-17,8,10,4,-9,-13,-13
1,-17,-17,8,9,-17,7,9,4,-9,-14,-13
1,-17,-17,8,9,-18,7,9,4,-9,-14,-13
0,-18,-17,9,8,-18,7,9,4,-9,-13,-13
0,-18,-17,9,8,-18,7,9,4,-9,-13,-13
0,-18,-18,9,8,-18,7,9,4,-9,-13,-13
1,-17,-18,8,9,-18,7,10,4,-9,-13,-13
1,-16,-17,8,9,-17,7,10,4,-8,-13,-13
2,-16,-17,7,9,-16,7,10,5,-8,-12,-13
2,-16,-16,7,9,-16,7,10,5,-8,-12,-13
2,-16,-16,7,9,-16,7,11,5,-8,-12,-13
1,-15,-16,7,8,-16,7,11,5,-8,-12,-13
1,-15,-16,7,8,-15,7,11,6,-7,-12,-13
1,-15,-16,7,8,-15,8,11,6,-7,-12,-13
0,-16,-16,8,8,-16,7,11,6,-7,-12,-13
0,-17,-16,9,8,-17,7,11,5,-8,-13,-14
0,-18,-16,9,8,-17,7,10,5,-8,-14,-14
0,-18,-16,9,8,-17,7,10,5,-8,-14,-13
0,-17,-17,9,8,-17,7,10,5,-8,-14,-13
0,-17,-17,9,8,-18,7,10,5,-8,-14,-13
0,-17,-18,8,9,-18,7,10,5,-8,-14,-13
1,-16,-18,8,10,-17,7,10,5,-8,-13,-12
1,-16,-17,8,9,-17,7,10,4,-8,-13,-12
0,-17,-16,8,8,-17,7,11,4,-7,-12,-12
0,-17,-16,9,7,-17,7,11,4,-7,-12,-12
0,-17,-16,9,7,-17,7,11,5,-7,-12,-12
0,-16,-16,8,8,-16,7,11,5,-7,-11,-12
1,-15,-16,7,8,-16,8,12,6,-7,-11,-11
1,-14,-15,7,8,-15,8,12,6,-6,-10,-11
2,-13,-15,6,8,-14,8,12,6,-6,-10,-11
2,-14,-15,6,8,-15,8,12,6,-6,-11,-11
1,-15,-15,7,8,-15,8,12,6,-6,-11,-11
1,-16,-15,8,8,-16,8,12,5,-6,-12,-11
1,-16,-16,8,8,-16,8,11,5,-7,-12,-11
1,-16,-16,8,8,-16,8,11,5,-7,-12,-11
2,-15,-17,7,9,-17,8,11,5,-7,-12,-12
1,-16,-17,8,9,-17,7,10,4,-7,-13,-13
0,-17,-17,9,8,-18,7,10,4,-8,-14,-13
0,-17,-17,9,9,-17,7,10,4,-7,-14,-13
2,-15,-17,7,10,-16,7,10,5,-7,-13,-12
3,-14,-16,6,10,-15,8,11,6,-6,-13,-11
3,-14,-16,6,9,-15,8,11,6,-6,-12,-11
2,-15,-16,7,9,-16,8,11,6,-6,-12,-11
0,-16,-16,8,8,-16,8,11,6,-7,-12,-11
0,-16,-16,8,8,-17,8,11,6,-7,-12,-11
0,-17,-16,8,8,-17,8,11,6,-7,-12,-11
0,-17,-16,9,8,-17,8,10,6,-7,-13,-11
-1,-17,-16,9,8,-17,8,10,6,-7,-13,-11
0,-17,-16,9,8,-17,8,10,5,-7,-13,-11
0,-16,-16,8,8,-16,9,10,5,-7,-13,-11
1,-16,-16,7,8,-16,9,10,5,-7,-12,-12
1,-15,-16,7,8,-16,9,10,5,-7,-12,-12
1,-15,-16,7,8,-16,9,9,5,-6,-12,-12
0,-15,-16,8,8,-16,9,9,6,-6,-12,-12
0,-15,-15,8,7,-15,9,9,6,-5,-12,-12
-1,-15,-14,8,7,-15,10,10,6,-5,-12,-12
-1,-15,-13,9,6,-15,10,10,6,-5,-12,-12
-1,-15,-13,9,6,-15,10,10,6,-5,-12,-12
0,-15,-14,8,7,-15,10,10,7,-5,-12,-12
-1,-15,-15,8,7,-15,10,10,7,-5,-12,-13
-2,-16,-14,9,6,-15,10,10,7,-5,-12,-15
-3,-16,-14,10,5,-15,10,10,7,-5,-12,-16
-2,-16,-14,9,6,-15,10,10,7,-5,-12,-17
0,-16,-15,8,7,-15,10,10,6,-6,-13,-17
1,-16,-16,8,8,-16,10,10,6,-6,-13,-18
1,-16,-16,7,8,-16,10,11,6,-6,-12,-18
1,-15,-16,7,8,-16,10,11,6,-6,-12,-18
1,-15,-16,7,8,-16,10,11,6,-6,-12,-18
2,-15,-17,7,9,-16,9,11,6,-6,-12,-18
2,-15,-17,7,9,-16,9,10,6,-6,-12,-18
2,-15,-17,7,10,-16,9,10,6,-6,-12,-18
2,-15,-17,7,10,-16,9,10,6,-6,-12,-18
2,-15,-16,7,9,-16,10,10,7,-6,-12,-18
2,-14,-16,6,9,-15,10,10,7,-6,-12,-18
2,-14,-16,6,9,-15,10,10,7,-6,-12,-18
2,-15,-16,6,9,-15,10,10,7,-5,-12,-18
1,-15,-16,7,9,-15,9,10,7,-5,-12,-18
1,-15,-16,7,9,-15,9,11,7,-5,-11,-18
1,-14,-15,6,8,-15,10,11,7,-5,-11,-17
1,-14,-15,6,8,-14,11,11,7,-5,-11,-17
0,-14,-15,7,8,-15,10,11,7,-5,-12,-18
0,-15,-15,7,8,-15,10,11,7,-5,-12,-18
0,-15,-15,7,8,-15,10,11,7,-5,-12,-18
-1,-16,-15,8,7,-15,10,11,7,-5,-12,-18
-2,-17,-14,9,6,-15,10,11,7,-5,-12,-18
-1,-17,-14,9,6,-15,10,11,7,-5,-12,-18
-1,-17,-15,9,7,-16,10,11,7,-5,-12,-18
-1,-17,-15,9,7,-16,10,11,7,-5,-13,-18
-1,-16,-15,9,7,-16,10,11,7,-5,-13,-18
-1,-16,-15,9,7,-16,10,11,7,-5,-13,-18
0,-16,-15,9,7,-15,10,11,8,-5,-13,-17
1,-14,-15,8,7,-14,10,11,8,-4,-12,-17
0,-14,-15,8,7,-14,11,11,8,-4,-12,-16
0,-14,-14,8,6,-14,11,11,8,-4,-12,-16
0,-14,-14,8,6,-14,11,11,9,-4,-11,-16
0,-14,-14,8,6,-14,11,12,9,-4,-11,-16
0,-13,-13,7,7,-13,11,12,9,-4,-10,-16
2,-12,-14,5,8,-13,11,12,9,-4,-10,-15
3,-12,-14,4,8,-13,10,12,9,-3,-9,-14
3,-12,-14,4,8,-13,9,12,9,-3,-9,-14
2,-12,-14,4,7,-13,9,12,9,-3,-9,-14
1,-12,-13,5,7,-13,8,12,9,-3,-9,-14
0,-12,-13,5,6,-12,8,12,10,-2,-9,-14
0,-12,-12,6,6,-12,8,12,10,-2,-9,-14
-1,-12,-12,6,5,-12,8,12,10,-2,-9,-14
-1,-12,-11,7,5,-12,9,12,10,-2,-9,-14
-2,-13,-11,8,4,-12,9,12,10,-2,-9,-14
-3,-13,-10,9,3,-12,9,13,11,-1,-9,-14
-1,-12,-11,7,5,-11,9,13,11,-1,-9,-14
1,-10,-12,5,7,-11,9,14,12,0,-9,-14
2,-10,-12,4,7,-11,9,14,12,0,-9,-14
3,-9,-12,4,7,-10,10,14,13,0,-8,-13
3,-8,-11,3,7,-9,10,14,13,0,-8,-13
2,-7,-9,3,5,-8,11,15,14,1,-7,-12
2,-7,-8,3,4,-7,11,15,14,1,-7,-11
2,-6,-7,3,4,-7,10,14,14,1,-7,-11
1,-6,-7,3,4,-6,10,14,14,1,-7,-10
1,-6,-6,3,3,-6,10,13,14,1,-7,-10
1,-5,-6,2,3,-5,9,12,14,1,-7,-9
2,-5,-7,1,4,-6,8,11,13,1,-7,-9
3,-5,-7,1,5,-6,7,10,12,0,-7,-9
3,-5,-7,1,5,-6,6,9,12,0,-7,-9
3,-5,-8,1,5,-6,5,9,11,0,-7,-9
4,-5,-8,1,5,-7,5,9,11,0,-7,-9
4,-5,-9,0,6,-7,4,9,11,0,-6,-9
5,-5,-10,0,6,-7,4,9,11,0,-6,-9
4,-5,-10,0,6,-7,4,9,11,0,-6,-9
4,-6,-10,1,6,-7,4,9,11,1,-6,-9
4,-6,-10,1,7,-8,4,9,12,1,-6,-9
4,-6,-10,1,7,-8,4,9,12,2,-5,-9
4,-8,-11,2,7,-9,3,9,12,1,-5,-9
4,-9,-11,2,7,-10,3,10,12,1,-5,-8
5,-8,-12,1,8,-10,3,10,12,2,-5,-8
7,-7,-13,0,9,-10,4,11,13,2,-4,-7
6,-7,-13,0,9,-10,5,11,13,2,-5,-7
6,-8,-14,1,9,-11,5,11,13,2,-5,-8
5,-9,-14,1,9,-11,6,12,13,2,-5,-8
5,-9,-13,2,9,-11,7,12,14,2,-5,-8
4,-10,-13,3,8,-12,7,13,14,2,-6,-8
3,-11,-13,4,7,-12,8,13,13,1,-6,-8
2,-12,-13,4,7,-13,8,13,12,1,-7,-9
1,-14,-14,6,7,-14,8,12,11,0,-8,-10
-1,-16,-14,8,6,-15,8,11,10,-1,-8,-11
-3,-17,-14,9,5,-15,8,10,9,-1,-9,-11
-3,-18,-14,10,5,-15,8,10,9,-2,-9,-12
-3,-18,-14,10,5,-15,8,10,8,-2,-10,-12
-3,-18,-14,11,5,-16,8,10,8,-3,-11,-12
-2,-18,-14,10,5,-16,8,10,8,-3,-12,-12
-2,-18,-14,10,5,-16,8,10,8,-3,-12,-12
-2,-18,-15,10,5,-16,8,10,8,-3,-13,-12
-2,-18,-15,10,5,-16,8,10,8,-3,-13,-13
-1,-17,-16,10,6,-16,8,10,8,-3,-12,-13
0,-17,-16,9,7,-16,7,10,8,-3,-12,-13
0,-17,-16,9,7,-16,7,10,8,-3,-11,-13
-1,-17,-16,10,6,-16,7,10,8,-3,-11,-14
-1,-18,-16,10,7,-17,7,10,7,-3,-12,-14
0,-18,-16,9,7,-17,7,10,7,-3,-12,-15
-1,-19,-16,10,6,-17,7,11,7,-3,-12,-15
-3,-20,-16,11,5,-18,7,11,7,-3,-12,-15
-3,-20,-16,11,5,-18,7,11,7,-3,-12,-15
-3,-20,-17,11,6,-18,7,11,7,-3,-12,-14
-2,-20,-17,11,7,-18,7,11,7,-3,-12,-14
-2,-20,-17,11,7,-18,7,11,7,-3,-12,-14
-2,-20,-17,11,7,-19,7,11,7,-3,-12,-14
-1,-20,-17,10,8,-19,7,11,7,-2,-12,-14
-1,-20,-17,10,8,-19,7,12,8,-2,-11,-14
-2,-20,-17,10,7,-18,8,12,8,-1,-11,-14
-3,-20,-17,11,7,-18,8,13,8,-1,-11,-14
-3,-20,-17,11,6,-18,8,13,9,-1,-11,-13
-3,-20,-17,11,6,-18,9,13,9,-1,-11,-13
-3,-20,-17,11,6,-18,9,13,9,-1,-11,-13
-3,-20,-17,11,6,-18,9,13,9,-2,-11,-13
-2,-20,-17,11,7,-19,9,12,9,-2,-11,-13
-2,-20,-17,11,7,-19,9,12,9,-2,-11,-13
-2,-20,-17,11,6,-19,9,12,8,-2,-11,-13
-2,-20,-17,11,7,-18,10,13,8,-2,-11,-13
-1,-19,-17,10,7,-18,10,13,9,-1,-11,-13
-1,-19,-17,10,7,-17,10,14,9,-1,-11,-13
-2,-20,-17,10,7,-17,10,14,9,-1,-11,-13
-3,-21,-16,11,6,-18,10,14,9,-1,-11,-13
-3,-21,-16,11,6,-18,10,14,9,-1,-11,-13
-3,-21,-17,11,7,-18,10,14,9,-1,-11,-12
-4,-22,-17,12,6,-19,10,14,9,-1,-11,-12
-5,-23,-17,14,5,-19,10,14,9,-1,-11,-12
-5,-22,-17,14,5,-19,10,14,9,-1,-11,-12
-4,-21,-17,13,6,-19,10,14,9,-1,-11,-12
-3,-21,-18,12,7,-19,10,14,9,-1,-11,-12
-3,-20,-17,11,7,-19,10,14,9,-1,-11,-12
-1,-19,-17,10,8,-18,10,15,10,0,-11,-12
-1,-18,-16,9,8,-17,11,16,10,0,-10,-11
-2,-19,-16,10,7,-17,12,16,10,0,-10,-12
-3,-20,-16,11,7,-18,12,16,10,0,-11,-12
-4,-21,-16,12,6,-18,12,16,10,0,-11,-13
-4,-21,-16,12,6,-19,12,16,10,0,-11,-13
-4,-21,-16,12,6,-19,12,16,10,0,-11,-13
-5,-22,-16,13,5,-19,12,16,10,0,-10,-13
-5,-22,-16,13,5,-19,12,16,10,0,-10,-13
-5,-22,-16,13,6,-19,12,16,10,0,-10,-13
-4,-22,-17,13,6,-19,12,16,10,0,-10,-13
-4,-22,-18,13,7,-20,12,16,10,0,-10,-13
-2,-22,-19,12,9,-20,12,16,10,0,-10,-13
-1,-22,-19,11,9,-20,12,16,10,0,-11,-13
-1,-22,-19,11,9,-20,12,16,10,0,-11,-13
-2,-23,-19,12,9,-21,11,16,10,-1,-12,-14
-2,-23,-19,12,9,-21,11,16,9,-1,-12,-14
-1,-22,-19,11,9,-21,11,16,9,-1,-11,-14
0,-20,-19,10,9,-20,11,17,10,0,-11,-14
0,-19,-18,9,9,-19,12,17,10,0,-10,-13
0,-19,-18,9,9,-19,13,18,11,1,-9,-12
0,-18,-18,9,9,-19,13,18,11,1,-9,-11
0,-18,-18,9,10,-19,13,18,12,2,-9,-11
0,-19,-18,9,10,-19,13,19,12,2,-9,-11
0,-19,-18,9,9,-19,13,19,12,2,-9,-11
0,-20,-18,10,9,-19,13,19,12,2,-9,-11
0,-20,-18,10,9,-19,13,19,12,2,-9,-11
-1,-20,-18,10,9,-19,13,19,12,2,-9,-11
-2,-21,-18,11,8,-20,13,20,13,2,-10,-12
-3,-23,-19,12,8,-21,13,21,13,2,-10,-12
-3,-24,-20,13,8,-22,14,22,15,2,-11,-13
-3,-25,-21,13,9,-23,15,25,17,4,-11,-14
-3,-25,-21,13,9,-23,15,28,20,6,-11,-14
-2,-24,-22,13,10,-23,16,31,23,8,-11,-14
-1,-24,-22,12,10,-23,17,35,28,12,-9,-14
-2,-24,-21,12,9,-23,18,37,33,16,-7,-14
-1,-22,-21,11,9,-22,18,39,38,22,-3,-12
1,-19,-20,8,11,-20,17,41,44,30,2,-8
4,-15,-19,5,12,-17,16,43,51,40,9,-3
7,-11,-18,1,12,-14,15,46,60,53,19,3
11,-5,-16,-3,13,-10,13,50,71,68,31,10
15,1,-13,-9,14,-6,10,54,83,85,44,19
21,10,-10,-16,15,0,7,57,95,103,58,30
27,20,-6,-23,16,7,3,57,103,121,73,41
30,29,0,-30,15,15,-1,51,107,137,88,52
32,38,7,-35,12,23,-7,40,105,150,101,62
32,47,16,-39,8,31,-13,28,101,161,114,72
32,56,25,-43,3,41,-17,15,96,169,125,82
28,64,37,-45,-4,50,-22,0,84,168,130,89
20,69,51,-44,-16,60,-27,-19,63,153,128,94
8,74,67,-41,-29,70,-32,-41,34,128,120,95
-2,78,81,-38,-42,79,-36,-62,2,98,109,95
-10,81,92,-36,-51,86,-39,-78,-27,67,96,93
-15,84,100,-35,-58,92,-41,-91,-56,37,83,91
-18,85,105,-34,-61,95,-44,-102,-82,10,70,89
-20,84,105,-32,-62,95,-46,-109,-101,-11,58,84
-21,81,103,-30,-61,92,-47,-111,-113,-26,48,78
-21,74,96,-26,-59,86,-46,-108,-117,-36,37,71
-22,63,85,-21,-54,75,-43,-99,-115,-42,26,60
-22,49,72,-14,-47,61,-37,-86,-109,-46,14,46
-23,34,58,-6,-41,46,-31,-72,-100,-48,3,32
-22,22,45,0,-34,33,-25,-59,-91,-48,-5,21
-20,13,34,3,-27,23,-19,-48,-81,-46,-11,12
-18,6,25,5,-21,15,-13,-38,-71,-44,-15,5
-17,0,17,8,-17,8,-8,-30,-62,-42,-18,0
-15,-5,11,10,-13,3,-4,-23,-54,-39,-19,-3
-14,-8,7,10,-10,-1,-1,-17,-47,-35,-19,-5
-12,-10,4,11,-8,-3,1,-12,-41,-30,-19,-5
-11,-11,2,11,-7,-5,2,-8,-36,-26,-17,-5
-11,-11,1,11,-7,-5,2,-5,-31,-23,-16,-5
-10,-11,0,10,-6,-5,2,-4,-27,-21,-14,-4
-9,-10,0,9,-5,-5,2,-3,-24,-19,-13,-3
-7,-8,0,8,-4,-4,2,-3,-21,-17,-11,-1
-6,-5,1,5,-4,-2,2,-3,-19,-15,-9,0
-5,-3,3,3,-4,0,1,-3,-17,-12,-7,1
-5,-1,4,2,-5,2,0,-4,-16,-10,-6,1
-5,0,6,1,-6,3,-1,-4,-16,-9,-5,2
-4,2,7,0,-6,4,-1,-4,-15,-8,-5,2
-3,2,7,0,-6,4,-1,-4,-14,-8,-5,2
-4,1,7,0,-6,4,-1,-5,-14,-9,-5,2
-6,1,8,1,-7,4,-1,-5,-14,-9,-4,2
-6,1,8,2,-7,4,-1,-6,-13,-8,-4,3
-7,1,9,2,-7,5,-1,-6,-13,-7,-3,3
-6,1,9,1,-7,5,-1,-6,-13,-7,-3,4
-6,1,9,1,-7,5,-2,-7,-13,-7,-4,4
-6,1,9,1,-7,5,-2,-7,-13,-7,-4,3
-7,1,9,2,-8,5,-2,-7,-13,-7,-3,4
-7,1,9,2,-8,5,-2,-7,-13,-7,-3,4
-6,2,9,1,-8,5,-2,-7,-13,-7,-3,5
-4,3,9,0,-7,6,-2,-8,-13,-7,-2,5
-4,4,9,-1,-7,7,-2,-8,-13,-7,-2,6
-4,4,10,-1,-7,7,-2,-8,-13,-7,-2,6
-5,4,10,0,-8,8,-3,-9,-13,-7,-2,6
-5,5,11,-1,-8,8,-3,-9,-14,-7,-2,6
-5,5,11,-1,-8,8,-3,-10,-14,-7,-2,6
-5,5,11,-1,-8,8,-4,-10,-14,-7,-2,6
-5,5,12,0,-9,8,-4,-10,-14,-7,-2,6
-6,5,13,0,-10,9,-4,-11,-14,-7,-1,7
-7,6,14,0,-10,10,-4,-11,-14,-6,-1,8
-6,6,13,0,-10,10,-4,-12,-14,-6,-1,8
-5,6,12,-1,-9,9,-5,-13,-16,-7,-1,7
-5,6,12,-1,-9,9,-6,-13,-16,-7,-1,7
-5,6,13,-1,-9,9,-5,-13,-16,-6,-1,7
-5,7,13,-1,-10,10,-5,-13,-15,-6,0,8
-4,8,14,-3,-9,11,-5,-13,-15,-6,0,8
-3,10,14,-4,-9,12,-5,-14,-15,-6,0,9
-3,10,15,-4,-9,13,-6,-14,-15,-7,0,9
-5,10,16,-3,-10,13,-6,-15,-16,-7,0,9
-5,9,16,-2,-11,12,-7,-16,-16,-7,0,9
-6,9,16,-2,-11,12,-7,-16,-17,-7,0,9
-6,8,16,-1,-11,12,-7,-17,-17,-7,0,9
-7,8,16,-1,-12,12,-8,-17,-18,-7,0,10
-6,9,16,-2,-12,13,-8,-18,-18,-7,0,10
-5,11,17,-3,-11,13,-8,-19,-18,-7,1,11
-5,12,18,-3,-11,14,-8,-19,-18,-7,1,11
-6,12,19,-3,-12,15,-8,-19,-18,-7,2,12
-7,12,19,-2,-13,15,-8,-20,-19,-7,2,12
-7,12,20,-2,-14,16,-9,-21,-20,-7,3,13
-7,12,20,-3,-14,16,-9,-21,-20,-7,3,13
-7,12,20,-3,-14,16,-9,-22,-21,-7,3,13
-7,13,21,-3,-14,17,-10,-22,-21,-8,3,13
-6,14,21,-4,-14,17,-11,-23,-22,-8,3,14
-6,15,21,-5,-14,18,-12,-23,-22,-8,4,14
-5,16,22,-5,-14,18,-12,-24,-23,-8,4,15
-5,17,22,-6,-14,19,-12,-25,-23,-8,5,15
-4,18,23,-7,-14,20,-12,-25,-23,-8,5,16
-4,19,24,-7,-15,21,-13,-26,-24,-8,6,16
-5,20,26,-7,-16,22,-13,-27,-24,-8,7,17
-5,20,27,-8,-16,23,-13,-28,-25,-8,7,17
-5,20,27,-8,-16,23,-14,-29,-25,-7,8,17
-5,21,28,-9,-17,24,-14,-29,-26,-7,8,18
-6,22,29,-9,-17,25,-15,-30,-26,-7,8,18
-6,23,30,-9,-18,26,-15,-30,-26,-7,9,19
-6,24,31,-9,-18,27,-16,-31,-27,-7,9,20
-5,25,31,-10,-18,28,-16,-32,-27,-7,10,21
-4,27,31,-11,-18,29,-17,-32,-28,-7,11,22
-4,27,32,-12,-18,29,-17,-33,-29,-8,11,23
-5,27,33,-11,-19,30,-18,-34,-30,-8,11,23
-6,27,34,-11,-19,30,-19,-35,-31,-9,12,23
-6,28,35,-11,-20,31,-19,-37,-32,-9,12,24
-6,28,36,-11,-20,32,-20,-38,-33,-9,13,25
-7,29,36,-11,-21,32,-21,-39,-34,-9,13,26
-7,30,37,-12,-21,33,-22,-40,-35,-9,13,26
-7,31,39,-12,-22,35,-22,-41,-35,-9,14,27
-7,32,40,-12,-23,36,-23,-42,-36,-9,15,28
-8,33,41,-13,-24,37,-23,-43,-37,-9,16,29
-8,34,42,-13,-24,38,-24,-45,-38,-9,16,29
-8,35,43,-14,-25,38,-24,-46,-39,-9,16,30
-7,36,44,-15,-25,39,-25,-46,-40,-9,17,31
-7,37,45,-15,-26,40,-26,-47,-40,-9,18,32
-7,38,46,-16,-26,41,-26,-47,-41,-9,20,33
-7,39,47,-16,-27,42,-27,-48,-42,-9,21,34
-7,39,48,-16,-28,43,-28,-50,-43,-9,21,35
-7,40,49,-17,-28,44,-29,-52,-44,-10,22,36
-7,42,50,-17,-28,45,-30,-53,-45,-10,22,37
-8,43,51,-17,-29,47,-31,-55,-46,-10,22,38
-8,45,53,-18,-30,48,-31,-56,-46,-10,23,40
-7,47,55,-20,-31,51,-32,-56,-47,-10,24,41
-6,49,56,-22,-31,53,-32,-57,-47,-10,25,43
-5,51,58,-23,-32,54,-33,-58,-48,-10,26,44
-5,52,59,-23,-32,55,-34,-59,-49,-9,27,44
-6,53,60,-24,-33,57,-34,-60,-50,-8,29,45
-6,54,62,-24,-34,58,-35,-61,-51,-8,30,46
-5,55,62,-25,-34,58,-35,-62,-52,-8,30,46
-5,56,63,-25,-34,59,-36,-64,-53,-9,30,47
-5,56,63,-25,-34,59,-37,-66,-54,-10,30,47
-5,57,64,-26,-34,60,-38,-67,-55,-10,31,48
-6,59,66,-26,-36,62,-38,-68,-56,-10,32,50
-7,59,68,-26,-38,63,-39,-68,-57,-10,33,51
-8,60,70,-26,-39,64,-39,-69,-58,-10,34,52
-7,60,69,-27,-38,64,-40,-70,-59,-10,34,53
-5,62,69,-28,-37,65,-41,-71,-59,-10,35,53
-4,64,69,-30,-36,66,-41,-72,-60,-10,35,54
-3,65,70,-30,-36,67,-41,-72,-60,-10,36,55
-4,66,71,-30,-37,68,-41,-73,-61,-10,36,56
-5,66,71,-30,-37,68,-42,-73,-61,-11,37,56
-4,66,71,-30,-37,68,-43,-74,-62,-11,37,56
-3,67,71,-32,-37,68,-43,-74,-63,-11,37,56
-3,67,71,-32,-37,69,-44,-74,-63,-11,38,57
-3,67,71,-32,-37,69,-44,-74,-63,-11,38,57
-3,68,72,-32,-37,69,-44,-74,-63,-11,38,58
-3,68,72,-33,-37,70,-44,-74,-63,-11,39,58
-2,69,72,-33,-37,70,-44,-74,-63,-11,39,59
-2,69,72,-33,-36,70,-44,-73,-62,-11,39,59
-2,68,72,-32,-36,70,-44,-73,-62,-11,40,59
-2,68,72,-32,-37,70,-44,-72,-61,-10,40,59
-2,68,71,-33,-36,69,-44,-71,-60,-10,40,59
-1,67,70,-33,-36,68,-44,-71,-60,-11,39,58
-1,67,69,-33,-35,68,-44,-70,-59,-11,39,58
-1,67,68,-33,-35,68,-44,-68,-58,-10,40,57
0,67,67,-33,-34,67,-43,-67,-57,-10,40,57
0,66,66,-33,-33,66,-43,-66,-56,-10,39,56
1,65,64,-33,-31,64,-43,-65,-56,-11,38,55
1,64,63,-33,-30,63,-43,-64,-55,-11,37,55
2,63,61,-33,-29,62,-42,-62,-54,-11,37,54
3,63,60,-33,-29,61,-42,-60,-53,-10,37,54
3,62,59,-32,-29,60,-41,-58,-51,-10,37,53
3,60,58,-31,-28,59,-41,-56,-50,-10,36,52
4,59,55,-31,-26,57,-41,-55,-48,-9,35,50
4,57,53,-31,-24,55,-40,-53,-47,-9,35,49
4,56,52,-30,-24,53,-39,-50,-45,-8,34,49
4,54,50,-29,-23,52,-38,-48,-43,-7,34,48
5,53,48,-29,-21,50,-38,-46,-42,-7,33,47
7,52,46,-30,-19,49,-37,-44,-40,-6,33,46
9,51,44,-30,-17,47,-36,-41,-38,-6,32,45
10,49,41,-29,-16,44,-35,-39,-37,-5,31,44
10,47,38,-28,-15,42,-35,-37,-35,-5,31,42
10,45,36,-28,-14,40,-34,-34,-32,-4,30,41
11,43,34,-27,-12,38,-33,-32,-30,-3,30,40
11,41,31,-27,-10,36,-32,-29,-28,-2,29,38
12,39,29,-26,-8,34,-31,-27,-25,-1,29,36
12,38,26,-25,-7,32,-29,-24,-23,0,28,35
13,36,23,-25,-5,30,-28,-21,-20,0,27,33
14,35,21,-24,-4,28,-27,-18,-18,1,26,31
14,33,19,-23,-3,26,-25,-15,-15,2,25,30
14,31,17,-22,-2,24,-24,-12,-13,3,25,29
14,29,15,-21,-1,22,-23,-9,-10,4,24,28
14,26,13,-20,0,20,-22,-7,-8,5,23,26
15,25,11,-20,1,18,-21,-4,-6,5,22,25
15,24,9,-20,3,16,-19,-1,-4,6,21,23
15,22,7,-19,4,14,-17,1,-1,7,21,22
15,21,6,-18,4,13,-15,3,0,8,20,21
16,19,4,-17,5,11,-14,6,2,8,19,19
16,18,3,-17,5,10,-12,8,5,10,18,18
16,16,2,-16,6,9,-10,11,7,11,18,17
16,15,1,-16,7,7,-8,13,10,12,17,15
16,14,-1,-16,8,6,-7,14,12,13,17,14
16,12,-3,-15,9,4,-6,16,13,14,16,12
15,10,-4,-13,10,2,-5,17,14,14,15,11
15,8,-5,-12,10,0,-4,18,15,14,14,10
15,7,-6,-11,11,0,-3,19,17,15,13,9
16,6,-8,-11,11,-1,-2,20,18,15,11,8
15,5,-8,-10,11,-2,-1,21,20,15,10,6
14,4,-8,-9,10,-2,0,21,21,15,9,5
13,3,-8,-8,9,-3,1,22,21,16,8,4
12,3,-8,-8,9,-3,1,22,22,17,7,2
12,2,-8,-7,9,-4,2,22,23,17,7,1
11,2,-8,-6,9,-4,2,22,23,17,6,0
10,2,-7,-6,8,-4,2,22,23,17,6,0
9,0,-8,-5,8,-4,2,21,23,17,5,-2
9,-1,-8,-4,8,-5,2,21,23,17,4,-3
8,-2,-9,-4,8,-5,2,20,23,17,3,-4
8,-2,-9,-4,8,-6,3,20,24,17,3,-5
8,-2,-9,-3,8,-6,3,20,24,17,3,-5
7,-3,-9,-2,8,-7,4,20,24,16,2,-6
7,-3,-9,-2,8,-7,4,21,25,16,2,-6
7,-3,-9,-1,8,-7,5,21,25,17,2,-6
6,-4,-9,0,8,-7,5,21,25,17,1,-7
5,-6,-10,0,7,-8,5,20,25,17,1,-8
5,-7,-10,1,7,-9,6,20,25,17,0,-9
5,-7,-11,1,7,-9,6,20,24,17,0,-9
4,-8,-11,1,7,-10,6,20,24,17,0,-10
3,-9,-12,2,7,-11,6,21,24,17,0,-11
2,-9,-11,3,6,-11,7,21,24,17,0,-10
2,-10,-11,4,6,-11,8,22,25,16,0,-10
2,-11,-12,4,7,-12,9,22,24,16,-1,-11
1,-12,-13,5,7,-13,9,22,24,15,-1,-12
0,-13,-12,6,6,-13,10,22,24,15,-2,-13
0,-14,-12,7,5,-14,11,22,23,14,-2,-13
-1,-15,-13,8,5,-14,11,21,23,13,-3,-14
-1,-16,-13,8,5,-15,11,21,22,12,-5,-15
-2,-16,-14,9,5,-15,11,20,21,11,-6,-15
-3,-17,-14,10,5,-16,11,20,20,11,-6,-16
-3,-17,-14,10,5,-16,11,19,20,11,-7,-16
-3,-17,-14,10,5,-16,11,19,20,11,-7,-17
-3,-18,-13,10,4,-16,11,19,20,11,-7,-17
-4,-18,-13,11,4,-16,11,19,19,11,-7,-17
-4,-18,-13,11,4,-16,11,19,19,10,-7,-17
-4,-18,-13,11,4,-16,11,19,19,10,-7,-17
-4,-18,-13,11,4,-16,11,19,19,10,-8,-17
-4,-19,-13,12,4,-16,11,19,19,10,-8,-17
-4,-19,-13,12,4,-16,11,19,19,10,-8,-17
-3,-18,-13,11,4,-16,12,19,19,10,-8,-17
-3,-18,-13,11,4,-16,12,19,19,10,-8,-17
-4,-17,-11,11,3,-15,13,20,20,10,-7,-17
-4,-17,-10,10,2,-14,13,20,20,11,-7,-17
-4,-17,-11,10,3,-14,13,20,20,11,-7,-17
-4,-18,-13,11,3,-16,12,19,19,10,-7,-18
-5,-19,-13,12,3,-16,12,19,19,10,-7,-19
-6,-19,-13,12,3,-16,12,19,19,10,-7,-19
-6,-18,-12,12,3,-16,12,19,19,10,-7,-19
-4,-18,-13,11,4,-16,12,19,20,10,-7,-19
-3,-18,-15,11,6,-17,12,19,20,10,-7,-19
-3,-19,-15,11,6,-18,13,19,20,10,-8,-19
-3,-19,-15,11,5,-18,13,19,20,10,-8,-19
-4,-19,-15,11,5,-17,13,20,20,11,-8,-19
-4,-19,-15,11,5,-17,14,20,20,11,-7,-19
-3,-18,-15,11,5,-17,14,20,20,11,-7,-18
-3,-18,-15,10,5,-17,14,20,20,11,-6,-18
-3,-18,-15,10,5,-17,13,20,20,10,-6,-18
-4,-18,-14,11,4,-17,13,20,19,10,-6,-18
-5,-19,-14,13,3,-17,13,20,19,10,-6,-18
-6,-20,-14,13,3,-17,13,20,19,10,-6,-18
-6,-20,-14,13,3,-17,13,21,20,10,-7,-18
-5,-20,-14,13,3,-17,14,21,20,10,-7,-18
-5,-20,-14,13,3,-17,14,21,19,10,-7,-18
-5,-20,-14,13,4,-17,14,20,19,10,-7,-18
-6,-21,-15,13,4,-18,14,20,19,10,-7,-19
-6,-21,-15,13,4,-18,14,20,19,9,-8,-19
-5,-21,-15,13,5,-19,14,20,19,9,-8,-19
-5,-21,-14,13,5,-18,14,20,19,9,-8,-19
-5,-20,-14,13,4,-18,14,20,19,9,-8,-19
-6,-20,-14,13,4,-18,14,20,19,9,-8,-18
-6,-20,-14,13,4,-18,14,20,19,9,-8,-18
-6,-20,-14,13,4,-18,14,20,18,9,-8,-18
-6,-20,-15,13,4,-18,14,20,18,9,-7,-18
-5,-20,-15,12,5,-18,14,20,18,9,-7,-18
-4,-20,-16,12,5,-18,14,20,18,9,-8,-19
-5,-20,-16,12,5,-18,14,20,18,9,-8,-19
-5,-21,-15,13,5,-18,14,20,18,9,-8,-19
-6,-21,-15,13,5,-18,15,19,18,9,-8,-19
-5,-21,-15,13,5,-18,15,19,18,9,-8,-19
-5,-21,-15,13,5,-18,15,19,17,8,-8,-19
-6,-21,-15,13,4,-18,15,19,17,8,-8,-19
-7,-21,-14,14,3,-18,15,19,17,9,-7,-19
-7,-21,-13,14,2,-17,15,20,17,9,-7,-18
-7,-20,-13,13,2,-17,15,20,17,9,-7,-18
-6,-20,-13,13,3,-17,15,20,17,9,-7,-18
-5,-19,-14,12,4,-17,15,20,17,9,-7,-19
-5,-19,-14,12,4,-17,15,20,17,9,-7,-18
-4,-19,-14,12,5,-17,15,20,18,9,-7,-18
-5,-20,-14,12,5,-17,15,20,18,9,-8,-18
-6,-21,-14,13,4,-18,15,20,17,8,-8,-18
-6,-21,-15,13,5,-18,15,20,17,8,-8,-19
-5,-20,-15,13,5,-18,15,20,17,8,-8,-19
-6,-21,-15,13,5,-18,15,20,17,8,-8,-19
-7,-22,-14,14,4,-18,15,19,17,8,-8,-20
-7,-21,-14,14,3,-18,15,19,17,8,-8,-19
-7,-20,-13,14,3,-17,16,19,17,9,-7,-19
-7,-20,-13,13,3,-17,16,19,17,9,-7,-18
-7,-19,-13,13,3,-17,16,19,17,9,-8,-18
-6,-19,-13,13,3,-17,16,19,17,9,-8,-19
-5,-20,-14,13,4,-17,16,18,17,8,-8,-19
-5,-20,-15,13,4,-18,15,18,17,8,-8,-19
-5,-20,-15,13,5,-18,15,18,17,8,-8,-19
-5,-20,-16,12,5,-18,15,18,17,8,-8,-19
-5,-21,-16,13,5,-18,15,18,17,8,-8,-19
-7,-22,-15,14,4,-19,15,17,17,7,-8,-20
-8,-23,-15,15,4,-19,15,17,17,7,-8,-20
-7,-22,-15,14,4,-18,15,17,17,7,-8,-20
-6,-21,-15,13,4,-18,15,17,16,7,-8,-20
-5,-20,-15,13,5,-18,15,18,16,7,-8,-20
-5,-19,-14,12,5,-18,15,18,17,8,-7,-19
-5,-19,-14,12,5,-18,15,18,17,8,-7,-19
-5,-19,-15,12,5,-18,15,18,17,8,-7,-19
-6,-20,-14,12,4,-17,15,18,17,8,-7,-19
-7,-20,-13,13,3,-17,15,19,17,8,-7,-19
-8,-20,-12,14,3,-16,15,19,17,9,-7,-19
-8,-21,-12,14,3,-17,15,19,17,9,-7,-19
-8,-21,-12,14,3,-17,15,18,17,8,-7,-19
-8,-21,-12,15,3,-17,15,18,17,8,-7,-19
-8,-21,-13,15,3,-17,14,17,16,7,-7,-20
-6,-20,-14,14,5,-18,14,17,16,7,-7,-20
-4,-19,-15,13,5,-17,14,17,16,8,-7,-20
-5,-19,-14,12,5,-17,14,18,16,8,-6,-20
-6,-20,-14,13,4,-17,14,18,16,8,-6,-20
-6,-20,-14,13,4,-17,13,17,16,8,-7,-20
-7,-20,-14,13,4,-17,13,17,16,7,-7,-20
-7,-20,-13,13,4,-17,13,17,16,7,-7,-20
-8,-19,-12,13,3,-16,13,17,16,7,-7,-20
-8,-20,-12,14,2,-16,13,17,16,7,-7,-20
-7,-20,-13,14,3,-16,13,17,16,8,-7,-20
-6,-20,-13,13,3,-16,13,17,16,8,-7,-19
-6,-19,-13,13,4,-16,13,17,16,8,-7,-19
-6,-19,-13,12,4,-16,13,17,17,8,-7,-19
-6,-19,-13,12,4,-16,13,17,17,8,-6,-19
-6,-18,-13,12,4,-16,14,17,17,8,-6,-18
-6,-19,-13,12,4,-16,14,17,17,8,-6,-18
-6,-19,-13,13,3,-16,14,17,17,8,-6,-18
-7,-20,-12,13,3,-16,14,16,16,8,-6,-18
-7,-20,-12,14,3,-17,13,16,16,7,-6,-19
-7,-21,-13,14,3,-17,13,16,15,7,-6,-19
-8,-21,-12,14,3,-17,13,16,15,7,-6,-19
-8,-21,-12,14,3,-17,13,15,15,7,-7,-19
-9,-21,-13,15,3,-17,12,15,15,6,-7,-20
-8,-21,-13,15,3,-17,12,15,16,6,-8,-20
-7,-20,-13,14,3,-17,12,15,16,6,-8,-19
-6,-19,-13,13,3,-16,12,15,16,6,-8,-19
-6,-19,-13,13,3,-16,12,15,16,6,-8,-19
-6,-19,-13,13,3,-16,12,14,15,7,-8,-19
-6,-19,-13,12,4,-16,12,14,15,7,-7,-19
-5,-18,-13,11,5,-16,12,14,15,8,-7,-19
-5,-18,-13,12,5,-16,12,14,15,8,-6,-18
-6,-18,-13,12,4,-15,12,14,15,8,-6,-18
-6,-18,-13,12,4,-15,12,14,15,8,-6,-18
-6,-18,-13,13,3,-15,12,14,15,7,-6,-18
-7,-19,-12,13,3,-16,11,14,15,7,-7,-18
-7,-19,-12,14,3,-16,11,14,15,7,-7,-18
-7,-19,-12,13,3,-15,11,14,15,7,-7,-18
-7,-19,-11,13,3,-15,11,14,15,7,-7,-18
-8,-20,-11,13,2,-15,11,14,15,6,-7,-18
-9,-20,-11,14,1,-15,10,14,15,6,-7,-18
-8,-19,-11,14,1,-14,10,14,15,6,-6,-17
-7,-18,-11,13,2,-14,10,14,15,6,-6,-17
-7,-18,-11,13,2,-14,10,15,16,6,-6,-17
-7,-18,-11,13,2,-14,10,14,16,6,-6,-17
-6,-18,-11,12,3,-14,10,14,16,6,-6,-17
-6,-17,-11,12,3,-14,10,14,16,6,-6,-17
-7,-18,-11,12,3,-14,10,14,16,6,-6,-17
-7,-18,-10,12,2,-14,10,14,16,7,-6,-17
-7,-17,-10,12,1,-13,10,14,16,7,-6,-16
-7,-17,-10,12,1,-13,10,14,16,7,-6,-16
-7,-17,-10,12,1,-13,10,14,16,7,-6,-16
-8,-18,-9,13,1,-13,10,14,16,7,-6,-16
-9,-18,-9,13,0,-14,10,14,16,7,-6,-16
-9,-18,-9,13,1,-14,9,13,16,6,-6,-16
-8,-18,-10,13,2,-15,9,13,15,6,-6,-17
-8,-18,-11,13,2,-14,9,13,15,6,-6,-17
-8,-18,-11,13,2,-14,9,13,15,6,-6,-16
-7,-18,-12,13,2,-15,8,12,15,5,-7,-16
-6,-18,-12,13,3,-15,8,12,14,5,-7,-16
-5,-18,-12,12,3,-15,8,12,14,5,-6,-16
-5,-18,-12,12,3,-15,8,12,14,6,-6,-16
-5,-18,-13,12,4,-15,8,11,14,6,-6,-16
-5,-18,-13,12,4,-15,8,11,14,6,-6,-16
-6,-18,-13,12,4,-15,8,12,14,6,-6,-16
-6,-17,-11,12,3,-14,8,12,14,6,-6,-16
-7,-17,-10,13,1,-14,8,12,14,6,-6,-15
-9,-18,-9,14,0,-13,8,12,14,6,-6,-16
-10,-18,-8,14,0,-13,8,12,14,6,-6,-16
-9,-18,-8,13,0,-13,8,13,15,6,-6,-16
-7,-17,-10,12,2,-13,7,13,15,6,-6,-16
-6,-17,-11,11,3,-14,7,13,15,6,-6,-16
-5,-16,-12,11,4,-14,7,13,15,6,-6,-16
-5,-16,-12,11,4,-14,7,12,15,6,-6,-16
-4,-16,-12,10,4,-14,7,12,14,6,-6,-16
-5,-16,-11,10,3,-13,7,12,14,6,-6,-16
-6,-16,-10,11,2,-13,7,12,15,6,-6,-16
-7,-16,-10,11,2,-13,7,12,15,6,-6,-16
-7,-17,-10,12,1,-14,7,12,15,5,-7,-16
-8,-17,-10,13,1,-14,8,12,15,5,-7,-16
-8,-17,-10,13,1,-14,8,12,15,6,-7,-16
-7,-17,-10,12,1,-14,8,12,15,6,-7,-16
-7,-18,-11,12,2,-14,7,12,15,5,-7,-16
-7,-18,-11,12,2,-15,7,11,14,5,-7,-16
-6,-18,-12,12,3,-15,6,11,14,4,-7,-16
-6,-18,-12,12,3,-15,6,10,14,4,-7,-16
-6,-17,-12,12,3,-15,6,10,14,4,-7,-16
-6,-17,-11,12,3,-14,7,11,14,5,-7,-16
-6,-17,-11,12,3,-14,7,11,14,5,-7,-16
-7,-17,-11,13,3,-14,6,11,14,4,-7,-16
-7,-18,-12,13,3,-15,5,10,13,4,-7,-16
-7,-18,-11,13,2,-15,5,9,13,4,-7,-15
-7,-18,-10,13,2,-14,5,10,13,4,-7,-15
-7,-17,-10,12,2,-13,6,10,14,5,-6,-15
-6,-16,-10,11,2,-13,6,11,14,5,-6,-15
-5,-15,-10,10,2,-13,6,11,14,5,-6,-15
-5,-15,-10,10,2,-12,6,11,15,5,-6,-15
-5,-14,-11,9,3,-12,6,11,15,5,-6,-15
-4,-14,-11,9,3,-12,6,11,15,5,-6,-15
-4,-14,-10,9,3,-12,7,12,15,5,-6,-14
-5,-13,-8,9,2,-11,7,12,16,6,-5,-14
-5,-13,-8,9,1,-11,7,12,17,6,-5,-14
-6,-14,-8,10,0,-11,7,11,16,5,-6,-14
-7,-16,-8,12,0,-12,6,10,15,5,-6,-14
-8,-16,-8,13,0,-12,6,10,15,4,-6,-14
-8,-17,-8,13,0,-12,6,10,14,4,-7,-14
-8,-17,-9,13,1,-13,5,10,14,4,-7,-15
-7,-18,-11,13,2,-14,5,10,13,3,-8,-15
-7,-19,-12,13,2,-15,5,10,13,3,-8,-16
-6,-18,-12,12,3,-15,5,10,13,3,-8,-16
-5,-17,-12,11,3,-15,5,10,13,3,-8,-15
-5,-16,-11,11,3,-14,5,10,13,4,-7,-15
-6,-16,-11,11,3,-14,5,10,14,4,-7,-15
-6,-16,-10,11,2,-13,5,10,14,4,-6,-15
-6,-16,-10,12,2,-13,6,10,15,4,-6,-15
-7,-16,-10,12,1,-13,6,10,15,4,-6,-15
-6,-16,-10,12,1,-13,6,10,15,4,-6,-15
-6,-16,-11,11,2,-13,6,10,15,4,-7,-15
-6,-16,-10,11,1,-13,6,10,15,4,-7,-15
-7,-16,-9,12,0,-12,6,10,15,4,-6,-14
-8,-16,-8,12,0,-12,7,10,15,5,-6,-14
-8,-15,-7,12,0,-11,7,10,15,5,-5,-13
-7,-15,-7,12,0,-11,7,10,15,5,-5,-13
-7,-14,-7,11,0,-11,7,11,15,5,-5,-13
-7,-14,-7,11,0,-11,7,11,15,5,-4,-12
-8,-14,-6,11,-1,-11,7,12,15,5,-4,-12
-8,-15,-7,11,-1,-11,7,12,15,5,-4,-12
-8,-15,-7,11,0,-11,7,12,15,4,-5,-13
-8,-16,-8,12,0,-12,7,12,15,4,-5,-13
-8,-16,-8,12,0,-12,7,12,15,4,-5,-13
-8,-16,-8,12,0,-12,7,12,15,4,-5,-13
-8,-16,-8,12,0,-12,7,12,14,4,-5,-13
-7,-16,-8,11,0,-12,7,12,14,4,-5,-13
-6,-15,-9,11,1,-12,7,12,14,4,-6,-14
-6,-15,-9,11,1,-12,7,12,14,4,-6,-14
-6,-16,-9,11,1,-12,7,12,14,4,-6,-14
-6,-16,-9,11,1,-12,7,12,14,4,-6,-14
-6,-15,-9,11,1,-12,7,12,14,4,-6,-14
-6,-15,-9,11,1,-13,6,12,14,3,-6,-14
-6,-15,-9,12,1,-13,6,12,14,3,-6,-14
-7,-15,-8,12,0,-12,6,13,15,4,-6,-14
-8,-15,-6,12,-1,-11,7,13,16,4,-6,-13
-8,-14,-7,11,0,-11,7,13,16,4,-6,-13
-7,-14,-7,10,0,-10,7,13,15,4,-6,-13
-7,-14,-7,10,0,-10,7,13,15,4,-6,-13
-8,-13,-6,10,0,-9,7,14,15,5,-5,-12
-8,-13,-6,10,0,-9,7,14,15,5,-4,-12
-8,-14,-7,10,0,-10,7,13,15,4,-5,-12
-7,-14,-8,10,1,-11,6,12,14,4,-5,-13
-7,-15,-9,10,1,-12,5,11,14,3,-6,-13
-6,-16,-10,11,1,-13,4,11,13,3,-7,-14
-5,-16,-11,11,2,-14,4,10,13,2,-7,-14
-4,-15,-11,10,2,-13,4,10,13,2,-6,-14
-4,-15,-10,10,2,-13,4,11,13,2,-6,-13
-5,-15,-10,11,2,-13,4,11,13,2,-6,-13
-5,-15,-11,11,2,-14,4,11,13,2,-6,-13
-5,-15,-11,10,2,-14,4,11,13,2,-6,-13
-4,-15,-11,10,2,-14,4,12,14,3,-6,-13
-3,-15,-12,9,3,-14,4,12,13,2,-7,-14
-2,-15,-13,9,4,-14,3,12,13,2,-7,-15
-2,-15,-14,9,5,-14,3,11,12,1,-8,-15
-2,-16,-14,9,5,-15,3,11,12,1,-8,-15
-3,-16,-13,10,5,-15,3,11,12,1,-8,-15
-3,-15,-12,9,4,-14,3,12,13,2,-7,-14
-3,-14,-11,9,4,-13,4,12,14,2,-7,-14
-3,-14,-11,8,3,-13,4,12,14,3,-6,-13
-4,-14,-10,8,3,-12,4,13,15,3,-6,-13
-5,-14,-10,9,2,-12,4,13,15,3,-6,-13
-6,-14,-9,10,1,-12,4,13,15,3,-6,-13
-6,-13,-8,10,1,-11,5,13,16,3,-5,-13
-5,-13,-8,10,1,-11,5,13,16,3,-5,-13
-6,-13,-7,10,0,-10,5,13,16,3,-5,-12
-6,-12,-7,9,0,-10,6,13,16,3,-4,-12
-4,-12,-8,8,1,-10,5,14,15,3,-5,-13
-2,-12,-10,7,3,-12,4,13,15,2,-6,-14
-1,-12,-12,6,5,-13,3,13,15,1,-7,-14
1,-12,-14,5,8,-13,3,12,14,1,-7,-15
4,-11,-15,3,10,-13,3,12,14,1,-7,-15
4,-10,-15,3,10,-13,3,12,14,1,-7,-14
2,-9,-12,3,7,-11,4,13,15,2,-6,-13
-1,-10,-9,5,4,-10,5,14,15,2,-5,-13
-5,-11,-6,7,1,-9,5,15,16,3,-4,-12
-7,-10,-4,8,-1,-7,6,16,18,5,-3,-11
-7,-9,-3,7,-2,-6,7,17,19,6,-1,-10
-6,-8,-3,7,-1,-5,8,17,19,6,-1,-9
-4,-7,-4,6,0,-5,8,17,19,7,0,-9
-3,-6,-4,5,0,-5,8,17,19,7,0,-9
-3,-5,-3,5,0,-4,7,17,19,7,0,-8
-3,-5,-2,5,-1,-5,7,16,19,7,0,-8
-2,-5,-3,4,0,-5,6,15,18,7,0,-9
-2,-4,-3,3,0,-4,5,14,17,7,-1,-9
-2,-4,-3,3,0,-4,5,13,17,6,-1,-9
-3,-4,-2,3,0,-3,4,13,16,6,-1,-9
-3,-4,-2,4,0,-3,4,12,16,6,-1,-9
-3,-4,-2,4,0,-4,3,11,15,5,-2,-9
-3,-5,-3,5,0,-4,1,11,14,4,-2,-9
-2,-6,-3,4,0,-5,1,10,14,4,-3,-10
-1,-5,-4,3,1,-5,1,10,14,3,-2,-10
-1,-5,-4,3,0,-4,1,10,15,3,-2,-9
-2,-5,-3,3,0,-4,1,10,15,4,-2,-9
-2,-5,-4,3,0,-4,1,9,15,4,-2,-9
-1,-5,-5,3,1,-5,1,9,14,4,-2,-9
0,-5,-5,3,2,-5,1,9,15,4,-1,-9
1,-5,-6,2,3,-5,1,10,15,5,0,-8
1,-6,-6,2,3,-6,0,10,15,5,0,-8
1,-7,-7,2,4,-7,0,10,14,4,-1,-7
2,-7,-8,2,5,-8,0,11,14,4,-1,-5
3,-6,-8,1,5,-7,1,12,15,5,0,-3
3,-5,-8,0,6,-7,2,13,15,5,0,-2
2,-4,-7,1,5,-6,3,14,16,6,0,-2
1,-4,-6,2,4,-6,5,15,16,6,0,-1
0,-6,-6,3,3,-6,5,15,16,6,0,-2
0,-7,-7,4,3,-8,5,14,14,4,-2,-3
0,-8,-8,4,4,-9,4,12,13,3,-3,-5
0,-9,-9,4,4,-10,3,11,12,2,-4,-6
0,-11,-10,6,4,-11,3,11,11,1,-5,-7
-1,-13,-10,7,4,-12,2,10,11,0,-6,-8
-2,-13,-11,7,4,-12,3,11,10,0,-6,-9
-2,-12,-11,8,4,-12,3,11,10,0,-6,-9
-2,-12,-10,8,4,-12,4,11,9,0,-6,-9
-3,-12,-10,8,3,-12,4,11,9,0,-6,-9
-3,-12,-9,8,3,-11,4,12,9,0,-6,-9
-3,-13,-9,8,2,-11,4,12,9,0,-6,-9
-3,-14,-10,8,4,-12,4,11,8,-1,-6,-10
-2,-14,-12,8,5,-13,3,11,7,-1,-7,-10
-2,-14,-13,8,5,-13,3,11,7,-1,-7,-10
-2,-14,-12,8,5,-13,4,11,7,-1,-7,-10
-1,-13,-13,7,6,-13,4,11,7,-1,-7,-10
0,-13,-13,6,6,-13,4,11,7,-1,-7,-10
0,-12,-13,5,6,-13,4,12,8,-1,-7,-10
1,-12,-12,5,6,-12,5,12,8,-1,-7,-10
1,-12,-12,5,6,-12,5,12,9,-1,-6,-10
1,-11,-12,5,6,-12,6,13,9,0,-6,-10
0,-11,-12,5,6,-12,6,13,9,0,-6,-10
0,-12,-12,6,6,-12,6,13,9,-1,-7,-11
0,-12,-12,7,6,-12,6,13,9,-1,-7,-11
1,-12,-13,6,7,-13,7,14,9,-1,-7,-11
2,-12,-14,6,8,-13,7,14,8,-1,-7,-11
1,-13,-13,6,7,-13,6,14,8,-1,-7,-11
0,-14,-13,7,6,-14,6,14,8,-1,-7,-11
-1,-15,-13,8,6,-14,6,14,8,-1,-7,-12
-2,-15,-13,9,5,-14,6,14,8,-1,-7,-12
-2,-15,-14,9,6,-14,6,13,8,-1,-7,-12
-1,-15,-14,8,7,-14,6,13,8,-2,-8,-12
0,-15,-15,8,7,-14,6,13,8,-2,-8,-13
0,-15,-14,8,7,-14,6,13,8,-2,-8,-13
-1,-15,-14,8,7,-14,6,13,8,-2,-8,-13
-2,-15,-13,8,6,-14,6,13,9,-2,-8,-13
-2,-15,-12,9,5,-14,7,14,9,-1,-8,-13
-2,-15,-12,9,5,-14,7,14,9,-1,-8,-13
-1,-15,-13,8,6,-14,7,14,9,-1,-8,-13
-1,-15,-13,8,6,-14,7,14,9,-1,-8,-13
-2,-15,-12,9,5,-13,8,14,9,-1,-7,-13
-1,-16,-14,9,6,-15,7,14,9,-1,-8,-13
0,-16,-15,9,8,-16,6,13,8,-2,-8,-14
0,-16,-16,8,8,-17,6,13,7,-2,-8,-14
0,-17,-17,9,8,-17,5,14,7,-2,-8,-14
-1,-18,-17,9,8,-17,5,14,7,-2,-8,-14
-1,-18,-16,9,7,-17,5,14,8,-2,-8,-14
0,-17,-16,8,7,-17,6,15,8,-2,-8,-14
0,-16,-16,8,8,-16,6,15,9,-1,-8,-14
0,-17,-16,8,8,-16,6,15,9,-1,-8,-14
0,-17,-16,8,8,-17,6,15,9,-2,-8,-15
1,-17,-16,8,8,-17,6,15,9,-1,-8,-15
1,-16,-16,7,8,-16,7,15,9,-1,-8,-14
1,-15,-16,7,8,-16,7,16,9,0,-7,-14
1,-15,-16,8,8,-16,7,16,9,0,-7,-14
0,-16,-17,8,8,-17,7,15,9,0,-8,-14
0,-16,-16,8,9,-17,7,16,9,0,-8,-14
0,-16,-16,8,9,-16,7,16,9,0,-7,-14
0,-16,-16,7,9,-16,7,16,9,0,-7,-14
0,-16,-16,7,9,-16,7,16,9,0,-7,-14
0,-16,-16,8,8,-16,7,17,9,0,-7,-14
1,-16,-16,8,8,-16,7,18,9,0,-7,-14
1,-16,-16,7,8,-16,6,18,9,0,-7,-15
1,-16,-17,7,9,-16,6,19,10,0,-7,-15
1,-16,-16,7,8,-16,6,19,10,0,-7,-15
0,-16,-16,7,8,-16,7,19,11,0,-7,-15
0,-15,-16,7,8,-15,7,19,11,0,-7,-15
1,-14,-16,6,9,-15,7,20,11,0,-7,-15
3,-14,-17,5,10,-15,7,20,11,0,-7,-15
4,-14,-18,5,11,-16,7,20,11,0,-7,-15
4,-14,-18,5,11,-16,7,20,11,0,-7,-15
5,-14,-19,5,12,-17,7,20,11,0,-7,-16
5,-15,-20,6,12,-17,7,21,11,0,-7,-16
3,-17,-20,7,11,-18,7,22,12,0,-8,-17
1,-19,-20,9,11,-20,8,24,13,1,-8,-18
0,-21,-20,10,11,-20,8,26,16,2,-9,-19
0,-21,-21,11,11,-21,9,29,19,3,-9,-19
0,-22,-21,11,11,-21,10,33,22,6,-8,-20
0,-22,-21,11,10,-21,10,36,26,9,-7,-20
0,-22,-22,11,11,-21,11,38,31,13,-5,-19
2,-20,-22,9,12,-21,10,39,35,18,-2,-18
5,-16,-21,5,13,-19,10,40,40,26,3,-14
8,-12,-20,2,14,-16,9,42,47,35,10,-10
11,-7,-18,-2,14,-12,8,44,55,48,19,-4
15,0,-15,-7,15,-8,6,48,66,64,31,4
19,6,-12,-13,15,-2,3,53,79,81,45,13
24,14,-9,-19,16,3,-1,57,90,99,59,23
29,23,-5,-25,16,9,-6,56,99,116,73,34
31,32,1,-31,15,16,-11,50,102,131,88,44
33,42,9,-38,12,25,-16,40,101,144,101,55
36,53,17,-44,10,34,-21,28,97,156,114,65
36,62,26,-48,5,44,-26,16,91,164,125,74
32,69,37,-50,-2,53,-31,1,80,164,131,82
25,75,50,-49,-12,62,-36,-18,59,150,130,86
15,79,64,-46,-25,72,-40,-40,31,126,122,88
4,82,79,-42,-38,81,-43,-60,0,97,111,88
-5,85,91,-40,-48,89,-46,-76,-29,66,99,87
-11,88,100,-38,-56,94,-48,-89,-57,37,86,85
-15,89,105,-37,-60,97,-51,-100,-83,9,73,82
-18,87,106,-34,-61,97,-54,-107,-103,-13,60,76
-19,83,102,-32,-60,93,-55,-109,-115,-28,49,69
-18,77,95,-29,-56,86,-53,-105,-119,-38,39,61
-16,67,83,-25,-50,75,-49,-96,-116,-45,28,51
-15,54,69,-19,-43,62,-43,-83,-109,-48,16,38
-14,40,55,-13,-35,48,-36,-70,-100,-50,5,24
-14,28,42,-7,-28,35,-31,-57,-90,-50,-4,12
-13,17,31,-2,-22,24,-25,-47,-81,-50,-11,3
-12,9,22,1,-17,15,-20,-37,-72,-48,-16,-4
-11,3,14,5,-12,8,-15,-29,-64,-46,-20,-10
-11,-2,8,7,-9,3,-11,-22,-57,-43,-21,-14
-10,-6,4,9,-7,-1,-8,-16,-50,-40,-21,-16
-9,-8,1,9,-5,-3,-6,-11,-43,-36,-20,-16
-7,-9,0,8,-4,-4,-5,-7,-37,-32,-19,-16
-6,-8,-1,7,-3,-4,-4,-4,-32,-28,-17,-14
-5,-7,0,6,-2,-3,-4,-2,-27,-24,-14,-13
-4,-5,0,5,-2,-2,-3,-1,-23,-22,-12,-11
-3,-3,1,4,-2,-1,-3,0,-20,-19,-10,-10
-2,0,2,2,-2,0,-3,0,-17,-17,-8,-8
-1,1,2,0,-2,2,-4,0,-16,-16,-7,-7
0,2,3,-1,-2,3,-5,-1,-15,-14,-6,-7
0,3,4,-2,-2,4,-6,-1,-14,-13,-5,-6
0,4,5,-2,-3,5,-6,-2,-13,-12,-5,-6
0,4,5,-2,-3,5,-6,-2,-13,-12,-4,-6
-1,4,6,-2,-4,5,-6,-2,-12,-12,-4,-6
-2,4,6,-1,-4,5,-6,-3,-12,-12,-4,-6
-2,5,6,-1,-4,6,-6,-3,-12,-12,-3,-6
-2,5,7,-1,-4,6,-6,-3,-12,-11,-3,-6
-2,5,7,-1,-5,7,-7,-3,-11,-11,-3,-5
-1,5,7,-1,-5,7,-7,-3,-11,-11,-3,-5
-1,5,7,-2,-4,7,-8,-3,-12,-11,-3,-5
-2,4,8,-1,-5,7,-8,-4,-12,-11,-3,-5
-2,4,8,-1,-5,7,-8,-4,-11,-11,-3,-5
-1,5,7,-2,-4,7,-8,-4,-11,-11,-3,-5
1,6,6,-3,-3,7,-8,-4,-11,-11,-4,-6
2,7,6,-4,-2,7,-8,-5,-12,-11,-4,-6
2,7,6,-4,-2,7,-8,-5,-12,-12,-4,-5
2,7,6,-4,-2,7,-8,-5,-12,-12,-4,-5
3,8,6,-5,-2,7,-8,-5,-12,-12,-3,-5
3,8,6,-5,-1,7,-8,-5,-12,-12,-3,-5
3,8,6,-5,-2,7,-8,-6,-12,-12,-3,-5
2,8,6,-6,-2,7,-9,-6,-12,-12,-3,-5
3,9,6,-6,-1,7,-9,-6,-12,-12,-3,-5
4,10,6,-7,-1,8,-9,-6,-12,-12,-3,-4
4,11,6,-7,-1,8,-9,-7,-13,-12,-3,-4
4,11,7,-8,-1,9,-9,-7,-13,-12,-3,-4
3,10,7,-7,-2,9,-10,-8,-14,-12,-3,-4
3,10,7,-7,-2,9,-10,-8,-14,-12,-3,-4
3,10,7,-7,-2,9,-11,-8,-15,-12,-3,-3
3,11,8,-7,-3,10,-11,-8,-14,-12,-2,-3
2,11,9,-6,-4,10,-11,-8,-14,-12,-2,-2
2,11,10,-6,-4,10,-11,-9,-15,-12,-1,-2
2,11,10,-7,-3,10,-11,-9,-15,-12,-1,-2
3,12,11,-7,-3,11,-11,-10,-15,-12,0,-2
2,12,11,-7,-4,11,-11,-10,-15,-12,0,-1
1,12,11,-7,-5,12,-11,-11,-16,-12,0,-1
1,12,12,-7,-5,12,-11,-11,-16,-12,0,0
1,12,11,-7,-5,12,-12,-12,-17,-12,0,0
2,13,11,-7,-4,12,-13,-13,-18,-12,0,0
2,14,12,-8,-4,13,-13,-14,-18,-12,0,0
3,15,12,-9,-4,14,-14,-14,-18,-12,1,0
4,17,13,-11,-4,15,-14,-15,-18,-12,1,1
6,18,13,-12,-3,15,-14,-16,-19,-12,1,1
5,18,14,-12,-3,16,-14,-16,-19,-12,2,2
4,19,15,-11,-4,16,-14,-17,-19,-12,2,2
4,19,16,-11,-5,17,-14,-18,-20,-12,3,3
3,20,16,-11,-5,18,-15,-19,-20,-12,3,4
2,20,17,-11,-6,18,-15,-21,-21,-12,4,4
1,20,18,-10,-8,19,-15,-22,-21,-12,4,5
1,20,19,-10,-8,19,-16,-22,-22,-12,4,5
1,20,20,-10,-9,19,-16,-23,-22,-12,4,5
1,20,20,-10,-9,19,-17,-23,-23,-12,4,5
1,21,20,-11,-9,20,-17,-24,-24,-12,4,6
1,22,21,-12,-9,21,-18,-24,-24,-12,5,7
1,23,22,-12,-9,22,-18,-25,-24,-12,5,8
2,23,22,-13,-9,22,-19,-26,-25,-13,5,8
1,23,22,-13,-10,23,-19,-27,-26,-13,6,8
1,24,24,-13,-11,24,-19,-28,-27,-13,6,8
0,24,25,-13,-12,25,-19,-29,-27,-13,7,9
0,25,26,-13,-13,25,-20,-30,-28,-13,7,9
0,26,27,-14,-12,26,-20,-31,-28,-13,8,10
1,28,27,-15,-12,27,-21,-31,-29,-13,8,11
1,30,28,-16,-13,29,-21,-32,-29,-13,9,12
1,31,29,-16,-13,30,-21,-32,-30,-13,9,13
1,31,30,-16,-14,30,-21,-33,-30,-12,10,14
1,31,31,-16,-15,31,-22,-34,-31,-12,10,15
0,32,32,-16,-16,32,-23,-35,-32,-13,11,15
-1,33,34,-16,-17,33,-24,-36,-33,-13,12,16
-1,34,36,-16,-18,34,-24,-37,-34,-13,13,17
0,36,36,-17,-18,35,-24,-38,-35,-13,13,18
0,37,36,-18,-17,36,-25,-39,-36,-13,14,19
