leadI,leadII,leadIII,leadaVR,leadaVL,leadaVF,leadV1,leadV2,leadV3,leadV4,leadV5,leadV6
1,4,3,-2,-1,4,-3,-6,-9,-8,-24,-3
3,10,8,-7,-2,9,-7,-16,-24,-20,-63,-8
5,14,9,-10,-1,12,-10,-22,-33,-27,-88,-11
6,17,11,-11,-2,14,-11,-26,-38,-31,-103,-12
5,19,13,-12,-4,16,-12,-28,-41,-33,-108,-12
6,22,16,-14,-5,19,-13,-28,-43,-35,-106,-12
8,26,18,-17,-5,22,-13,-27,-44,-36,-100,-12
9,30,21,-20,-6,26,-12,-26,-44,-36,-95,-11
8,31,23,-20,-7,27,-12,-25,-43,-36,-92,-11
7,31,23,-19,-7,27,-12,-25,-43,-35,-94,-11
7,30,23,-19,-7,27,-11,-25,-42,-35,-96,-11
6,30,24,-18,-9,28,-9,-23,-40,-33,-98,-10
5,31,26,-18,-11,29,-7,-21,-37,-31,-96,-8
5,33,28,-20,-12,31,-5,-18,-35,-29,-89,-6
6,36,30,-21,-12,34,-4,-14,-32,-27,-80,-4
6,39,33,-22,-14,36,-2,-11,-30,-24,-71,-1
6,41,35,-23,-15,39,0,-7,-26,-21,-63,2
6,44,38,-25,-16,41,2,-2,-20,-17,-59,5
6,47,41,-27,-17,45,6,2,-14,-11,-58,9
6,52,46,-29,-20,50,11,8,-6,-5,-56,14
6,58,52,-32,-22,55,16,14,1,2,-51,19
7,65,59,-36,-26,62,20,20,9,9,-42,25
7,74,67,-41,-30,70,24,26,17,17,-30,32
7,83,75,-45,-35,79,27,32,26,24,-16,39
7,91,84,-49,-39,87,30,36,34,32,-5,46
6,98,92,-52,-43,95,32,39,42,38,1,51
4,104,100,-54,-48,102,34,39,48,44,3,56
2,109,108,-55,-53,109,36,39,53,49,3,61
0,114,114,-57,-57,115,37,37,58,54,5,66
-1,119,121,-59,-61,120,36,34,62,58,10,71
-3,125,129,-61,-67,127,35,30,65,61,18,76
-5,133,138,-64,-72,135,33,26,66,63,27,81
-7,140,147,-66,-77,143,31,19,66,64,34,84
-8,147,155,-69,-81,151,27,11,66,64,38,86
-9,153,162,-72,-85,157,23,1,65,64,38,87
-10,158,168,-73,-89,163,17,-9,63,63,35,88
-12,162,175,-74,-93,168,11,-21,60,62,32,89
-15,165,181,-75,-98,173,5,-32,56,60,31,90
-18,169,188,-75,-103,178,-4,-45,50,57,33,90
-20,173,193,-76,-107,183,-15,-60,41,52,36,89
-21,177,198,-78,-110,187,-26,-75,32,47,38,88
-21,181,202,-80,-112,191,-35,-88,25,44,39,88
-20,185,205,-82,-113,195,-43,-99,18,42,38,88
-20,188,208,-84,-114,198,-50,-110,13,40,33,88
-21,190,210,-84,-115,200,-57,-118,8,38,29,88
-21,191,212,-84,-117,201,-65,-125,4,37,26,87
-21,192,214,-85,-118,202,-73,-129,1,36,25,86
-21,193,214,-86,-118,203,-83,-133,-2,35,28,86
-20,194,215,-87,-118,204,-92,-137,-5,35,33,87
-20,196,217,-88,-119,206,-100,-140,-8,35,37,88
-19,197,216,-89,-118,206,-107,-141,-9,37,39,89
-17,196,212,-89,-115,204,-112,-141,-8,39,38,90
-14,193,207,-89,-111,200,-116,-139,-7,43,37,92
-12,190,201,-89,-106,195,-119,-136,-5,48,37,94
-8,188,196,-90,-102,191,-122,-131,-3,52,38,96
-2,188,191,-94,-97,189,-123,-125,-1,55,41,98
3,188,185,-96,-91,186,-124,-118,0,57,45,98
5,182,178,-94,-87,180,-123,-110,2,57,46,95
6,174,168,-89,-82,171,-120,-102,4,57,44,90
6,163,157,-84,-76,160,-116,-95,5,55,37,85
5,151,145,-77,-70,148,-111,-88,6,54,29,79
5,139,134,-72,-64,136,-104,-80,7,52,21,73
5,130,125,-68,-60,127,-96,-72,9,51,15,68
6,123,118,-65,-56,120,-89,-63,12,49,12,65
7,117,111,-63,-52,114,-83,-54,15,48,12,62
8,110,102,-60,-47,106,-75,-43,20,49,13,60
7,99,92,-53,-43,96,-66,-30,28,52,14,58
5,87,82,-46,-39,85,-56,-16,38,57,12,55
6,74,68,-39,-31,71,-45,-2,48,62,9,52
8,59,52,-33,-22,55,-36,9,55,66,4,47
8,42,35,-25,-14,38,-28,21,62,69,0,43
7,25,18,-16,-6,20,-20,32,67,71,-3,38
7,10,3,-9,1,6,-13,43,72,73,-3,33
8,0,-9,-4,8,-5,-8,52,76,74,-2,31
12,-5,-17,-3,14,-11,-4,58,78,75,-2,29
14,-8,-22,-3,18,-15,-1,61,78,74,-3,26
15,-11,-26,-1,20,-19,0,63,78,73,-7,24
15,-14,-28,0,21,-21,2,64,78,72,-12,22
14,-16,-30,1,22,-23,5,65,78,72,-15,21
13,-20,-32,3,22,-26,7,66,77,71,-17,20
10,-24,-34,6,22,-29,8,67,75,69,-18,18
9,-26,-35,8,22,-31,8,67,74,66,-17,17
8,-28,-36,9,22,-32,8,68,73,65,-16,16
7,-29,-37,10,22,-32,8,68,72,64,-16,15
7,-31,-38,12,23,-34,8,68,72,64,-18,14
7,-33,-40,13,24,-36,8,69,73,64,-21,13
9,-34,-43,12,26,-38,9,70,73,65,-23,12
10,-35,-45,11,27,-40,9,71,73,65,-24,12
10,-36,-46,12,28,-41,9,72,73,65,-24,12
9,-37,-47,13,28,-42,10,73,73,64,-23,12
8,-38,-47,14,27,-42,9,73,73,64,-21,12
7,-40,-47,16,27,-43,9,74,73,63,-20,11
7,-40,-48,17,28,-44,9,74,74,64,-20,10
8,-41,-49,17,29,-45,9,75,74,65,-21,10
9,-43,-51,17,30,-47,10,75,75,65,-23,10
10,-43,-52,16,31,-48,11,76,76,66,-24,10
12,-42,-54,14,32,-48,12,77,77,67,-24,10
12,-43,-54,14,32,-48,13,79,77,67,-22,11
10,-43,-54,15,32,-48,14,80,78,67,-18,11
9,-45,-54,17,32,-49,13,81,78,67,-16,11
8,-46,-55,19,32,-50,12,81,77,67,-16,11
9,-46,-55,19,32,-50,12,81,77,67,-19,10
10,-46,-56,18,33,-50,13,81,77,67,-22,10
12,-46,-57,17,34,-51,13,82,78,67,-23,9
14,-46,-59,16,36,-53,13,82,78,67,-24,9
14,-47,-60,16,36,-54,14,83,78,66,-22,9
12,-49,-61,18,36,-55,14,85,77,66,-20,8
12,-50,-62,19,36,-56,14,86,77,65,-17,8
12,-51,-63,20,37,-57,14,87,78,66,-16,8
11,-53,-63,21,37,-58,15,88,78,67,-16,8
10,-54,-64,22,37,-59,16,89,79,68,-17,8
11,-55,-66,22,38,-60,17,90,79,68,-20,7
11,-57,-68,23,39,-63,16,91,79,67,-22,6
10,-59,-69,24,39,-64,16,92,79,67,-22,5
10,-60,-70,25,39,-65,16,93,79,66,-20,5
11,-61,-72,25,41,-66,16,94,79,66,-18,5
12,-61,-74,24,43,-67,17,96,79,66,-17,5
14,-62,-76,24,45,-69,17,97,79,66,-18,5
15,-63,-78,24,46,-70,18,98,79,66,-19,4
16,-63,-79,24,47,-71,18,99,80,67,-21,4
16,-63,-79,24,47,-72,19,100,80,67,-21,4
16,-64,-80,24,48,-73,19,101,80,67,-22,4
17,-65,-82,24,49,-74,20,103,80,67,-21,3
19,-66,-85,24,51,-76,20,104,80,67,-21,2
19,-68,-88,25,53,-79,20,106,80,66,-20,1
18,-71,-90,26,54,-81,20,107,80,66,-20,0
17,-74,-91,28,54,-83,20,107,80,66,-20,0
16,-77,-92,30,54,-85,21,108,80,66,-20,0
16,-79,-95,31,55,-87,21,108,80,65,-21,-1
16,-82,-97,32,57,-90,21,109,79,65,-21,-2
16,-84,-100,33,58,-92,21,109,78,64,-22,-3
18,-85,-103,33,59,-94,21,110,77,63,-22,-3
21,-85,-106,31,63,-95,22,111,77,63,-22,-4
25,-84,-109,29,67,-96,23,112,77,63,-22,-4
26,-84,-111,29,69,-97,24,114,78,63,-22,-4
24,-87,-111,31,68,-99,25,115,78,63,-22,-4
22,-90,-111,34,67,-101,26,116,78,63,-21,-4
20,-92,-113,35,67,-103,26,117,78,63,-21,-5
20,-95,-115,37,67,-106,26,117,77,62,-22,-6
19,-97,-117,38,68,-108,27,117,76,62,-22,-6
20,-98,-119,38,69,-109,28,118,76,62,-22,-6
21,-98,-120,38,70,-109,30,119,76,62,-22,-6
22,-99,-122,38,72,-110,30,119,75,61,-22,-6
25,-100,-124,37,74,-112,30,119,74,60,-23,-7
26,-101,-126,37,76,-114,30,118,73,58,-23,-8
26,-103,-128,38,77,-116,30,118,71,57,-24,-8
26,-106,-131,39,78,-119,30,117,70,56,-24,-8
27,-107,-133,39,80,-121,30,116,69,55,-25,-8
28,-107,-135,39,81,-122,30,116,68,55,-25,-8
27,-107,-135,39,80,-121,31,116,67,54,-25,-7
26,-107,-133,40,78,-120,33,116,67,54,-25,-6
25,-107,-132,41,78,-120,34,116,65,53,-24,-5
25,-108,-132,41,78,-120,34,115,64,52,-24,-5
24,-108,-132,41,78,-120,35,115,63,51,-23,-5
24,-108,-133,41,78,-120,35,114,62,50,-23,-4
25,-108,-133,41,78,-120,35,113,61,49,-23,-4
25,-107,-132,41,78,-120,35,111,59,48,-23,-4
25,-108,-132,41,77,-120,34,108,57,46,-24,-4
23,-109,-131,43,76,-120,34,105,54,44,-25,-4
21,-108,-129,43,75,-119,33,103,52,42,-26,-4
21,-107,-128,42,74,-117,33,101,50,40,-26,-4
21,-105,-126,42,74,-116,33,100,49,38,-26,-4
21,-104,-124,41,72,-114,33,98,47,37,-26,-4
22,-101,-123,39,72,-112,34,96,46,36,-27,-3
23,-99,-121,38,71,-110,34,94,44,35,-28,-3
21,-97,-118,38,69,-108,34,90,41,33,-29,-3
18,-96,-114,39,65,-105,33,86,38,30,-30,-3
16,-95,-111,39,63,-103,32,82,35,27,-31,-3
16,-94,-109,39,62,-102,30,78,31,24,-33,-3
16,-91,-107,37,61,-99,29,74,29,22,-34,-3
16,-88,-103,35,60,-95,29,72,27,20,-34,-3
16,-84,-98,33,57,-91,30,70,26,20,-35,-3
15,-80,-94,32,54,-86,30,68,24,19,-35,-3
15,-76,-90,30,52,-83,29,64,22,17,-36,-3
14,-73,-86,29,50,-79,28,60,19,14,-37,-3
12,-70,-82,29,47,-76,26,56,16,11,-38,-3
11,-68,-79,28,45,-73,25,52,13,8,-39,-3
9,-66,-75,28,42,-70,24,49,9,4,-40,-3
7,-64,-71,27,39,-67,23,46,7,2,-41,-4
7,-60,-66,26,36,-63,22,44,5,1,-42,-4
7,-54,-61,23,34,-58,22,42,4,0,-41,-4
7,-51,-57,21,32,-54,21,40,3,0,-41,-3
6,-48,-55,21,31,-52,19,37,0,-2,-40,-3
6,-46,-51,20,29,-49,19,33,-2,-4,-40,-2
6,-43,-48,18,27,-46,18,30,-4,-6,-40,-2
6,-41,-46,17,26,-44,16,27,-7,-8,-40,-2
6,-39,-44,16,25,-42,14,24,-9,-11,-41,-2
4,-37,-40,16,22,-39,13,23,-11,-13,-42,-3
1,-35,-35,16,17,-35,12,22,-12,-14,-42,-3
-2,-33,-31,17,14,-32,11,20,-13,-15,-43,-3
-3,-32,-28,17,12,-31,9,18,-15,-17,-44,-3
-4,-31,-27,17,11,-30,8,15,-18,-19,-44,-4
-3,-28,-26,16,11,-28,8,12,-19,-20,-44,-3
-1,-25,-24,13,11,-25,7,10,-20,-21,-43,-3
0,-22,-22,11,10,-22,7,9,-21,-21,-43,-3
0,-20,-20,10,10,-20,6,8,-22,-22,-44,-3
0,-18,-18,9,9,-18,5,7,-23,-23,-44,-4
0,-17,-16,8,8,-17,4,5,-24,-24,-45,-5
-1,-17,-14,9,6,-16,3,4,-25,-25,-46,-5
-4,-16,-11,10,4,-14,3,3,-26,-26,-46,-5
-5,-16,-10,10,2,-14,3,1,-27,-27,-46,-5
-6,-16,-10,10,2,-13,3,0,-28,-28,-46,-6
-6,-15,-9,10,1,-12,2,-2,-30,-29,-46,-6
-5,-14,-9,9,2,-11,1,-2,-31,-30,-46,-7
-4,-13,-9,8,2,-10,0,-3,-32,-31,-46,-8
-4,-12,-7,8,1,-9,0,-3,-32,-31,-46,-8
-5,-11,-5,8,0,-8,0,-3,-32,-31,-46,-8
-5,-10,-5,7,0,-8,0,-3,-33,-31,-45,-8
-5,-10,-5,7,0,-8,0,-3,-33,-32,-45,-8
-5,-10,-5,7,0,-8,0,-4,-34,-32,-44,-8
-5,-10,-5,7,0,-7,0,-4,-34,-33,-43,-8
-5,-10,-5,7,0,-7,0,-4,-34,-33,-43,-8
-5,-10,-6,7,0,-8,-1,-4,-35,-34,-43,-8
-5,-10,-6,7,0,-8,-2,-4,-36,-34,-43,-8
-4,-9,-5,6,0,-8,-2,-4,-36,-34,-43,-8
-3,-8,-5,5,0,-8,-1,-4,-36,-34,-42,-8
-3,-8,-5,5,1,-8,-1,-4,-36,-35,-42,-8
-4,-9,-5,6,1,-8,-2,-5,-36,-35,-42,-9
-5,-11,-5,7,0,-8,-2,-5,-37,-36,-42,-9
-6,-11,-5,8,0,-8,-2,-4,-37,-36,-42,-9
-6,-12,-5,9,0,-9,-2,-4,-37,-36,-42,-9
-6,-12,-6,9,0,-9,-2,-4,-37,-36,-42,-9
-5,-12,-7,8,0,-9,-2,-4,-37,-36,-41,-9
-5,-11,-6,8,0,-9,-2,-3,-37,-36,-41,-8
-4,-11,-7,7,0,-9,-2,-3,-37,-36,-40,-8
-3,-11,-8,7,2,-10,-2,-4,-37,-36,-40,-8
-3,-11,-8,7,2,-10,-2,-4,-37,-36,-40,-8
-4,-11,-8,7,1,-10,-2,-3,-37,-36,-39,-8
-4,-12,-8,8,1,-10,-1,-3,-37,-36,-39,-7
-3,-12,-9,7,2,-10,-1,-2,-37,-36,-39,-7
-2,-12,-10,7,3,-11,-1,-2,-37,-36,-38,-7
-3,-13,-9,8,2,-11,-1,-1,-37,-35,-37,-6
-6,-14,-9,10,1,-12,0,-1,-36,-35,-35,-6
-8,-17,-9,12,0,-13,-1,-1,-36,-35,-34,-6
-9,-18,-9,14,0,-14,-1,-1,-36,-36,-33,-6
-8,-19,-10,14,1,-15,-1,-1,-36,-35,-32,-5
-7,-18,-11,12,2,-15,0,0,-35,-34,-31,-5
-6,-18,-12,11,3,-15,0,0,-35,-33,-32,-4
-5,-19,-13,11,3,-16,0,0,-35,-33,-33,-4
-5,-19,-13,12,3,-17,0,-1,-35,-33,-35,-5
-6,-20,-13,12,3,-17,0,-1,-35,-33,-37,-5
-6,-20,-13,13,3,-17,0,-2,-34,-32,-39,-5
-6,-19,-12,13,3,-16,0,-2,-34,-32,-40,-4
-6,-19,-12,13,3,-16,0,-2,-33,-31,-42,-4
-6,-19,-12,13,3,-16,0,-3,-34,-32,-43,-4
-6,-19,-13,13,3,-17,0,-3,-34,-33,-45,-5
-6,-21,-14,13,4,-18,0,-4,-35,-33,-46,-5
-6,-22,-16,13,4,-19,0,-4,-35,-33,-46,-6
-6,-22,-16,13,4,-19,0,-3,-35,-33,-46,-6
-7,-22,-15,14,4,-19,0,-3,-35,-33,-46,-5
-7,-22,-15,14,4,-19,0,-3,-35,-33,-47,-5
-8,-23,-15,15,3,-19,0,-3,-35,-33,-47,-5
-10,-24,-14,16,2,-19,0,-4,-35,-33,-48,-6
-10,-23,-13,16,1,-18,0,-4,-35,-33,-49,-6
-9,-20,-12,14,2,-17,0,-3,-35,-32,-49,-5
-8,-18,-11,12,1,-15,0,-3,-35,-32,-50,-5
-7,-17,-11,11,1,-14,0,-3,-35,-33,-51,-5
-6,-17,-11,11,2,-14,0,-4,-36,-33,-51,-5
-5,-16,-11,10,3,-14,-1,-4,-36,-33,-52,-5
-3,-16,-12,9,4,-14,-1,-4,-36,-34,-52,-6
-4,-16,-11,10,4,-14,-1,-5,-36,-34,-53,-6
-7,-17,-10,12,2,-14,-2,-5,-37,-35,-53,-6
-9,-18,-8,13,0,-13,-2,-4,-37,-35,-53,-6
-8,-17,-8,12,0,-13,-1,-4,-36,-34,-53,-6
-6,-15,-8,9,1,-12,-1,-3,-36,-34,-53,-5
-5,-14,-9,8,2,-12,-2,-3,-36,-34,-52,-5
-5,-13,-9,8,2,-12,-2,-3,-36,-34,-52,-5
-4,-13,-9,8,3,-12,-2,-4,-37,-34,-52,-6
-5,-13,-8,8,2,-11,-2,-5,-37,-35,-52,-6
-6,-13,-7,8,1,-11,-3,-5,-37,-35,-52,-7
-7,-13,-7,9,0,-10,-3,-5,-38,-35,-52,-7
-7,-12,-6,8,0,-10,-4,-5,-38,-35,-52,-7
-7,-11,-5,8,-1,-9,-4,-5,-38,-36,-52,-8
-7,-11,-4,8,-1,-8,-4,-6,-39,-36,-51,-8
-6,-10,-4,7,-1,-7,-4,-6,-39,-37,-51,-9
-5,-8,-3,6,-1,-6,-3,-5,-39,-37,-50,-9
-5,-7,-2,5,-1,-4,-3,-5,-39,-36,-48,-8
-5,-6,-1,5,-2,-3,-3,-5,-39,-36,-47,-8
-6,-6,0,5,-3,-3,-3,-5,-39,-36,-45,-7
-6,-6,0,5,-3,-3,-4,-5,-39,-36,-45,-7
-6,-6,0,6,-3,-4,-4,-5,-39,-36,-45,-7
-7,-8,0,7,-4,-5,-4,-5,-39,-36,-44,-8
-8,-9,0,8,-4,-5,-4,-5,-40,-37,-44,-8
-8,-8,0,7,-4,-5,-4,-5,-40,-37,-43,-8
-7,-7,0,6,-4,-3,-4,-5,-39,-36,-42,-8
-7,-5,0,5,-4,-3,-4,-5,-39,-36,-41,-8
-6,-5,0,5,-3,-3,-5,-5,-39,-36,-40,-8
-6,-6,0,5,-3,-3,-5,-5,-39,-36,-39,-8
-7,-7,-1,6,-3,-4,-5,-5,-39,-37,-39,-8
-5,-6,-1,5,-2,-4,-5,-5,-39,-37,-39,-8
-3,-4,-1,3,-1,-3,-4,-5,-38,-36,-38,-8
-3,-3,0,3,-2,-2,-3,-4,-38,-35,-37,-7
-5,-4,1,4,-3,-2,-4,-4,-38,-35,-37,-7
-6,-4,2,5,-4,-1,-4,-3,-38,-35,-36,-7
-7,-4,2,5,-5,-1,-4,-3,-38,-35,-35,-6
-8,-4,2,5,-5,-1,-4,-3,-38,-35,-35,-6
-7,-4,2,5,-4,-1,-4,-4,-38,-35,-35,-6
-6,-4,2,4,-4,-1,-4,-4,-38,-34,-35,-6
-6,-4,2,4,-4,-1,-4,-4,-38,-34,-35,-6
-6,-4,2,4,-4,-1,-4,-4,-38,-34,-34,-6
-6,-4,2,4,-4,-1,-4,-4,-37,-34,-34,-7
-6,-4,2,5,-4,-1,-4,-4,-38,-34,-34,-7
-7,-5,2,5,-4,-2,-5,-5,-38,-35,-34,-8
-6,-5,1,5,-3,-2,-5,-6,-38,-35,-34,-8
-6,-5,0,4,-3,-2,-5,-7,-38,-34,-34,-8
-6,-5,0,4,-3,-3,-5,-8,-38,-34,-34,-8
-6,-5,0,4,-3,-3,-5,-8,-38,-34,-34,-8
-6,-5,1,4,-3,-2,-5,-8,-38,-34,-34,-7
-6,-5,1,5,-4,-2,-5,-9,-38,-34,-34,-7
-7,-6,1,6,-4,-3,-5,-10,-39,-35,-34,-7
-7,-7,0,6,-3,-4,-5,-11,-39,-35,-35,-7
-7,-7,0,6,-3,-4,-6,-12,-40,-35,-35,-8
-7,-7,0,6,-4,-3,-5,-12,-40,-35,-34,-7
-7,-6,1,6,-4,-2,-4,-12,-39,-34,-34,-7
-7,-5,1,6,-4,-2,-4,-12,-39,-34,-34,-7
-6,-5,0,6,-3,-2,-4,-12,-39,-34,-34,-7
-5,-5,0,5,-2,-2,-4,-12,-39,-34,-34,-7
-4,-5,0,4,-2,-2,-3,-12,-39,-34,-34,-7
-4,-5,0,4,-2,-3,-3,-12,-39,-34,-33,-6
-4,-6,-1,4,-1,-3,-4,-13,-39,-34,-33,-6
-4,-6,-1,4,-1,-4,-5,-15,-39,-34,-33,-6
-7,-7,0,6,-3,-4,-4,-15,-39,-34,-34,-6
-10,-7,2,8,-6,-3,-4,-16,-38,-33,-34,-6
-11,-7,3,8,-7,-2,-3,-16,-38,-33,-34,-6
-10,-7,3,7,-6,-2,-3,-16,-38,-33,-34,-7
-9,-7,1,7,-5,-3,-3,-17,-39,-34,-34,-7
-8,-8,0,7,-4,-4,-4,-18,-39,-34,-35,-8
-8,-9,0,8,-4,-4,-5,-19,-39,-34,-35,-8
-7,-7,0,7,-4,-4,-4,-19,-38,-33,-34,-8
-7,-6,0,6,-4,-3,-3,-19,-38,-33,-34,-7
-7,-7,0,7,-4,-3,-3,-20,-38,-33,-34,-8
-7,-7,-1,8,-3,-4,-4,-21,-39,-34,-34,-8
-7,-8,-1,7,-2,-4,-4,-22,-40,-35,-34,-8
-7,-7,0,7,-3,-3,-3,-22,-39,-35,-34,-7
-8,-7,1,7,-4,-2,-2,-22,-39,-34,-33,-6
-8,-7,1,7,-4,-1,-1,-21,-38,-33,-33,-6
-8,-6,2,6,-5,-1,0,-21,-37,-32,-32,-5
-8,-6,1,6,-5,-1,0,-22,-37,-32,-32,-5
-6,-5,0,5,-4,-2,-1,-22,-37,-32,-32,-5
-5,-4,0,4,-2,-2,-1,-23,-37,-32,-32,-5
-5,-4,0,4,-2,-2,-1,-23,-37,-32,-31,-5
-6,-6,0,5,-3,-3,-1,-23,-38,-32,-30,-5
-6,-7,-1,6,-2,-4,-2,-24,-38,-33,-31,-6
-5,-7,-1,6,-2,-4,-2,-25,-39,-33,-31,-6
-6,-7,-1,6,-2,-4,-1,-25,-39,-33,-32,-6
-7,-7,-1,7,-3,-3,0,-25,-38,-33,-32,-6
-8,-8,-1,7,-4,-4,0,-25,-38,-33,-33,-6
-8,-8,-1,8,-4,-4,0,-25,-39,-34,-33,-7
-8,-8,-1,8,-3,-5,0,-25,-39,-34,-32,-7
-6,-7,-1,6,-2,-5,0,-24,-39,-34,-31,-6
-5,-6,-2,5,0,-5,0,-25,-39,-34,-30,-6
-4,-7,-3,5,0,-5,-1,-25,-39,-35,-30,-7
-4,-8,-3,6,0,-6,-1,-26,-40,-35,-31,-7
-6,-9,-2,7,-1,-5,-1,-26,-39,-34,-31,-7
-10,-9,0,9,-5,-4,-1,-25,-38,-33,-30,-6
-12,-10,1,10,-6,-4,0,-25,-38,-32,-30,-6
-12,-10,1,10,-6,-4,0,-26,-38,-33,-29,-6
-12,-9,1,10,-6,-4,0,-26,-38,-33,-29,-6
-10,-8,1,8,-5,-4,0,-25,-38,-33,-28,-6
-8,-7,0,7,-4,-3,0,-25,-38,-33,-27,-6
-8,-8,0,7,-4,-3,0,-26,-38,-33,-27,-6
-9,-9,0,8,-4,-4,0,-26,-38,-33,-28,-6
-9,-10,0,9,-4,-5,-1,-27,-39,-34,-29,-7
-10,-10,-1,10,-4,-5,-1,-28,-39,-34,-29,-7
-9,-9,0,9,-4,-5,-1,-28,-39,-34,-29,-7
-9,-8,0,8,-4,-4,0,-27,-39,-34,-27,-7
-7,-7,0,7,-4,-3,0,-27,-39,-34,-26,-7
-6,-6,0,6,-3,-3,0,-27,-39,-34,-26,-7
-7,-7,0,6,-3,-3,0,-27,-39,-34,-26,-8
-8,-8,0,7,-4,-3,0,-28,-39,-34,-26,-8
-8,-7,0,7,-4,-2,1,-27,-38,-33,-26,-7
-6,-5,0,5,-3,-1,1,-26,-37,-31,-25,-6
-4,-4,0,3,-2,-1,1,-26,-37,-31,-24,-6
-5,-5,0,4,-2,-2,1,-27,-37,-31,-23,-6
-7,-7,0,6,-3,-3,0,-27,-38,-32,-22,-7
-8,-8,0,7,-3,-4,0,-28,-38,-33,-22,-7
-8,-8,0,7,-3,-4,0,-28,-38,-33,-22,-7
-8,-8,0,7,-3,-3,0,-28,-38,-32,-23,-6
-8,-7,1,7,-4,-3,1,-28,-37,-32,-23,-6
-8,-7,1,7,-4,-2,1,-28,-37,-31,-23,-6
-7,-6,1,6,-4,-2,2,-28,-37,-31,-22,-7
-7,-4,2,5,-5,0,3,-27,-36,-31,-21,-6
-8,-3,4,5,-7,1,4,-27,-36,-30,-19,-6
-8,-3,6,5,-7,2,5,-26,-35,-30,-18,-6
-7,-2,5,4,-6,2,5,-26,-35,-29,-18,-6
-5,-1,4,2,-4,2,6,-25,-34,-29,-18,-6
-5,-1,4,2,-4,2,7,-25,-34,-28,-18,-6
-6,-1,5,3,-5,2,7,-25,-33,-27,-18,-5
-6,0,5,3,-6,3,8,-25,-33,-27,-17,-5
-6,0,5,3,-5,2,7,-25,-33,-27,-17,-5
-5,0,4,2,-5,2,7,-25,-33,-27,-16,-5
-4,0,4,2,-5,2,6,-24,-33,-27,-15,-5
-3,1,4,1,-4,3,6,-24,-33,-27,-14,-4
-2,2,5,0,-3,3,6,-24,-32,-26,-14,-4
-2,2,5,0,-3,4,5,-24,-32,-26,-14,-3
-2,3,5,-1,-3,5,4,-24,-32,-26,-15,-3
0,3,3,-2,-1,4,2,-25,-32,-26,-15,-2
1,4,2,-3,0,4,1,-27,-33,-26,-14,-2
0,3,2,-2,-1,3,0,-28,-34,-27,-14,-2
0,3,2,-1,-1,2,-2,-29,-35,-27,-13,-2
-1,2,3,0,-2,2,-3,-29,-35,-27,-13,-2
-2,2,4,0,-3,2,-3,-29,-35,-27,-13,-1
-1,2,3,0,-2,2,-4,-29,-35,-27,-13,-1
0,2,2,-1,-1,2,-4,-30,-35,-27,-14,-1
0,2,2,-2,-1,2,-4,-29,-34,-27,-13,-1
1,2,1,-2,0,3,-3,-29,-33,-26,-13,0
1,2,1,-2,0,2,-3,-29,-32,-26,-12,0
1,2,1,-2,0,2,-3,-29,-32,-26,-11,0
1,3,1,-2,0,2,-3,-29,-33,-26,-11,0
2,3,1,-3,0,2,-3,-29,-33,-26,-11,0
1,3,1,-2,0,2,-3,-30,-34,-27,-12,-1
0,2,1,-1,0,2,-3,-31,-35,-27,-12,-1
-1,0,1,0,-1,2,-3,-31,-35,-28,-13,-2
-2,0,1,1,-1,1,-3,-32,-36,-28,-14,-2
-2,-1,0,1,-1,0,-3,-32,-36,-28,-14,-3
-3,-3,0,3,-1,-1,-3,-32,-36,-28,-14,-3
-3,-4,-1,3,-1,-2,-3,-31,-35,-28,-14,-3
-2,-3,-1,2,0,-2,-3,-30,-34,-28,-13,-3
-1,-3,-2,1,0,-2,-2,-29,-34,-27,-13,-3
0,-3,-3,1,1,-3,-2,-28,-34,-27,-13,-3
0,-4,-4,1,2,-4,-2,-28,-34,-27,-13,-3
0,-5,-5,2,2,-5,-2,-28,-34,-28,-14,-4
-2,-7,-5,4,1,-5,-2,-28,-34,-28,-14,-5
-3,-8,-4,6,0,-6,-1,-29,-35,-29,-14,-6
-4,-8,-4,6,0,-6,-1,-29,-36,-30,-14,-6
-3,-8,-4,6,1,-6,0,-29,-36,-31,-15,-7
-4,-8,-4,6,0,-6,0,-29,-37,-32,-15,-8
-6,-9,-2,8,-2,-6,0,-29,-37,-32,-15,-8
-8,-11,-2,9,-3,-6,0,-30,-38,-33,-16,-10
-7,-11,-4,8,-2,-7,-1,-31,-39,-34,-17,-11
-5,-10,-5,7,-1,-6,-1,-31,-39,-35,-18,-11
-4,-8,-5,6,0,-6,-1,-31,-39,-35,-18,-11
-3,-8,-5,6,0,-6,-1,-32,-40,-36,-18,-12
-5,-10,-4,8,-1,-7,-2,-32,-40,-36,-19,-13
-9,-11,-1,10,-4,-6,-2,-32,-40,-36,-19,-13
-9,-11,-1,10,-4,-6,-2,-32,-40,-36,-19,-13
-8,-10,-2,9,-3,-6,-2,-32,-40,-36,-19,-13
-8,-10,-2,9,-3,-6,-2,-32,-40,-35,-19,-13
-8,-10,-2,8,-3,-6,-2,-32,-40,-35,-19,-13
-7,-9,-3,7,-2,-6,-2,-32,-40,-35,-19,-13
-6,-8,-3,6,-2,-5,-2,-32,-40,-35,-18,-13
-6,-8,-3,6,-2,-5,-2,-32,-40,-36,-18,-13
-6,-9,-3,7,-2,-6,-3,-32,-41,-36,-19,-14
-6,-9,-3,7,-2,-6,-3,-32,-41,-36,-19,-14
-6,-9,-3,7,-2,-6,-3,-32,-40,-35,-18,-13
-6,-9,-3,7,-1,-6,-3,-31,-39,-34,-18,-13
-7,-9,-3,7,-2,-6,-2,-30,-37,-33,-17,-13
-9,-9,-1,8,-4,-5,0,-26,-33,-30,-14,-12
-9,-7,1,7,-5,-3,2,-21,-27,-25,-11,-10
-8,-5,2,6,-5,-2,4,-17,-22,-21,-8,-8
-8,-4,3,6,-5,-1,3,-18,-19,-18,-6,-7
-6,-3,4,5,-5,-1,-1,-23,-19,-16,-4,-5
-4,-1,4,2,-3,0,-8,-34,-22,-15,-1,-3
-1,1,3,0,-1,1,-18,-48,-27,-14,0,0
1,2,2,-1,0,1,-30,-66,-34,-14,3,2
2,3,1,-3,1,2,-43,-84,-41,-12,6,5
5,6,1,-5,2,3,-58,-101,-46,-8,11,9
7,9,1,-8,3,5,-72,-115,-49,-3,17,14
8,11,2,-10,3,7,-85,-125,-50,3,23,20
12,15,3,-13,4,9,-96,-131,-50,11,31,27
18,21,3,-19,7,12,-107,-134,-48,18,39,35
23,26,4,-25,9,15,-117,-137,-47,25,46,42
25,30,6,-28,10,18,-126,-141,-47,29,52,48
28,35,7,-32,10,21,-135,-144,-48,32,57,53
30,40,9,-36,10,25,-142,-147,-49,35,61,58
32,46,13,-39,9,30,-148,-150,-50,35,65,63
31,51,19,-41,6,35,-154,-155,-54,33,67,67
30,57,27,-44,2,42,-158,-160,-58,28,66,69
29,62,34,-45,-2,48,-160,-166,-64,20,62,68
25,63,40,-44,-7,51,-159,-168,-70,9,54,63
20,61,43,-41,-11,52,-153,-165,-70,1,45,55
14,58,44,-36,-15,51,-141,-154,-64,-3,37,46
8,53,44,-31,-18,49,-126,-136,-53,-2,31,37
4,47,42,-26,-19,45,-109,-115,-38,1,27,29
1,40,38,-20,-19,39,-91,-93,-21,8,25,22
-1,33,35,-16,-18,34,-73,-70,-4,16,24,18
-1,29,31,-13,-17,30,-57,-49,11,25,25,15
-1,26,27,-12,-14,26,-44,-32,24,33,26,14
0,23,24,-11,-12,23,-34,-19,34,39,28,13
0,20,21,-9,-10,20,-25,-8,42,44,30,13
0,18,18,-9,-9,18,-18,0,49,48,32,13
1,16,14,-9,-6,16,-12,8,55,52,34,14
3,14,10,-9,-4,13,-7,15,60,54,36,14
3,10,7,-7,-2,9,-3,21,64,56,37,15
3,7,4,-5,0,5,0,26,67,58,38,15
4,4,1,-4,1,2,4,30,70,60,39,15
5,3,-1,-4,3,0,6,33,72,62,39,15
5,2,-3,-3,4,-1,8,36,73,63,39,15
4,0,-4,-2,4,-2,9,37,74,63,40,15
3,0,-4,-2,4,-2,10,39,74,63,40,14
3,-1,-4,-1,4,-3,11,40,75,63,41,14
2,-2,-5,-1,4,-3,12,42,75,63,41,14
3,-4,-6,0,5,-5,13,43,75,63,41,14
3,-5,-7,0,6,-6,14,44,75,62,41,14
3,-6,-8,1,6,-8,14,45,75,62,41,13
3,-6,-9,1,6,-8,15,46,75,62,41,13
3,-5,-9,1,6,-7,16,47,76,63,42,13
3,-5,-9,0,6,-6,16,48,77,63,42,14
4,-4,-9,0,6,-6,17,49,78,64,43,14
5,-3,-8,-1,7,-5,18,50,79,65,45,15
5,-3,-8,-1,7,-6,19,52,80,66,46,16
5,-4,-9,-1,7,-7,19,52,80,66,46,16
6,-4,-10,-1,8,-8,19,53,80,67,46,16
7,-3,-10,-2,9,-8,19,54,81,68,47,16
7,-3,-10,-2,8,-7,20,55,82,69,47,17
5,-3,-9,-1,7,-7,20,55,83,69,47,17
5,-3,-9,-1,7,-7,20,56,83,70,46,17
5,-4,-10,-1,8,-7,20,56,84,70,46,17
5,-5,-11,0,8,-8,21,57,84,70,45,17
5,-5,-11,0,8,-8,21,58,85,71,45,17
4,-6,-10,0,7,-8,22,58,85,72,44,17
4,-6,-10,0,7,-8,22,59,86,72,43,17
4,-6,-10,0,6,-8,22,60,87,73,43,17
5,-5,-10,0,7,-7,23,60,88,74,43,17
7,-4,-11,-1,8,-7,22,61,88,74,43,17
8,-4,-12,-2,10,-8,21,61,88,74,43,16
9,-4,-12,-3,11,-8,21,62,88,74,43,16
9,-4,-12,-2,11,-8,21,63,89,75,43,16
8,-4,-12,-2,10,-8,21,64,90,75,43,16
9,-4,-13,-3,10,-8,22,64,91,75,43,16
8,-3,-12,-3,10,-8,22,65,91,76,43,16
6,-3,-11,-2,9,-8,22,65,91,76,43,16
6,-4,-11,-2,8,-8,22,65,91,76,43,16
7,-3,-11,-2,8,-7,22,66,92,76,44,16
7,-3,-10,-3,9,-6,22,67,93,77,45,17
7,-3,-10,-3,9,-6,23,69,94,77,47,17
8,-3,-10,-3,9,-6,23,70,95,78,48,18
8,-2,-10,-3,10,-6,23,71,95,78,48,18
8,-2,-9,-3,9,-6,23,72,96,79,49,18
7,-2,-8,-2,8,-6,24,73,98,80,50,19
7,-1,-8,-3,8,-5,24,73,98,80,51,19
9,-1,-9,-4,9,-5,24,74,99,81,53,20
9,0,-9,-4,9,-4,24,75,100,81,54,20
8,0,-8,-3,7,-3,25,76,101,82,56,21
7,0,-6,-4,6,-3,25,78,103,83,58,21
9,2,-7,-6,8,-2,26,79,104,84,59,22
11,3,-8,-7,9,-2,26,80,105,84,60,22
11,2,-9,-7,10,-3,26,81,105,84,60,22
12,2,-10,-7,11,-4,26,81,106,84,60,22
12,1,-11,-7,12,-4,26,82,106,85,60,23
11,1,-10,-6,11,-4,27,83,107,85,61,23
11,1,-9,-6,10,-3,27,85,108,86,63,24
12,2,-8,-7,10,-3,28,87,110,87,64,25
10,2,-8,-6,9,-3,29,88,111,88,64,25
8,1,-7,-4,8,-3,29,90,111,88,64,25
8,1,-8,-4,8,-4,29,91,112,89,64,25
9,1,-8,-5,9,-4,30,92,113,89,64,25
11,3,-9,-7,10,-3,31,93,115,90,65,26
13,4,-9,-8,11,-2,31,95,116,91,66,27
13,4,-9,-9,11,-2,31,96,117,92,67,27
13,3,-9,-8,11,-3,32,97,117,93,68,27
12,3,-9,-7,10,-3,32,98,118,93,68,27
12,3,-9,-7,11,-3,32,98,119,93,68,27
13,3,-9,-8,11,-3,33,99,120,94,69,27
13,4,-9,-8,11,-3,34,100,121,95,69,27
13,4,-9,-8,11,-2,35,101,122,96,69,27
14,5,-9,-9,11,-2,35,102,122,96,69,27
13,5,-8,-9,11,-2,36,102,123,96,70,27
13,4,-8,-8,11,-3,36,103,123,96,70,27
13,4,-9,-8,12,-3,36,103,123,96,70,27
14,4,-10,-9,13,-3,36,104,123,96,70,28
15,5,-9,-10,12,-2,36,105,124,97,70,29
14,7,-7,-10,11,0,38,106,125,99,71,30
13,8,-6,-10,10,1,38,107,126,99,71,30
14,7,-7,-10,10,0,38,107,125,98,71,30
14,6,-8,-10,11,0,38,106,124,97,71,29
13,6,-7,-9,10,0,39,106,123,97,71,29
13,7,-7,-9,10,0,39,106,123,96,71,30
14,7,-7,-10,11,0,39,106,121,96,70,29
14,6,-8,-10,12,-1,38,105,120,94,70,28
13,6,-8,-9,11,-1,38,104,119,93,69,28
12,6,-6,-9,9,0,39,104,118,93,69,28
12,7,-5,-10,8,0,39,104,117,92,69,29
12,7,-5,-9,8,0,39,103,116,91,69,29
12,7,-4,-9,8,0,38,102,114,89,68,29
11,7,-4,-9,7,1,38,101,113,88,68,29
11,8,-3,-9,7,1,39,99,111,87,68,29
11,8,-3,-10,7,2,38,97,108,85,67,28
11,8,-3,-10,7,2,38,95,106,83,66,28
10,7,-2,-9,6,2,37,93,103,81,65,27
9,6,-2,-8,5,2,36,90,100,78,64,26
8,5,-1,-7,5,1,36,88,97,76,62,25
7,5,-1,-6,4,1,35,85,94,73,61,25
6,5,-1,-6,4,2,34,83,91,70,59,24
8,8,0,-8,4,4,35,81,89,69,59,24
10,11,0,-10,5,6,35,79,87,67,59,24
11,12,0,-11,6,6,34,76,84,65,58,23
11,11,0,-10,6,4,32,72,80,61,55,22
10,9,-1,-9,6,3,31,68,75,57,53,20
10,8,-1,-8,5,3,30,65,71,54,52,19
9,8,-1,-8,5,3,29,61,67,51,50,19
7,7,0,-7,4,3,28,57,64,48,49,18
4,6,2,-5,1,4,28,55,61,46,47,18
2,6,3,-4,0,4,27,52,57,44,46,17
1,6,4,-4,0,5,25,48,53,41,44,16
2,6,4,-5,0,5,24,44,49,37,41,15
1,5,5,-4,-2,5,22,40,44,33,39,14
0,5,6,-2,-3,6,21,36,39,29,37,13
0,5,5,-3,-2,5,20,32,34,25,35,12
2,6,3,-4,0,5,19,27,29,21,33,11
2,6,3,-4,0,4,17,23,25,18,31,10
2,6,3,-5,0,5,16,20,21,15,29,9
2,6,3,-4,0,5,14,16,17,12,27,8
2,6,3,-4,0,5,13,13,13,9,25,7
2,5,3,-4,-1,5,12,9,9,6,23,6
1,5,4,-3,-1,4,11,5,5,2,21,5
0,4,4,-2,-2,4,9,1,1,0,19,5
0,4,3,-1,-2,4,8,-2,-2,-3,17,4
0,3,2,-1,-1,3,6,-5,-6,-7,15,3
0,2,1,0,0,2,5,-9,-10,-10,12,1
0,1,1,0,0,1,5,-11,-12,-12,11,1
-1,1,2,0,-1,2,4,-13,-14,-13,10,0
-2,1,4,0,-2,2,4,-15,-16,-15,9,0
-4,0,4,1,-4,2,3,-17,-19,-17,7,-1
-4,-1,3,3,-4,0,2,-20,-22,-20,5,-2
-5,-2,2,4,-3,0,1,-23,-25,-23,3,-3
-6,-3,2,5,-4,-1,1,-25,-27,-25,2,-4
-7,-4,3,5,-4,-1,1,-26,-29,-26,1,-5
-7,-4,2,5,-4,-1,0,-28,-30,-27,0,-5
-8,-5,2,6,-4,-2,-1,-29,-32,-29,-1,-6
-9,-7,1,8,-5,-3,-2,-31,-34,-31,-2,-8
-9,-9,1,9,-5,-4,-3,-33,-37,-33,-4,-9
-8,-9,0,9,-4,-5,-3,-35,-39,-35,-5,-10
-8,-9,0,9,-4,-5,-4,-36,-40,-36,-6,-10
-7,-8,0,8,-4,-4,-3,-37,-41,-37,-6,-10
-4,-6,-1,5,-1,-4,-3,-37,-41,-37,-6,-10
-1,-4,-2,2,0,-3,-2,-37,-41,-37,-6,-10
-3,-4,-1,3,0,-3,-2,-37,-42,-37,-7,-10
-5,-6,-1,5,-2,-3,-3,-38,-42,-38,-7,-11
-5,-6,0,6,-2,-3,-3,-38,-43,-38,-8,-11
-6,-6,0,7,-3,-3,-2,-38,-43,-38,-8,-11
-7,-6,1,7,-4,-2,-2,-38,-43,-39,-8,-11
-9,-7,1,8,-4,-3,-2,-39,-44,-40,-8,-12
-10,-9,1,9,-5,-4,-3,-40,-45,-41,-9,-13
-10,-10,0,9,-4,-6,-4,-41,-46,-42,-10,-14
-8,-10,-2,9,-3,-6,-5,-41,-47,-43,-11,-14
-8,-10,-2,9,-2,-6,-6,-42,-47,-43,-11,-15
-8,-10,-1,10,-3,-6,-5,-42,-46,-42,-11,-14
-9,-10,0,10,-4,-5,-5,-41,-46,-42,-11,-14
-8,-8,0,8,-3,-4,-5,-41,-46,-42,-10,-14
-6,-7,-1,6,-2,-4,-5,-41,-46,-42,-10,-14
-4,-6,-2,5,0,-4,-5,-42,-46,-42,-10,-14
-4,-6,-3,5,0,-5,-5,-42,-46,-42,-11,-14
-4,-7,-3,6,0,-5,-5,-42,-46,-42,-11,-14
-6,-8,-2,7,-2,-5,-5,-42,-46,-42,-11,-14
-8,-9,0,8,-3,-5,-4,-42,-46,-42,-10,-14
-8,-8,0,8,-4,-4,-4,-41,-45,-42,-10,-14
-7,-7,0,8,-3,-5,-3,-41,-45,-42,-10,-15
-7,-7,-1,8,-3,-5,-3,-41,-45,-42,-11,-15
-7,-7,-1,8,-3,-5,-3,-41,-45,-42,-11,-15
-8,-8,-1,8,-3,-5,-3,-41,-45,-42,-12,-15
-8,-9,-1,8,-3,-5,-4,-41,-45,-42,-12,-15
-7,-8,-1,7,-3,-5,-4,-40,-45,-41,-11,-15
-7,-7,0,7,-3,-4,-4,-40,-44,-40,-11,-15
-8,-8,0,8,-4,-4,-4,-40,-44,-41,-11,-15
-10,-9,0,10,-5,-4,-4,-40,-44,-41,-11,-15
-9,-8,1,9,-5,-3,-4,-39,-44,-40,-11,-15
-9,-7,1,8,-5,-3,-3,-39,-43,-40,-11,-14
-9,-7,2,8,-5,-3,-3,-39,-43,-40,-11,-14
-10,-8,2,9,-6,-3,-3,-39,-43,-40,-11,-14
-11,-9,2,9,-6,-4,-3,-39,-43,-40,-11,-15
-10,-8,2,9,-5,-3,-2,-39,-43,-39,-10,-15
-9,-7,1,8,-4,-3,-2,-39,-43,-39,-10,-15
-8,-7,0,7,-4,-3,-2,-39,-43,-39,-10,-15
-7,-6,0,6,-3,-3,-2,-38,-43,-39,-10,-15
-6,-5,0,5,-2,-3,-2,-38,-42,-39,-10,-15
-6,-4,1,5,-3,-2,-2,-38,-42,-39,-10,-15
-7,-4,3,5,-4,-2,-2,-37,-41,-38,-10,-14
-8,-5,4,6,-5,-1,-2,-37,-41,-38,-10,-14
-9,-5,4,7,-6,-1,-2,-37,-41,-38,-10,-14
-9,-5,3,7,-5,-2,-2,-37,-41,-38,-10,-14
-8,-6,3,7,-5,-2,-2,-37,-41,-38,-10,-14
-8,-6,2,8,-5,-2,-2,-37,-41,-38,-10,-14
-8,-6,2,8,-5,-2,-2,-37,-41,-38,-10,-14
-9,-7,3,8,-6,-2,-2,-38,-41,-38,-10,-14
-10,-7,3,9,-7,-2,-2,-38,-41,-39,-10,-14
-10,-7,4,8,-6,-2,-2,-38,-41,-39,-10,-14
-8,-5,3,6,-4,-2,-2,-38,-41,-39,-10,-14
-7,-5,2,6,-4,-2,-2,-38,-41,-39,-10,-14
-8,-5,3,7,-5,-1,-2,-38,-42,-39,-10,-15
-9,-5,4,7,-6,-1,-2,-38,-42,-39,-10,-15
-8,-5,4,7,-6,-1,-2,-39,-42,-39,-10,-15
-7,-4,3,6,-5,-1,-2,-39,-42,-39,-10,-15
-6,-2,4,4,-5,0,-2,-39,-41,-38,-10,-14
-6,-2,4,4,-5,0,-2,-39,-41,-38,-10,-14
-7,-3,4,4,-5,0,-3,-39,-42,-39,-10,-14
-7,-3,4,5,-5,0,-3,-40,-42,-39,-10,-14
-6,-3,3,5,-4,0,-4,-40,-43,-39,-10,-14
-6,-3,3,5,-4,-1,-4,-41,-43,-39,-10,-14
-6,-4,2,5,-4,-1,-5,-41,-43,-39,-11,-14
-7,-5,3,6,-5,-2,-5,-41,-43,-40,-11,-14
-8,-5,3,6,-6,-2,-4,-41,-43,-40,-11,-14
-9,-5,4,7,-6,-1,-4,-41,-43,-40,-10,-14
-11,-5,5,8,-7,-1,-3,-40,-43,-40,-10,-13
-12,-5,6,8,-8,0,-2,-40,-43,-39,-9,-13
-10,-4,5,7,-7,0,-2,-40,-43,-39,-9,-13
-8,-3,5,5,-6,0,-2,-39,-42,-39,-9,-12
-7,-2,5,4,-6,1,-2,-39,-42,-38,-9,-12
-8,-3,5,5,-6,1,-2,-39,-42,-38,-9,-12
-8,-3,4,5,-6,0,-2,-39,-43,-38,-9,-12
-8,-4,3,6,-5,0,-3,-40,-43,-39,-10,-13
-9,-5,4,7,-6,-1,-3,-40,-44,-39,-10,-13
-10,-6,4,8,-7,-1,-3,-41,-44,-40,-10,-13
-10,-6,4,8,-7,-1,-3,-41,-44,-40,-11,-13
-9,-6,3,7,-6,-1,-3,-41,-44,-41,-12,-13
-8,-5,3,6,-6,-1,-2,-41,-44,-40,-13,-13
-8,-4,3,6,-6,0,-2,-40,-44,-40,-13,-13
-8,-4,3,6,-6,0,-2,-40,-44,-40,-13,-13
-8,-4,3,6,-5,0,-2,-40,-44,-39,-13,-13
-7,-4,3,5,-4,0,-2,-40,-44,-39,-14,-12
-6,-3,2,5,-4,0,-1,-40,-44,-39,-14,-12
-7,-3,2,5,-4,0,-1,-40,-44,-39,-14,-12
-8,-4,3,6,-5,0,-1,-40,-44,-39,-15,-12
-8,-4,3,6,-6,0,-1,-39,-43,-39,-15,-12
-8,-3,4,5,-5,0,-1,-39,-43,-38,-15,-12
-7,-2,4,5,-5,0,0,-38,-42,-38,-15,-12
-7,-1,5,4,-6,1,0,-38,-42,-38,-15,-12
-7,-1,5,4,-6,1,0,-38,-42,-38,-15,-12
-8,-2,6,5,-7,1,1,-38,-42,-38,-15,-12
-9,-2,7,5,-8,2,1,-38,-42,-38,-15,-12
-8,-2,6,5,-8,1,1,-38,-42,-38,-15,-12
-9,-2,6,6,-8,1,1,-38,-42,-38,-15,-12
-9,-2,6,6,-8,1,1,-37,-41,-37,-15,-12
-9,-2,7,6,-8,2,2,-37,-41,-37,-15,-12
-9,-1,7,5,-8,2,3,-36,-40,-36,-14,-12
-9,-1,8,5,-9,3,3,-36,-40,-36,-14,-11
-8,0,7,3,-8,4,3,-36,-40,-35,-13,-11
-5,2,7,1,-6,4,3,-36,-39,-35,-12,-11
-4,3,7,0,-5,5,4,-34,-38,-34,-11,-9
-5,3,8,0,-6,6,5,-34,-37,-33,-10,-9
-5,3,7,0,-5,5,4,-34,-38,-34,-10,-9
-4,2,6,0,-5,4,3,-35,-39,-34,-10,-10
-4,2,6,0,-5,4,2,-36,-39,-34,-10,-10
-4,3,7,0,-5,5,0,-38,-39,-34,-9,-10
-3,4,8,0,-5,6,-1,-38,-39,-34,-9,-10
-1,6,7,-2,-4,6,-3,-38,-40,-34,-8,-10
0,7,7,-3,-3,6,-4,-39,-40,-35,-8,-10
-2,6,9,-2,-5,6,-4,-39,-41,-35,-7,-9
-5,5,10,0,-7,6,-4,-39,-41,-35,-7,-9
-4,5,9,0,-7,6,-5,-39,-41,-35,-6,-8
-3,5,8,-1,-5,6,-5,-39,-41,-35,-6,-8
-3,4,6,-1,-4,5,-6,-40,-41,-35,-6,-8
-3,2,5,0,-4,4,-7,-40,-41,-35,-6,-9
-3,1,5,1,-4,3,-8,-40,-41,-35,-5,-8
-1,3,5,0,-3,4,-8,-40,-41,-34,-4,-8
1,4,3,-3,-1,4,-7,-39,-40,-33,-3,-7
2,5,3,-4,0,4,-7,-40,-40,-33,-3,-7
0,5,3,-3,-1,4,-6,-40,-41,-33,-3,-7
0,4,4,-2,-2,4,-5,-40,-41,-34,-3,-7
-1,2,2,-1,-2,2,-5,-41,-42,-35,-3,-8
-1,0,1,0,-1,0,-5,-42,-43,-36,-4,-9
-1,-1,0,1,-1,0,-5,-43,-43,-37,-4,-10
-2,-2,1,2,-2,0,-5,-43,-43,-37,-4,-10
-4,-3,2,3,-3,0,-5,-42,-43,-37,-4,-10
-4,-3,1,3,-2,-1,-5,-42,-43,-37,-4,-10
-2,-3,-1,2,0,-2,-5,-42,-43,-37,-4,-10
0,-3,-3,1,1,-2,-4,-42,-43,-36,-4,-10
0,-3,-4,2,1,-3,-4,-41,-42,-36,-4,-10
-1,-5,-4,3,1,-4,-4,-41,-42,-36,-4,-11
-2,-6,-3,4,0,-4,-4,-41,-42,-36,-4,-11
-5,-7,-2,6,-1,-5,-4,-41,-42,-36,-4,-12
-7,-8,0,8,-3,-5,-4,-42,-42,-36,-5,-13
-8,-9,0,9,-4,-5,-3,-42,-43,-37,-5,-14
-9,-9,0,9,-4,-5,-3,-43,-43,-38,-6,-14
-10,-10,0,10,-4,-5,-3,-44,-44,-39,-7,-15
-11,-11,0,11,-4,-6,-2,-44,-45,-40,-8,-16
-12,-12,-1,12,-5,-6,-2,-45,-46,-41,-8,-17
-12,-13,-1,12,-5,-7,-2,-45,-46,-42,-9,-18
-11,-13,-2,12,-4,-7,-2,-46,-47,-43,-9,-19
-11,-13,-2,12,-4,-8,-2,-46,-47,-43,-10,-19
-10,-13,-2,12,-4,-8,-2,-46,-48,-44,-10,-20
-10,-13,-3,12,-4,-8,-2,-47,-48,-44,-11,-20
-11,-14,-3,12,-4,-9,-2,-47,-49,-44,-11,-20
-12,-14,-3,13,-4,-9,-2,-47,-49,-45,-11,-20
-11,-14,-3,12,-4,-8,-2,-47,-49,-45,-10,-20
-10,-12,-3,11,-3,-8,-2,-46,-48,-44,-9,-20
-9,-12,-3,10,-3,-8,-1,-46,-48,-44,-8,-20
-10,-13,-3,11,-3,-8,-1,-47,-48,-45,-8,-20
-11,-14,-3,12,-4,-8,-1,-47,-49,-45,-9,-20
-11,-14,-3,13,-4,-8,-1,-47,-49,-45,-9,-21
-12,-13,-2,13,-4,-8,-1,-47,-49,-45,-9,-21
-13,-13,-1,13,-5,-8,-1,-46,-48,-45,-9,-20
-13,-13,-1,13,-6,-8,-1,-46,-48,-44,-8,-20
-12,-13,-2,13,-5,-8,-1,-46,-48,-44,-8,-21
-11,-13,-3,12,-4,-8,-1,-45,-47,-43,-7,-21
-11,-14,-3,13,-4,-8,0,-43,-45,-42,-7,-21
-12,-15,-3,13,-4,-8,1,-38,-40,-39,-5,-20
-13,-15,-3,13,-4,-8,4,-32,-35,-35,-4,-19
-12,-13,-2,12,-4,-7,6,-28,-29,-30,-1,-18
-11,-10,0,10,-5,-5,6,-28,-25,-26,1,-15
-11,-8,2,9,-6,-3,2,-33,-25,-22,5,-13
-9,-7,2,8,-5,-3,-7,-45,-28,-21,7,-11
-7,-5,2,7,-4,-2,-19,-60,-33,-20,9,-9
-4,-3,2,4,-3,-1,-34,-78,-39,-18,12,-6
-2,-1,2,2,-2,0,-50,-96,-45,-16,15,-3
0,1,1,0,0,1,-67,-112,-49,-13,19,0
2,3,1,-3,1,1,-83,-125,-52,-9,23,4
7,6,-1,-7,4,2,-97,-134,-53,-3,28,9
13,8,-3,-11,8,2,-110,-140,-53,3,34,14
18,11,-6,-16,12,3,-121,-143,-53,9,40,20
23,15,-7,-20,15,4,-132,-145,-53,16,47,27
27,20,-7,-24,17,6,-142,-147,-53,20,53,33
30,24,-6,-27,18,9,-151,-149,-53,23,58,39
31,29,-3,-30,17,12,-158,-150,-53,26,63,45
33,34,0,-34,16,17,-164,-153,-55,27,66,50
35,41,5,-39,15,23,-168,-157,-57,26,68,55
34,47,13,-41,11,30,-172,-162,-62,22,69,58
29,52,23,-41,4,37,-173,-167,-66,16,67,59
23,56,33,-40,-4,44,-170,-167,-68,9,64,58
18,57,40,-38,-10,49,-161,-161,-66,3,59,53
12,56,44,-34,-16,50,-146,-148,-58,1,53,47
9,53,44,-30,-18,48,-129,-129,-46,2,48,40
6,48,41,-26,-18,44,-110,-108,-31,5,43,32
2,41,39,-21,-18,39,-90,-85,-15,10,38,24
-3,34,37,-15,-20,35,-71,-62,0,16,36,17
-7,27,35,-10,-20,30,-55,-42,14,23,35,12
-7,23,31,-8,-19,27,-42,-26,26,29,35,10
-5,21,27,-8,-16,24,-32,-13,35,34,36,8
-4,19,23,-7,-13,20,-24,-4,41,38,37,7
-3,16,18,-6,-11,17,-18,4,47,40,37,6
-4,13,15,-4,-9,14,-12,11,52,42,37,5
-5,9,12,-2,-8,10,-8,17,56,44,37,4
-5,4,9,0,-7,6,-4,23,60,46,37,3
-5,1,6,1,-5,3,0,29,63,48,39,3
-4,0,4,2,-4,1,4,34,66,51,40,3
-3,-2,1,2,-2,0,8,38,68,53,41,3
-2,-3,-1,3,0,-2,10,41,70,54,42,3
-1,-3,-4,2,2,-4,12,43,71,55,43,3
0,-3,-6,2,3,-5,14,44,72,55,43,4
1,-3,-7,1,4,-6,15,45,73,55,43,4
1,-4,-7,1,4,-7,15,46,73,54,42,3
1,-6,-7,2,4,-7,16,46,73,54,42,2
0,-7,-7,3,4,-7,16,47,73,54,42,2
0,-7,-6,3,3,-7,17,47,73,54,42,1
0,-7,-7,4,3,-7,17,48,73,54,42,1
-1,-7,-7,5,3,-7,17,48,73,55,43,1
-1,-7,-7,5,2,-7,18,49,74,55,43,1
-1,-8,-8,5,3,-8,18,50,74,55,43,1
-1,-9,-8,5,3,-9,19,50,75,55,43,0
-2,-10,-7,6,3,-9,20,52,76,56,43,1
-2,-10,-7,6,3,-9,20,53,77,57,44,1
-2,-10,-7,6,3,-9,20,54,77,57,44,1
-2,-10,-8,6,4,-9,20,54,77,58,44,1
-2,-10,-8,6,4,-10,20,54,77,58,44,1
-2,-10,-9,6,4,-10,20,55,77,58,44,1
-2,-9,-9,6,3,-10,21,55,78,58,44,1
-1,-9,-9,6,4,-10,21,56,78,58,44,1
-1,-9,-9,5,4,-10,21,56,79,58,44,1
0,-8,-9,4,5,-10,21,57,79,59,44,1
0,-8,-9,3,5,-9,22,58,80,59,45,1
0,-9,-10,4,5,-10,22,59,81,60,44,1
1,-10,-11,5,5,-10,22,60,81,60,44,1
2,-9,-11,4,6,-10,23,60,82,61,44,1
3,-8,-11,3,7,-10,24,62,84,62,44,2
4,-7,-12,2,8,-10,24,63,85,63,45,3
4,-7,-12,2,8,-10,25,64,86,64,46,4
2,-9,-12,3,7,-10,25,65,87,65,47,4
1,-10,-11,4,6,-11,26,66,88,66,47,5
1,-10,-11,4,7,-11,26,67,88,66,47,5
1,-10,-11,4,7,-11,26,68,89,67,48,5
0,-10,-11,5,6,-11,26,68,89,67,48,5
-1,-11,-10,6,5,-11,26,69,90,68,48,5
-1,-11,-11,6,5,-11,27,69,91,68,48,5
1,-10,-12,4,7,-11,27,70,92,69,48,5
3,-9,-13,2,8,-11,28,72,93,69,48,5
4,-8,-14,1,9,-11,28,73,93,70,49,5
6,-8,-15,1,10,-11,28,73,94,70,49,5
6,-8,-15,1,10,-11,28,74,95,70,50,5
5,-8,-13,2,9,-10,29,76,96,71,50,6
4,-8,-12,2,8,-10,29,77,97,72,51,7
4,-9,-13,2,8,-11,29,78,98,73,51,7
4,-9,-14,3,8,-12,29,79,98,73,51,7
4,-9,-14,3,9,-12,30,80,99,73,52,8
4,-9,-14,2,9,-12,30,82,100,74,53,8
3,-8,-13,3,8,-11,31,83,101,75,54,9
3,-8,-12,3,7,-11,32,85,102,75,54,9
3,-8,-12,2,8,-10,33,86,102,76,55,10
4,-8,-12,2,8,-10,33,87,103,76,55,10
4,-9,-12,3,8,-11,33,87,103,77,56,10
4,-9,-13,3,8,-11,33,88,104,77,56,10
4,-9,-13,2,9,-11,33,90,106,78,56,11
6,-8,-14,0,10,-11,34,91,107,79,57,11
8,-6,-14,-1,11,-10,34,93,108,80,58,12
7,-5,-14,-1,10,-10,35,95,109,81,59,12
6,-5,-12,0,9,-9,35,96,110,82,60,13
6,-5,-12,0,9,-9,35,97,111,82,61,13
7,-5,-13,-1,10,-9,35,98,111,83,61,13
7,-6,-13,0,10,-10,36,99,112,83,61,13
6,-6,-13,0,10,-10,36,100,112,83,61,13
5,-6,-12,0,9,-9,37,101,113,84,61,14
4,-6,-11,1,8,-9,38,103,114,85,62,14
5,-5,-11,0,8,-8,39,104,116,85,63,15
7,-3,-11,-1,9,-8,39,106,117,86,64,15
9,-2,-12,-3,10,-8,40,107,117,87,64,15
11,-1,-13,-4,12,-8,40,108,118,87,64,15
12,0,-13,-5,13,-7,41,109,118,87,65,15
11,0,-12,-5,12,-6,42,110,119,88,65,16
10,0,-11,-4,10,-5,43,111,120,89,66,17
9,0,-11,-4,10,-5,43,111,120,89,67,17
9,0,-11,-4,10,-5,43,112,120,89,67,17
8,0,-10,-4,9,-6,43,112,121,89,67,17
8,0,-10,-4,9,-5,43,113,121,89,67,17
10,1,-9,-5,10,-5,43,113,121,89,67,17
10,2,-9,-6,10,-4,44,113,120,89,67,17
10,2,-8,-6,9,-3,45,113,120,89,67,18
9,2,-7,-5,9,-2,45,113,120,89,67,18
9,2,-7,-5,8,-2,45,112,119,88,67,18
9,2,-7,-5,8,-2,45,112,117,87,67,18
9,2,-7,-5,7,-2,44,111,116,86,66,18
8,2,-6,-5,7,-2,44,110,114,85,66,18
7,2,-5,-4,6,-2,43,108,113,84,65,18
6,2,-4,-4,5,-2,43,106,111,83,65,18
7,3,-4,-5,6,-1,43,104,109,81,64,18
8,3,-5,-6,7,-1,42,102,106,79,63,17
9,4,-6,-6,8,-1,42,100,104,77,62,16
9,4,-5,-7,8,-1,41,98,101,75,62,15
9,5,-4,-7,7,0,41,97,99,74,61,15
8,5,-3,-7,6,1,41,95,97,72,61,15
9,7,-3,-8,6,2,40,92,94,70,60,15
11,8,-2,-9,6,2,39,89,91,68,60,15
10,9,-1,-9,6,3,38,86,88,65,59,15
8,9,0,-8,5,3,37,82,85,63,58,14
8,9,0,-8,4,4,36,79,81,60,56,14
8,9,0,-8,4,4,34,75,77,57,55,12
8,8,0,-8,4,3,32,70,72,53,52,10
7,6,-1,-7,4,2,31,65,67,49,50,9
7,6,0,-6,3,3,30,61,63,46,48,8
5,7,2,-6,1,4,29,58,60,44,47,8
3,7,5,-4,0,5,28,54,56,41,46,8
1,7,5,-3,-1,5,27,50,52,37,44,7
1,6,5,-3,-1,5,25,45,47,33,42,6
1,6,5,-4,-1,4,23,40,42,29,40,5
2,7,4,-5,0,5,22,35,37,25,38,4
3,7,5,-6,0,6,21,31,32,22,36,4
1,7,6,-5,-2,7,20,27,28,19,35,3
0,7,7,-4,-3,7,18,22,23,15,32,2
1,7,6,-4,-2,6,16,18,17,11,30,0
0,6,6,-3,-2,5,14,13,12,7,28,0
-1,5,6,-1,-2,5,13,8,7,4,25,-1
-2,5,6,-1,-3,5,12,4,3,1,24,-2
-3,4,6,0,-3,5,11,0,0,-2,23,-2
-3,3,6,0,-4,4,9,-3,-5,-5,21,-3
-3,2,4,0,-4,3,8,-7,-9,-9,19,-5
-4,0,4,1,-4,2,6,-11,-13,-12,17,-6
-5,-1,4,3,-5,2,5,-14,-16,-14,15,-7
-6,-1,3,4,-5,1,4,-17,-19,-16,14,-7
-5,-1,3,4,-4,1,3,-19,-22,-19,12,-8
-5,-1,2,4,-3,0,2,-22,-25,-21,11,-8
-5,-2,2,4,-3,0,1,-24,-28,-23,10,-9
-4,-3,1,3,-2,-1,0,-27,-31,-25,8,-9
-3,-2,0,2,-1,-1,0,-29,-33,-27,7,-10
-1,-2,0,1,-1,-1,0,-31,-35,-29,5,-11
-2,-3,0,2,-1,-1,-1,-33,-37,-31,3,-12
-3,-4,-1,3,-1,-2,-2,-35,-39,-33,1,-14
-4,-4,-1,4,-1,-3,-3,-37,-41,-34,0,-15
-4,-4,-2,4,0,-3,-3,-38,-43,-35,-1,-15
-4,-4,-1,4,-1,-2,-3,-39,-44,-36,-2,-16
-6,-5,0,5,-3,-2,-3,-39,-44,-37,-2,-16
-8,-5,1,6,-5,-2,-3,-40,-45,-37,-2,-16
-8,-6,1,7,-5,-2,-4,-41,-46,-38,-3,-16
-8,-6,0,7,-5,-3,-4,-42,-47,-40,-4,-17
-8,-7,0,7,-4,-3,-4,-43,-48,-41,-4,-17
-8,-7,-1,8,-3,-4,-5,-44,-49,-42,-5,-18
-9,-9,-1,9,-3,-5,-5,-44,-50,-42,-6,-19
-10,-9,0,10,-4,-5,-5,-44,-50,-42,-6,-19
-10,-9,0,9,-4,-5,-4,-44,-50,-42,-6,-19
-8,-9,-1,8,-3,-5,-5,-45,-51,-43,-7,-19
-7,-10,-2,9,-2,-6,-6,-46,-52,-44,-8,-21
-9,-10,-1,9,-4,-6,-6,-46,-52,-45,-8,-21
-10,-10,0,10,-4,-6,-5,-46,-52,-45,-7,-21
-9,-11,-1,10,-3,-6,-5,-46,-52,-45,-7,-21
-9,-11,-2,10,-3,-6,-5,-46,-53,-45,-8,-21
-9,-10,-2,10,-3,-5,-5,-46,-52,-45,-7,-21
-9,-10,-1,10,-4,-5,-5,-45,-52,-44,-7,-20
-8,-10,-2,9,-3,-5,-5,-45,-52,-45,-7,-20
-7,-9,-2,8,-2,-6,-5,-45,-52,-45,-8,-21
-8,-9,-2,9,-3,-6,-5,-45,-51,-45,-8,-21
-9,-9,-1,9,-4,-5,-4,-45,-51,-44,-7,-20
-8,-9,-1,9,-3,-5,-4,-44,-51,-44,-6,-20
-7,-9,-2,8,-2,-6,-4,-44,-51,-44,-6,-20
-8,-10,-2,9,-2,-6,-5,-45,-51,-44,-7,-21
-9,-12,-2,10,-3,-7,-6,-45,-52,-45,-7,-22
-10,-12,-2,11,-4,-7,-6,-45,-52,-45,-7,-22
-11,-12,-1,11,-5,-7,-5,-45,-51,-45,-7,-22
-11,-12,0,12,-5,-6,-4,-44,-51,-44,-7,-22
-11,-11,0,12,-5,-6,-4,-44,-50,-44,-7,-22
-9,-9,0,10,-4,-5,-3,-43,-50,-44,-6,-21
-7,-8,-1,7,-3,-5,-3,-43,-49,-43,-6,-21
-5,-8,-2,6,-2,-5,-3,-43,-49,-43,-6,-21
-6,-8,-2,7,-2,-5,-3,-43,-49,-43,-6,-21
-7,-8,-1,8,-3,-4,-2,-42,-48,-43,-5,-21
-7,-8,-1,8,-3,-4,-2,-42,-48,-43,-5,-21
-6,-7,-1,7,-2,-4,-2,-42,-48,-43,-5,-21
-6,-7,-1,7,-2,-4,-2,-42,-48,-43,-5,-21
-7,-8,-1,7,-3,-4,-2,-42,-48,-43,-6,-22
-7,-8,-1,8,-3,-4,-2,-42,-48,-43,-6,-22
-8,-9,-1,8,-4,-5,-2,-42,-48,-43,-6,-22
-8,-9,-1,9,-4,-5,-2,-42,-48,-43,-6,-22
-9,-10,-1,9,-3,-6,-2,-42,-48,-43,-6,-23
-9,-11,-2,9,-4,-6,-3,-42,-48,-44,-6,-23
-10,-10,-1,9,-4,-6,-3,-41,-48,-43,-6,-23
-9,-9,-1,8,-4,-5,-2,-40,-47,-42,-5,-23
-8,-8,0,8,-4,-5,-1,-39,-47,-42,-5,-22
-9,-7,0,8,-4,-4,-1,-38,-47,-42,-5,-22
-11,-7,2,9,-6,-3,0,-37,-47,-41,-5,-21
-13,-8,4,11,-8,-3,0,-37,-47,-41,-5,-21
-14,-10,3,12,-9,-3,-1,-37,-47,-42,-6,-22
-13,-11,2,12,-8,-4,-2,-38,-48,-43,-7,-22
-12,-11,0,11,-6,-5,-2,-38,-48,-43,-7,-22
-10,-10,0,10,-5,-5,-2,-38,-48,-43,-7,-22
-9,-9,0,9,-4,-4,-2,-37,-48,-42,-7,-22
-9,-8,0,8,-5,-3,-2,-37,-48,-42,-6,-21
-9,-7,1,8,-5,-3,-1,-36,-47,-41,-6,-21
-10,-6,2,8,-6,-2,-1,-36,-47,-41,-6,-20
-9,-5,3,8,-6,-2,-1,-35,-47,-41,-5,-20
-10,-5,3,7,-6,-1,0,-35,-47,-41,-5,-19
-11,-5,4,8,-7,0,0,-35,-47,-41,-4,-19
-11,-6,4,8,-7,-1,0,-35,-47,-41,-4,-20
-11,-6,3,8,-7,-1,0,-35,-47,-41,-4,-20
-9,-5,2,7,-5,-1,-1,-36,-47,-42,-4,-20
-7,-5,1,6,-4,-2,-2,-36,-48,-42,-5,-20
-7,-5,1,7,-4,-2,-2,-36,-48,-43,-5,-20
-8,-5,2,7,-5,-2,-2,-36,-48,-43,-5,-20
-8,-5,3,7,-5,-1,-1,-36,-48,-43,-5,-19
-9,-4,4,6,-6,-1,-1,-35,-48,-42,-4,-19
-9,-5,3,7,-6,-1,-1,-36,-49,-43,-4,-19
-10,-7,2,8,-6,-2,-1,-36,-49,-43,-4,-20
-11,-8,2,9,-6,-3,-1,-37,-50,-44,-4,-20
-11,-9,3,10,-7,-3,-2,-37,-50,-44,-4,-20
-11,-8,4,10,-7,-2,-2,-36,-49,-43,-4,-20
-12,-7,5,10,-8,-1,-1,-36,-49,-43,-4,-19
-11,-6,5,10,-8,-1,-2,-37,-49,-44,-4,-19
-10,-6,4,9,-7,-1,-2,-37,-50,-44,-4,-20
-10,-6,4,8,-7,-1,-1,-37,-50,-43,-3,-19
-10,-6,4,8,-7,0,-1,-37,-50,-43,-3,-19
-9,-5,4,7,-6,0,-1,-37,-50,-43,-3,-19
-8,-5,3,7,-5,0,-1,-37,-50,-43,-3,-19
-9,-6,3,8,-6,-1,-1,-37,-50,-43,-3,-19
-9,-6,3,8,-6,-2,-1,-37,-51,-44,-4,-19
-10,-6,2,8,-6,-2,-1,-38,-51,-44,-4,-19
-10,-6,2,8,-6,-2,-1,-38,-51,-44,-4,-19
-10,-6,2,8,-5,-2,-1,-38,-51,-44,-3,-19
-9,-6,2,7,-5,-2,-1,-38,-51,-44,-3,-19
-9,-7,1,7,-4,-2,-1,-38,-51,-45,-4,-20
-9,-8,1,8,-5,-3,-2,-39,-52,-45,-4,-20
-10,-8,2,9,-6,-3,-2,-39,-52,-45,-5,-19
-10,-8,2,9,-6,-2,-1,-39,-51,-45,-5,-19
-10,-7,3,9,-7,-2,-1,-39,-51,-45,-5,-19
-10,-7,2,9,-7,-2,-1,-39,-51,-45,-5,-19
-10,-8,2,9,-6,-2,-1,-39,-51,-45,-5,-19
-10,-8,2,9,-6,-2,-1,-39,-51,-45,-5,-19
-10,-7,3,9,-7,-1,0,-38,-50,-44,-5,-18
-10,-6,4,8,-7,-1,0,-38,-50,-44,-4,-18
-10,-6,4,8,-7,-1,0,-38,-50,-44,-4,-18
-10,-6,3,8,-6,-1,0,-38,-50,-44,-4,-18
-9,-5,3,7,-5,-1,0,-38,-50,-44,-4,-18
-8,-5,3,6,-5,-1,0,-38,-50,-43,-4,-18
-10,-5,4,7,-7,0,1,-38,-49,-43,-3,-17
-11,-5,6,7,-9,0,2,-37,-48,-42,-3,-17
-11,-4,6,7,-9,1,3,-36,-48,-42,-2,-17
-10,-3,7,6,-9,1,4,-35,-47,-41,-2,-16
-8,-3,7,5,-8,2,5,-34,-46,-41,-1,-15
-7,-2,6,4,-7,2,5,-33,-45,-40,-1,-15
-6,-1,5,3,-6,3,6,-33,-44,-39,-1,-14
-5,0,5,3,-5,3,6,-32,-43,-39,-1,-14
-6,0,5,3,-6,3,6,-32,-43,-38,-1,-14
-6,0,6,3,-6,3,6,-32,-42,-38,0,-14
-5,0,5,2,-5,3,6,-32,-42,-38,0,-14
-4,1,5,1,-4,3,6,-32,-42,-37,0,-13
-5,2,7,1,-6,4,6,-32,-41,-36,1,-13
-6,2,8,2,-7,5,5,-32,-40,-36,1,-12
-5,3,8,1,-6,5,3,-33,-41,-36,1,-12
-3,3,7,0,-5,5,1,-34,-42,-37,0,-13
-3,3,7,0,-5,5,0,-35,-42,-37,0,-13
-4,3,7,0,-5,5,-1,-35,-43,-38,0,-13
-5,3,7,0,-5,5,-2,-36,-44,-38,0,-13
-5,3,7,0,-6,5,-2,-37,-44,-38,0,-12
-4,4,8,0,-6,6,-3,-37,-44,-38,0,-11
-3,5,8,0,-6,7,-4,-38,-44,-37,1,-11
-2,5,6,-1,-4,6,-5,-38,-44,-37,1,-11
0,6,5,-2,-2,5,-5,-38,-44,-37,1,-11
2,7,4,-4,-1,5,-5,-38,-44,-37,1,-11
2,7,4,-4,-1,6,-5,-37,-43,-36,2,-10
1,7,5,-4,-2,6,-5,-37,-43,-36,2,-10
1,6,4,-4,-2,5,-5,-37,-44,-36,2,-11
0,4,3,-2,-2,3,-6,-38,-45,-37,1,-11
-1,2,3,0,-2,2,-6,-39,-46,-38,1,-12
-2,0,2,1,-2,1,-6,-40,-47,-39,0,-12
-2,0,1,1,-2,1,-6,-40,-47,-39,0,-13
-1,-1,1,2,-1,1,-6,-40,-47,-40,0,-13
-2,-1,0,2,-1,0,-6,-40,-47,-40,0,-14
-2,-1,0,3,-2,0,-6,-40,-47,-40,-1,-14
-3,-2,0,3,-2,0,-5,-40,-47,-40,-1,-14
-3,-3,0,3,-2,-1,-5,-40,-47,-40,-1,-14
-4,-4,0,4,-2,-2,-5,-40,-47,-40,-1,-14
-3,-5,-1,4,-1,-3,-5,-39,-47,-39,-1,-14
-2,-4,-2,3,0,-3,-4,-38,-46,-38,0,-14
-1,-4,-3,3,1,-3,-3,-37,-45,-38,-1,-14
-1,-5,-4,4,1,-4,-3,-37,-45,-38,-1,-15
-2,-5,-3,4,0,-4,-2,-36,-45,-38,-1,-16
-4,-5,-2,5,-1,-3,-1,-36,-45,-38,-1,-16
-5,-6,-1,5,-2,-3,-1,-36,-45,-39,-2,-17
-6,-7,-2,6,-2,-4,-1,-37,-47,-40,-3,-18
-7,-9,-1,7,-3,-5,-1,-38,-48,-41,-4,-19
-8,-10,-1,8,-3,-5,-1,-38,-48,-41,-5,-20
-8,-10,-1,9,-4,-6,-1,-38,-49,-42,-6,-21
-9,-10,-1,10,-4,-6,-1,-39,-49,-43,-6,-22
-9,-10,-1,10,-4,-6,-1,-39,-49,-43,-7,-22
-9,-10,-1,10,-4,-6,-1,-39,-50,-44,-7,-23
-9,-11,-3,10,-3,-7,-2,-40,-51,-45,-8,-24
-10,-13,-4,12,-3,-8,-2,-41,-52,-46,-9,-24
-10,-14,-4,12,-3,-9,-2,-41,-53,-47,-9,-24
-10,-13,-3,12,-3,-8,-1,-41,-52,-46,-9,-24
-12,-14,-2,13,-5,-8,-1,-40,-51,-46,-8,-23
-12,-15,-3,14,-5,-9,-1,-40,-51,-46,-8,-24
-11,-15,-5,13,-3,-10,-2,-40,-51,-46,-9,-24
-11,-15,-5,13,-3,-10,-1,-40,-51,-46,-9,-24
-11,-14,-4,12,-3,-9,-1,-40,-50,-45,-9,-24
-11,-13,-3,12,-4,-9,0,-40,-50,-45,-8,-23
-12,-13,-1,13,-5,-8,0,-39,-50,-44,-8,-23
-12,-13,0,13,-6,-8,0,-39,-49,-44,-7,-23
-12,-13,0,13,-6,-8,0,-39,-49,-44,-7,-23
-12,-14,-2,14,-5,-8,0,-38,-48,-44,-7,-24
-13,-15,-3,14,-5,-9,1,-36,-47,-43,-7,-25
-13,-15,-3,14,-5,-9,3,-31,-43,-40,-6,-24
-12,-14,-2,13,-5,-8,6,-25,-37,-36,-4,-23
-10,-12,-2,11,-4,-7,8,-20,-31,-31,-1,-22
-8,-10,-1,9,-3,-6,8,-18,-26,-27,1,-20
-8,-8,0,7,-4,-4,5,-22,-24,-24,4,-18
-7,-6,1,7,-5,-3,-2,-31,-25,-21,6,-16
-7,-6,0,6,-5,-3,-13,-46,-30,-20,8,-14
-6,-6,0,6,-4,-3,-28,-65,-37,-20,10,-12
-5,-5,-1,5,-3,-2,-45,-84,-43,-19,12,-10
-2,-2,-1,3,-1,-1,-63,-102,-48,-16,16,-6
2,1,-1,-1,0,1,-79,-116,-51,-11,21,-2
8,5,-2,-6,4,2,-93,-126,-52,-5,27,3
14,8,-5,-11,9,2,-105,-133,-53,1,33,9
20,11,-8,-15,14,1,-117,-137,-53,8,40,15
25,14,-11,-19,18,2,-129,-139,-53,14,46,21
30,18,-12,-23,20,4,-139,-142,-53,20,52,27
33,22,-11,-27,21,6,-149,-145,-53,24,57,33
37,27,-10,-32,22,9,-157,-148,-55,26,62,38
41,33,-9,-36,24,12,-165,-151,-57,27,65,43
42,37,-5,-39,23,16,-171,-155,-60,26,67,47
39,41,2,-40,18,22,-175,-160,-64,23,69,51
35,47,13,-40,11,30,-177,-164,-66,20,69,54
30,53,24,-41,3,38,-173,-164,-67,15,68,55
25,57,32,-41,-3,44,-166,-159,-66,10,65,52
19,57,38,-38,-9,47,-153,-148,-59,7,60,47
15,56,40,-35,-12,48,-137,-131,-48,6,55,41
12,52,39,-32,-14,45,-118,-111,-35,8,50,33
6,44,37,-25,-16,40,-98,-89,-20,10,44,24
0,35,36,-17,-19,35,-79,-66,-5,14,40,15
-5,28,34,-11,-20,30,-63,-45,8,20,38,8
-7,22,31,-7,-19,26,-48,-27,20,26,37,4
-8,19,28,-5,-18,24,-36,-12,31,32,38,2
-8,18,26,-5,-17,22,-26,0,40,37,39,1
-6,17,22,-5,-14,19,-18,10,47,41,40,0
-3,16,17,-6,-10,16,-12,17,52,43,40,0
-1,14,12,-6,-7,13,-7,23,56,44,40,-1
-1,10,9,-4,-5,9,-2,29,60,46,41,-2
-1,6,7,-2,-4,6,2,35,63,47,42,-2
0,3,3,-1,-2,2,6,40,66,49,42,-3
1,1,0,0,0,0,9,44,69,51,43,-3
1,0,-1,0,1,-1,11,48,71,53,43,-3
1,-2,-3,1,2,-3,12,50,72,54,43,-3
1,-3,-6,1,4,-4,13,51,72,54,43,-4
0,-5,-6,3,3,-5,14,51,72,53,43,-5
-2,-6,-5,5,2,-6,15,52,72,52,43,-5
-2,-7,-5,5,1,-6,17,53,72,51,43,-5
0,-7,-5,4,2,-6,18,54,72,51,43,-5
0,-7,-6,3,3,-7,18,55,72,51,42,-6
0,-8,-7,4,3,-7,19,56,72,51,42,-6
0,-9,-8,5,3,-8,19,57,73,52,42,-7
0,-9,-8,5,4,-8,20,58,73,52,42,-7
0,-8,-9,4,4,-8,21,58,74,53,42,-7
2,-7,-10,3,6,-8,21,59,74,53,43,-7
3,-7,-11,2,7,-8,21,60,74,53,43,-7
3,-8,-11,2,7,-9,21,60,74,53,43,-8
2,-9,-11,3,6,-10,21,61,74,53,42,-8
1,-9,-10,4,5,-10,21,62,74,54,42,-8
-1,-10,-9,5,4,-9,22,62,75,55,43,-8
-2,-10,-8,6,3,-9,22,63,76,55,43,-7
-1,-9,-9,5,4,-10,22,63,77,55,44,-7
0,-10,-11,5,6,-11,22,63,77,55,44,-7
1,-10,-12,5,7,-11,22,64,77,55,44,-8
2,-10,-13,4,8,-11,22,64,78,56,44,-8
4,-9,-14,3,9,-11,22,65,78,56,44,-8
4,-10,-14,3,9,-12,22,65,78,56,43,-8
2,-11,-13,4,7,-12,22,66,78,57,43,-8
0,-11,-12,5,6,-11,22,67,79,58,44,-8
0,-10,-11,5,5,-11,23,68,80,59,45,-8
0,-9,-10,5,5,-10,25,70,82,60,46,-7
1,-9,-10,5,5,-10,25,71,83,60,46,-7
1,-9,-11,4,6,-10,26,72,83,61,46,-7
1,-9,-10,4,5,-10,27,73,84,62,47,-6
0,-9,-9,4,4,-9,27,74,85,63,47,-5
0,-8,-9,3,4,-8,28,75,86,63,48,-5
1,-8,-10,3,5,-9,28,76,86,63,48,-5
3,-8,-12,2,7,-10,27,76,86,63,48,-5
5,-8,-14,2,9,-11,27,76,86,63,48,-6
5,-8,-15,2,10,-12,27,76,87,63,48,-6
4,-9,-13,3,9,-12,28,78,88,64,49,-6
2,-9,-11,4,7,-11,29,79,89,65,49,-5
2,-9,-10,4,6,-10,30,81,89,66,50,-5
2,-8,-11,3,6,-10,30,82,90,66,50,-5
4,-7,-11,1,7,-9,30,83,91,67,50,-5
4,-6,-11,1,7,-9,30,84,92,68,51,-4
4,-7,-11,1,7,-9,31,85,92,68,51,-4
5,-6,-12,1,8,-10,31,86,93,69,52,-4
7,-5,-13,0,10,-10,31,87,94,69,52,-4
8,-5,-14,-1,11,-10,31,89,95,70,53,-3
7,-5,-12,0,10,-9,32,90,96,70,53,-3
5,-6,-11,0,8,-8,33,92,97,71,54,-2
5,-6,-11,0,8,-8,33,93,97,71,54,-2
4,-7,-11,1,8,-9,33,94,98,72,54,-2
4,-7,-12,2,8,-9,34,95,99,72,54,-1
3,-8,-12,3,7,-10,34,96,100,73,54,-1
4,-8,-12,2,8,-10,34,97,100,73,55,-1
7,-6,-13,0,10,-10,34,98,102,73,55,-1
8,-6,-13,-1,10,-10,35,100,103,74,55,-1
7,-5,-12,-1,9,-9,36,102,104,75,56,0
6,-4,-11,-1,8,-8,37,104,106,77,56,0
7,-3,-11,-2,9,-8,37,106,107,78,56,1
7,-3,-12,-2,10,-8,38,107,107,78,56,1
6,-4,-12,-1,10,-8,38,108,108,79,57,2
6,-5,-12,0,9,-8,39,109,109,79,57,2
6,-5,-13,0,10,-9,39,110,110,79,57,2
8,-4,-13,-2,11,-9,39,111,111,79,58,2
10,-3,-13,-3,12,-9,39,112,111,80,58,2
11,-3,-14,-4,13,-9,39,113,112,80,58,1
10,-3,-14,-3,12,-9,40,114,112,80,58,1
8,-3,-13,-3,11,-9,41,115,112,81,59,1
8,-2,-12,-3,10,-7,42,116,114,83,60,2
8,0,-10,-3,9,-5,44,118,116,84,62,3
8,0,-9,-3,9,-4,45,120,117,84,62,4
8,0,-9,-3,8,-5,46,120,117,84,62,4
8,0,-9,-4,9,-5,46,121,117,84,62,4
9,0,-10,-4,9,-6,46,121,117,84,62,4
10,0,-10,-5,10,-6,46,121,117,84,62,4
10,0,-11,-4,10,-6,46,121,116,84,61,4
9,0,-11,-4,10,-6,46,121,116,84,61,4
9,0,-11,-4,10,-5,47,121,115,83,61,4
10,2,-10,-5,10,-3,48,122,115,83,61,4
11,3,-9,-6,10,-2,48,122,115,83,62,4
11,4,-8,-7,9,-2,48,122,114,82,62,4
11,4,-7,-7,9,-2,48,121,113,81,61,4
9,3,-7,-6,8,-2,47,120,111,80,61,4
8,1,-7,-4,7,-3,45,118,110,78,60,3
7,0,-7,-3,7,-3,44,116,108,77,59,3
7,1,-6,-4,7,-2,45,115,106,76,59,3
9,4,-5,-6,7,-1,46,114,105,75,58,3
9,5,-4,-7,7,0,46,112,103,74,58,2
10,6,-4,-8,7,0,45,111,101,72,57,2
11,7,-4,-9,7,1,45,109,99,70,56,1
11,7,-4,-10,7,2,44,107,96,69,56,1
11,8,-3,-10,7,3,44,105,94,67,55,2
10,8,-3,-9,7,3,43,102,91,65,55,2
9,7,-3,-8,7,2,42,99,88,63,54,1
9,7,-3,-8,6,2,41,96,85,60,52,1
9,7,-2,-8,6,2,40,92,81,58,51,1
8,6,-2,-7,5,2,39,89,78,55,49,0
6,6,-1,-6,3,3,38,85,74,52,48,0
5,6,0,-6,2,3,37,82,71,50,47,-1
3,6,1,-5,0,4,36,78,67,47,45,-1
2,5,1,-4,0,3,34,73,62,43,43,-2
2,4,1,-3,0,3,32,68,57,39,41,-4
3,5,1,-4,1,3,30,64,53,36,39,-5
4,6,1,-4,1,3,29,60,49,33,37,-5
4,5,0,-4,2,3,28,55,44,29,35,-6
4,4,-1,-3,2,1,26,50,39,24,33,-8
2,3,0,-2,0,1,25,46,34,21,31,-8
0,2,2,-1,-1,2,24,41,31,18,30,-8
0,2,3,-1,-2,3,23,37,27,15,29,-8
0,2,2,-2,-1,2,22,32,22,12,27,-9
1,2,1,-2,0,2,20,26,17,8,25,-11
1,2,0,-1,0,2,18,21,12,4,22,-12
1,2,0,-1,0,1,16,17,7,0,20,-13
0,2,1,0,0,1,14,12,3,-2,18,-14
-2,1,2,1,-2,1,12,8,-1,-5,17,-15
-2,0,3,0,-3,1,11,5,-4,-8,15,-16
-2,1,3,0,-2,1,10,1,-8,-10,14,-17
-2,0,3,0,-2,1,9,-2,-11,-13,12,-18
-4,-1,3,2,-3,0,8,-5,-15,-16,10,-19
-6,-3,2,4,-3,0,6,-9,-19,-19,8,-20
-6,-5,1,6,-3,-1,4,-12,-22,-22,6,-21
-5,-5,0,5,-2,-2,3,-15,-25,-24,5,-22
-3,-3,0,4,-1,-2,2,-17,-27,-26,4,-23
-2,-3,0,3,-1,-2,1,-18,-29,-28,3,-23
-2,-3,-1,3,0,-3,1,-20,-31,-29,1,-24
-1,-3,-2,2,0,-4,0,-22,-33,-30,0,-25
-1,-3,-2,2,0,-3,0,-24,-35,-32,0,-25
-2,-4,-2,3,0,-3,0,-26,-37,-33,-2,-26
-3,-4,-2,4,0,-3,-1,-27,-38,-35,-3,-26
-4,-4,-1,4,-1,-2,-1,-27,-39,-36,-3,-26
-5,-4,-1,5,-2,-2,-2,-28,-40,-37,-4,-26
-5,-5,-1,5,-1,-3,-2,-29,-42,-38,-4,-27
-4,-5,-1,4,-1,-4,-2,-30,-43,-38,-5,-27
-5,-6,-1,5,-2,-4,-2,-31,-44,-39,-6,-28
-7,-8,-1,8,-3,-5,-2,-32,-45,-40,-7,-29
-8,-10,-1,9,-3,-6,-3,-34,-46,-41,-8,-29
-7,-9,-2,8,-2,-6,-3,-34,-47,-42,-8,-30
-6,-9,-2,8,-1,-5,-3,-35,-48,-43,-9,-30
-7,-9,-2,8,-2,-5,-3,-35,-48,-43,-9,-31
-7,-9,-2,9,-2,-6,-3,-35,-48,-44,-10,-31
-7,-9,-2,8,-2,-6,-3,-35,-48,-44,-10,-32
-7,-9,-2,8,-2,-6,-3,-35,-48,-44,-11,-32
-8,-9,-1,8,-3,-6,-3,-35,-49,-44,-11,-32
-8,-9,-1,8,-3,-6,-2,-36,-49,-44,-11,-32
-7,-9,-1,8,-2,-6,-2,-36,-49,-45,-11,-32
-7,-9,-2,9,-2,-6,-3,-36,-50,-45,-11,-33
-7,-9,-2,8,-2,-6,-3,-36,-50,-45,-11,-33
-6,-8,-3,7,-2,-6,-4,-36,-50,-45,-11,-33
-6,-9,-4,7,-1,-7,-4,-36,-50,-46,-12,-33
-5,-10,-5,7,-1,-8,-4,-36,-50,-46,-12,-34
-6,-10,-4,7,-1,-7,-3,-36,-50,-46,-12,-34
-6,-9,-3,7,-2,-6,-2,-35,-49,-45,-12,-33
-7,-9,-2,8,-2,-5,-2,-34,-48,-44,-12,-32
-7,-9,-2,8,-2,-5,-3,-34,-49,-45,-12,-33
-7,-9,-2,8,-2,-5,-3,-35,-49,-45,-13,-33
-7,-9,-2,8,-2,-5,-3,-35,-49,-45,-13,-34
-7,-9,-2,8,-3,-5,-3,-34,-49,-45,-13,-34
-8,-9,-1,8,-3,-5,-3,-33,-48,-45,-13,-34
-8,-9,-1,8,-3,-6,-3,-33,-48,-45,-13,-34
-7,-9,-2,8,-2,-6,-3,-33,-48,-45,-13,-34
-7,-9,-2,8,-2,-6,-3,-33,-48,-45,-13,-34
-6,-8,-2,8,-1,-5,-2,-32,-47,-44,-13,-33
-5,-7,-2,7,-1,-5,-2,-32,-46,-44,-13,-33
-6,-8,-2,8,-2,-5,-1,-31,-46,-44,-12,-33
-8,-9,-2,9,-3,-6,-1,-31,-46,-44,-12,-33
-8,-10,-2,9,-3,-6,-1,-31,-46,-44,-12,-33
-7,-9,-3,8,-2,-6,-1,-31,-46,-44,-12,-33
-6,-8,-3,7,-1,-6,-1,-30,-45,-43,-12,-33
-6,-7,-1,6,-2,-4,0,-29,-45,-43,-12,-33
-8,-7,0,7,-4,-3,0,-29,-44,-43,-12,-33
-8,-7,0,8,-4,-4,0,-30,-44,-43,-12,-34
-8,-8,0,8,-4,-4,0,-30,-44,-43,-12,-34
-8,-8,0,8,-4,-4,-1,-30,-44,-43,-12,-35
-8,-8,-1,8,-3,-4,-1,-30,-44,-43,-13,-35
-7,-8,-1,7,-3,-4,-1,-30,-44,-43,-13,-35
-6,-7,0,6,-2,-4,-1,-30,-44,-42,-12,-34
-6,-6,0,6,-2,-3,0,-29,-43,-42,-12,-34
-6,-6,0,6,-2,-4,0,-29,-43,-42,-12,-34
-6,-7,-1,7,-2,-4,0,-29,-44,-42,-12,-35
-7,-7,0,8,-3,-4,0,-29,-44,-42,-12,-35
-7,-7,0,8,-3,-4,0,-29,-44,-42,-11,-34
-7,-7,0,7,-3,-4,0,-29,-43,-42,-11,-34
-8,-7,1,7,-3,-3,0,-29,-43,-42,-10,-34
-8,-6,1,7,-4,-2,0,-29,-43,-41,-10,-34
-8,-6,1,6,-4,-2,0,-29,-44,-41,-10,-34
-8,-7,1,6,-4,-2,0,-30,-44,-42,-10,-35
-8,-7,0,7,-4,-3,0,-30,-44,-42,-10,-35
-8,-7,0,7,-4,-3,-1,-31,-44,-42,-10,-35
-8,-7,1,7,-4,-3,0,-30,-44,-42,-10,-34
-9,-6,2,7,-6,-2,0,-30,-44,-42,-9,-33
-9,-6,3,7,-6,-2,1,-29,-44,-42,-9,-33
-8,-6,2,6,-5,-2,1,-29,-44,-42,-9,-33
-7,-5,2,6,-4,-2,2,-29,-44,-42,-9,-33
-7,-6,1,7,-4,-3,2,-30,-44,-42,-9,-33
-8,-7,1,7,-5,-3,2,-30,-44,-42,-9,-33
-8,-6,1,7,-5,-3,2,-30,-44,-41,-9,-33
-8,-6,1,7,-5,-3,2,-30,-44,-41,-8,-33
-8,-6,2,7,-5,-3,2,-30,-44,-42,-8,-33
-9,-6,2,8,-6,-3,1,-30,-45,-42,-8,-33
-8,-6,2,7,-5,-3,1,-31,-45,-42,-8,-33
-7,-5,2,6,-4,-2,1,-32,-45,-43,-8,-33
-6,-4,2,5,-3,-1,1,-32,-45,-43,-8,-33
-7,-4,3,5,-4,0,1,-32,-45,-43,-8,-33
-9,-5,3,6,-5,0,1,-32,-45,-43,-9,-33
-9,-5,3,7,-6,-1,1,-32,-45,-43,-9,-33
-9,-6,2,7,-6,-2,1,-32,-45,-43,-9,-33
-9,-6,1,7,-5,-3,0,-33,-46,-43,-10,-33
-8,-7,0,7,-4,-4,0,-34,-47,-44,-11,-34
-6,-6,0,6,-3,-4,0,-34,-47,-45,-11,-34
-5,-5,0,5,-2,-3,1,-34,-47,-45,-11,-34
-5,-5,1,5,-3,-3,1,-34,-47,-45,-11,-34
-7,-5,2,7,-5,-2,2,-33,-47,-44,-11,-33
-9,-5,3,8,-6,-2,1,-33,-47,-44,-10,-33
-8,-5,2,7,-6,-2,1,-34,-47,-44,-10,-33
-7,-5,1,7,-5,-3,1,-34,-47,-44,-10,-33
-7,-6,1,7,-5,-2,1,-34,-47,-43,-10,-32
-8,-6,2,7,-5,-2,2,-34,-47,-43,-10,-32
-9,-6,3,7,-6,-1,2,-34,-47,-43,-10,-32
-7,-6,2,6,-5,-2,2,-34,-48,-44,-10,-32
-6,-5,1,6,-3,-3,1,-35,-48,-44,-11,-32
-6,-5,1,6,-4,-3,0,-35,-48,-45,-12,-33
-8,-6,2,7,-5,-2,0,-34,-48,-44,-12,-32
-9,-6,3,8,-6,-2,0,-34,-48,-44,-12,-32
-8,-6,2,8,-5,-3,0,-35,-48,-44,-12,-33
-8,-6,1,8,-5,-3,0,-35,-49,-45,-13,-33
-9,-6,2,8,-5,-2,1,-35,-48,-44,-12,-33
-9,-6,3,8,-6,-2,1,-35,-48,-44,-12,-33
-8,-6,3,7,-5,-2,1,-35,-47,-43,-12,-33
-7,-5,2,7,-4,-2,1,-35,-47,-43,-12,-33
-7,-5,1,7,-4,-2,2,-35,-47,-43,-12,-33
-7,-5,1,6,-4,-2,3,-35,-47,-43,-12,-33
-7,-4,3,6,-5,-1,4,-34,-47,-43,-12,-33
-7,-3,4,6,-6,0,5,-34,-47,-43,-12,-32
-7,-3,4,5,-5,0,5,-34,-46,-42,-12,-31
-6,-3,4,5,-5,0,4,-34,-46,-42,-11,-31
-6,-2,4,5,-5,1,4,-34,-46,-41,-11,-31
-6,-1,5,4,-6,1,5,-33,-45,-41,-10,-30
-6,0,5,3,-5,1,5,-33,-44,-40,-10,-30
-5,0,4,2,-5,1,6,-32,-44,-40,-9,-30
-5,0,4,2,-5,1,6,-32,-44,-40,-9,-30
-5,0,5,3,-5,2,6,-32,-43,-39,-9,-29
-6,0,6,3,-6,2,6,-32,-43,-39,-9,-29
-6,0,6,4,-6,2,6,-31,-43,-39,-9,-29
-5,0,6,3,-6,2,6,-31,-43,-38,-9,-29
-3,2,6,0,-5,3,7,-30,-42,-37,-8,-28
-3,3,7,0,-5,4,8,-30,-41,-36,-7,-27
-3,4,8,0,-6,5,6,-30,-40,-36,-7,-26
-2,5,8,-1,-5,5,5,-31,-41,-36,-7,-26
-1,5,7,-2,-4,6,3,-32,-42,-36,-7,-25
0,5,6,-3,-3,6,1,-34,-43,-37,-7,-25
0,5,6,-3,-2,6,0,-35,-43,-37,-7,-26
0,5,6,-3,-2,6,-1,-36,-44,-38,-7,-26
0,6,6,-3,-2,6,-2,-36,-44,-38,-7,-26
1,6,5,-3,-2,6,-3,-37,-45,-38,-7,-26
1,6,5,-3,-2,5,-4,-38,-45,-38,-7,-27
1,6,5,-3,-2,5,-4,-38,-45,-38,-7,-26
1,6,5,-3,-2,6,-4,-37,-45,-38,-6,-25
0,6,6,-2,-3,6,-3,-37,-44,-37,-5,-24
-1,6,8,-2,-4,7,-3,-36,-44,-36,-4,-23
0,6,7,-3,-3,6,-3,-36,-44,-36,-4,-23
1,6,6,-3,-1,5,-3,-36,-44,-36,-4,-23
0,5,5,-2,-2,4,-4,-37,-45,-37,-5,-24
0,4,5,-2,-2,4,-4,-37,-45,-38,-5,-25
0,4,4,-2,-2,3,-4,-38,-46,-38,-5,-26
0,3,3,-1,-1,2,-4,-39,-48,-39,-6,-26
0,2,2,0,0,1,-5,-40,-49,-40,-6,-27
0,1,1,0,0,0,-5,-40,-49,-40,-6,-27
0,0,1,0,0,0,-4,-40,-49,-40,-6,-27
-1,0,1,0,0,0,-4,-39,-49,-40,-5,-27
-1,0,1,0,0,0,-3,-38,-48,-40,-5,-27
-1,-1,0,1,0,-1,-2,-37,-48,-40,-5,-27
0,-1,-1,1,0,-2,-2,-37,-48,-40,-4,-27
0,-1,-2,0,1,-2,-2,-36,-47,-39,-3,-27
1,-2,-3,0,2,-3,-1,-36,-47,-38,-3,-27
1,-3,-4,1,3,-4,-1,-36,-47,-38,-3,-27
-1,-5,-3,3,2,-5,0,-35,-46,-38,-3,-28
-3,-6,-3,4,0,-5,0,-35,-46,-39,-3,-28
-4,-7,-3,5,0,-6,0,-35,-47,-40,-4,-29
-6,-8,-3,6,-1,-6,0,-35,-47,-41,-5,-30
-7,-9,-3,7,-2,-6,1,-35,-48,-42,-5,-31
-8,-11,-3,9,-2,-6,1,-36,-49,-43,-6,-32
-10,-13,-4,11,-3,-8,0,-37,-50,-44,-7,-33
-11,-14,-3,13,-3,-9,0,-38,-51,-45,-8,-34
-12,-14,-2,13,-4,-8,0,-38,-52,-46,-9,-34
-10,-13,-2,12,-3,-8,1,-38,-52,-46,-9,-34
-8,-11,-3,10,-2,-7,1,-38,-52,-46,-9,-35
-7,-11,-3,9,-2,-7,1,-38,-52,-46,-9,-35
-7,-10,-3,9,-2,-6,1,-38,-52,-46,-9,-35
-8,-10,-2,9,-3,-6,1,-38,-52,-46,-9,-35
-9,-9,-1,9,-4,-5,2,-38,-51,-46,-8,-34
-8,-8,0,8,-4,-4,2,-37,-50,-45,-7,-33
-9,-7,2,8,-5,-2,3,-36,-49,-44,-6,-33
-10,-8,3,9,-5,-3,3,-36,-49,-44,-6,-33
-10,-10,1,10,-5,-5,2,-36,-50,-45,-6,-33
-11,-11,0,11,-4,-6,2,-36,-51,-45,-6,-33
-11,-12,-1,12,-4,-7,2,-36,-51,-45,-6,-33
-11,-13,-2,12,-4,-8,2,-36,-51,-45,-7,-33
-10,-13,-3,12,-4,-8,2,-36,-51,-45,-7,-33
-9,-13,-3,11,-3,-8,3,-35,-50,-44,-7,-32
-9,-11,-2,10,-3,-7,4,-32,-47,-42,-5,-31
-8,-11,-1,10,-3,-6,6,-27,-42,-39,-3,-30
-8,-10,-1,10,-3,-6,8,-22,-37,-35,-1,-29
-9,-10,0,10,-4,-5,10,-17,-31,-30,0,-28
-10,-9,1,9,-5,-4,9,-17,-27,-26,3,-26
-8,-6,2,7,-5,-2,5,-21,-26,-23,5,-23
-6,-3,2,4,-4,0,-2,-31,-27,-21,8,-21
-4,-1,2,3,-3,0,-13,-47,-31,-19,10,-19
-4,-1,2,3,-3,0,-27,-65,-38,-18,13,-17
-3,0,2,2,-2,1,-43,-85,-44,-17,16,-15
0,2,2,-1,0,2,-60,-103,-50,-14,19,-11
4,5,1,-5,2,3,-76,-117,-53,-9,24,-7
9,8,0,-9,5,4,-90,-127,-54,-3,29,-2
14,12,-2,-13,9,5,-102,-134,-55,3,36,3
21,15,-5,-18,13,5,-114,-137,-55,10,43,10
27,20,-7,-23,17,6,-124,-140,-55,17,51,17
32,25,-8,-28,20,8,-134,-142,-55,22,58,24
35,27,-8,-31,21,9,-145,-146,-56,25,63,30
38,30,-8,-34,23,11,-154,-151,-59,27,67,35
42,35,-6,-38,24,15,-161,-154,-61,28,71,40
43,43,0,-43,22,21,-166,-156,-63,28,75,46
41,49,8,-44,16,29,-169,-160,-65,27,77,51
36,54,18,-45,9,36,-170,-163,-68,22,77,54
31,58,27,-45,2,43,-167,-164,-70,16,74,53
25,60,35,-43,-4,48,-159,-159,-68,10,70,50
19,60,41,-39,-11,50,-146,-147,-61,7,65,44
13,56,43,-34,-15,49,-130,-129,-49,7,59,36
9,50,41,-29,-16,46,-112,-108,-35,9,54,28
4,43,38,-23,-17,41,-93,-85,-20,13,49,19
0,36,36,-18,-18,37,-73,-62,-4,19,45,12
-2,31,34,-14,-18,32,-56,-40,10,25,44,7
-3,27,31,-12,-17,29,-42,-23,23,31,43,3
-3,24,28,-10,-16,26,-31,-9,32,36,43,1
-4,21,25,-9,-15,23,-23,1,39,40,43,0
-4,17,21,-7,-13,19,-16,8,45,42,43,-2
-3,14,16,-6,-10,15,-11,15,49,44,43,-4
-1,11,12,-5,-6,12,-6,22,54,46,44,-5
0,9,9,-4,-4,9,0,28,58,49,44,-5
0,6,6,-3,-3,6,4,34,62,51,45,-5
-1,2,3,-1,-2,3,8,39,64,53,46,-5
-1,0,0,0,0,0,11,43,66,54,46,-5
-1,-2,-1,1,0,-2,12,45,67,55,46,-5
-1,-3,-2,2,0,-4,13,47,69,56,47,-5
-1,-4,-3,2,1,-4,14,49,70,56,48,-4
0,-5,-5,3,2,-5,15,50,71,56,48,-5
0,-6,-7,3,3,-6,16,50,70,55,48,-5
1,-6,-8,2,5,-7,17,51,70,55,48,-6
1,-6,-7,3,5,-6,19,52,70,55,49,-6
-1,-7,-6,4,3,-6,20,53,70,55,49,-6
-1,-7,-6,5,2,-7,20,54,70,55,49,-6
0,-7,-7,4,3,-7,20,54,71,55,49,-6
0,-7,-7,3,4,-7,21,55,72,56,50,-6
0,-6,-6,3,3,-7,22,57,73,57,51,-5
0,-6,-6,3,3,-6,23,58,74,58,52,-5
1,-6,-8,2,5,-7,23,59,75,58,53,-5
3,-6,-9,1,6,-7,24,59,75,58,53,-5
3,-6,-9,1,6,-7,24,60,75,58,53,-5
3,-6,-9,2,6,-8,24,60,75,58,53,-5
3,-6,-9,2,6,-8,23,60,75,58,52,-6
3,-6,-9,2,6,-8,23,60,76,58,52,-6
3,-6,-9,2,6,-8,23,61,77,59,53,-6
2,-7,-9,3,6,-8,23,62,77,59,53,-6
0,-8,-8,4,5,-8,24,63,78,60,54,-6
0,-8,-8,4,4,-8,24,64,79,60,54,-6
1,-7,-9,3,5,-8,23,64,79,61,54,-6
2,-7,-10,3,6,-9,23,65,80,62,54,-5
2,-8,-10,3,6,-9,23,65,81,62,55,-5
0,-9,-9,4,5,-9,23,66,81,63,56,-4
0,-9,-8,5,4,-9,24,67,82,64,57,-3
0,-8,-8,4,4,-9,24,68,84,65,58,-3
2,-7,-9,2,6,-8,25,70,85,66,59,-2
4,-6,-9,1,7,-8,25,71,86,67,59,-2
4,-6,-9,1,7,-8,26,72,87,67,59,-2
3,-7,-9,2,6,-8,26,72,87,67,59,-3
2,-8,-10,3,6,-9,26,73,87,67,59,-3
3,-8,-11,3,7,-10,26,73,88,67,59,-4
3,-9,-12,3,7,-10,26,74,88,67,59,-5
2,-9,-12,4,7,-11,27,75,89,68,59,-5
2,-9,-12,4,7,-11,27,76,91,69,59,-5
2,-9,-11,3,7,-11,28,77,92,71,60,-4
3,-8,-11,3,7,-10,29,79,94,72,60,-4
3,-8,-11,3,7,-10,29,80,95,72,61,-3
3,-8,-11,2,7,-9,30,81,95,73,61,-3
4,-8,-11,2,7,-9,29,81,95,73,61,-3
4,-7,-12,1,8,-9,29,82,96,73,61,-3
5,-7,-12,1,8,-9,28,82,96,74,61,-4
6,-6,-12,0,9,-9,28,83,97,74,61,-4
6,-6,-12,0,9,-9,28,84,97,75,60,-4
4,-7,-11,1,8,-9,29,86,98,75,60,-3
4,-6,-11,1,8,-9,30,88,100,76,61,-2
5,-5,-11,0,9,-8,31,89,101,77,61,-2
6,-5,-11,0,9,-8,31,90,102,78,61,-1
5,-5,-10,0,8,-8,32,91,103,79,61,-1
3,-6,-9,2,7,-8,32,92,104,80,61,0
2,-7,-10,3,6,-9,32,92,104,80,60,0
2,-8,-11,3,7,-10,31,93,104,79,60,0
2,-8,-11,3,7,-10,31,94,105,79,59,0
3,-7,-10,3,7,-9,32,95,106,80,60,1
3,-6,-10,1,7,-8,33,97,108,82,60,2
5,-4,-10,0,8,-8,35,99,110,83,61,2
8,-3,-12,-2,10,-8,36,100,111,83,61,3
10,-2,-13,-3,11,-8,36,101,111,84,61,3
10,-3,-13,-3,12,-8,36,102,112,85,61,3
9,-4,-13,-2,11,-8,36,103,113,86,62,4
8,-4,-12,-1,11,-8,36,104,114,86,62,4
8,-3,-12,-2,11,-8,36,105,115,87,63,5
9,-2,-11,-3,11,-7,37,107,116,87,63,6
9,-1,-11,-4,11,-6,37,108,117,88,63,7
10,0,-10,-5,10,-5,38,110,118,89,63,7
10,0,-10,-5,10,-5,39,111,119,89,63,8
9,0,-9,-5,9,-4,40,112,120,90,64,8
8,0,-9,-4,8,-4,40,113,120,91,64,9
8,-1,-9,-3,9,-5,40,113,120,92,64,9
9,0,-10,-4,10,-5,40,114,121,92,64,9
10,0,-10,-5,11,-5,41,115,121,92,65,10
12,1,-10,-6,12,-5,41,116,122,92,65,10
12,1,-9,-6,11,-5,42,116,122,92,64,10
10,1,-8,-6,10,-4,42,116,122,92,64,11
9,1,-7,-5,8,-3,42,115,121,92,64,11
8,2,-7,-5,8,-3,42,115,120,91,63,11
8,2,-7,-5,8,-2,42,114,119,91,63,11
10,3,-7,-6,9,-2,42,113,118,90,63,11
11,4,-7,-7,9,-1,42,113,117,89,63,11
10,4,-6,-7,8,-1,42,112,116,88,62,11
9,4,-4,-6,7,0,42,112,115,87,62,11
9,5,-3,-7,7,0,42,111,114,86,61,11
10,6,-4,-8,7,0,41,109,112,84,61,10
11,6,-5,-8,8,0,40,106,110,82,60,10
10,6,-5,-8,8,0,40,104,107,81,59,10
10,6,-4,-8,7,1,40,102,105,79,59,10
10,6,-3,-7,7,1,40,100,102,77,58,10
8,5,-2,-6,6,1,40,98,100,76,58,10
7,5,-1,-5,5,1,40,97,98,75,58,11
7,5,0,-5,4,2,40,95,96,73,58,11
6,5,0,-5,3,2,39,92,94,71,57,11
6,6,0,-6,3,2,38,89,91,69,57,11
6,6,0,-6,3,3,37,85,87,66,56,11
7,7,0,-7,3,3,35,81,83,63,55,10
7,8,1,-7,3,4,34,77,79,59,53,10
6,7,1,-6,2,4,33,74,75,56,51,9
5,6,2,-5,1,4,33,71,71,53,49,9
4,5,2,-4,1,4,32,67,67,49,47,8
3,5,2,-4,0,4,30,63,63,46,46,7
2,5,3,-4,0,4,29,59,59,43,45,7
1,7,5,-4,-1,5,28,55,55,40,44,7
1,8,6,-4,-2,6,27,51,50,36,42,7
2,8,6,-4,-2,6,26,46,44,32,40,7
2,8,6,-4,-2,6,24,41,39,28,37,6
1,7,7,-4,-2,6,22,37,35,24,35,5
0,6,7,-3,-3,6,20,33,30,21,32,4
0,6,6,-3,-2,6,18,28,25,17,30,2
1,6,5,-4,-1,5,16,24,20,13,28,1
1,6,5,-3,-1,5,14,19,16,9,27,0
0,5,5,-2,-2,5,13,15,12,6,25,0
-1,5,6,-1,-3,5,13,12,7,3,24,0
-2,4,6,0,-4,5,12,8,3,0,22,0
-2,4,6,0,-4,4,11,5,-1,-3,20,-1
-2,3,5,0,-4,4,9,1,-5,-7,18,-2
-3,2,5,0,-4,3,8,-3,-9,-10,15,-3
-5,0,4,2,-4,2,6,-7,-13,-13,13,-4
-6,-2,3,3,-4,0,5,-10,-17,-16,11,-5
-6,-3,3,5,-4,0,3,-14,-20,-19,10,-6
-7,-4,3,6,-5,0,2,-16,-23,-21,8,-7
-7,-3,4,5,-5,0,2,-18,-26,-23,7,-8
-6,-1,4,4,-5,0,1,-20,-28,-25,5,-8
-5,0,4,3,-4,1,1,-21,-30,-27,3,-9
-5,-1,4,3,-4,0,1,-23,-32,-29,2,-9
-6,-2,3,4,-4,0,0,-25,-34,-31,0,-9
-6,-3,3,5,-4,-1,-1,-27,-36,-32,0,-10
-6,-3,2,5,-4,-1,-1,-29,-38,-33,-1,-10
-6,-4,2,5,-4,-1,-2,-30,-39,-34,-1,-10
-6,-5,0,6,-3,-3,-2,-31,-41,-35,-2,-10
-6,-6,0,6,-3,-4,-2,-32,-42,-36,-2,-10
-6,-6,-1,7,-3,-4,-2,-33,-43,-37,-3,-10
-6,-6,-1,7,-3,-4,-3,-34,-44,-38,-4,-11
-7,-7,0,7,-3,-4,-3,-34,-45,-39,-5,-12
-8,-7,1,8,-4,-3,-3,-34,-46,-39,-6,-12
-8,-6,2,8,-5,-2,-2,-34,-46,-40,-6,-12
-7,-5,1,7,-4,-2,-2,-35,-46,-40,-6,-13
-7,-6,1,7,-4,-2,-2,-35,-47,-41,-7,-13
-8,-7,0,7,-4,-3,-3,-36,-48,-42,-8,-14
-8,-8,-1,8,-3,-5,-3,-36,-49,-43,-9,-14
-7,-9,-2,8,-1,-6,-4,-37,-50,-44,-10,-14
-6,-8,-2,7,-1,-6,-4,-37,-50,-44,-10,-13
-7,-7,0,7,-3,-3,-3,-36,-49,-42,-9,-12
-7,-5,2,6,-4,-2,-2,-35,-48,-42,-9,-11
-7,-5,2,6,-4,-1,-3,-36,-48,-42,-9,-11
-7,-6,2,6,-5,-2,-3,-36,-48,-43,-10,-11
-8,-7,2,8,-5,-3,-4,-36,-49,-43,-10,-12
-9,-8,1,9,-5,-3,-4,-36,-50,-43,-10,-12
-10,-9,0,9,-5,-4,-4,-36,-50,-43,-10,-12
-10,-9,0,10,-4,-5,-4,-36,-50,-44,-10,-12
-9,-9,0,9,-4,-5,-4,-36,-50,-44,-10,-12
-7,-8,-2,8,-2,-6,-4,-36,-50,-44,-10,-12
-6,-9,-3,8,-1,-7,-4,-36,-50,-44,-10,-12
-7,-10,-3,9,-2,-7,-4,-36,-50,-44,-10,-11
-8,-10,-2,10,-3,-6,-4,-35,-49,-44,-10,-10
-9,-9,-1,9,-4,-5,-3,-34,-48,-43,-10,-10
-10,-8,1,9,-5,-4,-3,-33,-47,-42,-10,-9
-10,-8,2,9,-5,-3,-3,-33,-47,-42,-10,-9
-10,-8,1,9,-5,-3,-4,-34,-48,-42,-11,-10
-10,-8,1,9,-5,-4,-4,-35,-48,-43,-12,-10
-10,-9,0,9,-5,-4,-5,-35,-48,-43,-12,-10
-10,-9,0,10,-5,-5,-5,-35,-48,-43,-13,-10
-10,-10,0,10,-5,-5,-5,-35,-48,-43,-13,-10
-9,-10,0,10,-4,-5,-4,-35,-48,-43,-13,-10
-9,-9,0,9,-4,-5,-4,-34,-47,-43,-14,-10
-9,-9,0,9,-4,-4,-4,-34,-47,-43,-14,-10
-9,-8,0,8,-4,-4,-3,-33,-46,-42,-14,-9
-8,-6,1,7,-4,-3,-3,-33,-46,-42,-13,-9
-8,-5,2,7,-5,-2,-3,-32,-45,-41,-13,-8
-9,-6,2,8,-6,-2,-3,-32,-45,-41,-13,-8
-10,-7,2,9,-6,-2,-3,-32,-45,-42,-13,-9
-9,-7,2,8,-5,-2,-3,-32,-45,-41,-13,-9
-8,-5,3,6,-5,-1,-3,-31,-44,-40,-13,-8
-7,-4,3,5,-4,-1,-2,-31,-44,-40,-13,-8
-7,-5,2,6,-4,-2,-3,-31,-44,-41,-14,-8
-8,-6,2,7,-4,-3,-3,-31,-44,-41,-14,-9
-10,-7,2,8,-5,-3,-3,-32,-44,-41,-14,-9
-11,-8,3,10,-6,-3,-3,-32,-44,-41,-14,-8
-11,-8,3,10,-6,-3,-2,-31,-43,-40,-13,-8
-10,-7,2,9,-5,-2,-2,-31,-43,-40,-12,-8
-8,-6,2,8,-4,-2,-2,-31,-43,-40,-12,-8
-8,-6,2,7,-4,-2,-2,-31,-44,-40,-11,-8
-8,-6,2,7,-5,-2,-2,-31,-44,-40,-10,-7
-9,-5,4,7,-6,-1,-2,-31,-43,-39,-9,-6
-10,-5,4,7,-6,0,-2,-31,-42,-38,-7,-5
-9,-5,3,7,-6,-1,-2,-31,-43,-38,-7,-5
-8,-5,2,7,-5,-1,-3,-32,-43,-39,-7,-6
-9,-6,3,8,-6,-1,-2,-31,-43,-40,-7,-6
-9,-6,3,8,-7,-1,-2,-31,-43,-40,-7,-5
-9,-6,3,8,-6,-1,-2,-31,-43,-40,-7,-5
-9,-6,3,8,-6,-1,-2,-31,-44,-40,-7,-5
-11,-6,4,9,-7,-1,-2,-31,-44,-40,-7,-5
-11,-6,4,9,-7,-1,-2,-32,-44,-40,-7,-5
-10,-6,3,8,-6,-2,-2,-32,-45,-41,-7,-5
-10,-6,3,8,-6,-2,-1,-32,-45,-41,-7,-5
-10,-7,2,9,-6,-2,-1,-32,-46,-42,-7,-5
-11,-8,2,10,-6,-3,-2,-33,-46,-42,-7,-5
-14,-9,4,11,-8,-2,-2,-33,-46,-42,-7,-5
-15,-8,5,11,-9,-1,-2,-33,-46,-42,-7,-4
-13,-7,5,10,-9,-1,-2,-33,-46,-42,-7,-4
-12,-6,5,9,-8,-1,-2,-32,-46,-41,-7,-3
-11,-5,4,8,-7,0,-1,-32,-46,-41,-7,-3
-10,-5,4,7,-7,0,-1,-32,-46,-41,-7,-3
-9,-5,4,7,-7,0,-1,-32,-46,-41,-6,-2
-9,-4,4,6,-7,0,-1,-32,-46,-41,-5,-2
-9,-4,4,6,-7,0,-1,-32,-46,-41,-5,-1
-10,-5,4,7,-7,0,-2,-32,-47,-41,-4,-2
-12,-7,4,10,-8,-1,-3,-33,-48,-42,-4,-2
-14,-9,5,12,-9,-2,-4,-34,-48,-43,-4,-3
-15,-10,5,13,-9,-3,-5,-34,-49,-44,-4,-3
-14,-10,4,12,-9,-3,-5,-34,-49,-44,-4,-3
-13,-9,3,11,-8,-3,-5,-34,-49,-44,-4,-3
-12,-8,3,10,-7,-3,-5,-34,-49,-44,-4,-2
-12,-9,3,11,-7,-3,-6,-35,-49,-45,-4,-2
-13,-9,3,11,-7,-3,-6,-35,-49,-45,-5,-2
-12,-8,3,10,-7,-3,-5,-35,-49,-45,-5,-2
-11,-6,4,8,-6,-1,-5,-35,-49,-45,-5,-2
-10,-5,4,7,-6,0,-5,-35,-50,-45,-5,-2
-10,-5,5,7,-7,0,-5,-36,-50,-46,-5,-2
-11,-5,5,7,-8,0,-5,-36,-50,-45,-5,-2
-10,-4,5,7,-8,0,-5,-36,-50,-45,-5,-2
-9,-4,5,6,-7,0,-5,-36,-50,-46,-6,-2
-8,-3,4,6,-6,0,-5,-37,-51,-46,-6,-2
-9,-3,5,6,-7,0,-5,-36,-50,-45,-6,-1
-10,-4,5,7,-7,0,-5,-36,-50,-45,-6,-1
-10,-5,4,8,-7,0,-6,-36,-51,-46,-7,-1
-11,-6,4,9,-7,-1,-6,-37,-51,-46,-8,-1
-12,-7,4,9,-8,-1,-6,-37,-51,-46,-8,-1
-13,-7,5,10,-8,-1,-6,-37,-51,-45,-8,0
-13,-8,5,10,-9,-1,-5,-37,-51,-45,-8,0
-13,-7,6,10,-9,-1,-5,-37,-50,-45,-7,0
-13,-5,7,9,-9,0,-4,-36,-49,-44,-7,1
-13,-4,8,8,-9,2,-4,-36,-49,-43,-7,1
-11,-2,8,6,-8,3,-3,-36,-48,-43,-7,2
-10,-1,8,5,-8,3,-3,-36,-48,-42,-8,2
-10,0,10,5,-10,4,-3,-36,-48,-42,-8,2
-10,0,11,5,-11,5,-2,-35,-47,-42,-9,2
-9,2,11,3,-10,6,-1,-35,-47,-42,-10,3
-8,3,11,2,-9,7,-1,-35,-47,-42,-11,3
-7,4,11,1,-9,7,-1,-35,-47,-42,-12,3
-7,4,10,1,-8,7,-1,-35,-47,-42,-13,3
-7,3,10,1,-8,7,-1,-35,-46,-41,-13,4
-8,3,11,2,-9,7,0,-35,-45,-40,-13,5
-10,3,12,3,-10,7,0,-35,-45,-39,-13,6
-10,3,13,3,-11,8,-1,-35,-45,-39,-13,7
-8,5,12,1,-9,8,-3,-37,-45,-39,-13,8
-5,7,12,0,-8,8,-5,-38,-45,-40,-14,8
-5,7,12,0,-8,8,-7,-39,-45,-40,-14,8
-6,5,12,1,-9,8,-9,-40,-46,-40,-16,7
-9,3,12,3,-10,7,-9,-41,-47,-41,-16,7
-10,2,12,4,-11,8,-10,-41,-48,-41,-17,8
-10,3,12,4,-11,8,-10,-42,-48,-41,-17,8
-8,4,12,2,-10,8,-11,-42,-47,-41,-17,8
-5,7,12,0,-8,9,-11,-41,-46,-40,-17,9
-2,9,12,-3,-7,10,-11,-41,-46,-40,-17,9
-1,9,11,-3,-6,9,-11,-40,-45,-40,-17,9
-1,9,11,-3,-5,9,-11,-40,-45,-39,-17,10
-1,9,10,-3,-5,9,-11,-39,-44,-38,-17,11
0,9,9,-4,-4,9,-11,-39,-44,-38,-16,11
0,8,8,-4,-3,9,-11,-39,-44,-37,-16,11
-1,7,8,-3,-4,8,-11,-40,-44,-37,-16,11
-2,6,8,-2,-4,7,-11,-40,-44,-37,-16,10
-3,6,8,-1,-5,6,-10,-41,-45,-38,-16,10
-3,5,8,0,-5,6,-10,-41,-45,-38,-16,9
-3,4,7,0,-5,5,-10,-41,-45,-39,-17,9
-3,3,7,0,-5,5,-10,-41,-45,-39,-17,9
-3,3,6,0,-4,4,-10,-41,-46,-39,-16,9
-3,2,6,0,-4,4,-10,-41,-46,-39,-16,8
-3,1,5,1,-3,3,-10,-40,-46,-40,-16,8
-3,-1,3,2,-3,1,-10,-40,-46,-40,-16,8
-3,-2,2,3,-2,0,-10,-39,-46,-40,-15,8
-4,-3,1,3,-2,-1,-9,-38,-45,-39,-14,8
-5,-3,2,4,-3,-1,-8,-37,-45,-39,-13,8
-6,-4,1,5,-3,-2,-7,-37,-45,-39,-13,7
-6,-5,0,5,-2,-3,-7,-38,-46,-40,-14,6
-7,-6,0,6,-3,-3,-7,-38,-46,-41,-14,5
-8,-6,2,7,-5,-2,-6,-38,-46,-41,-14,4
-10,-7,3,8,-6,-2,-5,-38,-46,-42,-14,4
-11,-8,2,9,-6,-3,-5,-38,-47,-43,-15,3
-11,-9,1,10,-6,-4,-5,-39,-48,-44,-15,2
-12,-10,1,11,-7,-4,-5,-39,-49,-44,-15,1
-13,-10,1,12,-7,-5,-5,-39,-50,-45,-15,1
-13,-11,1,13,-7,-5,-6,-40,-50,-45,-16,0
-14,-13,1,14,-7,-6,-6,-41,-51,-46,-16,0
-14,-14,0,14,-6,-7,-6,-41,-51,-47,-17,0
-13,-14,0,13,-6,-7,-6,-42,-50,-46,-16,1
-13,-14,0,13,-5,-7,-6,-42,-50,-46,-15,1
-12,-13,-1,12,-5,-7,-6,-43,-50,-46,-15,1
-12,-13,-1,12,-5,-7,-7,-44,-51,-46,-16,0
-13,-12,0,13,-6,-6,-6,-44,-51,-46,-16,0
-14,-11,1,13,-8,-5,-6,-44,-50,-46,-16,0
-13,-9,3,11,-8,-3,-6,-44,-49,-45,-16,0
-12,-8,3,10,-8,-2,-5,-44,-49,-46,-16,0
-14,-9,4,11,-9,-2,-5,-44,-49,-46,-16,0
-15,-11,3,13,-9,-3,-5,-44,-49,-46,-16,0
-15,-12,2,14,-8,-5,-5,-44,-49,-46,-16,0
-14,-13,0,14,-7,-6,-5,-44,-49,-45,-16,0
-13,-13,-1,14,-6,-7,-5,-43,-47,-44,-15,0
-12,-12,-1,13,-5,-7,-3,-40,-44,-42,-14,1
-11,-11,-1,11,-4,-6,-1,-36,-39,-38,-12,2
-9,-10,-1,9,-3,-5,1,-31,-33,-33,-9,4
-8,-9,0,8,-3,-4,2,-28,-28,-29,-7,6
-9,-7,2,8,-4,-2,1,-29,-25,-25,-5,8
-9,-5,4,7,-5,0,-3,-36,-24,-22,-2,11
-8,-3,4,6,-5,0,-12,-47,-27,-20,0,13
-6,-1,4,4,-4,1,-23,-64,-33,-19,2,16
-4,2,4,1,-4,3,-36,-82,-40,-18,5,19
-3,5,5,0,-4,5,-51,-100,-46,-15,8,23
-1,7,6,-3,-2,6,-68,-117,-52,-12,12,27
1,8,5,-5,-1,6,-83,-131,-55,-7,17,31
4,10,5,-7,0,7,-95,-141,-57,-1,23,37
8,13,4,-11,2,9,-106,-147,-58,5,30,44
13,16,3,-14,5,10,-117,-151,-58,12,36,50
18,21,2,-19,7,11,-128,-154,-59,18,43,57
23,27,3,-24,9,15,-137,-157,-59,23,49,63
25,33,6,-28,9,19,-145,-160,-60,27,54,70
28,38,8,-32,10,22,-153,-164,-61,29,59,75
30,42,10,-36,10,26,-158,-167,-62,30,62,80
31,47,14,-39,9,31,-163,-170,-65,28,63,83
31,52,20,-41,6,36,-166,-175,-70,23,62,85
29,57,28,-43,0,43,-166,-177,-73,16,58,85
23,60,36,-41,-6,48,-162,-176,-75,9,53,82
16,60,43,-37,-13,51,-153,-169,-72,3,46,75
10,58,46,-33,-17,52,-140,-156,-64,0,38,67
7,54,46,-30,-19,49,-124,-138,-51,0,31,58
3,48,43,-25,-19,45,-107,-117,-37,2,25,48
0,40,39,-19,-19,39,-89,-95,-21,8,21,40
-3,32,35,-14,-19,34,-72,-73,-5,15,19,34
-5,26,32,-10,-18,29,-57,-53,10,23,18,31
-6,22,28,-8,-17,25,-44,-36,23,31,18,29
-6,19,25,-6,-15,21,-34,-22,34,37,19,29
-6,17,22,-5,-13,18,-26,-12,42,42,20,28
-6,14,19,-3,-12,16,-20,-4,49,45,21,28
-5,12,16,-3,-10,14,-14,2,54,48,22,29
-3,11,13,-3,-8,12,-9,9,59,51,23,29
-2,9,10,-3,-6,9,-5,15,63,53,24,30
-1,6,7,-2,-4,6,-1,20,66,55,25,30
0,3,4,-1,-2,3,1,24,68,57,26,30
0,1,1,0,0,1,3,27,70,58,27,30
0,0,-1,0,1,-1,4,29,71,59,27,30
1,-1,-3,0,2,-2,5,30,72,59,28,30
1,-1,-3,0,3,-2,7,32,74,60,28,30
0,-1,-2,1,2,-2,8,33,75,60,29,31
-1,-3,-2,2,2,-2,9,34,75,59,29,30
-1,-4,-3,3,2,-3,9,35,74,59,29,30
-1,-4,-3,3,2,-4,10,36,74,59,29,30
0,-4,-3,2,2,-4,11,38,75,60,30,30
0,-3,-4,2,2,-4,11,39,76,60,30,30
1,-3,-6,1,4,-5,11,39,77,60,30,30
2,-4,-8,1,5,-6,11,39,76,60,29,30
2,-5,-8,2,5,-7,12,39,76,59,28,30
1,-5,-8,2,5,-7,12,40,77,60,28,30
1,-5,-8,2,5,-7,13,41,77,60,28,30
2,-5,-8,1,5,-7,13,42,77,60,28,29
2,-6,-7,2,5,-7,13,43,77,61,27,29
0,-6,-7,3,4,-7,13,43,77,61,27,29
0,-7,-7,3,3,-7,13,43,78,61,27,29
1,-6,-8,3,4,-7,13,43,79,61,27,29
2,-5,-9,2,6,-7,13,43,79,61,27,29
2,-5,-9,2,6,-7,13,44,80,62,27,29
1,-7,-9,3,6,-8,13,44,80,62,26,29
0,-9,-9,5,5,-9,12,44,80,63,25,28
-2,-9,-7,6,3,-9,12,45,80,63,25,28
-1,-7,-6,4,3,-7,13,47,81,64,25,28
1,-4,-6,1,4,-5,14,48,83,65,25,29
4,-2,-7,-1,5,-4,14,49,84,66,24,29
5,-1,-7,-2,6,-4,14,49,85,66,24,29
5,-1,-8,-1,7,-5,14,50,86,67,24,29
5,-2,-8,-1,7,-5,15,51,87,68,24,29
4,-4,-9,0,7,-6,16,52,88,69,25,30
3,-5,-9,0,7,-7,16,52,88,70,25,30
3,-6,-9,1,6,-7,16,53,89,70,25,30
4,-5,-9,0,7,-7,16,53,89,70,25,30
5,-5,-10,0,8,-8,15,54,89,70,25,31
5,-5,-10,0,8,-8,15,54,90,70,25,31
4,-5,-9,0,7,-8,16,55,91,71,26,32
4,-5,-9,0,7,-8,18,57,92,71,27,32
5,-6,-10,0,8,-9,18,58,92,71,28,32
4,-7,-11,1,8,-9,19,59,93,71,28,31
2,-8,-11,2,7,-9,19,59,94,72,28,31
2,-7,-11,1,7,-9,19,60,95,73,28,31
3,-6,-11,0,7,-8,19,62,96,74,29,32
4,-4,-10,0,7,-7,19,63,97,75,29,32
4,-3,-9,0,7,-7,19,64,98,76,29,32
4,-3,-9,0,7,-7,19,65,98,76,29,32
5,-3,-9,0,7,-7,19,66,98,76,29,32
5,-4,-9,0,8,-7,20,67,99,76,29,32
5,-3,-10,-1,8,-7,21,69,100,77,29,32
6,-2,-10,-2,9,-6,22,71,102,79,29,33
6,-2,-9,-2,8,-6,22,73,103,80,29,34
6,-3,-10,-1,8,-7,22,74,103,81,28,34
7,-3,-12,-1,10,-8,21,75,104,80,26,34
8,-3,-12,-1,10,-8,21,76,104,80,25,34
6,-4,-10,0,9,-8,22,77,105,81,24,35
5,-5,-10,0,8,-8,22,78,106,82,24,36
7,-4,-11,-1,9,-7,22,79,107,83,25,36
8,-2,-11,-3,10,-7,22,80,108,84,25,37
10,0,-10,-5,10,-5,23,82,110,86,25,38
10,1,-10,-6,10,-5,23,83,110,86,25,38
9,0,-10,-4,10,-5,22,83,111,86,24,37
8,-1,-10,-3,9,-6,22,84,111,86,23,37
8,0,-9,-4,9,-5,23,86,112,87,23,37
11,2,-9,-7,10,-4,25,88,114,88,24,38
13,4,-9,-8,11,-3,26,89,115,89,24,39
12,3,-9,-8,11,-4,26,90,115,89,25,39
10,2,-8,-6,9,-3,27,91,116,90,26,39
9,2,-8,-5,8,-3,29,92,117,91,27,39
10,2,-9,-6,9,-3,31,93,118,91,28,39
11,3,-9,-7,10,-3,33,93,118,92,28,39
12,3,-9,-7,11,-3,34,94,119,92,29,39
12,4,-8,-8,11,-3,34,94,119,92,30,39
13,5,-8,-9,11,-2,35,95,119,92,30,39
12,5,-7,-9,10,-2,35,95,119,92,30,40
11,5,-7,-8,9,-2,36,96,119,92,30,40
10,4,-7,-7,9,-2,36,96,119,92,30,40
9,3,-8,-6,9,-3,36,96,119,92,30,39
9,2,-8,-6,9,-3,36,96,118,92,29,39
10,3,-7,-6,9,-2,36,95,118,91,29,39
12,5,-6,-8,9,-1,36,95,117,91,29,39
13,7,-6,-10,10,0,36,94,117,90,29,39
14,8,-6,-11,10,0,36,93,116,90,28,39
13,8,-5,-11,9,1,36,93,115,89,28,40
10,8,-3,-10,7,2,36,92,114,88,28,40
9,8,-2,-8,6,2,36,92,113,86,28,40
9,8,-2,-8,6,2,36,90,111,85,27,40
10,9,-2,-9,6,3,35,89,109,83,27,40
11,9,-1,-10,7,3,34,87,107,82,26,40
11,9,-1,-10,7,4,33,86,105,80,25,39
11,10,-1,-11,7,4,33,84,103,78,24,38
11,11,0,-11,6,6,33,82,100,76,23,38
9,11,2,-10,4,6,33,80,98,74,22,37
7,11,2,-9,3,6,33,77,95,72,21,37
7,10,2,-8,3,6,32,75,92,69,20,36
6,10,3,-8,2,6,31,72,89,67,18,36
6,10,4,-7,1,6,30,69,85,64,17,35
5,9,4,-7,1,6,28,65,81,60,15,34
6,9,3,-7,2,6,27,62,77,56,12,33
6,10,3,-8,2,6,27,58,73,53,10,32
7,10,3,-9,2,6,26,56,69,50,9,31
6,11,4,-9,1,7,26,53,66,48,8,31
5,11,4,-8,0,7,25,50,62,46,6,31
6,11,4,-8,1,7,23,46,58,42,4,30
5,11,5,-8,0,7,23,42,53,38,2,29
2,11,7,-6,-1,8,22,39,49,35,0,29
1,11,8,-6,-2,9,22,35,45,31,-1,28
3,12,8,-7,-1,9,20,31,40,27,-4,27
4,12,8,-8,-1,10,18,27,36,23,-7,25
3,11,8,-7,-2,10,16,22,31,19,-10,23
2,11,8,-6,-3,9,14,18,26,15,-13,22
1,11,8,-6,-3,9,13,14,21,11,-16,21
1,11,8,-5,-2,9,12,10,16,8,-18,21
1,9,7,-4,-2,8,11,6,12,4,-20,20
-1,7,7,-2,-3,6,10,3,7,1,-22,19
-2,5,7,-1,-4,5,8,-1,3,-3,-24,18
-3,4,7,0,-4,4,7,-4,-1,-6,-26,17
-3,3,7,0,-4,4,6,-7,-5,-9,-28,16
-4,3,7,0,-5,4,5,-9,-7,-12,-30,16
-4,4,7,0,-5,4,5,-12,-10,-14,-32,15
-4,4,6,0,-5,4,4,-14,-13,-17,-34,14
-4,3,6,0,-5,4,3,-17,-16,-19,-36,12
-5,2,6,1,-5,3,2,-19,-19,-22,-38,11
-4,0,4,1,-4,1,2,-21,-22,-24,-40,10
-3,0,3,1,-2,1,1,-23,-24,-25,-41,9
-2,0,2,1,-1,0,1,-24,-26,-26,-42,9
-2,-1,1,2,-1,0,0,-26,-29,-28,-43,9
-3,-3,0,3,-2,-1,0,-28,-31,-31,-45,8
-4,-3,0,4,-2,-2,0,-29,-33,-33,-46,7
-4,-4,0,4,-2,-2,0,-31,-35,-35,-47,6
-5,-5,0,5,-2,-3,0,-32,-36,-36,-48,6
-5,-5,0,5,-2,-3,-1,-33,-37,-37,-48,6
-5,-4,0,4,-3,-2,-1,-33,-38,-37,-48,6
-6,-4,1,5,-4,-2,-2,-34,-38,-37,-48,6
-6,-4,1,5,-4,-2,-2,-35,-39,-38,-48,6
-6,-4,1,5,-3,-2,-3,-36,-40,-38,-48,6
-6,-4,1,5,-4,-2,-3,-36,-41,-39,-48,6
-7,-5,1,6,-4,-2,-3,-36,-41,-39,-48,6
-6,-5,0,6,-3,-3,-3,-36,-42,-40,-49,6
-7,-6,0,6,-3,-3,-3,-37,-43,-41,-49,5
-8,-7,0,7,-4,-4,-3,-37,-44,-42,-50,4
-7,-7,0,7,-3,-4,-3,-38,-45,-42,-51,3
-6,-6,0,6,-2,-4,-3,-38,-45,-43,-52,2
-6,-6,0,6,-3,-3,-3,-37,-45,-43,-52,1
-6,-6,0,6,-3,-3,-3,-37,-45,-42,-52,1
-6,-5,0,6,-3,-3,-2,-36,-44,-42,-51,2
-6,-5,0,6,-2,-3,-2,-35,-44,-41,-51,3
-6,-5,0,6,-2,-3,-2,-35,-44,-41,-50,3
-7,-6,0,6,-3,-3,-2,-35,-44,-42,-51,3
-7,-7,0,7,-3,-4,-2,-35,-44,-42,-52,3
-8,-9,-1,8,-3,-5,-2,-35,-45,-43,-52,2
-9,-10,-1,9,-4,-6,-3,-35,-45,-43,-52,2
-9,-11,-1,10,-4,-6,-3,-35,-45,-43,-51,2
-9,-11,-2,10,-4,-7,-3,-36,-46,-43,-51,2
-8,-10,-2,9,-3,-7,-3,-36,-46,-43,-51,2
-8,-9,-1,8,-3,-5,-3,-35,-45,-43,-50,3
-8,-8,0,8,-4,-4,-3,-34,-45,-42,-49,3
-8,-7,1,7,-5,-3,-2,-34,-44,-42,-48,4
-7,-7,0,6,-4,-3,-2,-33,-44,-41,-47,4
-6,-6,0,5,-3,-3,-1,-33,-43,-40,-46,5
-6,-7,-1,6,-2,-4,-1,-33,-42,-40,-45,5
-7,-8,-1,7,-2,-5,0,-33,-42,-40,-45,4
-7,-9,-1,7,-2,-5,0,-32,-42,-40,-45,4
-7,-9,-1,8,-2,-6,0,-32,-42,-40,-45,4
-8,-9,-1,8,-3,-6,-1,-32,-42,-41,-45,4
-8,-9,-2,8,-3,-6,-2,-32,-42,-41,-45,4
-6,-8,-2,7,-2,-6,-2,-32,-42,-40,-45,5
-5,-8,-2,6,-2,-6,-2,-32,-42,-40,-44,5
-6,-8,-1,7,-2,-5,-2,-32,-42,-40,-44,4
-8,-8,0,8,-4,-4,-2,-32,-42,-39,-43,4
-8,-7,1,8,-4,-4,-2,-31,-42,-39,-43,3
-8,-6,1,7,-4,-3,-2,-31,-41,-39,-43,3
-7,-5,2,6,-4,-2,-2,-30,-41,-39,-42,3
-7,-4,2,6,-4,-2,-2,-30,-41,-39,-42,3
-6,-5,1,6,-4,-2,-2,-30,-41,-40,-42,3
-6,-5,1,6,-3,-3,-2,-30,-41,-40,-41,3
-6,-6,1,6,-3,-3,-2,-30,-41,-39,-40,3
-7,-6,1,6,-3,-3,-2,-30,-40,-39,-38,3
-7,-6,0,7,-3,-3,-2,-29,-40,-38,-37,4
-7,-7,0,7,-3,-4,-2,-29,-40,-38,-36,4
-7,-8,-2,8,-2,-5,-2,-29,-40,-38,-35,4
-7,-8,-2,8,-1,-6,-2,-29,-40,-38,-34,4
-6,-8,-2,7,-1,-6,-2,-29,-40,-38,-33,4
-6,-8,-2,7,-2,-5,-2,-29,-40,-39,-33,3
-7,-8,-1,7,-3,-5,-1,-28,-40,-39,-32,2
-8,-8,0,8,-4,-4,-1,-28,-39,-38,-31,3
-8,-7,1,8,-5,-3,-1,-27,-39,-38,-30,4
-8,-7,1,7,-4,-3,-1,-27,-39,-38,-29,4
-7,-6,1,6,-4,-3,-1,-27,-39,-38,-28,5
-7,-5,1,6,-4,-3,0,-26,-39,-37,-27,6
-8,-5,3,6,-6,-2,0,-25,-39,-37,-26,7
-9,-5,3,7,-6,-1,1,-25,-38,-37,-25,7
-9,-5,3,7,-6,-2,0,-25,-39,-37,-25,6
-8,-5,2,6,-5,-2,0,-25,-39,-38,-25,6
-8,-6,1,7,-5,-3,0,-26,-40,-38,-25,5
-11,-8,2,9,-6,-3,-1,-26,-41,-39,-24,4
-13,-9,3,11,-8,-3,-2,-26,-42,-39,-23,4
-14,-9,4,11,-9,-3,-1,-26,-42,-39,-21,4
-11,-7,3,8,-7,-3,-1,-26,-41,-38,-19,4
-6,-4,1,5,-3,-3,0,-25,-40,-38,-18,4
-4,-4,0,4,-2,-3,0,-25,-40,-38,-17,4
-4,-5,0,5,-1,-3,0,-25,-41,-38,-16,4
-5,-6,0,6,-2,-3,0,-24,-41,-38,-16,5
-7,-6,1,6,-3,-2,0,-24,-41,-38,-16,5
-8,-6,1,7,-4,-2,0,-24,-41,-38,-17,5
-8,-6,1,7,-5,-2,0,-25,-42,-39,-17,5
-9,-6,2,7,-6,-2,0,-25,-42,-40,-18,5
-10,-6,3,7,-6,-2,0,-25,-42,-40,-17,5
-9,-5,4,6,-6,-1,0,-25,-42,-40,-16,6
-8,-4,3,6,-5,-1,0,-25,-42,-40,-14,7
-7,-4,2,6,-4,-2,0,-25,-42,-40,-12,8
-8,-6,0,7,-4,-3,0,-25,-43,-40,-11,8
-8,-8,0,8,-4,-4,0,-25,-43,-40,-9,7
-7,-8,-1,8,-3,-5,-1,-25,-44,-40,-7,7
-5,-7,-2,6,-2,-5,-1,-25,-44,-41,-5,7
-4,-6,-1,5,-1,-4,0,-25,-44,-41,-3,7
-6,-5,1,5,-3,-3,0,-24,-44,-41,-1,7
-8,-5,3,7,-5,-2,1,-24,-44,-41,0,6
-9,-6,2,8,-5,-2,0,-25,-45,-41,0,6
-9,-7,1,8,-5,-3,0,-25,-45,-41,0,5
-8,-6,0,7,-4,-3,0,-25,-45,-41,0,6
-6,-6,-1,6,-3,-3,0,-24,-44,-40,1,6
-6,-6,0,5,-3,-3,0,-24,-44,-40,2,7
-7,-6,1,6,-4,-3,0,-24,-44,-40,3,7
-7,-6,2,6,-4,-3,0,-24,-45,-41,3,7
-7,-6,1,6,-4,-3,0,-24,-45,-41,4,6
-7,-6,0,6,-2,-4,0,-25,-46,-42,3,4
-5,-7,-2,6,0,-5,0,-25,-47,-43,3,3
-5,-6,-2,5,0,-4,0,-25,-47,-43,3,3
-7,-6,0,6,-3,-2,1,-24,-47,-42,5,4
-8,-5,2,6,-5,-1,1,-23,-46,-42,6,4
-7,-5,2,6,-5,-2,1,-23,-46,-42,8,4
-8,-5,3,7,-5,-2,1,-23,-46,-42,9,5
-9,-6,4,8,-6,-2,1,-23,-46,-42,10,5
-9,-5,4,8,-7,-1,2,-23,-46,-42,11,4
-9,-4,5,7,-7,0,2,-23,-45,-42,11,4
-9,-3,5,6,-7,1,3,-23,-45,-42,12,3
-8,-1,6,4,-7,2,3,-22,-44,-41,12,4
-6,0,6,2,-6,3,4,-22,-44,-41,13,4
-5,1,7,1,-5,4,4,-21,-43,-40,14,5
-5,1,7,1,-6,4,5,-20,-43,-39,15,6
-6,1,8,2,-7,4,6,-19,-42,-38,16,7
-6,1,7,3,-7,4,6,-18,-41,-37,18,8
-5,1,6,2,-6,3,6,-18,-41,-36,19,9
-4,1,5,1,-4,3,6,-18,-41,-36,19,9
-4,2,5,1,-4,3,5,-17,-41,-36,20,10
-6,1,6,1,-6,3,4,-17,-41,-36,20,10
-6,1,7,1,-6,3,2,-18,-41,-36,21,9
-4,2,6,0,-5,3,0,-20,-42,-36,21,9
-2,4,6,-1,-4,4,-1,-21,-42,-36,21,8
-2,5,6,-1,-4,5,-2,-23,-43,-37,21,8
-4,4,7,0,-5,5,-3,-23,-43,-37,21,7
-5,4,8,0,-6,6,-3,-23,-44,-38,21,7
-4,4,8,0,-5,6,-3,-23,-44,-38,22,8
-4,5,8,-1,-5,6,-3,-23,-43,-38,23,9
-3,6,9,-2,-5,7,-3,-23,-43,-37,25,10
-3,5,9,-1,-5,6,-4,-24,-43,-37,26,10
-3,4,7,-1,-5,4,-5,-24,-44,-37,28,10
-3,3,6,0,-4,3,-6,-24,-44,-37,29,10
-2,3,5,-1,-3,3,-6,-23,-43,-37,30,10
1,5,4,-3,-1,4,-6,-22,-42,-36,32,11
3,8,3,-5,0,5,-5,-21,-41,-35,34,12
1,6,3,-4,0,4,-4,-21,-41,-35,36,12
0,4,3,-1,-1,3,-4,-21,-42,-35,37,12
0,2,2,-1,-1,2,-4,-22,-43,-36,37,11
0,2,1,-1,0,1,-4,-22,-43,-37,37,11
1,1,0,-1,1,0,-4,-22,-44,-37,37,10
0,1,0,0,0,0,-4,-21,-44,-37,38,10
-1,0,0,0,0,0,-4,-21,-44,-37,39,10
-1,0,0,1,-1,-1,-4,-21,-44,-38,38,9
-1,-1,-1,1,0,-2,-4,-20,-44,-38,38,8
-1,-1,-1,1,0,-2,-3,-19,-43,-37,39,8
0,-1,-2,1,1,-3,-2,-18,-42,-36,39,8
0,-2,-3,1,2,-4,-1,-18,-42,-36,38,7
0,-4,-4,2,2,-5,0,-18,-42,-37,38,6
0,-6,-5,3,2,-6,0,-17,-42,-37,38,6
-2,-7,-5,4,2,-7,0,-17,-41,-36,39,6
-3,-8,-5,5,1,-7,0,-17,-41,-36,40,6
-5,-8,-4,7,0,-7,0,-18,-42,-37,40,5
-6,-8,-2,7,-2,-6,0,-18,-43,-38,40,5
-6,-7,-1,6,-3,-5,0,-19,-44,-39,39,4
-8,-8,0,7,-4,-5,0,-19,-45,-40,38,4
-8,-10,-1,8,-3,-6,0,-19,-46,-41,35,3
-8,-11,-3,9,-2,-7,0,-19,-46,-42,33,2
-8,-11,-4,9,-1,-8,0,-19,-47,-43,32,1
-8,-12,-4,10,-1,-8,0,-19,-47,-43,31,1
-8,-12,-5,10,-1,-9,0,-20,-48,-44,29,0
-8,-13,-6,11,-1,-10,0,-20,-48,-45,28,0
-10,-14,-5,12,-2,-11,0,-20,-49,-45,27,0
-12,-15,-4,14,-4,-11,0,-19,-49,-45,27,0
-12,-16,-4,14,-4,-11,1,-19,-49,-44,26,0
-11,-16,-5,13,-3,-11,1,-19,-49,-44,25,0
-10,-15,-5,13,-2,-11,1,-19,-48,-44,25,0
-11,-15,-5,13,-3,-10,1,-18,-48,-44,26,0
-11,-14,-4,13,-3,-10,2,-18,-47,-43,26,0
-11,-14,-3,12,-4,-9,2,-17,-47,-43,25,0
-11,-13,-3,12,-4,-9,2,-17,-47,-43,24,0
-11,-13,-2,12,-4,-8,2,-17,-47,-43,23,0
-11,-13,-2,12,-4,-8,2,-17,-47,-43,22,0
-11,-14,-3,12,-4,-9,1,-16,-47,-43,21,0
-12,-15,-3,13,-4,-10,2,-15,-46,-42,21,0
-12,-16,-4,14,-4,-10,3,-12,-43,-40,22,0
-11,-15,-4,13,-3,-10,5,-7,-37,-37,23,0
-10,-13,-3,11,-3,-9,8,-2,-30,-32,25,1
-9,-10,-2,10,-3,-7,8,0,-26,-27,28,3
-7,-8,-1,8,-3,-6,5,-5,-24,-24,31,6
-4,-5,-1,5,-2,-4,0,-13,-25,-20,34,9
-2,-2,0,3,-1,-2,-9,-26,-29,-18,38,13
-1,0,2,1,-1,0,-21,-43,-36,-17,40,16
-2,1,4,1,-3,2,-35,-62,-45,-17,42,19
-2,3,5,-1,-3,4,-51,-81,-52,-15,46,22
2,7,5,-5,-2,5,-66,-98,-58,-12,49,25
6,11,4,-9,1,6,-80,-111,-62,-8,54,28
10,13,2,-11,4,6,-91,-119,-64,-3,60,34
12,15,2,-13,5,7,-102,-124,-65,3,67,41
13,16,3,-14,5,9,-112,-127,-65,11,76,49
15,19,3,-17,6,10,-122,-130,-65,16,83,56
19,23,3,-21,8,13,-131,-134,-67,20,89,61
23,28,5,-25,9,16,-139,-138,-68,22,93,67
26,34,7,-30,9,20,-145,-140,-69,24,97,71
29,41,10,-35,9,25,-149,-142,-71,25,99,75
30,47,15,-38,7,30,-152,-145,-73,22,99,77
28,51,22,-39,3,36,-153,-148,-76,17,97,78
23,54,30,-38,-3,41,-151,-150,-79,10,92,75
18,55,37,-36,-9,45,-147,-147,-79,2,85,70
13,54,41,-34,-13,46,-138,-138,-75,-3,76,62
8,50,42,-30,-17,45,-125,-122,-65,-5,69,53
3,45,42,-25,-19,42,-108,-102,-51,-3,63,44
0,38,38,-19,-18,37,-89,-80,-36,1,58,35
-1,30,31,-14,-16,30,-71,-59,-20,8,55,27
-1,24,24,-10,-13,23,-56,-38,-4,15,54,22
-2,19,20,-7,-11,18,-42,-20,11,24,56,20
-3,16,19,-5,-11,16,-31,-5,24,32,59,20
-3,13,16,-5,-9,14,-22,7,34,38,61,21
-2,12,14,-5,-7,12,-15,16,41,43,63,21
0,11,12,-5,-5,10,-9,24,47,47,65,22
0,10,10,-5,-5,9,-3,31,53,50,67,22
-1,8,8,-3,-4,7,1,36,57,53,69,22
-1,5,5,-1,-3,4,5,41,60,54,70,22
0,2,2,-1,-1,1,8,45,62,56,70,22
1,0,-1,-1,1,-1,10,49,65,57,71,22
3,0,-4,-1,4,-2,12,52,67,59,72,23
5,-1,-6,-2,6,-4,14,55,68,60,72,23
4,-3,-8,0,6,-6,15,56,69,60,72,22
3,-5,-8,1,6,-7,17,58,70,60,72,22
1,-7,-9,3,5,-8,18,59,70,60,73,22
0,-8,-9,4,5,-9,18,60,70,60,73,22
0,-9,-9,5,5,-10,19,60,70,60,73,22
0,-10,-10,5,5,-10,19,61,70,60,73,22
1,-10,-11,5,6,-10,21,62,70,60,73,22
1,-10,-11,4,6,-10,22,63,71,61,74,22
2,-10,-11,4,7,-10,22,63,71,61,74,22
3,-9,-12,3,8,-11,22,64,71,60,74,21
4,-8,-12,2,9,-11,22,64,71,60,74,21
4,-8,-13,1,9,-11,23,64,72,61,75,22
4,-7,-12,1,9,-11,23,65,73,62,76,22
4,-7,-12,2,8,-10,22,66,74,63,76,22
3,-8,-11,3,7,-10,22,66,74,63,76,22
3,-8,-10,3,6,-9,22,67,74,63,77,22
4,-7,-11,1,7,-9,23,68,75,63,77,23
4,-7,-11,1,7,-9,24,69,76,64,78,23
4,-7,-10,1,7,-9,24,70,76,65,79,24
3,-7,-10,2,7,-9,24,71,77,65,80,24
3,-8,-12,2,8,-10,23,72,77,65,80,24
3,-9,-12,3,8,-11,23,72,77,66,80,25
2,-10,-12,4,7,-11,24,73,79,67,81,26
2,-9,-13,4,7,-11,24,74,80,69,82,27
4,-9,-13,2,9,-11,24,74,80,69,83,27
5,-8,-13,1,9,-11,24,74,81,70,83,27
5,-7,-12,0,9,-10,24,75,81,70,83,27
5,-7,-12,1,9,-10,24,75,81,69,83,26
5,-8,-12,1,9,-10,24,75,81,69,82,25
4,-8,-12,2,8,-11,24,76,82,69,82,25
5,-8,-13,1,8,-11,24,77,83,70,82,25
5,-7,-13,0,9,-11,24,78,85,71,83,26
4,-7,-12,1,8,-10,24,78,85,72,83,26
2,-8,-10,2,6,-10,25,79,86,72,84,26
2,-8,-10,3,6,-10,25,81,87,73,85,27
4,-8,-12,1,8,-10,25,82,88,74,85,28
6,-7,-13,1,9,-11,26,83,88,74,86,28
6,-7,-14,1,10,-11,26,84,89,74,86,28
7,-7,-15,0,11,-11,27,84,90,75,86,28
7,-6,-15,0,11,-11,27,85,90,75,86,28
7,-7,-14,0,11,-11,27,85,90,75,85,28
6,-7,-14,0,10,-11,27,86,91,75,86,28
7,-6,-14,-1,10,-11,28,87,92,77,86,29
7,-6,-14,-1,11,-11,28,88,93,78,87,29
7,-5,-13,-1,10,-10,29,89,95,79,88,29
7,-4,-12,-1,10,-9,29,91,96,80,89,30
8,-4,-13,-2,11,-9,30,92,97,80,89,30
10,-4,-15,-2,12,-10,30,92,98,81,89,30
10,-4,-15,-2,12,-10,30,93,98,81,89,31
9,-5,-15,-2,12,-10,31,94,99,82,90,31
8,-5,-14,-1,11,-10,31,95,100,83,90,32
7,-5,-13,-1,10,-10,32,97,101,83,90,32
8,-4,-12,-2,10,-9,33,98,102,84,90,32
9,-4,-12,-2,10,-9,34,100,103,85,90,33
9,-3,-13,-3,11,-9,34,101,103,85,90,33
10,-3,-13,-3,12,-9,34,101,104,86,90,33
11,-3,-14,-4,12,-9,34,102,104,86,90,33
11,-3,-14,-4,12,-9,34,103,105,87,91,34
10,-3,-13,-3,11,-9,34,105,106,88,92,34
8,-4,-13,-2,10,-9,35,106,107,89,92,34
7,-5,-13,-1,10,-9,35,107,108,89,92,33
8,-4,-13,-2,10,-9,35,108,108,89,92,33
9,-2,-12,-3,11,-8,36,109,109,90,93,34
10,-1,-12,-4,11,-7,37,111,111,91,94,35
10,-2,-12,-4,11,-7,39,112,112,92,95,36
9,-2,-12,-3,10,-7,40,113,113,93,95,36
11,-2,-13,-4,12,-8,40,113,113,93,95,36
13,-2,-15,-6,14,-8,39,114,113,93,95,35
14,0,-14,-7,14,-7,40,115,114,94,96,35
14,1,-12,-7,13,-6,41,116,115,95,97,36
13,1,-11,-7,11,-5,41,117,115,94,97,35
13,2,-11,-7,11,-5,41,117,114,93,96,35
13,2,-11,-7,11,-5,41,117,114,93,96,35
11,2,-9,-6,10,-3,42,118,115,94,97,36
10,3,-8,-6,9,-3,43,118,116,95,97,37
11,3,-8,-6,9,-3,43,118,116,95,97,37
13,4,-9,-8,11,-3,43,118,116,95,97,37
14,5,-9,-9,11,-3,44,118,116,95,96,37
14,5,-8,-10,11,-2,44,118,115,94,96,37
13,6,-7,-9,10,-2,44,118,115,93,96,37
11,5,-7,-8,9,-2,44,117,113,92,95,37
10,3,-7,-6,8,-2,44,115,111,90,93,36
8,3,-6,-5,7,-2,43,113,109,88,92,35
6,2,-5,-4,5,-1,42,111,106,86,91,34
7,2,-5,-5,6,-1,40,109,104,84,90,33
9,3,-6,-6,7,-2,40,108,102,82,89,33
11,4,-6,-8,8,-1,40,107,100,81,88,33
11,6,-5,-9,8,0,41,107,99,80,88,33
10,8,-3,-9,6,1,42,106,98,79,88,34
11,9,-3,-9,7,2,42,104,96,78,87,35
12,9,-3,-10,8,2,41,101,93,75,86,35
13,9,-4,-10,8,2,40,98,89,72,85,34
12,9,-3,-9,7,2,39,95,85,69,84,33
10,8,-2,-8,6,2,38,92,81,66,83,32
9,8,-2,-8,5,2,37,89,78,62,81,31
8,8,-1,-8,5,2,36,87,75,60,79,31
8,8,0,-8,4,3,36,85,72,58,78,30
7,9,0,-8,3,4,36,83,69,56,77,30
6,9,2,-7,2,5,36,80,65,53,75,30
5,8,3,-7,1,5,34,76,60,49,73,29
5,8,3,-7,1,6,32,71,55,45,71,27
5,9,4,-7,0,6,31,67,50,40,69,26
4,9,5,-6,0,7,29,63,46,36,66,24
2,8,5,-5,-1,6,27,59,41,32,63,22
2,7,4,-4,-1,5,26,55,36,27,61,21
2,7,3,-4,-1,5,25,51,32,24,59,20
3,8,3,-5,0,5,25,48,28,22,57,19
3,8,4,-5,-1,5,24,44,23,18,55,18
0,7,5,-3,-2,5,22,39,18,14,53,17
-1,6,6,-2,-3,5,20,35,13,10,50,16
0,6,6,-2,-3,5,20,31,9,6,48,16
0,6,5,-3,-2,5,19,28,5,3,46,15
0,5,5,-2,-2,4,17,24,1,0,44,13
-1,3,5,-1,-3,3,15,21,-3,-3,41,11
-2,2,5,0,-3,3,14,17,-7,-6,38,10
-2,2,4,0,-3,2,13,14,-10,-9,36,8
-2,1,3,1,-3,1,12,11,-14,-12,34,7
-3,0,2,1,-3,1,12,8,-18,-15,32,7
-3,0,2,1,-3,1,11,5,-20,-18,31,6
-3,0,2,1,-2,1,11,3,-23,-20,29,6
-3,0,2,1,-2,1,10,2,-25,-21,28,5
-3,0,3,2,-3,1,9,0,-27,-23,26,4
-3,-1,2,2,-2,0,8,-1,-29,-25,24,3
-2,-1,0,2,-1,-1,8,-4,-32,-27,22,1
-2,-2,0,2,0,-1,7,-6,-34,-29,20,0
-2,-2,0,2,-1,-1,6,-7,-37,-31,19,-1
-4,-2,0,3,-2,-1,6,-8,-38,-32,18,-2
-5,-4,0,4,-3,-2,6,-9,-40,-34,17,-2
-6,-5,0,5,-3,-2,5,-10,-41,-35,16,-2
-7,-5,1,6,-4,-2,5,-11,-42,-35,15,-3
-8,-6,1,7,-5,-3,4,-12,-43,-36,14,-4
-8,-7,0,8,-4,-4,4,-14,-45,-38,12,-5
-7,-7,-1,7,-3,-5,4,-15,-46,-40,11,-6
-5,-6,-2,5,-2,-4,4,-15,-47,-41,10,-6
-3,-4,-2,3,-1,-4,3,-16,-48,-41,10,-6
-3,-5,-3,3,0,-4,3,-16,-48,-42,9,-6
-4,-6,-2,4,-1,-4,2,-16,-48,-42,9,-6
-5,-6,-1,5,-2,-4,2,-16,-48,-41,9,-6
-5,-7,-1,6,-2,-4,3,-16,-48,-41,8,-6
-6,-7,0,7,-3,-4,3,-16,-48,-42,7,-7
-8,-8,0,8,-4,-4,4,-17,-48,-42,7,-7
-8,-8,0,8,-4,-3,4,-17,-48,-42,7,-8
-8,-8,0,8,-5,-3,4,-17,-48,-42,6,-8
-8,-8,0,8,-4,-5,4,-17,-48,-42,6,-8
-8,-9,-2,8,-3,-6,3,-17,-49,-43,5,-8
-8,-10,-3,9,-3,-7,3,-17,-49,-43,4,-8
-8,-10,-3,9,-2,-7,3,-17,-48,-43,4,-8
-7,-10,-3,9,-2,-7,3,-17,-48,-43,4,-9
-6,-9,-3,8,-2,-7,3,-17,-48,-43,3,-9
-5,-8,-3,7,-1,-6,3,-17,-48,-43,3,-9
-6,-7,-2,7,-2,-5,3,-17,-48,-43,3,-9
-7,-7,-1,7,-3,-5,3,-17,-47,-43,3,-9
-8,-7,0,7,-4,-4,2,-17,-47,-43,3,-9
-8,-8,0,8,-4,-4,2,-17,-47,-43,2,-9
-8,-8,0,7,-4,-5,2,-17,-47,-43,2,-9
-7,-8,-1,7,-3,-5,2,-17,-47,-43,2,-9
-7,-9,-2,8,-2,-6,2,-17,-47,-43,2,-8
-8,-9,-2,9,-2,-6,2,-17,-47,-42,2,-8
-9,-10,-2,10,-3,-7,2,-17,-47,-42,2,-8
-9,-10,-2,10,-3,-7,2,-16,-46,-42,2,-8
-8,-10,-2,9,-3,-7,2,-16,-46,-42,1,-8
-8,-9,-2,8,-3,-6,3,-15,-46,-42,0,-8
-8,-9,-2,8,-3,-6,3,-15,-46,-42,0,-8
-8,-10,-2,9,-4,-6,3,-15,-46,-42,0,-9
-8,-10,-2,9,-3,-6,3,-15,-46,-42,-1,-9
-7,-9,-2,9,-3,-6,3,-15,-46,-42,-1,-9
-7,-8,-1,8,-2,-5,4,-15,-45,-41,0,-9
-7,-7,0,7,-3,-4,5,-14,-44,-40,0,-8
-7,-7,0,6,-3,-4,5,-14,-44,-40,-1,-8
-7,-7,0,6,-3,-4,4,-14,-44,-40,-3,-9
-6,-7,0,6,-2,-4,4,-13,-43,-40,-4,-9
-6,-6,-1,5,-2,-4,4,-13,-43,-40,-5,-9
-6,-6,0,6,-3,-4,4,-13,-43,-40,-6,-9
-7,-8,-1,7,-3,-5,4,-14,-43,-40,-8,-9
-8,-9,-2,9,-2,-6,3,-15,-44,-41,-9,-9
-9,-10,-1,10,-3,-6,3,-15,-44,-40,-10,-9
-9,-9,0,10,-4,-5,4,-15,-44,-40,-11,-9
-9,-8,0,9,-5,-5,4,-14,-43,-40,-12,-9
-9,-8,1,8,-5,-4,4,-14,-43,-40,-12,-9
-9,-7,1,8,-5,-4,4,-14,-43,-40,-12,-9
-9,-7,1,8,-5,-4,3,-15,-43,-39,-13,-9
-8,-7,1,8,-5,-3,3,-15,-43,-39,-13,-9
-8,-6,1,8,-5,-3,3,-15,-43,-40,-14,-9
-8,-7,1,8,-4,-3,3,-15,-43,-40,-14,-9
-8,-8,1,8,-4,-4,4,-15,-43,-40,-15,-9
-9,-8,1,8,-4,-4,4,-15,-43,-40,-15,-9
-8,-7,1,7,-4,-3,4,-15,-42,-39,-15,-9
-7,-6,1,6,-4,-3,4,-15,-42,-39,-15,-8
-8,-6,1,6,-4,-3,4,-15,-43,-39,-15,-8
-7,-5,1,6,-4,-2,4,-15,-42,-39,-15,-7
-7,-5,2,6,-4,-2,5,-15,-42,-38,-15,-7
-9,-5,3,7,-5,-2,6,-15,-42,-38,-15,-7
-10,-6,4,8,-7,-2,6,-15,-42,-39,-16,-7
-10,-5,4,8,-7,-1,6,-15,-42,-39,-16,-7
-8,-4,3,6,-6,-1,6,-15,-42,-39,-16,-7
-7,-3,3,5,-5,-1,6,-15,-43,-39,-16,-7
-7,-3,4,5,-6,0,6,-15,-43,-39,-16,-7
-8,-4,4,6,-6,0,6,-16,-43,-39,-17,-7
-8,-5,3,7,-6,-1,6,-17,-44,-39,-17,-7
-8,-5,2,7,-5,-1,5,-17,-44,-40,-18,-7
-8,-5,2,7,-5,-2,5,-18,-45,-40,-18,-7
-7,-6,0,7,-4,-3,4,-19,-45,-41,-19,-8
-7,-6,0,7,-4,-4,4,-19,-46,-42,-20,-8
-8,-6,1,7,-4,-4,4,-19,-46,-42,-20,-8
-9,-6,2,7,-6,-3,5,-19,-46,-42,-20,-7
-11,-6,4,8,-8,-2,6,-18,-46,-41,-20,-7
-10,-6,4,8,-8,-2,6,-18,-46,-41,-20,-7
-8,-6,3,7,-6,-2,6,-19,-46,-42,-20,-7
-7,-5,2,7,-5,-1,5,-19,-46,-42,-20,-7
-8,-4,3,7,-6,-1,5,-19,-46,-42,-20,-7
-9,-4,3,7,-6,-1,5,-20,-47,-42,-21,-7
-9,-5,3,7,-7,-1,4,-20,-47,-43,-21,-8
-10,-5,3,8,-7,-1,4,-21,-48,-43,-22,-8
-10,-6,4,8,-7,-1,4,-21,-49,-43,-22,-8
-9,-6,3,7,-6,-2,4,-22,-49,-44,-23,-9
-7,-5,2,6,-5,-2,4,-22,-50,-44,-24,-10
-8,-6,2,7,-5,-2,4,-22,-50,-44,-24,-10
-10,-7,2,9,-6,-3,4,-23,-50,-44,-24,-10
-11,-8,2,10,-6,-4,3,-23,-51,-45,-24,-10
-11,-8,2,9,-6,-4,3,-24,-51,-45,-24,-10
-9,-6,2,8,-5,-3,3,-24,-52,-45,-24,-10
-8,-6,1,6,-5,-3,3,-23,-52,-45,-25,-10
-7,-5,2,6,-5,-3,3,-23,-51,-45,-25,-10
-7,-5,2,6,-5,-2,3,-22,-51,-44,-25,-9
-7,-6,2,6,-5,-2,3,-22,-51,-44,-25,-9
-9,-7,2,8,-5,-3,3,-23,-51,-44,-25,-9
-11,-9,2,10,-6,-4,3,-23,-52,-45,-26,-10
-11,-9,1,10,-6,-4,3,-24,-52,-45,-26,-10
-9,-7,1,8,-5,-4,3,-23,-52,-45,-26,-10
-8,-5,2,6,-5,-2,4,-22,-51,-44,-25,-9
-9,-4,4,6,-6,-1,5,-22,-50,-44,-25,-8
-9,-4,5,6,-7,0,5,-22,-50,-44,-25,-8
-9,-3,6,6,-8,0,5,-22,-50,-44,-25,-8
-9,-3,6,6,-8,1,5,-22,-50,-44,-25,-8
-8,-1,6,5,-8,2,6,-21,-49,-43,-25,-7
-8,0,7,4,-8,3,7,-20,-47,-42,-24,-6
-8,1,8,3,-8,4,8,-19,-46,-41,-24,-6
-8,1,9,3,-9,5,8,-18,-46,-41,-23,-5
-8,1,10,3,-9,5,8,-18,-46,-41,-23,-5
-7,2,10,2,-9,6,8,-18,-46,-40,-23,-5
-5,4,10,1,-8,7,8,-18,-45,-39,-23,-4
-4,5,9,0,-8,7,8,-17,-45,-39,-22,-4
-3,5,8,0,-7,7,7,-17,-44,-38,-22,-4
-3,5,8,0,-6,7,7,-17,-44,-38,-22,-4
-4,5,9,0,-6,7,6,-17,-44,-38,-22,-4
-5,4,10,0,-7,7,5,-18,-44,-39,-22,-4
-7,3,11,1,-8,7,3,-20,-44,-39,-22,-4
-7,4,11,1,-8,7,2,-21,-45,-39,-22,-4
-6,4,11,0,-8,7,1,-21,-45,-39,-21,-4
-6,5,11,0,-8,7,0,-22,-46,-39,-21,-4
-5,6,11,0,-8,8,0,-22,-46,-39,-20,-4
-3,6,10,-1,-7,8,0,-23,-46,-39,-20,-3
-1,7,9,-2,-5,8,-1,-23,-46,-39,-19,-3
0,8,8,-4,-4,8,-1,-24,-47,-39,-19,-3
0,8,7,-4,-3,7,-2,-25,-47,-39,-19,-3
1,7,6,-4,-2,6,-2,-25,-47,-39,-19,-3
1,7,6,-4,-2,6,-3,-25,-47,-39,-19,-3
0,6,6,-3,-3,6,-3,-24,-47,-39,-18,-2
-2,6,7,-2,-5,6,-3,-24,-47,-39,-18,-2
-3,5,8,0,-6,6,-3,-24,-47,-39,-17,-2
-4,4,7,0,-6,5,-3,-25,-47,-40,-17,-2
-4,3,7,0,-5,5,-2,-25,-47,-40,-17,-2
-4,2,6,0,-5,4,-2,-25,-47,-40,-17,-2
-3,2,6,0,-4,4,-2,-25,-48,-40,-17,-2
-2,3,5,-1,-3,3,-2,-25,-48,-41,-18,-3
-1,3,4,-1,-2,3,-2,-25,-49,-41,-18,-3
-2,2,4,0,-3,2,-2,-25,-49,-41,-18,-4
-3,0,3,1,-3,1,-2,-25,-49,-41,-18,-4
-3,0,2,2,-2,0,-1,-24,-48,-40,-18,-4
-1,-1,0,1,-1,0,-1,-23,-47,-40,-18,-4
-1,-1,0,1,0,-1,0,-22,-47,-39,-18,-4
-2,-3,0,3,0,-2,0,-22,-46,-39,-18,-4
-5,-5,0,5,-2,-3,0,-21,-46,-39,-18,-4
-6,-5,0,6,-3,-2,1,-21,-46,-39,-17,-4
-5,-5,0,5,-3,-2,2,-20,-46,-39,-17,-4
-4,-5,0,5,-2,-3,2,-21,-46,-39,-18,-4
-4,-5,-1,5,-1,-4,2,-21,-46,-40,-18,-5
-6,-7,-1,6,-1,-5,2,-22,-47,-42,-19,-7
-7,-8,-1,8,-2,-5,1,-23,-49,-43,-20,-8
-8,-9,-1,8,-2,-5,1,-23,-49,-44,-21,-9
-7,-10,-2,8,-2,-6,1,-23,-50,-45,-22,-10
-8,-10,-2,9,-2,-7,1,-24,-51,-45,-22,-10
-10,-12,-2,11,-4,-7,2,-24,-52,-46,-23,-11
-11,-12,-1,12,-5,-7,2,-24,-52,-46,-23,-11
-10,-12,-2,11,-4,-8,1,-25,-52,-46,-23,-11
-9,-12,-3,10,-2,-8,1,-25,-52,-46,-23,-11
-8,-12,-3,10,-2,-8,2,-25,-52,-46,-23,-12
-9,-12,-3,11,-2,-8,2,-24,-51,-46,-23,-12
-11,-13,-2,12,-4,-8,3,-24,-51,-46,-23,-12
-11,-14,-2,12,-5,-8,3,-24,-51,-46,-23,-12
-11,-13,-3,12,-4,-8,3,-24,-51,-46,-23,-12
-10,-13,-4,11,-3,-8,3,-24,-51,-46,-23,-12
-10,-13,-3,11,-4,-8,3,-24,-51,-46,-23,-12
-13,-14,-2,13,-5,-8,3,-24,-51,-46,-24,-12
-14,-15,-2,14,-6,-8,3,-24,-51,-46,-24,-12
-12,-15,-3,13,-5,-9,3,-23,-51,-46,-24,-12
-12,-14,-3,13,-4,-9,3,-22,-50,-45,-23,-12
-12,-15,-2,14,-5,-9,4,-21,-48,-44,-22,-12
-11,-16,-4,14,-4,-10,4,-20,-47,-43,-22,-13
-9,-16,-6,13,-2,-11,4,-17,-43,-41,-21,-13
-8,-14,-5,11,-1,-10,7,-11,-37,-37,-18,-11
-9,-11,-1,10,-3,-6,10,-5,-30,-31,-14,-8
-10,-9,2,9,-6,-3,10,-5,-26,-26,-10,-5
-9,-6,4,8,-6,-1,5,-11,-25,-23,-7,-2
-8,-4,4,7,-6,-1,-3,-24,-29,-22,-5,-1
-8,-4,4,6,-6,0,-15,-41,-37,-22,-4,0
-8,-3,5,5,-6,0,-30,-62,-46,-23,-2,2
-6,0,6,3,-6,2,-46,-81,-54,-22,1,6
-3,4,7,-1,-4,5,-62,-98,-60,-19,5,10
1,9,7,-5,-2,7,-76,-112,-63,-14,11,15
5,12,7,-8,0,9,-89,-121,-65,-8,17,21
10,15,5,-12,3,9,-101,-127,-66,-1,23,27
15,18,3,-16,6,10,-113,-131,-67,5,30,33
18,21,3,-19,8,12,-123,-134,-67,12,38,40
21,25,4,-23,9,14,-133,-138,-67,16,44,46
24,29,5,-26,9,17,-142,-142,-69,19,49,52
26,33,6,-29,10,19,-150,-145,-70,21,53,57
28,36,8,-31,9,22,-155,-148,-72,21,56,61
27,40,12,-33,7,26,-159,-151,-74,19,57,63
27,45,18,-35,4,32,-161,-153,-76,17,58,66
27,53,27,-39,0,40,-159,-154,-77,12,57,67
24,59,36,-41,-6,47,-155,-151,-77,6,54,66
19,61,42,-39,-11,52,-146,-144,-75,0,48,61
13,59,45,-35,-16,52,-134,-132,-67,-3,40,53
7,53,44,-30,-18,49,-118,-114,-56,-3,34,44
3,45,40,-24,-19,43,-101,-94,-41,-1,28,35
-1,36,36,-17,-19,36,-83,-72,-25,3,24,27
-5,29,33,-12,-19,31,-65,-50,-9,10,22,20
-6,24,31,-8,-19,27,-50,-30,6,18,22,16
-6,21,28,-7,-17,24,-37,-13,20,27,24,15
-3,20,24,-8,-13,22,-27,0,31,34,27,15
-1,18,19,-8,-9,18,-19,10,39,39,28,15
-1,15,15,-7,-7,15,-13,18,46,42,30,15
-2,12,12,-5,-6,12,-8,25,53,45,31,15
-1,9,8,-4,-4,8,-3,31,58,47,32,15
0,6,5,-3,-2,5,1,37,62,49,33,15
0,3,3,-1,-2,3,5,42,66,51,34,15
0,0,1,0,-1,0,8,46,69,53,35,15
0,-2,-1,2,0,-2,10,49,71,55,36,14
0,-4,-4,2,2,-4,11,51,72,56,36,14
-1,-4,-4,3,2,-4,13,53,74,57,37,15
-2,-4,-3,3,1,-4,15,55,76,58,38,16
-1,-4,-4,3,1,-4,16,56,77,58,38,16
0,-5,-5,2,2,-5,17,58,78,57,38,16
0,-5,-6,2,3,-6,19,59,78,57,38,16
0,-6,-5,3,2,-7,20,60,79,58,38,16
-1,-7,-5,4,2,-7,20,61,79,58,38,16
-1,-7,-6,4,3,-7,20,61,79,58,38,16
0,-7,-7,3,4,-7,21,62,79,58,39,16
0,-6,-8,3,5,-7,21,62,80,58,39,16
0,-7,-9,3,5,-8,21,63,80,58,39,16
0,-8,-9,4,4,-8,22,63,81,58,40,16
0,-8,-9,4,4,-9,22,64,81,59,40,16
1,-7,-9,3,5,-9,23,66,82,60,41,16
3,-6,-9,1,6,-8,24,67,83,60,42,17
5,-6,-10,0,7,-8,24,67,83,60,42,17
7,-5,-12,-1,9,-9,24,67,82,60,41,17
6,-6,-12,0,10,-9,23,67,82,60,41,16
4,-7,-11,1,8,-9,23,67,83,61,41,16
2,-7,-10,2,7,-9,23,68,83,61,42,16
2,-7,-10,3,6,-9,24,69,84,62,43,16
3,-6,-9,2,6,-8,25,70,85,63,44,16
4,-5,-9,1,6,-8,25,71,85,63,44,16
4,-7,-10,1,7,-9,24,71,85,64,44,16
3,-8,-11,2,7,-10,23,71,85,64,44,16
3,-9,-11,3,7,-10,24,71,86,64,44,16
3,-8,-12,2,8,-10,25,72,87,65,44,17
3,-8,-12,2,8,-10,25,73,88,66,45,17
3,-8,-12,2,8,-10,26,74,88,66,45,17
4,-8,-12,2,9,-11,26,75,89,67,46,17
6,-7,-13,0,9,-10,26,76,89,67,47,17
6,-6,-12,0,8,-9,27,77,90,68,48,17
4,-6,-11,1,7,-9,27,78,91,69,48,18
4,-6,-10,1,7,-9,27,78,92,69,49,18
4,-6,-10,0,7,-8,27,79,93,70,49,18
6,-5,-10,-1,8,-8,28,80,94,71,50,18
7,-3,-11,-2,9,-7,28,81,95,71,50,18
8,-3,-11,-3,9,-7,28,82,95,72,50,18
7,-3,-11,-2,9,-7,28,83,96,72,50,19
8,-4,-11,-2,9,-8,28,84,96,73,50,19
9,-4,-12,-2,10,-8,28,85,97,73,49,19
9,-4,-12,-2,10,-8,29,86,98,74,49,20
7,-4,-11,-1,9,-8,30,87,99,75,50,20
5,-5,-11,0,8,-8,31,88,100,75,50,20
5,-6,-11,0,8,-9,31,89,100,76,50,20
4,-6,-11,0,8,-9,31,90,101,76,50,20
5,-5,-11,0,8,-9,31,91,101,76,50,20
7,-4,-11,-1,9,-8,31,92,102,77,51,21
7,-4,-11,-1,9,-8,32,93,103,77,51,21
8,-3,-12,-2,10,-8,32,94,104,78,51,21
10,-2,-12,-4,11,-8,33,96,106,79,51,21
10,-2,-12,-4,11,-7,35,97,107,80,52,22
8,-2,-10,-4,10,-7,35,99,109,81,52,23
7,-3,-10,-3,9,-7,36,101,110,82,52,23
7,-3,-11,-2,9,-7,35,102,111,83,53,23
7,-4,-11,-2,8,-7,35,102,111,83,53,24
7,-3,-11,-2,9,-7,36,103,112,84,54,24
9,-3,-11,-3,10,-7,36,104,112,84,54,25
9,-3,-12,-3,10,-7,36,105,113,85,54,25
11,-2,-12,-4,11,-7,37,106,114,85,54,25
14,0,-13,-7,13,-7,37,108,115,86,55,26
15,1,-14,-8,14,-7,38,109,116,87,55,27
13,0,-13,-7,13,-7,38,111,117,88,56,27
12,0,-13,-6,13,-7,38,112,118,88,56,27
11,-2,-14,-4,12,-9,39,112,118,88,56,26
10,-3,-14,-3,11,-9,39,113,118,88,56,26
9,-4,-13,-3,11,-9,39,114,119,88,56,26
10,-2,-12,-4,11,-7,40,115,120,89,57,26
13,1,-12,-7,12,-6,40,117,121,90,58,26
14,3,-11,-9,12,-5,41,118,122,91,58,27
12,3,-9,-8,11,-4,42,119,123,91,58,27
11,3,-9,-7,10,-4,42,120,123,92,59,27
11,3,-9,-8,10,-3,43,120,123,92,59,27
11,3,-8,-8,10,-3,44,121,124,92,60,28
11,3,-8,-8,10,-2,45,121,124,93,61,28
11,3,-8,-7,10,-2,45,121,124,93,61,28
12,2,-9,-7,11,-3,44,121,123,92,60,28
12,2,-10,-7,11,-3,44,120,122,91,59,27
12,2,-10,-7,11,-3,44,120,121,90,59,27
13,3,-10,-8,11,-3,44,119,120,89,58,27
13,4,-9,-9,10,-2,44,119,119,89,58,27
12,5,-7,-9,9,-1,44,118,119,89,58,27
11,5,-6,-8,8,-1,44,117,118,88,58,27
10,4,-5,-8,7,-1,44,116,116,86,57,26
9,4,-5,-7,7,-1,43,114,113,84,56,26
10,5,-4,-8,7,0,43,113,112,83,55,26
12,7,-4,-10,8,1,43,112,111,82,55,26
13,8,-4,-11,8,2,43,111,109,80,54,26
13,8,-4,-11,8,2,43,109,107,78,53,26
13,8,-4,-11,8,2,43,107,105,76,52,26
13,8,-4,-11,8,2,43,105,102,74,50,25
12,8,-4,-10,8,2,42,102,98,71,48,24
11,7,-3,-9,7,2,40,99,94,68,47,23
9,7,-2,-8,5,2,39,96,91,65,45,22
9,7,-1,-8,5,3,38,93,87,63,43,22
9,8,-1,-9,5,3,37,90,84,60,42,21
9,9,-1,-9,5,3,36,87,80,57,40,20
9,8,-1,-8,4,3,35,83,76,54,38,19
8,8,0,-8,4,3,34,79,72,51,36,19
8,9,0,-8,3,4,33,76,68,48,35,18
7,9,2,-8,2,5,32,73,64,45,33,18
6,10,3,-8,1,6,31,69,60,42,32,18
5,10,4,-8,0,7,30,65,56,38,30,18
5,9,4,-7,0,6,29,61,51,33,27,16
5,9,4,-7,0,6,27,56,46,29,23,14
4,9,5,-6,0,7,26,52,41,26,20,13
3,9,6,-5,-1,7,25,48,37,22,18,12
2,8,5,-5,-1,7,23,43,32,19,15,11
3,8,4,-5,-1,7,22,39,27,15,13,10
3,8,4,-5,0,6,20,34,23,11,11,9
2,6,3,-3,0,5,18,30,18,7,8,7
0,4,3,-2,-1,4,16,26,13,3,6,6
0,4,3,-2,-2,4,15,22,9,0,4,5
1,4,3,-2,-1,3,14,19,5,-2,1,3
1,4,2,-3,0,3,13,16,2,-5,0,2
0,3,2,-1,-1,3,13,13,-1,-8,-3,1
-1,2,2,0,-2,2,11,9,-5,-11,-5,0
-2,1,2,1,-2,2,10,6,-9,-14,-6,0
-2,0,2,2,-2,1,9,3,-12,-17,-8,-1
-3,-1,1,2,-2,0,7,0,-16,-20,-10,-3
-2,-2,0,2,-1,-1,6,-2,-19,-22,-12,-4
-2,-2,0,2,-1,-2,5,-5,-22,-24,-14,-5
-2,-3,-1,2,0,-2,4,-7,-24,-26,-16,-6
-2,-4,-1,3,0,-3,4,-8,-25,-27,-17,-7
-2,-4,-2,3,0,-3,4,-9,-27,-28,-18,-7
-2,-4,-2,3,0,-3,3,-11,-29,-30,-19,-7
-3,-5,-2,4,0,-4,3,-12,-31,-31,-21,-7
-5,-6,-2,6,-1,-5,2,-14,-33,-33,-23,-8
-6,-8,-2,7,-1,-6,2,-16,-34,-34,-25,-9
-4,-8,-4,6,0,-7,2,-17,-36,-36,-28,-10
-3,-9,-6,5,1,-7,1,-19,-37,-37,-30,-11
-3,-10,-6,6,1,-8,1,-19,-38,-38,-31,-11
-4,-11,-6,7,1,-8,0,-20,-39,-38,-32,-12
-4,-11,-6,7,1,-8,0,-20,-39,-39,-33,-12
-3,-10,-7,7,1,-9,0,-21,-40,-40,-33,-13
-3,-10,-7,6,2,-9,-1,-21,-41,-40,-34,-13
-3,-9,-6,6,1,-8,0,-22,-42,-41,-35,-13
-4,-9,-4,6,0,-7,0,-22,-42,-41,-36,-13
-5,-9,-4,7,-1,-6,1,-22,-42,-41,-37,-14
-5,-10,-4,8,-1,-7,0,-23,-42,-42,-38,-14
-6,-11,-5,8,-1,-7,0,-23,-43,-42,-38,-14
-5,-11,-6,8,0,-8,0,-23,-43,-42,-39,-14
-4,-10,-7,7,1,-8,0,-23,-43,-42,-39,-14
-3,-10,-7,6,1,-9,0,-23,-44,-42,-40,-14
-5,-11,-6,8,0,-9,0,-23,-44,-42,-40,-15
-7,-12,-4,9,-2,-9,0,-23,-44,-42,-41,-15
-7,-12,-4,9,-2,-9,0,-23,-44,-43,-41,-15
-6,-11,-4,8,-1,-9,0,-23,-44,-43,-42,-15
-4,-10,-5,7,0,-9,0,-23,-44,-43,-42,-15
-3,-10,-6,6,1,-8,0,-23,-44,-43,-43,-15
-3,-9,-6,6,1,-8,0,-23,-44,-43,-44,-15
-3,-9,-6,6,1,-8,0,-23,-44,-43,-44,-15
-4,-10,-6,6,1,-8,0,-23,-45,-43,-45,-15
-5,-10,-5,7,0,-7,0,-23,-45,-43,-45,-15
-5,-9,-4,7,0,-7,0,-23,-44,-43,-46,-15
-4,-9,-4,7,0,-7,0,-23,-44,-43,-47,-16
-5,-10,-4,7,0,-8,0,-23,-44,-43,-47,-16
-6,-11,-4,8,0,-8,0,-23,-44,-43,-48,-16
-6,-11,-5,9,0,-8,0,-22,-44,-43,-48,-16
-5,-10,-5,8,0,-8,0,-22,-44,-43,-48,-16
-5,-10,-5,8,0,-8,0,-22,-44,-43,-48,-16
-6,-11,-5,9,-1,-8,0,-22,-45,-43,-49,-16
-7,-11,-5,9,-1,-8,0,-22,-45,-43,-50,-16
-5,-9,-4,7,-1,-7,0,-21,-44,-42,-49,-16
-4,-7,-3,6,-1,-6,1,-19,-43,-41,-49,-15
-5,-7,-2,6,-2,-5,2,-19,-43,-41,-48,-15
-7,-8,-2,8,-2,-5,2,-19,-42,-41,-49,-15
-6,-8,-2,8,-2,-5,3,-19,-42,-41,-49,-15
-5,-7,-2,6,-1,-5,3,-19,-41,-40,-49,-15
-4,-7,-3,6,0,-5,3,-19,-41,-41,-49,-15
-6,-9,-3,7,-1,-6,2,-19,-42,-42,-50,-16
-7,-10,-3,8,-1,-7,1,-20,-43,-42,-51,-17
-6,-9,-3,8,-1,-7,1,-20,-43,-42,-52,-18
-6,-8,-2,7,-1,-6,1,-20,-43,-42,-52,-18
-6,-7,-2,6,-1,-5,1,-20,-42,-41,-52,-17
-6,-7,-2,7,-1,-4,1,-20,-42,-41,-52,-17
-6,-7,-2,7,-1,-5,1,-20,-42,-41,-52,-17
-5,-7,-2,6,-1,-5,2,-19,-42,-41,-52,-17
-5,-7,-2,6,-2,-4,3,-19,-42,-40,-52,-17
-5,-7,-2,6,-2,-4,4,-18,-42,-40,-52,-17
-5,-7,-2,5,-1,-5,4,-18,-42,-40,-52,-17
-4,-7,-3,5,-1,-5,3,-19,-42,-41,-52,-17
-4,-7,-4,6,0,-5,2,-19,-42,-41,-52,-18
-5,-7,-2,6,-1,-5,2,-19,-42,-41,-52,-18
-7,-6,0,6,-3,-3,3,-19,-41,-40,-51,-17
-7,-5,2,6,-4,-2,3,-19,-41,-40,-51,-16
-6,-5,1,5,-3,-3,3,-19,-41,-40,-51,-17
-5,-5,0,5,-2,-3,2,-20,-42,-40,-52,-17
-6,-6,0,6,-2,-4,3,-20,-42,-40,-52,-17
-6,-6,0,6,-3,-4,3,-19,-42,-40,-52,-17
-7,-7,0,7,-3,-4,3,-19,-43,-41,-52,-17
-8,-7,0,8,-4,-4,3,-20,-43,-41,-52,-17
-8,-8,0,8,-4,-4,3,-20,-43,-42,-52,-17
-8,-8,0,8,-3,-4,2,-21,-44,-42,-52,-18
-7,-7,0,7,-3,-5,2,-21,-44,-43,-52,-18
-6,-7,0,7,-3,-4,2,-21,-44,-43,-52,-18
-5,-5,0,5,-3,-3,3,-20,-44,-42,-52,-17
-4,-3,0,4,-2,-2,4,-20,-43,-41,-51,-17
-6,-4,1,5,-3,-1,4,-20,-44,-41,-51,-16
-9,-5,2,8,-5,-1,4,-20,-44,-41,-50,-16
-11,-7,3,9,-7,-2,3,-20,-44,-42,-50,-16
-10,-8,2,9,-6,-3,3,-21,-44,-42,-50,-16
-9,-7,1,7,-5,-2,3,-21,-44,-42,-50,-16
-7,-6,2,6,-4,-2,4,-20,-44,-41,-50,-15
-6,-5,1,5,-3,-2,4,-20,-44,-41,-49,-16
-7,-6,1,6,-3,-2,3,-21,-45,-42,-49,-16
-7,-6,1,7,-4,-2,3,-22,-46,-43,-49,-17
-7,-6,1,7,-4,-2,3,-22,-46,-43,-49,-17
-7,-5,1,6,-4,-1,3,-22,-46,-43,-49,-16
-7,-5,2,6,-4,-1,3,-22,-46,-43,-49,-16
-7,-5,1,6,-4,-1,3,-22,-46,-43,-49,-16
-6,-5,1,6,-4,-2,2,-23,-46,-44,-49,-17
-6,-5,1,6,-4,-2,2,-23,-46,-44,-49,-17
-6,-5,1,6,-4,-2,2,-23,-46,-44,-49,-17
-6,-6,1,6,-3,-3,1,-24,-47,-45,-49,-17
-6,-6,0,6,-3,-3,1,-24,-47,-45,-49,-17
-5,-5,0,5,-3,-2,2,-24,-47,-45,-49,-17
-5,-5,0,5,-3,-2,2,-24,-47,-45,-49,-17
-7,-6,1,5,-4,-2,2,-24,-47,-45,-49,-17
-8,-7,1,6,-4,-2,1,-25,-48,-45,-49,-18
-8,-8,1,7,-4,-3,1,-26,-48,-46,-49,-18
-9,-8,1,8,-4,-4,1,-26,-49,-46,-49,-19
-10,-8,2,9,-6,-3,1,-26,-48,-46,-48,-19
-10,-8,1,10,-6,-4,1,-26,-49,-46,-48,-19
-9,-8,0,9,-5,-4,0,-26,-49,-46,-48,-19
-9,-9,0,9,-5,-4,0,-26,-49,-46,-48,-19
-10,-9,1,10,-5,-4,1,-26,-49,-46,-47,-19
-10,-9,1,10,-5,-4,1,-26,-49,-46,-47,-19
-9,-8,1,9,-5,-3,1,-26,-49,-46,-47,-19
-9,-7,2,8,-5,-3,2,-26,-48,-46,-46,-19
-8,-6,2,7,-5,-2,2,-26,-48,-45,-45,-18
-7,-5,1,6,-4,-3,2,-26,-48,-45,-45,-18
-6,-6,0,6,-3,-4,1,-26,-49,-46,-46,-19
-6,-7,-2,7,-2,-5,1,-27,-49,-47,-46,-20
-5,-7,-2,6,-2,-5,1,-27,-49,-47,-46,-20
-6,-7,-1,6,-2,-5,1,-26,-49,-46,-46,-19
-7,-7,0,7,-3,-4,1,-26,-48,-46,-45,-19
-7,-7,0,7,-3,-4,1,-26,-48,-46,-45,-19
-7,-7,0,7,-3,-4,1,-26,-48,-46,-45,-19
-7,-6,1,7,-4,-3,2,-25,-48,-45,-44,-18
-6,-5,1,6,-3,-2,2,-25,-47,-44,-43,-18
-4,-4,0,5,-3,-2,2,-25,-47,-44,-43,-18
-4,-2,2,4,-3,0,3,-24,-46,-44,-42,-17
-5,-1,4,3,-5,1,4,-23,-45,-43,-41,-16
-4,-1,4,2,-4,1,5,-23,-45,-43,-41,-16
-3,-1,3,2,-3,1,4,-23,-46,-43,-42,-17
-4,0,4,2,-4,1,5,-23,-45,-42,-41,-17
-7,1,7,3,-6,4,6,-21,-44,-41,-40,-16
-8,2,9,3,-8,5,7,-20,-42,-39,-39,-15
-7,2,9,3,-8,5,8,-19,-41,-38,-38,-15
-6,2,9,2,-7,5,8,-18,-41,-38,-38,-14
-4,2,7,1,-5,4,8,-18,-41,-38,-38,-14
-3,2,6,0,-4,3,7,-19,-41,-38,-38,-14
-2,2,5,0,-3,3,6,-19,-41,-38,-38,-15
-3,1,5,0,-3,2,5,-19,-41,-38,-38,-15
-3,1,4,0,-3,2,5,-19,-41,-38,-38,-15
-2,1,4,0,-2,2,4,-20,-42,-39,-38,-15
-1,2,4,0,-2,2,3,-21,-42,-39,-38,-15
-1,2,4,0,-3,3,2,-21,-41,-38,-38,-15
-1,3,5,0,-3,4,0,-21,-41,-38,-37,-14
0,4,4,-2,-2,4,-1,-21,-41,-37,-36,-13
1,5,4,-2,-1,4,-2,-22,-41,-37,-35,-12
0,4,4,-2,-1,4,-2,-22,-41,-37,-35,-11
0,4,4,-2,-1,4,-3,-22,-41,-36,-34,-11
0,4,3,-2,-1,3,-3,-22,-41,-36,-34,-10
1,4,2,-2,0,3,-3,-21,-40,-36,-34,-10
1,4,2,-2,0,2,-3,-21,-40,-36,-34,-10
1,2,1,-1,0,1,-3,-22,-41,-37,-34,-11
0,1,1,0,0,1,-4,-22,-42,-37,-34,-11
0,1,1,0,0,1,-4,-23,-42,-37,-34,-11
0,1,1,0,0,1,-4,-23,-43,-38,-35,-12
1,2,0,-1,1,0,-4,-24,-45,-39,-35,-12
3,3,-1,-3,2,1,-4,-25,-46,-40,-35,-13
2,3,0,-3,2,1,-4,-26,-46,-40,-35,-13
0,1,0,-1,1,0,-4,-26,-47,-41,-35,-13
0,0,0,0,0,0,-4,-26,-47,-41,-35,-13
0,0,1,0,0,0,-3,-25,-46,-40,-34,-13
0,0,1,0,0,0,-2,-24,-45,-39,-33,-12
0,0,0,0,0,0,-1,-23,-44,-38,-33,-12
0,-1,-1,0,1,-2,-1,-22,-44,-38,-33,-13
-1,-1,-2,1,1,-2,-1,-22,-44,-38,-33,-13
-2,-2,-1,2,0,-2,0,-22,-43,-38,-33,-13
-3,-3,-1,3,0,-3,0,-22,-43,-39,-34,-13
-3,-6,-3,5,0,-5,-1,-23,-44,-40,-35,-15
-3,-7,-4,5,1,-6,-2,-24,-45,-42,-36,-16
-4,-8,-4,6,0,-7,-2,-24,-46,-42,-36,-17
-7,-10,-3,8,-1,-7,-2,-24,-46,-43,-37,-18
-8,-10,-2,9,-2,-7,-1,-25,-47,-43,-37,-18
-7,-10,-4,8,0,-7,-1,-25,-48,-44,-38,-19
-6,-10,-5,8,0,-8,-1,-26,-49,-45,-39,-20
-8,-11,-3,9,-1,-8,-1,-26,-49,-46,-40,-20
-9,-12,-2,11,-3,-8,-1,-27,-50,-47,-40,-21
-10,-13,-2,11,-3,-8,-2,-27,-50,-48,-40,-21
-11,-13,-2,12,-4,-8,-2,-27,-50,-48,-40,-21
-12,-13,-1,12,-5,-7,-1,-27,-49,-47,-40,-21
-12,-13,0,12,-5,-7,-1,-26,-48,-47,-39,-21
-10,-12,-1,11,-3,-7,-1,-27,-48,-47,-39,-21
-9,-12,-2,10,-2,-8,0,-27,-48,-47,-39,-21
-8,-12,-2,10,-2,-8,0,-27,-47,-47,-39,-21
-9,-12,-2,10,-2,-8,0,-27,-47,-47,-39,-21
-9,-12,-2,11,-3,-8,0,-27,-47,-47,-39,-22
-10,-12,-2,12,-4,-8,0,-27,-47,-47,-39,-22
-11,-12,-2,12,-4,-8,0,-27,-47,-47,-39,-22
-11,-12,-2,12,-4,-8,0,-27,-47,-47,-39,-22
-11,-12,-1,12,-4,-7,0,-27,-47,-47,-39,-22
-10,-12,-1,11,-4,-7,0,-27,-47,-47,-39,-22
-9,-11,-1,10,-4,-6,0,-26,-47,-46,-39,-21
-7,-10,-2,9,-3,-6,0,-26,-46,-46,-38,-21
-7,-10,-2,8,-2,-7,1,-26,-46,-46,-38,-22
-8,-10,-2,9,-2,-7,1,-24,-45,-45,-38,-22
-9,-10,-2,10,-2,-7,3,-21,-42,-43,-37,-21
-8,-10,-2,9,-2,-7,5,-17,-37,-40,-35,-21
-6,-10,-4,8,0,-7,7,-11,-32,-36,-33,-20
-6,-10,-4,8,-1,-7,9,-7,-26,-32,-31,-19
-8,-9,-1,8,-3,-6,9,-7,-22,-28,-29,-17
-8,-7,0,7,-4,-4,5,-11,-21,-26,-26,-15
-6,-5,1,6,-3,-3,-2,-22,-24,-24,-24,-13
-5,-5,0,5,-2,-3,-13,-38,-30,-24,-22,-11
-4,-4,0,4,-1,-3,-28,-58,-38,-25,-21,-10
-3,-3,0,3,-1,-2,-45,-78,-46,-24,-19,-8
-2,-1,0,1,-1,0,-62,-96,-52,-22,-16,-5
1,1,0,-1,0,0,-77,-110,-56,-17,-11,0
5,5,0,-5,3,1,-91,-120,-58,-11,-5,4
10,8,-2,-9,7,2,-103,-126,-58,-4,1,10
16,12,-4,-14,11,3,-115,-130,-57,3,9,17
22,16,-5,-19,14,5,-126,-133,-57,10,17,25
27,21,-5,-24,17,7,-136,-136,-57,16,23,31
30,25,-4,-27,17,10,-145,-139,-58,19,28,37
31,29,-1,-30,17,14,-153,-142,-59,21,32,42
33,34,0,-33,17,17,-159,-144,-61,22,35,46
34,38,3,-35,16,20,-165,-148,-63,21,37,50
32,43,11,-37,11,26,-169,-152,-66,19,39,54
29,49,20,-39,5,34,-170,-155,-69,15,39,56
28,56,29,-41,0,42,-168,-155,-70,9,37,56
26,62,36,-43,-4,48,-160,-150,-68,4,33,54
21,63,41,-41,-9,52,-146,-137,-60,1,28,48
14,59,45,-36,-14,52,-129,-120,-49,1,22,41
7,52,44,-29,-17,48,-110,-99,-35,3,17,33
2,43,40,-23,-18,42,-91,-77,-20,6,12,24
0,36,36,-18,-17,36,-72,-55,-4,11,8,16
-2,30,32,-14,-16,30,-56,-35,11,18,7,11
-3,26,29,-11,-15,27,-43,-17,24,26,8,8
-2,24,27,-11,-14,25,-32,-2,35,33,10,7
-1,23,24,-10,-12,22,-23,9,43,38,11,7
0,20,20,-9,-9,19,-17,17,49,40,11,5
0,17,16,-8,-7,16,-11,24,54,42,11,4
0,13,13,-6,-6,13,-5,31,58,44,12,4
-1,9,11,-4,-5,10,-1,37,62,46,13,3
-2,6,8,-2,-5,7,3,42,66,49,13,3
-2,3,5,0,-3,4,6,47,69,51,14,3
0,1,2,0,-1,1,10,51,71,53,15,3
2,0,-2,0,2,-1,12,55,72,54,16,3
3,-1,-5,-1,5,-3,14,57,74,55,17,3
3,-3,-6,0,5,-5,15,58,74,55,16,3
1,-5,-7,1,5,-6,16,59,75,54,16,2
0,-5,-6,2,4,-6,17,60,76,54,16,2
0,-4,-4,2,3,-5,18,62,77,54,16,2
1,-4,-4,1,3,-5,19,63,77,55,16,2
1,-5,-5,2,3,-6,19,64,76,55,16,1
0,-7,-6,4,3,-7,19,64,76,55,16,0
0,-7,-6,4,3,-8,20,65,76,55,16,1
1,-7,-8,3,4,-8,21,65,77,55,17,1
3,-6,-9,1,6,-8,22,65,78,55,17,1
3,-5,-9,0,6,-8,22,66,79,56,18,2
3,-6,-9,1,6,-8,23,66,79,57,19,2
2,-7,-8,2,5,-8,23,67,80,57,19,2
2,-6,-7,2,5,-7,24,68,81,58,19,2
3,-5,-7,1,5,-7,25,69,82,59,20,3
4,-5,-9,1,7,-8,25,70,82,59,20,3
4,-5,-10,0,8,-8,25,70,82,60,20,3
4,-6,-10,1,8,-9,25,70,83,60,21,4
3,-7,-11,2,8,-10,24,70,83,60,21,4
1,-10,-11,4,7,-11,24,70,83,59,21,3
0,-11,-10,5,6,-11,25,70,84,60,21,3
0,-10,-9,4,5,-10,26,72,85,61,22,4
1,-8,-9,3,6,-9,27,73,86,63,23,4
4,-6,-10,1,7,-9,28,74,87,64,23,4
5,-5,-11,0,9,-9,28,74,87,64,24,4
5,-5,-11,0,9,-9,28,74,88,64,24,4
5,-5,-11,0,9,-9,28,75,88,64,24,5
6,-5,-12,0,9,-9,28,75,89,64,25,5
6,-6,-13,0,9,-10,27,75,89,64,25,4
5,-8,-13,1,9,-11,27,76,89,65,25,4
5,-8,-13,2,8,-11,28,77,90,65,25,5
5,-8,-12,2,8,-11,28,77,91,66,26,5
5,-8,-12,2,8,-11,28,78,91,67,26,5
5,-8,-13,2,9,-11,28,78,92,67,26,5
5,-8,-13,2,9,-11,28,79,92,67,26,5
5,-7,-13,1,9,-11,29,80,93,68,27,6
4,-7,-12,1,8,-10,29,81,94,68,28,6
4,-7,-12,1,8,-10,30,82,95,69,28,6
4,-7,-12,1,8,-11,30,83,95,69,28,6
4,-8,-12,2,8,-11,31,84,96,69,29,6
4,-7,-11,1,8,-9,31,85,97,70,30,6
5,-5,-11,0,8,-8,32,87,98,72,31,7
6,-4,-11,0,9,-8,33,88,99,73,31,8
5,-5,-11,0,8,-8,32,89,100,73,31,8
5,-5,-11,0,8,-9,32,89,100,73,31,8
6,-5,-11,-1,9,-9,33,90,101,74,31,8
9,-3,-12,-3,11,-8,34,92,102,74,32,8
10,-2,-12,-4,11,-8,35,93,103,75,32,8
9,-3,-12,-3,11,-8,35,94,104,75,33,8
8,-3,-12,-2,10,-8,36,95,105,76,33,9
8,-3,-13,-2,11,-8,36,96,105,77,34,9
8,-4,-13,-2,11,-8,37,97,106,77,34,10
7,-5,-14,-1,11,-9,37,98,106,78,35,10
8,-5,-14,-1,11,-10,37,99,107,78,35,10
9,-6,-14,-1,11,-10,38,100,108,79,36,11
8,-5,-13,0,10,-9,39,102,110,80,37,12
8,-4,-12,-1,10,-8,40,104,111,81,38,12
9,-4,-12,-2,10,-8,41,105,112,82,38,12
9,-3,-12,-3,11,-8,41,105,112,82,38,12
10,-2,-12,-4,11,-7,42,106,113,83,38,12
12,-1,-13,-5,13,-7,42,107,113,83,38,13
12,-1,-13,-5,13,-7,42,108,114,83,39,13
12,-2,-13,-5,13,-8,42,109,114,83,39,13
12,-2,-14,-5,13,-8,42,110,115,83,39,13
13,-2,-15,-5,14,-9,43,110,115,83,39,13
14,0,-15,-7,15,-8,44,112,117,84,40,13
13,0,-13,-7,14,-7,45,113,118,85,41,14
11,0,-11,-5,12,-6,46,114,119,86,41,15
10,0,-10,-5,11,-6,46,115,119,86,41,15
12,1,-11,-7,12,-6,46,116,120,86,41,16
15,2,-13,-9,15,-6,46,116,120,86,41,16
17,3,-14,-10,16,-5,47,116,120,86,41,16
16,3,-13,-9,15,-4,48,117,120,87,41,16
13,2,-11,-7,12,-4,48,117,120,87,41,16
12,2,-9,-6,11,-3,49,117,120,87,41,16
12,3,-9,-7,11,-3,49,116,119,86,41,15
12,4,-9,-8,10,-3,48,116,119,86,41,15
11,3,-8,-7,9,-3,48,116,118,86,41,16
11,3,-7,-7,9,-3,47,115,117,85,41,16
11,3,-8,-7,10,-3,47,114,116,84,40,15
11,3,-7,-6,9,-2,48,113,115,83,39,15
9,3,-6,-6,8,-1,48,112,114,82,39,15
8,3,-5,-5,7,-1,48,111,113,81,38,15
7,3,-5,-5,6,-1,47,109,110,79,37,14
8,3,-5,-5,7,-1,46,107,108,77,36,13
11,6,-5,-8,8,0,46,106,107,76,36,14
13,8,-4,-10,9,1,47,105,106,76,36,15
13,9,-3,-11,8,2,47,103,104,74,35,15
13,9,-3,-11,8,3,47,100,101,72,34,14
13,9,-3,-11,8,3,46,98,98,70,33,14
13,9,-3,-11,8,3,46,95,95,68,32,14
12,9,-3,-11,7,3,45,92,92,65,31,14
10,8,-2,-9,6,3,44,89,89,63,30,13
8,7,-1,-8,5,3,43,86,86,60,29,12
7,7,0,-7,4,3,43,83,82,57,27,12
8,7,0,-7,4,3,41,79,78,54,25,11
9,7,-1,-7,5,2,40,75,73,50,23,10
9,7,-1,-8,6,2,38,71,69,47,22,9
9,7,-2,-8,6,2,37,67,65,44,20,8
8,8,0,-8,4,4,36,64,61,42,19,8
6,9,2,-7,2,5,35,60,58,39,18,8
4,9,4,-7,0,6,34,56,54,36,17,7
6,10,4,-8,1,6,32,52,49,33,15,6
7,11,4,-9,2,7,31,47,45,30,13,6
7,11,4,-9,1,7,30,42,40,26,10,5
5,10,5,-7,0,7,28,38,35,21,8,4
4,9,5,-6,0,7,26,33,30,17,6,3
3,8,4,-5,0,6,24,28,25,13,3,1
3,8,4,-5,0,6,23,24,20,10,1,0
2,7,4,-5,0,5,21,19,15,7,0,0
2,7,3,-5,0,5,20,15,11,3,-2,-1
2,7,3,-5,0,5,19,11,7,0,-4,-2
2,7,3,-5,0,5,18,7,3,-3,-5,-3
3,6,3,-5,0,4,16,3,-1,-6,-7,-4
2,5,2,-4,0,4,15,-1,-6,-10,-10,-5
1,4,2,-3,0,3,13,-5,-10,-13,-12,-6
1,3,1,-3,0,2,11,-8,-14,-16,-14,-8
2,3,0,-3,1,1,10,-12,-18,-19,-16,-9
1,2,0,-2,1,1,9,-14,-20,-21,-18,-10
-1,1,1,0,-1,1,8,-17,-23,-23,-19,-11
-2,0,2,1,-2,1,7,-20,-26,-25,-21,-12
-3,-1,2,2,-2,0,6,-22,-28,-27,-23,-12
-4,-2,2,3,-3,0,5,-25,-31,-29,-24,-13
-6,-3,2,4,-4,0,4,-27,-34,-31,-26,-14
-6,-3,2,5,-4,0,3,-28,-36,-33,-27,-15
-5,-3,1,4,-3,-1,3,-30,-38,-35,-29,-15
-4,-3,0,3,-2,-1,2,-31,-39,-36,-29,-16
-4,-4,0,4,-2,-2,2,-33,-41,-37,-30,-17
-5,-5,0,5,-3,-3,1,-34,-42,-39,-31,-18
-5,-5,0,5,-2,-3,1,-35,-43,-40,-32,-18
-4,-5,0,4,-2,-2,1,-36,-44,-40,-33,-18
-5,-5,0,5,-2,-2,1,-37,-45,-41,-33,-18
-6,-6,1,6,-3,-3,0,-38,-46,-42,-34,-18
-6,-6,0,6,-3,-3,0,-39,-47,-42,-34,-19
-5,-5,0,5,-2,-3,0,-39,-48,-43,-35,-19
-4,-5,-1,5,-1,-3,0,-40,-49,-44,-35,-20
-5,-6,-1,5,-2,-3,0,-40,-50,-44,-36,-20
-5,-6,-1,5,-2,-3,0,-41,-50,-45,-37,-21
-4,-6,-1,5,-1,-4,-1,-42,-51,-46,-38,-21
-3,-6,-2,4,0,-4,-1,-42,-51,-46,-39,-22
-3,-6,-2,4,0,-4,-1,-43,-52,-47,-40,-22
-3,-6,-3,4,0,-5,-2,-43,-52,-47,-40,-23
-3,-6,-3,4,0,-4,-2,-43,-52,-47,-41,-22
-4,-6,-1,5,-1,-4,-2,-42,-52,-47,-40,-22
-6,-6,-1,6,-2,-4,-2,-42,-51,-47,-40,-21
-6,-7,-1,7,-2,-5,-2,-43,-52,-47,-40,-22
-5,-7,-2,7,-1,-5,-3,-43,-52,-47,-40,-22
-5,-7,-2,7,-1,-6,-3,-43,-52,-47,-40,-22
-5,-8,-3,7,-1,-6,-4,-43,-52,-47,-40,-22
-5,-8,-2,7,-1,-6,-5,-43,-52,-47,-40,-22
-7,-8,-1,8,-3,-5,-5,-43,-52,-47,-40,-22
-8,-9,0,9,-4,-5,-5,-43,-52,-47,-39,-22
-7,-8,0,8,-3,-5,-5,-43,-52,-47,-39,-22
-6,-8,-1,7,-1,-5,-6,-43,-52,-48,-40,-23
-4,-8,-2,6,0,-6,-5,-43,-52,-48,-40,-23
-4,-6,-2,5,0,-5,-4,-42,-51,-47,-40,-22
-5,-6,0,6,-2,-4,-4,-41,-51,-47,-39,-22
-6,-6,0,6,-3,-4,-4,-41,-51,-47,-39,-22
-6,-6,0,6,-2,-4,-5,-42,-51,-47,-40,-22
-5,-6,-1,6,-2,-4,-5,-42,-51,-47,-39,-23
-5,-5,-1,5,-1,-4,-4,-41,-50,-46,-39,-23
-4,-5,-1,5,-1,-4,-4,-41,-50,-46,-38,-23
-5,-6,-1,6,-1,-4,-4,-41,-50,-46,-39,-23
-5,-6,0,6,-1,-4,-4,-41,-50,-46,-39,-23
-6,-6,0,6,-2,-3,-4,-40,-49,-45,-38,-23
-6,-6,0,6,-3,-3,-4,-40,-49,-45,-38,-23
-7,-7,0,7,-3,-3,-4,-40,-49,-45,-38,-23
-7,-8,0,8,-3,-4,-4,-40,-49,-46,-39,-24
-8,-9,0,8,-3,-4,-5,-41,-50,-46,-39,-24
-9,-9,0,9,-4,-5,-5,-41,-50,-46,-39,-25
-9,-9,0,9,-4,-5,-5,-41,-49,-46,-39,-25
-8,-8,0,8,-4,-4,-5,-40,-49,-46,-38,-24
-7,-7,0,7,-3,-4,-4,-40,-49,-45,-38,-24
-7,-7,0,7,-4,-3,-4,-40,-49,-45,-38,-24
-8,-8,1,8,-4,-3,-4,-40,-49,-45,-38,-24
-8,-8,0,9,-4,-4,-5,-40,-49,-45,-38,-24
-7,-8,0,8,-3,-5,-6,-40,-49,-45,-38,-24
-7,-7,0,8,-3,-4,-5,-40,-48,-45,-37,-23
-7,-6,1,7,-3,-3,-5,-40,-47,-44,-36,-23
-7,-7,1,7,-3,-4,-5,-40,-48,-45,-37,-23
-8,-7,1,7,-3,-4,-5,-41,-48,-45,-38,-24
-8,-7,1,7,-3,-4,-5,-41,-48,-45,-39,-24
-6,-7,0,6,-2,-4,-5,-41,-48,-46,-39,-24
-5,-6,0,5,-1,-4,-5,-41,-48,-46,-39,-24
-5,-6,0,5,-2,-4,-4,-41,-48,-45,-39,-23
-5,-5,0,5,-2,-3,-4,-41,-48,-45,-38,-23
-6,-5,1,6,-3,-3,-4,-41,-48,-45,-38,-23
-7,-6,1,6,-4,-3,-4,-41,-48,-45,-38,-23
-7,-6,1,7,-4,-3,-5,-41,-49,-46,-39,-23
-8,-7,1,7,-4,-3,-6,-41,-49,-46,-39,-23
-9,-7,1,8,-5,-3,-6,-41,-49,-46,-39,-23
-9,-7,2,8,-5,-3,-6,-41,-49,-46,-39,-23
-8,-7,2,8,-5,-3,-6,-41,-49,-46,-39,-23
-8,-7,2,8,-5,-3,-6,-42,-50,-46,-39,-23
-7,-6,2,7,-4,-3,-7,-42,-50,-46,-39,-23
-6,-5,1,5,-3,-3,-7,-42,-50,-46,-38,-23
-6,-5,1,5,-3,-3,-7,-42,-50,-47,-39,-23
-8,-5,2,6,-4,-2,-7,-43,-50,-47,-39,-22
-9,-6,3,7,-5,-2,-7,-43,-51,-47,-39,-22
-9,-6,2,8,-4,-3,-7,-44,-51,-47,-39,-23
-9,-7,1,8,-4,-3,-8,-44,-52,-48,-39,-23
-9,-8,1,8,-4,-4,-8,-45,-53,-48,-39,-23
-8,-7,1,8,-4,-3,-7,-45,-53,-48,-39,-23
-8,-7,2,8,-5,-3,-7,-45,-53,-48,-39,-23
-8,-7,2,8,-5,-3,-7,-45,-53,-48,-39,-23
-8,-7,2,8,-5,-3,-7,-45,-53,-48,-40,-23
-8,-7,2,8,-5,-2,-8,-45,-53,-48,-40,-23
-9,-6,3,8,-6,-1,-7,-45,-53,-48,-39,-22
-9,-5,4,7,-7,0,-7,-45,-53,-47,-39,-21
-9,-5,4,7,-7,0,-7,-46,-53,-48,-39,-22
-9,-6,3,8,-6,-2,-8,-47,-54,-49,-40,-23
-10,-7,2,9,-6,-3,-9,-48,-55,-50,-40,-24
-10,-8,2,9,-6,-3,-9,-48,-56,-50,-41,-24
-11,-8,2,9,-6,-3,-10,-48,-56,-50,-41,-24
-10,-8,2,9,-6,-3,-10,-48,-56,-50,-41,-24
-8,-7,1,7,-4,-3,-10,-48,-56,-50,-41,-23
-5,-5,0,5,-2,-2,-10,-48,-56,-50,-41,-23
-5,-5,0,5,-2,-2,-10,-48,-56,-50,-41,-23
-7,-6,1,7,-4,-2,-10,-48,-56,-50,-41,-23
-9,-7,2,8,-5,-2,-10,-48,-56,-50,-41,-23
-10,-8,2,9,-6,-2,-10,-48,-56,-50,-41,-23
-10,-8,2,9,-5,-2,-10,-49,-56,-50,-41,-23
-10,-8,2,9,-5,-3,-10,-49,-56,-50,-41,-23
-9,-8,2,9,-5,-3,-10,-49,-56,-50,-40,-23
-8,-7,1,8,-5,-3,-10,-49,-56,-50,-40,-23
-8,-7,1,8,-5,-3,-10,-50,-56,-50,-40,-23
-8,-8,1,8,-5,-3,-10,-50,-57,-50,-40,-23
-8,-7,0,8,-4,-3,-10,-50,-57,-50,-40,-23
-7,-7,0,7,-3,-3,-10,-50,-57,-50,-40,-23
-7,-7,0,7,-3,-4,-10,-50,-57,-50,-40,-23
-7,-6,0,7,-3,-3,-10,-49,-56,-50,-39,-23
-8,-5,2,7,-5,-1,-9,-48,-55,-49,-38,-22
-8,-4,3,7,-5,0,-8,-48,-55,-48,-38,-22
-6,-4,2,6,-4,-1,-8,-48,-55,-48,-39,-22
-5,-4,1,5,-3,-1,-8,-48,-55,-48,-39,-22
-5,-4,1,5,-3,-1,-8,-48,-55,-48,-39,-22
-7,-4,2,5,-4,-1,-8,-48,-55,-48,-38,-22
-7,-4,2,5,-5,0,-8,-48,-55,-48,-38,-22
-6,-3,2,4,-4,0,-8,-48,-55,-48,-38,-22
-5,-2,2,3,-3,0,-7,-47,-55,-47,-38,-22
-4,-2,2,3,-3,0,-7,-47,-54,-47,-38,-21
-5,-2,3,3,-4,1,-6,-46,-53,-45,-37,-21
-8,-2,6,5,-7,2,-4,-44,-51,-44,-36,-20
-9,-2,8,6,-9,3,-4,-43,-50,-43,-35,-19
-8,-2,7,5,-8,2,-4,-43,-50,-43,-35,-19
-6,-1,4,3,-5,2,-4,-43,-50,-43,-35,-20
-3,0,3,1,-3,2,-4,-43,-49,-42,-34,-19
-1,3,4,-1,-3,4,-4,-41,-48,-40,-32,-17
0,4,5,-2,-3,5,-3,-40,-47,-39,-31,-15
0,5,5,-3,-3,6,-4,-40,-46,-39,-30,-15
1,5,5,-3,-2,5,-5,-41,-46,-38,-29,-14
1,5,5,-3,-2,5,-6,-41,-46,-37,-28,-13
1,6,6,-4,-2,6,-7,-41,-45,-36,-27,-12
0,8,7,-4,-3,8,-8,-40,-43,-34,-25,-10
1,10,9,-5,-4,10,-8,-39,-41,-32,-23,-8
1,13,12,-6,-5,13,-8,-38,-40,-30,-20,-6
1,14,14,-7,-7,15,-8,-37,-38,-28,-18,-4
0,16,17,-8,-8,17,-8,-35,-36,-25,-16,-2
1,19,19,-10,-9,20,-8,-33,-32,-22,-14,0
3,23,21,-13,-9,22,-6,-31,-28,-19,-11,3
3,27,24,-15,-11,26,-4,-27,-24,-15,-7,6
1,31,29,-16,-14,30,-1,-23,-20,-11,-3,9
1,34,33,-18,-16,34,1,-20,-16,-7,0,12
2,38,36,-20,-17,37,3,-17,-13,-4,3,14
1,40,39,-20,-18,40,5,-15,-10,-1,5,16
-1,41,42,-20,-21,42,7,-12,-7,1,7,18
-2,42,46,-19,-24,44,9,-9,-3,4,10,19
-3,45,49,-20,-26,46,12,-5,1,8,13,21
-5,47,53,-21,-28,49,15,-1,6,12,16,24
-6,49,56,-21,-31,52,18,3,11,16,19,26
-8,50,58,-21,-32,54,20,7,15,20,22,28
-8,52,61,-22,-34,57,22,11,19,23,24,30
-9,53,64,-22,-36,59,24,15,24,27,27,31
-11,55,67,-21,-38,61,27,19,29,31,30,33
-13,56,71,-21,-41,63,29,23,34,35,32,34
-13,58,72,-22,-42,65,31,26,38,37,34,34
-10,61,73,-25,-41,66,33,28,41,39,35,34
-9,63,74,-27,-41,68,36,32,45,41,36,34
-11,65,77,-26,-44,71,39,36,49,45,38,35
-14,66,81,-25,-48,74,43,42,55,49,40,36
-17,67,85,-24,-51,76,46,47,60,54,43,36
-20,66,87,-23,-53,77,49,51,65,58,45,36
-22,65,87,-21,-54,77,51,55,70,61,46,36
-22,64,87,-20,-55,76,53,60,74,64,47,36
-22,64,87,-20,-54,75,56,64,79,67,48,35
-21,64,85,-21,-53,75,57,69,83,70,49,35
-20,63,83,-21,-52,73,58,72,86,73,50,35
-20,61,81,-20,-51,72,58,75,90,77,52,34
-20,60,80,-20,-50,71,59,78,95,82,54,35
-20,60,80,-20,-49,71,61,83,102,88,58,36
-17,62,79,-22,-48,71,63,89,110,96,63,38
-15,63,78,-24,-47,71,66,95,117,103,67,40
-15,62,77,-23,-46,70,68,99,124,109,69,41
-15,60,76,-22,-45,68,69,103,129,113,71,41
-15,58,74,-21,-44,66,71,107,133,117,72,41
-15,56,72,-20,-44,64,73,111,138,121,73,41
-15,54,70,-19,-43,62,75,116,142,125,74,39
-15,50,66,-17,-41,58,77,120,145,128,75,37
-15,48,63,-16,-39,55,79,124,148,129,74,35
-14,46,60,-16,-37,53,81,126,149,129,73,33
-15,43,59,-14,-37,51,84,129,150,128,71,32
-17,40,58,-11,-37,49,87,131,150,125,69,30
-19,38,57,-9,-37,47,91,133,149,120,65,27
-21,35,57,-7,-37,46,96,134,147,114,60,24
-22,33,55,-5,-38,44,100,134,144,107,54,20
-21,30,51,-4,-36,40,104,133,140,100,49,15
-22,26,48,-2,-35,37,106,130,136,94,43,11
-23,23,46,0,-35,35,108,125,133,89,39,7
-24,21,45,1,-35,32,108,117,129,85,35,5
-25,19,44,3,-34,31,106,106,124,81,31,3
-25,18,44,3,-34,31,101,92,118,76,27,1
-25,18,44,3,-34,31,94,78,111,71,24,0
-25,18,44,3,-34,31,84,65,103,66,21,-2
-25,18,43,3,-34,31,72,53,96,62,19,-3
-25,16,43,4,-34,30,60,44,91,60,17,-4
-25,15,41,5,-33,28,49,37,87,58,16,-5
-23,13,37,5,-30,25,39,32,83,57,15,-6
-21,12,33,4,-27,22,31,28,81,57,15,-5
-18,11,29,3,-23,19,23,26,79,58,16,-3
-13,10,23,1,-18,17,15,24,77,59,16,-2
-7,9,16,-1,-12,13,8,22,74,58,16,-1
-4,5,10,-1,-7,8,2,21,69,57,15,-2
-2,1,4,0,-4,3,-1,20,65,54,14,-3
-1,-2,0,1,-1,0,-4,20,61,51,13,-4
0,-4,-4,2,1,-4,-6,20,58,48,11,-5
0,-6,-7,2,4,-7,-8,20,54,45,9,-6
1,-8,-10,2,6,-9,-8,21,52,43,7,-7
2,-10,-13,3,7,-11,-8,21,49,40,5,-7
2,-13,-15,5,9,-14,-8,22,47,38,4,-8
3,-15,-18,6,10,-16,-8,22,45,36,3,-9
6,-15,-21,5,13,-17,-8,22,43,35,2,-9
9,-15,-22,3,15,-18,-8,22,41,34,2,-9
8,-15,-22,3,15,-18,-8,21,40,33,2,-8
6,-15,-22,4,14,-19,-8,20,38,32,2,-8
6,-16,-22,5,14,-19,-7,19,37,31,1,-8
6,-16,-23,5,14,-20,-8,18,36,30,1,-8
6,-17,-23,5,15,-20,-8,18,35,30,0,-8
6,-18,-24,6,15,-21,-9,17,34,29,0,-8
7,-18,-25,5,16,-21,-9,17,33,29,0,-8
8,-18,-26,5,17,-21,-10,16,32,28,0,-9
8,-19,-26,5,17,-22,-11,16,31,27,-1,-9
8,-19,-27,5,17,-23,-11,15,30,26,-1,-10
6,-21,-27,7,17,-24,-12,14,29,25,-2,-10
5,-23,-28,8,17,-25,-13,13,28,24,-3,-11
4,-24,-28,9,16,-26,-14,13,28,24,-4,-11
4,-23,-28,9,16,-25,-14,14,28,24,-4,-11
6,-21,-28,8,17,-24,-13,14,28,24,-3,-10
9,-19,-28,6,18,-24,-12,15,28,25,-3,-10
10,-19,-29,5,19,-24,-13,15,28,25,-3,-10
10,-19,-29,5,19,-25,-13,14,27,24,-3,-10
9,-20,-30,6,19,-25,-13,14,27,24,-3,-11
9,-21,-31,6,20,-26,-13,14,26,23,-4,-11
10,-21,-31,5,21,-26,-13,14,26,23,-4,-11
10,-21,-32,5,21,-26,-13,14,25,22,-5,-11
9,-23,-33,7,21,-28,-14,13,24,21,-6,-12
9,-25,-34,9,21,-29,-15,12,22,20,-8,-14
9,-26,-35,9,21,-30,-16,11,21,19,-8,-14
9,-26,-35,9,21,-31,-17,11,21,19,-8,-15
10,-26,-35,8,22,-31,-17,11,21,19,-8,-15
10,-26,-35,8,22,-31,-17,11,21,18,-9,-15
10,-26,-36,8,23,-31,-17,11,20,18,-9,-15
