leadI,leadII,leadIII,leadaVR,leadaVL,leadaVF,leadV1,leadV2,leadV3,leadV4,leadV5,leadV6
0,0,0,0,0,0,0,0,0,0,0,-1
1,1,0,-1,0,0,-1,-1,-1,-1,0,-4
2,2,0,-1,0,1,-2,-1,-2,-2,-1,-5
2,2,0,-2,1,1,-2,-1,-2,-1,-1,-6
3,2,0,-2,1,1,-2,0,-1,-1,-1,-7
3,2,0,-2,1,1,-2,2,-1,0,0,-7
3,2,0,-2,1,1,-1,2,0,0,0,-7
2,1,-1,-2,1,0,0,2,-1,0,-1,-8
1,0,-1,-1,1,0,1,1,-2,-1,-2,-8
0,0,-1,0,0,0,2,0,-3,-2,-3,-9
0,-1,-1,1,0,-1,3,0,-3,-3,-3,-10
-1,-2,-1,2,0,-2,4,0,-3,-3,-3,-11
-2,-3,-1,3,0,-2,5,1,-3,-2,-3,-11
-2,-3,-1,3,-1,-2,5,2,-3,-2,-4,-12
-3,-4,-1,3,-1,-2,6,3,-3,-2,-4,-12
-3,-4,-1,3,-1,-2,6,4,-3,-2,-4,-13
-3,-5,-1,4,-1,-3,6,3,-4,-2,-5,-13
-3,-5,-1,4,-1,-3,6,3,-4,-3,-5,-14
-4,-6,-1,5,-1,-4,6,2,-4,-4,-6,-14
-4,-6,-1,5,-1,-4,7,2,-4,-5,-6,-14
-4,-6,-1,5,-1,-4,7,2,-4,-5,-7,-14
-4,-6,-1,5,-1,-4,7,2,-4,-5,-7,-14
-4,-6,-1,5,-1,-4,8,3,-4,-5,-7,-14
-4,-6,-1,5,-1,-4,8,3,-4,-5,-7,-14
-4,-6,-2,5,-1,-4,8,4,-4,-5,-7,-15
-4,-7,-2,5,-1,-4,8,4,-5,-5,-7,-15
-4,-7,-2,6,-1,-4,8,3,-5,-6,-7,-16
-4,-7,-2,6,-1,-4,8,3,-4,-6,-7,-15
-4,-7,-2,6,-1,-5,8,4,-4,-6,-7,-15
-4,-8,-3,6,-1,-5,8,4,-4,-6,-7,-15
-4,-8,-3,6,-1,-5,8,4,-4,-6,-7,-16
-5,-8,-3,6,-1,-5,8,3,-4,-6,-8,-16
-5,-8,-3,6,-1,-5,8,3,-4,-6,-8,-16
-5,-8,-3,6,-1,-5,8,4,-4,-6,-8,-16
-5,-8,-3,7,-1,-5,8,4,-4,-6,-8,-16
-5,-8,-3,7,-1,-5,8,4,-4,-6,-8,-16
-5,-8,-3,7,-1,-5,9,4,-4,-6,-8,-16
-5,-8,-3,7,-1,-5,9,4,-4,-6,-8,-16
-5,-8,-3,7,-2,-5,9,4,-4,-6,-8,-16
-5,-8,-3,7,-2,-5,9,4,-4,-6,-8,-16
-5,-8,-3,7,-2,-5,9,4,-4,-6,-8,-16
-5,-8,-3,7,-2,-5,9,4,-4,-6,-8,-16
-5,-9,-3,7,-2,-5,9,4,-4,-6,-8,-16
-5,-9,-3,7,-2,-5,9,4,-4,-6,-8,-16
-5,-9,-3,7,-1,-6,10,5,-3,-6,-8,-16
-5,-10,-4,8,-1,-6,11,7,-1,-6,-8,-17
-6,-11,-4,9,-1,-7,12,9,1,-4,-8,-18
-7,-11,-4,10,-2,-7,15,12,5,-2,-8,-21
-8,-11,-2,10,-3,-6,19,14,10,1,-9,-25
-10,-11,-1,11,-5,-5,22,18,16,7,-8,-28
-11,-11,0,11,-6,-4,25,21,26,17,-4,-30
-11,-11,1,11,-7,-4,29,26,39,30,1,-30
-12,-10,2,11,-8,-3,31,31,55,48,11,-28
-11,-8,3,10,-8,-2,33,36,72,69,25,-22
-9,-6,4,8,-7,0,33,41,90,93,45,-11
-7,-3,3,5,-6,0,33,45,107,116,67,3
-4,-1,3,3,-4,1,32,49,120,136,90,20
-1,0,1,0,-2,1,29,51,125,148,108,37
2,1,0,-2,1,1,24,48,117,143,116,53
6,3,-1,-5,3,2,16,38,93,121,112,65
8,6,-2,-7,4,3,4,23,59,85,97,72
10,8,-2,-9,5,4,-8,3,15,39,73,74
12,11,0,-11,5,6,-21,-20,-40,-17,38,69
13,14,1,-13,5,8,-33,-43,-98,-77,0,61
12,17,5,-14,3,11,-42,-64,-145,-125,-32,53
10,21,12,-15,-1,16,-47,-79,-174,-155,-54,47
6,25,20,-16,-7,22,-48,-88,-187,-167,-67,40
3,27,25,-15,-11,26,-48,-91,-188,-169,-73,34
1,27,27,-14,-13,28,-47,-89,-181,-163,-75,27
0,27,28,-13,-15,28,-46,-84,-168,-152,-74,20
-2,26,28,-12,-15,28,-43,-78,-151,-137,-70,12
-2,25,28,-11,-15,27,-41,-71,-134,-122,-65,4
-2,24,27,-11,-15,26,-38,-65,-117,-108,-60,-4
-2,23,25,-10,-14,24,-36,-58,-102,-95,-55,-10
-2,20,23,-9,-13,22,-33,-51,-88,-83,-51,-15
-2,17,20,-8,-11,19,-30,-44,-76,-73,-47,-19
-2,14,17,-6,-10,16,-25,-38,-65,-63,-43,-21
-2,10,14,-4,-9,13,-21,-32,-56,-55,-39,-23
-3,7,11,-2,-8,10,-16,-26,-48,-48,-35,-23
-3,5,9,0,-7,7,-12,-21,-41,-41,-32,-24
-4,3,7,0,-6,6,-8,-17,-34,-35,-28,-23
-4,1,6,1,-6,4,-4,-12,-28,-29,-23,-23
-5,0,5,2,-5,3,-1,-8,-22,-23,-19,-22
-5,-1,4,3,-5,2,1,-5,-17,-19,-16,-21
-5,-2,4,3,-5,2,3,-3,-13,-15,-14,-20
-5,-2,3,4,-5,1,4,-1,-10,-13,-13,-19
-6,-2,3,4,-5,1,5,0,-7,-11,-12,-19
-6,-2,3,4,-6,1,6,0,-5,-9,-10,-18
-7,-2,4,5,-7,1,7,0,-4,-7,-9,-18
-8,-3,5,6,-7,1,8,0,-2,-5,-8,-18
-7,-3,4,6,-7,1,8,1,-1,-4,-7,-18
-6,-3,4,5,-6,0,9,2,-1,-3,-7,-18
-6,-3,4,5,-5,0,8,3,0,-3,-6,-18
-6,-4,4,5,-5,0,8,4,0,-2,-6,-18
-6,-4,3,5,-5,0,8,4,1,-2,-6,-18
-6,-4,3,5,-5,0,8,4,1,-1,-5,-18
-5,-3,2,5,-4,0,8,4,2,-1,-5,-18
-5,-3,2,5,-4,0,8,4,2,-1,-4,-18
-5,-3,2,5,-4,0,8,4,2,0,-4,-17
-5,-3,2,4,-4,0,8,4,3,0,-3,-17
-5,-3,3,4,-4,0,8,4,3,0,-3,-16
-5,-3,3,4,-4,0,8,4,4,1,-3,-16
-5,-3,3,4,-4,0,8,4,4,1,-3,-15
-5,-3,2,4,-4,0,8,5,4,1,-3,-15
-5,-2,2,4,-4,0,8,6,5,2,-3,-15
-5,-2,2,4,-4,0,8,6,5,2,-2,-15
-5,-2,3,4,-4,0,8,7,6,3,-2,-15
-5,-2,3,4,-4,0,8,7,6,3,-2,-14
-4,-2,3,4,-4,0,8,7,6,3,-2,-14
-4,-2,3,4,-4,0,8,7,6,3,-1,-14
-4,-2,3,3,-4,0,8,7,6,4,-1,-14
-4,-1,3,3,-4,0,8,7,6,4,-1,-14
-4,-1,3,3,-4,0,8,7,6,5,0,-14
-3,-1,3,2,-4,0,8,7,7,5,0,-14
-3,-1,3,2,-4,0,8,7,7,6,0,-14
-3,-1,2,2,-3,0,8,7,7,6,0,-14
-3,-1,2,2,-3,0,8,8,8,7,0,-13
-3,-1,2,2,-3,0,8,8,9,7,1,-13
-3,-1,2,2,-3,0,8,8,9,8,2,-13
-3,-1,2,2,-3,0,8,8,10,8,2,-12
-3,-1,2,2,-3,1,8,9,10,9,2,-12
-2,0,2,2,-3,1,8,9,11,9,2,-12
-2,0,2,1,-3,1,8,10,11,10,3,-11
-2,0,2,1,-3,1,8,10,12,11,3,-11
-2,0,2,1,-3,1,8,11,13,11,4,-10
-2,0,2,1,-3,1,8,11,13,12,4,-10
-2,0,2,1,-2,1,8,11,14,12,5,-9
-1,0,2,1,-2,1,8,11,14,13,5,-9
-1,0,2,0,-2,1,8,12,15,13,6,-8
0,0,2,0,-2,1,8,13,16,14,7,-7
0,0,2,0,-2,1,8,13,17,15,7,-6
0,0,2,0,-2,1,8,13,18,15,8,-5
0,1,2,0,-1,1,8,13,19,16,8,-4
0,1,2,0,-1,1,8,14,19,16,9,-4
0,2,2,0,-1,1,8,14,21,17,9,-3
0,2,2,0,-1,2,8,15,22,18,10,-3
1,2,2,-1,-1,2,7,15,23,19,10,-2
1,2,2,-1,-1,2,7,16,24,20,11,-1
1,2,2,-1,-1,2,7,16,26,21,12,0
1,2,2,-2,-1,2,7,16,27,22,13,1
1,3,2,-2,-1,2,6,16,29,24,14,2
2,3,2,-2,-1,3,6,16,30,25,15,3
2,4,2,-3,0,3,6,17,32,26,17,4
3,4,2,-3,0,3,6,18,34,28,18,5
3,4,2,-3,0,3,6,19,36,29,20,6
4,5,2,-4,0,3,6,19,38,31,21,7
4,5,1,-4,0,3,5,20,40,32,23,9
5,5,1,-5,1,3,5,21,42,34,24,10
5,5,1,-5,1,3,4,22,43,35,26,12
6,5,0,-6,2,3,3,23,45,36,27,14
6,6,0,-6,2,3,3,23,47,37,29,16
6,6,0,-7,2,3,3,24,48,38,31,17
7,7,0,-7,2,3,2,25,50,39,32,19
7,7,0,-7,3,3,2,25,51,40,33,20
8,7,0,-7,3,3,1,26,51,41,34,21
8,8,0,-8,3,4,1,26,52,42,36,23
9,8,0,-8,3,4,0,26,52,42,37,24
9,8,0,-8,4,4,-1,25,52,43,37,25
10,8,-1,-8,4,4,-1,25,52,43,38,25
10,8,-1,-8,5,3,-2,25,52,43,38,26
10,8,-1,-8,5,3,-2,25,52,42,38,26
10,9,-1,-8,5,4,-2,25,51,42,38,27
10,9,0,-9,5,4,-3,25,51,41,38,28
10,9,0,-9,5,4,-3,25,50,41,38,29
10,9,0,-9,5,4,-4,24,48,40,38,29
10,9,0,-9,4,4,-4,23,47,39,38,29
10,9,0,-9,4,4,-4,22,45,38,37,29
10,9,0,-9,4,4,-4,20,43,37,36,28
10,9,0,-9,4,5,-4,19,40,36,35,28
10,10,0,-9,4,5,-5,17,38,35,34,27
10,10,1,-9,4,6,-5,16,35,33,32,26
9,10,1,-9,3,6,-4,14,32,31,30,25
9,10,2,-9,2,7,-4,13,30,29,28,24
8,10,2,-8,2,7,-4,13,27,27,26,22
7,10,3,-8,1,7,-3,12,24,25,24,20
6,10,4,-7,0,7,-3,11,21,23,22,19
5,10,4,-7,0,7,-2,10,19,21,20,17
5,9,4,-6,0,7,-2,9,17,20,18,16
5,9,4,-6,-1,7,-1,8,15,18,16,14
4,9,4,-6,-1,7,-1,8,13,16,15,12
4,9,4,-6,-1,7,0,7,12,15,13,11
4,8,4,-6,-1,6,0,7,11,14,12,9
4,8,4,-6,-1,6,0,6,10,13,11,8
3,7,4,-5,-1,6,0,6,9,12,10,7
3,7,4,-5,-1,6,1,5,8,11,9,7
2,7,4,-4,-1,6,1,5,7,10,8,6
2,7,4,-4,-1,6,2,5,6,10,7,6
2,7,4,-4,-1,6,2,5,5,9,6,5
2,7,4,-4,-2,6,2,5,5,9,6,5
2,7,5,-4,-2,6,2,5,4,8,5,5
2,7,5,-4,-2,6,2,5,4,8,5,4
2,7,5,-4,-2,6,2,5,4,8,4,4
2,7,5,-4,-2,6,2,5,4,8,4,4
2,7,5,-4,-2,6,2,5,4,8,4,4
2,7,5,-4,-2,6,2,4,4,8,4,3
2,7,5,-5,-1,6,2,4,3,7,4,3
3,7,5,-5,-1,6,2,4,3,7,4,2
3,7,5,-6,-1,6,2,4,3,7,4,2
3,7,5,-6,-1,6,3,4,4,7,5,2
3,8,6,-6,-2,7,3,5,4,8,5,2
3,8,6,-6,-2,7,3,5,5,8,5,2
2,9,7,-6,-3,8,3,5,5,9,5,3
2,11,9,-6,-4,10,3,6,6,10,6,3
2,12,10,-7,-4,11,3,6,6,10,6,3
3,13,11,-8,-4,12,2,5,7,11,7,4
3,14,11,-9,-4,13,2,4,7,11,7,4
3,15,12,-9,-4,13,2,3,7,12,7,4
3,16,14,-9,-6,15,1,3,8,13,8,4
3,17,14,-9,-6,15,1,3,8,13,9,5
4,17,13,-10,-5,15,0,3,8,13,9,4
5,17,13,-11,-4,15,0,3,8,13,8,4
6,18,12,-12,-3,15,0,3,8,13,8,4
6,18,12,-12,-3,15,1,3,8,13,8,4
7,18,12,-12,-3,15,1,3,8,13,8,4
7,19,13,-13,-3,16,1,2,8,13,8,4
7,20,13,-13,-3,17,0,2,8,14,8,4
7,21,14,-14,-4,17,0,2,8,14,8,4
7,21,14,-14,-4,18,-2,1,8,14,8,4
8,22,15,-15,-4,18,-4,0,7,14,8,4
8,22,15,-15,-4,19,-6,-1,6,13,8,4
8,23,16,-15,-4,19,-7,-2,5,13,8,5
8,23,16,-15,-4,19,-9,-2,4,13,8,5
8,23,15,-15,-3,19,-10,-1,4,12,8,5
8,23,15,-15,-3,19,-11,0,4,12,7,5
9,23,14,-15,-2,18,-11,0,3,11,7,5
9,22,13,-15,-2,17,-11,0,3,11,7,4
9,21,12,-15,-1,16,-11,0,3,10,7,4
9,20,11,-15,-1,16,-10,0,2,10,7,4
8,19,11,-14,-2,15,-10,0,2,9,7,4
8,19,11,-13,-2,15,-9,-1,2,9,7,4
8,18,11,-13,-2,14,-8,-1,2,8,6,4
8,18,10,-13,-1,13,-8,-1,1,7,5,3
8,17,9,-13,-1,13,-7,-2,1,7,5,4
8,17,8,-12,0,12,-6,-2,1,7,5,4
8,16,7,-12,0,12,-6,-2,1,7,5,5
9,16,7,-12,0,11,-5,-1,1,7,5,5
9,15,6,-12,1,10,-5,0,2,7,5,4
9,13,5,-12,1,9,-4,0,2,6,5,4
9,12,4,-11,2,8,-3,1,2,6,4,4
9,12,3,-10,2,7,-2,2,2,5,4,3
8,11,3,-9,2,7,-1,2,1,4,3,3
7,11,3,-9,2,7,0,2,0,3,2,2
6,10,3,-8,1,7,1,2,0,2,1,1
6,9,3,-7,1,6,1,2,-1,2,0,0
5,7,3,-6,1,5,2,2,-1,1,0,0
5,6,2,-5,1,4,3,2,-1,1,-1,0
4,4,2,-4,1,3,4,2,-1,1,-1,0
3,3,1,-3,1,2,5,2,-1,0,-1,-1
3,3,1,-2,0,2,6,3,-1,0,-1,-1
2,2,0,-2,0,1,6,3,-1,0,-2,-1
2,1,0,-1,1,0,7,4,-1,0,-3,-2
1,0,-1,-1,1,0,7,4,-2,-1,-3,-3
1,0,-2,0,1,-1,8,4,-2,-1,-4,-3
1,-1,-2,0,2,-1,9,4,-2,-2,-4,-4
1,-2,-3,0,2,-2,9,4,-2,-2,-4,-5
1,-3,-3,0,2,-3,10,4,-2,-3,-4,-5
1,-3,-4,1,2,-3,10,4,-3,-3,-4,-6
1,-4,-4,1,3,-4,10,4,-3,-4,-5,-6
1,-4,-4,1,3,-4,11,4,-3,-4,-5,-6
1,-4,-5,1,3,-4,11,4,-3,-4,-6,-6
1,-5,-5,1,3,-5,11,4,-3,-5,-6,-6
0,-5,-5,1,2,-5,11,4,-3,-5,-7,-6
0,-5,-4,1,2,-4,12,4,-3,-4,-7,-6
0,-5,-4,2,2,-4,12,4,-3,-4,-7,-6
0,-5,-5,2,2,-4,12,5,-3,-4,-7,-7
0,-5,-5,2,2,-4,12,5,-3,-5,-7,-7
0,-5,-5,3,2,-4,12,5,-3,-5,-7,-7
0,-5,-5,3,2,-4,12,5,-3,-5,-7,-7
0,-6,-5,3,2,-5,12,5,-3,-5,-7,-7
0,-6,-6,3,2,-5,12,5,-3,-5,-7,-7
0,-6,-6,3,2,-6,13,5,-3,-5,-7,-7
0,-6,-6,3,2,-6,13,5,-3,-5,-7,-7
0,-6,-6,3,2,-6,13,5,-3,-6,-7,-8
0,-6,-6,3,2,-6,13,5,-3,-6,-7,-8
0,-6,-6,3,2,-6,13,5,-3,-6,-7,-8
0,-6,-6,3,2,-6,13,5,-3,-6,-8,-8
0,-6,-6,3,2,-6,13,5,-3,-6,-8,-8
0,-6,-6,3,2,-6,13,5,-3,-6,-8,-8
0,-6,-6,3,2,-6,14,5,-3,-6,-8,-8
0,-7,-6,3,3,-7,14,5,-3,-6,-8,-9
0,-7,-7,3,3,-7,14,6,-2,-7,-8,-9
0,-8,-8,3,4,-8,15,7,-1,-7,-9,-10
0,-9,-8,4,4,-8,17,9,0,-7,-10,-12
-1,-10,-8,5,3,-9,20,11,4,-4,-10,-14
-2,-10,-7,6,1,-8,24,14,9,0,-10,-18
-4,-11,-6,7,0,-8,27,17,16,6,-9,-21
-5,-11,-6,7,0,-8,30,21,26,15,-6,-24
-6,-11,-5,8,0,-8,34,26,39,29,0,-25
-6,-11,-5,8,-1,-8,37,31,54,46,9,-23
-5,-10,-5,7,-1,-8,39,36,71,66,22,-17
-4,-8,-5,5,0,-7,39,40,88,88,40,-7
-1,-6,-5,3,1,-6,39,45,105,110,60,7
1,-5,-6,1,3,-5,38,49,119,127,80,22
4,-4,-8,0,6,-6,36,51,124,132,93,37
7,-4,-12,-2,9,-8,32,49,116,119,95,49
11,-3,-14,-4,12,-8,24,41,92,88,85,58
14,0,-15,-7,14,-8,13,26,56,48,66,63
17,3,-14,-11,15,-5,-1,5,8,-1,39,63
19,8,-11,-14,15,-1,-17,-21,-54,-58,5,59
20,13,-7,-17,13,2,-31,-46,-113,-111,-27,55
20,18,-1,-20,10,8,-42,-66,-157,-149,-52,51
18,25,7,-22,5,15,-48,-81,-183,-171,-68,47
14,30,15,-22,-1,22,-50,-90,-194,-178,-77,43
11,33,21,-22,-5,27,-50,-93,-192,-176,-81,37
9,34,24,-22,-8,29,-48,-91,-183,-167,-80,31
8,34,25,-22,-9,30,-46,-87,-168,-154,-76,25
7,33,26,-21,-10,30,-44,-81,-151,-138,-72,18
6,32,26,-20,-10,29,-41,-74,-134,-122,-67,9
5,31,25,-19,-10,28,-39,-66,-117,-107,-61,2
5,29,23,-17,-9,26,-36,-58,-101,-93,-56,-4
5,26,21,-16,-8,24,-33,-51,-88,-81,-52,-8
5,23,18,-14,-6,21,-28,-44,-76,-71,-47,-11
5,19,14,-12,-4,17,-23,-37,-65,-61,-42,-13
4,15,10,-10,-3,13,-17,-30,-55,-53,-38,-14
4,11,7,-8,-2,10,-12,-25,-46,-45,-34,-15
3,9,5,-7,-2,7,-7,-20,-39,-38,-30,-15
2,7,4,-5,-1,5,-3,-15,-32,-32,-25,-15
2,5,3,-4,-1,4,0,-11,-25,-26,-21,-14
2,4,2,-3,0,3,3,-8,-20,-21,-18,-13
2,2,0,-3,0,2,6,-5,-15,-17,-16,-12
2,1,0,-2,1,1,8,-3,-11,-14,-14,-12
2,1,-1,-2,1,0,9,-1,-8,-12,-12,-11
2,0,-1,-2,1,0,10,0,-6,-10,-11,-11
1,0,-1,-2,1,0,10,1,-5,-8,-10,-10
1,0,-2,-2,1,-1,11,2,-4,-7,-9,-10
1,0,-2,-2,1,-1,12,3,-3,-6,-8,-10
1,0,-2,-2,2,-1,13,4,-2,-5,-7,-10
1,0,-3,-2,2,-1,13,5,-1,-4,-7,-10
2,0,-3,-2,2,-1,13,5,0,-3,-7,-9
2,0,-3,-2,2,-1,13,4,1,-3,-7,-9
2,0,-2,-2,2,-1,13,4,1,-2,-6,-9
2,0,-2,-2,2,-1,13,5,2,-1,-6,-9
2,0,-2,-2,2,-1,13,5,2,0,-5,-8
2,0,-2,-2,2,0,13,6,3,0,-4,-8
2,0,-2,-2,2,0,13,7,4,1,-3,-8
2,0,-2,-2,2,0,13,8,4,2,-3,-8
2,1,-2,-2,2,0,13,9,5,2,-2,-8
2,1,-2,-2,2,0,13,9,5,2,-2,-7
2,1,-1,-2,2,0,13,9,6,3,-1,-7
2,1,-1,-2,2,0,13,9,6,3,-1,-6
2,2,-1,-3,2,0,13,9,7,4,-1,-6
2,2,-1,-3,2,0,13,8,7,4,0,-6
2,2,-1,-3,2,1,13,8,7,5,0,-6
2,2,-1,-3,2,1,12,8,8,5,0,-6
2,3,0,-3,2,1,12,8,9,6,0,-5
2,3,0,-3,2,1,11,9,9,6,0,-5
2,3,0,-3,2,1,11,9,10,6,1,-5
2,3,0,-3,2,1,11,10,10,6,1,-5
2,3,0,-4,2,1,11,10,11,7,2,-4
2,3,0,-4,2,1,11,10,11,8,2,-4
3,3,0,-4,2,2,11,10,11,8,2,-4
3,4,0,-4,2,2,12,10,11,9,3,-3
3,4,0,-4,2,2,12,10,12,9,3,-3
3,4,0,-4,2,2,12,10,12,10,4,-3
3,4,0,-4,2,2,12,10,13,10,4,-3
3,4,0,-4,2,2,11,10,13,11,5,-2
3,4,0,-4,2,2,11,10,14,12,6,-2
3,4,0,-4,2,3,11,11,15,13,6,-2
3,5,0,-5,2,3,11,11,16,13,7,-2
3,5,0,-5,2,3,11,12,17,14,8,-1
3,5,0,-5,2,3,11,12,18,15,8,-1
3,5,1,-5,2,3,11,12,19,16,9,0
3,5,1,-5,2,3,11,12,20,17,9,0
3,6,1,-6,2,3,11,13,21,18,10,0
4,6,1,-6,2,3,11,13,22,19,11,1
4,6,1,-6,2,3,11,13,23,20,11,1
4,7,2,-6,1,4,11,14,23,21,12,1
4,7,2,-6,1,4,11,14,24,22,13,2
5,8,2,-6,1,4,11,15,25,23,14,3
5,8,2,-7,1,4,11,17,28,25,16,4
5,8,2,-7,1,5,11,18,30,26,17,5
5,9,2,-8,1,5,11,18,31,28,19,5
5,9,2,-8,1,5,11,18,33,29,20,6
6,9,2,-8,2,5,10,18,35,31,22,7
6,9,2,-9,2,5,10,19,37,33,23,8
7,9,2,-9,2,6,10,19,39,35,25,9
7,10,2,-10,2,6,9,19,42,37,26,10
8,10,2,-10,3,6,9,21,44,39,28,12
8,11,2,-11,3,6,8,22,48,41,30,14
9,12,2,-11,3,6,8,23,51,44,33,16
9,12,2,-12,4,7,7,24,53,46,35,17
10,13,2,-12,4,7,7,24,56,48,37,19
11,13,2,-13,4,7,6,24,58,50,39,20
11,14,2,-13,5,8,6,25,60,52,41,22
12,14,2,-14,5,8,5,26,61,54,43,23
11,15,3,-14,4,9,4,27,63,56,45,25
11,15,4,-14,3,10,4,27,64,57,47,28
13,16,3,-15,4,9,3,27,65,58,48,29
14,16,1,-16,6,9,2,27,65,58,49,30
15,17,1,-17,6,9,1,27,65,58,49,30
15,17,0,-17,7,9,1,27,64,57,49,31
16,17,0,-18,7,9,0,26,63,57,49,31
16,17,0,-18,8,9,0,26,62,56,48,31
16,17,0,-18,8,9,0,26,61,55,48,32
16,17,0,-18,8,9,-1,26,59,54,47,32
16,18,0,-18,8,9,-1,25,58,53,46,33
16,18,0,-18,8,9,-1,25,56,51,45,33
16,18,1,-18,7,10,-1,24,53,49,44,33
15,18,1,-17,7,10,-1,24,50,47,42,32
15,18,2,-17,6,10,-1,23,46,45,41,31
14,18,2,-17,6,10,-1,21,43,42,38,30
14,18,2,-17,6,10,-1,19,39,39,36,28
13,18,2,-16,5,10,-1,17,34,36,33,26
13,18,2,-16,5,10,0,15,31,33,30,24
12,17,3,-16,4,10,0,14,28,30,27,22
11,17,3,-15,4,10,0,13,25,27,24,20
10,16,4,-14,3,10,0,12,22,24,22,18
9,15,4,-13,2,10,1,12,19,22,19,16
9,15,5,-13,2,10,1,12,16,20,17,14
8,14,5,-12,2,10,2,11,14,18,14,12
8,13,5,-12,2,10,3,10,11,16,12,11
8,13,5,-12,2,9,3,9,10,14,11,10
8,13,5,-11,2,9,4,9,8,12,10,9
7,12,5,-11,2,9,4,9,7,11,9,8
7,12,5,-11,1,9,4,9,6,10,7,7
6,12,5,-10,1,8,5,9,5,9,6,6
6,11,4,-10,1,8,5,8,4,8,5,5
6,11,4,-10,1,8,5,8,3,7,4,5
6,11,4,-10,1,8,6,7,2,6,4,4
6,11,4,-9,1,8,6,7,2,6,3,3
6,11,4,-9,1,8,7,7,2,5,3,3
5,11,5,-9,0,8,7,8,2,5,3,3
5,11,5,-9,0,8,7,8,2,5,3,2
5,11,5,-9,0,8,7,9,2,5,3,2
6,11,5,-9,1,8,7,9,2,5,3,2
6,11,5,-9,1,8,7,9,2,5,3,2
6,11,5,-9,1,8,7,9,2,5,2,2
6,11,5,-9,1,8,7,9,2,5,2,2
6,11,5,-10,1,8,7,9,2,4,2,1
6,11,5,-10,1,8,7,9,2,4,2,1
6,11,4,-10,1,8,7,9,2,4,2,1
6,11,4,-10,1,8,8,9,2,4,2,1
6,11,4,-10,1,8,7,9,2,4,2,1
6,11,4,-10,1,8,7,9,2,4,2,1
6,11,4,-10,1,8,7,10,2,4,2,0
7,11,4,-10,1,8,7,10,3,4,2,0
7,12,4,-10,1,8,8,10,3,4,2,0
7,12,4,-11,1,8,8,10,3,4,2,0
7,12,4,-11,1,9,8,10,3,5,2,0
7,12,5,-11,1,9,8,10,4,5,2,1
8,13,5,-12,1,10,8,10,4,6,3,1
8,15,6,-13,1,11,7,10,5,6,3,2
8,16,7,-13,1,12,7,10,5,7,3,2
9,17,8,-14,0,13,7,10,5,7,4,3
9,18,9,-14,0,13,7,10,6,8,5,3
9,19,9,-15,0,14,6,10,6,8,5,3
10,19,10,-15,0,15,6,10,6,9,5,3
10,20,10,-16,0,15,6,10,6,9,5,3
10,20,10,-16,0,15,6,11,6,9,5,3
10,21,10,-16,0,15,6,11,7,9,5,3
10,21,10,-16,0,15,6,11,7,10,5,3
10,21,10,-16,0,16,6,11,7,10,6,3
10,22,11,-16,0,16,7,11,7,10,6,3
10,23,12,-17,-1,17,7,10,7,10,6,4
9,24,13,-17,-2,19,6,10,7,11,7,4
9,24,14,-17,-2,19,5,9,6,11,7,4
10,24,14,-18,-2,19,4,7,5,10,6,4
10,24,14,-18,-2,19,1,5,4,9,6,4
10,25,14,-19,-2,20,-1,4,3,9,6,4
11,25,14,-19,-2,20,-3,4,3,8,5,4
11,25,14,-19,-2,20,-5,3,2,8,5,4
12,25,13,-19,-1,19,-6,3,1,7,5,4
13,25,12,-19,0,18,-7,2,0,6,4,4
13,24,11,-19,1,18,-7,2,0,5,4,4
13,24,10,-19,1,17,-7,2,0,5,4,4
13,23,10,-18,1,17,-7,3,0,5,4,4
12,23,10,-18,0,17,-6,3,0,5,4,4
12,22,10,-18,0,16,-6,4,-1,5,4,4
12,21,9,-18,1,15,-5,4,-1,5,4,4
12,20,9,-17,1,15,-4,4,-1,4,3,4
12,20,8,-17,1,14,-4,4,-1,4,3,4
12,20,8,-17,2,14,-3,4,-1,4,3,4
13,20,7,-17,2,14,-3,5,-1,4,3,4
13,19,7,-17,2,13,-2,6,0,4,3,5
13,18,6,-16,3,12,-1,7,0,3,3,5
13,17,4,-16,3,11,-1,8,0,3,3,4
13,16,3,-15,4,9,0,8,0,2,2,4
12,15,2,-15,4,9,0,9,0,2,2,4
12,14,2,-14,4,8,1,9,1,2,2,3
11,14,2,-13,4,8,2,8,0,2,1,3
11,13,2,-12,4,8,3,7,-1,1,0,2
10,13,3,-11,3,8,4,7,-1,0,0,1
9,12,3,-10,2,7,5,7,-2,0,0,0
8,10,2,-9,2,6,5,8,-2,0,-1,0
7,9,2,-9,2,6,6,9,-2,0,-1,0
7,9,1,-9,2,5,7,10,-2,0,-2,-1
7,8,1,-8,2,4,8,10,-2,-1,-2,-1
7,7,0,-7,2,4,9,10,-2,-1,-2,-2
6,6,0,-7,3,3,10,10,-2,-1,-3,-3
6,5,-1,-6,3,2,10,10,-2,-2,-4,-4
6,4,-1,-6,4,1,11,10,-2,-3,-4,-5
6,4,-1,-5,4,1,11,10,-2,-3,-5,-5
5,3,-1,-5,4,0,11,10,-3,-3,-5,-6
5,3,-2,-5,4,0,11,11,-3,-3,-5,-6
5,2,-3,-5,4,0,12,12,-3,-4,-5,-6
5,2,-3,-4,4,-1,12,13,-3,-4,-5,-6
5,1,-3,-4,4,-1,13,14,-3,-4,-6,-6
4,1,-3,-4,4,-1,13,14,-3,-4,-6,-7
4,1,-3,-4,4,-1,13,15,-3,-4,-7,-7
4,1,-3,-4,4,-1,13,15,-3,-4,-7,-7
4,1,-3,-3,3,-1,14,15,-3,-4,-7,-7
4,1,-3,-3,3,-1,14,15,-3,-4,-6,-7
4,1,-4,-3,4,-1,14,14,-3,-4,-6,-7
4,1,-4,-3,4,-1,14,14,-3,-4,-6,-7
4,0,-4,-3,4,-1,15,14,-3,-4,-7,-7
5,0,-5,-3,5,-2,15,14,-3,-4,-7,-7
5,0,-5,-3,5,-2,15,15,-3,-5,-7,-8
6,0,-6,-3,5,-3,15,15,-3,-5,-7,-8
6,0,-5,-3,5,-3,15,15,-3,-5,-7,-8
5,0,-5,-3,4,-2,15,16,-3,-5,-7,-8
5,0,-5,-2,4,-2,15,16,-3,-5,-7,-8
4,0,-5,-2,4,-2,15,17,-3,-5,-7,-8
4,0,-5,-2,4,-2,15,17,-3,-5,-7,-8
4,0,-5,-2,4,-2,16,17,-3,-5,-7,-8
5,0,-5,-2,4,-2,16,16,-3,-5,-8,-9
5,0,-5,-2,5,-3,16,16,-3,-5,-8,-9
5,0,-5,-2,5,-3,16,15,-3,-5,-8,-10
5,0,-5,-3,5,-2,16,15,-3,-5,-8,-10
5,0,-6,-3,5,-3,16,15,-3,-6,-8,-11
5,-1,-6,-3,6,-3,16,16,-2,-6,-9,-11
5,-2,-7,-2,6,-4,17,17,0,-6,-9,-12
5,-2,-7,-1,5,-4,20,19,3,-4,-9,-15
3,-3,-6,0,4,-4,23,21,7,-1,-10,-19
2,-2,-4,0,3,-3,27,24,13,4,-10,-23
0,-2,-3,0,2,-2,30,29,22,14,-7,-26
0,-2,-2,0,1,-1,34,33,34,26,-2,-28
-1,-2,-1,0,0,0,36,38,49,43,6,-27
0,0,0,0,0,0,38,44,65,63,19,-22
1,1,0,-2,0,1,39,49,83,85,36,-13
4,4,0,-4,1,2,38,53,100,107,56,0
7,6,-1,-6,3,3,38,58,116,127,77,15
10,7,-3,-8,6,2,37,61,126,137,93,31
14,7,-7,-10,10,0,34,60,123,129,97,44
17,7,-11,-12,14,-1,28,54,105,104,90,54
20,8,-13,-14,17,-2,17,41,73,67,75,61
23,10,-13,-17,18,-1,4,23,30,22,51,63
26,14,-11,-20,18,2,-11,-2,-29,-32,19,60
27,19,-8,-24,17,6,-27,-28,-92,-89,-15,54
28,24,-4,-27,16,10,-39,-50,-142,-133,-43,50
27,30,2,-29,11,17,-46,-68,-175,-161,-63,46
24,35,11,-29,5,24,-49,-79,-192,-173,-74,41
20,38,18,-29,0,29,-49,-83,-194,-173,-80,37
18,38,21,-28,-2,31,-48,-82,-187,-167,-81,31
16,38,22,-28,-4,31,-47,-78,-174,-156,-78,26
15,37,23,-27,-5,31,-44,-72,-158,-141,-73,20
13,37,23,-25,-6,31,-41,-65,-140,-125,-68,12
12,35,23,-24,-6,30,-38,-58,-122,-109,-62,4
12,33,21,-23,-5,28,-35,-51,-106,-95,-57,-3
13,32,19,-22,-3,26,-32,-44,-92,-83,-52,-8
13,29,16,-21,-2,23,-28,-37,-79,-71,-46,-11
13,25,13,-20,-1,20,-23,-29,-67,-61,-42,-13
12,21,10,-17,0,16,-18,-21,-57,-52,-38,-15
11,17,7,-15,0,13,-13,-14,-48,-44,-34,-16
11,14,5,-14,1,10,-8,-9,-40,-37,-31,-17
10,12,3,-12,1,8,-4,-5,-34,-31,-27,-17
9,10,2,-10,2,7,0,-1,-27,-26,-24,-17
8,9,1,-9,2,6,3,2,-21,-21,-21,-16
8,8,0,-8,3,5,6,5,-16,-16,-17,-14
7,7,0,-8,3,4,8,8,-12,-12,-15,-13
7,6,0,-7,3,3,9,10,-9,-9,-13,-12
7,6,-1,-7,3,2,10,11,-7,-7,-12,-11
7,5,-2,-7,3,2,10,11,-5,-6,-11,-10
7,5,-2,-6,3,1,11,11,-4,-5,-10,-9
7,4,-3,-6,3,1,11,11,-3,-4,-8,-8
7,4,-3,-6,4,1,12,11,-2,-3,-7,-6
7,4,-3,-6,4,0,12,12,-1,-2,-6,-5
7,4,-3,-6,4,0,12,12,0,-1,-6,-5
8,4,-3,-6,4,0,12,12,1,-1,-6,-5
8,4,-3,-7,4,0,12,13,1,0,-6,-5
8,4,-3,-7,4,0,12,13,2,0,-6,-4
8,4,-3,-7,4,0,12,13,2,1,-6,-3
8,4,-3,-7,5,0,12,13,2,1,-6,-2
8,4,-4,-7,5,0,12,12,2,1,-6,-1
8,3,-4,-7,6,0,12,12,3,1,-5,0
8,3,-4,-7,6,0,12,12,3,2,-5,0
8,4,-4,-7,6,0,12,12,4,2,-5,1
8,4,-4,-7,5,0,11,12,4,3,-5,1
8,4,-4,-7,5,0,11,12,5,3,-4,2
8,4,-4,-7,5,0,11,11,5,3,-4,3
8,4,-4,-7,5,0,11,12,5,4,-3,4
9,4,-4,-7,5,0,11,13,6,4,-2,4
9,4,-4,-7,5,0,11,13,6,5,-1,5
9,4,-4,-7,5,0,10,13,7,6,-1,5
9,4,-4,-7,6,0,10,12,7,6,-1,5
9,4,-5,-6,6,0,10,12,7,6,-1,5
8,3,-5,-6,6,0,10,12,8,6,-1,5
8,3,-5,-6,6,0,10,12,8,6,-1,5
8,3,-5,-6,6,0,9,12,8,6,-1,4
8,3,-5,-6,6,0,9,12,8,6,-1,4
8,3,-4,-6,5,0,9,13,9,7,0,4
8,4,-4,-6,5,1,8,13,9,7,0,3
8,4,-4,-7,5,1,8,13,9,8,1,3
8,5,-3,-7,5,1,8,12,10,9,2,4
8,5,-3,-7,5,1,8,12,10,9,2,4
8,5,-2,-7,5,1,8,12,11,10,2,4
8,5,-2,-7,5,1,7,12,11,10,2,4
9,6,-2,-8,5,1,7,12,12,10,3,4
9,6,-2,-8,5,2,7,13,12,10,3,5
9,7,-2,-8,5,2,6,13,13,11,4,5
9,7,-2,-8,5,2,6,13,13,11,4,5
9,7,-2,-8,5,2,6,13,14,11,4,5
9,6,-2,-8,5,2,6,13,14,12,4,5
9,6,-2,-8,5,2,6,14,15,13,4,5
9,6,-3,-8,6,2,6,14,16,13,5,6
10,6,-3,-9,6,2,6,14,18,14,6,7
10,7,-3,-9,6,2,6,14,19,15,7,7
10,7,-3,-9,6,2,6,14,21,17,9,7
10,8,-2,-9,6,3,6,14,22,19,10,8
11,10,-1,-10,5,5,5,13,23,20,12,8
11,12,0,-11,5,6,4,12,25,21,13,9
11,14,2,-12,4,8,3,12,26,23,15,10
11,15,3,-12,3,9,2,12,28,25,16,11
11,15,4,-13,4,9,2,13,30,27,18,13
12,16,4,-14,3,10,1,14,33,29,20,15
11,16,5,-14,2,10,1,15,35,31,22,16
11,16,5,-14,2,10,0,16,38,33,24,17
12,16,5,-14,3,10,-1,17,40,35,25,18
12,17,4,-15,4,10,-2,18,42,37,28,20
13,18,4,-16,4,11,-2,19,44,40,31,22
15,20,5,-17,4,12,-3,20,47,43,34,23
16,22,6,-19,4,14,-4,20,50,46,36,24
17,24,8,-21,4,16,-5,21,53,49,38,25
18,26,9,-22,4,18,-6,21,56,51,41,27
19,28,9,-23,5,18,-7,22,59,53,43,30
19,29,9,-24,5,19,-8,22,61,55,46,33
20,29,9,-24,5,19,-8,23,62,57,49,36
21,30,9,-25,6,19,-9,24,63,59,50,38
21,30,9,-25,6,20,-9,24,64,60,51,40
21,31,9,-26,6,20,-9,25,65,61,52,40
21,32,10,-27,6,21,-10,25,65,61,53,40
21,33,12,-28,5,22,-10,25,64,62,53,40
21,34,13,-28,4,23,-10,24,64,62,53,40
21,34,13,-28,4,23,-10,24,63,61,53,40
22,34,12,-29,5,23,-10,23,61,60,51,39
23,34,11,-29,5,23,-10,22,58,57,49,38
22,33,11,-28,5,22,-9,21,56,55,48,37
22,32,10,-27,5,21,-9,21,53,54,46,37
20,29,10,-25,5,20,-8,20,50,51,45,36
18,27,9,-23,4,18,-7,18,47,48,43,35
17,25,9,-21,4,17,-6,16,43,45,39,32
16,24,8,-20,4,16,-6,14,39,41,35,29
15,23,8,-19,4,15,-6,12,35,36,31,26
14,22,7,-18,4,14,-5,10,30,32,27,23
13,19,6,-16,4,12,-5,8,26,28,23,20
12,17,4,-14,4,10,-5,7,22,25,21,18
12,14,3,-13,4,8,-5,6,18,22,18,15
11,12,2,-11,4,7,-6,5,15,19,15,12
10,10,1,-10,4,5,-6,4,12,15,11,8
9,8,0,-8,4,3,-5,4,10,12,8,6
7,5,-1,-7,4,1,-5,4,7,9,6,4
6,4,-1,-5,4,0,-5,3,5,8,5,3
4,3,-1,-4,3,0,-5,2,3,6,3,1
4,1,-2,-3,3,-1,-4,1,1,3,0,-2
3,0,-3,-2,4,-2,-3,0,0,0,-3,-5
3,-3,-5,-1,4,-4,-2,0,-1,-2,-5,-6
3,-5,-7,0,5,-6,-1,0,-2,-3,-6,-7
3,-7,-9,2,5,-8,0,0,-2,-4,-6,-7
2,-8,-9,3,5,-9,0,0,-3,-5,-6,-8
1,-8,-8,4,4,-8,0,0,-3,-6,-8,-9
0,-8,-8,4,4,-8,0,0,-4,-7,-9,-10
0,-9,-8,5,4,-9,0,0,-4,-8,-10,-11
0,-10,-8,5,4,-9,0,0,-5,-9,-10,-11
0,-10,-9,5,4,-10,0,-1,-5,-9,-10,-12
-1,-11,-10,5,4,-10,0,-1,-5,-9,-10,-13
-1,-11,-10,5,4,-11,0,-2,-6,-10,-11,-14
-1,-11,-10,6,4,-11,0,-2,-6,-10,-11,-15
-1,-11,-9,6,4,-10,0,-1,-6,-10,-12,-16
-2,-11,-9,7,3,-10,0,0,-6,-11,-12,-16
-2,-13,-10,8,4,-12,0,1,-6,-11,-13,-16
-2,-15,-13,8,5,-14,0,2,-6,-11,-12,-15
-2,-17,-14,9,6,-16,1,2,-6,-11,-11,-14
-2,-17,-14,9,6,-16,1,2,-6,-11,-11,-14
-2,-16,-14,9,5,-15,0,1,-6,-12,-13,-15
-2,-16,-13,9,5,-14,0,0,-6,-13,-14,-16
-2,-16,-13,9,5,-15,0,-1,-6,-14,-15,-16
-2,-17,-14,10,5,-15,0,-1,-7,-14,-16,-17
-3,-18,-14,10,5,-16,0,-1,-7,-15,-16,-18
-3,-19,-15,11,5,-17,0,-1,-7,-15,-16,-18
-3,-19,-15,11,5,-17,0,-1,-7,-15,-16,-17
-4,-19,-15,11,5,-17,0,-1,-7,-15,-17,-17
-4,-20,-15,12,5,-17,0,-1,-7,-15,-17,-17
-5,-20,-15,12,5,-17,0,-1,-7,-15,-16,-16
-5,-20,-15,12,6,-18,0,-1,-7,-14,-15,-15
-4,-21,-16,13,6,-18,0,-1,-7,-15,-15,-15
-4,-21,-16,13,6,-18,0,-2,-8,-16,-16,-15
-4,-22,-16,13,6,-19,0,-3,-8,-17,-17,-15
-4,-23,-18,13,7,-20,0,-3,-8,-17,-18,-16
-4,-25,-20,14,8,-22,1,-2,-6,-17,-18,-17
-5,-26,-21,15,8,-24,3,0,-3,-16,-19,-19
-6,-26,-19,15,6,-23,6,2,1,-12,-19,-23
-8,-25,-16,16,4,-21,9,5,8,-5,-18,-27
-10,-25,-15,17,3,-20,13,9,18,5,-15,-29
-11,-25,-14,18,2,-20,16,14,30,19,-8,-28
-11,-26,-14,18,2,-20,18,17,43,36,3,-23
-11,-26,-14,18,2,-20,19,19,56,57,19,-13
-10,-24,-13,17,1,-19,19,21,69,79,38,0
-9,-21,-11,15,1,-17,17,23,82,101,59,17
-7,-18,-10,12,1,-15,15,25,93,117,78,34
-4,-16,-10,10,3,-13,13,26,97,122,90,50
-2,-14,-11,8,4,-13,11,26,92,111,92,62
1,-13,-12,6,7,-13,6,21,73,82,81,68
5,-11,-15,3,10,-13,-2,9,40,42,60,68
8,-10,-17,0,13,-13,-12,-8,-3,-7,29,62
10,-9,-18,-1,14,-13,-23,-30,-57,-65,-9,54
11,-8,-18,-2,14,-13,-34,-52,-112,-121,-48,46
11,-6,-17,-3,14,-12,-42,-71,-154,-165,-79,38
9,0,-10,-5,10,-5,-49,-86,-182,-191,-100,30
5,7,2,-6,2,4,-53,-97,-195,-201,-113,22
1,13,12,-7,-5,12,-53,-101,-196,-200,-117,13
-2,16,19,-7,-10,18,-53,-100,-188,-192,-116,6
-3,18,23,-7,-13,21,-52,-96,-175,-179,-112,0
-4,18,24,-7,-14,21,-51,-91,-160,-164,-105,-6
-5,16,22,-6,-13,19,-50,-86,-143,-147,-97,-11
-5,14,20,-5,-12,16,-49,-80,-127,-131,-90,-15
-4,12,17,-4,-11,14,-47,-74,-113,-118,-83,-18
-4,10,14,-3,-9,12,-45,-68,-100,-105,-77,-20
-4,6,11,-1,-7,8,-41,-61,-88,-94,-71,-21
-4,2,7,1,-5,4,-37,-53,-77,-84,-65,-22
-4,-2,3,3,-3,0,-32,-46,-67,-75,-59,-22
-4,-6,0,5,-1,-3,-27,-40,-58,-66,-52,-20
-5,-10,-4,7,0,-7,-22,-35,-50,-57,-46,-18
-5,-12,-7,8,0,-10,-18,-31,-43,-50,-41,-17
-5,-14,-8,9,1,-12,-14,-28,-38,-45,-37,-16
-6,-16,-9,10,2,-13,-11,-25,-32,-40,-35,-15
-6,-17,-10,11,3,-14,-9,-23,-27,-35,-33,-13
-6,-19,-11,12,3,-16,-7,-21,-23,-32,-30,-10
-6,-19,-12,13,4,-16,-6,-19,-20,-29,-28,-8
-6,-19,-12,13,3,-16,-5,-17,-18,-26,-25,-7
-6,-19,-12,13,3,-15,-5,-16,-17,-24,-24,-7
-6,-19,-12,12,3,-15,-4,-15,-15,-22,-23,-7
-6,-20,-13,13,3,-16,-3,-15,-14,-21,-23,-6
-6,-20,-13,13,3,-17,-2,-14,-13,-20,-22,-4
-6,-21,-14,13,4,-17,-2,-14,-12,-19,-21,-2
-6,-21,-14,13,4,-18,-2,-13,-11,-18,-21,0
-6,-21,-14,13,5,-18,-2,-13,-10,-17,-20,1
-6,-21,-13,13,4,-17,-2,-13,-9,-15,-19,2
-6,-19,-12,12,4,-16,-2,-14,-9,-14,-17,3
-6,-18,-11,12,3,-14,-2,-14,-9,-13,-17,4
-6,-17,-10,12,3,-14,-2,-14,-9,-13,-17,4
-6,-18,-11,12,3,-14,-2,-14,-8,-13,-17,6
-6,-18,-12,12,4,-15,-2,-13,-8,-13,-18,7
-5,-19,-13,12,4,-16,-2,-13,-7,-12,-18,9
-5,-19,-13,12,4,-16,-1,-12,-6,-11,-17,12
-5,-19,-13,12,4,-16,-2,-12,-5,-11,-16,14
-5,-19,-13,12,4,-16,-2,-12,-5,-10,-15,15
-5,-18,-12,11,4,-15,-3,-13,-5,-10,-15,16
-4,-17,-12,11,4,-14,-3,-14,-5,-9,-14,17
-4,-17,-11,10,4,-14,-3,-14,-5,-9,-14,18
-5,-17,-11,10,3,-14,-3,-15,-5,-8,-13,19
-5,-16,-10,10,3,-13,-3,-14,-4,-8,-13,21
-5,-16,-10,10,2,-13,-3,-13,-4,-7,-13,23
-5,-16,-10,10,3,-14,-3,-12,-3,-7,-12,25
-5,-16,-10,10,3,-14,-3,-12,-3,-7,-12,26
-5,-16,-10,10,3,-14,-3,-12,-2,-6,-12,27
-5,-16,-11,10,3,-14,-3,-13,-2,-5,-11,29
-4,-16,-11,10,4,-14,-2,-14,-1,-4,-10,30
-4,-15,-11,9,4,-13,-2,-14,-1,-4,-9,31
-4,-15,-10,9,3,-12,-3,-15,0,-4,-9,33
-4,-14,-9,8,3,-12,-3,-15,0,-4,-9,34
-3,-14,-9,8,3,-12,-4,-16,0,-3,-8,36
-3,-14,-9,8,3,-12,-4,-17,1,-3,-8,37
-4,-14,-9,8,3,-12,-4,-17,1,-2,-8,38
-4,-14,-9,8,3,-12,-4,-17,3,-1,-6,41
-4,-14,-9,8,3,-12,-4,-16,4,0,-5,43
-4,-14,-10,8,3,-12,-4,-15,5,1,-4,44
-3,-14,-10,8,4,-13,-4,-15,6,2,-3,46
-3,-15,-11,8,4,-13,-4,-15,6,3,-1,47
-3,-14,-10,8,3,-12,-4,-14,7,5,0,49
-3,-13,-9,8,3,-11,-4,-14,8,6,2,49
-2,-12,-9,7,3,-11,-5,-15,9,7,1,49
-2,-11,-8,6,3,-10,-5,-16,10,7,1,48
-2,-10,-7,5,3,-10,-6,-16,11,9,2,48
-1,-10,-7,5,3,-9,-6,-15,12,11,5,50
-1,-9,-6,4,3,-9,-6,-15,14,13,7,52
-1,-8,-6,4,2,-8,-7,-14,15,14,9,53
-1,-7,-6,3,2,-7,-7,-13,17,15,9,54
0,-7,-6,3,3,-7,-8,-13,19,17,11,57
0,-7,-7,3,3,-7,-8,-13,20,19,14,59
0,-7,-6,3,3,-7,-9,-12,22,21,16,60
1,-6,-6,2,4,-6,-9,-12,23,23,17,61
1,-5,-6,1,4,-6,-10,-12,25,25,19,62
2,-5,-6,0,4,-6,-11,-12,26,27,21,63
2,-4,-6,0,4,-5,-12,-12,27,28,22,64
3,-4,-6,0,4,-5,-13,-12,27,29,23,64
3,-4,-6,0,5,-5,-13,-13,28,29,24,65
3,-4,-7,0,5,-6,-14,-13,28,29,25,66
3,-3,-6,-1,5,-5,-14,-13,29,30,26,67
4,-2,-6,-2,5,-5,-15,-14,29,30,27,69
4,-2,-5,-2,5,-4,-16,-15,28,30,27,69
4,-1,-5,-2,5,-4,-17,-16,28,30,26,70
4,-1,-4,-3,4,-3,-18,-17,27,29,26,70
4,0,-3,-3,4,-2,-19,-17,26,29,26,70
4,0,-3,-3,4,-2,-19,-17,25,28,25,70
4,0,-3,-3,4,-2,-19,-17,24,28,25,70
4,-1,-3,-2,4,-2,-19,-18,23,27,24,70
3,-1,-3,-2,3,-2,-19,-19,22,27,24,69
2,0,-2,-2,3,-2,-19,-21,21,25,22,69
2,0,-2,-2,2,-2,-19,-22,19,23,20,68
2,0,-2,-2,2,-2,-19,-22,18,22,18,67
2,0,-1,-2,2,-2,-18,-22,16,20,16,66
1,0,-1,-2,1,-1,-18,-21,14,18,15,64
1,0,-1,-2,1,-1,-17,-21,12,16,13,63
1,-1,-1,-1,1,-1,-17,-22,10,14,10,61
0,-2,-1,0,1,-1,-16,-22,8,12,8,59
0,-3,-1,0,1,-2,-15,-23,7,10,5,57
-1,-3,-2,1,1,-2,-14,-23,5,7,2,55
-1,-4,-2,2,1,-3,-13,-24,4,4,0,53
-1,-5,-3,3,1,-4,-12,-24,2,3,-1,52
-2,-6,-3,4,1,-5,-11,-25,1,2,-2,51
-3,-7,-3,5,0,-6,-10,-26,0,0,-3,50
-3,-8,-3,5,0,-7,-9,-26,-1,-1,-5,49
-4,-9,-3,5,0,-7,-9,-26,-2,-3,-7,47
-4,-10,-4,6,0,-7,-8,-26,-3,-5,-8,46
-4,-11,-5,6,0,-8,-7,-26,-3,-6,-9,45
-4,-11,-5,7,0,-8,-7,-26,-4,-7,-10,45
-4,-11,-5,7,0,-8,-7,-26,-4,-8,-11,44
-5,-11,-5,7,0,-8,-6,-26,-5,-9,-11,43
-5,-11,-4,7,0,-8,-6,-26,-5,-9,-12,43
-5,-11,-4,7,0,-8,-6,-26,-6,-9,-12,42
-5,-11,-4,7,0,-8,-6,-26,-6,-10,-13,41
-5,-12,-4,7,0,-8,-6,-26,-6,-10,-13,40
-6,-12,-5,8,0,-8,-6,-26,-6,-11,-13,40
-6,-12,-5,8,0,-8,-5,-26,-6,-11,-13,39
-6,-12,-5,8,0,-8,-5,-27,-7,-11,-13,39
-6,-12,-5,8,0,-9,-5,-27,-7,-11,-13,39
-6,-12,-5,8,0,-9,-5,-27,-8,-11,-13,39
-6,-12,-5,8,0,-9,-5,-26,-8,-11,-13,38
-6,-12,-5,8,0,-9,-4,-26,-8,-11,-13,37
-6,-13,-5,8,0,-9,-4,-26,-8,-11,-13,36
-6,-13,-5,8,0,-9,-4,-26,-8,-11,-13,36
-6,-13,-5,8,0,-9,-5,-27,-8,-11,-13,35
-6,-13,-6,8,0,-10,-5,-27,-9,-11,-13,35
-6,-13,-6,9,0,-10,-5,-27,-9,-11,-13,34
-7,-13,-5,9,-1,-10,-5,-27,-9,-11,-13,33
-7,-13,-5,10,-1,-10,-5,-27,-9,-11,-13,32
-8,-14,-5,10,-2,-9,-5,-28,-9,-11,-13,31
-8,-14,-5,10,-2,-9,-5,-28,-9,-11,-13,30
-8,-14,-4,10,-2,-9,-5,-28,-9,-11,-13,29
-8,-14,-4,10,-2,-9,-5,-28,-9,-11,-12,28
-8,-14,-4,10,-2,-9,-5,-28,-9,-11,-12,27
-8,-14,-4,10,-1,-9,-5,-29,-10,-11,-12,26
-8,-14,-4,10,-1,-10,-5,-29,-10,-11,-12,25
-8,-14,-4,10,-1,-10,-4,-30,-11,-11,-12,24
-8,-14,-4,10,-1,-10,-4,-30,-11,-11,-12,23
-8,-14,-4,10,-1,-10,-4,-30,-12,-11,-12,21
-8,-14,-5,10,-1,-10,-4,-30,-12,-11,-11,20
-8,-14,-5,10,-1,-10,-4,-30,-12,-11,-11,19
-8,-14,-5,10,-1,-10,-4,-30,-12,-11,-11,17
-8,-14,-5,10,-1,-10,-4,-30,-12,-12,-10,16
-8,-14,-5,10,-1,-10,-4,-30,-12,-12,-10,15
-9,-14,-5,11,-1,-10,-4,-29,-12,-12,-9,14
-9,-14,-5,11,-1,-10,-4,-29,-13,-12,-9,13
-9,-15,-5,11,-1,-10,-4,-29,-13,-12,-9,11
-9,-15,-5,11,-1,-10,-4,-29,-13,-13,-9,9
-9,-15,-5,11,-1,-10,-4,-29,-13,-13,-9,8
-9,-15,-5,11,-1,-11,-4,-29,-13,-13,-9,6
-9,-15,-5,11,-1,-11,-4,-29,-13,-13,-8,5
-9,-15,-5,11,-1,-11,-4,-29,-13,-13,-8,4
-9,-15,-5,11,-1,-11,-4,-29,-13,-13,-7,3
-9,-15,-5,11,-1,-11,-4,-29,-13,-13,-7,1
-9,-15,-5,11,-1,-11,-4,-29,-13,-13,-6,0
-9,-15,-5,11,-1,-11,-4,-29,-13,-13,-6,-1
-9,-15,-5,11,-1,-11,-4,-29,-13,-13,-6,-3
-9,-15,-5,11,-1,-11,-4,-29,-13,-13,-5,-3
-9,-15,-5,11,-1,-11,-3,-29,-13,-13,-5,-4
-9,-15,-5,11,-1,-11,-3,-29,-13,-14,-4,-4
-9,-15,-5,11,-2,-10,-3,-29,-13,-14,-4,-5
-9,-15,-5,12,-2,-10,-3,-28,-13,-14,-3,-7
-10,-16,-4,12,-3,-10,-2,-27,-13,-14,-3,-8
-11,-16,-4,13,-3,-10,-2,-26,-12,-13,-2,-9
-12,-16,-3,13,-4,-10,-2,-24,-12,-13,-2,-10
-12,-16,-3,13,-4,-10,-2,-23,-12,-13,-2,-11
-12,-16,-3,13,-4,-10,-2,-23,-12,-13,-1,-12
-12,-16,-2,13,-4,-10,-2,-22,-12,-13,-1,-12
-12,-16,-2,13,-5,-9,-2,-22,-12,-13,-1,-13
-12,-16,-2,13,-5,-9,-2,-22,-12,-13,-1,-14
-12,-16,-2,13,-5,-9,-2,-22,-12,-13,-1,-15
-12,-16,-2,13,-5,-9,-2,-22,-12,-13,-1,-17
-12,-16,-2,13,-5,-9,-2,-22,-12,-13,-1,-18
-12,-16,-3,13,-5,-10,-2,-22,-12,-13,-1,-19
-12,-16,-3,13,-4,-10,-2,-22,-12,-13,-1,-19
-12,-16,-4,13,-4,-10,-2,-22,-12,-13,-1,-20
-12,-16,-4,13,-3,-10,-2,-22,-12,-14,-1,-21
-11,-17,-5,13,-3,-10,-2,-23,-13,-14,-1,-22
-11,-17,-5,13,-3,-11,-2,-23,-13,-13,-1,-23
-11,-17,-5,13,-3,-11,-2,-23,-13,-13,-2,-24
-11,-17,-5,13,-3,-11,-2,-23,-13,-13,-2,-25
-11,-17,-5,13,-2,-11,-2,-22,-13,-13,-2,-25
-11,-17,-6,13,-2,-12,-2,-22,-13,-14,-2,-26
-11,-17,-6,13,-2,-12,-2,-22,-13,-14,-2,-26
-11,-17,-6,13,-2,-12,-2,-21,-13,-14,-2,-26
-10,-17,-6,13,-2,-12,-3,-21,-13,-14,-2,-26
-10,-17,-6,13,-2,-12,-3,-21,-13,-14,-2,-27
-10,-17,-6,13,-2,-12,-3,-20,-13,-14,-2,-28
-10,-17,-6,13,-2,-12,-3,-20,-12,-13,-2,-29
-10,-17,-6,13,-2,-12,-3,-20,-12,-13,-3,-29
-10,-17,-6,13,-2,-12,-3,-20,-12,-13,-3,-30
-10,-17,-6,13,-2,-12,-3,-20,-12,-13,-3,-30
-10,-17,-6,13,-2,-12,-3,-19,-12,-13,-4,-30
-10,-17,-6,13,-1,-12,-3,-19,-12,-13,-4,-30
-10,-17,-6,13,-1,-12,-3,-18,-12,-13,-4,-31
-10,-17,-6,13,-1,-12,-3,-17,-12,-13,-4,-31
-10,-17,-6,13,-1,-12,-3,-16,-12,-12,-4,-32
-10,-17,-6,13,-1,-12,-3,-16,-12,-12,-4,-32
-10,-17,-6,13,-1,-12,-3,-16,-12,-12,-4,-33
-10,-17,-6,13,-1,-12,-3,-15,-12,-12,-5,-33
-10,-16,-6,13,-1,-12,-3,-15,-12,-12,-5,-34
-10,-16,-6,13,-1,-12,-4,-16,-11,-12,-6,-34
-10,-15,-6,12,-1,-11,-4,-16,-11,-12,-6,-34
-9,-15,-6,12,-1,-11,-4,-16,-11,-12,-6,-34
-8,-14,-5,11,-1,-10,-5,-16,-11,-11,-6,-34
-7,-12,-5,10,-1,-9,-5,-16,-11,-11,-6,-34
-6,-11,-4,8,-1,-8,-6,-15,-11,-10,-6,-34
-5,-10,-4,7,-1,-7,-7,-14,-11,-10,-6,-34
-5,-9,-4,7,-1,-7,-8,-13,-10,-9,-6,-34
-4,-8,-4,6,0,-7,-8,-13,-9,-9,-6,-34
-4,-9,-5,6,0,-7,-8,-13,-9,-9,-6,-34
-3,-10,-6,7,1,-9,-8,-13,-9,-9,-6,-34
-3,-11,-7,7,2,-10,-9,-13,-9,-10,-7,-34
-2,-11,-8,6,3,-11,-9,-13,-10,-11,-8,-35
-2,-12,-9,6,4,-11,-10,-14,-10,-11,-8,-35
-2,-12,-9,6,4,-11,-10,-14,-10,-10,-8,-35
-2,-11,-8,6,3,-11,-11,-15,-10,-10,-8,-36
-2,-11,-8,6,3,-10,-12,-15,-10,-10,-8,-36
-2,-10,-8,6,3,-9,-13,-14,-10,-9,-7,-36
-1,-9,-7,5,3,-8,-13,-14,-9,-8,-7,-36
-1,-8,-6,5,2,-7,-14,-14,-9,-7,-6,-36
-1,-7,-5,4,2,-7,-14,-14,-9,-7,-6,-36
-2,-7,-4,4,1,-6,-13,-14,-9,-6,-6,-37
-3,-7,-3,5,0,-6,-12,-13,-9,-6,-7,-37
-4,-7,-2,6,-1,-6,-12,-12,-8,-6,-7,-37
-5,-8,-2,6,-1,-6,-11,-12,-8,-6,-7,-37
-5,-8,-3,7,-1,-6,-10,-11,-8,-6,-8,-38
-5,-9,-4,7,0,-7,-9,-11,-8,-6,-8,-38
-5,-10,-5,8,0,-8,-9,-11,-8,-7,-8,-39
-5,-12,-6,8,0,-9,-8,-10,-8,-7,-8,-39
-5,-13,-6,9,0,-10,-7,-9,-8,-7,-8,-39
-6,-14,-7,10,0,-11,-6,-8,-7,-7,-8,-39
-6,-15,-7,11,0,-12,-5,-7,-7,-8,-9,-40
-7,-16,-8,11,0,-13,-5,-7,-7,-9,-9,-40
-7,-17,-9,12,1,-14,-4,-6,-8,-9,-10,-41
-8,-17,-9,12,1,-15,-4,-6,-8,-10,-10,-42
-8,-18,-9,13,1,-15,-3,-6,-8,-10,-11,-42
-9,-19,-9,13,1,-15,-3,-6,-8,-10,-11,-42
-9,-19,-9,14,1,-15,-3,-6,-8,-10,-12,-42
-9,-20,-10,14,1,-16,-2,-5,-8,-11,-12,-42
-8,-20,-11,14,1,-16,-2,-4,-9,-11,-12,-42
-8,-21,-11,14,2,-17,-2,-3,-9,-11,-12,-42
-8,-21,-11,15,1,-17,-2,-3,-8,-11,-12,-42
-9,-21,-11,15,1,-17,-1,-3,-8,-11,-12,-42
-9,-21,-11,15,0,-17,-1,-3,-7,-11,-12,-42
-10,-21,-10,15,0,-17,-1,-3,-7,-11,-12,-42
-10,-21,-10,15,0,-16,-1,-3,-7,-11,-12,-42
-10,-21,-10,15,0,-16,0,-3,-7,-10,-12,-42
-10,-21,-10,15,0,-16,0,-4,-7,-10,-12,-42
-10,-21,-10,16,0,-16,0,-4,-7,-10,-12,-42
-10,-22,-11,16,1,-17,1,-4,-6,-10,-12,-42
-10,-23,-12,16,1,-18,2,-2,-3,-9,-12,-43
-10,-24,-12,17,1,-19,4,0,0,-7,-12,-44
-11,-24,-12,18,1,-19,8,4,6,-4,-12,-47
-12,-24,-11,18,0,-18,11,9,13,2,-12,-51
-13,-24,-10,19,-1,-18,15,14,22,11,-9,-53
-14,-24,-9,19,-2,-17,19,19,35,24,-3,-55
-15,-24,-8,19,-3,-17,23,25,49,41,6,-54
-15,-23,-7,19,-3,-16,25,30,65,61,18,-50
-14,-21,-6,17,-3,-14,26,34,82,84,35,-41
-12,-19,-6,15,-2,-13,26,38,97,106,54,-28
-9,-16,-6,12,-1,-12,25,41,109,126,75,-12
-6,-13,-7,10,0,-11,23,42,116,140,95,5
-3,-12,-8,7,2,-11,19,41,113,142,107,22
0,-10,-11,5,5,-11,14,36,96,126,107,34
3,-9,-12,2,8,-11,5,26,65,93,94,42
6,-7,-12,0,9,-10,-5,10,24,49,71,43
7,-5,-12,-1,10,-9,-17,-11,-26,-5,36,38
8,-4,-12,-2,10,-8,-29,-35,-83,-67,-5,28
8,-2,-11,-3,9,-7,-38,-55,-134,-124,-43,17
7,0,-7,-4,7,-4,-45,-71,-170,-164,-73,8
4,4,0,-4,2,1,-49,-83,-190,-185,-92,0
1,7,7,-4,-3,7,-50,-90,-197,-192,-102,-8
-1,9,12,-4,-7,11,-50,-91,-194,-189,-105,-15
-3,10,15,-4,-9,13,-50,-89,-184,-179,-103,-21
-4,11,16,-4,-10,14,-49,-84,-169,-164,-97,-25
-5,11,16,-3,-10,13,-48,-76,-152,-148,-90,-30
-5,10,15,-2,-10,12,-46,-68,-135,-131,-83,-36
-5,9,14,-2,-9,11,-45,-61,-119,-116,-77,-40
-4,7,12,-1,-8,9,-42,-54,-104,-103,-70,-43
-4,5,10,-1,-7,7,-40,-48,-92,-92,-64,-45
-3,2,7,0,-5,4,-36,-42,-81,-81,-58,-47
-3,-1,4,2,-4,1,-32,-35,-70,-72,-53,-48
-4,-5,0,4,-3,-2,-27,-30,-61,-63,-48,-48
-5,-8,-2,6,-2,-5,-21,-24,-53,-55,-43,-48
-5,-11,-4,8,-1,-7,-17,-19,-46,-48,-38,-47
-6,-12,-6,9,-1,-9,-13,-15,-39,-42,-34,-45
-6,-14,-7,10,0,-11,-9,-10,-32,-36,-29,-44
-6,-15,-8,11,0,-12,-6,-6,-26,-30,-25,-42
-7,-16,-8,11,1,-13,-3,-3,-21,-25,-22,-41
-7,-17,-8,11,1,-13,-1,0,-17,-21,-20,-40
-7,-17,-8,12,1,-13,0,1,-14,-18,-18,-39
-8,-18,-9,12,1,-14,0,2,-12,-16,-16,-39
-8,-18,-9,12,1,-14,1,4,-10,-14,-15,-38
-8,-18,-9,12,1,-14,2,5,-9,-12,-14,-38
-8,-18,-9,12,1,-14,3,6,-7,-11,-14,-37
-8,-18,-9,12,1,-14,4,7,-6,-10,-13,-37
-8,-18,-9,12,1,-14,4,8,-5,-9,-12,-37
-8,-18,-9,12,1,-14,4,8,-3,-8,-11,-37
-8,-18,-9,12,1,-14,4,8,-2,-7,-11,-36
-7,-18,-9,12,1,-14,4,9,-2,-7,-10,-36
-7,-18,-9,12,1,-14,4,10,-1,-6,-10,-36
-7,-17,-9,12,1,-14,4,11,0,-5,-9,-35
-8,-17,-9,12,1,-14,5,12,0,-5,-9,-35
-8,-17,-9,12,1,-14,5,12,1,-4,-8,-34
-8,-17,-8,12,1,-13,5,12,2,-4,-8,-33
-8,-17,-8,12,1,-13,5,12,2,-3,-8,-33
-8,-17,-8,12,1,-13,5,13,2,-3,-8,-33
-8,-17,-7,12,0,-13,5,13,2,-3,-7,-33
-8,-17,-7,12,0,-13,5,12,2,-2,-7,-32
-8,-16,-7,12,0,-13,5,12,2,-2,-7,-32
-8,-16,-7,12,0,-13,5,11,2,-1,-6,-31
-8,-16,-7,12,0,-13,5,11,3,-1,-6,-31
-8,-16,-7,12,0,-13,5,12,3,0,-6,-30
-8,-16,-7,12,0,-13,5,12,3,0,-5,-30
-8,-16,-7,12,0,-13,5,12,3,0,-5,-29
-8,-16,-7,12,0,-13,5,12,4,1,-5,-29
-8,-16,-7,12,0,-12,5,12,4,1,-5,-28
-8,-16,-7,12,0,-12,5,11,4,1,-5,-27
-8,-16,-7,12,0,-12,5,11,5,2,-4,-26
-8,-15,-7,12,0,-12,5,10,5,2,-4,-26
-8,-15,-7,11,0,-12,5,10,5,2,-3,-25
-8,-15,-7,11,0,-12,5,10,6,3,-3,-25
-8,-15,-7,11,0,-12,5,10,6,3,-2,-24
-8,-15,-7,11,0,-12,5,10,6,4,-2,-24
-8,-15,-7,11,0,-12,5,10,7,4,-1,-23
-7,-15,-7,11,0,-11,5,10,7,5,-1,-23
-7,-14,-7,10,0,-11,5,10,8,5,0,-22
-7,-14,-7,10,0,-11,4,10,9,6,0,-21
-7,-14,-7,10,0,-11,4,11,9,6,0,-20
-7,-14,-7,10,0,-11,4,11,10,7,1,-19
-7,-14,-7,10,0,-11,4,12,10,7,1,-19
-7,-14,-7,10,0,-11,4,12,11,8,1,-18
-7,-14,-7,10,0,-11,4,13,12,9,1,-17
-7,-13,-6,10,0,-11,4,13,13,10,2,-16
-7,-13,-6,10,0,-11,4,14,14,10,2,-15
-7,-13,-6,9,0,-11,4,14,15,11,3,-14
-7,-13,-6,9,0,-11,4,15,16,12,4,-13
-6,-13,-6,9,0,-11,4,15,17,13,4,-12
-6,-13,-6,9,0,-10,4,16,18,14,5,-11
-5,-12,-6,8,0,-10,4,16,19,15,6,-10
-5,-12,-6,8,0,-9,4,17,21,16,7,-9
-5,-12,-6,8,0,-9,4,17,22,18,8,-8
-5,-12,-6,8,0,-9,4,18,24,19,9,-7
-5,-11,-6,8,1,-9,4,18,25,20,10,-5
-5,-11,-6,7,1,-9,4,18,27,21,11,-4
-5,-11,-6,7,1,-9,4,19,29,23,12,-3
-4,-10,-6,7,1,-9,3,21,31,24,13,-1
-4,-10,-6,6,1,-8,3,22,33,26,15,0
-3,-10,-6,6,2,-8,3,23,35,28,17,2
-3,-9,-6,5,2,-8,2,24,38,29,19,3
-2,-9,-6,5,2,-8,2,25,40,31,20,5
-2,-9,-6,5,2,-8,2,26,43,33,22,7
-2,-8,-6,5,2,-8,1,26,45,35,24,8
-1,-8,-6,4,3,-8,1,27,47,36,26,10
-1,-7,-6,4,3,-8,0,27,48,38,28,12
0,-7,-6,3,3,-8,0,27,50,39,29,13
0,-7,-6,3,3,-7,0,28,51,40,30,15
0,-6,-7,2,3,-7,-1,28,52,41,32,16
1,-6,-7,2,4,-7,-1,29,53,42,33,17
1,-6,-7,1,4,-7,-2,29,53,42,35,18
2,-5,-7,1,5,-7,-3,30,53,43,36,19
2,-5,-8,1,5,-7,-3,30,53,43,36,20
3,-5,-8,1,6,-7,-4,30,53,43,37,21
3,-5,-8,1,6,-6,-4,30,53,43,37,22
2,-5,-7,1,5,-6,-4,30,53,43,38,23
2,-5,-6,1,4,-5,-4,30,53,43,38,23
2,-5,-6,1,4,-5,-4,29,52,43,38,24
2,-4,-5,1,4,-5,-5,28,50,42,38,24
2,-4,-5,1,4,-5,-5,27,49,41,38,24
1,-3,-4,1,4,-4,-6,27,47,40,37,24
1,-3,-4,1,3,-4,-6,27,44,39,36,24
1,-3,-4,0,3,-4,-6,26,42,37,35,24
1,-3,-4,0,3,-4,-6,25,39,35,33,23
1,-3,-4,0,3,-4,-6,24,35,33,31,21
1,-3,-4,0,2,-3,-6,22,32,31,29,20
1,-3,-3,0,2,-3,-6,20,29,29,27,18
0,-3,-2,0,1,-3,-6,18,26,27,24,16
0,-2,-2,0,1,-3,-6,16,23,24,22,14
0,-2,-1,1,0,-2,-6,15,20,22,20,13
-1,-2,0,1,0,-2,-5,14,18,20,17,11
-2,-2,0,2,0,-2,-5,14,15,18,15,9
-3,-3,0,2,-1,-2,-4,13,13,16,13,8
-3,-3,0,2,-1,-2,-4,13,11,15,11,6
-3,-3,0,2,-1,-2,-3,12,10,13,10,4
-3,-4,0,3,-1,-2,-3,12,9,12,8,3
-4,-4,0,3,-1,-2,-3,11,8,11,7,2
-4,-4,0,4,-1,-2,-2,11,7,10,6,2
-4,-4,0,4,-1,-2,-2,10,6,9,5,1
-4,-4,0,4,-1,-2,-2,10,5,8,4,0
-5,-5,0,4,-2,-2,-1,9,4,8,4,0
-5,-5,1,4,-2,-2,-1,9,4,7,3,-1
-6,-5,1,4,-3,-2,-1,10,3,7,3,-1
-6,-5,1,4,-3,-2,-1,10,3,7,2,-2
-6,-4,1,4,-3,-2,-1,10,3,7,2,-2
-6,-4,1,5,-3,-2,-1,10,3,7,2,-2
-6,-4,1,5,-3,-2,-1,10,3,7,2,-2
-6,-4,1,5,-3,-2,-1,10,3,6,1,-3
-6,-5,1,5,-3,-2,0,9,3,6,1,-3
-6,-5,1,5,-3,-2,0,9,3,6,1,-3
-6,-5,2,5,-4,-2,0,9,3,6,1,-3
-6,-5,2,5,-4,-2,0,9,3,6,1,-3
-6,-5,2,5,-4,-2,0,9,3,6,1,-3
-6,-5,2,5,-4,-2,0,9,3,6,1,-3
-6,-5,2,5,-4,-2,0,9,3,7,1,-3
-6,-5,2,5,-4,-2,0,9,3,7,1,-3
-6,-5,2,5,-4,-2,0,9,3,7,1,-3
-6,-5,2,5,-4,-2,0,9,3,7,1,-3
-6,-4,2,4,-4,-2,0,9,3,7,1,-4
-6,-4,2,4,-4,-2,0,9,3,7,1,-4
-6,-4,2,4,-4,-2,0,9,3,8,1,-4
-6,-4,2,4,-4,-2,0,10,3,8,1,-4
-6,-4,2,4,-4,-1,0,10,3,8,1,-4
-6,-3,2,4,-4,-1,0,10,4,8,1,-4
-6,-3,2,4,-4,-1,0,10,4,8,1,-4
-6,-3,2,4,-4,-1,0,10,4,8,1,-4
-6,-3,2,4,-4,-1,0,9,4,8,1,-4
-6,-3,2,4,-4,-1,0,9,4,8,1,-4
-6,-3,2,4,-4,-1,0,9,4,8,1,-5
-6,-4,2,4,-4,-1,0,9,4,8,1,-5
-6,-4,2,4,-4,-1,0,9,4,8,1,-5
-5,-3,2,4,-4,-1,0,9,4,8,1,-5
-5,-3,2,4,-4,-1,1,9,4,8,1,-5
-5,-3,2,4,-4,-1,1,9,4,8,1,-5
-5,-3,2,4,-4,-1,1,9,4,8,1,-5
-5,-3,2,4,-4,-1,1,9,4,8,1,-5
-6,-3,2,4,-5,-1,1,9,4,7,1,-5
-6,-3,2,4,-5,-1,1,9,4,7,1,-5
-6,-3,2,4,-5,-1,1,8,4,7,1,-5
-6,-3,2,4,-5,-1,2,8,4,7,1,-5
-6,-3,2,4,-5,0,2,8,4,7,1,-5
-6,-3,2,4,-5,0,2,8,4,7,1,-5
-6,-3,2,4,-5,0,2,8,4,7,1,-5
-5,-2,2,4,-4,0,2,7,4,7,1,-5
-5,-2,3,3,-4,0,2,7,4,7,1,-4
-5,-1,4,2,-4,1,2,7,4,7,1,-4
-5,0,5,1,-5,2,2,7,4,8,1,-3
-4,2,6,1,-5,3,2,7,4,8,1,-3
-4,3,6,0,-5,4,2,7,4,8,2,-2
-3,4,7,0,-5,5,1,7,5,9,2,-2
-3,5,7,0,-6,6,1,8,5,9,3,-1
-3,5,8,-1,-7,7,1,8,6,10,3,-1
-3,6,9,-1,-7,7,1,8,6,10,3,-1
-3,6,9,-2,-7,7,1,8,6,10,3,-1
-2,6,9,-2,-7,7,1,8,6,10,3,0
-2,6,9,-2,-7,8,1,8,5,10,3,0
-2,6,9,-2,-7,8,1,8,5,10,3,0
-3,7,10,-2,-7,9,1,7,5,10,3,0
-3,8,11,-2,-8,10,1,6,5,11,3,0
-3,9,12,-3,-8,10,0,6,4,10,3,0
-3,9,12,-3,-8,11,-1,5,3,10,3,0
-3,10,12,-4,-8,11,-3,5,3,9,3,0
-2,10,13,-4,-8,12,-5,4,2,9,3,0
-2,11,13,-4,-8,12,-7,3,1,9,2,0
-2,11,13,-4,-8,13,-9,2,0,8,2,0
-2,12,13,-4,-8,13,-11,0,0,8,2,0
-1,11,12,-4,-7,12,-12,0,-1,7,1,0
-1,11,11,-4,-7,11,-12,-1,-2,6,1,0
-1,10,10,-4,-6,10,-12,-1,-2,5,1,0
-1,9,10,-4,-6,9,-12,-1,-2,5,1,0
-1,9,10,-3,-6,9,-12,0,-2,5,0,0
-1,8,9,-3,-6,8,-12,0,-3,5,0,-1
-1,8,8,-3,-5,8,-11,0,-3,5,0,-1
-1,7,7,-2,-4,7,-10,0,-3,5,0,-1
-1,6,6,-2,-4,6,-9,0,-3,4,0,-1
-1,6,5,-2,-4,6,-9,1,-3,4,0,-1
-1,5,5,-2,-4,5,-8,1,-2,4,0,-1
-1,5,4,-1,-3,5,-8,2,-2,4,0,0
0,4,4,-1,-3,4,-7,2,-1,4,0,0
0,3,3,-1,-2,3,-7,2,-1,4,0,0
0,2,2,-1,-1,2,-6,2,-1,3,0,0
0,1,1,0,-1,1,-5,3,-1,3,0,0
0,0,0,0,-1,1,-4,4,-1,3,0,0
-1,0,0,1,-1,0,-3,5,-1,3,-1,-1
-2,-1,0,2,-2,0,-2,5,-2,2,-2,-2
-3,-1,1,3,-2,0,-1,5,-3,1,-3,-3
-4,-2,1,3,-3,0,0,5,-3,0,-3,-4
-5,-3,0,4,-3,-1,0,5,-3,0,-4,-5
-5,-4,0,5,-3,-2,0,5,-3,0,-4,-5
-5,-6,-1,5,-2,-3,1,5,-3,0,-4,-5
-5,-7,-2,6,-2,-4,2,5,-3,-1,-5,-6
-5,-8,-3,6,-2,-5,3,5,-3,-1,-5,-7
-6,-9,-3,7,-2,-5,4,5,-4,-2,-6,-7
-6,-10,-4,8,-2,-6,5,6,-4,-2,-7,-8
-7,-11,-4,9,-2,-7,6,6,-4,-3,-8,-8
-7,-11,-4,10,-2,-8,6,7,-4,-3,-8,-8
-8,-12,-4,10,-2,-8,7,7,-4,-3,-8,-9
-8,-12,-4,10,-2,-9,7,7,-4,-3,-8,-9
-8,-13,-5,10,-2,-9,7,7,-4,-3,-8,-9
-8,-13,-5,10,-2,-10,8,7,-4,-3,-8,-10
-8,-14,-6,11,-2,-10,8,7,-4,-3,-8,-10
-8,-14,-6,11,-2,-10,9,7,-4,-4,-8,-11
-8,-14,-7,11,-1,-10,9,8,-4,-4,-8,-11
-8,-14,-7,11,-1,-10,9,8,-4,-4,-8,-12
-8,-14,-7,11,-1,-10,9,8,-4,-4,-9,-12
-8,-14,-7,11,-1,-10,9,8,-4,-5,-9,-12
-8,-14,-7,11,-1,-10,9,8,-4,-5,-9,-12
-8,-15,-7,11,-1,-11,9,8,-4,-5,-9,-12
-8,-15,-7,11,-1,-11,10,8,-4,-5,-9,-12
-8,-15,-7,12,-1,-11,10,8,-5,-5,-10,-12
-8,-16,-8,12,-1,-11,10,8,-5,-5,-10,-12
-8,-16,-8,12,-1,-12,10,9,-5,-5,-10,-12
-8,-16,-8,12,-1,-12,10,9,-5,-5,-10,-12
-8,-16,-8,12,-1,-12,10,10,-5,-5,-10,-12
-8,-16,-8,12,-1,-12,10,10,-5,-5,-10,-13
-8,-16,-8,12,-1,-12,10,10,-5,-6,-10,-13
-8,-16,-9,12,-1,-12,11,10,-5,-6,-11,-13
-8,-16,-9,12,-1,-12,11,10,-5,-6,-11,-13
-8,-16,-9,12,0,-12,11,9,-5,-6,-10,-13
-8,-16,-9,12,0,-12,11,9,-5,-6,-10,-13
-8,-16,-9,12,0,-12,11,9,-5,-6,-10,-13
-8,-16,-9,12,0,-13,11,9,-5,-6,-10,-13
-8,-17,-9,12,0,-13,11,10,-5,-6,-10,-14
-8,-17,-10,12,0,-14,12,11,-4,-6,-10,-14
-8,-18,-10,13,1,-14,13,13,-2,-6,-10,-15
-9,-20,-11,14,0,-15,16,15,1,-5,-11,-18
-10,-20,-10,15,0,-15,19,18,5,-3,-12,-22
-12,-20,-8,16,-1,-14,22,20,10,1,-13,-26
-13,-20,-7,17,-2,-14,26,24,18,9,-11,-29
-13,-20,-6,17,-3,-13,30,29,30,21,-7,-30
-14,-20,-6,17,-4,-13,33,34,44,36,0,-30
-14,-19,-6,16,-4,-12,35,39,60,55,12,-26
-13,-18,-6,15,-4,-11,36,44,77,76,28,-18
-11,-16,-6,13,-3,-10,36,49,94,99,48,-6
-8,-14,-6,11,-2,-10,36,53,110,120,69,8
-5,-12,-8,9,0,-10,35,55,120,133,87,24
-2,-12,-10,7,3,-11,32,54,118,132,96,39
2,-11,-13,4,7,-12,25,48,103,112,93,51
5,-9,-14,1,9,-12,15,37,74,78,80,59
8,-5,-14,-1,11,-10,2,20,33,34,58,62
10,-1,-13,-4,11,-7,-12,-3,-22,-20,26,59
11,3,-10,-7,10,-4,-27,-28,-84,-78,-9,54
12,7,-6,-9,8,0,-39,-50,-136,-127,-40,49
12,13,0,-12,5,6,-47,-68,-171,-158,-61,45
9,18,9,-13,0,13,-51,-81,-189,-173,-75,40
6,22,16,-14,-5,19,-51,-87,-194,-176,-81,34
4,24,20,-14,-8,22,-50,-88,-188,-170,-83,28
3,24,21,-13,-10,23,-49,-84,-177,-160,-81,22
1,24,22,-13,-11,23,-47,-79,-161,-145,-77,16
0,23,22,-12,-11,22,-44,-72,-144,-130,-72,8
0,22,21,-11,-12,21,-42,-64,-126,-115,-67,0
0,20,20,-10,-11,20,-40,-57,-110,-101,-62,-7
0,18,18,-9,-10,18,-37,-50,-96,-88,-57,-13
0,16,16,-8,-8,16,-33,-44,-83,-77,-52,-16
-1,12,13,-6,-7,13,-28,-37,-71,-67,-48,-19
-1,9,10,-4,-6,10,-23,-30,-61,-58,-43,-20
-2,5,7,-1,-6,6,-18,-23,-52,-50,-39,-21
-3,2,5,0,-5,3,-13,-18,-44,-43,-34,-21
-3,0,3,2,-4,1,-8,-13,-37,-36,-30,-21
-3,-2,1,3,-4,-1,-4,-8,-31,-30,-26,-21
-3,-4,0,4,-3,-2,-1,-4,-25,-25,-23,-20
-4,-5,-1,5,-2,-3,1,-1,-20,-21,-21,-20
-4,-6,-2,5,-1,-4,3,0,-16,-17,-18,-19
-4,-7,-3,6,-1,-5,5,2,-13,-15,-16,-18
-5,-7,-3,6,-1,-5,6,3,-10,-12,-15,-17
-5,-7,-3,6,-1,-5,7,4,-8,-10,-14,-17
-5,-8,-4,6,-1,-5,7,5,-7,-9,-13,-17
-5,-8,-4,6,-1,-6,8,6,-6,-8,-12,-17
-5,-9,-4,6,-1,-7,9,7,-4,-7,-11,-17
-5,-9,-4,6,-1,-7,9,8,-3,-6,-10,-17
-5,-9,-4,6,-1,-6,10,9,-2,-5,-9,-17
-5,-8,-4,6,-1,-6,10,10,-1,-4,-9,-16
-5,-8,-4,6,-1,-6,10,9,-1,-4,-8,-16
-5,-8,-4,6,-1,-6,10,9,0,-3,-8,-16
-4,-7,-4,6,0,-6,10,9,0,-2,-7,-16
-4,-7,-4,6,0,-6,10,10,0,-2,-7,-15
-4,-7,-4,6,0,-6,10,10,1,-1,-6,-15
-3,-7,-4,6,0,-6,10,10,1,0,-6,-14
-3,-7,-4,5,0,-5,10,10,2,0,-6,-14
-3,-7,-4,5,0,-5,9,9,2,0,-6,-14
-3,-7,-4,5,0,-5,9,9,3,0,-5,-14
-3,-6,-3,5,0,-5,9,9,3,1,-5,-14
-3,-6,-3,4,0,-4,9,10,4,1,-4,-14
-3,-6,-3,4,0,-4,9,11,4,2,-4,-14
-3,-6,-3,4,0,-4,9,12,5,2,-3,-14
-3,-5,-3,4,0,-4,8,12,6,2,-3,-13
-3,-5,-3,4,0,-4,8,12,6,2,-3,-13
-3,-5,-3,4,0,-4,8,12,6,3,-3,-13
-3,-5,-3,4,0,-4,8,12,7,3,-3,-12
-3,-5,-3,3,0,-4,8,12,7,4,-2,-12
-2,-4,-3,3,0,-4,8,12,7,4,-2,-12
-2,-4,-3,3,0,-4,8,12,8,5,-1,-12
-2,-4,-3,3,0,-4,8,12,8,6,-1,-12
-1,-4,-3,3,0,-4,8,12,9,6,-1,-12
-1,-4,-2,3,0,-4,8,12,9,6,0,-11
-1,-4,-2,3,0,-4,8,12,9,7,0,-11
-1,-4,-2,2,0,-3,8,12,9,7,0,-11
0,-3,-2,2,0,-3,8,11,10,8,1,-11
0,-3,-2,1,0,-3,8,11,10,9,1,-10
0,-3,-2,1,0,-3,8,11,11,10,2,-10
0,-3,-2,1,0,-3,8,12,12,10,2,-10
0,-2,-2,1,0,-2,8,13,13,11,3,-10
0,-2,-2,0,0,-2,8,13,14,11,3,-9
0,-2,-2,0,0,-2,8,14,14,12,4,-9
0,-2,-2,0,0,-2,7,14,15,13,4,-9
0,-2,-2,0,0,-2,7,15,16,14,5,-9
0,-1,-2,0,1,-2,7,15,17,15,6,-9
0,-1,-2,0,1,-2,7,15,18,16,7,-8
1,-1,-2,0,1,-2,7,15,19,17,8,-8
1,0,-2,0,1,-1,7,15,20,18,9,-7
1,0,-2,0,1,-1,7,16,21,19,9,-6
1,0,-2,0,1,-1,7,16,22,20,10,-6
2,0,-2,-1,1,-1,7,17,23,21,11,-5
2,0,-2,-1,1,-1,7,17,25,22,12,-4
2,1,-1,-2,1,0,7,18,26,23,13,-3
2,1,-1,-2,1,0,6,18,28,24,14,-2
2,1,-1,-2,1,0,6,18,29,26,15,-1
3,2,-1,-3,1,0,6,18,31,27,16,0
3,2,-1,-3,1,0,6,19,33,29,17,0
4,3,-1,-4,1,0,5,20,36,30,19,1
4,3,-1,-4,1,0,5,22,38,32,20,2
5,4,-1,-4,1,0,5,24,40,34,22,4
5,4,0,-4,1,0,5,24,43,36,24,5
5,4,0,-5,2,1,4,25,45,38,26,7
6,5,0,-5,2,1,4,25,47,41,28,8
6,5,0,-6,3,1,3,25,50,43,30,10
7,6,0,-6,3,2,3,25,52,44,32,12
7,6,0,-7,4,2,2,25,54,46,34,14
8,6,-1,-7,4,2,1,25,55,47,35,16
8,6,-1,-8,4,2,1,26,56,48,36,17
9,6,-1,-8,5,2,0,27,56,49,37,19
9,7,-1,-8,5,2,0,27,57,49,38,20
10,7,-1,-9,5,3,-1,27,57,50,38,21
10,7,-1,-9,5,3,-1,27,57,50,39,22
11,8,-1,-9,6,2,-2,27,57,50,39,23
11,8,-1,-10,6,2,-2,27,57,49,39,23
11,8,-1,-10,6,2,-3,26,56,48,39,24
11,8,-1,-10,6,2,-3,25,54,47,39,24
11,8,-2,-10,6,2,-3,24,53,46,39,24
11,8,-2,-10,6,2,-4,24,51,45,39,24
11,8,-2,-10,6,2,-4,23,49,43,38,24
11,8,-2,-10,6,2,-4,23,47,42,37,23
11,8,-1,-10,6,3,-4,22,45,41,35,23
11,9,-1,-10,6,3,-4,20,42,39,33,22
10,9,0,-10,5,4,-4,19,39,37,31,21
9,9,0,-10,4,4,-4,18,36,34,29,20
8,9,1,-9,4,4,-4,17,32,32,27,19
8,9,1,-9,3,4,-3,15,28,29,25,17
7,9,1,-8,3,5,-3,14,25,26,22,16
7,8,2,-8,2,5,-2,12,22,24,20,14
6,8,2,-7,2,5,-2,11,18,22,17,12
6,7,2,-7,1,5,-1,10,16,20,15,11
5,7,2,-7,1,5,-1,9,14,18,13,9
5,7,2,-6,0,4,0,9,12,16,11,7
4,7,2,-6,0,4,0,9,10,14,9,6
3,7,3,-5,0,4,0,9,9,12,8,5
3,6,3,-4,0,4,1,9,7,11,7,4
2,6,3,-4,0,4,2,8,6,10,6,3
2,5,3,-4,0,4,2,8,5,9,5,2
2,5,3,-4,-1,4,3,7,5,9,4,1
2,5,3,-4,-1,4,3,7,4,8,3,1
2,5,3,-4,-1,4,3,7,3,7,2,0
1,5,3,-3,-1,3,3,7,3,6,2,0
1,5,3,-3,-1,3,3,7,2,6,1,-1
1,5,3,-3,-1,3,3,7,2,6,1,-1
1,5,3,-3,-1,3,3,7,2,6,1,-1
1,5,3,-3,-1,3,3,7,2,6,1,-1
1,5,3,-3,-1,3,3,7,2,6,1,-2
1,5,3,-3,-1,3,3,7,2,6,1,-2
1,5,4,-3,-1,3,4,7,2,6,0,-2
1,5,4,-3,-2,3,4,7,2,6,0,-2
1,5,4,-3,-2,4,4,7,2,6,0,-2
1,5,4,-3,-2,4,4,7,2,6,0,-2
1,5,4,-3,-1,4,5,7,2,6,0,-2
1,5,4,-3,-1,4,5,7,2,6,0,-2
1,6,5,-4,-1,5,5,8,3,6,0,-2
1,6,5,-4,-1,5,5,8,3,7,1,-2
2,7,6,-5,-2,6,5,9,4,8,1,-2
2,8,6,-5,-2,7,5,9,5,8,2,-2
2,9,7,-6,-2,8,4,9,5,9,2,-1
2,10,7,-6,-3,9,4,9,6,10,3,-1
3,11,8,-7,-3,9,4,9,6,10,3,0
3,12,9,-8,-3,10,3,9,7,11,4,0
3,13,10,-8,-3,11,3,9,7,11,4,0
3,14,10,-9,-3,11,3,9,8,12,4,0
3,14,10,-9,-3,11,3,9,8,12,4,0
3,14,10,-9,-3,12,3,10,8,12,4,0
3,14,10,-9,-3,12,3,10,8,12,4,0
3,14,11,-9,-3,12,4,10,8,13,5,0
3,15,12,-9,-4,13,4,10,8,13,5,0
3,16,13,-10,-4,14,3,9,8,14,6,1
3,17,13,-10,-4,14,2,8,8,14,6,1
3,17,13,-10,-4,15,1,7,7,13,5,1
3,18,14,-10,-4,15,-1,5,7,13,5,1
4,18,14,-11,-4,16,-3,4,6,13,5,1
4,19,14,-12,-4,16,-5,4,5,13,5,1
5,19,14,-12,-4,16,-7,3,4,12,4,1
6,19,13,-13,-3,16,-8,3,3,12,4,1
6,19,13,-13,-3,15,-9,3,2,11,4,1
6,19,12,-13,-2,15,-10,3,2,11,4,1
6,18,11,-12,-2,14,-10,3,2,11,4,1
6,17,11,-12,-2,13,-10,3,2,10,4,1
6,16,10,-11,-2,13,-9,2,1,10,4,1
6,16,10,-11,-2,13,-9,2,1,9,4,1
6,15,9,-11,-2,12,-8,2,1,9,4,1
6,15,9,-11,-1,12,-7,2,1,8,3,0
5,14,8,-10,-1,11,-6,2,1,8,3,0
5,14,8,-10,0,10,-6,3,1,8,3,0
5,13,8,-9,0,10,-5,4,2,8,3,1
5,13,7,-9,0,9,-5,5,2,8,3,1
5,12,7,-9,0,9,-4,5,2,7,3,1
6,11,6,-8,0,8,-3,6,2,7,3,1
6,10,5,-8,1,7,-2,6,2,6,3,1
6,9,4,-8,1,6,-1,7,2,6,3,1
6,9,3,-7,1,5,0,7,2,6,3,1
6,8,3,-6,1,5,0,7,2,5,2,1
5,7,3,-5,1,5,1,7,1,5,1,0
4,7,3,-5,0,5,1,6,0,4,0,-1
2,6,3,-4,0,5,2,6,0,4,0,-2
1,5,3,-3,0,4,3,7,0,3,-1,-3
1,4,2,-2,0,3,4,7,0,3,-1,-4
1,3,1,-2,0,2,5,7,-1,2,-2,-4
1,2,1,-1,0,1,6,6,-1,2,-2,-5
0,1,1,-1,0,1,7,6,-1,2,-2,-5
0,0,0,0,0,0,7,6,-1,1,-3,-6
0,0,0,1,0,0,8,6,-1,0,-4,-7
0,-1,-1,1,0,-1,8,7,-1,0,-5,-8
0,-2,-2,2,0,-2,9,7,-1,0,-5,-8
-1,-3,-2,2,1,-3,9,7,-1,0,-5,-8
-1,-3,-3,2,1,-3,10,8,-1,-1,-5,-9
-1,-4,-3,2,1,-4,10,8,-1,-1,-6,-9
-1,-4,-3,3,1,-4,11,8,-1,-2,-6,-9
-1,-5,-3,3,1,-5,11,9,-1,-2,-6,-9
-1,-5,-3,3,1,-5,11,9,-1,-2,-6,-10
-1,-6,-3,4,1,-5,11,9,-2,-3,-7,-10
-2,-6,-3,4,1,-5,11,9,-2,-3,-7,-10
-2,-6,-4,4,1,-5,12,9,-2,-3,-7,-10
-2,-6,-4,4,1,-5,12,9,-2,-3,-8,-10
-2,-6,-4,4,1,-5,12,9,-2,-3,-8,-10
-2,-6,-4,4,1,-5,12,9,-2,-3,-8,-10
-2,-7,-4,4,1,-6,12,9,-2,-3,-8,-10
-2,-7,-4,4,1,-6,12,9,-1,-3,-8,-11
-2,-7,-4,4,1,-6,13,9,-1,-3,-8,-11
-2,-7,-5,4,1,-6,13,10,-2,-3,-8,-11
-2,-7,-5,4,1,-6,14,10,-2,-3,-8,-12
-2,-8,-5,4,1,-6,14,11,-2,-3,-8,-12
-2,-8,-5,5,1,-6,14,11,-2,-3,-8,-12
-2,-8,-5,5,1,-6,14,11,-2,-3,-8,-12
-2,-8,-5,5,1,-7,14,11,-2,-3,-8,-12
-2,-8,-5,5,1,-7,14,11,-2,-3,-8,-12
-2,-8,-5,5,1,-7,14,11,-2,-3,-8,-12
-2,-8,-5,6,1,-7,14,11,-2,-3,-8,-12
-2,-8,-5,6,1,-7,14,10,-2,-3,-8,-12
-2,-8,-5,6,0,-7,14,10,-2,-3,-8,-12
-3,-8,-5,6,0,-7,14,10,-2,-4,-8,-12
-3,-9,-6,6,1,-7,15,11,-1,-4,-8,-12
-3,-10,-7,7,1,-8,16,12,0,-4,-8,-13
-3,-11,-7,7,1,-9,17,14,2,-4,-8,-14
-4,-12,-7,8,1,-10,20,17,5,-2,-9,-16
-6,-13,-6,9,0,-9,23,20,10,1,-9,-20
-7,-13,-5,10,-1,-9,27,23,16,7,-9,-23
-9,-13,-3,11,-3,-8,31,27,26,16,-6,-26
-9,-13,-3,11,-4,-8,34,31,38,29,-1,-27
-9,-13,-2,11,-4,-8,37,36,52,45,8,-25
-9,-12,-2,11,-4,-7,39,41,68,65,20,-20
-8,-10,-2,9,-4,-6,40,46,85,86,36,-11
-6,-8,-2,7,-3,-5,39,51,102,108,56,1
-3,-6,-3,5,-1,-5,39,55,117,127,77,16
0,-5,-5,3,1,-5,37,58,126,135,92,31
3,-5,-8,1,4,-7,34,57,121,127,96,44
6,-4,-11,-1,8,-7,28,50,102,101,89,54
10,-2,-12,-3,10,-7,17,37,69,63,73,59
13,1,-11,-6,11,-5,4,18,24,16,48,60
15,6,-9,-10,11,-2,-11,-7,-35,-39,14,57
16,10,-5,-13,10,2,-26,-33,-98,-95,-20,52
17,15,-1,-16,9,6,-39,-55,-146,-138,-47,49
15,21,6,-18,4,13,-47,-73,-177,-164,-65,45
12,27,15,-19,-2,21,-50,-84,-192,-175,-76,41
9,31,22,-19,-7,26,-50,-88,-194,-175,-81,36
6,32,26,-19,-10,29,-48,-87,-187,-168,-82,30
5,33,28,-19,-12,30,-47,-82,-174,-156,-79,23
4,32,28,-18,-13,30,-45,-76,-158,-141,-74,16
3,31,28,-17,-14,29,-42,-69,-140,-125,-69,8
2,29,27,-16,-13,28,-39,-61,-122,-109,-64,0
2,27,26,-15,-12,26,-36,-54,-106,-95,-58,-6
2,25,24,-13,-11,24,-33,-46,-91,-82,-53,-10
1,22,21,-12,-10,21,-29,-39,-78,-71,-48,-13
1,19,17,-10,-9,18,-24,-33,-66,-61,-44,-16
0,15,14,-7,-8,14,-19,-27,-56,-52,-39,-17
0,10,11,-5,-6,10,-14,-21,-47,-45,-35,-18
-1,7,9,-3,-5,7,-9,-16,-40,-37,-31,-19
-1,5,7,-1,-5,5,-4,-12,-33,-31,-27,-18
-2,3,6,0,-4,4,0,-7,-26,-25,-23,-17
-2,2,5,0,-4,3,3,-3,-20,-20,-20,-16
-2,1,4,1,-3,2,5,1,-15,-16,-17,-15
-2,0,3,1,-3,1,7,4,-11,-12,-15,-15
-2,0,2,1,-2,0,8,6,-8,-9,-14,-14
-2,-1,1,1,-2,0,9,8,-6,-7,-12,-14
-2,-1,1,2,-2,-1,10,8,-5,-6,-11,-14
-2,-1,0,2,-2,-1,10,9,-3,-4,-10,-14
-2,-2,0,2,-1,-1,11,9,-2,-3,-9,-14
-2,-2,0,2,-1,-1,11,9,-1,-2,-8,-14
-2,-2,0,2,-1,-1,12,9,0,-1,-7,-14
-2,-2,0,2,-1,-1,12,10,1,0,-7,-14
-2,-2,0,2,-1,-1,12,10,2,0,-6,-14
-2,-2,0,2,-1,-1,12,11,3,1,-6,-13
-2,-2,0,2,-1,-1,12,11,3,1,-6,-13
-2,-1,0,2,-1,-1,12,11,4,2,-5,-12
-2,-1,0,2,-1,-1,12,12,4,3,-5,-12
-2,-1,0,1,-1,-1,12,12,5,3,-4,-12
-2,-1,0,1,-1,-1,12,13,6,4,-4,-12
-1,-1,0,1,-1,-1,12,12,6,4,-3,-11
-1,0,0,1,-1,-1,12,12,7,5,-3,-11
-1,0,0,1,-1,-1,12,12,7,6,-3,-11
-1,0,0,1,-1,-1,12,12,8,6,-2,-11
-1,0,0,1,-1,-1,12,12,8,7,-2,-11
-1,0,0,0,-1,0,12,13,8,7,-1,-10
-1,0,1,0,-1,0,12,13,9,7,-1,-10
-1,0,1,0,-1,0,12,14,9,7,0,-9
-1,0,1,0,-1,0,12,15,10,8,0,-9
-1,0,2,0,-1,0,12,15,10,8,0,-9
-1,0,2,0,-1,0,12,15,11,9,0,-9
-1,0,2,0,-1,0,12,15,11,9,0,-9
-1,1,2,0,-1,1,12,15,11,10,0,-9
-1,1,2,0,-1,1,12,15,12,10,1,-9
-1,1,2,0,-1,1,12,14,12,11,2,-8
-1,1,2,0,-1,1,12,14,12,11,2,-8
0,1,2,-1,-1,1,12,14,13,12,2,-8
0,2,3,-1,-1,1,12,14,14,12,2,-8
0,2,3,-1,-1,1,12,15,15,13,3,-8
0,2,3,-1,-1,2,12,16,15,13,3,-7
0,2,3,-1,-1,2,12,16,16,14,4,-7
0,2,3,-1,-1,2,12,16,16,15,5,-7
0,3,3,-2,-1,2,12,16,17,15,6,-6
0,3,3,-2,-1,2,11,16,17,16,6,-6
0,3,3,-2,-1,3,11,16,18,17,7,-5
1,4,3,-2,-1,3,11,16,19,18,7,-5
1,4,3,-3,-1,4,11,16,20,19,8,-4
1,4,3,-3,-1,4,11,16,21,20,9,-4
1,4,4,-3,-1,4,11,16,22,21,10,-3
1,5,4,-3,-1,4,11,16,23,22,11,-3
1,5,5,-4,-1,4,11,17,24,23,12,-2
1,6,5,-4,-1,5,11,17,26,25,13,-1
1,6,5,-4,-1,5,11,18,27,26,14,0
2,7,5,-5,-1,6,11,18,29,28,16,0
2,8,6,-6,-1,7,10,18,31,30,17,1
2,10,7,-7,-2,8,10,18,33,32,19,2
2,11,8,-7,-2,9,9,18,35,33,20,3
3,12,9,-8,-3,10,8,18,37,35,22,5
3,13,9,-8,-3,11,7,19,39,37,24,6
4,14,10,-9,-3,12,6,19,41,39,26,8
5,15,10,-10,-3,13,5,20,44,42,28,9
5,17,11,-11,-3,13,5,20,46,44,30,11
6,18,11,-12,-3,14,4,21,49,46,33,13
7,18,11,-13,-2,15,4,22,52,49,35,14
7,19,12,-13,-2,15,3,23,55,52,37,16
8,20,12,-14,-2,16,3,24,58,55,40,19
9,22,13,-16,-1,17,2,25,61,58,43,21
11,24,13,-17,-1,18,1,26,63,61,46,24
12,26,14,-19,0,19,0,27,66,63,49,26
13,28,14,-20,0,20,-1,27,69,66,51,29
14,29,15,-22,0,22,-2,28,70,68,54,31
15,31,15,-23,0,23,-2,29,71,69,55,33
15,32,16,-24,0,23,-3,30,72,70,56,35
16,32,16,-25,0,24,-3,30,73,71,57,36
16,33,16,-25,0,24,-3,30,74,71,59,38
17,34,17,-26,0,25,-3,29,74,71,60,39
17,35,17,-26,0,26,-3,28,73,71,60,39
17,35,18,-26,0,27,-3,27,72,71,60,40
17,35,19,-26,0,27,-3,27,71,70,60,40
17,35,19,-26,0,27,-2,26,69,69,60,40
17,35,19,-26,0,27,-2,26,67,68,58,39
17,35,19,-26,-1,27,-1,25,64,66,56,38
16,34,19,-25,-1,27,-1,24,60,63,53,37
15,33,19,-24,-2,26,-1,23,56,59,50,35
14,32,18,-23,-2,25,-1,21,52,55,47,33
13,30,17,-21,-1,23,0,19,48,52,43,30
12,28,16,-20,-1,22,1,17,44,48,40,28
11,26,15,-18,-1,20,2,15,40,44,36,25
10,24,14,-17,-1,19,3,14,35,40,32,22
9,23,14,-16,-1,18,4,13,31,36,29,19
8,21,13,-15,-1,17,4,12,27,32,25,16
7,20,12,-14,-1,16,4,11,23,29,22,14
7,18,11,-13,-1,14,4,10,20,26,19,11
6,16,10,-11,-1,13,4,10,17,23,16,9
6,14,8,-9,-1,11,4,10,15,20,13,7
6,12,7,-8,-1,10,5,9,13,17,11,5
5,11,6,-8,0,8,5,9,12,15,9,4
5,10,5,-7,0,7,6,8,10,13,7,2
4,8,4,-7,0,6,7,8,9,11,6,0
3,7,3,-6,0,5,8,8,7,10,4,0
3,5,2,-4,0,3,9,8,6,8,3,-1
2,4,1,-3,0,2,10,8,5,7,2,-2
2,3,1,-2,0,1,10,9,5,6,1,-3
2,2,0,-2,0,1,11,9,5,5,0,-4
2,1,0,-1,0,1,11,10,4,4,0,-5
2,1,0,-1,0,1,11,10,4,4,0,-5
1,1,0,-1,0,0,11,10,3,3,-1,-6
1,0,0,-1,0,0,12,10,3,3,-1,-6
1,0,0,-1,1,0,13,9,2,2,-2,-7
1,0,-1,-1,1,-1,13,9,2,2,-3,-7
1,0,-1,0,1,-1,13,9,2,1,-3,-7
1,-1,-1,0,1,-1,13,9,3,1,-3,-7
1,-1,-1,0,1,-1,13,10,3,1,-3,-7
1,-1,-1,0,1,-1,13,11,3,1,-3,-8
0,-1,-1,0,1,-1,14,12,3,1,-3,-8
0,-1,-1,0,1,-1,14,12,3,0,-3,-8
0,-1,-1,0,1,-1,14,13,3,0,-3,-8
0,-1,-1,0,1,-1,14,13,3,0,-3,-8
0,-1,-2,0,1,-2,15,12,3,0,-4,-8
0,-1,-2,0,1,-2,15,11,2,-1,-4,-8
0,-1,-2,0,1,-2,15,10,2,-1,-4,-8
0,-1,-2,0,1,-2,15,10,1,-1,-4,-8
0,-2,-3,0,2,-2,15,10,1,-1,-4,-8
0,-2,-3,0,2,-2,16,11,2,-1,-4,-9
0,-2,-3,0,2,-2,16,12,2,-2,-4,-9
0,-3,-3,0,2,-3,16,12,2,-2,-4,-9
0,-3,-3,1,2,-3,16,12,2,-2,-4,-9
0,-3,-3,1,2,-3,16,11,2,-2,-4,-9
0,-3,-4,1,2,-3,16,11,2,-2,-4,-9
0,-3,-4,1,3,-4,16,10,1,-3,-4,-9
0,-3,-5,1,3,-4,16,10,1,-3,-4,-9
0,-4,-5,1,3,-5,16,10,1,-3,-4,-9
0,-4,-6,1,3,-5,16,10,1,-3,-5,-9
1,-5,-7,2,4,-6,17,12,2,-3,-6,-10
1,-7,-9,3,5,-8,18,15,5,-3,-7,-11
0,-9,-10,4,5,-10,21,18,9,-2,-8,-14
0,-10,-9,5,4,-10,24,20,14,0,-9,-19
-1,-10,-8,6,3,-9,28,23,21,6,-8,-23
-2,-10,-7,6,2,-9,31,27,30,15,-5,-25
-3,-10,-6,6,1,-8,33,30,40,29,0,-25
-3,-8,-4,6,0,-6,35,32,52,46,11,-22
-3,-5,-2,4,0,-4,35,33,65,66,26,-14
-1,-1,0,2,0,-1,34,35,79,89,45,-2
0,3,2,-1,0,2,32,37,93,111,66,13
3,6,2,-4,0,4,31,39,104,126,85,30
6,8,1,-6,2,4,28,42,109,129,97,44
10,9,-1,-8,5,3,24,41,101,113,96,55
13,10,-3,-11,8,3,18,35,78,81,83,60
15,12,-3,-13,9,3,8,21,40,37,60,62
17,14,-3,-15,11,4,-4,1,-9,-14,29,59
19,16,-3,-18,11,6,-18,-23,-71,-72,-8,54
21,19,-2,-20,12,8,-31,-47,-129,-126,-42,49
22,24,1,-23,10,12,-42,-67,-171,-164,-68,44
20,31,10,-25,4,20,-48,-83,-196,-185,-84,37
15,38,23,-27,-4,30,-50,-93,-206,-190,-92,29
11,43,32,-27,-10,37,-50,-96,-203,-185,-95,21
9,45,37,-27,-14,41,-48,-94,-192,-174,-93,14
7,45,39,-26,-16,42,-47,-88,-176,-158,-88,7
6,44,39,-25,-17,41,-45,-80,-157,-141,-83,0
6,43,38,-24,-16,40,-43,-73,-138,-125,-77,-8
5,41,36,-23,-16,38,-40,-65,-122,-111,-70,-14
5,39,33,-22,-15,36,-37,-58,-107,-98,-64,-18
5,35,30,-20,-13,33,-33,-51,-93,-86,-57,-21
5,31,26,-18,-11,29,-28,-43,-81,-75,-51,-23
5,26,22,-16,-9,24,-23,-36,-70,-65,-46,-24
5,21,17,-13,-7,19,-17,-29,-59,-56,-41,-25
4,16,13,-10,-5,14,-11,-23,-50,-47,-36,-24
4,12,9,-8,-3,10,-5,-17,-41,-39,-31,-23
3,9,7,-6,-3,8,0,-12,-33,-32,-26,-22
3,7,5,-5,-2,6,3,-8,-27,-26,-22,-21
2,6,3,-4,-1,4,6,-4,-21,-21,-18,-20
2,5,2,-3,0,3,8,-1,-16,-17,-15,-20
2,3,1,-3,0,1,10,1,-12,-14,-13,-19
2,2,0,-3,1,1,11,3,-10,-11,-11,-19
2,2,0,-2,1,0,12,4,-8,-9,-10,-19
2,1,0,-2,1,0,12,4,-6,-8,-9,-19
2,1,-1,-1,1,0,13,5,-5,-7,-9,-19
2,1,-1,-1,1,0,13,6,-4,-6,-8,-19
2,0,-2,-1,1,0,14,7,-3,-5,-7,-19
2,0,-2,-1,1,0,14,8,-2,-5,-6,-20
2,0,-2,-1,1,0,14,9,-1,-4,-5,-20
2,0,-2,-1,1,0,15,9,-1,-3,-5,-21
2,0,-2,-1,1,0,15,9,0,-2,-5,-21
2,0,-2,-1,1,0,15,9,0,-1,-5,-21
2,0,-2,-1,1,0,15,9,0,-1,-4,-21
2,0,-2,-1,1,0,15,9,1,0,-4,-21
2,0,-1,-1,1,0,15,10,1,0,-3,-21
2,0,-1,-1,1,0,15,10,2,0,-3,-21
2,0,-1,-1,1,0,14,11,3,1,-2,-22
2,0,-1,-1,0,0,14,12,3,1,-2,-22
1,0,-1,-1,0,0,14,12,3,2,-1,-22
1,0,-1,-1,0,0,14,12,3,3,-1,-22
1,1,0,-1,0,0,13,12,4,3,-1,-23
1,1,0,-1,0,1,13,12,4,4,0,-23
1,1,0,-1,0,1,13,12,5,4,0,-23
0,1,0,0,-1,0,13,12,5,4,0,-23
0,0,0,0,-1,0,12,12,5,4,1,-24
0,0,0,0,-1,0,12,12,6,5,1,-24
0,0,0,0,-1,0,13,12,6,6,2,-24
0,0,0,0,-1,0,13,13,6,7,2,-25
0,0,0,0,-1,0,13,13,7,7,2,-25
0,0,0,0,-1,0,13,13,7,7,2,-25
0,0,1,0,-1,0,12,13,8,8,3,-25
0,1,1,0,-1,1,12,13,8,8,3,-25
0,1,2,0,-1,1,11,13,9,9,4,-25
0,2,2,-1,-1,2,11,14,9,10,5,-25
0,2,2,-1,-1,2,11,15,10,11,6,-25
0,2,2,-1,-1,2,11,15,10,11,6,-25
0,2,2,-1,-1,2,11,15,11,12,7,-24
0,2,2,-1,-1,1,11,16,12,13,8,-24
0,1,1,-1,-1,1,11,16,13,14,10,-23
0,1,1,-1,-1,1,11,16,14,15,11,-22
0,1,1,-1,-1,1,10,16,15,16,11,-22
0,1,1,0,-1,1,10,17,16,17,12,-22
0,1,1,0,-1,1,10,17,17,19,13,-22
0,1,1,0,-1,1,10,17,18,20,14,-21
0,2,1,-1,-1,1,10,17,18,22,16,-20
0,2,1,-1,-1,2,9,17,19,23,17,-20
0,3,2,-2,-1,2,8,17,20,24,18,-19
0,4,2,-2,-1,3,7,17,22,26,20,-19
1,5,3,-3,-1,4,6,17,23,28,21,-19
2,6,4,-4,-1,5,6,18,25,29,22,-18
2,6,4,-4,-1,5,5,18,26,31,23,-18
3,6,4,-5,-1,5,5,19,28,32,24,-17
3,6,4,-5,0,5,4,19,29,34,26,-15
3,6,3,-5,0,5,4,19,31,36,28,-14
3,7,3,-5,0,6,3,19,32,38,31,-12
4,7,4,-6,0,6,2,19,34,40,33,-11
4,8,4,-6,0,7,1,19,35,41,34,-11
4,8,4,-7,0,7,0,19,35,42,35,-10
5,9,5,-7,0,8,-1,19,36,44,36,-9
5,10,5,-7,0,8,-1,18,36,44,37,-8
5,10,5,-8,0,8,-2,18,36,44,37,-6
5,11,6,-8,0,9,-3,17,36,44,38,-5
6,11,6,-9,0,9,-4,16,36,44,38,-4
6,12,6,-9,0,9,-5,16,35,44,39,-4
6,12,6,-9,0,9,-5,16,34,43,38,-4
6,12,6,-9,0,9,-6,16,33,42,38,-3
6,12,6,-10,0,9,-6,15,32,42,37,-3
6,12,6,-10,0,9,-7,14,31,42,37,-3
6,12,6,-10,0,9,-7,13,30,41,36,-3
6,13,7,-10,0,10,-7,12,29,41,36,-3
6,13,8,-10,-1,11,-7,11,28,40,36,-4
6,14,8,-10,-1,11,-8,11,26,39,35,-5
6,14,9,-10,-2,12,-8,10,25,38,34,-6
5,14,9,-10,-2,13,-8,8,23,36,32,-8
5,14,9,-10,-2,12,-7,7,21,33,29,-10
4,14,9,-9,-2,12,-7,7,20,31,27,-12
4,13,9,-8,-2,11,-6,8,18,30,26,-13
3,11,8,-7,-2,10,-5,8,16,28,24,-14
2,10,7,-6,-2,9,-4,8,14,25,22,-15
2,8,7,-5,-2,8,-3,8,12,22,19,-17
1,7,6,-4,-2,7,-3,7,11,20,16,-19
0,6,6,-3,-3,6,-2,7,9,17,14,-20
-1,5,6,-2,-3,5,-1,7,8,15,12,-22
-1,4,5,-1,-3,5,-1,7,7,13,10,-24
-2,3,5,-1,-3,4,0,6,5,12,9,-26
-2,2,5,0,-3,4,0,6,4,11,8,-27
-2,2,5,0,-4,3,1,5,3,10,7,-28
-3,2,5,0,-4,3,1,6,3,9,6,-29
-3,2,5,0,-4,3,2,6,2,8,4,-30
-4,1,5,1,-4,3,2,7,2,6,3,-31
-4,0,4,1,-4,2,2,7,1,5,2,-31
-4,0,4,2,-4,2,2,7,1,5,2,-31
-4,-2,3,3,-4,1,3,7,0,4,2,-31
-4,-3,2,3,-3,0,3,7,0,4,2,-31
-4,-3,1,4,-3,0,4,7,0,4,1,-31
-4,-3,1,4,-2,-1,4,7,0,3,1,-31
-4,-3,0,4,-2,-1,4,7,0,3,1,-31
-4,-4,0,4,-2,-1,4,6,0,2,1,-31
-4,-4,1,4,-2,-1,4,6,-1,2,1,-32
-4,-4,1,4,-3,-1,4,6,-1,1,0,-33
-4,-4,2,4,-3,0,4,6,-1,0,-1,-33
-4,-4,2,4,-4,0,4,6,-2,0,-1,-34
-5,-4,2,4,-4,0,4,5,-2,0,-2,-34
-5,-4,2,5,-4,0,4,4,-2,0,-2,-34
-6,-4,2,5,-4,-1,4,4,-3,0,-2,-34
-6,-4,1,6,-4,-1,4,4,-3,0,-1,-34
-6,-5,1,6,-4,-1,4,4,-3,0,-1,-34
-6,-5,1,6,-3,-1,4,5,-3,0,-2,-35
-6,-5,1,5,-3,-1,4,5,-3,-1,-3,-36
-6,-5,1,5,-3,-1,4,5,-3,-1,-3,-36
-6,-5,1,5,-3,-1,4,5,-3,-1,-3,-35
-6,-5,1,6,-3,-1,4,5,-3,-1,-3,-34
-6,-5,1,6,-3,-1,4,4,-3,-1,-3,-34
-6,-5,1,6,-4,-1,4,4,-4,-2,-3,-35
-6,-4,2,6,-4,0,4,3,-4,-2,-3,-35
-6,-4,2,5,-4,0,4,3,-4,-2,-3,-35
-6,-3,3,5,-5,0,4,2,-5,-2,-3,-36
-6,-2,3,5,-5,1,4,2,-5,-2,-4,-36
-6,-2,4,5,-5,1,4,1,-5,-2,-5,-36
-6,-3,3,5,-5,0,4,2,-5,-3,-5,-36
-6,-4,2,6,-5,-1,4,2,-4,-3,-5,-35
-6,-5,1,6,-4,-2,4,2,-4,-3,-4,-34
-7,-6,0,7,-3,-3,4,2,-4,-3,-4,-33
-7,-7,-1,7,-3,-3,4,2,-4,-3,-4,-32
-6,-8,-1,7,-2,-4,5,3,-4,-4,-4,-32
-7,-9,-1,8,-2,-4,5,3,-3,-4,-4,-31
-7,-8,-1,8,-2,-4,5,3,-3,-3,-4,-31
-7,-7,0,8,-3,-4,5,3,-4,-3,-4,-31
-7,-6,0,7,-3,-3,4,3,-4,-4,-5,-31
-7,-6,1,7,-4,-2,4,3,-5,-4,-5,-32
-7,-5,1,7,-4,-2,4,2,-5,-4,-6,-31
-7,-5,1,6,-4,-2,4,2,-5,-4,-6,-30
-7,-6,1,7,-4,-2,5,2,-4,-4,-6,-29
-7,-7,0,7,-4,-3,5,2,-4,-4,-6,-28
-7,-7,0,7,-4,-3,5,3,-4,-4,-6,-28
-7,-6,0,7,-4,-2,4,3,-5,-4,-6,-27
-7,-5,1,6,-4,-2,4,3,-5,-5,-6,-27
-7,-5,1,6,-4,-2,4,3,-5,-6,-7,-27
-7,-5,1,6,-4,-2,4,3,-5,-6,-8,-27
-7,-5,1,6,-4,-1,4,4,-5,-6,-8,-26
-7,-5,2,6,-4,-1,4,3,-5,-6,-8,-26
-7,-5,2,6,-4,-1,4,2,-6,-5,-8,-25
-7,-5,2,6,-4,-1,4,1,-6,-5,-7,-24
-7,-5,2,6,-4,-1,4,0,-6,-5,-7,-23
-7,-6,1,6,-4,-2,4,-1,-6,-5,-7,-22
-7,-7,0,7,-4,-3,4,0,-6,-6,-7,-21
-7,-8,-1,8,-3,-4,4,0,-5,-6,-7,-20
-7,-9,-2,8,-3,-5,4,1,-5,-6,-6,-19
-7,-10,-2,9,-3,-6,4,1,-5,-6,-6,-18
-7,-10,-2,9,-3,-6,3,1,-5,-6,-7,-18
-7,-10,-2,9,-3,-5,3,1,-5,-7,-7,-18
-8,-9,-1,9,-3,-5,2,0,-6,-7,-7,-18
-8,-9,0,9,-3,-4,1,-1,-6,-7,-7,-18
-8,-8,0,8,-3,-4,0,-1,-6,-7,-7,-18
-8,-8,0,9,-3,-4,0,-1,-6,-7,-7,-17
-8,-8,0,9,-3,-4,0,0,-6,-7,-7,-17
-8,-9,0,9,-3,-4,0,0,-6,-7,-7,-16
-8,-9,-1,9,-3,-4,-1,0,-6,-7,-8,-16
-8,-9,-1,9,-3,-4,-1,0,-6,-8,-8,-14
-8,-10,-1,9,-3,-4,-1,0,-6,-8,-8,-13
-8,-10,-1,9,-3,-5,-1,0,-6,-8,-8,-13
-9,-10,-1,10,-3,-5,-1,0,-6,-9,-9,-13
-9,-9,0,10,-3,-5,-1,-1,-6,-9,-8,-12
-9,-9,0,10,-4,-4,-2,-1,-6,-8,-7,-11
-9,-8,1,9,-5,-3,-2,-1,-6,-7,-7,-11
-9,-7,2,9,-5,-3,-2,-1,-6,-7,-7,-10
-9,-7,1,9,-5,-3,-2,-1,-6,-7,-8,-9
-8,-8,0,9,-5,-3,-1,-1,-5,-7,-8,-7
-8,-8,0,9,-4,-4,-1,0,-4,-6,-7,-5
-8,-8,0,9,-4,-4,-1,0,-3,-5,-6,-2
-8,-7,0,8,-4,-3,-2,0,-3,-5,-5,-1
-8,-6,1,8,-4,-2,-2,0,-2,-4,-4,0
-7,-5,2,7,-4,-1,-3,0,-2,-3,-3,1
-7,-4,3,6,-5,0,-3,0,-2,-3,-3,1
-7,-3,4,5,-5,1,-3,0,-1,-2,-2,2
-7,-1,6,4,-6,2,-3,-1,-1,-2,-2,3
-7,0,7,4,-7,4,-4,-3,-2,-1,-2,4
-7,2,8,3,-7,5,-4,-5,-2,-1,-2,6
-7,2,9,3,-8,6,-4,-6,-2,-1,-2,8
-7,2,9,3,-8,6,-4,-6,-2,0,-1,10
-7,2,9,3,-8,6,-5,-7,-2,0,-1,11
-6,3,9,3,-8,6,-6,-7,-2,0,-1,12
-6,3,9,2,-8,7,-8,-8,-2,0,-1,13
-6,3,10,2,-8,7,-10,-9,-2,0,-1,14
-6,4,10,2,-8,7,-11,-10,-3,-1,-1,15
-6,5,11,1,-8,8,-13,-11,-3,-1,-1,17
-6,5,11,1,-8,8,-15,-12,-4,-1,-1,19
-5,6,11,0,-8,9,-16,-13,-4,0,0,22
-5,6,10,0,-8,9,-17,-13,-5,0,0,23
-4,6,10,0,-7,8,-17,-14,-5,-2,-1,23
-4,5,9,0,-7,8,-17,-14,-6,-3,-2,23
-4,4,8,1,-6,7,-16,-14,-6,-3,-3,24
-5,2,7,1,-6,5,-16,-14,-6,-3,-2,25
-5,2,7,1,-6,5,-16,-14,-6,-3,-2,27
-5,2,7,1,-6,5,-15,-15,-7,-3,-3,28
-5,1,6,2,-6,4,-15,-15,-7,-4,-3,29
-5,0,5,2,-5,3,-14,-14,-6,-4,-4,29
-5,0,4,3,-4,2,-13,-14,-6,-5,-4,30
-5,0,4,3,-4,2,-13,-14,-6,-5,-4,31
-4,0,4,3,-4,2,-13,-14,-6,-5,-4,32
-4,0,3,3,-4,2,-12,-14,-6,-5,-4,33
-3,-1,2,3,-3,1,-12,-13,-6,-5,-4,34
-3,-2,0,4,-3,0,-11,-13,-6,-5,-4,35
-3,-4,0,4,-2,-2,-10,-12,-6,-6,-5,35
-4,-5,-1,5,-2,-3,-10,-11,-6,-7,-6,35
-4,-6,0,5,-2,-3,-9,-11,-6,-7,-6,35
-5,-6,0,6,-2,-2,-8,-12,-7,-8,-7,35
-6,-6,0,6,-2,-2,-7,-13,-7,-8,-8,34
-6,-6,1,7,-3,-2,-6,-13,-8,-9,-9,34
-7,-7,1,7,-3,-3,-5,-13,-8,-10,-10,34
-8,-8,0,8,-3,-4,-4,-13,-8,-10,-11,34
-8,-10,-1,9,-3,-5,-3,-13,-8,-10,-11,34
-8,-11,-2,10,-2,-6,-2,-12,-8,-10,-10,34
-8,-12,-3,11,-2,-8,-1,-12,-8,-10,-11,34
-8,-14,-5,11,-2,-9,0,-12,-8,-10,-11,33
-8,-15,-6,12,-1,-10,1,-11,-8,-11,-11,33
-9,-15,-7,12,-1,-11,1,-11,-8,-11,-11,33
-9,-16,-6,13,-1,-11,2,-12,-8,-11,-12,32
-9,-16,-6,13,-2,-10,2,-12,-9,-12,-14,30
-9,-16,-6,13,-2,-10,2,-12,-9,-13,-15,28
-10,-16,-6,13,-2,-10,3,-11,-9,-13,-15,28
-10,-17,-6,13,-1,-11,3,-11,-9,-13,-15,28
-10,-17,-7,13,-1,-11,4,-10,-9,-14,-15,28
-10,-17,-7,13,-1,-12,4,-10,-9,-14,-15,28
-10,-18,-8,14,0,-12,4,-10,-9,-14,-15,28
-10,-19,-8,14,0,-13,5,-10,-8,-14,-15,28
-10,-19,-8,14,0,-13,5,-11,-8,-14,-16,28
-10,-18,-8,14,0,-13,4,-12,-8,-14,-16,28
-10,-18,-7,14,0,-12,4,-12,-9,-14,-16,27
-10,-18,-7,14,0,-12,4,-13,-9,-14,-16,27
-10,-18,-8,14,0,-12,4,-13,-9,-15,-17,26
-10,-18,-8,14,-1,-12,4,-13,-9,-15,-17,25
-10,-18,-8,15,-1,-13,5,-13,-9,-15,-17,24
-10,-19,-9,15,-1,-13,5,-13,-9,-15,-17,24
-11,-19,-9,16,-1,-14,5,-13,-9,-15,-17,24
-11,-19,-9,16,-1,-14,5,-12,-9,-14,-17,23
-10,-19,-8,15,-1,-13,5,-12,-9,-14,-17,23
-10,-18,-8,15,0,-13,5,-12,-9,-15,-17,23
-10,-18,-8,15,0,-13,6,-12,-9,-15,-17,22
-10,-19,-8,15,0,-13,6,-12,-8,-15,-17,22
-11,-20,-9,16,0,-14,6,-12,-8,-15,-17,22
-10,-20,-10,16,0,-14,6,-12,-8,-15,-17,21
-10,-20,-10,16,0,-15,6,-12,-8,-15,-18,20
-10,-21,-10,16,0,-15,6,-12,-7,-16,-19,19
-10,-22,-11,16,0,-16,7,-11,-6,-16,-19,18
-11,-23,-12,17,0,-17,9,-9,-4,-15,-18,17
-12,-24,-12,18,0,-18,11,-6,0,-13,-18,15
-13,-24,-10,19,-2,-17,13,-3,4,-9,-18,12
-15,-23,-8,19,-3,-15,17,0,10,-3,-17,9
-16,-22,-6,20,-5,-14,20,3,20,7,-13,8
-16,-22,-5,20,-6,-13,24,8,33,22,-5,8
-17,-22,-5,20,-6,-13,28,14,48,41,6,10
-17,-20,-4,19,-7,-12,30,19,65,62,19,15
-15,-18,-3,18,-7,-10,31,23,81,83,36,23
-13,-16,-3,15,-6,-9,30,27,96,104,54,35
-10,-14,-3,13,-4,-8,28,30,108,121,73,50
-7,-12,-4,10,-1,-8,26,31,113,132,90,66
-3,-10,-6,8,1,-8,22,28,109,131,100,82
0,-9,-8,5,4,-8,16,21,91,113,98,93
3,-7,-9,3,5,-7,7,8,61,81,85,99
5,-6,-10,1,6,-7,-2,-8,24,42,64,101
6,-5,-10,0,7,-7,-13,-28,-21,-6,35,97
6,-5,-11,0,8,-7,-24,-50,-75,-63,-3,88
6,-4,-10,0,8,-7,-33,-70,-125,-118,-41,77
5,-1,-6,-1,5,-3,-39,-85,-160,-157,-71,66
2,3,2,-1,0,3,-43,-96,-180,-179,-90,57
-2,6,10,-1,-6,8,-44,-102,-187,-186,-100,49
-4,8,14,-1,-10,12,-44,-104,-184,-183,-104,42
-5,8,15,0,-11,12,-44,-102,-176,-175,-102,36
-6,7,15,0,-11,12,-42,-98,-162,-161,-97,31
-7,7,14,0,-11,11,-40,-91,-146,-146,-91,26
-7,6,14,1,-11,11,-38,-84,-129,-131,-85,20
-7,6,13,1,-11,10,-36,-76,-113,-117,-79,14
-7,6,13,2,-11,10,-34,-69,-99,-104,-73,10
-7,5,12,2,-10,9,-32,-62,-87,-92,-67,7
-7,2,10,3,-9,7,-29,-56,-75,-83,-63,5
-7,-2,6,5,-7,3,-25,-50,-65,-74,-58,5
-8,-7,2,7,-6,-1,-21,-45,-56,-65,-53,6
-8,-11,-1,10,-4,-5,-16,-41,-49,-58,-48,8
-9,-13,-4,11,-4,-8,-12,-36,-42,-51,-43,10
-9,-15,-5,12,-3,-9,-9,-32,-36,-45,-38,12
-9,-15,-5,13,-3,-10,-6,-28,-30,-39,-34,14
-9,-15,-5,13,-3,-10,-3,-26,-25,-33,-31,15
-10,-16,-5,14,-3,-10,-1,-25,-20,-28,-28,16
-10,-16,-5,14,-4,-10,0,-24,-17,-24,-25,16
-11,-16,-5,14,-4,-10,0,-23,-15,-21,-23,17
-11,-16,-5,14,-3,-11,1,-22,-12,-19,-22,18
-12,-17,-6,15,-3,-12,2,-20,-10,-17,-21,20
-12,-18,-6,16,-3,-12,3,-18,-9,-15,-19,21
-12,-19,-7,16,-3,-12,4,-16,-8,-14,-18,22
-11,-19,-7,16,-2,-13,4,-15,-7,-14,-17,23
-11,-20,-8,16,-2,-14,4,-15,-6,-13,-17,23
-11,-20,-8,16,-2,-14,4,-15,-5,-11,-16,24
-11,-19,-7,16,-2,-13,3,-16,-4,-10,-15,25
-11,-19,-7,15,-3,-13,3,-16,-4,-10,-15,25
-12,-19,-6,16,-3,-12,3,-16,-3,-9,-15,26
-12,-19,-6,16,-3,-12,3,-17,-3,-8,-14,27
-12,-19,-6,16,-3,-12,3,-18,-3,-8,-14,27
-12,-19,-6,16,-3,-12,2,-18,-3,-9,-15,27
-12,-19,-6,17,-3,-12,2,-18,-2,-9,-15,27
-12,-20,-7,17,-3,-13,2,-17,-2,-8,-15,27
-12,-21,-7,17,-3,-14,2,-17,-1,-7,-15,27
-13,-21,-7,17,-3,-14,2,-16,-1,-6,-14,27
-13,-20,-6,17,-4,-13,2,-16,-1,-5,-13,28
-13,-19,-5,17,-4,-12,2,-17,-1,-5,-12,28
-13,-18,-5,16,-4,-11,1,-17,-1,-5,-12,29
-13,-18,-5,16,-4,-11,1,-18,0,-5,-12,29
-13,-19,-5,16,-4,-12,1,-19,0,-5,-12,29
-13,-19,-6,16,-3,-12,1,-19,0,-4,-11,30
-13,-19,-6,16,-3,-12,1,-20,0,-4,-11,30
-13,-18,-5,16,-4,-12,0,-20,0,-4,-11,29
-13,-17,-4,16,-4,-11,0,-20,0,-4,-11,28
-13,-16,-3,16,-5,-10,0,-19,0,-4,-12,27
-13,-16,-3,16,-5,-9,0,-19,1,-3,-12,28
-13,-18,-4,16,-4,-10,1,-18,2,-3,-11,30
-13,-19,-6,16,-3,-12,1,-18,2,-2,-10,33
-13,-20,-7,16,-2,-13,1,-18,3,-2,-9,35
-13,-21,-7,16,-2,-14,1,-18,3,-2,-9,36
-13,-21,-7,17,-2,-14,2,-18,4,-1,-8,37
-13,-21,-7,17,-2,-14,2,-18,4,0,-7,39
-13,-20,-7,17,-2,-14,2,-18,5,0,-6,40
-13,-19,-6,17,-3,-13,2,-18,5,1,-6,41
-13,-18,-5,16,-3,-12,2,-19,5,1,-6,41
-13,-17,-4,15,-4,-11,1,-19,6,1,-6,42
-13,-16,-4,15,-4,-10,1,-19,6,1,-6,43
-12,-16,-4,14,-4,-10,1,-19,6,2,-5,45
-12,-16,-4,14,-4,-10,0,-19,7,3,-4,46
-11,-15,-4,14,-4,-10,0,-20,8,4,-4,47
-11,-15,-3,13,-4,-9,0,-20,9,4,-5,48
-10,-14,-2,13,-4,-8,0,-20,9,4,-5,49
-10,-13,-1,12,-5,-7,0,-20,10,4,-5,50
-10,-12,-1,12,-5,-6,0,-19,11,5,-4,52
-9,-12,-2,11,-4,-6,0,-19,12,5,-3,53
-9,-13,-3,11,-4,-7,0,-19,13,7,-3,55
-9,-13,-3,12,-4,-8,0,-18,14,8,-2,56
-9,-13,-4,12,-3,-9,0,-17,15,9,-1,57
-8,-13,-4,11,-3,-9,0,-16,17,10,0,58
-8,-12,-4,11,-3,-8,0,-16,19,12,1,59
-8,-12,-4,10,-2,-8,0,-15,20,13,2,60
-8,-13,-4,10,-2,-8,0,-15,22,14,3,61
-8,-13,-4,10,-1,-8,0,-15,23,15,4,62
-7,-12,-4,10,-1,-7,0,-15,24,16,5,63
-7,-10,-3,9,-2,-6,-1,-15,26,18,6,64
-6,-9,-2,8,-2,-6,-2,-14,28,19,7,65
-5,-9,-3,8,-1,-6,-2,-13,30,21,9,66
-5,-9,-4,8,-1,-6,-2,-11,32,23,12,67
-4,-8,-4,7,-1,-6,-2,-10,34,25,14,69
-4,-7,-4,6,-1,-5,-3,-10,36,26,15,70
-3,-7,-4,6,0,-5,-3,-10,37,28,17,71
-3,-7,-4,5,0,-5,-4,-9,39,29,19,73
-2,-6,-4,4,0,-5,-5,-9,40,31,21,74
-1,-5,-3,4,0,-4,-6,-8,42,33,22,75
-1,-5,-3,3,1,-4,-6,-8,43,34,24,77
0,-4,-3,3,1,-4,-7,-8,44,34,25,78
0,-4,-4,2,1,-4,-7,-8,44,35,26,79
0,-4,-4,2,1,-4,-8,-8,44,35,27,80
1,-3,-3,1,1,-3,-8,-9,44,34,28,80
1,-3,-3,1,1,-3,-9,-9,44,34,28,80
1,-3,-3,1,2,-3,-9,-9,44,34,28,81
2,-2,-3,1,2,-3,-10,-9,43,34,29,81
2,-1,-3,0,2,-2,-11,-10,43,34,30,81
2,-1,-3,0,2,-2,-11,-12,42,32,29,81
2,-1,-3,0,2,-2,-12,-13,40,31,28,81
2,-1,-3,0,2,-2,-12,-15,39,30,28,81
2,-2,-3,0,2,-3,-12,-16,37,29,27,81
2,-2,-3,0,2,-3,-12,-17,35,28,26,81
2,-2,-3,1,2,-3,-12,-17,33,27,26,80
1,-3,-3,1,2,-3,-12,-17,31,25,25,80
1,-3,-3,2,2,-3,-11,-18,29,23,23,78
1,-3,-3,2,2,-3,-11,-19,27,21,21,77
0,-3,-3,2,1,-3,-11,-21,24,19,19,75
0,-3,-2,2,0,-3,-11,-22,21,17,17,72
0,-3,-2,2,0,-2,-10,-23,18,15,14,70
-1,-3,-2,2,0,-2,-10,-24,15,12,12,67
-1,-3,-2,3,0,-2,-10,-26,13,10,9,65
-1,-4,-2,3,0,-3,-9,-27,11,8,8,64
-2,-4,-2,4,0,-3,-8,-27,9,5,6,62
-2,-5,-2,4,0,-3,-7,-27,7,3,4,60
-3,-5,-2,5,0,-4,-7,-27,6,1,3,59
-3,-6,-2,5,0,-4,-6,-27,4,0,2,57
-4,-6,-2,6,0,-4,-6,-28,3,-1,1,56
-4,-6,-2,6,-1,-4,-5,-28,2,-1,0,54
-4,-6,-2,6,-1,-4,-5,-29,0,-2,-1,53
-5,-6,-2,6,-1,-4,-5,-30,0,-3,-2,51
-5,-6,-2,6,-1,-4,-5,-30,-1,-4,-3,50
-5,-7,-2,7,-1,-4,-5,-30,-1,-5,-4,49
-5,-7,-2,7,-1,-4,-4,-30,-2,-6,-4,48
-5,-8,-2,7,-1,-4,-4,-30,-2,-6,-4,48
-5,-8,-2,7,-1,-4,-4,-30,-2,-6,-4,47
-5,-8,-2,7,-1,-5,-4,-29,-2,-6,-4,47
-5,-8,-2,7,-1,-5,-4,-29,-2,-6,-4,46
-5,-7,-2,7,-1,-4,-4,-29,-2,-6,-4,46
-5,-7,-1,7,-2,-4,-4,-29,-2,-6,-4,45
-4,-6,-1,6,-2,-3,-4,-29,-2,-6,-4,45
-4,-5,0,6,-2,-3,-4,-29,-2,-5,-3,44
-4,-4,0,5,-2,-2,-4,-30,-2,-5,-3,44
-4,-3,1,5,-2,-1,-4,-31,-1,-4,-2,44
-4,-2,1,4,-2,-1,-5,-31,-1,-3,-2,44
-4,-1,1,3,-2,0,-5,-31,0,-2,-1,44
-4,0,2,3,-3,1,-5,-31,0,-1,0,43
-4,0,3,2,-3,1,-6,-30,0,-1,0,43
-3,0,3,2,-3,2,-6,-30,0,0,1,42
-3,1,4,2,-3,2,-6,-30,0,0,1,42
-2,2,4,1,-4,3,-6,-30,0,0,1,41
-2,2,4,1,-4,3,-6,-30,1,1,2,41
-2,2,5,1,-4,4,-6,-30,1,1,2,40
-2,3,6,1,-4,4,-6,-31,1,2,3,40
-2,4,7,0,-5,5,-6,-31,2,3,3,39
-2,5,8,0,-5,6,-7,-32,2,3,3,39
-2,6,8,-1,-5,7,-8,-33,2,3,3,38
-2,6,9,-1,-5,7,-10,-34,1,3,3,38
-2,7,9,-2,-5,8,-12,-34,1,3,3,37
-1,7,9,-2,-5,8,-14,-35,0,3,4,37
0,8,9,-3,-4,8,-16,-35,0,2,4,36
0,8,8,-4,-4,8,-19,-36,-1,2,4,36
1,8,8,-4,-3,8,-20,-36,-2,1,4,35
1,8,7,-4,-3,8,-20,-36,-3,1,5,34
1,8,7,-4,-2,8,-21,-37,-3,1,5,33
1,8,6,-4,-2,7,-21,-38,-3,0,5,32
2,8,5,-4,-1,7,-21,-38,-4,0,5,31
2,7,5,-4,-1,6,-20,-38,-4,-1,5,30
2,6,5,-4,-1,6,-20,-38,-5,-1,6,29
2,5,4,-3,-1,5,-19,-38,-5,-2,6,28
1,4,3,-3,-1,4,-19,-38,-5,-2,6,27
1,4,2,-2,-1,4,-18,-38,-5,-3,6,26
1,4,2,-2,-1,3,-17,-38,-5,-3,6,25
1,4,2,-2,0,3,-17,-37,-5,-3,7,25
1,3,1,-2,0,3,-16,-36,-5,-3,7,24
2,3,1,-2,0,2,-16,-34,-5,-3,8,23
2,2,0,-1,1,1,-15,-33,-5,-4,8,22
2,1,-1,-1,1,0,-15,-31,-6,-4,7,21
2,0,-2,0,2,-1,-14,-30,-6,-5,7,20
2,-1,-3,0,2,-2,-12,-30,-6,-5,6,18
1,-2,-3,0,2,-2,-11,-30,-6,-6,5,17
0,-2,-3,1,2,-2,-10,-30,-6,-6,4,15
0,-3,-3,2,2,-2,-9,-30,-7,-7,3,13
-1,-3,-3,3,1,-3,-9,-30,-8,-7,3,11
-2,-5,-4,4,1,-3,-8,-29,-8,-8,2,9
-2,-6,-4,5,1,-5,-7,-27,-9,-8,2,8
-3,-7,-5,5,1,-6,-6,-27,-9,-9,2,6
-3,-8,-6,6,1,-7,-5,-27,-9,-9,1,5
-3,-9,-6,7,1,-8,-4,-26,-9,-10,1,3
-3,-10,-7,7,1,-8,-3,-26,-9,-10,0,1
-4,-11,-8,8,2,-9,-2,-25,-9,-11,0,0
-4,-12,-9,9,2,-11,-2,-25,-9,-11,0,-1
-4,-14,-9,10,3,-12,-1,-24,-9,-11,-1,-3
-5,-15,-10,10,3,-12,-1,-22,-9,-11,-1,-4
-5,-15,-10,11,3,-13,0,-21,-9,-12,-1,-5
-5,-16,-10,11,3,-13,0,-20,-9,-12,-2,-7
-5,-16,-11,11,3,-13,0,-20,-9,-13,-2,-8
-5,-17,-11,11,3,-14,1,-19,-9,-13,-3,-10
-5,-17,-12,12,3,-14,1,-19,-9,-13,-3,-11
-5,-18,-12,12,4,-15,1,-18,-9,-13,-4,-11
-5,-18,-12,12,4,-15,1,-18,-9,-13,-4,-12
-5,-18,-12,13,4,-15,1,-18,-10,-13,-4,-13
-5,-18,-12,13,4,-15,1,-17,-10,-14,-4,-14
-5,-19,-12,13,4,-15,2,-16,-10,-14,-5,-15
-5,-19,-13,13,4,-16,2,-15,-10,-14,-5,-16
-6,-19,-13,13,4,-16,2,-14,-10,-14,-5,-17
-6,-19,-13,13,4,-16,2,-14,-10,-14,-6,-18
-6,-20,-14,13,4,-17,2,-14,-10,-14,-6,-19
-6,-20,-14,13,4,-17,3,-14,-10,-14,-6,-19
-6,-20,-14,14,4,-17,3,-13,-10,-14,-6,-20
-6,-21,-14,14,4,-17,3,-12,-10,-15,-6,-20
-6,-21,-14,14,4,-17,3,-11,-10,-15,-7,-21
-5,-21,-15,14,4,-18,3,-11,-10,-15,-7,-22
-5,-21,-15,14,4,-18,3,-10,-9,-15,-7,-22
-6,-22,-15,14,4,-18,3,-9,-9,-15,-7,-23
-6,-22,-15,14,4,-19,3,-9,-9,-15,-8,-24
-6,-22,-15,14,4,-19,4,-9,-9,-15,-8,-24
-6,-22,-15,15,4,-19,4,-9,-9,-15,-8,-25
-6,-22,-15,15,4,-19,4,-9,-9,-16,-9,-25
-6,-23,-15,16,4,-19,4,-10,-9,-16,-9,-26
-6,-23,-16,16,4,-20,4,-10,-9,-16,-10,-26
-7,-24,-17,16,4,-20,5,-9,-9,-16,-10,-27
-7,-24,-17,16,5,-21,5,-7,-8,-16,-11,-29
-7,-25,-18,16,5,-22,7,-4,-5,-16,-11,-30
-8,-26,-18,17,5,-23,9,-1,-1,-14,-11,-33
-9,-27,-17,18,4,-23,13,1,4,-10,-11,-37
-10,-27,-16,19,3,-22,16,5,11,-3,-10,-41
-11,-27,-16,20,2,-22,20,9,20,6,-7,-44
-12,-28,-15,21,2,-22,23,14,32,19,-1,-45
-12,-28,-15,21,2,-22,26,18,45,34,7,-44
-11,-27,-15,20,2,-21,27,23,59,52,19,-39
-10,-26,-15,19,2,-21,27,27,73,70,34,-30
-7,-24,-15,17,4,-20,27,32,87,88,53,-16
-4,-23,-17,15,6,-20,25,36,97,102,71,0
-1,-22,-19,13,9,-21,23,38,100,108,85,16
2,-22,-23,10,12,-22,19,36,92,100,90,29
6,-20,-25,8,15,-22,13,28,70,76,82,37
8,-18,-26,5,17,-22,3,14,37,39,62,39
10,-15,-26,3,18,-20,-8,-5,-6,-5,34,35
11,-12,-23,1,17,-17,-20,-28,-58,-58,-2,26
11,-8,-20,0,16,-14,-31,-51,-112,-113,-40,16
11,-4,-15,-2,13,-10,-40,-69,-154,-156,-71,7
8,1,-7,-3,7,-2,-45,-83,-181,-182,-92,-1
5,6,2,-4,1,5,-48,-91,-193,-194,-105,-9
1,10,9,-5,-4,10,-48,-94,-193,-194,-109,-16
0,11,12,-5,-6,12,-48,-92,-186,-186,-109,-23
-2,12,13,-5,-7,13,-48,-89,-174,-174,-105,-29
-3,11,14,-4,-8,13,-46,-84,-158,-159,-99,-35
-3,10,13,-3,-8,12,-44,-77,-141,-144,-92,-41
-3,9,12,-2,-8,11,-43,-71,-124,-128,-85,-46
-3,9,11,-2,-7,10,-41,-64,-108,-114,-77,-49
-2,8,10,-1,-5,9,-40,-58,-95,-101,-70,-51
-2,6,7,-1,-4,7,-37,-51,-82,-89,-63,-51
-2,3,4,0,-2,4,-33,-45,-71,-78,-57,-51
-2,-1,1,2,-1,0,-28,-38,-62,-68,-51,-51
-3,-4,-1,4,0,-3,-24,-33,-53,-60,-46,-51
-3,-7,-3,5,0,-5,-19,-28,-46,-53,-41,-50
-3,-9,-5,7,0,-7,-15,-24,-39,-46,-36,-48
-4,-11,-6,8,1,-9,-11,-20,-32,-40,-31,-47
-4,-12,-7,9,1,-10,-7,-15,-26,-34,-27,-45
-4,-13,-9,10,2,-11,-5,-12,-21,-29,-25,-44
-4,-14,-10,10,3,-12,-3,-9,-17,-25,-23,-43
-4,-15,-10,10,3,-12,-2,-7,-14,-22,-21,-43
-4,-15,-11,10,3,-12,-2,-6,-12,-20,-20,-42
-4,-15,-11,10,3,-13,-1,-6,-11,-18,-18,-42
-4,-15,-11,10,3,-13,0,-5,-9,-17,-17,-41
-4,-16,-11,11,3,-14,1,-4,-8,-16,-16,-41
-4,-16,-11,11,4,-14,1,-3,-7,-15,-15,-41
-4,-16,-12,11,4,-14,2,-2,-5,-14,-14,-41
-4,-16,-12,11,4,-14,2,-2,-4,-13,-14,-40
-4,-16,-12,11,4,-14,2,-1,-4,-12,-13,-40
-4,-16,-12,11,4,-14,2,-1,-3,-11,-13,-40
-4,-16,-12,11,4,-14,2,-1,-3,-10,-13,-40
-4,-16,-12,11,4,-14,2,-1,-2,-10,-12,-39
-4,-16,-12,11,4,-14,2,-1,-2,-9,-12,-39
-4,-15,-12,11,4,-14,2,-1,-1,-9,-11,-39
-4,-15,-12,10,4,-14,2,0,-1,-8,-11,-39
-4,-15,-12,10,4,-14,2,0,0,-7,-10,-39
-4,-15,-11,9,4,-14,2,1,0,-7,-10,-39
-4,-14,-11,9,4,-13,2,2,0,-6,-10,-38
-4,-14,-11,9,4,-13,2,3,0,-6,-9,-38
-4,-14,-11,9,4,-13,2,3,0,-5,-9,-38
-4,-14,-11,9,4,-13,1,3,1,-5,-8,-37
-4,-14,-10,9,4,-13,1,3,1,-5,-8,-37
-4,-14,-10,9,4,-12,1,3,1,-4,-7,-37
-4,-13,-10,9,4,-12,1,3,1,-4,-7,-37
-4,-13,-10,9,4,-12,1,3,1,-3,-7,-37
-4,-13,-10,9,4,-12,1,3,1,-2,-7,-37
-4,-13,-10,9,4,-12,1,4,2,-2,-6,-37
-4,-13,-10,8,4,-12,1,4,2,-1,-6,-36
-4,-13,-10,8,4,-12,1,4,3,-1,-5,-36
-4,-12,-10,8,4,-12,1,4,3,-1,-5,-36
-4,-12,-10,8,4,-11,1,4,4,0,-4,-36
-4,-12,-10,8,3,-11,1,4,4,0,-4,-36
-3,-12,-9,8,3,-11,0,4,5,0,-3,-35
-3,-12,-9,8,3,-11,0,4,5,1,-3,-35
-3,-12,-9,8,3,-11,0,5,6,2,-3,-35
-3,-11,-8,7,3,-10,0,6,6,2,-2,-35
-3,-11,-8,7,3,-10,0,6,7,3,-2,-35
-3,-11,-8,7,3,-10,0,7,7,4,-1,-34
-3,-11,-8,7,3,-10,0,7,8,4,0,-34
-3,-11,-8,7,3,-9,0,8,9,5,0,-33
-3,-10,-7,7,3,-9,0,8,10,6,0,-33
-3,-10,-7,6,3,-9,0,8,11,7,1,-32
-3,-9,-7,6,3,-9,0,8,12,8,2,-32
-3,-9,-7,6,3,-9,0,8,13,9,2,-31
-3,-9,-7,6,3,-9,0,8,14,10,3,-31
-3,-9,-7,6,3,-9,0,8,15,11,4,-30
-2,-8,-7,5,3,-8,0,8,16,12,5,-29
-2,-8,-7,5,3,-8,0,9,17,13,6,-28
-2,-7,-7,5,3,-7,0,9,18,14,7,-27
-1,-7,-7,4,3,-7,-1,10,20,16,8,-26
-1,-7,-7,4,3,-7,-1,11,21,17,10,-25
0,-6,-7,3,3,-7,-1,13,23,19,11,-24
0,-6,-7,3,3,-7,-1,14,25,20,13,-22
0,-5,-7,3,3,-7,-2,14,27,22,14,-21
1,-5,-7,2,3,-7,-2,15,29,24,16,-19
1,-4,-7,2,4,-6,-2,17,32,26,18,-17
1,-4,-7,2,4,-6,-2,18,34,28,20,-15
1,-4,-7,1,5,-6,-3,19,37,30,22,-13
2,-4,-7,1,5,-6,-3,19,39,33,24,-11
3,-3,-7,0,5,-5,-4,20,42,35,26,-9
3,-2,-7,0,5,-5,-4,21,44,37,28,-7
4,-2,-7,-1,6,-5,-5,23,46,39,30,-5
5,-1,-7,-1,6,-5,-6,24,48,40,32,-2
6,-1,-7,-2,7,-5,-7,24,50,42,34,0
6,0,-7,-2,8,-5,-7,24,51,43,35,2
7,0,-7,-3,8,-4,-8,24,52,43,36,4
7,0,-8,-3,8,-4,-9,24,52,44,37,5
8,1,-8,-4,8,-4,-9,24,53,44,38,6
8,1,-8,-4,8,-4,-10,24,52,44,38,7
9,1,-8,-5,8,-4,-10,24,52,44,39,8
9,1,-8,-5,8,-4,-11,24,51,44,39,9
9,1,-8,-5,9,-4,-11,24,50,43,39,9
9,1,-8,-5,9,-4,-12,23,49,42,38,10
9,1,-8,-5,9,-4,-12,23,47,41,38,10
9,1,-8,-5,9,-4,-12,23,45,39,37,10
9,2,-8,-5,9,-3,-12,23,43,38,36,10
9,2,-8,-5,8,-3,-12,22,41,36,34,9
9,2,-8,-5,8,-3,-12,21,38,34,33,9
8,2,-7,-5,8,-3,-12,20,35,32,31,8
8,2,-7,-5,8,-3,-12,19,32,30,29,7
7,2,-6,-4,7,-2,-12,18,28,27,26,5
7,2,-6,-4,7,-2,-12,16,25,24,23,4
6,1,-5,-4,6,-2,-11,15,21,21,20,2
6,1,-5,-3,5,-2,-11,13,17,18,17,0
5,0,-4,-3,4,-2,-10,11,14,16,15,-3
4,0,-4,-2,4,-2,-10,10,11,13,12,-5
3,0,-4,-2,3,-2,-9,9,8,11,10,-7
3,-1,-3,-1,3,-2,-8,9,6,9,7,-9
2,-1,-3,-1,2,-2,-8,9,4,7,5,-11
1,-1,-2,0,2,-2,-7,8,2,5,3,-12
1,-2,-2,0,1,-2,-6,8,0,3,1,-14
0,-2,-2,0,1,-2,-6,8,-1,2,0,-15
0,-3,-2,1,1,-2,-5,8,-3,1,-1,-16
0,-3,-2,1,1,-2,-4,8,-4,0,-2,-17
-1,-3,-2,2,1,-2,-4,7,-5,0,-3,-18
-1,-3,-2,2,1,-2,-4,7,-5,-1,-4,-19
-1,-3,-2,2,1,-2,-4,6,-6,-1,-5,-19
-2,-3,-2,2,0,-2,-3,6,-6,-2,-5,-20
-2,-3,-2,2,0,-2,-3,6,-6,-3,-6,-20
-2,-3,-2,2,0,-2,-3,6,-6,-3,-6,-21
-2,-3,-2,2,0,-2,-3,7,-6,-4,-6,-21
-2,-3,-2,2,0,-2,-3,7,-6,-4,-7,-21
-2,-4,-2,2,0,-2,-3,8,-6,-4,-7,-21
-2,-4,-2,2,0,-2,-2,9,-6,-4,-7,-21
-2,-4,-2,2,0,-2,-2,10,-6,-4,-7,-21
-2,-4,-2,2,0,-2,-2,10,-6,-4,-7,-21
-2,-4,-2,2,0,-2,-2,9,-6,-3,-7,-21
-2,-3,-1,2,0,-2,-2,9,-6,-3,-7,-21
-2,-2,0,2,-1,-1,-2,8,-5,-2,-6,-21
-1,-1,0,1,-1,0,-2,8,-5,-2,-6,-21
-1,0,1,0,-1,1,-2,8,-4,-1,-5,-20
0,1,2,0,-1,2,-2,8,-3,0,-4,-20
0,2,2,-1,-1,2,-3,9,-2,1,-3,-19
0,3,3,-1,-2,3,-3,10,-2,1,-3,-19
0,4,4,-2,-2,4,-3,10,-1,2,-2,-18
0,5,5,-2,-2,5,-4,10,-1,3,-2,-18
0,5,5,-2,-2,5,-4,10,-1,3,-2,-17
0,5,5,-2,-2,5,-5,9,-1,3,-1,-17
0,5,5,-3,-2,5,-5,9,0,3,-1,-17
0,6,5,-3,-2,6,-4,9,0,4,0,-17
0,7,6,-3,-2,7,-4,9,0,5,0,-17
0,8,7,-4,-3,8,-4,9,0,5,0,-17
0,9,8,-4,-3,9,-4,8,0,6,0,-16
0,9,9,-5,-3,10,-5,8,0,6,0,-16
0,10,9,-5,-3,10,-7,7,0,6,0,-16
1,10,10,-6,-3,11,-9,7,-1,6,0,-16
1,11,10,-6,-3,11,-11,6,-2,6,0,-16
2,12,10,-7,-3,11,-13,5,-3,5,0,-15
2,12,10,-7,-3,11,-15,4,-4,5,0,-15
3,12,9,-7,-3,11,-16,3,-5,4,0,-15
3,12,9,-7,-3,11,-17,3,-5,3,0,-15
3,11,8,-7,-2,10,-18,2,-6,3,0,-15
3,11,7,-7,-1,10,-18,2,-6,2,-1,-15
3,10,6,-7,-1,9,-18,2,-6,2,-1,-15
3,10,6,-7,0,8,-17,1,-6,1,-2,-15
3,9,5,-7,0,7,-17,1,-7,1,-2,-15
3,9,5,-6,0,7,-16,1,-7,0,-2,-15
3,8,4,-6,0,6,-15,1,-7,0,-2,-15
3,7,4,-5,0,6,-14,1,-7,0,-2,-15
3,6,3,-5,0,5,-14,2,-7,-1,-2,-15
3,6,2,-5,1,5,-13,3,-7,-1,-2,-14
4,6,2,-5,1,5,-13,4,-7,-1,-2,-14
4,5,1,-5,2,4,-12,5,-7,-1,-2,-13
4,4,0,-4,2,2,-11,6,-6,-1,-3,-13
4,3,-1,-4,3,1,-10,7,-6,-2,-3,-13
4,2,-2,-3,3,1,-8,7,-6,-2,-3,-13
4,2,-3,-3,4,0,-7,7,-6,-3,-3,-13
4,1,-3,-2,4,0,-6,6,-7,-3,-4,-14
3,1,-2,-2,3,0,-6,5,-8,-4,-5,-14
2,0,-2,-1,2,0,-5,4,-8,-4,-6,-15
1,0,-2,0,2,-1,-4,5,-9,-5,-7,-16
1,-1,-3,0,2,-2,-3,6,-9,-5,-7,-16
0,-3,-3,1,2,-3,-2,6,-9,-6,-8,-17
0,-4,-4,1,2,-3,-1,7,-9,-6,-8,-18
0,-5,-4,2,2,-4,0,7,-9,-6,-9,-18
-1,-6,-5,3,2,-5,0,7,-9,-7,-9,-18
-1,-7,-5,4,2,-6,1,7,-9,-7,-10,-19
-2,-8,-6,4,3,-7,2,8,-9,-7,-10,-19
-2,-9,-7,5,3,-8,3,8,-9,-8,-11,-19
-2,-9,-8,5,3,-8,3,8,-9,-8,-12,-20
-2,-10,-8,6,3,-9,3,8,-9,-8,-12,-20
-2,-10,-8,6,3,-9,3,8,-10,-8,-12,-21
-2,-11,-8,6,3,-9,4,9,-10,-9,-12,-21
-2,-11,-8,7,3,-9,4,9,-10,-9,-12,-21
-2,-12,-9,7,3,-10,5,10,-9,-9,-12,-22
-3,-12,-9,7,3,-10,5,11,-9,-9,-13,-22
-3,-12,-9,7,3,-10,6,10,-9,-9,-13,-22
-3,-13,-9,7,3,-10,6,10,-9,-10,-13,-22
-3,-13,-9,7,3,-11,6,10,-9,-10,-13,-22
-3,-13,-9,7,3,-11,6,9,-9,-10,-13,-23
-3,-13,-9,8,3,-11,6,9,-9,-10,-13,-23
-3,-13,-9,8,3,-11,7,9,-9,-10,-13,-23
-3,-13,-10,8,3,-12,7,10,-9,-10,-13,-23
-3,-13,-10,8,3,-12,8,10,-9,-10,-13,-23
-3,-13,-10,8,3,-12,8,11,-9,-10,-14,-23
-3,-13,-10,8,3,-12,8,11,-9,-10,-14,-23
-3,-13,-10,8,3,-12,8,11,-9,-10,-14,-23
-3,-13,-10,8,3,-12,8,11,-9,-10,-14,-23
-3,-14,-10,8,3,-12,8,11,-9,-10,-14,-23
-3,-14,-10,8,3,-12,8,10,-9,-10,-14,-23
-4,-14,-10,9,3,-12,8,10,-9,-10,-14,-24
-4,-14,-10,9,3,-12,8,10,-9,-10,-14,-24
-4,-14,-10,9,3,-12,8,10,-9,-10,-14,-24
-4,-15,-10,9,3,-12,8,11,-9,-10,-14,-24
-4,-15,-10,9,3,-12,8,11,-9,-10,-15,-24
-4,-15,-10,9,3,-12,8,11,-9,-10,-15,-24
-4,-15,-10,9,3,-12,8,11,-9,-10,-15,-24
-4,-15,-11,9,3,-13,9,11,-8,-11,-15,-24
-4,-16,-11,9,3,-13,9,12,-8,-11,-15,-25
-4,-17,-12,10,4,-14,10,13,-6,-11,-15,-26
-5,-18,-12,10,4,-15,12,14,-3,-10,-16,-28
-6,-18,-12,11,3,-15,15,16,0,-8,-16,-31
-7,-18,-11,12,2,-14,19,19,6,-3,-16,-34
-8,-18,-9,12,1,-14,23,23,14,5,-14,-37
-9,-19,-9,13,0,-14,27,28,25,17,-10,-39
-10,-19,-8,14,0,-14,30,34,39,33,-2,-38
-10,-18,-8,13,0,-13,33,40,55,52,9,-35
-9,-17,-8,12,0,-12,34,45,72,74,25,-27
-7,-15,-8,10,0,-11,34,49,90,96,44,-15
-5,-13,-8,8,1,-11,34,54,106,117,65,-1
-2,-12,-10,6,4,-11,32,57,117,131,83,14
1,-12,-12,5,7,-12,30,57,118,130,91,27
5,-12,-15,3,11,-13,25,53,105,109,88,38
8,-10,-17,0,13,-13,16,42,77,74,74,45
11,-7,-17,-2,15,-12,4,26,37,31,53,48
13,-2,-16,-6,15,-9,-10,4,-16,-22,22,46
14,2,-12,-9,14,-5,-25,-22,-79,-81,-14,41
15,7,-8,-12,12,0,-38,-46,-133,-132,-45,36
15,13,-2,-14,9,5,-48,-65,-171,-165,-68,32
12,19,7,-16,3,13,-53,-79,-192,-181,-82,28
8,23,16,-16,-3,19,-54,-86,-198,-185,-89,23
5,26,21,-16,-7,23,-53,-86,-194,-180,-91,17
4,27,23,-16,-9,25,-51,-83,-183,-169,-90,11
3,27,24,-15,-10,26,-49,-77,-167,-154,-85,5
2,26,24,-14,-11,26,-47,-69,-150,-137,-79,-2
1,25,24,-13,-11,25,-45,-62,-132,-121,-73,-10
0,23,23,-12,-11,23,-43,-55,-115,-107,-68,-17
0,21,21,-11,-10,22,-40,-48,-101,-94,-62,-22
0,19,19,-10,-9,19,-36,-42,-88,-82,-57,-25
0,15,16,-9,-7,16,-32,-35,-76,-71,-52,-28
0,11,12,-6,-6,12,-26,-29,-65,-62,-48,-29
0,7,8,-4,-4,8,-21,-23,-56,-54,-43,-30
-1,3,5,-2,-3,4,-15,-18,-48,-46,-39,-30
-2,1,3,0,-3,2,-11,-13,-41,-39,-35,-30
-3,-1,2,1,-2,0,-7,-8,-35,-33,-31,-29
-3,-2,1,2,-2,0,-3,-4,-29,-28,-27,-28
-3,-4,0,2,-1,-2,0,0,-23,-23,-24,-27
-3,-5,-1,3,0,-3,2,3,-19,-19,-22,-26
-3,-6,-2,3,0,-4,3,6,-15,-15,-20,-26
-3,-6,-3,4,0,-4,4,7,-12,-13,-18,-25
-3,-7,-3,4,0,-5,5,7,-10,-11,-17,-25
-3,-7,-3,5,0,-5,6,7,-9,-9,-16,-24
-3,-7,-3,5,0,-5,6,8,-7,-8,-15,-24
-3,-8,-3,5,0,-5,7,8,-6,-7,-14,-24
-3,-8,-3,5,0,-5,8,9,-5,-6,-13,-24
-3,-8,-4,5,0,-5,8,10,-4,-5,-12,-23
-3,-8,-4,5,0,-5,8,11,-3,-4,-12,-23
-3,-8,-4,5,0,-5,8,12,-2,-3,-11,-23
-3,-7,-4,5,0,-5,8,12,-2,-2,-11,-22
-3,-7,-4,5,0,-5,8,12,-2,-2,-10,-22
-3,-7,-4,4,0,-5,8,12,-1,-1,-10,-22
-3,-7,-4,4,1,-5,8,11,-1,-1,-9,-22
-3,-7,-3,4,1,-5,8,11,0,0,-9,-22
-3,-7,-3,4,1,-5,8,11,0,0,-8,-21
-3,-6,-3,4,1,-4,8,12,0,0,-8,-21
-3,-6,-3,4,1,-4,8,13,1,1,-8,-21
-3,-6,-3,4,1,-4,8,14,2,1,-7,-21
-3,-6,-3,4,1,-4,7,14,2,2,-7,-20
-3,-5,-3,3,1,-4,7,14,3,2,-6,-20
-3,-5,-3,3,1,-4,7,14,3,3,-6,-19
-2,-5,-3,3,1,-4,7,14,3,3,-6,-19
-2,-5,-2,3,1,-4,7,13,4,4,-5,-19
-2,-5,-2,3,0,-4,7,13,4,4,-5,-19
-2,-5,-2,3,0,-4,7,13,5,5,-5,-19
-2,-5,-2,2,0,-4,7,13,5,5,-4,-18
-2,-4,-1,2,0,-3,7,14,6,6,-4,-18
-2,-4,-1,2,0,-3,7,15,6,6,-3,-18
-2,-4,-1,2,0,-3,7,16,7,7,-3,-17
-2,-4,-1,2,0,-2,7,16,7,7,-2,-17
-1,-4,-1,1,0,-2,7,15,7,7,-2,-17
-1,-3,-1,1,0,-2,7,15,8,8,-1,-17
-1,-3,-1,1,0,-2,7,15,8,8,-1,-17
-1,-3,-1,1,0,-2,7,14,9,9,-1,-16
-1,-3,-1,1,0,-2,7,13,9,10,0,-16
-1,-3,-1,0,0,-2,7,13,10,10,0,-15
-1,-3,-1,0,0,-2,7,14,10,11,0,-15
-1,-3,-1,0,0,-2,7,15,11,12,1,-15
-1,-3,-1,0,0,-2,7,15,12,12,1,-15
-1,-3,-1,0,0,-2,7,15,13,13,2,-14
-1,-2,-1,0,0,-2,7,16,14,14,3,-14
0,-2,-1,0,1,-2,7,16,15,15,3,-14
0,-2,-1,0,1,-2,7,16,16,16,4,-13
0,-1,-1,0,1,-1,7,16,17,17,5,-13
0,-1,0,-1,1,-1,6,16,18,18,6,-12
0,0,0,-1,1,0,6,16,19,19,7,-11
0,0,0,-1,1,0,6,17,20,20,8,-11
1,0,0,-1,1,0,6,17,21,22,9,-10
1,0,0,-1,1,0,6,18,23,23,10,-9
2,0,0,-1,1,0,6,19,25,24,11,-8
2,0,0,-2,1,0,6,20,27,26,13,-7
2,1,0,-2,1,0,6,20,29,28,14,-6
3,1,0,-3,1,0,5,21,31,30,16,-5
3,2,0,-3,1,0,5,21,33,32,18,-3
4,2,0,-4,2,0,5,22,36,34,19,-2
4,2,0,-4,2,0,4,23,38,36,21,0
5,3,0,-5,2,1,4,24,41,38,23,1
5,3,0,-5,2,1,4,25,44,41,25,3
6,4,0,-6,2,2,3,26,46,43,27,5
6,5,0,-6,3,2,3,26,49,46,29,7
7,5,0,-7,3,2,2,27,51,48,31,9
7,6,0,-7,4,2,1,27,54,50,34,12
8,6,0,-8,4,2,1,28,56,52,36,14
8,6,0,-8,5,2,0,29,57,53,37,16
9,7,0,-9,5,3,0,30,58,54,39,18
9,7,0,-9,5,3,-1,31,59,55,40,19
10,8,-1,-10,6,3,-1,31,60,55,41,20
10,8,-1,-10,6,3,-2,30,60,56,42,21
10,9,-1,-11,6,3,-2,30,60,56,42,22
11,9,-1,-11,6,3,-3,29,60,56,43,23
11,9,-1,-11,6,3,-3,29,59,56,43,24
11,9,-1,-11,6,4,-4,28,58,55,43,25
11,9,-1,-11,6,4,-4,28,57,54,43,25
11,9,-1,-11,6,4,-4,27,56,53,43,25
11,9,-1,-11,6,4,-5,27,54,51,42,25
11,10,0,-11,6,5,-5,26,51,50,41,25
11,10,0,-11,6,5,-5,25,49,48,39,25
11,10,0,-11,6,5,-5,24,46,46,37,24
10,10,0,-11,5,5,-5,22,42,44,35,23
10,10,0,-10,5,5,-5,19,38,41,32,22
9,10,0,-10,5,5,-5,17,34,38,30,20
8,10,0,-9,4,5,-5,15,31,35,27,18
7,9,1,-9,3,5,-5,14,27,32,25,16
7,9,1,-8,3,5,-4,15,24,29,22,14
6,8,2,-8,2,5,-4,15,21,26,19,12
6,8,2,-7,2,5,-3,15,18,24,17,11
5,7,2,-7,1,5,-2,15,16,21,14,9
5,6,2,-6,1,5,-2,14,13,19,12,7
4,6,2,-6,1,5,-1,13,11,16,9,5
4,6,2,-5,1,5,-1,12,9,14,7,3
3,6,2,-5,0,4,0,11,7,12,6,2
3,5,2,-4,0,4,0,9,5,10,4,1
3,5,2,-4,0,4,0,8,4,9,3,0
3,4,2,-4,0,4,1,8,3,8,2,0
2,4,2,-4,0,4,1,7,2,8,1,-1
2,4,2,-4,0,4,2,7,1,7,0,-2
1,4,2,-4,0,4,2,8,1,6,0,-2
1,4,2,-3,0,4,2,8,1,6,0,-3
1,3,2,-3,0,4,2,9,1,5,-1,-3
1,3,3,-3,-1,4,3,9,1,5,-1,-4
1,3,3,-3,-1,4,3,9,0,5,-1,-4
1,3,3,-3,-1,4,3,9,0,5,-1,-4
1,3,3,-3,-1,4,3,9,0,5,-1,-4
1,3,3,-3,-1,4,3,8,0,4,-2,-4
1,3,3,-2,-1,4,3,8,0,4,-2,-4
1,3,3,-2,-1,4,3,8,0,4,-2,-5
0,3,3,-2,-1,4,3,8,0,4,-2,-5
0,3,4,-2,-1,4,3,9,0,4,-2,-5
0,4,4,-2,-1,4,3,9,0,4,-2,-6
1,4,4,-3,-1,4,3,9,0,4,-2,-6
1,4,4,-3,-1,4,3,9,0,4,-2,-6
1,4,4,-3,-1,4,3,9,1,4,-2,-6
1,4,4,-3,-1,4,3,9,1,4,-2,-6
1,4,4,-3,-1,4,3,9,1,4,-2,-6
1,4,3,-3,-1,4,3,8,1,4,-2,-6
1,4,3,-3,-1,4,3,8,1,4,-2,-6
1,4,3,-3,-1,4,3,8,1,4,-2,-6
1,4,3,-3,-1,4,3,8,1,4,-2,-6
1,4,3,-3,-1,4,3,8,1,4,-2,-6
1,4,3,-3,-1,4,3,8,1,4,-2,-6
1,4,3,-3,-1,4,3,8,2,5,-1,-6
1,5,3,-3,-1,4,3,8,2,5,-1,-6
1,6,4,-3,-1,5,3,8,2,5,0,-6
2,7,5,-4,-1,6,3,8,2,6,0,-5
2,8,6,-5,-1,7,3,8,2,6,0,-5
3,9,6,-6,-1,7,3,8,3,7,1,-4
3,10,7,-6,-1,8,3,8,3,7,1,-4
3,11,7,-7,-2,9,2,9,4,8,2,-4
3,12,8,-7,-2,10,2,9,4,9,2,-3
3,12,9,-8,-2,11,1,9,4,9,2,-3
4,13,9,-8,-2,11,1,9,4,9,2,-3
4,13,9,-8,-2,11,1,9,5,9,2,-3
4,13,9,-8,-2,11,2,8,5,9,2,-3
4,13,9,-8,-2,11,2,8,5,9,2,-3
4,14,10,-9,-3,12,3,7,5,9,2,-3
4,15,11,-9,-3,13,3,7,5,10,2,-3
4,16,12,-10,-4,14,2,6,5,10,2,-3
4,16,13,-10,-4,15,1,6,4,10,2,-3
4,17,13,-10,-4,15,0,6,4,10,2,-3
4,17,14,-11,-4,16,-2,5,3,9,2,-3
4,18,14,-11,-4,16,-4,5,2,9,2,-3
5,18,14,-12,-4,16,-6,4,1,9,2,-3
5,18,13,-12,-4,16,-8,3,0,8,1,-2
5,18,13,-12,-4,15,-9,3,-1,8,1,-2
6,18,12,-12,-3,15,-9,2,-1,7,0,-2
6,17,11,-12,-2,14,-10,2,-2,6,0,-2
6,17,11,-12,-1,14,-10,1,-2,6,0,-2
6,16,10,-12,-1,13,-10,1,-2,5,0,-2
6,16,10,-11,-1,13,-10,1,-3,5,0,-2
6,15,10,-11,-1,12,-9,1,-3,5,0,-2
6,14,9,-10,-1,12,-9,1,-3,4,-1,-2
6,13,8,-9,-1,11,-8,1,-3,4,-1,-2
6,13,7,-9,-1,10,-7,2,-3,3,-2,-2
6,12,7,-9,0,10,-6,2,-3,3,-2,-2
6,12,6,-9,0,9,-6,3,-3,3,-2,-2
6,11,6,-9,0,9,-5,4,-2,3,-2,-2
6,11,5,-8,1,8,-5,5,-2,3,-2,-2
6,10,4,-8,1,7,-4,6,-1,3,-2,-2
6,9,3,-8,2,6,-3,6,-1,2,-2,-2
6,8,2,-7,2,5,-2,7,-1,2,-2,-2
6,7,2,-7,2,5,-1,7,-1,1,-3,-2
5,6,2,-6,2,4,-1,6,-2,1,-3,-3
3,6,2,-5,1,4,0,5,-3,0,-4,-4
2,5,2,-4,1,4,1,5,-4,-1,-5,-5
1,5,2,-3,0,3,2,5,-4,-1,-5,-6
1,4,2,-2,0,3,3,5,-4,-1,-6,-7
0,2,1,-2,0,2,4,6,-4,-2,-7,-8
0,1,1,-1,0,1,5,6,-5,-2,-7,-9
0,0,0,-1,0,1,6,7,-5,-2,-8,-9
-1,0,0,0,0,0,6,7,-4,-2,-8,-9
-1,-1,-1,0,0,-1,7,7,-4,-3,-9,-10
-1,-2,-1,1,1,-2,8,8,-4,-3,-9,-10
-1,-2,-2,2,1,-2,8,8,-4,-4,-9,-11
-1,-3,-2,2,1,-3,9,8,-4,-4,-9,-12
-2,-4,-3,3,1,-3,9,8,-4,-4,-10,-12
-2,-4,-3,3,1,-3,9,8,-4,-4,-10,-12
-2,-5,-3,3,1,-4,10,8,-5,-5,-11,-13
-2,-5,-3,3,1,-4,10,9,-5,-5,-11,-13
-2,-6,-4,4,1,-5,10,9,-5,-6,-11,-13
-2,-6,-4,4,1,-5,11,9,-5,-6,-12,-13
-2,-7,-4,4,1,-6,11,9,-5,-6,-12,-14
-2,-7,-4,4,1,-6,11,9,-5,-6,-12,-14
-2,-7,-4,4,1,-6,11,10,-5,-6,-12,-14
-2,-7,-4,4,1,-6,11,10,-5,-6,-12,-14
-2,-7,-4,5,1,-6,11,10,-5,-6,-12,-14
-2,-7,-4,5,1,-6,11,9,-5,-6,-12,-14
-3,-7,-4,5,1,-6,12,9,-5,-6,-12,-14
-3,-7,-4,5,1,-6,12,9,-5,-7,-12,-14
-3,-7,-4,5,1,-6,12,10,-5,-7,-13,-14
-3,-7,-5,5,1,-6,12,11,-5,-7,-13,-14
-3,-7,-5,5,1,-6,12,11,-5,-7,-13,-14
-3,-7,-5,5,1,-6,12,10,-5,-7,-13,-15
-3,-7,-5,5,1,-6,12,10,-5,-7,-13,-15
-3,-8,-5,5,1,-7,12,10,-5,-7,-13,-15
-3,-8,-5,5,1,-7,12,10,-6,-7,-13,-15
-3,-8,-5,5,1,-7,13,10,-6,-7,-13,-15
-3,-8,-5,5,1,-7,13,9,-6,-7,-13,-15
-3,-8,-5,5,1,-7,13,9,-6,-7,-13,-15
-3,-8,-5,5,1,-7,13,10,-6,-7,-13,-15
-3,-8,-5,5,1,-7,13,10,-5,-7,-13,-15
-3,-9,-5,6,1,-7,13,11,-5,-7,-13,-15
-3,-9,-6,6,1,-8,14,12,-5,-7,-14,-16
-3,-10,-7,7,1,-9,15,13,-3,-7,-14,-17
-4,-12,-8,8,2,-10,17,15,0,-7,-15,-19
-5,-13,-8,9,1,-10,20,17,3,-5,-15,-22
-6,-13,-7,10,0,-10,23,19,7,-2,-16,-25
-7,-13,-6,10,-1,-9,27,23,15,4,-15,-29
-8,-14,-5,11,-1,-9,30,27,25,14,-12,-31
-8,-14,-4,11,-2,-9,34,32,37,28,-5,-31
-8,-13,-4,11,-2,-9,36,37,53,47,4,-28
-8,-12,-4,10,-2,-8,38,42,70,68,19,-21
-6,-10,-4,8,-2,-7,38,47,87,90,37,-11
-4,-7,-4,6,-1,-6,38,51,104,111,58,2
-1,-6,-5,4,1,-5,37,54,117,128,77,17
1,-5,-7,2,4,-6,35,55,121,132,89,31
5,-5,-10,0,7,-7,30,51,110,116,89,43
8,-4,-12,-2,10,-7,22,41,85,85,78,51
11,-1,-12,-5,12,-7,10,27,48,44,59,55
14,2,-11,-8,12,-4,-4,6,-2,-6,30,54
15,7,-8,-11,12,0,-19,-20,-65,-64,-5,49
16,12,-4,-14,11,3,-33,-44,-122,-118,-37,45
17,18,1,-17,8,9,-44,-64,-163,-155,-61,41
15,24,9,-19,3,17,-50,-80,-188,-175,-77,37
11,29,18,-20,-3,24,-51,-88,-197,-180,-85,33
9,31,24,-20,-7,28,-51,-90,-194,-177,-88,27
7,32,26,-20,-10,29,-49,-88,-185,-167,-87,21
5,32,27,-19,-11,30,-47,-83,-170,-153,-83,15
4,31,27,-18,-12,30,-45,-75,-153,-137,-78,8
3,30,27,-17,-12,29,-42,-67,-134,-122,-73,0
3,29,26,-16,-12,27,-40,-59,-117,-107,-67,-7
3,27,24,-14,-11,25,-37,-52,-102,-94,-62,-13
2,24,22,-13,-10,23,-33,-46,-88,-82,-57,-17
2,20,19,-11,-8,20,-29,-40,-76,-72,-53,-20
2,16,15,-9,-7,16,-24,-34,-65,-62,-48,-21
2,12,11,-7,-5,12,-19,-27,-56,-54,-44,-22
1,8,8,-5,-4,8,-13,-21,-48,-46,-40,-23
0,5,6,-3,-3,6,-8,-14,-40,-39,-36,-23
0,3,5,-2,-3,4,-4,-9,-33,-33,-32,-23
-1,1,3,0,-2,2,0,-5,-27,-28,-28,-22
-2,0,2,0,-2,1,2,-2,-21,-23,-24,-21
-2,-1,1,1,-1,0,4,0,-17,-19,-22,-20
-2,-2,0,1,-1,0,6,1,-14,-16,-21,-20
-2,-2,0,1,-1,-1,7,3,-11,-13,-20,-19
-1,-3,0,1,0,-1,8,3,-9,-11,-19,-19
-1,-3,-1,2,0,-1,8,4,-8,-9,-17,-19
-1,-3,-1,2,0,-2,9,4,-6,-8,-16,-18
-1,-3,-1,2,0,-2,10,5,-5,-7,-15,-18
-1,-3,-2,2,0,-2,11,6,-4,-7,-14,-18
-1,-3,-2,2,0,-2,11,7,-3,-6,-14,-18
-1,-3,-2,2,0,-2,11,8,-2,-5,-14,-18
-1,-3,-2,2,0,-2,11,8,-1,-3,-13,-18
-1,-3,-2,2,0,-2,11,9,-1,-2,-13,-17
-1,-3,-2,2,0,-2,11,9,0,-1,-12,-17
-1,-3,-2,2,0,-2,11,9,0,-1,-12,-17
-1,-3,-2,2,0,-2,11,8,0,0,-11,-17
-1,-3,-2,2,0,-2,11,8,1,0,-10,-17
-1,-2,-1,1,0,-2,11,8,1,0,-10,-17
-1,-2,-1,1,0,-1,11,9,2,0,-9,-17
-1,-2,-1,1,0,-1,11,9,2,1,-9,-17
-1,-1,-1,1,0,-1,10,9,3,2,-8,-16
-1,-1,-1,1,0,-1,10,10,3,2,-8,-16
-1,-1,-1,1,0,-1,10,10,4,3,-8,-16
-1,-1,0,0,0,0,10,11,4,3,-8,-16
0,-1,0,0,0,0,10,11,5,4,-7,-15
0,0,0,0,0,0,10,10,5,4,-7,-15
0,0,0,0,0,0,10,10,6,4,-7,-15
0,0,0,0,0,0,10,10,6,5,-6,-14
0,0,0,0,0,0,10,10,7,5,-6,-14
0,0,0,0,0,0,9,10,7,6,-6,-14
0,0,0,0,0,0,9,11,8,6,-5,-14
0,0,0,0,0,0,9,12,8,7,-5,-14
0,0,0,0,0,0,9,12,8,7,-4,-14
0,1,0,-1,0,1,9,13,9,8,-4,-13
1,1,0,-1,0,1,9,13,9,8,-4,-13
1,1,0,-1,0,1,9,12,10,9,-3,-13
1,2,0,-1,0,1,9,12,10,9,-3,-13
1,2,0,-1,0,1,9,11,11,10,-2,-12
1,2,0,-2,0,1,10,10,12,11,-2,-12
1,2,0,-2,0,1,10,10,12,12,-1,-11
1,2,0,-2,0,1,10,10,13,13,0,-11
2,2,1,-2,0,2,10,11,14,13,0,-11
2,3,1,-3,0,2,9,12,15,14,0,-10
2,3,1,-3,0,2,9,13,16,14,1,-10
2,3,1,-3,0,2,9,13,17,15,1,-9
2,3,1,-3,0,2,9,13,18,16,2,-9
3,3,1,-3,0,2,9,13,19,17,3,-9
3,3,1,-3,0,2,9,13,20,18,4,-8
3,4,1,-3,0,3,9,13,21,19,5,-8
3,4,1,-4,0,3,9,13,22,20,6,-7
4,5,1,-4,0,3,9,14,23,21,7,-7
4,5,1,-5,0,3,9,15,25,23,8,-6
4,6,1,-5,0,3,9,16,27,24,9,-5
4,6,1,-5,0,3,9,17,29,26,10,-4
4,6,1,-5,0,4,9,18,30,28,11,-3
5,7,1,-5,1,4,9,18,32,30,13,-2
5,7,1,-6,1,4,8,19,34,31,15,-1
6,7,1,-6,1,4,8,19,37,33,16,0
6,8,1,-7,1,4,7,19,39,35,18,1
7,8,1,-7,1,5,7,20,42,37,19,3
7,8,1,-8,1,5,6,20,44,39,21,4
8,9,1,-8,2,5,6,22,47,41,24,6
8,9,1,-9,2,5,5,24,49,44,26,7
9,10,1,-9,3,5,5,25,52,46,28,9
9,10,1,-10,3,6,4,26,54,48,30,11
10,11,1,-10,4,6,4,27,56,49,32,13
10,11,1,-11,4,6,3,27,58,51,34,15
10,11,1,-11,4,6,3,27,59,52,35,16
11,11,1,-11,4,6,2,27,60,53,36,18
12,12,1,-12,4,6,2,27,61,54,36,19
12,13,1,-13,5,6,1,27,61,54,38,21
13,13,0,-13,5,6,0,27,61,54,39,21
13,13,0,-13,5,7,0,27,61,54,40,21
13,13,0,-13,5,7,0,27,60,54,40,22
13,13,0,-13,5,7,-1,27,60,54,40,22
13,13,0,-13,5,7,-1,27,58,53,40,22
13,13,0,-13,5,7,-1,26,57,51,39,22
13,14,0,-13,5,7,-2,25,55,50,38,22
13,14,0,-14,5,7,-2,24,52,49,37,21
13,14,0,-14,5,7,-3,23,50,47,36,21
13,14,1,-14,5,8,-3,22,47,46,35,20
13,14,1,-13,5,8,-3,20,44,43,33,20
12,14,2,-13,4,8,-3,19,40,41,31,19
11,13,3,-12,3,8,-3,17,37,38,29,17
10,13,3,-12,3,8,-3,15,34,35,26,15
9,13,4,-11,2,8,-2,13,30,32,23,13
9,13,4,-11,2,8,-2,12,26,29,21,11
8,13,5,-10,1,9,-1,10,22,27,18,9
7,12,5,-10,1,9,-1,9,19,24,16,7
6,12,5,-9,0,9,0,8,16,22,13,5
5,11,5,-9,0,9,0,8,14,19,11,3
5,10,5,-8,0,8,0,7,12,17,9,1
4,10,5,-8,-1,8,1,7,10,15,7,-1
3,9,5,-7,-1,7,1,7,8,13,5,-3
3,9,5,-6,-1,7,2,7,6,11,4,-4
3,8,5,-6,-1,6,2,6,5,10,2,-5
2,8,5,-5,-1,6,2,6,4,9,1,-6
2,7,5,-5,-1,6,3,5,3,8,0,-7
1,7,5,-4,-1,6,3,5,2,7,0,-8
1,7,5,-4,-1,6,3,4,2,6,-1,-9
1,7,5,-4,-1,6,3,3,1,6,-1,-10
0,6,5,-3,-2,6,3,4,1,5,-2,-11
0,6,5,-3,-2,6,3,4,1,5,-2,-12
0,6,5,-3,-2,6,3,5,0,4,-2,-13
0,6,5,-3,-2,6,4,5,0,4,-2,-14
0,6,5,-3,-2,6,4,5,0,4,-2,-14
0,5,5,-3,-2,6,4,5,0,4,-2,-15
0,5,5,-3,-2,6,4,5,0,3,-2,-15
0,5,5,-3,-2,5,4,4,0,3,-2,-16
0,5,5,-3,-2,5,4,4,0,3,-3,-17
0,5,5,-3,-2,5,4,4,0,3,-3,-18
0,5,5,-3,-2,5,4,5,0,3,-3,-19
0,5,5,-3,-2,5,4,6,0,3,-3,-20
0,5,5,-3,-2,6,4,6,0,3,-3,-20
0,6,6,-3,-2,6,3,7,0,3,-3,-21
0,6,6,-3,-2,6,3,7,0,3,-3,-21
0,6,6,-3,-2,6,3,7,0,3,-3,-22
0,6,6,-3,-2,6,3,7,0,3,-3,-22
0,6,6,-3,-2,6,3,7,0,3,-3,-22
0,6,6,-3,-2,6,3,6,0,3,-3,-22
0,5,6,-3,-2,6,3,6,0,3,-3,-22
0,5,5,-3,-2,6,3,5,0,3,-3,-22
0,5,5,-3,-2,6,3,5,0,3,-3,-22
0,6,5,-3,-2,6,3,6,1,3,-3,-22
0,6,6,-4,-2,7,3,7,1,4,-3,-22
0,7,7,-4,-3,7,3,7,2,4,-2,-22
0,8,8,-5,-3,8,2,8,2,5,-2,-22
0,9,9,-5,-3,9,2,8,2,6,-1,-22
0,10,10,-6,-4,10,1,7,2,6,-1,-23
0,11,10,-6,-4,11,0,7,2,7,-1,-23
0,12,11,-7,-4,11,0,6,2,7,-1,-24
0,12,11,-7,-5,12,0,6,2,7,-1,-24
0,12,11,-7,-5,12,1,6,2,7,-1,-24
0,12,11,-7,-5,12,1,6,2,7,-1,-24
0,12,12,-7,-5,12,2,6,2,8,-1,-24
0,13,13,-7,-6,13,2,6,2,8,-1,-24
0,14,14,-7,-6,14,1,6,2,8,-1,-24
0,15,14,-7,-7,15,0,5,1,8,-1,-24
0,15,14,-7,-7,15,-2,5,0,7,-1,-24
0,15,14,-7,-7,15,-4,4,0,7,-1,-24
1,16,14,-8,-6,15,-6,3,-1,7,-1,-24
1,16,14,-8,-6,15,-8,1,-2,6,-1,-24
2,16,14,-8,-6,15,-10,0,-3,5,-1,-25
2,15,13,-9,-5,14,-11,0,-4,4,-2,-25
2,15,12,-9,-5,14,-12,-1,-5,4,-2,-25
3,15,12,-9,-4,13,-12,-2,-6,3,-2,-25
3,14,11,-9,-3,13,-12,-3,-6,3,-2,-25
3,14,11,-8,-3,12,-12,-3,-6,2,-2,-26
3,13,10,-8,-3,12,-12,-3,-7,2,-2,-26
2,13,10,-8,-3,11,-12,-2,-7,2,-2,-27
2,12,10,-8,-3,11,-11,-2,-8,1,-3,-28
1,12,10,-7,-3,11,-11,-1,-8,1,-3,-28
1,11,9,-7,-3,10,-10,-1,-8,0,-4,-29
1,11,9,-6,-3,10,-10,-1,-8,0,-5,-29
1,10,8,-6,-2,9,-9,0,-8,0,-4,-28
1,9,7,-5,-1,8,-8,1,-7,0,-4,-27
1,8,6,-5,0,7,-7,2,-7,0,-4,-26
1,6,4,-4,0,5,-6,3,-6,-1,-4,-26
1,4,2,-3,0,3,-5,3,-6,-1,-4,-27
1,3,1,-2,1,2,-4,4,-6,-1,-4,-27
1,2,1,-2,1,2,-3,4,-6,-1,-4,-28
0,2,1,-1,0,1,-2,4,-7,-2,-5,-29
-1,1,2,0,0,1,-1,4,-8,-2,-5,-30
-2,1,2,0,-1,1,-1,4,-8,-3,-6,-32
-2,0,2,1,-1,1,0,5,-9,-3,-7,-33
-3,-1,2,2,-1,0,0,5,-9,-4,-8,-34
-3,-2,1,3,-1,-1,1,6,-9,-4,-8,-34
-3,-4,0,3,-1,-1,2,6,-9,-4,-9,-35
-3,-5,0,4,-1,-2,3,6,-9,-5,-10,-35
-3,-5,-1,4,-1,-3,3,6,-9,-6,-10,-36
-3,-6,-2,5,0,-4,4,7,-9,-6,-11,-36
-4,-7,-3,5,0,-5,4,7,-9,-7,-11,-37
-5,-8,-3,6,0,-6,5,7,-8,-7,-12,-38
-6,-9,-4,7,0,-7,5,7,-8,-7,-13,-38
-6,-10,-4,7,0,-7,6,7,-9,-7,-13,-39
-6,-10,-4,8,0,-7,6,7,-9,-7,-13,-39
-6,-11,-5,8,0,-7,7,8,-9,-8,-13,-39
-6,-12,-5,9,0,-8,7,8,-9,-8,-13,-39
-7,-12,-6,9,0,-9,8,8,-10,-8,-13,-39
-7,-13,-6,10,0,-9,8,7,-10,-8,-13,-39
-7,-13,-6,10,0,-9,8,6,-10,-8,-13,-39
-7,-13,-6,10,0,-9,8,6,-10,-9,-14,-40
-7,-13,-6,10,0,-9,8,6,-10,-10,-16,-41
-8,-14,-6,11,0,-9,8,6,-10,-11,-17,-42
-8,-14,-6,11,0,-10,8,7,-10,-10,-16,-42
-8,-15,-6,11,0,-10,8,7,-10,-10,-16,-42
-8,-15,-6,11,0,-10,8,7,-10,-11,-16,-42
-8,-15,-6,11,0,-11,8,7,-10,-11,-16,-43
-8,-15,-7,11,0,-11,8,7,-10,-11,-15,-43
-8,-16,-7,12,0,-12,8,8,-10,-10,-15,-43
-8,-16,-8,12,0,-12,8,7,-11,-10,-15,-43
-8,-16,-7,12,0,-11,8,6,-11,-11,-15,-42
-8,-16,-7,12,0,-11,9,5,-11,-11,-16,-43
-9,-16,-7,12,0,-12,9,5,-11,-12,-17,-43
-9,-17,-8,12,0,-12,9,5,-11,-12,-17,-43
-9,-17,-8,12,1,-13,9,6,-11,-11,-16,-42
-9,-17,-9,13,1,-13,9,7,-10,-11,-16,-42
-9,-17,-9,13,1,-13,9,7,-10,-11,-16,-42
-9,-18,-9,13,1,-13,9,8,-10,-11,-16,-43
-9,-18,-9,13,1,-13,9,8,-10,-11,-17,-43
-9,-18,-9,13,1,-13,9,8,-10,-12,-17,-44
-9,-18,-9,13,0,-13,9,8,-10,-12,-17,-44
-9,-18,-9,13,0,-13,10,9,-8,-11,-17,-45
-10,-19,-9,14,0,-14,12,11,-5,-10,-17,-46
-11,-20,-9,15,0,-14,15,14,0,-8,-18,-49
-12,-20,-8,16,-1,-14,19,17,5,-3,-18,-52
-14,-21,-8,17,-1,-15,23,21,14,5,-16,-55
-15,-22,-9,18,-2,-15,27,26,25,17,-11,-56
-15,-23,-9,18,-2,-16,31,32,39,33,-2,-54
-15,-23,-8,18,-2,-16,33,37,55,54,11,-49
-14,-22,-8,18,-2,-15,34,42,71,76,27,-40
-13,-20,-7,16,-1,-14,34,46,88,99,46,-29
-11,-18,-7,14,-1,-13,33,50,103,120,66,-14
-8,-16,-8,11,0,-12,33,52,114,133,83,0
-5,-15,-10,9,3,-13,31,53,115,132,91,14
-1,-15,-13,8,7,-14,26,48,102,113,88,25
1,-14,-15,6,9,-15,18,37,74,79,75,32
4,-13,-17,4,11,-15,6,21,35,36,53,33
6,-10,-16,1,12,-13,-7,-1,-17,-18,20,29
7,-7,-14,0,11,-10,-22,-26,-77,-78,-17,23
8,-2,-11,-3,10,-6,-34,-48,-128,-129,-50,17
8,4,-4,-6,7,0,-43,-65,-164,-164,-75,11
6,11,5,-8,1,8,-48,-78,-185,-182,-91,5
2,17,14,-9,-5,16,-50,-85,-191,-186,-99,-1
0,19,20,-10,-9,20,-49,-86,-187,-182,-101,-6
-1,20,22,-9,-11,21,-48,-84,-176,-171,-98,-9
-3,19,23,-9,-12,22,-46,-79,-162,-157,-93,-12
-4,18,23,-7,-13,21,-44,-73,-145,-141,-87,-17
-5,17,22,-6,-13,20,-42,-66,-128,-125,-81,-23
-5,15,20,-6,-12,18,-40,-59,-112,-110,-74,-27
-5,14,18,-5,-11,16,-38,-53,-98,-98,-68,-30
-4,12,16,-4,-10,14,-35,-46,-86,-87,-63,-32
-4,9,13,-2,-8,11,-31,-40,-75,-76,-57,-33
-5,4,10,0,-7,7,-26,-33,-65,-66,-51,-33
-5,0,6,2,-5,3,-21,-27,-56,-58,-47,-32
-6,-3,3,5,-4,0,-16,-23,-49,-51,-43,-32
-7,-6,1,6,-4,-2,-11,-19,-42,-45,-39,-31
-7,-6,1,7,-4,-3,-8,-15,-36,-38,-35,-30
-8,-6,2,7,-4,-2,-5,-12,-30,-33,-32,-28
-8,-6,1,7,-3,-2,-3,-9,-26,-29,-30,-27
-8,-7,0,7,-3,-3,-1,-6,-21,-25,-28,-26
-8,-9,-1,8,-2,-5,1,-4,-18,-22,-26,-24
-8,-11,-2,9,-2,-7,2,-3,-15,-19,-24,-21
-8,-12,-4,9,-1,-8,3,-2,-12,-16,-21,-19
-8,-13,-5,10,-1,-10,5,-1,-10,-14,-19,-16
-9,-15,-6,11,0,-11,6,-1,-8,-12,-17,-13
-9,-16,-7,12,0,-12,6,-1,-7,-12,-16,-12
-8,-16,-7,12,0,-12,7,0,-6,-11,-16,-11
-8,-15,-6,12,0,-11,7,0,-5,-11,-15,-10
-8,-15,-6,11,0,-10,7,0,-5,-10,-15,-9
-8,-14,-5,11,0,-10,6,-1,-4,-9,-14,-8
-8,-14,-5,10,0,-10,6,-1,-4,-8,-14,-6
-7,-14,-6,10,0,-10,6,-1,-3,-7,-13,-3
-7,-14,-6,10,0,-10,6,-1,-3,-6,-12,-1
-7,-14,-6,10,0,-10,6,-1,-2,-6,-12,0
-7,-13,-6,10,0,-9,7,-1,-1,-5,-12,2
-7,-12,-5,9,0,-8,7,-1,-1,-5,-11,5
-7,-11,-4,9,0,-8,6,-1,-1,-4,-10,7
-7,-11,-4,8,0,-7,6,-1,-1,-3,-10,10
-7,-10,-3,8,0,-7,6,-1,0,-3,-10,11
-7,-10,-3,8,-1,-6,6,-2,0,-3,-10,13
-7,-10,-3,8,-1,-6,6,-2,0,-2,-10,14
-7,-10,-3,8,-1,-6,6,-3,0,-2,-9,16
-7,-10,-3,8,0,-7,6,-3,1,-2,-9,18
-7,-11,-4,9,0,-8,6,-3,2,-1,-8,20
-6,-11,-5,9,0,-9,6,-3,3,-1,-7,22
-6,-11,-6,8,1,-9,6,-2,3,0,-6,24
-5,-11,-5,7,1,-8,6,-2,4,1,-6,26
-5,-10,-4,7,0,-7,5,-3,4,2,-5,27
-5,-9,-3,6,0,-6,5,-4,4,2,-5,28
-5,-8,-3,6,0,-6,5,-4,5,2,-6,29
-5,-8,-3,6,0,-6,5,-4,5,2,-6,31
-5,-9,-4,6,0,-6,5,-3,6,3,-5,34
-5,-9,-4,6,1,-6,5,-2,7,3,-5,36
-5,-8,-4,5,1,-6,5,-2,7,4,-5,37
-4,-8,-4,5,1,-6,5,-2,7,4,-5,38
-4,-7,-4,5,1,-6,5,-2,8,4,-5,39
-3,-8,-4,5,1,-6,6,-2,8,5,-5,41
-3,-8,-4,6,1,-6,6,-2,9,5,-4,43
-3,-8,-4,6,1,-6,5,-2,9,6,-3,46
-3,-8,-4,5,1,-6,5,-2,10,7,-2,48
-3,-7,-4,5,1,-6,5,-2,11,8,-1,50
-3,-6,-4,4,1,-5,5,-2,12,9,0,51
-3,-6,-4,4,1,-5,5,-2,13,9,0,52
-3,-6,-4,4,1,-5,5,-2,14,10,0,53
-3,-6,-4,4,1,-4,5,-1,15,11,0,55
-3,-6,-3,4,1,-4,5,-1,16,12,1,57
-2,-5,-3,3,1,-4,4,-2,16,13,1,59
-2,-5,-3,3,1,-3,4,-2,17,14,2,61
-2,-4,-3,2,1,-3,4,-2,18,15,3,62
-2,-4,-3,2,1,-3,4,-1,20,17,4,64
-2,-4,-3,2,1,-3,4,-1,22,18,6,65
-2,-3,-2,2,1,-2,4,0,24,20,8,67
-1,-2,-1,1,1,-1,4,0,25,22,10,68
-1,0,0,0,0,0,3,0,27,24,12,69
0,2,3,-1,0,3,2,-1,29,26,13,69
0,5,5,-3,-1,5,1,-1,30,28,13,70
1,6,6,-4,-1,6,0,-1,33,30,14,71
1,7,5,-4,-1,5,-1,0,35,32,16,74
2,6,4,-5,0,4,-2,0,38,35,20,77
3,6,3,-5,1,4,-3,1,41,38,23,80
4,7,3,-6,1,4,-4,1,43,41,26,82
4,7,3,-6,2,5,-5,2,45,43,29,83
5,8,4,-7,2,6,-6,2,47,45,32,85
5,10,5,-8,2,7,-6,1,48,46,34,86
6,12,6,-10,1,9,-7,1,50,48,36,87
7,14,7,-11,1,11,-8,1,52,50,39,88
9,17,8,-13,1,12,-9,1,54,52,42,91
10,18,8,-15,1,13,-10,1,56,54,46,94
11,20,8,-16,1,13,-11,1,58,56,49,96
12,21,9,-17,1,14,-12,1,58,57,52,98
13,21,9,-17,2,15,-13,1,58,57,53,98
13,22,9,-18,2,16,-13,1,58,56,53,97
14,23,9,-18,3,16,-13,1,57,55,53,97
14,23,9,-19,3,17,-13,1,57,55,55,98
14,24,10,-19,3,17,-13,0,56,55,56,98
14,24,10,-19,2,17,-13,-1,54,54,57,98
13,25,11,-19,1,18,-13,-2,52,53,57,97
13,26,13,-19,0,19,-12,-4,49,51,57,95
12,26,14,-19,0,19,-11,-6,47,49,56,93
11,25,14,-18,-1,19,-11,-7,43,47,55,91
10,25,14,-18,-1,19,-11,-8,39,44,53,89
9,24,14,-17,-1,19,-11,-10,35,40,51,86
8,24,15,-16,-2,19,-10,-11,31,36,48,83
7,23,15,-15,-3,19,-9,-13,27,32,45,79
6,21,14,-13,-3,17,-8,-14,23,28,41,75
5,18,13,-11,-3,16,-7,-15,20,24,38,72
4,16,12,-10,-3,14,-5,-16,16,21,35,69
3,14,12,-8,-4,13,-4,-17,13,18,33,66
2,12,11,-7,-4,12,-4,-17,11,15,31,63
1,11,11,-6,-4,11,-4,-17,8,12,29,60
0,10,9,-5,-4,10,-4,-18,6,9,27,58
0,8,8,-4,-3,8,-4,-19,4,7,26,56
-1,5,6,-3,-3,5,-4,-20,3,5,24,55
-1,3,5,-2,-2,3,-4,-21,1,3,23,53
-1,2,4,-1,-2,2,-3,-22,0,1,21,50
-1,0,3,0,-1,1,-3,-21,-1,0,20,48
-2,0,2,0,-1,1,-2,-20,-1,-2,19,47
-2,-2,1,1,0,0,-1,-19,-2,-3,19,46
-3,-4,-1,2,0,-2,0,-17,-2,-4,18,45
-3,-5,-2,3,0,-3,1,-16,-2,-4,18,45
-3,-7,-4,4,0,-5,2,-16,-2,-5,17,44
-3,-8,-4,5,0,-6,2,-17,-2,-5,17,43
-3,-9,-5,6,1,-7,3,-17,-2,-6,17,41
-3,-9,-5,6,1,-7,3,-17,-3,-6,17,40
-4,-9,-5,7,1,-7,3,-18,-3,-7,17,39
-4,-9,-5,7,1,-7,4,-18,-3,-8,16,38
-4,-9,-6,7,2,-8,4,-19,-4,-8,16,38
-4,-10,-6,7,2,-8,4,-18,-4,-8,17,37
-4,-10,-6,7,2,-8,4,-18,-4,-8,17,37
-4,-10,-6,7,1,-8,4,-17,-4,-8,17,36
-4,-10,-6,7,1,-8,4,-17,-4,-8,16,34
-4,-10,-6,7,1,-9,4,-16,-4,-9,15,33
-4,-11,-7,7,2,-9,4,-16,-4,-10,15,32
-4,-12,-7,7,2,-10,4,-16,-4,-10,15,32
-4,-12,-8,7,2,-10,5,-16,-4,-10,15,33
-4,-12,-8,7,2,-10,5,-16,-4,-10,15,33
-4,-12,-8,8,2,-10,5,-16,-4,-10,15,33
-4,-13,-8,8,2,-11,5,-16,-4,-10,15,33
-4,-14,-9,9,2,-11,5,-16,-4,-10,15,32
-4,-14,-9,9,3,-12,6,-16,-4,-10,15,31
-4,-15,-10,9,3,-12,6,-17,-4,-10,15,30
-4,-15,-10,9,3,-12,6,-17,-4,-10,15,30
-4,-15,-10,9,3,-12,6,-17,-4,-11,15,29
-4,-15,-10,9,3,-12,6,-17,-4,-11,14,29
-4,-15,-10,9,3,-12,6,-17,-5,-11,14,28
-4,-15,-10,9,3,-12,6,-17,-5,-11,14,27
-4,-15,-10,9,3,-12,6,-17,-5,-11,14,26
-4,-15,-10,9,3,-12,6,-17,-5,-11,14,25
-4,-15,-10,9,3,-13,5,-18,-5,-11,14,25
-4,-15,-11,9,3,-13,5,-18,-5,-11,14,24
-4,-15,-11,9,3,-13,6,-18,-5,-11,14,24
-4,-16,-11,10,4,-14,6,-17,-5,-11,13,23
-4,-17,-12,10,4,-15,7,-16,-4,-11,13,22
-5,-19,-13,11,5,-16,9,-14,-1,-11,13,21
-6,-20,-14,13,5,-18,12,-11,3,-9,13,17
-7,-21,-14,14,4,-18,15,-8,9,-4,14,13
-8,-22,-13,15,3,-18,19,-4,18,3,16,9
-9,-22,-13,15,2,-18,22,0,29,15,21,6
-10,-22,-12,15,1,-18,25,4,41,30,29,6
-10,-20,-10,15,0,-16,26,8,53,47,41,10
-10,-18,-8,13,0,-13,25,11,65,68,57,19
-8,-14,-6,11,0,-10,24,13,78,89,77,33
-5,-10,-4,7,0,-8,23,15,91,108,99,50
-2,-6,-4,4,2,-6,20,17,99,121,118,68
1,-5,-6,2,4,-6,18,17,101,121,129,84
5,-4,-9,0,7,-7,14,15,91,106,127,93
8,-3,-11,-3,10,-7,7,7,66,74,112,96
11,-2,-12,-4,12,-7,-1,-7,30,31,87,94
13,0,-13,-6,14,-7,-12,-26,-17,-19,53,86
14,1,-12,-8,14,-6,-23,-50,-73,-75,14,75
15,4,-11,-9,14,-4,-33,-72,-125,-127,-21,65
14,8,-7,-11,12,0,-42,-90,-163,-164,-48,54
11,14,3,-13,5,8,-47,-103,-186,-184,-66,44
7,21,14,-14,-2,17,-49,-111,-195,-190,-76,33
3,25,23,-14,-9,24,-49,-114,-192,-186,-79,24
0,28,28,-14,-13,28,-49,-112,-182,-176,-78,15
-1,29,32,-14,-15,30,-48,-108,-168,-162,-74,7
-2,29,32,-14,-16,30,-47,-103,-152,-146,-68,0
-3,28,31,-13,-16,29,-46,-97,-135,-131,-61,-6
-3,26,29,-12,-15,27,-44,-90,-120,-117,-54,-10
-3,24,26,-11,-13,24,-42,-83,-107,-104,-46,-12
-3,21,22,-9,-12,21,-38,-75,-94,-92,-39,-13
-3,16,18,-7,-10,17,-34,-67,-82,-81,-32,-14
-3,11,13,-5,-7,12,-30,-59,-71,-71,-27,-14
-3,7,9,-2,-5,8,-25,-53,-62,-62,-22,-14
-3,2,6,0,-3,4,-19,-48,-53,-53,-17,-13
-3,-1,4,2,-2,1,-14,-43,-45,-46,-12,-12
-4,-3,1,4,-1,-1,-9,-38,-37,-39,-7,-10
-5,-5,0,5,-1,-3,-5,-34,-31,-33,-2,-9
-5,-7,-2,6,0,-5,-2,-29,-25,-27,1,-8
-5,-8,-3,6,0,-6,0,-26,-21,-23,3,-8
-5,-9,-4,7,1,-7,1,-25,-17,-19,5,-8
-5,-10,-4,7,1,-8,2,-24,-15,-17,6,-9
-5,-10,-5,7,1,-8,2,-23,-13,-15,6,-9
-4,-11,-5,7,1,-8,3,-23,-11,-14,7,-9
-4,-11,-5,7,1,-8,4,-22,-10,-13,7,-10
-4,-11,-5,7,1,-8,4,-21,-8,-12,8,-10
-4,-11,-6,7,1,-9,5,-19,-7,-11,8,-11
-4,-11,-6,7,1,-9,5,-17,-6,-10,8,-11
-4,-11,-7,7,1,-9,5,-16,-5,-9,8,-12
-4,-11,-7,7,1,-9,5,-15,-4,-8,8,-12
-4,-11,-7,7,1,-9,5,-15,-4,-7,8,-13
-4,-11,-6,7,1,-9,5,-15,-3,-7,8,-13
-4,-11,-6,7,2,-9,5,-15,-3,-6,8,-14
-4,-10,-6,7,2,-9,6,-14,-2,-6,8,-14
-4,-10,-6,7,2,-9,6,-14,-2,-6,8,-14
-4,-10,-6,6,2,-9,6,-13,-1,-5,8,-15
-4,-10,-6,6,2,-8,6,-13,-1,-4,8,-15
-4,-10,-6,6,2,-8,6,-13,0,-3,8,-15
-4,-10,-6,6,2,-8,6,-13,0,-2,9,-15
-4,-10,-6,6,2,-8,6,-13,0,-2,9,-15
-3,-9,-6,6,2,-8,6,-13,0,-2,9,-16
-3,-9,-6,6,2,-8,6,-12,1,-1,9,-16
-3,-9,-6,5,2,-8,6,-10,1,0,10,-16
-3,-9,-6,5,2,-8,5,-9,2,0,10,-16
-3,-9,-6,5,2,-7,5,-9,3,1,10,-16
-3,-9,-6,5,2,-7,5,-8,3,1,10,-16
-3,-9,-6,5,2,-7,5,-8,4,2,10,-16
-3,-8,-6,5,2,-7,5,-7,4,3,10,-16
-3,-8,-6,5,2,-7,5,-7,4,3,10,-16
-2,-7,-6,4,2,-7,5,-8,4,4,11,-16
-2,-7,-6,4,2,-7,5,-8,4,4,11,-16
-2,-7,-6,4,2,-7,5,-8,5,5,11,-16
-2,-7,-6,4,2,-7,5,-9,6,6,12,-16
-2,-7,-6,4,2,-7,4,-8,7,7,12,-16
-2,-7,-6,4,2,-7,4,-8,8,7,13,-16
-2,-6,-6,4,2,-6,3,-7,8,8,13,-16
-1,-6,-6,4,2,-6,3,-7,9,8,14,-15
-1,-6,-6,4,2,-6,3,-6,9,9,14,-15
-1,-5,-6,4,2,-6,3,-6,10,10,15,-14
-1,-5,-6,3,2,-6,3,-5,11,11,15,-14
-1,-5,-5,3,2,-5,3,-5,12,12,16,-13
-1,-4,-5,3,2,-5,3,-4,13,14,17,-13
0,-4,-5,2,2,-5,2,-3,15,15,18,-13
0,-4,-5,2,3,-5,2,-2,16,16,18,-12
0,-3,-5,2,3,-5,1,-1,17,17,19,-12
0,-3,-5,2,3,-5,1,-1,18,18,20,-11
0,-3,-5,1,3,-5,0,-1,19,20,22,-10
1,-2,-5,1,3,-4,0,0,20,21,23,-9
1,-2,-4,0,3,-4,0,0,22,23,24,-8
1,-1,-4,0,3,-3,0,0,24,25,26,-7
2,-1,-4,-1,3,-3,-1,0,25,27,27,-6
2,0,-4,-1,3,-2,-1,0,27,29,29,-5
3,0,-3,-2,3,-2,-2,0,28,31,31,-4
3,1,-3,-3,3,-1,-3,0,30,33,33,-3
4,1,-3,-3,4,-1,-3,1,32,35,34,-1
4,2,-3,-4,4,0,-4,2,33,36,36,0
5,3,-2,-4,4,0,-5,4,34,38,37,1
5,3,-2,-5,4,0,-6,4,35,39,39,2
5,4,-1,-5,4,1,-7,4,36,41,40,3
6,5,-1,-6,4,1,-8,4,37,42,41,4
7,6,-1,-6,4,2,-9,3,37,43,42,5
7,6,-1,-7,4,2,-10,3,38,43,42,6
8,7,0,-7,4,3,-10,3,38,43,43,6
8,7,0,-8,4,3,-11,3,38,43,43,7
8,8,0,-8,4,4,-11,3,37,43,43,7
8,8,0,-8,4,4,-12,3,36,43,43,8
8,9,0,-8,4,4,-12,3,36,43,43,8
8,9,0,-9,4,5,-12,3,35,42,43,8
8,10,0,-9,4,5,-13,3,33,41,42,8
8,10,1,-9,4,5,-13,2,32,40,41,7
8,10,1,-9,4,5,-13,1,31,39,40,7
8,10,2,-9,4,5,-13,0,30,38,39,6
8,10,2,-9,4,5,-13,0,28,37,38,6
8,10,2,-9,4,5,-13,-1,27,35,36,4
8,10,2,-9,4,5,-12,-2,25,34,34,3
7,9,2,-8,3,5,-12,-2,24,32,32,2
7,9,2,-8,3,5,-11,-2,22,30,30,0
6,8,2,-7,3,5,-10,-2,20,28,27,-1
6,8,2,-7,2,5,-9,-2,17,26,24,-3
5,7,2,-6,2,5,-8,-3,15,23,22,-5
5,6,2,-5,2,4,-7,-3,13,21,20,-6
4,5,1,-5,2,4,-7,-3,12,18,18,-8
4,4,1,-4,2,3,-6,-3,10,16,16,-9
3,4,1,-3,2,2,-5,-3,9,15,14,-11
3,3,1,-3,2,2,-4,-3,7,13,12,-12
2,3,1,-2,2,1,-3,-3,6,11,10,-13
2,2,0,-2,2,1,-3,-3,5,9,8,-14
2,1,0,-1,2,0,-2,-3,4,8,6,-15
2,0,0,-1,2,0,-2,-3,4,6,5,-15
2,0,-1,0,2,0,-1,-3,3,5,4,-16
1,0,-1,0,2,0,-1,-3,2,5,4,-17
1,-1,-1,0,2,-1,0,-3,2,4,3,-17
1,-1,-1,0,2,-1,0,-3,1,4,2,-18
1,-1,-1,0,2,-1,0,-3,1,3,2,-18
1,-1,-1,0,2,-1,0,-3,0,2,1,-18
1,-1,-1,0,2,-1,0,-3,0,1,0,-18
1,-1,-1,0,2,-1,0,-3,0,1,0,-19
0,-1,-1,1,2,-1,0,-2,0,0,0,-19
0,-1,-1,1,2,-1,0,-2,0,0,0,-20
0,-2,-2,1,2,-1,0,-2,-1,0,0,-20
0,-2,-2,1,2,-1,1,-1,-1,0,0,-20
0,-2,-2,1,2,-1,1,-1,-1,0,-1,-20
0,-2,-2,1,2,-1,1,0,-1,0,-1,-20
0,-2,-2,1,2,-1,1,0,-1,0,-1,-20
0,-2,-2,1,1,-1,1,0,-1,0,-1,-20
0,-2,-2,1,1,-1,1,0,-1,-1,-1,-20
0,-2,-2,1,1,-1,1,-1,-1,-1,-1,-20
0,-2,-2,1,1,-1,1,-1,-1,-1,-1,-20
0,-2,-2,1,1,-1,2,-1,-2,-1,-1,-20
0,-2,-2,1,1,-1,2,-1,-2,-2,-2,-21
0,-2,-2,1,1,-1,2,0,-2,-2,-2,-21
0,-2,-2,1,1,-1,2,0,-2,-2,-2,-21
0,-2,-2,1,1,-2,2,1,-2,-2,-2,-21
0,-2,-1,1,1,-2,2,1,-2,-2,-2,-21
0,-2,-1,1,1,-2,2,1,-2,-2,-2,-21
0,-2,-1,1,1,-2,2,1,-2,-2,-2,-21
0,-2,-1,1,1,-2,2,1,-2,-2,-2,-21
-1,-2,-1,1,1,-2,2,1,-2,-2,-3,-21
-1,-2,-1,1,0,-1,2,1,-3,-2,-3,-21
-1,-2,0,1,0,-1,2,1,-3,-2,-3,-21
-1,-2,0,1,0,-1,2,1,-3,-2,-3,-21
-1,-2,0,2,0,-1,2,1,-3,-2,-3,-21
-1,-2,0,2,0,-1,2,1,-3,-2,-3,-21
-1,-2,0,2,0,-1,2,1,-3,-2,-3,-21
-1,-2,0,2,0,-1,2,1,-3,-3,-3,-21
-1,-2,0,2,0,-1,2,1,-3,-3,-3,-21
-1,-2,0,2,0,-1,2,2,-3,-3,-3,-21
-1,-2,0,2,0,-1,2,3,-3,-3,-3,-21
-1,-2,0,2,0,-1,2,3,-3,-3,-4,-21
-1,-2,0,2,0,-1,2,4,-3,-3,-4,-21
-1,-2,0,2,0,-1,2,4,-3,-3,-4,-21
-1,-2,0,2,0,-1,2,4,-3,-3,-4,-21
-1,-2,0,2,0,-1,2,4,-3,-3,-4,-21
-1,-2,0,2,0,-1,2,4,-3,-3,-4,-20
-1,-2,0,2,0,-1,2,3,-3,-3,-5,-20
-1,-2,0,2,0,-1,3,3,-3,-3,-5,-20
-1,-2,0,2,0,-1,3,2,-3,-3,-5,-20
-1,-2,0,2,0,-1,3,2,-3,-4,-5,-20
-1,-2,0,2,0,-1,3,1,-4,-4,-5,-20
-1,-2,0,2,0,-1,3,1,-4,-4,-5,-20
-1,-2,0,2,0,-1,3,2,-4,-4,-5,-20
-1,-2,0,2,0,-1,3,2,-4,-4,-5,-20
-2,-2,0,2,0,-1,3,3,-4,-4,-5,-20
-2,-3,0,2,0,-1,3,4,-4,-4,-6,-20
-2,-3,0,2,0,-1,3,5,-4,-4,-6,-20
-2,-3,0,2,0,-1,3,5,-4,-4,-6,-19
-2,-3,0,2,0,-1,3,5,-4,-4,-6,-19
-2,-3,0,2,0,-1,3,5,-4,-4,-6,-19
-2,-3,0,2,0,-1,3,5,-4,-4,-6,-19
-2,-3,0,2,0,-1,3,4,-4,-4,-6,-19
-2,-3,0,2,0,-1,3,4,-4,-4,-6,-19
-2,-3,0,2,0,-1,3,5,-4,-4,-6,-19
-2,-3,0,2,0,-1,3,5,-4,-4,-6,-19
-2,-3,0,2,0,-1,4,6,-4,-4,-6,-19
-2,-3,0,2,0,-1,4,6,-4,-4,-6,-19
-2,-3,0,2,0,-1,4,6,-4,-4,-6,-19
-2,-3,0,2,0,-1,4,6,-4,-4,-6,-19
-2,-3,0,2,0,-1,4,6,-4,-4,-6,-19
-2,-3,0,2,0,-1,4,6,-4,-4,-6,-18
-2,-3,0,2,0,-1,4,6,-4,-4,-6,-18
-2,-3,0,2,0,-1,4,6,-4,-4,-6,-18
-2,-3,0,2,0,-1,4,6,-4,-4,-6,-18
-2,-3,0,2,0,-1,4,6,-4,-4,-6,-18
-2,-3,0,2,0,-1,4,6,-4,-4,-7,-18
-2,-3,0,2,0,-1,4,6,-4,-4,-7,-18
-2,-3,0,2,0,-1,4,6,-4,-4,-7,-18
-2,-3,0,2,0,-1,4,6,-4,-4,-7,-18
-2,-3,0,2,0,-1,4,6,-4,-4,-7,-18
-2,-3,0,2,0,-1,4,6,-4,-4,-7,-18
-2,-3,0,2,0,-1,4,7,-4,-4,-7,-18
-2,-3,0,2,0,-1,4,7,-4,-4,-7,-18
-2,-3,0,2,0,-1,4,7,-4,-4,-7,-18
-2,-3,0,2,0,-1,4,7,-4,-4,-8,-18
-2,-3,0,2,0,-1,4,7,-4,-4,-8,-18
-2,-3,0,2,0,-1,4,6,-4,-4,-8,-18
-2,-3,0,2,0,-1,4,6,-4,-4,-8,-18
-2,-3,0,2,0,-1,4,7,-4,-4,-8,-18
-2,-3,0,2,0,-1,4,7,-4,-4,-8,-18
-2,-3,0,2,0,-1,4,7,-4,-4,-8,-18
-2,-3,0,2,0,-1,4,7,-4,-4,-8,-18
-2,-3,0,2,0,-1,4,7,-4,-4,-8,-18
-2,-2,0,2,0,-1,4,7,-4,-4,-8,-18
-2,-2,0,2,0,-1,4,7,-4,-4,-8,-18
-2,-2,0,2,0,-1,4,7,-4,-4,-8,-18
-2,-2,0,2,-1,0,4,7,-4,-4,-8,-18
-2,-1,1,2,-1,0,4,7,-4,-4,-8,-18
-1,0,2,1,-1,1,4,7,-3,-3,-8,-18
-1,1,3,0,-1,2,4,7,-3,-2,-7,-17
-1,2,3,0,-1,3,4,8,-2,-1,-7,-17
0,3,4,-1,-1,4,4,8,-1,-1,-6,-16
0,5,4,-2,-1,5,4,8,0,0,-5,-15
0,6,5,-2,-2,6,3,9,0,0,-4,-14
1,7,6,-3,-2,7,3,9,1,0,-4,-14
1,8,6,-4,-2,8,2,9,1,1,-4,-14
1,9,7,-5,-2,8,2,9,1,1,-3,-14
1,9,7,-5,-3,9,2,8,1,2,-3,-14
1,10,8,-6,-3,9,2,7,1,2,-3,-14
1,10,9,-6,-4,10,3,7,1,3,-3,-13
1,11,10,-6,-4,11,2,6,1,3,-3,-13
1,12,12,-7,-5,12,1,6,1,4,-2,-12
1,13,13,-7,-5,13,0,6,1,4,-2,-11
1,14,13,-7,-5,14,-2,6,1,4,-2,-11
1,15,13,-8,-5,14,-4,6,0,4,-2,-11
1,16,14,-9,-5,15,-6,5,0,4,-2,-11
2,16,14,-9,-5,15,-8,4,-1,3,-2,-11
2,17,14,-10,-5,15,-9,3,-2,3,-2,-11
2,17,14,-10,-5,15,-10,2,-3,2,-3,-11
3,16,13,-10,-4,15,-11,0,-4,1,-3,-11
3,16,13,-9,-4,14,-11,0,-4,1,-4,-11
3,15,12,-9,-3,14,-11,0,-5,0,-4,-11
3,15,11,-9,-3,13,-10,0,-5,0,-4,-11
3,14,11,-8,-3,13,-10,0,-5,0,-4,-11
3,14,10,-8,-3,12,-9,1,-5,0,-4,-11
3,13,10,-8,-3,11,-9,1,-5,0,-4,-11
3,12,9,-8,-3,10,-8,1,-5,-1,-5,-12
3,11,8,-7,-2,9,-7,1,-5,-1,-5,-12
3,10,7,-7,-1,9,-7,1,-5,-1,-5,-12
3,10,7,-7,-1,8,-6,2,-5,-1,-5,-11
3,10,6,-7,-1,8,-6,3,-4,-1,-5,-11
4,9,5,-6,0,7,-5,4,-4,-1,-5,-11
4,8,4,-6,0,6,-5,5,-4,-2,-5,-11
4,7,3,-6,1,6,-4,6,-4,-2,-5,-11
4,6,2,-5,1,5,-4,7,-3,-2,-5,-11
4,6,1,-5,1,4,-3,7,-3,-2,-5,-11
3,5,1,-4,1,4,-2,7,-3,-2,-6,-12
2,4,1,-3,1,3,-1,7,-4,-3,-7,-13
1,4,1,-3,0,3,0,7,-5,-4,-7,-14
0,3,1,-2,0,3,1,7,-5,-4,-8,-14
0,2,1,-1,0,2,2,7,-5,-5,-8,-15
0,1,0,0,0,1,3,7,-5,-5,-8,-15
-1,0,0,0,0,0,4,7,-5,-5,-8,-15
-1,-1,0,1,0,-1,5,7,-5,-5,-9,-16
-1,-2,-1,1,0,-1,5,7,-5,-5,-9,-17
-2,-3,-1,2,0,-2,6,7,-5,-6,-10,-18
-2,-3,-2,2,0,-2,6,8,-5,-6,-10,-18
-2,-4,-3,3,1,-3,7,9,-5,-7,-11,-18
-3,-5,-3,3,1,-4,8,9,-5,-7,-11,-18
-3,-6,-4,4,1,-5,8,10,-5,-7,-11,-18
-3,-6,-4,4,1,-5,9,11,-5,-7,-11,-19
-3,-7,-4,4,1,-5,9,11,-5,-7,-11,-19
-3,-7,-4,4,1,-5,10,11,-5,-8,-12,-20
-3,-7,-4,4,1,-6,10,10,-5,-8,-12,-20
-3,-7,-4,5,1,-6,10,10,-5,-8,-12,-20
-3,-8,-5,5,1,-6,10,10,-5,-8,-12,-20
-3,-8,-5,5,1,-6,10,10,-5,-8,-13,-20
-3,-8,-5,5,1,-6,10,10,-5,-8,-13,-20
-3,-8,-5,5,1,-6,11,11,-5,-8,-13,-20
-3,-8,-5,5,1,-6,11,11,-5,-8,-13,-20
-3,-8,-5,5,1,-6,11,12,-5,-8,-13,-20
-3,-8,-5,5,1,-6,11,12,-5,-8,-13,-20
-3,-8,-5,5,1,-6,11,13,-5,-8,-13,-20
-3,-8,-5,5,1,-6,11,13,-5,-8,-13,-20
-3,-8,-5,5,1,-7,11,13,-5,-8,-13,-20
-3,-8,-5,5,1,-7,11,13,-5,-8,-13,-20
-3,-8,-5,5,1,-7,11,12,-5,-8,-12,-20
-3,-9,-5,5,1,-7,11,12,-5,-8,-12,-20
-3,-9,-6,6,1,-7,11,12,-5,-8,-12,-20
-3,-9,-6,6,1,-7,11,13,-5,-8,-12,-20
-3,-9,-6,6,1,-7,11,13,-5,-8,-12,-20
-3,-9,-6,6,1,-7,11,13,-5,-8,-12,-20
-3,-9,-6,6,1,-7,11,13,-5,-8,-13,-20
-3,-9,-6,6,1,-7,11,14,-4,-8,-13,-20
-3,-9,-6,6,2,-8,12,14,-4,-8,-13,-21
-3,-9,-7,6,2,-9,12,15,-3,-8,-13,-21
-3,-10,-8,7,3,-10,14,16,0,-7,-13,-23
-4,-11,-8,8,2,-10,16,18,3,-5,-13,-25
-6,-12,-7,8,1,-10,20,20,7,-2,-14,-28
-7,-12,-5,9,0,-9,23,23,13,3,-13,-31
-8,-11,-4,9,-1,-8,27,27,22,11,-11,-33
-9,-11,-3,10,-2,-7,30,33,34,24,-5,-34
-9,-11,-2,10,-3,-7,34,39,50,40,3,-33
-9,-10,-2,9,-3,-6,36,44,67,60,16,-29
-7,-8,-1,8,-3,-5,37,49,86,83,33,-20
-5,-5,-1,6,-1,-4,37,54,103,106,53,-7
-2,-3,-2,3,0,-3,36,59,118,127,75,9
1,-2,-3,0,2,-3,34,61,127,142,95,26
4,-1,-5,-2,5,-3,30,60,124,143,106,42
8,0,-7,-5,8,-3,23,54,107,125,106,55
12,3,-9,-8,10,-2,12,41,76,93,94,63
15,6,-9,-10,12,-1,0,23,36,52,74,67
17,9,-9,-13,13,0,-14,0,-16,0,43,64
18,11,-8,-14,13,1,-27,-24,-77,-61,5,57
18,14,-5,-15,12,4,-38,-46,-130,-114,-29,50
16,18,0,-16,8,9,-45,-64,-166,-149,-53,43
13,22,8,-17,2,15,-48,-76,-184,-166,-69,38
10,24,14,-17,-2,20,-48,-81,-189,-170,-76,32
8,26,18,-17,-5,22,-47,-80,-184,-166,-79,25
6,26,20,-16,-7,23,-46,-76,-173,-157,-79,18
5,26,20,-15,-7,23,-44,-69,-158,-144,-75,11
4,25,20,-14,-7,22,-41,-62,-141,-129,-71,3
3,24,19,-13,-7,21,-39,-55,-125,-114,-66,-5
3,23,18,-12,-7,20,-36,-49,-109,-101,-62,-12
3,21,17,-11,-6,18,-33,-42,-94,-88,-57,-18
3,18,14,-10,-5,16,-29,-35,-81,-78,-53,-22
3,14,11,-9,-3,13,-25,-28,-70,-68,-49,-25
3,10,8,-7,-2,9,-20,-22,-60,-60,-45,-27
2,7,4,-5,-1,6,-16,-16,-51,-52,-41,-28
2,4,2,-3,-1,3,-12,-12,-44,-45,-38,-29
1,3,1,-2,0,2,-8,-8,-38,-39,-34,-28
0,1,0,0,0,0,-4,-4,-31,-33,-30,-27
0,0,-1,0,0,0,0,0,-25,-27,-26,-26
0,-1,-2,1,1,-1,3,3,-19,-22,-23,-25
0,-2,-2,1,1,-2,5,6,-15,-18,-21,-24
0,-2,-2,1,1,-2,6,9,-11,-15,-19,-24
0,-3,-3,1,1,-3,7,10,-9,-13,-17,-23
0,-3,-3,1,1,-3,7,11,-7,-11,-16,-23
0,-3,-3,1,1,-3,8,12,-6,-9,-15,-22
0,-3,-3,1,1,-4,9,12,-4,-8,-14,-22
0,-3,-3,2,1,-4,9,13,-3,-7,-13,-22
0,-3,-3,2,1,-4,10,13,-1,-6,-13,-22
0,-3,-4,2,1,-4,10,14,0,-6,-13,-22
0,-4,-4,2,2,-4,10,14,0,-5,-13,-22
0,-4,-4,2,2,-4,10,14,0,-4,-12,-22
0,-4,-4,2,2,-4,10,14,1,-3,-12,-21
0,-4,-4,2,2,-4,10,13,1,-2,-11,-21
0,-4,-4,2,2,-4,10,13,1,-2,-11,-21
0,-3,-4,2,2,-4,10,13,2,-1,-10,-20
0,-3,-4,2,2,-4,10,14,2,-1,-10,-20
0,-3,-4,2,2,-3,10,14,3,-1,-9,-20
0,-3,-4,1,2,-3,10,15,3,-1,-9,-20
0,-3,-4,1,2,-3,10,14,4,0,-8,-20
0,-3,-4,1,2,-3,10,14,4,0,-8,-20
0,-3,-4,1,2,-3,10,14,4,0,-8,-19
0,-2,-4,1,2,-3,10,15,5,0,-7,-19
0,-2,-4,1,2,-2,10,15,5,1,-7,-19
1,-2,-4,0,2,-2,9,16,5,1,-7,-19
1,-2,-4,0,2,-2,9,16,5,1,-7,-19
1,-1,-4,0,2,-2,9,16,6,2,-7,-19
1,-1,-3,0,2,-2,9,16,6,2,-6,-19
1,-1,-3,0,2,-2,9,15,6,3,-6,-19
2,-1,-3,0,2,-2,9,15,6,3,-5,-19
2,0,-3,-1,2,-1,9,14,7,4,-5,-18
2,0,-3,-1,2,-1,9,14,7,4,-4,-18
2,0,-3,-1,2,-1,9,14,7,4,-4,-17
2,0,-3,-1,2,-1,9,14,7,4,-4,-17
2,0,-3,-1,2,-1,9,14,8,5,-3,-17
2,0,-2,-1,2,-1,8,15,8,5,-3,-17
2,0,-2,-1,2,-1,8,16,9,6,-3,-17
2,0,-2,-1,2,-1,8,16,9,6,-3,-17
2,0,-2,-1,2,-1,8,16,10,7,-2,-17
2,1,-2,-2,2,0,8,16,10,8,-2,-16
3,1,-2,-2,2,0,8,16,11,9,-1,-16
3,2,-2,-2,2,0,8,16,11,9,-1,-15
3,2,-2,-2,2,0,8,16,12,10,0,-15
3,2,-2,-2,2,0,8,16,13,10,0,-14
3,2,-2,-2,2,0,8,16,14,11,0,-14
3,2,-2,-2,2,0,8,16,15,11,1,-14
3,2,-2,-3,2,0,8,17,15,12,1,-13
4,3,-2,-3,2,0,8,18,16,12,2,-13
4,3,-2,-4,2,0,8,18,17,13,2,-12
4,3,-2,-4,2,1,8,18,18,14,3,-12
4,3,-1,-4,2,1,8,18,19,14,3,-11
5,3,-1,-4,2,1,8,19,20,15,4,-10
5,3,-1,-4,2,1,8,19,21,16,5,-9
5,3,-1,-4,3,1,8,19,22,17,6,-8
5,3,-1,-4,3,1,8,19,23,18,6,-7
5,4,-1,-5,3,1,7,20,24,19,7,-6
5,4,-1,-5,3,2,7,20,26,21,8,-5
5,5,-1,-5,3,2,7,20,27,22,9,-4
5,5,-1,-5,3,2,7,21,29,23,10,-3
5,5,-1,-5,3,2,7,21,31,24,12,-2
6,5,-1,-6,3,2,6,22,33,26,13,-1
6,6,-1,-6,4,2,6,23,35,27,15,0
7,6,-1,-7,4,2,6,24,37,29,16,1
7,7,-1,-7,4,2,6,25,39,31,18,2
7,7,-1,-8,4,2,5,25,41,33,20,4
8,8,-1,-8,4,3,5,26,43,34,22,6
8,8,-1,-8,5,3,4,27,45,36,23,7
9,8,-1,-9,5,3,3,27,47,37,25,9
9,8,-1,-9,5,3,2,27,48,38,26,10
10,9,-1,-10,6,4,2,28,50,39,28,12
10,9,-1,-10,6,4,1,28,51,40,29,13
11,10,-1,-10,6,4,1,29,52,41,31,15
11,10,-1,-11,7,4,0,29,53,42,32,16
11,11,-1,-11,7,4,0,29,54,43,33,17
11,11,-1,-12,7,4,0,30,54,43,34,18
12,11,-1,-12,7,4,-1,30,54,44,35,19
12,11,-1,-12,7,4,-1,31,54,44,35,20
13,11,-1,-12,7,4,-2,31,54,44,36,21
13,11,-1,-12,8,4,-2,31,54,44,36,22
14,11,-1,-13,8,4,-2,30,53,44,36,22
14,12,-1,-13,8,4,-3,29,52,43,36,23
14,12,-1,-13,8,4,-3,28,51,43,36,23
14,13,-1,-13,8,5,-4,27,49,42,35,23
14,13,-1,-14,8,5,-4,25,48,41,35,23
14,13,-1,-14,8,6,-4,24,46,40,34,23
14,13,0,-14,7,6,-4,23,43,38,33,23
13,13,0,-14,6,7,-4,22,41,37,32,23
13,13,0,-14,6,7,-4,22,38,36,30,22
12,13,1,-13,5,7,-4,21,35,34,28,21
12,14,1,-13,5,8,-4,20,31,32,26,19
11,14,2,-13,5,8,-4,18,28,30,24,17
11,13,2,-12,4,8,-4,16,25,27,22,15
10,13,3,-12,4,8,-3,14,22,25,19,13
10,13,3,-11,3,8,-3,14,20,23,17,12
9,13,3,-11,3,8,-2,14,19,21,16,11
9,12,3,-10,2,8,-1,14,17,20,14,9
8,12,3,-10,2,8,-1,14,15,18,13,8
8,11,3,-9,2,8,0,13,13,17,11,6
8,11,3,-9,2,8,0,12,12,15,10,5
7,11,3,-9,2,8,0,11,11,14,8,4
7,11,3,-9,2,7,0,10,10,13,7,3
6,11,3,-9,1,7,0,10,9,12,6,2
6,11,3,-9,1,7,1,10,8,11,6,1
6,11,3,-8,1,7,2,10,7,11,5,1
6,10,3,-8,1,7,2,11,6,10,4,0
6,10,3,-8,1,7,2,11,5,10,3,0
6,10,3,-8,1,7,2,11,5,9,3,0
5,10,3,-8,1,7,2,11,5,9,3,-1
5,9,3,-8,1,7,2,11,5,8,2,-1
5,9,3,-8,1,6,2,11,4,8,2,-2
5,9,3,-8,0,6,2,10,4,8,2,-2
5,9,3,-8,0,6,3,10,4,8,2,-2
5,9,3,-8,0,7,3,9,4,8,2,-2
5,10,4,-8,0,7,3,9,4,8,2,-2
5,10,4,-8,0,7,3,10,5,8,2,-2
6,11,5,-9,0,8,4,10,5,8,2,-3
6,12,6,-9,0,9,4,11,6,9,2,-3
7,13,7,-10,0,10,4,11,6,9,2,-3
7,15,7,-11,0,11,3,11,7,10,3,-2
8,16,8,-12,0,12,3,11,7,11,3,-2
8,17,8,-13,0,13,2,11,7,12,3,-2
8,18,9,-13,-1,13,2,11,8,12,4,-1
8,19,10,-13,-1,14,2,10,8,13,4,-1
8,19,10,-13,-1,15,1,10,8,13,4,-1
8,20,11,-14,-1,15,1,10,8,13,4,-1
9,20,11,-14,-1,16,2,10,8,13,4,-1
9,20,11,-15,-1,16,2,10,8,13,5,-1
9,20,11,-15,-1,16,3,11,9,13,5,-1
9,21,12,-15,-1,17,3,11,9,14,5,-1
9,22,13,-15,-2,17,3,10,9,14,5,-1
9,23,13,-16,-2,18,3,10,9,14,5,-1
10,23,13,-16,-2,18,1,9,9,14,5,-1
10,24,13,-16,-2,19,0,8,9,14,5,-1
10,24,14,-17,-2,19,-2,6,8,14,5,-1
10,25,14,-18,-2,20,-4,4,7,14,5,-1
10,25,14,-18,-1,20,-6,3,5,13,5,-1
11,25,14,-18,-1,20,-8,2,4,13,5,-1
11,25,13,-18,0,19,-9,1,3,12,4,-1
12,24,13,-18,0,19,-9,1,3,11,4,-1
12,24,12,-18,0,18,-10,2,2,11,4,-1
12,24,11,-18,1,17,-10,2,2,10,4,-2
12,23,10,-17,1,16,-10,3,1,10,4,-2
12,22,10,-17,1,16,-10,3,1,9,3,-3
12,22,9,-17,1,15,-9,3,1,9,3,-3
12,21,9,-16,1,15,-9,3,1,8,2,-3
12,20,8,-16,1,14,-8,3,0,8,2,-3
12,19,7,-15,1,14,-7,3,0,7,2,-3
12,19,7,-15,2,13,-6,3,0,7,2,-3
12,19,6,-15,2,13,-6,3,1,7,2,-3
12,18,6,-15,2,12,-5,3,1,7,2,-3
12,18,5,-15,3,11,-5,4,1,7,2,-3
12,17,4,-14,3,10,-4,4,1,6,2,-3
12,16,3,-14,4,9,-3,5,1,6,1,-3
12,15,3,-13,4,9,-2,7,1,5,1,-4
12,14,2,-13,5,8,-1,8,1,5,1,-4
