leadI,leadII,leadIII,leadaVR,leadaVL,leadaVF,leadV1,leadV2,leadV3,leadV4,leadV5,leadV6
-6,-7,-1,7,-2,-4,-8,4,-1,-3,-4,0
-16,-18,-2,17,-7,-10,-19,10,-2,-7,-10,0
-23,-24,-1,24,-10,-13,-20,11,-2,-10,-13,1
-28,-29,0,29,-13,-15,-18,10,-2,-13,-15,1
-31,-32,-1,32,-15,-17,-17,10,-3,-15,-17,1
-32,-34,-2,33,-15,-18,-20,12,-2,-15,-18,1
-32,-35,-3,34,-14,-19,-26,14,0,-14,-18,1
-31,-36,-5,34,-13,-20,-32,15,0,-15,-18,1
-30,-37,-6,34,-12,-21,-37,14,-1,-16,-18,1
-30,-37,-6,34,-12,-21,-37,12,-1,-17,-18,0
-30,-36,-6,34,-12,-21,-31,12,-1,-16,-17,1
-32,-35,-3,34,-14,-19,-23,13,-3,-13,-15,2
-36,-34,1,35,-18,-17,-18,13,-5,-12,-14,3
-38,-35,3,37,-21,-16,-17,13,-5,-11,-13,3
-39,-36,3,38,-21,-17,-21,13,-3,-11,-13,3
-40,-37,3,39,-21,-17,-26,14,-1,-10,-12,4
-41,-37,3,39,-22,-17,-30,14,0,-10,-11,4
-40,-37,2,39,-21,-17,-31,14,0,-10,-11,5
-38,-37,0,38,-19,-18,-28,14,1,-10,-12,5
-36,-37,-1,37,-17,-19,-22,15,1,-10,-12,5
-34,-37,-3,36,-15,-20,-18,15,1,-11,-13,4
-33,-37,-4,35,-14,-20,-16,14,1,-11,-14,4
-33,-37,-4,35,-14,-20,-19,13,2,-12,-14,4
-33,-36,-4,34,-14,-19,-25,12,2,-12,-14,4
-34,-36,-2,35,-16,-18,-30,12,2,-12,-14,4
-36,-35,0,35,-18,-17,-32,14,3,-12,-14,5
-36,-35,0,36,-18,-17,-30,16,4,-12,-13,6
-35,-36,0,36,-17,-18,-24,14,5,-12,-13,6
-34,-36,-1,35,-16,-19,-18,12,5,-12,-12,6
-34,-35,-1,35,-16,-18,-14,11,4,-11,-12,7
-34,-36,-1,35,-16,-18,-14,14,4,-10,-11,8
-34,-37,-2,36,-16,-19,-17,16,5,-9,-10,9
-34,-37,-3,35,-15,-20,-22,17,7,-9,-10,10
-33,-36,-3,34,-15,-19,-26,18,9,-9,-10,10
-33,-34,-2,33,-15,-18,-25,20,12,-9,-11,10
-32,-34,-1,33,-15,-18,-20,19,15,-9,-11,10
-32,-33,-1,33,-15,-17,-13,14,18,-9,-12,10
-32,-33,-1,33,-15,-17,-7,11,20,-9,-12,10
-33,-33,0,33,-16,-16,-5,12,23,-9,-12,10
-33,-33,0,33,-17,-16,-6,14,26,-8,-11,11
-33,-34,0,33,-16,-17,-9,15,27,-8,-11,12
-32,-34,-1,33,-15,-17,-13,16,28,-7,-11,13
-31,-34,-2,33,-14,-18,-13,18,29,-6,-11,13
-31,-34,-2,33,-14,-18,-10,20,32,-5,-10,13
-32,-34,-2,33,-14,-18,-3,23,36,-3,-10,14
-32,-34,-1,34,-15,-18,1,25,41,-2,-10,15
-32,-33,0,33,-15,-17,3,25,44,-2,-10,15
-31,-32,-1,32,-14,-17,2,22,47,-2,-10,16
-30,-33,-3,32,-13,-18,-3,20,49,-2,-10,16
-30,-34,-5,32,-13,-19,-7,21,51,-2,-10,17
-30,-35,-6,32,-12,-20,-10,23,53,-1,-10,17
-29,-36,-6,32,-12,-20,-9,25,55,-1,-10,18
-29,-36,-7,33,-11,-21,-5,27,57,0,-10,19
-29,-36,-7,33,-11,-21,-1,29,59,0,-10,20
-28,-36,-7,32,-10,-21,1,28,60,2,-10,21
-27,-35,-7,31,-10,-21,0,28,61,4,-9,22
-29,-35,-6,32,-12,-20,-2,28,62,7,-8,23
-30,-34,-4,32,-13,-19,-7,29,63,9,-8,24
-29,-34,-4,32,-12,-19,-10,30,64,8,-8,24
-29,-34,-5,31,-12,-19,-12,28,65,8,-9,24
-27,-33,-6,30,-10,-19,-10,26,66,8,-9,23
-26,-33,-7,30,-9,-19,-7,25,68,9,-9,23
-25,-32,-7,30,-10,-19,-4,27,71,10,-9,24
-25,-31,-6,29,-10,-18,-3,29,74,11,-9,24
-25,-30,-5,28,-11,-17,-5,27,77,11,-10,24
-26,-29,-4,27,-11,-16,-8,24,78,12,-10,25
-26,-28,-3,27,-12,-15,-10,23,79,13,-9,26
-26,-26,0,26,-13,-13,-11,25,81,14,-9,27
-28,-24,3,26,-15,-10,-7,27,83,15,-8,28
-31,-25,5,29,-18,-10,0,30,84,16,-7,29
-30,-26,4,29,-17,-10,4,31,83,16,-6,30
-27,-25,1,26,-14,-11,6,30,82,15,-7,29
-25,-24,1,25,-13,-11,6,29,81,15,-7,29
-26,-23,2,24,-14,-10,4,28,81,15,-7,30
-27,-22,4,24,-15,-8,1,27,81,15,-7,30
-28,-21,6,24,-16,-7,-2,26,81,14,-8,30
-28,-20,8,24,-17,-6,-3,24,81,13,-8,30
-28,-20,8,24,-18,-6,-2,23,80,12,-9,30
-28,-20,8,24,-18,-6,0,22,80,11,-9,29
-28,-20,7,24,-18,-7,-1,21,80,10,-10,29
-27,-20,6,24,-17,-7,-3,20,80,9,-11,28
-26,-20,6,23,-16,-7,-8,20,80,7,-12,27
-26,-21,5,23,-15,-8,-12,19,80,6,-13,26
-27,-23,4,24,-15,-9,-14,17,80,5,-13,25
-27,-24,3,25,-14,-10,-14,16,80,5,-13,25
-26,-24,3,25,-14,-10,-11,14,80,4,-13,25
-26,-24,3,25,-14,-10,-8,14,82,4,-13,25
-26,-24,2,25,-14,-11,-6,16,85,3,-12,26
-26,-24,1,25,-13,-11,-5,18,88,3,-12,26
-25,-25,0,24,-12,-12,-7,19,89,3,-12,25
-24,-25,-2,24,-10,-13,-9,20,89,2,-13,25
-24,-25,-1,24,-11,-13,-10,23,88,2,-13,25
-25,-26,-1,25,-11,-13,-11,24,87,1,-14,25
-24,-27,-2,25,-10,-14,-9,19,84,0,-16,24
-24,-27,-3,26,-10,-15,-6,14,80,-2,-18,23
-25,-28,-2,27,-11,-15,-4,13,79,-3,-18,22
-27,-29,-2,28,-13,-15,-2,13,80,-2,-18,23
-29,-31,-2,29,-13,-16,-2,12,81,-3,-18,23
-29,-31,-1,30,-14,-16,-4,11,81,-4,-18,23
-29,-31,-1,30,-14,-16,-6,9,80,-5,-19,22
-29,-32,-2,31,-13,-17,-8,5,78,-6,-20,22
-28,-32,-4,30,-12,-18,-9,0,76,-9,-21,22
-26,-32,-5,29,-10,-18,-7,-2,76,-11,-22,21
-26,-31,-5,29,-10,-18,-6,-2,77,-12,-23,20
-27,-32,-4,29,-11,-18,-5,0,77,-12,-23,19
-30,-34,-3,31,-13,-18,-4,2,76,-11,-22,20
-32,-35,-2,33,-14,-18,-5,2,76,-11,-22,20
-32,-35,-3,33,-14,-18,-8,1,76,-12,-22,20
-31,-35,-3,33,-13,-19,-10,0,75,-13,-23,20
-31,-36,-4,34,-13,-20,-10,0,75,-13,-22,20
-32,-37,-4,35,-13,-21,-9,2,76,-13,-22,21
-33,-36,-3,35,-14,-20,-7,5,76,-14,-22,21
-32,-36,-3,34,-14,-19,-7,6,77,-17,-24,20
-32,-35,-4,33,-14,-19,-8,1,78,-19,-26,19
-31,-35,-5,33,-13,-20,-9,-5,76,-20,-27,18
-31,-36,-5,33,-13,-20,-11,-6,75,-20,-27,18
-33,-36,-4,34,-15,-19,-11,-4,75,-20,-26,18
-35,-37,-2,36,-16,-19,-12,-1,74,-20,-25,19
-36,-37,-1,37,-17,-19,-11,0,72,-19,-24,20
-36,-37,-1,37,-17,-19,-9,0,71,-18,-24,20
-35,-38,-2,37,-17,-20,-9,0,69,-18,-24,20
-36,-39,-2,37,-17,-20,-8,0,66,-18,-24,21
-36,-39,-2,38,-17,-20,-8,0,64,-18,-23,21
-36,-39,-3,37,-16,-21,-10,1,62,-19,-24,21
-35,-39,-3,37,-15,-21,-12,0,61,-19,-24,21
-35,-39,-4,37,-15,-22,-13,-2,61,-19,-24,22
-35,-39,-3,37,-15,-21,-12,-3,61,-19,-24,22
-36,-38,-2,37,-16,-20,-11,-3,60,-20,-25,22
-36,-38,-2,37,-17,-20,-10,-4,60,-20,-25,22
-36,-39,-3,38,-16,-21,-10,-4,62,-20,-25,22
-37,-40,-3,38,-16,-21,-10,-5,64,-20,-26,22
-37,-39,-1,38,-17,-20,-11,-7,64,-20,-26,22
-38,-39,0,38,-18,-19,-12,-7,64,-20,-26,22
-38,-39,0,39,-19,-19,-12,-4,64,-20,-26,22
-39,-40,-1,39,-19,-20,-13,-2,64,-20,-26,22
-38,-40,-2,40,-18,-21,-12,-3,65,-21,-26,22
-38,-41,-3,40,-17,-21,-11,-5,64,-22,-26,22
-38,-41,-3,39,-17,-22,-11,-7,61,-22,-27,21
-37,-41,-4,39,-16,-22,-11,-8,59,-22,-27,21
-37,-42,-5,39,-15,-23,-12,-9,59,-23,-27,20
-37,-41,-5,39,-15,-23,-13,-9,61,-23,-28,20
-37,-41,-3,39,-16,-22,-13,-6,62,-23,-28,20
-38,-42,-4,40,-16,-23,-13,-3,62,-23,-29,20
-38,-43,-5,41,-16,-24,-12,-2,63,-24,-29,21
-39,-43,-5,41,-16,-24,-11,-3,63,-24,-29,21
-40,-43,-3,41,-18,-23,-11,-3,63,-25,-29,21
-41,-43,-2,42,-19,-22,-10,-2,63,-25,-29,21
-40,-44,-4,42,-17,-24,-10,-2,62,-25,-29,21
-39,-45,-5,42,-16,-25,-11,-3,60,-25,-29,21
-40,-45,-4,43,-17,-24,-11,-3,58,-24,-29,21
-41,-45,-4,43,-18,-24,-12,-2,56,-25,-29,21
-40,-45,-5,43,-17,-24,-13,-1,56,-25,-30,20
-39,-45,-7,42,-15,-26,-13,-1,55,-26,-30,19
-39,-46,-8,42,-15,-27,-13,-1,55,-26,-31,18
-39,-46,-8,42,-15,-27,-13,-2,54,-26,-31,17
-40,-47,-7,43,-16,-27,-13,-1,55,-26,-31,16
-41,-47,-6,44,-17,-26,-13,0,56,-27,-32,15
-42,-47,-5,45,-18,-26,-13,1,58,-28,-32,15
-43,-48,-4,46,-19,-26,-13,2,59,-28,-32,15
-44,-49,-4,46,-19,-26,-13,3,60,-28,-32,15
-44,-49,-5,47,-19,-27,-12,5,61,-28,-32,15
-44,-50,-6,47,-19,-27,-12,5,61,-28,-32,14
-43,-50,-8,46,-17,-29,-13,4,63,-29,-33,13
-41,-51,-10,46,-16,-30,-14,4,65,-30,-33,12
-41,-51,-10,46,-15,-30,-14,5,66,-30,-33,12
-41,-50,-9,45,-16,-29,-15,4,66,-30,-33,12
-40,-50,-9,45,-16,-29,-15,1,66,-30,-33,12
-40,-49,-8,45,-16,-29,-16,0,66,-31,-33,12
-41,-49,-8,45,-16,-29,-15,1,65,-30,-33,12
-42,-49,-7,45,-17,-28,-13,4,64,-29,-32,13
-44,-48,-4,46,-20,-26,-11,7,66,-28,-30,13
-47,-47,0,46,-23,-23,-7,11,69,-26,-29,14
-48,-46,2,46,-25,-22,-5,13,73,-26,-28,15
-47,-44,3,46,-25,-21,-4,14,74,-26,-28,15
-47,-43,4,45,-25,-19,-3,10,73,-26,-29,14
-45,-42,3,44,-25,-19,-4,8,71,-26,-30,14
-43,-42,1,43,-22,-20,-4,11,70,-26,-30,13
-40,-41,-2,41,-19,-21,-6,15,70,-26,-31,13
-38,-41,-3,39,-17,-21,-9,14,71,-25,-31,13
-40,-40,0,40,-20,-20,-12,12,73,-23,-29,14
-44,-39,5,41,-24,-17,-14,11,76,-20,-27,16
-46,-38,8,42,-26,-16,-16,14,78,-18,-26,17
-46,-38,9,42,-28,-14,-18,18,80,-18,-27,17
-47,-36,11,42,-29,-12,-20,21,81,-20,-29,16
-47,-34,13,41,-30,-10,-22,24,83,-23,-33,14
-48,-31,16,40,-32,-7,-22,31,85,-25,-34,14
-48,-29,18,39,-33,-5,-22,40,89,-23,-32,15
-47,-28,18,37,-32,-4,-23,48,94,-17,-26,19
-44,-27,17,35,-30,-5,-25,56,100,-8,-18,24
-41,-26,15,33,-27,-5,-29,64,106,5,-6,32
-37,-25,13,30,-25,-5,-33,71,113,22,10,44
-32,-23,10,28,-22,-6,-39,77,121,44,29,58
-28,-21,7,25,-18,-6,-47,77,126,68,49,73
-22,-16,6,20,-14,-5,-57,70,125,91,72,91
-17,-10,6,14,-11,-2,-68,56,119,115,96,110
-12,-2,8,7,-10,3,-77,38,108,134,118,127
-9,4,12,2,-10,8,-85,17,92,146,133,140
-8,7,16,0,-11,12,-91,-6,69,146,138,146
-10,5,16,2,-13,11,-92,-26,44,135,131,143
-13,-2,12,7,-13,5,-90,-40,23,117,116,132
-17,-11,6,14,-12,-2,-85,-49,6,92,95,116
-21,-20,2,21,-12,-9,-79,-52,-6,64,70,97
-27,-26,1,27,-15,-13,-72,-51,-13,37,44,78
-34,-31,2,33,-18,-15,-65,-47,-13,12,21,61
-39,-35,4,37,-21,-16,-59,-43,-9,-6,3,46
-42,-37,5,39,-23,-16,-55,-38,-3,-18,-8,35
-44,-38,6,41,-24,-16,-51,-31,4,-24,-16,29
-47,-38,9,42,-27,-14,-49,-24,12,-26,-20,25
-50,-38,12,44,-31,-13,-48,-18,20,-26,-21,23
-51,-37,14,44,-33,-11,-46,-12,28,-25,-23,21
-51,-37,15,44,-34,-11,-44,-8,35,-24,-23,20
-52,-38,14,45,-34,-12,-40,-4,41,-23,-23,19
-54,-40,13,46,-34,-13,-37,0,47,-22,-23,18
-55,-42,12,47,-33,-15,-35,2,51,-21,-24,17
-55,-44,10,49,-32,-17,-33,5,54,-21,-24,16
-54,-46,7,50,-30,-19,-32,7,57,-21,-25,15
-54,-47,7,50,-30,-20,-31,6,60,-21,-26,14
-54,-49,5,52,-30,-21,-31,6,61,-21,-25,14
-54,-51,4,53,-30,-23,-30,7,61,-21,-25,14
-55,-52,4,54,-30,-24,-28,8,59,-21,-25,14
-56,-53,4,54,-30,-24,-27,9,58,-21,-25,13
-57,-53,3,55,-30,-25,-26,11,57,-20,-25,13
-57,-54,2,55,-29,-26,-26,11,57,-19,-25,13
-56,-55,1,55,-28,-27,-25,8,58,-20,-25,12
-56,-56,0,55,-27,-28,-25,6,55,-21,-25,12
-56,-56,0,56,-28,-28,-25,7,52,-19,-24,12
-58,-56,1,57,-30,-27,-23,9,52,-17,-24,13
-59,-57,2,57,-31,-27,-22,10,52,-16,-23,12
-59,-57,2,57,-30,-27,-22,11,51,-16,-23,7
-59,-58,1,58,-30,-28,-21,13,49,-16,-23,1
-58,-58,0,58,-28,-29,-21,14,46,-16,-23,-3
-57,-59,-2,57,-26,-30,-22,13,44,-17,-24,-8
-55,-59,-4,57,-25,-31,-22,12,44,-18,-25,-12
-55,-59,-4,57,-24,-32,-23,11,44,-19,-25,-15
-55,-59,-3,57,-26,-32,-22,11,44,-18,-25,-16
-58,-60,-1,59,-28,-31,-21,12,42,-17,-24,-17
-61,-61,0,61,-30,-31,-20,13,38,-16,-23,-17
-63,-63,0,62,-32,-31,-19,13,36,-15,-22,-18
-63,-62,1,62,-32,-30,-18,13,34,-15,-21,-19
-64,-61,3,62,-33,-29,-17,13,32,-14,-21,-19
-64,-60,4,62,-34,-27,-17,13,30,-13,-20,-20
-64,-60,4,62,-34,-28,-17,12,27,-13,-21,-21
-63,-62,1,62,-32,-30,-18,11,25,-13,-21,-23
-62,-63,1,62,-31,-30,-19,11,24,-14,-22,-24
-62,-61,2,61,-32,-29,-18,13,23,-14,-22,-26
-65,-61,4,62,-34,-29,-17,14,23,-13,-22,-26
-67,-62,5,64,-36,-29,-16,12,23,-12,-21,-25
-67,-63,4,65,-35,-29,-15,9,22,-11,-20,-24
-66,-63,3,65,-34,-30,-15,8,21,-11,-20,-25
-66,-64,3,65,-35,-30,-15,10,20,-11,-20,-26
-68,-64,4,66,-36,-29,-15,14,20,-11,-20,-26
-69,-64,5,66,-37,-29,-14,18,21,-11,-21,-27
-66,-64,2,65,-34,-30,-15,18,21,-12,-22,-28
-63,-64,-1,63,-31,-32,-16,15,19,-13,-24,-29
-61,-65,-4,62,-28,-34,-17,12,17,-14,-25,-31
-59,-65,-6,62,-26,-35,-17,12,16,-15,-25,-32
-62,-66,-4,63,-28,-34,-16,14,16,-14,-24,-31
-66,-67,0,66,-32,-33,-15,17,18,-12,-23,-30
-67,-67,0,67,-33,-33,-15,19,19,-12,-23,-30
-66,-67,0,66,-33,-33,-15,20,18,-12,-23,-30
-67,-67,0,67,-34,-33,-15,19,17,-11,-23,-30
-68,-68,0,68,-35,-33,-15,15,15,-11,-24,-31
-68,-68,0,68,-34,-34,-15,14,13,-11,-24,-31
-67,-68,-1,68,-33,-35,-16,19,13,-10,-24,-31
-67,-70,-3,68,-32,-36,-16,24,12,-10,-23,-31
-67,-71,-3,69,-32,-37,-15,25,10,-8,-22,-31
-68,-71,-2,69,-33,-36,-15,22,10,-6,-20,-30
-68,-71,-1,69,-33,-36,-15,18,10,-5,-18,-29
-68,-70,-1,69,-33,-36,-16,18,9,-4,-17,-29
-69,-70,0,69,-34,-35,-16,21,9,-2,-16,-28
-70,-69,0,69,-35,-34,-17,25,10,-1,-16,-28
-69,-69,0,69,-35,-34,-18,27,11,0,-15,-28
-70,-68,0,69,-35,-33,-19,30,12,0,-14,-27
-70,-68,1,69,-35,-33,-19,33,14,1,-13,-27
-70,-68,2,68,-36,-32,-19,33,16,2,-12,-27
-70,-66,3,67,-36,-31,-20,32,18,3,-11,-27
-69,-65,4,67,-36,-30,-20,30,20,3,-11,-27
-69,-65,3,66,-36,-31,-20,29,21,4,-10,-27
-68,-64,3,66,-36,-30,-20,27,20,5,-9,-27
-68,-62,5,65,-37,-28,-19,27,20,7,-8,-26
-67,-60,7,63,-37,-26,-19,28,21,9,-7,-25
-66,-58,7,62,-36,-25,-18,29,22,9,-7,-26
-65,-57,7,61,-36,-25,-18,30,22,9,-6,-26
-66,-57,8,61,-37,-24,-18,31,22,11,-5,-25
-67,-58,9,62,-38,-24,-19,31,22,13,-4,-24
-67,-57,10,61,-38,-24,-22,31,23,14,-3,-23
-67,-56,11,61,-39,-23,-25,31,23,14,-3,-23
-67,-56,11,61,-39,-22,-28,31,23,14,-3,-23
-68,-55,12,61,-40,-21,-29,31,23,13,-4,-23
-69,-55,14,62,-41,-20,-30,28,21,13,-4,-23
-70,-54,16,62,-43,-18,-31,25,18,12,-4,-24
-70,-54,17,62,-43,-18,-33,23,16,11,-5,-25
-70,-54,16,61,-43,-18,-35,22,14,10,-5,-26
-69,-54,15,61,-42,-20,-36,19,13,9,-6,-27
-68,-55,13,62,-40,-21,-36,18,12,9,-6,-27
-68,-56,11,62,-39,-22,-37,19,12,9,-6,-27
-68,-56,10,62,-39,-23,-37,20,13,9,-6,-27
-68,-56,10,62,-39,-22,-37,22,13,10,-5,-27
-69,-56,12,62,-40,-21,-36,24,13,10,-5,-27
-69,-56,13,62,-41,-21,-35,24,14,11,-5,-27
-68,-56,12,62,-40,-22,-35,24,15,11,-5,-28
-67,-56,11,62,-39,-22,-34,26,16,10,-5,-28
-68,-56,12,62,-40,-22,-33,28,16,10,-6,-29
-69,-57,11,63,-40,-23,-32,26,15,8,-7,-30
-67,-58,7,62,-37,-25,-32,21,11,5,-10,-32
-64,-58,5,61,-34,-26,-33,18,7,3,-12,-34
-64,-58,6,61,-35,-25,-32,18,6,2,-13,-35
-65,-58,7,61,-36,-25,-32,19,4,2,-13,-35
-63,-58,6,60,-34,-26,-31,18,2,1,-14,-35
-63,-58,5,60,-33,-26,-31,16,-1,0,-14,-36
-65,-57,8,61,-35,-25,-31,13,-3,-1,-13,-35
-66,-56,10,61,-37,-23,-30,10,-4,-2,-13,-35
-65,-55,10,60,-37,-22,-30,8,-6,-3,-13,-36
-63,-55,8,59,-36,-23,-30,8,-9,-4,-15,-37
-63,-55,8,59,-35,-23,-29,8,-13,-5,-16,-38
-62,-54,8,58,-35,-23,-29,6,-16,-6,-17,-38
-60,-54,7,57,-33,-24,-29,4,-18,-7,-17,-39
-57,-53,5,55,-31,-24,-29,6,-18,-7,-18,-40
-56,-52,4,54,-30,-24,-29,8,-16,-8,-18,-41
-57,-51,5,54,-31,-23,-28,8,-14,-9,-19,-42
-59,-50,8,55,-34,-20,-27,5,-14,-9,-18,-41
-60,-49,11,55,-36,-19,-26,5,-17,-9,-18,-41
-60,-49,11,54,-35,-19,-25,7,-19,-10,-18,-41
-59,-49,10,53,-34,-20,-24,9,-19,-11,-19,-41
-57,-49,9,53,-33,-20,-24,6,-20,-10,-18,-41
-55,-48,7,51,-30,-20,-24,0,-23,-10,-28,-42
-52,-47,5,50,-28,-21,-24,-2,-25,-11,-11,-43
-51,-46,5,49,-27,-21,-23,1,-25,-12,200,-44
-51,-45,6,48,-28,-19,-23,5,-25,-12,670,-44
-52,-45,7,48,-30,-18,-22,8,-26,-11,394,-44
-54,-45,8,49,-31,-18,-21,7,-27,-11,282,-43
-54,-46,8,50,-31,-18,-21,5,-29,-10,723,-43
-53,-45,8,49,-30,-19,-20,3,-33,-10,550,-43
-51,-44,8,47,-29,-18,-20,2,-35,-9,307,-43
-50,-42,8,46,-29,-17,-20,3,-37,-9,180,-43
-49,-41,9,45,-29,-16,-20,5,-37,-9,104,-44
-48,-39,8,44,-28,-15,-20,6,-37,-9,55,-45
-46,-39,5,43,-26,-16,-20,5,-38,-9,24,-46
-44,-39,4,41,-24,-17,-21,2,-39,-9,6,-47
-44,-38,5,40,-24,-16,-21,1,-40,-10,-5,-47
-43,-37,5,40,-24,-15,-20,0,-40,-11,-12,-47
-42,-37,5,39,-23,-16,-20,0,-39,-11,-16,-47
-42,-37,5,39,-23,-16,-20,0,-40,-10,-19,-47
-43,-37,6,40,-24,-15,-20,1,-42,-9,-20,-46
-43,-36,6,39,-24,-15,-19,1,-42,-7,-20,-46
-42,-35,6,38,-24,-14,-19,0,-42,-7,-21,-46
-41,-34,7,37,-24,-13,-20,0,-42,-7,-21,-46
-41,-32,8,36,-24,-11,-20,1,-42,-7,-22,-47
-39,-30,9,34,-23,-10,-19,1,-45,-7,-22,-47
-37,-29,7,33,-21,-11,-19,-1,-48,-7,-22,-48
-35,-29,6,32,-20,-11,-19,-2,-48,-7,-22,-49
-33,-28,6,31,-19,-10,-18,-1,-48,-7,-22,-49
-31,-26,5,29,-18,-10,-17,2,-47,-7,-22,-50
-30,-25,5,28,-18,-10,-16,4,-45,-7,-22,-51
-32,-24,7,28,-19,-9,-15,5,-44,-6,-22,-51
-32,-24,7,28,-19,-9,-14,5,-44,-6,-21,-51
-30,-24,5,27,-17,-9,-13,4,-46,-6,-21,-51
-28,-24,4,26,-15,-10,-12,1,-46,-5,-21,-50
-28,-23,5,26,-16,-9,-12,0,-46,-4,-21,-50
-28,-22,6,26,-17,-8,-12,1,-46,-4,-22,-50
-27,-22,5,25,-16,-8,-12,2,-46,-5,-22,-50
-26,-22,4,23,-15,-8,-12,3,-46,-5,-22,-51
-25,-21,4,23,-14,-8,-11,3,-46,-4,-22,-51
-26,-21,4,23,-15,-8,-10,3,-46,-3,-22,-50
-25,-20,5,22,-15,-7,-9,4,-44,-2,-22,-50
-22,-19,4,20,-13,-7,-9,5,-42,-3,-23,-50
-19,-17,3,18,-11,-7,-9,5,-41,-3,-24,-51
-18,-15,4,17,-11,-5,-8,5,-42,-3,-24,-51
-19,-14,5,16,-12,-4,-6,6,-43,-3,-23,-51
-18,-13,5,15,-11,-3,-5,6,-42,-3,-23,-51
-15,-12,3,13,-9,-4,-5,4,-42,-2,-23,-51
-14,-10,3,12,-8,-3,-5,2,-44,-2,-23,-51
-13,-9,3,10,-8,-3,-6,1,-45,-2,-23,-51
-10,-8,1,9,-5,-3,-6,3,-44,-2,-23,-51
-7,-8,-2,7,-2,-5,-5,6,-44,-1,-23,-50
-4,-7,-3,6,0,-5,-5,9,-44,0,-22,-50
-2,-6,-4,4,1,-5,-5,10,-45,0,-22,-50
-1,-4,-4,2,1,-4,-5,8,-43,0,-22,-50
-1,-3,-1,2,0,-2,-3,7,-40,2,-22,-50
-4,-1,3,2,-3,1,0,8,-38,3,-21,-49
-6,1,8,1,-7,5,3,11,-36,4,-20,-48
-6,4,10,0,-7,7,6,12,-37,5,-19,-47
-3,7,11,-2,-6,9,8,12,-38,6,-18,-46
-2,10,12,-4,-6,10,10,12,-39,8,-17,-46
-1,12,13,-5,-7,12,11,14,-40,10,-16,-45
1,14,13,-7,-6,13,12,16,-39,11,-16,-44
4,16,13,-10,-4,14,12,18,-39,12,-15,-42
6,17,12,-12,-3,14,12,18,-39,13,-14,-41
8,18,10,-14,-1,14,11,18,-38,14,-13,-39
12,20,8,-17,2,14,9,17,-36,15,-12,-39
17,24,8,-21,4,16,6,17,-36,15,-13,-39
20,29,8,-24,6,18,4,17,-36,14,-13,-40
23,32,9,-27,7,20,3,18,-37,14,-13,-40
24,34,10,-29,7,22,3,16,-38,16,-12,-39
23,36,12,-29,5,23,5,12,-36,17,-10,-37
23,37,13,-30,5,25,6,10,-35,18,-9,-36
24,39,14,-32,5,26,7,11,-35,19,-9,-36
25,40,15,-34,5,28,8,14,-36,19,-8,-35
26,42,16,-35,5,29,10,16,-37,20,-7,-34
27,44,16,-36,6,30,12,17,-37,21,-6,-33
30,44,14,-37,8,29,13,18,-37,22,-5,-33
33,43,10,-37,12,26,14,18,-36,24,-4,-32
34,44,8,-38,13,25,15,17,-35,26,-3,-32
36,46,9,-41,14,27,16,16,-35,27,-3,-32
39,47,8,-43,15,27,17,16,-35,28,-3,-33
41,47,7,-45,17,27,18,16,-32,29,-3,-32
43,48,5,-46,19,27,20,15,-30,29,-3,-32
44,50,5,-47,20,27,21,10,-30,28,-3,-33
44,51,6,-47,19,28,22,6,-32,27,-3,-33
43,51,7,-47,18,29,22,5,-33,28,-3,-32
43,52,8,-47,18,29,23,6,-34,29,-2,-32
44,52,7,-48,19,29,23,6,-36,29,-2,-32
45,52,7,-49,19,29,24,3,-40,30,-2,-32
44,52,9,-49,18,31,25,0,-41,30,-1,-31
43,54,12,-49,16,33,27,-4,-41,30,-1,-31
44,55,12,-49,16,33,28,-8,-43,29,-2,-32
46,55,9,-50,19,32,28,-10,-44,28,-3,-33
48,56,8,-51,20,32,28,-12,-44,28,-3,-33
48,56,7,-51,21,31,28,-13,-44,27,-4,-34
50,57,5,-53,22,31,28,-15,-45,26,-4,-35
51,57,4,-54,24,31,27,-16,-49,26,-5,-36
52,57,4,-55,24,31,28,-16,-51,27,-6,-36
52,57,5,-55,24,31,29,-16,-52,27,-4,-36
53,58,5,-56,24,32,30,-17,-52,26,0,-36
53,60,6,-56,23,33,30,-19,-51,26,5,-36
53,61,7,-57,23,34,30,-22,-51,26,6,-37
54,62,6,-58,24,34,30,-25,-51,26,2,-37
56,62,5,-59,26,33,29,-27,-52,26,-1,-38
56,62,4,-59,26,33,29,-27,-54,26,-2,-37
56,61,4,-59,26,33,30,-27,-55,27,-3,-37
56,62,5,-60,26,34,30,-27,-56,28,-3,-37
57,62,6,-60,26,34,30,-28,-57,28,-3,-37
57,62,6,-59,26,34,30,-32,-57,30,-3,-36
56,63,7,-59,24,34,30,-35,-58,31,-3,-35
55,64,8,-59,23,36,30,-35,-58,31,-3,-35
55,64,9,-60,23,36,29,-35,-58,32,-3,-35
56,63,7,-60,24,35,28,-34,-58,31,-3,-36
57,62,5,-60,26,34,26,-35,-59,30,-4,-37
59,63,3,-61,28,33,23,-37,-60,30,-5,-38
59,63,4,-62,28,33,21,-37,-61,30,-5,-39
58,63,5,-61,27,34,20,-37,-60,32,-5,-39
58,63,5,-60,26,34,18,-38,-60,32,-5,-39
59,63,4,-61,27,33,17,-40,-61,32,-6,-40
59,64,4,-61,27,34,15,-41,-62,32,-7,-41
58,64,5,-61,26,35,15,-41,-61,32,-7,-40
58,64,5,-61,26,35,14,-42,-62,32,-7,-40
58,64,5,-61,27,35,12,-45,-63,31,-7,-41
58,64,5,-61,27,35,12,-48,-64,30,-8,-42
57,64,7,-61,26,36,12,-50,-64,31,-7,-42
56,64,8,-60,25,36,11,-51,-64,32,-7,-41
57,64,7,-61,25,36,10,-51,-65,32,-8,-41
59,64,6,-61,26,35,9,-51,-66,32,-8,-41
60,64,5,-62,28,34,8,-51,-68,31,-8,-42
62,65,3,-63,30,34,6,-52,-70,30,-10,-43
64,66,1,-65,32,34,5,-54,-71,28,-11,-45
65,66,1,-65,32,34,5,-56,-71,27,-12,-46
64,66,2,-65,31,34,6,-57,-72,27,-13,-46
62,66,5,-64,29,35,7,-59,-72,28,-13,-45
59,65,6,-63,27,35,8,-61,-71,29,-13,-45
58,64,7,-61,26,35,9,-62,-70,30,-12,-44
57,64,7,-60,25,35,10,-60,-70,30,-12,-44
57,63,6,-60,25,35,11,-59,-71,30,-11,-44
57,63,6,-60,26,35,12,-58,-72,30,-11,-44
58,63,5,-61,26,35,13,-58,-72,29,-11,-45
58,64,5,-61,26,35,14,-59,-70,27,-13,-46
58,63,5,-61,27,34,16,-59,-68,26,-14,-47
58,62,3,-61,28,32,17,-60,-68,25,-16,-49
59,61,1,-61,29,31,18,-65,-70,24,-17,-50
60,61,0,-61,30,31,18,-71,-75,23,-18,-51
61,60,-1,-61,31,30,19,-74,-78,22,-18,-51
61,59,-2,-61,32,29,20,-74,-78,22,-17,-51
60,59,-1,-60,31,29,21,-73,-77,23,-16,-50
58,58,0,-58,29,30,24,-71,-79,25,-14,-50
57,58,1,-58,28,30,26,-69,-81,26,-14,-50
56,58,2,-58,27,30,28,-66,-83,26,-13,-50
56,58,2,-57,27,30,29,-65,-84,25,-13,-51
55,58,2,-57,26,30,30,-64,-84,25,-14,-51
54,58,4,-57,25,32,31,-65,-84,26,-14,-51
52,59,6,-56,23,33,33,-67,-83,27,-13,-50
52,59,6,-56,23,33,34,-69,-82,27,-12,-49
55,59,3,-58,26,32,35,-70,-83,26,-13,-50
57,59,2,-59,27,31,36,-69,-83,26,-13,-50
57,60,3,-59,27,32,38,-69,-83,26,-13,-50
59,61,3,-60,28,33,38,-69,-83,25,-14,-51
61,62,1,-61,29,32,39,-69,-84,25,-14,-52
61,62,1,-62,30,32,40,-69,-84,24,-15,-52
59,63,3,-62,28,33,43,-70,-83,25,-14,-52
57,65,7,-61,25,36,45,-71,-82,26,-14,-51
56,66,10,-62,23,38,47,-71,-81,26,-13,-51
56,67,11,-62,22,39,49,-70,-81,25,-13,-51
56,67,12,-62,22,40,51,-69,-81,25,-13,-51
56,68,12,-63,22,40,51,-69,-81,26,-12,-51
57,68,11,-63,23,40,50,-70,-82,26,-12,-50
57,69,12,-63,23,40,48,-71,-82,26,-11,-50
57,69,12,-63,22,41,46,-71,-82,26,-11,-50
56,70,13,-63,22,42,44,-72,-83,25,-12,-51
56,70,13,-63,22,42,42,-75,-84,23,-13,-52
57,70,12,-64,23,41,41,-78,-85,22,-14,-52
59,70,11,-64,24,41,40,-80,-86,21,-15,-53
59,70,10,-64,25,40,38,-81,-88,20,-16,-54
59,68,10,-63,25,39,38,-80,-90,20,-15,-54
57,67,10,-62,24,39,38,-78,-91,20,-15,-53
55,66,11,-61,23,39,39,-78,-91,20,-15,-53
55,65,10,-60,23,38,39,-80,-92,21,-14,-53
55,65,10,-60,23,38,39,-79,-92,22,-13,-52
56,65,9,-61,23,38,39,-77,-92,23,-13,-52
56,64,8,-61,24,37,40,-78,-90,23,-12,-52
57,64,6,-61,25,36,40,-80,-89,24,-12,-52
57,64,6,-61,25,36,41,-78,-87,24,-12,-52
55,64,8,-60,23,36,41,-72,-85,24,-12,-52
54,63,9,-59,23,37,41,-70,-85,23,-13,-53
54,63,9,-59,23,36,41,-76,-87,21,-14,-54
56,63,8,-60,24,36,41,-84,-89,20,-15,-54
57,63,6,-60,26,35,41,-87,-90,20,-16,-54
58,62,4,-60,27,34,41,-88,-93,20,-16,-54
57,62,5,-59,26,34,42,-88,-98,21,-16,-54
55,61,6,-58,25,34,42,-89,-103,22,-15,-53
54,60,6,-57,24,34,42,-88,-105,23,-14,-52
53,60,7,-57,23,33,43,-88,-105,23,-13,-52
54,60,6,-57,24,33,43,-88,-106,22,-13,-53
55,59,5,-57,25,33,43,-88,-108,21,-14,-53
54,59,6,-57,24,33,43,-88,-108,21,-15,-53
53,60,7,-56,23,34,44,-90,-108,20,-15,-53
51,60,8,-55,21,35,44,-91,-108,20,-15,-53
50,59,9,-54,20,35,45,-91,-108,19,-15,-52
48,59,10,-54,19,35,46,-91,-108,20,-15,-52
47,59,12,-53,18,36,47,-92,-109,21,-14,-51
46,59,13,-52,16,36,48,-92,-109,22,-13,-50
44,58,14,-51,16,36,49,-92,-109,22,-12,-49
45,57,12,-51,16,35,49,-91,-108,23,-12,-49
46,56,11,-51,17,34,49,-92,-109,23,-12,-48
46,56,11,-51,17,34,49,-93,-110,22,-13,-48
46,56,10,-51,17,33,50,-93,-110,22,-13,-48
46,55,9,-51,18,32,50,-94,-111,22,-14,-48
46,56,10,-52,18,33,49,-95,-112,22,-14,-48
47,57,10,-53,19,34,49,-96,-113,21,-15,-49
49,57,9,-54,21,33,49,-97,-114,21,-15,-49
51,57,6,-54,23,32,49,-98,-115,19,-16,-50
52,57,5,-54,23,32,49,-99,-115,18,-17,-50
51,57,5,-54,23,31,50,-99,-115,18,-17,-49
50,56,6,-53,22,31,50,-98,-114,17,-17,-49
49,56,7,-53,21,32,51,-97,-113,17,-17,-49
47,55,9,-52,19,32,51,-97,-112,18,-16,-48
46,55,9,-51,19,32,52,-97,-112,18,-16,-47
46,55,9,-51,19,32,53,-98,-113,18,-16,-46
47,55,7,-51,20,31,53,-99,-114,18,-16,-46
48,55,7,-51,20,31,49,-99,-114,17,-16,-45
47,55,7,-50,20,32,40,-99,-114,17,-16,-45
47,54,7,-50,19,31,31,-99,-114,17,-16,-44
46,53,7,-50,19,31,24,-98,-114,17,-16,-44
46,53,7,-50,19,30,18,-98,-115,17,-16,-43
46,54,7,-51,19,30,13,-99,-115,16,-16,-43
47,54,7,-51,20,30,9,-99,-116,16,-16,-43
46,53,7,-50,19,30,7,-99,-115,17,-15,-42
44,52,8,-48,18,30,6,-97,-114,17,-14,-40
43,51,9,-47,17,31,5,-97,-114,17,-14,-39
43,51,8,-47,17,30,5,-97,-113,16,-14,-39
44,51,7,-48,18,30,4,-97,-113,15,-15,-39
45,51,6,-48,19,29,3,-95,-113,15,-16,-40
45,50,5,-49,20,28,2,-94,-114,15,-16,-40
46,50,4,-49,21,27,1,-95,-116,14,-16,-40
47,50,3,-49,22,26,0,-98,-119,12,-16,-40
47,50,3,-49,22,26,0,-98,-119,12,-16,-40
47,49,3,-48,22,26,1,-97,-117,12,-16,-39
45,50,5,-48,20,27,3,-94,-113,13,-16,-39
44,51,8,-48,17,30,5,-90,-109,14,-16,-39
44,52,9,-48,17,31,6,-86,-105,14,-16,-39
45,52,8,-49,18,31,7,-80,-100,14,-16,-40
43,53,11,-48,17,32,8,-73,-96,15,-16,-39
40,54,15,-47,13,35,10,-67,-92,17,-15,-38
38,55,16,-46,11,36,11,-61,-89,20,-14,-36
39,55,16,-47,12,36,10,-54,-85,22,-13,-35
41,57,15,-49,13,36,9,-48,-80,25,-10,-33
44,59,15,-51,14,37,8,-42,-76,31,-5,-29
46,60,15,-53,15,38,6,-37,-75,41,3,-22
49,62,14,-56,17,38,2,-34,-73,55,17,-11
53,64,12,-59,21,38,-4,-32,-69,73,34,1
58,67,9,-63,25,38,-12,-34,-67,92,53,16
64,71,8,-68,29,40,-22,-44,-72,111,73,32
69,77,8,-73,31,43,-31,-60,-81,130,94,50
73,84,11,-79,31,48,-39,-81,-94,148,115,68
75,91,17,-83,30,54,-45,-105,-111,161,134,85
75,98,23,-87,26,61,-49,-130,-134,166,145,97
74,102,29,-89,23,67,-52,-154,-159,161,147,102
72,103,31,-88,21,68,-53,-174,-181,151,142,101
70,98,29,-84,21,64,-49,-187,-196,137,131,93
66,90,25,-78,21,58,-42,-191,-203,120,115,80
61,83,22,-72,20,52,-32,-185,-205,98,95,64
55,75,20,-65,18,47,-20,-173,-204,75,71,47
49,69,19,-59,16,43,-10,-160,-199,51,48,29
46,64,17,-55,15,41,-2,-147,-192,32,28,14
44,60,16,-52,14,39,2,-136,-184,18,14,3
42,58,16,-50,13,38,5,-125,-174,9,5,-4
40,57,19,-49,11,39,6,-116,-164,6,1,-8
39,58,20,-49,9,40,5,-109,-155,5,-1,-11
41,60,19,-51,11,40,3,-103,-148,5,-4,-13
42,61,19,-52,11,40,3,-98,-142,5,-5,-15
40,60,19,-50,11,40,5,-94,-136,6,-6,-16
39,59,19,-49,10,40,6,-92,-132,7,-7,-17
39,58,20,-49,10,40,7,-91,-128,7,-7,-17
38,57,20,-48,9,40,8,-88,-123,8,-6,-16
38,56,19,-47,9,38,9,-86,-119,9,-6,-16
36,54,18,-45,9,37,10,-83,-116,11,-5,-16
35,52,18,-44,8,35,12,-80,-114,12,-5,-16
34,51,17,-43,9,34,13,-77,-113,12,-6,-16
35,49,14,-42,11,32,15,-73,-111,11,-6,-17
35,48,12,-41,12,30,17,-69,-110,10,-7,-17
35,46,10,-40,13,28,19,-66,-108,10,-7,-17
37,45,8,-40,15,27,19,-66,-106,10,-7,-17
38,44,6,-41,16,26,19,-67,-104,10,-7,-18
38,44,6,-41,15,25,20,-65,-101,11,-6,-17
37,44,8,-40,14,26,21,-61,-100,12,-5,-16
35,44,9,-40,13,26,23,-58,-99,13,-4,-16
35,43,8,-40,13,25,24,-56,-98,14,-4,-15
35,42,6,-39,15,24,25,-55,-97,13,-3,-15
36,42,5,-39,16,24,26,-55,-99,12,-4,-16
37,42,4,-40,17,24,26,-55,-101,11,-5,-16
38,42,3,-40,17,24,26,-54,-101,11,-5,-17
37,41,4,-39,16,23,27,-52,-99,11,-5,-17
36,41,5,-39,15,23,28,-50,-97,11,-5,-17
36,41,5,-39,16,23,28,-49,-96,10,-6,-17
38,41,3,-40,18,22,29,-53,-99,9,-7,-18
38,40,2,-40,19,21,30,-62,-102,9,-7,-18
36,40,3,-38,17,22,31,-69,-104,9,-6,-17
33,40,5,-37,14,23,32,-69,-105,10,-4,-16
32,40,7,-36,12,24,33,-66,-105,10,-3,-16
31,39,8,-35,11,24,33,-62,-105,11,-3,-15
31,39,8,-35,11,24,33,-59,-105,11,-3,-15
30,38,9,-34,10,24,34,-58,-105,11,-3,-15
29,38,9,-34,10,24,35,-58,-105,11,-3,-15
29,38,9,-34,11,24,35,-57,-104,12,-3,-15
29,38,9,-34,11,24,37,-56,-104,13,-2,-15
29,38,8,-34,11,23,38,-56,-104,15,-1,-14
29,37,7,-34,11,23,39,-57,-104,16,-1,-14
29,38,8,-34,11,23,39,-57,-103,16,0,-14
29,38,9,-34,10,24,39,-56,-103,16,0,-14
30,38,8,-34,11,24,39,-55,-103,16,0,-14
32,38,6,-35,13,23,39,-54,-103,15,0,-15
33,38,4,-36,14,22,38,-53,-103,15,0,-16
34,38,4,-36,15,22,39,-54,-102,14,-1,-16
32,39,5,-36,13,23,39,-56,-101,14,-1,-17
30,39,7,-35,11,24,40,-58,-102,15,-1,-17
29,38,8,-34,11,23,40,-57,-102,15,-1,-17
28,37,8,-33,10,23,41,-54,-102,15,0,-16
27,37,10,-32,8,24,42,-52,-101,17,1,-15
26,37,11,-32,8,24,44,-51,-100,18,2,-13
26,37,11,-31,8,24,45,-51,-99,19,3,-12
26,36,10,-31,8,23,45,-51,-97,20,4,-11
25,36,10,-31,8,24,46,-50,-96,21,5,-11
25,36,11,-31,8,24,46,-48,-95,21,5,-11
26,37,10,-32,9,24,46,-47,-94,21,4,-11
29,37,7,-33,11,23,46,-47,-93,21,4,-12
31,38,6,-34,12,23,47,-47,-91,21,4,-12
29,38,9,-34,10,24,48,-46,-88,22,4,-11
28,38,11,-33,8,25,49,-45,-85,23,5,-10
27,38,10,-33,9,24,50,-44,-82,23,6,-10
27,37,10,-32,9,23,51,-42,-80,24,6,-9
26,36,9,-31,9,23,52,-40,-78,25,7,-9
29,36,7,-33,11,22,51,-39,-78,25,6,-9
32,36,4,-34,14,20,50,-38,-78,24,5,-10
33,36,4,-35,15,20,50,-38,-77,25,5,-9
33,37,5,-35,14,21,50,-40,-76,26,6,-8
33,37,5,-35,14,21,51,-41,-75,27,7,-8
33,36,4,-35,14,21,51,-38,-73,28,7,-7
32,37,5,-35,14,21,52,-32,-69,28,7,-7
33,38,6,-36,14,22,52,-31,-66,27,7,-7
34,38,4,-36,16,21,52,-35,-67,27,6,-8
35,38,3,-36,16,20,52,-37,-67,28,7,-7
33,38,5,-35,14,22,53,-36,-66,29,9,-5
31,38,7,-34,11,23,54,-33,-66,31,11,-4
30,37,7,-34,11,23,55,-32,-67,33,13,-2
30,36,7,-34,11,22,55,-34,-68,34,14,-2
30,37,7,-34,11,23,55,-36,-67,34,14,-1
29,38,8,-34,11,24,55,-34,-66,36,15,-1
28,37,9,-33,10,24,56,-28,-64,37,16,0
28,37,8,-33,11,23,56,-23,-62,37,17,1
29,36,7,-33,12,22,56,-23,-60,36,17,1
31,36,5,-33,13,21,55,-28,-58,35,17,1
31,35,3,-33,14,19,55,-31,-57,35,16,0
32,33,2,-33,14,18,55,-30,-58,35,16,0
32,32,1,-33,15,17,55,-27,-57,34,15,0
32,32,0,-33,16,17,55,-25,-56,32,15,-1
31,32,0,-32,16,17,55,-25,-55,32,15,-1
30,32,2,-31,15,17,56,-25,-56,32,15,0
31,32,1,-31,15,17,56,-25,-59,32,16,0
32,32,0,-31,16,16,56,-24,-61,31,16,0
31,32,1,-31,15,17,56,-24,-61,30,16,0
30,33,3,-31,13,18,56,-25,-60,29,16,1
28,34,6,-31,11,20,56,-25,-59,28,17,3
26,34,7,-31,9,21,57,-22,-58,27,18,4
26,34,8,-30,9,21,58,-21,-58,27,18,5
27,34,7,-30,10,20,58,-20,-57,26,17,5
27,34,7,-30,11,20,59,-19,-56,25,16,6
28,34,7,-30,11,21,59,-18,-54,24,16,6
28,35,7,-31,11,21,60,-16,-53,23,15,6
28,36,7,-32,11,22,62,-15,-52,22,15,6
29,38,8,-33,10,23,63,-15,-52,21,14,6
29,39,10,-34,9,25,65,-16,-52,20,14,7
27,39,12,-34,8,26,68,-17,-51,19,14,8
26,39,13,-33,7,26,70,-17,-50,18,14,8
27,39,12,-33,8,26,70,-16,-49,17,13,8
28,39,12,-33,8,26,68,-14,-46,15,12,7
28,39,12,-33,8,26,66,-13,-44,13,12,7
27,39,13,-32,7,26,64,-13,-43,12,12,8
25,39,14,-32,5,27,63,-16,-44,12,12,8
24,39,15,-31,4,27,61,-20,-45,11,12,8
24,39,14,-32,5,26,60,-23,-47,10,11,8
25,38,14,-32,5,26,59,-24,-50,9,11,8
25,38,14,-31,5,27,58,-21,-51,9,11,9
25,38,14,-31,5,27,58,-19,-51,8,12,9
25,37,13,-30,6,26,58,-18,-50,7,11,8
25,36,12,-30,6,25,58,-18,-48,6,11,8
25,36,11,-31,7,24,58,-18,-44,5,10,7
25,37,11,-31,7,24,58,-18,-40,4,10,7
24,36,13,-31,6,25,60,-15,-35,3,10,8
21,35,14,-29,4,25,62,-12,-30,4,12,9
20,35,14,-27,3,25,63,-10,-27,5,13,10
21,34,12,-27,5,23,63,-12,-27,4,14,11
22,33,10,-27,6,22,63,-15,-27,4,14,11
23,33,9,-27,7,21,63,-17,-26,4,13,11
24,32,8,-28,8,20,64,-17,-24,4,12,10
24,31,8,-27,8,19,65,-17,-21,4,12,10
22,30,8,-26,7,19,65,-16,-16,4,11,10
21,29,8,-25,7,18,66,-16,-11,3,11,11
21,28,7,-25,7,18,66,-18,-8,2,10,10
22,28,7,-25,7,18,66,-20,-5,2,9,10
22,28,6,-25,8,18,66,-21,-3,1,9,10
22,28,6,-24,8,17,67,-23,0,0,8,11
21,27,6,-24,8,17,68,-26,3,-1,8,11
22,27,5,-24,9,16,69,-31,3,-2,7,10
23,27,3,-25,10,15,69,-33,3,-3,7,10
23,27,4,-24,10,15,70,-31,4,-3,7,11
20,26,6,-23,7,16,72,-29,7,-3,7,12
19,26,7,-22,6,17,68,-27,10,-3,7,12
21,26,5,-23,8,16,43,-26,11,-4,7,11
23,26,3,-24,10,15,5,-27,10,-5,6,11
23,26,3,-24,10,15,-26,-29,10,-5,7,11
22,26,4,-24,9,15,-48,-29,12,-4,7,11
21,26,5,-23,8,15,-62,-28,15,-4,8,11
21,25,4,-23,9,14,-72,-25,19,-4,8,11
24,25,2,-24,11,13,-80,-22,22,-4,7,9
26,25,0,-26,13,13,-87,-23,24,-5,6,8
25,26,1,-25,13,13,-92,-29,26,-5,5,7
23,25,3,-24,10,14,-95,-33,28,-4,6,7
20,25,5,-22,8,15,-96,-33,29,-3,7,8
19,25,6,-22,6,15,-97,-29,30,-3,8,9
18,24,6,-22,6,15,-98,-26,32,-2,8,9
19,24,5,-22,7,14,-98,-24,33,-2,7,8
21,24,3,-22,9,14,-99,-24,34,-3,5,7
22,24,2,-23,10,14,-100,-25,36,-4,4,6
23,24,2,-23,10,13,-101,-27,38,-5,4,6
22,24,2,-23,10,13,-102,-28,39,-4,4,6
22,23,2,-23,10,13,-102,-27,40,-3,4,6
22,24,2,-23,10,13,-102,-24,41,-2,4,6
23,24,1,-23,11,13,-103,-22,42,-1,4,6
22,24,1,-23,11,12,-103,-23,43,0,4,7
21,23,1,-22,11,12,-102,-25,44,1,5,7
20,22,2,-21,10,12,-102,-26,46,2,5,7
20,22,2,-21,10,12,-101,-23,48,2,5,7
21,23,2,-22,9,13,-101,-20,49,3,5,6
21,23,2,-23,10,13,-101,-18,50,2,4,5
22,22,0,-23,11,12,-101,-17,53,1,3,4
24,22,-2,-23,13,10,-100,-17,55,1,3,5
23,22,-2,-23,12,10,-99,-18,57,1,2,5
22,22,0,-22,11,11,-98,-19,57,1,2,5
23,22,0,-23,12,11,-96,-21,55,0,1,5
25,22,-1,-24,14,10,-95,-20,53,0,1,4
25,22,-2,-24,14,10,-95,-15,55,1,0,5
24,22,-1,-23,13,10,-94,-13,57,1,0,5
22,21,-1,-22,12,10,-92,-14,57,2,1,6
21,21,0,-21,11,10,-90,-15,55,2,1,6
20,21,0,-20,10,10,-89,-13,54,1,1,6
20,21,1,-20,10,11,-88,-11,55,0,1,5
19,21,2,-20,9,12,-87,-11,57,0,1,5
19,21,4,-20,8,13,-87,-11,58,0,1,5
19,20,3,-20,8,12,-86,-10,60,0,1,5
19,19,2,-19,8,11,-86,-9,61,0,1,6
18,19,1,-19,8,10,-86,-7,62,0,1,6
17,20,2,-19,7,11,-84,-6,63,0,2,7
16,20,3,-18,6,11,-83,-6,65,1,2,7
15,19,3,-17,6,11,-82,-6,66,2,2,7
16,18,2,-17,7,11,-82,-7,67,2,2,7
17,18,0,-17,9,9,-82,-6,67,3,2,7
19,16,-2,-17,11,7,-82,-4,68,3,2,7
20,15,-4,-18,13,6,-82,-2,69,2,1,7
21,15,-5,-18,14,5,-82,0,71,1,0,7
22,15,-7,-19,14,4,-82,-2,73,1,0,6
22,15,-7,-19,14,4,-81,-7,75,1,0,6
22,15,-7,-19,14,4,-81,-8,77,2,0,6
22,15,-7,-19,15,4,-81,-5,78,4,0,7
23,15,-7,-19,15,5,-82,-2,79,5,0,7
23,16,-7,-19,15,5,-82,-1,82,6,0,8
22,16,-6,-19,14,6,-82,1,86,8,1,9
21,16,-4,-19,13,7,-81,5,89,9,2,10
20,17,-2,-19,11,8,-79,10,93,10,3,11
19,20,1,-20,9,11,-77,14,98,10,2,10
20,23,4,-22,8,14,-75,20,104,9,0,9
20,26,6,-24,8,16,-70,27,111,8,-2,8
22,30,8,-26,7,19,-64,35,119,8,-2,8
23,35,11,-29,7,23,-56,44,127,12,1,11
23,38,14,-30,5,27,-49,52,134,20,9,17
24,42,17,-32,3,30,-45,58,140,32,19,25
26,45,19,-36,4,33,-44,64,146,47,32,35
31,48,17,-40,7,33,-46,70,154,65,49,47
38,50,13,-44,13,32,-52,74,160,86,68,61
45,54,9,-50,19,31,-61,68,157,107,87,77
52,59,8,-55,22,34,-74,53,148,128,109,94
55,66,10,-60,22,39,-87,33,138,149,131,113
57,72,16,-64,20,45,-98,9,125,165,151,131
59,78,20,-68,19,50,-109,-18,106,172,162,142
59,81,22,-70,18,52,-115,-43,81,166,163,146
56,78,22,-67,17,51,-116,-62,57,151,154,140
52,70,19,-61,16,45,-112,-73,38,131,137,128
47,61,14,-55,17,38,-104,-76,25,106,116,112
43,53,10,-49,17,32,-96,-73,19,79,91,95
39,46,7,-43,16,27,-89,-67,17,53,66,75
35,40,5,-37,15,23,-83,-57,19,30,43,58
31,36,5,-33,13,21,-78,-44,27,15,27,46
26,33,6,-30,10,20,-74,-31,37,6,18,38
24,32,7,-28,9,19,-71,-23,47,1,13,34
25,31,6,-29,9,19,-70,-17,56,0,10,30
27,32,5,-30,11,19,-69,-11,64,2,8,28
26,33,8,-30,9,21,-67,-2,72,4,8,27
23,33,10,-28,6,22,-65,6,80,7,9,26
23,31,9,-27,7,20,-64,12,85,8,8,25
24,29,5,-26,10,17,-64,16,89,8,7,23
23,26,2,-24,10,14,-63,19,94,8,6,23
21,23,2,-22,9,13,-62,20,99,9,6,24
19,22,2,-21,8,12,-61,20,104,9,7,24
19,21,1,-20,9,11,-62,20,107,9,6,24
20,20,0,-20,11,10,-63,19,108,8,6,24
20,19,-1,-20,11,9,-63,20,108,8,6,23
19,18,0,-18,10,9,-63,20,106,8,6,23
18,17,-1,-17,10,8,-64,19,103,7,6,23
18,16,-2,-17,11,7,-65,17,101,6,5,23
19,15,-3,-17,12,6,-66,15,100,5,4,23
19,15,-4,-18,12,6,-67,14,98,4,3,23
19,15,-4,-18,12,6,-68,12,95,4,3,23
19,15,-3,-18,11,6,-68,13,92,3,3,23
21,16,-4,-18,13,6,-69,15,91,2,2,22
23,16,-7,-19,15,4,-70,16,92,1,1,20
24,15,-9,-19,16,3,-69,13,94,0,1,19
22,15,-8,-18,15,4,-68,12,98,0,1,20
20,15,-5,-17,12,5,-68,15,104,0,1,20
18,15,-3,-16,11,6,-68,18,108,0,2,21
19,15,-3,-17,11,6,-69,16,109,1,2,21
21,14,-5,-18,13,5,-70,13,107,1,2,21
22,14,-7,-18,14,4,-71,13,107,2,2,22
21,14,-6,-17,13,4,-72,13,110,3,2,22
19,15,-4,-17,11,6,-72,13,113,4,3,22
16,15,-1,-16,9,7,-72,15,115,6,4,23
15,15,0,-15,8,7,-73,18,116,7,4,24
17,15,-3,-17,10,6,-74,22,117,7,3,24
20,15,-6,-18,13,4,-76,24,118,7,2,23
20,14,-6,-18,13,4,-77,25,121,7,2,23
19,15,-4,-17,12,6,-78,25,125,7,2,23
20,16,-4,-17,12,6,-78,24,129,7,2,24
21,16,-4,-18,13,6,-79,23,130,7,2,24
20,15,-5,-17,13,5,-79,22,130,7,2,25
19,13,-6,-16,13,4,-79,22,130,8,4,26
18,14,-4,-16,11,6,-80,24,130,8,4,26
17,15,-1,-16,10,7,-81,26,130,8,5,27
17,15,-1,-16,10,7,-81,27,132,9,5,28
18,14,-3,-16,11,6,-81,28,134,9,5,28
18,14,-4,-16,11,5,-80,29,138,9,5,28
17,14,-3,-15,10,6,-79,29,142,9,5,28
16,14,-2,-15,9,6,-79,31,146,10,5,28
16,15,-1,-15,8,7,-78,35,148,10,5,28
17,16,-1,-17,8,8,-78,39,151,9,4,26
17,16,-1,-17,9,8,-76,38,156,7,3,26
17,15,-2,-16,9,7,-73,31,162,7,4,27
17,13,-4,-15,10,5,-70,24,165,8,4,28
18,13,-3,-15,10,5,-69,23,168,9,5,28
17,13,-3,-15,10,6,-67,27,171,10,6,29
18,14,-3,-16,11,6,-66,31,175,10,6,29
19,14,-5,-16,12,5,-65,33,179,10,7,29
18,14,-4,-16,11,5,-63,36,182,11,8,30
16,14,-2,-16,9,7,-61,39,187,13,9,31
15,14,-1,-15,8,7,-59,42,193,14,9,31
15,14,-1,-15,9,6,-58,46,202,15,9,30
16,14,-2,-15,9,6,-56,45,210,15,9,30
17,14,-2,-15,10,6,-55,41,215,15,9,30
17,14,-3,-15,11,5,-54,39,219,14,9,30
19,13,-6,-16,13,4,-53,41,223,13,9,30
21,13,-8,-16,15,2,-53,44,226,12,9,30
20,12,-8,-16,15,2,-52,46,229,12,9,31
20,12,-8,-16,14,2,-51,47,231,13,10,31
21,13,-9,-17,15,2,-52,49,233,12,11,31
22,13,-9,-17,16,2,-52,50,235,11,11,30
20,12,-7,-16,14,2,-52,52,236,11,13,31
18,12,-5,-15,12,3,-51,53,237,12,15,32
17,12,-5,-14,12,3,-52,54,239,12,16,32
17,12,-5,-14,12,3,-52,54,240,11,16,33
18,13,-5,-15,12,4,-52,55,244,11,17,33
18,13,-5,-15,12,4,-52,55,248,11,17,33
19,13,-5,-16,12,4,-53,55,251,12,18,33
19,13,-5,-16,12,4,-53,56,253,12,18,33
19,13,-6,-16,13,4,-54,56,256,11,19,33
20,13,-7,-16,14,3,-54,52,259,11,19,33
20,13,-7,-16,14,3,-54,46,263,11,19,33
20,13,-7,-16,14,3,-54,45,265,11,19,33
19,13,-6,-16,13,3,-54,48,266,11,20,34
17,14,-3,-16,11,5,-52,50,268,13,21,35
17,16,-1,-17,10,7,-50,50,269,14,21,36
18,17,-1,-18,10,7,-48,51,270,14,22,37
19,17,-1,-18,10,8,-45,53,270,14,22,38
20,19,0,-19,10,9,-42,55,271,14,22,38
19,20,1,-19,8,11,-39,55,272,13,22,38
18,21,3,-19,7,12,-36,55,273,13,22,38
19,20,1,-19,9,11,-35,56,274,11,22,38
20,20,0,-20,10,10,-34,58,275,10,21,37
19,20,1,-20,10,11,-33,57,275,9,20,37
18,22,3,-20,8,13,-33,52,276,7,19,37
18,22,4,-20,7,14,-33,49,278,6,19,37
18,22,4,-20,7,14,-34,51,278,5,18,37
20,22,2,-21,9,12,-34,53,276,3,16,36
23,22,-1,-22,12,11,-35,50,271,0,13,35
23,23,-1,-23,12,11,-36,43,267,-1,12,35
21,23,0,-22,11,12,-36,37,262,-3,11,35
19,22,2,-21,9,13,-35,35,256,-4,11,35
18,22,4,-20,7,13,-33,37,251,-5,11,35
17,21,4,-19,6,13,-31,40,247,-5,11,36
16,20,4,-18,6,12,-28,43,245,-4,11,36
15,19,4,-17,5,11,-26,45,244,-4,13,37
14,18,4,-16,5,11,-24,46,243,-3,14,38
14,18,3,-15,5,11,-22,47,242,-4,14,38
14,17,2,-15,6,10,-21,48,243,-5,14,38
15,16,0,-15,7,9,-19,50,244,-5,14,38
15,15,0,-15,8,8,-16,50,245,-6,13,38
15,15,0,-15,8,7,-14,49,244,-7,12,37
15,16,0,-15,8,7,-12,47,241,-9,11,36
15,16,1,-15,7,8,-10,46,239,-11,10,35
13,16,3,-14,5,9,-7,45,236,-11,10,36
13,15,1,-14,6,8,-6,45,232,-13,10,35
15,13,-2,-14,9,5,-6,43,226,-15,8,34
16,12,-4,-14,10,4,-4,39,222,-17,7,33
15,12,-3,-13,10,4,-2,35,218,-19,7,33
13,11,-2,-12,8,5,0,31,215,-21,6,33
11,11,-1,-11,6,5,3,28,213,-22,6,34
10,11,0,-11,5,5,5,30,210,-23,5,34
8,10,0,-10,4,5,7,31,207,-23,5,34
6,10,2,-9,2,6,10,27,204,-23,5,34
6,10,2,-8,2,6,11,24,201,-23,5,35
6,10,3,-8,1,7,11,26,199,-23,5,35
5,10,4,-8,1,7,12,30,197,-23,5,36
6,10,3,-8,2,7,13,35,195,-23,5,35
8,10,2,-9,3,7,13,34,193,-24,3,34
8,10,1,-9,3,6,14,31,192,-25,2,34
7,9,1,-8,3,6,15,29,191,-25,2,33
6,9,1,-8,2,5,15,28,191,-26,2,33
6,8,1,-7,2,5,15,28,191,-26,2,33
6,7,1,-7,2,4,16,27,188,-26,2,33
6,8,2,-7,2,5,16,27,183,-26,2,31
6,9,3,-7,1,6,17,29,178,-26,2,31
5,9,2,-7,1,6,19,32,175,-26,2,31
6,8,0,-7,3,5,20,30,172,-26,1,30
8,8,-1,-8,4,4,23,25,167,-27,0,28
8,7,-2,-7,5,3,27,22,163,-26,0,28
8,6,-3,-7,5,2,31,23,162,-26,0,26
9,6,-3,-7,6,2,37,27,162,-27,-1,25
9,6,-2,-7,6,2,45,30,163,-27,-1,24
8,7,-1,-7,5,3,53,31,163,-26,-2,24
8,7,0,-7,4,4,62,29,159,-26,-2,24
7,6,0,-7,4,4,72,25,155,-25,-1,25
6,5,0,-6,3,3,82,22,153,-24,0,25
5,5,0,-5,3,3,90,22,152,-22,0,25
5,5,0,-5,2,3,96,24,151,-21,1,25
5,5,0,-5,2,3,101,25,149,-22,0,25
6,4,-2,-5,4,2,105,26,147,-23,0,24
7,4,-3,-5,6,1,108,26,146,-24,-1,22
9,4,-4,-6,7,0,110,25,145,-25,-3,20
9,4,-4,-6,7,0,112,25,143,-25,-4,19
6,4,-2,-5,4,1,115,25,142,-24,-3,19
3,4,0,-4,1,2,119,26,141,-24,-3,20
3,5,1,-4,1,3,121,27,140,-23,-3,21
3,6,1,-5,1,4,122,26,139,-23,-3,21
3,5,2,-4,0,4,122,25,138,-21,-3,21
2,4,1,-3,0,3,123,23,138,-19,-2,22
2,4,1,-3,1,3,125,23,138,-17,-1,22
2,3,0,-3,1,2,126,24,137,-16,-1,21
2,3,0,-3,1,2,127,27,136,-16,-1,21
3,3,-1,-3,2,1,128,26,135,-17,-2,21
4,4,-1,-4,3,2,129,24,133,-17,-3,20
4,4,-1,-4,2,2,130,23,132,-17,-4,20
4,4,0,-3,2,2,130,22,131,-16,-3,21
3,3,0,-3,2,2,131,19,131,-15,-3,21
4,3,0,-3,2,2,131,20,131,-15,-3,20
5,3,-2,-4,4,1,131,24,132,-16,-3,20
6,2,-3,-4,4,0,131,24,134,-16,-3,19
5,2,-3,-3,4,0,131,21,135,-16,-3,19
5,2,-4,-3,4,0,131,23,136,-17,-4,18
5,1,-5,-3,5,-1,131,28,137,-17,-5,17
5,0,-5,-3,5,-1,131,30,139,-18,-6,16
3,0,-3,-1,3,-1,132,31,142,-18,-6,16
1,0,-2,0,2,-1,132,33,146,-19,-6,16
2,-1,-3,-1,3,-2,132,31,147,-20,-6,16
4,0,-5,-2,5,-2,131,24,143,-21,-6,15
4,0,-4,-2,4,-1,132,19,138,-22,-5,15
4,1,-3,-2,3,0,132,21,136,-22,-4,16
4,0,-5,-2,4,-2,132,24,137,-23,-3,17
5,-2,-8,-2,6,-4,132,27,139,-23,-2,17
6,-1,-9,-2,7,-5,132,28,140,-24,-1,17
6,0,-7,-3,6,-3,131,30,140,-25,-1,17
6,1,-6,-3,6,-2,132,32,141,-26,-1,17
6,0,-6,-3,6,-2,133,33,141,-26,-1,17
5,0,-5,-2,4,-2,135,33,142,-26,0,17
3,1,-3,-2,2,0,138,35,143,-26,0,18
3,2,-1,-2,1,1,140,36,145,-25,1,19
3,4,0,-4,1,2,142,35,146,-25,1,20
4,5,0,-5,1,3,144,35,147,-24,1,20
5,6,0,-6,2,3,144,37,148,-23,1,20
7,7,0,-7,3,4,144,37,149,-24,1,20
8,8,0,-8,3,5,143,37,150,-25,1,21
8,9,1,-8,3,6,141,36,153,-26,2,22
7,10,3,-8,1,8,138,36,155,-28,2,22
6,10,4,-8,1,7,132,36,155,-28,3,22
6,9,3,-8,1,7,123,35,152,-27,3,22
4,10,5,-8,0,8,115,35,149,-27,3,22
3,10,5,-7,-1,8,110,34,148,-27,3,22
3,10,5,-7,-1,8,106,30,149,-27,3,23
3,9,5,-6,-1,8,103,28,151,-27,4,23
4,9,5,-6,-1,8,100,29,154,-27,4,24
4,9,5,-6,-1,8,98,31,156,-27,4,24
4,9,5,-6,-1,8,98,34,158,-29,3,23
4,9,5,-7,-1,8,97,36,160,-29,3,22
3,10,6,-7,-2,9,96,40,163,-29,2,22
1,12,10,-8,-4,11,95,47,168,-27,2,22
1,15,12,-9,-6,14,93,55,173,-26,2,22
3,17,13,-10,-5,15,90,64,179,-23,4,22
5,18,12,-12,-4,16,87,74,185,-19,6,24
6,19,12,-13,-3,16,84,84,191,-12,11,28
8,20,11,-14,-2,16,79,93,196,-3,19,33
12,21,9,-16,1,16,72,101,202,9,31,41
17,23,5,-20,5,15,61,106,207,25,46,52
23,26,1,-25,11,14,47,105,210,43,63,65
30,29,-2,-29,16,14,31,96,206,62,82,80
36,34,-4,-35,20,15,16,81,197,80,102,95
41,41,-2,-41,21,20,3,61,187,98,123,112
44,47,1,-46,21,25,-7,34,172,110,140,126
46,52,5,-49,20,29,-16,1,150,113,151,137
45,55,8,-50,19,32,-21,-29,124,107,152,141
42,52,9,-47,17,30,-23,-50,100,94,145,137
38,44,6,-41,16,25,-20,-62,81,76,132,126
34,34,1,-34,17,18,-13,-66,68,54,113,111
28,26,-2,-27,15,12,0,-63,61,30,91,94
22,19,-3,-21,13,8,13,-57,60,7,68,76
18,14,-3,-16,11,6,24,-49,63,-15,46,59
16,10,-5,-13,11,3,32,-42,65,-33,28,45
16,8,-8,-12,12,0,39,-33,67,-44,16,35
17,7,-10,-12,14,-1,44,-22,73,-50,8,28
16,7,-9,-12,13,0,47,-15,80,-52,5,25
11,8,-2,-10,7,3,51,-14,87,-50,6,24
5,9,4,-7,0,7,55,-13,94,-46,7,25
3,9,7,-6,-2,8,59,-7,101,-43,8,25
3,9,6,-6,-1,8,62,4,107,-41,8,24
4,9,5,-7,0,8,64,13,111,-40,8,23
6,8,2,-7,2,6,67,19,115,-40,7,21
6,7,1,-6,3,5,69,22,120,-40,6,21
5,7,0,-6,3,4,71,23,124,-39,6,21
5,6,0,-6,3,3,72,24,126,-38,7,21
6,4,-1,-6,4,2,73,22,127,-38,7,21
5,4,-1,-5,3,1,74,21,126,-37,7,20
3,3,0,-4,1,2,75,23,126,-36,7,20
2,2,0,-3,1,2,76,26,125,-36,7,20
2,2,-1,-2,2,1,76,28,124,-36,6,20
3,2,-2,-3,3,0,77,27,123,-36,6,19
3,1,-3,-2,3,0,77,25,123,-36,6,19
3,0,-3,-1,3,0,77,24,123,-35,6,19
4,0,-4,-2,4,-1,76,25,122,-36,5,19
6,0,-7,-3,6,-3,74,25,122,-37,4,17
7,0,-7,-4,7,-3,73,24,121,-37,3,17
5,0,-5,-3,5,-2,73,22,121,-37,4,18
2,-1,-3,-1,3,-2,74,21,122,-36,5,19
2,-1,-4,0,3,-2,74,22,122,-36,6,19
3,-1,-5,0,4,-3,72,21,120,-36,6,19
4,0,-5,-1,5,-2,70,21,118,-36,6,19
3,0,-4,-2,4,-1,67,21,118,-35,5,19
3,0,-3,-1,3,-1,66,18,120,-34,5,19
1,-1,-3,0,2,-1,65,17,122,-33,5,20
0,-2,-1,1,0,-1,65,20,125,-33,5,20
0,-2,-1,1,0,-1,65,24,127,-33,5,19
1,-1,-2,0,1,-1,64,26,128,-33,5,18
3,-1,-3,0,3,-2,63,27,128,-34,4,17
3,-1,-4,0,4,-2,62,25,128,-35,4,17
2,-1,-3,0,3,-1,61,23,127,-36,3,17
1,0,-1,0,1,0,61,21,124,-35,3,17
1,1,0,-1,1,1,60,20,120,-35,2,16
4,1,-3,-3,3,0,59,21,117,-36,1,14
7,0,-6,-4,7,-2,58,21,115,-37,0,12
8,0,-8,-4,8,-4,58,21,115,-38,-1,11
8,-1,-9,-3,9,-5,59,22,115,-38,-1,12
7,-1,-9,-2,9,-5,60,23,114,-37,0,13
6,-1,-8,-2,7,-5,60,21,114,-37,0,13
5,-2,-7,-1,6,-4,59,20,114,-36,0,13
5,-2,-8,-1,7,-5,59,18,114,-36,0,13
6,-3,-9,-1,7,-5,59,19,113,-35,0,12
5,-3,-9,-1,7,-6,59,21,112,-35,0,13
5,-3,-9,0,7,-6,59,23,111,-35,0,13
5,-3,-9,0,7,-6,59,25,109,-35,0,13
3,-3,-8,0,6,-6,61,26,109,-33,1,14
1,-4,-6,1,4,-5,62,24,108,-32,2,15
1,-3,-5,1,3,-4,62,21,105,-32,2,16
1,-2,-4,0,2,-3,61,21,99,-33,2,16
3,-2,-4,-1,3,-2,61,24,96,-32,3,17
5,-2,-6,-1,4,-3,61,26,95,-31,3,17
6,-1,-7,-2,6,-4,60,27,93,-30,3,17
8,-1,-8,-3,7,-4,60,29,92,-29,3,17
9,0,-9,-4,9,-4,61,32,93,-28,3,17
8,0,-8,-4,8,-4,61,31,94,-28,4,18
8,1,-7,-5,8,-3,61,28,96,-27,4,18
10,3,-7,-7,9,-2,61,25,96,-26,4,18
12,4,-7,-9,10,-1,62,25,96,-25,4,19
12,6,-6,-10,10,0,62,29,97,-23,6,20
11,7,-4,-9,8,2,64,35,99,-20,8,23
8,7,-1,-7,5,4,67,38,102,-18,12,25
6,8,1,-6,2,5,69,41,104,-16,14,27
5,8,3,-6,2,5,71,43,104,-14,15,28
6,8,2,-7,2,5,72,42,105,-13,15,28
7,9,1,-8,3,5,73,41,106,-12,16,28
8,9,1,-9,3,6,73,42,107,-11,16,28
8,10,2,-9,3,7,73,43,107,-10,17,28
8,11,4,-9,2,8,71,42,107,-10,17,29
8,13,5,-10,2,9,68,40,107,-9,17,29
8,14,5,-11,2,9,65,39,106,-9,17,29
9,15,5,-12,2,10,64,40,106,-9,17,29
10,15,5,-13,2,10,62,40,105,-9,17,29
10,15,4,-13,3,10,59,40,104,-10,17,29
11,14,3,-13,4,9,58,40,101,-11,17,29
11,13,1,-13,5,8,57,40,98,-10,17,29
13,13,0,-13,6,7,55,40,97,-10,17,29
13,11,-2,-12,8,5,54,39,98,-10,17,29
13,10,-2,-11,8,4,52,39,99,-9,18,30
12,11,0,-11,7,5,49,39,97,-7,19,31
13,12,0,-12,7,5,46,41,93,-5,21,31
14,12,-1,-13,8,5,44,44,90,-4,22,32
14,13,-1,-13,8,6,42,46,89,-4,22,32
12,13,0,-13,6,7,40,47,89,-6,21,31
11,12,0,-12,6,6,40,46,89,-7,20,31
11,11,0,-11,6,5,40,45,89,-8,20,31
11,11,0,-11,6,5,39,44,88,-9,19,31
12,10,-2,-11,8,3,39,44,85,-9,19,31
14,8,-6,-10,10,0,38,44,82,-9,18,31
14,7,-8,-10,11,-1,38,43,80,-10,17,30
14,6,-8,-10,11,-1,37,41,77,-12,16,30
13,6,-8,-10,10,-1,36,38,74,-13,15,29
11,6,-6,-9,8,0,37,36,72,-14,15,29
9,6,-3,-8,6,1,37,37,70,-15,14,28
8,6,-2,-8,5,2,37,38,68,-17,12,27
10,6,-3,-8,7,1,37,35,66,-20,10,26
11,6,-4,-8,8,0,37,31,62,-22,8,24
10,6,-4,-8,8,0,36,29,58,-24,7,23
9,6,-3,-8,7,1,36,30,55,-25,7,23
8,6,-2,-7,5,2,36,30,52,-26,7,23
6,4,-1,-6,4,1,37,30,51,-25,8,23
6,4,-2,-5,4,1,37,29,50,-25,8,24
5,3,-2,-5,4,0,38,28,48,-24,9,23
5,3,-2,-4,3,0,38,29,48,-23,9,23
4,3,-1,-3,3,1,39,30,47,-22,9,23
4,3,-1,-3,2,1,38,30,45,-23,8,22
5,3,-1,-3,3,0,38,29,43,-25,6,20
5,3,-2,-4,4,0,37,29,41,-27,4,19
5,4,-1,-4,3,1,38,32,40,-27,3,18
5,5,0,-5,2,2,38,36,39,-28,2,17
5,4,-1,-4,3,1,38,36,39,-29,1,16
5,2,-3,-4,4,0,38,30,38,-29,1,15
4,1,-3,-3,3,-1,38,23,38,-29,1,15
1,0,-2,0,1,-1,40,23,37,-29,2,16
0,-2,-3,1,1,-3,40,27,35,-28,2,16
3,-2,-7,0,5,-5,38,29,30,-30,1,14
8,-1,-9,-3,8,-5,36,31,26,-31,0,12
9,-1,-9,-4,8,-5,36,32,25,-32,-1,12
9,-1,-8,-4,8,-4,35,31,23,-32,-1,12
8,0,-8,-4,8,-4,34,31,22,-33,-1,11
7,0,-6,-3,7,-3,34,32,21,-34,-2,10
5,0,-5,-3,5,-2,35,31,21,-33,-2,10
3,0,-4,-1,3,-2,35,26,18,-32,-2,10
1,-2,-3,0,2,-3,36,23,14,-31,-1,11
-1,-4,-2,2,0,-3,37,24,11,-31,0,12
-2,-4,-2,3,0,-3,37,26,11,-30,0,12
0,-4,-4,2,2,-3,37,26,11,-31,0,12
1,-4,-5,1,3,-4,37,26,11,-31,0,11
3,-4,-6,0,4,-4,36,26,10,-32,-4,10
4,-3,-7,0,5,-4,36,26,9,-32,3,9
4,-2,-6,0,4,-4,35,26,10,-32,65,9
3,-2,-5,0,4,-3,35,27,12,-32,155,9
3,-2,-5,0,4,-3,34,28,13,-33,206,8
3,-3,-6,0,4,-4,34,27,13,-34,186,7
3,-3,-6,0,4,-4,34,22,11,-35,122,7
4,-3,-7,0,5,-5,34,19,10,-35,69,7
5,-4,-10,0,7,-6,34,20,10,-35,40,7
6,-5,-12,0,8,-8,34,22,10,-35,22,6
5,-5,-11,0,8,-8,34,22,10,-35,11,6
3,-5,-8,1,5,-7,34,20,10,-34,5,6
0,-5,-5,2,3,-5,34,19,10,-32,2,6
-2,-6,-4,3,1,-5,34,20,9,-32,0,6
-2,-6,-4,3,2,-5,33,20,8,-32,0,6
0,-6,-6,3,3,-5,32,20,6,-32,-1,5
1,-6,-7,2,4,-6,31,20,5,-32,-2,5
2,-6,-8,2,5,-7,31,21,4,-33,-3,3
3,-7,-9,2,6,-7,30,23,3,-33,-4,2
2,-7,-9,3,5,-7,30,25,2,-34,-5,1
0,-7,-7,3,3,-7,30,25,2,-34,-6,1
-1,-7,-6,4,2,-6,31,23,2,-34,-6,1
0,-9,-8,4,4,-8,31,17,0,-35,-6,1
1,-10,-12,4,6,-11,31,14,-3,-35,-6,1
2,-10,-12,4,7,-11,30,16,-6,-34,-6,1
0,-9,-10,5,5,-9,29,20,-8,-33,-6,1
-1,-9,-8,5,3,-8,29,22,-9,-32,-5,1
-1,-8,-7,5,3,-8,28,23,-9,-31,-5,1
0,-8,-7,4,3,-8,27,23,-10,-31,-4,1
0,-8,-7,3,4,-8,26,21,-11,-32,-4,0
0,-8,-7,3,4,-8,26,21,-11,-32,-4,0
0,-8,-7,3,4,-7,26,22,-11,-31,-4,-1
0,-7,-7,4,4,-7,26,25,-10,-30,-3,-1
0,-7,-7,4,4,-6,27,26,-9,-28,-2,0
1,-6,-7,3,4,-6,29,26,-8,-27,-1,0
1,-5,-7,2,4,-5,32,24,-7,-26,-1,0
1,-5,-6,2,3,-5,34,24,-5,-26,-1,0
2,-3,-5,0,3,-4,35,26,-4,-27,-2,-1
3,-1,-4,-1,4,-3,35,25,-3,-27,-3,-3
4,0,-4,-2,4,-2,36,22,-3,-26,-3,-3
4,1,-3,-3,4,-1,36,18,-6,-27,-4,-4
4,3,-1,-4,3,1,35,15,-10,-28,-4,-4
3,5,1,-4,1,3,33,16,-14,-27,-4,-4
1,5,3,-3,-1,5,30,18,-15,-25,-2,-3
0,5,5,-2,-2,5,27,19,-13,-23,-1,-2
0,6,5,-3,-2,5,23,18,-13,-22,-2,-3
0,6,6,-3,-3,5,22,17,-13,-22,-2,-4
-1,5,6,-2,-3,5,21,16,-12,-22,-1,-3
-1,5,6,-2,-3,5,20,14,-12,-22,-1,-3
0,5,5,-2,-2,5,20,11,-12,-21,-1,-4
0,4,4,-2,-1,5,20,9,-13,-21,-1,-4
0,3,3,-1,-1,4,21,9,-12,-19,-1,-5
0,2,2,-1,0,3,21,8,-12,-18,-2,-5
1,1,0,-1,1,1,21,6,-12,-17,-2,-6
2,1,-1,-1,2,0,21,5,-11,-16,-2,-7
3,1,-2,-2,3,0,22,6,-9,-15,-2,-7
3,1,-3,-2,3,0,22,7,-7,-13,-1,-7
3,0,-3,-1,3,-1,24,7,-6,-11,0,-6
1,-1,-2,0,2,-1,25,7,-7,-10,1,-6
0,-1,-1,0,1,-1,25,6,-8,-9,2,-6
0,-1,-1,0,1,-1,25,5,-10,-8,2,-6
0,-1,-1,0,1,-1,25,5,-12,-8,1,-6
0,-1,-2,0,1,-1,24,4,-14,-9,0,-7
1,0,-2,0,1,-1,23,1,-15,-10,-1,-8
1,0,-3,0,1,-2,23,-1,-17,-11,-2,-10
2,-1,-4,0,2,-2,22,-2,-19,-12,-4,-12
2,-2,-5,0,2,-3,22,-3,-19,-13,-5,-13
2,-2,-6,0,3,-4,23,-7,-20,-15,-6,-14
2,-3,-6,0,4,-4,23,-12,-20,-16,-7,-14
0,-4,-5,2,2,-4,23,-13,-20,-15,-7,-14
-1,-4,-3,3,1,-4,23,-12,-20,-15,-7,-14
-2,-5,-3,4,0,-4,23,-10,-21,-15,-7,-15
-2,-5,-3,4,0,-4,23,-10,-21,-15,-8,-15
-2,-5,-3,3,0,-4,24,-13,-21,-14,-7,-15
-2,-5,-2,3,0,-3,24,-14,-20,-13,-7,-15
-2,-4,-2,3,0,-3,24,-15,-19,-14,-7,-15
-1,-4,-3,2,1,-3,23,-15,-21,-15,-8,-16
0,-3,-3,1,2,-3,23,-16,-24,-16,-9,-17
1,-2,-4,1,2,-3,22,-16,-25,-17,-10,-18
1,-3,-5,1,3,-4,22,-16,-25,-16,-10,-18
1,-4,-5,1,3,-5,22,-16,-23,-16,-10,-17
1,-5,-6,2,3,-6,22,-16,-22,-16,-10,-17
2,-5,-7,1,4,-6,21,-16,-22,-16,-11,-18
3,-5,-8,1,5,-6,21,-17,-24,-15,-11,-18
3,-5,-8,1,6,-7,21,-17,-24,-15,-11,-19
3,-5,-8,1,6,-7,21,-19,-24,-15,-12,-19
3,-5,-9,1,6,-7,20,-23,-24,-16,-12,-20
4,-7,-12,2,7,-9,20,-25,-24,-15,-12,-20
4,-9,-12,3,7,-10,19,-24,-26,-14,-11,-20
2,-7,-9,2,5,-8,18,-24,-29,-14,-11,-20
1,-5,-6,2,3,-5,18,-23,-31,-13,-11,-21
0,-4,-3,2,1,-4,18,-22,-32,-12,-11,-20
-1,-5,-3,3,1,-4,19,-23,-33,-12,-10,-20
-1,-6,-5,3,2,-6,20,-25,-33,-12,-11,-20
0,-7,-6,3,3,-7,20,-25,-33,-12,-11,-21
0,-6,-6,2,3,-7,20,-24,-33,-12,-12,-22
1,-6,-7,1,4,-6,20,-23,-33,-12,-12,-23
1,-5,-6,1,3,-5,20,-22,-33,-12,-12,-23
0,-5,-5,1,2,-4,20,-20,-33,-13,-12,-23
0,-4,-4,1,2,-3,20,-19,-33,-13,-13,-24
1,-2,-2,0,1,-1,20,-20,-30,-12,-13,-24
1,0,-1,-1,1,0,20,-21,-26,-11,-13,-25
2,1,0,-1,1,0,21,-19,-24,-10,-13,-26
2,3,1,-3,0,2,21,-13,-20,-9,-14,-27
2,5,3,-4,0,4,21,-1,-15,-8,-14,-29
2,6,3,-4,0,5,21,8,-8,-6,-14,-29
4,6,2,-5,0,5,21,12,-2,-4,-13,-29
6,8,1,-7,2,6,20,14,2,0,-10,-27
9,10,0,-9,4,6,18,20,7,8,-5,-24
10,11,0,-11,5,6,15,29,11,19,4,-18
12,13,0,-13,6,7,11,37,16,34,17,-9
15,17,1,-16,7,9,4,42,21,52,34,3
19,20,0,-20,9,10,-5,39,20,71,53,17
25,25,-1,-25,12,11,-15,23,12,88,73,32
29,31,1,-30,14,16,-24,-1,0,105,93,49
32,37,5,-35,13,21,-32,-27,-15,120,112,66
34,43,9,-38,12,26,-39,-53,-39,127,124,79
32,48,15,-40,9,32,-43,-80,-68,122,126,85
29,50,20,-40,5,35,-45,-105,-97,110,121,85
27,47,20,-38,4,34,-45,-123,-119,98,113,79
26,41,15,-33,5,28,-43,-133,-134,82,100,69
23,33,10,-27,5,22,-39,-135,-142,63,81,53
18,24,7,-21,5,16,-32,-131,-144,42,59,36
13,17,5,-15,4,11,-26,-123,-142,20,37,18
9,12,3,-10,4,8,-21,-114,-137,1,16,2
7,7,0,-7,4,4,-18,-104,-129,-13,0,-10
6,3,-3,-5,6,0,-15,-93,-119,-22,-11,-21
6,1,-5,-4,6,-1,-13,-83,-109,-26,-19,-28
4,0,-3,-2,3,-1,-12,-76,-99,-27,-22,-33
3,0,-3,-2,2,-1,-11,-72,-92,-26,-22,-35
4,0,-4,-2,4,-2,-11,-70,-88,-25,-23,-37
4,0,-4,-2,4,-2,-10,-68,-84,-23,-23,-38
4,-1,-5,-2,5,-3,-9,-65,-80,-20,-23,-39
6,-2,-7,-2,7,-4,-7,-60,-74,-17,-23,-40
7,-3,-10,-2,9,-6,-6,-55,-69,-14,-22,-41
7,-3,-10,-2,9,-6,-4,-50,-65,-11,-21,-40
6,-2,-9,-2,7,-6,-2,-45,-61,-7,-20,-40
6,-2,-8,-2,6,-5,-1,-43,-58,-6,-19,-40
6,-2,-8,-2,6,-5,0,-42,-57,-5,-19,-40
7,-3,-9,-2,8,-6,1,-42,-55,-4,-19,-41
8,-3,-10,-3,9,-6,2,-41,-52,-3,-20,-42
7,-3,-9,-3,9,-6,4,-39,-50,-2,-20,-43
6,-3,-9,-2,8,-5,5,-37,-48,-1,-20,-43
5,-3,-8,-1,7,-5,6,-36,-47,0,-20,-43
4,-3,-7,0,5,-5,7,-36,-46,2,-18,-42
2,-2,-4,0,2,-3,6,-36,-46,3,-17,-42
3,-1,-3,-1,2,-2,3,-35,-45,4,-17,-42
4,0,-3,-1,3,-2,0,-34,-43,5,-17,-42
4,0,-3,-1,3,-2,-2,-33,-40,5,-17,-42
3,0,-2,-1,3,-1,-5,-33,-39,5,-16,-41
3,1,-1,-2,3,0,-7,-35,-39,5,-17,-42
4,1,-2,-3,4,0,-9,-37,-41,5,-18,-44
5,1,-3,-3,4,-1,-10,-38,-43,5,-18,-45
5,1,-4,-3,4,-1,-12,-38,-43,6,-18,-45
5,0,-4,-2,4,-2,-13,-38,-43,5,-18,-46
5,0,-5,-2,4,-3,-14,-38,-43,5,-19,-46
6,0,-7,-2,6,-4,-14,-37,-42,4,-19,-46
7,0,-8,-3,7,-4,-15,-37,-40,4,-20,-47
8,-1,-8,-3,8,-5,-15,-37,-38,4,-20,-47
8,-2,-9,-3,9,-6,-14,-38,-37,6,-19,-47
8,-2,-10,-3,9,-7,-13,-37,-36,7,-18,-46
10,-2,-11,-3,10,-7,-14,-35,-37,8,-18,-46
10,-2,-12,-4,10,-7,-14,-32,-38,9,-17,-46
8,-2,-10,-3,9,-6,-14,-31,-37,11,-16,-45
7,-2,-8,-2,7,-5,-14,-30,-36,11,-16,-45
6,-2,-8,-2,7,-5,-13,-28,-35,11,-16,-45
7,-3,-10,-2,9,-6,-13,-26,-35,11,-16,-45
10,-3,-13,-3,12,-8,-14,-27,-35,10,-17,-46
10,-3,-13,-3,12,-7,-13,-31,-36,10,-17,-46
9,-3,-12,-3,10,-7,-13,-33,-38,10,-17,-46
9,-3,-12,-3,10,-7,-13,-33,-39,10,-17,-46
7,-3,-10,-3,8,-6,-13,-33,-40,10,-17,-46
5,-2,-8,-2,6,-5,-13,-34,-39,10,-17,-46
5,-2,-8,-1,6,-5,-13,-32,-37,9,-18,-46
6,-3,-9,-1,8,-6,-13,-30,-35,9,-19,-47
7,-3,-10,-2,10,-7,-13,-33,-35,8,-20,-48
8,-3,-11,-2,10,-7,-13,-40,-39,8,-20,-48
8,-3,-11,-2,10,-7,-14,-45,-42,9,-19,-48
8,-2,-11,-2,9,-6,-14,-46,-43,9,-19,-48
7,-2,-10,-2,8,-5,-15,-43,-41,10,-17,-47
5,-2,-8,-1,6,-4,-15,-39,-39,12,-15,-46
5,-1,-7,-2,6,-4,-15,-37,-39,13,-14,-45
6,0,-7,-3,7,-4,-16,-35,-41,14,-12,-44
6,0,-7,-2,7,-3,-17,-35,-45,16,-11,-43
6,0,-6,-2,7,-3,-16,-36,-46,18,-10,-43
7,0,-7,-2,7,-3,-17,-34,-46,18,-10,-43
8,0,-7,-3,7,-3,-18,-32,-45,19,-10,-43
8,0,-8,-3,8,-4,-19,-32,-43,19,-10,-44
8,0,-9,-4,8,-4,-20,-34,-40,19,-10,-43
8,0,-8,-3,8,-4,-20,-35,-38,20,-9,-43
7,-1,-8,-3,8,-4,-21,-35,-38,20,-8,-42
7,-1,-8,-2,8,-4,-21,-33,-38,21,-7,-42
8,-1,-9,-3,9,-5,-22,-31,-37,22,-6,-42
9,0,-9,-4,10,-5,-22,-32,-35,22,-6,-42
9,0,-9,-4,10,-4,-23,-33,-34,24,-6,-41
8,0,-9,-3,8,-4,-24,-32,-35,27,-5,-40
9,0,-10,-4,9,-5,-25,-32,-40,28,-5,-40
12,0,-13,-6,12,-6,-27,-34,-46,28,-5,-41
13,1,-13,-7,13,-6,-29,-36,-50,30,-4,-40
11,1,-10,-6,11,-4,-29,-35,-51,33,-2,-39
10,0,-9,-5,9,-4,-29,-34,-51,35,-1,-37
10,0,-10,-4,10,-4,-29,-34,-51,37,0,-37
10,-1,-11,-4,10,-5,-30,-35,-51,37,-1,-37
9,-1,-11,-4,10,-6,-31,-35,-52,38,-1,-37
9,0,-10,-5,9,-5,-32,-34,-56,38,-1,-37
10,0,-10,-5,9,-5,-32,-33,-60,39,0,-37
10,1,-9,-6,10,-4,-33,-34,-62,39,0,-37
10,1,-9,-6,10,-4,-34,-35,-64,39,0,-37
10,1,-9,-5,10,-4,-35,-36,-65,39,0,-36
10,0,-9,-5,10,-4,-34,-35,-65,40,1,-35
10,0,-10,-4,10,-4,-34,-32,-63,40,1,-35
11,0,-11,-4,10,-5,-35,-31,-60,39,0,-35
11,0,-11,-5,11,-5,-35,-35,-61,38,-1,-36
11,0,-11,-5,11,-5,-36,-41,-65,37,-2,-37
12,0,-11,-6,11,-5,-36,-43,-68,36,-3,-38
12,0,-11,-6,12,-5,-36,-44,-69,35,-3,-39
11,0,-11,-6,12,-5,-36,-43,-69,35,-3,-39
10,0,-10,-5,11,-5,-35,-41,-69,36,-2,-38
8,0,-9,-4,9,-5,-34,-38,-70,36,-2,-37
8,0,-9,-4,9,-5,-34,-35,-71,35,-2,-37
9,0,-10,-4,9,-5,-34,-36,-73,34,-4,-38
9,-1,-10,-4,9,-6,-34,-39,-75,33,-5,-39
9,-2,-12,-3,11,-8,-34,-43,-77,31,-5,-39
10,-4,-14,-3,12,-9,-34,-43,-79,29,-6,-39
9,-5,-14,-2,11,-10,-33,-41,-80,29,-6,-39
7,-5,-13,-1,10,-9,-33,-39,-82,28,-6,-40
8,-6,-14,-1,11,-10,-32,-38,-82,27,-8,-40
9,-6,-15,-1,12,-10,-32,-40,-83,26,-9,-41
9,-6,-15,-1,12,-10,-31,-43,-85,25,-9,-41
9,-7,-16,0,13,-11,-30,-43,-87,24,-10,-42
9,-9,-18,0,14,-13,-28,-41,-90,23,-10,-42
8,-9,-18,0,13,-13,-27,-41,-92,23,-11,-43
6,-8,-15,0,10,-11,-25,-42,-94,22,-12,-43
6,-9,-15,0,11,-12,-24,-45,-94,21,-13,-44
8,-9,-17,0,13,-13,-24,-48,-95,19,-14,-44
10,-8,-18,-1,14,-13,-24,-48,-95,17,-16,-45
12,-8,-20,-1,16,-13,-25,-45,-95,15,-17,-46
12,-8,-20,-1,16,-14,-24,-42,-94,14,-18,-47
10,-8,-18,0,14,-13,-23,-42,-94,14,-18,-46
7,-7,-15,0,11,-11,-21,-44,-94,13,-17,-46
4,-7,-12,1,8,-9,-19,-45,-94,13,-17,-45
3,-6,-10,1,7,-8,-17,-43,-95,14,-17,-44
3,-6,-9,1,6,-7,-14,-40,-96,15,-17,-44
3,-5,-8,1,5,-6,-11,-39,-96,14,-17,-44
2,-4,-6,1,4,-5,-8,-39,-94,14,-17,-43
2,-2,-5,0,4,-4,-5,-41,-92,14,-16,-42
2,-1,-3,0,3,-3,-3,-42,-91,14,-16,-41
1,-1,-2,0,2,-2,-2,-43,-91,14,-16,-41
1,0,-2,-1,2,-1,-3,-44,-91,13,-16,-41
2,1,-1,-2,2,0,-5,-44,-91,12,-17,-41
3,1,-1,-2,2,0,-8,-44,-91,13,-16,-40
3,2,-1,-2,2,0,-11,-45,-92,13,-16,-40
4,3,-2,-3,3,0,-14,-46,-93,13,-17,-40
4,3,-2,-2,3,0,-17,-46,-94,12,-18,-40
2,2,-1,-1,2,0,-18,-46,-94,11,-18,-40
2,0,-3,0,2,-1,-19,-47,-93,10,-18,-41
5,0,-6,-2,5,-2,-20,-49,-92,8,-20,-42
6,0,-7,-3,6,-3,-20,-50,-91,6,-21,-42
6,-1,-7,-2,6,-4,-20,-49,-90,6,-22,-42
7,-1,-8,-2,7,-5,-21,-49,-90,5,-22,-42
7,-1,-9,-2,8,-5,-21,-52,-89,4,-23,-42
8,-1,-9,-2,8,-6,-21,-55,-89,4,-23,-42
8,-1,-10,-2,9,-6,-21,-54,-91,4,-22,-42
7,-2,-9,-2,8,-5,-20,-49,-91,5,-21,-41
5,-3,-9,-1,7,-5,-19,-44,-87,7,-19,-39
4,-3,-8,-1,7,-5,-19,-42,-83,8,-17,-37
4,-3,-8,0,6,-5,-18,-42,-81,9,-16,-36
4,-3,-7,0,6,-5,-18,-42,-80,10,-15,-35
3,-3,-7,0,6,-5,-17,-41,-80,10,-14,-35
3,-3,-6,1,5,-5,-16,-39,-80,10,-14,-34
3,-3,-6,0,5,-5,-16,-37,-80,8,-15,-35
4,-3,-7,0,5,-5,-16,-38,-81,6,-16,-36
4,-3,-8,0,6,-6,-16,-42,-82,5,-15,-36
3,-4,-8,1,6,-6,-16,-45,-82,5,-15,-35
2,-5,-9,2,5,-7,-15,-45,-81,5,-15,-35
2,-6,-10,2,6,-8,-15,-45,-81,4,-16,-35
2,-6,-10,2,6,-8,-15,-48,-80,2,-17,-35
1,-6,-9,3,5,-7,-14,-50,-79,1,-17,-35
-1,-6,-6,4,2,-6,-13,-49,-79,1,-16,-34
-1,-7,-6,4,2,-6,-13,-49,-81,1,-16,-34
0,-7,-6,4,3,-7,-13,-49,-84,0,-16,-34
0,-7,-7,3,4,-7,-13,-49,-84,0,-16,-34
1,-7,-7,3,5,-7,-13,-47,-84,0,-16,-34
1,-7,-8,3,5,-7,-13,-46,-84,-1,-16,-34
1,-7,-8,3,5,-7,-13,-46,-84,-2,-17,-34
0,-7,-7,4,4,-7,-13,-45,-83,-3,-17,-34
0,-7,-7,4,4,-7,-13,-44,-83,-3,-18,-34
0,-8,-8,4,4,-8,-13,-46,-83,-4,-18,-34
1,-8,-9,3,4,-8,-13,-46,-84,-5,-19,-34
0,-7,-8,3,4,-8,-12,-44,-84,-5,-18,-34
0,-7,-7,3,4,-7,-11,-44,-85,-5,-18,-34
1,-6,-7,3,4,-7,-11,-49,-85,-5,-18,-33
2,-6,-8,2,5,-6,-11,-52,-85,-6,-19,-33
2,-6,-8,2,5,-6,-11,-51,-84,-6,-19,-33
3,-6,-10,2,6,-7,-11,-47,-84,-6,-19,-33
3,-7,-10,2,7,-8,-12,-45,-84,-7,-19,-33
2,-6,-9,2,6,-7,-12,-46,-83,-8,-20,-33
2,-6,-9,2,6,-7,-11,-48,-83,-8,-20,-33
2,-7,-9,2,6,-7,-11,-49,-83,-8,-19,-32
2,-7,-9,3,6,-7,-11,-49,-83,-9,-19,-31
1,-7,-8,3,5,-7,-11,-47,-82,-9,-18,-30
0,-8,-7,4,3,-7,-10,-45,-81,-7,-17,-29
-1,-8,-7,5,3,-7,-10,-45,-82,-6,-16,-28
-1,-8,-7,5,3,-7,-10,-45,-84,-5,-15,-27
0,-8,-8,4,4,-8,-10,-44,-85,-5,-15,-27
1,-7,-10,3,6,-8,-11,-44,-84,-6,-16,-28
3,-7,-11,2,7,-8,-11,-44,-82,-7,-16,-28
3,-6,-10,2,7,-8,-11,-44,-81,-8,-17,-28
3,-7,-10,2,6,-8,-12,-43,-82,-9,-17,-28
3,-7,-11,2,7,-8,-12,-44,-82,-10,-18,-29
4,-7,-11,1,7,-9,-13,-48,-82,-10,-18,-29
1,-6,-8,2,5,-7,-13,-49,-79,-9,-18,-28
-2,-6,-5,4,2,-5,-12,-47,-77,-8,-16,-26
-3,-6,-5,5,1,-5,-11,-45,-76,-7,-15,-24
-2,-7,-6,5,2,-6,-11,-42,-78,-7,-15,-24
-1,-6,-6,4,2,-5,-11,-39,-80,-7,-15,-23
-1,-6,-6,4,3,-5,-11,-38,-80,-7,-15,-23
0,-6,-6,3,3,-6,-11,-40,-79,-7,-16,-23
0,-6,-7,3,4,-6,-11,-42,-79,-7,-16,-24
1,-6,-8,3,5,-7,-12,-42,-80,-7,-16,-24
1,-6,-9,3,5,-7,-12,-40,-80,-8,-16,-24
1,-7,-10,3,5,-8,-13,-38,-80,-8,-16,-24
2,-8,-11,3,6,-10,-13,-38,-80,-9,-16,-24
3,-9,-12,3,7,-10,-14,-39,-79,-9,-17,-24
3,-9,-12,2,8,-11,-14,-39,-78,-9,-17,-24
3,-9,-11,3,7,-10,-14,-39,-77,-9,-17,-23
0,-9,-9,4,4,-9,-13,-37,-75,-9,-16,-22
-3,-9,-6,6,2,-7,-12,-36,-73,-8,-15,-21
-4,-10,-6,7,1,-7,-12,-35,-73,-8,-15,-20
-3,-11,-8,7,2,-9,-12,-34,-72,-8,-15,-20
-2,-11,-9,6,4,-9,-12,-33,-70,-8,-15,-21
-1,-11,-10,6,4,-10,-12,-33,-68,-9,-16,-21
-1,-11,-11,6,5,-11,-12,-32,-68,-9,-16,-21
0,-12,-12,6,6,-12,-13,-32,-67,-10,-16,-21
-1,-12,-12,6,6,-12,-13,-32,-68,-11,-16,-21
-2,-13,-12,7,6,-12,-13,-32,-70,-10,-16,-21
-2,-13,-11,8,5,-12,-13,-32,-72,-10,-15,-20
-3,-13,-11,8,4,-12,-13,-32,-72,-9,-15,-19
-4,-13,-10,9,3,-12,-13,-32,-71,-9,-15,-19
-4,-13,-10,9,3,-12,-13,-32,-70,-10,-16,-19
-2,-13,-11,8,4,-12,-14,-31,-70,-11,-16,-20
-1,-13,-12,7,6,-12,-15,-31,-69,-11,-17,-20
0,-13,-13,6,7,-13,-16,-30,-67,-11,-17,-20
2,-12,-15,5,8,-13,-16,-29,-65,-10,-17,-20
3,-12,-15,4,9,-13,-16,-28,-63,-10,-17,-19
2,-11,-13,4,8,-12,-15,-26,-61,-8,-16,-18
0,-9,-10,4,6,-10,-14,-25,-59,-7,-15,-17
0,-8,-8,4,4,-8,-12,-24,-57,-6,-14,-17
-1,-7,-7,3,3,-7,-11,-23,-56,-5,-13,-16
-1,-6,-5,3,2,-5,-8,-21,-55,-4,-13,-15
-1,-6,-4,3,2,-4,-6,-20,-54,-4,-12,-15
-2,-5,-3,3,1,-4,-4,-21,-52,-3,-12,-14
-1,-4,-2,2,1,-3,-3,-22,-52,-4,-13,-14
0,-3,-2,1,1,-2,-2,-22,-52,-4,-13,-14
0,-1,-1,0,1,-1,-2,-21,-52,-4,-12,-13
-1,0,1,0,0,0,-3,-20,-51,-3,-11,-12
-1,0,2,0,-1,1,-5,-19,-50,-2,-10,-11
0,0,0,0,0,0,-8,-19,-50,-3,-10,-11
1,0,-1,-1,1,0,-10,-18,-49,-3,-10,-11
0,0,0,0,0,0,-12,-18,-48,-3,-10,-10
0,0,0,0,0,1,-14,-17,-48,-4,-10,-10
0,0,0,0,1,0,-16,-17,-49,-4,-11,-10
1,0,-1,0,2,-1,-17,-17,-50,-5,-12,-11
1,0,-2,0,2,-1,-16,-17,-51,-5,-12,-11
1,-1,-2,0,2,-2,-15,-18,-51,-5,-13,-11
1,-1,-3,0,2,-2,-15,-21,-51,-5,-13,-11
2,-1,-3,0,3,-2,-14,-23,-50,-5,-13,-11
1,-1,-3,-1,2,-2,-13,-20,-48,-5,-13,-11
1,-1,-3,-1,2,-2,-11,-12,-46,-3,-12,-9
2,-2,-4,-1,3,-3,-10,-9,-45,-2,-11,-8
2,-2,-4,-1,3,-3,-9,-12,-44,-2,-11,-8
1,-2,-3,0,2,-3,-8,-12,-43,-1,-10,-7
0,-2,-2,1,1,-3,-6,-9,-42,0,-9,-6
0,-2,-2,1,1,-3,-4,-7,-42,0,-8,-6
0,-2,-2,1,1,-2,-1,-8,-42,0,-7,-5
0,-2,-2,1,1,-2,0,-7,-43,0,-7,-5
-2,-2,-1,2,0,-2,2,-6,-42,0,-7,-5
-3,-3,-1,3,-1,-2,2,-5,-42,0,-7,-5
-3,-4,-1,3,0,-3,1,-6,-43,-1,-8,-5
-2,-5,-3,4,1,-4,1,-8,-44,-2,-9,-6
-2,-7,-5,5,2,-6,2,-9,-45,-2,-8,-6
-2,-7,-5,5,2,-6,3,-10,-44,-3,-8,-6
-3,-7,-4,5,1,-5,3,-11,-44,-3,-9,-6
-3,-5,-2,5,0,-3,2,-12,-44,-4,-9,-7
-3,-5,-1,5,-1,-2,2,-12,-45,-4,-9,-7
-3,-5,-1,4,-1,-2,2,-12,-44,-5,-10,-7
-3,-4,-2,4,0,-2,2,-12,-42,-6,-10,-8
-3,-4,-2,4,0,-3,2,-12,-41,-6,-11,-8
-3,-4,-3,4,0,-3,3,-13,-42,-5,-11,-7
-2,-5,-4,4,1,-4,3,-13,-42,-5,-11,-7
-2,-6,-5,4,1,-5,3,-14,-41,-6,-11,-7
-2,-7,-6,5,2,-6,3,-15,-40,-6,-11,-7
-1,-8,-7,5,3,-7,3,-14,-41,-6,-11,-8
0,-8,-7,4,4,-7,3,-14,-43,-5,-11,-8
1,-8,-8,4,4,-7,3,-15,-43,-5,-10,-8
1,-7,-8,3,5,-7,3,-15,-42,-5,-10,-8
1,-7,-8,3,5,-7,3,-13,-41,-4,-10,-7
0,-7,-6,4,4,-6,4,-12,-39,-3,-9,-7
-2,-6,-5,4,2,-5,4,-11,-37,-3,-8,-7
-1,-6,-5,4,2,-5,3,-11,-38,-3,-9,-8
-1,-7,-6,4,3,-6,3,-10,-39,-4,-9,-8
-1,-7,-5,4,3,-6,3,-13,-39,-4,-9,-8
-2,-7,-5,4,2,-6,4,-15,-38,-4,-9,-7
-4,-7,-3,5,0,-5,4,-13,-37,-4,-9,-7
-6,-7,-1,6,-2,-4,5,-12,-35,-3,-9,-7
-5,-6,-1,5,-2,-4,5,-11,-34,-3,-9,-7
-4,-6,-2,5,0,-4,6,-10,-34,-3,-9,-7
-3,-7,-3,5,0,-5,8,-10,-33,-3,-9,-7
-3,-6,-3,5,0,-4,9,-10,-32,-2,-9,-6
-2,-6,-3,5,1,-4,10,-10,-31,-1,-9,-6
-1,-6,-5,4,2,-6,11,-9,-31,-2,-9,-6
-1,-7,-7,4,3,-7,11,-9,-32,-3,-9,-6
-2,-7,-5,5,2,-6,12,-9,-32,-3,-9,-6
-4,-7,-4,5,0,-5,13,-9,-31,-2,-9,-6
-4,-7,-4,5,0,-5,14,-8,-31,-1,-9,-5
-4,-7,-4,5,0,-5,14,-8,-30,-1,-9,-5
-3,-7,-4,5,1,-5,14,-7,-30,-2,-9,-5
-2,-6,-5,5,1,-5,14,-5,-29,-2,-9,-5
0,-6,-6,4,3,-6,15,-1,-28,-3,-10,-6
1,-6,-8,3,5,-7,15,1,-27,-3,-12,-7
3,-5,-9,1,6,-7,15,-2,-26,-4,-13,-8
3,-5,-9,1,6,-7,15,-7,-24,-6,-14,-9
2,-5,-7,1,5,-6,16,-8,-20,-6,-14,-9
-1,-6,-4,3,2,-5,18,-3,-16,-4,-14,-8
-3,-6,-2,4,0,-4,20,4,-13,-2,-13,-8
-5,-4,1,5,-2,-2,22,10,-8,0,-13,-8
-6,-1,4,4,-4,1,24,18,-1,1,-13,-8
-5,1,6,3,-5,3,25,27,4,3,-13,-8
-5,3,7,1,-5,5,25,37,10,5,-12,-8
-4,4,8,0,-5,6,24,45,17,9,-10,-6
-3,6,9,-2,-5,7,22,52,23,15,-6,-3
0,8,8,-4,-4,8,19,58,28,23,0,1
4,9,4,-7,0,7,15,62,34,36,11,8
10,11,2,-11,4,7,9,66,41,53,26,20
15,16,1,-15,7,9,2,66,45,73,45,35
21,21,1,-20,10,11,-6,59,44,93,65,52
25,26,0,-25,13,13,-15,44,41,113,86,69
29,30,1,-30,14,16,-23,23,36,133,106,86
32,37,4,-35,14,21,-31,-1,23,148,124,102
32,44,12,-39,10,28,-37,-27,0,154,136,114
30,51,21,-41,5,36,-42,-55,-29,150,140,121
27,53,26,-40,1,39,-44,-78,-55,141,136,121
25,48,24,-36,0,36,-41,-91,-73,128,128,115
23,39,17,-31,3,29,-36,-94,-84,110,113,104
20,29,9,-24,5,20,-29,-91,-90,88,93,88
17,20,2,-18,7,12,-22,-86,-94,64,69,69
14,13,-1,-13,7,6,-15,-76,-93,40,44,50
11,8,-3,-9,7,2,-9,-61,-87,19,22,32
8,4,-4,-6,6,0,-3,-47,-77,4,6,20
6,1,-4,-4,6,-1,2,-35,-65,-5,-2,12
5,1,-3,-3,6,-1,7,-27,-57,-9,-6,8
4,3,-1,-3,4,1,12,-19,-51,-9,-8,6
2,4,2,-3,1,3,16,-11,-44,-8,-8,4
0,5,5,-2,-1,5,20,-5,-38,-6,-8,3
0,4,4,-2,-1,4,22,-1,-34,-5,-9,1
0,4,4,-2,-2,4,25,1,-30,-4,-9,0
-1,3,5,-1,-3,4,27,5,-25,-2,-9,0
-2,3,5,0,-3,4,27,8,-19,0,-8,0
-1,4,5,-1,-3,5,27,11,-15,1,-8,0
0,4,5,-1,-2,5,26,15,-12,2,-7,0
0,4,5,-1,-2,4,26,17,-10,2,-7,0
-2,3,6,0,-3,4,25,19,-9,2,-7,0
-3,2,6,0,-4,4,23,20,-8,2,-7,0
-3,1,5,0,-4,3,22,22,-7,2,-7,0
-2,1,4,0,-3,3,21,24,-6,2,-7,-1
-1,0,3,0,-2,2,20,24,-5,1,-8,-2
-1,0,1,0,0,0,20,23,-4,1,-9,-3
0,-1,0,0,0,-1,20,22,-3,1,-10,-4
1,-1,-2,0,2,-2,20,26,0,0,-11,-5
2,-2,-3,0,3,-3,20,28,2,-1,-11,-6
2,-2,-4,1,3,-3,19,25,3,-1,-11,-6
1,-3,-4,1,3,-3,19,22,2,0,-10,-5
1,-3,-4,1,2,-3,20,24,2,2,-9,-5
0,-4,-4,1,2,-3,21,28,3,4,-7,-4
0,-4,-4,2,2,-4,21,33,3,6,-6,-3
0,-5,-4,2,2,-5,21,37,4,7,-5,-3
-1,-6,-5,3,1,-5,21,42,7,8,-4,-2
-2,-7,-5,4,1,-5,21,42,9,8,-3,-1
-3,-7,-4,5,0,-5,20,40,9,8,-2,-1
-4,-6,-2,5,-1,-3,20,40,9,8,-2,-1
-4,-5,-1,5,-2,-2,20,41,9,8,-2,-1
-3,-5,-1,4,-1,-2,19,40,8,7,-2,-1
-2,-4,-2,3,0,-3,18,38,8,6,-3,-2
-2,-4,-3,3,1,-3,18,38,8,5,-4,-3
-2,-5,-3,3,1,-4,18,39,9,5,-3,-2
-2,-6,-4,4,1,-5,19,39,11,4,-3,-2
-2,-6,-4,4,1,-5,18,38,12,3,-4,-2
-1,-6,-5,3,2,-5,17,36,12,2,-4,-3
0,-6,-6,3,2,-6,17,35,10,2,-4,-3
0,-6,-6,3,3,-6,16,34,10,1,-4,-4
0,-7,-6,3,3,-6,16,32,11,1,-5,-4
-1,-7,-6,3,2,-6,16,31,11,1,-5,-5
-1,-7,-5,4,1,-6,17,30,9,2,-4,-5
-2,-7,-4,4,0,-5,17,30,9,3,-4,-4
-3,-7,-3,5,-1,-5,17,32,10,4,-3,-3
-4,-7,-2,6,-2,-4,17,34,12,5,-2,-2
-4,-6,-1,5,-2,-4,16,35,13,5,-2,-2
-4,-6,-2,5,-1,-4,16,35,14,5,-2,-2
-3,-6,-2,5,-1,-4,16,33,14,5,-2,-2
-2,-6,-3,4,0,-4,16,32,14,5,-2,-2
-2,-5,-3,4,0,-4,16,31,14,5,-2,-2
-1,-5,-2,3,0,-3,17,33,14,5,-1,-1
-1,-4,-2,3,0,-3,16,35,13,5,-1,-1
-1,-4,-2,3,0,-3,15,35,13,5,0,0
-2,-5,-2,4,0,-4,14,34,17,5,0,0
-3,-7,-3,5,0,-5,12,34,21,5,-1,0
-3,-8,-4,5,0,-6,11,35,27,6,-1,0
-2,-7,-4,4,0,-6,11,39,33,8,0,2
0,-5,-5,3,1,-5,11,42,37,9,0,3
1,-5,-6,2,3,-5,10,40,39,8,0,3
2,-4,-7,1,4,-5,10,38,38,8,0,3
2,-3,-6,0,4,-4,10,39,37,8,0,3
1,-2,-3,0,3,-3,9,43,35,10,1,4
1,-3,-3,0,3,-3,9,44,34,11,2,6
2,-4,-5,0,4,-4,9,41,33,12,3,7
3,-4,-6,0,5,-5,9,41,33,13,4,8
3,-3,-6,0,4,-4,8,43,32,14,5,9
0,-2,-3,1,2,-2,7,46,32,14,6,10
-1,-3,-1,2,0,-1,7,46,33,16,7,11
-1,-3,-1,3,0,-2,7,44,32,17,8,12
-1,-3,-1,3,0,-2,6,44,30,18,9,13
-1,-3,-1,3,0,-2,6,46,29,20,11,15
-1,-3,-1,2,0,-2,6,47,29,22,12,17
-1,-2,0,2,0,-2,6,48,30,23,13,18
0,-1,-1,1,1,-1,6,49,30,24,13,18
0,-1,-2,1,2,-2,6,51,30,24,14,18
1,-2,-3,1,2,-2,6,53,30,23,15,18
1,-1,-2,0,2,-2,5,55,30,20,15,16
1,0,-1,0,2,-1,5,58,30,18,15,15
2,0,-1,0,2,-1,5,59,30,16,16,14
3,-1,-3,-1,3,-2,5,59,31,15,16,14
3,-1,-4,-1,4,-3,5,58,32,12,16,13
3,-2,-4,-1,4,-3,5,57,33,9,15,12
3,-2,-5,-1,4,-3,5,56,31,8,15,11
2,-2,-5,0,4,-3,5,55,27,7,15,10
1,-2,-3,0,2,-3,6,57,24,6,16,11
0,-2,-2,1,1,-3,7,59,23,5,16,11
0,-3,-3,1,2,-3,7,61,23,3,16,11
0,-3,-4,1,3,-4,7,62,22,2,16,11
1,-3,-5,1,3,-4,8,62,21,1,16,11
1,-3,-5,1,3,-4,8,62,19,0,16,11
2,-4,-6,1,3,-4,8,62,18,-1,15,11
1,-5,-6,2,3,-5,9,62,18,-3,15,10
-1,-5,-5,3,1,-5,11,62,19,-3,15,10
-2,-6,-5,3,1,-5,12,62,20,-4,14,10
1,-6,-8,2,4,-7,11,60,18,-7,11,8
5,-4,-10,0,7,-8,10,60,15,-10,9,6
6,-4,-10,0,8,-7,9,61,13,-13,8,5
5,-4,-10,0,8,-7,9,62,11,-15,8,5
5,-5,-10,1,8,-8,9,62,10,-17,8,5
4,-6,-10,1,7,-8,8,62,9,-19,8,5
4,-6,-10,1,7,-8,7,63,7,-20,7,4
4,-6,-10,1,7,-8,7,65,6,-21,6,3
4,-6,-11,1,8,-8,7,64,6,-22,5,3
4,-5,-10,1,7,-8,8,61,7,-23,4,3
1,-5,-7,2,4,-6,9,59,7,-23,4,4
-1,-4,-3,3,1,-4,12,61,4,-23,5,5
-2,-3,-1,2,0,-3,13,65,1,-24,5,4
-2,-2,0,1,-1,-1,15,66,1,-25,5,4
-2,-1,0,1,-1,0,17,66,1,-25,5,3
-1,-1,-1,1,0,-1,18,66,1,-25,5,3
0,-1,-1,1,0,-1,20,68,1,-25,4,3
-1,0,0,1,0,0,22,71,1,-26,4,3
-3,0,2,1,-2,1,24,73,2,-26,4,4
-4,0,4,2,-3,1,24,75,2,-27,3,4
-4,0,5,2,-3,1,22,72,1,-28,3,4
-4,0,5,2,-4,2,20,68,0,-30,2,3
-5,1,7,1,-5,3,18,66,-2,-30,1,3
-6,2,9,1,-7,5,17,64,-4,-31,1,4
-6,2,8,1,-7,5,15,65,-5,-31,0,5
-5,1,6,1,-5,4,13,66,-6,-32,0,6
-4,1,5,1,-4,3,12,66,-6,-32,-1,6
-4,1,5,1,-4,3,11,65,-6,-33,-2,5
-5,0,4,1,-4,2,10,64,-6,-34,-2,5
-6,-1,4,2,-4,1,10,62,-6,-35,-2,7
-6,-2,3,3,-4,0,11,62,-4,-35,-2,10
-6,-4,2,4,-4,-1,11,63,-1,-34,-1,13
-5,-4,0,5,-3,-2,12,65,1,-34,-1,15
-4,-4,0,4,-2,-2,12,66,3,-34,-2,16
-4,-4,0,4,-2,-2,12,67,4,-33,-2,17
-4,-3,-1,4,-1,-2,13,67,6,-33,-2,18
-3,-3,-1,3,0,-2,14,67,7,-33,-2,19
-3,-3,-1,3,0,-2,14,67,7,-34,-3,19
-3,-4,-1,3,0,-2,15,68,5,-34,-3,19
-3,-4,-1,3,0,-2,15,68,2,-34,-3,19
-3,-4,-2,3,0,-3,15,67,0,-35,-4,18
-2,-5,-3,3,0,-4,15,63,0,-35,-5,17
-2,-5,-3,3,0,-4,15,60,-1,-36,-5,17
-2,-5,-4,3,0,-5,16,60,-1,-37,-6,17
-3,-5,-3,4,0,-5,16,62,-2,-37,-6,17
-4,-5,-2,4,-1,-4,17,61,-2,-37,-7,17
-5,-5,0,5,-2,-3,17,57,-3,-37,-8,17
-7,-6,1,6,-4,-3,18,54,-5,-37,-7,18
-8,-6,2,6,-5,-2,19,53,-7,-37,-7,19
-8,-6,2,6,-5,-2,20,54,-9,-37,-7,19
-7,-6,1,6,-4,-2,20,54,-9,-37,-7,19
-7,-6,1,6,-4,-2,20,54,-8,-37,-7,19
-7,-6,0,7,-4,-2,20,55,-8,-37,-7,19
-7,-7,0,7,-3,-3,21,56,-9,-37,-7,19
-6,-7,0,6,-3,-3,21,55,-9,-37,-7,19
-6,-6,0,6,-3,-3,21,54,-8,-38,-8,19
-7,-6,1,6,-4,-2,21,53,-7,-38,-8,19
-8,-6,2,7,-4,-2,22,52,-7,-37,-7,19
-8,-6,2,7,-5,-2,22,50,-9,-36,-7,19
-9,-6,2,7,-5,-2,21,50,-12,-36,-7,19
-9,-7,2,8,-5,-2,22,51,-12,-35,-7,20
-9,-7,2,8,-5,-2,22,50,-13,-35,-7,20
-9,-7,2,7,-5,-2,22,47,-13,-35,-7,21
-8,-7,1,7,-5,-3,22,47,-13,-35,-7,21
-8,-7,1,8,-5,-3,23,50,-13,-35,-7,20
-8,-8,0,8,-4,-4,23,52,-14,-36,-7,19
-7,-8,-1,7,-3,-4,22,54,-15,-37,-9,18
-5,-8,-3,6,-1,-5,21,55,-15,-39,-11,17
-3,-8,-4,6,0,-6,21,55,-14,-40,-12,16
-2,-8,-5,5,0,-6,21,53,-13,-41,-13,16
-2,-8,-4,5,0,-6,22,49,-14,-41,-12,16
-4,-8,-3,6,-1,-5,22,48,-16,-40,-11,17
-7,-8,0,7,-3,-5,23,49,-18,-39,-9,19
-11,-8,3,9,-7,-3,24,50,-20,-36,-7,20
-15,-7,8,10,-11,0,24,51,-21,-34,-5,22
-15,-7,9,10,-12,0,24,52,-23,-33,-5,22
-13,-7,6,10,-10,0,23,52,-24,-34,-6,21
-12,-7,4,10,-8,-1,23,52,-23,-34,-6,21
-11,-8,3,10,-8,-1,25,53,-22,-33,-5,22
-10,-8,1,10,-6,-3,24,53,-22,-32,-5,22
-8,-8,-1,8,-3,-4,23,54,-21,-34,-6,20
-6,-8,-2,7,-1,-5,22,55,-19,-36,-8,19
-6,-8,-3,7,-1,-6,21,55,-17,-37,-9,18
-5,-8,-3,7,0,-6,21,53,-18,-38,-10,17
-5,-8,-3,6,0,-6,20,48,-21,-38,-10,16
-6,-8,-3,7,-1,-5,21,45,-25,-38,-10,17
-8,-8,-1,8,-3,-4,22,46,-27,-37,-9,18
-10,-8,1,10,-5,-3,23,50,-27,-35,-7,20
-13,-8,4,11,-9,-2,23,54,-26,-34,-5,21
-15,-8,7,11,-11,0,24,55,-26,-34,-5,21
-15,-8,6,11,-10,-1,24,55,-27,-34,-4,21
-13,-9,3,11,-8,-3,24,55,-28,-34,-5,20
-13,-11,1,12,-7,-5,24,56,-29,-34,-5,21
-14,-11,2,13,-8,-4,24,55,-30,-34,-5,21
-13,-11,1,12,-7,-4,23,54,-32,-36,-6,20
-13,-11,1,12,-7,-5,23,53,-33,-37,-6,19
-13,-12,2,13,-8,-5,22,51,-34,-37,-7,18
-13,-12,1,13,-7,-5,22,49,-35,-38,-8,18
-11,-12,0,12,-6,-6,22,49,-35,-38,-8,17
-11,-11,0,11,-5,-6,23,51,-34,-37,-8,18
-11,-12,0,12,-5,-7,23,52,-33,-37,-8,18
-12,-13,-1,13,-5,-7,23,53,-33,-37,-7,18
-12,-13,-1,13,-6,-7,24,53,-36,-37,-7,18
-12,-13,-1,13,-6,-7,25,54,-37,-37,-7,18
-12,-13,-1,13,-5,-7,26,55,-37,-37,-7,18
-11,-13,-2,12,-5,-8,26,56,-35,-37,-7,17
-11,-13,-2,12,-4,-8,26,56,-33,-37,-6,17
-11,-13,-2,12,-4,-8,27,56,-32,-35,-5,18
-12,-13,-1,12,-5,-7,28,58,-30,-33,-4,19
-12,-11,1,12,-7,-5,29,60,-28,-32,-3,19
-12,-9,3,11,-7,-3,31,63,-25,-31,-3,19
-13,-7,5,10,-8,0,32,67,-21,-31,-5,18
-12,-4,7,9,-9,2,34,75,-15,-32,-7,17
-11,-1,9,7,-10,4,35,83,-9,-32,-7,17
-10,1,11,5,-11,6,36,88,-3,-29,-5,18
-9,4,14,2,-12,9,38,93,2,-23,0,22
-8,8,15,0,-12,12,39,101,8,-14,6,27
-5,11,16,-3,-11,13,39,109,14,-3,16,34
-1,14,15,-6,-8,14,37,115,20,11,29,43
3,17,13,-10,-5,15,34,120,27,29,44,55
8,20,11,-14,-2,16,28,124,31,46,61,68
14,23,9,-18,2,16,19,119,28,63,79,82
21,28,7,-24,6,17,8,104,20,82,99,98
26,35,9,-30,8,21,-4,78,6,100,119,115
29,42,13,-36,8,27,-17,48,-14,111,135,129
29,48,18,-39,6,33,-27,21,-40,114,143,138
27,49,21,-38,3,35,-33,-2,-65,106,141,140
22,45,21,-33,1,33,-34,-20,-86,92,130,133
17,36,18,-26,0,27,-31,-28,-101,72,113,121
11,27,15,-18,-1,21,-25,-29,-111,48,92,105
4,19,15,-11,-5,17,-18,-24,-114,23,69,88
-4,13,18,-4,-11,15,-11,-14,-112,0,47,72
-9,10,18,0,-13,14,-6,-4,-106,-19,27,57
-9,7,15,1,-11,11,-3,4,-100,-33,12,45
-8,5,12,2,-9,8,0,8,-93,-40,4,37
-8,3,10,3,-9,7,1,13,-83,-41,0,33
-8,2,10,3,-9,6,3,21,-74,-40,-2,30
-8,1,10,3,-9,5,4,32,-65,-37,-1,29
-9,0,10,4,-10,5,7,41,-56,-34,0,29
-11,0,10,6,-11,4,10,48,-47,-31,1,29
-11,0,10,6,-10,4,12,52,-40,-29,2,29
-10,0,8,5,-9,3,14,56,-36,-28,2,28
-10,-1,7,5,-9,3,15,59,-33,-27,2,28
-10,-1,7,6,-9,2,17,64,-31,-26,2,28
-11,-3,7,7,-10,2,19,67,-28,-25,2,27
-11,-4,6,8,-9,1,21,66,-26,-24,2,27
-10,-5,5,8,-8,0,21,64,-25,-24,1,27
-9,-6,4,8,-7,-1,21,64,-22,-24,1,27
-10,-6,4,9,-7,-1,22,65,-19,-23,1,27
-12,-6,5,9,-8,-1,23,64,-18,-23,1,27
-12,-6,6,10,-9,0,23,63,-20,-23,0,26
-12,-6,5,9,-8,0,23,62,-22,-25,0,25
-11,-6,4,9,-7,-1,24,62,-23,-25,-1,25
-10,-6,3,9,-7,-1,25,59,-21,-25,0,26
-11,-6,4,9,-7,-1,26,58,-20,-24,0,26
-11,-6,6,9,-8,0,26,59,-19,-23,0,26
-11,-5,7,9,-9,0,27,57,-20,-24,0,25
-11,-5,6,8,-8,0,27,50,-22,-25,-1,25
-10,-6,3,9,-7,-2,27,48,-24,-25,-1,25
-10,-7,2,9,-6,-3,27,53,-24,-24,0,25
-10,-7,2,8,-6,-2,28,58,-23,-23,0,26
-9,-5,2,7,-6,-1,28,59,-23,-22,1,26
-7,-3,3,6,-5,0,28,59,-23,-21,1,26
-6,-2,3,5,-4,0,28,59,-23,-21,1,26
-5,-1,3,4,-4,0,28,60,-23,-20,1,26
-5,-1,3,3,-4,0,28,60,-24,-20,2,27
-4,0,3,2,-3,0,27,58,-25,-19,2,27
-2,0,1,1,-2,0,26,54,-27,-19,2,27
-1,0,0,0,0,0,26,52,-28,-18,3,28
-1,0,0,0,0,0,27,53,-27,-18,3,28
0,2,2,-1,-1,2,27,56,-27,-18,3,28
1,4,3,-2,-1,3,26,57,-26,-17,2,28
1,4,3,-2,-1,3,27,58,-24,-16,1,28
0,4,4,-2,-2,4,27,58,-22,-15,1,28
0,5,5,-2,-2,4,27,58,-21,-15,1,28
0,5,5,-2,-2,4,27,58,-21,-14,1,28
-1,5,6,-2,-3,5,27,58,-20,-14,2,28
-2,5,7,-1,-4,6,27,58,-22,-14,2,28
-1,5,6,-1,-4,6,27,58,-24,-13,3,28
0,5,5,-2,-3,5,27,59,-25,-13,3,28
0,5,5,-2,-2,5,26,58,-24,-12,3,28
0,6,5,-3,-2,6,26,58,-23,-12,3,28
1,7,6,-4,-2,6,26,58,-23,-11,3,28
1,8,7,-4,-2,7,26,57,-24,-11,3,28
0,8,8,-5,-3,8,26,54,-24,-11,3,28
1,9,7,-5,-3,8,25,53,-25,-10,3,28
2,9,7,-5,-2,8,25,56,-25,-9,4,29
0,10,9,-5,-4,9,26,61,-24,-8,5,30
0,11,11,-5,-5,10,27,64,-21,-7,6,31
0,12,11,-6,-5,11,27,61,-19,-6,6,31
2,12,9,-7,-3,11,26,56,-17,-7,5,30
4,13,8,-8,-1,11,26,54,-17,-8,3,28
5,14,8,-9,-1,11,26,56,-17,-7,3,28
3,14,10,-9,-3,12,27,57,-17,-5,5,29
1,15,13,-8,-5,13,28,57,-16,-4,6,30
1,16,14,-8,-6,14,28,58,-15,-3,7,31
3,15,12,-8,-4,13,28,59,-13,-2,7,31
4,14,10,-8,-3,12,28,60,-12,-2,7,31
5,14,10,-9,-2,12,28,61,-10,-2,7,31
4,14,10,-9,-3,12,29,63,-8,-2,7,31
3,14,10,-8,-4,12,30,64,-7,0,8,31
3,12,9,-8,-4,11,30,63,-6,1,9,32
3,11,7,-7,-2,9,29,61,-6,2,9,33
4,10,5,-7,-1,7,29,62,-7,2,10,33
5,10,4,-7,0,7,29,63,-8,3,11,33
6,10,4,-7,1,7,28,63,-8,4,12,34
7,10,4,-7,1,7,28,65,-9,5,13,34
7,11,3,-8,1,7,28,65,-8,6,13,34
7,11,3,-8,1,7,28,64,-7,7,13,34
6,10,4,-8,1,7,28,66,-4,8,13,34
6,10,4,-8,1,6,28,69,0,8,13,34
7,10,3,-8,1,6,29,70,1,8,14,35
7,10,1,-8,2,5,29,68,1,8,14,35
8,9,0,-8,3,4,29,67,-1,8,14,35
10,9,-1,-9,5,3,29,66,-2,8,14,35
13,9,-4,-10,8,2,28,65,-4,7,13,34
14,9,-5,-11,10,2,27,66,-4,7,13,34
14,10,-4,-12,9,3,27,66,-4,7,13,35
11,11,0,-11,5,5,28,67,-2,8,14,37
7,13,6,-10,0,9,30,69,0,9,16,39
5,14,8,-10,-1,11,32,71,2,10,18,41
7,14,7,-11,0,11,32,70,1,9,18,41
8,15,7,-11,0,11,33,70,0,9,18,41
7,15,9,-10,-1,12,35,71,0,10,18,42
6,15,10,-10,-2,12,37,73,1,11,18,42
7,16,10,-11,-1,13,38,74,2,11,17,42
8,18,9,-13,0,13,38,72,1,9,15,41
9,19,9,-14,0,14,37,71,0,6,14,39
10,21,10,-15,0,15,37,70,0,5,13,38
10,22,11,-16,-1,16,36,69,-1,5,12,37
10,22,11,-15,-1,16,35,68,-2,5,12,38
9,21,12,-14,-2,17,34,71,-2,5,13,39
7,21,13,-13,-3,17,33,72,-4,5,13,40
7,20,14,-12,-4,17,31,68,-7,5,13,40
6,20,14,-12,-4,17,28,61,-11,4,12,40
5,20,15,-12,-5,17,27,61,-14,3,12,40
5,21,16,-12,-6,18,25,65,-16,1,12,39
5,21,16,-12,-6,18,24,69,-16,0,12,39
5,20,15,-12,-5,18,24,71,-16,0,11,38
5,19,13,-12,-4,17,23,71,-17,-2,10,37
8,19,10,-12,-2,15,23,67,-18,-4,8,35
9,18,8,-13,0,13,22,65,-19,-5,7,34
8,17,9,-12,-1,12,22,67,-19,-4,7,34
7,17,9,-11,-1,12,22,72,-18,-3,8,35
7,16,9,-11,-1,11,22,74,-16,-2,8,35
6,16,9,-11,-2,12,22,74,-14,-2,8,35
4,17,13,-10,-4,15,22,74,-16,-2,8,35
2,18,15,-9,-7,16,22,76,-19,-2,9,36
0,17,16,-8,-8,16,22,78,-21,-3,9,36
0,15,15,-7,-8,15,22,78,-22,-4,8,35
0,13,13,-6,-7,13,21,79,-24,-4,8,35
1,12,11,-6,-5,11,20,78,-26,-4,8,35
2,12,10,-7,-4,10,19,75,-28,-5,8,34
2,12,9,-7,-3,10,18,71,-30,-6,7,33
3,12,8,-7,-3,10,17,67,-34,-7,6,32
3,11,8,-6,-3,10,16,63,-37,-8,5,31
2,11,8,-5,-4,10,16,61,-38,-8,4,30
0,10,9,-5,-4,10,16,60,-39,-9,3,29
1,10,9,-5,-4,10,16,61,-40,-9,2,28
2,10,8,-6,-3,9,15,62,-41,-10,1,27
1,10,8,-6,-3,10,15,63,-41,-10,0,27
0,9,9,-5,-4,10,15,63,-41,-10,0,27
0,8,8,-4,-4,9,15,63,-41,-10,0,27
-1,7,8,-4,-4,8,15,63,-41,-11,0,26
-1,7,8,-3,-4,8,15,62,-41,-12,0,26
-1,7,8,-3,-4,7,16,60,-40,-12,-1,25
-1,7,8,-4,-4,8,16,59,-40,-11,-1,25
0,8,8,-4,-4,8,15,58,-42,-12,-2,24
0,8,8,-4,-4,8,15,59,-44,-12,-3,23
0,7,7,-4,-4,7,16,64,-46,-11,-3,23
-1,6,7,-3,-4,7,16,65,-46,-10,-3,23
-2,5,6,-2,-4,6,16,58,-46,-10,-3,23
-1,5,6,-2,-4,6,16,50,-46,-10,-3,23
-1,5,6,-2,-4,6,17,49,-47,-9,-3,23
-1,6,6,-2,-4,6,16,52,-48,-9,-3,23
-1,7,7,-3,-4,7,15,56,-48,-9,-4,22
-1,8,8,-3,-5,8,14,59,-47,-9,-4,22
-2,8,9,-3,-5,8,14,60,-46,-9,-5,21
-1,8,8,-3,-4,8,13,60,-46,-9,-5,21
-1,7,7,-3,-4,7,12,60,-46,-9,-6,20
0,7,7,-3,-4,7,11,60,-45,-8,-6,20
-1,7,7,-2,-4,7,11,59,-45,-8,-7,19
-1,6,7,-2,-4,7,10,59,-45,-8,-7,19
0,6,6,-2,-3,6,10,60,-45,-9,-8,18
1,6,5,-3,-2,5,9,61,-44,-9,-8,17
2,6,4,-4,-1,4,9,61,-42,-10,-9,17
1,6,4,-4,-1,4,9,59,-41,-11,-10,16
0,6,5,-4,-2,5,9,58,-42,-10,-11,15
1,7,5,-4,-1,6,9,58,-45,-10,-11,14
2,6,4,-3,-1,5,10,57,-47,-10,-12,14
0,5,4,-2,-2,5,11,55,-48,-10,-11,14
-2,5,6,-1,-3,5,11,51,-50,-10,-10,15
-2,5,6,-1,-3,5,10,50,-52,-10,-10,15
0,5,4,-2,-2,4,8,53,-53,-10,-10,14
0,6,6,-3,-3,5,7,54,-50,-10,-10,14
-5,7,12,-1,-8,9,8,52,-49,-8,-8,15
-10,7,17,1,-13,12,8,50,-51,-6,-7,15
-9,6,15,2,-12,11,8,53,-53,-6,-7,15
-6,5,10,1,-8,7,7,55,-55,-6,-8,15
-5,4,8,1,-6,5,7,55,-56,-6,-8,14
-6,3,8,2,-7,5,7,54,-56,-5,-7,14
-6,2,8,2,-7,5,7,53,-56,-5,-7,14
-6,2,8,2,-6,5,7,52,-56,-4,-6,14
-5,2,7,1,-5,4,7,53,-56,-5,-7,13
-4,1,5,1,-4,4,6,55,-55,-6,-8,11
-4,1,5,1,-4,4,5,55,-54,-7,-9,10
-5,2,7,1,-6,5,5,52,-53,-7,-9,9
-6,3,9,1,-7,6,5,49,-56,-7,-9,8
-6,3,8,1,-7,5,4,47,-59,-7,-9,8
-6,2,8,1,-7,5,4,47,-60,-7,-9,7
-5,2,7,1,-6,5,3,47,-59,-7,-9,7
-5,1,6,1,-5,4,3,45,-60,-7,-9,6
-4,1,5,1,-4,4,5,43,-62,-7,-10,5
-3,1,4,1,-3,3,10,45,-64,-7,-11,4
-1,0,1,0,-1,1,15,47,-64,-7,-12,3
-1,-1,0,1,0,0,20,48,-62,-6,-12,3
-1,-2,-1,1,0,-1,23,48,-60,-6,-12,3
0,-1,-1,1,0,-1,24,48,-58,-7,-12,2
0,0,0,0,0,0,24,48,-54,-8,-13,1
0,2,3,-1,-1,3,24,48,-50,-7,-12,1
-1,2,4,0,-3,4,25,48,-46,-7,-3,1
0,1,2,0,-1,2,25,49,-42,-7,9,1
0,-1,-1,0,1,-1,26,49,-38,-7,16,1
0,0,0,0,0,0,27,49,-36,-7,19,1
-1,1,2,0,-1,2,29,49,-34,-5,22,1
-1,2,4,0,-3,3,31,49,-32,-4,23,2
-2,2,5,1,-4,3,34,49,-29,-3,22,2
-3,3,7,1,-5,5,37,49,-25,-2,19,3
-4,5,10,0,-7,7,39,50,-21,-1,16,3
-5,7,12,0,-8,10,39,49,-18,-1,12,3
-5,8,14,-1,-9,11,39,49,-15,0,8,3
-6,8,14,-1,-10,11,38,49,-12,0,5,3
-6,9,14,-1,-10,11,36,51,-8,0,3,3
-5,9,14,-2,-10,11,33,52,-3,-1,2,3
-4,9,14,-2,-9,11,29,50,0,-1,1,3
-4,9,14,-2,-9,11,25,46,-2,-1,0,2
-4,10,14,-2,-9,12,22,44,-7,-1,-2,1
-2,10,13,-3,-7,12,19,44,-10,-2,-4,0
-2,10,12,-4,-6,11,17,44,-9,-2,-6,0
-2,10,12,-4,-7,11,16,44,-7,-2,-7,0
-4,10,13,-3,-8,12,16,46,-4,0,-6,0
-6,9,14,-1,-10,11,17,44,-1,1,-5,0
-7,8,15,0,-11,11,17,40,0,3,-5,0
-7,8,15,0,-11,11,17,41,0,3,-5,0
-7,8,15,0,-11,11,17,46,1,4,-5,0
-8,7,16,0,-12,11,18,52,5,5,-4,0
-8,7,16,1,-12,11,19,58,10,6,-4,-1
-8,8,16,0,-11,12,19,63,17,6,-5,-2
-7,10,17,-2,-11,14,20,68,25,7,-6,-4
-6,12,18,-3,-12,15,21,74,32,7,-7,-6
-5,14,20,-4,-13,17,22,82,37,7,-7,-7
-4,16,20,-5,-13,17,22,92,40,10,-6,-7
-2,16,19,-6,-11,17,21,101,42,14,-3,-5
-1,17,18,-8,-9,17,20,107,46,21,2,-1
0,17,17,-9,-8,17,17,110,51,32,12,6
4,18,14,-11,-5,16,12,112,56,46,25,16
9,18,8,-14,0,13,4,112,60,62,40,28
16,19,2,-18,7,11,-5,106,58,79,57,40
22,22,0,-22,10,11,-15,93,50,96,75,55
24,27,2,-26,10,14,-25,74,39,113,94,71
26,34,8,-30,9,20,-34,51,23,126,111,85
27,40,13,-33,7,26,-42,25,0,129,120,96
26,44,18,-35,5,31,-46,-2,-27,121,121,100
24,44,21,-34,2,32,-48,-27,-54,109,116,98
21,40,19,-31,1,30,-48,-45,-76,94,105,90
18,33,16,-26,1,25,-44,-56,-92,75,88,76
14,26,12,-20,1,20,-38,-58,-99,56,69,60
11,20,9,-16,0,15,-32,-53,-101,37,48,43
6,15,9,-11,-1,12,-26,-46,-99,20,28,28
0,11,11,-5,-5,11,-20,-35,-93,6,12,15
-7,8,15,0,-10,11,-15,-23,-85,-5,1,7
-11,7,18,2,-14,12,-12,-14,-76,-12,-6,0
-10,7,16,1,-13,12,-12,-8,-67,-16,-11,-5
-9,7,16,0,-13,12,-12,-3,-59,-16,-13,-8
-12,7,19,2,-16,14,-11,2,-50,-14,-13,-9
-13,7,20,2,-17,14,-10,7,-42,-11,-13,-11
-11,7,19,2,-16,13,-9,11,-35,-8,-13,-12
-10,6,17,2,-14,12,-9,14,-30,-6,-13,-13
-9,6,16,2,-12,11,-8,15,-25,-6,-14,-15
-9,5,14,2,-11,10,-7,16,-21,-5,-14,-16
-9,4,13,2,-11,9,-6,18,-17,-5,-14,-17
-9,3,12,3,-11,8,-5,18,-13,-4,-15,-18
-9,2,11,3,-11,7,-4,11,-11,-4,-16,-19
-8,0,9,3,-9,5,-4,0,-11,-2,-16,-20
-8,-1,8,4,-8,3,-4,-7,-11,-1,-17,-21
-8,-1,8,4,-8,3,-4,-10,-10,0,-17,-22
-9,0,9,5,-8,3,-4,-8,-8,2,-16,-22
-10,0,10,6,-9,4,-3,-3,-7,5,-15,-22
-11,-2,9,7,-9,3,-3,0,-6,7,-15,-22
-11,-3,8,7,-9,2,-4,2,-6,8,-15,-22
-12,-4,8,7,-10,2,-5,2,-4,10,-14,-22
-12,-4,8,7,-10,2,-5,1,-3,11,-14,-22
-11,-4,7,7,-9,1,-7,0,-3,11,-15,-23
-10,-4,6,6,-8,0,-9,-1,-5,11,-16,-24
-9,-4,5,7,-7,0,-10,-1,-7,12,-17,-25
-10,-5,5,8,-6,-1,-11,0,-7,12,-17,-26
-11,-6,5,9,-7,-1,-12,0,-7,13,-17,-26
-13,-6,7,9,-10,0,-12,-1,-7,13,-17,-25
-14,-6,7,10,-11,0,-12,-5,-6,13,-16,-25
-12,-7,5,9,-9,-1,-13,-7,-7,13,-17,-26
-10,-7,3,8,-7,-1,-14,-8,-8,13,-18,-27
-10,-5,5,8,-8,0,-14,-10,-8,13,-19,-28
-11,-5,6,8,-8,0,-13,-14,-7,14,-19,-28
-11,-5,5,8,-8,0,-11,-14,-6,16,-18,-28
-12,-6,6,9,-8,0,-9,-12,-6,19,-18,-27
-13,-6,6,9,-9,0,-7,-8,-5,20,-17,-27
-14,-7,6,9,-10,0,-6,-6,-4,21,-17,-27
-13,-7,6,9,-10,0,-6,-10,-4,22,-18,-28
-13,-7,6,9,-10,0,-6,-15,-4,22,-18,-29
-13,-7,6,9,-10,0,-6,-17,-4,22,-19,-30
-12,-7,6,9,-9,0,-6,-17,-3,21,-19,-30
-12,-7,5,9,-8,-1,-5,-18,-3,21,-19,-31
-12,-8,4,10,-8,-2,-5,-20,-6,21,-18,-31
-13,-9,4,10,-9,-2,-4,-21,-11,22,-17,-31
-14,-9,5,11,-10,-2,-3,-21,-13,22,-17,-31
-14,-10,4,11,-9,-3,-3,-22,-13,22,-16,-31
-14,-11,3,12,-9,-4,-3,-23,-12,23,-16,-32
-14,-11,2,12,-8,-4,-3,-23,-9,24,-15,-32
-14,-11,2,12,-8,-4,-3,-25,-7,24,-15,-32
-14,-11,2,12,-8,-4,-3,-27,-7,24,-16,-32
-13,-12,1,12,-8,-5,-3,-28,-7,25,-16,-32
-13,-12,1,12,-7,-5,-2,-29,-6,25,-16,-32
-13,-11,1,11,-7,-4,-2,-30,-5,26,-16,-32
-12,-10,2,10,-7,-3,-3,-30,-5,26,-16,-33
-11,-9,2,9,-6,-3,-3,-29,-4,27,-15,-33
-10,-8,2,9,-6,-3,-3,-27,-2,29,-15,-33
-9,-7,2,8,-6,-2,-3,-29,0,30,-14,-33
-9,-5,4,7,-6,-1,-2,-31,0,31,-14,-32
-9,-5,4,7,-6,-1,-2,-32,0,31,-13,-31
-9,-6,4,7,-6,-1,-1,-34,-1,32,-12,-30
-8,-5,3,6,-5,-1,-1,-36,0,34,-11,-30
-8,-3,4,5,-5,1,-1,-36,1,36,-10,-30
-7,0,6,3,-6,3,0,-33,3,37,-10,-30
-7,0,6,3,-6,4,1,-29,7,39,-9,-29
-7,1,7,3,-7,4,3,-28,10,40,-8,-28
-7,2,9,2,-7,5,4,-29,12,40,-7,-28
-7,3,10,2,-8,6,5,-30,12,40,-6,-27
-7,4,10,1,-8,7,5,-31,10,42,-5,-27
-6,5,11,0,-8,8,5,-31,10,44,-3,-26
-7,7,13,-1,-9,10,3,-31,9,46,-1,-24
-8,7,14,-1,-10,11,1,-31,8,49,0,-23
-8,7,14,0,-11,11,-2,-30,8,50,1,-22
-8,7,14,0,-10,11,-5,-30,9,51,1,-21
-7,7,13,0,-10,10,-7,-29,10,51,1,-21
-8,7,14,0,-11,10,-8,-30,11,52,1,-21
-6,7,13,0,-9,10,-10,-34,11,52,1,-22
-2,8,10,-3,-5,9,-13,-38,9,50,0,-23
-1,8,10,-3,-5,9,-13,-39,9,50,0,-23
-3,8,12,-2,-7,10,-12,-39,10,52,2,-22
-3,7,11,-2,-7,9,-12,-39,11,54,3,-21
-2,7,9,-2,-6,8,-12,-37,11,55,4,-20
-2,7,8,-3,-5,8,-13,-33,12,56,4,-20
-1,7,8,-3,-5,8,-14,-30,14,57,5,-19
-2,7,9,-3,-6,8,-14,-28,16,58,5,-19
-2,7,10,-2,-6,9,-13,-27,17,58,6,-19
-2,7,11,-3,-6,9,-13,-28,17,58,6,-19
-1,7,10,-3,-5,9,-13,-30,16,57,5,-20
0,7,8,-3,-4,8,-13,-32,14,56,4,-20
0,6,7,-3,-4,7,-12,-33,13,55,3,-21
-1,6,8,-2,-4,7,-12,-35,12,55,3,-21
-3,6,9,-1,-5,8,-12,-37,11,54,3,-21
-4,6,10,-1,-6,8,-12,-39,9,53,3,-21
-3,6,9,-1,-6,7,-12,-39,7,52,3,-21
-2,5,8,-1,-4,6,-12,-40,6,50,3,-22
-1,4,6,-1,-3,5,-12,-44,4,49,2,-23
-1,4,6,-1,-3,5,-11,-48,1,47,1,-23
-2,4,6,-1,-4,5,-11,-49,0,46,0,-24
-3,3,6,0,-4,5,-10,-48,-1,45,0,-25
-4,2,6,1,-5,3,-10,-48,-2,44,-1,-25
-4,1,6,1,-5,3,-10,-47,-3,43,-2,-25
-4,1,6,1,-6,3,-10,-46,-4,40,-3,-26
-4,1,6,1,-5,3,-10,-46,-3,38,-4,-27
-4,1,6,1,-5,3,-10,-50,-5,37,-5,-28
-3,1,6,1,-4,3,-9,-56,-9,37,-6,-29
-3,1,5,1,-3,3,-9,-58,-12,36,-6,-29
-3,0,4,1,-3,2,-9,-57,-14,36,-7,-29
-3,0,4,1,-3,1,-10,-55,-15,35,-8,-30
-3,-1,3,1,-2,0,-10,-54,-15,34,-9,-30
-2,-1,2,1,-1,0,-10,-54,-15,32,-9,-31
-2,-1,1,1,-1,0,-10,-55,-17,31,-10,-32
-2,-1,1,1,-1,0,-10,-55,-20,30,-11,-33
-2,-2,0,1,-1,-1,-11,-56,-23,29,-12,-34
-3,-2,0,2,-2,-1,-10,-56,-24,29,-12,-34
-5,-2,3,3,-4,0,-10,-56,-25,29,-12,-34
-6,-2,4,4,-6,1,-10,-56,-26,27,-13,-34
-5,-2,3,3,-5,0,-11,-57,-27,26,-14,-35
-3,-2,1,2,-2,-1,-11,-56,-27,24,-16,-36
0,-3,-2,1,0,-2,-11,-54,-28,21,-18,-38
1,-3,-4,1,2,-4,-11,-54,-28,19,-19,-39
0,-3,-3,1,2,-3,-11,-60,-30,19,-19,-39
-3,-3,0,3,-1,-2,-9,-66,-31,20,-19,-38
-6,-3,2,4,-4,-1,-9,-68,-31,21,-18,-37
-6,-3,3,4,-4,0,-9,-65,-32,21,-18,-36
-5,-3,2,3,-3,-1,-9,-62,-33,22,-18,-36
-3,-3,0,3,-1,-2,-9,-61,-35,21,-19,-37
-3,-4,0,3,0,-2,-8,-61,-36,20,-20,-37
-3,-5,-1,4,0,-3,-8,-61,-37,20,-20,-37
-2,-5,-1,3,0,-3,-7,-60,-36,19,-21,-38
-2,-4,-2,2,0,-3,-7,-60,-35,18,-22,-39
-2,-4,-2,2,0,-3,-7,-61,-34,17,-23,-39
-3,-4,0,2,-1,-2,-7,-61,-35,17,-23,-39
-3,-5,-1,3,-1,-3,-7,-62,-35,17,-23,-39
-2,-5,-3,3,0,-4,-6,-64,-34,17,-24,-39
-1,-5,-3,3,1,-4,-6,-63,-33,17,-24,-40
-1,-5,-3,3,1,-4,-5,-62,-32,16,-24,-39
-2,-6,-4,4,1,-5,-4,-63,-31,15,-23,-38
-2,-7,-4,4,1,-5,-3,-65,-32,15,-22,-38
-1,-7,-5,3,2,-6,-3,-66,-36,15,-22,-38
0,-7,-5,3,2,-6,-3,-66,-39,15,-23,-38
-1,-7,-5,3,2,-6,-3,-64,-40,15,-23,-37
-2,-7,-4,3,1,-6,-2,-62,-39,15,-22,-37
-2,-7,-4,4,1,-6,-2,-63,-38,15,-22,-36
-4,-8,-4,5,0,-6,-1,-65,-37,16,-21,-35
-6,-8,-2,6,-2,-5,-1,-66,-36,17,-20,-34
-6,-8,-2,6,-2,-5,-1,-66,-35,18,-19,-34
-3,-9,-5,5,1,-7,-1,-65,-35,17,-20,-34
-1,-10,-8,5,3,-9,-2,-63,-34,16,-21,-35
0,-10,-10,4,5,-10,-3,-62,-32,14,-22,-35
1,-11,-12,4,6,-11,-3,-64,-30,13,-23,-36
2,-10,-12,3,6,-10,-3,-65,-30,12,-23,-37
1,-9,-10,3,5,-9,-2,-65,-30,12,-23,-36
1,-9,-10,3,6,-9,-1,-64,-30,12,-23,-36
2,-9,-10,2,7,-9,-1,-64,-30,13,-22,-35
2,-9,-11,3,7,-10,0,-64,-29,13,-22,-35
1,-10,-11,3,7,-11,0,-64,-29,13,-21,-34
1,-10,-11,4,6,-11,1,-64,-29,13,-21,-33
1,-10,-12,4,7,-11,1,-63,-29,13,-21,-33
2,-10,-13,3,8,-12,0,-63,-29,12,-21,-32
3,-10,-13,3,8,-12,0,-62,-28,12,-20,-32
3,-10,-13,3,8,-12,0,-61,-28,12,-20,-32
2,-10,-12,3,7,-11,-1,-59,-27,12,-19,-31
2,-9,-10,3,6,-10,0,-58,-26,12,-19,-30
1,-8,-9,3,5,-9,1,-57,-25,13,-18,-29
0,-7,-7,3,4,-8,4,-56,-24,13,-18,-28
1,-6,-7,2,4,-7,6,-56,-24,13,-17,-28
2,-5,-7,0,4,-6,9,-55,-24,13,-17,-27
3,-4,-7,0,5,-5,11,-55,-23,13,-16,-27
3,-3,-6,-1,5,-4,13,-55,-22,13,-16,-26
4,-2,-5,-2,5,-3,13,-54,-21,13,-16,-26
4,0,-4,-2,5,-2,13,-51,-21,13,-16,-25
5,1,-4,-4,5,-1,12,-52,-21,14,-15,-25
6,3,-3,-5,5,0,10,-53,-22,14,-15,-24
5,3,-2,-5,4,0,6,-54,-23,13,-15,-23
5,2,-3,-4,4,0,2,-53,-22,11,-14,-22
5,1,-4,-4,5,-1,-1,-53,-22,8,-14,-21
6,2,-3,-4,5,0,-3,-52,-22,6,-14,-22
6,3,-2,-5,5,0,-5,-51,-22,4,-15,-22
6,2,-3,-5,5,0,-7,-50,-22,2,-15,-22
6,1,-4,-5,6,-2,-7,-49,-22,0,-16,-22
6,0,-6,-4,7,-3,-7,-47,-20,-3,-16,-22
5,0,-6,-4,6,-3,-6,-47,-18,-4,-17,-22
5,0,-5,-4,5,-2,-6,-53,-15,-5,-17,-21
5,0,-4,-4,4,-2,-6,-60,-15,-5,-16,-21
5,0,-4,-3,4,-2,-5,-58,-16,-4,-15,-19
5,-1,-5,-2,5,-3,-4,-54,-17,-3,-14,-18
5,-2,-6,-2,5,-4,-4,-52,-17,-2,-12,-17
5,-2,-6,-2,5,-3,-3,-48,-15,-2,-10,-16
4,-2,-5,-2,4,-3,-1,-43,-12,-2,-9,-15
4,-2,-5,-2,4,-3,0,-39,-11,-2,-8,-14
4,-2,-5,-2,4,-3,0,-37,-11,-2,-7,-14
4,-1,-5,-2,4,-3,0,-35,-11,-2,-7,-13
5,-1,-6,-2,5,-3,0,-33,-12,-2,-7,-13
4,-2,-6,-2,5,-4,0,-34,-13,-3,-7,-13
4,-3,-6,-1,5,-5,0,-36,-14,-5,-7,-13
4,-3,-6,-1,5,-5,0,-36,-14,-7,-7,-13
4,-3,-7,-2,6,-5,0,-37,-13,-8,-7,-13
5,-3,-8,-2,7,-6,0,-39,-14,-8,-8,-13
5,-3,-9,-2,7,-6,0,-42,-16,-9,-8,-13
6,-3,-9,-2,7,-6,0,-44,-16,-10,-9,-14
5,-3,-8,-1,7,-6,0,-45,-15,-10,-9,-14
5,-4,-8,-1,7,-6,0,-45,-14,-10,-9,-14
5,-4,-9,-1,7,-6,0,-46,-13,-11,-9,-14
5,-3,-9,-2,7,-6,0,-46,-14,-11,-9,-14
6,-3,-9,-2,8,-6,0,-47,-15,-12,-10,-15
6,-3,-10,-3,8,-6,0,-47,-16,-13,-11,-15
7,-3,-10,-3,8,-6,-1,-47,-17,-14,-11,-15
7,-3,-10,-2,8,-6,-2,-47,-16,-14,-11,-15
4,-4,-9,0,7,-7,-2,-46,-14,-12,-9,-13
3,-5,-8,0,6,-7,-2,-45,-13,-10,-8,-12
5,-5,-9,0,8,-8,-3,-46,-12,-10,-9,-12
6,-5,-10,-1,8,-8,-4,-48,-12,-10,-9,-13
5,-5,-10,-1,8,-8,-4,-49,-13,-10,-9,-13
4,-6,-9,0,7,-8,-4,-49,-13,-10,-9,-13
4,-6,-10,0,7,-8,-5,-49,-13,-10,-9,-13
6,-6,-11,-1,9,-9,-6,-50,-14,-11,-10,-14
7,-5,-12,-2,10,-9,-7,-51,-13,-13,-11,-15
8,-5,-13,-2,11,-9,-8,-51,-13,-14,-11,-16
9,-4,-14,-2,11,-9,-9,-50,-13,-14,-12,-16
9,-4,-13,-2,11,-9,-10,-49,-13,-14,-12,-16
7,-4,-12,-2,10,-8,-10,-49,-12,-14,-12,-16
6,-4,-10,-2,9,-8,-11,-49,-12,-14,-12,-16
7,-4,-11,-2,9,-8,-11,-48,-13,-14,-11,-15
7,-4,-11,-2,10,-8,-12,-48,-13,-14,-11,-14
7,-4,-11,-2,10,-8,-13,-50,-14,-13,-10,-13
7,-4,-11,-2,9,-8,-14,-54,-16,-13,-10,-13
7,-4,-11,-2,9,-8,-15,-55,-18,-13,-10,-12
7,-5,-11,-2,9,-8,-15,-52,-18,-13,-9,-12
6,-5,-11,-1,9,-8,-15,-49,-18,-13,-9,-12
7,-5,-12,-1,9,-8,-15,-47,-18,-13,-9,-13
8,-5,-13,-2,11,-9,-15,-46,-18,-14,-10,-13
8,-5,-13,-2,11,-9,-16,-48,-19,-15,-10,-14
8,-5,-12,-1,10,-8,-17,-49,-21,-15,-10,-14
8,-5,-12,-1,10,-8,-17,-50,-25,-15,-10,-15
8,-4,-12,-2,10,-8,-18,-50,-28,-16,-10,-15
9,-4,-13,-2,10,-8,-18,-50,-32,-16,-10,-16
8,-4,-13,-2,10,-8,-18,-50,-35,-15,-10,-16
7,-4,-12,-2,9,-8,-18,-50,-37,-15,-9,-16
6,-4,-10,-1,8,-7,-18,-49,-37,-14,-9,-16
5,-4,-9,-1,7,-7,-17,-46,-38,-13,-8,-16
5,-5,-9,-1,8,-7,-17,-45,-38,-13,-8,-16
6,-5,-10,-1,9,-8,-17,-46,-38,-14,-8,-16
6,-5,-11,-1,9,-8,-17,-49,-37,-14,-8,-16
6,-5,-10,-1,8,-8,-16,-49,-35,-14,-8,-16
5,-4,-9,-1,7,-7,-15,-45,-33,-13,-8,-16
4,-3,-6,-1,5,-5,-13,-39,-29,-12,-7,-16
4,-1,-4,-2,4,-2,-12,-32,-24,-11,-8,-17
4,1,-2,-3,4,-1,-11,-24,-19,-11,-9,-19
6,2,-2,-4,4,0,-10,-17,-14,-11,-10,-19
7,4,-2,-6,5,1,-11,-9,-8,-10,-9,-19
9,5,-3,-7,6,1,-11,-1,-2,-6,-6,-17
10,6,-3,-8,7,1,-12,7,4,0,-1,-13
12,8,-3,-10,7,2,-14,15,11,10,7,-7
14,10,-3,-13,8,4,-18,23,18,25,19,2
18,13,-4,-16,11,4,-24,25,24,43,35,14
24,17,-7,-21,16,5,-33,16,25,63,53,29
30,22,-8,-26,19,7,-43,1,22,81,73,45
34,28,-7,-31,21,10,-52,-17,16,100,93,62
38,35,-3,-36,21,16,-60,-38,4,117,113,79
39,43,2,-41,19,22,-66,-62,-13,129,129,95
39,49,9,-44,15,29,-71,-87,-37,131,138,106
37,53,16,-45,11,35,-73,-113,-64,123,137,110
35,52,18,-44,9,35,-73,-135,-87,112,131,107
33,47,15,-41,9,31,-71,-145,-103,100,121,100
31,40,10,-36,11,25,-67,-144,-112,82,106,87
29,32,3,-32,13,18,-64,-137,-116,59,84,71
27,26,-1,-27,14,12,-60,-127,-116,34,60,53
21,21,0,-21,11,10,-56,-115,-111,12,38,36
14,18,4,-15,5,11,-51,-102,-104,-4,22,23
10,15,4,-12,3,10,-48,-90,-98,-15,10,13
11,13,1,-12,5,7,-46,-80,-90,-23,2,6
11,12,0,-12,6,6,-45,-72,-81,-26,-2,1
11,12,0,-12,6,6,-43,-67,-75,-27,-4,-1
11,12,1,-12,6,6,-42,-65,-69,-27,-5,-2
11,11,1,-12,6,6,-41,-63,-63,-26,-6,-4
11,11,1,-12,5,6,-39,-60,-57,-25,-6,-5
10,11,2,-11,4,7,-36,-54,-53,-24,-6,-5
9,11,2,-10,4,7,-33,-49,-49,-22,-6,-5
8,9,1,-9,4,5,-30,-44,-46,-20,-5,-5
8,8,0,-8,4,4,-28,-40,-42,-18,-4,-5
7,6,0,-7,4,3,-25,-37,-39,-17,-4,-5
6,3,-2,-5,5,0,-22,-35,-36,-16,-3,-4
5,1,-3,-3,4,-1,-20,-33,-34,-16,-3,-4
4,0,-3,-2,4,-1,-19,-31,-34,-17,-3,-4
3,0,-3,-1,3,-1,-17,-29,-33,-18,-4,-5
3,0,-3,-1,3,-2,-15,-29,-33,-18,-4,-5
3,-1,-5,-1,4,-3,-14,-30,-33,-19,-4,-5
5,-2,-7,-1,6,-5,-14,-27,-33,-20,-4,-6
6,-2,-9,-2,8,-5,-14,-24,-33,-20,-5,-7
6,-3,-9,-2,8,-6,-14,-27,-33,-20,-5,-7
7,-2,-9,-2,8,-6,-15,-31,-32,-20,-5,-7
7,-1,-9,-3,8,-5,-15,-31,-30,-19,-5,-8
8,-1,-9,-4,9,-5,-15,-26,-26,-19,-5,-7
7,-2,-9,-3,8,-6,-14,-20,-23,-18,-3,-6
5,-2,-8,-2,7,-5,-13,-16,-23,-18,-2,-6
5,-2,-7,-1,6,-4,-13,-16,-24,-17,-1,-5
5,-2,-7,-1,6,-4,-13,-16,-25,-17,-1,-5
6,-3,-8,-1,7,-5,-13,-16,-24,-18,-1,-6
6,-3,-9,-1,8,-6,-14,-15,-23,-18,-2,-6
6,-3,-9,-1,8,-6,-14,-14,-22,-18,-2,-6
6,-3,-8,-2,7,-5,-14,-13,-22,-18,-3,-6
7,-2,-8,-3,7,-5,-14,-12,-21,-19,-3,-7
8,-2,-8,-4,8,-5,-15,-14,-22,-22,-4,-8
9,-2,-9,-4,9,-6,-16,-17,-22,-23,-5,-9
8,-2,-9,-3,8,-6,-15,-18,-22,-23,-4,-9
6,-2,-8,-2,7,-5,-14,-19,-23,-22,-4,-8
6,-2,-8,-1,6,-5,-14,-19,-25,-21,-3,-8
5,-2,-8,-1,6,-5,-14,-18,-25,-21,-3,-7
5,-2,-7,0,6,-4,-14,-16,-24,-20,-3,-7
4,-2,-6,0,5,-4,-13,-16,-23,-20,-3,-7
5,-1,-6,-1,5,-3,-13,-17,-23,-20,-3,-7
5,-1,-6,-1,6,-3,-13,-19,-24,-20,-3,-7
6,-1,-7,-2,6,-3,-13,-19,-25,-19,-3,-7
6,-1,-7,-2,6,-3,-13,-19,-24,-19,-2,-7
7,-1,-7,-2,7,-4,-13,-19,-24,-18,-2,-7
8,0,-8,-3,8,-4,-14,-19,-24,-17,-2,-7
9,0,-8,-4,9,-3,-15,-20,-24,-17,-2,-8
10,0,-9,-5,10,-4,-16,-19,-23,-17,-2,-8
11,0,-10,-5,10,-5,-16,-18,-22,-16,-2,-8
10,-1,-10,-5,10,-5,-17,-17,-22,-16,-2,-8
8,-1,-8,-4,8,-4,-17,-16,-23,-16,-2,-8
6,0,-5,-4,5,-2,-17,-17,-23,-15,-1,-7
4,1,-3,-3,4,-1,-17,-19,-23,-14,-1,-7
4,1,-3,-3,4,-1,-18,-19,-22,-14,0,-6
4,0,-3,-3,4,-1,-18,-17,-22,-12,0,-5
4,1,-3,-3,4,-1,-19,-17,-23,-11,1,-5
4,0,-3,-2,4,-2,-19,-17,-23,-10,2,-4
5,0,-5,-2,5,-3,-19,-18,-22,-9,2,-4
6,0,-6,-3,6,-3,-20,-17,-22,-9,2,-4
8,1,-6,-4,7,-2,-21,-15,-22,-10,2,-4
8,1,-7,-4,7,-3,-22,-15,-21,-8,3,-4
8,1,-7,-4,7,-3,-22,-15,-20,-7,3,-3
8,1,-7,-4,7,-3,-23,-13,-19,-6,4,-3
8,2,-6,-4,7,-2,-24,-9,-17,-6,4,-2
7,2,-5,-4,7,-2,-24,-8,-15,-6,5,-1
7,2,-4,-4,6,-1,-24,-9,-13,-4,7,0
7,3,-3,-5,5,0,-24,-11,-13,-3,8,2
7,4,-2,-5,5,0,-24,-10,-15,-2,9,3
7,4,-2,-5,5,0,-24,-7,-16,0,10,4
7,5,-2,-6,4,1,-24,-5,-16,0,11,5
7,5,-2,-6,4,1,-24,-7,-15,1,11,5
7,4,-3,-6,5,0,-24,-9,-15,1,12,6
7,3,-4,-5,6,0,-24,-8,-14,1,12,7
8,2,-5,-5,7,-1,-24,-7,-13,1,13,8
8,3,-5,-6,7,-1,-25,-9,-13,2,13,9
9,3,-5,-6,8,-1,-25,-10,-13,2,13,10
10,3,-6,-6,8,-2,-25,-9,-13,3,13,10
10,2,-6,-6,8,-2,-24,-9,-13,4,14,11
9,2,-5,-6,8,-1,-23,-9,-13,5,15,12
9,2,-5,-6,7,-1,-23,-9,-13,6,16,13
8,2,-6,-5,8,-2,-23,-9,-13,6,16,13
8,2,-6,-5,8,-2,-23,-8,-14,7,16,14
9,3,-6,-6,8,-2,-23,-7,-13,7,16,14
9,3,-6,-6,8,-2,-23,-7,-12,7,16,15
10,2,-7,-6,9,-2,-23,-7,-11,7,15,15
11,2,-9,-6,10,-3,-23,-7,-11,7,15,15
12,1,-10,-6,11,-4,-24,-6,-12,6,14,14
13,0,-12,-6,13,-6,-24,-5,-12,4,14,14
13,-1,-13,-6,13,-7,-23,-8,-11,4,13,14
10,-1,-10,-5,10,-6,-22,-10,-10,4,14,15
8,-1,-8,-3,8,-5,-20,-10,-9,4,14,16
7,-2,-8,-3,7,-5,-19,-9,-8,4,14,16
6,-2,-7,-2,7,-5,-19,-8,-7,3,13,16
5,-2,-6,-1,6,-4,-18,-8,-6,3,13,16
5,-2,-6,-1,6,-4,-18,-7,-6,2,12,16
8,-1,-9,-3,8,-4,-20,-6,-5,1,10,15
10,-1,-11,-5,11,-5,-21,-7,-4,0,8,14
11,-1,-13,-5,12,-6,-21,-11,-4,-1,7,14
12,-3,-15,-4,13,-9,-20,-14,-6,-2,7,15
13,-4,-17,-4,15,-10,-19,-13,-9,-3,7,15
15,-2,-16,-6,16,-9,-19,-8,-10,-4,6,16
15,-1,-15,-7,15,-8,-18,-5,-10,-4,6,16
13,-1,-14,-6,14,-8,-17,-5,-9,-4,6,17
12,-1,-12,-5,12,-7,-16,-6,-9,-5,6,17
10,0,-10,-5,10,-5,-14,-6,-9,-5,6,18
8,0,-7,-4,8,-3,-11,-5,-9,-5,5,18
6,2,-3,-4,5,-1,-8,-4,-10,-5,5,18
6,3,-1,-4,4,0,-5,-3,-11,-6,4,18
5,3,-1,-4,3,0,-2,-1,-10,-6,4,19
4,3,0,-3,2,1,1,0,-8,-6,4,19
3,3,0,-3,2,1,3,0,-7,-7,3,19
3,4,0,-4,2,2,5,-1,-8,-7,2,19
5,4,-1,-5,3,1,4,-2,-10,-8,1,18
6,4,-3,-5,5,1,3,-2,-11,-10,0,18
6,4,-3,-5,5,1,0,-3,-11,-11,0,18
6,5,-1,-6,4,2,-3,-4,-10,-12,-1,17
5,6,2,-5,2,4,-4,-5,-11,-13,-1,17
3,6,4,-4,0,4,-5,-4,-12,-13,-1,17
2,6,4,-3,0,4,-5,-3,-14,-12,-1,17
2,5,2,-3,0,3,-6,-6,-15,-11,-2,16
3,5,0,-3,2,2,-6,-9,-16,-12,-2,16
4,4,-1,-3,3,1,-6,-11,-16,-12,-3,16
4,3,-3,-3,4,0,-5,-11,-16,-13,-3,16
5,1,-4,-3,5,-1,-4,-8,-16,-14,-4,15
4,1,-3,-2,4,-1,-4,-5,-15,-14,-3,15
3,0,-2,-1,3,-1,-3,-3,-13,-13,-2,16
2,-1,-2,0,2,-2,-2,-3,-11,-12,-2,16
3,-1,-2,0,3,-2,-2,-2,-7,-11,-2,16
4,0,-3,-1,4,-1,-2,-2,-5,-11,-2,15
5,1,-4,-3,5,-1,-3,-2,-5,-12,-3,15
6,1,-5,-3,6,-2,-3,-3,-5,-13,-3,15
6,0,-6,-4,7,-3,-3,-3,-4,-15,-3,15
6,0,-6,-3,7,-4,-3,-3,-4,-15,-3,15
4,-1,-5,-2,5,-3,-3,-2,-7,-14,-3,15
4,-1,-5,-1,5,-3,-3,-1,-10,-14,-3,15
4,-2,-5,-1,5,-4,-3,-3,-11,-13,-4,15
3,-2,-5,0,4,-4,-2,-5,-12,-13,-4,15
2,-2,-4,0,3,-3,-2,-5,-12,-14,-4,15
2,-2,-3,0,3,-2,-2,-6,-13,-14,-4,15
2,-3,-4,0,3,-3,-1,-10,-14,-14,-4,15
3,-4,-6,0,5,-4,-2,-12,-14,-14,-5,15
4,-4,-8,0,6,-6,-3,-12,-14,-15,-6,14
5,-4,-9,0,8,-7,-4,-12,-15,-16,-8,12
6,-4,-11,-1,9,-7,-5,-17,-15,-17,-9,11
7,-4,-11,-1,9,-7,-6,-20,-15,-17,-9,11
6,-4,-10,-1,8,-7,-6,-19,-13,-17,-9,12
5,-4,-9,-1,7,-6,-6,-16,-12,-16,-8,13
5,-4,-8,-1,7,-6,-6,-13,-11,-15,-7,14
4,-3,-7,-1,6,-5,-6,-10,-10,-14,-6,15
2,-3,-5,0,4,-4,-6,-8,-11,-13,-5,15
2,-3,-4,0,3,-4,-6,-7,-12,-14,-5,15
2,-4,-6,0,4,-5,-6,-9,-12,-14,-6,15
2,-4,-6,0,4,-5,-5,-10,-12,-13,-6,15
2,-3,-6,0,4,-4,-5,-10,-11,-13,-6,15
2,-2,-6,0,4,-4,-5,-10,-11,-14,-6,15
2,-3,-6,0,4,-4,-4,-11,-11,-15,-6,15
1,-3,-5,0,4,-5,-4,-13,-12,-14,-6,16
1,-3,-5,0,4,-5,-4,-14,-12,-13,-6,16
1,-3,-5,0,4,-5,-3,-15,-14,-12,-6,16
1,-3,-4,1,3,-4,-3,-15,-14,-12,-6,16
0,-3,-4,1,3,-4,-2,-16,-14,-11,-6,16
0,-3,-4,2,2,-4,-2,-16,-13,-11,-7,15
0,-4,-4,2,2,-4,-2,-16,-12,-12,-7,14
0,-4,-4,2,2,-5,-2,-16,-12,-13,-7,13
-1,-5,-3,3,1,-4,-1,-17,-11,-13,-7,13
-3,-5,-1,3,0,-4,-1,-18,-10,-13,-7,13
-1,-5,-3,2,1,-4,-1,-18,-10,-14,-8,12
1,-5,-7,1,5,-6,-2,-17,-10,-15,-9,10
3,-5,-8,0,6,-6,-1,-15,-10,-15,-9,10
2,-4,-7,1,5,-5,0,-16,-10,-15,-9,10
1,-4,-6,1,4,-5,0,-21,-10,-14,-9,11
2,-5,-7,1,5,-6,-1,-25,-11,-15,-10,10
3,-5,-8,0,6,-6,-1,-27,-14,-15,-10,9
4,-4,-8,0,6,-6,-1,-25,-14,-16,-11,8
3,-4,-7,0,6,-6,-1,-21,-13,-16,-11,8
2,-5,-7,1,5,-6,-1,-17,-12,-16,-11,8
1,-5,-7,2,4,-6,0,-16,-12,-17,-11,9
1,-5,-6,3,3,-6,0,-15,-13,-17,-11,9
1,-5,-6,3,3,-6,0,-16,-13,-18,-11,9
1,-5,-7,2,4,-6,0,-16,-12,-18,-12,9
2,-5,-7,2,4,-6,0,-16,-11,-19,-12,8
3,-5,-8,1,5,-7,0,-16,-10,-19,-12,8
4,-5,-9,1,5,-7,0,-16,-10,-20,-12,7
3,-5,-8,1,5,-7,0,-17,-10,-20,-12,7
3,-5,-8,1,5,-6,0,-17,-11,-20,-13,6
4,-5,-9,0,7,-7,0,-17,-11,-21,-14,6
4,-5,-9,0,7,-7,0,-14,-9,-22,-14,6
1,-5,-5,2,3,-6,0,-11,-7,-21,-13,7
-2,-6,-2,4,0,-4,2,-10,-6,-20,-12,8
-2,-6,-3,4,0,-5,2,-11,-7,-20,-12,8
0,-6,-5,4,2,-5,2,-13,-7,-21,-13,7
0,-6,-6,3,3,-6,1,-14,-6,-23,-13,7
1,-8,-8,4,4,-7,1,-15,-3,-23,-13,7
1,-9,-10,4,5,-9,2,-14,-2,-23,-13,7
2,-9,-11,4,6,-10,2,-12,-3,-23,-14,7
2,-10,-11,4,6,-10,2,-9,-3,-23,-14,6
2,-9,-11,3,6,-10,2,-10,-1,-24,-15,5
3,-8,-11,3,6,-9,2,-11,0,-24,-15,5
3,-8,-11,3,7,-9,3,-10,0,-24,-15,4
4,-8,-12,3,7,-10,3,-9,0,-24,-15,4
4,-9,-13,3,8,-11,3,-9,0,-24,-15,4
4,-10,-14,3,9,-12,3,-9,1,-24,-15,4
4,-9,-13,3,9,-11,3,-9,2,-24,-14,4
3,-8,-11,2,7,-9,3,-8,4,-24,-13,5
2,-7,-9,3,5,-8,3,-7,5,-23,-11,7
0,-7,-7,4,4,-7,4,-5,5,-22,-9,8
0,-7,-6,4,3,-7,4,-4,6,-21,-8,8
1,-6,-7,3,4,-7,5,-3,6,-20,-8,8
2,-5,-9,2,6,-7,6,-3,6,-20,-8,8
2,-5,-8,1,5,-7,8,-4,7,-19,-8,8
2,-3,-6,1,4,-5,11,-3,8,-18,-7,9
2,-2,-4,0,4,-3,13,-1,10,-18,-7,9
3,-1,-3,0,4,-3,15,1,11,-17,-7,10
2,-1,-3,0,3,-3,18,3,12,-15,-6,11
2,0,-3,0,2,-2,19,4,13,-15,-5,12
2,1,-1,-1,2,-1,19,3,15,-15,-4,11
3,2,-1,-2,2,0,17,1,16,-15,-4,11
4,3,-1,-3,3,1,15,0,16,-15,-5,11
3,3,0,-3,2,1,13,1,14,-16,-5,11
3,3,1,-3,1,2,12,2,11,-16,-5,11
3,3,0,-3,1,1,9,-1,10,-17,-5,10
4,3,-1,-3,2,1,7,-6,11,-17,-4,10
5,3,-1,-3,3,1,6,-8,10,-16,-4,10
5,4,-1,-3,3,1,5,-6,10,-16,-3,10
4,5,0,-3,2,2,5,-3,9,-16,-3,11
3,5,1,-3,1,3,6,-1,10,-16,-3,11
3,3,0,-2,1,2,7,-1,12,-15,-3,11
3,0,-2,-1,2,0,9,-2,12,-15,-2,11
3,0,-2,-1,2,-1,10,-2,10,-14,-2,11
2,1,-1,-1,2,0,11,0,9,-13,-2,11
2,1,-1,-1,1,0,12,2,12,-12,-1,12
1,0,-1,0,1,0,13,4,14,-10,0,13
1,0,-1,0,2,0,13,7,16,-10,0,13
1,0,-2,0,2,-1,14,9,17,-9,0,13
1,0,-2,0,2,-1,15,10,18,-9,0,13
1,0,-2,0,2,-1,16,10,19,-9,0,12
3,0,-4,-1,4,-3,16,8,18,-11,-1,11
6,-1,-8,-2,7,-5,15,5,17,-12,-2,10
6,-1,-8,-2,7,-5,16,3,17,-13,-3,10
5,-1,-7,-2,6,-4,16,1,17,-13,-3,11
5,-1,-6,-2,6,-4,17,0,16,-13,-3,11
5,-1,-6,-2,6,-4,17,0,15,-13,-3,11
5,-1,-6,-2,5,-4,17,0,13,-13,-3,11
5,-1,-6,-2,5,-4,17,0,13,-13,-3,10
4,-1,-5,-2,4,-4,17,-2,14,-13,-4,9
4,-1,-5,-2,4,-3,17,-4,14,-14,-4,9
3,-1,-4,-1,3,-3,17,-4,12,-14,-5,9
2,-1,-4,0,3,-3,18,-5,11,-14,-5,9
3,-2,-5,0,3,-3,18,-5,11,-15,-5,9
4,-1,-5,0,4,-3,17,-6,10,-15,-5,9
4,-1,-5,-1,5,-3,17,-7,9,-16,-5,9
3,-1,-4,0,4,-3,17,-7,9,-16,-5,9
2,-1,-4,0,3,-3,18,-7,10,-16,-4,10
2,-2,-4,0,3,-3,18,-8,10,-15,-4,10
1,-2,-4,1,3,-3,17,-10,9,-15,-4,10
1,-3,-4,1,3,-3,17,-11,10,-15,-4,10
2,-2,-4,0,3,-3,17,-12,11,-15,-4,10
3,-2,-4,0,4,-3,17,-12,11,-14,-4,10
2,-1,-3,0,3,-2,17,-11,10,-13,-4,10
2,-1,-2,0,2,-1,17,-7,10,-12,-4,10
3,-1,-4,-1,3,-2,17,-6,10,-13,-4,10
4,-1,-6,-1,5,-3,17,-9,10,-13,-5,10
3,-1,-5,-1,4,-3,17,-12,10,-14,-5,10
2,-1,-4,0,3,-2,16,-13,10,-14,-5,10
2,-2,-4,0,3,-3,16,-13,9,-14,-5,10
2,-3,-5,0,3,-3,16,-12,8,-14,-5,10
1,-3,-4,1,2,-3,16,-11,9,-14,-4,11
0,-3,-3,2,1,-3,17,-9,10,-14,-3,12
-1,-3,-2,2,0,-3,17,-8,11,-13,-3,13
-1,-3,-2,2,0,-3,17,-9,11,-12,-3,12
0,-3,-4,2,2,-3,16,-10,11,-11,-3,12
1,-4,-5,2,3,-4,16,-11,11,-11,-4,12
1,-4,-6,2,3,-4,16,-12,10,-12,-4,12
1,-4,-5,2,3,-4,15,-12,9,-12,-4,11
1,-4,-5,1,3,-4,14,-12,8,-13,-5,11
1,-4,-5,1,3,-4,14,-11,9,-13,-5,11
1,-4,-5,1,3,-5,14,-9,9,-13,-5,11
1,-4,-5,1,3,-5,14,-9,9,-13,-5,11
1,-4,-6,1,3,-5,14,-11,8,-13,-6,11
1,-4,-6,1,4,-5,13,-12,7,-13,-6,11
2,-4,-6,1,4,-5,13,-11,8,-13,-6,11
2,-4,-6,1,4,-5,13,-10,10,-13,-7,11
3,-4,-7,0,5,-5,13,-11,11,-13,-7,11
4,-4,-8,0,5,-5,12,-12,11,-13,-7,10
3,-3,-6,0,4,-4,13,-11,10,-12,-7,10
1,-3,-4,1,2,-3,14,-7,12,-11,-6,11
0,-2,-2,1,1,-1,15,-3,16,-11,-7,10
0,0,0,0,0,0,16,1,21,-12,-8,9
0,2,2,-1,-1,2,17,6,26,-13,-10,7
0,3,4,-2,-1,4,20,14,31,-12,-11,6
0,4,4,-2,-2,5,22,24,36,-11,-11,6
1,5,4,-3,-2,5,22,33,42,-8,-10,7
2,7,4,-5,-1,6,21,39,48,-4,-8,9
4,9,6,-7,-1,8,19,43,54,1,-3,12
6,11,5,-9,0,8,16,46,60,10,4,18
11,13,2,-12,4,8,12,50,67,24,16,26
17,16,0,-17,9,8,5,53,73,42,32,38
23,20,-2,-22,13,8,-4,52,76,62,52,54
28,24,-3,-26,16,10,-13,44,76,83,73,71
31,30,0,-31,16,15,-23,29,74,104,94,89
33,37,4,-36,14,21,-32,7,67,124,116,107
35,45,10,-40,12,28,-39,-18,52,139,134,123
35,52,16,-44,9,35,-46,-44,30,145,145,135
34,57,22,-46,6,40,-51,-69,4,141,148,141
32,57,25,-45,3,41,-52,-89,-19,132,143,140
28,52,24,-40,2,38,-49,-99,-36,119,134,133
25,44,19,-34,3,31,-44,-101,-48,100,118,120
22,35,13,-28,4,23,-37,-98,-55,77,95,103
19,26,7,-23,5,16,-31,-92,-57,52,70,84
16,19,3,-18,5,11,-24,-82,-55,27,45,64
13,13,0,-13,5,7,-18,-67,-50,8,25,47
11,9,-1,-10,6,4,-12,-55,-43,-5,11,34
9,8,-2,-9,6,4,-7,-46,-36,-14,2,26
8,8,0,-8,5,5,-3,-39,-30,-18,-2,21
7,8,1,-8,3,5,1,-33,-24,-19,-4,19
5,8,4,-7,1,6,5,-26,-18,-17,-5,17
2,10,8,-6,-3,9,9,-18,-10,-15,-5,16
0,11,11,-5,-6,11,13,-14,-4,-13,-5,16
-1,10,11,-5,-6,10,17,-13,1,-12,-5,15
0,9,9,-4,-5,9,18,-11,6,-11,-5,15
0,8,7,-4,-3,8,18,-5,9,-10,-5,14
-1,8,8,-3,-4,8,16,0,13,-8,-4,14
-1,7,9,-2,-4,8,13,2,16,-7,-4,14
1,7,6,-3,-2,6,10,1,16,-8,-5,13
2,6,4,-4,-1,5,7,0,16,-9,-6,11
1,5,4,-3,-2,4,6,0,16,-9,-7,10
0,3,3,-2,-2,4,5,1,17,-9,-8,9
0,3,3,-1,-2,3,5,3,18,-10,-9,9
0,3,3,-1,-2,3,5,3,20,-9,-9,9
0,3,3,-1,-1,3,5,4,21,-9,-9,9
0,2,3,-1,-1,3,4,4,22,-10,-9,8
0,2,2,0,-1,2,4,1,23,-10,-9,8
0,1,2,0,-1,1,5,0,22,-10,-9,7
0,1,0,0,0,1,5,2,21,-10,-9,7
1,1,0,-1,0,1,5,6,21,-9,-9,7
1,1,0,-1,0,1,5,7,23,-9,-9,7
0,1,0,-1,0,2,6,7,25,-8,-9,7
0,0,0,0,0,1,6,8,25,-6,-8,7
0,0,0,0,0,1,7,11,26,-5,-8,8
1,1,0,0,0,1,8,13,27,-5,-7,8
1,1,0,0,0,1,9,10,27,-5,-7,8
0,0,0,0,0,0,9,6,24,-5,-8,8
0,0,0,0,0,0,9,6,22,-5,-8,7
0,0,0,0,0,0,10,8,23,-5,-8,7
0,0,0,0,0,0,10,10,24,-6,-8,7
1,0,-1,0,1,0,10,10,24,-6,-9,7
2,0,-3,0,3,-1,10,9,22,-7,-10,6
3,0,-4,0,4,-2,10,7,20,-9,-11,5
3,0,-4,0,3,-2,11,4,19,-9,-10,5
3,-1,-3,0,3,-2,11,1,18,-8,-10,5
2,-1,-3,0,2,-2,11,0,17,-8,-9,6
1,-2,-3,0,2,-2,11,-1,16,-8,-9,6
-1,-2,-1,2,0,-1,12,0,16,-7,-8,7
-3,-3,0,3,-2,-1,14,0,16,-4,-7,8
-4,-4,1,4,-2,-2,15,0,16,-2,-5,9
-4,-4,0,4,-2,-2,15,1,15,-2,-5,9
-3,-4,-1,4,-1,-3,14,2,15,-1,-4,9
-3,-4,-1,4,-1,-3,14,3,17,-1,-4,9
-3,-4,0,4,-1,-2,13,3,19,-1,-3,9
-2,-3,0,3,-1,-2,13,3,20,-1,-4,8
0,-3,-2,1,1,-2,13,3,20,-1,-4,8
2,-3,-4,0,2,-3,12,2,18,-1,-4,7
1,-3,-4,1,2,-3,12,1,16,-1,-4,7
1,-3,-4,1,2,-3,11,2,13,0,-3,7
0,-3,-3,1,2,-3,10,4,12,0,-3,7
0,-3,-2,2,1,-2,10,5,13,0,-2,7
0,-2,-2,1,0,-2,8,4,13,0,-3,7
1,-2,-2,0,1,-2,7,3,13,0,-3,7
2,-3,-4,0,3,-3,6,4,13,0,-3,6
2,-4,-6,1,4,-4,6,7,13,0,-2,7
1,-3,-4,1,3,-3,4,10,11,0,-1,7
0,0,-1,0,1,-1,2,9,7,1,-1,7
1,1,0,0,1,0,0,7,5,2,0,7
1,0,-1,0,1,0,0,6,6,4,1,8
2,0,-2,0,2,-1,-1,7,9,5,1,9
3,0,-2,-1,2,-1,-2,10,10,6,2,9
2,0,-2,-1,2,0,-2,13,11,7,3,10
2,1,-1,-1,2,0,-2,12,11,7,4,10
2,1,-1,-1,2,0,-3,10,11,8,5,10
3,1,-1,-2,3,0,-5,9,10,9,6,10
4,2,-1,-2,3,0,-5,11,9,10,7,11
4,3,-1,-2,2,0,-6,14,10,11,8,11
3,2,0,-2,1,1,-6,16,11,12,9,12
1,1,0,-1,0,1,-7,17,12,13,10,14
1,1,0,-1,0,1,-8,19,12,14,11,14
3,2,-1,-2,2,1,-9,19,13,14,10,14
4,1,-2,-3,3,0,-10,19,14,14,10,14
4,1,-2,-3,3,0,-11,20,15,14,11,14
3,2,-1,-3,3,0,-11,21,16,14,11,15
3,2,-1,-3,2,1,-12,21,15,15,12,15
3,3,0,-3,2,1,-13,21,14,15,12,16
4,3,0,-3,2,2,-14,22,14,15,13,16
3,3,0,-3,2,2,-14,23,16,16,13,16
3,2,0,-3,2,1,-13,23,18,16,13,17
3,2,0,-3,2,1,-13,22,19,16,14,17
3,2,-1,-3,2,1,-14,22,18,16,15,17
4,2,-2,-3,3,0,-15,24,17,15,15,17
4,1,-3,-2,3,0,-16,26,17,14,14,17
4,1,-3,-2,4,-1,-17,26,17,13,13,16
4,0,-4,-2,4,-2,-17,26,18,12,12,16
4,0,-5,-1,5,-2,-18,25,18,11,12,15
5,-1,-6,-1,6,-3,-18,24,19,10,11,15
6,-2,-7,-1,7,-5,-18,24,18,9,10,14
6,-2,-8,-1,7,-5,-19,24,17,7,10,14
5,-2,-7,-1,6,-5,-19,25,16,6,9,13
4,-2,-6,-1,5,-4,-18,26,15,6,9,13
3,-2,-5,0,3,-3,-17,27,15,6,9,14
1,-2,-3,0,2,-2,-16,30,15,5,9,14
0,-2,-3,1,1,-3,-15,32,16,4,9,14
1,-3,-5,2,3,-4,-15,30,16,3,8,14
2,-4,-7,2,4,-5,-14,27,16,2,8,14
2,-5,-8,2,5,-6,-15,27,16,0,7,13
3,-4,-8,1,6,-6,-16,27,16,-2,5,12
4,-4,-8,0,6,-5,-17,27,18,-3,5,11
4,-4,-8,0,6,-5,-17,29,20,-4,4,11
4,-4,-8,0,6,-6,-17,30,22,-5,4,11
4,-4,-7,0,6,-5,-16,31,25,-5,4,11
3,-3,-5,0,5,-4,-16,32,28,-5,3,11
3,-1,-4,0,4,-2,-15,32,29,-5,3,11
3,0,-3,0,3,-1,-15,33,28,-6,2,11
3,0,-2,-1,3,-1,-14,33,27,-6,2,10
3,0,-2,-1,3,0,-12,33,26,-7,2,10
3,1,-1,-2,2,0,-9,34,27,-7,2,9
3,1,-1,-2,2,0,-6,34,27,-7,1,8
5,2,-1,-3,3,0,-5,34,28,-9,0,7
7,4,-2,-5,5,1,-5,32,27,-11,-2,6
8,4,-3,-6,6,1,-6,32,27,-12,-3,5
7,4,-2,-5,5,1,-8,33,27,-12,-3,5
4,5,0,-4,2,3,-10,35,29,-11,-1,6
1,5,4,-2,-1,5,-11,37,31,-10,-10,6
-1,5,6,-1,-4,5,-12,34,31,-10,0,7
-3,4,7,0,-5,5,-14,30,28,-11,209,7
-3,4,7,0,-5,5,-16,29,25,-12,590,6
-1,4,5,-1,-3,4,-19,30,24,-14,723,5
0,4,4,-1,-1,4,-21,30,25,-16,534,4
0,4,5,-1,-2,4,-22,29,26,-16,333,4
-2,4,6,0,-3,5,-22,29,26,-16,216,4
-2,3,5,0,-3,4,-22,29,24,-15,135,3
-2,2,4,0,-3,3,-21,30,24,-14,80,3
-2,2,4,0,-3,3,-20,31,26,-13,47,4
-2,2,4,0,-3,3,-18,33,29,-12,27,4
-2,1,3,0,-2,2,-18,35,29,-12,15,4
0,0,1,0,-1,1,-18,37,28,-12,7,3
1,0,0,0,1,0,-18,39,29,-13,1,3
0,0,1,0,0,1,-17,38,30,-13,-1,2
-2,1,3,1,-2,2,-17,36,30,-14,-4,1
-1,0,1,0,-1,0,-16,36,29,-15,-6,0
1,-1,-3,0,2,-2,-16,36,29,-18,-8,-2
1,-2,-4,0,3,-3,-16,35,29,-19,-9,-2
1,-2,-3,1,2,-2,-16,33,28,-19,-10,-2
0,-2,-2,2,1,-2,-16,32,25,-18,-10,-2
0,-2,0,2,0,-1,-15,29,22,-18,-10,-2
-2,-2,1,3,-2,0,-14,24,20,-18,-10,-2
-3,-2,3,3,-3,0,-14,21,20,-19,-10,-3
-4,-1,3,3,-4,1,-14,21,20,-19,-10,-3
-5,-1,3,3,-5,1,-14,22,21,-20,-10,-3
-5,-1,3,3,-4,0,-13,23,21,-20,-10,-3
-4,-2,1,3,-3,0,-14,24,20,-20,-10,-3
-3,-3,0,3,-2,-1,-15,24,20,-20,-11,-3
-2,-4,-2,4,-1,-2,-15,24,20,-21,-11,-4
-3,-4,-1,4,-1,-2,-15,24,20,-21,-11,-4
-3,-3,0,3,-2,-1,-15,23,19,-21,-10,-4
-3,-2,0,3,-2,-1,-15,22,18,-21,-11,-4
-2,-2,0,3,-1,-1,-16,20,18,-21,-11,-5
-2,-3,0,3,-1,-2,-16,18,18,-22,-12,-6
-3,-3,0,3,-1,-2,-17,17,18,-22,-12,-7
-2,-2,0,2,-1,-1,-17,17,17,-22,-12,-7
-1,-2,-1,2,0,-2,-18,18,16,-22,-12,-7
-1,-4,-2,3,0,-3,-18,19,16,-22,-12,-7
-3,-5,-2,4,-1,-3,-18,19,16,-22,-12,-7
-4,-6,-1,5,-2,-3,-18,18,16,-21,-12,-7
-5,-6,-1,5,-3,-4,-18,17,17,-21,-11,-7
-6,-6,0,6,-4,-3,-17,18,18,-19,-10,-6
-6,-6,0,6,-4,-3,-17,18,18,-19,-10,-7
-6,-6,0,5,-3,-2,-17,15,16,-20,-10,-8
-5,-5,0,5,-3,-2,-17,13,15,-21,-10,-8
-5,-5,0,5,-2,-2,-18,13,14,-22,-10,-9
-3,-4,0,4,-2,-2,-18,14,14,-22,-10,-9
-3,-3,0,3,-2,-1,-18,14,13,-22,-10,-10
-4,-2,1,3,-3,0,-18,14,13,-22,-10,-11
-4,-2,2,3,-3,0,-18,12,13,-23,-10,-12
-4,-2,2,3,-3,0,-17,10,11,-23,-10,-12
-4,-2,1,3,-3,0,-16,8,7,-23,-10,-12
-4,-3,0,3,-2,-1,-14,7,6,-22,-10,-12
-5,-4,0,4,-3,-1,-12,9,7,-21,-9,-11
-6,-4,1,4,-3,0,-11,10,8,-21,-10,-11
-5,-4,0,4,-2,-1,-11,9,7,-22,-12,-13
-4,-5,-1,4,-1,-3,-12,8,4,-23,-12,-14
-3,-6,-3,5,0,-5,-11,4,3,-23,-12,-15
-4,-7,-4,6,0,-6,-10,0,4,-22,-12,-15
-5,-8,-3,6,0,-6,-8,-1,5,-21,-11,-15
-4,-7,-4,5,0,-5,-7,0,5,-21,-12,-16
-2,-5,-3,3,0,-4,-6,1,5,-21,-13,-17
-2,-4,-2,3,0,-2,-4,2,4,-21,-13,-18
-3,-4,-1,3,-1,-2,-1,4,3,-21,-13,-18
-4,-5,-1,4,-1,-2,3,5,2,-20,-13,-18
-5,-7,-2,5,-1,-4,7,4,2,-20,-12,-18
-5,-7,-1,6,-2,-4,11,3,1,-19,-12,-18
-7,-6,1,6,-4,-2,15,2,0,-19,-11,-17
-10,-5,4,7,-7,0,19,2,0,-18,-10,-17
-11,-6,5,8,-8,0,23,3,0,-17,-9,-16
-10,-7,2,8,-6,-2,26,4,0,-18,-10,-17
-6,-8,-1,7,-2,-5,27,5,0,-20,-11,-18
-4,-9,-5,7,0,-7,28,4,2,-21,-12,-19
-3,-10,-7,7,2,-8,29,0,2,-22,-12,-20
-3,-10,-6,7,1,-8,29,-3,-1,-21,-13,-20
-5,-9,-5,7,0,-7,29,-3,-5,-20,-13,-20
-6,-9,-4,7,-1,-7,29,-1,-7,-20,-13,-21
-6,-9,-4,7,-1,-7,29,0,-7,-20,-13,-22
-6,-9,-4,7,-1,-6,29,0,-6,-20,-13,-22
-6,-10,-4,7,-1,-6,29,-2,-6,-19,-12,-22
-6,-10,-4,8,-1,-7,30,-3,-7,-18,-11,-22
-7,-11,-4,9,-1,-7,30,0,-6,-17,-10,-22
-8,-12,-3,10,-2,-7,31,3,-4,-16,-9,-21
-8,-12,-3,10,-3,-7,31,7,-2,-16,-9,-21
-7,-12,-4,9,-2,-8,31,8,-2,-15,-9,-22
-5,-11,-5,8,0,-8,31,3,-2,-15,-9,-22
-4,-9,-4,7,0,-7,32,0,-2,-14,-9,-23
-4,-9,-4,6,0,-6,33,0,0,-14,-9,-23
-4,-9,-3,6,0,-6,35,4,3,-13,-9,-23
-4,-8,-3,6,0,-6,36,9,7,-12,-8,-23
-3,-6,-3,4,0,-5,38,13,10,-11,-8,-23
-2,-3,-1,2,0,-3,41,17,14,-10,-8,-23
-1,1,2,0,-2,1,45,22,19,-9,-9,-24
-1,6,7,-3,-4,7,49,28,27,-5,-7,-23
-4,10,14,-3,-9,12,53,35,36,0,-4,-21
-5,13,18,-4,-12,16,55,41,43,4,0,-18
-3,14,19,-5,-11,17,56,48,47,8,3,-16
-1,16,18,-7,-10,18,54,56,51,15,8,-12
1,20,18,-10,-9,19,51,63,56,23,16,-7
4,22,16,-13,-6,19,44,67,61,34,26,0
9,22,12,-15,-2,17,36,68,64,49,40,11
14,22,8,-18,3,15,25,65,63,65,57,23
19,25,6,-22,7,16,14,55,55,82,75,38
24,30,6,-27,9,18,2,38,42,98,94,54
29,36,8,-33,11,22,-9,16,26,112,113,70
32,44,12,-38,9,28,-18,-9,5,118,126,82
31,50,18,-40,6,34,-24,-35,-19,114,129,87
29,51,22,-40,3,36,-25,-59,-44,102,124,85
25,46,22,-36,1,34,-23,-76,-64,87,114,78
18,39,21,-29,-1,29,-17,-85,-78,71,100,66
12,31,20,-22,-3,25,-10,-88,-89,52,82,52
6,24,18,-16,-5,21,-2,-85,-94,33,61,36
3,18,16,-11,-6,18,4,-77,-93,13,43,20
1,14,14,-8,-6,15,9,-66,-88,-4,37,5
0,12,12,-6,-6,12,11,-54,-79,-15,30,-6
0,10,10,-5,-6,10,13,-44,-68,-22,36,-14
-1,9,9,-4,-5,9,14,-35,-55,-24,225,-20
-1,8,9,-4,-5,8,16,-27,-43,-23,717,-22
-2,7,9,-3,-5,8,18,-21,-32,-20,461,-23
-3,6,10,-2,-6,8,19,-17,-25,-17,-433,-23
-4,6,10,-1,-6,8,20,-15,-20,-15,-1000,-23
-4,5,9,-1,-6,7,21,-13,-17,-14,-818,-25
-4,4,8,0,-5,6,22,-11,-14,-13,-309,-26
-4,2,7,0,-5,5,23,-9,-11,-13,-181,-26
-5,1,6,1,-5,4,24,-9,-7,-13,-104,-27
-4,0,5,2,-5,2,25,-10,-4,-12,-58,-27
-3,0,3,2,-4,1,26,-10,-1,-12,-34,-29
-3,0,2,2,-3,1,27,-10,0,-13,-22,-30
-3,-1,2,2,-3,0,28,-10,1,-13,-16,-31
-4,-2,2,3,-3,0,29,-11,2,-12,-13,-32
-5,-3,2,4,-4,0,30,-11,2,-12,-12,-33
-6,-4,1,5,-4,-1,31,-10,2,-11,-12,-33
-6,-5,0,5,-4,-2,32,-8,2,-11,-13,-33
-5,-5,0,5,-3,-2,32,-8,3,-12,-14,-33
-5,-6,0,5,-3,-3,32,-9,3,-12,-15,-34
-5,-6,0,5,-2,-3,32,-11,4,-12,-16,-35
-4,-6,-1,5,-2,-3,32,-10,5,-12,-16,-36
-4,-7,-2,5,-1,-4,32,-11,6,-12,-17,-37
-4,-7,-2,5,-1,-5,32,-14,7,-13,-17,-37
-5,-8,-3,6,-1,-5,33,-15,8,-13,-18,-37
-5,-8,-3,6,-2,-5,33,-13,8,-13,-18,-38
-5,-8,-3,6,-1,-6,32,-12,7,-13,-19,-38
-3,-8,-5,6,0,-6,32,-10,6,-14,-20,-39
-2,-8,-6,6,1,-7,31,-9,6,-14,-20,-39
-2,-8,-5,6,1,-7,31,-14,6,-13,-19,-39
-4,-8,-3,6,0,-5,31,-19,6,-12,-19,-39
-5,-7,-1,6,-2,-4,32,-20,6,-12,-18,-39
-5,-8,-2,6,-2,-5,33,-19,6,-12,-18,-39
-5,-9,-3,6,-1,-6,32,-18,7,-12,-18,-39
-5,-9,-3,7,-2,-6,32,-18,9,-11,-18,-38
-7,-9,-1,8,-4,-4,32,-16,10,-10,-18,-38
-9,-8,1,8,-5,-3,32,-15,11,-9,-18,-38
-7,-7,0,7,-3,-3,31,-15,10,-9,-18,-38
-5,-8,-2,6,0,-5,30,-16,9,-7,-18,-39
-4,-8,-4,5,0,-6,30,-16,9,-4,-18,-40
-4,-8,-4,5,0,-6,30,-15,9,-1,-19,-40
-4,-8,-4,5,0,-6,29,-16,8,0,-20,-41
-3,-8,-5,5,0,-6,29,-17,7,2,-21,-42
-3,-8,-5,5,1,-7,29,-19,6,4,-21,-42
-4,-8,-4,6,0,-6,29,-20,5,6,-21,-42
-5,-8,-3,6,0,-5,29,-21,5,9,-20,-42
-5,-9,-3,7,0,-5,29,-20,5,11,-20,-42
-5,-8,-3,7,0,-5,30,-19,5,13,-19,-42
-4,-8,-4,6,0,-6,30,-20,5,14,-20,-42
-4,-8,-5,6,1,-7,30,-20,5,14,-20,-42
-3,-8,-5,6,0,-6,30,-21,5,16,-20,-42
-2,-7,-5,5,1,-6,30,-22,5,17,-20,-42
-1,-7,-6,4,2,-6,30,-22,5,19,-20,-42
-1,-8,-6,4,2,-6,30,-23,6,20,-19,-42
-2,-8,-5,5,1,-6,29,-22,6,22,-19,-42
-4,-9,-4,6,0,-6,29,-21,6,24,-18,-42
-5,-9,-3,7,-1,-5,30,-20,6,25,-16,-42
-6,-8,-2,7,-2,-5,29,-18,7,26,-16,-42
-4,-7,-2,6,-1,-5,28,-19,7,27,-16,-42
-3,-7,-3,5,0,-5,27,-21,7,27,-16,-42
-3,-7,-3,6,-1,-5,27,-23,8,28,-16,-41
-3,-7,-2,6,-1,-5,27,-21,9,29,-16,-41
-2,-7,-4,6,0,-6,27,-20,10,31,-16,-42
-2,-7,-5,6,2,-7,26,-19,11,32,-16,-42
-1,-7,-6,5,2,-7,25,-20,11,32,-15,-42
0,-8,-8,5,4,-8,25,-21,11,32,-15,-42
0,-9,-10,5,5,-9,24,-21,10,33,-14,-42
0,-10,-10,5,5,-10,23,-21,10,36,-13,-41
0,-10,-9,5,4,-9,23,-21,11,38,-12,-40
-1,-10,-8,5,3,-9,23,-21,11,41,-10,-39
-1,-10,-8,5,2,-9,23,-21,10,43,-9,-39
-2,-9,-7,5,2,-8,22,-20,11,44,-8,-38
-2,-9,-6,5,2,-8,22,-18,13,46,-7,-38
-2,-9,-7,6,2,-8,21,-16,14,47,-6,-37
-2,-9,-7,6,2,-8,20,-16,15,47,-5,-37
-1,-9,-7,5,2,-8,19,-20,15,47,-5,-36
0,-8,-8,4,3,-8,17,-23,14,47,-5,-36
0,-8,-7,4,3,-7,16,-24,15,47,-4,-36
0,-8,-7,4,3,-7,16,-24,17,48,-3,-34
0,-8,-7,4,3,-8,16,-22,17,48,-2,-34
1,-8,-8,3,5,-8,16,-20,16,49,-2,-34
3,-7,-9,2,6,-8,15,-20,15,49,-3,-35
5,-6,-10,1,8,-8,15,-20,15,49,-3,-35
6,-4,-9,0,8,-7,16,-20,15,50,-3,-34
4,-3,-6,0,5,-4,17,-18,16,51,-2,-33
1,-2,-2,1,1,-2,20,-17,17,52,0,-31
0,-1,0,1,0,0,22,-18,16,52,0,-30
0,0,1,0,0,1,23,-19,14,52,0,-30
0,1,1,0,0,1,24,-18,13,52,0,-30
0,2,1,0,0,1,26,-18,12,52,0,-30
0,3,3,0,-1,2,26,-19,12,52,0,-30
0,4,4,-1,-1,4,24,-19,13,51,0,-30
1,5,5,-2,-1,4,22,-19,16,50,-1,-30
1,5,4,-2,-1,4,20,-20,18,49,-2,-30
1,4,4,-2,-1,3,19,-23,19,48,-2,-30
1,3,4,-2,-1,3,18,-27,18,47,-3,-30
1,4,3,-3,-1,3,16,-29,15,45,-5,-31
2,4,3,-3,0,3,15,-28,12,43,-6,-32
2,4,2,-2,0,2,15,-27,10,41,-6,-32
1,3,2,-1,0,2,16,-30,8,41,-6,-32
-1,2,4,0,-3,3,17,-35,8,42,-5,-31
-3,1,5,2,-4,3,18,-37,7,43,-4,-30
-3,0,4,2,-4,2,18,-33,7,43,-4,-30
-3,-1,3,2,-3,1,19,-29,7,44,-3,-29
-3,-1,2,2,-2,0,20,-26,8,44,-3,-29
-3,-2,1,2,-2,0,21,-25,8,43,-3,-29
-3,-2,1,3,-2,0,21,-24,9,43,-3,-29
-4,-2,2,3,-3,0,21,-24,10,42,-3,-29
-4,-2,2,3,-3,0,21,-24,9,42,-4,-30
-2,-2,0,2,-2,-1,21,-25,6,40,-5,-31
0,-3,-3,2,1,-3,20,-23,3,37,-8,-33
0,-4,-4,2,3,-4,20,-24,1,36,-9,-35
-1,-4,-2,2,1,-3,20,-29,0,35,-9,-35
-3,-4,0,3,-1,-2,21,-35,-1,34,-9,-35
-5,-4,0,4,-2,-2,22,-37,-3,34,-9,-34
-5,-4,0,5,-3,-2,23,-39,-5,33,-10,-35
-5,-4,0,5,-3,-2,23,-39,-8,31,-12,-35
-5,-5,0,5,-2,-2,24,-40,-10,29,-13,-36
-5,-5,0,5,-2,-3,24,-40,-12,28,-14,-37
-5,-5,0,5,-2,-3,23,-39,-12,27,-15,-38
-6,-6,0,6,-3,-3,24,-40,-12,27,-16,-38
-6,-7,0,7,-3,-4,24,-43,-13,27,-16,-38
-6,-6,0,6,-3,-3,25,-47,-15,26,-16,-38
-6,-6,-1,6,-2,-3,25,-48,-16,26,-17,-39
-5,-7,-2,6,-2,-4,25,-46,-17,25,-17,-39
-4,-7,-2,6,-1,-4,24,-45,-18,24,-17,-39
-4,-7,-3,6,-1,-5,24,-44,-19,23,-18,-39
-4,-7,-3,6,-1,-5,23,-44,-19,23,-18,-39
-4,-8,-2,6,-1,-5,23,-44,-20,22,-18,-39
-5,-7,-2,6,-1,-4,22,-44,-20,22,-18,-39
-5,-7,-1,6,-2,-4,21,-44,-20,22,-18,-39
-7,-7,0,7,-3,-4,21,-44,-21,22,-18,-39
-7,-7,0,7,-4,-4,21,-45,-22,22,-19,-39
-8,-8,0,8,-4,-4,20,-46,-23,21,-20,-39
-9,-8,2,8,-6,-3,20,-46,-23,21,-21,-40
-10,-8,3,8,-6,-2,20,-47,-21,21,-21,-39
-10,-8,2,8,-6,-2,20,-47,-22,22,-20,-39
-10,-9,2,9,-6,-3,20,-46,-23,22,-20,-38
-10,-9,2,9,-5,-3,20,-46,-24,22,-20,-38
-9,-9,1,9,-5,-4,20,-46,-23,22,-20,-38
-9,-9,1,9,-5,-4,20,-46,-24,22,-20,-38
-9,-9,1,9,-5,-4,19,-47,-25,22,-20,-38
-10,-9,1,10,-5,-4,18,-48,-27,22,-19,-38
-9,-9,1,9,-5,-4,18,-48,-28,22,-19,-38
-9,-9,1,9,-5,-4,18,-48,-29,21,-19,-38
-9,-9,1,9,-4,-4,18,-47,-28,21,-19,-38
-9,-9,0,9,-4,-5,17,-46,-28,20,-20,-38
-9,-9,0,9,-3,-5,17,-49,-29,20,-20,-38
-9,-9,0,9,-3,-5,17,-53,-30,19,-21,-39
-8,-9,-1,8,-3,-5,16,-54,-31,18,-22,-39
-7,-9,-1,8,-2,-5,16,-52,-31,17,-22,-40
-7,-9,-2,8,-2,-5,16,-50,-30,17,-22,-40
-7,-10,-2,8,-1,-6,16,-51,-30,16,-22,-40
-7,-10,-2,8,-1,-7,16,-52,-32,16,-21,-40
-7,-10,-2,8,-2,-7,16,-52,-35,16,-21,-39
-7,-10,-2,8,-2,-6,16,-51,-37,16,-21,-39
-7,-10,-2,8,-2,-6,16,-51,-38,16,-21,-39
-8,-11,-2,9,-3,-6,16,-51,-38,17,-21,-39
-10,-11,0,11,-6,-5,17,-52,-37,17,-20,-38
-12,-10,2,11,-8,-4,17,-51,-37,17,-19,-37
-11,-10,2,11,-7,-3,17,-50,-36,17,-19,-37
-10,-10,1,10,-6,-4,17,-49,-36,16,-20,-38
-9,-9,1,9,-5,-4,16,-47,-37,16,-21,-39
-10,-9,1,9,-6,-4,16,-47,-38,16,-21,-39
-10,-10,1,10,-6,-4,16,-50,-39,16,-21,-39
-10,-10,0,10,-5,-5,16,-54,-39,16,-21,-39
-9,-10,0,10,-5,-5,15,-54,-39,16,-20,-39
-10,-10,0,10,-5,-5,15,-53,-40,17,-20,-38
-10,-10,0,10,-5,-5,15,-51,-41,17,-20,-38
-9,-11,0,10,-5,-5,15,-49,-42,17,-20,-39
-9,-11,-1,10,-4,-6,15,-48,-41,17,-20,-39
-9,-12,-2,10,-4,-7,16,-50,-40,16,-20,-39
-10,-13,-2,11,-4,-8,17,-51,-39,16,-20,-39
-11,-14,-3,12,-4,-8,19,-49,-38,17,-20,-38
-11,-15,-3,13,-4,-9,20,-47,-37,18,-20,-38
-10,-15,-5,12,-3,-9,20,-46,-38,18,-20,-39
-7,-15,-7,11,0,-10,20,-45,-40,18,-20,-39
-5,-15,-10,10,2,-12,19,-47,-45,18,-20,-39
-3,-15,-10,9,3,-12,19,-52,-47,18,-20,-39
-4,-13,-8,9,1,-11,20,-54,-46,20,-18,-38
-7,-12,-4,10,-2,-8,21,-52,-44,21,-16,-37
-9,-12,-2,11,-4,-7,22,-47,-43,22,-15,-36
-9,-12,-2,11,-4,-7,22,-44,-43,23,-14,-36
-10,-12,-2,11,-4,-6,23,-43,-43,24,-14,-35
-11,-12,0,12,-6,-5,24,-42,-42,24,-13,-34
-12,-11,1,12,-7,-4,26,-42,-41,24,-12,-33
-11,-10,2,11,-7,-3,28,-42,-41,24,-12,-32
-11,-9,2,10,-6,-3,29,-41,-41,24,-12,-32
-11,-7,4,9,-7,-1,31,-40,-42,25,-12,-32
-11,-6,5,8,-7,0,32,-39,-41,25,-11,-31
-12,-6,6,9,-9,0,34,-37,-39,26,-10,-30
-12,-5,8,9,-10,1,35,-36,-38,27,-10,-30
-9,-4,6,7,-8,1,34,-36,-39,27,-10,-30
-5,-3,3,4,-4,0,32,-37,-42,26,-11,-30
-2,-2,1,3,-2,0,29,-39,-42,26,-11,-29
-2,-1,2,2,-2,1,24,-41,-42,25,-10,-28
-3,0,4,1,-3,2,20,-42,-42,25,-10,-28
-4,0,5,1,-4,2,16,-42,-44,25,-10,-28
-4,0,5,1,-5,3,14,-43,-45,26,-10,-28
-6,1,7,2,-6,4,12,-43,-44,27,-9,-27
-8,1,9,3,-8,5,12,-41,-42,28,-8,-25
-9,1,11,3,-9,6,12,-39,-41,28,-8,-25
-9,2,11,3,-10,6,12,-36,-40,28,-9,-25
-10,3,13,3,-11,8,14,-31,-37,27,-11,-26
-12,4,16,4,-14,10,16,-22,-31,27,-12,-27
-13,4,18,4,-15,11,18,-12,-25,28,-12,-27
-11,5,17,2,-14,11,18,-4,-19,31,-11,-27
-9,6,16,1,-12,11,18,0,-13,35,-9,-26
-8,7,15,0,-11,12,16,5,-7,43,-3,-22
-5,8,14,-2,-10,12,14,13,0,54,6,-15
-1,10,12,-4,-7,11,10,22,8,69,19,-6
4,13,10,-8,-3,11,3,28,15,89,37,7
11,16,7,-13,2,12,-5,28,16,111,56,22
18,21,4,-19,7,13,-17,19,11,131,77,37
25,27,2,-26,11,15,-29,3,3,151,98,54
32,34,3,-33,14,19,-40,-18,-10,168,117,70
36,43,6,-39,14,24,-50,-46,-29,180,132,84
38,50,12,-43,12,31,-58,-73,-53,183,142,95
34,53,18,-43,7,36,-62,-98,-78,176,143,101
28,50,22,-38,2,36,-60,-117,-101,161,135,98
21,42,21,-31,0,32,-55,-128,-119,143,121,88
15,32,18,-23,-1,25,-48,-131,-130,122,102,73
11,23,14,-17,-2,18,-41,-127,-136,97,78,55
8,17,9,-12,-1,13,-36,-120,-137,70,52,35
6,12,6,-8,-1,9,-31,-112,-134,47,29,16
2,7,4,-4,-2,6,-26,-103,-128,29,11,2
-1,3,3,0,-3,4,-22,-95,-119,19,0,-6
-3,1,3,1,-3,3,-19,-86,-111,14,-4,-11
-4,1,4,2,-4,3,-17,-76,-103,14,-6,-13
-4,1,4,2,-4,3,-15,-69,-96,14,-8,-15
-3,1,5,1,-4,3,-14,-66,-89,14,-9,-18
-2,1,4,1,-3,2,-12,-64,-83,14,-11,-20
-2,0,3,1,-3,1,-10,-60,-77,14,-13,-21
-3,0,3,2,-4,1,-7,-57,-72,14,-14,-22
-3,0,2,2,-4,1,-5,-55,-70,15,-14,-23
-3,0,2,2,-3,1,-3,-53,-69,15,-14,-23
-3,-1,1,3,-2,0,-2,-49,-68,17,-13,-23
-3,-3,-1,4,-1,-2,-1,-44,-68,18,-13,-23
-1,-5,-4,3,1,-4,-1,-40,-68,17,-13,-24
1,-6,-7,2,3,-6,-1,-38,-67,16,-14,-25
1,-6,-8,2,4,-6,0,-38,-65,16,-15,-26
0,-5,-6,2,3,-5,1,-38,-63,15,-15,-26
0,-5,-5,3,2,-5,2,-38,-60,15,-15,-25
-2,-6,-4,4,1,-5,2,-38,-56,15,-15,-25
-3,-6,-3,5,0,-5,3,-39,-54,16,-15,-24
-4,-7,-3,6,0,-5,4,-40,-54,16,-14,-23
-4,-8,-3,6,-1,-5,4,-40,-54,16,-13,-22
-4,-8,-3,6,-1,-5,5,-37,-54,16,-12,-22
-4,-8,-3,6,-1,-5,5,-35,-55,16,-12,-21
-4,-8,-3,6,-1,-5,5,-35,-57,16,-12,-21
-5,-8,-3,6,-1,-5,5,-36,-58,17,-12,-22
-5,-8,-3,6,-1,-5,5,-35,-59,17,-12,-22
-4,-9,-5,6,0,-6,5,-35,-59,17,-12,-22
-4,-9,-6,6,1,-7,5,-34,-59,16,-12,-23
-4,-9,-5,6,0,-7,5,-35,-58,15,-12,-23
-4,-8,-4,6,0,-6,5,-35,-57,15,-12,-23
-3,-8,-5,6,1,-7,5,-35,-56,15,-12,-23
-1,-9,-7,5,2,-8,5,-37,-57,15,-13,-23
-2,-10,-7,6,2,-9,5,-38,-58,16,-12,-22
-4,-11,-6,7,1,-9,6,-35,-58,16,-12,-22
-2,-12,-9,7,3,-10,6,-33,-57,16,-13,-23
1,-12,-13,5,7,-12,5,-34,-57,16,-14,-24
3,-11,-14,4,9,-12,4,-35,-59,14,-15,-25
3,-10,-13,3,9,-11,4,-35,-60,13,-15,-25
2,-10,-12,4,7,-11,5,-33,-60,14,-14,-24
2,-10,-11,4,6,-11,6,-32,-60,15,-14,-23
2,-9,-10,3,6,-10,7,-32,-60,16,-14,-23
1,-8,-9,4,4,-9,7,-31,-60,16,-13,-22
-2,-8,-6,5,2,-8,8,-30,-59,17,-12,-21
-4,-9,-5,6,0,-7,9,-30,-58,18,-11,-20
-5,-9,-5,7,0,-7,10,-28,-58,18,-10,-20
-5,-9,-5,7,0,-7,10,-26,-57,16,-9,-20
-4,-9,-5,6,1,-7,10,-24,-56,12,-9,-20
-3,-10,-6,7,1,-8,10,-23,-56,8,-9,-20
-4,-12,-7,7,1,-9,10,-22,-55,4,-9,-19
-4,-13,-7,8,1,-10,10,-21,-55,1,-9,-19
-4,-13,-7,8,1,-10,10,-19,-55,-1,-9,-19
-3,-13,-8,8,2,-10,10,-17,-53,-3,-9,-19
-2,-13,-10,8,4,-11,10,-16,-51,-5,-9,-18
-2,-12,-10,8,4,-11,11,-15,-49,-6,-8,-18
-2,-11,-9,7,3,-10,11,-13,-49,-7,-8,-17
-1,-11,-9,7,3,-10,12,-11,-50,-8,-8,-17
0,-12,-11,6,5,-12,12,-9,-51,-10,-8,-17
2,-13,-14,6,7,-13,11,-10,-49,-12,-8,-17
3,-13,-15,5,8,-14,11,-10,-48,-13,-8,-17
3,-11,-14,4,8,-13,11,-9,-46,-14,-8,-17
3,-10,-12,4,8,-11,11,-8,-42,-14,-8,-16
3,-10,-13,4,8,-11,11,-6,-40,-13,-7,-15
4,-9,-14,3,9,-11,11,-4,-40,-12,-6,-14
5,-9,-14,3,9,-11,11,-1,-41,-11,-5,-13
4,-7,-11,2,7,-9,12,2,-40,-10,-3,-12
3,-6,-9,1,5,-7,13,5,-39,-9,-2,-10
4,-4,-8,0,6,-6,14,6,-39,-8,-1,-8
5,-3,-7,-1,6,-6,15,5,-39,-7,-1,-7
5,-1,-6,-1,6,-4,17,7,-39,-6,0,-6
4,0,-4,-1,4,-1,18,11,-37,-5,0,-5
3,1,-2,-1,3,0,20,13,-34,-3,2,-3
2,0,-2,-1,3,0,21,15,-31,-2,3,-1
3,1,-2,-2,3,0,22,16,-29,-1,3,0
4,2,-1,-3,3,0,21,16,-28,-1,4,2
5,4,-1,-5,3,1,19,17,-27,-1,4,3
6,5,-1,-5,3,1,16,18,-26,0,5,4
6,5,-1,-6,4,2,14,19,-25,0,6,5
6,6,0,-6,3,3,12,19,-25,0,6,6
6,7,1,-7,3,4,10,18,-25,0,6,6
6,8,2,-7,3,5,8,17,-25,0,6,7
6,7,1,-6,3,4,7,17,-24,-1,6,7
7,6,0,-6,3,3,6,18,-23,-1,6,8
8,6,-1,-7,4,2,5,19,-22,-1,6,8
9,5,-3,-7,6,1,5,20,-22,-2,6,8
10,5,-5,-8,7,0,5,22,-21,-2,5,8
11,5,-6,-8,8,0,5,22,-20,-3,5,8
12,6,-6,-9,9,0,5,21,-20,-3,6,8
13,7,-6,-10,10,0,5,20,-22,-2,6,9
13,7,-6,-10,10,0,5,22,-22,-1,7,9
13,7,-5,-10,9,0,6,26,-20,-1,7,9
12,7,-5,-9,8,0,6,29,-18,-1,8,10
12,7,-5,-9,8,1,6,31,-18,-1,8,11
10,7,-3,-8,6,2,6,33,-19,-1,8,11
7,7,0,-7,4,3,7,34,-20,-1,8,12
6,6,0,-6,3,2,7,33,-20,-2,8,13
7,5,-1,-6,4,2,7,32,-20,-3,8,13
7,5,-1,-6,5,1,7,32,-21,-5,7,13
7,5,-1,-6,5,1,7,31,-22,-6,7,13
7,5,-1,-6,4,2,8,27,-23,-6,7,13
7,5,-1,-6,4,2,9,22,-25,-7,6,12
7,4,-2,-6,5,1,9,20,-27,-9,4,11
7,4,-3,-6,5,0,10,21,-29,-10,3,11
7,3,-4,-6,6,0,10,22,-32,-12,2,10
7,4,-3,-6,5,0,11,23,-34,-13,2,10
7,4,-3,-5,5,0,11,24,-35,-14,1,10
7,3,-4,-5,5,-1,12,25,-35,-15,0,10
7,2,-5,-4,6,-2,12,23,-36,-17,0,9
7,2,-5,-4,6,-2,12,20,-38,-18,-1,8
8,2,-6,-5,6,-2,12,19,-40,-19,-2,8
7,2,-5,-5,6,-2,12,20,-40,-19,-3,7
6,1,-4,-4,5,-2,13,20,-39,-19,-3,7
5,1,-4,-3,4,-2,13,20,-40,-19,-3,7
5,0,-4,-2,4,-3,13,19,-42,-20,-3,7
5,0,-5,-2,5,-3,14,19,-43,-20,-3,6
5,0,-5,-2,5,-3,14,18,-44,-21,-3,6
6,0,-5,-3,5,-2,15,17,-44,-22,-4,5
6,1,-4,-3,5,-2,15,17,-45,-22,-5,5
5,0,-4,-3,4,-2,16,17,-44,-22,-5,6
4,0,-5,-2,4,-3,17,16,-44,-21,-5,6
6,-1,-7,-2,6,-4,17,14,-46,-22,-6,5
7,-1,-8,-3,8,-5,17,11,-48,-23,-7,4
7,-1,-8,-2,8,-5,17,10,-49,-24,-7,3
7,-1,-8,-2,8,-5,17,10,-49,-25,-8,2
7,-1,-8,-2,8,-5,17,10,-49,-26,-8,2
7,-1,-7,-2,7,-4,17,10,-49,-26,-8,2
6,0,-6,-2,6,-3,17,11,-49,-26,-8,2
6,-1,-7,-2,6,-4,18,11,-49,-26,-9,2
6,-2,-8,-2,7,-5,18,11,-48,-26,-9,2
6,-3,-9,-1,8,-6,18,11,-46,-27,-9,2
6,-3,-9,-1,8,-7,18,10,-44,-27,-10,1
7,-3,-10,-2,9,-7,18,9,-45,-27,-10,1
8,-3,-11,-2,9,-7,18,7,-47,-27,-10,1
8,-4,-12,-1,10,-8,18,8,-48,-28,-11,1
9,-5,-13,-1,11,-9,17,10,-48,-28,-11,1
10,-5,-14,-2,12,-9,17,11,-46,-29,-12,1
