leadI,leadII,leadIII,leadaVR,leadaVL,leadaVF,leadV1,leadV2,leadV3,leadV4,leadV5,leadV6
0,0,0,0,0,0,0,-1,-1,-1,-1,-1
-1,0,1,0,-1,1,0,-2,-3,-3,-3,-2
-1,0,3,0,-2,2,0,-3,-5,-3,-4,-3
-2,0,4,0,-3,2,0,-4,-5,-2,-3,-2
-3,0,4,1,-4,2,0,-5,-5,-1,-2,-2
-4,-1,4,2,-4,2,0,-6,-5,-1,-2,-1
-5,-1,4,3,-5,1,0,-6,-5,-1,-1,-1
-6,-2,4,4,-5,1,0,-7,-5,-1,-2,-2
-5,-1,4,3,-5,2,0,-7,-5,-1,-2,-2
-4,0,4,1,-5,3,0,-7,-4,-1,-2,-2
-4,1,4,1,-5,3,0,-7,-4,-1,-2,-2
-4,0,4,1,-5,3,0,-6,-4,-2,-3,-2
-3,0,3,1,-4,2,0,-5,-3,-2,-3,-3
-3,0,2,1,-3,1,0,-4,-3,-2,-4,-3
-3,-1,2,2,-3,0,1,-3,-2,-3,-5,-4
-5,-3,2,4,-3,0,1,-2,-2,-3,-6,-6
-6,-4,2,4,-4,-1,2,-1,-1,-3,-7,-7
-5,-3,2,3,-3,0,2,-1,0,-2,-7,-8
-4,-2,2,2,-3,0,2,-1,0,-2,-8,-8
-4,-1,3,2,-4,0,2,-1,0,-3,-8,-8
-4,-1,3,2,-4,1,2,-2,0,-4,-8,-7
-4,0,4,2,-5,2,2,-3,-1,-4,-7,-6
-4,0,5,2,-5,2,2,-4,-2,-3,-5,-3
-4,0,5,2,-5,2,1,-6,-3,-3,-4,-1
-4,0,5,2,-5,3,1,-6,-4,-2,-2,0
-5,0,6,2,-6,3,1,-7,-4,-2,0,1
-5,0,6,2,-6,4,0,-7,-4,-1,0,1
-5,0,6,2,-6,4,0,-7,-4,-1,0,1
-4,1,5,1,-5,4,0,-7,-4,0,0,1
-4,1,5,1,-5,4,0,-6,-3,0,0,0
-4,0,5,2,-5,3,0,-5,-3,0,0,0
-3,0,4,2,-5,3,0,-4,-2,1,0,0
-2,1,4,1,-4,2,1,-3,0,0,-1,0
-2,1,3,1,-3,2,1,-2,0,-1,-2,0
-2,1,3,0,-3,2,1,-3,0,-2,-2,0
-2,1,4,0,-3,3,1,-3,-1,-2,-2,0
-1,2,4,-1,-3,4,1,-3,-1,-2,-2,0
-1,3,5,-1,-3,4,1,-2,0,0,-1,1
0,4,5,-1,-3,5,1,-2,0,1,0,1
0,4,5,-1,-3,5,0,-2,1,1,1,2
0,4,5,-1,-3,5,0,-2,1,2,1,2
0,4,5,-2,-3,5,-1,-2,1,1,0,2
0,5,5,-3,-3,5,-2,-3,1,1,0,1
0,5,5,-2,-3,5,-4,-4,0,0,-1,1
0,5,6,-2,-4,5,-5,-5,0,-1,-1,0
-1,5,6,-2,-4,6,-6,-6,-1,-2,-2,0
-1,5,6,-2,-4,6,-7,-7,-2,-2,-2,-1
0,5,6,-2,-4,6,-7,-8,-2,-3,-3,-1
0,5,6,-2,-4,6,-7,-9,-2,-3,-3,-1
0,6,6,-3,-4,6,-7,-9,-2,-3,-3,-1
1,6,6,-4,-3,6,-7,-8,-1,-3,-4,-1
2,7,6,-5,-3,7,-7,-6,0,-3,-5,-2
2,7,6,-5,-3,7,-6,-3,1,-4,-7,-3
1,7,6,-4,-3,7,-6,-1,2,-5,-8,-5
1,7,6,-4,-3,7,-5,0,1,-7,-9,-6
1,7,7,-4,-3,7,-5,0,0,-8,-9,-5
1,7,7,-4,-3,7,-5,0,-1,-9,-8,-4
1,7,7,-4,-3,7,-5,-3,-3,-9,-6,-3
1,7,6,-4,-3,6,-5,-7,-5,-8,-5,-1
1,6,6,-4,-3,6,-6,-11,-6,-7,-3,0
2,6,5,-4,-2,5,-6,-13,-7,-6,-2,1
2,5,4,-3,-1,4,-7,-14,-8,-5,-1,1
2,4,2,-3,0,2,-9,-16,-9,-4,0,1
3,3,1,-3,0,2,-10,-18,-9,-4,0,1
3,3,1,-3,0,2,-10,-17,-9,-4,0,1
1,3,2,-2,0,2,-10,-16,-9,-4,0,1
0,2,3,0,-2,2,-9,-15,-8,-3,0,1
-1,1,3,0,-3,1,-8,-14,-8,-3,0,1
-3,0,3,1,-3,1,-8,-14,-7,-4,0,0
-4,0,3,2,-4,1,-7,-13,-7,-5,-1,0
-3,0,3,2,-4,1,-7,-13,-7,-5,-2,-1
-3,0,3,2,-3,0,-6,-12,-7,-6,-2,-1
-3,-1,2,2,-3,0,-6,-12,-7,-6,-3,-2
-3,-2,1,3,-2,-1,-5,-11,-7,-6,-3,-2
-3,-3,1,3,-2,-2,-5,-11,-7,-6,-3,-2
-3,-3,1,3,-2,-2,-5,-11,-6,-6,-3,-2
-3,-3,0,3,-2,-2,-5,-10,-6,-6,-3,-2
-4,-4,0,4,-2,-2,-5,-10,-6,-7,-4,-3
-4,-5,0,4,-2,-3,-5,-9,-6,-7,-4,-3
-4,-5,-1,4,-2,-4,-4,-8,-5,-7,-5,-3
-3,-4,-1,4,-1,-3,-4,-8,-5,-7,-5,-2
-2,-3,0,3,-1,-2,-4,-7,-4,-7,-5,-2
-2,-3,0,3,-1,-2,-4,-7,-4,-7,-5,-3
-3,-3,0,3,-1,-2,-4,-7,-4,-7,-6,-4
-3,-3,0,3,-1,-2,-4,-7,-5,-8,-7,-5
-2,-2,0,2,-1,-1,-3,-7,-5,-8,-7,-5
-2,-2,0,2,-1,-1,-3,-7,-5,-7,-7,-5
-2,-3,0,3,-2,-1,-2,-7,-4,-6,-7,-5
-3,-4,0,4,-2,-1,-3,-7,-4,-6,-7,-5
-5,-6,0,5,-2,-2,-3,-7,-4,-6,-7,-5
-6,-7,0,6,-2,-3,-3,-7,-4,-7,-6,-4
-6,-6,0,6,-2,-3,-3,-6,-4,-7,-5,-4
-6,-6,0,6,-2,-3,-2,-6,-4,-7,-5,-3
-6,-7,0,6,-3,-3,-2,-6,-5,-7,-5,-3
-5,-6,0,5,-2,-3,-2,-7,-4,-6,-5,-3
-3,-5,-1,4,-1,-3,-1,-7,-3,-5,-5,-3
-1,-4,-1,3,0,-3,-1,-6,-3,-5,-5,-3
-2,-5,-2,3,0,-4,-1,-6,-3,-6,-5,-3
-3,-6,-2,4,-1,-4,0,-5,-3,-6,-6,-3
-4,-6,-1,5,-1,-4,0,-5,-4,-6,-5,-3
-5,-7,-1,6,-1,-4,0,-5,-5,-5,-4,-3
-6,-8,-1,7,-2,-5,1,-5,-4,-3,-3,-3
-7,-9,-1,8,-3,-5,1,-4,-3,-2,-2,-3
-8,-9,0,9,-4,-5,2,-2,-1,0,-2,-3
-8,-9,0,9,-4,-5,3,0,1,1,-1,-3
-7,-9,0,9,-4,-5,5,2,4,4,0,-2
-7,-10,-2,9,-2,-6,6,4,6,6,2,-1
-5,-11,-5,8,0,-8,6,6,8,9,4,0
-1,-11,-10,6,4,-11,5,7,10,12,8,3
4,-11,-15,4,9,-13,5,9,11,15,12,7
9,-11,-20,1,14,-16,3,10,13,19,18,14
16,-11,-26,-2,20,-19,1,11,17,25,26,22
24,-10,-33,-6,28,-22,-1,14,22,33,37,33
32,-9,-40,-11,36,-25,-3,19,30,44,50,46
43,-7,-48,-18,46,-28,-5,24,38,58,65,59
54,-3,-56,-25,56,-29,-8,28,47,73,82,74
66,2,-63,-34,65,-30,-12,32,57,88,98,90
77,9,-68,-43,72,-29,-17,34,65,101,113,106
86,19,-67,-52,77,-24,-21,35,71,109,126,121
92,29,-62,-60,77,-17,-25,34,74,114,135,134
93,39,-53,-66,73,-8,-28,30,72,111,136,138
88,45,-41,-66,65,1,-29,21,63,98,125,130
76,46,-28,-61,52,8,-28,10,48,77,104,109
58,43,-14,-50,37,13,-23,1,30,52,76,80
39,37,-1,-38,21,17,-17,-8,12,28,49,52
22,32,10,-27,6,20,-12,-15,-4,5,24,28
9,28,19,-18,-5,22,-7,-20,-19,-14,2,9
-1,23,25,-11,-13,23,-3,-21,-31,-32,-18,-8
-9,19,29,-5,-19,23,1,-21,-40,-46,-34,-21
-15,14,31,0,-23,22,4,-21,-48,-57,-47,-31
-18,10,30,3,-24,20,6,-20,-53,-64,-55,-38
-20,7,28,6,-24,18,8,-19,-57,-68,-60,-42
-21,3,26,8,-23,14,9,-19,-59,-69,-63,-45
-23,-2,22,12,-23,10,10,-20,-60,-70,-65,-49
-25,-6,19,15,-22,5,9,-22,-62,-69,-66,-51
-25,-10,15,18,-21,1,8,-24,-62,-68,-66,-53
-25,-14,12,20,-19,-2,7,-25,-63,-67,-66,-53
-26,-16,11,21,-18,-4,6,-27,-63,-66,-66,-52
-27,-18,10,23,-18,-5,4,-29,-62,-64,-64,-51
-28,-20,9,24,-18,-6,4,-28,-58,-60,-60,-48
-27,-20,7,24,-17,-6,3,-25,-52,-55,-54,-44
-25,-20,5,23,-16,-7,3,-20,-45,-48,-48,-40
-22,-18,4,21,-14,-7,3,-14,-38,-42,-43,-36
-18,-16,2,17,-10,-8,4,-9,-31,-35,-37,-31
-13,-14,0,14,-7,-8,5,-4,-25,-29,-31,-26
-10,-13,-1,11,-5,-8,6,-1,-20,-24,-27,-22
-8,-13,-3,10,-2,-8,6,0,-17,-20,-23,-19
-7,-13,-4,10,-1,-9,6,0,-14,-15,-19,-16
-6,-11,-4,9,-1,-8,7,2,-9,-10,-15,-13
-5,-10,-4,7,0,-7,8,5,-5,-6,-10,-10
-5,-8,-4,6,0,-6,9,7,-1,-2,-7,-8
-4,-7,-3,6,-1,-5,9,8,0,0,-4,-6
-4,-7,-2,6,-1,-5,10,7,2,3,-2,-4
-5,-7,-1,6,-2,-5,9,7,3,6,0,-2
-5,-7,-1,5,-2,-5,9,6,4,7,1,0
-5,-6,-1,5,-2,-4,8,5,4,8,2,1
-5,-7,-1,5,-1,-4,7,3,4,8,3,2
-5,-7,-2,5,0,-5,6,2,4,9,4,3
-4,-7,-3,5,0,-5,5,1,4,9,6,3
-3,-7,-4,5,1,-6,4,1,4,10,6,4
-3,-8,-4,5,1,-6,4,2,5,10,6,4
-3,-8,-4,5,1,-6,3,3,5,10,6,4
-3,-8,-4,5,1,-7,3,4,6,10,6,4
-3,-8,-5,5,1,-7,4,5,6,10,6,4
-2,-8,-6,5,1,-7,4,5,7,11,6,4
-2,-7,-6,4,2,-7,4,6,8,11,6,4
-1,-6,-6,4,2,-7,5,7,9,12,7,4
0,-7,-6,4,2,-7,5,7,9,12,7,4
-1,-8,-6,4,2,-7,5,8,9,12,6,4
-1,-8,-6,4,2,-7,5,9,9,12,6,4
0,-8,-6,4,2,-7,6,9,10,12,6,5
0,-7,-6,3,3,-7,6,10,11,12,6,5
0,-7,-6,3,3,-7,7,11,12,12,6,5
-1,-6,-5,4,2,-6,7,11,13,12,5,4
-1,-6,-5,4,2,-6,7,12,13,12,5,4
-1,-6,-4,3,2,-6,7,12,13,12,5,4
0,-6,-4,3,2,-6,7,12,12,11,5,4
-1,-7,-4,3,2,-6,7,12,11,11,5,4
-1,-7,-5,4,2,-6,6,11,11,11,6,4
0,-6,-6,3,3,-7,6,11,10,12,7,5
1,-6,-6,2,4,-7,6,10,10,13,8,6
1,-6,-7,2,4,-7,6,10,11,14,8,7
0,-7,-6,4,3,-7,6,9,11,14,8,7
-2,-8,-6,5,2,-8,6,9,12,14,9,7
-1,-8,-6,5,2,-8,6,10,13,15,9,8
0,-6,-6,3,3,-7,6,11,14,15,10,9
2,-4,-6,1,4,-6,7,12,14,15,10,9
2,-4,-6,1,4,-6,7,14,14,15,10,10
3,-3,-6,0,4,-5,7,15,14,15,11,10
3,-3,-6,0,4,-5,7,14,14,16,11,10
3,-3,-6,0,4,-5,6,13,14,17,12,10
2,-4,-6,1,4,-5,6,12,14,17,12,10
2,-5,-6,1,4,-6,5,11,13,17,12,10
2,-5,-6,1,4,-6,5,10,13,17,13,11
3,-5,-6,1,5,-6,5,10,14,18,14,12
4,-4,-7,0,5,-6,5,11,15,19,15,12
5,-3,-7,0,6,-6,5,11,15,19,15,12
4,-4,-8,0,6,-7,5,12,16,19,15,12
3,-5,-8,1,5,-8,5,13,16,20,15,11
2,-6,-8,2,5,-7,5,14,17,20,15,11
2,-6,-8,2,5,-7,5,16,18,20,15,11
2,-6,-7,2,5,-6,6,16,18,20,15,11
2,-5,-7,1,5,-6,6,16,18,21,15,11
3,-5,-7,1,5,-6,6,16,18,21,15,11
3,-5,-8,1,5,-7,5,14,17,21,15,12
4,-5,-8,1,6,-7,4,13,16,21,16,12
4,-5,-9,0,6,-7,4,12,16,22,18,13
5,-5,-9,0,7,-7,4,12,17,24,19,14
6,-4,-9,-1,7,-7,4,13,18,25,20,15
6,-4,-9,-1,8,-7,4,14,20,26,19,15
6,-3,-9,-1,8,-7,4,16,21,27,19,14
6,-3,-9,-1,7,-6,4,19,23,27,19,14
6,-2,-8,-2,7,-6,4,21,25,28,19,14
6,-2,-8,-2,7,-5,5,22,26,28,19,14
6,-2,-8,-2,7,-5,5,23,26,28,20,15
6,-2,-8,-2,7,-6,6,22,26,29,21,16
7,-2,-9,-2,7,-6,6,21,25,29,22,17
7,-2,-9,-2,8,-6,5,19,24,29,23,18
8,-1,-9,-3,8,-6,4,18,24,30,24,19
8,0,-8,-4,8,-5,4,18,25,31,25,19
9,0,-8,-4,8,-5,3,20,26,32,25,19
9,1,-8,-5,8,-4,3,22,27,33,26,19
10,2,-7,-6,8,-3,4,23,28,34,26,19
10,3,-6,-7,8,-2,4,25,29,35,26,20
11,4,-7,-8,8,-2,4,26,29,36,27,20
12,4,-7,-8,9,-2,4,26,29,36,28,21
12,4,-8,-8,9,-2,3,25,30,37,29,22
13,4,-8,-8,10,-2,3,25,30,38,30,23
13,4,-9,-9,11,-3,2,24,30,38,31,24
14,5,-9,-10,12,-3,1,23,29,39,33,25
15,5,-9,-11,12,-3,0,22,29,41,34,27
16,6,-9,-12,13,-2,-1,21,30,42,36,28
18,8,-10,-13,13,-1,-1,21,31,43,37,29
19,8,-10,-14,14,-1,-2,21,32,44,38,30
20,9,-10,-15,14,0,-2,22,32,44,39,31
21,10,-10,-16,15,0,-2,23,33,45,39,32
21,10,-10,-16,15,-1,-2,24,33,45,40,33
21,9,-11,-15,15,-2,-3,24,33,45,40,33
20,8,-11,-14,15,-2,-3,24,33,45,40,33
21,8,-11,-15,16,-2,-3,24,34,45,40,34
22,9,-12,-16,17,-1,-4,24,34,45,40,35
23,11,-12,-17,18,-1,-4,24,34,45,40,35
25,12,-12,-18,18,0,-4,24,35,46,40,35
26,13,-11,-19,18,0,-5,25,35,46,40,35
26,13,-11,-20,18,0,-5,26,36,46,40,34
26,14,-11,-20,18,0,-6,27,36,45,39,34
27,15,-11,-21,19,1,-6,27,36,45,39,34
27,15,-11,-21,19,2,-6,27,36,44,38,33
27,16,-10,-21,18,2,-6,27,36,43,38,33
26,16,-10,-21,18,3,-6,27,36,43,37,33
26,16,-9,-21,18,3,-6,26,36,43,36,33
26,17,-9,-22,18,3,-7,25,35,42,35,33
27,18,-9,-22,18,3,-7,25,34,40,35,33
27,18,-9,-22,18,4,-7,24,31,38,35,33
27,18,-9,-22,18,4,-8,20,28,37,35,34
27,17,-9,-22,18,4,-10,15,25,37,36,35
28,17,-10,-23,18,4,-11,12,24,38,36,35
28,17,-10,-23,18,4,-12,11,23,38,36,35
27,17,-9,-22,18,3,-13,11,23,37,35,35
26,16,-9,-22,17,3,-13,12,22,35,34,34
25,17,-8,-22,17,4,-13,12,22,33,34,33
25,17,-7,-22,16,4,-12,12,21,32,33,33
25,17,-7,-21,16,4,-12,12,20,30,32,32
25,17,-7,-20,16,4,-12,10,19,29,30,31
24,16,-7,-19,15,3,-11,8,17,28,29,30
23,16,-6,-19,14,4,-11,7,15,26,28,29
22,16,-5,-19,14,4,-11,6,12,24,27,28
22,16,-5,-19,14,4,-11,4,10,22,26,27
22,16,-5,-19,14,4,-11,3,9,21,25,26
21,15,-5,-18,13,4,-11,3,9,20,24,25
19,14,-5,-16,12,4,-10,3,8,19,22,23
18,13,-4,-15,11,4,-10,2,7,17,20,21
16,11,-4,-13,10,3,-9,2,6,15,18,19
14,9,-4,-11,8,2,-8,1,5,13,15,18
12,7,-3,-9,7,2,-7,1,4,11,13,16
10,6,-3,-8,6,1,-6,1,3,9,11,14
8,5,-3,-7,5,1,-5,1,2,7,10,13
7,4,-2,-6,5,1,-5,2,2,6,9,12
7,4,-2,-5,4,0,-4,2,2,6,8,10
6,3,-2,-5,4,0,-4,3,2,5,6,9
5,3,-1,-4,3,0,-3,3,1,4,4,7
5,2,-1,-3,3,0,-1,3,1,2,2,6
4,2,-1,-2,2,0,0,2,0,1,1,5
3,0,-1,-1,2,-1,0,0,-1,0,0,3
2,0,-1,0,1,-1,-1,-1,-2,-1,0,2
1,-1,-1,0,1,-2,-1,-3,-4,-1,0,1
1,-1,-1,0,1,-2,-1,-3,-4,-1,0,1
0,-1,0,1,0,-2,-1,-3,-5,-1,0,1
0,-1,0,1,0,-2,-1,-3,-5,-2,-1,1
0,-1,0,0,0,-2,-1,-2,-6,-2,-1,1
0,0,0,0,0,-1,0,-1,-6,-1,0,2
0,-1,0,1,0,-1,0,-1,-6,-1,0,2
-1,-2,0,2,0,-2,0,-2,-6,-2,0,2
-2,-3,0,2,0,-2,0,-4,-7,-2,0,2
-1,-2,0,2,0,-2,0,-5,-7,-2,0,2
-1,-2,0,2,0,-2,0,-6,-7,-2,0,2
-2,-3,0,2,0,-2,0,-7,-7,-2,0,1
-3,-4,0,3,-1,-3,0,-7,-7,-3,-1,0
-4,-5,0,4,-1,-4,0,-6,-7,-3,-2,-1
-4,-6,0,5,-2,-4,0,-5,-7,-4,-4,-2
-4,-5,0,4,-2,-3,0,-3,-6,-4,-5,-3
-4,-4,0,4,-2,-3,0,-1,-5,-4,-5,-4
-4,-4,0,4,-2,-3,1,0,-5,-5,-6,-5
-5,-5,0,5,-3,-3,1,1,-5,-7,-6,-5
-5,-5,0,5,-3,-3,2,0,-5,-7,-6,-5
-4,-4,0,4,-2,-3,2,-1,-6,-6,-6,-4
-3,-4,0,4,-2,-3,2,-3,-6,-6,-5,-4
-4,-4,0,4,-2,-3,2,-5,-7,-6,-4,-3
-4,-4,0,4,-2,-3,2,-6,-8,-6,-3,-3
-4,-4,0,4,-2,-3,1,-6,-8,-6,-3,-2
-4,-5,0,4,-2,-3,1,-6,-8,-5,-3,-2
-5,-5,0,5,-3,-3,1,-6,-8,-5,-2,-2
-6,-6,0,6,-3,-3,1,-5,-8,-5,-2,-2
-6,-6,0,6,-3,-3,1,-5,-8,-5,-2,-2
-5,-6,0,6,-3,-3,1,-5,-8,-5,-3,-2
-6,-6,1,6,-4,-4,1,-5,-8,-5,-3,-3
-6,-7,1,6,-4,-4,1,-5,-7,-5,-4,-4
-6,-7,0,6,-3,-4,1,-4,-7,-5,-4,-4
-6,-7,0,6,-3,-4,1,-4,-7,-5,-5,-5
-7,-7,0,7,-4,-4,1,-4,-6,-5,-5,-5
-8,-7,0,7,-4,-4,1,-3,-6,-5,-5,-5
-8,-7,1,7,-5,-4,2,-2,-5,-6,-6,-6
-7,-7,1,7,-5,-4,2,0,-5,-6,-6,-6
-6,-6,1,7,-4,-3,3,1,-4,-5,-7,-6
-5,-5,1,6,-4,-3,3,2,-3,-5,-7,-6
-4,-5,1,5,-3,-3,4,3,-2,-5,-7,-6
-4,-5,0,5,-3,-3,4,2,-3,-5,-7,-6
-4,-5,0,5,-2,-3,4,2,-3,-6,-7,-6
-5,-5,0,5,-2,-3,4,2,-3,-6,-7,-6
-5,-5,0,5,-2,-3,4,2,-3,-6,-7,-7
-6,-5,1,5,-3,-3,4,2,-3,-6,-7,-7
-7,-6,1,6,-4,-3,4,1,-3,-6,-7,-7
-7,-6,2,7,-5,-3,3,0,-3,-7,-7,-7
-7,-6,2,7,-5,-3,3,0,-5,-7,-7,-6
-7,-6,2,7,-5,-3,2,-2,-7,-7,-5,-6
-7,-6,2,7,-5,-3,1,-4,-9,-5,-4,-5
-7,-7,1,7,-4,-4,1,-6,-10,-4,-3,-5
-7,-7,1,7,-4,-4,0,-7,-10,-4,-2,-4
-6,-6,0,6,-3,-4,0,-8,-9,-3,-2,-4
-6,-5,1,6,-3,-3,0,-7,-7,-2,-1,-3
-6,-5,1,6,-3,-3,0,-6,-6,-1,-1,-3
-6,-5,2,6,-4,-3,0,-5,-5,-1,-1,-3
-5,-4,2,5,-3,-2,1,-4,-4,-1,-1,-3
-5,-2,2,4,-3,-1,1,-3,-4,-1,-1,-2
-4,-1,3,3,-3,0,1,-3,-4,-2,-1,-2
-4,-1,3,3,-3,0,1,-3,-4,-2,-1,-3
-4,-1,3,3,-3,0,1,-3,-4,-3,-1,-3
-4,-2,3,3,-3,0,1,-3,-4,-3,-1,-3
-4,-2,3,3,-3,0,1,-3,-4,-3,-2,-3
-5,-3,3,4,-4,-1,1,-3,-4,-3,-2,-3
-5,-3,3,5,-4,-1,1,-2,-4,-3,-2,-3
-5,-3,3,5,-4,-1,1,-2,-4,-3,-2,-3
-6,-3,3,5,-4,-1,1,-2,-4,-3,-2,-3
-6,-3,3,5,-4,-1,1,-2,-4,-3,-2,-3
-6,-3,3,5,-4,-1,1,-2,-4,-3,-2,-3
-6,-3,3,5,-4,-1,1,-2,-3,-3,-2,-3
-5,-3,2,4,-3,-1,1,-1,-3,-3,-3,-4
-5,-3,2,4,-3,-1,1,0,-2,-3,-3,-4
-5,-3,2,4,-4,-1,1,1,-1,-3,-4,-5
-6,-3,3,4,-4,0,2,2,0,-3,-5,-5
-6,-3,3,5,-5,0,2,4,0,-3,-6,-6
-6,-3,4,5,-5,0,3,5,0,-4,-8,-6
-6,-3,4,4,-4,0,3,5,0,-5,-9,-6
-5,-2,4,4,-4,0,3,4,0,-6,-9,-6
-5,-2,3,3,-4,0,3,2,-1,-6,-8,-6
-4,-2,3,3,-4,0,2,0,-2,-6,-6,-5
-5,-2,3,4,-4,0,2,-1,-3,-5,-5,-4
-5,-3,3,4,-4,0,1,-2,-4,-4,-3,-3
-5,-3,3,4,-3,0,1,-3,-4,-3,-2,-3
-5,-3,2,4,-3,-1,0,-4,-5,-2,-2,-2
-5,-3,2,4,-3,-1,0,-4,-5,-2,-1,-2
-5,-2,2,3,-3,-1,0,-4,-5,-1,-1,-2
-4,-2,2,3,-2,-1,0,-5,-5,-1,-1,-1
-3,-2,2,3,-2,-1,0,-6,-5,-1,-1,-1
-4,-2,2,3,-3,0,0,-7,-5,-2,-1,-1
-5,-2,3,3,-3,0,-1,-7,-5,-2,-1,-1
-5,-2,3,3,-3,0,-1,-7,-5,-2,-1,0
-4,-2,2,3,-2,0,-2,-8,-6,-2,-1,0
-4,-2,2,2,-2,0,-2,-8,-6,-2,-1,0
-4,-2,2,2,-2,0,-2,-8,-7,-2,-1,0
-4,-2,2,2,-2,0,-2,-8,-7,-2,-1,-1
-4,-2,3,2,-3,0,-2,-8,-6,-2,-1,-1
-4,-2,3,2,-3,0,-1,-7,-6,-2,-1,-2
-3,-2,2,2,-2,0,-1,-7,-6,-3,-2,-2
-3,-1,2,1,-2,0,-1,-6,-6,-3,-2,-2
-3,0,3,1,-2,0,0,-6,-5,-4,-3,-2
-3,0,3,2,-3,1,0,-6,-5,-4,-3,-3
-4,-1,3,2,-3,1,0,-6,-5,-4,-4,-3
-4,-2,3,3,-3,0,-1,-5,-5,-4,-4,-3
-4,-3,2,3,-3,0,-1,-5,-5,-5,-5,-4
-5,-4,2,4,-4,-1,-1,-5,-6,-5,-5,-4
-6,-4,2,5,-4,-1,-1,-5,-6,-6,-6,-5
-6,-4,2,5,-4,-1,-1,-6,-6,-6,-6,-5
-6,-4,2,5,-4,-1,-1,-7,-6,-6,-6,-5
-6,-4,2,5,-4,-1,-1,-7,-6,-6,-6,-4
-5,-4,2,5,-3,-1,-1,-6,-6,-6,-6,-4
-5,-4,2,4,-3,-1,-1,-6,-5,-6,-6,-4
-5,-3,2,4,-3,0,-1,-5,-5,-6,-6,-5
-5,-3,2,4,-3,0,0,-4,-4,-6,-7,-5
-4,-2,2,3,-3,0,0,-3,-3,-6,-7,-5
-4,-2,2,3,-3,0,0,-2,-2,-6,-8,-6
-5,-2,3,3,-4,0,1,-1,-2,-6,-8,-6
-5,-2,4,4,-4,0,1,-1,-2,-6,-9,-7
-5,-2,4,4,-4,0,1,-1,-2,-7,-9,-7
-5,-2,4,3,-4,0,1,-1,-2,-8,-10,-7
-4,-1,4,3,-4,1,1,-1,-2,-9,-9,-7
-4,-1,4,2,-4,1,1,-1,-4,-11,-9,-6
-4,-1,3,2,-3,1,0,-3,-7,-11,-8,-6
-4,-2,3,3,-3,0,0,-5,-9,-10,-7,-6
-6,-3,3,4,-4,0,0,-7,-9,-8,-6,-5
-6,-3,3,5,-4,-1,-1,-8,-8,-6,-5,-5
-6,-3,2,5,-4,-1,-1,-8,-8,-6,-4,-4
-5,-3,2,5,-3,-1,-1,-8,-8,-6,-4,-4
-5,-3,2,5,-3,-1,-1,-8,-8,-6,-4,-4
-6,-3,2,5,-4,0,-1,-8,-7,-6,-5,-4
-6,-3,3,4,-4,0,-1,-7,-6,-6,-5,-4
-6,-2,3,4,-4,0,-1,-6,-5,-6,-5,-4
-6,-3,4,4,-4,0,-1,-6,-6,-7,-6,-5
-7,-3,4,5,-5,0,-1,-6,-6,-8,-7,-6
-6,-3,3,5,-4,0,-1,-6,-7,-9,-7,-6
-5,-2,3,4,-3,0,-1,-8,-8,-10,-6,-5
-5,-3,3,5,-3,0,-1,-10,-9,-9,-5,-5
-6,-3,3,5,-4,0,-1,-11,-9,-8,-4,-4
-6,-3,3,5,-4,0,-1,-10,-8,-7,-4,-4
-6,-3,3,4,-4,0,-1,-9,-7,-6,-4,-4
-5,-2,3,4,-4,0,-1,-8,-6,-7,-4,-4
-5,-2,3,3,-4,0,-1,-7,-6,-7,-5,-4
-5,-2,3,3,-4,0,-1,-7,-6,-7,-5,-4
-5,-2,3,4,-4,0,-1,-6,-6,-8,-5,-4
-5,-3,3,4,-4,0,-1,-6,-6,-8,-5,-4
-5,-3,3,5,-4,0,-1,-7,-6,-9,-6,-4
-5,-3,3,5,-4,0,-1,-7,-5,-9,-6,-5
-6,-3,3,5,-4,0,-1,-6,-5,-9,-6,-6
-6,-2,3,4,-4,0,-1,-5,-4,-9,-7,-6
-6,-2,4,4,-4,0,-1,-4,-4,-9,-7,-7
-6,-2,4,4,-4,0,-1,-3,-4,-10,-8,-7
-6,-2,3,4,-4,0,-1,-3,-4,-10,-8,-8
-5,-2,3,4,-3,0,-1,-2,-4,-10,-9,-8
-5,-2,3,4,-4,0,0,-1,-3,-10,-10,-9
-6,-3,3,4,-4,0,0,0,-2,-10,-11,-10
-7,-3,3,5,-4,0,0,0,-1,-10,-12,-11
-7,-3,3,5,-5,0,1,1,0,-11,-13,-11
-7,-3,4,5,-5,0,2,2,1,-13,-14,-11
-6,-2,4,4,-5,1,2,3,1,-14,-14,-10
-7,-2,4,5,-5,1,2,1,0,-15,-13,-9
-6,-3,4,5,-5,1,1,-1,-4,-16,-12,-8
-5,-2,3,4,-4,0,1,-3,-7,-15,-10,-6
-4,-2,3,3,-3,0,0,-6,-9,-13,-7,-4
-5,-2,3,3,-3,0,0,-8,-10,-11,-5,-3
-6,-3,3,4,-3,0,-1,-9,-10,-10,-3,-2
-6,-4,2,5,-3,-1,-2,-10,-10,-9,-2,-1
-5,-4,1,5,-3,-1,-3,-11,-10,-8,-2,-1
-5,-4,1,5,-3,-1,-4,-11,-9,-8,-3,-2
-5,-4,1,5,-3,-1,-4,-10,-8,-8,-3,-2
-5,-4,2,5,-3,-1,-4,-10,-7,-8,-3,-2
-6,-4,2,5,-4,-1,-4,-9,-6,-8,-4,-3
-6,-4,2,5,-4,-1,-3,-8,-5,-9,-5,-4
-6,-4,2,5,-4,-1,-3,-7,-5,-10,-5,-4
-6,-4,2,5,-4,0,-2,-5,-4,-10,-7,-5
-6,-4,2,5,-4,0,-2,-2,-2,-10,-8,-6
-6,-4,3,5,-4,0,-1,0,-1,-10,-8,-7
-6,-3,4,5,-5,0,0,1,0,-10,-9,-7
-6,-3,4,5,-5,1,0,2,1,-11,-9,-7
-6,-2,5,4,-5,1,1,1,0,-12,-9,-6
-5,-1,5,4,-5,2,1,0,-1,-13,-9,-5
-5,0,5,4,-5,2,0,-2,-2,-14,-8,-4
-5,0,5,4,-5,2,0,-3,-4,-13,-6,-3
-5,0,5,3,-5,2,0,-4,-5,-12,-4,-2
-4,1,5,1,-4,3,0,-5,-5,-10,-3,-2
-3,1,5,1,-4,3,0,-5,-5,-9,-2,-2
-3,1,5,1,-4,3,0,-4,-4,-8,-2,-2
-4,1,6,1,-4,3,0,-4,-3,-8,-2,-3
-4,1,6,1,-4,3,0,-3,-2,-8,-3,-3
-4,1,6,1,-5,3,0,-3,-1,-8,-3,-4
-5,0,6,2,-5,3,0,-3,-1,-9,-4,-4
-5,0,6,3,-5,3,0,-3,-2,-9,-4,-4
-6,0,6,3,-6,3,-1,-3,-2,-9,-5,-5
-6,0,6,3,-6,3,-1,-3,-2,-9,-5,-5
-5,0,6,2,-6,3,-1,-2,-2,-8,-4,-4
-4,2,6,1,-5,4,-1,-1,-1,-7,-3,-4
-2,3,6,0,-4,4,-1,-1,0,-6,-3,-4
-1,4,6,-1,-4,5,-1,0,1,-6,-3,-4
-1,5,6,-1,-3,5,-1,0,2,-7,-3,-4
-1,5,7,-1,-3,5,-2,0,2,-7,-4,-4
-2,5,7,-1,-4,5,-3,0,2,-8,-5,-5
-2,5,7,-1,-4,6,-4,0,2,-9,-6,-5
-2,4,7,-1,-4,5,-5,-1,1,-10,-7,-6
-2,4,6,0,-4,5,-7,-2,0,-12,-8,-7
-3,3,6,0,-4,4,-7,-3,-1,-14,-8,-7
-4,3,7,0,-5,4,-8,-4,-3,-14,-7,-7
-4,2,6,1,-5,4,-8,-4,-4,-13,-7,-7
-4,3,6,1,-4,4,-8,-5,-4,-12,-6,-7
-3,3,6,0,-4,4,-8,-4,-4,-11,-5,-6
-2,4,6,0,-4,5,-8,-4,-4,-11,-4,-5
-2,4,6,-1,-4,5,-8,-5,-5,-11,-4,-4
-2,4,6,-1,-4,5,-9,-7,-6,-11,-3,-4
-1,5,6,-2,-3,6,-9,-9,-6,-11,-3,-3
-1,6,6,-3,-3,6,-9,-10,-6,-12,-3,-4
-1,5,6,-2,-3,5,-10,-11,-7,-13,-3,-5
-1,4,5,-1,-3,4,-10,-12,-8,-14,-5,-6
-1,3,5,-1,-3,4,-10,-12,-8,-14,-5,-6
-2,2,5,0,-3,3,-9,-12,-8,-13,-6,-7
-2,1,4,0,-3,2,-9,-12,-9,-13,-6,-7
-2,1,4,0,-3,2,-10,-12,-9,-14,-6,-8
-2,1,3,0,-2,2,-10,-12,-9,-14,-6,-7
-2,1,3,0,-2,2,-10,-12,-9,-14,-6,-7
-2,0,3,0,-2,2,-10,-11,-8,-14,-6,-7
-3,0,4,1,-2,2,-9,-11,-8,-14,-7,-7
-4,0,4,2,-3,1,-8,-10,-8,-14,-7,-7
-4,-1,4,2,-3,1,-7,-9,-8,-14,-7,-7
-4,-1,4,3,-3,1,-6,-8,-7,-14,-6,-7
-4,0,4,2,-3,1,-5,-7,-7,-14,-6,-7
-4,-1,3,3,-3,1,-5,-8,-8,-14,-6,-8
-4,-2,3,3,-3,0,-4,-8,-8,-14,-6,-9
-4,-2,3,4,-3,0,-4,-7,-7,-14,-6,-9
-5,-3,3,4,-3,0,-4,-6,-7,-14,-7,-10
-6,-4,3,5,-3,-1,-4,-5,-7,-14,-7,-11
-7,-5,3,6,-4,-1,-4,-5,-7,-15,-8,-11
-7,-5,2,7,-5,-2,-4,-4,-8,-15,-9,-12
-6,-5,2,6,-4,-2,-3,-4,-8,-16,-9,-12
-5,-4,2,5,-3,-2,-3,-5,-8,-16,-9,-11
-6,-5,2,5,-3,-2,-3,-6,-8,-16,-9,-11
-6,-5,2,6,-3,-2,-3,-7,-9,-16,-9,-11
-6,-4,2,5,-3,-2,-3,-7,-9,-16,-8,-11
-5,-4,1,5,-3,-2,-3,-7,-9,-15,-8,-11
-5,-4,1,5,-2,-2,-3,-7,-8,-15,-8,-11
-5,-5,1,5,-2,-2,-3,-7,-8,-15,-9,-12
-5,-5,1,5,-2,-2,-3,-7,-7,-15,-9,-13
-5,-5,1,5,-3,-2,-3,-7,-7,-16,-10,-13
-7,-6,1,6,-4,-2,-3,-7,-7,-16,-10,-13
-8,-7,1,7,-4,-3,-3,-7,-8,-18,-11,-14
-8,-7,1,7,-4,-3,-3,-7,-9,-18,-11,-14
-7,-6,0,6,-3,-3,-2,-6,-9,-17,-9,-13
-6,-6,1,6,-3,-3,-2,-6,-9,-16,-7,-12
-7,-6,1,6,-3,-3,-2,-7,-10,-15,-6,-11
-8,-8,1,8,-4,-4,-3,-8,-10,-14,-5,-11
-9,-9,0,9,-4,-5,-3,-9,-10,-13,-5,-10
-9,-9,0,10,-4,-5,-3,-9,-10,-14,-5,-10
-9,-9,0,10,-4,-5,-3,-9,-10,-14,-6,-10
-8,-8,0,9,-4,-4,-2,-8,-9,-15,-6,-10
-8,-7,0,8,-3,-4,-2,-8,-9,-15,-5,-9
-8,-7,0,8,-3,-4,-1,-7,-8,-15,-5,-9
-7,-7,0,8,-3,-4,-1,-5,-8,-15,-5,-10
-7,-7,0,8,-3,-4,0,-2,-6,-14,-5,-10
-7,-7,0,8,-3,-4,2,0,-4,-13,-5,-10
-8,-8,0,9,-4,-4,3,2,-2,-13,-6,-11
-11,-10,1,11,-5,-4,5,4,0,-12,-6,-12
-13,-11,1,12,-6,-5,7,6,1,-10,-6,-13
-13,-12,1,12,-6,-6,8,7,3,-8,-5,-13
-11,-12,-1,12,-5,-7,8,8,5,-6,-3,-11
-9,-13,-4,11,-2,-9,8,10,6,-3,-1,-9
-5,-14,-9,10,2,-12,7,11,7,1,3,-5
0,-15,-14,8,7,-14,6,12,10,6,9,1
7,-14,-21,4,14,-17,5,15,14,13,18,8
15,-13,-28,-1,22,-20,4,18,21,24,29,19
25,-11,-36,-7,31,-23,3,24,32,37,43,31
35,-9,-44,-13,40,-26,1,32,44,51,58,45
46,-6,-52,-21,50,-28,0,39,56,66,75,59
60,-1,-60,-30,60,-30,-4,44,67,81,91,74
72,5,-66,-39,69,-30,-9,47,74,93,107,90
82,13,-68,-47,75,-27,-14,48,79,103,123,106
89,24,-66,-56,78,-21,-19,44,80,109,134,120
93,34,-60,-64,77,-13,-25,35,74,107,138,128
92,42,-51,-67,72,-4,-30,21,60,93,129,125
84,46,-39,-65,62,3,-33,6,40,69,108,107
69,44,-25,-57,47,9,-32,-9,16,40,77,79
50,40,-11,-46,31,14,-29,-22,-7,10,45,48
31,35,3,-33,14,18,-24,-29,-26,-15,17,21
14,30,15,-22,0,21,-17,-33,-40,-37,-7,0
0,25,23,-12,-11,23,-11,-34,-52,-56,-29,-19
-9,19,27,-4,-18,22,-6,-32,-61,-71,-46,-33
-15,12,27,1,-21,20,-1,-28,-67,-81,-59,-44
-18,7,26,5,-21,17,2,-24,-71,-87,-66,-50
-20,3,24,8,-22,14,2,-24,-74,-90,-71,-54
-22,-1,22,11,-22,10,2,-25,-76,-91,-73,-57
-24,-6,19,14,-22,6,1,-28,-77,-91,-74,-59
-26,-10,16,18,-21,2,0,-30,-78,-90,-74,-61
-28,-15,13,21,-20,-2,-1,-33,-78,-88,-74,-63
-29,-17,11,23,-20,-4,-1,-36,-78,-86,-73,-63
-30,-19,11,25,-20,-4,-1,-38,-76,-83,-70,-61
-31,-19,11,25,-20,-4,-1,-37,-72,-77,-66,-58
-29,-19,10,23,-19,-4,0,-33,-64,-70,-60,-54
-27,-18,8,21,-17,-4,1,-26,-55,-62,-53,-49
-24,-17,7,20,-15,-5,1,-20,-47,-55,-46,-44
-21,-15,6,18,-13,-5,2,-16,-41,-48,-40,-40
-19,-15,4,17,-11,-6,3,-11,-35,-42,-34,-35
-17,-15,2,17,-9,-7,4,-6,-29,-35,-29,-31
-15,-15,0,16,-7,-8,5,-2,-22,-29,-24,-28
-15,-15,-1,15,-6,-8,7,1,-16,-23,-19,-25
-14,-14,0,14,-5,-7,8,5,-9,-17,-15,-22
-12,-11,0,11,-5,-6,9,8,-4,-12,-11,-18
-10,-9,1,9,-5,-4,10,10,0,-9,-8,-15
-9,-8,1,8,-5,-3,11,11,2,-7,-6,-13
-9,-7,2,8,-5,-3,11,12,3,-6,-5,-12
-9,-7,2,8,-5,-2,12,12,4,-5,-4,-11
-8,-6,1,7,-5,-2,12,12,5,-4,-3,-11
-7,-6,0,7,-4,-3,12,12,6,-2,-2,-10
-7,-7,0,7,-3,-4,11,12,7,-2,-2,-10
-7,-8,0,7,-2,-4,11,12,7,-1,-2,-10
-7,-8,0,7,-2,-4,11,13,8,-1,-2,-9
-6,-7,0,7,-3,-4,11,14,9,0,-1,-9
-6,-6,0,6,-3,-3,11,16,10,0,-1,-9
-5,-6,0,6,-3,-3,11,17,11,-1,-1,-9
-6,-6,0,6,-3,-3,11,17,11,-1,-1,-9
-7,-7,0,7,-3,-3,11,16,10,0,-1,-8
-8,-8,0,8,-4,-4,11,15,10,1,0,-7
-8,-8,0,7,-4,-4,10,14,10,1,1,-6
-8,-7,0,7,-3,-4,10,13,10,1,2,-5
-7,-7,0,7,-3,-4,9,11,9,1,2,-4
-6,-6,0,7,-3,-4,8,10,8,0,2,-4
-5,-5,0,5,-2,-4,8,9,8,1,3,-4
-3,-4,-1,4,-1,-4,8,9,9,2,3,-3
-2,-3,-1,3,0,-3,7,9,10,4,4,-3
-3,-3,-1,3,-1,-3,7,11,11,5,4,-3
-3,-3,-1,3,-1,-3,8,12,12,5,4,-2
-3,-3,-1,3,-1,-3,8,13,12,5,5,-2
-3,-3,-1,3,-1,-3,8,14,12,5,5,-1
-3,-4,0,3,-1,-3,8,14,11,4,5,-1
-3,-4,-1,4,-1,-4,8,14,11,4,5,-1
-3,-4,-1,4,-1,-4,8,13,12,4,5,-1
-3,-5,-1,4,-1,-4,8,13,12,4,5,-1
-4,-5,0,5,-1,-4,8,13,13,4,5,-1
-3,-5,-1,4,-1,-4,7,13,12,4,5,-1
-3,-5,-1,4,0,-4,7,12,10,4,6,0
-4,-6,-1,5,-1,-5,6,10,10,5,7,0
-4,-6,-1,5,-1,-4,6,10,10,6,8,0
-4,-5,-1,4,-1,-4,6,10,11,7,8,1
-3,-5,-1,4,0,-4,6,11,12,7,9,1
-2,-5,-1,4,0,-4,6,12,13,8,9,0
-2,-4,-1,3,0,-4,6,13,14,9,9,0
-1,-4,-2,3,1,-4,7,14,15,10,9,0
0,-3,-2,2,1,-4,7,15,16,10,8,0
0,-3,-2,2,1,-3,8,15,17,10,8,0
0,-2,-2,1,1,-3,8,16,18,10,8,0
-1,-3,-1,2,0,-3,8,16,17,10,8,1
-2,-3,-1,3,0,-3,8,16,17,9,8,1
-2,-4,-1,3,0,-4,8,16,17,9,9,2
-2,-4,-2,3,0,-4,8,17,17,10,9,2
-2,-4,-2,3,0,-4,8,17,18,11,10,2
-1,-4,-2,2,0,-4,8,18,19,12,10,3
-1,-4,-2,2,0,-4,8,19,20,12,10,3
-1,-3,-1,2,0,-4,8,20,21,12,10,3
-2,-3,0,2,0,-3,8,21,21,12,11,3
-2,-2,0,2,-1,-3,9,22,21,12,11,3
-1,-2,0,2,0,-2,9,21,20,12,12,3
0,-1,0,1,0,-2,8,21,20,13,12,3
1,-1,-1,0,1,-2,8,20,20,15,13,4
1,-1,-1,0,1,-2,8,19,21,16,14,4
0,-1,0,1,0,-2,7,19,21,17,15,4
0,-1,0,1,0,-2,7,19,21,17,16,5
0,-1,-1,1,1,-2,7,19,21,18,17,5
1,0,-2,0,2,-2,7,20,22,19,17,6
2,0,-2,0,2,-2,7,20,23,21,18,6
3,0,-2,-1,2,-2,7,21,25,22,18,7
4,1,-1,-2,3,-1,8,23,28,23,18,7
5,2,-1,-3,4,-1,8,25,29,23,19,8
5,2,-2,-3,4,-1,8,26,30,24,19,8
5,2,-3,-3,4,-1,8,27,31,24,19,8
5,2,-3,-3,5,-1,8,27,31,24,19,8
5,1,-4,-3,5,-2,7,27,30,25,20,8
5,1,-4,-2,5,-2,7,27,30,26,21,9
5,2,-3,-3,5,-1,6,27,31,26,22,9
6,2,-3,-3,5,-1,6,26,31,27,23,10
6,3,-3,-4,6,-1,6,26,31,28,24,11
7,3,-3,-4,6,-1,5,26,32,29,25,12
6,3,-3,-4,5,-1,5,27,34,31,26,12
6,3,-3,-4,5,-1,5,28,35,32,26,13
7,4,-3,-5,5,0,5,29,36,32,27,13
8,5,-3,-6,6,0,5,30,37,32,27,14
10,6,-2,-8,6,1,5,31,37,32,28,14
11,8,-2,-9,7,1,5,31,37,33,30,16
12,9,-2,-10,7,2,5,31,37,34,31,17
12,9,-2,-10,7,2,4,31,36,35,32,18
12,9,-2,-10,8,2,4,31,36,37,33,19
13,9,-3,-11,9,2,3,31,37,38,35,19
14,10,-3,-12,9,2,3,31,38,39,36,20
15,10,-3,-12,10,2,2,32,39,40,36,20
15,10,-4,-13,10,2,2,33,40,41,37,21
16,11,-4,-14,11,2,2,33,41,41,37,21
17,12,-4,-14,11,2,1,34,42,41,36,22
17,12,-4,-15,11,2,1,34,42,41,36,22
17,13,-4,-15,11,3,0,34,42,40,36,22
18,14,-4,-16,12,4,0,33,42,41,36,23
20,15,-5,-17,12,4,0,33,42,41,36,23
21,15,-5,-18,13,4,-1,34,42,41,36,24
22,16,-5,-19,14,4,-1,34,42,41,37,24
22,17,-4,-19,14,5,-1,35,43,41,37,25
23,18,-4,-20,14,6,-1,36,43,40,38,26
23,19,-4,-21,14,6,-1,36,43,40,38,27
23,19,-4,-21,15,6,-2,35,43,40,38,27
23,19,-4,-21,15,6,-2,34,42,40,38,27
23,19,-4,-21,15,6,-2,33,42,39,38,27
23,19,-4,-21,15,6,-3,31,41,39,37,27
23,18,-4,-21,15,6,-4,30,39,38,37,26
23,18,-4,-20,14,6,-5,29,39,38,36,26
22,17,-4,-20,14,5,-6,29,38,37,35,26
22,17,-4,-20,14,5,-7,29,38,36,34,25
22,18,-4,-20,13,6,-7,29,38,33,33,25
22,19,-3,-20,13,7,-7,29,36,31,32,25
22,20,-3,-21,13,7,-7,28,34,30,32,25
23,21,-3,-22,13,8,-7,27,32,28,31,24
25,22,-3,-24,14,9,-6,26,31,28,31,24
26,23,-3,-25,15,9,-6,25,29,27,31,24
26,23,-3,-25,15,9,-7,23,28,26,30,23
26,22,-3,-24,15,9,-7,22,27,25,28,23
25,21,-3,-23,15,8,-8,20,26,22,27,22
24,21,-3,-22,14,8,-8,18,24,20,26,22
24,20,-3,-22,14,8,-8,15,22,18,25,22
23,20,-3,-21,14,7,-8,13,19,17,25,21
22,19,-3,-20,13,7,-8,10,17,16,25,21
19,17,-2,-18,11,6,-9,8,15,15,24,20
17,15,-1,-16,9,6,-9,6,13,14,23,18
15,14,-1,-14,8,5,-9,5,11,12,21,17
13,13,-1,-13,7,5,-9,4,9,10,20,15
12,12,-1,-13,7,4,-8,3,7,8,17,14
11,11,0,-11,6,4,-8,2,6,6,15,12
9,9,0,-10,5,3,-8,1,4,4,13,11
8,9,0,-9,4,3,-7,0,3,2,11,9
8,8,0,-8,4,3,-6,0,1,1,10,8
7,7,0,-7,4,3,-6,-1,0,0,9,7
5,6,0,-6,3,2,-5,-2,0,-2,7,6
4,5,0,-5,2,2,-5,-2,-1,-3,6,4
4,4,0,-4,2,2,-4,-2,-1,-4,5,3
3,4,0,-4,2,2,-4,-2,-1,-6,3,1
2,4,0,-3,1,1,-3,-2,-2,-7,2,0
0,2,1,-1,0,1,-3,-2,-3,-9,1,-1
-1,1,1,0,-1,0,-3,-2,-3,-9,0,-2
-2,0,1,1,-1,0,-3,-3,-4,-10,0,-3
-2,0,1,1,-1,0,-2,-3,-4,-10,-1,-3
-3,-1,2,2,-2,0,-2,-4,-5,-11,-2,-4
-3,-1,2,2,-2,0,-2,-4,-5,-11,-2,-5
-4,-1,2,2,-3,0,-1,-5,-5,-12,-3,-6
-5,-2,2,3,-3,-1,-1,-5,-6,-12,-4,-7
-5,-2,2,3,-4,-1,-1,-5,-6,-13,-5,-7
-5,-2,2,3,-4,-1,-1,-5,-6,-13,-6,-8
-5,-2,2,4,-3,-1,0,-4,-6,-14,-7,-9
-5,-3,2,4,-3,-1,0,-3,-5,-14,-8,-10
-5,-2,3,4,-3,-1,1,-1,-3,-13,-9,-11
-4,-1,3,2,-3,0,2,0,-2,-13,-10,-12
-4,-1,3,2,-2,0,3,1,-1,-14,-11,-12
-4,-1,3,2,-3,0,3,2,-1,-14,-11,-13
-4,0,3,2,-3,1,4,2,-2,-15,-12,-13
-4,0,4,2,-3,1,4,2,-3,-17,-12,-13
-4,-1,4,3,-3,1,4,2,-3,-18,-13,-13
-6,-2,4,4,-4,0,4,1,-4,-18,-12,-13
-7,-3,4,5,-4,0,4,1,-4,-18,-12,-12
-8,-5,4,6,-5,-1,4,1,-5,-18,-12,-12
-9,-6,3,7,-5,-2,3,-1,-6,-18,-12,-12
-10,-6,3,7,-6,-2,2,-3,-7,-17,-10,-12
-9,-6,2,7,-5,-2,2,-5,-8,-16,-9,-11
-8,-5,2,6,-5,-2,1,-7,-8,-15,-8,-10
-7,-5,2,6,-5,-2,1,-7,-8,-14,-7,-9
-6,-4,2,6,-4,-1,1,-8,-8,-14,-6,-8
-6,-4,2,5,-4,-1,1,-8,-9,-14,-5,-7
-6,-4,2,5,-3,-2,1,-9,-10,-13,-4,-7
-5,-4,2,5,-3,-2,1,-9,-10,-12,-4,-6
-5,-4,2,5,-3,-2,1,-8,-9,-11,-3,-6
-5,-4,2,5,-3,-2,1,-8,-8,-11,-3,-7
-6,-4,2,5,-3,-2,0,-7,-8,-11,-4,-8
-7,-5,2,6,-4,-2,0,-7,-8,-12,-6,-9
-7,-6,2,7,-4,-3,0,-7,-8,-13,-7,-10
-7,-5,2,6,-4,-2,0,-6,-8,-13,-8,-10
-7,-5,2,6,-4,-2,1,-5,-7,-13,-8,-11
-8,-4,3,6,-5,-1,1,-5,-7,-13,-9,-11
-8,-4,3,6,-5,-1,1,-5,-7,-13,-9,-11
-8,-4,4,5,-5,0,1,-5,-6,-13,-8,-10
-7,-3,4,5,-5,0,1,-5,-6,-12,-8,-10
-7,-3,4,6,-5,0,1,-5,-5,-12,-8,-10
-7,-4,4,6,-5,-1,1,-5,-5,-12,-8,-10
-7,-5,3,7,-5,-1,1,-5,-5,-12,-8,-10
-7,-6,3,7,-5,-2,1,-5,-5,-12,-8,-10
-7,-6,3,7,-5,-2,1,-5,-5,-12,-8,-10
-7,-5,3,6,-5,-2,1,-4,-5,-13,-8,-10
-7,-5,2,6,-5,-2,1,-4,-5,-13,-8,-10
-8,-5,2,6,-5,-2,1,-3,-5,-12,-8,-11
-8,-5,3,7,-6,-1,1,-3,-5,-12,-9,-11
-8,-5,3,7,-6,-1,1,-2,-5,-12,-9,-12
-8,-4,3,6,-6,0,2,-2,-4,-12,-9,-12
-7,-4,3,6,-6,0,2,-1,-4,-12,-9,-12
-7,-4,3,5,-5,0,3,-1,-4,-12,-9,-12
-7,-3,3,5,-5,0,3,-1,-3,-12,-9,-12
-7,-3,3,4,-4,0,3,-1,-3,-12,-9,-12
-7,-2,4,4,-5,0,3,-1,-3,-12,-9,-11
-7,-3,4,5,-5,0,3,-1,-3,-12,-8,-11
-8,-3,4,5,-5,0,3,-1,-3,-11,-7,-10
-8,-3,5,6,-6,0,3,-1,-3,-11,-6,-9
-9,-4,5,7,-6,0,3,-1,-3,-11,-6,-9
-8,-4,5,6,-6,0,3,0,-2,-11,-7,-9
-7,-3,5,5,-5,0,3,0,-1,-11,-8,-10
-7,-3,4,4,-5,0,3,1,-1,-12,-9,-10
-7,-3,4,4,-5,0,3,2,0,-12,-9,-10
-7,-3,4,4,-5,0,4,2,0,-12,-9,-10
-7,-3,4,4,-5,0,4,2,-1,-12,-9,-10
-7,-3,4,4,-5,0,4,2,-1,-12,-9,-10
-7,-3,4,5,-5,0,4,2,-1,-12,-9,-9
-8,-3,4,5,-5,0,4,2,-2,-12,-8,-9
-9,-4,5,6,-6,0,4,1,-3,-12,-8,-8
-9,-3,5,6,-6,0,4,0,-4,-12,-7,-8
-8,-3,5,5,-6,0,4,-1,-4,-11,-6,-7
-7,-3,5,5,-5,0,3,-3,-4,-10,-5,-7
-7,-3,4,5,-5,0,3,-5,-5,-9,-5,-7
-6,-2,4,4,-4,0,2,-6,-5,-8,-4,-7
-5,-2,3,4,-3,0,2,-6,-4,-7,-4,-7
-5,-1,3,4,-3,0,2,-6,-4,-7,-4,-7
-5,-1,4,3,-3,0,2,-5,-3,-6,-4,-7
-5,-1,4,3,-3,1,2,-4,-3,-6,-3,-7
-6,-2,4,4,-4,0,2,-4,-3,-7,-4,-7
-7,-3,4,5,-4,0,2,-4,-3,-8,-4,-8
-7,-3,4,6,-5,0,2,-4,-3,-8,-4,-8
-8,-3,5,6,-5,0,2,-4,-3,-8,-5,-8
-9,-4,5,6,-6,0,1,-4,-4,-8,-6,-8
-9,-4,4,6,-5,0,1,-5,-5,-9,-6,-8
-7,-3,4,5,-4,0,1,-5,-5,-9,-7,-8
-7,-2,3,4,-4,0,1,-5,-5,-8,-7,-8
-8,-3,3,5,-5,0,1,-5,-5,-8,-7,-9
-8,-4,3,5,-5,-1,1,-5,-5,-8,-7,-9
-6,-3,3,4,-4,0,2,-5,-4,-8,-6,-8
-5,-2,3,3,-3,0,2,-5,-3,-8,-6,-8
-5,-2,3,3,-3,0,2,-5,-4,-9,-5,-7
-5,-2,3,3,-3,0,2,-5,-4,-9,-5,-7
-5,-2,3,3,-3,0,2,-5,-5,-9,-5,-7
-5,-2,2,3,-3,0,2,-5,-6,-9,-5,-7
-5,-2,2,3,-3,0,2,-4,-6,-10,-5,-7
-6,-3,2,4,-3,-1,2,-4,-6,-10,-6,-8
-6,-4,2,5,-4,-1,2,-3,-6,-10,-6,-8
-7,-4,3,5,-4,-1,2,-3,-5,-10,-7,-9
-7,-4,3,5,-4,-1,2,-2,-4,-10,-8,-9
-7,-3,3,5,-4,-1,2,-1,-4,-10,-9,-10
-7,-3,3,4,-4,0,2,0,-2,-10,-10,-10
-7,-3,3,4,-4,0,3,1,-1,-10,-11,-11
-7,-3,3,5,-5,0,4,1,-1,-11,-11,-11
-7,-3,3,5,-5,0,4,0,-2,-12,-11,-11
-7,-3,3,5,-4,0,3,-1,-4,-13,-11,-11
-7,-3,3,5,-4,0,3,-3,-6,-13,-10,-11
-8,-4,3,6,-4,-1,2,-5,-7,-13,-10,-11
-7,-4,3,6,-4,-1,1,-6,-8,-12,-10,-11
-7,-5,2,6,-4,-1,0,-7,-9,-12,-10,-11
-8,-6,2,7,-5,-2,0,-7,-9,-11,-10,-11
-8,-6,2,7,-5,-2,1,-6,-9,-11,-9,-10
-8,-5,2,6,-5,-2,1,-6,-8,-10,-9,-10
-7,-5,2,6,-4,-2,1,-6,-8,-10,-9,-9
-7,-4,3,6,-4,-1,1,-6,-7,-10,-9,-9
-7,-4,3,6,-4,-1,1,-6,-7,-11,-9,-9
-7,-4,3,6,-4,-1,1,-7,-8,-11,-8,-8
-7,-4,3,6,-4,-1,0,-8,-8,-10,-7,-8
-7,-4,3,6,-4,-1,0,-8,-9,-10,-6,-7
-7,-4,2,6,-4,-1,0,-9,-9,-10,-6,-7
-7,-4,2,5,-3,-1,-1,-9,-10,-10,-6,-7
-6,-3,2,5,-3,-1,-1,-9,-9,-9,-6,-7
-5,-3,2,4,-2,-1,-1,-9,-9,-9,-6,-8
-5,-3,2,4,-2,-1,-1,-8,-8,-9,-6,-8
-5,-3,2,4,-2,-1,0,-7,-8,-10,-7,-9
-6,-4,2,5,-2,-1,0,-7,-8,-10,-8,-9
-6,-4,2,5,-3,-1,0,-7,-8,-11,-8,-10
-7,-5,2,6,-3,-1,0,-7,-8,-11,-9,-10
-8,-5,2,7,-4,-2,0,-7,-8,-11,-10,-10
-9,-5,3,7,-5,-2,0,-6,-8,-11,-10,-10
-8,-5,3,7,-4,-1,1,-5,-7,-11,-10,-10
-7,-4,3,6,-4,-1,1,-4,-6,-10,-10,-10
-6,-4,2,6,-3,-1,2,-2,-5,-10,-10,-10
-6,-4,2,6,-3,-1,2,0,-4,-11,-11,-11
-6,-4,2,5,-3,-1,3,1,-4,-11,-12,-12
-6,-4,2,5,-3,-1,4,2,-4,-12,-13,-13
-7,-4,2,5,-3,-1,4,2,-4,-13,-13,-13
-7,-5,2,6,-4,-1,4,1,-5,-13,-13,-13
-8,-5,3,6,-4,-1,4,0,-5,-13,-13,-13
-9,-6,3,7,-5,-1,3,-2,-6,-13,-13,-12
-9,-6,3,7,-5,-2,2,-4,-7,-13,-12,-12
-8,-6,3,7,-5,-2,1,-6,-8,-13,-11,-11
-8,-5,3,7,-5,-2,1,-7,-9,-13,-10,-11
-8,-5,3,6,-5,-1,0,-8,-9,-12,-10,-10
-8,-6,3,6,-5,-1,0,-9,-10,-12,-9,-10
-8,-6,3,6,-5,-1,0,-9,-10,-11,-9,-9
-8,-6,3,6,-5,-1,0,-9,-10,-11,-9,-9
-8,-6,3,7,-5,-2,0,-10,-10,-11,-9,-10
-8,-6,3,7,-5,-2,-1,-10,-10,-11,-9,-10
-8,-6,2,7,-4,-2,-1,-10,-10,-11,-9,-10
-7,-6,2,6,-4,-2,-1,-10,-10,-11,-9,-11
-7,-6,1,6,-3,-2,-1,-9,-10,-11,-9,-11
-7,-6,2,7,-3,-2,-1,-9,-9,-11,-10,-11
-7,-6,2,7,-3,-2,-1,-8,-9,-11,-11,-12
-7,-5,2,7,-3,-2,-1,-7,-8,-12,-12,-12
-7,-5,2,7,-4,-1,-1,-7,-9,-13,-13,-13
-8,-5,3,7,-5,-1,-1,-8,-9,-13,-13,-13
-8,-5,4,6,-5,0,-1,-8,-9,-12,-12,-12
-8,-4,4,6,-6,0,0,-7,-9,-11,-11,-12
-8,-3,4,5,-6,0,0,-7,-9,-10,-10,-11
-8,-3,4,5,-5,0,0,-8,-9,-11,-9,-11
-8,-3,3,5,-5,0,0,-8,-9,-11,-9,-10
-7,-4,3,5,-5,0,0,-8,-10,-12,-9,-10
-6,-4,3,5,-4,0,0,-8,-9,-11,-8,-10
-5,-4,3,4,-4,0,0,-8,-9,-10,-8,-10
-6,-4,3,5,-4,-1,-1,-8,-9,-10,-8,-10
-7,-5,3,6,-5,-1,-1,-8,-9,-11,-10,-11
-8,-5,3,6,-5,-1,-1,-7,-9,-12,-11,-12
-8,-5,3,6,-5,-1,0,-6,-9,-12,-11,-13
-8,-5,3,7,-5,0,0,-6,-8,-12,-12,-13
-9,-5,4,7,-6,0,0,-5,-8,-13,-12,-13
-8,-5,4,7,-5,0,0,-5,-8,-13,-12,-13
-8,-5,4,6,-5,0,0,-5,-8,-13,-11,-13
-7,-4,4,6,-5,0,1,-5,-8,-12,-11,-13
-7,-3,4,5,-5,0,1,-3,-6,-12,-11,-13
-7,-3,5,5,-6,0,1,-1,-4,-11,-12,-14
-7,-3,5,5,-6,0,1,0,-3,-11,-13,-15
-7,-3,5,5,-6,0,2,1,-2,-11,-15,-17
-7,-2,5,5,-6,1,3,1,-3,-12,-16,-17
-7,-2,6,5,-6,1,3,0,-4,-14,-17,-17
-8,-2,6,5,-7,2,2,-3,-7,-15,-18,-17
-8,-3,6,6,-7,1,1,-7,-10,-16,-17,-16
-9,-4,5,6,-7,0,0,-10,-12,-16,-14,-14
-8,-4,5,6,-6,0,-1,-13,-14,-14,-11,-11
-8,-3,5,6,-6,0,-2,-14,-14,-12,-7,-8
-7,-3,5,5,-6,0,-2,-15,-14,-10,-5,-7
-7,-2,5,5,-6,0,-3,-14,-13,-9,-4,-6
-7,-2,5,5,-6,1,-3,-13,-12,-7,-4,-7
-7,-1,5,5,-6,2,-2,-11,-10,-6,-5,-7
-6,0,6,4,-6,3,-2,-9,-9,-6,-5,-8
-6,0,7,3,-6,4,-1,-8,-7,-6,-6,-9
-5,1,7,2,-6,5,0,-7,-6,-7,-7,-10
-5,2,8,2,-6,5,0,-6,-5,-7,-8,-10
-6,3,9,2,-7,5,1,-6,-6,-8,-8,-10
-6,2,8,2,-7,5,1,-6,-6,-9,-8,-11
-6,2,8,2,-7,5,1,-6,-6,-8,-8,-11
-6,2,8,2,-7,5,1,-6,-5,-8,-8,-11
-6,1,8,2,-7,5,1,-6,-5,-8,-8,-11
-6,1,8,3,-7,5,1,-6,-5,-8,-8,-11
-6,1,8,3,-7,5,1,-6,-6,-9,-8,-11
-6,1,8,2,-6,5,0,-6,-7,-8,-7,-10
-5,2,8,2,-6,5,0,-7,-8,-7,-6,-10
-5,2,8,1,-6,5,-1,-8,-8,-6,-6,-9
-4,3,8,0,-6,6,-2,-9,-8,-5,-6,-9
-3,4,8,0,-5,6,-4,-9,-7,-5,-7,-9
-3,4,8,0,-5,6,-6,-10,-7,-5,-7,-9
-3,4,8,0,-5,6,-7,-10,-7,-6,-8,-10
-3,4,8,0,-5,6,-7,-10,-7,-8,-9,-10
-3,4,8,0,-6,6,-8,-10,-8,-9,-10,-10
-4,4,9,0,-6,6,-8,-11,-9,-10,-10,-10
-5,3,9,1,-6,6,-9,-12,-9,-11,-10,-10
-5,3,9,1,-6,6,-9,-13,-10,-11,-10,-10
-4,4,8,0,-6,6,-9,-13,-10,-11,-9,-10
-3,5,8,0,-5,6,-9,-13,-11,-10,-8,-9
-3,5,8,-1,-5,6,-9,-13,-11,-10,-8,-9
-3,5,8,-1,-5,6,-9,-13,-10,-9,-8,-9
-2,5,8,-1,-5,6,-9,-13,-10,-9,-8,-9
0,6,8,-3,-4,7,-9,-13,-10,-9,-9,-10
0,7,7,-3,-3,7,-8,-13,-10,-10,-10,-11
0,7,7,-3,-4,7,-8,-13,-10,-11,-12,-13
-1,6,7,-1,-4,7,-7,-12,-10,-12,-14,-14
-3,4,7,0,-5,6,-7,-10,-10,-13,-15,-15
-3,3,7,1,-5,6,-6,-9,-10,-14,-16,-16
-3,2,6,1,-5,5,-6,-8,-10,-14,-16,-16
-3,1,6,1,-5,4,-7,-9,-11,-15,-16,-15
-4,0,6,2,-5,3,-7,-9,-12,-15,-15,-15
-5,0,6,3,-5,3,-6,-10,-13,-14,-14,-13
-5,0,6,3,-5,3,-6,-12,-14,-13,-12,-12
-5,0,6,3,-5,3,-6,-15,-14,-11,-10,-10
-5,1,6,3,-5,3,-6,-17,-14,-10,-8,-9
-5,1,7,3,-6,4,-6,-18,-14,-10,-7,-8
-6,1,7,3,-6,4,-6,-18,-15,-11,-7,-9
-7,0,7,4,-7,4,-6,-18,-15,-11,-8,-10
-7,0,7,4,-7,4,-6,-17,-14,-11,-9,-10
-7,0,7,4,-7,3,-5,-16,-14,-12,-9,-11
-7,-1,6,4,-6,2,-5,-15,-14,-12,-10,-12
-8,-2,5,5,-6,1,-5,-14,-14,-13,-11,-13
-8,-3,4,6,-6,0,-4,-14,-14,-13,-13,-14
-8,-4,4,6,-6,0,-4,-13,-13,-13,-14,-15
-8,-4,4,6,-6,0,-3,-13,-13,-13,-15,-16
-8,-4,4,6,-6,0,-3,-12,-12,-14,-16,-17
-8,-3,5,6,-6,0,-2,-11,-12,-14,-16,-17
-8,-3,5,6,-6,0,-2,-10,-11,-14,-16,-16
-9,-3,6,6,-7,0,-2,-10,-12,-14,-15,-15
-8,-3,5,6,-7,0,-2,-11,-12,-14,-14,-14
-7,-3,4,6,-6,0,-2,-12,-13,-13,-13,-14
-7,-3,4,6,-5,0,-2,-13,-14,-13,-12,-13
-7,-4,3,6,-5,0,-2,-13,-14,-12,-11,-13
-7,-5,3,7,-5,0,-1,-14,-14,-12,-11,-12
-8,-5,3,7,-5,-1,-1,-14,-14,-11,-11,-12
-8,-5,3,7,-5,-1,-1,-13,-13,-11,-11,-12
-8,-5,3,7,-5,-1,-1,-12,-12,-10,-12,-13
-8,-6,3,7,-6,-2,-1,-11,-11,-11,-13,-14
-9,-6,3,8,-6,-2,-1,-10,-10,-11,-15,-16
-8,-6,3,7,-6,-1,0,-9,-9,-12,-17,-17
-8,-6,3,7,-6,-1,0,-7,-9,-12,-18,-17
-8,-5,4,7,-7,0,1,-6,-9,-13,-18,-17
-9,-5,5,6,-7,0,2,-6,-10,-14,-17,-17
-9,-4,5,6,-7,0,2,-7,-11,-14,-17,-16
-9,-5,4,7,-7,0,2,-7,-11,-15,-16,-16
-10,-6,5,8,-8,0,2,-6,-12,-14,-16,-16
-12,-6,5,9,-9,0,3,-5,-12,-13,-15,-16
-12,-6,5,10,-9,0,3,-5,-12,-11,-14,-15
-12,-7,5,10,-9,0,4,-6,-12,-9,-13,-15
-12,-7,5,10,-9,0,4,-6,-10,-7,-12,-15
-12,-7,5,10,-9,0,5,-7,-8,-5,-10,-15
-12,-7,5,9,-8,0,6,-7,-6,-2,-9,-14
-11,-6,5,9,-8,-1,7,-6,-4,0,-7,-13
-10,-7,3,9,-6,-2,7,-4,-1,2,-5,-11
-8,-8,0,8,-4,-4,7,-2,1,4,-3,-9
-5,-9,-4,8,0,-7,7,-1,2,7,0,-7
-1,-11,-10,7,4,-10,6,0,3,10,4,-3
3,-12,-15,5,9,-14,4,1,5,15,9,2
9,-12,-22,2,15,-17,2,3,8,21,16,9
17,-12,-29,-2,23,-21,1,8,14,29,26,18
26,-11,-37,-7,32,-24,0,14,22,40,38,29
37,-9,-45,-13,41,-27,-2,22,32,53,51,40
48,-5,-53,-21,51,-29,-4,29,43,67,66,53
60,0,-60,-30,60,-29,-8,34,53,81,80,67
73,7,-65,-40,68,-28,-12,37,61,92,95,82
84,16,-67,-50,75,-25,-16,38,68,102,108,96
91,26,-64,-58,77,-19,-21,36,71,107,116,106
93,36,-57,-64,75,-10,-24,30,68,103,116,109
88,43,-45,-65,67,-1,-26,20,56,89,104,100
76,45,-31,-60,54,7,-26,7,38,65,80,80
58,42,-16,-50,38,13,-23,-4,17,38,51,53
38,37,-1,-37,20,18,-18,-15,-4,11,23,28
21,33,12,-26,5,23,-12,-24,-22,-12,0,8
7,29,23,-18,-8,26,-8,-31,-38,-31,-19,-9
-5,24,29,-10,-17,26,-3,-36,-51,-48,-37,-24
-13,19,32,-2,-22,25,0,-37,-60,-61,-52,-37
-19,13,32,3,-25,22,3,-37,-67,-70,-62,-46
-23,7,31,8,-27,19,5,-36,-71,-76,-70,-52
-26,2,29,12,-27,16,7,-34,-74,-80,-74,-56
-27,-1,27,14,-27,13,8,-33,-75,-82,-77,-59
-27,-4,24,16,-25,10,8,-33,-76,-82,-77,-60
-28,-7,21,17,-24,6,8,-34,-77,-80,-77,-61
-28,-10,18,19,-23,3,8,-34,-76,-78,-76,-61
-30,-13,16,21,-23,1,7,-35,-76,-76,-75,-61
-31,-15,15,23,-23,0,6,-37,-75,-74,-73,-61
-31,-17,14,24,-22,-1,5,-39,-73,-71,-70,-59
-30,-18,13,24,-21,-2,4,-38,-68,-65,-64,-55
-28,-17,12,23,-20,-2,4,-35,-62,-58,-58,-50
-26,-16,11,22,-19,-3,4,-30,-54,-50,-51,-44
-24,-15,9,20,-17,-3,4,-25,-46,-42,-44,-39
-21,-14,6,18,-14,-4,5,-19,-39,-34,-37,-34
-17,-13,3,16,-10,-5,6,-14,-32,-27,-32,-30
-14,-12,1,14,-7,-6,7,-10,-26,-21,-27,-27
-12,-12,0,13,-6,-6,8,-8,-22,-17,-24,-24
-11,-12,0,12,-5,-5,8,-6,-17,-12,-21,-22
-9,-10,0,10,-4,-4,9,-4,-12,-8,-18,-20
-8,-8,0,8,-4,-3,10,-2,-7,-5,-15,-18
-8,-6,1,7,-4,-2,11,0,-3,-2,-13,-15
-8,-5,2,7,-5,-1,11,2,-1,0,-11,-13
-9,-5,3,7,-6,0,12,3,0,1,-10,-12
-9,-5,4,8,-6,0,12,4,0,2,-9,-12
-9,-5,4,8,-6,0,12,4,1,3,-8,-12
-9,-5,4,8,-6,0,12,4,2,4,-8,-12
-9,-5,4,8,-6,0,11,4,2,5,-7,-11
-9,-6,4,8,-6,0,11,3,2,5,-7,-11
-9,-7,3,8,-6,-1,10,3,2,5,-7,-10
-8,-6,2,7,-5,-1,10,3,3,5,-6,-9
-6,-5,1,6,-4,-1,11,4,3,6,-6,-9
-5,-4,1,5,-3,-1,11,5,4,7,-5,-8
-4,-4,1,4,-3,-1,12,7,6,8,-5,-8
-4,-4,1,4,-3,-1,12,9,7,9,-5,-8
-4,-4,1,4,-3,-1,12,10,7,9,-6,-8
-5,-4,2,4,-3,-1,12,10,7,8,-7,-8
-5,-3,2,3,-3,0,12,9,7,7,-7,-8
-5,-3,2,3,-3,0,12,7,6,7,-7,-7
-4,-3,2,3,-3,0,12,4,5,8,-6,-7
-4,-3,1,3,-3,0,11,2,4,8,-5,-6
-5,-4,1,4,-3,-1,10,1,3,8,-3,-5
-4,-5,1,4,-3,-1,9,0,3,9,-2,-4
-3,-4,1,3,-2,-1,8,0,3,11,-1,-3
-2,-3,1,2,-1,0,8,0,3,12,0,-3
-2,-2,0,2,-1,0,8,2,5,13,0,-3
-2,-2,0,1,-1,0,8,4,7,14,0,-3
-2,-1,0,1,-1,0,9,6,9,14,-1,-3
-2,-1,0,1,-1,0,10,8,10,14,-1,-4
-2,-1,1,2,-2,0,10,9,11,14,-2,-4
-2,-1,2,2,-2,1,10,10,12,14,-2,-4
-3,-1,2,2,-3,1,11,9,11,13,-2,-3
-3,-3,2,3,-3,0,11,8,10,13,-2,-3
-3,-3,1,3,-2,0,11,7,9,13,0,-2
-3,-3,1,3,-2,-1,11,6,9,13,1,-1
-1,-2,0,1,-1,-1,10,6,8,13,2,0
0,-1,0,0,0,0,10,5,8,15,3,0
0,0,0,0,0,0,10,4,8,16,3,1
0,0,0,0,0,0,10,4,8,17,3,1
0,0,0,0,0,1,9,4,8,18,3,1
0,0,0,0,0,1,9,5,8,18,2,1
0,0,1,0,0,1,9,6,9,18,2,1
-1,0,1,0,-1,1,9,8,10,18,3,2
-1,0,1,0,-1,1,9,9,11,18,3,2
-2,0,1,1,-1,1,9,9,11,18,4,2
-2,-1,1,1,-1,0,9,8,11,18,4,2
-1,-2,0,1,-1,0,9,7,10,18,5,3
0,-2,-1,1,0,-1,9,6,10,19,6,3
0,-2,-2,1,1,-1,9,6,10,20,6,4
0,-2,-2,1,1,-2,9,6,10,20,7,4
0,-2,-2,1,1,-2,9,6,11,21,7,5
0,-2,-2,1,1,-2,9,7,12,22,7,5
1,-1,-2,0,2,-2,9,9,13,23,7,5
2,0,-2,-1,3,-1,9,10,15,24,7,5
3,0,-2,-2,3,-1,9,11,16,24,7,5
3,0,-3,-2,3,-1,9,12,16,25,7,5
4,0,-3,-2,4,-1,10,12,17,25,7,5
4,0,-3,-2,4,-1,10,13,18,25,7,5
4,0,-3,-2,4,-1,10,15,18,25,7,5
3,0,-3,-1,4,-2,10,16,19,25,7,4
2,0,-3,-1,4,-1,10,18,20,25,7,3
2,0,-3,-2,3,-1,11,20,21,26,7,3
3,1,-2,-2,3,0,11,21,23,26,6,3
3,1,-2,-3,3,0,12,22,24,27,6,3
4,2,-2,-3,4,0,12,22,25,27,6,4
5,2,-2,-4,4,0,13,22,26,28,6,5
4,2,-1,-3,3,1,13,22,27,28,7,6
4,2,-1,-3,3,1,13,22,26,28,9,8
4,2,-2,-3,4,0,12,19,24,29,11,9
6,2,-3,-4,5,0,11,16,23,30,13,10
7,3,-4,-5,6,0,9,13,23,32,16,11
8,3,-4,-5,7,0,8,12,22,33,18,12
8,3,-4,-5,6,0,7,12,22,34,19,13
8,3,-4,-5,6,0,7,13,21,35,21,14
10,4,-5,-6,8,0,6,13,21,36,22,15
11,5,-5,-8,9,0,6,14,22,37,23,17
12,5,-6,-9,9,0,6,15,23,39,24,18
12,5,-6,-9,10,0,6,16,24,40,24,18
13,5,-6,-9,10,0,6,17,26,40,25,19
13,5,-6,-9,10,0,6,18,27,41,25,19
12,5,-6,-9,10,0,5,19,27,41,25,19
13,5,-7,-9,11,0,5,19,28,41,25,19
16,7,-7,-11,12,0,5,20,29,42,26,20
17,8,-8,-12,13,0,5,21,30,43,27,21
17,8,-8,-12,13,0,5,22,32,44,27,21
17,8,-7,-13,12,0,5,23,33,44,27,21
17,10,-7,-13,12,1,4,24,34,44,28,22
18,11,-7,-14,12,2,3,24,34,43,28,22
19,12,-7,-15,13,3,2,23,33,43,27,22
20,13,-6,-16,13,3,1,22,32,43,27,22
20,13,-6,-17,13,4,1,22,32,43,27,22
21,14,-6,-17,14,4,0,22,33,42,27,22
22,15,-6,-18,14,4,0,22,32,42,27,23
23,15,-6,-19,15,4,0,22,32,41,27,23
23,15,-7,-18,15,4,-1,21,32,41,28,24
22,14,-7,-18,15,3,-1,21,32,42,28,24
23,15,-7,-19,16,3,-1,21,31,42,29,25
24,16,-7,-20,16,4,-2,20,30,43,31,27
25,17,-7,-20,16,5,-2,19,29,43,32,28
25,18,-7,-21,16,5,-2,18,28,42,32,29
26,19,-7,-23,17,6,-2,17,27,42,33,29
28,20,-7,-24,17,6,-3,15,27,42,33,30
29,21,-7,-25,18,7,-4,14,27,42,32,29
28,21,-7,-24,18,7,-5,14,27,41,31,28
28,20,-7,-24,18,7,-6,14,27,40,29,28
27,20,-7,-23,18,7,-6,15,27,39,28,27
27,20,-7,-23,17,7,-6,16,27,38,27,27
26,19,-7,-23,17,7,-6,15,27,37,26,26
26,19,-7,-23,17,7,-6,14,26,36,26,26
26,19,-7,-23,17,7,-6,13,25,34,25,25
26,19,-6,-23,16,7,-6,12,24,33,25,25
26,20,-5,-23,16,7,-6,11,22,31,24,24
25,20,-4,-23,15,8,-7,10,20,29,22,23
25,21,-3,-23,14,8,-7,9,19,28,21,22
25,21,-3,-23,14,9,-7,8,18,28,20,21
24,21,-3,-22,14,9,-7,7,17,27,19,21
23,20,-3,-21,14,8,-7,6,16,26,18,20
22,19,-3,-20,13,8,-7,5,15,24,17,20
21,17,-3,-19,13,7,-6,4,15,22,15,19
19,16,-3,-17,12,6,-6,3,14,19,13,17
18,14,-3,-16,11,6,-5,2,12,17,11,16
17,14,-3,-16,11,6,-5,1,11,15,9,15
15,13,-2,-14,9,6,-4,0,8,13,8,14
13,12,-1,-13,8,6,-4,-1,5,11,8,13
12,12,-1,-12,7,5,-4,-3,3,10,8,13
11,10,-1,-10,6,5,-4,-4,0,9,7,12
10,9,-1,-9,6,4,-3,-5,-1,9,7,12
9,8,-1,-9,5,4,-2,-5,-1,9,7,12
8,7,0,-8,5,4,-1,-5,-2,8,6,11
7,6,0,-6,4,4,-1,-6,-2,7,5,9
6,5,0,-5,3,3,-1,-6,-3,6,4,8
5,5,0,-5,3,3,-1,-6,-3,6,3,6
4,5,1,-4,2,3,-1,-6,-3,5,1,5
4,5,1,-4,1,3,0,-6,-3,4,0,4
3,4,2,-3,1,3,0,-6,-3,2,0,3
2,3,2,-2,0,3,1,-6,-3,1,-1,2
1,2,2,-2,0,3,2,-6,-4,0,-3,1
0,2,2,-1,0,3,3,-6,-5,-1,-4,0
0,2,2,-1,-1,3,3,-6,-5,-1,-5,0
-1,1,2,0,-1,2,3,-5,-4,-1,-7,-2
-2,0,2,1,-2,1,3,-4,-3,-2,-9,-4
-2,0,2,1,-2,1,4,-2,-2,-3,-11,-6
-3,0,3,2,-3,2,5,1,-1,-5,-12,-7
-3,1,5,1,-4,4,7,3,-1,-6,-13,-7
-4,2,6,1,-5,5,8,3,-2,-8,-13,-7
-4,2,6,1,-4,5,8,1,-4,-9,-13,-7
-4,2,6,1,-4,4,8,-2,-7,-9,-13,-7
-4,1,5,1,-4,3,7,-7,-9,-8,-12,-6
-5,0,5,2,-4,3,7,-10,-10,-6,-10,-5
-5,0,4,2,-4,2,6,-12,-10,-5,-8,-4
-5,-1,4,3,-3,1,5,-13,-10,-4,-7,-3
-5,-3,3,4,-3,0,5,-13,-10,-4,-8,-3
-6,-4,3,5,-3,0,4,-13,-10,-4,-8,-3
-6,-4,2,5,-3,0,4,-12,-9,-4,-8,-4
-6,-3,2,5,-3,0,4,-11,-9,-4,-8,-4
-5,-2,2,4,-3,0,4,-9,-7,-4,-8,-5
-3,0,3,2,-3,1,5,-6,-6,-4,-8,-6
-2,1,3,1,-3,2,6,-4,-4,-3,-9,-6
-2,0,3,1,-3,2,6,-3,-4,-4,-10,-7
-3,0,4,2,-3,2,6,-3,-4,-5,-12,-8
-4,0,5,3,-4,2,7,-3,-4,-7,-14,-9
-5,-1,5,3,-4,2,7,-3,-4,-8,-15,-9
-5,-1,5,4,-4,1,7,-4,-4,-7,-15,-9
-5,-1,4,4,-4,1,7,-4,-4,-7,-14,-9
-6,-2,4,4,-4,1,7,-5,-5,-6,-13,-9
-6,-2,4,5,-5,1,7,-6,-6,-6,-12,-8
-6,-2,4,5,-5,1,7,-7,-7,-6,-11,-7
-6,-2,4,5,-5,1,6,-8,-8,-6,-10,-6
-6,-2,4,4,-4,1,6,-8,-8,-5,-10,-5
-5,-2,3,4,-3,1,6,-8,-8,-5,-9,-5
-5,-2,3,4,-3,1,6,-8,-8,-4,-9,-5
-6,-3,3,4,-3,0,6,-7,-8,-4,-9,-5
-5,-3,3,4,-3,0,6,-7,-8,-4,-8,-5
-5,-2,3,4,-3,0,6,-6,-8,-4,-8,-4
-5,-2,3,4,-3,0,6,-6,-8,-4,-8,-4
-5,-3,3,4,-4,0,6,-6,-7,-4,-8,-4
-5,-3,3,4,-4,0,6,-6,-7,-4,-8,-4
-5,-2,3,4,-4,0,6,-5,-6,-4,-8,-4
-5,-2,3,4,-4,0,7,-4,-5,-3,-7,-4
-5,-2,3,4,-4,0,7,-3,-4,-2,-6,-4
-5,-2,4,5,-4,0,7,-3,-3,-1,-6,-4
-6,-2,5,5,-5,1,7,-4,-3,-2,-8,-4
-7,-2,5,5,-6,1,7,-4,-3,-3,-9,-5
-7,-2,5,5,-6,1,7,-3,-3,-4,-10,-6
-6,-2,4,5,-5,1,7,-3,-3,-5,-11,-7
-6,-2,3,5,-4,0,7,-3,-3,-5,-12,-7
-5,-2,3,5,-4,0,7,-3,-3,-5,-12,-7
-5,-1,4,4,-4,1,7,-2,-3,-5,-12,-7
-5,0,4,4,-4,2,8,-1,-2,-4,-12,-8
-5,0,4,3,-4,2,8,0,0,-4,-12,-8
-5,-1,4,3,-4,2,8,1,0,-4,-12,-8
-5,-1,4,4,-5,2,8,2,0,-4,-12,-8
-6,-2,5,5,-5,2,9,2,0,-4,-11,-8
-7,-2,5,5,-6,2,9,1,0,-4,-10,-8
-7,-2,5,5,-6,2,8,0,-1,-5,-10,-8
-8,-2,5,5,-6,2,8,-1,-3,-5,-10,-8
-7,-1,6,4,-6,2,7,-3,-5,-5,-10,-7
-6,-1,6,3,-5,2,7,-5,-5,-4,-9,-7
-6,0,5,3,-5,2,6,-6,-5,-4,-9,-6
-5,0,5,2,-5,2,6,-6,-5,-4,-8,-6
-5,0,4,2,-4,2,6,-6,-4,-3,-7,-5
-5,0,4,2,-4,2,7,-4,-3,-2,-6,-4
-5,0,4,3,-4,2,7,-3,-2,-1,-6,-3
-5,0,4,3,-4,1,8,-2,-2,-1,-5,-2
-5,0,4,3,-4,1,8,-1,-2,-1,-4,-1
-5,-2,3,4,-4,1,8,-2,-2,-1,-4,-1
-5,-2,3,4,-4,0,7,-4,-3,-1,-3,0
-4,-1,3,3,-4,1,7,-6,-4,0,-3,-1
-4,0,4,2,-4,2,6,-7,-5,0,-4,-2
-4,0,4,2,-4,2,6,-8,-5,0,-5,-3
-3,1,4,1,-4,3,5,-7,-4,0,-5,-4
-3,2,5,1,-4,3,5,-6,-3,0,-6,-4
-4,1,5,2,-5,3,5,-5,-2,0,-7,-5
-5,1,6,2,-5,3,6,-3,0,0,-7,-5
-4,1,6,2,-5,3,6,-2,0,-1,-7,-5
-5,0,5,3,-5,2,6,-1,0,-2,-8,-5
-5,-2,4,4,-5,1,6,-2,-2,-4,-8,-5
-5,-2,4,4,-5,1,7,-3,-4,-4,-7,-4
-3,0,4,2,-4,2,7,-4,-4,-4,-6,-3
-2,1,4,1,-3,2,7,-4,-3,-3,-5,-1
-2,1,4,1,-3,2,6,-4,-3,-2,-5,-1
-2,1,4,1,-3,2,6,-4,-2,-2,-5,-1
-2,1,4,1,-3,2,6,-4,-2,-3,-6,-2
-2,1,4,1,-3,2,6,-4,-2,-3,-7,-3
-3,1,5,1,-3,3,6,-4,-3,-3,-7,-3
-3,1,5,1,-4,3,6,-4,-3,-3,-7,-4
-3,2,5,1,-4,3,6,-4,-3,-3,-7,-4
-3,2,5,1,-4,3,6,-4,-4,-3,-7,-4
-3,1,5,2,-4,3,6,-4,-4,-2,-7,-4
-4,0,4,2,-4,2,6,-4,-3,-2,-6,-3
-4,0,4,3,-4,1,6,-4,-3,-2,-6,-3
-4,-1,3,3,-4,1,6,-4,-4,-2,-6,-2
-4,-1,3,3,-4,0,6,-3,-4,-2,-5,-2
-3,-1,3,3,-4,0,6,-3,-3,-1,-3,-1
-2,-1,2,3,-3,0,6,-2,-1,-1,-3,0
-1,0,1,2,-2,0,7,-1,0,-1,-3,-1
-1,0,1,2,-2,0,7,0,0,-2,-5,-3
-2,0,2,2,-2,1,6,-1,-1,-3,-7,-4
-3,0,4,2,-3,1,6,-1,-2,-4,-8,-5
-3,1,5,1,-4,2,6,-1,-2,-4,-9,-5
-3,2,6,1,-5,3,6,-2,-3,-4,-9,-5
-3,1,5,1,-5,3,6,-4,-4,-4,-8,-4
-3,0,4,1,-4,2,5,-6,-4,-4,-7,-3
-3,0,3,2,-4,1,5,-7,-5,-4,-6,-2
-3,-2,2,3,-3,0,5,-7,-5,-3,-6,-3
-4,-3,1,4,-3,-1,5,-7,-5,-3,-6,-3
-4,-3,2,4,-3,0,5,-6,-5,-2,-6,-4
-4,-3,2,4,-4,0,5,-6,-5,-3,-7,-5
-5,-3,3,4,-4,0,4,-7,-5,-3,-8,-6
-6,-2,4,3,-5,1,4,-8,-5,-4,-8,-6
-6,0,5,3,-5,2,4,-8,-5,-5,-9,-6
-5,0,5,2,-5,2,4,-9,-5,-6,-9,-5
-4,1,5,2,-4,3,3,-9,-6,-7,-8,-5
-4,1,5,2,-4,3,3,-10,-7,-7,-7,-4
-4,0,5,2,-5,3,2,-10,-7,-6,-7,-4
-3,0,5,2,-4,2,2,-9,-7,-6,-7,-3
-3,0,4,2,-3,1,3,-9,-7,-6,-6,-3
-2,0,3,1,-3,1,3,-8,-6,-5,-5,-2
-3,-1,3,2,-3,1,4,-6,-5,-4,-5,-2
-4,-2,3,3,-3,0,4,-5,-4,-4,-6,-2
-5,-3,3,4,-4,0,4,-5,-3,-5,-6,-2
-5,-3,3,4,-4,0,4,-4,-3,-5,-6,-3
-5,-2,3,4,-4,0,4,-4,-4,-6,-7,-4
-4,-1,3,3,-4,1,4,-4,-4,-6,-8,-5
-4,-1,3,2,-4,1,4,-4,-4,-6,-8,-6
-4,0,3,2,-4,1,4,-4,-3,-5,-8,-7
-3,0,3,2,-3,1,4,-4,-2,-5,-8,-7
-3,0,3,1,-3,2,4,-3,-2,-6,-9,-7
-3,0,4,1,-3,2,4,-3,-2,-7,-11,-7
-4,0,5,2,-4,2,4,-2,-2,-8,-11,-7
-3,1,5,1,-4,2,5,-2,-2,-7,-11,-6
-2,1,4,0,-3,2,5,-2,-2,-7,-10,-5
-2,0,3,1,-3,1,5,-3,-2,-7,-9,-5
-3,0,3,1,-3,1,4,-3,-3,-7,-9,-5
-3,-1,3,2,-3,1,4,-4,-4,-7,-8,-5
-4,-1,3,2,-3,1,4,-4,-4,-8,-8,-5
-4,-1,3,3,-3,1,3,-5,-5,-8,-8,-5
-4,-1,3,3,-4,1,3,-5,-5,-7,-8,-5
-4,0,4,2,-4,1,3,-5,-5,-6,-7,-5
-3,0,4,2,-4,2,3,-6,-5,-6,-7,-4
-3,1,4,1,-4,2,2,-7,-6,-6,-6,-4
-3,1,4,1,-4,2,2,-8,-6,-6,-6,-4
-3,0,4,2,-4,2,1,-9,-7,-6,-5,-4
-4,0,4,2,-4,1,1,-9,-7,-6,-5,-4
-4,0,4,2,-4,1,1,-10,-7,-6,-5,-4
-4,0,4,2,-4,1,1,-9,-7,-6,-5,-4
-4,0,4,2,-4,1,0,-9,-7,-6,-6,-4
-4,-1,4,3,-4,1,0,-9,-7,-7,-7,-5
-4,-1,4,3,-4,0,0,-9,-7,-8,-8,-6
-4,0,4,2,-4,1,0,-9,-6,-7,-7,-5
-3,0,4,2,-3,1,0,-8,-6,-7,-6,-5
-3,0,4,2,-3,1,0,-8,-6,-7,-6,-5
-3,0,4,2,-3,1,0,-8,-6,-7,-6,-5
-3,0,4,2,-4,1,0,-8,-6,-7,-6,-5
-3,0,4,1,-4,1,0,-8,-6,-7,-5,-5
-3,0,4,1,-4,1,0,-8,-6,-6,-5,-5
-3,0,4,1,-4,1,1,-7,-5,-6,-5,-5
-3,0,4,1,-3,1,1,-6,-4,-5,-5,-5
-3,0,3,2,-3,1,1,-4,-3,-5,-6,-5
-4,0,4,2,-4,1,1,-3,-2,-5,-6,-5
-4,0,5,1,-4,2,2,-2,-2,-6,-7,-5
-4,1,5,1,-4,3,2,-2,-2,-7,-7,-6
-4,1,5,1,-4,3,2,-2,-3,-8,-8,-6
-4,1,5,1,-4,3,2,-3,-4,-8,-8,-6
-3,2,5,0,-4,3,2,-4,-4,-7,-7,-6
-2,4,6,0,-4,4,2,-4,-4,-6,-7,-5
-2,5,7,-1,-5,5,3,-4,-3,-6,-7,-5
-2,5,8,-1,-5,6,3,-4,-3,-6,-7,-5
-2,4,8,0,-5,6,2,-4,-3,-7,-7,-4
-2,3,7,0,-5,5,2,-3,-3,-7,-6,-3
-2,3,6,0,-4,5,2,-2,-2,-6,-5,-2
-3,2,6,0,-4,4,3,-1,-1,-5,-4,-1
-4,1,6,1,-5,4,3,0,0,-5,-4,-1
-4,1,6,2,-5,3,3,1,0,-5,-4,-1
-3,1,6,1,-5,3,3,0,0,-6,-4,-1
-2,2,6,0,-4,4,3,-1,-1,-5,-4,-1
-2,3,6,0,-4,4,3,-2,-1,-5,-3,-1
-1,4,7,-1,-4,5,3,-2,-1,-5,-3,-1
0,5,7,-2,-4,6,2,-4,-2,-5,-3,-1
0,6,6,-3,-3,6,1,-5,-2,-5,-3,-1
0,6,6,-3,-3,6,0,-6,-3,-5,-2,-1
0,7,6,-4,-3,6,-1,-6,-3,-5,-2,-1
1,7,7,-4,-3,7,-2,-5,-2,-5,-3,-2
1,7,7,-4,-3,7,-4,-5,-2,-5,-4,-3
1,7,7,-3,-3,7,-5,-5,-2,-6,-5,-4
1,7,7,-3,-3,7,-6,-5,-2,-7,-6,-5
1,8,7,-4,-3,7,-6,-4,-2,-8,-6,-4
1,8,8,-4,-4,7,-7,-5,-3,-9,-6,-4
0,8,7,-3,-4,7,-8,-8,-5,-10,-6,-4
0,7,7,-3,-4,6,-9,-11,-7,-10,-6,-4
0,7,7,-2,-4,6,-9,-12,-7,-9,-5,-3
-1,6,8,-2,-5,6,-10,-13,-7,-8,-4,-3
-1,6,8,-2,-5,6,-10,-13,-7,-8,-3,-2
0,6,8,-2,-4,6,-10,-13,-7,-8,-3,-2
0,6,7,-3,-3,6,-9,-13,-7,-8,-2,-2
1,7,6,-3,-3,6,-9,-13,-7,-8,-2,-2
1,8,6,-4,-2,7,-9,-12,-7,-9,-3,-2
2,9,6,-5,-2,7,-9,-12,-7,-10,-3,-2
2,9,6,-5,-1,7,-9,-12,-7,-11,-3,-2
2,9,6,-5,-1,7,-9,-11,-7,-11,-3,-2
2,8,6,-5,-1,6,-9,-11,-7,-11,-3,-2
3,7,5,-5,-1,5,-9,-11,-8,-11,-3,-3
2,5,4,-4,0,4,-9,-11,-8,-11,-3,-4
1,4,3,-3,0,3,-9,-11,-7,-11,-4,-4
1,3,3,-2,0,2,-8,-9,-6,-10,-5,-5
0,3,3,-1,-1,2,-7,-7,-5,-10,-6,-5
0,2,4,-1,-2,2,-6,-6,-5,-11,-7,-5
-1,2,4,0,-2,2,-5,-5,-5,-12,-8,-5
-2,1,4,1,-3,2,-5,-5,-6,-13,-8,-5
-3,0,4,3,-4,1,-5,-6,-7,-14,-7,-5
-4,-1,3,4,-4,0,-5,-7,-7,-14,-7,-5
-4,-2,3,4,-4,0,-5,-7,-7,-13,-6,-5
-5,-3,3,5,-4,0,-5,-7,-7,-13,-6,-5
-4,-3,3,4,-3,0,-5,-7,-8,-13,-6,-6
-2,-2,2,3,-2,0,-5,-7,-8,-13,-6,-6
-1,-1,1,1,-1,0,-5,-7,-8,-14,-7,-7
-1,0,2,1,-1,0,-5,-7,-8,-15,-7,-7
-2,0,3,1,-2,1,-5,-8,-8,-14,-7,-7
-2,1,3,1,-3,2,-5,-9,-8,-13,-7,-7
-2,2,4,0,-3,3,-6,-9,-8,-13,-7,-7
-2,1,4,1,-4,3,-6,-9,-7,-13,-7,-7
-3,0,4,2,-4,2,-6,-9,-7,-14,-7,-7
-4,-2,4,4,-4,0,-7,-10,-8,-14,-7,-7
-5,-3,3,4,-4,-1,-7,-11,-8,-14,-6,-7
-5,-4,1,5,-3,-2,-7,-10,-8,-14,-6,-7
-4,-5,0,5,-3,-3,-6,-9,-8,-14,-6,-7
-4,-5,0,4,-2,-3,-6,-8,-8,-13,-6,-7
-4,-5,0,4,-2,-3,-6,-8,-8,-13,-6,-7
-4,-4,0,4,-3,-2,-5,-7,-8,-12,-6,-7
-3,-3,1,3,-3,-1,-5,-7,-7,-12,-5,-6
-2,-2,2,2,-3,0,-5,-7,-7,-11,-5,-6
-1,-1,1,1,-2,0,-5,-7,-7,-11,-5,-6
0,-1,1,1,-1,-1,-5,-8,-7,-12,-5,-6
0,-1,0,1,-1,-1,-5,-9,-7,-12,-4,-6
-1,-1,0,1,-1,-1,-5,-9,-7,-12,-4,-6
-1,-1,0,1,-1,-1,-5,-9,-7,-11,-5,-6
-2,-1,1,1,-1,-1,-5,-9,-6,-12,-5,-6
-2,-2,1,2,-2,-1,-5,-8,-6,-13,-6,-6
-3,-3,2,3,-2,-2,-5,-7,-6,-14,-7,-7
-4,-4,2,4,-3,-2,-5,-6,-6,-14,-7,-7
-5,-5,2,5,-3,-2,-5,-4,-6,-14,-6,-7
-5,-5,2,5,-4,-2,-4,-2,-5,-13,-5,-7
-5,-5,1,5,-3,-2,-2,0,-4,-11,-5,-7
-6,-5,1,5,-4,-3,-1,1,-2,-10,-5,-7
-7,-6,1,6,-4,-3,0,4,1,-8,-4,-8
-6,-6,1,6,-3,-3,1,6,5,-5,-4,-8
-4,-6,-1,5,-1,-3,2,9,8,-3,-3,-8
-2,-7,-3,5,0,-5,2,11,10,-1,-1,-6
0,-8,-7,5,3,-7,2,12,12,1,2,-3
2,-10,-11,4,6,-10,1,12,12,3,7,2
6,-10,-16,2,11,-14,0,11,11,7,14,10
12,-10,-22,-1,18,-17,-3,10,12,13,25,20
21,-8,-30,-6,26,-20,-5,12,17,23,38,33
31,-7,-38,-11,35,-23,-7,15,24,36,53,46
42,-4,-45,-18,44,-25,-9,20,33,50,69,61
55,0,-53,-27,54,-26,-11,26,43,66,86,76
67,6,-59,-36,63,-26,-15,31,54,81,103,92
77,14,-62,-45,70,-24,-19,35,63,93,118,108
84,23,-61,-53,73,-19,-22,37,71,102,130,122
88,33,-55,-60,72,-11,-25,37,75,106,138,133
87,43,-45,-65,66,-1,-27,35,75,104,139,137
82,49,-33,-65,57,8,-27,29,67,92,128,128
69,50,-19,-59,44,16,-25,21,54,74,106,106
52,45,-6,-48,29,20,-20,13,40,52,80,77
33,38,5,-35,14,22,-15,6,23,29,53,48
16,32,16,-24,0,24,-11,-3,5,5,27,24
3,27,24,-15,-11,25,-8,-12,-13,-17,4,3
-7,24,30,-8,-19,26,-6,-18,-28,-36,-16,-13
-14,21,34,-3,-24,27,-4,-21,-38,-50,-32,-26
-18,18,36,0,-26,26,-2,-22,-46,-61,-44,-35
-19,15,36,2,-27,25,-1,-21,-51,-68,-52,-41
-20,12,34,4,-27,24,1,-18,-53,-71,-57,-45
-21,8,31,6,-26,20,5,-14,-53,-72,-59,-47
-22,3,27,9,-24,15,7,-12,-54,-73,-61,-50
-24,-3,22,13,-23,9,7,-13,-57,-74,-63,-53
-25,-8,17,17,-22,4,6,-15,-59,-74,-64,-55
-25,-11,14,19,-20,0,5,-16,-59,-72,-63,-56
-25,-13,11,20,-18,-1,4,-17,-58,-70,-61,-55
-25,-14,9,20,-17,-2,3,-18,-57,-67,-60,-54
-25,-15,9,20,-16,-2,2,-19,-55,-65,-58,-52
-24,-15,8,19,-15,-3,1,-18,-51,-62,-55,-49
-22,-15,8,18,-15,-3,1,-15,-45,-57,-51,-45
-21,-15,7,17,-14,-3,1,-10,-40,-52,-45,-41
-18,-14,5,16,-12,-4,1,-6,-34,-45,-38,-35
-15,-14,2,15,-9,-6,0,-4,-29,-39,-31,-30
-11,-13,0,13,-6,-7,0,-4,-26,-34,-25,-26
-8,-12,-3,11,-3,-8,0,-4,-24,-30,-21,-22
-7,-12,-5,10,-1,-9,-1,-4,-21,-25,-17,-20
-5,-11,-6,9,0,-9,-2,-3,-17,-20,-13,-17
-3,-9,-5,6,1,-7,-1,-1,-12,-15,-10,-15
-2,-6,-4,4,1,-6,0,2,-7,-11,-7,-12
-2,-4,-3,3,0,-4,1,5,-3,-8,-4,-10
-2,-4,-2,3,0,-3,2,6,-1,-6,-2,-8
-2,-4,-2,4,0,-3,2,7,0,-5,-1,-7
-3,-5,-2,4,0,-3,2,7,1,-4,0,-5
-3,-5,-1,4,0,-3,1,6,2,-2,1,-4
-3,-4,0,4,-1,-2,0,6,2,-1,2,-3
-3,-4,0,3,0,-2,0,6,2,-1,2,-3
-2,-4,-1,3,0,-3,-1,5,2,0,3,-3
-2,-4,-2,3,0,-4,-1,4,2,0,3,-3
-2,-5,-3,3,0,-4,-1,5,3,0,4,-2
-1,-5,-3,3,1,-4,-1,6,4,1,5,-1
0,-4,-3,2,1,-4,0,8,4,1,6,-1
0,-4,-3,2,2,-4,0,8,4,1,6,-1
0,-4,-4,2,2,-4,0,8,4,2,6,0
1,-3,-4,1,2,-3,-1,7,5,2,7,0
1,-2,-3,0,2,-3,-1,7,5,2,7,0
1,-2,-3,1,2,-3,-1,7,5,2,6,0
0,-2,-3,1,1,-3,-2,8,5,2,6,0
0,-2,-3,1,1,-2,-2,9,5,2,5,-1
0,-2,-3,1,1,-2,-2,10,5,1,5,-1
0,-2,-3,1,1,-2,-2,10,5,2,5,-1
0,-2,-3,1,1,-2,-2,10,6,3,6,-1
0,-3,-3,1,1,-2,-2,11,8,4,6,-1
1,-2,-2,1,2,-2,-1,12,10,5,5,-1
2,-1,-2,0,2,-2,0,13,11,5,5,-1
2,-2,-3,0,2,-2,0,13,11,5,4,-1
2,-2,-3,0,2,-3,0,13,10,4,4,-1
3,-2,-4,0,3,-3,0,13,10,4,4,-1
4,-1,-4,-1,4,-3,-1,12,9,4,5,0
3,-2,-4,0,4,-3,-1,10,9,4,7,1
2,-3,-4,1,4,-4,-2,9,9,4,8,2
1,-4,-4,2,3,-4,-2,8,8,4,8,3
1,-5,-4,2,3,-4,-3,8,6,3,9,3
2,-4,-5,1,3,-4,-3,7,5,4,10,4
3,-3,-5,0,4,-4,-3,7,5,7,13,5
4,-2,-5,-1,4,-4,-3,8,6,9,15,6
4,-2,-4,-1,4,-4,-3,8,7,10,15,6
4,-2,-4,-1,4,-4,-4,8,7,9,14,6
3,-2,-4,0,4,-4,-4,8,7,9,13,5
3,-2,-4,0,4,-4,-4,9,7,9,12,5
2,-2,-5,0,4,-4,-4,10,8,9,12,5
2,-3,-5,0,4,-5,-4,11,8,9,13,5
2,-4,-5,0,4,-5,-4,13,9,9,13,6
3,-3,-5,0,4,-4,-3,14,9,10,14,6
4,-3,-6,0,5,-4,-3,14,9,10,14,7
4,-3,-6,0,5,-5,-3,13,9,10,14,7
4,-3,-6,0,5,-5,-3,12,9,10,14,7
4,-3,-6,-1,5,-5,-3,11,9,10,14,7
5,-2,-7,-2,6,-5,-3,11,10,11,15,8
6,-2,-7,-3,6,-4,-3,10,10,12,16,8
6,-2,-7,-2,6,-4,-3,10,10,13,17,8
6,-3,-7,-2,6,-4,-4,10,11,13,17,8
6,-3,-8,-2,7,-5,-3,11,11,14,16,8
7,-3,-8,-2,7,-5,-3,13,12,14,16,8
7,-3,-8,-2,8,-6,-3,14,12,14,17,9
7,-2,-8,-2,8,-6,-3,14,13,15,18,9
7,-2,-8,-3,8,-5,-4,13,13,15,19,10
8,-1,-8,-3,8,-5,-4,13,13,16,20,11
8,-1,-8,-4,8,-4,-4,13,13,17,20,11
8,0,-8,-4,8,-4,-5,13,14,18,21,10
8,0,-8,-4,8,-4,-5,14,14,19,21,10
8,0,-7,-4,8,-4,-5,16,16,20,21,10
8,0,-7,-4,8,-3,-5,18,18,20,20,10
8,1,-6,-4,7,-3,-4,19,19,20,20,10
7,1,-6,-4,7,-2,-4,20,20,20,19,10
8,2,-6,-4,7,-2,-4,20,20,19,18,10
8,1,-7,-4,7,-3,-4,20,19,19,19,11
8,0,-8,-4,8,-4,-4,19,19,20,20,13
11,2,-8,-6,9,-3,-3,19,19,21,22,15
13,3,-9,-8,11,-3,-3,20,21,23,25,17
15,3,-10,-9,12,-3,-4,22,23,25,26,18
15,3,-11,-9,13,-4,-4,22,24,26,27,18
14,1,-11,-8,13,-5,-5,23,24,26,26,17
12,0,-12,-7,12,-5,-5,23,25,26,26,17
11,0,-12,-6,12,-5,-6,24,25,26,26,18
11,0,-11,-6,11,-5,-6,23,24,26,28,19
11,0,-11,-6,11,-4,-7,23,23,27,30,20
13,1,-11,-7,11,-4,-7,22,23,28,31,21
14,2,-11,-8,12,-4,-8,22,23,29,32,22
16,3,-10,-9,13,-3,-8,21,23,29,33,23
17,4,-10,-10,14,-3,-9,21,24,30,34,23
17,5,-11,-11,14,-3,-9,21,24,32,34,23
18,6,-11,-11,14,-3,-10,22,25,33,35,24
18,7,-11,-12,14,-2,-10,23,26,34,36,25
19,8,-10,-14,14,0,-10,24,27,34,36,25
20,9,-10,-15,14,0,-10,23,26,34,36,26
21,9,-10,-15,15,0,-11,22,25,33,37,27
22,10,-11,-15,16,0,-12,20,24,34,38,28
23,10,-11,-16,17,0,-13,18,24,34,39,29
24,10,-12,-17,18,0,-13,17,24,35,40,31
25,11,-12,-18,19,0,-14,16,24,36,41,32
26,12,-12,-18,19,0,-15,16,24,36,41,32
26,12,-12,-19,19,0,-16,15,24,36,41,32
26,12,-12,-19,19,0,-16,15,24,36,41,33
25,12,-12,-18,19,0,-17,16,24,36,41,33
26,12,-12,-19,19,0,-17,16,25,36,41,33
27,13,-12,-20,19,1,-17,16,26,35,40,32
27,14,-11,-20,19,2,-18,16,25,34,39,32
27,15,-11,-21,19,2,-18,16,25,33,38,31
27,15,-10,-21,19,3,-18,16,25,32,38,31
27,16,-10,-21,19,3,-18,16,24,32,37,30
26,16,-9,-21,18,3,-18,15,24,31,36,30
27,17,-9,-21,18,3,-19,15,23,31,36,30
27,18,-8,-22,18,4,-19,15,23,30,36,30
28,19,-8,-23,18,5,-18,15,22,29,36,30
28,19,-7,-23,18,5,-18,14,21,29,35,31
27,18,-7,-22,18,5,-18,13,20,28,35,31
27,18,-7,-22,18,5,-18,13,19,28,35,31
27,18,-7,-22,18,5,-18,12,19,27,35,31
27,18,-7,-22,18,5,-18,12,19,25,33,30
26,18,-7,-21,17,5,-18,11,18,23,31,29
25,18,-7,-21,16,5,-18,12,17,21,30,28
25,18,-6,-21,15,5,-18,12,16,19,28,27
24,17,-6,-21,15,5,-18,12,14,17,27,26
23,16,-6,-19,14,5,-18,10,13,16,26,25
21,15,-5,-18,13,5,-18,9,11,15,25,25
19,13,-4,-16,12,5,-18,7,9,14,24,24
18,12,-4,-14,11,5,-18,5,7,12,22,22
17,11,-5,-13,11,4,-18,2,5,10,21,21
16,10,-5,-13,10,3,-18,1,4,8,19,19
16,11,-4,-13,10,3,-17,1,3,7,18,17
15,11,-3,-13,9,3,-16,2,3,6,17,16
14,10,-2,-12,8,4,-16,3,2,6,16,15
12,10,-1,-11,7,4,-15,3,1,5,15,14
11,9,0,-10,6,5,-14,3,1,4,14,13
9,8,0,-8,4,5,-13,2,0,3,12,11
8,7,0,-7,3,4,-12,1,-1,1,10,10
7,6,0,-6,3,3,-11,0,-2,0,9,9
6,5,0,-5,3,3,-11,-1,-3,-1,8,7
5,4,0,-4,3,2,-10,-2,-3,-1,8,6
4,2,0,-3,2,1,-10,-3,-4,-1,7,6
3,1,0,-2,2,1,-10,-4,-4,-2,6,5
2,0,0,-1,2,0,-10,-4,-5,-4,5,4
2,0,0,-1,2,0,-9,-4,-6,-5,4,3
2,0,-1,-1,2,0,-9,-4,-7,-5,3,2
2,0,0,-1,1,0,-8,-3,-7,-6,3,1
1,0,0,0,0,0,-8,-3,-7,-6,2,0
0,0,1,0,-1,0,-7,-3,-7,-6,2,0
0,0,2,0,-2,1,-7,-3,-7,-7,1,-1
-1,0,2,0,-2,1,-6,-2,-6,-7,0,-2
-1,0,2,1,-2,1,-6,-2,-6,-8,-1,-3
-2,-2,2,2,-2,0,-6,-1,-6,-9,-3,-4
-2,-3,2,2,-2,0,-5,-1,-5,-9,-4,-4
-3,-4,2,3,-2,0,-5,0,-5,-10,-5,-4
-4,-4,2,4,-3,-1,-4,0,-5,-12,-6,-5
-4,-4,1,4,-3,-1,-4,-1,-6,-12,-6,-5
-4,-4,1,4,-3,-1,-4,-1,-7,-12,-4,-4
-4,-3,1,4,-3,0,-4,-1,-7,-11,-3,-4
-3,-3,1,3,-2,0,-4,-2,-8,-10,-2,-4
-2,-3,1,3,-2,-1,-4,-2,-8,-10,-2,-4
-2,-3,1,3,-2,-1,-4,-3,-8,-9,-2,-4
-2,-3,2,3,-2,0,-4,-3,-8,-8,-2,-4
-2,-2,2,2,-2,0,-4,-2,-7,-8,-3,-4
-3,-2,2,3,-2,0,-4,-1,-6,-9,-4,-5
-3,-2,2,3,-2,0,-4,-1,-6,-10,-5,-5
-3,-2,2,3,-2,0,-4,0,-6,-11,-5,-6
-3,-2,2,3,-3,0,-4,0,-7,-12,-6,-6
-4,-2,3,3,-3,0,-4,0,-7,-12,-6,-6
-5,-2,3,4,-4,0,-4,0,-7,-12,-5,-6
-4,-2,3,3,-4,1,-4,-1,-7,-11,-4,-5
-4,-1,3,2,-4,1,-4,-1,-7,-10,-3,-5
-4,-2,4,3,-4,1,-4,-2,-8,-9,-3,-4
-6,-2,4,4,-5,1,-4,-4,-8,-9,-3,-4
-7,-3,5,5,-6,1,-4,-4,-8,-10,-3,-4
-6,-3,4,5,-5,0,-4,-4,-8,-10,-3,-3
-6,-3,3,5,-4,0,-4,-4,-8,-10,-3,-3
-6,-4,2,5,-3,0,-4,-3,-8,-10,-3,-3
-6,-4,2,5,-3,-1,-4,-2,-8,-10,-3,-4
-6,-4,2,5,-3,-1,-3,0,-6,-9,-4,-4
-5,-4,2,4,-3,-1,-2,2,-5,-9,-5,-4
-5,-3,2,4,-4,0,-1,5,-3,-9,-6,-6
-5,-3,2,4,-4,0,0,7,-1,-9,-7,-7
-6,-3,3,4,-5,0,0,9,0,-9,-8,-8
-6,-3,3,5,-5,0,0,9,0,-10,-9,-8
-6,-2,4,4,-5,0,0,8,-1,-10,-9,-8
-5,-2,4,4,-4,1,0,5,-3,-11,-9,-8
-5,-2,4,4,-4,0,0,1,-5,-11,-8,-7
-5,-3,4,4,-4,0,-1,-1,-6,-10,-6,-7
-6,-3,4,4,-4,0,-2,-2,-7,-8,-4,-6
-6,-3,4,4,-5,0,-2,-3,-8,-7,-2,-5
-6,-3,3,4,-5,0,-3,-4,-8,-7,-1,-5
-6,-3,3,5,-4,0,-3,-5,-8,-7,-1,-4
-6,-4,3,5,-4,0,-4,-5,-8,-6,0,-4
-6,-4,3,5,-4,-1,-4,-6,-8,-6,-1,-4
-6,-4,3,5,-4,-1,-4,-6,-8,-6,-1,-4
-6,-3,3,5,-4,0,-4,-5,-8,-6,-2,-4
-6,-3,4,4,-4,0,-4,-4,-7,-6,-1,-3
-6,-3,4,4,-5,0,-4,-4,-7,-6,-1,-3
-6,-3,4,5,-5,0,-5,-4,-7,-6,-1,-4
-6,-4,3,5,-5,0,-5,-4,-6,-6,-2,-4
-6,-5,3,5,-5,-1,-4,-3,-6,-6,-2,-4
-6,-4,3,5,-5,0,-4,-2,-5,-5,-2,-3
-5,-3,4,4,-5,0,-3,-1,-4,-5,-2,-3
-5,-2,4,3,-5,0,-3,0,-4,-6,-3,-3
-5,-2,4,3,-5,0,-4,0,-4,-8,-4,-4
-5,-2,4,3,-5,0,-4,-1,-5,-9,-4,-4
-4,-1,4,3,-4,1,-4,-1,-5,-9,-4,-4
-3,-1,3,2,-3,1,-3,0,-5,-8,-3,-4
-2,-1,3,2,-2,0,-3,0,-5,-8,-3,-4
-2,-1,3,2,-2,0,-2,1,-4,-7,-4,-4
-4,-2,3,3,-3,0,-2,2,-3,-8,-5,-4
-5,-3,3,4,-4,0,-2,3,-3,-8,-6,-5
-5,-2,3,4,-3,0,-1,4,-2,-8,-6,-5
-5,-2,3,3,-3,0,-1,5,-2,-7,-6,-5
-5,-2,4,3,-4,1,0,6,-1,-7,-7,-5
-5,-2,4,4,-4,1,-1,6,-1,-7,-7,-5
-5,-1,4,4,-5,1,-1,4,-2,-7,-7,-5
-5,-1,5,3,-5,1,-1,3,-2,-7,-7,-5
-4,0,5,3,-4,1,-2,2,-3,-8,-7,-5
-4,0,4,2,-4,1,-2,0,-5,-9,-7,-4
-4,-2,3,3,-3,0,-3,-2,-7,-10,-6,-4
-5,-4,2,4,-3,-1,-4,-4,-9,-10,-5,-3
-6,-5,2,5,-3,-2,-5,-5,-9,-9,-4,-2
-5,-5,1,5,-3,-2,-6,-5,-9,-8,-3,-2
-4,-4,1,4,-2,-2,-5,-5,-9,-7,-2,-2
-3,-3,1,3,-3,-1,-5,-4,-9,-6,-2,-2
-3,-2,2,3,-3,-1,-5,-4,-9,-5,-2,-2
-3,-1,3,2,-3,0,-5,-4,-9,-5,-1,-1
-2,-1,3,2,-3,0,-5,-5,-9,-5,-2,-1
-2,-1,3,2,-2,0,-5,-5,-9,-5,-2,-1
-3,-1,3,2,-2,0,-5,-5,-9,-6,-3,-1
-3,-2,3,2,-3,0,-5,-5,-8,-6,-3,-1
-3,-1,2,2,-3,0,-5,-5,-8,-6,-3,-1
-2,-1,2,1,-2,0,-5,-5,-8,-6,-3,-1
-2,-1,2,1,-2,0,-5,-5,-8,-6,-3,-1
-2,-1,2,2,-3,0,-5,-5,-8,-7,-3,-1
-3,-2,2,3,-3,0,-5,-5,-8,-7,-4,-1
-4,-2,2,4,-4,0,-5,-5,-8,-7,-4,-1
-5,-3,2,5,-4,-1,-5,-5,-8,-8,-5,-1
-5,-3,1,5,-3,-2,-5,-5,-8,-8,-5,-2
-5,-4,0,4,-2,-2,-5,-4,-8,-8,-5,-2
-4,-4,0,4,-2,-2,-5,-4,-8,-8,-6,-3
-4,-3,0,3,-2,-2,-5,-3,-7,-8,-6,-3
-4,-4,1,4,-3,-2,-4,-1,-6,-8,-7,-4
-5,-4,1,4,-3,-2,-4,-1,-6,-8,-8,-4
-5,-4,1,5,-3,-2,-3,0,-6,-9,-9,-5
-5,-5,2,5,-4,-2,-3,0,-6,-10,-10,-5
-6,-5,2,6,-4,-2,-2,0,-6,-10,-11,-5
-5,-4,1,5,-3,-2,-2,0,-6,-10,-11,-5
-3,-3,1,3,-1,-2,-1,0,-6,-10,-11,-5
-2,-2,0,2,-1,-2,-1,0,-6,-10,-11,-5
-2,-2,1,2,-1,-1,-1,0,-6,-10,-11,-5
-2,-2,1,2,-1,-1,-1,1,-4,-10,-10,-5
-2,-2,1,2,-1,0,-1,2,-4,-10,-10,-5
-2,-2,1,2,-1,0,-1,2,-5,-11,-10,-4
-2,-1,1,2,-1,0,-1,2,-6,-11,-9,-3
-2,-1,2,2,-2,0,-1,1,-7,-10,-8,-2
-2,-2,2,2,-2,0,-1,-1,-9,-10,-6,0
-3,-3,2,3,-2,-1,-2,-4,-10,-10,-5,0
-4,-4,2,5,-3,-2,-2,-7,-12,-10,-4,1
-5,-5,2,5,-3,-2,-3,-8,-14,-10,-3,2
-4,-4,1,5,-2,-2,-4,-9,-14,-8,-2,2
-3,-4,1,4,-1,-2,-4,-9,-14,-7,-2,2
-3,-3,1,3,-1,-2,-5,-9,-13,-7,-3,1
-4,-3,1,3,-2,-2,-5,-9,-12,-7,-3,0
-4,-3,1,3,-2,-2,-5,-8,-11,-7,-4,0
-4,-4,1,3,-2,-2,-5,-7,-10,-8,-5,-1
-4,-5,1,4,-2,-2,-5,-6,-10,-9,-6,-2
-5,-5,1,5,-2,-2,-4,-5,-9,-10,-6,-3
-5,-5,1,5,-2,-2,-4,-4,-9,-10,-7,-3
-5,-5,1,5,-2,-2,-3,-3,-9,-10,-7,-4
-5,-4,1,5,-3,-2,-3,-4,-9,-10,-7,-4
-5,-4,2,5,-3,-2,-3,-4,-9,-10,-7,-4
-5,-3,2,4,-3,-2,-3,-5,-9,-10,-8,-4
-4,-3,2,4,-3,-2,-3,-5,-9,-11,-8,-4
-5,-3,2,4,-3,-2,-3,-5,-9,-11,-9,-4
-5,-3,2,5,-4,-2,-3,-5,-10,-12,-9,-4
-6,-4,2,5,-4,-2,-3,-5,-10,-12,-9,-4
-6,-4,2,5,-3,-2,-3,-5,-10,-11,-9,-3
-5,-4,1,5,-3,-2,-3,-5,-10,-11,-8,-3
-5,-4,1,5,-3,-2,-3,-4,-9,-10,-8,-3
-4,-4,1,4,-2,-2,-2,-3,-8,-10,-8,-3
-4,-5,1,4,-2,-3,-2,-2,-7,-10,-9,-3
-5,-6,1,5,-3,-3,-2,-1,-6,-11,-10,-4
-6,-7,1,6,-3,-4,-2,-1,-6,-12,-11,-5
-7,-7,1,7,-4,-3,-2,-1,-7,-13,-12,-5
-7,-5,1,6,-3,-2,-2,-2,-8,-13,-12,-5
-6,-4,1,5,-3,-1,-2,-3,-8,-13,-12,-5
-5,-3,1,4,-3,-1,-3,-4,-9,-13,-11,-4
-4,-2,1,3,-3,-1,-3,-5,-10,-13,-9,-4
-4,-2,2,3,-3,-1,-3,-6,-11,-12,-8,-3
-4,-3,2,3,-3,-1,-4,-8,-12,-11,-6,-2
-5,-4,3,4,-3,-1,-4,-9,-12,-10,-6,-2
-6,-4,3,5,-4,-1,-5,-8,-12,-10,-7,-3
-6,-5,2,5,-3,-1,-4,-7,-11,-10,-7,-3
-6,-5,1,5,-3,-2,-4,-6,-9,-10,-8,-3
-5,-4,1,5,-3,-1,-3,-5,-8,-10,-8,-3
-4,-3,1,4,-3,-1,-3,-3,-8,-10,-8,-3
-4,-3,1,3,-3,-1,-2,-2,-8,-11,-8,-3
-4,-3,1,3,-3,-1,-1,-2,-8,-10,-8,-4
-4,-3,1,3,-3,-1,-1,-1,-6,-9,-8,-4
-3,-3,1,3,-2,-1,-1,0,-5,-8,-9,-4
-3,-3,1,3,-2,-1,0,1,-5,-9,-11,-4
-4,-3,1,4,-3,-1,0,2,-5,-9,-11,-5
-6,-4,2,5,-4,-2,-1,1,-5,-10,-12,-5
-7,-5,2,6,-4,-2,-1,0,-6,-11,-12,-5
-6,-5,2,5,-4,-2,-1,-2,-7,-12,-12,-5
-5,-4,2,4,-4,-2,-2,-4,-9,-13,-11,-4
-5,-5,2,4,-4,-2,-2,-7,-10,-13,-9,-2
-6,-5,2,5,-4,-2,-2,-9,-11,-13,-7,-1
-5,-5,1,5,-3,-2,-3,-9,-12,-11,-6,0
-4,-5,1,4,-3,-2,-3,-9,-13,-10,-5,1
-4,-4,1,4,-3,-2,-4,-9,-12,-8,-4,2
-4,-3,1,4,-3,-2,-4,-8,-11,-7,-3,2
-4,-3,1,4,-3,-2,-3,-6,-9,-6,-3,1
-4,-3,1,4,-3,-2,-3,-5,-8,-6,-4,1
-5,-4,2,4,-4,-1,-3,-5,-8,-7,-4,0
-6,-3,3,4,-4,-1,-3,-4,-8,-7,-5,0
-6,-3,3,4,-5,0,-2,-4,-7,-7,-5,1
-5,-2,3,3,-4,0,-2,-4,-7,-8,-5,1
-5,-2,3,3,-4,0,-2,-5,-7,-8,-6,0
-5,-3,3,4,-4,0,-2,-5,-7,-7,-6,0
-6,-4,3,5,-5,0,-2,-5,-7,-7,-6,0
-6,-4,3,5,-5,-1,-2,-4,-7,-7,-6,-1
-6,-4,3,5,-5,-1,-2,-2,-6,-7,-6,-1
-6,-3,3,4,-5,0,-1,-1,-5,-6,-6,-1
-4,-1,3,2,-4,0,-1,1,-4,-6,-6,-1
-2,0,3,1,-3,1,0,3,-2,-6,-6,-1
-2,1,3,1,-3,1,0,4,-1,-6,-7,-2
-3,0,3,2,-4,1,0,5,0,-7,-9,-3
-4,0,4,2,-4,1,0,6,1,-6,-9,-3
-3,0,4,2,-4,1,0,6,2,-6,-9,-2
-2,0,4,1,-3,1,0,5,1,-8,-9,-1
-2,1,4,0,-3,1,-1,3,-1,-9,-9,0
-2,1,4,0,-3,1,-3,0,-4,-9,-7,1
-3,0,4,1,-3,1,-5,-4,-7,-9,-6,2
-2,0,4,0,-3,1,-7,-7,-8,-8,-5,2
-1,1,4,0,-2,2,-9,-9,-9,-7,-4,3
0,2,4,-1,-2,2,-10,-11,-9,-6,-3,3
0,3,4,-2,-2,3,-10,-11,-9,-5,-3,3
1,4,4,-2,-2,3,-10,-11,-9,-4,-3,3
1,4,5,-3,-2,4,-10,-11,-8,-4,-3,3
1,5,5,-3,-2,4,-10,-10,-8,-4,-3,3
0,5,6,-3,-2,5,-11,-10,-7,-5,-4,2
0,5,6,-3,-3,5,-11,-9,-7,-7,-4,2
0,6,6,-3,-3,5,-11,-9,-8,-8,-5,1
0,5,5,-3,-2,4,-11,-10,-8,-8,-5,1
-1,3,5,-1,-3,3,-11,-10,-9,-9,-5,0
-2,2,4,0,-3,2,-11,-11,-10,-9,-6,0
-2,1,4,0,-3,1,-11,-12,-11,-9,-6,0
-2,0,3,0,-2,1,-11,-12,-11,-9,-6,0
-2,0,3,0,-2,1,-11,-12,-11,-10,-6,0
-1,0,2,0,-2,1,-11,-12,-11,-10,-7,0
0,0,1,0,-1,0,-11,-12,-11,-11,-7,0
0,0,1,0,-1,0,-10,-12,-11,-11,-7,0
0,0,0,0,-1,0,-10,-11,-11,-11,-8,-1
0,-1,0,1,-1,-1,-9,-9,-11,-11,-8,-1
-2,-2,0,2,-1,-1,-8,-8,-11,-11,-9,-1
-3,-3,0,3,-2,-1,-7,-6,-10,-11,-9,-1
-4,-3,0,3,-2,-1,-6,-5,-9,-10,-9,-1
-4,-4,0,4,-3,-1,-6,-4,-9,-10,-9,-1
-5,-4,1,4,-3,-1,-5,-4,-9,-10,-9,-2
-5,-4,2,4,-4,-1,-5,-5,-9,-11,-9,-2
-6,-4,2,5,-4,-2,-5,-6,-9,-11,-9,-2
-5,-5,2,5,-4,-2,-4,-7,-9,-10,-9,-2
-4,-4,1,4,-3,-2,-4,-7,-8,-10,-9,-2
-4,-4,1,4,-2,-2,-4,-8,-8,-11,-9,-2
-4,-4,1,4,-2,-2,-5,-8,-8,-11,-10,-3
-4,-4,1,3,-2,-2,-5,-8,-8,-12,-11,-4
-4,-3,1,3,-2,-2,-5,-7,-8,-13,-12,-4
-5,-4,1,4,-3,-2,-5,-7,-9,-14,-12,-5
-5,-5,1,5,-3,-3,-5,-6,-10,-14,-12,-5
-5,-6,1,5,-3,-3,-5,-6,-10,-13,-11,-4
-6,-7,0,6,-4,-4,-5,-6,-10,-13,-11,-4
-7,-8,0,7,-4,-4,-5,-6,-11,-14,-11,-4
-6,-7,0,7,-3,-4,-5,-6,-11,-14,-11,-4
-6,-7,-1,6,-2,-5,-5,-6,-11,-14,-11,-4
-6,-8,-1,7,-2,-5,-5,-6,-10,-13,-11,-4
-7,-8,-1,7,-2,-6,-5,-6,-9,-12,-11,-4
-6,-7,-1,6,-2,-5,-4,-5,-8,-11,-10,-4
-6,-6,0,6,-2,-4,-3,-4,-8,-11,-10,-3
-6,-6,0,6,-2,-4,-2,-4,-8,-11,-10,-3
-6,-7,0,6,-2,-4,-2,-5,-8,-12,-10,-3
-6,-7,0,6,-2,-4,-3,-5,-9,-12,-10,-2
-5,-7,-1,6,-2,-5,-3,-5,-9,-12,-9,-2
-5,-7,-1,6,-2,-5,-3,-5,-9,-12,-8,-1
-6,-7,-1,6,-2,-5,-3,-6,-9,-12,-7,0
-6,-7,-1,6,-2,-5,-3,-7,-10,-11,-7,-1
-6,-7,-1,6,-2,-5,-3,-7,-10,-11,-7,-1
-5,-6,0,6,-2,-5,-2,-7,-9,-10,-7,-1
-6,-7,0,6,-3,-4,-2,-7,-9,-10,-7,-1
-7,-8,0,7,-4,-4,-2,-6,-10,-10,-8,-2
-8,-9,0,8,-4,-5,-1,-6,-10,-10,-8,-3
-9,-9,0,9,-4,-5,-1,-6,-9,-9,-7,-3
-9,-10,0,10,-4,-6,0,-4,-7,-8,-7,-3
-10,-11,0,10,-5,-7,1,-2,-5,-7,-7,-3
-10,-11,-1,10,-5,-7,2,1,-2,-6,-6,-3
-9,-12,-1,10,-4,-7,4,4,0,-3,-5,-2
-8,-12,-3,10,-3,-8,5,6,3,0,-3,-1
-6,-13,-6,10,-1,-10,5,8,5,2,-1,0
-3,-14,-11,9,3,-12,4,9,6,6,3,3
2,-13,-16,6,9,-15,4,10,8,10,9,9
9,-13,-21,2,15,-17,3,11,12,16,17,18
17,-12,-28,-3,22,-20,2,15,18,25,28,29
26,-10,-35,-8,30,-22,1,21,27,37,41,42
36,-7,-42,-14,39,-25,0,28,38,51,56,56
47,-4,-50,-21,48,-27,-1,36,50,66,73,72
59,1,-57,-30,58,-28,-4,43,61,81,91,88
70,7,-62,-39,66,-27,-8,47,71,94,108,105
80,16,-63,-48,71,-23,-12,48,78,105,123,122
87,25,-61,-56,73,-17,-17,47,82,111,135,137
90,35,-54,-62,72,-10,-21,41,80,112,142,147
88,42,-45,-66,66,-1,-24,31,71,102,137,146
80,46,-33,-64,56,6,-26,18,54,83,120,130
67,45,-20,-56,43,12,-26,6,34,58,92,102
48,40,-7,-44,28,16,-23,-5,12,31,61,69
29,34,5,-32,12,19,-19,-15,-8,4,31,40
13,29,17,-21,-2,22,-14,-21,-25,-18,5,15
0,24,25,-12,-12,24,-10,-25,-39,-37,-18,-5
-10,19,29,-5,-19,23,-5,-26,-49,-53,-38,-21
-16,14,31,0,-23,22,0,-25,-55,-65,-53,-33
-18,10,30,3,-24,20,3,-21,-58,-73,-63,-40
-19,8,29,5,-24,18,5,-16,-61,-78,-68,-44
-20,5,26,7,-23,15,6,-15,-63,-81,-71,-46
-21,1,23,10,-22,11,6,-16,-66,-82,-73,-49
-23,-4,19,13,-21,6,6,-18,-69,-82,-74,-51
-25,-9,16,17,-21,2,5,-22,-71,-82,-74,-53
-26,-13,14,20,-20,-1,4,-27,-72,-81,-73,-54
-27,-16,12,21,-19,-3,2,-31,-72,-80,-72,-54
-26,-17,10,22,-18,-4,1,-34,-71,-78,-70,-52
-26,-18,9,22,-17,-5,0,-34,-67,-73,-65,-48
-25,-17,8,21,-16,-5,0,-29,-60,-65,-58,-44
-23,-17,7,20,-15,-6,0,-24,-53,-57,-51,-39
-21,-16,5,18,-13,-7,0,-19,-46,-50,-45,-34
-18,-16,3,17,-11,-7,1,-15,-39,-43,-39,-29
-16,-15,1,16,-9,-8,2,-11,-33,-36,-33,-25
-13,-15,-1,15,-6,-8,3,-8,-26,-30,-27,-21
-11,-15,-3,14,-4,-9,5,-4,-21,-24,-23,-17
-10,-15,-4,13,-3,-9,6,-1,-16,-20,-20,-15
-10,-14,-3,12,-3,-9,6,1,-11,-16,-17,-13
-10,-14,-3,12,-3,-8,7,4,-7,-12,-14,-11
-9,-12,-2,10,-3,-8,8,6,-3,-9,-12,-8
-7,-9,-2,7,-2,-7,9,8,0,-6,-9,-6
-5,-7,-1,5,-2,-5,10,9,3,-4,-7,-4
-4,-5,-1,4,-1,-4,10,10,4,-2,-5,-2
-3,-4,-1,3,-1,-3,10,10,5,-1,-4,-1
-3,-4,-1,3,0,-3,10,11,6,0,-3,0
-2,-3,-1,2,0,-2,10,12,7,0,-2,0
-2,-3,0,2,0,-2,10,12,7,0,-2,0
-2,-3,0,2,0,-2,10,12,7,0,-2,0
-2,-3,0,2,0,-3,9,12,7,0,-3,0
-2,-3,0,2,-1,-3,9,12,7,0,-3,0
-3,-3,0,3,-1,-3,9,11,7,1,-3,0
-4,-4,0,4,-2,-3,9,11,7,1,-3,0
-4,-5,0,4,-2,-3,8,10,7,1,-3,0
-4,-5,-1,4,-1,-4,8,9,6,1,-2,1
-4,-6,-1,4,-1,-4,7,8,6,2,-1,1
-4,-6,-1,5,-1,-5,7,8,6,2,-1,2
-4,-6,-1,5,-1,-4,6,8,7,2,0,2
-3,-4,-1,3,-1,-4,6,9,7,3,0,3
-1,-3,-1,2,0,-3,6,10,8,4,0,3
-1,-3,-1,2,0,-3,6,12,9,4,0,3
-2,-3,-1,2,0,-3,7,12,9,5,1,3
-2,-3,0,2,0,-3,7,11,9,5,1,4
-2,-3,0,2,0,-3,6,9,8,5,2,4
-2,-3,-1,2,0,-3,6,7,8,6,4,5
-1,-3,-1,2,0,-3,6,6,8,6,5,6
-1,-3,-1,2,0,-3,6,6,7,7,6,6
-1,-4,-2,2,0,-4,5,5,7,7,6,7
-1,-4,-2,3,0,-5,5,5,7,7,6,7
0,-4,-3,2,1,-5,5,6,7,8,6,7
0,-4,-3,2,1,-4,5,6,8,8,6,8
0,-4,-3,2,1,-4,5,7,8,9,6,8
0,-4,-3,2,1,-4,5,7,8,9,7,8
-1,-4,-3,2,1,-4,5,7,9,9,7,8
-1,-4,-3,2,1,-4,5,7,9,9,6,7
-1,-4,-3,2,1,-4,5,8,10,9,5,6
-1,-4,-2,2,0,-4,5,8,10,8,4,6
-1,-4,-2,2,0,-3,5,9,11,8,4,5
-1,-4,-1,2,0,-3,5,11,12,8,3,5
-1,-4,-1,2,0,-3,5,12,13,8,3,5
-1,-4,-1,2,0,-3,5,12,13,8,3,5
0,-2,-1,1,0,-2,6,13,14,9,3,5
2,0,-2,-1,2,-2,7,14,15,9,4,6
3,0,-2,-2,3,-2,8,15,15,9,4,6
2,0,-2,-1,2,-2,8,16,15,10,4,7
2,-1,-2,0,2,-2,8,16,15,10,5,8
1,-1,-2,0,2,-2,8,16,15,11,6,9
1,-2,-3,0,2,-2,8,15,15,12,8,10
1,-2,-3,0,2,-3,7,14,14,13,10,11
1,-2,-3,1,2,-3,6,12,14,14,11,13
1,-2,-3,1,2,-3,5,11,13,14,13,14
1,-2,-3,0,2,-3,5,9,12,14,14,14
2,-1,-3,0,3,-3,4,8,11,15,14,14
3,-1,-3,0,3,-3,4,8,11,17,15,14
3,-1,-3,0,3,-3,3,8,13,19,15,14
3,-1,-4,-1,3,-3,3,10,15,20,16,14
3,-1,-4,-1,3,-3,3,11,16,20,16,14
3,-1,-4,-1,3,-2,3,12,17,20,16,14
3,-1,-3,-1,3,-2,3,13,17,21,16,15
3,-1,-3,-1,3,-2,3,13,17,21,17,15
2,-1,-3,-1,2,-2,3,13,18,21,17,15
3,-1,-3,-1,3,-2,3,13,19,22,17,15
4,0,-4,-2,4,-2,4,15,20,23,17,16
5,1,-4,-3,5,-2,4,16,22,24,17,16
6,1,-4,-4,5,-1,5,18,23,25,17,16
7,3,-3,-5,5,0,5,20,25,26,18,17
7,4,-2,-6,5,0,6,21,26,27,19,17
8,4,-2,-7,5,1,6,21,26,27,19,17
8,5,-2,-8,5,1,6,22,27,28,20,18
9,6,-2,-8,6,1,6,22,27,29,21,18
9,6,-2,-8,6,1,6,23,27,29,21,19
9,5,-2,-8,6,1,5,23,27,30,21,19
8,4,-3,-7,6,0,5,24,28,30,21,19
9,4,-3,-7,6,0,4,24,28,31,22,20
9,4,-4,-7,6,0,4,24,29,31,23,21
9,4,-4,-7,6,0,4,24,29,31,24,22
10,5,-4,-8,7,0,3,23,30,32,26,23
11,5,-5,-8,8,0,3,23,30,34,28,25
12,6,-5,-9,8,0,2,22,31,35,29,26
12,6,-5,-9,9,0,2,22,31,36,30,27
13,7,-5,-10,9,0,2,22,32,37,30,27
14,7,-5,-10,9,0,1,23,32,37,30,28
14,8,-5,-11,10,0,1,23,33,38,31,29
14,8,-5,-11,10,0,0,24,33,38,32,30
15,9,-5,-12,10,0,0,24,33,38,33,30
16,9,-6,-13,11,1,0,25,33,38,33,31
18,11,-7,-15,13,1,0,25,33,40,35,32
20,12,-7,-16,13,2,-1,25,33,41,37,34
21,13,-7,-17,14,2,-2,24,33,42,38,36
22,13,-7,-18,14,2,-2,24,33,43,39,37
22,13,-8,-18,15,2,-3,24,33,43,40,37
22,14,-7,-18,15,2,-3,24,33,43,39,37
22,14,-7,-19,15,3,-4,24,34,43,39,36
22,14,-7,-19,15,3,-4,24,35,43,38,36
22,14,-7,-18,14,3,-5,24,35,43,37,35
21,14,-6,-18,14,3,-5,25,36,42,36,35
22,15,-6,-19,14,4,-5,26,36,41,36,35
23,17,-5,-20,14,5,-5,27,36,39,35,35
23,18,-5,-21,14,6,-5,26,35,38,35,36
24,18,-5,-21,14,6,-5,25,33,37,35,36
24,18,-5,-21,15,6,-6,23,32,37,35,36
24,18,-5,-21,15,6,-6,22,32,38,35,36
25,18,-5,-22,16,6,-6,22,32,38,33,35
25,19,-5,-22,16,6,-6,23,33,38,32,34
26,20,-5,-23,16,6,-6,23,33,36,31,33
26,20,-4,-23,15,7,-7,23,31,34,31,33
25,20,-4,-23,15,7,-8,21,28,31,30,33
25,21,-4,-23,15,7,-9,16,24,30,30,33
25,21,-4,-24,14,8,-10,11,21,29,31,34
25,21,-3,-24,14,8,-11,8,19,29,31,35
25,21,-3,-23,13,8,-12,6,18,28,32,36
23,20,-2,-22,13,8,-13,4,16,27,32,36
22,19,-2,-20,12,8,-14,3,14,26,32,35
21,18,-2,-20,12,7,-15,2,14,26,31,34
21,17,-3,-19,12,7,-15,2,13,25,30,33
21,17,-2,-19,12,7,-14,3,13,23,28,31
20,17,-2,-19,11,7,-14,3,13,21,26,29
19,17,-1,-18,11,7,-13,3,12,18,23,28
19,17,-1,-18,10,7,-12,3,10,15,21,26
18,17,0,-18,10,7,-11,2,8,13,18,25
17,16,0,-17,9,7,-11,0,6,11,17,24
16,15,0,-16,8,6,-11,-1,4,9,16,22
14,13,0,-14,7,6,-11,-2,3,8,15,20
12,11,0,-12,6,5,-11,-2,2,6,13,18
10,10,0,-10,5,4,-10,-2,1,4,11,16
9,8,0,-9,4,4,-8,-2,1,2,8,14
8,8,1,-8,3,3,-7,-1,1,1,6,13
7,7,1,-7,3,3,-5,0,1,0,5,12
6,6,1,-7,2,3,-4,0,0,-2,4,11
5,6,1,-6,2,2,-4,0,-1,-2,3,10
5,6,1,-6,1,2,-3,0,-1,-3,2,9
4,5,2,-5,0,2,-3,-1,-2,-3,1,8
3,5,3,-4,0,3,-2,-1,-2,-4,0,7
2,5,3,-4,-1,3,-2,-2,-2,-5,-1,6
1,4,4,-3,-1,3,-1,-2,-3,-7,-2,5
0,3,3,-1,-2,2,-1,-3,-5,-8,-4,4
-1,1,3,0,-2,2,-1,-4,-6,-9,-5,3
-1,1,3,0,-2,2,0,-4,-7,-10,-5,2
-2,1,3,0,-2,2,0,-4,-7,-10,-5,1
-2,0,3,1,-2,1,0,-5,-8,-11,-5,1
-3,-1,3,2,-3,0,0,-5,-9,-11,-6,0
-4,-3,2,4,-3,-1,0,-5,-10,-11,-6,0
-5,-4,2,4,-3,-2,0,-5,-9,-11,-7,-1
-5,-4,2,4,-3,-2,1,-4,-8,-11,-7,-1
-5,-4,2,4,-4,-2,1,-3,-8,-11,-8,-1
-6,-4,3,4,-4,-1,1,-2,-7,-11,-7,-1
-5,-3,3,4,-4,-1,2,-2,-7,-11,-7,-1
-3,-2,2,3,-3,-1,2,-3,-8,-11,-6,-1
-3,-2,1,3,-2,-1,1,-5,-9,-11,-6,-1
-3,-2,1,3,-2,-1,1,-6,-9,-11,-6,-1
-4,-2,2,3,-3,0,1,-7,-10,-11,-6,-1
-5,-3,2,3,-3,0,1,-8,-11,-12,-6,-1
-6,-3,2,4,-4,-1,1,-9,-12,-12,-6,-1
-6,-4,2,4,-3,-1,0,-10,-12,-12,-6,-1
-5,-4,2,4,-3,-1,0,-10,-11,-12,-6,-2
-5,-5,2,4,-3,-1,0,-9,-11,-12,-7,-3
-6,-5,2,5,-3,-1,0,-8,-10,-12,-8,-4
-6,-5,2,5,-3,-1,0,-7,-8,-12,-9,-5
-5,-5,2,5,-3,-1,0,-6,-7,-12,-10,-6
-5,-4,2,5,-3,-2,1,-5,-6,-12,-11,-6
-6,-5,2,5,-4,-2,1,-4,-6,-13,-11,-6
-7,-5,3,6,-4,-2,1,-4,-7,-14,-12,-6
-7,-5,3,6,-4,-2,1,-5,-8,-14,-12,-6
-7,-5,3,6,-4,-2,1,-6,-9,-14,-12,-6
-7,-5,3,6,-4,-2,1,-7,-10,-14,-11,-6
-7,-5,3,6,-4,-2,1,-7,-10,-14,-11,-6
-7,-5,3,6,-4,-2,1,-6,-10,-14,-10,-6
-7,-5,3,6,-4,-2,1,-6,-10,-13,-10,-5
-6,-5,2,6,-4,-2,1,-5,-10,-12,-9,-5
-6,-4,2,5,-4,-1,1,-5,-10,-12,-9,-5
-6,-4,3,5,-4,-1,2,-4,-9,-11,-9,-5
-7,-4,3,5,-5,-1,2,-4,-8,-11,-8,-5
-7,-4,3,5,-5,-1,2,-4,-8,-11,-8,-5
-7,-4,3,5,-5,-1,2,-4,-7,-11,-8,-5
-7,-4,3,5,-5,-1,2,-5,-7,-11,-8,-5
-7,-4,3,5,-5,-1,2,-5,-7,-11,-8,-5
-7,-3,3,5,-5,-1,1,-5,-7,-11,-9,-5
-7,-3,4,5,-5,-1,1,-6,-7,-12,-9,-5
-7,-3,4,5,-5,0,1,-6,-8,-12,-9,-5
-7,-3,4,5,-5,0,1,-6,-8,-11,-8,-5
-7,-3,4,5,-5,0,1,-5,-8,-11,-8,-5
-7,-4,4,5,-5,-1,1,-5,-7,-11,-8,-5
-7,-4,3,5,-5,-1,1,-4,-7,-11,-8,-5
-7,-4,4,6,-5,-1,1,-3,-7,-10,-8,-6
-8,-4,4,6,-5,-1,1,-3,-7,-10,-9,-6
-8,-4,3,6,-5,-1,1,-3,-6,-9,-9,-6
-8,-4,3,6,-5,-1,2,-2,-5,-9,-9,-6
-8,-4,4,6,-5,0,2,-2,-5,-9,-9,-6
-8,-4,4,6,-5,0,2,-2,-5,-10,-9,-6
-7,-4,4,6,-5,0,2,-3,-6,-11,-9,-6
-7,-4,4,6,-5,0,2,-5,-8,-11,-8,-5
-8,-4,4,6,-6,0,1,-6,-9,-12,-8,-5
-8,-4,4,7,-6,0,0,-6,-9,-11,-7,-4
-8,-4,4,6,-6,0,0,-7,-8,-10,-6,-4
-8,-3,4,6,-6,0,0,-7,-8,-10,-6,-4
-7,-3,4,5,-5,0,0,-6,-7,-9,-6,-4
-6,-2,4,5,-5,0,0,-6,-6,-8,-5,-4
-6,-2,4,5,-5,0,0,-5,-6,-8,-5,-4
-6,-3,4,5,-5,0,0,-4,-6,-8,-5,-4
-7,-3,5,6,-6,0,1,-4,-5,-8,-5,-4
-8,-3,5,6,-6,0,1,-4,-6,-9,-5,-4
-7,-3,4,5,-5,0,1,-4,-7,-9,-6,-4
-7,-3,3,5,-5,0,1,-5,-7,-9,-6,-4
-7,-3,3,5,-5,0,1,-5,-6,-8,-6,-4
-7,-3,3,5,-5,0,0,-4,-5,-8,-6,-5
-6,-3,3,4,-5,0,0,-3,-4,-8,-7,-5
-6,-2,3,4,-4,0,1,-1,-3,-8,-7,-5
-6,-2,4,4,-4,0,1,0,-3,-9,-8,-6
-6,-2,4,4,-5,0,1,0,-3,-11,-9,-7
-6,-2,4,4,-5,0,1,0,-4,-12,-10,-8
-7,-2,4,4,-5,0,1,-1,-6,-12,-10,-8
-7,-3,4,5,-5,0,1,-2,-7,-12,-9,-7
-7,-3,4,5,-5,0,0,-4,-7,-11,-9,-7
-7,-4,4,6,-5,-1,0,-5,-8,-11,-8,-6
-7,-4,3,6,-5,-1,0,-6,-8,-11,-8,-6
-7,-4,3,6,-5,-1,0,-6,-7,-10,-8,-6
-6,-3,3,5,-5,-1,0,-4,-6,-10,-8,-6
-5,-2,3,4,-4,0,1,-2,-5,-9,-7,-5
-5,-2,3,4,-4,0,1,-1,-4,-9,-7,-4
-5,-2,3,4,-4,0,1,0,-4,-10,-7,-4
-6,-3,3,5,-4,-1,1,-1,-6,-10,-6,-4
-7,-4,2,5,-4,-1,1,-4,-7,-10,-6,-4
-7,-5,2,6,-4,-2,0,-8,-9,-10,-5,-3
-7,-6,2,6,-4,-2,0,-10,-10,-10,-5,-3
-7,-5,2,6,-4,-2,0,-10,-10,-10,-4,-3
-6,-4,2,5,-4,-2,-1,-10,-10,-9,-4,-3
-5,-4,2,5,-3,-2,-1,-10,-9,-8,-3,-3
-4,-3,1,4,-3,-2,-1,-10,-8,-7,-3,-3
-4,-3,1,3,-2,-2,-1,-9,-7,-7,-3,-3
-4,-3,1,3,-2,-1,-1,-8,-7,-7,-3,-3
-4,-3,1,3,-2,-1,-1,-8,-7,-8,-4,-3
-4,-3,1,3,-2,-1,-1,-7,-7,-8,-5,-4
-4,-3,1,3,-2,-1,-1,-7,-7,-9,-5,-4
-4,-3,1,3,-3,-1,0,-7,-7,-9,-6,-4
-5,-4,1,4,-3,-1,0,-7,-7,-9,-6,-4
-5,-5,1,5,-3,-3,0,-7,-7,-10,-7,-5
-6,-6,0,6,-3,-4,0,-7,-7,-11,-8,-6
-6,-6,0,6,-3,-4,0,-6,-7,-11,-9,-7
-4,-5,0,5,-2,-4,0,-5,-6,-10,-9,-7
-4,-5,0,4,-1,-3,0,-4,-5,-10,-9,-7
-5,-5,0,5,-2,-3,1,-3,-4,-10,-10,-8
-6,-5,1,5,-2,-2,1,-2,-3,-10,-11,-9
-6,-5,1,5,-3,-2,2,-1,-3,-11,-11,-9
-7,-5,1,6,-3,-2,2,-1,-3,-12,-12,-9
-7,-5,2,6,-4,-2,2,-1,-5,-13,-12,-9
-7,-5,2,6,-4,-2,2,-1,-6,-14,-12,-9
-6,-5,2,5,-3,-2,2,-1,-8,-13,-11,-9
-6,-5,1,5,-3,-2,1,-2,-8,-13,-11,-9
-7,-6,1,6,-3,-3,1,-4,-9,-13,-11,-9
-8,-7,1,7,-4,-3,0,-5,-10,-13,-11,-8
-7,-6,1,6,-3,-3,0,-6,-10,-12,-10,-8
-6,-5,1,5,-3,-3,0,-7,-9,-11,-10,-8
-6,-5,1,5,-3,-3,0,-8,-9,-11,-10,-8
-6,-5,1,5,-3,-3,0,-8,-9,-11,-10,-8
-6,-5,1,5,-3,-3,0,-8,-8,-11,-10,-8
-7,-5,1,6,-3,-3,0,-9,-9,-12,-10,-8
-7,-6,1,6,-4,-3,0,-9,-10,-13,-10,-8
-7,-6,1,6,-4,-3,0,-9,-10,-13,-10,-7
-6,-5,0,6,-3,-3,-1,-9,-10,-13,-10,-7
-6,-5,0,5,-3,-3,-1,-9,-11,-13,-9,-6
-5,-5,0,5,-2,-4,-1,-9,-11,-12,-8,-5
-5,-5,0,5,-2,-4,-1,-10,-11,-12,-7,-5
-6,-6,0,6,-2,-4,-1,-11,-11,-11,-6,-5
-6,-6,0,6,-2,-4,-2,-11,-11,-11,-6,-5
-6,-6,0,6,-2,-4,-2,-12,-12,-10,-7,-5
-6,-6,0,6,-2,-3,-1,-12,-12,-10,-7,-5
-6,-6,0,5,-3,-3,-1,-12,-11,-9,-6,-5
-6,-5,1,5,-3,-3,-1,-11,-10,-9,-6,-6
-6,-5,1,5,-3,-3,-1,-11,-10,-9,-7,-6
-6,-5,1,5,-3,-3,-1,-10,-10,-10,-7,-6
-6,-5,1,6,-3,-3,-1,-10,-10,-10,-7,-6
-7,-5,1,6,-3,-3,-1,-10,-10,-10,-8,-6
-7,-5,1,6,-3,-3,-1,-10,-9,-10,-8,-6
-6,-5,1,6,-3,-3,-1,-10,-9,-10,-8,-6
-6,-5,1,5,-3,-3,-1,-10,-9,-10,-9,-7
-6,-5,1,5,-3,-3,-1,-10,-10,-11,-9,-7
-6,-5,1,5,-3,-3,-1,-10,-10,-11,-9,-8
-6,-5,1,6,-3,-3,-1,-10,-10,-11,-9,-8
-7,-5,2,6,-4,-3,-1,-10,-10,-11,-9,-8
-7,-5,2,6,-4,-2,-1,-9,-9,-11,-9,-8
-7,-5,2,6,-4,-2,-1,-9,-9,-11,-10,-8
-6,-4,2,5,-3,-2,0,-8,-9,-11,-10,-8
-6,-4,1,5,-3,-2,0,-8,-9,-11,-10,-8
-6,-4,1,5,-3,-2,0,-7,-9,-11,-10,-8
-6,-4,2,5,-3,-2,0,-7,-8,-11,-10,-8
-6,-4,2,5,-3,-1,0,-7,-8,-11,-10,-9
-7,-3,3,5,-3,-1,0,-7,-8,-12,-10,-9
-7,-4,2,6,-3,-1,0,-8,-9,-13,-11,-10
-8,-5,2,7,-4,-2,0,-9,-9,-13,-12,-10
-8,-6,2,7,-4,-3,0,-9,-10,-14,-12,-11
-8,-6,2,7,-4,-3,0,-8,-10,-13,-12,-11
-7,-5,2,7,-4,-2,0,-6,-8,-13,-13,-11
-7,-5,2,6,-4,-2,0,-4,-6,-12,-14,-12
-8,-5,2,6,-4,-2,1,-2,-4,-12,-15,-13
-8,-5,2,6,-4,-2,2,0,-2,-11,-16,-13
-8,-5,3,6,-4,-1,3,2,-1,-12,-16,-13
-9,-5,4,7,-5,-1,4,3,-1,-14,-17,-13
-9,-5,4,7,-5,-1,4,2,-3,-15,-16,-13
-8,-5,3,7,-5,-2,3,0,-5,-15,-15,-13
-8,-5,2,7,-5,-2,2,-2,-7,-15,-14,-13
-8,-5,1,7,-4,-3,2,-5,-9,-14,-13,-12
-8,-5,1,7,-4,-3,1,-8,-11,-13,-12,-12
-7,-6,0,7,-3,-3,1,-10,-12,-12,-11,-11
-7,-6,0,7,-3,-3,0,-12,-13,-11,-10,-9
-6,-6,1,7,-3,-3,0,-13,-13,-9,-9,-8
-7,-6,1,7,-4,-3,-1,-14,-13,-8,-7,-7
-8,-6,2,7,-4,-3,-1,-14,-12,-7,-6,-6
-8,-6,2,6,-4,-3,-2,-14,-12,-7,-5,-5
-8,-5,2,6,-5,-2,-2,-14,-12,-7,-4,-4
-7,-5,2,6,-4,-2,-3,-15,-11,-7,-4,-4
-7,-3,3,5,-4,0,-3,-14,-10,-7,-3,-4
-5,-1,4,3,-4,1,-2,-13,-9,-6,-3,-4
-4,0,4,2,-3,2,-2,-11,-7,-5,-3,-4
-3,1,4,1,-3,2,-1,-9,-6,-5,-4,-4
-3,1,4,0,-3,2,-1,-8,-5,-5,-5,-5
-3,0,4,1,-3,2,0,-6,-4,-5,-6,-6
-4,0,4,1,-3,2,1,-5,-4,-6,-7,-6
-4,0,5,2,-4,2,2,-5,-4,-7,-8,-6
-5,0,5,2,-4,2,2,-5,-4,-8,-8,-6
-6,-1,5,3,-5,1,2,-5,-5,-8,-7,-6
-7,-2,5,4,-5,1,1,-6,-5,-7,-7,-6
-6,-2,4,4,-4,1,1,-6,-5,-7,-6,-6
-5,-1,4,3,-4,1,1,-6,-5,-6,-5,-5
-5,0,5,3,-4,1,0,-6,-5,-6,-4,-5
-6,0,5,3,-4,1,0,-7,-6,-5,-4,-5
-6,0,5,3,-4,1,-1,-8,-6,-5,-5,-5
-6,0,5,2,-4,1,-2,-9,-5,-5,-5,-6
-5,0,5,1,-3,2,-4,-9,-4,-5,-6,-6
-3,2,5,0,-3,3,-5,-8,-3,-6,-8,-7
-2,3,5,0,-2,3,-5,-7,-2,-7,-9,-8
-1,4,5,-1,-3,4,-6,-6,-2,-8,-11,-9
-2,4,6,0,-4,4,-6,-5,-3,-10,-13,-10
-3,3,7,0,-4,4,-6,-5,-3,-12,-14,-11
-4,3,7,0,-4,4,-6,-6,-5,-12,-14,-11
-4,3,7,0,-4,4,-6,-6,-6,-12,-14,-10
-4,3,7,0,-4,4,-6,-7,-7,-12,-13,-10
-4,3,7,0,-4,3,-7,-9,-8,-11,-12,-9
-5,2,7,1,-4,3,-8,-12,-10,-10,-10,-8
-4,3,6,0,-4,3,-8,-15,-11,-9,-9,-7
-2,3,5,0,-3,3,-9,-18,-12,-8,-7,-6
-1,3,4,-1,-2,3,-9,-19,-12,-7,-6,-6
-1,3,4,-1,-2,2,-9,-19,-12,-7,-5,-6
-2,3,4,-1,-2,2,-9,-19,-12,-7,-6,-6
-2,2,4,-1,-2,2,-9,-18,-12,-7,-7,-7
-1,2,3,-1,-1,1,-9,-17,-12,-8,-8,-7
-1,1,2,0,0,1,-9,-17,-12,-8,-9,-7
-1,1,2,0,-1,0,-9,-16,-13,-9,-9,-7
-1,0,2,0,-1,0,-9,-17,-14,-10,-9,-7
-1,0,1,1,-1,0,-9,-17,-14,-11,-9,-7
-1,-1,1,1,-1,0,-9,-17,-15,-11,-8,-6
-2,-1,2,2,-2,0,-8,-17,-14,-11,-8,-6
-4,-2,3,3,-3,0,-8,-17,-14,-11,-8,-6
-5,-2,3,3,-3,0,-8,-17,-14,-11,-8,-6
-6,-2,3,4,-4,0,-7,-16,-13,-10,-8,-7
-6,-2,4,4,-4,0,-6,-15,-12,-10,-8,-8
-7,-2,4,5,-5,0,-5,-14,-11,-10,-9,-9
-7,-2,4,4,-5,0,-4,-12,-10,-10,-10,-10
-6,-1,4,3,-5,1,-3,-11,-9,-10,-11,-10
-5,-1,4,3,-4,1,-3,-10,-9,-10,-11,-10
-6,-2,4,4,-4,0,-3,-10,-10,-11,-11,-11
-7,-3,4,5,-4,0,-4,-11,-11,-11,-12,-11
-8,-4,3,6,-4,-1,-4,-13,-12,-11,-12,-12
-9,-6,3,8,-5,-2,-4,-13,-12,-11,-13,-12
-10,-7,3,8,-5,-3,-3,-12,-11,-10,-13,-13
-10,-7,3,8,-6,-2,-3,-11,-10,-10,-14,-13
-9,-6,4,7,-5,-1,-2,-9,-9,-10,-14,-13
-7,-4,4,6,-5,-1,-2,-9,-8,-11,-14,-13
-7,-4,4,5,-4,-1,-2,-9,-9,-12,-15,-13
-7,-4,4,5,-4,-1,-2,-9,-9,-13,-15,-13
-7,-4,4,5,-4,-1,-1,-9,-10,-13,-15,-13
-7,-4,3,5,-4,-1,-1,-9,-10,-13,-15,-12
-6,-4,3,5,-4,-1,0,-9,-10,-13,-14,-12
-6,-4,3,5,-4,-1,0,-9,-10,-12,-14,-12
-7,-5,2,6,-4,-1,0,-9,-10,-12,-14,-13
-8,-6,2,7,-4,-2,-1,-10,-11,-12,-14,-13
-9,-6,3,7,-5,-2,-1,-11,-11,-11,-14,-13
-9,-5,3,7,-4,-2,-1,-12,-12,-11,-13,-12
-8,-4,3,6,-4,-1,-1,-13,-12,-10,-11,-11
-7,-3,3,5,-4,0,-1,-14,-12,-10,-10,-10
-7,-3,4,4,-4,0,-1,-14,-12,-9,-10,-10
-7,-4,3,5,-4,-1,-1,-14,-12,-9,-10,-10
-8,-5,2,6,-4,-2,-1,-14,-11,-8,-10,-10
-8,-6,1,7,-4,-3,-1,-13,-10,-8,-11,-11
-8,-7,1,7,-4,-3,0,-11,-9,-8,-12,-12
-9,-7,2,7,-4,-3,0,-10,-9,-8,-12,-13
-9,-7,2,7,-5,-2,1,-9,-8,-7,-12,-13
-9,-7,3,8,-5,-2,1,-8,-7,-6,-11,-13
-10,-7,3,8,-6,-2,2,-7,-6,-6,-11,-13
-10,-7,4,9,-6,-2,3,-7,-6,-7,-11,-13
-12,-8,4,10,-7,-2,4,-5,-5,-6,-11,-13
-13,-8,4,10,-8,-2,5,-4,-4,-5,-10,-13
-12,-9,3,10,-7,-3,6,-1,-2,-2,-8,-12
-11,-9,1,10,-5,-4,7,1,0,1,-5,-10
-8,-10,-2,9,-2,-7,7,4,3,5,-2,-7
-4,-12,-8,8,2,-11,7,5,5,8,1,-4
1,-13,-13,6,8,-14,5,6,7,11,6,0
7,-12,-20,3,14,-17,4,7,10,16,13,7
15,-12,-27,-1,22,-20,3,11,16,25,23,16
24,-11,-35,-6,30,-24,1,16,23,36,35,28
34,-9,-43,-12,39,-26,0,23,33,50,50,41
46,-6,-51,-20,49,-28,-2,31,45,66,67,55
59,0,-58,-29,60,-30,-5,37,56,81,83,70
72,6,-64,-39,69,-29,-10,41,65,94,99,86
83,16,-67,-49,76,-26,-15,43,73,104,112,100
91,26,-65,-58,79,-20,-19,41,77,109,122,113
94,36,-58,-64,77,-12,-23,36,74,107,124,119
90,43,-46,-66,69,-2,-26,25,63,95,115,114
80,46,-33,-64,58,6,-27,11,45,74,96,97
65,44,-20,-55,44,11,-25,-1,25,48,68,71
46,39,-7,-43,27,15,-20,-11,6,21,38,42
26,33,6,-30,11,18,-14,-17,-10,-3,10,16
9,27,17,-18,-3,21,-8,-20,-25,-26,-14,-4
-4,22,25,-9,-13,22,-2,-23,-40,-48,-36,-22
-14,16,30,-1,-21,22,3,-24,-52,-65,-53,-36
-20,11,31,4,-25,20,7,-25,-63,-77,-64,-45
-22,7,30,7,-25,18,9,-27,-71,-83,-70,-50
-23,4,28,9,-25,16,9,-31,-76,-83,-71,-52
-24,1,26,11,-24,13,7,-34,-78,-82,-71,-53
-25,-3,23,14,-23,9,6,-36,-79,-81,-71,-55
-26,-7,20,16,-23,5,5,-38,-80,-80,-71,-56
-28,-10,17,19,-22,2,4,-40,-79,-79,-71,-57
-29,-13,16,21,-22,0,3,-42,-79,-77,-70,-57
-29,-14,15,22,-21,-1,1,-45,-78,-76,-68,-57
-29,-16,14,22,-21,-1,0,-46,-75,-73,-66,-56
-29,-16,13,22,-20,-2,1,-44,-69,-68,-62,-53
-28,-15,13,21,-19,-2,2,-38,-61,-60,-56,-49
-26,-15,11,20,-17,-2,3,-31,-53,-53,-51,-45
-24,-15,9,19,-16,-4,3,-26,-46,-47,-45,-41
-22,-15,7,18,-14,-5,3,-21,-39,-41,-40,-37
-19,-14,5,16,-11,-5,5,-16,-32,-35,-35,-33
-16,-13,3,14,-8,-6,6,-11,-26,-29,-30,-29
-14,-12,2,12,-6,-6,7,-8,-20,-23,-25,-26
-12,-11,2,11,-5,-5,8,-5,-14,-17,-21,-23
-11,-10,2,10,-5,-4,9,-1,-9,-12,-17,-20
-9,-8,2,9,-5,-3,11,3,-4,-9,-14,-18
-9,-7,2,8,-5,-3,12,5,-1,-6,-12,-16
-9,-6,2,7,-5,-2,13,6,0,-4,-10,-15
-8,-5,3,7,-5,-2,13,7,1,-3,-9,-14
-8,-5,3,6,-5,-1,14,7,2,-1,-8,-13
-8,-5,4,6,-5,-1,14,7,3,0,-8,-12
-8,-6,4,7,-5,-1,13,7,4,0,-7,-11
-8,-6,4,7,-5,-1,13,7,5,1,-7,-11
-8,-6,3,7,-5,-2,12,6,5,1,-6,-10
-8,-6,2,7,-4,-3,11,6,5,1,-6,-10
-8,-6,1,7,-4,-3,11,6,5,1,-6,-10
-8,-6,1,7,-4,-3,10,6,5,1,-6,-10
-7,-6,1,6,-3,-3,10,7,6,1,-6,-9
-6,-6,0,5,-2,-3,10,7,6,1,-6,-9
-5,-5,0,5,-1,-3,10,8,6,2,-5,-9
-5,-5,0,4,-1,-3,10,8,6,3,-4,-9
-4,-4,0,3,0,-2,10,8,6,3,-4,-8
-4,-3,0,3,-1,-2,10,8,7,4,-4,-8
-4,-3,1,3,-1,-2,10,8,7,4,-4,-8
-5,-3,1,4,-2,-2,10,8,7,4,-3,-7
-5,-4,1,4,-2,-2,10,8,7,4,-3,-7
-6,-5,1,5,-2,-2,10,8,7,4,-3,-7
-6,-5,1,6,-2,-3,10,8,8,4,-3,-6
-6,-5,1,6,-2,-3,10,8,8,5,-2,-6
-6,-5,1,6,-2,-2,10,8,9,5,-2,-6
-6,-5,2,6,-3,-2,9,8,9,5,-2,-5
-7,-5,2,6,-3,-2,9,7,8,5,-1,-5
-6,-5,1,6,-3,-2,9,7,8,5,-1,-4
-4,-4,1,4,-1,-2,9,7,8,6,0,-3
-1,-2,0,2,0,-1,9,6,7,6,1,-3
0,-1,0,1,0,0,9,5,7,7,2,-2
0,-1,0,1,0,0,9,4,7,9,2,-2
-1,-2,0,2,0,-1,9,4,8,10,2,-2
-2,-2,0,2,0,-1,9,5,9,10,2,-2
-2,-2,0,2,0,-1,9,7,10,10,2,-2
-2,-1,0,2,0,-1,9,8,11,10,3,-2
-2,-1,0,2,0,-1,9,9,11,10,3,-2
-2,-2,0,2,0,-1,9,9,10,9,3,-2
-2,-3,0,3,0,-2,9,9,10,9,3,-2
-2,-4,-1,3,0,-3,9,9,10,10,3,-1
-2,-4,-1,3,1,-3,9,9,11,10,4,-1
-2,-4,-1,3,1,-4,9,9,11,11,4,0
-2,-4,-1,3,1,-4,9,9,11,11,4,0
-3,-5,-1,4,1,-4,9,9,12,12,4,0
-3,-5,-1,4,1,-4,8,10,12,13,4,0
-3,-4,-1,4,1,-4,8,11,14,14,4,-1
-2,-3,-1,3,1,-3,9,13,16,14,3,-1
-1,-2,0,1,1,-2,10,15,18,14,3,-2
-1,-1,0,1,0,-1,10,17,19,13,3,-2
-1,-1,0,1,0,-1,11,18,19,13,3,-1
-1,-1,0,1,1,-1,11,18,18,13,4,0
0,-1,-1,0,2,-2,11,16,17,14,5,0
1,-1,-2,0,3,-3,11,15,16,16,6,0
1,-2,-2,0,3,-3,11,14,17,17,6,0
1,-2,-3,0,3,-3,11,13,18,18,7,1
1,-2,-3,0,3,-3,10,14,20,19,7,1
1,-2,-3,0,2,-3,10,14,21,20,8,1
0,-3,-3,0,2,-3,9,15,22,21,8,1
0,-3,-2,1,1,-3,9,15,22,21,9,1
-1,-4,-2,2,1,-3,9,15,22,21,9,2
-1,-4,-2,2,1,-3,8,15,22,21,9,3
0,-3,-3,1,2,-3,8,14,21,20,10,4
1,-3,-3,0,3,-3,7,13,20,21,12,6
2,-2,-4,0,4,-3,7,12,19,22,14,7
3,-2,-4,-1,4,-3,6,11,19,24,16,8
4,-1,-4,-1,5,-3,6,11,20,26,18,9
4,-1,-4,-2,5,-3,6,12,21,28,19,9
4,0,-4,-2,5,-3,6,13,22,30,19,9
5,0,-4,-2,5,-3,6,15,23,31,19,9
5,1,-4,-3,5,-2,6,16,25,32,19,10
6,2,-4,-4,6,-2,7,17,26,32,20,10
7,2,-4,-5,6,-2,7,18,27,32,20,10
7,1,-4,-5,6,-2,7,19,28,32,20,10
7,1,-4,-5,6,-2,7,20,29,33,20,10
7,1,-4,-5,7,-2,7,22,30,33,20,10
8,2,-5,-6,7,-2,7,23,31,34,20,11
9,2,-5,-6,8,-2,7,25,32,34,20,11
9,3,-5,-6,8,-1,7,26,33,35,20,12
9,4,-4,-7,8,-1,6,26,34,35,21,12
9,4,-4,-7,8,0,6,26,34,35,21,13
10,6,-4,-8,8,0,6,26,34,35,22,13
11,7,-4,-9,8,0,6,26,34,36,23,14
12,8,-4,-10,9,1,6,26,34,38,25,15
13,8,-4,-11,9,1,5,25,34,40,26,16
14,9,-5,-12,10,1,5,25,34,41,27,17
15,9,-5,-12,11,1,4,25,35,42,28,18
16,10,-6,-13,12,1,3,25,36,43,28,19
17,10,-6,-14,12,1,3,25,36,43,29,20
17,9,-7,-14,13,0,2,26,37,43,29,20
17,10,-7,-14,13,0,2,27,38,43,29,20
18,10,-7,-15,13,1,2,29,39,44,30,21
19,11,-6,-16,13,1,2,30,39,44,30,21
19,12,-6,-16,13,2,1,30,39,43,30,22
19,13,-5,-16,13,3,1,29,39,42,30,22
20,13,-5,-16,13,3,0,27,37,42,30,22
21,14,-6,-17,14,3,0,24,36,42,31,23
22,14,-7,-19,15,3,-1,22,35,43,32,24
23,15,-7,-20,16,3,-2,20,35,44,32,24
23,15,-7,-20,16,4,-2,21,36,44,32,24
24,16,-7,-20,16,4,-3,23,37,44,31,23
24,16,-7,-20,16,4,-3,25,37,43,30,22
25,17,-7,-21,16,4,-3,27,38,42,28,21
24,18,-6,-21,16,5,-2,28,38,41,27,21
24,19,-5,-21,15,6,-2,28,37,39,27,21
24,19,-4,-22,15,6,-2,26,34,38,26,21
24,19,-4,-22,15,7,-3,22,31,36,26,22
24,19,-4,-22,15,7,-4,18,29,35,27,23
24,20,-4,-22,15,7,-5,16,27,35,28,24
24,20,-4,-22,15,7,-6,14,26,36,28,24
24,19,-4,-22,15,6,-7,14,26,36,28,24
24,19,-4,-21,15,6,-8,14,26,35,27,23
24,19,-4,-22,15,6,-7,15,27,34,26,23
24,19,-4,-22,15,6,-7,14,26,32,25,22
24,18,-4,-21,15,6,-7,12,24,28,23,21
22,17,-4,-20,14,5,-8,9,20,25,22,20
21,16,-4,-19,13,5,-8,6,16,24,21,20
20,15,-4,-18,13,5,-9,2,13,23,21,20
19,15,-4,-17,12,5,-9,0,11,23,21,20
18,14,-3,-16,12,4,-10,-1,10,23,20,19
17,12,-3,-15,11,4,-10,-1,9,22,19,17
16,12,-3,-15,10,3,-10,-1,9,21,17,16
16,12,-2,-15,10,4,-8,-1,9,20,16,15
15,12,-2,-14,9,4,-7,-1,9,19,15,13
13,11,-1,-12,8,4,-6,-1,8,16,13,11
10,10,0,-10,6,4,-5,-1,6,13,10,8
9,9,0,-9,5,4,-4,-1,5,11,7,6
8,8,0,-9,5,3,-3,-1,4,9,5,4
7,7,0,-7,4,2,-3,-1,3,7,3,2
5,4,0,-5,4,1,-2,-2,3,6,1,0
4,3,0,-4,4,0,-2,-2,2,5,-1,-1
4,3,0,-4,3,0,-1,-1,2,4,-2,-1
3,3,0,-3,2,0,0,0,2,3,-3,-2
2,3,1,-3,1,1,1,0,1,0,-4,-2
1,3,1,-2,0,1,2,-1,-1,-1,-5,-3
0,2,1,-2,0,1,2,-2,-3,-2,-5,-3
0,2,2,-1,0,1,2,-4,-5,-3,-5,-3
0,1,2,-1,0,0,2,-5,-5,-3,-5,-4
-1,0,2,0,0,0,2,-5,-5,-3,-6,-5
-2,-1,1,1,-1,-1,2,-4,-5,-3,-8,-7
-3,-2,1,3,-1,-2,3,-3,-4,-3,-10,-9
-4,-3,2,4,-2,-2,3,0,-2,-4,-11,-10
-5,-3,2,4,-3,-1,5,1,-1,-4,-12,-11
-5,-2,3,3,-3,-1,6,2,-1,-6,-13,-11
-5,-2,3,3,-3,0,6,0,-2,-7,-14,-12
-6,-3,4,4,-4,0,6,-2,-3,-8,-14,-12
-7,-3,4,5,-5,0,6,-4,-5,-9,-14,-12
-8,-4,4,6,-5,-1,5,-7,-8,-9,-13,-12
-8,-4,4,6,-5,-1,4,-11,-10,-8,-11,-11
-7,-4,3,5,-5,-1,3,-13,-11,-6,-9,-9
-6,-4,3,5,-4,-1,2,-14,-11,-5,-8,-8
-6,-4,2,5,-4,-2,2,-14,-11,-5,-7,-8
-7,-4,2,5,-4,-2,1,-14,-12,-5,-7,-8
-7,-5,2,6,-4,-2,1,-14,-11,-4,-7,-8
-7,-5,2,6,-4,-2,1,-13,-11,-4,-7,-8
-7,-5,2,5,-3,-2,1,-13,-10,-4,-8,-8
-7,-5,2,6,-3,-2,1,-12,-10,-4,-9,-9
-8,-6,2,6,-4,-2,2,-11,-10,-5,-10,-10
-8,-6,2,7,-4,-2,2,-10,-10,-6,-10,-10
-9,-6,2,7,-4,-3,3,-10,-9,-6,-10,-10
-9,-7,2,8,-5,-3,3,-10,-9,-6,-11,-10
-9,-7,2,8,-5,-4,3,-9,-9,-7,-11,-10
-9,-7,2,8,-5,-4,3,-9,-9,-7,-11,-11
-9,-7,2,8,-5,-4,3,-9,-8,-6,-11,-11
-10,-8,2,9,-5,-4,3,-9,-8,-6,-11,-11
-10,-8,2,9,-5,-4,3,-8,-8,-6,-11,-11
-9,-7,2,8,-5,-3,4,-7,-7,-6,-11,-11
-8,-6,2,7,-4,-3,4,-6,-7,-6,-12,-11
-8,-6,2,7,-5,-3,5,-6,-7,-6,-12,-11
-8,-5,3,7,-5,-2,5,-6,-7,-6,-12,-12
-8,-5,3,7,-5,-2,5,-6,-7,-6,-13,-12
-9,-6,3,7,-5,-2,5,-6,-7,-7,-14,-13
-9,-6,3,7,-5,-2,6,-5,-6,-7,-15,-14
-9,-6,3,7,-5,-2,6,-4,-5,-7,-15,-15
-9,-5,3,7,-5,-2,6,-2,-4,-6,-15,-15
-9,-5,4,7,-6,-2,7,-1,-3,-6,-16,-15
-10,-6,4,8,-7,-2,7,0,-3,-7,-16,-15
-11,-6,5,8,-7,-2,7,0,-3,-8,-17,-15
-11,-6,5,8,-7,-2,7,-2,-5,-10,-17,-15
-10,-6,4,8,-6,-2,7,-4,-8,-9,-16,-14
-9,-5,4,7,-5,-2,6,-6,-8,-7,-14,-13
-8,-5,3,6,-5,-2,6,-7,-7,-4,-13,-13
-8,-6,3,6,-5,-2,5,-5,-6,-3,-13,-13
-9,-6,2,7,-5,-3,5,-3,-5,-3,-14,-14
-9,-6,2,7,-5,-3,5,-1,-4,-3,-14,-14
-9,-6,2,7,-5,-2,5,0,-3,-3,-14,-13
-8,-5,3,6,-5,-2,6,1,-2,-3,-13,-12
-9,-4,3,6,-5,-1,7,0,-3,-4,-12,-11
-9,-4,4,6,-6,-1,7,-3,-5,-4,-11,-10
-9,-4,4,6,-6,-1,7,-7,-7,-3,-9,-9
-9,-4,5,6,-6,0,6,-10,-8,-2,-8,-8
-9,-5,5,7,-6,0,5,-12,-8,-1,-7,-8
-10,-5,4,7,-6,-1,3,-13,-8,0,-6,-8
-9,-5,4,7,-6,-1,2,-13,-8,0,-6,-8
-8,-4,3,6,-5,-1,2,-12,-8,0,-6,-8
-7,-3,4,5,-5,0,2,-11,-7,1,-6,-8
-7,-3,4,5,-5,0,3,-9,-5,1,-6,-8
-8,-3,5,5,-6,0,3,-8,-5,0,-7,-8
-8,-3,6,5,-6,0,4,-7,-5,0,-8,-8
-8,-3,6,5,-6,0,4,-7,-5,-1,-8,-8
-8,-2,6,5,-6,0,4,-7,-6,-1,-8,-8
-7,-2,5,4,-5,0,4,-7,-6,-1,-8,-7
-6,-2,5,4,-5,0,3,-7,-6,-1,-8,-7
-7,-2,4,5,-5,0,3,-7,-6,-1,-8,-8
-7,-3,4,5,-5,0,3,-7,-6,-1,-9,-8
-8,-3,4,5,-5,0,3,-6,-5,-1,-9,-8
-7,-2,5,4,-5,0,4,-5,-4,0,-9,-8
-7,-1,5,3,-5,1,4,-5,-4,0,-9,-8
-7,-1,5,4,-5,1,4,-5,-5,-1,-9,-8
-8,-2,5,4,-5,0,4,-5,-5,-1,-9,-9
-8,-3,5,5,-5,0,4,-5,-5,-1,-9,-9
-7,-3,5,5,-5,0,5,-5,-5,0,-9,-9
-7,-3,5,5,-5,0,5,-5,-4,0,-9,-9
-8,-3,5,5,-5,0,5,-4,-3,0,-11,-10
-8,-3,4,5,-5,0,5,-3,-3,-1,-12,-10
-7,-3,4,4,-5,0,6,-2,-2,-1,-13,-11
-7,-2,4,4,-5,0,6,0,-1,-2,-14,-12
-7,-2,4,4,-5,0,6,0,-1,-3,-15,-13
-7,-3,5,4,-5,0,6,1,-1,-3,-16,-14
-8,-3,5,5,-6,0,7,2,-1,-3,-16,-14
-8,-2,6,4,-6,1,7,2,-2,-3,-16,-13
-7,-2,6,4,-6,1,7,1,-3,-3,-16,-13
-8,-2,6,4,-6,1,6,-1,-3,-2,-15,-12
-8,-2,6,4,-6,1,6,-2,-3,-2,-15,-11
-8,-2,6,5,-6,1,6,-3,-4,-2,-14,-10
-9,-3,6,6,-6,0,5,-5,-7,-3,-13,-10
-10,-4,5,7,-6,0,5,-8,-9,-2,-11,-9
-9,-4,5,6,-5,-1,4,-10,-10,-1,-9,-7
-7,-3,4,5,-4,-1,3,-11,-11,0,-7,-6
-7,-3,3,5,-4,-1,2,-13,-11,0,-6,-5
-7,-4,3,5,-4,-1,1,-14,-11,1,-5,-4
-6,-4,2,4,-4,-1,1,-14,-10,1,-5,-4
-6,-3,2,4,-4,-1,1,-14,-10,1,-5,-4
-6,-3,3,4,-4,-1,1,-14,-10,1,-5,-4
-7,-2,4,4,-5,0,1,-14,-9,2,-6,-5
-7,-1,5,4,-5,0,1,-13,-8,2,-6,-5
-6,-1,5,4,-5,0,2,-12,-8,1,-7,-6
-6,-2,4,4,-5,0,2,-11,-8,0,-8,-6
-6,-3,3,5,-4,-1,2,-10,-8,-1,-9,-7
-6,-4,3,5,-4,-1,2,-10,-8,-2,-10,-8
-7,-5,3,6,-4,-2,2,-9,-8,-2,-11,-8
-7,-5,3,6,-4,-2,2,-9,-8,-2,-11,-8
-7,-5,3,6,-4,-2,2,-9,-8,-2,-11,-8
-7,-5,3,6,-4,-2,3,-9,-7,-2,-11,-8
-7,-4,3,6,-4,-2,3,-8,-7,-2,-11,-8
-7,-3,3,5,-4,-1,3,-8,-6,-2,-11,-8
-6,-2,4,4,-4,0,3,-7,-6,-2,-11,-9
-6,-2,4,3,-4,0,3,-7,-6,-3,-12,-9
-6,-2,4,4,-4,0,4,-7,-6,-3,-12,-9
-6,-3,4,4,-4,0,4,-6,-6,-4,-13,-10
-6,-3,4,5,-4,0,4,-5,-6,-4,-14,-11
-6,-3,4,5,-4,0,4,-4,-5,-4,-14,-11
-6,-3,4,5,-4,0,5,-3,-5,-4,-14,-11
-6,-3,3,4,-4,0,5,-3,-5,-4,-14,-11
-6,-3,3,4,-4,0,6,-3,-5,-4,-14,-11
-7,-4,3,5,-4,0,6,-5,-5,-3,-14,-11
-8,-4,3,6,-5,0,5,-6,-5,-3,-14,-10
-7,-4,3,5,-5,0,5,-7,-5,-3,-14,-10
-6,-3,3,4,-4,0,4,-7,-6,-3,-14,-9
-6,-3,3,4,-4,0,4,-8,-8,-4,-13,-9
-7,-3,4,5,-5,0,3,-8,-9,-4,-13,-9
-7,-3,4,5,-5,0,3,-8,-9,-4,-13,-9
-7,-3,4,5,-4,0,3,-9,-8,-3,-13,-9
-7,-3,3,5,-4,0,3,-9,-6,-3,-14,-11
-7,-3,3,5,-4,0,3,-7,-4,-3,-15,-12
-6,-2,4,4,-4,0,4,-4,-3,-3,-15,-12
-6,-2,5,4,-5,1,6,-2,-2,-3,-15,-11
-7,-2,6,4,-5,1,6,-2,-4,-4,-15,-11
-7,-2,5,4,-5,0,6,-4,-6,-5,-15,-11
-7,-3,5,4,-5,0,5,-6,-8,-5,-15,-10
-7,-3,4,5,-4,0,4,-9,-9,-5,-14,-9
-7,-3,4,5,-4,0,4,-10,-10,-4,-12,-8
-7,-3,4,5,-4,0,3,-11,-10,-4,-11,-7
-6,-3,3,5,-4,-1,3,-12,-10,-3,-10,-7
-6,-4,3,5,-3,-1,2,-12,-10,-2,-10,-6
-7,-4,2,5,-3,-2,2,-13,-10,-1,-10,-6
-7,-5,2,6,-3,-2,1,-13,-10,-1,-10,-6
-8,-7,2,7,-3,-3,1,-12,-10,-1,-11,-7
-8,-8,1,8,-4,-4,1,-12,-9,-2,-11,-7
-9,-8,2,8,-4,-3,2,-11,-9,-2,-12,-7
-9,-6,2,7,-5,-2,2,-10,-8,-3,-12,-7
-8,-5,3,6,-5,-1,2,-10,-8,-3,-11,-7
-8,-4,3,6,-5,-1,2,-10,-8,-3,-11,-7
-8,-4,3,6,-5,-1,2,-11,-8,-3,-11,-7
-7,-3,3,5,-4,-1,2,-10,-8,-2,-11,-7
-6,-3,3,4,-3,-1,3,-10,-8,-2,-11,-7
-6,-4,2,5,-3,-1,3,-10,-8,-2,-11,-7
-6,-4,2,5,-3,-2,3,-9,-7,-2,-12,-8
-7,-5,2,6,-3,-2,3,-9,-7,-2,-12,-8
-7,-5,2,6,-3,-2,3,-9,-7,-2,-13,-8
-7,-5,2,6,-4,-2,4,-8,-6,-2,-13,-9
-7,-5,2,6,-4,-2,4,-6,-5,-2,-14,-9
-6,-4,2,5,-4,-1,5,-5,-5,-3,-14,-10
-6,-3,3,5,-4,0,5,-4,-4,-3,-15,-10
-6,-3,4,5,-5,0,5,-4,-4,-4,-15,-10
-6,-2,4,4,-5,0,5,-4,-4,-4,-15,-10
-6,-2,4,4,-5,0,5,-5,-4,-4,-15,-10
-6,-2,4,4,-5,0,5,-7,-4,-4,-15,-10
-7,-3,3,5,-5,0,5,-8,-6,-4,-14,-9
-7,-4,3,5,-5,0,4,-9,-7,-4,-14,-8
-7,-5,2,6,-4,-1,4,-10,-9,-3,-13,-7
-7,-5,2,6,-4,-1,3,-11,-9,-1,-12,-7
-7,-5,2,6,-4,-1,3,-12,-9,-1,-11,-7
-7,-5,2,6,-4,-1,2,-12,-8,-1,-11,-7
-6,-4,2,6,-4,-1,2,-10,-7,-1,-11,-7
-6,-3,3,5,-4,0,3,-8,-6,-1,-11,-7
-5,-2,3,4,-4,0,4,-7,-5,-1,-11,-7
-6,-1,3,4,-4,0,5,-6,-5,-1,-11,-7
-6,-1,4,4,-5,1,5,-5,-5,-2,-12,-7
-6,-1,5,4,-6,1,6,-4,-5,-2,-12,-7
-6,0,6,3,-6,2,6,-4,-4,-1,-11,-7
-5,1,6,2,-6,3,7,-3,-3,0,-11,-6
-5,0,6,3,-6,2,7,-3,-2,0,-11,-6
-6,0,6,3,-6,2,7,-3,-2,0,-12,-6
-6,0,6,4,-6,2,7,-4,-2,0,-12,-6
-6,0,6,4,-6,2,7,-5,-3,-1,-12,-6
-6,0,6,3,-6,2,7,-6,-4,-2,-12,-6
-5,0,5,2,-5,2,7,-7,-4,-1,-11,-6
-3,1,5,0,-4,2,7,-7,-4,0,-10,-5
-3,2,5,0,-4,2,6,-7,-3,1,-9,-5
-3,2,6,0,-4,3,6,-6,-2,2,-9,-5
-4,2,6,0,-4,3,5,-5,-1,3,-10,-5
-4,3,7,0,-5,4,5,-4,0,3,-10,-5
-4,3,7,0,-5,5,5,-4,-1,2,-10,-5
-5,3,8,0,-6,5,5,-5,-1,2,-9,-4
-5,3,8,0,-6,5,4,-6,-2,1,-8,-4
-5,2,7,0,-6,5,2,-7,-3,1,-7,-3
-5,2,7,0,-6,4,0,-9,-4,0,-7,-2
-4,2,6,1,-5,4,-1,-11,-6,0,-7,-2
-4,2,6,1,-5,3,-2,-13,-8,0,-7,-2
-4,2,5,1,-4,3,-3,-14,-8,0,-7,-2
-3,2,5,0,-4,3,-4,-15,-9,0,-7,-2
-3,3,6,0,-4,4,-4,-15,-8,0,-7,-2
-4,3,6,0,-4,4,-5,-14,-8,0,-8,-3
-4,2,7,0,-5,4,-5,-14,-7,-1,-9,-4
-4,3,7,0,-6,5,-5,-13,-6,-2,-10,-5
-3,5,8,-1,-5,6,-4,-11,-5,-2,-11,-5
-2,6,8,-2,-5,6,-4,-10,-4,-2,-11,-5
-1,7,8,-2,-4,7,-3,-9,-3,-3,-11,-4
0,6,7,-2,-4,6,-3,-9,-3,-3,-11,-4
0,5,7,-2,-4,5,-2,-10,-4,-4,-11,-4
0,5,7,-2,-4,5,-2,-10,-4,-4,-11,-4
0,5,7,-2,-4,6,-2,-10,-5,-4,-12,-5
0,5,7,-3,-3,6,-2,-11,-6,-4,-12,-6
0,6,6,-3,-2,6,-2,-11,-6,-3,-13,-6
0,6,6,-3,-2,6,-2,-10,-6,-4,-13,-6
0,5,5,-2,-2,5,-2,-9,-7,-4,-14,-6
0,4,5,-2,-2,4,-1,-9,-7,-4,-14,-7
-1,3,4,-1,-2,3,-1,-9,-7,-3,-13,-7
-2,1,4,0,-2,2,-1,-9,-6,-2,-13,-7
-2,1,4,0,-2,2,0,-9,-5,-2,-13,-7
-2,1,4,0,-2,2,1,-8,-4,-2,-12,-6
-3,0,4,1,-3,2,1,-9,-5,-3,-12,-6
-5,0,5,2,-5,1,1,-10,-6,-3,-12,-6
-6,0,5,3,-6,1,1,-12,-8,-3,-11,-6
-6,-1,5,4,-6,1,1,-14,-10,-4,-11,-6
-6,-2,4,4,-6,0,1,-15,-11,-3,-11,-6
-5,-1,4,3,-5,0,1,-15,-11,-2,-10,-5
-4,-1,4,2,-4,0,1,-15,-10,-1,-9,-5
-4,-1,4,2,-4,0,0,-15,-10,-1,-9,-5
-5,-2,3,3,-3,-1,0,-16,-10,-1,-9,-5
-5,-3,2,4,-3,-1,0,-16,-9,-1,-9,-6
-5,-3,2,4,-3,-1,0,-15,-9,-1,-10,-6
-5,-3,2,4,-3,-1,0,-15,-9,-1,-10,-5
-6,-4,2,5,-4,-1,0,-14,-8,-1,-10,-5
-6,-4,2,5,-4,-1,0,-14,-8,-1,-10,-5
-6,-3,2,4,-4,-1,1,-13,-8,-2,-11,-5
-6,-4,2,5,-4,-1,1,-13,-7,-3,-11,-5
-7,-5,2,6,-4,-2,0,-13,-7,-3,-12,-6
-7,-5,2,7,-5,-2,0,-13,-7,-4,-12,-7
-7,-5,2,6,-5,-2,0,-12,-7,-4,-12,-8
-6,-3,3,5,-5,-1,1,-10,-6,-4,-13,-9
-6,-2,3,4,-5,0,1,-9,-5,-4,-13,-10
-6,-3,2,4,-5,-1,2,-7,-4,-4,-14,-11
-6,-3,2,5,-5,-1,2,-7,-3,-4,-14,-11
-6,-3,2,4,-5,-1,2,-6,-3,-4,-15,-11
-6,-3,2,4,-5,-1,3,-6,-3,-5,-16,-11
-7,-3,3,5,-5,-1,4,-6,-3,-5,-16,-10
-7,-4,2,5,-5,-1,4,-7,-4,-6,-16,-9
-6,-3,2,5,-4,-1,4,-8,-6,-6,-15,-8
-5,-3,1,4,-3,-1,4,-9,-7,-6,-13,-7
-4,-3,0,4,-2,-2,4,-9,-8,-4,-11,-6
-5,-5,0,5,-3,-3,4,-9,-8,-3,-10,-5
-7,-7,0,7,-4,-3,4,-10,-8,-2,-9,-5
-8,-8,0,8,-4,-4,4,-10,-7,-1,-10,-6
-9,-9,0,9,-4,-5,4,-10,-5,0,-11,-7
-10,-9,0,10,-5,-5,5,-8,-4,0,-12,-8
-10,-9,1,10,-6,-4,7,-6,-2,0,-12,-9
-11,-8,3,10,-7,-3,8,-3,0,1,-12,-9
-12,-8,4,10,-8,-2,10,0,1,2,-11,-8
-11,-7,4,9,-7,-2,11,2,3,3,-9,-8
-9,-6,3,7,-6,-2,12,4,5,5,-7,-6
-7,-6,1,6,-3,-3,13,6,7,8,-3,-4
-4,-7,-2,6,0,-5,13,7,9,12,0,-1
0,-7,-8,4,4,-8,12,7,9,15,5,3
5,-7,-13,1,9,-11,10,6,10,18,9,7
10,-8,-19,-1,15,-14,8,5,11,22,15,13
17,-8,-25,-4,21,-17,6,7,15,29,23,21
26,-7,-32,-9,29,-20,4,11,22,39,35,32
36,-5,-40,-15,38,-23,2,17,31,51,48,45
47,-2,-49,-22,48,-25,0,23,41,65,63,58
58,1,-57,-29,58,-28,-3,29,50,78,78,72
70,6,-63,-37,67,-29,-6,34,59,91,93,86
79,12,-67,-45,73,-27,-10,36,67,103,106,100
87,21,-66,-54,76,-22,-14,38,74,111,117,113
91,31,-60,-61,75,-14,-18,37,78,114,123,122
89,40,-49,-64,69,-5,-20,32,74,108,118,120
80,45,-35,-62,57,4,-20,23,63,91,102,106
65,45,-20,-55,43,12,-17,14,46,67,77,81
46,40,-6,-43,26,17,-11,4,28,42,49,53
27,34,7,-31,10,20,-6,-5,10,18,23,28
11,29,18,-20,-3,23,-2,-13,-7,-3,0,7
-1,25,26,-12,-13,25,3,-18,-21,-22,-20,-9
-10,21,31,-5,-20,25,7,-20,-31,-37,-36,-22
-17,17,34,0,-25,25,11,-20,-40,-49,-48,-32
-21,13,34,5,-28,23,13,-20,-47,-58,-56,-37
-24,9,33,8,-28,21,15,-20,-53,-63,-60,-40
-25,4,30,10,-27,17,16,-20,-57,-66,-62,-42
-25,0,25,13,-25,12,17,-21,-61,-66,-64,-44
-26,-5,20,16,-23,6,17,-23,-63,-65,-65,-46
-27,-10,16,18,-22,2,16,-26,-65,-64,-65,-49
-28,-14,14,21,-21,-1,14,-29,-65,-62,-65,-50
-29,-17,12,23,-21,-3,12,-31,-64,-60,-64,-51
-29,-19,11,24,-20,-4,10,-33,-64,-59,-63,-51
-29,-19,10,24,-20,-5,9,-34,-62,-58,-61,-50
-29,-19,10,23,-19,-4,8,-32,-58,-53,-57,-47
-28,-18,10,22,-19,-4,9,-27,-51,-47,-52,-42
-26,-17,8,21,-18,-4,9,-22,-43,-40,-46,-38
-23,-16,6,19,-15,-5,9,-17,-36,-33,-40,-33
-19,-14,4,17,-12,-5,9,-12,-29,-27,-34,-29
-15,-13,2,15,-9,-6,10,-9,-23,-22,-30,-26
-13,-13,1,14,-7,-7,10,-6,-19,-19,-28,-24
-12,-13,0,13,-6,-7,9,-4,-15,-17,-26,-22
-10,-13,-1,11,-4,-7,9,-2,-11,-13,-23,-20
-9,-11,-2,10,-3,-7,11,1,-6,-8,-18,-16
-8,-10,-2,8,-3,-6,13,4,-2,-4,-14,-12
-7,-9,-2,8,-3,-6,14,5,1,0,-11,-10
-7,-8,-2,8,-3,-5,15,6,3,2,-9,-8
-6,-7,-2,7,-2,-5,15,7,5,3,-8,-7
-4,-6,-1,6,-2,-4,15,7,6,5,-6,-6
-4,-5,0,5,-2,-3,15,7,6,6,-5,-5
-4,-5,0,5,-2,-3,14,6,7,7,-4,-5
-4,-4,0,4,-2,-3,13,7,7,8,-3,-4
-4,-4,0,4,-2,-2,13,8,8,8,-3,-4
-4,-4,0,4,-3,-2,13,9,9,9,-3,-3
-5,-4,1,4,-3,-2,13,10,9,9,-3,-3
-5,-5,0,5,-3,-2,13,10,9,8,-4,-4
-6,-6,0,6,-3,-3,13,10,9,8,-4,-4
-6,-6,0,6,-3,-3,13,8,9,8,-3,-3
-4,-6,-1,5,-2,-3,12,7,9,8,-2,-3
-3,-5,-1,4,-1,-3,12,8,11,10,-2,-3
-2,-4,-1,3,0,-3,13,9,13,11,-2,-4
-2,-3,-1,3,0,-3,13,9,14,11,-2,-4
-2,-3,-1,3,-1,-3,12,10,15,10,-3,-4
-2,-3,-1,3,-1,-3,12,10,14,8,-3,-3
-3,-3,-1,4,-1,-3,12,9,12,8,-2,-2
-3,-4,-1,4,-2,-2,12,9,11,9,-1,-1
-3,-3,0,3,-2,-2,11,9,11,10,1,1
-2,-2,0,2,-1,-1,11,8,10,10,3,3
-2,-2,0,2,-1,-2,11,7,8,11,5,4
-2,-3,-1,3,-1,-3,10,6,7,11,5,5
-2,-3,-1,3,-1,-3,9,5,8,12,6,5
-2,-4,-2,3,0,-4,9,5,9,13,7,6
-1,-4,-3,2,1,-4,9,6,10,14,7,5
0,-4,-4,2,1,-5,10,7,12,15,7,4
-1,-5,-4,3,1,-5,10,8,13,15,6,4
-1,-5,-4,3,1,-5,10,9,13,15,5,3
-1,-5,-4,2,1,-5,10,10,14,14,4,3
-1,-4,-3,2,1,-4,10,10,14,13,4,4
-1,-4,-3,2,1,-4,10,10,14,12,5,4
-1,-4,-3,2,1,-4,10,10,13,12,5,5
0,-3,-3,1,2,-4,10,9,13,13,6,5
0,-3,-3,0,2,-4,10,9,13,14,7,5
0,-3,-3,1,1,-4,9,9,13,14,7,5
-1,-4,-3,2,1,-4,9,8,13,14,7,4
-1,-4,-3,2,0,-4,8,8,12,14,7,4
-1,-4,-3,2,1,-4,8,7,13,15,8,5
0,-4,-4,2,2,-4,8,7,13,16,8,6
0,-4,-4,2,2,-4,8,8,14,16,9,6
0,-4,-4,1,3,-4,8,8,14,16,9,6
1,-3,-4,0,3,-4,8,9,15,16,9,6
2,-2,-4,0,3,-4,8,9,15,16,9,7
3,-1,-4,-1,4,-3,8,10,15,17,10,7
2,-2,-4,0,4,-3,8,11,16,17,10,7
2,-2,-4,0,3,-3,9,12,17,18,10,7
2,-1,-3,0,3,-2,9,14,19,18,10,6
2,-1,-3,-1,3,-2,9,16,21,18,9,6
2,0,-3,-1,3,-2,10,19,23,19,9,6
2,0,-2,-2,2,-2,10,22,24,19,8,5
3,0,-2,-2,2,-1,11,24,25,19,7,4
4,1,-2,-3,3,-1,11,24,26,19,7,4
3,1,-2,-2,2,-1,12,24,25,19,8,5
2,0,-1,-1,2,-1,11,22,23,18,8,6
3,0,-2,-1,2,-1,11,19,20,18,9,8
4,0,-3,-2,3,-1,10,16,18,19,11,9
4,0,-4,-2,4,-2,8,13,18,20,12,10
4,0,-4,-2,4,-2,7,11,18,21,14,11
4,-1,-4,-1,4,-3,6,10,18,23,15,11
4,0,-4,-2,4,-3,5,11,18,24,17,11
5,0,-4,-2,4,-2,5,12,19,25,18,13
5,1,-4,-3,5,-2,5,12,20,26,20,14
7,2,-5,-4,6,-2,5,13,21,27,21,16
8,2,-6,-5,7,-2,5,13,22,28,22,17
9,2,-6,-6,8,-2,5,14,22,29,23,17
10,2,-6,-6,8,-2,5,14,23,30,24,18
10,3,-6,-6,8,-2,4,15,23,30,24,18
10,3,-6,-7,8,-2,3,15,24,30,25,18
11,3,-7,-7,9,-2,3,16,25,31,25,18
11,4,-7,-8,9,-2,3,18,27,32,24,18
11,4,-6,-8,9,-1,3,19,28,32,24,18
11,4,-6,-8,8,-1,3,21,29,32,24,18
12,5,-6,-9,9,0,4,22,30,33,25,18
13,6,-6,-9,9,0,4,22,30,33,26,19
13,6,-7,-9,10,-1,3,21,29,33,26,19
13,5,-7,-9,10,-1,2,21,29,34,27,20
14,6,-8,-10,11,-1,2,22,31,35,27,20
16,7,-8,-11,12,-1,2,23,32,36,27,21
16,7,-8,-12,12,-1,1,25,33,36,27,21
16,7,-8,-12,12,-1,1,27,34,36,27,22
16,8,-8,-12,12,-1,1,28,34,36,27,22
17,8,-9,-13,13,-1,1,29,34,35,27,22
19,9,-9,-13,14,-1,1,28,34,35,28,23
20,9,-10,-14,15,0,1,26,33,35,30,25
20,10,-10,-15,15,0,0,25,32,35,31,27
22,11,-10,-16,15,1,0,23,31,36,33,29
24,13,-10,-18,17,1,-1,19,30,38,36,31
24,13,-11,-19,18,1,-3,17,29,40,37,32
24,13,-11,-18,18,1,-4,15,29,41,38,32
24,12,-11,-18,18,1,-6,15,30,42,38,31
24,13,-11,-18,18,1,-7,15,31,43,38,31
24,14,-10,-19,18,1,-7,15,32,43,37,30
24,15,-10,-19,17,2,-7,17,33,42,35,30
24,15,-9,-19,17,2,-7,18,34,40,33,29
24,16,-9,-20,16,3,-7,19,33,39,33,30
25,17,-8,-20,16,4,-8,18,32,38,34,31
26,18,-8,-21,17,4,-9,17,31,37,35,32
27,19,-8,-23,17,5,-9,15,29,36,35,33
28,20,-8,-24,18,5,-9,14,27,36,35,33
29,21,-7,-24,18,6,-9,14,27,36,34,33
28,21,-7,-24,18,6,-9,14,27,36,34,33
28,21,-6,-24,17,6,-9,15,28,34,33,32
27,21,-6,-24,17,6,-10,15,28,32,31,31
27,20,-6,-24,17,6,-10,14,26,30,30,30
27,20,-6,-23,17,6,-11,12,24,28,28,29
26,19,-6,-23,16,6,-11,11,22,27,28,28
25,18,-6,-22,16,5,-11,10,21,26,28,28
24,17,-6,-21,16,5,-11,9,20,25,29,29
24,16,-7,-20,16,4,-11,8,19,26,29,29
24,16,-7,-20,16,3,-11,7,18,25,29,28
24,17,-7,-20,16,4,-11,6,17,24,28,28
23,17,-6,-20,15,4,-10,5,16,23,27,27
22,17,-6,-19,14,5,-11,3,15,22,26,26
21,16,-5,-19,13,5,-11,2,14,21,25,25
20,16,-5,-18,12,5,-10,2,14,20,24,24
19,15,-4,-18,11,5,-9,2,14,18,22,23
18,15,-3,-17,10,5,-8,4,14,17,20,21
17,14,-2,-16,10,5,-7,6,14,15,17,19
15,12,-2,-14,9,4,-6,7,14,12,15,17
13,10,-2,-12,8,3,-5,8,13,10,12,14
12,9,-2,-10,7,3,-4,8,11,8,10,12
10,9,-1,-9,6,3,-4,7,10,7,9,11
10,9,-1,-9,5,3,-4,5,8,6,8,10
10,9,-1,-9,5,4,-3,3,6,5,7,10
9,9,0,-9,4,4,-3,0,4,3,7,9
9,8,0,-9,4,3,-3,-2,1,1,7,9
8,7,0,-8,4,3,-3,-4,0,0,6,8
6,6,0,-6,3,2,-3,-5,0,0,6,7
5,5,0,-5,3,2,-3,-5,0,0,5,5
4,4,0,-4,2,1,-3,-4,0,0,4,4
3,3,0,-3,1,1,-2,-3,1,0,3,3
1,2,0,-2,0,1,-1,-2,0,-1,1,2
0,1,0,-1,0,1,-1,-2,0,-3,0,2
0,1,0,-1,0,0,0,-2,0,-4,-1,1
0,1,1,-1,0,0,0,-2,0,-6,-2,0
-1,0,1,0,-1,0,1,-1,0,-7,-2,0
-2,0,2,1,-2,1,1,-1,-1,-7,-3,-1
-2,0,2,1,-2,1,2,-1,-1,-6,-2,-1
-3,0,2,1,-2,0,2,-1,0,-5,-1,0
-3,-1,2,2,-3,0,2,-1,0,-4,-1,0
-4,-1,2,2,-3,0,2,-2,0,-5,-1,0
-4,-1,2,2,-3,0,2,-3,-1,-6,-2,-1
-4,-1,1,2,-3,0,2,-4,-1,-7,-3,-1
-4,-2,1,2,-2,-1,1,-4,-1,-8,-4,-1
-3,-2,1,2,-2,-1,1,-4,-1,-9,-4,-1
-3,-2,1,2,-1,-1,1,-4,-2,-9,-4,-1
-3,-2,1,2,-1,-1,1,-4,-3,-9,-4,-2
-3,-2,1,2,-1,-1,1,-4,-3,-8,-4,-3
-3,-1,1,1,-1,-1,2,-4,-3,-7,-4,-3
-2,-1,1,1,-1,0,2,-3,-2,-7,-4,-4
-2,0,1,1,-1,0,2,-3,-2,-7,-4,-4
-3,0,2,2,-2,0,2,-2,-2,-8,-5,-4
-4,-1,2,2,-3,0,2,-2,-2,-9,-5,-5
-4,-1,3,3,-3,0,2,-2,-2,-8,-4,-5
-4,-1,3,3,-4,0,2,-1,-1,-8,-4,-5
-5,-2,3,3,-4,0,2,-1,-2,-8,-3,-5
-5,-2,3,4,-4,0,2,-2,-3,-8,-3,-5
-5,-3,3,4,-4,-1,2,-3,-3,-8,-3,-5
-6,-4,2,5,-4,-1,2,-3,-3,-7,-3,-6
-6,-5,2,6,-4,-2,2,-2,-2,-7,-4,-6
-5,-5,1,6,-4,-2,3,-1,-1,-7,-4,-6
-5,-5,1,5,-3,-2,3,0,0,-7,-5,-7
-4,-4,1,5,-3,-2,3,0,0,-8,-6,-7
-3,-3,1,4,-2,-1,3,1,0,-8,-6,-6
-3,-2,1,3,-2,-1,3,0,-1,-9,-5,-5
-3,-2,2,3,-3,-1,3,0,-2,-9,-4,-5
-4,-2,2,3,-3,-1,2,-2,-2,-8,-3,-4
-4,-2,2,3,-4,0,2,-3,-3,-8,-2,-3
-5,-2,2,4,-4,0,1,-4,-3,-8,-2,-2
-6,-3,2,4,-4,0,0,-5,-3,-8,-1,-2
-6,-3,2,5,-4,-1,0,-5,-3,-7,-1,-2
-6,-3,2,5,-4,-1,0,-4,-3,-7,-2,-3
-5,-3,2,4,-3,-1,1,-3,-2,-6,-2,-3
-5,-3,2,3,-3,-1,1,-2,-1,-5,-1,-3
-5,-3,2,3,-3,-1,1,-1,0,-5,-1,-3
-5,-3,1,3,-2,-2,2,0,0,-6,-2,-3
-4,-3,0,3,-2,-2,2,0,1,-6,-2,-4
-3,-2,0,2,-1,-1,3,1,2,-6,-3,-5
-4,-2,1,3,-2,-1,3,1,3,-6,-4,-7
-5,-3,2,4,-4,-1,2,2,4,-7,-5,-8
-7,-3,3,4,-5,-1,2,3,4,-8,-6,-9
-7,-3,4,5,-6,0,2,4,3,-8,-6,-9
-7,-3,5,5,-6,0,2,5,3,-8,-6,-9
-6,-2,4,4,-5,0,2,5,4,-8,-6,-8
-4,-2,3,3,-4,0,2,5,4,-8,-5,-8
-4,-2,3,3,-4,0,2,5,4,-9,-5,-7
-5,-2,3,3,-4,0,3,5,3,-9,-4,-6
-4,-1,3,3,-4,0,3,5,2,-9,-3,-5
-3,0,3,1,-3,1,3,3,1,-8,-1,-3
-3,0,3,1,-3,0,2,0,0,-8,0,-3
-3,-1,2,1,-2,0,1,-2,-1,-7,0,-3
-3,-1,2,2,-2,0,1,-3,-1,-7,1,-2
-3,-2,1,2,-2,-1,0,-4,-1,-6,2,-1
-3,-2,1,2,-2,-1,0,-4,-2,-6,3,0
-4,-3,1,3,-2,-1,0,-5,-2,-6,3,0
-4,-3,1,3,-2,-1,-1,-5,-2,-5,3,0
-4,-3,1,4,-2,-1,-1,-4,-2,-5,3,-1
-4,-3,1,4,-2,-1,-1,-4,-1,-5,3,-1
-4,-3,2,4,-2,-1,-1,-3,-1,-5,2,-2
-4,-3,2,3,-2,-1,-1,-3,0,-6,1,-3
-3,-2,2,3,-2,0,0,-2,0,-7,0,-3
-3,-2,2,2,-2,0,0,-2,0,-7,0,-3
-3,-2,2,2,-2,0,0,-2,0,-7,1,-2
-3,-2,2,2,-2,0,0,-2,0,-7,2,-1
-4,-2,2,3,-2,0,0,-2,0,-6,2,-1
-4,-3,1,3,-2,-1,0,-1,1,-6,2,-1
-3,-2,1,3,-1,-1,0,0,2,-6,2,-1
-2,-1,1,2,-1,0,0,0,2,-6,1,-2
-2,-1,1,2,-1,0,0,1,3,-6,0,-3
-2,-1,1,2,-2,0,0,1,3,-6,0,-4
-2,0,2,1,-2,0,0,2,3,-7,-1,-4
-2,0,2,1,-1,0,0,3,4,-8,-3,-5
-2,0,1,1,-1,0,0,4,4,-9,-4,-5
-2,-1,1,2,-1,0,0,4,3,-11,-4,-6
-3,-2,1,3,-2,-1,0,3,2,-12,-4,-6
-5,-3,2,4,-3,-1,0,3,1,-13,-4,-6
-5,-3,2,4,-3,-1,0,2,1,-13,-3,-5
-4,-2,2,3,-2,-1,0,1,0,-12,-2,-5
-3,-2,1,2,-1,-1,0,0,0,-10,-2,-4
-2,-1,1,1,-1,-1,0,0,1,-8,-1,-4
-1,-1,1,1,-1,0,0,0,2,-8,0,-3
-2,-1,1,1,-1,0,0,0,2,-9,0,-2
-2,0,1,1,-2,0,0,0,2,-10,0,-1
-1,0,1,0,-1,0,-1,-2,0,-11,1,-1
0,0,1,0,-1,0,-2,-4,-2,-10,3,0
0,0,1,0,-1,0,-3,-6,-4,-10,3,0
-1,0,1,0,-1,0,-3,-7,-5,-10,3,0
-2,0,2,0,-1,0,-4,-7,-5,-10,3,0
-2,0,2,1,-2,0,-4,-7,-5,-10,3,0
-2,-1,1,1,-1,0,-4,-6,-4,-9,3,0
-2,-1,0,2,-1,-1,-4,-5,-3,-9,3,-1
-2,-2,0,2,-1,-1,-4,-3,-1,-9,2,-1
-3,-2,0,3,-1,-1,-4,-2,0,-9,0,-2
-4,-3,0,3,-1,-2,-4,-2,0,-11,-1,-3
-4,-4,0,3,-1,-2,-3,-2,0,-13,-2,-4
-4,-3,0,3,-2,-2,-3,-2,-2,-14,-2,-4
-3,-2,1,2,-2,0,-2,-2,-3,-14,-1,-3
-2,0,2,1,-2,0,-3,-3,-4,-13,0,-3
-2,0,2,1,-2,1,-3,-4,-4,-13,0,-3
-2,0,2,1,-2,0,-4,-5,-4,-13,0,-3
-2,-1,2,1,-2,0,-4,-5,-4,-13,0,-3
-1,0,2,0,-1,0,-3,-5,-4,-13,0,-2
0,1,2,-1,-1,1,-3,-4,-4,-12,0,-2
0,2,2,-1,-1,1,-3,-4,-4,-12,1,-2
-1,1,2,-1,-1,1,-4,-4,-4,-12,1,-2
-1,0,2,0,-1,0,-4,-4,-4,-13,0,-3
-2,0,2,1,-1,0,-5,-3,-3,-13,-1,-4
-2,-1,2,1,-1,0,-4,-3,-3,-14,-2,-5
-2,0,2,1,-1,0,-4,-2,-2,-14,-3,-6
-1,0,2,0,-1,0,-4,-2,-1,-13,-3,-6
-1,0,2,0,-1,0,-4,-1,0,-14,-4,-6
-1,0,2,0,-1,0,-3,0,0,-14,-4,-6
-1,0,2,0,-2,0,-3,-1,-1,-15,-4,-6
-1,0,3,0,-2,1,-4,-1,-2,-15,-3,-6
-1,1,3,0,-2,1,-4,-1,-3,-16,-3,-7
-1,1,3,0,-2,1,-4,-2,-4,-16,-3,-7
-1,1,2,0,-2,1,-4,-2,-4,-15,-3,-6
-2,0,2,0,-2,1,-4,-2,-3,-14,-3,-6
-2,0,3,0,-2,1,-4,-2,-2,-13,-2,-6
-2,0,3,1,-2,1,-5,-2,-3,-13,-2,-6
-2,0,2,1,-2,0,-5,-3,-4,-14,-3,-6
-2,0,2,1,-2,0,-6,-4,-5,-15,-3,-5
-2,0,3,1,-2,1,-6,-6,-5,-15,-2,-5
-2,0,3,1,-3,1,-6,-7,-6,-15,-2,-4
-2,0,3,0,-2,1,-6,-7,-6,-15,-1,-4
-1,0,3,0,-2,1,-6,-7,-6,-15,-1,-4
-1,1,3,0,-2,1,-6,-7,-6,-15,-1,-3
-1,1,3,0,-1,1,-6,-6,-6,-15,-1,-3
-1,1,2,0,-1,1,-7,-6,-6,-15,-1,-3
-2,0,2,0,-2,0,-7,-6,-6,-15,-1,-4
-2,0,3,1,-2,0,-7,-6,-6,-15,-1,-4
-2,0,2,1,-2,0,-7,-6,-6,-15,0,-4
-2,0,1,1,-1,0,-7,-7,-6,-15,0,-4
-2,0,1,1,-1,0,-7,-7,-7,-15,0,-4
-2,0,1,1,-2,0,-7,-8,-7,-15,0,-4
-3,-1,2,2,-2,0,-8,-8,-8,-14,0,-4
-3,-1,2,2,-2,0,-8,-8,-8,-14,0,-5
-3,-2,2,3,-2,0,-8,-8,-8,-14,-1,-5
-4,-2,2,3,-2,0,-8,-8,-7,-15,-1,-6
-4,-3,2,4,-2,-1,-8,-7,-7,-15,-2,-6
-5,-3,2,4,-2,-1,-8,-7,-7,-15,-2,-7
-4,-2,2,3,-2,0,-8,-7,-6,-15,-3,-7
-3,0,2,1,-2,0,-7,-6,-5,-15,-3,-6
-2,0,2,1,-2,0,-7,-6,-5,-14,-3,-6
-2,1,2,0,-2,1,-7,-5,-4,-14,-3,-6
-1,2,3,0,-2,1,-6,-3,-4,-14,-3,-6
-1,2,3,0,-2,2,-6,-1,-3,-14,-3,-6
-1,1,3,0,-2,2,-5,0,-2,-14,-4,-7
-1,1,3,0,-2,2,-5,2,-1,-14,-4,-7
-2,1,4,0,-2,2,-5,2,-2,-15,-5,-7
-2,1,4,0,-2,2,-5,1,-3,-16,-6,-7
-3,1,4,0,-2,2,-5,-1,-4,-16,-5,-6
-2,1,3,0,-2,1,-6,-3,-5,-15,-3,-5
-1,1,3,0,-1,1,-7,-6,-5,-14,-2,-4
-1,1,3,0,-1,1,-7,-8,-5,-12,0,-3
-1,2,4,0,-2,2,-7,-7,-5,-12,0,-3
-1,2,4,0,-3,3,-7,-7,-5,-11,1,-2
-1,3,5,0,-3,3,-7,-7,-5,-11,1,-2
-2,2,5,0,-4,3,-7,-7,-6,-11,1,-3
-3,1,5,1,-4,3,-7,-6,-6,-11,0,-4
-4,1,5,1,-4,3,-7,-6,-5,-10,0,-4
-3,2,6,0,-4,3,-6,-4,-4,-10,0,-4
-3,3,6,0,-4,4,-6,-3,-3,-10,0,-4
-2,4,6,-1,-4,4,-5,-1,-2,-10,0,-3
0,5,5,-3,-3,5,-5,0,-1,-9,0,-2
1,6,5,-4,-2,5,-5,0,-1,-9,1,-1
1,6,5,-4,-2,5,-6,0,-1,-9,2,0
1,6,4,-3,-2,5,-6,0,-1,-9,3,0
0,5,4,-2,-2,5,-6,0,-1,-9,3,-1
0,4,4,-2,-2,4,-7,-1,-2,-10,2,-1
0,4,3,-1,-2,4,-8,-2,-2,-10,2,-1
0,4,3,-1,-2,3,-9,-3,-2,-10,1,-2
0,4,3,-1,-2,3,-11,-3,-2,-10,0,-2
0,4,3,-1,-2,3,-12,-4,-2,-11,0,-1
-1,4,4,-1,-3,4,-14,-6,-2,-12,-1,-1
-2,4,5,-1,-3,4,-15,-8,-4,-13,-2,-2
-1,4,5,-2,-3,5,-15,-9,-6,-15,-3,-3
-1,5,5,-2,-3,5,-16,-11,-8,-16,-3,-3
-1,4,5,-2,-3,5,-16,-12,-9,-15,-3,-3
-1,4,5,-1,-3,5,-16,-12,-9,-14,-2,-3
-1,5,5,-2,-2,5,-16,-11,-8,-12,-1,-3
0,6,5,-3,-2,5,-16,-9,-7,-12,-1,-3
1,7,5,-4,-1,5,-15,-8,-7,-12,-1,-3
2,7,5,-5,-1,5,-15,-7,-6,-12,-2,-3
1,7,5,-5,-1,5,-14,-6,-5,-12,-2,-2
1,7,5,-5,0,5,-13,-6,-4,-13,-2,-2
2,7,4,-5,0,5,-13,-7,-4,-14,-3,-3
2,6,3,-4,0,4,-13,-8,-5,-16,-5,-4
2,5,3,-3,0,3,-13,-9,-6,-17,-6,-5
1,4,3,-3,0,3,-13,-9,-7,-17,-5,-4
1,3,2,-2,0,2,-14,-10,-9,-17,-4,-4
1,2,1,-2,0,1,-15,-12,-12,-17,-3,-3
1,2,0,-2,0,0,-16,-14,-14,-16,-2,-2
1,1,0,-1,1,0,-16,-16,-14,-15,-1,-2
0,1,0,-1,0,0,-15,-16,-14,-14,0,-1
0,0,0,0,0,0,-15,-15,-14,-13,1,-1
-2,0,1,1,-1,0,-15,-14,-13,-13,1,0
-4,-2,1,3,-2,0,-15,-14,-12,-13,1,-1
-5,-3,1,4,-3,-1,-14,-14,-12,-13,0,-2
-5,-4,0,4,-3,-2,-13,-13,-11,-14,-1,-2
-5,-4,0,4,-3,-2,-13,-13,-11,-14,-1,-3
-5,-4,0,4,-3,-2,-12,-12,-10,-15,-2,-3
-4,-3,0,3,-2,-2,-11,-11,-10,-15,-2,-3
-3,-2,0,2,-1,-1,-11,-10,-9,-15,-2,-4
-2,-1,0,2,0,-1,-10,-9,-9,-15,-2,-4
-1,-1,0,2,0,-1,-10,-9,-10,-16,-3,-4
-2,-2,0,2,0,-1,-10,-9,-10,-16,-3,-4
-2,-2,0,2,-1,-1,-10,-9,-10,-16,-3,-4
-3,-3,0,3,-1,-1,-10,-9,-10,-16,-3,-4
-3,-3,0,3,-1,-2,-10,-10,-10,-16,-4,-5
-3,-4,-1,3,-1,-2,-10,-10,-10,-17,-5,-5
-3,-4,-1,3,-1,-3,-10,-9,-10,-17,-6,-6
-3,-4,-1,3,-1,-3,-10,-8,-10,-18,-6,-6
-3,-4,-1,3,-1,-3,-10,-7,-9,-18,-7,-7
-3,-4,-2,3,0,-4,-10,-5,-7,-18,-8,-8
-3,-4,-2,3,0,-4,-8,-2,-6,-18,-9,-9
-3,-4,-2,3,0,-3,-7,0,-4,-18,-9,-9
-4,-4,-1,4,-1,-3,-6,1,-4,-18,-9,-9
-4,-5,0,4,-2,-3,-5,1,-5,-18,-10,-9
-4,-6,0,5,-2,-3,-5,0,-6,-18,-10,-9
-4,-6,-1,5,-2,-4,-6,-2,-8,-18,-9,-8
-4,-6,-1,5,-2,-4,-6,-4,-9,-18,-8,-6
-5,-6,-1,5,-2,-4,-6,-5,-9,-18,-8,-6
-5,-7,-2,6,-2,-4,-6,-6,-9,-18,-7,-5
-5,-7,-2,6,-1,-5,-6,-7,-9,-17,-6,-5
-5,-7,-2,6,-1,-4,-7,-8,-9,-17,-5,-4
-5,-7,-2,6,-1,-4,-7,-9,-9,-16,-4,-4
-5,-8,-1,6,-1,-4,-7,-9,-10,-16,-3,-4
-6,-8,-1,7,-2,-5,-8,-10,-10,-15,-2,-3
-7,-9,-1,8,-2,-5,-8,-11,-10,-14,-1,-3
-7,-9,-1,8,-2,-5,-7,-9,-9,-13,-1,-3
-7,-9,-2,8,-2,-5,-6,-7,-9,-12,-1,-3
-7,-9,-2,8,-2,-5,-5,-5,-8,-12,-1,-4
-7,-9,-2,8,-2,-5,-3,-2,-5,-10,-1,-5
-7,-9,-2,7,-2,-5,-1,1,-1,-7,0,-5
-6,-9,-3,7,-1,-6,0,4,1,-5,0,-5
-5,-10,-5,7,0,-8,1,7,4,-3,1,-4
-2,-11,-9,7,3,-11,2,9,6,-1,4,-2
0,-12,-13,6,7,-13,1,10,7,2,8,2
4,-13,-18,4,12,-16,0,11,8,5,14,9
10,-13,-23,1,17,-18,-1,12,11,11,21,17
17,-12,-30,-2,24,-21,-3,14,16,18,32,28
25,-12,-37,-7,31,-24,-5,19,23,29,45,40
35,-10,-44,-13,40,-27,-6,26,32,42,59,53
47,-5,-52,-21,50,-28,-8,32,43,57,76,67
60,0,-59,-30,60,-29,-11,36,53,72,93,83
72,7,-64,-39,69,-29,-16,38,61,86,110,100
82,15,-66,-48,75,-26,-20,38,67,97,125,117
89,25,-64,-57,77,-19,-25,36,72,105,138,132
91,35,-57,-63,74,-11,-29,33,73,107,144,141
88,42,-46,-65,67,-1,-31,27,68,100,140,139
77,45,-32,-61,55,6,-31,17,56,84,122,123
62,42,-19,-52,40,12,-28,8,41,60,95,95
43,37,-6,-41,25,16,-23,0,23,35,65,64
26,33,7,-30,10,20,-17,-7,5,9,37,37
11,29,17,-20,-2,23,-12,-14,-13,-14,12,16
-1,24,24,-11,-12,24,-8,-19,-29,-34,-8,-1
-11,18,28,-3,-19,23,-4,-21,-41,-50,-26,-16
-17,13,30,2,-23,21,-1,-22,-49,-62,-39,-28
-20,9,29,5,-24,19,1,-21,-54,-69,-49,-35
-21,6,28,7,-24,17,3,-19,-57,-73,-55,-41
-23,2,26,9,-24,14,5,-16,-58,-75,-59,-44
-24,-1,23,12,-23,10,7,-15,-59,-76,-62,-47
-25,-5,19,15,-21,6,7,-15,-60,-77,-64,-49
-25,-9,15,17,-20,2,7,-17,-62,-77,-65,-51
-26,-13,12,19,-19,0,6,-18,-63,-77,-66,-52
-26,-16,10,21,-19,-2,5,-20,-63,-76,-65,-52
-26,-18,9,22,-18,-4,4,-21,-62,-75,-65,-52
-26,-18,8,22,-18,-4,3,-21,-59,-73,-63,-51
-24,-17,8,20,-17,-4,4,-19,-54,-68,-59,-48
-23,-16,7,19,-15,-4,4,-16,-48,-62,-54,-44
-22,-16,5,18,-13,-5,3,-12,-42,-55,-47,-39
-19,-15,3,17,-11,-6,3,-8,-37,-48,-40,-33
-16,-15,0,15,-8,-7,3,-6,-32,-41,-32,-27
-14,-15,-1,14,-6,-8,3,-4,-27,-34,-26,-23
-12,-16,-3,13,-4,-9,3,-4,-22,-29,-22,-21
-11,-16,-4,13,-3,-10,3,-2,-17,-25,-19,-20
-10,-16,-5,13,-3,-10,3,0,-13,-21,-17,-19
-10,-15,-5,12,-2,-10,3,3,-10,-18,-14,-16
-9,-14,-5,12,-2,-10,3,4,-8,-15,-12,-13
-8,-13,-5,10,-1,-9,4,6,-7,-12,-9,-10
-7,-11,-5,9,-1,-8,5,6,-5,-9,-5,-6
-5,-9,-4,7,0,-6,6,7,-3,-6,-2,-3
-3,-7,-4,5,0,-5,7,7,-1,-4,0,-1
-1,-6,-4,4,1,-5,7,7,1,-2,2,0
-1,-6,-4,3,2,-5,6,7,2,0,3,0
0,-6,-4,3,2,-5,5,7,3,0,3,0
0,-5,-4,3,2,-5,5,7,4,0,3,0
-1,-5,-4,3,1,-5,4,8,4,1,3,0
-2,-6,-4,3,1,-5,4,8,4,0,3,1
-2,-6,-4,4,1,-6,4,8,4,0,3,1
-2,-7,-4,4,1,-6,4,8,4,0,3,1
-3,-7,-4,4,1,-6,4,8,4,0,3,1
-3,-7,-4,5,0,-6,4,8,4,0,3,0
-3,-7,-4,5,0,-6,4,8,4,0,3,0
-3,-8,-5,5,0,-6,4,8,4,0,3,0
-3,-8,-5,5,0,-6,4,8,4,0,3,0
-2,-7,-5,5,1,-6,4,8,4,1,3,1
-1,-7,-6,4,2,-6,4,8,4,1,4,1
-1,-7,-6,4,2,-7,3,9,5,2,4,1
-1,-7,-6,4,2,-7,3,9,5,2,4,1
-2,-7,-6,4,2,-7,3,9,6,3,4,1
-3,-8,-5,5,1,-7,3,9,6,3,4,1
-3,-8,-5,5,1,-7,3,9,6,3,4,1
-3,-7,-5,5,1,-6,3,9,7,3,4,1
-2,-6,-5,4,1,-6,3,9,7,4,5,2
-1,-5,-5,3,2,-5,3,10,7,4,5,2
0,-5,-5,2,2,-5,3,11,7,4,6,3
0,-5,-5,1,3,-5,4,11,8,5,6,4
1,-4,-6,1,4,-5,4,11,8,5,7,4
2,-4,-6,0,5,-5,4,12,9,6,7,5
3,-3,-6,0,5,-5,4,12,10,6,7,5
3,-3,-6,0,5,-5,4,13,11,6,7,4
2,-4,-6,0,5,-5,5,15,13,6,5,3
1,-5,-6,2,4,-6,5,18,14,5,3,1
0,-6,-6,3,3,-6,5,20,15,4,2,0
-2,-8,-6,4,2,-7,6,22,15,3,1,0
-3,-8,-5,5,1,-7,6,23,15,2,0,0
-4,-8,-5,5,0,-6,7,22,14,2,1,0
-3,-7,-4,4,0,-6,7,19,13,4,2,0
-1,-6,-4,3,1,-6,7,17,12,6,4,1
0,-6,-5,3,2,-6,6,16,12,7,6,2
0,-5,-6,3,3,-6,6,15,11,8,7,3
1,-5,-6,2,4,-6,5,15,11,10,8,4
1,-4,-6,1,4,-5,5,15,11,11,8,4
1,-4,-6,1,4,-5,5,14,11,12,9,5
2,-4,-6,1,4,-5,4,13,11,12,9,5
3,-3,-7,0,5,-5,4,11,10,13,10,6
4,-3,-7,0,5,-5,3,9,10,14,12,8
4,-3,-8,0,5,-5,2,7,10,14,13,9
4,-3,-8,0,5,-5,1,7,10,15,15,10
4,-3,-7,0,5,-5,0,8,10,15,16,10
3,-3,-7,0,5,-5,0,8,10,16,17,11
3,-3,-7,0,5,-5,0,9,10,16,17,11
4,-2,-7,-1,6,-4,0,10,12,17,18,11
4,-1,-7,-2,6,-4,0,12,13,18,18,11
4,-2,-7,-1,6,-5,0,13,14,18,18,11
4,-2,-7,-1,6,-5,1,14,15,18,18,11
4,-2,-7,-1,6,-5,1,15,15,18,18,11
4,-2,-7,-1,6,-5,1,15,16,18,18,11
4,-2,-7,0,6,-5,1,16,16,19,17,11
3,-3,-7,0,6,-5,1,16,17,19,17,11
4,-2,-7,-1,6,-5,1,17,17,20,18,12
5,-1,-7,-2,7,-4,1,18,18,21,18,12
7,0,-7,-3,7,-4,2,19,20,22,18,12
9,1,-8,-5,8,-4,2,21,21,22,18,12
9,2,-8,-6,8,-3,2,22,22,23,19,13
9,2,-7,-6,8,-3,2,22,22,23,20,13
8,1,-7,-5,8,-3,2,22,22,24,20,13
8,0,-8,-4,8,-4,2,23,23,24,19,13
8,0,-8,-4,8,-4,2,23,24,24,19,13
8,0,-8,-5,9,-4,2,25,25,25,19,13
9,1,-8,-6,9,-4,2,27,26,25,20,14
10,2,-8,-7,10,-3,2,29,27,26,21,15
11,3,-8,-7,10,-3,2,30,27,28,22,15
11,3,-9,-8,10,-3,2,29,28,29,23,16
12,3,-9,-8,11,-3,1,28,28,30,24,17
12,3,-9,-8,11,-3,1,27,28,31,25,18
12,3,-9,-8,12,-3,1,26,28,32,26,19
13,3,-9,-8,12,-3,0,25,29,34,27,20
13,3,-10,-9,12,-3,0,25,29,35,28,20
14,3,-10,-9,13,-3,-1,26,30,35,28,21
15,4,-11,-10,13,-3,-2,26,31,35,29,21
16,5,-11,-10,13,-3,-2,27,31,35,30,22
17,6,-11,-12,14,-3,-3,27,30,36,31,23
18,7,-11,-13,15,-2,-3,27,30,36,32,24
20,10,-10,-15,16,-1,-3,26,31,37,33,25
22,12,-10,-17,17,0,-4,26,31,38,34,26
22,12,-11,-17,17,0,-5,24,31,39,35,27
22,11,-11,-17,17,0,-7,23,30,39,35,27
22,11,-11,-17,17,0,-8,23,30,39,35,28
23,12,-11,-18,17,0,-8,22,30,39,35,28
23,12,-11,-18,17,1,-9,22,29,38,35,28
23,13,-10,-19,17,1,-9,22,29,38,35,28
23,14,-10,-19,17,1,-9,23,29,37,35,27
24,16,-9,-20,17,3,-9,23,29,37,35,27
25,17,-9,-21,17,3,-10,23,29,37,35,27
25,17,-9,-21,18,3,-10,23,29,37,34,27
25,16,-9,-21,18,3,-11,24,29,37,33,27
25,16,-9,-22,18,3,-11,24,30,37,33,27
25,17,-9,-22,18,3,-11,23,30,35,32,27
25,16,-8,-21,18,3,-11,23,29,33,31,27
25,17,-8,-21,18,3,-11,22,28,32,30,27
26,18,-8,-22,18,3,-11,22,27,31,30,28
27,18,-8,-23,18,4,-11,21,25,29,30,29
27,18,-8,-23,18,4,-12,19,23,28,30,29
27,19,-8,-23,18,4,-13,18,22,27,30,29
27,19,-8,-23,18,4,-13,17,20,27,30,29
27,18,-8,-23,18,4,-13,15,19,26,30,28
26,17,-8,-22,17,4,-14,14,19,25,29,27
24,16,-8,-21,17,3,-14,14,18,24,28,26
22,16,-7,-19,15,3,-13,14,17,22,26,24
21,15,-6,-18,14,4,-13,13,16,21,25,23
21,15,-5,-18,14,4,-13,12,14,19,23,22
20,15,-5,-18,13,5,-13,10,12,18,22,21
20,15,-4,-18,12,5,-12,8,10,17,21,21
19,14,-4,-17,12,4,-12,7,9,16,21,20
19,14,-4,-17,12,4,-11,6,9,15,19,18
18,14,-4,-17,12,4,-11,6,8,14,17,17
17,13,-3,-16,11,4,-10,5,7,12,16,16
14,12,-2,-14,9,4,-10,4,5,9,14,15
13,11,-1,-12,7,4,-10,2,3,7,12,13
11,11,-1,-11,6,4,-10,2,1,5,11,12
10,10,0,-10,6,4,-9,1,0,4,10,11
9,8,0,-9,5,3,-9,0,-1,3,9,9
7,6,0,-7,4,2,-8,0,-2,1,8,8
5,4,0,-5,4,1,-8,-1,-3,0,6,6
4,3,0,-4,3,1,-7,-1,-3,-1,5,5
3,2,0,-3,2,0,-7,-2,-4,-3,3,4
1,1,0,-1,1,0,-6,-2,-4,-4,1,3
0,0,0,0,0,0,-6,-2,-5,-6,0,2
-1,-1,0,1,0,-1,-5,-2,-5,-7,-1,1
-2,-1,0,1,-1,-1,-4,-1,-6,-8,-1,0
-2,-1,1,1,-1,0,-4,-1,-7,-9,-1,0
-2,-1,2,1,-1,0,-3,-1,-7,-9,-1,-1
-2,-1,1,1,-1,0,-3,-2,-8,-9,-2,-1
-2,-1,1,1,-1,0,-3,-3,-8,-9,-2,-2
-2,-1,0,1,-1,0,-2,-4,-9,-10,-3,-3
-3,-1,1,1,-1,0,-2,-4,-9,-10,-4,-4
-3,-1,1,2,-2,0,-1,-4,-9,-10,-5,-4
-3,-1,2,2,-2,0,-1,-3,-8,-9,-5,-5
-3,-2,2,2,-2,0,0,-3,-8,-10,-6,-6
-5,-3,2,4,-3,0,0,-2,-8,-11,-8,-7
-6,-4,3,5,-4,-1,0,-2,-8,-13,-10,-9
-7,-5,3,6,-5,-1,0,-1,-9,-14,-11,-10
-8,-5,3,6,-5,-1,0,-1,-9,-15,-12,-10
-8,-6,3,7,-5,-1,0,-1,-10,-15,-12,-10
-9,-6,3,7,-5,-2,0,-2,-10,-15,-11,-10
-9,-6,3,7,-5,-2,0,-3,-11,-15,-11,-10
-8,-6,2,7,-4,-2,0,-4,-11,-15,-10,-9
-8,-6,2,6,-4,-2,0,-4,-11,-15,-10,-9
-8,-6,2,6,-4,-2,0,-4,-11,-15,-9,-9
-8,-5,2,6,-4,-1,0,-4,-10,-14,-9,-9
-8,-4,3,5,-4,-1,0,-3,-9,-13,-9,-9
-7,-3,3,4,-4,0,0,-3,-9,-14,-9,-9
-7,-3,3,4,-4,0,0,-2,-10,-14,-9,-9
-7,-3,4,4,-5,0,0,-2,-11,-14,-9,-9
-8,-3,4,4,-5,0,1,-3,-12,-14,-9,-8
-8,-3,4,4,-5,0,1,-4,-12,-13,-9,-8
-7,-3,4,5,-5,0,1,-5,-11,-12,-9,-8
-8,-4,4,6,-6,0,1,-4,-10,-13,-9,-9
-10,-5,4,7,-7,0,1,-4,-10,-13,-9,-9
-10,-5,4,8,-7,0,1,-3,-9,-13,-9,-10
-10,-5,4,7,-6,0,1,-2,-9,-13,-9,-10
-9,-5,4,7,-6,0,1,-1,-9,-13,-10,-11
-9,-4,5,6,-7,0,1,-1,-9,-14,-10,-11
-9,-4,5,6,-7,0,1,-1,-9,-15,-11,-11
-9,-3,5,5,-7,0,1,-2,-10,-15,-11,-11
-9,-3,5,5,-7,1,1,-3,-11,-15,-10,-10
-9,-3,5,6,-7,1,1,-5,-12,-15,-9,-10
-10,-4,5,6,-7,0,0,-7,-13,-14,-8,-9
-11,-4,5,7,-7,0,0,-8,-13,-14,-8,-9
-11,-4,5,7,-7,0,0,-8,-13,-13,-7,-9
-10,-4,5,7,-7,0,0,-7,-12,-12,-7,-8
-10,-4,5,7,-7,0,0,-6,-12,-11,-7,-9
-10,-4,5,7,-8,0,0,-4,-10,-11,-7,-9
-10,-4,5,7,-8,0,0,-2,-9,-11,-8,-9
-10,-4,5,7,-8,0,1,-2,-9,-11,-8,-9
-9,-4,5,6,-7,0,1,-2,-10,-12,-8,-9
-9,-3,5,6,-7,0,1,-4,-10,-12,-8,-9
-9,-4,5,6,-7,0,0,-5,-11,-12,-8,-9
-10,-5,5,7,-7,0,0,-5,-11,-12,-8,-10
-10,-5,5,7,-6,0,0,-5,-10,-11,-8,-10
-9,-4,4,7,-6,0,1,-5,-10,-11,-7,-10
-9,-4,4,6,-6,0,1,-4,-9,-10,-7,-10
-9,-3,5,6,-7,0,1,-3,-9,-10,-7,-10
-9,-3,5,6,-7,0,1,-2,-8,-9,-7,-10
-9,-3,6,6,-7,0,1,-1,-6,-9,-8,-11
-9,-3,6,6,-7,1,2,0,-5,-9,-8,-12
-9,-3,6,6,-7,1,2,1,-4,-9,-9,-12
-9,-2,6,5,-7,2,3,3,-3,-9,-10,-12
-8,-2,6,4,-6,2,3,5,-3,-10,-11,-12
-8,-2,6,5,-7,2,3,5,-4,-12,-12,-13
-8,-2,6,5,-7,2,3,3,-6,-13,-12,-13
-8,-2,6,5,-7,2,3,1,-7,-13,-11,-12
-9,-2,7,6,-7,2,2,-1,-8,-12,-10,-11
-10,-3,7,6,-8,2,2,-3,-8,-12,-10,-11
-9,-4,6,6,-7,1,1,-4,-9,-11,-9,-10
-8,-4,5,6,-6,1,1,-5,-9,-11,-8,-9
-8,-4,5,5,-6,0,0,-5,-10,-10,-7,-8
-8,-4,5,5,-6,0,0,-5,-10,-10,-6,-8
-8,-4,5,5,-6,0,0,-4,-10,-9,-6,-8
-8,-4,5,5,-6,0,0,-4,-10,-9,-6,-8
-8,-3,5,5,-6,1,0,-3,-9,-9,-6,-8
-7,-3,5,5,-6,1,0,-2,-8,-9,-6,-8
-8,-3,6,5,-6,1,0,-2,-7,-9,-6,-8
-7,-2,6,4,-6,1,0,-1,-7,-9,-6,-8
-6,-2,6,4,-6,2,1,-1,-7,-9,-6,-7
-7,-2,7,4,-6,2,1,-1,-7,-10,-6,-7
-7,-2,6,4,-6,1,1,-2,-8,-10,-6,-7
-7,-2,5,4,-6,1,1,-4,-8,-9,-6,-7
-6,-2,4,3,-5,1,0,-4,-8,-9,-5,-7
-5,-1,4,3,-4,1,0,-4,-8,-9,-5,-7
-6,-2,4,3,-4,1,0,-3,-8,-9,-6,-7
-7,-3,4,4,-5,1,0,-3,-9,-9,-6,-7
-8,-3,5,5,-6,0,0,-3,-9,-9,-6,-8
-8,-3,5,6,-6,0,0,-3,-8,-9,-6,-8
-7,-2,5,5,-6,1,0,-3,-8,-8,-7,-8
-6,-1,5,4,-5,1,0,-4,-7,-8,-7,-8
-5,0,5,3,-5,1,0,-4,-7,-8,-7,-8
-5,0,5,3,-5,1,0,-4,-7,-9,-7,-8
-5,0,6,3,-5,1,0,-4,-8,-9,-7,-8
-5,0,6,3,-4,2,0,-4,-9,-9,-7,-8
-5,0,5,3,-4,1,0,-5,-10,-9,-7,-8
-5,-2,4,4,-4,0,-1,-6,-10,-10,-7,-8
-7,-3,4,5,-4,0,-1,-7,-10,-10,-6,-7
-8,-4,4,6,-5,-1,-1,-7,-11,-10,-6,-7
-9,-5,4,7,-6,-1,-1,-6,-11,-10,-6,-7
-9,-5,4,7,-6,-1,-1,-6,-12,-10,-6,-7
-8,-4,4,6,-5,-1,-1,-6,-12,-9,-5,-6
-7,-4,3,5,-4,-1,-1,-6,-12,-9,-5,-6
-6,-4,3,5,-4,-1,-1,-7,-12,-9,-5,-6
-6,-4,3,5,-4,-1,-1,-7,-12,-9,-5,-6
-6,-4,3,5,-4,-1,-1,-7,-11,-10,-6,-7
-6,-3,3,4,-4,0,0,-6,-11,-10,-6,-7
-6,-3,3,5,-4,-1,0,-5,-11,-11,-6,-7
-7,-4,3,6,-5,-1,0,-5,-11,-11,-7,-8
-7,-4,3,6,-5,-1,-1,-5,-11,-11,-7,-8
-7,-4,3,6,-4,-1,-1,-5,-11,-11,-8,-8
-7,-5,3,6,-4,-1,-1,-5,-11,-11,-8,-9
-7,-5,3,5,-4,-1,-1,-5,-10,-11,-9,-9
-7,-5,2,5,-4,-1,0,-5,-9,-11,-9,-9
-7,-4,2,5,-4,-1,0,-4,-9,-12,-9,-9
-6,-4,2,5,-4,-1,0,-3,-8,-12,-10,-9
-7,-3,3,5,-4,-1,1,-1,-8,-12,-10,-10
-7,-3,3,5,-4,-1,2,0,-7,-12,-11,-10
-7,-3,3,5,-4,-1,2,1,-6,-13,-12,-11
-7,-3,3,5,-4,-1,2,2,-6,-13,-13,-11
-7,-4,3,5,-5,0,3,3,-6,-13,-13,-12
-7,-4,3,5,-5,0,3,3,-6,-13,-14,-12
-8,-4,3,6,-5,0,3,3,-7,-13,-14,-13
-9,-6,3,7,-6,-1,3,2,-7,-12,-15,-14
-10,-6,3,8,-6,-1,2,2,-7,-12,-15,-14
-10,-6,3,8,-6,-1,2,1,-7,-12,-15,-14
-9,-5,4,7,-6,0,2,0,-8,-13,-14,-13
-9,-4,4,7,-6,0,1,-2,-9,-14,-13,-11
-8,-4,4,6,-6,0,0,-5,-11,-14,-11,-10
-8,-5,3,6,-5,-1,0,-9,-14,-14,-9,-8
-8,-5,2,6,-4,-2,-1,-13,-15,-13,-7,-7
-7,-5,2,6,-4,-2,-2,-14,-16,-12,-6,-6
-7,-5,2,6,-4,-2,-2,-14,-16,-11,-4,-6
-7,-6,2,6,-4,-2,-3,-14,-17,-10,-4,-6
-8,-6,2,7,-4,-2,-3,-14,-17,-10,-4,-6
-7,-5,2,6,-4,-2,-3,-13,-16,-9,-3,-5
-7,-4,2,6,-4,-2,-2,-12,-14,-8,-3,-5
-7,-4,2,5,-4,-1,-2,-11,-13,-8,-4,-6
-7,-4,3,6,-4,-1,-2,-10,-13,-9,-4,-6
-8,-5,3,7,-5,-1,-2,-10,-13,-10,-5,-7
-9,-6,3,8,-6,-2,-2,-9,-13,-11,-7,-8
-9,-7,2,8,-6,-2,-2,-9,-13,-11,-8,-8
-9,-7,1,9,-5,-3,-2,-8,-13,-12,-8,-9
-8,-8,0,8,-4,-3,-2,-8,-12,-12,-9,-9
-9,-8,0,8,-4,-3,-1,-7,-12,-12,-9,-10
-9,-8,1,9,-5,-3,-1,-7,-12,-12,-9,-10
-9,-8,1,8,-5,-3,-1,-7,-11,-12,-9,-11
-8,-6,1,7,-5,-2,0,-7,-11,-12,-9,-11
-7,-5,1,6,-4,-2,0,-6,-11,-12,-9,-11
-6,-4,1,5,-4,-1,0,-6,-11,-12,-9,-10
-5,-3,2,4,-3,-1,0,-6,-11,-12,-10,-10
-6,-3,2,5,-4,-1,0,-6,-11,-12,-10,-10
-6,-3,2,5,-4,-1,0,-6,-11,-12,-10,-10
-6,-3,2,5,-4,0,0,-7,-12,-12,-9,-10
-7,-3,3,5,-4,0,0,-7,-12,-12,-9,-10
-7,-3,3,5,-5,0,0,-7,-12,-13,-9,-10
-8,-3,4,6,-5,0,0,-7,-12,-13,-10,-10
-8,-3,4,6,-5,0,0,-7,-12,-13,-10,-11
-9,-4,4,7,-5,0,0,-7,-12,-13,-11,-11
-9,-4,4,8,-5,0,0,-7,-11,-13,-12,-12
-9,-5,3,8,-5,0,0,-6,-11,-14,-13,-13
-10,-5,3,8,-6,-1,0,-6,-11,-15,-14,-14
-10,-6,3,9,-6,-1,0,-5,-11,-15,-15,-14
-10,-6,3,8,-6,-2,0,-4,-10,-15,-15,-14
-9,-6,3,7,-6,-2,0,-3,-10,-14,-15,-14
-8,-5,3,6,-6,-1,1,-3,-9,-14,-15,-13
-8,-4,3,6,-6,-1,1,-3,-9,-14,-14,-13
-8,-5,3,6,-6,-1,1,-4,-10,-14,-14,-13
-9,-5,3,7,-6,-1,1,-4,-11,-14,-13,-12
-9,-5,4,7,-6,-1,1,-4,-10,-14,-12,-12
-9,-5,4,7,-6,0,2,-3,-10,-13,-12,-11
-9,-5,3,7,-5,-1,2,-4,-9,-13,-11,-11
-9,-6,3,7,-5,-1,2,-4,-9,-13,-11,-10
-9,-6,3,8,-5,-1,2,-4,-10,-13,-11,-10
-10,-6,3,8,-6,-1,1,-5,-11,-14,-11,-10
-10,-6,3,9,-6,-1,1,-6,-12,-14,-10,-10
-10,-6,3,8,-6,-1,1,-8,-13,-13,-9,-9
-8,-5,2,7,-5,-1,1,-9,-13,-12,-7,-8
-6,-4,1,5,-3,-1,0,-10,-14,-11,-6,-8
-6,-4,1,5,-3,-1,0,-11,-14,-11,-6,-8
-7,-5,1,6,-4,-1,-1,-12,-14,-11,-6,-8
-9,-6,2,7,-5,-1,-2,-12,-14,-11,-7,-8
-10,-7,2,8,-6,-1,-2,-12,-14,-11,-7,-8
-10,-6,2,8,-6,-1,-2,-11,-13,-10,-7,-8
-9,-5,2,7,-5,0,-2,-11,-12,-10,-7,-8
-7,-3,2,5,-5,0,-1,-10,-11,-9,-6,-7
-6,-2,3,4,-5,0,-1,-10,-10,-8,-6,-7
-6,-1,4,3,-5,1,0,-8,-9,-7,-6,-7
-5,0,4,3,-5,2,0,-7,-9,-7,-6,-7
-5,0,4,2,-4,3,1,-7,-9,-7,-6,-7
-5,0,4,2,-4,3,1,-7,-9,-8,-6,-7
-6,0,4,3,-5,3,1,-6,-8,-8,-7,-7
-7,0,5,3,-5,3,2,-5,-7,-8,-7,-8
-7,0,5,3,-6,3,2,-4,-6,-8,-8,-8
-7,0,5,3,-6,3,2,-3,-5,-9,-9,-9
-7,-1,5,4,-6,2,2,-2,-5,-10,-9,-10
-7,-1,5,4,-6,2,2,-2,-6,-11,-10,-11
-7,-1,5,4,-6,2,2,-2,-6,-10,-10,-10
-7,-1,5,4,-6,3,2,-2,-6,-8,-9,-9
-7,0,5,4,-6,3,1,-3,-6,-6,-8,-9
-7,0,5,3,-6,3,0,-4,-5,-6,-8,-8
-6,0,5,3,-6,3,-1,-6,-5,-6,-8,-8
-6,1,6,2,-6,3,-3,-7,-5,-7,-8,-8
-6,1,6,2,-6,3,-4,-8,-6,-8,-8,-8
-5,2,6,1,-5,3,-6,-10,-7,-9,-8,-8
-5,2,6,1,-5,3,-7,-11,-8,-10,-9,-9
-6,1,6,2,-5,3,-8,-12,-10,-10,-9,-9
-6,2,7,2,-6,4,-8,-12,-10,-10,-9,-9
-5,2,7,1,-6,4,-8,-11,-10,-10,-9,-9
-5,2,6,1,-5,4,-8,-9,-10,-9,-9,-9
-5,2,6,1,-5,4,-8,-8,-10,-10,-10,-9
-6,2,7,1,-6,4,-8,-8,-10,-11,-10,-8
-6,2,7,1,-6,4,-7,-8,-10,-11,-9,-7
-5,3,7,0,-5,4,-7,-9,-11,-11,-8,-6
-3,3,6,0,-4,4,-7,-11,-12,-11,-7,-5
-2,3,5,-1,-3,4,-7,-13,-13,-10,-6,-5
-2,3,5,-1,-3,4,-7,-14,-14,-10,-6,-5
-2,3,4,0,-3,4,-7,-15,-15,-10,-7,-6
-2,2,4,0,-3,3,-8,-16,-16,-11,-8,-7
-2,2,3,0,-3,2,-8,-16,-16,-11,-8,-7
-2,1,3,0,-3,2,-8,-16,-15,-10,-8,-8
-3,1,3,0,-3,2,-8,-15,-13,-10,-8,-8
-3,1,3,0,-3,2,-7,-14,-12,-10,-9,-9
-3,0,3,0,-3,1,-7,-13,-12,-11,-10,-9
