leadI,leadII,leadIII,leadaVR,leadaVL,leadaVF,leadV1,leadV2,leadV3,leadV4,leadV5,leadV6
22,-3,-25,-9,24,-14,1,-27,-50,-46,-31,-6
56,-7,-64,-24,60,-35,2,-72,-125,-114,-77,-16
75,-6,-82,-33,78,-44,-1,-101,-157,-141,-97,-24
84,-3,-87,-40,85,-45,-6,-115,-160,-143,-103,-32
89,2,-87,-45,87,-42,-12,-117,-144,-129,-99,-40
91,7,-84,-49,87,-38,-18,-109,-118,-104,-87,-44
93,12,-80,-52,86,-34,-22,-96,-85,-74,-69,-43
93,17,-75,-55,84,-29,-25,-79,-48,-42,-47,-38
92,22,-70,-57,81,-24,-27,-60,-10,-8,-25,-32
90,25,-64,-58,77,-19,-26,-38,28,25,-3,-26
88,27,-60,-58,74,-17,-22,-14,67,59,18,-20
86,26,-60,-57,73,-17,-15,12,105,91,39,-14
86,24,-62,-56,74,-19,-8,40,142,123,60,-7
87,21,-66,-55,76,-22,0,68,175,152,81,2
88,19,-69,-54,78,-25,8,92,205,179,101,12
89,18,-71,-53,80,-26,14,111,229,201,117,21
89,17,-72,-53,81,-27,19,127,249,218,131,28
89,16,-73,-53,81,-28,23,138,264,232,141,33
89,16,-73,-53,81,-28,26,147,276,242,148,37
89,16,-73,-53,81,-28,28,155,286,249,153,39
89,16,-73,-53,80,-28,31,161,294,256,157,41
88,16,-72,-53,80,-28,33,167,301,261,159,43
88,16,-71,-52,79,-28,35,173,307,265,162,44
87,16,-70,-52,78,-27,37,177,312,269,164,44
86,16,-69,-51,78,-27,38,182,318,272,165,45
85,16,-69,-51,77,-26,38,186,323,274,167,45
84,16,-68,-50,76,-26,39,190,328,276,168,44
84,16,-68,-50,76,-26,39,194,333,278,168,44
84,16,-68,-50,75,-26,39,198,339,279,169,43
83,15,-68,-49,75,-26,39,202,344,281,169,42
83,15,-68,-49,75,-26,39,206,349,282,170,42
82,14,-68,-48,75,-26,40,210,353,283,170,41
81,14,-67,-48,74,-26,41,214,358,285,170,41
81,14,-66,-47,74,-26,42,219,363,286,170,41
80,14,-65,-47,72,-26,44,223,368,288,170,41
78,14,-64,-46,71,-25,46,229,374,289,170,41
77,14,-63,-46,70,-25,48,234,380,291,170,41
76,14,-62,-45,69,-24,51,240,386,293,170,41
75,14,-61,-45,68,-23,53,245,392,294,169,40
74,14,-60,-44,66,-23,55,250,398,295,169,40
72,14,-58,-44,65,-22,57,255,403,296,169,39
71,14,-56,-43,63,-21,59,259,408,297,168,39
69,14,-55,-42,62,-20,61,264,413,298,168,38
68,14,-53,-42,60,-19,63,268,418,299,167,38
66,14,-52,-41,59,-19,65,273,423,301,167,37
65,14,-50,-40,57,-18,67,278,427,302,167,37
63,14,-49,-39,56,-18,69,283,431,304,167,37
60,13,-47,-37,54,-17,71,287,435,305,168,37
57,13,-44,-35,51,-16,74,290,439,307,170,38
54,12,-42,-33,48,-15,76,294,442,308,172,39
50,12,-39,-31,45,-14,77,297,446,311,174,40
47,11,-36,-29,42,-12,79,300,449,313,177,42
44,11,-33,-28,39,-11,80,303,451,317,181,45
42,11,-31,-26,37,-10,80,306,454,320,185,48
39,10,-28,-25,34,-9,81,308,456,324,190,52
36,10,-25,-23,30,-8,82,311,458,328,195,56
32,9,-22,-20,27,-7,83,312,459,332,200,60
29,9,-20,-19,25,-6,83,313,459,336,206,63
28,8,-20,-18,24,-6,83,313,459,340,211,67
28,8,-20,-18,24,-6,82,312,458,343,215,71
29,8,-20,-18,24,-6,82,311,456,346,219,74
30,8,-21,-18,25,-7,81,309,454,348,223,78
31,8,-23,-19,27,-7,80,306,451,351,227,81
33,8,-24,-20,28,-8,79,303,447,353,231,85
34,8,-25,-21,29,-8,77,299,443,355,235,88
35,8,-26,-22,30,-9,76,295,438,356,239,91
36,9,-27,-23,31,-9,74,291,432,357,242,93
37,9,-27,-23,32,-9,73,286,427,357,244,95
38,10,-28,-24,33,-9,72,281,421,357,246,97
40,11,-28,-25,34,-8,71,276,415,357,248,99
41,12,-29,-26,34,-8,69,271,408,356,249,101
42,13,-29,-27,35,-8,67,265,401,354,249,103
42,13,-28,-28,34,-7,65,258,393,352,249,104
41,14,-26,-28,33,-6,63,251,384,348,248,105
40,15,-24,-28,32,-4,61,244,375,343,246,105
38,16,-21,-28,29,-2,59,236,366,337,244,105
35,17,-17,-27,27,0,58,229,357,331,241,105
33,18,-14,-26,24,1,57,223,348,324,237,104
31,19,-12,-25,21,3,56,217,340,318,233,104
30,20,-10,-25,20,5,55,210,331,311,229,103
30,21,-9,-26,19,6,53,204,322,304,225,102
30,21,-8,-26,19,6,51,197,312,297,220,100
30,22,-8,-26,19,7,49,190,303,289,215,98
31,22,-8,-26,19,7,47,183,293,281,210,97
31,23,-7,-27,19,8,45,177,284,272,204,95
31,23,-7,-27,20,8,44,171,276,264,199,93
32,24,-7,-28,20,8,42,165,267,256,193,90
32,24,-8,-28,21,8,40,159,259,248,187,88
33,24,-8,-29,21,7,38,153,250,241,182,85
33,24,-9,-29,21,7,37,148,242,234,177,82
34,23,-9,-29,22,7,36,143,235,227,172,80
34,23,-10,-28,22,6,35,138,228,220,167,77
33,22,-10,-28,22,6,35,134,222,213,162,75
33,21,-11,-27,22,5,35,131,216,207,157,72
33,21,-11,-27,22,4,35,129,211,202,153,70
33,20,-12,-26,22,4,35,126,207,197,149,68
33,20,-12,-26,23,3,35,123,202,193,146,66
32,20,-12,-26,23,3,35,121,198,189,144,65
32,20,-12,-26,22,3,35,118,195,186,142,64
33,20,-12,-26,23,3,34,116,191,183,140,63
33,20,-13,-26,23,3,33,114,188,179,138,62
33,20,-12,-26,23,4,32,112,186,177,135,61
30,21,-9,-25,20,5,33,112,185,174,133,60
27,21,-5,-24,16,7,33,111,184,172,132,59
25,21,-3,-23,14,8,32,110,182,170,131,58
26,21,-4,-23,15,8,31,109,180,168,130,57
27,21,-5,-24,16,8,30,107,177,166,128,56
28,21,-5,-24,17,8,29,105,175,164,127,55
28,21,-6,-24,17,7,29,103,173,161,125,54
29,21,-6,-24,18,7,28,101,171,159,123,53
29,21,-7,-25,18,6,27,99,168,157,121,53
30,21,-8,-25,19,6,26,98,166,155,119,52
31,21,-9,-26,20,6,25,96,164,154,117,51
31,22,-9,-27,20,6,25,94,163,153,115,50
32,22,-10,-27,21,5,24,93,161,152,114,50
33,22,-11,-28,22,5,24,92,159,151,113,49
34,22,-11,-28,23,5,23,91,158,149,112,49
35,22,-12,-28,24,4,23,90,157,148,111,48
36,22,-13,-29,25,4,22,89,156,146,109,48
37,22,-14,-29,26,4,21,88,155,145,108,48
38,22,-15,-30,27,3,21,87,154,145,107,48
39,22,-16,-30,28,3,21,86,152,144,106,48
39,22,-17,-31,28,2,21,85,151,144,106,48
40,22,-18,-31,29,2,21,85,151,143,105,48
40,22,-18,-31,29,1,21,85,150,143,105,48
41,22,-19,-31,30,1,21,85,150,143,104,48
41,22,-19,-31,30,1,22,85,149,143,104,48
42,22,-20,-32,31,1,22,85,149,143,103,48
42,22,-20,-32,31,1,22,85,149,143,103,48
43,22,-21,-32,32,0,22,85,149,143,102,48
43,22,-21,-32,32,0,23,85,149,142,102,48
44,22,-22,-32,33,0,23,85,149,142,102,47
44,21,-22,-32,33,-1,24,85,149,142,101,47
44,21,-23,-32,33,-1,24,86,148,142,101,47
44,21,-23,-32,33,-1,25,86,148,142,101,46
44,21,-22,-32,33,-1,25,86,148,142,101,46
43,21,-22,-32,33,-1,26,87,148,142,101,46
42,21,-22,-31,33,-1,26,87,148,142,101,46
41,21,-21,-31,32,-1,27,88,148,142,101,47
41,21,-20,-30,31,0,27,88,149,143,102,47
40,21,-19,-30,30,0,28,89,149,144,103,48
39,21,-18,-30,29,1,28,89,149,145,104,48
38,21,-17,-29,27,2,28,89,149,145,105,49
37,21,-15,-29,26,3,29,89,149,145,105,49
36,21,-13,-29,25,4,29,89,149,146,106,49
35,22,-12,-29,24,5,29,89,148,146,106,50
34,23,-11,-29,23,6,29,89,148,146,107,50
34,24,-10,-29,22,7,29,89,147,146,107,51
34,25,-8,-29,21,8,30,89,147,146,108,51
34,26,-7,-29,20,9,30,88,146,147,108,51
34,27,-6,-30,20,10,30,88,146,147,109,51
33,27,-6,-30,19,11,30,86,145,146,109,51
33,27,-5,-30,19,11,31,85,144,146,109,51
33,28,-5,-30,19,11,31,84,143,145,108,51
33,28,-4,-31,18,11,32,83,142,145,108,51
33,29,-4,-31,18,12,32,83,141,145,108,51
32,29,-3,-31,17,12,33,84,143,145,108,51
32,29,-3,-30,17,13,35,88,147,147,107,49
31,29,-3,-30,17,13,36,94,153,152,107,47
31,29,-3,-29,17,13,38,101,162,159,109,46
31,29,-2,-30,17,13,39,108,171,168,113,47
31,30,-1,-30,16,14,39,112,180,179,121,50
31,32,1,-31,14,16,38,113,186,190,131,55
31,36,4,-33,13,20,35,111,190,200,142,62
31,40,8,-36,11,24,32,106,191,210,156,72
33,46,12,-39,10,29,27,102,194,223,176,87
35,52,16,-43,9,34,22,98,199,241,201,108
37,59,20,-48,8,39,16,94,207,264,233,133
41,66,23,-53,9,44,11,92,218,294,271,162
46,73,26,-59,10,49,5,92,233,333,317,196
52,80,27,-66,12,54,0,95,252,379,370,234
59,87,28,-73,15,57,-5,99,268,422,422,272
67,94,27,-80,19,60,-11,101,271,457,467,310
75,100,25,-87,25,62,-18,100,258,481,507,346
83,103,20,-92,31,61,-23,95,231,494,538,378
90,104,14,-96,38,59,-27,88,196,494,555,401
96,103,7,-99,45,55,-31,79,156,483,556,412
101,103,0,-102,51,51,-33,69,115,462,541,414
105,102,-4,-103,55,49,-35,58,71,424,508,405
107,102,-5,-104,56,48,-36,39,16,356,447,380
106,102,-4,-104,55,48,-37,10,-54,252,351,333
102,97,-4,-100,53,46,-36,-22,-133,119,227,267
95,88,-6,-92,51,40,-32,-58,-215,-28,87,187
87,76,-10,-81,49,32,-27,-92,-290,-168,-45,106
76,62,-14,-69,46,24,-19,-119,-346,-276,-146,38
64,46,-18,-55,42,14,-9,-138,-380,-343,-212,-12
51,29,-23,-39,37,3,3,-153,-396,-377,-250,-48
39,13,-26,-25,33,-6,12,-166,-396,-386,-265,-70
28,1,-27,-14,27,-12,17,-179,-388,-380,-266,-82
20,-4,-24,-7,21,-14,16,-192,-375,-365,-260,-90
13,-5,-17,-3,15,-11,11,-199,-354,-343,-250,-97
7,-2,-9,-2,8,-6,3,-200,-326,-315,-235,-103
3,2,-1,-2,3,0,-4,-194,-292,-282,-215,-104
1,7,6,-3,-1,6,-11,-183,-254,-245,-191,-100
0,12,12,-5,-5,12,-17,-168,-216,-208,-165,-93
-2,17,18,-6,-10,18,-20,-150,-177,-171,-140,-85
-4,21,25,-7,-15,23,-21,-129,-138,-135,-116,-77
-6,23,30,-8,-19,27,-20,-106,-98,-100,-92,-69
-8,23,32,-7,-21,28,-16,-81,-59,-67,-69,-62
-9,22,32,-6,-21,26,-9,-53,-21,-33,-47,-53
-9,20,29,-5,-19,24,-1,-24,15,-1,-24,-42
-9,18,27,-4,-18,22,6,3,49,29,-2,-30
-9,17,26,-4,-17,21,14,26,77,56,17,-19
-9,16,24,-3,-16,20,20,44,100,77,33,-10
-8,15,23,-3,-15,19,25,59,118,93,45,-3
-6,15,21,-4,-14,18,29,71,132,105,53,1
-5,15,20,-4,-13,17,32,80,144,114,59,5
-4,15,20,-5,-12,17,33,88,154,121,63,7
-4,16,20,-5,-12,18,34,95,162,127,67,9
-4,16,20,-5,-12,18,35,101,170,132,71,11
-5,16,20,-5,-12,18,36,106,176,137,74,12
-6,15,20,-4,-12,17,38,110,182,141,76,13
-7,13,20,-3,-13,16,39,114,188,144,77,14
-8,12,20,-1,-14,16,41,117,193,147,78,14
-9,11,20,0,-15,15,43,121,198,148,78,14
-11,10,21,0,-16,15,45,126,203,150,78,14
-12,10,22,1,-17,16,47,130,208,151,79,14
-14,10,23,2,-19,17,50,134,214,154,79,14
-15,10,25,3,-20,18,52,139,219,156,80,14
-17,10,27,3,-22,18,54,143,225,158,80,14
-20,9,29,5,-24,19,56,147,230,160,80,13
-28,8,36,10,-32,22,58,154,237,161,78,10
-36,10,47,13,-41,28,62,162,246,162,79,8
-41,11,52,15,-46,31,66,171,255,164,81,7
-43,9,52,17,-48,30,69,179,263,166,83,7
-44,8,52,19,-48,30,72,185,270,168,84,6
-46,7,53,20,-49,30,73,189,275,170,84,5
-47,6,53,21,-50,29,75,192,280,172,83,4
-48,4,52,22,-49,28,76,195,284,174,82,4
-48,1,50,23,-49,26,77,199,288,175,81,3
-49,-1,49,25,-49,24,78,203,293,176,79,3
-50,-3,47,27,-49,22,79,207,298,177,78,2
-52,-5,46,29,-49,20,80,212,303,178,78,2
-53,-7,45,31,-49,18,81,217,308,180,78,2
-55,-10,44,33,-49,16,82,221,312,182,79,2
-56,-13,43,35,-49,15,83,224,316,184,80,2
-58,-15,43,37,-50,13,83,227,320,188,82,3
-60,-18,42,39,-50,12,83,230,323,191,86,4
-62,-20,42,41,-51,11,83,233,326,194,89,7
-64,-21,42,43,-53,10,83,236,328,197,93,9
-66,-22,42,45,-54,9,83,239,331,201,98,13
-67,-23,43,46,-55,9,82,242,334,206,103,17
-68,-24,43,47,-55,8,81,243,336,211,109,21
-69,-26,42,48,-55,7,80,244,338,217,116,26
-69,-27,42,48,-55,7,79,244,339,224,123,31
-68,-28,41,48,-54,6,77,244,340,230,131,37
-68,-28,40,48,-54,6,75,242,340,236,139,43
-67,-28,40,48,-53,5,73,240,339,241,146,49
-67,-28,39,48,-53,5,71,238,338,246,153,55
-67,-28,39,48,-52,4,69,236,337,251,160,61
-66,-28,38,47,-52,5,67,233,336,256,166,67
-66,-27,39,47,-52,5,65,229,333,261,173,72
-65,-26,39,46,-51,6,63,225,330,265,180,78
-65,-26,39,45,-51,7,61,220,326,269,186,83
-64,-25,40,44,-51,7,59,215,322,272,192,88
-64,-24,40,43,-51,8,57,210,317,274,197,94
-63,-22,40,43,-51,9,54,206,312,275,201,98
-62,-21,41,42,-51,10,51,201,307,276,204,102
-62,-19,42,40,-51,11,49,196,302,276,206,106
-61,-17,43,39,-51,13,46,190,295,276,208,108
-60,-16,44,37,-51,14,44,184,288,275,209,110
-59,-14,45,36,-51,15,41,177,280,272,209,112
-58,-13,45,35,-51,16,38,171,272,269,209,113
-57,-11,45,34,-50,16,35,164,264,264,207,113
-55,-10,45,33,-50,17,32,157,255,258,204,113
-54,-8,45,31,-50,18,28,151,246,252,200,113
-53,-7,45,30,-49,19,25,145,238,245,195,112
-52,-6,45,30,-48,19,23,139,229,238,190,111
-51,-6,45,29,-48,20,20,132,220,231,185,109
-50,-5,45,28,-47,20,17,126,211,224,180,106
-50,-5,45,27,-47,20,15,119,202,217,176,104
-49,-5,44,26,-46,20,13,113,193,208,171,102
-48,-5,44,26,-46,19,12,108,185,199,165,100
-47,-5,43,26,-45,19,10,103,178,191,159,97
-46,-5,42,25,-45,19,9,99,171,183,153,95
-46,-5,41,25,-44,18,9,95,164,176,147,92
-45,-5,41,25,-43,18,8,90,157,170,141,90
-45,-5,40,25,-42,17,8,86,150,163,135,87
-45,-6,39,25,-41,16,8,81,142,156,129,84
-44,-7,37,26,-40,15,8,77,135,149,124,81
-44,-9,36,26,-40,13,8,73,129,142,119,78
-45,-10,36,27,-40,13,8,70,124,135,114,76
-45,-10,35,28,-40,12,8,67,119,129,109,74
-46,-11,35,28,-40,12,9,64,115,124,104,72
-47,-12,35,29,-40,11,10,62,111,119,100,70
-48,-12,34,30,-41,11,11,59,107,116,97,67
-48,-13,34,31,-41,10,11,57,103,112,93,65
-48,-15,33,31,-40,9,12,55,99,108,91,63
-48,-17,32,32,-40,7,13,53,96,104,88,62
-49,-19,31,33,-40,6,13,51,93,100,85,60
-50,-20,30,35,-39,5,14,50,91,96,83,59
-51,-21,29,36,-40,4,14,50,89,93,80,58
-51,-21,29,36,-40,3,15,49,87,91,78,57
-52,-22,28,37,-40,3,15,48,85,90,76,56
-52,-23,28,37,-40,2,15,46,83,88,75,54
-53,-24,28,38,-40,2,15,44,81,86,73,53
-54,-25,29,39,-41,2,15,42,79,84,72,53
-55,-26,29,40,-42,1,16,41,77,82,71,52
-56,-27,29,41,-42,1,16,41,76,80,70,52
-57,-27,29,42,-43,1,16,41,76,78,68,51
-58,-27,30,42,-43,1,16,40,75,77,67,51
-59,-28,30,43,-44,1,16,40,74,77,66,50
-60,-28,31,43,-44,1,16,40,73,77,65,49
-60,-29,31,44,-45,1,17,39,72,76,64,48
-61,-29,31,44,-45,0,17,39,71,75,64,48
-61,-30,31,45,-46,0,17,38,70,74,63,47
-62,-31,31,46,-46,0,17,38,70,73,63,47
-63,-31,32,47,-47,0,18,38,70,72,62,46
-64,-32,32,48,-48,0,18,38,69,71,61,46
-65,-32,33,49,-49,0,19,38,69,71,60,45
-67,-33,33,50,-50,0,19,37,69,71,60,44
-68,-34,34,51,-50,0,20,37,68,71,59,43
-68,-34,34,51,-51,0,21,37,68,70,59,43
-69,-35,34,52,-51,0,22,37,67,70,59,43
-69,-35,34,52,-51,0,23,37,67,69,59,43
-69,-36,33,52,-51,-1,23,37,67,69,58,43
-70,-36,33,53,-51,-1,24,37,67,69,58,42
-71,-37,34,53,-52,-1,25,38,67,69,57,42
-72,-37,35,54,-53,-1,26,38,67,69,57,42
-73,-37,36,54,-54,0,27,39,67,69,57,42
-73,-37,36,55,-55,0,28,39,67,69,57,41
-74,-37,36,55,-55,0,28,39,67,69,57,41
-74,-37,36,55,-55,0,29,40,67,69,57,41
-73,-37,36,55,-55,0,29,40,68,69,57,41
-73,-37,36,55,-54,0,29,40,68,69,57,41
-72,-37,35,54,-54,-1,29,40,68,69,57,40
-72,-37,35,54,-53,-1,29,40,67,69,56,40
-71,-37,34,53,-52,-1,28,40,67,69,56,39
-70,-37,33,53,-51,-2,28,40,66,69,56,39
-70,-36,33,52,-51,-2,28,39,66,69,56,38
-70,-36,34,52,-51,-1,28,39,65,69,55,38
-70,-35,35,52,-52,0,28,38,65,69,55,37
-71,-34,36,53,-54,1,29,38,65,69,54,37
-72,-34,38,53,-55,2,29,37,65,68,53,36
-73,-34,40,53,-57,3,30,36,64,68,53,36
-74,-32,42,53,-58,5,30,35,64,68,53,35
-75,-31,45,53,-60,7,30,35,63,68,53,35
-76,-29,47,53,-61,8,29,35,63,69,53,35
-77,-28,49,52,-62,10,28,34,63,69,54,36
-77,-27,51,52,-63,11,27,33,62,69,54,36
-78,-25,52,51,-64,13,25,32,62,69,54,36
-78,-24,54,51,-65,14,24,30,61,69,54,36
-78,-23,55,51,-65,15,23,29,60,69,54,35
-77,-22,55,50,-66,16,22,29,60,69,54,35
-77,-22,55,49,-66,16,22,29,60,69,53,34
-76,-21,55,48,-65,16,22,30,61,69,52,32
-75,-21,54,48,-64,16,22,35,66,72,51,29
-74,-22,52,47,-63,15,22,42,74,77,51,27
-73,-22,51,47,-62,15,23,50,84,84,53,25
-71,-21,50,46,-61,15,22,56,93,94,58,26
-70,-19,51,45,-60,16,21,60,101,106,67,30
-69,-16,52,43,-60,18,19,61,106,116,78,36
-68,-12,55,40,-61,21,16,58,108,126,91,44
-66,-8,57,37,-62,24,12,54,111,138,108,56
-63,-3,59,33,-62,28,7,49,114,154,131,75
-60,2,62,29,-61,32,0,44,119,173,159,97
-57,8,64,24,-61,36,-6,39,126,197,192,123
-52,14,65,19,-59,40,-13,37,137,231,234,155
-46,19,65,13,-56,43,-19,37,153,272,284,192
-39,25,64,6,-51,45,-25,41,167,314,335,229
-31,30,61,0,-46,46,-30,43,171,347,379,264
-22,35,58,-6,-40,46,-36,42,159,369,417,297
-14,37,52,-12,-33,44,-42,37,133,380,448,328
-6,38,45,-16,-25,41,-47,29,97,380,467,352
1,37,36,-19,-18,37,-51,21,57,369,472,366
7,37,29,-22,-11,34,-54,11,17,350,463,371
12,36,23,-24,-5,31,-57,0,-24,321,440,367
15,36,21,-26,-2,29,-59,-17,-74,270,395,352
16,37,21,-26,-2,29,-60,-43,-136,185,317,317
13,35,22,-24,-4,28,-60,-75,-208,69,207,260
7,27,20,-17,-6,23,-57,-109,-286,-68,76,186
-1,13,15,-6,-7,14,-53,-141,-361,-209,-59,105
-10,-2,8,6,-9,3,-47,-168,-420,-326,-171,33
-21,-18,3,20,-12,-7,-38,-186,-458,-405,-249,-23
-34,-36,-2,35,-15,-19,-27,-201,-477,-448,-295,-64
-46,-52,-6,50,-19,-29,-17,-216,-482,-464,-318,-91
-57,-64,-7,61,-24,-36,-12,-231,-476,-462,-323,-107
-65,-71,-5,68,-30,-38,-11,-244,-464,-449,-318,-116
-72,-72,0,72,-36,-36,-15,-253,-444,-428,-309,-124
-78,-70,8,74,-43,-31,-20,-255,-416,-400,-295,-131
-82,-65,17,74,-50,-24,-27,-249,-382,-368,-278,-135
-85,-60,26,73,-56,-17,-34,-238,-345,-332,-256,-134
-87,-54,33,71,-61,-10,-40,-223,-307,-294,-232,-128
-89,-49,40,70,-65,-4,-44,-205,-267,-257,-206,-119
-90,-44,47,68,-69,1,-45,-184,-227,-220,-181,-110
-92,-41,52,67,-72,5,-43,-162,-186,-184,-156,-102
-94,-41,54,68,-74,6,-39,-138,-146,-149,-132,-95
-95,-42,54,69,-75,5,-33,-111,-108,-115,-109,-86
-95,-45,51,69,-73,3,-25,-83,-70,-82,-86,-76
-95,-46,48,70,-72,1,-17,-56,-36,-51,-64,-64
-94,-47,47,71,-71,0,-11,-33,-6,-24,-44,-53
-94,-48,45,71,-70,-1,-5,-14,17,-2,-27,-43
-94,-49,44,72,-69,-2,0,0,36,14,-14,-36
-93,-50,42,72,-68,-4,4,11,50,28,-4,-30
-92,-51,41,71,-67,-5,8,20,62,38,2,-26
-91,-51,40,71,-66,-5,11,28,72,46,7,-24
-91,-51,39,70,-65,-6,13,34,81,53,11,-22
-90,-51,39,70,-64,-6,14,40,88,58,14,-20
-90,-51,38,70,-64,-5,15,45,95,63,17,-19
-90,-50,38,70,-64,-5,16,49,101,67,20,-18
-89,-50,38,70,-64,-6,17,54,107,71,22,-17
-89,-50,38,70,-64,-6,19,58,113,74,24,-17
-89,-50,38,70,-64,-6,21,63,119,76,26,-16
-90,-50,39,70,-64,-5,23,69,125,79,27,-16
-90,-50,39,70,-64,-5,25,74,131,82,28,-15
-91,-50,40,70,-65,-4,27,80,137,85,30,-15
-91,-49,41,70,-66,-3,29,85,143,88,31,-14
-92,-49,42,70,-67,-3,32,90,149,91,33,-14
-92,-49,43,70,-68,-2,34,95,155,94,34,-13
-93,-48,44,70,-68,-2,37,101,161,96,34,-13
-93,-48,44,70,-69,-1,39,106,167,98,35,-12
-94,-48,45,71,-69,-1,41,111,174,100,35,-12
-95,-48,47,71,-70,0,42,117,180,102,35,-12
-97,-48,49,72,-72,1,43,122,187,104,35,-12
-98,-48,51,73,-74,2,44,127,194,105,35,-12
-100,-48,52,74,-76,2,46,132,200,107,35,-13
-103,-48,54,75,-78,2,48,137,206,109,35,-14
-105,-49,55,76,-80,2,50,143,212,111,34,-15
-107,-49,56,78,-81,2,52,149,217,112,34,-16
-109,-50,58,79,-83,3,54,154,223,114,33,-16
-111,-51,59,81,-85,3,56,160,228,115,33,-17
-113,-52,60,82,-86,4,58,164,233,116,33,-18
-113,-53,60,83,-86,3,59,168,237,117,33,-19
-111,-54,57,82,-84,2,59,171,240,118,33,-20
-105,-54,51,80,-78,-1,59,172,242,118,32,-22
-97,-55,41,76,-69,-6,57,172,242,117,30,-24
-87,-55,31,71,-59,-12,55,173,242,117,30,-26
-77,-56,21,67,-49,-18,53,173,243,117,30,-27
-68,-56,11,62,-39,-23,51,173,243,117,30,-28
-59,-57,1,58,-30,-27,48,172,242,117,30,-28
-50,-57,-7,53,-21,-32,45,171,240,117,31,-28
-43,-57,-14,50,-14,-36,42,170,239,118,33,-28
-36,-57,-21,47,-7,-39,39,169,237,120,36,-27
-31,-57,-26,44,-2,-42,37,167,236,122,40,-25
-26,-56,-31,41,3,-44,36,165,234,125,44,-22
-21,-56,-36,39,7,-46,34,162,232,127,49,-20
-16,-55,-39,36,11,-47,32,159,230,130,53,-17
-12,-55,-42,34,15,-48,30,155,227,132,56,-13
-8,-54,-45,31,18,-49,26,151,224,135,60,-10
-5,-53,-46,29,20,-49,22,146,220,137,64,-7
-3,-51,-48,27,22,-49,19,142,216,140,68,-4
0,-49,-49,25,24,-49,15,137,212,142,72,0
2,-47,-50,23,26,-49,12,132,207,144,77,3
4,-46,-51,21,28,-49,9,128,202,146,81,6
7,-44,-53,18,30,-49,6,123,197,147,84,9
10,-43,-54,16,32,-48,2,118,192,147,86,12
13,-41,-55,13,34,-48,-1,113,186,146,87,14
15,-39,-55,11,35,-47,-6,107,179,145,87,16
18,-37,-55,9,36,-46,-10,101,172,144,88,17
20,-35,-56,7,37,-46,-15,94,165,141,88,18
22,-33,-56,6,39,-45,-20,87,157,138,87,19
24,-32,-57,4,40,-44,-24,80,148,133,85,19
26,-30,-57,2,42,-44,-27,73,139,127,81,18
28,-29,-58,0,43,-43,-31,66,130,121,77,17
30,-28,-58,-1,45,-43,-34,58,120,113,72,15
32,-27,-58,-2,46,-43,-37,51,111,106,66,13
33,-26,-59,-3,46,-42,-40,44,101,98,61,10
34,-25,-60,-4,47,-42,-42,36,92,91,56,7
35,-25,-60,-5,48,-42,-44,29,83,83,50,4
36,-24,-61,-6,49,-42,-46,22,74,74,45,1
38,-24,-62,-7,50,-42,-47,15,65,66,39,-1
39,-23,-63,-8,51,-43,-49,9,57,58,33,-4
41,-23,-64,-9,52,-43,-50,4,49,50,27,-6
42,-23,-64,-10,53,-43,-52,-2,41,42,21,-9
43,-22,-64,-11,54,-43,-53,-7,34,36,16,-12
43,-21,-64,-11,54,-43,-54,-12,27,30,12,-15
44,-20,-65,-11,55,-43,-55,-17,21,24,9,-17
44,-20,-65,-12,55,-43,-55,-21,15,18,5,-19
45,-20,-65,-12,55,-43,-55,-25,10,12,1,-21
45,-20,-65,-13,55,-43,-54,-28,5,7,-2,-23
45,-20,-65,-13,55,-43,-54,-31,0,1,-7,-25
44,-20,-65,-12,55,-43,-54,-34,-5,-3,-11,-28
44,-21,-65,-12,55,-43,-54,-37,-9,-8,-16,-31
44,-21,-66,-11,55,-43,-54,-40,-13,-11,-19,-34
44,-22,-66,-11,55,-43,-54,-43,-17,-15,-22,-36
44,-22,-67,-10,55,-44,-53,-45,-20,-19,-24,-38
44,-23,-67,-10,56,-45,-53,-47,-24,-23,-27,-40
44,-24,-68,-10,56,-46,-53,-49,-27,-26,-30,-42
45,-25,-69,-10,57,-47,-52,-50,-29,-30,-32,-43
45,-25,-70,-10,57,-48,-52,-50,-31,-33,-35,-44
45,-25,-70,-10,58,-48,-51,-51,-33,-35,-37,-46
45,-25,-71,-10,58,-49,-51,-51,-34,-36,-38,-47
46,-26,-72,-10,59,-49,-50,-52,-35,-37,-39,-48
46,-26,-72,-10,59,-50,-48,-52,-36,-38,-39,-48
46,-26,-72,-10,60,-50,-47,-52,-36,-39,-39,-48
46,-26,-72,-10,60,-50,-46,-52,-37,-40,-40,-48
46,-26,-72,-10,60,-50,-45,-52,-37,-41,-40,-48
46,-25,-72,-10,60,-49,-44,-51,-37,-41,-41,-47
47,-25,-72,-11,60,-49,-44,-51,-37,-41,-41,-47
47,-24,-71,-11,60,-48,-43,-50,-37,-41,-41,-47
46,-24,-71,-11,59,-48,-43,-49,-36,-41,-41,-46
45,-24,-70,-10,58,-47,-42,-48,-36,-40,-40,-45
43,-24,-68,-9,56,-47,-41,-47,-36,-40,-39,-44
41,-25,-66,-8,54,-46,-40,-46,-35,-39,-38,-43
39,-25,-64,-6,52,-46,-39,-45,-34,-38,-37,-42
37,-26,-63,-5,50,-45,-38,-43,-33,-38,-37,-41
35,-26,-62,-4,48,-45,-37,-42,-33,-37,-36,-40
34,-26,-61,-3,48,-44,-36,-41,-32,-36,-36,-39
34,-26,-60,-3,48,-44,-35,-39,-32,-35,-36,-39
34,-26,-60,-3,48,-43,-35,-38,-31,-34,-35,-38
34,-26,-60,-4,48,-43,-34,-36,-29,-33,-35,-38
35,-26,-61,-4,48,-43,-32,-31,-24,-31,-35,-39
35,-26,-61,-5,49,-44,-30,-25,-18,-28,-35,-41
36,-25,-62,-5,49,-44,-28,-18,-11,-24,-35,-42
37,-25,-62,-5,50,-44,-27,-14,-5,-19,-33,-42
38,-24,-62,-7,50,-43,-28,-12,0,-13,-28,-40
39,-22,-60,-8,50,-41,-29,-12,3,-5,-21,-36
40,-18,-58,-11,49,-38,-31,-16,4,1,-11,-30
41,-14,-55,-13,49,-34,-33,-22,2,8,0,-21
43,-9,-52,-17,48,-31,-37,-29,2,17,17,-8
45,-4,-50,-20,48,-27,-40,-35,4,30,40,10
49,0,-48,-24,49,-24,-44,-40,8,48,67,31
52,6,-46,-29,49,-20,-49,-43,16,72,98,53
56,12,-43,-34,49,-16,-53,-44,30,104,134,79
61,19,-41,-40,51,-12,-56,-40,47,144,177,107
66,26,-40,-46,53,-7,-60,-34,62,186,221,138
73,33,-40,-53,56,-3,-64,-29,67,223,264,169
80,40,-40,-60,61,0,-69,-26,60,254,304,202
89,45,-43,-67,67,1,-75,-24,45,280,341,234
98,48,-49,-73,74,0,-79,-19,27,302,369,261
107,51,-56,-79,82,-2,-84,-14,8,316,382,279
116,53,-62,-84,89,-4,-87,-12,-15,318,380,287
123,54,-68,-89,96,-6,-90,-17,-47,303,362,287
129,55,-74,-92,102,-9,-92,-28,-92,259,322,275
132,56,-77,-94,105,-10,-93,-49,-156,172,247,245
132,54,-78,-93,106,-11,-93,-80,-240,43,137,193
129,49,-81,-89,106,-16,-93,-116,-331,-111,8,127
125,37,-87,-81,107,-25,-90,-147,-413,-263,-118,58
118,22,-95,-70,107,-37,-82,-171,-475,-386,-222,-4
109,7,-100,-58,105,-47,-71,-191,-515,-466,-294,-53
97,-7,-104,-45,101,-56,-61,-212,-536,-509,-338,-90
85,-21,-106,-32,96,-63,-52,-232,-542,-524,-357,-114
75,-30,-105,-23,91,-67,-46,-250,-536,-519,-359,-126
66,-32,-99,-17,83,-65,-46,-268,-521,-503,-353,-134
58,-28,-87,-15,73,-58,-49,-280,-498,-480,-344,-143
49,-22,-71,-14,61,-47,-53,-284,-466,-451,-332,-153
42,-14,-56,-14,49,-36,-57,-279,-428,-417,-315,-159
35,-7,-41,-14,38,-24,-61,-269,-386,-378,-292,-158
30,0,-28,-15,29,-14,-63,-254,-343,-339,-267,-152
24,7,-16,-15,20,-4,-63,-236,-299,-299,-241,-144
19,12,-6,-15,13,3,-62,-214,-256,-260,-215,-136
13,14,1,-14,7,7,-57,-188,-213,-223,-191,-130
9,15,5,-12,3,9,-50,-157,-170,-187,-167,-123
7,13,5,-10,2,8,-42,-126,-130,-153,-144,-114
7,11,3,-9,2,6,-34,-96,-92,-120,-121,-103
8,10,1,-9,4,5,-28,-71,-60,-91,-99,-91
10,9,-1,-9,6,4,-23,-50,-33,-67,-81,-81
13,9,-4,-10,9,2,-20,-34,-12,-48,-66,-73
15,8,-6,-11,11,1,-18,-22,3,-33,-56,-67
17,8,-9,-13,14,0,-17,-12,16,-22,-48,-63
20,9,-11,-14,16,-1,-16,-4,26,-14,-43,-60
22,9,-12,-16,17,-1,-15,2,35,-7,-39,-57
23,10,-13,-17,18,-1,-14,8,43,-2,-35,-55
24,12,-12,-18,19,-1,-13,14,50,3,-32,-54
25,13,-12,-18,19,0,-12,19,56,7,-30,-53
24,13,-11,-18,18,0,-11,23,62,11,-28,-52
23,13,-10,-18,17,1,-10,28,67,15,-26,-51
22,13,-10,-18,16,1,-9,33,73,19,-25,-51
22,12,-10,-17,16,1,-7,38,78,22,-24,-51
21,12,-10,-17,16,1,-6,43,84,24,-24,-51
21,12,-10,-17,16,1,-4,48,89,26,-23,-52
20,12,-9,-16,16,1,-3,53,95,28,-23,-52
20,11,-8,-16,15,1,-2,57,101,30,-22,-53
20,11,-8,-16,15,0,-1,61,107,32,-22,-54
21,10,-9,-15,15,0,0,66,112,34,-23,-55
21,10,-10,-15,16,0,2,70,117,36,-23,-56
21,9,-12,-15,16,-1,4,75,123,37,-24,-57
21,9,-12,-15,17,-2,6,80,128,38,-25,-59
21,9,-12,-15,17,-2,8,85,133,39,-26,-60
21,9,-12,-15,18,-2,11,89,138,40,-27,-61
21,8,-12,-15,18,-3,13,94,144,41,-27,-62
21,8,-12,-14,17,-3,16,99,150,43,-28,-63
20,8,-12,-14,17,-3,18,103,155,44,-28,-64
20,8,-12,-14,16,-2,21,108,159,46,-28,-65
20,7,-12,-14,16,-2,23,112,164,47,-28,-65
20,7,-13,-13,16,-3,25,117,168,49,-28,-66
19,6,-13,-13,16,-3,27,121,173,50,-28,-66
19,6,-13,-12,16,-4,29,125,177,52,-27,-65
19,5,-13,-12,17,-4,31,128,181,54,-25,-65
19,5,-14,-12,17,-5,32,130,184,57,-24,-64
20,4,-16,-12,18,-6,32,131,186,59,-22,-63
21,4,-17,-12,19,-6,33,133,188,62,-19,-62
22,4,-18,-13,20,-7,33,134,189,66,-16,-59
23,4,-19,-14,21,-7,34,136,191,70,-12,-56
24,5,-20,-15,22,-7,34,137,193,74,-7,-53
26,5,-20,-16,23,-7,34,138,195,78,-2,-49
27,6,-21,-17,24,-8,33,138,196,82,3,-45
28,7,-22,-17,25,-8,33,137,197,86,8,-41
29,7,-22,-18,26,-8,32,136,197,90,14,-36
30,8,-22,-19,26,-7,31,134,197,95,20,-32
30,9,-22,-19,26,-7,30,133,196,100,26,-27
31,9,-22,-20,27,-6,29,132,195,104,31,-22
31,10,-21,-21,27,-6,27,130,194,109,37,-16
31,11,-20,-21,26,-5,26,128,193,114,43,-10
31,12,-19,-22,26,-4,24,126,192,118,49,-4
31,13,-18,-22,25,-2,22,124,190,122,55,0
31,14,-16,-22,23,-1,21,121,188,126,61,5
30,16,-13,-23,22,1,19,118,185,129,66,10
30,18,-11,-23,20,3,17,115,182,132,71,15
29,19,-10,-24,19,4,15,112,178,135,76,20
29,20,-8,-24,19,6,14,109,173,136,79,24
29,21,-7,-25,18,7,12,106,169,137,82,28
29,22,-6,-25,18,8,11,102,163,136,83,31
28,23,-4,-25,17,9,10,98,157,135,84,33
28,24,-3,-25,15,10,9,94,151,132,84,35
27,25,-2,-25,14,11,9,89,144,129,84,36
26,25,0,-25,12,12,8,84,136,125,82,37
24,26,1,-25,11,13,7,79,128,120,80,38
22,27,4,-25,9,14,6,74,120,114,77,38
20,26,5,-24,8,15,5,69,112,108,73,38
19,26,6,-23,6,16,4,64,104,102,69,38
18,25,7,-22,5,16,4,58,96,95,65,37
17,25,8,-21,5,16,3,52,88,88,61,35
17,24,8,-20,4,16,2,46,79,81,56,33
16,24,8,-20,4,15,1,40,71,74,52,31
16,23,8,-19,4,15,0,35,63,68,48,29
15,23,8,-19,3,15,0,30,56,61,43,27
13,23,8,-18,2,15,-1,26,50,55,38,26
11,22,9,-17,1,15,-1,23,44,50,34,25
9,22,11,-15,0,16,-1,20,39,45,31,24
7,21,13,-14,-2,16,-1,17,35,40,28,23
5,20,15,-12,-4,17,-1,14,30,36,26,21
2,20,17,-10,-7,18,-1,12,26,32,23,20
-2,19,20,-8,-10,19,-1,10,23,29,21,19
-6,18,23,-6,-14,20,-1,9,20,26,19,18
-10,17,27,-4,-18,22,0,7,17,23,16,18
-14,17,30,-1,-22,23,0,6,15,20,14,17
-18,16,34,1,-26,24,1,5,13,17,12,17
-22,16,37,3,-29,26,2,4,11,15,11,16
-25,16,40,5,-32,27,3,2,9,13,10,15
-27,16,43,6,-35,29,3,1,7,11,9,14
-29,16,45,7,-37,30,3,0,6,10,8,13
-31,16,47,7,-40,32,2,-1,5,9,7,12
-33,16,49,7,-41,33,2,-2,4,8,6,12
-34,17,51,8,-43,34,1,-3,3,7,6,12
-34,17,52,8,-43,34,1,-4,3,7,6,12
-35,18,52,8,-43,35,0,-5,3,6,6,12
-35,18,53,8,-44,35,0,-5,2,6,6,12
-35,19,53,8,-44,36,-1,-6,2,6,6,13
-35,20,54,8,-44,36,-1,-7,2,6,7,13
-34,20,54,7,-44,37,-2,-7,2,6,7,13
-33,21,54,7,-44,37,-2,-7,2,6,7,13
-33,21,54,6,-43,37,-3,-7,2,6,7,13
-32,21,54,5,-43,37,-4,-7,2,6,7,13
-32,22,54,4,-43,38,-5,-7,2,7,7,13
-31,23,54,4,-43,38,-5,-7,2,7,7,13
-31,24,55,4,-43,39,-5,-7,2,7,7,13
-31,24,55,4,-43,39,-5,-7,2,8,7,13
-32,24,56,4,-44,40,-5,-7,2,8,8,13
-34,24,58,4,-46,41,-5,-6,3,9,8,13
-36,25,61,5,-49,43,-5,-6,3,10,9,14
-38,25,64,5,-51,44,-5,-5,4,11,10,15
-40,26,66,6,-53,46,-5,-5,5,13,12,16
-42,26,68,7,-55,47,-4,-4,5,14,13,17
-43,27,70,8,-57,48,-4,-4,6,14,14,18
-44,27,70,9,-57,48,-4,-4,6,15,14,18
-44,27,70,9,-57,48,-3,-4,6,15,14,18
-44,26,70,9,-57,48,-3,-4,6,15,14,18
-43,26,69,9,-56,47,-3,-4,6,15,14,17
-42,25,67,8,-55,45,-4,-5,5,15,13,17
-41,25,65,8,-53,44,-4,-5,4,14,12,16
-39,24,62,7,-50,43,-5,-6,3,13,11,15
-36,24,60,6,-48,41,-5,-7,2,12,10,14
-34,24,57,6,-46,40,-6,-7,0,11,10,13
-32,24,55,5,-44,39,-6,-8,0,10,9,12
-31,23,54,4,-43,38,-7,-9,-1,9,9,12
-30,23,53,4,-42,37,-7,-11,-2,9,8,11
-30,22,52,4,-41,37,-7,-12,-3,9,8,11
-29,22,51,4,-40,36,-7,-13,-4,9,8,11
-29,21,50,4,-40,35,-7,-14,-5,8,7,11
-28,21,49,4,-39,34,-6,-15,-6,8,6,11
-28,20,48,4,-38,34,-6,-16,-7,7,5,10
-27,20,46,4,-37,33,-5,-17,-8,6,5,9
-26,20,46,3,-36,33,-5,-18,-9,5,4,8
-25,20,45,3,-35,32,-5,-20,-10,4,3,8
-25,20,44,2,-34,32,-5,-21,-11,3,2,7
-24,20,43,2,-33,31,-5,-22,-12,2,1,7
-23,20,42,1,-32,31,-5,-23,-14,1,0,6
-21,20,40,1,-31,30,-5,-24,-15,0,-1,5
-20,19,39,0,-29,29,-6,-25,-17,-1,-2,5
-19,19,37,0,-28,28,-6,-26,-18,-2,-3,4
-19,19,37,0,-28,27,-6,-27,-19,-3,-4,4
-20,19,37,0,-29,27,-6,-28,-20,-3,-5,3
-21,18,38,1,-30,28,-6,-29,-20,-3,-5,3
-22,18,40,2,-31,28,-6,-29,-21,-3,-6,3
-24,18,42,3,-33,29,-6,-29,-21,-4,-6,3
-26,18,43,4,-34,29,-5,-29,-22,-4,-7,3
-27,17,44,5,-35,30,-5,-30,-23,-5,-8,3
-28,17,45,5,-36,30,-5,-30,-24,-6,-8,2
-29,17,45,5,-37,30,-5,-30,-24,-7,-9,2
-29,17,46,5,-37,30,-4,-30,-25,-7,-9,2
-29,17,46,6,-38,31,-4,-31,-25,-7,-9,2
-29,17,47,6,-38,31,-4,-31,-26,-8,-9,2
-29,17,47,6,-38,31,-4,-31,-27,-8,-10,2
-29,17,47,6,-38,31,-4,-31,-27,-9,-10,1
-29,17,46,6,-38,31,-4,-31,-28,-9,-10,1
-29,17,46,5,-37,31,-4,-31,-28,-10,-10,0
-28,18,45,5,-37,31,-4,-31,-28,-10,-11,0
-28,18,45,5,-36,30,-4,-31,-29,-10,-11,0
-27,17,44,5,-35,30,-4,-31,-29,-10,-11,0
-27,17,43,5,-35,29,-4,-31,-29,-10,-11,0
-26,17,43,4,-34,29,-4,-31,-30,-10,-12,0
-26,17,42,4,-34,29,-4,-31,-30,-11,-12,-1
-25,16,42,4,-34,29,-4,-31,-31,-11,-13,-1
-25,16,42,4,-34,29,-4,-31,-31,-12,-13,-2
-26,16,42,5,-34,29,-4,-32,-32,-12,-14,-3
-26,16,43,5,-35,29,-4,-32,-32,-13,-14,-3
-27,16,43,6,-35,29,-4,-32,-33,-13,-15,-4
-28,16,44,6,-36,29,-4,-32,-33,-13,-15,-4
-29,15,44,7,-36,29,-4,-32,-33,-13,-15,-5
-29,14,43,7,-36,28,-3,-30,-32,-13,-16,-6
-30,13,43,8,-36,28,-1,-27,-30,-13,-18,-9
-31,11,42,10,-37,27,1,-21,-25,-13,-22,-14
-32,9,42,12,-37,25,4,-13,-19,-12,-26,-20
-33,6,41,13,-37,23,7,-5,-13,-10,-28,-25
-34,5,40,14,-37,22,9,1,-6,-6,-29,-28
-35,4,39,15,-37,21,11,7,0,-1,-28,-29
-35,4,39,15,-37,21,12,9,5,6,-24,-29
-34,6,40,14,-38,23,11,9,8,13,-19,-27
-34,8,42,13,-38,24,10,7,10,21,-11,-22
-32,12,44,10,-38,27,8,5,14,31,2,-12
-30,17,47,7,-38,31,5,3,19,45,21,3
-27,22,49,2,-38,35,1,2,27,64,46,23
-24,28,52,-2,-37,40,-2,3,39,88,77,48
-19,35,54,-7,-36,44,-6,4,53,120,118,81
-13,42,55,-14,-34,48,-11,7,71,159,169,122
-6,49,56,-21,-31,52,-16,11,86,198,223,166
1,56,55,-28,-28,55,-21,12,91,232,273,209
8,62,54,-35,-23,57,-26,10,80,258,319,251
16,68,52,-42,-17,59,-32,2,57,277,361,291
23,72,49,-48,-12,59,-40,-10,23,286,392,324
30,74,45,-52,-7,59,-47,-25,-15,284,407,344
35,77,42,-56,-3,59,-51,-38,-51,273,404,352
38,80,42,-59,-2,61,-54,-50,-88,246,380,346
39,82,43,-60,-2,62,-55,-65,-133,191,324,319
37,80,42,-58,-3,61,-55,-86,-189,104,233,269
32,71,38,-51,-3,54,-52,-111,-255,-11,115,198
25,58,33,-41,-3,45,-48,-141,-328,-147,-22,113
16,44,28,-30,-4,35,-43,-170,-396,-278,-152,30
7,29,22,-18,-6,25,-36,-192,-446,-377,-249,-35
-2,15,18,-6,-9,16,-26,-206,-474,-439,-310,-81
-12,1,14,6,-12,7,-15,-215,-486,-470,-343,-111
-21,-9,11,16,-16,1,-8,-227,-488,-480,-355,-128
-28,-15,12,22,-21,-2,-6,-242,-485,-476,-356,-137
-34,-18,15,26,-25,-2,-9,-256,-476,-464,-350,-144
-39,-17,21,28,-30,1,-15,-267,-461,-446,-341,-152
-42,-14,29,28,-35,7,-22,-271,-438,-422,-328,-157
-44,-9,36,27,-40,13,-31,-270,-410,-392,-310,-157
-45,-4,42,25,-43,19,-39,-263,-377,-360,-287,-152
-45,1,46,22,-45,23,-46,-252,-343,-326,-263,-144
-44,5,50,20,-46,27,-50,-237,-307,-290,-238,-134
-44,10,53,17,-48,31,-52,-216,-268,-254,-213,-125
-43,12,54,16,-49,33,-51,-191,-228,-218,-188,-115
-42,13,54,15,-48,33,-48,-164,-188,-183,-163,-106
-41,12,52,14,-46,32,-43,-136,-150,-148,-138,-94
-39,12,51,13,-44,31,-36,-108,-112,-116,-114,-81
-37,13,51,12,-43,32,-29,-82,-79,-86,-92,-69
-35,14,50,11,-42,31,-23,-60,-51,-62,-74,-58
-33,14,48,10,-40,30,-19,-43,-29,-43,-60,-50
-31,14,45,9,-38,29,-16,-30,-12,-29,-50,-44
-30,14,43,8,-37,28,-14,-20,0,-18,-43,-39
-28,14,42,7,-35,28,-12,-11,10,-9,-38,-36
-27,15,41,6,-34,27,-11,-4,19,-2,-33,-33
-26,15,41,5,-33,27,-9,2,27,3,-29,-31
-25,15,41,5,-33,28,-8,7,35,8,-25,-29
-25,15,41,5,-32,28,-6,11,41,12,-23,-27
-24,15,41,4,-32,28,-5,14,46,16,-21,-26
-24,16,40,4,-31,28,-3,18,51,18,-20,-25
-23,16,40,3,-31,28,-1,22,56,20,-19,-25
-23,17,39,3,-31,28,1,26,60,22,-19,-25
-23,17,39,2,-31,27,3,31,65,23,-18,-25
-22,17,39,2,-30,27,5,37,70,24,-18,-24
-22,17,39,2,-30,28,7,41,76,25,-18,-24
-23,17,40,3,-31,28,8,45,82,27,-17,-24
-23,17,40,3,-31,28,10,49,88,29,-17,-24
-24,16,41,4,-32,28,12,54,94,31,-17,-24
-25,16,41,5,-33,28,14,58,100,33,-18,-25
-26,15,42,5,-34,29,16,64,105,35,-18,-26
-28,15,44,6,-36,30,18,70,112,36,-18,-27
-31,16,47,7,-39,31,21,77,118,38,-18,-28
-33,16,50,8,-41,32,24,83,125,41,-19,-29
-36,15,52,10,-44,33,26,88,132,43,-19,-30
-37,14,53,11,-45,33,29,93,139,45,-20,-31
-38,14,52,12,-45,33,31,98,145,47,-21,-33
-37,13,50,12,-44,31,32,102,150,48,-23,-35
-34,13,47,11,-41,29,33,107,155,49,-25,-38
-30,13,42,9,-36,27,34,112,159,49,-27,-40
-25,12,36,6,-30,24,33,116,162,49,-29,-43
-17,12,29,3,-23,20,33,119,165,49,-32,-45
-10,11,21,0,-15,15,32,122,168,49,-34,-48
-2,10,12,-4,-7,11,30,123,170,49,-35,-50
4,9,5,-7,0,7,29,124,172,49,-36,-51
9,9,-1,-9,6,4,28,126,174,50,-37,-52
12,8,-5,-11,9,2,28,129,176,51,-36,-52
14,8,-7,-11,11,0,29,132,179,53,-33,-51
15,8,-8,-12,12,0,29,136,181,55,-30,-49
17,7,-10,-12,14,-2,30,140,184,59,-26,-47
20,7,-13,-13,17,-4,30,142,186,63,-21,-43
23,6,-17,-14,20,-6,29,143,188,67,-16,-39
27,6,-20,-16,24,-7,28,144,189,72,-10,-35
30,6,-24,-17,27,-9,27,144,190,76,-4,-31
33,6,-27,-19,30,-10,26,144,190,80,1,-26
36,6,-30,-21,34,-12,24,143,190,84,8,-22
39,7,-33,-23,36,-13,23,143,189,89,14,-17
41,7,-35,-24,38,-14,21,142,188,93,21,-12
43,7,-36,-25,40,-14,20,140,187,98,28,-7
44,7,-36,-26,40,-14,18,137,185,103,35,-1
46,9,-37,-28,41,-14,17,133,183,107,42,4
48,11,-37,-29,42,-13,15,129,180,111,48,9
48,11,-37,-29,42,-13,13,124,176,114,54,14
48,11,-37,-29,42,-13,11,120,172,116,59,18
49,13,-36,-31,42,-11,9,116,167,119,65,23
51,15,-36,-33,43,-10,6,112,162,121,69,27
53,17,-36,-35,44,-9,4,106,157,122,73,31
54,18,-36,-36,45,-9,1,100,151,123,76,34
56,19,-37,-37,47,-9,0,93,145,123,78,37
57,19,-38,-38,48,-9,-2,87,138,122,79,39
59,20,-39,-39,49,-9,-3,80,131,120,79,41
61,21,-40,-40,50,-10,-5,74,123,117,78,41
63,21,-41,-42,52,-10,-8,69,115,112,77,41
64,22,-42,-43,53,-10,-10,63,107,107,74,41
66,23,-43,-45,54,-10,-12,57,99,102,71,40
68,24,-43,-46,55,-10,-14,50,91,96,67,40
68,25,-44,-47,56,-10,-16,43,83,90,62,39
69,25,-44,-47,57,-10,-18,37,75,84,58,37
70,26,-45,-48,57,-9,-20,30,67,78,54,35
71,27,-45,-49,58,-9,-21,24,58,70,49,33
73,27,-45,-50,59,-9,-23,19,51,63,44,30
74,28,-45,-51,59,-8,-25,14,44,56,40,28
74,29,-45,-52,60,-8,-27,10,37,49,35,26
75,30,-44,-52,60,-7,-28,6,31,43,31,25
75,31,-43,-53,59,-6,-29,2,26,38,27,24
74,32,-41,-53,58,-5,-30,-2,20,33,23,22
74,33,-40,-53,57,-4,-31,-6,15,28,20,21
73,33,-40,-53,56,-3,-32,-10,9,23,16,19
73,34,-39,-53,56,-2,-33,-12,4,18,13,17
72,34,-38,-54,55,-2,-34,-15,0,13,9,15
72,34,-38,-54,55,-1,-35,-17,-4,8,6,13
72,35,-38,-54,55,-1,-36,-19,-8,4,3,12
73,35,-38,-54,56,-1,-37,-23,-12,0,0,10
75,35,-40,-54,57,-1,-37,-27,-16,-4,-3,8
76,35,-41,-55,59,-2,-38,-31,-20,-8,-7,6
77,34,-43,-55,60,-4,-38,-33,-23,-12,-10,4
78,33,-45,-55,61,-5,-38,-35,-27,-16,-13,1
79,32,-47,-55,62,-7,-38,-36,-29,-19,-15,0
80,32,-49,-56,64,-8,-38,-36,-32,-22,-17,-2
80,31,-49,-56,65,-9,-39,-37,-34,-25,-19,-3
80,31,-49,-55,64,-8,-39,-38,-35,-27,-21,-4
78,31,-48,-54,63,-8,-40,-38,-36,-28,-23,-5
76,30,-46,-53,61,-7,-40,-38,-37,-29,-23,-5
74,30,-44,-52,59,-6,-40,-38,-37,-29,-23,-6
70,30,-41,-50,55,-5,-40,-37,-37,-31,-24,-7
64,28,-36,-47,50,-4,-40,-36,-36,-32,-25,-10
59,28,-32,-44,46,-2,-39,-33,-35,-33,-24,-11
58,27,-31,-43,44,-1,-38,-32,-35,-34,-24,-12
57,26,-32,-42,45,-3,-38,-32,-36,-35,-24,-13
57,23,-33,-40,46,-4,-38,-33,-38,-35,-25,-14
57,21,-35,-39,46,-6,-39,-35,-39,-36,-27,-15
56,19,-36,-37,46,-7,-40,-38,-41,-38,-28,-16
54,18,-36,-36,45,-8,-41,-40,-43,-39,-30,-16
52,17,-35,-34,43,-9,-42,-42,-45,-41,-32,-17
49,16,-34,-32,41,-9,-43,-43,-47,-43,-33,-17
45,14,-32,-29,38,-9,-43,-44,-49,-44,-35,-18
40,12,-29,-26,35,-9,-42,-45,-49,-44,-35,-18
35,10,-26,-23,31,-8,-41,-45,-49,-44,-36,-17
30,8,-22,-19,27,-6,-40,-45,-49,-44,-37,-17
25,7,-18,-16,22,-5,-39,-45,-49,-44,-37,-17
21,6,-15,-13,18,-4,-38,-44,-49,-44,-37,-16
16,6,-11,-11,14,-2,-37,-44,-48,-44,-37,-16
12,5,-8,-8,10,-1,-36,-43,-48,-44,-37,-15
8,4,-5,-6,6,0,-35,-42,-48,-44,-37,-15
4,3,-2,-3,3,0,-34,-41,-47,-44,-37,-15
0,2,0,-1,0,1,-33,-41,-47,-43,-38,-14
-3,1,4,1,-3,2,-32,-41,-47,-43,-38,-14
-6,0,6,2,-6,4,-31,-41,-46,-43,-38,-14
-8,0,8,3,-8,5,-31,-41,-46,-43,-39,-14
-10,0,10,4,-10,6,-30,-41,-46,-43,-39,-15
-12,0,12,5,-12,6,-30,-40,-46,-43,-39,-15
-14,-1,12,7,-13,6,-29,-39,-45,-42,-39,-15
-16,-3,12,9,-14,5,-27,-37,-44,-41,-38,-15
-18,-5,12,11,-15,4,-25,-35,-43,-40,-37,-14
-19,-7,12,13,-15,3,-22,-33,-41,-38,-36,-14
-21,-9,12,15,-16,2,-20,-32,-40,-37,-35,-13
-22,-10,11,17,-16,1,-18,-30,-39,-36,-34,-13
-22,-12,10,17,-16,0,-16,-29,-38,-35,-33,-12
-23,-13,9,18,-16,-1,-15,-28,-37,-34,-33,-12
-23,-14,8,18,-16,-3,-14,-27,-37,-34,-33,-12
-23,-15,7,19,-16,-4,-13,-26,-36,-33,-33,-12
-23,-16,6,19,-15,-5,-13,-26,-36,-33,-33,-12
-22,-17,5,20,-14,-6,-12,-25,-35,-33,-33,-12
-21,-18,3,20,-12,-7,-12,-25,-35,-33,-33,-12
-20,-19,1,20,-10,-8,-11,-25,-35,-32,-33,-12
-19,-19,-1,19,-9,-9,-11,-25,-35,-32,-32,-12
-17,-20,-3,18,-7,-10,-11,-25,-35,-31,-32,-12
-16,-20,-4,18,-6,-11,-11,-25,-36,-31,-32,-12
-14,-20,-6,17,-4,-12,-11,-26,-36,-31,-32,-12
-13,-20,-7,16,-3,-13,-11,-27,-37,-31,-32,-12
-12,-20,-8,16,-2,-13,-11,-29,-38,-30,-32,-12
-11,-20,-9,15,0,-14,-12,-30,-38,-30,-31,-12
-10,-20,-10,15,0,-15,-12,-31,-39,-30,-31,-12
-9,-20,-12,14,1,-15,-13,-32,-39,-30,-31,-12
-8,-20,-13,14,3,-16,-14,-33,-40,-30,-31,-12
-7,-20,-15,13,4,-18,-15,-34,-41,-31,-32,-12
-6,-21,-16,13,5,-19,-16,-35,-43,-31,-32,-13
-5,-22,-17,13,6,-20,-17,-37,-44,-32,-33,-14
-5,-23,-18,13,6,-20,-18,-38,-45,-32,-33,-14
-4,-23,-19,13,7,-21,-20,-40,-46,-33,-34,-15
-4,-23,-19,13,7,-21,-21,-41,-47,-33,-35,-15
-3,-23,-20,13,8,-21,-23,-43,-48,-34,-35,-16
-3,-23,-20,13,8,-21,-24,-44,-49,-34,-36,-16
-2,-23,-21,13,9,-22,-26,-45,-50,-35,-36,-17
-2,-23,-21,13,9,-22,-27,-46,-51,-35,-37,-18
-2,-23,-22,13,10,-22,-28,-46,-51,-35,-38,-19
-3,-24,-22,13,10,-22,-28,-43,-48,-34,-38,-20
-3,-25,-22,14,10,-23,-28,-37,-42,-31,-39,-22
-3,-26,-23,15,10,-24,-27,-29,-34,-26,-39,-24
-3,-27,-23,15,10,-25,-26,-21,-24,-18,-37,-25
-3,-27,-23,15,10,-25,-25,-15,-15,-8,-31,-24
-3,-26,-22,15,9,-24,-25,-10,-7,3,-23,-21
-3,-24,-20,14,8,-22,-26,-10,-1,15,-12,-16
-3,-21,-18,12,7,-19,-28,-12,2,26,0,-8
-3,-17,-15,10,6,-16,-31,-16,5,38,17,3
-2,-12,-11,7,5,-12,-35,-20,9,53,39,20
0,-7,-7,4,4,-7,-40,-24,15,70,64,41
1,-1,-3,0,3,-2,-44,-27,23,92,94,65
5,5,0,-5,3,3,-49,-28,34,122,132,94
10,12,2,-11,4,7,-55,-29,48,159,178,128
16,19,3,-18,6,11,-60,-28,63,200,228,166
23,27,4,-25,9,15,-65,-27,73,236,275,202
31,34,3,-32,13,18,-70,-28,71,263,315,238
39,39,0,-38,19,19,-75,-31,54,281,351,273
46,41,-5,-43,25,18,-79,-36,26,289,378,303
53,43,-10,-47,32,17,-82,-46,-9,285,389,321
58,43,-15,-50,37,15,-85,-57,-49,271,385,329
63,44,-19,-53,41,13,-87,-67,-88,246,365,327
65,46,-20,-55,42,13,-87,-78,-131,200,322,310
65,47,-19,-55,41,14,-87,-96,-186,121,245,274
62,45,-17,-53,39,14,-84,-122,-252,11,138,217
56,37,-18,-46,37,9,-79,-152,-327,-123,9,143
48,26,-21,-36,35,2,-72,-185,-404,-264,-128,59
38,13,-25,-25,32,-5,-66,-216,-470,-387,-246,-17
27,0,-28,-13,29,-13,-57,-238,-516,-474,-328,-75
16,-15,-32,0,25,-23,-45,-251,-539,-523,-377,-116
5,-30,-36,13,21,-33,-33,-261,-547,-543,-401,-143
-4,-43,-38,24,17,-40,-24,-273,-545,-545,-407,-158
-12,-50,-37,32,12,-44,-20,-286,-536,-534,-402,-165
-19,-54,-34,37,6,-44,-20,-298,-522,-517,-393,-171
-25,-53,-27,39,0,-40,-24,-305,-501,-493,-380,-176
-30,-49,-19,40,-5,-34,-31,-306,-473,-463,-363,-178
-32,-44,-12,39,-10,-28,-39,-299,-440,-428,-340,-175
-34,-39,-5,37,-14,-22,-46,-287,-403,-390,-314,-168
-35,-35,0,36,-16,-17,-51,-272,-365,-352,-288,-158
-35,-31,4,34,-19,-13,-55,-252,-325,-314,-261,-148
-36,-28,8,33,-22,-10,-56,-230,-284,-276,-234,-138
-37,-27,10,32,-24,-8,-54,-205,-243,-240,-209,-129
-37,-27,10,32,-24,-8,-50,-179,-203,-205,-185,-119
-37,-29,8,33,-23,-10,-44,-151,-165,-170,-160,-107
-37,-30,6,33,-21,-12,-36,-123,-128,-137,-136,-95
-36,-31,4,34,-19,-13,-29,-97,-96,-108,-114,-82
-35,-32,2,34,-18,-14,-23,-75,-69,-83,-96,-72
-34,-33,0,34,-17,-16,-19,-58,-48,-64,-81,-64
-32,-34,-1,34,-16,-18,-15,-46,-32,-49,-70,-57
-31,-34,-3,33,-15,-19,-13,-36,-19,-38,-63,-52
-31,-35,-4,33,-13,-20,-11,-28,-8,-30,-57,-48
-30,-35,-5,33,-12,-20,-10,-21,0,-23,-53,-45
-30,-35,-5,33,-12,-20,-9,-15,8,-17,-49,-43
-30,-35,-5,33,-12,-20,-9,-10,16,-11,-45,-40
-31,-35,-5,33,-12,-20,-8,-6,22,-7,-42,-39
-32,-36,-4,34,-13,-20,-7,-2,28,-3,-40,-38
-33,-36,-4,35,-14,-20,-5,2,33,0,-38,-37
-33,-37,-4,35,-14,-21,-4,6,38,1,-37,-36
-34,-38,-4,36,-15,-21,-2,10,43,3,-36,-36
-34,-38,-3,36,-16,-20,0,14,48,5,-36,-35
-35,-38,-2,37,-16,-20,2,19,53,7,-36,-35
-36,-38,0,37,-17,-19,4,23,59,9,-36,-35
-37,-38,0,38,-18,-19,5,28,64,11,-35,-35
-38,-39,-1,39,-19,-20,7,33,69,13,-35,-35
-39,-41,-2,40,-19,-22,9,38,75,15,-35,-36
-39,-42,-2,41,-19,-22,10,43,81,16,-35,-36
-39,-42,-2,41,-19,-22,11,48,86,17,-36,-37
-40,-43,-2,42,-19,-23,12,52,92,18,-37,-38
-40,-43,-3,42,-19,-23,14,57,98,19,-38,-39
-40,-44,-2,42,-19,-23,16,61,103,20,-39,-40
-41,-44,-2,42,-19,-23,17,66,109,22,-40,-42
-42,-44,-2,43,-20,-23,19,71,114,23,-41,-43
-43,-45,-2,44,-20,-23,21,76,119,25,-42,-45
-43,-45,-2,44,-20,-23,23,81,125,26,-43,-47
-43,-46,-2,45,-20,-24,26,86,130,28,-44,-49
-43,-47,-3,45,-20,-24,27,92,136,29,-44,-49
-43,-47,-3,46,-20,-25,29,98,142,31,-44,-50
-44,-48,-4,46,-20,-26,30,103,147,33,-44,-50
-44,-48,-4,46,-20,-26,31,107,153,36,-42,-50
-45,-49,-4,47,-20,-27,33,112,157,39,-40,-49
-45,-49,-4,47,-20,-27,34,116,162,42,-37,-48
-45,-49,-5,47,-20,-27,34,119,166,46,-34,-47
-45,-49,-5,47,-20,-27,35,123,169,50,-29,-44
-44,-49,-5,47,-19,-27,35,126,173,54,-25,-41
-44,-49,-6,46,-19,-27,35,129,177,58,-19,-37
-43,-49,-6,46,-18,-27,36,132,181,64,-13,-32
-43,-49,-6,45,-18,-27,36,134,184,70,-7,-28
-42,-48,-6,45,-18,-27,36,136,186,76,0,-23
-42,-48,-6,44,-18,-27,36,137,188,82,7,-19
-41,-47,-6,44,-18,-27,36,138,190,88,14,-14
-41,-47,-6,44,-18,-26,36,139,191,94,22,-8
-40,-46,-6,43,-18,-26,36,139,192,99,30,-2
-40,-45,-5,43,-18,-25,36,139,193,105,37,4
-39,-44,-4,42,-18,-24,35,139,193,111,45,10
-39,-43,-3,41,-18,-23,33,138,193,117,53,17
-38,-41,-2,39,-17,-22,31,136,193,123,61,23
-36,-39,-2,38,-17,-21,29,133,192,129,69,29
-35,-37,-2,36,-16,-20,26,130,190,134,76,35
-33,-36,-2,34,-15,-19,24,126,188,138,82,41
-32,-34,-2,33,-14,-18,21,122,185,142,88,46
-30,-33,-2,31,-14,-17,19,118,181,144,93,51
-29,-31,-2,30,-13,-16,16,114,177,146,97,56
-27,-30,-2,29,-13,-15,12,110,172,147,100,60
-26,-28,-1,27,-12,-15,8,105,167,148,102,63
-25,-27,-1,26,-12,-14,5,99,161,148,103,65
-25,-26,-1,25,-12,-14,2,94,155,147,104,67
-25,-25,0,25,-12,-13,0,88,148,145,104,68
-25,-24,0,24,-12,-12,-1,82,141,141,103,68
-25,-24,1,24,-13,-11,-2,77,134,137,101,68
-25,-23,2,24,-14,-10,-4,72,127,131,98,68
-26,-23,4,24,-15,-9,-5,67,119,126,94,68
-27,-22,5,25,-16,-8,-7,62,112,120,90,66
-29,-22,7,25,-18,-7,-8,56,104,115,86,64
-31,-21,8,26,-19,-6,-10,51,96,109,81,62
-32,-21,10,26,-21,-5,-11,45,88,102,77,59
-34,-21,11,27,-23,-5,-12,40,80,95,72,57
-35,-21,13,28,-24,-4,-12,34,73,87,67,54
-36,-22,14,29,-26,-3,-13,30,65,80,61,52
-37,-22,15,30,-27,-3,-13,25,58,72,56,50
-38,-22,16,30,-27,-3,-14,21,51,65,50,48
-38,-22,16,30,-27,-3,-14,17,45,59,45,45
-39,-22,16,31,-27,-3,-15,12,38,53,40,41
-39,-23,16,31,-28,-3,-15,8,32,47,35,38
-40,-23,17,31,-28,-2,-15,5,27,41,31,35
-41,-23,17,32,-29,-2,-15,1,21,35,27,32
-42,-23,18,32,-30,-1,-15,-1,16,29,23,30
-42,-23,19,33,-31,-1,-15,-4,12,23,19,28
-43,-23,20,33,-32,-1,-15,-6,8,19,15,26
-45,-24,21,34,-33,-1,-15,-8,4,15,12,24
-46,-24,21,35,-34,-1,-15,-10,0,12,9,22
-48,-25,22,36,-35,-1,-15,-12,-3,9,6,20
-50,-26,23,38,-37,-1,-14,-14,-6,5,3,18
-52,-26,25,39,-39,0,-14,-16,-9,2,1,16
-55,-27,28,41,-42,0,-13,-18,-11,-1,0,15
-57,-27,30,42,-44,1,-12,-19,-14,-4,-2,14
-59,-28,32,44,-46,2,-11,-20,-15,-7,-4,13
-61,-28,34,45,-47,2,-10,-21,-17,-9,-6,12
-62,-28,35,45,-48,3,-9,-21,-18,-10,-7,11
-64,-28,36,45,-49,3,-8,-22,-19,-11,-8,10
-65,-28,37,46,-51,4,-8,-23,-20,-12,-8,9
-66,-28,38,46,-52,5,-7,-24,-20,-13,-8,9
-68,-28,40,47,-54,6,-7,-24,-21,-14,-8,8
-69,-28,41,48,-56,7,-6,-25,-21,-15,-9,8
-70,-28,43,49,-57,7,-6,-25,-22,-16,-9,8
-71,-28,44,49,-58,8,-5,-25,-22,-17,-10,8
-72,-28,44,49,-58,8,-5,-26,-23,-17,-10,8
-71,-28,43,49,-57,8,-5,-27,-24,-18,-11,7
-71,-28,42,49,-56,7,-5,-28,-25,-18,-11,6
-70,-29,41,49,-55,6,-5,-29,-26,-19,-12,4
-69,-29,39,49,-54,5,-5,-28,-25,-19,-13,2
-68,-30,38,49,-53,4,-4,-24,-22,-20,-15,0
-67,-31,36,49,-52,2,-3,-19,-17,-19,-17,-2
-66,-32,34,49,-51,1,-1,-14,-12,-17,-17,-4
-66,-32,33,49,-49,0,-1,-11,-7,-14,-16,-5
-65,-32,32,48,-48,0,-1,-10,-4,-8,-12,-3
-64,-31,32,47,-48,0,-2,-12,-3,-2,-5,0
-62,-29,33,46,-48,2,-4,-17,-4,1,3,5
-61,-26,34,43,-48,4,-7,-25,-8,4,13,12
-58,-23,35,40,-47,6,-12,-33,-11,10,27,24
-55,-19,36,37,-46,8,-17,-40,-12,19,47,40
-52,-16,36,34,-45,10,-22,-46,-12,33,71,58
-49,-11,37,30,-44,12,-26,-50,-7,52,97,78
-45,-7,38,25,-42,15,-30,-52,2,80,129,99
-40,-2,38,20,-39,17,-34,-50,14,115,166,123
-34,3,38,15,-36,20,-39,-47,23,151,205,149
-27,10,37,8,-32,23,-44,-45,22,183,242,176
-18,16,35,0,-26,25,-51,-44,12,211,279,206
-8,21,30,-7,-19,25,-58,-41,-2,238,314,236
2,25,23,-14,-10,23,-64,-35,-15,262,340,261
13,28,16,-21,-1,21,-69,-29,-28,280,352,278
22,30,8,-27,6,19,-73,-27,-47,286,348,284
30,31,1,-31,14,16,-76,-31,-75,271,327,283
37,32,-5,-35,21,14,-78,-41,-119,223,281,269
40,32,-8,-36,24,12,-80,-62,-184,129,200,235
41,31,-10,-36,25,10,-83,-92,-266,-6,86,181
39,24,-14,-31,26,4,-83,-124,-353,-162,-42,115
35,12,-22,-23,28,-5,-80,-149,-428,-309,-162,50
28,-2,-30,-13,29,-16,-73,-168,-482,-420,-253,-4
19,-15,-34,-2,26,-25,-65,-190,-518,-490,-313,-46
7,-29,-36,11,21,-33,-57,-214,-540,-526,-348,-76
-4,-42,-38,23,17,-39,-50,-237,-546,-534,-359,-94
-13,-49,-36,31,11,-42,-47,-258,-539,-525,-355,-101
-21,-50,-28,35,3,-39,-49,-276,-523,-506,-345,-107
-28,-45,-16,36,-6,-30,-53,-286,-497,-480,-334,-116
-34,-38,-2,36,-16,-20,-58,-288,-464,-448,-320,-125
-39,-30,10,34,-24,-10,-63,-283,-425,-412,-301,-128
-42,-23,20,32,-31,-1,-66,-272,-383,-372,-277,-125
-45,-17,29,31,-37,6,-67,-257,-339,-332,-251,-118
-48,-12,36,30,-42,12,-66,-238,-295,-292,-226,-111
-51,-10,40,30,-45,16,-62,-214,-251,-252,-201,-105
-52,-9,42,30,-47,17,-56,-185,-207,-214,-177,-100
-53,-11,42,31,-47,15,-48,-154,-166,-179,-155,-93
-52,-13,39,32,-45,12,-40,-123,-127,-146,-132,-84
-51,-16,35,33,-43,8,-31,-96,-92,-115,-111,-73
-50,-18,31,34,-40,5,-24,-72,-62,-88,-91,-63
-49,-20,28,34,-39,4,-18,-53,-38,-66,-74,-53
-48,-21,26,34,-37,2,-13,-38,-19,-48,-61,-46
-47,-22,24,34,-35,1,-9,-27,-4,-35,-52,-42
-46,-23,22,34,-34,0,-6,-19,6,-25,-45,-38
-44,-23,20,33,-32,-1,-4,-12,14,-18,-41,-36
-42,-22,19,32,-31,-2,-3,-6,22,-13,-37,-33
-41,-22,19,31,-30,-2,-2,-1,29,-9,-34,-31
-41,-22,18,31,-30,-2,-1,3,35,-5,-31,-29
-41,-22,18,32,-30,-2,-1,7,40,-2,-30,-28
-42,-23,17,32,-30,-3,0,11,45,1,-28,-27
-42,-24,17,33,-30,-3,0,15,50,5,-27,-27
-43,-25,16,33,-29,-4,1,19,55,8,-26,-27
-43,-26,16,34,-29,-5,2,23,60,11,-25,-27
-43,-27,15,35,-29,-6,3,28,66,13,-24,-26
-43,-28,15,35,-29,-6,4,34,72,16,-23,-26
-43,-27,16,35,-29,-6,6,40,78,19,-22,-25
-42,-26,16,34,-29,-5,8,46,85,23,-21,-24
-40,-24,17,32,-29,-3,11,52,92,27,-19,-23
-39,-22,17,30,-28,-2,14,59,99,32,-18,-22
-38,-21,18,29,-28,-1,16,65,106,36,-17,-22
-37,-19,18,27,-28,0,18,71,113,39,-16,-21
-36,-17,19,26,-28,1,20,77,120,42,-15,-21
-35,-15,21,25,-28,3,23,84,128,44,-14,-20
-35,-13,22,24,-29,4,25,89,135,47,-13,-20
-35,-12,23,24,-29,5,28,95,141,49,-13,-20
-35,-12,23,24,-30,6,31,100,147,52,-12,-20
-36,-11,23,24,-30,6,34,105,153,55,-12,-20
-36,-11,24,24,-31,7,37,109,158,58,-11,-20
-36,-11,24,24,-31,7,40,113,163,59,-11,-20
-36,-11,24,24,-30,7,42,117,167,60,-11,-20
-36,-10,25,23,-31,7,44,121,171,61,-11,-21
-36,-9,26,23,-31,8,46,123,175,61,-11,-21
-36,-8,27,22,-32,9,48,126,177,61,-10,-22
-37,-8,28,22,-33,10,50,128,180,63,-10,-22
-38,-8,29,23,-34,11,52,129,182,64,-8,-22
-40,-8,31,23,-36,11,54,131,184,66,-6,-21
-42,-8,32,24,-37,12,56,133,186,67,-4,-20
-43,-8,34,25,-39,12,57,133,187,69,-2,-19
-45,-8,36,26,-41,13,57,134,188,70,0,-17
-47,-8,38,28,-43,14,58,134,188,71,3,-15
-49,-8,40,29,-45,15,58,133,188,73,6,-13
-51,-8,42,29,-47,17,58,132,188,75,10,-10
-52,-7,44,30,-49,18,58,130,187,77,13,-8
-54,-7,46,30,-50,19,58,128,186,80,17,-5
-55,-7,47,30,-52,20,58,125,184,82,20,-2
-55,-6,48,30,-52,21,57,122,182,84,24,0
-55,-6,49,30,-52,22,55,119,179,86,28,3
-55,-5,49,30,-52,22,53,116,177,88,31,6
-54,-5,48,30,-51,21,51,112,173,89,34,9
-53,-5,47,29,-50,21,48,108,169,90,37,11
-52,-5,46,29,-49,20,47,104,165,91,40,14
-51,-6,45,29,-48,20,45,100,161,93,42,16
-50,-6,43,28,-47,19,44,97,157,94,45,18
-49,-7,42,28,-46,18,42,93,152,95,47,20
-49,-7,40,28,-45,17,40,89,146,95,49,22
-48,-8,39,28,-44,16,38,85,141,94,50,24
-48,-8,38,28,-43,15,36,81,135,93,50,26
-47,-8,38,28,-43,15,33,76,129,90,50,27
-47,-9,37,27,-42,15,31,71,123,88,50,28
-46,-9,37,27,-42,14,29,66,115,85,49,29
-46,-9,36,27,-41,14,28,60,108,81,47,29
-46,-10,36,27,-41,13,26,55,100,76,44,29
-46,-10,36,28,-41,13,24,50,92,71,42,29
-47,-11,36,28,-41,12,22,45,84,66,39,28
-47,-11,36,29,-42,12,19,41,77,60,36,28
-48,-12,36,29,-42,12,17,36,70,54,33,27
-48,-12,36,30,-43,12,16,32,64,49,30,26
-49,-12,36,30,-43,12,15,27,57,43,27,25
-49,-12,36,30,-43,12,14,23,50,38,23,24
-49,-12,36,30,-43,12,13,19,44,33,20,23
-49,-13,36,31,-43,12,13,15,38,28,17,23
-49,-13,35,31,-42,11,12,12,32,23,14,22
-48,-14,35,31,-42,11,11,9,27,18,11,22
-48,-15,34,31,-41,10,10,6,22,14,9,21
-48,-15,33,32,-41,9,9,4,17,10,7,20
-48,-16,32,32,-40,8,9,1,13,6,5,19
-48,-16,31,32,-40,8,9,-1,9,3,3,19
-47,-17,30,32,-39,7,8,-4,5,0,1,18
-47,-17,29,32,-39,6,8,-6,2,-2,-1,17
-47,-18,29,32,-38,6,7,-7,-1,-5,-2,17
-47,-18,28,32,-38,5,6,-8,-3,-8,-4,16
-46,-18,28,32,-37,5,5,-10,-5,-10,-5,16
-46,-19,27,32,-37,4,3,-11,-7,-12,-6,16
-45,-19,26,32,-36,4,2,-13,-9,-13,-7,15
-45,-20,25,32,-35,3,1,-15,-11,-15,-8,14
-45,-20,24,32,-35,3,1,-17,-13,-16,-9,14
-44,-20,24,32,-34,2,0,-19,-15,-18,-10,13
-44,-20,23,32,-34,2,0,-21,-16,-19,-11,13
-44,-20,23,32,-34,2,0,-22,-17,-20,-12,12
-44,-20,23,32,-33,2,-1,-22,-17,-20,-12,12
-44,-20,23,32,-33,2,-1,-23,-17,-21,-13,12
-44,-20,24,32,-33,2,0,-23,-17,-21,-13,12
-44,-20,24,32,-33,2,0,-23,-17,-20,-13,13
-44,-20,24,31,-33,2,0,-23,-17,-20,-13,13
-44,-19,24,31,-33,2,1,-23,-17,-20,-12,13
-43,-19,24,31,-33,3,1,-23,-16,-19,-12,13
-43,-18,24,30,-33,3,1,-22,-16,-19,-11,14
-43,-18,24,30,-33,4,1,-22,-15,-18,-10,14
-43,-18,24,30,-33,4,1,-22,-15,-18,-10,14
-42,-18,24,30,-33,4,1,-22,-14,-17,-10,15
-42,-18,24,30,-33,3,1,-22,-14,-17,-10,15
-42,-18,24,30,-33,3,1,-22,-14,-16,-10,15
-42,-19,24,30,-33,2,2,-22,-14,-16,-10,15
-42,-19,23,30,-32,2,2,-22,-14,-16,-10,14
-42,-20,22,31,-32,1,2,-22,-14,-16,-10,14
-42,-20,22,31,-31,1,1,-22,-15,-17,-10,13
-42,-21,21,31,-31,0,1,-23,-16,-17,-11,13
-42,-21,21,31,-31,0,1,-23,-16,-17,-11,12
-42,-21,21,31,-31,0,1,-24,-17,-17,-11,12
-42,-21,20,31,-31,0,0,-24,-17,-17,-11,12
-42,-21,20,31,-31,0,0,-25,-18,-17,-11,12
-42,-22,20,31,-31,0,0,-25,-18,-17,-11,12
-42,-22,19,32,-31,-1,0,-25,-18,-18,-11,12
-42,-23,19,32,-31,-1,0,-25,-19,-18,-11,12
-42,-23,19,32,-31,-1,0,-25,-19,-18,-11,12
-42,-24,19,32,-30,-2,0,-25,-20,-18,-11,12
-42,-24,18,32,-30,-2,0,-25,-20,-18,-11,12
-41,-24,18,32,-29,-2,0,-26,-21,-18,-11,12
-41,-24,17,32,-29,-3,0,-27,-22,-18,-11,13
-40,-24,16,31,-28,-3,0,-28,-22,-18,-11,13
-39,-24,15,31,-27,-4,-1,-29,-23,-18,-11,13
-38,-24,14,30,-26,-4,-1,-30,-24,-18,-11,13
-37,-24,14,30,-25,-5,-2,-31,-25,-18,-11,13
-37,-24,13,30,-25,-5,-2,-32,-25,-18,-11,14
-37,-24,13,30,-25,-6,-2,-31,-24,-17,-11,14
-37,-25,12,30,-25,-6,-1,-29,-21,-15,-12,13
-37,-26,11,31,-24,-7,1,-23,-16,-12,-12,12
-37,-27,9,31,-23,-8,3,-16,-8,-7,-12,10
-36,-27,8,31,-23,-9,5,-9,0,0,-10,9
-36,-27,8,31,-22,-9,6,-4,8,8,-6,10
-35,-26,9,30,-22,-8,6,-1,15,18,1,13
-35,-23,11,29,-23,-6,5,-2,20,28,10,18
-34,-19,14,27,-24,-2,3,-6,22,37,22,25
-33,-15,17,24,-25,1,0,-11,25,49,37,36
-31,-10,21,20,-26,5,-3,-16,29,64,59,53
-29,-4,25,16,-27,11,-8,-21,35,83,85,73
-27,3,29,11,-28,17,-14,-24,43,107,117,98
-24,10,33,6,-28,22,-19,-26,56,141,156,127
-20,17,36,0,-28,27,-25,-24,74,183,204,161
-14,24,38,-5,-26,31,-30,-21,91,228,256,199
-7,31,38,-12,-22,35,-35,-19,98,269,305,237
0,37,36,-19,-17,36,-42,-20,90,300,350,274
9,41,32,-26,-11,37,-48,-24,68,323,390,311
17,43,27,-31,-5,35,-54,-31,38,337,424,344
24,44,20,-34,2,33,-58,-40,2,341,445,369
29,43,14,-37,8,30,-62,-49,-35,334,452,385
34,43,9,-38,12,27,-64,-59,-73,315,442,390
36,43,6,-39,15,25,-65,-71,-119,273,409,382
36,43,6,-39,15,25,-66,-92,-179,196,342,356
34,42,8,-38,13,25,-65,-120,-252,82,239,308
28,36,8,-33,10,22,-62,-151,-331,-57,111,242
21,25,4,-23,8,14,-57,-182,-410,-204,-27,165
11,10,0,-11,6,5,-50,-209,-476,-336,-150,91
0,-4,-4,1,2,-3,-41,-230,-521,-431,-241,31
-12,-20,-8,16,-1,-13,-29,-245,-546,-488,-300,-15
-24,-35,-12,29,-5,-23,-18,-258,-554,-514,-333,-48
-34,-47,-14,40,-9,-30,-12,-270,-550,-518,-346,-69
-41,-54,-13,47,-13,-33,-11,-282,-538,-510,-347,-81
-46,-56,-9,51,-19,-32,-15,-291,-519,-493,-341,-91
-51,-54,-2,52,-25,-28,-22,-295,-493,-469,-332,-102
-55,-49,7,51,-31,-21,-30,-293,-461,-439,-318,-109
-57,-43,15,50,-36,-13,-38,-284,-424,-405,-299,-112
-59,-37,22,49,-41,-7,-45,-272,-385,-368,-276,-110
-61,-31,28,47,-44,-1,-49,-257,-346,-331,-253,-104
-61,-27,34,45,-47,4,-51,-238,-305,-294,-229,-98
-62,-23,38,43,-50,7,-50,-216,-264,-258,-205,-92
-62,-22,40,42,-51,9,-47,-191,-224,-223,-183,-85
-62,-23,39,42,-51,8,-40,-165,-184,-189,-160,-77
-62,-25,37,42,-50,6,-32,-136,-145,-156,-137,-67
-61,-26,35,42,-48,4,-24,-108,-109,-124,-114,-56
-60,-26,33,42,-46,4,-16,-83,-77,-95,-93,-45
-58,-26,31,42,-45,3,-9,-62,-51,-72,-76,-36
-57,-26,30,42,-43,2,-4,-45,-30,-54,-63,-29
-55,-27,28,41,-42,1,0,-33,-14,-40,-54,-24
-54,-27,27,40,-40,0,3,-23,-1,-29,-47,-20
-53,-27,26,39,-39,0,4,-14,9,-22,-42,-17
-52,-27,26,38,-39,0,5,-8,18,-16,-38,-16
-51,-26,26,38,-38,0,6,-3,26,-11,-35,-15
-51,-25,26,37,-38,1,6,1,33,-6,-33,-14
-51,-25,26,37,-38,1,7,5,39,-2,-31,-14
-50,-25,25,37,-37,1,7,9,45,1,-29,-14
-50,-25,25,37,-37,0,8,14,51,5,-28,-14
-49,-25,24,37,-36,0,10,18,56,7,-27,-15
-49,-25,23,37,-36,-1,12,23,62,9,-26,-15
-49,-26,22,37,-36,-1,14,28,67,11,-26,-16
-49,-26,22,37,-36,-2,17,34,73,13,-25,-16
-49,-27,21,38,-36,-2,21,39,79,16,-25,-17
-50,-27,21,38,-36,-3,23,44,85,18,-25,-18
-50,-28,21,39,-36,-3,25,49,91,20,-25,-19
-51,-29,20,40,-36,-4,27,54,97,22,-25,-20
-51,-30,20,41,-36,-4,28,59,103,23,-26,-21
-51,-31,19,41,-35,-5,29,64,109,24,-27,-22
-51,-32,19,41,-35,-6,30,69,116,25,-28,-23
-50,-32,18,41,-34,-7,32,74,122,26,-29,-24
-50,-33,17,40,-33,-7,33,79,128,28,-29,-25
-49,-33,16,40,-32,-8,35,84,134,30,-30,-27
-49,-33,15,40,-32,-8,36,88,141,32,-30,-28
-48,-34,14,40,-31,-9,38,94,147,35,-30,-29
-48,-34,13,40,-31,-9,40,99,153,37,-30,-30
-47,-34,13,40,-30,-9,42,105,160,39,-29,-31
-47,-33,13,40,-30,-9,44,110,166,41,-28,-31
-47,-33,13,40,-30,-9,46,116,173,44,-27,-30
-46,-33,14,40,-30,-9,48,121,179,48,-24,-29
-46,-33,14,40,-30,-9,50,126,186,52,-21,-28
-46,-32,14,39,-30,-8,51,131,192,58,-17,-26
-46,-32,14,39,-30,-8,52,135,197,63,-13,-23
-47,-33,14,40,-31,-9,52,139,202,69,-8,-20
-48,-34,13,41,-31,-9,52,143,206,74,-2,-17
-49,-35,13,42,-31,-10,52,146,210,79,3,-13
-50,-36,13,43,-32,-11,52,149,214,85,9,-9
-51,-37,13,44,-32,-12,52,150,217,91,16,-5
-51,-38,13,45,-32,-12,51,152,219,98,24,0
-51,-39,12,45,-32,-13,50,152,221,105,32,4
-52,-39,12,46,-32,-13,49,153,223,113,41,10
-52,-39,12,46,-32,-13,48,153,224,120,49,15
-52,-39,13,46,-32,-13,47,152,224,127,58,21
-52,-38,13,45,-33,-12,46,152,225,133,66,27
-52,-37,14,44,-33,-11,45,151,224,139,74,33
-52,-36,16,44,-34,-10,43,149,223,145,82,39
-52,-34,17,43,-34,-8,41,146,222,151,90,45
-51,-33,19,42,-35,-6,39,142,219,156,98,50
-51,-31,20,42,-35,-5,36,137,216,161,105,55
-51,-30,21,41,-36,-3,33,132,211,165,112,60
-51,-28,22,40,-37,-2,31,127,206,168,117,64
-52,-27,24,39,-38,0,28,122,201,169,121,69
-52,-25,26,39,-39,1,26,117,196,170,124,72
-53,-23,29,38,-41,3,24,111,190,170,127,75
-54,-22,31,37,-42,5,21,105,184,169,129,78
-54,-20,34,37,-44,7,19,99,177,168,130,80
-55,-18,36,37,-45,9,16,93,170,166,131,81
-55,-17,38,36,-47,11,14,88,163,163,130,82
-56,-16,39,36,-48,12,11,82,155,159,129,83
-56,-15,41,36,-49,13,9,77,147,154,126,83
-57,-14,42,36,-50,14,6,72,139,148,123,82
-57,-13,44,36,-51,15,4,67,131,141,118,81
-58,-13,45,36,-51,16,1,61,123,134,114,79
-58,-12,46,36,-52,17,0,56,114,127,109,77
-58,-12,46,36,-52,17,-2,51,106,120,105,74
-59,-12,46,36,-52,17,-4,46,97,113,100,71
-59,-13,45,36,-52,17,-6,41,89,105,94,68
-59,-13,45,36,-52,16,-8,36,80,97,88,65
-59,-14,44,37,-52,15,-9,31,72,88,82,62
-59,-15,44,37,-52,15,-10,27,65,80,76,59
-59,-16,43,38,-51,14,-11,22,57,72,71,56
-60,-17,42,38,-51,13,-11,18,50,65,65,52
-60,-18,41,39,-51,12,-12,13,43,59,60,48
-60,-19,40,40,-50,11,-14,9,36,52,56,44
-59,-18,40,39,-50,11,-15,6,30,46,52,41
-56,-16,39,36,-48,11,-16,3,25,41,48,39
-55,-15,39,35,-47,12,-16,1,21,36,44,37
-58,-19,39,39,-49,9,-17,-2,15,29,39,34
-65,-26,39,45,-52,6,-19,-7,9,23,33,29
-67,-28,39,47,-53,6,-20,-10,5,18,29,26
-64,-25,39,45,-51,7,-20,-12,2,15,27,24
-61,-23,38,42,-49,8,-20,-13,0,13,26,23
-59,-22,36,40,-47,7,-19,-13,-1,11,25,22
-56,-21,35,38,-46,7,-18,-14,-4,9,23,21
-54,-19,34,37,-44,7,-17,-14,-6,6,21,20
-52,-17,34,35,-43,8,-15,-14,-8,3,20,19
-51,-16,34,34,-43,9,-14,-13,-8,1,18,17
-50,-14,34,32,-42,10,-12,-12,-7,0,15,15
-49,-14,34,31,-42,11,-9,-9,-4,-1,11,11
-48,-13,34,31,-41,11,-7,-4,-1,-2,8,7
-48,-13,34,30,-41,11,-5,0,2,-2,6,3
-47,-12,34,30,-40,11,-5,1,4,-1,5,1
-46,-10,35,29,-40,12,-5,1,4,0,7,2
-45,-8,36,27,-40,13,-6,0,4,2,12,5
-43,-5,37,24,-40,15,-8,-5,1,3,17,9
-41,-2,39,22,-40,18,-10,-12,-2,5,24,15
-39,0,40,19,-39,20,-14,-20,-5,11,36,24
-37,3,40,17,-39,22,-18,-28,-8,20,53,37
-35,7,41,14,-38,24,-23,-34,-9,33,73,51
-33,10,42,11,-38,26,-27,-38,-7,50,96,66
-30,13,43,8,-37,28,-30,-38,-4,72,122,83
-27,17,43,4,-35,30,-32,-36,-5,97,152,102
-22,22,43,0,-32,32,-35,-37,-14,122,182,124
-15,27,41,-6,-28,34,-37,-39,-31,146,213,148
-6,31,37,-13,-22,35,-40,-39,-47,173,247,175
3,35,31,-19,-14,33,-43,-36,-60,204,281,202
13,38,25,-26,-6,32,-47,-35,-74,231,308,227
23,42,19,-32,1,31,-50,-36,-89,249,324,246
33,45,13,-39,9,29,-53,-37,-109,254,329,260
41,47,6,-44,17,27,-57,-43,-140,237,317,267
47,49,2,-49,22,26,-62,-57,-187,189,280,261
52,52,0,-52,26,26,-67,-79,-248,104,213,237
54,50,-4,-53,29,23,-71,-101,-316,-16,115,196
54,41,-13,-48,33,14,-71,-123,-387,-158,4,145
51,27,-25,-40,37,1,-69,-150,-458,-291,-97,93
47,13,-33,-30,39,-9,-67,-185,-517,-392,-175,50
40,1,-38,-21,38,-17,-65,-218,-556,-456,-227,15
31,-7,-38,-12,34,-22,-62,-245,-572,-487,-256,-8
22,-11,-34,-6,28,-21,-61,-265,-567,-492,-264,-21
15,-8,-23,-3,19,-15,-62,-279,-547,-478,-260,-27
7,-1,-9,-3,8,-4,-64,-285,-516,-454,-252,-35
0,8,7,-4,-4,8,-65,-283,-477,-426,-245,-49
-7,17,24,-5,-16,21,-66,-273,-433,-394,-238,-66
-13,25,38,-6,-27,32,-65,-258,-386,-358,-225,-76
-18,32,50,-7,-35,41,-63,-239,-339,-319,-205,-79
-22,36,58,-7,-40,47,-58,-215,-291,-280,-183,-78
-24,38,63,-7,-44,51,-49,-186,-243,-241,-161,-75
-27,37,64,-6,-45,51,-38,-153,-196,-202,-139,-73
-29,34,62,-3,-45,48,-26,-122,-152,-166,-120,-72
-30,29,58,-1,-44,44,-15,-93,-113,-133,-101,-70
-29,24,53,2,-41,38,-5,-67,-77,-101,-82,-66
-28,20,48,4,-39,34,2,-44,-46,-73,-63,-59
-28,17,45,5,-37,31,8,-26,-21,-50,-47,-52
-27,16,43,5,-35,30,12,-11,-1,-32,-34,-46
-27,15,41,6,-34,28,15,0,13,-20,-25,-42
-26,14,40,6,-33,27,18,8,24,-11,-18,-39
-26,14,39,6,-32,26,21,16,34,-3,-14,-37
-25,13,38,6,-32,26,24,22,43,3,-11,-35
-25,13,37,6,-31,25,26,27,51,9,-7,-34
-25,12,37,6,-31,25,27,32,57,14,-4,-33
-25,12,37,7,-32,24,27,36,63,18,-1,-32
-25,11,37,7,-32,24,28,41,69,21,1,-32
-26,11,37,8,-32,24,28,46,75,25,3,-31
-26,11,37,8,-32,24,30,52,82,28,5,-31
-27,11,37,8,-32,24,31,58,88,31,6,-31
-27,11,38,7,-33,25,33,63,95,35,7,-31
-27,12,38,7,-33,25,35,68,102,38,8,-31
-27,12,39,7,-34,26,35,73,108,41,10,-31
-27,13,40,7,-34,26,35,77,113,44,11,-32
-28,13,41,7,-35,27,35,81,119,47,13,-32
-28,14,41,7,-35,27,36,86,125,49,13,-33
-29,14,42,7,-36,28,37,91,131,50,14,-33
-29,14,42,7,-36,28,38,97,138,52,14,-34
-30,14,43,7,-36,28,40,102,144,55,14,-34
-30,14,44,7,-37,29,41,105,150,57,14,-35
-31,14,45,8,-38,29,42,108,156,59,14,-37
-31,14,46,8,-39,30,43,111,161,61,13,-38
-32,15,47,8,-40,31,44,113,166,63,13,-39
-33,15,49,9,-41,32,45,117,170,64,13,-41
-35,15,50,9,-42,33,47,121,175,65,12,-42
-36,15,51,10,-44,33,50,125,180,66,11,-44
-37,15,52,10,-45,33,52,129,184,67,10,-46
-38,15,53,11,-45,34,55,132,189,68,9,-47
-38,16,53,11,-46,34,57,134,192,70,9,-49
-38,16,54,11,-46,35,58,136,195,71,9,-50
-39,16,55,11,-47,35,59,137,197,72,9,-51
-39,17,56,11,-47,36,60,138,198,72,9,-52
-39,17,56,11,-48,37,61,139,199,73,9,-53
-39,18,57,11,-48,37,62,140,200,73,9,-54
-39,18,57,10,-48,38,63,141,201,73,10,-54
-39,18,57,10,-48,38,64,142,202,74,10,-54
-39,18,57,10,-48,38,65,141,202,74,11,-54
-39,18,58,10,-48,38,65,140,201,75,12,-54
-39,18,58,10,-49,38,64,138,200,75,13,-54
-39,18,59,10,-49,39,64,137,198,75,14,-53
-40,18,59,10,-50,39,64,135,195,75,15,-53
-40,18,59,10,-50,39,64,134,193,75,16,-53
-40,18,59,10,-50,38,64,133,190,75,17,-52
-40,18,58,10,-49,38,64,131,187,75,18,-52
-40,17,58,10,-49,37,64,128,184,75,19,-51
-39,17,57,10,-48,37,62,125,180,75,21,-51
-39,17,56,10,-48,36,60,121,175,74,22,-50
-38,16,55,10,-47,36,58,117,171,74,24,-49
-38,16,54,10,-46,35,56,113,165,74,26,-47
-37,16,53,10,-45,35,54,110,160,74,27,-46
-36,16,52,10,-44,34,52,108,155,74,29,-44
-35,15,50,9,-43,33,50,105,150,74,31,-42
-34,15,49,9,-42,32,49,101,145,73,32,-40
-32,15,47,8,-40,31,47,97,139,72,34,-38
-30,15,46,7,-39,31,45,93,133,71,35,-36
-29,15,45,6,-38,30,44,88,126,70,36,-34
-28,15,44,6,-37,30,42,84,118,68,36,-33
-27,15,43,6,-36,29,40,80,111,65,36,-33
-27,15,42,6,-35,28,38,76,104,62,36,-32
-27,14,41,6,-35,28,36,73,98,59,35,-32
-27,13,41,7,-34,27,34,69,91,55,33,-31
-27,12,40,7,-34,26,32,64,84,51,32,-31
-27,11,39,8,-33,25,30,60,77,47,30,-31
-27,10,38,8,-33,24,28,55,71,43,29,-31
-27,9,37,9,-32,23,26,52,64,40,28,-31
-27,8,36,9,-32,22,24,49,58,37,27,-31
-26,8,36,9,-31,22,22,46,53,34,26,-31
-26,8,35,9,-31,21,21,43,48,32,25,-31
-26,9,35,8,-31,22,20,41,43,29,24,-30
-26,9,35,8,-31,22,19,38,39,26,23,-30
-26,9,35,8,-31,22,18,35,35,23,22,-30
-26,9,35,8,-31,22,16,31,30,20,20,-30
-26,9,34,8,-31,22,15,27,25,17,19,-31
-26,9,34,8,-31,22,13,23,21,14,17,-31
-26,9,35,8,-31,22,12,20,16,11,16,-32
-27,8,35,8,-31,22,10,17,13,9,15,-33
-27,8,35,8,-31,21,8,15,10,6,13,-34
-27,7,35,9,-31,21,7,12,7,4,12,-35
-27,7,35,9,-31,20,6,9,5,2,11,-35
-28,6,35,10,-32,20,5,7,2,0,10,-36
-29,6,35,11,-32,20,5,5,0,-1,10,-36
-30,5,35,11,-33,20,4,3,-2,-2,9,-36
-31,5,35,12,-33,20,4,2,-4,-3,8,-37
-31,5,36,12,-34,20,4,2,-5,-4,8,-37
-32,5,36,13,-34,20,4,1,-6,-5,7,-38
-32,5,37,13,-35,20,4,0,-7,-6,6,-39
-32,5,37,13,-35,21,4,0,-7,-6,6,-40
-32,5,37,14,-35,21,3,-1,-8,-7,5,-40
-33,4,37,14,-36,21,3,-2,-9,-7,5,-41
-34,4,37,15,-36,21,3,-3,-10,-7,5,-41
-35,3,37,15,-36,21,4,-3,-11,-7,5,-42
-35,2,37,16,-36,20,4,-3,-12,-7,5,-42
-36,1,37,16,-36,20,4,-3,-12,-7,4,-43
-36,1,37,17,-37,19,4,-3,-12,-7,4,-43
-36,1,37,17,-37,19,5,-3,-12,-7,4,-44
-36,0,37,18,-37,19,5,-3,-12,-7,4,-44
-37,0,38,18,-38,19,6,-3,-12,-7,4,-44
-38,0,38,19,-38,19,6,-3,-12,-7,4,-44
-39,0,38,19,-38,19,6,-3,-13,-7,4,-44
-40,-1,38,20,-39,18,6,-4,-13,-7,4,-45
-41,-2,38,21,-40,18,6,-4,-14,-7,4,-45
-42,-3,38,22,-40,18,6,-4,-14,-7,4,-45
-42,-4,38,22,-40,17,5,-5,-15,-7,3,-45
-42,-5,37,23,-40,16,5,-6,-16,-7,3,-46
-42,-6,37,23,-40,15,4,-8,-17,-8,2,-46
-42,-7,36,24,-39,14,3,-9,-19,-9,1,-47
-42,-7,35,24,-38,14,1,-11,-20,-10,0,-48
-42,-8,34,24,-38,13,0,-12,-22,-11,0,-49
-41,-8,33,24,-37,13,-1,-13,-23,-12,-1,-50
-41,-8,32,24,-37,12,-2,-14,-24,-12,-1,-51
-40,-9,31,24,-36,11,-3,-15,-25,-13,-2,-52
-40,-9,31,24,-36,11,-4,-16,-26,-13,-2,-53
-41,-9,32,24,-37,11,-4,-17,-27,-14,-3,-54
-41,-9,32,25,-37,11,-5,-18,-28,-15,-4,-55
-42,-9,33,25,-37,11,-5,-19,-29,-15,-4,-55
-43,-10,33,26,-38,11,-6,-19,-29,-15,-4,-56
-43,-10,33,26,-38,11,-6,-20,-29,-15,-4,-56
-44,-10,33,27,-39,11,-6,-20,-29,-15,-4,-57
-44,-10,34,27,-39,11,-6,-20,-30,-15,-4,-57
-44,-10,34,27,-39,11,-6,-20,-30,-15,-4,-58
-45,-10,35,27,-40,12,-5,-20,-30,-14,-4,-58
-46,-10,36,27,-41,12,-4,-20,-30,-14,-4,-58
-47,-10,37,28,-42,12,-4,-20,-31,-14,-4,-58
-49,-11,37,29,-43,12,-3,-19,-31,-14,-4,-58
-50,-11,38,30,-44,13,-3,-19,-32,-14,-4,-59
-52,-12,39,32,-46,13,-2,-19,-32,-14,-4,-59
-53,-13,39,33,-47,13,-2,-19,-33,-14,-4,-60
-54,-14,39,34,-47,13,-2,-20,-33,-14,-4,-60
-55,-15,39,35,-47,12,-2,-20,-34,-14,-4,-60
-56,-16,40,35,-48,12,-2,-20,-35,-14,-4,-60
-56,-16,40,36,-48,11,-3,-21,-35,-14,-4,-60
-56,-17,40,36,-48,11,-4,-21,-36,-14,-5,-60
-56,-17,40,36,-48,11,-5,-22,-36,-14,-5,-60
-56,-17,39,36,-48,11,-5,-22,-37,-14,-5,-61
-56,-17,39,36,-48,11,-6,-23,-37,-15,-5,-61
-56,-17,39,36,-47,11,-6,-23,-38,-15,-5,-62
-56,-17,39,36,-47,11,-5,-23,-38,-16,-5,-62
-56,-17,38,36,-47,11,-5,-23,-38,-16,-6,-63
-56,-17,38,36,-47,11,-5,-23,-39,-16,-6,-63
-56,-17,38,36,-47,11,-5,-24,-39,-17,-7,-64
-56,-17,39,36,-48,11,-5,-24,-39,-17,-8,-64
-56,-17,39,36,-48,11,-4,-25,-40,-18,-9,-65
-56,-17,39,36,-48,11,-4,-25,-40,-18,-9,-66
-57,-17,39,36,-48,11,-3,-25,-40,-19,-9,-66
-57,-17,39,36,-48,11,-3,-25,-40,-19,-9,-67
-57,-17,39,36,-48,11,-4,-26,-41,-19,-10,-68
-57,-17,39,36,-48,11,-4,-26,-41,-20,-10,-69
-57,-17,39,36,-48,11,-4,-27,-42,-20,-11,-70
-56,-17,39,36,-48,11,-4,-28,-43,-21,-12,-70
-56,-17,39,36,-48,10,-4,-29,-43,-22,-12,-71
-56,-17,39,36,-48,10,-4,-29,-43,-22,-13,-72
-56,-17,38,36,-47,10,-4,-28,-42,-23,-14,-73
-56,-18,37,37,-47,9,-3,-25,-40,-23,-16,-76
-56,-20,35,37,-46,7,-1,-20,-36,-23,-19,-80
-55,-22,33,38,-45,6,1,-14,-30,-22,-23,-85
-54,-24,30,39,-43,3,3,-8,-25,-21,-26,-89
-53,-25,27,39,-40,1,5,-3,-19,-18,-27,-92
-51,-26,25,38,-38,0,5,0,-14,-14,-26,-94
-49,-25,24,37,-37,0,5,0,-10,-7,-22,-94
-47,-23,24,35,-35,0,3,-1,-8,-1,-17,-92
-44,-20,24,32,-34,2,1,-5,-6,6,-10,-89
-40,-16,24,28,-33,4,-2,-8,-2,18,2,-80
-37,-11,26,24,-32,7,-6,-11,4,33,21,-67
-33,-4,28,18,-31,12,-10,-12,13,52,44,-49
-29,2,31,13,-30,16,-14,-12,25,78,73,-28
-24,9,33,7,-29,21,-18,-10,42,111,111,0
-19,17,36,0,-27,27,-23,-8,60,152,160,37
-11,26,38,-7,-24,32,-29,-7,74,196,214,79
-3,34,38,-15,-21,36,-36,-8,76,237,268,122
4,42,38,-23,-17,39,-43,-13,64,272,318,164
12,48,37,-30,-13,42,-50,-22,43,304,367,207
19,53,35,-36,-8,43,-57,-35,15,331,411,246
25,56,32,-41,-4,44,-63,-48,-17,347,443,277
29,58,30,-44,-1,44,-67,-60,-48,351,458,297
32,61,30,-47,1,46,-71,-72,-83,337,454,305
34,63,30,-49,2,47,-74,-87,-128,293,420,296
33,59,26,-46,3,43,-74,-105,-184,213,350,265
29,48,18,-39,5,33,-69,-127,-252,99,246,212
23,32,8,-28,7,20,-63,-153,-329,-44,116,140
15,14,-1,-15,7,6,-56,-179,-404,-189,-20,62
5,-4,-9,-1,7,-6,-45,-200,-463,-309,-132,-6
-5,-22,-16,14,5,-19,-31,-213,-500,-390,-211,-60
-17,-40,-22,28,3,-31,-16,-221,-517,-437,-261,-101
-28,-54,-25,40,0,-39,-6,-229,-521,-458,-289,-130
-36,-62,-26,49,-4,-44,-3,-240,-517,-463,-301,-150
-42,-66,-24,54,-9,-45,-7,-250,-506,-457,-306,-168
-47,-67,-19,56,-14,-43,-16,-258,-490,-445,-307,-185
-51,-63,-12,57,-20,-38,-27,-262,-467,-426,-303,-200
-54,-58,-3,56,-26,-31,-38,-262,-438,-401,-292,-209
-56,-52,4,54,-30,-24,-49,-258,-406,-372,-276,-212
-57,-47,11,53,-34,-18,-57,-250,-372,-341,-257,-211
-59,-43,16,51,-37,-13,-62,-237,-336,-309,-236,-208
-60,-39,21,50,-40,-8,-63,-219,-297,-275,-215,-204
-61,-36,25,49,-42,-5,-61,-196,-257,-241,-193,-200
-61,-35,26,48,-44,-4,-56,-170,-217,-207,-171,-195
-61,-34,26,47,-44,-4,-50,-144,-177,-174,-148,-187
-60,-34,26,47,-44,-4,-43,-117,-139,-142,-126,-177
-60,-33,27,46,-44,-3,-35,-91,-105,-115,-105,-167
-59,-32,28,45,-43,-2,-28,-70,-76,-91,-87,-158
-58,-32,27,45,-42,-2,-22,-53,-53,-73,-73,-151
-57,-32,25,44,-40,-3,-17,-40,-36,-58,-63,-146
-56,-32,25,44,-40,-3,-14,-29,-22,-47,-54,-142
-56,-31,25,44,-40,-3,-12,-21,-11,-38,-48,-139
-55,-31,24,43,-41,-3,-10,-13,-2,-31,-44,-137
-55,-31,25,43,-41,-3,-8,-7,5,-26,-41,-135
-56,-31,25,43,-41,-3,-6,-2,12,-22,-39,-134
-56,-31,25,44,-41,-3,-5,1,17,-20,-38,-134
-57,-32,25,44,-41,-3,-3,5,22,-18,-37,-133
-57,-32,25,45,-41,-3,-1,8,27,-16,-37,-133
-57,-33,25,45,-41,-3,0,12,32,-14,-36,-134
-57,-33,24,45,-41,-4,2,17,37,-12,-36,-134
-57,-34,24,45,-41,-4,3,21,42,-10,-36,-135
-57,-34,23,46,-41,-5,5,26,48,-9,-36,-135
-58,-35,23,46,-41,-5,7,30,53,-8,-36,-136
-59,-35,23,47,-41,-6,9,35,59,-6,-37,-137
-59,-36,23,47,-41,-6,11,39,64,-5,-37,-138
-60,-37,23,48,-41,-7,13,43,70,-3,-38,-139
-60,-37,22,48,-41,-7,15,48,76,-2,-39,-141
-60,-38,22,49,-41,-8,17,53,82,0,-39,-142
-60,-38,22,49,-41,-8,19,59,88,1,-40,-144
-60,-39,22,49,-41,-9,21,65,95,2,-40,-145
-60,-39,21,49,-41,-9,23,71,102,4,-41,-146
-60,-40,21,50,-41,-9,25,77,109,5,-41,-147
-60,-41,20,50,-40,-10,26,82,115,7,-42,-148
-60,-41,19,50,-39,-11,28,86,121,8,-42,-149
-60,-42,17,50,-38,-12,30,91,127,10,-42,-150
-59,-42,16,50,-37,-13,31,97,133,12,-42,-151
-59,-43,15,51,-37,-14,33,103,139,14,-43,-152
-59,-45,14,51,-37,-15,35,109,144,16,-43,-152
-59,-46,13,52,-37,-16,37,114,150,17,-43,-152
-60,-47,12,53,-36,-17,39,119,154,19,-43,-152
-60,-49,11,54,-36,-18,41,123,159,20,-42,-151
-60,-50,11,55,-36,-19,43,126,163,22,-41,-150
-61,-51,10,55,-36,-20,44,129,167,25,-40,-149
-61,-52,9,56,-35,-21,45,132,170,28,-37,-148
-61,-52,9,56,-35,-21,46,136,174,32,-34,-145
-61,-53,8,56,-35,-22,46,140,177,36,-29,-142
-61,-53,8,56,-34,-22,46,143,181,40,-24,-138
-60,-53,7,56,-34,-22,46,145,184,45,-19,-134
-60,-53,7,56,-33,-23,45,146,186,51,-13,-130
-59,-53,6,56,-33,-23,45,147,188,56,-6,-125
-58,-51,7,55,-32,-22,44,147,190,62,0,-120
-57,-49,8,53,-32,-20,43,147,192,69,7,-114
-56,-47,9,52,-32,-19,42,148,194,76,15,-108
-55,-47,8,51,-31,-19,41,149,196,84,25,-101
-55,-47,8,51,-31,-19,40,149,197,92,34,-94
-54,-45,9,49,-32,-18,39,148,198,100,43,-87
-54,-43,10,48,-32,-16,37,146,199,107,52,-80
-53,-41,12,47,-33,-15,36,144,199,114,61,-73
-53,-39,14,46,-33,-13,34,141,198,121,70,-66
-52,-36,15,44,-33,-10,33,139,197,128,79,-59
-51,-34,17,42,-34,-8,31,136,196,135,87,-53
-51,-31,19,40,-35,-6,29,134,194,141,95,-46
-50,-28,21,39,-35,-3,27,130,192,146,103,-40
-49,-26,22,37,-36,-1,24,126,189,150,109,-35
-48,-23,24,35,-36,0,22,122,185,153,115,-30
-47,-21,25,34,-36,1,20,117,181,155,119,-25
-46,-20,25,32,-35,2,18,112,176,157,123,-21
-45,-18,26,31,-35,3,16,107,171,158,125,-18
-43,-16,26,30,-35,4,14,103,166,159,127,-16
-42,-15,26,28,-34,5,11,98,159,158,127,-14
-41,-13,27,27,-34,6,9,93,152,156,127,-12
-40,-12,27,26,-34,7,6,88,145,153,126,-11
-39,-11,27,25,-33,8,4,83,138,149,125,-11
-38,-11,27,24,-32,8,1,77,131,144,122,-11
-37,-10,27,24,-31,8,0,72,124,139,119,-11
-36,-10,26,23,-30,8,-2,66,117,133,115,-11
-36,-10,26,23,-30,8,-4,61,110,128,111,-12
-35,-10,25,22,-29,8,-5,57,102,122,107,-13
-34,-10,24,22,-29,7,-7,53,95,117,104,-15
-34,-10,23,22,-28,6,-8,50,89,111,100,-16
-34,-11,22,22,-28,6,-8,46,83,105,97,-18
-33,-11,22,22,-27,5,-9,42,77,99,93,-19
-33,-11,21,23,-27,5,-9,37,71,93,88,-21
-33,-12,21,23,-27,4,-10,33,65,86,83,-23
-34,-12,21,24,-27,4,-10,29,58,81,78,-25
-34,-13,21,24,-27,3,-10,26,52,75,74,-27
-35,-14,21,25,-27,3,-10,23,47,70,70,-29
-36,-15,21,25,-28,3,-10,21,42,65,66,-31
-37,-15,22,26,-29,3,-11,18,37,60,63,-33
-38,-16,22,27,-30,3,-12,16,33,55,60,-35
-39,-16,22,27,-31,3,-12,13,29,50,56,-37
-39,-17,22,28,-31,2,-13,9,25,45,52,-39
-39,-17,22,28,-30,2,-13,6,21,41,49,-40
-39,-18,21,28,-30,1,-14,3,17,37,45,-42
-38,-18,20,28,-29,0,-16,0,13,32,41,-44
-38,-19,19,28,-28,0,-17,-4,8,28,38,-46
-38,-20,17,28,-27,-1,-18,-8,3,23,34,-48
-38,-20,16,29,-27,-2,-19,-12,-1,17,30,-51
-37,-21,16,29,-27,-2,-20,-16,-6,12,26,-53
-37,-21,16,29,-27,-3,-21,-19,-10,8,22,-56
-37,-21,16,29,-26,-3,-22,-22,-13,4,18,-58
-37,-21,16,29,-26,-3,-23,-24,-17,1,15,-60
-36,-21,15,29,-25,-3,-24,-26,-19,-1,13,-61
-36,-21,15,29,-25,-3,-25,-27,-22,-3,11,-62
-35,-21,14,28,-24,-3,-26,-28,-24,-5,10,-62
-35,-21,14,28,-24,-3,-27,-29,-25,-7,8,-63
-35,-21,13,27,-24,-3,-27,-30,-26,-9,6,-63
-34,-21,13,27,-24,-4,-27,-31,-27,-11,4,-64
-34,-21,13,27,-23,-4,-27,-32,-28,-13,2,-64
-34,-21,13,27,-23,-4,-28,-33,-30,-14,1,-65
-34,-21,13,27,-23,-4,-28,-33,-31,-16,0,-65
-34,-22,13,28,-23,-4,-28,-33,-32,-17,-1,-66
-34,-22,12,28,-23,-4,-28,-33,-33,-17,-2,-67
-34,-22,12,28,-23,-5,-28,-33,-33,-19,-3,-68
-34,-22,11,28,-22,-5,-28,-33,-34,-20,-4,-69
-33,-22,11,28,-22,-5,-27,-33,-34,-21,-5,-69
-33,-22,10,28,-21,-5,-26,-33,-34,-22,-7,-70
-33,-22,10,28,-21,-6,-25,-33,-34,-23,-8,-70
-33,-22,10,28,-21,-6,-25,-32,-34,-23,-9,-70
-33,-22,10,28,-21,-6,-24,-32,-34,-23,-9,-70
-33,-22,10,28,-21,-6,-24,-31,-34,-23,-9,-71
-33,-22,10,28,-21,-6,-23,-31,-34,-23,-9,-71
-33,-23,10,28,-21,-6,-23,-30,-33,-23,-9,-71
-33,-23,10,28,-21,-7,-22,-29,-33,-23,-9,-72
-33,-24,9,28,-21,-7,-22,-28,-32,-23,-9,-72
-33,-24,9,28,-21,-7,-21,-27,-31,-23,-9,-72
-33,-24,8,29,-21,-8,-21,-27,-31,-23,-10,-72
-33,-25,8,29,-20,-8,-21,-26,-30,-23,-10,-72
-33,-25,7,30,-20,-9,-20,-26,-30,-23,-10,-72
-33,-26,7,30,-20,-9,-20,-25,-30,-23,-10,-73
-33,-26,6,30,-19,-10,-19,-25,-30,-23,-10,-73
-33,-27,5,30,-19,-11,-19,-24,-30,-23,-10,-73
-33,-27,5,30,-19,-11,-18,-24,-30,-23,-11,-73
-34,-28,5,30,-19,-11,-18,-24,-30,-23,-11,-73
-35,-28,6,31,-20,-10,-17,-24,-30,-23,-11,-73
-36,-28,7,31,-21,-10,-16,-24,-29,-23,-11,-73
-37,-28,8,32,-22,-10,-16,-24,-29,-22,-11,-73
-38,-29,8,33,-22,-10,-15,-24,-29,-22,-11,-73
-39,-29,9,34,-23,-10,-15,-24,-29,-22,-11,-73
-40,-29,10,35,-24,-9,-15,-25,-29,-22,-11,-73
-40,-29,11,35,-25,-8,-15,-26,-30,-22,-11,-73
-41,-29,12,35,-26,-8,-15,-27,-30,-22,-11,-73
-41,-28,13,35,-27,-7,-14,-28,-30,-22,-11,-73
-41,-28,14,35,-28,-7,-14,-28,-30,-21,-12,-73
-41,-27,14,35,-28,-6,-14,-27,-29,-21,-12,-73
-41,-27,14,35,-28,-6,-13,-24,-25,-19,-13,-75
-41,-27,13,35,-27,-7,-12,-18,-18,-15,-14,-77
-40,-27,12,34,-26,-7,-11,-11,-9,-8,-13,-78
-39,-27,11,33,-25,-8,-11,-6,-1,0,-10,-78
-37,-27,10,32,-24,-8,-11,-2,6,9,-4,-76
-35,-25,11,31,-23,-7,-11,-2,11,19,3,-73
-34,-23,12,29,-23,-5,-12,-5,13,26,11,-68
-33,-19,14,26,-24,-2,-14,-10,14,34,22,-60
-32,-14,17,23,-24,1,-18,-15,16,46,39,-47
-31,-9,21,20,-25,6,-22,-20,20,62,62,-29
-30,-2,27,17,-28,11,-26,-23,27,84,91,-6
-25,4,30,11,-27,17,-31,-25,38,113,126,19
-19,11,31,4,-25,21,-36,-24,54,152,169,51
-14,18,32,-2,-23,25,-40,-20,69,194,215,85
-8,23,32,-8,-21,28,-44,-15,74,231,258,118
-3,29,32,-13,-18,30,-48,-14,62,257,294,149
2,34,32,-18,-15,33,-53,-19,37,275,328,180
7,38,31,-22,-12,34,-58,-25,6,286,356,210
11,41,28,-25,-8,34,-61,-30,-28,290,375,234
16,43,26,-29,-5,34,-64,-38,-64,285,381,249
20,45,25,-32,-3,35,-68,-51,-105,268,372,256
23,47,24,-34,-1,36,-71,-71,-155,229,345,255
23,49,26,-36,-2,38,-74,-98,-218,157,290,238
21,51,30,-36,-4,40,-76,-131,-294,49,201,201
17,47,30,-32,-6,38,-77,-166,-376,-84,87,147
11,38,27,-24,-7,32,-75,-199,-455,-224,-35,83
4,25,20,-14,-8,23,-70,-227,-520,-350,-147,19
-4,9,12,-2,-8,11,-62,-248,-566,-442,-231,-34
-12,-8,4,11,-8,-1,-54,-268,-593,-499,-287,-77
-21,-26,-3,24,-9,-13,-46,-285,-602,-527,-321,-109
-30,-40,-9,35,-10,-24,-40,-298,-596,-532,-335,-130
-36,-49,-11,43,-12,-30,-38,-308,-579,-521,-337,-142
-41,-52,-10,47,-15,-31,-41,-313,-553,-501,-331,-152
-45,-50,-4,48,-20,-27,-47,-313,-520,-475,-323,-164
-48,-46,2,47,-25,-22,-54,-306,-483,-445,-312,-175
-50,-41,9,46,-30,-15,-60,-294,-443,-411,-297,-182
-51,-36,16,44,-34,-9,-64,-278,-401,-375,-278,-183
-52,-31,22,42,-37,-4,-67,-260,-358,-339,-257,-180
-53,-28,27,41,-40,0,-67,-239,-316,-303,-235,-176
-54,-26,30,40,-42,2,-65,-217,-274,-268,-214,-172
-56,-26,31,40,-43,2,-59,-192,-233,-234,-193,-169
-57,-27,30,42,-43,0,-52,-165,-193,-202,-174,-165
-56,-30,26,43,-41,-3,-43,-137,-156,-171,-154,-159
-55,-34,21,45,-38,-6,-35,-111,-121,-141,-134,-150
-54,-36,17,46,-36,-9,-28,-86,-90,-113,-114,-140
-52,-38,14,46,-34,-11,-22,-66,-63,-89,-96,-131
-50,-40,11,46,-31,-13,-17,-50,-42,-70,-82,-123
-48,-41,8,45,-28,-16,-13,-38,-25,-55,-72,-117
-47,-42,5,45,-25,-18,-10,-29,-12,-44,-65,-113
-45,-42,3,44,-24,-20,-8,-21,-2,-36,-60,-110
-44,-42,1,43,-23,-20,-7,-15,6,-30,-56,-108
-43,-42,1,43,-22,-20,-6,-10,14,-24,-53,-107
-43,-41,1,42,-22,-20,-6,-6,20,-20,-51,-105
-42,-42,0,42,-21,-20,-6,-2,26,-15,-49,-105
-42,-42,0,43,-21,-20,-6,2,32,-11,-47,-104
-41,-43,-1,43,-20,-22,-7,6,37,-8,-46,-104
-40,-44,-3,43,-18,-23,-7,10,43,-6,-45,-104
-39,-45,-5,43,-17,-25,-7,14,48,-5,-44,-103
-38,-45,-7,42,-16,-26,-7,18,53,-4,-44,-103
-37,-46,-8,42,-15,-27,-6,22,58,-3,-44,-103
-36,-46,-9,42,-14,-28,-5,26,63,-1,-44,-103
-36,-47,-10,42,-13,-28,-3,30,68,0,-44,-103
-35,-47,-11,42,-12,-29,-1,35,73,2,-44,-103
-35,-48,-12,42,-11,-30,0,40,79,4,-44,-103
-35,-48,-13,42,-11,-31,3,45,85,6,-44,-103
-35,-49,-14,42,-10,-32,5,50,91,8,-44,-103
-35,-49,-14,42,-10,-32,6,56,98,10,-44,-103
-35,-50,-14,42,-10,-32,8,61,104,12,-44,-103
-35,-50,-14,43,-10,-32,9,66,111,14,-44,-103
-36,-50,-14,43,-11,-31,10,71,117,16,-44,-104
-36,-51,-14,44,-11,-32,11,76,122,18,-44,-105
-37,-51,-14,44,-11,-32,12,81,128,21,-44,-106
-37,-52,-15,45,-11,-33,13,86,133,23,-44,-107
-37,-53,-16,45,-10,-35,14,91,138,25,-44,-107
-37,-55,-17,46,-10,-36,15,96,143,27,-43,-108
-37,-56,-18,46,-9,-37,16,100,148,28,-43,-108
-37,-56,-19,47,-9,-37,17,104,153,30,-42,-108
-37,-57,-19,47,-9,-38,18,108,157,33,-40,-107
-38,-57,-20,48,-9,-38,19,112,161,36,-38,-106
-38,-58,-20,48,-9,-39,20,115,164,40,-35,-105
-38,-58,-20,49,-9,-39,22,117,167,44,-32,-103
-38,-59,-21,49,-9,-40,23,120,171,48,-28,-100
-38,-59,-21,49,-9,-40,24,123,174,51,-24,-97
-38,-59,-20,49,-9,-39,25,125,176,55,-20,-94
-39,-59,-20,49,-9,-39,25,127,179,60,-16,-90
-39,-59,-20,49,-9,-39,25,129,181,65,-10,-85
-38,-59,-20,49,-8,-39,25,130,182,70,-5,-81
-38,-59,-21,49,-8,-39,25,131,183,75,0,-77
-37,-59,-21,49,-8,-39,25,131,184,80,6,-72
-37,-59,-22,48,-7,-40,25,132,184,85,12,-68
-36,-59,-22,48,-7,-40,24,132,184,90,17,-63
-36,-58,-21,48,-7,-40,23,131,184,94,23,-58
-37,-58,-20,48,-8,-39,23,129,183,98,29,-53
-39,-57,-17,49,-10,-37,22,128,182,102,35,-47
-42,-57,-15,49,-13,-35,22,126,180,107,42,-42
-43,-56,-13,50,-15,-34,21,123,178,111,48,-36
-44,-56,-12,50,-16,-33,21,119,175,115,54,-31
-44,-55,-11,50,-16,-32,20,116,171,118,58,-26
-44,-54,-10,49,-16,-32,18,112,167,120,62,-21
-43,-53,-10,48,-16,-31,16,107,162,121,64,-17
-41,-51,-11,46,-15,-31,14,102,158,121,66,-14
-39,-50,-11,44,-14,-30,12,97,152,120,68,-11
-37,-48,-11,42,-13,-30,9,92,146,120,69,-9
-36,-47,-11,41,-12,-28,7,86,139,118,69,-8
-36,-46,-10,41,-13,-27,5,81,131,116,68,-8
-36,-45,-8,41,-14,-26,3,76,124,112,67,-8
-37,-45,-7,41,-15,-25,2,71,116,107,64,-8
-38,-44,-5,41,-16,-25,1,66,109,101,61,-9
-39,-44,-4,41,-17,-24,0,60,102,94,57,-11
-39,-43,-2,41,-18,-22,-1,55,94,88,53,-12
-40,-42,-1,41,-19,-21,-3,49,86,81,48,-14
-40,-41,0,41,-20,-20,-4,44,78,75,44,-16
-41,-40,2,41,-21,-18,-5,39,70,68,40,-17
-43,-40,3,41,-23,-17,-5,34,62,62,36,-19
-44,-40,5,41,-24,-16,-6,30,55,55,32,-20
-45,-40,6,42,-25,-16,-6,25,48,48,27,-22
-45,-40,6,42,-26,-16,-7,21,41,40,22,-24
-46,-40,7,43,-27,-16,-7,17,35,33,17,-26
-47,-40,8,43,-28,-15,-8,13,28,27,12,-28
-48,-40,9,44,-29,-15,-8,8,22,21,8,-30
-49,-40,10,44,-30,-14,-9,4,16,16,4,-32
-50,-40,11,45,-31,-14,-10,0,10,11,1,-33
-51,-40,11,45,-31,-14,-10,-3,4,5,-2,-35
-52,-40,11,46,-31,-14,-10,-6,0,0,-6,-36
-52,-41,11,46,-31,-15,-11,-9,-5,-6,-10,-37
-52,-41,10,47,-31,-15,-12,-13,-9,-11,-14,-39
-52,-42,10,47,-31,-16,-12,-16,-13,-15,-17,-40
-53,-42,10,48,-32,-16,-13,-20,-17,-19,-20,-42
-53,-43,11,48,-32,-16,-13,-22,-21,-22,-22,-43
-54,-43,11,49,-33,-16,-13,-24,-24,-25,-24,-44
-56,-44,12,50,-34,-16,-12,-26,-26,-28,-26,-46
-57,-45,12,51,-35,-16,-11,-26,-27,-31,-30,-48
-58,-46,12,52,-35,-16,-10,-24,-25,-34,-34,-52
-59,-47,12,53,-35,-17,-9,-21,-22,-36,-38,-56
-60,-48,12,54,-35,-18,-8,-18,-20,-36,-40,-58
-60,-49,11,55,-35,-18,-8,-18,-18,-35,-40,-59
-60,-49,11,55,-35,-18,-9,-19,-17,-31,-37,-58
-59,-47,12,54,-36,-17,-10,-23,-18,-27,-31,-54
-59,-45,14,52,-36,-14,-13,-29,-20,-24,-23,-48
-58,-42,16,50,-37,-12,-16,-36,-24,-20,-13,-40
-57,-39,18,48,-37,-9,-20,-43,-26,-14,1,-29
-55,-35,20,46,-37,-7,-24,-51,-27,-3,20,-14
-53,-32,21,43,-37,-4,-29,-58,-28,11,42,2
-51,-28,22,40,-37,-2,-33,-63,-26,30,66,19
-47,-25,22,37,-36,-1,-37,-65,-22,54,94,38
-43,-22,21,33,-33,0,-41,-66,-22,79,122,58
-39,-19,20,29,-29,1,-45,-68,-31,101,150,78
-33,-16,17,25,-25,1,-49,-70,-49,120,176,99
-27,-14,13,20,-19,0,-54,-71,-70,140,204,122
-20,-13,6,16,-12,-2,-58,-68,-86,162,229,145
-12,-12,0,12,-5,-5,-61,-63,-99,181,245,162
-4,-12,-7,8,1,-8,-65,-60,-114,192,249,172
3,-12,-16,5,9,-13,-67,-58,-132,191,241,177
10,-14,-24,2,17,-18,-70,-60,-161,170,220,176
16,-15,-31,0,23,-23,-74,-70,-205,118,175,163
19,-16,-36,-1,28,-26,-79,-90,-267,26,99,132
19,-20,-40,0,30,-30,-84,-115,-341,-103,-4,84
17,-29,-47,5,33,-37,-85,-140,-416,-247,-116,28
14,-42,-57,14,35,-49,-83,-165,-485,-377,-215,-23
8,-56,-64,24,36,-59,-81,-197,-542,-473,-288,-66
0,-68,-67,34,33,-66,-78,-231,-582,-533,-337,-100
-11,-79,-68,45,28,-73,-74,-260,-602,-561,-362,-123
-21,-87,-65,54,22,-76,-71,-283,-602,-563,-367,-134
-30,-88,-57,59,13,-73,-72,-301,-587,-547,-359,-138
-38,-83,-44,61,3,-64,-75,-311,-560,-523,-347,-143
-46,-75,-28,61,-8,-52,-78,-314,-525,-494,-336,-152
-53,-66,-11,61,-21,-38,-80,-309,-482,-459,-323,-162
-59,-57,3,59,-31,-26,-81,-298,-436,-420,-304,-166
-64,-49,15,58,-40,-16,-80,-282,-388,-379,-281,-164
-67,-44,24,57,-46,-8,-78,-260,-340,-336,-255,-158
-70,-40,30,56,-51,-3,-72,-233,-291,-293,-228,-152
-73,-38,33,56,-53,-2,-64,-201,-242,-252,-203,-147
-74,-40,33,58,-54,-3,-54,-167,-196,-213,-179,-143
-75,-44,30,60,-52,-7,-44,-134,-153,-177,-157,-137
-74,-49,25,62,-49,-12,-35,-105,-114,-143,-135,-128
-72,-52,20,63,-46,-15,-27,-81,-81,-114,-115,-118
-71,-54,17,63,-44,-18,-21,-61,-55,-89,-97,-109
-70,-55,15,63,-43,-19,-17,-46,-34,-70,-83,-102
-70,-56,14,63,-42,-20,-15,-35,-19,-55,-73,-96
-70,-56,13,63,-41,-21,-13,-26,-7,-44,-66,-92
-69,-56,12,63,-40,-21,-11,-18,2,-36,-60,-89
-69,-56,12,62,-40,-21,-9,-11,11,-30,-57,-87
-69,-55,13,62,-40,-21,-7,-5,18,-25,-54,-85
-69,-55,13,62,-41,-20,-5,0,25,-21,-52,-84
-69,-55,14,62,-41,-20,-4,3,31,-17,-51,-83
-68,-55,13,62,-41,-20,-3,8,36,-13,-49,-82
-68,-55,12,62,-40,-21,-2,13,41,-10,-48,-82
-67,-56,11,62,-39,-22,-1,18,47,-7,-46,-81
-66,-56,9,62,-38,-23,0,24,52,-4,-45,-81
-66,-57,8,62,-37,-24,1,30,58,-2,-45,-80
-66,-58,7,62,-36,-25,3,35,64,-1,-45,-80
-66,-58,7,62,-36,-25,5,39,69,0,-46,-79
-66,-59,6,62,-36,-26,6,43,75,1,-46,-79
-66,-59,6,62,-36,-26,7,48,80,3,-47,-79
-66,-60,5,63,-35,-27,8,52,85,5,-47,-79
-66,-60,5,63,-35,-27,9,57,90,7,-47,-79
-65,-61,5,63,-35,-27,10,63,95,9,-47,-79
-65,-61,4,63,-35,-28,11,68,101,11,-47,-80
-65,-61,4,63,-35,-28,13,74,108,12,-48,-80
-65,-62,4,64,-35,-28,15,79,114,13,-48,-81
-65,-62,4,64,-35,-28,17,83,119,14,-49,-81
-66,-62,4,65,-35,-28,19,87,125,16,-49,-82
-67,-63,4,66,-36,-29,20,91,129,18,-50,-83
-68,-65,3,67,-36,-30,22,95,133,20,-50,-85
-69,-66,3,68,-36,-31,24,99,137,22,-50,-86
-70,-68,3,69,-36,-32,26,103,141,23,-50,-86
-71,-69,3,70,-37,-32,28,106,145,24,-50,-87
-72,-69,3,71,-38,-32,30,108,149,25,-50,-87
-73,-70,4,72,-39,-32,31,109,151,27,-49,-87
-74,-70,4,72,-40,-32,31,109,153,28,-48,-87
-75,-70,5,72,-40,-32,32,109,155,30,-47,-86
-76,-70,5,73,-41,-32,32,109,156,33,-45,-85
-76,-70,7,73,-41,-31,32,109,157,35,-42,-83
-77,-69,8,73,-42,-30,32,109,158,37,-39,-81
-77,-68,10,73,-43,-28,32,109,159,39,-36,-78
-77,-67,11,72,-44,-27,32,109,160,41,-34,-75
-77,-66,11,71,-44,-26,32,107,160,42,-31,-73
-77,-65,12,70,-44,-26,31,105,160,44,-28,-70
-76,-64,12,69,-44,-25,30,103,158,46,-25,-68
-76,-63,12,69,-44,-25,28,100,156,48,-22,-65
-75,-62,13,68,-44,-24,26,98,154,49,-18,-61
-75,-61,15,68,-44,-22,25,96,152,51,-15,-58
-75,-59,16,68,-45,-21,24,94,150,52,-11,-54
-75,-58,17,67,-45,-20,23,92,148,54,-8,-50
-75,-57,18,66,-45,-18,23,89,146,55,-4,-46
-75,-55,19,66,-46,-17,22,87,144,57,0,-42
-75,-54,21,65,-48,-16,20,84,141,58,4,-38
-75,-53,22,64,-49,-15,18,82,138,61,8,-34
-75,-51,24,64,-50,-13,16,79,134,63,12,-30
-75,-50,25,63,-50,-12,14,76,131,64,16,-26
-75,-49,26,63,-50,-11,12,73,127,65,19,-22
-75,-48,26,62,-50,-10,11,70,123,66,22,-18
-76,-47,28,62,-51,-9,9,67,119,66,24,-14
-77,-46,30,62,-53,-7,8,64,115,66,26,-11
-77,-45,31,61,-53,-7,6,61,110,65,28,-9
-75,-45,30,60,-52,-7,3,56,104,64,29,-7
-73,-45,29,59,-51,-8,1,51,97,63,29,-5
-71,-45,27,58,-49,-9,-2,46,90,60,29,-3
-69,-45,24,57,-46,-10,-4,41,82,57,29,-1
-67,-45,21,56,-43,-11,-7,36,75,53,27,0
-64,-45,18,55,-40,-12,-9,30,68,48,25,2
-62,-45,16,54,-38,-14,-11,25,61,44,23,3
-60,-45,14,53,-37,-15,-13,21,55,40,20,3
-59,-46,14,52,-36,-15,-15,16,48,36,18,4
-59,-46,13,52,-36,-16,-17,12,41,32,16,4
-59,-47,13,53,-36,-17,-18,8,35,28,14,4
-59,-48,12,54,-35,-18,-19,5,29,24,12,4
-59,-49,10,55,-35,-19,-20,2,23,20,10,4
-59,-50,9,55,-34,-20,-20,-1,18,16,7,4
-59,-51,7,55,-33,-21,-21,-5,12,12,5,4
-59,-52,6,56,-32,-22,-22,-9,7,8,2,4
-59,-53,5,56,-31,-23,-22,-12,2,4,0,4
-59,-54,5,57,-32,-24,-23,-15,-2,1,-2,4
-60,-55,5,57,-32,-24,-24,-17,-6,-1,-4,3
-61,-55,6,58,-33,-24,-24,-19,-10,-4,-5,3
-62,-55,7,59,-34,-24,-24,-21,-13,-7,-6,3
-64,-56,8,60,-36,-23,-24,-23,-16,-10,-8,3
-65,-56,8,61,-37,-23,-24,-25,-18,-13,-9,2
-67,-57,9,62,-38,-23,-24,-27,-20,-15,-11,2
-68,-57,11,63,-39,-23,-24,-28,-22,-17,-12,2
-69,-57,12,63,-40,-22,-24,-30,-25,-18,-14,1
-70,-57,13,64,-41,-21,-24,-32,-27,-19,-15,1
-70,-57,13,64,-41,-21,-24,-33,-29,-20,-15,1
-71,-57,14,64,-42,-21,-24,-34,-31,-21,-15,1
-71,-57,14,64,-42,-21,-24,-34,-31,-22,-15,1
-71,-57,14,64,-42,-21,-24,-35,-32,-23,-16,1
-71,-57,14,64,-42,-20,-24,-35,-32,-24,-17,1
-71,-56,14,64,-42,-20,-24,-36,-33,-25,-18,1
-70,-56,14,63,-42,-20,-24,-37,-34,-25,-19,0
-69,-56,14,63,-42,-20,-24,-37,-35,-26,-19,0
-68,-55,14,62,-41,-20,-24,-38,-36,-26,-20,0
-68,-55,13,62,-41,-20,-24,-39,-38,-27,-20,0
-68,-55,13,61,-40,-20,-24,-40,-39,-28,-21,0
-67,-55,12,61,-40,-20,-25,-42,-40,-30,-22,-1
-67,-55,12,61,-39,-21,-25,-43,-40,-31,-24,-1
-66,-55,12,60,-39,-21,-26,-44,-41,-31,-25,-1
-65,-54,11,60,-38,-21,-26,-45,-42,-32,-26,-1
-64,-54,11,59,-37,-21,-27,-46,-42,-32,-26,-1
-63,-53,10,58,-36,-21,-28,-46,-43,-32,-27,-2
-62,-53,10,57,-36,-21,-28,-46,-44,-32,-27,-2
-62,-52,10,57,-36,-21,-28,-46,-44,-32,-27,-2
-62,-52,10,57,-36,-21,-28,-47,-45,-33,-27,-2
-62,-52,10,57,-36,-21,-28,-47,-45,-33,-28,-2
-62,-52,10,57,-36,-21,-29,-48,-45,-33,-28,-2
-61,-52,10,56,-36,-21,-29,-49,-45,-34,-29,-2
-61,-52,9,56,-35,-21,-29,-49,-46,-34,-30,-2
-61,-52,9,56,-35,-21,-29,-50,-47,-34,-31,-2
-60,-52,9,56,-35,-21,-29,-50,-48,-34,-31,-2
-60,-52,8,56,-35,-21,-29,-51,-48,-35,-31,-2
-60,-53,8,56,-35,-22,-29,-51,-49,-35,-32,-2
-60,-53,8,57,-35,-22,-29,-52,-49,-35,-32,-2
-60,-53,8,57,-35,-22,-29,-52,-49,-35,-32,-2
-61,-53,8,57,-35,-22,-29,-52,-49,-35,-32,-2
-61,-53,8,58,-35,-22,-29,-52,-50,-36,-33,-2
-62,-54,9,58,-35,-22,-29,-53,-50,-36,-34,-3
-64,-54,9,59,-36,-22,-29,-53,-50,-37,-34,-3
-65,-54,10,60,-38,-22,-28,-54,-51,-37,-35,-4
-67,-55,12,61,-39,-21,-28,-54,-51,-37,-35,-4
-69,-56,13,62,-41,-21,-28,-54,-51,-37,-35,-5
-71,-56,15,63,-43,-20,-28,-54,-51,-37,-35,-5
-74,-57,17,65,-46,-19,-27,-54,-51,-37,-35,-5
-77,-57,19,67,-48,-18,-25,-53,-51,-37,-35,-5
-79,-58,22,68,-51,-17,-24,-53,-51,-37,-34,-5
-82,-58,24,70,-53,-16,-23,-52,-51,-37,-34,-4
-85,-58,27,71,-56,-15,-23,-52,-50,-36,-33,-4
-87,-59,29,73,-58,-15,-22,-51,-49,-36,-34,-5
-89,-60,29,74,-59,-15,-20,-48,-47,-35,-35,-6
-89,-62,27,75,-59,-16,-18,-44,-44,-35,-38,-10
-89,-64,25,76,-57,-19,-16,-38,-39,-35,-42,-15
-90,-66,23,77,-56,-21,-14,-32,-34,-34,-46,-20
-90,-68,22,79,-56,-22,-12,-26,-29,-31,-47,-23
-91,-70,21,80,-56,-23,-11,-22,-23,-26,-46,-25
-91,-70,22,80,-57,-23,-10,-19,-18,-20,-42,-25
-91,-69,23,79,-57,-22,-11,-20,-15,-14,-38,-24
-90,-67,23,78,-57,-22,-13,-23,-13,-9,-32,-21
-88,-65,23,76,-56,-21,-15,-26,-11,0,-21,-14
-86,-61,24,73,-55,-18,-19,-30,-8,11,-6,-2
-82,-56,25,69,-54,-15,-23,-34,-3,26,14,14
-78,-51,26,64,-52,-11,-28,-35,5,47,41,34
-72,-45,27,58,-50,-8,-32,-35,18,78,78,62
-66,-38,28,52,-47,-4,-37,-33,35,115,124,97
-59,-31,28,44,-43,-1,-43,-31,48,154,175,136
-51,-24,27,37,-39,1,-49,-31,49,187,223,175
-43,-18,25,30,-33,3,-55,-36,33,212,267,214
-35,-14,22,24,-28,4,-61,-45,6,231,308,252
-28,-11,17,19,-22,3,-66,-58,-28,241,341,285
-21,-9,11,15,-15,2,-72,-72,-66,243,361,310
-14,-8,6,11,-10,0,-76,-86,-104,235,366,323
-10,-7,3,8,-6,-1,-78,-98,-140,215,352,323
-8,-4,3,6,-5,0,-80,-113,-183,170,310,307
-9,-5,4,6,-6,0,-80,-135,-237,91,234,269
-13,-12,1,12,-6,-5,-77,-161,-302,-18,127,211
-19,-24,-4,21,-7,-14,-72,-188,-374,-151,-3,134
-27,-39,-11,33,-7,-25,-67,-217,-444,-287,-137,52
-36,-54,-18,45,-8,-36,-60,-240,-500,-398,-244,-16
-45,-69,-24,57,-10,-46,-51,-257,-534,-473,-316,-67
-55,-83,-28,69,-12,-55,-40,-269,-551,-513,-357,-102
-65,-95,-31,80,-16,-63,-31,-281,-554,-528,-377,-124
-73,-103,-31,88,-20,-67,-28,-295,-549,-528,-381,-137
-79,-107,-28,93,-25,-68,-29,-306,-536,-516,-377,-145
-85,-107,-22,96,-31,-65,-34,-313,-517,-497,-368,-153
-91,-103,-13,97,-38,-58,-42,-315,-491,-473,-356,-160
-94,-98,-3,96,-45,-51,-51,-311,-460,-443,-341,-163
-97,-92,4,95,-50,-43,-59,-302,-426,-409,-321,-162
-98,-87,11,92,-54,-37,-66,-289,-391,-375,-298,-157
-98,-82,16,90,-57,-32,-71,-273,-353,-340,-275,-150
-99,-77,21,88,-60,-27,-72,-252,-314,-304,-251,-142
-99,-73,25,86,-61,-24,-71,-227,-273,-269,-226,-134
-91,-65,26,78,-58,-19,-66,-198,-230,-231,-199,-124
-75,-49,25,62,-50,-12,-56,-165,-185,-192,-170,-109
-56,-33,24,45,-40,-5,-43,-131,-142,-153,-140,-92
-39,-17,23,29,-31,2,-31,-99,-103,-118,-113,-75
-25,-4,22,15,-24,9,-20,-72,-70,-87,-89,-60
-14,6,20,4,-17,13,-11,-50,-43,-63,-71,-47
-4,14,18,-5,-10,16,-4,-33,-22,-44,-57,-38
5,21,16,-13,-5,18,1,-19,-4,-30,-46,-30
12,27,15,-20,0,21,5,-7,10,-18,-37,-25
18,33,14,-26,2,23,9,3,22,-9,-30,-20
23,37,14,-30,5,25,11,11,33,-1,-24,-16
27,40,13,-34,7,27,14,17,41,5,-20,-13
31,43,13,-37,9,28,16,21,48,11,-16,-11
35,46,12,-41,12,29,18,26,55,16,-13,-9
40,50,10,-45,15,30,22,31,62,21,-11,-7
45,54,9,-50,19,31,25,36,69,26,-8,-5
50,58,8,-55,22,32,29,42,76,30,-6,-3
54,62,7,-59,24,34,32,48,82,33,-4,-2
58,65,7,-62,25,36,34,54,89,36,-2,0
61,68,8,-64,26,38,36,60,95,39,-1,1
63,71,8,-67,28,39,38,65,101,42,0,1
66,72,7,-69,29,40,40,69,108,45,0,2
68,73,6,-71,31,40,42,74,114,48,0,2
70,74,5,-73,33,40,44,79,120,50,0,1
72,75,4,-74,35,39,46,84,127,52,0,1
73,76,3,-75,36,39,48,91,134,54,0,1
74,77,3,-76,36,40,50,97,141,56,0,1
75,78,3,-77,36,40,52,103,148,59,0,0
76,79,3,-77,36,41,54,108,154,61,0,0
76,79,2,-78,37,41,55,113,160,64,0,-1
77,79,2,-78,38,41,57,117,166,66,-1,-2
77,79,2,-79,38,41,59,122,171,67,-1,-3
78,79,1,-79,39,40,61,127,177,69,-2,-3
78,79,1,-79,39,40,63,133,184,71,-2,-4
78,79,1,-79,39,40,65,139,190,73,-2,-4
78,79,1,-78,38,40,67,144,196,76,-1,-4
77,79,2,-78,38,41,68,149,201,80,1,-3
77,80,2,-78,37,41,70,154,206,84,3,-2
77,80,3,-79,37,42,72,158,211,88,7,0
77,81,4,-79,37,42,73,162,215,92,11,2
77,82,4,-80,37,43,74,166,219,96,16,5
78,83,5,-81,37,44,75,169,222,100,20,9
78,84,5,-81,37,44,76,173,226,105,26,13
79,84,5,-82,37,45,77,176,229,110,32,17
80,85,5,-83,37,45,77,178,232,117,38,21
81,86,5,-83,38,46,78,180,234,123,45,26
82,88,5,-84,38,47,78,181,235,130,53,32
83,89,6,-86,38,48,79,182,236,137,62,38
83,91,7,-87,38,49,79,182,237,143,70,44
84,93,7,-89,39,50,79,183,238,150,79,51
86,95,8,-90,39,51,79,183,239,156,88,57
87,97,8,-92,40,52,78,183,240,163,97,64
89,99,9,-94,40,54,77,182,240,169,105,70
91,101,9,-96,41,55,76,179,239,176,113,77
93,104,10,-98,41,57,74,176,237,182,121,83
94,106,11,-100,42,58,72,172,234,187,129,89
96,108,11,-102,42,60,70,168,231,191,136,95
97,110,12,-104,43,61,68,164,228,194,142,100
99,112,13,-106,43,63,66,160,224,197,147,105
100,115,14,-108,43,64,64,156,220,199,151,109
102,117,14,-110,43,66,62,151,215,200,154,112
103,119,15,-112,44,67,60,147,210,201,156,114
105,121,16,-113,44,69,58,141,204,200,158,116
106,123,16,-115,45,70,56,136,198,198,158,117
108,125,17,-116,45,71,54,130,190,195,157,118
109,127,17,-118,46,72,52,124,182,190,156,118
110,129,17,-119,46,73,50,119,175,185,153,117
112,130,17,-121,47,73,49,113,167,179,149,117
113,131,17,-122,48,74,47,108,160,172,145,115
115,132,17,-123,49,74,46,103,152,166,141,113
116,133,17,-124,50,74,44,97,144,159,136,111
117,133,16,-125,51,74,43,91,136,153,132,108
118,133,15,-125,52,74,42,86,128,146,127,105
119,133,14,-126,53,74,41,81,120,138,122,102
120,134,13,-127,54,74,40,76,113,130,116,100
121,134,13,-128,54,74,40,72,106,122,111,97
122,135,13,-128,54,74,39,68,99,115,105,94
122,135,12,-128,55,73,39,64,93,108,99,91
123,134,11,-128,56,72,39,60,86,102,94,88
123,133,11,-128,56,71,39,56,80,96,89,85
122,133,11,-128,56,71,39,52,74,90,85,82
122,132,11,-127,56,72,39,49,68,84,80,79
121,132,11,-127,56,72,40,46,63,78,76,77
121,131,10,-126,55,71,40,44,59,72,72,75
121,131,10,-126,55,71,39,41,54,66,67,73
121,130,10,-126,55,71,39,39,50,61,63,70
121,130,10,-125,55,70,39,36,46,57,59,68
121,130,9,-125,55,70,38,33,42,54,55,65
121,130,9,-125,56,70,37,30,39,50,52,63
121,130,9,-126,56,69,36,27,36,47,50,62
122,130,8,-126,57,69,36,25,33,43,47,60
122,130,8,-126,57,69,35,24,31,39,45,59
123,130,7,-126,58,69,35,23,29,37,43,58
123,130,7,-126,58,69,34,23,27,35,41,58
123,130,7,-127,58,69,33,22,26,33,39,57
123,131,7,-127,58,69,32,21,25,32,37,56
123,131,7,-128,58,69,30,20,23,31,37,55
124,132,7,-128,58,70,29,19,22,30,36,55
124,132,7,-129,58,70,28,18,21,28,36,54
125,133,7,-129,58,71,27,18,20,27,35,54
126,134,8,-130,58,71,27,18,20,26,35,54
126,135,9,-130,58,72,28,19,20,25,35,54
126,136,9,-131,58,73,29,19,21,26,35,54
127,136,10,-131,58,73,30,20,21,26,35,53
127,137,10,-132,59,73,30,20,21,26,35,53
128,137,9,-132,59,73,30,20,21,25,35,52
128,137,9,-133,60,73,31,20,20,25,34,51
129,137,8,-133,60,73,31,20,20,24,34,50
129,137,7,-133,61,72,32,20,19,23,33,49
129,136,7,-132,61,72,33,20,19,21,31,47
129,136,6,-132,62,71,34,20,18,20,29,45
129,135,5,-132,62,70,35,20,18,19,27,44
129,134,5,-131,62,69,35,20,17,18,25,42
129,133,4,-131,62,69,36,20,16,18,24,41
129,133,4,-130,62,68,36,20,16,17,24,40
129,132,3,-130,62,68,37,20,15,17,24,39
129,132,3,-130,62,67,37,20,15,16,24,38
128,131,3,-130,62,67,38,20,14,15,23,37
128,131,3,-129,63,67,38,20,14,14,22,36
128,131,2,-129,63,66,39,19,13,13,20,35
128,130,1,-129,64,66,39,19,13,13,19,34
128,130,1,-129,64,65,39,19,13,12,19,33
128,129,0,-129,64,65,40,19,13,12,18,32
129,129,0,-129,64,64,40,19,13,12,18,32
129,129,0,-129,64,64,40,19,13,12,17,31
129,129,0,-128,64,64,41,19,12,12,17,30
129,129,0,-128,64,64,41,19,12,12,17,29
128,129,0,-128,64,64,42,19,12,12,17,28
128,129,0,-128,64,65,43,19,12,12,18,28
128,129,1,-128,64,65,43,19,13,12,19,27
128,129,1,-128,64,65,44,19,13,13,20,27
128,129,1,-128,64,65,44,19,13,13,21,26
129,131,1,-129,64,66,45,19,13,13,22,26
132,134,1,-132,65,67,45,19,13,14,24,26
135,137,1,-136,67,69,46,19,14,15,25,26
139,139,0,-139,69,70,47,19,15,16,25,26
142,142,0,-142,71,71,47,19,15,17,26,27
145,144,0,-144,73,71,48,20,16,18,27,27
148,146,-1,-147,75,72,48,20,16,19,28,28
150,148,-1,-149,76,73,49,21,17,20,28,29
152,150,-2,-151,77,74,49,21,18,21,29,30
154,151,-2,-152,78,75,50,22,19,23,31,31
155,153,-2,-154,78,75,51,22,20,24,32,32
156,154,-2,-155,79,76,51,23,21,25,33,33
157,155,-2,-156,79,76,52,23,22,26,34,33
158,156,-2,-157,80,77,52,23,22,27,34,34
158,157,-1,-157,80,77,52,24,23,28,35,34
159,157,-1,-158,80,78,53,24,23,29,36,35
159,158,-1,-158,80,78,54,25,23,30,36,35
159,159,0,-158,80,79,54,25,23,30,37,35
159,159,0,-158,79,80,55,24,23,31,38,35
158,160,1,-159,78,81,55,24,23,31,38,35
158,161,2,-159,78,82,54,23,23,31,38,34
158,161,3,-160,77,83,54,23,23,32,38,34
158,162,4,-160,77,84,53,24,24,33,38,33
157,162,5,-160,76,84,53,26,27,35,38,31
157,162,6,-160,76,84,54,32,32,38,37,27
157,162,6,-160,75,84,56,40,41,43,37,22
157,162,5,-160,75,84,58,50,52,51,39,18
156,163,6,-159,75,85,59,58,63,62,44,14
155,164,8,-159,73,87,61,64,74,75,53,13
154,167,12,-160,70,90,61,66,82,88,65,15
153,170,17,-161,68,94,60,65,87,100,79,20
152,174,22,-163,65,98,57,62,91,113,95,28
153,179,26,-166,63,103,54,59,96,129,117,42
154,185,30,-169,62,108,50,57,102,147,143,61
155,191,35,-173,60,113,45,55,110,170,173,83
157,197,39,-178,59,118,41,54,122,199,210,110
161,203,41,-183,60,123,36,54,136,236,256,143
167,209,42,-188,62,126,30,55,152,276,304,178
174,214,40,-194,66,127,25,57,164,313,349,213
183,220,38,-201,72,128,19,57,163,340,389,245
192,224,33,-208,79,128,13,54,147,359,423,277
201,227,27,-214,87,126,8,48,119,368,449,305
209,228,19,-218,95,123,4,39,83,365,462,324
215,227,11,-222,103,119,0,27,43,352,460,334
221,227,4,-224,109,116,-4,16,3,330,445,336
225,226,0,-225,112,113,-6,4,-39,289,410,327
226,226,-1,-226,113,112,-8,-14,-93,216,343,300
225,223,-1,-224,112,111,-8,-41,-162,110,244,252
220,216,-3,-218,111,105,-5,-72,-239,-21,120,186
213,203,-9,-208,111,97,0,-106,-320,-165,-17,107
205,189,-15,-197,110,87,4,-139,-394,-297,-143,30
194,173,-21,-184,108,76,11,-165,-447,-395,-236,-31
183,156,-26,-170,105,65,21,-182,-478,-455,-295,-76
171,138,-33,-154,102,53,32,-194,-491,-484,-329,-108
160,122,-38,-140,99,42,40,-207,-492,-492,-342,-126
151,111,-40,-130,95,35,43,-222,-487,-486,-343,-136
144,103,-39,-123,91,32,42,-236,-476,-472,-337,-144
138,100,-36,-119,86,32,37,-245,-457,-450,-328,-151
133,102,-30,-117,81,35,29,-248,-432,-423,-313,-156
130,106,-24,-118,77,40,20,-244,-400,-390,-294,-155
129,110,-19,-119,74,46,12,-235,-364,-354,-270,-149
128,115,-15,-121,72,50,5,-222,-327,-317,-245,-141
129,119,-10,-123,70,54,1,-204,-288,-280,-220,-130
129,123,-6,-125,68,58,0,-183,-248,-244,-194,-120
129,125,-3,-127,66,61,0,-159,-208,-207,-170,-110
130,126,-3,-127,66,61,4,-134,-168,-172,-146,-100
131,125,-5,-128,68,60,10,-106,-129,-138,-122,-88
132,124,-7,-128,70,58,17,-77,-92,-104,-97,-74
134,124,-10,-129,72,57,24,-50,-58,-74,-74,-59
135,123,-12,-129,73,56,30,-28,-29,-48,-55,-46
135,122,-14,-128,75,55,35,-10,-7,-27,-40,-35
136,120,-16,-128,76,52,38,3,10,-12,-29,-27
136,119,-17,-128,77,50,40,13,24,-1,-21,-21
137,118,-17,-128,77,50,41,21,34,7,-15,-16
137,118,-18,-128,77,50,41,27,42,13,-11,-13
136,118,-18,-127,77,50,40,32,49,18,-8,-10
135,118,-17,-127,76,50,40,36,56,22,-5,-8
134,118,-16,-126,75,51,39,40,62,26,-3,-7
133,119,-14,-126,74,52,39,42,67,29,-1,-6
132,119,-13,-125,72,53,39,45,72,32,0,-5
132,119,-12,-125,71,54,39,48,77,34,1,-5
131,118,-11,-124,70,54,41,52,81,35,1,-5
130,118,-10,-123,70,53,42,57,86,37,1,-5
128,117,-10,-123,69,53,44,61,91,38,1,-5
127,117,-10,-122,68,53,46,66,96,40,1,-5
125,116,-9,-121,67,53,47,70,101,42,1,-5
124,115,-9,-120,67,53,49,74,106,43,1,-5
124,114,-9,-119,66,52,50,78,111,44,1,-6
123,113,-10,-118,66,52,51,82,116,45,0,-7
123,112,-10,-117,66,51,52,86,121,46,-1,-8
123,111,-11,-117,67,50,53,92,126,47,-2,-9
123,110,-11,-116,67,49,54,97,132,48,-3,-10
122,110,-11,-116,66,49,56,102,137,50,-4,-11
121,109,-12,-115,66,49,57,107,143,52,-5,-12
120,108,-12,-114,65,48,59,111,148,53,-6,-14
119,107,-12,-112,65,48,60,115,153,54,-6,-15
118,105,-12,-111,65,47,61,119,158,55,-7,-16
118,104,-13,-111,65,46,61,123,162,56,-8,-17
117,103,-13,-110,65,45,62,127,167,58,-8,-17
116,102,-13,-109,64,44,64,132,172,60,-8,-16
115,101,-13,-108,64,43,65,137,177,62,-8,-15
112,99,-13,-106,63,43,67,142,182,66,-6,-14
110,97,-13,-103,61,43,68,147,187,70,-4,-11
107,96,-11,-101,59,42,70,151,191,74,-1,-8
103,94,-9,-98,57,42,71,155,195,78,2,-5
100,92,-7,-95,54,42,72,159,199,82,7,-1
97,90,-6,-93,51,42,72,163,203,87,13,4
94,89,-5,-91,49,42,73,166,207,93,19,9
92,88,-4,-89,47,42,73,169,210,99,25,14
89,87,-2,-88,45,42,73,171,213,105,32,19
86,86,-1,-86,43,42,74,173,215,112,39,25
84,85,1,-84,41,43,73,173,217,118,47,32
81,84,2,-82,39,43,73,173,219,124,55,38
80,83,4,-81,38,43,72,173,219,131,63,45
78,82,5,-80,37,43,70,172,220,137,71,53
77,82,6,-79,35,44,69,171,220,144,80,60
75,82,7,-79,33,45,67,170,221,151,89,68
73,82,9,-78,31,46,66,169,221,158,98,76
70,84,13,-78,28,49,66,167,221,165,106,84
67,86,18,-77,24,53,65,165,221,171,114,92
64,87,23,-76,20,55,65,163,220,177,122,99
62,88,26,-75,17,57,64,160,219,182,129,107
60,89,29,-74,15,59,63,157,217,187,136,114
59,90,31,-74,13,61,61,155,214,190,142,120
59,92,33,-75,12,63,59,152,211,193,147,127
58,93,35,-75,11,65,56,148,208,195,151,133
57,95,37,-76,9,67,54,145,204,197,154,138
56,96,40,-76,7,69,52,141,200,198,156,144
54,98,44,-76,5,71,50,137,196,198,157,149
52,99,47,-75,2,73,48,132,191,197,158,153
49,99,51,-75,-1,75,47,128,185,195,158,156
46,100,54,-73,-4,77,46,124,179,191,157,159
43,100,58,-72,-8,79,45,120,173,187,156,162
40,101,62,-70,-11,82,44,116,167,183,154,164
36,101,65,-69,-15,84,43,112,161,178,152,167
33,102,69,-67,-18,86,43,107,155,173,150,170
30,102,72,-66,-21,88,42,102,148,168,146,172
27,102,75,-65,-24,89,41,97,142,162,143,174
25,103,77,-64,-26,90,40,92,135,156,139,176
24,103,80,-64,-28,91,39,87,129,150,135,177
22,103,81,-63,-30,92,38,83,122,143,131,177
21,102,82,-62,-31,92,37,79,116,137,127,177
20,102,82,-61,-32,92,36,74,109,130,122,177
20,102,82,-61,-31,92,35,69,103,124,116,176
21,101,80,-61,-30,91,33,64,96,117,111,175
23,101,78,-61,-28,89,32,59,89,110,105,173
25,100,75,-62,-25,87,30,54,82,103,99,170
27,99,72,-63,-22,85,28,49,75,95,93,166
29,98,69,-63,-20,83,26,44,68,88,87,161
31,97,66,-64,-17,81,24,40,61,81,81,155
32,96,63,-64,-15,80,23,36,56,75,75,149
33,95,61,-64,-14,78,22,33,50,69,69,142
32,93,60,-63,-14,77,21,29,45,63,64,134
32,92,60,-62,-14,76,21,26,41,58,59,127
31,90,59,-61,-14,75,21,24,37,54,55,121
30,89,59,-59,-14,74,21,22,34,49,52,115
29,88,59,-58,-15,74,20,21,31,46,49,110
27,87,60,-57,-16,73,20,20,28,43,47,106
24,86,61,-55,-18,73,21,19,26,40,45,102
22,85,62,-53,-20,73,21,18,25,38,43,99
19,84,63,-51,-22,73,22,18,23,36,42,96
17,83,65,-49,-24,73,23,18,22,34,40,93
14,81,66,-47,-26,73,24,17,21,32,39,90
12,79,67,-45,-28,73,25,17,20,30,37,86
10,78,68,-44,-29,73,26,17,19,29,36,83
8,76,68,-42,-30,73,27,17,18,27,35,81
6,75,68,-41,-30,72,28,18,17,25,33,79
5,73,68,-39,-31,71,29,18,16,23,31,78
3,71,68,-38,-32,70,30,18,16,22,30,77
2,70,67,-36,-32,68,31,18,15,20,28,78
2,68,66,-35,-32,67,31,18,15,19,26,78
1,67,65,-34,-32,66,32,18,14,18,25,78
1,65,64,-33,-31,65,32,18,13,17,24,78
2,64,62,-33,-30,64,33,18,12,15,23,78
2,63,61,-33,-29,63,33,18,11,14,23,78
3,63,59,-33,-28,61,33,18,10,14,22,79
3,62,58,-33,-28,60,33,18,10,13,21,79
3,61,58,-32,-27,59,33,19,11,13,20,80
3,60,57,-32,-27,59,34,22,13,14,18,79
2,59,57,-31,-27,58,36,27,18,14,16,76
0,57,57,-29,-28,58,38,33,23,15,14,74
-1,57,58,-28,-29,58,39,37,28,17,14,72
-2,57,59,-28,-30,58,40,40,32,21,17,72
-2,58,60,-28,-31,59,39,40,35,27,22,74
-2,60,62,-29,-32,61,38,38,37,33,29,78
-2,63,64,-30,-33,64,36,32,35,38,38,84
-1,66,66,-32,-34,66,32,25,34,44,51,94
1,69,68,-35,-34,69,28,18,34,54,70,109
3,73,69,-38,-33,71,24,12,35,69,94,127
6,77,70,-41,-32,74,19,7,40,88,121,146
10,81,71,-45,-31,77,15,6,51,114,152,167
14,86,71,-50,-29,79,10,8,66,150,190,191
20,92,71,-56,-26,81,6,13,81,190,231,218
27,97,70,-62,-22,84,0,18,88,228,272,246
34,103,69,-69,-17,85,-6,20,82,260,311,275
42,107,64,-74,-11,85,-13,22,68,289,349,306
51,108,57,-80,-3,83,-19,27,53,316,384,335
61,109,49,-85,6,80,-24,33,36,337,406,357
71,111,40,-91,14,77,-30,33,13,345,412,368
80,111,32,-96,23,73,-36,27,-18,337,401,370
88,111,24,-100,31,68,-41,14,-61,304,370,363
93,112,18,-102,37,65,-46,-7,-122,231,308,339
96,111,16,-103,40,63,-51,-39,-202,115,210,294
95,107,13,-101,41,60,-54,-76,-291,-32,86,232
92,97,6,-94,43,52,-54,-110,-376,-187,-43,162
86,81,-4,-83,45,39,-49,-136,-446,-323,-157,97
78,65,-12,-71,45,27,-42,-160,-496,-420,-240,43
68,50,-17,-59,42,18,-35,-188,-526,-478,-293,2
56,37,-19,-46,37,9,-28,-213,-539,-503,-321,-27
45,26,-19,-36,32,4,-24,-234,-536,-503,-328,-42
36,22,-14,-29,25,4,-23,-252,-521,-489,-324,-51
27,24,-3,-25,15,10,-26,-265,-498,-467,-316,-60
19,28,10,-23,4,19,-31,-270,-467,-439,-305,-72
13,34,23,-23,-5,29,-35,-267,-430,-407,-291,-81
8,41,35,-24,-14,39,-39,-258,-390,-371,-272,-84
4,48,45,-25,-21,47,-41,-245,-348,-333,-249,-81
0,54,53,-26,-27,54,-41,-228,-306,-295,-225,-75
-3,58,60,-27,-32,59,-39,-207,-263,-257,-201,-70
-6,59,64,-26,-36,62,-34,-182,-220,-220,-179,-65
-9,58,66,-24,-38,62,-27,-152,-179,-185,-158,-60
-10,55,65,-22,-37,60,-18,-122,-140,-153,-138,-54
-10,51,61,-20,-35,56,-10,-93,-103,-122,-116,-45
-9,47,56,-18,-33,52,-1,-66,-70,-92,-95,-34
-8,44,52,-17,-31,49,6,-43,-40,-66,-75,-23
-7,43,50,-17,-29,47,12,-23,-16,-43,-58,-13
-7,41,48,-17,-28,45,16,-8,2,-26,-45,-6
-6,40,46,-17,-26,43,20,3,17,-13,-36,-1
-6,40,45,-17,-25,42,23,12,29,-3,-30,2
-6,39,45,-17,-25,42,25,20,39,3,-25,5
-6,39,44,-16,-25,41,27,27,47,9,-21,7
-6,38,44,-16,-25,41,28,32,54,13,-18,9
-6,37,43,-15,-25,40,29,37,60,17,-15,10
-7,36,43,-14,-25,39,30,42,65,21,-13,11
-7,34,42,-13,-25,38,31,47,71,25,-12,12
-7,33,41,-12,-24,37,31,52,76,28,-11,11
-7,32,40,-12,-24,36,32,57,82,31,-11,11
-7,31,39,-12,-23,35,33,62,88,34,-10,10
-7,30,39,-11,-23,35,34,67,93,36,-10,10
-8,30,38,-11,-23,34,34,72,99,38,-10,10
-8,29,38,-10,-23,34,35,77,104,41,-9,9
-9,28,38,-9,-24,34,36,82,110,44,-8,9
-10,28,38,-8,-24,34,37,88,116,47,-7,9
-11,27,38,-7,-25,33,38,93,123,50,-7,8
-12,27,39,-7,-25,33,40,99,129,53,-6,7
-13,26,39,-6,-26,33,42,105,136,56,-6,6
-13,25,39,-6,-26,32,44,110,142,57,-6,5
-14,25,39,-5,-27,32,46,115,148,59,-6,4
-14,24,39,-5,-27,32,48,120,153,60,-6,4
-15,24,40,-4,-28,32,50,124,158,62,-6,3
-16,23,40,-3,-28,31,52,129,163,63,-6,2
-17,23,40,-2,-28,31,54,134,168,65,-6,1
-17,22,39,-2,-28,31,56,138,172,67,-6,0
-17,21,39,-2,-28,30,58,142,177,68,-6,0
-17,20,38,-1,-28,29,60,146,181,69,-7,0
-17,19,37,0,-28,28,61,148,184,70,-7,-1
-18,17,36,0,-27,27,62,150,186,70,-7,-1
-18,15,35,1,-27,25,63,151,188,71,-6,-1
-19,14,34,3,-26,24,64,152,190,72,-5,-1
-20,13,33,4,-26,23,65,153,191,74,-3,-1
-20,12,32,4,-26,23,66,154,193,77,0,0
-20,12,32,4,-26,22,66,155,195,81,3,1
-20,12,32,4,-26,22,66,156,196,84,7,3
-20,12,32,4,-26,22,66,155,197,87,11,6
-19,12,31,3,-25,22,66,154,198,91,16,8
-19,12,31,3,-25,22,65,153,197,94,20,11
-18,12,31,3,-24,22,64,151,197,97,24,14
-18,12,30,3,-24,22,63,149,196,100,28,16
-17,13,30,2,-23,22,61,146,194,103,32,18
-16,13,30,2,-23,22,60,143,192,106,36,21
-16,14,30,1,-23,23,59,141,190,109,41,23
-15,14,30,0,-23,23,57,138,188,112,45,26
-15,15,30,0,-23,24,56,134,185,114,49,30
-14,16,30,-1,-23,24,55,130,182,116,53,33
-13,17,30,-2,-22,25,53,126,178,118,56,37
-12,18,31,-3,-22,25,51,122,174,120,59,40
-11,19,31,-4,-21,26,49,118,170,121,62,42
-11,20,31,-4,-21,26,48,114,165,122,65,44
-10,21,31,-5,-20,26,47,110,160,123,67,46
-9,21,31,-6,-20,26,45,106,155,122,68,49
-8,22,31,-7,-20,27,43,101,149,121,69,51
-7,23,31,-8,-19,27,41,96,143,119,70,53
-6,24,31,-9,-19,28,39,91,137,116,70,54
-6,25,32,-9,-19,28,37,86,130,113,69,55
-6,26,32,-10,-19,29,35,82,123,109,67,55
-5,26,32,-10,-19,29,33,77,116,104,65,55
-5,27,32,-10,-18,29,31,73,108,99,62,54
-5,27,32,-11,-18,29,29,68,101,94,59,53
-4,27,32,-11,-18,29,26,63,93,88,55,53
-4,27,32,-11,-18,29,24,58,86,82,52,52
-4,27,31,-11,-18,29,21,54,79,76,49,51
-4,27,31,-11,-18,29,18,49,71,70,45,50
-4,26,31,-10,-18,29,16,45,64,64,41,48
-5,26,31,-10,-18,29,14,40,57,58,37,46
-5,25,31,-9,-18,28,12,36,51,52,33,45
-6,24,31,-9,-18,28,11,32,44,47,29,43
-7,24,31,-8,-19,28,10,28,38,41,26,41
-7,23,31,-7,-19,28,10,24,33,35,22,39
-8,23,31,-7,-20,27,9,21,28,30,19,38
-9,22,31,-6,-20,27,8,18,23,25,16,37
-9,22,32,-6,-21,27,7,16,19,21,13,36
-10,21,32,-5,-21,26,6,13,15,17,10,34
-11,20,32,-5,-21,26,6,10,11,13,7,32
-11,20,31,-4,-21,25,6,8,7,9,4,30
-12,19,31,-3,-21,25,5,5,3,6,2,28
-12,18,31,-2,-21,24,5,2,0,2,0,26
-13,17,31,-1,-22,24,5,0,-3,-1,-2,24
-14,16,31,0,-22,23,5,-1,-6,-4,-4,23
-15,16,31,0,-23,23,5,-3,-8,-6,-6,21
-16,15,31,0,-23,23,5,-4,-10,-9,-8,19
-17,14,31,1,-24,22,5,-5,-12,-11,-9,18
-18,13,31,2,-24,22,4,-6,-14,-12,-11,16
-18,12,31,3,-25,22,4,-7,-15,-14,-13,15
-19,11,31,3,-25,22,4,-9,-17,-15,-14,14
-19,11,31,4,-25,21,3,-10,-18,-17,-15,13
-20,10,31,4,-25,21,3,-10,-18,-18,-15,12
-20,10,30,5,-25,20,3,-11,-19,-18,-16,11
-21,9,30,5,-25,20,3,-11,-19,-18,-16,11
-21,8,30,6,-26,19,3,-10,-20,-18,-16,10
-22,7,30,7,-26,19,3,-10,-20,-18,-16,9
-23,6,30,8,-26,18,3,-10,-19,-17,-16,8
-24,6,30,9,-26,18,3,-10,-19,-17,-16,8
-24,5,30,10,-27,18,3,-9,-19,-16,-16,8
-25,5,30,10,-27,17,3,-9,-19,-16,-16,8
-26,4,30,11,-28,17,4,-9,-19,-16,-16,8
-28,3,30,12,-29,16,4,-9,-19,-15,-16,7
-29,2,30,13,-30,16,5,-9,-19,-15,-16,7
-30,1,31,14,-31,16,5,-9,-18,-15,-15,6
-32,0,31,16,-32,16,6,-9,-18,-14,-15,6
-33,0,32,17,-33,16,6,-8,-18,-14,-15,5
-35,-1,33,18,-34,16,7,-8,-17,-13,-15,5
-36,-1,34,19,-35,16,8,-7,-17,-13,-14,5
-37,-1,35,19,-36,16,9,-6,-16,-12,-14,4
-37,-1,35,19,-36,16,10,-6,-16,-11,-13,3
-38,-1,36,20,-37,17,11,-5,-15,-11,-13,2
-38,-1,36,20,-38,17,12,-5,-15,-10,-12,0
-39,-1,37,20,-38,18,13,-5,-14,-10,-12,0
-39,-1,38,20,-39,18,13,-4,-14,-9,-11,-2
-40,0,40,20,-40,19,14,-4,-13,-9,-11,-3
-42,0,42,21,-42,21,15,-3,-13,-8,-10,-5
-44,0,44,21,-44,22,16,-3,-12,-8,-9,-7
-46,1,47,22,-46,24,17,-3,-11,-7,-8,-9
-47,2,49,22,-48,25,18,-3,-11,-7,-7,-10
-48,2,50,23,-49,26,18,-3,-10,-6,-6,-11
-49,2,51,23,-50,26,19,-3,-10,-5,-5,-12
-49,2,52,24,-51,27,19,-3,-10,-4,-5,-12
-49,2,52,24,-51,27,20,-3,-10,-3,-4,-11
-49,2,51,24,-50,26,20,-2,-8,-2,-4,-11
-49,2,50,24,-50,26,21,2,-3,1,-4,-12
-48,1,49,24,-49,25,23,8,4,5,-3,-13
-48,0,48,24,-48,24,24,15,13,12,-2,-14
-47,0,47,24,-48,23,25,21,22,21,2,-13
-47,1,48,23,-48,24,24,23,29,32,10,-9
-47,3,51,22,-50,27,23,22,34,42,19,-4
-47,7,55,21,-51,31,21,18,36,51,31,4
-47,12,59,18,-53,36,17,13,38,63,48,16
-46,17,63,15,-54,40,13,8,41,79,73,35
-44,23,67,10,-55,45,8,2,46,99,103,59
-41,29,70,5,-55,49,2,-2,53,126,139,88
-37,36,72,0,-55,54,-3,-4,66,161,183,120
-32,43,74,-6,-53,58,-8,-2,84,204,234,157
-25,49,73,-12,-50,61,-13,1,101,249,286,196
-17,55,71,-18,-44,63,-18,5,107,287,333,232
-8,59,68,-24,-38,63,-24,5,96,313,373,266
0,62,63,-30,-31,63,-31,0,70,327,405,298
7,62,56,-35,-24,60,-37,-7,36,330,429,325
14,61,48,-38,-16,55,-42,-13,-2,325,440,344
20,60,41,-40,-10,50,-46,-20,-41,312,437,353
25,60,34,-42,-4,46,-50,-30,-81,288,419,353
29,60,30,-44,0,44,-54,-45,-129,244,382,342
31,60,28,-45,1,44,-56,-68,-189,168,314,314
29,59,30,-43,0,44,-58,-99,-261,56,211,264
24,53,30,-38,-2,42,-58,-134,-340,-80,82,196
17,42,26,-29,-4,34,-55,-168,-418,-225,-55,117
8,27,19,-18,-5,23,-50,-196,-482,-354,-176,43
-2,11,14,-5,-8,13,-41,-216,-526,-446,-265,-16
-14,-4,9,9,-11,2,-31,-233,-549,-500,-321,-62
-26,-20,5,24,-16,-8,-21,-248,-555,-524,-351,-94
-37,-33,3,36,-20,-15,-15,-263,-550,-528,-363,-114
-46,-41,4,44,-25,-19,-13,-277,-538,-517,-362,-125
-53,-44,9,49,-31,-17,-16,-288,-518,-498,-353,-132
-60,-42,18,51,-39,-11,-22,-292,-491,-471,-340,-138
-65,-36,29,50,-46,-3,-29,-288,-457,-438,-323,-143
-69,-30,39,49,-53,4,-35,-277,-419,-402,-302,-143
-71,-24,47,48,-59,11,-41,-261,-379,-364,-278,-139
-73,-18,54,46,-64,17,-44,-243,-338,-326,-253,-131
-75,-13,61,45,-69,23,-45,-222,-297,-289,-228,-123
-77,-9,67,44,-73,29,-43,-199,-256,-253,-203,-115
-80,-8,72,44,-76,32,-39,-175,-215,-217,-179,-107
-81,-9,73,45,-77,32,-33,-149,-176,-183,-156,-99
-82,-11,72,46,-77,30,-25,-120,-138,-149,-132,-88
-81,-13,69,46,-75,28,-17,-92,-102,-116,-108,-76
-81,-14,67,47,-74,26,-10,-66,-70,-87,-87,-64
-80,-14,65,47,-72,25,-3,-45,-43,-64,-69,-54
-79,-15,63,47,-71,23,2,-28,-22,-45,-56,-47
-77,-16,61,47,-69,22,7,-15,-6,-31,-46,-42
-76,-16,59,47,-68,21,10,-5,6,-21,-39,-38
-75,-17,58,46,-66,21,12,2,16,-12,-34,-36
-74,-17,57,46,-65,20,13,8,25,-5,-30,-34
-73,-16,56,45,-65,20,14,13,32,0,-27,-32
-72,-16,56,44,-64,20,15,18,39,5,-24,-31
-71,-16,55,44,-63,19,15,22,45,9,-23,-32
-70,-15,54,43,-62,19,16,26,51,12,-22,-34
-69,-15,53,43,-61,18,16,31,57,14,-21,-37
-68,-15,51,42,-59,18,17,34,62,15,-21,-39
-67,-16,50,42,-58,17,18,38,68,17,-21,-41
-66,-16,50,42,-58,17,19,42,73,19,-20,-43
-67,-17,50,42,-58,16,20,46,78,21,-20,-44
-67,-18,50,42,-58,16,22,50,84,24,-19,-44
-67,-19,49,43,-58,15,25,55,89,27,-19,-46
-67,-19,48,43,-57,14,27,59,95,28,-20,-49
-67,-20,47,44,-57,13,30,64,100,30,-20,-52
-67,-21,46,45,-57,12,32,70,107,31,-21,-55
-68,-22,45,46,-57,12,34,76,113,33,-21,-57
-69,-23,46,47,-57,11,36,82,120,34,-22,-58
-70,-23,46,48,-58,11,38,87,126,36,-22,-58
-72,-24,47,48,-59,11,40,93,132,38,-23,-58
-73,-25,48,49,-61,11,42,98,139,40,-23,-57
-75,-26,48,50,-62,11,44,103,145,42,-23,-56
-77,-26,49,52,-63,11,46,108,151,43,-23,-55
-78,-27,50,53,-65,11,49,113,157,45,-23,-54
-80,-27,51,55,-66,12,51,118,163,47,-22,-53
-81,-28,52,56,-67,12,54,124,168,49,-21,-52
-83,-28,54,57,-68,12,56,129,174,52,-20,-50
-85,-29,55,58,-70,12,58,134,180,56,-17,-48
-87,-30,57,59,-72,13,60,139,185,61,-14,-46
-90,-30,59,60,-75,14,62,143,191,65,-10,-43
-92,-31,61,62,-77,15,64,148,196,70,-5,-41
-94,-31,62,63,-78,15,66,152,201,75,-1,-42
-95,-31,64,63,-79,16,67,156,205,79,2,-47
-96,-31,65,64,-80,17,67,159,209,84,8,-48
-97,-31,67,64,-81,18,68,162,213,90,15,-46
-98,-31,68,64,-83,19,68,165,216,98,23,-44
-100,-30,70,65,-85,20,69,167,219,106,32,-40
-101,-29,72,65,-86,21,69,168,222,114,41,-36
-101,-28,73,64,-87,23,69,169,225,121,50,-32
-100,-26,74,63,-87,24,68,170,227,129,60,-27
-98,-24,74,62,-86,24,67,170,228,136,69,-22
-95,-22,73,60,-85,25,65,169,229,143,78,-16
-93,-20,73,57,-83,26,63,168,230,150,87,-10
-90,-18,72,54,-81,27,60,166,230,156,95,-5
-88,-16,72,52,-80,28,58,163,229,163,103,0
-86,-14,72,49,-79,29,55,160,227,169,110,6
-83,-12,71,47,-78,29,53,155,224,173,117,12
-81,-11,70,46,-76,30,50,150,219,176,123,18
-79,-10,69,45,-74,30,47,145,213,178,128,23
-77,-9,68,43,-72,30,44,140,208,179,131,28
-75,-8,67,42,-71,30,41,135,202,180,134,33
-73,-7,66,40,-69,30,38,129,196,180,136,36
-71,-6,66,38,-68,30,35,123,189,179,137,39
-70,-5,66,37,-68,31,33,117,182,176,136,40
-69,-4,66,36,-68,31,30,110,174,173,135,41
-69,-3,66,35,-68,31,27,104,166,168,133,41
-68,-1,66,35,-68,32,24,98,157,162,130,40
-67,0,67,34,-68,33,22,91,149,155,126,39
-66,1,67,33,-67,34,19,85,141,149,121,36
-65,2,66,32,-65,35,16,79,132,142,116,33
-62,2,65,30,-63,34,14,72,123,134,110,29
-59,3,62,27,-61,33,11,66,114,126,104,25
-55,3,59,25,-57,32,9,59,105,118,98,20
-51,4,55,23,-53,30,7,52,96,109,92,16
-47,4,51,21,-49,28,5,46,87,100,86,12
-43,4,47,20,-45,26,2,41,78,91,80,8
-40,4,44,18,-42,24,0,36,70,83,74,5
-36,4,41,16,-38,23,-4,31,62,75,68,2
-33,4,38,14,-35,21,-7,26,55,68,62,0
-30,4,34,12,-32,20,-10,21,48,61,57,-2
-27,4,31,11,-29,18,-12,16,41,55,52,-4
-24,4,28,10,-26,15,-14,12,35,48,47,-6
-22,3,25,9,-24,13,-16,8,29,42,43,-8
-20,2,22,9,-21,12,-18,5,23,35,38,-10
-18,1,19,8,-19,10,-19,3,18,30,33,-11
-17,0,17,8,-17,9,-21,0,14,24,29,-13
-15,0,15,7,-15,7,-22,-3,9,20,25,-14
-13,0,12,7,-13,6,-23,-6,5,15,21,-16
-12,-1,10,6,-11,4,-24,-10,0,11,17,-18
-11,-2,8,6,-9,2,-24,-13,-3,6,13,-19
-10,-3,6,6,-8,1,-24,-16,-7,1,9,-21
-9,-4,4,6,-6,0,-24,-17,-11,-3,6,-22
-8,-5,2,6,-5,-1,-24,-19,-13,-7,2,-23
-7,-6,0,6,-4,-2,-23,-20,-15,-10,0,-24
-6,-6,-1,6,-2,-3,-23,-21,-17,-12,-3,-25
-5,-7,-2,6,-1,-4,-23,-22,-19,-14,-5,-26
-4,-7,-3,6,0,-5,-23,-23,-21,-16,-6,-27
-3,-7,-4,6,0,-6,-22,-25,-23,-18,-8,-28
-2,-7,-5,5,1,-6,-22,-26,-24,-19,-9,-29
-2,-7,-6,5,2,-7,-22,-26,-26,-21,-11,-30
-1,-8,-7,5,3,-7,-22,-27,-27,-23,-12,-31
-1,-8,-8,5,4,-8,-22,-27,-28,-25,-14,-31
0,-8,-9,4,5,-8,-22,-27,-29,-26,-15,-32
1,-8,-9,4,5,-8,-22,-28,-29,-26,-16,-32
1,-7,-9,3,5,-8,-22,-29,-29,-26,-16,-33
2,-7,-9,3,6,-8,-21,-30,-30,-26,-16,-33
2,-7,-9,3,6,-8,-21,-31,-30,-26,-16,-34
2,-6,-9,3,5,-8,-21,-31,-30,-26,-16,-34
2,-6,-8,2,5,-7,-21,-30,-30,-26,-16,-34
1,-6,-7,2,4,-7,-20,-30,-30,-27,-16,-34
0,-6,-6,3,3,-6,-19,-30,-30,-27,-16,-34
-1,-6,-5,3,2,-6,-18,-30,-30,-27,-17,-34
-1,-6,-5,4,2,-5,-18,-30,-30,-27,-17,-35
-2,-6,-4,4,1,-5,-17,-31,-31,-27,-18,-36
-2,-6,-4,5,1,-6,-16,-31,-31,-28,-18,-37
-2,-7,-5,5,1,-6,-16,-32,-32,-28,-19,-38
-2,-8,-6,6,2,-7,-16,-32,-32,-29,-20,-39
-2,-9,-7,6,2,-8,-15,-32,-33,-30,-21,-40
-2,-10,-8,6,3,-9,-15,-32,-33,-30,-22,-41
-1,-10,-9,6,4,-10,-15,-32,-34,-31,-23,-43
-1,-10,-10,6,5,-11,-15,-32,-34,-31,-24,-46
-1,-11,-11,6,5,-12,-15,-32,-33,-31,-24,-48
-1,-13,-12,7,6,-13,-14,-30,-31,-31,-26,-52
-1,-15,-13,8,6,-14,-13,-25,-27,-30,-28,-56
-1,-16,-14,9,7,-15,-11,-20,-21,-27,-29,-60
-1,-17,-15,9,7,-16,-9,-14,-15,-23,-29,-63
-1,-17,-15,9,7,-16,-8,-11,-9,-17,-26,-64
-1,-16,-14,9,6,-15,-8,-9,-4,-9,-20,-61
-1,-13,-12,8,5,-13,-9,-11,-1,0,-10,-56
-1,-10,-9,6,4,-10,-11,-15,0,7,1,-48
0,-6,-6,3,3,-7,-15,-21,1,18,18,-36
1,-2,-4,1,3,-3,-19,-27,4,33,41,-18
3,1,-1,-2,2,0,-24,-32,8,52,68,3
5,6,2,-5,1,4,-29,-36,16,76,100,26
7,11,5,-9,0,8,-33,-35,31,108,138,52
9,17,8,-12,0,13,-35,-30,50,148,182,81
12,23,11,-17,0,17,-37,-22,65,189,228,112
15,28,12,-22,1,20,-40,-17,68,223,270,140
20,34,13,-27,3,23,-45,-16,55,248,307,169
25,37,11,-32,7,24,-51,-17,32,266,343,199
32,39,7,-36,12,23,-55,-16,6,277,370,226
38,40,3,-39,17,22,-59,-15,-23,280,383,245
43,42,0,-42,21,21,-63,-20,-59,271,380,253
47,43,-4,-45,25,20,-66,-32,-102,248,362,253
51,44,-6,-47,28,19,-68,-51,-154,204,325,244
51,45,-7,-48,29,19,-70,-78,-219,124,256,217
49,44,-6,-47,28,19,-72,-111,-297,8,155,170
45,40,-6,-43,26,16,-73,-146,-378,-129,32,108
40,30,-11,-35,25,9,-72,-178,-453,-271,-95,39
34,14,-19,-24,26,-2,-66,-202,-512,-393,-206,-25
26,-3,-28,-11,26,-15,-59,-224,-551,-478,-285,-77
16,-19,-34,2,24,-26,-52,-248,-572,-525,-334,-115
5,-34,-38,15,21,-36,-46,-269,-577,-543,-359,-140
-4,-45,-40,25,18,-43,-42,-286,-568,-540,-364,-153
-12,-49,-37,31,13,-43,-44,-300,-549,-523,-357,-158
-18,-47,-29,33,5,-38,-48,-308,-523,-499,-346,-163
-24,-42,-18,33,-3,-30,-54,-306,-489,-468,-332,-169
-28,-36,-7,32,-11,-21,-59,-297,-450,-434,-315,-173
-32,-29,3,31,-18,-13,-63,-282,-408,-397,-295,-172
-34,-23,12,29,-23,-5,-66,-264,-365,-358,-271,-166
-36,-17,19,28,-28,1,-67,-244,-323,-320,-247,-156
-39,-13,25,27,-32,6,-65,-222,-281,-283,-223,-147
-41,-11,29,27,-35,9,-61,-198,-240,-247,-200,-138
-43,-11,31,28,-37,9,-54,-171,-200,-213,-178,-130
-44,-14,30,29,-37,7,-46,-143,-162,-180,-156,-121
-44,-17,27,30,-36,4,-39,-116,-127,-149,-135,-110
-44,-20,24,32,-34,1,-32,-91,-95,-120,-114,-97
-43,-22,22,32,-33,0,-25,-69,-67,-95,-95,-85
-41,-23,19,33,-31,-2,-20,-50,-43,-73,-79,-74
-40,-24,17,32,-28,-3,-16,-35,-24,-55,-66,-65
-39,-24,14,32,-26,-5,-13,-24,-9,-42,-57,-59
-37,-24,12,31,-25,-6,-10,-16,2,-33,-51,-54
-36,-24,10,31,-24,-7,-8,-9,12,-25,-46,-51
-36,-25,10,30,-23,-8,-7,-3,20,-19,-43,-49
-36,-25,11,30,-24,-7,-6,2,27,-14,-40,-48
-36,-25,12,30,-24,-7,-5,7,33,-9,-37,-47
-37,-25,12,31,-25,-6,-4,12,39,-5,-35,-47
-38,-25,13,31,-25,-6,-3,17,45,-1,-34,-47
-39,-25,13,32,-26,-6,-2,22,51,3,-33,-48
-40,-25,13,33,-26,-6,-2,27,57,6,-32,-50
-41,-25,14,34,-27,-6,-1,32,63,8,-32,-51
-42,-26,15,34,-29,-6,-1,36,69,9,-31,-53
-44,-26,17,35,-30,-5,0,41,75,11,-31,-55
-45,-26,19,36,-32,-4,1,45,80,12,-31,-57
-47,-27,20,37,-33,-4,2,48,85,14,-31,-59
-48,-28,21,38,-34,-3,4,53,90,16,-31,-61
-49,-29,21,39,-35,-3,7,57,96,17,-32,-64
-50,-29,20,40,-35,-4,9,62,101,18,-33,-67
-51,-30,20,41,-35,-5,12,67,106,19,-35,-70
-51,-31,19,41,-35,-6,15,72,111,20,-36,-72
-51,-32,19,41,-35,-7,18,77,116,20,-37,-74
-51,-33,18,42,-35,-8,20,81,121,21,-37,-75
-51,-34,16,42,-34,-9,22,86,125,21,-38,-77
-50,-35,15,42,-33,-10,23,90,130,22,-39,-80
-49,-36,12,42,-30,-12,24,95,134,23,-40,-82
-47,-37,9,42,-27,-14,25,99,139,24,-40,-85
-44,-38,5,42,-24,-16,26,103,143,25,-41,-87
-41,-38,2,41,-21,-18,27,106,147,25,-41,-89
-37,-39,-2,39,-18,-21,28,109,150,26,-41,-91
-33,-40,-6,38,-14,-23,29,111,152,26,-41,-93
-30,-41,-10,36,-10,-26,29,113,154,26,-40,-94
-26,-41,-15,34,-6,-28,30,115,156,27,-40,-95
-22,-42,-19,33,-1,-30,30,116,157,29,-39,-97
-19,-42,-23,31,2,-32,31,118,159,32,-36,-98
-16,-42,-27,29,5,-34,31,119,161,35,-33,-98
-13,-41,-29,28,8,-35,31,121,163,38,-28,-98
-11,-41,-30,26,9,-35,31,121,165,42,-22,-97
-9,-40,-31,25,10,-35,31,122,166,47,-17,-95
-7,-40,-32,23,12,-36,30,122,167,51,-11,-92
-4,-39,-34,21,14,-37,29,121,167,56,-6,-87
0,-38,-37,19,18,-38,28,120,167,61,0,-82
3,-37,-40,17,22,-39,26,119,167,65,5,-77
7,-37,-44,15,26,-40,24,117,166,70,11,-72
11,-36,-47,13,29,-41,23,114,165,74,16,-67
15,-35,-50,11,32,-42,21,111,163,77,22,-62
19,-34,-52,8,35,-43,18,107,160,80,27,-56
23,-33,-55,6,38,-44,16,103,156,83,31,-50
26,-32,-57,3,41,-45,13,99,152,85,35,-43
28,-31,-59,1,43,-45,11,95,148,88,39,-36
31,-30,-61,0,46,-45,8,91,144,90,42,-30
33,-29,-63,-1,48,-45,6,87,140,91,45,-25
35,-29,-64,-2,50,-46,4,82,135,92,48,-21
38,-28,-66,-4,52,-46,1,77,129,91,49,-17
40,-28,-67,-5,53,-47,-1,72,123,90,50,-15
42,-27,-68,-7,54,-47,-3,66,117,88,50,-12
43,-26,-68,-8,55,-47,-6,61,110,85,49,-10
45,-25,-70,-10,57,-47,-9,55,102,81,47,-10
48,-24,-72,-12,60,-48,-12,48,94,76,44,-10
51,-23,-74,-14,63,-48,-15,42,86,71,41,-12
56,-22,-79,-16,67,-50,-18,35,77,64,36,-16
62,-22,-85,-20,73,-53,-22,28,67,56,30,-21
70,-21,-92,-24,80,-56,-26,19,57,47,23,-27
77,-21,-99,-28,87,-60,-30,11,46,37,16,-33
84,-21,-105,-31,94,-63,-34,3,35,28,8,-39
90,-21,-110,-34,100,-66,-37,-3,25,18,1,-45
95,-21,-116,-36,105,-68,-40,-10,16,9,-6,-52
99,-21,-120,-38,110,-71,-43,-16,7,0,-13,-58
102,-21,-125,-39,114,-73,-46,-23,-1,-8,-20,-65
106,-22,-128,-41,117,-75,-48,-29,-10,-17,-26,-71
109,-22,-132,-42,120,-77,-50,-35,-18,-25,-32,-77
112,-22,-135,-44,123,-78,-52,-40,-25,-32,-37,-83
115,-22,-137,-45,125,-80,-54,-45,-32,-39,-42,-88
117,-22,-139,-47,127,-81,-55,-49,-39,-46,-47,-92
119,-22,-141,-48,130,-82,-57,-53,-45,-52,-52,-96
121,-22,-143,-49,132,-83,-58,-57,-50,-58,-56,-100
123,-22,-145,-50,134,-83,-59,-61,-55,-63,-61,-103
126,-22,-148,-51,137,-84,-60,-64,-60,-68,-65,-107
130,-22,-152,-53,141,-86,-62,-68,-65,-74,-70,-111
136,-22,-157,-56,146,-89,-64,-73,-71,-79,-74,-115
141,-22,-163,-59,151,-92,-67,-77,-76,-85,-78,-119
146,-22,-168,-61,157,-96,-69,-80,-80,-90,-82,-122
151,-22,-174,-63,162,-98,-71,-83,-84,-94,-85,-125
154,-22,-177,-65,166,-100,-73,-85,-87,-97,-88,-127
156,-22,-179,-66,168,-100,-74,-86,-89,-99,-91,-129
