leadI,leadII,leadIII,leadaVR,leadaVL,leadaVF,leadV1,leadV2,leadV3,leadV4,leadV5,leadV6
-2,1,3,0,-2,2,-3,-7,-9,-2,-1,1
-4,4,9,0,-6,7,-7,-17,-23,-5,-3,4
-4,8,12,-1,-8,10,-9,-23,-32,-7,-3,7
-2,12,15,-5,-9,14,-9,-25,-37,-7,-2,10
-2,15,17,-6,-9,16,-10,-27,-41,-7,-2,12
-6,13,18,-3,-12,15,-11,-31,-46,-8,-4,12
-12,8,19,2,-15,13,-14,-35,-51,-10,-7,10
-15,5,19,5,-17,12,-15,-37,-54,-12,-10,8
-16,5,20,5,-18,12,-15,-38,-57,-12,-10,9
-15,6,20,4,-17,13,-14,-38,-58,-12,-9,10
-13,8,21,2,-16,14,-14,-37,-59,-11,-7,11
-10,12,21,-1,-15,16,-13,-36,-59,-10,-5,13
-7,15,22,-4,-14,18,-12,-35,-59,-9,-3,15
-8,14,22,-3,-15,18,-12,-35,-61,-9,-4,15
-13,9,22,1,-18,16,-14,-38,-64,-10,-6,14
-17,5,23,5,-20,15,-15,-39,-66,-11,-9,12
-18,4,23,6,-20,14,-15,-39,-67,-11,-9,12
-17,5,23,5,-19,15,-14,-39,-68,-11,-9,12
-15,7,23,4,-19,15,-14,-38,-69,-10,-8,13
-13,10,23,1,-18,16,-14,-37,-69,-9,-7,14
-9,14,23,-2,-17,18,-13,-36,-68,-8,-5,16
-9,15,23,-3,-17,19,-12,-35,-68,-7,-4,17
-12,11,23,0,-18,17,-13,-37,-70,-8,-6,15
-17,7,23,5,-20,15,-14,-38,-71,-9,-8,13
-18,5,23,6,-20,14,-13,-38,-72,-9,-8,13
-17,5,23,5,-19,14,-13,-38,-72,-9,-8,13
-16,6,23,4,-18,14,-12,-37,-71,-8,-7,14
-14,7,22,2,-17,14,-12,-35,-70,-8,-6,14
-10,10,21,-1,-16,15,-11,-33,-69,-7,-4,16
-8,13,21,-3,-14,16,-11,-31,-67,-6,-3,17
-9,11,20,-1,-15,15,-11,-31,-67,-6,-4,16
-13,6,19,3,-16,12,-12,-31,-67,-6,-6,15
-15,4,18,5,-16,11,-11,-31,-66,-7,-7,14
-14,4,18,4,-14,10,-11,-29,-64,-6,-7,14
-12,4,17,3,-13,10,-10,-28,-62,-6,-6,14
-10,5,16,2,-12,10,-9,-26,-60,-6,-6,14
-6,7,14,0,-11,10,-7,-23,-58,-5,-4,14
-3,10,13,-4,-9,11,-6,-20,-54,-3,-2,15
-2,10,13,-4,-9,11,-5,-18,-51,-2,-1,16
-5,7,12,-1,-9,9,-5,-18,-49,-2,-2,14
-7,4,10,1,-8,7,-6,-17,-46,-2,-3,13
-6,3,9,1,-7,7,-5,-15,-43,-1,-3,13
-4,4,8,0,-5,6,-4,-13,-40,-1,-3,13
-2,4,7,-1,-4,6,-4,-12,-37,-1,-2,13
0,6,6,-3,-3,5,-3,-10,-33,0,-2,14
5,8,4,-7,0,6,-3,-8,-28,2,0,15
7,9,3,-8,1,6,-2,-6,-24,3,1,16
6,7,1,-7,2,4,-3,-5,-20,3,0,15
4,4,0,-4,2,2,-4,-5,-17,3,0,14
4,3,-1,-4,3,1,-3,-3,-13,4,0,14
6,4,-1,-5,5,1,-2,-1,-9,6,0,14
8,4,-2,-6,6,1,-1,0,-4,7,1,14
9,5,-3,-7,6,1,-1,1,0,8,2,14
12,7,-4,-9,8,1,0,3,4,9,3,15
15,10,-4,-12,9,2,0,5,9,11,5,16
14,9,-5,-11,9,2,1,6,12,12,5,15
12,6,-5,-9,9,0,0,6,15,12,4,14
11,5,-6,-8,9,0,0,7,18,13,4,13
12,5,-6,-9,10,0,0,8,21,14,4,13
14,6,-7,-10,11,0,0,10,24,14,5,13
14,6,-8,-10,11,-1,0,10,27,14,5,13
16,7,-9,-12,12,-1,1,11,30,14,5,13
19,9,-10,-14,14,0,2,13,34,15,7,14
19,9,-11,-14,14,0,2,14,36,16,7,13
17,6,-11,-12,14,-2,1,14,37,15,6,12
15,3,-12,-9,14,-4,0,15,38,15,5,11
15,2,-13,-9,15,-5,1,16,40,15,5,11
16,2,-13,-9,16,-5,1,17,42,15,5,11
16,2,-13,-9,15,-5,1,17,43,14,4,10
16,2,-14,-9,15,-6,1,18,44,13,4,10
18,3,-14,-10,15,-5,2,20,46,13,5,10
18,4,-15,-11,16,-5,3,21,48,14,6,10
16,2,-15,-9,15,-6,3,21,48,13,5,9
13,-2,-16,-6,15,-8,3,21,48,13,4,8
12,-3,-16,-5,15,-9,4,22,49,12,3,7
12,-4,-16,-5,15,-9,5,24,50,12,3,7
12,-4,-16,-4,14,-10,5,24,51,11,3,7
12,-4,-16,-4,14,-10,5,23,51,11,3,6
13,-3,-16,-5,14,-9,5,24,51,11,3,6
15,0,-16,-7,15,-8,6,25,52,12,4,7
14,-1,-16,-6,14,-8,7,25,52,11,4,6
11,-4,-16,-3,14,-10,6,25,52,11,3,5
9,-6,-16,-1,13,-11,6,25,51,10,2,5
9,-6,-16,-1,13,-11,7,26,51,10,2,5
9,-6,-16,-1,13,-11,7,26,51,10,2,5
10,-6,-16,-1,13,-11,6,26,51,10,2,5
11,-5,-16,-2,13,-11,6,26,50,10,3,5
13,-3,-16,-5,14,-10,6,26,51,10,4,6
13,-2,-15,-6,14,-9,6,27,52,11,5,6
9,-4,-14,-3,12,-9,5,27,52,11,4,6
6,-6,-13,-1,10,-9,4,26,52,11,4,6
6,-6,-12,0,10,-9,4,27,52,11,5,6
5,-6,-12,0,10,-9,4,27,53,11,5,7
5,-6,-11,0,9,-9,4,27,52,10,5,6
5,-5,-11,0,8,-8,4,27,52,10,5,6
6,-3,-10,-2,9,-7,4,27,52,10,6,7
8,-1,-10,-3,9,-5,4,27,52,10,7,8
6,-2,-10,-2,8,-6,4,26,51,10,7,7
4,-5,-10,0,7,-7,3,26,50,9,6,6
3,-5,-9,1,7,-7,3,26,50,9,6,7
4,-5,-9,0,7,-7,4,26,50,9,6,7
4,-5,-9,0,7,-7,3,26,49,9,6,7
4,-6,-10,1,7,-8,2,25,48,8,6,6
5,-5,-10,0,7,-7,2,25,48,9,7,7
7,-2,-9,-3,8,-6,3,26,49,10,8,8
7,-2,-9,-3,7,-6,3,25,49,10,8,8
4,-5,-9,0,6,-7,2,24,48,9,6,8
3,-6,-9,1,6,-7,2,24,48,8,6,7
3,-5,-9,1,7,-7,2,24,48,9,6,8
4,-5,-9,1,7,-7,2,24,48,9,5,8
4,-5,-9,1,7,-7,1,24,47,8,4,7
4,-5,-9,1,7,-7,1,24,47,7,4,7
6,-2,-9,-2,7,-5,2,24,47,8,5,8
7,-1,-8,-3,7,-4,2,24,47,8,6,9
5,-3,-8,-1,6,-5,1,24,46,7,5,9
3,-4,-8,0,5,-5,0,23,45,7,5,9
2,-4,-7,0,5,-4,0,22,44,7,5,9
2,-3,-6,0,5,-4,0,22,44,7,6,9
2,-4,-6,1,5,-4,0,21,43,6,6,9
2,-4,-6,1,5,-5,0,21,42,4,5,9
3,-3,-7,0,5,-4,1,21,41,3,6,9
5,-1,-7,-2,6,-4,2,22,40,3,7,10
4,-3,-8,-1,6,-5,2,23,39,1,7,10
2,-6,-9,1,6,-7,2,23,38,0,7,10
2,-7,-10,2,7,-9,4,24,37,0,7,10
3,-8,-12,2,9,-10,6,26,38,0,8,11
4,-10,-15,3,10,-12,8,29,39,1,8,11
5,-12,-17,3,11,-14,9,30,40,3,9,10
8,-11,-19,1,13,-15,10,32,42,6,12,11
13,-8,-21,-2,16,-15,11,35,46,13,16,14
16,-8,-24,-4,19,-16,11,38,52,21,19,15
16,-11,-27,-3,22,-20,11,41,57,29,20,15
18,-14,-31,-2,25,-23,13,44,64,38,22,15
21,-15,-36,-3,29,-25,16,50,73,49,25,14
24,-18,-42,-3,34,-29,19,56,83,60,27,12
26,-23,-48,-2,38,-35,21,62,93,70,27,9
28,-27,-56,-1,43,-41,25,70,106,79,27,6
33,-31,-65,-1,49,-48,31,80,121,88,26,2
37,-37,-75,0,55,-56,37,92,138,93,24,-3
38,-47,-85,4,61,-66,43,102,153,92,17,-11
38,-57,-95,8,67,-76,49,113,168,85,7,-20
40,-66,-106,11,74,-85,55,124,182,76,-3,-28
43,-74,-116,14,80,-94,60,135,196,67,-12,-36
45,-81,-126,17,86,-103,62,143,208,56,-22,-44
47,-88,-135,19,91,-111,63,151,218,45,-32,-52
50,-91,-143,20,96,-117,65,159,229,34,-39,-58
53,-93,-148,19,100,-121,66,166,238,24,-45,-63
54,-98,-152,22,103,-125,67,172,245,14,-51,-68
52,-103,-155,25,104,-129,68,176,251,5,-58,-74
52,-105,-157,26,105,-131,69,180,257,-1,-63,-77
53,-106,-158,26,106,-131,69,183,262,-7,-66,-79
53,-106,-158,26,106,-131,68,184,266,-11,-68,-81
52,-105,-158,26,105,-131,66,182,267,-15,-69,-82
53,-102,-155,24,104,-128,63,180,268,-16,-69,-81
54,-96,-151,20,103,-124,59,176,267,-15,-66,-79
54,-92,-147,19,100,-119,54,171,264,-16,-65,-77
51,-90,-142,19,97,-116,49,163,258,-17,-64,-76
49,-87,-136,18,93,-111,44,155,252,-16,-62,-73
48,-82,-130,16,90,-105,40,146,246,-14,-58,-69
47,-77,-124,14,86,-100,36,139,240,-13,-55,-64
45,-73,-118,14,82,-95,33,131,233,-13,-52,-61
43,-69,-113,12,77,-90,31,124,225,-13,-50,-57
43,-62,-106,9,74,-83,30,118,218,-11,-45,-52
43,-55,-98,6,70,-76,29,112,211,-8,-41,-47
39,-51,-90,6,64,-70,27,106,202,-7,-38,-43
34,-48,-81,6,58,-64,26,100,191,-7,-35,-39
30,-43,-72,6,52,-57,26,95,179,-7,-32,-34
27,-38,-64,5,46,-50,28,92,166,-7,-29,-29
22,-34,-55,6,39,-44,30,88,152,-8,-25,-24
16,-31,-47,7,31,-38,32,85,139,-9,-23,-20
13,-25,-38,6,25,-31,35,83,126,-9,-20,-16
10,-19,-30,4,20,-25,39,82,114,-8,-16,-11
5,-17,-23,5,14,-20,43,79,103,-7,-13,-8
0,-16,-16,8,8,-16,45,77,92,-7,-11,-6
-3,-14,-11,9,4,-12,48,75,82,-6,-9,-3
-5,-12,-6,9,1,-9,52,73,73,-5,-7,0
-7,-11,-3,9,-1,-7,54,71,65,-4,-6,2
-10,-11,-1,10,-4,-6,57,70,58,-4,-5,3
-11,-9,1,10,-6,-4,61,69,51,-4,-4,4
-11,-7,3,8,-7,-2,66,70,46,-4,-2,6
-12,-6,5,8,-8,0,70,71,42,-3,-1,7
-14,-8,6,10,-10,-1,74,70,37,-4,-1,7
-16,-9,7,12,-11,-1,77,68,33,-4,-1,7
-16,-8,8,12,-11,0,81,68,29,-4,-1,7
-16,-8,8,12,-12,0,84,67,26,-3,0,8
-17,-9,8,13,-13,-1,86,65,24,-4,-1,7
-17,-9,8,13,-13,-1,89,63,22,-4,-1,7
-16,-7,8,12,-12,0,93,61,21,-4,0,8
-15,-5,9,10,-12,2,96,59,20,-4,0,9
-16,-5,10,11,-12,2,94,55,18,-4,0,9
-16,-6,10,11,-12,2,89,50,17,-4,0,9
-14,-4,10,9,-11,3,81,46,17,-3,2,10
-12,-2,10,6,-10,4,71,43,17,-1,3,11
-10,0,10,5,-10,5,60,38,17,0,4,12
-9,1,10,4,-10,5,48,33,18,0,4,13
-6,4,10,1,-9,7,37,29,19,1,5,14
-2,9,11,-3,-7,9,27,25,21,3,7,16
-1,10,11,-4,-6,10,19,20,21,4,9,17
-1,10,11,-4,-6,10,11,16,22,4,9,17
-1,10,11,-5,-5,11,5,12,22,5,9,18
1,11,11,-6,-4,11,0,9,23,7,10,19
2,12,11,-7,-4,11,-5,6,23,7,11,19
2,11,11,-7,-4,11,-9,3,22,7,10,18
2,12,11,-7,-4,11,-12,1,22,7,10,18
4,15,12,-10,-4,13,-13,0,23,8,11,19
5,16,12,-11,-3,14,-14,0,24,8,11,19
4,15,11,-10,-4,13,-15,-1,24,8,11,19
3,14,11,-9,-4,13,-16,-3,24,8,10,19
4,14,11,-9,-3,13,-16,-3,24,8,11,20
4,15,11,-10,-3,13,-17,-3,24,9,11,20
4,14,10,-9,-3,12,-17,-4,23,8,11,20
3,13,10,-8,-3,11,-18,-4,22,8,10,19
4,15,10,-9,-3,12,-18,-4,23,9,11,20
5,16,10,-11,-2,13,-18,-3,23,9,12,20
5,15,10,-10,-2,12,-18,-4,23,9,12,20
3,14,10,-9,-3,12,-19,-5,23,8,11,19
3,14,11,-9,-3,12,-18,-5,23,8,11,19
4,15,11,-9,-2,13,-18,-5,23,8,12,20
4,14,11,-9,-3,12,-18,-5,22,8,11,19
2,13,11,-7,-4,11,-19,-6,21,9,10,18
3,13,11,-8,-3,12,-19,-6,20,10,10,18
5,16,11,-11,-2,13,-19,-6,21,12,11,19
5,16,11,-11,-3,13,-19,-6,21,13,12,20
3,15,11,-9,-4,13,-19,-7,21,14,12,20
3,14,11,-9,-4,13,-19,-7,21,15,12,20
3,15,11,-9,-4,13,-18,-7,21,15,13,20
3,15,11,-9,-4,13,-18,-7,20,15,13,19
3,14,11,-8,-4,12,-19,-8,19,14,12,19
3,13,10,-8,-3,11,-19,-8,19,14,12,19
5,15,10,-10,-3,12,-19,-7,20,15,13,19
5,16,11,-11,-3,13,-19,-7,20,15,14,20
4,15,11,-10,-3,13,-19,-8,18,15,13,19
3,14,10,-9,-4,13,-19,-9,17,15,13,19
3,14,11,-9,-4,13,-19,-9,17,15,13,19
4,15,11,-9,-4,13,-19,-10,17,16,13,20
3,14,11,-9,-4,13,-20,-10,15,15,12,19
2,13,12,-8,-5,12,-20,-11,14,14,11,18
3,15,13,-9,-5,13,-20,-11,13,14,11,19
4,17,13,-11,-4,14,-20,-10,13,14,13,20
4,16,13,-10,-5,14,-20,-11,12,14,13,20
3,15,13,-9,-5,14,-21,-13,11,14,12,19
3,15,13,-9,-5,15,-21,-13,11,13,12,20
3,16,13,-9,-5,15,-21,-14,10,13,12,20
2,16,13,-8,-6,15,-21,-15,9,13,12,19
0,14,13,-7,-7,14,-22,-16,7,12,11,19
0,15,14,-7,-7,14,-22,-17,6,11,11,19
2,17,14,-9,-6,15,-22,-17,6,11,12,19
1,17,15,-9,-7,16,-22,-17,4,11,12,19
0,15,16,-8,-8,15,-22,-19,2,9,11,18
-1,15,16,-7,-8,15,-22,-20,0,9,10,18
0,15,16,-7,-8,16,-22,-20,0,9,10,18
-1,15,16,-6,-8,16,-22,-21,-2,8,9,18
-2,13,16,-5,-9,15,-23,-23,-4,7,8,17
-3,13,16,-4,-10,14,-24,-24,-5,6,7,17
-1,15,17,-7,-9,16,-24,-24,-6,6,8,17
0,17,17,-8,-9,17,-25,-25,-8,5,8,18
-1,15,18,-7,-10,16,-26,-27,-10,4,7,17
-3,14,18,-5,-11,16,-26,-29,-12,3,7,16
-3,15,19,-5,-11,17,-26,-30,-15,2,7,16
-4,15,20,-5,-12,18,-27,-31,-17,1,7,17
-5,14,20,-4,-13,18,-28,-32,-21,0,6,16
-7,13,20,-3,-14,17,-29,-34,-24,-2,5,16
-6,15,21,-4,-14,17,-29,-35,-26,-2,5,16
-5,17,21,-6,-13,18,-28,-36,-27,-3,6,17
-6,16,22,-5,-14,18,-29,-38,-30,-4,5,16
-9,14,23,-3,-16,18,-30,-40,-34,-5,4,15
-10,14,24,-2,-17,19,-31,-41,-36,-6,3,14
-10,15,25,-2,-17,20,-31,-42,-39,-7,3,14
-11,14,25,-1,-18,20,-31,-44,-42,-8,3,14
-13,13,26,0,-19,19,-32,-46,-46,-10,1,13
-13,13,26,0,-20,19,-32,-47,-48,-12,1,13
-12,15,27,-1,-20,20,-32,-47,-49,-12,1,14
-12,15,28,-2,-20,21,-32,-48,-52,-13,1,14
-14,14,28,0,-22,21,-32,-50,-56,-14,0,13
-16,13,29,1,-23,21,-32,-51,-59,-15,0,12
-16,14,30,1,-23,22,-32,-51,-62,-15,0,13
-16,14,30,1,-23,22,-32,-51,-64,-16,0,13
-18,12,30,3,-24,21,-32,-52,-67,-17,-1,12
-19,12,31,4,-25,21,-32,-54,-70,-18,-2,11
-17,14,31,2,-25,22,-32,-54,-72,-18,-2,11
-16,15,32,0,-24,23,-31,-54,-73,-18,-2,12
-18,14,32,2,-25,23,-31,-55,-76,-18,-2,11
-19,12,32,3,-26,22,-32,-56,-78,-19,-3,11
-19,12,32,3,-26,22,-31,-56,-81,-20,-3,11
-19,13,32,3,-26,23,-30,-56,-83,-20,-2,11
-21,12,33,5,-27,23,-30,-56,-85,-20,-3,11
-23,10,33,6,-28,22,-30,-57,-88,-21,-4,10
-22,12,33,5,-28,22,-29,-57,-89,-21,-3,11
-20,14,34,3,-27,24,-29,-57,-90,-20,-2,12
-20,14,34,3,-28,24,-29,-57,-91,-20,-2,11
-22,12,35,5,-29,23,-29,-57,-93,-21,-3,10
-22,12,35,5,-29,23,-29,-57,-95,-20,-3,10
-22,12,35,5,-29,24,-28,-57,-96,-20,-3,10
-23,11,36,5,-29,24,-28,-57,-97,-20,-3,10
-25,10,36,7,-30,23,-29,-57,-99,-21,-4,10
-24,11,36,7,-30,23,-29,-57,-100,-21,-3,11
-22,13,36,4,-29,24,-27,-57,-100,-20,-2,12
-22,14,36,4,-29,24,-27,-57,-101,-20,-1,12
-24,12,37,5,-30,24,-28,-57,-102,-20,-2,12
-24,12,37,6,-31,24,-29,-58,-103,-20,-2,12
-23,13,37,5,-30,25,-29,-57,-103,-20,-2,13
-23,13,37,5,-30,25,-28,-56,-103,-19,-2,13
-24,12,37,6,-30,24,-28,-56,-104,-20,-2,12
-24,11,36,7,-30,23,-28,-56,-104,-19,-3,11
-23,13,36,5,-30,24,-27,-55,-103,-18,-2,12
-21,15,36,3,-29,25,-26,-54,-102,-17,-1,13
-22,13,35,4,-29,24,-26,-54,-102,-17,-1,13
-22,12,34,5,-29,23,-26,-54,-102,-17,-2,12
-21,13,34,4,-28,23,-26,-53,-101,-16,-1,12
-20,13,34,3,-27,23,-25,-51,-100,-15,0,13
-20,12,33,4,-27,23,-25,-51,-99,-15,0,12
-21,11,33,5,-27,22,-25,-50,-98,-15,-1,12
-19,12,32,4,-26,22,-24,-48,-96,-15,0,12
-16,14,31,1,-24,22,-23,-46,-93,-14,0,13
-16,14,31,1,-23,22,-22,-44,-91,-13,1,14
-16,13,30,2,-23,21,-21,-43,-89,-13,0,13
-16,13,29,2,-22,21,-20,-41,-86,-13,0,13
-14,13,28,0,-20,21,-19,-38,-83,-11,1,13
-13,13,26,0,-19,20,-18,-36,-80,-10,1,12
-13,11,25,0,-19,19,-17,-35,-77,-10,1,12
-12,11,24,0,-18,18,-17,-33,-74,-10,1,12
-9,13,24,-2,-17,18,-16,-31,-70,-8,2,13
-7,14,23,-4,-15,18,-16,-30,-66,-7,3,13
-7,14,21,-3,-14,17,-17,-29,-63,-7,3,13
-7,13,20,-3,-13,16,-17,-28,-60,-7,4,13
-4,14,18,-4,-10,16,-16,-26,-56,-5,5,14
-2,14,16,-5,-9,15,-15,-24,-52,-4,6,14
-2,13,15,-5,-8,14,-16,-23,-48,-3,6,14
-2,12,15,-5,-8,14,-17,-22,-45,-3,6,14
1,15,14,-8,-6,15,-15,-20,-40,-1,7,15
3,16,14,-10,-5,15,-14,-18,-35,0,9,15
3,15,13,-10,-4,14,-13,-17,-32,1,9,15
3,15,12,-9,-4,14,-13,-16,-29,2,8,14
4,15,12,-9,-4,14,-13,-15,-25,3,8,14
5,16,11,-10,-3,14,-12,-14,-21,4,9,15
5,16,11,-10,-3,14,-11,-14,-18,5,8,14
4,15,11,-9,-3,13,-12,-13,-15,5,8,13
6,16,11,-11,-2,13,-11,-12,-10,7,9,13
8,18,10,-13,-1,13,-10,-10,-6,8,10,14
9,17,9,-13,0,13,-10,-9,-3,9,11,13
8,16,7,-12,0,11,-11,-9,-1,9,10,13
9,15,6,-12,1,11,-11,-8,1,9,10,12
10,15,5,-13,3,11,-10,-7,3,9,10,12
10,14,4,-12,3,10,-10,-6,5,9,9,12
9,12,3,-10,3,8,-10,-6,7,9,9,11
9,11,3,-10,3,7,-10,-5,9,9,9,11
11,12,2,-11,4,7,-9,-3,12,10,10,11
11,12,2,-12,5,7,-9,-2,14,10,10,11
9,10,1,-10,4,6,-9,-2,15,9,9,10
8,9,0,-9,4,5,-8,-1,16,9,8,9
8,9,0,-9,4,5,-7,0,17,9,8,9
8,9,0,-8,4,5,-6,0,18,9,7,9
7,7,0,-7,4,3,-6,1,19,8,7,7
6,5,0,-5,3,2,-5,1,19,8,6,6
7,6,0,-6,4,2,-4,3,21,8,7,7
8,7,0,-7,4,2,-3,4,23,9,8,7
6,5,0,-6,3,2,-3,5,24,8,8,7
5,4,-1,-4,3,1,-3,4,23,8,7,6
5,4,-1,-4,3,1,-3,5,22,8,7,5
6,4,-1,-5,4,1,-2,6,23,8,7,6
6,3,-2,-4,4,1,-2,6,23,8,7,6
4,1,-2,-3,3,0,-3,6,23,8,6,5
5,2,-2,-3,3,0,-3,6,24,8,6,6
6,4,-2,-6,3,0,-3,7,25,8,8,6
6,4,-2,-6,3,0,-3,7,25,8,8,6
5,3,-3,-5,3,0,-3,7,25,8,7,4
5,2,-3,-4,3,0,-3,7,25,9,7,3
5,2,-2,-4,3,0,-2,8,26,9,7,3
4,2,-2,-4,3,0,-2,8,26,10,7,3
3,0,-2,-2,3,0,-4,7,25,9,7,3
3,0,-2,-2,3,-1,-5,6,24,8,6,3
5,3,-2,-5,4,0,-4,7,25,8,7,4
6,4,-2,-5,4,0,-3,7,26,8,7,5
5,3,-3,-4,4,0,-3,7,26,8,7,4
5,2,-3,-3,4,-1,-4,7,26,8,6,4
5,2,-3,-4,5,-1,-4,8,26,8,6,4
6,2,-3,-4,5,0,-5,8,26,8,6,5
5,1,-3,-3,4,-1,-6,8,26,8,6,4
4,0,-3,-2,4,-1,-6,7,26,8,5,4
5,2,-2,-3,4,0,-6,7,26,8,6,4
6,3,-2,-5,4,0,-6,7,26,9,7,5
6,3,-2,-5,4,0,-6,7,26,8,7,4
5,2,-3,-4,4,-1,-6,7,26,8,6,4
5,2,-3,-3,4,-1,-5,7,26,8,6,4
5,2,-2,-4,4,0,-5,8,26,8,6,4
5,2,-2,-3,4,0,-5,7,25,7,6,3
3,0,-3,-2,3,-1,-6,6,24,6,6,2
4,0,-3,-2,3,-1,-6,7,24,6,6,2
6,3,-3,-5,4,0,-5,8,25,7,7,3
6,3,-3,-5,4,0,-5,8,25,7,7,3
4,2,-3,-3,3,-1,-6,7,24,6,6,2
4,2,-3,-3,3,-1,-6,7,23,6,6,2
4,2,-2,-3,3,0,-6,7,23,6,6,2
4,3,-1,-3,2,0,-6,7,23,6,6,3
2,2,0,-2,1,0,-7,6,22,5,5,2
2,1,0,-1,0,0,-7,6,21,5,5,2
3,3,0,-4,1,1,-6,6,21,5,6,3
4,4,0,-5,1,2,-5,6,21,4,7,4
3,3,0,-3,1,0,-5,6,19,3,6,3
3,1,-1,-2,1,0,-5,6,18,1,6,3
3,1,-1,-2,2,0,-4,7,17,1,6,4
4,1,-2,-2,3,0,-3,8,16,0,7,5
3,0,-3,-1,3,-2,-3,8,15,-1,7,5
2,-3,-5,0,4,-4,-2,9,14,-1,6,4
4,-3,-7,-1,6,-5,0,12,16,0,7,5
8,-2,-10,-3,9,-6,3,15,19,2,9,6
9,-3,-12,-3,10,-8,4,17,21,4,10,6
10,-4,-14,-2,12,-10,4,18,23,8,12,6
13,-5,-16,-3,14,-11,5,20,27,14,14,8
16,-4,-19,-5,18,-12,6,24,32,22,17,10
18,-5,-22,-6,20,-14,7,27,38,31,20,10
19,-9,-27,-5,23,-18,8,31,45,41,21,9
22,-11,-33,-5,28,-22,11,37,55,53,23,8
27,-12,-39,-7,33,-26,15,44,67,64,26,7
30,-16,-46,-7,38,-31,18,51,79,74,27,5
31,-22,-54,-4,43,-38,23,59,92,83,26,1
34,-29,-63,-2,48,-46,28,69,107,90,24,-4
38,-36,-73,0,55,-54,34,80,123,93,21,-10
40,-44,-83,3,62,-64,40,92,139,91,15,-17
41,-55,-95,7,68,-75,46,103,153,84,6,-26
43,-65,-106,11,74,-86,50,113,167,75,-4,-35
47,-70,-117,11,82,-94,54,124,181,66,-12,-43
51,-76,-126,12,88,-101,57,133,194,56,-19,-50
52,-83,-134,15,93,-109,58,140,204,44,-28,-57
53,-88,-141,17,97,-115,60,147,214,33,-35,-64
55,-92,-145,18,100,-119,61,153,223,24,-41,-69
56,-95,-149,19,102,-122,63,159,230,15,-47,-74
55,-98,-151,21,103,-124,63,163,236,7,-53,-79
54,-101,-153,23,104,-127,63,166,241,0,-58,-83
56,-100,-155,22,105,-127,63,168,246,-4,-61,-84
57,-98,-154,20,105,-126,62,169,250,-8,-62,-84
57,-96,-152,19,104,-124,59,168,252,-10,-62,-85
55,-94,-149,19,102,-122,55,164,252,-11,-62,-85
54,-91,-144,18,100,-118,50,159,250,-12,-61,-84
54,-87,-140,16,98,-113,47,154,247,-13,-58,-82
53,-83,-135,14,95,-109,42,146,241,-13,-56,-79
51,-80,-129,14,90,-104,37,137,234,-12,-54,-76
50,-75,-124,12,87,-99,33,129,228,-11,-51,-72
50,-68,-118,8,84,-93,30,122,222,-9,-47,-67
49,-62,-112,6,81,-87,28,116,216,-8,-44,-63
46,-59,-105,6,76,-83,26,109,208,-8,-42,-59
43,-55,-98,5,71,-77,23,102,200,-7,-39,-55
41,-50,-90,4,66,-70,22,96,192,-5,-35,-50
38,-45,-82,3,60,-63,21,91,182,-4,-32,-45
33,-42,-73,4,53,-57,21,85,170,-5,-30,-41
29,-38,-65,4,47,-51,21,81,156,-5,-27,-37
26,-31,-56,2,41,-43,23,78,144,-5,-23,-31
23,-25,-47,1,35,-36,27,76,131,-5,-19,-26
18,-21,-39,2,28,-30,30,73,118,-6,-17,-21
12,-18,-31,3,22,-25,33,70,104,-7,-14,-18
7,-15,-22,4,15,-19,36,68,92,-7,-11,-14
3,-12,-14,4,9,-13,39,66,81,-6,-8,-10
-1,-10,-8,6,4,-9,42,64,70,-6,-6,-8
-5,-10,-3,7,0,-7,44,61,60,-6,-5,-6
-6,-7,0,6,-3,-4,48,60,52,-5,-2,-3
-6,-3,3,5,-5,-1,52,59,45,-4,0,0
-8,-2,6,5,-7,0,56,58,38,-4,1,2
-12,-3,8,7,-10,1,59,57,32,-5,2,2
-13,-3,10,8,-11,2,63,57,26,-5,2,3
-13,-3,11,8,-12,3,67,57,22,-5,3,4
-14,-3,12,9,-13,4,71,57,17,-6,3,4
-16,-5,13,11,-14,3,73,55,13,-6,3,4
-16,-5,13,10,-14,3,77,54,10,-6,3,5
-14,-2,13,8,-14,5,81,53,8,-5,4,6
-14,-1,13,7,-14,5,85,52,7,-5,4,7
-16,-2,14,9,-15,5,88,49,4,-5,4,7
-17,-2,14,10,-15,5,90,46,2,-6,4,7
-16,-1,15,9,-15,6,90,43,1,-5,5,7
-15,0,16,8,-15,7,86,40,0,-5,6,8
-15,0,16,7,-15,8,79,35,0,-5,6,8
-13,1,17,6,-15,9,69,30,-1,-4,7,9
-10,6,17,1,-13,11,59,27,0,-2,9,11
-6,10,17,-2,-12,13,49,24,1,0,11,14
-5,12,17,-3,-11,14,37,19,2,1,12,15
-5,13,17,-4,-11,15,26,14,3,1,13,15
-3,15,17,-5,-10,16,17,10,4,2,14,16
-1,16,18,-7,-9,17,9,6,5,3,16,17
0,16,18,-8,-9,17,2,2,5,4,16,18
0,16,18,-7,-9,17,-3,-2,5,4,16,18
1,18,18,-9,-8,17,-8,-5,6,5,17,19
3,21,18,-12,-6,18,-11,-7,7,6,18,21
4,21,17,-13,-6,18,-13,-9,7,6,19,22
3,20,17,-12,-6,18,-16,-12,7,5,18,21
3,20,17,-11,-7,18,-18,-13,7,5,18,21
4,21,18,-12,-7,19,-19,-13,7,6,19,22
4,20,18,-12,-7,19,-20,-14,6,6,19,22
3,19,17,-11,-7,18,-21,-15,6,5,18,21
3,19,17,-11,-7,18,-21,-15,6,5,18,22
5,21,17,-14,-6,19,-21,-15,7,6,19,23
6,23,17,-15,-6,20,-20,-15,7,7,20,23
5,22,17,-14,-6,20,-21,-15,7,6,20,23
4,21,17,-13,-6,19,-21,-15,7,6,19,23
5,21,17,-13,-6,19,-21,-15,7,7,20,23
5,21,17,-13,-5,19,-22,-15,7,7,20,23
4,19,16,-11,-6,18,-23,-16,7,7,19,22
3,18,16,-10,-6,17,-23,-17,6,6,18,21
5,19,15,-12,-5,17,-23,-17,7,7,19,22
7,21,15,-14,-4,18,-22,-17,7,7,19,23
6,21,15,-14,-5,17,-22,-17,6,7,19,23
5,21,15,-13,-6,17,-23,-18,5,5,19,23
5,21,16,-13,-6,18,-23,-18,5,5,19,23
5,22,17,-14,-6,19,-23,-17,4,5,20,24
4,21,17,-12,-7,19,-23,-17,3,5,20,24
2,19,17,-11,-7,18,-24,-19,2,4,19,23
3,20,17,-11,-7,19,-23,-19,2,4,19,23
5,22,17,-13,-6,20,-22,-18,3,5,20,24
5,23,17,-14,-6,20,-22,-18,3,5,21,24
4,22,17,-13,-7,19,-23,-18,2,4,20,24
4,22,17,-13,-7,19,-22,-18,2,4,20,24
4,22,17,-13,-6,19,-22,-17,2,4,21,24
4,21,17,-12,-6,18,-23,-18,1,4,20,24
2,18,16,-10,-6,17,-23,-19,0,4,19,23
2,17,16,-9,-7,17,-23,-19,0,4,19,23
4,19,16,-11,-6,17,-22,-19,0,4,20,24
6,21,16,-13,-5,18,-22,-19,0,4,20,25
5,21,16,-12,-6,17,-22,-19,0,3,20,24
3,20,16,-12,-7,17,-23,-20,-2,3,20,24
3,20,17,-12,-7,18,-22,-21,-2,3,20,24
3,21,18,-12,-7,19,-22,-21,-3,3,21,24
2,20,19,-11,-8,19,-22,-21,-4,3,21,24
1,19,19,-10,-8,19,-23,-22,-5,2,21,24
2,20,19,-11,-8,20,-22,-23,-6,2,22,25
3,21,19,-12,-7,20,-22,-23,-7,1,22,25
2,21,19,-11,-8,20,-23,-24,-8,1,22,24
1,20,19,-10,-9,19,-24,-25,-10,0,22,23
0,20,19,-10,-9,20,-24,-26,-11,0,22,23
1,20,20,-10,-9,20,-24,-26,-12,0,22,22
0,20,20,-10,-9,20,-24,-27,-13,-1,22,22
-1,17,20,-8,-10,19,-24,-28,-16,-3,21,20
-1,17,20,-8,-10,18,-25,-29,-17,-3,21,20
1,20,20,-10,-10,20,-24,-28,-18,-3,23,21
0,21,21,-10,-11,21,-24,-28,-19,-3,23,21
-1,20,22,-9,-12,20,-24,-30,-22,-4,23,20
-2,19,22,-8,-13,20,-24,-31,-24,-5,22,20
-2,19,22,-8,-12,20,-24,-32,-25,-5,23,20
-3,18,22,-8,-12,20,-23,-34,-28,-6,23,19
-4,16,22,-6,-12,19,-25,-36,-31,-7,21,18
-5,16,22,-6,-12,18,-27,-39,-34,-9,20,17
-4,18,23,-7,-12,20,-27,-40,-36,-10,21,18
-4,20,24,-8,-13,21,-27,-41,-39,-11,21,18
-6,19,25,-6,-16,22,-28,-43,-43,-13,20,18
-8,18,26,-5,-18,22,-28,-44,-46,-15,20,18
-8,19,27,-5,-18,23,-28,-45,-48,-16,20,18
-8,19,28,-6,-18,23,-28,-46,-51,-16,20,18
-9,18,29,-4,-19,23,-27,-47,-54,-17,19,17
-11,17,29,-3,-20,22,-27,-49,-56,-18,18,16
-10,18,29,-3,-19,22,-27,-51,-58,-18,18,16
-9,19,29,-4,-19,23,-27,-52,-60,-18,18,16
-10,17,29,-3,-20,23,-27,-54,-63,-19,17,15
-13,16,29,-1,-22,22,-28,-56,-67,-20,15,15
-14,15,30,0,-22,23,-28,-56,-70,-21,14,15
-14,16,31,0,-23,24,-27,-57,-73,-22,14,15
-16,15,32,0,-24,24,-28,-59,-76,-23,12,14
-18,14,32,2,-25,23,-28,-60,-80,-25,11,13
-17,15,33,1,-25,24,-28,-61,-82,-26,10,13
-15,18,35,-1,-25,26,-28,-61,-84,-26,11,13
-16,19,36,-1,-26,27,-27,-61,-87,-27,10,13
-19,17,37,1,-28,27,-27,-62,-89,-28,9,13
-20,16,38,2,-29,27,-26,-63,-91,-29,8,13
-20,16,38,2,-29,27,-26,-63,-93,-29,7,13
-21,16,38,3,-29,26,-26,-64,-95,-29,6,12
-22,14,38,4,-30,25,-27,-65,-97,-29,5,11
-23,13,38,5,-30,25,-27,-66,-99,-29,4,11
-22,15,38,3,-29,26,-25,-65,-101,-29,4,11
-21,16,38,2,-30,27,-24,-66,-102,-29,4,12
-23,16,39,3,-31,27,-24,-68,-104,-29,4,12
-24,15,39,4,-32,27,-24,-69,-106,-30,3,11
-23,15,39,4,-31,27,-23,-68,-108,-30,2,11
-23,15,39,4,-31,27,-23,-67,-109,-30,2,12
-24,14,40,5,-32,26,-23,-67,-112,-31,2,11
-25,13,40,6,-32,26,-23,-68,-114,-32,1,11
-24,14,40,5,-32,27,-22,-69,-115,-32,1,11
-23,16,40,3,-32,28,-22,-68,-116,-31,1,12
-24,16,41,4,-33,28,-22,-68,-117,-31,1,11
-26,15,41,5,-34,28,-22,-69,-119,-32,0,11
-26,15,42,5,-34,28,-22,-69,-119,-31,-1,11
-26,15,42,5,-34,29,-22,-68,-119,-30,-1,11
-26,15,42,5,-34,28,-22,-68,-120,-29,-1,11
-27,13,42,7,-34,27,-22,-68,-120,-30,-2,10
-26,13,41,6,-33,27,-21,-69,-120,-29,-3,10
-24,15,41,4,-32,28,-20,-68,-120,-28,-2,11
-23,16,41,3,-32,28,-19,-68,-120,-28,-1,12
-25,15,41,5,-33,28,-20,-68,-120,-28,-2,12
-25,15,40,5,-33,27,-20,-68,-120,-28,-2,12
-24,15,40,5,-32,28,-19,-66,-119,-27,-2,13
-24,16,40,4,-32,28,-18,-65,-118,-26,-2,13
-25,14,40,5,-32,27,-18,-65,-118,-26,-3,12
-25,13,39,6,-32,26,-17,-65,-117,-25,-4,11
-23,14,39,4,-30,26,-16,-63,-115,-24,-3,12
-21,15,38,3,-29,26,-16,-62,-113,-23,-3,12
-21,14,37,3,-29,25,-15,-61,-112,-23,-3,12
-21,14,35,4,-28,24,-14,-60,-110,-22,-4,11
-19,14,34,3,-27,23,-13,-58,-108,-21,-4,11
-18,14,33,2,-26,23,-13,-55,-106,-20,-3,11
-18,13,32,2,-25,22,-13,-53,-104,-20,-3,11
-18,11,31,3,-24,21,-12,-52,-102,-20,-4,10
-16,13,31,1,-23,21,-10,-50,-98,-19,-3,11
-14,15,31,0,-22,22,-9,-49,-95,-18,-2,12
-14,14,30,0,-22,22,-9,-48,-92,-17,-2,11
-13,14,28,0,-21,21,-9,-46,-89,-17,-3,11
-11,15,26,-2,-19,21,-9,-44,-86,-16,-3,11
-9,16,25,-3,-17,20,-9,-42,-83,-14,-2,11
-9,15,24,-3,-16,19,-9,-41,-80,-13,-1,11
-9,13,23,-2,-15,17,-9,-41,-77,-13,-1,11
-7,14,22,-3,-14,17,-9,-40,-73,-11,0,11
-3,17,22,-6,-12,19,-7,-38,-68,-9,2,12
-1,17,21,-8,-11,19,-6,-35,-63,-8,3,12
-1,16,19,-7,-10,18,-5,-33,-59,-7,3,12
-1,16,18,-8,-10,17,-4,-31,-55,-5,3,12
0,17,17,-9,-8,17,-3,-29,-51,-4,4,12
1,18,16,-10,-7,17,-2,-27,-48,-2,5,13
0,16,16,-9,-7,16,-3,-26,-45,-2,5,12
0,15,16,-8,-7,15,-3,-26,-42,-1,5,11
2,17,15,-10,-5,16,-2,-25,-37,0,6,12
4,18,15,-12,-4,16,-1,-24,-33,1,7,12
4,18,15,-11,-4,16,-1,-23,-30,1,7,12
4,17,14,-10,-5,15,-1,-22,-28,2,6,11
4,17,13,-11,-4,15,-1,-21,-25,3,6,11
6,18,12,-12,-3,15,0,-20,-22,4,6,11
6,17,11,-12,-1,13,0,-19,-20,4,5,11
6,15,10,-10,-1,12,-1,-19,-19,4,4,10
7,15,9,-11,0,12,-1,-17,-16,5,4,10
9,17,9,-12,0,12,0,-15,-14,5,4,10
9,16,8,-12,0,11,1,-13,-12,5,4,10
7,14,6,-11,0,10,1,-12,-10,4,3,9
7,13,5,-10,0,8,1,-11,-9,4,2,8
7,12,4,-10,2,7,2,-11,-7,4,1,7
7,11,3,-9,2,7,2,-11,-5,4,1,6
4,8,3,-7,1,6,3,-11,-5,3,0,5
4,7,3,-6,1,6,4,-10,-4,3,0,5
6,9,3,-8,1,7,5,-9,-3,4,0,5
6,10,4,-8,1,7,5,-8,-2,4,1,5
6,9,4,-7,1,6,5,-7,-2,4,0,4
5,8,3,-6,1,5,6,-6,-1,4,-1,3
4,7,4,-6,1,5,7,-4,0,4,-1,3
4,7,4,-6,1,5,8,-3,0,5,-2,3
3,5,4,-4,0,4,8,-3,1,4,-5,2
1,3,3,-2,0,3,7,-3,1,4,-8,1
3,4,2,-4,1,3,8,-3,2,4,-10,0
5,6,2,-5,1,3,9,-2,4,5,-11,0
3,5,2,-4,0,3,9,-2,4,5,-13,0
1,3,2,-2,-1,2,8,-2,3,4,-14,0
0,3,3,-2,-1,3,8,-2,3,4,-15,0
1,4,3,-3,0,3,9,-2,3,4,-15,0
2,4,2,-3,0,3,8,-2,3,3,-15,0
1,2,2,-1,0,2,7,-2,3,3,-16,-1
2,2,1,-2,1,2,6,-3,4,4,-16,-1
5,4,1,-4,2,2,6,-3,5,5,-15,-1
6,5,0,-5,3,3,7,-3,5,5,-15,-1
4,5,1,-4,1,3,7,-3,5,5,-15,-2
3,5,2,-4,0,3,7,-2,5,4,-14,-2
3,6,2,-5,1,4,7,-2,5,4,-13,-1
3,5,1,-4,1,3,7,-2,4,4,-13,-1
1,2,1,-2,0,2,6,-2,4,4,-13,-2
1,1,1,-1,0,1,5,-3,4,3,-13,-3
3,3,1,-3,0,2,6,-2,5,4,-11,-3
4,4,1,-4,0,3,6,-1,5,4,-10,-3
3,3,1,-3,0,2,6,-1,5,4,-10,-3
2,3,1,-3,0,2,6,-1,5,4,-10,-4
2,4,1,-3,0,3,6,0,5,4,-8,-3
2,4,2,-4,0,3,6,0,6,5,-7,-3
1,3,2,-2,0,3,6,-1,5,5,-7,-4
0,2,2,-1,0,2,5,-2,5,5,-7,-5
2,3,2,-2,0,3,6,-1,5,5,-6,-5
3,4,2,-3,0,3,6,-1,6,5,-5,-5
2,4,2,-3,0,3,5,-1,5,4,-5,-6
1,3,1,-2,0,2,4,-2,5,4,-5,-6
2,2,1,-2,1,1,4,-3,4,4,-5,-6
2,3,1,-3,1,1,5,-2,4,4,-4,-6
2,3,1,-2,1,1,6,-2,3,3,-4,-6
1,1,0,-1,0,0,6,-3,3,3,-4,-6
2,2,0,-2,0,1,6,-3,3,3,-3,-6
4,5,1,-4,0,3,6,-1,3,4,-1,-5
3,6,3,-5,0,5,7,0,2,4,0,-5
1,6,3,-4,-1,5,7,-1,1,3,0,-6
0,5,4,-3,-2,4,7,-1,0,2,0,-6
1,5,3,-3,-1,4,7,-1,0,1,0,-6
1,3,2,-3,0,2,7,0,0,0,0,-7
1,0,1,-1,0,0,7,0,-1,0,0,-8
1,-1,-1,0,1,-1,8,0,-1,-1,0,-8
3,-1,-3,-1,3,-2,9,2,-1,-1,2,-8
4,-1,-4,-2,4,-3,11,3,-1,0,3,-8
4,-4,-7,0,5,-6,13,6,0,0,3,-9
4,-6,-10,0,6,-8,16,8,1,3,4,-10
6,-6,-13,0,9,-10,17,11,4,7,6,-9
9,-7,-16,-1,12,-11,18,14,8,12,9,-9
11,-9,-19,-1,15,-14,19,16,13,19,11,-9
13,-11,-23,-1,18,-16,19,20,18,27,14,-9
17,-11,-26,-3,22,-18,21,24,25,37,18,-9
21,-10,-31,-5,26,-20,23,29,34,49,23,-8
24,-13,-36,-5,30,-24,25,35,43,61,26,-9
24,-18,-42,-3,33,-30,28,41,54,72,27,-12
25,-23,-48,-1,37,-36,31,48,65,82,27,-15
29,-28,-57,0,43,-42,35,56,79,91,28,-19
32,-35,-67,1,50,-51,41,67,94,97,26,-25
34,-44,-78,5,56,-61,47,78,109,99,21,-32
37,-52,-88,8,62,-69,54,89,124,95,15,-40
41,-58,-98,9,69,-77,61,102,139,88,9,-47
43,-66,-108,11,75,-86,66,112,153,79,0,-55
44,-74,-118,15,80,-96,70,121,164,67,-9,-64
45,-82,-126,18,85,-104,73,129,174,55,-18,-72
47,-87,-133,20,89,-110,75,137,184,43,-26,-79
48,-92,-139,21,93,-116,76,143,191,31,-33,-85
47,-97,-144,25,95,-121,76,148,197,20,-40,-91
47,-101,-147,27,97,-124,77,153,203,11,-46,-97
49,-101,-150,25,99,-125,79,158,209,3,-50,-101
51,-101,-152,24,101,-126,80,162,214,-2,-52,-103
51,-102,-153,25,102,-127,78,164,217,-8,-55,-106
50,-102,-152,25,101,-127,76,164,219,-13,-57,-107
50,-100,-149,24,99,-125,74,163,220,-15,-57,-106
50,-96,-145,23,97,-121,71,160,220,-16,-56,-105
48,-93,-141,22,95,-117,67,154,216,-17,-55,-104
47,-91,-137,22,92,-114,63,147,211,-18,-54,-103
47,-85,-132,19,89,-108,58,140,205,-18,-51,-100
47,-79,-126,16,86,-102,54,132,199,-16,-46,-96
45,-74,-120,15,82,-96,49,124,191,-14,-43,-92
43,-70,-114,13,78,-92,44,116,184,-13,-40,-89
43,-66,-109,11,75,-87,41,109,176,-12,-38,-85
42,-60,-102,9,72,-81,39,104,169,-11,-34,-81
40,-55,-95,7,67,-75,37,97,161,-10,-31,-78
36,-52,-88,7,62,-69,36,91,153,-8,-28,-75
33,-46,-80,6,56,-62,35,86,145,-7,-23,-70
32,-40,-71,4,51,-55,35,82,136,-6,-18,-66
29,-35,-63,3,46,-49,35,77,124,-5,-15,-61
23,-32,-55,4,39,-43,35,73,111,-6,-12,-57
17,-28,-46,5,32,-37,37,69,99,-6,-9,-53
14,-23,-37,4,26,-30,40,68,87,-6,-5,-48
10,-18,-28,3,19,-23,44,67,75,-6,-1,-44
4,-16,-20,5,12,-18,47,65,63,-6,1,-42
0,-14,-13,7,6,-13,50,63,53,-6,3,-39
-3,-10,-6,7,1,-8,54,63,45,-5,7,-35
-5,-7,0,6,-2,-4,57,63,37,-4,10,-32
-8,-6,3,7,-6,-1,59,61,30,-3,12,-30
-11,-6,5,8,-8,0,62,60,23,-3,13,-29
-11,-5,7,8,-9,1,66,59,17,-2,15,-27
-12,-4,8,8,-10,2,71,60,12,-2,16,-26
-14,-5,10,10,-12,2,75,60,6,-3,16,-26
-17,-7,11,12,-14,1,78,60,1,-4,16,-26
-17,-6,12,12,-15,2,82,60,-2,-4,17,-26
-16,-4,13,10,-15,4,87,61,-5,-3,19,-24
-17,-3,14,10,-16,5,90,61,-8,-3,19,-24
-18,-4,14,10,-17,5,93,59,-11,-4,19,-24
-19,-4,15,11,-17,5,97,58,-13,-4,19,-24
-19,-3,15,11,-17,6,101,57,-14,-3,19,-24
-19,-4,15,11,-17,5,104,55,-16,-3,19,-25
-20,-6,15,13,-18,5,105,52,-17,-3,19,-25
-19,-4,15,12,-17,6,104,49,-18,-2,19,-25
-16,-1,16,9,-16,8,99,46,-18,0,22,-24
-14,2,16,7,-15,9,91,42,-17,1,24,-23
-13,3,16,6,-15,10,80,37,-17,2,24,-22
-12,5,17,4,-15,10,68,32,-17,3,25,-22
-10,7,17,1,-14,12,57,28,-17,4,26,-20
-8,10,18,-1,-13,14,46,23,-16,5,27,-19
-7,10,18,-2,-13,14,36,18,-16,6,28,-19
-6,11,18,-2,-12,15,28,13,-15,7,29,-19
-4,14,19,-5,-11,17,22,9,-14,9,31,-17
-1,17,19,-8,-10,18,16,6,-12,10,33,-16
-1,17,18,-8,-9,18,11,2,-12,11,33,-16
-1,17,18,-8,-9,17,6,-2,-12,12,32,-16
0,17,18,-9,-8,17,3,-4,-12,12,32,-16
1,18,18,-10,-8,18,1,-5,-11,13,33,-16
0,17,17,-9,-8,17,0,-7,-11,13,32,-17
-1,15,17,-7,-9,16,-2,-9,-11,12,31,-18
0,16,17,-8,-8,16,-2,-10,-10,13,32,-18
1,18,17,-10,-7,17,-2,-10,-9,14,33,-17
1,18,16,-10,-7,17,-3,-11,-9,14,34,-17
0,17,16,-9,-8,16,-5,-12,-10,14,33,-18
0,16,16,-8,-8,16,-5,-12,-10,14,33,-18
1,17,16,-9,-8,17,-5,-11,-10,14,33,-18
0,17,16,-9,-8,17,-6,-12,-10,13,33,-18
-1,16,16,-7,-8,16,-6,-13,-11,13,32,-19
0,16,16,-7,-8,16,-6,-13,-10,13,32,-19
1,18,17,-10,-8,17,-6,-13,-9,14,34,-18
2,19,17,-11,-7,18,-5,-13,-9,14,35,-18
2,18,17,-10,-8,17,-6,-14,-9,14,34,-18
1,17,17,-10,-8,17,-6,-14,-10,14,33,-19
1,18,17,-10,-7,17,-6,-14,-11,14,33,-19
1,18,17,-10,-7,17,-6,-13,-11,14,33,-19
0,16,17,-9,-8,16,-6,-14,-11,13,32,-19
-1,15,17,-8,-9,16,-7,-15,-12,13,32,-20
0,17,17,-9,-8,17,-6,-15,-11,14,33,-19
2,18,17,-10,-7,18,-6,-15,-11,14,34,-18
1,18,17,-10,-8,18,-6,-15,-11,14,34,-18
0,17,17,-9,-9,17,-7,-16,-12,14,34,-19
0,17,17,-9,-9,17,-7,-15,-12,14,33,-19
1,18,17,-9,-8,18,-6,-15,-12,14,33,-18
0,17,17,-9,-9,18,-6,-15,-13,13,33,-19
-2,15,17,-7,-9,17,-7,-16,-14,13,32,-19
-1,16,17,-7,-9,17,-7,-17,-14,13,32,-18
0,18,18,-9,-8,18,-6,-16,-13,14,34,-17
0,18,18,-9,-8,18,-6,-16,-14,14,34,-17
0,18,18,-8,-9,18,-7,-17,-15,13,33,-17
-1,17,18,-8,-9,18,-7,-17,-16,13,33,-17
0,18,18,-9,-9,18,-7,-17,-16,13,33,-16
-1,18,18,-9,-9,18,-7,-18,-16,13,32,-16
-2,16,18,-7,-10,17,-8,-19,-17,12,31,-17
-3,15,18,-6,-10,17,-8,-20,-18,11,30,-17
-1,17,19,-8,-10,18,-7,-20,-18,12,31,-16
0,19,19,-9,-10,19,-7,-20,-19,12,32,-15
-1,18,19,-8,-10,18,-8,-20,-20,12,31,-15
-2,17,20,-8,-11,18,-8,-21,-22,11,30,-16
-2,17,20,-8,-11,19,-9,-22,-23,11,30,-16
-2,18,20,-8,-11,19,-9,-23,-24,11,29,-15
-3,16,20,-7,-11,18,-10,-24,-25,10,28,-16
-4,15,20,-5,-12,18,-10,-26,-27,8,27,-16
-3,17,20,-7,-12,19,-10,-26,-28,8,27,-16
-2,19,21,-8,-12,20,-10,-26,-29,8,27,-15
-2,18,21,-7,-12,20,-11,-27,-30,8,26,-15
-4,17,21,-6,-13,19,-11,-29,-32,7,24,-15
-5,17,22,-6,-13,19,-12,-30,-34,6,23,-15
-5,18,22,-6,-13,20,-12,-30,-35,6,22,-15
-6,17,23,-5,-14,20,-13,-32,-37,5,20,-15
-8,15,23,-4,-15,20,-14,-34,-39,4,18,-15
-8,16,24,-4,-15,20,-14,-35,-41,3,17,-15
-6,18,24,-6,-15,21,-14,-35,-43,3,16,-13
-6,19,25,-6,-15,22,-15,-37,-45,2,14,-13
-8,17,25,-5,-17,21,-16,-39,-48,0,10,-13
-9,16,26,-4,-18,21,-16,-40,-51,-1,7,-13
-9,17,27,-4,-18,22,-17,-41,-53,-1,5,-12
-10,17,28,-3,-19,22,-17,-43,-55,-2,2,-12
-13,15,28,-1,-20,22,-18,-45,-57,-4,-1,-13
-14,15,29,0,-21,22,-19,-47,-60,-5,-4,-13
-12,17,29,-2,-21,23,-18,-47,-62,-6,-5,-12
-12,18,30,-3,-21,24,-18,-48,-64,-7,-6,-11
-13,17,31,-2,-22,24,-19,-50,-67,-8,-9,-12
-15,16,31,-1,-23,24,-20,-52,-70,-9,-12,-12
-15,16,32,-1,-23,24,-20,-53,-73,-10,-12,-12
-16,17,33,-1,-24,25,-20,-54,-75,-11,-11,-11
-18,16,33,0,-25,24,-21,-55,-78,-12,-11,-11
-19,15,34,2,-26,24,-21,-57,-80,-13,-15,-12
-19,16,34,1,-26,25,-21,-57,-82,-13,-19,-11
-18,18,35,0,-26,26,-21,-57,-84,-13,-23,-10
-19,17,35,0,-27,26,-22,-58,-87,-14,-27,-10
-20,16,36,2,-28,25,-22,-60,-90,-15,-31,-11
-21,16,36,2,-28,25,-22,-60,-93,-16,-33,-10
-21,16,37,2,-28,26,-22,-60,-95,-15,-34,-10
-22,15,38,3,-29,26,-22,-61,-97,-16,-35,-9
-24,14,38,5,-30,26,-22,-62,-99,-17,-36,-9
-24,14,38,4,-31,26,-22,-63,-100,-17,-35,-9
-22,16,38,2,-30,27,-21,-62,-102,-16,-34,-7
-22,17,38,2,-31,27,-20,-63,-104,-16,-33,-7
-24,16,39,4,-32,27,-21,-64,-106,-17,-33,-7
-25,15,39,4,-32,27,-22,-64,-108,-17,-33,-7
-24,16,40,4,-32,28,-21,-64,-110,-17,-32,-7
-25,16,40,4,-32,28,-21,-64,-111,-17,-31,-6
-27,14,41,5,-33,27,-21,-64,-113,-17,-31,-5
-27,14,41,6,-34,27,-22,-65,-114,-17,-31,-5
-26,16,41,4,-34,29,-21,-64,-115,-17,-29,-3
-24,17,42,3,-33,29,-21,-64,-116,-16,-26,-1
-25,16,42,4,-34,29,-22,-64,-118,-16,-26,-1
-26,15,42,5,-34,28,-22,-65,-120,-16,-26,-1
-26,15,42,5,-34,28,-21,-65,-121,-16,-25,0
-26,16,42,5,-34,29,-21,-64,-121,-15,-24,0
-27,15,42,6,-34,28,-22,-64,-122,-15,-24,0
-28,13,42,7,-35,28,-22,-65,-123,-16,-24,0
-27,14,42,6,-34,28,-22,-64,-123,-15,-22,0
-25,16,42,4,-33,28,-21,-63,-122,-14,-20,2
-25,16,42,5,-33,28,-21,-63,-122,-14,-19,2
-26,14,42,6,-34,28,-22,-63,-122,-14,-18,2
-26,14,41,6,-33,27,-22,-62,-122,-14,-17,3
-26,15,41,5,-32,27,-21,-61,-121,-13,-15,3
-26,14,40,6,-32,27,-21,-60,-119,-12,-14,3
-27,12,40,7,-33,25,-21,-60,-118,-12,-14,3
-26,12,39,7,-32,25,-21,-59,-116,-12,-13,3
-23,14,38,4,-31,26,-20,-57,-113,-11,-10,4
-22,15,37,3,-30,26,-19,-55,-111,-11,-8,5
-23,14,36,4,-30,24,-19,-55,-109,-11,-8,5
-23,13,35,5,-29,23,-19,-54,-107,-11,-7,5
-21,13,34,4,-27,23,-18,-52,-104,-10,-5,5
-21,13,34,4,-27,23,-17,-50,-101,-9,-4,5
-21,11,33,5,-27,22,-17,-49,-99,-9,-4,4
-21,10,32,5,-26,21,-16,-47,-96,-8,-4,4
-19,12,31,3,-24,21,-15,-44,-92,-7,-2,5
-16,13,30,1,-23,21,-13,-41,-88,-6,0,6
-16,12,28,1,-22,20,-13,-39,-85,-5,0,6
-15,11,27,2,-21,18,-12,-38,-82,-5,0,6
-14,11,25,1,-19,18,-11,-36,-78,-4,0,6
-12,11,24,0,-18,18,-11,-33,-74,-3,0,6
-12,10,23,0,-17,16,-11,-32,-71,-3,0,6
-12,9,21,1,-16,15,-11,-31,-68,-3,-1,5
-9,10,20,0,-14,15,-11,-29,-64,-2,-1,6
-6,13,19,-3,-12,15,-11,-27,-60,0,0,7
-4,13,18,-4,-11,15,-10,-25,-55,0,1,7
-4,12,16,-4,-10,14,-10,-24,-51,1,0,7
-3,11,15,-4,-9,13,-9,-22,-47,2,0,7
-2,12,14,-5,-7,13,-8,-20,-42,3,1,7
-1,11,13,-5,-7,13,-8,-18,-38,4,1,7
-2,10,13,-3,-7,11,-8,-17,-35,4,0,7
-2,10,12,-4,-6,11,-7,-16,-31,4,0,7
0,12,12,-6,-5,11,-6,-14,-27,6,1,8
2,14,11,-7,-4,12,-5,-12,-23,7,2,8
2,13,10,-7,-4,11,-5,-11,-20,7,2,7
2,13,9,-6,-4,11,-4,-10,-17,7,2,7
3,13,9,-7,-3,11,-3,-8,-13,8,2,8
4,13,8,-8,-2,11,-2,-6,-10,9,3,8
3,11,8,-7,-2,10,-2,-6,-8,9,2,8
3,10,7,-6,-2,9,-2,-5,-6,9,1,7
5,11,6,-8,0,8,-2,-4,-3,10,2,8
6,12,6,-10,1,8,-1,-2,-1,10,3,8
6,11,5,-9,1,7,-1,-1,0,10,2,7
6,9,4,-8,1,6,-1,0,2,9,2,7
6,9,3,-8,2,6,-1,0,3,9,2,7
7,9,2,-8,2,5,0,2,5,9,2,7
5,7,2,-6,2,4,0,2,6,8,1,6
3,4,1,-4,1,3,0,3,7,7,0,5
4,4,1,-4,2,2,1,4,8,7,0,5
5,6,1,-6,2,3,2,5,9,8,0,6
5,5,1,-5,2,2,2,6,10,7,0,6
3,3,0,-3,1,1,2,7,10,7,0,5
2,2,0,-2,1,1,3,8,11,7,-1,5
2,2,0,-2,1,1,4,9,12,7,-1,5
1,2,0,-1,1,0,4,9,13,7,-2,5
0,0,0,0,0,0,4,9,13,6,-4,4
-1,0,0,1,0,-1,4,9,13,6,-5,4
1,1,0,-1,0,0,5,10,14,7,-4,5
2,2,0,-2,1,0,5,10,14,7,-3,5
1,1,0,-1,0,0,5,10,14,6,-4,5
0,0,0,0,0,-1,5,10,14,6,-4,4
1,0,0,0,1,0,5,11,15,6,-4,5
1,0,0,0,1,0,5,11,16,6,-4,5
0,-1,-1,1,0,-1,4,11,16,6,-5,4
-1,-2,-1,2,0,-1,4,11,16,5,-5,4
0,0,-1,0,0,-1,4,11,16,6,-4,4
1,1,0,-1,1,0,4,12,17,6,-3,5
1,0,-1,0,1,-1,4,12,17,6,-3,5
0,0,-1,0,0,-1,3,11,17,6,-4,5
0,0,-1,0,1,-1,3,11,17,6,-3,5
1,0,-1,0,1,0,3,12,18,6,-3,6
0,-1,-1,0,1,-1,3,11,18,5,-3,5
-2,-3,-1,2,0,-2,2,11,17,5,-4,5
-1,-2,-1,1,0,-1,2,11,17,5,-4,5
0,0,-1,0,1,0,2,12,18,5,-3,6
1,0,-1,0,1,0,2,12,18,5,-2,6
0,0,-1,0,0,-1,2,12,17,5,-3,6
0,-1,-1,1,0,-1,2,11,17,5,-3,6
0,0,-1,0,1,-1,2,11,18,5,-2,7
0,0,-1,0,1,-1,2,11,18,5,-2,7
-1,-2,-1,2,0,-2,1,10,18,4,-3,6
-1,-3,-1,2,0,-2,0,10,18,4,-4,6
0,0,-1,0,1,-1,1,11,19,5,-3,7
1,1,0,-1,1,0,1,12,19,5,-2,7
0,0,0,0,0,-1,1,11,19,5,-3,7
0,-1,0,0,0,-1,0,11,19,4,-3,7
0,0,0,0,0,-1,1,11,19,4,-3,7
0,0,0,0,1,0,1,12,19,4,-3,7
0,-1,-1,1,0,-1,0,11,19,4,-3,7
-1,-3,-1,2,0,-2,0,11,18,4,-3,7
0,-1,-1,1,0,-1,0,11,19,4,-2,8
1,0,-1,0,1,-1,1,12,20,5,-1,8
0,0,0,0,0,-1,0,11,20,5,-2,8
-1,0,0,1,-1,-1,0,10,19,5,-2,8
-1,0,0,1,-1,0,0,10,18,5,-2,8
-1,0,1,0,-1,1,0,10,18,4,-1,9
-1,0,1,1,-1,0,0,10,17,4,-1,9
-3,-2,0,2,-1,-1,0,10,16,2,-2,8
-2,-2,0,2,0,-1,0,10,15,1,-1,9
0,-1,0,0,1,-1,1,12,15,1,0,10
0,-1,-1,0,1,-2,1,12,14,1,1,10
0,-3,-3,1,1,-3,1,11,13,0,0,10
0,-5,-5,2,2,-5,3,12,13,0,0,10
0,-6,-7,2,4,-6,6,15,15,1,1,10
1,-7,-9,3,6,-7,7,17,16,2,3,11
1,-9,-11,4,7,-10,8,19,18,4,4,11
3,-10,-13,3,9,-12,8,21,20,9,6,12
8,-9,-16,0,12,-13,9,24,25,16,10,14
12,-8,-19,-2,16,-14,10,28,32,25,14,15
14,-9,-23,-2,18,-17,11,32,38,34,17,15
15,-12,-27,-2,22,-20,12,36,46,44,19,15
18,-14,-33,-2,26,-23,15,42,56,56,21,14
21,-18,-39,-1,31,-28,19,48,67,67,23,13
23,-23,-46,0,35,-34,22,55,78,76,23,10
24,-29,-54,2,40,-41,26,64,91,85,21,6
29,-35,-63,3,46,-49,32,74,107,92,20,0
33,-41,-73,3,53,-58,39,86,123,95,17,-5
35,-50,-84,7,59,-67,45,97,139,91,10,-13
36,-60,-96,12,65,-78,51,109,153,83,1,-23
37,-69,-107,16,72,-88,57,120,168,74,-7,-31
41,-76,-118,18,79,-97,60,130,181,65,-16,-39
43,-84,-127,20,85,-105,62,139,192,54,-25,-47
43,-91,-135,24,89,-113,64,146,201,41,-34,-54
46,-96,-142,25,93,-119,65,153,210,30,-41,-60
49,-97,-146,24,97,-123,67,160,219,20,-46,-65
50,-100,-150,25,99,-126,68,165,225,11,-51,-70
49,-104,-152,27,100,-128,68,169,231,3,-57,-75
48,-106,-153,28,101,-129,68,172,236,-4,-62,-79
49,-105,-154,28,101,-129,68,175,240,-9,-65,-81
49,-104,-153,28,101,-128,67,175,243,-13,-67,-82
47,-104,-151,28,99,-127,63,173,243,-16,-68,-82
46,-102,-148,27,97,-125,59,169,242,-17,-68,-82
48,-97,-144,24,96,-121,55,165,241,-17,-66,-79
49,-91,-139,21,94,-116,51,159,237,-18,-64,-76
47,-87,-133,20,90,-111,47,151,231,-18,-62,-74
45,-83,-127,19,86,-105,41,142,224,-18,-60,-70
44,-78,-121,17,83,-99,37,133,218,-16,-57,-66
43,-73,-115,15,80,-94,34,126,212,-14,-54,-61
40,-70,-109,15,75,-89,31,119,205,-14,-52,-58
37,-66,-103,14,70,-85,28,111,196,-14,-50,-55
37,-60,-96,12,66,-79,26,105,188,-13,-46,-50
36,-52,-89,8,62,-71,25,100,181,-11,-42,-45
33,-47,-80,7,56,-64,24,95,172,-9,-39,-40
28,-43,-72,7,50,-58,23,89,160,-10,-36,-36
24,-39,-63,7,44,-51,24,85,147,-10,-34,-31
20,-34,-54,7,37,-43,26,82,135,-10,-30,-26
15,-30,-46,7,30,-37,28,79,121,-10,-27,-21
9,-28,-38,9,23,-32,30,76,108,-11,-25,-18
5,-24,-29,9,17,-27,33,74,95,-11,-21,-14
3,-18,-21,7,12,-20,37,73,84,-10,-16,-9
0,-14,-14,7,7,-15,40,71,73,-9,-12,-5
-5,-13,-8,8,2,-11,43,69,64,-9,-10,-2
-9,-12,-3,9,-2,-7,46,67,55,-8,-8,0
-10,-10,1,9,-4,-4,48,65,47,-7,-7,3
-12,-8,4,9,-7,-2,52,64,39,-7,-5,5
-15,-9,6,11,-10,-1,55,62,32,-8,-5,6
-17,-9,8,13,-13,0,59,61,26,-8,-5,6
-16,-6,10,11,-14,1,64,62,22,-8,-3,8
-16,-5,12,10,-14,3,68,63,18,-7,-2,9
-18,-5,13,11,-15,3,71,63,14,-7,-2,9
-20,-7,14,13,-16,3,74,61,10,-8,-3,9
-20,-7,14,13,-16,4,78,60,8,-7,-3,10
-20,-6,14,12,-16,4,82,59,6,-7,-3,10
-22,-7,15,13,-17,4,85,57,3,-7,-3,10
-23,-8,15,15,-18,3,87,55,0,-8,-3,10
-22,-7,15,14,-18,3,91,52,-1,-8,-2,10
-19,-4,16,11,-18,5,92,50,-1,-7,0,11
-19,-2,17,10,-18,7,89,46,-2,-6,0,12
-19,-2,17,10,-18,8,83,41,-3,-5,0,12
-18,0,18,9,-18,9,74,37,-2,-4,1,13
-15,2,18,6,-16,10,63,33,-1,-3,2,15
-14,3,18,5,-15,11,52,29,0,-2,3,16
-13,4,18,4,-15,11,40,23,0,-1,4,16
-11,6,18,2,-14,12,28,18,0,0,5,17
-7,11,18,-2,-13,14,19,15,1,1,7,19
-5,13,18,-4,-12,15,10,12,2,3,8,21
-4,14,18,-5,-12,16,3,7,2,3,8,21
-4,14,18,-5,-11,16,-3,3,2,4,8,21
-3,16,19,-6,-10,17,-9,0,3,5,8,22
-2,17,19,-7,-10,17,-13,-3,4,6,9,22
-3,15,18,-6,-10,17,-16,-5,3,5,9,22
-3,15,18,-6,-10,16,-18,-7,3,5,9,22
-1,17,18,-8,-9,17,-20,-7,4,5,10,23
0,19,18,-10,-8,18,-21,-7,5,6,11,24
0,18,18,-9,-9,18,-22,-9,5,6,11,23
-1,17,18,-8,-9,18,-23,-10,4,5,11,23
0,17,17,-8,-8,17,-24,-11,4,6,11,23
0,18,17,-9,-8,18,-25,-11,4,6,11,24
-1,17,17,-8,-8,17,-25,-11,4,6,10,24
-2,15,18,-6,-9,17,-26,-12,3,5,8,24
-1,16,18,-8,-9,17,-26,-12,3,6,8,24
1,19,18,-10,-8,18,-26,-11,4,6,10,24
1,19,18,-10,-8,18,-26,-11,4,7,10,24
0,18,18,-9,-8,18,-26,-12,4,6,10,24
0,17,18,-9,-8,18,-27,-13,4,6,9,24
0,18,18,-9,-8,18,-27,-12,4,6,9,24
0,18,18,-9,-8,18,-27,-12,4,6,9,25
-1,16,18,-7,-9,17,-27,-13,4,6,8,24
-1,16,17,-7,-9,17,-28,-13,4,6,8,24
0,18,17,-9,-8,18,-27,-12,5,7,9,25
1,19,17,-10,-8,18,-27,-12,4,7,10,25
0,18,17,-9,-8,18,-27,-13,3,6,10,24
0,17,17,-9,-8,17,-27,-13,3,5,10,24
0,18,17,-9,-8,17,-27,-13,3,5,10,24
0,18,17,-9,-7,17,-27,-13,2,5,11,24
-1,16,17,-8,-8,16,-27,-14,1,5,10,23
-1,15,17,-7,-8,16,-27,-14,1,5,9,23
0,17,17,-8,-8,17,-27,-13,1,5,10,24
1,19,17,-10,-7,18,-27,-13,1,6,11,24
1,18,17,-9,-8,18,-27,-14,0,6,11,24
0,17,17,-8,-9,17,-28,-15,0,6,11,23
0,17,17,-8,-9,17,-28,-15,0,6,11,23
0,18,17,-9,-8,18,-28,-15,0,6,11,23
0,17,17,-8,-8,17,-28,-15,-1,6,11,23
-2,16,17,-7,-9,16,-29,-16,-3,5,10,23
-1,17,18,-7,-9,17,-28,-16,-4,5,11,23
0,19,18,-9,-8,18,-28,-16,-4,6,12,24
0,19,18,-10,-9,19,-28,-16,-4,6,13,23
-1,18,18,-9,-10,18,-29,-17,-5,5,12,22
-1,17,18,-8,-10,18,-29,-18,-6,5,12,21
-1,18,18,-9,-9,18,-28,-18,-7,5,11,22
-1,17,18,-8,-9,18,-28,-18,-8,4,11,22
-3,15,18,-6,-10,17,-29,-19,-9,3,10,21
-4,15,18,-6,-11,17,-30,-20,-10,3,9,21
-2,18,19,-8,-11,18,-29,-20,-11,3,11,22
-1,19,19,-8,-11,19,-29,-21,-12,3,11,22
-2,18,19,-7,-11,18,-30,-22,-13,2,10,21
-3,17,19,-7,-12,18,-31,-24,-15,2,10,21
-3,17,20,-7,-11,18,-31,-25,-16,1,10,21
-3,17,21,-7,-11,19,-31,-26,-18,1,10,21
-5,16,21,-6,-12,18,-32,-27,-20,0,9,21
-6,15,21,-5,-13,18,-33,-29,-22,-1,8,19
-5,17,21,-6,-13,19,-33,-30,-24,-2,8,19
-4,18,22,-7,-13,20,-33,-30,-25,-2,8,19
-5,18,22,-6,-13,20,-34,-32,-27,-4,8,19
-6,16,23,-5,-14,19,-35,-33,-30,-5,7,18
-6,16,23,-5,-15,20,-35,-34,-32,-6,6,19
-6,17,24,-5,-15,21,-35,-35,-34,-7,5,19
-8,16,24,-4,-16,21,-36,-37,-37,-8,5,18
-10,15,25,-2,-17,20,-37,-39,-40,-9,4,17
-10,15,25,-3,-17,20,-37,-40,-43,-10,3,17
-9,17,26,-4,-17,21,-37,-41,-45,-11,4,17
-10,17,27,-4,-18,22,-37,-42,-47,-12,3,16
-12,16,28,-2,-19,22,-39,-44,-50,-14,2,16
-13,16,28,-1,-20,22,-40,-46,-53,-15,2,16
-13,16,29,-2,-20,22,-39,-47,-55,-16,2,16
-13,16,29,-1,-20,22,-39,-47,-58,-17,2,16
-15,14,29,0,-22,21,-39,-49,-61,-18,1,15
-16,13,30,1,-23,21,-40,-50,-64,-19,0,14
-15,15,30,0,-22,22,-40,-51,-66,-19,1,15
-15,16,31,-1,-22,23,-40,-51,-68,-20,2,15
-16,15,31,0,-24,23,-40,-53,-71,-22,0,15
-18,14,32,1,-25,23,-40,-54,-74,-23,0,14
-18,14,32,2,-25,23,-40,-55,-76,-23,-1,14
-18,15,33,2,-25,24,-40,-55,-78,-23,-1,14
-20,13,33,3,-26,23,-40,-55,-80,-24,-1,14
-21,12,33,4,-27,22,-40,-56,-83,-25,-3,13
-21,13,34,3,-27,23,-39,-56,-85,-26,-3,14
-19,15,34,1,-27,24,-39,-56,-86,-26,-3,15
-20,15,34,2,-27,24,-39,-56,-88,-27,-3,14
-21,14,34,3,-28,24,-40,-57,-90,-28,-4,13
-22,13,35,4,-28,24,-39,-57,-92,-28,-4,13
-22,13,35,4,-28,24,-38,-57,-94,-27,-4,14
-23,12,36,5,-29,24,-38,-58,-96,-27,-4,14
-25,11,36,7,-30,24,-38,-58,-99,-28,-5,13
-25,11,36,7,-30,24,-38,-58,-100,-28,-5,13
-23,13,36,5,-30,25,-37,-57,-101,-27,-4,14
-23,14,36,5,-30,25,-36,-57,-102,-27,-4,14
-24,12,36,6,-31,24,-36,-57,-103,-27,-4,14
-25,12,37,7,-31,24,-36,-57,-104,-27,-4,13
-25,12,37,6,-31,25,-36,-57,-106,-27,-4,13
-25,13,38,6,-31,25,-35,-57,-107,-26,-4,13
-27,11,38,8,-32,25,-36,-58,-109,-27,-4,12
-27,11,38,8,-32,24,-36,-58,-110,-27,-5,11
-25,12,38,6,-31,25,-36,-58,-111,-26,-4,12
-24,13,38,5,-30,25,-35,-57,-111,-26,-3,13
-25,12,38,6,-31,25,-35,-58,-112,-26,-3,13
-26,11,38,7,-31,25,-36,-58,-112,-26,-3,13
-26,12,38,7,-31,25,-35,-57,-112,-25,-3,13
-26,12,38,6,-31,25,-34,-56,-112,-24,-2,13
-26,11,38,7,-31,25,-34,-56,-113,-24,-2,12
-27,10,37,8,-31,23,-34,-56,-114,-24,-3,11
-25,11,37,6,-31,24,-34,-55,-113,-23,-2,12
-23,14,37,4,-30,25,-33,-54,-111,-22,0,12
-23,14,37,4,-29,25,-33,-53,-111,-22,0,12
-24,12,36,5,-29,24,-34,-53,-111,-23,-1,12
-23,12,35,5,-29,24,-33,-52,-110,-22,0,12
-22,12,34,5,-28,23,-31,-50,-108,-21,0,12
-22,11,34,5,-27,22,-30,-49,-107,-20,0,11
-23,9,33,7,-27,21,-30,-49,-106,-20,0,10
-22,10,33,6,-27,21,-29,-47,-104,-20,0,10
-19,12,32,3,-25,21,-28,-45,-102,-19,1,10
-18,13,31,2,-24,21,-27,-43,-99,-18,2,10
-18,12,30,2,-23,20,-27,-42,-96,-18,2,10
-17,11,28,3,-22,19,-26,-40,-93,-17,2,10
-16,12,27,2,-21,19,-24,-38,-90,-16,3,11
-14,12,27,1,-20,19,-24,-36,-87,-15,3,11
-14,11,26,2,-20,19,-24,-35,-84,-14,3,11
-14,10,25,2,-19,17,-23,-34,-82,-14,3,10
-12,12,24,0,-17,17,-23,-32,-79,-13,4,11
-9,14,23,-2,-15,18,-23,-30,-75,-12,5,12
-8,14,21,-3,-14,17,-23,-29,-72,-11,6,11
-7,13,20,-3,-13,16,-23,-28,-68,-11,5,11
-5,14,19,-4,-12,16,-23,-26,-64,-10,5,11
-3,14,18,-5,-10,16,-22,-24,-59,-8,6,11
-3,13,17,-5,-9,15,-21,-22,-56,-7,6,11
-3,12,16,-4,-9,14,-21,-21,-53,-6,6,10
-2,13,16,-5,-8,14,-20,-19,-48,-5,7,11
0,16,15,-8,-7,15,-19,-17,-44,-3,8,12
1,16,14,-9,-6,15,-19,-16,-40,-2,9,12
1,15,13,-8,-6,14,-19,-15,-37,-2,9,11
2,15,13,-9,-5,14,-18,-14,-33,-1,10,11
3,16,13,-10,-4,15,-17,-13,-29,1,11,12
3,16,13,-10,-4,15,-17,-12,-26,2,11,12
2,14,12,-8,-4,13,-16,-12,-23,2,10,11
3,14,11,-9,-3,13,-16,-11,-20,3,10,11
6,16,10,-11,-1,13,-16,-9,-16,4,11,12
7,17,9,-12,0,12,-16,-8,-13,5,12,12
7,15,8,-11,0,11,-16,-8,-10,5,12,11
7,14,7,-10,0,10,-16,-7,-8,5,12,11
7,13,6,-10,1,10,-16,-5,-5,6,12,11
8,13,5,-10,1,9,-15,-4,-2,7,12,11
7,11,4,-9,1,8,-16,-4,-1,6,11,10
6,9,4,-8,1,6,-16,-4,0,6,9,9
7,11,4,-9,2,7,-15,-2,2,7,10,9
8,12,3,-10,3,7,-13,-1,4,8,10,9
7,11,3,-9,3,6,-13,0,5,7,10,9
6,9,2,-8,2,5,-13,0,6,7,9,8
5,8,2,-7,2,5,-12,1,7,7,9,7
6,8,2,-7,2,5,-11,2,8,7,9,7
5,6,1,-6,1,5,-10,3,9,7,8,7
3,4,1,-3,1,3,-10,2,9,6,7,6
3,4,1,-3,1,3,-10,3,9,6,7,6
4,6,1,-5,2,3,-9,4,11,7,8,6
4,6,1,-5,2,3,-8,5,12,7,8,6
3,5,1,-4,1,3,-8,5,12,7,7,5
3,4,1,-3,1,2,-8,6,13,8,7,4
3,4,1,-3,1,3,-7,7,14,8,7,4
3,4,1,-3,1,3,-7,7,14,8,7,4
1,2,1,-1,1,2,-8,6,14,7,6,4
1,2,1,-1,1,1,-8,5,14,7,6,3
3,4,1,-3,2,2,-8,6,16,7,7,3
4,5,1,-4,3,2,-8,6,16,7,8,3
3,4,0,-3,2,1,-8,7,16,7,7,3
3,4,0,-3,2,1,-9,7,17,7,7,2
4,4,0,-3,2,1,-9,8,18,8,7,3
4,4,0,-3,2,1,-8,8,18,8,7,3
3,2,0,-2,2,1,-9,7,17,8,7,3
1,1,0,-1,1,0,-9,6,17,7,6,2
3,3,0,-3,2,1,-9,7,18,7,7,3
4,5,0,-5,2,2,-8,7,18,7,8,3
4,5,0,-4,2,2,-9,7,18,7,8,3
3,4,0,-3,1,1,-9,7,17,7,7,2
3,4,0,-3,2,1,-9,7,17,8,7,2
3,4,0,-3,2,1,-9,7,17,8,8,3
2,3,0,-3,2,1,-10,7,17,8,7,2
0,1,0,-1,1,1,-10,7,17,7,6,2
1,1,0,-1,1,1,-10,7,18,6,6,2
2,4,0,-3,2,2,-9,8,19,7,7,3
3,4,0,-4,2,2,-10,8,19,7,6,3
2,3,0,-3,1,1,-10,7,18,7,6,2
2,3,0,-3,1,1,-10,7,18,7,6,2
3,3,0,-3,2,1,-10,7,19,8,6,3
3,3,0,-3,2,1,-9,8,19,8,6,3
1,1,-1,-1,1,0,-10,7,18,7,5,2
0,0,-1,0,1,0,-11,6,18,6,4,2
2,2,-1,-2,2,0,-10,7,18,7,6,2
3,4,-1,-4,2,1,-10,7,19,7,7,2
2,3,0,-3,1,1,-11,7,19,7,6,2
2,3,0,-3,1,1,-12,6,18,7,6,2
2,3,0,-3,1,1,-11,6,18,8,6,2
3,4,0,-3,1,2,-10,6,18,8,7,3
1,2,1,-2,1,2,-11,6,17,7,6,2
0,1,1,-1,0,1,-11,5,16,5,5,2
1,3,1,-2,0,2,-11,5,15,5,6,2
2,5,1,-4,1,3,-10,5,15,4,7,3
2,4,1,-3,0,2,-9,5,13,3,6,2
1,2,0,-2,0,0,-9,5,12,2,6,2
1,1,-1,-1,1,0,-9,6,12,2,6,2
3,0,-2,-2,2,-1,-7,7,11,1,7,3
2,-1,-3,-1,3,-2,-6,7,11,1,7,3
1,-5,-5,1,4,-5,-5,8,11,0,6,2
3,-5,-8,1,6,-6,-3,11,12,1,6,2
6,-3,-10,-1,9,-7,-2,14,14,5,9,4
9,-3,-13,-2,11,-8,-1,16,16,9,11,5
10,-4,-15,-3,13,-10,0,18,19,13,13,5
13,-4,-18,-4,15,-11,1,21,24,20,15,6
16,-4,-20,-6,18,-12,2,25,31,30,19,8
19,-5,-24,-7,22,-14,4,29,38,40,21,8
20,-10,-29,-5,25,-19,5,33,46,50,23,7
22,-14,-36,-4,30,-25,8,39,56,61,24,6
27,-16,-43,-6,36,-29,12,46,68,72,26,5
31,-18,-51,-6,41,-35,16,55,81,82,27,2
33,-25,-60,-3,46,-43,21,64,95,90,25,-3
35,-34,-70,0,52,-52,27,75,111,94,20,-10
37,-42,-80,2,58,-61,33,86,127,93,14,-18
39,-51,-90,5,65,-70,40,98,143,87,6,-26
40,-61,-101,10,71,-81,46,109,157,78,-2,-35
42,-71,-112,14,78,-91,49,118,171,69,-11,-44
46,-76,-123,14,85,-99,51,128,184,59,-19,-51
50,-81,-132,15,91,-106,53,137,196,50,-26,-57
52,-86,-139,17,95,-112,55,144,206,39,-33,-64
53,-90,-144,19,98,-118,56,150,215,28,-40,-70
54,-94,-148,20,101,-122,57,156,223,19,-46,-75
54,-97,-151,21,103,-124,58,161,230,11,-51,-80
53,-100,-153,23,104,-126,59,165,236,4,-56,-84
52,-103,-154,25,104,-128,59,166,240,-2,-60,-88
53,-101,-155,24,104,-127,58,167,243,-6,-63,-90
55,-97,-153,21,105,-125,56,167,246,-8,-63,-89
56,-93,-151,19,103,-122,53,164,246,-9,-63,-88
54,-91,-147,18,101,-119,49,159,244,-10,-63,-87
53,-89,-143,18,98,-116,44,154,240,-11,-61,-85
53,-85,-138,16,95,-111,40,148,236,-10,-58,-82
52,-80,-131,14,92,-106,36,140,231,-9,-55,-78
49,-77,-125,14,88,-101,31,131,224,-8,-53,-75
47,-73,-120,13,84,-97,27,123,218,-7,-50,-72
47,-67,-114,9,82,-91,25,117,212,-6,-46,-68
46,-61,-108,7,78,-85,23,111,204,-5,-42,-64
43,-56,-101,6,72,-79,21,104,196,-4,-39,-59
40,-52,-93,6,67,-73,18,97,187,-3,-36,-55
38,-47,-85,4,62,-66,18,91,178,-1,-33,-51
36,-42,-76,3,56,-59,18,86,168,-1,-29,-46
30,-39,-67,4,49,-53,18,82,155,-1,-27,-42
24,-36,-59,5,42,-47,19,78,142,-3,-24,-37
21,-30,-50,4,36,-40,21,75,129,-3,-20,-32
18,-23,-42,3,30,-32,25,74,116,-3,-16,-26
12,-19,-33,3,23,-26,29,72,102,-3,-14,-22
6,-17,-25,5,16,-21,31,70,89,-3,-12,-19
2,-14,-17,6,9,-15,34,67,78,-3,-9,-16
0,-11,-10,5,4,-10,37,65,67,-2,-6,-12
-3,-9,-4,6,0,-7,40,63,58,-2,-4,-9
-7,-9,0,8,-3,-5,43,61,49,-2,-3,-7
-10,-8,2,8,-5,-2,46,59,41,-1,-1,-5
-10,-4,4,7,-6,0,50,59,34,0,1,-2
-11,-2,6,7,-7,2,55,59,28,0,2,-1
-13,-3,8,8,-10,2,59,59,22,0,3,-1
-15,-4,10,10,-12,3,64,59,17,-1,3,-1
-15,-4,11,10,-13,3,68,59,13,-1,3,0
-15,-4,12,10,-13,4,71,59,10,-1,3,0
-17,-6,12,11,-14,3,73,57,7,-1,2,-1
-18,-7,12,12,-14,2,76,55,4,-1,2,-1
-17,-5,12,10,-14,4,80,55,2,-1,3,0
-16,-2,13,9,-13,5,84,54,0,0,4,1
-16,-2,13,9,-14,5,86,51,-1,-1,4,1
-17,-2,13,9,-15,5,87,48,-3,-1,4,0
-16,-1,14,8,-15,6,86,44,-4,0,5,1
-14,0,15,7,-15,7,80,41,-4,1,6,2
-14,0,15,6,-14,8,72,37,-4,1,7,3
-13,1,15,6,-14,8,61,33,-4,2,7,4
-11,4,15,3,-12,10,50,29,-3,3,9,6
-7,9,16,0,-11,13,40,25,-2,5,11,8
-5,11,16,-2,-10,14,28,20,-1,6,12,8
-4,12,15,-4,-10,14,18,15,-1,6,13,9
-2,13,15,-5,-9,14,10,12,0,7,14,10
0,15,15,-7,-8,15,3,9,1,9,15,11
0,15,15,-8,-7,15,-3,5,1,10,16,12
0,14,15,-7,-7,15,-8,1,1,10,16,12
0,14,15,-7,-7,15,-11,-2,1,11,16,12
3,18,15,-10,-6,17,-14,-3,2,12,16,13
4,19,15,-12,-5,17,-16,-5,2,12,16,14
3,19,15,-11,-6,17,-19,-7,2,12,15,14
3,18,15,-11,-6,16,-20,-8,2,12,15,14
4,18,15,-11,-5,16,-21,-8,3,12,15,15
4,18,15,-11,-5,16,-22,-9,3,13,15,15
3,17,14,-10,-5,16,-23,-10,3,13,15,15
2,16,14,-9,-6,15,-24,-10,3,13,14,15
4,18,14,-11,-5,16,-24,-10,3,13,15,16
5,20,14,-12,-4,17,-24,-9,4,13,15,16
4,20,15,-12,-4,17,-25,-10,3,13,15,16
4,19,15,-11,-5,17,-25,-11,3,12,15,16
5,19,14,-11,-5,17,-25,-11,4,12,15,16
5,20,14,-12,-4,17,-24,-11,5,13,16,16
4,19,14,-11,-5,17,-25,-11,4,13,15,16
3,16,14,-10,-6,16,-26,-12,3,12,14,15
3,17,14,-10,-5,16,-26,-12,3,12,15,16
5,19,15,-12,-5,17,-25,-11,3,12,16,17
5,20,15,-12,-5,17,-25,-11,2,13,16,17
4,20,15,-12,-5,16,-26,-11,2,12,15,16
4,19,15,-12,-5,16,-25,-12,2,12,15,16
4,20,15,-12,-5,17,-25,-11,2,13,15,16
4,19,15,-12,-5,17,-25,-11,2,12,15,16
2,17,15,-10,-6,17,-25,-12,2,11,15,15
1,17,15,-9,-6,16,-26,-13,2,11,14,15
3,19,15,-11,-5,17,-25,-12,2,12,15,16
4,20,16,-12,-5,18,-25,-12,1,12,15,16
3,20,16,-11,-5,17,-26,-12,0,12,14,16
3,19,16,-11,-6,17,-26,-13,0,11,14,15
4,19,16,-11,-5,17,-26,-13,0,12,15,16
4,19,15,-12,-5,17,-26,-13,0,12,15,16
3,18,15,-10,-6,17,-26,-14,-1,11,15,16
1,16,15,-9,-6,16,-27,-15,-2,11,14,16
2,18,15,-11,-6,17,-26,-15,-2,11,14,16
4,20,16,-12,-6,17,-26,-15,-2,11,15,17
3,20,16,-11,-6,17,-26,-15,-3,11,15,16
2,19,16,-10,-7,16,-27,-16,-4,10,15,16
3,19,16,-10,-7,17,-27,-16,-5,10,15,16
3,19,17,-11,-7,18,-26,-16,-5,10,15,17
2,19,17,-11,-7,18,-26,-17,-6,9,14,17
0,17,17,-9,-8,17,-27,-19,-8,8,13,16
0,17,18,-9,-8,17,-28,-19,-9,7,13,17
2,20,18,-11,-7,18,-27,-19,-9,8,14,17
2,20,18,-11,-7,18,-27,-20,-10,8,14,17
0,19,18,-10,-8,18,-28,-21,-12,7,13,16
0,19,18,-9,-9,18,-28,-22,-13,6,12,16
0,19,18,-10,-9,19,-28,-22,-13,6,12,16
0,19,19,-10,-9,19,-28,-23,-15,5,12,16
-1,17,19,-8,-10,19,-29,-24,-17,4,10,16
-2,17,19,-7,-11,18,-30,-26,-19,3,9,16
-1,19,20,-9,-10,19,-30,-26,-20,3,10,17
0,21,20,-10,-10,20,-30,-27,-22,3,10,17
-2,20,20,-9,-11,20,-30,-28,-24,2,9,16
-3,19,21,-8,-12,20,-31,-30,-27,0,8,15
-2,19,21,-8,-12,20,-31,-31,-29,0,8,15
-2,19,22,-8,-12,21,-31,-32,-31,0,8,15
-4,18,23,-7,-14,21,-32,-34,-33,-2,7,15
-6,16,24,-5,-15,20,-34,-36,-37,-3,6,14
-6,18,24,-6,-15,21,-34,-37,-39,-4,6,15
-5,20,25,-7,-15,22,-34,-38,-41,-4,6,15
-6,19,25,-6,-15,22,-35,-39,-44,-6,6,15
-7,18,26,-5,-17,22,-35,-41,-47,-7,5,14
-8,18,27,-5,-18,23,-36,-42,-50,-8,5,14
-8,19,28,-5,-18,24,-36,-44,-53,-9,5,15
-9,19,29,-5,-19,24,-36,-45,-56,-10,5,14
-12,17,29,-3,-20,23,-37,-47,-59,-12,4,14
-12,17,30,-2,-21,23,-37,-48,-62,-13,3,14
-11,19,30,-4,-20,24,-36,-49,-64,-13,4,14
-11,19,31,-4,-21,25,-36,-50,-66,-14,4,14
-13,18,31,-2,-22,24,-37,-51,-69,-16,3,13
-14,17,31,-1,-22,24,-37,-53,-72,-17,2,13
-14,17,32,-1,-23,24,-37,-53,-74,-17,2,13
-15,17,33,0,-23,25,-37,-54,-76,-18,2,13
-17,16,33,1,-25,24,-38,-56,-80,-19,1,12
-18,15,34,1,-25,24,-38,-58,-83,-21,0,12
-17,18,34,0,-25,26,-38,-58,-85,-21,0,13
-16,19,35,-1,-25,27,-38,-58,-87,-22,1,13
-17,18,35,0,-26,26,-38,-59,-90,-23,0,12
-18,17,35,1,-27,26,-37,-59,-92,-24,-1,12
-19,17,36,1,-28,26,-37,-59,-94,-24,0,12
-19,18,38,1,-28,27,-36,-58,-96,-24,0,13
-20,17,38,2,-29,27,-37,-59,-98,-24,0,12
-22,15,38,3,-30,27,-37,-60,-101,-25,-1,12
-21,16,38,3,-30,27,-36,-60,-102,-25,-1,12
-20,18,38,1,-29,27,-35,-60,-103,-24,0,13
-21,17,38,2,-29,27,-35,-60,-105,-24,0,13
-22,16,38,3,-30,26,-34,-60,-106,-25,-1,13
-22,16,38,3,-30,27,-34,-60,-108,-24,-1,13
-21,16,39,3,-29,27,-34,-60,-110,-24,0,13
-22,16,39,3,-30,28,-34,-60,-111,-24,0,13
-24,14,39,5,-31,27,-35,-61,-114,-25,0,13
-24,15,39,4,-31,27,-35,-62,-115,-25,0,13
-21,17,39,2,-30,28,-34,-61,-116,-24,1,14
-21,18,40,2,-31,28,-33,-60,-117,-23,1,15
-23,17,40,4,-32,28,-33,-60,-118,-24,1,15
-24,17,40,4,-32,28,-33,-60,-119,-24,1,15
-24,17,40,4,-32,28,-33,-60,-119,-23,2,15
-24,17,40,4,-31,28,-32,-59,-119,-23,2,15
-24,15,40,5,-31,27,-32,-60,-119,-22,2,14
-24,14,39,5,-31,27,-33,-60,-120,-22,2,14
-23,16,39,4,-31,27,-32,-59,-119,-21,3,15
-22,17,40,3,-31,28,-30,-58,-119,-20,4,16
-23,16,40,4,-31,27,-30,-57,-119,-20,5,16
-24,16,39,4,-31,27,-30,-57,-119,-20,5,16
-22,16,39,3,-30,27,-29,-56,-118,-19,6,17
-21,16,38,3,-29,27,-29,-56,-117,-18,7,17
-22,15,37,3,-29,26,-29,-56,-117,-18,7,17
-23,13,37,5,-29,25,-29,-55,-116,-18,7,16
-22,14,36,4,-29,25,-29,-54,-115,-18,8,17
-19,16,35,1,-27,25,-27,-52,-112,-16,9,18
-18,16,35,1,-26,25,-25,-50,-110,-15,10,18
-18,15,34,1,-26,24,-24,-48,-108,-15,10,18
-17,16,34,1,-25,24,-23,-46,-105,-14,10,18
-16,16,33,0,-23,24,-21,-44,-103,-13,11,19
-16,16,32,0,-23,23,-20,-43,-100,-12,11,19
-17,14,31,1,-23,22,-19,-41,-98,-12,11,18
-15,13,29,0,-21,21,-18,-40,-95,-11,12,18
-11,16,27,-2,-19,21,-17,-38,-91,-10,14,19
-9,17,26,-4,-17,21,-16,-35,-88,-9,15,19
-9,16,25,-3,-17,20,-17,-34,-86,-9,15,19
-8,15,24,-3,-16,19,-17,-33,-83,-9,15,19
-7,15,23,-4,-14,19,-18,-33,-80,-8,16,20
-5,15,21,-5,-13,18,-17,-32,-76,-7,16,20
-5,14,20,-4,-12,17,-16,-30,-72,-6,16,20
-5,13,19,-4,-12,16,-16,-28,-68,-5,17,19
-2,16,18,-7,-10,17,-14,-26,-63,-3,18,20
0,17,17,-9,-8,17,-13,-24,-59,-2,19,20
1,17,16,-9,-7,16,-13,-22,-55,-1,20,20
1,17,16,-9,-7,16,-12,-20,-51,0,20,20
2,17,15,-9,-6,16,-11,-18,-47,2,20,20
3,18,15,-10,-5,17,-10,-17,-43,3,21,21
4,17,14,-10,-4,16,-9,-17,-39,4,21,21
3,15,14,-9,-4,15,-9,-16,-36,5,20,20
3,16,13,-9,-4,14,-8,-15,-33,6,21,21
5,17,13,-11,-3,15,-7,-14,-29,7,22,22
6,17,12,-12,-2,14,-7,-13,-26,7,22,22
6,16,10,-11,-1,13,-6,-12,-23,7,21,21
6,16,10,-11,-1,13,-6,-11,-21,8,20,21
8,17,9,-13,0,13,-5,-10,-18,8,19,22
8,17,8,-13,0,13,-6,-9,-15,8,18,22
8,15,7,-11,1,11,-7,-9,-14,7,16,21
8,13,6,-11,2,10,-7,-8,-12,6,15,20
10,14,5,-12,3,10,-6,-6,-9,6,14,20
11,14,5,-13,3,9,-5,-4,-6,6,13,20
10,13,4,-11,3,8,-5,-4,-5,6,12,19
8,11,3,-10,3,7,-4,-3,-4,5,10,18
8,11,3,-10,3,7,-2,-2,-3,5,10,18
8,11,3,-9,3,7,0,-2,-2,5,9,18
6,9,3,-8,2,6,0,-2,-1,5,8,17
5,8,3,-6,1,6,0,-2,0,4,7,16
5,8,3,-7,1,6,1,0,1,5,6,16
6,8,3,-7,2,6,1,1,2,5,6,16
6,7,2,-6,2,5,2,2,3,5,5,15
5,6,2,-5,1,4,2,2,4,4,4,14
4,6,2,-5,1,3,3,2,4,3,3,14
4,5,1,-5,2,3,4,3,5,3,3,14
3,4,1,-3,1,3,4,3,5,2,3,13
2,2,1,-1,1,2,3,2,4,1,2,13
2,3,1,-2,1,2,4,1,4,1,2,13
4,5,1,-4,2,3,4,2,5,2,3,13
4,5,1,-4,2,3,4,2,6,2,3,13
3,4,1,-3,1,2,4,2,7,3,2,13
3,4,0,-3,2,1,5,2,8,3,2,13
4,4,0,-4,2,2,5,2,8,4,2,13
3,4,0,-3,2,1,4,1,9,4,2,13
1,2,0,-1,1,1,4,0,9,4,0,12
1,1,0,-1,1,1,4,0,8,3,0,11
3,2,0,-2,1,1,5,0,8,3,0,12
4,3,0,-3,2,2,5,-1,8,3,0,12
4,3,0,-3,2,1,5,-1,8,2,0,11
3,2,0,-3,2,1,5,0,8,2,0,11
3,3,0,-4,2,2,4,0,8,2,0,11
3,3,1,-4,2,2,4,-1,8,2,0,11
2,2,0,-2,1,2,4,-2,7,2,0,11
2,1,0,-2,1,1,3,-4,7,1,-1,10
3,2,-1,-3,2,1,3,-4,8,2,-1,10
4,4,0,-4,2,2,4,-4,9,3,0,10
3,3,1,-4,1,2,4,-4,9,3,-1,10
2,2,0,-2,1,1,3,-5,8,2,-2,9
2,1,0,-2,1,0,3,-6,8,2,-3,9
3,2,0,-3,2,0,3,-7,8,2,-3,9
2,2,0,-3,2,0,3,-7,7,2,-3,8
1,1,0,-1,1,0,3,-7,7,2,-4,7
1,1,0,-2,0,1,3,-7,7,2,-4,7
3,3,0,-4,1,2,3,-7,7,3,-2,8
4,4,0,-4,1,2,3,-7,7,3,-2,8
3,3,0,-3,1,2,2,-7,6,2,-3,8
3,2,0,-2,1,1,2,-7,6,2,-3,8
3,3,1,-3,1,2,3,-7,6,2,-3,8
2,3,1,-3,1,2,4,-7,6,2,-4,8
0,1,1,-1,0,1,3,-7,5,1,-5,7
0,0,1,0,-1,1,2,-9,4,1,-7,6
1,2,2,-1,0,2,2,-9,4,1,-7,7
2,3,2,-2,0,3,3,-9,5,2,-7,7
2,3,2,-2,0,3,4,-8,4,2,-8,7
1,2,2,-1,0,1,4,-8,3,2,-8,6
1,1,1,-1,0,0,4,-8,2,1,-9,6
2,0,0,-1,2,0,5,-8,1,0,-9,7
1,-1,-1,0,2,-1,6,-8,0,-1,-9,6
0,-3,-2,1,1,-2,7,-7,-1,-2,-10,6
1,-2,-3,0,3,-2,8,-7,-2,-2,-9,6
5,-1,-5,-1,5,-3,9,-5,-2,-1,-7,7
5,-3,-8,-1,7,-5,11,-3,-1,0,-7,6
5,-5,-10,0,8,-7,12,-1,0,1,-7,6
6,-6,-12,0,9,-9,14,2,2,5,-6,6
9,-7,-15,-1,12,-10,15,5,6,10,-5,7
10,-8,-18,-1,14,-13,16,8,11,17,-5,7
12,-10,-22,0,17,-16,17,11,17,25,-5,7
15,-10,-26,-2,20,-18,19,15,24,35,-4,8
19,-10,-30,-4,24,-20,21,20,33,47,-2,9
22,-13,-35,-4,28,-24,23,25,43,58,0,8
24,-18,-42,-3,33,-30,27,32,53,69,0,6
26,-23,-49,-1,37,-37,31,39,65,79,0,3
29,-29,-58,0,43,-44,36,48,79,88,-1,-1
32,-36,-68,1,50,-52,42,58,96,95,-4,-7
34,-45,-79,5,56,-62,47,68,111,97,-10,-14
35,-53,-89,9,62,-71,53,79,126,92,-17,-22
38,-60,-99,11,68,-79,60,91,140,84,-25,-30
41,-66,-108,13,74,-87,65,102,153,74,-33,-38
43,-74,-118,16,80,-96,67,110,164,62,-42,-47
45,-81,-126,18,85,-104,69,117,173,50,-51,-55
46,-86,-133,20,89,-109,71,125,182,38,-58,-61
48,-90,-138,21,92,-114,72,131,190,26,-65,-66
48,-95,-143,23,95,-118,72,136,196,15,-71,-72
47,-99,-147,26,96,-122,73,141,202,6,-77,-78
49,-101,-149,26,98,-124,75,147,208,-1,-81,-82
51,-100,-151,25,100,-125,76,151,214,-7,-83,-85
51,-100,-151,25,100,-126,76,154,217,-12,-85,-87
49,-100,-150,25,99,-126,75,154,218,-16,-86,-88
49,-99,-148,24,98,-124,72,152,219,-17,-86,-88
49,-95,-145,22,97,-120,69,150,219,-17,-85,-86
48,-92,-141,21,95,-116,65,144,216,-18,-83,-85
46,-90,-136,22,91,-113,60,136,210,-19,-82,-85
46,-86,-132,20,89,-109,54,127,204,-19,-80,-83
48,-79,-126,15,87,-103,49,118,197,-17,-75,-79
48,-73,-120,13,84,-97,45,109,191,-16,-71,-75
45,-70,-114,12,79,-92,42,102,183,-15,-68,-72
42,-66,-108,11,74,-87,39,96,175,-15,-65,-69
42,-59,-101,8,71,-80,38,90,168,-13,-61,-64
40,-53,-94,6,66,-74,37,84,161,-10,-57,-60
35,-50,-86,7,60,-68,34,78,153,-9,-54,-56
31,-46,-78,7,54,-61,32,72,144,-8,-51,-52
30,-40,-70,5,49,-54,32,67,133,-7,-46,-47
27,-34,-61,4,43,-47,34,64,122,-7,-42,-43
21,-31,-52,5,36,-42,36,61,109,-7,-38,-38
16,-27,-43,6,29,-36,38,59,97,-7,-35,-34
13,-22,-35,5,23,-29,41,57,85,-6,-31,-29
9,-18,-27,4,18,-23,44,56,74,-6,-27,-25
4,-15,-19,5,12,-18,47,54,63,-6,-24,-22
-1,-13,-12,7,6,-13,50,53,53,-6,-22,-19
-3,-10,-6,7,1,-9,55,52,44,-4,-18,-16
-5,-6,-1,6,-2,-5,58,51,37,-2,-14,-13
-8,-5,2,7,-5,-2,61,50,30,-1,-12,-11
-12,-6,6,9,-9,-1,64,49,23,-1,-11,-10
-14,-6,8,10,-11,0,68,49,17,-1,-10,-9
-15,-5,9,9,-12,1,73,50,11,-1,-8,-7
-15,-4,10,9,-13,2,76,51,6,-2,-7,-7
-17,-6,11,11,-14,2,78,50,2,-3,-7,-7
-17,-6,11,11,-14,2,82,49,-2,-5,-7,-7
-16,-4,12,10,-14,4,87,50,-4,-5,-4,-6
-16,-3,13,10,-15,5,90,49,-6,-5,-3,-6
-18,-4,14,11,-16,5,93,48,-9,-5,-2,-6
-19,-4,14,12,-17,5,97,47,-11,-4,-2,-6
-20,-4,15,12,-17,5,101,46,-13,-4,-1,-6
-20,-4,15,12,-18,5,103,44,-14,-3,-1,-6
-21,-5,16,13,-18,5,102,40,-15,-4,-1,-7
-21,-5,16,12,-18,5,100,36,-16,-4,-1,-7
-17,-1,17,9,-17,7,94,32,-16,-2,1,-5
-13,3,17,5,-15,9,84,28,-15,0,4,-4
-11,6,17,3,-14,11,73,23,-16,0,6,-3
-10,7,17,2,-14,11,61,19,-16,1,7,-2
-9,10,18,0,-14,13,50,15,-15,2,9,-1
-7,12,18,-2,-13,15,40,11,-14,4,11,0
-6,13,19,-3,-12,16,30,5,-14,5,12,0
-6,13,19,-3,-12,16,21,0,-14,6,13,0
-5,14,19,-5,-12,17,14,-6,-14,7,15,0
-2,16,19,-7,-11,18,8,-10,-13,8,17,1
0,17,19,-8,-10,18,3,-14,-13,8,18,2
-1,17,18,-8,-10,17,0,-17,-14,8,18,1
0,18,18,-9,-9,17,-2,-19,-13,9,18,2
1,20,18,-11,-8,19,-4,-20,-12,10,20,3
1,20,19,-11,-8,19,-6,-21,-11,10,21,3
0,18,19,-9,-9,19,-9,-23,-12,10,20,1
-1,18,19,-9,-10,19,-10,-25,-12,10,21,1
1,19,19,-10,-9,19,-10,-25,-12,10,22,1
2,20,19,-11,-8,19,-10,-26,-12,10,23,1
1,19,18,-10,-8,18,-11,-26,-13,10,23,1
2,19,17,-10,-8,18,-12,-26,-13,9,23,1
2,20,17,-11,-7,18,-11,-25,-13,10,24,1
2,20,17,-12,-7,18,-11,-26,-13,10,24,1
1,18,17,-10,-8,18,-13,-27,-13,9,24,0
0,17,18,-9,-9,18,-13,-27,-13,8,24,0
1,19,18,-10,-8,19,-13,-27,-13,9,25,0
2,21,19,-12,-8,20,-12,-26,-13,10,27,0
2,20,19,-11,-8,19,-13,-27,-14,9,27,0
1,19,18,-10,-9,18,-14,-27,-15,9,27,0
1,19,18,-10,-8,17,-14,-27,-15,8,27,0
3,20,17,-12,-6,18,-14,-26,-14,8,28,0
2,20,18,-11,-7,18,-13,-26,-14,8,28,0
0,18,18,-9,-9,18,-14,-28,-15,8,28,0
1,19,18,-10,-8,19,-15,-28,-15,8,29,0
4,22,18,-12,-7,20,-15,-28,-15,9,31,0
4,22,18,-12,-7,19,-15,-28,-15,9,31,0
2,20,18,-10,-8,18,-15,-29,-16,9,30,-1
1,20,18,-10,-9,18,-15,-28,-16,9,30,-1
1,20,18,-11,-9,19,-14,-28,-16,9,31,-1
0,20,19,-10,-9,19,-14,-28,-16,9,31,-1
-1,18,19,-8,-10,18,-14,-28,-16,9,30,-2
-1,17,19,-7,-10,18,-15,-29,-17,8,30,-3
1,19,18,-9,-9,19,-15,-28,-17,9,32,-2
2,20,18,-11,-8,19,-15,-28,-17,9,33,-2
2,19,18,-10,-8,18,-15,-30,-19,8,32,-2
1,19,18,-9,-9,18,-15,-31,-20,7,32,-3
0,19,19,-9,-10,19,-14,-30,-21,7,33,-2
0,20,19,-10,-10,19,-14,-29,-21,7,33,-2
0,19,19,-9,-10,19,-15,-31,-21,7,33,-3
-1,18,19,-8,-10,19,-16,-33,-22,7,32,-4
0,19,19,-9,-9,19,-15,-33,-22,8,33,-3
2,21,20,-11,-9,20,-14,-32,-22,8,34,-3
1,20,20,-10,-9,20,-14,-32,-24,7,34,-4
0,19,20,-9,-10,19,-15,-33,-25,6,33,-5
0,19,20,-9,-10,19,-14,-33,-26,6,33,-5
0,20,20,-9,-10,19,-14,-33,-26,6,33,-5
-2,19,21,-8,-11,19,-15,-35,-28,5,33,-5
-4,17,22,-6,-13,19,-16,-37,-30,3,32,-6
-3,18,22,-7,-13,20,-17,-38,-31,3,33,-5
-1,21,22,-9,-12,22,-16,-39,-32,4,34,-5
0,21,23,-10,-12,22,-16,-39,-34,4,35,-5
-2,21,24,-8,-14,22,-16,-41,-37,3,34,-6
-3,21,25,-8,-14,22,-17,-42,-40,2,33,-7
-4,21,25,-8,-14,23,-17,-42,-41,1,33,-7
-5,21,26,-7,-15,23,-18,-43,-43,0,33,-7
-8,19,26,-5,-16,23,-19,-45,-46,-1,31,-8
-8,18,27,-5,-17,23,-20,-47,-48,-2,31,-8
-6,21,27,-7,-16,24,-19,-48,-49,-2,31,-8
-5,22,27,-8,-16,24,-19,-48,-50,-2,31,-8
-7,21,28,-6,-17,24,-20,-49,-53,-4,30,-9
-8,20,28,-5,-18,23,-20,-50,-55,-5,29,-10
-9,20,29,-5,-19,24,-20,-50,-57,-6,29,-10
-9,20,30,-5,-19,24,-20,-51,-60,-7,29,-10
-11,19,30,-3,-20,24,-20,-53,-63,-9,28,-11
-12,18,31,-2,-21,24,-21,-55,-66,-10,26,-12
-12,19,31,-3,-21,25,-21,-56,-68,-11,26,-12
-11,21,32,-4,-21,26,-20,-57,-71,-12,26,-12
-12,20,33,-3,-23,26,-21,-58,-74,-13,25,-12
-15,19,34,-1,-24,26,-21,-60,-78,-15,24,-13
-16,18,35,-1,-25,26,-21,-61,-80,-16,23,-13
-16,19,35,-1,-25,27,-21,-62,-82,-16,23,-13
-17,18,36,0,-26,27,-22,-63,-84,-17,23,-13
-19,16,36,2,-27,26,-22,-65,-87,-19,21,-15
-19,17,36,1,-28,27,-22,-66,-89,-20,21,-15
-17,19,37,0,-27,28,-21,-66,-91,-20,21,-15
-17,19,38,0,-27,28,-21,-66,-93,-20,21,-15
-19,18,38,0,-28,28,-22,-67,-96,-21,20,-16
-20,18,38,1,-29,27,-22,-68,-98,-21,19,-16
-20,18,39,1,-29,28,-21,-68,-99,-21,19,-16
-21,18,39,2,-30,28,-21,-69,-101,-22,19,-16
-23,16,40,4,-31,28,-21,-70,-103,-23,18,-17
-24,16,40,4,-32,28,-21,-71,-105,-23,18,-18
-22,18,40,3,-32,29,-21,-71,-107,-23,18,-17
-21,19,41,2,-32,30,-20,-70,-108,-22,19,-17
-23,18,42,3,-32,30,-21,-71,-110,-22,18,-17
-24,18,42,3,-33,29,-21,-71,-112,-22,18,-17
-24,18,43,3,-33,30,-20,-71,-113,-22,18,-17
-24,19,43,2,-33,30,-20,-71,-114,-21,18,-16
-25,17,43,3,-34,30,-20,-72,-116,-22,18,-17
-27,16,44,5,-35,29,-21,-73,-118,-22,17,-17
-26,17,44,4,-34,30,-20,-73,-119,-22,18,-17
-24,19,45,2,-34,31,-19,-72,-119,-21,19,-16
-25,19,45,2,-34,31,-19,-72,-120,-21,19,-16
-26,18,45,4,-35,31,-20,-72,-122,-21,18,-16
-27,18,45,4,-35,31,-19,-72,-122,-21,18,-16
-26,18,45,4,-35,31,-19,-72,-122,-20,19,-15
-27,18,45,4,-35,31,-19,-72,-123,-20,19,-15
-28,16,45,6,-36,31,-19,-73,-124,-21,18,-16
-28,16,45,5,-36,31,-19,-72,-124,-20,18,-16
-25,19,45,3,-35,31,-19,-71,-124,-19,19,-15
-25,19,45,3,-34,31,-18,-70,-123,-18,20,-14
-26,18,45,4,-35,30,-18,-70,-124,-18,19,-14
-26,17,44,5,-35,30,-18,-70,-123,-18,19,-14
-26,17,44,4,-34,30,-17,-69,-122,-17,19,-14
-25,17,43,4,-34,30,-16,-68,-121,-16,19,-13
-26,15,43,5,-34,29,-17,-68,-121,-16,18,-14
-26,14,42,6,-34,28,-17,-68,-120,-16,18,-14
-24,16,41,4,-32,28,-16,-66,-118,-15,19,-13
-22,18,41,2,-31,28,-15,-64,-116,-14,19,-12
-22,17,40,3,-31,27,-15,-63,-115,-13,18,-13
-22,16,39,3,-30,26,-15,-62,-113,-13,17,-13
-21,15,38,3,-29,26,-14,-61,-110,-12,17,-13
-20,15,37,2,-28,25,-12,-59,-107,-11,18,-12
-20,14,36,3,-28,24,-11,-58,-105,-11,17,-12
-21,13,35,4,-27,23,-11,-57,-103,-11,16,-13
-19,14,34,2,-26,23,-10,-54,-100,-10,16,-12
-16,16,33,0,-24,24,-8,-51,-96,-8,17,-11
-15,16,32,0,-23,23,-8,-49,-93,-7,17,-11
-15,15,31,0,-22,22,-8,-48,-90,-7,15,-12
-14,15,30,0,-21,21,-7,-46,-87,-6,15,-12
-13,15,29,0,-19,21,-6,-44,-83,-5,14,-11
-12,14,27,0,-18,20,-6,-43,-80,-5,13,-11
-12,12,26,0,-18,18,-7,-42,-77,-5,11,-12
-10,12,24,0,-16,18,-7,-41,-73,-4,10,-12
-7,14,23,-3,-14,18,-6,-38,-69,-2,10,-11
-5,15,22,-5,-13,17,-5,-36,-64,-1,10,-10
-4,14,21,-4,-12,16,-5,-34,-61,0,8,-10
-4,14,20,-4,-11,16,-4,-33,-57,1,7,-10
-2,14,19,-5,-10,16,-3,-31,-52,3,7,-10
-1,14,18,-6,-9,16,-2,-29,-48,5,6,-9
-2,13,17,-5,-9,14,-1,-29,-44,5,4,-10
-2,12,16,-4,-9,14,-1,-28,-41,6,1,-10
0,14,15,-7,-7,14,0,-26,-37,7,0,-9
2,16,15,-9,-6,15,0,-23,-33,9,0,-8
2,15,15,-8,-6,14,1,-22,-30,9,-1,-8
1,14,14,-8,-6,13,1,-21,-27,10,-3,-9
2,14,13,-8,-5,12,2,-20,-24,11,-4,-8
4,14,12,-9,-3,12,3,-19,-21,12,-5,-8
3,13,11,-8,-3,11,3,-19,-18,12,-6,-8
2,10,9,-6,-3,10,3,-18,-16,11,-9,-9
3,10,8,-7,-2,10,3,-17,-14,12,-10,-9
6,12,8,-9,-1,10,4,-14,-11,13,-10,-8
6,11,7,-9,0,9,4,-13,-9,13,-12,-9
5,10,6,-7,0,7,4,-12,-7,12,-15,-9
4,9,5,-6,0,6,4,-11,-6,12,-15,-10
4,8,5,-6,1,6,5,-10,-4,13,-13,-10
4,7,4,-5,1,5,6,-9,-2,12,-15,-10
2,4,4,-3,0,4,6,-8,-1,11,-21,-11
1,3,3,-2,0,4,7,-7,0,11,-26,-11
3,5,3,-4,0,4,8,-6,1,11,-30,-10
3,5,3,-4,0,3,9,-4,2,11,-33,-10
2,3,3,-3,0,2,9,-4,3,10,-35,-10
0,2,2,-1,0,1,9,-3,3,10,-37,-11
0,2,2,-1,0,1,10,-2,4,11,-38,-11
0,2,2,0,0,1,11,-1,5,11,-39,-10
-1,0,2,1,-1,0,10,-1,5,10,-40,-11
-2,-1,2,2,-2,0,10,-1,5,9,-41,-11
-1,0,2,1,-1,0,11,0,6,10,-40,-11
0,1,1,0,-1,0,11,1,8,10,-39,-10
0,0,1,0,-1,0,11,1,8,10,-39,-10
-1,-1,1,1,-1,-1,11,1,7,9,-39,-10
-1,-1,1,1,-1,-1,11,1,8,9,-38,-9
-1,-1,1,0,0,-1,11,2,8,9,-37,-9
-1,-2,1,1,0,-1,11,1,9,8,-36,-9
-3,-4,1,3,-1,-2,10,1,9,8,-35,-9
-2,-3,1,2,-1,-1,10,1,10,8,-34,-9
0,-1,1,0,0,0,10,2,12,8,-31,-8
0,-1,1,0,0,0,10,3,12,8,-30,-8
-1,-2,0,1,-1,-1,9,2,12,8,-29,-8
-2,-2,0,2,-1,-2,9,2,12,8,-28,-8
-1,-2,0,2,0,-1,9,2,13,8,-27,-8
-1,-2,0,2,0,-1,9,2,13,8,-26,-8
-3,-4,0,4,-1,-2,8,1,12,7,-25,-8
-3,-4,0,4,-1,-2,7,1,12,6,-24,-8
-1,-2,0,2,0,-1,7,2,13,7,-22,-7
0,-1,0,1,0,-1,7,2,14,7,-20,-7
-1,-2,0,2,0,-1,7,2,14,6,-19,-7
-2,-2,0,3,-1,-2,7,2,14,6,-18,-7
-2,-2,0,3,0,-1,7,2,14,6,-18,-6
-2,-2,0,3,0,-1,7,2,15,6,-17,-6
-3,-3,0,4,-1,-2,6,2,15,5,-18,-6
-4,-4,0,5,-1,-2,6,1,15,5,-18,-7
-2,-2,0,3,-1,-1,6,1,16,5,-17,-6
-1,-1,1,2,0,-1,6,2,16,6,-16,-5
-1,-1,1,2,-1,-1,5,2,16,5,-16,-5
-2,-3,0,3,-1,-2,5,1,16,5,-16,-5
-2,-3,0,3,-1,-2,5,1,16,5,-16,-5
-2,-3,0,2,0,-2,5,2,16,5,-16,-4
-2,-4,0,3,0,-2,4,2,16,5,-16,-4
-3,-5,0,4,-1,-2,4,1,16,4,-17,-5
-3,-4,0,3,-1,-2,4,2,16,4,-17,-4
-1,-2,0,1,-1,0,4,3,16,5,-15,-3
-1,-1,1,1,-1,0,4,3,16,5,-14,-3
-2,-1,1,2,-2,0,4,2,15,4,-14,-3
-3,-1,2,3,-3,0,3,1,14,3,-13,-2
-2,-1,2,2,-2,0,4,1,14,3,-13,-2
-2,-1,2,2,-2,0,4,1,14,2,-12,-1
-4,-4,1,4,-2,-2,4,1,12,0,-13,-2
-4,-5,0,5,-1,-3,4,1,11,-1,-13,-2
-2,-4,0,3,0,-2,6,3,11,-1,-11,-1
-1,-3,-1,2,0,-3,7,5,10,-2,-10,0
-1,-5,-3,3,1,-4,7,5,10,-2,-10,0
-2,-7,-5,4,1,-6,9,6,10,-2,-10,0
0,-8,-7,4,3,-8,11,9,12,0,-9,0
1,-8,-10,3,5,-9,12,11,14,2,-7,1
2,-10,-12,3,7,-11,13,13,16,6,-5,2
4,-11,-14,4,9,-13,13,15,20,11,-3,3
8,-10,-17,1,13,-14,15,18,25,19,0,4
13,-9,-20,-1,16,-15,16,22,32,28,5,6
15,-10,-24,-2,19,-17,17,26,39,38,7,6
16,-14,-29,-1,22,-22,19,31,47,49,9,5
18,-17,-35,-1,26,-26,22,37,58,60,11,4
22,-20,-41,-1,32,-31,25,44,70,71,13,2
24,-26,-49,1,36,-37,29,52,83,80,13,-1
25,-34,-58,4,41,-46,34,61,97,87,10,-7
28,-40,-68,6,48,-54,40,72,113,91,7,-13
32,-46,-78,7,55,-62,47,85,129,90,3,-19
34,-54,-88,10,61,-71,54,97,144,83,-4,-27
35,-64,-99,15,66,-82,59,108,157,73,-14,-36
37,-73,-109,18,72,-91,63,118,170,63,-23,-44
40,-80,-119,20,79,-99,66,127,181,52,-32,-51
42,-86,-127,22,84,-107,68,135,191,41,-40,-58
42,-93,-134,25,88,-113,69,141,200,28,-48,-64
43,-97,-140,27,91,-118,70,147,207,17,-55,-70
45,-99,-144,27,94,-121,72,154,215,8,-60,-75
47,-100,-146,27,96,-123,73,159,222,0,-65,-79
46,-103,-148,28,97,-126,73,163,227,-7,-69,-83
45,-105,-149,29,97,-127,72,165,231,-13,-73,-86
45,-104,-148,29,97,-127,71,166,235,-17,-75,-87
46,-102,-147,28,97,-125,69,165,237,-20,-75,-86
44,-101,-144,28,95,-123,66,162,237,-21,-75,-86
43,-99,-141,28,92,-120,62,157,235,-21,-75,-85
43,-94,-137,25,90,-116,58,152,231,-21,-72,-83
44,-88,-132,22,88,-110,54,146,226,-21,-69,-79
43,-84,-126,20,85,-105,48,138,220,-20,-66,-76
41,-80,-120,19,81,-100,43,129,214,-19,-64,-72
40,-75,-114,17,77,-95,39,121,208,-18,-61,-67
40,-69,-108,14,74,-89,37,114,201,-17,-58,-63
37,-66,-102,14,70,-84,34,107,193,-16,-56,-59
34,-63,-96,14,65,-79,31,100,185,-16,-54,-56
32,-57,-89,13,60,-73,29,94,177,-14,-50,-52
32,-50,-81,9,56,-65,29,89,170,-12,-44,-47
29,-44,-72,7,50,-58,28,84,161,-11,-40,-41
24,-40,-63,7,44,-52,28,79,148,-11,-38,-37
20,-36,-54,7,37,-46,29,76,136,-11,-35,-32
16,-31,-46,7,31,-39,31,73,124,-10,-31,-27
12,-27,-38,7,25,-33,34,71,111,-10,-28,-22
6,-25,-30,9,18,-28,37,69,98,-11,-26,-18
1,-23,-22,11,12,-22,39,66,86,-12,-24,-15
-2,-17,-14,10,7,-16,43,65,75,-12,-20,-10
-4,-13,-7,9,2,-11,47,64,66,-11,-16,-6
-8,-11,-2,9,-2,-7,49,62,57,-10,-14,-3
-12,-11,2,10,-6,-5,52,60,49,-10,-13,-1
-13,-10,4,11,-8,-3,55,59,42,-9,-11,1
-14,-8,6,11,-10,-1,59,58,36,-8,-10,3
-16,-9,8,12,-12,0,62,57,29,-9,-9,4
-19,-10,10,14,-14,0,65,57,23,-10,-10,4
-19,-9,11,14,-15,1,70,57,19,-10,-8,5
-18,-7,13,13,-15,3,74,58,16,-9,-6,6
-19,-7,13,13,-16,3,78,58,13,-9,-5,7
-21,-8,14,14,-17,2,82,57,10,-9,-5,7
-21,-8,14,15,-17,2,85,56,7,-9,-5,7
-21,-7,15,14,-17,3,89,55,5,-8,-5,8
-22,-7,15,15,-18,3,92,53,3,-9,-5,8
-24,-9,15,17,-19,3,94,50,0,-10,-5,7
-23,-9,15,16,-19,3,96,47,-1,-10,-5,8
-21,-5,16,13,-18,5,95,44,-1,-8,-2,9
-19,-3,17,11,-18,7,90,41,-1,-7,0,10
-19,-2,17,10,-17,7,82,36,-1,-6,0,11
-17,0,17,9,-17,8,72,32,0,-5,1,12
-14,2,17,6,-15,9,61,28,0,-3,3,14
-12,4,17,4,-14,10,49,23,1,-2,4,15
-12,4,17,4,-14,10,37,17,1,-1,4,15
-11,5,17,3,-14,11,25,12,2,0,5,15
-7,9,17,0,-12,13,17,8,3,1,8,17
-5,13,18,-3,-11,15,11,4,4,2,10,19
-4,13,18,-4,-11,15,4,0,5,3,11,19
-4,13,18,-4,-11,15,-2,-4,5,4,12,20
-3,14,18,-5,-10,15,-6,-7,6,4,12,20
-2,14,18,-6,-9,16,-10,-9,6,4,13,21
-2,14,18,-6,-9,15,-13,-12,6,4,13,21
-3,12,17,-4,-10,15,-16,-14,5,3,12,20
-2,14,17,-5,-9,15,-17,-15,6,3,12,20
0,16,17,-8,-8,17,-18,-15,8,4,14,21
0,17,17,-8,-8,17,-18,-16,8,4,15,21
0,16,17,-7,-8,16,-19,-17,7,4,14,21
0,15,17,-7,-8,16,-20,-18,7,4,14,22
0,16,17,-8,-7,16,-21,-18,8,4,13,22
0,15,16,-7,-7,16,-21,-18,7,4,13,22
-1,13,16,-6,-8,15,-22,-19,7,3,12,21
-1,14,16,-6,-8,15,-23,-19,7,3,12,21
0,16,17,-8,-8,16,-23,-18,7,4,13,22
1,18,17,-9,-8,17,-23,-18,7,4,14,23
0,17,17,-8,-8,17,-23,-19,6,4,13,22
0,16,17,-8,-8,16,-23,-20,6,4,13,22
0,16,17,-8,-7,16,-23,-19,6,4,13,23
1,16,17,-8,-7,16,-23,-19,6,4,12,23
0,15,16,-7,-8,15,-23,-19,5,3,11,22
-1,14,16,-6,-9,15,-24,-20,4,2,10,22
0,16,17,-7,-8,16,-24,-20,4,3,10,22
1,18,17,-9,-8,17,-23,-19,4,4,11,23
1,17,17,-8,-8,17,-24,-20,3,3,11,22
0,16,17,-8,-8,17,-25,-20,2,3,11,22
0,16,17,-8,-8,17,-24,-20,3,3,11,22
0,16,17,-8,-8,17,-24,-19,3,3,11,23
0,15,17,-7,-8,16,-24,-20,2,3,11,22
-2,14,17,-5,-9,15,-25,-21,1,2,10,22
-1,15,17,-6,-9,16,-25,-21,0,1,10,22
0,17,17,-8,-8,17,-25,-21,0,2,12,23
0,18,17,-9,-8,17,-26,-22,0,2,13,24
0,16,17,-8,-9,17,-26,-23,-1,2,13,24
0,16,17,-8,-9,16,-26,-23,-1,2,13,24
0,17,17,-8,-8,17,-26,-22,-1,2,13,24
0,16,17,-8,-8,17,-26,-23,-2,2,13,24
-2,14,17,-6,-9,16,-27,-24,-4,1,12,23
-3,14,17,-5,-9,16,-27,-24,-5,0,12,23
-1,16,18,-7,-9,17,-27,-24,-5,1,13,23
0,18,18,-8,-9,18,-28,-24,-5,1,14,24
-1,17,18,-7,-9,18,-28,-25,-7,1,14,23
-2,16,18,-7,-10,17,-29,-26,-8,0,13,23
-2,16,18,-7,-10,17,-29,-26,-9,0,13,23
-1,16,19,-8,-9,17,-29,-26,-9,0,13,23
-3,15,19,-6,-10,17,-29,-27,-10,0,12,22
-4,14,19,-5,-11,16,-30,-29,-11,-1,11,21
-4,15,19,-6,-11,17,-30,-29,-12,-1,12,22
-3,17,20,-7,-11,18,-30,-30,-13,-1,13,22
-3,17,20,-7,-12,18,-30,-31,-15,-2,12,22
-4,16,21,-6,-13,18,-31,-32,-17,-3,11,21
-4,16,21,-6,-13,19,-32,-33,-19,-4,10,21
-4,16,22,-6,-13,19,-32,-34,-20,-4,10,22
-5,16,22,-5,-13,19,-33,-35,-22,-5,9,22
-7,14,22,-3,-14,19,-34,-36,-25,-7,8,21
-7,15,23,-4,-15,19,-34,-37,-26,-8,8,20
-6,17,24,-6,-15,21,-34,-38,-28,-8,9,21
-6,18,24,-6,-15,21,-34,-39,-30,-8,9,20
-8,17,25,-5,-16,20,-35,-41,-32,-10,7,19
-9,16,25,-4,-17,20,-36,-43,-35,-11,6,18
-9,16,26,-4,-17,21,-35,-43,-37,-11,6,18
-10,16,27,-3,-17,21,-36,-44,-40,-12,6,19
-12,14,27,-1,-19,20,-37,-46,-43,-14,5,18
-13,14,28,0,-20,20,-38,-48,-46,-16,4,17
-12,16,29,-2,-20,22,-38,-49,-48,-16,4,18
-12,18,29,-3,-20,23,-38,-50,-50,-17,4,18
-13,17,30,-1,-22,23,-39,-53,-53,-18,3,18
-15,16,31,0,-23,23,-40,-55,-57,-19,2,17
-15,16,32,0,-23,24,-40,-55,-59,-20,2,18
-15,16,33,0,-24,24,-40,-56,-62,-21,2,18
-17,15,33,1,-25,24,-41,-58,-65,-23,1,17
-19,14,34,2,-26,23,-42,-59,-68,-24,0,15
-18,15,34,1,-26,24,-41,-60,-70,-25,0,15
-18,17,35,0,-26,25,-41,-61,-72,-25,1,15
-19,17,35,1,-27,25,-42,-62,-74,-25,1,14
-21,15,36,3,-28,25,-42,-63,-77,-26,0,13
-21,15,36,3,-29,26,-42,-64,-80,-27,0,13
-20,16,37,2,-28,26,-42,-64,-82,-27,0,14
-21,15,37,3,-29,26,-42,-64,-85,-28,0,13
-23,13,37,5,-30,25,-42,-65,-87,-29,-1,12
-23,13,38,5,-30,25,-42,-65,-88,-29,-1,12
-22,16,38,3,-30,26,-41,-65,-90,-30,0,13
-22,16,39,3,-31,27,-40,-65,-92,-30,0,14
-24,15,39,4,-31,26,-41,-66,-95,-31,-1,13
-24,14,39,5,-32,26,-41,-66,-97,-31,-2,13
-24,14,39,4,-32,27,-40,-66,-98,-31,-2,13
-25,14,40,4,-32,27,-40,-65,-100,-31,-2,13
-27,13,40,6,-33,27,-40,-66,-102,-31,-3,12
-28,12,40,7,-34,26,-40,-66,-104,-32,-4,12
-26,14,41,6,-33,27,-39,-66,-105,-31,-4,13
-25,15,41,5,-33,28,-39,-67,-106,-31,-3,13
-26,15,42,6,-34,28,-39,-68,-107,-31,-3,13
-27,14,42,7,-34,28,-40,-68,-109,-31,-4,12
-27,14,42,7,-34,28,-39,-68,-110,-30,-4,12
-27,14,42,6,-34,28,-39,-68,-111,-30,-4,13
-28,13,42,7,-34,28,-39,-68,-112,-30,-5,13
-29,12,42,8,-35,27,-39,-69,-114,-30,-5,12
-27,13,42,7,-34,28,-39,-69,-114,-30,-4,13
-25,15,42,5,-34,28,-38,-68,-114,-29,-3,13
-26,15,42,5,-34,28,-38,-68,-115,-28,-3,13
-27,14,42,6,-34,28,-39,-69,-116,-28,-3,13
-27,14,42,6,-34,28,-38,-68,-116,-28,-3,14
-26,15,42,6,-34,29,-37,-67,-116,-28,-3,14
-27,14,41,6,-34,28,-37,-66,-115,-27,-2,14
-28,12,41,8,-34,26,-38,-66,-115,-27,-3,14
-28,12,40,7,-33,26,-38,-66,-115,-27,-3,14
-25,14,40,5,-32,27,-37,-64,-114,-26,-2,14
-24,14,39,4,-32,27,-36,-63,-113,-25,-1,14
-25,13,39,5,-32,26,-36,-63,-113,-25,-2,13
-25,13,38,6,-31,26,-35,-63,-111,-25,-2,13
-24,13,37,5,-30,26,-34,-61,-109,-24,-1,14
-23,13,36,5,-29,25,-33,-59,-107,-23,-1,14
-24,11,36,7,-29,24,-33,-58,-106,-23,-2,13
-24,10,35,7,-29,23,-32,-57,-104,-23,-2,12
-21,12,35,4,-27,23,-31,-55,-101,-22,0,13
-18,14,34,2,-26,23,-30,-53,-98,-21,0,13
-18,13,33,2,-25,23,-29,-51,-96,-20,0,12
-18,13,31,2,-25,22,-28,-50,-93,-20,0,12
-16,13,30,2,-23,22,-27,-47,-89,-19,1,13
-15,13,29,1,-22,21,-27,-45,-87,-18,2,13
-15,12,28,1,-21,20,-26,-44,-84,-17,2,13
-15,11,27,2,-21,19,-27,-43,-82,-17,1,12
-12,12,25,0,-19,19,-27,-41,-78,-16,1,12
-9,14,24,-2,-17,19,-26,-39,-74,-15,3,13
-8,14,23,-3,-16,19,-26,-38,-70,-14,4,13
-8,13,22,-3,-15,17,-27,-38,-67,-13,4,13
-6,14,20,-3,-13,17,-26,-36,-63,-12,4,14
-4,15,19,-5,-11,17,-24,-33,-58,-11,5,15
-3,15,18,-5,-10,17,-24,-32,-54,-9,6,15
-4,13,18,-4,-10,16,-24,-31,-50,-8,6,14
-3,13,17,-5,-10,15,-23,-30,-46,-7,6,14
-1,15,17,-7,-8,16,-22,-28,-42,-5,8,15
0,16,16,-8,-7,16,-21,-26,-38,-3,9,15
0,15,15,-8,-7,15,-22,-26,-35,-3,8,14
1,15,14,-8,-7,14,-22,-25,-31,-2,8,14
2,15,13,-8,-6,15,-21,-23,-27,-1,8,15
3,16,12,-9,-5,15,-21,-22,-23,0,9,16
3,14,11,-8,-4,14,-21,-21,-20,0,9,15
2,13,11,-7,-4,13,-21,-21,-17,0,9,14
4,14,10,-9,-2,13,-20,-19,-14,1,10,14
6,15,9,-11,-1,13,-20,-18,-10,2,11,14
5,14,9,-10,-1,12,-20,-17,-8,2,10,14
5,12,8,-9,-1,10,-21,-17,-6,2,9,13
6,12,7,-9,0,10,-20,-16,-3,2,9,13
7,12,6,-9,1,9,-19,-14,-1,2,9,13
7,10,5,-8,1,8,-19,-13,1,2,9,12
5,8,4,-6,1,7,-18,-13,2,1,8,11
5,8,4,-6,1,6,-18,-12,4,1,8,11
7,10,4,-8,2,7,-17,-10,6,2,8,11
7,10,4,-8,2,6,-16,-9,7,2,8,10
5,8,3,-7,1,5,-15,-9,8,1,7,9
4,6,2,-6,1,4,-14,-8,9,1,7,8
4,6,2,-5,1,5,-13,-7,10,2,7,8
3,5,2,-4,0,4,-12,-6,11,2,6,8
1,3,2,-2,0,3,-12,-6,11,1,5,8
1,2,2,-2,0,2,-12,-6,12,1,5,7
2,4,2,-4,1,3,-11,-4,13,1,6,8
3,5,1,-4,1,3,-10,-3,14,2,6,8
3,3,1,-3,1,2,-10,-3,14,2,5,7
2,2,1,-2,0,1,-10,-3,15,2,5,6
2,2,1,-2,0,2,-10,-3,15,3,6,6
2,2,0,-2,0,2,-10,-2,16,3,6,7
1,0,0,-1,0,1,-10,-3,16,3,5,6
0,0,0,0,0,1,-11,-3,16,3,5,6
1,1,0,-1,1,1,-10,-2,17,3,5,6
3,3,1,-3,1,2,-10,-1,17,4,6,6
2,2,1,-2,1,2,-10,-1,17,4,5,6
1,1,0,-1,0,1,-11,-2,17,4,5,5
1,1,0,-1,1,1,-11,-2,17,4,5,6
2,2,0,-2,1,1,-11,-1,18,5,5,6
1,1,0,-1,1,1,-11,-1,18,5,5,6
0,-1,0,0,0,0,-11,-1,17,4,5,5
0,0,0,-1,1,0,-11,-1,17,4,5,5
2,3,0,-3,1,1,-10,0,18,5,6,6
2,3,0,-3,1,1,-11,0,18,5,5,6
1,2,0,-2,1,0,-12,-1,17,4,4,5
1,1,0,-1,1,0,-12,-1,17,4,3,5
2,2,0,-2,1,0,-12,-1,17,4,3,6
2,1,0,-1,1,0,-11,0,17,5,3,6
0,0,0,0,1,0,-12,-1,16,4,2,5
0,0,0,0,1,0,-13,-1,16,4,2,5
2,2,0,-2,2,1,-12,0,17,5,3,6
3,3,0,-3,2,2,-12,0,17,5,3,7
2,2,0,-2,1,1,-12,-1,16,5,2,6
1,1,0,-1,1,1,-13,-1,16,4,2,6
1,1,0,-1,1,1,-12,-1,17,4,2,6
1,1,0,-1,1,0,-12,0,17,5,3,6
0,-1,0,0,1,0,-13,-1,17,4,2,5
0,-2,0,1,0,-1,-13,-1,16,4,1,4
1,-1,-1,0,1,0,-12,-1,17,5,2,5
2,1,-1,-1,1,0,-12,0,17,5,3,6
1,1,0,-1,0,0,-12,0,17,5,3,6
0,0,0,-1,0,0,-12,-1,17,5,2,5
0,0,0,-1,0,0,-12,-1,16,4,2,6
0,1,1,-1,0,2,-12,-1,16,4,2,6
0,1,1,-1,0,2,-12,-2,15,4,1,6
-1,0,2,1,-1,2,-12,-3,13,3,0,5
-1,0,2,1,-1,2,-11,-3,13,2,1,5
1,2,1,-1,0,2,-10,-2,12,2,2,7
1,1,0,-1,1,1,-10,-1,11,1,3,7
1,0,-1,0,1,-1,-10,-1,10,0,3,7
1,-1,-3,0,1,-2,-9,0,9,-1,3,8
2,-2,-4,0,2,-2,-7,1,9,-1,3,8
2,-3,-5,0,3,-3,-5,3,10,0,3,8
1,-6,-7,2,4,-6,-4,4,10,0,3,8
2,-7,-9,3,6,-8,-3,6,12,2,4,9
7,-6,-12,0,9,-8,-2,8,15,7,8,11
10,-5,-14,-2,12,-9,-2,12,19,13,11,12
12,-6,-17,-3,15,-11,-1,15,24,20,13,13
13,-7,-20,-4,17,-13,0,18,29,29,15,13
16,-8,-24,-5,20,-15,2,22,37,39,17,13
19,-10,-29,-5,24,-19,4,27,46,50,20,13
21,-14,-35,-4,28,-24,8,33,56,60,21,10
23,-19,-42,-2,33,-30,11,39,67,70,21,6
27,-23,-49,-2,39,-36,15,47,80,80,22,3
32,-27,-58,-3,45,-43,21,58,95,90,22,0
34,-35,-69,0,51,-52,26,69,111,95,18,-7
36,-43,-79,3,57,-61,32,80,126,94,11,-14
38,-52,-90,6,63,-71,39,92,141,88,3,-22
40,-60,-101,10,70,-80,44,104,156,79,-6,-30
42,-69,-111,13,76,-90,48,114,169,70,-15,-38
42,-78,-120,18,81,-99,51,122,181,59,-24,-47
45,-84,-129,19,87,-106,53,129,192,48,-32,-54
50,-86,-136,18,93,-111,54,138,202,38,-38,-59
52,-90,-142,19,97,-115,55,145,211,28,-44,-65
52,-94,-147,21,99,-120,56,150,218,19,-51,-70
52,-98,-150,22,101,-123,57,154,225,10,-57,-75
53,-99,-152,23,102,-125,58,158,231,3,-61,-78
52,-100,-152,23,102,-125,58,161,236,-2,-65,-81
50,-101,-152,25,101,-126,56,161,239,-8,-67,-83
50,-100,-150,25,100,-125,54,160,241,-11,-68,-84
52,-95,-148,22,100,-121,52,158,242,-11,-67,-83
53,-90,-145,19,99,-117,48,155,241,-11,-65,-81
51,-88,-141,19,96,-114,43,149,238,-11,-64,-80
50,-85,-136,18,93,-110,39,141,232,-12,-63,-78
49,-81,-131,16,90,-105,34,134,227,-11,-60,-74
49,-76,-124,13,87,-99,30,126,221,-9,-56,-69
46,-72,-118,13,82,-94,27,117,214,-9,-54,-66
43,-70,-112,13,77,-90,24,110,207,-8,-52,-64
42,-63,-105,10,74,-84,22,103,199,-7,-48,-60
42,-56,-99,7,71,-77,20,97,191,-6,-44,-55
40,-51,-92,5,66,-71,18,91,183,-4,-41,-51
36,-47,-84,5,60,-65,17,85,174,-3,-38,-47
32,-42,-74,5,53,-58,16,80,163,-3,-35,-42
29,-36,-65,4,47,-50,17,76,152,-4,-32,-37
24,-32,-57,4,40,-44,18,72,139,-5,-29,-31
18,-30,-48,6,33,-38,20,69,125,-6,-26,-27
14,-26,-40,6,27,-32,23,67,112,-6,-23,-23
11,-20,-31,4,21,-25,27,65,100,-6,-19,-18
7,-16,-23,4,15,-19,30,63,87,-6,-15,-14
1,-14,-16,6,9,-14,32,61,75,-6,-13,-10
-2,-11,-10,6,4,-10,36,59,65,-5,-10,-7
-5,-9,-4,7,0,-6,39,57,56,-4,-8,-4
-8,-7,0,7,-4,-3,42,55,47,-4,-6,-2
-11,-7,4,9,-8,-1,45,52,39,-4,-6,0
-13,-7,6,10,-10,0,48,50,32,-4,-5,1
-13,-4,9,8,-11,2,53,50,26,-3,-3,3
-13,-2,11,8,-12,4,57,51,21,-3,-1,4
-15,-2,12,9,-13,5,61,52,16,-4,-2,4
-17,-3,13,10,-15,5,65,52,11,-4,-3,4
-18,-3,14,10,-16,5,68,52,9,-4,-2,4
-17,-2,15,10,-16,6,72,51,6,-3,-2,5
-18,-3,15,11,-17,6,75,49,3,-4,-2,5
-20,-5,15,13,-18,5,78,47,0,-4,-2,5
-20,-4,15,12,-18,5,81,46,-2,-4,-2,5
-18,-2,15,10,-17,7,84,44,-3,-4,0,6
-17,-1,15,10,-16,7,85,42,-4,-3,1,6
-18,-1,15,10,-17,7,83,38,-6,-3,1,6
-17,0,16,9,-17,8,78,34,-7,-2,1,7
-15,2,17,6,-16,9,69,30,-7,-1,2,8
-13,4,17,4,-16,10,59,26,-6,0,3,9
-12,4,17,4,-15,11,47,21,-6,0,3,8
-10,6,17,2,-14,12,36,17,-5,1,5,9
-6,11,17,-2,-12,14,26,14,-3,3,7,12
-4,13,18,-4,-10,15,17,10,-2,5,9,13
-4,14,18,-5,-10,15,9,6,-2,5,9,14
-3,14,17,-5,-10,16,2,2,-1,6,10,15
-1,16,17,-7,-9,17,-4,-1,0,8,11,16
0,17,17,-8,-9,17,-9,-5,0,9,12,17
-1,16,17,-7,-9,17,-14,-9,0,9,12,17
-1,16,17,-7,-9,17,-17,-12,-1,8,12,17
0,18,17,-9,-8,18,-19,-13,0,9,13,18
2,20,18,-11,-8,20,-20,-13,0,10,14,19
1,20,18,-11,-8,20,-22,-14,1,10,13,19
1,19,18,-10,-8,19,-23,-15,1,10,12,18
2,19,17,-11,-8,19,-24,-16,1,10,12,18
3,19,17,-12,-7,19,-24,-16,1,10,13,19
2,18,17,-11,-8,18,-26,-17,0,10,12,19
0,17,17,-9,-8,17,-27,-18,0,9,11,18
1,18,17,-10,-8,18,-26,-18,0,9,12,18
3,20,17,-12,-7,19,-26,-17,0,10,13,18
3,20,17,-12,-7,19,-26,-16,0,10,14,18
2,19,17,-11,-8,19,-26,-17,0,10,13,18
2,19,17,-11,-8,18,-26,-17,0,10,13,18
3,20,17,-12,-7,18,-26,-17,1,10,13,18
3,19,17,-11,-7,18,-26,-18,0,9,13,18
1,18,17,-9,-8,17,-27,-19,0,8,12,18
1,18,17,-9,-8,17,-27,-19,-1,8,12,18
3,20,17,-11,-7,19,-26,-18,-1,8,12,18
4,21,16,-12,-6,19,-26,-17,-1,9,13,18
3,20,16,-11,-6,18,-26,-18,-1,9,13,17
3,19,16,-11,-7,18,-26,-18,-1,9,13,18
3,19,16,-11,-7,18,-26,-18,-1,10,14,18
3,19,16,-11,-7,18,-26,-18,-1,10,14,18
2,18,16,-10,-7,17,-27,-19,-2,10,14,17
0,17,16,-9,-8,17,-27,-19,-3,9,13,16
2,19,17,-10,-8,18,-26,-18,-3,9,13,16
3,20,17,-12,-7,19,-26,-17,-2,9,14,17
3,20,16,-11,-6,19,-26,-18,-2,9,14,17
2,19,16,-10,-7,18,-27,-18,-3,9,14,17
2,19,16,-10,-7,18,-27,-18,-3,9,13,17
3,20,16,-11,-7,18,-26,-18,-3,10,14,18
2,19,17,-11,-7,18,-27,-19,-4,10,14,17
0,17,17,-9,-8,17,-28,-20,-6,9,14,17
0,18,17,-9,-8,18,-28,-20,-6,8,14,17
2,20,17,-11,-8,19,-27,-20,-6,9,15,18
2,20,18,-11,-8,20,-27,-20,-7,8,15,18
1,19,18,-10,-9,19,-27,-20,-8,7,13,17
1,19,17,-10,-9,19,-27,-21,-9,7,13,17
1,19,17,-11,-8,19,-27,-21,-9,8,13,18
1,19,18,-10,-9,19,-27,-21,-10,8,13,18
-1,17,18,-8,-10,18,-27,-22,-11,7,12,17
-1,16,17,-8,-10,17,-28,-23,-12,7,12,16
0,18,17,-9,-9,18,-28,-23,-13,7,13,16
0,19,17,-10,-9,18,-28,-23,-14,7,13,16
0,18,18,-9,-10,18,-28,-24,-15,6,12,16
-1,17,18,-9,-10,18,-29,-25,-17,5,11,15
-1,18,18,-9,-10,18,-29,-25,-18,4,12,16
-1,18,19,-9,-10,19,-29,-26,-19,4,12,16
-2,17,19,-8,-11,18,-30,-28,-21,3,11,15
-4,15,19,-6,-11,18,-31,-29,-23,1,11,14
-3,17,20,-7,-11,19,-30,-30,-24,1,11,15
-2,19,20,-9,-11,20,-30,-30,-26,1,12,15
-3,18,21,-8,-12,20,-31,-31,-28,0,11,14
-4,17,21,-7,-13,20,-32,-33,-30,-1,10,14
-5,17,21,-6,-13,20,-32,-34,-31,-2,10,15
-4,18,22,-6,-14,20,-33,-35,-33,-2,9,15
-5,17,22,-5,-14,20,-33,-36,-36,-3,8,15
-7,15,22,-3,-15,19,-34,-38,-39,-5,7,13
-7,16,23,-4,-15,20,-34,-39,-41,-6,7,13
-6,18,24,-5,-15,22,-34,-40,-43,-6,8,13
-7,18,24,-5,-16,22,-35,-41,-45,-7,8,13
-9,17,25,-4,-17,21,-35,-43,-48,-8,6,12
-10,16,26,-3,-19,22,-36,-44,-51,-9,5,12
-10,17,27,-3,-19,22,-36,-45,-54,-10,5,12
-11,17,28,-2,-19,22,-36,-46,-57,-10,5,11
-13,15,28,0,-21,22,-36,-48,-60,-12,3,10
-14,14,28,0,-21,22,-37,-50,-63,-14,3,10
-12,16,28,-2,-21,23,-37,-51,-66,-15,3,11
-12,17,29,-3,-21,24,-37,-51,-68,-15,3,11
-14,16,30,-1,-22,24,-38,-52,-71,-17,2,11
-15,15,30,0,-24,24,-38,-53,-74,-18,1,10
-15,15,31,0,-24,24,-37,-54,-77,-19,1,10
-15,16,31,0,-24,24,-37,-55,-79,-19,2,10
-17,15,32,1,-25,24,-37,-57,-82,-21,1,10
-18,14,32,3,-26,23,-37,-58,-85,-22,0,9
-18,15,33,2,-26,24,-37,-58,-87,-23,0,9
-17,16,33,0,-25,25,-37,-58,-89,-23,1,9
-18,16,33,0,-26,25,-37,-58,-91,-24,1,9
-19,15,34,1,-27,25,-37,-59,-94,-25,0,8
-20,15,34,2,-27,25,-36,-59,-95,-25,0,8
-20,15,35,2,-28,26,-36,-58,-97,-24,0,8
-21,15,35,3,-28,26,-36,-59,-98,-24,0,8
-23,13,35,5,-29,25,-36,-60,-100,-25,-1,7
-23,13,36,5,-29,25,-35,-60,-102,-26,-1,7
-22,15,36,3,-29,26,-34,-60,-104,-25,0,8
-21,16,37,2,-29,26,-35,-60,-106,-25,0,8
-22,15,37,3,-30,26,-35,-61,-108,-26,0,8
-23,14,37,4,-31,26,-35,-61,-110,-26,-1,7
-23,14,37,4,-31,27,-34,-60,-111,-26,-1,7
-23,14,37,4,-31,27,-33,-60,-112,-26,-1,7
-25,12,37,6,-31,26,-34,-61,-113,-26,-1,7
-26,12,37,7,-31,25,-34,-61,-115,-26,-2,6
-24,14,37,5,-31,26,-33,-61,-115,-25,-1,6
-23,15,38,4,-30,27,-33,-60,-115,-24,0,7
-24,14,38,4,-31,26,-34,-60,-116,-24,0,6
-25,13,38,5,-31,26,-34,-61,-118,-24,0,6
-24,13,38,5,-31,26,-33,-60,-118,-23,1,7
-23,14,38,4,-31,26,-33,-59,-118,-22,1,7
-24,13,38,5,-31,26,-33,-59,-119,-22,1,7
-25,12,38,7,-31,25,-33,-59,-119,-22,0,6
-24,13,37,5,-31,25,-32,-58,-118,-22,1,6
-22,15,37,3,-30,26,-32,-57,-117,-20,2,7
-22,15,37,3,-30,26,-32,-56,-117,-20,2,7
-22,14,37,3,-30,26,-32,-56,-116,-20,1,7
-22,14,37,3,-29,26,-31,-56,-116,-19,2,8
-20,14,36,3,-28,25,-30,-54,-114,-18,3,8
-20,14,35,3,-27,25,-30,-52,-113,-18,4,8
-21,12,34,5,-27,23,-30,-52,-112,-18,4,7
-21,12,34,4,-27,23,-29,-51,-111,-18,4,7
-18,14,33,2,-25,24,-27,-49,-108,-17,5,8
-17,15,32,1,-24,23,-26,-47,-106,-16,6,9
-17,14,31,1,-24,22,-26,-46,-105,-16,5,9
-17,13,30,1,-24,22,-26,-45,-103,-15,5,9
-15,14,29,0,-22,22,-24,-42,-99,-14,6,10
-14,14,28,0,-21,22,-23,-40,-96,-13,6,10
-14,12,27,1,-20,20,-23,-39,-93,-13,6,10
-13,12,26,1,-19,19,-23,-37,-91,-13,6,9
-10,14,25,-2,-17,20,-22,-35,-88,-12,7,9
-8,15,24,-4,-16,20,-21,-33,-84,-11,8,10
-7,14,23,-3,-15,19,-22,-32,-81,-10,8,9
-7,14,22,-3,-15,18,-22,-31,-78,-10,8,9
-5,14,20,-4,-13,17,-22,-30,-74,-9,9,9
-3,15,18,-5,-11,17,-21,-27,-70,-8,10,10
-2,14,17,-5,-10,16,-20,-26,-66,-7,10,10
-2,13,16,-5,-9,15,-21,-25,-62,-6,10,10
0,14,15,-7,-8,15,-20,-23,-57,-4,11,10
3,16,15,-9,-6,16,-19,-21,-53,-2,13,11
4,16,14,-10,-5,15,-18,-19,-49,0,14,11
3,15,13,-9,-5,14,-18,-18,-45,0,14,11
4,15,13,-10,-5,14,-17,-17,-41,1,14,11
5,16,12,-11,-4,15,-17,-16,-37,2,14,12
5,16,12,-11,-3,15,-16,-15,-34,3,14,12
4,15,12,-10,-3,14,-17,-15,-31,4,14,12
5,16,11,-10,-2,13,-17,-14,-27,4,14,12
8,18,10,-13,-1,14,-15,-12,-23,6,16,12
9,18,9,-14,0,13,-15,-11,-20,7,17,12
9,16,8,-13,0,12,-15,-11,-17,7,16,11
9,15,7,-12,1,11,-15,-10,-15,7,16,11
10,15,6,-12,2,11,-15,-9,-12,8,16,11
11,15,5,-12,3,10,-15,-8,-9,8,16,11
9,13,4,-11,3,9,-15,-7,-7,8,15,10
9,11,3,-10,3,7,-16,-7,-5,8,14,9
11,12,2,-12,4,7,-15,-5,-3,8,14,9
12,13,2,-13,5,7,-14,-4,0,9,15,9
11,12,1,-11,4,6,-14,-3,1,8,15,8
9,10,1,-10,4,5,-13,-3,1,8,14,8
9,9,0,-9,4,5,-12,-2,2,8,14,8
9,9,0,-9,4,5,-11,-1,4,8,14,8
8,7,0,-7,4,4,-11,0,5,8,13,7
6,5,0,-5,3,3,-11,0,6,8,12,5
6,6,0,-5,3,3,-10,1,7,8,12,5
8,7,0,-7,4,3,-8,3,9,8,13,6
8,7,0,-7,4,3,-8,4,10,8,13,5
6,5,-1,-5,3,2,-8,4,11,8,12,5
6,5,-1,-5,3,1,-7,4,11,8,11,4
6,5,0,-5,4,2,-7,4,12,8,11,4
5,5,0,-5,3,2,-7,4,12,7,11,4
3,2,-1,-3,3,1,-7,4,12,7,10,3
3,2,-1,-3,3,0,-7,4,12,6,10,2
6,4,-1,-5,4,1,-7,5,13,7,11,3
7,5,-1,-6,4,2,-7,6,13,7,12,4
6,4,-1,-5,3,1,-7,6,14,7,11,3
5,4,-2,-4,3,1,-7,6,14,7,11,3
6,4,-2,-5,4,1,-7,6,14,7,11,4
6,4,-1,-5,4,2,-7,7,15,8,11,4
4,3,-2,-3,3,1,-8,6,14,7,11,4
3,1,-2,-2,3,0,-8,5,14,7,10,3
5,3,-2,-4,4,1,-8,6,14,7,11,4
6,4,-2,-5,4,1,-8,6,14,7,12,4
6,4,-2,-5,4,1,-8,6,14,6,12,4
5,3,-2,-4,3,0,-8,6,13,6,11,4
5,3,-2,-4,3,1,-9,5,13,6,11,4
5,4,-1,-5,4,1,-8,5,14,6,12,5
4,3,-1,-4,3,1,-9,4,13,5,11,5
2,1,-1,-2,2,0,-10,3,13,4,10,4
3,2,-1,-3,2,1,-10,3,13,4,11,4
6,5,-1,-5,3,2,-9,4,14,5,12,5
6,5,-1,-5,3,2,-9,4,14,5,13,5
5,4,-1,-4,3,1,-10,3,13,5,12,5
5,4,-1,-4,3,1,-10,3,13,5,12,5
5,4,-1,-5,3,2,-10,3,13,5,13,5
5,3,-1,-4,3,2,-10,3,13,5,13,5
3,1,-1,-2,2,1,-10,2,13,5,12,5
3,1,-1,-2,2,0,-10,2,13,4,11,5
6,4,-1,-5,3,1,-9,3,13,5,12,6
7,5,-1,-6,3,2,-9,4,14,5,13,6
5,4,-1,-5,3,1,-9,3,13,4,12,6
4,3,-1,-4,2,1,-10,2,13,4,12,6
4,4,0,-4,2,2,-9,2,13,4,12,6
4,4,0,-5,2,2,-9,2,13,4,13,7
3,3,0,-3,1,2,-10,1,12,3,12,6
1,2,1,-2,0,2,-11,0,10,2,11,6
3,4,1,-3,0,3,-11,1,10,1,12,7
4,6,2,-5,1,4,-10,1,9,1,13,8
4,6,1,-5,1,4,-10,1,8,0,13,8
3,4,1,-4,1,3,-10,1,7,-1,13,7
3,4,0,-4,1,2,-9,1,6,-1,13,8
4,4,0,-4,2,2,-8,2,5,-2,13,9
4,2,-1,-3,3,1,-7,2,4,-3,13,9
2,0,-2,-1,2,0,-6,3,3,-5,13,8
3,0,-3,-1,3,-2,-4,5,3,-4,13,8
5,0,-5,-2,5,-2,-2,9,5,-2,15,9
7,-1,-8,-2,7,-4,0,10,8,0,16,10
8,-3,-11,-2,9,-7,0,12,10,2,17,10
10,-4,-14,-3,11,-8,1,15,13,7,20,11
14,-4,-17,-4,15,-10,3,18,18,14,23,13
16,-4,-20,-6,18,-12,4,22,23,22,26,14
18,-6,-24,-5,21,-15,4,24,29,30,28,14
20,-8,-29,-5,25,-18,6,28,37,41,31,14
25,-9,-35,-7,30,-22,10,36,48,53,34,13
28,-12,-41,-7,34,-26,13,43,59,64,36,12
30,-18,-48,-5,38,-33,16,50,71,74,36,8
32,-24,-57,-4,44,-40,21,59,85,82,34,3
36,-31,-67,-3,51,-48,27,70,101,89,32,-2
38,-38,-77,0,58,-57,33,81,117,91,27,-8
39,-49,-88,4,63,-68,39,91,132,86,20,-17
39,-59,-98,9,68,-78,45,102,147,78,11,-25
43,-65,-109,11,76,-87,51,114,161,69,3,-33
48,-71,-119,11,83,-94,54,125,174,59,-4,-40
50,-78,-128,13,89,-103,56,133,185,47,-12,-47
52,-84,-136,16,93,-110,57,139,195,35,-20,-54
54,-88,-142,17,97,-114,58,145,204,24,-27,-59
55,-91,-146,17,100,-118,59,151,212,15,-32,-64
54,-95,-149,20,101,-121,60,157,218,6,-38,-69
52,-99,-151,23,102,-125,61,160,224,-2,-43,-74
53,-100,-152,23,103,-126,61,164,230,-8,-47,-76
56,-98,-153,21,105,-125,60,166,234,-13,-48,-77
57,-96,-153,20,105,-124,58,166,237,-17,-49,-78
56,-95,-150,20,102,-122,56,164,237,-19,-50,-78
55,-92,-146,19,100,-119,54,160,236,-20,-49,-77
55,-88,-142,17,98,-115,51,155,234,-20,-47,-75
54,-85,-137,15,95,-111,46,149,230,-21,-45,-73
51,-83,-132,15,91,-107,41,140,223,-21,-43,-70
49,-78,-127,14,87,-102,37,132,217,-20,-41,-67
49,-71,-121,11,85,-96,34,125,211,-18,-36,-62
49,-65,-115,8,82,-90,32,118,205,-17,-32,-58
47,-61,-108,7,77,-85,29,111,197,-17,-30,-55
44,-58,-101,7,72,-79,27,104,189,-16,-27,-51
42,-53,-94,5,68,-73,26,98,181,-14,-24,-47
40,-48,-87,3,63,-67,25,92,173,-12,-20,-42
34,-45,-78,4,56,-61,23,86,162,-12,-18,-38
28,-41,-69,6,49,-55,22,81,150,-13,-16,-34
25,-35,-60,5,43,-48,24,79,137,-13,-12,-28
22,-29,-51,3,37,-40,27,77,125,-12,-8,-23
18,-24,-42,3,30,-34,31,76,112,-12,-5,-18
13,-21,-34,4,23,-28,36,74,98,-12,-3,-14
8,-18,-25,5,16,-22,40,71,85,-12,-1,-10
4,-15,-18,5,10,-16,44,68,73,-12,1,-6
-1,-13,-11,7,5,-12,46,66,62,-11,4,-2
-6,-12,-6,9,0,-9,49,64,52,-11,5,0
-8,-9,-2,8,-3,-6,52,62,43,-10,7,3
-8,-6,1,7,-5,-2,56,62,36,-9,9,6
-10,-5,4,8,-7,0,60,60,28,-9,10,7
-13,-5,6,9,-10,0,64,58,21,-9,10,8
-14,-5,9,10,-12,2,69,57,15,-9,10,9
-15,-4,11,9,-14,4,73,58,11,-9,10,10
-16,-4,12,10,-15,5,77,58,7,-9,9,10
-19,-6,13,12,-16,4,81,58,3,-10,8,9
-20,-7,14,13,-17,4,84,57,0,-11,7,9
-19,-5,14,12,-16,5,88,56,-3,-11,8,10
-18,-3,14,10,-16,6,92,54,-5,-11,8,10
-19,-3,15,11,-18,6,96,52,-8,-12,8,10
-20,-4,16,12,-19,6,99,50,-10,-13,8,10
-20,-3,17,12,-19,6,101,46,-12,-13,8,11
-19,-2,17,10,-18,7,100,43,-13,-13,8,11
-19,-2,17,10,-18,8,95,38,-14,-13,8,12
-19,-2,17,10,-18,8,87,34,-15,-13,8,12
-16,1,18,7,-17,9,77,31,-14,-12,10,14
-12,6,18,2,-15,11,68,28,-12,-9,13,16
-10,8,18,0,-14,12,57,24,-11,-7,14,17
-9,9,18,0,-14,13,45,19,-11,-6,15,17
-7,11,18,-2,-13,14,34,14,-10,-4,15,18
-5,12,18,-4,-12,15,26,11,-9,-3,16,19
-4,12,18,-4,-11,15,18,6,-8,-3,16,20
-4,12,18,-4,-11,15,10,1,-8,-4,16,19
-3,13,18,-6,-10,16,4,-3,-8,-3,17,20
0,17,18,-9,-9,18,0,-6,-8,-2,19,22
0,19,18,-10,-9,19,-4,-9,-8,-2,19,22
0,18,18,-9,-10,18,-6,-12,-9,-2,18,22
-1,17,18,-8,-10,18,-8,-13,-9,-2,18,22
0,18,18,-9,-10,18,-9,-14,-8,-1,18,22
0,18,18,-9,-10,18,-10,-15,-7,0,19,23
-1,16,18,-7,-10,18,-11,-17,-7,-1,18,22
-2,15,18,-7,-10,17,-12,-18,-8,-1,17,22
0,17,18,-9,-9,18,-12,-18,-8,0,18,23
1,19,18,-10,-8,19,-12,-18,-8,0,18,23
1,19,18,-10,-8,18,-12,-19,-9,0,18,23
0,18,18,-9,-9,18,-12,-20,-10,-1,17,22
0,18,18,-9,-9,18,-12,-21,-10,-1,17,22
0,18,18,-10,-9,19,-11,-21,-9,0,18,22
0,17,18,-9,-9,18,-12,-22,-9,0,17,22
-1,16,17,-8,-9,17,-13,-22,-9,0,16,21
0,16,17,-9,-9,17,-13,-21,-9,0,16,21
2,19,17,-11,-8,18,-12,-20,-8,0,17,22
3,20,17,-11,-7,18,-12,-20,-9,0,16,22
2,19,17,-10,-8,17,-13,-21,-10,0,15,21
1,18,17,-8,-8,17,-13,-22,-10,0,15,20
1,17,17,-8,-8,17,-13,-23,-10,1,15,20
0,17,17,-8,-9,18,-12,-23,-10,1,15,20
-1,15,17,-7,-9,17,-13,-24,-11,1,14,20
-1,16,17,-8,-9,17,-14,-25,-11,1,13,20
1,18,17,-10,-8,18,-12,-24,-11,1,14,21
2,19,18,-11,-8,19,-11,-23,-12,1,14,21
0,18,18,-9,-9,18,-10,-24,-13,1,13,20
0,18,18,-8,-9,18,-10,-25,-13,0,12,20
0,18,18,-9,-9,18,-10,-25,-13,1,11,20
0,18,18,-9,-9,18,-11,-25,-13,2,11,20
-1,16,18,-7,-9,17,-12,-26,-13,2,10,19
-2,14,17,-6,-10,16,-14,-28,-14,2,9,18
0,16,17,-8,-9,17,-13,-27,-14,2,9,18
1,18,17,-10,-8,18,-12,-26,-14,3,10,19
0,18,18,-9,-9,18,-12,-26,-16,2,9,19
0,18,18,-8,-9,18,-12,-28,-18,1,8,19
0,18,18,-9,-9,18,-12,-28,-18,1,8,19
0,19,19,-10,-9,19,-12,-28,-18,1,9,20
0,18,19,-9,-10,19,-13,-29,-19,0,9,19
-3,15,19,-6,-11,17,-14,-31,-21,0,8,18
-3,15,19,-6,-11,17,-13,-31,-22,0,8,18
-1,17,19,-8,-11,18,-13,-31,-22,0,9,19
-1,18,19,-8,-11,18,-12,-31,-24,0,9,19
-2,18,20,-8,-12,19,-12,-32,-26,-1,8,18
-3,18,20,-7,-12,19,-12,-33,-27,-2,8,18
-3,18,21,-7,-12,20,-12,-34,-28,-2,8,18
-3,17,21,-7,-12,19,-13,-34,-29,-2,8,17
-4,15,21,-5,-12,18,-15,-36,-31,-3,7,16
-5,14,21,-5,-12,18,-16,-37,-33,-3,7,16
-3,17,21,-7,-12,19,-16,-37,-33,-3,7,17
-2,18,21,-8,-11,19,-16,-38,-34,-3,6,17
-3,17,20,-6,-12,18,-17,-40,-37,-4,3,16
-5,16,20,-5,-13,18,-17,-41,-39,-6,0,15
-5,16,21,-5,-13,19,-17,-42,-41,-7,-1,15
-5,16,22,-5,-14,20,-17,-43,-44,-8,-2,16
-7,15,24,-4,-15,20,-18,-45,-47,-9,-4,15
-9,14,25,-3,-16,20,-19,-47,-49,-10,-6,15
-9,16,25,-4,-17,21,-19,-47,-50,-10,-6,15
-8,18,26,-5,-17,22,-18,-47,-51,-10,-7,15
-10,18,27,-3,-18,22,-18,-49,-54,-12,-9,14
-11,17,27,-2,-19,21,-19,-51,-57,-13,-11,13
-10,16,26,-2,-18,21,-20,-54,-60,-14,-13,13
-10,16,26,-2,-18,21,-21,-55,-62,-15,-13,13
-11,15,27,-2,-19,21,-21,-56,-65,-16,-14,12
-14,14,29,0,-21,21,-22,-57,-68,-18,-16,11
-15,15,30,0,-22,22,-22,-59,-71,-19,-16,11
-13,17,31,-2,-22,24,-22,-60,-73,-20,-16,12
-13,18,31,-2,-23,25,-22,-61,-76,-21,-16,12
-15,17,32,0,-24,24,-23,-63,-80,-22,-18,11
-16,16,33,0,-25,24,-23,-64,-83,-23,-18,11
-16,16,33,0,-25,25,-22,-65,-84,-23,-18,11
-17,16,34,1,-25,25,-21,-65,-86,-24,-18,10
-19,13,35,3,-27,24,-23,-67,-89,-25,-19,9
-21,12,35,4,-28,24,-23,-68,-91,-25,-19,9
-19,15,36,2,-28,25,-23,-68,-93,-25,-19,9
-19,16,36,1,-28,26,-23,-69,-95,-25,-18,10
-20,16,36,2,-28,26,-23,-70,-97,-26,-19,9
-20,15,36,2,-28,25,-23,-71,-99,-27,-19,8
-20,16,36,2,-28,26,-22,-71,-101,-27,-18,8
-20,16,37,2,-29,27,-21,-71,-103,-27,-17,9
-23,14,38,4,-30,26,-21,-72,-105,-28,-18,8
-25,12,39,6,-32,26,-21,-73,-108,-29,-19,7
-25,13,39,5,-32,26,-20,-73,-109,-29,-18,7
-23,15,39,4,-31,27,-20,-72,-111,-28,-17,7
-24,15,39,4,-31,27,-19,-72,-113,-28,-16,7
-24,15,39,5,-31,26,-20,-72,-115,-28,-16,7
-24,15,39,5,-31,26,-19,-72,-116,-28,-15,7
-23,15,39,4,-31,27,-19,-72,-117,-27,-14,7
-25,14,40,5,-32,27,-19,-72,-118,-27,-13,7
-27,12,41,8,-34,26,-20,-72,-120,-28,-14,6
-28,12,41,8,-34,26,-19,-72,-121,-28,-14,6
-27,13,41,6,-34,27,-18,-72,-121,-27,-13,6
-27,13,40,6,-34,27,-18,-72,-123,-28,-12,6
-27,12,40,7,-34,26,-18,-73,-125,-29,-12,5
-27,13,40,7,-34,26,-18,-74,-126,-29,-12,5
-25,14,40,5,-33,27,-18,-74,-126,-29,-10,6
-25,14,40,5,-33,27,-19,-74,-127,-28,-9,6
-27,13,41,7,-34,27,-19,-75,-128,-28,-10,6
-28,12,41,7,-34,27,-18,-74,-128,-28,-10,5
-25,14,40,5,-33,28,-17,-73,-128,-27,-9,6
-24,16,40,4,-33,28,-17,-72,-127,-26,-7,7
-25,15,40,5,-33,28,-17,-71,-127,-26,-7,6
-25,14,40,6,-33,27,-17,-71,-127,-25,-6,6
-24,14,40,5,-33,27,-17,-70,-126,-24,-5,6
-24,14,39,5,-32,27,-16,-69,-125,-24,-4,6
-25,12,39,6,-32,26,-16,-69,-124,-24,-5,5
-27,10,38,8,-32,24,-16,-68,-123,-24,-5,4
-25,12,38,6,-31,24,-15,-66,-122,-24,-4,4
-22,13,37,4,-29,25,-15,-65,-120,-23,-2,5
-22,13,36,4,-28,24,-15,-65,-119,-22,-1,5
-22,13,35,5,-28,24,-14,-64,-118,-22,-1,4
-22,13,35,4,-28,24,-12,-62,-115,-21,0,5
-20,14,35,3,-27,24,-11,-60,-112,-20,1,6
-19,13,33,3,-26,24,-11,-59,-110,-19,2,6
-19,11,32,3,-26,22,-11,-58,-108,-19,2,5
-17,12,30,2,-24,21,-11,-55,-105,-18,2,4
-14,14,29,0,-21,21,-10,-53,-102,-17,3,5
-12,15,28,-1,-20,21,-10,-51,-99,-16,4,5
-13,14,28,-1,-20,21,-9,-50,-96,-15,4,4
-13,14,27,0,-20,20,-8,-48,-94,-15,5,4
-12,14,26,-1,-19,20,-7,-46,-90,-14,6,4
-11,14,24,-1,-17,19,-7,-44,-86,-14,7,4
-11,12,23,-1,-16,18,-7,-43,-83,-13,7,4
-10,11,21,-1,-15,17,-7,-42,-79,-11,7,3
-6,14,20,-4,-12,17,-7,-40,-74,-9,9,4
-2,16,19,-7,-10,17,-6,-38,-70,-6,11,5
-1,16,18,-7,-9,17,-6,-36,-66,-5,12,5
-1,15,17,-7,-9,16,-6,-35,-63,-4,13,4
-1,15,16,-7,-8,16,-5,-33,-59,-3,14,4
0,15,16,-7,-8,16,-3,-32,-55,-2,15,4
-1,14,15,-7,-8,15,-2,-31,-52,-1,15,4
-2,13,15,-5,-8,15,-2,-30,-49,-1,15,3
-1,14,15,-6,-8,15,-1,-28,-45,0,16,3
1,16,14,-9,-6,15,0,-26,-41,1,18,4
2,16,14,-10,-5,15,1,-24,-38,2,18,4
3,15,13,-9,-4,13,1,-22,-35,3,18,3
4,15,11,-9,-3,12,0,-21,-32,3,19,3
5,15,10,-10,-1,12,1,-21,-29,4,20,3
5,14,9,-10,-1,11,1,-21,-27,5,19,2
3,11,8,-8,-2,10,0,-20,-26,4,18,1
4,11,7,-8,-1,10,0,-18,-23,5,18,0
7,13,6,-10,1,10,1,-16,-21,6,19,0
8,13,5,-11,2,9,1,-14,-18,6,20,0
7,11,5,-9,1,7,1,-14,-17,6,19,-1
6,9,4,-7,1,6,2,-13,-15,5,19,-2
6,9,4,-7,1,6,4,-11,-14,5,19,-3
6,8,3,-7,2,6,5,-10,-12,5,19,-3
4,7,3,-6,1,5,5,-9,-11,5,18,-4
2,5,3,-4,0,5,6,-8,-11,4,18,-5
3,6,3,-5,0,5,7,-7,-10,5,18,-5
4,6,3,-6,1,5,8,-6,-9,5,19,-5
3,5,2,-5,1,4,7,-6,-8,5,19,-6
2,4,2,-4,0,3,7,-7,-8,5,18,-7
1,4,3,-3,0,4,8,-5,-6,5,18,-7
2,5,3,-3,0,4,10,-3,-5,5,19,-7
1,4,2,-2,0,3,10,-3,-4,5,18,-8
0,2,1,-1,0,2,9,-3,-4,5,18,-9
0,3,1,-2,0,2,9,-2,-3,5,18,-10
2,4,1,-4,0,3,9,-1,-2,6,19,-10
2,4,1,-3,0,3,9,-1,-1,6,19,-11
1,2,1,-2,0,1,8,-2,-1,6,19,-12
1,2,1,-2,0,1,8,-2,-1,6,19,-13
2,2,1,-2,1,1,9,-1,0,6,20,-12
1,2,0,-1,1,0,9,-1,0,6,21,-13
0,0,0,0,0,0,9,-1,0,5,20,-13
0,0,0,0,0,0,10,0,1,5,20,-13
1,2,0,-2,0,1,12,1,3,6,22,-13
2,3,0,-3,1,2,12,2,3,7,22,-13
2,2,0,-2,1,1,12,2,3,7,22,-14
1,1,0,-1,1,0,12,2,4,6,21,-14
1,1,0,-2,1,1,12,2,4,6,22,-14
1,1,0,-2,2,1,12,2,5,6,22,-14
0,0,0,0,1,0,12,1,4,6,21,-15
-1,-1,0,1,0,0,11,1,3,6,20,-15
0,0,0,0,0,0,12,1,4,6,21,-15
1,2,0,-2,1,1,12,2,5,7,22,-15
1,1,0,-1,1,0,11,2,5,7,22,-15
0,0,0,0,0,0,11,1,4,6,21,-16
0,0,0,0,0,0,11,1,4,6,21,-16
1,0,-1,-1,1,0,12,2,5,7,22,-15
0,-1,-1,0,0,0,12,2,5,6,21,-16
-2,-3,-1,2,0,-1,11,1,4,6,20,-17
-1,-2,-1,1,0,-1,12,2,4,6,20,-17
1,0,-1,0,1,0,12,3,5,6,21,-16
1,0,-1,-1,1,0,12,3,5,6,21,-17
0,-1,-1,0,0,-1,12,2,4,6,21,-18
0,-1,-1,0,0,-1,12,2,4,6,21,-18
0,0,-1,0,1,-1,12,2,4,6,21,-17
0,-1,-1,0,1,-1,12,2,4,6,21,-17
-2,-3,-1,2,0,-1,11,1,3,5,20,-18
-2,-3,-1,2,0,-1,11,1,3,5,20,-18
0,0,0,0,0,0,12,2,4,6,21,-17
0,1,0,-1,0,1,12,2,4,6,21,-17
0,0,0,0,0,0,12,2,3,5,21,-18
-1,0,0,0,-1,0,12,1,2,4,20,-18
0,0,0,0,0,0,12,2,1,3,20,-18
0,-1,0,1,0,0,13,2,1,2,20,-18
-1,-3,-1,2,0,-2,14,2,0,1,20,-18
-2,-5,-3,4,0,-4,14,2,0,0,19,-19
-1,-5,-4,3,1,-4,16,3,0,0,20,-18
1,-5,-6,2,3,-5,18,6,1,1,21,-18
1,-8,-9,3,4,-8,20,9,2,2,21,-18
1,-10,-11,4,5,-11,21,11,4,4,21,-19
3,-11,-13,4,8,-12,23,14,7,8,22,-18
6,-11,-16,2,11,-13,24,16,11,13,25,-16
7,-12,-19,2,14,-15,25,19,16,20,27,-16
8,-15,-23,2,16,-18,25,21,22,29,30,-16
12,-15,-27,1,20,-20,27,25,29,39,33,-15
16,-14,-31,-2,24,-22,29,30,37,50,37,-14
19,-16,-37,-2,27,-26,31,36,46,62,40,-15
21,-21,-43,0,31,-32,34,42,56,72,40,-17
23,-25,-50,0,35,-38,38,49,68,82,40,-20
27,-30,-58,1,41,-44,43,57,82,92,40,-24
29,-38,-67,4,48,-53,48,67,98,99,38,-29
30,-48,-78,8,54,-63,54,78,113,101,32,-36
32,-57,-88,12,60,-73,60,90,128,97,24,-44
35,-63,-99,14,67,-81,68,103,143,90,16,-52
38,-71,-109,16,73,-89,73,114,157,80,8,-60
39,-79,-118,20,78,-99,77,123,168,69,-1,-68
41,-87,-127,23,83,-107,79,131,177,57,-11,-76
43,-92,-134,25,88,-113,81,138,186,45,-19,-82
44,-96,-140,26,92,-118,82,144,195,33,-26,-87
44,-101,-145,28,95,-123,83,149,202,22,-33,-93
43,-106,-149,31,96,-127,84,154,208,13,-40,-98
45,-107,-152,31,98,-129,85,159,213,5,-45,-102
46,-107,-153,30,99,-130,87,164,218,-1,-48,-105
46,-107,-154,31,99,-130,86,166,221,-7,-52,-107
45,-108,-153,31,98,-130,85,166,223,-12,-54,-109
45,-106,-151,30,97,-128,83,165,224,-14,-55,-108
45,-102,-147,28,96,-124,79,161,223,-15,-54,-105
44,-99,-143,27,94,-121,74,156,220,-16,-54,-103
42,-97,-138,27,91,-117,69,148,214,-17,-54,-102
41,-92,-133,25,88,-112,64,141,208,-17,-52,-99
42,-85,-128,21,85,-106,60,133,202,-15,-49,-94
42,-80,-122,19,81,-100,55,125,195,-13,-47,-89
40,-76,-116,18,77,-95,51,118,189,-13,-46,-86
38,-72,-110,17,73,-90,48,111,182,-12,-44,-82
37,-66,-103,15,70,-85,46,104,175,-10,-42,-77
35,-61,-96,14,66,-79,44,97,167,-9,-41,-73
31,-58,-89,14,61,-73,41,90,159,-7,-40,-69
28,-54,-81,13,55,-67,40,84,151,-6,-40,-64
27,-47,-72,10,50,-59,40,80,141,-5,-38,-59
24,-41,-64,8,44,-52,41,78,129,-4,-37,-53
19,-37,-56,9,37,-46,42,75,117,-5,-37,-49
14,-33,-48,10,30,-40,44,72,105,-5,-37,-44
9,-29,-39,10,24,-34,47,71,94,-5,-35,-39
5,-25,-31,10,18,-28,51,69,82,-5,-34,-35
-1,-24,-23,12,11,-24,54,67,70,-5,-33,-32
-6,-22,-16,14,5,-19,56,64,59,-5,-32,-29
-8,-19,-10,13,1,-14,60,64,51,-4,-30,-25
-9,-15,-5,12,-1,-10,63,64,43,-2,-26,-21
-11,-13,-2,12,-5,-8,66,63,36,-2,-20,-19
-14,-13,0,13,-8,-6,68,62,30,-1,-16,-17
-16,-12,3,14,-9,-5,72,61,25,-1,-16,-15
-16,-11,5,14,-10,-3,77,61,20,-1,-20,-14
-18,-12,6,15,-12,-3,81,61,14,-1,-25,-13
-21,-14,7,17,-13,-3,85,61,9,-2,-31,-13
-21,-14,8,17,-14,-3,89,62,6,-2,-34,-12
-20,-12,8,15,-14,-2,93,63,4,-1,-35,-10
-20,-11,9,15,-15,-1,97,63,2,-1,-36,-8
-22,-12,9,17,-16,-1,100,61,0,-1,-38,-8
-23,-12,10,18,-17,-1,103,59,-2,-1,-39,-8
-22,-11,10,17,-17,0,108,58,-4,-1,-39,-7
-23,-11,11,17,-17,0,111,55,-5,-1,-38,-7
-24,-13,11,18,-18,-1,111,51,-7,-1,-39,-7
-24,-13,12,18,-18,0,109,47,-9,-1,-38,-6
-21,-9,12,15,-17,2,104,44,-9,0,-36,-4
-18,-6,12,12,-16,4,96,41,-8,1,-33,-2
-17,-4,12,11,-16,4,85,36,-8,2,-31,-1
-16,-3,13,10,-15,5,73,31,-7,3,-29,-1
-14,0,13,8,-14,6,61,26,-6,4,-26,0
-11,2,14,5,-12,7,50,21,-5,6,-23,2
-11,3,14,4,-12,8,39,16,-5,7,-21,3
-11,3,14,4,-12,8,30,11,-5,7,-19,3
-8,6,14,1,-11,10,23,7,-4,9,-16,5
-5,9,14,-2,-10,11,17,4,-3,10,-13,6
-4,10,14,-3,-10,12,11,0,-2,11,-11,7
-4,10,14,-2,-10,12,6,-3,-2,11,-9,7
-4,10,14,-3,-9,12,2,-6,-1,11,-7,8
-3,11,14,-4,-8,12,0,-7,0,11,-5,9
-3,11,14,-3,-8,12,-2,-9,0,11,-4,9
-5,9,14,-2,-9,11,-4,-11,0,10,-4,9
-4,9,14,-3,-9,12,-5,-12,0,10,-4,9
-2,12,14,-5,-8,13,-6,-12,0,12,-2,11
-1,13,14,-6,-8,14,-7,-12,1,12,-2,11
-2,12,14,-5,-9,13,-8,-13,1,12,-3,11
-2,12,14,-5,-9,13,-9,-13,1,12,-3,11
-2,12,14,-5,-8,13,-9,-13,1,12,-3,11
-2,12,14,-5,-7,13,-9,-14,1,12,-3,11
-3,10,14,-4,-8,12,-9,-15,0,11,-4,11
-4,9,14,-3,-8,11,-10,-15,0,11,-4,11
-2,11,14,-5,-7,13,-10,-15,0,11,-3,12
0,13,14,-6,-7,14,-10,-14,1,12,-2,13
-1,13,14,-5,-7,13,-10,-14,1,12,-2,13
-2,12,14,-4,-8,12,-11,-15,1,12,-3,13
-1,12,14,-5,-7,12,-11,-14,1,12,-2,13
-1,13,14,-5,-7,13,-10,-14,1,12,-2,13
-2,12,14,-4,-7,12,-11,-15,0,11,-2,13
-3,10,14,-3,-7,12,-11,-16,0,10,-2,13
-3,11,14,-4,-7,13,-11,-16,0,10,-2,13
-1,13,14,-6,-7,14,-11,-15,0,11,-1,14
-1,14,14,-6,-7,14,-12,-15,0,11,-1,14
-2,13,14,-5,-8,13,-13,-16,-1,10,-2,14
-2,13,14,-5,-8,13,-13,-17,-1,10,-2,14
-1,13,14,-6,-8,13,-12,-17,-1,10,-1,14
-2,13,14,-5,-8,13,-12,-17,-2,10,-1,14
-3,11,14,-4,-8,13,-13,-18,-3,9,-2,14
-3,11,14,-4,-8,13,-13,-19,-3,9,-2,14
-2,13,14,-6,-8,15,-13,-18,-3,10,0,16
-1,14,15,-6,-8,15,-13,-18,-3,10,0,17
-2,14,15,-5,-9,15,-14,-18,-4,9,0,16
-2,13,15,-5,-9,14,-14,-19,-5,9,0,16
-2,14,15,-5,-8,15,-14,-19,-5,9,0,17
-1,14,16,-6,-8,15,-14,-19,-6,9,0,17
-3,12,16,-4,-9,14,-15,-20,-7,8,0,16
-4,11,16,-3,-10,14,-15,-21,-8,7,-1,16
-3,13,16,-5,-9,15,-15,-21,-8,7,0,17
-1,15,16,-6,-9,16,-15,-21,-8,7,0,17
-2,15,16,-6,-10,16,-16,-22,-10,6,0,17
-3,14,17,-5,-10,15,-17,-23,-11,6,-1,16
-3,14,17,-5,-10,15,-17,-23,-12,5,0,17
-3,15,18,-5,-10,16,-17,-24,-12,5,0,17
-5,14,18,-5,-11,16,-18,-25,-14,4,0,17
-7,12,18,-3,-12,15,-19,-27,-16,2,-1,16
-6,13,18,-4,-12,16,-19,-27,-17,2,-1,16
-4,16,19,-6,-11,18,-19,-27,-18,2,0,17
-4,16,19,-6,-12,18,-19,-28,-19,1,0,17
-6,16,20,-5,-13,17,-21,-30,-21,0,0,17
-6,16,20,-4,-13,17,-21,-31,-23,-1,0,17
-6,16,21,-5,-13,18,-21,-32,-24,-1,0,18
-6,16,22,-5,-14,19,-22,-33,-26,-2,0,18
-9,14,23,-3,-15,18,-23,-35,-29,-4,0,17
-9,14,23,-2,-15,18,-24,-37,-31,-5,-1,17
-8,16,23,-4,-15,20,-24,-38,-33,-5,0,18
-7,17,24,-4,-15,20,-24,-39,-35,-6,0,18
-9,16,24,-3,-17,20,-25,-41,-37,-8,0,17
-10,16,25,-3,-18,20,-26,-42,-40,-9,-1,17
-10,16,26,-3,-18,21,-26,-43,-42,-10,-1,17
-11,17,27,-3,-18,22,-27,-44,-45,-11,-1,17
-13,15,28,-1,-19,22,-28,-46,-48,-12,-2,17
-15,14,28,0,-21,22,-29,-48,-51,-14,-2,16
-14,16,29,-1,-21,23,-29,-49,-54,-14,-2,17
-13,17,30,-2,-21,24,-29,-50,-56,-15,-2,17
-14,17,31,-1,-23,24,-30,-52,-59,-16,-2,17
-15,16,31,0,-24,24,-31,-54,-62,-18,-3,16
-16,17,32,0,-24,24,-32,-55,-65,-19,-3,16
-17,17,33,0,-24,25,-32,-56,-67,-19,-3,17
-18,16,33,1,-25,25,-32,-57,-70,-21,-4,16
-20,14,34,3,-26,25,-32,-59,-73,-22,-5,15
-20,15,35,2,-27,25,-32,-60,-75,-23,-5,15
-18,17,35,0,-27,27,-32,-60,-77,-23,-5,16
-19,18,36,0,-28,27,-32,-61,-80,-23,-5,16
-21,17,37,1,-29,27,-33,-62,-83,-24,-5,16
-22,17,37,2,-29,27,-33,-63,-85,-25,-5,16
-21,17,37,2,-29,27,-32,-63,-87,-25,-4,16
-22,16,38,3,-30,27,-32,-64,-89,-25,-4,16
-24,14,38,4,-31,27,-33,-65,-92,-26,-4,16
-24,14,39,5,-31,27,-33,-66,-94,-26,-4,16
-23,16,39,3,-31,28,-32,-66,-96,-25,-3,17
-22,17,39,2,-31,29,-32,-66,-97,-25,-3,17
-23,17,39,3,-32,28,-32,-66,-100,-25,-3,17
-24,16,40,4,-32,28,-32,-67,-101,-26,-4,17
-24,17,40,4,-32,28,-32,-66,-102,-25,-3,17
-24,17,41,4,-32,28,-32,-66,-104,-25,-2,18
-26,15,41,5,-33,28,-32,-67,-106,-25,-3,17
-27,14,41,6,-34,28,-32,-67,-108,-25,-3,17
-26,15,41,5,-33,28,-32,-67,-109,-24,-3,18
-25,17,41,3,-33,29,-31,-66,-110,-24,-2,19
-25,17,42,4,-34,29,-32,-67,-111,-24,-2,19
-26,16,42,5,-34,29,-32,-67,-112,-24,-2,18
-26,16,42,5,-34,29,-32,-67,-112,-23,-2,18
-26,16,42,5,-33,29,-31,-67,-113,-23,-1,19
-27,15,42,5,-33,29,-31,-67,-115,-23,-1,19
-28,13,42,7,-34,28,-31,-67,-116,-23,-1,18
-27,14,42,6,-34,28,-31,-67,-116,-23,-1,19
-25,16,42,4,-33,29,-31,-66,-116,-22,0,20
-25,16,42,4,-33,29,-31,-65,-116,-21,0,20
-26,15,41,5,-34,28,-31,-65,-116,-22,0,19
-26,15,41,5,-33,27,-31,-65,-115,-22,0,19
-25,15,40,5,-32,27,-30,-64,-114,-21,0,19
-25,14,40,5,-32,27,-30,-64,-114,-21,1,20
-26,12,39,6,-32,26,-30,-63,-113,-21,0,19
-26,11,38,7,-31,25,-30,-62,-112,-20,0,19
-24,13,38,5,-30,25,-28,-61,-110,-19,1,20
-22,14,37,4,-29,25,-27,-59,-108,-18,2,20
-23,13,36,5,-30,24,-27,-58,-107,-18,2,19
-23,12,35,6,-30,24,-27,-58,-105,-18,2,19
-22,12,34,5,-28,23,-26,-56,-103,-17,2,19
-21,12,33,5,-27,23,-25,-54,-101,-16,3,19
-22,11,32,5,-26,21,-24,-52,-99,-16,3,18
-22,9,31,6,-25,20,-23,-51,-96,-16,3,18
-19,11,30,4,-24,20,-22,-48,-92,-15,4,18
-16,13,29,2,-22,21,-21,-45,-88,-13,5,19
-15,12,28,1,-21,20,-20,-43,-85,-13,5,19
-15,11,26,2,-21,19,-20,-42,-83,-13,4,18
-14,11,25,1,-20,18,-20,-41,-80,-13,5,18
-12,12,24,0,-18,18,-19,-39,-76,-12,6,19
-11,11,23,0,-17,17,-19,-37,-73,-11,6,18
-11,10,21,1,-16,15,-19,-37,-70,-10,5,17
-10,10,20,0,-14,15,-20,-35,-66,-9,6,17
-7,12,19,-2,-12,16,-19,-33,-61,-8,7,18
-5,13,17,-3,-11,15,-18,-31,-56,-6,8,18
-4,12,16,-3,-10,14,-18,-29,-52,-6,8,18
-4,12,16,-3,-9,14,-17,-27,-48,-4,9,18
-2,13,15,-4,-8,14,-16,-25,-43,-3,10,19
-1,13,14,-5,-7,14,-16,-24,-39,-2,11,19
-2,12,13,-4,-7,12,-16,-23,-36,-1,10,18
-1,11,13,-4,-7,11,-16,-22,-33,-1,10,17
1,13,12,-7,-6,12,-15,-21,-29,0,10,18
2,15,12,-9,-5,13,-14,-19,-24,2,11,19
2,14,11,-8,-5,12,-14,-18,-21,3,11,19
2,13,10,-8,-4,12,-13,-17,-18,3,11,18
3,13,10,-8,-3,12,-12,-16,-14,4,12,19
5,14,9,-9,-2,12,-12,-15,-11,5,13,19
4,13,9,-8,-2,11,-12,-14,-9,5,12,18
3,11,8,-7,-2,9,-13,-14,-7,5,11,17
5,12,6,-8,0,9,-12,-12,-4,5,12,17
7,13,5,-9,0,9,-12,-10,-1,6,12,17
7,12,4,-9,0,8,-12,-9,1,6,12,16
6,10,3,-7,0,7,-12,-9,2,5,12,15
5,9,3,-7,1,6,-11,-8,4,6,12,14
6,9,3,-7,2,6,-10,-6,6,6,12,14
5,8,2,-6,2,5,-9,-6,7,6,12,14
3,5,2,-4,1,4,-9,-5,8,5,11,13
3,5,1,-4,1,3,-9,-4,9,4,11,12
5,6,1,-6,2,4,-8,-3,11,5,11,12
5,6,1,-6,2,4,-7,-2,12,5,11,11
4,5,1,-4,1,3,-7,-1,12,4,10,9
3,4,1,-3,1,3,-7,-1,12,4,9,9
3,3,1,-3,1,3,-6,0,13,4,9,9
2,3,1,-3,1,2,-5,1,14,4,9,9
0,1,1,-1,0,1,-6,1,15,4,8,8
0,0,1,0,0,1,-6,1,15,3,8,8
1,1,1,-1,0,2,-6,2,17,4,8,8
2,2,0,-2,0,2,-5,3,18,4,10,9
1,1,0,-2,0,1,-5,3,18,4,10,8
0,0,0,-1,0,0,-5,3,17,3,9,8
0,0,0,-1,0,1,-4,3,17,3,9,8
1,1,0,-1,0,1,-4,3,18,3,10,8
0,0,0,0,0,1,-5,3,18,3,9,8
-2,-1,0,1,0,0,-5,2,18,3,8,8
-1,0,0,0,0,0,-5,3,19,4,8,8
1,1,0,-2,0,1,-5,4,20,4,9,9
1,1,0,-2,0,1,-5,4,20,4,9,8
0,1,0,-1,0,1,-6,3,19,2,9,8
0,1,0,-1,0,1,-7,3,19,2,9,8
1,1,0,-1,0,1,-7,3,19,2,10,8
0,1,0,-1,0,1,-7,2,19,2,10,7
-1,0,0,0,0,0,-7,1,19,2,9,6
-1,0,0,0,0,0,-8,1,19,2,8,6
1,1,0,-1,0,1,-7,2,19,3,9,7
1,2,0,-2,0,1,-7,3,20,3,10,7
0,1,0,-1,0,1,-8,2,19,2,10,7
0,0,0,-1,0,0,-8,2,19,2,9,7
1,1,0,-1,0,1,-8,2,19,2,10,7
1,1,0,-1,0,1,-8,2,19,2,10,8
0,0,0,0,0,0,-9,2,19,2,9,7
-1,-1,0,1,0,0,-10,1,18,2,8,7
0,1,0,-1,0,0,-9,2,18,3,9,8
2,2,0,-2,0,1,-9,2,19,3,10,8
1,2,0,-1,0,1,-10,2,19,3,10,7
0,1,0,-1,0,1,-11,2,18,3,9,7
0,1,0,-1,0,1,-10,2,18,2,8,7
1,1,0,-1,0,2,-10,2,18,2,9,7
0,0,0,0,0,1,-11,2,18,2,8,7
-1,-1,0,1,0,0,-11,1,17,2,7,7
-1,0,0,0,0,0,-11,1,17,2,8,7
0,2,0,-1,0,1,-10,2,17,2,9,8
0,2,1,-1,0,2,-10,2,17,2,9,8
0,2,1,-1,-1,2,-12,0,15,1,9,8
-1,2,2,0,-1,2,-12,0,14,1,9,8
-1,2,2,-1,-1,2,-12,0,14,1,9,8
-1,2,2,0,-1,2,-11,0,13,0,9,9
-2,0,2,1,-1,1,-12,0,11,-1,8,8
-2,-1,1,2,-1,0,-11,0,10,-2,8,8
0,0,1,0,0,0,-10,2,10,-2,9,9
1,0,0,-1,1,0,-9,3,9,-3,9,10
0,-1,-1,0,1,-1,-8,4,8,-4,9,9
0,-3,-3,1,1,-3,-7,5,7,-4,8,8
1,-4,-5,1,3,-4,-4,7,9,-3,9,9
3,-4,-8,0,5,-6,-3,10,11,-1,11,10
3,-6,-10,1,7,-8,-2,12,13,1,12,11
5,-8,-13,1,9,-10,-2,14,16,7,14,12
9,-7,-16,-1,13,-11,-1,17,21,14,17,13
14,-6,-19,-4,17,-13,0,21,28,23,21,15
16,-7,-23,-4,20,-15,1,25,34,32,24,15
18,-10,-28,-4,23,-19,3,29,42,42,25,13
21,-13,-34,-4,27,-24,6,35,52,53,27,12
24,-16,-40,-4,32,-28,9,43,64,65,28,11
25,-21,-47,-2,36,-34,13,50,76,74,28,8
26,-29,-56,1,41,-42,18,59,90,82,25,2
30,-35,-66,2,48,-50,24,70,106,88,22,-4
35,-41,-76,2,55,-58,31,82,123,89,18,-10
37,-49,-87,6,62,-68,37,94,138,84,11,-19
38,-59,-98,10,68,-79,43,105,153,75,1,-28
41,-68,-109,13,74,-89,47,116,167,66,-9,-36
43,-75,-119,15,81,-97,50,125,179,57,-18,-44
45,-82,-127,18,86,-104,52,133,190,46,-27,-52
46,-89,-135,21,90,-112,53,140,200,35,-36,-60
47,-94,-141,23,94,-118,55,147,210,24,-43,-66
50,-96,-146,22,98,-121,57,154,218,15,-48,-70
52,-98,-149,23,100,-124,59,159,225,7,-53,-75
51,-100,-151,25,101,-126,59,162,230,0,-58,-80
51,-102,-152,26,101,-127,58,164,235,-7,-62,-83
51,-101,-152,25,101,-127,57,166,239,-11,-64,-84
51,-99,-151,24,101,-125,55,166,242,-14,-65,-84
50,-98,-148,24,99,-124,52,163,242,-16,-66,-84
48,-97,-145,24,97,-121,48,159,241,-17,-66,-84
49,-92,-141,21,95,-117,45,154,238,-17,-64,-82
50,-86,-136,18,93,-112,41,148,234,-17,-61,-79
49,-82,-130,17,89,-106,35,139,228,-17,-59,-76
46,-78,-124,16,85,-101,30,130,221,-16,-57,-73
45,-73,-118,14,81,-95,26,122,215,-14,-54,-69
44,-68,-112,12,78,-90,23,115,209,-13,-51,-64
42,-64,-106,11,74,-85,21,109,201,-13,-49,-60
38,-62,-100,11,69,-81,20,102,192,-12,-46,-57
37,-56,-93,10,64,-74,18,96,185,-11,-42,-52
36,-49,-85,6,60,-67,17,91,177,-9,-37,-47
33,-43,-76,5,54,-59,17,86,167,-8,-33,-42
28,-39,-67,5,47,-53,16,81,154,-9,-31,-39
23,-35,-59,5,41,-46,17,77,141,-9,-28,-34
20,-30,-50,5,34,-39,20,74,129,-9,-24,-29
15,-26,-41,5,27,-33,22,72,116,-9,-21,-25
9,-24,-32,7,20,-28,25,69,102,-9,-19,-21
5,-21,-25,8,14,-23,28,67,90,-10,-17,-17
2,-15,-17,6,9,-16,32,65,79,-9,-13,-13
-1,-11,-10,6,4,-11,35,64,69,-8,-9,-9
-5,-10,-4,7,0,-7,38,62,59,-7,-7,-6
-9,-9,0,8,-4,-4,41,59,50,-6,-5,-4
-10,-7,3,8,-7,-2,44,58,43,-5,-3,-2
-11,-6,6,8,-9,0,47,57,36,-4,-2,-1
-14,-6,8,10,-11,0,51,56,29,-4,-1,-1
-17,-7,9,12,-13,1,55,55,23,-5,-1,0
-17,-6,11,11,-14,2,60,56,19,-5,0,1
-16,-4,12,10,-14,4,65,57,16,-5,2,2
-17,-4,13,11,-15,4,68,57,12,-5,2,2
-18,-5,14,12,-16,4,70,55,9,-5,1,2
-19,-5,14,11,-16,4,74,54,6,-4,2,3
-18,-4,14,10,-16,5,77,53,4,-4,2,4
-19,-5,14,11,-17,4,81,51,2,-4,2,4
-21,-7,15,14,-18,3,84,49,0,-5,1,4
-21,-6,15,14,-18,4,86,46,-2,-5,1,5
-18,-3,15,11,-17,5,85,43,-2,-4,3,6
-17,-1,16,9,-17,7,81,39,-2,-3,4,7
-17,0,17,9,-17,8,72,35,-3,-2,4,7
-16,2,17,7,-16,9,63,30,-3,-1,5,8
-13,4,17,4,-15,10,52,27,-2,1,7,10
-11,6,17,2,-14,11,40,23,-1,2,8,11
-10,6,17,2,-14,11,28,18,0,3,9,12
-9,7,17,1,-13,12,18,13,0,4,9,12
-5,11,17,-2,-11,14,10,10,2,6,11,14
-3,14,17,-5,-10,15,4,7,4,8,13,15
-2,14,17,-5,-9,15,-2,2,4,9,14,15
-2,14,16,-6,-9,15,-8,-2,3,9,14,15
-1,15,16,-7,-9,15,-12,-5,3,10,14,15
0,16,16,-8,-8,16,-16,-7,3,10,14,16
-1,15,16,-7,-9,16,-19,-9,3,10,13,15
-2,14,16,-6,-9,15,-21,-11,3,10,11,15
0,16,16,-8,-8,16,-23,-11,4,10,11,15
1,18,16,-10,-7,17,-23,-12,4,11,12,16
1,18,16,-10,-7,17,-24,-13,4,11,11,16
1,18,16,-9,-8,17,-25,-14,4,11,11,15
1,18,17,-10,-8,17,-25,-14,5,11,11,16
2,18,17,-10,-8,17,-26,-14,5,11,11,16
1,17,17,-9,-8,17,-26,-14,5,11,11,16
-1,15,16,-7,-9,16,-27,-15,3,11,11,16
0,16,16,-8,-8,16,-26,-15,3,11,11,16
1,19,17,-10,-7,18,-25,-14,3,11,12,17
2,20,17,-11,-7,19,-25,-14,4,11,13,17
2,19,17,-10,-8,18,-26,-15,4,11,12,16
1,18,17,-10,-8,17,-27,-16,4,11,12,16
2,18,17,-10,-7,17,-27,-16,4,11,12,16
2,17,17,-10,-7,17,-27,-15,4,11,12,17
0,16,17,-8,-8,16,-27,-15,3,10,11,16
0,15,16,-8,-8,16,-27,-16,3,10,11,16
1,17,16,-9,-7,17,-27,-15,3,10,12,17
2,19,16,-11,-6,18,-27,-15,3,11,14,17
2,19,16,-10,-6,17,-27,-15,3,11,14,17
1,18,16,-9,-7,17,-28,-16,2,11,14,17
1,17,16,-9,-7,17,-27,-16,2,12,14,17
2,18,17,-10,-7,17,-27,-16,1,12,14,18
0,17,17,-9,-8,17,-27,-17,0,12,14,17
-1,15,17,-7,-8,16,-28,-17,0,11,13,16
0,17,17,-8,-8,16,-28,-17,0,11,13,16
2,19,17,-10,-7,18,-27,-17,0,11,15,17
2,20,17,-11,-8,18,-27,-17,0,11,15,17
1,19,17,-10,-8,17,-28,-18,-1,11,14,16
1,18,17,-10,-8,17,-28,-18,-2,11,14,16
1,18,17,-10,-8,17,-28,-18,-2,11,15,16
0,18,18,-9,-8,17,-28,-19,-3,11,14,16
-1,16,18,-7,-9,17,-29,-19,-5,10,13,16
-1,16,18,-7,-9,17,-28,-20,-5,9,13,16
0,18,18,-9,-8,18,-27,-19,-5,10,14,16
1,19,18,-10,-8,18,-27,-19,-5,10,14,16
0,19,18,-9,-9,18,-28,-21,-7,10,14,15
0,18,18,-9,-9,17,-29,-22,-8,9,13,15
0,18,18,-9,-9,18,-28,-21,-8,9,13,16
0,18,18,-9,-9,18,-28,-21,-9,9,13,16
-2,17,19,-7,-10,17,-29,-22,-10,8,13,15
-3,16,19,-6,-10,17,-30,-24,-12,7,12,15
-1,18,20,-8,-10,18,-30,-24,-12,7,13,15
0,19,20,-9,-10,19,-30,-24,-13,7,13,16
-1,19,20,-9,-10,19,-30,-26,-15,6,12,15
-2,18,21,-8,-11,19,-31,-27,-18,5,11,14
-3,18,21,-8,-12,19,-31,-28,-19,5,10,14
-3,19,22,-8,-12,20,-31,-28,-20,4,10,15
-4,18,22,-6,-13,19,-32,-29,-22,4,10,15
-6,16,22,-5,-14,18,-33,-31,-24,3,10,14
-5,17,23,-6,-13,19,-33,-32,-25,2,10,15
-3,19,23,-7,-13,20,-33,-32,-27,2,11,15
-4,19,23,-7,-14,21,-33,-33,-29,1,11,15
-6,18,24,-6,-15,20,-33,-36,-32,0,10,15
-6,18,24,-6,-15,21,-34,-37,-34,-1,9,15
-6,19,24,-6,-15,22,-35,-38,-36,-2,8,15
-8,18,25,-5,-16,22,-35,-39,-39,-3,7,15
-10,16,26,-3,-18,21,-36,-41,-42,-5,6,13
-11,16,27,-2,-18,21,-37,-43,-44,-6,5,13
-9,18,28,-4,-18,22,-36,-44,-47,-6,5,13
-9,19,28,-5,-18,23,-37,-45,-49,-7,5,13
-10,18,28,-4,-19,22,-38,-47,-53,-9,4,13
-11,17,29,-3,-20,22,-38,-48,-56,-10,4,12
-12,17,29,-3,-21,23,-38,-49,-58,-11,3,12
-12,17,30,-3,-21,24,-38,-50,-60,-12,3,12
-15,15,31,-1,-23,23,-39,-51,-63,-13,2,12
-16,14,31,1,-23,23,-40,-53,-66,-15,1,11
-15,16,32,0,-23,24,-39,-53,-68,-15,1,10
-14,17,32,-1,-23,25,-38,-53,-70,-16,2,10
-15,17,33,-1,-24,24,-38,-54,-73,-17,1,10
-17,16,33,0,-25,24,-39,-56,-76,-18,0,9
-18,16,34,0,-25,24,-39,-56,-78,-19,0,8
-18,16,35,0,-26,25,-39,-56,-80,-19,0,8
-20,15,35,2,-27,25,-38,-57,-83,-19,0,8
-21,13,35,4,-28,25,-38,-58,-85,-20,-2,8
-20,14,35,3,-27,25,-38,-58,-87,-21,-2,8
-19,16,36,1,-27,26,-37,-57,-89,-21,0,9
-19,16,36,1,-27,26,-37,-57,-91,-21,0,9
-21,16,37,2,-28,25,-37,-58,-93,-22,-1,8
-22,15,37,3,-29,25,-36,-58,-95,-23,-2,8
-22,15,37,3,-29,26,-36,-57,-97,-23,-2,8
-22,15,37,4,-30,26,-36,-58,-99,-23,-2,8
-25,13,38,6,-31,25,-37,-59,-101,-23,-3,8
-25,12,38,7,-31,25,-37,-59,-103,-23,-3,8
-23,14,38,4,-30,26,-35,-58,-104,-23,-2,9
-22,15,38,3,-30,26,-34,-57,-105,-22,-1,9
-23,15,38,4,-30,26,-34,-57,-106,-23,-2,9
-24,15,38,4,-31,26,-35,-58,-107,-23,-2,8
-24,15,39,4,-31,26,-35,-57,-108,-22,-1,9
-24,15,39,4,-31,27,-35,-57,-109,-22,-1,9
-26,13,39,6,-32,26,-35,-57,-111,-22,-2,9
-27,11,39,8,-33,25,-34,-57,-112,-22,-3,8
-25,13,39,7,-32,26,-34,-56,-113,-21,-2,9
-23,15,39,4,-31,27,-33,-55,-114,-21,-1,9
-24,15,39,4,-31,27,-33,-55,-115,-21,-1,9
-25,14,39,5,-32,26,-34,-55,-115,-21,-1,8
-25,14,39,5,-32,26,-34,-55,-115,-20,-1,9
-24,15,39,4,-31,26,-33,-54,-115,-19,-1,9
-24,14,38,5,-31,25,-33,-53,-115,-19,-1,8
-25,12,38,6,-31,24,-33,-53,-115,-18,-1,7
-24,12,37,5,-30,25,-32,-52,-115,-18,0,8
-22,15,37,3,-29,26,-31,-51,-114,-17,1,9
-21,15,37,3,-29,26,-31,-51,-113,-16,2,10
-22,14,36,3,-29,25,-31,-50,-113,-16,1,10
-22,14,36,3,-29,24,-31,-49,-112,-16,1,10
-21,14,35,3,-28,24,-29,-47,-110,-15,1,10
-21,13,35,3,-28,24,-29,-46,-108,-14,2,10
-22,11,34,4,-27,23,-29,-45,-106,-14,1,10
-21,11,33,4,-26,22,-28,-44,-104,-14,1,10
-17,14,32,1,-25,23,-27,-42,-102,-12,3,11
-15,16,32,0,-23,24,-25,-39,-99,-11,4,12
-15,15,30,0,-23,22,-25,-38,-97,-11,4,12
-15,14,29,0,-22,21,-24,-36,-94,-11,4,11
-13,14,28,-1,-21,21,-24,-33,-90,-10,4,12
-12,14,27,-2,-20,21,-23,-31,-87,-9,4,12
-12,13,27,-1,-19,20,-23,-30,-84,-8,4,12
-12,12,25,0,-18,18,-23,-30,-82,-8,4,11
-9,14,24,-2,-16,19,-22,-28,-78,-7,5,12
-6,16,23,-5,-14,19,-22,-26,-74,-6,6,12
-5,16,21,-5,-13,19,-22,-25,-71,-5,6,12
-5,16,20,-6,-12,17,-22,-24,-68,-4,5,12
-3,16,19,-6,-11,16,-21,-22,-64,-3,6,12
-1,16,18,-7,-9,16,-21,-20,-59,-2,7,12
-1,15,17,-7,-9,16,-21,-19,-55,-1,8,13
-2,13,16,-6,-9,15,-21,-18,-51,0,8,13
0,14,16,-7,-8,15,-20,-16,-46,1,8,13
2,17,15,-9,-6,16,-18,-14,-41,3,9,14
3,17,15,-10,-5,16,-17,-13,-38,4,10,13
3,17,14,-10,-5,15,-17,-12,-35,5,9,13
3,17,14,-10,-5,15,-17,-11,-31,7,9,12
5,17,13,-11,-3,15,-17,-10,-27,8,9,12
5,17,12,-12,-3,14,-17,-9,-23,10,9,12
4,15,11,-10,-3,13,-17,-8,-20,10,8,12
5,14,11,-9,-2,13,-17,-7,-17,10,8,12
8,17,10,-12,0,13,-16,-6,-14,11,10,13
10,18,9,-13,1,13,-15,-4,-11,12,11,14
9,17,8,-13,1,12,-15,-4,-9,11,10,13
9,15,6,-12,1,11,-15,-3,-7,11,9,13
9,15,5,-12,2,10,-15,-2,-4,12,9,13
10,14,4,-12,3,10,-15,-1,-2,12,9,13
9,12,4,-11,3,8,-15,0,-1,12,9,12
8,10,3,-9,3,7,-15,0,0,12,8,11
9,11,3,-10,3,7,-14,1,2,12,8,11
10,12,2,-11,4,7,-12,3,4,13,9,11
9,11,1,-10,4,6,-12,4,5,13,8,10
8,10,1,-9,4,5,-13,4,6,12,7,9
8,9,0,-8,4,5,-12,5,7,12,7,9
7,8,0,-8,4,5,-11,6,8,12,7,9
6,7,0,-6,3,4,-10,6,9,12,6,9
3,4,0,-4,2,3,-10,6,10,12,5,8
4,4,0,-4,2,3,-9,6,11,12,4,7
6,6,0,-6,3,3,-8,7,12,12,5,8
6,7,0,-7,3,3,-7,8,13,12,5,7
5,6,0,-6,3,2,-7,8,13,12,5,6
5,5,0,-5,2,2,-7,8,13,12,5,6
5,5,0,-5,3,2,-7,9,14,12,5,6
5,5,0,-4,3,2,-6,10,15,13,5,6
3,3,0,-2,2,1,-7,9,15,12,4,5
2,2,0,-1,2,0,-7,9,16,12,4,5
4,4,0,-3,2,1,-7,9,17,13,5,6
6,5,0,-5,3,2,-6,10,17,13,6,6
5,4,-1,-4,2,2,-7,10,17,13,6,5
5,3,-1,-4,2,1,-7,10,17,12,5,5
5,3,-1,-4,3,1,-7,10,17,12,5,5
5,3,-1,-4,3,1,-7,10,17,12,5,6
4,2,-1,-3,3,1,-7,9,17,11,5,6
3,1,-2,-1,2,0,-8,9,16,11,4,5
4,2,-2,-3,3,0,-8,9,16,11,4,6
6,5,-1,-5,3,1,-8,10,17,11,5,6
6,5,-1,-5,3,1,-8,10,18,12,5,6
5,4,-1,-4,2,1,-9,10,18,12,5,6
5,3,-1,-4,2,1,-9,10,18,12,5,6
5,3,-2,-4,3,1,-8,10,18,12,5,7
5,3,-2,-4,3,0,-8,9,18,12,4,6
3,1,-1,-2,2,0,-9,9,18,11,3,6
3,1,-1,-2,2,0,-9,9,18,11,3,6
5,4,0,-4,2,2,-8,10,19,12,4,7
5,5,0,-5,2,2,-8,10,19,12,5,7
4,4,0,-4,2,1,-9,10,19,11,4,6
4,3,0,-3,2,1,-9,9,18,11,4,5
4,3,-1,-4,3,1,-9,9,18,11,4,6
5,3,-1,-4,4,1,-9,9,18,12,5,6
3,1,-1,-2,3,0,-9,9,18,11,5,5
2,0,-1,-1,3,0,-10,8,18,10,4,5
4,2,-1,-3,3,1,-9,9,18,11,5,5
5,4,-1,-4,3,1,-9,10,18,11,7,6
4,3,-1,-3,2,1,-9,9,18,11,7,6
3,2,-1,-2,1,0,-9,9,17,10,6,6
3,3,0,-2,1,1,-9,9,17,10,6,6
3,4,1,-3,1,2,-9,8,16,10,7,7
2,4,2,-2,0,3,-10,8,15,9,6,7
0,2,3,-1,-1,3,-9,7,14,8,5,7
1,3,3,-2,-1,3,-8,7,14,7,4,6
3,5,2,-4,0,4,-8,8,13,7,5,7
3,4,1,-4,1,2,-8,8,11,6,5,7
3,2,0,-3,1,0,-8,8,10,5,5,7
3,1,-1,-2,2,0,-7,8,10,4,5,7
4,1,-2,-2,3,-1,-5,10,10,4,6,8
4,0,-3,-2,4,-2,-4,11,10,4,6,8
3,-3,-6,0,5,-4,-3,12,10,4,5,7
4,-4,-8,0,7,-5,-1,14,11,5,6,7
8,-2,-10,-2,9,-6,0,17,13,9,9,9
10,-2,-13,-4,11,-7,0,19,16,14,12,11
12,-3,-15,-4,13,-9,1,22,20,20,14,12
14,-4,-18,-4,15,-11,2,25,26,28,17,12
17,-5,-22,-6,19,-14,3,29,33,37,20,13
20,-7,-26,-6,23,-17,5,34,41,48,22,13
21,-11,-32,-5,27,-21,8,39,50,58,24,11
24,-16,-39,-4,32,-27,11,45,61,68,24,9
29,-18,-46,-5,38,-32,15,53,73,79,25,7
33,-21,-54,-6,43,-37,20,62,87,88,25,3
35,-28,-63,-4,49,-46,24,72,103,95,23,-2
37,-37,-73,-1,54,-55,30,82,119,97,18,-9
39,-45,-84,2,61,-64,37,93,133,94,11,-16
41,-53,-94,5,68,-73,43,105,148,87,3,-24
43,-62,-105,9,74,-83,48,115,163,78,-5,-32
45,-72,-116,13,81,-93,51,124,176,68,-15,-41
48,-78,-126,14,87,-102,53,133,188,58,-23,-48
52,-82,-135,15,93,-108,55,142,199,49,-30,-55
54,-87,-141,16,97,-114,57,149,209,38,-36,-61
54,-91,-145,18,99,-119,57,155,217,28,-43,-67
55,-95,-149,20,101,-122,59,160,224,19,-49,-72
55,-97,-151,20,102,-124,60,164,231,11,-54,-76
55,-99,-152,21,103,-125,61,167,236,5,-58,-79
53,-101,-153,23,103,-126,59,168,240,-1,-62,-82
53,-100,-153,23,103,-126,57,168,243,-5,-64,-83
55,-96,-151,20,103,-123,55,168,245,-6,-63,-83
56,-91,-148,18,102,-119,51,165,245,-7,-62,-82
55,-89,-143,17,99,-116,47,159,243,-7,-61,-81
54,-86,-139,16,96,-112,42,153,239,-8,-60,-79
53,-81,-133,14,93,-107,38,146,234,-8,-57,-76
52,-76,-127,12,90,-102,34,138,229,-7,-55,-72
49,-73,-121,12,86,-97,30,129,222,-6,-52,-68
47,-70,-116,12,82,-92,26,122,216,-6,-50,-65
46,-64,-110,9,79,-87,24,116,209,-4,-46,-60
46,-58,-104,6,75,-80,23,110,202,-3,-42,-55
44,-53,-96,5,70,-74,21,103,194,-2,-39,-51
41,-48,-88,4,64,-69,19,97,185,-1,-36,-47
38,-43,-80,3,58,-62,18,91,175,0,-33,-43
35,-38,-71,1,52,-54,19,87,163,0,-29,-37
30,-34,-62,2,46,-48,19,82,150,0,-27,-33
23,-31,-54,4,39,-42,20,78,136,-1,-24,-29
19,-27,-45,4,33,-36,22,76,123,-1,-21,-24
16,-20,-37,2,27,-28,26,75,110,-1,-17,-19
11,-16,-28,2,20,-22,30,72,97,-1,-14,-14
6,-13,-20,4,13,-17,32,69,84,-2,-12,-11
2,-11,-13,4,7,-12,36,66,73,-1,-9,-8
-1,-8,-6,4,2,-7,39,65,63,0,-6,-4
-4,-7,-1,5,-1,-4,42,63,54,0,-5,-1
-8,-7,2,7,-4,-2,44,60,45,0,-4,0
-10,-7,4,8,-6,0,47,58,38,0,-2,1
-10,-3,7,6,-7,2,52,58,32,1,0,4
-11,-1,9,6,-9,4,57,59,26,1,1,5
-13,-1,11,7,-12,5,61,58,21,0,1,5
-14,-2,12,8,-13,5,65,57,16,0,1,5
-14,-3,13,9,-14,5,69,57,12,0,1,6
-15,-3,13,9,-14,5,72,57,9,0,2,7
-17,-4,14,10,-15,4,74,56,5,0,2,7
-18,-5,14,11,-15,4,77,53,2,-1,2,7
-17,-3,14,10,-15,5,81,52,0,-1,2,7
-16,-1,14,9,-15,6,85,51,-1,0,3,8
-16,-1,14,9,-15,6,87,48,-2,0,3,8
-17,-1,15,10,-16,6,86,44,-3,0,3,8
-16,0,16,9,-16,7,83,40,-4,0,4,9
-14,1,16,6,-15,9,76,37,-3,2,6,11
-13,2,17,5,-15,10,66,33,-3,3,7,12
-12,3,17,4,-14,10,54,28,-3,4,8,13
-10,5,17,2,-13,11,43,24,-2,5,10,14
-6,10,17,-2,-11,13,32,21,-1,7,12,16
-4,12,17,-4,-10,14,22,16,0,8,14,18
-4,13,17,-4,-10,14,13,12,1,9,14,18
-3,14,17,-5,-10,15,6,7,2,10,15,19
-1,16,17,-7,-9,16,0,4,3,11,16,21
0,16,17,-8,-8,17,-5,0,3,12,16,21
0,15,17,-8,-8,16,-11,-3,3,12,16,21
0,15,17,-8,-8,16,-15,-6,3,12,16,21
2,18,17,-10,-6,17,-17,-7,4,13,18,22
4,20,17,-12,-6,18,-19,-8,4,14,19,23
