leadI,leadII,leadIII,leadaVR,leadaVL,leadaVF,leadV1,leadV2,leadV3,leadV4,leadV5,leadV6
0,0,0,0,0,0,0,0,-1,-4,-3,-1
0,0,0,0,0,0,-2,-1,-4,-11,-8,-3
-2,2,4,0,-3,3,-3,-3,-5,-14,-11,-5
-4,2,6,1,-5,4,-4,-5,-6,-16,-12,-6
-3,1,4,1,-3,3,-4,-5,-6,-16,-13,-7
0,0,0,0,0,0,-3,-3,-5,-15,-12,-6
0,-4,-3,2,2,-4,-1,-1,-3,-13,-10,-5
-2,-7,-5,5,2,-7,-1,-1,-3,-12,-10,-4
-2,-8,-6,5,2,-7,-2,-1,-3,-11,-11,-5
0,-4,-4,2,2,-4,-2,0,-2,-10,-11,-5
-1,0,1,1,-1,0,-2,1,-2,-8,-10,-5
-4,2,6,1,-5,3,-2,1,-2,-7,-10,-5
-6,2,7,2,-6,4,-2,2,-1,-5,-10,-5
-7,0,6,4,-6,2,-1,3,0,-2,-8,-4
-6,-4,2,5,-4,-1,0,4,1,0,-7,-3
-5,-6,0,5,-2,-3,0,5,2,3,-5,-1
-5,-5,-1,5,-1,-3,0,6,2,5,-5,-1
-4,-4,0,4,-2,-2,-2,5,2,6,-6,-1
-4,-1,3,2,-3,0,-4,4,1,6,-6,-2
-3,2,5,0,-4,3,-3,5,2,8,-5,-2
-3,3,6,0,-4,4,-3,6,2,9,-4,-2
-4,0,4,2,-4,1,-2,7,3,11,-4,-2
-3,-3,0,3,-1,-2,-1,9,4,13,-2,-1
-2,-4,-2,2,0,-4,1,11,6,16,0,1
-2,-5,-3,3,0,-4,2,13,7,18,0,2
-3,-4,0,3,-1,-3,3,15,8,19,1,3
-3,0,2,1,-2,0,3,15,8,19,1,3
-1,3,4,0,-1,2,2,14,7,18,0,2
0,5,5,-2,-1,4,2,13,6,18,0,1
0,5,5,-3,-1,4,3,13,7,19,1,2
0,2,2,-1,0,2,3,13,7,20,1,3
-4,-3,0,3,-1,-2,3,12,7,20,1,3
-7,-7,0,6,-3,-4,2,11,7,20,1,2
-6,-7,0,6,-3,-3,2,11,8,21,1,2
-5,-3,3,4,-4,0,2,11,10,22,2,3
-6,0,6,3,-5,2,2,12,10,23,3,4
-5,2,7,2,-5,4,2,12,10,22,3,4
-3,3,6,0,-4,5,2,14,10,23,3,4
-1,3,4,-1,-2,3,3,15,11,24,4,5
-1,0,1,0,-1,0,4,17,11,25,4,5
0,-2,-1,0,0,-1,6,18,11,26,5,6
1,-1,-2,-1,1,-2,7,19,12,27,6,6
1,0,-1,-1,1,0,7,19,13,27,6,6
0,2,3,-1,-1,2,7,19,13,26,5,6
-1,4,6,-1,-3,4,7,19,13,26,5,5
-1,4,6,-1,-3,5,6,20,13,26,4,5
-2,2,5,0,-3,3,6,20,12,25,3,4
-2,-1,2,1,-2,0,7,20,12,24,3,4
-1,-2,0,1,-1,-1,7,21,13,25,3,4
-1,-3,-1,1,-1,-2,8,22,13,25,3,4
-1,-3,-1,2,-1,-3,8,22,13,24,3,4
-2,-2,1,2,-2,-1,8,22,13,25,3,4
-2,0,3,1,-2,1,9,22,13,25,4,4
-2,0,3,1,-2,1,9,22,13,25,4,4
-3,0,3,1,-2,1,9,23,13,25,4,4
-3,-2,1,2,-2,-1,9,24,14,25,4,5
-3,-5,-2,4,-1,-4,9,25,14,25,4,5
-2,-7,-4,4,0,-5,11,26,14,26,5,6
-1,-5,-3,2,0,-4,13,28,15,27,6,7
0,-1,0,0,-1,-1,13,28,16,27,6,7
2,2,1,-2,0,1,13,27,15,26,6,7
2,4,2,-3,0,3,13,27,15,26,6,6
-1,2,3,0,-2,2,13,26,15,25,5,6
-3,0,2,1,-2,1,13,25,14,26,5,6
-2,-2,0,1,-1,0,13,25,14,26,5,6
-3,-4,-1,3,-1,-2,12,24,13,25,4,5
-4,-6,-1,4,-2,-4,11,23,12,23,3,4
-4,-6,0,4,-2,-3,10,22,11,22,3,4
-5,-5,1,4,-2,-2,9,20,10,20,2,3
-6,-3,3,4,-4,-1,8,20,10,20,2,3
-5,0,4,2,-4,1,8,20,10,20,3,4
-3,1,4,1,-3,1,8,19,10,21,4,4
-3,0,2,1,-2,0,7,18,9,20,4,4
-2,-1,1,1,-2,0,6,16,8,20,3,4
-2,-2,0,1,-1,-1,6,16,8,20,4,5
-1,-2,0,1,-1,-2,6,16,8,20,4,5
-1,-2,0,1,0,-2,5,15,7,20,4,5
-2,-2,0,2,-1,-1,4,13,6,19,4,5
-4,-2,2,3,-3,0,3,12,6,19,4,5
-5,-3,2,4,-3,-1,2,11,6,19,5,6
-5,-5,0,5,-2,-3,0,10,6,18,4,5
-3,-6,-2,4,-1,-4,0,11,6,18,5,5
-3,-6,-2,4,0,-4,1,12,6,19,5,6
-4,-7,-2,5,-1,-5,2,12,6,20,6,6
-4,-7,-3,6,0,-5,2,13,7,20,6,6
-4,-6,-2,6,-1,-5,2,13,7,20,6,6
-4,-4,0,5,-1,-3,2,13,7,20,5,6
-4,-2,1,4,-2,-1,2,13,7,19,5,6
-3,-1,1,2,-2,0,2,13,7,19,5,6
-3,-2,1,2,-2,0,1,13,7,18,4,5
-3,-2,2,2,-2,0,1,13,7,17,4,5
0,0,1,0,-1,1,1,13,7,17,5,5
0,2,2,-1,-1,2,0,12,6,16,4,5
-2,2,4,0,-2,2,-1,11,5,15,3,4
-1,3,4,0,-2,3,-1,10,4,15,3,3
0,4,3,-2,0,3,-1,11,5,16,3,3
2,4,1,-3,1,2,-1,11,5,16,3,3
4,3,-1,-3,3,1,-1,11,5,16,3,3
4,2,-1,-3,3,0,-1,12,4,15,2,2
1,0,-1,-1,1,0,-1,12,4,14,2,1
0,-1,0,0,0,0,0,13,4,13,2,1
0,0,0,0,1,0,0,13,4,14,2,1
0,0,0,0,1,0,0,13,4,14,2,1
0,0,0,0,0,0,-1,12,3,14,2,0
0,0,0,0,0,0,-2,13,3,15,2,0
0,0,0,0,0,0,-2,13,3,15,2,0
0,0,-1,0,0,-1,-2,14,3,15,1,0
1,0,-1,0,1,0,-1,15,3,15,1,0
1,0,-1,-1,1,0,-2,15,2,14,1,0
0,-1,0,1,0,0,-2,15,1,13,0,-1
-2,-1,1,2,-1,0,-1,15,1,13,0,-1
-3,-1,1,2,-2,0,0,16,2,13,0,-1
-2,0,1,2,-1,0,0,17,2,14,0,-1
-1,0,0,1,-1,0,0,17,3,14,0,-1
-2,-1,0,2,-2,0,1,18,3,14,0,-1
-3,-1,2,3,-3,0,2,18,4,15,1,-1
-1,0,2,1,-1,1,2,18,4,16,1,0
1,1,0,-1,1,1,1,18,3,15,1,0
2,1,0,-1,1,0,2,18,3,15,0,0
1,1,0,0,0,0,3,18,3,15,0,-1
0,1,1,0,0,1,3,19,3,14,0,-1
-1,1,1,0,-1,1,4,19,3,15,0,-1
-2,0,1,1,-2,0,5,21,4,15,1,-1
-4,-3,1,3,-3,-1,6,22,5,15,1,-1
-4,-4,1,4,-3,-2,6,23,5,15,0,-2
-3,-4,1,3,-2,-1,6,23,4,15,0,-2
-2,-3,1,3,-2,-1,6,22,4,15,0,-2
-2,-1,1,2,-2,0,6,21,4,15,0,-2
-1,0,2,1,-2,1,6,21,4,15,0,-2
-1,0,1,1,-2,1,6,20,5,15,0,-2
-2,-1,1,1,-2,0,7,21,5,15,0,-2
-4,-1,3,2,-4,1,8,22,6,16,1,-1
-4,-1,4,2,-5,2,8,23,6,16,1,-1
-2,0,4,1,-3,2,8,23,6,16,1,-1
-1,0,3,0,-2,2,9,24,7,16,0,-1
-2,0,4,1,-3,2,9,24,7,15,0,-1
-3,0,4,2,-3,1,10,25,7,15,0,-1
-3,0,3,2,-3,1,11,25,7,15,0,-1
-3,0,3,1,-3,1,12,25,7,15,0,-1
-2,0,3,1,-3,1,12,25,6,15,0,-2
-3,-1,3,1,-3,1,12,24,6,14,-1,-3
-3,0,4,1,-4,2,13,24,6,14,-1,-3
-2,1,5,0,-4,3,13,25,7,14,0,-2
-1,2,5,0,-3,3,14,26,8,14,0,-2
-1,2,4,0,-3,3,15,26,8,15,0,-1
-2,1,4,1,-3,2,14,26,7,14,-1,-2
-3,0,2,2,-3,1,14,26,6,13,-1,-3
-2,-1,1,2,-2,0,15,26,7,13,-1,-3
-3,-2,2,2,-2,0,15,27,7,13,0,-2
-5,-3,3,4,-4,0,15,27,7,13,-1,-2
-6,-3,3,4,-5,0,15,27,7,13,-1,-2
-6,-3,3,4,-5,0,16,27,7,14,-1,-2
-7,-2,4,4,-6,1,16,27,8,14,-1,-2
-6,-1,5,3,-6,2,16,26,9,14,-1,-2
-4,0,5,2,-4,2,16,26,9,14,-1,-2
-4,0,4,1,-4,1,15,27,9,14,-1,-2
-5,-1,5,3,-5,1,15,27,10,14,-1,-2
-6,-2,4,4,-5,0,14,25,10,14,-1,-2
-5,-3,3,4,-4,0,13,24,10,14,-2,-2
-6,-4,3,5,-5,0,13,22,10,14,-2,-3
-7,-4,3,5,-5,-1,12,21,9,14,-3,-3
-7,-4,3,5,-5,-1,11,21,8,13,-3,-4
-8,-4,4,6,-6,-1,12,22,8,14,-3,-4
-7,-3,3,5,-5,-1,13,24,8,14,-2,-3
-5,-3,2,4,-4,-1,13,25,7,14,-2,-3
-5,-3,2,4,-4,-1,14,25,7,14,-2,-3
-6,-4,3,5,-4,-1,14,25,7,13,-2,-3
-5,-4,2,4,-4,-1,13,25,7,13,-2,-3
-3,-2,1,3,-2,-1,13,25,8,13,-2,-3
-2,-1,1,1,-2,0,14,25,9,13,-1,-3
-3,-1,2,2,-3,0,15,26,9,13,-1,-3
-6,-2,3,4,-5,0,15,26,9,12,-1,-3
-7,-2,4,4,-6,0,16,27,10,12,0,-2
-4,0,3,2,-4,1,16,28,11,13,0,-1
-1,1,3,0,-2,2,17,29,12,13,1,-1
-2,2,4,0,-3,3,17,29,12,13,1,0
-3,1,4,1,-4,2,16,29,12,13,0,0
-4,0,4,2,-4,1,15,27,11,11,0,-1
-5,-1,3,3,-5,0,14,26,10,10,-1,-2
-5,0,4,3,-4,1,14,25,9,10,-1,-3
-4,0,4,2,-4,1,14,24,9,9,-1,-3
-4,0,3,2,-3,1,14,22,9,9,-1,-3
-3,0,3,1,-3,1,14,21,8,10,-1,-3
-2,1,4,0,-3,2,14,21,8,10,-1,-2
-3,2,6,0,-4,3,13,20,8,11,-1,-2
-6,1,7,2,-6,3,11,19,8,10,-1,-2
-5,1,7,2,-6,3,11,17,8,10,-1,-2
-5,1,7,2,-6,3,10,16,7,10,-1,-2
-7,-1,6,4,-7,2,8,15,6,8,-2,-3
-8,-3,6,6,-7,0,6,14,5,7,-3,-4
-8,-4,6,6,-7,0,6,13,5,7,-2,-4
-9,-4,7,7,-8,1,5,12,5,7,-2,-4
-8,-3,6,6,-7,1,4,12,5,7,-2,-4
-6,-1,5,4,-5,1,4,12,5,8,-1,-3
-4,0,3,2,-3,1,4,12,5,8,-1,-3
-4,-1,2,3,-3,0,3,11,3,7,-3,-4
-3,-2,2,3,-3,0,3,11,3,6,-3,-5
-2,-1,2,1,-3,0,4,11,3,6,-3,-4
-5,-3,3,4,-5,0,3,11,3,5,-3,-5
-10,-6,4,8,-7,-1,2,10,2,4,-4,-6
-13,-7,6,10,-9,0,3,10,2,5,-3,-5
-13,-7,7,10,-10,0,3,10,3,6,-3,-5
-11,-6,6,8,-9,0,3,9,2,6,-3,-5
-9,-4,5,6,-7,0,3,9,2,6,-3,-5
-7,-3,4,5,-6,0,2,8,1,5,-3,-5
-6,-3,3,4,-5,0,0,6,0,4,-4,-6
-5,-3,3,4,-4,0,0,5,0,3,-4,-6
-7,-4,3,5,-5,0,-1,5,0,4,-3,-5
-9,-4,3,6,-6,0,-2,4,0,5,-2,-4
-9,-4,4,6,-6,0,-2,4,0,6,-1,-3
-7,-3,3,5,-5,0,-3,2,0,7,0,-3
-6,-2,4,3,-5,1,-4,1,0,9,2,-1
-5,1,6,1,-5,3,-5,1,1,12,5,1
-4,3,8,0,-6,5,-6,0,2,17,9,5
-4,5,9,-1,-6,7,-7,0,3,22,14,9
-3,7,10,-2,-6,8,-8,-1,4,29,20,14
-2,9,11,-3,-7,10,-10,-2,6,38,28,20
-3,11,13,-4,-8,11,-11,-3,9,50,37,27
-3,15,17,-6,-10,15,-12,-4,14,63,48,35
-1,19,21,-9,-11,19,-14,-5,17,77,60,45
0,24,25,-12,-13,24,-16,-7,19,89,71,54
0,30,30,-14,-15,30,-19,-9,20,101,83,64
2,35,33,-18,-15,34,-22,-12,19,109,94,74
5,40,34,-22,-14,37,-27,-17,14,115,104,84
9,44,35,-26,-13,40,-31,-24,7,120,115,94
13,49,35,-31,-11,42,-36,-32,-1,124,126,105
17,54,37,-35,-10,46,-42,-41,-10,129,139,117
20,60,40,-40,-10,50,-48,-49,-18,135,153,131
25,66,41,-45,-8,53,-54,-55,-26,141,167,145
29,71,43,-50,-7,56,-59,-61,-34,147,180,157
32,75,43,-53,-6,58,-64,-66,-43,150,190,168
36,79,43,-57,-3,61,-69,-71,-50,151,198,178
42,85,43,-63,0,64,-71,-75,-54,152,203,185
44,88,44,-66,0,66,-71,-78,-57,148,204,189
43,90,46,-66,-1,67,-72,-81,-60,139,199,189
43,90,47,-66,-2,67,-73,-86,-64,124,188,183
41,88,48,-64,-3,67,-74,-91,-71,101,173,174
35,86,51,-60,-7,68,-72,-94,-78,74,154,163
27,84,57,-55,-14,70,-70,-98,-86,44,134,149
19,79,60,-49,-20,70,-68,-103,-94,14,111,132
10,73,62,-42,-25,68,-65,-106,-99,-14,89,113
4,66,61,-34,-28,63,-61,-105,-99,-37,67,94
0,57,57,-28,-28,57,-55,-98,-95,-51,47,74
-3,48,52,-22,-27,50,-48,-87,-85,-55,31,56
-4,40,45,-18,-25,42,-39,-72,-72,-53,17,38
-6,30,37,-12,-22,33,-30,-57,-59,-50,4,21
-10,21,32,-5,-21,26,-20,-42,-47,-45,-6,7
-13,14,27,0,-20,20,-11,-29,-36,-39,-12,-2
-14,8,22,3,-17,14,-5,-18,-27,-34,-16,-9
-14,2,16,6,-14,8,0,-10,-20,-30,-19,-14
-13,-2,11,7,-11,4,4,-2,-14,-26,-20,-17
-10,-3,7,6,-8,1,8,4,-8,-22,-20,-18
-7,-3,5,5,-6,0,11,8,-4,-19,-20,-18
-8,-4,4,6,-6,0,13,10,-1,-17,-21,-18
-9,-6,3,7,-6,-1,14,11,0,-16,-21,-19
-9,-7,2,8,-6,-2,14,13,1,-15,-21,-20
-9,-8,1,9,-5,-3,15,15,2,-13,-21,-20
-10,-9,0,10,-5,-4,16,16,3,-11,-21,-20
-11,-11,0,11,-6,-5,17,17,4,-10,-21,-20
-11,-11,0,11,-6,-6,17,17,4,-9,-22,-21
-10,-11,-1,11,-5,-6,17,17,5,-9,-22,-21
-10,-10,0,10,-5,-6,17,18,5,-8,-22,-21
-10,-10,1,10,-6,-5,17,19,6,-8,-21,-20
-12,-9,2,11,-7,-4,19,19,7,-8,-21,-20
-14,-10,3,12,-9,-3,20,20,7,-8,-20,-19
-15,-10,4,12,-9,-3,20,20,8,-7,-20,-19
-13,-10,2,11,-8,-3,19,20,9,-7,-20,-19
-10,-9,0,9,-5,-4,19,20,9,-7,-20,-19
-9,-9,0,9,-5,-4,19,20,10,-7,-19,-18
-10,-9,2,9,-6,-4,20,20,10,-6,-18,-17
-11,-9,3,9,-7,-3,19,20,10,-7,-17,-17
-12,-9,4,10,-8,-3,18,20,10,-8,-17,-17
-12,-8,5,10,-9,-2,18,19,9,-8,-18,-17
-12,-8,4,10,-8,-1,18,19,9,-8,-18,-17
-12,-8,4,10,-8,-2,18,18,9,-8,-18,-17
-12,-9,3,11,-8,-2,18,18,8,-8,-18,-17
-12,-10,3,12,-7,-3,17,17,7,-9,-19,-18
-11,-10,2,11,-6,-4,17,16,6,-10,-19,-19
-10,-9,1,10,-5,-4,17,15,5,-11,-20,-19
-10,-9,2,10,-6,-4,18,15,5,-11,-19,-18
-12,-9,4,10,-8,-3,17,14,5,-11,-19,-17
-12,-9,4,10,-8,-3,16,13,4,-11,-19,-17
-12,-8,3,10,-7,-3,14,11,3,-12,-19,-18
-12,-8,3,10,-7,-3,13,11,2,-12,-19,-18
-14,-10,4,12,-8,-3,13,11,2,-11,-18,-17
-15,-10,5,13,-9,-2,13,10,2,-11,-17,-16
-14,-10,5,12,-9,-2,12,9,1,-11,-18,-16
-12,-8,4,11,-8,-2,11,8,0,-12,-18,-16
-13,-8,5,11,-9,-2,11,8,0,-12,-17,-16
-14,-9,5,12,-10,-3,9,7,-1,-12,-18,-16
-12,-8,3,11,-8,-3,9,6,-1,-12,-18,-16
-9,-5,3,7,-6,-1,9,7,0,-11,-17,-15
-8,-4,5,6,-6,0,10,7,0,-11,-16,-14
-12,-6,6,9,-8,0,8,5,-2,-12,-16,-15
-15,-10,6,13,-10,-2,7,3,-3,-13,-17,-16
-15,-10,6,13,-10,-2,6,1,-4,-13,-16,-16
-15,-10,5,13,-10,-3,5,0,-4,-13,-16,-15
-16,-12,5,14,-10,-4,3,-2,-5,-14,-17,-16
-16,-12,4,14,-10,-4,1,-3,-6,-15,-17,-16
-16,-11,4,14,-10,-4,1,-3,-6,-15,-17,-16
-14,-9,4,12,-9,-2,2,-2,-5,-14,-16,-15
-13,-8,5,11,-9,-1,3,-1,-4,-13,-15,-14
-13,-7,6,10,-9,-1,4,-1,-4,-12,-14,-13
-11,-6,5,9,-8,-1,5,-1,-4,-12,-13,-12
-10,-6,4,8,-7,-1,4,-1,-4,-12,-13,-12
-8,-5,3,6,-5,-1,3,-2,-4,-13,-13,-12
-6,-3,3,5,-4,0,3,-2,-3,-13,-13,-12
-5,-2,4,4,-4,1,4,-2,-3,-13,-12,-11
-4,0,4,3,-4,2,4,-2,-3,-13,-11,-10
-4,-1,3,2,-3,1,3,-3,-4,-14,-12,-11
-5,-2,2,3,-4,0,2,-4,-5,-15,-12,-11
-7,-4,2,5,-5,0,1,-4,-7,-16,-13,-12
-8,-6,2,6,-6,-1,1,-4,-8,-17,-13,-12
-8,-4,3,6,-6,0,1,-3,-7,-17,-13,-12
-8,-3,4,5,-6,0,2,-3,-7,-17,-13,-11
-8,-4,4,6,-6,0,1,-4,-9,-19,-13,-12
-8,-4,3,7,-6,0,0,-4,-10,-20,-14,-12
-7,-4,3,6,-5,0,0,-4,-10,-21,-13,-12
-6,-4,1,5,-3,-1,0,-4,-10,-21,-13,-11
-6,-5,1,6,-4,-1,0,-3,-10,-22,-13,-11
-7,-5,2,6,-4,-1,1,-2,-10,-22,-13,-10
-7,-5,1,6,-4,-1,1,-2,-10,-23,-13,-10
-8,-6,1,7,-4,-2,1,-2,-10,-25,-14,-10
-9,-8,1,8,-5,-3,0,-3,-10,-26,-15,-11
-7,-6,1,6,-3,-2,0,-2,-9,-27,-14,-10
-6,-6,0,6,-3,-2,0,-2,-9,-28,-15,-10
-8,-7,1,8,-4,-3,0,-2,-10,-30,-16,-11
-9,-8,1,9,-6,-3,0,-1,-9,-31,-16,-11
-8,-6,1,7,-5,-3,1,0,-8,-31,-15,-10
-5,-4,0,5,-3,-2,2,1,-7,-32,-15,-10
-4,-4,0,4,-2,-2,2,1,-6,-33,-16,-10
-3,-4,0,3,-2,-2,2,1,-6,-34,-16,-10
-4,-4,0,4,-2,-2,1,1,-6,-36,-16,-11
-4,-5,0,4,-2,-3,0,0,-7,-37,-17,-11
-3,-6,-2,5,-1,-4,0,0,-7,-38,-18,-12
-5,-8,-3,7,-2,-5,1,1,-7,-38,-18,-12
-7,-9,-2,8,-3,-5,2,2,-7,-39,-18,-12
-8,-9,-2,8,-3,-5,2,2,-7,-39,-19,-12
-7,-8,-2,7,-3,-4,2,2,-7,-40,-20,-13
-6,-8,-2,7,-2,-5,2,2,-7,-40,-20,-13
-8,-10,-2,8,-3,-5,2,3,-7,-40,-21,-14
-7,-10,-2,9,-2,-6,3,4,-7,-40,-20,-14
-6,-10,-3,8,-1,-6,3,5,-6,-39,-20,-14
-5,-10,-4,8,-1,-7,3,5,-6,-38,-21,-15
-6,-10,-4,9,-1,-7,4,6,-5,-38,-21,-16
-6,-10,-4,9,-1,-8,5,8,-5,-36,-21,-16
-6,-10,-4,8,-1,-8,5,8,-4,-35,-21,-16
-5,-10,-5,8,0,-8,6,8,-4,-34,-21,-16
-5,-11,-6,8,0,-9,6,9,-3,-33,-21,-17
-5,-11,-6,8,0,-9,7,10,-3,-31,-21,-17
-5,-10,-5,8,0,-8,7,11,-2,-29,-21,-17
-6,-9,-4,8,-1,-6,7,13,-2,-27,-20,-17
-6,-9,-4,8,-1,-6,7,14,-2,-25,-20,-16
-5,-10,-5,8,0,-7,7,14,-2,-24,-20,-16
-4,-10,-7,7,1,-8,8,15,-2,-22,-20,-16
-3,-10,-8,6,2,-9,10,17,-1,-19,-19,-16
-3,-10,-8,5,2,-9,11,19,-1,-16,-18,-15
-3,-10,-7,6,2,-9,12,21,-1,-14,-17,-15
-3,-11,-8,7,2,-10,13,21,-2,-13,-17,-15
-3,-11,-8,7,2,-10,13,21,-3,-11,-17,-15
-3,-11,-7,7,1,-9,14,21,-3,-9,-16,-14
-4,-10,-6,7,0,-8,14,22,-2,-8,-15,-13
-5,-10,-5,7,0,-7,14,23,-2,-7,-14,-13
-4,-10,-6,7,0,-7,14,23,-3,-6,-14,-13
-4,-9,-5,6,1,-7,14,23,-3,-6,-13,-13
-3,-8,-4,5,1,-6,14,23,-3,-4,-12,-13
-2,-7,-4,4,1,-5,15,23,-2,-3,-11,-12
-1,-6,-4,3,2,-5,16,23,-2,-2,-10,-11
0,-6,-5,3,2,-5,16,22,-3,-2,-10,-11
-2,-6,-4,4,1,-5,16,22,-3,-2,-10,-11
-3,-7,-4,5,0,-5,15,21,-4,-1,-10,-11
-1,-6,-4,4,2,-5,15,20,-4,-1,-10,-11
2,-3,-5,1,3,-4,16,20,-4,-1,-9,-10
1,-3,-5,1,3,-4,16,19,-4,0,-9,-10
0,-5,-5,3,2,-5,15,18,-5,-1,-9,-10
-1,-7,-5,4,1,-6,14,16,-5,-1,-10,-11
-2,-8,-6,5,1,-6,13,15,-6,-1,-10,-11
-3,-9,-6,6,1,-7,13,14,-6,-1,-10,-11
-3,-9,-6,6,1,-7,12,13,-6,-1,-10,-11
-3,-9,-6,6,2,-7,11,12,-5,-1,-11,-11
-5,-9,-4,7,0,-6,10,11,-4,-1,-11,-11
-7,-10,-2,8,-2,-6,10,11,-2,0,-10,-11
-7,-10,-3,9,-2,-7,9,9,-1,0,-10,-11
-6,-10,-4,8,-1,-7,7,7,-1,0,-11,-11
-5,-10,-5,7,0,-7,6,5,0,0,-11,-11
-4,-9,-5,7,0,-7,5,5,1,0,-10,-11
-3,-8,-5,6,0,-6,5,6,2,0,-10,-10
-3,-9,-6,7,1,-7,3,5,1,0,-10,-11
-5,-11,-6,8,0,-8,2,4,1,-1,-11,-12
-6,-11,-4,9,-1,-7,2,5,2,0,-10,-11
-7,-10,-3,8,-2,-6,2,5,2,0,-10,-11
-6,-9,-2,8,-2,-6,1,4,2,0,-10,-11
-6,-10,-2,9,-2,-6,1,4,2,0,-10,-11
-6,-9,-2,8,-2,-6,2,5,3,0,-10,-11
-5,-9,-3,7,-1,-6,2,5,3,0,-10,-10
-6,-10,-4,8,-1,-6,1,4,3,0,-10,-11
-7,-10,-3,9,-2,-7,1,4,3,0,-10,-11
-6,-9,-3,8,-2,-6,1,4,4,1,-9,-11
-5,-7,-1,6,-2,-5,1,5,5,2,-8,-10
-7,-7,0,7,-4,-4,1,5,5,3,-8,-10
-8,-7,0,7,-4,-4,1,5,6,3,-8,-10
-7,-7,0,8,-4,-4,0,5,6,3,-8,-9
-6,-7,0,8,-3,-4,0,5,7,3,-7,-9
-5,-6,-1,7,-2,-3,0,5,7,4,-7,-9
-6,-7,-1,7,-2,-4,-2,4,7,3,-7,-9
-8,-9,-1,9,-3,-5,-3,3,6,3,-8,-10
-7,-9,-1,8,-2,-5,-3,4,6,3,-8,-10
-4,-7,-2,6,-1,-5,-2,5,7,4,-7,-10
-3,-6,-2,4,-1,-4,-1,6,9,5,-6,-9
-2,-5,-2,3,0,-3,0,7,10,6,-6,-8
-2,-4,-1,3,0,-3,0,7,10,7,-5,-7
-4,-5,-1,4,-1,-2,0,6,11,7,-5,-7
-4,-5,0,5,-2,-2,0,6,11,7,-5,-8
-2,-3,0,2,-1,-1,1,7,11,8,-5,-7
0,0,0,0,0,0,1,8,12,9,-4,-7
-1,-2,0,1,0,-1,0,7,11,9,-4,-7
-4,-4,0,4,-2,-2,-1,6,10,8,-5,-7
-4,-4,0,4,-2,-2,-2,5,10,9,-4,-7
-2,-2,0,2,-1,-1,-2,5,11,12,-2,-6
-1,0,0,1,0,0,-1,6,13,17,1,-3
-1,0,1,0,-1,1,-1,7,15,22,4,0
0,1,1,0,0,1,-1,8,18,28,9,3
2,4,2,-3,0,3,-2,8,21,35,14,7
2,6,4,-4,-1,5,-2,9,26,44,21,12
1,9,9,-5,-4,9,-3,9,31,55,30,19
1,13,13,-7,-7,13,-4,10,36,67,40,26
1,18,18,-9,-8,18,-4,10,40,80,51,35
3,24,21,-13,-9,23,-5,11,44,93,62,44
4,28,24,-16,-9,26,-6,10,45,103,71,52
5,31,26,-18,-10,29,-9,7,44,111,80,60
7,35,27,-21,-10,31,-12,3,41,116,89,68
11,40,29,-26,-9,34,-16,-1,35,120,99,77
14,46,31,-30,-9,38,-21,-7,30,126,111,88
18,52,33,-35,-8,42,-26,-14,25,132,124,101
23,58,34,-40,-6,46,-32,-22,19,139,137,113
27,63,35,-45,-4,49,-39,-29,12,145,149,126
31,68,36,-49,-2,52,-45,-36,4,150,160,137
36,73,36,-54,0,54,-50,-42,-2,155,171,147
40,78,37,-59,1,58,-54,-48,-6,160,181,158
43,82,39,-63,2,60,-58,-54,-9,165,188,166
46,85,40,-65,2,62,-61,-60,-12,166,193,172
47,87,41,-67,2,63,-63,-66,-16,164,194,176
47,89,41,-68,3,64,-65,-72,-21,157,191,177
47,88,41,-67,2,64,-67,-79,-29,143,183,175
43,86,42,-65,0,64,-67,-85,-38,124,172,169
40,84,42,-62,-1,63,-67,-90,-47,102,158,161
38,80,42,-59,-1,61,-66,-94,-54,77,143,151
32,73,41,-53,-4,57,-64,-95,-59,51,125,138
25,65,41,-45,-8,53,-59,-93,-61,25,106,123
16,57,42,-36,-13,49,-53,-86,-59,3,87,105
7,48,42,-27,-17,45,-44,-76,-53,-14,68,86
2,40,38,-21,-18,39,-35,-63,-45,-24,48,66
2,33,30,-17,-14,32,-26,-49,-34,-28,29,45
0,25,25,-12,-13,25,-16,-34,-23,-29,13,25
-5,16,21,-5,-13,19,-6,-19,-12,-28,0,9
-7,9,16,0,-12,12,1,-7,-3,-26,-9,-3
-8,3,12,3,-10,7,7,2,4,-24,-16,-12
-10,-2,9,6,-9,3,12,9,9,-22,-20,-18
-11,-6,4,9,-8,-1,14,13,12,-21,-23,-23
-12,-10,1,11,-6,-5,16,15,14,-20,-25,-26
-12,-13,-1,12,-5,-7,16,16,15,-18,-27,-27
-11,-13,-3,12,-4,-8,16,17,15,-17,-28,-29
-10,-13,-4,12,-3,-8,16,17,16,-17,-28,-30
-10,-13,-4,11,-3,-8,17,18,17,-16,-29,-30
-9,-13,-4,11,-2,-9,16,18,17,-17,-29,-31
-9,-14,-5,11,-1,-10,16,17,17,-17,-29,-32
-9,-15,-5,12,-1,-11,15,17,17,-16,-29,-31
-8,-14,-6,11,-1,-11,15,18,17,-16,-28,-31
-5,-13,-7,10,1,-11,14,18,16,-15,-28,-31
-4,-12,-8,9,1,-11,14,18,16,-15,-28,-30
-6,-13,-7,10,0,-10,15,17,17,-15,-28,-30
-6,-13,-6,10,0,-10,15,17,19,-15,-27,-30
-4,-11,-7,8,2,-10,15,17,21,-14,-27,-29
-2,-10,-7,6,2,-9,15,17,23,-14,-26,-29
-5,-12,-6,8,0,-9,13,15,24,-15,-27,-29
-7,-13,-6,10,-1,-9,12,14,23,-16,-27,-29
-6,-12,-6,9,0,-9,12,13,21,-17,-27,-29
-4,-11,-8,8,1,-10,11,13,18,-17,-27,-29
-4,-11,-8,8,1,-10,11,13,17,-17,-26,-29
-4,-11,-7,8,1,-9,11,13,15,-17,-26,-29
-5,-12,-7,8,1,-10,10,13,13,-18,-26,-29
-4,-12,-7,8,2,-10,9,13,12,-18,-26,-29
-4,-11,-6,7,1,-9,10,13,12,-17,-25,-29
-5,-11,-6,8,0,-9,9,12,11,-17,-25,-28
-6,-12,-6,9,0,-10,8,10,10,-18,-26,-29
-5,-13,-7,10,0,-10,7,9,9,-18,-26,-29
-5,-13,-8,10,1,-10,7,9,9,-18,-26,-29
-5,-13,-8,10,1,-10,7,9,9,-19,-27,-29
-4,-14,-8,9,2,-11,8,10,9,-18,-27,-29
-4,-14,-9,9,2,-11,8,11,9,-18,-27,-29
-4,-14,-9,9,2,-12,8,12,9,-18,-27,-29
-3,-14,-9,8,2,-12,8,13,9,-17,-26,-29
-2,-12,-10,7,3,-11,9,14,10,-16,-25,-28
0,-10,-10,5,4,-11,10,15,11,-15,-24,-27
0,-10,-10,5,4,-10,10,15,11,-14,-23,-26
0,-9,-9,5,3,-9,11,16,12,-14,-23,-26
-3,-10,-7,7,1,-9,11,16,12,-14,-23,-26
-7,-12,-6,9,0,-9,10,15,11,-15,-24,-26
-7,-13,-6,10,0,-9,9,15,11,-15,-24,-27
-7,-13,-6,10,0,-9,10,15,11,-15,-24,-27
-7,-13,-6,10,0,-9,11,16,11,-15,-24,-26
-7,-13,-6,10,-1,-9,12,17,12,-14,-23,-26
-7,-12,-5,10,-1,-9,12,18,11,-14,-23,-26
-9,-13,-5,11,-2,-9,11,17,11,-15,-24,-26
-9,-13,-4,11,-2,-9,11,17,11,-16,-24,-26
-6,-10,-4,8,0,-7,12,19,11,-15,-23,-26
-4,-9,-3,6,0,-6,12,20,12,-15,-23,-26
-6,-10,-3,8,-1,-7,12,21,11,-16,-23,-26
-7,-12,-4,9,-1,-8,11,21,10,-17,-24,-27
-6,-13,-6,10,0,-10,11,21,10,-18,-24,-27
-8,-14,-5,11,-1,-10,12,21,10,-18,-24,-27
-7,-13,-5,11,-1,-10,12,21,10,-18,-25,-27
-5,-12,-7,9,0,-10,12,22,9,-20,-26,-28
-4,-12,-8,8,1,-10,12,22,9,-21,-26,-29
-3,-11,-7,7,1,-9,14,23,10,-21,-26,-29
-4,-11,-6,7,1,-8,15,24,11,-20,-25,-28
-5,-11,-6,8,0,-8,16,24,11,-21,-25,-28
-3,-11,-7,7,1,-8,16,25,11,-21,-25,-28
-3,-10,-6,6,1,-7,17,26,13,-21,-25,-27
-5,-9,-4,7,0,-6,17,26,14,-21,-25,-27
-6,-10,-3,8,-2,-6,16,25,13,-22,-25,-27
-7,-10,-3,8,-2,-6,15,24,13,-23,-26,-28
-8,-10,-2,8,-2,-6,15,23,12,-24,-27,-28
-8,-10,-2,9,-3,-6,14,23,12,-25,-27,-28
-9,-10,-1,9,-3,-6,14,24,12,-27,-28,-29
-10,-11,-1,10,-4,-6,14,24,12,-28,-28,-29
-10,-12,-2,11,-4,-7,14,24,12,-30,-29,-30
-10,-12,-2,11,-4,-7,14,23,12,-31,-30,-30
-11,-12,-1,11,-5,-6,14,22,12,-32,-31,-31
-12,-12,0,12,-6,-6,14,21,11,-34,-33,-32
-13,-13,0,13,-6,-6,14,20,10,-36,-35,-33
-13,-14,-1,13,-6,-7,14,19,9,-38,-36,-34
-14,-15,-1,14,-6,-8,14,18,8,-40,-38,-35
-13,-14,-1,14,-5,-8,14,18,8,-41,-38,-36
-10,-11,-1,11,-4,-6,15,19,8,-41,-38,-35
-8,-10,-1,10,-3,-6,15,19,8,-42,-39,-36
-8,-10,-2,10,-3,-6,14,17,6,-44,-40,-37
-6,-10,-3,9,-2,-7,13,16,5,-46,-42,-39
-6,-10,-4,8,-1,-7,12,15,5,-48,-43,-40
-7,-11,-4,9,-2,-8,12,14,5,-48,-44,-40
-8,-12,-4,10,-2,-8,12,14,5,-49,-44,-40
-8,-13,-4,11,-2,-9,11,13,4,-49,-45,-40
-10,-15,-4,12,-3,-10,10,12,4,-49,-45,-41
-10,-16,-4,13,-3,-10,10,11,4,-48,-45,-41
-7,-13,-5,10,-2,-9,10,12,5,-47,-44,-40
-3,-9,-5,6,0,-8,11,12,6,-45,-43,-39
-4,-9,-4,6,0,-7,11,11,5,-44,-42,-39
-6,-10,-3,7,-1,-7,9,10,5,-43,-42,-38
-6,-10,-3,8,-1,-7,8,9,5,-42,-42,-38
-6,-11,-4,8,0,-7,7,8,5,-41,-41,-38
-7,-12,-4,10,-1,-8,6,8,5,-40,-41,-37
-8,-13,-4,10,-2,-8,6,8,6,-38,-39,-37
-7,-12,-4,9,-2,-8,6,8,7,-36,-38,-36
-8,-14,-5,11,-2,-9,5,7,7,-35,-38,-36
-10,-17,-5,13,-3,-11,3,5,6,-35,-38,-36
-10,-17,-6,13,-2,-12,2,5,7,-32,-37,-35
-9,-16,-5,12,-2,-11,3,6,8,-29,-34,-33
-10,-15,-4,12,-3,-9,3,7,9,-27,-32,-31
-11,-14,-3,12,-4,-8,3,7,10,-24,-31,-29
-10,-13,-2,12,-4,-7,3,8,11,-22,-29,-28
-9,-11,-2,10,-3,-6,4,8,12,-19,-28,-27
-8,-10,-2,9,-3,-6,3,8,13,-17,-27,-26
-9,-10,-1,9,-4,-6,2,7,13,-16,-26,-26
-8,-8,0,8,-4,-4,2,8,15,-14,-25,-24
-5,-5,0,5,-3,-2,3,9,16,-12,-23,-22
-2,-4,-1,3,-1,-2,3,10,17,-11,-22,-21
-2,-4,-1,3,0,-2,3,9,17,-11,-21,-21
-3,-4,-1,4,-1,-3,3,9,18,-10,-21,-20
-4,-5,0,5,-2,-3,3,9,18,-9,-20,-20
-5,-6,0,5,-3,-3,3,9,19,-8,-20,-20
-6,-6,0,6,-4,-3,3,9,19,-7,-19,-19
-7,-6,1,6,-5,-2,3,10,20,-5,-18,-18
-7,-5,3,5,-5,-1,4,11,21,-3,-16,-16
-7,-4,4,5,-5,0,5,12,23,-1,-14,-15
-6,-3,4,4,-5,0,6,13,25,0,-13,-13
-7,-3,4,5,-5,0,6,14,26,1,-12,-13
-7,-3,3,5,-5,0,6,14,26,2,-12,-13
-4,-3,1,3,-3,0,6,14,27,2,-12,-13
-2,-2,0,2,-2,-1,6,14,27,2,-12,-13
-3,-3,0,2,-2,-1,5,14,26,2,-12,-13
-3,-3,0,3,-2,-1,5,15,26,2,-12,-13
-4,-3,0,3,-2,-1,5,15,27,2,-12,-12
-4,-3,1,3,-2,0,5,16,28,3,-11,-12
-4,-2,2,3,-2,0,6,17,28,3,-10,-11
-2,-1,1,2,-2,0,6,17,28,3,-10,-12
-1,0,0,1,-1,0,6,16,27,2,-11,-12
0,-1,0,1,-1,0,6,16,27,2,-11,-12
-1,-2,0,1,-2,0,6,17,28,3,-11,-12
-2,-1,1,1,-2,0,7,19,30,5,-10,-11
0,0,0,0,0,0,8,20,31,6,-9,-11
0,-1,-1,0,1,-1,8,21,31,6,-9,-11
-2,-4,-2,3,0,-3,7,21,30,6,-9,-11
-3,-6,-2,5,0,-4,7,21,31,5,-10,-12
-3,-5,-2,4,0,-3,8,22,32,6,-9,-12
-2,-4,-2,4,0,-3,8,22,33,5,-10,-12
-2,-5,-3,4,0,-3,8,22,32,5,-10,-12
0,-4,-3,2,1,-3,9,23,32,6,-9,-12
1,-2,-3,1,2,-3,9,24,32,6,-8,-11
2,-2,-4,0,3,-4,9,24,32,6,-8,-11
3,-2,-5,0,4,-4,9,24,32,6,-8,-11
3,-2,-5,0,4,-4,9,24,32,6,-8,-11
1,-3,-5,1,3,-4,9,25,33,6,-8,-11
1,-3,-4,1,3,-4,10,26,35,6,-8,-11
1,-2,-4,1,2,-3,10,26,39,6,-8,-11
1,-2,-3,0,2,-3,11,26,43,6,-7,-10
0,-2,-3,1,1,-3,10,26,46,6,-7,-10
0,-3,-3,1,1,-3,10,25,46,5,-8,-11
1,-3,-4,0,3,-3,9,24,46,5,-7,-10
4,-1,-5,-1,5,-3,9,24,46,5,-7,-10
3,-1,-4,-1,4,-3,9,23,46,5,-7,-9
1,-2,-3,0,2,-2,8,23,45,5,-7,-9
2,-1,-3,0,2,-1,8,22,43,4,-7,-9
5,2,-3,-4,4,0,8,22,41,5,-6,-9
6,3,-3,-4,4,0,8,23,39,5,-6,-9
6,3,-2,-4,4,0,8,22,38,4,-6,-10
7,2,-3,-5,5,0,7,21,37,3,-7,-10
6,1,-4,-3,5,-1,5,19,36,2,-8,-11
5,0,-5,-2,5,-2,5,18,35,1,-8,-11
5,0,-5,-2,5,-2,5,18,33,1,-8,-11
6,1,-5,-3,5,-2,5,19,32,1,-7,-10
5,1,-4,-3,4,-2,5,19,31,1,-7,-10
5,1,-4,-3,4,-2,5,20,31,1,-6,-10
4,1,-4,-3,4,-2,5,20,30,1,-6,-9
3,0,-3,-1,3,-2,4,19,28,1,-6,-10
2,-1,-3,0,3,-3,3,17,26,0,-6,-10
4,0,-4,-2,4,-2,3,17,24,0,-6,-10
6,1,-4,-3,4,-1,2,16,23,0,-5,-9
5,0,-4,-2,4,-2,0,15,20,0,-6,-10
3,-2,-5,0,4,-4,-1,13,18,-2,-8,-12
3,-3,-6,0,5,-5,-2,13,17,-2,-8,-13
3,-3,-7,0,5,-5,-2,14,17,-2,-8,-13
4,-3,-7,0,6,-5,-2,13,17,-2,-8,-13
4,-4,-7,0,6,-5,-3,12,16,-3,-8,-13
3,-4,-7,0,5,-5,-4,12,15,-3,-8,-13
3,-3,-6,0,5,-4,-3,13,15,-2,-7,-12
2,-3,-5,1,4,-4,-3,12,14,-2,-6,-11
2,-2,-5,1,3,-4,-4,11,13,-3,-6,-11
3,-1,-5,0,4,-3,-4,11,12,-2,-6,-11
4,0,-6,-2,5,-3,-5,12,12,-2,-6,-11
5,0,-5,-2,5,-2,-5,12,12,-2,-6,-12
5,0,-5,-3,5,-2,-6,11,11,-2,-6,-12
7,0,-6,-4,7,-3,-6,11,11,-2,-5,-11
7,0,-7,-3,7,-3,-6,11,10,-2,-5,-11
5,-2,-6,-2,6,-4,-6,10,9,-2,-4,-10
5,-2,-6,-1,5,-4,-7,10,9,-2,-4,-10
6,-2,-7,-2,6,-4,-7,10,8,-1,-3,-9
6,-1,-8,-2,7,-4,-7,10,8,0,-2,-9
6,-1,-8,-3,7,-4,-7,11,8,1,-1,-8
7,0,-7,-3,7,-3,-7,11,9,4,1,-6
5,0,-5,-3,5,-2,-7,12,10,8,4,-3
5,1,-4,-3,4,-1,-7,12,11,13,9,0
7,3,-4,-6,6,0,-7,12,12,19,13,3
9,4,-5,-7,8,0,-8,11,13,26,19,7
10,6,-3,-8,7,1,-8,12,17,36,26,13
11,11,0,-11,5,6,-7,14,22,49,36,21
12,17,5,-14,3,11,-8,14,26,61,47,29
12,21,10,-16,1,15,-9,13,28,73,57,38
13,26,13,-19,0,19,-11,11,30,85,68,46
14,29,15,-22,0,22,-14,9,30,96,78,55
16,33,16,-25,0,24,-16,6,27,104,88,63
17,37,18,-27,0,28,-20,1,22,109,98,73
18,41,22,-30,-1,31,-24,-5,16,114,109,83
20,47,26,-33,-2,36,-29,-13,9,119,121,95
24,54,30,-39,-2,42,-34,-21,2,125,134,107
28,60,32,-44,-1,46,-40,-29,-5,131,147,120
30,65,34,-47,-1,50,-46,-35,-12,137,162,133
32,70,37,-51,-2,54,-50,-39,-19,144,176,147
39,76,37,-58,0,57,-54,-45,-27,150,188,159
45,82,36,-64,4,59,-58,-51,-34,153,198,170
50,87,37,-69,6,62,-61,-56,-39,155,205,178
54,92,38,-74,8,65,-63,-61,-43,154,209,184
56,95,39,-75,8,67,-64,-67,-47,148,207,187
55,94,39,-74,8,67,-67,-74,-53,136,200,185
53,93,39,-73,7,67,-69,-80,-61,117,189,179
49,91,40,-69,4,66,-69,-85,-69,94,174,170
42,87,43,-64,0,66,-68,-90,-77,67,156,159
35,82,46,-59,-5,65,-66,-93,-83,39,137,146
28,77,47,-53,-9,63,-64,-95,-88,12,115,130
21,69,48,-45,-13,59,-60,-93,-88,-13,93,111
15,61,47,-38,-15,54,-55,-88,-86,-32,71,91
10,53,43,-32,-16,48,-48,-77,-80,-44,52,70
7,45,38,-26,-15,41,-40,-63,-71,-48,35,50
2,34,32,-18,-15,33,-31,-48,-60,-48,19,31
0,24,25,-11,-13,25,-22,-33,-50,-46,5,13
-1,16,18,-7,-11,18,-13,-19,-39,-41,-4,0
-2,10,12,-4,-8,12,-6,-7,-31,-36,-10,-9
-2,5,7,-2,-5,7,0,1,-24,-32,-15,-16
-1,1,2,0,-2,2,3,7,-20,-29,-18,-21
-2,-1,1,1,-1,0,7,12,-16,-26,-19,-24
-4,-3,1,3,-2,-1,9,16,-13,-24,-19,-25
-6,-6,0,6,-3,-3,10,19,-11,-22,-20,-26
-8,-9,-1,8,-3,-5,11,20,-10,-21,-20,-27
-7,-10,-2,8,-2,-6,11,22,-10,-20,-20,-27
-5,-8,-3,6,-1,-6,12,23,-9,-19,-19,-26
-4,-8,-4,5,0,-5,12,23,-9,-18,-19,-26
-5,-9,-4,6,0,-6,11,22,-10,-17,-20,-27
-5,-8,-4,6,0,-6,11,22,-10,-16,-20,-27
-4,-7,-4,5,1,-5,10,22,-10,-16,-19,-27
-4,-8,-3,6,0,-5,9,22,-11,-16,-19,-27
-5,-9,-4,7,0,-6,8,21,-12,-16,-19,-27
-5,-10,-4,7,0,-6,7,21,-13,-16,-18,-26
-6,-10,-4,8,-1,-6,7,21,-13,-15,-17,-26
-7,-10,-3,8,-2,-6,7,21,-13,-15,-17,-25
-6,-11,-4,8,-2,-7,7,21,-13,-15,-17,-25
-5,-10,-5,7,0,-7,7,21,-13,-14,-17,-25
-3,-8,-5,6,1,-6,8,22,-13,-14,-16,-25
-3,-8,-4,6,1,-6,8,22,-13,-14,-16,-25
-4,-8,-3,6,0,-5,8,22,-13,-14,-16,-25
-4,-7,-3,6,0,-5,9,23,-14,-14,-15,-24
-2,-6,-3,4,0,-4,9,23,-14,-13,-14,-23
-2,-6,-4,4,1,-5,9,23,-14,-13,-14,-23
-4,-8,-3,6,0,-6,8,22,-15,-13,-14,-24
-7,-10,-2,8,-2,-6,7,21,-14,-13,-14,-24
-8,-10,-2,9,-2,-6,7,21,-13,-12,-14,-23
-7,-10,-2,8,-2,-6,6,21,-11,-12,-14,-23
-7,-9,-2,8,-1,-6,5,21,-10,-12,-14,-23
-5,-8,-2,6,-1,-5,5,21,-9,-12,-13,-22
-4,-7,-2,5,-1,-5,5,22,-7,-11,-12,-21
-4,-6,-3,4,0,-4,5,23,-6,-11,-12,-21
-3,-7,-3,4,0,-4,4,23,-5,-12,-12,-22
-4,-7,-3,5,0,-4,3,22,-4,-12,-12,-22
-4,-7,-3,5,0,-4,3,22,-4,-13,-13,-23
-3,-5,-3,4,0,-4,4,22,-3,-12,-12,-22
0,-4,-4,2,2,-4,4,23,-2,-12,-12,-22
1,-4,-5,2,3,-4,4,22,-3,-13,-12,-22
0,-5,-5,3,2,-5,3,21,-2,-13,-13,-22
0,-5,-4,3,2,-4,3,22,-2,-13,-12,-22
0,-4,-4,2,1,-4,4,23,-1,-13,-12,-21
0,-3,-3,1,1,-3,5,24,0,-12,-10,-20
0,-1,-1,1,1,-1,6,25,1,-10,-9,-19
-2,-2,0,2,0,-1,5,25,2,-10,-9,-18
-3,-3,0,4,-1,-2,4,25,1,-11,-9,-18
-2,-2,0,3,0,-2,3,25,1,-11,-9,-18
0,-1,-1,1,0,-1,4,27,2,-11,-9,-18
-1,-2,-1,2,0,-2,4,28,3,-11,-8,-17
-3,-4,0,3,-1,-2,5,27,3,-11,-8,-17
-4,-4,0,4,-2,-1,5,27,4,-11,-8,-17
-3,-3,0,4,-1,-1,5,26,3,-11,-9,-17
-2,-2,0,3,0,0,4,26,3,-11,-9,-17
0,-1,0,1,0,0,5,26,4,-11,-8,-16
2,0,-2,0,2,-1,4,26,4,-12,-9,-16
2,-1,-3,0,3,-3,3,25,3,-13,-10,-17
1,-3,-4,1,3,-5,3,25,3,-14,-11,-18
1,-4,-5,1,3,-5,3,26,3,-14,-10,-18
0,-4,-5,1,2,-5,3,27,3,-14,-10,-18
0,-5,-5,2,3,-5,3,27,2,-15,-11,-18
0,-5,-5,2,3,-5,3,27,2,-15,-11,-17
0,-5,-4,2,3,-5,4,28,2,-15,-11,-17
-1,-5,-3,3,2,-5,4,28,2,-15,-11,-17
-1,-6,-3,3,2,-5,5,29,2,-16,-12,-17
0,-5,-4,2,2,-5,5,30,2,-17,-12,-17
1,-5,-5,1,3,-5,6,31,2,-18,-12,-17
0,-5,-5,2,2,-5,6,32,1,-19,-12,-17
0,-4,-5,1,2,-5,7,33,1,-21,-13,-18
0,-4,-6,1,3,-5,7,33,0,-23,-14,-18
-1,-5,-5,3,2,-5,8,34,0,-25,-15,-19
-3,-6,-3,4,0,-4,10,34,1,-26,-15,-19
-3,-6,-3,4,0,-4,10,34,0,-28,-15,-19
-2,-6,-3,4,0,-5,10,34,0,-30,-17,-20
-4,-7,-2,6,-1,-5,9,34,0,-32,-17,-20
-6,-7,-1,7,-3,-4,9,34,0,-33,-17,-21
-5,-6,-1,6,-2,-3,10,33,0,-34,-17,-20
-4,-5,-1,5,-1,-3,10,32,0,-35,-18,-20
-5,-5,-1,5,-1,-3,9,30,-1,-36,-19,-21
-6,-6,0,6,-2,-2,9,30,-1,-37,-19,-21
-6,-6,1,6,-2,-2,9,29,-1,-38,-19,-21
-4,-5,0,5,-1,-2,8,27,-3,-40,-20,-21
-4,-6,-1,5,-1,-3,7,26,-4,-42,-22,-23
-5,-7,-1,6,-2,-4,7,24,-6,-44,-23,-24
-6,-7,-2,7,-2,-4,6,23,-7,-45,-24,-25
-7,-8,-2,7,-3,-5,5,22,-8,-46,-25,-26
-9,-9,0,9,-4,-5,5,21,-8,-46,-26,-26
-10,-10,0,10,-5,-5,5,21,-8,-47,-26,-27
-9,-10,0,9,-4,-5,4,20,-8,-47,-27,-27
-8,-11,-1,9,-4,-6,4,19,-8,-47,-27,-28
-8,-10,-1,9,-4,-6,4,19,-7,-45,-26,-27
-7,-9,-1,8,-4,-5,5,19,-6,-42,-25,-26
-5,-8,-2,6,-2,-5,5,19,-6,-41,-24,-25
-5,-9,-4,7,-1,-7,3,17,-7,-40,-25,-26
-9,-12,-3,11,-3,-8,3,16,-7,-39,-25,-27
-13,-14,-2,13,-6,-8,3,16,-6,-37,-24,-26
-13,-15,-1,14,-6,-8,3,16,-5,-35,-24,-26
-12,-15,-2,13,-5,-8,3,16,-4,-34,-23,-25
-12,-15,-3,13,-4,-9,3,16,-4,-32,-23,-25
-11,-14,-3,13,-4,-9,3,16,-3,-30,-22,-24
-8,-12,-4,11,-2,-8,3,16,-2,-28,-21,-23
-5,-10,-5,8,0,-8,3,16,-1,-26,-19,-22
-5,-10,-4,8,-1,-7,3,16,0,-23,-18,-21
-5,-9,-3,7,-1,-7,4,15,0,-21,-16,-20
-4,-8,-3,5,0,-6,5,15,1,-18,-15,-19
-4,-7,-3,5,0,-5,5,15,2,-16,-14,-18
-4,-6,-2,5,-1,-4,5,14,2,-15,-13,-17
-4,-6,-2,5,-1,-4,5,13,3,-14,-13,-16
-4,-7,-2,5,-1,-4,4,12,4,-12,-12,-16
-4,-6,-2,5,-1,-3,4,13,5,-10,-10,-14
-4,-5,-1,5,-1,-3,3,12,5,-9,-9,-13
-4,-6,-2,5,-1,-4,1,11,4,-9,-9,-13
-5,-6,-2,6,-1,-4,0,10,4,-8,-9,-13
-6,-7,-1,6,-2,-4,1,10,5,-7,-8,-12
-7,-7,1,7,-4,-3,1,10,6,-6,-7,-12
-8,-7,1,7,-5,-2,1,10,7,-5,-7,-12
-7,-6,1,7,-4,-2,1,10,7,-5,-6,-11
-7,-6,1,7,-4,-2,1,11,8,-4,-6,-11
-7,-5,1,6,-4,-2,1,11,8,-4,-5,-10
-5,-5,0,6,-2,-3,1,10,8,-4,-5,-10
-5,-5,-1,5,-2,-3,0,10,8,-4,-5,-10
-6,-4,1,5,-3,-2,1,11,9,-3,-4,-9
-7,-3,3,5,-5,0,1,12,10,-2,-4,-8
-7,-3,4,5,-5,0,1,12,11,-2,-4,-8
-6,-3,3,4,-5,0,2,13,11,-1,-3,-8
-5,-2,4,4,-5,1,4,14,12,0,-2,-7
-6,-2,5,4,-5,2,4,15,13,1,-1,-6
-5,-1,5,4,-5,2,4,16,13,1,0,-6
-4,-1,4,3,-4,1,4,16,13,1,0,-6
-4,-1,3,3,-4,1,4,17,13,2,0,-6
-4,-1,4,3,-4,1,5,18,14,2,0,-5
-3,0,4,1,-4,2,6,19,14,3,0,-4
-3,1,5,0,-4,3,6,19,15,3,0,-4
-5,0,5,2,-5,3,5,18,15,3,0,-5
-6,-2,5,4,-6,2,5,18,15,3,0,-5
-7,-2,6,4,-6,2,5,18,15,4,1,-4
-6,-1,6,4,-6,3,5,18,16,5,2,-3
-6,0,6,3,-6,3,5,18,16,5,2,-3
-6,-1,5,3,-5,2,5,18,15,4,1,-3
-5,-1,4,3,-5,1,5,19,15,4,2,-3
-4,-1,4,2,-4,1,6,21,16,5,2,-2
-5,-2,3,3,-4,1,6,21,16,5,2,-2
-6,-3,4,4,-5,1,6,21,16,6,2,-2
-6,-2,5,4,-5,2,7,22,16,6,3,-2
-5,-1,4,3,-4,2,7,22,16,6,3,-2
-5,-1,4,3,-4,1,7,22,15,6,2,-2
-3,0,3,1,-3,2,7,23,16,7,3,-2
-1,2,3,0,-2,2,7,24,17,7,3,-1
-2,0,2,1,-3,1,7,25,17,7,3,-1
-4,-2,3,3,-4,0,8,26,17,8,3,-1
-5,-3,3,4,-5,0,8,28,18,8,3,-1
-5,-2,3,4,-4,0,9,29,17,9,3,-1
-4,-1,3,3,-4,1,9,30,17,9,3,-1
-5,0,5,3,-5,2,10,30,17,9,3,-1
-5,0,6,3,-6,3,10,30,17,8,3,-1
-4,0,5,2,-5,2,9,30,17,8,2,-1
-3,-1,3,2,-4,1,9,30,17,7,2,-2
-5,-2,4,3,-5,0,10,31,17,7,2,-2
-7,-2,5,5,-6,1,11,31,17,7,2,-2
-6,-1,6,3,-6,2,11,31,17,7,2,-2
-3,2,5,0,-4,3,12,31,18,7,3,-1
-1,3,5,-1,-3,3,11,31,17,7,3,-1
0,3,4,-1,-2,3,10,29,17,6,2,-2
1,3,3,-2,-1,2,10,28,17,6,2,-2
1,3,2,-2,-1,2,9,27,16,5,2,-2
3,3,0,-3,0,1,8,26,15,5,2,-2
5,3,-1,-4,3,1,7,24,15,4,1,-2
6,4,-1,-5,3,2,6,23,14,4,1,-2
5,4,0,-5,2,2,6,23,14,4,1,-2
4,4,1,-4,2,2,5,23,13,4,1,-3
3,3,0,-3,1,1,4,22,12,3,0,-4
3,3,0,-3,1,1,4,21,11,2,0,-4
5,5,0,-5,2,2,3,21,10,2,0,-4
7,5,-1,-6,3,2,2,21,10,2,0,-4
6,3,-2,-5,4,0,0,19,9,1,-1,-5
5,1,-4,-3,4,-2,-1,17,8,0,-3,-6
5,0,-6,-2,6,-3,-3,14,6,-1,-4,-7
6,0,-8,-2,7,-4,-4,13,6,-1,-4,-7
6,0,-7,-3,6,-3,-4,13,6,-1,-3,-6
6,1,-6,-3,6,-3,-5,12,5,-1,-3,-6
5,0,-6,-2,5,-3,-6,12,4,-2,-4,-7
4,-1,-6,-1,5,-4,-7,11,3,-3,-5,-7
5,-1,-6,-1,5,-4,-7,12,3,-3,-5,-7
6,-1,-6,-2,6,-3,-8,12,3,-2,-5,-6
5,-1,-6,-2,5,-3,-7,12,3,-2,-4,-6
3,-2,-4,-1,3,-3,-7,13,4,-1,-4,-5
3,-2,-4,0,3,-3,-7,13,3,-2,-4,-6
6,0,-7,-3,6,-4,-8,12,3,-2,-4,-6
8,0,-8,-4,8,-4,-8,13,3,-3,-4,-6
8,0,-8,-4,7,-4,-7,14,3,-2,-4,-6
7,-1,-7,-3,6,-4,-7,15,4,-2,-4,-6
6,-1,-6,-3,6,-4,-6,15,4,-1,-3,-5
6,-1,-6,-2,5,-3,-6,15,4,-1,-3,-5
5,-1,-5,-2,5,-3,-6,15,4,-1,-3,-5
5,0,-4,-3,5,-2,-6,15,4,-1,-3,-5
7,0,-5,-4,6,-2,-6,15,4,-1,-3,-5
7,0,-6,-4,7,-2,-6,15,3,-2,-4,-6
6,-1,-6,-3,6,-3,-7,14,3,-2,-4,-6
5,-1,-5,-2,5,-3,-8,14,3,-2,-5,-7
3,-2,-5,0,4,-3,-8,14,2,-3,-5,-7
2,-3,-5,0,4,-4,-9,14,2,-3,-6,-8
2,-3,-5,0,4,-4,-8,14,2,-3,-5,-7
0,-3,-4,1,2,-3,-7,15,4,-2,-4,-6
-1,-3,-2,2,0,-3,-6,16,5,-1,-3,-6
-1,-3,-2,2,0,-3,-5,16,5,-1,-3,-6
1,-2,-2,0,1,-2,-5,16,5,-1,-3,-6
4,0,-3,-2,3,-1,-4,17,6,0,-2,-5
6,1,-3,-4,4,0,-4,18,6,0,-1,-4
4,1,-3,-3,3,-1,-4,18,6,0,-1,-4
2,-1,-3,-1,2,-2,-4,18,6,0,-2,-5
2,-1,-4,-1,3,-2,-4,19,6,-1,-3,-5
3,-1,-4,-1,3,-2,-4,19,6,-1,-3,-5
0,-2,-3,1,1,-3,-4,19,6,-2,-3,-5
0,-3,-2,1,0,-2,-4,20,6,-1,-3,-5
1,-2,-3,0,1,-2,-3,20,7,-1,-2,-5
2,-2,-3,0,2,-2,-3,21,7,-1,-2,-5
1,-2,-2,0,1,-2,-3,21,7,-1,-3,-6
1,-2,-1,0,1,-1,-2,22,7,-1,-3,-6
0,-2,-1,0,1,-1,-1,23,8,-1,-3,-5
0,-2,-2,1,1,-2,-1,23,8,-2,-3,-5
1,-3,-3,1,2,-3,-1,23,7,-3,-3,-6
1,-3,-4,1,2,-4,-1,24,7,-3,-3,-6
2,-3,-5,0,3,-4,0,25,8,-3,-3,-6
2,-3,-5,1,3,-4,0,25,8,-3,-4,-6
1,-4,-6,2,3,-5,0,26,9,-3,-4,-7
4,-2,-6,0,4,-4,1,28,10,-2,-4,-6
7,0,-7,-4,7,-3,2,30,10,-2,-3,-6
7,0,-7,-3,7,-4,3,30,10,-2,-3,-6
4,-1,-5,-1,5,-4,4,31,12,-1,-2,-5
2,-1,-3,0,2,-2,6,33,13,0,-1,-4
1,-2,-3,1,1,-2,6,33,13,-1,-2,-5
-1,-4,-3,3,0,-4,6,34,13,-1,-3,-6
-2,-5,-3,4,0,-4,6,34,14,-1,-3,-6
0,-4,-4,3,1,-4,7,35,14,-1,-3,-6
2,-3,-5,0,3,-4,8,36,14,-1,-3,-6
2,-2,-4,0,3,-3,9,37,15,-1,-2,-5
2,-1,-4,-1,3,-3,9,37,15,-1,-2,-5
2,-2,-4,0,3,-4,10,37,15,-2,-3,-6
2,-3,-4,0,3,-4,10,38,15,-2,-3,-7
2,-2,-4,0,2,-3,10,39,15,-2,-3,-7
2,-2,-3,0,2,-2,11,39,15,-1,-3,-7
1,-2,-3,0,3,-3,10,38,14,-2,-4,-7
2,-3,-4,0,4,-4,9,36,12,-3,-5,-8
2,-3,-5,0,4,-4,9,35,11,-3,-5,-8
1,-3,-4,0,3,-4,8,35,10,-3,-5,-8
1,-3,-3,1,2,-4,8,35,11,-1,-3,-6
1,-3,-3,0,2,-3,8,34,12,0,-1,-5
2,-2,-4,0,3,-3,6,33,12,2,1,-3
3,-2,-3,0,3,-2,5,31,13,5,3,-1
2,-1,-2,0,2,-1,4,30,17,8,6,1
2,1,0,-1,1,0,3,29,21,13,11,4
3,4,1,-3,1,2,2,28,23,19,16,8
3,6,3,-4,0,4,1,27,25,27,22,13
1,7,6,-4,-2,6,0,26,27,37,31,20
1,10,10,-6,-4,10,0,26,31,49,41,28
3,16,14,-10,-5,15,-1,25,35,63,53,38
5,22,18,-13,-6,20,-4,23,38,76,65,47
6,27,21,-16,-7,24,-8,20,40,88,76,56
7,32,25,-19,-9,29,-11,17,40,99,87,66
7,36,29,-22,-10,33,-15,12,36,108,98,75
9,41,32,-24,-11,36,-20,5,29,114,109,85
11,46,34,-28,-11,40,-26,-2,20,119,120,96
15,52,37,-33,-11,44,-32,-10,12,126,133,108
20,59,39,-40,-9,49,-38,-18,5,134,149,122
27,67,40,-47,-7,54,-44,-25,-3,142,165,137
32,73,41,-53,-4,57,-49,-31,-10,150,179,151
35,77,42,-57,-3,60,-55,-37,-18,156,191,163
38,81,43,-60,-2,61,-61,-43,-27,159,200,173
42,85,43,-63,0,63,-65,-49,-34,162,207,182
45,89,43,-66,1,65,-68,-54,-39,162,212,188
46,90,43,-68,1,66,-71,-60,-45,156,211,191
49,92,42,-71,3,67,-73,-65,-50,145,205,189
52,93,41,-73,5,67,-73,-69,-56,130,195,185
49,92,43,-71,3,68,-72,-72,-62,108,181,178
42,88,46,-65,-2,67,-72,-75,-70,80,163,167
34,83,48,-58,-7,65,-71,-81,-80,49,141,153
27,78,50,-53,-10,64,-71,-86,-89,16,118,136
21,73,51,-47,-14,62,-68,-88,-95,-14,95,118
14,67,52,-41,-18,59,-64,-86,-96,-39,73,99
9,60,50,-34,-21,55,-59,-80,-93,-55,53,80
4,50,46,-28,-21,48,-52,-70,-86,-62,36,61
1,40,40,-21,-20,40,-44,-57,-76,-62,20,42
-1,30,33,-14,-17,31,-34,-41,-63,-59,6,24
-2,21,24,-9,-13,23,-26,-27,-51,-54,-4,10
-3,14,17,-5,-9,15,-19,-15,-42,-49,-12,-1
-3,8,11,-2,-6,9,-14,-6,-35,-45,-18,-10
-3,3,5,0,-4,4,-10,0,-29,-40,-22,-15
-4,-1,2,2,-3,0,-6,7,-25,-36,-23,-18
-5,-5,0,4,-2,-2,-3,12,-20,-32,-23,-20
-5,-8,-2,6,-1,-4,-1,15,-18,-30,-24,-21
-5,-10,-4,7,0,-7,0,18,-16,-28,-24,-22
-5,-12,-5,8,0,-8,0,20,-15,-26,-24,-22
-5,-12,-6,8,1,-9,1,23,-13,-24,-23,-21
-3,-12,-8,7,3,-10,2,25,-12,-23,-23,-21
-1,-11,-10,6,5,-11,3,26,-12,-23,-23,-22
-1,-11,-11,6,5,-12,4,26,-11,-22,-23,-22
0,-11,-11,6,5,-11,5,27,-11,-21,-23,-22
0,-11,-10,6,5,-11,6,28,-10,-20,-22,-22
0,-11,-10,5,5,-11,6,29,-9,-20,-21,-21
0,-11,-10,6,4,-11,6,29,-8,-20,-20,-21
-4,-13,-9,8,2,-11,6,29,-8,-20,-20,-20
-4,-13,-9,8,2,-10,7,30,-7,-19,-20,-20
-1,-11,-10,6,4,-10,8,30,-6,-19,-19,-19
-1,-11,-11,6,5,-11,8,30,-5,-18,-19,-19
-2,-12,-10,7,3,-11,8,30,-5,-18,-19,-18
-3,-13,-9,8,3,-12,8,30,-5,-18,-18,-18
-1,-13,-10,7,4,-12,8,30,-5,-17,-18,-18
0,-12,-11,6,6,-12,9,31,-5,-17,-18,-18
0,-13,-12,7,5,-13,9,31,-4,-17,-18,-18
-2,-14,-11,8,4,-13,9,32,-4,-17,-18,-18
-3,-15,-11,9,4,-13,9,32,-3,-16,-18,-18
-3,-15,-12,9,4,-13,10,33,-2,-16,-18,-18
-3,-15,-11,9,4,-13,11,33,-2,-16,-18,-18
-3,-15,-11,9,4,-13,11,32,-1,-16,-18,-18
-3,-15,-12,9,5,-14,12,32,-1,-15,-17,-18
-2,-15,-12,8,5,-14,14,32,-1,-15,-17,-18
-3,-16,-12,9,5,-14,15,32,0,-15,-17,-17
-4,-17,-13,10,4,-15,15,32,0,-15,-17,-17
-5,-17,-13,11,4,-15,16,31,0,-15,-17,-17
-5,-16,-12,10,3,-14,16,30,0,-14,-16,-17
-5,-16,-12,10,3,-14,16,29,0,-14,-16,-17
-4,-16,-12,10,4,-14,16,26,0,-14,-16,-17
-2,-14,-13,8,5,-14,16,24,0,-14,-15,-17
0,-11,-12,6,6,-12,16,23,1,-12,-14,-15
3,-7,-11,3,7,-10,16,23,2,-11,-12,-14
4,-5,-10,0,7,-8,16,22,3,-10,-11,-13
1,-6,-8,2,5,-7,16,21,3,-11,-11,-12
-3,-8,-6,5,2,-7,16,18,2,-12,-12,-13
-5,-10,-6,7,1,-8,15,16,0,-14,-14,-15
-3,-9,-7,6,2,-8,14,16,0,-14,-14,-15
-1,-7,-7,4,3,-7,14,16,0,-14,-13,-14
0,-7,-7,4,4,-7,13,14,0,-14,-12,-14
-1,-9,-7,5,3,-8,12,11,0,-14,-12,-14
-2,-10,-7,6,3,-9,10,9,-1,-14,-12,-14
-3,-11,-8,6,3,-9,9,8,-1,-14,-12,-14
-3,-11,-8,7,3,-10,9,7,-2,-14,-12,-13
-2,-10,-9,6,3,-9,9,7,-2,-14,-12,-13
-1,-9,-9,5,3,-9,9,6,-2,-14,-12,-12
-2,-9,-8,5,2,-9,8,4,-3,-15,-12,-12
-5,-11,-6,7,0,-9,6,2,-4,-16,-12,-13
-4,-11,-6,7,1,-9,5,1,-5,-17,-12,-13
-1,-9,-8,5,3,-9,4,0,-5,-17,-12,-13
2,-8,-10,3,6,-9,3,-1,-6,-18,-13,-14
2,-9,-11,3,7,-10,2,-3,-8,-19,-14,-15
0,-11,-11,5,5,-11,2,-4,-9,-20,-15,-15
-1,-11,-10,6,5,-10,1,-5,-9,-21,-15,-15
-2,-11,-9,6,4,-10,1,-6,-10,-21,-14,-15
-2,-11,-9,7,4,-10,0,-7,-10,-22,-14,-15
-2,-11,-9,7,4,-10,0,-8,-11,-22,-14,-14
-2,-11,-9,7,4,-10,-1,-11,-12,-23,-14,-14
-2,-12,-10,7,4,-11,-2,-13,-13,-24,-15,-15
-1,-11,-10,6,5,-11,-3,-14,-14,-26,-15,-15
0,-10,-10,5,5,-10,-3,-15,-14,-26,-15,-14
-1,-10,-9,5,4,-9,-3,-15,-14,-27,-15,-14
-1,-10,-10,5,4,-10,-4,-16,-16,-29,-15,-14
-1,-11,-10,6,4,-11,-5,-18,-17,-31,-16,-15
-2,-11,-9,6,3,-10,-5,-18,-18,-32,-16,-15
-1,-12,-10,6,4,-10,-5,-19,-19,-33,-17,-15
1,-11,-11,5,6,-11,-6,-20,-20,-35,-18,-16
1,-11,-11,5,6,-11,-6,-20,-20,-36,-19,-16
-1,-11,-9,7,4,-10,-6,-21,-21,-38,-20,-17
-3,-12,-8,8,2,-10,-7,-22,-22,-40,-21,-18
-4,-12,-9,9,2,-11,-7,-23,-23,-41,-21,-18
-3,-13,-10,8,3,-11,-8,-23,-24,-43,-22,-19
-1,-13,-13,7,6,-13,-9,-25,-26,-45,-24,-20
0,-13,-14,7,7,-13,-9,-25,-27,-46,-25,-21
1,-12,-13,6,6,-12,-8,-24,-27,-47,-25,-21
0,-13,-12,8,6,-12,-8,-24,-27,-47,-25,-22
-1,-15,-13,9,6,-14,-9,-24,-28,-49,-26,-23
0,-15,-15,8,8,-15,-9,-24,-28,-49,-27,-23
3,-12,-16,5,10,-15,-8,-24,-27,-49,-27,-23
3,-12,-16,4,9,-15,-8,-24,-27,-49,-28,-23
1,-14,-15,6,7,-15,-7,-23,-27,-48,-28,-24
0,-14,-14,6,7,-14,-6,-22,-27,-47,-28,-23
1,-14,-15,6,8,-14,-5,-21,-26,-46,-27,-23
0,-14,-15,6,8,-14,-4,-20,-26,-45,-27,-23
0,-15,-15,7,8,-14,-4,-19,-25,-43,-27,-23
2,-15,-16,6,9,-15,-3,-19,-24,-43,-27,-23
4,-13,-18,5,11,-16,-3,-18,-24,-42,-27,-23
5,-12,-18,4,11,-16,-2,-16,-23,-40,-27,-23
5,-13,-19,4,11,-17,-2,-16,-22,-39,-27,-24
5,-15,-21,5,13,-18,-3,-16,-22,-38,-28,-25
5,-16,-21,6,13,-19,-2,-15,-21,-36,-27,-24
3,-17,-21,7,12,-19,-1,-13,-19,-33,-26,-23
3,-16,-20,7,12,-18,-1,-12,-18,-31,-26,-23
4,-15,-19,6,12,-17,0,-11,-17,-28,-25,-22
4,-14,-18,5,12,-16,2,-10,-15,-25,-23,-21
4,-14,-18,5,11,-17,3,-10,-14,-22,-22,-21
4,-15,-19,5,12,-18,3,-9,-13,-20,-21,-21
3,-16,-19,5,12,-18,2,-8,-12,-18,-20,-20
1,-16,-18,6,10,-17,3,-6,-11,-15,-18,-19
0,-16,-17,7,9,-16,3,-4,-9,-12,-17,-18
1,-15,-18,6,10,-17,3,-3,-9,-11,-17,-18
3,-15,-19,5,11,-17,4,-3,-9,-10,-16,-18
6,-13,-20,3,13,-17,4,-2,-9,-9,-16,-18
8,-12,-20,2,15,-17,5,-1,-8,-8,-15,-18
8,-13,-21,2,15,-17,5,-1,-8,-7,-15,-17
9,-12,-21,1,15,-17,6,0,-6,-5,-14,-17
8,-11,-18,1,13,-15,8,1,-4,-2,-12,-15
7,-10,-17,1,12,-13,8,2,-3,-1,-11,-15
7,-11,-18,1,12,-14,8,2,-3,0,-11,-15
6,-12,-18,2,12,-14,7,2,-2,0,-10,-15
4,-12,-17,4,11,-15,7,3,-2,0,-9,-14
1,-13,-15,5,9,-15,8,4,-1,1,-9,-14
1,-12,-14,5,8,-14,9,5,-1,2,-8,-13
4,-10,-14,3,9,-13,10,6,0,2,-8,-13
5,-9,-14,2,10,-12,11,7,0,3,-8,-12
4,-10,-14,2,9,-12,12,8,0,3,-7,-12
4,-10,-14,3,9,-12,13,9,1,4,-6,-12
5,-9,-14,2,9,-11,13,9,2,5,-5,-11
6,-9,-15,2,10,-11,13,8,1,5,-5,-11
6,-9,-15,2,11,-12,12,7,1,4,-6,-12
5,-9,-15,2,10,-12,11,6,0,4,-6,-12
4,-9,-14,3,9,-12,11,6,0,4,-6,-12
1,-11,-13,5,7,-13,11,5,-1,3,-7,-13
1,-12,-14,6,8,-14,10,4,-1,3,-7,-13
6,-10,-16,3,11,-13,10,4,0,5,-6,-12
6,-9,-16,2,11,-12,10,4,0,5,-5,-11
3,-10,-14,4,9,-12,8,3,-1,5,-5,-12
1,-10,-12,5,7,-11,7,1,-1,5,-5,-12
0,-9,-10,5,6,-10,6,0,-1,5,-4,-11
0,-9,-9,5,5,-10,6,0,-1,5,-4,-11
0,-8,-9,4,5,-9,6,0,-1,5,-3,-11
3,-7,-11,2,6,-9,5,-1,-2,4,-4,-11
5,-7,-13,0,9,-10,4,-3,-3,4,-4,-11
7,-7,-14,0,11,-10,3,-4,-3,4,-4,-11
8,-7,-15,0,12,-11,3,-4,-3,4,-4,-11
9,-7,-16,-1,13,-11,2,-5,-4,3,-5,-11
9,-7,-17,0,13,-12,0,-6,-5,2,-6,-12
7,-9,-17,1,13,-14,-1,-7,-6,1,-7,-14
6,-10,-17,2,12,-14,-1,-8,-6,1,-7,-14
7,-8,-16,0,12,-13,-1,-7,-5,2,-6,-13
10,-6,-16,-1,13,-12,0,-7,-5,3,-5,-13
9,-7,-16,-1,13,-12,-1,-7,-5,3,-5,-13
8,-7,-15,0,12,-12,-1,-8,-5,4,-5,-12
9,-6,-15,-1,12,-11,-1,-7,-5,5,-5,-12
10,-5,-15,-2,13,-11,-1,-6,-5,5,-5,-12
9,-5,-15,-2,12,-11,-1,-7,-5,5,-5,-12
8,-6,-15,-1,12,-11,-2,-7,-6,5,-5,-12
8,-6,-14,-1,11,-10,-2,-8,-6,5,-5,-12
8,-6,-14,-1,11,-10,-3,-8,-6,6,-4,-12
8,-6,-13,0,10,-9,-3,-8,-6,6,-4,-12
8,-6,-13,0,10,-9,-3,-8,-5,7,-4,-11
8,-5,-13,-1,11,-9,-3,-7,-5,7,-3,-11
8,-5,-13,-1,11,-9,-4,-8,-6,7,-4,-11
7,-5,-12,-1,10,-8,-5,-8,-5,7,-3,-11
7,-3,-11,-2,9,-7,-4,-8,-4,8,-2,-10
8,-2,-11,-3,10,-6,-3,-7,-4,8,-2,-9
9,-3,-12,-3,11,-7,-4,-7,-5,7,-3,-9
10,-4,-14,-2,12,-8,-4,-7,-5,6,-4,-10
10,-5,-15,-2,12,-9,-4,-7,-5,6,-4,-10
8,-6,-14,0,11,-9,-5,-7,-5,6,-4,-10
6,-6,-13,0,9,-9,-5,-7,-5,6,-3,-10
7,-5,-13,0,10,-9,-6,-7,-5,6,-4,-10
8,-5,-13,0,11,-10,-6,-8,-6,5,-4,-10
8,-5,-13,0,11,-10,-6,-8,-6,4,-4,-10
10,-5,-14,-1,12,-10,-6,-8,-6,4,-4,-10
11,-5,-16,-2,14,-10,-6,-8,-6,4,-5,-10
11,-6,-17,-2,14,-11,-6,-8,-6,3,-5,-11
11,-7,-18,-1,14,-12,-5,-7,-6,2,-6,-11
10,-8,-18,0,14,-13,-5,-7,-7,1,-6,-12
8,-10,-18,1,13,-14,-5,-7,-7,1,-7,-13
6,-11,-17,2,12,-14,-4,-5,-6,1,-6,-12
8,-9,-17,1,13,-14,-2,-3,-4,3,-5,-11
10,-8,-18,-1,15,-13,-1,-2,-3,4,-4,-10
11,-7,-18,-1,15,-12,-1,-1,-3,4,-4,-10
11,-7,-18,-1,14,-12,-1,-1,-3,4,-4,-10
10,-7,-17,-1,14,-12,-1,-1,-3,4,-4,-10
11,-6,-18,-2,14,-11,-1,-1,-3,3,-4,-10
13,-5,-19,-4,16,-11,-1,-1,-3,3,-4,-10
15,-5,-20,-4,18,-13,-1,-1,-4,2,-5,-11
14,-7,-21,-2,17,-14,-1,0,-4,2,-6,-12
12,-9,-21,-1,16,-15,0,1,-4,2,-7,-13
10,-11,-20,1,15,-16,0,2,-4,2,-7,-13
9,-12,-21,2,14,-16,0,1,-5,2,-7,-13
10,-11,-21,1,15,-16,0,1,-5,3,-6,-13
11,-9,-20,0,16,-14,0,2,-5,4,-4,-11
12,-8,-20,-1,16,-13,1,2,-5,6,-2,-9
12,-7,-20,-2,16,-13,1,2,-4,9,0,-8
13,-5,-19,-3,16,-12,2,3,-2,14,4,-4
13,-3,-16,-4,15,-10,4,4,1,21,10,0
13,0,-14,-6,14,-7,4,5,5,29,17,5
13,2,-11,-7,13,-5,4,6,9,39,24,11
12,5,-7,-9,10,-1,3,6,14,51,33,18
11,9,-2,-10,7,4,2,6,17,62,43,26
12,14,2,-13,5,8,0,4,19,73,53,34
14,20,6,-17,4,13,-1,3,22,84,64,43
16,25,8,-20,4,16,-2,2,24,94,75,52
16,27,10,-21,3,19,-6,-1,23,102,84,61
18,31,13,-25,3,22,-10,-6,19,108,93,69
20,36,15,-28,3,26,-14,-12,14,112,102,78
22,40,18,-31,3,30,-19,-19,7,116,113,88
27,47,20,-37,3,34,-25,-27,1,121,125,100
30,54,24,-42,3,40,-31,-34,-6,127,138,113
32,60,27,-46,3,44,-37,-42,-13,132,150,125
36,66,29,-51,4,48,-44,-49,-22,136,162,137
41,72,30,-56,6,51,-50,-56,-30,140,172,148
46,77,31,-61,7,54,-56,-65,-36,143,181,158
50,81,32,-65,9,56,-61,-72,-41,145,188,166
53,85,32,-69,11,58,-66,-79,-45,145,192,173
55,87,32,-71,11,60,-70,-86,-51,140,192,176
55,88,33,-71,11,60,-74,-93,-58,130,187,176
56,88,31,-71,12,60,-78,-102,-67,114,178,172
56,87,30,-71,13,59,-80,-109,-76,95,166,165
51,83,32,-67,10,58,-80,-114,-84,72,151,156
44,77,32,-61,6,55,-80,-120,-93,46,133,144
39,70,31,-55,4,51,-80,-124,-102,18,112,128
33,63,30,-48,2,46,-79,-125,-106,-7,92,111
25,55,30,-40,-2,42,-74,-121,-105,-27,72,93
16,46,30,-31,-7,38,-66,-112,-100,-40,54,76
10,38,28,-24,-9,33,-56,-98,-90,-46,38,58
5,30,24,-17,-9,27,-45,-83,-78,-46,24,41
1,20,19,-11,-9,19,-36,-67,-66,-43,11,24
-3,11,14,-4,-8,12,-27,-53,-54,-39,0,9
-5,3,9,0,-7,6,-20,-41,-43,-35,-8,-3
-7,-3,4,4,-5,0,-15,-31,-34,-31,-14,-11
-8,-8,0,8,-4,-4,-10,-23,-27,-28,-18,-17
-8,-11,-3,9,-2,-7,-6,-17,-22,-25,-20,-21
-8,-13,-5,11,-1,-9,-4,-13,-19,-23,-22,-23
-9,-15,-6,12,-1,-10,-3,-11,-17,-21,-22,-24
-8,-15,-7,12,0,-11,-2,-10,-16,-21,-23,-25
-7,-14,-8,11,1,-11,-1,-8,-13,-20,-23,-25
-7,-15,-8,11,1,-11,0,-7,-11,-19,-23,-26
-7,-16,-8,11,1,-12,-1,-7,-10,-18,-23,-26
-4,-14,-9,9,2,-11,0,-6,-8,-17,-23,-25
-3,-13,-10,8,3,-11,0,-6,-7,-16,-22,-24
-5,-15,-9,10,2,-12,-1,-7,-7,-16,-23,-24
-7,-16,-8,12,0,-12,-2,-8,-8,-17,-24,-24
-7,-16,-9,12,1,-12,-3,-8,-8,-17,-24,-24
-6,-15,-9,11,2,-12,-3,-8,-7,-17,-25,-24
-5,-14,-8,9,2,-11,-3,-8,-5,-17,-25,-24
-6,-14,-7,9,1,-11,-2,-7,-4,-16,-24,-23
-7,-14,-6,10,0,-11,-2,-6,-2,-16,-24,-22
-5,-14,-7,9,1,-11,-1,-6,-2,-16,-24,-22
-3,-13,-9,8,3,-11,-1,-5,-2,-16,-24,-22
-3,-14,-11,8,4,-12,-1,-5,-2,-15,-23,-21
-4,-14,-11,9,4,-12,-1,-4,-2,-15,-23,-21
-5,-14,-10,10,3,-12,-1,-4,-2,-16,-24,-21
-6,-15,-10,11,2,-12,-1,-4,-2,-16,-25,-21
-8,-17,-9,12,1,-13,-1,-4,-2,-17,-26,-22
-8,-17,-9,13,1,-13,-1,-5,-2,-17,-26,-22
-7,-17,-9,12,1,-13,-1,-5,-2,-18,-26,-22
-6,-15,-8,11,1,-12,0,-4,-2,-17,-25,-21
-6,-13,-6,10,1,-10,0,-3,-1,-17,-24,-20
-6,-12,-6,10,1,-9,0,-3,-2,-17,-24,-20
-5,-12,-7,9,1,-9,0,-3,-3,-18,-25,-20
-5,-12,-7,9,1,-10,0,-3,-3,-18,-25,-20
-5,-12,-7,9,1,-10,0,-2,-3,-18,-25,-20
-4,-12,-7,8,2,-10,2,0,-2,-17,-24,-19
-3,-11,-8,6,3,-10,3,1,-1,-17,-24,-18
-2,-12,-9,6,4,-11,4,2,-1,-17,-24,-18
-4,-12,-8,8,2,-10,5,3,-1,-17,-24,-18
-6,-12,-6,9,0,-9,6,5,0,-16,-24,-18
-6,-12,-6,9,1,-9,7,7,0,-16,-24,-17
-5,-13,-8,9,2,-10,7,8,0,-16,-24,-18
-5,-14,-9,10,2,-11,6,8,0,-17,-25,-18
-6,-15,-9,10,2,-12,6,6,-1,-18,-26,-19
-4,-15,-10,9,3,-12,6,5,-1,-19,-26,-19
-2,-13,-11,8,4,-12,7,6,-1,-19,-25,-19
-2,-12,-9,7,3,-11,7,8,0,-19,-25,-18
-4,-13,-8,8,2,-11,7,9,0,-19,-25,-18
-5,-13,-7,9,1,-11,7,8,0,-20,-25,-18
-6,-15,-7,11,0,-11,7,8,-1,-20,-25,-18
-7,-16,-8,12,0,-12,8,8,-1,-20,-26,-18
-7,-16,-8,11,1,-12,8,8,0,-20,-26,-18
-7,-16,-8,11,1,-12,9,9,0,-20,-26,-18
-9,-17,-8,13,0,-12,9,10,0,-20,-26,-18
-10,-17,-7,13,-2,-12,10,11,1,-20,-25,-18
-9,-15,-6,12,-1,-11,10,12,1,-20,-25,-18
-8,-13,-5,11,-2,-9,11,12,2,-21,-25,-17
-10,-14,-4,12,-3,-9,11,12,2,-21,-25,-17
-10,-14,-4,12,-2,-9,12,12,2,-22,-25,-17
-9,-14,-5,12,-1,-9,12,13,2,-22,-25,-17
-8,-14,-6,11,-1,-10,13,13,2,-22,-25,-17
-8,-14,-6,11,0,-10,14,14,2,-22,-25,-17
-8,-15,-6,11,0,-10,15,13,1,-23,-25,-17
-8,-16,-7,12,0,-11,14,12,0,-25,-27,-18
-8,-16,-7,12,0,-12,13,12,-1,-26,-28,-18
-6,-15,-8,11,1,-11,14,12,0,-27,-28,-18
-4,-12,-8,8,2,-10,15,12,0,-27,-27,-18
-3,-11,-8,7,3,-10,15,12,0,-27,-27,-18
-5,-12,-7,9,1,-10,15,11,-1,-29,-28,-18
-10,-14,-5,12,-2,-10,14,10,-2,-30,-29,-19
-11,-15,-4,13,-3,-10,13,9,-3,-30,-29,-20
-10,-14,-4,12,-3,-9,12,9,-3,-31,-29,-20
-9,-13,-4,11,-2,-9,11,8,-5,-33,-30,-20
-8,-12,-5,10,-1,-9,11,7,-6,-35,-30,-20
-6,-11,-5,9,0,-8,11,7,-6,-37,-31,-20
-5,-10,-5,8,0,-8,10,6,-6,-38,-32,-21
-6,-11,-5,9,0,-8,9,5,-7,-40,-33,-22
-7,-13,-6,10,0,-10,8,2,-9,-43,-35,-24
-7,-15,-8,11,0,-11,7,1,-10,-45,-37,-25
-8,-17,-9,12,1,-12,6,0,-11,-46,-38,-26
-8,-18,-10,12,1,-13,5,-1,-12,-48,-40,-27
-6,-18,-12,12,3,-14,4,-3,-13,-50,-42,-28
-6,-19,-12,12,3,-15,3,-4,-13,-51,-43,-29
-6,-18,-11,12,2,-14,3,-4,-13,-52,-43,-29
-5,-17,-11,11,3,-14,2,-5,-13,-52,-42,-29
-2,-15,-12,9,4,-14,1,-6,-14,-53,-42,-29
0,-14,-13,7,6,-14,1,-6,-15,-53,-42,-29
0,-13,-13,6,6,-13,2,-6,-14,-52,-42,-28
0,-13,-13,7,6,-13,1,-6,-15,-52,-43,-29
-1,-15,-14,8,6,-14,1,-6,-15,-53,-44,-30
-1,-15,-14,8,7,-15,1,-6,-15,-52,-45,-30
-1,-15,-14,8,7,-15,2,-5,-14,-51,-45,-30
-1,-16,-15,8,7,-16,2,-5,-13,-50,-44,-30
-1,-16,-15,9,7,-16,1,-5,-13,-48,-43,-30
-2,-17,-15,10,6,-16,0,-6,-14,-48,-43,-30
-2,-17,-15,10,6,-16,-2,-6,-14,-47,-43,-30
-1,-16,-15,9,7,-16,-2,-6,-14,-44,-42,-29
-1,-16,-15,8,8,-16,-2,-5,-13,-42,-41,-28
0,-16,-15,8,8,-16,-1,-5,-12,-40,-41,-28
0,-16,-16,8,9,-17,-2,-5,-12,-38,-40,-27
0,-16,-17,8,8,-17,-2,-4,-11,-36,-39,-26
1,-15,-17,8,9,-16,-2,-3,-9,-33,-36,-25
2,-14,-17,6,9,-15,-1,-2,-8,-30,-34,-23
2,-13,-16,6,9,-15,-2,-2,-8,-28,-33,-22
2,-13,-16,6,9,-15,-4,-2,-8,-27,-32,-21
3,-13,-16,5,10,-15,-4,-2,-8,-24,-31,-20
4,-13,-17,5,11,-15,-4,-2,-8,-23,-30,-19
4,-13,-17,4,11,-15,-5,-2,-8,-22,-30,-18
5,-12,-17,4,12,-15,-5,-2,-8,-20,-28,-17
5,-11,-17,3,12,-14,-4,-1,-7,-17,-26,-15
6,-10,-17,2,12,-13,-4,-1,-6,-15,-25,-14
6,-10,-16,2,11,-13,-4,0,-6,-13,-24,-13
4,-10,-16,3,10,-13,-3,0,-6,-12,-23,-12
6,-10,-16,2,11,-13,-3,1,-6,-11,-23,-12
8,-8,-17,0,13,-13,-3,2,-5,-9,-22,-11
10,-6,-16,-2,13,-11,-2,4,-4,-7,-21,-10
11,-6,-16,-2,14,-11,-2,4,-4,-6,-21,-9
9,-7,-16,-1,13,-12,-2,4,-4,-5,-20,-9
6,-8,-15,1,11,-12,-1,4,-4,-5,-19,-8
7,-8,-16,1,12,-12,-1,5,-3,-5,-18,-7
10,-7,-17,-1,14,-12,0,6,-3,-4,-17,-6
10,-6,-17,-1,13,-12,0,7,-2,-3,-16,-5
8,-6,-15,-1,11,-11,1,7,-2,-2,-16,-5
6,-7,-13,0,10,-10,1,7,-1,-2,-16,-4
6,-7,-13,0,10,-10,1,8,-1,-2,-17,-5
7,-7,-14,0,10,-11,1,9,-1,-2,-17,-5
6,-7,-13,0,10,-10,2,11,0,-1,-16,-4
6,-7,-13,0,10,-10,3,11,1,-1,-16,-3
6,-8,-14,1,11,-11,1,11,0,-1,-16,-3
6,-9,-16,1,12,-13,1,10,0,-2,-16,-4
6,-8,-15,0,11,-12,3,12,0,0,-15,-2
6,-5,-11,0,9,-9,6,14,2,2,-13,0
6,-3,-9,0,8,-7,8,14,3,3,-12,0
7,-3,-10,-1,9,-7,8,13,3,3,-12,0
8,-3,-11,-1,10,-7,8,12,3,2,-12,0
7,-3,-11,-1,9,-7,7,12,3,2,-12,0
6,-4,-11,0,8,-7,7,11,2,1,-13,0
6,-4,-11,0,8,-7,6,11,2,1,-13,0
8,-3,-11,-2,9,-7,6,10,2,2,-13,0
8,-2,-11,-3,10,-7,6,10,2,2,-12,1
8,-1,-9,-3,9,-6,7,9,2,3,-11,2
8,0,-8,-4,8,-5,8,9,3,3,-10,2
7,0,-7,-3,8,-5,8,8,3,3,-10,2
6,-1,-8,-3,7,-5,8,7,2,3,-10,2
6,-2,-8,-2,7,-5,7,6,2,3,-10,2
5,-2,-7,-2,7,-5,7,6,3,4,-9,3
3,-2,-6,-1,5,-5,6,6,3,4,-9,4
1,-3,-5,0,4,-5,6,5,2,4,-9,4
1,-3,-4,0,3,-4,5,5,1,4,-9,4
2,-2,-4,0,3,-4,4,4,1,4,-9,4
2,-2,-5,0,4,-4,3,3,0,4,-10,3
2,-3,-5,0,4,-5,2,2,0,4,-10,3
0,-4,-5,2,3,-5,1,2,0,4,-9,3
-1,-4,-4,2,2,-4,1,1,0,5,-8,4
0,-3,-5,1,3,-4,1,1,0,5,-8,5
2,-3,-6,0,4,-4,0,0,-1,4,-9,4
3,-2,-7,-1,5,-4,-1,-1,-1,4,-9,4
3,-2,-6,-1,4,-4,-1,-2,-1,4,-8,4
2,-1,-4,0,3,-3,-1,-2,-1,4,-8,5
3,-1,-4,-1,4,-2,-3,-3,-1,4,-8,4
4,0,-5,-2,5,-2,-4,-4,-1,4,-8,4
5,1,-4,-4,5,-1,-3,-3,0,5,-8,5
6,2,-3,-5,5,0,-2,-1,1,6,-7,5
6,2,-3,-4,5,0,-3,-1,1,6,-7,5
5,2,-3,-3,5,-1,-4,-2,0,5,-8,5
4,1,-3,-3,4,-1,-4,-3,0,5,-8,5
3,2,-1,-3,3,0,-4,-4,0,6,-7,6
3,2,-1,-3,2,0,-5,-5,0,6,-7,6
3,1,-1,-3,2,0,-7,-7,0,5,-8,5
3,2,-1,-3,3,1,-8,-7,0,5,-8,5
4,3,-1,-4,3,1,-8,-7,0,5,-8,5
3,2,-1,-3,3,0,-9,-8,0,5,-8,5
3,0,-3,-2,4,-1,-9,-8,-1,4,-9,5
4,-1,-5,-1,5,-3,-10,-9,-1,3,-9,4
3,-2,-5,-1,4,-4,-10,-8,-1,3,-9,4
2,-2,-3,0,3,-4,-10,-8,0,2,-9,4
0,-2,-2,1,1,-3,-10,-7,0,2,-9,4
0,-3,-2,1,1,-3,-10,-7,0,2,-10,4
0,-2,-3,1,2,-3,-10,-6,0,2,-10,4
2,-2,-4,0,3,-3,-8,-5,1,2,-9,4
1,-2,-3,0,2,-3,-7,-4,1,3,-9,5
0,-3,-2,2,1,-3,-7,-4,1,3,-9,5
-1,-4,-2,2,1,-3,-8,-3,1,3,-8,5
0,-3,-2,1,1,-3,-7,-2,2,3,-8,5
0,-2,-1,1,1,-2,-6,-2,3,4,-7,6
0,-2,-1,1,0,-2,-6,-2,3,3,-7,6
1,-2,-3,0,2,-3,-7,-3,3,2,-8,5
2,-2,-4,0,3,-3,-7,-3,3,2,-8,5
2,-1,-4,0,3,-3,-7,-4,3,2,-8,5
2,-2,-5,0,4,-4,-7,-4,3,2,-9,5
3,-2,-5,0,4,-4,-7,-4,3,2,-8,4
3,-1,-4,-2,4,-3,-6,-3,3,2,-7,5
4,0,-3,-2,4,-2,-6,-2,4,3,-7,5
4,0,-3,-2,4,-2,-6,-1,4,2,-8,5
5,0,-4,-3,5,-2,-5,-1,4,2,-8,5
7,0,-5,-4,6,-2,-5,0,4,2,-8,5
6,0,-6,-4,6,-2,-5,0,4,2,-8,4
4,0,-5,-2,4,-2,-4,1,4,2,-8,4
2,-2,-5,0,3,-3,-4,1,4,1,-9,4
2,-3,-5,0,4,-4,-3,1,4,1,-9,3
1,-4,-6,1,4,-5,-2,3,5,1,-9,2
2,-4,-6,1,5,-6,-1,4,6,1,-9,2
3,-5,-7,0,6,-6,0,5,7,1,-10,2
2,-6,-7,1,5,-7,1,6,7,0,-10,2
0,-7,-6,3,3,-7,3,7,8,0,-10,2
0,-7,-7,4,3,-7,4,8,9,0,-10,2
0,-7,-8,4,4,-8,4,8,9,0,-10,2
0,-7,-7,3,3,-7,5,9,9,0,-10,1
0,-5,-6,2,4,-6,5,9,10,0,-10,1
1,-4,-6,1,4,-5,6,10,10,0,-10,1
1,-4,-6,1,4,-4,7,11,11,0,-10,1
0,-4,-5,2,3,-4,8,12,12,0,-10,1
1,-5,-6,2,4,-5,8,13,12,0,-10,0
1,-6,-7,2,4,-6,9,12,12,-1,-11,-1
0,-7,-8,3,4,-7,9,12,12,-1,-12,-2
0,-7,-8,3,4,-8,10,12,13,-1,-12,-2
1,-6,-7,1,4,-7,11,13,14,0,-11,-2
5,-3,-7,-1,6,-5,11,14,14,0,-11,-1
7,-2,-8,-3,8,-5,12,15,15,0,-11,-1
7,-1,-7,-3,8,-4,12,14,15,0,-11,-2
5,-2,-6,-2,6,-4,12,13,15,0,-11,-2
2,-3,-5,0,4,-4,12,11,15,0,-11,-2
1,-3,-4,0,2,-3,12,11,16,1,-10,-2
1,-2,-3,0,2,-3,12,10,16,1,-9,-2
1,-1,-3,0,2,-3,11,9,16,1,-9,-2
1,-2,-3,0,2,-3,11,8,16,1,-9,-3
0,-4,-3,1,2,-3,10,8,16,1,-10,-4
0,-4,-3,1,2,-4,9,7,15,0,-11,-5
0,-4,-3,1,2,-3,9,7,15,0,-12,-6
0,-4,-3,2,1,-4,8,6,15,0,-12,-6
-1,-4,-3,3,1,-4,8,6,15,0,-12,-7
-1,-4,-3,2,1,-4,8,5,15,0,-13,-7
0,-3,-3,2,1,-4,8,4,15,-1,-13,-8
0,-4,-4,2,1,-4,7,3,15,-1,-13,-9
-1,-5,-4,3,1,-5,7,2,15,-1,-13,-9
0,-5,-4,3,2,-5,6,2,15,-1,-13,-9
0,-5,-4,3,2,-5,6,1,16,-1,-13,-10
-1,-5,-4,3,1,-5,6,1,17,-1,-13,-10
-1,-5,-3,3,1,-4,6,2,18,0,-13,-9
-1,-4,-3,2,1,-4,6,2,19,0,-13,-9
-1,-3,-3,2,1,-4,5,1,19,0,-13,-10
-2,-3,-2,3,0,-3,5,1,20,0,-13,-10
-3,-3,0,3,-1,-2,5,1,21,0,-13,-10
-3,-3,1,3,-2,-1,6,2,22,0,-13,-10
-2,-2,1,2,-1,-1,6,2,23,0,-13,-10
0,-2,0,1,0,-1,5,1,23,0,-13,-10
0,-2,0,1,0,-1,4,0,24,0,-13,-10
-1,-1,1,2,-1,0,5,0,25,0,-12,-10
-2,0,3,1,-2,1,6,1,27,1,-11,-9
-3,0,3,2,-3,1,5,1,27,1,-11,-9
-3,0,2,2,-2,0,4,0,27,1,-11,-10
-2,-1,1,1,-1,0,4,0,27,1,-11,-11
-2,-1,2,1,-1,0,4,0,28,0,-11,-11
-3,-1,2,2,-2,0,3,0,28,0,-11,-11
-3,-1,2,2,-3,1,3,-1,28,0,-12,-11
-3,0,2,1,-2,1,4,-1,28,1,-11,-10
-2,0,2,1,-2,1,4,-1,29,1,-11,-10
-2,0,1,1,-2,1,4,-1,30,1,-11,-10
-2,0,2,1,-2,1,4,-1,31,1,-11,-10
-2,0,2,1,-2,1,3,-1,31,1,-11,-10
-1,0,1,1,-1,0,3,-1,31,1,-11,-11
0,0,0,0,0,0,2,-1,29,1,-11,-11
0,-1,-1,0,1,-1,2,-1,27,0,-12,-12
-1,-1,-1,1,0,-1,2,-1,25,0,-12,-12
-1,-1,0,1,0,0,2,-1,24,0,-12,-12
-1,0,0,1,0,0,3,-1,24,0,-12,-12
-1,0,1,1,0,0,4,0,24,1,-11,-12
-2,0,2,1,-2,1,5,1,25,1,-11,-11
-3,0,2,2,-2,0,6,1,26,1,-11,-11
-2,-1,1,2,-1,0,6,0,26,2,-11,-11
-1,0,1,1,0,0,6,-1,27,3,-10,-10
0,0,0,0,1,0,7,0,27,4,-9,-10
1,0,0,0,1,0,7,0,28,4,-9,-9
0,0,0,0,1,0,7,0,29,4,-9,-10
1,0,-1,0,1,-1,7,0,31,4,-9,-10
2,0,-2,0,2,-1,8,0,35,4,-9,-10
2,0,-2,0,2,-1,9,0,40,5,-8,-9
3,0,-2,-1,3,-1,10,1,42,5,-8,-9
3,0,-3,-1,3,-1,11,1,44,5,-8,-10
2,-1,-2,0,3,-2,11,2,45,5,-9,-10
1,-2,-1,1,2,-1,12,3,45,5,-8,-9
2,-1,-2,0,2,-1,13,4,44,5,-8,-9
2,0,-2,-1,3,-1,13,5,43,5,-8,-9
1,-1,-2,0,2,-1,13,6,43,5,-9,-10
3,0,-3,-1,3,-1,13,7,44,5,-9,-10
5,0,-5,-2,5,-2,14,8,43,5,-9,-10
3,-3,-5,0,4,-4,14,8,43,5,-9,-11
1,-5,-5,2,3,-5,15,9,42,5,-9,-11
1,-4,-5,2,3,-4,16,10,41,5,-8,-10
3,-4,-6,0,4,-4,16,10,39,5,-9,-11
3,-4,-7,0,5,-5,15,9,34,3,-10,-12
3,-5,-7,0,5,-6,14,8,29,3,-11,-13
2,-4,-6,1,4,-6,15,9,25,4,-11,-13
1,-3,-4,1,3,-4,16,9,22,5,-10,-12
1,-2,-4,1,2,-3,17,10,20,6,-9,-11
1,-3,-4,2,2,-3,18,10,18,7,-9,-11
0,-3,-4,2,2,-4,17,10,17,7,-9,-11
1,-3,-4,1,3,-4,17,10,15,7,-9,-11
1,-3,-4,1,3,-4,17,9,13,6,-10,-12
0,-3,-3,2,2,-4,16,8,11,5,-10,-12
-1,-4,-2,3,0,-4,15,7,9,5,-10,-12
-3,-6,-2,5,0,-4,14,5,6,4,-10,-12
-3,-6,-3,5,0,-5,13,4,4,4,-11,-13
-1,-6,-4,4,2,-5,12,3,4,4,-11,-13
0,-5,-5,3,3,-5,11,3,4,4,-10,-13
-1,-6,-4,4,2,-5,11,2,5,4,-10,-12
-2,-6,-3,4,0,-5,11,1,5,4,-10,-12
-2,-5,-2,4,0,-5,10,0,5,4,-10,-12
0,-5,-4,2,2,-5,9,-1,5,4,-10,-12
1,-5,-6,1,4,-6,8,-2,4,4,-10,-13
1,-5,-7,2,5,-6,8,-3,4,3,-10,-13
1,-6,-8,2,5,-6,7,-3,4,3,-10,-13
3,-5,-8,1,6,-6,6,-4,4,3,-10,-14
4,-3,-8,0,6,-5,6,-3,5,3,-10,-14
2,-4,-7,1,5,-6,5,-4,5,2,-11,-15
0,-7,-6,3,3,-7,4,-5,4,1,-11,-15
-3,-8,-5,5,1,-7,4,-5,4,2,-11,-15
-3,-8,-4,5,0,-6,5,-4,5,3,-9,-14
-2,-6,-3,4,1,-4,6,-4,5,4,-8,-13
-2,-6,-3,4,1,-4,5,-5,4,4,-8,-13
-2,-7,-4,5,1,-5,4,-5,3,4,-8,-14
-2,-8,-4,5,1,-6,3,-6,2,3,-8,-14
-2,-8,-5,5,2,-7,3,-6,1,3,-8,-14
-2,-9,-6,5,2,-8,3,-7,0,2,-9,-15
-2,-9,-6,5,2,-8,3,-6,0,3,-8,-15
-2,-9,-6,5,2,-7,3,-6,0,4,-8,-14
-3,-9,-6,6,2,-7,3,-6,0,4,-8,-14
-1,-8,-7,5,3,-7,2,-7,-1,5,-8,-14
0,-6,-7,4,3,-6,2,-7,-1,6,-7,-14
-1,-6,-6,4,2,-6,2,-6,0,6,-7,-14
-2,-7,-5,5,2,-7,2,-6,0,6,-7,-14
-1,-6,-5,4,2,-6,3,-5,1,6,-6,-14
0,-5,-5,2,3,-5,3,-4,1,7,-6,-13
0,-5,-6,3,3,-5,3,-5,1,6,-6,-14
0,-6,-6,3,3,-6,3,-5,1,6,-6,-14
0,-6,-6,4,3,-6,4,-5,1,6,-6,-14
-1,-6,-5,4,2,-6,4,-4,2,6,-5,-14
-1,-6,-5,4,1,-6,3,-4,2,6,-5,-14
0,-7,-6,4,2,-7,3,-4,1,6,-6,-14
0,-7,-7,4,3,-7,3,-5,1,5,-6,-14
0,-7,-7,4,3,-7,3,-5,2,5,-6,-14
0,-7,-6,4,3,-7,4,-4,2,6,-5,-13
-1,-8,-5,4,2,-7,4,-4,3,7,-5,-13
-1,-8,-6,5,2,-7,4,-4,3,7,-5,-13
0,-8,-7,4,3,-8,3,-4,2,7,-5,-13
0,-7,-7,4,3,-7,4,-4,3,7,-5,-12
-2,-7,-5,5,1,-6,4,-3,3,8,-4,-12
-1,-6,-5,4,2,-5,5,-3,3,8,-3,-11
1,-4,-6,1,4,-5,6,-3,3,9,-3,-10
2,-5,-6,1,4,-5,5,-3,2,8,-3,-11
2,-4,-6,1,5,-5,4,-3,2,8,-3,-11
2,-3,-6,0,4,-4,5,-2,3,9,-3,-10
0,-4,-4,2,2,-4,6,-1,3,9,-2,-10
-3,-4,-2,4,0,-3,6,0,4,10,-2,-9
-4,-4,-2,5,-1,-3,6,0,4,10,-1,-9
-4,-4,-1,5,-1,-3,6,0,4,10,-1,-9
-4,-5,0,5,-1,-3,6,0,4,10,-1,-9
-3,-5,-1,4,0,-3,6,-1,4,9,-1,-9
-2,-4,-2,3,0,-3,6,-1,3,9,-1,-9
-1,-4,-2,3,1,-3,6,-1,3,9,-2,-9
-2,-5,-3,4,1,-4,6,-1,2,9,-2,-10
-3,-6,-3,5,0,-5,6,0,3,8,-3,-10
-2,-5,-4,4,1,-5,8,0,5,8,-3,-10
0,-4,-4,3,3,-5,9,1,7,9,-2,-9
0,-4,-5,2,3,-5,9,1,9,9,-2,-9
-1,-5,-5,3,3,-6,9,1,9,8,-2,-9
-2,-6,-5,4,2,-6,9,1,10,7,-2,-9
-2,-5,-4,4,1,-5,10,2,12,8,-1,-9
-1,-4,-4,3,1,-4,12,2,14,8,0,-8
0,-4,-4,2,1,-4,12,3,15,9,0,-8
0,-3,-3,2,2,-4,13,4,16,9,0,-8
-1,-4,-2,3,1,-4,13,5,17,8,0,-8
-2,-4,-2,3,0,-4,13,6,18,8,0,-8
-1,-4,-2,2,0,-3,14,7,20,9,1,-8
-1,-4,-2,2,0,-3,14,7,20,9,1,-8
0,-4,-3,2,1,-3,15,6,21,9,1,-8
1,-3,-4,1,2,-3,16,7,21,9,1,-8
1,-3,-4,1,2,-4,17,8,21,9,1,-8
0,-4,-3,2,2,-4,17,8,20,9,1,-8
0,-4,-4,2,2,-4,18,8,19,9,1,-8
0,-4,-4,2,2,-4,18,7,18,8,1,-8
-1,-4,-3,2,1,-3,18,7,16,8,1,-8
-1,-3,-1,2,0,-2,18,8,16,8,2,-8
0,-2,-2,1,1,-1,18,8,15,9,2,-7
2,-2,-3,0,3,-2,17,7,14,8,2,-8
0,-4,-4,2,2,-3,16,6,12,7,1,-8
-2,-5,-3,4,0,-4,16,6,11,7,1,-8
-3,-5,-2,4,0,-4,15,6,10,8,2,-8
-3,-5,-2,4,0,-4,14,5,8,8,2,-8
-3,-4,-1,4,0,-3,13,4,6,8,2,-8
-4,-4,0,3,-1,-2,13,3,5,8,2,-8
-5,-4,2,4,-3,-1,12,2,5,9,2,-8
-7,-5,3,6,-4,-1,11,1,5,8,2,-8
-7,-6,1,7,-4,-2,10,-1,4,7,1,-9
-6,-7,-1,7,-2,-3,8,-2,4,7,1,-10
-4,-7,-3,6,0,-4,7,-4,3,6,1,-10
-3,-7,-4,6,0,-5,6,-4,3,6,1,-9
-3,-6,-4,5,1,-5,6,-4,4,7,1,-9
-2,-5,-4,4,1,-4,6,-4,6,7,1,-9
-2,-5,-4,4,1,-4,5,-5,6,7,1,-9
-2,-6,-4,4,1,-4,4,-6,6,6,0,-10
-2,-6,-4,5,0,-4,4,-6,6,6,1,-10
-3,-6,-3,5,0,-4,4,-6,7,7,1,-9
-4,-7,-3,6,-1,-4,4,-7,7,8,1,-9
-5,-8,-3,6,-1,-5,3,-7,6,7,1,-9
-5,-8,-3,6,-1,-5,2,-8,6,8,0,-10
-7,-9,-2,7,-2,-5,2,-8,7,8,0,-10
-8,-10,-1,9,-3,-5,2,-8,7,9,0,-10
-9,-12,-2,10,-3,-7,1,-9,6,9,1,-10
-8,-12,-3,10,-2,-8,0,-10,5,11,2,-9
-6,-10,-3,8,-1,-7,0,-11,6,14,5,-7
-4,-6,-2,5,0,-4,1,-10,8,19,9,-3
-4,-4,0,3,-1,-2,1,-10,10,24,14,0
-3,-2,0,2,-1,0,0,-11,12,30,19,4
0,1,1,0,0,1,-1,-11,14,37,26,9
1,5,3,-3,-1,4,-1,-12,17,47,34,15
0,8,7,-4,-3,8,-2,-12,20,59,44,23
0,11,12,-6,-5,12,-4,-14,25,72,55,31
1,16,16,-9,-7,16,-6,-17,29,85,67,41
2,22,20,-12,-8,21,-9,-20,34,99,79,52
3,27,24,-15,-9,25,-12,-23,38,112,92,62
3,32,28,-17,-11,29,-16,-27,37,122,103,72
5,35,30,-20,-12,32,-21,-34,32,128,113,81
8,40,31,-24,-10,35,-27,-41,23,132,124,91
13,45,32,-29,-9,38,-32,-48,12,136,137,103
16,50,34,-33,-8,42,-38,-55,1,142,152,117
19,55,37,-37,-8,46,-44,-64,-10,148,168,132
23,61,38,-42,-7,49,-51,-73,-22,155,183,147
29,67,38,-48,-3,52,-57,-79,-32,161,198,161
35,73,38,-54,0,55,-60,-84,-41,166,210,173
40,78,38,-59,1,58,-64,-89,-48,169,219,184
42,81,39,-61,2,59,-68,-94,-52,167,224,190
43,83,40,-62,2,61,-69,-98,-55,162,223,194
45,85,40,-65,2,62,-69,-99,-57,152,218,193
47,87,40,-66,3,63,-68,-101,-60,136,207,188
41,83,42,-62,0,62,-67,-104,-66,111,190,178
31,77,46,-54,-6,61,-66,-108,-73,81,168,164
22,72,50,-47,-13,61,-64,-110,-80,48,143,147
13,68,54,-40,-20,61,-61,-112,-86,16,118,128
5,63,57,-34,-26,60,-58,-113,-90,-14,93,108
1,57,56,-29,-27,56,-54,-110,-90,-39,69,86
-3,50,52,-23,-27,51,-49,-104,-85,-52,49,66
-5,42,48,-18,-26,45,-42,-93,-76,-55,33,48
-5,35,40,-14,-23,37,-34,-80,-64,-53,19,31
-7,25,32,-8,-20,28,-25,-66,-52,-48,6,14
-8,16,24,-3,-16,20,-17,-52,-40,-41,-2,1
-7,10,16,-1,-12,13,-9,-39,-30,-35,-7,-8
-7,4,11,2,-9,7,-3,-28,-23,-29,-11,-15
-9,-2,6,6,-8,2,1,-20,-17,-24,-13,-19
-10,-7,2,9,-6,-3,4,-14,-14,-20,-15,-22
-11,-11,1,11,-6,-6,6,-9,-10,-17,-15,-23
-12,-12,0,12,-6,-7,8,-4,-7,-14,-15,-24
-11,-12,-1,11,-5,-7,10,0,-5,-11,-14,-24
-9,-13,-3,11,-3,-9,12,2,-4,-10,-14,-24
-9,-15,-6,11,-1,-10,13,4,-3,-9,-14,-24
-9,-17,-8,12,0,-12,14,5,-3,-8,-14,-24
-8,-17,-9,12,0,-13,15,6,-2,-8,-14,-24
-7,-16,-9,11,1,-12,16,7,-1,-7,-13,-24
-7,-15,-8,11,0,-12,16,8,0,-6,-13,-23
-8,-15,-7,12,-1,-12,17,9,0,-6,-12,-23
-9,-15,-5,12,-3,-11,18,11,1,-5,-11,-21
-10,-15,-3,12,-4,-10,19,11,2,-4,-10,-20
-11,-14,-3,12,-4,-9,18,10,2,-4,-10,-20
-10,-14,-4,12,-2,-9,17,9,3,-4,-10,-21
-8,-14,-6,11,-1,-10,16,9,3,-4,-10,-21
-9,-15,-7,12,-1,-11,16,10,4,-4,-9,-21
-10,-16,-6,13,-2,-11,16,11,5,-4,-9,-20
-9,-15,-5,13,-2,-11,16,11,6,-4,-9,-20
-9,-15,-5,12,-2,-11,15,11,7,-5,-9,-20
-10,-16,-6,13,-2,-12,15,11,7,-5,-9,-21
-10,-16,-6,13,-1,-12,15,12,8,-6,-9,-21
-9,-16,-7,13,-1,-12,15,13,9,-6,-8,-20
-9,-16,-7,13,-1,-12,16,14,10,-6,-8,-20
-10,-17,-7,14,-1,-12,16,15,11,-6,-8,-21
-9,-17,-8,13,0,-12,17,15,12,-7,-9,-21
-8,-17,-9,12,0,-13,16,14,12,-7,-9,-21
-10,-17,-7,13,-1,-12,16,14,11,-7,-9,-21
-11,-16,-6,14,-3,-11,17,15,11,-7,-9,-21
-10,-16,-6,13,-2,-11,17,16,11,-7,-8,-21
-9,-16,-7,13,-1,-12,17,18,10,-7,-8,-21
-9,-16,-7,13,-1,-11,19,20,11,-7,-7,-19
-10,-17,-7,14,-1,-12,19,21,11,-7,-7,-19
-11,-19,-8,15,-1,-13,18,20,10,-8,-7,-19
-10,-19,-8,14,-1,-13,19,21,10,-7,-7,-18
-10,-17,-6,13,-2,-11,20,22,10,-7,-6,-17
-12,-17,-5,15,-4,-11,20,22,9,-8,-6,-17
-13,-18,-5,15,-4,-12,19,22,8,-8,-7,-17
-12,-17,-6,15,-3,-12,19,22,8,-8,-7,-17
-11,-17,-6,14,-2,-11,20,22,9,-9,-7,-16
-11,-17,-5,15,-3,-11,20,21,13,-9,-7,-16
-12,-18,-5,15,-4,-11,20,20,19,-9,-7,-16
-10,-16,-5,14,-3,-11,20,19,23,-9,-6,-15
-9,-16,-6,13,-2,-11,19,18,25,-9,-6,-14
-11,-18,-7,14,-2,-13,17,16,25,-11,-7,-15
-12,-19,-6,15,-3,-13,17,15,24,-11,-7,-15
-13,-19,-6,16,-4,-13,17,14,22,-11,-7,-15
-14,-20,-6,17,-4,-13,16,11,19,-12,-7,-15
-14,-21,-7,17,-3,-13,14,9,16,-12,-7,-15
-12,-20,-7,16,-2,-13,13,7,13,-13,-7,-15
-10,-18,-7,14,-1,-12,12,6,12,-12,-6,-13
-8,-16,-7,12,-1,-11,12,4,10,-12,-5,-12
-8,-16,-7,12,-1,-11,11,2,8,-12,-5,-11
-9,-16,-7,13,-1,-12,10,0,7,-13,-5,-11
-8,-17,-8,13,0,-12,9,0,6,-13,-5,-11
-8,-17,-8,13,0,-13,8,0,5,-13,-5,-11
-10,-17,-7,13,0,-12,7,-1,5,-13,-4,-11
-10,-16,-5,13,-1,-11,6,-2,4,-13,-4,-10
-10,-15,-5,12,-1,-10,5,-3,3,-13,-3,-9
-10,-15,-4,12,-2,-10,4,-5,1,-14,-4,-9
-12,-16,-3,14,-4,-10,3,-7,0,-15,-4,-8
-12,-17,-3,14,-4,-10,2,-8,-1,-16,-4,-8
-11,-16,-5,13,-3,-10,1,-8,-1,-16,-4,-8
-10,-15,-4,13,-2,-9,2,-8,0,-15,-3,-7
-11,-15,-2,13,-3,-8,2,-8,0,-15,-3,-6
-10,-14,-2,12,-3,-8,2,-9,-1,-15,-3,-6
-8,-12,-2,10,-2,-7,2,-8,-1,-16,-2,-5
-7,-11,-2,9,-2,-7,2,-7,-1,-16,-2,-4
-7,-11,-2,9,-3,-7,2,-7,-1,-17,-2,-4
-8,-11,-2,10,-3,-7,1,-7,-2,-19,-3,-4
-9,-12,-2,11,-4,-8,2,-8,-2,-20,-3,-5
-8,-12,-3,11,-3,-8,2,-8,-3,-21,-3,-5
-9,-13,-3,11,-2,-8,0,-9,-4,-23,-4,-6
-13,-16,-2,14,-5,-9,-1,-10,-5,-24,-5,-6
-17,-17,0,17,-8,-8,-1,-10,-5,-24,-5,-6
-16,-17,0,17,-8,-9,-2,-10,-6,-25,-5,-7
-14,-17,-3,15,-6,-10,-2,-10,-7,-26,-6,-7
-13,-16,-3,14,-5,-9,-2,-10,-7,-27,-5,-6
-13,-16,-2,14,-6,-9,-2,-10,-8,-27,-5,-5
-12,-15,-3,13,-5,-9,-3,-10,-9,-28,-6,-5
-10,-13,-3,12,-3,-9,-3,-11,-9,-30,-7,-6
-10,-14,-3,12,-3,-9,-3,-11,-9,-31,-8,-7
-12,-15,-3,13,-4,-9,-3,-10,-9,-32,-8,-8
-10,-14,-3,12,-3,-9,-3,-9,-9,-32,-9,-8
-8,-13,-4,10,-2,-9,-2,-7,-10,-33,-9,-8
-8,-13,-5,10,-2,-9,-2,-6,-10,-34,-10,-8
-8,-14,-5,10,-1,-9,-2,-6,-10,-34,-10,-8
-9,-15,-6,11,-1,-10,-2,-4,-10,-34,-10,-8
-9,-15,-6,12,-1,-10,-1,-2,-9,-33,-9,-8
-9,-15,-5,13,-1,-10,-1,-1,-8,-32,-9,-8
-9,-15,-5,12,-1,-10,0,0,-8,-31,-9,-8
-7,-13,-6,10,0,-9,0,1,-8,-31,-9,-7
-6,-13,-6,9,0,-9,-1,1,-8,-30,-9,-7
-6,-13,-6,10,0,-10,-1,1,-8,-30,-9,-8
-6,-13,-6,10,0,-10,-1,1,-8,-30,-9,-8
-6,-13,-7,10,0,-10,-1,2,-8,-28,-9,-8
-6,-14,-7,11,0,-10,0,3,-7,-27,-9,-8
-6,-14,-7,11,0,-10,0,5,-6,-25,-9,-8
-6,-13,-7,10,1,-10,0,6,-5,-24,-9,-8
-6,-14,-7,10,0,-10,-1,6,-6,-24,-10,-9
-7,-15,-8,11,0,-11,-2,6,-6,-23,-11,-10
-6,-14,-8,10,1,-11,-1,8,-5,-20,-9,-9
-5,-14,-8,9,1,-11,0,10,-3,-18,-8,-9
-6,-14,-7,9,0,-11,1,12,-2,-16,-7,-8
-5,-12,-7,8,0,-9,2,13,0,-13,-6,-7
-3,-11,-7,7,2,-9,3,14,0,-11,-5,-7
-2,-10,-8,6,3,-9,3,15,1,-9,-5,-7
-3,-11,-8,7,3,-9,3,15,2,-8,-5,-7
-5,-13,-8,9,2,-10,3,16,2,-7,-5,-7
-6,-13,-7,10,0,-9,4,17,3,-5,-3,-6
-6,-13,-6,10,0,-9,4,17,4,-3,-3,-5
-6,-13,-6,10,0,-9,5,18,5,-2,-2,-5
-8,-12,-4,10,-2,-8,6,19,6,0,-1,-4
-9,-12,-3,11,-3,-7,7,20,7,1,-1,-3
-8,-12,-4,10,-2,-8,7,20,7,2,0,-3
-7,-12,-5,10,-1,-8,8,20,8,3,0,-3
-7,-12,-6,10,0,-9,8,20,8,4,0,-3
-7,-12,-5,9,-1,-8,8,20,8,4,0,-3
-6,-11,-5,8,-1,-8,8,20,9,5,0,-3
-4,-10,-5,7,0,-8,9,19,9,6,1,-3
-5,-11,-6,8,0,-8,9,19,9,7,1,-3
-8,-13,-5,10,-1,-9,9,19,9,8,0,-4
-9,-14,-4,12,-2,-8,9,19,9,9,0,-4
-10,-14,-3,12,-3,-8,10,19,9,10,1,-3
-10,-13,-3,12,-3,-7,10,19,10,10,1,-2
-9,-12,-2,11,-3,-7,10,20,10,11,2,-2
-9,-11,-1,10,-4,-6,10,20,12,11,3,-1
-10,-10,0,10,-5,-5,10,20,12,12,3,-1
-9,-10,0,10,-4,-6,9,18,11,11,2,-2
-9,-11,-2,10,-4,-6,9,18,11,11,1,-2
-8,-10,-2,10,-3,-6,9,18,11,12,2,-2
-7,-10,-3,9,-3,-6,10,18,12,13,3,-1
-6,-9,-3,8,-2,-5,10,18,13,14,3,-1
-7,-9,-2,8,-3,-5,10,18,13,15,4,0
-8,-9,0,8,-4,-4,10,19,13,15,4,0
-8,-9,0,8,-5,-4,11,19,13,16,5,0
-8,-9,1,8,-5,-4,11,19,13,16,5,1
-8,-8,1,8,-5,-4,11,19,13,16,5,1
-7,-7,0,7,-4,-4,11,19,13,17,5,1
-7,-7,-1,7,-3,-4,11,20,13,16,4,1
-8,-9,-1,9,-4,-4,11,21,12,16,3,0
-10,-10,0,10,-5,-5,11,22,12,15,3,0
-10,-11,0,10,-5,-5,12,22,12,15,3,0
-8,-9,0,9,-4,-5,13,21,12,15,3,1
-6,-8,0,7,-3,-4,13,21,12,15,3,1
-5,-7,-1,7,-2,-5,12,20,12,15,3,0
-7,-7,0,8,-4,-4,13,20,13,15,3,1
-10,-8,2,10,-6,-3,15,20,14,16,4,2
-11,-9,3,10,-7,-3,16,20,15,16,4,2
-11,-9,2,10,-6,-4,16,20,15,16,4,2
-11,-10,2,11,-6,-4,16,19,15,15,3,2
-12,-10,2,11,-7,-4,16,19,15,14,4,2
-11,-9,2,10,-7,-3,16,18,15,14,4,2
-10,-9,1,9,-6,-4,16,16,14,13,3,1
-8,-9,0,8,-4,-4,15,14,13,12,2,0
-8,-8,0,8,-4,-4,15,12,12,13,1,-1
-9,-8,2,8,-6,-3,16,12,13,14,2,0
-10,-7,3,8,-7,-2,17,11,13,14,3,1
-9,-7,2,8,-6,-2,16,10,12,14,3,2
-8,-7,1,7,-5,-3,15,7,11,12,2,1
-9,-7,1,8,-6,-3,15,6,10,11,2,1
-10,-8,2,9,-7,-2,14,5,9,11,1,1
-12,-9,3,10,-8,-3,14,3,9,10,1,0
-12,-10,2,11,-8,-3,13,2,8,10,1,0
-12,-10,2,11,-7,-3,12,0,7,10,1,0
-12,-11,2,12,-7,-4,11,-2,6,9,0,0
-13,-12,2,13,-8,-4,9,-3,5,9,0,0
-12,-11,2,12,-7,-4,7,-4,4,9,1,0
-12,-10,1,11,-7,-4,6,-5,3,9,1,0
-11,-10,1,11,-6,-5,5,-6,3,9,1,0
-10,-9,1,10,-6,-5,4,-7,3,9,1,0
-11,-9,1,11,-6,-4,3,-8,3,9,1,0
-12,-10,1,12,-7,-4,3,-9,3,9,1,0
-12,-10,1,12,-6,-4,2,-9,3,9,1,0
-10,-10,0,11,-5,-4,2,-9,4,10,2,1
-11,-10,1,11,-6,-4,1,-8,4,10,2,2
-14,-12,2,13,-8,-5,0,-9,3,9,1,1
-16,-13,2,14,-9,-5,-1,-9,3,8,0,1
-13,-12,1,12,-7,-5,-1,-9,3,8,0,1
-11,-11,0,11,-6,-5,-1,-8,3,8,0,0
-11,-11,0,11,-6,-6,-1,-9,3,8,0,0
-11,-12,-1,11,-5,-6,-1,-9,2,8,0,0
-11,-11,-1,11,-5,-6,-1,-9,2,8,0,0
-11,-12,0,12,-5,-6,0,-9,3,9,0,0
-12,-13,0,12,-6,-6,0,-8,3,9,0,0
-12,-13,0,12,-6,-6,0,-7,3,9,0,0
-13,-13,1,13,-8,-5,1,-6,4,9,0,0
-15,-14,3,14,-10,-5,1,-6,4,8,0,0
-16,-14,3,15,-10,-5,1,-6,5,8,0,0
-15,-13,2,14,-9,-5,2,-7,5,8,0,0
-14,-13,2,14,-8,-5,2,-7,6,8,0,0
-12,-12,1,13,-7,-5,1,-7,6,8,0,0
-12,-12,1,12,-7,-5,1,-6,6,8,0,0
-12,-12,2,12,-7,-5,1,-5,7,8,0,0
-11,-11,1,11,-7,-5,2,-4,8,8,0,0
-11,-10,1,10,-6,-5,2,-3,9,8,0,0
-11,-10,0,10,-5,-5,3,-2,10,8,0,0
-11,-10,0,10,-6,-5,3,-2,11,8,0,0
-10,-10,0,10,-5,-5,3,-2,12,9,1,0
-9,-9,0,9,-4,-5,4,-3,12,9,1,0
-10,-10,0,10,-5,-5,3,-3,12,9,1,0
-12,-11,2,11,-7,-4,3,-4,12,9,1,0
-11,-8,4,9,-8,-2,3,-4,12,9,1,0
-10,-5,6,8,-8,0,3,-4,13,9,1,1
-11,-5,7,8,-9,0,4,-4,13,10,2,1
-11,-5,6,9,-9,0,4,-4,14,10,2,1
-11,-7,5,9,-9,-1,4,-5,14,10,1,0
-12,-9,4,10,-8,-2,5,-5,14,10,1,0
-13,-10,3,11,-8,-3,6,-6,15,10,1,0
-12,-11,2,11,-7,-3,7,-6,15,11,1,0
-11,-11,1,11,-6,-4,8,-7,16,11,2,0
-10,-10,0,10,-5,-5,9,-7,16,12,2,0
-10,-11,-1,10,-5,-6,9,-8,17,12,2,0
-11,-12,-1,11,-5,-7,9,-9,17,12,2,1
-12,-12,0,12,-6,-7,9,-9,18,12,3,1
-12,-12,0,12,-6,-7,8,-10,17,12,2,0
-12,-13,-1,13,-6,-7,8,-11,17,12,1,0
-13,-14,-1,14,-6,-7,9,-12,17,11,1,0
-14,-15,0,14,-7,-7,10,-12,18,11,1,0
-14,-15,0,14,-7,-6,10,-12,18,11,1,0
-15,-15,0,14,-8,-6,11,-12,19,11,1,0
-14,-14,0,14,-7,-7,11,-12,19,11,1,0
-13,-14,-1,13,-6,-7,11,-12,19,10,1,0
-12,-14,-1,13,-6,-8,11,-12,19,10,1,0
-12,-13,-1,13,-5,-7,12,-12,19,11,1,0
-10,-12,-1,11,-4,-7,13,-12,19,11,1,0
-8,-11,-1,9,-3,-6,14,-11,20,12,2,0
-6,-9,-1,7,-2,-6,14,-10,20,12,2,0
-5,-8,-2,6,-1,-6,13,-10,20,12,2,0
-6,-9,-3,7,-2,-6,12,-10,20,12,2,0
-7,-10,-2,9,-3,-6,13,-10,20,13,2,0
-10,-11,-1,10,-5,-6,13,-9,20,13,3,1
-10,-12,-1,11,-4,-7,14,-9,20,14,3,0
-9,-11,-2,10,-3,-7,15,-9,21,14,3,0
-8,-11,-3,9,-2,-8,15,-8,20,14,3,0
-9,-13,-3,11,-2,-9,14,-8,19,13,2,-1
-10,-13,-3,11,-3,-9,14,-8,18,12,1,-2
-9,-13,-4,11,-2,-9,15,-7,18,12,0,-2
-9,-14,-4,12,-2,-9,16,-7,18,12,0,-2
-9,-14,-5,12,-2,-9,17,-6,18,12,0,-2
-9,-14,-5,11,-2,-9,18,-5,18,12,0,-2
-9,-14,-5,11,-2,-10,18,-4,18,11,0,-3
-9,-14,-5,11,-2,-10,18,-3,18,11,-1,-3
-10,-14,-5,12,-2,-10,18,-2,18,11,-1,-3
-11,-15,-5,12,-3,-10,17,-3,17,10,-1,-4
-10,-15,-5,12,-3,-10,17,-4,17,10,-2,-4
-10,-15,-4,12,-3,-9,17,-5,17,10,-1,-4
-12,-15,-2,13,-5,-8,17,-6,17,11,0,-3
-12,-14,0,13,-6,-7,16,-6,18,12,0,-3
-12,-12,0,12,-6,-6,16,-6,18,12,0,-2
-11,-11,0,11,-5,-6,16,-6,18,11,0,-2
-11,-11,0,11,-5,-6,15,-7,17,11,0,-2
-10,-11,0,11,-5,-6,14,-8,17,11,0,-2
-10,-11,-1,11,-5,-6,13,-9,16,10,0,-2
-10,-11,-1,11,-5,-6,12,-10,16,10,0,-2
-10,-11,-1,11,-5,-6,11,-10,15,9,0,-2
-10,-11,-1,11,-5,-6,10,-10,14,9,0,-3
-11,-11,0,11,-6,-6,10,-10,13,8,0,-3
-11,-11,0,12,-6,-6,9,-10,12,7,0,-4
-10,-11,0,11,-5,-6,8,-10,11,6,-1,-4
-9,-11,-2,10,-4,-7,7,-9,10,6,-1,-5
-9,-12,-3,10,-3,-8,7,-9,10,6,-1,-5
-8,-12,-3,10,-2,-8,6,-9,10,6,-1,-5
-8,-12,-3,10,-2,-8,5,-10,9,7,-1,-5
-7,-11,-3,10,-3,-7,4,-11,9,7,-2,-5
-8,-11,-2,10,-4,-7,3,-12,8,7,-2,-5
-10,-11,0,11,-5,-6,2,-12,8,7,-2,-5
-9,-10,0,10,-5,-5,3,-12,8,7,-1,-4
-6,-7,0,6,-3,-3,4,-11,10,9,0,-2
-3,-3,0,3,-2,-1,5,-10,11,10,1,-1
-2,-1,1,2,-3,0,5,-11,10,10,1,-1
-2,-2,0,2,-3,0,4,-12,9,10,0,-2
-3,-5,-1,4,-2,-2,2,-13,8,9,0,-3
-4,-7,-2,5,-2,-4,1,-15,7,10,0,-3
-5,-8,-1,6,-2,-4,1,-15,7,11,1,-2
-6,-7,0,7,-3,-4,0,-16,7,13,3,0
-6,-6,0,6,-3,-3,0,-17,7,15,6,1
-5,-5,0,5,-3,-2,-2,-19,7,18,8,4
-3,-4,0,4,-2,-2,-3,-20,7,23,13,7
-2,-2,0,2,-2,0,-4,-21,8,30,18,11
-4,-1,3,2,-4,1,-5,-22,10,39,26,17
-3,2,6,0,-5,5,-5,-22,14,51,35,24
0,7,7,-4,-4,8,-6,-22,18,64,45,32
2,11,9,-7,-4,10,-8,-24,21,76,55,40
1,14,13,-8,-6,14,-10,-26,23,89,67,48
1,19,19,-10,-9,18,-12,-27,25,102,79,58
0,23,24,-12,-11,23,-14,-28,26,114,91,69
1,28,27,-14,-13,28,-17,-32,24,122,102,78
4,33,29,-19,-12,31,-22,-37,18,127,112,88
8,38,30,-24,-11,35,-27,-45,11,131,124,99
12,44,32,-29,-10,38,-32,-53,4,137,137,112
16,51,34,-34,-9,42,-38,-61,-1,144,152,126
20,56,35,-38,-8,46,-44,-68,-8,150,167,140
25,61,35,-43,-6,48,-50,-75,-15,157,181,152
31,67,35,-49,-2,50,-54,-79,-22,163,195,165
38,73,35,-55,0,54,-58,-84,-27,169,206,177
41,78,36,-59,1,57,-62,-89,-32,171,214,186
43,80,37,-61,2,59,-66,-94,-36,170,218,192
44,82,37,-63,3,60,-69,-99,-40,164,216,194
45,83,37,-64,4,60,-70,-103,-44,152,210,192
45,83,37,-63,4,60,-71,-108,-50,133,197,187
42,81,39,-61,2,60,-71,-112,-57,108,180,177
36,77,41,-56,-2,59,-70,-117,-66,77,159,163
29,72,43,-50,-7,58,-68,-122,-75,43,135,146
21,66,45,-44,-12,56,-65,-125,-82,11,111,128
13,60,47,-37,-17,54,-60,-124,-85,-17,87,108
7,53,46,-30,-20,50,-54,-119,-83,-38,66,89
3,45,42,-24,-20,44,-48,-110,-77,-50,47,69
-1,34,36,-17,-19,35,-40,-98,-67,-55,29,49
-6,22,29,-8,-18,26,-32,-84,-55,-54,13,29
-8,13,22,-2,-15,17,-23,-70,-43,-50,0,12
-7,7,14,0,-11,10,-14,-56,-31,-45,-9,-1
-6,1,8,3,-7,4,-6,-43,-21,-39,-15,-10
-7,-3,3,5,-5,0,0,-33,-13,-34,-18,-16
-8,-8,0,8,-4,-3,4,-24,-6,-30,-20,-20
-8,-11,-2,9,-3,-7,8,-18,-1,-26,-21,-22
-7,-13,-5,9,-1,-9,12,-13,2,-22,-21,-23
-5,-13,-7,9,1,-11,14,-9,6,-20,-21,-24
-4,-15,-10,9,2,-13,15,-6,7,-20,-22,-25
-5,-18,-12,11,3,-15,15,-5,7,-20,-23,-26
-5,-19,-13,12,3,-16,17,-4,8,-20,-23,-27
-5,-19,-13,12,4,-16,19,-3,10,-17,-21,-26
-5,-18,-14,12,4,-16,19,-4,11,-16,-20,-25
-5,-19,-15,12,5,-17,18,-5,9,-15,-21,-26
-5,-19,-15,12,5,-17,18,-5,8,-15,-21,-26
-4,-19,-14,12,5,-17,18,-5,8,-16,-21,-26
-3,-18,-14,11,5,-16,18,-5,7,-16,-21,-26
-3,-19,-15,11,5,-17,17,-6,7,-17,-22,-27
-4,-20,-16,12,6,-18,18,-6,7,-18,-21,-27
-1,-17,-16,9,8,-17,19,-4,8,-16,-20,-26
2,-14,-17,5,10,-16,20,-3,9,-15,-18,-25
2,-14,-16,6,9,-15,19,-3,9,-14,-18,-24
0,-15,-14,7,7,-15,19,-4,9,-14,-18,-24
-1,-15,-13,8,6,-15,18,-4,9,-13,-17,-23
-3,-16,-13,9,5,-15,18,-6,9,-14,-18,-23
-5,-18,-13,11,4,-16,17,-8,8,-15,-19,-24
-5,-19,-13,12,4,-16,16,-9,7,-16,-19,-25
-5,-19,-14,12,4,-16,16,-8,7,-15,-19,-25
-4,-18,-13,11,4,-15,16,-8,7,-15,-18,-25
-4,-17,-12,10,4,-14,16,-8,7,-14,-17,-24
-2,-16,-13,9,6,-15,15,-9,7,-14,-17,-24
1,-15,-16,6,9,-16,14,-11,6,-15,-17,-24
4,-14,-17,5,11,-16,12,-14,6,-15,-17,-24
3,-15,-17,5,11,-16,10,-16,6,-16,-17,-24
3,-15,-17,5,10,-16,9,-17,5,-17,-17,-24
2,-15,-16,6,9,-16,8,-17,5,-17,-17,-24
1,-15,-16,6,8,-16,7,-18,5,-17,-17,-24
2,-14,-16,5,9,-15,7,-18,5,-17,-17,-23
2,-15,-17,6,10,-16,6,-19,4,-17,-17,-24
0,-17,-16,8,8,-17,5,-20,3,-17,-17,-24
-2,-17,-15,9,7,-16,5,-20,2,-17,-16,-23
-1,-16,-14,8,7,-15,5,-19,2,-17,-15,-23
0,-15,-14,7,7,-14,5,-18,2,-17,-15,-22
-2,-17,-14,10,6,-15,4,-19,0,-18,-15,-23
-5,-18,-13,11,4,-16,4,-20,0,-18,-15,-23
-4,-17,-13,10,4,-16,4,-20,0,-18,-15,-23
-1,-16,-15,8,7,-16,4,-20,0,-17,-15,-23
2,-14,-16,5,9,-15,3,-19,0,-17,-15,-23
1,-13,-15,5,9,-14,3,-19,-1,-18,-15,-22
1,-14,-15,6,8,-14,3,-19,-1,-18,-14,-22
2,-14,-16,6,9,-15,3,-19,-2,-18,-14,-21
3,-15,-17,6,10,-16,3,-19,-2,-17,-13,-21
2,-15,-17,6,9,-16,3,-20,-2,-17,-12,-21
2,-14,-16,6,9,-15,3,-20,-2,-16,-11,-20
3,-14,-16,5,9,-15,2,-21,-3,-17,-12,-20
2,-14,-16,5,9,-15,0,-22,-3,-18,-12,-20
0,-15,-14,7,7,-15,0,-21,-3,-18,-12,-20
-1,-15,-14,8,7,-15,0,-21,-4,-18,-11,-19
-1,-15,-13,8,6,-15,0,-21,-4,-18,-11,-19
-2,-14,-11,8,4,-13,1,-20,-4,-17,-10,-18
-1,-12,-10,7,4,-11,1,-21,-4,-16,-9,-18
0,-11,-10,6,4,-10,0,-22,-5,-16,-8,-17
0,-11,-9,6,4,-10,0,-22,-5,-17,-8,-17
-1,-11,-9,6,4,-11,0,-22,-5,-17,-8,-16
0,-11,-10,5,5,-11,-1,-22,-5,-18,-7,-16
0,-11,-10,5,5,-11,-1,-22,-6,-18,-7,-15
0,-11,-10,6,5,-12,-1,-22,-7,-19,-8,-16
0,-12,-12,6,6,-13,-1,-22,-7,-20,-8,-16
2,-12,-13,5,7,-13,-1,-22,-8,-20,-8,-16
3,-12,-15,5,8,-14,-1,-22,-8,-21,-8,-16
3,-13,-15,5,9,-14,-1,-22,-8,-21,-8,-16
2,-13,-15,5,8,-13,-1,-21,-9,-22,-8,-15
2,-12,-14,4,8,-13,0,-21,-9,-23,-7,-15
2,-11,-14,3,8,-13,0,-22,-9,-23,-7,-15
2,-10,-13,3,7,-12,-1,-24,-10,-25,-7,-15
2,-10,-13,4,7,-12,-1,-24,-11,-26,-8,-15
1,-11,-13,5,7,-13,-1,-23,-11,-27,-8,-15
2,-12,-14,5,8,-14,-1,-22,-12,-29,-9,-15
3,-13,-16,5,9,-15,-1,-21,-12,-30,-9,-15
2,-14,-15,6,8,-14,0,-20,-12,-30,-10,-15
1,-14,-15,6,8,-14,0,-19,-13,-32,-11,-16
2,-15,-17,6,9,-16,-1,-18,-15,-34,-13,-18
3,-15,-18,6,10,-17,0,-18,-16,-36,-14,-19
3,-15,-18,6,10,-17,0,-18,-17,-38,-14,-18
1,-15,-16,7,8,-16,1,-17,-17,-39,-14,-18
0,-16,-16,8,8,-16,2,-16,-17,-40,-14,-17
0,-18,-16,9,7,-17,2,-15,-17,-40,-14,-17
-1,-18,-16,10,7,-17,3,-14,-17,-40,-14,-17
-1,-18,-16,9,7,-17,4,-13,-17,-41,-14,-17
0,-18,-17,9,8,-18,5,-13,-17,-42,-15,-18
2,-17,-19,7,10,-18,5,-12,-17,-43,-15,-18
5,-16,-21,5,13,-19,5,-12,-17,-44,-16,-18
6,-15,-22,4,14,-19,5,-11,-17,-44,-16,-18
7,-15,-22,4,14,-19,6,-11,-17,-45,-17,-18
7,-15,-22,4,14,-18,6,-10,-16,-44,-18,-19
7,-14,-21,4,14,-18,7,-9,-16,-44,-18,-19
8,-14,-22,3,15,-18,7,-7,-16,-44,-19,-20
8,-16,-23,3,15,-20,8,-6,-16,-44,-20,-21
6,-19,-24,6,15,-21,8,-6,-16,-44,-21,-22
4,-20,-23,8,14,-22,10,-5,-15,-42,-21,-22
3,-20,-23,8,13,-22,12,-4,-14,-41,-21,-22
4,-20,-24,8,14,-22,12,-4,-14,-41,-22,-23
5,-21,-24,8,15,-23,12,-4,-14,-40,-22,-23
5,-21,-25,8,15,-23,12,-3,-13,-39,-22,-23
6,-21,-26,7,16,-24,12,-3,-13,-37,-22,-22
6,-21,-27,7,17,-24,12,-2,-13,-36,-21,-22
6,-21,-27,7,17,-24,13,-2,-12,-34,-21,-21
6,-21,-27,7,17,-24,13,-1,-12,-33,-20,-21
6,-21,-27,7,17,-24,14,-1,-12,-32,-20,-21
6,-21,-27,7,17,-24,14,-1,-11,-30,-19,-20
6,-21,-27,7,16,-24,14,-1,-11,-28,-18,-19
6,-21,-27,7,16,-24,14,-2,-10,-26,-18,-19
6,-21,-27,7,16,-24,13,-2,-10,-24,-17,-19
5,-21,-27,8,16,-24,12,-2,-11,-23,-17,-18
5,-21,-26,8,15,-24,11,-3,-11,-22,-16,-18
6,-20,-26,7,16,-23,10,-4,-10,-20,-14,-17
8,-19,-27,5,17,-23,10,-5,-10,-19,-13,-16
7,-21,-28,7,17,-24,8,-6,-12,-19,-14,-16
5,-23,-27,9,15,-25,8,-7,-13,-18,-14,-16
3,-24,-26,10,14,-25,7,-8,-13,-17,-13,-15
3,-23,-25,9,14,-24,7,-9,-13,-15,-12,-14
6,-20,-25,7,15,-23,7,-10,-13,-15,-11,-13
8,-18,-25,5,16,-22,7,-10,-12,-14,-10,-12
8,-17,-25,4,17,-22,7,-10,-12,-14,-9,-11
7,-17,-24,4,15,-21,7,-9,-12,-13,-8,-11
5,-18,-23,6,14,-21,6,-9,-11,-12,-8,-10
4,-19,-22,7,13,-21,5,-9,-12,-12,-8,-10
4,-19,-22,7,13,-21,5,-10,-12,-11,-8,-9
3,-20,-22,8,13,-21,5,-11,-12,-10,-8,-9
3,-20,-22,8,12,-21,4,-12,-12,-9,-8,-8
4,-19,-22,7,13,-21,4,-13,-12,-9,-7,-8
4,-19,-23,7,13,-21,3,-14,-13,-9,-7,-8
4,-20,-24,8,13,-22,1,-15,-14,-10,-7,-8
4,-20,-24,7,13,-22,1,-15,-14,-10,-6,-8
7,-17,-24,5,15,-21,1,-15,-13,-9,-5,-7
9,-16,-25,3,16,-21,1,-14,-12,-8,-4,-7
8,-17,-24,4,16,-21,0,-14,-12,-7,-4,-7
6,-17,-23,4,15,-20,1,-13,-12,-6,-4,-6
6,-16,-22,5,14,-19,1,-12,-11,-5,-3,-5
6,-16,-22,5,14,-19,1,-12,-11,-5,-3,-4
5,-16,-21,5,13,-19,1,-11,-11,-4,-3,-4
4,-16,-21,6,12,-19,2,-10,-10,-3,-2,-3
5,-15,-20,5,12,-18,2,-9,-9,-2,-1,-3
6,-14,-20,4,13,-17,1,-10,-9,-1,-1,-2
6,-15,-20,5,12,-17,0,-10,-10,-1,-1,-2
4,-16,-20,6,12,-18,0,-10,-11,-2,-2,-2
3,-18,-20,7,11,-19,-1,-10,-11,-2,-3,-3
3,-19,-21,8,12,-20,-1,-9,-11,-2,-4,-3
3,-19,-21,7,12,-20,0,-8,-10,-1,-3,-2
4,-19,-21,7,13,-20,0,-7,-10,0,-3,-1
5,-19,-22,6,14,-21,1,-7,-10,0,-3,-1
5,-18,-23,6,14,-21,1,-6,-10,0,-3,-1
6,-17,-22,6,14,-20,1,-6,-10,0,-4,-2
6,-17,-22,5,15,-20,1,-5,-10,0,-4,-2
6,-16,-22,5,14,-19,2,-5,-10,1,-4,-1
5,-16,-20,5,12,-18,2,-4,-9,1,-4,-1
3,-17,-18,6,11,-18,2,-3,-9,1,-4,0
1,-17,-18,7,10,-18,3,-2,-8,1,-5,0
2,-18,-19,7,10,-19,3,-2,-8,2,-5,0
3,-17,-20,7,11,-19,3,-1,-8,2,-5,0
3,-18,-20,7,11,-19,3,-1,-7,3,-4,1
2,-19,-20,9,11,-19,4,0,-6,4,-3,1
1,-20,-20,9,11,-20,5,0,-6,5,-3,2
1,-20,-20,9,11,-20,5,1,-7,5,-3,1
1,-20,-20,8,10,-20,6,2,-6,5,-4,1
4,-17,-20,5,12,-19,8,4,-5,6,-3,2
7,-15,-21,3,13,-19,8,5,-5,6,-2,2
7,-16,-22,4,14,-19,8,5,-4,6,-3,2
6,-17,-22,5,14,-20,8,6,-4,6,-3,2
5,-18,-22,6,13,-20,9,7,-4,6,-3,2
5,-17,-22,6,13,-19,11,9,-3,7,-3,3
5,-17,-22,5,13,-19,12,9,-2,7,-3,3
4,-18,-22,6,13,-20,12,8,-3,6,-4,2
5,-17,-22,6,13,-20,13,8,-3,5,-4,1
7,-15,-22,3,14,-19,14,9,-2,5,-4,2
7,-15,-21,4,13,-18,14,10,-2,6,-3,2
3,-17,-19,7,11,-18,14,10,-2,6,-3,2
2,-18,-18,8,10,-18,15,10,-1,7,-2,3
2,-17,-18,7,10,-17,16,11,-1,7,-3,3
4,-17,-20,6,12,-18,17,11,-2,6,-4,3
4,-18,-21,6,13,-19,16,10,-2,5,-5,2
3,-19,-21,7,12,-20,16,9,-2,6,-5,1
2,-18,-20,7,11,-20,16,9,-2,7,-4,2
3,-18,-20,7,12,-20,16,8,-2,7,-3,3
1,-19,-20,8,11,-20,15,7,-2,6,-4,2
0,-21,-21,10,11,-21,15,7,-2,5,-4,2
2,-21,-23,9,13,-21,16,7,-2,5,-5,1
3,-21,-23,8,14,-21,16,7,-2,5,-6,1
2,-22,-23,10,13,-22,15,6,-3,4,-7,0
3,-21,-24,9,14,-23,15,5,-3,5,-6,0
5,-19,-24,7,15,-22,14,5,-3,5,-5,1
5,-19,-24,7,14,-22,13,5,-4,5,-4,1
5,-19,-24,7,14,-22,12,4,-4,5,-4,1
6,-18,-24,6,15,-21,12,4,-4,4,-4,2
6,-18,-24,6,15,-21,12,4,-4,5,-4,2
5,-18,-23,6,14,-21,11,3,-5,5,-4,2
4,-19,-23,7,13,-21,11,2,-5,4,-4,2
1,-21,-22,9,12,-21,10,2,-6,3,-5,2
0,-22,-23,11,12,-22,9,1,-7,2,-6,1
0,-22,-23,11,12,-23,9,1,-7,2,-6,1
1,-22,-24,10,12,-23,9,0,-7,3,-6,1
2,-22,-24,10,13,-23,9,0,-7,3,-6,1
1,-23,-25,11,13,-24,8,0,-7,3,-6,1
1,-24,-25,11,13,-24,8,-1,-8,3,-6,1
0,-24,-25,11,13,-24,7,-2,-8,3,-6,1
0,-24,-25,11,13,-24,6,-3,-9,3,-6,1
2,-24,-26,10,14,-24,5,-3,-9,2,-7,1
4,-23,-27,9,15,-25,5,-3,-9,2,-7,1
4,-23,-27,10,15,-25,5,-2,-9,2,-7,1
2,-24,-26,11,14,-25,5,-2,-9,2,-7,1
3,-24,-26,11,14,-25,4,-3,-9,2,-7,0
4,-25,-28,10,15,-26,3,-5,-10,2,-8,0
3,-26,-28,11,15,-27,2,-5,-10,1,-8,0
1,-26,-27,12,14,-26,3,-4,-10,2,-8,0
-1,-26,-25,13,12,-25,4,-3,-9,2,-7,0
-1,-26,-24,14,11,-25,4,-4,-9,2,-7,0
0,-26,-25,13,12,-26,4,-4,-9,1,-7,0
1,-26,-26,13,13,-26,5,-3,-9,2,-7,0
1,-27,-27,13,14,-27,5,-3,-9,2,-7,1
1,-27,-27,13,14,-27,5,-3,-8,3,-6,1
0,-26,-26,13,13,-26,5,-2,-7,4,-5,2
2,-24,-26,11,15,-25,4,-2,-7,4,-4,3
7,-23,-30,8,19,-26,3,-3,-8,4,-5,2
7,-24,-31,8,20,-27,3,-4,-8,4,-6,2
5,-25,-31,10,18,-28,2,-4,-9,3,-6,2
6,-25,-31,10,18,-28,2,-4,-9,2,-7,1
7,-25,-32,9,19,-29,2,-3,-9,1,-8,0
6,-25,-31,10,18,-29,3,-1,-9,1,-7,1
5,-25,-30,10,18,-28,4,0,-8,2,-7,1
6,-25,-31,10,19,-28,4,1,-7,3,-6,1
8,-26,-33,9,21,-29,4,0,-8,3,-7,1
7,-27,-34,10,21,-30,4,-1,-8,3,-7,1
4,-27,-32,11,18,-29,5,-1,-7,4,-6,2
4,-25,-30,10,17,-27,7,0,-6,4,-6,3
6,-23,-29,8,17,-26,7,2,-5,4,-5,3
7,-21,-28,7,18,-26,7,3,-5,5,-5,3
8,-21,-29,7,18,-26,7,3,-5,5,-5,3
8,-22,-29,7,19,-26,7,4,-5,4,-5,3
7,-23,-29,8,18,-26,8,4,-5,4,-5,3
5,-24,-30,9,18,-27,8,4,-5,4,-6,3
5,-25,-30,10,17,-27,9,5,-5,4,-6,3
5,-25,-30,10,17,-28,10,6,-4,3,-6,3
5,-25,-31,10,18,-28,10,7,-5,3,-6,3
5,-26,-31,10,17,-28,10,7,-5,2,-7,2
4,-27,-30,11,17,-28,11,8,-4,3,-7,2
3,-27,-30,12,17,-29,11,8,-4,3,-6,3
3,-27,-30,12,17,-29,12,9,-3,4,-6,3
3,-27,-30,12,17,-28,12,10,-3,4,-5,4
3,-26,-30,12,17,-28,12,11,-3,3,-5,4
3,-26,-30,11,16,-27,13,11,-2,3,-5,4
3,-26,-29,11,16,-27,14,12,-2,3,-5,4
2,-27,-29,12,15,-28,15,13,-2,3,-6,3
1,-28,-29,13,15,-29,16,13,-1,3,-6,2
1,-28,-29,13,15,-29,17,15,0,4,-5,3
1,-28,-28,13,15,-28,18,15,0,4,-5,4
2,-28,-29,12,16,-28,18,15,0,4,-5,4
4,-27,-31,11,17,-29,18,15,0,4,-5,4
4,-27,-31,11,17,-29,19,16,0,5,-5,5
2,-28,-30,13,16,-29,19,16,0,5,-5,5
0,-29,-29,14,15,-29,20,16,0,4,-6,4
0,-29,-29,14,14,-29,20,16,0,5,-5,4
0,-29,-29,14,14,-29,21,15,1,5,-5,5
0,-30,-29,14,14,-30,20,14,1,5,-6,5
-1,-30,-29,15,14,-30,20,13,0,5,-6,4
-1,-31,-29,16,14,-30,20,14,0,5,-6,4
-1,-32,-29,16,14,-30,20,15,1,6,-5,5
0,-31,-30,15,15,-30,20,16,1,7,-5,5
0,-31,-30,15,15,-30,20,17,1,7,-5,6
-1,-32,-30,16,14,-30,20,17,1,7,-5,5
-1,-32,-30,16,14,-31,19,16,1,7,-6,5
-1,-32,-31,16,14,-32,18,16,1,7,-6,4
-1,-31,-30,16,14,-31,18,16,1,7,-6,5
0,-31,-31,16,15,-31,17,15,1,7,-5,5
0,-31,-31,15,16,-31,16,15,2,7,-5,5
2,-29,-31,14,16,-30,16,16,3,8,-4,6
1,-29,-31,14,15,-30,15,16,3,9,-3,7
0,-31,-30,16,14,-30,12,14,3,9,-4,6
-2,-32,-30,16,14,-31,11,12,2,8,-4,6
-2,-32,-29,16,13,-30,11,11,3,9,-3,6
-2,-31,-29,16,13,-30,11,11,3,9,-3,6
-1,-30,-29,15,13,-29,10,10,4,9,-3,6
-1,-29,-28,15,13,-28,10,10,4,9,-3,6
-2,-30,-27,16,12,-28,8,8,4,8,-4,6
-3,-30,-27,17,11,-28,7,7,4,8,-4,5
-3,-30,-27,16,11,-28,6,7,4,8,-4,5
-3,-29,-27,16,11,-28,5,8,5,9,-4,4
-3,-29,-27,15,11,-28,5,8,5,9,-5,4
-2,-29,-27,15,12,-28,4,8,5,8,-5,3
0,-28,-28,13,14,-28,5,8,6,8,-5,3
1,-27,-28,12,14,-28,5,7,7,8,-5,2
1,-27,-28,13,14,-27,5,7,7,8,-5,2
1,-26,-27,13,14,-27,4,6,8,7,-6,1
1,-25,-27,12,14,-26,3,5,8,7,-6,0
0,-24,-25,12,13,-25,3,5,9,8,-6,0
1,-23,-25,11,13,-24,3,5,10,8,-6,-1
1,-22,-24,10,13,-23,3,4,10,8,-6,-1
0,-22,-22,11,11,-22,4,4,11,8,-6,-2
-2,-22,-19,12,9,-21,5,5,12,9,-6,-2
-2,-21,-18,12,7,-20,5,5,14,9,-6,-2
-1,-21,-19,12,8,-20,4,3,14,8,-7,-4
0,-20,-20,10,10,-20,2,2,15,7,-9,-5
2,-18,-20,8,10,-18,2,1,16,7,-9,-6
2,-14,-16,6,9,-15,2,1,18,7,-10,-6
2,-10,-12,5,7,-11,2,1,19,7,-10,-7
1,-8,-9,4,5,-9,1,0,20,6,-11,-9
0,-7,-7,4,4,-7,0,-1,21,4,-12,-10
0,-6,-5,3,3,-6,0,-2,22,3,-13,-12
0,-4,-4,2,2,-5,-1,-3,23,2,-14,-13
0,-3,-2,2,0,-3,-1,-4,23,1,-15,-14
-1,-2,0,2,-1,-1,-1,-3,24,1,-16,-14
-2,-1,1,2,-1,0,-1,-3,26,0,-16,-15
-1,-1,1,2,-1,0,-1,-3,27,0,-17,-16
0,0,1,0,0,0,0,-2,29,0,-18,-17
0,2,2,-1,0,2,1,-1,31,0,-17,-17
1,1,1,-1,0,1,2,0,33,0,-16,-17
1,0,0,0,0,0,4,2,34,1,-16,-16
1,1,0,0,0,0,5,4,36,1,-15,-16
1,3,2,-2,0,2,5,3,36,1,-15,-16
0,4,4,-2,-1,4,5,2,37,1,-16,-16
0,6,6,-3,-2,6,5,1,37,0,-16,-17
0,8,8,-4,-3,8,5,1,37,0,-16,-17
1,11,9,-6,-3,10,4,1,36,-2,-17,-18
2,12,11,-7,-4,11,4,0,36,-3,-18,-19
3,14,12,-9,-4,13,4,0,36,-3,-19,-20
2,16,14,-9,-6,15,4,0,37,-3,-19,-20
0,16,16,-8,-8,16,3,0,37,-3,-19,-20
-2,17,18,-8,-10,18,4,0,37,-2,-18,-20
-1,18,19,-8,-10,19,5,1,38,-1,-18,-20
0,18,19,-9,-9,19,5,0,38,-2,-18,-20
0,18,18,-9,-8,18,4,-2,37,-3,-19,-22
0,17,17,-8,-8,17,4,-3,36,-4,-20,-23
-1,17,18,-7,-10,17,5,-3,36,-5,-20,-23
-1,17,19,-7,-10,18,5,-3,36,-6,-21,-23
0,18,19,-8,-9,18,5,-3,36,-6,-21,-24
0,19,19,-9,-9,19,6,-2,37,-5,-21,-23
-1,20,21,-9,-11,21,8,0,38,-4,-20,-23
-1,20,22,-8,-12,21,8,0,38,-5,-20,-23
1,20,20,-10,-9,20,7,-2,37,-6,-21,-25
4,21,18,-11,-7,19,7,-3,36,-7,-22,-26
4,21,18,-12,-7,19,7,-2,35,-6,-22,-25
3,21,18,-12,-8,20,8,-2,35,-6,-22,-25
1,22,20,-12,-9,21,8,-1,34,-6,-22,-25
-1,22,22,-10,-12,22,8,-2,33,-6,-22,-25
-2,22,24,-9,-13,23,7,-3,31,-6,-22,-25
-2,21,24,-9,-12,22,7,-3,29,-6,-22,-26
-2,21,24,-8,-12,22,7,-3,27,-6,-22,-26
-2,21,24,-8,-13,22,8,-3,25,-6,-22,-25
-2,21,24,-9,-13,22,8,-3,24,-6,-22,-25
-3,20,24,-8,-13,22,7,-4,22,-7,-22,-25
-4,18,23,-7,-13,21,6,-4,20,-8,-23,-25
-2,18,21,-8,-11,20,6,-4,19,-8,-23,-26
-1,20,21,-10,-10,21,6,-3,19,-7,-23,-25
0,22,22,-11,-10,22,7,-3,19,-5,-21,-24
0,22,21,-11,-10,22,6,-4,19,-4,-20,-22
1,23,21,-12,-9,22,5,-5,20,-3,-19,-21
3,25,21,-13,-9,23,4,-4,21,-1,-17,-19
3,27,23,-15,-9,25,3,-5,23,2,-14,-17
3,29,25,-16,-11,27,1,-6,24,6,-11,-14
3,30,27,-17,-11,29,0,-8,27,11,-6,-10
3,31,28,-18,-11,29,-2,-11,31,18,-1,-6
4,32,29,-18,-12,30,-5,-13,36,26,5,-1
5,35,30,-20,-12,32,-7,-15,40,36,13,5
4,37,33,-20,-14,35,-9,-17,42,48,23,13
4,42,37,-23,-16,40,-10,-18,44,62,35,23
5,48,42,-27,-18,45,-11,-20,44,77,47,33
5,53,47,-29,-20,50,-15,-24,42,89,58,42
5,56,51,-30,-22,53,-19,-28,40,100,69,51
7,60,53,-33,-22,57,-23,-34,37,109,80,61
12,66,55,-39,-21,61,-27,-40,32,117,92,72
16,72,56,-44,-20,64,-32,-47,24,122,105,84
17,77,59,-47,-20,68,-38,-53,15,128,118,97
20,83,61,-51,-20,72,-44,-60,6,135,134,112
24,89,63,-57,-19,77,-51,-69,-3,142,149,127
29,96,65,-63,-17,81,-58,-77,-13,148,164,141
35,102,66,-68,-16,85,-63,-83,-23,152,176,154
39,107,67,-73,-14,87,-68,-90,-32,154,187,165
44,111,67,-78,-11,89,-73,-97,-40,154,193,174
49,114,66,-82,-9,90,-75,-102,-46,150,196,179
48,115,67,-82,-9,91,-76,-105,-51,141,193,181
46,116,70,-81,-11,92,-76,-107,-56,127,185,178
45,117,71,-81,-12,94,-75,-108,-60,107,172,171
42,117,74,-80,-15,95,-75,-111,-66,81,154,160
34,113,78,-74,-21,95,-74,-114,-73,49,131,145
25,108,82,-67,-28,95,-72,-118,-81,16,106,127
18,104,86,-61,-34,95,-68,-120,-87,-14,82,107
11,99,88,-55,-39,94,-64,-119,-91,-40,58,86
3,91,88,-47,-42,90,-59,-115,-91,-58,37,66
-2,81,84,-39,-43,83,-53,-107,-86,-67,18,46
-6,71,77,-33,-41,75,-47,-96,-78,-68,3,27
-8,62,70,-27,-38,66,-39,-83,-67,-64,-10,9
-10,54,63,-22,-36,59,-31,-69,-56,-59,-21,-5
-12,45,57,-17,-34,52,-24,-56,-45,-53,-28,-17
-12,38,51,-13,-31,45,-18,-44,-37,-47,-33,-25
-11,32,44,-10,-28,39,-13,-34,-31,-42,-37,-30
-13,26,39,-6,-26,33,-9,-25,-25,-38,-38,-33
-13,23,36,-4,-24,29,-5,-18,-19,-33,-38,-35
-12,21,33,-4,-21,27,-2,-12,-15,-30,-38,-36
-11,19,30,-4,-19,25,-1,-7,-13,-28,-38,-36
-9,19,28,-4,-18,23,1,-3,-10,-27,-37,-37
-8,18,26,-5,-17,22,2,0,-9,-26,-37,-37
-7,18,25,-5,-16,21,3,2,-9,-25,-38,-38
-6,17,24,-5,-15,20,4,3,-9,-25,-38,-38
-6,17,23,-5,-14,19,5,5,-8,-23,-37,-38
-7,16,23,-5,-14,19,6,7,-8,-22,-36,-37
-8,15,23,-3,-15,18,6,7,-8,-22,-36,-36
-9,14,22,-2,-14,18,5,7,-8,-22,-35,-36
-8,14,22,-3,-14,18,5,7,-8,-23,-35,-36
-8,15,23,-3,-15,19,5,7,-8,-23,-34,-35
-8,15,23,-3,-15,19,5,8,-8,-23,-34,-35
-5,15,21,-5,-13,18,5,7,-8,-23,-35,-36
-4,15,19,-5,-12,17,5,7,-9,-23,-35,-36
-4,14,19,-5,-11,16,6,7,-8,-23,-35,-36
-4,15,19,-6,-11,17,8,7,-8,-22,-34,-35
-5,15,20,-5,-12,17,8,6,-7,-21,-33,-34
-8,14,22,-3,-14,18,8,6,-7,-21,-32,-33
-11,13,24,-1,-17,19,8,5,-8,-21,-32,-33
-12,13,25,0,-18,19,8,4,-8,-21,-32,-34
-12,13,25,0,-19,18,8,4,-8,-20,-31,-34
-11,13,24,-1,-18,18,8,4,-9,-20,-31,-34
-8,14,23,-2,-16,18,8,4,-9,-19,-30,-33
-7,15,22,-3,-14,18,8,4,-9,-19,-29,-33
-7,14,22,-3,-14,18,8,4,-10,-20,-29,-33
-7,15,22,-4,-14,19,9,6,-10,-21,-29,-32
-5,17,21,-6,-13,19,9,7,-10,-21,-28,-32
-4,17,20,-7,-12,19,8,7,-11,-22,-28,-32
-4,16,19,-6,-11,18,6,6,-11,-22,-28,-33
-3,16,19,-6,-11,18,6,6,-11,-22,-27,-32
-4,16,20,-6,-12,18,7,6,-10,-21,-26,-31
-3,17,21,-7,-11,19,8,6,-9,-20,-25,-30
-3,16,20,-7,-11,18,9,5,-9,-20,-25,-30
-4,15,20,-6,-11,18,10,5,-10,-21,-25,-30
-3,17,19,-7,-10,18,10,5,-9,-21,-25,-29
-1,19,20,-8,-10,19,11,6,-8,-20,-23,-28
0,20,19,-9,-10,20,11,5,-9,-21,-23,-27
1,19,18,-10,-8,18,9,2,-10,-22,-23,-28
0,18,18,-9,-9,18,8,1,-11,-22,-23,-28
0,18,19,-9,-9,18,9,0,-11,-22,-22,-27
0,19,18,-9,-9,18,9,-1,-11,-22,-22,-27
0,17,18,-8,-8,17,8,-4,-13,-23,-23,-27
-2,15,18,-6,-10,17,7,-8,-14,-24,-23,-27
-4,14,19,-5,-11,17,6,-10,-14,-24,-23,-27
-3,15,19,-5,-11,17,5,-13,-15,-24,-23,-26
-2,16,18,-7,-10,17,4,-16,-15,-24,-23,-26
-1,16,18,-8,-10,18,4,-19,-15,-24,-22,-26
-1,17,19,-8,-11,18,3,-22,-14,-23,-21,-25
-2,18,20,-8,-11,19,3,-24,-13,-23,-20,-24
-1,19,20,-9,-10,19,2,-23,-12,-23,-20,-24
0,20,20,-10,-10,20,0,-16,-11,-24,-20,-23
-1,19,20,-8,-10,19,-1,-8,-12,-25,-20,-23
-3,18,21,-7,-12,20,-1,-5,-11,-25,-19,-23
-3,19,23,-8,-13,21,-1,-8,-10,-24,-17,-21
-1,20,22,-9,-12,21,-1,-14,-10,-24,-17,-20
1,21,20,-11,-9,20,-3,-20,-11,-25,-18,-21
2,21,18,-12,-7,19,-3,-23,-12,-25,-18,-22
2,20,18,-11,-7,19,-4,-25,-13,-26,-18,-22
1,19,18,-11,-8,18,-4,-27,-13,-27,-18,-22
-1,19,20,-9,-10,19,-4,-30,-13,-27,-18,-21
-2,20,21,-9,-11,20,-5,-32,-12,-26,-17,-21
1,21,20,-11,-9,20,-6,-34,-12,-27,-17,-20
5,22,16,-13,-5,19,-7,-36,-11,-27,-17,-20
6,20,15,-13,-4,18,-8,-37,-11,-28,-17,-20
2,17,16,-10,-6,17,-8,-38,-10,-28,-17,-20
0,16,16,-8,-7,16,-8,-40,-10,-28,-16,-20
2,19,15,-11,-6,17,-8,-42,-10,-28,-16,-19
4,21,16,-13,-5,18,-8,-44,-10,-28,-15,-18
4,22,17,-13,-6,19,-9,-47,-11,-28,-15,-18
4,22,17,-13,-7,19,-11,-49,-12,-30,-15,-18
2,21,18,-11,-8,19,-12,-50,-14,-31,-15,-18
3,20,17,-11,-7,19,-13,-51,-16,-33,-15,-18
4,20,17,-12,-6,19,-13,-52,-18,-34,-15,-17
2,19,17,-11,-7,19,-14,-53,-19,-35,-16,-17
1,18,17,-10,-8,18,-15,-55,-21,-36,-16,-18
1,19,17,-10,-7,18,-15,-56,-22,-37,-17,-19
1,19,17,-9,-8,18,-16,-57,-23,-38,-17,-19
0,19,18,-9,-9,18,-16,-59,-24,-40,-17,-18
-1,18,19,-9,-10,19,-17,-60,-26,-41,-17,-18
0,19,19,-9,-10,19,-17,-60,-27,-42,-17,-18
2,20,19,-11,-8,19,-17,-60,-28,-42,-16,-18
2,20,19,-11,-8,19,-17,-61,-29,-43,-16,-18
0,18,18,-9,-8,18,-18,-63,-31,-45,-18,-19
2,18,16,-10,-6,17,-19,-63,-32,-47,-19,-20
4,19,14,-11,-5,17,-19,-63,-32,-47,-20,-21
5,19,14,-12,-4,17,-19,-62,-32,-47,-20,-21
6,20,14,-13,-4,17,-19,-61,-32,-47,-20,-21
5,19,14,-12,-4,16,-18,-60,-31,-47,-20,-21
4,18,14,-11,-4,16,-17,-59,-31,-47,-20,-21
4,17,13,-10,-4,15,-17,-59,-29,-47,-21,-22
4,17,12,-11,-3,15,-17,-58,-27,-47,-22,-23
5,17,11,-12,-2,15,-17,-57,-25,-47,-22,-23
5,18,11,-12,-3,15,-17,-56,-24,-46,-23,-24
5,18,11,-12,-3,14,-17,-56,-24,-45,-24,-25
6,18,11,-12,-2,14,-16,-55,-22,-44,-23,-25
6,17,12,-12,-2,14,-14,-53,-21,-42,-22,-24
6,17,11,-11,-2,13,-14,-53,-19,-41,-22,-25
7,17,10,-12,-1,13,-13,-52,-17,-39,-21,-25
9,18,9,-13,0,14,-11,-50,-14,-36,-20,-24
10,19,8,-14,1,14,-10,-48,-12,-33,-19,-23
9,17,7,-13,1,13,-10,-48,-10,-32,-19,-24
8,16,6,-12,1,11,-9,-48,-7,-31,-20,-24
9,16,6,-13,1,11,-8,-48,-2,-29,-19,-24
10,16,6,-13,2,11,-8,-46,3,-28,-19,-24
9,16,6,-13,1,11,-7,-45,7,-26,-18,-24
8,14,6,-12,1,10,-7,-45,9,-25,-19,-25
7,14,6,-11,1,10,-7,-45,11,-24,-18,-25
8,14,6,-11,1,10,-5,-43,13,-22,-17,-24
8,16,6,-12,1,11,-4,-42,13,-20,-17,-23
9,16,7,-13,1,11,-4,-40,13,-19,-16,-23
8,16,7,-13,0,12,-3,-39,12,-18,-16,-23
7,16,8,-12,-1,12,-3,-38,10,-16,-15,-22
7,16,10,-12,-2,13,-2,-37,8,-14,-14,-21
5,16,11,-11,-3,14,-1,-36,6,-13,-13,-20
4,15,11,-9,-4,13,-1,-35,4,-12,-14,-20
3,14,11,-8,-4,12,0,-35,2,-11,-14,-20
3,14,10,-8,-4,12,0,-34,2,-10,-13,-20
4,14,10,-9,-3,12,1,-33,3,-9,-13,-20
7,16,9,-11,-2,12,2,-32,4,-8,-12,-20
11,19,9,-15,0,14,2,-31,5,-7,-11,-19
11,20,9,-15,0,14,3,-30,5,-6,-11,-19
9,18,9,-14,0,14,3,-30,4,-5,-11,-19
10,18,8,-14,1,13,4,-28,2,-4,-11,-19
10,17,8,-13,1,13,5,-27,1,-4,-11,-19
7,16,9,-11,0,13,6,-25,0,-3,-11,-19
5,16,10,-10,-2,13,7,-25,0,-3,-11,-19
5,16,10,-10,-3,13,7,-25,0,-3,-11,-19
4,15,10,-9,-3,12,7,-24,0,-3,-11,-19
3,13,10,-8,-3,11,7,-24,-1,-4,-11,-19
3,13,10,-8,-3,11,7,-24,-3,-4,-11,-19
3,13,10,-8,-3,12,7,-26,-4,-4,-12,-19
3,13,10,-8,-2,11,7,-27,-6,-4,-12,-19
3,13,10,-8,-3,11,7,-28,-6,-4,-11,-19
2,13,10,-7,-4,11,7,-29,-7,-4,-11,-19
2,13,11,-7,-4,11,7,-30,-7,-5,-11,-19
2,14,11,-7,-4,11,7,-31,-8,-5,-11,-19
3,14,11,-8,-4,12,7,-32,-8,-4,-11,-18
4,16,12,-10,-3,13,6,-32,-9,-3,-10,-17
5,16,12,-10,-3,14,6,-33,-10,-3,-10,-17
5,16,12,-10,-3,14,5,-34,-11,-3,-11,-17
4,16,12,-10,-3,14,4,-35,-11,-3,-11,-17
4,17,12,-10,-3,14,4,-36,-11,-3,-11,-17
5,17,12,-11,-3,14,3,-38,-9,-3,-11,-17
5,18,11,-11,-2,14,2,-39,-7,-3,-11,-17
4,17,12,-11,-3,14,1,-40,-5,-3,-11,-16
3,15,12,-9,-3,14,0,-41,-3,-4,-11,-17
2,14,11,-8,-3,13,-1,-42,-2,-5,-12,-17
0,12,12,-6,-4,12,-2,-43,-1,-5,-12,-18
0,11,12,-5,-5,12,-3,-43,-1,-5,-12,-18
2,13,12,-7,-4,13,-2,-42,0,-5,-12,-17
5,16,11,-11,-2,14,-2,-41,2,-4,-11,-16
6,17,11,-12,-2,14,-2,-41,2,-4,-11,-16
6,17,10,-12,-2,13,-3,-41,2,-5,-11,-16
6,17,11,-11,-2,13,-4,-42,2,-4,-11,-16
4,16,11,-10,-3,14,-4,-42,1,-4,-11,-15
3,15,12,-9,-4,14,-5,-43,0,-4,-11,-15
3,14,12,-9,-3,14,-6,-43,0,-4,-11,-15
4,15,11,-10,-2,13,-7,-44,0,-4,-11,-15
4,15,11,-10,-2,13,-8,-44,0,-5,-12,-15
2,15,12,-9,-4,13,-8,-44,1,-5,-12,-15
1,15,13,-8,-5,14,-8,-42,1,-5,-12,-15
0,14,14,-7,-6,14,-8,-42,1,-5,-12,-15
0,14,14,-7,-7,13,-8,-42,1,-5,-12,-15
0,14,14,-7,-7,13,-8,-42,0,-5,-12,-15
0,14,13,-7,-6,14,-8,-41,0,-5,-12,-15
2,15,12,-8,-4,14,-8,-39,0,-5,-12,-15
3,15,12,-9,-4,14,-8,-38,0,-5,-12,-15
1,15,13,-8,-5,14,-9,-38,0,-5,-12,-14
0,14,14,-7,-7,14,-10,-38,0,-6,-12,-14
0,15,14,-7,-7,14,-10,-38,0,-6,-12,-13
1,16,14,-9,-6,14,-9,-37,0,-6,-12,-13
3,17,13,-10,-4,14,-9,-36,0,-6,-12,-13
4,17,13,-10,-4,15,-9,-35,0,-6,-12,-13
2,16,14,-9,-6,15,-9,-35,0,-6,-12,-13
0,14,14,-8,-6,15,-9,-35,0,-7,-12,-13
1,13,13,-7,-5,13,-10,-35,-1,-8,-12,-13
2,13,11,-7,-4,12,-11,-33,-2,-8,-13,-14
0,11,11,-5,-5,11,-11,-31,-2,-8,-13,-14
0,11,11,-5,-5,11,-10,-29,-1,-8,-13,-14
1,11,11,-6,-5,11,-9,-28,0,-8,-13,-14
1,11,11,-6,-5,11,-8,-26,0,-8,-13,-14
1,11,11,-6,-5,12,-7,-24,1,-8,-13,-14
1,11,11,-6,-5,12,-7,-23,1,-8,-13,-14
1,11,10,-6,-5,11,-6,-23,1,-8,-14,-14
2,12,10,-6,-4,11,-6,-22,1,-9,-14,-14
2,12,9,-7,-4,11,-6,-21,1,-9,-14,-14
1,12,10,-6,-4,11,-6,-20,1,-9,-14,-14
0,11,10,-5,-5,11,-5,-19,2,-9,-14,-14
1,11,10,-6,-5,11,-4,-17,3,-9,-14,-14
1,10,10,-5,-4,10,-4,-16,3,-10,-15,-14
1,10,9,-5,-4,10,-3,-15,4,-10,-15,-14
3,12,9,-7,-3,11,-1,-13,5,-9,-14,-13
4,13,9,-8,-2,11,0,-12,5,-8,-13,-13
3,12,9,-7,-2,10,-1,-12,5,-9,-14,-13
3,12,8,-7,-2,10,-1,-11,6,-8,-14,-13
3,12,8,-7,-2,11,-1,-9,6,-7,-14,-13
3,13,9,-8,-2,11,0,-7,7,-7,-14,-13
3,13,10,-8,-3,12,0,-6,7,-6,-13,-13
2,13,11,-7,-4,12,1,-5,7,-6,-13,-13
1,11,11,-6,-4,11,1,-5,7,-6,-13,-13
0,10,10,-6,-5,11,1,-4,7,-6,-13,-13
0,10,11,-5,-5,11,2,-2,8,-6,-13,-12
-1,10,11,-4,-5,11,3,-2,9,-6,-13,-12
0,10,9,-5,-3,10,3,-2,9,-6,-14,-12
1,10,8,-6,-2,9,3,-1,10,-7,-15,-13
0,9,8,-5,-3,8,3,0,12,-7,-15,-14
0,9,8,-5,-3,8,3,1,14,-7,-15,-14
2,9,6,-5,-2,8,3,1,15,-7,-15,-14
1,8,7,-5,-3,8,4,1,16,-6,-15,-14
0,8,9,-4,-5,9,5,2,17,-6,-14,-13
-1,9,10,-4,-5,9,6,2,17,-6,-14,-12
-2,9,10,-4,-5,10,7,3,18,-5,-13,-12
-2,10,11,-4,-6,10,8,4,19,-4,-13,-12
-2,9,12,-4,-6,10,8,4,20,-4,-13,-12
-2,9,11,-4,-6,10,8,4,21,-4,-13,-12
1,11,11,-6,-5,11,8,4,22,-3,-13,-11
3,13,10,-8,-3,11,8,4,22,-2,-12,-11
2,12,10,-7,-3,10,7,3,20,-2,-13,-11
1,11,9,-6,-3,9,7,2,20,-2,-13,-12
2,12,9,-7,-3,10,7,2,20,-2,-13,-11
4,12,8,-8,-2,10,6,2,20,-2,-13,-11
3,11,7,-7,-2,9,5,1,20,-3,-13,-11
0,10,8,-5,-3,9,4,1,20,-3,-13,-11
0,9,8,-4,-4,8,4,0,19,-3,-13,-11
0,8,8,-4,-3,8,4,-1,19,-3,-13,-11
0,9,8,-4,-3,9,3,-2,19,-3,-13,-11
1,10,9,-5,-3,9,3,-2,20,-3,-13,-10
0,10,10,-5,-4,9,2,-2,21,-3,-13,-10
1,10,9,-5,-3,9,1,-2,22,-3,-13,-10
3,10,7,-7,-2,8,0,-4,23,-4,-14,-10
3,10,6,-7,-1,8,-2,-6,24,-4,-14,-11
3,11,7,-7,-2,9,-3,-7,25,-4,-13,-11
2,11,9,-7,-3,10,-3,-7,27,-3,-12,-10
1,11,10,-6,-4,11,-3,-7,28,-4,-13,-10
0,10,10,-5,-5,10,-3,-7,28,-4,-13,-10
0,10,10,-5,-4,10,-3,-6,27,-4,-13,-10
1,11,9,-6,-3,10,-3,-6,27,-4,-13,-10
4,13,8,-9,-1,11,-3,-5,28,-3,-12,-9
5,14,8,-10,-1,12,-2,-5,28,-2,-11,-8
3,13,9,-8,-2,12,-3,-6,27,-3,-11,-8
2,12,10,-7,-3,11,-4,-7,26,-3,-12,-9
4,13,9,-8,-2,11,-5,-7,26,-3,-12,-9
3,13,9,-8,-2,11,-5,-7,26,-3,-12,-9
2,11,9,-6,-2,10,-6,-7,25,-4,-13,-10
0,10,9,-5,-3,10,-6,-8,24,-4,-13,-11
0,9,10,-4,-4,10,-6,-8,23,-4,-13,-11
0,9,9,-4,-4,9,-6,-9,22,-4,-13,-12
0,9,9,-4,-4,9,-7,-9,20,-5,-13,-12
-1,8,9,-4,-4,9,-7,-8,19,-5,-13,-12
-2,8,10,-3,-5,9,-8,-7,18,-6,-13,-12
-1,8,10,-4,-5,10,-8,-7,18,-6,-13,-11
-1,9,10,-4,-5,10,-7,-6,19,-5,-13,-11
-1,10,11,-4,-6,10,-6,-6,19,-5,-13,-11
-2,9,11,-4,-6,10,-6,-6,18,-5,-13,-11
-1,9,10,-4,-5,9,-6,-5,17,-5,-13,-11
-1,9,10,-4,-5,9,-5,-4,16,-4,-13,-11
-1,10,10,-4,-5,10,-4,-4,16,-4,-12,-11
-3,9,11,-3,-6,10,-4,-3,16,-3,-12,-10
-5,7,12,-1,-8,10,-4,-3,17,-3,-11,-9
-4,8,12,-2,-7,10,-4,-3,17,-1,-10,-8
0,10,11,-5,-4,10,-5,-3,17,0,-8,-7
2,11,10,-7,-3,10,-5,-3,17,2,-6,-5
2,12,10,-7,-3,11,-5,-3,17,6,-3,-3
0,13,12,-6,-5,12,-5,-3,18,11,1,0
-1,14,14,-6,-7,13,-6,-3,19,17,6,4
0,16,16,-7,-7,15,-6,-3,21,25,13,10
0,19,18,-9,-8,18,-7,-2,23,34,21,16
0,21,22,-10,-10,22,-8,-2,27,46,31,24
1,26,25,-13,-11,26,-10,-2,29,58,41,32
3,30,27,-17,-11,29,-12,-4,31,70,52,40
4,35,31,-20,-13,33,-13,-5,33,84,64,50
5,40,35,-22,-15,37,-15,-6,35,96,77,61
6,44,38,-24,-15,40,-18,-10,34,106,88,71
7,48,40,-27,-16,44,-22,-15,30,113,99,81
10,53,42,-31,-15,47,-27,-21,23,118,111,91
15,59,44,-37,-13,52,-33,-28,16,124,124,103
21,66,46,-44,-12,57,-39,-36,8,130,138,117
24,72,48,-48,-11,60,-45,-44,-1,137,153,131
27,77,49,-52,-10,63,-51,-52,-9,144,168,145
32,82,50,-57,-8,65,-57,-58,-18,150,182,159
36,86,49,-61,-6,67,-61,-63,-25,155,193,171
40,90,49,-65,-4,69,-65,-68,-32,158,202,181
43,94,50,-69,-3,72,-67,-72,-36,158,207,189
48,99,51,-74,-1,75,-68,-75,-38,155,209,193
50,104,54,-77,-1,79,-67,-77,-40,146,205,194
49,104,55,-77,-3,80,-68,-80,-45,129,194,190
45,101,56,-73,-5,79,-69,-86,-52,104,177,180
39,96,57,-68,-8,77,-68,-90,-60,73,156,167
33,94,61,-63,-13,77,-65,-93,-68,41,134,152
26,90,64,-58,-17,76,-62,-95,-75,8,109,134
18,84,65,-51,-22,74,-59,-97,-80,-23,84,114
11,77,65,-45,-26,71,-54,-94,-80,-47,60,93
6,69,63,-38,-28,66,-48,-87,-75,-62,39,73
1,59,58,-30,-28,59,-41,-76,-66,-67,21,53
-1,48,51,-24,-25,50,-33,-63,-55,-67,5,33
-3,39,43,-18,-22,41,-24,-48,-43,-63,-7,16
-5,30,35,-12,-20,32,-15,-33,-31,-57,-16,2
-8,22,30,-7,-19,26,-7,-19,-20,-50,-22,-7
-10,16,26,-2,-17,20,0,-8,-10,-44,-26,-14
-10,10,20,0,-15,15,4,0,-3,-39,-29,-19
-10,6,15,1,-12,11,7,5,3,-35,-30,-22
-9,2,12,3,-10,8,9,9,7,-32,-31,-24
-9,0,9,4,-9,5,11,12,9,-30,-32,-25
-9,-1,8,5,-8,4,12,14,10,-28,-31,-26
-9,-2,7,5,-8,2,13,16,11,-27,-31,-25
-9,-3,5,6,-7,1,13,16,11,-26,-31,-25
-10,-4,5,7,-7,0,14,17,12,-25,-31,-25
-11,-4,5,8,-8,0,14,17,13,-23,-30,-24
-12,-5,6,9,-9,0,13,17,13,-22,-29,-24
-11,-6,5,8,-8,0,12,17,12,-21,-29,-23
-9,-6,4,8,-7,0,11,15,11,-20,-28,-23
-9,-6,3,8,-6,-1,10,13,10,-21,-28,-23
-9,-6,3,8,-6,-1,8,12,9,-22,-28,-23
-8,-6,2,7,-5,-1,8,11,8,-23,-28,-23
-8,-5,2,7,-5,-1,7,11,8,-23,-28,-23
-8,-5,3,7,-6,-1,7,10,8,-22,-28,-23
-8,-5,3,6,-5,-1,7,10,8,-22,-27,-22
-7,-5,3,6,-5,-1,6,9,8,-22,-27,-22
-7,-5,3,6,-5,-1,5,7,8,-22,-27,-22
-7,-5,3,6,-5,0,4,6,9,-23,-27,-22
-8,-4,4,5,-6,0,4,6,10,-23,-26,-21
-7,-2,5,4,-6,1,5,7,11,-22,-25,-20
-6,-2,4,4,-5,1,4,7,11,-22,-25,-20
-7,-3,4,5,-6,0,3,6,10,-23,-25,-20
-8,-4,4,6,-6,0,2,5,9,-23,-24,-20
-7,-4,4,6,-6,0,2,5,9,-23,-23,-19
-7,-3,4,5,-5,1,1,4,9,-23,-23,-19
-7,-3,4,5,-5,1,0,3,9,-23,-24,-20
-8,-4,4,5,-5,1,0,2,11,-24,-24,-20
-9,-4,5,6,-6,1,0,2,14,-24,-24,-20
-8,-3,4,5,-6,1,0,2,19,-24,-24,-20
-7,-3,4,5,-5,1,0,2,22,-24,-24,-20
-7,-2,4,5,-5,1,0,2,23,-23,-24,-19
-7,-3,4,5,-5,0,0,2,24,-23,-24,-19
-7,-4,4,5,-5,0,0,2,25,-23,-23,-18
-6,-4,3,5,-5,0,0,2,25,-22,-22,-18
-6,-3,3,4,-4,0,0,3,23,-22,-21,-17
-6,-2,3,4,-5,1,0,5,22,-21,-21,-16
-7,-3,4,5,-5,0,0,6,22,-21,-21,-16
-9,-4,4,7,-6,0,0,6,21,-22,-21,-16
-10,-5,5,8,-7,0,0,6,20,-22,-20,-16
-10,-6,4,8,-7,-1,0,6,20,-22,-20,-16
-9,-5,4,7,-6,0,0,5,20,-21,-19,-15
-6,-2,3,4,-4,0,0,6,21,-20,-18,-14
-4,-1,3,3,-3,1,0,6,21,-20,-18,-13
-5,-2,3,4,-4,0,0,6,19,-21,-19,-14
-6,-3,3,5,-4,0,-1,6,18,-22,-19,-14
-4,-3,2,4,-3,0,0,7,17,-21,-19,-14
-4,-3,1,4,-3,0,0,7,16,-21,-18,-13
-7,-5,2,6,-4,-1,-1,7,16,-20,-18,-13
-9,-6,3,8,-6,-1,0,7,16,-20,-18,-13
-10,-6,4,8,-7,0,0,7,15,-20,-18,-13
-9,-5,4,7,-7,0,1,7,14,-20,-18,-13
-8,-5,3,6,-6,0,2,8,14,-20,-17,-12
-7,-4,3,6,-5,0,2,9,14,-20,-16,-11
-6,-4,2,5,-4,0,3,10,13,-21,-16,-11
-6,-4,2,5,-4,0,3,10,12,-21,-16,-11
-6,-4,2,5,-4,0,3,11,11,-21,-16,-11
-5,-3,2,4,-3,0,3,11,10,-21,-15,-11
-5,-3,1,4,-3,0,3,11,10,-21,-15,-11
-6,-4,1,5,-4,0,2,11,9,-22,-16,-11
-8,-6,2,7,-5,-1,2,10,8,-23,-16,-11
-8,-6,2,7,-5,-1,2,10,7,-23,-16,-11
-7,-5,2,5,-4,-1,4,11,8,-23,-15,-9
-5,-3,2,3,-3,0,5,12,8,-22,-14,-8
-4,-2,2,3,-2,0,5,14,8,-22,-13,-8
-3,-2,2,3,-2,-1,5,15,7,-23,-13,-8
-2,-2,1,2,-1,-1,5,15,7,-24,-14,-8
-2,-2,1,2,-1,0,5,16,7,-24,-14,-7
-4,-1,3,2,-3,1,6,16,6,-24,-13,-7
-4,0,4,2,-4,2,7,16,6,-24,-13,-6
-5,0,5,3,-5,2,7,15,6,-25,-12,-6
-6,-1,5,4,-6,2,6,15,6,-26,-12,-5
-7,-1,6,4,-6,2,6,15,6,-26,-11,-5
-7,-1,6,4,-7,2,6,15,5,-26,-11,-4
-7,-1,6,4,-7,2,5,15,4,-28,-12,-4
-7,-1,5,4,-6,2,4,14,4,-29,-12,-4
-6,-1,5,4,-6,2,4,14,3,-30,-13,-4
-7,-1,5,4,-6,2,4,13,3,-31,-13,-5
-7,-2,5,4,-6,2,4,13,2,-32,-14,-5
-6,-1,4,4,-5,2,4,14,1,-33,-14,-5
-6,-1,4,4,-5,2,5,14,0,-34,-14,-5
-6,-1,4,4,-5,2,5,13,0,-36,-14,-6
-5,-1,4,3,-4,1,5,12,-2,-37,-15,-6
-5,-1,4,3,-5,1,5,11,-3,-38,-16,-7
-5,-1,5,3,-5,2,5,10,-4,-39,-16,-7
-4,0,5,2,-5,3,5,10,-5,-39,-17,-7
-4,1,5,1,-4,3,5,11,-6,-39,-17,-7
-5,0,6,2,-5,3,4,10,-8,-40,-18,-8
-7,-1,5,4,-5,2,3,9,-9,-41,-19,-9
-7,-2,4,4,-5,1,2,8,-10,-42,-20,-10
-6,-2,4,4,-5,0,2,7,-10,-42,-20,-10
-7,-3,4,5,-5,0,1,6,-11,-41,-20,-11
-7,-3,4,5,-6,1,1,6,-10,-40,-20,-11
-6,-3,3,4,-4,0,1,6,-10,-39,-20,-11
-4,-3,0,4,-2,-1,0,5,-10,-39,-21,-11
-4,-3,1,4,-2,-1,-1,3,-11,-39,-22,-11
-5,-1,3,3,-4,0,-2,1,-12,-39,-23,-13
-2,0,2,1,-2,1,-3,0,-13,-38,-23,-14
1,2,1,-1,0,2,-3,1,-12,-36,-23,-14
2,3,1,-2,0,2,-2,2,-11,-34,-22,-14
0,2,2,-1,-1,2,-1,3,-11,-32,-21,-14
-1,2,3,-1,-2,3,-1,3,-10,-30,-21,-14
0,3,3,-1,-2,3,0,4,-9,-28,-20,-13
0,3,3,-1,-2,3,-1,3,-8,-27,-19,-12
-1,3,3,-1,-2,3,-1,3,-7,-25,-19,-12
-1,3,3,-1,-2,3,-1,3,-7,-24,-18,-11
-1,3,5,-1,-3,4,-2,3,-8,-24,-18,-11
-2,4,6,-2,-4,5,-3,3,-7,-22,-18,-11
-2,4,6,-1,-4,5,-3,2,-7,-21,-18,-12
-2,1,4,0,-3,3,-3,1,-7,-20,-19,-13
-2,0,2,0,-2,1,-3,1,-6,-19,-18,-13
-2,0,1,0,-1,0,-3,2,-5,-16,-16,-12
-1,0,0,0,0,0,-2,3,-3,-14,-15,-11
0,0,0,0,0,-1,-1,3,-2,-12,-14,-10
-1,-2,0,2,0,-1,-1,4,-1,-11,-13,-10
-2,-3,0,2,-1,-1,-1,5,0,-10,-12,-9
-1,-2,0,2,0,-1,-1,6,0,-9,-12,-8
-2,-2,0,2,-1,0,-1,6,1,-8,-11,-8
-3,-2,1,2,-2,0,-1,6,2,-7,-11,-8
-3,-1,0,2,-2,0,-1,6,2,-6,-11,-8
-2,-1,0,1,-1,0,-1,6,2,-6,-11,-8
-1,-1,0,1,0,-1,-1,6,3,-5,-10,-7
-1,-2,-1,1,0,-1,-1,7,5,-4,-9,-7
-2,-3,0,2,-1,-2,-1,7,6,-3,-9,-7
-5,-5,0,4,-2,-2,-1,6,6,-3,-9,-7
-4,-5,0,4,-2,-2,-1,6,6,-3,-9,-7
-1,-2,0,1,0,-1,-1,7,6,-2,-9,-7
0,0,0,0,0,0,0,8,6,-2,-8,-6
-1,0,1,0,-1,0,0,9,7,-1,-8,-6
-2,-1,2,1,-2,0,0,9,9,0,-7,-5
-3,-1,2,1,-2,0,0,9,10,-1,-7,-5
-3,-2,1,2,-2,0,0,9,12,-1,-7,-5
-3,-2,1,3,-2,0,1,10,14,0,-6,-5
-2,-1,1,1,-2,0,2,11,17,0,-6,-4
-2,-1,1,1,-2,0,1,11,18,-1,-7,-5
-4,-3,1,3,-3,-1,0,11,19,-2,-8,-6
-6,-4,1,5,-4,-1,0,11,20,-3,-8,-6
-8,-5,2,7,-5,-1,0,11,22,-3,-8,-6
-8,-4,3,7,-6,-1,0,12,24,-2,-7,-5
-6,-3,3,5,-5,0,1,12,24,-2,-7,-5
-5,-2,2,4,-4,0,2,13,23,-1,-6,-5
-5,-2,2,4,-4,0,2,14,23,-1,-6,-5
-5,-2,3,4,-4,0,3,14,23,-1,-6,-5
-7,-2,3,5,-5,0,3,15,23,-1,-6,-4
-7,-3,3,5,-5,0,3,15,23,-1,-6,-4
-7,-3,3,5,-5,0,4,16,22,-1,-6,-4
-6,-3,2,5,-4,-1,4,16,22,-1,-6,-4
-5,-4,0,5,-3,-2,4,16,21,-2,-7,-5
-5,-4,0,5,-2,-3,4,17,20,-2,-7,-5
-4,-4,0,4,-2,-2,4,19,19,-1,-6,-5
-4,-3,1,3,-2,-1,6,20,19,0,-6,-5
-2,-1,1,2,-1,0,7,21,19,0,-5,-4
0,1,0,0,0,0,8,22,19,1,-5,-3
1,1,-1,-1,1,0,8,22,17,1,-5,-3
0,0,0,0,0,0,8,21,16,1,-5,-3
-2,0,1,1,-1,0,8,21,15,1,-4,-2
-2,0,2,1,-2,1,8,22,14,2,-4,-2
-2,0,2,1,-2,1,9,22,14,3,-4,-2
-3,-1,3,2,-4,1,10,23,13,3,-4,-2
-6,-1,4,3,-6,1,11,24,13,4,-4,-2
-5,-1,3,3,-5,1,11,25,13,3,-4,-2
-3,0,1,2,-2,0,11,25,12,3,-5,-3
-1,0,0,1,0,0,11,26,12,3,-4,-3
-1,-1,0,1,0,0,12,26,12,3,-4,-2
-1,-1,0,1,-1,0,12,27,11,4,-4,-2
-3,-1,2,2,-3,0,13,27,12,4,-3,-2
-5,-1,4,3,-5,1,14,28,13,5,-3,-1
-6,-1,5,3,-6,1,14,28,13,5,-3,-1
-5,-1,4,3,-4,1,14,27,13,4,-4,-2
-4,-1,2,2,-3,0,14,26,13,4,-4,-2
-4,-1,2,2,-3,0,14,26,13,5,-3,-1
-3,-1,1,2,-2,0,14,25,13,5,-3,0
-3,-1,1,2,-2,0,13,24,12,5,-3,0
0,0,1,0,-1,1,13,23,12,5,-2,0
4,5,0,-5,1,2,14,23,12,6,-1,0
5,5,0,-5,2,2,13,23,10,6,-2,0
2,2,0,-2,0,1,11,21,7,4,-4,-1
-1,0,1,0,-1,0,11,20,6,4,-5,-2
-2,0,1,1,-2,1,11,19,5,4,-4,-1
-3,0,1,1,-2,1,11,19,4,4,-3,-1
-3,0,2,1,-3,2,10,18,4,4,-3,-1
-3,0,2,1,-3,1,8,16,3,3,-3,-1
-3,-1,2,2,-3,0,7,14,1,2,-4,-2
-3,-2,1,2,-2,-1,5,13,0,1,-5,-2
-3,-3,1,3,-2,-1,4,11,-1,0,-6,-3
-5,-4,0,4,-2,-2,3,10,-3,-1,-7,-3
-7,-4,1,6,-3,-1,3,10,-3,-1,-7,-3
-6,-4,0,5,-3,-1,2,10,-4,-1,-7,-4
-4,-4,-1,4,-1,-2,2,10,-4,-2,-8,-4
-3,-4,-2,3,0,-3,2,10,-3,-2,-7,-4
-3,-4,-1,2,0,-2,1,8,-3,-2,-7,-4
-2,-3,0,2,0,-2,0,6,-4,-2,-8,-5
-3,-4,0,3,-1,-2,0,4,-4,-1,-7,-5
-5,-4,0,4,-2,-2,0,4,-4,-1,-7,-5
-5,-4,1,4,-2,-2,-1,3,-4,-1,-7,-5
-5,-4,0,4,-2,-2,-2,2,-4,-1,-7,-5
-4,-4,-1,4,-1,-2,-3,2,-4,-2,-7,-5
-2,-4,-2,3,0,-3,-4,1,-4,-2,-8,-5
-1,-4,-2,3,0,-3,-4,1,-4,-2,-8,-5
-2,-4,0,3,-1,-2,-4,1,-3,-2,-7,-4
-3,-3,2,3,-2,0,-3,2,-2,0,-6,-3
-4,-2,3,3,-3,1,-3,3,-2,0,-6,-3
-6,-3,3,4,-4,0,-4,2,-4,-1,-7,-4
-4,-2,1,3,-2,0,-4,1,-4,-2,-8,-5
0,0,0,0,0,1,-3,2,-3,-1,-6,-4
2,2,0,-2,1,1,-2,3,-1,0,-5,-3
1,1,0,-1,1,0,-3,3,-1,0,-6,-3
0,0,0,1,0,0,-3,4,-1,0,-6,-3
-3,-1,2,2,-2,0,-2,4,0,0,-5,-3
-3,-1,3,2,-2,1,-2,5,0,0,-5,-2
-1,1,2,0,-1,1,-2,5,0,1,-4,-2
0,1,1,0,0,1,-2,5,0,0,-5,-2
-1,0,0,1,0,0,-3,5,0,-1,-6,-3
-1,-1,0,2,-1,0,-2,6,0,-1,-6,-3
-2,-1,1,2,-1,0,-1,7,1,0,-5,-3
-2,-1,1,2,-1,0,-1,7,1,0,-5,-3
-1,-2,0,1,0,-1,-2,5,0,-1,-6,-4
0,-2,0,1,0,-2,-3,5,0,-2,-7,-5
0,-2,-1,0,1,-2,-3,6,0,-2,-7,-5
0,-3,-2,1,0,-2,-2,7,0,-2,-7,-5
-2,-4,-1,3,0,-2,-2,8,0,-2,-7,-5
-4,-5,-1,4,-1,-3,-2,8,1,-2,-7,-4
-4,-6,-1,5,-1,-3,-1,9,2,-2,-6,-4
-4,-6,-1,5,-1,-3,0,10,2,-2,-6,-4
-5,-6,0,5,-2,-3,0,10,3,-2,-6,-4
-4,-6,-1,5,-1,-3,1,10,3,-2,-6,-4
-3,-5,-1,3,0,-3,1,10,3,-1,-6,-3
-1,-3,-1,1,0,-2,2,10,4,-1,-5,-3
-1,-2,-1,1,0,-1,2,10,4,-1,-5,-3
0,-2,-2,1,1,-2,2,11,4,-1,-5,-3
0,-2,-3,0,2,-2,3,12,5,-2,-5,-3
-2,-4,-2,3,0,-3,3,12,5,-2,-5,-3
-5,-5,0,5,-2,-3,4,13,6,-2,-5,-3
-5,-6,0,5,-2,-3,4,12,7,-2,-6,-3
-4,-6,-1,5,-1,-3,3,12,7,-3,-6,-3
-4,-5,-1,4,-1,-3,3,12,7,-3,-6,-3
-4,-5,0,4,-1,-2,3,13,8,-3,-6,-3
-5,-5,0,4,-2,-1,3,13,8,-2,-6,-2
-5,-5,0,5,-2,-1,4,13,9,-2,-6,-2
-4,-4,0,4,-1,-1,4,14,9,-1,-5,-1
-4,-4,0,4,-1,-1,4,14,9,-1,-6,-1
-4,-5,0,5,-1,-2,4,14,9,-1,-6,-1
-4,-6,0,5,-1,-2,5,14,9,-1,-6,-1
-4,-5,0,4,-1,-2,7,15,9,0,-6,-1
-4,-4,0,4,-1,-1,8,16,10,0,-5,0
-4,-3,1,3,-2,-1,8,16,11,1,-5,0
-5,-3,1,4,-2,-1,7,16,11,1,-5,0
-5,-4,1,5,-2,-2,6,16,11,1,-5,-1
-6,-5,1,5,-3,-1,6,15,11,1,-5,-1
-6,-4,2,5,-3,0,7,16,11,2,-5,-1
-4,-2,2,3,-3,0,7,16,12,2,-4,0
-4,-2,2,2,-2,0,7,16,12,3,-4,0
-5,-3,2,3,-3,0,6,15,11,2,-5,-1
-5,-3,2,4,-3,0,7,15,11,2,-5,-1
-3,-1,2,1,-2,1,9,16,13,4,-3,0
-1,0,2,0,-1,1,10,17,14,5,-3,1
-3,-1,1,1,-2,0,9,17,14,4,-4,0
-4,-3,1,3,-2,0,9,18,14,3,-5,0
-4,-2,1,3,-2,0,9,19,14,2,-5,0
-4,-2,2,2,-3,0,10,19,14,2,-5,0
-4,-2,2,2,-3,0,10,19,14,2,-6,0
-5,-3,1,3,-3,-1,10,19,15,2,-6,-1
-6,-4,1,4,-3,-2,11,20,15,3,-6,-1
-7,-4,2,5,-4,-1,12,20,16,3,-6,0
-8,-4,3,5,-5,-1,13,21,16,3,-6,0
-7,-4,3,5,-4,-1,13,21,16,3,-6,0
-8,-5,2,6,-4,-1,13,21,16,2,-6,-1
-7,-5,1,5,-3,-2,14,22,16,2,-6,-1
-4,-3,0,3,-2,-1,15,24,17,3,-5,0
-2,-2,0,2,-1,-1,16,24,17,4,-5,0
-1,-1,0,1,-1,0,17,24,18,5,-4,1
0,0,0,0,0,0,16,24,18,6,-2,2
0,1,0,0,0,0,15,22,18,8,0,3
0,1,0,-1,0,1,14,21,18,10,2,5
0,2,1,-1,0,2,12,19,18,14,5,7
0,3,3,-1,-2,4,11,18,19,19,10,11
-1,6,7,-2,-4,7,11,17,21,27,16,16
-3,8,10,-2,-6,9,10,15,24,36,24,22
-4,9,13,-2,-8,11,8,13,26,47,33,29
-3,12,15,-4,-9,13,5,10,29,59,43,37
-2,16,18,-7,-9,17,1,6,31,71,54,45
-1,21,22,-10,-11,22,-1,3,32,84,66,55
0,27,26,-14,-12,27,-4,0,34,96,79,66
2,32,29,-17,-13,31,-8,-3,33,107,91,76
4,36,33,-20,-14,35,-12,-8,30,115,102,86
6,41,35,-24,-14,39,-18,-15,23,121,114,97
9,48,38,-29,-14,43,-23,-23,16,126,126,109
13,54,41,-34,-13,48,-30,-31,8,133,140,122
16,59,43,-38,-13,51,-37,-40,0,139,155,136
21,65,44,-43,-11,54,-44,-48,-9,146,170,150
26,70,44,-48,-8,57,-50,-55,-17,153,184,163
32,76,44,-54,-5,60,-55,-61,-25,158,196,175
38,81,43,-59,-2,62,-61,-69,-32,161,206,186
41,85,44,-63,0,64,-65,-75,-38,162,213,195
44,89,45,-67,0,67,-69,-79,-42,161,216,201
45,91,45,-68,0,68,-71,-84,-46,154,214,203
45,92,46,-69,0,69,-73,-88,-50,142,206,201
43,91,47,-68,-1,69,-73,-93,-56,123,193,194
39,89,49,-64,-4,69,-73,-97,-64,96,175,184
33,86,51,-60,-8,69,-73,-102,-73,63,153,170
28,82,54,-56,-12,68,-71,-106,-82,29,128,153
21,77,56,-50,-17,67,-70,-110,-89,-4,103,133
13,70,57,-42,-21,64,-67,-111,-93,-33,78,112
7,63,55,-36,-23,59,-61,-107,-90,-52,56,92
5,56,51,-30,-23,53,-55,-98,-82,-61,38,73
1,45,44,-24,-21,44,-47,-86,-71,-63,21,53
-3,34,36,-16,-19,35,-39,-72,-60,-61,6,34
-8,23,30,-8,-19,26,-31,-57,-48,-58,-6,17
-11,14,25,-2,-18,20,-23,-44,-37,-53,-15,4
-11,8,20,1,-15,14,-17,-33,-28,-47,-20,-4
-9,4,13,2,-10,8,-12,-24,-20,-42,-24,-10
-8,-1,7,4,-7,3,-8,-16,-14,-37,-25,-14
-7,-4,3,5,-5,-1,-4,-10,-9,-32,-25,-15
-4,-6,-1,5,-1,-4,-2,-7,-6,-30,-26,-16
-4,-8,-4,6,0,-6,-2,-5,-4,-28,-26,-17
-7,-11,-4,9,-2,-8,-1,-3,-2,-26,-26,-17
-11,-13,-2,11,-4,-8,0,0,0,-25,-25,-17
-9,-12,-2,10,-3,-7,1,2,1,-23,-24,-16
-6,-10,-3,8,-1,-6,2,4,3,-22,-24,-16
-7,-10,-3,8,-2,-6,3,5,4,-22,-24,-16
-9,-12,-3,11,-3,-7,3,5,3,-22,-25,-16
-9,-13,-4,11,-2,-8,3,5,2,-22,-25,-17
-6,-13,-6,9,0,-9,3,5,2,-22,-25,-17
-6,-13,-7,9,1,-9,3,5,2,-22,-24,-17
-5,-13,-7,8,1,-9,3,5,2,-22,-24,-17
-5,-13,-7,8,2,-9,3,5,2,-22,-24,-17
-4,-12,-7,7,2,-9,3,6,3,-22,-24,-17
-3,-11,-7,6,3,-9,3,7,4,-22,-23,-16
-3,-11,-7,7,2,-9,4,7,4,-21,-23,-16
-6,-12,-5,9,0,-9,5,7,4,-21,-23,-16
-9,-13,-4,11,-2,-9,5,7,4,-20,-23,-15
-9,-13,-5,11,-2,-9,6,8,5,-20,-22,-15
-6,-12,-6,9,0,-8,6,8,6,-19,-21,-14
-4,-11,-7,7,2,-8,6,9,7,-19,-20,-14
-4,-11,-7,7,2,-8,6,10,7,-20,-21,-14
-6,-12,-6,9,1,-9,6,10,6,-20,-21,-15
-8,-13,-5,11,-1,-9,6,11,6,-20,-21,-15
-9,-14,-4,12,-2,-9,7,12,8,-19,-21,-14
-8,-13,-5,11,-2,-9,7,12,8,-19,-20,-14
-4,-12,-7,8,1,-9,8,13,9,-18,-20,-13
-1,-10,-8,6,3,-8,9,13,9,-18,-20,-13
-3,-10,-7,7,3,-8,9,14,9,-18,-20,-13
-4,-11,-6,7,2,-8,9,14,9,-18,-19,-13
-1,-10,-7,5,4,-8,9,15,9,-18,-19,-13
0,-9,-8,4,5,-8,9,15,9,-17,-18,-13
-1,-8,-7,5,3,-8,10,15,9,-16,-17,-12
-3,-8,-5,6,1,-7,11,15,10,-15,-16,-11
-4,-8,-4,6,0,-6,11,15,10,-15,-16,-11
-4,-8,-4,6,1,-6,10,15,10,-16,-16,-11
-4,-9,-4,6,1,-6,10,16,10,-16,-16,-11
-4,-8,-4,6,1,-6,10,16,10,-16,-16,-11
-2,-7,-5,4,2,-6,10,17,10,-16,-16,-11
0,-6,-6,2,4,-6,11,17,10,-15,-16,-11
2,-6,-7,2,5,-6,11,17,10,-16,-16,-11
1,-8,-8,3,5,-7,11,18,10,-16,-16,-11
0,-9,-7,4,3,-7,12,20,11,-16,-16,-11
-2,-9,-6,5,2,-7,13,21,12,-15,-15,-10
-1,-8,-6,5,2,-7,14,21,11,-16,-15,-10
-1,-8,-7,4,3,-7,14,19,11,-17,-15,-11
-1,-7,-6,4,3,-6,14,19,10,-17,-15,-10
-1,-7,-5,4,2,-5,14,18,10,-16,-15,-10
-2,-7,-5,4,1,-6,13,18,9,-16,-14,-9
-2,-8,-6,5,2,-7,13,18,9,-16,-14,-9
-1,-8,-7,5,3,-7,12,17,9,-17,-14,-9
-1,-8,-7,5,3,-7,12,16,9,-17,-14,-9
-1,-8,-7,5,3,-7,12,15,8,-17,-14,-10
0,-7,-6,3,3,-6,12,15,8,-17,-14,-9
1,-4,-5,1,3,-5,12,15,8,-16,-13,-8
2,-2,-4,0,3,-3,12,14,8,-16,-12,-7
4,-1,-4,-2,4,-2,11,13,8,-16,-12,-7
4,-2,-5,-1,4,-3,9,11,6,-17,-12,-7
3,-3,-5,0,4,-3,8,10,6,-17,-12,-7
2,-3,-6,0,4,-4,8,9,5,-17,-11,-7
2,-4,-7,0,5,-5,7,8,4,-18,-12,-7
1,-5,-7,2,5,-5,6,7,3,-19,-12,-8
1,-5,-6,2,4,-5,6,5,2,-19,-12,-7
1,-5,-6,2,4,-6,5,3,1,-20,-12,-7
0,-6,-6,3,3,-6,3,1,0,-21,-12,-7
0,-7,-6,4,3,-6,2,0,-1,-21,-12,-6
0,-6,-6,3,3,-6,1,0,-1,-22,-11,-5
0,-6,-6,3,3,-5,0,-1,-1,-22,-10,-5
2,-5,-7,2,5,-5,0,-2,-2,-24,-10,-5
3,-5,-8,1,6,-6,-1,-4,-3,-25,-11,-6
2,-5,-8,2,5,-6,-1,-5,-4,-26,-11,-6
2,-5,-7,2,4,-6,-2,-6,-5,-27,-12,-6
1,-5,-6,2,3,-5,-3,-7,-6,-28,-12,-6
0,-4,-5,2,3,-4,-3,-8,-7,-29,-12,-6
1,-4,-5,1,3,-4,-4,-9,-8,-31,-13,-6
3,-5,-7,0,5,-5,-5,-11,-10,-33,-14,-7
3,-5,-7,0,6,-5,-7,-13,-11,-35,-15,-8
2,-5,-6,1,4,-4,-7,-14,-12,-37,-16,-8
2,-4,-5,0,4,-4,-8,-16,-13,-38,-16,-9
3,-3,-5,0,4,-4,-8,-17,-14,-39,-16,-9
3,-2,-5,-1,4,-3,-8,-17,-14,-40,-16,-9
6,-1,-7,-3,6,-3,-8,-18,-14,-41,-17,-9
7,-1,-7,-3,7,-3,-9,-18,-14,-41,-17,-10
5,-2,-6,-2,6,-3,-9,-18,-13,-42,-17,-10
3,-2,-5,0,4,-2,-9,-18,-12,-41,-17,-9
1,-3,-4,1,3,-3,-10,-18,-13,-42,-18,-10
1,-4,-5,1,4,-4,-11,-19,-14,-43,-20,-11
4,-3,-7,0,5,-5,-11,-18,-15,-43,-20,-12
4,-3,-8,0,6,-6,-10,-17,-15,-43,-21,-13
2,-4,-6,1,4,-6,-9,-16,-14,-42,-20,-13
1,-5,-6,1,3,-6,-9,-15,-13,-41,-21,-13
3,-6,-9,2,5,-8,-9,-15,-13,-42,-23,-15
3,-8,-11,2,7,-10,-10,-15,-13,-42,-24,-16
4,-8,-12,2,9,-10,-9,-13,-13,-41,-23,-17
6,-6,-13,0,10,-10,-8,-12,-12,-39,-23,-17
7,-6,-14,0,11,-10,-7,-12,-11,-38,-22,-17
7,-6,-14,0,11,-10,-7,-11,-11,-37,-22,-18
6,-8,-14,0,11,-11,-8,-12,-11,-37,-23,-19
6,-9,-15,1,11,-11,-8,-12,-11,-36,-24,-19
6,-9,-15,1,11,-11,-8,-10,-10,-35,-23,-19
6,-8,-15,0,11,-11,-7,-9,-8,-33,-23,-18
7,-7,-15,0,11,-11,-7,-8,-8,-32,-23,-18
7,-8,-15,0,11,-11,-7,-8,-7,-30,-22,-18
6,-8,-15,0,11,-11,-6,-6,-5,-27,-21,-18
8,-6,-14,-1,11,-10,-4,-4,-3,-24,-19,-17
9,-5,-14,-2,12,-10,-4,-3,-2,-21,-18,-17
8,-6,-13,-1,11,-9,-4,-4,-2,-20,-18,-17
5,-8,-12,1,9,-9,-5,-4,-2,-19,-18,-17
3,-9,-12,2,8,-9,-5,-3,-2,-18,-17,-16
4,-8,-12,1,9,-9,-4,-1,0,-16,-16,-16
6,-7,-13,0,10,-9,-4,0,0,-15,-16,-15
6,-7,-13,0,10,-9,-3,0,0,-15,-16,-16
5,-7,-13,1,9,-9,-2,2,0,-14,-15,-16
6,-7,-14,1,10,-10,-1,2,0,-13,-15,-16
9,-6,-15,-1,12,-10,-1,2,1,-12,-15,-16
10,-6,-16,-2,14,-10,-1,2,1,-11,-15,-16
10,-6,-16,-2,14,-10,-2,3,1,-10,-15,-16
9,-6,-15,-1,12,-10,-2,4,2,-9,-14,-15
6,-6,-12,0,9,-9,0,6,4,-7,-12,-14
4,-5,-9,0,7,-7,0,7,5,-5,-10,-13
5,-4,-8,0,7,-6,0,8,5,-4,-9,-12
5,-3,-8,0,7,-6,0,8,6,-4,-8,-12
2,-5,-7,2,5,-6,1,9,6,-3,-8,-12
1,-5,-6,3,3,-5,3,10,7,-2,-8,-11
3,-3,-6,0,4,-3,5,11,8,-1,-7,-10
5,-2,-7,-1,6,-3,6,12,8,-1,-7,-10
5,-1,-7,-2,6,-3,7,13,9,-1,-7,-10
4,-1,-6,-1,5,-3,8,14,10,0,-6,-9
2,-2,-5,0,4,-3,8,14,10,0,-5,-9
4,-2,-6,0,5,-4,8,14,10,0,-5,-10
5,-3,-8,-1,7,-5,7,13,10,0,-6,-10
5,-4,-9,0,7,-6,7,12,9,0,-6,-11
5,-4,-9,0,7,-6,7,13,9,1,-6,-10
4,-4,-8,0,6,-5,8,13,9,2,-5,-9
4,-3,-7,0,6,-4,7,12,9,2,-5,-9
5,-3,-8,-1,7,-5,6,11,8,2,-6,-10
5,-2,-8,-1,7,-5,6,11,7,3,-5,-10
6,-2,-8,-2,7,-5,6,11,8,3,-4,-9
6,-2,-9,-1,7,-6,5,10,7,3,-4,-10
4,-4,-9,0,7,-6,4,9,6,2,-5,-10
3,-6,-10,1,7,-7,4,9,6,2,-5,-10
4,-8,-13,1,9,-10,6,11,8,4,-3,-10
4,-9,-15,2,10,-11,8,13,9,6,-2,-8
2,-9,-13,3,8,-11,8,13,9,7,-1,-6
1,-8,-10,3,6,-9,7,12,8,7,-2,-7
1,-6,-8,3,5,-7,5,10,7,6,-2,-7
0,-5,-6,2,3,-5,4,9,6,6,-2,-7
0,-4,-5,1,3,-4,3,7,6,6,-2,-7
1,-2,-4,0,3,-2,3,7,5,6,-2,-7
2,0,-2,-1,2,0,3,6,5,6,-2,-8
3,1,-2,-2,3,0,1,5,4,6,-3,-9
2,0,-2,-1,2,0,0,3,3,6,-4,-9
1,1,-1,-1,1,0,0,3,3,7,-3,-9
2,2,0,-2,1,1,0,4,3,8,-2,-8
2,3,0,-3,1,2,-1,3,3,8,-2,-8
2,3,0,-3,0,2,-2,2,3,8,-2,-8
2,2,1,-2,0,2,-2,2,3,8,-2,-8
2,2,1,-2,0,2,-3,1,2,8,-3,-9
2,3,1,-3,0,3,-3,1,1,7,-3,-9
2,5,2,-4,0,4,-3,1,2,8,-3,-9
2,5,1,-4,0,4,-3,1,2,8,-2,-9
2,4,0,-3,1,2,-4,1,1,7,-3,-10
2,2,-1,-2,1,0,-5,1,1,6,-3,-10
2,1,-1,-2,1,0,-4,1,1,6,-2,-10
3,1,-2,-2,2,0,-4,2,2,7,-2,-10
4,0,-3,-1,4,-1,-4,2,2,7,-3,-10
3,-2,-5,0,5,-3,-4,2,2,6,-3,-11
3,-4,-7,0,5,-5,-4,2,2,6,-3,-11
3,-4,-8,0,6,-6,-4,1,1,5,-3,-11
4,-3,-8,0,6,-5,-4,1,2,5,-2,-11
3,-3,-7,0,5,-5,-3,2,3,6,-2,-11
4,-2,-7,-1,6,-5,-4,2,3,7,-2,-10
7,-1,-8,-3,8,-5,-5,2,3,6,-2,-10
8,-1,-8,-3,8,-4,-5,2,2,5,-3,-11
6,-1,-7,-2,7,-4,-5,3,2,5,-3,-11
5,-1,-6,-2,6,-3,-5,3,2,5,-4,-11
5,0,-7,-2,6,-4,-5,2,1,5,-5,-12
6,-1,-8,-2,7,-4,-5,3,1,5,-6,-13
5,-1,-7,-2,6,-4,-4,4,1,5,-6,-13
4,0,-5,-2,5,-3,-3,5,3,6,-5,-13
3,0,-3,-2,3,-1,-1,5,4,7,-4,-13
3,0,-2,-2,3,-1,-1,5,4,7,-5,-12
3,0,-2,-2,3,-1,0,5,4,7,-5,-12
4,0,-4,-2,4,-2,0,6,4,7,-6,-12
6,0,-6,-4,6,-2,0,6,4,7,-5,-12
7,1,-6,-4,6,-2,1,6,4,8,-4,-11
4,0,-5,-2,4,-2,2,7,4,8,-4,-11
3,-2,-6,0,4,-3,2,6,3,8,-5,-12
5,-3,-7,-1,6,-4,3,6,3,7,-5,-12
6,-2,-7,-2,7,-4,3,6,2,7,-5,-12
5,-2,-7,-1,6,-4,3,5,2,7,-6,-12
3,-3,-6,0,5,-4,2,4,1,7,-6,-13
2,-3,-6,0,5,-4,3,4,2,8,-6,-13
2,-3,-6,0,5,-4,3,5,2,8,-6,-12
2,-4,-7,0,5,-4,3,5,2,8,-6,-12
2,-4,-7,0,5,-5,3,4,2,8,-7,-13
4,-4,-8,0,6,-5,3,4,1,7,-7,-13
5,-4,-8,-1,6,-5,4,4,1,7,-7,-13
4,-3,-7,-1,6,-5,5,5,1,7,-7,-13
3,-4,-7,0,5,-5,6,5,2,7,-8,-13
2,-5,-7,0,5,-6,7,6,2,7,-8,-13
2,-5,-8,0,5,-6,8,7,2,7,-8,-13
1,-6,-8,1,5,-6,8,7,1,7,-8,-13
0,-7,-8,3,4,-7,8,8,1,6,-8,-14
0,-8,-7,4,3,-7,9,9,2,7,-8,-14
0,-7,-7,3,3,-6,10,9,2,7,-8,-13
0,-7,-7,3,3,-6,10,9,1,7,-8,-14
0,-7,-6,3,3,-6,10,8,1,6,-8,-14
0,-6,-6,2,3,-5,10,7,0,6,-8,-13
1,-5,-6,1,3,-5,10,7,0,5,-8,-13
0,-4,-5,1,3,-4,10,8,0,5,-8,-13
0,-5,-5,2,3,-5,10,8,0,5,-9,-14
-1,-6,-5,3,2,-5,10,7,0,5,-9,-14
-1,-6,-5,3,2,-5,10,6,-1,5,-10,-14
-2,-7,-5,5,1,-6,10,6,-1,5,-9,-14
-4,-7,-3,5,0,-5,12,7,0,6,-8,-13
-4,-5,-1,4,-1,-3,13,7,1,8,-6,-11
-2,-4,-1,3,-1,-2,12,7,1,9,-6,-11
-2,-4,-2,3,0,-3,11,5,0,8,-7,-12
-2,-5,-4,3,0,-4,10,4,-2,7,-8,-13
-1,-6,-5,3,1,-5,9,3,-4,5,-9,-13
0,-6,-6,3,2,-6,8,1,-5,4,-9,-14
1,-6,-6,3,2,-5,7,1,-5,4,-9,-13
2,-4,-6,1,3,-5,8,2,-4,5,-9,-12
5,-2,-7,-1,6,-5,7,1,-5,5,-9,-13
6,-3,-9,-1,8,-6,4,0,-6,5,-10,-13
3,-4,-8,0,6,-6,2,-1,-6,5,-9,-13
0,-5,-6,2,3,-5,2,-1,-6,5,-8,-12
-1,-6,-6,3,2,-5,1,-2,-7,4,-9,-12
-1,-6,-5,3,2,-5,1,-2,-8,4,-9,-13
-2,-6,-5,4,1,-5,1,-2,-8,4,-9,-13
-1,-6,-5,4,2,-5,0,-3,-8,4,-8,-13
-1,-6,-5,3,2,-5,0,-4,-9,4,-8,-13
0,-6,-6,3,3,-5,-1,-4,-9,5,-7,-12
0,-5,-5,2,3,-4,-1,-4,-9,5,-7,-11
0,-3,-5,1,3,-3,-1,-4,-8,6,-6,-10
1,-2,-4,0,2,-2,-2,-4,-8,7,-6,-9
0,-2,-2,1,1,-1,-3,-5,-8,7,-7,-9
0,-2,-2,1,0,-1,-3,-7,-9,7,-7,-9
1,-1,-2,0,1,0,-3,-7,-8,7,-6,-9
1,0,-1,0,1,0,-3,-7,-8,8,-5,-8
0,-1,-1,0,0,0,-4,-7,-8,8,-5,-8
-3,-3,0,2,-1,0,-4,-8,-9,7,-6,-9
-6,-3,1,4,-3,0,-5,-8,-10,7,-7,-9
-5,-3,1,4,-3,0,-6,-8,-10,7,-6,-8
-2,-2,0,2,-1,0,-7,-9,-10,8,-6,-8
-2,-2,0,1,-1,0,-7,-9,-11,8,-5,-8
-4,-4,1,3,-3,-1,-7,-9,-11,7,-5,-8
-5,-5,1,4,-4,-1,-6,-8,-12,8,-5,-8
-5,-4,1,4,-4,0,-6,-8,-12,8,-5,-7
-5,-5,0,4,-3,-1,-7,-7,-13,7,-6,-8
-5,-7,-2,5,-2,-3,-7,-7,-13,6,-8,-9
-5,-7,-3,5,-1,-4,-7,-6,-14,6,-8,-10
-6,-7,-2,6,-2,-4,-7,-6,-14,6,-8,-9
-7,-7,0,7,-4,-3,-7,-7,-14,6,-7,-9
-7,-7,0,7,-3,-3,-7,-8,-14,6,-7,-9
-5,-7,-1,6,-2,-3,-8,-8,-15,6,-7,-9
-4,-6,-1,5,-1,-3,-9,-8,-16,6,-7,-9
-5,-7,-2,6,-1,-3,-9,-7,-16,6,-7,-9
-6,-8,-2,7,-2,-4,-8,-7,-16,6,-8,-9
-7,-8,-1,7,-3,-4,-8,-7,-16,6,-8,-9
-7,-7,-1,7,-3,-4,-8,-6,-16,6,-8,-9
-5,-7,-1,6,-2,-4,-8,-5,-15,6,-8,-9
-4,-7,-1,5,-1,-4,-7,-3,-15,6,-8,-9
-4,-7,-2,5,-1,-4,-7,-3,-15,6,-8,-9
-3,-7,-2,4,0,-4,-7,-3,-16,5,-8,-9
-4,-7,-2,4,0,-4,-7,-3,-16,5,-8,-10
-3,-7,-3,4,0,-4,-6,-2,-15,6,-8,-10
-2,-6,-4,3,1,-4,-5,-1,-14,6,-8,-10
-1,-6,-5,4,2,-5,-5,0,-15,6,-9,-10
-1,-7,-6,4,2,-5,-4,1,-15,6,-9,-10
1,-5,-6,2,3,-5,-3,4,-14,7,-8,-9
1,-4,-5,2,2,-4,-2,5,-13,8,-8,-9
0,-4,-4,2,1,-3,-1,5,-13,8,-7,-8
-1,-4,-3,2,1,-3,0,5,-13,8,-7,-8
-1,-3,-3,2,1,-2,0,5,-13,8,-7,-8
-1,-4,-3,2,1,-3,0,5,-14,7,-7,-8
-1,-5,-4,3,1,-4,0,5,-14,7,-8,-8
0,-5,-5,2,3,-5,1,6,-13,7,-8,-8
1,-6,-6,2,3,-5,2,8,-13,7,-8,-8
0,-6,-6,3,3,-6,3,10,-13,7,-8,-8
-1,-7,-5,4,2,-6,4,11,-13,7,-8,-8
-2,-8,-5,5,1,-6,5,11,-12,8,-8,-9
-3,-8,-5,5,1,-6,5,11,-12,8,-8,-9
-2,-7,-4,4,1,-5,6,11,-12,9,-8,-8
-2,-6,-3,4,0,-4,7,12,-12,10,-7,-7
-3,-6,-2,4,0,-3,7,12,-12,10,-6,-6
-3,-7,-3,5,0,-4,6,12,-12,9,-6,-6
-3,-7,-3,5,0,-5,6,13,-12,9,-6,-6
-5,-9,-3,7,0,-6,7,14,-12,8,-7,-6
-6,-9,-3,7,-1,-6,9,15,-12,9,-8,-7
-5,-9,-4,6,0,-6,10,17,-11,9,-8,-7
-5,-9,-5,6,0,-7,11,18,-11,10,-9,-7
-4,-9,-5,6,1,-7,12,18,-11,10,-9,-7
-4,-8,-4,6,1,-6,13,18,-11,11,-8,-6
-4,-7,-3,5,0,-4,14,19,-10,11,-7,-5
-3,-5,-1,4,0,-2,15,20,-10,11,-6,-4
-3,-4,0,3,-1,-1,16,20,-10,11,-5,-4
-3,-4,-1,3,0,-1,16,20,-10,11,-6,-4
-1,-3,-3,1,1,-2,16,20,-10,11,-7,-4
0,-4,-5,1,2,-3,16,19,-10,11,-8,-4
-3,-6,-5,4,1,-5,15,18,-11,10,-9,-5
-6,-10,-4,8,-1,-6,14,17,-11,10,-10,-6
-8,-11,-3,9,-2,-6,13,16,-11,10,-11,-7
-9,-11,-2,10,-3,-6,13,16,-11,10,-10,-6
-9,-10,-1,9,-4,-4,12,16,-12,10,-9,-5
-7,-8,0,7,-3,-3,12,15,-12,9,-9,-5
-6,-7,-1,6,-3,-3,11,14,-13,9,-9,-5
-7,-7,-1,7,-3,-4,10,13,-13,9,-9,-5
-7,-7,-1,7,-4,-4,9,13,-13,9,-9,-4
-7,-7,-1,7,-4,-4,9,12,-13,9,-9,-4
-7,-8,-1,8,-4,-4,9,10,-13,9,-9,-4
-7,-9,-1,8,-4,-4,8,9,-14,8,-9,-4
-7,-9,-1,8,-3,-4,7,8,-15,7,-9,-4
-7,-9,-1,8,-3,-4,6,7,-16,7,-10,-5
-8,-10,-1,9,-4,-5,6,6,-16,6,-11,-5
-7,-10,-2,8,-3,-5,5,6,-16,7,-11,-5
-7,-10,-3,8,-3,-5,4,5,-16,7,-10,-5
-7,-9,-2,7,-3,-4,3,4,-16,7,-9,-4
-6,-7,-1,5,-2,-3,3,4,-15,7,-8,-3
-5,-6,-1,5,-2,-3,2,3,-16,7,-8,-2
-5,-7,-2,6,-1,-4,0,2,-16,7,-8,-3
-5,-8,-3,7,-1,-5,0,2,-16,7,-9,-3
-7,-9,-3,8,-2,-6,0,2,-16,7,-9,-3
-7,-9,-2,8,-3,-5,0,3,-16,7,-9,-3
-6,-8,-3,7,-2,-5,0,3,-15,7,-9,-3
-4,-7,-3,5,0,-5,0,4,-15,7,-9,-2
-2,-6,-4,4,0,-5,0,4,-15,7,-9,-3
-2,-6,-5,4,1,-5,0,4,-14,8,-9,-3
-2,-6,-4,4,1,-4,1,4,-14,9,-8,-2
-3,-5,-2,4,0,-3,1,4,-14,9,-7,-1
-4,-4,0,4,-2,-2,0,3,-14,9,-7,-1
-5,-5,0,4,-3,-2,0,3,-14,9,-7,-1
-5,-6,0,5,-3,-3,0,3,-14,8,-8,-1
-5,-6,-1,4,-2,-3,0,4,-13,8,-8,-1
-4,-6,-2,4,-1,-4,0,5,-13,8,-8,-1
-4,-7,-3,5,0,-4,1,6,-12,9,-8,-1
-3,-7,-3,5,0,-4,1,7,-11,10,-8,0
-3,-6,-3,4,0,-4,2,8,-10,10,-8,0
-2,-5,-2,4,0,-3,1,8,-10,10,-7,0
-3,-4,-1,3,-1,-2,1,8,-10,10,-7,0
-3,-4,-1,3,-1,-2,1,8,-10,10,-7,0
-2,-4,-2,3,0,-3,1,8,-11,10,-7,0
-2,-5,-3,3,0,-4,0,8,-11,10,-7,0
-1,-4,-3,2,1,-3,1,8,-10,12,-6,1
2,-2,-3,0,3,-2,1,9,-9,15,-4,3
4,-1,-5,-1,4,-3,0,8,-10,17,-3,4
4,-1,-4,-1,4,-2,0,7,-9,20,0,6
5,1,-3,-3,4,0,0,8,-6,26,6,12
5,3,-1,-4,3,1,0,8,-4,33,12,17
0,1,1,-2,0,2,-2,7,-2,40,19,23
-2,2,5,-1,-3,4,-2,8,0,50,28,30
-2,7,9,-3,-5,9,-3,8,4,62,38,38
0,13,12,-7,-6,13,-4,7,7,75,48,47
2,18,16,-10,-7,17,-5,5,10,88,60,56
3,22,19,-12,-8,21,-8,3,12,100,71,65
6,27,20,-16,-7,24,-11,0,12,109,81,74
10,30,21,-20,-5,25,-16,-4,10,117,91,83
12,34,21,-23,-4,27,-21,-11,5,122,101,93
15,39,23,-28,-3,31,-27,-19,-1,127,113,104
17,45,28,-32,-4,36,-32,-26,-9,131,126,118
21,51,30,-36,-4,41,-39,-34,-18,136,140,131
27,57,30,-42,-1,44,-45,-42,-27,140,154,145
33,63,31,-48,1,47,-50,-48,-35,145,168,159
38,69,31,-53,3,50,-55,-54,-41,149,180,172
43,73,31,-58,6,52,-59,-59,-47,151,189,183
46,77,31,-62,7,54,-63,-63,-51,150,195,191
49,79,31,-65,9,55,-65,-66,-54,145,195,194
49,81,31,-65,9,56,-65,-67,-55,135,190,193
46,81,33,-64,7,57,-64,-67,-56,120,179,187
42,80,36,-61,3,58,-62,-68,-59,99,163,177
36,77,40,-56,-2,59,-60,-70,-62,74,143,163
28,73,44,-51,-8,59,-57,-71,-66,46,120,147
23,70,47,-46,-12,58,-54,-72,-70,17,97,128
17,66,49,-42,-16,58,-50,-74,-75,-8,74,109
9,61,52,-36,-21,57,-45,-72,-76,-28,54,91
2,55,53,-29,-25,54,-38,-66,-74,-41,37,73
-3,47,50,-22,-26,49,-32,-59,-70,-46,22,56
-7,38,45,-15,-26,42,-25,-50,-64,-46,9,40
-11,28,40,-8,-25,34,-18,-39,-55,-43,-2,25
-13,20,33,-3,-24,27,-12,-28,-46,-39,-10,12
-13,13,27,0,-21,20,-5,-16,-36,-34,-16,2
-13,7,21,3,-17,14,0,-5,-29,-29,-20,-4
-13,2,15,5,-14,9,4,2,-23,-25,-23,-8
-13,-2,11,7,-12,4,6,8,-19,-22,-24,-11
-13,-6,7,8,-9,1,8,12,-16,-19,-26,-13
-10,-6,3,8,-6,-1,10,15,-13,-17,-26,-14
-7,-6,0,7,-3,-2,11,17,-12,-16,-26,-15
-5,-7,-1,7,-2,-3,12,19,-10,-15,-26,-15
-4,-7,-2,6,-1,-4,13,21,-8,-14,-26,-16
-4,-8,-3,6,0,-5,13,22,-7,-13,-26,-16
-4,-9,-4,6,0,-6,12,22,-5,-12,-25,-16
-5,-9,-5,6,0,-7,12,22,-5,-10,-25,-15
-6,-10,-5,7,0,-7,11,21,-5,-10,-25,-15
-7,-12,-5,9,0,-8,11,20,-5,-10,-25,-16
-9,-14,-5,11,-1,-9,10,20,-5,-10,-25,-16
-10,-15,-5,12,-2,-10,9,19,-6,-11,-25,-16
-8,-14,-5,11,-1,-10,8,18,-5,-11,-25,-17
-7,-13,-6,10,0,-9,7,17,-5,-12,-25,-17
-6,-12,-5,9,0,-9,7,17,-4,-12,-24,-16
-7,-12,-4,8,-1,-8,7,17,-4,-11,-24,-16
-7,-11,-3,8,-1,-7,7,17,-3,-11,-23,-15
-5,-9,-3,7,0,-6,7,17,-3,-11,-22,-15
-5,-10,-4,7,0,-7,6,15,-3,-12,-23,-15
-6,-11,-4,9,0,-7,4,14,-4,-13,-23,-16
-6,-10,-4,8,0,-7,4,14,-3,-14,-23,-16
-6,-10,-4,8,0,-7,3,14,-2,-15,-23,-16
-7,-11,-4,9,-1,-7,3,14,-2,-15,-23,-16
-7,-11,-4,8,-1,-7,2,14,-2,-15,-23,-16
-6,-10,-4,7,-1,-6,2,14,-2,-14,-23,-16
-7,-10,-3,7,-1,-6,2,14,-2,-14,-23,-16
-8,-10,-3,8,-2,-7,1,13,-2,-14,-23,-16
-8,-11,-3,9,-2,-6,1,13,-1,-14,-22,-16
-8,-10,-3,9,-2,-6,1,12,-1,-13,-22,-16
-7,-10,-3,9,-1,-7,0,12,0,-13,-21,-16
-6,-10,-4,8,-1,-7,0,13,0,-13,-21,-16
-7,-10,-2,8,-2,-6,0,14,2,-13,-21,-15
-8,-10,-1,8,-3,-6,1,14,3,-13,-20,-15
-6,-9,-2,7,-2,-5,1,14,4,-13,-19,-15
