leadI,leadII,leadIII,leadaVR,leadaVL,leadaVF,leadV1,leadV2,leadV3,leadV4,leadV5,leadV6
0,2,1,-1,0,1,-1,-1,0,-2,-1,-1
1,4,3,-3,-1,4,-3,-4,-1,-7,-4,-2
1,5,4,-3,-1,5,-4,-5,-1,-9,-6,-3
1,6,5,-4,-1,5,-5,-6,-1,-11,-8,-4
2,7,5,-5,-1,6,-5,-5,-1,-12,-9,-5
3,8,5,-6,0,6,-5,-4,0,-12,-8,-5
5,10,5,-8,0,7,-5,-3,0,-12,-8,-4
4,9,5,-7,0,7,-5,-3,1,-12,-8,-4
3,9,5,-6,0,7,-6,-3,1,-11,-8,-4
4,10,5,-7,0,7,-7,-3,2,-10,-7,-4
5,11,5,-8,0,8,-7,-4,2,-10,-7,-3
6,11,5,-9,0,9,-8,-4,2,-9,-7,-2
5,12,6,-9,0,9,-8,-5,2,-9,-7,-2
5,12,7,-9,0,10,-8,-5,2,-8,-7,0
5,13,8,-9,-1,11,-8,-5,2,-8,-7,0
5,12,8,-9,-1,11,-9,-5,2,-8,-7,0
5,12,8,-8,-1,10,-10,-6,1,-9,-8,0
5,12,8,-8,-1,10,-11,-7,0,-9,-8,0
5,13,8,-9,-1,11,-11,-7,0,-8,-9,0
5,13,8,-9,-1,11,-11,-7,0,-9,-9,0
6,13,7,-10,0,10,-13,-8,0,-10,-10,-1
7,13,6,-10,0,10,-14,-10,-1,-11,-11,-1
7,13,6,-10,0,10,-15,-11,-2,-11,-12,-1
7,14,7,-11,0,10,-15,-11,-3,-11,-12,-1
8,14,7,-11,0,11,-14,-11,-3,-11,-11,0
7,14,8,-10,0,11,-13,-11,-3,-11,-11,0
5,13,8,-9,-1,11,-12,-11,-3,-11,-11,0
5,13,7,-9,0,10,-10,-11,-3,-11,-11,0
6,12,5,-9,1,9,-10,-10,-3,-11,-12,0
6,10,3,-7,2,7,-9,-9,-2,-11,-12,0
5,7,2,-5,2,5,-9,-8,-1,-10,-12,0
4,5,1,-4,2,3,-8,-6,-1,-9,-12,0
4,4,1,-4,2,3,-7,-5,0,-9,-12,0
5,4,0,-5,3,2,-7,-5,0,-9,-13,0
5,4,-1,-5,4,2,-7,-5,-1,-10,-14,0
4,2,-2,-4,3,1,-7,-7,-3,-11,-15,-1
1,0,-2,-1,2,0,-7,-8,-5,-13,-16,-2
0,-2,-3,1,2,-2,-7,-10,-7,-15,-18,-4
0,-3,-4,2,2,-4,-7,-11,-9,-17,-20,-6
0,-4,-4,2,2,-4,-7,-12,-10,-18,-21,-7
-2,-6,-5,4,2,-5,-6,-12,-11,-19,-22,-8
-3,-8,-5,5,1,-6,-6,-12,-11,-19,-23,-9
-4,-8,-5,6,0,-6,-6,-12,-11,-19,-23,-9
-3,-8,-5,5,1,-7,-5,-11,-11,-18,-22,-8
-3,-9,-6,6,1,-8,-5,-11,-11,-18,-22,-8
-3,-9,-7,6,1,-8,-5,-11,-11,-18,-22,-8
-3,-9,-6,6,1,-8,-5,-10,-11,-18,-22,-8
-3,-9,-6,6,2,-8,-5,-9,-10,-17,-21,-8
-3,-10,-7,6,2,-9,-6,-9,-11,-17,-22,-9
-3,-12,-8,7,3,-10,-6,-9,-11,-17,-22,-10
-3,-13,-9,7,3,-11,-6,-9,-11,-17,-22,-10
-3,-12,-9,7,3,-11,-6,-8,-11,-17,-22,-10
-4,-12,-8,7,3,-10,-5,-8,-11,-18,-22,-10
-5,-12,-8,8,2,-10,-5,-8,-11,-18,-22,-10
-4,-12,-8,8,2,-10,-5,-8,-11,-17,-22,-10
-3,-11,-8,8,3,-10,-5,-8,-11,-17,-22,-10
-3,-11,-8,8,2,-10,-5,-8,-11,-17,-22,-10
-3,-11,-8,8,2,-10,-5,-8,-11,-17,-22,-10
-3,-11,-8,7,2,-10,-5,-8,-11,-17,-22,-10
-2,-11,-8,7,3,-10,-5,-8,-11,-17,-22,-10
-2,-11,-9,7,3,-10,-5,-8,-11,-17,-22,-10
-2,-11,-8,7,3,-9,-5,-8,-11,-17,-22,-10
-3,-11,-7,7,2,-9,-4,-8,-11,-17,-22,-10
-3,-10,-7,7,2,-9,-4,-8,-11,-17,-22,-10
-2,-10,-7,6,3,-9,-4,-8,-12,-17,-22,-11
-2,-11,-8,6,3,-9,-3,-8,-12,-17,-22,-11
-2,-11,-9,6,3,-10,-2,-8,-12,-18,-23,-12
-2,-13,-11,7,4,-12,0,-7,-12,-18,-23,-13
-3,-15,-12,9,5,-13,1,-6,-13,-19,-24,-14
-3,-17,-13,9,5,-14,4,-5,-13,-19,-25,-15
-3,-17,-14,10,5,-15,8,-3,-13,-20,-26,-16
-4,-18,-14,11,5,-16,12,0,-12,-20,-27,-18
-5,-20,-14,13,4,-17,17,5,-10,-19,-27,-18
-6,-21,-15,14,4,-18,21,12,-7,-17,-26,-18
-5,-20,-14,13,4,-17,25,19,-1,-13,-23,-15
-3,-17,-13,10,5,-15,29,28,6,-6,-18,-11
0,-11,-11,5,5,-11,31,36,15,2,-11,-4
4,-5,-8,0,5,-6,34,45,26,13,-2,5
8,2,-5,-5,6,0,36,54,38,25,9,16
14,12,-2,-13,7,6,36,63,51,40,23,29
23,25,2,-24,10,14,32,69,65,56,39,45
33,40,7,-36,13,24,23,75,80,74,57,62
44,54,10,-49,17,32,11,81,96,93,76,80
55,67,12,-61,21,40,-4,86,112,112,94,98
64,81,16,-73,24,49,-23,86,125,129,112,116
72,95,23,-83,24,60,-46,79,134,144,129,132
77,110,33,-93,22,72,-69,68,142,158,143,147
80,127,47,-103,16,87,-91,56,150,171,158,161
80,146,66,-112,7,106,-111,44,160,186,173,176
77,167,90,-121,-6,129,-129,34,172,202,190,192
73,186,115,-129,-21,151,-146,22,182,215,204,206
67,201,135,-134,-34,168,-162,4,187,223,214,216
62,206,145,-134,-41,176,-175,-17,185,224,216,218
57,196,140,-126,-42,169,-181,-31,178,216,207,209
51,175,125,-113,-37,151,-178,-36,169,202,189,190
45,152,107,-99,-31,130,-169,-35,157,184,167,166
38,129,91,-84,-26,110,-155,-32,143,163,143,142
29,107,78,-68,-24,92,-138,-38,116,131,113,113
18,85,67,-51,-24,76,-119,-54,75,89,75,80
7,66,59,-36,-25,62,-99,-69,35,48,40,50
-2,49,51,-23,-26,50,-80,-74,8,19,14,28
-7,36,43,-14,-25,40,-62,-71,-7,2,-2,12
-9,25,35,-8,-22,30,-47,-65,-16,-9,-13,2
-12,16,27,-2,-20,22,-35,-57,-21,-15,-20,-4
-14,6,20,3,-17,13,-25,-50,-24,-20,-25,-10
-14,-1,13,8,-14,6,-17,-44,-26,-23,-29,-14
-13,-7,7,10,-10,0,-10,-37,-26,-26,-32,-17
-13,-12,2,13,-8,-5,-4,-32,-26,-28,-33,-19
-14,-16,-1,15,-6,-8,1,-28,-26,-29,-35,-21
-14,-18,-3,16,-5,-11,4,-25,-25,-29,-36,-22
-14,-20,-6,17,-4,-13,7,-22,-24,-29,-36,-23
-14,-22,-7,18,-3,-14,9,-20,-24,-29,-37,-23
-14,-23,-9,18,-3,-16,10,-19,-24,-29,-38,-24
-14,-24,-10,19,-2,-17,11,-18,-25,-30,-39,-26
-14,-26,-11,20,-1,-18,12,-18,-25,-31,-40,-27
-13,-27,-12,20,0,-19,13,-17,-26,-32,-40,-27
-12,-27,-13,20,1,-20,14,-16,-26,-32,-41,-28
-12,-27,-14,20,1,-21,15,-15,-25,-32,-41,-28
-13,-27,-14,20,0,-21,16,-14,-25,-32,-41,-27
-14,-28,-13,21,0,-20,17,-14,-24,-31,-41,-27
-14,-28,-14,21,0,-21,17,-13,-24,-31,-42,-27
-14,-28,-14,21,0,-21,17,-13,-24,-31,-42,-27
-14,-28,-14,21,0,-21,17,-13,-24,-31,-43,-27
-13,-28,-14,20,0,-21,18,-12,-23,-31,-43,-27
-13,-27,-14,20,0,-20,19,-12,-23,-31,-43,-27
-14,-28,-13,21,0,-20,19,-11,-22,-31,-43,-27
-15,-29,-12,22,-1,-20,19,-11,-22,-31,-44,-27
-14,-28,-13,21,-1,-20,19,-11,-22,-30,-44,-27
-14,-27,-13,21,0,-20,19,-10,-21,-30,-44,-27
-14,-27,-12,21,0,-20,20,-9,-20,-29,-44,-27
-14,-27,-12,20,0,-20,20,-8,-20,-29,-45,-27
-12,-26,-13,19,0,-19,20,-8,-19,-29,-45,-27
-11,-25,-13,18,1,-19,20,-7,-19,-29,-45,-27
-11,-26,-13,18,2,-19,20,-6,-19,-29,-46,-27
-11,-26,-14,19,1,-20,20,-6,-19,-29,-46,-27
-12,-27,-14,19,1,-20,21,-6,-19,-29,-46,-27
-12,-28,-15,20,1,-21,21,-6,-18,-28,-46,-26
-13,-29,-15,21,1,-22,21,-6,-18,-28,-46,-26
-14,-29,-16,21,1,-22,20,-6,-18,-28,-46,-26
-14,-29,-15,21,1,-22,20,-6,-17,-27,-45,-26
-14,-28,-14,21,0,-20,20,-5,-17,-26,-44,-26
-14,-27,-12,21,-1,-19,20,-5,-17,-26,-44,-26
-13,-26,-12,20,0,-18,20,-4,-17,-26,-44,-26
-12,-25,-12,19,0,-18,20,-3,-16,-25,-44,-26
-12,-25,-12,19,0,-18,20,-3,-16,-25,-43,-26
-12,-25,-13,19,0,-18,21,-2,-15,-24,-43,-26
-11,-25,-14,18,1,-19,21,-1,-15,-24,-43,-26
-10,-25,-15,18,1,-19,22,0,-14,-23,-43,-26
-11,-26,-15,19,1,-20,22,1,-14,-23,-43,-26
-12,-27,-15,20,0,-20,22,2,-13,-22,-43,-26
-12,-27,-14,20,0,-20,23,4,-12,-21,-43,-25
-12,-27,-14,20,0,-20,23,5,-11,-20,-42,-24
-12,-26,-14,19,0,-20,24,7,-10,-20,-42,-24
-11,-25,-14,19,1,-19,24,8,-10,-19,-42,-23
-12,-25,-13,18,0,-19,24,9,-9,-19,-42,-23
-13,-25,-12,19,0,-18,25,11,-8,-18,-42,-23
-14,-25,-12,19,-1,-18,25,12,-8,-18,-42,-23
-13,-24,-12,18,0,-18,26,13,-7,-17,-42,-23
-11,-24,-12,17,0,-18,26,15,-6,-16,-42,-22
-11,-23,-12,17,0,-17,27,17,-5,-16,-42,-22
-11,-23,-12,17,0,-17,28,19,-3,-15,-42,-22
-11,-22,-11,16,0,-16,29,21,-2,-14,-41,-21
-10,-21,-10,15,0,-15,30,24,0,-13,-40,-20
-8,-19,-11,14,1,-15,31,26,1,-11,-39,-19
-7,-18,-11,13,2,-14,32,29,2,-10,-38,-19
-7,-19,-11,13,1,-14,33,31,4,-10,-37,-19
-8,-20,-11,14,1,-15,34,34,5,-9,-37,-19
-9,-21,-12,15,1,-16,34,36,7,-8,-36,-19
-9,-22,-12,15,2,-17,34,38,8,-7,-36,-19
-9,-23,-13,16,2,-17,34,40,9,-6,-35,-18
-9,-22,-12,15,1,-17,35,43,12,-4,-33,-17
-9,-21,-12,15,1,-16,36,46,14,-2,-31,-16
-7,-20,-12,14,2,-16,36,49,16,0,-29,-15
-6,-19,-13,13,3,-16,37,51,17,1,-28,-14
-5,-19,-13,12,4,-16,37,53,19,2,-27,-14
-4,-18,-13,11,4,-15,37,55,20,4,-26,-13
-2,-17,-14,9,6,-15,37,57,22,6,-24,-11
0,-16,-14,8,7,-15,37,59,25,8,-22,-9
0,-15,-14,7,6,-14,37,61,27,11,-20,-8
0,-15,-14,7,6,-14,37,63,29,13,-19,-6
0,-14,-13,7,6,-14,36,63,30,14,-18,-6
0,-13,-13,7,6,-13,36,64,31,15,-18,-5
1,-13,-13,6,6,-13,35,64,31,16,-18,-5
1,-13,-13,6,7,-13,35,65,32,16,-17,-4
1,-12,-13,5,7,-13,34,65,32,17,-17,-4
2,-12,-14,5,7,-13,34,64,33,17,-16,-3
2,-11,-14,4,8,-12,33,64,33,18,-15,-3
3,-10,-13,3,8,-12,32,64,34,19,-14,-2
3,-10,-13,3,8,-11,32,63,34,19,-14,-2
3,-10,-13,3,8,-11,31,62,33,19,-13,-1
3,-9,-13,2,8,-11,30,61,33,19,-13,-1
5,-7,-13,1,9,-10,29,60,33,20,-12,0
6,-6,-12,0,9,-9,28,58,33,20,-12,0
5,-6,-12,0,8,-9,27,56,32,19,-12,0
4,-7,-12,1,8,-9,25,54,31,19,-12,0
3,-8,-12,2,8,-10,24,51,30,18,-12,0
3,-8,-12,3,8,-10,22,49,28,18,-11,1
3,-8,-12,3,7,-9,20,46,27,18,-11,1
2,-8,-11,3,6,-9,19,44,26,18,-11,2
2,-8,-10,3,5,-9,17,40,25,16,-11,2
2,-8,-9,2,5,-8,15,37,23,15,-12,1
2,-6,-8,1,4,-6,15,35,22,14,-12,1
3,-4,-8,0,4,-5,14,32,21,13,-11,2
4,-4,-8,0,5,-5,14,30,20,12,-10,2
4,-4,-8,0,5,-5,13,28,18,11,-11,1
4,-4,-8,0,5,-5,13,25,16,9,-12,0
3,-5,-7,1,5,-5,12,23,14,8,-12,0
3,-5,-7,1,5,-5,12,21,13,8,-11,0
3,-5,-7,1,5,-5,11,19,12,7,-10,0
3,-5,-7,1,5,-5,11,17,11,6,-10,0
2,-5,-7,1,5,-6,10,15,10,6,-9,0
2,-6,-7,2,5,-6,10,13,8,5,-9,0
2,-5,-7,2,5,-6,9,11,7,5,-8,0
2,-4,-7,1,5,-6,9,10,6,4,-8,0
2,-4,-7,1,5,-5,9,9,5,4,-9,0
2,-4,-6,1,4,-5,8,8,4,3,-9,0
1,-5,-6,2,3,-5,7,6,3,2,-10,-1
0,-6,-6,3,3,-5,7,5,1,1,-10,-2
0,-6,-6,3,3,-5,7,4,0,0,-11,-3
0,-6,-6,3,2,-5,7,3,0,0,-12,-4
-1,-7,-6,4,2,-6,6,2,-1,0,-12,-4
-2,-8,-6,5,1,-7,6,1,-2,-1,-12,-5
-2,-8,-6,5,1,-7,6,1,-3,-1,-13,-5
-1,-7,-6,4,2,-6,7,0,-3,-1,-13,-5
0,-7,-6,3,2,-6,7,0,-4,-1,-14,-5
0,-7,-6,3,3,-6,7,0,-5,-2,-14,-5
0,-7,-6,3,3,-6,7,-1,-5,-2,-14,-6
0,-7,-7,3,3,-6,7,-1,-6,-3,-15,-7
-1,-8,-7,4,2,-7,7,-2,-6,-4,-16,-8
-2,-8,-6,5,1,-7,8,-2,-6,-4,-15,-8
-2,-8,-5,5,1,-7,9,-2,-6,-3,-14,-7
-3,-8,-5,5,0,-7,9,-3,-7,-3,-14,-8
-4,-9,-5,6,0,-7,9,-4,-8,-4,-14,-8
-5,-10,-5,7,0,-7,10,-4,-8,-5,-14,-9
-4,-9,-4,6,0,-7,10,-5,-8,-5,-14,-9
-4,-9,-4,6,0,-6,10,-5,-8,-5,-13,-9
-4,-8,-4,6,0,-5,11,-5,-8,-5,-13,-9
-4,-8,-4,6,0,-5,11,-5,-8,-4,-12,-8
-4,-8,-5,6,0,-6,12,-5,-8,-4,-12,-8
-5,-10,-5,7,0,-7,11,-6,-8,-4,-11,-8
-6,-11,-5,8,0,-7,11,-6,-8,-4,-11,-8
-6,-11,-5,8,0,-8,12,-5,-8,-4,-12,-8
-6,-11,-5,8,0,-8,13,-5,-8,-5,-13,-9
-6,-12,-5,8,0,-8,14,-4,-8,-5,-13,-9
-5,-12,-5,8,0,-8,15,-4,-8,-5,-13,-10
-4,-10,-5,7,0,-8,16,-4,-8,-5,-13,-10
-4,-9,-5,6,1,-7,16,-4,-8,-4,-13,-10
-4,-9,-5,6,0,-7,17,-5,-8,-4,-13,-10
-4,-8,-5,6,0,-7,17,-5,-8,-3,-13,-10
-4,-8,-4,6,0,-6,17,-5,-8,-3,-12,-10
-4,-9,-4,6,0,-6,16,-6,-8,-3,-12,-10
-4,-9,-4,6,0,-6,16,-7,-8,-3,-11,-9
-4,-9,-4,6,0,-6,16,-7,-8,-3,-11,-9
-5,-9,-4,7,-1,-6,16,-8,-8,-4,-11,-9
-7,-10,-4,8,-2,-7,16,-8,-9,-5,-12,-10
-8,-11,-4,9,-2,-7,16,-9,-9,-5,-13,-11
-8,-10,-4,9,-2,-7,16,-9,-9,-5,-13,-11
-7,-10,-4,9,-2,-6,16,-9,-9,-5,-13,-11
-7,-10,-4,8,-2,-6,16,-10,-9,-5,-13,-11
-6,-9,-4,8,-1,-6,16,-10,-9,-5,-13,-11
-6,-9,-3,7,-1,-6,16,-10,-10,-5,-14,-11
-5,-8,-3,7,-1,-5,16,-10,-10,-5,-14,-11
-5,-7,-2,6,-1,-4,16,-11,-9,-5,-13,-11
-5,-7,-2,6,-1,-5,15,-11,-9,-4,-13,-10
-6,-8,-2,7,-2,-5,15,-13,-10,-4,-13,-10
-7,-8,-2,7,-3,-4,14,-14,-10,-4,-14,-9
-7,-8,-1,8,-3,-4,14,-14,-10,-4,-14,-9
-8,-8,-1,8,-4,-4,13,-15,-11,-5,-15,-9
-8,-9,-1,8,-4,-5,13,-15,-11,-6,-15,-10
-8,-9,-1,8,-4,-5,12,-15,-12,-6,-15,-10
-8,-9,-1,8,-3,-5,12,-14,-12,-6,-16,-10
-8,-9,-2,8,-3,-5,11,-14,-12,-6,-17,-11
-8,-9,-1,8,-3,-4,11,-14,-12,-6,-18,-11
-8,-9,0,8,-4,-4,11,-15,-12,-6,-18,-11
-8,-9,0,8,-4,-4,11,-15,-12,-6,-18,-11
-7,-9,-1,8,-3,-4,10,-16,-12,-6,-18,-11
-7,-9,-2,7,-3,-4,10,-16,-11,-6,-17,-11
-6,-8,-2,7,-3,-4,10,-15,-11,-6,-17,-11
-6,-8,-2,7,-3,-4,10,-16,-12,-6,-17,-11
-6,-9,-2,7,-3,-5,9,-16,-12,-7,-17,-11
-6,-9,-2,7,-3,-5,9,-16,-12,-7,-16,-10
-6,-9,-2,7,-3,-5,8,-16,-12,-7,-16,-10
-6,-10,-3,8,-2,-6,8,-16,-13,-7,-16,-10
-6,-9,-3,7,-2,-6,8,-16,-13,-7,-16,-10
-6,-8,-3,7,-2,-5,8,-16,-13,-7,-16,-10
-6,-8,-2,7,-2,-4,9,-15,-13,-7,-16,-10
-7,-7,-1,7,-3,-4,9,-15,-13,-7,-16,-10
-8,-7,0,7,-3,-3,9,-15,-14,-7,-16,-10
-7,-7,0,7,-3,-3,9,-15,-14,-7,-16,-10
-7,-7,0,6,-3,-3,9,-15,-14,-7,-15,-10
-7,-6,0,6,-4,-2,9,-15,-14,-7,-15,-10
-7,-6,1,6,-4,-2,9,-14,-14,-7,-15,-10
-6,-5,1,5,-4,-1,10,-13,-13,-7,-14,-10
-5,-4,1,4,-3,-1,10,-12,-12,-6,-13,-10
-4,-3,1,3,-3,0,10,-11,-11,-5,-11,-9
-4,-3,1,3,-3,0,10,-10,-10,-3,-10,-8
-4,-3,1,3,-3,0,10,-9,-10,-3,-9,-7
-4,-3,1,4,-3,0,11,-8,-10,-3,-9,-7
-4,-3,1,4,-3,0,11,-8,-10,-3,-9,-7
-3,-2,0,3,-3,0,11,-8,-9,-2,-8,-7
-2,0,1,1,-2,1,11,-7,-9,-2,-8,-6
-1,1,1,0,-2,1,10,-7,-8,-2,-7,-6
-2,1,2,0,-3,1,10,-6,-8,-2,-7,-7
-2,1,2,1,-3,1,9,-6,-7,-2,-7,-7
-2,1,2,0,-3,2,10,-5,-7,-1,-7,-6
-1,2,2,0,-3,2,10,-4,-6,0,-6,-6
-1,2,2,0,-2,2,11,-3,-5,0,-5,-5
0,2,2,-1,-1,2,11,-2,-4,1,-5,-5
1,2,1,-2,0,2,12,-2,-4,1,-4,-5
1,3,2,-3,0,3,12,-2,-3,2,-3,-5
1,4,2,-3,-1,3,10,-2,-3,2,-2,-4
1,4,3,-3,0,4,9,-2,-2,2,-1,-4
1,5,4,-4,-1,5,8,-2,-2,2,-1,-4
1,6,5,-4,-2,6,7,-3,-1,2,-1,-3
2,7,6,-5,-2,7,7,-3,-1,2,-1,-3
3,8,5,-7,-1,7,6,-3,0,2,0,-2
4,9,5,-8,0,8,6,-3,0,2,0,-2
5,9,5,-8,0,8,5,-3,0,2,0,-2
5,10,5,-9,0,8,5,-3,0,2,1,-2
5,10,5,-9,0,8,5,-4,0,2,1,-2
5,10,5,-8,0,8,4,-4,0,2,2,-2
4,10,5,-8,0,7,4,-5,-1,2,2,-2
4,10,5,-8,-1,7,3,-5,-2,1,1,-3
3,10,6,-8,-1,7,3,-6,-2,0,1,-3
3,9,6,-7,-1,7,2,-6,-3,-1,0,-3
3,9,6,-7,-2,8,1,-6,-3,-1,0,-3
4,11,6,-8,-1,9,1,-6,-2,-1,1,-2
6,12,6,-10,0,9,1,-6,-2,-1,1,-2
6,11,5,-9,0,9,1,-6,-3,-1,0,-3
5,10,5,-8,0,8,0,-7,-3,-2,0,-3
4,8,5,-7,0,7,0,-6,-2,-1,0,-3
3,7,4,-6,0,6,1,-5,-2,-1,0,-3
3,6,3,-6,0,5,1,-3,-1,0,0,-3
4,5,1,-5,1,3,2,-2,-1,0,0,-3
3,3,0,-3,1,2,2,-1,-1,0,0,-3
1,1,-1,-2,1,0,2,-1,-1,0,1,-3
0,0,-1,-1,1,0,2,-1,-1,0,1,-3
0,-2,-2,0,1,-1,2,-2,-1,0,1,-4
1,-2,-4,0,3,-2,2,-3,-2,-1,1,-5
2,-3,-5,0,4,-3,2,-4,-4,-3,0,-6
1,-4,-6,0,4,-4,2,-5,-6,-5,-2,-8
0,-5,-6,2,3,-5,2,-6,-8,-7,-4,-10
-1,-6,-6,3,2,-6,2,-6,-10,-8,-5,-11
-1,-7,-6,4,2,-6,2,-6,-10,-9,-5,-11
-2,-7,-6,5,2,-6,2,-6,-10,-9,-5,-12
-3,-8,-6,6,2,-7,2,-6,-10,-10,-6,-12
-4,-10,-6,7,2,-7,2,-6,-10,-10,-6,-13
-4,-10,-6,7,2,-8,2,-6,-10,-10,-6,-13
-3,-10,-7,6,2,-8,2,-6,-10,-10,-6,-13
-2,-10,-8,5,3,-8,2,-5,-10,-10,-6,-13
-3,-11,-8,6,2,-9,2,-5,-11,-10,-6,-13
-4,-11,-7,7,2,-9,2,-5,-11,-10,-6,-13
-3,-10,-7,7,2,-8,2,-5,-11,-10,-6,-13
-2,-9,-7,5,2,-7,2,-5,-10,-10,-5,-12
-2,-8,-6,4,2,-6,2,-4,-10,-9,-4,-11
-1,-7,-5,4,2,-6,2,-4,-10,-9,-3,-10
-1,-7,-5,4,2,-6,2,-5,-10,-9,-3,-10
-2,-7,-5,4,2,-6,2,-5,-10,-9,-3,-11
-2,-7,-5,5,2,-6,2,-5,-10,-10,-4,-11
-3,-9,-6,5,2,-7,1,-5,-11,-11,-5,-12
-4,-10,-7,6,2,-8,1,-5,-11,-11,-6,-13
-3,-10,-7,6,2,-8,2,-5,-11,-11,-6,-13
-3,-10,-7,6,3,-8,2,-5,-11,-11,-7,-13
-2,-10,-7,6,3,-8,2,-5,-11,-11,-7,-13
-2,-9,-7,5,3,-8,3,-5,-10,-11,-6,-13
-2,-9,-6,5,3,-7,3,-5,-10,-10,-6,-12
-1,-9,-6,5,3,-7,4,-5,-10,-10,-6,-12
-1,-9,-7,5,3,-8,4,-5,-10,-10,-6,-13
-1,-9,-8,5,4,-8,5,-5,-10,-11,-6,-13
-1,-10,-8,6,3,-9,6,-4,-10,-11,-6,-14
-2,-11,-9,7,3,-10,8,-2,-10,-12,-7,-16
-2,-12,-10,7,4,-11,10,-1,-11,-13,-8,-18
-1,-13,-11,7,5,-12,14,1,-11,-14,-9,-19
-2,-14,-12,8,5,-13,19,4,-10,-14,-10,-20
-2,-15,-12,8,5,-13,23,9,-7,-13,-9,-20
-2,-15,-13,8,5,-14,27,16,-3,-10,-7,-19
-1,-14,-13,7,5,-13,31,23,3,-6,-3,-16
0,-11,-11,5,5,-11,33,32,10,0,2,-12
3,-5,-8,1,5,-7,36,41,20,9,10,-5
7,2,-5,-5,6,-1,38,50,32,20,20,3
11,10,-1,-10,6,4,39,58,43,32,32,14
15,19,4,-17,6,11,39,65,56,46,46,27
22,31,9,-26,7,20,35,71,69,62,62,42
30,44,14,-37,9,29,26,75,83,80,81,60
40,58,17,-49,12,38,14,80,99,100,101,79
51,71,20,-61,15,46,0,85,115,120,122,98
60,85,25,-72,17,55,-18,84,127,138,141,115
67,101,33,-84,17,67,-39,76,136,153,158,132
73,117,44,-95,15,81,-62,63,143,166,173,147
75,133,58,-104,9,96,-84,48,148,177,187,160
73,151,78,-112,-1,115,-104,33,155,189,201,174
70,171,102,-120,-15,138,-122,20,164,202,215,188
65,190,126,-127,-29,159,-138,7,172,213,227,200
59,204,145,-131,-42,176,-154,-11,175,219,235,209
55,208,155,-131,-50,182,-168,-32,170,218,236,209
49,199,150,-124,-50,175,-175,-47,160,208,226,199
43,179,135,-111,-46,157,-173,-53,148,192,207,180
37,154,116,-96,-39,136,-164,-53,134,171,183,154
31,130,99,-81,-33,115,-151,-52,117,148,157,128
25,109,84,-67,-29,97,-135,-57,92,118,128,100
17,89,72,-53,-27,81,-117,-68,56,79,93,69
8,71,62,-39,-26,67,-98,-77,22,43,61,41
1,54,54,-27,-26,54,-80,-78,0,18,38,20
-4,40,44,-18,-24,42,-64,-73,-14,1,22,4
-7,28,35,-10,-21,31,-51,-66,-22,-9,11,-6
-9,18,27,-4,-18,23,-39,-58,-26,-15,4,-13
-10,10,20,0,-15,16,-30,-50,-28,-19,-1,-18
-10,5,15,2,-12,10,-21,-43,-28,-22,-4,-21
-9,1,10,4,-9,6,-15,-36,-28,-23,-6,-24
-9,-2,7,6,-8,2,-10,-31,-28,-25,-8,-26
-10,-6,3,8,-7,-1,-6,-28,-28,-26,-10,-29
-10,-9,1,10,-5,-4,-2,-25,-27,-26,-11,-30
-10,-11,-1,10,-4,-6,1,-22,-26,-26,-12,-31
-10,-13,-3,11,-3,-8,3,-20,-26,-25,-12,-31
-11,-15,-5,13,-2,-10,5,-18,-26,-26,-13,-31
-10,-17,-8,14,-1,-12,6,-16,-25,-26,-13,-31
-10,-19,-9,15,0,-14,8,-15,-25,-27,-14,-32
-11,-21,-10,16,0,-15,10,-13,-24,-27,-14,-32
-10,-22,-11,16,1,-16,11,-11,-24,-26,-14,-32
-9,-22,-12,15,1,-16,12,-10,-23,-26,-14,-32
-9,-22,-13,15,2,-17,13,-9,-22,-26,-14,-32
-9,-23,-13,16,2,-17,14,-8,-22,-26,-14,-32
-9,-24,-14,17,2,-18,14,-8,-22,-26,-14,-32
-10,-25,-14,17,2,-19,14,-7,-22,-26,-14,-32
-10,-26,-15,18,2,-20,14,-7,-22,-26,-14,-32
-11,-26,-15,18,2,-20,14,-6,-22,-26,-14,-32
-10,-26,-16,18,3,-21,15,-5,-21,-26,-14,-33
-10,-25,-16,17,3,-21,15,-5,-21,-26,-14,-33
-9,-25,-16,17,3,-21,15,-4,-21,-26,-14,-33
-9,-26,-16,17,3,-21,15,-4,-21,-26,-14,-33
-9,-26,-17,17,4,-21,15,-3,-20,-26,-14,-33
-9,-26,-16,17,4,-20,15,-3,-20,-26,-13,-33
-10,-26,-15,18,3,-20,15,-2,-19,-26,-12,-32
-10,-25,-15,17,3,-19,15,-2,-19,-26,-11,-32
-8,-23,-15,16,3,-19,15,-1,-18,-25,-10,-32
-8,-23,-15,16,3,-19,15,0,-18,-25,-10,-33
-9,-24,-15,17,3,-20,14,0,-18,-26,-10,-34
-9,-25,-15,17,2,-20,13,0,-18,-26,-11,-34
-9,-25,-15,17,2,-20,13,0,-18,-26,-11,-34
-10,-25,-16,17,2,-20,13,0,-18,-26,-11,-34
-10,-26,-16,17,3,-21,12,0,-18,-26,-10,-34
-10,-26,-16,17,3,-21,12,0,-17,-25,-10,-34
-9,-26,-17,17,3,-21,11,0,-17,-25,-9,-34
-9,-27,-18,17,4,-22,11,0,-18,-25,-9,-34
-9,-27,-18,17,4,-22,11,0,-17,-25,-9,-34
-9,-27,-18,17,3,-22,11,1,-17,-24,-8,-33
-9,-26,-17,17,3,-22,10,1,-16,-23,-8,-33
-8,-25,-17,16,4,-21,10,2,-15,-23,-7,-32
-7,-25,-17,16,4,-21,9,2,-15,-22,-7,-32
-7,-25,-17,15,4,-21,9,3,-14,-22,-7,-32
-7,-24,-17,15,4,-21,9,4,-14,-22,-7,-32
-7,-24,-16,15,4,-20,9,5,-13,-21,-7,-32
-6,-23,-16,14,5,-20,10,6,-13,-21,-7,-32
-6,-23,-17,14,5,-20,10,7,-12,-21,-7,-32
-6,-24,-17,15,5,-20,10,8,-12,-21,-7,-32
-7,-25,-17,16,5,-21,10,9,-11,-20,-6,-32
-8,-25,-17,16,5,-21,10,10,-10,-20,-5,-31
-7,-25,-17,16,5,-21,11,11,-9,-19,-4,-31
-7,-24,-17,15,5,-21,11,12,-8,-19,-3,-30
-7,-24,-17,15,5,-21,11,13,-7,-18,-2,-30
-7,-24,-17,16,5,-21,11,15,-6,-18,-2,-30
-8,-25,-17,16,4,-21,12,17,-4,-17,-1,-30
-7,-25,-18,15,5,-21,14,19,-3,-16,0,-29
-6,-25,-18,15,6,-21,15,21,-1,-15,0,-29
-5,-24,-19,14,7,-21,16,22,0,-14,0,-28
-4,-24,-19,14,7,-21,16,24,0,-14,1,-28
-4,-24,-19,14,7,-21,16,26,2,-13,2,-28
-4,-24,-19,14,7,-22,16,29,3,-12,3,-27
-4,-24,-20,14,7,-22,16,31,5,-10,4,-26
-3,-24,-20,13,8,-22,16,32,6,-9,5,-25
-3,-23,-20,12,8,-22,16,34,8,-7,6,-24
-3,-22,-19,12,8,-21,17,37,10,-5,8,-23
-2,-21,-18,12,8,-20,17,39,12,-3,9,-22
0,-19,-18,9,9,-19,18,42,14,-1,11,-21
2,-17,-19,7,10,-18,18,45,17,0,12,-20
1,-17,-19,8,9,-18,18,46,18,1,13,-20
0,-19,-18,10,8,-19,17,47,19,2,13,-19
-1,-20,-18,11,8,-20,17,49,21,3,14,-19
0,-20,-19,10,9,-20,17,50,23,5,15,-18
0,-20,-19,9,10,-20,16,52,24,7,17,-17
1,-19,-20,9,10,-20,16,53,26,8,18,-16
1,-19,-20,8,10,-19,15,54,28,10,19,-15
2,-18,-20,7,11,-19,13,55,29,11,21,-14
4,-16,-20,6,12,-18,12,56,31,12,22,-12
5,-15,-20,5,12,-18,11,56,32,13,23,-11
5,-14,-19,4,12,-17,11,57,33,14,24,-10
6,-13,-19,4,12,-16,10,57,34,15,25,-9
6,-13,-19,3,13,-16,9,56,34,16,26,-9
7,-13,-19,3,13,-16,7,55,34,16,26,-9
8,-12,-19,2,13,-16,6,55,35,16,26,-9
8,-11,-19,1,13,-15,4,54,35,16,26,-9
8,-11,-19,0,13,-15,3,52,35,17,26,-8
9,-10,-19,0,14,-15,2,51,35,17,26,-8
9,-9,-19,0,14,-15,1,50,35,18,27,-7
8,-9,-17,0,13,-14,0,48,35,18,27,-6
7,-9,-16,1,12,-14,0,47,35,18,27,-5
8,-8,-16,0,12,-13,-2,45,34,18,27,-4
9,-8,-17,0,12,-13,-3,42,33,18,26,-4
9,-7,-17,-1,12,-12,-5,40,32,17,26,-4
10,-7,-17,-2,13,-12,-7,37,30,16,26,-4
10,-6,-17,-2,13,-12,-8,34,28,15,25,-4
10,-6,-16,-2,13,-11,-10,31,26,13,24,-4
9,-5,-15,-2,12,-11,-11,28,25,12,23,-4
8,-5,-14,-1,11,-10,-12,25,23,11,21,-4
8,-5,-13,-1,11,-10,-13,22,22,10,21,-4
7,-5,-13,-1,10,-9,-14,20,20,9,20,-4
6,-5,-12,-1,9,-9,-14,17,19,8,20,-4
6,-5,-12,-1,8,-9,-15,15,17,7,19,-4
5,-6,-12,0,8,-9,-16,12,15,6,18,-5
6,-5,-12,-1,8,-9,-17,10,13,5,17,-5
7,-5,-12,-1,9,-9,-17,8,12,4,16,-5
7,-4,-11,-2,9,-8,-17,6,10,3,15,-5
7,-4,-11,-2,9,-8,-18,5,9,3,15,-6
7,-4,-11,-2,9,-8,-18,3,8,2,14,-6
7,-4,-11,-2,9,-8,-18,2,7,1,14,-6
7,-4,-11,-2,9,-8,-18,0,5,0,13,-6
5,-5,-10,-1,8,-8,-18,-2,4,-1,12,-7
4,-5,-10,0,7,-8,-18,-4,2,-2,11,-7
4,-6,-10,0,7,-8,-18,-5,1,-3,10,-8
4,-6,-10,0,7,-8,-18,-6,0,-4,9,-8
5,-6,-11,0,8,-8,-17,-6,0,-5,9,-9
6,-6,-12,0,9,-9,-17,-7,-1,-5,8,-9
5,-7,-13,0,9,-10,-17,-8,-2,-6,7,-10
4,-8,-12,1,8,-10,-16,-8,-2,-6,6,-9
3,-8,-11,1,7,-10,-15,-9,-3,-7,6,-9
3,-7,-11,1,7,-9,-14,-9,-3,-7,6,-9
3,-7,-10,1,7,-9,-14,-9,-4,-7,5,-9
3,-7,-10,1,6,-8,-13,-9,-4,-7,5,-10
3,-7,-10,1,6,-8,-13,-10,-5,-7,4,-10
2,-7,-9,2,6,-8,-12,-10,-5,-7,4,-10
2,-7,-9,2,6,-8,-12,-10,-5,-8,4,-10
1,-8,-9,3,5,-8,-11,-10,-6,-8,3,-10
0,-8,-9,4,5,-9,-11,-11,-7,-9,2,-10
0,-9,-9,4,5,-9,-11,-12,-8,-10,1,-11
0,-9,-9,5,5,-9,-11,-12,-8,-10,1,-11
0,-9,-9,5,5,-9,-11,-13,-9,-10,0,-11
0,-8,-9,4,5,-9,-11,-13,-8,-10,0,-11
1,-7,-9,3,5,-8,-10,-13,-8,-10,0,-11
2,-7,-9,2,5,-8,-10,-13,-8,-10,0,-11
2,-7,-9,2,5,-8,-9,-13,-8,-10,0,-11
2,-7,-9,2,5,-8,-9,-13,-8,-10,0,-11
1,-7,-9,3,5,-9,-8,-14,-8,-10,0,-11
0,-9,-9,4,5,-9,-8,-14,-8,-10,0,-12
-1,-11,-10,5,4,-10,-8,-15,-9,-11,-1,-12
-2,-12,-10,7,4,-11,-8,-16,-9,-11,-1,-12
-2,-12,-9,7,3,-11,-8,-16,-9,-11,-1,-12
-1,-11,-9,6,3,-10,-8,-15,-8,-11,-1,-11
-1,-10,-8,6,3,-10,-7,-15,-8,-11,-1,-11
-2,-11,-8,6,3,-10,-7,-16,-8,-11,-2,-11
-2,-11,-8,6,3,-10,-7,-16,-8,-12,-2,-12
-1,-10,-8,5,3,-9,-6,-16,-8,-12,-2,-12
-1,-10,-8,5,3,-9,-6,-17,-8,-11,-2,-12
-1,-10,-8,5,3,-10,-6,-17,-8,-11,-2,-12
-1,-10,-9,5,4,-10,-7,-18,-8,-11,-2,-12
0,-10,-9,4,5,-10,-7,-18,-8,-11,-1,-11
0,-10,-9,4,5,-10,-8,-18,-8,-11,-1,-11
-3,-11,-8,6,3,-10,-8,-19,-9,-11,-2,-11
-4,-12,-7,8,2,-10,-8,-20,-9,-12,-2,-11
-4,-12,-7,8,2,-9,-8,-20,-9,-11,-2,-11
-3,-11,-7,7,2,-9,-8,-20,-9,-11,-2,-11
-2,-10,-7,6,2,-9,-9,-21,-9,-11,-2,-11
-2,-10,-7,6,2,-9,-9,-21,-9,-11,-2,-11
-2,-9,-7,5,2,-9,-10,-22,-9,-11,-2,-11
-2,-9,-7,5,2,-9,-10,-22,-9,-11,-2,-11
-3,-10,-7,6,2,-9,-10,-23,-9,-11,-2,-11
-3,-10,-8,6,2,-9,-10,-23,-10,-11,-2,-11
-2,-9,-8,5,3,-9,-10,-24,-10,-11,-2,-11
-1,-9,-8,5,3,-9,-10,-24,-10,-11,-2,-11
-2,-10,-8,6,3,-9,-11,-25,-10,-11,-3,-11
-4,-12,-7,8,1,-10,-11,-25,-10,-11,-3,-11
-5,-13,-7,9,0,-10,-11,-25,-10,-11,-3,-10
-4,-12,-7,8,1,-9,-11,-25,-10,-11,-2,-10
-3,-11,-8,7,2,-9,-11,-25,-10,-10,-2,-9
-2,-11,-8,6,2,-9,-11,-25,-10,-10,-2,-8
-2,-10,-7,6,2,-9,-10,-25,-10,-9,-2,-8
-2,-10,-7,6,2,-9,-10,-25,-10,-9,-2,-8
-3,-11,-7,7,2,-9,-10,-26,-10,-9,-2,-8
-4,-11,-7,7,1,-10,-10,-26,-10,-9,-2,-8
-5,-12,-7,8,1,-10,-10,-26,-10,-9,-2,-8
-5,-13,-7,9,1,-10,-10,-26,-10,-9,-2,-8
-4,-12,-8,8,1,-10,-10,-26,-11,-10,-2,-8
-4,-12,-8,8,2,-10,-10,-26,-11,-10,-2,-8
-4,-12,-8,8,2,-10,-10,-26,-11,-11,-2,-8
-5,-13,-8,8,1,-11,-10,-26,-12,-11,-2,-8
-5,-13,-8,8,1,-11,-10,-26,-12,-11,-2,-8
-4,-13,-9,7,2,-11,-10,-26,-12,-11,-2,-7
-4,-12,-9,7,2,-11,-9,-26,-12,-11,-2,-7
-3,-12,-9,7,3,-11,-9,-26,-12,-11,-2,-7
-2,-13,-10,7,4,-12,-9,-26,-12,-11,-3,-8
-2,-14,-11,8,4,-12,-9,-26,-13,-11,-3,-8
-4,-15,-10,9,3,-12,-8,-25,-13,-10,-3,-7
-5,-14,-9,10,2,-12,-8,-24,-12,-10,-3,-7
-5,-14,-9,9,2,-12,-7,-23,-12,-9,-2,-6
-4,-13,-9,8,2,-12,-7,-23,-12,-9,-2,-6
-2,-12,-9,7,3,-11,-6,-22,-11,-8,-2,-5
-1,-11,-9,6,4,-11,-5,-21,-10,-8,-1,-4
0,-10,-9,5,4,-10,-5,-20,-9,-7,-1,-4
0,-10,-9,5,4,-9,-4,-20,-9,-7,0,-3
0,-9,-9,5,4,-9,-3,-19,-8,-6,0,-3
0,-8,-8,4,4,-9,-2,-18,-8,-6,0,-2
0,-8,-8,4,4,-9,-2,-17,-8,-6,0,-2
0,-9,-9,5,4,-10,-2,-17,-8,-6,0,-3
-1,-10,-9,6,4,-11,-2,-16,-8,-6,0,-3
-1,-11,-9,6,4,-11,-2,-15,-7,-5,0,-2
-1,-11,-9,6,4,-11,-1,-14,-6,-5,0,-2
0,-9,-9,5,4,-10,-1,-13,-6,-4,1,-2
1,-8,-9,4,5,-10,0,-12,-5,-3,1,-1
2,-8,-9,3,6,-9,0,-12,-5,-2,2,-1
3,-7,-10,3,7,-9,0,-11,-4,-1,3,0
3,-7,-11,2,7,-10,1,-10,-3,-1,3,0
3,-8,-11,2,8,-10,1,-9,-2,-1,4,0
4,-7,-11,2,8,-9,2,-9,-2,0,4,1
5,-6,-11,0,8,-9,2,-8,-1,0,4,1
5,-6,-11,0,7,-8,2,-8,-1,0,4,1
3,-6,-10,1,6,-8,0,-9,-1,0,4,1
4,-4,-8,0,6,-7,-1,-9,-1,1,4,2
5,-2,-7,-1,6,-5,-1,-9,-1,2,5,3
5,0,-6,-2,5,-4,-2,-9,-1,2,5,3
4,0,-5,-2,5,-3,-2,-10,-1,2,5,3
3,-1,-4,-1,4,-3,-3,-10,-1,2,5,3
2,-2,-4,0,3,-4,-3,-11,-1,1,5,3
2,-3,-4,0,3,-4,-3,-11,-1,1,4,3
2,-3,-4,0,3,-4,-3,-12,-1,1,4,3
2,-3,-5,0,3,-4,-4,-12,-1,1,3,3
3,-3,-5,0,4,-4,-4,-12,-1,2,3,3
5,-2,-6,-1,5,-4,-4,-12,-1,2,3,4
6,-1,-6,-2,6,-4,-4,-13,-1,2,3,4
6,-1,-7,-2,7,-4,-5,-14,-1,1,3,4
6,-1,-7,-2,7,-5,-5,-15,-1,1,3,4
5,-2,-7,-1,6,-5,-6,-15,-1,1,3,4
3,-4,-7,1,5,-6,-6,-15,-1,1,3,4
2,-5,-7,1,5,-6,-6,-15,0,1,3,4
3,-5,-8,1,6,-7,-6,-15,0,1,2,4
3,-6,-9,2,6,-7,-6,-15,0,1,2,3
2,-7,-9,3,6,-8,-6,-14,0,2,2,3
2,-8,-9,3,6,-9,-5,-13,1,3,3,3
2,-7,-9,3,6,-9,-5,-12,2,3,3,3
2,-7,-10,3,6,-9,-4,-11,2,4,3,3
2,-8,-11,3,6,-10,-4,-11,2,3,3,3
3,-8,-12,3,7,-11,-4,-11,1,3,2,2
2,-11,-13,4,7,-12,-4,-12,0,1,0,1
-1,-14,-13,7,6,-14,-4,-13,-1,0,-1,0
-2,-17,-14,9,5,-15,-5,-14,-3,-2,-3,-2
-3,-18,-14,10,5,-16,-5,-16,-5,-4,-5,-4
-3,-18,-14,11,5,-17,-4,-16,-6,-5,-6,-6
-3,-18,-14,10,5,-17,-4,-16,-7,-6,-7,-7
-3,-18,-15,10,6,-17,-4,-17,-7,-6,-8,-7
-3,-18,-15,10,6,-17,-4,-17,-8,-7,-8,-8
-3,-17,-13,10,5,-15,-5,-18,-9,-7,-9,-8
-3,-15,-11,9,4,-13,-5,-19,-10,-8,-9,-9
-3,-14,-9,8,3,-11,-6,-19,-11,-9,-10,-9
-4,-13,-7,8,2,-10,-6,-19,-12,-10,-10,-10
-4,-12,-6,8,1,-9,-7,-19,-12,-10,-10,-11
-3,-11,-6,7,1,-8,-7,-19,-13,-10,-10,-11
-3,-10,-6,6,1,-8,-7,-19,-13,-11,-11,-12
-5,-11,-6,8,1,-8,-7,-20,-13,-12,-12,-13
-8,-13,-5,10,0,-9,-8,-20,-14,-12,-13,-14
-10,-15,-4,12,-2,-9,-7,-20,-14,-12,-13,-14
-9,-14,-4,11,-2,-9,-6,-19,-13,-12,-13,-13
-7,-13,-4,9,-1,-8,-6,-18,-13,-11,-12,-13
-7,-12,-3,9,-1,-8,-5,-18,-13,-11,-12,-13
-7,-12,-3,9,-1,-8,-5,-18,-13,-10,-11,-12
-7,-12,-4,9,0,-8,-5,-18,-13,-10,-11,-12
-6,-11,-5,8,0,-9,-5,-18,-13,-10,-11,-12
-6,-11,-6,8,0,-9,-4,-17,-12,-10,-11,-11
-6,-12,-6,9,0,-9,-3,-17,-12,-10,-11,-11
-7,-13,-6,10,0,-10,-3,-18,-13,-10,-11,-12
-7,-14,-5,10,0,-10,-3,-18,-14,-11,-11,-12
-7,-13,-5,10,-1,-9,-3,-18,-15,-11,-11,-12
-7,-13,-4,10,-1,-9,-3,-19,-15,-12,-12,-13
-7,-12,-4,10,-1,-9,-3,-19,-16,-12,-13,-13
-8,-13,-5,11,-1,-9,-3,-19,-16,-13,-14,-14
-9,-14,-5,12,-2,-10,-2,-19,-16,-14,-14,-15
-9,-14,-5,12,-2,-9,0,-17,-16,-14,-14,-16
-9,-15,-5,11,-1,-10,4,-15,-16,-15,-15,-17
-8,-15,-6,11,-1,-11,8,-13,-16,-16,-16,-18
-9,-17,-7,13,-1,-12,12,-10,-16,-16,-17,-19
-11,-19,-7,15,-2,-13,16,-5,-14,-16,-17,-20
-12,-20,-7,16,-2,-13,20,2,-10,-13,-16,-19
-11,-19,-7,15,-2,-13,24,10,-4,-9,-13,-17
-9,-16,-7,13,-1,-12,27,19,3,-3,-9,-13
-4,-10,-6,7,0,-8,30,27,12,5,-2,-7
1,-2,-4,0,2,-3,32,36,23,16,8,2
6,6,0,-6,3,3,35,45,35,28,19,13
11,16,4,-14,3,10,35,52,47,42,33,25
18,27,9,-23,4,18,30,57,60,57,48,40
26,39,13,-33,6,26,20,61,74,74,66,57
36,52,16,-44,10,34,6,66,88,93,84,75
46,65,18,-55,14,41,-11,69,102,111,102,92
55,78,22,-67,16,50,-32,67,114,128,120,109
63,93,30,-78,16,61,-55,60,122,143,136,126
68,108,40,-88,14,75,-80,48,130,156,152,141
71,124,54,-98,9,90,-104,35,137,170,168,156
71,143,72,-107,0,108,-125,23,147,184,183,171
69,163,95,-116,-12,130,-144,12,158,199,199,186
66,183,119,-124,-26,151,-161,2,169,214,213,200
61,199,138,-130,-38,168,-177,-14,175,223,223,211
56,205,149,-130,-46,177,-189,-34,174,225,226,215
51,197,147,-124,-48,172,-195,-48,168,218,219,209
45,179,134,-113,-44,157,-191,-53,159,205,203,192
40,156,116,-99,-38,137,-181,-52,147,187,182,169
34,134,100,-85,-32,117,-167,-51,132,166,158,144
25,111,87,-69,-30,99,-148,-55,107,136,128,116
13,89,76,-51,-31,82,-127,-67,70,96,92,84
2,68,66,-34,-31,66,-105,-78,33,57,56,54
-7,49,56,-20,-31,52,-85,-81,7,29,30,31
-13,33,46,-9,-30,39,-67,-77,-9,10,12,14
-17,20,37,-1,-27,28,-52,-70,-19,-1,0,3
-18,10,28,3,-24,19,-40,-63,-24,-8,-7,-4
-18,3,21,7,-20,11,-30,-55,-26,-13,-11,-9
-17,-3,14,9,-16,5,-22,-48,-27,-16,-15,-13
-17,-9,8,13,-13,-1,-16,-42,-28,-18,-19,-16
-18,-14,4,16,-11,-6,-11,-37,-28,-20,-21,-19
-18,-18,0,19,-9,-9,-6,-33,-28,-21,-23,-21
-18,-21,-2,20,-8,-11,-2,-29,-28,-21,-24,-22
-18,-23,-4,20,-7,-13,1,-26,-27,-21,-24,-23
-19,-25,-5,21,-7,-15,3,-24,-27,-21,-24,-24
-19,-27,-7,22,-6,-17,4,-23,-27,-22,-24,-24
-18,-30,-11,23,-4,-20,5,-23,-28,-23,-25,-26
-18,-32,-13,25,-2,-23,5,-22,-29,-24,-25,-27
-19,-34,-14,26,-2,-24,6,-21,-29,-25,-26,-28
-19,-34,-14,26,-2,-24,8,-20,-29,-25,-26,-28
-18,-33,-14,26,-1,-24,9,-19,-28,-24,-25,-28
-18,-33,-14,26,-2,-24,10,-18,-27,-24,-25,-28
-19,-34,-14,26,-3,-24,11,-18,-27,-24,-25,-28
-19,-34,-14,26,-2,-24,12,-17,-26,-24,-25,-28
-17,-34,-16,25,-1,-25,13,-17,-26,-24,-25,-28
-17,-34,-17,25,0,-25,13,-16,-26,-23,-26,-28
-17,-35,-17,26,0,-26,14,-16,-26,-23,-26,-28
-18,-35,-17,26,0,-26,15,-15,-26,-23,-27,-28
-17,-35,-17,26,0,-26,16,-15,-25,-22,-27,-28
-16,-34,-17,25,0,-26,16,-14,-24,-22,-27,-28
-16,-34,-17,25,0,-26,17,-14,-24,-22,-27,-28
-16,-34,-17,25,0,-26,17,-14,-24,-22,-27,-28
-16,-34,-17,25,0,-26,17,-13,-24,-21,-27,-28
-15,-33,-17,24,0,-25,17,-13,-23,-21,-27,-27
-15,-33,-17,24,1,-25,17,-13,-23,-21,-27,-27
-15,-33,-18,24,1,-25,17,-12,-23,-21,-27,-27
-15,-32,-18,24,1,-25,18,-12,-22,-21,-27,-27
-15,-32,-17,24,1,-25,18,-11,-22,-21,-27,-27
-14,-32,-18,23,2,-25,18,-11,-21,-21,-27,-27
-12,-31,-18,21,3,-25,18,-11,-20,-20,-27,-27
-11,-31,-19,20,4,-25,19,-11,-20,-19,-27,-27
-11,-31,-19,21,4,-25,18,-10,-20,-19,-27,-27
-13,-32,-19,22,4,-26,18,-10,-20,-19,-28,-28
-13,-33,-19,23,3,-26,19,-9,-20,-19,-28,-27
-13,-32,-19,22,3,-26,19,-8,-19,-19,-27,-27
-12,-31,-19,22,4,-26,19,-7,-18,-19,-27,-27
-12,-31,-20,22,4,-26,19,-6,-18,-19,-27,-27
-11,-31,-20,22,4,-26,19,-5,-18,-19,-27,-27
-11,-31,-20,21,4,-26,19,-4,-18,-18,-27,-27
-11,-31,-20,21,4,-26,19,-3,-17,-18,-27,-27
-11,-31,-20,21,4,-26,19,-2,-17,-17,-27,-27
-10,-31,-21,20,5,-26,19,-1,-17,-17,-27,-27
-10,-31,-21,20,6,-26,19,0,-16,-17,-27,-27
-11,-31,-21,21,5,-25,19,1,-16,-16,-27,-27
-11,-32,-20,21,5,-26,19,2,-15,-16,-26,-27
-11,-32,-20,21,4,-26,19,3,-15,-16,-26,-27
-11,-31,-20,20,4,-25,19,5,-14,-15,-26,-27
-10,-30,-19,20,4,-24,19,6,-13,-14,-25,-26
-10,-29,-19,19,4,-24,19,8,-12,-13,-24,-25
-9,-29,-19,19,4,-24,20,10,-11,-12,-24,-25
-9,-29,-19,19,4,-24,20,12,-10,-12,-23,-25
-9,-29,-19,19,5,-24,20,14,-9,-11,-23,-25
-8,-28,-19,18,5,-24,21,15,-8,-11,-23,-25
-8,-28,-20,18,6,-24,21,17,-7,-11,-23,-25
-8,-28,-20,18,6,-24,22,19,-5,-10,-22,-25
-9,-28,-19,18,5,-24,24,21,-3,-9,-21,-24
-10,-29,-19,19,5,-24,25,24,-2,-7,-20,-24
-9,-29,-20,19,5,-24,25,26,-1,-6,-20,-24
-9,-29,-20,19,6,-25,26,29,0,-6,-19,-24
-8,-29,-21,19,6,-25,26,31,1,-5,-18,-23
-7,-28,-21,18,7,-25,27,34,3,-4,-17,-22
-6,-27,-21,17,7,-24,27,37,5,-2,-15,-20
-5,-26,-20,16,7,-23,28,40,8,0,-13,-19
-4,-24,-20,14,8,-22,29,43,10,1,-11,-17
-3,-23,-19,13,8,-21,30,46,13,3,-10,-16
-4,-23,-19,13,8,-21,30,48,14,5,-9,-16
-4,-24,-20,14,8,-22,30,50,15,6,-9,-16
-4,-25,-21,14,8,-22,30,52,16,7,-8,-16
-2,-24,-21,13,9,-22,31,55,18,8,-7,-15
-1,-23,-21,12,10,-22,31,57,20,9,-6,-14
0,-23,-21,12,10,-22,32,59,22,11,-4,-13
0,-23,-21,12,11,-22,32,60,24,12,-3,-12
0,-22,-21,11,11,-22,31,62,26,14,-1,-11
0,-21,-21,11,11,-21,31,63,27,15,0,-10
1,-20,-21,10,11,-21,30,64,28,16,1,-9
1,-20,-21,10,11,-20,30,65,29,17,1,-8
2,-19,-21,9,11,-20,29,65,29,17,2,-7
3,-18,-21,7,12,-19,28,65,30,18,2,-7
5,-17,-21,6,12,-19,28,66,31,19,3,-6
6,-16,-21,5,13,-18,27,66,32,20,4,-6
6,-16,-21,5,13,-19,27,66,32,20,4,-5
4,-17,-21,6,13,-19,26,65,32,20,4,-5
3,-18,-22,7,13,-20,25,64,32,20,4,-5
4,-18,-22,7,13,-20,24,63,31,20,4,-4
4,-18,-22,7,13,-20,24,61,31,20,4,-4
4,-18,-22,7,13,-20,23,59,30,20,4,-4
4,-19,-22,7,12,-20,21,57,29,19,4,-4
4,-18,-22,7,12,-20,19,55,28,18,4,-4
5,-16,-21,6,13,-18,18,53,28,19,5,-3
5,-15,-20,5,13,-17,18,52,27,19,5,-3
5,-14,-19,4,12,-16,17,50,26,19,5,-2
6,-12,-18,3,12,-16,16,47,25,18,5,-2
6,-12,-18,3,12,-15,16,44,24,17,5,-1
6,-12,-17,3,12,-15,14,41,23,16,4,-1
6,-12,-17,3,11,-15,13,38,21,15,4,-1
6,-11,-17,3,11,-14,11,35,20,14,3,-1
6,-11,-17,3,11,-14,10,33,18,13,3,-1
5,-11,-17,3,11,-14,9,30,16,12,2,-1
5,-11,-16,3,11,-14,8,28,14,11,2,-1
5,-10,-16,3,11,-14,7,26,13,10,2,-1
5,-11,-16,3,11,-14,6,23,11,9,1,-2
4,-12,-16,4,10,-15,5,20,10,8,1,-2
4,-12,-16,4,10,-14,5,17,8,7,0,-3
4,-12,-15,4,9,-14,4,15,7,6,0,-3
4,-12,-15,4,9,-13,4,13,6,5,0,-3
4,-12,-15,4,9,-13,3,12,4,4,0,-3
4,-12,-15,4,9,-13,3,10,3,3,-1,-3
4,-12,-15,4,10,-14,2,9,1,2,-2,-4
4,-12,-15,4,10,-14,1,7,0,1,-3,-4
3,-12,-15,5,9,-14,1,6,0,0,-3,-4
2,-12,-14,5,8,-14,1,4,-1,0,-3,-4
1,-13,-14,5,8,-13,1,3,-2,0,-3,-5
0,-13,-13,6,7,-13,1,3,-3,0,-2,-5
0,-14,-13,7,6,-13,1,2,-4,0,-2,-5
0,-14,-13,7,6,-13,0,2,-5,-1,-2,-6
-1,-14,-13,8,6,-14,0,1,-6,-2,-2,-6
-2,-15,-12,8,5,-14,0,1,-7,-3,-2,-6
-3,-15,-12,9,5,-14,-1,0,-7,-4,-2,-6
-3,-15,-12,9,5,-14,-1,-1,-8,-4,-2,-7
-3,-15,-12,9,5,-14,-1,-1,-9,-4,-2,-7
-3,-16,-12,9,5,-14,-1,-2,-9,-5,-3,-8
-3,-16,-12,10,5,-15,-2,-3,-10,-5,-3,-8
-2,-16,-13,9,5,-15,-2,-3,-10,-5,-3,-8
-1,-15,-13,8,6,-14,-2,-3,-10,-5,-3,-8
-1,-14,-12,7,5,-13,-1,-3,-10,-5,-2,-8
-2,-14,-12,8,4,-13,-1,-3,-10,-6,-3,-9
-4,-15,-12,9,4,-13,-1,-3,-11,-7,-3,-9
-4,-16,-12,10,4,-14,-1,-4,-11,-7,-3,-9
-4,-17,-12,10,4,-14,-1,-4,-12,-7,-3,-9
-5,-17,-12,11,3,-14,-1,-4,-12,-7,-3,-9
-5,-17,-12,11,3,-14,0,-4,-12,-7,-3,-9
-5,-16,-12,11,3,-14,0,-4,-12,-7,-3,-9
-4,-15,-11,10,3,-13,0,-4,-12,-7,-2,-8
-4,-15,-11,9,4,-13,0,-4,-11,-6,-2,-8
-3,-14,-11,8,4,-13,1,-4,-11,-6,-1,-7
-2,-14,-11,8,5,-13,2,-4,-11,-6,-1,-7
-3,-16,-12,9,5,-14,2,-5,-11,-6,-1,-7
-5,-17,-12,11,4,-14,2,-6,-12,-6,-2,-8
-5,-18,-12,12,4,-15,2,-7,-12,-6,-2,-8
-5,-18,-12,12,4,-15,3,-7,-12,-6,-2,-8
-5,-17,-12,11,4,-15,3,-8,-12,-7,-2,-8
-5,-17,-12,11,4,-15,4,-8,-12,-7,-2,-8
-6,-16,-10,11,3,-14,4,-9,-12,-8,-2,-8
-7,-16,-9,11,2,-13,4,-10,-13,-8,-2,-8
-7,-16,-9,12,1,-13,5,-10,-13,-8,-2,-8
-6,-16,-9,11,2,-12,5,-11,-13,-7,-2,-8
-6,-15,-9,11,2,-12,5,-11,-13,-7,-2,-8
-5,-15,-9,10,2,-12,5,-11,-13,-7,-1,-8
-5,-15,-9,10,2,-12,5,-11,-13,-7,-1,-8
-7,-16,-9,11,1,-13,5,-13,-13,-7,-2,-9
-7,-16,-9,11,1,-13,5,-14,-13,-7,-2,-9
-6,-15,-9,10,1,-12,5,-14,-13,-7,-2,-8
-6,-16,-9,11,1,-12,5,-15,-13,-7,-2,-8
-7,-17,-9,12,1,-13,4,-16,-14,-7,-3,-8
-7,-17,-9,12,1,-13,4,-16,-14,-7,-3,-8
-7,-16,-8,12,1,-12,4,-17,-14,-7,-2,-7
-8,-16,-8,12,0,-12,4,-17,-14,-7,-2,-7
-8,-16,-7,12,0,-12,4,-18,-14,-8,-2,-7
-9,-17,-7,12,0,-12,4,-20,-15,-8,-3,-7
-10,-17,-7,13,-1,-12,3,-21,-15,-9,-3,-7
-9,-16,-7,12,0,-11,4,-21,-15,-8,-3,-6
-8,-15,-7,11,0,-11,4,-21,-15,-8,-3,-6
-8,-15,-7,11,0,-11,4,-21,-15,-8,-4,-6
-8,-16,-7,12,0,-11,3,-22,-16,-9,-4,-6
-9,-17,-7,13,0,-12,3,-23,-17,-9,-5,-7
-9,-17,-8,13,0,-13,3,-24,-17,-10,-5,-7
-9,-17,-8,12,0,-12,3,-24,-17,-10,-5,-7
-8,-16,-8,12,0,-12,4,-24,-17,-10,-5,-6
-7,-15,-8,11,0,-11,4,-24,-17,-10,-5,-6
-7,-15,-8,11,0,-11,4,-24,-17,-10,-5,-6
-7,-16,-9,11,0,-12,3,-24,-17,-10,-5,-6
-8,-17,-8,12,0,-12,3,-25,-18,-11,-6,-6
-10,-18,-8,13,0,-13,3,-25,-18,-11,-6,-6
-10,-19,-7,14,-1,-13,3,-25,-18,-11,-6,-6
-10,-18,-8,14,-1,-13,3,-25,-19,-12,-6,-6
-9,-18,-8,13,0,-13,3,-25,-19,-12,-6,-6
-9,-17,-8,13,0,-13,3,-25,-19,-13,-7,-6
-8,-17,-8,12,0,-13,2,-25,-19,-13,-7,-6
-8,-16,-7,12,0,-12,2,-25,-19,-13,-8,-6
-8,-15,-7,11,0,-11,2,-25,-19,-13,-8,-6
-8,-15,-6,11,-1,-11,2,-24,-19,-13,-8,-6
-9,-16,-6,12,-1,-11,2,-24,-19,-13,-8,-6
-9,-17,-6,12,-1,-12,2,-23,-20,-13,-8,-6
-10,-17,-6,13,-1,-12,2,-23,-20,-14,-8,-7
-10,-18,-6,14,-1,-12,2,-22,-20,-14,-8,-7
-10,-18,-6,14,-1,-12,2,-21,-20,-14,-8,-7
-10,-17,-6,13,-1,-12,2,-20,-20,-14,-8,-7
-9,-16,-6,12,-1,-11,2,-19,-20,-13,-7,-6
-9,-15,-5,11,-1,-10,3,-18,-19,-12,-7,-5
-8,-14,-5,10,-1,-10,3,-16,-18,-12,-6,-4
-8,-13,-4,10,-1,-9,4,-15,-17,-12,-5,-3
-7,-13,-5,10,0,-9,4,-14,-17,-11,-5,-3
-6,-12,-5,9,0,-9,5,-13,-16,-11,-4,-3
-5,-11,-5,8,0,-8,5,-11,-15,-10,-3,-2
-5,-11,-5,7,0,-8,6,-10,-15,-9,-2,-2
-4,-10,-5,7,0,-8,6,-9,-14,-8,-2,-1
-4,-10,-5,7,0,-8,6,-8,-14,-8,-1,-1
-4,-10,-5,7,1,-8,6,-7,-13,-7,-1,-1
-3,-10,-6,6,2,-8,6,-7,-13,-7,0,0
-2,-8,-6,5,3,-7,6,-6,-12,-6,0,0
-2,-7,-5,4,2,-6,7,-5,-11,-5,0,1
-2,-7,-5,4,2,-6,7,-4,-10,-4,1,1
-2,-7,-5,4,2,-6,7,-3,-10,-4,1,2
-2,-8,-5,5,2,-7,7,-3,-9,-4,1,2
-2,-8,-5,5,2,-7,7,-2,-9,-3,2,2
-2,-7,-5,4,1,-6,7,-2,-9,-3,2,2
-2,-7,-4,4,1,-6,6,-2,-8,-3,3,2
-2,-6,-4,4,1,-5,5,-2,-8,-3,3,3
-2,-5,-3,4,1,-4,4,-3,-8,-2,3,3
-1,-4,-2,3,1,-3,3,-4,-8,-2,3,4
-1,-3,-1,2,1,-2,3,-5,-8,-2,3,4
-1,-2,-1,2,0,-2,2,-6,-8,-2,2,4
-1,-2,-1,2,0,-2,1,-7,-9,-2,2,4
-2,-3,-1,2,0,-2,1,-8,-9,-2,1,4
-1,-2,-1,1,0,-1,1,-8,-9,-2,1,4
0,-1,-1,1,0,-1,1,-9,-9,-2,1,4
0,-1,0,1,0,-1,0,-9,-9,-2,1,4
-1,-1,0,1,-1,-1,0,-10,-10,-2,1,4
-1,-1,0,1,-1,-1,0,-11,-10,-2,0,4
-1,0,0,0,0,0,0,-11,-10,-2,0,4
0,0,0,0,0,0,-1,-12,-10,-2,0,4
0,0,0,0,0,0,-1,-13,-10,-3,0,4
0,-1,0,1,0,0,-1,-14,-10,-3,0,4
0,-1,0,1,0,-1,-1,-14,-10,-3,0,4
0,-1,-1,1,0,-1,-1,-14,-10,-3,0,4
0,-1,-1,1,0,-1,-1,-14,-11,-3,0,4
0,-2,-2,1,0,-2,-1,-14,-11,-4,0,4
-1,-3,-2,2,0,-3,0,-14,-11,-4,1,4
-2,-5,-3,3,0,-4,0,-13,-10,-3,1,4
-3,-6,-3,5,0,-5,0,-12,-10,-3,2,4
-3,-7,-4,5,0,-5,0,-11,-10,-3,2,4
-1,-7,-5,4,2,-6,1,-11,-10,-3,1,4
0,-8,-6,4,3,-7,1,-11,-10,-3,1,4
-1,-10,-7,6,2,-9,1,-11,-11,-4,0,3
-4,-14,-8,9,1,-11,1,-12,-13,-6,-1,1
-6,-16,-9,11,0,-12,1,-13,-14,-8,-3,0
-7,-17,-9,12,0,-13,1,-14,-16,-9,-5,-1
-8,-18,-9,13,0,-14,2,-14,-17,-11,-6,-2
-10,-20,-10,15,0,-15,1,-15,-19,-12,-8,-4
-11,-21,-10,16,0,-15,1,-15,-19,-13,-9,-5
-11,-21,-10,16,0,-15,1,-15,-19,-13,-9,-5
-11,-21,-10,16,0,-15,1,-14,-19,-13,-9,-5
-11,-22,-10,16,0,-16,1,-14,-19,-13,-9,-5
-12,-22,-10,17,0,-17,1,-14,-19,-13,-10,-5
-11,-22,-11,16,0,-17,1,-13,-20,-13,-10,-5
-10,-22,-11,16,0,-16,1,-13,-20,-13,-10,-5
-10,-21,-10,16,0,-16,1,-12,-20,-13,-10,-5
-11,-21,-10,16,0,-16,1,-12,-19,-13,-10,-5
-12,-21,-9,16,-1,-16,1,-11,-19,-13,-10,-5
-12,-22,-9,17,-1,-16,1,-11,-19,-13,-10,-5
-13,-23,-9,18,-1,-17,1,-10,-19,-13,-10,-5
-14,-24,-9,18,-1,-17,1,-10,-19,-13,-10,-5
-13,-25,-10,18,-1,-18,1,-9,-19,-13,-10,-5
-13,-25,-10,18,-1,-18,1,-9,-19,-13,-10,-5
-12,-24,-11,18,0,-18,2,-9,-19,-13,-10,-5
-11,-23,-11,17,0,-18,2,-8,-19,-13,-10,-5
-11,-23,-11,16,0,-18,2,-7,-19,-13,-10,-5
-11,-23,-11,17,0,-18,2,-7,-19,-14,-10,-6
-12,-23,-11,18,0,-18,2,-8,-19,-14,-10,-6
-13,-24,-11,18,0,-18,2,-8,-19,-14,-10,-6
-13,-24,-11,19,-1,-17,2,-9,-20,-15,-10,-7
-13,-24,-10,19,-1,-17,2,-9,-20,-15,-10,-7
-13,-24,-10,18,-1,-17,2,-9,-20,-15,-10,-7
-13,-24,-10,18,-1,-17,2,-9,-20,-15,-10,-7
-14,-24,-10,19,-1,-17,2,-9,-21,-16,-11,-7
-14,-25,-11,20,-1,-18,3,-9,-21,-16,-12,-8
-15,-27,-11,21,-1,-19,5,-8,-22,-17,-13,-9
-16,-28,-12,22,-1,-20,8,-7,-22,-18,-14,-10
-16,-29,-12,23,-1,-21,11,-5,-22,-19,-15,-11
-16,-30,-13,23,-1,-21,16,-2,-22,-19,-15,-12
-15,-30,-14,22,0,-22,21,2,-19,-18,-15,-13
-14,-30,-15,22,0,-22,25,10,-15,-15,-14,-12
-12,-29,-16,21,1,-22,30,18,-10,-11,-11,-11
-11,-26,-15,19,2,-21,34,27,-2,-5,-6,-7
-8,-22,-14,15,3,-18,37,36,6,2,1,-1
-4,-15,-11,10,4,-13,39,44,17,12,11,7
1,-7,-9,3,5,-8,41,52,29,24,22,17
8,3,-6,-5,7,-1,41,59,40,38,35,30
16,14,-2,-15,9,6,37,63,52,52,50,44
24,26,2,-25,10,14,27,66,65,69,67,61
33,39,5,-36,14,22,13,70,79,87,85,79
44,52,7,-48,18,30,-2,72,93,105,104,96
55,66,11,-61,22,39,-21,71,105,122,121,113
65,82,18,-73,24,50,-44,64,114,137,138,129
71,99,28,-85,22,63,-68,53,122,150,153,145
75,116,41,-96,17,79,-92,41,131,164,168,161
76,135,60,-106,9,97,-114,30,141,180,184,177
75,156,82,-116,-3,119,-134,21,154,196,200,193
71,176,106,-123,-17,141,-152,11,166,211,215,207
65,191,127,-127,-31,159,-169,-3,173,221,227,219
59,198,140,-128,-40,169,-183,-23,174,224,232,223
54,194,140,-123,-42,166,-188,-38,170,220,228,218
49,178,129,-114,-39,153,-185,-42,163,209,214,203
43,157,114,-100,-35,135,-175,-41,154,193,194,182
37,135,98,-86,-30,116,-161,-38,141,173,171,158
28,112,85,-70,-28,99,-143,-42,118,146,143,130
15,88,74,-51,-29,81,-123,-55,81,105,106,97
3,66,64,-34,-30,65,-102,-70,40,63,70,65
-7,47,55,-20,-30,51,-81,-75,11,32,43,41
-13,33,46,-9,-29,40,-63,-72,-7,11,24,23
-16,20,37,-2,-27,29,-48,-66,-18,-2,11,11
-18,11,29,3,-23,20,-37,-59,-24,-10,3,3
-18,3,22,7,-20,13,-27,-51,-27,-14,-2,-2
-18,-2,16,10,-17,7,-19,-43,-28,-17,-6,-6
-17,-7,10,12,-14,2,-11,-37,-29,-19,-8,-8
-17,-12,5,14,-10,-3,-6,-31,-30,-21,-11,-11
-16,-17,0,16,-7,-8,-1,-27,-30,-23,-13,-14
-15,-20,-4,17,-5,-12,2,-23,-30,-24,-15,-15
-15,-22,-7,19,-3,-15,5,-21,-30,-25,-16,-16
-16,-25,-9,20,-3,-17,6,-20,-30,-25,-17,-17
-17,-27,-10,22,-3,-18,8,-18,-30,-26,-17,-18
-17,-29,-10,23,-3,-19,9,-17,-31,-26,-18,-18
-18,-30,-11,24,-3,-20,9,-17,-31,-26,-19,-19
-19,-31,-11,25,-3,-21,10,-16,-32,-27,-20,-20
-19,-32,-12,26,-3,-22,11,-15,-32,-28,-21,-20
-20,-32,-12,26,-3,-22,12,-14,-31,-28,-21,-20
-20,-32,-12,26,-3,-22,13,-13,-31,-27,-21,-20
-19,-31,-11,25,-3,-21,13,-12,-30,-27,-20,-20
-18,-30,-11,24,-2,-21,13,-12,-30,-26,-20,-20
-17,-29,-11,23,-2,-21,13,-11,-29,-26,-20,-20
-16,-29,-12,22,-2,-21,14,-11,-29,-26,-20,-20
-15,-28,-13,21,0,-21,14,-10,-29,-26,-20,-20
-14,-28,-14,21,1,-21,15,-10,-29,-26,-20,-20
-16,-31,-14,23,0,-22,15,-10,-29,-27,-20,-20
-19,-34,-14,26,-1,-24,15,-11,-29,-27,-21,-21
-21,-35,-15,28,-2,-25,15,-11,-29,-27,-21,-21
-21,-35,-15,28,-2,-24,15,-11,-28,-27,-20,-20
-20,-34,-14,27,-2,-24,15,-11,-28,-26,-20,-20
-20,-34,-14,27,-2,-24,15,-11,-28,-27,-20,-20
-19,-34,-14,27,-2,-24,15,-12,-28,-27,-21,-21
-18,-33,-14,26,-2,-24,15,-11,-28,-27,-21,-21
-16,-32,-15,24,0,-24,16,-10,-27,-27,-21,-21
-15,-31,-15,23,0,-23,16,-10,-27,-27,-21,-20
-16,-31,-14,24,0,-23,16,-9,-26,-27,-20,-20
-17,-32,-14,24,0,-23,16,-9,-26,-27,-20,-20
-17,-32,-14,24,0,-23,15,-10,-26,-27,-20,-20
-17,-32,-14,24,-1,-23,14,-10,-26,-26,-20,-20
-18,-32,-13,25,-2,-23,14,-9,-26,-26,-20,-19
-19,-33,-12,26,-3,-23,14,-8,-26,-26,-20,-19
-20,-33,-12,26,-3,-23,14,-7,-25,-25,-20,-19
-19,-32,-12,26,-2,-23,14,-6,-25,-25,-20,-19
-18,-32,-13,25,-2,-23,14,-5,-25,-24,-20,-19
-18,-31,-13,24,-1,-22,15,-4,-24,-24,-20,-19
-17,-31,-13,23,0,-22,15,-3,-24,-23,-20,-18
-16,-31,-14,23,0,-22,15,-2,-23,-23,-20,-18
-17,-32,-15,24,0,-23,15,-1,-23,-22,-21,-18
-17,-32,-15,24,0,-23,16,0,-22,-22,-21,-18
-17,-32,-15,25,0,-23,15,0,-22,-22,-22,-18
-17,-33,-16,25,0,-24,15,1,-22,-22,-22,-19
-16,-33,-16,25,1,-25,15,2,-22,-22,-22,-18
-16,-32,-16,24,1,-24,15,3,-21,-21,-21,-18
-14,-30,-15,22,1,-23,16,5,-20,-20,-21,-17
-14,-29,-14,22,0,-21,16,7,-19,-20,-21,-16
-15,-29,-13,23,0,-21,16,9,-18,-19,-21,-15
-16,-29,-13,23,-1,-20,16,10,-17,-19,-20,-15
-16,-29,-13,23,-1,-20,16,12,-16,-19,-20,-15
-16,-29,-13,22,-1,-20,17,13,-15,-18,-20,-15
-15,-28,-13,22,-1,-20,17,15,-14,-18,-20,-15
-15,-28,-13,22,0,-20,18,17,-13,-17,-19,-15
-15,-28,-13,22,0,-20,19,19,-11,-16,-19,-14
-15,-28,-13,22,0,-20,20,22,-10,-15,-19,-14
-14,-27,-13,21,0,-20,22,25,-8,-14,-18,-13
-13,-27,-14,20,1,-20,23,28,-7,-13,-17,-13
-11,-26,-14,19,2,-20,24,31,-5,-12,-17,-12
-11,-26,-14,18,2,-20,24,33,-3,-11,-16,-12
-11,-27,-14,19,2,-20,25,36,-2,-10,-16,-11
-12,-27,-14,20,1,-21,25,38,-1,-9,-16,-11
-12,-27,-15,19,2,-21,26,40,0,-7,-15,-10
-11,-26,-15,18,2,-20,27,44,2,-6,-14,-9
-10,-25,-15,17,3,-20,27,47,4,-4,-13,-8
-9,-24,-16,16,3,-20,27,49,6,-3,-12,-7
-8,-24,-16,16,4,-20,28,52,7,-1,-11,-7
-7,-24,-16,15,4,-20,28,55,9,0,-10,-6
-6,-24,-16,15,5,-20,29,57,11,1,-9,-5
-5,-24,-18,14,7,-21,29,59,13,3,-8,-4
-4,-23,-19,13,8,-21,29,61,15,5,-7,-3
-3,-22,-18,12,8,-20,29,62,16,7,-5,-2
-4,-22,-18,12,7,-20,28,64,18,8,-4,0
-4,-22,-18,12,7,-20,28,64,19,9,-3,0
-2,-21,-18,11,8,-20,27,65,20,10,-2,1
-1,-19,-17,10,9,-19,27,65,21,11,-2,2
-1,-18,-16,10,8,-18,26,66,21,11,-1,2
-1,-18,-16,10,8,-17,26,66,22,12,-1,3
-1,-17,-16,9,8,-17,25,66,22,13,-1,3
-1,-17,-16,8,9,-17,24,65,23,13,0,4
0,-17,-17,8,9,-18,23,64,23,14,0,4
1,-17,-18,7,10,-18,22,64,23,14,0,4
3,-16,-19,6,11,-17,21,63,23,14,0,5
4,-15,-18,5,11,-17,20,62,23,14,0,5
3,-16,-18,6,10,-16,20,60,22,14,0,5
2,-16,-17,7,10,-16,19,58,22,14,0,5
2,-16,-17,7,9,-16,19,56,22,14,0,5
1,-15,-16,7,9,-16,18,54,21,14,1,5
2,-14,-16,6,9,-15,17,52,21,14,1,5
2,-13,-15,5,9,-14,16,50,20,14,1,6
3,-12,-14,3,9,-13,14,47,19,13,1,6
4,-11,-14,2,9,-12,13,45,18,13,1,6
4,-10,-14,2,9,-12,11,42,16,12,1,6
5,-10,-14,2,9,-12,10,39,14,11,1,7
5,-10,-14,2,10,-12,9,36,13,11,0,7
5,-10,-14,2,10,-12,8,33,12,10,0,7
4,-10,-14,2,9,-12,7,31,10,9,-1,7
4,-9,-13,2,9,-11,6,28,9,8,-2,7
5,-8,-12,0,9,-10,6,26,8,7,-2,7
6,-6,-12,0,9,-9,5,24,7,7,-2,8
6,-6,-13,0,9,-9,4,22,5,6,-2,8
5,-7,-13,0,9,-10,3,19,3,4,-3,7
6,-8,-13,0,10,-10,2,17,2,3,-3,7
7,-7,-13,0,10,-10,1,15,1,3,-3,7
8,-6,-14,-1,11,-10,1,14,0,2,-3,7
9,-5,-14,-1,12,-9,1,13,0,2,-4,8
7,-7,-14,0,11,-10,1,11,-1,0,-5,7
5,-10,-14,2,10,-12,0,8,-3,-1,-7,6
3,-11,-14,4,9,-12,-1,6,-5,-2,-8,5
2,-11,-13,4,8,-12,-1,5,-6,-3,-8,5
1,-11,-11,5,7,-11,-1,4,-6,-3,-9,4
2,-10,-11,4,6,-11,-1,3,-7,-4,-9,4
3,-8,-11,2,7,-10,-1,3,-8,-4,-9,4
4,-8,-12,2,8,-10,-1,2,-9,-5,-9,3
3,-9,-12,3,8,-11,-1,1,-10,-6,-10,3
3,-9,-12,3,8,-10,-1,0,-11,-6,-10,3
5,-7,-11,1,8,-9,-1,0,-11,-6,-10,3
5,-6,-11,0,8,-8,0,-1,-11,-6,-10,3
4,-6,-10,1,7,-8,0,-1,-11,-6,-10,3
3,-7,-10,2,6,-8,0,-2,-12,-7,-11,3
2,-8,-10,3,6,-9,0,-2,-12,-7,-12,2
1,-10,-10,4,6,-10,0,-2,-13,-8,-13,2
0,-11,-11,5,6,-11,0,-2,-13,-8,-13,1
0,-12,-11,6,6,-11,0,-2,-13,-8,-13,1
0,-12,-11,6,6,-12,1,-2,-12,-8,-13,1
0,-13,-11,6,6,-12,2,-2,-12,-8,-12,1
-1,-13,-11,7,6,-12,2,-3,-13,-8,-12,1
0,-12,-11,6,6,-12,2,-3,-13,-8,-12,1
0,-10,-11,5,6,-11,3,-3,-13,-8,-11,1
1,-9,-11,4,6,-10,4,-4,-13,-7,-10,2
2,-8,-10,3,6,-9,4,-4,-13,-7,-9,2
2,-7,-9,2,5,-8,4,-5,-13,-7,-9,3
1,-7,-9,2,5,-8,4,-5,-13,-7,-9,3
1,-7,-8,2,5,-8,4,-6,-13,-7,-10,2
1,-7,-8,2,5,-8,4,-7,-13,-8,-11,1
3,-6,-9,1,5,-7,6,-7,-13,-8,-11,1
3,-5,-9,1,6,-7,7,-7,-13,-8,-11,1
2,-7,-9,2,6,-8,8,-7,-13,-8,-12,1
0,-9,-10,4,5,-9,9,-7,-14,-9,-12,1
-1,-11,-10,5,5,-10,9,-8,-14,-9,-13,0
-1,-12,-10,6,5,-11,9,-9,-14,-9,-13,0
-2,-12,-10,7,5,-11,9,-9,-14,-9,-12,0
-1,-12,-10,7,5,-11,9,-9,-13,-8,-12,1
0,-10,-9,5,5,-10,9,-9,-13,-8,-12,1
1,-9,-9,4,5,-9,9,-10,-13,-8,-12,1
1,-8,-9,3,6,-8,9,-11,-14,-8,-12,1
1,-7,-9,3,5,-8,9,-11,-14,-8,-12,1
1,-7,-8,2,5,-8,10,-12,-13,-7,-12,1
1,-7,-7,2,4,-7,10,-12,-13,-7,-12,1
0,-7,-7,3,4,-7,11,-12,-13,-7,-12,1
0,-8,-7,4,3,-7,11,-12,-13,-7,-13,1
-1,-8,-7,5,3,-8,11,-13,-13,-7,-13,1
-2,-9,-7,5,3,-8,11,-14,-14,-7,-14,2
-2,-8,-6,5,2,-7,11,-15,-14,-7,-14,2
-3,-8,-6,6,2,-7,11,-16,-14,-8,-15,2
-4,-9,-5,7,1,-7,11,-16,-14,-8,-15,2
-4,-9,-5,6,0,-7,11,-17,-14,-8,-16,2
-3,-8,-5,6,1,-6,11,-17,-14,-8,-16,2
-3,-9,-5,6,1,-6,11,-18,-14,-9,-17,1
-4,-9,-5,6,1,-6,11,-18,-14,-9,-17,1
-3,-9,-5,6,1,-6,11,-18,-14,-9,-18,1
-2,-8,-5,5,1,-6,11,-18,-15,-9,-18,1
-2,-8,-5,5,1,-6,11,-19,-15,-9,-19,1
-3,-8,-5,5,1,-6,11,-19,-15,-9,-19,1
-3,-8,-5,5,1,-6,11,-20,-15,-9,-19,1
-3,-8,-5,5,1,-6,11,-20,-16,-9,-19,1
-2,-7,-5,5,1,-6,11,-20,-16,-9,-19,1
-2,-7,-4,5,1,-5,11,-20,-16,-9,-19,1
-3,-7,-4,5,0,-5,10,-20,-16,-10,-20,1
-3,-6,-3,5,0,-5,10,-20,-17,-10,-20,1
-3,-7,-3,6,0,-5,9,-20,-17,-10,-20,1
-5,-8,-3,7,0,-6,8,-20,-18,-11,-20,0
-6,-9,-3,7,0,-6,8,-21,-18,-11,-20,0
-5,-9,-3,7,0,-6,8,-21,-18,-11,-21,0
-4,-8,-3,5,0,-5,8,-21,-18,-11,-21,0
-4,-7,-4,5,0,-5,8,-21,-19,-12,-22,0
-4,-7,-4,5,1,-6,7,-21,-19,-12,-22,0
-4,-7,-4,6,1,-6,7,-20,-20,-12,-23,0
-4,-7,-3,6,0,-6,8,-20,-20,-13,-23,0
-2,-6,-3,5,1,-5,8,-19,-20,-13,-23,0
-1,-5,-4,4,2,-5,9,-18,-20,-12,-23,0
-2,-6,-4,4,1,-5,9,-17,-20,-12,-23,-1
-3,-7,-4,5,0,-6,9,-17,-21,-13,-23,-1
-4,-7,-4,6,0,-6,9,-17,-21,-13,-23,-1
-3,-7,-5,5,0,-6,9,-16,-20,-12,-23,0
-2,-6,-5,5,1,-6,9,-16,-20,-12,-22,0
-1,-6,-4,4,1,-5,9,-16,-19,-12,-22,0
-1,-5,-4,4,1,-4,10,-15,-19,-12,-22,1
-2,-5,-3,4,0,-4,10,-14,-19,-12,-21,1
-2,-4,-2,4,0,-3,11,-12,-18,-11,-21,1
-2,-3,-2,3,0,-3,12,-11,-17,-10,-20,2
-2,-2,-1,3,0,-2,12,-10,-16,-9,-20,2
-2,-1,-1,2,0,-1,13,-9,-15,-8,-19,3
-1,0,0,1,0,0,13,-9,-14,-7,-17,4
0,0,0,0,0,0,13,-8,-14,-7,-16,4
0,0,0,0,0,0,14,-7,-14,-6,-16,5
0,0,0,0,0,0,14,-6,-13,-6,-16,5
1,0,0,0,1,0,13,-6,-13,-6,-16,5
2,0,0,-1,1,0,13,-5,-12,-6,-16,5
2,1,0,-1,1,0,14,-4,-12,-5,-16,5
2,2,0,-2,1,1,14,-4,-11,-4,-16,6
2,3,0,-2,2,1,14,-3,-11,-4,-15,6
4,4,0,-4,2,2,14,-3,-10,-3,-15,6
4,5,0,-4,2,2,14,-2,-9,-3,-15,7
4,5,0,-4,2,2,15,-1,-8,-2,-14,7
4,4,0,-4,2,2,15,-1,-8,-2,-14,8
4,4,0,-4,2,2,15,0,-8,-2,-13,8
4,5,1,-4,1,3,15,0,-7,-1,-12,8
5,7,1,-5,1,4,14,0,-7,0,-11,9
6,8,2,-6,2,5,14,0,-6,0,-10,9
6,8,2,-7,2,5,14,0,-6,0,-10,9
6,8,1,-7,2,5,13,0,-6,0,-11,8
8,9,1,-8,3,5,13,-1,-6,0,-11,8
9,11,1,-10,4,5,12,-1,-5,0,-10,9
8,10,2,-9,3,6,11,-2,-5,0,-9,9
6,9,2,-7,1,5,10,-3,-6,0,-9,9
5,8,2,-6,1,5,9,-4,-7,0,-9,9
5,8,2,-6,1,5,8,-5,-7,0,-9,9
6,9,2,-7,2,6,7,-5,-8,-1,-9,9
7,10,2,-8,2,6,7,-6,-8,-1,-9,9
8,11,2,-9,2,7,6,-6,-7,-1,-9,9
8,12,4,-10,2,8,6,-6,-7,-1,-9,9
8,14,5,-11,1,9,6,-6,-7,-1,-8,9
10,16,6,-13,2,10,6,-5,-7,0,-8,10
10,15,5,-13,3,10,6,-5,-7,0,-8,10
8,12,4,-10,2,8,6,-6,-8,-1,-9,9
5,9,4,-7,0,6,7,-6,-8,-1,-10,8
4,7,3,-5,0,5,8,-5,-8,-1,-10,8
3,6,2,-4,0,4,8,-4,-7,-1,-9,7
4,6,2,-4,0,3,9,-3,-6,-1,-8,7
4,5,1,-4,1,3,10,-1,-6,-1,-8,7
4,4,0,-4,2,2,10,-1,-6,-1,-7,7
6,4,-1,-5,4,1,11,0,-6,-1,-7,7
7,4,-2,-6,5,1,11,0,-6,-1,-7,7
5,2,-3,-3,5,0,11,-1,-7,-2,-7,7
1,-1,-3,0,3,-2,10,-2,-9,-4,-8,5
0,-3,-4,2,2,-4,10,-4,-11,-6,-10,3
0,-5,-4,2,3,-5,10,-5,-13,-9,-12,1
-1,-6,-5,3,2,-6,10,-7,-15,-11,-14,-1
-2,-8,-5,5,2,-7,10,-8,-16,-13,-15,-3
-3,-9,-5,6,2,-7,10,-8,-16,-13,-16,-4
-3,-9,-6,6,2,-7,11,-7,-15,-12,-16,-4
-4,-10,-6,7,2,-8,11,-6,-14,-11,-15,-3
-4,-11,-7,8,2,-9,11,-5,-14,-10,-15,-3
-4,-12,-8,8,2,-9,11,-5,-14,-10,-14,-2
-5,-12,-8,8,1,-9,11,-5,-14,-10,-13,-2
-5,-12,-7,8,1,-9,11,-5,-14,-10,-13,-1
-5,-12,-7,8,1,-9,10,-5,-14,-11,-13,-1
-5,-13,-8,9,2,-10,10,-5,-15,-11,-14,-2
-5,-14,-8,9,2,-11,10,-5,-15,-11,-14,-2
-5,-13,-8,9,3,-11,10,-4,-14,-11,-14,-2
-4,-13,-8,9,3,-11,10,-4,-14,-11,-14,-2
-4,-13,-8,9,2,-11,10,-3,-14,-11,-14,-2
-4,-13,-8,9,2,-11,10,-3,-14,-11,-14,-2
-4,-13,-9,9,3,-11,10,-3,-14,-11,-14,-2
-4,-14,-9,9,3,-11,10,-3,-15,-11,-14,-3
-5,-14,-9,10,2,-11,10,-3,-15,-11,-14,-3
-6,-14,-8,10,2,-11,11,-2,-14,-10,-13,-2
-6,-13,-7,9,2,-10,12,-2,-14,-9,-13,-2
-6,-14,-7,9,1,-10,12,-2,-14,-9,-13,-2
-6,-14,-8,10,1,-11,11,-2,-14,-9,-13,-2
-5,-14,-8,9,1,-11,11,-2,-14,-9,-12,-2
-4,-13,-8,8,2,-11,12,-2,-14,-9,-12,-2
-4,-13,-8,8,2,-11,13,-2,-14,-9,-12,-2
-6,-14,-8,10,1,-11,14,-2,-14,-10,-12,-3
-6,-16,-9,11,2,-13,14,-3,-16,-11,-14,-5
-6,-18,-11,12,3,-14,14,-2,-16,-12,-15,-6
-7,-19,-12,13,3,-15,16,-1,-16,-12,-16,-7
-7,-20,-13,13,3,-16,19,0,-16,-13,-18,-9
-7,-21,-13,14,3,-17,23,2,-16,-13,-19,-10
-8,-21,-12,14,2,-16,28,6,-15,-13,-20,-10
-8,-20,-12,14,2,-16,33,11,-12,-12,-19,-10
-7,-20,-12,14,2,-16,37,18,-8,-10,-17,-9
-7,-20,-12,14,3,-16,41,26,-2,-6,-14,-7
-6,-17,-10,11,3,-13,44,34,5,1,-9,-3
-2,-10,-8,6,4,-9,46,43,15,10,-1,4
3,-2,-6,-1,5,-4,48,52,27,21,8,13
9,6,-2,-8,6,2,50,61,40,34,20,25
14,16,2,-15,6,9,49,69,53,48,34,38
22,27,6,-25,8,17,44,75,67,65,51,54
32,40,9,-36,11,25,35,80,82,83,70,72
42,53,12,-48,16,33,22,86,98,103,90,90
52,66,14,-59,19,40,6,91,113,122,108,107
61,79,18,-70,21,49,-14,89,125,138,125,124
70,95,25,-83,22,61,-36,81,134,153,141,140
75,112,37,-94,19,75,-59,69,142,166,156,155
76,130,54,-103,11,92,-81,56,150,180,171,170
74,149,75,-112,0,112,-102,43,160,193,186,185
70,170,100,-120,-15,135,-121,32,171,208,202,200
66,189,124,-127,-29,157,-138,19,180,220,215,213
62,203,142,-132,-40,173,-154,1,183,226,224,221
57,205,149,-130,-46,177,-167,-19,180,225,224,222
50,192,142,-121,-46,168,-171,-31,172,215,213,211
43,170,127,-107,-42,149,-167,-34,162,200,195,191
37,147,109,-92,-36,129,-156,-32,150,182,173,167
31,124,92,-78,-31,108,-142,-31,133,159,148,141
23,101,78,-62,-27,89,-124,-38,103,125,116,111
13,79,66,-46,-26,72,-104,-54,62,83,79,78
3,58,56,-31,-26,57,-84,-66,26,46,46,50
-4,41,46,-18,-25,44,-65,-68,2,21,22,29
-8,28,37,-9,-23,33,-49,-64,-12,5,7,15
-12,17,29,-2,-21,23,-35,-58,-20,-5,-4,5
-14,8,22,3,-19,15,-25,-50,-24,-11,-10,0
-15,1,15,6,-16,8,-16,-43,-27,-15,-15,-4
-15,-5,10,10,-13,2,-9,-37,-29,-19,-19,-8
-16,-11,5,14,-11,-3,-3,-32,-30,-22,-22,-12
-17,-16,1,16,-9,-7,2,-27,-30,-23,-24,-14
-17,-19,-1,18,-8,-10,7,-22,-29,-23,-25,-15
-18,-22,-3,20,-7,-12,11,-19,-28,-23,-26,-16
-17,-23,-5,20,-6,-14,14,-16,-27,-23,-28,-17
-17,-24,-6,21,-6,-15,16,-14,-27,-23,-29,-18
-18,-26,-8,22,-5,-17,17,-13,-28,-24,-30,-19
-18,-28,-11,23,-4,-20,18,-12,-28,-24,-32,-20
-16,-29,-12,22,-2,-21,19,-11,-29,-24,-32,-21
-15,-29,-13,22,-1,-21,20,-10,-29,-24,-33,-22
-15,-30,-14,23,0,-22,21,-9,-29,-24,-34,-23
-15,-31,-15,23,0,-23,21,-9,-29,-24,-34,-24
-15,-31,-16,23,1,-23,22,-8,-28,-24,-35,-23
-14,-31,-17,22,1,-23,23,-7,-28,-24,-35,-23
-15,-31,-17,22,1,-23,23,-7,-27,-24,-35,-23
-15,-31,-16,23,0,-23,24,-6,-27,-23,-35,-22
-16,-32,-16,23,0,-24,24,-6,-26,-23,-35,-22
-16,-33,-16,24,0,-24,25,-6,-27,-23,-36,-23
-16,-33,-16,24,0,-25,25,-5,-27,-23,-36,-23
-15,-33,-17,24,1,-25,25,-5,-26,-23,-36,-23
-14,-32,-17,23,1,-24,25,-4,-26,-23,-36,-23
-14,-32,-17,23,2,-24,25,-4,-25,-23,-36,-23
-14,-32,-17,24,2,-24,25,-4,-25,-23,-36,-23
-15,-33,-18,25,1,-25,25,-4,-25,-23,-36,-23
-16,-34,-18,25,1,-26,25,-3,-24,-23,-35,-23
-14,-33,-19,24,2,-26,25,-2,-23,-22,-34,-23
-12,-31,-19,22,3,-25,26,-1,-23,-22,-33,-23
-12,-31,-19,22,3,-25,26,-1,-23,-22,-33,-24
-13,-32,-18,23,2,-25,26,-1,-23,-22,-33,-24
-14,-33,-18,24,1,-25,24,-2,-23,-23,-33,-24
-15,-33,-18,24,1,-25,23,-2,-23,-23,-33,-24
-15,-32,-17,23,1,-24,22,-2,-23,-22,-32,-23
-14,-32,-17,23,2,-24,22,-2,-23,-21,-32,-23
-14,-30,-17,22,2,-23,23,-1,-22,-21,-32,-23
-13,-29,-16,21,1,-23,24,0,-21,-21,-32,-23
-14,-30,-16,22,1,-23,24,1,-21,-21,-32,-23
-15,-32,-16,24,0,-24,24,2,-20,-20,-32,-23
-16,-34,-17,25,0,-25,24,2,-20,-20,-32,-24
-16,-34,-17,25,1,-25,25,3,-20,-19,-32,-24
-15,-34,-18,24,2,-25,25,3,-19,-19,-32,-23
-14,-32,-18,23,2,-25,24,4,-19,-17,-31,-23
-13,-31,-17,22,2,-24,24,5,-18,-16,-31,-22
-14,-31,-17,22,1,-24,24,6,-18,-16,-31,-22
-14,-32,-17,22,1,-25,24,6,-17,-16,-31,-22
-13,-32,-18,23,2,-25,25,8,-17,-16,-30,-21
-13,-32,-18,23,2,-25,26,9,-16,-15,-30,-21
-13,-33,-19,23,2,-25,27,11,-15,-15,-30,-21
-13,-32,-19,22,3,-25,27,12,-14,-14,-30,-21
-12,-31,-19,21,3,-24,28,14,-13,-13,-29,-20
-12,-31,-19,21,3,-24,28,15,-13,-13,-29,-20
-12,-31,-18,22,3,-25,29,17,-12,-13,-28,-20
-13,-31,-18,22,2,-25,29,18,-11,-12,-28,-20
-12,-31,-19,21,3,-25,30,20,-10,-12,-27,-20
-10,-30,-19,20,4,-24,31,22,-8,-11,-26,-19
-9,-29,-19,19,5,-24,31,24,-7,-10,-26,-19
-10,-29,-19,20,4,-24,31,26,-5,-9,-26,-19
-11,-30,-18,21,3,-24,32,28,-4,-9,-26,-18
-12,-31,-19,21,3,-24,32,30,-4,-8,-26,-18
-11,-30,-19,21,3,-24,32,33,-3,-7,-26,-18
-10,-29,-20,20,4,-24,32,35,-1,-6,-25,-17
-9,-28,-20,18,5,-23,33,38,1,-4,-24,-16
-8,-27,-19,17,5,-23,34,41,3,-2,-23,-15
-7,-26,-19,16,5,-22,35,44,5,-1,-21,-14
-7,-25,-18,16,5,-21,36,46,7,1,-19,-13
-6,-24,-18,15,6,-21,36,49,9,2,-18,-12
-5,-24,-19,15,7,-21,37,52,11,3,-16,-11
-4,-23,-20,14,8,-21,37,54,13,5,-15,-11
-3,-23,-20,14,8,-21,37,57,15,6,-14,-10
-2,-24,-21,14,9,-22,37,58,16,8,-13,-9
-3,-25,-21,14,9,-22,36,60,18,9,-12,-8
-5,-25,-19,15,7,-22,36,62,20,11,-10,-6
-6,-23,-18,15,6,-20,37,64,22,14,-8,-4
-4,-21,-17,14,6,-19,37,65,24,15,-7,-3
-4,-21,-18,13,7,-19,37,66,24,15,-6,-3
-3,-21,-18,13,7,-19,36,67,25,16,-6,-3
-2,-21,-18,12,8,-19,36,68,26,17,-5,-3
-1,-20,-18,11,8,-19,35,68,27,18,-4,-2
0,-20,-19,10,9,-19,34,68,27,19,-3,-1
1,-19,-19,9,10,-19,33,68,28,20,-2,-1
2,-17,-19,7,10,-18,32,68,29,21,0,0
3,-15,-18,6,10,-17,31,68,30,21,1,1
3,-14,-18,6,10,-16,30,67,30,22,1,1
2,-14,-17,6,9,-15,28,66,30,22,1,2
3,-12,-16,5,9,-13,27,65,30,22,2,2
4,-11,-15,3,9,-12,27,64,30,22,2,2
4,-11,-15,3,9,-12,26,63,30,21,2,2
4,-11,-15,3,9,-12,25,61,29,21,1,1
5,-10,-15,2,9,-12,25,60,29,21,1,1
5,-11,-16,2,10,-13,24,58,28,21,1,2
4,-12,-17,4,10,-14,22,56,27,20,1,2
4,-13,-18,4,11,-15,21,53,26,20,1,2
5,-13,-18,4,11,-15,20,51,25,20,1,2
6,-12,-18,3,12,-15,19,48,24,19,1,3
6,-11,-18,2,11,-14,18,46,23,18,1,3
6,-11,-17,2,10,-13,17,43,21,17,0,3
5,-10,-15,2,10,-12,16,41,20,16,1,3
5,-10,-14,2,10,-12,15,38,18,15,1,3
5,-9,-14,2,10,-12,14,36,17,15,1,3
5,-9,-13,2,9,-11,13,33,16,14,2,4
4,-9,-12,3,8,-10,12,31,14,13,1,4
3,-9,-12,3,7,-10,10,28,13,12,1,3
3,-8,-11,3,6,-9,9,26,11,11,0,3
2,-8,-10,3,6,-9,9,24,10,9,0,3
2,-8,-9,3,5,-8,8,22,8,8,-1,2
2,-7,-9,3,5,-8,8,20,7,7,-2,1
1,-7,-8,3,4,-8,7,18,5,6,-3,1
0,-8,-8,4,3,-8,6,16,4,5,-4,0
1,-7,-8,3,3,-7,6,14,3,4,-5,0
2,-5,-8,2,4,-6,6,13,2,3,-5,0
1,-6,-8,3,3,-6,5,11,1,2,-5,0
1,-7,-8,3,3,-7,5,10,0,2,-6,0
1,-7,-8,3,3,-7,5,10,0,1,-6,0
0,-8,-8,4,3,-8,5,9,-1,1,-6,0
0,-9,-8,4,4,-9,5,8,-3,0,-7,0
1,-8,-8,3,4,-8,5,7,-4,0,-8,-1
2,-7,-8,3,4,-8,5,6,-4,-1,-8,-1
1,-7,-8,4,4,-8,5,5,-5,-1,-9,-2
0,-8,-9,4,3,-9,4,4,-5,-1,-9,-2
0,-9,-9,5,3,-9,4,3,-6,-2,-9,-3
0,-9,-9,5,3,-9,5,3,-6,-2,-9,-3
0,-8,-8,4,3,-8,5,3,-7,-3,-9,-3
0,-7,-7,4,2,-7,6,3,-7,-3,-10,-3
0,-7,-6,4,2,-7,6,3,-7,-3,-10,-3
-1,-8,-6,5,2,-7,6,2,-8,-4,-10,-4
-2,-9,-6,6,1,-7,6,2,-8,-4,-10,-4
-3,-10,-6,7,0,-7,6,1,-8,-4,-10,-5
-4,-11,-7,8,0,-8,6,0,-9,-5,-10,-5
-5,-12,-7,9,0,-8,6,0,-10,-6,-10,-5
-4,-12,-7,8,0,-8,7,0,-9,-6,-10,-5
-3,-11,-7,7,1,-8,8,0,-9,-5,-9,-4
-2,-11,-7,7,2,-9,8,-1,-9,-5,-8,-4
-2,-11,-7,7,2,-9,9,-1,-9,-5,-8,-4
-2,-11,-7,7,2,-9,9,-2,-10,-5,-8,-4
-2,-11,-8,7,2,-9,10,-2,-10,-5,-8,-5
-2,-11,-8,7,2,-9,10,-2,-10,-5,-7,-5
-3,-12,-8,7,2,-9,10,-2,-10,-5,-7,-5
-3,-12,-8,7,1,-9,11,-2,-10,-5,-7,-5
-5,-13,-7,8,0,-9,11,-2,-10,-6,-7,-5
-6,-14,-7,9,0,-10,11,-2,-10,-6,-7,-6
-6,-14,-8,9,0,-10,11,-3,-11,-7,-7,-7
-5,-13,-7,8,0,-9,11,-3,-11,-7,-7,-6
-3,-10,-7,6,0,-8,12,-2,-10,-6,-7,-5
-2,-9,-7,5,1,-7,13,-2,-10,-6,-6,-5
-2,-9,-7,5,1,-8,13,-3,-10,-7,-6,-5
-3,-9,-7,6,1,-8,13,-4,-10,-8,-7,-6
-3,-10,-6,6,0,-8,12,-5,-10,-8,-7,-6
-4,-10,-6,7,0,-8,12,-6,-11,-8,-7,-6
-4,-10,-6,7,0,-8,11,-7,-11,-8,-7,-6
-3,-9,-6,6,0,-7,11,-7,-11,-8,-7,-6
-4,-9,-5,7,0,-7,10,-7,-11,-8,-7,-6
-4,-9,-5,7,-1,-7,10,-7,-11,-8,-7,-6
-5,-9,-5,7,-1,-6,10,-7,-11,-8,-7,-6
-4,-9,-5,7,0,-6,10,-8,-11,-8,-7,-6
-4,-9,-5,7,0,-7,10,-8,-11,-8,-7,-6
-3,-9,-6,7,0,-7,10,-8,-11,-8,-7,-6
-3,-10,-6,7,0,-7,10,-9,-11,-8,-7,-6
-5,-11,-6,8,0,-8,10,-9,-11,-8,-7,-6
-6,-12,-6,10,-1,-8,10,-9,-11,-8,-7,-6
-7,-12,-5,10,-2,-8,10,-9,-11,-8,-7,-6
-7,-12,-5,10,-2,-8,10,-9,-11,-8,-7,-6
-7,-12,-5,10,-2,-8,9,-10,-11,-8,-7,-6
-7,-12,-5,10,-2,-8,8,-11,-12,-9,-8,-7
-7,-12,-5,9,-2,-8,8,-11,-12,-9,-8,-7
-5,-10,-4,8,-1,-7,8,-11,-12,-9,-7,-7
-5,-9,-4,7,-1,-6,7,-12,-12,-9,-7,-7
-5,-9,-4,7,-2,-6,7,-12,-12,-9,-7,-7
-5,-8,-3,7,-2,-5,6,-12,-12,-10,-7,-6
-5,-8,-3,7,-2,-5,6,-12,-13,-10,-7,-6
-5,-8,-4,7,-2,-5,5,-13,-13,-10,-7,-6
-5,-8,-4,7,-1,-5,5,-13,-13,-10,-7,-6
-5,-9,-3,8,-2,-5,4,-14,-14,-10,-7,-6
-6,-8,-2,8,-3,-4,4,-14,-14,-10,-7,-6
-7,-7,0,7,-4,-3,4,-14,-14,-10,-6,-6
-6,-5,0,6,-4,-2,4,-14,-14,-10,-6,-6
-6,-4,0,6,-4,-2,4,-14,-14,-10,-6,-6
-5,-4,0,5,-4,-2,4,-14,-14,-10,-7,-6
-5,-4,0,5,-4,-2,4,-14,-14,-10,-7,-6
-6,-5,0,6,-4,-2,4,-14,-15,-10,-7,-7
-6,-6,0,6,-4,-2,4,-14,-15,-10,-7,-7
-5,-6,0,6,-3,-2,5,-13,-15,-10,-7,-7
-5,-6,-1,5,-3,-2,5,-13,-15,-11,-7,-7
-5,-6,-1,6,-3,-3,4,-13,-15,-11,-7,-7
-5,-6,-1,5,-3,-2,4,-13,-15,-11,-7,-7
-5,-4,0,4,-3,-1,5,-12,-15,-10,-6,-6
-5,-3,0,4,-3,-1,5,-11,-14,-10,-5,-6
-4,-3,0,4,-3,-1,6,-10,-14,-9,-5,-6
-4,-3,0,4,-3,0,6,-10,-14,-9,-5,-6
-4,-3,1,4,-3,0,7,-9,-14,-9,-4,-5
-4,-3,1,3,-3,0,7,-9,-13,-8,-4,-5
-3,-2,1,2,-3,0,8,-8,-13,-8,-3,-5
-2,-1,1,1,-2,0,8,-7,-12,-8,-3,-5
-1,0,1,0,-2,1,9,-7,-12,-8,-2,-5
0,1,0,-1,-1,1,9,-6,-11,-7,-2,-5
0,1,0,0,-1,1,9,-6,-11,-7,-2,-5
-1,0,1,0,-2,1,9,-6,-10,-7,-2,-5
-2,0,1,1,-2,2,9,-5,-10,-7,-1,-5
0,2,2,-1,-2,3,9,-4,-8,-6,0,-4
2,5,2,-4,0,5,10,-2,-7,-5,2,-3
3,6,2,-5,0,5,11,-1,-6,-4,2,-2
2,5,2,-4,0,4,11,-1,-6,-4,2,-3
1,4,2,-2,-1,3,11,-1,-6,-4,2,-3
0,4,2,-2,-1,3,11,-1,-6,-4,2,-2
1,5,3,-3,-1,4,10,-1,-5,-3,3,-1
2,7,3,-4,-1,6,9,-1,-4,-2,4,-1
2,8,4,-4,-1,6,7,-2,-4,-2,4,-1
3,9,4,-5,-1,7,6,-3,-4,-2,4,-1
3,10,5,-6,-1,7,5,-3,-4,-2,4,-1
3,10,5,-6,-1,7,5,-4,-4,-3,4,-1
2,9,6,-6,-2,7,5,-4,-5,-3,4,-1
1,8,6,-5,-3,7,4,-5,-5,-4,4,-1
0,8,7,-5,-3,8,4,-6,-4,-4,4,-1
1,9,7,-6,-3,9,4,-6,-4,-4,5,0
1,9,7,-6,-3,9,4,-6,-4,-4,6,0
1,9,6,-5,-3,8,3,-6,-4,-4,6,-1
2,8,6,-5,-3,8,2,-7,-4,-4,6,-1
2,9,6,-6,-2,8,1,-7,-5,-4,6,-2
3,9,6,-6,-2,8,0,-8,-5,-4,6,-2
3,10,6,-6,-2,9,0,-9,-6,-4,6,-2
3,10,6,-7,-2,9,-1,-9,-6,-4,6,-2
5,12,6,-8,-1,9,-1,-9,-6,-4,6,-1
6,13,6,-10,0,10,-1,-9,-6,-4,6,-1
5,12,6,-9,-1,9,-1,-9,-6,-5,5,-1
3,9,6,-6,-2,8,-2,-9,-7,-5,5,-2
1,8,6,-5,-2,8,-2,-8,-6,-5,6,-2
1,8,6,-4,-2,7,-1,-7,-5,-4,7,-1
1,7,5,-4,-2,6,0,-5,-4,-4,8,0
1,5,3,-3,-2,5,0,-4,-3,-4,8,-1
1,3,1,-2,-1,3,0,-4,-4,-4,7,-1
1,2,0,-2,0,2,0,-5,-4,-5,7,-2
1,1,-1,-1,0,0,0,-6,-5,-6,6,-3
0,-1,-2,0,1,-1,0,-7,-7,-8,4,-5
-1,-3,-3,2,1,-2,0,-8,-9,-9,3,-7
-1,-4,-3,2,1,-3,1,-8,-10,-10,2,-8
-1,-4,-4,3,1,-4,1,-9,-11,-11,1,-9
-3,-6,-4,5,0,-5,1,-10,-12,-12,-1,-10
-6,-8,-3,7,-1,-5,0,-11,-13,-14,-2,-11
-7,-9,-3,8,-2,-5,0,-11,-14,-15,-3,-12
-6,-9,-3,7,-2,-5,0,-12,-14,-15,-3,-13
-6,-9,-3,7,-2,-5,0,-12,-14,-15,-3,-13
-6,-10,-3,7,-2,-6,0,-12,-14,-16,-3,-13
-7,-10,-3,8,-2,-6,-1,-12,-15,-16,-3,-14
-6,-10,-3,8,-2,-6,-1,-12,-14,-16,-3,-13
-6,-9,-3,7,-2,-6,0,-12,-14,-15,-2,-13
-6,-8,-3,7,-2,-5,0,-12,-14,-15,-1,-13
-6,-8,-3,7,-2,-5,0,-12,-14,-16,0,-13
-6,-8,-3,7,-3,-5,0,-12,-15,-16,0,-14
-7,-9,-3,7,-3,-5,0,-12,-15,-16,0,-14
-6,-9,-3,7,-2,-5,0,-12,-15,-16,1,-14
-6,-9,-3,7,-2,-6,0,-11,-15,-16,2,-14
-6,-9,-3,7,-1,-6,0,-11,-15,-16,3,-14
-6,-9,-3,7,-1,-6,0,-11,-15,-16,3,-14
-7,-10,-3,8,-1,-7,-1,-12,-15,-16,4,-14
-7,-11,-3,8,-2,-7,-1,-12,-15,-16,4,-14
-7,-10,-3,8,-2,-7,-1,-12,-15,-16,4,-14
-7,-10,-3,8,-2,-7,-2,-12,-15,-16,4,-14
-7,-10,-3,8,-2,-7,-2,-12,-15,-17,4,-15
-7,-11,-4,9,-2,-7,-2,-12,-15,-17,4,-15
-7,-12,-4,9,-2,-8,-2,-12,-15,-17,4,-16
-7,-12,-5,10,-2,-8,-2,-12,-15,-18,4,-16
-7,-12,-5,10,-1,-9,-2,-12,-15,-18,4,-16
-7,-13,-6,10,-1,-9,-1,-11,-15,-18,3,-17
-7,-14,-7,11,0,-10,0,-11,-15,-19,2,-18
-8,-16,-8,12,-1,-11,2,-10,-16,-21,1,-20
-8,-17,-8,12,-1,-12,5,-8,-17,-22,0,-21
-9,-17,-8,13,-1,-12,9,-5,-16,-22,-1,-22
-9,-17,-8,13,-1,-12,14,0,-14,-21,0,-22
-8,-16,-8,13,0,-12,18,7,-9,-19,1,-21
-7,-15,-8,12,0,-12,22,15,-4,-15,5,-19
-6,-13,-7,10,0,-10,25,23,3,-9,9,-16
-4,-9,-6,7,1,-7,28,32,12,-1,16,-10
-1,-3,-3,2,1,-3,30,40,22,8,25,-2
3,4,0,-4,1,2,31,49,34,21,37,8
9,14,3,-12,2,9,31,56,47,35,51,21
17,27,9,-22,4,18,27,62,61,51,67,37
26,40,14,-33,6,27,17,67,75,69,86,55
36,53,18,-44,9,36,5,72,91,88,105,73
46,66,20,-56,12,43,-10,76,106,107,124,91
56,80,24,-67,15,52,-29,75,118,125,142,108
64,95,31,-79,16,63,-52,67,127,139,159,125
68,110,42,-88,12,76,-75,54,133,152,173,140
69,126,57,-97,6,92,-98,40,140,164,187,155
68,145,77,-106,-4,111,-118,26,148,177,202,169
66,166,101,-115,-17,133,-135,14,159,191,216,184
62,186,125,-123,-31,155,-151,2,169,204,230,197
57,200,145,-127,-44,172,-166,-14,173,211,239,206
52,206,155,-128,-52,180,-179,-35,169,211,240,208
46,197,151,-121,-53,175,-186,-50,161,203,232,200
41,179,137,-109,-49,159,-184,-57,150,188,214,182
37,158,120,-97,-42,139,-175,-56,138,170,192,159
32,136,103,-84,-36,120,-161,-55,123,148,168,134
22,112,89,-67,-33,100,-145,-61,97,117,137,105
10,87,77,-48,-33,82,-127,-74,59,77,101,72
0,66,67,-32,-34,66,-107,-86,23,39,67,43
-7,49,57,-20,-32,53,-88,-89,-2,12,42,20
-11,35,47,-11,-30,41,-71,-84,-17,-5,25,5
-14,23,38,-4,-27,31,-57,-77,-25,-16,13,-5
-16,14,30,0,-24,23,-45,-69,-30,-22,6,-12
-17,7,24,4,-22,16,-35,-61,-32,-26,2,-17
-17,1,19,8,-19,10,-26,-54,-33,-29,-1,-21
-17,-3,14,10,-16,5,-19,-47,-33,-31,-4,-24
-18,-9,9,13,-14,0,-13,-42,-33,-32,-6,-26
-18,-14,5,16,-12,-4,-8,-38,-33,-33,-8,-29
-18,-17,1,18,-10,-8,-4,-34,-32,-34,-9,-30
-18,-20,-2,19,-8,-11,-1,-31,-31,-34,-10,-31
-18,-23,-5,21,-7,-13,0,-29,-31,-34,-11,-32
-18,-24,-7,21,-6,-15,1,-28,-31,-34,-11,-32
-18,-26,-8,22,-5,-16,2,-27,-31,-35,-11,-33
-18,-28,-9,23,-5,-18,3,-27,-31,-35,-12,-33
-18,-29,-10,24,-4,-20,4,-25,-31,-35,-13,-34
-17,-29,-11,24,-3,-20,6,-24,-31,-35,-13,-34
-17,-29,-11,24,-3,-20,7,-23,-31,-35,-13,-34
-18,-29,-11,24,-4,-20,7,-22,-31,-35,-13,-34
-18,-29,-11,23,-4,-20,8,-22,-30,-34,-13,-33
-17,-28,-11,22,-4,-19,8,-21,-29,-33,-12,-32
-16,-27,-10,21,-4,-18,9,-20,-29,-32,-11,-31
-15,-26,-10,21,-4,-18,9,-19,-28,-32,-11,-30
-16,-27,-10,21,-4,-18,10,-19,-28,-32,-12,-30
-17,-29,-11,23,-4,-19,10,-18,-28,-33,-13,-31
-18,-30,-11,24,-3,-20,10,-18,-28,-33,-13,-31
-17,-30,-12,24,-3,-20,11,-18,-28,-33,-13,-31
-17,-30,-12,24,-3,-21,11,-17,-28,-33,-13,-32
-18,-31,-12,25,-3,-21,10,-17,-28,-34,-13,-32
-19,-31,-12,25,-4,-21,10,-17,-28,-34,-13,-32
-19,-31,-12,25,-4,-21,10,-17,-28,-34,-13,-32
-18,-30,-12,24,-4,-21,10,-16,-27,-34,-13,-32
-17,-29,-11,23,-3,-20,11,-15,-27,-34,-13,-32
-16,-28,-11,22,-3,-20,11,-15,-26,-33,-12,-31
-16,-28,-11,22,-3,-20,11,-14,-26,-33,-12,-31
-16,-28,-11,22,-3,-20,11,-14,-26,-33,-12,-31
-16,-28,-11,23,-3,-20,11,-14,-26,-32,-12,-31
-17,-29,-11,23,-3,-20,10,-14,-26,-32,-11,-31
-17,-29,-12,23,-3,-20,10,-13,-26,-32,-11,-31
-17,-29,-12,23,-3,-20,10,-13,-25,-32,-10,-30
-17,-30,-12,24,-3,-21,10,-12,-25,-32,-11,-31
-18,-30,-12,24,-3,-21,10,-12,-25,-32,-11,-31
-17,-30,-12,24,-3,-21,10,-11,-25,-31,-11,-30
-17,-29,-12,23,-2,-20,10,-10,-24,-31,-10,-30
-16,-29,-12,23,-2,-20,10,-9,-24,-30,-10,-30
-15,-29,-13,22,-2,-20,10,-9,-24,-30,-10,-29
-15,-28,-13,22,-1,-20,10,-8,-23,-30,-10,-29
-15,-28,-12,22,-1,-20,11,-7,-22,-29,-9,-29
-15,-27,-12,22,-1,-20,11,-5,-22,-28,-8,-28
-15,-28,-12,22,-1,-20,11,-4,-21,-27,-8,-28
-15,-28,-12,22,-1,-21,11,-3,-21,-27,-8,-28
-15,-28,-12,22,-1,-20,12,-1,-20,-26,-8,-28
-15,-28,-12,22,-1,-20,12,0,-20,-26,-8,-27
-15,-28,-12,21,-1,-19,13,1,-19,-25,-8,-27
-15,-28,-12,22,-1,-20,14,2,-18,-25,-8,-27
-16,-29,-12,23,-2,-20,14,3,-17,-25,-8,-27
-17,-30,-12,24,-2,-21,14,5,-17,-24,-8,-27
-17,-30,-12,23,-2,-21,15,7,-16,-23,-7,-27
-16,-29,-12,22,-2,-20,15,9,-14,-22,-7,-26
-14,-27,-12,21,-1,-19,16,11,-13,-21,-6,-26
-13,-26,-13,20,0,-19,17,13,-12,-20,-6,-25
-13,-27,-13,20,0,-19,17,15,-11,-20,-6,-26
-14,-27,-12,21,-1,-19,18,17,-9,-19,-5,-26
-14,-27,-12,21,-1,-19,20,19,-8,-17,-4,-25
-14,-27,-12,21,0,-19,21,22,-6,-16,-3,-24
-13,-26,-13,21,0,-19,22,24,-5,-15,-2,-23
-13,-26,-13,20,0,-19,22,27,-3,-14,-2,-23
-13,-26,-13,20,0,-19,23,29,-2,-13,-1,-23
-12,-26,-13,19,0,-19,24,33,0,-11,0,-22
-11,-24,-13,18,1,-18,25,36,2,-9,1,-20
-10,-23,-13,17,1,-18,25,38,4,-8,2,-20
-9,-23,-13,16,1,-18,26,41,6,-6,3,-19
-9,-22,-13,16,2,-17,26,43,8,-5,4,-18
-8,-22,-13,15,2,-17,26,46,10,-3,5,-18
-7,-21,-13,14,3,-17,26,48,11,-2,6,-17
-7,-21,-14,14,3,-17,26,50,13,0,7,-16
-7,-20,-14,14,3,-17,26,52,15,0,8,-15
-6,-20,-13,13,3,-16,26,54,17,2,10,-14
-4,-18,-14,12,4,-15,26,56,18,3,11,-12
-3,-17,-14,11,5,-15,26,57,20,5,13,-11
-2,-17,-14,10,6,-15,26,58,21,7,14,-10
-1,-16,-14,9,6,-15,26,60,22,8,15,-9
-1,-16,-14,9,7,-15,25,60,23,9,16,-9
0,-16,-15,9,7,-15,24,61,24,10,17,-8
0,-16,-15,8,8,-15,23,61,24,10,17,-8
0,-15,-15,8,8,-15,23,61,25,11,18,-7
0,-16,-14,8,7,-15,22,60,25,11,18,-6
-1,-16,-14,9,7,-15,20,60,25,11,18,-6
-1,-16,-14,9,6,-14,19,59,26,12,19,-6
0,-15,-14,8,7,-14,18,59,26,12,20,-5
0,-13,-14,7,7,-13,18,58,26,13,20,-4
0,-12,-13,6,6,-12,17,57,26,13,21,-4
0,-12,-11,6,5,-11,16,55,25,12,21,-3
0,-12,-11,6,5,-11,15,53,25,12,21,-3
0,-11,-10,6,5,-10,14,51,24,12,21,-3
1,-10,-10,5,5,-10,12,49,23,12,21,-3
2,-10,-11,4,6,-10,11,46,21,11,21,-3
1,-10,-11,5,6,-10,9,43,20,10,21,-3
0,-10,-10,5,5,-10,8,40,18,9,20,-3
0,-10,-10,5,5,-10,7,38,17,7,20,-3
1,-9,-10,4,6,-9,6,36,15,6,20,-3
2,-8,-10,3,6,-9,5,33,14,6,20,-3
2,-8,-10,3,6,-9,5,31,13,5,20,-3
3,-7,-10,2,6,-8,4,28,12,5,20,-3
4,-6,-10,1,7,-8,3,26,10,5,20,-3
4,-6,-10,1,7,-7,2,23,8,4,19,-3
3,-6,-9,1,6,-7,0,20,6,2,19,-4
2,-6,-9,2,5,-7,-1,18,4,1,18,-4
2,-6,-8,2,5,-7,-2,15,3,0,18,-4
2,-6,-8,2,5,-6,-3,13,1,-1,17,-4
2,-5,-7,2,5,-6,-3,11,0,-2,16,-4
2,-5,-7,2,5,-6,-3,9,0,-3,15,-4
2,-5,-7,2,5,-6,-4,7,-2,-4,15,-5
1,-6,-7,3,5,-6,-4,5,-3,-5,14,-5
1,-6,-7,3,4,-6,-5,3,-5,-5,14,-5
0,-7,-7,4,4,-6,-5,2,-6,-6,13,-6
-1,-8,-6,4,3,-6,-5,0,-7,-7,13,-6
-1,-8,-6,4,3,-6,-5,0,-8,-8,13,-6
-1,-8,-6,4,3,-7,-5,-1,-9,-8,12,-6
-1,-8,-7,4,3,-7,-5,-2,-9,-8,12,-7
-1,-8,-7,4,3,-7,-5,-2,-10,-8,12,-7
-1,-8,-7,4,3,-7,-5,-3,-10,-9,12,-8
0,-7,-7,4,4,-7,-5,-4,-11,-9,12,-8
0,-7,-7,3,4,-7,-5,-4,-12,-10,11,-8
0,-7,-7,3,3,-7,-5,-5,-13,-11,10,-9
-1,-8,-7,4,3,-7,-6,-6,-14,-12,9,-9
-2,-8,-7,5,2,-7,-6,-6,-15,-13,9,-10
-2,-9,-7,6,2,-7,-6,-7,-15,-13,9,-9
-3,-9,-7,6,2,-7,-6,-7,-16,-13,9,-9
-3,-10,-7,6,2,-8,-6,-7,-16,-13,8,-10
-3,-10,-6,6,1,-8,-6,-7,-16,-13,8,-10
-3,-10,-6,6,1,-8,-5,-7,-16,-13,8,-10
-3,-9,-5,6,1,-7,-5,-8,-17,-13,8,-10
-2,-9,-5,5,1,-7,-4,-8,-17,-13,8,-9
-2,-8,-5,5,2,-7,-3,-8,-17,-14,8,-9
-4,-9,-5,6,1,-7,-3,-9,-17,-14,8,-10
-5,-11,-5,8,0,-8,-3,-10,-18,-15,8,-10
-6,-11,-5,8,0,-8,-2,-10,-18,-15,8,-10
-5,-10,-5,8,0,-8,-2,-10,-18,-15,8,-10
-5,-10,-5,7,0,-8,-2,-10,-18,-15,8,-10
-5,-10,-4,8,-1,-8,-1,-10,-18,-15,8,-11
-7,-12,-4,9,-1,-8,-1,-11,-19,-15,8,-11
-7,-13,-4,9,-1,-8,-1,-11,-19,-15,8,-11
-7,-12,-4,9,-1,-8,0,-11,-19,-15,8,-11
-7,-12,-4,9,-1,-8,1,-11,-19,-15,8,-11
-6,-11,-4,9,-1,-7,1,-11,-19,-15,8,-11
-6,-10,-4,8,-1,-7,2,-12,-19,-15,8,-11
-6,-9,-3,7,-1,-6,2,-12,-19,-15,8,-12
-6,-9,-3,7,-1,-6,2,-13,-19,-15,8,-12
-5,-8,-3,7,-1,-5,2,-14,-19,-14,8,-12
-4,-8,-3,6,0,-5,2,-15,-19,-14,9,-11
-3,-7,-3,5,0,-4,2,-15,-19,-14,9,-11
-2,-6,-3,4,0,-4,2,-16,-19,-14,10,-10
-3,-6,-3,4,0,-4,2,-16,-19,-14,10,-10
-5,-7,-2,6,-1,-5,1,-18,-20,-15,9,-11
-7,-9,-2,8,-2,-6,1,-19,-21,-15,9,-11
-7,-9,-2,9,-2,-6,1,-19,-21,-15,9,-11
-7,-9,-1,9,-3,-5,0,-20,-21,-16,9,-11
-8,-10,-1,9,-3,-5,0,-21,-21,-16,8,-11
-9,-11,-1,10,-4,-5,0,-22,-22,-16,8,-11
-9,-10,0,10,-4,-5,0,-22,-22,-16,9,-11
-8,-9,0,9,-4,-4,0,-22,-22,-15,9,-11
-7,-8,0,8,-3,-4,0,-22,-22,-15,10,-10
-6,-6,1,7,-3,-3,0,-22,-21,-14,10,-10
-6,-5,2,6,-3,-2,0,-23,-21,-14,11,-9
-7,-6,2,7,-4,-2,0,-23,-21,-14,11,-9
-7,-6,2,7,-4,-2,-1,-24,-22,-14,11,-9
-6,-5,1,6,-4,-2,-1,-24,-22,-14,11,-9
-7,-7,1,7,-4,-3,-2,-25,-23,-14,10,-10
-9,-9,1,9,-5,-4,-3,-26,-24,-15,9,-10
-10,-9,1,9,-5,-4,-3,-27,-24,-15,9,-10
-9,-8,1,9,-5,-3,-3,-27,-24,-15,9,-10
-8,-7,1,8,-5,-3,-3,-27,-24,-15,9,-10
-7,-7,1,7,-4,-3,-3,-27,-24,-16,9,-10
-7,-7,0,7,-4,-3,-3,-28,-24,-16,9,-10
-6,-7,0,6,-4,-2,-3,-28,-24,-15,9,-10
-6,-7,0,6,-4,-2,-3,-28,-24,-15,9,-10
-7,-7,0,7,-4,-2,-3,-28,-24,-15,9,-10
-7,-6,1,7,-4,-2,-3,-28,-25,-15,9,-9
-7,-6,1,7,-4,-2,-3,-28,-25,-15,9,-9
-7,-6,1,7,-4,-2,-3,-28,-25,-15,9,-9
-7,-6,1,7,-4,-2,-3,-28,-26,-15,9,-9
-7,-5,1,6,-4,-1,-3,-28,-26,-15,9,-9
-6,-4,2,5,-4,-1,-3,-27,-25,-14,10,-8
-5,-3,2,4,-4,0,-3,-26,-25,-14,10,-8
-6,-2,3,4,-4,0,-2,-25,-25,-13,10,-8
-6,-3,3,5,-4,0,-2,-25,-25,-13,10,-8
-6,-2,3,4,-4,1,-1,-24,-24,-13,10,-8
-5,-1,3,3,-4,1,-1,-23,-24,-13,10,-8
-5,-1,3,3,-4,2,-1,-22,-24,-13,10,-8
-4,0,3,2,-4,2,-1,-22,-24,-13,10,-8
-4,0,3,2,-4,2,-1,-21,-24,-12,11,-7
-3,1,4,1,-3,3,-1,-20,-23,-12,11,-7
-2,2,4,0,-3,4,0,-19,-23,-11,11,-6
-2,3,4,0,-3,4,0,-18,-23,-11,11,-6
-2,3,5,0,-3,5,0,-18,-22,-11,12,-6
-2,4,5,-1,-3,5,0,-16,-22,-10,12,-5
0,5,5,-2,-2,5,1,-15,-21,-9,13,-5
0,6,5,-3,-1,5,2,-13,-20,-8,13,-4
0,5,5,-3,-1,5,2,-12,-19,-8,13,-4
0,5,5,-3,-2,5,2,-11,-19,-7,13,-4
0,5,5,-2,-2,5,2,-10,-19,-7,13,-4
0,5,5,-2,-3,6,1,-10,-19,-6,14,-4
0,6,6,-3,-3,7,0,-10,-18,-6,14,-3
0,8,7,-4,-3,8,0,-10,-18,-5,15,-2
1,10,8,-6,-3,9,-1,-10,-17,-5,15,-2
1,11,9,-6,-3,10,-1,-10,-17,-5,15,-2
0,10,10,-5,-4,11,-2,-10,-18,-5,14,-3
0,10,10,-4,-5,11,-3,-10,-18,-5,14,-3
0,10,10,-4,-5,11,-3,-10,-18,-5,14,-3
0,10,10,-4,-5,11,-4,-11,-18,-6,14,-3
0,10,10,-4,-5,11,-4,-11,-19,-6,14,-3
0,11,10,-5,-5,11,-4,-11,-19,-6,15,-3
0,12,11,-6,-5,12,-4,-11,-18,-5,15,-2
1,13,12,-6,-5,13,-4,-11,-18,-5,16,-2
3,13,10,-8,-3,13,-5,-12,-19,-6,15,-2
5,14,8,-9,-1,12,-6,-13,-19,-6,15,-2
5,13,8,-9,-1,12,-6,-14,-19,-6,15,-2
3,12,8,-8,-2,11,-6,-14,-19,-6,15,-2
3,12,8,-7,-2,11,-6,-15,-19,-7,15,-2
3,12,8,-8,-2,10,-6,-15,-20,-7,15,-2
3,12,8,-8,-2,10,-6,-15,-20,-8,15,-2
3,12,8,-7,-2,10,-6,-15,-20,-7,15,-2
3,11,8,-7,-2,10,-6,-14,-19,-6,15,-2
3,11,8,-7,-2,10,-6,-14,-18,-5,16,-1
4,11,7,-7,-2,10,-6,-13,-17,-4,16,-1
4,10,7,-7,-1,9,-6,-12,-16,-4,16,0
3,9,5,-6,0,7,-6,-12,-17,-4,15,-1
3,6,3,-4,0,5,-6,-13,-18,-5,14,-2
3,4,1,-4,1,3,-6,-14,-19,-6,13,-4
3,1,-1,-2,2,0,-6,-14,-20,-8,12,-5
1,-2,-2,0,2,-2,-6,-16,-21,-9,10,-7
-1,-4,-3,2,1,-3,-6,-17,-22,-11,8,-9
-1,-5,-3,3,1,-4,-5,-17,-23,-12,7,-10
-2,-6,-4,4,1,-4,-4,-18,-24,-12,7,-11
-3,-7,-4,5,1,-5,-4,-18,-24,-13,6,-12
-4,-8,-4,6,1,-6,-3,-18,-25,-14,6,-12
-4,-8,-4,6,1,-6,-3,-18,-25,-14,6,-12
-3,-7,-5,6,1,-6,-3,-18,-25,-14,6,-12
-3,-7,-5,5,1,-6,-3,-18,-25,-14,6,-12
-3,-8,-5,6,1,-6,-3,-18,-26,-15,5,-13
-4,-9,-5,7,1,-7,-3,-19,-26,-15,5,-13
-5,-10,-5,8,0,-7,-4,-19,-26,-16,4,-14
-5,-10,-5,8,0,-7,-4,-19,-26,-16,4,-14
-5,-10,-5,8,0,-7,-4,-18,-26,-16,4,-14
-5,-11,-6,8,0,-8,-4,-18,-26,-16,4,-14
-5,-11,-6,8,0,-8,-4,-17,-26,-16,4,-14
-5,-11,-6,8,0,-9,-4,-17,-26,-16,3,-14
-4,-11,-7,8,1,-9,-4,-17,-26,-16,3,-14
-3,-10,-8,7,2,-9,-3,-16,-26,-16,2,-14
-3,-11,-8,7,2,-9,-3,-16,-26,-16,2,-14
-4,-12,-9,8,2,-10,-4,-16,-26,-16,0,-15
-4,-13,-9,9,2,-11,-4,-16,-26,-17,0,-15
-4,-13,-9,9,2,-11,-4,-15,-26,-17,-1,-15
-5,-15,-10,10,2,-12,-4,-15,-26,-17,-2,-15
-6,-16,-10,11,2,-13,-4,-15,-27,-17,-3,-15
-6,-17,-11,11,2,-13,-4,-15,-27,-17,-3,-15
-5,-16,-12,10,3,-14,-4,-15,-27,-17,-4,-15
-4,-16,-12,10,4,-14,-4,-15,-27,-17,-4,-15
-3,-16,-13,9,5,-14,-4,-15,-27,-17,-5,-15
-2,-16,-14,9,6,-14,-3,-15,-28,-18,-7,-15
-1,-16,-15,8,7,-15,-2,-14,-28,-19,-8,-16
0,-16,-16,8,8,-15,1,-12,-28,-19,-9,-16
-1,-17,-16,9,7,-15,5,-10,-28,-20,-10,-17
-3,-19,-16,11,6,-17,9,-7,-28,-20,-11,-19
-6,-22,-17,14,5,-19,14,-3,-27,-20,-13,-20
-7,-24,-17,16,5,-21,18,2,-24,-19,-13,-21
-6,-25,-18,15,6,-21,22,10,-19,-16,-11,-20
-4,-23,-19,13,7,-20,26,19,-12,-11,-7,-17
-1,-19,-18,10,8,-18,29,28,-4,-4,-2,-12
3,-12,-16,4,9,-14,31,37,5,4,5,-4
10,-3,-14,-3,11,-8,34,46,17,16,16,5
16,6,-11,-11,12,-1,36,55,29,29,28,17
22,15,-7,-19,13,5,34,61,41,43,42,30
29,27,-3,-28,15,13,26,65,54,58,58,46
40,40,0,-40,20,21,13,69,69,76,76,63
52,54,1,-53,25,28,-1,74,84,95,95,81
62,67,3,-64,30,35,-20,76,98,112,112,98
70,79,8,-75,31,44,-43,72,108,127,128,114
78,94,16,-86,31,56,-67,63,116,141,143,130
83,111,27,-97,28,70,-92,51,123,154,158,145
85,128,42,-106,22,87,-114,39,132,168,173,160
84,148,64,-115,10,107,-134,27,143,183,189,175
79,169,89,-123,-4,130,-153,17,155,198,204,190
74,187,113,-130,-19,150,-170,3,164,211,217,203
69,200,131,-134,-30,165,-185,-17,167,217,225,211
65,201,136,-132,-35,169,-195,-37,163,214,223,210
60,189,129,-124,-34,160,-196,-47,156,205,212,199
54,169,114,-110,-30,143,-190,-49,147,190,193,180
47,145,97,-96,-25,123,-178,-48,134,170,171,157
38,122,83,-80,-22,103,-162,-49,115,146,144,131
28,99,70,-63,-21,85,-142,-59,84,111,111,100
17,77,59,-47,-20,68,-120,-74,44,69,73,67
8,57,49,-32,-20,53,-98,-83,10,33,42,40
0,39,39,-19,-19,39,-79,-83,-10,9,19,19
-4,25,30,-10,-17,27,-62,-77,-23,-6,4,5
-7,14,21,-3,-14,18,-48,-70,-31,-15,-5,-4
-8,5,13,1,-11,9,-37,-62,-35,-21,-12,-10
-10,-3,6,6,-8,2,-28,-56,-37,-25,-17,-15
-11,-10,1,10,-6,-4,-21,-50,-38,-28,-20,-19
-11,-14,-4,12,-3,-9,-15,-44,-39,-30,-23,-21
-10,-18,-7,14,0,-13,-10,-40,-39,-32,-25,-23
-10,-20,-10,15,1,-15,-5,-36,-38,-33,-26,-25
-9,-23,-13,16,2,-18,-2,-32,-38,-33,-27,-26
-9,-24,-16,16,3,-20,0,-30,-38,-33,-28,-27
-9,-26,-18,17,4,-21,2,-29,-38,-34,-29,-28
-10,-28,-19,18,4,-23,3,-28,-38,-34,-30,-28
-9,-29,-20,19,5,-24,4,-27,-38,-35,-31,-29
-9,-30,-20,20,6,-25,5,-26,-39,-36,-33,-30
-10,-32,-21,21,6,-26,5,-26,-39,-37,-34,-32
-11,-32,-21,22,6,-27,6,-25,-40,-37,-35,-33
-10,-32,-21,21,6,-26,7,-24,-40,-37,-35,-33
-10,-31,-21,20,6,-26,8,-23,-39,-37,-35,-33
-10,-31,-22,21,6,-27,8,-22,-39,-37,-36,-33
-11,-33,-22,22,5,-27,8,-22,-39,-37,-36,-33
-11,-33,-23,22,6,-28,9,-22,-39,-37,-37,-33
-10,-33,-23,21,7,-28,9,-22,-39,-37,-37,-33
-8,-33,-24,21,8,-29,10,-21,-39,-37,-38,-34
-6,-32,-25,20,10,-29,10,-21,-39,-37,-38,-34
-5,-31,-25,19,11,-28,11,-20,-38,-37,-38,-34
-6,-32,-25,20,10,-28,11,-19,-38,-37,-38,-34
-8,-33,-25,21,9,-29,11,-19,-38,-37,-38,-33
-9,-34,-26,22,8,-29,11,-19,-37,-37,-38,-33
-10,-35,-25,22,8,-30,11,-19,-37,-37,-38,-33
-11,-35,-25,22,8,-29,11,-19,-37,-36,-38,-33
-10,-34,-24,22,8,-29,11,-18,-36,-36,-38,-32
-9,-34,-24,22,8,-29,11,-18,-36,-36,-38,-32
-10,-34,-23,22,8,-29,11,-18,-36,-36,-38,-32
-10,-33,-23,22,7,-28,11,-18,-36,-36,-38,-32
-10,-33,-23,22,7,-28,11,-17,-35,-35,-38,-32
-9,-32,-23,21,7,-27,11,-17,-35,-35,-39,-32
-8,-31,-23,20,8,-27,11,-16,-34,-35,-39,-31
-8,-30,-23,19,8,-26,11,-16,-34,-34,-39,-31
-8,-30,-22,19,7,-26,11,-15,-34,-34,-39,-31
-8,-31,-22,20,7,-27,11,-15,-34,-34,-40,-31
-9,-31,-22,20,7,-27,11,-14,-34,-34,-40,-32
-9,-31,-22,21,7,-27,10,-14,-34,-34,-40,-32
-9,-31,-23,21,7,-27,10,-13,-34,-34,-40,-32
-9,-31,-23,20,7,-27,10,-12,-33,-34,-40,-32
-8,-30,-23,19,8,-26,10,-11,-33,-33,-40,-31
-6,-29,-23,17,9,-25,11,-9,-31,-32,-39,-31
-4,-28,-23,16,9,-25,11,-8,-30,-31,-38,-30
-5,-29,-23,17,9,-26,11,-7,-30,-31,-39,-31
-7,-31,-23,20,8,-27,10,-6,-30,-32,-39,-31
-8,-32,-23,21,7,-28,10,-5,-30,-32,-39,-31
-8,-32,-23,21,7,-27,11,-4,-29,-31,-39,-31
-8,-32,-23,20,7,-27,11,-2,-29,-31,-39,-31
-9,-32,-23,20,7,-27,12,0,-28,-30,-39,-31
-9,-32,-23,20,7,-27,12,1,-27,-30,-39,-31
-8,-32,-23,20,7,-27,13,3,-26,-29,-39,-30
-8,-31,-23,19,8,-27,14,5,-25,-28,-39,-30
-7,-30,-23,18,9,-27,15,7,-23,-27,-38,-29
-5,-29,-23,17,10,-26,16,10,-21,-26,-37,-28
-4,-28,-23,16,10,-26,17,12,-20,-25,-36,-27
-5,-29,-23,17,10,-26,18,14,-19,-24,-36,-27
-7,-30,-23,19,9,-27,18,15,-18,-24,-36,-27
-7,-31,-23,19,8,-27,18,17,-17,-23,-36,-27
-7,-31,-24,19,8,-27,19,20,-16,-22,-35,-26
-6,-30,-24,18,9,-27,20,22,-14,-21,-35,-26
-5,-29,-24,17,9,-26,21,25,-12,-20,-34,-25
-5,-29,-24,17,10,-26,22,28,-11,-19,-33,-25
-4,-28,-24,17,10,-26,23,30,-9,-18,-33,-24
-4,-28,-24,16,10,-26,24,33,-7,-16,-32,-23
-3,-27,-24,15,11,-26,24,36,-5,-15,-30,-22
-1,-25,-24,13,12,-25,25,39,-4,-13,-29,-21
0,-24,-24,12,12,-24,25,41,-2,-12,-27,-21
0,-24,-23,12,12,-23,26,44,0,-10,-26,-20
1,-23,-23,11,13,-23,26,47,2,-9,-25,-19
2,-22,-24,10,13,-23,27,49,4,-7,-24,-18
2,-23,-24,11,13,-23,27,51,5,-6,-23,-18
1,-23,-24,11,13,-24,27,53,7,-5,-22,-17
1,-23,-24,11,13,-24,27,54,8,-4,-21,-16
3,-21,-24,10,14,-23,27,56,10,-2,-20,-15
4,-20,-24,8,15,-22,27,57,11,-1,-18,-14
5,-19,-25,7,16,-22,26,59,12,0,-17,-13
6,-19,-25,6,16,-22,26,59,13,0,-17,-12
6,-18,-25,6,16,-22,25,60,14,1,-16,-12
7,-18,-25,5,17,-21,25,60,15,2,-15,-11
7,-18,-25,5,17,-21,25,60,15,2,-15,-11
7,-18,-25,6,17,-21,24,60,15,2,-15,-11
6,-18,-25,6,17,-21,22,59,15,2,-14,-10
6,-18,-25,5,16,-20,21,59,15,3,-14,-9
6,-18,-24,6,16,-20,19,58,15,3,-14,-9
6,-18,-24,6,16,-20,18,57,15,3,-14,-8
7,-17,-24,5,15,-20,18,56,15,3,-13,-8
7,-16,-23,4,15,-19,17,55,15,3,-12,-7
9,-15,-23,3,16,-18,17,53,15,3,-12,-7
10,-13,-23,2,17,-18,16,51,15,3,-12,-7
12,-12,-24,1,18,-17,15,49,14,3,-12,-7
12,-12,-24,0,19,-18,13,47,13,2,-13,-7
13,-12,-24,0,20,-18,11,44,11,1,-13,-7
14,-11,-24,-1,20,-17,10,41,9,0,-14,-8
13,-10,-23,-1,19,-16,9,38,7,0,-14,-8
11,-11,-22,0,16,-16,8,35,6,-1,-14,-8
9,-11,-21,1,15,-15,7,32,4,-2,-15,-8
9,-10,-20,1,15,-15,6,30,3,-3,-15,-8
10,-9,-19,0,14,-13,6,27,2,-3,-15,-7
10,-8,-18,0,14,-12,5,25,1,-4,-16,-7
9,-8,-17,0,13,-12,3,22,0,-4,-16,-7
9,-8,-17,0,13,-12,2,19,-2,-5,-16,-7
10,-7,-18,-1,14,-12,1,17,-4,-6,-16,-7
10,-7,-18,-1,15,-12,0,15,-5,-7,-17,-7
9,-8,-18,0,14,-13,0,12,-7,-9,-18,-8
9,-9,-18,0,14,-13,-1,10,-8,-10,-18,-8
9,-9,-18,0,14,-13,-1,8,-9,-11,-19,-9
9,-9,-18,0,14,-13,-2,6,-11,-12,-19,-9
10,-9,-18,0,15,-13,-3,4,-12,-12,-20,-9
10,-8,-18,0,14,-12,-4,3,-13,-13,-20,-9
8,-8,-16,0,13,-12,-4,1,-14,-13,-20,-9
7,-9,-15,1,12,-12,-4,0,-15,-14,-20,-10
7,-9,-15,1,12,-12,-4,-1,-15,-15,-21,-10
6,-9,-15,2,11,-12,-4,-2,-16,-16,-21,-10
5,-10,-15,3,11,-12,-4,-3,-17,-17,-21,-11
5,-11,-16,3,11,-13,-4,-4,-18,-18,-22,-11
5,-11,-17,3,12,-13,-4,-5,-19,-18,-23,-12
4,-12,-16,4,11,-13,-4,-6,-20,-19,-23,-12
4,-12,-16,4,11,-14,-5,-7,-21,-19,-23,-12
5,-12,-17,4,12,-14,-5,-8,-21,-20,-23,-13
5,-12,-17,4,12,-15,-5,-8,-22,-20,-23,-13
4,-12,-17,5,11,-15,-4,-9,-22,-20,-23,-13
2,-13,-16,6,10,-15,-4,-9,-23,-21,-24,-13
1,-14,-16,6,9,-15,-3,-10,-23,-21,-24,-13
1,-14,-15,7,8,-14,-3,-10,-23,-21,-24,-13
1,-14,-14,7,8,-14,-3,-10,-24,-21,-24,-13
1,-14,-14,7,8,-14,-3,-10,-24,-21,-24,-13
0,-14,-14,7,8,-14,-3,-10,-24,-22,-25,-13
0,-15,-15,8,8,-14,-2,-11,-24,-22,-25,-13
0,-15,-15,8,8,-14,-2,-11,-24,-23,-25,-13
1,-13,-14,6,9,-14,-1,-11,-24,-23,-25,-13
2,-12,-14,5,9,-13,0,-11,-24,-22,-25,-13
2,-12,-14,5,9,-13,0,-11,-24,-22,-26,-13
1,-14,-15,6,9,-15,0,-12,-25,-23,-26,-14
0,-16,-16,8,8,-16,-1,-13,-26,-23,-27,-14
-1,-17,-16,9,8,-16,-1,-14,-25,-23,-26,-14
-1,-16,-15,9,8,-15,0,-14,-25,-23,-26,-14
0,-15,-15,8,8,-14,0,-14,-24,-23,-25,-14
1,-13,-14,7,8,-14,0,-14,-24,-23,-25,-14
1,-13,-14,6,8,-14,1,-14,-25,-23,-25,-14
0,-14,-15,7,8,-14,1,-15,-25,-23,-25,-14
0,-15,-15,7,8,-15,2,-16,-26,-23,-25,-14
1,-16,-16,7,9,-16,2,-17,-26,-23,-25,-14
0,-16,-16,8,9,-16,2,-18,-26,-23,-25,-14
0,-16,-15,8,8,-15,2,-18,-26,-23,-25,-14
0,-16,-15,8,8,-15,2,-19,-26,-23,-24,-14
0,-15,-14,8,7,-14,2,-20,-26,-23,-24,-14
0,-15,-14,7,7,-14,2,-21,-26,-23,-24,-14
-1,-15,-13,7,6,-14,2,-22,-26,-24,-24,-14
-1,-15,-13,7,6,-13,2,-23,-26,-24,-24,-14
-1,-15,-12,7,5,-13,2,-23,-26,-24,-24,-14
-2,-15,-12,8,5,-13,2,-24,-27,-24,-24,-14
-3,-15,-12,8,5,-13,2,-25,-27,-25,-25,-14
-3,-15,-12,8,5,-13,2,-25,-27,-25,-25,-14
-2,-14,-12,8,5,-12,3,-26,-27,-25,-25,-14
-2,-14,-12,8,5,-13,3,-27,-27,-25,-25,-15
-2,-14,-13,8,6,-13,2,-28,-28,-25,-25,-15
-2,-14,-13,8,6,-13,2,-29,-28,-25,-25,-14
-2,-15,-12,8,5,-13,1,-29,-28,-25,-25,-14
-2,-15,-12,8,5,-13,1,-30,-28,-26,-25,-14
-2,-15,-11,8,5,-13,1,-30,-28,-26,-25,-14
-2,-14,-11,8,5,-12,2,-31,-28,-26,-25,-14
-3,-13,-10,8,4,-11,2,-31,-28,-26,-24,-13
-5,-14,-9,10,3,-11,2,-31,-28,-26,-24,-13
-5,-14,-9,10,3,-11,1,-32,-28,-27,-24,-14
-4,-13,-9,9,3,-11,1,-32,-28,-27,-24,-14
-4,-13,-8,8,3,-10,0,-32,-28,-27,-24,-14
-4,-13,-7,8,2,-9,0,-33,-29,-27,-24,-14
-4,-13,-7,8,2,-10,0,-33,-30,-27,-25,-14
-5,-13,-7,9,2,-10,0,-34,-30,-28,-25,-15
-5,-13,-7,9,2,-10,0,-34,-30,-28,-25,-15
-5,-13,-8,9,2,-10,0,-34,-30,-28,-25,-15
-5,-13,-8,9,2,-11,-1,-35,-31,-28,-25,-15
-5,-13,-8,9,2,-11,-1,-35,-31,-28,-26,-15
-4,-13,-8,8,3,-10,-1,-35,-31,-28,-26,-14
-4,-13,-8,8,3,-10,-1,-35,-31,-28,-25,-14
-4,-13,-8,8,3,-10,-2,-35,-31,-28,-25,-14
-4,-14,-9,9,3,-11,-2,-35,-32,-28,-25,-14
-4,-14,-9,9,3,-11,-2,-34,-32,-28,-24,-14
-4,-14,-9,9,4,-12,-2,-34,-32,-28,-24,-14
-5,-15,-9,10,3,-12,-3,-34,-32,-29,-25,-14
-6,-16,-9,11,2,-12,-3,-33,-32,-29,-25,-14
-6,-15,-8,10,1,-11,-2,-32,-31,-28,-24,-13
-6,-14,-7,10,1,-10,-1,-31,-31,-28,-23,-13
-6,-14,-7,9,1,-10,-1,-30,-31,-27,-23,-13
-6,-14,-7,9,1,-10,0,-29,-31,-27,-23,-12
-6,-13,-7,9,1,-9,0,-28,-30,-27,-23,-12
-6,-13,-7,9,1,-9,0,-27,-30,-27,-23,-12
-5,-12,-6,8,1,-8,1,-26,-30,-26,-23,-12
-4,-11,-6,7,1,-8,1,-25,-29,-26,-23,-11
-3,-10,-6,6,2,-8,2,-23,-29,-26,-23,-11
-3,-10,-5,7,1,-8,2,-22,-28,-25,-22,-10
-3,-10,-5,7,1,-7,2,-21,-27,-25,-22,-10
-3,-9,-5,6,1,-6,2,-20,-26,-24,-21,-9
-3,-9,-5,6,1,-6,2,-19,-25,-23,-21,-9
-2,-8,-5,5,1,-6,2,-18,-25,-23,-20,-8
-2,-8,-5,5,1,-6,2,-17,-24,-22,-20,-8
-2,-7,-5,5,1,-6,2,-16,-23,-22,-19,-8
-1,-7,-5,4,2,-6,3,-15,-23,-21,-19,-8
-1,-7,-5,4,2,-5,3,-14,-22,-21,-19,-8
0,-6,-4,3,2,-4,4,-13,-21,-20,-19,-7
0,-5,-4,2,2,-4,5,-12,-20,-20,-19,-7
0,-5,-4,2,2,-3,4,-12,-20,-20,-19,-7
-1,-5,-3,3,1,-3,2,-12,-20,-19,-19,-7
-1,-4,-2,3,0,-2,1,-13,-20,-19,-18,-6
-1,-3,-1,2,0,-1,0,-13,-19,-18,-17,-5
0,-1,-1,0,1,-1,0,-13,-18,-17,-16,-4
0,-1,-1,0,1,-1,0,-13,-17,-17,-16,-4
1,0,-1,0,1,0,0,-13,-17,-17,-15,-4
1,0,-1,-1,2,0,-1,-14,-17,-17,-15,-4
2,0,-1,-1,2,0,-1,-15,-18,-17,-15,-4
1,0,-1,-1,1,0,-2,-15,-18,-17,-16,-4
1,1,0,-1,1,1,-2,-16,-18,-17,-16,-4
1,1,0,-1,1,1,-2,-16,-18,-17,-16,-4
1,2,1,-1,0,2,-2,-16,-18,-17,-16,-4
1,2,2,-1,0,2,-3,-17,-18,-17,-16,-5
3,4,2,-3,1,3,-4,-17,-18,-17,-15,-4
4,6,2,-5,1,4,-4,-18,-17,-17,-14,-4
4,5,1,-5,1,4,-5,-19,-17,-17,-14,-4
4,4,1,-4,1,3,-5,-19,-18,-17,-14,-4
3,4,0,-4,1,3,-5,-19,-18,-17,-14,-4
3,3,0,-4,2,2,-5,-19,-18,-17,-14,-4
2,2,0,-3,2,1,-6,-20,-19,-18,-14,-4
2,1,0,-1,2,0,-6,-20,-19,-18,-14,-4
2,1,-1,-2,2,0,-6,-20,-19,-18,-14,-4
3,1,-1,-2,2,0,-5,-19,-17,-17,-13,-3
3,1,-2,-2,3,0,-4,-18,-16,-16,-12,-2
3,0,-3,-2,4,-1,-4,-17,-16,-16,-12,-3
2,-3,-5,0,4,-3,-3,-17,-16,-16,-13,-3
0,-5,-5,1,3,-4,-3,-17,-16,-17,-13,-4
0,-7,-6,3,3,-6,-3,-17,-17,-17,-14,-4
-1,-10,-8,5,3,-8,-3,-18,-18,-19,-15,-6
-2,-12,-9,7,3,-10,-3,-19,-20,-20,-17,-8
-3,-14,-10,8,3,-12,-3,-20,-21,-22,-19,-10
-5,-16,-11,10,3,-13,-2,-20,-23,-23,-21,-12
-6,-18,-12,12,2,-14,-2,-21,-23,-24,-22,-13
-6,-18,-12,12,3,-14,-2,-21,-24,-25,-22,-14
-6,-18,-12,11,3,-14,-1,-20,-24,-25,-22,-13
-5,-17,-11,11,3,-13,-2,-20,-24,-25,-22,-13
-5,-17,-11,10,3,-13,-2,-20,-25,-25,-23,-13
-6,-17,-10,10,3,-13,-2,-19,-25,-25,-23,-12
-7,-17,-10,11,2,-13,-1,-19,-25,-25,-23,-12
-8,-18,-10,12,2,-14,-1,-19,-25,-25,-24,-12
-7,-17,-10,12,2,-14,-1,-18,-25,-25,-24,-12
-7,-17,-10,11,2,-13,0,-17,-24,-24,-24,-12
-7,-17,-10,12,2,-13,0,-15,-24,-24,-24,-12
-7,-17,-10,12,2,-14,0,-14,-24,-24,-24,-12
-6,-18,-11,12,3,-15,0,-13,-24,-24,-24,-12
-7,-20,-12,13,4,-16,0,-13,-24,-24,-24,-12
-7,-21,-13,14,3,-16,0,-13,-24,-24,-24,-12
-7,-21,-13,13,4,-16,1,-13,-24,-24,-24,-12
-6,-20,-13,13,4,-16,1,-12,-24,-24,-24,-12
-5,-20,-14,13,4,-16,1,-12,-24,-24,-24,-13
-5,-20,-14,13,5,-17,1,-12,-24,-25,-24,-13
-5,-20,-14,13,4,-16,0,-12,-25,-25,-24,-14
-8,-20,-12,14,3,-16,0,-12,-25,-25,-24,-14
-10,-20,-10,15,1,-15,0,-12,-25,-25,-24,-13
-10,-20,-10,15,0,-15,1,-12,-25,-25,-24,-13
-9,-19,-10,13,1,-14,1,-12,-25,-24,-24,-12
-9,-19,-10,13,1,-14,1,-12,-25,-24,-24,-12
-9,-20,-11,14,1,-15,2,-11,-26,-25,-24,-13
-9,-22,-12,15,2,-17,2,-10,-26,-26,-25,-15
-9,-23,-13,16,2,-18,4,-9,-26,-26,-27,-16
-10,-23,-13,16,2,-18,8,-7,-26,-27,-28,-17
-11,-24,-12,17,1,-18,13,-5,-25,-28,-29,-18
-11,-24,-12,17,1,-18,18,0,-24,-27,-30,-18
-11,-25,-13,18,2,-19,23,5,-21,-26,-29,-18
-10,-25,-14,17,2,-19,27,13,-16,-23,-27,-17
-8,-22,-13,15,3,-18,31,21,-10,-18,-23,-14
-5,-18,-12,12,4,-15,34,30,-2,-11,-16,-9
-1,-12,-11,7,5,-12,36,38,7,-2,-8,-2
2,-6,-8,2,6,-7,38,47,18,8,1,6
6,0,-5,-3,6,-2,39,55,30,20,13,17
12,10,-2,-11,7,4,37,61,41,34,26,30
20,22,2,-21,9,12,30,64,54,49,42,46
31,38,6,-35,13,22,18,68,69,67,61,64
44,53,9,-48,18,31,4,73,84,86,80,82
54,66,12,-60,21,39,-14,74,97,104,98,100
62,80,18,-71,23,49,-35,70,108,120,115,116
69,95,26,-82,22,61,-60,62,116,135,131,132
76,112,36,-94,20,75,-84,51,125,149,146,148
78,130,52,-104,14,92,-107,40,135,164,162,163
78,151,73,-114,3,113,-127,30,148,180,179,179
75,172,97,-123,-10,135,-145,21,161,197,195,194
70,190,120,-130,-24,156,-162,9,173,211,210,208
66,203,138,-134,-35,171,-177,-9,178,218,219,217
60,203,144,-131,-41,174,-187,-27,176,217,219,217
54,189,136,-121,-40,163,-188,-37,170,209,209,206
48,168,120,-108,-35,144,-182,-38,161,194,190,186
41,144,103,-93,-29,124,-170,-35,150,176,168,163
33,121,88,-78,-26,105,-155,-36,132,153,143,137
22,98,77,-61,-26,88,-135,-47,100,117,109,106
9,75,67,-42,-28,71,-113,-64,58,74,70,73
-2,55,58,-26,-29,56,-92,-75,22,37,38,45
-10,37,49,-13,-28,43,-72,-76,0,12,15,24
-14,23,39,-4,-26,31,-55,-72,-14,-3,0,10
-16,13,30,1,-22,22,-41,-65,-22,-13,-10,1
-16,5,22,5,-18,13,-30,-58,-26,-19,-16,-5
-16,-2,13,9,-14,5,-22,-52,-29,-24,-21,-10
-16,-9,6,12,-10,-1,-15,-46,-32,-27,-26,-14
-16,-15,1,15,-8,-6,-9,-41,-33,-30,-29,-17
-17,-20,-2,19,-7,-10,-4,-36,-33,-31,-31,-20
-18,-24,-4,21,-6,-14,0,-32,-33,-32,-32,-22
-18,-26,-6,23,-5,-16,3,-28,-33,-33,-33,-23
-18,-28,-8,23,-5,-17,6,-26,-32,-32,-34,-23
-19,-28,-9,23,-5,-18,8,-24,-32,-32,-34,-23
-20,-29,-9,24,-5,-19,10,-24,-33,-33,-34,-24
-20,-30,-10,24,-4,-20,10,-23,-33,-34,-36,-25
-19,-30,-11,24,-3,-20,11,-22,-34,-34,-37,-26
-17,-28,-11,23,-2,-20,13,-21,-33,-34,-37,-26
-16,-27,-11,22,-1,-19,14,-19,-33,-33,-37,-25
-16,-27,-11,22,-2,-19,15,-18,-32,-33,-37,-25
-16,-28,-11,23,-2,-20,15,-18,-32,-33,-37,-25
-16,-30,-13,24,-1,-21,15,-18,-32,-33,-38,-26
-16,-30,-14,23,-1,-21,15,-17,-32,-33,-38,-26
-15,-29,-14,22,0,-21,15,-16,-32,-33,-39,-25
-15,-29,-14,22,0,-21,16,-15,-31,-33,-39,-25
-16,-30,-14,23,0,-22,17,-14,-31,-33,-40,-26
-16,-31,-14,24,0,-23,17,-14,-31,-33,-40,-26
-16,-32,-15,24,0,-24,18,-13,-31,-33,-40,-26
-15,-32,-16,24,0,-24,18,-13,-30,-32,-39,-25
-14,-31,-16,23,1,-23,19,-12,-29,-31,-38,-24
-14,-30,-16,22,1,-23,19,-12,-28,-30,-38,-24
-15,-30,-15,22,0,-22,18,-12,-28,-30,-38,-24
-16,-30,-15,23,0,-22,18,-12,-28,-31,-38,-25
-16,-30,-14,22,0,-22,17,-12,-28,-31,-39,-25
-16,-29,-13,22,0,-21,17,-12,-28,-31,-38,-25
-15,-28,-12,22,0,-21,17,-12,-28,-31,-38,-26
-14,-28,-13,21,0,-20,17,-12,-27,-31,-38,-26
-14,-28,-13,21,0,-20,17,-11,-26,-31,-38,-26
-14,-29,-14,22,0,-21,17,-11,-26,-31,-38,-26
-14,-30,-15,22,0,-22,17,-10,-25,-31,-38,-25
-14,-30,-16,21,1,-23,18,-10,-25,-30,-37,-25
-13,-29,-16,21,1,-23,18,-9,-24,-29,-36,-24
-13,-28,-15,20,1,-22,18,-8,-24,-28,-35,-23
-12,-27,-15,20,1,-21,18,-7,-23,-28,-35,-22
-11,-27,-15,19,2,-21,18,-7,-23,-28,-34,-22
-10,-26,-15,18,2,-20,18,-6,-22,-28,-34,-21
-9,-24,-14,17,2,-19,18,-5,-22,-27,-34,-21
-10,-24,-14,17,2,-18,17,-5,-22,-27,-34,-22
-10,-24,-14,17,2,-18,17,-4,-22,-27,-34,-22
-10,-24,-13,17,2,-18,18,-2,-21,-26,-33,-22
-11,-24,-13,18,1,-18,18,-1,-21,-25,-32,-21
-12,-25,-12,19,1,-18,19,0,-20,-24,-31,-21
-13,-26,-12,20,0,-19,19,1,-20,-24,-31,-21
-14,-27,-12,21,0,-20,19,2,-19,-23,-30,-21
-14,-27,-13,21,0,-20,19,3,-19,-23,-30,-21
-13,-27,-13,20,0,-20,19,5,-18,-23,-30,-21
-13,-27,-14,20,1,-20,20,6,-18,-23,-29,-21
-12,-26,-14,19,1,-20,20,9,-16,-22,-28,-20
-11,-25,-14,18,1,-20,22,11,-15,-21,-27,-20
-10,-24,-14,17,2,-19,23,14,-13,-20,-26,-19
-10,-23,-14,17,2,-18,25,16,-12,-19,-25,-19
-10,-23,-13,17,2,-18,26,19,-10,-18,-24,-18
-11,-23,-13,17,1,-18,27,21,-9,-17,-23,-18
-11,-24,-13,17,1,-18,27,23,-8,-16,-22,-18
-11,-23,-13,17,1,-18,28,25,-6,-16,-22,-17
-11,-23,-13,17,1,-18,28,27,-5,-15,-22,-18
-10,-23,-13,16,2,-18,28,30,-4,-14,-21,-18
-9,-23,-13,16,2,-18,29,34,-2,-13,-20,-17
-9,-23,-13,16,2,-18,31,37,0,-12,-19,-16
-9,-23,-13,16,2,-17,32,40,1,-10,-17,-14
-8,-22,-13,15,2,-17,32,43,4,-8,-16,-13
-7,-20,-13,14,3,-16,33,45,6,-6,-15,-12
-5,-19,-13,12,3,-15,33,48,8,-4,-14,-10
-3,-17,-13,10,4,-14,34,52,10,-2,-12,-9
-1,-15,-13,8,5,-13,36,55,12,0,-11,-7
0,-14,-14,8,6,-13,37,59,15,1,-10,-6
-1,-15,-14,8,6,-14,37,61,16,3,-9,-6
-1,-16,-15,9,6,-15,37,63,18,4,-8,-6
-2,-17,-15,10,7,-16,37,64,19,5,-8,-6
-2,-18,-16,10,7,-16,36,65,20,6,-8,-5
-1,-17,-17,9,8,-16,36,67,21,7,-7,-5
1,-16,-17,7,9,-16,36,68,23,8,-5,-4
3,-15,-18,6,10,-16,36,70,25,10,-4,-3
4,-15,-18,5,11,-16,35,71,26,11,-3,-2
4,-14,-18,5,11,-16,35,71,27,12,-2,-1
5,-13,-18,4,12,-15,35,72,28,13,-1,0
5,-12,-17,3,11,-14,35,72,29,14,0,1
4,-11,-16,3,11,-13,34,71,29,14,0,2
4,-12,-16,3,10,-13,33,70,29,14,0,2
4,-12,-16,3,10,-13,32,69,29,14,0,2
4,-11,-16,2,10,-13,31,68,29,15,0,3
4,-10,-15,2,10,-12,31,67,30,15,1,3
2,-10,-13,3,8,-12,30,67,30,16,2,4
2,-9,-12,3,8,-11,30,65,30,16,3,5
4,-8,-12,2,9,-10,29,63,29,16,3,6
7,-6,-13,0,10,-9,28,61,29,16,3,7
9,-5,-14,-2,11,-8,26,58,28,16,3,7
10,-4,-13,-3,11,-7,25,56,28,16,3,8
9,-3,-13,-3,11,-7,24,54,27,15,3,8
8,-4,-12,-2,10,-7,22,51,25,14,2,8
7,-4,-11,-2,9,-7,20,48,24,13,1,8
7,-4,-11,-2,10,-7,19,45,22,11,0,7
8,-3,-11,-3,10,-7,17,42,20,10,-1,7
8,-3,-11,-3,10,-7,16,39,18,10,-1,7
9,-2,-11,-3,11,-7,16,36,17,9,0,7
9,-2,-11,-4,11,-7,15,34,17,9,0,7
9,-2,-11,-4,11,-6,15,32,16,9,0,7
9,-2,-11,-4,10,-6,14,29,14,8,0,7
9,-2,-11,-4,10,-6,12,27,12,7,-1,7
8,-2,-11,-3,10,-6,11,24,10,5,-2,7
7,-2,-10,-3,8,-5,11,22,9,5,-3,8
6,-2,-8,-2,7,-4,10,21,8,5,-3,8
6,-1,-7,-2,7,-4,10,19,7,4,-3,7
6,-2,-7,-1,7,-4,9,17,6,3,-4,6
5,-3,-8,0,7,-5,8,15,4,2,-5,5
4,-4,-8,0,7,-6,7,13,3,1,-6,5
4,-5,-9,0,7,-6,7,12,1,0,-7,4
3,-6,-9,1,7,-7,7,10,0,-1,-7,4
3,-7,-10,2,7,-8,7,9,-1,-2,-7,4
3,-7,-10,2,6,-8,6,8,-1,-2,-7,4
3,-7,-9,2,6,-8,6,8,-2,-3,-7,4
3,-7,-9,1,6,-8,6,7,-2,-3,-8,4
3,-6,-9,1,6,-8,6,6,-3,-4,-8,3
3,-6,-9,1,6,-8,6,6,-4,-4,-9,3
2,-6,-8,2,5,-7,6,5,-4,-5,-9,3
2,-6,-8,2,5,-7,6,4,-5,-5,-10,3
2,-6,-8,2,5,-7,6,4,-5,-5,-10,2
2,-7,-9,2,5,-7,5,3,-6,-6,-11,1
2,-7,-10,2,6,-8,5,3,-7,-6,-12,0
2,-8,-11,2,7,-9,5,2,-7,-7,-12,0
1,-9,-10,4,6,-10,5,2,-7,-7,-12,-1
0,-9,-9,4,6,-9,5,1,-7,-7,-11,0
0,-8,-9,4,5,-8,5,1,-7,-7,-11,0
0,-7,-8,3,5,-8,6,1,-7,-7,-10,1
0,-7,-8,3,4,-7,6,1,-7,-7,-10,1
1,-7,-8,2,4,-7,7,1,-8,-8,-11,1
0,-7,-7,3,3,-7,7,0,-8,-8,-11,1
-2,-8,-7,5,2,-7,6,0,-8,-9,-11,0
-2,-8,-6,5,2,-7,7,-1,-8,-9,-12,0
-1,-7,-6,4,3,-6,8,-1,-8,-9,-12,0
-1,-7,-6,4,3,-6,8,-1,-9,-10,-13,0
0,-7,-7,4,4,-7,9,-1,-9,-10,-13,-1
0,-7,-7,3,5,-7,10,-1,-8,-9,-12,0
0,-9,-8,4,5,-8,10,-1,-8,-9,-12,0
-2,-11,-9,7,4,-9,10,-1,-8,-9,-13,-1
-3,-12,-9,8,3,-10,11,-1,-8,-9,-13,-1
-3,-12,-10,7,4,-10,12,-2,-8,-9,-13,-1
-2,-12,-10,7,4,-10,13,-2,-8,-9,-13,-1
-1,-11,-10,6,5,-10,14,-3,-8,-9,-13,0
-2,-11,-9,7,4,-10,13,-4,-9,-10,-13,0
-3,-12,-9,7,3,-10,12,-6,-9,-10,-13,0
-2,-10,-9,6,4,-9,12,-6,-9,-10,-12,0
-1,-9,-8,4,4,-8,13,-7,-8,-10,-12,1
-2,-8,-7,4,3,-7,14,-7,-8,-10,-12,1
-2,-8,-6,4,2,-6,14,-8,-8,-10,-12,0
-2,-7,-6,4,2,-6,14,-8,-8,-10,-12,0
-3,-8,-6,5,2,-7,14,-9,-8,-10,-13,0
-3,-8,-5,5,1,-7,15,-9,-8,-10,-13,0
-3,-9,-6,5,2,-7,15,-10,-9,-10,-14,-1
-2,-9,-6,5,3,-7,15,-10,-9,-10,-14,-1
-2,-8,-6,4,3,-7,15,-10,-9,-10,-14,-1
-2,-7,-5,4,2,-6,15,-10,-9,-9,-14,0
-1,-7,-6,3,3,-6,14,-11,-9,-9,-14,0
-2,-7,-6,4,3,-6,14,-11,-9,-9,-14,0
-2,-8,-6,4,2,-6,14,-12,-9,-9,-14,0
-3,-8,-6,5,2,-7,14,-12,-9,-10,-15,0
-5,-10,-6,7,1,-8,13,-13,-10,-11,-16,0
-6,-12,-6,9,0,-8,12,-15,-11,-12,-17,-1
-5,-11,-7,8,1,-8,12,-16,-12,-12,-18,-1
-4,-11,-7,7,2,-8,12,-16,-12,-12,-18,-1
-5,-11,-7,8,1,-9,12,-16,-12,-12,-18,-2
-6,-11,-6,8,1,-9,12,-17,-13,-12,-18,-2
-5,-10,-6,7,0,-7,12,-17,-12,-12,-18,-1
-4,-8,-5,6,0,-6,12,-17,-12,-12,-18,0
-4,-8,-4,6,0,-5,11,-17,-12,-12,-18,0
-5,-8,-3,6,0,-5,11,-18,-13,-12,-18,0
-5,-8,-3,6,-1,-5,10,-18,-13,-13,-18,0
-5,-8,-2,6,-1,-4,10,-18,-13,-13,-18,0
-4,-7,-2,6,-1,-4,10,-18,-13,-13,-17,0
-5,-8,-3,6,-1,-4,10,-18,-14,-13,-18,0
-6,-9,-3,7,-1,-5,10,-19,-14,-13,-18,-1
-6,-8,-3,7,-1,-5,10,-18,-14,-13,-18,0
-5,-7,-2,6,-1,-5,10,-18,-14,-13,-18,0
-5,-7,-2,6,-1,-5,9,-18,-15,-14,-18,-1
-5,-7,-3,6,0,-5,9,-18,-15,-14,-18,-1
-5,-8,-3,7,0,-5,9,-18,-15,-14,-19,-2
-6,-9,-3,7,0,-6,9,-18,-16,-15,-19,-2
-6,-9,-3,7,0,-6,10,-17,-16,-15,-19,-2
-5,-8,-4,6,0,-6,10,-16,-16,-15,-19,-2
-4,-7,-4,5,0,-5,11,-15,-15,-14,-19,-2
-3,-6,-4,4,0,-5,11,-14,-15,-14,-18,-1
-3,-6,-3,4,0,-5,11,-13,-15,-14,-18,-1
-3,-6,-3,4,0,-4,12,-12,-15,-13,-17,-1
-3,-5,-2,3,0,-3,12,-11,-14,-12,-17,0
-2,-4,-2,2,1,-3,13,-10,-13,-11,-16,0
-1,-3,-1,2,1,-2,14,-9,-13,-11,-15,1
-1,-3,-1,1,1,-2,15,-8,-12,-10,-15,1
-1,-3,-2,1,1,-2,16,-7,-12,-10,-14,2
-1,-4,-2,2,1,-3,16,-6,-11,-10,-14,2
-2,-4,-2,2,0,-3,16,-5,-11,-9,-14,3
-1,-4,-2,2,1,-3,16,-4,-10,-9,-14,3
-1,-3,-2,1,1,-2,17,-4,-10,-9,-14,3
-1,-2,-1,1,0,-1,17,-3,-9,-8,-13,4
-1,-3,-1,2,0,-1,17,-2,-8,-7,-13,4
-2,-4,-1,2,0,-2,16,-2,-8,-7,-13,3
-1,-3,-1,1,0,-2,16,-1,-8,-7,-13,3
0,-2,-1,0,1,-1,17,0,-7,-6,-13,3
0,-1,-2,0,1,-1,17,1,-6,-6,-13,3
1,-1,-2,-1,2,-1,18,2,-5,-5,-12,4
1,0,-2,-1,2,-1,17,2,-4,-4,-11,5
3,2,-1,-3,3,0,16,2,-3,-3,-10,6
4,4,-1,-4,3,2,15,2,-2,-2,-10,7
5,5,0,-5,3,3,14,2,-1,-2,-9,8
4,6,1,-5,2,4,14,2,-1,-2,-9,8
2,4,1,-4,0,3,13,1,-2,-2,-9,8
1,3,1,-3,0,3,12,1,-2,-2,-9,7
2,4,2,-3,0,4,11,0,-2,-2,-9,7
2,6,2,-4,0,5,11,-1,-2,-2,-9,7
4,8,3,-6,0,6,11,-1,-2,-2,-9,8
5,10,3,-7,1,7,11,-1,-1,-1,-8,8
6,11,3,-8,1,7,11,-1,-1,-1,-8,9
6,10,3,-8,1,6,11,-1,-1,0,-8,9
5,9,2,-7,1,6,11,-1,-1,0,-8,9
6,9,2,-8,2,6,10,-2,-1,0,-8,9
7,10,2,-8,2,7,9,-3,-2,-1,-8,9
6,9,2,-7,2,6,8,-4,-2,-1,-8,8
3,6,2,-4,0,5,7,-5,-3,-2,-9,8
0,3,2,-2,0,3,7,-5,-3,-2,-9,8
0,3,1,-2,0,3,7,-5,-3,-2,-10,8
1,3,1,-3,1,2,7,-5,-3,-2,-10,8
3,4,1,-4,1,3,7,-5,-2,-2,-10,8
4,5,1,-5,1,4,9,-3,-1,0,-9,9
5,6,1,-6,2,4,10,-1,1,1,-7,11
5,6,0,-6,2,4,11,0,2,2,-6,12
5,4,-1,-4,3,2,12,1,2,2,-6,12
4,1,-3,-3,3,0,11,0,1,1,-7,11
2,-2,-4,0,3,-2,10,0,0,0,-9,9
0,-6,-4,3,2,-4,9,-2,-2,-2,-11,7
-2,-8,-5,5,2,-6,9,-3,-3,-3,-13,6
-2,-8,-5,5,2,-6,10,-3,-4,-3,-14,5
-1,-8,-6,4,2,-6,11,-3,-4,-4,-16,4
-1,-8,-7,4,3,-7,12,-3,-5,-5,-18,3
-1,-9,-8,5,3,-8,13,-4,-6,-6,-20,2
-2,-10,-9,6,3,-9,13,-4,-6,-7,-21,1
-1,-10,-9,6,4,-9,13,-3,-6,-8,-21,0
-1,-11,-10,6,4,-10,13,-3,-6,-8,-22,0
-2,-12,-10,6,4,-10,13,-3,-7,-8,-22,0
-2,-13,-11,7,4,-11,12,-3,-8,-9,-23,-1
-2,-14,-11,8,4,-12,11,-3,-8,-9,-23,-1
-2,-14,-11,8,4,-12,11,-3,-7,-9,-23,-1
-4,-14,-11,9,3,-12,11,-3,-7,-9,-23,-2
-5,-15,-10,10,2,-12,11,-2,-7,-9,-22,-1
-6,-15,-9,10,2,-12,12,-2,-7,-8,-21,-1
-7,-16,-9,11,2,-12,12,-2,-7,-8,-21,-1
-7,-16,-10,11,2,-13,12,-2,-8,-9,-21,-1
-7,-16,-10,12,2,-13,12,-2,-8,-9,-20,-1
-7,-16,-10,12,2,-13,12,-1,-8,-9,-20,0
-6,-16,-11,12,3,-14,13,-1,-7,-8,-20,0
-6,-16,-11,12,2,-14,13,0,-7,-8,-20,1
-7,-17,-10,12,2,-13,13,0,-7,-8,-20,1
-7,-17,-10,12,1,-13,13,0,-7,-8,-20,1
-6,-16,-10,11,2,-13,14,0,-7,-8,-20,1
-5,-16,-10,10,3,-13,14,0,-7,-8,-20,1
-5,-17,-11,11,3,-14,14,0,-8,-9,-21,0
-7,-18,-11,13,2,-14,13,-1,-9,-9,-21,-1
-8,-20,-12,14,2,-15,13,-1,-9,-10,-22,-2
-9,-21,-13,15,2,-16,14,-1,-9,-10,-22,-3
-8,-22,-14,15,3,-17,15,0,-9,-10,-22,-3
-7,-22,-15,14,4,-18,16,1,-9,-10,-23,-4
-7,-23,-16,15,4,-19,18,2,-10,-11,-24,-5
-7,-23,-16,15,4,-19,21,3,-10,-11,-24,-6
-7,-23,-16,15,4,-19,25,6,-8,-11,-24,-6
-7,-23,-16,16,4,-20,30,11,-6,-10,-24,-6
-8,-23,-16,16,4,-20,35,18,-3,-8,-23,-5
-7,-22,-16,15,4,-19,39,25,1,-5,-21,-4
-4,-20,-15,12,5,-17,43,33,7,0,-17,-1
-2,-16,-14,9,5,-14,46,42,15,6,-11,3
0,-11,-11,5,5,-10,49,50,26,15,-3,10
2,-6,-9,1,5,-6,51,59,37,26,6,19
6,0,-6,-3,5,-2,53,67,49,38,18,30
12,10,-2,-11,7,5,52,75,62,53,32,43
21,24,2,-22,9,14,45,80,76,69,49,59
31,39,7,-35,11,23,35,86,91,88,68,78
42,53,10,-48,15,32,22,92,108,108,88,96
54,67,13,-60,19,41,6,95,122,126,107,114
63,81,18,-72,21,50,-14,92,133,142,125,130
68,95,27,-82,20,62,-37,82,141,156,140,146
71,111,40,-91,15,76,-60,69,148,169,155,161
71,129,58,-100,7,94,-81,55,156,183,170,175
69,149,80,-109,-5,115,-101,42,166,197,185,190
66,170,104,-117,-19,137,-119,31,177,211,200,204
63,189,127,-125,-32,158,-135,17,185,222,212,216
59,202,144,-130,-43,173,-150,-3,187,228,220,224
55,203,148,-129,-47,176,-161,-22,182,225,218,223
50,188,138,-119,-45,164,-164,-33,173,214,206,210
41,162,121,-102,-40,142,-159,-36,161,197,185,188
32,134,102,-83,-35,119,-149,-35,148,176,160,162
24,110,85,-67,-30,98,-135,-35,129,151,133,135
16,88,71,-52,-27,80,-117,-44,97,116,100,105
9,70,60,-39,-26,65,-97,-58,58,75,64,74
2,53,51,-27,-25,52,-78,-67,24,41,35,48
-5,37,43,-16,-24,40,-61,-68,3,17,14,29
-11,24,35,-7,-23,30,-45,-63,-8,3,1,16
-15,13,29,0,-22,21,-32,-57,-15,-6,-8,7
-17,4,22,5,-20,14,-21,-50,-19,-12,-14,1
-16,0,15,8,-16,8,-11,-42,-21,-15,-18,-3
-15,-5,9,10,-12,2,-3,-35,-22,-18,-22,-7
-15,-10,4,13,-10,-3,2,-30,-23,-20,-25,-10
-15,-15,-1,16,-7,-8,7,-25,-23,-22,-27,-13
-15,-19,-4,18,-6,-11,12,-21,-23,-23,-29,-15
-16,-23,-7,19,-5,-14,15,-18,-22,-23,-30,-16
-16,-25,-8,20,-3,-16,18,-15,-22,-23,-30,-17
-16,-27,-10,21,-2,-18,20,-13,-21,-23,-31,-18
-16,-29,-12,22,-1,-20,21,-11,-20,-23,-31,-18
-16,-29,-14,22,0,-21,23,-10,-20,-23,-32,-19
-15,-30,-15,22,0,-22,24,-8,-20,-23,-33,-19
-14,-30,-16,22,1,-23,25,-7,-20,-23,-33,-20
-15,-32,-17,23,1,-24,26,-6,-20,-24,-34,-20
-15,-33,-17,24,1,-24,27,-5,-20,-24,-34,-20
-15,-33,-17,23,1,-24,27,-5,-19,-24,-34,-20
-16,-33,-17,24,0,-24,27,-5,-19,-24,-34,-20
-17,-33,-17,24,0,-24,26,-5,-19,-24,-33,-19
-17,-33,-17,25,0,-25,26,-5,-19,-23,-33,-19
-18,-34,-17,26,-1,-25,26,-5,-19,-23,-33,-19
-17,-34,-16,25,0,-24,27,-4,-19,-23,-33,-19
-16,-33,-16,24,0,-24,28,-3,-18,-23,-33,-20
-15,-32,-16,23,0,-23,28,-2,-18,-23,-33,-20
-15,-32,-16,23,1,-23,29,-1,-17,-23,-33,-20
-15,-33,-17,23,1,-24,29,-1,-17,-23,-33,-20
-14,-33,-18,23,1,-25,29,-1,-16,-22,-33,-20
-14,-33,-19,23,2,-26,30,-1,-16,-22,-32,-20
-14,-32,-19,23,2,-25,30,0,-15,-21,-32,-20
-14,-33,-19,23,2,-25,30,0,-15,-21,-31,-20
-13,-32,-19,23,2,-25,30,1,-15,-20,-30,-20
-12,-32,-19,22,3,-25,30,1,-15,-19,-29,-20
-12,-32,-19,21,3,-25,29,1,-14,-19,-28,-19
-13,-32,-19,22,2,-25,29,1,-14,-19,-28,-19
-14,-33,-19,23,2,-25,28,1,-14,-19,-28,-19
-14,-33,-19,23,2,-26,28,2,-14,-19,-29,-19
-14,-33,-19,24,2,-26,28,2,-14,-19,-29,-19
-14,-33,-19,24,2,-26,28,3,-14,-19,-30,-19
-14,-33,-19,23,2,-26,28,3,-13,-19,-30,-19
-13,-33,-19,23,2,-25,28,4,-13,-18,-29,-18
-13,-33,-19,22,2,-25,28,4,-13,-18,-29,-18
-13,-33,-19,22,2,-26,27,4,-13,-18,-30,-19
-14,-33,-18,23,2,-26,27,4,-12,-17,-30,-19
-15,-33,-18,23,1,-26,27,5,-12,-17,-30,-18
-14,-32,-18,23,2,-26,28,7,-11,-17,-30,-18
-13,-32,-18,23,2,-25,28,8,-11,-17,-30,-18
-13,-32,-18,23,2,-25,28,9,-11,-17,-30,-18
-14,-32,-18,23,2,-25,28,10,-10,-16,-30,-18
-13,-32,-18,22,2,-25,29,11,-9,-15,-30,-18
-12,-31,-18,21,2,-24,29,12,-8,-14,-29,-17
-11,-31,-19,21,3,-24,29,13,-7,-13,-29,-17
-10,-30,-19,20,4,-24,30,15,-6,-12,-28,-16
-11,-29,-18,20,4,-24,31,16,-5,-12,-28,-15
-12,-30,-18,21,3,-24,31,18,-5,-11,-28,-15
-12,-30,-18,21,3,-24,32,20,-4,-11,-28,-15
-11,-30,-19,21,3,-24,33,22,-2,-10,-27,-15
-11,-31,-19,21,3,-25,34,23,-1,-10,-27,-16
-11,-32,-20,21,3,-26,35,25,0,-10,-27,-16
-11,-32,-20,21,4,-26,36,27,0,-9,-27,-16
-11,-32,-20,21,4,-26,36,30,2,-9,-26,-16
-10,-31,-20,20,5,-26,37,32,4,-7,-24,-15
-8,-29,-21,19,6,-25,38,35,6,-5,-22,-13
-7,-27,-21,17,7,-24,39,37,7,-3,-21,-12
-6,-26,-20,16,7,-23,40,40,10,-1,-19,-10
-6,-26,-20,16,7,-23,41,42,12,0,-18,-9
-6,-28,-21,17,7,-24,41,44,13,1,-18,-10
-6,-28,-21,17,7,-24,41,47,14,1,-18,-10
-5,-27,-21,16,8,-24,42,50,16,2,-17,-9
-5,-26,-20,15,8,-23,42,52,18,4,-17,-8
-5,-25,-20,14,8,-22,42,55,20,5,-16,-7
-5,-24,-20,14,8,-22,42,57,21,7,-15,-6
-4,-24,-20,14,8,-22,43,59,23,8,-15,-5
-4,-24,-20,13,8,-22,43,61,24,9,-14,-5
-3,-24,-21,13,8,-22,43,63,26,10,-14,-5
-2,-23,-20,12,9,-21,43,65,28,11,-13,-4
-1,-21,-20,10,9,-20,43,67,30,13,-11,-3
0,-19,-19,9,10,-19,43,69,32,16,-10,-2
0,-19,-19,9,10,-19,43,70,34,17,-9,-1
0,-19,-20,9,10,-19,42,70,34,18,-8,-1
2,-18,-21,7,11,-19,42,71,36,20,-7,0
4,-16,-21,6,12,-18,41,72,37,21,-6,2
3,-17,-20,7,11,-18,41,72,38,22,-5,4
1,-19,-19,9,9,-18,40,71,38,23,-4,5
0,-18,-19,9,9,-18,39,71,38,23,-4,5
2,-17,-19,7,10,-17,38,71,38,23,-4,6
3,-15,-20,6,11,-17,37,71,38,24,-4,6
4,-15,-20,5,12,-17,36,70,38,24,-4,6
3,-15,-19,6,11,-17,35,69,38,24,-4,6
2,-16,-18,6,10,-17,34,67,38,24,-4,6
3,-14,-17,5,10,-15,32,66,37,24,-4,7
6,-10,-17,1,11,-13,31,64,37,25,-3,8
9,-7,-17,-1,12,-12,31,63,37,25,-3,9
8,-7,-16,-1,12,-11,30,61,36,24,-3,9
6,-9,-16,1,11,-12,28,59,34,22,-3,8
5,-9,-15,2,10,-12,26,56,33,21,-3,8
5,-9,-15,2,10,-12,25,54,32,21,-4,7
6,-9,-15,2,11,-12,24,52,30,20,-4,6
7,-9,-15,1,11,-12,23,49,29,20,-4,6
7,-9,-15,1,10,-12,22,47,28,19,-4,7
6,-8,-15,1,10,-11,22,45,27,19,-3,7
6,-7,-14,0,10,-10,21,43,26,19,-3,8
7,-6,-14,0,10,-9,20,40,24,18,-3,8
8,-5,-14,-1,11,-9,18,37,23,17,-3,8
8,-4,-14,-1,11,-8,17,35,21,16,-4,8
8,-4,-13,-2,11,-8,16,32,19,14,-5,7
8,-4,-13,-2,10,-8,15,30,17,13,-6,7
8,-4,-12,-2,9,-8,15,28,16,12,-7,6
8,-3,-12,-2,9,-7,14,26,14,11,-7,6
7,-4,-12,-1,8,-7,13,24,13,9,-8,5
5,-5,-11,0,7,-7,12,22,11,8,-9,4
3,-6,-10,2,6,-7,12,20,10,8,-9,4
3,-6,-9,2,6,-7,12,18,9,7,-8,4
3,-6,-9,1,6,-7,12,17,8,7,-8,4
4,-6,-9,1,6,-7,13,16,7,6,-8,4
4,-6,-9,1,7,-8,13,15,6,5,-9,3
3,-7,-9,2,6,-8,12,13,5,4,-10,2
1,-8,-8,3,5,-8,12,12,4,3,-11,1
1,-7,-8,3,5,-8,12,11,3,2,-12,0
1,-7,-9,3,5,-8,12,10,2,1,-13,0
2,-6,-9,2,6,-7,13,10,1,1,-12,0
2,-6,-8,2,5,-7,14,9,1,1,-12,0
2,-5,-8,1,5,-6,14,8,1,1,-12,1
3,-4,-7,1,5,-6,15,8,1,1,-11,1
2,-5,-7,1,4,-6,15,7,0,1,-11,1
1,-5,-7,2,4,-6,15,6,0,0,-11,0
3,-4,-8,1,5,-6,16,6,0,0,-11,1
4,-3,-9,0,6,-6,17,6,0,0,-10,1
5,-4,-9,0,7,-6,17,6,0,0,-10,1
3,-5,-9,1,6,-7,17,6,-1,-1,-10,0
2,-7,-9,2,5,-8,17,5,-2,-1,-10,0
1,-8,-9,3,5,-8,18,5,-2,-1,-11,0
1,-8,-9,2,5,-8,18,4,-3,-1,-11,0
1,-7,-9,2,5,-7,19,4,-3,-1,-11,0
0,-7,-8,3,4,-7,19,4,-3,-1,-11,0
0,-8,-7,4,4,-7,19,3,-3,-2,-11,0
0,-8,-7,4,4,-7,19,2,-3,-2,-11,0
0,-7,-7,3,4,-6,19,2,-3,-2,-11,0
0,-7,-7,3,3,-6,20,1,-3,-3,-12,-1
0,-7,-7,4,3,-6,20,1,-3,-3,-12,-1
0,-7,-7,4,3,-6,21,2,-3,-3,-13,-1
0,-7,-8,4,3,-7,21,2,-4,-3,-13,-2
0,-7,-8,4,4,-7,22,2,-4,-3,-13,-2
1,-7,-8,3,5,-7,22,2,-3,-2,-13,-1
2,-7,-8,3,5,-8,23,2,-3,-2,-12,-1
1,-7,-9,3,5,-8,23,1,-4,-2,-12,-1
1,-7,-9,3,5,-8,23,1,-4,-2,-12,-1
0,-7,-9,3,4,-7,23,1,-4,-2,-12,-1
0,-7,-9,3,4,-7,23,0,-4,-2,-12,-1
0,-7,-8,3,4,-7,23,0,-4,-2,-11,-1
0,-8,-7,4,3,-7,22,0,-4,-2,-10,-1
-2,-9,-7,5,2,-7,21,-1,-4,-3,-11,-1
-2,-9,-6,6,2,-7,20,-1,-5,-3,-11,-1
-2,-8,-5,5,1,-6,20,-1,-5,-3,-11,-1
-2,-7,-4,5,1,-5,20,-1,-5,-2,-11,-1
-2,-6,-4,4,1,-5,20,-2,-5,-2,-11,-1
-2,-6,-5,4,1,-5,19,-2,-5,-2,-11,-1
-2,-7,-5,5,0,-5,19,-2,-5,-2,-11,-1
-1,-7,-5,5,1,-5,19,-2,-5,-2,-11,-1
0,-6,-6,4,2,-5,19,-2,-5,-2,-11,-1
-1,-7,-6,4,2,-6,19,-2,-5,-2,-11,-1
0,-6,-5,4,2,-6,19,-2,-5,-2,-10,-1
0,-6,-5,3,2,-5,19,-2,-4,-2,-9,-1
-2,-8,-5,5,1,-6,17,-3,-5,-2,-9,-1
-4,-10,-6,7,0,-7,15,-5,-6,-3,-9,-2
-5,-11,-6,8,0,-7,14,-6,-7,-3,-9,-2
-4,-10,-5,8,0,-7,14,-6,-7,-3,-8,-2
-4,-9,-4,7,0,-6,13,-7,-7,-3,-8,-2
-4,-8,-4,7,0,-6,13,-7,-7,-3,-8,-2
-3,-7,-3,6,0,-5,13,-7,-7,-3,-8,-2
-2,-6,-3,5,0,-5,13,-7,-7,-3,-8,-2
-2,-6,-3,4,0,-5,13,-7,-7,-3,-7,-2
-1,-5,-3,4,0,-4,13,-7,-7,-3,-7,-2
-1,-4,-3,3,0,-3,13,-7,-7,-3,-7,-2
-1,-3,-2,3,0,-2,13,-7,-7,-3,-6,-2
-1,-3,-2,3,1,-2,14,-7,-7,-4,-6,-2
-1,-4,-3,3,1,-3,14,-8,-8,-4,-6,-2
-1,-5,-3,4,1,-4,14,-8,-8,-5,-6,-3
-1,-4,-3,3,1,-4,14,-8,-8,-4,-5,-2
0,-4,-3,3,1,-4,14,-8,-8,-4,-4,-2
-1,-6,-4,4,1,-5,13,-8,-9,-4,-3,-2
-2,-7,-4,5,1,-5,13,-9,-9,-4,-2,-2
-2,-6,-3,5,1,-5,13,-9,-9,-3,-2,-2
-1,-5,-3,4,1,-4,14,-9,-9,-3,-1,-2
-1,-4,-2,3,1,-3,14,-9,-9,-3,-1,-2
0,-3,-2,2,1,-2,14,-9,-9,-3,-1,-2
1,-1,-1,0,1,-1,14,-8,-9,-3,-1,-2
1,0,-1,0,0,0,15,-7,-8,-2,0,-1
0,-1,0,0,0,0,15,-6,-8,-2,0,-1
-1,-2,0,1,-1,0,15,-6,-8,-2,0,-1
0,-1,0,1,0,0,16,-5,-7,-1,0,-1
2,2,0,-1,0,1,18,-4,-6,0,1,0
3,4,0,-3,1,2,19,-3,-5,1,2,1
3,3,1,-2,1,2,18,-2,-5,0,2,1
2,3,0,-2,1,1,18,-2,-5,0,2,1
2,2,0,-2,1,1,17,-2,-6,0,2,0
2,2,0,-1,1,0,17,-2,-6,0,2,0
2,2,0,-1,1,0,17,-1,-5,0,2,0
2,2,0,-1,1,0,17,-1,-5,1,3,1
3,2,0,-2,1,0,17,0,-5,1,3,1
3,3,0,-3,2,1,17,0,-4,2,3,2
4,3,0,-3,2,1,17,0,-4,2,3,2
4,4,0,-3,2,1,16,0,-4,2,3,2
4,4,0,-3,2,2,15,0,-3,2,4,2
5,6,1,-4,2,3,14,0,-3,3,4,2
5,8,2,-6,1,5,13,1,-2,3,5,3
5,9,4,-7,1,6,12,1,-2,4,6,3
5,10,4,-7,0,7,12,0,-1,4,6,3
5,10,5,-7,0,8,11,0,-1,4,6,3
6,11,5,-8,0,8,10,0,-1,4,6,3
6,11,6,-8,0,9,10,0,-1,4,7,3
7,12,6,-9,0,9,10,0,-1,5,7,3
9,15,6,-12,1,10,10,0,0,5,7,4
11,16,6,-13,2,11,9,0,0,6,7,4
8,14,6,-11,1,10,8,-1,-1,5,6,3
5,11,6,-8,0,9,6,-2,-2,4,5,2
5,11,6,-8,0,9,5,-2,-2,4,4,2
6,13,6,-9,0,10,5,-2,-2,4,4,3
6,13,7,-9,0,10,4,-2,-2,4,4,3
6,13,7,-9,-1,10,3,-3,-2,4,4,3
6,13,7,-9,-1,10,2,-3,-2,3,4,3
6,13,7,-9,0,10,2,-3,-2,3,4,3
6,12,6,-9,0,9,1,-3,-3,3,4,2
6,12,6,-9,0,9,1,-3,-2,3,5,2
6,12,6,-9,0,10,2,-2,-1,4,6,3
6,11,6,-8,0,10,2,-1,0,4,6,3
6,10,5,-8,0,9,2,0,0,4,6,3
7,10,4,-8,1,8,2,1,0,4,6,3
8,10,2,-8,2,7,3,1,0,4,6,3
8,9,1,-8,3,5,3,1,0,4,6,3
8,8,0,-7,4,4,3,1,0,4,5,2
8,7,-1,-7,4,3,3,1,0,3,5,2
8,6,-2,-6,5,2,4,1,-1,2,4,0
5,2,-3,-3,4,0,4,0,-3,0,2,-2
2,-2,-3,0,3,-2,3,-2,-5,-2,-1,-4
1,-4,-5,2,3,-5,3,-3,-7,-4,-3,-6
0,-6,-6,3,3,-6,3,-4,-9,-6,-5,-8
-1,-7,-6,4,3,-7,3,-4,-9,-6,-6,-9
-1,-8,-7,5,3,-7,4,-4,-9,-6,-6,-9
-1,-7,-6,4,3,-7,4,-3,-9,-6,-5,-9
0,-5,-6,2,3,-5,5,-2,-8,-5,-4,-8
2,-3,-6,1,4,-4,5,-1,-8,-5,-4,-7
1,-4,-6,2,4,-5,5,-1,-8,-5,-4,-8
-1,-7,-6,4,2,-6,5,-2,-9,-6,-4,-9
-3,-8,-6,6,2,-7,5,-2,-10,-7,-4,-9
-2,-8,-6,6,2,-7,6,-2,-10,-7,-4,-10
-2,-8,-6,5,2,-8,6,-1,-10,-8,-4,-10
-2,-8,-6,5,2,-8,6,-1,-10,-8,-4,-10
-2,-8,-6,5,2,-7,5,-1,-10,-8,-3,-10
-2,-8,-6,5,2,-7,5,-1,-10,-8,-3,-10
-2,-8,-6,5,2,-7,5,0,-10,-8,-2,-10
-1,-7,-6,4,2,-7,6,0,-10,-8,-2,-10
-1,-7,-6,4,2,-6,6,0,-10,-8,-1,-10
-2,-7,-5,5,1,-6,7,0,-10,-8,-1,-10
-2,-7,-5,5,1,-6,7,1,-10,-8,0,-10
-2,-7,-5,4,2,-6,7,1,-10,-8,0,-10
-1,-7,-6,4,3,-6,6,1,-10,-8,0,-10
0,-6,-7,3,4,-6,6,1,-10,-8,0,-10
1,-6,-7,3,4,-6,6,1,-11,-8,0,-10
1,-6,-7,3,4,-6,6,1,-11,-8,0,-10
1,-6,-7,3,4,-6,6,1,-12,-8,0,-10
0,-7,-7,4,4,-7,7,1,-12,-9,0,-11
0,-7,-8,4,4,-8,8,3,-12,-9,0,-11
0,-8,-9,4,5,-9,10,4,-12,-10,-1,-13
-1,-11,-10,7,4,-10,13,5,-12,-12,-3,-15
-3,-14,-10,9,3,-11,16,8,-11,-13,-4,-17
-4,-15,-10,10,3,-12,21,14,-9,-12,-4,-17
-5,-16,-11,11,3,-13,25,20,-5,-10,-3,-17
-4,-16,-11,11,3,-13,28,28,0,-6,-1,-16
-2,-13,-10,8,4,-12,31,35,7,0,3,-12
1,-7,-9,4,4,-9,33,43,15,7,10,-6
4,0,-6,-1,4,-3,34,51,26,18,20,2
7,6,-2,-7,4,2,35,59,37,29,31,12
12,15,2,-13,5,9,34,66,49,43,44,24
20,28,8,-24,6,18,31,71,63,58,59,40
30,44,13,-36,8,29,22,75,77,76,78,58
39,57,18,-48,10,38,9,79,92,96,97,76
48,70,21,-58,13,45,-6,82,107,115,116,94
56,83,26,-69,15,54,-24,81,119,133,135,111
63,97,33,-80,14,65,-46,73,128,148,151,128
69,114,44,-91,12,79,-68,61,134,162,167,143
72,131,59,-101,7,95,-89,46,140,174,181,158
72,150,78,-111,-2,115,-109,32,148,187,195,172
69,171,102,-119,-15,137,-128,19,157,200,209,185
64,190,126,-126,-30,158,-145,6,166,211,221,198
57,205,148,-130,-45,177,-161,-11,170,219,230,207
52,212,160,-131,-54,186,-175,-31,167,219,232,210
48,206,158,-126,-55,182,-184,-48,158,211,224,203
44,189,145,-116,-50,167,-183,-55,147,197,208,186
39,165,126,-102,-43,146,-176,-55,135,179,186,163
32,139,108,-85,-38,124,-165,-54,119,156,160,137
22,115,93,-68,-35,104,-150,-58,94,126,130,108
13,93,80,-52,-33,87,-133,-69,59,88,94,76
6,75,69,-39,-32,72,-114,-79,24,50,61,47
0,60,60,-29,-30,60,-95,-82,0,23,36,24
-5,45,51,-19,-28,48,-79,-78,-16,5,18,8
-10,32,42,-11,-27,37,-65,-71,-25,-6,6,-3
-11,23,34,-6,-23,29,-52,-63,-29,-12,-1,-10
-10,16,27,-3,-19,22,-42,-55,-31,-16,-5,-15
-11,9,20,1,-16,15,-34,-49,-32,-19,-9,-19
-12,2,14,5,-13,8,-27,-43,-33,-21,-12,-22
-12,-2,9,7,-11,3,-21,-37,-32,-22,-14,-23
-10,-4,6,7,-8,0,-15,-31,-31,-22,-14,-24
-9,-6,3,8,-6,-2,-11,-27,-29,-22,-15,-25
-9,-8,1,9,-6,-4,-8,-25,-29,-22,-15,-25
-9,-10,0,10,-5,-5,-6,-23,-28,-22,-16,-26
-11,-12,-1,11,-5,-7,-5,-22,-28,-22,-16,-27
-12,-15,-2,13,-4,-9,-4,-21,-28,-23,-17,-28
-12,-17,-4,14,-3,-11,-2,-20,-28,-24,-19,-29
-11,-18,-6,15,-2,-12,-1,-18,-28,-24,-20,-31
-10,-18,-8,15,-1,-13,0,-17,-28,-24,-21,-31
-9,-18,-9,14,0,-14,2,-15,-28,-24,-21,-31
-8,-18,-9,14,0,-14,3,-14,-28,-24,-21,-31
-9,-19,-9,15,0,-15,4,-14,-28,-24,-20,-31
-10,-20,-9,15,0,-15,4,-14,-28,-23,-20,-31
-10,-21,-10,15,0,-15,5,-14,-27,-23,-19,-31
-10,-21,-10,15,1,-16,5,-13,-27,-24,-20,-31
-10,-21,-11,16,1,-16,6,-12,-26,-24,-20,-31
-10,-21,-11,16,1,-16,6,-11,-26,-24,-20,-31
-10,-21,-10,16,0,-16,6,-11,-26,-24,-20,-31
-11,-22,-10,17,-1,-16,6,-10,-26,-25,-20,-31
-11,-22,-10,17,-1,-16,6,-10,-26,-25,-20,-31
-11,-21,-10,16,0,-16,7,-10,-25,-24,-19,-31
-9,-19,-10,14,0,-15,8,-9,-24,-23,-18,-30
-7,-17,-9,12,1,-14,9,-7,-23,-22,-17,-29
-7,-17,-9,12,1,-14,9,-7,-23,-22,-16,-29
-9,-19,-9,14,0,-15,9,-7,-24,-23,-16,-30
-10,-20,-9,16,0,-15,9,-7,-24,-23,-17,-30
-11,-21,-9,16,-1,-16,8,-7,-24,-23,-17,-31
-12,-22,-10,17,-1,-16,8,-7,-24,-23,-17,-31
-12,-22,-10,17,-1,-16,7,-7,-24,-24,-17,-31
-12,-21,-9,16,-1,-15,7,-7,-24,-23,-17,-31
-10,-20,-9,15,-1,-14,8,-6,-23,-23,-16,-30
-9,-18,-9,13,0,-14,8,-6,-23,-22,-16,-30
-7,-17,-9,12,0,-13,9,-5,-22,-22,-15,-30
-7,-16,-8,12,0,-13,9,-3,-22,-21,-14,-29
-8,-17,-8,12,0,-13,9,-3,-22,-20,-14,-29
-9,-17,-8,13,0,-13,9,-2,-21,-20,-14,-29
-9,-17,-8,13,0,-13,9,-2,-21,-20,-14,-29
-8,-16,-8,12,0,-13,9,-1,-20,-19,-14,-29
-8,-16,-8,12,0,-12,9,-1,-20,-19,-14,-29
-8,-16,-8,12,0,-12,8,0,-20,-19,-14,-29
-7,-16,-8,12,0,-12,8,1,-20,-19,-14,-28
-7,-16,-8,12,0,-13,8,2,-20,-18,-14,-28
-8,-17,-8,13,0,-13,7,2,-19,-18,-14,-28
-9,-18,-8,13,0,-13,7,3,-18,-18,-14,-27
-9,-18,-8,14,0,-13,8,4,-17,-17,-14,-27
-9,-18,-8,14,0,-13,8,5,-17,-17,-13,-27
-8,-17,-8,13,0,-12,9,7,-16,-17,-13,-26
-8,-17,-8,12,0,-12,9,8,-16,-16,-12,-26
-8,-16,-8,12,0,-12,10,10,-15,-16,-12,-26
-7,-16,-8,12,0,-13,10,12,-14,-15,-11,-26
-7,-16,-8,12,0,-13,11,14,-13,-14,-11,-26
-7,-15,-8,11,0,-12,11,16,-11,-13,-10,-25
-6,-14,-8,10,1,-12,12,19,-9,-12,-9,-24
-4,-13,-8,9,2,-11,13,21,-7,-10,-8,-23
-4,-13,-8,9,2,-11,13,24,-5,-9,-7,-22
-5,-14,-8,10,2,-11,14,26,-4,-9,-7,-22
-5,-15,-8,10,2,-11,14,28,-3,-8,-6,-22
-4,-13,-8,9,2,-11,15,30,-2,-7,-5,-22
-2,-12,-8,7,3,-10,16,33,0,-5,-4,-21
-1,-10,-8,6,4,-10,17,36,1,-4,-3,-20
0,-9,-8,4,4,-9,17,39,3,-2,-1,-18
0,-9,-8,5,4,-10,17,41,5,-1,0,-17
-2,-11,-8,6,3,-10,17,43,7,0,0,-17
-2,-11,-8,6,3,-10,17,46,9,1,1,-16
0,-9,-9,5,4,-9,17,49,11,3,3,-14
1,-8,-9,4,5,-9,17,52,13,5,5,-13
1,-8,-9,4,5,-9,17,54,15,7,6,-12
2,-7,-9,3,5,-8,18,57,17,8,8,-11
4,-6,-9,1,6,-8,18,59,19,10,9,-10
5,-5,-9,0,7,-7,19,61,21,12,10,-8
5,-5,-9,0,7,-7,19,63,22,13,11,-7
5,-5,-10,0,8,-8,19,64,24,14,12,-6
6,-5,-11,0,9,-8,19,65,25,15,13,-5
6,-5,-11,0,9,-8,18,66,25,16,13,-5
6,-5,-11,0,9,-9,18,67,26,16,14,-4
7,-5,-11,-1,9,-8,17,68,27,17,15,-3
8,-3,-11,-2,9,-7,16,69,28,19,17,-2
9,0,-10,-4,9,-6,16,70,30,20,18,0
10,0,-10,-5,9,-5,16,70,31,21,18,0
10,1,-9,-5,9,-4,15,70,31,22,18,0
10,1,-9,-6,10,-4,14,69,30,22,18,0
11,2,-9,-7,10,-4,13,68,30,22,18,1
12,2,-9,-7,10,-3,13,67,30,22,18,1
11,2,-8,-6,9,-3,12,65,30,22,18,1
10,2,-7,-6,8,-3,10,64,29,22,18,1
10,3,-6,-6,8,-2,9,62,29,21,18,1
11,4,-6,-7,8,-1,8,60,28,21,18,2
12,5,-6,-8,9,-1,7,58,27,21,18,2
13,6,-6,-9,10,0,6,56,26,21,18,3
12,6,-5,-9,9,0,5,53,24,20,18,3
11,6,-5,-9,9,0,4,51,22,18,17,3
11,6,-5,-9,9,0,3,48,21,17,17,3
13,8,-5,-10,10,1,3,46,20,16,17,4
14,9,-5,-11,10,1,2,43,18,15,16,4
13,8,-5,-10,9,1,1,40,17,14,16,3
11,7,-4,-9,8,1,0,37,14,13,15,3
9,6,-3,-8,6,0,-1,34,12,12,14,2
10,6,-3,-8,6,1,-2,31,10,11,13,2
11,8,-3,-10,7,2,-3,29,9,10,13,2
12,9,-2,-11,7,3,-3,27,8,9,13,2
11,10,-2,-10,7,4,-4,25,7,8,12,2
10,9,-1,-9,6,3,-6,22,5,7,11,1
10,9,-1,-9,6,3,-7,19,3,6,10,0
11,10,-1,-10,7,4,-7,17,2,5,10,0
11,9,-1,-10,6,4,-7,15,1,4,10,0
8,7,-1,-8,5,3,-7,13,-1,3,8,0
7,6,-1,-6,4,2,-7,11,-3,1,7,-1
7,6,0,-6,3,2,-7,9,-4,1,7,-1
7,6,0,-6,3,2,-7,8,-5,0,6,-2
7,6,0,-6,4,2,-8,7,-6,-1,6,-2
7,6,0,-6,4,2,-8,7,-7,-1,6,-2
7,7,0,-7,4,3,-7,6,-7,-1,6,-2
8,9,1,-8,4,4,-6,6,-8,-1,6,-2
8,9,1,-9,3,5,-6,5,-9,-2,6,-2
8,10,2,-9,3,5,-6,4,-9,-2,6,-2
8,10,2,-9,3,5,-6,4,-10,-3,5,-2
8,9,1,-8,3,5,-6,3,-11,-4,4,-3
6,7,1,-6,2,4,-7,2,-12,-5,3,-4
5,7,1,-6,2,4,-7,1,-13,-5,3,-5
5,7,1,-6,2,4,-7,1,-13,-6,2,-5
5,7,1,-6,2,4,-6,0,-14,-6,2,-5
5,7,1,-6,2,3,-6,0,-14,-6,2,-5
5,7,1,-6,2,3,-6,0,-14,-6,2,-5
5,6,1,-5,2,2,-6,0,-14,-6,2,-5
4,5,1,-5,2,2,-5,0,-15,-6,2,-5
4,6,1,-5,2,3,-4,0,-15,-6,2,-5
5,6,1,-6,2,3,-3,1,-15,-7,2,-5
5,7,1,-6,2,3,-3,0,-15,-7,1,-6
5,7,2,-5,1,3,-3,0,-15,-7,1,-6
5,7,2,-5,1,3,-3,0,-15,-8,0,-7
5,7,2,-5,1,3,-3,-1,-15,-8,0,-7
5,7,2,-5,1,3,-2,-1,-15,-8,0,-7
5,7,2,-5,1,3,-2,-1,-15,-8,0,-7
5,7,2,-5,1,3,-2,-1,-15,-8,0,-7
5,7,2,-5,1,3,-2,-1,-15,-8,0,-7
5,7,2,-5,1,4,-1,-1,-15,-7,0,-6
5,8,3,-6,0,4,0,-1,-15,-7,0,-6
4,8,3,-5,0,5,0,-1,-16,-7,0,-7
4,7,3,-5,0,5,1,-1,-16,-7,0,-7
5,8,3,-6,0,5,1,-1,-16,-7,0,-7
6,8,3,-7,1,5,2,-1,-16,-7,0,-7
5,7,3,-6,0,4,2,-2,-16,-8,-1,-8
3,5,3,-4,0,3,2,-3,-17,-8,-2,-8
3,5,2,-4,0,3,3,-4,-17,-8,-2,-8
3,5,2,-4,0,3,3,-4,-17,-8,-2,-8
3,5,2,-4,0,3,4,-5,-17,-8,-1,-8
3,5,2,-4,0,3,4,-5,-17,-8,-1,-8
3,5,2,-4,0,3,3,-5,-17,-8,-2,-8
3,5,2,-4,0,3,3,-6,-17,-8,-2,-8
2,5,2,-3,0,3,3,-7,-18,-8,-3,-8
2,4,2,-3,0,3,3,-8,-18,-8,-3,-8
2,5,2,-3,0,3,3,-8,-18,-8,-3,-8
2,5,3,-3,-1,4,2,-9,-18,-8,-3,-8
2,6,4,-3,-1,4,2,-9,-18,-8,-3,-7
2,7,4,-4,-1,5,2,-10,-18,-8,-3,-7
2,7,4,-4,-1,5,2,-10,-19,-8,-4,-8
2,7,4,-4,-1,5,1,-11,-19,-9,-4,-8
2,7,5,-4,-1,5,1,-11,-20,-9,-4,-7
1,7,6,-4,-2,6,1,-12,-20,-9,-4,-7
1,7,6,-4,-2,6,1,-13,-20,-9,-5,-7
2,8,6,-5,-2,6,1,-13,-20,-9,-5,-7
3,9,6,-6,-1,7,1,-13,-20,-9,-5,-7
4,10,6,-6,-1,7,1,-14,-20,-10,-5,-7
2,9,7,-5,-2,7,0,-14,-20,-10,-5,-7
1,9,7,-5,-3,7,0,-14,-19,-9,-5,-7
2,9,7,-5,-2,8,0,-15,-18,-9,-4,-6
2,9,7,-6,-2,9,0,-15,-18,-9,-4,-6
1,9,8,-5,-3,8,-1,-16,-18,-9,-4,-6
0,9,8,-4,-4,8,-1,-16,-18,-10,-4,-6
1,9,8,-4,-4,8,-1,-17,-18,-10,-4,-6
0,8,8,-4,-4,8,-2,-17,-18,-10,-5,-7
0,8,8,-4,-4,8,-2,-18,-18,-11,-5,-7
2,11,9,-6,-4,9,-2,-17,-17,-10,-4,-6
4,14,10,-8,-3,11,-1,-16,-16,-10,-3,-5
4,15,10,-9,-3,12,-1,-15,-16,-10,-3,-4
3,14,10,-9,-4,11,-1,-15,-16,-10,-3,-4
3,13,10,-8,-4,11,-1,-15,-16,-10,-4,-4
2,13,11,-8,-5,12,-1,-15,-16,-10,-4,-5
2,14,11,-8,-5,12,-1,-14,-16,-10,-4,-5
2,14,12,-8,-5,12,0,-13,-16,-10,-4,-5
2,14,12,-8,-5,13,0,-13,-15,-10,-4,-5
2,14,13,-8,-5,13,0,-12,-15,-9,-3,-5
3,15,13,-9,-5,13,0,-11,-14,-9,-2,-5
4,16,12,-10,-4,14,0,-10,-14,-9,-2,-5
4,16,12,-9,-4,13,0,-9,-14,-9,-2,-5
4,15,12,-9,-4,13,0,-8,-14,-8,-1,-5
4,15,11,-9,-4,13,0,-7,-14,-8,-1,-5
5,15,11,-10,-3,13,0,-6,-13,-7,0,-4
7,16,10,-11,-2,13,0,-5,-13,-7,0,-4
7,17,10,-12,-2,13,0,-4,-12,-6,0,-3
9,18,10,-13,-1,13,0,-3,-12,-6,1,-3
10,20,10,-15,0,14,1,-1,-11,-5,1,-2
10,21,11,-16,-1,16,1,0,-11,-5,2,-1
9,23,13,-16,-2,17,1,0,-10,-4,2,-1
9,24,14,-16,-3,19,0,0,-10,-3,3,0
9,25,16,-16,-3,20,-1,0,-9,-3,3,0
9,25,17,-17,-4,20,-2,0,-9,-3,3,0
10,26,17,-18,-3,21,-2,0,-9,-3,3,0
11,29,17,-20,-3,22,-1,1,-9,-2,4,1
11,29,17,-20,-3,22,-2,0,-9,-2,4,1
10,28,17,-19,-4,22,-2,0,-10,-3,3,0
10,27,17,-18,-4,21,-2,-1,-10,-4,3,0
10,27,17,-18,-4,21,-2,-1,-10,-4,3,0
11,28,17,-19,-4,22,-2,-1,-10,-3,3,1
11,28,17,-19,-4,22,-2,-1,-10,-3,4,1
10,27,17,-19,-4,22,-2,-1,-10,-3,4,1
10,27,17,-18,-4,22,-3,-2,-11,-3,4,1
10,28,17,-19,-4,22,-3,-2,-11,-3,4,1
10,28,17,-19,-4,22,-3,-2,-11,-3,4,1
10,29,18,-19,-4,23,-3,-2,-11,-3,4,1
10,29,18,-19,-4,23,-3,-2,-11,-3,4,1
10,28,18,-19,-4,22,-3,-3,-11,-3,4,1
10,27,17,-19,-4,21,-4,-3,-12,-3,3,1
9,26,17,-18,-4,21,-4,-3,-12,-3,3,1
9,26,17,-18,-4,21,-3,-2,-11,-2,4,2
10,27,16,-18,-3,21,-2,0,-9,-1,5,3
11,27,15,-18,-3,21,-2,0,-8,-1,6,3
10,25,14,-17,-3,19,-2,0,-9,-1,6,3
10,23,13,-16,-2,17,-2,0,-9,-1,6,2
9,21,12,-15,-2,16,-1,0,-10,-2,5,2
8,19,11,-14,-1,14,-1,0,-10,-2,4,1
7,17,9,-12,-1,12,-1,-1,-11,-4,3,0
6,14,8,-10,-1,10,-1,-3,-12,-6,1,-2
5,11,7,-8,-1,8,-1,-4,-14,-8,0,-4
4,10,6,-7,-1,7,-1,-6,-15,-9,-1,-5
3,9,6,-6,-1,7,-1,-6,-16,-10,-2,-7
3,8,5,-5,-1,6,-1,-7,-17,-11,-3,-8
3,8,5,-5,-1,6,-1,-7,-17,-11,-3,-8
3,8,5,-6,-1,6,0,-6,-17,-11,-3,-8
2,8,5,-5,-2,6,0,-6,-17,-12,-3,-8
0,6,5,-3,-2,5,0,-6,-17,-12,-4,-8
0,5,5,-2,-3,5,0,-6,-17,-12,-4,-9
0,5,5,-3,-2,5,0,-6,-17,-12,-4,-9
0,5,5,-3,-2,5,0,-6,-17,-12,-4,-9
1,6,5,-4,-2,5,-1,-6,-17,-12,-4,-10
2,6,4,-4,-1,4,-1,-6,-17,-12,-4,-10
0,4,4,-2,-2,3,-1,-6,-17,-13,-4,-10
-1,3,4,-1,-3,3,-1,-6,-17,-13,-4,-10
-3,1,5,0,-4,2,-2,-6,-17,-13,-4,-10
-5,0,4,2,-4,1,-2,-7,-18,-14,-4,-11
-5,0,4,2,-4,1,-3,-7,-19,-14,-5,-12
-3,1,4,1,-4,2,-2,-6,-18,-14,-4,-11
-2,3,5,0,-3,3,-1,-5,-17,-13,-4,-11
-1,4,5,-1,-3,4,-1,-4,-17,-12,-3,-10
-1,3,5,-1,-3,3,-1,-4,-17,-12,-3,-10
-2,2,5,0,-3,2,-1,-4,-17,-12,-3,-10
-2,2,5,0,-3,2,-1,-4,-17,-12,-3,-10
-2,2,4,0,-2,2,-1,-4,-17,-12,-4,-11
-2,2,4,0,-2,2,-1,-4,-17,-13,-5,-12
-2,1,3,0,-2,1,-2,-5,-18,-14,-6,-13
-1,2,3,0,-2,2,-1,-4,-18,-14,-6,-13
-1,3,4,-1,-2,2,0,-3,-17,-14,-6,-13
-2,2,4,0,-3,2,2,-1,-17,-14,-6,-13
-5,-1,3,3,-4,0,4,0,-17,-16,-8,-15
-6,-3,3,5,-4,-1,8,1,-18,-17,-9,-16
-5,-4,2,5,-3,-1,12,5,-17,-18,-10,-17
-5,-4,2,5,-3,-2,17,10,-15,-17,-10,-18
-5,-4,1,5,-3,-2,22,18,-11,-15,-9,-17
-4,-3,1,4,-3,-2,26,26,-5,-11,-6,-15
-1,-1,0,1,-1,-1,29,35,1,-5,-2,-12
1,2,1,-1,0,1,32,43,9,1,3,-6
3,8,4,-5,0,5,34,52,20,11,12,1
8,16,8,-11,0,12,36,61,32,23,24,12
14,27,13,-20,1,19,38,69,44,37,37,25
22,40,17,-31,3,28,34,74,57,52,53,40
32,54,22,-42,5,37,24,77,70,69,70,57
41,67,26,-54,7,46,11,80,84,87,88,74
52,80,29,-65,10,54,-6,83,98,105,107,91
62,94,33,-78,13,63,-25,82,110,122,124,108
70,110,40,-90,15,74,-48,75,120,137,141,125
76,126,50,-101,13,87,-73,63,127,150,156,140
79,142,63,-110,8,102,-96,50,134,163,171,155
79,160,82,-119,0,120,-117,37,144,178,187,170
75,180,105,-126,-14,142,-137,26,155,193,203,185
69,199,130,-133,-30,164,-154,14,166,207,217,199
64,215,152,-139,-44,183,-170,-1,172,216,228,210
59,223,164,-141,-52,193,-184,-22,172,218,232,214
54,216,163,-135,-54,189,-190,-37,166,212,226,209
48,199,151,-124,-50,174,-188,-42,158,200,211,193
43,177,134,-110,-44,155,-178,-41,148,184,191,172
37,155,118,-96,-40,136,-164,-38,135,164,169,149
29,132,104,-80,-37,118,-146,-41,112,136,140,121
18,109,92,-63,-37,100,-125,-53,75,96,104,88
7,87,81,-47,-37,83,-104,-66,35,55,67,56
-1,69,71,-33,-36,69,-84,-70,7,24,39,31
-7,54,61,-22,-34,56,-66,-66,-9,5,20,14
-10,41,52,-15,-31,45,-51,-59,-19,-7,8,2
-12,31,43,-9,-27,36,-40,-52,-24,-15,0,-5
-12,23,36,-5,-24,29,-30,-44,-26,-19,-5,-10
-13,17,30,-2,-21,23,-22,-37,-27,-22,-8,-13
-12,12,24,0,-19,18,-15,-31,-28,-24,-11,-16
-13,7,20,4,-17,13,-10,-26,-28,-26,-13,-20
-15,1,16,7,-16,8,-5,-22,-29,-27,-16,-23
-15,-3,13,9,-14,4,-1,-19,-28,-28,-17,-25
-14,-5,10,10,-12,2,1,-16,-27,-29,-18,-25
-14,-6,8,10,-11,1,3,-14,-27,-29,-18,-26
-14,-6,7,10,-10,0,5,-12,-27,-29,-18,-26
-14,-7,6,10,-10,0,6,-11,-27,-28,-18,-26
-13,-7,5,10,-9,-1,7,-11,-27,-29,-19,-26
-13,-8,4,10,-9,-2,8,-10,-28,-29,-20,-27
-14,-10,3,12,-9,-4,8,-9,-28,-30,-21,-29
-16,-14,1,15,-9,-7,8,-9,-29,-31,-23,-30
-17,-16,1,17,-9,-8,9,-8,-29,-31,-23,-31
-16,-16,1,16,-9,-8,10,-7,-28,-31,-22,-30
-15,-16,0,16,-8,-8,10,-7,-27,-30,-22,-29
-14,-16,-1,15,-6,-9,10,-7,-27,-30,-22,-29
-14,-15,-1,15,-7,-9,11,-6,-26,-30,-21,-29
-16,-15,0,15,-8,-8,11,-6,-26,-30,-21,-28
-16,-15,0,15,-8,-8,12,-5,-25,-29,-21,-28
-14,-14,0,14,-7,-7,13,-4,-25,-29,-21,-28
-13,-14,0,14,-7,-7,13,-4,-25,-29,-20,-28
-13,-14,0,14,-7,-7,13,-3,-24,-29,-20,-27
-13,-14,0,14,-6,-7,13,-3,-24,-29,-20,-27
-13,-14,-1,14,-6,-8,13,-3,-24,-29,-20,-28
-14,-15,-1,15,-7,-8,13,-3,-24,-29,-20,-28
-14,-15,-1,15,-7,-8,13,-3,-24,-29,-20,-28
-15,-15,-1,15,-8,-8,13,-3,-24,-29,-21,-28
-15,-16,0,16,-8,-8,13,-3,-24,-29,-21,-28
-15,-16,0,16,-8,-8,13,-2,-23,-29,-21,-28
-15,-16,0,16,-8,-8,13,-2,-23,-29,-21,-28
-15,-16,0,15,-8,-8,12,-2,-23,-29,-21,-28
-14,-15,0,15,-7,-8,13,-1,-22,-29,-20,-28
-13,-14,-1,14,-7,-8,13,0,-22,-28,-20,-27
-13,-14,-1,13,-6,-8,13,0,-21,-28,-19,-27
-12,-14,-2,13,-6,-8,13,0,-21,-28,-19,-27
-12,-14,-2,13,-6,-8,13,1,-21,-28,-19,-27
-13,-14,-1,13,-6,-8,13,1,-21,-28,-19,-27
-13,-14,-1,13,-6,-8,13,2,-20,-28,-19,-27
-12,-14,-1,13,-6,-8,13,3,-20,-28,-19,-27
-13,-14,-1,13,-6,-8,13,4,-20,-27,-19,-28
-12,-14,-1,13,-6,-8,13,5,-20,-27,-19,-28
-12,-13,-1,12,-6,-7,13,6,-19,-26,-18,-27
-11,-13,-1,12,-5,-7,13,8,-19,-26,-18,-27
-11,-13,-1,12,-5,-7,13,9,-18,-25,-18,-27
-12,-14,-1,13,-6,-8,12,10,-18,-25,-17,-27
-14,-16,-1,15,-6,-9,12,11,-17,-25,-17,-27
-13,-15,-1,14,-6,-9,12,12,-16,-24,-17,-27
-12,-14,-1,13,-5,-8,13,14,-15,-24,-17,-27
-11,-13,-1,12,-5,-8,14,16,-14,-23,-16,-26
-11,-13,-1,12,-5,-8,14,18,-13,-23,-16,-26
-12,-14,-1,13,-5,-8,15,20,-12,-22,-16,-25
-12,-15,-2,13,-5,-9,15,21,-12,-22,-16,-25
-11,-14,-2,12,-4,-9,16,23,-11,-21,-15,-25
-11,-14,-2,12,-5,-8,17,25,-10,-20,-14,-25
-12,-14,-1,13,-5,-8,17,27,-8,-19,-13,-25
-11,-14,-1,12,-5,-8,18,30,-7,-18,-13,-24
-10,-12,-1,11,-4,-8,19,32,-5,-17,-12,-23
-9,-11,-1,10,-3,-7,20,35,-3,-15,-11,-22
-8,-11,-1,10,-3,-7,21,38,-1,-14,-10,-22
-8,-11,-2,10,-3,-7,22,41,0,-13,-9,-21
-9,-12,-3,10,-3,-8,23,43,1,-12,-9,-21
-8,-12,-3,10,-3,-8,23,45,2,-11,-8,-21
-7,-12,-4,9,-2,-8,24,48,4,-10,-6,-20
-5,-11,-4,8,-1,-8,25,52,7,-8,-5,-19
-5,-10,-4,7,-1,-8,25,55,9,-6,-3,-19
-6,-11,-4,8,-1,-8,26,57,10,-5,-2,-19
-6,-11,-4,9,-1,-9,26,59,12,-4,-1,-18
-5,-11,-4,8,0,-8,26,61,14,-3,0,-17
-4,-9,-4,6,0,-7,26,63,16,-1,1,-16
-3,-8,-4,6,0,-6,26,66,18,0,3,-14
-2,-8,-4,6,0,-6,26,68,20,2,5,-13
-2,-8,-4,6,0,-6,26,70,22,3,6,-12
-1,-7,-5,5,1,-6,26,72,24,5,7,-11
0,-6,-5,4,2,-6,26,74,26,6,8,-10
0,-6,-6,3,3,-6,26,75,27,7,9,-9
1,-6,-6,3,3,-6,26,76,28,8,10,-8
2,-5,-6,2,4,-6,25,77,29,9,11,-7
2,-5,-7,1,4,-6,24,77,30,10,12,-6
3,-4,-7,1,4,-6,23,77,31,11,13,-5
3,-3,-6,0,4,-5,23,78,31,12,14,-4
4,-3,-6,0,4,-5,22,78,32,12,15,-4
4,-3,-7,0,5,-6,21,77,32,12,15,-3
4,-3,-7,0,5,-6,20,76,32,12,16,-3
4,-2,-6,-1,5,-5,20,75,32,12,16,-2
4,-2,-6,-1,5,-5,19,74,31,12,17,-2
4,-2,-6,-1,5,-5,17,73,30,12,17,-2
5,-1,-6,-2,6,-4,16,71,30,11,17,-2
6,0,-5,-2,6,-3,15,70,30,11,18,-1
5,0,-4,-2,5,-3,14,68,29,11,18,-1
4,-1,-4,-1,4,-3,13,65,28,10,18,-1
4,-1,-4,-1,4,-3,12,63,27,10,17,-1
5,0,-4,-2,4,-2,12,60,26,9,17,0
