leadI,leadII,leadIII,leadaVR,leadaVL,leadaVF,leadV1,leadV2,leadV3,leadV4,leadV5,leadV6
0,-1,0,0,0,0,0,0,-2,0,0,0
-1,-1,0,1,0,0,-1,1,-5,0,0,0
-1,0,1,0,-1,0,-3,1,-6,-1,0,0
0,1,2,0,-1,1,-4,1,-7,-1,0,0
0,2,2,-1,-1,2,-4,2,-8,-1,0,0
0,2,2,-1,-1,2,-3,2,-8,-1,0,0
0,1,1,0,-1,1,-3,3,-9,-2,0,0
0,0,0,0,0,0,-4,3,-10,-2,0,0
0,-1,-2,0,0,-1,-4,2,-10,-3,0,0
1,-2,-3,0,1,-2,-3,2,-10,-3,0,0
1,-2,-3,0,1,-3,-3,2,-10,-3,-1,-1
1,-2,-3,0,1,-2,-3,1,-10,-3,-1,-1
0,-1,-1,0,0,-1,-3,2,-10,-2,0,-1
0,0,0,0,0,0,-2,2,-10,-2,0,0
0,0,0,0,0,0,-2,2,-10,-3,0,0
1,-1,-2,0,1,-1,-3,2,-11,-3,0,0
2,-2,-4,0,3,-3,-3,2,-11,-3,0,0
3,-3,-6,0,4,-4,-2,2,-12,-4,0,0
3,-2,-5,0,4,-4,-2,2,-12,-4,0,0
2,-1,-3,0,3,-2,-2,2,-12,-3,0,0
1,-1,-1,0,1,-1,-2,2,-11,-3,1,0
1,0,0,0,1,0,-2,2,-11,-3,1,1
1,0,0,0,1,0,-2,2,-11,-3,1,0
1,0,-1,0,1,0,-2,2,-12,-4,1,0
0,0,-1,0,1,0,-2,2,-12,-4,1,0
0,0,-1,0,0,0,-2,2,-12,-4,2,0
0,-1,-1,0,0,0,-2,2,-12,-3,2,0
0,-1,-1,1,0,0,-2,3,-12,-3,2,0
0,-2,-1,1,1,-1,-2,3,-11,-2,2,0
1,-2,-2,0,2,-2,-2,3,-11,-3,1,0
2,-2,-4,0,3,-3,-3,2,-12,-4,0,-1
2,-2,-4,0,3,-3,-3,2,-13,-5,-1,-2
1,-2,-3,0,2,-3,-2,2,-13,-5,-1,-3
0,-1,-2,0,1,-2,-2,2,-13,-5,-1,-3
0,0,-1,0,1,-1,-3,2,-13,-5,-1,-2
0,0,0,0,0,0,-3,2,-12,-4,-1,-2
-2,0,2,0,-2,1,-2,3,-12,-4,-1,-1
-3,0,3,1,-3,1,-2,3,-12,-4,-1,-1
-3,-1,2,1,-3,1,-1,3,-12,-4,-1,-1
-2,-1,1,1,-2,0,-1,4,-11,-4,-1,-1
-1,-1,0,0,-1,0,-2,4,-11,-4,-1,0
-1,-1,0,0,0,0,-2,4,-11,-4,-1,0
-2,-1,0,1,-1,0,-2,4,-11,-3,-1,0
-2,-2,1,1,-2,0,-2,4,-11,-3,-1,1
-1,-2,0,1,0,-1,-2,4,-11,-3,-1,0
0,-3,-3,0,1,-3,-3,3,-11,-4,-2,0
1,-3,-4,0,2,-3,-3,3,-11,-4,-2,-1
1,-2,-3,0,2,-3,-2,3,-11,-4,-2,0
0,-2,-1,0,1,-1,-2,4,-11,-3,-1,0
0,-1,-1,0,1,-1,-3,4,-11,-4,-1,0
1,-2,-3,0,2,-2,-3,4,-11,-4,-1,0
1,-2,-4,0,3,-3,-3,4,-11,-4,-1,-1
2,-2,-5,0,4,-4,-3,3,-11,-5,-1,-2
4,-1,-6,-1,5,-4,-4,3,-12,-6,-2,-2
3,-1,-4,-1,3,-3,-4,3,-11,-6,-2,-2
0,-1,-1,0,0,-1,-3,4,-10,-4,0,0
-1,-1,0,1,0,0,-2,4,-9,-3,1,0
-2,-2,0,2,0,-1,-2,5,-10,-3,1,0
-2,-2,0,2,0,-1,-2,5,-10,-4,0,0
-1,-2,0,1,0,-1,-2,5,-11,-4,0,0
0,-1,-1,0,1,-1,-3,4,-11,-5,0,0
0,-1,-1,0,1,-1,-3,4,-11,-5,0,-1
0,-1,0,0,0,-1,-3,4,-10,-4,0,0
0,-1,0,1,0,-1,-3,4,-10,-4,0,0
1,-1,-2,0,1,-1,-4,4,-10,-3,0,0
1,-1,-3,0,2,-2,-4,3,-10,-3,0,0
1,-1,-3,0,2,-2,-4,3,-11,-3,0,0
0,-2,-2,0,1,-2,-3,4,-11,-3,1,1
-1,-3,-2,1,1,-2,-3,4,-10,-3,2,1
-1,-3,-2,2,1,-3,-3,4,-10,-3,1,1
0,-3,-3,1,2,-4,-4,3,-11,-4,0,0
2,-2,-4,0,3,-4,-5,2,-11,-5,0,0
2,-1,-4,0,3,-3,-5,2,-11,-5,0,0
0,-1,-2,0,2,-2,-5,2,-11,-4,0,0
-1,-1,-1,1,0,-1,-4,2,-11,-4,1,0
-2,-1,0,1,-1,-1,-4,2,-11,-4,1,0
-2,-2,0,1,-1,-1,-4,2,-10,-4,1,1
-2,-2,0,1,-1,-1,-4,2,-10,-4,2,1
-1,-2,0,1,-1,-1,-4,1,-10,-4,2,1
-1,-2,-1,1,0,-1,-5,1,-10,-4,1,1
-1,-2,-1,1,0,-2,-4,1,-10,-4,1,1
-1,-1,-1,1,0,-1,-4,1,-9,-4,1,1
0,-1,0,1,0,-1,-4,0,-9,-4,1,1
0,0,0,0,0,0,-5,0,-9,-5,1,1
0,0,0,0,0,0,-5,-1,-9,-5,0,0
0,0,-1,0,0,0,-6,-1,-9,-6,0,0
1,0,-2,0,1,-1,-6,-2,-8,-6,0,0
2,-1,-3,0,2,-1,-6,-2,-8,-5,0,0
2,-1,-4,0,3,-2,-6,-2,-7,-5,0,1
2,-2,-4,0,3,-3,-7,-2,-7,-5,0,1
1,-2,-4,0,2,-3,-6,-2,-7,-5,1,1
1,-3,-4,1,2,-3,-6,-2,-6,-5,1,1
1,-3,-5,0,3,-3,-6,-2,-6,-5,1,1
1,-3,-5,0,3,-3,-7,-2,-6,-6,0,0
1,-3,-4,0,3,-3,-7,-2,-6,-6,0,0
0,-3,-3,0,2,-3,-7,-2,-5,-6,0,0
-1,-2,0,1,0,-1,-6,-1,-4,-4,1,2
-2,0,2,1,-2,0,-6,0,-3,-3,2,3
-2,1,3,0,-3,1,-6,0,-3,-3,2,3
-2,2,3,0,-2,2,-6,0,-3,-4,1,2
-1,2,3,0,-1,2,-5,0,-3,-4,1,2
0,1,1,-1,0,1,-5,0,-3,-4,1,1
2,1,-2,-1,2,-1,-5,-1,-2,-4,0,0
4,1,-4,-2,4,-2,-6,-2,-3,-5,-1,-1
3,1,-2,-2,3,-1,-6,-2,-3,-5,-1,-1
2,2,1,-2,0,1,-6,-1,-3,-5,-1,0
2,3,2,-3,0,2,-6,-1,-3,-4,0,0
2,3,1,-3,0,2,-6,-1,-2,-4,0,0
2,4,2,-3,0,3,-5,0,-1,-3,0,0
0,5,4,-2,-2,5,-4,1,0,-1,2,2
-2,5,6,-1,-4,6,-3,2,2,0,3,4
-2,4,6,0,-4,5,-2,3,3,1,4,5
-2,3,5,0,-3,4,-1,4,3,1,3,5
-1,2,3,0,-2,3,-1,4,3,1,3,4
0,2,2,-1,-1,2,-1,4,3,1,3,4
0,1,1,-1,-1,1,-1,4,3,1,3,4
0,1,1,-1,0,1,0,5,3,1,3,4
0,1,1,-1,0,1,1,5,3,0,2,4
-1,1,2,0,-1,1,2,6,4,1,3,4
-1,2,3,0,-2,2,2,6,5,1,3,5
0,2,2,-1,-1,2,1,6,5,1,3,5
1,2,0,-2,0,1,0,5,4,0,2,4
3,1,-2,-2,2,-1,-1,4,2,0,1,3
4,0,-5,-2,4,-3,-2,3,1,-1,1,2
5,-1,-6,-2,5,-4,-3,2,1,-1,1,2
5,-1,-6,-2,5,-3,-4,3,3,0,3,4
4,0,-4,-2,3,-2,-4,3,4,1,4,5
3,1,-2,-2,2,0,-4,4,5,2,5,6
2,2,0,-2,0,1,-4,5,6,3,6,7
1,1,0,-1,0,1,-3,5,7,4,7,7
1,0,-1,0,0,0,-3,5,7,3,6,6
3,0,-4,-1,3,-2,-3,4,7,2,4,4
4,-1,-5,-1,4,-3,-3,3,5,0,3,3
3,-1,-5,-1,4,-3,-3,2,4,0,2,3
3,-1,-4,-1,3,-2,-4,2,4,-1,2,3
2,-1,-4,0,3,-2,-5,1,3,-1,2,4
2,-2,-5,0,3,-3,-6,0,2,-1,1,4
3,-3,-7,0,4,-5,-7,0,1,-2,1,3
4,-4,-8,0,5,-6,-7,0,0,-3,1,3
3,-4,-9,0,5,-6,-7,0,1,-2,1,4
3,-5,-9,0,5,-6,-7,0,1,-2,2,4
3,-5,-9,0,5,-6,-7,0,0,-2,2,5
3,-4,-8,0,5,-6,-8,0,0,-2,2,5
4,-3,-7,-1,5,-5,-8,0,0,-2,1,4
4,-1,-6,-2,5,-3,-9,0,1,-1,1,4
3,0,-3,-2,3,-1,-9,1,2,-1,1,5
0,0,-1,0,1,0,-8,2,2,-1,1,4
-1,-1,0,1,0,-1,-8,2,2,-2,0,3
-1,-2,-1,1,0,-2,-7,3,2,-2,0,3
-1,-3,-2,2,0,-3,-7,3,2,-1,0,3
-1,-4,-3,3,0,-4,-6,3,2,-1,0,3
0,-5,-4,2,1,-4,-6,3,2,-2,-1,2
2,-3,-6,0,4,-4,-7,1,1,-4,-3,0
4,-1,-6,-1,5,-4,-9,0,0,-6,-4,0
3,0,-4,-2,4,-2,-10,0,-1,-6,-4,1
2,0,-3,-1,3,-2,-9,1,0,-5,-3,2
0,-1,-2,0,1,-2,-8,2,0,-4,-2,3
-1,-1,-1,1,0,-1,-7,3,1,-3,-1,4
-2,-1,0,2,-1,-1,-6,4,1,-2,0,4
-2,-2,0,2,0,-2,-6,4,0,-3,-1,4
-1,-4,-3,2,1,-3,-6,4,0,-3,-2,3
1,-5,-6,2,3,-5,-7,4,0,-4,-2,2
2,-5,-7,1,5,-6,-7,4,-1,-4,-3,1
2,-4,-7,1,4,-6,-7,4,-1,-4,-3,1
2,-3,-5,0,3,-4,-6,4,0,-2,-2,2
1,-2,-3,0,2,-3,-5,5,1,-1,-1,2
0,-1,-1,0,0,-1,-6,6,1,-1,-1,2
0,0,0,0,0,0,-6,6,1,-1,-1,2
0,0,0,0,0,0,-5,6,0,-2,-2,1
0,-1,-1,0,0,-1,-5,6,0,-2,-2,1
0,-1,-3,0,1,-2,-5,7,0,-2,-2,1
0,-2,-3,1,1,-2,-4,7,0,-2,-2,1
0,-2,-3,1,1,-2,-4,8,0,-1,-2,1
1,-1,-3,0,1,-2,-4,8,1,-1,-2,0
1,0,-2,0,1,-1,-4,9,2,-1,-2,0
0,0,0,0,0,0,-2,11,4,1,0,1
-1,0,1,0,-2,1,-1,14,7,3,1,2
-2,1,2,0,-2,1,0,16,9,6,2,2
-2,1,3,0,-2,2,1,17,12,10,5,3
-1,3,4,0,-3,3,1,17,15,14,9,5
0,6,7,-2,-3,6,0,18,16,19,15,8
0,10,10,-5,-4,9,-2,18,18,26,23,13
1,14,12,-7,-5,13,-5,18,21,36,34,20
3,18,15,-11,-6,17,-9,16,23,48,48,31
5,23,17,-15,-6,20,-16,11,23,61,66,45
9,27,17,-19,-4,22,-25,4,22,76,88,63
14,30,16,-22,-1,22,-34,-5,16,89,111,81
18,32,15,-25,0,23,-43,-16,4,96,131,99
19,35,17,-27,0,25,-52,-29,-11,97,147,115
19,40,22,-29,-1,31,-58,-43,-29,92,158,127
20,49,29,-34,-4,39,-62,-55,-48,82,162,135
21,57,35,-39,-7,46,-64,-64,-66,67,159,137
22,57,34,-40,-6,45,-62,-67,-80,51,148,131
22,49,26,-36,-2,37,-57,-66,-89,32,127,116
21,38,16,-30,2,26,-52,-65,-97,8,97,93
17,29,11,-24,2,20,-49,-66,-106,-18,63,68
10,24,14,-18,-2,19,-46,-67,-115,-45,27,41
4,21,18,-13,-7,20,-44,-69,-123,-72,-10,15
0,20,20,-10,-10,20,-45,-73,-133,-95,-40,-6
-2,20,22,-9,-11,21,-47,-76,-140,-108,-58,-19
-3,22,25,-9,-14,24,-50,-76,-143,-114,-67,-27
-5,26,31,-10,-18,28,-51,-75,-143,-116,-72,-34
-7,28,34,-10,-21,31,-51,-71,-141,-115,-76,-40
-8,26,34,-9,-21,30,-48,-65,-136,-113,-77,-45
-9,21,29,-6,-19,25,-43,-56,-130,-108,-77,-47
-9,13,22,-3,-15,17,-38,-45,-122,-102,-76,-49
-9,4,14,1,-11,9,-31,-33,-113,-95,-73,-49
-10,-4,6,6,-7,1,-23,-20,-103,-86,-68,-47
-10,-11,-2,10,-4,-6,-14,-6,-90,-75,-61,-43
-9,-16,-7,12,-1,-12,-5,6,-78,-64,-54,-39
-8,-19,-11,13,0,-15,-3,13,-67,-55,-47,-35
-7,-20,-12,13,1,-16,-5,14,-59,-49,-42,-32
-7,-20,-13,13,2,-17,-9,14,-53,-43,-39,-30
-6,-20,-14,13,3,-17,-11,14,-46,-38,-35,-28
-5,-20,-15,12,4,-18,-11,15,-39,-32,-31,-25
-4,-20,-15,12,5,-18,-10,16,-31,-26,-27,-23
-4,-18,-15,11,5,-16,-9,17,-24,-20,-22,-20
-3,-15,-13,9,5,-14,-9,18,-18,-16,-18,-18
-2,-11,-10,6,4,-11,-8,19,-12,-12,-15,-16
-1,-8,-8,4,3,-9,-7,20,-7,-8,-12,-14
0,-7,-7,3,2,-7,-5,22,-2,-4,-10,-12
-1,-6,-5,3,1,-6,-4,24,3,0,-7,-10
-1,-5,-3,2,0,-4,-3,25,6,3,-5,-9
0,-3,-1,1,0,-2,-3,25,8,5,-3,-8
0,-1,0,0,0,0,-4,25,10,6,-2,-7
0,0,0,0,0,0,-3,26,11,8,-1,-6
0,0,1,0,0,1,-2,26,13,9,0,-5
0,1,1,-1,0,1,-2,27,14,10,1,-4
0,3,3,-2,-1,2,-1,27,15,10,2,-4
0,4,5,-3,-2,4,-1,28,16,11,3,-4
0,5,6,-3,-3,5,-2,28,15,11,2,-4
1,6,6,-4,-2,5,-2,29,15,11,2,-4
1,5,5,-3,-1,4,-2,29,16,12,3,-3
0,3,3,-2,-1,3,-2,30,16,13,4,-3
0,2,2,-1,-1,2,-2,30,17,14,5,-2
0,3,3,-1,-1,3,-1,31,17,15,6,-1
-1,3,5,-1,-3,4,-1,31,17,15,7,0
-1,4,5,-1,-3,4,-1,32,18,16,7,0
0,4,4,-2,-2,4,-1,32,19,16,7,0
1,4,4,-2,-2,4,-1,32,19,17,7,0
1,4,4,-2,-2,4,-1,32,19,16,7,0
1,4,3,-3,-1,3,-1,33,19,17,8,0
1,4,2,-3,-1,3,-2,34,20,18,9,0
1,4,3,-3,-1,3,-1,34,20,19,9,0
0,5,5,-3,-3,4,-1,34,21,19,9,0
-1,6,7,-3,-4,6,0,35,21,19,8,0
-1,6,8,-3,-5,7,0,35,22,19,8,0
-1,7,9,-3,-5,7,0,35,22,19,8,0
-1,7,8,-3,-5,7,-1,35,22,20,9,0
0,6,6,-3,-4,6,-1,36,22,20,9,0
1,5,3,-3,-1,4,-2,36,21,20,9,0
3,4,1,-3,0,3,-3,36,21,20,9,0
3,5,1,-4,1,3,-3,36,21,20,9,-1
2,5,3,-4,0,4,-3,37,21,21,9,0
1,5,5,-3,-2,5,-2,37,22,22,10,0
0,5,6,-2,-3,5,-2,38,23,24,11,0
0,5,6,-2,-3,5,-2,39,22,24,12,1
0,6,6,-2,-3,5,-2,39,21,24,12,1
0,6,6,-3,-3,6,-2,39,21,24,12,2
0,7,6,-3,-3,6,-2,39,21,25,13,2
1,7,5,-4,-2,5,-3,39,21,26,14,3
1,6,5,-4,-2,5,-3,39,20,26,14,3
1,6,5,-3,-2,5,-3,40,19,26,14,3
1,5,5,-3,-3,5,-3,40,19,27,15,3
0,5,6,-3,-3,5,-3,41,19,28,16,4
0,5,5,-3,-3,5,-3,41,19,29,16,4
1,5,4,-4,-2,5,-4,41,18,29,16,3
3,6,3,-5,-1,4,-4,41,18,29,16,3
3,6,3,-5,-1,4,-5,42,17,30,17,3
2,7,5,-5,-2,6,-4,43,17,31,18,4
1,7,7,-4,-3,7,-4,43,16,32,19,5
2,7,6,-4,-2,6,-5,43,16,33,19,5
4,7,4,-5,0,6,-6,43,16,34,20,4
5,8,3,-7,1,6,-6,44,16,34,20,5
5,9,4,-7,0,6,-6,45,16,35,21,6
4,10,6,-6,-1,7,-5,46,17,37,23,8
2,10,8,-5,-3,8,-5,48,19,39,25,10
0,9,9,-5,-4,9,-5,49,21,41,26,11
1,9,9,-5,-4,9,-5,50,23,42,27,12
3,10,7,-6,-2,8,-6,50,24,42,28,12
5,10,5,-7,0,7,-7,50,25,43,28,12
7,9,2,-8,2,6,-8,51,27,44,28,12
9,9,0,-9,3,4,-8,51,28,45,28,11
8,9,0,-9,3,4,-9,52,30,46,29,11
4,10,5,-8,-1,7,-8,53,34,50,31,14
0,12,11,-7,-6,11,-7,55,37,54,35,17
0,13,13,-7,-7,13,-7,57,39,57,38,19
0,14,14,-8,-7,14,-7,58,41,60,40,20
0,15,15,-8,-7,15,-7,59,42,62,41,21
0,15,15,-7,-7,15,-7,60,43,63,42,21
1,15,14,-7,-6,14,-7,59,45,65,43,22
3,15,12,-8,-4,13,-8,59,46,67,44,22
4,16,11,-9,-3,13,-9,58,48,69,46,23
4,16,10,-10,-3,13,-9,58,50,72,48,24
6,17,10,-11,-2,13,-10,58,52,74,50,24
7,17,9,-12,-1,13,-10,58,54,76,52,25
8,17,9,-13,0,13,-11,58,56,79,54,27
8,17,10,-13,0,14,-11,59,59,81,56,29
8,18,11,-13,-1,15,-12,59,62,83,58,31
8,20,12,-14,-2,16,-13,59,65,86,61,32
8,22,13,-14,-3,17,-13,59,69,88,63,34
8,23,14,-15,-3,18,-13,60,73,91,65,35
8,24,15,-16,-3,19,-13,60,76,93,67,36
9,24,15,-17,-3,20,-14,60,78,95,69,37
9,25,15,-17,-3,20,-15,60,80,96,70,38
10,25,15,-18,-2,20,-16,60,81,97,71,39
10,25,16,-18,-3,21,-17,60,82,98,72,39
8,26,18,-17,-4,22,-17,60,84,99,73,40
7,26,19,-17,-5,22,-17,60,85,100,74,41
7,27,19,-17,-6,23,-17,60,85,101,75,42
8,27,18,-18,-5,22,-17,60,85,101,76,42
9,27,17,-18,-4,22,-18,59,85,100,75,41
10,26,16,-19,-3,21,-18,59,84,99,75,41
12,27,15,-20,-1,21,-19,58,83,98,74,41
14,27,13,-21,0,21,-21,57,81,97,73,40
15,27,12,-21,1,20,-21,56,80,95,72,39
15,27,12,-21,2,19,-21,55,80,94,71,38
14,26,12,-21,1,19,-21,55,79,93,70,38
12,27,15,-20,-1,21,-21,55,79,92,70,39
8,27,19,-18,-5,23,-20,56,79,91,71,40
5,27,22,-17,-8,24,-19,56,78,90,70,40
4,27,23,-16,-9,25,-18,55,77,88,69,40
5,28,23,-16,-10,26,-18,54,75,85,67,40
5,29,24,-17,-10,27,-19,53,74,82,65,39
4,29,25,-16,-11,27,-20,52,72,80,63,38
4,28,23,-16,-10,25,-19,52,70,77,61,36
5,26,20,-15,-7,22,-19,51,68,74,58,34
6,24,18,-15,-5,20,-19,50,65,71,56,32
6,22,16,-15,-4,19,-19,49,63,67,53,30
7,22,15,-14,-4,18,-18,48,61,63,50,29
7,21,14,-14,-3,17,-18,46,58,59,47,27
8,21,13,-14,-2,16,-18,45,56,55,44,25
8,20,12,-14,-2,16,-18,43,53,52,41,23
7,19,12,-13,-2,15,-17,42,51,49,39,22
6,19,14,-13,-4,16,-16,42,49,47,37,22
4,19,15,-12,-5,17,-16,41,47,44,36,21
5,18,14,-12,-4,16,-16,40,44,40,33,19
5,17,12,-12,-3,14,-16,38,42,37,31,17
5,17,12,-11,-3,14,-15,38,40,34,29,16
3,16,12,-9,-4,14,-14,37,38,31,27,16
2,15,12,-8,-5,13,-14,37,36,29,26,15
2,14,11,-7,-4,12,-13,36,34,26,24,14
3,13,8,-7,-2,10,-13,34,32,23,21,11
6,11,4,-8,1,8,-14,32,29,20,17,8
8,10,1,-9,3,6,-14,30,26,17,15,6
7,10,2,-9,3,6,-14,29,24,15,13,5
5,10,4,-8,1,7,-13,29,22,13,13,5
5,10,5,-8,0,7,-13,28,20,11,12,5
5,9,4,-8,0,6,-13,27,18,9,10,4
4,9,4,-7,0,6,-12,27,17,8,9,4
3,8,5,-5,-1,6,-11,26,16,7,9,4
2,8,6,-4,-2,6,-10,26,15,7,9,4
2,7,5,-4,-2,6,-9,25,14,6,8,4
2,6,3,-4,-1,4,-9,24,13,4,6,2
3,5,2,-4,0,3,-10,23,11,2,4,0
2,4,3,-3,-1,4,-10,22,11,1,4,0
-1,4,6,-2,-4,5,-9,23,11,1,4,1
-3,4,8,-1,-6,6,-8,23,11,1,5,2
-3,3,7,0,-5,5,-8,22,10,0,4,1
-1,3,5,-1,-3,3,-10,21,9,0,4,0
0,3,4,-1,-2,3,-11,21,8,-1,3,-1
0,2,3,-1,-1,2,-11,20,6,-2,3,-2
0,1,3,0,-1,2,-11,19,5,-3,2,-3
0,0,2,0,-1,1,-11,18,3,-5,1,-4
0,0,0,0,0,0,-12,17,2,-6,0,-5
2,0,-1,-1,1,0,-12,16,1,-6,-1,-6
2,0,0,-2,0,0,-12,16,1,-6,0,-6
0,1,2,-1,-2,2,-11,17,2,-6,0,-6
-1,2,4,0,-3,3,-10,17,2,-5,0,-5
-1,2,4,-1,-3,3,-10,17,2,-5,1,-5
0,2,3,-1,-2,3,-10,17,2,-5,1,-5
0,2,2,-1,-1,2,-11,17,2,-6,1,-5
0,1,2,-1,0,2,-11,17,1,-6,1,-6
0,1,1,-1,0,2,-11,16,1,-7,0,-6
1,2,1,-2,0,2,-11,16,1,-7,0,-6
1,2,0,-2,0,1,-11,16,0,-7,0,-7
1,1,0,-1,0,0,-10,15,0,-8,-1,-8
1,1,0,-1,0,0,-10,15,0,-8,-1,-8
0,1,1,-1,0,0,-9,15,0,-8,-1,-8
0,1,2,-1,-1,1,-8,15,0,-8,-1,-8
0,2,3,-1,-2,2,-8,15,0,-8,0,-8
-1,2,4,-1,-3,3,-8,15,0,-8,0,-8
0,3,4,-1,-2,3,-8,15,0,-8,0,-8
1,3,2,-2,-1,2,-8,14,0,-8,-1,-9
3,2,0,-3,1,1,-9,14,-1,-9,-1,-10
4,2,-1,-3,2,0,-9,14,-1,-10,-2,-10
4,2,-1,-3,1,0,-8,14,-1,-10,-1,-10
1,3,2,-2,-1,2,-7,14,-1,-9,0,-9
-1,3,5,-1,-4,4,-6,14,0,-8,1,-8
-2,3,6,0,-5,4,-6,14,0,-8,1,-8
-1,3,5,-1,-4,4,-6,14,0,-8,1,-7
-1,3,5,-1,-3,4,-5,14,-1,-7,1,-7
-1,3,5,-1,-3,4,-5,14,-1,-7,1,-7
-1,3,5,-1,-3,4,-5,14,-1,-7,2,-8
0,4,5,-2,-3,4,-5,14,-1,-7,1,-8
1,5,4,-3,-2,4,-5,13,-2,-8,1,-9
2,5,3,-3,-1,4,-6,12,-2,-8,0,-9
2,5,2,-3,-1,4,-6,11,-3,-9,0,-10
1,5,3,-3,-1,4,-5,11,-3,-9,0,-10
0,6,5,-2,-3,5,-5,12,-3,-9,0,-9
-1,6,7,-2,-4,6,-5,12,-3,-8,1,-9
-2,6,8,-2,-5,7,-4,12,-3,-8,2,-8
-1,6,8,-2,-5,7,-4,11,-3,-7,2,-8
0,6,6,-3,-3,6,-4,11,-3,-8,1,-8
0,6,6,-3,-3,6,-4,10,-4,-8,1,-8
0,6,6,-2,-3,6,-3,10,-4,-8,1,-8
0,6,6,-2,-3,6,-3,10,-4,-8,1,-8
1,6,5,-3,-2,5,-3,9,-4,-8,0,-9
2,6,4,-4,0,5,-4,8,-5,-9,0,-10
3,6,4,-5,0,5,-4,8,-6,-9,0,-11
3,6,3,-5,0,5,-4,7,-6,-10,0,-11
3,7,4,-5,0,5,-4,7,-6,-10,0,-10
1,7,6,-4,-2,6,-4,7,-6,-10,0,-10
0,8,8,-3,-4,7,-3,8,-5,-10,0,-10
-2,8,9,-3,-5,8,-2,8,-5,-10,0,-10
-3,8,10,-2,-6,9,-1,9,-5,-10,0,-10
-4,8,11,-2,-7,9,-1,9,-5,-10,0,-9
-4,7,11,-1,-7,9,-1,9,-6,-10,1,-9
-4,7,11,-1,-7,9,-1,9,-6,-10,1,-8
-3,6,10,-2,-6,8,-1,9,-7,-10,0,-8
-2,6,9,-2,-5,7,-1,9,-7,-10,0,-9
-1,6,7,-2,-4,6,-1,8,-8,-11,-1,-9
0,6,6,-2,-3,6,-1,8,-8,-12,-1,-10
-2,6,7,-2,-4,6,0,8,-8,-12,-1,-9
-2,6,8,-2,-5,7,0,8,-8,-13,-1,-10
0,6,6,-3,-3,5,0,8,-9,-14,-3,-11
2,6,3,-4,0,4,-1,7,-11,-15,-4,-13
4,6,1,-5,1,3,-1,6,-12,-16,-5,-14
3,6,2,-5,0,4,-1,7,-12,-16,-5,-13
0,6,5,-3,-2,5,0,8,-12,-15,-4,-12
-1,6,7,-2,-4,6,0,8,-11,-15,-3,-11
-2,6,7,-2,-4,7,1,9,-11,-15,-3,-11
-2,6,8,-2,-5,7,1,9,-11,-15,-3,-11
-2,6,8,-2,-5,7,1,9,-11,-15,-3,-11
-2,5,8,-2,-5,7,1,9,-10,-15,-3,-11
-2,6,8,-2,-5,7,2,9,-10,-14,-3,-11
-1,5,7,-2,-4,6,2,8,-10,-15,-4,-12
1,5,4,-3,-1,4,1,7,-11,-16,-6,-14
2,5,2,-3,0,3,1,6,-12,-17,-7,-15
0,5,5,-2,-2,5,2,7,-11,-16,-6,-14
-3,6,9,-1,-6,7,3,8,-9,-15,-4,-12
-4,6,10,-1,-7,8,3,8,-9,-15,-4,-12
-3,6,10,-2,-6,8,2,8,-9,-15,-4,-11
-3,6,9,-2,-5,7,2,8,-9,-14,-4,-11
-3,5,8,-1,-5,7,2,8,-9,-14,-3,-11
-2,4,7,-1,-5,6,2,8,-9,-15,-4,-11
-2,4,6,0,-4,5,2,7,-10,-15,-4,-11
-2,3,5,0,-3,4,2,7,-10,-16,-5,-12
-2,3,5,0,-3,4,2,7,-10,-16,-5,-12
-1,2,4,-1,-3,3,2,7,-11,-17,-6,-13
-1,2,3,-1,-2,2,1,6,-11,-17,-6,-14
-1,2,4,-1,-3,3,1,6,-10,-17,-6,-14
-2,2,5,0,-4,4,2,6,-9,-16,-6,-13
-3,2,5,0,-4,4,2,7,-8,-16,-5,-12
-2,2,5,0,-4,4,2,6,-8,-16,-5,-12
-2,2,5,0,-3,4,3,6,-8,-16,-6,-12
-2,2,5,0,-4,4,3,7,-8,-16,-6,-12
-3,1,5,1,-4,3,3,7,-8,-17,-6,-13
-3,1,5,1,-4,3,3,7,-7,-17,-6,-13
-3,2,6,1,-4,4,3,7,-7,-17,-6,-12
-3,2,5,0,-4,4,4,7,-7,-17,-6,-12
-3,2,5,0,-4,4,4,7,-7,-17,-6,-12
-2,2,5,0,-3,3,4,6,-7,-17,-6,-12
-1,2,3,0,-2,2,4,6,-7,-18,-7,-13
0,2,2,0,-1,2,4,5,-8,-19,-8,-14
0,2,2,0,-1,2,4,5,-7,-19,-8,-14
0,2,2,0,-1,2,4,6,-7,-18,-7,-14
-1,1,2,0,-1,1,4,6,-6,-18,-7,-13
-1,0,2,0,-1,1,4,6,-6,-18,-7,-13
-1,0,1,1,-1,0,4,6,-7,-18,-8,-13
-2,0,1,1,-1,0,4,6,-8,-19,-8,-13
-2,0,1,1,-1,0,4,6,-10,-19,-8,-13
-2,0,1,1,-1,0,4,6,-11,-19,-8,-13
-1,0,1,1,-1,0,4,6,-13,-19,-9,-13
1,0,-1,0,0,0,4,5,-14,-19,-11,-14
2,-1,-2,0,2,-1,4,4,-16,-20,-12,-15
0,-1,-1,0,0,0,4,5,-16,-19,-11,-15
-2,0,2,1,-2,1,6,6,-16,-18,-10,-14
-2,0,2,1,-2,1,6,7,-16,-18,-10,-14
-1,0,1,0,-1,0,5,7,-17,-18,-11,-14
-3,0,3,1,-2,1,6,7,-17,-18,-10,-13
-5,1,6,2,-5,3,7,8,-16,-17,-9,-12
-5,1,6,3,-5,3,7,8,-16,-17,-9,-12
-4,1,5,2,-5,2,7,8,-17,-17,-10,-12
-3,1,3,2,-4,2,7,8,-17,-17,-11,-12
-2,1,2,1,-2,1,7,8,-18,-17,-10,-12
-1,0,1,0,-1,1,7,8,-18,-17,-10,-12
0,0,1,0,-1,0,7,7,-19,-18,-10,-13
0,0,0,0,0,0,7,7,-19,-18,-10,-13
0,-1,0,0,0,-1,7,7,-19,-18,-11,-13
0,-1,0,0,0,-1,7,7,-19,-18,-11,-13
0,-1,0,0,0,-1,7,7,-19,-18,-11,-13
0,-1,0,0,0,0,7,7,-19,-18,-10,-13
-2,0,1,1,-1,0,7,8,-19,-17,-10,-12
-4,0,3,2,-3,1,8,9,-18,-16,-9,-12
-5,0,4,2,-4,2,8,9,-18,-16,-9,-11
-6,0,5,3,-5,2,9,10,-17,-15,-9,-10
-6,0,5,3,-5,2,9,10,-17,-15,-9,-10
-4,-1,4,3,-4,1,9,10,-17,-15,-9,-11
-3,-1,2,3,-3,0,8,10,-18,-16,-10,-12
-2,-2,1,3,-2,0,8,9,-18,-16,-10,-12
-2,-2,0,3,-1,-1,8,9,-19,-17,-11,-13
-1,-2,-1,2,0,-1,8,8,-19,-18,-12,-13
0,-2,-2,1,1,-2,7,8,-20,-19,-13,-14
0,-2,-3,0,1,-2,7,8,-20,-18,-13,-14
0,-2,-2,0,1,-2,7,9,-20,-17,-12,-14
-1,-2,-1,1,0,-1,8,9,-19,-17,-12,-13
-1,-2,0,2,-1,-1,8,9,-19,-17,-12,-13
0,-3,-2,1,0,-2,8,9,-19,-17,-12,-14
1,-3,-4,1,2,-3,7,8,-20,-18,-13,-15
2,-3,-6,0,4,-4,7,8,-20,-19,-14,-16
2,-3,-5,0,3,-3,8,8,-20,-19,-14,-16
0,-2,-2,1,1,-2,8,9,-20,-18,-13,-14
-3,-2,1,2,-1,0,9,10,-19,-17,-12,-13
-3,-2,2,3,-2,0,9,10,-19,-17,-12,-12
-3,-2,1,3,-1,-1,9,9,-19,-17,-12,-13
-3,-2,0,3,-1,-1,9,9,-18,-17,-12,-13
-4,-2,1,3,-2,0,10,10,-18,-16,-12,-13
-4,-2,1,3,-3,0,10,10,-17,-16,-12,-13
-3,-3,0,3,-1,-1,9,9,-18,-17,-12,-14
-1,-3,-2,2,1,-3,9,9,-19,-18,-13,-15
0,-4,-4,1,2,-4,8,9,-19,-19,-14,-15
0,-4,-3,2,2,-4,8,9,-19,-19,-14,-15
-1,-4,-2,3,0,-3,9,9,-19,-19,-13,-14
-3,-4,-1,4,-1,-3,9,9,-19,-18,-13,-14
-3,-4,0,4,-1,-2,9,9,-18,-18,-13,-13
-3,-3,0,4,-1,-2,10,10,-18,-17,-12,-13
-4,-3,0,4,-1,-1,10,10,-18,-17,-12,-13
-4,-3,0,4,-1,-1,10,10,-18,-17,-12,-13
-3,-3,-1,3,0,-2,10,10,-18,-17,-12,-13
-1,-3,-2,2,1,-3,10,10,-19,-18,-13,-14
-1,-3,-2,2,1,-3,10,9,-19,-18,-13,-14
-1,-3,-2,3,0,-3,10,9,-19,-18,-13,-14
-1,-3,-2,2,0,-3,10,9,-19,-18,-14,-14
0,-3,-3,2,1,-3,10,9,-19,-18,-14,-14
0,-3,-4,2,2,-3,10,9,-19,-19,-14,-14
0,-4,-4,2,2,-4,10,9,-19,-19,-14,-15
1,-4,-6,2,3,-5,9,9,-19,-19,-14,-15
2,-4,-7,1,4,-6,9,9,-18,-19,-14,-15
1,-4,-5,2,2,-5,10,10,-17,-18,-14,-14
-1,-4,-2,3,0,-3,10,10,-16,-18,-13,-13
-2,-4,-1,3,0,-3,10,10,-15,-18,-13,-13
-3,-4,0,3,-1,-2,10,10,-15,-18,-13,-13
-4,-3,0,4,-2,-2,11,11,-14,-17,-13,-13
-5,-3,1,4,-2,-1,11,12,-14,-17,-13,-12
-4,-3,0,4,-2,-2,11,12,-14,-17,-12,-12
-3,-3,-1,4,0,-3,11,11,-14,-17,-13,-13
0,-4,-4,3,2,-4,10,10,-15,-18,-14,-14
1,-5,-7,2,4,-6,9,9,-15,-19,-15,-15
1,-5,-6,2,3,-6,9,9,-15,-19,-15,-15
-1,-5,-4,2,1,-4,9,10,-15,-18,-14,-14
-3,-5,-2,3,0,-3,10,10,-15,-18,-14,-13
-3,-5,-2,3,0,-3,10,10,-15,-18,-14,-13
-3,-5,-1,3,0,-3,10,11,-15,-18,-13,-12
-3,-4,-1,4,0,-3,10,11,-14,-17,-13,-12
-3,-4,-1,4,0,-3,11,11,-14,-17,-12,-11
-2,-4,-2,3,0,-3,11,11,-14,-18,-12,-11
-2,-5,-3,3,1,-4,11,11,-14,-18,-13,-12
-2,-5,-3,3,0,-4,11,11,-14,-19,-14,-13
-2,-6,-3,4,0,-4,11,11,-14,-19,-15,-13
-3,-6,-2,4,0,-3,11,12,-14,-19,-14,-12
-3,-5,-2,4,0,-3,11,12,-14,-18,-14,-11
-3,-5,-1,4,0,-3,11,12,-14,-18,-13,-11
-3,-5,-2,4,0,-3,12,12,-13,-17,-13,-11
-3,-5,-2,4,0,-4,12,12,-13,-17,-13,-11
-2,-5,-3,3,1,-4,11,12,-13,-17,-13,-12
0,-4,-4,2,2,-4,11,12,-13,-17,-13,-13
0,-4,-4,1,2,-4,11,12,-13,-17,-14,-13
1,-3,-3,0,2,-3,12,12,-13,-17,-14,-13
0,-1,-1,0,1,-1,13,12,-12,-16,-13,-12
-2,0,1,0,-1,0,13,13,-11,-15,-12,-11
-3,0,4,1,-3,1,14,14,-9,-15,-11,-10
-4,1,6,1,-4,3,14,14,-8,-14,-10,-9
-4,2,7,1,-5,4,15,15,-7,-13,-10,-9
-4,2,7,1,-6,5,15,15,-6,-13,-10,-9
-4,2,7,0,-5,5,15,16,-6,-12,-10,-9
-2,2,5,0,-4,4,15,16,-6,-12,-10,-10
0,2,3,-1,-2,3,15,16,-6,-13,-11,-10
0,2,1,-1,0,2,15,16,-6,-13,-11,-10
0,1,1,-1,0,2,16,17,-6,-13,-11,-10
0,1,1,0,0,1,16,17,-6,-13,-11,-11
1,0,0,0,0,0,16,16,-6,-13,-12,-11
1,0,-1,0,0,0,16,16,-6,-13,-12,-12
1,-1,-2,0,1,-1,16,16,-6,-14,-12,-12
2,-1,-4,0,3,-2,15,15,-7,-15,-12,-13
2,-2,-5,0,3,-3,14,13,-7,-15,-13,-13
0,-2,-3,1,1,-2,13,13,-7,-15,-12,-12
-2,-3,-1,3,-1,-2,13,13,-6,-14,-11,-11
-3,-3,0,3,-1,-2,13,13,-6,-14,-11,-11
-3,-3,0,3,-1,-2,13,13,-6,-13,-11,-10
-3,-3,0,3,-1,-2,13,13,-6,-13,-10,-9
-3,-3,0,3,-1,-1,13,13,-6,-13,-10,-8
-2,-3,0,2,-1,-1,13,13,-6,-12,-9,-7
-1,-2,0,2,-1,-1,12,12,-6,-12,-9,-6
-1,-2,0,2,-1,-1,12,12,-7,-12,-8,-6
-1,-3,-1,2,0,-2,12,12,-7,-12,-9,-7
0,-3,-3,2,1,-3,11,12,-8,-14,-10,-8
1,-4,-4,2,2,-4,11,11,-10,-15,-11,-8
1,-5,-6,2,3,-6,10,10,-11,-16,-12,-9
2,-6,-8,2,5,-7,9,9,-12,-17,-12,-9
2,-7,-9,2,6,-8,9,8,-13,-17,-13,-10
3,-8,-11,2,7,-9,8,7,-13,-18,-13,-10
3,-9,-11,3,7,-10,8,7,-14,-18,-13,-10
2,-10,-10,3,6,-10,8,6,-14,-18,-13,-10
2,-10,-10,3,6,-10,7,6,-15,-18,-14,-10
2,-10,-10,3,6,-10,7,5,-15,-19,-14,-10
1,-10,-10,4,5,-10,7,5,-15,-19,-14,-10
0,-9,-9,4,4,-9,7,5,-15,-19,-14,-9
0,-9,-8,4,3,-8,7,5,-14,-19,-13,-9
-1,-8,-7,4,2,-7,7,5,-14,-18,-13,-9
-2,-8,-6,4,1,-6,7,5,-14,-18,-13,-9
-2,-7,-5,4,1,-6,8,6,-13,-18,-14,-9
-1,-7,-5,4,1,-6,8,6,-14,-18,-14,-10
-1,-7,-5,4,2,-6,8,5,-14,-19,-15,-11
0,-7,-6,4,2,-6,8,5,-15,-20,-16,-12
1,-7,-8,3,4,-7,7,4,-16,-21,-17,-14
4,-8,-11,2,7,-10,5,2,-17,-23,-19,-16
6,-9,-14,2,10,-12,4,1,-19,-24,-21,-18
5,-10,-14,2,9,-12,4,0,-19,-25,-22,-18
1,-9,-10,4,5,-10,5,1,-18,-24,-20,-16
-2,-9,-6,5,1,-7,6,2,-16,-22,-19,-14
-4,-9,-5,6,0,-6,7,3,-15,-22,-18,-13
-4,-9,-4,6,0,-6,7,3,-15,-22,-18,-13
-5,-8,-4,6,-1,-6,7,3,-14,-21,-17,-12
-5,-8,-3,6,-1,-5,7,3,-13,-21,-16,-11
-6,-8,-2,6,-2,-5,8,4,-13,-20,-16,-11
-5,-8,-4,6,-1,-5,7,3,-13,-21,-17,-11
-3,-8,-6,5,1,-7,7,3,-14,-21,-18,-12
0,-8,-8,4,3,-8,6,2,-15,-22,-19,-13
1,-8,-10,3,5,-9,6,2,-15,-23,-19,-14
0,-8,-9,3,5,-9,6,2,-15,-23,-19,-14
-1,-8,-7,4,3,-7,7,2,-15,-22,-18,-13
-4,-8,-4,6,0,-6,8,3,-14,-21,-16,-12
-5,-8,-2,7,-2,-5,8,3,-13,-21,-15,-11
-5,-8,-3,6,-1,-5,8,3,-13,-21,-16,-11
-2,-8,-6,5,2,-7,7,2,-14,-22,-18,-13
1,-9,-10,4,5,-9,6,1,-15,-23,-19,-14
1,-9,-10,4,5,-9,7,2,-14,-23,-20,-14
-2,-8,-6,5,2,-7,8,3,-12,-21,-18,-12
-5,-8,-2,7,-1,-5,10,6,-10,-19,-17,-11
-7,-8,-1,7,-2,-4,11,7,-8,-18,-16,-11
-8,-7,0,7,-3,-3,12,8,-6,-17,-15,-11
-8,-6,2,7,-4,-2,12,8,-5,-15,-14,-11
-8,-4,3,6,-5,0,12,7,-3,-13,-12,-9
-7,-2,4,4,-5,1,12,7,-1,-8,-8,-6
-6,1,6,3,-6,4,11,7,0,-1,-1,-2
-5,4,8,1,-7,6,10,6,3,8,8,4
-3,8,11,-2,-7,9,7,5,6,20,21,12
-1,13,14,-6,-7,14,1,1,8,34,37,24
1,20,19,-11,-8,20,-6,-7,9,50,58,38
5,27,22,-17,-8,25,-15,-17,7,68,81,56
10,32,22,-21,-6,27,-25,-30,0,82,106,76
16,36,20,-26,-2,28,-35,-45,-13,91,129,96
20,40,19,-30,0,30,-45,-61,-31,95,149,115
21,46,24,-34,-1,36,-52,-78,-51,93,164,131
21,54,34,-38,-6,45,-58,-95,-72,86,175,143
20,64,44,-42,-11,54,-65,-110,-92,76,179,151
21,69,48,-45,-13,59,-70,-121,-108,62,175,153
22,63,42,-43,-10,53,-70,-124,-122,43,158,145
21,49,28,-35,-4,39,-67,-123,-134,17,129,126
19,35,16,-27,1,26,-64,-122,-146,-12,92,101
16,23,7,-19,4,15,-63,-124,-160,-45,52,73
12,13,1,-12,5,7,-63,-128,-175,-82,6,43
8,6,-1,-6,4,2,-65,-133,-191,-117,-36,15
6,1,-4,-2,5,-1,-67,-136,-202,-142,-67,-5
4,-2,-6,0,5,-4,-68,-136,-207,-154,-84,-18
1,-5,-6,1,4,-6,-66,-131,-205,-158,-93,-26
-2,-7,-5,4,2,-6,-62,-122,-197,-155,-96,-32
-5,-10,-5,7,0,-8,-57,-110,-187,-150,-97,-36
-7,-14,-7,11,0,-11,-51,-98,-176,-144,-97,-39
-9,-20,-11,14,0,-16,-45,-86,-165,-137,-96,-41
-9,-25,-16,17,3,-20,-38,-74,-154,-129,-94,-42
-8,-30,-21,19,6,-25,-32,-62,-142,-121,-90,-43
-8,-33,-25,21,8,-29,-27,-53,-130,-112,-86,-42
-9,-35,-26,22,9,-31,-25,-48,-119,-102,-80,-40
-9,-35,-27,22,9,-31,-23,-44,-107,-93,-74,-36
-9,-35,-27,22,9,-31,-21,-39,-95,-84,-68,-32
-7,-34,-27,21,9,-31,-17,-33,-84,-75,-62,-28
-5,-32,-27,19,11,-30,-13,-28,-73,-67,-56,-25
-2,-31,-28,17,13,-29,-10,-23,-63,-59,-52,-22
0,-28,-28,14,14,-28,-7,-18,-54,-51,-47,-19
0,-25,-25,12,13,-25,-3,-14,-45,-44,-42,-16
0,-22,-22,11,11,-22,0,-10,-37,-38,-37,-13
0,-19,-19,10,9,-19,2,-6,-30,-32,-32,-9
-2,-16,-14,10,5,-16,4,-3,-23,-27,-28,-6
-4,-14,-10,9,2,-13,6,0,-17,-23,-24,-3
-4,-12,-8,8,1,-11,7,2,-13,-20,-22,0
-3,-10,-7,7,0,-9,8,4,-9,-17,-20,0
-3,-9,-6,7,0,-8,9,5,-7,-15,-19,1
-2,-9,-6,6,1,-8,10,5,-6,-14,-18,1
-1,-8,-6,5,2,-7,10,5,-5,-13,-17,1
0,-8,-7,4,3,-7,10,5,-4,-12,-17,1
0,-7,-7,4,3,-7,10,6,-3,-12,-16,2
-1,-7,-5,3,1,-5,11,7,-1,-11,-14,4
-2,-6,-3,3,0,-4,11,8,0,-10,-13,6
-3,-5,-1,4,-1,-3,12,8,1,-9,-12,7
-4,-5,0,4,-2,-2,12,9,2,-8,-11,7
-4,-4,0,4,-3,-2,13,9,3,-7,-10,8
-5,-4,0,4,-3,-1,13,10,3,-6,-10,8
-5,-4,0,4,-3,-1,13,10,4,-6,-9,8
-5,-4,0,5,-2,-1,13,10,4,-7,-9,8
-3,-4,-1,4,-1,-2,13,10,4,-7,-9,8
0,-3,-3,2,1,-3,12,10,4,-7,-9,9
1,-3,-5,1,3,-4,12,10,4,-7,-9,8
3,-4,-7,0,5,-5,11,9,4,-7,-10,7
5,-4,-9,0,7,-7,10,9,4,-7,-10,6
5,-4,-9,0,6,-7,10,9,4,-7,-10,6
1,-4,-5,1,2,-4,11,10,5,-5,-9,8
-3,-4,0,3,-2,-1,13,11,7,-3,-6,11
-5,-3,3,4,-5,0,13,12,8,-1,-4,13
-5,-3,3,4,-5,0,14,12,9,-1,-4,14
-4,-3,3,4,-4,0,14,12,9,-1,-5,14
-3,-3,2,4,-3,0,14,12,10,0,-5,13
-3,-3,0,3,-2,-1,14,13,10,0,-5,13
-2,-3,0,3,-2,-1,14,13,11,0,-5,13
-1,-2,-1,2,-1,-2,13,13,11,1,-5,13
0,-2,-2,1,0,-2,13,12,11,1,-5,12
1,-2,-3,1,1,-2,12,12,11,1,-5,12
2,-3,-4,0,2,-3,12,12,11,1,-5,11
3,-3,-5,0,3,-4,12,12,11,1,-6,11
2,-3,-4,0,3,-3,13,12,12,2,-5,11
0,-3,-2,1,1,-2,13,13,14,4,-4,12
0,-2,-1,2,0,-2,14,14,15,5,-4,13
0,-2,-1,2,0,-2,14,14,15,5,-3,13
0,-2,-1,2,0,-2,14,14,16,6,-3,13
-1,-2,-1,2,0,-1,14,15,17,7,-2,14
-1,-2,0,1,0,-1,14,15,18,8,-1,14
-1,-2,0,1,0,-1,14,16,18,9,0,15
-1,-2,0,2,-1,-1,14,16,19,10,0,15
-2,-2,0,2,-1,-1,14,17,20,11,1,15
-2,-2,0,2,-1,-1,14,17,21,12,1,16
-1,-2,0,2,-1,-1,14,17,22,13,1,16
-1,-2,-1,2,0,-2,14,17,22,14,1,16
-1,-2,-1,2,0,-2,14,17,23,15,2,16
0,-2,-2,1,0,-2,14,18,23,16,2,16
2,-2,-4,0,2,-3,14,18,24,16,2,15
3,-2,-5,0,4,-4,14,18,24,17,3,15
3,-2,-5,0,3,-3,14,18,26,18,4,15
2,-2,-3,0,2,-2,14,19,27,20,5,15
0,-2,-1,1,0,-1,15,20,29,22,7,17
-2,-2,0,2,-1,0,15,21,31,24,9,18
-3,-2,1,2,-2,0,16,22,32,26,10,19
-2,-1,0,2,-2,0,16,23,33,27,11,19
-2,-1,0,2,-1,0,16,24,34,29,12,20
-1,0,0,1,-1,0,17,25,35,30,14,20
0,0,0,1,0,0,17,25,37,32,15,20
0,0,-1,0,0,0,16,26,38,34,16,20
1,0,-1,0,0,0,16,26,40,35,17,20
1,0,-1,0,1,0,16,27,41,37,18,20
1,0,-2,0,1,0,16,28,42,39,19,20
2,0,-2,0,2,0,16,29,44,41,21,20
2,0,-2,-1,2,0,17,31,46,44,23,21
3,1,-2,-2,2,0,17,32,48,46,25,22
2,2,-1,-1,1,1,18,34,50,50,27,23
2,3,0,-1,0,2,18,35,53,53,30,25
2,3,1,-2,0,2,19,36,55,57,33,26
2,4,1,-2,0,3,19,38,58,60,35,28
2,4,2,-2,0,3,20,39,60,63,37,29
3,5,0,-3,1,2,19,40,61,65,39,29
5,5,-1,-5,3,2,19,40,62,67,41,30
7,5,-3,-6,4,1,19,41,63,70,43,30
8,5,-4,-6,5,1,19,42,65,73,45,31
8,6,-3,-6,5,2,19,43,68,77,48,33
8,6,-1,-7,4,3,20,44,71,82,51,34
8,7,-1,-7,4,3,20,45,73,85,53,35
8,7,-1,-8,4,3,20,46,74,88,55,36
8,8,0,-8,4,4,20,47,76,90,57,37
8,8,0,-8,4,4,20,48,77,93,59,37
9,9,0,-8,4,4,21,49,78,95,61,38
8,10,1,-9,3,5,21,50,80,97,63,39
6,11,4,-8,0,8,22,51,83,101,67,42
4,11,7,-7,-2,10,23,53,86,105,70,45
4,11,7,-7,-1,10,22,53,87,106,71,45
6,12,6,-8,0,9,22,53,87,107,71,45
7,12,5,-9,1,9,22,53,86,107,71,44
8,12,4,-9,2,8,22,53,86,107,71,43
8,12,4,-9,2,9,22,53,86,107,71,43
7,13,6,-9,0,10,22,53,86,108,72,44
6,13,7,-9,-1,10,23,53,86,108,73,45
6,13,8,-10,-1,10,23,53,86,108,73,45
6,13,8,-10,-1,11,23,52,86,108,73,45
4,13,9,-9,-2,11,23,52,86,107,72,45
3,14,10,-8,-3,12,23,52,85,106,72,45
2,14,10,-7,-3,12,23,51,84,105,71,45
3,13,9,-8,-2,11,22,49,82,102,69,44
5,13,7,-8,0,10,22,48,80,98,67,42
7,13,5,-9,1,9,21,46,77,94,64,40
7,12,4,-9,1,8,20,44,74,91,62,39
7,12,4,-9,1,8,20,42,72,88,60,38
7,12,4,-9,1,8,20,41,70,85,57,36
6,12,5,-8,0,9,20,40,68,82,55,35
4,12,7,-7,-1,9,20,39,66,78,52,33
3,12,8,-6,-2,10,20,38,64,74,50,32
2,12,9,-6,-3,10,20,36,61,70,47,31
2,12,8,-6,-3,10,19,34,58,66,44,29
3,11,6,-7,-1,8,17,31,54,60,40,27
6,10,2,-8,2,6,16,27,50,54,35,24
9,10,0,-8,4,4,15,24,46,49,31,21
9,9,-1,-8,5,3,14,22,43,44,27,18
8,9,0,-7,4,4,14,21,40,41,25,17
5,8,2,-6,1,5,14,20,38,38,24,17
3,8,3,-5,0,5,14,19,35,35,21,16
3,7,3,-4,-1,5,14,17,32,31,19,14
3,7,3,-4,0,5,14,15,29,26,15,13
2,6,3,-3,-1,4,14,13,26,23,12,11
0,5,3,-2,-2,4,14,11,24,19,10,10
0,4,3,-1,-2,4,14,10,22,16,7,8
0,3,3,-1,-2,3,14,9,20,14,5,7
-1,3,3,0,-2,3,14,8,17,11,4,6
-2,2,3,0,-3,2,14,6,15,8,2,5
-2,2,3,0,-2,2,13,4,12,5,0,4
0,1,1,0,-1,1,12,2,9,1,-3,2
1,0,-2,0,1,-1,11,0,6,-2,-6,0
3,-1,-5,0,4,-3,10,-2,4,-5,-9,-2
4,-2,-7,0,5,-4,10,-4,2,-8,-11,-4
3,-2,-5,1,4,-4,10,-4,1,-9,-12,-5
0,-2,-2,2,1,-2,11,-4,1,-8,-11,-3
-3,-2,1,3,-2,-1,12,-4,1,-8,-10,-2
-4,-3,1,3,-3,-1,12,-4,0,-9,-10,-2
-4,-3,0,3,-2,-1,12,-6,-2,-11,-11,-3
-3,-3,-1,3,-1,-2,12,-7,-4,-12,-13,-3
-2,-3,-2,3,0,-2,12,-9,-5,-14,-14,-4
-2,-3,-3,3,0,-3,11,-10,-6,-15,-15,-5
0,-4,-4,3,1,-4,11,-11,-6,-16,-16,-6
1,-4,-6,2,3,-5,10,-12,-8,-18,-17,-8
3,-5,-8,2,5,-7,9,-13,-9,-19,-19,-9
3,-5,-9,2,6,-7,9,-13,-10,-19,-19,-10
1,-5,-7,2,4,-7,9,-14,-10,-20,-19,-10
0,-5,-5,3,2,-6,10,-14,-10,-20,-19,-9
-2,-5,-4,4,0,-5,10,-14,-10,-19,-19,-8
-2,-5,-4,5,0,-4,11,-14,-10,-19,-18,-8
-2,-5,-4,5,0,-4,11,-14,-10,-19,-18,-7
-3,-5,-3,5,0,-4,11,-13,-9,-19,-17,-7
-3,-5,-2,5,-1,-4,11,-13,-9,-18,-17,-7
-2,-5,-4,4,0,-5,10,-14,-9,-19,-17,-8
0,-5,-6,3,3,-6,9,-15,-10,-20,-18,-9
1,-5,-8,3,4,-7,9,-16,-11,-20,-19,-9
2,-5,-9,3,5,-7,9,-16,-11,-20,-19,-10
1,-5,-8,3,5,-7,9,-16,-11,-20,-19,-10
0,-5,-7,4,3,-6,9,-16,-10,-20,-18,-9
0,-6,-6,4,2,-6,10,-15,-10,-19,-18,-8
0,-6,-6,4,2,-6,10,-16,-10,-19,-18,-9
0,-6,-7,4,3,-6,10,-16,-9,-19,-19,-9
1,-6,-8,4,4,-7,10,-17,-9,-19,-20,-10
1,-6,-8,4,4,-7,10,-17,-9,-19,-20,-11
1,-6,-8,4,4,-7,10,-17,-9,-19,-21,-11
1,-6,-8,4,4,-7,10,-17,-9,-19,-21,-11
1,-6,-8,3,4,-7,10,-17,-9,-19,-21,-10
2,-6,-9,3,5,-7,10,-17,-9,-18,-21,-11
1,-6,-7,3,4,-7,10,-17,-8,-18,-20,-11
0,-5,-6,4,2,-6,11,-16,-7,-16,-19,-10
0,-5,-5,4,2,-5,11,-16,-7,-16,-19,-9
0,-6,-6,3,3,-6,11,-17,-7,-16,-19,-10
1,-6,-7,3,4,-6,11,-17,-7,-16,-19,-10
0,-6,-6,3,3,-6,11,-17,-6,-15,-19,-10
-2,-5,-3,4,1,-4,12,-16,-5,-14,-18,-9
-4,-5,-1,5,-1,-3,13,-16,-4,-13,-17,-8
-4,-5,-1,5,-1,-3,13,-16,-3,-13,-16,-8
-3,-5,-2,4,0,-4,12,-16,-3,-13,-16,-8
-2,-5,-3,4,0,-4,12,-16,-3,-12,-16,-8
-1,-5,-4,3,1,-4,12,-16,-3,-12,-16,-8
0,-5,-5,3,3,-5,12,-17,-3,-12,-17,-8
1,-5,-7,2,4,-5,11,-17,-4,-12,-17,-9
1,-4,-6,2,4,-5,11,-17,-3,-12,-17,-9
0,-4,-4,3,2,-4,12,-17,-3,-12,-16,-8
0,-4,-3,3,1,-4,12,-17,-2,-11,-16,-7
-1,-4,-3,3,1,-4,12,-17,-2,-11,-16,-7
-1,-4,-2,3,0,-4,12,-17,-1,-11,-16,-7
-1,-3,-2,3,1,-4,12,-17,-1,-10,-16,-7
0,-3,-2,2,1,-4,12,-17,-1,-10,-16,-7
0,-3,-2,2,1,-3,12,-17,-1,-9,-15,-7
-1,-3,-2,2,0,-3,13,-17,-1,-9,-15,-7
-1,-3,-2,2,0,-3,13,-17,-1,-9,-15,-7
0,-3,-3,1,1,-3,13,-17,-1,-9,-15,-8
0,-3,-4,1,2,-4,13,-18,-1,-9,-15,-8
0,-3,-4,2,2,-4,13,-18,-1,-9,-15,-8
-1,-3,-3,2,1,-3,13,-18,0,-8,-15,-7
-1,-3,-2,2,1,-3,13,-17,0,-8,-14,-7
-1,-3,-2,2,1,-3,13,-17,0,-8,-14,-7
0,-3,-3,2,2,-3,13,-17,0,-8,-14,-7
1,-3,-4,1,3,-4,13,-18,-1,-9,-15,-8
2,-3,-5,0,4,-4,12,-18,-1,-9,-15,-8
2,-3,-5,0,4,-5,12,-18,-1,-9,-15,-8
2,-3,-5,1,4,-5,12,-19,-1,-9,-15,-8
2,-3,-5,1,4,-5,12,-19,-2,-10,-16,-8
2,-3,-5,1,3,-5,12,-19,-2,-10,-16,-9
1,-3,-3,1,2,-4,12,-19,-2,-10,-15,-8
-1,-3,-1,2,0,-2,12,-19,-1,-9,-14,-7
-2,-2,0,3,-1,-1,13,-18,-1,-9,-13,-7
-3,-2,0,3,-1,-1,13,-18,0,-9,-13,-7
-2,-2,0,3,-1,-1,13,-19,-1,-9,-13,-7
-1,-2,-2,3,0,-2,13,-20,-1,-10,-14,-7
0,-2,-3,2,1,-3,13,-21,-2,-10,-14,-7
0,-2,-3,2,1,-3,13,-21,-2,-10,-15,-7
0,-3,-3,2,1,-3,12,-21,-2,-10,-15,-8
0,-3,-3,2,1,-3,11,-22,-3,-11,-16,-8
0,-3,-3,2,1,-3,11,-22,-3,-11,-16,-8
-1,-3,-3,2,1,-3,11,-22,-3,-11,-16,-8
-1,-3,-3,2,1,-3,11,-22,-3,-12,-16,-8
1,-3,-6,2,3,-5,11,-23,-3,-13,-17,-9
3,-3,-8,1,6,-6,10,-24,-4,-14,-18,-10
4,-3,-8,0,6,-6,10,-24,-4,-14,-18,-10
2,-3,-6,1,4,-5,10,-24,-3,-13,-17,-9
0,-3,-4,2,1,-4,10,-23,-3,-13,-16,-8
-1,-4,-3,2,0,-4,10,-24,-3,-13,-16,-8
-1,-4,-3,3,1,-4,10,-24,-3,-14,-17,-8
-1,-4,-4,3,1,-5,10,-24,-4,-14,-17,-9
-1,-4,-3,3,1,-4,10,-24,-4,-14,-17,-8
-2,-4,-3,3,0,-4,10,-24,-4,-14,-17,-8
-2,-4,-2,4,0,-3,10,-24,-4,-14,-17,-7
-2,-4,-1,4,0,-3,10,-25,-4,-14,-17,-7
-2,-4,-2,4,0,-3,10,-25,-4,-14,-17,-8
-2,-5,-3,3,0,-3,10,-26,-5,-14,-18,-8
-1,-5,-4,3,1,-4,10,-27,-5,-15,-18,-9
0,-5,-5,3,2,-5,10,-27,-6,-15,-19,-10
0,-5,-6,3,3,-5,10,-28,-6,-15,-19,-10
0,-4,-5,3,3,-5,10,-28,-5,-15,-19,-10
0,-4,-5,3,3,-5,10,-28,-5,-15,-19,-10
1,-4,-6,2,4,-6,9,-28,-6,-16,-20,-10
1,-5,-6,2,4,-6,9,-29,-6,-16,-20,-11
0,-5,-5,3,2,-5,10,-29,-6,-16,-20,-10
-3,-5,-3,4,0,-4,10,-28,-5,-16,-19,-9
-4,-5,-1,4,-1,-4,10,-28,-4,-15,-19,-9
-4,-5,-1,4,-1,-4,10,-28,-4,-15,-19,-9
-4,-5,-2,4,-1,-4,11,-28,-4,-15,-19,-9
-3,-5,-2,4,0,-4,11,-28,-4,-16,-19,-9
-3,-5,-3,4,0,-4,11,-28,-4,-16,-19,-9
-1,-5,-5,3,2,-5,10,-29,-4,-17,-20,-10
1,-6,-8,2,4,-6,9,-30,-5,-18,-21,-12
4,-6,-11,1,7,-8,9,-31,-6,-19,-22,-13
4,-6,-11,1,7,-8,9,-31,-6,-19,-23,-14
2,-6,-8,2,5,-8,9,-31,-6,-18,-22,-13
0,-5,-6,3,3,-6,9,-30,-5,-18,-21,-12
-1,-5,-4,3,2,-5,10,-29,-4,-17,-21,-11
-2,-5,-4,3,1,-5,10,-29,-4,-17,-21,-11
-1,-5,-4,3,1,-5,10,-29,-4,-18,-21,-11
-1,-5,-5,3,1,-5,10,-29,-4,-18,-21,-11
-1,-5,-5,3,1,-5,11,-29,-4,-18,-21,-11
0,-5,-6,3,2,-5,10,-30,-4,-19,-21,-12
0,-6,-7,2,4,-6,10,-30,-5,-20,-22,-13
0,-6,-6,3,3,-6,10,-30,-5,-19,-22,-13
-2,-5,-4,3,1,-5,10,-30,-4,-18,-21,-12
-2,-5,-4,3,1,-5,10,-30,-4,-18,-21,-12
0,-6,-6,3,3,-6,10,-30,-4,-19,-21,-12
0,-6,-7,2,4,-6,9,-31,-4,-19,-22,-13
0,-5,-6,3,3,-6,10,-30,-4,-19,-21,-13
-2,-5,-4,4,1,-4,11,-29,-3,-18,-20,-12
-4,-5,-2,4,0,-4,11,-29,-2,-17,-19,-11
-4,-5,-2,4,0,-4,11,-29,-2,-17,-19,-11
-4,-5,-2,4,0,-4,10,-29,-2,-17,-19,-11
-3,-5,-2,4,0,-4,10,-29,-2,-17,-19,-11
-3,-5,-2,4,0,-4,10,-29,-2,-18,-19,-12
-2,-5,-3,4,0,-4,10,-29,-2,-18,-20,-12
-2,-5,-4,4,1,-5,10,-30,-2,-19,-20,-13
-1,-6,-5,4,2,-6,10,-30,-2,-20,-21,-14
1,-6,-7,3,4,-7,9,-31,-3,-21,-22,-15
3,-6,-9,2,6,-8,8,-32,-3,-22,-23,-16
4,-6,-11,1,7,-9,8,-32,-3,-23,-24,-17
3,-6,-10,2,6,-8,8,-32,-3,-22,-23,-16
0,-6,-7,3,3,-7,8,-32,-2,-21,-22,-15
-1,-6,-5,3,1,-5,9,-31,-1,-20,-21,-13
-2,-6,-4,3,0,-5,9,-31,0,-20,-20,-13
-3,-5,-3,4,-1,-4,10,-30,1,-20,-20,-12
-4,-5,-2,4,-1,-4,10,-30,1,-19,-19,-12
-3,-5,-2,4,-1,-4,10,-29,2,-19,-19,-12
-3,-5,-3,4,0,-4,10,-29,2,-20,-19,-12
-3,-5,-3,4,0,-4,10,-29,3,-20,-20,-12
-2,-5,-3,4,0,-4,10,-29,3,-20,-20,-12
-2,-5,-4,3,0,-5,10,-29,3,-20,-20,-12
0,-6,-5,3,2,-6,9,-30,3,-21,-21,-13
2,-6,-9,2,5,-8,9,-31,2,-23,-22,-15
5,-7,-12,0,9,-10,8,-32,1,-24,-24,-17
6,-7,-13,0,10,-10,7,-33,1,-25,-25,-17
4,-7,-10,1,7,-9,8,-32,2,-24,-23,-16
0,-6,-5,3,3,-6,9,-31,3,-22,-22,-13
-3,-6,-2,4,0,-4,10,-30,4,-21,-20,-12
-5,-6,0,5,-1,-3,10,-29,5,-21,-19,-11
-5,-6,0,5,-2,-3,10,-29,5,-21,-19,-11
-5,-6,0,6,-2,-3,10,-29,5,-21,-19,-11
-5,-6,-1,6,-2,-4,10,-29,5,-21,-19,-11
-4,-6,-2,6,-2,-4,10,-29,5,-21,-19,-11
-5,-6,-2,6,-2,-4,10,-29,5,-22,-20,-11
-5,-6,-2,5,-1,-4,10,-30,5,-22,-20,-12
-3,-6,-4,4,0,-5,9,-31,5,-23,-21,-13
-1,-7,-6,3,2,-6,9,-32,4,-23,-22,-14
0,-7,-8,2,4,-7,8,-32,3,-24,-23,-15
1,-7,-8,2,4,-7,8,-32,3,-24,-23,-15
0,-7,-6,3,2,-6,9,-32,4,-23,-22,-14
-2,-7,-4,4,0,-5,9,-31,5,-23,-21,-13
-2,-6,-4,4,0,-5,9,-31,5,-23,-21,-13
-1,-6,-5,3,2,-6,9,-32,4,-24,-22,-14
0,-6,-6,3,3,-6,8,-32,4,-24,-22,-14
-1,-6,-6,3,3,-6,9,-32,4,-24,-22,-13
-3,-6,-3,4,0,-5,9,-32,5,-23,-21,-12
-4,-6,-2,4,0,-4,10,-31,5,-23,-20,-12
-3,-6,-3,4,0,-5,10,-32,5,-23,-20,-13
-3,-6,-3,4,0,-5,10,-32,5,-24,-21,-13
-2,-6,-4,4,1,-5,10,-32,4,-24,-21,-13
0,-6,-6,3,3,-6,9,-33,4,-25,-21,-14
2,-6,-8,2,5,-7,9,-34,3,-26,-22,-15
2,-6,-8,2,6,-7,9,-34,3,-26,-22,-15
0,-6,-7,3,4,-6,9,-33,3,-26,-22,-14
-1,-6,-5,3,2,-5,9,-33,3,-25,-22,-14
-1,-6,-5,3,2,-5,9,-33,3,-25,-22,-15
0,-6,-5,3,3,-5,9,-33,3,-25,-22,-15
0,-6,-5,3,2,-4,9,-33,4,-25,-22,-15
-2,-6,-3,3,1,-3,10,-32,4,-25,-21,-14
-3,-6,-2,4,0,-3,10,-32,5,-25,-21,-13
-2,-5,-3,3,1,-3,10,-32,5,-25,-21,-14
-1,-5,-3,3,1,-4,10,-32,5,-25,-21,-14
-1,-4,-2,3,1,-4,10,-31,5,-25,-21,-14
0,-4,-3,3,1,-4,9,-32,4,-26,-21,-14
1,-5,-5,2,3,-5,9,-32,4,-26,-22,-15
1,-5,-5,2,3,-6,9,-32,4,-26,-22,-15
0,-5,-5,3,2,-5,9,-32,4,-26,-22,-16
-1,-5,-4,3,2,-5,10,-32,4,-26,-22,-16
-1,-5,-3,4,1,-4,10,-32,4,-26,-22,-15
-3,-5,-2,4,0,-3,10,-31,5,-26,-21,-15
-4,-5,0,4,-2,-2,10,-31,5,-25,-21,-14
-4,-5,0,4,-3,-2,10,-30,6,-25,-20,-14
-5,-5,0,4,-3,-2,10,-30,6,-25,-20,-14
-4,-5,0,4,-2,-2,10,-31,6,-26,-20,-14
-4,-5,0,4,-2,-2,10,-31,6,-26,-20,-14
-4,-5,0,4,-2,-2,11,-31,6,-26,-20,-14
-3,-5,-1,4,-1,-2,10,-31,5,-26,-21,-14
-3,-5,-2,4,0,-3,10,-32,4,-27,-22,-15
-4,-6,-2,4,-1,-4,9,-33,4,-27,-22,-15
-4,-6,-1,4,-1,-3,10,-32,4,-27,-22,-15
-2,-5,-2,3,0,-4,10,-32,4,-27,-22,-15
0,-5,-4,2,2,-4,9,-33,3,-28,-23,-15
0,-4,-4,2,2,-4,9,-33,3,-28,-22,-15
-1,-4,-3,2,0,-3,10,-32,4,-27,-21,-14
-2,-4,-1,3,0,-2,11,-32,5,-26,-21,-14
-3,-4,-1,3,-1,-2,11,-32,5,-26,-21,-14
-1,-4,-3,2,1,-4,10,-33,4,-27,-23,-16
2,-4,-7,1,4,-6,8,-34,3,-29,-25,-18
4,-4,-9,0,6,-7,8,-34,2,-30,-25,-18
2,-4,-7,0,4,-5,8,-33,3,-29,-24,-17
-1,-4,-3,2,1,-3,10,-32,4,-27,-22,-15
-1,-4,-2,2,0,-3,10,-32,4,-27,-22,-14
0,-4,-4,2,2,-4,10,-32,4,-27,-22,-15
0,-4,-3,2,1,-4,10,-32,5,-27,-22,-15
-3,-3,0,3,-1,-2,11,-31,6,-26,-21,-14
-5,-3,3,4,-4,0,12,-30,8,-26,-20,-13
-6,-2,4,4,-5,1,13,-29,8,-25,-19,-12
-5,-1,5,3,-5,2,13,-29,9,-25,-19,-12
-4,0,4,2,-4,2,13,-29,9,-24,-19,-12
-2,0,3,1,-2,2,13,-29,9,-24,-20,-13
0,0,1,0,0,1,12,-29,9,-24,-20,-14
1,1,0,-1,0,1,12,-29,9,-24,-20,-14
1,2,1,-1,0,2,13,-28,10,-23,-19,-14
0,3,3,-2,-2,4,13,-27,11,-22,-19,-14
0,4,5,-2,-3,5,14,-27,12,-22,-18,-13
-1,5,6,-2,-4,5,15,-26,13,-22,-18,-13
-1,5,6,-2,-4,5,16,-25,14,-22,-18,-12
0,4,5,-2,-3,5,17,-24,14,-21,-17,-12
0,4,4,-2,-2,4,18,-22,15,-20,-17,-11
0,3,4,-1,-2,4,19,-21,16,-20,-16,-11
-1,3,4,-1,-2,4,19,-20,17,-19,-16,-11
-2,3,4,-1,-3,4,19,-19,18,-18,-15,-10
-3,3,5,0,-4,4,20,-19,18,-18,-15,-10
-3,2,5,0,-4,3,20,-18,19,-18,-15,-11
-3,2,4,0,-4,3,20,-19,19,-18,-16,-11
-2,1,3,0,-3,2,19,-20,18,-19,-16,-11
-2,0,2,1,-2,1,18,-21,17,-19,-16,-11
-1,-1,1,1,-1,0,17,-22,16,-20,-16,-11
0,-1,-1,1,1,-1,15,-24,15,-21,-17,-12
2,-2,-4,0,3,-3,13,-26,13,-22,-19,-14
3,-2,-5,0,4,-3,12,-27,12,-22,-19,-14
2,-1,-3,0,3,-2,11,-27,12,-22,-19,-13
0,-1,-1,0,1,-1,11,-28,12,-22,-18,-12
0,-1,-1,0,1,-1,11,-28,11,-22,-17,-12
1,-1,-2,0,2,-1,10,-28,11,-22,-17,-12
1,-1,-2,0,2,-1,11,-28,10,-22,-17,-12
0,-1,-1,1,0,-1,11,-27,10,-22,-16,-11
-1,-1,-1,1,0,-1,11,-27,10,-22,-17,-12
1,-2,-4,1,2,-3,10,-28,9,-23,-18,-14
3,-3,-7,0,5,-5,9,-29,7,-25,-20,-15
2,-4,-7,1,4,-5,9,-29,7,-25,-20,-15
0,-4,-5,2,2,-4,10,-28,8,-24,-19,-14
-1,-4,-3,3,1,-4,10,-27,8,-24,-18,-12
-1,-5,-3,3,1,-4,10,-28,7,-24,-18,-12
-1,-5,-5,3,2,-5,9,-29,6,-25,-19,-13
1,-6,-7,3,4,-6,8,-30,5,-26,-20,-15
3,-6,-9,2,6,-8,7,-32,4,-28,-22,-16
4,-6,-9,1,6,-8,6,-33,3,-28,-22,-17
3,-5,-8,1,5,-7,6,-33,3,-28,-22,-16
3,-5,-7,1,4,-6,6,-33,3,-28,-21,-16
3,-4,-6,1,4,-5,6,-33,3,-28,-21,-16
2,-4,-5,1,3,-4,6,-32,3,-28,-21,-16
0,-3,-3,2,1,-3,7,-32,3,-27,-21,-16
-1,-3,-1,2,0,-3,7,-31,4,-27,-21,-17
-2,-3,-1,3,0,-3,7,-31,4,-27,-22,-17
-2,-4,-2,3,0,-3,7,-32,3,-28,-23,-18
-2,-4,-2,4,0,-3,7,-32,3,-29,-23,-19
-3,-4,-1,4,-1,-3,7,-33,3,-29,-24,-19
-3,-5,-2,5,0,-4,7,-33,2,-30,-25,-20
-1,-6,-5,4,2,-6,6,-34,0,-31,-26,-21
2,-7,-8,2,5,-8,5,-35,-1,-32,-28,-23
3,-7,-9,2,6,-8,4,-35,-1,-32,-28,-23
0,-6,-5,3,2,-5,5,-34,0,-31,-26,-21
-3,-5,-2,4,-1,-3,6,-33,1,-30,-24,-20
-4,-5,-1,4,-1,-3,6,-33,1,-30,-24,-20
-4,-6,-2,4,0,-4,6,-33,1,-30,-25,-20
-3,-6,-3,4,0,-4,6,-33,1,-31,-26,-21
-3,-6,-4,4,0,-5,6,-32,1,-31,-26,-21
-3,-6,-3,4,0,-4,6,-32,1,-30,-25,-20
-4,-6,-1,5,-1,-3,7,-31,2,-29,-24,-20
-5,-5,0,5,-2,-3,7,-31,2,-29,-24,-19
-5,-5,0,4,-2,-2,7,-31,2,-29,-24,-20
-4,-5,0,4,-2,-2,7,-31,2,-29,-24,-20
-4,-5,0,4,-2,-2,7,-31,2,-29,-24,-20
-4,-5,0,5,-2,-2,7,-31,2,-29,-23,-20
-4,-5,-1,5,-1,-3,7,-31,1,-29,-24,-20
-2,-5,-3,4,0,-4,7,-31,1,-30,-25,-22
0,-5,-5,3,3,-5,6,-32,1,-30,-26,-23
1,-6,-7,3,4,-6,6,-31,1,-30,-26,-24
0,-6,-6,3,3,-6,7,-30,3,-29,-26,-24
-1,-5,-4,3,1,-4,9,-29,5,-28,-25,-23
-2,-5,-3,3,0,-3,9,-29,7,-26,-24,-23
-2,-4,-1,3,0,-2,9,-29,8,-24,-22,-23
-4,-2,3,3,-4,1,10,-28,11,-18,-16,-19
-7,0,8,3,-7,5,10,-28,15,-10,-8,-13
-7,3,11,1,-8,8,8,-28,17,-1,2,-7
-5,7,12,-1,-8,10,5,-29,19,10,15,1
-2,12,14,-4,-8,13,1,-32,21,25,32,13
0,18,18,-9,-8,18,-5,-39,22,42,53,28
4,26,22,-15,-8,24,-13,-49,21,60,79,47
9,32,23,-20,-6,28,-23,-61,16,76,106,69
14,36,22,-25,-3,29,-34,-77,4,87,132,92
17,40,22,-28,-2,31,-44,-93,-12,93,156,113
18,46,27,-32,-4,37,-52,-110,-30,93,176,132
20,55,34,-37,-7,45,-59,-127,-48,86,189,147
22,66,43,-43,-11,54,-66,-144,-66,75,196,157
23,74,51,-48,-14,62,-72,-157,-82,62,195,161
23,73,50,-48,-13,61,-75,-164,-96,42,181,154
22,62,39,-42,-8,50,-73,-165,-108,15,151,134
21,48,26,-35,-2,37,-70,-165,-121,-17,111,105
19,34,16,-27,1,25,-68,-166,-135,-50,68,74
14,22,9,-18,1,16,-67,-168,-150,-87,19,40
8,13,5,-10,0,9,-68,-172,-166,-124,-30,7
4,6,2,-4,0,4,-70,-175,-180,-153,-68,-19
2,1,0,0,1,0,-70,-176,-188,-170,-91,-36
-1,-2,-1,2,0,-1,-68,-172,-189,-176,-102,-46
-5,-4,0,5,-3,-2,-65,-164,-185,-175,-107,-52
-7,-7,0,7,-4,-4,-60,-153,-177,-170,-109,-57
-9,-12,-2,10,-4,-7,-55,-142,-167,-164,-109,-61
-10,-17,-6,13,-3,-12,-50,-130,-157,-156,-109,-64
-10,-23,-12,16,0,-17,-43,-116,-146,-148,-106,-65
-9,-27,-17,18,3,-22,-36,-102,-133,-138,-102,-66
-8,-30,-22,19,7,-26,-30,-91,-121,-128,-98,-65
-7,-32,-25,19,10,-29,-28,-85,-110,-119,-92,-64
-6,-33,-28,19,12,-30,-27,-82,-99,-111,-87,-61
-5,-33,-29,19,13,-31,-24,-78,-88,-102,-81,-58
-4,-32,-28,18,12,-30,-20,-72,-76,-92,-75,-54
-4,-31,-26,17,11,-28,-16,-65,-64,-82,-68,-50
-4,-28,-24,16,10,-25,-12,-58,-52,-72,-61,-46
-3,-25,-22,14,10,-23,-8,-52,-42,-63,-55,-42
-3,-22,-19,13,8,-20,-5,-46,-32,-55,-49,-39
-3,-19,-16,12,7,-17,-2,-42,-24,-48,-44,-36
-3,-16,-14,10,6,-15,0,-38,-17,-42,-39,-34
-2,-14,-12,9,5,-14,2,-35,-12,-39,-37,-32
-2,-13,-10,8,4,-12,3,-33,-7,-36,-34,-30
-3,-11,-7,7,2,-9,4,-30,-3,-32,-32,-28
-2,-9,-6,6,1,-7,5,-28,1,-29,-29,-26
0,-7,-6,4,2,-7,5,-27,3,-26,-28,-25
2,-6,-8,2,4,-7,5,-26,5,-25,-27,-25
3,-5,-8,1,5,-6,6,-25,6,-24,-26,-25
1,-4,-6,1,3,-4,7,-23,7,-22,-24,-23
-2,-4,-2,2,0,-2,8,-22,9,-21,-22,-21
-4,-3,0,3,-2,-1,9,-21,11,-20,-21,-20
-5,-3,2,3,-4,0,10,-20,12,-19,-19,-19
-5,-2,4,3,-5,1,10,-19,14,-18,-19,-18
-5,-2,4,3,-5,2,10,-19,14,-17,-18,-18
-5,-2,3,3,-4,2,10,-19,14,-17,-18,-17
-3,-1,2,3,-2,1,10,-19,14,-16,-18,-18
-1,-1,0,2,0,0,9,-19,14,-16,-19,-19
1,-1,-2,1,2,-1,8,-20,13,-17,-19,-20
1,-1,-2,0,1,-1,7,-19,14,-17,-19,-19
0,0,0,1,-1,0,8,-18,15,-16,-17,-17
-3,0,3,2,-3,2,8,-17,16,-15,-16,-15
-3,0,4,2,-4,2,9,-16,17,-14,-15,-14
-3,0,3,2,-3,2,9,-16,17,-13,-15,-14
-2,0,3,2,-3,2,9,-15,17,-13,-14,-14
-2,0,2,1,-2,1,9,-15,17,-13,-14,-14
-1,0,0,1,-1,1,9,-14,17,-14,-14,-14
-1,0,0,0,-1,1,8,-14,17,-13,-14,-14
-2,0,2,1,-2,1,8,-13,18,-13,-13,-13
-3,0,3,1,-3,2,8,-13,19,-12,-12,-12
-3,0,3,0,-3,1,8,-13,19,-12,-12,-12
-2,0,3,0,-3,1,8,-13,19,-12,-12,-12
-2,0,3,1,-3,2,8,-12,20,-10,-12,-11
-1,0,2,0,-2,2,8,-12,20,-9,-11,-11
1,0,0,0,0,1,8,-12,20,-9,-11,-12
2,0,-1,-1,1,0,7,-12,20,-9,-12,-13
2,0,-2,-1,2,0,7,-12,20,-9,-12,-13
2,0,-2,-1,2,0,6,-13,20,-8,-12,-14
2,0,-2,-1,1,0,6,-13,21,-6,-11,-14
0,0,0,0,0,0,7,-12,22,-4,-10,-13
0,0,1,0,-1,1,7,-11,23,-1,-9,-12
-1,0,2,0,-2,2,8,-11,23,0,-9,-11
-2,1,4,1,-3,3,8,-10,24,3,-7,-10
-3,1,5,1,-4,3,9,-9,25,5,-6,-8
-3,1,5,1,-4,3,9,-8,26,6,-5,-7
-2,1,4,0,-3,2,8,-7,26,7,-5,-7
-1,1,2,0,-2,2,8,-7,26,8,-5,-8
0,1,0,0,0,1,7,-7,26,9,-5,-8
1,1,-1,-1,1,0,7,-7,26,10,-5,-9
1,1,-1,-1,2,0,6,-6,27,12,-5,-9
1,1,-1,-1,2,0,6,-5,27,14,-4,-9
3,1,-2,-1,3,0,6,-4,28,15,-4,-9
5,0,-4,-3,5,-2,5,-4,28,16,-4,-9
8,0,-8,-4,8,-3,4,-4,28,17,-4,-10
6,0,-6,-3,6,-3,5,-2,28,18,-2,-8
0,1,0,0,0,1,7,0,31,22,1,-4
-4,1,6,1,-5,4,9,2,34,26,4,-1
-5,1,7,1,-6,5,9,3,35,28,6,0
-4,1,6,1,-5,4,9,3,36,29,6,0
-3,2,5,0,-4,4,9,4,36,31,7,0
-2,2,5,0,-3,4,9,4,37,32,8,1
-1,2,4,0,-2,3,9,5,38,33,9,1
0,2,2,-1,-1,2,9,5,38,34,10,1
2,2,1,-1,0,1,8,5,38,35,10,1
3,2,0,-2,1,1,8,5,39,37,12,2
3,3,0,-2,1,1,8,5,40,40,14,3
2,3,1,-2,0,2,8,6,43,42,16,4
2,3,2,-2,0,3,8,7,45,45,18,5
1,3,3,-2,-1,3,8,8,46,47,20,6
1,3,3,-2,-1,4,9,9,48,49,22,7
2,4,3,-3,0,4,9,10,49,51,24,8
3,4,2,-3,0,4,9,12,50,53,26,9
3,5,2,-4,0,4,9,14,51,55,28,10
4,5,1,-4,0,4,9,15,53,58,30,11
4,5,2,-4,0,4,9,17,55,61,33,12
3,6,3,-4,0,5,10,18,57,65,36,13
2,6,4,-5,0,6,10,20,60,69,39,15
3,7,4,-5,0,6,10,21,61,72,41,16
4,8,4,-6,0,6,10,22,63,74,44,17
6,8,3,-7,1,6,10,23,64,76,46,18
7,8,2,-7,2,6,10,24,65,78,48,19
8,9,0,-8,3,6,10,25,66,81,50,20
9,9,0,-9,4,5,9,26,67,84,52,21
10,10,0,-10,5,5,9,28,69,87,54,22
10,10,1,-10,4,6,9,30,71,91,57,23
9,11,3,-10,3,7,10,33,73,94,60,26
7,12,6,-10,0,8,11,36,75,97,64,28
6,13,8,-9,-1,10,11,38,77,100,66,30
7,14,8,-10,-1,11,12,39,78,101,68,32
9,14,6,-10,1,10,11,40,78,102,69,32
10,14,4,-11,3,10,11,40,78,103,69,31
10,14,4,-12,2,10,11,41,79,105,70,32
8,15,7,-12,0,12,12,42,80,107,72,33
6,15,9,-12,-1,12,12,43,81,109,74,34
6,15,10,-11,-1,12,11,43,81,109,74,35
7,15,9,-11,-1,12,11,43,80,109,74,34
8,15,9,-11,-1,12,11,43,80,108,74,34
6,16,10,-10,-2,13,12,44,80,107,74,35
4,16,12,-9,-4,15,12,44,80,107,74,35
4,16,12,-9,-4,15,12,44,79,106,73,35
4,16,12,-10,-3,15,12,44,78,105,72,35
4,16,11,-10,-3,14,11,43,77,104,71,34
5,16,11,-11,-3,14,11,43,76,101,69,33
6,16,10,-11,-2,13,11,42,74,98,67,32
8,15,8,-12,0,12,10,40,72,95,65,30
9,15,7,-12,0,11,9,39,70,91,62,28
8,15,7,-11,0,12,9,38,69,88,60,27
7,15,8,-10,-1,12,9,37,67,85,57,26
7,14,8,-10,0,12,9,36,65,82,54,25
7,14,8,-10,0,12,9,34,63,78,52,24
6,14,9,-10,-2,12,9,33,61,75,49,24
4,14,11,-9,-3,13,9,31,59,71,46,23
2,14,12,-8,-5,13,9,30,57,68,43,22
1,13,12,-7,-5,13,9,28,55,64,40,20
1,13,12,-6,-5,13,9,27,52,59,36,18
2,12,11,-6,-4,12,8,25,49,55,32,16
2,12,10,-6,-3,12,8,23,46,50,28,14
4,11,7,-7,-1,10,7,21,43,46,24,12
5,10,5,-7,0,9,6,19,40,41,20,10
4,10,6,-7,-1,8,6,17,38,37,17,9
2,9,7,-6,-2,8,6,16,36,33,15,8
2,8,7,-5,-3,8,6,15,33,29,12,7
2,8,6,-5,-2,7,5,13,31,25,9,6
2,7,6,-4,-2,7,5,12,28,22,6,4
2,7,6,-4,-2,7,5,10,26,19,3,3
3,6,4,-4,0,5,4,8,23,16,0,1
6,5,0,-5,3,2,3,6,19,12,-4,-2
8,4,-3,-6,6,0,2,4,16,8,-7,-4
6,4,-2,-4,4,1,2,4,15,6,-8,-4
2,4,1,-2,0,2,2,4,15,4,-8,-3
0,3,3,-1,-2,3,3,3,13,2,-9,-3
0,2,3,-1,-1,3,3,2,11,0,-11,-4
-1,2,3,0,-1,3,3,1,10,-1,-12,-5
-3,2,5,0,-3,4,3,1,9,-1,-13,-4
-5,1,6,2,-5,4,4,1,9,-2,-13,-4
-6,1,7,2,-5,4,4,0,8,-3,-14,-4
-6,0,7,3,-6,3,4,0,7,-5,-15,-5
-6,0,6,3,-6,3,3,-1,6,-6,-15,-5
-6,0,6,3,-6,3,3,-1,5,-8,-16,-6
-6,-1,6,3,-6,2,3,-2,4,-9,-17,-6
-5,-1,5,3,-5,2,2,-3,3,-10,-18,-7
-4,-1,4,3,-4,2,2,-4,2,-11,-19,-8
-3,-2,2,2,-3,1,1,-5,1,-12,-20,-9
0,-2,0,1,0,-1,0,-7,0,-13,-22,-11
2,-3,-4,0,3,-3,-1,-8,-2,-15,-23,-12
3,-3,-5,0,4,-4,-1,-9,-3,-16,-24,-13
0,-2,-3,1,1,-2,-1,-8,-3,-16,-24,-12
-2,-2,1,2,-2,0,0,-8,-2,-16,-23,-11
-3,-3,2,2,-3,0,0,-8,-2,-16,-22,-10
-3,-3,2,3,-3,0,0,-8,-2,-16,-22,-10
-3,-2,1,3,-2,0,0,-8,-2,-16,-22,-10
-1,-2,0,2,-1,-1,-1,-9,-3,-16,-23,-11
0,-2,-3,1,1,-2,-1,-10,-4,-17,-24,-12
2,-3,-5,1,3,-4,-2,-11,-5,-18,-25,-13
3,-3,-6,0,4,-4,-3,-11,-5,-19,-25,-14
1,-3,-4,1,2,-3,-2,-11,-5,-19,-25,-13
-1,-3,0,2,-1,-1,-1,-10,-4,-17,-24,-12
-3,-2,2,2,-3,0,0,-9,-3,-16,-23,-11
-3,-2,3,2,-3,1,0,-9,-3,-15,-22,-10
-3,-2,3,2,-3,1,0,-9,-3,-15,-22,-10
-3,-1,2,2,-3,1,0,-9,-3,-14,-22,-10
-2,-1,1,2,-2,0,0,-9,-3,-14,-22,-10
0,-2,-2,1,0,-1,-1,-10,-3,-15,-23,-11
2,-2,-3,0,2,-2,-2,-11,-3,-15,-24,-12
1,-2,-3,0,2,-2,-1,-11,-3,-15,-24,-12
-1,-2,0,1,0,-1,-1,-11,-2,-14,-23,-12
-3,-2,1,2,-2,0,0,-11,-1,-13,-22,-11
-3,-2,1,2,-2,0,0,-10,-1,-13,-22,-11
-2,-2,0,2,-1,0,0,-10,-1,-13,-22,-11
-1,-2,-1,2,0,-1,0,-11,-2,-13,-22,-12
1,-2,-3,1,2,-2,-1,-11,-2,-13,-22,-12
2,-2,-4,1,3,-2,-1,-11,-1,-13,-22,-12
1,-2,-2,1,1,-1,-1,-10,0,-12,-21,-11
-1,-2,1,1,-1,0,0,-9,0,-11,-20,-10
-3,-2,3,2,-3,1,0,-9,1,-10,-19,-9
-4,-2,4,2,-4,1,0,-8,2,-9,-19,-9
-4,-2,4,2,-4,1,1,-8,2,-9,-18,-9
-5,-1,4,2,-5,1,1,-8,2,-8,-18,-9
-5,-1,3,3,-5,1,1,-8,2,-8,-17,-8
-4,-1,2,3,-4,1,1,-8,2,-8,-17,-8
-2,-1,1,2,-2,0,0,-8,2,-8,-18,-8
-1,-1,1,1,-1,0,0,-8,2,-8,-18,-8
0,-1,0,0,0,-1,0,-9,2,-8,-19,-9
1,-1,-2,0,1,-2,-1,-9,1,-8,-19,-9
2,-1,-3,-1,2,-2,-1,-10,1,-8,-19,-9
1,-1,-2,0,1,-2,-1,-10,2,-7,-18,-9
-1,-1,0,1,-1,0,0,-9,3,-7,-17,-8
-3,-1,2,1,-3,0,0,-8,4,-6,-17,-7
-3,-1,3,2,-3,1,1,-8,4,-6,-16,-6
-3,-1,3,2,-3,1,1,-8,4,-6,-16,-6
-2,-1,2,1,-2,0,1,-9,4,-6,-16,-7
0,-2,0,1,0,0,0,-9,4,-7,-17,-8
1,-2,-2,0,2,-2,0,-10,3,-7,-17,-9
3,-1,-4,-1,3,-2,-1,-10,3,-7,-18,-9
3,-1,-5,-1,3,-2,-1,-10,3,-7,-18,-9
3,-1,-4,-1,3,-2,-1,-10,3,-7,-18,-9
3,-1,-4,-1,3,-2,-1,-10,2,-8,-18,-10
2,-1,-3,0,2,-2,0,-10,2,-8,-18,-9
0,-1,-1,0,0,0,0,-10,3,-8,-17,-8
-2,-1,1,1,-2,0,1,-9,4,-7,-16,-7
-3,-1,2,2,-3,1,1,-9,5,-7,-16,-6
-4,-1,3,2,-3,1,1,-9,5,-6,-16,-6
-5,-1,4,3,-5,2,1,-8,6,-6,-16,-6
-5,-1,5,3,-6,3,2,-8,6,-6,-16,-6
-5,0,5,3,-5,3,2,-9,5,-7,-16,-6
-3,0,4,2,-3,2,1,-10,4,-8,-16,-7
-1,0,2,1,-1,0,0,-11,3,-9,-17,-7
0,0,0,0,0,0,0,-11,3,-10,-17,-8
0,0,1,0,0,0,0,-11,2,-10,-17,-8
-2,0,2,1,-2,1,0,-11,2,-9,-17,-7
-3,-1,2,2,-3,1,0,-11,2,-9,-17,-7
-2,-1,2,1,-2,1,0,-11,2,-10,-18,-8
-1,-1,1,1,-1,0,0,-12,2,-11,-18,-8
0,-1,0,1,0,0,0,-13,2,-12,-19,-9
0,-1,0,1,0,0,0,-13,1,-12,-19,-9
0,0,0,1,0,0,0,-14,1,-12,-19,-9
-1,0,0,1,-1,0,0,-14,1,-12,-19,-9
-1,-1,0,1,0,0,0,-15,0,-12,-19,-9
0,-1,0,0,0,-1,-1,-15,0,-13,-20,-10
0,-1,-1,0,0,-1,-1,-15,0,-13,-20,-10
0,-1,0,0,0,0,-1,-15,0,-13,-20,-10
-1,-1,0,1,-1,0,0,-15,0,-13,-20,-10
-1,-1,0,1,0,0,0,-16,0,-14,-20,-11
0,-1,0,1,0,-1,0,-16,0,-14,-21,-11
0,-1,0,1,1,-1,0,-16,-1,-15,-21,-11
0,-2,-1,1,1,-2,0,-16,-1,-16,-22,-12
0,-2,-1,1,0,-1,0,-16,-1,-16,-22,-12
-2,-1,2,2,-2,0,0,-15,0,-15,-20,-11
-4,-1,4,3,-4,1,1,-15,0,-14,-19,-10
-4,-1,5,3,-5,1,0,-15,0,-15,-19,-10
-3,-1,4,2,-4,1,0,-16,0,-15,-20,-11
-3,-1,3,3,-3,0,0,-16,-1,-16,-20,-11
-3,-1,4,3,-4,1,0,-16,-1,-16,-20,-11
-4,-1,4,3,-4,1,0,-16,-1,-16,-20,-11
-3,-1,3,2,-4,1,0,-16,-1,-16,-21,-12
-2,-1,2,2,-2,0,0,-17,-2,-17,-22,-12
-2,-1,1,2,-2,0,-1,-17,-2,-18,-23,-13
-2,-1,1,2,-2,0,-1,-17,-2,-18,-23,-13
-3,-1,2,2,-2,0,-1,-17,-2,-18,-23,-13
-3,-1,2,2,-3,0,-1,-17,-2,-18,-23,-13
-3,-2,2,2,-2,0,-1,-18,-3,-19,-23,-13
-2,-2,0,2,-1,-1,-1,-18,-3,-19,-24,-14
0,-2,-1,1,0,-2,-2,-19,-4,-19,-24,-14
2,-2,-4,0,2,-3,-2,-19,-4,-20,-25,-15
3,-3,-5,0,4,-4,-3,-20,-5,-21,-26,-15
3,-3,-5,0,4,-4,-3,-20,-5,-21,-26,-16
2,-3,-4,0,2,-3,-3,-19,-4,-21,-26,-15
0,-3,-1,1,0,-2,-2,-19,-4,-20,-25,-15
-2,-3,1,2,-2,0,-1,-18,-3,-19,-24,-13
-4,-2,3,3,-4,0,-1,-18,-3,-19,-24,-13
-3,-2,1,3,-3,0,-1,-18,-3,-20,-24,-13
-1,-2,-1,2,0,-1,-1,-18,-3,-20,-25,-14
0,-2,-2,2,0,-2,-2,-18,-4,-21,-26,-15
-1,-2,-1,2,0,-2,-1,-18,-3,-20,-25,-14
-2,-2,0,3,-2,-1,-1,-17,-3,-20,-25,-13
-3,-2,1,3,-2,0,-1,-17,-3,-20,-25,-13
-2,-2,1,3,-2,0,-1,-18,-3,-20,-25,-13
-2,-2,1,3,-1,-1,-1,-18,-3,-20,-26,-14
-2,-2,0,3,-1,-1,-1,-18,-3,-20,-26,-14
-2,-2,0,3,-1,-1,-1,-17,-3,-20,-26,-14
-1,-2,-1,3,0,-2,-1,-17,-3,-20,-26,-14
-2,-2,-1,3,-1,-1,-1,-17,-3,-20,-26,-14
-2,-3,0,3,-1,-1,-1,-18,-3,-20,-26,-14
-2,-3,-1,3,0,-2,-2,-19,-4,-21,-26,-15
0,-3,-3,2,1,-3,-2,-20,-4,-22,-27,-15
0,-3,-3,1,2,-3,-2,-20,-4,-22,-28,-15
0,-3,-2,2,0,-2,-2,-20,-4,-21,-27,-15
-2,-2,0,3,-1,-1,-1,-19,-3,-20,-26,-14
-3,-2,1,4,-3,0,-1,-19,-3,-20,-25,-13
-3,-2,1,4,-3,0,-1,-19,-3,-20,-25,-13
-2,-2,0,3,-2,-1,-1,-19,-3,-20,-26,-14
-2,-3,0,3,-1,-1,-1,-19,-3,-21,-26,-14
-2,-3,0,2,-1,-1,-1,-19,-3,-21,-27,-15
-3,-2,1,3,-2,0,0,-19,-3,-20,-26,-14
-5,-2,3,3,-4,0,0,-18,-2,-19,-25,-14
-6,-2,5,4,-5,1,0,-17,-2,-19,-25,-14
-5,-2,4,4,-5,0,0,-17,-3,-20,-25,-14
-3,-2,1,3,-3,0,-1,-17,-3,-20,-26,-14
-2,-2,0,2,-1,-1,-1,-17,-4,-20,-26,-14
-1,-2,-2,2,0,-1,-1,-17,-4,-21,-27,-15
0,-2,-3,1,2,-2,-2,-18,-4,-21,-28,-15
2,-2,-5,0,4,-3,-2,-18,-5,-22,-29,-16
1,-3,-4,1,3,-3,-2,-18,-5,-22,-29,-16
-1,-3,-1,2,0,-2,-2,-18,-5,-22,-28,-16
-2,-2,0,2,-1,-1,-1,-18,-4,-21,-28,-15
-2,-2,0,2,-1,-1,-1,-18,-4,-21,-27,-15
-2,-1,0,2,-1,-1,-1,-17,-3,-21,-27,-14
-3,-1,0,2,-1,-1,0,-17,-3,-20,-27,-14
-3,-1,1,2,-2,0,0,-16,-3,-20,-27,-13
-3,-1,1,2,-2,0,0,-16,-3,-20,-27,-13
-2,-1,0,2,-1,-1,0,-17,-4,-21,-27,-14
-1,-1,-1,2,0,-2,-1,-17,-4,-21,-28,-15
0,-1,-1,2,0,-2,-1,-17,-4,-21,-28,-15
-1,-1,0,2,0,-1,-1,-17,-4,-21,-28,-15
-2,-1,0,2,-1,-1,-1,-17,-4,-21,-28,-15
-1,-2,-1,2,0,-2,-1,-17,-4,-21,-28,-15
-1,-2,-1,2,0,-2,-1,-17,-4,-21,-28,-15
-3,-1,1,3,-2,-1,0,-16,-3,-20,-27,-13
-5,-1,3,4,-4,0,1,-15,-2,-20,-26,-12
-4,-1,2,3,-3,0,0,-15,-2,-20,-26,-12
-2,-1,1,2,-1,-1,0,-15,-3,-21,-27,-13
-1,-1,0,2,0,-1,0,-16,-3,-21,-27,-13
-2,-1,1,3,-1,-1,0,-15,-3,-21,-27,-13
-3,-1,2,3,-3,0,0,-15,-3,-20,-26,-13
-4,-1,2,3,-3,0,0,-14,-2,-20,-25,-12
-4,-1,2,3,-3,0,0,-14,-2,-20,-25,-12
-4,-1,2,3,-3,0,0,-14,-2,-20,-26,-13
-3,-1,1,3,-2,0,0,-15,-2,-20,-26,-13
-3,-1,1,2,-2,0,0,-15,-2,-20,-26,-13
-1,-1,0,2,-1,-1,0,-15,-3,-20,-27,-13
-1,-1,0,1,0,-1,0,-15,-3,-21,-27,-13
-1,-1,0,1,0,-1,0,-15,-3,-21,-27,-13
-2,-1,0,2,-1,-1,0,-15,-3,-21,-27,-13
-1,-1,-1,1,0,-2,0,-15,-3,-21,-28,-14
2,-2,-4,0,3,-4,-1,-16,-5,-22,-30,-16
3,-2,-6,0,5,-5,-2,-17,-5,-23,-30,-16
0,-1,-3,1,2,-3,-1,-16,-4,-22,-29,-15
-3,-1,1,2,-1,-1,0,-14,-3,-20,-27,-13
-4,-1,2,3,-2,0,0,-14,-3,-20,-27,-12
-4,-2,1,3,-2,-1,0,-14,-3,-20,-27,-13
-2,-2,0,2,0,-2,0,-15,-3,-21,-28,-14
-1,-2,-1,2,0,-2,0,-15,-3,-21,-29,-14
-2,-1,0,2,-1,-1,0,-14,-3,-20,-28,-14
-3,-1,1,2,-2,0,1,-14,-2,-19,-27,-13
-3,0,2,2,-2,0,1,-14,-2,-19,-27,-13
-3,0,2,2,-2,0,1,-14,-2,-19,-27,-14
-2,-1,1,2,-1,0,0,-14,-3,-19,-28,-15
-2,-1,0,2,-1,-1,0,-14,-3,-19,-28,-15
-2,-1,1,2,-1,0,0,-14,-3,-19,-28,-15
-3,-1,1,2,-2,0,1,-14,-2,-19,-28,-15
-4,-1,2,2,-3,0,1,-15,-2,-19,-28,-14
-3,-1,1,2,-2,0,0,-15,-2,-19,-28,-14
-1,-1,0,2,0,-1,0,-16,-3,-19,-28,-15
-1,-1,0,2,0,-2,0,-16,-3,-19,-28,-15
-1,-1,0,2,0,-2,0,-16,-3,-19,-28,-14
-2,-1,0,2,-1,-1,0,-16,-3,-19,-28,-14
-2,-1,0,2,-1,-1,0,-16,-3,-19,-28,-14
-2,-1,0,1,-1,-1,1,-16,-3,-19,-28,-14
-1,-1,0,1,-1,-1,1,-17,-3,-19,-28,-14
0,-1,-1,1,1,-2,0,-17,-4,-20,-29,-15
1,-1,-3,0,3,-3,0,-18,-5,-20,-29,-16
1,-1,-3,0,2,-2,0,-18,-4,-20,-29,-15
-1,-1,0,1,0,0,0,-17,-3,-19,-27,-14
-4,-1,3,3,-3,1,1,-16,-3,-18,-26,-13
-5,-1,4,3,-4,1,1,-16,-3,-18,-26,-13
-4,-1,3,3,-4,0,1,-16,-3,-19,-27,-14
-4,-1,3,3,-3,0,1,-16,-3,-19,-27,-14
-4,-1,2,3,-3,0,1,-16,-3,-19,-27,-14
-3,-1,1,3,-2,0,1,-16,-3,-19,-28,-14
-2,-1,0,2,-1,0,0,-16,-3,-19,-28,-14
-1,-1,0,2,-1,-1,0,-16,-3,-19,-29,-15
0,-1,-1,1,0,-1,0,-17,-3,-19,-29,-16
1,-1,-2,0,1,-2,0,-17,-4,-20,-30,-17
3,-1,-6,-1,4,-4,-1,-18,-5,-22,-32,-19
5,-1,-8,-2,6,-5,-2,-19,-6,-24,-33,-21
3,0,-5,-1,4,-3,-1,-18,-6,-23,-32,-20
-1,1,1,0,-1,1,0,-16,-3,-20,-29,-17
-4,3,6,1,-5,4,1,-15,-1,-17,-27,-14
-4,4,7,0,-6,5,1,-14,-1,-17,-27,-14
-3,4,7,0,-5,5,1,-14,0,-17,-27,-14
-3,4,7,0,-5,5,2,-14,0,-17,-27,-15
-3,5,8,0,-6,5,2,-13,1,-16,-27,-14
-4,6,9,0,-6,6,3,-12,1,-16,-26,-13
-4,6,9,0,-6,7,3,-11,1,-16,-26,-13
-2,6,8,-1,-5,7,3,-11,1,-15,-27,-14
-1,6,7,-2,-4,7,3,-11,2,-15,-26,-14
-2,7,9,-3,-5,8,4,-10,3,-14,-25,-13
-2,8,10,-3,-6,9,5,-8,4,-12,-24,-13
-1,8,9,-3,-5,8,5,-7,5,-12,-24,-13
0,8,7,-4,-3,7,6,-6,5,-13,-25,-13
0,8,7,-4,-3,6,7,-5,6,-12,-24,-13
-1,8,8,-3,-4,7,8,-3,7,-11,-23,-12
-2,8,9,-2,-5,7,9,-2,8,-10,-23,-12
-1,6,7,-1,-4,6,9,-1,8,-10,-23,-12
0,6,5,-1,-3,5,9,-1,8,-10,-23,-13
0,5,5,-2,-2,4,10,0,9,-10,-23,-13
-1,5,5,-1,-3,4,10,0,10,-9,-23,-12
-2,5,6,0,-4,4,10,0,10,-9,-23,-12
-2,5,5,0,-4,4,9,0,9,-10,-23,-12
-2,4,3,0,-3,2,8,-1,8,-10,-24,-12
-1,3,2,0,-2,1,7,-2,7,-10,-24,-12
0,2,1,0,0,1,6,-3,6,-10,-24,-12
1,2,0,0,0,0,5,-5,5,-11,-25,-12
1,1,-1,0,1,0,3,-6,4,-12,-25,-12
2,1,-1,0,1,0,3,-7,3,-12,-26,-12
2,1,-1,-1,2,-1,2,-7,2,-13,-26,-12
3,1,-2,-2,3,-1,2,-8,1,-14,-27,-12
4,1,-4,-2,4,-2,2,-8,0,-15,-27,-12
4,0,-4,-1,4,-3,1,-9,-1,-15,-28,-13
4,0,-4,-1,4,-3,1,-8,-2,-16,-28,-13
2,0,-2,0,2,-2,1,-8,-2,-15,-27,-11
-1,0,0,1,0,-1,2,-7,-1,-14,-25,-9
-2,-1,0,2,-1,-1,2,-6,-1,-14,-25,-8
-2,-2,-1,3,-1,-2,2,-6,-2,-14,-25,-8
-2,-3,-2,3,0,-3,2,-7,-4,-15,-26,-8
-1,-4,-4,3,2,-4,1,-8,-5,-16,-27,-9
1,-4,-7,2,4,-6,0,-9,-8,-17,-28,-11
5,-5,-11,0,8,-8,-1,-11,-10,-19,-30,-13
8,-5,-15,-1,11,-9,-2,-12,-12,-21,-31,-14
7,-5,-13,-1,9,-9,-2,-13,-13,-22,-32,-15
2,-5,-8,1,4,-7,-1,-12,-13,-21,-31,-13
-1,-4,-4,2,1,-5,-1,-11,-12,-19,-30,-11
-2,-3,-2,2,0,-3,0,-11,-11,-18,-29,-10
-2,-3,-2,2,0,-2,0,-10,-11,-18,-29,-9
-2,-2,-1,2,0,-2,0,-9,-10,-17,-28,-9
-2,-2,-1,3,-1,-1,0,-8,-10,-17,-28,-8
-2,-2,-1,3,0,-1,0,-8,-10,-17,-29,-8
-1,-3,-3,3,0,-3,0,-9,-11,-18,-30,-9
0,-4,-5,2,2,-4,0,-10,-12,-19,-32,-11
1,-5,-7,2,3,-6,-1,-11,-13,-20,-34,-12
1,-5,-7,3,4,-7,-2,-12,-15,-21,-35,-12
0,-6,-6,4,3,-6,-2,-12,-16,-22,-35,-12
-2,-6,-4,5,1,-5,-1,-11,-16,-22,-35,-12
-3,-5,-3,5,0,-4,-1,-11,-16,-21,-34,-11
-3,-5,-2,5,-1,-4,-1,-11,-16,-21,-34,-11
-3,-5,-2,5,-1,-4,-1,-11,-15,-21,-34,-10
-3,-5,-3,5,0,-5,-1,-11,-15,-21,-35,-10
-2,-6,-5,4,1,-6,-1,-11,-16,-21,-35,-11
-1,-6,-5,4,1,-7,-1,-10,-16,-21,-35,-10
-2,-6,-4,4,1,-6,-1,-9,-15,-20,-34,-9
-2,-6,-3,5,0,-5,0,-8,-15,-19,-33,-8
-3,-6,-3,5,0,-5,0,-8,-15,-18,-33,-8
-4,-6,-2,5,0,-4,0,-7,-15,-18,-33,-7
-4,-5,-1,5,-1,-4,0,-7,-14,-18,-32,-6
-5,-5,-1,5,-2,-3,0,-7,-14,-18,-32,-6
-5,-5,-1,5,-2,-3,0,-6,-14,-18,-32,-6
-4,-6,-2,5,-1,-4,0,-6,-15,-18,-33,-6
-3,-6,-4,5,0,-5,0,-6,-15,-19,-33,-7
-3,-6,-5,5,0,-5,0,-6,-16,-19,-34,-7
-3,-6,-5,5,0,-5,0,-6,-16,-19,-34,-7
-3,-6,-4,5,0,-5,0,-6,-15,-19,-34,-7
-2,-6,-4,5,0,-5,0,-4,-14,-18,-34,-7
-2,-5,-4,5,0,-5,1,-3,-12,-17,-33,-7
-3,-5,-3,5,-1,-4,1,-2,-10,-15,-32,-7
-4,-4,-1,5,-2,-3,2,-1,-8,-13,-30,-6
-5,-3,0,5,-3,-1,2,-1,-6,-9,-25,-4
-6,-1,3,4,-4,0,2,-1,-3,-3,-19,0
-5,1,5,3,-5,2,1,-2,-1,4,-10,6
-4,4,6,1,-5,4,0,-3,0,13,0,14
-2,8,8,-2,-5,7,-4,-5,3,26,15,26
1,13,10,-6,-5,11,-9,-9,4,40,35,41
5,20,13,-12,-4,15,-16,-17,3,57,60,61
10,25,13,-18,-2,19,-25,-28,0,74,87,84
16,29,12,-23,2,20,-35,-42,-8,87,115,108
21,32,11,-26,5,21,-45,-57,-21,94,142,133
23,37,14,-29,5,25,-53,-72,-36,96,166,156
23,45,22,-33,1,33,-59,-86,-49,93,184,176
22,55,33,-37,-5,44,-63,-99,-62,85,195,191
22,65,42,-42,-10,53,-67,-111,-74,72,197,199
23,67,43,-44,-10,55,-70,-119,-84,57,189,196
23,60,36,-41,-7,48,-69,-121,-93,36,165,179
22,48,25,-35,-2,36,-66,-120,-101,8,129,150
20,36,15,-28,2,25,-63,-120,-112,-21,87,117
16,24,7,-20,4,16,-60,-121,-124,-54,39,80
12,15,3,-13,4,9,-60,-125,-139,-89,-13,41
6,9,2,-7,2,6,-61,-130,-154,-121,-59,9
0,6,5,-2,-2,6,-62,-133,-166,-141,-89,-11
-5,5,8,0,-6,7,-62,-134,-172,-152,-105,-22
-9,5,12,2,-10,9,-61,-132,-173,-155,-112,-30
-12,5,15,3,-14,10,-58,-126,-169,-154,-116,-36
-14,2,15,5,-15,9,-54,-118,-163,-150,-117,-40
-14,-2,11,8,-13,5,-50,-107,-156,-144,-117,-44
-14,-8,5,11,-9,-1,-46,-95,-148,-137,-116,-46
-12,-14,-3,14,-5,-8,-40,-83,-139,-130,-114,-48
-11,-20,-10,16,-1,-15,-34,-69,-128,-120,-110,-48
-11,-24,-14,18,1,-19,-28,-58,-117,-110,-104,-46
-12,-27,-16,19,1,-22,-25,-52,-106,-100,-97,-43
-11,-28,-17,19,2,-23,-24,-49,-95,-91,-90,-39
-9,-28,-19,19,4,-24,-22,-47,-86,-82,-83,-35
-7,-28,-21,18,6,-24,-20,-43,-77,-74,-78,-32
-5,-27,-23,16,8,-25,-18,-39,-68,-67,-73,-29
-2,-26,-24,15,11,-25,-15,-35,-59,-59,-68,-27
0,-24,-24,13,12,-24,-12,-31,-51,-52,-63,-25
0,-22,-22,12,11,-21,-9,-27,-42,-44,-58,-22
-3,-19,-17,11,7,-17,-5,-23,-33,-37,-51,-18
-5,-16,-11,11,3,-13,-2,-20,-25,-30,-45,-13
-6,-13,-7,10,0,-10,0,-17,-19,-25,-40,-9
-6,-10,-5,9,-1,-8,0,-15,-14,-21,-37,-7
-5,-8,-3,7,-1,-6,1,-13,-11,-18,-34,-6
-3,-6,-3,6,0,-5,1,-12,-8,-16,-33,-5
-2,-5,-3,4,0,-4,2,-11,-6,-14,-32,-4
-1,-4,-2,3,1,-3,2,-10,-4,-13,-31,-4
-2,-3,-1,3,0,-2,3,-9,-2,-11,-29,-3
-3,-2,0,3,-1,-1,3,-8,0,-10,-28,-2
-3,-2,1,2,-2,-1,3,-7,1,-8,-26,-1
-3,-1,2,2,-2,0,3,-6,2,-7,-25,0
-3,-1,3,2,-3,0,4,-6,2,-7,-24,0
-3,0,3,2,-3,1,4,-6,3,-6,-24,0
-3,0,4,2,-4,1,4,-6,3,-6,-24,0
-4,0,5,2,-5,2,4,-5,4,-5,-23,1
-4,1,5,2,-5,3,4,-5,5,-5,-22,2
-3,1,3,1,-3,2,4,-6,5,-5,-22,1
-2,1,2,0,-2,1,4,-6,5,-4,-21,1
-1,1,2,0,-1,1,4,-5,5,-3,-21,1
-1,1,2,0,-2,2,4,-5,5,-2,-20,1
-1,1,3,0,-3,2,4,-4,5,-2,-20,2
-3,1,5,1,-4,3,5,-3,5,-1,-19,2
-4,1,6,1,-5,3,5,-2,6,0,-19,3
-4,1,6,2,-5,3,5,-1,6,1,-18,2
-4,1,5,1,-4,3,5,-1,6,1,-18,2
-3,1,4,1,-3,2,5,-1,7,1,-18,1
-2,1,3,0,-2,2,5,-1,7,2,-17,1
0,1,1,0,0,1,4,-1,7,2,-18,0
2,1,0,-1,1,0,4,-1,6,1,-18,-1
3,1,-1,-2,2,0,4,-2,6,1,-19,-1
3,1,-1,-2,2,1,4,-2,7,2,-18,-1
2,2,0,-2,1,1,4,-1,8,3,-17,-1
2,2,0,-2,1,1,4,-1,8,4,-17,-1
0,2,1,-1,0,2,5,-1,9,6,-15,0
-1,2,3,0,-2,3,6,0,11,8,-13,1
-2,2,5,0,-4,4,6,0,12,9,-12,2
-3,2,5,0,-4,4,7,0,13,10,-11,2
-3,2,4,0,-4,4,7,0,13,11,-11,2
-2,2,3,0,-3,3,6,0,13,11,-11,2
0,2,1,-1,-1,2,6,0,13,11,-11,1
2,1,-1,-1,1,1,5,0,12,11,-11,0
2,1,-2,-2,2,0,5,0,12,11,-11,0
0,1,1,-1,-1,2,6,1,14,14,-9,2
-5,2,7,1,-6,5,7,3,16,17,-5,5
-6,2,9,2,-8,6,8,4,17,19,-3,7
-6,2,8,2,-7,5,8,4,17,19,-3,7
-5,1,7,2,-6,4,7,4,17,19,-4,6
-4,1,6,1,-5,4,7,5,17,20,-3,6
-4,2,6,1,-5,4,8,6,18,21,-3,7
-5,2,6,2,-5,4,8,6,18,22,-2,7
-4,2,6,1,-4,4,7,7,18,23,-1,7
-3,2,5,1,-3,3,7,7,18,24,-1,7
-3,2,5,1,-3,3,7,7,18,24,0,8
-3,1,6,1,-4,3,7,8,19,25,1,9
-3,1,6,1,-5,4,7,8,20,26,2,9
-2,1,4,1,-3,3,6,9,20,26,2,9
0,1,2,0,-1,2,6,9,20,26,2,9
1,2,0,-1,1,1,5,8,20,27,2,8
2,2,0,-2,2,1,5,8,20,28,3,9
2,3,0,-2,1,1,5,9,21,30,4,10
2,3,1,-2,0,2,5,9,22,31,6,11
2,3,2,-2,0,2,5,10,23,32,7,12
2,3,2,-2,0,2,5,10,24,33,9,13
2,4,2,-3,0,2,5,11,25,34,10,14
2,4,2,-3,0,3,5,11,26,36,12,15
2,5,2,-3,0,4,6,12,27,38,14,16
4,5,0,-3,2,2,5,12,28,39,15,16
7,4,-4,-5,6,0,4,11,28,39,15,14
11,3,-8,-6,9,-2,3,10,28,39,15,13
11,4,-7,-7,9,-1,3,11,29,42,17,15
6,5,-1,-5,3,2,5,13,32,46,22,19
1,6,5,-4,-2,5,7,16,35,50,26,23
0,7,8,-3,-4,8,8,18,37,54,30,25
-1,8,9,-3,-5,9,8,19,39,57,32,27
0,8,8,-4,-4,9,8,20,40,60,34,28
0,8,7,-4,-3,8,7,21,41,62,37,29
2,8,6,-5,-2,8,7,22,42,64,39,30
3,9,6,-5,-2,7,7,22,43,66,41,31
3,9,6,-6,-1,7,6,23,44,69,43,32
4,10,6,-7,-1,8,6,24,45,71,45,33
6,11,5,-8,0,8,5,24,46,73,47,34
8,12,4,-10,2,8,5,24,46,75,49,34
9,13,4,-11,3,8,4,24,47,77,51,35
10,14,3,-12,3,8,4,25,47,79,52,35
10,14,4,-12,2,9,4,25,48,81,54,36
8,15,7,-11,0,11,4,26,50,83,57,38
5,16,11,-11,-3,13,5,28,52,86,60,40
4,16,12,-11,-4,14,5,29,53,88,62,42
5,17,12,-11,-3,14,5,29,53,89,64,42
5,17,12,-11,-3,14,5,30,53,91,65,42
5,18,12,-11,-3,15,5,31,53,92,65,42
7,18,11,-12,-1,14,5,31,53,92,65,42
9,18,9,-13,0,14,4,30,53,93,66,42
9,18,10,-13,0,14,4,30,54,93,66,43
8,18,11,-13,-1,15,4,31,54,93,67,43
8,19,12,-13,-2,15,4,31,53,93,68,43
8,19,11,-14,-1,15,3,31,53,93,68,43
8,20,11,-14,-1,15,3,31,53,92,68,43
8,20,12,-14,-2,16,4,31,53,92,67,43
7,20,12,-13,-2,16,4,31,53,91,66,42
8,20,11,-13,-2,15,4,31,52,89,65,42
9,20,10,-13,-1,15,4,31,51,88,63,41
10,19,9,-14,0,14,3,30,49,85,61,39
10,19,8,-14,0,14,3,30,48,83,59,38
9,18,8,-13,0,14,2,29,47,80,57,36
8,18,9,-13,0,14,2,29,46,78,54,35
7,18,10,-12,-1,14,3,29,45,76,52,33
6,18,11,-12,-3,15,3,29,44,74,50,32
5,18,12,-11,-3,15,3,28,44,71,47,31
5,18,12,-11,-3,15,3,28,43,69,45,30
5,17,12,-11,-3,14,3,27,41,66,42,28
5,16,11,-10,-3,14,3,26,39,62,38,26
4,16,12,-10,-4,14,3,25,38,59,35,25
4,16,12,-9,-4,14,3,24,36,56,32,24
3,15,12,-9,-4,14,3,23,35,53,29,22
3,15,11,-9,-4,13,3,22,33,49,26,20
4,14,10,-9,-3,12,3,22,32,45,23,18
4,13,9,-8,-2,11,3,21,30,42,20,16
3,13,8,-8,-2,10,3,21,28,38,16,14
3,12,7,-7,-2,10,2,21,26,35,13,12
5,11,5,-8,0,8,1,20,23,30,9,9
7,10,2,-8,2,6,0,18,21,26,5,7
6,9,2,-7,2,6,1,18,19,24,3,6
3,9,6,-5,-1,7,2,18,19,23,3,6
0,9,8,-4,-4,8,2,19,19,21,1,6
1,8,6,-4,-3,7,2,18,17,18,-1,4
3,7,3,-4,0,5,1,16,15,15,-4,2
4,6,2,-4,0,5,1,16,13,12,-5,1
1,6,4,-3,-2,6,2,16,13,11,-5,1
-2,6,8,-1,-5,7,3,17,13,11,-5,2
-3,5,8,-1,-5,7,3,16,12,9,-5,1
-3,4,7,0,-5,6,2,14,10,8,-6,0
-3,3,7,0,-5,5,2,14,9,6,-6,0
-4,2,6,1,-5,4,2,13,9,5,-7,0
-3,1,5,2,-4,3,2,12,7,3,-8,-1
-2,1,3,1,-3,2,2,12,6,1,-9,-3
-1,0,2,1,-2,2,2,11,5,0,-9,-4
0,0,1,0,-1,1,2,10,4,0,-10,-5
1,0,0,0,0,0,1,10,3,-1,-11,-6
1,0,0,0,1,0,1,9,2,-2,-12,-7
0,0,0,0,0,0,1,9,1,-2,-12,-7
0,0,0,0,0,0,1,9,1,-2,-12,-7
1,0,-1,0,1,-1,1,8,0,-3,-13,-7
1,0,-1,0,1,-1,0,8,0,-3,-13,-7
0,0,0,0,0,0,0,8,0,-3,-12,-6
-1,-1,1,1,-1,0,1,9,0,-3,-12,-5
-2,-1,2,2,-2,0,1,9,0,-3,-12,-5
-3,-2,2,2,-2,0,1,9,0,-3,-12,-6
-3,-2,1,2,-1,0,1,8,0,-3,-12,-6
-1,-2,-1,2,0,-2,0,8,0,-4,-13,-7
0,-2,-3,1,1,-2,0,8,0,-4,-13,-7
0,-2,-3,1,1,-2,0,8,0,-4,-13,-7
0,-2,-2,2,0,-2,0,9,0,-4,-12,-7
0,-2,-2,1,0,-2,0,9,0,-4,-12,-7
1,-2,-3,0,1,-2,0,8,0,-4,-13,-7
2,-2,-3,0,2,-2,0,8,0,-4,-13,-8
1,-2,-2,0,2,-2,0,9,0,-4,-12,-8
-1,-2,0,1,0,-1,1,10,0,-2,-11,-7
-3,-1,1,2,-2,0,2,11,1,-1,-10,-6
-3,-1,1,3,-3,0,2,11,2,0,-10,-6
-2,-1,0,2,-2,0,1,11,2,0,-10,-6
-1,-1,0,1,0,0,1,11,1,0,-11,-7
0,-2,-1,1,0,-1,1,10,1,0,-11,-7
0,-2,-2,1,1,-1,1,10,1,0,-11,-7
0,-2,-2,1,1,-1,1,10,1,0,-11,-7
0,-2,-2,1,1,-1,1,11,1,0,-11,-7
0,-2,-2,1,1,-2,1,11,1,0,-12,-7
1,-2,-3,1,1,-2,1,11,1,0,-12,-8
2,-2,-4,1,2,-3,0,11,1,0,-13,-9
2,-3,-5,1,3,-3,0,11,1,0,-13,-9
2,-3,-4,1,2,-3,0,11,2,1,-12,-9
1,-2,-3,0,2,-2,1,12,2,2,-12,-9
1,-2,-3,0,2,-2,1,12,3,2,-11,-8
0,-1,-2,0,1,-1,1,12,4,3,-11,-7
-1,-1,0,1,0,0,2,13,5,4,-10,-6
-2,-1,0,2,-2,0,2,14,6,5,-9,-5
-2,-1,0,2,-2,0,3,14,6,5,-8,-5
-1,-1,0,1,-1,0,3,14,6,6,-8,-5
-1,-2,0,1,-1,0,3,14,6,6,-8,-5
-1,-2,0,2,0,0,3,14,7,6,-9,-5
-1,-2,0,2,0,0,3,14,7,7,-9,-5
-1,-2,0,2,0,0,3,14,8,7,-9,-5
-1,-2,-1,2,0,-1,3,14,8,7,-9,-5
0,-2,-2,1,0,-2,2,14,8,7,-9,-5
1,-2,-3,0,2,-2,2,13,7,7,-9,-5
3,-2,-5,0,3,-3,2,13,7,7,-9,-5
3,-2,-5,0,3,-3,2,13,8,8,-9,-5
1,-2,-3,0,2,-2,2,14,8,8,-9,-5
1,-2,-2,0,1,-2,2,14,8,8,-9,-5
1,-2,-3,0,2,-2,1,13,7,8,-9,-5
1,-2,-3,0,2,-2,1,13,7,8,-9,-5
0,-2,-2,1,1,-2,2,14,8,8,-8,-5
0,-2,-1,1,0,-1,2,14,8,8,-8,-5
0,-2,-1,1,0,-1,2,14,8,8,-8,-5
-1,-3,0,2,-1,-1,3,14,9,8,-8,-4
-2,-2,1,2,-2,0,3,14,9,9,-8,-4
-2,-2,1,2,-2,0,3,13,9,9,-8,-4
-1,-2,-1,1,0,-1,2,12,8,8,-9,-4
2,-2,-5,0,3,-3,1,11,7,7,-9,-5
4,-2,-7,0,5,-4,0,11,7,7,-9,-5
3,-2,-7,0,4,-4,1,11,7,7,-9,-5
2,-2,-4,0,2,-3,1,11,7,7,-8,-4
0,-2,-1,1,0,-1,2,12,8,8,-7,-3
-2,-2,0,2,-1,-1,3,12,8,8,-7,-3
-2,-2,0,2,-1,-1,3,12,8,7,-8,-3
-1,-3,-1,2,0,-2,2,11,8,7,-8,-4
0,-3,-2,2,1,-3,2,10,7,6,-9,-4
0,-3,-3,2,2,-3,2,10,7,6,-9,-5
0,-4,-4,2,2,-4,2,10,6,5,-7,-5
0,-4,-4,2,2,-4,2,10,6,5,-4,-5
-1,-4,-2,2,1,-3,2,10,6,5,-1,-5
-1,-4,-2,3,0,-3,2,9,6,5,0,-5
-1,-5,-2,3,0,-4,2,9,5,4,1,-6
-1,-5,-3,3,0,-4,2,9,5,4,2,-6
-1,-4,-4,2,1,-4,2,9,5,4,3,-6
0,-4,-4,2,1,-3,2,9,5,4,3,-5
-1,-4,-3,3,0,-3,2,9,5,4,4,-5
-3,-4,-1,3,-1,-2,2,9,5,5,4,-5
-4,-4,0,4,-2,-2,2,9,5,5,4,-5
-4,-4,0,4,-2,-2,2,9,5,5,3,-5
-3,-4,0,3,-1,-2,2,8,4,4,3,-6
-3,-5,-1,3,0,-3,2,8,4,4,3,-6
-2,-5,-2,3,0,-3,2,7,4,4,3,-6
-2,-5,-3,3,0,-3,2,7,4,3,3,-6
-1,-5,-3,3,1,-4,2,6,4,3,2,-6
-1,-5,-4,3,2,-4,1,6,3,2,2,-7
-1,-5,-4,3,1,-4,1,5,3,2,1,-7
-1,-5,-3,3,1,-4,1,5,3,2,1,-7
0,-5,-5,2,2,-5,1,5,2,2,1,-7
2,-6,-8,1,5,-6,0,4,1,1,0,-9
5,-6,-12,0,8,-8,0,2,0,0,-1,-10
6,-7,-13,0,9,-9,0,1,0,-1,-2,-11
4,-7,-11,1,7,-8,0,2,0,0,-2,-9
0,-7,-6,3,3,-6,1,3,1,1,0,-7
-2,-7,-3,4,0,-4,2,4,2,2,0,-6
-3,-6,-2,4,-1,-4,2,4,3,2,0,-6
-3,-6,-3,4,0,-4,2,4,3,2,0,-7
-3,-6,-3,4,0,-4,2,4,3,2,0,-7
-4,-6,-2,5,-1,-3,2,4,3,2,0,-7
-5,-6,-2,6,-2,-3,2,4,3,2,0,-6
-4,-6,-3,5,-1,-4,2,4,3,2,0,-6
-3,-7,-4,5,0,-5,2,3,3,1,-1,-7
-1,-7,-7,4,2,-6,1,2,2,0,-2,-9
0,-8,-9,3,4,-7,1,1,1,0,-3,-9
0,-7,-8,3,4,-7,1,1,1,0,-3,-9
0,-7,-7,4,3,-7,1,1,2,0,-2,-9
-1,-7,-6,4,2,-6,1,1,2,1,-2,-8
-2,-7,-5,5,1,-6,1,1,2,1,-1,-8
-3,-7,-4,5,1,-5,1,1,3,1,-1,-8
-3,-7,-4,5,0,-5,1,1,3,1,-1,-8
-3,-7,-4,5,0,-5,2,2,3,1,-1,-8
-3,-7,-4,5,0,-5,2,2,3,1,-1,-8
-3,-7,-4,5,0,-5,2,2,3,1,-1,-8
-3,-7,-4,5,1,-6,2,2,3,1,-2,-8
-2,-7,-5,4,2,-6,2,2,3,1,-2,-9
-1,-7,-6,4,3,-7,2,1,3,1,-3,-9
-1,-8,-7,4,3,-7,1,1,2,0,-3,-9
-1,-8,-7,4,3,-7,1,1,2,0,-3,-9
-2,-8,-5,5,2,-6,2,1,3,0,-3,-9
-3,-7,-4,5,0,-5,2,1,3,1,-3,-8
-3,-7,-4,5,0,-5,2,1,3,1,-3,-8
-2,-6,-4,4,1,-5,2,1,3,1,-3,-8
-1,-6,-5,4,1,-5,2,0,3,1,-3,-9
-1,-6,-6,4,2,-6,2,0,3,1,-3,-9
0,-7,-7,4,3,-6,1,0,3,1,-4,-9
0,-7,-8,4,4,-7,1,0,2,0,-5,-9
0,-8,-9,3,5,-8,1,0,2,0,-5,-10
1,-8,-10,3,6,-9,1,-1,1,-1,-6,-11
2,-8,-10,2,6,-9,0,-1,1,-1,-7,-11
1,-7,-9,2,4,-8,0,-1,1,-1,-6,-11
0,-7,-7,3,3,-7,1,-1,2,-1,-6,-10
0,-7,-8,3,4,-7,1,-1,2,-1,-6,-10
0,-7,-9,3,5,-8,1,-2,1,-1,-6,-10
0,-7,-8,4,4,-7,1,-2,2,-1,-6,-10
-3,-7,-5,5,1,-6,2,-1,3,0,-5,-9
-4,-7,-3,5,0,-5,3,0,4,0,-4,-8
-3,-7,-4,5,0,-5,3,-1,4,0,-5,-8
-2,-7,-4,4,1,-6,2,-1,3,0,-5,-9
-2,-7,-4,4,1,-6,2,-2,3,0,-5,-9
-2,-7,-4,5,1,-6,2,-2,3,0,-6,-9
-2,-7,-5,5,2,-6,1,-3,3,0,-6,-9
-1,-7,-6,4,2,-7,1,-3,3,-1,-7,-10
-2,-7,-6,5,2,-7,1,-4,3,-1,-7,-10
-4,-7,-5,5,0,-6,2,-4,3,-1,-6,-10
-3,-8,-5,5,0,-7,2,-5,2,-2,-7,-10
-1,-8,-6,5,2,-8,1,-6,2,-3,-7,-11
0,-8,-8,4,3,-8,1,-7,1,-3,-8,-12
0,-8,-9,4,4,-9,0,-7,1,-3,-9,-12
-1,-8,-8,5,3,-8,1,-7,2,-3,-8,-11
-4,-7,-5,6,0,-6,2,-6,3,-1,-7,-10
-7,-7,-2,7,-2,-5,2,-6,4,0,-6,-9
-7,-7,-1,7,-3,-4,2,-6,4,0,-5,-8
-6,-7,-1,7,-3,-5,2,-6,3,-1,-5,-9
-4,-7,-3,6,-1,-5,2,-7,3,-1,-6,-9
-3,-7,-4,6,0,-6,2,-7,2,-1,-6,-10
-1,-7,-5,5,1,-6,2,-7,2,-2,-6,-10
0,-7,-7,5,3,-7,1,-8,1,-2,-6,-10
0,-8,-9,4,4,-8,1,-9,1,-3,-7,-12
0,-8,-9,4,5,-9,0,-9,0,-3,-8,-13
0,-8,-8,4,3,-8,0,-9,0,-3,-7,-13
-2,-8,-6,5,1,-7,1,-9,1,-3,-6,-12
-2,-8,-5,5,1,-7,1,-8,1,-2,-6,-12
-3,-8,-4,5,0,-6,1,-8,1,-2,-6,-11
-3,-8,-4,6,0,-6,2,-8,1,-2,-6,-11
-3,-7,-4,5,0,-6,2,-7,1,-2,-6,-10
-2,-7,-5,5,1,-6,2,-7,1,-2,-6,-10
-1,-7,-7,4,3,-7,1,-7,1,-3,-7,-11
0,-8,-8,4,4,-8,1,-8,0,-4,-8,-12
0,-8,-9,4,5,-9,0,-8,0,-5,-9,-13
0,-8,-9,4,5,-8,0,-8,0,-5,-9,-13
0,-7,-7,4,3,-7,0,-8,0,-5,-8,-12
-2,-7,-5,5,1,-7,1,-7,1,-4,-8,-12
-2,-7,-5,5,1,-6,1,-7,1,-4,-8,-11
-2,-7,-5,5,1,-6,1,-7,1,-4,-8,-11
-2,-7,-5,5,1,-6,1,-6,1,-4,-8,-11
-2,-7,-5,5,1,-6,1,-6,1,-4,-8,-11
-2,-7,-6,4,2,-7,1,-7,0,-4,-8,-12
-1,-7,-7,4,3,-7,0,-7,0,-5,-8,-13
0,-7,-8,3,4,-8,0,-7,0,-5,-9,-13
0,-7,-8,3,4,-8,0,-7,0,-6,-9,-13
0,-7,-7,3,3,-8,0,-7,0,-5,-8,-13
-4,-7,-3,5,0,-6,1,-5,1,-4,-7,-12
-5,-7,-1,6,-2,-5,1,-4,1,-3,-6,-11
-4,-7,-2,5,0,-5,1,-4,1,-3,-6,-12
-3,-7,-3,4,0,-5,1,-4,1,-4,-6,-12
-3,-6,-3,4,0,-5,1,-3,1,-4,-6,-12
-4,-6,-2,5,0,-4,1,-2,1,-4,-6,-11
-4,-6,-2,5,-1,-4,1,-2,1,-4,-6,-11
-3,-6,-3,5,0,-5,1,-2,1,-4,-6,-12
-2,-6,-4,5,1,-6,1,-2,1,-4,-6,-12
-2,-7,-5,5,1,-6,1,-2,0,-5,-6,-12
-3,-7,-4,5,1,-6,1,-2,1,-5,-6,-12
-3,-6,-3,5,0,-5,1,-1,1,-4,-5,-11
-3,-6,-2,4,0,-4,2,-1,2,-4,-4,-11
-3,-5,-2,4,0,-4,2,0,2,-4,-4,-11
-3,-5,-1,4,-1,-3,2,0,3,-4,-3,-11
-3,-4,-1,3,-1,-3,2,0,3,-4,-3,-11
-2,-3,-1,2,0,-2,3,0,3,-4,-3,-11
-1,-2,-1,1,0,-2,3,0,3,-4,-3,-11
0,-1,-1,1,0,-2,3,1,3,-4,-3,-11
-1,-1,0,1,0,-1,3,2,4,-3,-2,-11
-2,0,1,1,-1,0,4,3,5,-2,-1,-10
-2,0,2,1,-2,0,4,4,6,-1,-1,-9
-2,1,3,1,-2,1,5,5,7,-1,0,-9
-2,1,4,0,-3,2,6,6,8,0,0,-9
-1,1,3,0,-2,1,6,6,8,0,0,-9
0,1,1,-1,0,0,6,7,8,0,0,-10
3,1,-2,-2,3,-1,6,7,8,0,-1,-11
4,1,-3,-2,4,-2,7,8,9,0,-1,-11
1,1,0,0,1,0,9,10,11,1,0,-9
-1,1,2,0,-1,1,10,11,12,2,1,-8
0,0,0,0,0,0,10,12,12,2,1,-9
2,0,-1,-1,1,-1,10,12,12,2,0,-9
1,0,-1,0,1,-1,10,12,13,3,0,-9
-1,-1,0,1,0,-1,11,12,13,3,1,-8
-2,-1,0,2,-1,0,11,13,14,4,2,-7
-4,-2,2,3,-2,0,11,12,14,4,3,-6
-5,-2,2,3,-3,0,10,12,14,4,3,-6
-5,-3,2,4,-3,0,9,11,13,3,3,-6
-4,-3,0,3,-2,-1,8,9,12,2,2,-6
-2,-3,-1,3,0,-2,6,7,11,1,2,-6
-1,-3,-2,3,0,-2,5,6,10,1,2,-6
-2,-3,-1,3,0,-2,5,5,9,1,2,-6
-2,-3,-1,3,-1,-2,4,5,9,1,1,-6
-1,-3,-2,2,0,-2,3,4,8,0,0,-6
1,-3,-3,1,2,-3,3,4,7,-1,0,-7
1,-3,-4,1,3,-4,3,4,6,-1,0,-8
1,-3,-4,1,3,-4,3,4,6,-2,0,-8
0,-4,-4,2,3,-4,3,3,5,-2,-1,-9
1,-5,-6,2,3,-6,2,2,3,-3,-2,-9
2,-6,-8,2,4,-7,1,1,2,-5,-3,-10
2,-7,-9,3,5,-8,0,0,1,-6,-4,-10
2,-7,-10,3,5,-9,0,0,0,-6,-4,-10
3,-8,-11,3,6,-10,0,-1,-1,-7,-5,-11
3,-8,-12,3,7,-10,-1,-1,-1,-8,-5,-11
3,-9,-12,3,7,-10,-1,-2,-2,-8,-6,-12
2,-9,-11,3,7,-10,-1,-2,-2,-9,-6,-12
2,-9,-10,3,6,-9,-1,-3,-2,-9,-6,-12
2,-9,-10,3,6,-9,-2,-3,-3,-9,-7,-12
3,-8,-10,2,6,-9,-2,-4,-3,-10,-7,-12
2,-7,-9,2,5,-8,-2,-3,-3,-9,-7,-12
1,-6,-8,2,4,-7,-1,-3,-2,-9,-6,-12
0,-6,-7,2,4,-6,-1,-3,-2,-9,-7,-12
0,-5,-7,2,4,-6,-1,-3,-2,-9,-8,-13
0,-6,-7,3,4,-6,-1,-3,-3,-10,-8,-14
-1,-6,-6,4,2,-6,0,-4,-3,-10,-8,-14
-3,-7,-4,5,0,-5,0,-4,-2,-10,-8,-13
-4,-7,-3,6,-1,-5,0,-4,-3,-10,-8,-13
-5,-8,-3,6,-1,-6,0,-5,-3,-11,-8,-14
-4,-8,-3,6,0,-6,0,-5,-4,-12,-8,-14
-4,-7,-3,6,0,-5,0,-4,-3,-12,-8,-14
-4,-7,-2,5,0,-5,0,-4,-3,-11,-8,-13
-3,-7,-4,4,1,-5,0,-5,-3,-12,-9,-14
0,-7,-8,3,4,-7,-1,-6,-4,-13,-10,-15
4,-7,-12,2,8,-9,-2,-7,-6,-15,-12,-17
5,-7,-13,2,8,-10,-3,-8,-6,-16,-13,-18
2,-7,-10,3,5,-8,-2,-8,-5,-14,-11,-17
-1,-6,-5,4,1,-6,0,-7,-4,-13,-10,-15
-4,-6,-2,5,-1,-4,0,-6,-3,-12,-9,-15
-5,-6,0,5,-2,-3,1,-5,-2,-11,-8,-15
-6,-6,0,6,-3,-3,1,-5,-2,-11,-8,-15
-6,-6,0,6,-3,-3,1,-5,-1,-11,-8,-15
-6,-6,0,6,-3,-3,1,-5,-1,-11,-8,-15
-6,-6,0,6,-3,-3,1,-5,-1,-11,-8,-15
-6,-6,0,6,-3,-3,1,-5,-1,-11,-8,-15
-6,-6,0,6,-3,-3,1,-5,-1,-11,-8,-15
-6,-6,-1,6,-3,-3,1,-5,-1,-11,-8,-15
-5,-6,-1,5,-2,-3,1,-5,-1,-11,-9,-15
-4,-6,-2,5,0,-4,2,-5,-1,-11,-9,-16
-3,-7,-4,4,1,-5,2,-5,0,-11,-10,-16
-3,-7,-4,4,1,-5,3,-4,1,-10,-9,-17
-3,-6,-2,4,0,-4,3,-4,3,-8,-8,-17
-4,-4,0,4,-2,-2,3,-4,5,-4,-5,-15
-4,-2,2,3,-3,0,3,-4,7,0,0,-12
-4,-1,3,2,-4,1,2,-5,8,6,7,-8
-3,1,4,1,-4,3,1,-6,9,14,17,-1
-2,3,5,-1,-3,5,-1,-7,11,24,30,8
1,8,7,-5,-2,8,-5,-10,12,37,48,22
5,14,9,-10,-2,12,-12,-16,11,52,71,41
9,20,11,-15,-1,16,-19,-24,9,69,97,63
13,24,11,-19,1,18,-28,-35,2,83,126,88
19,27,8,-23,5,18,-39,-49,-9,92,152,112
24,30,6,-27,9,18,-49,-64,-24,94,175,135
27,36,9,-31,8,23,-56,-77,-38,91,194,156
26,44,18,-35,4,31,-60,-89,-51,84,207,172
26,54,27,-40,0,41,-64,-100,-64,71,212,181
28,59,31,-43,-1,45,-68,-108,-75,55,205,181
28,55,27,-41,0,41,-69,-112,-85,34,185,167
24,44,20,-34,2,32,-67,-112,-94,7,151,141
16,32,15,-25,0,24,-63,-110,-103,-20,112,109
9,21,12,-15,-1,17,-60,-110,-114,-50,67,73
4,12,9,-8,-2,11,-59,-113,-129,-84,16,34
0,5,6,-3,-2,6,-60,-118,-145,-118,-32,-1
-3,1,4,1,-3,3,-62,-123,-160,-142,-67,-27
-6,-1,4,3,-4,2,-64,-125,-169,-156,-86,-42
-9,-1,6,5,-7,3,-63,-124,-172,-161,-96,-51
-12,-2,9,6,-10,4,-61,-119,-170,-160,-100,-57
-14,-3,9,7,-11,3,-58,-111,-165,-156,-101,-62
-13,-6,6,9,-10,0,-54,-100,-158,-150,-102,-66
-13,-12,1,12,-7,-5,-49,-88,-150,-143,-100,-68
-14,-18,-3,16,-5,-10,-43,-74,-141,-134,-97,-69
-14,-23,-8,19,-3,-16,-35,-59,-130,-124,-93,-68
-14,-28,-14,21,0,-21,-28,-45,-118,-114,-87,-66
-11,-31,-19,21,3,-25,-25,-37,-107,-105,-81,-64
-10,-32,-23,21,6,-27,-24,-33,-98,-96,-75,-61
-9,-33,-24,21,7,-28,-24,-31,-88,-87,-68,-57
-9,-32,-23,20,6,-27,-22,-26,-78,-77,-62,-52
-9,-30,-21,20,6,-25,-18,-20,-68,-68,-55,-48
-9,-28,-19,19,5,-24,-15,-14,-59,-59,-49,-44
-8,-26,-18,17,5,-22,-12,-8,-50,-51,-43,-41
-7,-24,-17,15,6,-20,-9,-3,-42,-44,-38,-38
-6,-21,-16,14,6,-18,-7,1,-34,-38,-33,-35
-5,-19,-14,12,5,-16,-4,5,-27,-32,-28,-32
-5,-16,-12,11,3,-14,-2,8,-20,-27,-24,-29
-5,-14,-9,10,2,-11,-1,11,-15,-22,-20,-26
-4,-11,-6,8,1,-8,0,14,-10,-18,-17,-24
-4,-9,-4,7,0,-7,1,16,-7,-16,-15,-23
-3,-7,-4,5,1,-5,1,17,-5,-14,-13,-22
-2,-6,-3,4,1,-4,2,19,-3,-13,-12,-22
-3,-4,-1,4,0,-3,3,20,-1,-11,-10,-20
-5,-3,1,4,-3,-1,4,21,1,-9,-7,-19
-6,-3,3,4,-4,0,4,23,3,-7,-6,-18
-6,-2,4,4,-5,1,4,23,4,-6,-5,-17
-5,-2,4,3,-5,1,4,24,5,-6,-4,-17
-5,-1,5,3,-5,2,4,25,5,-5,-4,-16
-4,-1,4,2,-4,2,4,25,5,-5,-4,-16
-2,0,3,1,-2,1,4,25,5,-5,-4,-16
-1,0,1,0,-1,1,4,25,5,-5,-3,-16
-1,0,2,0,-2,1,5,25,6,-5,-2,-16
-1,0,2,0,-2,2,5,26,7,-5,-1,-15
-1,0,2,0,-2,1,4,26,7,-5,-1,-16
0,1,2,-1,-1,1,4,26,7,-4,-1,-16
0,1,2,-1,0,1,4,27,8,-4,0,-16
0,2,3,-1,-1,2,4,27,8,-3,0,-15
-1,2,5,0,-3,3,5,28,9,-2,1,-14
-3,2,6,0,-5,4,6,29,10,-1,2,-13
-4,2,7,0,-5,5,6,30,10,-1,3,-12
-4,2,6,0,-5,4,6,30,10,-1,4,-12
-3,2,5,0,-4,4,5,30,10,-1,4,-13
-2,2,4,0,-3,3,5,30,10,-1,4,-14
-1,2,3,0,-2,3,4,30,10,-1,4,-14
-1,2,3,0,-2,3,4,30,10,-1,4,-14
-1,2,4,0,-2,3,4,31,10,0,5,-13
0,2,3,-1,-1,3,4,31,10,0,5,-14
0,2,1,-1,0,2,4,31,10,0,5,-14
1,2,1,-2,0,2,4,31,11,0,6,-14
1,2,0,-2,0,2,4,31,11,0,6,-14
1,2,0,-2,0,2,4,31,12,1,7,-13
0,2,1,-1,0,2,4,32,12,2,7,-13
-1,2,3,-1,-1,2,5,32,13,3,8,-13
-3,1,4,0,-3,3,5,33,13,4,9,-12
-3,1,5,0,-4,3,5,34,14,5,10,-12
-2,1,3,0,-2,2,4,33,14,6,10,-12
0,1,0,-1,0,1,3,33,13,6,9,-13
2,1,-2,-2,2,0,3,33,13,6,9,-14
3,1,-1,-2,2,0,3,33,14,7,10,-13
2,1,0,-2,1,1,3,33,15,8,12,-11
1,1,2,-2,0,2,3,34,16,10,13,-10
0,1,3,-1,-1,2,3,34,16,11,14,-9
-1,1,4,-1,-2,3,4,35,17,13,15,-9
-1,1,4,-1,-2,3,4,35,17,14,16,-9
-1,1,4,0,-3,3,4,36,18,15,17,-8
-3,1,5,0,-4,4,4,37,19,17,18,-6
-5,2,7,1,-6,5,5,38,20,19,20,-4
-5,2,7,1,-6,5,5,38,21,21,21,-3
-5,2,7,1,-6,5,5,39,22,22,22,-2
-5,2,7,1,-6,5,5,39,22,23,23,-2
-4,2,7,0,-5,5,4,39,22,24,23,-1
-2,2,5,-1,-3,4,4,39,22,24,24,-1
-1,3,4,-1,-2,4,3,39,22,25,24,0
0,3,2,-2,-1,3,3,39,23,25,25,0
1,3,1,-2,0,3,3,39,23,26,26,1
2,3,0,-3,1,2,2,40,23,28,27,2
3,3,0,-3,2,2,2,40,24,29,28,3
5,2,-2,-4,4,1,1,40,25,30,29,3
7,2,-4,-5,6,0,1,40,25,31,29,3
7,2,-3,-5,5,0,1,40,26,33,31,5
4,3,0,-4,2,1,2,41,28,36,34,7
0,3,3,-2,-1,4,3,43,30,39,37,10
0,4,4,-1,-3,5,4,43,32,41,39,12
0,4,3,-2,-2,4,4,43,33,43,41,13
1,4,3,-3,-1,4,4,43,33,45,42,14
2,4,2,-3,0,4,4,43,34,47,44,15
3,5,1,-4,1,3,3,43,34,48,45,15
4,5,0,-4,2,3,3,43,35,50,46,16
6,5,-1,-5,3,2,2,43,36,52,47,17
8,5,-2,-6,5,2,2,43,37,54,49,18
8,6,-2,-7,5,2,2,43,38,57,52,19
8,7,-1,-8,4,3,2,44,40,60,56,22
7,8,0,-8,3,5,3,46,42,64,60,24
6,8,2,-8,2,6,3,47,44,67,63,26
5,9,4,-8,1,7,3,48,46,70,66,29
5,9,5,-8,0,8,4,49,47,72,68,30
5,10,5,-8,0,8,4,49,48,74,71,31
5,10,4,-8,0,8,4,50,48,76,73,32
5,11,5,-8,0,9,4,50,49,79,75,33
5,12,6,-9,0,10,5,51,51,81,78,35
6,13,6,-10,0,10,5,51,52,84,80,36
7,13,6,-11,1,10,4,51,52,85,82,37
8,13,5,-11,1,10,4,51,53,87,83,38
8,13,6,-11,1,10,4,51,53,88,84,38
7,14,7,-11,0,10,4,51,54,89,85,39
8,14,7,-12,0,11,4,51,54,90,86,40
9,15,5,-12,1,10,3,50,54,90,86,39
11,15,4,-13,3,10,3,50,53,90,86,39
10,15,4,-13,3,10,3,50,54,91,87,40
8,16,7,-12,0,12,3,51,55,92,88,42
6,16,10,-11,-2,14,4,53,55,92,89,43
5,16,11,-11,-3,14,5,53,55,92,89,43
5,16,12,-11,-3,15,5,54,55,91,88,42
5,16,12,-11,-3,14,5,53,54,90,87,42
5,16,11,-11,-3,14,5,52,53,88,85,41
6,16,10,-11,-2,13,5,51,52,86,83,40
7,16,9,-12,0,13,4,50,51,84,82,39
8,16,8,-12,0,12,4,49,50,82,79,38
10,16,6,-12,2,11,3,48,48,79,76,36
11,15,5,-13,3,10,2,47,46,76,73,34
9,15,6,-12,2,10,2,47,45,74,71,33
6,14,8,-11,-1,11,3,47,44,72,69,32
4,14,10,-10,-3,12,4,46,43,69,67,31
4,14,10,-9,-3,12,4,45,42,67,64,30
4,13,9,-9,-2,12,4,44,41,63,61,28
6,13,7,-10,0,11,4,43,39,59,57,26
8,13,5,-11,2,9,3,41,36,55,53,24
8,12,4,-10,2,9,3,40,34,51,49,22
6,12,7,-9,0,9,3,40,33,48,47,21
3,11,8,-8,-2,10,3,39,32,45,44,20
3,11,8,-8,-2,9,3,38,30,41,41,18
3,10,7,-7,-1,8,3,37,28,37,37,15
3,9,6,-7,-1,8,3,36,26,34,34,13
3,9,5,-6,-1,8,4,35,25,31,31,12
3,8,5,-6,-1,7,4,34,23,28,27,10
1,8,6,-4,-2,7,4,34,21,25,25,9
0,7,7,-3,-3,8,4,33,20,22,23,8
0,7,7,-3,-3,7,4,32,18,19,20,6
0,6,5,-3,-2,6,4,31,16,16,17,4
1,5,4,-3,-1,4,4,30,14,13,14,1
2,4,1,-3,0,3,4,29,12,10,11,-1
3,3,0,-3,2,2,3,27,10,7,8,-3
4,3,-1,-3,3,1,3,26,9,5,5,-4
3,3,-1,-2,3,1,3,26,8,2,4,-5
1,2,0,-1,1,1,3,26,7,0,3,-5
-1,1,2,0,-1,1,3,25,6,0,2,-5
-2,0,3,0,-3,1,3,24,5,-1,1,-6
-2,0,3,1,-3,1,4,23,4,-2,0,-7
0,0,0,0,0,0,3,22,2,-5,-1,-9
2,0,-3,-1,3,-1,3,20,0,-7,-3,-11
4,0,-5,-1,4,-2,2,19,-1,-9,-5,-12
2,0,-4,0,3,-2,2,18,-1,-10,-5,-12
0,-1,-2,0,1,-1,2,18,-1,-10,-5,-12
0,-1,-2,0,1,-2,1,17,-2,-11,-6,-12
0,-2,-2,1,1,-3,1,16,-3,-12,-7,-13
-1,-3,-1,2,0,-3,1,15,-3,-12,-7,-13
-2,-3,0,2,-1,-2,2,15,-3,-12,-7,-13
-3,-3,0,3,-2,-1,3,15,-3,-12,-7,-13
-4,-3,1,4,-2,-1,3,15,-3,-12,-8,-13
-4,-3,0,3,-2,-1,3,14,-3,-13,-8,-13
-1,-3,-2,2,0,-3,2,13,-4,-14,-9,-14
0,-3,-4,1,2,-4,1,13,-5,-14,-10,-14
1,-4,-5,1,3,-5,1,13,-6,-15,-11,-14
0,-4,-4,2,2,-4,1,13,-6,-15,-11,-14
-1,-4,-2,2,0,-3,1,13,-6,-14,-10,-13
-2,-4,-1,3,0,-2,2,13,-6,-14,-10,-13
-3,-4,-1,3,0,-2,2,13,-6,-14,-10,-14
-2,-4,-1,3,0,-2,2,13,-6,-14,-10,-14
-1,-4,-3,3,1,-3,2,13,-6,-15,-11,-15
1,-4,-6,2,4,-4,1,12,-7,-15,-11,-16
3,-5,-7,1,5,-5,1,12,-7,-16,-11,-17
2,-5,-7,1,5,-6,0,12,-7,-16,-11,-17
2,-5,-7,1,5,-6,0,12,-7,-15,-11,-17
2,-5,-7,1,5,-6,0,11,-8,-15,-11,-17
3,-5,-8,1,5,-6,0,11,-8,-15,-12,-18
1,-5,-6,1,3,-4,1,12,-7,-14,-11,-17
-1,-4,-2,2,0,-2,2,14,-5,-12,-10,-16
-4,-4,0,3,-3,-1,3,15,-4,-11,-8,-14
-5,-4,2,4,-4,0,3,15,-3,-10,-7,-13
-5,-4,2,4,-4,-1,3,15,-3,-9,-7,-13
-5,-4,1,4,-3,-1,3,15,-3,-9,-7,-13
-4,-4,0,3,-2,-1,3,15,-3,-9,-7,-13
-2,-4,-2,2,0,-1,3,15,-3,-9,-8,-14
0,-4,-4,2,2,-2,2,14,-4,-9,-9,-15
1,-4,-5,1,3,-3,2,14,-4,-9,-9,-15
2,-4,-6,1,4,-3,2,14,-4,-9,-10,-16
3,-4,-7,0,5,-4,1,14,-4,-9,-10,-16
4,-4,-8,0,6,-5,1,14,-4,-9,-10,-16
3,-3,-6,0,5,-5,1,14,-3,-8,-10,-15
0,-3,-2,1,1,-3,3,16,-2,-6,-8,-14
-2,-3,0,2,-1,-1,4,17,-1,-5,-7,-13
-3,-3,0,2,-2,-1,4,18,0,-5,-6,-12
-3,-3,0,3,-2,0,5,19,0,-4,-6,-12
-3,-3,0,3,-2,0,5,19,0,-4,-6,-12
-3,-3,0,3,-2,-1,5,19,0,-3,-6,-11
-3,-3,0,3,-2,-1,6,19,0,-3,-6,-11
-2,-3,0,2,-1,-1,5,19,0,-3,-6,-11
-2,-3,-1,2,-1,-2,5,19,0,-3,-6,-11
-1,-3,-1,2,0,-2,5,19,0,-3,-6,-12
0,-3,-2,1,0,-3,4,19,0,-3,-6,-12
0,-3,-3,1,1,-3,4,19,0,-3,-6,-12
0,-3,-3,1,1,-3,4,19,0,-3,-6,-12
0,-3,-2,1,0,-2,4,19,0,-2,-6,-12
-2,-3,-1,2,-1,-2,4,19,0,-2,-6,-11
-1,-3,-1,2,0,-2,4,19,1,-2,-6,-11
0,-3,-3,1,2,-3,3,19,0,-3,-6,-12
4,-3,-8,-1,6,-5,2,18,-1,-4,-8,-14
8,-4,-12,-2,10,-7,1,17,-2,-5,-10,-16
8,-4,-12,-2,10,-7,1,17,-3,-5,-10,-16
5,-3,-8,-1,7,-5,2,18,-2,-4,-9,-15
1,-3,-4,0,3,-3,3,19,-1,-3,-8,-13
-2,-3,0,2,-1,-1,3,20,0,-2,-6,-12
-4,-2,2,2,-3,0,4,20,0,-2,-5,-11
-4,-2,3,2,-3,0,4,21,0,-2,-5,-10
-3,-1,2,2,-3,0,4,21,0,-2,-5,-10
-3,-1,2,2,-3,1,4,21,1,-2,-5,-10
-4,-1,2,2,-3,1,5,21,1,-2,-5,-10
-4,-1,2,2,-3,1,5,21,1,-2,-6,-10
-2,-1,1,2,-2,1,4,21,0,-3,-6,-10
-1,-1,0,1,0,0,4,20,0,-4,-7,-11
0,-2,-1,0,0,-1,3,19,-1,-5,-8,-12
0,-2,-2,0,1,-2,3,19,-2,-5,-9,-13
0,-2,-2,1,1,-2,3,18,-2,-6,-9,-13
-1,-3,-2,1,1,-2,3,19,-2,-6,-9,-13
-1,-3,-2,2,0,-2,3,19,-3,-6,-9,-13
-1,-3,-2,2,0,-2,3,19,-3,-6,-10,-14
0,-3,-3,1,1,-2,2,18,-4,-7,-10,-14
0,-3,-3,1,2,-3,1,18,-4,-7,-11,-14
0,-3,-4,0,2,-3,1,17,-5,-8,-11,-14
1,-3,-4,0,2,-3,1,17,-5,-8,-11,-14
1,-3,-4,0,2,-3,1,17,-5,-8,-11,-14
-1,-3,-2,1,0,-2,1,17,-5,-8,-11,-14
-3,-3,0,3,-2,-1,2,17,-4,-7,-10,-13
-5,-3,2,3,-3,0,3,17,-3,-6,-10,-12
-4,-3,1,3,-3,0,3,18,-4,-7,-10,-12
-3,-3,0,3,-2,-1,2,19,-4,-8,-11,-13
-1,-4,-2,3,0,-3,1,20,-5,-9,-12,-15
0,-4,-4,2,1,-4,1,22,-6,-10,-13,-16
-1,-4,-2,3,0,-3,1,24,-5,-9,-13,-15
-5,-4,1,4,-3,-1,1,27,-4,-8,-12,-14
-6,-4,2,5,-4,0,2,29,-4,-8,-12,-14
-6,-3,2,4,-4,0,2,31,-4,-8,-12,-13
-6,-3,2,4,-5,0,2,32,-4,-8,-12,-13
-7,-4,2,5,-5,0,3,32,-4,-8,-12,-12
-6,-4,2,5,-4,0,3,32,-4,-8,-12,-11
-5,-4,1,5,-3,-1,2,33,-5,-8,-12,-11
-4,-4,-1,4,-1,-2,2,33,-5,-9,-13,-11
-2,-4,-3,3,0,-3,1,33,-6,-10,-14,-11
-1,-4,-4,3,1,-4,0,33,-6,-11,-15,-11
-1,-5,-4,3,1,-4,0,34,-6,-11,-15,-11
-3,-5,-3,3,0,-3,0,34,-6,-11,-14,-10
-3,-5,-2,3,0,-3,1,35,-6,-11,-14,-10
-3,-5,-3,3,0,-3,1,35,-6,-11,-14,-10
-3,-5,-3,3,0,-4,1,34,-7,-11,-15,-10
-2,-6,-5,3,1,-5,1,34,-7,-11,-15,-11
-1,-6,-6,3,2,-6,1,34,-7,-11,-16,-11
0,-6,-6,3,2,-6,1,34,-7,-11,-16,-11
0,-6,-5,3,2,-5,2,35,-7,-11,-16,-11
-1,-6,-5,3,1,-5,2,35,-8,-11,-15,-11
-2,-6,-4,3,0,-5,2,35,-8,-11,-15,-11
-3,-6,-3,4,0,-4,2,35,-7,-11,-15,-11
-3,-6,-2,4,0,-4,2,35,-7,-11,-15,-11
-3,-5,-3,3,0,-4,2,35,-6,-11,-15,-11
-3,-5,-2,3,0,-3,2,35,-6,-11,-14,-10
-4,-5,-1,4,-2,-2,3,36,-5,-10,-13,-10
-5,-5,0,5,-2,-2,3,36,-6,-10,-13,-10
-4,-5,-1,4,-1,-3,3,35,-6,-11,-14,-11
-3,-6,-3,4,0,-4,2,35,-6,-11,-15,-11
-2,-6,-4,3,1,-5,2,34,-6,-12,-15,-11
-1,-7,-5,3,1,-5,1,34,-6,-12,-15,-11
-2,-7,-5,4,1,-5,2,34,-6,-12,-15,-11
-3,-8,-5,4,0,-5,2,34,-6,-12,-15,-11
-3,-8,-4,5,0,-5,2,34,-7,-12,-15,-11
-4,-8,-3,5,0,-5,3,34,-7,-12,-15,-11
-4,-8,-3,5,0,-5,3,35,-7,-11,-15,-11
-5,-8,-2,6,-1,-4,4,35,-7,-11,-15,-11
-5,-8,-2,6,-1,-4,4,35,-7,-11,-15,-11
-4,-7,-3,5,0,-4,4,35,-7,-11,-15,-11
-3,-7,-3,5,0,-5,4,34,-7,-11,-16,-11
-3,-7,-4,5,0,-5,3,34,-7,-11,-16,-11
-2,-6,-4,4,1,-5,3,34,-7,-11,-16,-11
-2,-6,-5,4,1,-5,2,34,-7,-12,-16,-11
-2,-7,-6,4,2,-6,2,34,-7,-12,-17,-11
-2,-7,-5,5,1,-5,2,34,-7,-12,-16,-11
-3,-7,-4,5,0,-5,2,34,-7,-12,-16,-10
-4,-7,-3,5,-1,-4,3,35,-7,-12,-16,-10
-5,-7,-2,5,-2,-4,3,35,-7,-12,-16,-10
-6,-7,-1,5,-2,-4,3,35,-6,-12,-16,-9
-5,-7,-2,5,-2,-4,3,35,-6,-11,-16,-9
-5,-7,-3,5,-1,-5,3,35,-6,-11,-16,-9
-3,-8,-5,5,0,-6,3,35,-7,-11,-17,-10
-2,-8,-6,5,2,-6,2,34,-7,-11,-17,-10
-1,-8,-7,4,3,-7,2,34,-7,-11,-18,-11
0,-8,-8,4,4,-8,2,33,-8,-12,-18,-11
0,-8,-9,3,5,-9,2,33,-8,-12,-18,-11
-1,-8,-8,4,3,-8,2,33,-8,-12,-17,-10
-3,-8,-5,5,1,-7,3,34,-7,-10,-16,-9
-4,-8,-3,5,-1,-6,4,35,-6,-9,-15,-8
-5,-8,-2,6,-2,-5,4,35,-6,-9,-15,-8
-5,-9,-3,6,-1,-5,4,35,-6,-9,-15,-8
-3,-9,-4,5,0,-6,4,35,-6,-10,-16,-8
-2,-9,-7,5,2,-7,3,34,-7,-11,-17,-9
0,-10,-9,4,4,-8,3,33,-8,-11,-17,-10
0,-9,-10,4,5,-9,2,33,-8,-11,-18,-11
-1,-9,-8,4,3,-8,3,33,-8,-10,-17,-10
-3,-9,-5,5,0,-6,3,34,-7,-9,-15,-9
-5,-9,-3,5,-1,-6,4,34,-7,-9,-15,-8
-5,-9,-3,5,-1,-6,4,34,-7,-9,-14,-8
-4,-9,-4,5,0,-6,4,34,-7,-9,-14,-8
-4,-9,-4,5,0,-6,5,34,-7,-9,-14,-8
-4,-9,-4,6,0,-6,5,34,-7,-9,-14,-8
-4,-9,-4,6,0,-7,5,33,-6,-9,-14,-8
-4,-8,-5,6,0,-7,4,33,-6,-9,-14,-8
-3,-8,-5,6,0,-7,4,32,-6,-9,-14,-8
-3,-9,-5,6,1,-8,3,32,-6,-9,-15,-9
-3,-10,-6,5,1,-8,3,31,-7,-9,-15,-9
-2,-10,-7,5,3,-8,3,31,-7,-9,-16,-9
0,-10,-9,4,4,-9,3,30,-7,-9,-16,-9
0,-10,-11,4,5,-10,2,30,-7,-9,-17,-10
0,-10,-10,5,5,-9,3,29,-7,-9,-17,-10
-3,-10,-8,6,2,-8,4,29,-7,-9,-16,-9
-5,-10,-5,7,0,-7,4,29,-7,-9,-16,-8
-5,-10,-4,7,0,-7,4,29,-8,-9,-16,-8
-5,-10,-4,6,0,-7,4,29,-8,-9,-16,-8
-5,-9,-4,6,0,-7,4,29,-7,-9,-16,-8
-4,-9,-5,6,0,-7,4,29,-7,-8,-15,-8
-3,-9,-6,6,1,-7,4,29,-7,-8,-15,-8
-3,-9,-7,6,2,-8,4,29,-7,-7,-15,-8
-3,-9,-6,6,1,-7,5,29,-7,-7,-14,-8
-3,-9,-6,5,1,-7,5,29,-7,-7,-14,-8
-1,-9,-7,4,3,-8,4,28,-7,-8,-15,-8
0,-10,-8,3,4,-9,4,28,-8,-8,-15,-9
0,-9,-8,3,4,-9,4,28,-7,-8,-14,-9
-2,-8,-5,4,2,-6,5,29,-5,-6,-12,-7
-4,-6,-2,4,-1,-4,7,30,-3,-4,-11,-5
-4,-5,0,4,-2,-2,7,30,-2,-3,-10,-4
-4,-4,0,3,-2,-1,8,29,-1,-3,-9,-4
-3,-4,0,3,-1,-1,8,28,-1,-3,-9,-4
-3,-4,0,3,0,-2,8,28,-1,-3,-9,-5
-3,-4,0,3,0,-2,8,28,-1,-3,-9,-5
-3,-3,0,3,-1,-1,9,29,-1,-3,-8,-5
-4,-2,1,3,-2,0,10,30,0,-2,-7,-4
-4,-1,2,2,-3,0,11,32,2,-1,-6,-3
-4,0,3,2,-3,1,12,33,3,0,-5,-2
-3,0,3,2,-3,1,12,35,4,0,-4,-2
-3,-1,2,2,-3,1,13,36,4,0,-5,-2
-2,-2,0,2,-1,0,13,37,4,0,-5,-3
-1,-2,-1,2,0,-1,13,37,5,0,-6,-3
-1,-3,-1,2,0,-2,13,38,5,0,-6,-4
-2,-4,-2,2,0,-3,14,39,5,0,-6,-4
-2,-4,-2,3,0,-3,14,40,5,0,-6,-4
-1,-5,-3,3,1,-4,14,40,4,-1,-7,-4
1,-7,-7,3,4,-6,12,39,2,-3,-9,-6
4,-8,-11,2,8,-9,10,37,0,-5,-11,-8
4,-8,-12,1,8,-9,8,36,0,-6,-11,-8
1,-7,-7,2,5,-7,8,36,1,-4,-8,-5
-3,-6,-2,4,0,-4,9,37,2,-1,-6,-2
-5,-6,0,5,-2,-3,9,38,3,0,-4,0
-5,-6,1,5,-3,-3,8,38,3,0,-4,0
-5,-6,0,5,-2,-3,7,37,2,-1,-3,0
-4,-5,0,4,-1,-3,7,37,1,-1,-3,0
-3,-5,-1,3,0,-3,6,36,0,-2,-4,0
-2,-5,-2,3,1,-3,6,36,0,-2,-4,0
-1,-5,-3,2,1,-4,6,36,-1,-3,-4,-1
0,-5,-4,2,2,-5,5,35,-2,-5,-5,-1
1,-6,-6,1,4,-7,5,34,-4,-6,-7,-2
2,-8,-9,2,6,-9,4,33,-5,-7,-8,-3
2,-9,-12,2,7,-11,3,33,-7,-8,-9,-4
1,-10,-12,4,6,-11,3,33,-7,-8,-9,-3
0,-11,-11,5,5,-11,3,34,-8,-8,-8,-3
0,-12,-11,6,5,-11,3,33,-8,-8,-8,-3
1,-12,-12,5,6,-11,3,33,-9,-9,-8,-3
2,-12,-13,5,8,-12,2,32,-10,-10,-9,-4
3,-12,-14,4,9,-12,2,32,-11,-11,-10,-6
4,-11,-15,3,10,-13,1,31,-11,-11,-10,-7
5,-10,-15,2,10,-13,1,31,-12,-12,-10,-7
4,-9,-13,2,8,-11,1,32,-12,-12,-9,-7
1,-9,-10,3,5,-9,2,33,-11,-11,-8,-6
-1,-9,-7,4,3,-8,2,33,-11,-11,-8,-6
-1,-9,-6,4,2,-7,3,34,-11,-11,-8,-6
-1,-9,-6,4,2,-7,3,34,-11,-11,-8,-7
-2,-9,-6,5,1,-6,3,34,-11,-11,-8,-7
-4,-9,-5,6,0,-6,3,33,-11,-11,-8,-7
-4,-9,-4,6,0,-6,3,32,-11,-11,-9,-7
-4,-10,-5,6,0,-7,3,31,-11,-12,-10,-8
-2,-10,-7,6,1,-8,2,29,-12,-13,-11,-8
-1,-10,-8,5,3,-9,2,28,-13,-14,-11,-9
0,-10,-8,5,4,-9,1,27,-13,-14,-11,-9
-1,-10,-8,5,3,-9,1,27,-13,-14,-11,-9
-1,-10,-8,5,3,-9,1,26,-13,-14,-12,-10
0,-11,-10,5,5,-11,1,25,-14,-15,-13,-11
0,-11,-11,5,5,-11,0,24,-14,-16,-13,-12
-2,-10,-8,6,3,-10,1,25,-13,-15,-12,-11
-4,-10,-5,7,0,-7,2,26,-11,-14,-11,-9
-6,-10,-3,7,-1,-6,2,26,-11,-13,-11,-8
-6,-10,-3,8,-1,-6,2,25,-11,-13,-11,-8
-6,-11,-4,8,-1,-6,2,24,-12,-13,-11,-9
-6,-11,-4,7,-1,-6,3,23,-12,-13,-11,-9
-5,-10,-5,7,0,-6,3,23,-12,-13,-11,-10
-4,-10,-6,6,0,-7,3,22,-12,-14,-11,-10
-2,-9,-7,5,2,-8,3,21,-12,-14,-11,-10
-1,-9,-8,5,3,-9,3,20,-12,-14,-11,-10
-2,-10,-7,5,2,-9,3,20,-11,-14,-11,-10
-4,-10,-6,6,1,-9,4,20,-11,-14,-11,-10
-4,-10,-6,6,0,-8,5,20,-10,-13,-11,-10
-4,-10,-5,6,0,-8,6,20,-9,-12,-11,-10
-5,-9,-4,6,0,-7,7,21,-7,-11,-10,-10
-5,-8,-3,6,-1,-5,8,21,-5,-9,-9,-10
-5,-7,-2,6,-2,-4,8,20,-4,-7,-7,-9
-5,-5,0,5,-3,-3,8,19,-2,-3,-2,-7
-5,-4,1,4,-4,-1,6,17,0,2,4,-2
-4,-2,3,3,-4,0,5,15,1,9,13,4
-3,0,4,1,-4,2,4,14,3,19,26,13
-1,4,5,-1,-4,4,1,11,4,31,42,26
2,9,6,-6,-2,7,-4,4,4,44,63,43
6,14,8,-11,-1,11,-12,-4,1,58,87,63
9,19,9,-14,0,14,-20,-15,-3,72,114,88
12,22,9,-17,0,16,-28,-28,-11,84,142,114
15,24,9,-20,2,17,-38,-43,-24,89,167,140
19,29,11,-24,4,20,-46,-58,-39,88,188,161
21,37,16,-30,2,27,-52,-73,-53,82,202,178
23,46,24,-35,-1,35,-55,-86,-66,71,209,190
24,53,29,-39,-3,41,-56,-94,-76,56,208,194
24,50,27,-38,-2,39,-55,-96,-82,40,195,187
22,40,18,-32,1,29,-53,-95,-87,19,167,165
21,28,7,-24,6,18,-50,-94,-93,-6,130,133
19,17,-1,-18,9,8,-47,-95,-101,-33,88,97
14,8,-5,-11,8,2,-44,-98,-112,-63,40,58
7,3,-3,-5,4,1,-42,-102,-124,-93,-8,21
1,0,0,-1,0,1,-43,-109,-136,-118,-48,-8
-3,0,2,0,-2,1,-45,-115,-147,-135,-72,-27
-7,0,7,2,-7,4,-46,-119,-154,-143,-85,-37
-11,2,13,3,-12,8,-45,-119,-156,-146,-91,-43
-13,3,17,4,-15,11,-43,-116,-155,-145,-94,-48
-14,2,17,5,-16,11,-40,-111,-151,-142,-95,-52
-14,-1,14,6,-15,7,-37,-103,-146,-136,-95,-54
-13,-6,8,8,-11,1,-32,-93,-138,-129,-94,-56
-12,-13,0,11,-5,-5,-28,-81,-130,-121,-91,-57
-10,-20,-9,13,0,-14,-23,-69,-121,-112,-87,-57
-9,-25,-17,15,5,-21,-18,-57,-110,-102,-81,-56
-8,-29,-21,17,6,-25,-16,-49,-100,-92,-75,-53
-9,-31,-22,19,6,-26,-15,-46,-90,-83,-68,-48
-9,-32,-22,20,6,-27,-15,-44,-81,-75,-61,-43
-8,-31,-22,19,6,-27,-14,-41,-73,-67,-54,-39
-7,-30,-22,18,6,-26,-11,-36,-64,-59,-48,-35
-7,-29,-22,17,7,-25,-8,-32,-56,-51,-43,-32
-6,-28,-21,16,7,-24,-6,-28,-49,-44,-38,-30
-7,-26,-19,15,6,-22,-3,-24,-41,-37,-33,-27
-7,-23,-16,14,5,-19,-1,-21,-34,-32,-28,-25
-5,-21,-15,12,5,-18,0,-19,-28,-27,-24,-23
-4,-18,-14,11,5,-16,0,-17,-23,-23,-21,-21
-3,-16,-12,9,4,-14,1,-15,-18,-20,-18,-19
-3,-14,-10,8,3,-12,2,-13,-15,-17,-16,-17
-3,-13,-8,7,3,-11,3,-12,-13,-14,-14,-16
-3,-11,-8,6,3,-9,4,-11,-11,-11,-13,-15
-3,-10,-7,6,2,-8,4,-11,-9,-9,-11,-13
-4,-8,-4,5,1,-6,5,-10,-6,-8,-9,-11
-4,-7,-2,5,0,-4,6,-9,-4,-6,-6,-10
-5,-6,0,5,-2,-2,6,-8,-2,-5,-5,-8
-6,-5,2,5,-3,-1,6,-7,0,-4,-4,-8
-6,-4,3,5,-4,0,7,-6,0,-3,-3,-7
-6,-3,3,5,-5,0,7,-6,0,-2,-3,-7
-6,-3,3,4,-5,0,7,-5,1,-1,-2,-7
-5,-2,2,4,-4,0,7,-5,1,-1,-2,-7
-4,-2,0,3,-2,0,6,-6,1,-1,-2,-7
-3,-3,0,3,-1,-1,6,-6,1,-2,-2,-7
-2,-3,-1,2,0,-2,5,-7,1,-2,-2,-7
0,-3,-3,1,1,-2,5,-7,0,-2,-2,-7
1,-3,-4,0,2,-3,5,-7,0,-2,-2,-7
2,-3,-4,0,3,-3,5,-7,0,-2,-2,-7
1,-2,-3,0,2,-2,5,-6,1,-1,-1,-5
-1,-2,-1,1,0,-1,5,-6,2,0,1,-3
-4,-2,1,3,-3,0,6,-5,4,2,3,-1
-7,-2,4,4,-5,1,7,-4,6,3,4,0
-8,-1,5,4,-6,2,8,-3,6,4,5,1
-7,-1,5,4,-6,3,8,-3,6,5,5,0
-5,-1,5,3,-5,3,7,-3,7,5,5,0
-3,-1,3,2,-3,2,7,-3,7,5,4,-1
0,-1,0,1,0,0,6,-4,6,4,3,-3
2,-2,-4,0,3,-2,5,-5,5,4,2,-4
2,-2,-5,0,4,-4,5,-5,5,4,2,-3
0,-2,-3,1,2,-3,6,-4,7,6,3,-2
-2,-1,0,1,-1,-1,7,-3,8,7,5,0
-4,-1,2,2,-3,0,7,-2,9,8,6,0
-5,-1,4,2,-5,2,7,-1,10,9,6,0
-5,0,5,2,-5,3,7,-1,11,10,7,0
-5,0,5,2,-5,3,8,0,11,10,8,0
-6,0,6,3,-6,3,8,0,11,11,8,1
-6,0,5,4,-6,2,8,0,11,12,9,1
-4,0,3,3,-4,1,8,0,12,13,10,1
-1,0,0,1,0,0,6,0,12,13,10,1
1,0,-2,0,1,-1,6,0,12,13,10,0
0,0,-1,0,1,-1,6,0,13,15,11,2
-1,0,1,1,-1,0,7,1,14,17,13,4
-3,-1,2,2,-3,1,7,2,15,18,14,5
-3,-1,2,2,-2,0,7,2,15,18,14,5
-1,-1,0,1,0,0,7,1,15,19,14,4
0,0,-1,0,1,0,6,1,15,19,14,4
1,0,-1,-1,1,0,6,2,16,20,15,4
0,1,0,-1,0,1,7,3,17,22,16,5
0,2,2,-1,-1,2,7,4,17,23,16,6
0,2,1,-1,0,2,6,4,17,24,17,6
0,2,1,-2,0,1,6,4,17,24,18,6
0,2,1,-1,0,1,6,4,18,25,19,7
0,2,2,-1,-1,2,7,5,19,27,21,8
0,2,1,-1,0,2,7,5,19,28,22,8
2,2,0,-2,1,1,6,6,20,29,22,8
3,2,-2,-2,2,0,5,6,20,29,23,8
4,2,-2,-3,3,0,5,6,20,30,23,8
4,3,-2,-3,3,0,5,7,21,32,24,9
5,3,-2,-4,3,1,5,8,23,34,26,9
4,3,-1,-4,3,1,5,9,24,36,27,10
3,3,0,-4,2,1,6,10,25,38,29,11
1,3,1,-3,0,2,6,11,26,40,31,12
1,4,2,-3,0,3,7,12,28,42,33,13
1,4,2,-3,0,3,7,13,30,45,35,14
0,4,3,-2,-1,4,7,13,31,47,37,15
0,4,4,-3,-2,4,7,14,33,49,39,16
0,5,4,-4,-1,5,6,14,34,51,41,17
1,6,4,-4,-1,5,6,15,35,53,43,18
2,6,4,-4,0,5,6,16,36,57,45,20
3,6,3,-5,0,5,6,17,38,59,48,21
6,6,0,-6,3,3,5,17,39,61,49,21
9,6,-3,-7,6,1,4,17,39,63,50,21
9,6,-4,-7,6,1,4,18,41,65,52,22
5,6,0,-6,3,3,5,20,43,69,56,25
2,7,4,-5,-1,6,6,22,46,73,60,28
2,8,6,-6,-2,7,6,23,47,75,62,30
3,9,6,-7,-2,8,6,23,48,78,65,32
4,10,6,-8,-1,9,5,23,49,81,67,33
6,11,5,-9,0,9,5,23,51,84,69,34
6,11,5,-9,0,9,6,24,53,87,72,36
5,12,6,-9,0,9,6,25,55,90,75,38
5,12,7,-9,-1,10,6,26,56,92,77,40
5,13,7,-9,-1,10,6,26,57,94,79,42
6,13,7,-10,0,10,5,26,58,95,81,43
7,14,7,-11,0,10,5,26,58,97,83,43
8,14,7,-12,0,11,5,26,59,98,84,44
8,14,7,-12,0,11,5,26,60,99,85,45
8,14,6,-12,1,11,5,26,60,100,85,45
10,14,4,-13,3,10,4,26,60,100,85,45
12,14,2,-13,5,8,3,26,60,100,84,45
12,14,1,-14,5,8,3,26,60,100,84,45
11,14,2,-14,4,8,3,26,60,100,84,45
10,13,3,-13,3,9,3,26,59,99,84,45
10,13,3,-13,3,9,3,25,58,98,83,44
11,14,3,-14,4,9,3,25,57,97,82,43
12,15,4,-14,4,10,3,25,56,96,81,43
10,16,7,-13,1,11,3,25,56,95,80,44
7,17,10,-12,-1,13,3,26,56,94,80,45
7,18,11,-12,-2,14,3,25,55,93,79,45
8,17,9,-12,0,13,2,24,53,90,76,43
8,16,8,-12,0,12,2,23,51,87,74,41
9,16,7,-12,1,11,2,23,49,84,71,39
9,15,6,-12,2,11,2,22,47,81,68,37
8,15,6,-12,1,11,1,22,46,78,66,36
8,14,6,-11,1,11,1,22,45,75,64,35
8,14,6,-11,1,10,1,21,44,72,62,34
9,14,5,-12,1,10,0,20,42,69,59,32
8,14,5,-11,1,10,0,19,40,65,55,30
8,14,5,-11,1,10,0,18,38,61,52,28
6,13,7,-10,0,10,1,17,36,58,49,26
3,13,9,-9,-3,11,2,17,34,56,48,26
1,13,12,-7,-5,12,2,17,33,53,46,26
0,12,12,-6,-6,12,2,17,32,50,43,25
1,12,11,-6,-5,12,2,16,30,46,40,23
2,11,9,-7,-3,10,1,14,27,42,36,20
4,11,7,-7,-1,9,1,13,25,37,32,18
4,10,5,-7,0,8,0,12,22,33,29,15
3,9,5,-6,0,7,1,11,20,30,26,14
1,8,6,-5,-2,7,1,11,18,27,24,13
0,7,7,-4,-3,7,1,11,17,26,23,12
0,7,7,-4,-3,7,2,11,16,24,21,11
0,7,7,-3,-3,7,2,10,14,21,18,9
0,6,7,-3,-3,6,2,8,12,18,16,7
1,6,5,-3,-2,5,2,7,10,14,13,5
3,6,2,-4,0,4,1,5,8,11,10,3
4,5,1,-4,1,3,1,4,5,8,8,1
3,4,1,-3,1,2,1,4,4,7,7,1
2,3,1,-3,1,1,1,4,2,5,5,0
2,2,0,-2,1,0,1,3,1,4,4,-1
1,1,-1,-1,1,0,1,3,0,3,3,-1
1,0,0,-1,0,0,1,2,0,2,2,-2
1,0,-1,-1,0,0,1,2,-1,0,1,-2
0,0,-1,0,0,0,1,2,-2,-1,0,-2
0,0,-1,0,0,0,2,2,-3,-2,0,-2
0,-1,-1,1,0,-1,2,1,-4,-2,-1,-3
0,-1,-1,1,0,-1,2,0,-5,-3,-2,-3
1,-1,-2,0,1,-2,1,0,-6,-4,-3,-4
1,-1,-2,0,1,-2,1,-1,-7,-4,-4,-4
1,0,-1,0,1,-1,1,-1,-8,-5,-3,-4
0,0,0,0,0,0,1,-1,-8,-5,-3,-4
0,-1,-1,0,0,-1,1,-1,-8,-5,-3,-4
1,-1,-3,0,2,-2,1,-2,-9,-7,-4,-5
2,-1,-4,0,3,-2,1,-2,-10,-7,-5,-5
2,-1,-3,0,2,-2,1,-1,-10,-7,-5,-4
1,-1,-2,0,1,-1,1,-1,-9,-7,-5,-4
0,-1,0,0,0,-1,1,-2,-9,-6,-4,-3
0,-1,0,0,-1,0,1,-2,-8,-6,-4,-3
-1,-1,1,0,-1,0,1,-2,-8,-5,-4,-2
-1,-1,1,0,-2,0,1,-2,-8,-5,-4,-2
-1,-1,1,0,-1,0,1,-2,-8,-6,-4,-2
0,0,0,0,0,0,1,-2,-9,-6,-4,-3
1,0,-2,0,1,-1,0,-2,-9,-7,-5,-4
3,0,-4,-1,3,-2,0,-2,-9,-7,-5,-5
5,0,-5,-2,5,-3,-1,-2,-10,-7,-6,-5
6,0,-6,-3,6,-3,-1,-2,-10,-7,-6,-6
5,-1,-6,-3,6,-3,-1,-1,-9,-7,-5,-5
4,-1,-5,-2,4,-3,-1,-1,-9,-6,-5,-4
2,-1,-3,-1,2,-2,0,0,-8,-5,-4,-3
0,-1,0,0,0,-1,0,0,-7,-3,-2,-2
-3,-1,2,2,-3,0,1,2,-6,-2,-1,0
-4,-1,2,2,-3,0,1,3,-5,-1,0,0
-3,-1,2,2,-2,0,0,3,-4,0,0,0
-1,0,1,1,-1,0,0,4,-4,0,0,0
0,0,0,0,0,0,0,4,-5,-1,0,-1
2,0,-2,-1,2,-1,-1,3,-6,-2,-2,-3
4,0,-4,-2,4,-2,-2,2,-7,-3,-3,-5
3,1,-2,-2,3,0,-2,2,-6,-3,-2,-5
1,3,2,-2,0,2,-1,4,-5,-1,0,-3
0,3,4,-2,-2,3,-1,5,-4,0,1,-1
0,3,3,-2,-1,3,-2,5,-4,0,1,0
0,2,2,-2,-1,3,-2,5,-3,1,2,0
-1,1,3,0,-1,3,-1,5,-3,1,2,1
-1,1,3,0,-2,3,0,5,-2,2,2,1
-1,1,3,0,-2,3,0,5,-2,2,2,2
0,2,3,-1,-1,3,0,5,-2,2,2,2
0,2,2,-1,-1,2,-1,5,-2,2,2,1
2,2,0,-2,0,1,-2,5,-3,1,2,1
3,1,-2,-3,2,0,-3,4,-3,1,1,0
4,1,-3,-3,4,0,-3,4,-3,1,2,0
3,1,-1,-3,3,0,-2,4,-2,2,2,0
2,2,0,-2,1,1,-2,5,-2,2,3,1
2,2,1,-3,0,1,-2,5,-2,2,3,1
2,3,1,-3,0,2,-2,5,-3,1,2,0
2,3,1,-3,0,2,-2,5,-4,1,2,0
2,3,2,-3,0,2,-2,5,-4,1,2,0
1,3,2,-3,0,2,-1,5,-4,1,3,1
2,3,1,-3,0,2,-2,4,-4,1,3,2
2,3,1,-3,0,1,-3,4,-4,1,4,2
2,3,1,-3,0,2,-3,4,-4,2,4,2
3,3,0,-4,1,2,-3,3,-4,2,4,2
5,3,-1,-5,3,1,-4,1,-5,1,3,1
6,3,-2,-5,4,0,-4,1,-6,0,2,1
4,3,0,-4,2,2,-4,1,-5,1,3,2
1,3,3,-3,-1,3,-3,2,-4,2,4,3
0,3,4,-2,-2,3,-2,3,-3,2,5,4
0,2,3,-1,-2,3,-2,2,-3,1,4,3
0,2,2,-1,-1,2,-3,2,-4,1,4,3
2,2,0,-2,1,1,-4,1,-5,0,3,1
4,2,-1,-3,3,1,-5,0,-6,0,2,0
4,3,0,-4,2,2,-6,0,-6,0,3,1
3,4,2,-4,0,4,-6,0,-5,0,4,2
1,5,5,-3,-2,5,-6,0,-5,1,4,3
1,5,5,-3,-2,5,-7,0,-6,0,4,3
0,4,4,-3,-2,4,-7,-1,-6,0,4,3
0,4,5,-2,-3,5,-7,-1,-6,0,4,3
0,4,5,-2,-3,5,-7,-1,-6,0,4,3
0,4,4,-2,-2,4,-8,-1,-6,0,3,3
3,4,1,-3,0,3,-9,-2,-6,0,2,3
5,3,-2,-4,3,1,-10,-3,-7,-1,1,2
6,3,-3,-5,4,0,-11,-4,-8,-2,0,0
5,3,-2,-4,3,0,-11,-4,-8,-3,0,0
4,4,0,-4,1,2,-11,-4,-7,-2,0,1
2,4,1,-3,0,3,-10,-3,-7,-2,1,2
3,4,0,-3,0,2,-10,-4,-7,-2,0,1
4,3,-2,-3,2,0,-11,-4,-8,-3,0,0
5,2,-3,-3,4,0,-11,-5,-9,-3,-1,-1
4,2,-2,-3,2,0,-9,-5,-9,-3,0,0
2,2,0,-2,0,1,-8,-4,-8,-2,1,1
2,2,0,-2,0,1,-9,-4,-6,-1,1,2
2,1,0,-2,0,1,-9,-4,-5,-1,1,2
1,1,0,-1,0,1,-9,-3,-5,0,2,2
1,2,1,-1,0,1,-8,-3,-5,0,2,3
1,3,2,-2,-1,2,-8,-2,-6,0,3,3
1,3,3,-2,-1,3,-8,-2,-5,0,3,4
1,3,2,-2,-1,3,-8,-2,-5,1,4,4
2,3,1,-2,0,3,-8,-2,-5,0,3,3
3,3,1,-2,0,2,-9,-2,-7,-1,3,3
3,2,0,-2,1,1,-9,-3,-8,-2,2,2
5,1,-3,-3,4,-1,-10,-3,-9,-3,1,0
7,0,-6,-4,7,-3,-10,-4,-10,-4,0,-1
8,0,-7,-4,8,-3,-10,-4,-10,-5,0,-1
6,1,-5,-4,6,-2,-10,-4,-9,-4,0,-1
3,1,-1,-2,2,0,-10,-3,-9,-4,0,-1
1,1,1,-1,0,1,-9,-3,-9,-4,1,-1
1,1,1,-2,0,1,-9,-3,-9,-4,1,-1
2,2,0,-2,0,1,-10,-3,-8,-3,2,0
2,3,0,-3,1,2,-10,-3,-7,-2,4,0
3,3,0,-4,1,2,-10,-3,-7,-2,5,1
3,3,0,-4,2,1,-10,-2,-6,-1,5,1
3,2,-1,-3,2,0,-10,-2,-6,-1,5,1
2,0,-2,-2,3,0,-10,-3,-7,-2,4,1
3,-1,-4,-2,4,-2,-10,-3,-7,-2,3,0
5,-1,-6,-3,6,-3,-10,-3,-7,-2,3,0
5,-1,-6,-3,5,-3,-10,-3,-6,-2,4,0
4,0,-4,-2,3,-1,-9,-2,-6,-2,4,0
2,1,-1,-2,2,0,-9,-2,-6,-2,5,0
1,1,-1,-2,1,0,-9,-2,-6,-2,5,0
2,1,-1,-2,2,0,-9,-3,-6,-2,4,0
2,1,-2,-2,2,0,-9,-3,-6,-2,4,-1
2,1,-1,-2,2,0,-8,-3,-5,-2,4,0
2,1,-1,-2,1,0,-8,-2,-5,-1,4,0
3,1,-1,-2,2,0,-7,-3,-5,-2,4,0
5,1,-3,-4,3,0,-8,-3,-6,-2,4,-1
6,2,-3,-5,5,0,-9,-3,-6,-2,3,-2
6,4,-2,-6,4,1,-9,-3,-5,-1,3,-2
4,5,0,-5,1,2,-8,-2,-4,0,4,-1
3,6,2,-5,0,4,-7,-1,-2,0,5,0
2,6,4,-5,-1,5,-7,0,-1,2,6,1
1,6,5,-5,-2,5,-6,0,0,3,7,2
1,7,6,-5,-3,6,-5,0,0,3,8,2
1,7,7,-5,-3,7,-5,0,0,3,8,2
2,7,6,-5,-2,7,-5,0,0,3,8,2
4,7,3,-6,0,5,-5,0,0,2,8,1
5,7,2,-6,1,5,-5,0,0,2,7,0
5,8,2,-7,1,5,-5,0,0,1,7,0
4,10,5,-7,0,7,-5,0,0,2,8,0
3,11,7,-7,-2,8,-4,0,1,3,8,0
4,11,7,-8,-1,9,-5,0,1,3,7,0
6,10,5,-9,0,8,-5,0,0,2,6,-2
7,10,2,-9,2,7,-5,0,0,2,5,-2
8,10,1,-10,3,6,-5,-1,0,2,5,-2
7,11,3,-10,1,8,-5,-1,1,2,6,-1
3,11,7,-9,-2,10,-5,-1,1,3,7,0
1,11,9,-7,-4,10,-5,-1,1,3,8,1
1,10,9,-7,-4,9,-6,-3,0,3,7,0
2,9,7,-7,-3,8,-8,-4,0,2,7,0
3,9,7,-6,-2,8,-8,-4,0,3,7,1
2,9,7,-6,-3,8,-8,-3,0,4,8,2
2,9,7,-6,-2,8,-8,-3,0,4,8,2
3,9,5,-6,-1,7,-8,-3,0,4,8,2
4,10,5,-7,-1,7,-8,-3,1,5,8,3
4,10,6,-8,0,8,-8,-2,1,5,8,3
5,10,6,-8,0,8,-9,-2,1,5,8,3
6,10,5,-8,0,7,-9,-2,0,4,7,2
7,10,4,-8,1,7,-9,-2,0,4,8,3
7,10,4,-8,1,7,-9,-2,0,5,8,3
6,9,4,-8,0,7,-9,-2,0,5,9,4
5,9,4,-7,0,7,-10,-2,-1,5,9,4
4,8,3,-7,0,6,-11,-2,-2,5,9,4
5,6,2,-6,1,4,-11,-3,-3,4,8,3
6,5,0,-6,2,3,-12,-4,-4,3,8,2
7,4,-2,-6,4,1,-12,-5,-5,2,7,2
8,4,-3,-7,5,1,-13,-5,-5,2,7,2
10,5,-4,-7,7,0,-14,-5,-5,2,7,2
10,5,-4,-7,7,0,-15,-5,-6,2,7,2
7,4,-3,-6,5,1,-14,-4,-5,2,7,2
5,4,-1,-5,3,2,-12,-3,-4,3,7,2
3,5,1,-5,1,3,-12,-2,-3,4,7,2
2,6,2,-5,0,4,-12,-2,-3,4,7,2
3,5,2,-5,0,4,-12,-2,-3,3,7,1
5,4,-1,-5,3,2,-12,-2,-3,3,6,0
6,2,-4,-5,5,0,-12,-2,-4,2,6,0
5,0,-4,-4,4,-1,-12,-2,-4,2,6,0
4,0,-3,-3,3,-1,-11,-1,-4,2,6,0
4,0,-4,-3,4,-1,-11,-2,-5,1,5,0
7,0,-7,-4,7,-3,-13,-3,-6,0,3,-2
9,-1,-10,-5,10,-5,-14,-4,-8,-2,1,-4
8,-2,-10,-4,9,-5,-13,-4,-8,-2,0,-5
5,-2,-7,-2,6,-4,-13,-3,-7,-1,1,-4
3,-1,-4,-1,3,-2,-12,-2,-6,0,3,-2
2,-1,-2,-1,2,-1,-12,-1,-5,1,4,-1
2,-1,-2,-1,1,-1,-12,0,-5,1,5,0
2,-1,-3,-1,2,-2,-12,0,-5,1,5,0
2,-2,-5,-1,3,-4,-12,-1,-5,1,4,0
3,-3,-8,-1,5,-6,-12,-1,-4,1,4,-1
4,-4,-8,-1,6,-6,-11,-1,-4,1,3,-2
5,-3,-9,-1,6,-6,-12,-1,-5,0,2,-4
7,-3,-10,-2,8,-6,-12,-2,-7,-1,0,-6
8,-2,-10,-3,8,-6,-12,-2,-7,-1,0,-7
7,-2,-8,-3,7,-4,-12,-2,-6,-1,0,-6
4,-1,-5,-2,5,-3,-12,-2,-6,0,0,-5
1,-1,-3,-1,2,-2,-11,-2,-5,0,1,-5
0,-1,-2,-1,2,-2,-11,-1,-5,0,1,-5
1,-1,-2,-1,2,-2,-11,-1,-5,0,1,-4
1,-1,-3,-1,3,-2,-10,-1,-5,0,1,-4
3,-2,-5,-1,4,-3,-9,-1,-5,0,1,-5
4,-2,-6,-1,5,-4,-9,-1,-4,0,0,-6
4,-3,-7,-1,6,-5,-9,0,-3,0,0,-6
4,-3,-7,-1,5,-5,-8,1,-2,1,0,-7
3,-2,-6,-1,5,-4,-7,2,0,2,0,-7
3,-1,-6,-2,5,-4,-7,2,2,3,1,-7
3,0,-5,-2,4,-3,-7,2,3,4,2,-8
1,1,-2,-2,2,0,-6,2,6,8,6,-6
1,3,1,-3,0,2,-6,3,9,14,11,-3
1,5,2,-4,-1,4,-8,3,12,21,18,1
3,7,3,-5,0,5,-9,4,15,29,27,7
6,11,4,-9,0,7,-12,3,18,40,39,15
10,16,6,-13,1,10,-17,0,20,52,54,26
13,22,9,-18,2,15,-24,-5,21,67,73,42
15,27,11,-21,2,19,-33,-13,19,83,96,61
17,31,13,-24,2,21,-41,-22,14,98,121,82
19,34,14,-27,3,23,-50,-34,2,107,143,102
22,39,16,-30,3,27,-59,-48,-13,109,160,119
25,46,21,-35,2,33,-66,-62,-33,105,171,132
26,54,27,-40,0,40,-70,-76,-53,95,176,140
27,58,30,-43,-1,44,-70,-85,-70,82,173,142
26,53,26,-40,0,39,-65,-86,-80,67,161,136
25,42,16,-34,4,29,-58,-83,-87,48,139,121
22,31,8,-27,6,20,-53,-81,-94,23,108,98
19,23,4,-21,7,13,-50,-83,-103,-7,71,71
16,18,2,-17,7,10,-48,-87,-115,-40,29,41
13,15,2,-14,5,9,-50,-92,-127,-71,-11,11
10,14,4,-13,3,9,-53,-98,-139,-96,-42,-10
6,15,8,-11,0,11,-55,-102,-147,-109,-59,-22
1,16,15,-9,-7,15,-56,-102,-150,-114,-66,-28
-3,17,21,-7,-12,19,-56,-100,-149,-114,-70,-33
-5,18,23,-6,-14,20,-55,-95,-145,-113,-72,-38
-7,16,23,-5,-15,20,-52,-89,-140,-110,-73,-41
-7,13,20,-3,-13,16,-47,-80,-134,-105,-73,-44
-5,7,13,-1,-9,10,-42,-69,-126,-100,-72,-46
-4,1,6,1,-5,3,-37,-58,-118,-94,-71,-48
-4,-6,-2,4,0,-4,-30,-47,-109,-87,-68,-48
-2,-12,-10,7,4,-11,-23,-35,-99,-79,-64,-47
0,-18,-18,8,9,-18,-17,-25,-88,-71,-58,-44
2,-21,-23,9,12,-22,-16,-19,-79,-63,-52,-41
2,-23,-25,9,13,-24,-18,-17,-70,-56,-46,-37
2,-23,-25,10,13,-24,-20,-16,-63,-49,-41,-33
1,-23,-24,11,12,-24,-20,-14,-55,-43,-36,-29
0,-22,-21,11,11,-22,-19,-11,-47,-36,-31,-26
0,-20,-19,10,10,-20,-17,-10,-40,-30,-27,-23
0,-18,-18,8,9,-18,-16,-9,-34,-25,-24,-22
2,-15,-17,6,9,-16,-16,-9,-29,-21,-21,-20
3,-13,-18,4,10,-16,-15,-9,-23,-17,-18,-19
6,-12,-19,2,12,-16,-15,-9,-19,-15,-16,-18
9,-10,-20,0,14,-15,-14,-8,-15,-12,-13,-16
9,-7,-16,-1,12,-11,-13,-7,-10,-7,-10,-13
7,-4,-10,-1,8,-7,-11,-5,-5,-3,-6,-9
3,-3,-6,0,5,-5,-9,-4,-2,0,-3,-7
2,-3,-5,0,3,-4,-8,-3,-1,1,-2,-6
1,-2,-4,0,2,-3,-8,-3,0,2,-1,-5
3,-1,-5,-2,3,-2,-9,-3,2,2,-1,-5
6,0,-8,-3,7,-4,-10,-4,2,1,-3,-6
9,-1,-10,-4,9,-5,-10,-4,3,1,-4,-7
7,0,-7,-3,7,-4,-9,-2,5,3,-2,-5
3,0,-2,-2,2,0,-7,-1,8,6,0,-1
1,1,1,-2,0,1,-6,0,9,7,2,0
0,2,3,-2,-1,2,-6,0,10,8,3,2
-1,2,4,-1,-3,3,-5,1,11,9,4,2
-2,3,5,-1,-4,4,-5,1,12,9,4,2
0,4,4,-2,-3,4,-6,1,12,9,4,2
1,6,4,-4,-2,5,-7,1,12,9,4,3
2,6,4,-4,-2,5,-7,1,12,9,5,4
1,5,4,-3,-2,5,-7,2,13,10,6,5
1,3,3,-3,-1,3,-6,2,13,11,7,5
1,2,2,-2,0,2,-6,2,13,11,6,4
1,2,1,-2,0,1,-6,1,12,10,5,2
2,2,0,-3,0,1,-6,1,12,10,5,2
2,3,0,-3,0,2,-6,1,13,10,5,2
2,3,0,-3,1,2,-6,1,13,10,5,2
4,4,0,-4,2,2,-7,1,13,10,5,2
5,4,0,-5,3,2,-7,1,12,10,5,2
6,4,0,-6,3,2,-8,0,12,10,5,2
5,4,0,-5,2,2,-8,1,13,11,5,2
3,4,1,-5,1,2,-8,1,14,12,6,3
3,4,1,-4,1,2,-8,1,15,13,7,3
3,4,0,-4,2,1,-8,1,15,13,7,2
5,4,-1,-5,3,1,-9,0,15,13,7,2
4,4,0,-4,2,1,-8,1,16,14,8,3
1,5,3,-3,-1,4,-6,3,18,16,9,5
0,5,6,-3,-3,6,-6,4,19,18,10,6
0,6,7,-3,-3,6,-6,4,19,18,10,6
0,6,7,-3,-3,6,-6,4,19,18,10,6
0,6,7,-3,-3,6,-6,4,19,19,10,6
0,6,6,-3,-3,6,-6,4,20,19,10,6
1,6,5,-4,-2,5,-6,4,20,20,10,6
2,6,4,-4,-1,5,-7,4,20,20,10,6
3,6,4,-4,0,5,-7,4,20,20,10,5
2,6,4,-4,-1,5,-6,4,20,20,11,5
2,7,5,-5,-1,6,-6,5,21,21,11,6
1,8,6,-5,-2,7,-6,6,22,22,12,7
0,8,8,-5,-4,8,-6,7,23,23,13,8
0,9,8,-5,-4,8,-7,8,23,23,13,9
0,9,8,-5,-4,8,-7,9,24,24,14,10
-2,8,9,-4,-5,8,-6,10,25,25,16,11
-3,8,10,-3,-6,9,-5,11,26,27,17,12
-3,8,11,-2,-7,9,-4,11,28,28,19,13
-1,8,10,-3,-6,8,-5,12,28,29,19,13
1,8,7,-5,-3,7,-6,11,28,29,18,12
5,8,4,-7,0,6,-8,11,28,28,18,11
6,9,3,-8,2,6,-9,11,29,28,18,10
4,10,6,-8,0,8,-8,12,30,30,19,11
1,10,10,-6,-4,10,-7,13,32,32,22,13
-1,11,12,-5,-7,12,-6,14,34,34,24,15
-2,11,14,-5,-8,13,-6,15,35,36,25,16
-1,12,14,-6,-8,13,-6,16,36,37,26,17
0,13,12,-7,-6,13,-7,16,37,39,27,18
2,13,11,-8,-5,12,-8,16,38,40,28,18
3,12,10,-8,-3,11,-8,17,39,42,29,18
3,12,9,-9,-3,11,-9,18,40,43,30,18
3,12,9,-9,-3,10,-9,18,41,45,31,19
2,12,10,-8,-3,11,-8,19,42,47,33,20
0,13,13,-7,-6,12,-8,20,45,50,36,21
0,14,15,-7,-7,13,-8,21,47,53,38,23
0,14,14,-7,-7,14,-8,22,49,55,40,24
1,14,13,-8,-6,14,-8,22,51,58,41,25
1,14,13,-8,-6,14,-8,23,52,60,43,26
1,15,14,-9,-6,15,-8,24,54,63,46,27
2,17,14,-10,-6,16,-9,25,56,65,48,29
4,18,14,-12,-5,16,-9,25,58,68,50,30
5,19,14,-13,-5,16,-9,26,59,70,52,31
4,20,16,-13,-6,18,-9,26,62,74,54,33
4,21,18,-13,-7,19,-9,27,64,77,57,35
5,22,18,-14,-7,20,-10,27,66,79,59,36
5,23,18,-14,-7,20,-10,28,67,82,61,38
5,24,18,-14,-6,21,-11,28,68,84,63,39
4,24,19,-14,-7,21,-11,29,70,86,65,41
4,24,19,-14,-7,22,-11,29,71,88,67,42
4,24,19,-14,-7,22,-12,30,72,89,69,43
5,24,18,-15,-6,22,-12,30,73,91,70,43
6,25,19,-15,-6,22,-13,30,73,92,70,44
7,25,19,-16,-5,22,-13,30,74,93,71,44
7,26,19,-17,-5,22,-14,30,74,93,71,44
7,27,19,-17,-6,23,-14,30,74,93,71,43
6,27,21,-17,-7,24,-14,29,74,93,71,43
5,28,23,-17,-9,25,-14,30,75,94,72,44
4,29,24,-18,-10,26,-14,30,75,94,73,46
4,30,25,-18,-10,27,-14,30,75,94,73,47
5,29,24,-17,-9,26,-14,30,75,93,73,47
6,28,22,-17,-8,25,-14,29,74,91,72,47
7,28,21,-17,-7,25,-15,29,73,90,71,46
7,28,21,-17,-7,24,-15,29,73,89,70,45
8,28,20,-18,-6,24,-15,28,71,88,68,44
9,28,19,-18,-5,23,-15,27,69,85,66,43
8,28,21,-18,-6,24,-15,26,68,82,64,42
6,29,23,-18,-8,26,-15,26,66,80,62,41
5,29,24,-18,-9,27,-16,25,65,77,60,40
5,29,24,-18,-9,27,-16,25,63,74,57,38
5,29,24,-17,-9,26,-15,24,61,72,56,38
4,28,23,-16,-10,25,-14,24,60,69,54,37
3,26,22,-15,-9,24,-13,24,58,66,52,35
3,25,21,-14,-9,23,-13,23,55,62,50,34
4,25,20,-15,-8,22,-13,22,52,58,46,32
6,25,18,-16,-6,21,-14,20,49,53,42,29
8,25,17,-17,-5,21,-15,19,47,49,39,27
7,25,17,-16,-5,21,-15,18,45,46,36,26
5,24,18,-15,-7,21,-13,18,43,44,34,25
3,23,19,-13,-8,21,-12,18,42,41,32,24
2,22,19,-12,-8,20,-11,17,40,38,30,23
1,22,20,-11,-9,20,-10,17,38,35,28,21
1,21,19,-11,-8,20,-10,16,35,31,25,19
2,20,17,-11,-7,18,-11,15,32,26,21,16
2,19,16,-11,-6,17,-10,14,30,23,18,14
0,19,17,-10,-8,17,-9,14,28,20,16,13
-1,18,18,-9,-9,17,-8,13,26,18,14,12
-1,18,17,-9,-9,17,-8,12,24,16,13,11
-1,17,17,-9,-8,16,-8,11,22,13,11,10
-1,16,16,-8,-8,16,-7,11,20,11,9,9
-2,15,17,-7,-9,16,-7,10,18,9,8,8
-2,14,17,-7,-9,16,-6,10,16,6,6,7
-2,13,15,-7,-8,15,-6,9,14,4,3,6
-1,12,13,-6,-7,13,-6,8,11,1,0,3
0,11,12,-6,-6,12,-6,6,9,-1,-2,1
0,10,11,-5,-6,10,-6,5,8,-3,-3,0
-2,10,11,-4,-6,10,-5,4,7,-4,-4,0
-3,10,12,-3,-7,10,-4,4,6,-5,-4,0
-3,9,11,-3,-7,10,-4,4,5,-6,-5,-1
-3,9,11,-3,-7,10,-4,3,4,-8,-6,-2
-3,8,11,-3,-7,10,-4,3,3,-9,-7,-2
-4,8,12,-2,-8,10,-3,3,2,-11,-8,-3
-4,7,12,-2,-8,10,-3,2,1,-12,-9,-3
-3,7,11,-2,-6,9,-3,2,1,-12,-10,-4
-2,7,9,-2,-5,8,-3,1,0,-13,-10,-4
-1,7,7,-2,-3,7,-3,0,-1,-15,-11,-5
-1,6,7,-2,-3,6,-2,0,-1,-16,-12,-6
-2,6,7,-2,-4,6,-2,0,-2,-18,-12,-7
-1,6,7,-3,-3,6,-3,0,-3,-19,-13,-8
0,6,6,-3,-2,5,-3,0,-4,-20,-14,-8
-1,6,7,-3,-3,6,-3,0,-4,-20,-15,-8
-2,6,9,-2,-5,7,-3,0,-3,-20,-14,-7
-4,6,10,-1,-6,8,-2,0,-3,-19,-14,-7
-4,6,10,-1,-6,7,-2,0,-4,-20,-14,-7
-4,5,9,-1,-6,7,-2,0,-4,-20,-14,-7
-3,5,9,-1,-6,7,-2,0,-4,-21,-14,-7
-2,5,8,-1,-5,6,-3,0,-4,-22,-14,-8
-1,5,6,-2,-4,6,-3,-1,-5,-23,-16,-9
0,5,6,-3,-3,5,-4,-1,-6,-24,-16,-9
0,5,6,-3,-3,6,-4,-1,-5,-24,-17,-10
0,5,5,-3,-2,6,-4,-1,-5,-25,-17,-10
0,5,5,-3,-2,5,-5,-1,-6,-25,-18,-11
0,5,4,-3,-2,5,-5,-1,-6,-26,-18,-12
0,5,4,-3,-2,5,-5,-1,-6,-26,-19,-13
0,5,5,-3,-2,5,-5,0,-6,-27,-18,-12
-2,5,7,-2,-4,6,-4,0,-6,-26,-17,-11
-4,6,9,-1,-6,8,-3,0,-5,-24,-16,-11
-5,6,10,-1,-8,8,-3,1,-5,-22,-16,-11
-4,6,9,-1,-7,8,-3,1,-5,-22,-16,-11
-2,6,8,-2,-6,7,-3,1,-5,-22,-16,-12
-2,7,9,-2,-6,8,-3,1,-5,-21,-16,-12
-2,8,10,-2,-6,9,-3,2,-4,-20,-16,-11
-2,8,11,-2,-7,10,-3,2,-4,-19,-16,-11
-3,8,12,-2,-8,11,-3,2,-4,-19,-16,-11
-3,8,12,-2,-8,11,-3,2,-4,-20,-16,-11
-2,8,11,-3,-7,10,-3,1,-5,-21,-17,-12
-1,8,10,-4,-6,9,-3,1,-5,-21,-17,-12
-2,8,10,-3,-7,9,-3,1,-5,-21,-17,-12
-2,8,10,-3,-7,9,-3,1,-5,-21,-17,-13
-2,9,10,-3,-7,9,-3,1,-6,-21,-17,-13
-2,9,10,-4,-7,9,-2,1,-6,-21,-17,-13
-2,9,11,-4,-7,10,-2,1,-6,-22,-17,-13
-2,9,12,-4,-7,10,-1,2,-6,-22,-17,-13
-3,9,13,-3,-8,11,-1,2,-5,-22,-17,-13
-5,9,14,-3,-10,12,0,2,-5,-21,-16,-12
-5,10,15,-3,-10,12,0,3,-4,-21,-16,-11
-5,10,15,-3,-10,12,1,2,-4,-21,-16,-11
-5,10,15,-3,-10,12,1,2,-4,-22,-16,-11
-5,10,15,-3,-10,12,1,2,-4,-22,-16,-11
-4,10,14,-3,-9,12,1,2,-5,-22,-16,-12
-1,10,11,-5,-6,10,0,1,-6,-24,-17,-13
2,9,8,-6,-2,8,0,0,-7,-25,-19,-15
3,9,7,-7,-1,8,0,-1,-8,-26,-20,-16
0,9,9,-6,-3,9,0,0,-8,-26,-19,-14
-3,10,13,-4,-7,11,1,0,-7,-25,-17,-13
-4,10,15,-3,-9,12,1,1,-6,-24,-16,-11
-5,10,15,-3,-10,13,1,1,-6,-23,-16,-11
-6,10,16,-2,-11,13,2,1,-6,-23,-16,-11
-5,10,15,-2,-10,13,2,1,-7,-23,-16,-11
-4,10,14,-3,-9,12,2,1,-7,-23,-16,-11
-3,10,13,-3,-8,11,2,0,-8,-24,-17,-11
-2,9,10,-4,-6,9,1,0,-9,-25,-19,-13
0,8,8,-4,-4,8,1,-1,-10,-26,-20,-14
-1,9,9,-4,-4,8,1,-1,-10,-26,-20,-14
-3,9,12,-3,-7,10,2,0,-9,-24,-18,-12
-6,9,16,-2,-11,12,2,0,-8,-23,-17,-10
-7,9,17,-1,-12,13,3,0,-8,-23,-16,-9
-7,9,16,-1,-11,12,3,0,-8,-23,-16,-10
-6,9,14,-2,-10,12,3,0,-8,-23,-17,-10
-5,9,13,-2,-9,11,3,0,-8,-23,-17,-10
-4,9,12,-2,-8,11,3,0,-9,-24,-18,-11
-4,8,11,-2,-7,10,3,0,-9,-24,-18,-11
-3,8,11,-2,-7,10,3,0,-10,-24,-18,-11
-3,8,11,-2,-7,9,2,0,-10,-24,-18,-11
-2,8,10,-3,-6,8,2,0,-11,-25,-19,-12
0,7,6,-3,-3,6,1,-1,-12,-27,-21,-14
4,6,1,-4,1,3,0,-2,-13,-29,-23,-16
6,5,-1,-5,4,2,0,-3,-14,-30,-24,-18
4,5,0,-4,2,3,1,-2,-13,-29,-23,-16
-1,6,7,-2,-3,6,2,-1,-11,-27,-20,-13
-5,6,12,0,-8,9,4,0,-10,-25,-19,-11
-6,6,12,0,-9,9,4,0,-10,-25,-19,-11
-5,6,11,-1,-8,8,4,0,-10,-26,-19,-11
-5,6,11,-1,-8,8,5,0,-10,-26,-19,-11
-7,6,12,0,-9,9,5,1,-9,-25,-19,-10
-7,5,12,1,-9,9,6,1,-9,-25,-19,-10
-6,5,11,0,-8,8,5,1,-9,-25,-19,-11
-5,5,9,0,-7,7,5,0,-10,-26,-20,-11
-4,5,8,0,-6,6,4,0,-10,-26,-20,-12
-3,5,7,-1,-5,6,4,-1,-11,-26,-20,-12
-3,4,7,-1,-4,5,4,-1,-11,-26,-20,-12
-2,4,5,-1,-3,4,4,-1,-11,-26,-20,-12
-1,4,5,-1,-3,4,4,-1,-11,-27,-21,-12
-2,3,5,0,-3,4,5,-1,-11,-27,-21,-12
-3,3,6,0,-4,5,5,-1,-11,-27,-21,-12
-4,3,7,0,-5,5,5,-1,-11,-27,-21,-12
-4,3,7,0,-5,5,5,-1,-11,-27,-21,-12
-4,2,6,0,-5,4,5,-1,-11,-27,-21,-12
-4,2,6,0,-5,4,5,0,-11,-27,-21,-12
-5,2,6,1,-5,4,6,0,-11,-27,-21,-12
-4,2,5,1,-5,4,6,0,-11,-27,-21,-12
-4,2,5,1,-4,4,6,0,-11,-27,-21,-12
-4,2,5,1,-4,4,6,0,-11,-26,-21,-12
-5,1,6,2,-5,4,6,0,-10,-26,-21,-11
-6,1,7,2,-6,4,6,0,-10,-26,-21,-11
-6,1,7,2,-6,3,6,0,-10,-26,-21,-11
-5,0,6,2,-5,3,6,-1,-10,-26,-21,-12
-5,0,5,2,-4,2,6,-1,-10,-26,-21,-12
-4,0,3,2,-3,1,6,-1,-10,-26,-21,-13
-2,0,2,2,-1,1,6,-1,-11,-26,-22,-13
-2,0,2,2,-2,1,7,-1,-11,-26,-22,-13
-5,0,4,3,-4,1,8,-1,-10,-25,-21,-12
-7,-1,6,4,-6,2,8,0,-10,-25,-20,-11
-7,-1,5,4,-6,2,8,-1,-10,-25,-20,-10
-6,-2,3,3,-5,0,8,-1,-10,-25,-21,-10
-4,-2,2,3,-3,0,7,-2,-10,-25,-21,-11
-4,-2,2,3,-3,0,7,-2,-10,-25,-21,-11
-4,-2,2,3,-3,0,8,-2,-10,-25,-21,-11
-4,-2,1,3,-3,0,8,-2,-10,-25,-21,-12
-3,-2,1,2,-2,0,7,-2,-10,-26,-21,-13
-3,-2,0,2,-2,-1,7,-2,-10,-26,-21,-14
-4,-2,1,2,-2,-1,8,-2,-10,-26,-21,-14
-4,-1,2,2,-3,0,8,-2,-9,-25,-21,-13
-5,-1,3,2,-4,0,9,-1,-8,-24,-20,-13
-5,0,4,2,-5,2,9,-1,-7,-23,-20,-13
-5,1,5,1,-5,3,10,0,-6,-22,-19,-12
-5,2,6,1,-6,4,10,0,-5,-22,-18,-12
-3,3,6,0,-4,4,10,0,-4,-22,-18,-12
-1,4,4,-1,-2,4,10,0,-4,-22,-19,-13
0,4,4,-2,-2,4,11,0,-4,-22,-19,-14
0,5,6,-2,-3,5,11,0,-3,-22,-18,-13
-2,6,8,-2,-5,6,12,0,-2,-21,-17,-12
-2,6,9,-2,-6,7,12,1,-2,-20,-17,-12
-3,6,9,-2,-6,7,13,1,-1,-20,-17,-13
-3,6,10,-2,-6,8,14,1,-1,-20,-17,-13
-4,7,12,-2,-7,9,15,2,0,-19,-16,-12
-5,8,14,-1,-9,10,16,3,1,-18,-15,-11
-6,8,15,-1,-10,11,16,4,2,-17,-15,-11
-6,7,14,-1,-10,10,16,4,2,-17,-15,-11
-5,7,13,-1,-9,10,16,4,2,-17,-15,-11
-5,8,13,-1,-9,10,17,4,3,-17,-15,-11
-4,8,12,-2,-8,10,17,4,3,-17,-15,-11
-5,8,12,-1,-8,10,17,4,3,-17,-15,-10
-6,7,12,0,-9,9,17,4,3,-18,-15,-10
-7,6,12,0,-9,9,16,3,3,-18,-15,-10
-7,5,12,0,-9,9,15,1,2,-19,-15,-9
-7,4,11,0,-9,8,14,0,1,-20,-16,-9
-5,4,9,0,-8,7,14,0,0,-21,-16,-9
-4,4,8,0,-7,6,13,-1,0,-21,-17,-9
-3,3,6,0,-5,5,12,-1,0,-21,-17,-9
-2,3,4,0,-3,4,11,-2,-1,-22,-18,-9
0,2,2,-1,-1,2,10,-2,-1,-23,-18,-10
0,2,0,-1,0,1,10,-2,-1,-23,-18,-10
0,2,1,-1,0,1,11,-1,-1,-22,-17,-9
-2,1,3,0,-2,2,11,-1,0,-22,-16,-7
-3,1,4,1,-3,2,11,-1,-1,-21,-16,-6
-3,0,3,1,-3,1,11,-1,-2,-22,-16,-6
-3,-1,2,2,-3,0,11,-2,-3,-22,-17,-7
-3,-1,1,2,-2,0,10,-2,-4,-23,-17,-7
-3,-2,0,2,-1,-1,10,-2,-5,-23,-17,-8
-2,-2,0,2,0,-1,9,-3,-5,-23,-17,-8
-2,-3,-1,3,0,-2,9,-3,-6,-24,-17,-8
-2,-4,-2,3,0,-3,8,-4,-6,-24,-18,-8
0,-4,-3,2,1,-4,8,-5,-7,-25,-18,-8
1,-4,-5,1,3,-5,7,-5,-7,-25,-19,-8
2,-4,-6,1,4,-5,7,-5,-7,-25,-19,-8
3,-4,-7,0,5,-6,7,-5,-7,-25,-19,-8
3,-4,-8,0,5,-6,8,-5,-7,-25,-19,-9
0,-4,-6,2,3,-5,9,-4,-6,-24,-18,-8
-2,-4,-3,3,0,-4,10,-3,-5,-23,-17,-8
-4,-5,-2,5,-1,-4,10,-2,-5,-22,-17,-8
-4,-6,-2,5,-1,-5,10,-2,-5,-23,-18,-9
-4,-7,-3,5,0,-6,10,-3,-6,-24,-20,-10
-4,-8,-3,6,0,-6,10,-3,-6,-24,-21,-11
-5,-9,-4,6,0,-7,9,-4,-7,-25,-21,-11
-5,-10,-4,7,0,-7,9,-4,-8,-26,-22,-12
-6,-10,-5,8,0,-7,9,-5,-9,-26,-22,-12
-5,-10,-6,8,1,-8,9,-5,-10,-27,-23,-13
-3,-10,-8,7,3,-9,8,-6,-10,-28,-24,-13
-1,-11,-9,6,4,-10,8,-6,-11,-29,-24,-13
-1,-11,-10,6,4,-11,8,-6,-11,-29,-24,-13
0,-12,-11,6,5,-12,8,-6,-11,-29,-25,-14
1,-12,-14,5,8,-13,7,-7,-12,-30,-26,-16
2,-13,-15,5,8,-14,7,-8,-13,-30,-27,-17
0,-12,-12,6,6,-12,8,-7,-12,-29,-26,-15
-4,-12,-7,8,2,-10,9,-6,-10,-27,-24,-13
-6,-12,-5,9,0,-8,10,-5,-9,-26,-23,-12
-7,-12,-4,9,-1,-8,10,-4,-9,-26,-23,-11
-8,-12,-4,10,-1,-8,10,-4,-8,-25,-22,-11
-9,-12,-4,10,-2,-8,10,-4,-8,-25,-22,-11
-9,-12,-4,10,-2,-9,10,-4,-8,-26,-22,-11
-7,-12,-6,9,0,-9,10,-4,-9,-27,-23,-12
-4,-12,-8,8,2,-10,9,-5,-10,-27,-24,-14
-3,-12,-10,8,4,-11,9,-6,-10,-28,-24,-15
-2,-12,-10,7,4,-11,9,-6,-10,-28,-25,-15
-2,-12,-10,7,3,-11,9,-5,-10,-28,-25,-15
-5,-12,-7,8,1,-10,10,-4,-8,-27,-23,-14
-7,-12,-4,9,-1,-9,11,-2,-7,-25,-22,-13
-9,-12,-3,10,-3,-8,13,0,-5,-23,-21,-13
-10,-12,-2,10,-4,-7,14,0,-3,-22,-21,-12
-9,-11,-1,10,-4,-6,14,0,-1,-21,-20,-13
-8,-10,-1,9,-4,-5,14,0,0,-18,-18,-12
-6,-8,-1,7,-3,-4,12,-2,1,-14,-15,-11
-3,-5,-1,4,-1,-4,10,-3,3,-9,-9,-8
-1,-2,-1,2,0,-2,8,-4,5,0,0,-3
-1,2,2,0,-2,1,6,-4,10,13,13,5
-1,8,9,-3,-5,8,2,-6,14,29,31,18
-1,15,17,-7,-8,16,-3,-11,17,48,54,35
1,22,21,-12,-9,21,-11,-20,18,67,79,54
5,27,22,-16,-8,24,-21,-31,15,85,105,76
9,30,21,-19,-5,25,-32,-45,4,98,130,96
14,33,19,-24,-2,26,-42,-62,-11,104,150,114
19,39,20,-29,-1,29,-51,-79,-29,103,165,127
23,47,25,-36,-1,35,-58,-97,-50,96,173,137
25,57,31,-42,-3,43,-65,-113,-70,85,176,143
25,61,35,-43,-5,47,-69,-123,-86,71,170,143
22,55,32,-38,-5,43,-68,-126,-99,50,152,134
17,42,24,-29,-3,33,-64,-125,-112,22,121,115
12,28,16,-20,-1,22,-61,-125,-126,-11,83,89
11,16,6,-14,2,12,-60,-130,-143,-49,39,59
12,7,-3,-10,7,1,-63,-138,-164,-92,-10,25
11,0,-10,-6,10,-6,-66,-146,-184,-130,-53,-3
7,-5,-12,-1,9,-9,-68,-150,-198,-155,-81,-22
0,-8,-8,4,4,-9,-66,-149,-203,-165,-94,-31
-7,-10,-3,9,-1,-8,-63,-142,-201,-167,-100,-37
-12,-12,0,13,-4,-7,-57,-131,-193,-165,-103,-42
-14,-16,-1,16,-6,-9,-52,-119,-183,-160,-104,-46
-15,-21,-5,19,-4,-13,-46,-108,-173,-154,-105,-50
-13,-27,-13,20,0,-20,-41,-97,-163,-147,-105,-54
-10,-33,-21,21,5,-27,-36,-85,-153,-140,-104,-57
-7,-37,-29,22,10,-33,-30,-74,-142,-132,-101,-59
-6,-40,-35,22,14,-38,-25,-66,-130,-123,-97,-58
-6,-41,-36,23,15,-39,-23,-60,-117,-112,-90,-54
-9,-41,-33,25,13,-37,-20,-54,-105,-101,-81,-49
-11,-40,-29,26,10,-35,-16,-48,-92,-90,-73,-43
-12,-39,-27,25,8,-33,-12,-41,-79,-81,-66,-39
-10,-38,-27,24,8,-32,-8,-36,-68,-72,-61,-36
-9,-36,-26,22,8,-31,-5,-30,-57,-63,-55,-33
-8,-33,-24,20,8,-29,-1,-25,-48,-55,-49,-30
-6,-30,-23,17,9,-27,1,-21,-39,-48,-44,-27
-5,-27,-23,15,10,-26,3,-18,-32,-42,-40,-25
-4,-24,-21,14,9,-23,5,-15,-25,-37,-36,-23
-6,-22,-16,14,6,-19,7,-11,-19,-32,-32,-19
-8,-20,-11,14,2,-15,9,-8,-13,-28,-29,-16
-7,-18,-9,13,1,-13,10,-6,-9,-25,-27,-15
-6,-17,-9,11,1,-12,11,-5,-6,-23,-26,-14
-5,-16,-9,10,1,-12,12,-4,-4,-21,-24,-14
-5,-14,-9,9,2,-11,12,-3,-3,-19,-23,-14
-5,-13,-8,9,2,-11,12,-2,-1,-17,-21,-13
-4,-13,-9,8,3,-11,12,-1,0,-16,-20,-12
-2,-12,-10,7,5,-12,12,-1,1,-16,-20,-12
0,-12,-11,6,5,-12,12,-1,2,-16,-20,-11
-1,-11,-9,6,4,-10,13,0,3,-15,-20,-10
-3,-11,-6,6,1,-9,14,1,5,-14,-18,-9
-4,-11,-5,7,0,-8,15,2,6,-13,-17,-8
-5,-10,-5,7,0,-8,15,1,6,-12,-17,-8
-5,-10,-5,7,0,-8,15,1,7,-11,-16,-7
-5,-9,-4,7,0,-7,15,2,7,-11,-15,-7
-5,-9,-4,7,0,-7,14,2,7,-11,-15,-7
-4,-9,-5,7,1,-7,14,2,7,-11,-15,-7
-3,-9,-5,7,1,-7,14,2,7,-11,-15,-7
-3,-9,-5,6,1,-7,14,2,8,-11,-15,-7
-2,-9,-5,6,1,-7,14,2,9,-10,-15,-7
-3,-9,-5,5,1,-6,14,3,10,-9,-14,-7
-3,-9,-4,5,0,-6,15,3,10,-9,-14,-6
-4,-8,-4,5,0,-6,15,3,11,-8,-13,-6
-3,-8,-5,5,1,-6,15,3,11,-8,-13,-5
-2,-8,-5,4,2,-7,15,3,11,-7,-13,-5
-1,-8,-5,4,2,-7,15,3,11,-7,-12,-5
-2,-8,-5,5,1,-6,15,4,12,-6,-12,-5
-2,-8,-5,5,1,-6,15,4,12,-6,-12,-6
-3,-8,-5,5,1,-7,15,4,13,-5,-12,-6
-3,-8,-5,5,1,-7,15,4,13,-5,-12,-6
-3,-8,-6,5,2,-7,15,4,14,-4,-12,-6
-2,-8,-6,5,2,-8,15,4,14,-4,-12,-6
-2,-8,-7,5,3,-8,15,4,15,-3,-11,-6
0,-8,-8,4,4,-8,15,4,15,-2,-11,-6
0,-8,-8,4,4,-8,15,4,16,-1,-11,-6
0,-8,-8,4,4,-8,15,4,17,0,-10,-6
-1,-8,-6,4,2,-7,16,5,18,1,-9,-5
-4,-7,-3,5,0,-5,17,7,19,4,-7,-3
-5,-7,-2,5,-1,-4,17,8,20,5,-6,-2
-5,-6,-1,5,-2,-4,17,8,21,6,-5,-1
-6,-6,0,6,-3,-3,18,9,22,8,-4,-1
-6,-6,0,6,-3,-2,18,10,23,9,-3,0
-5,-6,0,6,-3,-2,18,10,23,9,-3,0
-4,-6,-1,5,-1,-3,18,9,24,10,-3,-1
-2,-6,-3,4,0,-4,18,9,24,10,-3,-1
-1,-6,-4,4,2,-5,17,9,24,11,-3,-1
0,-6,-6,3,3,-6,16,9,25,11,-3,-2
1,-6,-8,2,5,-7,16,9,25,12,-3,-2
2,-6,-8,2,5,-7,16,9,26,13,-2,-1
2,-6,-8,2,5,-7,16,9,27,14,-1,-1
2,-6,-7,2,4,-7,16,10,28,15,0,0
2,-6,-8,1,5,-7,16,10,29,16,0,0
4,-6,-9,0,6,-7,16,11,29,17,1,0
3,-5,-8,0,5,-7,17,12,31,19,2,1
-1,-5,-3,2,0,-4,18,14,33,22,5,4
-6,-4,1,4,-4,-2,20,16,36,25,8,7
-7,-4,2,5,-5,-1,20,17,37,27,10,8
-6,-4,2,5,-4,-1,20,18,38,29,11,9
-5,-4,1,5,-4,-2,20,19,39,30,12,9
-5,-4,1,5,-3,-2,20,19,40,31,13,9
-3,-4,0,4,-1,-3,20,20,41,33,14,10
0,-4,-3,2,1,-4,20,21,42,34,15,10
1,-4,-5,1,3,-5,20,21,43,36,16,10
0,-4,-4,2,2,-4,21,23,46,39,18,12
-1,-4,-3,2,1,-3,21,24,48,41,20,13
0,-3,-3,2,1,-3,21,25,49,44,22,14
0,-3,-3,1,1,-3,21,26,51,46,24,14
0,-2,-3,1,1,-2,22,27,53,49,26,15
0,-2,-2,1,0,-2,22,29,55,53,28,16
-1,-2,-1,1,0,-1,23,30,57,56,30,17
0,-2,-1,1,0,-1,23,32,59,59,33,19
0,-1,-1,0,0,-1,23,33,61,62,35,21
1,0,-1,0,1,-1,23,35,63,65,38,22
2,0,-2,-1,2,-1,23,36,65,68,40,23
3,0,-3,-2,3,-1,23,36,66,71,42,23
5,1,-4,-3,4,-1,23,37,68,73,44,23
8,1,-6,-4,6,-2,22,37,69,75,45,23
9,2,-7,-5,7,-2,22,38,70,78,47,24
6,3,-4,-5,5,0,23,41,73,82,51,27
2,4,1,-3,0,2,25,44,77,87,55,31
0,4,3,-3,-1,3,25,46,79,91,59,33
0,5,4,-3,-2,4,26,47,81,93,61,34
0,5,4,-3,-2,5,26,48,82,95,63,35
2,5,3,-4,-1,5,26,48,82,96,64,35
4,6,2,-6,1,5,26,48,83,97,65,36
6,6,1,-7,2,5,26,49,83,99,66,36
6,7,1,-7,2,5,26,49,84,100,67,37
6,7,0,-8,2,4,25,49,84,101,68,38
7,7,0,-8,3,4,25,49,84,102,69,38
9,7,-1,-9,4,3,24,49,84,102,69,37
9,7,-2,-9,5,3,24,49,84,102,69,37
9,7,-1,-8,4,3,24,49,84,102,70,37
6,8,2,-7,1,6,25,50,85,103,71,38
4,9,6,-6,-1,8,26,50,85,103,72,40
3,9,6,-6,-2,8,26,50,85,102,72,41
3,9,6,-6,-2,8,26,49,84,101,71,41
3,9,6,-6,-1,7,26,48,82,99,70,40
3,9,5,-6,0,7,26,47,81,97,68,40
4,9,4,-7,0,7,25,46,79,94,66,39
4,9,5,-7,0,7,25,45,78,92,65,38
2,9,7,-6,-2,8,25,44,76,89,63,38
1,9,9,-5,-4,9,25,43,75,87,62,38
1,8,8,-6,-3,8,24,41,72,83,59,36
3,8,6,-6,-1,7,24,39,69,79,56,34
3,8,5,-6,0,7,24,38,67,75,53,33
2,8,5,-6,-1,7,24,37,65,72,50,32
1,7,6,-4,-2,7,23,36,62,68,48,31
0,7,6,-4,-3,6,23,34,60,64,44,30
0,6,5,-3,-2,6,22,31,57,59,41,27
0,6,4,-3,-2,5,22,29,53,54,37,25
1,5,4,-3,-2,5,21,27,50,50,34,23
1,5,3,-3,-1,5,21,25,47,45,31,21
1,4,3,-3,-1,4,21,23,44,41,27,19
1,3,2,-2,-1,3,20,22,41,37,24,18
0,2,2,-2,-1,2,20,20,38,33,21,16
0,1,2,-1,-1,2,19,19,36,29,18,15
-1,1,2,0,-2,2,19,18,34,25,16,14
-2,1,3,0,-3,2,19,17,32,22,14,13
-3,0,3,1,-3,2,19,16,29,19,12,12
-3,0,2,2,-3,1,19,13,26,16,9,10
-2,-1,1,2,-2,0,19,12,23,13,6,9
-2,-2,0,2,-2,0,19,11,21,10,4,8
-3,-2,0,2,-2,0,19,10,19,8,2,7
-3,-3,0,3,-2,0,19,9,18,6,1,6
-3,-3,0,3,-2,-1,18,8,16,3,0,5
-2,-4,-2,3,0,-3,17,6,14,0,-3,2
0,-5,-5,3,2,-5,16,4,11,-3,-6,0
1,-7,-7,3,4,-7,15,2,8,-6,-8,-2
1,-7,-8,3,4,-7,14,1,6,-8,-10,-3
0,-8,-7,4,3,-7,15,1,6,-9,-11,-3
-1,-8,-6,4,2,-6,15,1,5,-10,-11,-3
-1,-8,-6,4,3,-7,14,0,4,-11,-12,-3
-1,-8,-6,4,2,-7,14,0,4,-11,-12,-2
-2,-8,-6,4,2,-7,14,0,3,-11,-12,-2
0,-8,-9,4,5,-8,13,-2,1,-13,-14,-4
3,-9,-13,3,8,-11,12,-4,-1,-15,-17,-6
4,-10,-14,2,9,-11,11,-5,-2,-16,-18,-7
0,-9,-9,4,5,-9,13,-4,-2,-16,-16,-5
-4,-9,-4,6,0,-6,14,-3,-1,-14,-14,-3
-6,-9,-2,7,-2,-5,14,-3,0,-14,-14,-2
-6,-9,-2,7,-2,-6,14,-3,-1,-14,-14,-2
-7,-9,-2,8,-2,-6,14,-3,-1,-14,-14,-2
-8,-9,-1,8,-3,-5,14,-3,-1,-14,-14,-2
-7,-9,-2,8,-2,-5,14,-3,-1,-14,-14,-2
-6,-9,-3,8,-1,-6,14,-4,-1,-14,-14,-2
-6,-10,-4,8,0,-6,14,-4,-2,-15,-15,-2
-5,-10,-5,8,0,-7,13,-4,-2,-15,-15,-2
-4,-10,-6,7,1,-8,13,-5,-3,-16,-16,-3
-4,-10,-7,7,2,-8,13,-5,-3,-16,-16,-3
-3,-10,-8,6,3,-9,12,-5,-3,-16,-16,-3
-2,-10,-8,6,3,-9,12,-5,-3,-16,-16,-4
-3,-10,-7,6,2,-8,13,-5,-3,-15,-16,-4
-4,-10,-7,7,1,-8,13,-5,-3,-15,-16,-4
-2,-10,-8,6,3,-9,12,-6,-3,-16,-17,-5
1,-10,-11,4,6,-11,12,-6,-4,-17,-18,-6
3,-10,-13,3,8,-12,11,-7,-4,-17,-18,-7
2,-10,-12,3,7,-12,11,-6,-3,-16,-17,-7
0,-10,-9,4,4,-10,12,-5,-2,-15,-16,-5
-3,-10,-6,6,1,-9,13,-4,-1,-14,-14,-4
-3,-10,-6,6,1,-8,13,-4,-1,-13,-14,-4
-3,-10,-6,6,1,-8,13,-4,-1,-13,-15,-5
-3,-10,-6,7,1,-8,14,-4,0,-13,-14,-4
-4,-10,-5,7,0,-7,14,-4,0,-12,-13,-3
-4,-9,-4,7,0,-7,15,-3,1,-11,-13,-2
-4,-9,-4,7,0,-7,15,-3,2,-10,-12,-2
-4,-9,-4,7,0,-7,14,-3,2,-10,-12,-2
-4,-9,-5,7,0,-7,14,-3,2,-9,-12,-3
-2,-9,-7,6,2,-8,14,-3,2,-10,-13,-3
0,-9,-9,5,4,-9,13,-4,2,-10,-13,-4
0,-9,-10,5,5,-10,13,-4,1,-10,-14,-5
-1,-9,-8,6,3,-9,13,-4,2,-9,-13,-4
-4,-9,-5,7,1,-7,14,-3,4,-8,-12,-3
-4,-9,-4,6,0,-7,14,-2,4,-7,-11,-3
-3,-9,-5,6,0,-7,14,-2,5,-6,-11,-3
-2,-9,-6,5,1,-7,14,-2,5,-6,-11,-3
-2,-9,-7,5,2,-8,14,-3,5,-6,-11,-3
-1,-9,-7,5,3,-8,14,-3,5,-6,-11,-3
-1,-9,-7,5,3,-8,14,-3,5,-6,-11,-3
-1,-8,-8,5,3,-8,13,-3,5,-6,-11,-3
0,-8,-8,5,3,-8,13,-3,5,-6,-11,-3
0,-9,-8,5,4,-9,13,-3,5,-6,-12,-3
0,-9,-9,5,4,-9,13,-3,5,-6,-12,-4
-1,-9,-8,5,3,-8,13,-3,5,-6,-12,-4
0,-8,-8,5,3,-8,13,-3,5,-5,-12,-4
0,-8,-8,4,4,-8,13,-3,5,-5,-12,-4
0,-8,-8,5,4,-8,13,-3,5,-5,-12,-4
-2,-8,-6,6,2,-7,13,-2,6,-4,-11,-3
-4,-8,-4,6,0,-6,14,-2,6,-4,-10,-2
-4,-7,-4,6,0,-6,14,-2,6,-4,-10,-2
-4,-7,-4,6,0,-6,14,-2,6,-4,-9,-1
-5,-7,-3,6,-1,-5,15,-2,7,-3,-9,-1
-6,-7,-2,7,-2,-4,15,-1,7,-3,-9,0
-7,-7,-1,7,-2,-4,15,-1,8,-2,-9,0
-6,-7,-1,7,-2,-4,15,-2,8,-2,-9,-1
-4,-7,-3,6,0,-5,14,-3,7,-3,-10,-2
-2,-7,-5,5,2,-6,13,-3,6,-4,-11,-3
-1,-7,-7,5,3,-7,13,-4,5,-5,-11,-3
-1,-7,-7,5,3,-7,13,-4,5,-6,-11,-3
-1,-7,-7,5,3,-7,13,-4,5,-6,-11,-3
-2,-7,-6,5,2,-7,13,-5,5,-6,-11,-3
-1,-7,-7,4,3,-7,12,-5,4,-6,-12,-3
0,-8,-9,4,5,-8,12,-6,3,-7,-12,-3
0,-8,-9,4,5,-8,11,-6,3,-8,-13,-3
0,-9,-9,5,5,-9,11,-6,2,-8,-13,-4
-1,-9,-8,5,4,-8,12,-6,2,-8,-13,-4
-3,-9,-6,6,2,-7,12,-6,3,-8,-12,-3
-5,-9,-4,7,0,-6,12,-5,3,-7,-12,-2
-6,-9,-3,7,-1,-6,12,-5,4,-6,-11,-2
-6,-9,-2,7,-2,-6,12,-5,4,-7,-11,-2
-7,-9,-2,7,-2,-5,12,-5,4,-7,-11,-1
-7,-8,-2,7,-2,-5,13,-5,4,-6,-11,0
-6,-8,-2,7,-2,-5,13,-5,4,-6,-11,0
-5,-8,-3,7,-1,-5,13,-5,4,-7,-11,-1
-4,-9,-5,7,0,-6,12,-6,3,-8,-12,-2
-3,-9,-6,7,2,-8,11,-7,2,-9,-13,-3
-2,-9,-8,6,3,-9,10,-7,1,-9,-14,-4
-1,-10,-9,6,4,-9,10,-8,0,-10,-15,-4
0,-10,-9,6,4,-10,9,-9,0,-10,-15,-4
-1,-10,-9,6,4,-10,9,-9,0,-10,-15,-4
-2,-10,-8,6,3,-9,10,-8,0,-10,-15,-3
-2,-10,-7,6,2,-8,10,-8,0,-10,-15,-3
-2,-10,-8,6,2,-9,10,-8,0,-10,-15,-4
-2,-10,-9,6,3,-9,9,-8,0,-11,-16,-4
-2,-10,-9,6,3,-10,9,-8,0,-11,-16,-5
-3,-10,-8,7,2,-9,9,-8,0,-11,-15,-4
-5,-10,-6,7,0,-8,9,-8,0,-10,-14,-3
-5,-10,-5,7,0,-8,9,-8,0,-10,-14,-3
-4,-10,-6,7,1,-8,9,-8,0,-11,-14,-3
-2,-10,-8,7,3,-9,8,-9,-1,-11,-15,-4
-1,-10,-9,6,4,-10,8,-9,-1,-12,-16,-4
-2,-10,-9,6,3,-10,9,-8,-1,-11,-16,-4
-3,-10,-8,7,2,-9,9,-8,-1,-11,-15,-4
-5,-10,-7,8,1,-9,10,-8,-1,-11,-15,-4
-5,-10,-6,8,0,-8,10,-8,0,-11,-15,-3
-5,-10,-6,8,0,-8,9,-8,0,-11,-15,-3
-4,-11,-7,8,1,-9,9,-9,-1,-11,-15,-4
-2,-11,-8,8,3,-9,8,-9,-1,-12,-16,-4
-2,-11,-9,8,4,-10,8,-9,-1,-12,-16,-4
-3,-11,-9,8,4,-10,8,-9,-1,-12,-16,-4
-4,-11,-8,8,3,-10,8,-9,-1,-12,-15,-4
-4,-11,-8,8,3,-10,8,-9,-1,-12,-15,-4
-4,-11,-7,7,2,-10,8,-9,-1,-12,-15,-4
-4,-11,-7,7,2,-10,8,-9,-1,-12,-15,-4
-4,-11,-8,7,2,-10,8,-9,-1,-12,-15,-4
-3,-11,-8,8,2,-10,8,-9,-1,-12,-15,-4
-3,-11,-8,8,2,-10,8,-9,-1,-12,-15,-4
