leadI,leadII,leadIII,leadaVR,leadaVL,leadaVF,leadV1,leadV2,leadV3,leadV4,leadV5,leadV6
0,-4,-4,2,2,-4,-3,-11,-9,-56,-11,-46
1,-9,-11,4,6,-10,-8,-24,-22,-146,-28,-120
4,-12,-16,4,10,-14,-9,-26,-24,-202,-36,-163
6,-13,-20,3,13,-17,-8,-20,-20,-179,-39,-183
8,-12,-21,2,14,-17,-6,-11,-12,-82,-32,-188
12,-9,-21,-1,16,-16,-3,-1,-3,-71,-8,-187
16,-5,-22,-6,19,-14,-1,9,5,-157,19,-189
19,-3,-22,-8,20,-13,0,16,12,-224,34,-196
19,-2,-21,-9,20,-11,1,22,18,-255,41,-202
20,1,-19,-11,19,-8,2,28,23,-268,45,-203
22,5,-18,-14,20,-5,3,33,28,-270,47,-201
24,7,-17,-16,20,-4,4,37,32,-268,50,-196
25,9,-16,-17,20,-3,5,40,35,-270,54,-192
25,10,-15,-17,20,-3,6,42,38,-279,55,-195
24,10,-15,-17,19,-2,6,44,40,-290,59,-208
25,11,-14,-18,19,-1,6,45,41,-296,64,-232
27,13,-14,-21,20,0,7,46,42,-299,57,-267
29,14,-14,-22,21,1,8,46,43,-302,44,-314
28,15,-13,-22,20,2,7,46,44,-304,35,-363
28,16,-12,-22,20,2,7,46,43,-307,29,-401
27,15,-12,-21,20,1,7,46,43,-309,25,-425
27,14,-12,-21,20,1,7,46,43,-310,23,-437
27,14,-12,-20,20,0,7,46,44,-310,22,-434
27,13,-13,-20,20,0,7,46,44,-310,21,-422
27,13,-13,-21,20,0,7,46,44,-310,20,-414
28,15,-13,-22,21,1,7,46,44,-311,18,-415
29,16,-13,-23,21,2,7,47,44,-312,17,-416
29,16,-13,-23,21,2,7,47,44,-313,17,-410
29,15,-13,-22,21,1,7,47,44,-314,18,-392
28,14,-14,-21,21,0,7,47,45,-315,21,-364
28,13,-14,-21,21,0,7,48,46,-312,25,-332
29,13,-14,-21,21,0,7,48,46,-321,29,-305
29,13,-14,-21,21,0,7,47,46,-349,32,-294
28,13,-15,-21,21,0,7,47,46,-120,34,-303
28,13,-15,-20,21,-1,6,47,45,-340,34,-300
28,13,-15,-20,21,-1,6,47,45,-315,33,-252
28,14,-15,-21,21,0,5,46,45,403,31,-186
28,15,-14,-22,21,1,5,46,45,730,23,-139
29,16,-13,-22,21,1,5,46,45,849,17,-109
30,17,-13,-23,22,2,5,47,46,851,83,-81
31,18,-13,-25,22,3,6,47,46,792,176,-56
32,18,-13,-25,22,3,6,47,47,704,160,-40
31,18,-13,-25,21,3,6,48,47,605,90,-33
31,17,-13,-24,21,3,6,48,47,505,52,-31
30,18,-12,-24,21,3,6,48,47,409,34,-28
30,18,-11,-24,21,3,6,48,46,321,33,-23
29,17,-11,-23,20,2,6,48,46,242,45,-15
28,16,-11,-22,20,2,6,48,47,171,61,-6
29,16,-12,-22,20,1,6,48,47,108,74,0
30,16,-13,-23,21,1,5,49,48,52,81,-1
30,16,-14,-23,21,2,5,49,48,3,84,-5
31,17,-14,-24,21,2,5,50,48,-40,84,-8
31,18,-14,-25,22,2,6,51,49,-77,82,-4
33,20,-14,-26,23,3,6,52,50,-125,82,10
36,22,-14,-29,25,4,6,52,51,-122,84,31
37,23,-13,-30,25,5,6,52,52,159,87,55
36,22,-13,-29,24,5,6,52,52,-6,89,76
35,21,-13,-28,23,4,5,52,52,-522,91,91
35,21,-13,-28,23,4,5,53,52,-735,94,100
35,22,-13,-28,23,5,5,54,53,-1006,97,107
35,23,-12,-29,23,6,5,54,53,-1336,101,113
36,24,-12,-30,23,6,5,54,53,-1666,105,118
36,24,-12,-30,23,6,4,54,53,-1144,109,122
36,24,-12,-30,23,6,3,54,54,-103,113,123
37,25,-11,-31,23,7,3,55,55,424,118,120
39,27,-11,-33,24,9,2,55,55,658,123,111
40,29,-11,-34,24,10,2,56,55,727,127,97
39,29,-10,-34,24,10,1,56,56,708,132,84
39,29,-10,-34,24,10,1,56,56,643,139,72
40,29,-10,-35,25,10,1,57,57,555,147,63
41,30,-11,-36,26,9,0,57,58,471,157,56
41,29,-12,-35,26,9,0,57,58,380,167,51
40,29,-11,-35,25,9,0,57,59,124,176,47
41,29,-12,-35,25,9,0,58,60,-389,184,40
41,29,-12,-35,25,8,0,58,60,-979,191,30
41,29,-11,-35,25,8,-1,58,61,-701,197,18
41,30,-10,-35,25,9,-1,58,61,76,204,5
41,30,-10,-36,25,10,-1,58,61,476,210,-8
42,31,-11,-36,26,10,-1,58,61,28,216,-19
43,31,-11,-37,27,10,-2,58,60,-890,222,-27
44,32,-12,-37,27,10,-2,58,60,-1290,229,-31
44,32,-12,-38,27,10,-1,58,60,-1391,235,-31
44,32,-11,-38,27,11,-1,58,61,-1303,241,-32
44,33,-11,-38,27,11,-1,58,61,-1111,246,-33
44,33,-11,-39,27,11,-1,58,61,-895,245,-35
44,34,-11,-39,27,11,-1,57,61,-696,264,-37
45,34,-11,-39,28,11,-1,57,61,-513,339,-36
45,34,-11,-40,28,11,-1,57,61,-358,399,-26
46,35,-11,-40,29,12,0,57,61,-270,379,-9
47,35,-11,-41,29,12,0,57,60,-259,340,5
47,35,-11,-41,29,12,-1,56,60,-308,320,14
46,34,-11,-40,28,11,-1,56,59,-394,310,18
45,33,-11,-39,28,11,-1,55,59,-495,304,15
45,33,-11,-38,28,11,0,55,58,-706,303,6
44,33,-11,-38,27,11,0,55,58,-1080,305,-5
43,32,-10,-37,27,11,0,55,58,-1410,305,-13
41,31,-10,-36,25,10,0,54,58,-1584,295,-20
39,29,-10,-34,24,10,0,54,57,-993,273,-22
37,28,-9,-32,23,9,0,53,56,-196,246,-18
37,28,-9,-32,23,9,0,53,56,-41,219,-11
38,28,-9,-32,23,9,0,53,55,-23,196,-4
38,27,-10,-32,23,8,0,52,55,-10,175,2
37,26,-10,-31,23,8,0,51,54,-6,158,16
36,25,-10,-30,23,7,0,51,54,-8,143,43
36,25,-10,-31,23,7,1,50,53,-1,129,79
36,26,-10,-31,23,7,2,50,53,33,116,120
36,26,-10,-31,23,7,2,49,52,80,104,158
35,25,-10,-30,23,7,3,49,52,101,93,185
35,24,-10,-30,23,7,4,48,51,82,84,203
36,24,-11,-30,23,7,4,47,51,44,76,218
36,25,-11,-31,24,7,5,46,50,18,68,233
35,25,-10,-31,23,8,5,45,49,3,60,250
34,24,-9,-29,22,8,5,44,48,-6,53,270
34,24,-9,-29,22,7,6,43,46,-13,45,290
35,25,-10,-30,23,7,6,42,45,-18,38,291
34,23,-10,-29,22,6,6,41,44,-21,31,253
31,20,-10,-25,20,5,6,39,43,-23,23,191
28,17,-10,-23,19,3,5,38,41,-25,17,141
27,16,-10,-22,19,3,6,37,40,-26,11,112
26,15,-10,-21,18,2,6,36,38,-27,6,97
25,14,-10,-20,18,1,7,35,37,-27,2,89
25,13,-10,-19,18,0,7,34,36,-27,-2,84
24,12,-10,-18,18,0,8,33,35,-27,-7,80
25,12,-11,-18,18,0,8,33,34,-26,-12,79
26,13,-11,-19,18,1,9,32,34,-26,-17,79
27,13,-12,-20,19,1,9,32,33,-26,-21,75
27,13,-13,-20,19,0,9,31,32,-26,-25,65
26,13,-13,-20,19,0,9,30,31,-26,-28,53
25,13,-13,-19,19,0,9,29,30,-26,-31,45
25,12,-13,-18,19,0,9,28,29,-18,-34,42
24,10,-13,-17,19,-1,8,27,27,-9,-37,41
24,10,-13,-17,18,-1,8,27,27,-14,-40,40
24,9,-13,-16,18,-2,9,26,27,-16,-42,41
24,10,-13,-16,18,-2,9,26,27,23,-43,44
24,10,-14,-17,18,-2,9,26,27,61,-44,50
24,10,-14,-17,19,-2,10,26,27,44,-44,56
24,9,-15,-16,19,-3,10,26,27,17,-46,61
23,9,-14,-16,18,-2,9,25,26,14,-48,63
23,9,-13,-16,18,-2,9,25,26,15,-50,61
22,8,-13,-16,17,-2,9,24,25,7,-53,59
22,7,-13,-15,17,-2,8,24,25,-2,-56,56
21,6,-13,-14,16,-3,8,23,24,-9,-59,55
20,6,-12,-13,16,-3,7,22,23,-12,-62,53
19,6,-12,-13,15,-3,7,22,23,-14,-64,50
19,7,-11,-13,15,-2,6,22,23,-14,-66,45
19,8,-11,-13,15,-1,6,22,23,-15,-67,38
19,8,-11,-13,15,-1,6,21,22,-16,-69,31
19,7,-10,-13,14,-1,7,21,22,-17,-71,24
19,8,-10,-13,14,-1,8,21,22,-17,-73,19
19,8,-10,-14,14,-1,8,21,22,-16,-74,14
19,8,-10,-14,14,-1,9,21,22,-16,-76,8
19,8,-11,-14,14,-1,9,21,22,-15,-77,1
20,8,-11,-14,14,-1,9,21,22,-15,-78,-6
19,8,-11,-13,14,-1,9,21,22,-15,-79,-12
18,6,-11,-12,14,-2,8,21,22,-15,-81,-18
18,6,-11,-12,14,-2,8,20,22,-15,-84,-23
17,6,-10,-12,13,-1,8,20,22,-14,-85,-27
17,7,-9,-12,13,-1,8,20,23,-13,-86,-30
16,7,-9,-12,13,-1,8,20,23,-12,-88,-31
16,7,-9,-12,13,-1,8,20,22,-11,-89,-32
16,7,-9,-12,13,-1,8,20,22,-10,-89,-34
16,6,-9,-11,12,-1,8,20,23,-9,-89,-36
15,6,-8,-11,12,-1,9,20,23,-8,-89,-40
15,6,-8,-11,12,-1,9,21,23,-7,-89,-45
16,6,-8,-11,12,0,9,21,23,-6,-90,-50
16,8,-8,-12,12,0,10,22,24,-4,-90,-55
17,9,-7,-13,12,1,10,22,25,-2,-90,-59
17,10,-7,-14,12,1,9,22,25,-1,-90,-64
17,10,-8,-14,13,1,9,22,25,0,-90,-68
17,10,-7,-14,12,1,9,23,25,1,-90,-71
17,10,-6,-14,11,2,9,23,26,2,-90,-72
18,12,-5,-15,11,3,9,23,26,3,-91,-73
19,13,-4,-16,11,4,10,23,26,4,-91,-74
19,13,-4,-16,11,5,10,23,26,6,-91,-76
18,13,-3,-16,11,5,10,24,26,7,-91,-79
18,14,-3,-16,10,6,10,24,27,9,-91,-83
19,15,-3,-17,11,6,10,24,27,11,-91,-89
21,17,-3,-19,12,7,11,25,28,13,-90,-99
21,17,-3,-19,12,7,11,26,28,14,-90,-114
17,13,-3,-15,10,6,10,25,27,14,-91,-132
13,9,-3,-11,8,4,9,24,26,14,-92,-149
11,8,-2,-10,7,4,8,24,26,15,-91,-161
12,8,-2,-10,7,4,8,25,27,17,-91,-168
13,10,-2,-12,7,5,9,25,27,19,-90,-169
14,11,-2,-13,7,5,9,25,28,20,-90,-164
14,12,-1,-13,7,5,9,25,28,22,-90,-157
14,13,-1,-14,8,5,9,25,27,22,-90,-146
14,13,-1,-14,8,6,9,24,27,22,-90,-135
13,13,0,-13,7,6,8,24,27,23,-90,-124
13,13,0,-13,7,6,7,23,26,23,-90,-114
13,12,0,-13,7,6,7,22,26,24,-91,-104
13,12,-1,-13,7,6,6,21,25,25,-92,-95
14,11,-1,-13,7,5,6,21,24,25,-93,-86
15,11,-2,-13,8,5,5,21,23,26,-93,-79
15,12,-2,-13,8,5,5,20,23,27,-93,-74
15,12,-2,-13,8,5,4,20,23,28,-93,-72
16,13,-2,-14,9,6,3,19,23,28,-93,-73
17,14,-2,-16,10,7,2,19,23,28,-93,-75
17,15,-1,-17,10,7,2,19,23,29,-93,-79
18,15,-1,-17,10,8,1,19,23,30,-93,-82
19,15,-2,-18,10,7,1,18,22,31,-94,-85
18,15,-2,-17,10,6,0,18,22,31,-94,-90
17,13,-3,-16,10,5,0,17,21,32,-94,-98
17,12,-4,-15,11,3,0,16,20,32,-94,-109
17,12,-5,-15,12,3,0,16,20,32,-95,-121
18,12,-5,-15,12,3,0,16,20,32,-96,-130
18,12,-5,-15,12,3,1,16,20,33,-95,-133
17,11,-6,-14,12,3,1,16,20,35,-94,-131
16,11,-5,-14,11,3,2,17,20,37,-93,-127
15,11,-3,-13,9,4,2,17,21,39,-91,-121
15,10,-3,-13,8,4,2,17,20,40,-90,-118
14,10,-3,-12,8,3,3,17,20,41,-89,-116
13,9,-2,-11,8,3,3,17,20,41,-88,-116
12,9,-2,-10,7,3,4,17,20,41,-88,-117
11,8,-2,-9,7,3,4,17,19,41,-88,-117
10,7,-2,-8,6,2,5,16,18,41,-88,-116
10,6,-3,-8,6,2,5,16,17,42,-88,-113
10,5,-3,-7,6,1,6,16,17,43,-88,-108
9,4,-4,-6,6,0,6,15,16,43,-88,-102
8,3,-4,-6,6,0,7,15,16,43,-88,-95
8,3,-4,-6,6,0,7,15,16,44,-87,-88
8,2,-5,-5,7,-1,8,15,16,44,-86,-81
7,1,-5,-4,6,-2,8,15,16,45,-86,-75
6,0,-5,-3,5,-2,8,14,15,45,-86,-69
5,0,-5,-2,5,-2,8,14,15,46,-85,-63
4,-1,-5,-2,4,-3,7,13,14,47,-85,-57
3,-1,-4,-1,3,-2,7,13,14,47,-85,-50
3,-1,-3,-1,3,-2,7,13,13,48,-84,-43
3,-1,-3,-1,3,-2,7,13,13,48,-84,-37
3,-1,-3,-1,3,-2,7,13,13,49,-83,-32
4,0,-3,-2,4,-2,7,13,14,50,-81,-28
5,0,-4,-2,4,-2,7,13,14,51,-80,-24
5,0,-5,-3,5,-2,7,13,14,52,-80,-21
6,0,-5,-3,6,-2,7,13,14,53,-79,-17
8,1,-6,-5,7,-2,7,13,14,53,-79,-14
8,0,-7,-5,8,-3,7,13,14,54,-79,-13
7,-1,-7,-3,7,-4,7,13,14,55,-78,-12
5,-2,-6,-2,6,-3,8,13,14,55,-78,-11
5,-2,-5,-1,5,-3,8,13,14,56,-77,-11
4,-3,-5,0,5,-3,8,13,14,57,-76,-11
3,-3,-5,0,4,-4,8,13,14,57,-76,-11
2,-4,-5,0,4,-4,8,12,14,58,-76,-11
2,-4,-5,0,5,-4,8,12,14,59,-76,-9
2,-3,-5,0,4,-4,8,12,14,61,-75,-8
2,-3,-4,0,4,-3,8,12,14,61,-75,-7
3,-3,-5,0,4,-3,8,12,14,61,-74,-7
3,-3,-5,0,5,-4,8,12,14,62,-74,-8
3,-3,-5,0,5,-4,8,12,14,64,-74,-10
3,-3,-6,0,5,-4,8,12,13,65,-74,-11
3,-3,-6,0,5,-4,8,12,13,66,-74,-13
3,-3,-6,0,5,-4,8,12,13,67,-74,-13
4,-3,-6,0,5,-4,8,12,13,68,-74,-13
4,-3,-6,0,5,-4,8,12,13,68,-74,-13
4,-3,-6,0,5,-4,8,12,13,69,-74,-12
5,-2,-6,-1,6,-4,8,13,13,70,-74,-11
5,-2,-6,-1,6,-4,8,13,14,71,-74,-11
4,-2,-6,-1,5,-4,9,13,14,72,-74,-10
3,-2,-5,0,4,-4,9,13,15,72,-75,-8
2,-3,-4,0,4,-4,10,15,16,74,-75,-6
2,-3,-4,0,3,-4,10,18,19,76,-74,-1
2,-3,-5,0,4,-4,11,21,22,80,-72,4
4,-3,-7,-1,6,-5,10,23,25,85,-68,12
7,-4,-11,-1,9,-8,8,23,27,91,-61,21
10,-6,-16,-1,13,-11,5,24,30,100,-52,31
12,-8,-20,-2,16,-14,2,25,34,110,-41,42
16,-9,-25,-3,21,-17,0,27,39,122,-29,55
20,-10,-30,-5,25,-20,-3,29,44,134,-17,68
24,-11,-35,-6,30,-23,-6,31,49,148,-3,82
29,-11,-40,-8,35,-26,-8,36,56,170,10,97
35,-11,-46,-11,41,-29,-10,42,65,192,25,111
41,-10,-51,-15,46,-30,-10,51,76,203,39,125
47,-8,-54,-18,51,-31,-10,60,85,210,50,135
50,-6,-56,-21,53,-31,-8,67,90,213,54,139
51,-5,-55,-22,53,-30,-6,70,90,207,47,136
49,-6,-54,-21,52,-30,-1,70,84,191,30,124
45,-8,-53,-18,50,-31,4,67,74,167,5,107
39,-11,-50,-14,45,-30,10,62,61,141,-22,87
31,-12,-43,-10,37,-27,16,51,45,112,-52,64
20,-13,-33,-4,26,-22,22,32,22,78,-84,37
8,-14,-21,3,14,-17,26,6,-4,44,-117,9
-3,-15,-12,9,4,-13,28,-20,-30,15,-144,-16
-11,-17,-5,14,-3,-11,27,-44,-52,-4,-164,-35
-19,-18,1,18,-9,-9,25,-65,-68,-16,-178,-50
-26,-18,7,22,-16,-6,20,-82,-81,-24,-186,-60
-31,-18,12,25,-21,-3,15,-96,-91,-28,-190,-65
-34,-19,15,27,-24,-3,9,-108,-99,-32,-192,-68
-35,-20,15,28,-25,-3,2,-119,-107,-33,-192,-68
-34,-22,13,29,-24,-4,-5,-125,-112,-33,-190,-68
-34,-25,10,30,-22,-7,-11,-127,-113,-30,-187,-68
-33,-29,6,31,-19,-11,-14,-125,-112,-25,-181,-66
-32,-31,2,32,-16,-15,-16,-119,-107,-17,-174,-63
-30,-33,-1,31,-14,-17,-16,-111,-100,-7,-167,-59
-28,-33,-5,31,-11,-19,-15,-101,-92,1,-159,-53
-25,-34,-8,30,-8,-20,-14,-89,-82,9,-151,-48
-22,-33,-10,28,-6,-21,-13,-76,-71,19,-142,-43
-18,-30,-11,25,-3,-20,-10,-62,-59,29,-133,-37
-14,-27,-11,21,-1,-19,-8,-49,-47,41,-123,-31
-11,-24,-11,18,0,-18,-5,-37,-36,52,-114,-25
-8,-20,-11,15,2,-16,-3,-26,-27,62,-105,-19
-5,-16,-11,11,3,-14,0,-18,-20,70,-97,-14
-3,-12,-11,8,4,-12,1,-10,-13,77,-91,-8
-1,-9,-9,6,4,-9,2,-4,-6,82,-85,-4
-1,-7,-6,4,3,-6,3,1,-1,87,-81,-1
0,-5,-5,3,3,-4,3,4,3,91,-77,1
1,-3,-3,2,3,-3,4,7,6,97,-74,2
1,-2,-3,1,3,-3,5,9,8,109,-71,2
1,-2,-3,0,3,-3,6,11,9,115,-68,2
1,-1,-2,0,2,-2,6,12,11,113,-65,2
0,0,-1,0,1,0,7,13,12,112,-63,2
1,1,0,0,1,1,7,14,14,114,-61,2
1,2,0,-1,1,2,7,14,14,115,-59,1
1,2,1,-1,1,2,7,14,15,114,-59,1
0,1,1,-1,0,2,8,15,15,113,-58,0
0,1,2,-1,0,2,8,15,15,114,-57,0
0,1,2,-1,0,2,9,14,15,116,-56,-1
0,2,2,-1,0,2,9,14,15,117,-54,-1
0,2,1,-1,0,2,9,14,15,118,-53,0
1,3,1,-2,1,2,9,14,15,119,-52,1
2,3,1,-2,1,2,9,14,15,120,-51,2
2,3,2,-2,1,3,9,15,15,121,-50,3
1,3,3,-2,0,3,9,15,16,122,-49,4
0,3,3,-1,-1,3,9,15,16,123,-48,3
0,3,3,-2,0,3,9,15,16,124,-47,3
1,4,3,-3,0,4,9,15,16,124,-46,2
2,5,3,-3,0,4,9,15,16,136,-45,0
2,4,3,-3,0,4,9,15,16,177,-44,-1
2,4,2,-2,0,3,8,15,16,211,-44,-2
2,3,2,-2,1,3,8,14,16,213,-44,-3
3,4,2,-3,1,3,7,14,16,203,-43,-4
5,6,2,-5,2,4,7,15,17,190,-42,-5
6,7,2,-6,3,5,7,16,17,174,-41,-5
6,8,2,-6,2,5,8,17,18,163,-39,-5
5,8,3,-6,2,6,8,18,19,158,-37,-4
6,9,4,-7,2,6,9,18,19,156,-36,-4
6,9,4,-7,2,6,9,19,20,155,-35,-3
7,9,3,-7,2,6,9,20,20,155,-34,-3
6,9,4,-7,2,7,9,21,21,155,-33,-4
4,9,5,-6,0,7,9,21,21,155,-33,-4
2,7,5,-4,-1,6,9,21,21,154,-32,-5
1,6,5,-3,-1,5,8,21,21,155,-32,-6
1,6,5,-3,-2,5,8,21,22,156,-30,-7
1,7,6,-3,-2,6,8,22,23,159,-29,-7
1,8,7,-4,-3,8,8,23,23,161,-27,-8
1,9,8,-5,-3,9,8,23,24,161,-26,-8
1,9,8,-5,-3,9,7,24,24,160,-26,-10
1,9,8,-5,-3,9,6,24,25,160,-26,-11
2,10,8,-6,-3,10,6,25,26,160,-25,-11
2,11,8,-7,-3,10,6,26,27,161,-24,-12
3,12,8,-7,-2,10,6,27,27,163,-23,-12
4,12,7,-8,-1,9,6,28,28,165,-21,-11
4,12,6,-8,-1,9,6,28,28,167,-20,-11
5,13,7,-9,-1,10,6,29,29,168,-18,-10
7,15,8,-11,0,12,6,30,30,170,-17,-9
8,16,8,-12,0,12,6,30,30,171,-16,-8
8,16,8,-12,0,12,5,31,31,172,-15,-8
7,15,8,-11,0,12,4,31,31,174,-15,-8
7,15,9,-11,-1,12,3,32,32,176,-13,-7
8,17,9,-12,0,13,3,32,32,178,-12,-6
9,17,8,-13,0,12,2,32,32,179,-11,-4
9,16,7,-12,0,12,1,32,32,181,-10,-2
8,15,8,-12,0,12,1,33,33,183,-8,0
8,16,9,-12,0,13,1,34,34,185,-7,3
9,18,10,-14,0,15,1,35,35,187,-5,5
11,20,10,-16,1,16,1,36,36,189,-3,6
12,22,9,-17,1,16,0,37,37,191,-2,7
13,23,9,-18,2,16,0,37,37,193,0,9
14,23,9,-18,2,16,0,38,38,195,1,11
14,23,9,-18,2,16,-1,38,38,197,2,14
13,23,10,-17,2,16,-1,39,38,198,3,16
12,22,10,-17,1,16,-2,39,38,198,4,18
12,21,10,-16,1,16,-3,40,38,199,4,19
12,22,10,-17,1,16,-4,41,38,200,5,20
13,23,10,-18,1,16,-4,42,38,202,6,21
13,23,10,-18,1,17,-3,42,38,204,7,22
14,25,10,-19,2,17,-3,43,39,206,8,23
16,26,10,-20,3,17,-3,43,39,207,9,23
17,26,9,-21,4,17,-4,43,39,207,9,24
17,26,9,-21,4,17,-4,43,39,208,10,25
16,25,9,-20,4,17,-4,43,39,209,10,26
16,25,9,-20,4,17,-4,43,39,210,11,27
18,26,8,-21,5,18,-4,43,38,211,11,28
17,27,9,-21,4,18,-4,43,38,212,11,29
16,26,10,-20,3,18,-4,42,38,214,12,30
15,25,10,-19,3,17,-4,42,37,215,12,30
15,25,9,-20,3,17,-3,42,37,215,12,31
16,25,9,-21,4,17,-3,41,37,215,12,31
16,25,9,-21,4,17,-2,41,36,215,12,30
15,24,9,-20,4,16,-2,40,35,215,11,30
15,24,9,-20,4,16,-1,40,35,216,11,29
16,24,8,-20,4,16,-1,40,35,217,11,29
17,24,8,-20,5,16,0,40,35,219,12,29
17,24,8,-20,5,16,0,40,35,220,12,28
16,23,7,-19,5,15,0,39,34,220,12,27
16,22,6,-18,5,14,0,38,33,219,11,26
15,21,5,-18,4,13,0,38,33,219,11,25
14,20,5,-17,4,13,0,37,32,219,11,25
13,19,5,-16,4,13,0,37,32,220,10,24
13,19,6,-16,3,13,0,36,32,220,10,23
13,19,7,-16,3,13,0,35,31,220,9,22
12,19,7,-15,2,13,1,35,30,220,7,21
11,19,8,-15,2,13,1,34,29,220,6,20
11,18,8,-14,1,13,2,33,29,220,5,20
10,17,7,-14,1,12,3,32,28,220,5,19
10,17,7,-14,1,12,3,32,27,221,4,19
10,16,7,-14,1,12,3,31,27,221,4,18
10,16,6,-13,2,11,3,30,26,222,3,18
9,14,6,-12,1,10,3,29,25,222,2,18
7,13,6,-10,1,9,4,27,23,222,1,18
7,12,6,-9,1,9,4,26,22,222,0,18
7,13,5,-10,1,9,5,25,22,222,0,19
8,13,5,-10,2,8,6,24,21,221,-1,19
8,13,4,-10,2,8,6,24,20,221,-1,19
8,13,5,-11,1,9,7,23,19,222,-2,19
8,13,5,-10,1,9,8,23,19,222,-3,18
7,12,5,-9,1,8,9,21,18,222,-4,18
6,10,5,-8,1,7,9,20,16,222,-5,17
4,9,5,-7,0,7,9,19,15,222,-6,18
3,8,5,-6,0,7,9,18,15,223,-6,18
3,8,5,-5,-1,6,9,18,14,222,-7,19
3,7,4,-5,-1,6,8,17,13,222,-7,19
3,7,4,-5,-1,5,8,16,12,222,-8,20
2,6,4,-4,-1,5,8,16,12,223,-8,20
2,5,4,-3,-1,5,8,15,11,224,-8,19
1,4,4,-2,-1,4,8,15,11,224,-9,19
0,4,4,-2,-1,4,8,14,10,225,-9,18
1,5,4,-3,0,4,8,14,10,226,-8,18
3,6,4,-5,0,5,9,13,10,227,-8,17
4,7,4,-6,0,5,9,13,10,228,-8,17
4,8,4,-6,0,5,10,13,10,229,-8,17
5,8,4,-7,0,6,10,13,9,230,-8,16
5,9,4,-7,0,6,10,13,9,231,-8,15
5,9,4,-7,1,6,10,12,9,232,-8,15
5,8,4,-7,1,6,10,12,8,233,-8,14
4,8,4,-6,0,6,10,12,8,233,-9,14
3,8,4,-6,0,6,10,12,8,234,-9,14
2,7,5,-5,-1,6,10,12,7,234,-9,14
0,6,5,-4,-2,5,10,11,7,235,-9,14
0,5,5,-3,-2,5,10,11,6,235,-10,14
0,5,4,-3,-1,4,10,11,6,236,-10,14
1,5,4,-4,-1,5,10,11,7,238,-10,14
1,5,4,-3,-1,5,10,11,7,239,-9,13
0,4,4,-3,-1,5,10,11,7,240,-9,13
1,5,4,-4,-1,5,10,11,7,241,-9,12
2,6,5,-4,-1,5,11,11,7,242,-9,12
1,6,5,-4,-1,6,11,11,7,243,-9,12
1,6,5,-4,-2,6,11,11,7,244,-9,12
2,7,5,-4,-1,6,12,11,7,245,-9,12
2,7,5,-5,-1,6,12,11,7,246,-8,13
3,7,5,-5,0,6,12,11,7,248,-8,13
3,7,4,-6,0,6,12,11,7,249,-7,14
4,7,4,-6,0,6,12,12,8,251,-7,15
3,8,4,-6,0,6,12,12,8,252,-6,16
3,8,5,-6,-1,6,12,13,8,253,-6,17
2,8,6,-6,-1,7,12,13,8,254,-5,18
1,8,6,-6,-2,7,12,13,9,256,-5,18
0,7,7,-5,-2,7,12,13,9,257,-5,18
-1,6,7,-3,-3,6,12,13,9,259,-5,18
-2,5,7,-2,-3,6,12,13,9,260,-5,18
-2,5,7,-1,-4,6,12,13,9,261,-5,18
-2,5,8,-1,-4,6,12,13,9,262,-5,18
-2,5,7,-2,-4,6,12,13,9,263,-4,18
-1,5,7,-2,-4,5,11,13,10,265,-4,18
-1,5,7,-2,-4,6,11,13,10,266,-3,18
-2,6,8,-2,-5,7,11,13,10,268,-3,18
-3,6,9,-1,-6,8,11,13,10,269,-2,17
-4,5,9,0,-6,8,12,13,10,270,-2,16
-4,5,9,0,-6,7,12,14,10,272,-1,16
-3,6,10,-1,-6,8,12,14,10,273,-1,17
-3,7,10,-2,-7,8,12,14,10,274,-1,17
-3,7,10,-2,-7,8,12,14,10,275,-1,16
-3,7,9,-2,-6,8,12,14,10,277,0,17
-2,7,9,-2,-5,8,12,13,11,278,0,17
-3,7,9,-2,-6,8,12,13,11,280,0,17
-3,7,10,-2,-6,8,12,14,11,281,0,17
-3,7,10,-2,-6,8,12,14,11,283,1,18
-3,6,9,-2,-6,8,12,14,11,285,1,19
-3,6,10,-1,-7,8,11,13,11,286,2,20
-4,7,11,-1,-7,9,11,13,11,287,2,21
-3,7,11,-2,-7,9,11,13,11,288,2,22
-2,8,10,-3,-6,9,10,12,11,289,2,23
-2,9,10,-4,-5,9,10,12,10,290,2,24
-2,9,10,-3,-5,9,9,11,10,291,2,24
-2,8,10,-3,-5,8,8,11,9,292,2,23
-2,7,9,-2,-5,7,7,10,9,293,2,23
-2,6,9,-2,-6,7,7,10,8,294,2,24
-2,6,9,-2,-6,7,6,9,8,295,3,25
-1,7,9,-3,-5,7,6,9,7,295,3,26
0,7,8,-3,-4,8,5,8,7,296,3,27
0,8,9,-4,-4,8,5,8,7,298,3,29
1,10,9,-6,-3,9,5,8,8,300,4,30
3,11,8,-7,-1,9,5,8,8,302,5,31
4,11,7,-7,-1,9,4,7,7,303,5,32
3,9,7,-6,-1,8,4,7,6,303,5,33
2,7,6,-5,-1,6,3,6,5,303,4,34
2,6,5,-4,0,5,3,6,4,303,4,36
2,5,4,-3,0,4,2,5,4,304,4,38
1,4,3,-2,0,3,2,4,3,305,4,40
0,3,3,-1,-1,3,3,4,3,306,4,42
0,3,3,-1,-1,3,3,4,3,308,4,43
0,3,4,-1,-1,3,4,4,3,309,4,45
0,3,4,-1,-2,3,4,5,4,311,4,46
-2,2,4,0,-3,3,5,5,4,312,5,47
-3,1,5,1,-4,3,5,5,3,312,5,47
-4,0,5,2,-4,3,6,4,3,313,4,47
-5,0,5,2,-4,2,6,4,2,313,3,47
-5,0,5,3,-4,2,6,4,2,314,2,47
-6,-1,5,3,-5,1,6,4,2,315,1,47
-7,-2,4,4,-5,0,7,3,1,316,1,48
-6,-2,4,3,-5,0,8,3,1,317,1,49
-5,-1,4,2,-4,1,9,4,1,319,1,51
-5,-1,4,2,-4,1,9,4,1,319,0,52
-5,-1,4,3,-4,1,10,4,1,320,0,54
-5,-2,3,3,-4,1,10,4,1,321,0,55
-7,-3,3,5,-5,0,10,4,0,322,0,56
-8,-4,4,6,-6,0,9,3,0,323,0,57
-9,-5,4,7,-6,0,9,3,0,324,-1,58
-10,-7,4,8,-6,-1,9,3,0,325,-1,59
-10,-8,3,9,-6,-2,9,2,-1,326,-2,61
-9,-8,3,9,-5,-2,9,2,-1,327,-2,62
-9,-8,2,9,-5,-3,9,2,-1,328,-2,63
-9,-8,2,8,-5,-3,9,3,-1,330,-2,64
-9,-7,2,8,-5,-3,9,3,-1,332,-1,65
-8,-7,1,7,-4,-3,9,4,-1,333,-1,67
-7,-6,1,6,-3,-3,9,4,-1,335,0,68
-7,-7,0,6,-3,-3,9,4,-1,337,0,69
-7,-7,0,7,-3,-3,9,4,-1,338,0,69
-7,-7,1,7,-4,-3,9,4,-1,339,-1,69
-7,-7,0,7,-4,-3,9,4,-1,339,-1,69
-9,-8,0,9,-4,-4,8,3,-2,340,-2,70
-11,-9,0,10,-5,-4,8,3,-2,342,-2,70
-11,-9,1,10,-6,-4,8,4,-2,343,-2,71
-10,-9,1,10,-5,-4,8,4,-2,345,-1,72
-9,-8,1,9,-5,-4,9,5,-1,347,-1,72
-8,-7,1,8,-4,-3,9,5,-1,349,0,72
-7,-7,1,7,-4,-4,9,6,-1,351,0,72
-8,-8,1,7,-4,-4,9,6,-1,351,0,72
-8,-8,1,7,-4,-3,9,6,-1,352,0,72
-8,-7,0,7,-3,-3,9,5,-1,353,0,71
-8,-8,0,7,-3,-4,9,5,-1,355,0,71
-8,-9,0,8,-3,-5,9,5,-1,357,0,71
-8,-9,0,8,-3,-5,9,5,-1,359,0,72
-7,-9,0,8,-3,-4,9,5,-1,360,0,73
-7,-8,0,8,-3,-4,9,5,-1,361,0,74
-7,-8,0,8,-4,-3,9,5,-1,362,0,75
-8,-7,1,7,-4,-3,10,6,-1,364,0,76
-7,-6,1,7,-3,-3,10,6,0,366,0,77
-7,-5,1,6,-3,-2,11,7,0,368,1,78
-6,-4,2,5,-3,-1,12,8,1,371,1,79
-4,-2,2,3,-3,-1,13,10,3,374,2,80
-5,-3,2,4,-3,-1,13,12,5,377,3,80
-8,-7,2,7,-5,-3,13,13,7,379,3,81
-9,-9,1,9,-5,-4,12,15,9,383,6,83
-8,-10,-2,9,-3,-6,12,16,12,389,11,88
-5,-11,-6,8,0,-8,10,18,15,398,19,95
-2,-11,-10,6,4,-10,7,19,19,408,28,104
1,-12,-14,5,8,-12,4,20,23,420,39,115
5,-13,-18,4,11,-14,1,22,28,433,51,127
11,-13,-23,1,16,-17,-2,25,34,447,64,139
17,-12,-28,-2,22,-20,-5,28,40,461,78,152
23,-11,-33,-6,27,-21,-6,35,49,477,93,166
30,-9,-38,-11,33,-23,-6,43,60,493,109,179
35,-9,-43,-14,39,-25,-6,53,71,509,122,192
40,-8,-47,-16,43,-27,-6,62,79,519,131,200
43,-7,-50,-18,46,-28,-4,68,83,521,131,203
42,-7,-49,-17,46,-27,0,69,80,512,121,197
38,-9,-47,-14,43,-28,4,67,70,493,100,183
33,-13,-46,-9,40,-29,10,62,57,468,75,166
25,-16,-42,-4,34,-29,15,54,43,441,48,146
16,-18,-34,0,25,-26,20,39,23,411,17,122
6,-18,-24,5,15,-20,25,14,-3,378,-15,96
-5,-19,-13,11,4,-15,29,-14,-31,347,-45,71
-14,-19,-5,16,-4,-11,29,-41,-56,324,-69,51
-21,-20,1,21,-11,-9,27,-65,-77,307,-87,35
-29,-22,7,26,-18,-8,22,-85,-92,297,-100,22
-35,-23,11,30,-23,-6,17,-101,-104,292,-107,14
-38,-24,13,31,-25,-5,11,-114,-113,290,-110,10
-39,-25,14,32,-26,-5,4,-126,-120,290,-111,9
-39,-27,13,32,-26,-7,-3,-134,-126,290,-110,9
-39,-29,10,34,-25,-9,-9,-138,-129,294,-108,11
-39,-32,7,35,-23,-12,-14,-137,-129,299,-104,14
-38,-35,3,36,-20,-16,-17,-133,-125,306,-99,17
-37,-37,0,37,-18,-19,-18,-125,-119,314,-94,22
-34,-38,-3,36,-15,-21,-18,-115,-111,324,-87,27
-31,-37,-7,34,-12,-22,-16,-103,-101,334,-79,34
-27,-36,-9,32,-9,-23,-14,-89,-89,346,-71,40
-24,-35,-10,30,-6,-23,-11,-74,-77,357,-62,47
-21,-34,-11,27,-4,-22,-7,-59,-64,369,-53,54
-17,-31,-11,24,-3,-21,-3,-45,-53,381,-44,61
-14,-27,-11,20,-1,-19,0,-33,-42,392,-36,68
-12,-23,-11,18,0,-18,1,-23,-33,402,-29,74
-10,-19,-10,15,0,-15,3,-15,-25,411,-22,80
-8,-16,-8,12,0,-13,5,-8,-18,419,-17,85
-7,-14,-6,11,0,-11,6,-2,-13,426,-12,89
-6,-12,-5,10,0,-9,6,2,-9,431,-9,91
-5,-11,-3,8,0,-7,7,5,-5,435,-6,94
-5,-9,-2,7,0,-6,8,8,-2,440,-4,96
-4,-8,-2,6,-1,-5,9,9,0,444,-2,98
-3,-6,-2,4,0,-4,9,10,0,447,-1,100
-3,-4,-1,3,0,-3,10,10,1,451,0,102
-2,-3,-1,3,0,-2,10,11,2,454,1,104
-2,-2,0,2,0,-1,10,12,3,457,2,105
-1,-2,0,2,0,-1,10,13,4,459,3,106
-2,-2,0,2,0,0,10,13,5,460,4,106
-2,-2,1,2,-1,0,10,13,5,462,4,107
-3,-2,1,2,-1,0,10,13,5,464,4,108
-3,-2,1,2,-2,0,11,14,5,466,4,109
-3,-2,1,2,-2,0,11,14,5,469,5,110
-2,-1,1,1,-1,0,10,14,5,472,5,111
-1,-1,1,1,-1,0,10,14,6,474,6,112
-1,0,2,1,-1,1,10,14,6,476,7,112
-1,0,2,1,-1,1,10,15,7,478,7,112
-2,0,2,1,-1,1,10,15,7,479,8,113
-2,0,2,1,-1,1,10,16,8,481,8,113
-1,0,1,0,0,1,11,16,8,483,8,114
0,1,1,0,0,1,11,16,8,486,8,116
0,2,1,-1,0,1,11,16,9,489,9,117
1,2,1,-2,0,1,11,16,9,491,9,117
1,1,1,-1,0,1,11,16,9,493,9,118
0,1,1,-1,0,2,10,16,9,494,9,118
0,1,2,-1,0,2,10,16,9,495,9,118
-1,0,2,0,0,1,10,16,9,497,9,118
-2,-1,2,1,-1,0,9,16,9,498,9,118
-3,-2,2,2,-2,0,8,16,8,500,9,119
-4,-2,2,2,-2,0,8,16,8,503,9,120
-4,-2,2,2,-2,0,7,16,9,506,10,121
-3,-2,2,2,-2,0,7,16,9,509,11,122
-2,-1,2,1,-1,0,7,16,10,511,11,123
-1,0,2,0,-1,1,7,17,11,513,12,123
0,1,2,-1,0,1,7,18,12,516,12,123
0,2,2,-2,0,2,7,19,12,518,13,123
1,2,2,-2,0,2,7,20,13,521,14,123
1,2,2,-2,0,2,7,20,13,524,14,123
1,2,2,-2,0,2,7,21,13,527,15,123
1,3,2,-2,0,2,7,22,14,530,16,123
2,3,2,-3,1,2,7,22,15,532,17,123
2,3,2,-3,1,2,7,22,15,534,17,122
2,3,2,-3,0,3,7,23,16,536,18,121
1,4,3,-3,0,3,7,24,17,538,19,120
2,4,3,-3,0,3,7,25,17,541,20,119
3,5,2,-4,1,3,7,25,18,544,21,118
3,6,2,-5,1,3,7,26,18,547,21,118
3,5,2,-5,1,3,7,26,19,550,22,119
3,5,2,-5,1,3,7,27,19,552,22,120
3,6,3,-5,1,4,6,27,20,555,23,121
3,7,3,-6,1,5,6,28,21,557,25,122
4,7,3,-6,1,5,5,29,22,560,26,122
5,8,3,-7,2,5,4,30,22,563,26,122
5,8,3,-7,2,5,4,30,23,566,27,122
6,9,3,-7,2,6,4,31,24,569,28,121
7,10,4,-9,2,7,4,32,25,573,29,122
9,12,4,-11,3,8,4,32,25,577,30,122
9,13,4,-12,3,8,3,33,26,579,31,122
10,14,4,-13,3,9,3,34,27,582,33,122
11,16,5,-14,3,10,3,35,28,585,34,123
12,16,5,-14,3,11,2,36,28,588,35,124
12,17,5,-15,3,11,2,36,29,591,36,126
12,17,5,-15,4,11,1,37,30,595,37,128
13,18,5,-16,4,12,1,37,30,598,38,129
13,18,5,-17,4,12,0,37,30,601,38,129
14,19,5,-17,5,12,0,37,30,603,39,129
14,20,6,-17,4,13,0,37,31,606,39,127
14,21,8,-18,4,14,0,37,31,608,40,126
15,22,9,-18,4,15,0,37,31,611,41,125
15,22,9,-19,4,16,-1,37,31,613,41,124
15,22,9,-19,4,15,-1,37,31,616,41,123
15,22,9,-19,3,15,-1,37,31,619,41,122
14,22,8,-18,3,15,-1,37,31,621,42,121
13,21,8,-17,3,15,-2,37,31,623,42,120
13,20,7,-17,3,14,-2,37,31,625,42,119
13,20,7,-17,3,14,-2,36,31,626,41,118
14,20,6,-17,4,13,-2,36,30,628,41,117
13,20,7,-17,3,13,-1,36,30,631,42,117
13,20,8,-17,3,14,-1,35,30,634,42,116
13,20,7,-17,3,14,-1,35,30,636,42,115
13,19,7,-16,3,13,0,34,30,638,42,114
12,18,6,-15,3,13,0,34,29,640,42,114
12,17,5,-15,3,12,0,34,29,642,42,114
12,17,5,-15,4,11,0,33,29,644,42,114
13,16,4,-15,4,10,0,33,29,646,41,114
13,16,4,-15,5,10,0,33,28,648,41,113
13,16,4,-14,5,9,0,33,28,650,41,112
12,15,3,-14,4,9,0,33,28,653,41,111
12,14,4,-13,4,9,1,32,28,656,40,110
12,16,5,-14,4,10,1,32,28,658,40,109
13,17,5,-16,4,12,1,31,28,660,40,109
13,18,6,-16,4,12,2,31,28,662,39,109
12,18,7,-15,3,13,2,30,27,663,38,108
10,17,7,-14,1,13,2,29,26,665,37,108
9,16,7,-13,1,12,2,28,25,666,36,107
8,15,7,-12,0,12,2,26,24,668,35,106
7,14,8,-11,0,11,2,25,23,669,33,105
7,14,8,-11,0,11,2,24,22,670,32,103
7,14,8,-11,0,11,3,24,21,672,31,102
8,14,7,-11,1,10,3,23,20,673,30,101
7,14,6,-11,1,10,4,22,20,674,29,100
7,13,6,-10,1,10,4,21,19,675,28,99
7,13,6,-10,1,10,4,20,18,677,28,98
7,13,6,-10,0,10,5,20,18,679,27,97
6,11,6,-8,0,9,5,19,17,681,27,97
4,9,6,-7,0,8,6,18,15,683,26,95
3,8,6,-5,0,7,6,17,14,684,24,93
2,6,5,-4,0,5,6,15,12,684,22,91
1,4,4,-2,-1,4,5,14,10,685,21,90
0,2,4,0,-2,3,5,12,9,686,20,88
-2,0,4,1,-3,3,5,11,8,687,19,87
-3,-1,3,2,-3,2,5,10,7,689,18,86
-3,-1,3,2,-3,1,5,10,7,691,18,86
-3,-1,3,2,-3,1,5,9,6,693,17,86
-3,-1,3,2,-3,1,5,8,5,696,17,86
-3,-1,3,2,-3,1,5,8,5,698,16,86
-3,-1,3,2,-3,1,5,7,4,700,16,86
-4,-2,3,3,-3,1,5,6,3,701,15,86
-5,-2,3,3,-3,1,5,5,2,703,15,85
-4,-2,3,3,-3,1,5,5,2,705,15,84
-2,0,2,1,-2,1,6,5,2,708,15,83
-1,0,2,0,-1,1,6,5,2,711,15,82
-2,0,2,1,-2,1,6,4,1,713,14,82
-3,-1,3,2,-3,1,6,4,1,716,14,81
-3,-1,3,2,-3,1,6,4,1,719,14,80
-3,-1,3,2,-3,1,5,4,1,721,14,79
-3,-1,2,2,-2,1,5,3,1,723,13,78
-3,-1,2,2,-2,1,6,3,1,725,13,77
-4,-1,3,3,-3,2,7,3,1,727,13,76
-4,-1,4,3,-4,2,7,3,1,730,12,75
-4,-1,3,2,-3,1,7,3,0,732,12,74
-2,0,3,1,-2,1,7,3,0,735,11,74
-1,0,2,0,-1,2,8,3,0,738,11,73
-1,0,3,0,-2,2,8,3,0,740,12,73
-3,-1,3,2,-3,1,8,3,0,743,11,72
-5,-2,3,4,-4,1,7,2,0,745,11,70
-6,-3,3,4,-4,0,7,1,-1,747,10,69
-6,-3,3,4,-4,0,6,1,-1,750,9,68
-6,-3,4,4,-4,0,6,1,-1,752,9,67
-6,-3,4,4,-4,0,5,1,-1,755,9,67
-6,-3,4,4,-4,0,5,1,-1,758,9,66
-6,-3,4,4,-5,0,5,1,-1,761,9,67
-6,-3,4,4,-5,1,6,1,-1,765,9,67
-5,-2,3,3,-4,1,6,1,0,768,9,68
-4,-2,3,2,-3,1,7,1,0,772,10,69
-4,-1,3,2,-3,1,7,2,0,775,10,70
-5,-1,4,2,-4,1,7,2,1,779,11,70
-6,-1,5,3,-5,1,7,3,1,782,11,71
-6,-1,5,3,-5,1,7,3,1,785,11,71
-5,-1,4,2,-4,1,7,3,1,788,11,72
-5,-1,3,2,-4,1,7,3,1,792,11,72
-5,-1,4,3,-4,1,7,3,1,795,11,73
-6,-1,5,3,-5,1,7,3,2,799,11,74
-6,-1,5,3,-5,1,7,3,2,803,12,75
-6,-1,5,3,-5,2,7,3,3,807,13,76
-6,-1,5,3,-5,2,7,3,3,810,14,77
-5,-1,5,3,-5,2,7,4,3,814,14,78
-5,0,6,2,-5,3,7,4,4,817,14,78
-4,1,6,1,-5,4,8,5,4,821,15,79
-2,3,6,0,-4,5,9,5,5,825,15,80
-2,5,7,-1,-4,6,9,6,5,828,16,81
-2,5,7,-2,-4,6,9,6,5,831,16,81
-1,5,7,-2,-4,6,9,6,5,835,17,81
-1,5,7,-2,-3,6,9,6,5,838,17,81
-1,5,7,-2,-3,6,9,6,5,842,17,80
-1,5,7,-2,-3,6,8,6,5,845,17,80
-1,6,8,-2,-3,6,8,6,5,849,17,79
-1,6,8,-2,-4,7,8,6,6,852,17,79
-2,6,9,-1,-5,7,8,7,6,856,18,79
-3,6,9,-1,-5,8,8,7,7,859,18,79
-3,7,9,-2,-5,8,7,6,7,863,18,79
-1,7,9,-3,-5,8,7,6,6,866,18,78
0,7,8,-3,-4,8,6,5,6,869,18,77
0,7,8,-3,-4,7,6,5,6,872,18,77
-1,6,8,-3,-4,7,5,4,5,875,18,76
0,6,6,-3,-3,7,4,3,4,878,18,75
0,6,6,-4,-3,6,3,2,4,882,18,75
-1,6,7,-3,-4,7,3,2,4,886,19,75
-2,6,8,-2,-5,7,2,2,4,890,20,75
-2,7,8,-2,-4,7,2,2,4,893,20,75
0,7,8,-3,-3,7,1,2,4,896,20,75
0,7,8,-4,-3,7,1,2,4,900,20,75
0,7,8,-3,-4,7,0,2,4,903,20,74
0,7,7,-3,-4,7,0,1,3,906,20,74
0,7,6,-3,-3,7,0,1,3,909,19,74
1,6,5,-4,-1,6,-1,0,2,912,19,73
2,6,4,-4,0,5,-2,-1,1,915,18,73
2,5,3,-3,0,4,-2,-2,1,918,18,72
2,3,2,-2,0,2,-3,-2,0,921,17,71
2,2,1,-1,0,1,-3,-2,0,924,17,70
1,2,2,-1,0,2,-3,-2,0,927,17,69
0,1,2,0,-1,2,-2,-2,0,931,16,68
-1,1,2,0,-1,2,-2,-2,0,935,16,68
-1,1,3,0,-1,3,-1,-1,0,939,17,68
-1,2,4,0,-2,4,0,-1,0,944,17,67
-2,2,4,0,-2,4,0,-1,0,947,16,66
-3,1,4,1,-3,3,1,-2,0,950,16,65
-3,1,4,1,-3,3,1,-2,0,953,15,65
-2,1,4,0,-3,3,2,-2,0,956,15,64
-3,1,4,1,-3,3,2,-2,0,959,15,64
-3,1,4,1,-3,2,3,-3,-1,962,14,63
-3,0,3,1,-3,2,3,-3,-1,966,14,62
-3,0,3,1,-3,2,4,-4,-1,970,13,61
-4,0,3,2,-3,1,4,-4,-1,974,13,61
-4,-1,3,2,-3,1,4,-4,-1,978,13,60
-4,-1,3,3,-3,0,4,-4,-1,981,13,60
-4,-2,3,3,-3,0,4,-4,-1,984,12,59
-4,-2,2,3,-3,0,5,-4,-1,988,12,59
-4,-3,2,4,-3,0,5,-4,-2,991,11,58
-5,-4,1,4,-3,-1,5,-4,-2,994,10,57
-7,-5,2,6,-4,-1,5,-4,-3,998,9,57
-9,-6,3,7,-5,-1,5,-5,-3,1001,9,57
-11,-7,3,9,-6,-1,4,-5,-3,1005,8,57
-12,-8,3,10,-7,-2,4,-5,-3,1009,8,57
-12,-8,3,10,-7,-2,4,-5,-3,1013,8,58
-11,-7,3,9,-6,-2,4,-5,-3,1017,9,58
-11,-7,3,9,-7,-2,4,-5,-3,1021,9,58
-11,-8,3,10,-7,-2,4,-6,-4,1024,9,58
-11,-9,2,10,-7,-3,4,-6,-4,1028,9,58
-10,-8,2,9,-6,-3,4,-6,-4,1032,9,58
-9,-8,1,8,-5,-3,5,-6,-4,1036,9,58
-9,-8,1,8,-5,-3,5,-6,-4,1040,9,58
-9,-8,2,8,-5,-3,5,-6,-4,1044,9,58
-10,-8,3,8,-6,-2,5,-6,-4,1049,9,58
-10,-8,3,9,-7,-2,5,-6,-3,1053,10,59
-10,-8,3,8,-6,-2,5,-5,-3,1058,10,59
-9,-7,2,7,-5,-2,5,-5,-3,1062,10,59
-8,-7,2,7,-5,-1,5,-5,-3,1066,10,58
-9,-7,2,7,-5,-2,5,-5,-3,1070,10,58
-10,-8,2,8,-5,-2,5,-5,-3,1074,10,57
-10,-7,2,8,-5,-2,6,-5,-3,1079,11,57
-8,-6,2,6,-4,-2,7,-4,-3,1084,12,57
-6,-4,2,5,-4,-1,7,-4,-2,1089,12,57
-8,-6,2,6,-5,-2,7,-4,-3,1093,12,56
-11,-10,2,10,-6,-4,6,-5,-4,1097,12,54
-13,-12,1,13,-7,-5,5,-6,-4,1100,12,53
-13,-13,1,13,-7,-6,5,-5,-4,1104,12,52
-13,-12,1,13,-7,-5,5,-5,-4,1108,11,51
-13,-11,2,12,-7,-5,5,-6,-4,1112,11,50
-13,-10,2,12,-7,-4,5,-6,-4,1117,11,49
-12,-9,3,11,-7,-3,6,-5,-3,1122,11,48
-12,-8,4,10,-7,-2,6,-4,-2,1127,12,48
-11,-8,4,9,-7,-2,7,-3,-1,1132,12,47
-10,-7,4,8,-7,-1,8,0,1,1139,13,47
-9,-7,3,7,-6,-2,9,2,4,1146,15,48
-9,-7,2,8,-5,-3,9,5,7,1153,18,50
-8,-8,0,8,-4,-5,8,7,10,1163,23,55
-6,-10,-4,8,-1,-7,6,8,13,1174,31,62
-3,-11,-8,8,2,-10,3,8,16,1187,40,70
0,-13,-13,7,6,-14,0,9,20,1201,51,80
2,-15,-18,7,10,-17,-3,10,24,1216,63,90
6,-16,-22,5,14,-20,-6,12,29,1232,76,102
11,-16,-27,3,19,-22,-9,16,36,1250,90,115
17,-15,-32,0,24,-23,-10,23,45,1269,104,128
23,-14,-37,-4,29,-25,-11,32,55,1288,119,142
28,-14,-42,-7,35,-27,-12,42,66,1306,132,154
34,-12,-46,-11,39,-29,-11,51,74,1319,140,162
37,-11,-47,-13,42,-29,-10,56,77,1324,140,164
36,-11,-47,-13,41,-29,-6,57,74,1317,128,157
32,-13,-45,-10,39,-29,-1,54,64,1300,107,143
27,-15,-43,-6,35,-29,5,49,51,1278,82,125
21,-16,-38,-3,30,-27,11,42,37,1258,56,105
13,-16,-29,0,21,-22,17,26,17,1237,26,81
3,-16,-19,5,11,-17,22,0,-9,1209,-6,55
-7,-16,-8,11,0,-12,25,-28,-37,1182,-36,29
-17,-18,0,17,-8,-9,26,-55,-60,1161,-59,8
-26,-20,6,23,-16,-7,23,-79,-79,1148,-76,-8
-34,-22,11,28,-22,-6,19,-98,-94,1142,-88,-20
-40,-23,15,32,-27,-5,14,-113,-105,1140,-94,-28
-43,-25,17,34,-30,-4,7,-126,-114,1140,-97,-32
-45,-26,18,35,-31,-4,0,-137,-121,1143,-98,-34
-45,-28,17,36,-31,-4,-7,-145,-126,1147,-97,-34
-45,-30,15,37,-30,-6,-14,-149,-129,1153,-95,-33
-45,-34,11,39,-28,-10,-19,-148,-129,1161,-92,-31
-44,-38,6,40,-25,-15,-21,-144,-125,1171,-87,-29
-42,-40,1,40,-21,-19,-22,-136,-119,1183,-81,-25
-40,-40,-1,39,-19,-20,-21,-125,-111,1196,-74,-20
-38,-40,-3,38,-16,-21,-20,-113,-101,1209,-66,-14
-36,-40,-4,37,-14,-22,-19,-100,-90,1223,-58,-8
-33,-39,-5,35,-12,-22,-16,-85,-78,1238,-50,-2
-29,-36,-6,32,-11,-21,-12,-70,-65,1253,-41,4
-26,-32,-6,28,-9,-19,-9,-56,-54,1268,-32,10
-23,-28,-6,25,-8,-17,-6,-45,-43,1283,-24,16
-20,-25,-5,22,-7,-15,-4,-34,-34,1296,-16,22
-17,-21,-5,19,-6,-12,-2,-25,-26,1309,-9,27
-14,-17,-3,15,-5,-10,0,-18,-20,1321,-4,32
-12,-14,-1,13,-5,-7,0,-12,-14,1331,0,35
-11,-11,0,11,-5,-5,2,-7,-9,1340,4,39
-10,-9,2,10,-6,-3,3,-4,-5,1348,6,41
-10,-8,3,9,-6,-2,3,-2,-3,1355,8,42
-11,-8,3,9,-7,-2,4,-1,-2,1362,9,42
-11,-8,3,9,-7,-2,4,0,-1,1368,10,42
-11,-7,3,8,-7,-1,4,0,0,1375,11,42
-10,-5,4,7,-7,0,4,1,1,1382,13,43
-8,-4,4,6,-6,0,4,1,2,1388,14,43
-7,-4,3,6,-5,0,4,2,2,1394,14,43
-7,-4,3,6,-5,0,4,2,3,1400,14,43
-7,-4,3,6,-5,0,4,2,3,1391,14,43
-7,-4,4,5,-5,0,4,2,3,616,15,42
-8,-3,4,5,-5,0,4,2,3,-441,15,42
-8,-3,3,5,-5,0,4,2,3,-982,16,42
-7,-3,3,5,-5,0,5,3,4,-673,16,42
-5,-2,3,3,-4,0,5,3,4,205,17,42
-4,0,4,2,-4,2,5,4,4,721,17,41
-5,0,5,2,-5,3,5,4,4,1026,17,41
-7,0,6,3,-6,3,5,4,4,1203,17,40
-7,-1,6,4,-6,3,4,4,5,1310,17,40
-7,-1,5,4,-6,2,4,4,5,1376,17,40
-7,-2,5,4,-5,1,4,4,5,1417,17,41
-7,-1,5,4,-5,2,4,5,5,1445,17,41
-6,0,6,3,-5,3,4,6,6,1463,18,42
-5,0,6,2,-5,3,4,7,6,1476,18,42
-5,0,6,2,-6,3,4,7,7,1486,18,42
-6,0,6,2,-6,3,4,7,7,1493,18,42
-5,1,6,2,-5,3,4,7,7,1501,18,42
-5,1,6,1,-5,4,3,7,8,1508,19,42
-5,1,6,1,-5,4,3,7,8,1515,20,41
-5,1,6,2,-5,3,2,7,8,1522,20,41
-5,1,5,2,-5,3,2,7,8,1528,20,41
-4,1,5,1,-4,3,2,8,8,1534,20,41
-4,1,6,1,-5,3,2,9,8,1539,20,41
-5,1,7,1,-6,4,2,10,9,1545,21,41
-4,2,7,0,-6,5,2,10,10,1552,21,42
-3,3,7,0,-5,5,2,11,10,1559,22,42
-3,3,6,0,-4,4,2,11,10,1566,22,42
-3,3,7,0,-5,4,2,12,11,1572,22,42
-4,3,7,0,-5,4,2,12,11,1579,22,42
-3,3,7,0,-4,4,2,12,11,1585,23,42
-3,2,7,0,-4,4,2,13,11,1591,23,43
-4,1,6,1,-5,4,1,13,11,1597,24,43
-5,0,6,2,-6,3,0,13,12,1603,24,43
-5,1,6,1,-5,4,0,14,13,1609,25,43
-3,3,6,0,-5,5,0,15,13,1616,25,43
-2,5,7,-1,-4,6,0,16,14,1624,26,42
-1,6,7,-3,-4,6,0,16,14,1631,26,42
0,7,7,-4,-3,7,0,17,15,1638,27,41
0,8,7,-4,-3,7,0,18,16,1645,28,41
0,7,8,-4,-3,7,0,19,17,1652,29,40
0,7,8,-4,-4,8,0,20,18,1658,30,40
0,8,8,-4,-4,8,0,20,18,1665,31,39
1,9,8,-5,-3,9,-1,21,19,1673,33,39
2,10,8,-6,-3,9,-1,22,20,1681,34,39
2,11,8,-7,-3,10,-1,22,21,1689,35,39
4,12,8,-8,-2,10,-1,23,22,1697,36,40
5,14,8,-10,-1,11,-1,24,23,1704,38,41
6,14,8,-10,-1,11,-1,25,24,1711,39,42
7,14,7,-11,0,11,-2,26,24,1718,40,42
8,15,7,-12,0,11,-3,27,25,1725,41,42
8,15,7,-12,1,11,-5,26,25,1733,41,41
8,15,7,-12,0,11,-6,26,25,1740,42,41
8,15,7,-12,0,11,-6,27,25,1748,43,41
7,16,8,-12,0,12,-5,27,26,1756,44,41
6,16,9,-11,-1,12,-5,28,27,1764,45,41
6,15,9,-11,-1,12,-5,28,27,1770,45,41
7,15,9,-12,-1,12,-5,28,26,1777,46,40
8,17,9,-13,0,12,-5,28,26,1783,46,40
9,18,9,-14,0,13,-5,28,27,1791,47,39
10,18,9,-15,1,13,-5,28,27,1799,48,38
10,19,9,-15,1,14,-5,28,28,1807,48,37
11,20,9,-16,1,14,-5,28,28,1815,49,36
12,21,9,-16,2,14,-5,28,28,1822,49,36
12,21,9,-17,2,14,-5,28,28,1828,50,35
12,22,9,-17,2,15,-5,28,29,1835,50,35
12,22,9,-18,2,15,-5,28,29,1842,50,35
12,22,10,-18,1,16,-5,27,28,1849,50,34
11,22,10,-17,0,16,-5,27,28,1856,50,33
10,21,9,-16,0,15,-5,27,28,1863,50,32
10,20,8,-15,0,14,-5,26,27,1870,49,31
9,19,8,-14,0,14,-5,25,27,1877,49,31
9,18,8,-13,0,13,-6,24,26,1884,48,30
9,18,9,-13,0,13,-5,24,26,1890,48,29
8,18,10,-13,-1,14,-5,24,25,1897,48,29
8,18,10,-13,-1,14,-4,24,25,1904,48,29
8,18,10,-13,-1,14,-4,24,25,1911,48,29
8,18,10,-13,-1,14,-4,23,25,1919,48,28
7,17,9,-12,-1,13,-4,23,25,1926,48,28
5,15,9,-10,-2,12,-4,22,24,1933,47,28
3,13,9,-9,-2,12,-4,21,24,1940,46,27
4,13,8,-9,-2,11,-4,21,23,1947,45,27
5,14,8,-10,-1,11,-4,20,22,1954,45,27
6,15,8,-11,0,11,-3,20,22,1961,45,27
6,15,8,-11,-1,11,-3,20,22,1969,45,27
6,15,8,-11,-1,11,-3,19,22,1976,45,27
6,15,8,-10,-1,11,-2,19,21,1984,44,26
6,15,8,-10,-1,11,-1,19,21,1991,44,25
5,14,9,-9,-2,12,0,18,21,1998,43,24
4,13,9,-8,-2,11,0,17,19,2004,41,22
3,11,8,-7,-3,10,0,15,18,2010,40,20
2,9,7,-5,-3,8,0,14,17,2016,38,18
1,7,6,-4,-3,7,0,13,16,2023,36,16
1,7,6,-4,-3,6,0,11,14,2029,35,14
0,6,6,-3,-3,6,0,10,13,2036,34,12
-1,6,7,-3,-4,6,0,9,12,2043,33,11
-2,6,7,-2,-4,6,1,9,11,2050,32,9
-2,6,7,-2,-4,6,2,8,11,2056,32,8
-2,5,7,-2,-4,6,2,7,9,2063,30,7
-2,5,7,-2,-4,6,2,6,8,2070,29,5
-2,4,6,-2,-4,5,2,5,7,2077,28,4
-2,4,6,-1,-4,5,2,4,6,2085,28,2
-3,3,6,0,-5,4,2,3,5,2092,27,0
-5,2,6,1,-5,4,3,2,5,1265,27,0
-5,1,6,2,-5,4,3,2,4,-59,27,-2
-5,0,5,2,-5,3,3,1,3,-842,26,-3
-5,0,5,2,-5,2,3,0,2,-1305,25,-4
-5,0,5,2,-4,2,3,0,1,-1576,24,-5
-4,1,4,1,-4,3,3,-1,1,-1733,24,-5
-3,1,4,0,-3,3,4,-1,1,-1823,24,-6
-4,0,4,2,-4,2,4,-2,0,-1874,23,-6
-7,-3,4,5,-5,0,3,-3,0,-1902,22,-7
-9,-5,4,6,-6,0,3,-3,0,-1915,21,-7
-9,-5,3,7,-5,-1,3,-3,-1,-1920,21,-6
-8,-6,2,6,-5,-1,3,-3,-1,-1920,21,-6
-8,-5,3,6,-5,-1,3,-4,-2,-1917,20,-6
-9,-5,4,6,-6,0,3,-4,-2,-1912,20,-6
-9,-5,4,6,-6,0,3,-4,-2,-1906,19,-6
-8,-4,4,6,-6,0,3,-4,-2,-1900,19,-7
-8,-4,4,6,-6,0,3,-4,-3,-1893,19,-7
-8,-4,3,6,-6,0,3,-4,-3,-1886,18,-8
-7,-4,3,5,-5,0,3,-4,-3,-1879,18,-8
-6,-3,2,4,-4,0,3,-4,-3,-1871,18,-7
-6,-2,3,3,-4,0,4,-4,-3,-1863,18,-7
-7,-2,4,4,-5,1,4,-4,-3,-1855,18,-7
-7,-3,4,4,-6,1,4,-5,-4,-1848,18,-7
-8,-4,4,5,-6,0,3,-6,-4,-1841,18,-8
-8,-4,4,5,-6,0,3,-6,-4,-1834,18,-8
-8,-3,4,5,-6,1,3,-5,-4,-1826,18,-8
-8,-3,4,5,-5,1,3,-5,-4,-1818,18,-8
-8,-3,4,6,-6,1,3,-4,-4,-1810,18,-8
-9,-4,5,6,-6,1,4,-4,-3,-1802,18,-8
-9,-4,4,6,-6,0,4,-4,-3,-1794,18,-8
-8,-4,4,6,-6,0,5,-4,-2,-1786,19,-8
-8,-4,4,6,-6,0,5,-4,-2,-1779,19,-8
-7,-4,3,6,-5,0,5,-4,-2,-1772,19,-8
-7,-4,2,6,-4,0,5,-3,-2,-1764,19,-8
-7,-4,3,5,-4,0,5,-3,-2,-1756,20,-8
-7,-3,3,5,-5,0,5,-3,-2,-1748,20,-7
-7,-3,4,5,-5,0,5,-3,-1,-1740,21,-7
-7,-3,4,5,-5,0,5,-3,-1,-1733,21,-8
-7,-3,4,4,-5,1,5,-3,-1,-1726,20,-8
-6,-2,4,4,-5,1,5,-3,-1,-1719,21,-8
-6,-2,4,4,-5,2,5,-3,0,-1712,21,-9
-7,-2,5,4,-6,2,5,-3,0,-1704,22,-9
-7,-1,5,4,-6,2,5,-3,0,-1696,22,-9
-6,0,6,3,-6,3,5,-3,0,-1688,23,-9
-5,0,6,2,-5,4,5,-2,0,-1679,23,-9
-5,0,6,2,-6,4,5,-2,0,-1671,24,-9
-5,1,6,1,-6,4,5,-1,1,-1663,24,-9
-4,1,6,1,-6,4,6,0,1,-1656,25,-8
-4,2,6,1,-6,5,7,0,2,-1648,26,-7
-4,2,6,0,-6,5,7,0,2,-1641,26,-7
-4,2,6,0,-5,4,7,0,2,-1633,27,-6
-4,2,6,0,-5,4,7,0,3,-1625,28,-6
-4,3,7,0,-5,4,7,1,3,-1617,29,-5
-3,4,7,0,-6,5,7,1,3,-1609,29,-4
-3,4,7,0,-6,5,7,1,3,-1602,29,-4
-4,4,8,0,-6,6,7,1,4,-1595,30,-4
-5,4,9,0,-7,7,7,1,4,-1589,30,-4
-5,4,10,0,-7,7,7,1,4,-1582,31,-4
-5,4,10,0,-7,7,7,1,4,-1575,31,-3
-5,4,9,0,-7,7,6,0,4,-1568,32,-3
-4,4,9,0,-6,7,4,0,4,-1561,32,-3
-3,4,8,-1,-5,6,3,-1,3,-1555,31,-3
-2,5,7,-2,-4,6,3,-2,2,-1548,31,-3
0,6,6,-3,-3,7,2,-3,2,-1541,32,-2
0,6,6,-3,-2,6,2,-3,2,-1534,33,-1
0,5,5,-2,-2,5,1,-3,2,-1527,33,-1
-2,4,6,-1,-3,5,0,-3,1,-1521,33,0
-2,4,6,-1,-3,5,0,-3,1,-1514,34,0
-1,5,6,-2,-3,5,0,-4,1,-1506,34,0
-1,5,6,-2,-3,5,-1,-5,1,-1500,34,1
-1,5,6,-2,-3,5,-2,-6,0,-1494,34,1
-1,4,5,-2,-3,5,-3,-7,-1,-1488,33,2
-1,4,4,-2,-3,4,-4,-8,-2,-1483,33,2
-1,3,3,-1,-2,3,-4,-8,-2,-1478,32,2
-1,1,1,-1,-1,1,-4,-9,-3,-1473,31,2
0,1,1,0,-1,1,-3,-9,-4,-1467,30,2
0,2,2,-1,-1,2,-3,-8,-4,-1460,30,1
0,2,2,-1,0,2,-2,-8,-3,-1453,31,1
2,2,1,-2,0,2,-2,-8,-3,-1446,31,0
2,3,0,-2,1,2,-1,-8,-3,-1440,32,0
2,3,1,-2,1,2,0,-7,-2,-1434,33,0
1,3,2,-2,0,2,1,-7,-2,-1427,34,0
0,3,2,-2,0,2,1,-7,-2,-1421,34,0
0,2,2,-2,-1,2,2,-7,-2,-1415,34,0
0,2,3,-1,-1,3,3,-7,-2,-1409,34,0
-2,1,3,0,-2,3,3,-7,-2,-1403,33,-1
-3,0,3,1,-3,2,3,-8,-3,-1398,32,-2
-5,-2,3,3,-3,0,3,-8,-4,-1393,31,-4
-6,-3,2,4,-3,0,4,-8,-4,-1388,30,-5
-6,-4,2,5,-4,-1,4,-8,-5,-1382,30,-5
-7,-6,2,6,-4,-2,4,-9,-5,-1377,29,-6
-9,-7,1,8,-5,-3,4,-9,-6,-1372,28,-7
-9,-8,1,8,-5,-3,5,-10,-6,-1366,27,-7
-10,-9,1,9,-6,-3,5,-10,-6,-1360,27,-8
-11,-9,1,9,-6,-3,5,-10,-6,-1354,26,-8
-10,-9,1,9,-6,-3,5,-10,-6,-1347,26,-8
-10,-9,0,9,-5,-3,5,-10,-7,-1341,25,-9
-9,-8,0,8,-4,-3,6,-10,-6,-1335,26,-8
-8,-7,0,7,-4,-2,6,-9,-6,-1328,26,-7
-7,-6,0,6,-4,-2,7,-9,-6,-1323,26,-7
-7,-6,0,7,-4,-2,7,-10,-6,-1317,26,-7
-8,-7,0,7,-4,-2,8,-10,-6,-1311,25,-7
-8,-8,0,8,-4,-3,8,-10,-6,-1305,25,-7
-8,-8,0,8,-4,-3,8,-10,-6,-1300,24,-7
-9,-9,0,8,-4,-3,8,-11,-7,-1295,23,-7
-11,-10,0,10,-5,-4,8,-11,-7,-1290,23,-7
-11,-12,0,11,-5,-5,7,-11,-7,-1284,23,-7
-11,-11,0,10,-5,-5,6,-12,-8,-1279,22,-7
-9,-10,0,9,-4,-5,6,-12,-8,-1274,22,-6
-8,-9,-1,8,-3,-4,6,-12,-8,-1268,22,-5
-8,-8,0,8,-3,-4,6,-11,-8,-1262,22,-4
-8,-7,1,7,-4,-3,6,-11,-7,-1255,23,-3
-8,-7,1,7,-4,-2,7,-10,-7,-1248,24,-1
-8,-7,1,7,-4,-2,8,-10,-6,-1242,25,0
-8,-8,0,8,-4,-3,8,-10,-6,-1236,25,1
-9,-9,0,9,-4,-3,9,-10,-6,-1231,25,2
-8,-9,0,9,-4,-4,9,-9,-6,-1226,25,3
-8,-9,0,8,-4,-4,10,-9,-6,-1221,25,4
-8,-9,0,8,-4,-4,10,-9,-6,-1215,24,4
-9,-10,0,9,-4,-5,10,-9,-6,-1210,23,5
-9,-10,-1,9,-3,-5,10,-9,-7,-1204,23,5
-8,-10,-2,8,-2,-5,10,-9,-7,-1199,23,6
-7,-9,-2,8,-2,-5,10,-9,-6,-1193,23,7
-8,-9,-1,8,-3,-5,10,-9,-6,-1187,23,8
-9,-9,0,9,-4,-5,10,-9,-5,-1181,23,9
-9,-9,0,8,-4,-5,10,-9,-5,-1176,23,10
-9,-9,0,8,-4,-4,10,-8,-5,-1171,23,11
-9,-9,1,8,-4,-4,11,-8,-5,-1165,23,11
-9,-9,1,8,-4,-3,11,-8,-4,-1159,23,12
-9,-9,1,8,-4,-3,11,-7,-3,-1153,23,12
-9,-9,1,9,-4,-3,12,-4,-1,-1146,23,13
-9,-9,0,9,-4,-3,12,-1,2,-1139,25,15
-8,-9,-1,8,-3,-4,12,1,5,-1132,28,18
-5,-9,-3,7,0,-6,11,2,7,-1122,35,24
-3,-10,-7,7,2,-8,9,3,11,-1109,44,33
0,-11,-11,6,6,-11,7,4,15,-1094,55,44
5,-12,-18,4,11,-14,4,5,19,-1079,67,55
11,-13,-25,1,18,-18,1,7,24,-1062,80,68
16,-14,-31,0,23,-22,-2,9,28,-1046,93,80
18,-17,-35,0,27,-26,-5,12,34,-1029,106,93
22,-18,-40,-1,31,-28,-8,18,42,-1011,120,107
27,-17,-44,-4,36,-30,-9,26,51,-993,134,120
32,-17,-49,-7,41,-32,-8,35,61,-976,146,132
37,-15,-51,-10,44,-33,-7,43,68,-966,153,139
39,-13,-52,-13,46,-32,-3,48,70,-965,149,138
40,-12,-51,-14,46,-31,1,50,66,-975,134,129
38,-13,-51,-12,44,-31,6,48,58,-992,111,114
33,-15,-48,-9,41,-31,12,45,47,-1013,85,96
25,-16,-42,-4,34,-29,18,37,33,-1036,56,75
14,-17,-31,1,23,-24,24,20,12,-1063,24,49
2,-17,-19,7,11,-18,28,-4,-13,-1092,-9,21
-9,-19,-9,14,0,-14,31,-32,-40,-1118,-39,-4
-19,-21,-1,20,-8,-11,31,-57,-63,-1136,-62,-24
-28,-23,6,25,-16,-8,30,-79,-81,-1147,-78,-40
-35,-24,11,29,-22,-6,26,-97,-94,-1152,-89,-50
-38,-23,15,30,-26,-3,21,-111,-105,-1152,-94,-56
-38,-21,17,30,-27,-1,14,-124,-113,-1150,-96,-58
-38,-20,18,29,-28,0,7,-134,-121,-1147,-96,-58
-39,-21,18,30,-28,-1,0,-142,-126,-1142,-95,-57
-39,-24,16,32,-27,-3,-5,-145,-129,-1136,-93,-54
-40,-29,12,34,-26,-7,-8,-144,-128,-1128,-88,-51
-40,-34,7,37,-23,-13,-10,-139,-125,-1118,-83,-47
-39,-39,1,39,-20,-18,-11,-131,-119,-1107,-78,-42
-37,-41,-3,39,-16,-22,-11,-122,-112,-1096,-71,-36
-35,-41,-6,38,-14,-23,-11,-111,-103,-1083,-64,-29
-33,-40,-7,36,-12,-23,-9,-97,-91,-1070,-56,-22
-29,-38,-8,33,-10,-23,-7,-82,-79,-1056,-47,-14
-26,-35,-9,31,-9,-22,-4,-68,-66,-1041,-39,-6
-23,-33,-9,28,-7,-21,-1,-55,-55,-1027,-30,1
-20,-30,-9,25,-5,-19,1,-44,-45,-1013,-21,9
-17,-27,-9,22,-3,-18,3,-34,-37,-1001,-14,15
-15,-24,-8,19,-2,-16,4,-26,-29,-989,-9,21
-13,-19,-6,16,-2,-13,4,-19,-22,-979,-4,27
-11,-15,-5,13,-2,-10,5,-13,-16,-969,0,32
-9,-12,-4,10,-2,-8,6,-9,-12,-961,4,36
-8,-10,-3,9,-2,-6,7,-6,-8,-953,7,39
-8,-9,-1,8,-3,-4,8,-3,-6,-947,9,41
-7,-8,0,7,-3,-3,10,-2,-4,-940,11,43
-5,-6,0,6,-2,-3,11,0,-2,-934,13,45
-4,-4,0,4,-1,-2,11,0,-1,-929,14,47
-4,-3,0,4,-1,-2,11,1,0,-924,15,49
-5,-3,1,4,-2,-1,11,2,1,-919,16,50
-6,-3,2,5,-3,-1,11,2,2,-915,16,51
-6,-3,2,5,-4,0,12,3,3,-911,17,52
-6,-3,2,5,-4,0,12,3,3,-906,17,52
-6,-4,2,5,-4,0,12,3,3,-902,17,53
-5,-3,2,4,-3,0,12,4,3,-897,18,54
-4,-2,2,3,-3,0,12,4,4,-893,18,55
-3,-1,2,3,-3,0,13,5,4,-889,18,56
-3,0,2,2,-3,1,13,5,5,-885,18,57
-3,0,2,2,-2,1,12,5,5,-881,18,57
-3,0,2,1,-2,1,12,5,5,-878,18,58
-3,0,2,2,-2,1,12,5,5,-874,17,58
-3,-1,2,3,-3,1,11,5,4,-871,17,58
-4,-1,2,3,-3,1,11,5,5,-867,17,59
-4,-1,3,3,-3,1,11,6,5,-862,17,60
-4,-1,3,3,-3,1,10,6,5,-858,17,60
-4,-1,4,3,-4,1,10,5,5,-855,16,60
-4,0,4,2,-4,2,10,6,5,-852,15,61
-3,1,4,1,-4,3,11,7,6,-848,16,61
-3,2,4,0,-3,3,11,8,6,-843,16,62
-3,1,4,1,-3,3,11,8,7,-838,17,63
-2,1,4,1,-3,3,11,9,7,-834,17,63
-2,1,4,0,-3,3,11,9,7,-830,17,63
-1,1,3,0,-2,3,11,9,8,-826,17,64
-1,1,3,0,-2,2,11,9,8,-822,17,65
-3,1,4,1,-3,2,10,9,8,-818,17,66
-5,0,4,2,-4,2,10,9,8,-815,18,67
-5,0,4,2,-4,2,10,10,9,-811,18,69
-4,0,4,2,-3,3,10,11,9,-807,19,70
-3,1,4,1,-3,4,10,11,9,-803,19,70
-3,1,4,1,-3,4,9,11,9,-800,19,71
-3,1,4,1,-4,3,9,11,10,-795,19,72
-3,1,5,1,-4,3,8,12,11,-791,20,73
-3,2,5,1,-4,3,8,12,11,-787,20,74
-3,2,5,0,-3,3,9,12,12,-784,20,75
-2,3,5,0,-3,4,9,13,12,-780,21,75
-2,4,6,0,-3,5,9,13,13,-776,21,76
-2,4,6,-1,-3,6,9,14,14,-772,22,76
-1,4,6,-1,-3,6,9,15,14,-768,22,77
-1,5,6,-1,-3,6,9,15,15,-764,22,77
0,5,6,-2,-3,6,9,15,15,-761,23,78
0,5,5,-2,-2,6,8,16,15,-758,23,79
1,6,5,-3,-1,6,8,16,16,-755,23,79
4,8,4,-6,0,7,8,18,17,-751,25,81
7,11,4,-9,1,8,8,19,18,-746,27,82
7,12,5,-9,1,9,7,19,19,-742,28,84
5,10,6,-7,0,9,6,19,19,-738,28,84
3,8,6,-5,-1,8,5,19,19,-735,29,85
3,8,5,-5,-1,7,5,20,20,-730,30,86
3,9,5,-6,0,8,5,21,21,-726,31,87
4,11,6,-8,0,9,5,21,22,-722,32,89
5,12,7,-9,0,10,5,22,23,-718,33,90
5,12,7,-9,0,10,4,23,24,-714,34,90
6,13,7,-10,0,10,3,23,24,-711,35,91
7,14,8,-10,0,11,2,24,25,-707,35,91
7,15,8,-11,0,12,2,24,25,-703,36,92
8,16,8,-12,0,12,1,24,25,-699,36,93
8,17,8,-13,0,13,1,24,25,-696,37,93
9,19,9,-14,1,14,0,24,26,-692,37,94
9,19,9,-14,1,14,0,24,26,-689,38,94
9,19,9,-14,1,14,1,24,27,-685,38,95
9,18,9,-14,1,14,1,25,28,-680,39,96
9,17,9,-14,1,14,2,26,28,-676,40,97
10,18,9,-14,1,14,2,27,28,-673,41,97
12,20,9,-15,2,15,2,27,28,-670,41,98
12,21,9,-16,2,16,2,27,28,-667,41,98
11,21,9,-16,1,16,1,27,28,-664,41,98
10,20,9,-15,1,15,0,26,28,-660,41,98
10,20,10,-15,1,15,0,26,28,-657,41,98
10,21,10,-16,1,15,0,26,28,-654,41,98
11,21,10,-16,1,15,-1,25,27,-652,41,97
11,20,9,-15,1,15,-1,25,27,-649,40,97
11,19,9,-15,1,14,-1,24,26,-647,40,97
10,19,9,-14,1,14,-1,24,26,-644,40,97
9,18,9,-14,1,14,-1,24,25,-642,40,97
10,18,9,-14,1,14,0,24,25,-638,40,97
11,19,8,-15,2,14,0,24,25,-635,39,97
11,19,8,-15,2,14,1,24,25,-633,38,97
10,18,8,-14,1,14,1,23,25,-631,38,96
8,17,9,-12,0,13,1,23,25,-627,37,96
7,16,9,-11,0,13,1,23,25,-624,37,96
7,16,9,-11,0,13,2,23,24,-621,37,96
6,16,9,-11,0,13,2,23,24,-619,36,95
5,15,9,-10,-1,12,2,22,23,-617,35,94
5,14,9,-10,-1,12,2,22,23,-615,34,93
5,14,8,-10,0,11,2,22,22,-612,34,93
6,14,8,-10,0,11,2,21,22,-610,33,93
6,14,8,-10,0,11,2,21,21,-607,33,93
6,14,8,-10,0,11,3,20,21,-605,32,93
6,13,7,-9,0,10,3,19,20,-603,31,92
6,13,7,-9,0,10,4,18,19,-602,29,90
7,13,7,-10,0,10,4,18,18,-600,28,89
5,13,7,-9,0,10,4,17,17,-598,26,88
3,11,8,-6,-1,9,4,16,16,-597,24,86
1,9,8,-4,-3,9,4,14,14,-596,22,84
0,8,8,-3,-3,9,4,13,13,-594,21,82
0,8,8,-3,-3,9,5,13,13,-592,20,81
0,7,7,-3,-3,8,4,12,12,-590,19,80
-1,6,7,-2,-3,6,4,11,11,-589,18,79
-1,4,6,-1,-3,5,4,9,9,-587,16,78
-1,4,6,-1,-3,5,4,8,8,-586,15,77
0,5,6,-2,-2,5,6,8,8,-584,15,76
0,5,6,-2,-2,5,8,8,7,-582,14,76
0,5,6,-2,-2,5,9,7,7,-581,13,75
0,4,5,-1,-2,5,9,7,6,-579,12,75
-1,3,5,0,-3,4,8,6,5,-578,11,74
-2,2,5,0,-3,4,8,6,4,-576,11,74
-2,2,5,1,-4,3,8,5,3,-574,10,73
-3,1,5,1,-4,3,8,5,3,-572,9,72
-3,0,4,1,-4,2,8,4,2,-571,7,71
-3,0,4,2,-4,2,7,3,0,-570,5,70
-4,0,4,2,-4,2,7,2,0,-569,4,69
-5,-1,3,3,-4,2,7,1,-1,-567,3,69
-5,-1,3,3,-4,2,8,1,-1,-564,3,69
-4,0,4,2,-4,3,8,1,-1,-561,3,70
-4,1,4,2,-4,3,8,1,-1,-559,3,70
-4,0,4,2,-4,3,8,1,-1,-556,2,71
-5,0,4,3,-4,2,8,1,-1,-554,2,71
-6,-1,5,4,-5,2,8,1,-2,-553,1,71
-6,-1,5,4,-5,2,8,1,-2,-550,1,71
-5,-1,5,3,-4,2,8,1,-1,-547,1,71
-5,-1,5,3,-5,2,8,1,-1,-545,1,71
-5,-1,5,3,-5,2,8,1,-1,-543,0,71
-6,-1,5,3,-5,2,9,2,-1,-541,0,71
-6,-2,5,4,-5,2,8,1,-2,-539,0,71
-7,-2,5,4,-6,2,8,1,-2,-538,-1,70
-8,-2,6,5,-6,2,8,1,-3,-536,-1,70
-8,-3,6,5,-6,2,8,1,-3,-534,-2,70
-8,-3,6,5,-6,2,7,1,-3,-532,-2,70
-8,-2,6,5,-6,2,7,0,-4,-530,-3,69
-7,-2,6,5,-6,2,7,0,-4,-528,-4,69
-7,-2,5,5,-6,2,7,0,-3,-525,-4,70
-7,-2,5,5,-5,1,8,1,-3,-522,-3,70
-7,-2,5,5,-5,1,8,1,-3,-519,-3,71
-6,-1,5,4,-5,2,8,1,-2,-516,-3,71
-5,0,5,3,-5,3,8,1,-2,-513,-2,72
-5,0,5,3,-5,3,8,2,-2,-511,-2,72
-5,0,5,3,-5,3,8,2,-2,-508,-2,72
-5,0,5,3,-5,3,7,2,-1,-506,-2,72
-6,0,6,3,-5,3,7,2,-1,-503,-2,72
-6,0,6,3,-5,3,7,2,0,-500,-2,73
-5,0,6,3,-5,3,7,2,0,-498,-2,73
-5,0,6,3,-5,3,7,2,0,-496,-2,73
-6,0,7,3,-6,4,7,2,0,-494,-2,73
-6,0,7,3,-7,4,8,2,0,-492,-2,73
-6,1,7,3,-7,4,8,3,0,-490,-2,73
-6,1,7,3,-6,4,8,3,0,-487,-2,74
-5,2,7,2,-6,4,8,4,0,-484,-2,75
-5,3,8,1,-6,5,9,4,1,-481,-1,76
-4,4,8,1,-6,6,9,4,1,-478,-1,76
-3,5,8,0,-6,6,9,5,2,-475,0,77
-2,5,8,-1,-5,6,9,5,3,-472,0,78
-3,5,8,0,-5,6,9,6,3,-470,0,79
-3,4,8,0,-5,6,9,6,4,-468,0,79
-3,5,8,-1,-5,7,9,7,4,-465,1,80
-2,6,8,-2,-5,7,8,7,5,-463,0,80
-1,7,8,-2,-5,7,8,7,5,-461,0,81
-2,8,10,-2,-5,8,8,7,5,-458,0,82
-3,8,11,-2,-6,9,8,7,5,-456,0,83
-4,8,11,-1,-7,10,8,7,5,-454,0,84
-4,8,11,-1,-7,10,8,7,5,-452,1,85
-3,8,11,-1,-7,10,8,7,5,-450,1,85
-3,8,11,-1,-7,10,8,7,5,-448,1,85
-4,8,11,-1,-7,10,8,7,5,-446,1,86
-4,8,12,-1,-7,10,7,7,5,-443,1,86
-4,8,12,-1,-7,10,7,7,5,-442,1,87
-3,8,11,-2,-6,9,6,6,4,-441,1,87
-2,8,11,-2,-6,9,5,5,4,-440,0,87
-2,8,11,-2,-6,10,4,4,3,-438,1,87
-2,8,10,-2,-5,10,3,3,3,-436,1,88
-1,9,10,-3,-5,9,3,2,2,-435,0,88
-1,9,10,-4,-5,9,3,2,2,-433,0,88
-1,10,10,-4,-5,10,3,3,3,-431,0,89
-1,10,10,-5,-5,10,3,3,3,-429,0,89
0,10,10,-5,-5,10,2,2,2,-428,0,89
0,10,10,-5,-5,10,1,2,1,-426,0,89
-1,9,10,-4,-5,10,0,1,1,-425,0,90
-2,8,10,-3,-5,9,-1,0,0,-423,0,90
-1,8,9,-3,-5,9,-1,0,0,-422,0,90
0,8,8,-4,-3,8,0,0,0,-420,0,91
2,8,6,-5,-2,7,0,0,0,-418,0,92
3,8,5,-5,-1,6,-1,0,0,-416,0,92
3,8,5,-5,-1,6,-1,0,-1,-415,0,93
2,8,6,-5,-1,7,0,0,0,-413,0,94
2,9,7,-5,-2,7,0,0,0,-410,0,95
2,9,6,-5,-2,7,0,0,0,-408,0,95
2,9,7,-5,-2,8,1,0,0,-407,0,95
1,9,8,-4,-3,8,2,0,0,-405,0,95
0,8,8,-3,-4,8,2,0,0,-403,-1,94
-2,6,8,-1,-4,7,2,0,0,-402,-1,93
-3,4,7,0,-5,6,2,0,-1,-401,-2,92
-3,3,6,0,-5,5,2,0,-1,-399,-3,92
-3,3,6,0,-5,4,2,0,-2,-398,-3,91
-3,2,6,0,-5,4,3,-1,-2,-397,-4,90
-4,2,5,1,-4,3,3,-1,-2,-396,-4,89
-5,1,5,2,-5,3,4,-1,-3,-395,-5,88
-6,0,5,3,-6,2,4,-1,-3,-394,-6,87
-7,-1,5,4,-6,1,4,-1,-3,-393,-6,86
-7,-2,5,5,-6,1,4,-1,-3,-392,-7,85
-8,-3,5,6,-6,1,4,-2,-4,-390,-7,84
-8,-3,5,6,-6,0,4,-2,-4,-388,-7,84
-8,-3,5,6,-6,0,4,-2,-4,-386,-7,83
-8,-3,4,5,-6,0,4,-2,-4,-384,-8,82
-7,-3,3,5,-5,0,4,-2,-5,-383,-8,81
-6,-3,3,4,-4,0,5,-2,-4,-381,-8,81
-7,-3,3,5,-5,0,5,-1,-3,-379,-8,81
-7,-3,4,5,-5,0,5,-1,-3,-377,-7,81
-7,-3,4,5,-5,0,5,-1,-3,-375,-7,80
-6,-3,4,5,-5,0,5,-1,-4,-374,-8,80
-6,-3,4,5,-5,0,5,-1,-4,-374,-9,79
-7,-4,4,5,-5,0,4,-2,-5,-373,-9,78
-8,-4,4,6,-6,0,4,-2,-5,-371,-10,78
-7,-4,4,6,-5,0,4,-2,-5,-370,-10,77
-7,-4,4,6,-5,0,4,-2,-5,-368,-10,77
-8,-5,4,7,-5,0,4,-2,-5,-367,-10,76
-8,-6,3,7,-5,-1,4,-2,-5,-365,-10,76
-8,-6,2,7,-5,-1,4,-2,-4,-363,-10,76
-8,-5,2,7,-5,-1,4,-2,-5,-362,-10,76
-8,-5,3,7,-6,-1,4,-2,-5,-360,-10,76
-8,-4,3,6,-6,0,4,-1,-5,-358,-10,76
-7,-3,3,6,-5,0,5,-1,-5,-356,-10,76
-5,-3,2,5,-3,0,5,-1,-5,-354,-10,76
-4,-2,1,3,-2,0,5,-1,-4,-352,-10,76
-3,-2,1,2,-2,0,6,0,-4,-350,-9,76
-4,-2,2,3,-2,0,6,0,-3,-348,-9,77
-7,-5,2,6,-4,-1,5,-1,-4,-346,-10,76
-9,-7,1,9,-5,-2,4,-1,-4,-345,-10,76
-9,-7,2,9,-5,-2,4,-2,-5,-343,-11,76
-10,-6,3,9,-6,-2,3,-2,-5,-342,-11,76
-11,-7,4,9,-7,-1,3,-2,-5,-341,-12,75
-11,-7,4,9,-7,-1,3,-2,-5,-341,-12,75
-10,-7,3,9,-7,-1,3,-1,-4,-340,-11,75
-8,-7,2,8,-6,-1,4,-1,-4,-339,-11,75
-8,-6,2,7,-5,-1,4,0,-3,-337,-11,75
-7,-5,2,7,-5,-1,5,1,-2,-334,-10,76
-7,-5,2,6,-5,-1,5,2,-1,-332,-9,76
-8,-5,2,6,-5,-1,6,4,1,-329,-8,76
-8,-6,1,7,-5,-2,6,7,3,-324,-5,77
-7,-7,0,7,-3,-4,6,8,6,-319,-1,80
-5,-8,-3,7,-1,-5,4,9,8,-312,4,85
-2,-9,-6,6,2,-7,2,9,12,-302,13,93
1,-8,-10,4,5,-9,0,10,16,-291,24,102
5,-8,-13,2,9,-10,-1,12,20,-279,37,113
8,-9,-17,1,13,-13,-4,13,25,-266,51,125
12,-10,-22,0,17,-16,-7,15,29,-252,65,137
16,-10,-27,-2,22,-19,-10,19,36,-238,80,149
20,-10,-31,-4,26,-21,-11,25,44,-223,95,161
24,-10,-35,-7,30,-22,-12,32,54,-207,110,173
28,-10,-39,-9,34,-24,-12,41,63,-194,122,183
32,-10,-42,-11,37,-25,-12,48,70,-186,128,188
34,-9,-42,-12,38,-25,-10,52,71,-188,124,187
33,-8,-41,-12,37,-24,-5,53,68,-201,109,177
30,-9,-39,-9,34,-24,0,52,60,-222,86,161
25,-11,-36,-6,30,-24,6,48,49,-247,59,141
19,-12,-31,-3,25,-22,12,41,35,-274,29,117
9,-13,-23,2,16,-18,18,26,15,-307,-5,89
-2,-14,-12,8,4,-13,23,4,-10,-342,-41,59
-14,-16,-2,15,-6,-9,26,-21,-36,-372,-72,33
-23,-18,5,20,-14,-6,27,-44,-58,-395,-96,12
-30,-19,11,25,-20,-4,25,-63,-76,-409,-112,-4
-35,-19,16,27,-25,-1,21,-81,-90,-417,-121,-15
-39,-19,19,29,-28,0,15,-96,-101,-422,-127,-22
-41,-20,20,30,-30,0,8,-109,-111,-424,-129,-26
-41,-21,20,31,-30,0,1,-121,-120,-425,-129,-27
-41,-21,20,31,-30,0,-4,-129,-126,-423,-128,-27
-40,-23,17,31,-28,-2,-10,-133,-128,-419,-125,-26
-39,-25,13,32,-26,-6,-13,-132,-127,-413,-120,-23
-36,-28,8,32,-22,-10,-15,-127,-123,-406,-114,-18
-35,-32,3,33,-19,-15,-16,-120,-118,-398,-107,-13
-34,-34,0,34,-16,-18,-17,-112,-111,-389,-100,-8
-31,-34,-3,33,-14,-19,-17,-102,-102,-380,-93,-3
-29,-34,-5,31,-11,-20,-16,-90,-91,-369,-85,3
-27,-34,-6,30,-10,-20,-15,-78,-80,-358,-76,9
-25,-33,-7,29,-9,-20,-13,-65,-68,-347,-68,15
-23,-31,-7,27,-8,-19,-10,-52,-57,-336,-59,22
-20,-28,-7,25,-7,-17,-7,-41,-47,-325,-51,30
-18,-24,-7,21,-6,-15,-5,-31,-38,-314,-42,36
-15,-20,-6,17,-5,-13,-3,-23,-30,-305,-35,42
-12,-15,-4,13,-4,-10,-1,-16,-22,-298,-29,47
-9,-11,-2,10,-3,-7,0,-10,-16,-291,-24,50
-7,-8,-1,7,-3,-4,1,-5,-11,-286,-21,52
-6,-6,0,6,-3,-3,1,-2,-7,-282,-19,54
-6,-5,1,6,-4,-2,2,0,-5,-278,-17,55
-7,-4,2,6,-4,-1,3,2,-3,-274,-15,56
-6,-3,3,5,-4,0,4,4,-1,-270,-13,58
-6,-2,3,4,-4,0,4,5,0,-267,-11,59
-6,-1,4,4,-5,1,5,6,1,-265,-10,60
-6,-1,5,3,-5,2,5,6,2,-264,-9,60
-6,0,6,3,-6,3,5,6,3,-262,-9,60
-5,0,6,3,-6,3,6,7,3,-261,-8,60
-6,-1,6,4,-6,3,6,7,3,-260,-8,59
-8,-2,6,6,-7,2,6,7,3,-259,-9,59
-8,-2,5,6,-6,1,5,7,4,-257,-8,60
-6,0,5,4,-5,2,5,8,4,-255,-7,61
-4,1,5,2,-5,2,5,8,4,-253,-6,62
-4,1,5,1,-5,3,5,8,5,-252,-6,62
-5,1,6,1,-6,3,5,8,5,-250,-5,62
-6,1,7,2,-6,4,5,9,5,-249,-6,61
-6,1,7,2,-6,4,5,9,5,-249,-6,61
-5,1,7,1,-6,4,5,9,5,-248,-6,61
-4,2,6,1,-5,4,5,9,6,-246,-6,61
-3,2,6,0,-5,4,5,10,7,-243,-5,62
-3,2,5,0,-4,4,5,10,7,-241,-4,63
-3,2,6,0,-5,4,5,11,7,-240,-4,63
-4,2,6,0,-6,4,5,11,7,-239,-4,62
-5,2,7,1,-6,4,5,11,7,-238,-4,62
-6,2,8,1,-7,5,5,11,8,-237,-4,62
-6,2,9,2,-7,5,4,11,8,-236,-4,61
-7,2,9,2,-7,5,4,11,8,-235,-5,61
-6,1,8,2,-7,5,4,11,8,-233,-4,61
-6,1,7,2,-6,5,4,11,8,-232,-4,61
-5,2,7,1,-6,5,4,11,8,-230,-4,61
-4,2,6,1,-6,4,3,11,8,-229,-4,61
-5,1,6,2,-6,4,3,12,9,-228,-3,61
-7,0,7,3,-7,4,3,12,9,-226,-3,61
-7,1,7,2,-7,4,3,12,10,-225,-2,61
-5,2,8,1,-7,5,3,13,10,-223,-2,61
-4,4,8,0,-7,7,3,13,11,-221,-1,62
-4,5,9,-1,-7,8,3,14,11,-219,0,62
-3,5,8,-1,-6,8,3,15,12,-217,1,63
-2,6,8,-2,-6,8,4,16,13,-215,2,63
-1,7,9,-3,-5,9,4,16,13,-215,2,64
-1,8,9,-4,-5,10,4,17,14,-214,3,64
0,8,9,-4,-5,9,3,17,14,-213,3,65
0,7,8,-4,-4,8,3,18,15,-212,3,65
0,6,7,-3,-3,7,2,18,15,-211,3,65
0,6,7,-3,-4,7,1,18,15,-209,3,65
0,7,8,-3,-4,8,1,18,15,-207,4,65
0,8,8,-4,-4,9,1,19,16,-205,5,66
0,9,9,-4,-4,10,0,19,17,-203,6,66
0,10,9,-5,-4,10,0,20,17,-201,7,67
1,11,9,-6,-4,10,0,21,18,-199,8,68
2,12,9,-7,-4,11,0,21,19,-198,9,69
3,12,9,-8,-3,11,-1,21,20,-196,9,70
4,12,8,-8,-3,11,-1,21,20,-195,10,70
4,13,9,-8,-3,11,-2,22,21,-193,11,71
3,13,9,-8,-3,12,-2,23,22,-190,12,72
3,14,10,-8,-4,13,-2,23,23,-188,14,73
3,15,11,-9,-4,14,-2,24,23,-186,15,74
4,16,12,-10,-3,14,-3,25,24,-185,16,74
5,17,12,-12,-3,15,-3,25,24,-183,17,75
6,18,12,-12,-3,15,-3,25,25,-182,17,76
6,19,12,-13,-3,16,-4,26,26,-180,18,77
7,20,13,-13,-3,17,-4,26,26,-178,19,77
8,21,12,-14,-2,18,-4,26,26,-176,20,78
9,22,12,-15,-1,18,-4,26,26,-174,21,78
10,23,12,-16,-1,18,-4,27,27,-173,22,79
10,24,13,-17,-1,19,-4,27,28,-171,23,79
10,24,13,-17,-1,19,-4,27,28,-170,23,80
10,24,13,-16,-1,19,-5,27,28,-169,23,80
10,23,13,-16,-1,18,-5,27,28,-169,23,80
9,21,13,-15,-1,17,-6,26,27,-168,23,80
9,21,12,-15,-2,17,-6,26,27,-167,24,79
8,21,13,-15,-2,17,-6,26,27,-165,24,79
8,21,13,-14,-2,17,-7,26,27,-164,24,79
8,21,13,-14,-2,17,-7,25,26,-164,24,78
8,21,13,-14,-2,17,-7,25,26,-163,24,78
7,21,13,-14,-2,17,-7,25,26,-163,24,78
7,21,13,-14,-2,17,-7,25,26,-161,24,78
8,21,13,-14,-2,18,-7,25,27,-160,25,78
9,22,13,-15,-2,18,-6,25,27,-159,25,78
9,22,13,-15,-1,17,-6,24,26,-158,25,77
9,22,13,-15,-1,17,-5,24,26,-158,25,77
9,21,12,-15,-1,16,-5,24,25,-157,25,77
9,21,12,-15,-1,16,-5,24,25,-157,25,76
10,21,11,-16,0,16,-5,23,25,-157,24,76
10,21,11,-16,0,16,-5,23,24,-157,23,75
8,20,12,-15,-1,16,-5,22,24,-157,23,74
7,19,12,-13,-2,16,-5,22,23,-157,22,73
6,19,12,-13,-3,16,-5,21,23,-156,21,72
6,19,12,-13,-3,16,-4,21,23,-155,21,72
6,19,13,-13,-3,16,-4,21,22,-155,21,72
5,17,12,-12,-3,15,-4,20,22,-155,20,71
4,16,12,-10,-3,14,-4,19,21,-156,19,70
3,14,11,-9,-3,13,-3,19,20,-156,19,69
3,13,11,-8,-3,12,-2,18,20,-155,18,69
3,13,11,-8,-3,12,-2,17,20,-154,17,68
3,13,11,-8,-3,12,-1,16,19,-154,16,66
3,13,10,-8,-3,12,-1,16,18,-154,15,65
2,13,10,-8,-3,12,0,15,17,-154,14,64
2,13,10,-8,-3,12,0,14,17,-154,13,63
2,13,10,-8,-4,12,1,14,16,-153,12,62
2,12,10,-7,-4,11,2,14,16,-153,11,61
2,12,10,-7,-4,11,2,13,16,-153,10,60
2,12,10,-7,-3,11,2,12,15,-154,9,59
2,12,10,-7,-3,11,2,11,13,-155,8,58
2,11,10,-6,-3,11,2,10,12,-155,7,56
1,10,10,-6,-4,11,2,9,12,-155,6,55
0,9,10,-5,-4,10,2,9,11,-155,5,54
0,8,9,-4,-4,9,3,8,10,-156,3,53
-1,8,9,-4,-4,9,3,7,9,-156,2,52
-2,7,9,-2,-5,8,3,6,8,-157,1,51
-4,5,9,0,-6,7,3,5,7,-157,0,49
-6,3,9,2,-7,6,3,4,5,-158,-1,48
-7,1,8,3,-7,5,3,3,4,-158,-2,46
-8,0,8,4,-8,4,3,2,3,-159,-4,45
-9,0,8,5,-8,3,3,2,2,-159,-5,44
-8,0,8,4,-8,3,3,1,1,-159,-5,42
-8,0,8,4,-8,3,3,1,1,-159,-6,42
-8,0,8,4,-8,4,3,0,1,-158,-6,41
-8,0,8,4,-8,4,3,0,1,-158,-6,40
-8,0,8,4,-8,4,3,0,0,-157,-7,39
-8,0,8,4,-8,4,3,-1,0,-157,-7,38
-8,0,8,4,-8,4,3,-1,0,-157,-8,37
-8,0,8,3,-7,4,3,-1,-1,-156,-8,36
-7,0,7,3,-7,4,3,-1,-1,-156,-8,36
-7,0,7,3,-7,4,3,-1,-1,-156,-8,35
-7,1,7,3,-7,4,3,-1,-1,-155,-8,35
-6,2,7,2,-6,5,3,0,-1,-154,-8,35
-5,2,7,1,-6,5,4,0,0,-153,-8,34
-5,2,7,0,-5,5,4,-1,-1,-153,-9,34
-5,2,7,0,-5,5,4,-1,-1,-152,-9,32
-5,3,8,0,-6,5,4,-1,-2,-152,-10,31
-5,3,8,0,-6,6,5,-1,-2,-152,-10,31
-6,3,9,1,-7,6,5,-1,-2,-152,-10,30
-6,2,8,2,-7,5,5,-1,-1,-151,-9,30
-7,0,7,3,-7,4,5,0,-1,-150,-9,30
-8,0,8,4,-7,4,5,0,-1,-150,-10,29
-8,0,8,5,-8,4,4,-1,-2,-150,-10,28
-8,-1,7,5,-7,3,4,-1,-2,-149,-11,27
-9,-2,7,5,-7,2,4,-1,-2,-148,-11,26
-9,-2,7,5,-7,2,3,-1,-2,-148,-11,26
-9,-1,8,5,-8,2,3,0,-2,-147,-10,26
-9,-1,8,5,-8,2,3,0,-2,-146,-10,25
-8,0,7,5,-8,2,3,0,-2,-145,-10,25
-7,0,7,4,-7,3,4,0,-1,-144,-9,25
-7,1,8,3,-7,4,5,1,0,-143,-8,25
-6,3,8,2,-7,5,6,2,1,-141,-8,25
-5,4,8,0,-6,6,6,3,1,-140,-7,25
-4,6,8,0,-6,7,7,3,2,-139,-6,26
-2,7,8,-2,-5,7,7,4,3,-137,-5,26
-2,7,8,-3,-5,8,7,4,3,-136,-5,27
-2,6,8,-2,-5,7,6,4,3,-136,-5,27
-4,4,7,0,-5,6,6,4,3,-135,-5,26
-6,2,8,2,-7,6,5,4,3,-135,-5,26
-9,0,10,4,-9,6,4,4,3,-134,-6,25
-11,0,10,6,-10,5,4,4,3,-132,-6,25
-11,0,10,5,-10,5,4,4,3,-131,-5,25
-9,1,10,3,-9,6,4,5,4,-128,-5,25
-6,4,11,0,-8,7,4,5,4,-124,-4,25
-4,6,11,-1,-7,8,4,6,5,-120,-4,26
-3,7,10,-2,-6,9,4,6,5,-120,-3,26
-3,8,10,-2,-6,9,5,7,6,-120,-2,27
-3,8,11,-2,-6,10,5,8,7,-120,-1,27
-3,8,11,-2,-6,10,6,9,8,-120,0,28
-4,8,11,-2,-6,10,6,9,8,-120,0,27
-4,9,12,-2,-7,10,5,9,7,-120,-1,27
-3,9,12,-2,-8,10,5,8,7,-120,-1,26
-3,9,12,-2,-8,10,4,8,6,-120,-1,26
-3,9,12,-3,-8,10,4,8,6,-120,-1,26
-3,10,12,-3,-7,11,4,8,6,-120,-1,25
-2,10,12,-4,-7,11,4,8,6,-118,-1,25
-2,10,12,-4,-6,11,4,7,6,-117,-1,24
-2,10,12,-4,-6,11,3,6,6,-116,-1,23
-1,10,12,-5,-5,11,2,5,5,-115,-1,22
-1,10,12,-5,-5,11,1,4,4,-115,-2,21
0,10,11,-5,-5,11,0,4,4,-115,-2,20
-1,10,11,-5,-5,10,-1,3,3,-115,-2,20
-2,9,11,-5,-6,10,-1,3,3,-115,-2,19
-2,9,11,-4,-6,10,-1,3,3,-115,-2,19
-1,10,11,-5,-6,11,-1,3,3,-115,-2,19
0,10,11,-5,-5,11,-1,2,3,-114,-2,18
0,10,10,-5,-4,10,-2,2,2,-114,-2,18
0,9,9,-5,-3,9,-2,2,2,-113,-2,18
1,9,7,-5,-3,8,-2,2,2,-113,-1,18
2,9,6,-5,-2,8,-2,2,1,-112,-1,18
1,8,6,-4,-2,7,-3,1,1,-112,-1,17
0,5,5,-2,-2,5,-3,0,0,-112,-1,16
0,4,4,-2,-2,4,-4,0,0,-112,-2,16
0,3,4,-1,-1,4,-4,0,-1,-111,-2,15
-1,3,5,-1,-2,4,-4,0,-1,-111,-2,15
-1,3,6,0,-3,5,-3,0,0,-107,-2,15
-2,4,7,-1,-4,6,-3,0,0,-91,-1,15
-2,5,8,-1,-5,7,-2,0,1,-76,-1,14
-3,5,8,0,-6,7,-1,1,0,-75,-2,13
-4,4,8,0,-6,7,0,1,0,-82,-2,12
-4,4,8,0,-5,7,0,1,0,-89,-2,12
-4,4,8,0,-4,7,1,1,-1,-94,-3,11
-3,4,7,-1,-4,7,1,1,-1,-97,-3,11
-3,4,7,-1,-4,6,2,1,-1,-100,-4,10
-3,3,6,0,-4,5,2,0,-1,-102,-4,9
-5,0,6,2,-5,3,1,0,-2,-105,-5,8
-7,-1,5,4,-5,2,1,0,-3,-107,-6,6
-8,-2,5,4,-5,2,1,0,-4,-107,-7,5
-8,-3,5,5,-5,1,2,0,-4,-107,-7,5
-8,-3,5,5,-5,1,2,0,-3,-107,-7,5
-8,-3,5,5,-6,1,3,0,-4,-107,-7,5
-8,-3,5,5,-6,1,3,0,-4,-107,-7,5
-8,-4,4,6,-6,0,3,0,-4,-107,-8,4
-9,-5,4,7,-6,0,3,-1,-5,-107,-8,4
-9,-6,4,7,-6,0,3,-1,-5,-107,-8,3
-10,-6,4,8,-7,0,3,-1,-5,-107,-8,3
-10,-6,4,8,-7,0,3,-1,-5,-106,-8,2
-10,-6,4,8,-6,-1,2,-1,-5,-106,-8,2
-11,-7,3,9,-6,-1,2,-1,-5,-105,-8,2
-11,-7,3,9,-6,-2,2,-1,-5,-105,-9,1
-10,-7,3,9,-6,-2,2,-1,-5,-105,-9,1
-10,-6,3,8,-5,-1,2,-1,-5,-95,-9,1
-9,-6,3,8,-5,-1,2,-1,-5,-77,-8,0
-9,-5,3,7,-5,-1,2,-1,-5,-71,-8,0
-9,-5,3,7,-5,-1,2,-1,-5,-79,-8,0
-9,-5,3,7,-5,-1,2,-1,-5,-88,-8,-1
-9,-5,4,6,-6,-1,2,0,-5,-93,-8,-1
-9,-5,4,6,-6,0,2,0,-5,-95,-8,-2
-8,-5,3,6,-5,0,2,0,-5,-97,-8,-2
-8,-5,3,6,-5,0,2,0,-5,-98,-7,-3
-8,-5,3,6,-5,0,2,0,-5,-98,-7,-3
-8,-5,3,7,-5,0,2,0,-5,-97,-7,-3
-8,-4,4,6,-6,0,2,0,-4,-94,-6,-3
-8,-3,4,6,-6,0,2,0,-4,-90,-6,-3
-8,-4,4,6,-6,0,2,0,-4,-89,-6,-4
-9,-5,4,7,-6,-1,2,0,-4,-89,-6,-4
-10,-6,4,8,-6,-1,2,0,-4,-89,-6,-5
-10,-6,4,8,-6,-1,3,0,-4,-90,-6,-5
-11,-6,4,8,-6,-1,3,0,-4,-90,-6,-5
-11,-7,4,9,-6,-1,2,0,-4,-91,-7,-5
-11,-8,3,9,-6,-2,2,0,-5,-93,-7,-5
-10,-8,2,8,-5,-3,2,0,-5,-93,-8,-6
-9,-7,2,7,-5,-2,2,0,-4,-93,-8,-6
-9,-6,2,6,-5,-1,3,1,-3,-92,-7,-6
-8,-5,3,6,-5,0,4,2,-2,-91,-7,-6
-8,-5,4,6,-5,0,4,4,0,-89,-6,-6
-8,-5,3,6,-5,0,5,7,3,-86,-4,-5
-6,-6,1,6,-3,-2,5,9,6,-82,0,-2
-5,-7,-2,6,-1,-4,4,11,10,-76,6,2
-4,-8,-4,6,0,-6,2,12,13,-68,14,9
-2,-9,-6,5,2,-7,0,13,16,-59,24,18
1,-9,-10,4,5,-9,-3,15,21,-48,35,28
5,-10,-14,3,10,-12,-5,17,26,-36,48,39
10,-10,-20,1,15,-15,-8,19,31,-24,61,50
15,-10,-25,-1,21,-18,-11,23,38,-11,74,62
21,-10,-30,-5,26,-20,-12,29,46,3,89,75
26,-9,-35,-9,31,-21,-13,38,56,18,104,87
31,-8,-39,-12,35,-23,-13,47,67,31,116,99
34,-8,-42,-14,38,-25,-12,56,74,39,124,106
35,-7,-42,-14,39,-25,-10,61,77,38,122,106
33,-8,-41,-13,38,-24,-6,62,73,26,109,98
30,-10,-40,-10,36,-25,-2,59,63,4,87,83
27,-12,-39,-7,34,-26,3,54,51,-22,62,64
22,-14,-36,-4,30,-25,9,46,36,-49,34,43
13,-14,-28,0,21,-21,15,30,16,-80,4,19
1,-15,-16,6,9,-16,20,6,-10,-114,-28,-7
-11,-17,-6,13,-2,-11,24,-20,-37,-144,-58,-31
-19,-18,1,18,-10,-9,24,-46,-61,-168,-81,-51
-26,-19,7,22,-16,-7,22,-67,-79,-184,-98,-67
-32,-20,12,26,-21,-5,18,-85,-93,-194,-110,-78
-36,-22,15,29,-24,-4,12,-101,-104,-200,-116,-85
-39,-23,16,31,-26,-4,5,-114,-114,-203,-119,-89
-40,-24,16,31,-27,-3,-2,-125,-121,-205,-120,-90
-40,-25,16,31,-27,-4,-9,-133,-127,-204,-119,-89
-40,-26,14,32,-26,-6,-16,-136,-129,-202,-116,-87
-38,-28,10,32,-24,-9,-20,-135,-128,-197,-112,-84
-36,-30,6,32,-21,-12,-23,-130,-125,-192,-107,-80
-37,-35,1,36,-19,-17,-24,-124,-121,-186,-102,-77
-38,-39,-2,38,-16,-21,-25,-116,-114,-179,-96,-72
-36,-41,-6,38,-13,-23,-24,-105,-105,-171,-89,-66
-32,-40,-8,36,-11,-24,-21,-92,-93,-162,-80,-59
-29,-38,-8,33,-9,-23,-18,-77,-81,-151,-71,-52
-27,-35,-8,30,-9,-21,-15,-62,-68,-140,-62,-45
-24,-31,-6,27,-8,-19,-11,-48,-56,-129,-52,-37
-21,-27,-6,23,-7,-17,-8,-36,-45,-119,-43,-30
-17,-22,-5,20,-5,-14,-5,-25,-36,-110,-35,-24
-14,-18,-5,17,-4,-12,-3,-17,-28,-102,-29,-19
-12,-15,-4,14,-3,-10,-2,-11,-22,-96,-24,-15
-10,-13,-2,12,-3,-8,-1,-6,-16,-90,-20,-12
-9,-10,0,10,-4,-5,0,-2,-11,-86,-16,-10
-9,-8,1,8,-4,-3,0,1,-7,-81,-13,-9
-9,-7,2,7,-5,-1,1,4,-5,-78,-11,-8
-9,-5,3,6,-5,0,2,5,-3,-76,-10,-7
-8,-4,3,6,-5,0,2,7,-2,-74,-8,-6
-8,-3,4,5,-5,0,3,8,-1,-73,-7,-5
-7,-2,4,5,-5,1,3,8,0,-73,-6,-4
-7,-2,5,4,-5,2,3,8,0,-73,-5,-4
-7,-3,5,5,-5,2,3,8,0,-73,-5,-4
-9,-4,5,6,-7,2,2,8,0,-73,-5,-4
-10,-5,6,7,-8,1,2,8,0,-73,-5,-4
-11,-4,6,7,-8,1,2,9,1,-72,-5,-4
-11,-4,7,7,-9,1,2,9,1,-71,-4,-3
-11,-4,7,7,-8,1,2,9,1,-70,-4,-3
-10,-4,7,7,-8,1,2,10,1,-69,-3,-2
-9,-3,6,6,-7,2,3,10,2,-68,-3,-2
-8,-2,6,5,-6,2,3,11,2,-68,-2,-1
-7,-2,6,4,-6,3,3,11,3,-67,-2,-1
-6,-1,6,4,-6,3,3,12,4,-67,-2,0
-6,-1,6,3,-5,3,3,12,4,-66,-1,0
-6,0,5,3,-5,3,3,12,4,-65,-1,0
-5,0,5,2,-5,3,4,12,5,-64,-1,0
-5,1,5,2,-5,3,4,13,5,-63,0,0
-5,0,5,2,-5,3,4,13,5,-63,0,0
-6,0,6,3,-6,3,3,13,5,-63,0,0
-7,0,7,3,-6,3,2,13,5,-63,0,0
-8,-1,7,4,-7,3,2,14,5,-62,0,0
-8,-1,7,4,-6,3,2,14,6,-62,0,0
-8,-1,7,4,-6,3,2,14,6,-61,0,0
-7,0,7,3,-6,3,2,14,6,-61,0,0
-6,1,7,3,-6,4,2,14,7,-60,0,1
-6,1,7,2,-6,3,2,14,7,-59,0,1
-5,1,7,2,-6,3,2,15,8,-58,1,2
-5,2,7,1,-6,4,2,16,8,-58,2,2
-4,3,8,0,-6,5,2,16,9,-57,2,3
-4,4,8,0,-6,6,2,17,9,-57,3,3
-4,4,8,0,-6,7,2,17,10,-56,3,4
-4,5,8,-1,-5,7,2,18,10,-55,3,5
-3,5,8,-1,-5,7,2,18,11,-54,4,6
-3,5,8,-1,-5,7,2,19,11,-52,5,6
-3,5,8,-1,-5,6,2,20,12,-52,5,6
-2,5,8,-2,-4,6,1,20,12,-51,6,6
-1,6,7,-2,-4,6,1,21,13,-51,6,7
-1,6,7,-2,-4,7,0,21,13,-50,7,7
-2,5,8,-2,-4,7,0,21,14,-50,7,7
-3,4,8,-1,-5,6,0,21,14,-49,7,7
-4,4,8,0,-6,6,-1,21,14,-48,7,7
-5,3,8,1,-6,6,-1,22,14,-48,8,7
-4,4,8,0,-5,6,-1,22,15,-47,9,7
-3,5,8,0,-5,7,-1,23,15,-45,10,8
-2,6,9,-2,-5,8,-1,24,16,-43,11,9
-1,7,9,-3,-5,8,-1,26,17,-42,12,10
-1,8,9,-4,-5,9,-1,27,19,-41,13,11
0,9,9,-5,-4,9,-1,28,20,-40,14,13
2,11,9,-7,-3,10,-1,29,21,-38,16,15
4,13,8,-9,-2,10,-1,30,22,-37,18,17
5,14,9,-10,-2,11,-1,31,23,-35,19,19
6,16,10,-11,-2,13,-1,32,24,-34,21,21
8,19,10,-13,-1,14,-2,33,25,-32,22,22
9,20,10,-15,0,15,-2,34,25,-31,23,24
8,18,9,-13,0,13,-4,33,25,-31,23,25
6,15,9,-10,-1,11,-5,33,25,-31,23,25
4,13,8,-9,-2,10,-6,33,25,-31,24,27
4,13,9,-9,-2,11,-7,33,25,-30,25,28
5,15,10,-10,-2,12,-7,33,26,-28,26,30
5,15,10,-11,-2,13,-7,33,26,-27,27,31
5,16,11,-11,-2,13,-7,34,27,-26,28,33
5,17,11,-11,-2,14,-7,34,27,-25,28,35
6,18,11,-12,-2,14,-7,35,28,-24,29,37
7,18,11,-13,-2,15,-7,35,28,-22,30,39
8,19,11,-14,-1,15,-7,35,29,-8,31,40
8,20,11,-14,-1,15,-7,35,29,10,31,41
8,20,12,-14,-1,15,-7,35,29,17,32,42
9,20,11,-15,-1,16,-7,35,29,14,32,43
11,21,11,-16,0,16,-7,35,29,10,32,44
12,22,11,-16,1,16,-7,35,29,3,32,44
13,23,11,-17,1,17,-7,34,28,-5,32,45
13,24,11,-18,2,17,-6,34,28,-10,33,46
14,24,10,-19,2,17,-6,35,28,-13,33,47
14,24,10,-19,2,17,-5,35,28,-15,33,48
13,23,10,-18,1,16,-5,34,28,-17,33,47
10,21,10,-16,0,15,-6,33,27,-19,32,46
8,19,10,-13,0,14,-7,32,26,-20,31,46
8,18,10,-12,0,14,-7,31,25,-19,31,45
7,17,10,-12,0,14,-7,31,25,-18,31,45
6,16,10,-11,-1,13,-7,31,25,-18,30,45
5,15,10,-10,-1,12,-7,30,24,-19,30,45
5,14,10,-9,-1,11,-7,30,24,-21,29,44
6,15,9,-10,-1,11,-7,29,23,-22,28,43
7,15,9,-11,0,11,-7,29,23,-21,28,43
8,15,8,-12,0,11,-6,28,23,-27,27,43
8,15,7,-12,1,11,-6,28,22,-29,27,42
9,16,7,-12,1,11,-5,27,21,98,26,41
9,17,7,-13,1,12,-5,27,21,333,26,41
9,17,8,-13,1,13,-4,27,21,390,26,40
8,16,8,-12,0,13,-3,27,21,253,25,39
6,16,9,-11,0,12,-3,26,20,133,24,38
5,15,9,-10,-1,12,-2,25,19,70,23,37
4,15,10,-10,-2,12,-2,24,19,31,21,35
4,14,10,-9,-3,12,-1,23,18,8,20,34
3,13,10,-8,-3,11,-1,22,17,-5,19,33
2,11,9,-7,-3,10,-1,21,15,-14,18,31
2,10,8,-6,-3,9,0,20,14,-21,16,30
1,9,8,-5,-3,8,0,19,13,-26,15,28
0,8,8,-4,-3,8,0,17,12,-29,13,27
0,7,7,-3,-4,7,0,16,11,-31,12,25
-1,5,7,-2,-4,6,0,15,10,-33,11,24
-2,5,7,-2,-4,6,0,14,9,-35,10,22
-2,6,7,-2,-4,7,0,13,8,-36,9,21
-1,6,7,-2,-4,7,0,12,7,-37,8,21
-1,6,7,-2,-4,7,0,11,5,-38,8,20
-2,5,7,-1,-4,6,1,10,4,-39,7,20
-3,4,7,0,-4,5,1,10,3,-40,6,19
-3,3,6,0,-4,5,1,9,3,-40,5,19
-3,3,6,0,-4,5,1,9,2,-41,5,18
-3,3,6,0,-4,5,2,8,2,-41,4,18
-3,3,5,0,-4,4,2,8,1,-42,4,17
-3,2,5,1,-4,4,2,7,0,-42,3,17
-5,0,5,2,-5,3,2,6,-1,-43,2,16
-6,-1,5,4,-5,1,2,5,-2,-44,1,16
-7,-3,4,5,-5,1,2,4,-2,-44,1,15
-7,-3,4,4,-5,1,2,4,-3,-43,0,15
-6,-2,4,3,-5,1,2,4,-3,-43,0,15
-5,-1,4,3,-5,1,2,4,-3,-42,0,15
-5,-1,4,3,-5,1,1,4,-3,-43,0,15
-5,-1,4,3,-5,1,1,3,-3,-44,0,15
-4,-1,4,2,-4,2,1,3,-4,-44,0,15
-4,0,4,2,-4,2,2,3,-4,-44,0,15
-4,-1,4,2,-4,1,2,3,-4,-44,0,14
-5,-1,4,2,-4,1,2,3,-4,-44,0,14
-5,-1,4,3,-5,1,2,3,-4,-45,-1,14
-6,-2,5,4,-5,1,2,3,-5,-45,-1,14
-7,-2,5,4,-6,1,2,3,-5,-46,-2,14
-8,-2,5,4,-6,1,2,3,-5,-46,-2,15
-7,-2,5,4,-6,1,3,3,-5,-45,-2,15
-7,-2,5,4,-6,1,3,2,-5,-45,-2,16
-7,-2,5,4,-6,2,3,2,-5,-45,-2,16
-7,-1,6,4,-7,2,3,2,-5,-45,-1,17
-7,-1,6,4,-6,2,3,2,-5,-45,-1,17
-6,0,6,3,-6,2,3,2,-5,-45,-1,18
-5,0,6,2,-5,3,3,3,-5,-45,-1,19
-6,0,6,3,-6,3,3,3,-5,-45,-1,19
-9,-2,7,5,-8,2,2,2,-5,-45,-1,19
-10,-3,6,6,-8,2,2,2,-5,-45,-1,20
-9,-3,6,6,-7,1,2,2,-5,-44,-1,20
-8,-3,5,5,-7,1,2,2,-5,-44,-1,21
-8,-2,5,5,-7,1,2,2,-5,-44,-1,21
-7,-1,6,4,-6,1,3,2,-5,-43,0,22
-6,0,6,3,-5,2,3,3,-4,-43,0,23
-5,0,6,2,-5,2,4,3,-4,-42,0,24
-5,2,7,2,-5,3,4,4,-3,-41,1,25
-4,3,7,1,-5,4,4,4,-2,-40,1,25
-4,3,6,1,-5,5,4,5,-2,-40,1,25
-3,4,6,0,-4,5,4,5,-2,-39,2,26
-2,5,6,-1,-4,6,4,6,-1,-39,2,26
-2,4,6,-1,-5,6,4,6,-1,-38,3,27
-3,4,7,0,-6,5,4,7,0,-38,3,27
-5,3,8,0,-7,5,4,7,0,-37,3,27
-5,3,8,1,-7,5,4,7,0,-37,2,27
-5,2,8,1,-6,4,4,7,0,-36,2,28
-4,3,8,1,-6,5,4,7,0,-36,2,29
-3,5,9,0,-6,6,4,7,1,-35,2,29
-3,6,9,-1,-6,7,4,7,1,-35,2,30
-3,6,9,-1,-6,7,4,7,1,-35,2,30
-3,5,8,-2,-6,7,4,7,1,-35,2,30
-3,5,8,-2,-6,7,4,7,1,-34,3,31
-3,6,9,-2,-6,7,4,7,1,-34,3,31
-4,6,10,-1,-7,8,4,7,1,-33,3,31
-4,5,10,0,-7,7,4,6,1,-33,3,31
-3,5,9,0,-6,7,3,6,1,-34,2,31
-3,5,8,-1,-6,7,2,5,0,-34,2,31
-3,5,8,-1,-6,7,1,5,0,-34,2,31
-4,5,8,-1,-7,7,0,4,0,-34,2,31
-4,4,8,-1,-6,6,0,3,-1,-33,1,31
-3,3,7,0,-5,5,-1,3,-1,-31,1,30
-2,3,6,0,-5,5,-2,3,-1,-29,2,31
-1,4,6,-1,-4,5,-2,3,0,-28,2,32
0,6,6,-2,-4,6,-1,3,0,-28,3,33
1,7,7,-4,-3,7,-2,2,0,-29,3,33
2,9,7,-5,-3,8,-3,2,-1,-29,3,34
2,9,7,-6,-3,8,-4,2,-1,-30,3,34
3,10,7,-6,-2,8,-4,2,-1,-31,3,34
3,10,7,-7,-2,8,-5,2,-1,-31,3,34
4,10,6,-7,-1,8,-5,1,-2,-32,3,34
5,9,4,-7,0,7,-5,0,-2,-33,3,34
5,8,3,-6,0,5,-5,0,-3,-33,2,34
4,7,3,-5,0,4,-6,-1,-3,-33,2,35
4,6,2,-5,0,3,-6,-1,-4,-33,2,35
4,5,1,-4,0,3,-6,-1,-4,-33,2,34
3,4,1,-4,0,2,-5,-1,-4,-33,2,34
3,4,1,-3,0,2,-5,-1,-4,-33,2,35
3,4,1,-4,0,3,-4,-1,-4,-33,2,35
3,4,1,-4,0,3,-3,-1,-4,-32,2,35
3,4,1,-4,0,3,-2,-1,-4,-32,2,35
2,5,2,-4,0,3,-2,-1,-4,-32,1,34
2,5,3,-3,-1,3,-1,-1,-4,-32,1,34
1,4,3,-2,-1,2,0,-1,-5,-32,0,33
0,3,3,-2,-1,2,0,-1,-5,-33,0,32
0,3,3,-1,-2,2,0,-1,-5,-33,0,31
-1,2,2,0,-2,2,1,-1,-5,-33,-1,30
-2,0,2,1,-2,0,1,-2,-6,-33,-1,30
-3,-1,1,2,-2,0,1,-2,-6,-33,-2,30
-4,-3,1,4,-3,-1,0,-3,-7,-34,-3,29
-7,-6,1,6,-4,-3,0,-4,-8,-35,-4,28
-9,-8,1,8,-5,-4,0,-4,-9,-35,-4,27
-10,-9,1,9,-6,-4,0,-4,-9,-35,-5,27
-11,-9,1,10,-7,-4,-1,-5,-9,-35,-5,27
-11,-9,1,10,-7,-4,-1,-5,-9,-36,-6,26
-11,-9,1,10,-6,-4,-1,-6,-10,-36,-6,26
-11,-9,1,9,-6,-4,-1,-6,-10,-36,-6,26
-10,-8,1,8,-6,-4,0,-5,-9,-35,-6,26
-9,-7,1,8,-5,-3,0,-5,-9,-35,-6,26
-9,-7,1,7,-5,-3,0,-5,-9,-34,-5,26
-8,-6,1,7,-5,-3,0,-5,-9,-34,-5,26
-7,-6,1,6,-5,-3,0,-5,-9,-34,-5,26
-7,-5,1,6,-4,-3,0,-5,-9,-35,-5,26
-7,-5,1,6,-4,-2,0,-5,-9,-35,-5,26
-7,-5,1,6,-4,-2,0,-5,-9,-35,-5,26
-7,-5,1,5,-4,-2,0,-5,-9,-34,-4,26
-7,-5,0,5,-4,-2,0,-5,-9,-33,-4,26
-6,-5,0,5,-3,-2,0,-5,-8,-33,-4,26
-6,-5,0,5,-3,-2,0,-5,-8,-33,-4,26
-5,-6,0,5,-2,-3,1,-5,-8,-33,-4,26
-5,-6,-1,5,-2,-3,1,-5,-8,-33,-4,26
-5,-6,0,5,-3,-3,1,-5,-8,-33,-4,26
-6,-6,0,6,-3,-3,1,-5,-8,-33,-3,26
-7,-7,0,7,-3,-3,1,-5,-8,-33,-3,26
-7,-7,0,7,-3,-4,0,-5,-9,-32,-3,26
-6,-7,-1,7,-3,-4,0,-5,-9,-32,-3,26
-5,-7,-1,6,-2,-4,0,-5,-9,-31,-2,27
-6,-7,-1,6,-2,-4,1,-6,-9,-31,-2,27
-7,-8,-1,7,-2,-4,1,-6,-9,-31,-3,26
-8,-9,-1,8,-3,-5,1,-6,-9,-31,-3,26
-9,-10,-1,9,-3,-5,0,-6,-9,-31,-3,26
-9,-11,-1,9,-3,-5,0,-7,-9,-31,-3,26
-8,-10,-1,8,-3,-5,0,-6,-9,-31,-3,26
-8,-9,0,8,-4,-4,0,-6,-8,-30,-3,26
-8,-8,1,8,-4,-3,1,-6,-8,-30,-3,25
-8,-7,1,7,-5,-2,1,-6,-8,-29,-3,25
-8,-6,2,7,-5,-2,1,-5,-7,-29,-2,25
-8,-6,2,7,-5,-1,2,-3,-5,-27,-1,25
-7,-5,2,6,-4,0,3,0,-2,-25,0,26
-6,-5,0,5,-3,-1,4,3,0,-22,2,27
-4,-5,-1,4,-1,-3,4,5,3,-19,5,28
-2,-6,-4,4,0,-5,3,6,5,-14,10,32
0,-7,-7,4,3,-7,0,8,8,-7,18,38
1,-8,-10,3,5,-10,-2,9,12,1,27,46
5,-10,-15,2,10,-13,-5,11,16,11,37,56
9,-11,-21,1,15,-16,-8,13,21,21,48,66
13,-13,-27,0,20,-20,-11,15,26,32,60,76
18,-14,-33,-1,25,-24,-13,20,33,44,73,87
23,-14,-37,-4,30,-26,-15,27,43,58,88,98
29,-12,-41,-8,34,-27,-15,37,54,73,102,110
34,-10,-45,-12,39,-28,-14,47,65,86,114,120
39,-9,-48,-15,43,-28,-13,55,72,93,120,126
41,-8,-49,-17,44,-28,-10,59,73,90,117,126
40,-8,-48,-16,44,-28,-6,59,68,76,103,117
37,-10,-48,-14,43,-28,0,55,56,51,82,101
33,-12,-46,-10,40,-28,4,49,43,24,57,82
26,-14,-40,-6,33,-27,9,39,26,15,31,60
15,-15,-32,0,24,-24,14,18,2,14,1,35
4,-16,-21,6,12,-19,18,-10,-26,-14,-29,8
-7,-17,-10,12,1,-14,20,-40,-53,-56,-56,-15
-16,-18,-1,17,-7,-11,20,-67,-75,-86,-76,-33
-24,-20,4,21,-14,-8,16,-89,-91,-107,-90,-47
-30,-21,8,25,-19,-6,11,-106,-103,-122,-99,-57
-34,-22,11,28,-22,-5,5,-120,-113,-131,-104,-63
-36,-23,13,29,-24,-5,-2,-132,-121,-136,-106,-67
-37,-24,13,30,-25,-6,-10,-141,-127,-140,-106,-69
-36,-25,11,30,-24,-7,-17,-147,-132,-141,-105,-69
-35,-27,8,31,-21,-10,-24,-149,-133,-139,-103,-68
-34,-31,3,32,-19,-14,-28,-147,-132,-135,-99,-65
-33,-34,-1,33,-16,-18,-29,-141,-127,-130,-94,-61
-33,-37,-5,34,-14,-21,-30,-133,-121,-124,-88,-57
-32,-40,-8,35,-12,-24,-30,-123,-113,-117,-82,-53
-31,-42,-10,36,-11,-26,-28,-110,-104,-109,-75,-48
-30,-41,-11,35,-10,-26,-25,-96,-92,-100,-67,-42
-26,-37,-10,32,-8,-24,-21,-81,-79,-90,-58,-35
-22,-32,-9,27,-7,-21,-17,-65,-66,-79,-49,-27
-19,-27,-8,23,-6,-18,-13,-52,-55,-69,-40,-20
-16,-24,-8,20,-5,-16,-11,-40,-45,-60,-33,-14
-13,-22,-8,17,-3,-15,-9,-31,-36,-52,-26,-7
-11,-19,-8,14,-1,-13,-8,-23,-29,-45,-19,-2
-8,-15,-7,11,-1,-11,-7,-16,-23,-40,-14,3
-7,-12,-5,9,-1,-8,-6,-10,-17,-35,-10,7
-7,-10,-3,8,-2,-6,-5,-6,-13,-32,-7,9
-7,-9,-1,8,-3,-5,-4,-3,-10,-29,-5,11
-7,-8,0,7,-3,-4,-2,-2,-8,-27,-4,13
-7,-7,0,6,-3,-4,-1,-1,-6,-25,-2,14
-6,-7,0,6,-3,-3,0,0,-5,-23,-1,16
-6,-6,0,5,-3,-2,0,1,-4,-22,1,18
-4,-4,0,3,-3,-1,0,1,-3,-21,2,20
-3,-3,0,2,-2,-1,0,2,-2,-20,3,21
-3,-3,0,2,-1,-1,0,2,-2,-20,4,21
-4,-4,0,3,-1,-2,-1,2,-2,-20,4,21
-5,-5,0,4,-2,-2,-1,2,-2,-19,4,21
-5,-5,0,5,-3,-2,-2,2,-2,-19,4,21
-5,-4,1,4,-3,-2,-2,2,-2,-18,5,22
-5,-3,1,4,-3,-2,-2,2,-1,-17,6,22
-5,-3,1,3,-3,-1,-2,2,-1,-16,6,22
-4,-2,1,3,-3,0,-1,3,0,-16,6,22
-4,-1,2,2,-2,0,-1,3,0,-16,6,22
-3,-1,2,2,-2,0,-1,3,0,-16,6,22
-2,0,2,1,-2,0,-1,3,1,-16,6,22
-2,0,2,1,-2,1,-1,3,1,-16,6,21
-1,0,2,0,-2,1,-1,3,1,-15,6,21
-1,0,2,0,-2,1,-1,3,1,-14,6,21
-2,0,2,0,-2,1,-1,4,1,-14,7,21
-2,0,3,0,-3,2,-1,4,2,-13,8,20
-3,0,2,1,-2,1,-1,5,2,-13,8,19
-3,-1,2,2,-2,1,-1,5,2,-14,7,18
-3,-1,2,2,-3,0,-2,5,2,-14,7,17
-4,-2,2,3,-3,0,-2,5,2,-14,7,17
-4,-2,2,3,-3,0,-2,5,2,-14,7,16
-5,-3,2,4,-4,0,-2,5,2,-14,7,16
-6,-4,2,5,-4,0,-2,5,3,-13,8,16
-6,-4,2,4,-3,0,-2,6,3,-12,8,16
-4,-3,1,3,-2,0,-2,6,4,-12,9,16
-3,-1,2,2,-2,0,-2,7,5,-11,10,17
-2,0,2,0,-2,1,-1,8,6,-10,12,17
-1,1,3,0,-2,2,-1,9,7,-8,13,18
0,2,3,-1,-1,3,-2,10,7,-7,14,19
0,3,3,-2,-1,3,-2,10,8,-7,14,20
0,3,2,-2,0,3,-2,11,8,-6,15,20
0,3,1,-2,0,2,-2,11,8,-6,15,21
0,3,2,-2,-1,3,-2,11,8,-6,15,21
0,3,2,-2,-1,3,-2,12,9,-6,16,22
0,3,3,-2,-2,3,-2,12,9,-5,17,22
0,3,4,-1,-2,3,-2,12,10,-4,17,22
0,3,3,-1,-2,3,-3,13,10,-4,18,23
0,3,3,-1,-1,3,-3,13,10,-3,18,24
0,4,3,-2,-1,3,-3,14,11,-2,19,25
1,4,3,-3,0,4,-3,15,12,-1,21,26
2,5,3,-4,0,4,-4,16,12,0,22,27
2,5,3,-4,0,4,-4,17,13,0,23,27
2,5,3,-4,0,4,-4,18,14,1,24,28
3,6,3,-5,0,4,-4,19,15,2,25,29
4,7,3,-6,0,5,-4,19,16,3,26,29
6,9,3,-8,1,6,-5,20,16,4,26,30
7,10,3,-9,2,6,-5,21,17,6,27,30
8,11,3,-9,2,7,-4,22,19,8,29,31
8,11,3,-9,2,7,-4,23,20,9,30,32
8,12,4,-9,2,8,-5,24,21,10,31,33
8,12,4,-10,2,8,-5,24,21,10,32,34
8,12,4,-10,3,8,-5,25,22,11,34,35
9,12,4,-10,3,8,-6,26,22,12,35,36
9,12,4,-10,3,8,-6,26,23,13,36,36
9,12,4,-11,3,8,-7,27,23,14,37,37
9,13,4,-12,3,9,-7,28,24,15,38,39
10,14,4,-13,3,9,-7,28,24,16,39,40
11,15,4,-14,3,10,-8,28,25,17,41,41
12,16,4,-15,3,10,-8,28,26,18,42,42
12,18,4,-16,4,11,-8,29,27,19,43,43
13,19,5,-16,4,12,-8,29,27,20,44,44
13,19,6,-17,3,13,-8,29,27,20,45,45
14,20,6,-17,4,13,-8,29,27,21,45,46
14,19,5,-17,4,12,-8,29,27,21,45,46
14,18,4,-17,5,11,-8,29,27,21,45,47
13,18,4,-16,4,11,-8,29,27,21,46,47
13,18,4,-16,4,11,-8,29,27,21,46,48
14,18,3,-16,5,11,-8,28,27,21,47,48
15,18,3,-17,6,11,-8,28,27,22,47,48
16,19,3,-17,6,12,-8,27,27,22,47,49
16,20,4,-18,6,12,-8,27,27,22,47,49
16,20,4,-18,6,12,-7,27,27,23,48,49
16,20,4,-18,6,12,-7,27,27,23,48,49
15,20,4,-18,5,12,-7,27,27,23,48,49
15,20,4,-18,5,12,-7,27,26,23,48,48
15,20,4,-17,5,12,-7,26,25,22,48,48
14,19,5,-17,4,12,-7,25,25,22,48,47
13,19,5,-16,4,12,-6,25,25,22,48,46
12,18,5,-15,3,12,-6,25,25,22,47,46
12,17,5,-14,3,11,-6,24,24,21,47,45
11,16,5,-14,3,11,-5,24,24,21,46,43
10,15,5,-13,3,10,-5,23,23,20,45,42
10,15,4,-12,3,10,-4,23,23,20,45,42
10,14,4,-12,3,9,-4,22,23,20,45,41
9,13,3,-11,3,8,-3,22,22,20,44,41
7,12,3,-10,2,8,-3,21,21,19,43,40
6,11,4,-9,1,8,-3,20,20,18,42,38
4,10,4,-7,0,7,-3,19,20,17,41,37
3,8,4,-6,0,7,-2,18,19,17,40,36
3,8,4,-6,0,7,-1,17,18,16,39,34
4,9,5,-7,0,7,-1,16,17,15,38,33
4,9,5,-7,0,7,0,15,16,14,37,31
5,9,4,-7,0,7,0,14,15,14,36,30
5,9,4,-7,0,7,0,13,14,13,35,28
4,8,4,-6,0,6,0,12,13,12,34,26
2,7,5,-5,-1,6,0,10,12,11,33,24
1,7,6,-4,-2,6,0,9,11,10,32,22
1,6,5,-4,-1,6,1,8,11,9,31,21
1,6,4,-4,-1,5,1,8,10,8,30,19
0,5,4,-3,-2,5,1,6,8,7,29,17
-1,3,4,-1,-3,4,1,5,7,6,28,15
-1,2,4,-1,-3,3,1,4,5,5,27,14
-1,2,3,-1,-3,3,1,3,4,4,26,13
-2,1,3,0,-3,2,1,2,3,3,25,11
-3,0,3,1,-4,2,2,1,2,2,25,10
-3,0,3,2,-4,2,2,0,2,2,24,9
-3,0,3,1,-3,2,3,0,1,1,24,8
-2,0,3,1,-3,2,3,0,1,1,24,8
-2,0,3,1,-3,1,3,0,0,0,23,7
-2,0,2,1,-2,0,3,-1,0,0,23,6
-2,0,2,1,-2,0,3,-1,-1,-1,22,5
-2,1,2,0,-2,1,4,-1,-1,-1,22,4
-2,1,3,0,-2,2,4,-1,-1,-1,21,4
-3,0,3,1,-3,1,5,-2,-2,-2,20,3
-4,-1,2,2,-3,0,4,-2,-2,-3,19,2
-5,-3,2,3,-3,0,4,-3,-3,-4,18,1
-5,-4,2,4,-3,-1,4,-3,-3,-4,18,0
-5,-3,2,4,-3,0,5,-3,-3,-4,18,-1
-5,-2,2,3,-3,0,5,-3,-3,-3,18,-2
-5,-2,2,3,-3,0,5,-4,-3,-3,18,-3
-5,-2,2,3,-3,0,5,-4,-4,-3,18,-4
-5,-2,2,4,-3,0,5,-4,-4,-4,18,-4
-5,-2,2,4,-3,0,5,-4,-4,-4,18,-5
-4,-3,2,4,-3,0,5,-4,-4,-4,18,-5
-5,-3,2,4,-3,0,6,-4,-3,-4,18,-5
-5,-4,2,4,-4,0,6,-4,-3,-4,18,-6
-6,-4,2,5,-4,-1,7,-4,-3,-4,17,-6
-6,-4,1,5,-4,-1,8,-3,-3,-4,17,-7
-5,-3,1,4,-3,0,8,-2,-3,-4,18,-7
-4,-3,1,3,-2,0,8,-2,-3,-4,18,-7
-5,-3,1,4,-3,0,7,-3,-3,-4,17,-8
-5,-4,1,4,-3,0,7,-3,-3,-5,16,-9
-6,-4,1,5,-3,-1,7,-3,-3,-6,15,-10
-6,-5,1,6,-3,-1,7,-3,-3,-6,15,-10
-7,-5,1,5,-4,-1,7,-3,-3,-5,15,-11
-7,-4,3,5,-5,0,7,-3,-4,-5,15,-12
-8,-4,3,5,-5,0,7,-3,-4,-5,15,-13
-8,-4,3,6,-6,0,7,-3,-4,-5,15,-13
-8,-4,3,6,-6,0,7,-3,-3,-5,15,-13
-7,-4,3,5,-6,0,7,-3,-3,-4,15,-13
-7,-3,3,5,-5,0,7,-2,-3,-4,16,-12
-5,-2,3,4,-5,1,8,-2,-2,-3,17,-11
-4,0,3,2,-4,1,8,-1,-1,-1,18,-10
-3,0,3,1,-4,2,8,0,-1,0,19,-10
-3,0,3,1,-4,2,8,0,0,0,20,-9
-4,0,3,1,-4,2,9,0,0,0,20,-9
-4,0,4,1,-4,2,9,1,0,0,21,-9
-4,0,4,1,-4,2,10,1,0,0,21,-9
-4,0,4,1,-4,2,10,1,0,0,21,-9
-3,1,4,1,-4,3,10,1,0,0,21,-9
-3,2,5,0,-5,4,11,2,1,1,21,-8
-3,3,6,0,-5,4,12,2,1,2,22,-8
-3,3,6,0,-5,5,12,3,2,2,22,-8
-2,4,6,-1,-4,5,13,3,2,3,23,-7
-2,5,6,-1,-4,6,13,4,2,3,23,-7
-1,5,7,-1,-4,6,13,4,3,3,24,-6
-2,5,7,-1,-5,6,13,4,3,4,24,-5
-3,4,7,0,-6,6,12,4,4,4,24,-5
-4,4,7,0,-6,6,12,4,4,5,24,-5
-3,4,7,0,-6,6,11,4,4,5,25,-5
-3,5,7,-1,-5,6,10,3,4,5,24,-5
-2,4,6,-1,-5,6,9,2,2,4,23,-6
-2,3,6,0,-4,5,8,1,1,4,22,-7
-2,3,6,0,-4,5,8,1,1,4,22,-7
-2,4,7,-1,-5,6,7,0,1,4,23,-7
-2,6,7,-2,-5,7,7,0,1,5,24,-6
-2,6,7,-2,-5,7,7,0,1,6,25,-6
-1,6,6,-3,-4,7,7,0,1,6,25,-6
-1,6,6,-3,-4,7,7,0,1,7,25,-5
-1,6,6,-3,-4,7,6,0,1,7,25,-5
0,6,6,-3,-3,7,6,-1,1,7,25,-5
0,6,6,-3,-3,6,5,-1,1,7,25,-4
2,7,5,-4,-2,6,5,-1,1,7,25,-4
3,8,5,-5,-1,6,4,-2,0,7,25,-4
4,7,3,-5,0,6,4,-2,0,6,25,-4
3,6,2,-5,0,4,3,-3,-1,5,24,-5
3,5,1,-4,1,3,2,-4,-2,5,23,-5
3,3,0,-3,1,2,1,-5,-3,4,23,-5
3,2,-1,-3,2,1,1,-5,-3,3,22,-6
3,2,-1,-3,2,0,1,-6,-4,3,22,-6
3,1,-1,-3,2,0,1,-6,-4,3,22,-6
3,1,-1,-2,2,0,2,-6,-4,3,22,-5
1,0,-1,0,1,0,2,-6,-4,4,22,-5
0,0,-1,0,0,0,3,-5,-3,5,22,-5
-1,0,0,0,0,0,4,-5,-2,5,22,-5
-2,0,1,0,-1,1,4,-5,-2,5,22,-4
-2,0,1,0,-1,1,5,-5,-2,5,21,-5
-1,1,2,0,-1,2,5,-5,-3,5,20,-5
-1,0,1,0,-1,1,6,-5,-3,5,20,-5
-1,0,0,1,-1,0,7,-5,-3,5,20,-5
-1,-1,0,2,-1,0,8,-5,-3,5,19,-6
-1,-1,0,2,-1,0,8,-5,-4,4,18,-6
-2,-2,0,2,-1,0,9,-5,-4,4,18,-7
-3,-4,-1,4,-1,-1,9,-5,-4,4,17,-7
-5,-6,-1,6,-2,-3,9,-6,-5,4,16,-8
-6,-7,-1,7,-3,-3,8,-6,-6,4,16,-9
-7,-8,-1,7,-3,-4,9,-6,-6,4,15,-9
-6,-8,-1,7,-3,-4,9,-6,-6,4,15,-9
-7,-8,-1,7,-4,-4,9,-6,-6,4,15,-9
-7,-8,0,8,-4,-4,8,-7,-6,3,14,-9
-6,-7,0,7,-3,-4,8,-7,-6,4,14,-9
-6,-7,-1,7,-3,-4,7,-7,-7,4,13,-9
-7,-7,0,7,-3,-4,7,-7,-7,4,13,-9
-8,-8,0,7,-4,-4,7,-7,-7,4,12,-10
-7,-8,0,7,-4,-3,7,-7,-7,4,12,-10
-7,-8,0,7,-4,-3,7,-7,-7,5,12,-9
-7,-8,0,7,-4,-4,7,-7,-7,6,13,-9
-8,-9,0,8,-4,-4,7,-7,-7,7,13,-9
-8,-9,-1,8,-4,-5,7,-7,-7,7,13,-8
-7,-9,-1,8,-3,-5,8,-7,-7,8,13,-8
-7,-9,-2,8,-3,-5,8,-7,-7,8,13,-8
-8,-9,-2,8,-3,-5,8,-7,-6,8,13,-8
-7,-9,-1,8,-3,-5,8,-7,-6,8,12,-7
-6,-8,-1,7,-3,-5,8,-6,-6,8,12,-7
-6,-8,-2,7,-2,-6,8,-6,-6,8,12,-6
-5,-8,-2,7,-2,-6,8,-6,-6,8,12,-6
-5,-8,-3,7,-1,-5,9,-6,-6,9,12,-6
-4,-7,-3,6,0,-5,9,-6,-6,9,12,-6
-3,-7,-4,5,0,-5,8,-6,-6,9,12,-6
-3,-7,-4,5,0,-6,8,-7,-7,9,11,-6
-4,-8,-3,6,0,-6,8,-7,-7,9,11,-6
-5,-8,-2,6,-2,-5,9,-6,-6,10,11,-6
-5,-8,-2,6,-2,-5,8,-6,-6,10,11,-6
-6,-8,-2,7,-2,-5,8,-7,-6,10,11,-6
-7,-9,-1,8,-3,-5,7,-7,-7,10,10,-6
-8,-9,-1,8,-3,-5,6,-7,-7,10,10,-6
-7,-8,-1,8,-3,-5,6,-8,-7,10,10,-6
-7,-8,-1,7,-2,-5,6,-8,-7,11,10,-6
-6,-8,-1,7,-2,-5,6,-8,-7,11,10,-6
-6,-8,-1,7,-3,-5,7,-7,-6,12,10,-5
-6,-7,0,6,-3,-4,7,-7,-6,13,10,-5
-6,-6,0,6,-3,-3,8,-6,-5,13,10,-5
-6,-6,0,6,-3,-3,9,-4,-3,15,11,-5
-6,-7,0,7,-3,-3,11,-1,0,17,13,-3
-5,-8,-2,7,-1,-5,12,1,2,20,15,-2
-4,-9,-5,7,0,-7,11,3,5,24,19,1
-3,-11,-8,7,2,-9,9,4,8,31,26,7
-1,-13,-12,7,5,-12,6,5,11,39,36,15
2,-14,-16,6,9,-15,3,6,15,49,46,25
5,-15,-21,5,13,-18,0,8,20,59,58,36
9,-17,-26,4,18,-21,-3,11,25,70,71,47
14,-17,-31,2,23,-23,-5,14,30,82,84,59
20,-16,-36,-1,28,-25,-7,19,38,96,99,73
26,-14,-40,-6,33,-26,-8,27,48,111,114,86
33,-12,-45,-10,39,-27,-8,36,59,126,129,99
39,-11,-49,-14,44,-28,-8,44,68,137,140,109
43,-9,-51,-17,47,-29,-7,51,74,141,143,113
44,-8,-51,-17,47,-29,-5,54,74,134,135,108
41,-9,-50,-15,45,-30,-1,54,67,115,117,96
37,-11,-48,-12,42,-30,4,51,56,90,92,78
31,-13,-44,-8,37,-29,9,46,43,63,65,58
22,-15,-37,-3,29,-26,15,36,27,35,36,35
10,-17,-28,3,19,-22,21,16,5,2,3,8
-1,-18,-17,9,8,-17,26,-9,-22,-30,-29,-19
-11,-19,-8,15,-1,-14,28,-36,-47,-58,-57,-43
-19,-22,-2,21,-9,-12,28,-60,-68,-78,-77,-61
-26,-23,3,25,-15,-10,26,-80,-84,-92,-92,-75
-31,-23,7,28,-19,-8,21,-96,-97,-100,-100,-84
-34,-23,10,29,-22,-6,16,-110,-107,-105,-104,-89
-36,-24,11,30,-24,-6,9,-123,-115,-107,-106,-91
-37,-27,11,32,-25,-7,1,-133,-123,-108,-106,-91
-39,-29,10,33,-25,-9,-5,-140,-128,-107,-105,-91
-39,-32,8,35,-24,-12,-11,-143,-129,-104,-102,-89
-39,-35,4,36,-22,-15,-15,-140,-128,-100,-97,-85
-39,-37,1,38,-20,-18,-17,-134,-123,-94,-92,-81
-38,-39,-1,38,-18,-20,-17,-126,-117,-86,-85,-75
-35,-39,-5,37,-15,-22,-17,-115,-108,-78,-78,-69
-32,-39,-7,36,-12,-23,-16,-103,-98,-70,-70,-62
-30,-39,-9,34,-10,-23,-14,-90,-87,-60,-62,-55
-27,-37,-10,32,-8,-23,-12,-77,-75,-50,-53,-48
-23,-34,-10,28,-6,-22,-9,-64,-64,-40,-45,-41
-19,-30,-11,24,-4,-21,-6,-51,-53,-31,-36,-34
-15,-26,-11,20,-2,-19,-3,-40,-43,-22,-29,-28
-11,-21,-11,16,0,-17,-1,-31,-35,-15,-22,-22
-8,-18,-10,14,0,-15,0,-24,-28,-9,-17,-16
-6,-15,-9,11,1,-12,2,-17,-21,-4,-12,-12
-4,-12,-8,8,2,-10,3,-12,-16,1,-7,-9
-3,-10,-6,7,1,-8,4,-8,-11,5,-4,-6
-4,-9,-4,6,1,-7,5,-5,-8,8,-1,-4
-4,-9,-4,7,0,-7,6,-3,-5,11,0,-2
-4,-8,-3,6,0,-6,6,-2,-4,13,2,0
-3,-5,-2,4,-1,-4,7,-1,-3,14,4,1
-4,-4,0,4,-2,-2,7,0,-2,15,5,2
-4,-3,0,4,-2,-2,7,0,-1,16,6,4
-3,-2,0,3,-1,-1,7,1,0,17,7,5
-1,-1,0,2,-1,0,7,2,1,18,8,6
0,-1,0,1,0,0,7,2,2,19,8,7
-1,-1,1,1,-1,0,7,2,2,20,9,7
-2,-1,1,2,-2,0,6,2,3,20,9,7
-2,-1,1,2,-2,0,6,2,3,20,9,8
-2,-1,0,2,-1,-1,6,1,2,20,8,8
-3,-1,0,3,-1,0,6,1,2,19,7,8
-4,-1,1,3,-2,0,7,1,2,19,7,8
-4,-2,1,3,-2,0,7,2,3,19,7,8
-3,-2,1,3,-1,0,7,2,3,19,7,8
-3,-3,0,3,-1,-1,7,2,3,19,7,8
-3,-2,1,3,-1,-1,8,3,4,19,7,8
-2,-1,1,2,-1,0,8,3,4,20,7,9
-2,0,1,1,-1,0,8,3,4,20,7,10
-2,-1,0,2,-1,-1,8,3,4,21,7,11
-2,-1,0,2,-2,-1,8,4,4,21,8,11
-2,-1,1,2,-2,0,7,4,5,22,8,12
-2,-1,2,2,-2,0,7,4,5,23,9,12
-2,0,3,1,-2,1,6,4,6,23,9,12
-2,0,3,1,-2,1,5,5,6,24,9,13
-2,0,3,1,-2,1,4,5,6,24,9,13
-3,0,2,1,-2,1,4,5,6,24,9,14
-2,0,1,1,-2,0,3,5,6,24,9,14
-1,0,1,0,-1,0,3,5,7,25,9,15
-1,0,1,0,-1,1,3,5,8,26,10,15
-2,0,2,1,-2,1,3,5,8,25,10,15
-2,0,3,1,-2,1,3,6,8,25,10,15
-1,0,2,1,-1,1,3,6,8,26,10,15
-1,0,1,0,-1,1,4,7,9,27,11,16
0,1,1,0,0,1,4,8,9,28,11,17
0,2,2,0,0,2,4,8,10,29,12,17
1,3,2,-2,0,3,5,9,11,30,12,18
2,4,2,-3,0,3,5,10,11,31,13,19
2,4,2,-3,0,4,5,10,11,31,13,19
1,4,2,-2,-1,3,5,10,11,30,13,19
0,3,2,-2,-1,3,4,10,12,31,13,20
0,3,2,-2,0,3,3,11,12,31,14,20
1,3,2,-2,0,3,3,11,13,32,15,21
2,4,2,-3,0,3,2,12,14,34,16,22
4,6,2,-5,1,4,2,13,15,35,17,23
6,8,2,-7,2,5,2,14,16,36,19,24
6,9,2,-7,2,6,2,15,17,37,20,25
6,10,3,-8,1,7,2,16,17,37,21,26
6,11,4,-9,2,8,2,17,18,38,22,27
7,12,4,-10,2,8,2,18,19,39,23,28
7,12,4,-10,2,8,2,19,20,39,23,29
8,13,4,-10,2,8,2,19,20,40,24,30
9,13,4,-10,2,9,1,20,21,41,25,31
9,13,4,-11,3,9,1,21,22,42,26,32
8,12,4,-10,2,8,0,21,23,43,27,33
7,12,4,-9,2,8,-1,22,23,43,27,34
7,12,4,-9,2,8,-2,22,23,44,28,35
8,14,4,-10,2,10,-2,22,24,45,29,36
8,15,5,-11,2,11,-2,23,25,46,30,37
9,16,6,-12,2,11,-2,23,25,47,31,38
9,16,6,-13,2,12,-3,24,26,48,32,39
10,17,7,-13,2,12,-3,24,26,49,33,40
10,17,7,-13,2,12,-4,24,26,49,33,40
11,18,6,-14,3,12,-5,24,26,49,34,41
12,18,6,-15,4,12,-6,24,27,50,35,42
12,18,6,-15,4,12,-6,24,27,50,35,43
11,18,7,-14,3,12,-6,24,27,51,36,44
11,18,7,-14,3,13,-6,24,27,51,36,45
11,19,7,-15,3,13,-6,24,28,52,37,45
12,19,7,-15,3,13,-6,24,28,52,37,46
12,18,7,-15,3,13,-7,24,28,52,37,46
12,19,7,-15,3,13,-7,24,28,52,37,46
13,20,7,-16,3,14,-7,24,28,52,37,46
13,21,7,-17,3,15,-7,24,29,53,38,47
13,21,7,-17,3,15,-7,24,28,52,37,47
12,21,8,-17,2,15,-7,23,28,52,37,46
12,21,7,-16,3,15,-7,22,27,51,36,46
12,20,7,-16,3,14,-6,22,26,51,36,46
12,20,7,-16,3,14,-6,22,26,52,36,47
12,20,7,-16,3,14,-5,22,26,52,37,47
12,19,6,-15,3,13,-5,22,27,53,37,48
13,19,6,-15,3,13,-5,22,26,52,36,47
13,19,6,-15,3,13,-5,22,26,51,35,47
13,19,6,-15,3,13,-5,21,25,51,35,46
12,18,6,-14,3,13,-5,21,25,50,34,46
11,17,6,-13,3,12,-4,20,24,50,33,45
10,16,6,-13,2,11,-4,20,24,49,32,44
9,15,6,-12,2,11,-4,19,23,49,31,44
7,14,6,-10,1,10,-3,19,22,48,30,43
7,14,7,-10,0,10,-3,18,22,48,29,42
7,14,7,-10,0,10,-2,18,21,47,28,41
8,15,7,-11,1,11,-2,18,21,46,28,41
9,15,6,-11,1,11,-2,17,21,45,27,40
9,15,6,-11,1,11,-1,17,20,45,26,39
9,15,6,-12,2,11,0,16,19,44,25,39
9,14,6,-11,2,10,0,16,19,44,24,38
7,12,5,-9,1,9,0,15,18,43,23,37
5,10,6,-7,0,8,0,14,17,42,21,36
3,8,6,-5,-1,8,-1,12,16,40,19,34
2,7,5,-4,-1,7,-1,11,14,38,18,32
3,7,5,-4,-1,7,-1,10,13,36,16,31
3,7,5,-4,0,6,-1,9,12,35,15,31
2,7,5,-4,-1,6,0,8,11,34,14,30
2,6,5,-4,-1,6,0,8,10,33,13,29
2,6,4,-3,0,5,0,7,9,32,12,27
1,6,4,-3,0,5,0,6,8,31,10,26
0,5,5,-2,-1,5,0,5,7,30,9,25
-1,3,5,0,-3,4,0,4,6,29,7,24
-2,2,4,0,-3,3,0,3,4,27,6,23
-2,1,4,1,-4,3,0,2,3,26,5,22
-3,1,5,1,-5,3,0,1,3,26,4,21
-4,1,6,2,-5,3,0,1,3,26,4,21
-4,1,5,2,-5,3,1,0,2,25,3,20
-3,2,4,1,-4,3,1,0,2,24,2,19
-2,2,4,0,-3,3,2,0,1,23,2,18
-2,2,3,0,-2,3,2,0,1,23,1,18
-3,0,3,1,-2,2,3,0,0,22,1,17
-3,0,3,1,-2,2,3,0,0,22,0,17
-3,1,3,1,-2,2,3,-1,0,22,0,17
-3,0,3,1,-3,1,2,-1,0,21,0,17
-4,0,3,2,-3,1,2,-2,-1,21,-1,16
-5,-1,3,3,-4,1,1,-2,-1,20,-2,16
-5,-1,3,3,-4,1,1,-2,-2,20,-2,15
-5,-1,3,3,-4,1,1,-3,-2,19,-3,15
-5,-1,3,3,-4,1,1,-3,-3,19,-4,14
-5,-1,4,3,-4,1,1,-3,-3,19,-4,14
-5,-1,4,3,-4,1,2,-2,-3,19,-4,14
-5,-1,5,3,-4,1,2,-2,-3,19,-4,14
-4,0,4,3,-4,1,2,-3,-3,18,-5,14
-3,0,3,2,-3,1,2,-3,-3,18,-6,13
-3,0,3,1,-3,2,2,-2,-3,18,-6,13
-3,1,4,1,-3,2,2,-2,-2,18,-6,13
-3,1,4,1,-3,2,2,-2,-2,18,-6,13
-3,0,5,1,-3,2,2,-2,-2,17,-6,13
-4,0,5,2,-4,2,2,-2,-3,17,-6,13
-5,-1,4,3,-4,1,2,-2,-3,16,-7,13
-6,-2,3,4,-4,0,2,-2,-3,17,-7,13
-6,-3,2,5,-4,0,2,-2,-2,18,-6,13
-6,-3,3,5,-4,0,2,-2,-2,18,-6,14
-6,-3,3,4,-5,0,2,-2,-2,18,-6,14
-6,-2,4,4,-5,0,2,-2,-2,18,-6,14
-6,-2,4,4,-5,0,2,-2,-2,18,-6,14
-5,-2,4,3,-4,0,2,-2,-2,18,-6,14
-4,0,4,2,-4,1,2,-1,-2,18,-6,14
-4,0,4,1,-4,2,2,-1,-1,19,-6,15
-4,1,4,1,-4,2,2,0,-1,20,-5,15
-3,1,4,1,-4,2,2,0,0,21,-5,16
-3,1,4,1,-3,2,3,0,0,21,-5,16
-3,1,4,1,-4,3,3,1,0,22,-5,17
-3,2,5,0,-4,3,3,1,0,23,-4,17
-2,4,6,-1,-4,4,4,2,1,23,-3,18
-2,5,7,-1,-4,5,4,3,2,24,-2,19
-2,5,7,-2,-5,6,5,3,2,24,-2,19
-1,6,7,-2,-4,6,5,4,3,25,-1,20
0,6,7,-3,-3,6,5,4,3,25,-1,20
-1,6,7,-2,-4,6,5,4,4,26,-1,20
-3,4,8,-1,-5,6,4,4,4,26,-1,20
-4,3,8,0,-6,6,4,4,3,25,-1,20
-5,3,9,0,-6,6,4,4,3,25,-2,19
-5,4,8,0,-6,6,4,4,3,25,-2,19
-4,5,7,-1,-5,5,4,4,3,25,-2,19
-3,5,7,-2,-4,6,5,4,4,25,-2,19
-3,5,8,-2,-5,6,5,4,4,26,-2,20
-3,5,9,-1,-6,7,4,4,4,26,-2,20
-4,5,10,-1,-6,7,4,4,4,27,-1,20
-3,6,10,-1,-6,8,4,4,5,27,-1,21
-2,7,9,-2,-5,8,4,4,6,27,0,21
-1,8,9,-3,-5,9,4,4,6,27,0,21
-1,8,10,-4,-5,9,3,4,5,26,0,21
-1,8,10,-4,-5,9,2,3,4,26,0,21
-1,8,9,-3,-4,8,2,2,3,26,0,21
-1,8,9,-3,-4,8,1,1,3,26,0,20
0,8,9,-4,-4,9,0,0,2,25,-1,20
0,9,9,-4,-4,9,0,0,2,25,-1,20
0,9,9,-4,-4,9,0,0,2,25,-1,20
0,9,8,-4,-4,8,-1,0,2,25,-1,20
0,9,8,-4,-3,8,-1,-1,1,24,-1,20
1,9,8,-5,-3,8,-2,-1,1,24,-1,20
2,9,8,-5,-2,8,-2,-1,1,25,-1,20
2,9,8,-5,-2,8,-3,-2,0,25,0,20
2,9,8,-5,-2,8,-3,-2,0,25,0,20
2,8,7,-5,-2,7,-3,-2,0,25,0,21
2,7,5,-4,-1,6,-3,-2,0,25,0,21
2,7,4,-4,0,6,-3,-2,0,24,0,21
3,7,4,-5,0,6,-3,-2,0,24,0,21
4,8,4,-6,0,6,-3,-2,0,24,0,21
5,8,4,-6,1,6,-3,-2,0,25,0,21
5,7,3,-6,1,5,-3,-3,-1,25,-1,21
5,6,2,-5,1,4,-3,-3,-1,24,-1,20
4,6,2,-5,1,4,-2,-2,-1,24,-1,20
3,5,2,-4,0,4,-1,-2,0,24,-1,20
0,4,3,-2,-1,3,-1,-2,-1,23,-2,20
-1,3,4,-1,-2,3,-1,-4,-2,22,-3,18
-2,2,4,0,-3,3,-1,-5,-3,21,-4,16
-2,2,4,0,-3,3,-1,-5,-3,20,-5,16
-2,1,4,1,-3,3,0,-4,-3,20,-5,16
-3,0,4,2,-4,2,0,-4,-4,20,-6,15
-3,0,3,2,-3,1,1,-4,-4,20,-6,15
-2,0,2,1,-3,1,1,-4,-4,20,-6,15
-3,-1,2,2,-3,0,1,-4,-4,20,-6,15
-5,-2,3,3,-4,0,1,-4,-4,19,-7,14
-7,-3,3,5,-5,0,1,-5,-5,19,-7,13
-8,-5,2,7,-5,-1,1,-5,-5,18,-8,13
-8,-6,1,7,-4,-2,1,-5,-5,18,-8,12
-7,-6,1,7,-4,-2,2,-5,-6,18,-8,12
-7,-6,1,7,-4,-2,2,-6,-6,17,-9,12
-7,-6,1,7,-4,-2,2,-6,-6,17,-9,11
-7,-6,1,6,-4,-2,2,-6,-6,17,-9,11
-7,-6,1,6,-4,-2,2,-6,-6,17,-9,11
-7,-5,1,6,-4,-1,2,-6,-6,18,-9,11
-5,-3,2,4,-3,-1,2,-6,-6,18,-9,11
-3,-1,2,3,-2,0,3,-5,-6,18,-9,11
-2,-1,1,2,-2,0,3,-5,-6,18,-9,11
-3,-2,1,3,-2,0,2,-5,-6,17,-9,11
-4,-4,0,4,-2,-2,2,-5,-6,17,-9,10
-5,-5,0,5,-2,-2,2,-5,-6,17,-10,10
-6,-6,1,6,-3,-2,2,-5,-6,17,-10,10
-7,-6,1,6,-4,-2,2,-5,-6,17,-10,10
-8,-7,1,7,-4,-3,2,-5,-7,17,-10,10
-8,-7,0,7,-4,-3,1,-6,-7,17,-10,10
-8,-7,0,8,-4,-3,1,-6,-7,17,-10,10
-8,-7,0,8,-4,-3,2,-5,-6,17,-9,10
-8,-7,0,8,-4,-3,2,-5,-6,17,-9,10
-6,-6,0,7,-3,-3,2,-5,-6,17,-9,10
-4,-6,-1,6,-1,-3,2,-5,-6,17,-9,10
-3,-6,-2,5,0,-4,2,-5,-6,17,-9,9
-4,-6,-2,5,0,-4,2,-6,-6,16,-10,9
-5,-7,-2,6,-1,-4,2,-6,-6,16,-10,9
-7,-7,-1,6,-2,-4,2,-6,-6,16,-10,9
-7,-7,-1,6,-2,-4,2,-5,-6,16,-10,9
-7,-7,-1,6,-2,-4,2,-5,-5,16,-10,9
-6,-6,0,6,-2,-4,2,-5,-5,16,-10,10
-5,-6,0,5,-2,-4,3,-5,-5,16,-10,10
-5,-5,0,5,-2,-3,3,-5,-5,16,-10,10
-5,-5,0,5,-2,-3,3,-4,-5,16,-10,10
-6,-5,0,5,-2,-3,3,-4,-5,17,-9,10
-6,-4,1,5,-3,-2,3,-3,-5,17,-9,10
-6,-4,1,4,-3,-1,3,-3,-4,18,-9,10
-5,-4,1,4,-3,-1,3,-2,-3,18,-8,10
-6,-5,1,6,-4,-2,3,0,-2,19,-8,10
-8,-7,1,7,-4,-3,4,2,0,21,-6,11
-8,-8,0,8,-3,-5,4,4,3,25,-3,13
-6,-9,-3,8,-1,-7,3,5,6,30,2,17
-4,-9,-6,7,1,-9,2,6,10,37,10,24
0,-10,-11,6,5,-11,0,8,14,46,20,33
3,-11,-15,4,9,-13,-3,9,18,56,32,43
7,-12,-20,2,14,-16,-7,11,22,67,44,54
12,-13,-26,1,19,-19,-10,14,27,79,57,66
17,-13,-30,-1,23,-21,-12,18,34,92,71,78
22,-12,-34,-4,28,-23,-14,24,42,106,86,90
27,-11,-38,-8,33,-24,-14,32,53,121,101,102
33,-10,-42,-11,38,-26,-14,41,63,134,115,114
38,-8,-46,-14,42,-27,-13,50,72,143,123,122
40,-7,-47,-16,44,-27,-11,56,76,144,123,124
40,-5,-46,-17,44,-25,-7,58,73,132,112,117
38,-5,-44,-16,41,-24,-2,57,65,111,91,103
34,-8,-42,-12,38,-25,4,53,53,85,65,84
26,-11,-38,-7,32,-25,9,46,39,57,38,63
17,-13,-31,-1,24,-23,15,32,19,26,7,38
6,-15,-21,5,14,-18,20,8,-6,-8,-26,10
-5,-16,-11,11,3,-14,23,-19,-34,-40,-57,-16
-16,-18,-3,17,-6,-11,24,-44,-57,-65,-82,-37
-24,-21,3,23,-14,-9,22,-66,-76,-83,-100,-53
-31,-22,8,27,-19,-7,19,-85,-91,-95,-112,-66
-34,-22,12,29,-23,-5,13,-100,-102,-101,-119,-73
-37,-22,14,30,-25,-4,7,-113,-111,-105,-122,-77
-38,-23,15,31,-26,-4,0,-124,-119,-106,-123,-79
-39,-25,14,33,-27,-5,-7,-133,-125,-107,-122,-79
-39,-27,12,33,-26,-7,-14,-137,-128,-105,-120,-78
-39,-29,9,34,-24,-10,-19,-137,-128,-101,-115,-75
-37,-32,4,34,-21,-14,-22,-133,-125,-96,-110,-71
-36,-34,0,34,-18,-17,-23,-126,-119,-89,-104,-66
-34,-35,-3,34,-15,-19,-23,-117,-112,-82,-97,-61
-31,-36,-5,34,-12,-20,-22,-107,-104,-74,-90,-55
-29,-36,-7,33,-10,-22,-20,-95,-93,-66,-82,-49
-27,-35,-8,31,-8,-22,-18,-82,-82,-57,-74,-43
-23,-33,-9,29,-6,-21,-15,-68,-70,-47,-66,-36
-20,-30,-9,25,-5,-20,-12,-55,-59,-37,-57,-30
-16,-26,-9,21,-3,-18,-10,-44,-49,-28,-49,-23
-13,-23,-10,18,-1,-17,-8,-34,-40,-19,-41,-16
-11,-21,-10,15,0,-16,-6,-25,-32,-12,-34,-11
-9,-18,-9,13,0,-14,-5,-19,-25,-6,-29,-6
-7,-15,-8,11,1,-12,-4,-13,-20,-1,-24,-3
-6,-12,-6,9,0,-9,-2,-8,-14,3,-21,-1
-5,-9,-3,8,0,-6,-1,-4,-10,6,-18,1
-5,-7,-1,6,-1,-4,0,-2,-7,9,-16,2
-5,-5,0,5,-2,-3,0,0,-5,11,-14,4
-5,-5,0,5,-3,-3,1,1,-3,12,-12,5
-6,-5,0,5,-3,-3,1,2,-2,14,-10,6
-6,-5,0,6,-3,-3,2,2,-1,15,-9,7
-7,-5,1,6,-3,-3,2,3,-1,16,-9,8
-6,-4,2,5,-3,-1,2,3,0,16,-9,8
-5,-2,2,4,-3,0,2,4,0,17,-8,8
-4,-2,2,3,-3,0,2,4,1,17,-8,8
-4,-2,2,3,-3,-1,2,4,1,17,-7,8
-4,-2,1,3,-3,-1,2,4,0,17,-7,8
-4,-2,1,3,-3,-1,2,3,0,17,-7,9
-4,-2,1,3,-3,0,2,3,1,17,-6,9
-3,-2,1,2,-2,0,2,4,1,18,-6,10
-3,-1,1,2,-2,0,2,4,2,18,-6,10
-3,0,2,1,-2,1,2,5,2,18,-6,10
-2,0,3,1,-2,2,2,5,3,18,-6,10
-2,1,3,0,-2,2,2,6,3,18,-6,10
-1,2,3,-1,-2,3,2,6,3,18,-5,10
0,3,3,-2,-1,3,2,7,4,19,-5,11
0,3,3,-2,-1,3,2,7,5,19,-4,11
-1,3,3,-1,-1,2,2,7,5,20,-4,11
-2,2,4,0,-2,2,2,7,5,20,-4,11
-2,2,4,0,-2,2,2,8,5,20,-4,11
-2,1,3,0,-1,1,2,8,5,19,-4,11
-3,0,2,1,-2,1,2,8,5,19,-4,11
-4,0,3,2,-3,1,1,8,5,19,-4,11
-5,0,4,3,-4,1,1,8,5,19,-4,11
-6,-1,4,3,-5,1,0,8,5,19,-4,11
-5,-1,3,3,-4,1,0,8,6,19,-3,11
-3,0,3,2,-3,1,0,9,6,19,-3,11
-2,0,2,1,-2,1,0,9,7,20,-2,12
-2,0,2,1,-1,1,0,10,7,20,-2,12
-2,0,2,1,-2,1,0,10,8,21,-1,12
-1,1,3,0,-2,2,1,10,8,21,-1,13
0,3,3,-2,-1,3,1,12,9,22,0,13
1,5,4,-3,-1,4,2,13,10,23,1,14
1,5,4,-3,-1,4,2,13,11,24,1,14
1,4,3,-3,-1,4,1,14,11,24,2,14
1,4,3,-3,0,3,1,14,12,24,2,14
0,4,4,-2,-1,4,0,14,12,24,2,14
0,4,5,-2,-2,5,0,14,12,24,2,14
-1,4,5,-2,-3,5,-1,14,12,24,3,14
-1,4,5,-2,-3,5,-2,15,12,25,3,15
0,4,5,-2,-3,5,-2,16,13,26,4,15
0,5,5,-3,-2,5,-2,17,14,27,5,16
0,6,5,-3,-2,5,-2,17,14,28,6,16
1,6,4,-4,-1,5,-2,18,15,28,7,17
1,6,4,-4,-1,5,-2,18,15,29,7,17
2,7,5,-4,-1,6,-2,19,16,29,8,18
2,7,5,-5,-1,6,-2,20,17,30,9,19
3,8,4,-5,0,6,-3,21,18,31,10,20
4,9,5,-6,0,6,-4,22,19,32,11,21
4,11,6,-7,0,8,-4,23,20,33,13,22
5,12,7,-8,0,10,-4,24,21,34,14,22
5,13,7,-9,0,10,-3,25,21,35,15,23
6,13,7,-10,0,10,-3,26,22,36,16,24
7,14,6,-11,1,10,-3,26,23,37,17,25
8,14,6,-11,1,10,-3,27,24,38,18,27
8,15,6,-12,1,11,-4,27,25,39,19,28
9,16,7,-12,1,11,-4,28,25,40,21,29
10,17,7,-13,2,12,-4,29,26,41,22,30
11,19,7,-14,3,12,-4,29,27,42,23,31
12,20,7,-15,4,13,-5,29,27,43,24,32
12,20,7,-15,4,13,-6,30,27,44,25,32
12,20,7,-15,3,14,-6,30,27,44,26,33
11,19,8,-15,2,14,-7,30,28,44,26,33
11,19,7,-15,2,13,-7,30,28,44,26,34
11,18,7,-15,3,13,-7,30,28,44,26,34
11,19,8,-15,3,13,-7,30,28,45,27,34
11,20,8,-15,3,14,-7,30,28,45,27,34
12,21,8,-16,3,14,-7,30,28,46,28,35
14,22,8,-18,4,15,-7,30,28,46,28,35
14,22,8,-18,4,15,-7,29,28,46,28,34
13,21,8,-18,3,15,-8,29,27,46,28,33
13,21,8,-17,3,15,-8,28,27,45,28,33
12,21,8,-16,2,15,-8,28,26,45,27,32
11,19,8,-15,2,14,-9,27,26,44,27,32
10,18,7,-13,2,12,-9,27,25,44,27,31
10,18,7,-13,2,12,-10,26,25,43,26,31
11,18,7,-14,2,12,-10,25,25,43,26,31
10,18,8,-14,2,13,-9,25,25,43,26,31
9,18,8,-13,1,13,-8,25,25,43,26,30
9,18,8,-13,1,13,-8,25,24,43,26,30
10,18,8,-14,2,13,-7,25,24,42,26,30
10,18,8,-14,2,13,-6,25,24,42,26,29
10,18,8,-14,2,13,-6,25,24,42,25,29
9,17,8,-13,1,12,-6,24,24,41,25,28
9,16,7,-12,1,12,-6,24,23,41,24,27
9,16,7,-13,2,11,-6,23,22,41,24,27
10,17,7,-14,2,12,-6,23,22,40,23,26
10,17,7,-14,2,12,-5,22,22,40,23,26
9,17,7,-13,2,12,-5,22,22,39,22,25
8,15,6,-12,2,10,-4,21,21,38,21,24
8,14,6,-11,1,10,-4,21,20,37,20,23
7,14,7,-10,1,10,-3,20,19,36,19,22
7,13,7,-10,0,10,-3,19,18,36,17,21
6,12,6,-9,0,9,-3,18,17,35,16,20
5,10,6,-7,0,8,-2,17,16,34,15,19
3,9,6,-7,-1,8,-2,16,15,32,14,18
3,10,7,-7,-1,8,-2,15,14,33,12,17
2,10,7,-6,-1,8,-2,14,13,42,11,16
2,9,7,-6,-1,8,-1,13,12,54,10,15
1,8,7,-5,-1,7,-1,12,11,52,9,14
1,8,7,-5,-2,7,-1,11,10,41,8,13
0,7,6,-4,-2,6,-1,10,9,34,6,12
0,5,6,-3,-3,6,-1,9,8,29,5,11
-1,4,6,-2,-3,5,0,8,7,26,4,10
-1,4,6,-2,-3,5,0,8,6,23,3,9
0,5,5,-2,-2,5,0,8,6,25,3,9
0,5,5,-2,-1,5,0,7,6,41,3,8
0,4,4,-2,-1,4,0,6,5,54,2,8
-1,3,4,-1,-2,3,0,5,4,47,1,7
-3,2,4,0,-3,3,1,4,3,34,0,7
-4,1,5,1,-4,2,1,3,2,28,0,6
-4,0,4,1,-4,2,1,3,1,24,-1,5
-2,1,3,0,-2,2,1,2,1,21,-1,5
-1,1,3,0,-1,2,1,2,0,18,-2,4
-2,1,3,0,-2,2,1,1,0,16,-3,4
-5,-2,3,3,-3,0,1,1,0,14,-4,3
-7,-3,3,5,-4,0,1,0,-1,12,-5,2
-7,-3,3,5,-4,0,1,0,-1,12,-6,2
-6,-2,3,4,-4,0,1,0,-1,12,-6,1
-7,-2,4,4,-5,1,1,-1,-2,12,-6,1
-7,-1,5,4,-5,2,1,-1,-2,11,-7,1
-7,-1,5,4,-5,1,1,-1,-2,11,-7,0
-7,-2,5,4,-5,1,1,-1,-3,15,-8,0
-7,-2,5,5,-5,0,1,-1,-3,21,-8,0
-7,-2,5,5,-5,0,1,-1,-3,20,-8,0
-6,-1,5,4,-4,1,1,-2,-3,12,-9,0
-5,-1,4,3,-4,1,1,-2,-4,19,-9,-1
-6,-2,3,4,-4,0,1,-2,-4,80,-9,-1
-6,-3,3,4,-5,0,1,-2,-4,152,-9,-1
-7,-3,3,5,-5,0,1,-2,-5,157,-10,-1
-8,-4,3,5,-5,0,1,-2,-5,124,-10,-1
-8,-5,3,6,-5,-1,1,-2,-5,109,-11,-2
-8,-5,2,7,-5,-2,1,-2,-5,111,-11,-2
-7,-4,3,6,-5,-1,1,-2,-5,95,-11,-2
-7,-3,4,5,-5,0,2,-2,-4,62,-10,-1
-7,-3,4,5,-5,0,2,-2,-4,39,-10,-1
-7,-4,3,5,-5,0,1,-2,-4,27,-10,-2
-8,-4,3,6,-5,0,1,-2,-4,19,-10,-2
-7,-4,3,5,-5,0,1,-1,-4,14,-10,-1
-5,-2,3,3,-4,1,2,0,-3,12,-9,0
-4,0,3,2,-3,1,2,0,-2,11,-8,0
-5,0,4,2,-4,1,2,0,-2,10,-8,0
-5,0,4,2,-4,1,2,1,-2,10,-8,0
-5,0,4,2,-4,1,2,1,-2,10,-8,0
-5,0,4,2,-4,1,2,1,-1,10,-8,0
-5,0,4,2,-4,2,2,1,-1,10,-8,0
-6,0,5,3,-5,2,2,1,-1,10,-7,0
-7,0,6,3,-6,2,2,1,-1,10,-7,0
-6,0,6,3,-6,2,2,1,-1,10,-7,0
-6,0,6,3,-5,2,2,2,0,10,-7,1
-6,0,6,3,-5,3,2,2,0,11,-6,1
-5,0,6,3,-5,3,2,2,0,11,-6,1
-4,1,6,2,-5,4,2,2,0,12,-6,1
-3,3,6,0,-4,4,2,3,1,12,-5,2
-2,3,6,0,-4,4,3,3,1,13,-5,2
-3,4,6,0,-4,4,3,3,2,13,-4,2
-4,4,7,0,-5,5,3,3,2,13,-4,3
-5,3,8,1,-6,5,3,3,2,13,-4,3
-6,3,8,2,-6,5,3,4,2,13,-4,2
-6,2,8,2,-6,5,3,4,2,14,-4,3
-6,2,8,2,-6,5,3,5,3,15,-3,3
-6,2,8,2,-7,5,3,5,4,15,-3,3
-6,3,9,2,-8,6,3,5,4,15,-3,4
-6,3,10,1,-8,6,3,4,3,15,-3,4
-5,4,10,0,-7,7,3,4,3,15,-3,4
-3,5,9,-1,-6,7,2,3,3,15,-2,4
-2,6,9,-2,-5,7,1,3,3,15,-2,5
-1,7,8,-3,-4,7,0,3,3,15,-2,5
0,8,8,-3,-3,8,0,2,2,16,-2,5
0,8,7,-4,-3,8,-1,2,2,16,-2,4
0,7,7,-3,-3,7,-1,1,1,15,-3,4
0,6,6,-3,-3,6,-2,0,1,15,-3,4
0,6,7,-3,-3,6,-2,0,1,15,-3,5
0,6,7,-3,-3,6,-3,0,0,15,-3,5
0,7,7,-4,-2,6,-3,0,0,15,-3,5
1,7,7,-4,-2,7,-3,0,0,15,-3,5
1,8,7,-4,-3,7,-4,-1,0,15,-3,5
0,8,7,-4,-2,7,-5,-1,0,15,-3,5
0,7,6,-4,-2,6,-6,-2,-1,18,-3,5
0,6,5,-3,-1,5,-6,-3,-1,21,-3,5
0,5,4,-3,-1,5,-6,-3,-2,19,-3,5
1,4,3,-3,-1,4,-6,-3,-3,16,-3,5
1,4,2,-3,0,3,-6,-3,-3,14,-3,5
1,4,2,-2,0,3,-6,-4,-3,14,-4,4
1,4,3,-2,0,3,-6,-4,-4,24,-4,4
1,4,3,-2,0,3,-6,-4,-4,39,-4,4
1,4,3,-3,0,3,-5,-4,-3,40,-4,5
1,5,3,-3,0,4,-3,-3,-2,31,-3,5
1,6,4,-4,-1,5,-2,-2,-2,24,-3,5
0,6,4,-4,-1,5,-1,-2,-2,20,-4,5
0,5,5,-3,-2,5,-1,-2,-2,17,-4,4
-1,4,5,-2,-2,5,-1,-3,-2,15,-5,3
-2,2,4,0,-3,3,-1,-4,-3,13,-6,2
-4,0,4,1,-3,2,-1,-5,-4,11,-7,1
-5,-1,4,3,-4,1,-1,-6,-5,10,-8,0
-6,-2,4,4,-4,0,-1,-6,-6,10,-9,0
-7,-3,4,5,-5,0,-1,-7,-6,9,-9,-1
-8,-3,4,5,-5,0,-1,-7,-6,9,-9,-2
-8,-4,4,6,-5,0,0,-6,-6,9,-9,-2
-8,-4,4,6,-6,0,0,-6,-6,9,-10,-2
-9,-5,4,7,-6,0,0,-6,-6,8,-10,-2
-9,-6,3,7,-6,-1,0,-6,-6,8,-11,-2
-9,-5,4,7,-6,0,0,-6,-7,8,-11,-2
-9,-4,4,7,-6,0,0,-7,-7,7,-11,-3
-9,-4,4,7,-6,0,0,-7,-8,7,-12,-3
-9,-4,4,7,-6,0,0,-7,-8,7,-12,-4
-9,-3,4,6,-6,0,0,-7,-8,6,-13,-4
-9,-4,4,6,-6,0,0,-7,-8,6,-13,-4
-9,-4,4,6,-6,0,1,-6,-8,6,-13,-4
-9,-5,4,6,-6,0,1,-6,-8,6,-12,-3
-8,-5,4,6,-5,0,1,-6,-8,6,-12,-3
-6,-4,3,5,-3,0,1,-5,-7,7,-12,-3
-6,-3,3,4,-3,0,2,-5,-7,7,-11,-3
-6,-4,3,5,-3,0,2,-5,-7,7,-12,-3
-8,-5,3,6,-4,-1,1,-5,-7,7,-12,-3
-9,-6,3,7,-5,-1,0,-6,-8,7,-12,-4
-9,-6,3,7,-6,-1,0,-6,-8,7,-12,-4
-10,-7,2,8,-6,-2,0,-6,-8,6,-13,-4
-11,-9,2,10,-6,-3,0,-6,-9,6,-13,-5
-12,-9,3,10,-7,-3,0,-6,-9,5,-13,-5
-12,-9,3,11,-7,-3,1,-6,-9,5,-13,-5
-12,-9,3,11,-7,-3,1,-6,-9,5,-13,-5
-11,-8,3,10,-6,-3,1,-6,-9,5,-13,-5
-11,-8,3,10,-6,-3,1,-6,-9,5,-13,-4
-11,-8,3,9,-6,-2,1,-6,-9,5,-13,-4
-11,-8,3,9,-6,-3,1,-6,-9,5,-13,-4
-10,-8,2,9,-6,-3,0,-6,-9,5,-13,-4
-9,-8,1,9,-5,-3,0,-6,-8,5,-13,-4
-9,-8,1,9,-4,-4,0,-6,-8,5,-13,-5
-9,-8,0,9,-4,-4,0,-6,-8,5,-13,-5
-8,-8,0,8,-3,-4,0,-6,-8,6,-13,-5
-8,-7,0,7,-3,-3,1,-6,-7,6,-12,-5
-8,-7,0,7,-3,-2,2,-6,-7,7,-12,-4
-8,-7,0,8,-4,-3,2,-6,-6,7,-12,-4
-9,-7,1,8,-4,-3,2,-6,-6,7,-12,-5
-9,-7,2,8,-5,-2,3,-5,-5,7,-11,-5
-9,-7,3,8,-5,-1,3,-4,-4,9,-10,-4
-10,-8,3,9,-6,-2,4,-1,-1,10,-9,-4
-11,-9,2,11,-6,-3,4,2,1,13,-8,-4
-11,-11,0,11,-5,-5,3,4,4,16,-5,-2
-9,-11,-1,10,-3,-6,2,6,7,22,1,3
-5,-10,-5,7,1,-7,0,8,11,30,9,10
0,-9,-9,5,5,-9,-2,10,16,39,19,19
4,-10,-14,3,10,-12,-5,13,21,49,30,29
8,-12,-20,2,15,-16,-8,15,26,59,42,39
12,-13,-26,1,20,-19,-11,18,31,70,54,49
17,-14,-31,0,24,-22,-14,23,39,82,66,60
22,-13,-36,-4,30,-24,-15,30,48,96,80,71
29,-12,-40,-8,35,-25,-16,40,59,110,93,82
35,-10,-45,-12,41,-27,-15,51,70,121,103,91
40,-8,-48,-15,45,-28,-13,58,76,127,108,96
42,-7,-49,-17,46,-28,-10,62,76,122,105,95
41,-7,-48,-16,45,-28,-6,60,69,106,90,85
36,-10,-47,-12,42,-29,-1,55,56,81,68,68
31,-13,-45,-7,38,-29,4,48,41,54,43,49
24,-15,-39,-3,32,-27,10,36,24,27,17,29
14,-15,-30,1,23,-23,15,15,1,-3,-11,5
2,-16,-18,6,11,-17,19,-13,-26,-33,-40,-19
-7,-17,-9,12,1,-13,22,-43,-52,-60,-65,-40
-16,-18,-2,17,-6,-10,20,-69,-74,-80,-85,-57
-23,-20,3,22,-13,-9,16,-91,-91,-94,-98,-71
-29,-21,7,26,-18,-7,11,-108,-103,-102,-107,-80
-34,-22,11,28,-22,-6,5,-122,-112,-106,-111,-86
-36,-23,13,30,-24,-5,-3,-133,-119,-109,-114,-89
-38,-24,13,31,-25,-5,-11,-142,-126,-110,-114,-91
-38,-26,12,32,-25,-7,-19,-148,-129,-109,-113,-90
-38,-29,9,33,-23,-10,-25,-149,-130,-107,-110,-88
-37,-31,5,34,-21,-13,-29,-146,-128,-103,-105,-85
-35,-33,1,34,-18,-16,-30,-139,-122,-96,-99,-80
-33,-33,-1,33,-15,-17,-29,-130,-115,-89,-93,-76
-32,-36,-4,35,-14,-20,-28,-120,-108,-83,-87,-72
-33,-39,-6,37,-13,-23,-27,-109,-99,-77,-81,-68
-31,-40,-8,36,-11,-24,-25,-95,-88,-68,-74,-63
-29,-39,-9,34,-9,-24,-21,-81,-76,-59,-66,-57
-26,-36,-8,31,-8,-22,-17,-66,-64,-49,-57,-50
-24,-32,-7,28,-8,-20,-13,-53,-52,-39,-48,-44
-22,-29,-6,26,-7,-18,-10,-41,-43,-30,-40,-37
-20,-24,-5,23,-7,-15,-8,-31,-34,-22,-32,-31
-16,-20,-4,19,-6,-12,-6,-23,-26,-15,-25,-26
-13,-16,-4,15,-5,-9,-5,-16,-19,-9,-20,-22
-10,-14,-3,13,-4,-8,-4,-11,-14,-5,-16,-19
-9,-12,-2,12,-3,-7,-2,-7,-10,-2,-13,-17
-9,-10,-1,10,-4,-6,-1,-4,-7,0,-11,-15
-8,-7,1,8,-4,-4,0,-2,-5,2,-9,-14
-8,-6,2,7,-4,-3,1,-1,-4,4,-7,-13
-8,-6,2,8,-4,-3,2,0,-2,5,-5,-12
-8,-6,1,8,-3,-3,1,0,-1,6,-3,-11
-6,-5,1,7,-3,-2,1,0,-1,7,-2,-11
-5,-5,1,6,-3,-2,1,0,0,7,-2,-11
-5,-4,2,5,-3,-1,1,1,0,8,-1,-11
-4,-3,3,4,-3,0,2,1,1,9,0,-11
-5,-3,3,4,-3,0,2,1,2,10,0,-11
-6,-3,3,5,-3,-1,1,1,1,10,0,-11
-6,-4,3,5,-3,-1,1,0,1,10,0,-12
-6,-3,2,5,-3,-1,1,1,1,10,1,-11
-5,-2,3,4,-3,0,1,1,2,11,2,-11
-5,-1,4,4,-4,1,1,2,2,11,2,-10
-4,-1,3,3,-4,1,1,2,3,11,3,-10
-4,-2,2,3,-3,0,1,2,3,12,3,-10
-5,-2,3,3,-3,0,1,2,3,12,2,-11
-6,-1,4,3,-4,1,1,2,3,11,2,-11
-6,-1,5,3,-4,1,1,2,3,11,3,-12
-5,0,4,3,-4,2,1,2,3,11,3,-12
-4,0,4,3,-4,2,0,3,4,12,3,-12
-4,0,4,3,-4,2,0,3,4,12,4,-12
-4,-1,3,3,-4,2,0,3,4,12,4,-12
-4,-2,3,4,-4,1,0,3,4,11,4,-12
-4,-2,3,4,-4,0,0,3,4,12,5,-12
-4,0,4,3,-4,1,0,4,5,13,6,-12
-3,1,5,2,-4,2,0,4,6,15,7,-11
-3,2,5,1,-4,3,1,5,7,16,9,-11
-2,2,4,0,-3,3,1,5,8,16,9,-11
-2,2,4,0,-3,3,1,6,8,17,10,-11
-1,2,4,0,-3,4,1,6,8,17,10,-12
-1,2,4,0,-3,4,0,7,8,17,11,-12
-1,2,4,0,-3,3,0,7,8,17,11,-13
-1,2,4,0,-2,3,0,7,9,18,11,-13
-2,2,4,0,-3,4,0,8,9,18,11,-14
-3,2,5,1,-3,4,0,8,9,18,11,-14
-3,1,5,1,-4,4,-1,8,9,18,12,-14
-4,1,5,2,-4,3,-1,9,10,18,12,-14
-4,0,5,3,-5,3,-1,9,10,18,12,-14
-4,1,6,2,-5,3,-1,10,10,18,13,-14
-3,2,6,1,-4,4,-1,10,11,19,13,-13
-2,3,6,0,-4,4,-1,11,12,19,14,-12
-2,3,6,0,-3,4,-2,12,13,20,15,-12
-2,4,6,0,-3,4,-2,13,13,21,15,-11
-1,4,6,-1,-3,5,-1,14,14,22,17,-10
0,5,6,-2,-2,5,-1,15,15,23,18,-9
1,6,5,-3,-1,6,-2,15,15,24,18,-8
2,7,5,-4,0,6,-2,16,15,24,19,-8
4,8,5,-5,0,7,-2,17,17,25,20,-7
6,11,5,-8,1,9,-1,19,19,27,22,-6
8,13,5,-10,2,10,-2,20,20,28,23,-6
8,13,6,-10,2,10,-3,20,20,28,23,-6
6,12,6,-9,1,9,-4,20,21,28,23,-6
6,11,6,-9,1,9,-4,21,21,29,23,-5
5,10,6,-8,0,8,-5,21,21,29,24,-4
5,11,6,-8,0,8,-6,22,22,30,25,-3
5,11,6,-8,0,9,-6,23,22,31,27,-1
5,12,6,-8,0,9,-7,24,23,32,28,0
5,12,6,-8,0,9,-7,24,24,33,29,2
5,12,7,-8,0,9,-8,25,25,35,31,3
5,13,7,-8,0,10,-8,26,26,36,32,4
6,14,7,-9,0,10,-8,27,27,37,33,6
9,16,7,-11,1,11,-8,28,28,38,35,7
11,17,6,-13,2,12,-8,28,29,39,36,7
12,19,6,-14,3,12,-8,29,29,39,36,8
13,20,7,-16,3,13,-8,29,29,39,37,8
14,21,7,-17,3,14,-8,29,29,39,37,8
15,22,6,-17,4,14,-8,29,29,40,38,8
15,22,6,-17,4,14,-8,29,30,40,38,8
14,21,7,-16,4,14,-9,29,29,40,38,7
12,20,7,-15,3,14,-10,29,29,40,38,6
11,19,8,-14,2,14,-11,28,28,40,37,5
11,19,8,-14,2,14,-11,28,28,40,37,5
12,19,8,-15,2,14,-10,28,28,40,37,5
12,19,8,-15,2,14,-10,28,28,40,37,5
12,19,8,-15,2,14,-10,27,28,40,37,4
12,20,8,-15,2,14,-10,27,28,40,38,4
12,20,9,-15,2,15,-10,28,28,40,38,4
12,21,9,-16,2,15,-10,28,28,41,38,4
12,21,8,-16,2,15,-10,27,28,41,39,4
12,20,8,-15,2,15,-10,27,28,40,39,3
11,20,8,-14,1,14,-11,26,28,40,38,2
10,19,9,-14,0,14,-11,26,27,39,38,1
10,18,8,-13,1,13,-11,25,27,39,37,1
11,18,8,-13,2,13,-10,25,27,39,37,1
11,17,7,-13,2,12,-9,25,27,38,37,0
11,17,7,-13,3,12,-9,24,26,38,37,0
11,17,6,-13,3,12,-8,24,26,38,37,0
11,17,6,-14,3,12,-7,24,27,39,37,0
11,17,6,-13,2,11,-7,24,26,38,37,0
10,16,6,-13,2,11,-7,23,25,37,36,-1
9,15,6,-12,2,11,-6,22,24,37,35,-2
9,14,5,-11,2,10,-5,22,24,36,34,-3
8,12,5,-10,2,9,-5,21,23,34,32,-5
8,12,5,-9,1,9,-6,19,22,33,30,-7
7,12,6,-9,0,9,-5,18,21,32,29,-8
5,12,6,-8,-1,9,-4,18,20,31,28,-9
5,12,7,-8,-1,10,-4,17,19,30,27,-9
4,13,8,-8,-2,10,-3,16,18,29,26,-10
4,12,7,-8,-1,10,-3,15,17,28,25,-11
5,12,7,-8,-1,10,-2,15,16,27,23,-11
5,12,7,-8,-1,10,-2,14,15,26,22,-12
5,11,7,-7,0,9,-2,13,14,24,21,-13
4,10,6,-6,-1,8,-2,11,13,23,20,-14
3,9,6,-5,-1,8,-2,10,12,22,19,-15
3,8,6,-5,-1,7,-1,9,11,21,18,-15
2,7,5,-4,-1,6,-1,8,10,20,17,-16
1,6,4,-3,-1,5,-2,7,8,18,15,-17
0,4,4,-2,-2,4,-2,5,7,17,14,-18
-1,3,4,-1,-2,4,-3,4,5,16,13,-19
-2,2,4,0,-3,3,-2,3,5,15,12,-19
-3,1,4,1,-4,3,-2,2,4,15,12,-19
-4,0,4,2,-4,2,-2,1,3,13,11,-20
-3,0,3,2,-3,2,-2,0,2,12,9,-21
-3,0,3,2,-3,2,-3,0,1,11,9,-21
-3,1,4,1,-3,3,-2,0,1,11,9,-20
-2,2,5,1,-3,3,-2,1,2,11,9,-20
-3,1,5,2,-4,3,-2,0,1,11,8,-20
-5,-1,5,4,-5,2,-2,-1,0,9,7,-22
-6,-1,5,4,-6,2,-2,-1,-1,8,6,-23
-5,-1,4,3,-5,2,-2,-1,-1,8,5,-23
-4,0,3,3,-4,1,-2,-2,-2,7,5,-23
-4,-1,2,3,-3,0,-2,-2,-2,6,5,-23
-5,-2,2,4,-3,0,-2,-2,-2,6,4,-23
-5,-3,2,4,-4,0,-2,-2,-2,6,4,-23
-6,-3,2,5,-4,0,-1,-2,-2,6,3,-24
-6,-4,2,5,-4,0,-1,-2,-2,6,3,-24
-6,-3,3,5,-4,0,-1,-2,-2,6,3,-23
-5,-1,4,3,-4,1,-1,-2,-2,6,3,-23
-4,0,4,2,-3,2,0,-2,-2,6,3,-22
-4,0,4,2,-4,2,0,-2,-2,6,3,-22
-4,0,4,2,-4,1,0,-2,-2,6,2,-22
-4,-1,4,3,-4,1,0,-2,-2,5,2,-22
-4,-2,4,3,-4,1,0,-2,-2,4,1,-22
-5,-2,4,3,-4,1,-1,-2,-2,4,1,-23
-6,-2,5,3,-5,2,-1,-2,-2,4,0,-23
-6,-2,5,4,-6,2,-1,-2,-2,4,0,-23
-6,-1,5,4,-6,2,-1,-2,-2,4,0,-23
-6,-1,5,3,-5,1,-1,-2,-2,4,0,-23
-6,-1,5,4,-5,1,-1,-2,-2,3,0,-23
-7,-2,5,5,-6,1,-1,-2,-2,3,0,-23
-7,-2,5,5,-6,1,-1,-2,-2,4,1,-22
-6,-2,5,5,-5,1,0,-2,-1,5,1,-22
-5,-2,4,4,-4,1,0,-1,-1,5,1,-21
-5,-2,4,3,-4,1,0,-1,-1,5,1,-21
-4,-1,3,3,-3,1,0,-1,-1,5,1,-21
-4,-1,3,2,-3,1,0,-1,-1,6,1,-20
-4,-1,3,2,-3,1,0,0,-1,6,1,-19
-4,0,4,2,-4,2,1,0,0,7,2,-18
-4,0,5,2,-4,2,1,0,0,7,2,-18
-4,0,5,2,-4,3,2,0,1,8,2,-17
-5,1,6,2,-5,3,2,1,1,8,2,-17
-4,1,6,1,-5,4,2,1,2,9,3,-16
-4,2,6,1,-5,4,2,2,2,9,3,-16
-5,1,7,1,-6,4,2,2,2,9,3,-16
-5,1,7,1,-6,4,2,2,2,9,3,-16
-4,2,7,1,-5,4,2,2,2,9,3,-15
-3,2,6,1,-5,3,2,2,2,9,3,-15
-3,2,6,1,-5,3,2,2,2,9,3,-15
-4,2,6,1,-5,3,2,2,3,9,4,-15
-4,2,6,1,-5,4,2,2,4,10,5,-14
-4,2,7,1,-5,4,2,3,4,11,5,-14
-4,3,7,0,-5,5,2,3,4,11,5,-13
-3,3,8,0,-5,5,2,3,4,12,6,-13
-3,4,8,0,-5,6,2,4,5,12,6,-12
-2,5,8,-1,-5,6,3,4,5,13,7,-11
-2,7,9,-1,-5,7,3,5,6,13,7,-10
-1,8,9,-3,-5,8,3,4,6,13,7,-10
0,8,8,-4,-4,8,2,4,5,13,7,-10
0,7,8,-4,-3,8,1,3,5,13,7,-10
0,7,8,-3,-3,7,0,2,4,13,6,-10
-1,6,8,-3,-3,7,-2,1,3,12,6,-10
-1,6,7,-3,-3,6,-2,0,2,12,5,-10
-1,6,7,-3,-3,6,-3,0,2,12,5,-10
-1,6,7,-3,-3,6,-3,0,2,12,5,-9
0,7,7,-3,-3,6,-3,0,2,12,6,-9
1,7,6,-4,-2,6,-3,-1,2,12,6,-9
3,9,6,-6,-1,7,-3,0,2,13,6,-8
5,10,6,-7,0,8,-3,0,3,14,7,-7
4,9,6,-6,-1,8,-4,0,2,13,7,-7
2,7,6,-4,-2,7,-5,-1,1,12,7,-8
1,6,5,-4,-1,6,-5,-2,0,12,6,-8
2,6,4,-4,0,5,-6,-2,0,11,6,-8
3,5,3,-4,0,4,-6,-3,-1,11,5,-8
3,5,3,-4,0,4,-7,-4,-1,10,5,-8
3,5,2,-4,1,3,-7,-4,-2,10,4,-8
3,4,1,-4,1,3,-6,-4,-2,10,4,-7
4,4,1,-4,2,2,-6,-4,-1,10,5,-7
4,5,1,-5,1,3,-5,-4,-1,10,5,-7
3,5,2,-4,0,3,-4,-3,-1,11,5,-6
1,4,3,-3,0,3,-3,-3,0,11,5,-6
1,4,3,-2,-1,3,-3,-3,0,11,5,-7
0,3,3,-2,-1,3,-2,-4,-1,11,5,-8
0,2,3,0,-2,3,-2,-4,-2,10,4,-9
-2,0,3,1,-3,2,-2,-5,-2,9,3,-10
-4,-1,3,2,-3,1,-2,-5,-3,9,2,-10
-4,-2,3,3,-4,1,-1,-5,-3,8,1,-11
-5,-3,2,4,-4,0,-1,-5,-3,8,1,-11
-5,-3,2,4,-3,0,-1,-5,-4,7,0,-12
-4,-3,1,4,-3,0,0,-5,-4,7,0,-12
-4,-3,1,4,-3,0,0,-5,-4,7,0,-12
-5,-4,2,5,-3,0,0,-5,-4,7,0,-12
-6,-5,1,5,-4,-1,0,-6,-5,6,0,-12
-6,-5,1,5,-3,-2,0,-6,-5,6,-1,-13
-5,-5,1,5,-3,-2,0,-6,-5,6,-1,-13
-5,-5,1,5,-3,-2,0,-6,-6,5,-2,-13
-6,-5,1,5,-3,-2,0,-6,-6,5,-3,-13
-6,-6,1,5,-3,-2,0,-6,-6,4,-3,-13
-6,-6,1,6,-3,-2,0,-6,-6,4,-4,-13
-7,-5,1,6,-4,-2,0,-6,-6,5,-4,-13
-7,-5,1,6,-4,-2,0,-6,-6,5,-4,-13
-7,-5,1,6,-4,-2,0,-6,-6,5,-4,-13
-7,-5,1,6,-3,-2,1,-6,-6,5,-4,-13
-6,-5,1,5,-3,-2,1,-6,-5,5,-4,-12
-6,-4,1,5,-3,-1,1,-6,-5,5,-4,-12
-5,-3,0,4,-3,-1,2,-6,-5,5,-4,-11
-4,-3,0,4,-2,-2,2,-6,-5,5,-4,-11
-4,-3,0,4,-2,-2,2,-6,-5,5,-4,-11
-4,-4,0,4,-2,-2,2,-6,-6,5,-4,-11
-5,-5,0,5,-2,-2,1,-6,-6,5,-4,-11
-6,-5,0,6,-3,-2,1,-6,-6,5,-4,-11
-5,-6,0,6,-3,-2,1,-6,-6,5,-4,-11
-4,-5,0,5,-2,-2,1,-5,-5,6,-4,-10
-3,-3,0,3,-2,-1,2,-5,-5,6,-4,-10
-3,-3,0,4,-2,-1,2,-5,-5,6,-4,-10
-6,-6,0,6,-3,-2,2,-5,-6,6,-5,-10
-8,-8,0,7,-4,-3,2,-5,-6,6,-5,-10
-8,-8,0,8,-4,-3,2,-5,-6,6,-4,-10
-8,-8,0,8,-4,-3,1,-5,-6,6,-4,-10
-9,-9,0,9,-4,-4,1,-6,-7,5,-5,-10
-10,-10,0,10,-5,-4,0,-6,-7,5,-5,-10
-10,-10,0,11,-5,-5,0,-6,-7,5,-6,-11
-10,-10,-1,11,-4,-5,1,-6,-7,5,-6,-10
-9,-9,-1,9,-4,-5,1,-6,-7,6,-6,-10
-7,-7,0,7,-4,-4,2,-5,-7,7,-5,-9
-5,-5,0,5,-3,-3,2,-5,-6,7,-5,-9
-5,-5,0,5,-3,-3,3,-4,-6,7,-5,-8
-6,-5,0,5,-4,-2,3,-4,-5,7,-5,-8
-7,-5,1,6,-4,-2,3,-3,-4,8,-4,-8
-6,-5,1,6,-4,-2,4,-1,-3,9,-4,-7
-6,-6,1,6,-4,-2,4,1,-1,11,-3,-7
-7,-8,-1,7,-3,-4,4,3,1,14,-1,-6
-6,-10,-3,8,-1,-6,3,4,4,18,2,-2
-4,-11,-6,8,0,-8,1,6,7,24,9,4
-2,-12,-9,7,3,-10,-1,7,11,33,19,12
2,-12,-13,5,7,-12,-3,9,16,43,31,23
7,-11,-18,2,12,-14,-6,12,21,54,43,34
14,-10,-24,-1,18,-16,-8,14,26,65,56,46
20,-10,-29,-4,24,-19,-11,18,32,77,70,59
25,-10,-34,-7,29,-22,-13,23,40,90,84,71
29,-10,-39,-9,33,-24,-15,30,49,105,98,84
34,-10,-43,-11,38,-26,-16,38,58,118,111,95
39,-9,-48,-14,43,-28,-17,47,67,129,121,104
42,-8,-51,-16,46,-29,-15,54,73,133,126,109
43,-7,-50,-17,47,-28,-12,58,73,126,120,107
41,-8,-49,-16,45,-28,-7,58,67,109,103,96
36,-11,-47,-12,41,-28,-2,54,55,84,79,79
29,-15,-44,-7,36,-29,2,47,41,57,52,58
21,-16,-37,-2,29,-26,7,35,24,28,22,34
11,-16,-27,3,18,-21,13,15,0,-4,-10,7
0,-15,-15,8,6,-15,17,-12,-26,-37,-42,-20
-9,-14,-4,12,-4,-9,20,-39,-51,-64,-68,-43
-17,-15,3,16,-11,-5,20,-62,-71,-83,-88,-60
-24,-16,9,20,-17,-3,18,-82,-86,-97,-101,-74
-30,-17,14,24,-22,-1,14,-99,-98,-104,-109,-82
-34,-18,16,26,-25,-1,8,-113,-108,-108,-114,-87
-36,-18,17,28,-27,-1,1,-126,-117,-111,-116,-90
-37,-19,17,29,-28,-1,-6,-136,-124,-112,-117,-91
-38,-22,15,31,-28,-3,-13,-143,-129,-112,-116,-91
-38,-27,12,33,-26,-7,-19,-144,-131,-110,-114,-90
-38,-31,8,35,-24,-11,-22,-141,-129,-106,-109,-86
-37,-34,3,36,-21,-15,-24,-134,-124,-100,-103,-81
-35,-36,0,36,-18,-18,-24,-126,-117,-93,-96,-75
-34,-37,-3,35,-16,-20,-24,-116,-110,-85,-89,-70
-31,-38,-6,35,-13,-22,-24,-104,-100,-77,-82,-64
-28,-37,-9,33,-10,-23,-23,-91,-89,-67,-74,-58
-23,-34,-10,29,-7,-22,-19,-76,-76,-57,-66,-51
-18,-29,-10,24,-5,-20,-15,-61,-64,-47,-57,-43
-14,-24,-9,19,-3,-17,-12,-48,-53,-37,-48,-36
-11,-20,-8,15,-2,-15,-9,-37,-43,-29,-40,-29
-9,-18,-8,13,-1,-13,-6,-27,-35,-21,-32,-23
-8,-15,-6,11,-1,-11,-4,-18,-27,-14,-26,-17
-7,-13,-4,10,-1,-8,-3,-12,-21,-8,-21,-13
-7,-11,-2,10,-2,-6,-2,-7,-16,-4,-18,-10
-7,-8,0,9,-3,-4,-2,-4,-12,0,-15,-8
-6,-6,1,7,-3,-2,-1,-1,-8,2,-13,-6
-5,-4,1,5,-3,-1,0,1,-6,5,-10,-4
-5,-3,2,4,-4,0,0,3,-4,6,-9,-3
-5,-3,2,4,-4,0,1,4,-3,7,-8,-3
-5,-3,2,4,-4,0,1,4,-3,8,-7,-2
-4,-3,2,4,-3,0,1,4,-3,8,-7,-1
-4,-2,2,4,-3,0,1,4,-3,8,-7,-1
-4,-3,2,4,-3,0,1,4,-3,8,-7,-1
-5,-3,3,4,-3,0,1,4,-2,8,-6,0
-4,-2,3,3,-3,0,2,5,-2,9,-6,0
-3,-2,2,2,-3,0,2,5,-1,10,-5,1
-2,-1,1,1,-2,0,2,6,0,11,-3,2
-2,-1,1,1,-2,0,2,6,0,12,-2,3
-3,-1,1,2,-2,0,1,6,0,12,-2,3
-3,-2,1,2,-2,0,1,6,0,12,-2,4
-2,-1,1,2,-1,0,1,6,1,12,-2,4
-1,0,1,1,-1,0,1,7,1,12,-2,4
-1,0,1,0,-1,0,1,7,1,13,-2,4
-1,0,1,1,-1,0,1,7,2,13,-2,5
-2,-1,1,1,-2,0,1,7,2,13,-2,5
-1,0,1,1,-2,0,1,7,2,13,-2,6
-1,0,1,1,-2,0,1,8,2,14,-2,6
-2,0,1,1,-2,0,0,8,2,14,-2,6
-2,0,2,2,-2,0,0,8,2,14,-2,6
-2,0,2,2,-2,1,0,9,3,14,-2,6
-2,0,2,2,-2,1,0,9,3,14,-2,6
-2,0,3,2,-2,1,0,9,3,14,-2,6
-3,0,3,2,-3,1,0,9,3,14,-2,6
-3,0,3,2,-3,1,0,10,4,15,-2,7
-2,0,3,1,-2,2,0,10,4,15,-1,7
-1,1,2,0,-1,2,0,10,5,16,-1,8
0,2,2,0,-1,2,0,11,5,16,0,8
0,2,2,0,-1,2,0,11,5,16,0,8
0,2,2,0,-1,2,0,11,5,16,0,8
-1,2,3,0,-2,2,0,11,6,17,0,8
0,3,3,-1,-2,3,0,11,6,17,0,9
0,3,3,-1,-2,2,-1,12,7,18,0,9
0,3,3,-1,-2,2,-1,12,7,18,0,9
0,4,3,-2,-1,3,-1,14,8,19,1,9
2,6,4,-4,0,5,0,15,10,20,2,10
3,7,4,-4,0,5,0,16,10,21,3,11
2,6,4,-3,0,4,0,16,10,21,3,11
0,4,4,-2,-1,3,-1,16,10,21,3,11
0,4,3,-2,-1,3,-1,17,11,22,4,12
1,4,3,-2,0,3,-1,17,11,23,4,12
1,3,2,-2,0,3,-1,18,11,23,5,13
1,3,3,-2,0,3,-1,18,12,23,5,14
2,5,3,-3,0,4,-1,19,13,24,6,15
3,7,3,-5,0,5,-1,21,14,26,8,16
5,8,3,-6,1,6,-1,22,16,27,9,17
6,9,3,-7,2,6,-2,23,17,28,10,18
6,9,3,-7,2,6,-2,23,17,29,11,19
6,9,3,-8,2,6,-3,24,18,30,12,20
6,11,3,-9,1,7,-3,24,18,30,13,21
8,12,4,-10,1,8,-4,25,19,31,14,22
9,14,5,-11,2,9,-5,25,19,31,14,22
9,15,5,-12,2,10,-6,25,20,32,15,22
9,15,6,-12,2,10,-7,26,20,33,15,23
9,16,6,-12,2,10,-7,26,21,34,16,23
10,16,6,-12,2,10,-8,27,21,34,17,24
10,16,6,-13,1,11,-9,27,22,35,18,25
9,16,7,-13,1,11,-9,27,22,36,19,25
10,16,7,-13,1,12,-10,28,23,37,20,26
11,18,7,-14,1,12,-10,28,23,38,21,27
12,20,8,-15,2,13,-10,29,23,38,22,28
13,21,8,-16,2,14,-10,29,24,39,22,29
14,22,8,-17,3,15,-10,30,25,40,23,30
14,23,8,-18,3,15,-10,30,25,41,25,31
15,23,8,-19,4,15,-9,31,26,42,26,32
16,23,8,-20,4,15,-9,31,26,42,26,33
15,23,8,-19,4,15,-9,30,26,43,27,34
15,22,7,-18,4,15,-9,30,26,43,27,34
15,22,7,-18,4,14,-9,30,26,42,27,34
14,21,6,-17,4,14,-9,30,26,42,27,34
13,20,5,-16,4,13,-9,29,25,42,27,34
13,18,4,-15,4,11,-10,29,25,41,26,33
12,17,4,-14,4,10,-10,28,24,41,26,33
12,16,3,-14,4,10,-10,27,24,41,26,32
11,15,3,-13,4,10,-10,27,24,41,26,33
12,16,4,-14,4,10,-9,27,24,41,27,33
14,18,4,-15,4,11,-9,27,24,41,27,33
14,18,4,-15,4,11,-9,26,24,41,27,33
13,18,5,-15,3,11,-9,26,23,41,27,33
12,17,5,-14,3,11,-9,25,23,40,26,33
13,17,5,-15,3,12,-9,25,23,40,26,33
13,18,6,-15,3,12,-9,25,23,40,26,32
12,18,6,-15,2,12,-8,25,23,40,26,32
12,17,5,-14,3,11,-8,25,23,40,25,32
12,17,5,-13,3,11,-8,24,22,40,24,30
12,18,5,-14,3,11,-8,23,21,39,23,29
11,17,6,-13,2,11,-7,22,20,38,22,28
10,17,6,-13,1,11,-7,22,20,38,22,27
10,18,7,-14,0,12,-7,21,19,37,21,26
10,18,8,-14,0,13,-7,21,19,36,20,25
11,19,8,-14,1,13,-7,20,19,36,19,24
11,18,7,-14,1,13,-6,20,19,35,19,23
9,16,7,-12,1,12,-6,18,17,33,17,21
7,13,7,-9,0,10,-7,16,15,31,15,19
5,11,6,-7,-1,8,-7,15,14,29,13,17
4,9,5,-6,-1,7,-7,14,13,29,13,16
3,8,5,-6,-1,7,-7,13,12,28,12,15
3,8,5,-5,-1,6,-6,12,11,26,10,13
2,7,5,-5,-1,6,-6,10,9,25,9,12
2,7,5,-5,-1,5,-6,9,8,24,8,11
2,7,5,-5,-1,5,-5,8,8,23,7,10
1,6,5,-4,-2,5,-4,7,7,22,6,9
0,5,5,-3,-2,5,-4,6,6,21,5,7
0,4,4,-2,-2,4,-3,5,5,20,5,6
0,4,4,-2,-2,4,-3,5,5,19,4,6
0,5,4,-3,-2,4,-2,4,4,19,4,5
0,5,4,-3,-2,4,-2,4,4,18,3,4
0,4,3,-2,-2,3,-2,3,3,17,2,3
0,3,3,-1,-2,3,-2,2,2,16,1,1
-1,2,3,-1,-2,3,-2,1,1,15,0,0
-1,1,3,0,-2,2,-2,0,0,14,0,-1
-2,0,3,0,-2,2,-3,-1,0,14,0,-1
-3,0,3,1,-3,2,-3,-1,-1,13,-1,-2
-4,-1,3,2,-4,1,-3,-2,-1,12,-1,-2
-4,-1,3,3,-4,1,-3,-3,-2,11,-2,-3
-4,-2,2,3,-4,0,-3,-3,-3,10,-3,-4
-4,-2,2,3,-3,0,-3,-3,-3,9,-3,-4
-4,-2,2,3,-3,0,-2,-3,-3,9,-4,-5
-4,-2,2,3,-3,0,-2,-3,-4,9,-4,-6
-3,-2,2,2,-3,0,-1,-4,-4,8,-4,-6
-2,-1,2,1,-2,1,-1,-4,-4,8,-4,-7
-1,0,2,0,-2,1,-1,-4,-4,8,-4,-7
-2,1,3,0,-3,2,-1,-4,-4,7,-4,-7
-3,1,3,1,-4,2,-1,-5,-5,7,-4,-8
-5,0,4,2,-4,2,-1,-5,-5,7,-5,-8
-5,0,4,2,-5,2,-1,-5,-5,6,-5,-9
-6,-1,4,3,-5,2,-1,-5,-5,6,-5,-10
-6,-1,4,3,-5,2,-1,-5,-5,5,-6,-11
-6,-1,4,3,-5,1,-2,-6,-5,5,-6,-11
-6,-2,4,4,-5,1,-2,-6,-5,5,-6,-11
-7,-3,4,5,-6,1,-3,-6,-5,5,-6,-11
-7,-3,3,5,-5,0,-3,-6,-5,5,-6,-12
-7,-3,3,5,-5,0,-3,-6,-6,4,-7,-12
-7,-4,4,5,-5,0,-3,-6,-6,4,-7,-13
-8,-4,4,5,-6,0,-3,-6,-6,4,-7,-13
-7,-3,5,5,-6,1,-3,-6,-6,5,-7,-12
-7,-3,5,4,-6,1,-2,-6,-6,5,-6,-12
-6,-2,4,4,-6,1,-1,-6,-6,5,-6,-11
-5,-1,4,3,-5,1,-1,-5,-5,5,-6,-11
-4,0,4,2,-5,2,0,-4,-5,6,-6,-10
-4,0,4,2,-5,2,-1,-4,-4,6,-5,-10
-3,0,4,2,-4,2,-1,-4,-4,6,-5,-10
-3,0,4,1,-4,2,-2,-4,-4,6,-5,-11
-3,0,4,2,-4,2,-2,-4,-4,6,-5,-11
-4,0,3,2,-4,1,-2,-4,-3,6,-4,-11
-3,-1,2,2,-3,0,-1,-4,-3,7,-4,-11
-1,0,1,1,-2,0,-1,-4,-2,7,-3,-11
0,1,1,0,-2,1,-1,-4,-2,7,-3,-12
0,2,2,-1,-2,2,-1,-3,-2,8,-3,-12
0,3,3,-1,-2,3,-1,-2,-1,8,-2,-12
-2,2,4,0,-3,3,-1,-2,-1,9,-2,-12
-3,2,5,0,-4,4,-1,-2,-1,9,-2,-12
-3,2,6,0,-5,4,-2,-2,-1,9,-1,-12
-3,3,7,0,-5,5,-2,-2,-1,9,-1,-12
-3,3,7,0,-6,5,-2,-2,-1,9,-1,-12
-3,3,7,0,-6,5,-2,-2,0,10,-1,-12
-3,3,7,0,-5,5,-2,-1,0,10,0,-11
-2,3,6,-1,-5,5,-1,-1,0,11,0,-11
-3,3,6,0,-5,5,-1,-1,0,11,0,-11
-3,3,7,0,-5,5,-1,-1,0,11,0,-11
-3,4,7,0,-5,5,-1,0,1,11,0,-11
-2,4,7,-1,-5,6,-1,0,1,11,1,-11
-2,5,7,-1,-5,6,-1,0,1,12,1,-11
-3,5,8,-1,-6,7,-1,0,1,12,2,-11
-3,5,9,-1,-7,7,-1,0,2,13,2,-11
-3,6,10,-1,-7,8,-1,0,2,13,2,-10
-1,7,9,-2,-6,8,-1,0,2,13,2,-10
0,7,9,-3,-5,8,-1,0,2,13,3,-10
0,7,8,-3,-4,8,-1,0,2,13,3,-10
0,7,8,-3,-4,8,-2,0,2,13,3,-10
0,7,7,-3,-4,7,-3,-1,2,13,3,-10
1,8,7,-4,-4,7,-4,-2,1,12,3,-11
1,8,7,-4,-4,7,-5,-3,0,12,3,-11
0,8,7,-4,-4,7,-5,-3,0,12,3,-12
0,8,7,-4,-3,7,-6,-4,-1,11,3,-12
0,8,7,-4,-3,7,-6,-4,-1,11,3,-13
0,8,7,-4,-3,7,-7,-4,-1,10,3,-13
0,7,7,-4,-3,7,-7,-4,-1,10,2,-13
0,6,6,-3,-3,6,-8,-4,-1,10,2,-13
0,6,6,-3,-3,6,-9,-5,-2,10,2,-13
1,6,6,-4,-3,6,-10,-6,-3,10,2,-14
1,7,5,-5,-2,6,-10,-7,-3,10,2,-14
4,9,4,-7,0,7,-10,-7,-3,10,3,-14
7,11,3,-9,2,7,-9,-7,-3,10,3,-13
11,12,1,-12,4,7,-9,-7,-3,10,3,-13
12,13,1,-12,5,7,-9,-7,-3,10,2,-13
9,10,2,-10,3,6,-9,-8,-4,9,1,-13
5,7,2,-6,1,5,-9,-9,-4,8,1,-14
4,5,2,-5,0,4,-9,-9,-4,8,1,-14
3,5,2,-4,0,4,-9,-9,-4,8,1,-14
1,4,3,-3,-1,3,-8,-9,-4,8,1,-14
0,3,4,-1,-2,3,-8,-9,-5,8,0,-15
-1,2,4,0,-3,2,-7,-9,-5,7,0,-15
-1,2,4,0,-3,2,-6,-10,-6,6,0,-16
-1,1,4,0,-3,2,-6,-10,-6,6,-1,-16
-2,0,4,1,-3,1,-5,-10,-6,5,-1,-17
-4,0,4,2,-4,1,-4,-10,-7,5,-2,-17
-5,-1,4,3,-5,1,-4,-10,-7,4,-3,-18
-6,-2,4,4,-6,0,-4,-11,-7,4,-3,-18
-6,-3,3,4,-5,0,-4,-11,-7,4,-4,-18
-4,-3,1,3,-3,-1,-4,-11,-8,3,-4,-19
-4,-3,1,3,-3,-1,-4,-11,-8,2,-5,-19
-5,-3,2,4,-4,-1,-4,-11,-8,2,-6,-19
-6,-4,3,6,-5,-1,-3,-11,-8,2,-6,-19
-7,-5,3,6,-5,-1,-3,-11,-8,2,-6,-19
-7,-5,2,6,-5,-2,-3,-12,-9,1,-7,-19
-7,-5,2,5,-4,-2,-2,-12,-9,1,-7,-19
-6,-4,1,5,-4,-2,-2,-11,-9,1,-7,-18
-7,-5,2,5,-5,-2,-1,-11,-9,1,-7,-18
-7,-5,3,6,-5,-1,-1,-11,-9,1,-7,-17
-6,-4,3,5,-5,-1,0,-11,-9,1,-7,-17
-5,-3,2,4,-4,-1,0,-10,-8,2,-7,-17
-4,-3,2,3,-3,-1,-1,-10,-8,2,-7,-17
-4,-4,1,4,-2,-1,-1,-11,-9,1,-7,-17
-4,-5,1,4,-2,-2,-1,-11,-9,1,-7,-17
-5,-5,1,4,-2,-2,-1,-11,-9,1,-7,-16
-5,-4,1,4,-3,-1,-1,-11,-9,1,-7,-16
-6,-4,2,5,-4,-1,-2,-12,-9,0,-8,-16
-7,-5,2,6,-5,-2,-2,-12,-10,0,-8,-16
-8,-6,2,7,-5,-2,-3,-12,-10,0,-9,-16
-7,-6,1,7,-5,-3,-3,-12,-9,0,-9,-15
-6,-6,1,6,-4,-3,-3,-12,-9,1,-9,-15
-6,-5,0,5,-4,-3,-3,-12,-9,1,-9,-15
-6,-6,0,5,-3,-3,-3,-13,-10,0,-9,-15
-6,-6,0,5,-3,-3,-3,-13,-10,0,-9,-15
-6,-6,0,5,-4,-3,-2,-13,-10,-1,-9,-15
-7,-6,0,6,-4,-3,-2,-13,-10,-1,-9,-15
-7,-6,1,6,-5,-3,-2,-13,-10,-1,-9,-15
-8,-7,1,7,-5,-3,-2,-13,-10,-1,-9,-15
-8,-7,1,8,-5,-3,-2,-12,-10,0,-9,-15
-8,-7,1,8,-5,-3,-1,-12,-10,0,-9,-15
-8,-7,1,8,-5,-3,-1,-12,-10,0,-9,-14
-8,-7,0,8,-4,-3,-1,-12,-10,0,-9,-14
-8,-7,0,7,-4,-3,-1,-12,-10,0,-9,-13
-7,-7,0,7,-4,-3,-1,-12,-9,0,-9,-13
-6,-6,0,6,-3,-3,0,-11,-9,1,-8,-13
-5,-5,1,5,-3,-2,0,-10,-8,1,-8,-13
-4,-3,1,3,-3,-1,1,-9,-7,2,-8,-13
-4,-2,2,3,-3,0,2,-8,-5,3,-7,-12
-6,-3,2,5,-4,0,2,-6,-4,4,-7,-12
-10,-7,2,8,-6,-2,2,-4,-2,6,-6,-12
-11,-10,1,10,-6,-4,2,-2,0,8,-3,-11
-9,-10,0,10,-5,-5,1,0,3,13,1,-6
-5,-10,-4,7,-1,-7,0,1,7,20,9,0
0,-9,-8,4,4,-9,-4,3,10,28,18,9
6,-9,-13,1,9,-11,-7,4,15,37,29,19
11,-8,-19,-1,14,-13,-9,6,20,48,41,30
16,-8,-25,-4,20,-16,-12,9,25,60,53,41
21,-9,-30,-6,24,-19,-14,13,31,72,67,53
25,-9,-34,-7,29,-21,-15,19,39,85,81,66
29,-9,-39,-9,33,-24,-16,27,49,99,96,79
34,-9,-43,-12,38,-26,-16,37,59,112,109,90
38,-9,-47,-14,42,-28,-16,45,67,121,117,98
40,-9,-49,-15,44,-29,-15,51,71,121,117,100
40,-9,-48,-15,43,-28,-12,52,68,111,107,94
37,-10,-47,-13,41,-28,-7,50,59,90,87,80
32,-13,-46,-10,39,-29,-1,45,47,64,62,61
28,-14,-43,-7,35,-28,4,37,32,37,36,41
21,-14,-36,-3,28,-25,9,22,13,7,7,17
10,-14,-24,2,17,-20,15,-1,-11,-24,-25,-8
-2,-15,-12,8,5,-14,19,-28,-38,-54,-54,-33
-10,-15,-4,13,-4,-10,20,-55,-61,-78,-78,-54
-17,-16,2,17,-10,-7,18,-79,-79,-94,-94,-69
-24,-17,7,21,-16,-6,14,-98,-93,-105,-106,-81
-30,-18,12,24,-21,-4,9,-113,-104,-112,-113,-89
-35,-19,15,27,-25,-3,2,-127,-113,-115,-116,-93
-38,-21,16,29,-27,-3,-5,-138,-122,-117,-118,-95
-40,-24,15,31,-28,-5,-11,-146,-128,-118,-117,-95
-40,-27,12,33,-26,-7,-17,-150,-131,-116,-115,-94
-39,-30,9,34,-24,-10,-23,-150,-131,-114,-112,-91
-38,-33,5,35,-22,-14,-26,-146,-128,-109,-108,-88
-37,-36,1,36,-20,-18,-27,-139,-123,-103,-102,-84
-37,-39,-2,38,-18,-21,-27,-129,-116,-96,-96,-79
-35,-40,-5,37,-15,-23,-26,-118,-107,-88,-89,-73
-31,-38,-7,34,-12,-23,-24,-104,-96,-80,-81,-66
-26,-35,-9,30,-9,-22,-21,-90,-84,-70,-73,-59
-22,-32,-9,26,-6,-21,-18,-75,-72,-60,-64,-52
-18,-28,-9,23,-5,-19,-15,-61,-60,-50,-56,-45
-15,-25,-9,20,-4,-17,-12,-49,-50,-41,-48,-39
-14,-21,-8,17,-4,-15,-10,-38,-41,-33,-40,-33
-12,-18,-6,15,-4,-12,-7,-30,-33,-26,-34,-27
-10,-15,-5,12,-3,-10,-5,-22,-26,-20,-28,-22
-9,-12,-4,10,-3,-8,-4,-16,-20,-15,-23,-18
-8,-10,-2,8,-3,-6,-3,-11,-15,-11,-20,-15
-7,-7,0,7,-3,-4,-2,-8,-12,-8,-17,-13
-7,-6,1,6,-4,-2,-1,-6,-10,-6,-15,-12
-7,-5,1,6,-5,-2,0,-4,-8,-4,-14,-11
-7,-5,1,6,-5,-1,0,-3,-7,-3,-12,-10
-6,-4,1,5,-5,-1,0,-2,-6,-1,-10,-8
-5,-3,1,4,-4,0,1,-1,-4,0,-9,-6
-4,-1,1,3,-4,0,1,0,-3,2,-7,-5
-2,0,1,0,-2,1,2,1,-1,3,-6,-4
0,2,1,-1,-1,2,3,2,0,3,-6,-3
-1,1,1,-1,-2,2,2,1,-1,3,-6,-3
-3,-1,1,1,-3,0,1,0,-2,2,-7,-4
-3,-1,1,2,-3,0,1,0,-2,2,-7,-4
-3,0,2,2,-3,0,1,1,-2,3,-6,-3
-2,1,2,1,-3,1,1,2,-1,4,-5,-1
-2,1,2,0,-3,1,1,2,0,5,-4,0
-2,1,2,0,-3,1,1,3,0,5,-4,0
-2,0,2,1,-3,1,1,2,0,4,-5,-1
-2,0,1,1,-3,0,1,2,-1,3,-5,-1
-4,-2,2,3,-4,0,1,2,-1,3,-6,-1
-6,-3,2,5,-5,0,0,2,-1,3,-6,-1
-6,-4,2,5,-5,0,0,2,-1,3,-6,-1
-5,-2,2,4,-4,0,0,2,-1,4,-6,-1
-5,-1,3,4,-5,0,0,2,0,4,-5,-1
-6,-1,3,4,-5,1,0,3,0,5,-5,0
-6,-1,4,4,-5,1,0,3,0,5,-5,0
-5,0,4,3,-5,2,-1,4,1,5,-5,0
-3,1,4,1,-5,3,-1,4,2,5,-4,0
-2,2,4,0,-4,3,0,5,2,6,-4,1
-1,3,4,0,-3,3,0,5,2,6,-4,1
0,3,3,-1,-2,3,0,5,2,6,-3,1
0,3,2,-1,-1,3,0,5,2,6,-3,1
0,4,3,-2,-1,3,0,5,2,6,-3,1
0,4,3,-2,-2,3,0,6,3,7,-3,2
0,3,4,-2,-2,3,0,7,3,7,-3,2
