leadI,leadII,leadIII,leadaVR,leadaVL,leadaVF,leadV1,leadV2,leadV3,leadV4,leadV5,leadV6
1,1,0,-1,0,0,1,0,1,2,2,0
3,3,0,-3,1,1,2,0,2,5,5,1
4,4,0,-4,2,2,3,-1,3,6,6,1
3,4,0,-4,2,2,3,-2,3,6,7,1
2,3,1,-3,1,2,3,-3,3,7,7,1
3,4,1,-3,1,3,3,-3,3,7,6,1
4,5,0,-4,2,3,3,-2,3,8,6,2
4,5,0,-5,2,3,3,-2,3,8,5,2
3,4,1,-4,1,3,3,-3,3,8,5,2
1,4,2,-3,0,4,3,-2,3,7,5,2
2,5,3,-4,0,5,3,-1,4,7,6,2
4,7,3,-6,1,5,3,-1,4,7,7,3
5,8,1,-7,2,5,3,-2,3,7,6,2
5,7,1,-6,2,4,3,-3,3,7,5,2
4,6,0,-5,2,4,3,-3,2,7,4,2
4,5,0,-5,2,3,3,-4,2,7,4,2
5,6,0,-5,2,3,3,-3,2,8,4,2
5,7,2,-6,1,5,4,-2,3,9,6,3
3,7,4,-5,-1,6,4,0,4,10,7,4
1,7,6,-4,-2,6,4,0,4,10,8,5
1,7,6,-4,-2,7,3,0,3,10,8,5
2,6,4,-4,-1,6,3,0,3,10,8,4
4,6,2,-5,1,5,2,-1,3,10,7,4
6,6,0,-6,3,4,1,-1,3,10,7,3
6,7,1,-6,2,4,1,-2,3,10,7,3
6,8,2,-7,2,5,1,-2,3,10,8,3
7,10,2,-8,2,6,1,-3,2,9,8,3
8,12,3,-10,2,7,1,-3,2,9,8,4
9,13,3,-11,3,8,0,-3,1,9,8,4
8,13,3,-11,2,9,1,-3,1,9,8,4
8,13,4,-10,1,9,2,-3,1,10,9,4
8,13,4,-10,1,9,2,-3,2,10,9,4
7,12,4,-10,1,9,1,-3,2,10,8,4
6,11,4,-9,1,8,1,-3,1,10,8,4
6,11,4,-8,1,8,0,-3,1,10,8,3
7,10,3,-9,2,7,0,-4,0,9,7,2
7,9,2,-8,2,6,-1,-5,-1,8,6,0
6,9,3,-7,1,6,0,-5,-1,8,6,0
5,9,4,-7,0,6,0,-6,-1,8,6,-1
5,9,4,-7,0,6,1,-6,-1,8,6,-1
6,8,3,-7,1,5,2,-6,-1,7,5,-1
6,7,1,-7,2,4,2,-6,-2,7,4,-1
7,6,0,-6,3,3,1,-6,-2,6,4,-1
7,6,-1,-6,3,2,1,-5,-2,6,3,-1
7,6,-1,-6,4,2,2,-5,-2,6,3,-1
7,5,-2,-6,4,1,2,-5,-3,5,2,-2
7,4,-2,-6,5,1,3,-5,-3,5,2,-2
7,5,-1,-6,4,1,3,-5,-3,5,2,-2
5,4,0,-5,3,2,3,-5,-3,6,2,-2
4,4,0,-4,2,2,3,-5,-3,6,2,-2
5,4,0,-5,3,2,3,-5,-2,7,2,-1
6,5,0,-5,3,2,3,-5,-2,7,2,-1
6,5,0,-6,3,2,3,-5,-2,7,2,-1
6,6,0,-6,3,2,3,-4,-3,6,2,-1
6,5,0,-6,3,2,2,-5,-3,5,2,-1
6,5,-2,-6,4,1,2,-6,-4,4,1,-2
6,4,-2,-5,4,1,1,-7,-5,3,1,-2
5,4,-1,-4,3,1,1,-7,-5,2,0,-3
4,3,-1,-4,3,0,1,-8,-6,2,0,-4
4,2,-1,-3,3,0,1,-9,-6,1,-1,-5
3,2,0,-3,2,0,2,-9,-7,0,-2,-5
2,2,1,-2,0,0,2,-9,-6,0,-2,-5
1,2,2,-2,0,1,3,-8,-5,0,-2,-6
0,2,2,-1,-1,1,3,-7,-5,0,-2,-7
-1,1,2,0,-1,1,4,-7,-6,0,-3,-8
-1,1,2,0,-1,1,6,-5,-6,-2,-5,-9
0,0,0,0,0,0,9,-2,-5,-3,-6,-10
0,-1,0,1,0,-1,11,4,-1,-2,-6,-10
0,-1,-1,1,0,-2,15,13,5,0,-5,-11
0,-1,-1,1,0,-2,18,23,14,4,-3,-11
2,0,-1,0,1,-1,21,33,25,11,2,-8
5,4,0,-4,2,1,21,41,35,21,11,-1
9,9,0,-9,4,4,19,46,45,33,23,8
14,14,0,-14,7,7,16,51,53,47,35,19
20,19,-1,-19,11,9,11,52,60,61,48,29
29,24,-4,-27,16,10,5,50,64,74,60,40
40,32,-7,-36,23,13,-2,46,66,86,72,51
52,41,-9,-46,31,15,-11,39,64,97,84,61
62,50,-11,-56,37,19,-21,26,57,103,94,70
69,58,-11,-63,40,23,-30,8,43,102,98,77
70,64,-6,-67,38,29,-37,-15,23,94,97,80
66,69,1,-68,32,36,-40,-42,0,78,89,78
59,69,9,-65,25,40,-40,-66,-25,58,75,72
50,62,12,-56,18,38,-38,-86,-49,34,56,59
38,49,11,-43,13,30,-37,-104,-73,8,33,41
25,35,10,-30,7,23,-36,-122,-96,-17,11,22
15,24,10,-19,2,17,-36,-140,-120,-43,-10,5
6,13,7,-9,0,10,-36,-153,-139,-66,-29,-10
0,4,3,-2,-2,3,-34,-158,-151,-83,-43,-22
-4,-2,1,3,-3,0,-32,-155,-152,-90,-51,-29
-9,-6,2,7,-5,-2,-29,-145,-145,-90,-53,-31
-11,-8,2,9,-7,-2,-27,-129,-133,-85,-51,-31
-12,-9,3,10,-7,-2,-25,-111,-118,-77,-48,-31
-11,-9,2,10,-6,-3,-23,-93,-102,-69,-45,-30
-8,-8,1,9,-4,-3,-20,-75,-86,-60,-41,-29
-6,-6,1,7,-3,-2,-17,-59,-70,-50,-36,-27
-5,-5,1,5,-3,-1,-12,-45,-57,-42,-30,-25
-5,-4,1,4,-3,-1,-9,-36,-46,-35,-26,-23
-4,-4,0,4,-2,-2,-7,-30,-40,-30,-23,-22
-3,-3,-1,3,-2,-2,-5,-25,-35,-27,-21,-20
-4,-3,0,3,-2,-1,-3,-21,-30,-24,-19,-18
-6,-3,3,4,-4,0,-1,-18,-26,-21,-18,-17
-8,-4,5,6,-5,0,0,-15,-23,-20,-17,-17
-9,-5,5,7,-6,0,1,-14,-20,-19,-16,-17
-9,-6,5,8,-6,0,2,-13,-19,-18,-16,-17
-8,-5,3,7,-5,0,3,-14,-18,-17,-15,-17
-6,-4,1,5,-3,0,3,-14,-18,-16,-14,-16
-5,-4,0,4,-3,-1,3,-14,-18,-16,-14,-16
-4,-4,0,4,-2,-1,3,-14,-18,-16,-14,-16
-4,-4,0,4,-2,-2,2,-14,-18,-16,-14,-16
-4,-4,0,4,-1,-2,2,-15,-18,-17,-15,-16
-3,-4,0,4,-1,-2,2,-15,-18,-17,-15,-16
-4,-3,1,4,-2,-1,3,-15,-17,-17,-14,-16
-5,-3,2,4,-4,0,3,-15,-16,-16,-13,-16
-5,-2,2,3,-4,0,4,-14,-15,-15,-12,-15
-5,-2,1,3,-3,0,3,-14,-15,-15,-12,-14
-4,-3,0,3,-2,-1,2,-14,-15,-14,-12,-14
-3,-2,0,3,-2,-1,2,-12,-15,-14,-12,-14
-3,-2,1,3,-2,0,2,-11,-14,-13,-12,-14
-2,-2,0,2,-2,-1,2,-11,-14,-13,-13,-15
-2,-2,0,2,-1,-1,2,-11,-14,-14,-13,-15
-3,-2,0,2,-2,-1,2,-11,-13,-13,-12,-15
-3,-2,1,2,-2,0,3,-11,-12,-12,-11,-14
-4,-1,2,2,-3,1,4,-10,-11,-11,-11,-13
-4,-1,3,2,-3,1,4,-9,-10,-10,-10,-12
-4,-1,3,2,-3,1,4,-8,-10,-9,-10,-12
-4,-1,2,2,-3,1,5,-7,-10,-9,-10,-12
-2,-1,0,2,-1,0,5,-7,-10,-9,-10,-12
-1,-1,-1,1,0,0,5,-7,-9,-9,-10,-12
-1,-1,-1,1,0,-1,5,-7,-9,-9,-10,-12
-1,-2,-1,1,0,-1,5,-6,-8,-9,-9,-12
-1,-2,-1,2,0,-2,5,-6,-8,-8,-9,-12
-1,-3,-1,2,0,-2,5,-5,-7,-8,-8,-12
-2,-3,-1,2,0,-2,6,-5,-6,-7,-7,-11
-1,-2,0,2,0,-1,6,-4,-5,-7,-6,-11
-2,-2,0,2,-1,-1,6,-4,-5,-7,-6,-11
-4,-2,1,3,-2,0,7,-3,-4,-6,-5,-11
-4,-2,1,2,-3,0,7,-2,-3,-6,-4,-11
-2,-1,0,1,-1,0,7,-1,-2,-5,-4,-11
0,-1,-1,0,0,-1,6,-1,-2,-5,-4,-11
0,-2,-2,0,1,-1,5,0,-1,-5,-3,-11
0,-2,-2,1,1,-1,5,0,-1,-4,-3,-11
-1,-2,-1,1,0,-1,5,1,0,-4,-2,-11
-1,-2,-1,2,0,-1,4,2,1,-3,-1,-10
-1,-2,-1,2,0,-1,4,3,2,-2,0,-9
-1,-2,-1,1,0,-1,4,5,3,-1,1,-8
0,-2,-2,1,1,-2,3,6,4,-1,2,-8
0,-2,-3,1,2,-2,2,6,4,-1,2,-8
1,-2,-3,0,2,-2,2,7,5,0,2,-8
1,-1,-2,0,1,-1,1,7,6,0,3,-8
1,-1,-2,0,1,-1,1,7,6,1,3,-8
1,0,-2,-1,1,0,1,7,7,1,4,-7
1,0,-1,-1,1,0,1,9,8,3,5,-6
1,1,0,-1,1,1,1,12,10,4,7,-4
3,2,-1,-3,2,1,1,13,12,5,8,-4
5,3,-3,-4,3,0,1,14,13,6,8,-4
5,3,-3,-4,4,0,1,15,14,7,9,-3
6,3,-3,-5,4,0,1,16,16,9,9,-3
7,4,-4,-5,5,0,0,17,17,10,10,-3
8,4,-4,-6,6,0,0,18,18,11,11,-3
9,4,-4,-6,7,0,0,20,19,13,12,-3
8,5,-3,-6,6,1,-1,22,21,15,13,-1
8,5,-2,-6,5,2,-1,24,24,17,16,0
8,6,-2,-7,5,2,-1,26,25,19,18,2
9,6,-2,-8,6,2,-2,27,26,20,19,3
11,7,-4,-9,8,2,-2,27,26,20,20,4
14,9,-4,-11,9,3,-2,28,27,21,21,4
14,11,-3,-12,9,4,-2,29,28,22,22,5
13,11,-2,-12,8,5,-2,30,29,23,23,6
12,11,-2,-12,7,5,-2,30,30,24,23,6
12,12,-1,-12,7,6,-2,30,31,25,24,7
14,13,-2,-14,8,6,-2,30,31,26,24,8
16,13,-3,-15,9,5,-3,30,31,26,25,9
18,13,-4,-16,10,5,-3,31,31,27,26,10
18,13,-4,-16,11,5,-4,30,31,27,26,10
18,14,-4,-16,11,5,-4,30,31,27,27,11
19,15,-4,-17,12,6,-5,29,31,27,27,11
20,16,-4,-18,12,6,-5,30,31,27,27,12
21,17,-4,-19,12,7,-5,30,32,27,27,12
21,19,-4,-20,12,8,-5,30,32,28,27,12
21,19,-3,-20,11,8,-4,30,33,28,28,13
20,19,-1,-19,11,9,-4,29,33,28,28,14
21,20,0,-20,11,10,-3,28,33,29,29,15
21,22,0,-21,11,11,-3,29,33,30,29,16
21,23,1,-21,10,12,-3,30,34,30,30,16
21,23,1,-22,10,13,-3,30,34,30,30,16
22,24,1,-22,10,13,-3,30,33,30,30,16
22,24,1,-23,10,13,-3,29,32,30,30,16
22,24,1,-23,10,13,-3,27,31,29,30,17
22,24,2,-23,9,14,-3,27,30,29,30,17
22,25,3,-24,9,14,-3,26,30,28,30,18
23,26,2,-25,10,14,-3,25,30,28,30,18
23,26,2,-25,10,14,-3,24,28,27,29,18
22,26,3,-24,9,15,-3,23,27,26,29,18
21,26,4,-23,8,15,-2,22,27,26,29,18
21,26,5,-23,8,15,-1,21,26,25,29,17
20,26,6,-23,7,16,0,21,26,25,29,17
20,27,7,-23,6,17,0,21,25,25,29,17
20,27,8,-24,6,18,1,20,24,24,29,17
21,27,7,-24,7,18,1,19,22,22,28,16
21,26,6,-24,8,17,1,17,20,20,27,15
20,26,5,-23,8,16,2,15,19,19,26,14
20,26,5,-22,7,16,2,14,18,18,26,14
19,25,5,-22,7,15,3,13,17,17,25,14
19,25,5,-22,7,15,3,12,15,16,24,14
20,24,4,-21,7,14,3,11,14,15,23,13
19,23,4,-21,7,14,3,10,12,14,22,13
18,22,4,-20,7,14,3,9,11,13,21,12
18,22,4,-20,6,14,3,8,10,12,21,12
17,22,5,-20,6,14,4,7,9,11,20,12
17,22,4,-20,6,13,4,7,9,10,19,11
19,22,2,-20,8,12,4,6,8,9,18,10
19,21,1,-20,9,11,4,6,7,9,17,10
20,21,0,-19,9,10,5,6,7,8,16,9
21,20,-1,-20,11,10,5,6,7,8,15,9
22,20,-1,-21,12,10,5,6,7,7,15,9
22,20,0,-21,11,11,5,5,6,7,14,10
21,20,0,-21,11,11,6,5,6,7,14,10
20,20,0,-20,10,11,6,5,6,7,14,10
19,20,0,-20,10,11,6,5,6,7,14,10
17,20,1,-18,8,11,6,4,5,6,13,11
15,20,3,-17,6,12,6,5,5,6,13,11
15,20,4,-17,6,12,6,5,5,6,13,12
16,20,4,-17,6,12,6,5,5,6,13,12
15,19,4,-17,6,12,5,4,4,6,12,12
15,18,4,-16,5,12,5,4,4,6,12,12
14,18,3,-16,6,11,5,4,4,6,12,11
14,17,2,-16,6,11,4,4,4,6,11,11
14,17,2,-16,6,11,3,4,4,6,11,11
13,16,3,-14,5,10,2,3,3,5,11,10
11,15,4,-13,4,10,1,1,2,5,10,10
12,16,4,-14,4,10,1,0,1,5,10,11
12,16,4,-14,4,10,1,0,1,5,10,11
13,15,4,-14,5,10,1,0,1,4,10,11
14,16,2,-15,6,9,1,1,1,4,9,11
16,17,0,-16,8,9,1,1,2,4,9,11
17,16,0,-16,9,8,1,1,2,4,8,11
17,16,-1,-16,9,7,0,1,2,3,8,11
16,15,-1,-15,8,7,0,1,2,3,8,11
16,14,-1,-15,8,6,0,1,2,3,8,11
15,14,-1,-14,8,6,0,1,2,3,7,10
16,14,-1,-15,8,6,1,2,2,3,7,10
17,15,-1,-16,9,7,1,3,2,3,7,10
18,15,-2,-16,10,7,2,3,3,3,7,10
17,16,-1,-16,9,7,2,4,3,4,7,11
17,16,-1,-16,9,7,3,4,4,4,7,11
17,16,-1,-16,9,7,3,5,4,4,7,11
16,15,-1,-16,9,7,3,5,4,4,7,11
15,15,-1,-15,9,7,3,5,5,4,8,11
15,15,0,-15,8,7,3,5,5,4,8,12
15,15,0,-15,8,7,3,5,5,4,8,12
14,15,1,-14,7,8,4,5,5,5,8,12
13,16,3,-14,5,9,4,6,6,5,9,12
14,16,2,-15,7,9,4,6,6,5,8,11
16,15,-1,-16,9,7,4,6,5,4,7,10
17,15,-2,-16,10,7,4,6,5,3,7,9
16,15,-2,-15,10,7,4,6,4,3,7,9
16,15,-1,-15,9,8,5,6,4,3,7,9
17,16,-1,-16,10,8,5,6,4,3,8,10
18,16,-1,-17,10,8,5,6,4,4,8,10
17,16,-1,-16,9,8,5,6,4,4,8,10
17,15,-1,-16,9,8,5,5,4,3,8,10
17,16,0,-16,9,8,5,5,5,3,8,11
17,17,0,-16,9,9,6,5,5,3,8,11
17,17,0,-17,10,9,6,5,5,3,8,10
18,17,0,-17,10,9,7,5,4,2,8,10
17,17,0,-17,10,9,7,5,4,2,7,10
17,17,0,-17,9,8,7,4,3,2,7,10
18,17,0,-18,10,8,8,4,3,2,7,10
19,18,-1,-19,11,8,8,4,3,2,6,9
19,18,0,-19,10,9,8,4,3,1,6,9
17,17,0,-17,9,9,10,5,3,0,5,9
15,17,2,-16,7,10,13,8,4,0,4,8
14,17,3,-15,6,10,16,13,7,0,4,8
13,17,4,-15,4,11,19,21,13,3,6,9
12,19,7,-15,2,13,23,31,23,8,9,11
12,21,9,-16,2,16,26,42,34,16,15,14
17,26,10,-21,4,18,26,51,46,26,23,20
23,32,9,-27,7,21,24,58,57,39,34,29
29,36,8,-32,11,22,20,63,67,53,46,39
35,41,6,-37,15,23,15,67,75,68,59,49
41,45,4,-43,19,24,8,67,81,82,71,59
49,49,0,-48,24,24,0,65,84,94,83,69
58,55,-3,-56,30,26,-10,57,81,104,94,79
67,61,-5,-63,36,28,-21,43,71,108,101,87
71,65,-5,-68,38,30,-30,22,53,103,101,91
72,68,-3,-69,37,33,-38,-4,26,88,94,89
69,70,1,-69,34,36,-43,-37,-6,65,80,84
63,70,6,-66,28,38,-44,-69,-40,38,62,75
51,64,12,-57,20,38,-41,-95,-70,10,41,62
37,51,13,-44,12,33,-37,-116,-97,-18,18,46
23,36,12,-29,5,24,-34,-135,-123,-46,-5,28
10,21,11,-15,0,16,-32,-154,-148,-74,-29,10
0,7,9,-3,-4,8,-31,-166,-167,-97,-48,-5
-8,-2,7,5,-6,2,-30,-169,-175,-110,-61,-16
-12,-8,5,10,-8,-1,-27,-162,-172,-114,-67,-23
-14,-11,4,12,-8,-3,-25,-149,-161,-110,-67,-24
-15,-12,3,14,-9,-4,-23,-131,-145,-102,-63,-23
-15,-12,3,14,-9,-4,-22,-111,-127,-91,-57,-20
-14,-11,2,13,-8,-4,-21,-91,-109,-80,-51,-18
-12,-10,2,11,-7,-4,-21,-72,-90,-69,-45,-15
-11,-9,2,10,-7,-3,-20,-55,-73,-57,-38,-13
-10,-8,3,9,-6,-2,-18,-40,-58,-48,-33,-11
-9,-7,2,8,-5,-2,-15,-29,-46,-40,-28,-10
-7,-7,1,7,-4,-3,-13,-21,-38,-35,-25,-9
-6,-6,0,6,-2,-3,-10,-17,-33,-32,-23,-9
-5,-6,-1,6,-2,-4,-8,-14,-29,-30,-22,-8
-6,-8,-2,7,-2,-5,-6,-13,-26,-28,-22,-7
-8,-9,-2,9,-2,-6,-5,-12,-24,-27,-21,-7
-10,-11,-2,11,-3,-6,-4,-11,-22,-26,-20,-6
-11,-13,-1,12,-3,-7,-4,-10,-20,-25,-20,-6
-11,-13,-1,12,-4,-7,-3,-10,-19,-24,-19,-5
-11,-13,-1,12,-4,-7,-1,-10,-18,-23,-18,-4
-12,-13,-1,12,-5,-7,-1,-10,-17,-22,-17,-3
-12,-13,-1,13,-5,-7,-1,-10,-17,-22,-16,-3
-12,-14,-1,13,-5,-7,-1,-10,-17,-22,-16,-3
-13,-14,-1,14,-6,-7,-1,-9,-16,-22,-15,-2
-14,-15,0,15,-6,-8,-1,-9,-16,-22,-16,-2
-15,-17,-1,16,-7,-9,-2,-10,-16,-22,-16,-3
-15,-18,-2,16,-6,-10,-2,-10,-16,-23,-17,-4
-15,-18,-3,17,-6,-10,-2,-10,-16,-23,-17,-4
-15,-18,-3,17,-6,-10,-2,-10,-16,-23,-16,-4
-15,-18,-2,17,-6,-10,-2,-9,-15,-22,-16,-4
-15,-18,-2,17,-6,-9,-2,-9,-15,-22,-16,-4
-16,-18,-2,17,-6,-10,-2,-9,-15,-22,-16,-4
-17,-19,-2,18,-6,-11,-2,-9,-16,-23,-17,-5
-17,-20,-3,19,-6,-12,-2,-9,-16,-23,-17,-5
-16,-20,-3,18,-6,-12,-1,-9,-15,-23,-17,-5
-15,-20,-4,18,-5,-13,-1,-9,-15,-22,-17,-5
-15,-21,-5,18,-5,-13,-1,-9,-14,-22,-17,-5
-16,-22,-5,19,-6,-14,-1,-9,-14,-22,-17,-5
-17,-22,-5,20,-6,-14,0,-9,-14,-22,-17,-5
-18,-22,-5,20,-6,-14,0,-9,-14,-22,-16,-5
-18,-22,-5,20,-6,-14,0,-8,-13,-22,-16,-5
-18,-22,-4,20,-6,-13,0,-7,-13,-22,-16,-5
-18,-22,-4,20,-6,-13,1,-6,-12,-22,-16,-5
-18,-21,-3,20,-7,-12,2,-6,-12,-21,-15,-4
-19,-21,-2,20,-8,-12,2,-5,-11,-21,-14,-4
-19,-21,-1,20,-9,-11,3,-5,-11,-20,-14,-3
-19,-21,-1,20,-8,-11,3,-4,-10,-19,-14,-3
-17,-20,-2,19,-7,-11,4,-4,-9,-19,-14,-3
-16,-20,-4,18,-6,-12,4,-4,-9,-19,-14,-3
-15,-20,-4,18,-5,-12,4,-3,-8,-18,-13,-2
-16,-20,-3,18,-6,-11,4,-1,-7,-17,-12,-1
-17,-19,-3,18,-7,-11,5,0,-5,-16,-11,-1
-16,-19,-3,18,-7,-11,5,1,-4,-15,-11,0
-17,-19,-1,18,-8,-10,5,2,-2,-14,-10,0
-18,-18,0,18,-9,-9,6,2,-1,-13,-9,1
-19,-18,2,18,-11,-7,6,3,0,-13,-8,1
-19,-17,4,18,-11,-6,6,4,1,-12,-7,2
-19,-16,4,17,-11,-6,6,5,2,-11,-6,2
-18,-15,4,17,-10,-6,5,6,3,-10,-5,2
-17,-14,3,16,-10,-6,5,7,4,-9,-4,2
-17,-14,3,16,-10,-6,4,9,6,-8,-3,2
-16,-13,3,15,-9,-6,4,10,7,-7,-2,2
-14,-13,2,13,-8,-5,3,11,9,-6,-1,2
-13,-12,2,12,-7,-5,3,12,11,-5,0,2
-12,-12,1,11,-6,-5,2,14,12,-4,1,2
-11,-11,1,10,-5,-5,1,15,13,-2,2,2
-10,-10,1,10,-5,-5,0,16,14,-1,3,3
-10,-9,2,10,-6,-4,0,18,16,1,5,3
-9,-8,3,9,-6,-2,-1,20,18,4,7,4
-6,-6,2,6,-4,-2,-2,21,20,5,8,5
-4,-4,0,4,-2,-2,-4,22,21,6,9,5
-4,-4,0,4,-2,-2,-5,22,23,7,10,5
-5,-4,2,5,-3,-1,-6,24,25,9,11,6
-6,-3,3,5,-4,0,-7,25,26,11,13,7
-6,-2,4,4,-4,1,-7,26,27,13,14,7
-5,-1,4,3,-4,1,-8,27,28,14,15,6
-3,-1,3,3,-3,0,-9,28,29,15,15,6
-3,0,3,2,-3,0,-9,28,30,16,16,6
-4,0,4,2,-4,1,-10,29,31,17,16,6
-5,0,5,2,-4,2,-11,30,32,17,17,7
-4,0,4,1,-4,3,-11,30,33,17,17,7
-2,1,4,0,-2,3,-12,31,33,18,18,8
-1,1,4,0,-2,3,-12,31,34,19,18,9
-1,2,5,0,-2,4,-12,32,35,21,20,10
-1,2,5,0,-2,4,-12,33,36,22,21,11
0,3,5,0,-2,3,-12,33,37,23,22,11
0,3,4,-1,-1,3,-12,34,38,24,23,12
1,4,4,-2,-1,4,-12,35,38,24,24,13
2,5,2,-3,0,3,-13,34,38,24,24,13
4,5,1,-4,2,3,-14,34,38,24,24,13
4,5,1,-5,2,4,-14,35,38,25,25,13
4,6,2,-5,2,4,-14,35,39,25,26,13
4,6,3,-5,1,5,-15,36,39,26,26,13
5,6,3,-6,2,5,-15,35,39,26,26,13
5,6,2,-6,2,4,-15,34,38,26,26,13
6,7,2,-6,2,4,-15,33,38,25,26,13
6,7,1,-6,2,4,-15,33,37,25,26,13
6,7,1,-6,2,5,-15,33,37,25,26,13
5,7,2,-6,1,5,-14,32,37,25,26,12
4,7,2,-5,1,5,-14,32,36,24,25,11
4,6,2,-5,1,5,-13,31,35,23,25,11
4,6,2,-5,1,4,-13,30,33,22,24,10
3,5,2,-4,1,4,-12,28,32,21,23,9
2,5,3,-3,0,4,-10,27,31,20,22,8
0,4,3,-2,0,4,-9,26,29,19,21,7
-1,2,3,0,-1,3,-9,24,27,17,20,6
-2,1,3,0,-2,3,-8,23,26,16,19,4
-2,1,3,1,-2,2,-8,22,24,14,18,3
-2,0,2,1,-2,2,-7,19,21,12,16,1
-3,0,3,2,-3,2,-6,18,19,11,15,0
-5,0,5,3,-5,2,-5,17,18,9,14,0
-6,-1,5,4,-6,2,-4,16,16,8,12,-1
-6,-1,5,4,-5,1,-3,14,14,6,10,-3
-6,-2,4,4,-5,1,-3,12,12,4,9,-4
-5,-3,2,4,-4,0,-3,10,10,2,7,-5
-5,-5,1,5,-3,-1,-3,9,8,0,5,-7
-5,-6,0,5,-2,-2,-2,7,6,-1,3,-9
-4,-6,-1,5,-1,-3,-2,6,5,-3,2,-10
-4,-7,-2,6,-1,-4,-1,5,3,-4,0,-11
-4,-8,-3,6,-1,-5,-1,4,2,-5,0,-12
-5,-9,-3,8,-1,-6,0,3,2,-6,-1,-12
-7,-10,-2,9,-2,-6,1,3,1,-6,-2,-12
-9,-11,-1,10,-3,-6,2,3,1,-7,-2,-12
-11,-11,0,11,-5,-6,4,3,0,-7,-2,-12
-11,-12,0,11,-5,-6,4,2,0,-8,-3,-12
-10,-12,-1,11,-4,-7,4,1,-1,-10,-4,-13
-9,-12,-3,11,-3,-8,4,0,-2,-11,-4,-13
-9,-12,-2,11,-3,-8,5,0,-3,-11,-5,-14
-11,-13,0,13,-5,-7,6,0,-3,-11,-4,-14
-14,-13,1,14,-7,-6,8,0,-3,-11,-4,-15
-15,-13,2,15,-8,-5,8,0,-3,-11,-4,-15
-16,-13,3,15,-8,-5,8,0,-3,-11,-4,-16
-15,-13,2,14,-8,-5,7,0,-3,-11,-4,-17
-13,-12,2,13,-7,-5,6,-1,-4,-11,-4,-17
-13,-12,2,12,-7,-4,5,-1,-4,-10,-3,-16
-14,-11,3,12,-8,-4,5,0,-4,-10,-3,-16
-14,-11,4,12,-8,-4,4,-1,-4,-11,-3,-17
-14,-12,3,13,-7,-4,4,-2,-5,-11,-4,-18
-13,-12,2,12,-7,-4,3,-3,-6,-12,-4,-18
-13,-12,2,12,-6,-5,2,-3,-6,-12,-4,-18
-13,-11,2,12,-7,-4,2,-3,-6,-11,-4,-18
-13,-11,3,12,-7,-4,2,-3,-6,-11,-4,-18
-13,-11,3,12,-8,-4,2,-3,-6,-11,-4,-18
-13,-11,3,12,-8,-4,1,-3,-6,-11,-4,-18
-13,-11,4,12,-9,-3,1,-3,-6,-10,-4,-18
-13,-10,4,12,-8,-3,1,-3,-6,-10,-3,-17
-12,-9,3,11,-7,-3,0,-3,-6,-10,-3,-16
-11,-9,2,11,-6,-3,0,-4,-6,-10,-4,-16
-11,-9,3,11,-6,-3,0,-4,-5,-10,-4,-16
-12,-9,3,11,-7,-2,-1,-4,-5,-10,-3,-16
-12,-9,4,10,-7,-2,0,-4,-5,-10,-3,-16
-11,-8,4,9,-6,-2,0,-4,-5,-10,-3,-16
-10,-8,4,9,-6,-2,0,-4,-5,-9,-3,-16
-11,-8,5,9,-7,-2,1,-4,-5,-9,-3,-15
-12,-7,6,10,-8,-1,1,-4,-4,-8,-2,-15
-12,-6,7,9,-9,0,2,-4,-4,-8,-1,-14
-12,-6,7,9,-8,0,2,-4,-4,-8,-1,-14
-12,-6,7,9,-9,0,2,-4,-4,-8,-1,-14
-13,-6,8,9,-10,1,2,-5,-5,-8,-2,-14
-14,-6,9,9,-11,1,1,-5,-5,-8,-2,-15
-14,-6,8,10,-11,1,1,-6,-6,-9,-3,-16
-13,-5,8,9,-10,1,0,-6,-6,-9,-4,-16
-12,-5,7,9,-9,1,0,-7,-6,-9,-4,-16
-12,-5,7,9,-9,1,0,-7,-6,-9,-5,-16
-13,-6,8,10,-10,1,0,-7,-6,-10,-5,-17
-14,-6,8,10,-10,1,0,-7,-7,-10,-5,-17
-13,-5,8,10,-10,1,0,-7,-7,-10,-5,-16
-13,-5,8,9,-11,2,0,-7,-7,-10,-5,-16
-13,-5,8,9,-11,2,0,-8,-7,-10,-6,-16
-12,-5,7,9,-10,1,0,-8,-7,-10,-6,-16
-11,-5,6,8,-8,0,-1,-8,-7,-10,-6,-16
-10,-6,4,8,-7,0,-1,-9,-8,-10,-6,-16
-10,-7,3,8,-6,-1,-2,-9,-8,-10,-6,-15
-10,-8,2,9,-5,-2,-2,-8,-8,-10,-6,-15
-10,-8,2,9,-5,-2,-2,-8,-8,-10,-6,-14
-10,-9,1,9,-5,-3,-3,-8,-8,-10,-6,-14
-10,-9,1,9,-5,-4,-3,-8,-8,-10,-6,-14
-10,-10,0,10,-5,-4,-3,-8,-8,-10,-7,-14
-10,-10,0,10,-4,-5,-3,-8,-8,-10,-7,-14
-10,-10,0,10,-4,-5,-3,-8,-8,-10,-7,-14
-10,-10,1,10,-5,-4,-3,-8,-8,-10,-7,-14
-10,-9,1,10,-5,-4,-3,-8,-8,-10,-7,-14
-9,-9,0,10,-4,-4,-3,-8,-8,-10,-7,-14
-9,-9,0,10,-4,-4,-3,-7,-8,-10,-7,-14
-9,-9,0,10,-4,-4,-3,-7,-8,-10,-7,-13
-9,-9,0,9,-3,-4,-3,-6,-7,-10,-7,-13
-8,-9,-1,9,-2,-5,-3,-7,-7,-10,-7,-13
-8,-10,-1,9,-2,-5,-3,-7,-7,-11,-7,-13
-8,-10,-1,9,-2,-5,-2,-7,-7,-11,-8,-13
-9,-10,-1,10,-3,-5,-2,-7,-8,-12,-8,-13
-10,-11,0,10,-4,-5,-2,-8,-8,-12,-8,-13
-11,-11,0,11,-5,-4,0,-8,-8,-12,-8,-13
-12,-11,2,12,-7,-4,1,-7,-8,-13,-8,-13
-13,-12,2,13,-8,-4,3,-6,-9,-14,-10,-15
-14,-13,2,14,-8,-5,6,-3,-8,-15,-12,-17
-16,-14,2,15,-9,-6,9,1,-6,-15,-13,-18
-17,-15,2,16,-10,-6,13,9,0,-14,-13,-19
-18,-15,3,17,-11,-5,17,19,8,-10,-11,-18
-17,-13,4,15,-10,-4,20,29,17,-4,-7,-15
-13,-9,4,11,-8,-2,20,36,26,5,0,-9
-7,-4,4,6,-5,0,18,42,35,16,10,-1
-1,1,3,0,-1,2,15,46,43,29,22,8
8,7,0,-7,4,3,10,47,50,42,34,19
18,14,-2,-16,10,5,4,46,54,55,47,29
29,21,-6,-25,17,7,-4,40,54,67,59,40
40,29,-11,-35,25,9,-15,31,51,76,70,50
50,37,-12,-43,31,13,-26,16,42,81,78,60
55,44,-10,-49,33,18,-34,-3,26,79,81,66
55,50,-4,-52,30,23,-40,-28,5,68,77,67
50,52,2,-51,25,28,-42,-55,-19,50,66,63
43,51,9,-47,18,30,-41,-78,-44,29,50,54
32,42,11,-37,11,27,-38,-96,-67,5,30,40
21,29,9,-25,6,20,-36,-113,-90,-20,8,22
9,16,7,-12,2,12,-35,-131,-113,-45,-13,5
-1,4,6,-1,-2,6,-35,-148,-136,-70,-33,-11
-11,-6,5,9,-6,0,-36,-160,-154,-91,-51,-25
-18,-14,4,16,-10,-5,-34,-163,-162,-103,-62,-34
-22,-20,3,21,-12,-8,-32,-157,-160,-107,-67,-39
-25,-22,3,24,-13,-9,-30,-144,-151,-105,-67,-40
-25,-24,2,24,-13,-10,-28,-128,-138,-98,-64,-40
-24,-23,1,23,-12,-11,-27,-110,-121,-89,-59,-39
-22,-22,1,22,-11,-10,-25,-91,-104,-79,-53,-37
-20,-21,0,20,-10,-10,-23,-72,-86,-69,-47,-34
-19,-20,0,19,-8,-10,-21,-55,-70,-59,-41,-32
-18,-19,0,18,-7,-10,-17,-41,-56,-50,-36,-29
-16,-18,-2,17,-6,-10,-14,-30,-45,-43,-32,-27
-14,-18,-3,16,-4,-10,-11,-24,-38,-38,-29,-25
-12,-17,-4,14,-3,-10,-9,-19,-33,-35,-26,-24
-11,-16,-4,13,-3,-10,-7,-16,-29,-32,-24,-22
-12,-16,-4,13,-3,-10,-5,-14,-26,-30,-23,-22
-12,-17,-4,14,-4,-10,-4,-12,-24,-29,-22,-21
-14,-17,-2,16,-5,-9,-3,-11,-21,-27,-20,-20
-16,-17,-1,17,-6,-8,-1,-9,-18,-25,-19,-19
-15,-17,-1,17,-6,-8,-1,-10,-17,-24,-18,-18
-14,-17,-2,16,-5,-9,-1,-11,-17,-23,-17,-18
-14,-17,-3,15,-5,-10,-1,-11,-17,-23,-17,-18
-14,-17,-3,15,-5,-10,-1,-12,-17,-23,-17,-18
-13,-17,-3,15,-5,-10,-2,-12,-17,-23,-17,-18
-13,-16,-3,14,-5,-10,-2,-11,-17,-23,-17,-18
-12,-16,-3,14,-4,-9,-3,-11,-16,-23,-17,-18
-11,-16,-3,13,-3,-9,-3,-11,-16,-23,-17,-18
-11,-16,-3,13,-3,-9,-2,-11,-15,-23,-18,-17
-12,-16,-2,13,-4,-8,-2,-12,-14,-23,-18,-17
-12,-16,-3,13,-4,-9,-2,-12,-14,-23,-18,-18
-11,-15,-3,13,-3,-9,-2,-13,-15,-24,-19,-18
-11,-14,-2,13,-4,-8,-1,-12,-14,-23,-19,-17
-14,-14,1,14,-7,-6,0,-12,-13,-22,-18,-17
-17,-14,4,16,-10,-5,1,-11,-12,-21,-18,-16
-20,-15,6,18,-12,-4,2,-11,-12,-21,-18,-16
-20,-16,5,18,-12,-4,2,-11,-12,-21,-18,-16
-19,-16,4,17,-10,-5,2,-11,-12,-21,-18,-16
-18,-16,3,17,-10,-5,2,-10,-12,-20,-17,-15
-17,-15,3,16,-10,-5,2,-8,-11,-20,-17,-15
-17,-14,3,16,-10,-5,2,-7,-11,-19,-17,-15
-17,-14,4,16,-10,-5,2,-6,-10,-19,-17,-15
-17,-14,3,16,-10,-5,2,-6,-10,-19,-17,-15
-16,-14,2,16,-9,-6,2,-7,-10,-19,-18,-16
-15,-15,0,15,-7,-7,2,-7,-10,-20,-19,-16
-15,-15,0,15,-6,-7,1,-7,-10,-20,-20,-16
-16,-16,0,16,-7,-7,1,-7,-10,-21,-20,-16
-18,-16,2,17,-9,-6,2,-6,-9,-20,-19,-16
-19,-17,3,18,-11,-6,2,-6,-9,-20,-19,-16
-20,-17,3,18,-11,-7,2,-6,-9,-20,-19,-16
-20,-18,2,19,-11,-7,1,-6,-9,-20,-19,-16
-20,-19,1,19,-10,-8,1,-6,-9,-20,-20,-16
-18,-19,0,18,-9,-8,1,-6,-9,-20,-20,-16
-17,-18,-1,18,-8,-9,1,-5,-8,-20,-20,-16
-17,-19,-1,18,-7,-9,1,-5,-8,-19,-20,-16
-17,-19,-2,18,-7,-10,1,-4,-8,-19,-20,-16
-16,-19,-2,17,-6,-11,0,-4,-7,-19,-20,-16
-16,-19,-2,17,-6,-11,0,-3,-7,-19,-20,-16
-16,-19,-2,17,-6,-11,0,-2,-6,-19,-20,-16
-15,-19,-2,17,-6,-11,0,-1,-4,-18,-20,-16
-15,-19,-3,17,-6,-10,0,0,-3,-18,-20,-16
-15,-19,-3,17,-6,-10,0,1,-2,-17,-20,-16
-15,-18,-2,17,-6,-10,0,2,-1,-16,-19,-15
-15,-18,-1,16,-6,-9,0,3,0,-15,-18,-14
-15,-17,-1,16,-6,-8,1,3,1,-13,-17,-13
-15,-16,0,16,-7,-8,1,4,3,-12,-16,-12
-15,-15,0,15,-7,-7,0,5,4,-10,-15,-11
-14,-14,0,14,-6,-7,0,7,6,-9,-14,-10
-13,-13,0,13,-6,-6,0,9,8,-8,-13,-9
-13,-12,0,12,-6,-6,-1,11,9,-7,-12,-8
-12,-12,0,11,-6,-5,-1,12,11,-6,-11,-8
-11,-11,0,11,-5,-5,-2,13,12,-5,-10,-7
-10,-11,0,10,-5,-5,-2,14,14,-3,-9,-7
-9,-10,-1,9,-4,-5,-2,14,15,-2,-8,-6
-7,-9,-1,8,-3,-5,-2,15,17,-1,-7,-6
-8,-8,0,8,-4,-4,-2,18,19,1,-6,-5
-9,-8,1,8,-5,-3,-2,20,22,3,-5,-4
-8,-7,1,7,-5,-2,-2,22,23,4,-4,-3
-8,-6,2,6,-5,-1,-2,23,25,6,-2,-1
-9,-5,4,6,-6,0,-2,24,26,9,0,1
-10,-4,6,6,-7,1,-2,26,28,12,2,3
-8,-3,5,5,-6,1,-3,28,30,13,4,4
-6,-2,4,4,-4,1,-5,29,31,14,5,5
-4,-2,2,2,-3,1,-6,30,32,15,5,5
-2,-1,1,1,-1,0,-7,31,32,16,5,5
-1,0,0,0,0,0,-8,32,33,16,6,6
0,0,0,0,0,0,-8,33,34,17,6,6
0,0,0,0,0,0,-9,33,35,17,7,6
0,0,0,0,1,0,-9,33,35,17,7,6
1,0,0,0,1,0,-9,32,35,18,8,7
2,1,0,-1,1,0,-9,33,35,19,9,8
2,2,1,-1,0,1,-9,34,36,20,10,9
2,2,1,-2,0,1,-9,34,37,20,11,10
4,3,0,-3,2,1,-9,34,37,21,11,11
5,3,-1,-4,3,1,-10,35,37,21,11,11
4,4,0,-4,3,2,-9,35,37,21,12,11
3,4,1,-4,1,3,-9,36,37,22,12,12
3,5,2,-4,1,4,-9,36,38,23,13,13
5,6,1,-6,2,4,-9,35,37,23,13,13
7,7,0,-7,3,4,-9,34,37,23,13,13
7,7,0,-7,3,4,-10,33,36,23,13,13
7,7,1,-7,3,5,-10,33,36,23,13,14
6,7,1,-6,2,5,-10,33,36,23,13,14
5,7,1,-6,2,4,-10,32,35,23,12,14
5,6,0,-6,3,4,-10,31,34,22,12,14
5,5,0,-5,3,3,-10,30,32,21,11,13
5,4,0,-5,2,3,-10,29,31,20,11,12
5,4,0,-4,2,2,-10,27,29,19,10,12
5,4,0,-4,2,2,-9,26,29,19,10,12
5,4,0,-4,2,3,-8,25,28,18,9,12
5,4,0,-4,3,2,-8,24,27,17,8,11
4,3,-1,-3,3,1,-7,23,25,15,7,9
2,2,0,-2,2,1,-7,21,23,13,6,9
1,2,0,-2,1,1,-6,19,21,12,5,8
1,1,0,-2,1,0,-5,17,18,10,4,8
1,1,0,-2,1,0,-4,15,16,9,3,7
1,0,0,-1,0,0,-4,13,15,9,3,7
0,-1,-1,0,0,0,-4,12,14,8,2,6
-1,-2,-1,2,0,-1,-5,11,12,6,0,5
-2,-3,-1,3,0,-1,-6,10,10,4,0,5
-2,-4,-1,3,0,-1,-6,9,9,3,-1,4
-3,-3,0,3,-1,-1,-6,8,8,3,-2,4
-3,-3,0,3,-2,-1,-6,6,7,2,-2,4
-3,-3,1,3,-3,0,-6,4,6,2,-2,4
-4,-3,2,3,-4,0,-6,3,5,1,-3,3
-5,-3,2,4,-4,0,-6,2,4,0,-3,3
-4,-3,2,4,-3,0,-6,1,3,-1,-4,2
-4,-3,1,4,-3,0,-6,0,2,-2,-5,2
-6,-4,2,5,-4,0,-5,0,1,-2,-5,2
-9,-5,4,6,-6,0,-4,-1,1,-3,-5,2
-10,-6,4,7,-7,0,-4,-2,0,-3,-6,1
-10,-7,4,8,-7,-1,-4,-3,-1,-4,-7,0
-9,-7,3,8,-6,-2,-4,-4,-3,-5,-8,0
-9,-8,2,8,-6,-2,-3,-5,-4,-6,-8,-1
-9,-8,2,8,-6,-2,-3,-5,-4,-7,-9,-1
-8,-8,1,8,-5,-2,-3,-6,-5,-7,-9,-2
-9,-8,1,8,-5,-2,-3,-6,-5,-8,-9,-2
-10,-8,2,9,-6,-2,-3,-7,-6,-8,-9,-2
-10,-8,2,9,-6,-2,-3,-7,-6,-8,-10,-3
-10,-8,2,9,-6,-3,-3,-6,-7,-8,-10,-3
-10,-8,2,9,-6,-3,-3,-6,-7,-8,-11,-3
-10,-8,2,9,-6,-3,-3,-6,-7,-8,-11,-3
-9,-9,1,9,-5,-3,-3,-6,-7,-8,-11,-3
-9,-9,1,9,-5,-3,-3,-6,-7,-9,-11,-3
-10,-10,1,10,-5,-3,-3,-6,-7,-9,-11,-3
-10,-10,1,10,-5,-3,-3,-6,-7,-10,-12,-3
-11,-10,1,10,-6,-3,-3,-6,-7,-10,-12,-3
-12,-10,1,11,-6,-4,-2,-6,-6,-10,-12,-3
-11,-10,0,10,-5,-5,-2,-6,-6,-10,-12,-4
-10,-10,0,10,-4,-5,-2,-6,-6,-10,-12,-4
-10,-10,0,10,-5,-5,-2,-6,-6,-10,-12,-4
-10,-10,0,10,-5,-5,-1,-6,-6,-10,-12,-4
-10,-10,0,10,-5,-5,0,-6,-6,-10,-12,-4
-10,-10,0,10,-5,-5,0,-5,-6,-9,-12,-4
-11,-10,1,11,-6,-4,1,-5,-6,-9,-11,-3
-12,-10,1,11,-7,-4,1,-4,-5,-8,-11,-3
-13,-10,2,11,-8,-4,1,-3,-5,-8,-11,-3
-13,-10,3,12,-8,-4,2,-3,-4,-7,-10,-3
-14,-11,3,12,-9,-3,2,-3,-4,-7,-10,-3
-13,-11,2,12,-8,-4,2,-4,-4,-7,-10,-4
-13,-11,1,12,-7,-4,2,-4,-4,-7,-10,-4
-13,-11,1,12,-7,-4,2,-4,-4,-7,-10,-4
-12,-11,1,12,-6,-4,2,-4,-4,-7,-11,-4
-11,-11,0,11,-6,-4,2,-3,-4,-7,-11,-4
-11,-10,1,11,-6,-4,2,-2,-3,-7,-11,-4
-11,-10,1,11,-6,-4,2,-1,-2,-7,-11,-4
-12,-10,2,11,-7,-4,2,-1,-1,-6,-11,-4
-12,-10,2,12,-7,-4,2,0,-1,-6,-11,-3
-12,-10,1,11,-7,-5,2,-1,-1,-6,-12,-3
-11,-10,0,10,-6,-5,2,-1,-2,-6,-12,-3
-10,-11,0,10,-5,-6,2,-1,-2,-6,-12,-3
-10,-11,0,10,-5,-6,2,-1,-2,-6,-12,-3
-10,-11,0,10,-5,-5,2,-1,-2,-6,-12,-2
-11,-10,1,10,-6,-4,2,-1,-2,-5,-11,-2
-11,-9,2,10,-7,-3,2,0,-1,-4,-10,-1
-11,-9,2,9,-7,-3,2,0,-1,-4,-10,0
-11,-9,3,10,-7,-3,2,0,0,-3,-10,0
-12,-9,3,10,-8,-2,2,0,0,-3,-9,0
-12,-8,4,10,-8,-2,2,0,0,-3,-9,0
-12,-8,4,11,-8,-2,2,0,0,-3,-9,0
-12,-9,3,11,-8,-2,2,0,0,-3,-9,0
-12,-9,3,11,-8,-3,2,1,0,-3,-10,0
-13,-9,3,11,-8,-3,3,2,1,-3,-10,-1
-13,-10,2,12,-8,-4,4,3,1,-4,-11,-2
-12,-11,0,12,-7,-5,6,7,4,-3,-12,-3
-12,-11,0,12,-6,-5,8,14,10,0,-10,-3
-12,-10,1,11,-7,-4,11,25,20,6,-7,-1
-11,-8,2,10,-7,-3,13,36,32,14,-1,2
-8,-5,3,7,-6,0,13,45,44,25,7,8
-2,0,3,1,-3,2,11,53,56,39,18,17
5,7,2,-6,1,4,7,59,67,54,31,27
13,13,0,-13,6,6,1,62,76,69,45,38
21,20,-1,-20,11,8,-5,63,83,84,58,49
29,26,-4,-27,17,10,-13,62,86,98,71,61
38,32,-6,-35,22,12,-22,55,84,108,82,72
46,37,-9,-42,28,14,-32,41,73,110,89,79
53,42,-10,-47,31,16,-40,21,53,103,88,83
55,46,-8,-50,31,19,-47,-5,26,87,81,82
53,49,-3,-51,27,23,-51,-39,-8,64,68,77
46,50,4,-49,20,27,-52,-73,-43,38,52,69
36,49,12,-43,11,30,-49,-101,-75,11,33,58
22,41,17,-32,2,29,-45,-125,-103,-17,11,43
8,27,18,-18,-4,22,-41,-147,-130,-46,-12,24
-3,13,16,-5,-9,14,-38,-166,-156,-74,-36,5
-13,0,13,7,-13,6,-36,-176,-174,-96,-56,-11
-19,-10,9,15,-14,0,-34,-176,-180,-108,-68,-23
-22,-16,6,19,-14,-4,-31,-167,-175,-111,-74,-29
-23,-19,5,21,-14,-7,-28,-153,-163,-107,-74,-31
-25,-20,5,22,-15,-8,-26,-134,-146,-98,-70,-30
-25,-19,4,22,-15,-8,-24,-113,-127,-87,-64,-28
-23,-19,3,21,-13,-9,-24,-93,-108,-76,-58,-26
-22,-18,2,20,-12,-8,-23,-73,-90,-64,-52,-23
-21,-17,3,19,-11,-7,-21,-54,-72,-53,-45,-21
-19,-16,2,18,-10,-7,-19,-39,-56,-43,-39,-18
-16,-16,1,16,-8,-7,-17,-28,-45,-35,-35,-17
-14,-15,-1,14,-6,-8,-15,-21,-36,-30,-32,-15
-13,-15,-2,13,-5,-8,-12,-17,-31,-26,-29,-14
-13,-15,-2,14,-5,-9,-10,-15,-27,-23,-28,-13
-13,-15,-2,14,-5,-9,-9,-13,-25,-21,-27,-13
-14,-16,-3,15,-5,-10,-8,-12,-23,-20,-26,-12
-15,-18,-3,17,-6,-11,-6,-11,-21,-19,-26,-12
-17,-19,-2,18,-7,-10,-5,-11,-19,-19,-25,-12
-18,-20,-2,19,-8,-10,-4,-13,-19,-19,-25,-12
-18,-21,-2,19,-8,-11,-3,-15,-19,-19,-25,-13
-18,-21,-3,19,-8,-12,-3,-16,-19,-18,-25,-13
-18,-21,-3,19,-8,-12,-3,-16,-20,-18,-25,-13
-19,-21,-3,20,-8,-12,-3,-16,-20,-18,-26,-13
-19,-22,-3,20,-8,-13,-3,-16,-20,-18,-26,-14
-19,-22,-4,21,-7,-13,-3,-16,-20,-18,-26,-14
-19,-23,-4,21,-8,-13,-2,-15,-19,-18,-26,-15
-20,-23,-3,22,-9,-13,-2,-14,-18,-18,-26,-15
-21,-24,-2,23,-10,-13,-1,-14,-18,-17,-26,-15
-22,-24,-2,23,-10,-13,-1,-14,-17,-17,-26,-15
-21,-24,-2,23,-10,-13,0,-14,-17,-16,-25,-14
-20,-23,-4,22,-8,-13,0,-14,-17,-16,-25,-14
-19,-23,-4,22,-8,-14,0,-13,-17,-16,-25,-14
-20,-24,-4,22,-8,-14,-1,-12,-17,-15,-25,-14
-20,-24,-4,22,-8,-14,-1,-12,-17,-15,-25,-14
-19,-24,-5,22,-7,-14,-1,-12,-16,-15,-25,-14
-19,-24,-6,22,-7,-15,-1,-12,-16,-16,-25,-14
-19,-24,-6,22,-7,-16,0,-13,-16,-16,-25,-14
-20,-25,-5,22,-8,-16,0,-12,-16,-15,-25,-14
-20,-25,-5,23,-8,-16,0,-12,-15,-15,-25,-14
-21,-25,-4,23,-9,-15,0,-11,-15,-14,-25,-14
-21,-25,-4,23,-9,-15,1,-10,-14,-14,-25,-14
-21,-25,-3,23,-9,-14,1,-9,-13,-14,-25,-14
-22,-25,-3,23,-9,-14,1,-9,-13,-14,-25,-14
-21,-25,-4,23,-8,-15,0,-10,-13,-14,-25,-14
-19,-25,-6,22,-6,-15,0,-11,-14,-14,-25,-14
-18,-24,-6,21,-5,-15,0,-11,-14,-14,-25,-14
-18,-24,-5,21,-6,-15,0,-10,-13,-13,-24,-14
-20,-24,-3,22,-8,-13,0,-9,-11,-12,-23,-13
-22,-23,-1,22,-10,-12,1,-7,-10,-11,-22,-12
-22,-23,0,22,-10,-12,0,-6,-9,-10,-22,-12
-21,-23,-1,22,-10,-12,0,-5,-9,-10,-21,-12
-21,-23,-1,22,-9,-12,0,-5,-8,-9,-21,-11
-20,-23,-2,22,-9,-12,-1,-5,-7,-9,-20,-11
-20,-22,-1,21,-9,-12,-1,-5,-6,-8,-20,-11
-20,-22,-1,21,-10,-12,-1,-4,-5,-8,-20,-11
-20,-21,-1,20,-9,-12,-1,-3,-4,-7,-20,-11
-19,-21,0,20,-9,-11,-1,-2,-3,-6,-19,-10
-20,-20,0,20,-10,-10,-1,-1,-2,-5,-18,-9
-20,-18,1,19,-10,-8,-1,0,0,-3,-17,-8
-18,-17,1,18,-10,-8,-1,1,1,-2,-16,-7
-17,-16,0,17,-9,-8,-2,3,3,0,-15,-6
-16,-15,1,16,-9,-7,-2,5,5,1,-14,-5
-15,-14,1,15,-8,-7,-3,6,7,2,-13,-4
-13,-14,0,13,-7,-7,-3,7,9,2,-13,-4
-10,-13,-1,11,-4,-7,-4,8,10,2,-13,-4
-8,-12,-3,10,-2,-7,-4,10,12,3,-12,-4
-8,-11,-2,9,-2,-7,-4,11,13,5,-11,-3
-8,-10,-2,9,-3,-6,-4,12,15,8,-9,-2
-9,-9,0,9,-4,-5,-4,14,17,11,-6,0
-10,-9,1,9,-5,-4,-4,18,20,14,-4,1
-10,-8,1,9,-6,-4,-4,20,22,15,-3,2
-11,-8,2,10,-6,-3,-5,22,24,17,-2,3
-11,-8,3,10,-7,-3,-5,24,26,18,-1,4
-11,-7,3,9,-7,-2,-5,25,28,19,0,5
-8,-6,2,7,-5,-2,-6,26,29,20,1,5
-5,-4,0,5,-2,-2,-7,27,30,22,2,6
-3,-3,0,3,-1,-2,-7,29,32,23,3,6
-3,-3,0,3,-1,-1,-7,31,34,25,5,7
-3,-2,0,3,-2,-1,-7,32,36,27,6,8
-3,-1,1,2,-2,-1,-7,33,37,28,7,9
-3,0,1,1,-2,0,-7,34,38,30,8,10
-2,0,2,1,-2,1,-8,36,39,31,10,11
-2,1,2,1,-2,1,-8,37,40,32,11,12
-2,1,3,1,-2,2,-8,38,42,34,12,13
-2,2,4,0,-3,3,-8,39,43,35,13,14
-2,2,4,0,-3,3,-9,39,44,36,14,14
-1,2,3,0,-2,3,-9,40,44,37,14,15
0,3,3,-1,-1,3,-10,40,45,37,15,15
2,4,2,-3,0,3,-10,40,45,38,16,16
3,4,2,-3,0,3,-10,40,45,38,16,16
2,5,3,-3,0,3,-9,40,45,38,17,17
2,5,3,-3,0,4,-9,40,46,39,17,17
2,5,3,-3,0,4,-9,40,45,39,17,18
2,5,3,-3,0,4,-9,40,45,39,17,18
2,5,3,-4,0,4,-10,40,45,39,18,18
4,5,1,-5,2,3,-10,39,44,38,17,18
6,5,-1,-6,3,2,-11,37,42,37,16,17
7,5,-1,-6,4,2,-11,36,41,36,16,17
7,5,-1,-7,4,2,-12,34,39,35,15,17
7,6,0,-7,3,3,-12,32,38,34,15,17
7,7,1,-7,3,4,-12,30,36,34,15,16
6,8,1,-7,2,4,-11,29,35,33,14,16
4,8,2,-6,1,4,-11,28,34,32,13,16
2,7,3,-4,-1,4,-10,27,33,31,12,16
1,6,4,-3,-2,4,-10,25,31,29,11,15
1,5,3,-2,-1,4,-9,23,28,27,10,14
1,4,3,-2,-1,3,-9,20,26,25,9,14
0,3,3,-1,-1,3,-9,18,23,24,8,13
1,3,2,-2,0,2,-10,15,20,23,7,12
2,2,0,-2,1,0,-11,12,18,21,5,11
3,1,-1,-1,2,-1,-11,10,16,18,3,9
3,0,-3,-1,3,-2,-11,9,14,16,1,8
2,-1,-3,0,2,-2,-11,8,12,14,0,7
-1,-2,-1,2,0,-2,-10,7,11,13,0,7
-4,-3,0,3,-2,-2,-10,6,10,12,-1,7
-5,-4,0,4,-2,-3,-9,4,8,11,-1,6
-6,-5,0,5,-3,-3,-9,3,6,10,-2,5
-6,-5,0,6,-3,-3,-9,1,4,8,-3,4
-7,-6,0,6,-4,-3,-9,0,3,7,-5,3
-7,-7,0,7,-4,-3,-9,0,2,5,-6,2
-8,-8,0,8,-4,-4,-8,0,1,4,-7,1
-9,-9,0,9,-4,-4,-8,-1,0,3,-8,1
-9,-10,-1,10,-4,-5,-8,-1,-1,3,-8,0
-8,-10,-2,10,-2,-6,-8,-2,-2,2,-9,0
-7,-11,-4,10,-1,-7,-7,-3,-3,1,-10,-1
-8,-12,-5,10,-1,-8,-6,-3,-3,0,-10,-1
-9,-12,-4,11,-2,-8,-5,-4,-4,0,-11,-1
-10,-13,-4,11,-3,-9,-5,-4,-4,-1,-11,-1
-10,-13,-4,12,-3,-9,-5,-5,-5,-1,-12,-1
-10,-14,-4,12,-3,-9,-5,-5,-6,-2,-12,-1
-9,-14,-4,12,-2,-9,-5,-5,-6,-3,-13,-1
-8,-13,-5,12,-2,-9,-4,-5,-6,-3,-13,-1
-9,-13,-4,12,-2,-9,-3,-4,-6,-2,-12,-1
-10,-13,-4,12,-3,-8,-2,-4,-6,-1,-12,-1
-10,-13,-3,11,-3,-8,-2,-3,-5,-1,-11,-1
-10,-12,-3,10,-3,-8,-1,-2,-4,-1,-11,-1
-10,-12,-2,10,-4,-7,0,-1,-3,0,-11,0
-11,-11,0,10,-5,-6,0,0,-3,0,-10,0
-10,-10,0,10,-5,-5,0,0,-2,1,-9,1
-9,-9,1,9,-5,-4,1,0,-1,1,-8,1
-8,-9,0,8,-4,-4,0,0,-1,1,-8,1
-6,-8,-2,7,-2,-4,0,0,-2,0,-9,1
-5,-7,-2,6,-1,-4,0,0,-2,0,-9,1
-5,-6,-2,5,-2,-4,1,0,-1,1,-8,1
-4,-5,-2,4,-2,-3,1,0,0,1,-8,2
-3,-5,-1,4,-2,-3,1,0,0,1,-8,2
-5,-5,0,5,-3,-2,2,0,0,1,-8,2
-6,-5,1,6,-4,-1,2,0,0,1,-8,2
-6,-5,1,6,-4,-1,3,0,0,0,-9,2
-7,-5,2,7,-5,-1,4,0,0,0,-9,2
-9,-5,3,7,-6,-1,4,0,0,0,-9,2
-9,-6,2,8,-6,-1,4,0,0,0,-9,1
-8,-6,1,7,-5,-2,4,-1,-1,-1,-10,1
-7,-7,0,7,-4,-3,4,-2,-2,-2,-11,0
-8,-7,1,8,-5,-2,5,-2,-2,-2,-11,0
-8,-7,2,8,-5,-2,6,-2,-3,-3,-11,0
-6,-7,0,7,-3,-3,6,-3,-3,-4,-12,0
-3,-7,-3,5,0,-4,6,-3,-4,-5,-12,-1
-2,-7,-4,5,0,-5,5,-3,-4,-5,-12,-2
-4,-7,-3,5,-1,-4,6,-2,-3,-4,-12,-1
-6,-6,0,6,-3,-2,7,-2,-2,-3,-11,0
-9,-6,3,7,-6,-1,8,-1,-1,-2,-10,0
-11,-6,5,8,-8,0,9,-1,0,-2,-10,1
-11,-6,5,9,-9,0,9,-1,0,-2,-10,1
-10,-6,4,9,-7,-1,8,-1,-1,-3,-10,0
-9,-6,2,8,-6,-2,8,-2,-2,-3,-11,0
-8,-6,2,8,-5,-2,8,-3,-2,-3,-11,0
-9,-7,2,9,-6,-2,7,-3,-3,-3,-11,0
-8,-7,1,8,-5,-2,7,-3,-4,-3,-11,0
-7,-7,0,7,-4,-3,6,-3,-4,-4,-12,-1
-6,-7,0,6,-3,-4,5,-4,-5,-5,-12,-2
-7,-7,0,7,-3,-4,5,-5,-5,-6,-13,-2
-8,-7,1,7,-4,-3,5,-5,-5,-6,-13,-2
-8,-7,1,8,-4,-3,5,-6,-5,-6,-14,-2
-9,-8,2,9,-5,-2,5,-6,-6,-6,-14,-2
-10,-8,2,9,-6,-2,5,-7,-6,-7,-14,-3
-11,-8,2,10,-6,-2,5,-7,-7,-7,-14,-3
-11,-9,2,10,-7,-3,4,-8,-7,-8,-15,-3
-11,-9,1,10,-6,-4,4,-8,-8,-8,-15,-4
-11,-10,0,10,-6,-5,4,-9,-8,-9,-16,-4
-10,-10,-1,10,-5,-6,3,-9,-9,-10,-17,-5
-9,-11,-2,10,-4,-6,3,-10,-10,-10,-17,-5
-8,-11,-2,10,-3,-6,3,-10,-10,-11,-17,-6
-8,-11,-2,10,-3,-6,3,-10,-11,-11,-17,-6
-10,-11,0,10,-4,-6,3,-10,-11,-11,-17,-5
-11,-11,0,10,-5,-5,3,-9,-11,-11,-17,-5
-10,-11,0,10,-5,-5,3,-10,-11,-11,-17,-5
-10,-11,0,9,-5,-5,4,-10,-11,-11,-17,-5
-9,-10,0,10,-4,-5,4,-11,-11,-11,-17,-5
-10,-10,0,10,-5,-4,5,-11,-10,-11,-17,-5
-12,-10,1,11,-6,-4,5,-10,-10,-11,-17,-5
-12,-11,1,11,-6,-4,5,-10,-10,-11,-17,-5
-10,-11,0,11,-5,-5,5,-11,-11,-12,-18,-6
-8,-11,-2,10,-3,-7,4,-12,-12,-13,-19,-6
-6,-11,-4,9,-1,-8,3,-14,-13,-14,-20,-7
-6,-11,-5,9,-1,-8,3,-14,-14,-14,-20,-7
-7,-12,-4,10,-2,-8,3,-14,-13,-14,-19,-7
-9,-12,-2,11,-4,-7,4,-13,-13,-13,-19,-7
-10,-12,-1,11,-5,-6,5,-13,-13,-13,-19,-7
-11,-12,0,12,-6,-6,5,-12,-13,-13,-19,-7
-11,-12,-1,11,-5,-6,5,-13,-13,-13,-19,-7
-9,-12,-3,10,-3,-8,4,-14,-13,-14,-19,-7
-7,-12,-6,10,-1,-9,3,-14,-14,-14,-20,-8
-8,-13,-5,11,-2,-8,3,-14,-13,-14,-19,-7
-10,-13,-4,11,-4,-7,4,-13,-12,-14,-19,-7
-10,-13,-3,12,-5,-7,4,-13,-12,-14,-19,-7
-10,-13,-2,11,-5,-7,3,-13,-13,-14,-19,-7
-10,-13,-1,11,-5,-7,3,-13,-13,-14,-18,-7
-11,-12,0,11,-5,-6,4,-13,-13,-13,-17,-6
-12,-12,0,11,-5,-6,4,-12,-12,-13,-17,-6
-11,-11,0,11,-5,-6,4,-12,-12,-12,-17,-6
-10,-11,-1,10,-4,-6,4,-12,-12,-12,-17,-5
-9,-10,-1,9,-4,-5,4,-12,-12,-12,-16,-5
-9,-10,0,9,-4,-5,5,-11,-11,-12,-16,-5
-9,-10,0,10,-4,-5,5,-11,-11,-12,-16,-5
-9,-10,0,10,-4,-5,6,-10,-10,-12,-16,-6
-8,-10,-1,9,-3,-5,8,-9,-9,-12,-17,-7
-7,-10,-2,8,-2,-6,10,-7,-8,-12,-18,-8
-7,-10,-3,8,-1,-6,12,-3,-6,-12,-18,-9
-8,-10,-3,9,-2,-6,15,3,-1,-10,-17,-8
-8,-10,-1,9,-3,-5,18,12,6,-5,-15,-7
-8,-9,0,9,-4,-4,22,23,16,0,-12,-6
-6,-7,0,7,-4,-2,26,35,27,7,-6,-2
-2,-2,1,2,-2,0,26,44,38,18,2,4
4,4,0,-4,1,2,24,50,48,30,13,12
12,11,0,-11,5,6,21,54,57,43,25,22
19,19,0,-19,9,9,17,57,66,58,39,34
28,26,-2,-27,15,12,12,57,73,72,52,45
39,33,-5,-36,21,14,3,55,76,85,65,57
48,41,-6,-44,27,17,-5,49,75,96,77,68
57,49,-7,-52,31,21,-15,39,69,102,87,78
64,56,-8,-60,35,24,-24,22,55,102,92,84
68,62,-5,-65,35,29,-31,0,36,94,90,87
66,67,1,-66,31,34,-35,-28,11,79,83,85
59,69,9,-64,24,39,-35,-55,-16,58,70,79
48,65,16,-56,16,40,-32,-79,-41,34,52,68
36,53,18,-45,9,36,-29,-98,-65,9,31,52
25,40,15,-32,5,28,-27,-118,-90,-17,8,33
15,27,13,-21,1,20,-26,-136,-115,-44,-14,15
4,14,11,-9,-3,13,-25,-150,-136,-68,-33,0
-4,3,8,0,-7,6,-24,-156,-149,-85,-48,-13
-11,-4,7,7,-9,2,-22,-154,-153,-93,-57,-21
-16,-9,7,12,-12,-1,-19,-146,-148,-95,-61,-26
-18,-12,6,15,-13,-2,-17,-133,-139,-92,-62,-28
-19,-13,6,16,-13,-3,-16,-117,-125,-86,-60,-28
-20,-14,5,17,-13,-4,-14,-99,-110,-78,-57,-28
-20,-14,5,17,-13,-4,-12,-82,-95,-70,-52,-27
-19,-14,5,16,-12,-4,-10,-65,-79,-61,-47,-25
-17,-13,5,15,-11,-3,-9,-51,-65,-52,-42,-23
-15,-12,4,13,-10,-3,-7,-38,-52,-44,-37,-20
-14,-11,3,12,-9,-3,-5,-30,-43,-37,-32,-18
-12,-10,2,11,-8,-4,-3,-24,-36,-33,-30,-16
-12,-10,1,11,-7,-4,-1,-20,-32,-30,-28,-15
-12,-10,1,11,-7,-4,0,-17,-28,-28,-27,-15
-12,-10,0,11,-6,-5,2,-15,-25,-27,-27,-15
-11,-11,-1,11,-5,-6,3,-13,-23,-27,-27,-15
-11,-12,-2,12,-5,-7,4,-11,-21,-26,-26,-15
-12,-13,-1,13,-6,-7,5,-11,-20,-25,-25,-15
-13,-14,-1,14,-7,-7,5,-12,-20,-24,-24,-15
-13,-14,-1,13,-6,-7,6,-12,-19,-24,-24,-15
-12,-13,-1,13,-6,-7,6,-13,-19,-24,-24,-15
-13,-13,0,13,-7,-6,6,-12,-18,-23,-24,-15
-15,-14,1,14,-9,-6,7,-12,-18,-23,-24,-15
-16,-14,2,15,-9,-6,7,-12,-17,-23,-24,-15
-16,-15,1,16,-9,-7,8,-11,-17,-23,-24,-15
-16,-15,1,16,-9,-7,8,-11,-17,-23,-24,-15
-15,-16,0,16,-8,-8,8,-12,-18,-23,-24,-15
-13,-16,-2,15,-6,-9,7,-13,-18,-23,-24,-15
-13,-17,-4,15,-5,-10,7,-13,-18,-24,-24,-16
-14,-17,-3,15,-6,-10,8,-13,-18,-24,-24,-16
-14,-17,-3,15,-6,-10,8,-12,-18,-24,-24,-16
-14,-17,-4,15,-5,-11,7,-11,-18,-24,-25,-17
-14,-17,-4,15,-5,-11,7,-11,-18,-24,-25,-17
-15,-18,-3,16,-6,-11,8,-10,-17,-24,-25,-17
-17,-18,-1,18,-8,-10,9,-9,-16,-24,-24,-16
-17,-18,-1,18,-8,-10,10,-8,-15,-23,-24,-16
-17,-18,-1,18,-8,-10,10,-8,-15,-23,-24,-15
-16,-18,-2,17,-7,-10,11,-8,-14,-22,-24,-15
-16,-18,-2,17,-7,-10,11,-8,-14,-22,-24,-16
-15,-18,-3,17,-6,-10,11,-8,-14,-23,-24,-16
-14,-18,-4,16,-5,-11,11,-8,-14,-23,-25,-17
-13,-18,-5,15,-4,-11,11,-7,-13,-22,-24,-17
-14,-18,-3,16,-5,-10,12,-6,-12,-21,-23,-16
-15,-18,-2,16,-7,-10,12,-6,-11,-20,-22,-16
-15,-17,-1,16,-8,-9,12,-5,-10,-19,-22,-15
-15,-17,-1,16,-8,-9,12,-4,-9,-19,-21,-15
-14,-17,-2,16,-7,-9,12,-3,-9,-19,-22,-16
-14,-17,-2,15,-6,-9,11,-3,-8,-18,-22,-16
-14,-16,-2,15,-6,-9,11,-1,-7,-17,-21,-15
-14,-16,-1,15,-7,-8,12,0,-6,-16,-20,-14
-14,-16,-1,15,-7,-8,12,0,-5,-16,-20,-14
-14,-15,-1,15,-7,-8,11,0,-5,-15,-19,-14
-13,-15,-1,14,-6,-8,11,1,-4,-15,-19,-13
-11,-14,-2,13,-5,-8,10,2,-4,-14,-19,-13
-9,-14,-3,11,-3,-8,9,3,-3,-14,-18,-13
-8,-13,-4,11,-2,-8,8,4,-2,-13,-18,-12
-9,-13,-3,11,-3,-8,8,6,-1,-12,-17,-11
-11,-13,-1,12,-5,-7,7,7,0,-11,-15,-10
-12,-13,0,12,-6,-6,7,9,2,-9,-14,-10
-12,-12,0,12,-6,-6,6,11,4,-8,-13,-9
-11,-12,0,12,-5,-6,6,12,5,-8,-13,-9
-11,-12,0,11,-5,-6,6,13,6,-7,-12,-9
-10,-11,0,11,-4,-6,6,15,7,-6,-12,-8
-9,-11,0,10,-4,-5,6,16,8,-5,-11,-7
-9,-10,0,10,-5,-5,6,18,10,-3,-10,-6
-9,-9,0,9,-5,-5,6,19,11,-2,-9,-6
-7,-8,-1,7,-4,-5,5,21,13,-1,-9,-5
-7,-7,0,6,-4,-4,5,22,15,0,-7,-4
-7,-6,0,6,-4,-3,5,24,17,1,-6,-3
-6,-5,1,5,-4,-2,5,25,18,3,-5,-3
-6,-4,1,5,-4,-1,5,26,19,4,-4,-2
-5,-3,2,4,-4,0,5,27,21,5,-3,-1
-4,-2,2,3,-4,0,4,28,22,6,-1,0
-3,-1,1,2,-3,0,4,29,23,7,0,1
-2,-1,0,1,-1,-1,3,30,24,8,0,1
0,-1,-1,0,0,-1,2,30,25,9,1,1
1,0,-1,-1,0,-1,1,30,25,9,1,1
1,0,0,-1,0,0,0,30,25,9,2,2
0,0,0,-1,0,0,0,30,26,10,2,2
0,1,1,-1,-1,1,0,30,26,11,3,3
0,2,2,-1,-1,2,-1,30,27,12,4,3
0,2,2,-2,-1,2,-1,30,27,13,5,4
0,3,2,-2,-1,3,-1,31,28,14,6,4
0,4,4,-2,-3,4,-1,33,30,16,7,5
0,5,6,-3,-3,5,-1,34,32,17,9,6
0,6,6,-4,-3,6,-1,35,33,18,10,7
1,7,6,-4,-3,6,-1,35,33,19,11,8
1,7,5,-4,-3,6,-1,35,33,19,11,8
1,7,5,-4,-2,6,-1,35,33,19,11,8
2,7,5,-4,-2,6,-1,34,33,19,11,8
3,7,4,-5,-1,5,-2,34,33,19,11,8
4,7,2,-5,1,4,-3,34,32,19,11,8
6,7,0,-6,2,4,-4,34,32,19,11,8
6,7,0,-7,3,4,-4,34,32,19,11,8
6,7,1,-7,2,4,-4,34,33,20,11,8
5,7,2,-7,1,5,-4,34,33,20,11,9
6,7,1,-7,1,5,-4,33,32,20,12,9
5,8,2,-7,1,5,-4,32,31,21,13,9
4,8,4,-6,0,6,-3,31,31,22,14,10
4,8,4,-6,0,6,-3,31,31,22,14,11
4,8,3,-6,0,6,-3,32,31,22,14,11
5,8,3,-6,0,6,-3,33,31,22,14,11
5,8,2,-7,1,5,-3,32,31,21,14,11
6,8,1,-7,1,5,-3,32,30,21,13,11
6,8,2,-6,0,5,-3,31,29,21,13,11
5,7,2,-6,0,5,-2,31,29,20,13,11
4,7,3,-5,0,5,-1,30,28,20,13,11
2,6,4,-4,-1,5,0,30,27,19,13,11
1,6,4,-4,-2,5,1,28,26,19,12,10
1,5,3,-4,-1,5,2,26,24,18,11,10
1,5,3,-3,-1,5,2,24,22,16,10,9
0,4,3,-3,-2,5,2,23,21,15,10,9
0,4,3,-2,-2,4,2,23,20,14,9,8
1,3,2,-2,-1,2,2,22,19,13,7,6
1,3,1,-2,0,2,3,21,17,12,6,5
0,2,2,-1,-2,2,4,21,17,11,6,5
-2,2,4,0,-3,3,5,20,16,11,5,4
-4,1,5,1,-4,3,5,20,15,10,5,4
-3,0,4,1,-4,2,5,18,13,8,4,3
-2,0,2,1,-2,1,5,16,12,6,2,2
-2,-1,1,1,-1,0,5,15,10,5,1,1
-1,-2,0,1,0,-1,5,14,9,4,0,0
0,-2,-1,1,1,-2,5,13,8,2,-1,-1
0,-3,-2,1,1,-2,5,12,7,1,-2,-2
0,-3,-2,2,1,-3,6,12,6,0,-2,-2
-1,-4,-3,3,0,-3,6,11,5,0,-3,-2
-3,-5,-2,4,0,-4,6,10,4,0,-3,-2
-4,-6,-1,5,-1,-4,6,9,3,-1,-3,-2
-5,-6,0,5,-2,-3,7,8,3,-1,-3,-2
-6,-6,0,6,-3,-3,7,8,2,-1,-4,-3
-6,-7,0,7,-3,-3,6,7,2,-2,-5,-3
-6,-7,0,7,-3,-3,6,6,1,-3,-5,-4
-7,-7,0,7,-3,-3,6,5,0,-3,-6,-4
-7,-7,0,7,-3,-4,6,5,0,-4,-6,-5
-6,-8,-1,7,-2,-4,6,5,-1,-5,-7,-6
-6,-8,-2,7,-2,-5,5,4,-2,-6,-7,-7
-7,-8,-1,7,-3,-5,5,4,-2,-6,-8,-7
-8,-9,-1,8,-3,-5,5,3,-2,-6,-8,-7
-8,-9,-1,8,-3,-5,5,2,-3,-6,-8,-7
-8,-9,-1,8,-3,-5,4,2,-4,-7,-8,-7
-7,-9,-1,8,-2,-5,4,2,-4,-7,-8,-7
-7,-9,-1,8,-3,-5,4,3,-4,-6,-8,-7
-7,-9,-1,8,-3,-5,4,2,-4,-6,-8,-7
-6,-9,-2,8,-2,-5,3,2,-5,-6,-8,-7
-4,-9,-4,7,0,-6,2,1,-5,-7,-9,-8
-3,-9,-5,6,1,-7,1,1,-6,-7,-9,-8
-3,-9,-4,6,0,-6,1,2,-5,-6,-9,-7
-5,-9,-3,7,-1,-6,1,2,-5,-6,-9,-7
-5,-9,-3,7,-1,-5,1,2,-4,-6,-9,-7
-6,-8,-2,7,-2,-4,1,2,-4,-6,-9,-7
-6,-7,0,6,-3,-3,2,2,-3,-5,-9,-7
-6,-6,0,6,-2,-3,2,1,-3,-5,-8,-7
-5,-5,0,5,-2,-2,1,0,-3,-4,-7,-6
-5,-5,0,5,-3,-2,1,1,-3,-3,-6,-5
-5,-4,1,4,-3,-1,1,2,-2,-2,-5,-5
-5,-3,2,4,-3,-1,0,3,-2,-2,-5,-5
-5,-2,2,3,-3,0,0,3,-2,-2,-5,-5
-4,-1,2,2,-2,0,0,2,-2,-2,-6,-5
-4,-1,2,2,-2,0,0,3,-2,-1,-6,-5
-4,0,3,1,-3,1,0,3,-1,-1,-5,-4
-4,0,4,1,-4,2,0,4,-1,0,-4,-3
-4,1,5,1,-4,3,0,4,-1,0,-4,-3
-4,1,6,1,-5,3,1,4,-1,0,-4,-2
-5,1,7,1,-6,4,2,4,0,0,-4,-2
-6,1,7,1,-6,4,2,3,0,0,-4,-2
-6,1,7,1,-6,4,2,3,0,0,-5,-3
-6,1,7,2,-6,3,2,4,0,0,-5,-3
-7,1,7,3,-7,3,3,6,1,0,-5,-3
-7,0,7,3,-7,3,5,9,3,0,-5,-4
-7,0,6,3,-7,3,7,14,7,2,-4,-4
-6,0,6,2,-6,3,9,23,16,8,-2,-3
-4,2,6,0,-5,3,11,35,29,16,3,0
-2,5,7,-2,-5,5,14,49,45,29,11,5
0,10,9,-6,-4,9,14,62,62,45,23,13
5,18,12,-12,-3,15,12,70,77,63,38,25
13,26,13,-20,0,20,8,75,91,81,54,37
23,35,11,-29,6,23,3,78,102,99,70,50
34,42,9,-38,12,26,-3,79,110,116,85,62
44,49,6,-47,18,28,-11,78,114,130,99,74
53,56,4,-55,24,29,-19,71,112,139,110,84
60,61,2,-61,29,31,-28,57,98,140,116,92
65,65,0,-66,32,32,-36,34,73,130,114,95
66,68,2,-67,32,34,-42,3,38,110,106,94
63,70,7,-67,28,38,-46,-33,-2,84,93,90
57,73,15,-66,21,44,-49,-68,-40,56,77,84
49,73,24,-62,13,48,-49,-100,-77,27,59,76
37,68,31,-53,3,49,-48,-132,-113,-5,37,62
23,55,33,-40,-4,44,-46,-160,-147,-39,10,43
9,38,29,-24,-9,33,-41,-179,-175,-71,-17,21
-1,20,22,-10,-11,21,-35,-185,-190,-94,-39,2
-7,6,14,0,-11,10,-29,-178,-190,-105,-53,-12
-11,-3,8,7,-10,2,-24,-162,-180,-107,-60,-21
-12,-9,3,11,-8,-2,-21,-141,-163,-102,-61,-25
-11,-11,0,11,-6,-5,-19,-118,-142,-93,-58,-26
-9,-11,-2,10,-4,-6,-18,-94,-120,-81,-53,-25
-8,-10,-2,9,-4,-6,-17,-71,-98,-68,-47,-24
-8,-9,0,9,-4,-5,-15,-50,-77,-55,-41,-21
-8,-8,1,8,-5,-4,-13,-32,-59,-43,-35,-19
-7,-8,0,7,-3,-4,-10,-19,-45,-35,-30,-18
-4,-8,-4,6,0,-6,-7,-11,-36,-29,-27,-17
-2,-8,-6,5,1,-7,-4,-7,-30,-26,-25,-16
-2,-9,-7,6,1,-8,-2,-5,-26,-23,-24,-16
-3,-11,-8,7,2,-9,-1,-3,-23,-22,-23,-16
-3,-12,-9,7,2,-10,0,-2,-21,-21,-23,-16
-4,-13,-9,8,2,-11,0,-2,-20,-21,-23,-17
-5,-14,-8,9,2,-11,0,-2,-19,-20,-22,-17
-7,-15,-7,11,0,-11,1,-2,-18,-19,-22,-17
-8,-15,-6,12,0,-11,3,-2,-17,-18,-21,-17
-9,-16,-6,12,-1,-11,3,-2,-16,-18,-21,-16
-10,-16,-6,13,-2,-11,4,-3,-16,-18,-20,-16
-10,-16,-6,13,-2,-11,4,-3,-15,-18,-20,-16
-10,-16,-6,13,-2,-11,4,-3,-15,-18,-20,-16
-11,-17,-6,14,-2,-11,4,-3,-14,-17,-20,-16
-10,-17,-6,13,-2,-11,4,-2,-14,-17,-20,-16
-10,-16,-6,13,-2,-11,4,-2,-14,-17,-20,-16
-9,-16,-7,13,-1,-11,5,-2,-14,-17,-20,-16
-9,-16,-7,13,-1,-12,5,-2,-14,-17,-20,-16
-9,-16,-7,13,-1,-12,5,-2,-14,-17,-20,-16
-10,-16,-7,13,-1,-12,5,-2,-13,-17,-20,-16
-10,-16,-6,14,-2,-11,5,-2,-13,-17,-20,-16
-10,-16,-6,13,-2,-11,5,-2,-12,-17,-20,-16
-10,-17,-7,13,-1,-12,5,-2,-12,-17,-20,-16
-10,-17,-7,13,-1,-12,5,-1,-12,-17,-20,-16
-10,-17,-6,13,-1,-12,5,-1,-11,-17,-20,-16
-11,-17,-6,13,-2,-11,6,0,-11,-16,-20,-15
-11,-17,-5,14,-3,-11,7,0,-11,-16,-20,-15
-11,-17,-5,14,-3,-11,7,0,-10,-16,-20,-14
-10,-16,-6,13,-2,-11,7,0,-10,-16,-20,-14
-9,-16,-7,12,-1,-11,7,-1,-10,-16,-20,-15
-8,-15,-7,12,0,-11,7,-1,-10,-16,-20,-15
-8,-15,-6,12,-1,-10,7,-1,-10,-16,-19,-14
-9,-14,-5,12,-2,-9,8,0,-9,-15,-18,-13
-11,-14,-3,13,-4,-9,9,1,-8,-15,-18,-13
-12,-14,-2,13,-5,-8,9,2,-7,-14,-17,-12
-13,-14,-1,14,-6,-8,10,3,-6,-13,-17,-12
-13,-14,-1,13,-6,-7,10,3,-5,-12,-16,-12
-11,-14,-3,12,-4,-8,9,3,-5,-12,-16,-12
-8,-14,-5,11,-2,-9,8,3,-5,-12,-17,-13
-7,-13,-5,10,-1,-8,7,4,-5,-12,-17,-13
-7,-12,-5,10,-1,-8,7,4,-4,-11,-16,-12
-7,-11,-4,9,-1,-7,6,5,-3,-10,-15,-12
-7,-10,-4,8,-1,-7,6,5,-2,-9,-15,-11
-8,-9,-2,9,-3,-6,6,6,-1,-8,-14,-10
-9,-9,-1,9,-4,-5,5,7,0,-8,-13,-10
-8,-9,-1,8,-3,-5,5,8,1,-7,-13,-9
-7,-9,-2,7,-2,-5,4,9,2,-6,-12,-9
-7,-9,-2,8,-2,-5,4,11,4,-5,-12,-8
-8,-9,-1,8,-3,-4,5,12,5,-4,-11,-8
-8,-9,0,9,-4,-4,5,13,7,-3,-10,-8
-8,-9,0,8,-4,-4,5,14,8,-2,-10,-8
-8,-8,1,8,-4,-3,5,15,9,-1,-9,-8
-10,-7,3,8,-6,-2,5,16,11,0,-8,-7
-10,-7,4,8,-7,-1,5,17,13,1,-7,-6
-9,-6,4,7,-7,0,4,18,14,2,-6,-6
-9,-5,4,7,-7,0,4,20,16,4,-5,-5
-8,-4,4,6,-6,0,3,21,18,5,-4,-4
-6,-3,3,5,-5,0,3,23,20,6,-3,-4
-5,-2,3,4,-4,1,2,25,22,8,-2,-3
-3,-1,2,2,-3,1,1,27,24,9,-1,-2
-2,0,2,1,-2,1,1,29,26,11,0,-1
-2,0,3,1,-3,1,1,31,29,13,1,0
-2,1,3,0,-3,2,1,33,31,15,3,1
-2,1,3,0,-3,3,0,35,33,17,5,2
-1,1,3,0,-2,3,0,36,35,18,6,3
0,1,2,0,-1,2,0,37,36,20,7,4
0,2,1,0,-1,2,-1,38,37,21,8,5
0,2,1,-1,-1,2,-1,40,38,23,10,7
2,2,0,-2,0,2,-2,41,39,24,11,8
4,2,-1,-3,2,1,-3,42,40,25,11,8
5,2,-2,-4,3,0,-4,43,41,26,12,9
6,3,-3,-5,4,0,-4,44,42,27,13,9
8,3,-4,-6,5,0,-4,44,43,27,14,9
9,4,-5,-6,7,-1,-4,45,43,28,14,9
8,4,-4,-6,6,0,-4,45,44,28,14,10
8,4,-4,-6,6,0,-4,46,45,29,15,10
9,4,-5,-7,7,0,-5,46,45,29,15,10
11,4,-6,-8,8,0,-5,46,45,30,15,10
12,5,-7,-9,9,-1,-5,47,45,30,16,11
11,5,-6,-8,9,0,-5,47,46,31,17,12
11,5,-5,-8,8,0,-5,48,46,32,18,13
11,5,-5,-8,8,0,-6,48,46,32,18,13
11,5,-5,-8,9,0,-6,48,46,32,18,13
12,5,-6,-9,10,0,-7,47,45,32,18,13
13,5,-7,-9,10,0,-7,46,45,31,18,13
12,5,-6,-9,9,0,-7,45,44,31,18,13
12,5,-5,-9,9,0,-7,44,43,30,17,13
12,5,-5,-9,9,0,-7,42,41,29,17,12
12,6,-5,-9,8,0,-6,41,40,28,16,12
12,6,-5,-9,8,0,-6,39,38,27,16,11
12,6,-6,-9,9,0,-6,38,36,26,15,10
11,5,-6,-9,9,0,-6,36,34,24,14,10
10,5,-6,-8,8,0,-6,34,32,23,13,9
9,4,-5,-7,7,0,-6,32,30,22,12,9
9,3,-5,-6,7,-1,-5,30,28,21,11,8
8,2,-5,-5,7,-1,-5,29,26,19,10,7
7,1,-5,-4,6,-1,-5,27,24,18,9,6
6,1,-5,-4,6,-1,-5,25,21,16,7,5
6,0,-5,-3,5,-2,-4,22,19,14,6,4
5,0,-6,-3,5,-3,-3,20,16,12,4,3
5,-1,-6,-2,5,-4,-3,18,13,9,3,2
3,-2,-6,-1,4,-4,-2,17,11,7,1,1
2,-3,-6,0,4,-4,-2,15,10,6,0,0
0,-4,-6,1,3,-4,-1,14,9,5,-1,-1
-1,-5,-5,3,1,-4,0,12,7,4,-2,-1
-3,-6,-4,4,0,-4,1,11,6,2,-3,-2
-4,-6,-3,4,0,-5,2,10,4,1,-4,-3
-4,-7,-3,5,0,-5,2,9,3,0,-5,-4
-3,-7,-4,5,0,-6,2,7,1,-1,-6,-5
-2,-8,-6,5,2,-7,2,6,0,-2,-7,-6
-1,-8,-7,5,2,-7,2,6,-1,-3,-8,-7
-1,-9,-7,5,3,-8,2,5,-1,-4,-8,-8
-3,-9,-7,6,2,-8,3,5,-1,-4,-8,-8
-4,-9,-5,7,0,-7,4,5,-1,-4,-8,-8
-6,-9,-3,7,-2,-6,5,5,-1,-4,-7,-8
-8,-9,-1,7,-3,-5,5,6,-2,-4,-7,-8
-7,-8,0,7,-4,-4,6,5,-2,-4,-7,-8
-6,-8,-1,6,-3,-4,6,4,-2,-4,-7,-8
-4,-7,-2,6,-1,-4,6,3,-3,-5,-8,-8
-3,-7,-3,6,0,-4,5,2,-3,-5,-8,-9
-2,-7,-5,5,1,-5,5,1,-4,-6,-9,-9
-1,-7,-6,4,2,-6,4,0,-6,-7,-10,-10
-2,-7,-5,4,2,-6,4,-1,-7,-8,-11,-10
-3,-7,-3,5,0,-6,4,-1,-7,-8,-11,-10
-5,-7,-2,5,-2,-5,3,-2,-7,-8,-11,-10
-6,-7,0,6,-4,-4,3,-2,-6,-8,-11,-10
-8,-7,2,7,-6,-2,3,-2,-6,-7,-10,-9
-8,-6,2,7,-5,-2,2,-2,-6,-6,-9,-9
-6,-6,0,6,-3,-2,1,-2,-7,-6,-9,-9
-5,-5,0,5,-2,-2,0,-2,-7,-6,-9,-9
-5,-5,0,4,-2,-2,-1,-3,-7,-6,-9,-9
-5,-5,0,4,-3,-2,-1,-3,-7,-6,-9,-9
-5,-4,1,4,-3,-2,-2,-3,-7,-6,-9,-9
-5,-4,1,4,-2,-2,-3,-3,-7,-7,-10,-9
-4,-4,0,3,-2,-2,-4,-4,-8,-7,-10,-10
-4,-4,0,3,-2,-2,-4,-5,-8,-7,-10,-10
-3,-4,0,3,-1,-2,-4,-5,-8,-7,-10,-10
-3,-4,0,3,-1,-2,-5,-4,-8,-7,-10,-10
-4,-3,0,3,-2,-2,-5,-4,-8,-6,-10,-10
-5,-3,2,4,-3,-1,-5,-3,-8,-6,-9,-9
-6,-2,4,4,-5,0,-4,-2,-7,-5,-9,-8
-7,-2,5,4,-6,1,-4,-2,-6,-5,-8,-8
-6,-2,5,3,-5,1,-4,-2,-6,-5,-7,-8
-5,-1,4,3,-5,1,-4,-2,-6,-4,-7,-8
-5,-1,5,3,-5,1,-4,-2,-6,-4,-6,-7
-6,0,5,3,-5,2,-3,-2,-5,-3,-6,-7
-6,0,5,3,-5,2,-4,-2,-5,-3,-6,-7
-6,0,5,3,-5,2,-4,-3,-6,-4,-6,-7
-5,0,5,2,-4,2,-5,-4,-7,-4,-6,-8
-3,0,3,1,-2,1,-6,-5,-8,-5,-7,-8
-2,0,2,0,-1,0,-7,-6,-9,-5,-8,-9
-1,0,2,0,-1,1,-6,-5,-9,-5,-8,-9
-2,0,3,1,-2,2,-5,-3,-7,-4,-7,-8
-4,0,4,1,-3,2,-3,0,-5,-3,-7,-8
-5,0,5,2,-4,2,-1,4,-1,-2,-6,-9
-5,0,4,2,-4,2,1,12,5,1,-5,-8
-5,1,5,1,-4,2,5,23,15,7,-1,-7
-3,3,6,0,-4,4,8,35,28,15,4,-3
-1,7,8,-3,-4,8,10,46,41,27,13,3
3,14,10,-9,-3,12,10,54,53,41,25,12
11,21,9,-16,1,15,7,59,65,56,38,22
21,28,6,-25,7,17,2,62,74,71,51,32
32,35,2,-33,14,19,-3,63,81,85,64,43
41,41,0,-41,20,20,-10,62,85,98,76,53
49,47,-2,-48,26,22,-17,56,85,108,88,63
57,52,-4,-54,31,23,-26,44,77,113,96,71
63,56,-6,-59,35,24,-35,23,59,108,97,75
64,58,-6,-61,35,25,-42,-4,31,94,92,75
61,60,-1,-60,31,29,-47,-36,-2,73,81,72
57,61,4,-59,26,33,-50,-69,-37,48,67,66
51,62,10,-57,21,36,-51,-98,-68,22,50,57
42,57,15,-50,14,36,-51,-125,-98,-4,32,45
29,46,17,-38,7,31,-51,-150,-127,-32,9,29
16,30,14,-23,2,22,-50,-170,-154,-62,-15,9
4,13,9,-9,-1,11,-47,-182,-175,-86,-38,-9
-5,-1,4,3,-4,1,-43,-184,-184,-102,-54,-24
-10,-10,0,10,-5,-5,-38,-175,-181,-108,-62,-33
-12,-16,-3,14,-4,-9,-33,-158,-169,-106,-64,-38
-12,-18,-6,14,-3,-12,-30,-138,-152,-99,-63,-39
-10,-18,-8,13,-1,-13,-28,-116,-133,-89,-58,-38
-9,-17,-8,12,0,-12,-26,-94,-112,-77,-52,-36
-8,-15,-7,11,0,-11,-24,-73,-92,-65,-46,-34
-7,-13,-7,9,0,-10,-22,-54,-73,-54,-40,-31
-6,-12,-6,9,1,-9,-18,-38,-57,-44,-34,-29
-5,-12,-7,8,1,-9,-14,-27,-46,-37,-29,-27
-4,-12,-8,8,2,-10,-10,-19,-38,-32,-27,-26
-3,-13,-10,8,3,-11,-8,-13,-33,-28,-25,-26
-3,-13,-10,8,3,-12,-5,-10,-28,-26,-24,-25
-4,-14,-10,9,3,-12,-3,-7,-25,-24,-23,-25
-5,-15,-10,10,3,-13,-2,-6,-22,-23,-23,-25
-7,-16,-10,12,2,-14,0,-5,-20,-22,-22,-25
-9,-18,-9,13,1,-14,0,-6,-19,-20,-22,-25
-11,-19,-8,14,0,-14,1,-7,-19,-19,-21,-25
-12,-19,-7,15,-2,-14,2,-7,-19,-19,-21,-25
-12,-20,-7,16,-2,-14,3,-7,-19,-18,-20,-25
-12,-20,-8,16,-2,-14,3,-6,-19,-19,-20,-25
-13,-20,-7,16,-3,-14,3,-6,-18,-19,-21,-25
-14,-20,-7,17,-3,-14,3,-5,-18,-19,-21,-25
-13,-20,-8,16,-1,-15,3,-5,-18,-20,-22,-26
-10,-21,-11,15,1,-16,2,-5,-18,-20,-23,-27
-9,-21,-12,15,2,-17,2,-6,-18,-20,-23,-27
-9,-21,-12,15,1,-17,3,-5,-17,-19,-23,-27
-10,-21,-10,15,0,-16,4,-5,-17,-19,-23,-27
-12,-21,-8,16,-2,-15,4,-5,-16,-19,-23,-26
-13,-21,-7,16,-3,-14,5,-5,-16,-18,-23,-26
-14,-21,-6,17,-4,-13,5,-5,-15,-18,-22,-26
-15,-21,-6,17,-4,-13,5,-5,-15,-18,-22,-25
-15,-20,-6,17,-4,-13,5,-5,-15,-18,-22,-25
-15,-20,-6,17,-4,-13,5,-5,-15,-18,-22,-25
-14,-20,-6,17,-4,-13,5,-5,-14,-17,-22,-25
-14,-20,-6,17,-4,-13,5,-5,-14,-17,-22,-24
-14,-19,-5,17,-4,-13,5,-5,-14,-17,-22,-24
-14,-19,-5,17,-4,-13,4,-5,-14,-17,-22,-23
-13,-19,-5,16,-4,-12,3,-5,-14,-17,-22,-23
-12,-18,-5,15,-3,-12,2,-5,-14,-16,-21,-22
-12,-17,-5,14,-3,-11,1,-5,-14,-16,-21,-22
-11,-17,-6,14,-3,-12,0,-5,-14,-16,-21,-22
-11,-17,-6,14,-2,-12,-2,-6,-14,-16,-21,-22
-11,-17,-6,13,-2,-12,-3,-6,-14,-16,-21,-22
-10,-17,-7,13,-1,-12,-3,-7,-14,-17,-21,-22
-10,-16,-7,13,-1,-12,-3,-8,-14,-17,-21,-23
-10,-16,-7,13,-1,-12,-3,-8,-14,-17,-22,-23
-11,-16,-6,13,-2,-11,-3,-8,-14,-17,-22,-23
-13,-16,-3,14,-5,-9,-2,-6,-12,-16,-22,-22
-16,-15,0,15,-8,-7,-1,-5,-11,-15,-21,-21
-17,-15,2,16,-10,-6,0,-4,-10,-14,-20,-21
-16,-14,2,15,-9,-6,0,-4,-10,-14,-20,-21
-15,-14,1,15,-8,-7,-1,-4,-9,-13,-19,-20
-14,-14,0,14,-7,-7,-1,-3,-8,-12,-19,-20
-13,-14,0,14,-6,-7,-1,-2,-7,-12,-19,-20
-12,-14,-1,13,-6,-7,-2,-1,-6,-11,-19,-20
-12,-13,-1,13,-5,-7,-2,0,-5,-11,-19,-20
-11,-13,-1,12,-5,-7,-3,0,-4,-10,-18,-20
-10,-12,-2,11,-4,-7,-3,1,-3,-9,-18,-19
-10,-12,-2,10,-3,-7,-3,3,-2,-8,-17,-19
-9,-11,-2,10,-3,-7,-3,5,0,-7,-15,-18
-9,-11,-2,10,-3,-6,-3,7,2,-5,-14,-17
-8,-11,-3,9,-2,-6,-3,9,3,-4,-13,-17
-7,-11,-4,8,-1,-7,-4,11,5,-3,-12,-16
-6,-10,-5,7,0,-7,-4,12,6,-2,-11,-16
-5,-10,-5,7,0,-7,-5,14,8,-1,-10,-15
-5,-10,-5,7,0,-7,-5,16,9,0,-9,-15
-4,-9,-5,7,0,-7,-5,17,11,1,-8,-14
-3,-8,-5,6,1,-7,-5,19,14,3,-7,-13
-2,-8,-5,5,1,-6,-4,22,16,5,-5,-12
-2,-7,-5,5,1,-6,-4,24,19,7,-4,-11
-2,-6,-4,4,1,-5,-4,26,21,9,-2,-10
-1,-5,-4,3,1,-4,-3,28,23,10,-1,-9
0,-4,-3,2,1,-3,-3,30,25,12,0,-8
0,-2,-2,1,1,-2,-3,32,26,13,1,-7
0,-1,-2,0,1,-1,-3,33,28,15,3,-6
2,0,-2,-1,1,-1,-3,34,30,16,4,-5
2,1,-1,-1,1,0,-3,36,31,18,6,-4
1,1,0,-1,0,1,-3,37,33,20,8,-2
2,2,0,-2,1,1,-3,39,34,21,9,-1
4,2,-1,-3,2,1,-3,40,35,22,10,-1
4,3,-2,-4,2,1,-3,41,36,23,10,0
5,3,-2,-4,3,1,-3,41,36,24,10,0
5,3,-2,-4,3,1,-3,42,37,24,11,0
4,3,-1,-4,2,1,-3,43,38,25,12,0
3,3,0,-4,1,2,-3,44,39,26,13,1
3,3,1,-3,1,2,-2,45,40,27,14,1
3,4,0,-4,1,2,-2,46,40,27,15,2
5,4,-1,-4,3,1,-3,45,40,27,15,2
6,4,-2,-5,4,1,-3,45,40,27,15,2
6,4,-1,-5,4,1,-3,45,41,27,15,3
6,4,-1,-5,4,2,-3,45,41,28,15,3
6,4,-1,-5,4,2,-4,45,41,28,16,3
7,5,-1,-6,4,2,-4,45,41,28,16,3
8,5,-2,-7,5,1,-4,45,41,28,16,3
9,6,-3,-8,6,1,-4,44,40,28,16,3
9,6,-2,-8,6,2,-4,43,39,28,16,3
9,7,-2,-8,5,2,-4,42,39,28,16,4
8,7,-1,-8,5,2,-4,41,38,28,16,4
8,7,-1,-8,5,3,-4,40,36,27,16,4
7,6,-1,-7,4,3,-4,39,35,27,16,4
6,6,0,-6,3,3,-3,37,34,26,16,4
5,5,1,-5,2,3,-2,36,32,26,15,3
5,5,0,-5,2,3,-1,34,31,24,14,2
6,4,-1,-5,4,2,-1,32,29,22,12,0
6,4,-2,-5,4,1,0,29,26,20,11,0
5,3,-2,-4,4,1,0,27,24,19,10,-1
4,2,-1,-4,3,1,1,25,21,17,9,-2
3,2,-1,-3,2,1,2,24,19,16,8,-2
2,1,-1,-2,1,0,3,22,18,15,7,-3
0,0,0,-1,0,0,4,21,16,14,6,-4
-1,-1,0,0,-1,0,5,20,15,14,6,-5
-3,-2,1,2,-2,0,6,19,14,13,5,-5
-4,-3,1,3,-3,0,6,17,13,11,5,-6
-4,-4,0,4,-2,-1,7,16,11,10,4,-7
-4,-5,-1,4,-1,-2,7,14,9,8,2,-8
-3,-6,-3,4,0,-4,7,13,7,6,1,-9
-3,-7,-4,5,0,-5,7,12,5,5,0,-10
-3,-7,-4,5,1,-6,7,11,4,4,-1,-11
-2,-7,-5,4,2,-6,7,11,4,3,-2,-11
-2,-7,-5,4,2,-6,7,10,3,3,-2,-12
-3,-7,-4,5,1,-6,7,9,3,2,-3,-12
-3,-7,-3,5,0,-5,8,8,2,1,-3,-12
-3,-6,-3,4,0,-5,8,8,1,0,-4,-12
-3,-6,-3,4,0,-4,9,7,1,0,-4,-12
-4,-5,-1,4,-1,-3,9,7,0,0,-4,-12
-4,-4,0,4,-1,-2,8,6,0,0,-4,-11
-4,-4,0,4,-2,-2,7,6,0,0,-4,-11
-5,-4,1,4,-2,-2,6,5,0,0,-4,-11
-5,-4,1,4,-2,-2,5,4,-1,0,-4,-11
-5,-4,1,5,-3,-1,4,3,-1,0,-4,-10
-6,-5,1,5,-3,-1,4,2,-2,-1,-4,-10
-4,-5,0,5,-1,-2,2,0,-3,-2,-5,-11
-2,-5,-3,4,1,-4,1,-1,-5,-3,-6,-11
-2,-6,-3,4,1,-4,0,-1,-6,-3,-7,-11
-4,-6,-2,5,0,-4,0,-1,-6,-3,-7,-11
-3,-6,-2,5,0,-4,-1,-2,-6,-3,-7,-11
-2,-5,-3,4,0,-4,-2,-2,-6,-3,-7,-12
-1,-5,-4,3,1,-5,-3,-3,-6,-3,-8,-12
-1,-5,-4,3,1,-4,-3,-3,-6,-3,-8,-11
-3,-5,-2,4,0,-4,-2,-3,-6,-3,-8,-11
-5,-5,-1,5,-1,-3,-1,-3,-6,-3,-8,-11
-5,-5,-1,5,-1,-3,-1,-3,-6,-4,-8,-12
-4,-5,-2,4,0,-4,-2,-4,-7,-5,-8,-12
-2,-5,-3,4,1,-4,-2,-5,-8,-5,-8,-12
-2,-5,-3,4,1,-4,-2,-4,-7,-4,-7,-12
-2,-5,-2,4,0,-4,-1,-3,-6,-4,-7,-11
-2,-5,-2,3,0,-3,-1,-2,-6,-3,-6,-11
-2,-4,-2,3,0,-3,-1,-2,-5,-3,-6,-11
-3,-4,-1,3,0,-2,-1,-2,-5,-3,-6,-11
-3,-3,0,2,-1,-1,-1,-2,-5,-2,-5,-10
-2,-2,0,1,0,-1,-1,-2,-5,-2,-4,-10
-2,-2,0,1,0,-1,-1,-2,-5,-2,-4,-10
-2,-1,0,1,0,0,-1,-1,-4,-1,-4,-10
-3,-1,1,2,-2,0,0,0,-2,0,-3,-10
-3,-1,2,2,-2,0,1,4,0,1,-2,-9
-2,-1,1,1,-1,0,3,10,5,4,-1,-9
0,0,0,0,0,0,4,20,14,10,2,-7
0,1,1,-1,0,2,7,34,27,19,7,-4
0,5,4,-3,-1,5,10,50,44,32,16,1
4,10,5,-7,0,8,11,64,62,47,27,8
11,17,6,-14,2,11,10,76,79,64,40,18
19,26,6,-22,6,16,8,84,95,82,55,29
27,34,7,-31,10,20,4,90,108,100,70,41
35,42,7,-39,14,24,-1,92,119,115,84,52
43,48,5,-47,19,27,-7,92,125,129,96,63
52,54,3,-54,25,29,-14,89,126,139,107,73
60,60,1,-61,30,30,-22,80,120,145,115,81
66,65,-1,-66,34,32,-31,62,103,143,118,87
70,69,-1,-70,36,34,-39,34,75,129,114,88
71,72,0,-72,36,36,-46,-2,37,107,104,86
69,74,5,-72,32,39,-51,-41,-3,80,90,82
63,76,12,-70,26,44,-54,-78,-43,52,75,75
54,75,21,-65,17,48,-55,-114,-80,23,57,66
40,68,28,-55,6,48,-56,-148,-117,-9,34,52
24,54,30,-40,-2,42,-54,-178,-153,-43,7,33
10,36,26,-24,-8,32,-50,-196,-180,-74,-19,11
0,19,20,-10,-9,20,-45,-199,-192,-94,-39,-6
-5,6,13,0,-9,9,-39,-189,-190,-103,-52,-19
-8,-2,7,5,-7,2,-34,-171,-178,-103,-58,-27
-10,-8,2,8,-6,-3,-30,-150,-161,-98,-59,-31
-10,-10,0,9,-5,-5,-28,-126,-141,-89,-56,-32
-9,-11,-2,9,-3,-6,-26,-103,-120,-78,-52,-31
-8,-10,-2,8,-2,-6,-25,-82,-100,-67,-46,-30
-7,-9,-2,8,-2,-6,-22,-61,-80,-55,-40,-28
-7,-9,-1,8,-2,-5,-18,-43,-64,-45,-35,-26
-7,-9,-1,8,-2,-5,-13,-30,-51,-37,-30,-25
-8,-10,-1,9,-2,-5,-8,-22,-42,-31,-27,-25
-9,-11,-2,9,-3,-6,-4,-17,-36,-28,-26,-24
-9,-12,-2,10,-3,-7,-2,-14,-32,-26,-25,-24
-9,-13,-4,10,-2,-8,0,-12,-29,-25,-25,-25
-10,-14,-4,11,-2,-9,0,-11,-28,-25,-25,-26
-11,-15,-4,13,-3,-10,2,-11,-26,-24,-25,-26
-12,-16,-3,14,-4,-10,3,-12,-25,-24,-25,-26
-13,-17,-3,16,-5,-10,5,-13,-25,-23,-25,-26
-15,-17,-2,17,-6,-10,6,-13,-24,-23,-24,-26
-15,-18,-2,17,-6,-10,7,-13,-24,-23,-24,-26
-16,-19,-3,17,-6,-11,8,-13,-24,-23,-24,-26
-16,-19,-4,17,-6,-11,8,-12,-24,-23,-24,-26
-16,-19,-4,17,-6,-11,8,-12,-24,-22,-24,-26
-15,-19,-4,17,-6,-11,8,-12,-23,-22,-24,-26
-15,-19,-4,17,-5,-11,8,-12,-23,-22,-25,-26
-14,-18,-4,17,-5,-11,8,-11,-22,-21,-24,-26
-13,-17,-3,16,-5,-10,8,-11,-22,-21,-24,-26
-13,-16,-3,15,-5,-10,8,-11,-21,-20,-24,-26
-14,-16,-1,15,-6,-9,8,-11,-21,-20,-23,-26
-15,-16,0,15,-7,-8,8,-11,-20,-19,-23,-26
-16,-16,0,15,-8,-7,7,-11,-20,-19,-23,-25
-16,-16,0,15,-8,-7,7,-11,-20,-19,-22,-25
-15,-16,0,15,-7,-7,7,-10,-20,-19,-22,-25
-15,-16,-1,16,-7,-8,7,-10,-19,-19,-22,-25
-15,-17,-1,16,-6,-8,7,-9,-19,-18,-22,-25
-15,-17,-1,16,-7,-9,7,-9,-18,-18,-22,-25
-15,-16,-1,15,-7,-9,7,-9,-17,-17,-22,-25
-15,-16,-1,15,-6,-9,7,-9,-17,-17,-22,-25
-14,-16,-1,15,-6,-9,6,-10,-18,-17,-22,-25
-15,-16,-1,15,-7,-8,6,-10,-18,-17,-22,-24
-16,-16,0,16,-8,-8,6,-9,-17,-16,-22,-24
-17,-16,1,16,-9,-7,6,-8,-17,-16,-22,-23
-18,-17,1,17,-9,-7,5,-7,-16,-16,-22,-23
-18,-17,0,17,-9,-8,4,-7,-16,-16,-22,-24
-17,-18,-1,17,-7,-10,3,-8,-16,-17,-23,-24
-15,-18,-3,16,-6,-11,2,-9,-17,-17,-24,-25
-14,-18,-5,16,-5,-12,1,-9,-17,-17,-24,-25
-14,-18,-5,16,-4,-12,0,-9,-16,-17,-24,-25
-13,-18,-5,16,-4,-12,0,-8,-16,-17,-24,-25
-13,-18,-5,16,-3,-12,0,-7,-15,-16,-23,-25
-13,-18,-5,16,-3,-11,0,-6,-14,-15,-23,-24
-13,-18,-5,15,-3,-11,0,-4,-13,-14,-22,-24
-12,-17,-5,15,-3,-11,0,-3,-11,-13,-22,-23
-12,-17,-5,14,-3,-11,0,-3,-10,-13,-21,-23
-11,-17,-6,14,-3,-11,0,-2,-9,-12,-21,-22
-10,-17,-7,13,-2,-12,-1,-1,-8,-12,-20,-22
-10,-17,-6,13,-2,-11,-1,0,-7,-11,-20,-22
-11,-16,-5,13,-2,-10,-1,1,-5,-10,-19,-21
-11,-16,-4,13,-3,-9,-1,3,-3,-9,-19,-21
-11,-15,-3,12,-3,-8,-1,5,0,-7,-17,-20
-11,-14,-2,12,-4,-7,-1,7,2,-5,-15,-18
-11,-13,-2,12,-5,-7,0,9,4,-3,-14,-17
-11,-12,-1,11,-5,-6,0,11,6,-1,-12,-15
-11,-11,-1,11,-5,-6,0,13,8,0,-11,-14
-10,-11,-1,11,-5,-5,1,15,10,1,-10,-14
-9,-10,-1,9,-4,-5,1,18,12,2,-10,-13
-8,-10,-2,8,-2,-5,1,20,14,3,-9,-13
-6,-10,-3,7,-1,-6,0,23,16,5,-8,-12
-4,-9,-5,6,1,-6,0,25,18,6,-7,-12
-3,-9,-6,5,2,-6,0,27,20,8,-6,-11
-3,-8,-6,5,2,-6,0,29,22,9,-5,-10
-3,-8,-5,5,1,-6,0,31,24,11,-4,-9
-4,-8,-4,5,0,-6,0,32,26,12,-3,-9
-4,-8,-4,5,1,-6,0,33,27,12,-3,-9
-3,-8,-5,4,1,-6,0,34,27,13,-2,-9
-2,-7,-5,4,2,-6,0,35,28,13,-2,-9
-2,-7,-5,4,2,-6,0,36,29,14,-1,-8
-1,-6,-5,3,2,-6,0,36,30,15,-1,-8
0,-6,-6,3,3,-6,-1,36,30,16,0,-7
0,-6,-6,2,4,-6,-2,37,31,17,0,-7
1,-5,-7,2,4,-6,-2,38,32,17,1,-6
1,-5,-6,2,3,-6,-1,39,33,18,1,-5
1,-5,-6,2,3,-6,-1,40,34,18,2,-4
2,-5,-7,1,4,-6,-1,40,34,19,2,-4
3,-4,-8,0,5,-6,-1,40,35,19,3,-4
4,-4,-8,0,6,-6,-1,41,36,20,3,-3
4,-3,-8,0,6,-5,-1,42,37,21,4,-2
4,-2,-7,-1,6,-5,-1,43,38,22,5,-1
4,-2,-7,-1,6,-4,-2,43,39,23,6,-1
4,-1,-6,-1,5,-4,-2,43,39,23,7,0
4,-1,-5,-2,5,-3,-2,43,39,24,7,0
5,0,-5,-2,5,-3,-2,42,39,24,8,0
7,0,-6,-3,7,-3,-3,40,37,23,8,0
8,0,-7,-4,8,-3,-3,39,36,23,8,1
8,1,-7,-4,7,-2,-3,39,36,24,8,1
8,1,-6,-4,7,-1,-3,39,36,24,8,1
7,1,-5,-4,6,-1,-3,37,35,23,8,1
7,1,-5,-5,6,-1,-3,36,33,22,8,1
7,2,-5,-5,6,-1,-2,34,31,21,7,1
7,2,-4,-5,5,-1,-2,32,30,20,7,1
6,2,-3,-4,4,0,-1,30,28,19,6,0
5,2,-2,-4,3,0,0,28,27,18,4,0
4,2,-1,-3,2,1,0,25,24,16,3,0
3,1,-1,-3,2,1,1,22,22,14,2,-1
2,1,0,-2,1,1,3,19,19,12,0,-1
1,1,0,-2,0,1,5,17,17,11,0,-2
0,1,1,-1,0,1,6,15,14,10,0,-2
0,0,1,0,-1,1,7,13,12,8,-1,-3
-2,0,2,0,-2,1,7,11,11,7,-1,-3
-3,0,3,1,-3,2,8,9,9,6,-2,-3
-4,0,4,2,-4,2,7,7,8,5,-3,-4
-5,0,4,2,-5,2,7,5,6,3,-4,-5
-4,0,3,2,-4,2,6,3,4,2,-5,-6
-4,0,3,2,-4,1,5,2,2,0,-6,-6
-4,-1,3,2,-4,1,4,1,0,-1,-7,-7
-5,-2,3,3,-4,1,3,0,0,-2,-8,-7
-5,-2,3,3,-4,1,2,-1,-2,-3,-9,-8
-4,-2,2,2,-3,0,1,-2,-3,-4,-10,-8
-4,-2,2,3,-3,0,1,-4,-4,-5,-10,-9
-6,-2,3,4,-5,1,1,-5,-5,-6,-10,-9
-7,-2,4,5,-6,0,1,-7,-6,-6,-11,-9
-7,-3,3,5,-5,0,0,-8,-7,-7,-12,-10
-7,-3,3,5,-5,0,0,-8,-8,-8,-12,-10
-7,-3,3,5,-5,0,-1,-7,-8,-8,-12,-10
-6,-3,3,4,-4,0,-1,-8,-8,-9,-12,-10
-6,-3,2,4,-4,0,-2,-9,-9,-9,-13,-10
-6,-3,3,4,-4,0,-2,-9,-9,-9,-13,-10
-6,-2,3,4,-5,0,-2,-9,-9,-9,-13,-9
-7,-2,4,4,-5,1,-2,-9,-9,-8,-12,-9
-7,-2,4,4,-5,1,-2,-9,-9,-8,-12,-8
-8,-2,5,5,-6,1,-2,-8,-9,-8,-11,-7
-9,-2,6,5,-7,2,-1,-7,-8,-7,-11,-7
-8,-3,5,6,-7,1,-1,-6,-7,-7,-11,-7
-6,-3,3,5,-5,0,-2,-6,-7,-8,-11,-8
-5,-4,1,5,-3,-1,-2,-7,-8,-9,-12,-8
-4,-4,0,5,-2,-2,-3,-8,-9,-9,-12,-8
-4,-5,-1,5,-2,-2,-3,-9,-10,-10,-13,-8
-4,-5,-1,5,-1,-3,-4,-9,-10,-10,-13,-8
-4,-6,-2,5,-1,-4,-5,-8,-9,-10,-13,-8
-4,-6,-2,5,-1,-4,-5,-8,-9,-9,-12,-8
-4,-7,-2,6,-1,-4,-6,-7,-8,-9,-12,-7
-2,-7,-4,5,0,-5,-6,-6,-7,-9,-12,-7
-1,-7,-5,5,1,-5,-5,-4,-6,-8,-11,-7
-1,-7,-5,4,2,-5,-4,-1,-4,-7,-11,-7
0,-7,-6,4,3,-6,-1,3,0,-6,-10,-7
0,-7,-6,4,3,-6,2,10,7,-2,-8,-7
0,-6,-5,3,2,-5,5,21,17,3,-4,-5
0,-4,-3,2,1,-3,8,33,31,12,1,-1
1,-1,-2,0,1,-1,9,45,46,24,10,5
5,4,-1,-5,3,2,8,56,61,39,22,13
11,12,1,-11,5,7,6,66,76,57,37,25
18,20,2,-19,8,12,2,73,90,75,52,37
28,28,0,-28,13,15,-2,78,101,92,67,49
39,36,-2,-37,20,17,-7,79,108,106,80,60
49,43,-5,-46,27,19,-14,76,110,117,91,70
59,49,-8,-54,33,20,-22,68,104,123,99,79
65,55,-9,-60,37,22,-31,50,87,120,102,85
69,59,-10,-64,39,24,-39,22,59,106,98,86
70,62,-8,-66,39,27,-46,-11,23,85,89,85
68,65,-3,-66,36,31,-51,-45,-14,61,78,82
63,68,4,-65,29,37,-54,-78,-49,37,65,77
54,68,13,-61,21,41,-55,-111,-84,11,49,70
43,62,19,-52,12,40,-55,-144,-118,-18,29,57
28,48,20,-38,4,34,-51,-171,-149,-48,5,39
13,31,18,-22,-1,24,-44,-185,-171,-75,-19,19
1,14,13,-8,-5,13,-37,-186,-179,-93,-38,1
-5,2,6,1,-5,4,-31,-174,-175,-101,-50,-11
-8,-6,1,7,-4,-2,-25,-156,-163,-100,-55,-18
-9,-10,-2,10,-4,-6,-22,-135,-145,-94,-54,-22
-10,-12,-2,11,-4,-7,-19,-113,-125,-84,-51,-22
-9,-12,-3,11,-4,-7,-17,-91,-105,-74,-46,-21
-7,-11,-4,9,-2,-8,-16,-72,-86,-63,-42,-21
-5,-10,-5,8,0,-8,-14,-55,-68,-54,-37,-20
-4,-10,-6,7,1,-8,-11,-41,-54,-46,-33,-20
-4,-11,-6,8,1,-9,-7,-31,-43,-39,-30,-19
-5,-12,-7,9,0,-9,-3,-25,-36,-34,-28,-19
-6,-13,-7,9,0,-10,0,-20,-31,-31,-26,-18
-6,-15,-8,10,0,-11,3,-16,-27,-30,-26,-18
-7,-17,-9,12,0,-12,6,-14,-24,-29,-26,-19
-9,-19,-9,14,0,-14,7,-13,-22,-28,-26,-19
-11,-21,-9,16,-1,-14,9,-13,-21,-27,-26,-19
-12,-21,-8,17,-2,-14,10,-13,-20,-27,-25,-19
-13,-21,-8,18,-2,-14,12,-13,-19,-27,-25,-20
-13,-21,-8,17,-2,-14,12,-14,-19,-27,-26,-20
-14,-21,-7,17,-3,-14,13,-14,-18,-27,-25,-20
-15,-21,-6,18,-5,-13,14,-13,-18,-26,-24,-20
-16,-21,-5,18,-5,-13,15,-13,-17,-26,-24,-20
-16,-21,-5,18,-6,-12,16,-13,-17,-26,-24,-20
-16,-21,-4,19,-6,-12,16,-13,-16,-26,-24,-20
-17,-21,-3,19,-7,-12,17,-12,-15,-26,-25,-20
-19,-21,-2,20,-8,-12,18,-11,-14,-26,-25,-20
-21,-22,-1,21,-9,-12,19,-10,-14,-25,-24,-20
-22,-22,0,22,-10,-11,20,-9,-13,-24,-23,-20
-22,-21,0,22,-11,-10,21,-9,-12,-24,-22,-20
-21,-21,0,21,-10,-10,21,-9,-12,-24,-22,-20
-19,-21,-2,20,-8,-12,20,-11,-13,-25,-23,-21
-17,-21,-4,19,-6,-13,19,-12,-14,-26,-24,-22
-15,-21,-5,18,-4,-13,18,-13,-15,-27,-25,-22
-15,-21,-5,18,-4,-13,18,-14,-15,-27,-25,-22
-16,-20,-4,18,-5,-12,17,-13,-14,-26,-25,-21
-16,-19,-2,18,-6,-10,17,-13,-13,-25,-24,-21
-16,-19,-2,17,-7,-10,16,-13,-13,-25,-24,-22
-17,-19,-1,17,-7,-9,15,-13,-13,-25,-24,-22
-17,-19,0,18,-8,-9,15,-13,-12,-24,-24,-22
-18,-19,0,18,-9,-10,14,-12,-12,-24,-24,-21
-17,-19,0,18,-8,-10,14,-12,-11,-23,-24,-21
-17,-18,0,17,-8,-9,13,-12,-11,-23,-24,-20
-17,-18,0,17,-8,-9,12,-12,-11,-23,-24,-20
-16,-18,-1,16,-7,-9,11,-13,-12,-24,-25,-21
-17,-18,0,17,-8,-8,11,-13,-11,-23,-25,-21
-19,-18,2,18,-10,-7,11,-12,-10,-22,-24,-20
-19,-17,2,18,-10,-7,10,-11,-10,-22,-24,-20
-17,-16,1,16,-9,-7,10,-12,-10,-22,-24,-20
-16,-15,1,15,-8,-7,10,-12,-10,-21,-24,-20
-16,-15,1,15,-8,-7,10,-12,-9,-20,-23,-19
-16,-15,1,15,-8,-7,9,-10,-8,-19,-22,-18
-15,-14,1,15,-7,-7,8,-9,-7,-19,-21,-17
-13,-14,0,13,-6,-7,7,-9,-6,-18,-21,-17
-11,-14,-2,12,-4,-8,6,-8,-5,-18,-21,-17
-11,-14,-2,12,-4,-8,6,-6,-4,-18,-21,-16
-12,-14,-1,13,-5,-8,5,-5,-2,-16,-19,-15
-14,-14,0,14,-6,-7,5,-3,0,-15,-18,-13
-14,-14,1,14,-7,-6,5,-2,1,-14,-17,-12
-13,-13,0,13,-6,-6,5,0,3,-13,-16,-12
-12,-13,0,12,-5,-6,5,1,5,-12,-16,-11
-11,-12,0,11,-5,-6,5,4,7,-11,-15,-11
-11,-12,0,11,-5,-6,6,6,9,-9,-13,-10
-10,-12,-1,11,-4,-6,6,9,12,-7,-12,-10
-8,-11,-2,9,-2,-7,6,10,14,-6,-11,-9
-6,-10,-3,8,0,-7,6,11,15,-5,-10,-8
-4,-9,-4,7,0,-7,6,12,17,-4,-9,-8
-4,-9,-5,7,1,-8,5,14,19,-3,-9,-7
-5,-9,-4,7,0,-7,6,18,22,-2,-7,-6
-7,-9,-2,8,-2,-6,7,21,25,0,-6,-5
-8,-9,0,8,-3,-5,8,23,27,3,-4,-3
-8,-9,0,8,-4,-4,8,24,29,5,-2,-2
-8,-9,0,8,-4,-4,8,26,30,6,0,-1
-7,-9,0,7,-3,-4,7,28,32,8,1,0
-6,-8,-2,6,-2,-5,7,30,33,9,2,0
-3,-7,-4,5,0,-5,6,31,34,9,2,0
-1,-7,-5,4,1,-5,6,32,36,10,3,0
-1,-6,-5,3,2,-5,5,33,37,11,4,0
0,-6,-6,2,3,-6,5,34,39,11,4,0
0,-6,-5,1,3,-6,4,35,40,13,6,1
-1,-5,-4,2,2,-5,4,35,41,14,7,3
0,-4,-3,1,2,-4,4,36,42,16,9,4
0,-3,-3,1,2,-3,4,37,43,17,10,6
1,-2,-3,0,2,-3,4,39,44,18,11,7
2,-2,-4,0,3,-3,4,41,46,20,12,8
2,-2,-4,0,3,-3,4,42,47,21,13,9
3,-2,-4,-1,3,-3,4,43,48,23,15,10
3,-1,-4,-1,3,-2,4,43,49,25,17,11
4,-1,-4,-2,4,-2,3,43,50,26,18,12
5,0,-4,-3,4,-2,2,43,50,26,19,12
6,1,-4,-4,5,-1,2,43,50,27,19,12
7,2,-3,-5,5,0,2,42,50,27,20,13
6,4,-2,-5,4,0,2,42,50,27,20,13
5,4,0,-5,2,1,3,42,50,27,21,14
4,4,0,-5,2,2,3,42,50,27,20,14
4,4,0,-5,2,2,3,40,48,26,20,14
4,4,0,-5,2,2,3,38,47,25,19,14
4,4,0,-5,2,2,3,36,45,24,19,14
5,4,-1,-5,3,2,3,34,43,22,18,13
6,4,-2,-5,4,1,3,32,41,21,17,12
5,4,-2,-5,4,0,4,30,39,19,16,12
4,3,-1,-3,2,0,5,28,37,18,15,11
3,2,-1,-2,2,0,5,26,35,16,15,11
2,2,0,-2,1,0,6,23,32,15,14,10
1,1,0,-1,0,0,7,20,29,13,12,10
0,0,0,0,0,0,7,19,27,11,11,9
-1,0,1,1,-2,1,8,18,25,9,10,9
-3,0,3,2,-3,1,8,17,24,8,9,8
-4,-1,3,2,-3,1,8,15,21,6,8,6
-2,-2,1,2,-1,0,8,12,18,3,5,4
-1,-2,-1,2,0,-2,8,9,15,1,3,2
-2,-3,-2,3,0,-3,8,7,12,-1,2,1
-3,-5,-1,4,-1,-3,9,5,10,-2,0,0
-4,-5,-2,5,-1,-4,10,4,9,-4,0,-1
-4,-5,-1,5,-1,-4,10,3,8,-5,-1,-1
-6,-6,0,5,-3,-3,12,2,8,-6,-2,-2
-8,-6,1,6,-4,-3,13,1,7,-7,-2,-2
-9,-7,2,7,-6,-3,14,0,6,-8,-3,-2
-10,-7,3,8,-7,-3,15,0,5,-9,-4,-3
-9,-8,2,8,-6,-3,16,0,4,-10,-5,-4
-9,-8,1,8,-5,-4,16,0,4,-11,-5,-4
-9,-8,2,9,-6,-3,17,0,4,-10,-5,-4
-9,-8,2,9,-5,-3,17,0,3,-10,-5,-4
-8,-9,0,8,-4,-4,17,-1,2,-10,-5,-5
-8,-9,0,8,-4,-5,17,-1,2,-11,-6,-5
-9,-9,1,8,-4,-4,18,-1,2,-12,-6,-5
-9,-8,1,8,-5,-4,19,-2,1,-12,-6,-5
-8,-8,1,8,-5,-4,19,-4,0,-13,-7,-6
-8,-7,2,8,-5,-3,19,-5,-1,-13,-8,-6
-8,-7,2,7,-5,-3,18,-5,-1,-13,-8,-6
-7,-6,1,6,-4,-2,17,-6,-1,-13,-8,-6
-6,-5,1,5,-3,-2,15,-7,-1,-13,-8,-6
-7,-5,3,5,-5,-1,14,-8,0,-13,-8,-5
-9,-4,6,6,-7,0,14,-7,0,-12,-7,-4
-11,-3,9,7,-10,2,13,-6,0,-10,-6,-3
-13,-2,11,7,-12,4,13,-6,0,-9,-5,-3
-13,-2,12,7,-13,4,12,-8,0,-9,-4,-3
-12,-1,11,6,-12,4,10,-10,0,-8,-4,-3
-10,-1,9,5,-10,3,9,-11,-1,-8,-4,-3
-9,-2,8,5,-8,2,8,-12,-1,-9,-5,-3
-7,-2,5,5,-6,1,6,-12,-2,-10,-6,-3
-6,-3,3,4,-4,0,4,-13,-3,-11,-7,-4
-5,-3,2,4,-3,-1,3,-14,-4,-11,-7,-4
-5,-3,2,4,-3,-1,2,-14,-5,-11,-7,-4
-6,-3,3,4,-4,0,2,-13,-5,-10,-7,-3
-5,-3,3,4,-4,0,2,-12,-4,-9,-6,-3
-5,-3,3,4,-4,0,3,-9,-2,-8,-5,-3
-6,-3,3,4,-4,0,5,-4,2,-5,-4,-2
-6,-4,2,5,-4,0,7,4,9,-1,-1,-1
-5,-3,1,4,-3,-1,9,16,20,6,2,0
-3,-1,1,1,-2,0,12,30,35,16,8,4
0,3,2,-2,0,2,13,45,53,29,17,10
4,9,4,-7,0,6,12,57,70,46,30,18
9,16,7,-13,1,11,10,67,86,64,44,30
14,24,10,-20,2,16,7,73,100,82,60,43
21,31,11,-27,5,21,2,77,110,100,76,56
28,39,10,-34,9,25,-2,77,117,115,90,68
37,47,10,-42,13,28,-9,74,120,128,103,80
46,55,9,-50,19,31,-17,66,116,137,114,91
55,61,6,-58,24,33,-26,51,103,139,121,98
62,65,4,-63,29,34,-34,26,78,130,120,101
65,68,3,-67,30,35,-41,-6,44,111,112,99
64,70,6,-67,28,38,-46,-41,6,86,99,95
58,71,13,-65,22,43,-47,-73,-30,60,84,89
49,70,21,-60,13,47,-47,-102,-65,31,66,81
37,66,28,-52,4,48,-45,-130,-99,1,45,68
22,55,31,-39,-4,43,-43,-157,-133,-32,19,50
8,38,28,-23,-9,33,-39,-178,-162,-65,-9,27
-2,20,22,-9,-11,20,-35,-189,-181,-91,-34,6
-11,4,16,3,-13,10,-30,-188,-187,-106,-50,-9
-16,-7,10,11,-13,2,-25,-176,-181,-110,-59,-18
-20,-14,6,17,-14,-3,-21,-158,-166,-106,-61,-23
-21,-19,3,19,-13,-7,-19,-136,-147,-98,-59,-24
-21,-20,0,20,-11,-9,-18,-113,-127,-88,-55,-24
-20,-19,0,19,-9,-10,-17,-92,-106,-77,-51,-23
-18,-18,-1,18,-8,-10,-16,-72,-87,-66,-45,-22
-14,-17,-3,16,-5,-11,-15,-56,-70,-56,-40,-21
-10,-17,-7,14,-1,-12,-14,-44,-57,-48,-36,-20
-9,-19,-9,14,0,-13,-11,-35,-47,-41,-33,-19
-11,-20,-8,15,-2,-13,-7,-30,-39,-36,-30,-17
-12,-20,-7,16,-3,-13,-4,-26,-34,-32,-28,-16
-13,-21,-7,17,-3,-14,-1,-23,-30,-30,-27,-16
-14,-21,-7,18,-4,-14,0,-20,-28,-29,-26,-16
-15,-23,-8,18,-3,-15,0,-19,-26,-28,-25,-16
-15,-24,-9,19,-3,-16,0,-18,-25,-27,-25,-17
-15,-24,-9,19,-3,-17,1,-18,-24,-27,-24,-17
-15,-25,-9,20,-3,-17,2,-19,-23,-27,-24,-18
-16,-25,-8,20,-4,-16,3,-19,-22,-27,-24,-18
-16,-25,-7,20,-5,-16,4,-19,-21,-27,-24,-18
-17,-25,-7,21,-5,-17,4,-19,-20,-27,-25,-18
-18,-25,-7,21,-5,-17,5,-18,-20,-28,-26,-18
-18,-25,-7,22,-5,-16,5,-18,-20,-29,-26,-18
-19,-26,-7,22,-5,-16,5,-18,-20,-29,-27,-18
-19,-27,-8,22,-5,-17,5,-17,-20,-29,-27,-18
-19,-28,-8,23,-5,-18,5,-17,-20,-28,-27,-18
-18,-28,-9,23,-5,-18,6,-17,-20,-28,-26,-18
-18,-28,-9,23,-4,-19,6,-17,-19,-28,-25,-17
-19,-28,-9,23,-4,-19,7,-16,-18,-27,-24,-17
-20,-28,-8,24,-6,-18,8,-16,-17,-27,-24,-17
-22,-28,-6,25,-8,-17,9,-15,-16,-27,-24,-17
-23,-27,-5,25,-9,-16,10,-15,-16,-27,-24,-17
-23,-27,-4,25,-10,-16,10,-15,-15,-27,-24,-16
-21,-27,-5,24,-9,-16,10,-14,-15,-26,-24,-16
-20,-27,-6,23,-8,-16,10,-13,-14,-26,-23,-16
-20,-26,-6,23,-7,-16,10,-13,-14,-26,-23,-16
-20,-26,-6,22,-7,-16,10,-13,-13,-26,-23,-16
-20,-26,-6,22,-7,-16,11,-12,-12,-25,-23,-16
-20,-26,-6,22,-7,-16,13,-11,-11,-25,-23,-16
-20,-26,-5,22,-7,-15,14,-10,-10,-24,-23,-16
-20,-25,-5,22,-7,-15,15,-9,-9,-24,-22,-15
-19,-25,-5,22,-7,-15,15,-9,-8,-24,-22,-14
-19,-24,-5,21,-7,-14,15,-9,-8,-24,-21,-14
-20,-24,-3,22,-9,-13,15,-8,-7,-23,-20,-13
-21,-23,-1,21,-10,-12,15,-7,-7,-22,-19,-13
-21,-21,0,21,-11,-11,15,-6,-6,-20,-18,-13
-22,-20,2,21,-12,-9,15,-4,-4,-19,-17,-12
-23,-18,4,20,-13,-7,16,-3,-3,-19,-17,-11
-23,-18,4,20,-13,-7,15,-3,-2,-18,-17,-10
-22,-18,4,20,-13,-7,14,-2,-1,-18,-17,-10
-20,-18,2,19,-11,-8,13,-2,-1,-18,-17,-9
-18,-18,0,17,-9,-8,11,-2,0,-18,-17,-9
-16,-17,0,16,-8,-9,9,-2,0,-18,-17,-9
-15,-17,-1,15,-6,-9,7,-2,0,-17,-16,-9
-14,-16,-1,15,-6,-8,7,-1,1,-16,-16,-9
-15,-15,0,15,-7,-7,7,0,3,-15,-15,-8
-15,-14,0,15,-7,-7,6,2,4,-14,-15,-8
-13,-14,-1,14,-6,-8,5,3,5,-14,-15,-8
-12,-15,-3,14,-5,-9,4,4,6,-13,-15,-8
-11,-16,-4,14,-4,-10,4,5,7,-12,-14,-8
-11,-16,-4,14,-3,-10,4,6,8,-11,-13,-7
-11,-16,-5,13,-3,-10,4,7,9,-10,-12,-7
-10,-16,-5,13,-3,-10,4,9,10,-9,-11,-7
-10,-16,-5,12,-3,-10,3,10,12,-7,-10,-7
-10,-15,-4,12,-3,-9,3,13,15,-5,-8,-6
-9,-13,-3,11,-3,-8,2,15,18,-2,-6,-5
-9,-12,-2,11,-3,-7,2,18,20,0,-5,-3
-10,-10,0,10,-5,-5,2,21,23,1,-3,-1
-11,-9,2,9,-6,-3,1,23,25,3,-1,0
-9,-8,2,8,-5,-3,1,25,27,5,0,1
-8,-7,1,6,-4,-3,0,25,28,7,2,2
-7,-7,1,5,-4,-3,0,26,30,9,4,2
-7,-6,2,5,-4,-2,0,28,32,11,5,3
-6,-5,2,5,-4,-1,1,30,34,12,5,3
-6,-5,2,5,-4,-1,1,31,35,12,6,4
-7,-4,2,5,-4,-1,1,32,36,13,7,5
-7,-4,3,5,-5,0,1,33,37,15,8,7
-7,-4,3,5,-5,0,1,34,39,17,10,8
-6,-4,2,4,-4,0,1,35,40,19,11,9
-4,-4,1,3,-3,0,1,36,40,20,12,9
-3,-3,0,3,-2,0,0,36,41,21,12,9
-3,-3,0,3,-1,0,-1,36,41,21,12,10
-2,-2,0,2,-1,-1,-2,36,42,22,13,10
-1,-2,-1,2,0,-2,-3,36,42,23,13,11
0,-3,-3,1,1,-3,-3,37,43,24,14,11
0,-3,-3,1,1,-3,-4,38,43,25,16,12
-1,-3,-3,1,1,-3,-4,39,44,27,17,13
-1,-4,-2,1,0,-3,-4,39,45,29,19,14
-1,-4,-2,1,0,-2,-4,39,46,31,21,15
-1,-3,0,1,0,-1,-4,39,47,33,22,17
0,-2,0,1,0,0,-4,39,47,33,22,17
0,-1,0,0,0,0,-4,39,46,32,21,17
1,0,0,-1,1,0,-5,37,45,32,21,17
2,1,0,-2,1,0,-6,36,44,31,21,17
3,1,-2,-3,2,-1,-7,35,42,30,21,17
4,1,-3,-4,3,-1,-7,34,41,29,20,17
4,0,-4,-3,3,-2,-6,33,40,28,19,17
2,0,-3,-1,2,-2,-5,31,38,28,19,17
0,-1,-1,1,0,-1,-4,29,36,27,18,17
-2,-2,0,2,-1,-1,-4,28,35,26,18,17
-2,-2,0,2,-1,-1,-4,27,33,25,17,16
-2,-2,0,2,-1,-1,-4,25,31,23,15,16
-2,-2,0,2,-1,-1,-3,22,29,21,14,15
-3,-3,1,2,-2,-1,-3,20,26,19,13,14
-4,-3,2,3,-3,-1,-2,18,24,17,11,13
-5,-4,1,4,-3,-1,-2,17,22,15,10,11
-5,-5,0,5,-3,-2,-2,15,20,13,8,9
-6,-5,0,6,-3,-2,-1,13,17,11,6,8
-7,-7,0,7,-3,-3,0,11,15,9,4,7
-8,-8,0,8,-4,-3,0,9,13,7,3,6
-8,-8,0,8,-4,-4,0,8,11,6,2,5
-8,-9,0,8,-4,-4,1,7,10,4,1,4
-9,-10,0,9,-4,-4,1,6,8,3,0,3
-9,-10,0,9,-4,-5,2,4,7,1,-1,2
-9,-11,-1,10,-4,-6,2,3,5,0,-3,0
-11,-12,-1,11,-5,-6,3,2,3,-1,-4,0
-13,-13,1,13,-7,-6,5,1,3,-1,-4,0
-15,-12,3,13,-9,-5,6,1,2,-2,-4,0
-15,-12,3,13,-9,-5,7,0,1,-3,-5,-1
-14,-13,1,13,-8,-6,8,0,0,-5,-7,-2
-13,-13,0,13,-7,-6,8,-1,0,-5,-7,-2
-13,-13,0,13,-7,-6,8,-1,-1,-5,-7,-3
-13,-13,0,13,-7,-6,8,-1,-1,-5,-7,-3
-12,-13,0,13,-7,-7,8,-1,-1,-5,-8,-4
-12,-13,-1,12,-6,-7,8,-2,-2,-6,-8,-5
-12,-13,-1,12,-5,-7,9,-3,-3,-6,-9,-5
-12,-13,-1,13,-6,-7,9,-3,-3,-6,-9,-5
-13,-14,0,14,-7,-7,10,-2,-3,-6,-9,-5
-14,-14,1,14,-8,-6,11,-2,-2,-5,-8,-5
-15,-13,3,14,-9,-5,12,-1,-2,-4,-8,-5
-16,-13,4,14,-10,-4,13,-1,-1,-3,-7,-5
-15,-12,3,13,-9,-4,12,0,-1,-3,-8,-6
-14,-12,2,12,-8,-5,12,0,-1,-4,-9,-6
-14,-12,2,12,-8,-5,13,0,0,-3,-8,-6
-15,-11,3,13,-9,-4,13,0,0,-2,-7,-5
-17,-10,6,13,-11,-2,13,0,0,-1,-6,-5
-17,-9,7,13,-12,-1,12,1,1,0,-6,-4
-17,-9,8,13,-13,0,12,3,1,0,-6,-4
-18,-9,9,14,-13,0,13,3,1,0,-6,-5
-17,-9,8,14,-12,0,13,2,1,0,-6,-5
-16,-9,6,13,-10,-1,12,1,0,0,-6,-5
-15,-9,5,13,-10,-1,11,0,0,0,-6,-5
-14,-9,4,12,-9,-1,10,-1,0,-1,-7,-5
-12,-8,4,11,-8,-1,8,-2,-1,-2,-7,-5
-11,-7,4,9,-8,-1,7,-4,-1,-2,-7,-5
-10,-6,5,9,-8,0,5,-5,-2,-3,-7,-5
-10,-5,5,8,-7,0,3,-5,-2,-3,-6,-4
-9,-5,4,8,-7,0,1,-6,-3,-3,-6,-4
-9,-5,4,8,-6,0,0,-7,-3,-3,-6,-4
-9,-6,3,8,-6,-1,-2,-8,-3,-3,-5,-3
-9,-6,2,7,-5,-1,-2,-8,-3,-3,-5,-3
-8,-5,3,7,-5,0,-3,-8,-3,-3,-5,-3
-8,-5,3,7,-6,0,-3,-8,-3,-3,-5,-4
-8,-6,3,7,-5,-1,-4,-8,-3,-3,-6,-5
-6,-6,1,6,-4,-2,-4,-8,-4,-4,-7,-5
-6,-6,0,6,-3,-2,-4,-9,-4,-4,-7,-6
-7,-6,1,6,-4,-2,-3,-8,-3,-3,-7,-5
-7,-7,1,7,-4,-2,-3,-8,-3,-3,-7,-5
-7,-7,0,7,-4,-2,-3,-7,-3,-4,-8,-5
-7,-8,0,7,-3,-3,-3,-8,-4,-4,-8,-5
-8,-8,0,7,-4,-3,-3,-8,-4,-4,-7,-5
-10,-8,2,8,-6,-2,-2,-8,-4,-2,-6,-4
-11,-9,2,9,-7,-2,-2,-8,-4,-1,-5,-3
-10,-9,1,9,-6,-3,-3,-7,-3,0,-4,-3
-10,-9,1,9,-6,-3,-3,-6,-3,0,-4,-3
-12,-9,3,10,-7,-2,-3,-6,-3,0,-4,-3
-14,-9,5,11,-9,-1,-2,-5,-3,0,-3,-3
-15,-10,5,12,-10,-2,-2,-5,-3,0,-3,-2
-14,-10,4,12,-9,-3,-3,-6,-3,-1,-4,-3
-13,-11,2,12,-8,-5,-4,-7,-4,-2,-5,-4
-13,-12,1,12,-8,-6,-3,-7,-5,-4,-6,-4
-15,-13,2,14,-9,-5,-3,-6,-5,-4,-6,-4
-16,-13,3,14,-9,-5,-3,-7,-5,-4,-6,-4
-16,-14,2,14,-9,-5,-3,-8,-6,-4,-6,-5
-15,-14,1,14,-8,-6,-3,-10,-8,-5,-7,-6
-15,-15,0,14,-7,-7,-3,-11,-9,-6,-8,-7
-13,-15,0,13,-6,-7,-4,-11,-9,-6,-8,-8
-13,-15,-1,13,-5,-8,-4,-11,-9,-6,-8,-8
-13,-15,-1,14,-6,-8,-5,-11,-9,-6,-9,-9
-13,-16,-1,14,-6,-9,-5,-10,-9,-6,-9,-9
-13,-16,-2,15,-6,-9,-5,-11,-9,-6,-10,-9
-15,-17,-1,16,-7,-9,-5,-11,-10,-6,-10,-9
-18,-17,1,17,-9,-8,-4,-11,-10,-6,-9,-8
-20,-18,3,19,-11,-7,-3,-10,-9,-5,-9,-7
-21,-18,3,19,-12,-8,-3,-11,-9,-5,-9,-6
-19,-18,1,19,-10,-9,-3,-11,-9,-5,-10,-7
-17,-18,0,19,-8,-10,-3,-11,-10,-6,-11,-8
-16,-18,-1,18,-7,-10,-4,-11,-10,-6,-11,-9
-16,-18,-2,18,-7,-10,-4,-11,-10,-6,-10,-9
-16,-19,-2,18,-7,-10,-3,-11,-10,-6,-10,-10
-17,-19,-2,18,-7,-10,-2,-10,-9,-6,-11,-10
-17,-21,-2,19,-7,-11,0,-8,-9,-8,-13,-12
-18,-22,-3,20,-8,-12,3,-7,-8,-9,-14,-13
-19,-23,-2,21,-9,-12,6,-3,-5,-8,-15,-14
-21,-23,0,21,-11,-11,10,4,1,-6,-13,-13
-22,-23,1,22,-12,-10,14,14,10,-1,-11,-12
-22,-23,1,22,-12,-10,18,26,21,4,-7,-9
-20,-20,1,20,-11,-9,20,36,32,13,0,-4
-15,-15,1,15,-8,-7,19,42,41,24,9,3
-9,-10,0,9,-5,-5,17,45,49,36,20,12
-2,-4,-1,3,0,-3,14,46,55,49,33,23
6,1,-3,-4,5,-1,9,46,60,64,46,35
15,8,-5,-12,10,1,2,46,65,78,60,47
23,16,-7,-20,15,4,-6,42,67,92,75,61
32,23,-7,-28,20,8,-14,34,65,103,89,73
40,31,-8,-36,24,12,-24,21,56,110,98,83
46,38,-8,-43,27,16,-33,2,41,108,102,89
47,45,-2,-47,25,22,-39,-21,21,99,99,90
42,49,6,-46,17,28,-40,-45,-1,83,88,86
32,47,14,-40,8,31,-38,-67,-25,61,71,76
21,38,17,-29,1,28,-33,-85,-49,35,49,60
8,24,16,-16,-4,20,-29,-101,-71,8,25,42
-3,10,14,-3,-8,12,-27,-117,-95,-19,1,23
-13,-3,11,8,-12,5,-26,-134,-119,-47,-22,5
-21,-13,8,17,-14,-1,-26,-145,-137,-70,-41,-10
-27,-21,6,24,-16,-7,-25,-148,-147,-85,-53,-20
-32,-27,5,29,-18,-11,-23,-144,-149,-93,-61,-27
-35,-31,4,33,-19,-13,-20,-135,-143,-93,-63,-30
-37,-33,4,34,-20,-14,-18,-122,-133,-89,-62,-31
-37,-34,3,35,-20,-15,-17,-106,-119,-84,-60,-31
-36,-34,3,34,-19,-15,-15,-90,-104,-77,-58,-31
-33,-32,2,33,-18,-15,-12,-75,-89,-69,-54,-30
-31,-30,1,31,-17,-14,-10,-61,-74,-60,-49,-29
-30,-28,3,30,-17,-12,-8,-48,-61,-50,-43,-26
-30,-27,4,29,-18,-11,-6,-38,-50,-42,-37,-23
-29,-25,4,27,-18,-9,-3,-31,-41,-36,-32,-19
-28,-23,5,25,-17,-8,-1,-26,-35,-31,-29,-16
-26,-21,5,24,-16,-7,1,-22,-31,-29,-27,-15
-26,-20,5,23,-16,-7,4,-20,-27,-27,-27,-14
-26,-20,5,23,-15,-7,7,-18,-24,-26,-26,-14
-25,-22,4,24,-15,-8,10,-16,-21,-24,-25,-14
-25,-23,3,24,-14,-10,11,-15,-18,-22,-24,-13
-26,-23,2,25,-14,-10,12,-15,-17,-21,-23,-12
-26,-24,2,25,-14,-11,12,-15,-16,-19,-22,-11
-25,-24,1,24,-14,-11,11,-16,-15,-18,-21,-10
-25,-24,1,24,-13,-10,10,-16,-15,-17,-20,-9
-25,-23,2,25,-14,-10,9,-16,-15,-17,-19,-8
-26,-23,2,25,-15,-10,8,-17,-15,-18,-20,-9
-26,-24,2,25,-15,-10,7,-18,-16,-18,-21,-10
-26,-23,2,25,-14,-10,6,-19,-16,-19,-21,-11
-25,-23,2,24,-14,-9,6,-19,-16,-19,-22,-11
-26,-23,3,24,-15,-9,6,-20,-16,-19,-22,-11
-28,-23,5,25,-17,-8,6,-20,-16,-18,-22,-10
-28,-23,5,25,-17,-8,6,-20,-15,-18,-21,-9
-27,-23,4,25,-16,-9,5,-20,-15,-18,-22,-10
-26,-24,2,25,-15,-10,4,-20,-15,-18,-22,-10
-25,-24,1,25,-14,-10,3,-20,-15,-17,-22,-9
-24,-24,-1,24,-12,-11,1,-20,-15,-16,-22,-9
-22,-24,-2,23,-10,-12,0,-20,-14,-15,-21,-8
-22,-25,-3,23,-9,-13,0,-19,-14,-15,-21,-7
-22,-25,-3,23,-9,-13,0,-19,-14,-15,-21,-6
-22,-25,-3,23,-9,-13,0,-19,-15,-16,-22,-6
-22,-25,-4,23,-9,-14,-1,-20,-15,-16,-22,-5
-22,-25,-4,24,-9,-14,0,-20,-14,-16,-22,-5
-23,-25,-3,24,-9,-14,0,-19,-13,-15,-21,-5
-23,-25,-3,24,-9,-14,0,-18,-12,-13,-20,-5
-22,-25,-3,24,-9,-14,0,-18,-11,-12,-20,-5
-21,-25,-4,23,-8,-14,0,-18,-11,-12,-19,-4
-20,-24,-3,22,-8,-13,1,-17,-11,-11,-18,-3
-21,-23,-1,21,-10,-11,2,-15,-9,-9,-17,-2
-23,-22,1,22,-12,-10,2,-14,-7,-7,-15,-1
-24,-22,2,23,-14,-9,3,-12,-5,-7,-15,0
-26,-22,3,24,-15,-9,3,-10,-4,-6,-15,0
-26,-23,2,24,-14,-9,3,-9,-3,-6,-15,-1
-23,-24,-1,24,-11,-12,2,-9,-3,-7,-16,-2
-20,-24,-4,22,-8,-14,0,-11,-5,-8,-17,-3
-19,-25,-5,22,-7,-14,0,-11,-5,-8,-18,-4
-21,-26,-4,23,-9,-14,0,-9,-4,-8,-19,-4
-23,-27,-2,25,-11,-14,1,-8,-3,-8,-19,-3
-25,-27,-2,26,-12,-14,1,-7,-2,-8,-19,-2
-25,-28,-2,26,-12,-14,1,-6,-1,-8,-18,-2
-25,-28,-3,27,-11,-15,1,-6,-1,-7,-18,-2
-25,-28,-4,27,-10,-16,1,-6,-1,-6,-17,-2
-25,-28,-3,27,-11,-15,1,-5,0,-5,-17,-2
-25,-28,-2,27,-11,-15,2,-4,1,-4,-16,-2
-25,-28,-2,27,-11,-15,3,-2,3,-3,-16,-1
-24,-28,-3,26,-11,-15,3,0,5,-2,-15,-1
-25,-29,-3,27,-11,-16,2,1,6,0,-14,0
-26,-29,-3,27,-12,-15,2,2,8,1,-13,0
-27,-28,-2,27,-12,-14,2,3,10,3,-11,1
-27,-28,-1,27,-13,-14,2,4,12,4,-11,1
-26,-28,-2,27,-12,-14,2,5,12,4,-11,1
-23,-27,-4,25,-9,-15,1,5,12,5,-11,1
-19,-27,-7,23,-6,-16,0,6,13,6,-10,1
-18,-26,-7,22,-5,-16,0,7,15,7,-9,2
-18,-25,-6,22,-6,-15,0,9,17,9,-8,3
-18,-24,-5,21,-7,-14,-1,10,19,11,-6,5
-19,-23,-4,21,-7,-13,-1,12,21,13,-4,6
-19,-22,-3,20,-8,-12,-1,13,22,15,-2,8
-20,-21,-2,20,-8,-11,0,14,24,17,0,9
-20,-21,-1,21,-9,-11,1,16,25,19,1,11
-21,-21,0,21,-10,-10,1,17,27,21,3,12
-21,-20,0,21,-10,-9,0,18,28,23,4,14
-20,-20,0,20,-10,-9,0,19,28,24,6,15
-20,-20,0,19,-10,-9,-1,19,29,25,6,15
-19,-19,0,18,-9,-9,-2,19,30,26,6,15
-18,-18,0,18,-8,-8,-3,19,30,26,6,14
-17,-17,0,17,-8,-8,-4,19,30,26,6,14
-16,-16,0,16,-7,-7,-4,18,30,26,7,14
-15,-15,-1,16,-6,-8,-4,17,30,26,7,14
-13,-14,-2,14,-5,-8,-5,17,31,26,7,14
-12,-14,-1,13,-4,-7,-5,18,32,27,8,14
-11,-14,-1,12,-5,-7,-6,18,32,27,8,14
-11,-14,-2,12,-5,-7,-7,17,31,27,8,14
-11,-13,-2,12,-5,-7,-7,17,31,27,8,15
-11,-13,-1,12,-5,-6,-7,17,31,28,9,16
-12,-12,-1,12,-6,-6,-7,18,32,29,10,16
-12,-12,0,13,-6,-5,-7,17,32,30,11,16
-13,-12,1,13,-7,-5,-7,17,32,31,12,16
-14,-12,3,13,-9,-4,-7,17,32,32,13,17
-14,-11,4,13,-10,-3,-6,17,32,32,13,17
-13,-11,3,12,-9,-3,-5,17,32,31,13,18
-12,-11,1,11,-7,-3,-5,16,32,30,13,18
-11,-11,1,11,-6,-3,-5,15,31,29,13,18
-12,-10,2,12,-7,-3,-5,15,30,29,13,18
-13,-10,2,12,-8,-3,-5,14,30,29,13,18
-13,-11,3,12,-8,-3,-5,14,29,29,12,18
-14,-11,4,12,-9,-3,-4,13,29,28,12,17
-16,-12,4,13,-10,-3,-4,12,27,28,12,17
-16,-13,4,14,-10,-4,-4,11,26,28,13,16
-16,-13,4,14,-10,-4,-4,10,25,28,13,16
-17,-13,5,15,-11,-3,-4,9,24,27,13,16
-18,-13,5,15,-11,-3,-4,8,23,26,12,14
-17,-13,4,15,-10,-3,-4,7,22,24,11,13
-17,-13,3,15,-10,-4,-4,6,20,23,10,11
-17,-13,3,15,-9,-4,-4,5,19,20,8,8
-16,-13,3,15,-9,-4,-4,4,17,19,7,7
-16,-13,3,15,-9,-4,-3,3,15,18,6,6
-18,-14,3,16,-10,-4,-2,2,14,17,5,5
-19,-15,4,17,-10,-4,-2,1,13,16,5,5
-20,-16,4,18,-11,-5,-1,0,12,15,5,5
-21,-17,4,19,-12,-5,-1,0,12,13,4,4
-22,-17,5,20,-13,-6,0,-1,11,12,3,3
-22,-17,5,20,-13,-6,0,-2,9,11,3,3
-21,-17,4,19,-13,-6,0,-3,7,10,2,1
-20,-17,3,19,-12,-7,0,-4,5,9,0,0
-20,-17,3,19,-12,-7,0,-5,4,8,-1,-1
-21,-18,3,19,-12,-7,0,-6,4,7,-2,-2
-21,-18,3,19,-12,-7,1,-6,3,6,-3,-2
-22,-18,3,20,-12,-7,2,-7,3,5,-3,-2
-23,-19,3,21,-13,-7,4,-7,3,5,-3,-2
-23,-20,3,21,-13,-8,4,-7,3,5,-3,-2
-23,-20,3,21,-12,-8,4,-7,2,4,-3,-3
-22,-20,2,21,-12,-8,3,-8,1,3,-4,-3
-21,-19,3,20,-12,-7,4,-8,1,3,-4,-4
-21,-18,3,20,-12,-7,4,-7,1,3,-4,-4
-21,-18,3,20,-12,-7,5,-6,1,3,-4,-4
-21,-18,2,20,-12,-8,6,-6,2,3,-4,-4
-21,-18,2,20,-12,-8,7,-5,2,3,-4,-3
-22,-18,4,20,-13,-7,7,-4,3,3,-3,-2
-23,-17,6,20,-15,-5,8,-3,3,3,-2,-1
-25,-17,8,21,-16,-4,8,-2,4,4,-2,-1
-25,-17,8,22,-17,-4,8,-1,5,5,-1,0
-25,-18,8,22,-17,-4,9,0,6,7,-1,0
-26,-18,8,22,-17,-4,9,1,6,7,0,0
-26,-18,8,22,-17,-4,9,1,7,8,0,0
-26,-18,8,22,-17,-4,9,2,8,8,0,0
-26,-18,7,22,-16,-5,9,2,8,8,0,0
-25,-19,6,22,-16,-6,8,2,8,7,-1,0
-25,-20,5,23,-15,-6,7,2,8,7,-1,0
-23,-20,4,22,-14,-7,5,2,8,6,-2,0
-22,-19,3,21,-13,-7,2,2,8,6,-2,0
-21,-18,2,20,-12,-7,0,1,8,5,-2,0
-21,-18,3,20,-12,-7,-1,1,7,5,-2,0
-21,-17,4,19,-12,-6,-2,0,6,5,-2,0
-22,-17,5,19,-13,-6,-2,-2,5,5,-2,0
-22,-17,6,19,-14,-5,-3,-5,4,4,-2,0
-23,-17,6,20,-14,-6,-3,-6,3,3,-3,0
-22,-18,4,20,-13,-7,-4,-7,1,2,-3,0
-22,-19,3,21,-13,-8,-6,-8,0,2,-3,0
-23,-20,2,22,-13,-9,-7,-8,0,2,-3,0
-23,-21,2,22,-12,-9,-8,-9,-1,2,-3,0
-23,-22,1,23,-12,-9,-9,-9,-2,1,-4,0
-24,-23,1,23,-12,-10,-9,-9,-2,0,-6,-1
-24,-23,0,24,-12,-10,-10,-9,-3,-1,-7,-1
-23,-23,0,23,-11,-11,-10,-10,-3,-2,-8,-1
-24,-23,0,23,-12,-11,-10,-11,-4,-3,-8,-2
-25,-23,1,24,-13,-11,-9,-11,-4,-3,-8,-2
-24,-22,1,23,-13,-10,-8,-10,-4,-2,-8,-1
-20,-20,0,19,-10,-10,-7,-9,-3,-1,-6,-1
-16,-17,0,16,-8,-8,-5,-8,-2,0,-5,0
-14,-14,0,14,-7,-6,-4,-7,-1,1,-3,1
-12,-11,1,12,-6,-4,-3,-6,0,2,-2,2
-9,-8,1,9,-5,-3,-2,-5,1,2,-2,2
-7,-6,1,7,-4,-2,0,-4,1,1,-2,3
-6,-4,2,5,-4,-1,1,-4,2,1,-1,4
-6,-3,2,5,-4,0,2,-3,3,2,0,5
-5,-3,2,4,-3,0,2,-2,3,2,0,6
-3,-2,1,3,-2,0,3,-1,4,3,1,7
-3,-1,2,2,-3,1,4,0,6,3,2,7
-3,0,3,2,-3,2,5,0,7,4,3,8
-2,1,3,1,-3,2,6,0,7,4,3,8
-1,1,2,0,-2,2,6,1,7,4,3,7
-1,1,2,0,-2,2,7,1,7,4,3,7
-2,1,3,0,-3,3,8,1,7,4,3,7
-4,1,5,1,-4,3,8,1,7,3,3,7
-5,0,5,2,-4,3,9,1,7,3,3,6
-3,0,3,1,-3,2,9,1,6,2,2,5
-2,0,2,1,-2,2,9,0,4,0,1,4
0,0,1,0,0,1,9,0,3,0,0,4
1,0,0,0,1,1,10,0,3,-1,0,3
1,0,0,0,1,1,10,0,2,-2,-1,3
1,0,0,-1,1,1,10,0,2,-3,-1,2
2,1,-1,-2,2,0,10,-1,1,-3,-2,2
4,2,-1,-3,3,0,10,-2,1,-4,-2,1
3,3,-1,-3,2,1,10,-2,1,-4,-1,1
1,2,0,-1,0,1,10,-2,1,-3,-1,1
-1,1,1,0,-1,1,11,-2,1,-3,-1,1
-2,1,2,1,-2,2,12,-2,1,-3,-1,2
-2,1,3,1,-2,2,13,-2,1,-3,0,2
-1,1,2,0,-1,2,13,-2,1,-3,0,3
1,1,0,-1,1,0,12,-2,0,-4,-1,2
4,1,-2,-2,3,0,11,-2,0,-5,-1,2
4,2,-2,-3,3,0,11,-2,0,-5,-1,2
2,2,0,-2,1,1,11,-2,-1,-5,-1,2
1,2,0,-2,0,2,11,-2,-1,-5,-1,3
1,2,0,-2,0,2,12,-2,-1,-5,-1,3
2,2,0,-2,1,1,12,-2,-1,-5,-1,3
3,2,0,-2,2,1,13,-2,-1,-5,-1,3
3,2,0,-2,2,1,13,-2,-1,-5,0,3
2,2,0,-2,1,1,13,-2,0,-5,0,3
1,2,1,-2,0,2,14,-1,0,-5,0,3
1,2,1,-2,0,2,14,-1,0,-5,-1,3
1,2,1,-2,0,2,14,-1,0,-5,-1,3
2,3,1,-3,0,2,14,-1,-1,-5,-1,3
2,3,1,-3,1,2,14,-1,-1,-5,-1,3
2,3,1,-2,0,2,14,-1,-1,-5,-1,3
2,3,1,-2,0,3,14,-1,-1,-5,-1,3
3,4,0,-3,1,3,14,-1,-1,-6,-1,3
6,4,-1,-5,3,2,14,-2,-2,-6,-2,2
7,4,-2,-6,4,2,14,-2,-2,-6,-2,2
6,4,-1,-6,3,2,14,-2,-2,-6,-2,3
5,4,0,-5,2,2,14,-2,-1,-5,-2,3
4,5,1,-4,1,3,15,-1,-1,-5,-2,4
4,5,1,-5,2,3,15,-1,-1,-5,-2,4
5,5,0,-5,3,2,14,-2,-1,-6,-2,3
6,5,0,-5,3,2,14,-2,-1,-6,-2,3
6,5,0,-5,3,3,15,-1,-1,-5,-2,4
6,5,0,-5,3,3,15,-1,-1,-5,-2,4
6,5,0,-6,3,3,15,-2,-2,-6,-2,3
7,6,0,-6,4,3,15,-2,-2,-6,-3,3
7,7,0,-7,3,4,15,-1,-1,-5,-2,3
6,7,1,-7,2,4,15,-1,-1,-5,-2,3
6,7,2,-6,2,5,16,-1,-1,-5,-2,3
6,7,2,-6,1,5,16,0,-1,-5,-2,3
6,7,2,-6,1,5,17,0,0,-5,-2,3
6,7,2,-6,1,5,18,1,0,-5,-3,3
5,7,2,-6,1,5,20,4,1,-5,-3,2
4,6,2,-5,1,4,22,7,3,-6,-4,2
4,6,1,-5,1,4,24,12,7,-5,-4,1
4,6,1,-5,1,4,27,20,14,-3,-3,0
4,6,3,-5,0,4,31,29,23,2,0,1
3,8,5,-5,0,6,34,39,33,9,5,5
6,12,6,-8,0,9,35,46,43,20,13,11
12,18,6,-14,3,12,33,51,52,32,24,19
19,24,6,-22,7,15,29,54,61,47,37,30
28,31,4,-30,12,17,24,57,70,64,52,42
37,38,2,-38,18,20,17,58,78,82,69,55
45,45,0,-46,23,22,8,56,83,99,85,69
53,52,0,-53,28,25,0,52,84,114,101,82
61,60,-1,-61,32,29,-10,42,80,126,114,95
68,67,0,-67,35,33,-20,26,69,130,122,104
71,73,2,-72,35,38,-28,4,50,125,123,108
71,78,7,-74,32,43,-34,-21,24,111,117,107
67,79,13,-73,27,46,-36,-48,-4,89,102,100
59,74,16,-66,21,45,-35,-71,-32,63,82,86
48,62,15,-55,17,38,-31,-90,-57,34,58,68
36,47,11,-42,13,29,-28,-108,-82,4,32,48
26,33,8,-29,10,21,-27,-124,-107,-26,7,29
15,21,5,-18,6,13,-27,-138,-130,-55,-17,11
5,10,4,-7,1,8,-25,-144,-145,-77,-35,-3
-1,3,4,0,-3,5,-22,-141,-149,-89,-46,-12
-5,-1,4,3,-5,2,-19,-134,-147,-94,-53,-19
-5,-3,1,4,-4,0,-17,-123,-139,-95,-57,-24
-3,-4,-1,3,-1,-2,-15,-110,-128,-92,-57,-26
-3,-5,-1,3,-1,-3,-13,-94,-113,-85,-54,-27
-3,-4,0,4,-1,-2,-10,-76,-97,-76,-49,-25
-2,-3,0,3,-1,-1,-7,-60,-80,-65,-43,-22
0,0,0,0,0,0,-4,-45,-64,-54,-37,-18
2,2,0,-2,1,1,-2,-32,-50,-44,-30,-15
5,4,-1,-5,3,2,0,-22,-39,-37,-25,-12
6,5,-1,-6,3,2,2,-15,-32,-32,-22,-10
7,6,0,-6,3,3,4,-10,-26,-28,-19,-8
6,6,1,-6,2,4,7,-6,-22,-24,-16,-6
4,6,3,-5,1,4,9,-3,-18,-22,-15,-5
3,5,3,-4,1,4,11,-1,-14,-20,-14,-5
3,5,3,-4,0,4,13,0,-11,-18,-13,-5
3,5,1,-4,1,3,14,1,-9,-17,-12,-4
4,4,0,-4,1,2,14,1,-7,-16,-11,-3
4,4,-1,-4,2,1,14,1,-7,-15,-11,-3
5,4,-2,-4,3,1,13,1,-7,-15,-10,-3
6,4,-2,-4,4,0,13,2,-7,-15,-10,-3
6,4,-2,-5,4,0,13,2,-6,-14,-10,-2
4,3,0,-4,3,1,13,2,-5,-14,-10,-2
2,2,1,-3,1,1,13,2,-4,-13,-9,-1
2,2,0,-3,1,1,13,2,-4,-13,-9,-1
4,3,-1,-3,2,1,13,3,-3,-13,-9,-1
4,3,-1,-3,2,1,13,3,-3,-12,-9,0
3,3,0,-3,1,1,13,3,-2,-12,-9,0
2,3,1,-2,1,2,13,4,-2,-12,-9,0
1,3,2,-2,0,2,13,4,-2,-12,-10,0
1,3,2,-2,0,2,13,4,-2,-12,-10,0
3,3,0,-3,2,1,13,4,-2,-12,-10,0
6,3,-3,-5,5,0,12,3,-2,-13,-11,-1
8,4,-4,-6,6,0,12,3,-2,-13,-11,-1
6,4,-2,-5,4,1,12,4,-2,-12,-10,-1
5,4,-2,-5,3,1,11,4,-2,-12,-10,-1
5,4,-1,-5,3,0,11,4,-2,-12,-10,-2
4,4,0,-4,2,1,11,5,-1,-12,-10,-2
3,4,0,-4,1,1,11,6,0,-11,-9,-1
3,4,1,-3,1,2,12,6,0,-11,-9,-1
3,3,0,-3,1,2,12,7,1,-10,-9,-1
4,3,0,-3,2,1,11,7,1,-10,-9,-2
5,3,-1,-4,2,1,11,7,1,-10,-8,-2
4,4,-1,-4,2,2,11,7,2,-9,-8,-3
4,4,-1,-4,2,2,10,7,2,-9,-8,-3
6,4,-2,-5,4,1,9,7,2,-9,-8,-3
7,5,-3,-6,5,0,9,7,2,-9,-8,-4
7,5,-3,-6,5,0,9,7,3,-9,-8,-4
6,4,-2,-5,4,1,10,8,4,-9,-7,-3
5,4,-1,-5,3,1,10,9,5,-8,-7,-2
5,4,-1,-4,3,1,10,10,5,-8,-6,-1
5,4,-2,-5,3,1,10,10,6,-7,-6,0
6,5,-1,-5,3,1,9,11,7,-7,-5,2
5,5,0,-5,2,2,9,12,8,-6,-4,3
6,6,1,-6,2,3,8,13,9,-5,-4,4
7,6,0,-6,4,2,8,14,9,-5,-3,5
8,6,0,-7,5,2,7,15,10,-4,-3,6
6,6,0,-6,3,2,7,17,12,-3,-2,7
5,6,1,-5,2,3,7,18,14,-1,-1,8
5,6,1,-5,2,3,7,19,14,0,0,9
6,7,1,-6,2,3,7,19,15,0,1,9
7,8,0,-7,3,3,7,20,16,1,2,10
8,8,0,-8,4,3,6,21,17,2,2,10
9,8,0,-8,5,3,6,23,18,3,3,10
11,8,-1,-9,6,3,5,24,20,4,3,10
12,9,-3,-11,8,2,5,24,21,4,4,10
13,10,-4,-12,8,2,4,25,22,5,4,10
14,10,-4,-12,8,2,3,27,23,6,5,10
14,11,-4,-12,8,3,2,29,25,8,6,11
13,11,-3,-12,8,3,2,30,27,10,7,12
12,12,0,-12,6,5,2,31,29,12,9,13
12,12,1,-12,5,6,2,33,30,14,10,14
11,13,2,-12,5,6,2,34,32,16,12,15
10,13,3,-12,4,8,2,36,33,17,13,16
10,14,4,-12,3,8,1,38,35,19,15,16
12,15,2,-14,5,8,1,39,36,20,15,16
15,16,1,-16,7,8,0,39,37,21,15,16
16,17,0,-16,8,8,0,39,38,22,16,16
17,17,0,-17,8,9,0,39,38,23,17,16
18,18,1,-18,8,9,-1,39,39,24,17,17
18,19,1,-18,8,9,-1,39,39,25,18,17
17,19,2,-18,7,10,-2,40,40,26,19,17
16,19,3,-18,7,10,-2,40,40,27,19,17
17,20,3,-18,7,11,-3,41,41,27,20,18
18,21,2,-19,7,11,-3,41,41,28,20,19
19,21,2,-20,8,11,-3,40,41,28,21,19
19,22,2,-20,8,12,-4,39,40,29,21,19
19,22,2,-21,8,12,-4,38,40,29,21,18
19,23,3,-21,8,13,-4,37,40,30,22,18
20,24,2,-22,9,13,-4,37,40,30,22,18
21,24,2,-22,9,13,-5,38,40,30,22,17
22,24,2,-22,9,12,-5,38,40,30,22,17
21,24,2,-23,9,13,-6,38,40,30,22,17
21,24,3,-23,9,13,-6,38,40,31,23,17
21,24,2,-23,9,13,-6,38,39,31,23,17
21,24,3,-23,9,13,-7,38,39,31,23,17
20,24,4,-22,8,14,-7,39,40,32,24,17
20,24,4,-22,7,14,-8,39,39,32,24,17
21,24,3,-23,8,13,-8,38,38,31,24,17
23,25,2,-24,10,13,-8,36,37,31,23,16
25,25,0,-25,12,12,-8,35,36,30,22,16
25,25,1,-25,11,13,-8,34,36,30,22,16
23,25,3,-24,9,14,-7,33,36,30,22,16
21,25,4,-23,8,14,-7,33,35,29,22,16
21,25,4,-23,8,14,-7,32,34,28,21,16
21,25,5,-23,8,14,-7,32,33,28,20,15
19,25,6,-22,7,15,-6,32,32,28,20,15
18,25,7,-21,6,15,-6,31,31,28,20,15
18,24,7,-21,5,15,-5,31,31,27,20,14
17,24,7,-20,4,15,-5,30,30,26,19,12
15,23,8,-19,3,15,-4,30,29,25,18,11
14,22,8,-18,3,15,-4,29,28,24,17,9
14,21,7,-18,3,14,-3,27,26,23,16,8
15,21,6,-18,4,13,-2,26,24,21,15,6
15,20,5,-18,5,12,-2,25,23,20,13,5
17,20,4,-18,6,11,-2,23,21,18,12,4
17,20,3,-18,7,11,-2,22,19,17,11,3
16,19,3,-17,6,11,-2,21,18,16,10,3
16,19,2,-17,6,10,-2,20,16,15,9,2
16,18,2,-17,7,9,-2,20,15,14,8,0
15,18,3,-16,6,9,-1,19,15,13,8,0
13,17,4,-15,4,10,0,19,14,12,7,0
11,16,5,-14,3,10,0,18,13,11,6,-1
12,15,4,-13,3,9,0,17,12,10,5,-2
12,15,3,-13,4,9,0,16,11,9,5,-3
11,15,3,-13,4,9,0,15,10,9,4,-4
11,14,3,-13,4,8,0,14,10,8,4,-4
11,14,3,-13,4,8,0,14,8,7,3,-5
11,13,2,-13,5,7,0,13,7,6,2,-6
10,13,3,-12,4,7,0,12,6,5,1,-7
9,13,4,-11,3,7,1,12,6,4,0,-7
8,13,5,-11,2,7,1,12,6,4,0,-8
9,12,4,-10,3,7,1,12,5,3,-1,-9
9,11,2,-10,4,6,1,11,4,3,-2,-9
10,11,1,-11,5,5,0,11,4,3,-2,-10
11,12,1,-11,5,5,0,10,4,3,-2,-10
10,12,2,-11,4,5,0,10,4,2,-2,-10
9,11,2,-10,3,5,1,10,4,2,-2,-10
8,11,3,-10,2,6,1,10,3,2,-2,-10
8,11,3,-10,2,6,1,10,3,2,-2,-10
8,11,3,-10,2,6,1,10,3,2,-2,-10
8,10,3,-9,2,7,1,10,3,2,-2,-10
8,10,2,-9,2,6,1,10,2,2,-2,-11
8,10,2,-9,3,6,0,10,2,2,-2,-12
8,10,2,-9,3,6,0,10,3,2,-2,-13
8,10,2,-9,3,6,0,10,3,2,-3,-13
9,10,2,-9,3,6,0,10,3,1,-3,-14
9,10,1,-10,3,5,0,10,3,1,-4,-14
10,10,1,-10,4,5,0,10,2,0,-5,-15
10,10,1,-10,4,5,0,10,3,0,-4,-14
9,11,3,-9,3,6,0,10,4,1,-3,-13
8,11,3,-9,2,7,1,11,4,1,-3,-13
7,11,3,-9,2,6,1,11,4,1,-3,-12
7,10,3,-9,2,6,0,11,4,1,-3,-12
7,10,2,-9,2,6,0,11,4,1,-3,-12
7,10,3,-9,2,6,0,10,4,1,-3,-12
7,10,3,-8,1,6,0,9,4,1,-3,-12
7,10,3,-8,2,6,0,9,2,1,-4,-13
7,10,2,-8,2,5,0,9,2,1,-4,-13
6,10,3,-8,1,6,0,10,2,1,-4,-13
5,10,4,-7,0,6,1,12,4,2,-4,-13
4,10,6,-7,-1,7,2,12,5,3,-3,-13
4,10,6,-7,-1,7,2,12,5,3,-2,-13
5,9,4,-7,0,6,1,12,4,3,-3,-13
6,9,3,-7,1,5,0,12,4,3,-3,-13
7,9,2,-7,2,5,0,13,4,3,-4,-13
9,9,1,-9,3,5,0,13,4,2,-4,-13
10,9,0,-10,4,5,0,12,4,2,-4,-13
10,9,0,-10,4,4,0,11,3,1,-5,-14
10,10,0,-10,4,4,0,11,3,1,-6,-14
9,10,0,-10,4,5,0,11,3,1,-6,-13
8,10,1,-9,3,5,0,11,3,2,-6,-13
8,9,1,-9,3,5,1,11,3,2,-6,-12
7,9,2,-8,2,5,1,11,3,2,-5,-11
5,9,4,-7,0,6,2,12,4,3,-4,-10
4,9,5,-6,-1,7,2,12,5,3,-4,-9
4,9,5,-6,-1,7,2,12,5,3,-4,-9
3,9,5,-5,-1,6,1,11,4,3,-4,-9
2,8,5,-5,-2,6,0,11,4,3,-4,-9
2,7,5,-5,-2,6,0,11,4,3,-4,-9
4,8,5,-6,-1,6,0,12,4,4,-4,-9
4,9,5,-7,0,6,0,13,4,4,-4,-8
5,9,5,-7,0,6,0,13,4,4,-4,-8
5,9,5,-8,0,6,0,13,4,3,-4,-8
5,9,4,-8,0,6,0,12,4,3,-5,-8
6,9,3,-8,1,6,0,11,4,2,-5,-8
7,9,2,-8,2,6,0,10,3,2,-6,-9
7,9,2,-8,2,6,0,9,2,1,-6,-9
6,8,2,-7,1,6,0,9,2,1,-6,-9
5,8,3,-7,1,5,0,9,1,1,-7,-9
6,8,2,-7,1,5,0,9,1,1,-7,-9
5,8,3,-7,0,5,0,9,1,1,-7,-9
4,8,4,-6,0,5,0,9,1,1,-7,-8
3,7,4,-5,-1,5,0,9,1,1,-7,-8
4,7,3,-6,0,4,0,9,0,1,-7,-8
5,7,2,-6,1,4,0,8,0,1,-7,-8
5,7,2,-7,1,5,0,8,0,1,-7,-7
4,6,2,-6,1,5,0,8,0,1,-7,-7
2,6,3,-5,0,5,0,8,0,0,-7,-7
2,6,4,-4,-1,5,0,8,0,0,-7,-8
3,6,3,-5,0,4,0,7,-1,-1,-7,-8
4,6,2,-5,0,4,-1,6,-2,-1,-8,-9
4,6,2,-5,0,4,-1,6,-3,-1,-8,-9
3,6,3,-4,-1,5,0,6,-2,-1,-7,-8
3,6,4,-4,-1,6,0,6,-2,-1,-7,-8
3,6,3,-4,-1,5,0,5,-2,-2,-7,-8
4,6,2,-5,0,4,0,5,-3,-3,-8,-8
6,6,0,-5,2,3,-1,4,-4,-4,-9,-9
6,6,0,-5,2,3,-1,3,-5,-4,-9,-9
5,6,1,-5,1,3,-1,3,-5,-5,-9,-8
3,6,2,-5,0,4,-1,4,-5,-5,-9,-8
2,6,3,-4,-1,4,-1,4,-5,-4,-9,-7
1,5,3,-4,-1,4,-1,4,-5,-4,-9,-8
2,5,3,-4,-1,4,-1,3,-6,-4,-9,-8
2,4,2,-3,-1,3,-1,3,-6,-4,-9,-8
2,4,2,-3,-1,3,-1,3,-6,-4,-9,-8
2,4,2,-3,0,3,-1,3,-6,-4,-9,-8
2,5,2,-3,0,3,-1,3,-6,-4,-9,-8
2,5,2,-3,0,3,-1,2,-7,-5,-9,-8
3,5,1,-4,0,3,-1,2,-7,-5,-10,-8
4,5,0,-4,1,2,-1,2,-8,-6,-10,-8
3,5,1,-4,1,3,-1,2,-7,-6,-10,-8
3,4,1,-3,1,2,-1,2,-7,-6,-10,-8
3,4,0,-3,1,2,-1,1,-7,-6,-10,-9
3,4,0,-3,1,2,-1,1,-7,-6,-10,-9
1,4,1,-2,0,2,-1,1,-7,-6,-10,-9
0,4,2,-1,-1,3,-1,1,-7,-5,-10,-9
1,4,2,-2,-1,3,-1,1,-7,-5,-10,-8
2,4,2,-3,0,3,-1,2,-7,-5,-10,-8
2,4,1,-3,0,3,-1,2,-8,-5,-10,-8
2,3,1,-3,0,3,-1,2,-8,-5,-10,-8
1,3,1,-2,0,3,-1,2,-8,-5,-10,-8
1,3,2,-2,0,3,-1,2,-8,-6,-10,-8
0,3,2,-2,-1,3,-1,1,-8,-6,-10,-8
1,3,1,-2,0,3,-1,0,-9,-7,-11,-8
2,3,0,-3,0,2,-1,-1,-10,-7,-11,-9
3,3,0,-3,1,2,-1,-2,-10,-8,-11,-9
4,3,-1,-3,2,1,-1,-2,-11,-8,-11,-9
3,3,0,-3,1,1,-1,-2,-11,-8,-11,-9
2,4,2,-3,0,2,-1,-1,-10,-7,-11,-8
1,4,2,-3,0,3,-1,0,-10,-7,-10,-8
2,4,1,-3,0,2,-2,0,-10,-6,-10,-7
2,3,1,-3,0,2,-2,0,-10,-6,-10,-7
1,3,1,-2,0,2,-2,0,-10,-6,-10,-6
1,3,1,-2,0,2,-2,0,-10,-6,-10,-6
2,3,1,-2,0,2,-2,0,-10,-6,-10,-6
3,3,0,-3,1,1,-2,0,-10,-7,-10,-7
2,2,0,-2,1,1,-2,-1,-11,-7,-11,-7
1,2,1,-2,0,1,-2,-1,-11,-7,-11,-8
0,2,2,-1,-1,2,-1,-1,-10,-7,-10,-8
-1,2,3,-1,-2,2,-1,0,-10,-7,-10,-8
-1,2,3,-1,-3,3,0,0,-9,-6,-10,-8
-2,2,4,0,-4,3,0,0,-9,-6,-9,-8
-3,2,5,0,-4,3,0,0,-9,-6,-9,-8
-2,2,4,0,-3,2,0,0,-9,-7,-9,-8
-1,2,3,-1,-2,2,0,0,-9,-7,-9,-8
-1,2,3,-1,-2,2,0,0,-9,-7,-9,-7
0,2,2,-1,-1,2,0,0,-9,-7,-9,-7
0,2,1,-2,0,1,-1,-1,-10,-7,-10,-8
1,2,0,-2,0,1,-1,-1,-11,-8,-11,-8
1,1,-1,-2,1,0,-1,-1,-11,-8,-11,-9
2,1,-1,-2,1,0,-1,-1,-11,-9,-11,-9
3,1,-2,-2,2,0,-2,-2,-11,-9,-11,-9
3,0,-2,-2,2,-1,-2,-3,-11,-9,-11,-9
3,0,-2,-2,2,-1,-2,-3,-11,-9,-11,-10
3,1,-2,-2,2,0,-2,-3,-11,-9,-11,-10
3,1,-1,-2,2,0,-2,-3,-11,-9,-10,-10
2,1,0,-2,0,0,-2,-3,-11,-8,-10,-9
0,1,0,-1,0,0,-2,-4,-11,-8,-10,-9
0,1,1,0,-1,0,-1,-4,-11,-8,-10,-9
0,1,1,0,-2,1,-1,-3,-11,-8,-10,-8
-1,1,2,0,-2,1,0,-3,-10,-8,-9,-8
-1,1,2,0,-2,1,0,-3,-10,-8,-9,-8
0,1,1,-1,-1,1,-1,-3,-11,-8,-10,-8
2,1,0,-2,0,0,-1,-4,-11,-8,-10,-9
2,2,0,-2,0,1,-1,-4,-11,-8,-10,-9
2,2,0,-2,0,1,-1,-4,-11,-8,-10,-9
1,2,1,-2,0,1,-1,-4,-11,-8,-10,-9
0,1,2,-1,-1,1,-1,-4,-11,-8,-10,-9
-1,1,2,0,-2,2,0,-4,-11,-8,-10,-9
0,1,2,0,-2,1,0,-4,-11,-7,-9,-9
0,1,1,-1,-1,1,0,-5,-11,-7,-9,-9
1,1,1,-1,-1,1,0,-5,-11,-7,-9,-9
1,2,2,-1,-1,1,0,-4,-10,-7,-9,-8
0,2,4,-1,-2,2,0,-4,-10,-7,-9,-8
0,3,5,-1,-3,3,0,-4,-9,-7,-9,-8
0,3,4,-2,-2,3,0,-4,-10,-7,-9,-8
1,4,3,-2,-1,3,0,-4,-10,-7,-9,-8
1,4,3,-3,-1,3,1,-4,-10,-6,-9,-7
1,5,4,-3,-2,4,2,-4,-10,-5,-8,-6
1,5,5,-3,-2,4,2,-3,-9,-5,-8,-6
2,6,5,-4,-2,5,3,-2,-8,-4,-7,-5
1,6,6,-4,-2,5,3,-1,-7,-4,-7,-5
1,7,7,-4,-3,6,4,-1,-7,-3,-7,-5
1,7,6,-4,-2,6,4,0,-6,-3,-7,-5
1,8,6,-4,-2,6,5,0,-6,-2,-7,-5
0,7,7,-4,-3,6,5,0,-5,-2,-7,-5
0,7,7,-4,-4,6,6,1,-5,-2,-7,-5
0,8,8,-4,-4,7,7,1,-4,-1,-6,-4
1,9,8,-4,-4,8,7,1,-4,-2,-6,-4
1,9,8,-4,-4,8,6,0,-4,-2,-6,-4
2,9,7,-6,-3,8,5,-2,-5,-3,-7,-4
3,10,7,-7,-2,8,4,-2,-5,-3,-7,-4
3,11,8,-7,-3,9,3,-2,-5,-2,-6,-4
2,11,9,-6,-4,9,2,-2,-5,-2,-6,-4
2,12,10,-6,-4,10,1,-2,-5,-2,-5,-3
2,12,10,-6,-4,10,0,-3,-5,-2,-5,-3
2,12,9,-7,-4,10,-1,-3,-6,-3,-4,-2
3,12,8,-7,-3,10,-2,-4,-7,-3,-4,-2
3,11,8,-7,-3,9,-4,-6,-8,-4,-4,-2
3,11,7,-7,-2,9,-5,-7,-8,-4,-4,-2
4,10,6,-7,-1,7,-7,-7,-9,-5,-5,-3
5,9,4,-7,0,6,-8,-8,-10,-6,-6,-4
6,9,3,-8,1,5,-9,-8,-11,-7,-6,-4
6,9,3,-8,1,5,-9,-9,-11,-7,-7,-4
6,9,3,-7,1,5,-10,-9,-12,-7,-7,-4
6,8,2,-7,1,5,-11,-10,-12,-7,-7,-5
5,8,3,-7,1,5,-11,-10,-12,-7,-7,-5
4,7,3,-6,0,5,-11,-11,-12,-7,-7,-4
4,7,3,-6,0,5,-11,-11,-12,-7,-7,-4
4,7,2,-6,0,4,-10,-11,-12,-8,-7,-4
5,6,0,-6,2,3,-10,-11,-13,-8,-7,-4
6,6,-1,-6,3,2,-10,-11,-13,-8,-7,-4
6,5,0,-5,3,2,-10,-10,-13,-8,-6,-4
4,5,0,-4,1,2,-10,-10,-12,-8,-6,-4
3,5,1,-4,1,2,-10,-11,-13,-9,-6,-4
2,4,2,-3,0,2,-10,-11,-13,-9,-6,-4
1,4,3,-2,-1,2,-10,-10,-13,-9,-5,-3
1,3,2,-2,0,1,-9,-10,-13,-9,-5,-4
1,2,1,-1,0,0,-9,-10,-13,-10,-6,-4
0,1,1,0,0,0,-7,-10,-13,-10,-6,-5
-2,0,1,1,-1,0,-5,-9,-13,-10,-6,-5
-2,-1,1,2,-1,0,-4,-9,-13,-10,-6,-6
-2,-2,0,3,-1,-2,-4,-9,-13,-11,-7,-6
-2,-3,-1,3,0,-3,-5,-9,-14,-12,-7,-7
-3,-3,-1,3,-1,-3,-5,-9,-14,-13,-7,-7
-3,-3,-1,3,-1,-3,-5,-9,-14,-13,-7,-7
-2,-4,-2,3,-1,-4,-5,-9,-14,-14,-7,-8
-2,-4,-3,3,0,-5,-5,-10,-15,-15,-8,-9
-2,-5,-4,4,0,-5,-5,-10,-15,-15,-8,-9
-2,-5,-4,4,0,-6,-4,-10,-15,-15,-8,-10
-2,-6,-5,4,1,-6,-5,-11,-15,-15,-8,-10
-2,-6,-4,4,0,-6,-5,-11,-15,-15,-8,-9
-3,-6,-3,4,0,-5,-4,-10,-15,-15,-8,-9
-3,-6,-2,5,0,-5,-4,-10,-15,-14,-7,-9
-3,-6,-2,5,0,-5,-4,-10,-15,-14,-8,-9
-3,-7,-3,5,0,-5,-4,-10,-16,-15,-8,-9
-4,-7,-3,5,-1,-5,-3,-10,-15,-15,-7,-9
-5,-7,-2,5,-1,-5,-3,-10,-15,-15,-7,-9
-4,-7,-3,5,-1,-5,-3,-11,-15,-15,-7,-9
-4,-7,-3,5,0,-5,-3,-11,-15,-16,-7,-9
-4,-7,-3,5,-1,-5,-3,-10,-15,-16,-6,-9
-4,-7,-3,5,-1,-5,-3,-10,-15,-16,-6,-9
-4,-7,-3,6,-1,-5,-3,-10,-15,-16,-6,-9
-5,-7,-2,6,-1,-5,-2,-9,-15,-15,-5,-9
-5,-7,-2,6,-1,-5,-2,-9,-14,-15,-5,-9
-5,-7,-2,7,-1,-5,-2,-9,-13,-15,-5,-9
-6,-8,-2,7,-2,-5,-2,-9,-13,-15,-5,-8
-6,-8,-2,7,-2,-5,-2,-9,-13,-15,-5,-8
-6,-8,-2,7,-1,-6,-2,-9,-13,-15,-5,-8
-5,-7,-2,6,-1,-6,-2,-9,-13,-15,-5,-7
-5,-7,-2,6,-1,-6,-1,-9,-14,-15,-5,-7
-4,-7,-3,6,0,-6,-1,-9,-14,-16,-6,-8
-6,-7,-2,7,-1,-6,0,-9,-14,-16,-6,-8
-8,-8,0,8,-4,-5,3,-7,-13,-17,-6,-9
-10,-8,1,9,-6,-5,5,-4,-12,-17,-7,-10
-10,-9,1,10,-6,-5,8,0,-9,-17,-8,-10
-11,-9,1,10,-6,-5,12,7,-4,-15,-7,-10
-11,-8,2,10,-6,-4,16,14,2,-11,-5,-10
-10,-8,3,9,-6,-4,20,22,9,-6,-2,-9
-9,-6,3,8,-6,-3,20,28,17,0,3,-5
-5,-2,3,4,-4,-1,19,32,25,10,12,1
0,4,3,-2,-2,2,16,35,33,22,23,10
8,11,2,-10,3,5,11,37,41,37,36,20
19,19,-1,-19,9,7,3,38,50,53,51,32
29,26,-3,-27,16,10,-5,37,58,70,66,45
39,34,-5,-36,21,14,-15,35,63,87,82,58
48,41,-6,-44,27,17,-25,30,65,102,96,71
57,49,-7,-52,32,21,-36,22,64,112,108,82
63,56,-6,-59,34,24,-47,8,55,115,115,89
65,62,-3,-63,34,29,-56,-12,38,107,114,92
64,65,1,-64,31,32,-62,-35,15,92,106,90
59,63,4,-61,27,33,-64,-58,-9,70,92,82
50,54,4,-52,23,29,-64,-79,-33,46,73,69
39,40,1,-39,19,20,-64,-98,-58,19,51,51
28,24,-3,-26,16,10,-65,-117,-83,-8,28,33
19,11,-6,-15,13,1,-66,-136,-110,-37,5,15
10,-1,-10,-5,11,-6,-67,-150,-133,-63,-15,-1
3,-11,-13,4,9,-13,-65,-156,-147,-82,-31,-13
-3,-18,-15,10,6,-17,-62,-154,-151,-93,-41,-22
-7,-22,-15,14,4,-19,-58,-146,-148,-97,-47,-28
-10,-24,-14,16,2,-20,-55,-134,-139,-96,-49,-31
-10,-23,-14,16,2,-19,-51,-119,-127,-91,-48,-32
-9,-21,-12,14,1,-17,-46,-102,-112,-84,-44,-31
-10,-19,-8,14,-1,-14,-38,-83,-95,-74,-39,-29
-12,-17,-3,14,-4,-11,-31,-66,-78,-64,-33,-26
-13,-15,-1,14,-5,-9,-25,-52,-64,-56,-28,-24
-13,-14,0,13,-6,-8,-19,-41,-52,-48,-23,-21
-13,-13,0,13,-7,-7,-14,-32,-43,-42,-19,-19
-14,-13,0,13,-7,-7,-11,-24,-36,-38,-16,-18
-12,-13,-1,12,-6,-8,-9,-19,-31,-35,-14,-17
-11,-13,-3,12,-4,-8,-7,-16,-29,-33,-13,-16
-10,-14,-4,12,-3,-9,-6,-14,-27,-32,-12,-16
-10,-15,-4,13,-3,-10,-4,-12,-24,-31,-11,-16
-10,-15,-4,12,-2,-10,-2,-10,-22,-29,-10,-15
-9,-14,-5,12,-2,-10,-1,-10,-19,-28,-9,-15
-9,-14,-5,11,-2,-10,0,-10,-18,-27,-8,-15
-9,-15,-5,12,-2,-11,0,-10,-17,-26,-7,-15
-10,-15,-5,12,-2,-11,0,-9,-17,-26,-7,-14
-10,-16,-5,13,-3,-11,0,-9,-17,-26,-7,-14
-11,-16,-4,14,-3,-11,0,-8,-17,-26,-7,-13
-11,-16,-4,14,-3,-11,0,-8,-16,-26,-8,-13
-11,-16,-3,14,-3,-10,0,-8,-15,-26,-8,-12
-13,-15,-2,14,-5,-9,2,-6,-14,-25,-7,-12
-13,-15,-1,14,-6,-9,3,-5,-12,-24,-6,-11
-13,-15,-2,14,-5,-9,4,-6,-12,-24,-6,-11
-13,-15,-2,14,-6,-9,4,-6,-11,-23,-6,-11
-13,-15,-2,14,-6,-9,4,-6,-11,-23,-6,-11
-12,-15,-3,13,-5,-9,3,-5,-11,-23,-6,-11
-11,-15,-4,13,-4,-9,3,-5,-11,-23,-6,-11
-11,-15,-4,13,-3,-10,2,-5,-11,-23,-6,-11
-12,-16,-3,14,-4,-10,2,-5,-11,-23,-5,-11
-13,-16,-3,14,-5,-10,2,-4,-10,-23,-5,-10
-12,-16,-4,13,-4,-10,2,-4,-10,-23,-4,-10
-11,-15,-4,13,-4,-10,2,-4,-10,-23,-4,-10
-10,-15,-4,12,-3,-10,2,-5,-10,-23,-3,-10
-9,-14,-5,12,-2,-10,2,-5,-10,-23,-3,-10
-9,-14,-5,12,-2,-10,2,-5,-9,-23,-1,-10
-10,-14,-4,12,-3,-9,2,-4,-8,-22,0,-10
-10,-14,-3,12,-3,-9,2,-3,-7,-21,1,-10
-11,-14,-2,13,-3,-9,2,-2,-6,-21,1,-10
-11,-14,-2,13,-3,-9,2,-2,-6,-21,2,-11
-11,-14,-2,12,-4,-9,2,-1,-6,-21,2,-11
-11,-13,-2,12,-4,-8,3,0,-5,-21,2,-11
-11,-13,-2,12,-5,-8,3,0,-5,-20,2,-11
-11,-13,-2,13,-5,-8,4,0,-5,-20,2,-11
-12,-14,-2,13,-5,-8,4,0,-5,-20,2,-11
-12,-14,-1,13,-5,-8,4,1,-4,-19,2,-10
-13,-14,0,13,-6,-7,4,2,-3,-18,3,-9
-13,-13,0,13,-6,-7,4,3,-2,-17,4,-8
-13,-13,0,12,-6,-7,3,4,-1,-17,4,-8
-13,-13,0,12,-6,-7,3,4,0,-16,5,-8
-13,-13,0,13,-7,-7,3,5,0,-16,5,-8
-14,-13,0,13,-7,-6,3,6,1,-15,6,-8
-13,-13,0,13,-7,-6,4,7,1,-15,7,-8
-13,-13,0,13,-7,-6,4,7,2,-14,7,-8
-13,-13,0,12,-6,-6,4,8,3,-14,8,-8
-12,-13,0,12,-6,-6,4,8,4,-13,9,-8
-11,-12,0,11,-5,-7,3,9,5,-13,9,-8
-10,-12,-1,10,-4,-7,2,10,6,-12,10,-7
-8,-11,-2,10,-3,-7,2,10,7,-11,10,-7
-8,-10,-2,9,-3,-7,1,12,8,-10,11,-7
-8,-10,-2,9,-3,-6,1,14,9,-9,12,-6
-7,-9,-2,8,-3,-6,1,15,10,-9,12,-6
-7,-9,-1,8,-3,-6,1,16,12,-8,13,-6
-7,-8,0,8,-3,-5,1,17,13,-6,14,-6
-7,-8,0,8,-3,-4,1,18,15,-5,15,-5
-6,-7,-1,7,-3,-4,1,20,16,-3,16,-4
-5,-7,-1,7,-3,-4,0,21,18,-2,17,-4
-5,-7,-1,6,-2,-4,0,23,20,-1,18,-3
-2,-6,-3,5,0,-5,0,24,21,0,18,-3
0,-5,-4,3,2,-5,-1,25,22,0,19,-3
0,-5,-4,2,2,-4,-1,26,24,2,21,-2
0,-4,-3,2,2,-4,-1,27,26,3,22,-1
0,-4,-3,1,2,-3,-1,28,27,5,23,0
0,-3,-1,2,1,-2,-2,30,29,8,25,1
-2,-2,1,2,-1,0,-2,33,32,10,27,3
-3,0,3,2,-3,1,-1,35,34,13,29,5
-2,1,4,1,-3,2,-2,36,35,14,30,6
0,2,3,0,-2,2,-2,36,35,15,31,7
0,2,2,-1,0,2,-3,36,36,15,32,7
1,2,1,-2,0,2,-3,36,36,16,33,7
2,3,1,-2,1,2,-4,37,37,17,34,8
4,4,0,-4,2,2,-5,37,38,18,34,8
6,5,0,-5,3,2,-6,37,38,19,35,8
6,6,0,-6,2,3,-6,38,39,20,35,9
5,7,2,-6,1,4,-6,40,41,21,36,10
5,8,3,-7,1,5,-6,40,41,22,37,10
7,9,2,-8,2,5,-7,39,41,22,38,10
8,9,2,-8,3,5,-7,38,41,22,38,10
8,9,2,-8,3,5,-7,38,41,23,38,10
7,9,3,-8,2,6,-7,38,41,23,39,10
6,9,3,-8,1,6,-7,39,41,23,39,10
6,10,4,-8,1,6,-7,39,41,24,40,10
6,10,4,-9,0,7,-8,40,42,25,40,10
6,11,5,-9,0,7,-8,40,42,25,41,11
7,11,5,-9,1,8,-8,40,42,26,41,11
7,12,5,-9,1,8,-8,39,42,26,42,10
7,12,5,-9,1,8,-8,39,42,26,42,10
6,12,6,-9,0,9,-8,40,42,26,42,11
6,12,7,-9,0,9,-7,40,42,26,42,11
7,12,6,-10,0,9,-7,38,41,26,41,10
9,12,4,-11,2,8,-8,37,40,25,40,10
8,12,4,-10,2,8,-8,37,40,24,40,10
7,12,5,-10,1,8,-8,36,39,24,40,10
8,12,4,-10,2,8,-8,35,38,23,39,9
10,12,2,-11,4,7,-9,34,36,22,38,8
11,12,2,-11,5,7,-9,33,35,21,38,7
10,12,3,-11,3,7,-8,32,35,21,38,6
9,12,4,-10,2,7,-7,32,34,20,37,5
8,12,4,-10,2,7,-7,31,33,20,36,5
8,12,4,-10,1,7,-7,30,32,19,36,4
7,11,4,-9,1,7,-6,29,31,19,35,4
6,11,5,-8,0,7,-6,28,30,18,35,3
5,10,6,-7,0,7,-5,28,30,18,35,3
4,9,6,-6,-1,7,-4,28,29,17,34,2
4,8,5,-6,0,6,-4,26,27,16,33,0
6,8,3,-7,2,5,-4,23,25,14,31,-2
7,8,2,-7,2,5,-4,22,23,12,30,-3
5,8,3,-6,1,5,-4,21,22,11,30,-4
4,7,4,-5,0,5,-3,21,21,11,29,-4
3,7,4,-5,-1,5,-2,20,20,10,29,-5
2,6,3,-4,0,4,-2,20,19,9,28,-5
2,5,2,-4,0,3,-2,19,18,8,27,-6
1,5,3,-3,-1,3,-2,18,16,7,26,-6
1,4,2,-2,-1,2,-2,17,14,5,25,-7
1,3,2,-2,-1,2,-2,16,13,4,24,-8
0,2,2,-1,-1,2,-2,14,12,3,23,-9
0,2,2,-1,-1,2,-2,12,11,2,22,-10
0,1,2,0,-1,1,-2,11,10,1,21,-11
-1,1,1,0,-1,0,-2,11,9,0,20,-11
-2,0,1,1,-1,0,-1,10,8,0,19,-12
-3,0,1,2,-2,0,-1,10,7,0,18,-12
-3,0,2,2,-2,0,0,9,6,-1,18,-13
-2,0,1,1,-1,0,0,8,5,-2,17,-13
0,-1,-1,1,0,-2,0,7,4,-3,15,-15
0,-1,-1,1,0,-2,-1,6,4,-4,14,-16
-2,-1,0,2,-1,-1,0,7,4,-4,14,-16
-4,-1,2,2,-3,-1,0,7,4,-4,14,-16
-5,-2,2,3,-3,0,0,7,4,-4,14,-16
-5,-2,3,3,-4,0,0,7,4,-4,14,-16
-5,-2,2,4,-4,0,0,7,3,-4,14,-16
-4,-2,0,3,-2,-1,0,6,2,-4,13,-17
-2,-2,-2,2,0,-3,-1,5,0,-5,12,-17
-1,-3,-3,2,1,-3,-1,4,0,-6,11,-18
-2,-3,-2,3,0,-3,-1,4,0,-6,11,-18
-4,-3,0,3,-1,-2,-1,4,0,-6,11,-18
-5,-3,1,3,-3,-2,-1,5,0,-6,11,-18
-5,-2,2,3,-3,-1,0,5,1,-5,12,-18
-5,-2,2,3,-3,-1,0,6,2,-5,12,-18
-4,-3,1,3,-3,-2,0,6,1,-6,12,-18
-4,-3,0,4,-2,-2,0,6,1,-6,12,-18
-5,-4,0,5,-2,-2,0,5,1,-6,11,-18
-4,-3,0,4,-2,-2,0,5,1,-6,11,-18
-4,-2,1,3,-2,-2,0,5,1,-5,11,-17
-5,-2,2,3,-3,-1,0,5,1,-5,11,-17
-6,-3,3,4,-4,-1,0,5,1,-5,11,-17
-7,-3,3,5,-4,-1,0,5,1,-5,11,-17
-6,-3,2,4,-4,-1,0,6,2,-5,10,-17
-5,-3,2,4,-3,-1,0,6,2,-4,10,-17
-4,-2,1,3,-3,-1,0,6,3,-4,10,-17
-3,-2,0,3,-2,-2,0,6,3,-5,9,-18
-2,-2,0,3,-1,-2,-1,5,2,-5,9,-18
-2,-2,-1,3,0,-3,-1,5,2,-6,8,-18
-2,-3,-2,3,0,-3,-1,5,2,-6,8,-18
-2,-3,-2,3,0,-3,-1,5,2,-6,7,-18
-2,-3,-2,3,0,-3,-1,6,2,-6,7,-17
-3,-3,-1,3,-1,-3,0,6,2,-6,8,-17
-3,-3,0,4,-1,-3,0,6,2,-6,8,-17
-4,-4,0,4,-2,-3,0,6,2,-6,8,-17
-5,-4,1,5,-3,-2,0,6,3,-5,8,-17
-6,-4,2,5,-3,-2,1,7,3,-5,8,-16
-7,-3,2,5,-3,-1,1,6,4,-5,8,-16
-7,-3,1,5,-3,-2,1,5,4,-5,8,-16
-6,-4,1,5,-2,-2,1,5,3,-5,8,-16
-5,-4,1,5,-3,-2,1,6,3,-5,9,-16
-6,-3,1,5,-3,-1,1,7,4,-4,9,-16
-7,-3,3,5,-5,-1,2,8,4,-4,10,-16
-8,-3,4,6,-6,0,2,8,5,-3,10,-16
-8,-3,4,6,-6,0,2,8,5,-3,10,-16
-8,-4,3,6,-6,0,2,9,5,-3,10,-15
-9,-4,3,7,-6,0,2,9,6,-2,10,-15
-10,-5,4,8,-7,-1,2,8,6,-2,10,-14
-10,-5,4,8,-7,-1,2,8,6,-2,10,-14
-9,-5,3,7,-6,-1,2,8,6,-3,10,-14
-7,-5,2,6,-5,-1,1,8,5,-4,9,-14
-6,-5,1,5,-4,-2,1,7,4,-5,8,-14
-6,-5,1,5,-3,-2,1,7,4,-5,7,-14
-6,-5,1,5,-3,-2,1,6,3,-5,7,-14
-7,-4,1,5,-4,-2,1,6,3,-5,7,-13
-7,-4,2,5,-4,-1,1,6,3,-5,7,-13
-7,-4,2,6,-4,-1,1,5,3,-5,7,-12
-8,-5,2,6,-5,-2,2,5,2,-5,7,-12
-9,-5,3,7,-6,-1,3,6,3,-4,7,-11
-9,-6,4,7,-6,-1,3,6,3,-4,7,-11
-8,-6,3,7,-5,-1,3,5,3,-4,7,-12
-8,-6,2,7,-4,-2,3,5,2,-5,6,-12
-7,-6,1,7,-4,-2,3,4,2,-5,6,-12
-7,-6,1,7,-3,-2,2,4,1,-5,5,-13
-7,-6,1,7,-4,-2,2,4,1,-6,5,-13
-8,-6,2,7,-5,-2,2,4,1,-5,5,-13
-9,-6,3,7,-6,-2,2,4,1,-5,5,-13
-9,-6,3,7,-6,-2,2,4,1,-5,4,-13
-8,-6,2,7,-5,-2,2,4,1,-6,4,-13
-7,-5,1,6,-4,-2,3,4,1,-6,4,-12
-7,-5,1,6,-4,-2,3,3,1,-6,3,-12
-7,-5,1,7,-4,-2,3,3,0,-6,3,-12
-9,-5,2,8,-5,-2,3,2,0,-6,3,-12
-10,-6,3,8,-6,-1,3,1,0,-6,3,-11
-9,-6,3,8,-6,-2,3,1,-1,-6,3,-11
-8,-7,2,8,-5,-3,3,1,-1,-7,3,-12
-8,-7,1,8,-5,-3,3,1,-2,-7,3,-12
-8,-7,1,8,-5,-3,3,1,-2,-7,3,-12
-7,-6,1,7,-4,-3,4,1,-2,-7,3,-12
-6,-5,0,6,-3,-3,4,1,-2,-7,3,-12
-5,-5,0,5,-2,-3,4,1,-2,-7,3,-12
-5,-5,0,5,-3,-2,4,1,-2,-7,3,-12
-5,-4,1,5,-3,-2,5,0,-2,-7,3,-12
-5,-4,1,5,-3,-1,5,0,-2,-7,2,-12
-5,-4,1,5,-3,-1,5,1,-2,-7,2,-11
-5,-3,1,5,-3,-1,5,1,-2,-7,2,-11
-5,-2,1,4,-3,0,5,1,-2,-7,2,-10
-5,-2,1,4,-3,0,5,1,-2,-7,2,-9
-5,-2,2,4,-3,0,5,1,-3,-7,2,-9
-5,-2,2,3,-3,0,5,1,-3,-7,2,-9
-5,-2,2,3,-3,0,5,1,-3,-7,2,-9
-4,-1,2,3,-3,0,5,1,-3,-7,1,-10
-4,-1,2,3,-3,0,5,1,-3,-7,1,-10
-3,0,2,2,-2,0,5,1,-3,-7,1,-10
-2,0,1,2,-1,0,5,0,-4,-7,0,-10
-1,0,0,1,0,0,5,0,-4,-7,0,-10
-1,0,0,1,0,0,5,1,-4,-7,0,-10
0,1,0,0,0,0,5,1,-3,-7,0,-10
0,1,0,0,0,0,5,0,-3,-7,0,-10
1,1,-1,-1,1,0,5,0,-4,-8,0,-10
1,1,-1,-1,1,0,6,0,-4,-8,0,-10
0,1,0,-1,0,0,6,0,-4,-7,0,-9
0,1,0,0,0,1,6,0,-4,-7,0,-9
0,1,0,0,0,1,6,0,-4,-8,-1,-9
1,1,0,-1,1,0,6,0,-4,-8,-1,-9
1,1,-1,-1,1,0,6,0,-4,-8,-1,-9
2,1,-1,-1,1,0,6,-1,-4,-8,-1,-9
3,1,-2,-1,2,0,6,-1,-4,-8,-2,-9
3,1,-2,-2,2,0,6,-1,-4,-8,-2,-9
2,2,-1,-2,2,0,7,-1,-4,-7,-2,-8
2,2,0,-2,1,1,7,-1,-4,-7,-2,-8
1,2,0,-2,1,1,7,-1,-4,-8,-2,-7
0,2,1,-2,0,2,7,-1,-4,-7,-1,-6
0,3,3,-2,0,3,8,0,-3,-6,-1,-6
1,4,3,-2,0,4,8,0,-3,-6,-1,-6
2,5,2,-3,0,4,8,0,-3,-6,-1,-6
3,5,2,-4,0,4,8,0,-3,-6,-1,-6
3,6,2,-5,0,4,9,0,-2,-6,-1,-6
3,7,2,-5,0,5,9,0,-2,-5,-1,-5
4,8,2,-6,1,5,9,0,-2,-5,-1,-4
6,8,1,-6,2,5,10,0,-2,-5,-1,-4
6,9,2,-7,2,5,11,1,-1,-5,-1,-4
6,10,3,-7,1,6,12,1,0,-4,0,-4
5,10,4,-7,0,7,13,2,0,-4,0,-4
5,11,5,-7,0,8,14,2,1,-4,0,-3
5,11,5,-8,0,8,15,3,1,-3,0,-2
5,11,5,-8,0,8,15,3,0,-3,0,-1
5,11,5,-8,0,8,16,3,1,-3,0,-1
4,12,7,-8,-1,9,17,4,2,-2,1,0
4,13,7,-8,-1,10,18,4,2,-1,1,0
5,13,7,-9,0,11,19,5,3,-1,1,0
6,14,7,-10,0,11,19,5,3,-1,1,0
7,14,7,-11,0,11,19,5,3,-1,1,0
7,15,8,-11,-1,12,19,5,3,0,1,1
6,15,9,-11,-1,12,18,5,4,0,1,1
7,16,9,-12,0,12,18,5,4,0,1,1
8,17,9,-12,0,13,17,4,4,0,1,1
7,17,10,-12,-1,14,17,3,4,1,2,2
7,18,11,-12,-1,14,16,2,3,1,3,2
9,18,8,-13,0,14,14,1,2,0,2,2
13,18,5,-14,4,12,12,0,0,-1,1,1
14,18,3,-15,5,11,10,0,0,-1,0,1
11,17,5,-14,3,12,9,-1,0,-1,0,1
9,17,7,-12,1,12,9,-1,0,-1,0,2
9,16,7,-12,1,11,7,-2,0,-1,0,2
10,16,5,-13,3,10,5,-3,-1,-2,-1,1
11,15,3,-13,4,9,4,-4,-2,-2,-2,1
12,15,2,-13,5,9,3,-5,-2,-2,-2,1
12,15,1,-13,5,8,2,-5,-3,-2,-3,1
13,15,1,-14,5,8,1,-5,-3,-2,-3,1
14,15,0,-14,6,7,0,-6,-4,-3,-4,1
15,15,0,-14,7,7,0,-6,-4,-3,-5,1
15,15,-1,-14,8,6,0,-7,-4,-4,-5,1
15,14,-1,-14,8,6,0,-7,-4,-4,-5,1
14,14,-1,-13,8,6,0,-7,-5,-4,-5,2
13,13,-1,-13,8,6,0,-7,-5,-4,-5,2
13,13,-1,-12,7,6,0,-7,-5,-3,-5,2
12,12,-1,-12,7,5,0,-6,-5,-3,-5,2
12,11,-1,-12,7,5,0,-6,-5,-3,-5,2
12,10,-2,-11,7,4,0,-7,-6,-4,-6,2
13,10,-3,-11,8,4,0,-8,-6,-4,-7,2
13,10,-3,-11,8,4,0,-7,-6,-5,-8,2
12,10,-3,-11,8,4,1,-7,-6,-5,-8,2
13,10,-4,-11,8,3,1,-7,-6,-5,-9,2
13,9,-5,-11,9,2,1,-7,-6,-6,-10,2
12,7,-4,-10,8,2,2,-7,-6,-6,-11,1
10,6,-3,-8,6,2,4,-7,-6,-6,-11,1
7,5,-1,-6,4,2,5,-6,-5,-6,-12,1
6,5,-1,-5,4,1,5,-7,-5,-6,-12,1
7,4,-3,-5,5,0,5,-8,-6,-7,-13,0
7,4,-4,-5,6,0,5,-8,-7,-8,-14,0
7,3,-4,-5,6,-1,5,-9,-8,-9,-15,0
7,3,-4,-5,6,-1,5,-8,-8,-9,-15,0
7,3,-4,-5,6,-1,6,-8,-8,-9,-15,0
7,3,-4,-5,6,-1,6,-8,-8,-9,-15,0
7,2,-4,-5,6,-1,6,-8,-8,-9,-15,0
7,2,-5,-5,6,-2,6,-8,-9,-9,-15,-1
6,2,-5,-4,6,-1,7,-8,-8,-9,-15,-1
4,2,-3,-3,4,0,8,-7,-8,-8,-14,0
3,2,-1,-2,2,0,8,-7,-7,-7,-13,0
2,1,0,-1,1,1,8,-7,-7,-7,-13,0
0,1,1,-1,0,1,9,-6,-6,-7,-12,1
0,1,1,0,0,1,9,-5,-6,-7,-12,1
2,1,0,-1,1,0,9,-6,-7,-8,-13,0
4,1,-3,-2,4,-1,8,-7,-7,-8,-13,0
5,0,-4,-2,5,-2,7,-8,-8,-9,-13,0
6,0,-6,-3,6,-2,7,-8,-8,-9,-13,0
8,0,-7,-4,8,-3,7,-7,-9,-9,-13,0
9,1,-8,-5,9,-3,7,-7,-9,-10,-13,0
10,1,-8,-5,9,-3,7,-8,-9,-10,-13,-1
8,1,-7,-4,8,-3,7,-8,-9,-10,-13,-1
7,1,-6,-3,6,-2,7,-8,-8,-9,-13,0
6,1,-5,-3,5,-2,8,-7,-7,-9,-12,0
6,2,-4,-3,5,-1,8,-6,-7,-8,-12,0
5,2,-4,-3,5,-1,8,-6,-6,-8,-11,1
4,2,-2,-3,4,0,8,-6,-6,-8,-10,2
3,2,-1,-2,3,0,9,-5,-6,-7,-10,2
3,1,-1,-2,2,1,10,-4,-5,-8,-10,2
2,1,0,-2,2,1,12,-2,-4,-8,-11,1
1,1,0,-1,1,1,15,-1,-3,-9,-12,0
1,0,0,0,1,1,18,1,-2,-9,-13,-2
0,0,0,0,0,0,21,6,1,-8,-13,-3
-1,0,1,1,0,0,25,14,7,-5,-12,-3
0,0,0,0,0,0,29,23,14,-2,-10,-2
2,1,0,-1,1,0,31,30,21,3,-6,0
6,4,-1,-5,4,2,30,35,29,12,1,6
13,10,-3,-11,8,4,27,38,36,23,11,15
21,16,-4,-18,13,6,23,41,45,36,23,25
29,23,-5,-26,17,9,17,44,54,52,37,37
38,31,-7,-34,23,12,9,44,62,67,51,49
48,39,-10,-43,29,14,0,42,67,82,64,60
59,46,-13,-52,36,16,-10,37,69,95,77,72
69,54,-15,-61,43,19,-21,29,68,106,89,82
77,61,-16,-68,47,23,-32,18,61,110,96,90
79,67,-12,-73,46,28,-40,1,48,107,98,95
76,72,-4,-74,41,34,-46,-21,28,95,93,95
69,72,3,-71,34,38,-49,-45,5,77,82,91
59,66,6,-63,27,36,-49,-68,-18,54,65,80
48,54,5,-51,23,29,-47,-89,-42,28,44,64
38,40,1,-39,19,20,-47,-108,-66,1,22,46
29,26,-2,-27,16,12,-49,-128,-92,-26,0,28
22,14,-7,-18,15,4,-51,-146,-117,-52,-21,11
16,4,-11,-10,14,-3,-52,-156,-135,-72,-38,-1
10,-4,-14,-3,12,-8,-50,-157,-142,-84,-49,-11
5,-9,-14,2,9,-11,-47,-151,-142,-89,-54,-17
2,-11,-14,4,8,-12,-45,-141,-135,-88,-56,-20
1,-11,-13,5,7,-12,-41,-127,-124,-84,-55,-21
0,-10,-11,6,6,-11,-36,-110,-109,-77,-52,-20
-1,-9,-8,5,4,-8,-30,-91,-93,-68,-47,-19
-1,-7,-6,4,3,-6,-24,-73,-77,-58,-42,-17
0,-6,-4,3,2,-4,-18,-57,-62,-49,-37,-14
0,-4,-2,3,1,-3,-12,-44,-49,-41,-32,-12
0,-3,-3,2,1,-3,-7,-33,-39,-34,-27,-9
0,-3,-4,2,2,-3,-4,-25,-32,-29,-24,-8
0,-3,-4,2,2,-3,-1,-19,-26,-25,-22,-6
0,-2,-4,2,2,-3,1,-14,-22,-23,-20,-5
0,-2,-4,1,3,-3,3,-11,-18,-21,-19,-5
1,-3,-5,1,4,-3,5,-8,-15,-20,-19,-5
3,-3,-7,1,5,-4,6,-6,-13,-18,-18,-5
4,-4,-7,1,5,-4,7,-5,-10,-17,-17,-5
3,-4,-7,1,4,-4,9,-4,-8,-16,-16,-4
1,-4,-5,2,2,-4,10,-3,-7,-14,-14,-3
0,-4,-3,2,1,-4,10,-3,-7,-14,-13,-2
0,-4,-3,2,1,-4,11,-3,-7,-14,-13,-2
-1,-4,-3,2,1,-4,11,-3,-6,-14,-12,-2
0,-4,-3,2,2,-4,11,-3,-6,-14,-12,-2
1,-4,-5,2,3,-4,11,-3,-6,-14,-13,-2
2,-4,-5,2,4,-5,11,-3,-5,-14,-13,-2
2,-4,-6,1,4,-5,11,-3,-5,-13,-12,-2
3,-3,-6,1,5,-5,11,-2,-4,-13,-11,-1
3,-3,-6,0,5,-5,10,-2,-4,-13,-11,-1
2,-3,-6,0,5,-5,10,-1,-3,-13,-11,-1
1,-3,-5,1,4,-5,11,0,-3,-13,-11,-1
0,-4,-4,2,2,-4,11,0,-2,-12,-11,-2
0,-4,-3,2,2,-4,12,0,-2,-12,-11,-2
1,-3,-4,1,2,-4,12,0,-1,-12,-11,-2
2,-3,-4,1,3,-4,12,0,-1,-11,-11,-2
1,-3,-3,1,2,-3,12,0,-1,-11,-10,-1
-1,-3,-1,2,0,-2,13,1,0,-10,-10,-1
-2,-3,0,2,0,-2,13,1,0,-9,-9,-1
-2,-3,-1,2,0,-2,13,1,1,-9,-9,-1
-1,-3,-1,2,0,-2,13,1,0,-9,-9,-1
-1,-3,-1,2,0,-2,12,1,0,-9,-9,0
-2,-3,0,2,0,-1,12,2,2,-8,-8,0
-2,-3,0,3,0,-1,12,3,3,-8,-7,0
0,-3,-2,2,1,-2,12,2,2,-9,-8,0
1,-3,-4,0,3,-3,11,1,2,-9,-9,0
3,-2,-5,0,4,-4,11,1,2,-10,-9,-1
3,-2,-6,-1,5,-4,11,2,2,-10,-9,-1
2,-1,-5,-1,4,-3,11,3,3,-9,-9,-1
2,-1,-4,-1,4,-2,11,3,4,-9,-8,-1
2,-1,-4,-1,4,-2,11,3,5,-8,-8,-1
2,-1,-4,-1,3,-2,11,4,6,-8,-7,0
2,-1,-3,0,3,-2,11,4,6,-8,-7,0
2,-1,-3,0,3,-2,11,5,7,-7,-6,1
1,-1,-2,0,2,-1,11,6,7,-6,-5,1
0,-1,-1,0,1,-1,11,7,8,-5,-4,1
0,-1,-1,0,1,-1,11,7,9,-5,-4,1
1,0,-2,0,2,-1,11,8,9,-5,-4,2
3,0,-3,-2,3,-1,11,9,10,-4,-3,2
3,1,-3,-2,3,0,11,10,12,-4,-3,3
4,1,-2,-2,3,0,11,11,13,-4,-2,3
4,2,-2,-3,3,0,11,11,14,-4,-2,3
5,2,-2,-3,4,0,10,12,15,-3,-1,3
5,3,-2,-4,3,0,10,14,16,-1,0,4
4,3,0,-3,2,1,11,16,18,0,2,6
3,3,0,-3,2,2,11,17,19,2,3,7
4,4,0,-4,2,2,10,18,21,3,4,7
4,4,0,-4,2,2,10,20,22,4,5,8
5,4,0,-5,2,3,9,21,23,5,6,8
5,5,0,-5,2,3,9,22,24,6,7,9
6,5,0,-5,3,3,9,23,26,7,8,10
8,6,-1,-7,5,3,8,24,27,8,9,10
10,7,-2,-8,7,3,7,25,28,9,9,11
10,7,-1,-9,6,3,7,27,30,11,10,12
10,8,0,-9,5,4,7,29,32,13,12,13
11,10,-1,-10,6,5,7,31,34,14,13,14
13,10,-2,-11,8,5,6,32,36,15,14,15
13,11,-2,-11,8,5,5,33,38,17,15,16
12,11,-1,-11,7,6,5,34,39,19,16,17
12,12,0,-12,6,6,5,35,40,21,18,19
13,13,0,-13,7,7,4,36,41,23,19,20
14,14,0,-14,7,7,4,38,42,25,21,21
14,14,1,-14,6,8,4,39,44,27,23,23
14,15,2,-15,6,9,4,41,45,28,24,24
15,16,2,-15,6,9,3,42,46,29,25,25
16,17,1,-16,7,10,1,42,47,29,26,25
17,18,0,-17,8,10,0,43,47,30,26,26
18,19,0,-18,9,10,0,43,48,31,27,26
20,20,0,-19,10,10,-1,42,48,32,27,27
20,20,0,-20,10,10,-1,42,48,33,28,28
20,21,0,-20,10,11,-2,41,48,34,29,29
20,21,0,-21,10,11,-2,41,48,34,29,29
20,21,1,-21,10,11,-3,41,48,35,30,30
21,21,1,-21,10,12,-3,41,48,35,30,30
22,22,0,-22,11,12,-4,40,48,35,30,30
24,23,0,-23,12,12,-4,39,48,35,30,30
24,23,-1,-23,13,12,-5,38,47,35,30,30
24,23,0,-23,13,12,-5,38,47,35,30,30
24,23,0,-24,13,12,-5,38,46,35,30,31
24,24,0,-24,12,12,-5,38,46,35,29,31
24,24,1,-24,11,12,-5,38,46,35,29,31
23,24,1,-23,10,13,-5,38,45,35,29,31
23,24,1,-23,10,13,-5,36,44,34,29,31
23,24,1,-24,11,13,-5,35,43,34,28,31
23,24,1,-24,11,13,-5,34,43,33,27,31
23,25,2,-23,11,13,-5,34,42,33,27,31
22,24,2,-23,10,13,-5,33,40,32,26,30
22,24,2,-23,10,13,-5,31,39,31,25,30
22,24,2,-23,10,13,-5,30,37,31,24,30
22,23,2,-23,10,13,-6,30,36,30,24,29
21,23,2,-22,9,12,-5,29,35,29,23,29
20,22,2,-21,9,12,-5,27,33,28,22,29
20,22,1,-21,9,12,-4,26,32,27,21,29
21,22,1,-21,10,12,-4,25,31,26,20,28
20,22,1,-21,10,12,-3,24,30,25,19,28
20,21,1,-20,9,11,-3,23,28,24,18,27
19,20,1,-19,9,11,-3,22,27,23,17,25
18,19,2,-19,9,10,-2,21,26,22,16,24
18,19,2,-18,9,10,-2,20,24,21,15,23
17,18,2,-18,8,10,-1,18,23,20,13,22
15,18,3,-16,7,10,-1,17,22,19,13,22
14,17,3,-15,5,11,0,17,21,18,12,22
13,17,3,-15,5,10,0,16,20,17,11,21
13,16,2,-14,5,10,1,14,18,16,10,20
13,16,2,-14,5,9,1,13,17,14,9,19
13,16,2,-14,6,9,2,12,16,13,8,18
14,15,1,-14,6,8,2,11,14,12,7,17
14,14,0,-14,7,7,2,10,13,10,6,16
13,13,-1,-13,7,6,2,9,11,9,5,14
12,12,-1,-13,7,6,2,8,10,8,4,13
12,11,0,-12,6,6,3,7,10,8,4,13
12,11,-1,-12,6,5,3,6,9,7,3,13
13,11,-2,-12,7,5,3,5,7,6,3,13
12,10,-2,-11,7,5,3,4,6,6,3,13
11,10,-1,-11,6,5,3,5,6,5,3,12
10,10,0,-10,5,5,3,5,6,5,3,12
9,10,0,-9,5,5,4,4,6,5,2,12
9,9,0,-9,5,5,4,4,5,4,2,11
9,9,-1,-9,5,4,4,3,5,4,1,10
10,9,-1,-9,5,4,4,3,5,3,1,10
10,9,-2,-9,6,4,4,3,4,3,1,10
9,8,-1,-9,5,4,4,3,4,2,1,10
8,8,0,-8,4,4,5,3,3,2,1,10
8,8,0,-8,4,4,5,3,3,2,0,9
8,8,0,-9,4,4,5,2,3,2,0,9
9,7,-1,-8,5,3,5,2,3,2,0,9
8,7,-1,-8,4,3,5,2,3,2,0,9
8,7,0,-7,4,3,5,2,3,2,0,9
8,7,0,-7,4,4,5,2,3,2,0,8
8,7,0,-8,4,3,5,2,2,2,0,8
9,7,-1,-8,5,3,4,2,2,2,0,7
9,7,-2,-8,5,3,4,2,2,2,0,7
9,7,-2,-8,5,3,4,3,2,2,0,7
9,7,-1,-8,5,3,4,3,2,2,0,7
8,7,0,-7,5,3,4,3,2,2,0,7
7,8,0,-7,4,4,5,3,2,2,0,7
7,8,0,-7,4,4,5,3,2,2,0,7
6,7,1,-6,3,4,5,3,2,2,0,7
5,6,1,-5,2,5,5,3,3,2,0,8
5,6,1,-6,2,5,5,3,3,2,0,8
8,7,-1,-7,4,4,4,3,3,2,-1,7
10,7,-2,-8,6,3,4,3,3,1,-1,7
10,7,-3,-9,7,3,4,3,3,1,-1,7
11,7,-3,-9,7,2,4,3,2,1,-1,7
11,7,-4,-9,8,2,4,2,1,1,-1,6
12,7,-4,-9,8,2,4,2,1,1,-1,6
11,8,-3,-9,7,3,4,3,1,1,-1,6
10,8,-1,-9,5,4,4,4,2,2,0,7
10,8,-1,-9,5,4,4,4,2,2,0,7
10,8,-2,-8,6,3,4,4,2,2,0,6
9,7,-2,-7,5,3,5,4,2,2,0,6
7,7,0,-7,4,3,5,4,3,3,0,7
7,7,0,-7,3,4,5,4,3,3,0,7
7,7,0,-7,3,4,5,4,3,3,0,7
7,7,0,-7,3,4,5,4,3,4,0,7
7,7,0,-7,3,4,6,4,3,4,0,7
6,7,0,-6,3,4,6,4,2,4,1,7
7,7,0,-7,3,4,6,4,2,4,1,7
8,7,-1,-7,4,3,6,5,2,4,1,7
8,7,-1,-7,5,3,6,4,2,4,1,7
7,7,0,-7,4,4,7,4,3,5,1,7
5,7,2,-6,2,5,7,5,3,5,2,8
4,7,2,-5,1,5,7,5,4,5,3,8
4,7,1,-5,2,4,7,5,4,4,2,7
5,6,0,-5,3,3,6,4,4,4,2,5
6,6,0,-5,3,3,6,4,4,4,1,4
6,6,0,-5,3,3,6,4,4,4,2,4
6,6,0,-5,3,4,7,4,4,5,2,4
6,7,1,-6,2,4,7,4,4,5,2,5
6,7,1,-6,2,5,7,4,4,5,2,5
5,6,1,-6,2,4,6,4,3,4,2,5
5,6,1,-6,2,4,6,4,3,4,2,5
4,6,2,-5,1,4,7,4,4,5,3,6
3,6,2,-5,1,5,7,4,4,5,3,7
5,7,1,-6,2,5,7,4,4,6,4,7
7,7,0,-7,4,4,7,4,4,5,4,6
9,7,-2,-8,5,3,6,3,3,4,3,5
9,6,-2,-7,6,3,6,3,2,4,3,5
9,6,-2,-7,6,2,6,3,2,4,3,4
9,6,-2,-7,6,2,6,2,2,3,3,4
9,7,-2,-7,6,2,6,1,2,3,3,4
8,7,-2,-7,5,2,6,1,2,3,3,5
7,6,-2,-7,5,2,6,1,2,3,3,5
6,6,-1,-6,3,3,6,1,2,4,4,5
4,6,0,-5,2,3,7,1,2,4,4,5
4,6,0,-4,2,3,7,1,1,3,4,5
4,6,0,-4,2,3,7,1,1,3,4,6
4,6,1,-4,2,4,7,2,1,3,5,6
4,5,1,-4,2,4,7,2,1,3,5,7
5,5,0,-4,3,3,6,1,1,2,4,6
5,4,-1,-4,3,2,6,0,0,1,3,6
5,4,-1,-4,3,2,6,0,0,1,3,6
5,5,-1,-4,3,2,7,-1,0,1,3,6
4,5,0,-4,2,2,7,-1,0,1,3,6
5,4,-1,-4,3,2,6,-1,0,1,3,6
7,4,-2,-5,5,1,5,-1,-1,1,3,5
7,4,-2,-6,5,1,5,-1,-2,1,3,5
5,4,0,-5,2,2,6,-1,-1,1,4,6
3,4,1,-4,1,3,6,-1,-1,2,4,6
3,4,0,-4,1,2,6,-2,-1,1,4,6
3,4,0,-3,1,2,6,-2,-2,1,3,6
3,3,0,-3,1,2,5,-2,-2,1,3,6
3,3,0,-3,1,2,5,-1,-2,1,3,6
5,4,-1,-3,3,2,5,-1,-2,0,3,6
6,4,-2,-4,4,1,5,-1,-3,0,2,5
6,4,-2,-4,4,1,5,-1,-3,0,2,5
4,4,-1,-3,3,2,5,-1,-3,0,3,5
3,4,0,-3,2,2,5,-1,-3,0,3,5
4,4,0,-4,3,1,5,-2,-4,0,2,5
5,4,-1,-5,4,1,4,-2,-4,0,2,4
6,4,-2,-5,5,1,5,-2,-4,0,2,4
6,4,-2,-5,5,1,5,-3,-4,0,2,4
7,4,-2,-5,5,1,5,-3,-4,0,2,4
6,4,-2,-5,4,1,4,-4,-4,0,2,4
4,4,-1,-5,3,2,4,-3,-4,0,2,4
4,4,0,-5,2,2,4,-3,-4,0,2,4
4,4,-1,-5,3,2,5,-3,-5,0,1,4
5,4,-1,-5,3,2,5,-3,-5,0,1,4
5,5,0,-5,2,2,6,-3,-5,0,1,4
5,5,1,-5,2,3,7,-2,-4,0,1,4
5,6,1,-5,2,4,7,-2,-4,0,1,4
5,7,2,-6,2,4,8,-2,-3,0,1,4
6,7,1,-6,2,5,8,-2,-3,0,0,3
6,8,1,-7,3,5,8,-2,-3,0,0,3
6,8,1,-7,2,5,8,-2,-3,0,0,4
6,9,2,-7,1,6,10,-2,-3,1,0,5
5,9,3,-7,1,7,11,-1,-2,2,1,6
6,10,4,-8,1,7,12,0,-2,2,1,6
6,10,4,-8,1,8,13,0,-1,2,1,6
5,11,5,-8,0,9,13,1,0,3,1,6
5,11,6,-8,0,9,14,2,0,3,1,6
5,12,6,-8,0,9,14,2,1,4,1,6
5,12,6,-8,0,9,15,3,1,4,0,5
5,12,7,-8,0,9,15,4,1,5,0,5
5,12,7,-9,0,9,15,4,2,5,0,5
6,12,6,-9,0,9,14,3,2,4,0,5
6,12,6,-9,0,9,14,3,1,4,-1,5
6,12,6,-9,0,10,13,2,1,4,-1,5
6,12,6,-9,0,10,12,1,0,4,-1,5
7,13,6,-9,0,10,11,0,0,4,-1,5
8,14,6,-11,1,10,10,0,0,4,-1,5
8,15,6,-11,0,11,9,0,0,4,-1,5
8,15,6,-11,0,11,7,0,0,3,-1,5
10,15,5,-12,2,10,5,-1,-1,2,-2,5
11,15,4,-13,3,10,4,-2,-2,1,-2,4
11,15,3,-13,3,9,3,-3,-2,1,-3,4
11,14,3,-12,4,9,2,-4,-3,0,-3,4
12,13,1,-12,5,7,1,-5,-3,0,-4,4
12,12,0,-12,6,6,0,-6,-4,0,-4,4
13,12,-1,-12,7,5,-2,-6,-5,-1,-5,3
13,12,-1,-12,7,5,-3,-7,-6,-1,-5,3
12,11,-1,-12,6,5,-3,-7,-6,-1,-5,3
10,11,0,-11,5,6,-3,-7,-6,-1,-5,4
10,11,0,-10,4,6,-4,-7,-7,-1,-5,4
9,10,0,-10,4,5,-4,-6,-7,-1,-5,4
8,10,1,-9,4,6,-4,-6,-6,-1,-5,4
7,10,2,-9,3,6,-4,-6,-6,0,-5,4
8,9,0,-9,4,5,-4,-6,-7,0,-5,3
10,8,-2,-9,6,4,-4,-6,-7,0,-5,3
11,8,-2,-9,6,3,-4,-6,-8,0,-6,2
10,8,-2,-8,6,3,-4,-7,-8,0,-6,2
11,7,-3,-8,7,2,-4,-7,-8,0,-6,2
11,7,-4,-9,8,2,-4,-7,-8,0,-6,2
11,6,-4,-9,8,1,-4,-7,-8,0,-6,3
10,6,-4,-8,7,1,-4,-7,-8,0,-6,3
9,5,-4,-7,6,0,-3,-7,-8,-1,-7,3
8,4,-4,-6,6,0,-2,-7,-8,-1,-7,3
8,3,-4,-5,6,0,-1,-6,-8,-2,-8,2
6,1,-4,-4,5,-1,-1,-6,-8,-2,-8,1
5,0,-4,-2,5,-1,0,-6,-8,-2,-9,0
4,-1,-4,-2,4,-2,0,-6,-8,-3,-9,0
3,-1,-5,-2,4,-2,0,-6,-9,-4,-10,-1
3,-1,-5,-1,4,-2,0,-8,-9,-4,-11,-1
2,-1,-5,-1,3,-2,1,-9,-10,-5,-11,-1
1,-2,-4,0,3,-2,1,-10,-11,-5,-11,-1
2,-2,-5,0,4,-3,1,-9,-11,-5,-11,-2
2,-3,-5,0,4,-3,1,-8,-11,-5,-11,-2
1,-3,-5,0,4,-4,1,-8,-11,-5,-11,-3
1,-4,-5,0,4,-4,1,-9,-11,-5,-11,-3
1,-4,-5,0,4,-4,1,-9,-11,-5,-11,-3
1,-4,-5,1,3,-4,2,-9,-11,-5,-11,-3
0,-4,-5,1,2,-4,2,-9,-11,-5,-11,-3
0,-4,-5,1,2,-4,2,-8,-11,-5,-11,-4
0,-4,-4,1,2,-4,3,-8,-11,-6,-11,-4
0,-4,-4,2,1,-4,3,-8,-10,-6,-11,-4
-1,-4,-4,2,1,-4,3,-8,-10,-6,-10,-4
0,-4,-5,2,2,-4,3,-8,-10,-6,-10,-5
1,-4,-6,1,4,-5,2,-8,-10,-7,-10,-5
1,-4,-7,1,4,-5,2,-9,-10,-7,-10,-5
1,-4,-7,1,4,-5,2,-8,-10,-7,-9,-5
0,-4,-5,1,3,-4,2,-8,-9,-6,-9,-4
0,-4,-5,1,2,-4,2,-8,-9,-6,-9,-4
0,-4,-5,1,2,-4,2,-9,-9,-6,-8,-4
0,-4,-5,2,2,-4,2,-9,-9,-6,-8,-4
-1,-4,-4,2,1,-4,3,-8,-9,-5,-7,-4
-1,-4,-3,2,1,-3,3,-7,-8,-5,-6,-3
-1,-4,-4,2,1,-3,4,-7,-8,-5,-6,-3
0,-4,-4,2,1,-3,4,-7,-8,-5,-6,-3
-1,-5,-4,2,1,-3,5,-7,-8,-5,-6,-3
-1,-5,-4,2,1,-4,5,-7,-8,-6,-6,-3
-1,-5,-4,2,1,-4,7,-6,-8,-6,-7,-4
-2,-5,-4,3,1,-4,9,-5,-7,-7,-7,-4
-3,-6,-4,3,1,-4,12,-3,-6,-7,-8,-6
-2,-6,-5,3,1,-5,14,0,-4,-7,-8,-7
-2,-6,-5,3,2,-6,17,6,0,-5,-8,-7
-2,-6,-5,4,1,-5,21,14,6,-3,-6,-7
-2,-5,-4,4,1,-4,24,22,14,1,-4,-6
0,-3,-3,2,1,-3,25,29,21,8,1,-3
4,1,-3,-3,4,0,24,34,29,18,9,3
10,7,-3,-9,7,2,22,38,37,30,19,12
18,13,-4,-16,12,4,17,40,46,44,31,23
28,20,-7,-24,18,6,10,42,54,59,45,35
38,27,-11,-32,24,8,1,42,61,73,58,47
48,34,-14,-41,31,10,-8,39,65,86,71,58
59,42,-17,-50,38,12,-19,34,66,97,82,69
70,49,-21,-59,46,14,-30,24,62,104,90,78
77,56,-21,-67,49,18,-41,7,51,103,94,84
79,63,-16,-71,48,23,-49,-15,34,95,92,86
76,66,-10,-72,43,28,-54,-40,11,80,83,84
70,64,-6,-68,38,29,-56,-64,-13,59,69,76
60,55,-6,-58,33,24,-56,-85,-37,35,50,62
48,41,-7,-44,28,17,-54,-103,-60,9,28,44
35,26,-9,-31,22,9,-54,-122,-83,-16,6,26
24,13,-10,-18,17,2,-55,-140,-106,-41,-15,10
14,2,-11,-8,13,-4,-56,-154,-127,-63,-33,-4
7,-7,-13,0,10,-9,-55,-161,-139,-78,-47,-15
2,-12,-14,5,8,-13,-53,-160,-143,-86,-54,-22
-1,-15,-15,8,7,-15,-50,-152,-139,-87,-57,-26
-3,-16,-14,9,5,-15,-47,-139,-130,-84,-57,-27
-5,-16,-11,11,2,-14,-43,-123,-117,-78,-54,-26
-6,-16,-9,11,1,-12,-38,-105,-103,-70,-50,-25
-6,-14,-8,10,1,-11,-32,-87,-88,-61,-45,-24
-6,-12,-6,9,0,-9,-26,-69,-72,-52,-40,-22
-4,-10,-6,7,1,-8,-20,-54,-58,-43,-35,-20
-3,-9,-6,6,1,-7,-14,-41,-46,-36,-31,-18
-2,-8,-6,5,2,-7,-8,-32,-37,-31,-28,-16
-2,-7,-5,4,1,-6,-4,-25,-31,-27,-25,-13
-2,-6,-5,4,1,-5,-1,-20,-26,-24,-23,-11
-2,-6,-5,4,1,-5,1,-16,-23,-22,-21,-10
-2,-7,-5,4,1,-5,3,-13,-20,-20,-20,-9
-3,-7,-4,5,0,-5,5,-9,-16,-18,-19,-9
-4,-7,-3,5,0,-5,7,-7,-13,-16,-18,-8
-4,-7,-3,6,0,-5,9,-7,-11,-15,-17,-8
-4,-8,-3,6,0,-5,10,-7,-11,-15,-16,-7
-4,-8,-3,6,0,-5,10,-7,-10,-14,-15,-7
-4,-8,-3,6,0,-5,10,-7,-10,-13,-14,-6
-4,-8,-3,5,0,-5,10,-6,-9,-13,-13,-6
-3,-7,-4,5,0,-5,9,-6,-9,-13,-14,-7
-2,-7,-5,5,1,-5,8,-6,-9,-14,-14,-7
-2,-7,-5,5,2,-6,8,-6,-9,-14,-15,-7
0,-7,-7,4,3,-7,8,-6,-9,-14,-15,-7
0,-7,-7,4,4,-7,8,-7,-9,-14,-14,-7
-1,-7,-6,4,2,-6,9,-6,-8,-13,-13,-6
-2,-7,-5,4,1,-5,10,-5,-7,-13,-12,-5
-1,-7,-5,4,2,-5,10,-5,-7,-13,-11,-5
-1,-7,-6,4,2,-6,10,-4,-7,-13,-11,-5
-2,-7,-5,5,2,-6,10,-4,-6,-13,-12,-6
-2,-7,-5,4,2,-5,11,-4,-6,-13,-12,-6
-2,-6,-4,4,1,-4,12,-3,-5,-12,-11,-5
-3,-6,-3,4,0,-4,12,-3,-4,-12,-11,-5
-3,-7,-3,5,0,-5,12,-3,-4,-12,-10,-5
-2,-7,-4,4,0,-5,11,-4,-4,-11,-10,-5
-1,-7,-5,4,1,-5,11,-3,-4,-11,-9,-5
-1,-6,-5,3,1,-5,11,-3,-3,-10,-9,-5
-1,-5,-4,3,1,-4,11,-2,-2,-9,-8,-5
-1,-5,-4,4,1,-4,11,-1,-2,-9,-8,-4
-2,-5,-3,4,0,-4,11,0,-1,-8,-7,-3
-2,-5,-2,4,0,-4,11,0,-1,-7,-6,-3
-1,-5,-3,3,0,-4,11,1,-1,-7,-6,-3
0,-5,-4,2,1,-4,11,1,0,-7,-6,-3
0,-4,-4,2,1,-4,11,1,0,-7,-6,-3
-1,-4,-3,2,0,-3,11,2,1,-7,-5,-3
-2,-4,-1,3,0,-3,11,2,1,-7,-4,-2
-3,-4,0,3,-1,-2,11,2,2,-7,-4,-2
-2,-3,0,2,-1,-2,11,3,2,-6,-3,-2
-2,-3,0,2,-1,-1,11,3,3,-6,-2,-2
-2,-3,0,2,-1,-1,11,4,4,-6,-1,-2
-3,-3,0,3,-2,-1,12,4,4,-6,0,-2
-2,-3,0,3,-1,-1,12,5,5,-5,0,-1
-2,-3,0,2,-1,0,12,7,6,-5,1,0
-3,-2,1,2,-2,0,12,8,7,-4,2,0
-3,-2,1,2,-2,0,12,8,7,-5,3,0
-1,-2,0,2,0,-1,11,7,8,-5,3,0
1,-2,-2,0,2,-2,10,8,8,-5,3,-1
2,-1,-3,0,2,-1,10,10,10,-5,3,-1
0,-1,-1,0,0,0,11,13,12,-3,5,0
