leadI,leadII,leadIII,leadaVR,leadaVL,leadaVF,leadV1,leadV2,leadV3,leadV4,leadV5,leadV6
-2,-12,-10,7,4,-11,0,4,7,3,227,4
-4,-29,-24,16,10,-27,0,11,20,10,594,11
-2,-32,-29,17,14,-31,-1,17,27,15,32,15
2,-27,-28,12,15,-28,-7,21,29,20,-1015,16
6,-18,-24,6,16,-22,-15,23,28,24,-1513,15
11,-11,-23,0,17,-17,-22,23,26,25,-1754,14
14,-10,-24,-1,19,-17,-25,23,26,25,-1939,13
11,-16,-28,3,20,-22,-22,22,28,24,-2161,14
5,-27,-33,11,20,-30,-16,21,31,22,-1583,14
0,-37,-36,19,18,-37,-10,21,34,20,-474,15
-2,-39,-36,21,17,-38,-8,22,35,20,207,14
0,-33,-32,16,17,-32,-10,24,35,21,-117,13
7,-20,-27,6,17,-23,-16,25,33,24,-1012,11
13,-8,-22,-2,18,-14,-22,26,30,26,-1461,9
16,-1,-19,-7,18,-10,-26,26,29,27,-1738,8
15,-3,-19,-6,17,-11,-24,26,30,26,-1996,7
10,-12,-22,1,17,-17,-19,26,33,24,-1443,6
4,-21,-24,9,15,-23,-13,25,36,22,-374,6
0,-25,-23,13,12,-24,-9,24,38,21,252,5
0,-20,-19,10,10,-20,-10,24,37,21,-128,4
5,-9,-13,3,9,-11,-16,24,35,22,-1056,2
10,2,-8,-5,9,-2,-23,23,32,23,-1499,0
13,9,-5,-11,9,2,-29,22,29,23,-1739,-2
14,10,-5,-12,9,2,-30,22,29,22,-1951,-3
11,3,-7,-7,8,-2,-26,21,31,21,-1366,-3
6,-4,-9,0,7,-7,-21,21,34,19,-297,-3
2,-9,-10,3,6,-10,-17,21,36,19,297,-2
1,-8,-8,4,5,-8,-16,21,36,19,706,-3
3,0,-2,-1,3,-1,-19,22,35,19,237,-3
7,12,4,-9,2,8,-25,22,33,20,-750,-4
11,22,9,-16,2,15,-30,22,31,20,-1282,-5
13,26,11,-19,2,18,-32,22,30,20,-1639,-5
11,21,10,-16,1,15,-29,22,31,19,-1964,-5
6,13,7,-9,0,10,-24,22,32,18,-1448,-5
4,7,5,-5,0,6,-19,22,33,18,-376,-5
3,6,6,-4,0,6,-17,22,34,17,283,-6
4,12,10,-8,-1,11,-18,22,33,17,-54,-6
8,24,15,-16,-2,19,-24,22,30,18,-955,-7
12,33,19,-22,-2,26,-29,22,28,18,-1405,-9
13,37,21,-25,-3,29,-33,21,26,17,-1683,-10
11,34,21,-23,-4,27,-32,20,25,16,-1942,-10
7,26,18,-17,-5,21,-27,20,27,15,-1391,-10
3,18,16,-11,-6,16,-21,20,28,14,-324,-10
1,14,15,-7,-6,14,-18,19,28,13,300,-10
0,16,17,-8,-7,17,-18,19,28,13,-80,-9
3,25,22,-14,-9,24,-22,19,26,13,-1007,-9
6,35,27,-20,-9,31,-28,18,23,13,-1448,-9
9,41,29,-24,-10,35,-32,18,21,13,-1687,-9
9,41,29,-24,-10,35,-33,18,20,13,-1898,-8
6,34,26,-20,-10,30,-29,18,21,13,-1313,-7
3,25,23,-14,-9,24,-24,18,21,12,-246,-6
1,20,21,-10,-9,20,-21,18,21,11,346,-6
1,20,22,-10,-9,20,-20,18,20,10,752,-5
3,27,26,-15,-10,26,-22,18,19,10,284,-5
7,37,30,-21,-10,33,-27,18,16,10,-702,-4
9,43,31,-25,-10,37,-31,18,14,10,-1232,-4
9,43,32,-26,-11,37,-33,17,12,10,-1588,-4
6,37,30,-21,-12,33,-30,17,12,10,-1078,-3
2,27,27,-14,-12,27,-25,17,13,10,-67,-1
0,21,24,-11,-12,22,-20,17,14,10,462,0
0,19,22,-9,-11,20,-17,18,15,10,799,2
0,22,23,-11,-11,22,-17,18,14,10,271,3
2,30,26,-16,-11,28,-20,19,13,10,-740,4
5,37,28,-20,-11,32,-23,20,12,10,-1256,5
7,39,28,-23,-10,33,-24,21,12,11,-1570,7
6,34,25,-20,-9,29,-23,22,12,11,-1851,9
3,22,19,-12,-8,20,-19,22,13,12,-1315,11
0,12,14,-6,-7,13,-14,23,14,12,-256,13
0,5,10,-2,-5,7,-10,24,16,12,363,15
-1,4,8,-1,-4,5,-8,24,17,12,-20,17
1,9,8,-5,-3,8,-10,25,17,12,-944,18
5,15,8,-10,-1,11,-14,25,17,13,-1381,18
6,18,7,-12,0,13,-16,26,16,13,-1616,18
6,16,6,-11,0,11,-17,26,16,13,-1823,19
4,8,3,-6,0,6,-13,26,17,13,-1237,20
1,-1,0,0,0,0,-9,26,17,13,-169,21
0,-7,-2,4,0,-5,-6,26,18,12,424,21
0,-8,-3,4,1,-6,-5,26,18,12,830,22
3,-1,-2,-1,3,-1,-6,27,18,12,363,22
6,8,0,-7,3,4,-10,27,18,12,-620,21
6,13,2,-9,3,7,-13,26,17,11,-1149,20
6,14,3,-10,2,8,-14,26,16,11,-1502,19
5,9,2,-8,3,5,-12,27,15,11,-991,19
3,1,0,-2,2,0,-8,26,15,11,17,18
0,-5,-1,2,1,-4,-5,26,15,10,545,18
-1,-7,-1,4,0,-5,-4,25,15,9,880,17
-1,-2,1,2,0,-1,-5,25,15,8,351,15
1,8,5,-3,-1,7,-9,24,14,7,-658,14
3,17,9,-10,-2,14,-13,24,13,6,-1171,12
5,23,12,-14,-3,18,-15,23,12,5,-1483,9
6,23,13,-15,-3,18,-16,23,11,4,-1763,7
5,17,12,-11,-3,14,-14,22,10,3,-1229,6
3,11,12,-7,-4,11,-11,21,10,2,-173,5
1,8,12,-5,-5,10,-10,20,9,2,443,4
1,11,14,-6,-6,12,-9,21,10,2,57,4
3,19,16,-11,-6,18,-12,21,10,2,-867,3
4,26,18,-15,-7,22,-17,20,9,1,-1303,0
4,29,20,-16,-7,24,-19,19,9,0,-1536,-1
6,31,20,-18,-7,25,-20,20,9,0,-1742,-2
6,26,18,-16,-6,21,-18,20,9,0,-1158,-3
4,19,17,-11,-6,17,-15,20,10,0,-92,-3
2,13,16,-7,-7,14,-14,20,10,0,500,-3
0,10,16,-5,-7,13,-13,20,11,0,908,-3
0,14,17,-7,-8,15,-14,20,11,0,446,-3
1,21,18,-11,-7,19,-18,21,11,0,-529,-3
4,27,18,-15,-6,22,-20,21,11,0,-1049,-4
6,30,18,-18,-6,24,-21,21,11,0,-1394,-4
4,26,18,-15,-7,22,-20,22,12,1,-1713,-3
1,19,18,-10,-8,18,-16,22,13,1,-1196,-3
0,15,18,-7,-9,16,-13,24,14,2,-124,-2
0,12,17,-5,-8,15,-11,25,14,3,534,-1
0,14,17,-6,-8,16,-11,25,15,3,201,-1
0,20,18,-10,-9,19,-14,25,15,3,-689,0
2,25,19,-13,-9,22,-16,26,16,4,-1128,0
4,30,20,-16,-8,25,-17,26,17,5,-1393,1
5,29,20,-17,-7,24,-16,27,18,5,-1644,2
4,23,19,-13,-7,21,-13,27,18,6,-1092,2
3,18,18,-10,-7,18,-10,27,18,6,-25,2
2,14,18,-8,-7,16,-9,27,18,7,598,3
2,15,18,-9,-7,17,-8,27,19,7,218,3
3,22,20,-12,-7,21,-10,28,19,8,-700,4
4,28,20,-16,-7,24,-12,28,20,9,-1130,4
5,32,20,-18,-7,26,-13,28,20,9,-1358,4
6,31,19,-18,-7,25,-14,28,21,9,-1559,4
4,25,19,-14,-7,22,-13,28,21,10,-972,5
2,18,18,-10,-7,18,-11,28,22,10,94,5
2,14,17,-8,-7,16,-10,29,22,10,686,6
2,13,16,-7,-6,15,-9,29,22,11,256,6
3,16,15,-9,-6,16,-9,29,22,11,-704,6
4,22,15,-13,-5,19,-11,28,21,11,-1140,6
4,26,16,-14,-5,20,-12,27,20,10,-1339,6
4,27,16,-15,-6,21,-13,26,19,10,-1495,5
5,25,16,-14,-5,20,-13,25,19,9,-1701,5
4,19,16,-11,-5,18,-12,24,18,9,-1120,4
3,15,17,-9,-6,16,-13,24,16,8,-10,3
1,13,18,-7,-7,16,-13,23,15,8,671,2
1,16,19,-8,-8,18,-14,23,15,7,351,2
1,23,22,-12,-10,22,-17,23,14,7,-530,1
1,30,24,-15,-11,26,-18,22,13,6,-963,1
2,34,25,-18,-11,29,-20,21,12,5,-1227,1
3,35,27,-18,-12,30,-21,20,11,4,-1477,0
4,31,27,-17,-12,29,-21,19,10,3,-928,0
4,29,29,-17,-13,30,-20,19,10,3,135,-1
3,28,31,-16,-14,30,-20,19,10,3,755,-1
2,29,32,-16,-14,31,-20,18,9,2,370,-1
3,35,33,-19,-15,34,-22,17,8,2,-552,-2
3,40,33,-21,-15,37,-24,16,7,1,-986,-2
3,42,33,-22,-15,38,-25,16,6,0,-1218,-3
3,42,33,-22,-15,37,-26,15,6,0,-1424,-3
3,37,32,-20,-15,35,-25,14,5,-1,-1679,-3
2,31,31,-17,-15,32,-25,13,4,-2,-1116,-3
0,27,31,-14,-15,30,-25,13,3,-2,10,-3
-1,25,32,-13,-16,29,-24,13,3,-2,-105,-2
0,29,32,-15,-16,31,-23,13,3,-2,-879,-2
2,36,32,-19,-15,34,-23,13,3,-2,-1204,-1
3,40,32,-20,-15,35,-23,12,3,-1,-1338,0
1,40,32,-20,-15,35,-23,12,3,-1,-1454,1
0,37,32,-18,-16,34,-22,12,3,-1,-1639,1
1,33,32,-17,-15,33,-20,13,4,0,-1048,2
1,30,32,-16,-15,31,-18,13,4,0,64,3
0,27,32,-14,-15,30,-17,13,4,0,745,3
0,27,31,-14,-15,29,-17,12,3,0,426,3
0,32,31,-15,-15,31,-18,12,3,0,-452,3
1,35,30,-17,-14,32,-19,12,2,0,-883,3
1,37,30,-18,-14,32,-19,12,2,0,-1144,3
0,36,30,-17,-15,32,-18,11,2,0,-1395,2
-1,29,29,-14,-16,29,-18,10,2,0,-850,2
-2,24,29,-12,-15,27,-18,10,2,0,207,1
-2,21,29,-10,-15,26,-17,10,2,0,821,1
-2,20,28,-9,-15,25,-17,10,1,0,431,1
-2,23,27,-11,-15,25,-17,10,1,0,-495,1
-1,27,26,-12,-14,26,-17,10,1,0,-932,1
-1,30,26,-13,-14,26,-16,11,1,0,-1163,1
-2,29,26,-12,-14,26,-16,11,1,0,-1364,1
-3,24,25,-10,-14,24,-16,10,0,0,-1613,1
-3,19,24,-8,-13,22,-16,10,0,-1,-1045,1
-3,17,25,-7,-14,22,-16,10,0,-1,85,1
-3,16,25,-7,-14,21,-16,10,0,-1,-24,1
-3,19,25,-8,-14,23,-16,10,0,-1,-794,1
-2,25,25,-11,-14,25,-16,10,0,-1,-1116,1
-1,28,25,-13,-13,26,-16,10,0,-1,-1249,1
-1,29,24,-13,-13,25,-16,10,-1,-2,-1366,1
-2,24,23,-11,-13,23,-16,9,-2,-3,-1552,0
-2,19,22,-9,-12,21,-15,8,-3,-4,-961,0
-1,17,22,-9,-12,20,-14,8,-3,-5,152,1
-1,16,22,-8,-11,20,-13,8,-3,-6,833,2
0,18,21,-9,-11,20,-13,8,-4,-6,509,2
1,22,21,-11,-10,21,-13,8,-4,-7,-375,2
0,23,20,-10,-10,20,-13,8,-4,-8,-811,2
0,24,20,-10,-10,20,-13,8,-4,-8,-1075,2
-1,23,20,-10,-10,20,-12,9,-3,-8,-1326,3
0,19,20,-10,-10,20,-12,9,-3,-8,-778,4
0,16,19,-9,-9,19,-12,9,-4,-9,281,4
0,14,18,-9,-9,18,-12,8,-4,-9,898,5
0,14,17,-9,-9,17,-12,8,-4,-9,511,6
0,17,17,-9,-9,17,-12,8,-4,-9,-411,7
0,19,17,-8,-9,17,-13,8,-4,-10,-843,8
1,20,16,-9,-8,17,-13,7,-4,-10,-1072,9
3,20,14,-10,-5,15,-14,6,-5,-11,-1277,9
4,16,11,-10,-4,13,-14,6,-5,-12,-1532,9
4,12,10,-8,-4,12,-14,6,-6,-13,-970,9
3,10,10,-7,-4,12,-14,6,-7,-14,154,9
2,8,9,-6,-4,11,-14,5,-7,-15,35,8
2,10,9,-6,-4,11,-14,3,-8,-16,-741,7
2,14,9,-7,-4,12,-13,2,-8,-16,-1068,6
2,17,11,-9,-4,13,-12,0,-7,-16,-1204,6
2,20,14,-10,-5,15,-11,-2,-5,-16,-1321,6
1,20,16,-10,-7,17,-10,-5,-4,-16,-1507,7
2,20,18,-11,-8,19,-10,-8,-4,-15,-916,7
2,21,20,-13,-9,22,-11,-13,-7,-15,197,9
2,22,23,-13,-10,24,-14,-20,-15,-15,879,11
2,26,26,-15,-12,27,-17,-28,-26,-14,560,16
4,33,28,-19,-12,31,-21,-36,-38,-13,-316,24
9,40,29,-24,-10,34,-26,-42,-48,-11,-743,32
15,47,27,-30,-6,35,-32,-47,-58,-10,-997,42
22,51,26,-36,-2,37,-38,-53,-72,-11,-1239,53
26,51,25,-39,0,38,-44,-60,-92,-15,-685,62
30,52,23,-42,3,38,-50,-69,-115,-21,379,71
34,52,22,-44,5,38,-56,-80,-140,-29,998,78
35,54,21,-45,6,39,-61,-90,-165,-38,611,84
35,57,22,-46,6,40,-65,-99,-187,-48,-311,89
34,58,23,-45,5,40,-66,-104,-204,-59,-747,89
32,54,20,-42,6,36,-65,-106,-214,-71,-985,83
29,46,14,-36,7,29,-63,-105,-219,-83,-1200,73
25,34,8,-29,8,20,-61,-103,-220,-92,-1467,60
20,22,4,-22,7,14,-58,-101,-218,-100,-919,44
12,13,3,-14,4,9,-53,-96,-210,-106,188,25
3,4,3,-5,0,5,-45,-88,-199,-110,889,6
-5,-2,3,3,-4,1,-38,-79,-186,-111,597,-7
-10,-5,3,8,-7,-1,-32,-72,-174,-111,-277,-16
-13,-8,1,11,-7,-4,-28,-67,-164,-111,-738,-23
-14,-11,0,13,-7,-7,-24,-63,-154,-110,-1050,-28
-14,-15,-2,15,-6,-9,-22,-59,-145,-108,-1353,-31
-15,-19,-2,16,-7,-10,-20,-55,-135,-104,-834,-33
-16,-20,-1,17,-8,-10,-17,-51,-124,-98,236,-33
-17,-20,0,17,-9,-8,-15,-48,-112,-91,891,-33
-18,-17,2,17,-10,-6,-13,-44,-100,-83,554,-32
-17,-13,3,15,-10,-5,-11,-40,-89,-76,-334,-30
-16,-10,4,14,-10,-3,-10,-35,-76,-68,-770,-27
-15,-7,5,12,-10,-2,-8,-29,-64,-60,-1031,-22
-14,-5,6,10,-10,0,-7,-24,-52,-53,-1279,-18
-13,-5,8,9,-11,1,-5,-19,-41,-45,-729,-14
-9,-2,8,5,-9,3,-3,-14,-32,-38,332,-10
-6,0,8,2,-8,5,-2,-9,-24,-32,950,-7
-4,1,8,0,-6,6,-1,-5,-17,-27,561,-6
-3,4,7,0,-5,6,0,-3,-12,-23,-362,-4
-2,5,6,-1,-4,5,0,-1,-9,-21,-793,-3
-2,6,5,-1,-3,5,0,0,-6,-19,-1020,-1
-2,6,4,-1,-3,4,-1,1,-4,-17,-1220,1
-2,4,5,-1,-3,4,-1,1,-2,-16,-636,2
-2,3,5,-1,-3,4,-1,2,-1,-14,423,3
-1,2,4,-1,-3,4,-1,2,0,-12,1009,4
0,2,4,-1,-2,3,-1,3,2,-10,573,5
0,3,3,-1,-2,3,-1,5,3,-8,-388,5
0,4,3,-1,-2,3,-1,6,4,-7,-821,6
0,5,3,-2,-1,3,-1,8,5,-6,-1022,7
0,6,3,-3,-1,4,0,9,6,-5,-1178,8
1,6,4,-3,-1,4,0,10,7,-5,-1386,9
1,5,4,-3,-1,4,0,10,7,-4,-806,9
1,5,4,-3,-1,4,0,10,8,-4,303,8
2,5,4,-4,-1,5,0,11,9,-3,979,8
3,5,4,-4,-1,5,0,12,10,-2,650,8
4,6,3,-5,0,5,0,13,11,-1,-238,8
4,7,3,-5,0,5,0,14,12,-1,-677,9
4,8,3,-6,0,5,0,14,13,0,-940,10
4,8,2,-6,1,5,0,14,14,0,-1189,10
4,6,2,-5,1,4,-1,13,14,0,-641,10
4,5,2,-5,0,4,-2,13,15,0,418,10
3,5,2,-4,0,4,-2,13,16,1,1035,10
3,4,2,-4,0,3,-2,13,17,1,645,10
3,4,2,-4,0,3,-3,13,18,2,-279,9
4,5,1,-4,1,3,-3,14,19,2,-711,8
4,6,1,-4,1,3,-4,14,20,3,-940,8
4,6,1,-4,1,3,-4,15,21,4,-1141,8
5,6,0,-5,2,3,-4,15,23,5,-1393,9
6,5,0,-6,2,3,-4,15,23,5,-831,8
5,3,-1,-4,2,1,-4,15,23,4,293,7
4,2,-1,-4,3,0,-4,14,23,4,173,6
5,3,-2,-4,4,0,-4,14,24,4,-603,5
6,4,-2,-5,4,0,-3,14,26,5,-928,5
6,4,-2,-4,4,1,-3,14,27,5,-1062,6
4,4,-1,-3,3,1,-2,15,28,6,-1176,7
3,4,0,-3,2,1,-2,15,29,6,-1361,8
4,4,0,-3,2,2,-2,16,30,6,-772,9
5,4,0,-4,3,2,-2,17,31,6,337,10
6,4,0,-5,3,2,-2,17,32,6,1012,11
6,4,0,-5,3,2,-2,18,33,7,683,12
6,5,-1,-5,3,2,-2,18,34,7,-201,14
6,4,-1,-4,3,1,-3,18,34,7,-637,15
4,2,-2,-3,3,0,-4,18,33,7,-900,15
3,1,-2,-2,3,0,-5,18,33,6,-1148,15
3,2,-1,-2,2,0,-5,18,34,7,-600,17
3,3,0,-2,2,1,-5,18,35,8,459,18
3,3,1,-2,1,2,-5,19,36,9,1071,19
3,3,1,-2,1,2,-5,20,37,10,677,20
3,3,1,-3,1,2,-4,20,38,10,-249,20
3,3,1,-3,1,2,-4,21,39,10,-683,20
3,3,0,-3,1,2,-3,21,39,10,-913,20
3,2,-1,-3,1,1,-3,21,39,10,-1115,20
4,1,-2,-2,2,0,-3,21,39,10,-1369,20
4,0,-3,-2,3,-1,-2,22,39,10,-807,20
3,0,-2,-1,2,-1,-1,22,39,10,318,20
2,0,-1,0,2,0,0,23,40,10,200,20
2,1,0,-1,1,0,1,24,40,10,-574,21
3,2,0,-2,1,1,2,24,40,10,-897,21
4,3,0,-3,1,1,2,25,40,11,-1028,21
4,4,0,-4,1,2,3,25,41,11,-1139,21
4,5,0,-4,1,2,4,26,42,12,-1321,22
3,5,1,-4,1,3,4,27,42,12,-732,22
3,5,1,-4,1,3,4,27,42,12,377,21
3,4,1,-4,1,3,4,27,42,12,1051,21
2,4,1,-3,0,3,4,27,42,12,720,20
2,4,1,-3,0,2,4,27,42,12,-165,19
1,4,1,-3,0,2,3,27,42,12,-602,18
2,5,1,-3,0,2,3,28,43,12,-866,18
3,6,1,-4,1,2,3,29,43,12,-1116,17
4,6,1,-5,2,3,3,29,43,12,-569,17
5,6,1,-5,2,4,3,30,43,12,487,16
5,8,2,-6,2,5,3,30,44,13,1098,15
6,9,2,-7,2,6,4,31,44,13,703,15
6,9,3,-7,1,6,4,32,45,13,-225,14
5,10,3,-7,1,7,4,32,45,13,-660,14
5,9,4,-6,0,7,4,33,45,13,-892,13
4,9,4,-5,0,6,4,33,45,13,-1094,12
3,9,5,-5,0,6,3,33,45,13,-513,11
4,10,5,-6,0,7,3,33,46,13,543,11
6,11,5,-8,0,8,3,33,46,12,1124,10
7,12,4,-9,1,8,4,33,46,12,1514,10
9,13,4,-10,2,8,4,34,45,12,1038,9
9,12,3,-10,3,8,4,34,44,12,55,8
8,11,3,-9,3,7,3,33,43,11,-472,7
7,11,4,-9,2,7,4,33,43,11,-819,6
7,11,4,-9,1,8,4,34,42,11,-1141,6
6,11,4,-9,0,8,5,34,41,11,-635,5
6,11,4,-9,0,8,5,33,40,10,426,4
6,11,4,-8,0,8,5,32,38,10,1070,3
6,11,4,-9,1,7,5,32,36,9,721,2
8,11,3,-10,2,7,5,32,35,9,-176,2
8,11,3,-10,3,7,5,31,34,9,-620,1
9,12,3,-10,3,7,5,31,33,8,-887,1
9,12,3,-11,4,7,5,31,32,8,-1135,1
10,13,3,-12,4,7,5,30,31,8,-587,1
11,13,2,-12,4,8,5,30,29,8,474,1
12,13,2,-12,4,8,4,29,27,7,1089,0
12,13,2,-12,4,8,4,28,25,7,695,0
12,13,2,-12,4,8,4,27,24,6,-231,0
12,13,2,-12,4,8,3,27,22,6,-665,0
12,13,2,-12,4,8,3,26,21,5,-896,0
12,13,1,-12,5,7,2,26,20,5,-1095,0
12,13,0,-12,6,7,2,25,18,5,-512,0
12,12,0,-12,6,6,2,25,16,4,546,1
11,11,0,-11,5,5,2,23,14,3,1128,1
11,10,-1,-10,6,4,2,22,12,3,1518,1
11,9,-2,-10,6,4,2,21,10,2,1042,1
11,9,-2,-9,6,3,2,20,8,2,60,1
9,7,-2,-8,5,3,2,19,7,1,-464,2
9,6,-2,-7,5,2,2,19,5,1,-809,2
8,5,-3,-7,5,2,2,18,3,1,-1130,2
8,5,-4,-7,6,1,2,17,1,1,-623,2
9,5,-5,-7,7,0,2,16,0,1,438,3
10,5,-5,-7,7,0,2,16,-2,1,1082,4
11,4,-6,-7,8,-1,2,15,-3,0,734,5
12,3,-7,-7,9,-3,1,15,-4,0,-162,6
12,3,-8,-7,9,-3,1,15,-5,0,-604,7
12,3,-9,-7,9,-3,2,14,-6,0,-868,8
10,1,-9,-5,9,-4,2,13,-7,0,-1115,8
9,0,-10,-4,9,-5,2,11,-8,0,-567,8
8,-2,-10,-2,9,-6,1,10,-9,0,492,8
7,-5,-11,0,9,-8,1,10,-10,0,1107,8
6,-6,-11,1,9,-9,1,10,-11,0,715,8
6,-6,-12,0,10,-9,2,10,-11,0,-207,9
8,-5,-13,-1,11,-9,2,11,-10,1,-635,10
9,-4,-14,-2,12,-10,2,11,-10,2,-860,11
10,-4,-15,-2,12,-10,2,11,-10,3,-1055,11
11,-4,-16,-3,13,-11,3,11,-10,3,-467,11
12,-4,-17,-3,14,-11,3,11,-10,4,593,12
12,-5,-18,-3,15,-11,4,11,-10,5,1180,12
11,-7,-18,-1,14,-12,4,10,-11,5,1577,12
10,-9,-18,0,14,-13,4,10,-11,5,1111,12
10,-9,-18,0,14,-14,4,10,-11,5,141,12
10,-9,-19,0,15,-14,4,10,-12,6,-373,12
8,-11,-20,1,14,-16,4,9,-12,6,-709,11
6,-13,-20,3,13,-17,4,9,-12,6,-1023,11
5,-14,-19,4,12,-17,4,10,-12,6,-511,11
6,-14,-19,4,13,-17,4,10,-12,7,556,12
7,-13,-20,3,14,-17,5,11,-12,7,1203,12
8,-13,-20,3,14,-17,5,11,-11,8,856,12
7,-14,-20,4,14,-17,6,12,-11,8,-39,12
6,-15,-20,5,14,-17,6,12,-11,8,-483,12
5,-16,-21,6,13,-19,5,12,-11,7,-750,11
5,-17,-22,6,13,-20,5,12,-11,7,-1000,11
5,-17,-23,6,14,-20,6,12,-11,7,-456,11
7,-16,-23,5,14,-20,6,13,-10,8,600,12
8,-16,-23,4,15,-20,7,13,-9,8,1210,12
8,-18,-25,5,16,-21,7,13,-10,7,810,12
8,-19,-26,6,16,-23,6,12,-10,6,-118,12
8,-19,-27,6,17,-23,6,12,-9,6,-552,12
8,-20,-28,6,18,-24,6,12,-9,6,-782,12
8,-21,-28,6,18,-25,6,12,-9,6,-980,13
8,-21,-29,6,18,-25,7,12,-9,6,-396,13
8,-21,-29,6,18,-25,7,12,-8,6,661,14
8,-21,-29,6,18,-25,7,12,-8,6,1245,14
8,-22,-29,7,18,-25,7,11,-8,6,1636,13
8,-22,-30,8,18,-25,7,10,-8,6,1163,13
8,-21,-30,7,18,-25,7,11,-8,6,185,13
9,-21,-29,7,18,-25,7,11,-8,6,-335,13
9,-20,-29,6,18,-25,7,12,-8,5,-676,13
9,-19,-28,5,18,-24,8,12,-8,5,-995,13
9,-19,-28,5,18,-24,8,13,-8,5,-489,13
10,-19,-28,5,18,-24,7,13,-8,5,572,13
10,-19,-29,5,18,-24,7,13,-9,4,1216,12
10,-19,-29,5,18,-24,7,13,-9,3,868,10
10,-19,-29,5,18,-24,7,13,-9,3,-25,9
9,-19,-29,5,18,-24,8,13,-8,3,-464,8
9,-19,-29,5,19,-24,9,14,-7,3,-725,8
9,-19,-29,5,19,-24,9,14,-7,4,-970,7
10,-19,-29,5,19,-24,10,14,-6,5,-423,7
10,-18,-29,4,19,-24,11,15,-5,5,636,7
9,-19,-29,5,19,-24,11,15,-5,5,1247,6
9,-20,-30,6,19,-25,11,15,-5,5,847,5
10,-22,-32,6,20,-26,11,15,-5,5,-81,4
10,-22,-33,6,21,-27,11,15,-4,5,-515,3
11,-23,-34,6,22,-28,11,15,-4,4,-745,2
11,-23,-35,6,23,-29,11,15,-4,4,-943,1
12,-23,-36,6,24,-30,10,15,-4,3,-359,0
11,-25,-36,7,24,-31,10,15,-4,2,698,-2
11,-25,-37,7,24,-31,10,16,-3,2,1282,-4
12,-24,-37,6,24,-30,10,17,-2,2,1674,-5
13,-23,-36,5,24,-29,11,18,0,3,1203,-5
13,-22,-36,5,24,-29,11,18,0,3,229,-6
13,-22,-35,4,24,-28,11,19,1,3,-288,-7
13,-22,-35,5,24,-29,11,19,1,3,-625,-8
12,-23,-35,5,23,-29,11,19,1,3,-940,-9
12,-24,-35,6,23,-29,11,19,1,3,-430,-9
11,-24,-35,6,23,-29,10,19,1,3,635,-10
11,-25,-36,6,23,-30,10,18,1,2,1283,-11
12,-24,-36,6,23,-30,10,18,1,2,939,-11
14,-22,-37,4,25,-29,10,18,1,2,52,-10
15,-21,-37,2,26,-29,9,18,1,2,-382,-10
15,-21,-37,2,26,-30,9,18,1,2,-640,-10
15,-21,-37,3,26,-29,9,18,1,2,-882,-10
16,-21,-37,2,26,-29,8,19,1,2,-332,-10
17,-20,-37,2,27,-28,8,19,1,2,728,-10
16,-21,-37,2,26,-28,7,20,1,2,1342,-10
14,-21,-36,3,25,-29,7,20,1,1,947,-11
14,-22,-36,4,25,-29,7,20,1,1,23,-11
14,-21,-36,4,25,-28,7,20,1,1,-407,-11
14,-20,-35,3,25,-28,7,20,2,2,-631,-11
15,-20,-35,3,25,-28,7,20,2,2,-822,-11
15,-20,-35,2,25,-28,7,20,2,2,-1069,-11
15,-20,-35,3,25,-28,7,20,2,2,-503,-12
15,-21,-36,3,25,-28,7,20,1,2,623,-12
15,-21,-36,3,25,-28,7,19,0,2,499,-13
15,-21,-36,3,25,-28,7,19,0,2,-279,-13
14,-21,-35,3,25,-28,7,19,0,2,-600,-13
14,-21,-35,4,24,-28,7,19,0,2,-730,-13
13,-21,-34,4,24,-28,7,18,0,2,-837,-14
12,-21,-33,4,23,-27,7,18,0,2,-1016,-14
12,-20,-32,4,22,-27,7,18,0,2,-427,-13
12,-20,-32,4,21,-26,7,18,0,2,683,-13
11,-20,-31,4,21,-26,7,18,0,3,1355,-13
11,-20,-31,5,20,-25,8,18,0,3,1025,-13
10,-20,-30,5,20,-25,8,18,0,3,144,-12
10,-20,-30,5,19,-25,8,17,0,3,-288,-12
10,-20,-30,6,19,-25,8,16,0,2,-546,-12
10,-20,-30,5,19,-25,8,16,0,2,-786,-12
11,-19,-30,4,20,-24,8,16,0,2,-1072,-12
10,-18,-29,4,19,-24,8,15,0,2,-509,-12
9,-18,-28,4,18,-23,7,15,0,2,643,-12
8,-18,-27,5,18,-23,7,15,0,2,566,-12
8,-18,-27,5,17,-22,8,15,0,2,-169,-12
8,-18,-27,5,17,-23,8,15,0,2,-488,-12
8,-19,-27,6,17,-23,8,14,0,2,-649,-12
7,-19,-26,6,16,-23,8,14,0,2,-805,-11
6,-20,-26,7,15,-23,8,13,0,2,-1033,-11
7,-19,-27,6,16,-23,8,12,0,2,-459,-10
9,-17,-27,4,17,-22,8,12,0,2,671,-9
10,-17,-28,4,18,-22,8,12,0,1,549,-8
9,-18,-28,5,18,-23,8,13,-1,1,-228,-7
8,-18,-27,5,17,-23,8,13,-1,1,-550,-6
7,-18,-27,6,17,-22,8,13,0,2,-682,-5
7,-19,-27,6,17,-22,8,13,0,2,-791,-4
6,-19,-27,6,16,-22,8,12,0,2,-971,-3
6,-19,-26,6,15,-22,8,12,0,2,-383,-3
4,-19,-25,7,14,-22,8,12,0,2,726,-2
3,-20,-24,8,14,-22,7,12,0,1,1397,-2
3,-21,-24,9,13,-23,7,12,0,1,1065,-1
3,-21,-25,8,13,-23,7,12,0,1,182,-1
5,-20,-25,8,14,-23,7,12,0,1,-252,0
6,-19,-25,7,14,-22,7,12,0,2,-510,0
6,-19,-25,6,14,-22,7,12,0,2,-751,0
6,-19,-25,6,14,-22,6,12,1,2,-203,0
6,-18,-25,6,14,-21,6,12,2,2,854,1
7,-17,-24,6,14,-21,7,12,2,3,1466,1
7,-17,-24,6,14,-21,7,12,3,3,1067,2
6,-18,-24,7,14,-21,7,12,3,3,142,2
4,-18,-23,7,13,-21,7,12,3,3,-288,3
3,-19,-22,8,12,-20,7,13,3,3,-516,3
2,-19,-21,8,11,-20,6,13,3,3,-712,3
3,-19,-22,8,12,-20,6,13,3,3,-964,2
4,-18,-23,7,13,-21,6,13,3,2,-406,2
4,-18,-23,7,13,-21,6,13,3,2,714,2
4,-19,-24,7,13,-21,6,13,3,1,585,2
4,-19,-24,8,13,-21,5,12,3,1,-196,1
4,-20,-24,8,13,-22,5,12,3,1,-522,1
4,-20,-24,8,14,-22,5,12,3,1,-656,0
5,-19,-24,7,15,-22,6,12,3,1,-765,0
6,-18,-25,6,15,-22,6,12,3,0,-946,0
6,-19,-25,6,15,-22,6,12,3,0,-361,-1
4,-20,-24,7,14,-22,6,12,2,-1,745,-2
4,-20,-24,8,13,-23,6,12,2,-1,1413,-2
3,-21,-24,8,13,-23,6,12,2,-2,1078,-3
3,-21,-24,9,13,-23,6,12,2,-2,194,-4
3,-21,-24,9,13,-23,5,12,2,-3,-238,-5
2,-22,-24,10,13,-24,5,12,1,-3,-494,-5
1,-22,-24,11,12,-24,5,12,1,-4,-734,-6
0,-23,-24,11,12,-24,4,13,0,-4,-184,-7
0,-23,-24,12,11,-24,4,13,0,-5,876,-7
1,-23,-24,11,12,-24,3,13,0,-5,1490,-8
4,-21,-25,8,14,-24,3,13,0,-6,1093,-8
6,-19,-26,6,16,-23,3,14,0,-6,169,-8
7,-19,-25,6,16,-23,3,15,0,-6,-260,-8
7,-18,-25,6,15,-22,3,15,0,-6,-486,-9
7,-17,-25,5,15,-21,4,16,0,-5,-678,-9
8,-17,-25,5,15,-21,4,16,0,-5,-927,-9
8,-17,-24,5,15,-21,4,16,-1,-5,-365,-9
8,-16,-24,4,15,-20,4,16,-1,-5,759,-9
9,-15,-24,3,16,-19,5,17,-1,-4,634,-9
9,-14,-23,3,16,-19,5,18,-1,-4,-145,-9
9,-14,-23,3,16,-19,5,18,-1,-4,-466,-10
9,-14,-23,3,15,-19,6,19,-1,-3,-595,-10
8,-14,-22,3,14,-18,7,19,-1,-3,-699,-11
7,-13,-20,3,13,-17,7,20,-1,-2,-876,-11
7,-13,-20,3,13,-16,8,20,-1,-2,-288,-12
7,-12,-19,3,12,-16,8,19,-1,-2,823,-12
7,-12,-19,3,12,-15,9,19,-1,-2,661,-12
7,-12,-18,3,12,-15,9,19,-1,-1,-164,-12
6,-12,-19,3,12,-16,8,19,-2,-1,-504,-13
6,-13,-19,3,13,-16,7,19,-2,-1,-614,-13
7,-12,-20,2,13,-16,7,20,-1,-1,-680,-14
8,-12,-21,2,14,-16,7,20,-1,0,-806,-14
9,-12,-21,1,14,-16,7,21,0,0,-1025,-14
10,-10,-21,0,15,-16,7,21,0,0,-421,-14
11,-9,-20,0,15,-15,7,22,1,1,756,-13
10,-10,-20,1,14,-15,7,22,1,1,694,-13
8,-11,-19,2,13,-16,6,21,1,0,-32,-14
7,-13,-20,3,13,-16,6,21,0,0,-344,-15
6,-13,-20,3,13,-16,6,21,0,0,-499,-15
5,-14,-20,4,12,-16,5,21,0,0,-652,-15
4,-15,-20,5,12,-17,5,21,0,0,-883,-15
4,-17,-21,6,12,-19,4,21,0,-1,-316,-16
4,-17,-21,6,12,-20,3,21,-1,-2,807,-16
5,-17,-22,6,13,-20,3,21,-1,-2,680,-16
7,-15,-22,5,14,-19,4,21,0,-2,-101,-16
8,-14,-23,3,15,-19,5,21,0,-2,-425,-16
9,-14,-23,3,15,-19,5,20,0,-2,-558,-16
9,-14,-23,3,15,-19,6,20,0,-2,-665,-16
9,-14,-23,3,15,-19,6,19,0,-2,-844,-16
9,-14,-23,2,16,-19,6,19,0,-2,-256,-16
10,-15,-24,2,16,-20,6,19,0,-2,853,-17
9,-17,-25,4,16,-21,6,19,0,-3,688,-18
8,-18,-26,5,16,-22,6,19,0,-4,-141,-18
8,-19,-26,5,16,-23,6,19,0,-4,-482,-19
7,-20,-27,6,17,-24,6,18,0,-5,-592,-19
7,-20,-28,6,17,-24,6,18,0,-5,-657,-20
8,-20,-28,6,18,-24,6,18,0,-5,-783,-20
8,-20,-28,6,18,-24,6,18,1,-5,-1002,-19
6,-21,-28,7,17,-24,6,18,0,-6,-399,-19
5,-21,-27,8,15,-24,6,18,0,-6,777,-19
4,-22,-26,8,15,-24,6,18,1,-6,709,-19
3,-23,-26,9,14,-24,6,18,1,-6,-25,-19
2,-23,-26,10,14,-25,6,18,0,-6,-343,-19
3,-23,-26,10,15,-25,7,19,0,-5,-500,-19
3,-23,-27,10,15,-25,7,19,0,-5,-648,-19
3,-23,-27,10,14,-25,7,19,-1,-4,-869,-19
2,-23,-27,10,14,-25,8,19,-1,-4,-291,-19
2,-24,-26,11,13,-25,8,19,-1,-4,843,-19
2,-24,-26,11,13,-25,9,18,-1,-4,726,-19
2,-24,-26,11,14,-25,9,18,-1,-5,-48,-19
2,-24,-26,11,14,-25,9,17,-1,-5,-369,-19
1,-24,-25,11,13,-24,10,17,0,-5,-499,-19
1,-24,-25,11,12,-24,10,17,0,-4,-603,-19
0,-24,-25,12,12,-24,11,17,0,-4,-777,-19
-1,-25,-24,13,11,-25,11,17,0,-4,-185,-20
0,-25,-24,12,11,-25,11,17,0,-4,927,-20
0,-24,-24,11,12,-24,11,18,0,-3,763,-20
1,-23,-24,11,12,-24,11,18,0,-3,-66,-20
0,-23,-24,12,12,-24,11,17,0,-3,-410,-20
0,-24,-24,12,12,-24,11,17,0,-3,-524,-20
0,-23,-24,12,12,-24,11,17,0,-3,-593,-20
0,-23,-24,11,12,-24,12,17,0,-3,-723,-21
0,-24,-25,12,12,-25,11,17,0,-3,-944,-22
0,-25,-25,12,12,-25,10,16,0,-3,-343,-23
0,-25,-25,12,12,-25,10,16,0,-3,834,-23
0,-24,-24,12,12,-24,10,16,0,-3,771,-23
0,-24,-24,13,12,-24,9,16,0,-3,46,-23
0,-24,-24,13,12,-24,9,15,0,-3,-265,-23
1,-22,-24,11,12,-23,9,15,0,-2,-418,-23
2,-21,-24,10,13,-23,10,15,0,-2,-567,-22
2,-22,-24,11,12,-23,9,15,0,-3,-790,-22
1,-22,-24,11,12,-23,9,15,-2,-3,-215,-22
0,-22,-23,11,12,-23,9,15,-2,-3,913,-22
0,-22,-23,11,11,-22,9,15,-3,-3,790,-22
0,-21,-22,10,11,-22,9,14,-3,-3,11,-22
1,-20,-22,10,11,-21,9,14,-3,-3,-310,-22
1,-20,-22,9,12,-21,9,13,-4,-3,-440,-23
1,-20,-22,9,11,-21,9,12,-4,-4,-546,-22
0,-21,-22,11,10,-21,8,11,-5,-4,-724,-22
-1,-22,-22,12,10,-22,8,10,-5,-4,-136,-21
-2,-22,-21,12,9,-22,7,10,-6,-4,975,-21
-2,-23,-21,13,9,-22,6,9,-6,-4,811,-21
-2,-23,-21,13,9,-23,6,9,-7,-4,-18,-20
-1,-23,-22,12,10,-23,6,9,-7,-4,-359,-20
-2,-23,-21,13,9,-23,6,9,-7,-4,-468,-19
-2,-23,-21,13,9,-23,6,9,-7,-4,-529,-18
-3,-23,-21,13,9,-23,6,9,-7,-3,-654,-17
-2,-23,-21,13,9,-23,7,10,-8,-3,-876,-16
-1,-23,-22,12,10,-23,7,9,-8,-2,-280,-16
0,-22,-23,11,12,-23,8,8,-8,-2,888,-16
0,-22,-22,11,11,-22,8,7,-7,-2,820,-16
-1,-21,-20,11,10,-20,8,6,-6,-2,91,-16
-2,-20,-18,11,8,-19,8,4,-4,-1,-221,-16
-3,-18,-15,10,6,-17,9,2,-2,0,-376,-15
-2,-15,-13,8,5,-14,9,0,0,1,-524,-13
-1,-11,-11,6,5,-11,8,-2,-1,2,-744,-11
-1,-8,-9,4,4,-8,6,-8,-6,4,-164,-7
-1,-5,-5,3,2,-5,3,-16,-16,5,971,-3
-2,-2,-1,2,0,-2,0,-24,-27,5,855,3
0,2,1,-1,0,1,-5,-32,-39,6,84,12
3,6,2,-5,0,3,-11,-38,-49,8,-230,22
8,10,2,-9,3,5,-18,-43,-62,8,-354,32
13,15,1,-14,5,7,-25,-51,-80,5,-454,42
18,19,0,-19,9,9,-32,-60,-102,1,-625,51
25,24,-1,-24,13,10,-38,-71,-126,-6,-867,59
31,28,-3,-29,17,11,-43,-82,-151,-15,-251,66
34,29,-4,-31,19,12,-48,-94,-175,-25,124,71
33,28,-5,-31,19,12,-50,-102,-194,-36,-390,74
30,24,-6,-27,18,9,-50,-108,-206,-48,-555,72
27,16,-11,-21,18,3,-49,-109,-214,-60,-570,64
24,7,-16,-15,19,-4,-47,-108,-216,-70,-583,53
20,-1,-20,-9,19,-11,-44,-106,-214,-78,-680,40
14,-7,-21,-3,17,-15,-39,-103,-208,-85,-888,25
5,-15,-21,5,12,-18,-32,-97,-197,-90,-287,6
-5,-24,-20,15,7,-22,-23,-89,-184,-92,881,-11
-13,-33,-20,23,3,-26,-17,-82,-171,-93,809,-22
-19,-39,-21,30,0,-30,-12,-75,-159,-93,73,-30
-24,-45,-21,35,-2,-33,-7,-69,-148,-92,-245,-36
-28,-49,-21,39,-3,-35,-4,-63,-138,-90,-404,-41
-30,-52,-22,41,-4,-37,-1,-58,-127,-86,-555,-43
-29,-51,-22,40,-3,-38,1,-52,-116,-81,-778,-44
-27,-50,-22,39,-3,-37,3,-47,-104,-75,-201,-45
-27,-48,-21,38,-3,-35,5,-43,-92,-68,930,-44
-26,-47,-21,37,-3,-34,6,-39,-80,-61,809,-43
-25,-44,-20,35,-3,-32,8,-33,-67,-54,32,-40
-21,-39,-19,31,-2,-29,10,-27,-54,-46,-285,-35
-17,-35,-18,27,0,-26,11,-20,-42,-38,-409,-31
-15,-32,-18,24,1,-25,12,-15,-31,-31,-509,-28
-13,-30,-17,22,1,-23,13,-10,-22,-25,-679,-25
-12,-28,-16,20,1,-22,15,-6,-14,-19,-85,-22
-12,-27,-15,20,1,-21,16,-3,-7,-13,1029,-20
-12,-26,-14,19,1,-20,17,0,0,-9,867,-18
-11,-25,-14,18,1,-19,18,2,5,-5,40,-16
-10,-24,-14,17,1,-18,19,4,8,-3,-302,-13
-10,-23,-14,17,1,-18,19,5,10,-2,-413,-11
-9,-23,-14,16,1,-19,18,5,12,-1,-477,-10
-9,-23,-14,16,1,-19,18,6,13,0,-601,-8
-8,-22,-14,15,2,-19,18,7,15,2,-817,-7
-8,-22,-15,15,2,-19,17,8,16,4,-213,-7
-8,-23,-16,16,3,-20,17,8,17,5,962,-7
-7,-23,-17,15,4,-20,16,9,18,6,897,-7
-5,-23,-18,14,5,-20,16,9,19,6,167,-7
-3,-21,-19,12,6,-20,16,10,20,7,-146,-7
-2,-20,-18,12,7,-19,16,10,21,7,-302,-7
-3,-19,-17,11,6,-18,16,11,21,8,-452,-7
-4,-19,-16,12,5,-18,16,11,22,8,-674,-8
-4,-20,-16,13,5,-19,16,11,22,9,-99,-8
-4,-20,-17,12,6,-19,16,11,23,9,1030,-8
-3,-21,-17,12,7,-19,16,11,25,10,906,-8
-5,-22,-18,14,6,-20,15,10,26,10,124,-7
-6,-23,-18,15,5,-20,15,10,26,10,-202,-7
-6,-23,-17,15,5,-20,14,11,27,10,-336,-6
-6,-23,-17,15,5,-20,13,11,28,10,-444,-5
-7,-24,-17,15,5,-21,12,11,28,9,-622,-5
-6,-22,-17,14,5,-20,12,11,29,10,-34,-5
-4,-20,-17,12,6,-19,13,12,30,11,1075,-4
-2,-19,-17,11,7,-19,13,13,31,12,910,-4
0,-18,-19,9,8,-19,12,13,32,12,80,-5
0,-18,-19,9,9,-19,11,12,32,12,-262,-6
-1,-19,-18,11,8,-19,11,12,32,12,-373,-7
-2,-19,-17,11,7,-19,10,12,33,11,-439,-7
-1,-19,-17,10,8,-19,10,12,33,11,-566,-8
-1,-18,-17,10,8,-19,11,12,34,12,-789,-8
-2,-19,-17,10,8,-19,11,13,35,12,-194,-8
-2,-19,-17,11,7,-18,12,13,37,13,975,-8
-2,-19,-17,11,7,-18,13,14,38,14,908,-8
-2,-19,-17,10,7,-18,13,15,39,14,180,-8
-2,-19,-17,10,7,-18,13,16,40,15,-132,-8
-2,-19,-17,10,7,-18,13,16,41,15,-288,-8
-2,-19,-17,10,7,-19,13,16,41,15,-437,-8
-2,-19,-18,10,8,-19,13,16,42,15,-659,-8
-1,-19,-18,10,8,-19,12,17,42,15,-83,-9
0,-18,-19,9,9,-19,12,17,43,16,1046,-9
1,-18,-19,9,10,-19,12,17,43,16,921,-9
0,-19,-19,10,9,-19,11,18,44,16,139,-9
-1,-19,-18,10,8,-19,11,18,44,17,-185,-9
-2,-20,-17,11,7,-19,10,19,44,17,-316,-9
-4,-20,-16,12,6,-19,10,19,45,17,-422,-9
-4,-20,-16,12,6,-19,9,19,45,17,-598,-9
-3,-19,-17,11,6,-19,9,19,45,17,-8,-10
-2,-19,-17,11,7,-19,8,19,45,17,1102,-10
-1,-19,-17,11,7,-19,8,19,45,17,936,-11
-1,-19,-17,11,7,-19,8,20,45,17,104,-11
0,-19,-17,10,7,-19,9,20,46,17,-241,-11
-1,-19,-18,10,7,-19,9,20,46,16,-356,-11
-1,-19,-18,10,7,-18,10,21,47,16,-425,-10
-1,-18,-17,10,8,-18,11,21,48,17,-551,-10
-1,-18,-17,10,7,-18,12,22,49,17,-768,-9
-2,-18,-16,10,6,-17,13,22,50,18,-164,-9
-2,-18,-15,10,6,-17,14,23,50,18,1012,-8
-2,-18,-15,10,6,-17,14,23,51,18,947,-8
-2,-18,-15,10,6,-17,14,24,51,17,217,-8
-2,-17,-15,10,6,-16,15,24,52,17,-96,-8
-2,-17,-15,10,6,-16,15,25,52,17,-251,-8
-3,-17,-14,10,5,-16,15,25,53,17,-399,-8
-3,-17,-14,10,5,-16,15,25,54,17,-620,-9
-2,-16,-14,9,6,-16,15,25,54,17,-41,-9
-1,-15,-14,8,6,-16,15,25,55,17,1091,-10
0,-15,-14,8,6,-16,15,25,55,17,968,-10
0,-14,-14,7,6,-15,15,26,56,17,186,-10
1,-13,-13,6,7,-14,16,26,57,17,-140,-9
2,-11,-13,5,7,-13,16,27,58,18,-272,-9
2,-11,-13,4,7,-12,16,28,59,18,-378,-10
2,-10,-13,4,7,-12,15,28,59,18,-553,-10
2,-10,-12,4,7,-11,15,29,60,18,-797,-10
2,-10,-12,4,7,-11,15,30,60,18,-181,-10
1,-10,-12,4,6,-12,15,31,60,18,194,-11
0,-11,-11,5,5,-11,15,31,61,18,-317,-11
0,-10,-9,6,4,-10,15,31,62,18,-473,-10
0,-9,-8,5,4,-9,16,32,63,19,-474,-10
0,-7,-8,4,4,-8,17,32,64,19,-472,-9
0,-7,-7,4,3,-7,18,32,65,19,-557,-9
-1,-7,-7,4,3,-7,18,33,65,19,-750,-9
-1,-7,-6,4,3,-7,19,33,65,19,-131,-9
1,-6,-6,2,4,-7,19,33,66,19,1053,-9
2,-5,-7,1,4,-7,20,32,66,19,992,-9
3,-5,-7,1,5,-7,19,31,65,18,264,-10
3,-5,-7,1,5,-7,19,30,64,17,-49,-10
2,-5,-6,1,4,-6,19,29,64,17,-202,-10
0,-5,-5,2,3,-5,19,29,63,16,-349,-10
0,-4,-4,2,2,-4,19,28,63,16,-566,-9
-1,-4,-2,2,1,-3,19,28,63,16,16,-9
-1,-3,-1,2,0,-2,19,28,63,16,1152,-8
-1,-2,0,2,0,-1,19,28,63,16,1033,-7
-1,-1,0,1,-1,-1,19,28,62,16,254,-6
-1,0,0,1,-1,0,19,27,61,16,-68,-5
-1,0,1,0,-1,0,19,26,60,16,-197,-4
-1,1,1,0,-1,0,19,25,59,16,-301,-4
0,2,1,-1,-1,1,19,25,59,15,-475,-4
0,2,2,-1,-2,1,18,24,58,15,-718,-4
0,3,3,-1,-2,2,18,24,57,14,-102,-4
0,3,4,-1,-3,2,18,23,56,13,272,-3
0,3,4,-1,-3,2,17,21,54,13,-241,-2
-1,3,4,0,-3,2,17,19,52,12,-398,-2
-1,3,4,0,-3,3,16,17,51,11,-400,-1
-1,3,5,0,-3,3,16,16,49,11,-400,0
-2,3,5,0,-4,4,15,15,47,10,-486,1
-2,3,5,0,-4,4,15,14,45,10,-679,2
-2,3,5,0,-4,4,14,13,43,9,-63,3
-1,3,5,-1,-3,4,14,12,42,9,283,4
0,5,5,-2,-2,4,14,10,41,8,-277,6
1,6,5,-3,-1,4,14,9,39,8,-468,7
1,6,4,-3,-1,4,13,8,38,8,-465,8
1,5,3,-2,-1,4,12,6,36,6,-434,8
0,4,3,-1,-1,3,12,4,34,5,-473,8
-1,3,3,0,-1,3,11,2,32,5,-627,8
-2,2,2,0,-2,2,11,1,31,4,-8,9
-3,1,2,1,-2,1,10,0,29,4,1147,9
-3,0,2,2,-3,1,10,-2,27,3,1037,9
-4,0,2,2,-3,0,10,-3,26,3,262,10
-3,0,2,2,-2,0,9,-4,25,3,-60,11
-1,0,1,1,-1,0,9,-6,24,3,-190,12
0,0,1,0,0,0,9,-7,23,3,-295,13
0,0,0,0,1,0,8,-7,22,2,-468,13
1,0,-1,0,1,-1,8,-8,21,2,-710,13
0,0,-1,0,1,-1,8,-8,20,2,-93,13
-1,-1,-1,1,0,-1,8,-9,19,2,282,13
-2,-2,-1,2,0,-2,8,-9,19,2,-230,14
-3,-3,-1,3,0,-2,7,-9,18,2,-388,14
-3,-5,-2,4,0,-3,7,-9,18,2,-391,14
-4,-6,-2,5,0,-4,6,-9,18,2,-394,14
-4,-7,-2,5,0,-5,6,-9,18,2,-485,14
-4,-8,-3,6,0,-6,6,-9,18,2,-682,14
-3,-8,-4,5,0,-7,6,-8,18,3,-64,14
-2,-7,-5,5,1,-7,6,-8,18,3,286,14
-2,-8,-5,5,1,-7,6,-7,17,3,-268,14
-3,-9,-6,6,1,-8,6,-7,17,4,-455,14
-4,-10,-6,7,1,-9,6,-7,16,4,-449,14
-4,-11,-7,7,1,-9,6,-7,16,4,-416,14
-4,-11,-7,8,1,-10,6,-7,15,4,-453,13
-4,-11,-6,7,1,-9,6,-7,15,4,-607,13
-3,-9,-6,6,1,-8,6,-6,15,5,12,13
-3,-9,-6,6,1,-8,6,-6,15,5,1167,13
-3,-10,-7,6,2,-9,6,-7,14,4,1053,12
-3,-11,-8,7,2,-10,5,-7,13,3,270,10
-3,-12,-9,7,3,-11,5,-7,13,3,-60,10
-3,-13,-9,8,3,-11,6,-7,13,3,-201,10
-3,-13,-10,8,4,-12,6,-7,13,3,-319,10
-3,-13,-10,8,4,-12,6,-7,13,3,-502,9
-2,-13,-11,8,5,-13,6,-7,12,3,90,7
-2,-13,-11,8,4,-13,6,-6,11,2,1206,6
-3,-13,-10,8,3,-12,6,-6,12,2,1046,5
-3,-13,-9,8,2,-11,6,-6,12,2,216,4
-3,-13,-9,8,2,-11,6,-6,12,2,-128,3
-3,-12,-9,8,3,-11,5,-6,12,2,-239,3
-3,-12,-9,8,3,-11,5,-6,11,2,-302,2
-4,-12,-9,8,2,-11,5,-6,11,2,-424,2
-5,-12,-8,8,2,-11,5,-5,11,2,-635,2
-5,-12,-8,8,1,-10,5,-4,11,2,-27,2
-5,-12,-8,8,1,-10,6,-4,11,2,317,2
-4,-12,-9,8,2,-11,6,-3,11,2,-243,2
-3,-12,-9,8,3,-11,6,-3,11,2,-432,2
-2,-11,-9,7,3,-11,6,-3,11,2,-426,2
-2,-11,-10,7,3,-11,7,-2,11,2,-393,2
-2,-11,-10,7,4,-11,8,-2,11,2,-434,2
-1,-12,-11,7,4,-12,8,-2,11,1,-589,2
-1,-12,-11,6,5,-12,8,-2,10,0,30,1
-1,-12,-11,6,5,-12,9,-2,10,0,1186,1
-1,-12,-11,6,5,-12,9,-1,10,0,1077,0
-1,-12,-10,7,4,-12,10,-1,10,0,301,0
-2,-13,-10,8,3,-12,10,-1,10,0,-20,-1
-3,-13,-10,8,3,-12,10,-1,9,0,-148,-2
-4,-13,-9,9,2,-12,11,-1,9,0,-251,-3
-6,-13,-8,9,1,-12,11,0,9,0,-422,-4
-7,-14,-8,10,0,-12,11,0,9,0,-660,-5
-7,-14,-8,10,0,-12,10,0,9,-1,-42,-6
-7,-15,-9,10,0,-13,9,0,8,-2,334,-7
-7,-16,-9,11,0,-13,10,0,8,-2,-177,-7
-6,-15,-9,10,0,-12,10,0,9,-2,-335,-7
-5,-13,-8,9,1,-11,11,1,9,-2,-335,-7
-4,-12,-8,8,1,-11,11,2,9,-2,-333,-8
-3,-12,-9,7,2,-11,11,2,10,-2,-417,-9
-2,-12,-9,7,2,-11,11,3,10,-2,-609,-10
-2,-13,-10,7,3,-12,10,3,10,-3,7,-11
-2,-14,-11,8,3,-13,10,2,10,-3,351,-13
-3,-15,-12,9,4,-14,10,2,11,-4,-209,-14
-3,-16,-13,9,4,-14,10,2,11,-4,-401,-15
-3,-16,-13,9,4,-15,10,2,11,-5,-396,-15
-3,-16,-13,10,4,-15,11,3,11,-5,-362,-16
-3,-16,-13,10,4,-15,11,3,11,-5,-400,-16
-3,-16,-13,9,4,-15,12,4,11,-5,-554,-16
-3,-16,-13,9,4,-15,12,4,11,-5,63,-16
-4,-17,-12,10,4,-15,12,4,11,-5,1217,-16
-4,-17,-12,10,4,-15,12,4,12,-5,1105,-16
-3,-16,-13,10,5,-15,11,4,12,-5,325,-16
-2,-16,-13,9,5,-15,11,5,12,-5,-2,-16
-2,-16,-14,9,6,-16,10,5,12,-5,-137,-15
-2,-16,-14,9,6,-16,9,5,12,-6,-248,-15
-2,-16,-15,9,6,-16,9,5,12,-6,-425,-15
-2,-16,-14,9,6,-16,8,5,12,-6,166,-14
-2,-16,-14,9,6,-15,8,5,11,-6,1277,-14
-3,-16,-14,9,5,-16,8,5,11,-6,1111,-14
-3,-17,-14,10,5,-16,7,5,10,-6,277,-14
-3,-17,-15,10,5,-17,7,5,10,-6,-71,-14
-3,-18,-15,10,5,-17,6,5,9,-6,-188,-14
-3,-18,-15,11,6,-18,6,5,9,-6,-260,-14
-2,-19,-16,11,6,-18,6,4,8,-7,-391,-13
-2,-19,-17,11,7,-18,6,4,8,-7,-611,-13
-3,-20,-17,11,6,-18,6,4,8,-8,-10,-12
-3,-20,-17,12,6,-18,7,4,8,-8,1164,-12
-3,-19,-17,11,6,-18,7,4,8,-8,1097,-12
-2,-19,-17,11,6,-18,8,4,8,-8,365,-12
-2,-18,-16,11,6,-18,8,4,8,-8,54,-13
-3,-18,-15,11,5,-17,8,4,8,-8,-91,-13
-3,-18,-14,11,5,-17,8,4,7,-8,-229,-14
-4,-19,-14,11,4,-17,7,4,7,-8,-442,-14
-5,-20,-14,12,4,-17,7,3,6,-8,143,-15
-6,-20,-14,13,4,-17,6,3,6,-8,1278,-15
-5,-19,-14,13,4,-17,6,3,5,-7,1156,-15
-4,-19,-15,12,5,-17,6,3,5,-7,370,-15
-3,-18,-15,11,5,-17,6,3,5,-6,41,-14
-2,-17,-15,10,6,-17,6,3,5,-6,-89,-14
-2,-17,-15,10,6,-17,6,3,5,-6,-191,-14
-2,-17,-15,10,6,-17,6,3,5,-6,-358,-15
-2,-17,-15,10,7,-16,6,2,5,-6,-594,-15
-2,-18,-15,10,7,-17,6,2,5,-6,25,-15
-3,-18,-16,11,6,-17,6,1,4,-6,403,-15
-3,-18,-16,11,6,-17,6,1,4,-6,-110,-15
-2,-18,-16,10,7,-18,6,1,3,-6,-273,-15
-2,-18,-17,10,7,-18,6,0,3,-6,-280,-15
-2,-18,-17,9,7,-18,6,0,3,-6,-284,-15
-2,-17,-16,9,7,-17,7,0,3,-6,-371,-15
-1,-15,-15,8,7,-15,7,0,3,-5,-560,-14
0,-13,-14,7,7,-14,7,0,3,-5,61,-14
0,-12,-13,6,6,-13,7,0,3,-5,412,-14
-1,-11,-11,6,5,-12,7,0,3,-5,-146,-14
-2,-10,-9,6,3,-10,7,-1,2,-6,-339,-15
-2,-7,-6,4,1,-7,5,-3,1,-7,-338,-16
-2,-3,-2,3,-1,-3,4,-5,0,-9,-308,-17
-2,0,1,1,-2,0,3,-7,-2,-10,-347,-19
-2,2,3,0,-3,3,2,-8,-3,-12,-499,-20
-1,4,4,-1,-3,4,2,-9,-4,-12,122,-20
0,6,5,-3,-2,5,2,-9,-4,-12,1279,-19
1,7,5,-4,-2,6,3,-9,-4,-12,1170,-18
2,7,4,-4,-1,6,3,-8,-3,-12,391,-17
2,5,4,-3,-1,4,3,-9,-3,-12,62,-17
0,3,3,-2,-1,2,3,-9,-3,-12,-75,-16
1,2,1,-2,0,1,4,-9,-2,-11,-186,-15
3,1,-1,-2,2,0,4,-9,-2,-10,-360,-15
3,0,-3,-2,3,-1,4,-9,-2,-10,-598,-15
3,0,-4,-1,3,-2,4,-9,-1,-10,20,-15
3,0,-4,-1,3,-2,4,-9,-1,-9,396,-14
3,-1,-4,-1,3,-3,4,-9,-1,-9,-124,-13
4,-1,-4,-1,3,-3,4,-9,0,-8,-293,-13
3,-1,-4,-1,3,-3,3,-9,0,-7,-303,-13
2,-2,-4,0,3,-3,3,-9,0,-7,-305,-13
1,-3,-4,1,2,-3,4,-8,1,-6,-389,-12
1,-3,-5,0,3,-3,4,-8,1,-5,-579,-10
2,-2,-5,0,3,-3,4,-8,1,-5,44,-9
3,-1,-5,0,4,-4,4,-8,1,-5,1232,-9
5,-1,-6,-1,6,-4,4,-9,0,-5,1168,-10
6,-1,-7,-2,7,-4,4,-9,0,-5,431,-14
6,-1,-7,-2,7,-4,4,-8,-1,-5,109,-17
6,0,-7,-3,7,-3,4,-8,-1,-5,-48,-19
6,0,-7,-3,7,-3,4,-8,-1,-5,-196,-20
6,-1,-7,-2,7,-3,3,-8,-1,-5,-412,-19
6,-1,-8,-2,7,-4,3,-9,-1,-6,171,-17
5,-2,-8,-1,6,-4,3,-9,-2,-7,1307,-15
3,-3,-7,0,5,-5,2,-10,-2,-7,1184,-13
2,-3,-7,0,4,-5,2,-11,-3,-8,395,-11
2,-3,-6,0,4,-4,2,-11,-3,-8,55,-9
2,-2,-6,0,4,-4,2,-11,-3,-8,-88,-7
3,-2,-6,-1,4,-4,2,-11,-3,-8,-199,-6
4,-1,-7,-2,5,-4,2,-11,-3,-8,-369,-5
4,-1,-7,-2,5,-4,2,-11,-3,-8,233,-5
4,-1,-6,-1,5,-4,2,-11,-3,-8,1354,-5
4,0,-5,-2,5,-3,2,-11,-3,-8,1193,-4
5,0,-6,-3,5,-3,2,-11,-2,-8,352,-3
6,0,-6,-3,6,-3,2,-11,-2,-9,-12,-1
5,0,-5,-3,5,-2,2,-10,-2,-9,-141,0
5,0,-5,-3,5,-2,2,-10,-2,-9,-213,2
4,0,-5,-3,5,-2,2,-10,-2,-9,-335,3
4,0,-5,-2,5,-2,2,-11,-2,-9,-539,3
4,1,-4,-3,4,-1,2,-11,-2,-9,77,4
5,3,-3,-4,4,0,3,-11,-1,-8,1262,5
6,4,-2,-4,4,1,3,-11,-1,-8,1198,5
6,4,-2,-5,4,1,2,-11,-2,-8,460,6
6,4,-2,-5,3,1,2,-11,-2,-8,137,7
6,5,-1,-5,3,2,2,-11,-2,-8,-22,8
7,7,-1,-6,3,3,3,-10,-1,-7,-168,10
7,7,0,-7,3,3,2,-10,-1,-7,-376,10
7,7,0,-7,3,4,2,-10,-1,-6,221,10
7,8,1,-7,2,5,1,-9,-1,-5,1370,9
7,9,1,-8,2,5,0,-9,-1,-4,1259,9
7,10,1,-8,2,6,0,-9,-1,-3,479,9
8,10,1,-9,3,6,0,-9,-1,-2,154,9
8,11,1,-9,3,6,-1,-9,-2,-1,34,9
8,11,2,-10,2,7,-3,-10,-3,0,-38,9
8,13,4,-10,1,9,-4,-11,-4,0,-158,9
9,15,6,-12,1,11,-6,-12,-6,0,-344,9
10,17,6,-13,1,12,-7,-13,-7,0,-525,10
10,17,7,-13,1,12,-8,-13,-8,0,-624,11
8,15,7,-12,0,11,-8,-13,-8,1,-591,13
7,14,6,-11,0,10,-9,-13,-8,1,-434,14
8,14,6,-11,0,10,-9,-13,-7,2,-251,16
8,14,6,-11,0,10,-8,-13,-7,3,-139,17
8,14,5,-10,1,9,-8,-14,-7,4,-158,17
8,12,3,-10,1,8,-8,-14,-7,4,-311,17
7,10,2,-9,2,7,-7,-14,-7,5,-505,17
6,9,2,-8,2,6,-7,-14,-7,5,-640,17
6,8,1,-7,2,5,-7,-14,-7,5,-654,17
6,7,0,-7,3,4,-7,-14,-7,6,-526,18
6,6,0,-6,3,3,-7,-14,-7,7,-334,20
7,6,-1,-6,4,3,-7,-13,-7,8,-189,23
7,6,-1,-6,4,2,-7,-13,-7,9,-157,27
7,6,-1,-6,3,2,-6,-12,-6,10,-265,30
7,6,-1,-6,3,2,-6,-12,-6,11,-453,34
7,5,-2,-6,4,1,-6,-12,-6,11,-615,36
7,4,-3,-5,5,0,-6,-12,-6,11,-675,37
6,3,-3,-5,4,0,-6,-12,-7,11,-588,39
6,3,-3,-4,4,0,-6,-12,-7,12,-400,41
6,3,-3,-4,5,0,-6,-12,-8,12,-227,43
6,2,-4,-4,5,0,-6,-13,-8,13,-150,46
6,2,-4,-4,5,-1,-6,-13,-8,13,-214,49
6,2,-4,-4,5,0,-6,-13,-7,15,-387,52
6,3,-3,-4,4,0,-5,-12,-6,16,-565,56
5,4,-2,-5,3,1,-4,-11,-6,18,-662,59
5,5,0,-5,2,2,-3,-11,-5,20,-621,60
3,4,1,-4,1,2,-3,-10,-5,21,-454,61
0,2,2,-1,-1,2,-3,-10,-5,23,-263,62
-2,0,2,0,-2,2,-3,-11,-4,24,-147,64
-3,0,2,1,-2,2,-2,-11,-4,26,-161,66
-2,0,1,0,-2,1,-2,-11,-3,28,-310,69
-1,0,1,0,-1,1,-2,-10,-2,29,-502,71
-1,0,1,0,-1,0,-1,-10,-2,30,-635,73
-2,-1,1,1,-2,0,-1,-9,-2,32,-646,75
-2,0,1,1,-2,0,0,-9,-1,34,-511,77
-1,0,1,1,-1,0,1,-8,0,36,-313,79
-1,0,1,1,-1,0,2,-8,0,37,-164,81
-2,-1,1,1,-1,0,3,-7,1,38,-131,83
-2,-1,0,1,-1,0,3,-7,1,39,-241,86
-1,0,0,1,-1,0,4,-7,1,41,-429,88
-1,0,1,0,-1,0,4,-7,1,43,-587,89
-2,0,1,1,-2,0,5,-7,1,44,-639,91
-4,-2,2,3,-4,0,5,-7,1,46,-545,92
-6,-3,3,5,-5,0,5,-7,2,48,-350,94
-7,-3,4,5,-6,0,6,-6,2,49,-173,96
-7,-3,3,5,-6,0,6,-6,2,50,-95,97
-6,-3,2,4,-5,0,6,-6,2,51,-159,99
-5,-3,2,4,-4,0,6,-6,2,52,-336,100
-5,-3,2,4,-4,0,6,-6,2,52,-519,100
-5,-3,1,4,-3,-1,6,-6,3,53,-620,101
-3,-2,1,3,-3,-1,7,-6,3,54,-583,101
-2,-1,0,3,-2,-1,7,-6,3,55,-416,102
-3,-2,0,3,-2,-1,7,-7,2,55,-224,102
-4,-4,0,4,-3,-2,7,-7,1,56,-107,103
-5,-4,0,5,-3,-2,7,-7,1,57,-122,104
-5,-4,0,4,-3,-1,8,-5,1,58,-270,105
-4,-3,0,3,-2,-1,8,-4,1,58,-462,105
-4,-3,0,3,-2,-1,7,-4,0,58,-595,105
-3,-3,-1,3,-1,-2,5,-5,0,58,-604,104
-2,-3,-2,2,0,-2,4,-5,0,58,-469,103
-1,-3,-3,2,0,-3,2,-6,0,58,-269,103
-1,-3,-3,2,0,-3,1,-6,0,58,-119,103
-1,-4,-3,3,1,-4,1,-5,0,58,-83,103
-2,-3,-3,3,0,-3,1,-5,0,58,-191,102
-2,-3,-2,3,0,-3,1,-4,0,59,-381,101
-3,-4,-2,3,0,-3,1,-4,0,58,-543,100
-3,-6,-3,4,-1,-4,1,-5,-1,58,-602,99
-3,-6,-4,4,0,-5,1,-5,-1,58,-511,98
-2,-6,-4,4,0,-6,2,-5,-2,58,-316,98
-1,-6,-5,3,1,-6,2,-5,-3,57,-135,96
-1,-6,-5,3,2,-6,3,-6,-4,56,-51,95
-1,-5,-4,3,1,-4,3,-7,-4,56,-107,94
-2,-2,-2,2,0,-2,4,-8,-3,57,-274,93
-2,0,1,1,-2,0,5,-10,-1,58,-446,93
-3,2,4,0,-4,3,6,-12,1,59,-534,92
-3,4,7,0,-6,5,6,-13,3,61,-485,93
-4,6,10,-1,-8,8,5,-17,2,63,-306,94
-4,9,13,-2,-9,10,3,-23,-3,64,-105,97
-3,12,15,-4,-10,14,0,-32,-13,64,21,101
-2,17,17,-8,-10,17,-3,-41,-25,64,18,107
1,21,18,-11,-8,20,-8,-48,-37,64,-118,113
7,25,16,-16,-5,21,-14,-54,-48,64,-298,121
14,29,14,-21,-1,22,-21,-61,-63,62,-420,128
19,32,12,-25,2,22,-28,-69,-83,57,-422,135
24,34,10,-28,6,22,-35,-80,-106,49,-280,140
27,35,8,-31,8,22,-41,-92,-131,40,-76,145
29,37,7,-33,10,22,-46,-104,-155,30,77,149
31,40,7,-36,12,23,-50,-115,-177,19,116,152
31,41,7,-36,12,24,-52,-123,-194,8,9,151
30,38,6,-34,12,22,-51,-126,-204,-4,-183,144
29,31,1,-30,13,16,-49,-126,-210,-16,-350,133
27,24,-3,-25,14,10,-47,-124,-211,-26,-415,119
21,16,-5,-18,12,5,-44,-123,-208,-35,-334,104
10,7,-3,-8,6,2,-39,-120,-202,-42,-154,85
-1,-2,0,2,-1,-1,-31,-113,-192,-48,9,66
-11,-9,1,10,-6,-3,-23,-105,-179,-51,79,50
-18,-15,1,17,-9,-6,-17,-97,-167,-52,12,39
-22,-19,0,21,-11,-9,-13,-90,-156,-52,-167,29
-24,-23,0,23,-12,-11,-10,-84,-146,-52,-350,21
-25,-25,-1,25,-12,-13,-7,-77,-136,-50,-450,15
-25,-26,-2,26,-12,-14,-6,-71,-126,-48,-412,11
-25,-27,-1,26,-13,-14,-4,-66,-116,-44,-243,8
-25,-25,0,26,-14,-12,-3,-61,-105,-39,-50,7
-26,-23,2,25,-14,-10,-1,-56,-93,-33,67,6
-25,-20,3,22,-14,-8,0,-50,-80,-26,55,6
-22,-16,3,19,-12,-6,1,-44,-68,-20,-89,6
-18,-13,3,16,-11,-5,2,-38,-56,-13,-275,7
-15,-10,3,13,-10,-3,2,-31,-44,-7,-402,9
-13,-7,5,11,-10,-2,3,-26,-34,-1,-410,10
-12,-5,6,9,-10,0,4,-21,-25,4,-275,12
-11,-3,7,7,-10,1,6,-17,-18,9,-77,13
-10,-2,7,6,-9,3,7,-13,-12,13,72,15
-8,0,6,4,-7,3,9,-10,-7,16,108,17
-6,1,6,2,-6,4,10,-7,-3,18,3,18
-4,2,6,1,-5,4,10,-5,-1,19,-181,18
-4,2,6,1,-5,4,10,-4,0,19,-335,18
-4,1,6,1,-6,3,10,-3,0,19,-388,18
-4,1,6,2,-6,3,10,-3,1,19,-298,18
-3,1,5,1,-5,3,9,-2,2,19,-109,18
-2,2,5,0,-4,4,9,-1,3,20,65,18
-2,3,4,0,-3,4,10,0,5,21,145,18
-1,4,4,-1,-3,4,10,1,6,21,89,17
-1,5,4,-2,-2,4,10,2,7,20,-76,16
0,6,4,-3,-2,5,10,2,8,20,-245,15
1,7,5,-4,-2,6,10,2,7,20,-334,14
0,7,6,-3,-3,7,9,2,7,19,-289,14
-1,7,7,-3,-5,8,9,2,6,19,-113,13
-1,8,9,-3,-6,9,7,3,5,18,97,12
-1,10,10,-4,-6,10,5,3,5,17,246,11
0,11,11,-5,-6,11,4,3,4,16,271,9
0,13,12,-6,-7,12,2,2,3,15,158,8
0,15,14,-7,-7,14,1,2,2,14,-7,8
0,16,15,-8,-8,16,1,1,2,13,-126,8
1,17,16,-9,-8,17,0,1,2,12,-137,9
1,17,16,-9,-8,17,0,1,2,11,-15,10
1,16,16,-8,-8,16,0,1,2,11,163,10
0,15,15,-6,-9,15,0,1,3,10,288,10
-1,14,15,-6,-9,14,0,2,4,9,302,11
-1,14,15,-6,-8,14,0,2,5,8,181,11
0,15,14,-7,-7,14,0,3,5,8,-15,11
1,16,14,-8,-7,14,0,3,5,7,-180,11
1,16,14,-8,-6,14,0,2,5,6,-246,11
1,15,13,-7,-6,14,0,2,5,5,-172,10
0,14,13,-6,-7,14,0,2,6,5,-1,10
0,13,13,-6,-7,13,0,2,6,4,152,10
0,13,13,-6,-7,13,1,2,7,3,214,10
-1,12,12,-6,-7,12,1,3,7,3,143,11
-1,12,12,-6,-7,12,1,3,8,2,-34,12
0,13,12,-6,-7,12,1,3,9,2,-213,13
0,13,12,-6,-7,12,1,3,10,1,-313,14
0,12,13,-6,-7,12,1,3,10,0,-282,14
0,13,13,-6,-7,12,0,4,11,0,-126,15
0,14,14,-7,-7,14,0,5,12,0,49,16
0,14,14,-6,-8,14,0,6,13,0,151,16
-3,12,14,-4,-9,13,-1,6,13,-1,128,15
-4,10,14,-3,-9,12,-3,6,13,-2,-20,15
-5,9,13,-2,-9,11,-4,6,13,-2,-206,15
-5,9,13,-2,-9,11,-5,6,13,-2,-334,16
-5,10,13,-2,-9,11,-6,7,13,-2,-345,16
-4,10,13,-3,-9,11,-5,7,14,-2,-220,17
-3,11,13,-4,-9,12,-5,8,14,-2,-36,18
-3,11,13,-4,-8,12,-6,9,14,-3,98,19
-3,10,12,-4,-8,11,-6,10,14,-3,123,20
-3,10,12,-4,-8,11,-6,10,15,-3,13,20
-2,11,12,-4,-8,12,-5,11,15,-3,-171,21
-2,11,13,-4,-8,12,-5,12,16,-2,-324,22
-3,9,13,-3,-8,11,-5,12,16,-2,-380,21
-5,8,13,-1,-9,10,-5,13,16,-3,-300,20
-5,8,13,-1,-9,10,-4,14,16,-3,-123,19
-5,8,14,-1,-10,11,-3,15,17,-2,36,19
-6,9,15,-1,-11,12,-2,16,18,-2,103,19
-7,9,15,0,-12,12,-2,16,18,-2,39,19
-8,9,16,0,-12,12,-1,17,19,-2,-129,19
-8,9,16,0,-13,12,-1,18,19,-2,-297,18
-8,9,16,0,-13,12,-1,18,20,-2,-387,17
-7,9,16,0,-12,12,0,18,20,-2,-348,16
-7,11,17,-1,-12,13,1,19,21,-2,-189,16
-6,11,17,-2,-12,14,2,20,22,-2,-12,15
-6,11,17,-2,-12,14,2,20,23,-2,91,14
-7,10,17,-2,-12,13,2,20,23,-3,73,13
-7,10,17,-1,-12,13,1,21,23,-3,-69,12
-7,10,17,-1,-12,13,1,22,24,-3,-249,12
-7,11,17,-2,-12,14,1,23,25,-3,-374,11
-7,11,17,-2,-12,14,1,23,25,-3,-388,10
-6,11,17,-2,-12,14,1,24,26,-3,-265,9
-6,12,17,-2,-12,14,2,25,27,-3,-84,9
-6,13,18,-3,-12,15,2,25,28,-2,50,9
-6,13,19,-3,-13,16,3,25,29,-2,78,9
-5,13,18,-3,-12,16,3,25,29,-3,-26,7
-5,13,18,-3,-12,16,3,25,29,-3,-204,6
-4,14,18,-4,-11,16,3,25,29,-2,-351,5
-3,15,18,-6,-11,16,4,25,30,-2,-403,4
-2,16,18,-7,-10,16,5,25,30,-2,-319,4
-2,16,18,-7,-10,16,5,25,29,-2,-141,3
-2,15,18,-6,-10,16,5,25,29,-2,17,2
-3,15,18,-6,-11,16,5,24,30,-2,86,1
-3,15,18,-6,-11,16,6,24,30,-2,26,0
-2,16,18,-6,-11,17,7,24,31,-2,-141,-1
-3,16,18,-6,-11,17,7,23,31,-2,-312,-1
-3,16,18,-6,-11,16,8,23,31,-3,-405,-2
-4,15,18,-5,-11,16,8,22,31,-3,-368,-2
-4,16,18,-6,-11,16,8,22,31,-3,-208,-2
-3,16,18,-6,-10,16,8,22,31,-3,-33,-2
-3,16,18,-6,-10,16,8,22,31,-3,67,-2
-2,16,18,-7,-9,16,9,21,31,-3,50,-2
-2,16,18,-7,-9,16,9,21,30,-3,-89,-2
-2,16,18,-7,-10,17,9,20,29,-3,-263,-1
-2,16,18,-7,-11,17,9,20,28,-3,-379,0
-3,16,19,-7,-12,17,8,19,28,-3,-383,0
-4,16,20,-6,-12,18,8,18,27,-3,-254,0
-4,17,21,-7,-12,18,7,18,27,-3,-68,1
-4,18,21,-7,-12,19,7,17,26,-3,67,1
-4,17,22,-7,-13,20,7,16,25,-4,97,1
-4,17,22,-6,-13,20,6,14,23,-4,-4,1
-3,18,22,-7,-13,20,6,13,22,-4,-178,2
-2,20,22,-8,-13,21,7,13,21,-4,-321,2
-2,21,22,-9,-13,21,7,12,20,-4,-372,2
-2,21,22,-9,-13,21,7,11,19,-5,-291,2
-2,20,22,-9,-13,21,7,9,18,-5,-120,2
-2,19,21,-9,-12,20,7,7,16,-6,30,2
-1,19,21,-9,-11,20,7,5,14,-6,94,2
0,20,20,-9,-10,20,7,4,13,-6,34,3
0,21,20,-10,-10,20,7,3,12,-6,-125,3
1,21,19,-10,-9,20,6,1,9,-6,-280,2
0,20,19,-10,-9,20,6,0,7,-7,-358,2
0,20,19,-10,-10,20,6,-1,5,-8,-312,2
0,20,20,-10,-11,20,6,-2,4,-8,-151,3
-1,20,20,-9,-11,20,5,-3,2,-8,22,3
-2,19,21,-9,-12,20,5,-4,1,-8,124,3
-2,19,21,-8,-12,20,4,-6,0,-9,108,3
-1,20,20,-9,-11,20,4,-7,-1,-9,-31,3
0,20,18,-9,-9,19,3,-8,-3,-9,-207,3
1,18,16,-9,-7,17,2,-9,-4,-10,-328,3
2,17,14,-9,-6,15,2,-10,-5,-10,-341,3
2,16,13,-8,-6,14,1,-11,-6,-11,-223,2
1,14,12,-7,-6,13,1,-12,-6,-11,-49,2
1,14,12,-7,-5,13,0,-12,-7,-11,75,2
1,13,11,-7,-5,12,0,-13,-7,-10,99,2
1,12,10,-6,-5,11,0,-13,-8,-10,-7,1
0,11,9,-5,-5,10,0,-13,-8,-10,-184,1
1,10,8,-5,-4,10,1,-13,-9,-10,-328,0
1,10,7,-5,-3,9,1,-13,-9,-10,-380,0
1,9,7,-4,-3,8,1,-14,-10,-10,-299,-1
1,8,7,-4,-3,8,1,-14,-10,-9,-126,-2
0,8,7,-4,-3,8,2,-14,-10,-8,27,-3
0,8,7,-3,-3,7,2,-14,-10,-8,93,-4
0,7,7,-3,-4,7,2,-15,-10,-8,33,-4
-1,5,6,-1,-4,6,2,-15,-11,-8,-129,-5
-3,4,6,0,-5,5,2,-16,-11,-9,-290,-5
-5,2,6,2,-5,4,1,-16,-12,-9,-376,-6
-6,1,6,3,-6,3,1,-17,-12,-9,-340,-7
-5,1,5,2,-5,3,1,-17,-12,-9,-185,-7
-2,2,5,0,-4,3,1,-16,-12,-8,-14,-7
0,4,4,-1,-2,4,2,-16,-12,-8,86,-6
0,4,4,-2,-2,4,2,-16,-12,-7,72,-6
-1,4,4,-1,-2,4,2,-16,-12,-7,-63,-6
-2,3,4,0,-3,4,2,-15,-12,-7,-233,-6
-2,3,4,0,-3,4,2,-15,-12,-6,-347,-6
-2,3,4,0,-3,3,2,-15,-12,-6,-354,-6
-2,2,3,0,-2,3,2,-15,-12,-6,-231,-6
-2,1,3,0,-2,2,1,-16,-13,-7,-53,-6
-2,0,2,1,-2,2,1,-16,-14,-7,74,-6
-2,0,2,1,-2,1,1,-16,-14,-8,101,-6
-2,0,2,1,-2,1,1,-16,-14,-8,0,-6
-2,1,3,1,-3,2,2,-15,-14,-7,-172,-6
-2,2,3,0,-3,2,3,-14,-13,-7,-311,-5
-3,1,3,1,-3,2,3,-14,-14,-8,-361,-5
-3,1,3,2,-3,2,3,-15,-14,-8,-280,-5
-4,0,3,2,-4,2,3,-15,-15,-8,-109,-6
-4,0,4,2,-4,2,3,-15,-15,-8,41,-6
-4,0,4,2,-4,2,4,-15,-15,-8,105,-6
-4,0,4,2,-4,2,4,-15,-15,-8,45,-6
-5,0,3,2,-4,1,4,-16,-15,-9,-115,-7
-5,0,2,2,-3,1,3,-16,-15,-9,-273,-8
-5,-1,2,3,-3,0,3,-15,-15,-9,-358,-9
-5,-1,3,3,-4,1,4,-15,-14,-9,-319,-9
-5,0,4,3,-4,1,4,-14,-14,-9,-161,-9
-5,1,5,2,-5,2,5,-13,-13,-9,14,-9
-5,1,5,2,-5,3,5,-12,-13,-9,118,-9
-5,1,5,2,-5,3,5,-12,-13,-9,107,-10
-5,0,5,3,-5,2,5,-12,-14,-10,-24,-11
-5,0,4,3,-5,2,4,-12,-14,-10,-190,-11
-5,0,4,3,-5,2,4,-12,-14,-10,-301,-12
-5,0,5,3,-5,2,4,-12,-14,-10,-308,-12
-5,0,5,3,-6,3,4,-12,-14,-10,-185,-12
-5,1,6,2,-6,3,4,-12,-14,-11,-11,-12
-5,1,6,2,-6,3,4,-12,-14,-11,113,-11
-5,1,6,2,-5,3,4,-11,-14,-11,137,-11
-5,1,5,2,-5,3,3,-11,-14,-11,33,-10
-4,1,4,2,-4,3,3,-10,-14,-11,-139,-10
-4,1,4,2,-5,3,3,-10,-13,-11,-279,-9
-4,2,5,1,-5,4,4,-9,-13,-10,-329,-9
-4,2,6,1,-5,4,5,-9,-12,-10,-249,-9
-3,3,6,0,-4,4,5,-9,-11,-10,-81,-10
-3,2,5,0,-4,3,5,-9,-11,-11,64,-11
-4,1,5,1,-4,2,5,-9,-11,-11,124,-12
-3,1,4,1,-3,2,6,-9,-11,-11,62,-12
-2,2,4,0,-2,2,6,-9,-11,-11,-99,-12
-1,2,3,0,-2,2,7,-9,-11,-12,-256,-12
-1,2,3,0,-2,2,7,-9,-10,-12,-340,-12
-1,1,2,0,-2,1,7,-10,-10,-12,-305,-12
-1,0,1,0,-1,1,6,-10,-11,-13,-155,-12
-1,0,1,0,-1,0,6,-11,-11,-13,8,-13
-2,0,1,1,-1,0,6,-10,-11,-14,103,-13
-2,0,1,1,-1,0,5,-10,-10,-14,86,-13
-2,0,2,1,-1,0,5,-9,-10,-13,-48,-13
-2,1,2,0,-2,1,5,-9,-9,-13,-215,-12
-2,1,3,1,-2,1,4,-8,-9,-13,-325,-11
-2,1,2,1,-2,1,4,-8,-9,-13,-332,-11
-2,1,2,1,-2,1,3,-8,-9,-13,-211,-10
-3,0,1,2,-2,0,1,-8,-10,-13,-38,-11
-3,-1,1,2,-2,0,0,-8,-10,-14,85,-12
-3,-1,1,2,-1,0,0,-8,-10,-15,111,-12
-2,-1,0,2,-1,-1,-1,-9,-11,-15,11,-13
-3,-2,0,3,-1,-1,-1,-9,-11,-15,-156,-13
-3,-2,0,3,-1,-1,-1,-9,-11,-15,-290,-13
-3,-2,0,2,-1,-1,-1,-9,-11,-15,-336,-13
-3,-1,0,2,-1,-1,-1,-8,-11,-15,-256,-13
-2,0,0,1,-1,0,0,-8,-11,-15,-89,-12
-2,0,1,1,-1,0,0,-8,-11,-15,55,-12
-2,0,1,1,-1,0,1,-8,-11,-15,115,-11
-2,0,1,1,-1,0,1,-9,-12,-15,55,-11
-2,0,1,1,-1,0,1,-9,-12,-15,-102,-10
-2,-1,0,1,-1,0,1,-9,-13,-15,-255,-11
-2,-2,0,2,-1,-1,1,-9,-13,-16,-336,-12
-2,-2,-1,2,0,-2,1,-10,-13,-16,-299,-13
-2,-3,-1,2,0,-2,0,-10,-13,-16,-149,-14
-3,-3,-1,3,0,-2,0,-11,-13,-16,14,-14
-3,-3,-1,3,-1,-2,0,-11,-13,-16,108,-13
-3,-4,-1,3,0,-3,0,-11,-13,-15,93,-13
-3,-4,-2,3,0,-3,0,-11,-14,-15,-39,-13
-3,-4,-2,3,0,-3,-1,-11,-15,-15,-202,-13
-4,-5,-2,4,0,-3,-1,-11,-15,-15,-309,-13
-5,-5,-1,5,-1,-3,0,-11,-15,-15,-314,-13
-5,-5,-1,4,-1,-3,0,-11,-15,-15,-192,-13
-3,-4,-2,3,0,-3,0,-12,-15,-15,-19,-13
-2,-3,-2,2,0,-3,0,-12,-15,-15,102,-13
-3,-4,-2,3,0,-3,1,-12,-15,-15,127,-13
-5,-5,-1,5,-1,-4,1,-12,-15,-15,27,-14
-6,-6,-1,6,-2,-4,1,-12,-15,-14,-137,-14
-5,-6,-1,5,-2,-4,1,-13,-15,-14,-266,-14
-3,-5,-2,4,-1,-4,2,-13,-15,-14,-310,-15
-2,-4,-2,3,0,-4,2,-13,-15,-15,-230,-16
-1,-4,-3,2,0,-4,2,-14,-16,-16,-63,-16
-1,-3,-3,1,1,-4,2,-15,-16,-17,81,-17
-1,-2,-2,1,0,-3,2,-15,-16,-17,141,-17
-1,-2,-1,1,0,-2,2,-16,-16,-17,82,-17
-2,-1,0,1,-1,-1,2,-17,-17,-17,-74,-17
-3,0,3,1,-3,1,1,-18,-18,-19,-225,-18
-3,4,7,0,-5,5,0,-19,-18,-20,-304,-19
-3,9,12,-2,-8,10,-1,-21,-20,-22,-267,-20
-3,14,17,-5,-10,15,-3,-22,-21,-23,-118,-22
-2,18,20,-7,-11,18,-4,-24,-23,-25,41,-23
-2,20,22,-9,-12,20,-5,-25,-24,-26,132,-24
-2,21,22,-9,-12,21,-6,-26,-24,-27,116,-24
-2,21,22,-10,-11,21,-6,-27,-24,-27,-15,-24
-2,20,21,-9,-11,20,-6,-26,-24,-26,-175,-24
-2,18,20,-8,-11,19,-6,-26,-24,-26,-282,-24
-2,15,18,-6,-10,16,-6,-25,-24,-26,-289,-23
-2,13,16,-5,-9,14,-5,-25,-24,-26,-172,-22
-2,12,14,-5,-8,12,-5,-24,-23,-26,-5,-21
-1,12,11,-5,-6,11,-4,-23,-22,-25,110,-21
0,11,10,-5,-5,9,-3,-23,-21,-24,131,-21
0,9,8,-4,-4,8,-2,-23,-21,-23,29,-21
0,7,7,-4,-4,7,-2,-23,-20,-23,-138,-20
0,6,6,-4,-3,6,-1,-23,-20,-23,-271,-20
0,5,6,-3,-3,5,-1,-23,-19,-22,-320,-19
-1,3,5,-1,-4,4,0,-23,-19,-22,-245,-18
-2,3,5,-1,-4,3,0,-23,-18,-22,-85,-17
-1,2,3,-1,-2,2,0,-23,-18,-22,53,-17
0,3,2,-2,-1,2,1,-23,-18,-22,111,-17
1,3,1,-2,0,1,1,-22,-18,-22,52,-16
1,3,2,-2,0,1,1,-22,-17,-21,-101,-16
1,3,2,-2,-1,1,1,-22,-17,-21,-249,-15
1,3,2,-2,-1,1,1,-23,-17,-20,-327,-15
0,2,2,-2,-1,1,1,-23,-17,-20,-292,-15
0,2,2,-1,-1,1,1,-24,-16,-20,-145,-15
-1,1,2,0,-2,1,1,-24,-16,-19,13,-15
-1,1,1,0,-2,1,1,-25,-16,-19,104,-15
0,0,1,0,-1,0,1,-26,-16,-19,91,-15
0,0,1,0,-1,0,1,-26,-15,-18,-37,-15
0,1,1,0,-1,0,1,-26,-15,-18,-194,-16
1,1,1,0,0,0,1,-26,-15,-18,-297,-17
1,1,1,-1,0,0,1,-27,-15,-17,-302,-17
1,1,0,-1,0,0,1,-27,-15,-17,-184,-18
1,1,0,-2,0,0,1,-27,-15,-17,-18,-18
0,1,0,-1,0,0,2,-27,-14,-16,98,-18
-1,0,1,0,-1,0,2,-27,-14,-16,122,-18
-2,0,2,1,-2,0,2,-27,-14,-16,26,-18
-1,0,2,0,-2,1,2,-27,-14,-16,-133,-18
-1,1,2,0,-2,1,2,-27,-13,-16,-258,-17
-1,2,3,0,-3,2,3,-28,-13,-16,-300,-17
-1,2,3,0,-3,2,3,-28,-12,-15,-220,-17
-1,3,4,-1,-3,3,3,-28,-12,-15,-57,-16
-1,3,5,-1,-3,3,3,-28,-12,-14,80,-16
-2,3,5,-1,-4,4,3,-28,-12,-14,136,-16
-2,4,6,-1,-4,4,4,-28,-11,-13,76,-16
-1,6,6,-2,-4,5,4,-28,-10,-13,-77,-15
0,7,7,-3,-4,7,4,-28,-10,-12,-223,-14
0,8,7,-4,-4,7,4,-28,-9,-12,-300,-14
1,9,7,-5,-3,7,4,-28,-9,-11,-266,-13
0,8,8,-5,-3,7,4,-28,-9,-11,-122,-13
0,8,8,-5,-3,7,4,-28,-9,-10,32,-13
1,9,8,-5,-3,8,4,-28,-8,-10,120,-12
2,9,7,-6,-2,8,4,-28,-8,-9,104,-12
2,9,7,-6,-2,7,4,-28,-8,-9,-25,-12
0,8,7,-4,-4,7,3,-28,-8,-9,-183,-12
0,7,7,-3,-4,7,3,-28,-9,-9,-288,-13
-1,6,7,-2,-5,6,3,-29,-9,-9,-296,-13
-3,5,8,-1,-6,6,3,-29,-10,-9,-181,-13
-4,4,8,0,-6,5,3,-30,-10,-9,-19,-13
-4,4,8,0,-6,5,3,-30,-10,-9,93,-13
-3,5,7,-1,-5,6,4,-30,-10,-9,115,-12
-3,5,7,-1,-5,6,3,-30,-10,-9,19,-12
-3,4,7,0,-6,6,3,-30,-11,-9,-140,-13
-3,4,7,0,-6,6,3,-30,-11,-9,-266,-12
-3,4,7,-1,-5,6,3,-30,-11,-9,-310,-11
-2,4,7,-1,-5,6,3,-30,-11,-9,-233,-11
-2,4,7,-1,-5,6,2,-30,-12,-9,-73,-10
-3,4,7,-1,-5,5,2,-31,-12,-9,61,-10
-4,3,7,0,-6,5,1,-31,-12,-9,117,-10
-4,3,7,1,-6,4,1,-30,-12,-10,60,-9
-4,3,7,1,-6,4,0,-30,-12,-10,-90,-8
-3,2,6,1,-5,4,0,-30,-12,-10,-234,-8
-3,2,5,1,-4,3,-1,-30,-13,-11,-310,-8
-2,1,4,1,-4,3,-1,-30,-13,-12,-277,-8
-2,1,3,1,-3,2,-1,-29,-13,-12,-135,-7
-2,1,3,0,-3,2,-1,-29,-13,-12,15,-7
-1,0,2,0,-2,1,-1,-29,-14,-12,98,-8
-1,0,2,0,-2,0,0,-29,-14,-13,78,-8
-1,0,1,0,-1,0,0,-30,-15,-13,-54,-9
-1,0,0,0,-1,0,1,-30,-15,-14,-212,-10
-1,0,0,0,-1,0,2,-30,-15,-14,-315,-11
-2,-1,0,1,-1,-1,3,-30,-14,-14,-322,-11
-2,-2,0,2,-1,-1,5,-30,-14,-14,-206,-11
-3,-2,0,2,-2,-1,6,-30,-14,-14,-44,-11
-3,-2,0,3,-2,-1,7,-30,-14,-14,67,-12
-3,-2,0,3,-2,-1,8,-30,-14,-14,89,-12
-3,-3,0,3,-2,-1,8,-30,-14,-14,-8,-13
-4,-3,0,4,-3,-1,9,-30,-14,-14,-167,-14
-4,-3,0,4,-3,-1,10,-30,-14,-14,-291,-15
-3,-2,0,3,-2,-1,11,-30,-13,-14,-333,-15
-3,-2,1,2,-2,0,12,-30,-13,-13,-254,-15
-3,-2,1,3,-2,-1,12,-29,-13,-13,-93,-15
-3,-3,0,3,-2,-1,12,-29,-13,-14,42,-16
-3,-4,0,4,-2,-2,11,-29,-14,-15,101,-17
-4,-4,0,4,-2,-2,11,-29,-13,-15,47,-18
-5,-4,0,5,-3,-2,11,-28,-13,-15,-99,-19
-6,-5,1,5,-3,-2,10,-28,-13,-15,-239,-20
-6,-5,1,5,-3,-2,10,-27,-13,-15,-312,-20
-5,-5,0,5,-3,-2,10,-27,-12,-16,-277,-21
-5,-5,0,5,-3,-3,9,-27,-12,-16,-133,-22
-5,-6,0,5,-3,-3,9,-27,-12,-16,20,-23
-6,-7,0,6,-4,-3,9,-26,-12,-16,108,-24
-6,-7,0,6,-4,-3,8,-26,-11,-16,94,-25
-6,-7,-1,6,-3,-4,8,-26,-11,-16,-31,-25
-5,-6,0,5,-3,-3,9,-25,-11,-16,-183,-26
-6,-5,0,5,-3,-3,9,-25,-11,-16,-280,-26
-7,-6,1,5,-4,-3,9,-25,-11,-16,-283,-27
-7,-6,1,6,-4,-3,9,-24,-11,-16,-166,-27
-8,-7,1,6,-4,-3,9,-24,-11,-16,-4,-28
-9,-8,1,8,-5,-3,9,-24,-11,-16,107,-29
-9,-8,0,8,-5,-4,9,-24,-11,-16,130,-29
-7,-7,0,7,-4,-4,9,-23,-10,-15,35,-29
-6,-6,0,6,-3,-4,9,-23,-10,-15,-121,-30
-6,-7,0,6,-3,-4,9,-23,-11,-15,-243,-31
-5,-7,0,6,-3,-4,9,-23,-11,-15,-285,-31
-4,-6,0,5,-3,-3,10,-22,-10,-15,-207,-31
-5,-6,0,5,-3,-3,10,-22,-10,-15,-49,-31
-6,-7,0,6,-4,-3,9,-22,-10,-15,84,-32
-5,-6,0,5,-3,-3,10,-21,-10,-14,141,-32
-4,-5,0,5,-2,-2,10,-21,-9,-13,86,-31
-5,-4,1,5,-3,-2,10,-20,-9,-13,-61,-30
-6,-5,1,5,-4,-2,10,-20,-10,-12,-201,-30
-5,-5,0,5,-3,-2,9,-20,-10,-12,-274,-30
-5,-6,0,5,-2,-3,9,-20,-11,-12,-239,-30
-5,-6,-1,5,-2,-4,8,-20,-12,-13,-96,-31
-5,-7,-1,6,-2,-4,7,-21,-13,-13,53,-32
-5,-7,-2,6,-2,-5,6,-21,-14,-14,138,-34
-4,-8,-3,5,-1,-5,5,-22,-15,-14,123,-35
-3,-7,-4,5,0,-5,4,-23,-16,-14,-2,-36
-3,-7,-3,5,0,-5,4,-24,-17,-14,-154,-37
-5,-7,-1,5,-2,-4,4,-24,-17,-15,-251,-37
-6,-6,0,5,-4,-3,4,-25,-17,-15,-256,-37
-7,-4,3,4,-5,-1,5,-27,-17,-14,-140,-36
-6,0,5,2,-5,2,5,-29,-16,-13,22,-34
-5,3,8,0,-7,6,6,-30,-14,-11,135,-32
-6,5,11,0,-9,8,6,-32,-11,-9,162,-30
-7,7,14,0,-11,10,4,-34,-11,-7,72,-28
-7,9,16,-1,-12,12,2,-39,-15,-6,-77,-25
-6,12,19,-3,-13,15,-1,-47,-23,-5,-191,-20
-5,16,22,-5,-14,18,-5,-56,-35,-5,-226,-14
-3,20,23,-9,-14,21,-10,-64,-47,-4,-143,-6
2,25,22,-13,-10,23,-15,-70,-58,-3,21,2
9,29,19,-19,-5,24,-20,-75,-72,-3,160,10
16,34,17,-24,-1,25,-26,-82,-89,-6,222,18
23,38,15,-30,3,26,-32,-91,-110,-11,173,26
28,41,13,-34,7,26,-38,-101,-133,-18,30,33
31,43,13,-37,8,27,-44,-113,-157,-27,-106,39
33,47,15,-40,8,30,-48,-125,-180,-36,-177,44
34,50,17,-42,7,32,-50,-135,-198,-45,-144,46
33,49,17,-41,7,32,-50,-141,-211,-56,-9,43
30,43,13,-36,7,28,-48,-142,-219,-68,127,34
25,34,8,-29,8,21,-46,-142,-222,-79,197,22
19,24,5,-21,6,14,-43,-141,-222,-88,170,9
10,14,5,-12,1,9,-38,-138,-218,-95,32,-7
-1,4,6,-2,-4,4,-31,-133,-209,-101,-132,-25
-10,-4,6,7,-9,0,-23,-124,-196,-102,-241,-40
-16,-10,6,12,-12,-2,-16,-114,-183,-101,-254,-50
-20,-14,5,17,-13,-4,-10,-105,-171,-100,-147,-57
-23,-18,5,20,-14,-7,-5,-98,-161,-99,6,-62
-25,-21,3,23,-14,-9,-3,-91,-151,-97,110,-67
-26,-25,1,25,-14,-12,-1,-86,-142,-95,130,-70
-26,-26,0,26,-14,-13,0,-81,-133,-91,37,-72
-27,-26,1,27,-15,-13,2,-76,-122,-85,-114,-73
-27,-25,3,26,-16,-11,3,-71,-111,-79,-229,-73
-26,-21,4,23,-16,-9,5,-66,-99,-72,-266,-72
-24,-18,5,21,-15,-6,6,-60,-87,-65,-186,-70
-21,-14,6,18,-14,-4,7,-54,-75,-58,-26,-67
-18,-10,7,14,-13,-2,8,-46,-64,-50,107,-64
-15,-7,7,11,-11,0,9,-40,-53,-43,166,-60
-12,-5,7,8,-10,1,10,-35,-45,-37,115,-57
-9,-3,7,6,-8,1,10,-31,-38,-32,-27,-55
-7,-2,6,4,-7,2,11,-28,-31,-27,-161,-52
-5,0,6,3,-6,3,12,-24,-26,-22,-229,-49
-5,0,7,2,-6,3,13,-21,-22,-18,-194,-47
-5,1,7,2,-6,4,13,-19,-19,-16,-54,-45
-4,3,7,1,-6,5,13,-17,-17,-14,92,-42
-3,5,8,0,-6,6,13,-16,-15,-12,174,-40
-4,5,8,0,-7,6,13,-15,-14,-11,160,-39
-5,4,9,0,-8,6,13,-14,-13,-9,36,-37
-5,4,9,0,-8,6,13,-13,-12,-8,-111,-36
-4,4,9,-1,-7,6,13,-12,-11,-6,-206,-35
-2,5,8,-2,-5,6,14,-11,-9,-5,-211,-33
0,6,7,-3,-4,6,14,-10,-8,-4,-100,-32
1,7,6,-4,-3,6,13,-10,-7,-3,55,-30
1,7,5,-3,-2,6,13,-9,-7,-3,160,-29
1,6,5,-3,-2,5,12,-9,-7,-2,180,-29
2,6,5,-4,-2,5,12,-9,-6,-1,88,-28
2,6,5,-4,-2,5,12,-9,-5,0,-62,-28
1,6,5,-4,-2,5,12,-8,-4,1,-179,-27
1,6,6,-4,-3,6,12,-8,-3,2,-220,-27
0,6,6,-3,-3,6,12,-7,-2,3,-148,-27
0,5,5,-3,-3,5,11,-7,-2,3,3,-27
0,5,4,-3,-3,5,10,-7,-3,3,128,-27
0,5,4,-3,-3,4,10,-7,-3,3,180,-26
0,5,4,-3,-3,4,10,-6,-2,3,126,-25
1,5,4,-3,-2,4,9,-6,-2,4,-17,-24
2,6,4,-4,-2,4,9,-5,-1,4,-151,-24
2,6,4,-5,-1,4,8,-5,0,4,-222,-24
2,5,4,-4,-1,4,7,-5,0,4,-190,-24
2,5,4,-4,-1,4,6,-6,0,4,-53,-24
2,6,4,-4,-1,5,6,-6,1,4,90,-24
2,7,5,-5,-1,6,6,-5,2,4,171,-23
3,8,5,-6,-1,6,6,-5,3,4,156,-23
3,8,4,-6,-1,6,5,-6,3,4,34,-24
2,6,4,-4,-1,5,5,-6,2,4,-112,-24
0,4,5,-2,-2,4,4,-7,2,3,-206,-25
-1,4,5,-2,-3,4,4,-7,2,3,-212,-25
0,5,6,-3,-3,5,4,-6,3,4,-101,-24
1,8,7,-5,-2,7,5,-5,3,4,54,-23
3,11,7,-7,-2,9,5,-4,4,5,160,-23
3,11,8,-7,-3,9,5,-4,4,5,184,-23
2,11,9,-6,-3,10,5,-4,4,5,95,-23
3,11,9,-7,-3,9,5,-4,4,5,-53,-23
3,11,8,-7,-2,9,4,-4,5,5,-166,-23
3,10,7,-7,-2,8,4,-4,6,6,-205,-22
3,10,7,-7,-2,7,4,-3,7,6,-131,-21
3,10,6,-6,-2,7,3,-2,7,7,21,-19
3,10,6,-6,-1,7,2,-2,8,7,146,-18
4,10,5,-7,-1,7,2,-1,8,7,198,-17
4,10,5,-7,-1,7,1,0,9,8,144,-16
3,10,6,-7,-1,7,1,0,9,9,3,-15
3,10,6,-7,-2,7,1,1,10,10,-125,-14
3,9,6,-7,-2,7,1,2,11,10,-191,-14
2,9,6,-6,-2,7,1,3,12,11,-156,-13
2,10,6,-6,-2,8,1,4,13,11,-17,-13
2,10,7,-7,-2,8,1,5,14,12,125,-12
2,11,7,-7,-2,9,2,6,15,13,204,-12
1,11,8,-6,-3,9,3,7,15,14,189,-12
0,10,8,-5,-4,8,3,8,16,14,66,-13
0,8,8,-4,-5,8,3,8,16,14,-80,-13
-1,8,9,-4,-5,8,4,8,16,15,-173,-14
0,8,9,-4,-5,8,5,9,17,15,-180,-14
0,9,9,-5,-5,8,5,10,17,16,-72,-14
0,10,10,-5,-5,9,6,11,18,16,78,-15
0,10,11,-5,-6,10,6,12,18,16,180,-15
-1,10,11,-5,-7,10,6,13,19,16,200,-16
-1,11,12,-5,-7,10,7,14,19,17,108,-16
0,11,12,-6,-7,11,7,14,20,17,-41,-16
0,12,12,-6,-6,12,7,15,21,18,-155,-16
0,11,12,-6,-7,12,7,16,21,18,-197,-17
-1,11,13,-5,-8,12,7,18,21,18,-126,-17
-1,13,14,-6,-8,13,7,21,22,19,23,-16
-1,14,15,-7,-8,14,7,23,23,19,145,-15
-1,15,16,-7,-8,15,8,25,24,20,196,-15
-1,16,17,-7,-9,16,8,27,25,20,141,-14
-2,16,18,-7,-10,17,8,29,26,20,-2,-14
-2,17,19,-8,-10,17,9,30,28,21,-135,-14
-1,18,19,-9,-10,18,9,31,29,21,-205,-14
0,19,19,-9,-10,19,10,32,30,21,-175,-14
0,19,19,-9,-10,19,9,33,31,20,-41,-15
-1,19,20,-9,-10,19,9,33,31,20,97,-15
-1,20,20,-9,-11,19,9,34,31,19,173,-15
0,20,20,-10,-10,19,9,34,31,19,156,-15
1,20,20,-11,-10,19,9,35,31,20,33,-15
1,20,20,-11,-9,19,10,35,32,20,-111,-15
1,20,20,-11,-9,20,10,36,33,21,-204,-14
0,20,20,-11,-10,20,11,37,34,21,-211,-14
0,21,20,-11,-10,20,11,38,34,21,-103,-13
0,21,20,-11,-10,20,11,38,34,21,46,-13
0,21,20,-11,-10,20,11,38,33,20,146,-13
0,21,20,-11,-10,21,11,38,33,20,165,-13
1,21,20,-11,-10,21,11,38,32,19,73,-13
1,22,20,-11,-10,21,10,37,32,19,-76,-13
2,22,20,-12,-9,21,10,37,31,19,-189,-12
3,23,20,-13,-8,21,9,36,31,18,-230,-11
4,23,19,-14,-7,21,9,35,30,18,-158,-11
5,24,19,-15,-6,21,8,34,29,17,-9,-10
5,24,19,-15,-6,21,7,33,28,17,111,-9
5,24,19,-14,-7,21,7,33,27,17,161,-8
4,23,19,-13,-7,21,6,33,26,17,108,-7
3,23,19,-13,-8,21,6,33,24,16,-32,-6
3,23,19,-13,-8,21,5,32,23,15,-160,-6
4,23,19,-14,-8,21,5,31,21,14,-226,-6
5,24,19,-14,-7,21,5,30,20,13,-194,-6
4,24,20,-14,-8,21,5,29,19,13,-58,-6
3,24,21,-13,-8,22,4,28,17,12,80,-6
3,24,21,-13,-9,22,4,27,16,12,156,-6
3,25,22,-14,-9,23,5,26,15,11,142,-6
2,24,22,-13,-10,23,5,26,13,10,22,-6
2,24,22,-13,-10,23,4,25,11,9,-119,-6
3,24,22,-14,-10,24,4,25,10,9,-208,-5
4,24,22,-14,-9,24,3,24,9,8,-214,-5
4,24,21,-14,-9,23,3,23,7,8,-107,-5
4,24,20,-14,-8,22,2,22,6,8,41,-5
4,23,20,-14,-8,21,1,21,4,8,141,-5
3,23,20,-13,-8,21,0,19,3,8,162,-5
3,23,19,-13,-8,21,0,18,2,8,73,-4
4,22,18,-13,-7,21,0,17,0,7,-73,-4
4,21,18,-13,-7,20,0,16,-1,6,-183,-4
3,20,17,-12,-7,19,0,14,-3,5,-222,-4
3,19,17,-12,-7,18,0,13,-4,6,-150,-4
2,19,17,-11,-7,18,0,13,-6,6,-2,-3
3,20,17,-12,-7,18,0,13,-6,7,117,-3
3,20,16,-12,-6,18,1,13,-7,8,167,-2
3,19,15,-11,-6,18,1,13,-8,9,114,-2
3,18,15,-10,-6,17,1,13,-8,9,-24,-2
2,17,15,-10,-6,17,2,13,-8,9,-152,-2
2,16,14,-9,-6,16,2,12,-9,9,-219,-2
2,15,14,-8,-6,14,3,12,-9,8,-188,-3
1,14,13,-8,-6,13,3,11,-10,7,-56,-3
2,14,12,-8,-5,12,3,11,-10,6,78,-4
2,13,11,-8,-4,11,3,11,-11,6,152,-4
2,12,9,-7,-3,10,3,11,-11,6,137,-4
2,11,8,-7,-2,10,3,11,-11,6,18,-4
2,10,7,-7,-2,9,3,11,-11,6,-121,-4
2,10,7,-7,-2,9,3,12,-11,7,-210,-4
3,10,7,-7,-1,9,4,12,-10,7,-216,-3
4,10,6,-7,-1,9,4,13,-10,7,-109,-3
3,9,6,-6,-1,8,4,13,-11,7,36,-3
3,8,5,-6,0,7,4,13,-11,7,131,-3
3,7,5,-5,0,6,4,13,-10,7,149,-3
2,6,4,-4,-1,6,4,14,-11,7,59,-3
2,6,4,-5,-1,5,3,14,-11,7,-85,-3
2,7,4,-5,0,5,3,14,-11,7,-193,-3
2,6,4,-5,0,5,4,15,-11,6,-230,-4
2,6,4,-5,0,4,4,15,-11,6,-159,-5
2,5,4,-4,0,4,4,15,-12,5,-13,-6
1,4,4,-3,-1,4,4,14,-13,5,104,-7
0,4,4,-3,-2,4,4,14,-13,4,154,-7
0,4,4,-3,-2,4,4,14,-14,4,102,-8
1,5,4,-3,-1,4,3,14,-14,4,-35,-8
1,5,4,-3,-1,4,3,14,-14,4,-159,-8
1,4,4,-3,-1,4,4,15,-14,4,-221,-7
0,4,4,-3,-2,4,5,15,-14,4,-188,-7
0,4,4,-2,-2,4,5,15,-14,4,-56,-7
0,3,4,-1,-2,3,5,15,-15,4,76,-7
0,2,4,-1,-2,3,6,15,-15,4,147,-7
0,3,3,-2,-2,3,7,16,-14,5,131,-7
0,3,3,-2,-1,4,8,16,-14,5,11,-7
0,3,3,-2,-1,3,8,16,-15,4,-129,-8
-1,2,3,-1,-2,2,9,15,-15,4,-218,-9
-1,2,3,-1,-1,2,10,15,-15,3,-225,-10
0,3,2,-2,0,2,11,16,-15,3,-120,-10
1,4,2,-2,0,2,11,16,-15,3,24,-11
1,3,2,-2,0,2,11,17,-15,3,121,-13
1,3,1,-2,0,2,12,17,-14,3,142,-14
1,2,1,-2,0,2,12,17,-14,3,58,-15
1,2,1,-2,0,2,12,17,-14,3,-81,-17
1,3,1,-3,0,3,12,16,-14,3,-185,-18
2,4,1,-4,0,3,12,16,-14,2,-222,-19
2,3,1,-3,0,2,12,15,-14,2,-154,-21
2,3,1,-3,0,2,11,15,-14,2,-12,-23
1,2,1,-2,0,2,11,15,-13,2,101,-24
1,2,1,-2,0,2,11,15,-13,2,147,-24
1,3,1,-3,0,2,12,16,-13,3,92,-24
1,3,2,-3,0,2,12,16,-13,3,-48,-24
1,3,2,-3,0,3,12,17,-12,4,-175,-23
2,3,1,-3,0,2,13,17,-12,5,-241,-23
2,2,0,-3,1,1,12,17,-12,5,-212,-24
2,1,-1,-2,2,0,12,17,-11,5,-81,-24
2,0,-1,-1,2,0,11,17,-11,5,52,-25
1,0,-1,-1,2,-1,11,17,-10,5,125,-25
1,-1,-2,0,2,-1,12,16,-10,5,112,-25
0,-2,-2,0,1,-2,12,16,-9,5,-4,-26
0,-2,-2,1,1,-2,12,17,-9,5,-139,-26
0,-1,-2,0,1,-1,12,18,-8,5,-223,-26
0,-1,-2,0,1,-1,13,18,-8,6,-229,-26
0,-1,-1,0,1,-1,13,18,-8,6,-124,-26
0,-1,-1,0,0,-1,13,18,-8,7,19,-26
1,-1,-1,0,0,-1,13,18,-8,7,114,-26
1,-1,-1,0,1,-1,13,18,-8,8,135,-26
1,-1,-1,0,1,-1,13,18,-8,8,50,-25
0,-2,-1,0,1,-2,12,17,-8,8,-90,-26
0,-3,-2,1,1,-3,11,16,-8,7,-193,-27
0,-2,-2,0,1,-3,11,16,-8,8,-230,-28
0,-1,-1,0,1,-2,11,16,-8,9,-159,-28
0,-1,0,0,0,-1,11,17,-7,9,-15,-28
0,0,0,-1,0,0,11,17,-7,9,99,-27
1,0,0,-2,0,0,11,17,-6,10,149,-27
2,1,0,-2,1,0,11,17,-6,10,100,-27
3,1,-1,-3,2,0,11,17,-5,11,-33,-27
2,1,-1,-2,2,0,10,16,-5,11,-154,-28
1,0,-1,-1,1,0,10,16,-5,11,-216,-29
0,0,-1,-1,1,-1,10,15,-6,10,-186,-29
1,0,-2,-1,2,-1,9,15,-6,10,-57,-30
1,0,-2,-1,2,-1,8,15,-7,9,73,-30
1,-1,-3,0,2,-1,7,14,-7,9,145,-30
1,-1,-2,0,1,-1,6,14,-7,9,131,-30
1,-1,-2,0,1,-1,6,14,-7,9,16,-29
1,0,-1,0,1,-1,5,14,-7,9,-117,-28
1,0,-1,0,1,-1,5,14,-7,9,-201,-27
1,-1,-2,0,2,-2,4,14,-7,9,-208,-26
1,-1,-3,0,2,-2,4,14,-8,9,-106,-25
1,-2,-3,0,2,-2,4,14,-8,9,34,-24
0,-2,-2,0,1,-2,3,14,-8,9,126,-23
-1,-3,-2,2,0,-2,2,14,-9,8,145,-23
-2,-4,-1,3,0,-2,2,14,-9,8,59,-23
-3,-4,-1,3,-1,-2,1,13,-10,7,-81,-24
-3,-4,0,4,-1,-2,1,13,-10,7,-183,-24
-4,-5,0,4,-1,-3,1,12,-11,6,-219,-23
-4,-5,-1,4,-1,-3,1,12,-11,6,-150,-23
-3,-4,-1,3,-1,-2,2,12,-10,7,-6,-22
-2,-3,-1,2,-1,-2,3,11,-10,7,107,-22
-1,-2,-1,1,0,-2,3,11,-11,7,155,-23
1,-1,-2,0,1,-1,4,12,-11,7,106,-23
3,0,-2,-1,3,-1,5,12,-10,8,-25,-23
4,0,-3,-2,4,-1,5,12,-10,8,-142,-24
4,0,-3,-2,4,-1,5,12,-11,8,-201,-24
2,0,-2,-1,2,-1,5,11,-11,7,-167,-25
0,0,0,0,0,0,5,11,-11,7,-33,-25
0,1,1,0,-1,1,4,11,-11,7,102,-24
-1,1,2,0,-2,1,4,11,-12,7,179,-24
-1,1,2,0,-2,2,4,11,-12,7,170,-24
0,2,3,0,-2,2,4,11,-13,7,59,-24
1,3,3,-1,-1,3,3,11,-14,7,-70,-24
1,3,2,-2,0,3,3,10,-14,7,-151,-24
1,3,2,-2,0,3,2,10,-15,7,-157,-25
1,4,3,-3,-1,4,2,9,-15,8,-55,-25
1,5,3,-3,-1,4,2,9,-15,8,82,-25
0,4,3,-3,-1,4,1,8,-16,7,169,-26
0,3,3,-2,-1,4,1,8,-17,7,185,-27
-1,3,4,-1,-2,4,1,8,-17,7,96,-27
-1,4,5,-1,-3,4,2,8,-16,7,-45,-26
0,4,5,-1,-3,4,2,8,-16,7,-149,-25
0,4,4,-2,-2,4,3,8,-17,7,-188,-25
1,5,4,-3,-1,4,3,8,-17,6,-123,-25
2,6,3,-5,0,4,4,8,-17,6,14,-25
3,6,3,-5,0,4,4,8,-17,6,122,-25
3,5,2,-5,0,4,4,8,-17,5,166,-26
2,4,2,-4,0,3,4,8,-18,5,113,-26
2,4,2,-3,0,3,4,8,-18,4,-22,-27
1,3,2,-3,-1,3,5,8,-18,4,-142,-27
0,3,4,-2,-2,4,5,8,-18,4,-205,-27
-1,4,5,-2,-3,5,6,8,-18,5,-177,-26
-1,5,6,-2,-4,5,6,8,-17,5,-51,-26
-1,5,6,-3,-4,6,6,8,-17,6,75,-26
-1,5,6,-3,-3,6,6,8,-17,5,142,-27
-1,5,5,-3,-3,5,7,8,-17,5,127,-27
0,5,5,-3,-2,5,7,8,-17,5,12,-27
0,5,5,-2,-2,5,7,8,-16,5,-121,-28
-1,4,4,-1,-2,4,7,8,-16,5,-203,-29
-1,4,4,-1,-2,4,7,8,-15,5,-210,-29
-1,4,4,-1,-2,4,8,8,-15,5,-109,-29
-1,4,5,-2,-3,5,8,8,-14,5,27,-29
-1,4,6,-2,-3,5,9,8,-14,5,115,-29
-1,5,5,-2,-2,5,9,8,-13,5,133,-29
0,5,5,-3,-2,5,10,7,-12,5,48,-28
1,6,4,-4,-1,5,10,7,-12,6,-88,-27
2,6,4,-4,0,5,10,5,-11,6,-188,-27
1,6,4,-4,-1,5,10,4,-10,6,-226,-26
1,6,4,-3,-1,5,10,2,-10,6,-160,-26
0,6,5,-3,-1,5,11,1,-10,6,-23,-26
0,5,5,-3,-2,5,11,0,-10,6,84,-26
0,5,5,-2,-2,5,11,0,-10,6,126,-25
-1,5,5,-2,-3,6,11,0,-9,6,75,-24
-2,4,7,-1,-4,6,11,-1,-9,6,-58,-24
-3,4,8,-1,-5,6,11,-2,-8,7,-175,-23
-3,5,8,-1,-6,7,12,-2,-8,7,-235,-23
-3,6,9,-1,-6,7,13,-3,-7,8,-207,-23
-3,7,9,-2,-6,8,13,-3,-7,8,-80,-22
-1,8,9,-3,-5,8,13,-4,-7,8,45,-21
0,9,9,-4,-5,8,13,-4,-6,8,113,-20
0,8,8,-4,-4,8,13,-4,-4,8,99,-18
0,8,8,-4,-3,8,14,-5,-3,8,-15,-17
0,8,8,-4,-4,8,14,-5,-3,9,-145,-16
0,8,9,-4,-4,9,14,-6,-2,9,-224,-16
-1,8,9,-3,-5,9,14,-7,-2,9,-231,-15
-2,7,9,-2,-5,8,13,-8,-2,9,-130,-15
-2,7,10,-2,-6,9,13,-8,-2,9,6,-14
-3,8,11,-3,-6,10,14,-7,-1,9,94,-13
-3,9,12,-3,-7,10,15,-6,0,10,113,-12
-3,9,12,-3,-7,11,14,-6,0,10,29,-11
-3,9,12,-3,-7,11,14,-5,0,11,-108,-10
-2,9,12,-4,-6,11,13,-6,1,11,-211,-10
0,10,12,-5,-5,11,12,-6,1,12,-252,-9
0,12,12,-6,-5,11,12,-6,2,13,-188,-7
0,12,11,-6,-5,11,12,-6,3,14,-52,-6
-1,10,11,-4,-5,10,11,-7,4,14,53,-6
-3,8,10,-2,-6,9,11,-8,4,13,97,-6
-4,6,10,-1,-7,8,10,-9,3,13,48,-7
-4,5,9,0,-6,7,10,-10,3,12,-84,-7
-4,4,8,0,-6,6,9,-10,2,12,-200,-7
-3,3,6,0,-4,4,8,-10,1,11,-262,-7
-2,2,4,0,-3,3,7,-10,0,10,-241,-7
-1,1,3,0,-2,2,6,-10,0,9,-124,-6
-1,1,2,0,-2,1,6,-9,1,10,-5,-5
-1,1,2,0,-2,1,6,-9,1,10,58,-3
-2,0,2,1,-2,1,6,-8,2,11,43,-2
-2,0,2,1,-2,1,7,-8,2,11,-69,0
-2,0,2,1,-2,1,7,-8,2,11,-197,0
-1,0,2,1,-2,0,8,-7,2,11,-274,0
-2,0,2,2,-2,0,8,-7,2,11,-278,0
-2,0,2,2,-2,0,8,-6,3,12,-175,0
-2,-1,1,2,-2,0,8,-6,3,12,-37,0
-2,-1,0,2,-1,-1,8,-7,3,11,52,0
0,-1,-1,1,0,-1,9,-7,3,11,74,0
1,-1,-2,0,1,-1,9,-7,3,12,-6,0
1,-1,-2,0,1,-2,9,-6,3,12,-139,0
0,-2,-2,1,1,-2,8,-7,3,11,-233,0
-1,-4,-3,3,0,-3,8,-7,2,11,-266,-1
-1,-5,-3,3,1,-4,7,-8,2,11,-197,-1
-1,-5,-4,4,1,-4,7,-8,1,11,-56,-1
-2,-6,-4,4,1,-5,8,-8,1,11,52,-1
-2,-6,-4,4,1,-5,8,-8,1,12,99,0
-1,-5,-4,3,1,-4,9,-7,2,12,54,1
-1,-4,-3,3,0,-4,10,-6,2,12,-72,1
-2,-4,-2,3,0,-3,11,-5,2,13,-183,2
-2,-4,-1,3,-1,-3,12,-4,2,13,-240,3
-3,-4,-1,4,-1,-3,13,-3,3,14,-211,4
-3,-4,0,4,-1,-3,13,-3,3,14,-84,5
-4,-4,0,4,-2,-2,14,-3,3,14,42,5
-4,-4,0,5,-2,-2,14,-3,3,13,111,5
-5,-5,0,5,-3,-2,14,-3,2,13,102,5
-5,-5,0,5,-3,-2,13,-4,2,13,-7,4
-6,-5,1,5,-4,-2,13,-4,2,13,-132,5
-6,-4,1,5,-4,-1,13,-3,3,13,-207,6
-5,-4,1,5,-3,-1,13,-3,3,13,-211,6
-5,-4,1,5,-3,-1,13,-2,4,13,-109,5
-4,-4,0,5,-2,-2,13,-2,4,13,27,5
-5,-5,0,5,-2,-2,13,-2,4,12,114,4
-5,-5,0,5,-2,-3,13,-2,4,12,133,3
-5,-6,-1,6,-2,-3,13,-2,4,11,51,1
-5,-7,-1,6,-2,-4,12,-1,3,11,-83,0
-5,-7,-2,6,-1,-4,12,-1,2,10,-180,-1
-4,-7,-2,6,-1,-5,12,-1,1,10,-216,-2
-5,-8,-2,7,-1,-5,12,0,2,9,-152,-3
-7,-9,-2,8,-2,-5,12,0,2,9,-15,-4
-6,-8,-1,7,-2,-5,12,0,3,9,92,-5
-5,-7,-1,6,-2,-5,12,1,4,9,138,-6
-4,-6,-2,5,-1,-4,12,1,5,8,91,-7
-4,-6,-2,5,-1,-4,11,2,6,8,-37,-8
-6,-6,-1,6,-2,-4,11,2,6,7,-150,-9
-6,-7,-1,7,-3,-4,11,2,6,6,-209,-11
-7,-7,0,7,-3,-4,11,3,6,5,-180,-11
-6,-6,0,6,-3,-3,11,3,7,4,-54,-12
-4,-5,0,5,-2,-3,10,3,7,4,70,-12
-3,-5,-1,4,0,-4,10,4,7,4,137,-12
-2,-6,-2,4,0,-4,10,4,7,3,124,-12
-2,-7,-3,5,0,-5,10,5,8,3,11,-13
-2,-7,-4,5,1,-5,10,5,8,3,-116,-13
-1,-6,-5,4,2,-6,11,6,9,2,-194,-13
0,-6,-5,4,2,-6,11,6,9,2,-199,-14
0,-6,-5,4,2,-6,11,7,9,2,-99,-14
0,-5,-4,3,2,-5,12,7,10,2,36,-14
0,-4,-4,2,2,-4,12,8,10,2,122,-14
-1,-4,-3,3,2,-3,12,8,10,2,141,-15
-1,-4,-3,3,1,-3,12,8,10,1,60,-15
-1,-4,-2,3,0,-2,12,8,11,1,-71,-14
-1,-4,-2,3,0,-3,12,8,11,1,-165,-14
-1,-5,-3,3,0,-3,12,9,11,1,-200,-15
-2,-6,-3,4,0,-4,11,9,11,0,-136,-16
-2,-6,-4,4,0,-5,11,9,11,0,0,-17
-2,-6,-4,4,0,-5,11,9,10,0,104,-19
-2,-6,-4,4,1,-4,11,9,10,-1,149,-20
-1,-4,-2,3,0,-3,12,8,11,-1,103,-20
-2,-2,0,2,-1,0,12,7,12,-1,-22,-19
-2,0,2,1,-2,1,12,5,13,-1,-132,-19
-2,2,4,0,-3,3,12,3,15,0,-188,-18
-2,4,6,0,-4,6,12,1,16,0,-157,-17
-3,6,9,-1,-6,8,11,-2,14,1,-29,-14
-3,9,12,-2,-7,11,8,-8,7,2,95,-10
-4,11,16,-3,-9,14,4,-16,-3,3,164,-4
-4,15,19,-5,-11,17,-1,-24,-15,4,158,2
-1,20,21,-8,-11,20,-6,-30,-26,6,54,11
4,26,21,-14,-8,24,-12,-34,-36,8,-64,22
11,32,21,-21,-4,27,-17,-38,-48,9,-132,34
19,39,20,-29,0,30,-21,-42,-64,7,-131,46
25,45,20,-35,2,32,-26,-49,-85,3,-27,57
27,46,19,-37,4,33,-33,-59,-110,-5,110,65
29,47,18,-38,5,33,-39,-71,-135,-14,197,72
31,49,18,-40,6,34,-43,-81,-158,-24,219,77
31,49,18,-40,7,34,-44,-87,-176,-35,137,79
28,44,16,-36,6,30,-43,-90,-188,-48,-2,75
24,34,10,-28,7,22,-41,-89,-194,-60,-110,66
19,22,3,-20,8,13,-38,-87,-196,-70,-160,54
14,11,-2,-12,7,5,-35,-85,-194,-78,-111,40
6,1,-4,-3,5,-1,-30,-81,-187,-86,6,21
-2,-8,-5,6,1,-6,-23,-74,-176,-91,92,1
-10,-15,-5,13,-3,-10,-15,-65,-163,-92,122,-14
-15,-19,-5,18,-5,-12,-8,-57,-149,-91,68,-24
-18,-22,-5,20,-6,-13,-3,-51,-137,-89,-65,-31
-20,-25,-5,23,-7,-15,1,-47,-127,-88,-182,-36
-21,-28,-6,25,-7,-17,3,-43,-117,-86,-246,-40
-22,-30,-7,26,-7,-19,5,-40,-108,-82,-224,-41
-23,-32,-8,28,-8,-20,7,-37,-97,-78,-104,-40
-24,-32,-7,28,-8,-19,8,-35,-86,-71,16,-38
-24,-30,-5,27,-9,-18,10,-32,-74,-64,84,-35
-24,-27,-4,26,-9,-16,11,-29,-62,-56,78,-33
-22,-24,-3,24,-9,-14,11,-26,-50,-49,-25,-29
-20,-21,-3,21,-8,-12,11,-21,-38,-41,-144,-25
-17,-18,-2,18,-8,-10,12,-16,-27,-33,-214,-21
-14,-14,0,14,-7,-7,13,-11,-15,-25,-214,-17
-10,-10,1,10,-7,-4,15,-7,-5,-18,-110,-12
-8,-7,2,8,-6,-2,16,-4,3,-11,26,-9
-7,-6,2,7,-5,-1,16,-2,10,-6,112,-6
-7,-6,1,7,-4,-2,16,0,16,-2,133,-4
-7,-7,1,8,-3,-3,16,1,19,0,54,-3
-8,-7,1,8,-3,-3,15,2,22,2,-75,-1
-7,-7,1,8,-4,-3,15,3,24,3,-167,0
-5,-6,1,6,-3,-2,15,3,26,5,-201,1
-3,-3,1,3,-2,-1,15,4,28,6,-137,2
-1,0,1,1,-2,0,14,5,30,8,-2,3
-2,0,2,1,-2,1,14,6,33,11,101,3
-2,0,3,1,-2,2,15,6,35,13,146,3
-2,0,2,1,-2,1,15,7,36,14,101,3
-2,0,2,1,-1,1,14,8,37,14,-25,3
-1,0,1,1,-1,1,14,8,38,14,-135,3
-1,1,2,0,-1,1,13,8,39,14,-193,4
-1,1,2,0,-2,1,13,8,40,14,-168,4
-1,0,1,1,-2,1,12,8,41,14,-49,4
-2,0,1,1,-2,1,11,8,42,15,66,4
-2,-1,1,2,-2,0,10,9,43,15,127,4
-2,-1,1,2,-1,0,10,9,44,16,115,4
-1,-1,0,2,-1,0,10,9,45,16,5,5
-1,0,0,1,-1,0,10,9,46,17,-118,6
0,0,0,0,0,0,10,9,46,17,-194,6
0,0,0,0,0,0,9,9,46,17,-203,7
1,0,-1,0,0,0,9,9,46,17,-106,7
1,-1,-1,0,0,-1,8,9,47,17,25,7
0,-1,-1,1,0,-1,8,9,48,18,109,7
0,-1,0,1,0,0,8,10,49,19,130,7
0,0,0,0,0,1,9,11,50,19,51,7
0,1,0,0,0,1,9,11,51,20,-79,7
0,0,1,0,-1,1,9,11,52,20,-171,7
-1,0,1,1,-1,0,10,11,53,20,-205,7
-1,-1,1,1,-1,0,11,11,54,20,-141,7
0,-1,0,1,0,0,12,11,54,20,-8,6
0,-1,0,1,0,0,12,11,55,20,92,6
0,-1,0,1,0,0,12,11,56,20,135,5
0,0,1,1,-1,0,12,12,57,20,91,5
0,0,1,0,-1,1,12,13,59,20,-33,6
0,1,1,0,-1,1,11,14,59,20,-140,6
0,1,1,0,-1,1,10,14,60,20,-195,5
0,1,1,0,-1,1,10,15,60,21,-168,5
0,2,3,0,-2,2,9,16,61,22,-46,5
1,3,3,-1,-1,4,9,17,63,23,73,5
3,5,3,-3,0,4,8,18,64,24,137,5
3,5,3,-3,0,4,7,17,64,24,127,4
2,5,3,-3,-1,4,5,17,65,24,20,3
2,5,3,-2,-1,4,3,17,65,23,-102,2
1,5,3,-2,-1,4,2,17,65,23,-178,2
0,5,4,-1,-2,4,1,17,65,23,-186,2
0,6,5,-2,-3,5,1,18,66,23,-89,3
0,7,6,-3,-3,6,1,19,67,24,41,3
0,7,6,-3,-3,6,1,19,68,23,122,4
1,8,6,-4,-2,7,1,20,68,23,141,4
1,8,6,-4,-2,7,1,20,68,23,61,3
1,8,6,-4,-2,7,2,21,68,22,-69,2
1,8,6,-4,-2,7,3,21,68,22,-161,2
1,8,6,-5,-2,7,4,21,69,22,-197,1
2,9,6,-5,-2,8,5,21,69,22,-135,1
2,9,7,-5,-3,8,7,21,70,22,-3,0
1,9,8,-5,-3,8,8,22,70,22,97,0
1,9,9,-5,-4,9,9,22,71,22,141,0
1,9,10,-5,-4,9,9,23,71,22,96,0
1,11,10,-5,-5,10,10,24,72,22,-28,-1
0,11,11,-5,-5,11,10,25,73,23,-134,-1
-1,11,12,-4,-7,12,10,26,74,23,-190,-2
-3,10,13,-2,-8,12,11,26,75,23,-164,-3
-3,10,13,-2,-9,12,11,27,76,23,-43,-4
-2,11,14,-4,-8,12,11,28,77,24,74,-4
0,12,13,-6,-7,13,11,29,79,24,137,-4
2,14,13,-7,-5,13,11,29,80,24,128,-4
3,15,13,-8,-5,13,10,30,82,24,22,-5
1,15,14,-8,-6,14,10,30,82,24,-97,-6
-1,15,16,-7,-8,16,10,30,83,24,-168,-6
-1,17,18,-7,-9,18,10,31,84,24,-173,-7
0,19,19,-9,-9,19,11,31,85,24,-75,-7
0,20,19,-10,-9,20,11,31,85,24,55,-7
1,21,19,-10,-9,20,11,31,86,24,136,-7
2,21,20,-11,-9,20,11,31,87,24,156,-6
2,21,20,-11,-9,21,11,32,88,25,78,-5
2,22,20,-12,-9,21,11,32,88,25,-49,-5
2,22,21,-12,-9,22,11,32,89,24,-140,-4
2,23,21,-12,-10,22,11,32,89,23,-177,-4
3,24,21,-13,-10,23,11,33,89,23,-117,-3
4,26,22,-14,-10,24,11,33,89,23,13,-2
4,26,23,-15,-10,25,11,34,89,23,111,-2
3,26,23,-15,-10,25,11,34,89,22,152,-1
2,26,24,-15,-11,26,11,34,89,22,108,0
2,27,25,-15,-11,26,10,34,88,22,-15,1
1,27,25,-14,-12,27,10,34,88,22,-121,2
1,27,25,-14,-11,26,9,33,88,22,-180,3
1,26,25,-13,-11,26,8,33,87,21,-165,3
1,25,24,-13,-11,25,8,33,86,21,-56,4
1,27,25,-14,-11,26,7,33,86,20,56,4
2,28,25,-15,-11,27,7,32,85,20,119,5
2,28,26,-15,-11,27,6,31,84,20,111,6
1,27,26,-14,-12,27,6,31,83,19,7,7
0,27,26,-13,-13,27,5,30,84,19,-111,8
1,27,26,-13,-13,27,5,30,88,19,-181,8
2,29,27,-15,-12,28,5,30,90,19,-187,9
2,30,28,-15,-12,28,5,29,89,18,-90,9
1,30,29,-15,-13,29,4,28,86,18,40,9
0,31,30,-15,-15,30,5,28,83,17,122,10
-1,31,32,-15,-16,31,6,28,81,17,142,12
-1,31,33,-15,-17,32,6,28,80,17,64,13
-1,31,33,-15,-17,32,6,27,79,17,-63,15
-1,31,33,-15,-17,32,6,26,79,16,-151,16
0,31,32,-15,-16,32,6,25,82,16,-186,16
0,31,32,-15,-16,32,6,23,84,15,-125,17
0,31,32,-15,-16,32,6,22,83,15,4,17
0,31,32,-15,-16,31,6,21,79,14,103,18
0,31,32,-15,-16,31,5,20,75,13,147,18
0,31,32,-15,-16,31,5,19,72,13,104,19
-1,31,32,-15,-17,31,5,18,69,13,-19,19
-2,30,32,-13,-17,31,4,17,65,12,-125,20
-2,29,32,-13,-17,31,4,17,62,12,-181,20
-1,29,31,-13,-16,31,3,16,58,12,-156,21
-1,29,31,-14,-16,31,3,15,55,12,-38,21
-1,29,30,-14,-16,30,2,14,52,11,76,20
-2,27,30,-13,-16,29,1,13,50,10,137,20
-3,25,29,-11,-16,27,0,12,49,10,127,21
-4,23,28,-10,-16,26,0,11,48,10,20,21
-3,23,26,-10,-14,25,0,11,47,10,-100,21
-2,22,25,-10,-13,24,-1,11,45,10,-173,21
-3,22,25,-9,-14,24,-1,11,44,10,-182,21
-4,21,25,-8,-14,23,-1,10,42,11,-89,21
-4,20,24,-8,-14,22,-1,10,40,11,39,21
-3,19,23,-8,-13,21,-2,10,39,11,120,21
-2,18,21,-8,-12,20,-2,10,38,11,142,21
-1,18,20,-8,-11,19,-1,11,38,11,67,21
-1,18,20,-8,-11,19,-1,11,39,12,-58,22
-1,18,20,-7,-11,19,-2,11,39,12,-145,22
-2,17,20,-6,-12,19,-2,11,38,12,-180,21
-2,16,19,-7,-11,18,-2,11,38,12,-120,21
-1,16,17,-8,-9,17,-2,11,38,12,9,20
0,16,17,-8,-8,16,-2,11,38,12,106,20
0,15,16,-7,-8,15,-2,10,39,12,147,19
0,14,15,-7,-7,14,-2,10,39,12,103,18
0,13,14,-6,-7,13,-2,10,39,12,-20,17
-1,11,14,-4,-8,13,-2,10,39,12,-126,16
-2,10,13,-3,-8,12,-2,10,40,12,-182,15
-2,10,13,-3,-8,12,-1,10,40,12,-159,15
-2,10,12,-4,-8,12,-1,11,41,12,-41,14
-2,9,12,-4,-7,11,0,12,41,12,72,13
-2,8,11,-3,-7,10,0,12,42,12,132,12
-4,7,11,-1,-8,10,0,12,43,12,123,12
-5,6,12,0,-9,9,0,12,44,12,17,11
-5,6,11,0,-8,9,0,12,45,12,-102,11
-4,6,11,-1,-7,9,0,13,46,11,-174,10
-4,6,11,0,-7,9,0,13,47,11,-184,10
-5,5,11,0,-8,8,0,14,47,11,-92,9
-5,5,11,0,-8,8,0,14,47,10,34,9
-5,5,11,0,-8,8,0,14,48,10,111,9
-5,5,11,0,-7,8,1,15,48,10,131,9
-4,5,10,0,-7,8,1,15,49,10,54,9
-4,5,10,0,-6,8,1,15,49,11,-72,9
-2,6,9,-1,-6,8,2,15,50,11,-159,9
-2,6,9,-2,-5,8,2,15,50,11,-195,10
-2,5,8,-1,-5,7,2,16,50,11,-137,10
-2,5,8,-1,-5,6,3,16,50,11,-8,10
-2,4,7,0,-5,6,3,16,51,12,87,10
-2,4,7,0,-5,6,4,16,52,12,130,11
-2,4,7,0,-5,6,4,17,53,12,90,11
-2,5,7,-1,-5,6,5,17,53,12,-31,11
-3,4,7,0,-5,6,5,17,53,11,-134,11
-4,3,7,1,-6,5,5,17,53,10,-188,10
-5,2,8,2,-7,5,5,18,52,9,-165,9
-5,2,8,1,-7,5,6,18,52,9,-47,9
-4,3,8,0,-6,5,6,19,51,9,66,9
-2,3,7,0,-4,4,7,19,51,9,127,8
-2,3,6,0,-4,4,7,18,51,8,119,6
-1,3,5,-1,-3,5,7,18,51,8,16,5
0,4,5,-2,-2,5,7,18,51,8,-99,4
1,4,4,-2,-1,4,6,18,50,8,-168,3
1,4,3,-2,-1,4,6,18,50,7,-176,1
1,4,3,-2,-1,4,6,18,50,6,-83,0
0,3,4,-2,-1,4,6,18,50,5,43,0
0,2,4,-1,-2,4,5,17,50,4,120,-2
0,2,4,-1,-2,4,5,17,50,4,141,-2
0,4,5,-2,-2,5,5,17,51,4,67,-2
0,6,5,-3,-2,6,6,18,52,4,-55,-2
0,7,6,-3,-2,7,6,18,53,4,-138,-3
0,6,6,-3,-3,7,5,19,53,4,-170,-3
0,5,6,-2,-3,6,5,18,54,4,-110,-4
0,5,6,-2,-2,6,5,18,54,4,17,-5
1,6,6,-4,-1,6,5,19,55,4,110,-6
2,6,5,-4,0,5,5,19,56,4,152,-7
2,5,4,-4,0,4,5,19,57,4,110,-8
2,4,3,-3,0,3,4,19,57,3,-12,-10
0,2,2,0,-1,2,3,19,57,2,-118,-11
-2,0,3,2,-3,1,3,19,57,2,-176,-12
-3,-1,3,2,-3,1,4,19,58,2,-156,-13
-3,-1,3,2,-2,1,4,19,58,2,-43,-13
-2,0,3,1,-2,1,4,19,59,2,65,-13
0,0,3,0,-1,1,4,19,59,2,121,-13
1,1,2,0,0,1,5,19,59,2,109,-12
2,2,1,-1,0,2,5,19,59,2,4,-12
3,3,0,-2,1,2,5,19,59,1,-112,-12
3,4,0,-3,2,2,5,20,59,1,-180,-12
3,4,0,-3,1,2,5,20,59,1,-187,-12
1,3,1,-2,0,2,5,20,58,0,-93,-12
0,3,2,-1,0,2,5,20,57,0,32,-12
1,3,2,-2,0,2,5,20,56,0,109,-13
1,3,2,-2,0,2,5,20,56,0,129,-13
2,4,2,-3,0,3,5,20,55,-1,55,-13
3,4,2,-3,0,3,4,21,55,-1,-66,-13
2,4,2,-3,0,3,4,21,55,-1,-148,-13
2,5,2,-3,0,4,5,21,55,-1,-181,-13
2,5,2,-4,0,4,5,22,55,-1,-121,-13
4,6,2,-5,1,4,5,22,55,-1,5,-13
4,5,2,-4,1,4,5,21,54,-2,97,-14
2,3,2,-3,0,3,5,19,53,-3,137,-15
1,2,2,-2,0,2,5,18,52,-3,95,-15
1,2,2,-2,0,3,5,18,52,-3,-23,-16
1,3,2,-2,0,4,5,18,52,-3,-121,-16
2,4,2,-3,0,4,5,18,52,-3,-172,-16
2,5,2,-4,1,4,4,18,52,-3,-148,-16
3,5,1,-4,1,4,4,18,52,-3,-33,-16
3,5,1,-4,1,4,4,18,51,-3,76,-16
3,4,1,-3,1,4,4,17,51,-3,134,-16
2,3,2,-3,0,4,4,17,51,-3,125,-16
1,3,2,-2,0,3,5,17,50,-3,23,-15
1,3,1,-2,0,3,5,16,50,-3,-91,-15
2,3,1,-2,1,3,5,16,49,-3,-158,-15
4,5,1,-4,2,3,6,16,48,-3,-166,-15
4,5,0,-4,2,3,6,17,48,-3,-75,-15
3,4,1,-4,1,3,6,17,47,-3,46,-14
1,4,2,-3,0,3,7,17,46,-3,120,-14
0,3,2,-2,0,3,7,17,46,-3,139,-13
0,3,2,-1,-1,3,7,16,45,-3,64,-13
0,3,2,-1,-1,3,7,16,44,-3,-57,-13
2,3,1,-2,0,3,7,15,44,-3,-140,-13
3,3,1,-2,1,2,7,15,44,-3,-173,-12
3,3,0,-2,1,2,7,15,43,-3,-115,-12
3,3,0,-3,2,2,7,15,44,-3,9,-11
4,4,0,-4,3,2,7,16,47,-3,100,-10
5,4,-1,-4,3,2,7,16,50,-3,140,-9
5,4,-1,-4,3,2,6,16,53,-3,98,-9
5,3,-2,-3,3,1,5,15,53,-3,-21,-9
4,2,-2,-3,3,0,4,15,50,-3,-121,-9
4,1,-3,-2,4,0,3,15,45,-4,-174,-9
4,1,-3,-2,4,0,3,15,42,-4,-153,-8
3,0,-2,-1,3,0,3,15,40,-4,-38,-8
1,0,-1,0,1,0,3,15,37,-4,69,-8
1,0,-1,0,1,0,3,14,35,-4,125,-8
2,1,-1,-1,2,0,3,14,33,-4,116,-8
3,1,-2,-2,3,0,3,14,30,-4,14,-8
4,1,-2,-2,3,0,3,14,28,-4,-99,-8
4,1,-2,-2,3,0,3,14,26,-5,-166,-8
3,1,-2,-1,3,0,3,14,25,-5,-175,-9
4,1,-2,-2,4,0,3,14,27,-6,-85,-9
5,2,-2,-3,4,0,3,14,27,-6,35,-9
5,1,-3,-3,4,-1,3,13,25,-6,106,-9
3,0,-3,-1,3,-2,3,13,22,-7,124,-9
2,-1,-3,0,3,-2,3,12,20,-7,49,-8
2,-1,-3,0,3,-2,2,12,19,-6,-72,-8
2,-1,-3,0,3,-2,2,12,18,-5,-153,-7
2,-1,-3,0,3,-1,2,12,18,-5,-185,-7
2,-1,-3,-1,3,-1,2,13,18,-4,-127,-6
2,-1,-3,-1,3,-1,2,13,17,-4,-3,-6
2,0,-3,-1,3,-1,2,13,15,-4,86,-6
2,-1,-3,0,3,-1,2,13,14,-4,125,-6
1,-2,-2,0,2,-1,2,13,13,-4,84,-6
0,-2,-1,1,1,-1,1,13,13,-4,-33,-6
0,-2,-1,1,1,-1,1,13,13,-4,-130,-6
0,-1,-2,0,1,-1,1,12,13,-4,-180,-5
1,0,-1,0,2,0,1,12,13,-4,-157,-4
1,0,-1,0,2,0,1,11,12,-4,-42,-3
1,-1,-1,0,1,0,1,11,12,-4,65,-3
0,-1,-1,0,0,0,2,12,11,-4,122,-2
-1,-1,0,1,0,0,2,12,11,-3,114,-1
-1,-1,0,1,0,0,2,12,11,-3,14,0
0,0,1,0,0,1,2,13,12,-2,-96,2
0,1,2,0,-1,2,2,13,12,-1,-160,3
-1,1,2,0,-1,2,2,14,12,-1,-168,4
-1,1,2,0,-1,2,2,13,12,-1,-78,5
0,1,1,0,-1,2,1,13,11,-2,41,5
1,2,0,-1,0,2,1,13,11,-2,112,6
1,1,0,-1,0,1,1,13,11,-2,131,7
0,1,1,0,0,1,1,13,11,-2,57,8
-1,0,2,0,-1,1,1,13,10,-2,-61,9
-2,0,2,1,-2,1,1,13,9,-2,-140,9
-2,0,2,1,-2,1,1,12,8,-2,-172,9
-2,0,2,1,-2,1,1,12,8,-2,-115,10
-2,0,3,1,-3,2,1,12,7,-1,9,10
-2,1,4,0,-3,3,2,12,8,0,98,12
-1,2,4,0,-3,4,2,13,8,0,137,13
-1,2,5,0,-4,4,2,12,9,0,96,13
-1,3,6,-1,-4,5,3,12,9,0,-20,14
-1,5,7,-2,-4,7,3,13,10,0,-114,15
-1,6,8,-2,-4,8,4,13,11,1,-163,16
-1,6,9,-2,-4,8,4,13,12,1,-140,17
-2,6,9,-2,-5,8,3,13,12,1,-27,17
-1,7,9,-3,-5,8,3,13,12,1,78,17
0,8,9,-4,-4,8,3,13,13,1,133,18
0,8,9,-4,-4,8,3,13,13,1,124,18
0,8,9,-4,-4,8,2,12,13,0,23,17
0,8,8,-4,-4,8,0,11,12,0,-87,17
0,9,9,-4,-4,9,0,11,13,0,-151,17
0,9,10,-4,-5,10,0,12,13,0,-159,17
0,10,10,-4,-5,10,0,12,13,0,-69,17
0,10,10,-4,-5,10,0,11,12,0,48,17
-1,9,10,-3,-5,10,0,11,11,0,118,17
-2,7,10,-1,-6,9,0,10,10,0,136,17
-3,6,8,0,-5,7,-1,10,9,-1,62,17
-2,5,7,-1,-4,6,-2,9,9,-1,-56,17
-1,5,6,-1,-3,6,-3,9,9,-1,-134,17
0,4,4,-1,-2,5,-4,9,8,-2,-166,16
0,3,3,-1,-1,4,-4,8,7,-3,-108,15
1,4,3,-2,-1,4,-5,8,7,-2,15,15
3,5,3,-4,0,4,-5,9,7,-2,102,15
3,6,3,-4,0,5,-4,9,8,-1,140,15
3,7,3,-5,0,6,-4,8,8,-1,101,15
4,8,3,-5,0,6,-4,8,8,-2,-14,15
4,7,3,-5,0,6,-4,7,7,-2,-107,14
3,6,4,-4,0,6,-4,7,6,-3,-154,13
1,4,4,-3,-1,5,-5,6,6,-3,-131,12
1,4,4,-3,-1,5,-5,6,5,-3,-18,11
3,5,3,-4,0,5,-5,6,5,-3,87,10
4,6,2,-5,1,4,-4,6,5,-4,141,9
6,6,0,-6,2,4,-4,6,4,-4,134,9
8,7,0,-7,3,4,-5,6,3,-4,36,9
7,6,0,-6,3,3,-5,6,3,-4,-70,8
5,4,0,-5,2,3,-5,6,2,-4,-131,7
4,3,0,-4,1,2,-5,6,2,-4,-137,7
3,3,1,-3,1,3,-4,6,1,-3,-46,6
2,3,1,-3,0,3,-4,6,1,-3,72,6
3,4,1,-3,0,3,-4,6,0,-4,141,5
4,4,1,-3,1,3,-4,5,0,-4,160,5
4,5,1,-4,1,3,-4,5,0,-4,88,5
4,5,2,-4,0,4,-3,6,0,-4,-28,5
4,6,2,-5,0,5,-2,6,0,-4,-105,6
4,6,2,-5,0,5,-2,5,0,-4,-136,6
4,5,2,-5,0,5,-1,5,0,-5,-81,5
4,6,2,-5,0,5,-1,5,0,-4,38,5
4,6,3,-4,0,5,-1,5,0,-4,122,5
1,5,4,-3,-1,5,-1,4,0,-4,157,4
0,4,4,-1,-2,4,-1,4,0,-4,115,3
0,4,5,-1,-3,4,-1,4,0,-4,0,2
-1,3,5,0,-3,5,-1,4,0,-4,-93,1
0,4,5,-1,-2,5,-1,5,0,-4,-141,0
0,4,4,-2,-2,5,-1,5,0,-4,-120,0
0,4,4,-2,-2,5,-1,5,0,-5,-11,-2
0,2,3,-1,-2,4,-2,4,0,-6,89,-3
-1,1,3,0,-2,3,-2,4,0,-6,139,-5
-1,1,2,0,-1,3,-2,4,0,-6,128,-5
0,2,2,0,-1,3,-2,4,0,-6,28,-6
1,3,1,-2,0,3,-2,4,0,-6,-78,-6
2,4,1,-3,1,3,-2,4,0,-6,-140,-7
3,5,1,-4,1,3,-1,5,0,-6,-148,-7
4,5,1,-5,1,4,-1,5,1,-6,-62,-8
3,5,1,-4,1,4,-2,5,1,-6,51,-10
3,5,2,-4,0,4,-2,5,1,-6,116,-12
2,5,2,-3,0,4,-2,5,1,-6,131,-13
1,4,1,-3,0,3,-2,5,1,-6,58,-14
0,3,2,-2,-1,3,-2,5,1,-6,-58,-15
0,3,2,-2,-1,3,-2,5,2,-6,-133,-16
0,3,2,-2,-1,3,-2,5,2,-7,-165,-16
0,2,2,-2,-1,3,-2,5,2,-7,-111,-17
0,2,2,-1,-1,2,-3,5,2,-8,5,-18
0,2,1,-1,-1,2,-4,4,1,-8,86,-19
1,2,1,-1,0,2,-4,4,1,-7,121,-19
2,3,1,-2,0,2,-3,4,1,-7,80,-18
2,3,1,-2,0,2,-3,4,1,-6,-33,-17
2,3,1,-2,0,2,-4,4,1,-6,-124,-16
2,3,1,-2,0,2,-4,5,0,-6,-171,-14
2,2,0,-2,0,2,-4,5,0,-6,-150,-13
1,1,0,-1,0,1,-4,5,-1,-7,-41,-13
1,0,0,0,0,0,-5,5,-2,-7,57,-12
0,0,0,0,0,0,-5,6,-3,-7,106,-11
0,0,0,0,0,0,-5,6,-3,-7,97,-11
0,1,0,-1,0,0,-5,6,-3,-7,-2,-10
1,1,0,-1,1,0,-5,6,-3,-6,-108,-8
1,1,0,-1,1,0,-5,6,-3,-6,-169,-8
1,0,-1,0,1,0,-5,6,-3,-7,-178,-7
1,0,-2,0,1,0,-5,5,-3,-7,-93,-7
1,-1,-2,0,2,-1,-5,5,-4,-8,17,-8
1,-1,-2,0,2,-1,-5,4,-4,-8,80,-9
1,-1,-1,0,1,0,-5,3,-3,-8,96,-9
0,1,0,0,0,1,-4,1,-1,-7,25,-9
0,4,3,-2,-1,4,-4,0,1,-6,-85,-8
0,7,6,-4,-3,7,-3,-2,4,-4,-156,-7
0,9,9,-5,-4,10,-4,-5,4,-3,-183,-5
0,12,13,-6,-6,13,-5,-9,0,-2,-125,-2
0,15,17,-7,-8,17,-7,-16,-8,-1,-3,2
0,19,19,-9,-9,20,-11,-24,-19,0,81,7
1,23,21,-12,-10,23,-17,-31,-31,1,122,14
5,26,21,-15,-8,24,-23,-37,-41,2,89,23
10,31,20,-20,-5,25,-31,-42,-53,4,-15,33
17,35,18,-26,0,26,-38,-48,-68,2,-96,43
24,40,16,-31,4,28,-45,-56,-89,-1,-134,53
30,44,15,-37,8,29,-52,-64,-113,-7,-107,63
34,47,14,-40,10,31,-57,-74,-139,-15,4,71
36,49,15,-42,10,32,-62,-84,-164,-24,104,78
36,50,15,-43,10,33,-64,-92,-184,-34,154,82
34,48,14,-41,9,32,-65,-97,-199,-45,143,83
31,42,11,-36,9,27,-65,-99,-209,-57,38,77
28,33,4,-30,12,19,-63,-97,-213,-68,-77,67
25,22,-3,-23,13,10,-61,-95,-214,-78,-149,55
19,11,-7,-15,13,3,-58,-93,-211,-85,-170,40
11,2,-8,-7,10,-2,-51,-88,-204,-92,-100,21
3,-5,-7,1,6,-5,-42,-80,-192,-96,-2,3
-3,-11,-7,8,2,-8,-34,-72,-180,-97,51,-10
-9,-16,-7,13,0,-11,-28,-66,-168,-96,62,-19
-13,-20,-8,17,-2,-13,-24,-60,-157,-95,-12,-26
-17,-24,-8,21,-4,-16,-21,-55,-148,-94,-127,-31
-20,-28,-8,24,-5,-18,-19,-51,-138,-91,-200,-34
-20,-30,-8,25,-6,-19,-16,-46,-128,-87,-230,-36
-19,-29,-8,24,-6,-18,-14,-42,-117,-81,-174,-37
-18,-26,-7,22,-6,-16,-11,-38,-106,-74,-54,-36
-18,-23,-6,21,-6,-14,-10,-33,-94,-66,29,-34
-17,-20,-4,19,-7,-11,-8,-28,-81,-59,68,-32
-16,-17,-2,17,-7,-9,-7,-22,-69,-51,34,-28
-14,-13,-1,14,-6,-6,-7,-16,-57,-43,-72,-24
-10,-9,0,10,-5,-4,-6,-11,-45,-36,-154,-20
-8,-6,2,7,-5,-2,-4,-6,-35,-29,-195,-16
-7,-5,3,6,-5,-1,-3,-3,-27,-23,-169,-12
-6,-3,3,5,-5,0,-1,0,-20,-18,-58,-9
-6,-3,3,4,-5,1,0,3,-15,-13,41,-7
-5,-3,2,4,-4,0,0,5,-11,-10,91,-5
-4,-2,1,4,-3,0,0,8,-8,-8,84,-3
-3,-2,1,3,-2,0,0,9,-5,-6,-10,-2
-3,-2,0,3,-1,0,0,10,-4,-5,-112,-1
-2,-2,0,2,-1,0,0,10,-4,-5,-169,0
-1,-1,0,1,0,0,0,10,-3,-3,-176,0
0,0,0,0,0,1,1,11,-1,-1,-89,2
1,2,1,-2,0,2,1,13,1,1,23,3
1,2,1,-2,0,2,2,13,1,2,86,3
0,1,1,-1,0,1,2,14,2,3,102,3
0,0,0,0,0,0,1,14,2,3,31,3
1,0,-1,-1,1,0,1,15,1,2,-81,3
1,0,-1,-1,1,0,1,15,1,2,-152,2
1,0,0,-1,1,0,0,15,1,2,-181,2
1,0,0,-1,0,0,0,16,2,3,-126,2
2,1,0,-2,0,1,0,16,2,4,-9,2
2,2,0,-2,1,1,0,17,3,4,68,1
2,2,0,-2,1,1,0,17,3,5,101,1
3,2,0,-2,1,1,-1,17,3,5,61,1
3,3,0,-3,1,2,-1,18,4,5,-49,1
3,3,0,-2,1,2,-2,18,4,5,-136,1
3,3,0,-2,1,1,-3,17,3,5,-181,1
3,3,0,-2,1,1,-4,17,3,5,-159,1
2,3,0,-2,1,1,-4,18,3,5,-51,1
2,3,0,-3,0,2,-4,18,3,6,46,2
2,4,1,-3,0,2,-4,19,4,6,94,2
3,4,0,-3,1,2,-5,19,4,6,86,2
3,4,0,-3,1,2,-5,19,5,6,-9,2
2,3,1,-3,1,2,-5,19,5,7,-109,2
2,3,1,-2,0,2,-5,19,6,7,-164,1
3,3,1,-3,1,2,-4,19,6,8,-170,1
4,4,0,-4,1,2,-4,19,7,8,-82,0
4,4,0,-4,2,2,-4,19,7,8,30,0
4,3,0,-4,2,2,-4,19,7,8,95,0
3,3,0,-4,2,2,-3,19,7,8,113,0
4,4,0,-4,2,2,-3,19,8,9,44,0
5,5,0,-5,2,3,-2,19,9,9,-65,0
5,5,0,-5,2,3,-2,19,10,10,-135,0
4,4,0,-4,1,2,-3,18,10,9,-166,0
3,3,0,-3,1,2,-3,18,10,9,-112,0
3,3,0,-3,1,2,-3,18,10,9,2,0
3,3,1,-3,1,2,-4,18,10,9,79,1
3,3,1,-3,1,2,-4,18,10,9,112,1
2,3,1,-2,0,2,-5,18,10,9,72,1
0,2,2,-1,-1,1,-6,17,10,9,-39,1
-2,0,2,0,-2,1,-7,17,10,9,-126,1
-2,1,3,0,-2,1,-7,18,10,9,-171,2
0,2,3,-1,-2,2,-7,19,11,10,-149,4
1,4,3,-3,-1,3,-7,20,11,10,-41,5
3,5,2,-4,0,4,-7,20,10,10,54,5
3,4,2,-3,0,3,-7,19,9,10,102,4
3,4,2,-3,0,3,-7,19,8,11,94,4
3,5,2,-3,0,3,-6,20,8,11,0,4
3,5,2,-4,0,4,-6,20,8,11,-100,4
2,5,3,-4,0,4,-6,20,8,11,-156,3
1,5,4,-3,-1,4,-5,20,8,11,-163,4
1,5,4,-3,-1,5,-4,20,9,11,-77,3
2,6,4,-4,-1,5,-4,20,9,11,32,2
4,8,3,-6,0,6,-3,20,9,11,94,2
5,8,3,-7,1,6,-2,21,10,11,111,1
4,8,3,-6,0,6,-2,21,10,11,42,0
2,7,5,-5,-1,6,-2,21,11,12,-68,0
1,7,6,-4,-2,7,-2,21,11,12,-137,-1
0,7,6,-4,-3,7,-2,21,12,12,-165,-2
0,6,7,-4,-3,7,-2,21,12,12,-110,-3
0,7,7,-4,-4,7,-2,22,13,12,4,-3
0,7,7,-4,-4,8,-1,23,14,12,81,-4
0,7,7,-4,-4,8,-1,23,14,12,115,-4
1,8,7,-4,-4,8,-1,23,15,12,77,-5
2,9,8,-5,-4,9,0,24,16,13,-29,-5
2,11,9,-6,-4,10,0,24,17,13,-111,-6
2,12,9,-7,-4,11,0,24,18,14,-153,-6
2,13,10,-8,-4,12,0,25,19,14,-130,-6
1,12,11,-7,-5,12,0,25,20,14,-22,-6
1,12,11,-7,-6,13,0,26,20,14,72,-7
2,13,12,-7,-6,13,0,26,20,14,120,-8
2,14,12,-8,-6,13,0,26,19,13,113,-9
2,14,12,-8,-6,13,0,27,19,13,20,-10
2,14,12,-8,-6,14,0,27,19,12,-75,-11
1,14,13,-8,-6,14,0,27,19,12,-127,-12
0,14,13,-7,-7,14,-1,27,18,11,-131,-13
2,16,13,-9,-6,15,-1,27,18,11,-43,-14
5,19,13,-12,-4,17,0,27,19,11,66,-14
6,21,14,-13,-4,18,0,27,19,10,127,-14
6,21,14,-13,-5,18,0,26,19,10,144,-14
5,21,15,-13,-5,18,0,26,19,9,76,-15
5,22,15,-13,-5,19,0,26,19,9,-30,-15
6,22,16,-14,-5,19,0,25,18,8,-96,-15
6,23,16,-15,-4,20,0,25,18,8,-123,-15
7,24,17,-15,-4,21,0,25,18,8,-69,-14
6,24,18,-15,-5,21,0,24,17,7,43,-14
6,25,18,-16,-6,22,0,24,16,7,116,-14
6,25,18,-16,-6,22,0,23,15,6,147,-14
6,24,18,-15,-6,21,0,22,14,6,107,-14
7,24,17,-15,-6,21,-1,21,14,5,-2,-14
7,25,18,-16,-6,22,-1,21,13,5,-84,-13
6,25,18,-16,-6,22,-1,20,12,4,-127,-12
6,24,18,-15,-7,22,-2,19,11,4,-107,-11
5,24,19,-15,-7,22,-3,18,10,3,-3,-11
5,24,19,-15,-7,22,-3,17,8,2,86,-10
6,25,19,-16,-7,22,-3,16,6,2,130,-9
7,26,19,-17,-6,23,-3,15,5,2,121,-8
8,27,19,-17,-6,23,-2,15,4,2,28,-7
8,28,19,-18,-6,24,-3,14,3,2,-67,-6
7,28,20,-17,-7,24,-3,14,2,2,-120,-5
5,27,21,-16,-8,24,-3,12,0,2,-127,-4
5,27,21,-15,-8,24,-3,11,-1,1,-44,-3
4,26,21,-15,-8,24,-4,9,-3,1,60,-3
4,25,21,-14,-8,23,-4,7,-6,0,117,-2
3,25,20,-14,-8,23,-5,6,-8,0,130,-1
3,24,20,-13,-9,22,-5,5,-9,0,61,0
3,24,19,-13,-8,22,-6,4,-11,-1,-46,0
4,23,18,-13,-7,21,-6,3,-12,-1,-112,1
5,23,17,-14,-6,21,-6,2,-13,-1,-139,2
5,22,17,-14,-6,20,-6,1,-14,-1,-86,3
6,22,16,-14,-5,20,-6,0,-16,-1,24,4
7,23,15,-15,-4,20,-6,-2,-17,-2,95,5
8,22,14,-15,-4,19,-6,-3,-18,-2,126,5
8,22,14,-14,-4,19,-6,-4,-19,-2,87,6
7,21,14,-14,-4,18,-6,-4,-20,-2,-19,6
6,21,14,-13,-4,18,-6,-5,-20,-2,-99,7
5,19,13,-12,-4,17,-6,-6,-21,-3,-140,7
5,17,12,-11,-4,15,-7,-7,-23,-3,-119,7
4,16,11,-10,-4,14,-8,-8,-24,-4,-16,7
3,15,11,-9,-4,13,-9,-9,-25,-4,72,8
3,14,11,-9,-3,12,-9,-9,-26,-4,115,8
3,13,11,-8,-4,12,-9,-9,-26,-4,107,8
2,13,11,-7,-5,12,-9,-9,-26,-3,15,9
3,13,10,-8,-4,12,-9,-9,-26,-3,-79,10
4,13,8,-9,-2,11,-10,-9,-27,-3,-130,11
5,12,7,-9,-1,10,-10,-10,-28,-3,-136,11
5,12,7,-8,-1,10,-10,-10,-29,-2,-53,11
4,12,7,-8,-2,10,-10,-9,-29,-2,50,11
3,11,7,-6,-3,9,-11,-9,-29,-2,106,10
2,10,7,-5,-3,9,-11,-9,-28,-2,120,10
1,9,7,-5,-3,8,-11,-9,-28,-1,53,9
1,9,7,-5,-3,8,-11,-9,-27,-1,-51,9
1,8,7,-4,-3,8,-11,-9,-27,-1,-114,8
1,7,5,-4,-2,7,-11,-9,-28,-1,-140,7
2,7,4,-5,-1,6,-11,-9,-28,-1,-87,7
2,7,4,-5,-1,6,-10,-9,-28,0,23,7
2,6,4,-4,-1,6,-9,-9,-28,0,95,7
1,5,3,-3,-1,5,-8,-10,-29,-1,126,6
0,3,2,-2,-1,3,-8,-10,-30,-2,88,6
0,3,2,-2,-1,3,-7,-10,-31,-3,-15,6
0,3,3,-2,-2,3,-7,-10,-31,-3,-93,6
-1,3,3,-1,-3,3,-7,-10,-32,-4,-132,5
-2,3,4,0,-3,3,-7,-10,-32,-4,-109,6
-1,4,4,-2,-3,4,-6,-9,-31,-3,-5,7
1,6,4,-3,-2,5,-6,-9,-31,-3,84,7
1,5,3,-3,-1,4,-6,-10,-32,-4,126,7
0,4,3,-2,-1,3,-6,-10,-33,-4,117,7
0,3,2,-2,-1,3,-7,-9,-33,-5,26,7
1,4,2,-3,0,3,-7,-9,-33,-5,-66,7
2,4,1,-3,0,3,-7,-8,-32,-4,-115,7
1,3,1,-2,-1,3,-7,-8,-32,-4,-120,7
0,3,2,-1,-2,3,-7,-8,-32,-4,-36,7
1,4,2,-2,-2,4,-7,-8,-31,-4,68,7
1,4,2,-2,-1,4,-7,-8,-31,-4,124,7
1,3,1,-2,-1,3,-7,-9,-31,-5,140,7
0,2,1,-1,-1,3,-7,-9,-31,-5,74,6
0,2,2,0,-1,3,-7,-9,-31,-5,-28,6
0,2,2,0,-1,3,-7,-9,-31,-5,-88,5
0,2,2,0,-2,3,-7,-9,-30,-4,-113,5
0,2,2,-1,-1,3,-6,-8,-30,-4,-59,4
0,3,2,-1,-1,3,-6,-8,-29,-4,50,4
0,3,2,-1,-2,3,-5,-8,-29,-4,120,4
0,3,2,-1,-2,3,-5,-8,-28,-4,150,3
0,2,2,-1,-2,3,-5,-7,-28,-4,112,2
1,2,2,-2,-1,3,-4,-7,-27,-4,8,1
1,2,2,-2,-1,3,-4,-6,-26,-4,-68,1
0,2,2,-1,-1,3,-3,-6,-24,-4,-108,1
0,2,2,-1,-2,3,-2,-5,-23,-3,-89,1
0,2,2,0,-2,2,-2,-5,-22,-3,9,1
-1,1,1,0,-2,2,-1,-5,-21,-3,92,1
-1,1,1,0,-2,1,-1,-5,-21,-3,131,1
-2,0,2,1,-3,1,-1,-5,-20,-2,121,2
-2,0,2,1,-3,2,-1,-4,-19,-2,29,2
-1,1,2,0,-2,2,-1,-4,-19,-2,-62,2
0,2,2,-1,-1,2,-1,-4,-18,-2,-110,2
0,1,1,0,-1,2,-1,-4,-17,-2,-116,1
-1,0,1,0,-2,1,-1,-4,-17,-2,-34,0
-1,0,1,0,-2,1,-2,-4,-17,-1,67,0
0,1,1,0,-2,2,-2,-4,-17,-1,121,-1
1,2,1,-1,-1,2,-1,-4,-16,-1,134,-2
2,3,1,-3,0,2,-1,-3,-16,-1,67,-2
3,4,1,-3,0,2,0,-3,-16,-2,-35,-3
2,3,1,-2,0,2,-1,-3,-16,-2,-96,-4
1,2,1,-1,-1,2,-1,-3,-16,-3,-122,-4
0,2,1,-1,-1,2,-1,-3,-15,-2,-69,-4
1,3,1,-1,-1,3,-1,-2,-14,-1,38,-3
1,3,1,-1,-1,3,-1,-3,-14,-1,105,-3
0,3,1,-1,-1,3,-1,-3,-14,-2,134,-4
0,2,1,0,-2,2,-1,-4,-14,-2,95,-4
0,2,2,-1,-2,3,-1,-4,-14,-2,-7,-3
0,2,2,-1,-2,3,-1,-4,-13,-2,-83,-3
0,2,1,-1,-1,2,-2,-4,-13,-2,-123,-4
1,2,0,-1,0,2,-2,-4,-13,-2,-102,-4
2,3,0,-2,0,2,-3,-4,-12,-2,-1,-4
2,3,0,-2,0,2,-3,-4,-12,-1,83,-4
1,2,0,-1,0,1,-3,-4,-12,-2,124,-4
0,1,1,0,-1,1,-3,-5,-12,-2,115,-4
-1,1,2,0,-2,2,-3,-4,-11,-1,24,-4
-1,2,3,0,-3,2,-2,-4,-10,-1,-66,-3
0,3,3,-1,-2,3,-2,-3,-9,-1,-114,-3
1,4,2,-1,-2,3,-2,-3,-9,-1,-120,-3
1,3,2,-1,-2,3,-3,-3,-9,-1,-39,-3
1,3,2,-1,-2,3,-3,-3,-9,-1,59,-4
0,3,3,-1,-3,3,-3,-3,-8,-1,111,-4
0,3,3,-1,-3,4,-3,-3,-8,-1,123,-3
0,3,3,-1,-3,4,-2,-3,-8,-2,56,-3
0,3,3,-1,-3,4,-2,-4,-9,-2,-46,-3
-1,3,3,0,-3,4,-3,-4,-9,-3,-106,-3
-1,3,4,0,-4,4,-3,-5,-9,-3,-131,-4
-1,2,4,0,-4,3,-3,-5,-9,-3,-79,-4
-1,2,3,0,-3,3,-3,-5,-10,-3,27,-4
0,3,3,-1,-2,3,-4,-5,-11,-4,93,-5
0,3,2,-1,-2,3,-4,-5,-11,-4,121,-5
0,3,3,-1,-2,3,-4,-5,-12,-5,84,-6
-1,3,3,0,-3,3,-4,-5,-12,-6,-18,-6
-2,2,4,0,-4,3,-4,-5,-12,-7,-92,-7
-3,2,4,0,-5,4,-4,-5,-12,-7,-130,-7
-3,2,5,1,-5,4,-4,-5,-12,-8,-109,-7
-4,2,5,1,-5,4,-4,-5,-12,-8,-9,-8
-4,2,5,1,-5,4,-4,-5,-12,-8,73,-8
-3,2,5,0,-4,4,-4,-5,-11,-8,112,-8
-3,2,5,0,-4,3,-4,-5,-11,-8,102,-9
-3,1,4,1,-4,2,-4,-6,-11,-9,12,-10
-2,2,4,0,-3,2,-4,-7,-12,-10,-78,-10
-1,2,3,0,-2,2,-5,-7,-13,-11,-125,-10
0,2,2,0,-1,1,-5,-7,-14,-13,-132,-11
-1,1,1,0,-1,1,-6,-8,-15,-14,-51,-11
-2,1,2,1,-3,1,-6,-8,-15,-14,47,-10
-4,0,3,2,-5,1,-6,-8,-15,-14,98,-9
-5,0,4,2,-5,2,-5,-7,-15,-14,112,-9
-3,1,4,1,-4,2,-4,-7,-14,-14,46,-8
-1,2,3,0,-3,3,-4,-7,-14,-15,-53,-7
-1,2,3,0,-3,3,-4,-7,-15,-16,-111,-7
0,2,2,-1,-2,3,-4,-8,-16,-17,-134,-7
0,3,2,-1,-2,3,-3,-8,-16,-17,-81,-6
0,3,3,-1,-2,3,-3,-7,-16,-18,25,-5
-2,3,4,0,-4,4,-3,-7,-17,-18,92,-5
-2,2,4,0,-4,3,-3,-8,-17,-19,120,-5
-2,2,4,0,-4,3,-3,-8,-17,-19,82,-5
-2,2,4,0,-4,3,-3,-8,-17,-18,-18,-5
-2,2,4,0,-3,3,-3,-8,-17,-17,-91,-5
-2,2,4,0,-3,3,-3,-8,-17,-16,-127,-5
-3,1,4,1,-4,3,-3,-8,-16,-15,-106,-5
-3,1,4,1,-4,3,-3,-8,-16,-15,-6,-4
-2,2,4,0,-4,3,-4,-8,-16,-15,77,-4
-1,2,3,0,-3,3,-4,-8,-16,-15,117,-4
-1,2,3,0,-3,3,-4,-8,-16,-14,108,-4
-1,2,4,0,-3,3,-4,-8,-15,-14,20,-3
-2,2,4,0,-4,3,-4,-7,-15,-13,-66,-3
-3,2,5,0,-4,3,-4,-7,-15,-12,-111,-2
-4,2,5,1,-5,4,-3,-7,-14,-12,-115,-2
-4,1,6,1,-6,4,-3,-7,-14,-11,-34,-2
-4,1,6,1,-5,4,-3,-7,-14,-11,63,-3
-4,2,6,1,-5,4,-2,-7,-14,-11,113,-3
-3,2,5,0,-4,4,-2,-7,-14,-10,125,-3
-3,2,5,0,-4,4,-1,-7,-14,-10,59,-3
-3,2,5,0,-4,3,-1,-7,-14,-9,-39,-3
-2,2,4,0,-3,3,-1,-6,-14,-9,-96,-3
-2,2,4,0,-3,3,0,-6,-14,-9,-119,-4
-2,2,4,0,-3,3,0,-7,-14,-9,-66,-4
-1,2,4,0,-2,3,0,-7,-14,-9,38,-5
-1,2,4,-1,-2,3,0,-7,-14,-9,102,-5
-1,2,4,0,-3,3,0,-7,-14,-9,129,-6
-2,2,4,0,-4,4,0,-6,-14,-8,92,-5
-3,2,5,0,-4,4,0,-6,-14,-8,-8,-5
-3,2,5,0,-5,4,0,-6,-14,-8,-79,-5
-4,1,5,1,-5,3,0,-6,-14,-8,-116,-5
-5,1,6,1,-6,3,0,-5,-14,-8,-95,-5
-5,1,6,1,-6,4,0,-5,-13,-7,2,-4
-5,1,7,1,-6,4,1,-5,-13,-7,82,-3
-5,2,6,1,-6,4,1,-5,-13,-7,120,-3
-5,2,6,1,-6,4,0,-5,-12,-7,110,-2
-5,2,6,1,-6,4,0,-6,-12,-7,21,-2
-4,2,6,0,-5,4,0,-6,-12,-7,-65,-2
-4,1,5,0,-5,4,0,-6,-12,-7,-110,-2
-4,0,5,1,-5,3,0,-6,-12,-6,-115,-2
-4,0,5,1,-5,3,0,-5,-12,-6,-34,-2
-3,1,5,0,-5,3,0,-5,-11,-5,63,-2
-3,1,6,0,-5,4,0,-4,-11,-5,114,-2
-4,2,6,0,-5,4,1,-4,-11,-4,130,-2
-3,3,6,-1,-5,5,1,-4,-11,-4,68,-2
-3,4,6,-1,-5,5,1,-4,-11,-4,-27,-2
-3,4,6,-1,-5,5,0,-3,-12,-4,-82,-2
-3,4,6,-1,-5,5,0,-3,-12,-4,-106,-1
-2,4,6,-1,-5,5,0,-3,-12,-3,-54,-1
-1,6,7,-2,-4,6,0,-3,-12,-2,49,0
-2,6,8,-3,-5,7,0,-3,-12,-1,112,0
-4,6,10,-2,-6,7,0,-3,-11,-1,136,1
-5,6,11,-1,-8,8,0,-3,-11,0,98,1
-6,7,12,-1,-9,8,0,-3,-10,0,-1,1
-5,7,12,-1,-9,9,0,-3,-10,0,-72,1
-4,8,12,-2,-8,9,0,-3,-9,0,-108,1
-3,8,12,-2,-8,9,0,-3,-9,0,-89,1
-2,8,11,-3,-7,9,0,-4,-9,0,5,1
0,9,10,-4,-5,9,-2,-4,-9,0,81,1
0,9,10,-4,-5,9,-3,-5,-9,0,115,1
-2,8,11,-3,-6,9,-3,-5,-9,0,104,1
-2,9,12,-4,-7,10,-4,-4,-9,0,15,1
-2,10,12,-5,-7,11,-4,-4,-8,0,-71,1
-1,11,13,-5,-8,12,-5,-4,-7,0,-116,2
-1,12,13,-5,-8,12,-5,-5,-7,0,-122,2
0,12,13,-6,-8,12,-6,-5,-8,0,-44,2
0,12,12,-6,-6,12,-6,-6,-9,0,49,3
0,11,11,-6,-6,11,-7,-6,-10,0,97,3
-1,10,11,-5,-6,11,-7,-6,-11,-1,109,3
-1,9,11,-4,-6,10,-8,-6,-12,-1,43,3
0,9,10,-4,-5,9,-9,-7,-12,-1,-53,3
0,9,9,-5,-4,8,-10,-7,-13,-1,-109,3
0,9,8,-5,-4,8,-9,-7,-13,-1,-132,3
1,9,8,-5,-4,8,-8,-7,-13,-1,-82,3
0,8,8,-4,-4,8,-8,-7,-13,-2,16,3
0,6,7,-3,-4,7,-8,-8,-14,-2,74,3
0,6,7,-3,-3,7,-7,-8,-14,-3,97,3
0,6,6,-3,-3,6,-7,-8,-14,-3,57,3
0,5,5,-3,-2,6,-7,-8,-14,-3,-42,3
0,5,4,-3,-2,5,-7,-8,-15,-3,-112,2
0,4,4,-3,-2,4,-7,-8,-15,-4,-148,2
0,3,3,-2,-2,3,-6,-8,-15,-4,-127,2
0,3,3,-2,-2,3,-6,-8,-15,-4,-30,2
1,3,2,-2,-1,3,-6,-8,-15,-4,49,3
2,4,2,-3,0,3,-6,-8,-15,-4,87,3
2,4,2,-3,0,3,-5,-8,-16,-4,80,3
1,4,2,-2,0,3,-5,-8,-16,-4,-3,4
1,4,2,-2,0,3,-5,-9,-17,-4,-83,4
1,4,2,-3,0,3,-5,-9,-17,-4,-122,4
1,4,2,-3,0,2,-5,-9,-17,-4,-123,4
1,3,2,-2,-1,2,-6,-9,-17,-4,-42,4
0,3,3,-2,-2,3,-6,-8,-17,-4,54,4
-1,2,3,0,-3,3,-5,-8,-17,-4,102,4
-3,1,4,1,-4,2,-5,-9,-17,-4,114,4
-4,0,4,2,-4,2,-5,-9,-18,-5,50,4
-3,1,4,1,-4,2,-5,-10,-18,-5,-43,4
-3,1,4,1,-4,2,-5,-10,-17,-5,-95,3
-4,1,4,1,-5,2,-5,-10,-17,-5,-116,3
-4,1,5,1,-5,3,-4,-9,-16,-4,-63,3
-2,3,5,0,-4,3,-4,-8,-16,-4,38,3
-1,4,5,-1,-3,4,-3,-8,-16,-4,99,2
-1,3,5,-1,-3,4,-3,-8,-16,-4,124,1
-1,2,5,0,-3,3,-2,-9,-16,-4,85,0
-2,1,5,0,-4,3,-2,-9,-16,-4,-17,0
-3,0,4,1,-4,2,-2,-8,-16,-4,-91,-1
-4,0,4,2,-4,1,-2,-8,-16,-4,-132,-1
-5,-1,3,3,-5,0,-2,-8,-16,-5,-118,-1
-5,-2,3,3,-5,0,-2,-8,-16,-5,-32,-1
-6,-3,2,4,-5,0,-2,-8,-16,-6,37,-1
-6,-3,2,4,-4,-1,-2,-8,-16,-6,67,-1
-6,-4,1,4,-4,-1,-1,-8,-16,-7,52,-1
-6,-3,1,4,-4,-1,-1,-9,-16,-7,-32,-1
-5,-2,2,3,-4,0,-1,-9,-16,-6,-97,-2
-5,-1,3,2,-4,1,-1,-9,-16,-6,-122,-2
-5,-1,3,3,-4,0,-1,-9,-16,-7,-124,-3
-5,-2,3,4,-4,0,-1,-9,-16,-7,-48,-3
-4,-1,3,2,-4,0,0,-8,-16,-7,40,-3
-3,-1,3,2,-3,0,0,-8,-16,-7,80,-4
-4,-2,2,3,-3,0,0,-8,-15,-7,86,-5
-4,-2,2,3,-3,0,0,-8,-15,-7,19,-5
-4,-1,1,2,-3,0,1,-7,-14,-6,-76,-5
-4,-1,1,2,-3,0,1,-7,-14,-6,-129,-5
-4,-2,1,3,-3,-1,0,-7,-14,-7,-151,-5
-4,-2,0,3,-2,-1,0,-7,-13,-7,-102,-4
-2,-1,0,2,-1,-1,0,-7,-13,-6,-4,-4
-1,0,0,1,-1,0,0,-6,-13,-6,54,-3
-1,0,1,1,-1,0,-1,-6,-12,-6,79,-3
-2,0,1,1,-2,0,-1,-6,-12,-6,43,-2
-2,-1,0,1,-2,0,-2,-6,-12,-6,-52,-2
-2,-1,0,1,-1,-1,-3,-6,-12,-6,-117,-1
-2,-2,-1,2,0,-2,-4,-6,-12,-6,-149,-1
-3,-3,-1,4,-1,-2,-5,-6,-13,-6,-128,0
-4,-4,0,5,-2,-2,-5,-6,-13,-6,-34,0
-3,-4,-1,4,-1,-2,-6,-7,-13,-6,41,0
-1,-4,-2,3,0,-3,-6,-7,-14,-6,75,0
0,-3,-2,1,1,-3,-6,-7,-14,-6,67,0
1,-2,-3,0,1,-2,-5,-7,-14,-5,-16,1
1,-1,-3,0,1,-2,-5,-7,-14,-5,-96,2
0,-1,-3,0,1,-2,-5,-7,-14,-5,-135,2
0,-1,-2,0,0,-2,-5,-8,-14,-5,-138,2
0,0,-1,0,0,-1,-5,-9,-14,-5,-60,2
0,1,1,0,0,0,-5,-11,-14,-5,30,2
-1,2,3,-1,-2,2,-5,-13,-12,-4,76,3
-2,3,5,-1,-4,4,-5,-15,-10,-2,89,3
-3,5,9,-1,-6,7,-5,-18,-10,0,30,5
-4,8,12,-2,-8,9,-7,-23,-13,1,-56,8
-3,12,15,-4,-10,13,-10,-30,-20,2,-101,13
-2,16,18,-7,-10,16,-13,-39,-31,3,-117,18
0,20,19,-10,-10,19,-18,-49,-44,3,-61,25
4,23,18,-14,-7,20,-24,-56,-55,4,43,32
12,27,15,-20,-3,21,-30,-62,-68,4,106,40
19,31,13,-26,1,22,-36,-69,-84,2,136,48
24,34,11,-30,5,23,-42,-78,-105,-2,106,56
28,36,9,-32,8,23,-48,-89,-128,-8,15,62
31,38,8,-34,11,23,-53,-101,-153,-17,-46,68
34,41,7,-37,13,24,-57,-113,-177,-27,-77,72
35,42,7,-38,13,25,-59,-123,-196,-37,-58,75
33,40,6,-36,13,23,-60,-129,-211,-48,30,73
30,33,3,-32,13,18,-59,-133,-220,-59,94,65
28,24,-3,-26,15,10,-57,-133,-224,-70,115,54
24,15,-7,-20,15,4,-54,-133,-224,-79,94,42
17,8,-8,-13,12,0,-50,-132,-220,-85,0,29
6,0,-5,-3,5,-2,-43,-127,-212,-90,-91,13
-4,-6,-2,5,-1,-4,-34,-118,-199,-93,-141,0
-12,-11,0,12,-7,-5,-26,-108,-186,-92,-153,-10
-18,-15,1,17,-10,-7,-20,-99,-174,-91,-82,-17
-22,-19,2,21,-12,-9,-15,-91,-163,-91,2,-23
-25,-23,1,24,-13,-11,-12,-84,-152,-89,42,-27
-26,-26,0,25,-13,-13,-9,-78,-142,-87,51,-30
-26,-27,0,26,-13,-13,-7,-72,-130,-82,-9,-32
-27,-26,1,27,-15,-12,-4,-66,-118,-76,-96,-33
-28,-24,3,26,-16,-10,-2,-61,-105,-69,-141,-33
-27,-21,4,24,-16,-8,0,-54,-92,-62,-157,-31
-25,-18,5,22,-16,-6,1,-47,-79,-54,-104,-29
-23,-14,6,18,-15,-3,3,-39,-67,-47,-4,-27
-19,-10,7,14,-13,-1,4,-31,-54,-39,56,-24
-14,-7,7,10,-12,0,5,-25,-44,-32,85,-21
-11,-4,8,8,-10,2,5,-21,-35,-26,55,-19
-10,-3,8,7,-10,2,6,-17,-28,-21,-32,-17
-10,-2,8,6,-10,3,7,-13,-21,-16,-89,-15
-9,-1,7,5,-8,3,8,-9,-15,-12,-116,-13
-7,0,6,4,-7,3,8,-6,-10,-9,-93,-11
-7,0,6,3,-7,3,9,-3,-7,-7,1,-8
-6,0,6,2,-7,3,9,-2,-4,-6,75,-6
-6,0,6,2,-7,3,9,-1,-3,-5,109,-5
-6,0,6,2,-7,3,9,0,-1,-4,102,-4
-6,1,7,2,-7,4,9,0,0,-2,22,-3
-6,1,7,2,-7,4,8,1,2,0,-52,-2
-5,2,6,1,-6,4,8,2,3,1,-90,-1
-3,3,5,0,-5,4,8,4,5,3,-95,0
-2,4,5,-1,-4,4,8,5,6,4,-22,0
-1,4,4,-2,-3,4,8,5,6,5,63,0
-1,4,5,-2,-4,4,8,6,6,5,103,1
-2,4,6,-1,-4,4,9,6,6,6,113,1
-2,3,6,-1,-4,4,9,6,6,6,52,1
-2,3,5,0,-4,3,9,5,6,7,-34,0
-2,3,4,0,-3,3,9,5,6,7,-78,0
-1,3,4,-1,-3,3,9,6,7,8,-97,1
0,3,3,-2,-2,3,9,7,7,9,-46,3
0,4,4,-3,-1,3,9,7,7,10,50,4
0,4,4,-3,-2,3,9,8,7,10,106,5
0,4,4,-2,-2,3,8,8,8,10,132,6
0,4,4,-2,-2,3,8,8,8,11,99,7
0,4,4,-1,-2,3,7,8,9,11,11,8
-1,3,4,-1,-3,3,7,8,9,11,-46,9
-2,3,4,0,-4,3,7,9,11,11,-73,10
-1,3,4,-1,-3,3,7,10,12,12,-49,11
0,4,3,-2,-2,3,7,10,13,12,43,12
0,3,2,-2,-2,2,7,11,14,13,113,12
0,3,2,-1,-2,2,7,11,14,13,143,12
1,3,2,-2,-1,2,8,12,15,14,131,13
2,3,1,-3,0,2,9,13,16,15,47,13
2,2,0,-2,1,1,8,13,17,15,-30,13
1,1,-1,-1,1,0,7,12,17,14,-69,13
1,0,-1,0,1,-1,6,12,17,14,-74,13
1,-1,-2,0,1,-2,5,11,17,13,-3,13
1,-1,-2,0,1,-2,4,11,17,13,78,13
2,-1,-2,0,0,-1,4,11,16,12,113,13
1,0,0,0,0,0,3,11,16,12,119,14
1,1,1,-1,-1,0,3,11,17,12,56,14
2,4,2,-3,0,2,2,11,17,13,-34,15
4,7,3,-6,0,4,2,11,18,13,-85,16
3,8,4,-6,0,6,2,11,19,13,-110,16
2,8,5,-5,-2,6,2,11,20,13,-67,16
1,7,6,-4,-3,7,1,11,20,13,21,16
1,7,5,-4,-3,7,0,12,20,14,69,16
2,7,5,-5,-2,6,0,12,20,14,88,17
2,7,5,-4,-2,6,0,12,20,14,54,17
2,7,6,-4,-3,6,-1,12,20,14,-34,18
1,8,6,-4,-3,6,-1,12,20,14,-90,19
1,9,7,-5,-3,7,-1,12,20,14,-116,20
2,10,8,-6,-3,8,-1,13,21,14,-93,21
2,11,8,-7,-3,9,-2,14,21,14,-2,22
2,11,8,-7,-3,9,-2,15,21,14,65,22
2,11,8,-7,-3,9,-2,15,21,14,94,22
2,11,9,-7,-4,10,-1,15,22,14,86,22
2,11,9,-7,-4,10,-1,15,22,14,9,21
3,12,9,-7,-4,11,-1,15,21,13,-62,21
4,13,9,-8,-3,11,-1,15,21,13,-96,20
4,14,10,-9,-3,12,-1,16,22,13,-97,20
3,15,11,-9,-4,13,0,17,23,14,-23,19
3,16,12,-10,-5,14,0,18,24,14,59,19
3,17,13,-10,-5,15,0,19,25,14,94,19
3,16,14,-10,-6,15,1,19,25,14,100,19
2,16,14,-9,-6,15,1,20,26,14,38,18
2,16,14,-8,-7,15,0,20,26,14,-46,17
1,16,15,-8,-8,16,0,21,26,14,-88,16
-1,15,16,-7,-9,15,0,21,26,14,-104,15
-3,13,16,-5,-10,15,-2,21,26,13,-55,13
-4,13,16,-5,-11,15,-3,22,26,12,36,12
-3,14,17,-5,-11,15,-4,23,27,12,83,12
-2,15,17,-6,-11,16,-4,25,29,12,99,11
-2,15,17,-6,-11,16,-3,27,30,12,59,11
-1,16,17,-7,-10,16,-3,28,31,12,-35,10
0,17,16,-9,-9,16,-2,29,32,12,-96,10
1,18,16,-10,-8,17,-2,30,33,12,-125,11
1,18,16,-9,-8,17,-2,31,34,12,-105,11
0,17,17,-9,-9,17,-2,32,34,12,-17,10
1,18,17,-9,-8,17,-2,33,35,11,48,10
1,18,16,-10,-8,17,-2,33,35,11,75,10
1,18,16,-10,-8,17,-2,33,35,10,64,9
1,19,17,-10,-8,18,-2,33,35,10,-14,9
1,19,18,-10,-9,19,-1,34,36,11,-86,9
1,20,18,-10,-9,19,-1,34,36,11,-121,8
0,20,19,-10,-9,19,0,34,36,11,-125,8
0,20,19,-10,-9,19,0,35,36,11,-54,8
0,20,19,-11,-9,19,1,36,37,11,25,8
0,19,19,-10,-10,19,1,36,37,11,61,7
-1,18,19,-9,-11,18,2,36,37,10,70,7
0,19,19,-9,-11,19,2,36,37,10,13,6
1,21,19,-10,-10,20,3,36,37,10,-67,6
2,22,19,-11,-10,20,4,36,36,10,-106,6
1,22,20,-11,-10,21,4,36,36,10,-122,6
0,22,21,-11,-11,22,4,36,36,10,-72,7
0,22,22,-11,-11,22,5,36,36,10,20,7
0,23,22,-12,-11,23,5,35,35,10,71,8
0,23,22,-12,-11,23,5,35,35,10,93,8
1,24,22,-13,-11,23,5,34,35,10,61,8
2,24,22,-13,-10,23,5,33,33,9,-23,8
2,24,22,-13,-11,23,4,32,32,9,-76,8
1,24,22,-12,-12,23,4,31,31,8,-101,8
0,23,23,-11,-12,23,3,30,30,8,-80,8
-1,23,23,-11,-12,23,3,29,29,8,7,8
0,24,23,-12,-12,23,2,28,28,8,71,8
-1,23,23,-11,-12,23,1,27,27,7,99,8
-2,22,23,-10,-13,22,1,26,26,7,90,8
0,23,24,-11,-12,23,1,25,25,7,15,9
2,26,24,-14,-11,24,1,25,24,7,-52,11
3,27,23,-15,-11,25,1,23,22,7,-84,12
2,26,23,-14,-11,24,0,21,20,6,-86,12
2,26,23,-14,-11,24,0,20,19,6,-15,13
2,25,23,-13,-11,24,-1,19,18,5,63,13
0,24,23,-12,-11,23,-1,18,16,4,97,13
0,22,22,-11,-11,22,-1,17,15,4,105,13
1,22,22,-11,-11,21,-1,16,14,3,47,13
1,23,21,-12,-10,21,-2,14,12,3,-34,13
0,22,21,-11,-11,21,-2,13,11,2,-74,13
0,20,20,-10,-11,20,-3,11,9,1,-92,12
0,19,19,-10,-10,19,-3,10,7,1,-46,12
1,19,18,-10,-9,18,-3,9,5,0,41,12
1,18,17,-10,-8,18,-3,8,4,0,87,12
1,18,17,-10,-8,17,-3,8,3,0,106,11
2,18,16,-10,-8,17,-3,7,3,0,72,11
1,18,16,-10,-8,16,-3,6,2,0,-13,11
1,17,15,-9,-8,16,-3,5,1,0,-67,11
2,16,14,-9,-7,14,-3,5,0,0,-94,10
2,15,11,-8,-5,13,-4,4,-1,-1,-74,8
3,13,10,-8,-4,11,-4,4,-2,-2,11,7
2,12,9,-7,-4,10,-4,4,-2,-2,73,6
1,10,9,-6,-5,9,-4,3,-2,-2,99,5
0,9,9,-4,-5,8,-4,3,-2,-3,88,4
-1,8,9,-3,-5,7,-4,2,-3,-3,10,3
0,7,8,-3,-5,7,-4,2,-3,-3,-59,3
1,8,7,-5,-4,7,-4,2,-3,-2,-91,3
2,9,7,-6,-3,7,-3,2,-3,-2,-94,4
2,9,6,-6,-2,7,-3,2,-3,-2,-25,3
2,9,6,-6,-2,7,-3,2,-3,-1,51,3
2,8,6,-6,-2,7,-4,2,-3,-1,84,2
1,7,5,-4,-2,6,-4,1,-3,-1,92,2
1,6,5,-3,-2,5,-4,1,-3,-2,35,1
1,6,4,-3,-2,5,-4,0,-3,-2,-44,1
1,6,4,-3,-2,5,-4,0,-2,-1,-82,1
0,6,4,-3,-3,5,-4,0,-2,-1,-97,1
0,5,4,-3,-3,4,-4,0,-2,-1,-49,1
1,6,4,-4,-2,4,-3,0,-2,-1,36,1
2,6,4,-4,-1,4,-3,0,-2,-1,80,0
1,5,4,-4,-1,4,-3,0,-2,-1,98,0
1,5,3,-3,-1,3,-3,0,-3,-1,64,-1
1,4,2,-3,0,2,-3,-1,-4,-2,-19,-2
1,3,1,-2,0,1,-4,-2,-4,-2,-70,-3
1,2,1,-2,-1,1,-4,-2,-4,-2,-93,-3
1,2,2,-2,-1,2,-4,-2,-4,-2,-69,-4
0,2,2,-1,-1,2,-4,-3,-4,-3,20,-4
0,2,3,-1,-2,2,-4,-3,-5,-3,87,-5
0,3,3,-2,-1,2,-4,-4,-5,-3,118,-6
1,4,3,-3,-1,2,-4,-4,-5,-3,113,-6
2,5,3,-4,-1,3,-3,-4,-5,-2,40,-5
3,6,4,-5,-1,4,-3,-4,-5,-2,-25,-5
2,6,4,-4,-1,4,-3,-4,-5,-2,-57,-5
1,5,4,-3,-2,3,-3,-4,-5,-2,-61,-6
0,4,4,-2,-2,3,-3,-4,-5,-2,9,-6
-1,3,4,-1,-2,3,-3,-3,-5,-2,86,-6
-2,2,4,0,-3,3,-3,-3,-5,-2,119,-6
-2,1,3,0,-3,2,-3,-3,-5,-2,125,-7
0,1,2,0,-2,1,-3,-3,-5,-2,67,-7
1,3,2,-1,-1,2,-2,-2,-5,-2,-11,-8
1,4,2,-2,-1,3,-1,-2,-5,-1,-47,-8
1,4,3,-2,-1,3,0,-2,-5,-2,-62,-9
0,4,3,-2,-1,3,0,-2,-5,-2,-13,-10
0,4,4,-2,-2,3,0,-1,-5,-2,75,-11
0,4,4,-2,-2,4,0,-1,-5,-2,121,-12
-1,4,5,-1,-3,4,0,-1,-4,-2,139,-12
0,5,5,-2,-2,4,-1,-1,-4,-1,104,-13
0,6,5,-3,-2,5,-1,0,-4,-1,19,-13
1,7,6,-3,-3,6,0,0,-3,0,-33,-12
1,8,6,-4,-3,7,0,1,-2,1,-61,-11
2,9,6,-5,-2,7,0,2,-2,1,-44,-11
2,8,6,-5,-2,7,0,2,-1,2,35,-11
1,7,6,-5,-2,6,0,2,-1,2,91,-11
0,6,5,-4,-2,5,0,2,-1,1,112,-11
-1,4,5,-2,-3,4,0,3,-1,1,98,-12
-2,3,6,-1,-4,4,0,4,-1,1,20,-12
-3,3,6,0,-4,4,0,4,-1,1,-46,-13
-3,3,6,0,-4,4,0,5,-1,2,-78,-13
-3,2,5,0,-4,3,0,5,-1,2,-81,-14
-2,2,5,0,-3,3,1,6,-1,2,-14,-14
-1,2,4,0,-3,3,2,7,-1,3,59,-14
0,3,4,-1,-2,3,3,7,0,3,90,-14
0,3,3,-1,-2,3,4,7,0,3,96,-14
0,3,3,-1,-2,3,4,7,0,3,37,-13
-1,2,3,-1,-2,2,5,6,0,3,-41,-13
-2,1,3,0,-3,2,5,6,0,3,-81,-12
-3,0,3,1,-3,1,4,5,0,3,-99,-12
-2,0,2,1,-2,0,4,3,0,3,-55,-11
-1,0,1,1,-1,0,4,2,0,3,27,-9
-2,0,1,1,-2,0,4,0,1,4,68,-8
-2,0,2,2,-2,0,4,0,1,4,83,-7
-3,0,2,2,-2,0,4,-1,1,5,47,-6
-3,0,3,2,-3,1,4,-2,2,5,-36,-4
-3,0,3,2,-2,1,4,-3,2,6,-86,-3
-3,-1,2,2,-2,0,3,-5,2,6,-110,-3
-4,-2,1,3,-2,-1,2,-7,2,5,-91,-2
-5,-3,1,4,-3,-1,1,-9,2,5,-10,-2
-4,-3,1,3,-3,-1,1,-10,2,5,47,-1
-3,-3,0,2,-1,-2,1,-12,2,4,70,-1
-3,-3,0,3,-1,-3,0,-14,1,4,59,0
-4,-4,0,4,-1,-3,0,-15,1,4,-15,0
-3,-4,-1,3,-1,-3,0,-16,0,4,-78,0
-2,-2,-1,2,-1,-2,0,-17,0,5,-106,1
-1,-2,-1,2,0,-2,0,-18,0,5,-107,2
0,-1,-1,1,0,-2,0,-19,0,5,-39,2
1,0,-1,0,1,-1,0,-20,1,5,34,2
2,1,0,-1,1,0,1,-20,1,6,65,3
2,1,0,-1,1,0,2,-21,2,6,72,4
0,0,0,0,1,0,2,-23,1,6,16,3
-1,-1,0,1,0,0,1,-24,0,6,-60,3
-1,0,0,1,0,0,1,-24,0,6,-96,2
-1,0,0,1,-1,0,1,-25,0,5,-111,1
-2,-2,0,2,-2,-1,1,-25,-1,4,-67,0
-3,-3,0,3,-3,-1,0,-26,-2,4,15,0
-4,-3,1,4,-3,-1,0,-27,-3,3,58,-1
-3,-3,1,3,-3,-1,0,-27,-3,3,78,-2
-2,-1,1,2,-2,-1,0,-28,-3,3,49,-3
-1,0,1,0,-1,0,0,-28,-3,3,-26,-4
-1,0,1,0,0,0,-1,-29,-3,3,-70,-5
-1,1,1,0,-1,1,-2,-29,-4,2,-91,-6
0,2,1,-1,-1,1,-2,-30,-4,2,-69,-6
0,2,2,-1,-1,2,-3,-30,-3,2,12,-7
-1,2,3,-1,-2,2,-3,-31,-3,1,68,-7
-1,2,3,0,-3,2,-3,-32,-4,0,90,-8
-1,2,3,0,-2,2,-3,-33,-4,0,78,-8
-1,2,3,0,-2,2,-3,-33,-4,0,4,-9
-2,2,4,0,-3,2,-3,-33,-4,0,-60,-9
-3,1,4,0,-3,2,-3,-34,-5,-1,-90,-9
-2,1,3,0,-2,2,-3,-34,-5,-1,-94,-9
0,1,1,0,-1,1,-3,-34,-5,-2,-28,-9
0,2,1,-1,0,1,-2,-34,-5,-2,44,-9
1,2,1,-2,0,1,-1,-35,-6,-2,75,-10
1,1,0,-1,0,1,-1,-35,-6,-3,84,-10
0,1,0,-1,0,0,-1,-36,-7,-4,33,-10
0,1,0,-1,0,0,-1,-36,-7,-4,-35,-10
0,1,1,-1,0,1,-1,-36,-7,-4,-64,-10
1,2,1,-2,0,1,-1,-36,-7,-4,-74,-10
1,2,0,-2,0,1,-2,-36,-8,-5,-24,-9
1,2,0,-1,0,1,-3,-37,-9,-6,59,-9
2,2,0,-2,0,0,-3,-38,-9,-6,101,-9
2,2,0,-3,1,1,-3,-38,-9,-6,118,-8
3,3,1,-3,1,1,-3,-37,-9,-6,85,-7
3,3,1,-3,1,2,-3,-36,-9,-6,5,-6
2,3,1,-3,0,2,-3,-35,-9,-6,-42,-6
1,2,1,-2,0,1,-3,-35,-10,-6,-66,-6
1,2,1,-1,0,1,-3,-34,-10,-6,-48,-6
0,1,1,-1,0,1,-4,-33,-10,-6,29,-6
0,1,0,-1,0,0,-4,-33,-11,-6,81,-6
1,0,0,-1,0,0,-4,-32,-11,-7,97,-6
1,0,0,-1,0,0,-4,-31,-10,-6,80,-5
1,0,0,-1,0,0,-3,-29,-10,-6,3,-5
1,0,-1,-1,0,0,-3,-28,-10,-6,-61,-5
0,-1,-2,0,1,-1,-3,-27,-10,-6,-90,-6
0,-1,-2,0,1,-2,-2,-26,-10,-6,-93,-6
1,0,-2,-1,1,-1,-1,-25,-10,-6,-27,-5
2,0,-2,-2,2,-1,-1,-24,-10,-6,43,-5
3,0,-2,-2,2,-1,0,-23,-10,-6,71,-5
3,0,-2,-2,2,-1,0,-22,-10,-7,77,-5
2,0,-3,-1,2,-1,0,-22,-10,-7,22,-5
2,-1,-3,-1,2,-1,0,-21,-9,-6,-51,-5
1,-1,-3,0,2,-2,0,-21,-9,-6,-86,-5
0,-2,-3,1,1,-2,0,-21,-10,-7,-101,-5
-1,-3,-3,2,1,-3,0,-21,-10,-7,-57,-5
-1,-3,-3,2,1,-3,0,-21,-10,-7,23,-5
-1,-3,-3,2,1,-3,0,-21,-10,-7,61,-5
-1,-4,-3,2,1,-4,0,-20,-10,-7,77,-5
0,-3,-3,1,1,-4,1,-20,-9,-6,45,-5
1,-2,-3,0,1,-3,1,-20,-9,-6,-32,-4
2,0,-3,-1,2,-2,1,-19,-8,-6,-76,-4
3,0,-4,-2,3,-2,2,-19,-8,-6,-97,-3
3,0,-4,-2,3,-2,2,-19,-8,-6,-77,-3
3,0,-4,-2,3,-2,2,-19,-8,-6,2,-3
3,0,-3,-1,3,-2,2,-19,-7,-6,56,-3
2,0,-3,0,2,-2,2,-19,-7,-6,77,-3
2,-1,-3,0,2,-2,2,-19,-7,-6,66,-2
3,0,-3,-1,3,-2,2,-19,-7,-6,-5,-2
4,0,-4,-2,4,-2,2,-19,-7,-6,-65,-2
4,0,-4,-2,4,-2,3,-20,-7,-6,-91,-2
4,0,-3,-2,3,-1,4,-20,-6,-5,-91,-1
3,1,-2,-2,3,0,4,-20,-6,-4,-24,0
2,1,-2,-2,2,0,5,-20,-5,-4,46,0
2,1,-2,-2,2,0,5,-19,-5,-3,74,0
3,1,-2,-2,2,0,5,-19,-4,-3,80,0
4,1,-2,-2,3,0,5,-18,-3,-3,25,0
5,2,-3,-3,3,0,5,-18,-3,-3,-47,0
5,1,-3,-3,3,-1,4,-18,-3,-3,-82,0
3,0,-3,-1,3,-2,3,-18,-3,-2,-99,0
3,0,-3,-1,3,-2,3,-18,-2,-1,-56,0
5,1,-4,-3,4,-1,3,-18,-1,-1,23,0
6,3,-4,-5,5,-1,3,-18,-1,0,63,0
6,2,-4,-4,5,-1,2,-18,-1,-1,80,0
6,1,-5,-3,5,-2,1,-18,-2,-2,49,0
5,0,-5,-2,4,-2,0,-19,-3,-2,-28,-1
4,-1,-5,-2,4,-3,0,-20,-4,-3,-73,-1
5,-1,-5,-2,5,-3,-1,-20,-4,-3,-92,-1
5,0,-6,-3,6,-3,-2,-20,-5,-3,-71,-1
6,0,-7,-3,6,-3,-3,-21,-5,-3,9,-1
6,0,-7,-3,6,-3,-4,-21,-6,-3,64,-1
6,0,-7,-4,7,-3,-4,-21,-6,-3,86,-1
7,0,-7,-4,7,-3,-4,-21,-7,-3,77,-1
8,0,-7,-4,7,-3,-4,-21,-7,-4,7,-1
8,0,-7,-4,7,-3,-5,-21,-8,-4,-50,-1
7,0,-7,-3,7,-3,-5,-21,-8,-4,-76,0
7,-1,-7,-3,7,-4,-5,-21,-9,-4,-78,0
7,0,-7,-3,7,-4,-5,-21,-9,-4,-13,0
8,0,-8,-4,8,-4,-5,-21,-9,-4,57,0
8,0,-8,-4,8,-4,-5,-22,-9,-4,86,0
7,-1,-8,-3,8,-5,-5,-22,-10,-5,93,0
6,-2,-8,-2,7,-6,-4,-22,-10,-5,41,0
6,-2,-8,-2,7,-5,-5,-22,-11,-5,-26,0
7,-1,-8,-3,7,-5,-5,-22,-11,-5,-55,0
8,0,-9,-4,8,-4,-5,-23,-12,-5,-66,0
9,1,-9,-5,9,-4,-5,-23,-12,-6,-20,-1
11,2,-10,-6,9,-4,-5,-24,-13,-6,61,-1
11,2,-10,-6,10,-4,-5,-24,-13,-6,100,-2
10,1,-9,-5,9,-4,-5,-24,-14,-6,117,-2
10,1,-9,-5,9,-4,-5,-24,-14,-6,86,-2
9,1,-8,-5,8,-3,-4,-24,-13,-6,12,-2
8,1,-7,-4,7,-3,-3,-23,-13,-6,-29,-2
7,1,-5,-4,6,-2,-3,-23,-13,-6,-48,-2
5,1,-4,-3,5,-2,-2,-22,-13,-5,-27,-3
4,1,-3,-3,4,-2,-2,-22,-12,-5,50,-3
4,1,-3,-3,4,-2,-2,-22,-12,-5,101,-4
5,1,-4,-3,5,-2,-2,-22,-12,-6,120,-5
6,1,-5,-3,6,-2,-1,-22,-12,-6,108,-6
6,1,-5,-3,6,-2,-1,-22,-12,-6,36,-7
6,0,-5,-3,5,-2,-2,-22,-13,-6,-23,-8
6,0,-6,-3,6,-3,-2,-22,-13,-7,-49,-8
7,0,-6,-4,6,-3,-1,-22,-13,-7,-51,-9
6,0,-6,-4,5,-3,-1,-22,-13,-7,13,-9
5,0,-5,-3,4,-3,-1,-21,-13,-7,79,-10
3,0,-3,-2,3,-2,0,-21,-12,-7,104,-11
2,0,-2,-2,2,-1,0,-20,-12,-7,107,-11
1,0,-1,-1,1,-1,0,-20,-12,-7,52,-13
1,0,-1,-1,1,0,0,-20,-12,-7,-19,-15
2,1,-1,-2,1,0,0,-20,-12,-7,-51,-17
2,1,-1,-2,1,0,0,-20,-12,-8,-65,-18
4,2,-2,-3,2,0,0,-20,-13,-8,-22,-20
5,3,-2,-5,3,0,0,-20,-12,-8,54,-21
6,4,-2,-6,4,1,0,-19,-12,-8,92,-22
6,4,-1,-5,3,1,0,-19,-12,-9,108,-23
5,3,-1,-5,3,1,0,-19,-12,-9,77,-24
5,4,0,-5,3,1,0,-19,-12,-9,2,-25
5,5,0,-6,3,3,1,-18,-11,-8,-39,-25
5,6,0,-6,2,3,2,-18,-10,-8,-59,-26
4,5,0,-5,1,3,2,-18,-9,-8,-38,-27
3,4,0,-4,1,2,2,-18,-9,-8,39,-28
4,4,0,-5,1,2,2,-17,-9,-8,91,-28
4,4,0,-5,2,2,3,-16,-9,-8,110,-29
4,4,0,-4,2,1,2,-16,-9,-8,99,-30
4,3,0,-4,2,1,2,-17,-9,-8,29,-30
5,4,-1,-4,2,1,2,-17,-9,-7,-28,-30
6,5,-1,-5,3,1,2,-17,-8,-7,-52,-30
7,6,-1,-6,3,2,2,-17,-7,-7,-53,-30
6,5,-1,-6,3,1,1,-17,-7,-7,9,-29
5,4,-1,-5,3,0,0,-17,-8,-8,74,-29
4,3,-1,-4,3,0,0,-17,-8,-8,98,-28
4,3,-1,-4,3,0,0,-17,-8,-8,103,-27
4,3,-2,-4,3,0,0,-16,-8,-8,49,-26
4,3,-2,-4,3,0,0,-16,-8,-8,-20,-25
4,3,-2,-4,3,0,0,-16,-8,-8,-51,-25
4,2,-2,-3,3,0,0,-15,-8,-8,-64,-25
4,2,-2,-3,3,0,0,-15,-8,-8,-20,-25
5,2,-3,-4,4,-1,-1,-15,-9,-9,55,-25
6,2,-4,-5,5,-1,-1,-16,-10,-9,90,-25
6,3,-3,-5,5,0,0,-16,-11,-10,104,-25
5,3,-2,-4,3,0,0,-17,-10,-10,72,-25
2,3,1,-3,0,2,1,-19,-9,-9,-1,-24
0,4,4,-2,-2,4,1,-22,-8,-8,-42,-24
-2,6,7,-2,-5,6,1,-24,-6,-7,-60,-23
-2,8,10,-3,-7,9,1,-26,-3,-4,-37,-21
-1,12,13,-5,-7,12,1,-27,-1,-1,42,-17
0,16,15,-8,-8,15,0,-30,-3,2,96,-12
2,19,17,-10,-8,18,-3,-36,-10,3,120,-6
3,23,19,-13,-8,21,-7,-45,-21,4,113,0
7,26,19,-17,-6,23,-12,-53,-32,4,49,7
13,30,17,-22,-3,24,-18,-60,-44,5,-1,14
20,34,14,-27,2,24,-24,-66,-57,4,-19,22
26,38,13,-32,6,25,-30,-74,-74,2,-13,30
30,40,11,-35,9,26,-36,-84,-95,-3,54,37
33,42,10,-37,12,25,-42,-95,-119,-11,122,44
37,45,9,-41,14,26,-47,-108,-143,-19,148,50
39,48,9,-44,16,28,-51,-121,-165,-28,153,55
40,50,9,-46,16,29,-53,-132,-184,-39,97,56
39,47,7,-44,16,27,-54,-138,-198,-51,21,52
34,38,4,-37,15,21,-52,-140,-206,-63,-21,42
28,28,0,-28,14,14,-50,-140,-210,-74,-47,30
20,19,0,-20,11,9,-47,-138,-210,-82,-17,19
9,10,2,-10,4,6,-41,-135,-205,-89,44,5
-2,3,6,0,-3,4,-34,-129,-196,-93,66,-9
-10,-2,7,6,-8,2,-25,-119,-183,-94,70,-21
-15,-6,7,10,-11,1,-17,-109,-171,-94,32,-30
-19,-10,7,13,-13,-1,-11,-100,-159,-93,-44,-36
-22,-15,7,17,-14,-4,-7,-92,-149,-93,-87,-42
-24,-19,6,21,-15,-7,-5,-85,-139,-91,-107,-46
-26,-22,5,24,-15,-9,-3,-79,-130,-89,-86,-49
-28,-23,5,25,-16,-9,-1,-73,-120,-84,-8,-50
-28,-22,6,25,-17,-8,0,-67,-109,-79,44,-49
-28,-20,7,24,-17,-6,2,-61,-98,-72,66,-48
-27,-18,8,22,-17,-5,3,-55,-86,-66,59,-46
-25,-16,8,19,-16,-4,4,-48,-74,-59,-5,-45
-22,-13,8,17,-15,-3,4,-41,-62,-53,-58,-43
-19,-10,9,14,-14,-1,5,-34,-50,-46,-79,-40
-16,-7,10,11,-13,0,6,-27,-40,-39,-75,-38
-13,-4,10,9,-12,2,7,-22,-31,-32,-7,-35
-12,-2,10,7,-11,3,8,-17,-23,-26,60,-33
-11,-1,10,6,-10,4,10,-13,-16,-21,87,-30
-9,0,8,4,-8,4,11,-9,-10,-18,88,-27
-6,0,6,2,-6,4,12,-6,-5,-15,24,-25
-3,2,5,0,-4,3,13,-3,-1,-13,-51,-23
-1,3,5,-1,-3,4,13,-1,0,-11,-80,-21
-1,4,6,-1,-4,4,14,1,2,-9,-88,-19
-3,3,7,0,-5,5,14,2,3,-7,-41,-18
-4,3,8,1,-6,5,14,4,5,-5,39,-16
-5,3,8,1,-7,5,14,5,7,-2,80,-15
-5,3,8,1,-7,6,14,7,8,-1,97,-14
-6,3,8,1,-7,6,14,8,10,0,67,-13
-6,2,8,1,-7,5,14,9,11,0,-5,-12
-5,2,7,1,-6,5,14,10,11,1,-43,-12
-4,2,7,1,-5,4,14,10,11,1,-61,-12
-3,2,6,0,-4,4,14,10,11,2,-41,-12
-3,3,6,0,-4,4,14,11,12,3,36,-12
-3,3,6,0,-4,5,15,12,13,4,89,-12
-3,4,6,0,-4,5,15,12,14,5,111,-13
-3,3,6,0,-4,5,14,12,15,6,103,-14
-4,3,6,0,-5,4,13,12,15,6,36,-15
-4,3,6,0,-5,4,13,12,15,6,-17,-15
-4,3,7,0,-6,5,12,12,15,6,-37,-15
-5,3,8,0,-6,6,13,12,16,7,-32,-15
-5,4,9,0,-7,6,13,13,16,8,34,-14
-4,3,8,0,-6,6,13,13,17,8,99,-13
-3,3,6,0,-5,5,13,13,17,9,121,-13
-2,3,5,-1,-4,4,12,12,18,9,122,-13
-2,3,5,0,-4,4,12,12,18,9,65,-13
-3,2,6,0,-5,4,12,12,18,9,-7,-13
-3,2,6,0,-5,4,12,12,18,9,-41,-13
-3,3,7,-1,-5,4,12,12,18,9,-54,-13
-2,4,7,-1,-5,5,12,11,18,9,-11,-13
-1,5,7,-1,-5,5,12,11,19,9,62,-14
-2,4,6,-1,-5,5,11,10,19,9,96,-14
-2,4,6,0,-4,5,11,10,19,9,109,-14
-2,4,6,-1,-4,5,12,11,20,10,78,-14
-2,4,6,-1,-4,5,12,11,21,10,7,-13
-2,4,6,-1,-4,5,12,11,21,10,-30,-13
-2,4,6,-1,-4,5,12,11,21,10,-46,-12
-2,4,6,0,-5,5,12,11,21,10,-24,-12
-3,3,6,0,-5,5,13,12,22,10,52,-12
-2,3,6,0,-5,5,13,12,23,11,101,-12
-3,3,6,0,-5,5,13,12,24,11,120,-11
-3,3,6,0,-5,5,14,12,25,12,108,-11
-3,3,6,0,-5,5,14,13,25,13,40,-11
-1,4,6,-1,-4,5,14,13,26,13,-14,-11
0,5,5,-2,-3,5,14,14,26,14,-38,-11
-1,4,6,-1,-4,5,14,14,27,14,-38,-10
-3,3,7,0,-5,5,13,15,27,15,25,-10
-5,3,8,1,-6,5,13,15,27,15,89,-9
-6,3,8,1,-7,6,13,16,27,16,111,-9
-5,3,8,1,-7,6,13,16,28,16,113,-9
-4,3,7,0,-6,6,13,17,28,16,59,-9
-2,4,7,-1,-5,6,12,18,29,16,-8,-9
-1,5,7,-2,-5,6,12,19,30,16,-36,-9
-1,5,7,-2,-5,6,12,19,30,16,-47,-10
-2,5,7,-1,-5,6,12,18,31,16,-2,-11
-2,6,8,-2,-6,7,13,18,31,17,74,-12
-3,6,9,-1,-6,7,13,18,31,17,110,-13
-5,4,9,0,-8,7,13,18,31,17,123,-15
-6,4,10,1,-9,7,13,18,31,17,89,-16
-6,5,12,0,-9,8,14,19,31,17,15,-16
-5,7,12,0,-9,9,15,19,32,18,-23,-16
-5,8,13,-1,-9,10,16,19,32,18,-40,-16
-5,8,13,-1,-10,10,17,20,33,18,-19,-17
-6,8,13,-1,-10,10,17,20,33,18,55,-17
-6,8,13,-1,-10,10,17,20,33,18,103,-18
-5,9,13,-1,-10,11,18,21,34,19,120,-17
-5,9,13,-2,-9,11,18,22,35,19,108,-17
-4,9,13,-2,-9,11,18,22,35,19,39,-18
-4,10,13,-2,-9,12,18,23,35,18,-14,-18
-3,10,13,-3,-8,12,18,23,35,18,-36,-19
-2,11,13,-4,-8,12,18,23,35,18,-34,-19
-1,12,13,-5,-8,13,18,24,36,18,28,-19
-1,13,14,-6,-8,14,18,25,36,18,92,-19
0,15,15,-7,-7,14,18,26,37,18,115,-19
0,15,15,-8,-7,15,18,26,37,17,118,-20
0,15,15,-8,-8,15,17,26,37,17,65,-20
-1,15,16,-7,-9,15,17,26,37,16,-1,-21
-2,15,17,-6,-10,15,16,25,37,16,-30,-22
-3,15,17,-6,-10,16,16,25,37,15,-41,-23
-1,16,17,-7,-10,17,16,25,38,15,2,-23
1,18,17,-10,-9,18,16,26,38,16,75,-22
2,20,18,-11,-8,19,16,26,38,16,108,-23
2,20,18,-11,-9,19,16,26,38,15,120,-23
2,21,19,-12,-9,20,16,26,38,15,87,-24
3,23,20,-14,-8,21,17,27,38,15,16,-24
4,25,20,-14,-8,22,17,27,38,15,-21,-24
4,25,20,-14,-8,23,17,27,38,15,-38,-24
4,25,20,-14,-8,23,17,26,37,15,-17,-25
3,24,21,-14,-9,23,17,26,36,14,57,-25
3,24,22,-14,-9,23,16,25,35,14,105,-26
2,24,22,-13,-10,23,16,24,34,13,122,-26
2,24,22,-13,-10,23,15,23,33,13,110,-26
2,24,22,-13,-10,23,15,22,32,12,44,-26
2,24,22,-14,-9,23,14,22,30,12,-7,-26
4,24,21,-14,-8,22,13,22,29,11,-29,-26
5,24,20,-15,-8,22,13,21,28,11,-29,-25
4,25,20,-15,-8,23,12,21,27,10,33,-25
4,25,21,-15,-8,23,11,19,25,10,96,-25
4,27,21,-16,-8,24,11,18,24,9,120,-25
5,28,22,-17,-8,25,11,18,23,9,124,-24
5,28,23,-17,-9,25,11,17,21,8,73,-24
5,29,24,-17,-9,26,10,17,20,8,8,-24
5,29,24,-17,-9,27,10,16,18,7,-19,-24
5,30,24,-18,-9,27,9,14,17,7,-30,-24
5,30,24,-18,-9,27,8,13,15,6,10,-23
5,29,24,-18,-9,27,7,11,13,5,81,-23
5,29,24,-17,-9,26,7,9,11,4,111,-23
5,29,24,-17,-9,26,6,8,10,4,122,-22
5,29,24,-17,-9,26,6,7,8,3,88,-21
5,29,24,-17,-9,26,6,6,7,3,16,-21
6,29,24,-18,-9,26,6,5,5,3,-22,-20
7,29,23,-18,-8,26,6,4,3,3,-40,-19
6,28,22,-17,-8,25,6,3,1,3,-21,-19
4,26,21,-15,-9,24,5,1,0,2,50,-19
3,25,21,-14,-9,23,5,-1,-2,1,94,-19
3,25,21,-15,-9,23,6,-2,-4,1,110,-18
4,25,21,-15,-8,23,6,-3,-4,2,98,-17
4,25,21,-15,-8,22,6,-4,-6,2,32,-17
4,24,20,-14,-8,22,5,-5,-7,2,-16,-17
4,24,20,-14,-8,22,5,-6,-9,1,-32,-17
3,23,20,-13,-8,22,4,-7,-11,1,-25,-17
3,23,20,-13,-9,22,4,-8,-12,1,39,-17
3,23,20,-13,-9,21,3,-9,-13,0,102,-17
4,23,20,-14,-8,21,3,-10,-14,0,124,-17
5,24,19,-15,-7,21,3,-10,-14,0,124,-17
6,23,17,-15,-6,20,2,-10,-15,1,68,-17
6,22,16,-14,-5,19,2,-10,-15,1,-1,-17
5,20,15,-13,-5,18,1,-10,-15,1,-33,-17
4,19,15,-11,-6,17,1,-10,-15,2,-49,-17
3,18,14,-10,-6,16,1,-9,-15,3,-13,-17
3,17,14,-10,-5,16,2,-8,-15,4,49,-16
3,17,13,-10,-5,15,2,-7,-15,4,74,-16
3,16,12,-10,-5,14,2,-6,-15,5,85,-16
2,15,12,-9,-5,13,2,-5,-15,5,54,-16
1,13,11,-8,-5,12,2,-5,-15,5,-15,-16
0,12,11,-7,-5,11,2,-4,-15,5,-51,-16
0,11,10,-6,-4,11,2,-4,-15,5,-64,-16
1,11,10,-7,-4,11,2,-4,-15,6,-37,-16
2,13,10,-8,-3,11,2,-3,-16,6,45,-17
3,14,10,-9,-3,12,2,-2,-16,6,101,-17
3,15,11,-9,-4,12,2,-2,-17,6,127,-17
3,16,12,-10,-4,13,2,-1,-17,7,124,-17
2,16,13,-9,-5,14,2,-1,-18,7,64,-17
1,14,13,-8,-6,13,2,-1,-19,6,16,-18
0,13,12,-7,-6,13,2,-1,-19,6,-2,-19
0,12,11,-7,-5,12,2,-1,-20,5,2,-18
0,12,11,-7,-5,11,2,-1,-20,5,66,-17
0,12,11,-6,-5,11,1,-1,-20,5,129,-16
-1,11,12,-5,-6,11,1,-1,-20,5,152,-15
-2,10,12,-5,-7,11,0,-1,-20,5,155,-15
-1,10,11,-5,-7,11,0,-1,-20,5,103,-14
0,11,11,-6,-6,11,1,0,-19,5,39,-13
1,11,10,-7,-5,11,1,0,-19,5,10,-12
1,11,10,-7,-4,11,1,0,-18,5,-3,-11
0,11,11,-6,-5,11,1,1,-18,5,36,-11
0,10,11,-5,-5,11,1,1,-18,5,105,-11
0,10,9,-6,-4,10,1,1,-19,5,133,-12
1,10,9,-6,-4,10,1,1,-19,5,142,-12
0,10,9,-6,-4,9,2,2,-19,5,109,-12
0,10,9,-6,-4,9,2,2,-20,5,36,-13
1,10,9,-6,-4,9,2,3,-20,5,-4,-13
1,11,10,-6,-4,10,3,4,-19,5,-26,-13
1,11,9,-6,-4,10,3,4,-19,5,-12,-13
1,10,9,-6,-4,9,4,4,-18,5,51,-14
0,9,8,-5,-3,8,3,4,-19,4,89,-15
0,6,6,-4,-3,6,3,3,-19,3,100,-16
0,5,5,-3,-3,5,3,3,-20,3,87,-16
0,5,5,-3,-3,5,3,4,-20,3,23,-15
1,6,5,-4,-2,5,4,4,-19,3,-25,-14
2,8,5,-5,-1,6,4,4,-19,3,-44,-13
3,8,4,-5,-1,6,4,3,-18,3,-42,-13
1,6,5,-4,-1,5,3,3,-18,3,17,-13
0,5,5,-2,-3,5,3,3,-18,3,75,-13
-1,4,6,-2,-4,5,3,3,-18,3,94,-12
-2,4,6,-1,-4,5,3,3,-17,3,94,-12
-1,4,5,-1,-3,4,3,3,-17,2,41,-12
-1,4,5,-1,-3,4,2,3,-16,2,-23,-12
-1,4,5,-1,-3,4,2,3,-16,1,-51,-12
0,4,5,-2,-3,4,3,3,-15,1,-63,-12
0,4,4,-2,-2,4,3,3,-14,1,-22,-12
0,4,4,-2,-1,4,3,3,-14,1,44,-13
1,4,3,-3,-1,3,4,4,-13,1,71,-13
1,4,2,-3,0,3,4,4,-13,1,79,-14
1,3,1,-2,0,2,5,4,-12,1,46,-14
2,2,0,-2,0,1,5,4,-12,2,-23,-14
2,2,0,-2,0,1,6,4,-11,2,-59,-14
1,1,1,-1,0,1,6,4,-10,2,-75,-13
0,1,1,0,-1,1,6,4,-9,2,-54,-13
0,0,1,0,-1,1,6,4,-9,2,15,-13
-1,0,1,1,-1,0,6,4,-9,2,57,-14
-1,0,0,1,0,-1,5,4,-10,2,70,-15
0,0,0,0,0,-1,4,4,-10,2,56,-16
0,0,0,0,0,-1,4,5,-10,3,-7,-16
1,1,-1,-1,0,0,3,5,-9,3,-55,-16
1,0,-1,-1,1,-1,2,5,-9,3,-74,-16
0,0,0,0,0,-1,2,5,-9,3,-71,-16
0,0,0,0,0,-1,2,5,-9,3,-11,-16
1,0,-1,-1,1,-1,2,5,-9,3,46,-15
1,1,-1,-1,1,-1,2,5,-9,3,65,-14
1,0,-1,-1,2,-1,2,5,-9,3,66,-14
1,0,-1,-1,2,-1,2,5,-9,2,15,-14
1,0,-1,-1,1,-1,2,5,-10,2,-46,-14
1,0,-1,-1,1,-1,2,5,-10,1,-70,-14
0,0,-1,0,0,-1,2,5,-10,1,-79,-14
1,0,-1,-1,1,0,2,5,-10,2,-37,-14
1,1,-1,-1,1,-1,2,5,-10,2,30,-14
1,0,-1,-1,1,-1,2,5,-11,2,57,-14
0,0,-1,0,1,-2,2,5,-11,1,66,-15
1,0,-1,0,1,-2,3,5,-12,1,33,-15
1,0,-1,0,1,-1,3,5,-12,1,-33,-15
0,-1,-1,0,0,-1,3,5,-12,1,-67,-16
-1,-2,-1,1,0,-2,4,5,-12,1,-81,-17
-1,-3,-1,2,0,-3,4,4,-12,1,-59,-18
-1,-3,-2,2,0,-3,5,4,-12,1,10,-19
-1,-2,-2,1,1,-3,5,4,-12,2,52,-19
0,-1,-1,0,0,-2,6,4,-11,2,66,-19
0,0,0,-1,0,0,6,4,-11,3,54,-19
0,1,0,-1,0,0,7,4,-11,3,-9,-20
1,1,0,-1,0,0,7,4,-12,3,-55,-20
1,1,0,-1,0,0,7,4,-12,2,-71,-20
1,1,0,-1,0,0,7,4,-12,3,-66,-20
0,1,2,-1,-1,1,7,4,-12,3,-5,-20
-1,2,3,-1,-2,1,7,5,-12,4,52,-19
-2,1,4,0,-3,1,7,5,-12,4,71,-19
-3,0,3,0,-3,1,7,5,-12,3,72,-19
-3,0,3,1,-3,1,8,5,-12,4,23,-17
-3,0,2,1,-3,1,8,6,-11,4,-34,-16
-3,-1,2,1,-2,0,7,6,-12,4,-55,-16
-3,-1,1,2,-2,0,7,5,-13,4,-62,-16
-2,-1,0,1,-1,0,7,5,-14,3,-20,-16
-1,0,0,0,0,0,7,4,-14,3,46,-17
-1,0,1,0,-1,0,7,5,-14,3,73,-17
0,2,2,-1,-1,1,8,5,-13,3,83,-16
0,3,2,-1,-1,2,9,5,-13,4,52,-16
0,2,2,-1,-1,2,9,5,-14,4,-13,-16
0,1,2,0,-1,1,9,4,-14,3,-45,-16
0,1,1,0,0,1,9,4,-15,3,-57,-16
1,2,1,-1,0,1,9,5,-15,3,-35,-16
2,3,1,-3,0,1,10,5,-14,4,34,-15
2,3,2,-3,0,2,11,5,-14,4,75,-14
1,3,2,-2,0,2,11,5,-14,4,89,-14
0,2,1,-2,0,1,11,5,-14,4,77,-14
1,2,1,-2,0,1,11,5,-15,4,16,-14
0,2,1,-1,0,1,11,6,-15,4,-27,-15
0,1,1,0,-1,0,11,6,-16,4,-41,-15
0,1,1,-1,0,0,11,6,-16,5,-35,-16
1,2,1,-2,0,0,11,6,-16,5,25,-16
2,2,0,-2,1,0,10,5,-16,4,81,-17
1,1,0,-1,0,0,10,4,-17,4,98,-18
0,0,0,-1,0,0,10,4,-17,4,98,-18
1,1,0,-1,1,0,10,4,-17,4,49,-17
1,0,0,-1,1,0,10,5,-17,4,-8,-17
1,0,-1,-1,1,-1,10,5,-17,4,-29,-17
1,0,-1,0,1,-1,9,6,-17,4,-37,-17
1,-1,-1,0,1,-2,9,6,-17,5,3,-18
1,-1,-1,0,1,-2,8,6,-17,5,67,-18
2,0,-2,-1,1,-2,8,6,-17,6,91,-17
2,0,-2,-1,1,-2,8,6,-17,6,98,-16
2,-1,-3,-1,2,-3,8,6,-17,7,67,-16
2,-2,-4,0,2,-3,8,6,-18,7,2,-16
2,-2,-4,0,3,-4,8,6,-17,7,-28,-15
2,-3,-4,0,3,-4,8,6,-17,7,-40,-15
