leadI,leadII,leadIII,leadaVR,leadaVL,leadaVF,leadV1,leadV2,leadV3,leadV4,leadV5,leadV6
3,4,1,-4,1,3,0,10,4,-4,1,0
10,13,3,-11,3,8,1,25,9,-11,4,-1
15,19,4,-17,5,12,1,33,12,-16,5,-2
18,23,5,-21,6,14,1,37,12,-19,5,-2
21,25,4,-23,8,15,1,38,11,-22,5,-3
22,27,4,-24,9,15,1,37,10,-24,5,-4
23,27,3,-24,9,15,1,35,8,-27,4,-5
21,24,2,-22,9,14,1,32,6,-29,2,-6
20,21,0,-20,9,11,0,29,2,-32,-1,-9
19,18,0,-18,10,9,0,25,-1,-35,-4,-11
17,17,0,-17,9,9,0,23,-3,-37,-5,-13
17,18,1,-17,8,9,1,21,-4,-38,-6,-14
17,18,1,-18,8,10,1,20,-6,-39,-7,-15
17,18,0,-17,8,9,1,18,-8,-40,-8,-16
16,17,0,-16,8,9,1,16,-10,-42,-9,-17
14,16,1,-15,7,9,2,14,-11,-43,-11,-18
13,14,0,-13,6,7,2,12,-13,-45,-13,-19
12,11,-1,-11,6,5,2,9,-15,-46,-15,-21
10,9,-2,-10,6,3,2,7,-16,-47,-16,-22
10,9,-1,-9,5,3,2,6,-17,-48,-17,-22
12,11,-1,-11,6,4,2,6,-18,-48,-17,-23
15,13,-1,-13,8,6,3,6,-18,-47,-18,-23
17,15,-1,-15,9,7,3,6,-18,-47,-18,-23
18,17,-1,-17,10,8,4,6,-18,-47,-19,-23
19,17,-2,-18,10,8,4,5,-18,-47,-19,-23
16,14,-2,-15,9,6,4,4,-19,-48,-21,-24
12,9,-2,-11,7,4,3,1,-20,-49,-23,-25
9,7,-2,-8,6,2,2,0,-21,-50,-25,-27
8,6,-1,-7,4,2,2,-1,-22,-50,-26,-27
9,8,-1,-9,5,3,2,-1,-22,-49,-25,-27
13,12,-2,-12,7,5,3,0,-21,-47,-24,-26
17,14,-2,-15,9,6,3,0,-20,-46,-23,-25
19,15,-3,-17,11,6,4,0,-20,-45,-22,-25
19,15,-4,-17,11,6,4,0,-20,-44,-23,-25
16,13,-3,-14,9,5,4,0,-21,-44,-23,-25
12,11,-1,-12,7,5,4,0,-20,-44,-22,-24
12,12,-1,-12,7,6,4,0,-20,-43,-21,-23
15,14,-1,-14,8,7,4,1,-19,-42,-20,-23
17,16,-2,-16,9,7,4,0,-20,-42,-20,-23
19,16,-3,-17,11,6,3,0,-20,-42,-20,-23
19,16,-3,-17,11,6,4,0,-20,-41,-19,-23
19,16,-2,-17,11,6,4,1,-19,-39,-18,-22
16,13,-2,-14,9,5,4,1,-19,-38,-18,-23
14,11,-2,-12,8,4,4,0,-19,-38,-18,-23
14,11,-3,-13,8,5,4,0,-19,-37,-17,-23
16,14,-3,-15,9,6,4,0,-18,-37,-17,-23
21,19,-2,-20,11,9,5,2,-17,-35,-15,-21
24,24,0,-24,11,12,7,4,-15,-32,-13,-19
25,25,0,-25,11,13,8,5,-14,-31,-12,-18
25,25,0,-25,12,12,8,5,-13,-29,-11,-18
24,24,-1,-23,12,11,8,4,-13,-28,-11,-17
22,21,0,-21,11,11,8,4,-13,-28,-11,-17
20,19,0,-19,10,10,7,3,-13,-27,-11,-18
19,17,0,-18,10,9,7,3,-13,-27,-11,-18
18,16,-1,-17,10,9,6,3,-14,-26,-12,-18
17,16,-1,-16,9,8,5,2,-14,-26,-12,-18
16,15,-1,-15,8,7,5,1,-15,-26,-13,-19
15,14,-1,-14,8,7,5,1,-15,-25,-14,-19
14,13,0,-13,7,6,5,1,-14,-24,-14,-19
13,13,0,-13,7,7,6,1,-13,-22,-14,-19
14,13,-1,-14,8,6,7,2,-12,-20,-14,-18
16,14,-2,-15,9,6,7,5,-10,-17,-13,-18
19,16,-2,-17,11,7,8,10,-6,-13,-10,-16
23,20,-2,-21,12,9,9,17,0,-6,-6,-14
25,24,-1,-24,13,11,11,26,8,2,0,-10
26,26,0,-26,12,14,12,36,18,11,6,-5
26,29,2,-28,12,16,13,47,29,22,13,0
27,31,4,-30,11,18,13,59,42,35,24,8
28,36,7,-33,11,22,14,72,56,50,36,18
31,42,10,-37,11,26,14,87,71,66,50,29
36,51,14,-44,11,33,15,99,85,82,65,42
42,61,18,-52,11,40,15,106,98,97,80,56
49,72,22,-60,13,47,15,106,108,111,96,70
55,82,27,-69,14,54,14,98,115,124,111,85
60,92,31,-76,14,62,13,81,116,132,124,99
63,99,36,-82,13,68,9,52,107,134,133,110
65,105,40,-86,13,73,4,16,91,128,136,117
68,111,42,-90,14,77,-3,-24,67,115,133,119
70,113,43,-92,14,78,-12,-71,34,93,122,116
69,112,43,-91,13,78,-22,-118,-2,66,106,108
65,109,43,-87,10,76,-30,-164,-40,34,83,94
59,103,43,-81,7,73,-36,-215,-86,-12,49,71
53,94,41,-73,5,68,-41,-270,-140,-71,3,39
44,82,38,-63,3,61,-44,-312,-189,-127,-43,4
35,67,33,-51,2,51,-47,-329,-219,-163,-77,-23
28,51,24,-39,3,38,-52,-328,-232,-181,-98,-43
23,36,14,-29,5,25,-56,-315,-234,-187,-110,-58
20,24,4,-22,8,14,-57,-292,-226,-183,-115,-67
20,16,-3,-18,11,6,-55,-262,-210,-172,-112,-71
20,10,-10,-15,14,0,-52,-230,-190,-156,-106,-70
20,5,-15,-13,16,-4,-47,-199,-168,-139,-97,-67
20,2,-18,-11,18,-8,-41,-168,-146,-121,-87,-63
19,0,-20,-10,20,-10,-33,-139,-123,-102,-77,-58
19,-1,-19,-9,20,-10,-24,-111,-102,-84,-65,-51
19,0,-17,-9,19,-8,-16,-87,-83,-67,-55,-45
19,2,-16,-10,18,-6,-9,-67,-67,-54,-46,-40
21,5,-15,-12,18,-5,-4,-53,-56,-45,-40,-36
21,5,-16,-13,18,-5,-1,-42,-49,-39,-36,-34
20,3,-17,-12,18,-7,0,-34,-43,-35,-34,-32
19,2,-17,-11,18,-7,2,-28,-39,-32,-32,-32
19,3,-16,-11,17,-6,4,-23,-35,-30,-31,-31
18,2,-14,-11,17,-5,5,-19,-32,-27,-29,-30
15,0,-14,-8,16,-7,6,-17,-30,-26,-28,-30
13,-2,-15,-5,15,-8,7,-15,-29,-25,-28,-31
14,-1,-14,-6,14,-7,7,-13,-27,-24,-27,-30
16,2,-14,-8,14,-5,8,-10,-25,-22,-26,-29
16,3,-13,-10,14,-4,9,-8,-24,-22,-25,-28
15,2,-13,-9,13,-5,9,-7,-22,-21,-26,-28
14,1,-13,-7,13,-6,9,-5,-21,-20,-26,-28
14,0,-14,-7,14,-6,10,-5,-19,-19,-27,-28
15,0,-14,-7,15,-7,11,-4,-18,-17,-27,-29
16,1,-14,-8,16,-6,11,-3,-17,-15,-26,-29
17,2,-14,-8,15,-5,11,-2,-16,-13,-26,-28
16,3,-13,-9,14,-5,11,0,-15,-11,-25,-28
16,4,-12,-9,13,-4,10,1,-14,-10,-25,-28
16,5,-12,-10,13,-3,10,2,-13,-8,-24,-27
16,5,-12,-11,14,-3,10,3,-12,-7,-24,-27
16,4,-12,-10,14,-3,10,4,-11,-6,-23,-26
16,4,-12,-10,15,-3,9,4,-10,-6,-23,-26
16,4,-12,-9,15,-4,8,5,-10,-5,-22,-25
18,5,-13,-10,16,-4,8,6,-9,-4,-21,-24
21,7,-14,-13,18,-3,7,8,-8,-3,-20,-23
23,10,-14,-16,19,-2,7,11,-6,-2,-19,-22
25,12,-14,-19,20,-1,8,14,-4,0,-17,-21
29,15,-15,-22,22,0,9,18,-1,2,-15,-19
31,16,-15,-24,23,1,9,21,1,4,-13,-18
32,16,-15,-25,24,1,9,24,3,6,-12,-17
33,17,-16,-25,25,1,9,26,5,8,-10,-16
32,16,-16,-25,25,0,10,29,7,10,-9,-15
31,15,-16,-23,24,0,10,32,9,12,-8,-14
29,14,-16,-22,23,0,11,36,11,13,-7,-13
28,14,-15,-21,22,0,11,39,13,14,-6,-13
27,14,-14,-20,21,0,12,43,16,16,-5,-12
27,14,-13,-20,20,1,14,48,20,20,-3,-10
27,15,-12,-21,20,2,15,53,24,24,0,-8
28,16,-12,-22,20,2,16,58,28,27,1,-6
27,16,-11,-22,20,2,18,62,31,30,3,-5
26,17,-10,-22,18,3,19,66,34,33,4,-4
26,19,-8,-22,17,5,20,70,37,35,5,-4
25,20,-7,-22,16,6,20,73,39,37,6,-4
24,18,-7,-21,16,5,20,77,42,39,7,-4
24,17,-8,-21,16,4,20,81,45,42,9,-3
24,16,-9,-21,17,3,20,84,48,45,11,-2
24,17,-7,-21,16,5,20,88,52,50,13,0
25,20,-5,-23,15,7,22,91,56,54,17,2
26,22,-4,-24,15,9,22,94,59,58,19,4
27,24,-4,-26,16,10,22,96,61,60,21,5
30,26,-4,-28,18,11,23,99,63,63,23,7
32,28,-4,-30,19,12,24,101,65,65,26,10
32,28,-4,-31,18,12,24,102,66,67,28,11
30,28,-2,-30,16,13,24,102,67,68,29,12
28,28,0,-28,14,13,23,102,68,70,30,13
28,30,1,-29,13,16,23,102,69,72,31,15
29,33,3,-30,13,18,23,101,70,73,32,16
30,33,3,-31,14,18,23,99,69,74,33,17
29,33,4,-31,12,19,23,98,69,74,33,18
27,33,6,-30,10,20,23,98,69,74,33,19
25,33,7,-29,9,20,23,97,68,74,33,19
25,33,8,-29,8,20,23,95,68,74,32,19
25,34,9,-29,8,21,23,94,67,74,32,20
25,35,9,-30,8,22,24,92,67,74,32,20
28,37,9,-32,9,23,24,90,66,74,32,21
30,39,9,-34,11,24,25,88,65,74,31,21
31,41,9,-36,11,25,25,85,63,73,30,21
31,41,10,-36,11,25,25,82,61,72,29,21
30,41,10,-36,10,26,25,80,59,70,28,21
30,42,10,-36,10,26,25,77,56,69,27,21
31,41,8,-36,11,25,25,73,53,66,26,20
31,39,7,-34,12,23,24,68,50,64,24,18
30,36,6,-33,12,22,24,64,47,61,22,17
30,36,6,-32,12,21,24,60,45,59,21,16
30,36,6,-32,12,21,24,57,42,57,20,15
29,36,5,-32,12,21,24,53,39,55,19,15
29,35,5,-32,12,20,24,49,36,53,18,14
28,34,3,-31,12,19,23,45,32,50,16,12
30,33,1,-32,14,18,23,42,30,47,14,11
33,34,0,-34,16,17,24,39,28,46,14,10
33,33,1,-33,16,17,25,36,26,44,13,9
30,31,1,-31,14,17,25,32,23,42,11,8
28,29,1,-29,13,16,25,28,21,40,9,6
25,28,1,-27,12,15,25,24,18,38,7,5
24,27,1,-26,12,14,25,21,16,36,5,4
25,28,2,-26,12,15,26,19,14,35,4,3
26,28,2,-27,12,15,26,17,13,33,3,2
25,26,0,-26,12,14,26,14,11,31,1,0
24,23,0,-23,11,12,25,11,9,28,-1,-1
22,21,0,-22,10,11,25,9,7,26,-2,-3
21,20,0,-21,10,11,25,6,6,24,-4,-4
21,20,-1,-21,11,10,25,5,4,23,-5,-5
21,20,-1,-21,12,10,25,4,3,23,-6,-5
21,20,-1,-21,12,10,25,3,2,22,-6,-5
22,21,-1,-22,12,10,25,3,2,22,-7,-5
21,20,0,-21,11,10,25,3,1,22,-7,-5
20,19,0,-19,10,9,25,2,1,21,-8,-5
19,17,-2,-18,11,8,25,1,0,20,-10,-6
20,16,-4,-18,12,6,25,0,0,19,-11,-6
21,16,-5,-19,13,6,25,-2,-1,18,-12,-7
21,17,-4,-20,14,7,25,-3,-2,17,-13,-7
22,18,-4,-20,14,7,25,-3,-2,17,-13,-7
23,19,-5,-21,15,7,25,-3,-2,17,-13,-6
25,20,-5,-22,15,8,26,-3,-1,18,-12,-5
26,21,-4,-23,15,9,27,-2,0,18,-11,-4
25,21,-3,-23,14,9,27,-2,0,18,-11,-3
24,22,-2,-23,13,10,28,-3,0,18,-11,-3
23,22,-1,-23,13,10,28,-3,0,19,-10,-2
23,23,-1,-23,13,10,28,-4,0,19,-10,-2
23,23,-2,-23,13,10,28,-3,0,20,-9,-1
23,22,-1,-23,13,11,28,-3,0,20,-9,0
22,22,-1,-22,12,11,28,-4,0,20,-9,0
22,21,-1,-22,11,10,27,-4,0,19,-9,0
22,21,-1,-21,11,10,27,-5,0,19,-9,0
22,21,-1,-22,11,10,27,-5,0,19,-8,0
22,20,-1,-21,12,9,27,-5,0,19,-8,0
19,17,-2,-18,11,7,26,-5,-1,18,-9,0
17,16,-1,-17,10,7,25,-6,-1,18,-10,-1
17,16,-1,-17,9,8,25,-6,-1,18,-10,-1
17,16,0,-17,9,8,25,-5,-1,18,-9,0
18,17,0,-18,10,9,25,-5,-1,18,-8,0
19,18,-1,-18,10,9,25,-6,-1,18,-8,0
20,18,-1,-19,11,8,24,-6,-1,18,-8,0
20,18,-1,-19,11,8,24,-6,-1,18,-8,0
19,17,-1,-18,11,8,24,-7,-1,18,-8,0
17,16,-1,-17,10,7,24,-7,-1,17,-9,0
16,15,-1,-16,10,7,23,-8,-1,17,-9,0
16,15,-1,-16,10,7,23,-8,-1,17,-10,1
17,16,-1,-16,9,7,23,-8,-1,17,-10,1
18,17,-1,-17,9,8,23,-8,-1,17,-10,1
19,18,-1,-18,10,8,23,-8,0,17,-10,2
19,18,-1,-18,10,8,23,-9,0,17,-10,2
19,16,-2,-18,10,7,22,-10,-1,16,-10,2
20,16,-4,-18,12,6,22,-10,-1,16,-11,2
21,16,-4,-19,13,6,22,-11,-1,16,-11,2
20,16,-3,-18,12,6,22,-11,-1,16,-11,2
17,15,-1,-16,10,7,23,-11,0,17,-11,3
14,14,0,-14,7,7,23,-11,0,17,-11,3
13,14,0,-13,7,7,22,-12,-1,16,-12,3
12,12,0,-12,6,6,21,-12,-2,15,-13,3
8,8,0,-8,4,4,20,-13,-2,15,-13,2
4,5,1,-4,2,4,19,-14,-3,14,-14,2
3,5,2,-4,1,4,19,-14,-3,14,-14,2
4,6,2,-5,2,4,18,-14,-3,14,-13,3
6,7,1,-7,3,4,17,-15,-3,14,-13,3
8,8,0,-8,4,3,16,-16,-3,13,-13,2
10,8,-1,-8,5,2,15,-17,-4,13,-14,2
10,7,-2,-8,6,2,14,-17,-4,12,-14,1
9,7,-2,-7,6,2,14,-17,-4,12,-14,1
8,6,-1,-7,5,2,15,-16,-4,13,-14,2
7,6,0,-6,4,3,16,-15,-3,13,-13,2
7,7,0,-7,5,4,16,-15,-3,13,-12,3
7,7,0,-7,5,3,16,-16,-3,13,-12,2
5,4,0,-5,3,1,14,-17,-5,11,-13,1
3,1,0,-2,1,0,13,-19,-6,10,-13,0
2,0,-1,-1,1,0,12,-20,-7,9,-14,0
1,0,-2,0,1,-1,11,-21,-8,8,-14,0
0,-2,-2,1,1,-1,11,-22,-8,8,-15,0
-1,-3,-1,2,0,-1,11,-22,-8,7,-15,0
-1,-2,-1,1,0,-1,11,-23,-9,7,-16,-1
1,-1,-2,0,2,-1,11,-23,-9,7,-16,-1
4,0,-3,-2,4,-1,11,-23,-9,7,-16,-1
3,0,-3,-1,4,-2,11,-24,-10,6,-17,-1
2,0,-2,-1,3,-1,11,-25,-10,6,-17,-1
2,0,-2,0,2,-1,12,-25,-10,6,-17,-1
1,-1,-2,0,2,-1,12,-26,-10,6,-18,-1
0,-1,-2,0,2,-2,12,-26,-11,5,-19,-1
1,-1,-3,0,3,-2,12,-27,-11,5,-19,-1
2,-1,-3,-1,3,-2,12,-28,-11,5,-19,-1
2,0,-3,-1,3,-2,12,-28,-11,5,-19,-1
4,0,-3,-2,4,-1,12,-29,-11,5,-19,-1
3,0,-3,-2,4,-1,12,-29,-11,5,-20,-1
0,-2,-3,1,2,-2,11,-31,-12,4,-21,-2
-1,-5,-4,3,1,-4,11,-32,-13,3,-22,-2
0,-5,-5,3,2,-4,11,-32,-13,3,-22,-2
1,-2,-4,0,3,-3,11,-32,-13,3,-21,-2
1,-1,-2,0,2,-2,11,-32,-12,3,-21,-2
-1,-2,-1,1,1,-2,10,-33,-13,3,-21,-2
-2,-4,-2,3,0,-3,8,-34,-13,2,-22,-2
-2,-5,-3,4,0,-4,7,-35,-14,1,-23,-3
-1,-6,-5,3,2,-5,7,-35,-15,0,-24,-3
1,-5,-6,2,4,-5,7,-35,-15,0,-24,-3
1,-3,-6,1,4,-4,8,-35,-15,0,-23,-3
-1,-3,-2,2,1,-2,9,-35,-14,1,-22,-2
-5,-4,1,4,-3,-1,9,-36,-13,2,-22,-2
-6,-4,2,5,-4,-1,8,-37,-14,1,-23,-3
-5,-3,1,5,-3,-1,7,-39,-15,1,-24,-3
-4,-2,2,4,-3,0,7,-39,-15,1,-23,-2
-6,-2,3,4,-4,1,7,-39,-15,1,-23,-2
-6,-2,3,5,-5,1,7,-40,-15,0,-23,-2
-5,-2,3,3,-3,1,6,-41,-15,0,-23,-2
-2,-1,1,2,-1,1,5,-42,-16,0,-23,-2
-1,-1,0,1,0,0,3,-42,-17,-1,-23,-3
-1,-1,-1,1,0,-1,2,-42,-17,-1,-23,-3
-2,-3,-1,2,0,-2,1,-42,-17,-2,-23,-2
-3,-4,-2,4,0,-3,1,-41,-17,-1,-22,-1
-3,-4,-1,4,0,-2,2,-40,-16,0,-21,0
-3,-2,0,3,-1,0,3,-38,-15,0,-19,0
-2,-1,1,2,-2,1,3,-37,-14,0,-18,1
-1,0,0,1,-1,1,4,-36,-14,0,-18,2
0,-1,-1,1,0,0,4,-36,-14,0,-18,2
-1,-3,-2,2,1,-3,3,-36,-14,0,-18,2
-2,-5,-4,3,1,-5,3,-36,-14,-1,-18,1
-2,-6,-4,4,1,-5,3,-36,-14,-1,-19,1
-2,-6,-4,4,1,-5,4,-35,-14,-1,-19,0
-4,-8,-4,6,0,-6,4,-35,-15,-2,-20,0
-7,-10,-3,10,-2,-6,5,-34,-15,-2,-20,0
-11,-12,-1,12,-4,-6,6,-34,-15,-3,-20,-1
-12,-11,0,12,-6,-5,7,-33,-15,-3,-21,-1
-12,-11,0,12,-6,-5,7,-33,-15,-4,-21,-2
-12,-13,-1,12,-5,-7,7,-34,-16,-5,-22,-3
-12,-15,-2,14,-5,-9,6,-35,-17,-7,-24,-5
-12,-15,-2,14,-5,-9,7,-36,-18,-8,-24,-6
-11,-14,-2,13,-5,-8,8,-35,-18,-8,-24,-6
-12,-14,-1,13,-5,-7,9,-35,-17,-8,-24,-5
-12,-14,-1,14,-5,-7,10,-35,-17,-7,-24,-5
-13,-14,-1,14,-6,-7,10,-34,-17,-7,-24,-5
-14,-14,-1,15,-6,-8,11,-34,-17,-7,-24,-5
-15,-15,0,15,-7,-8,12,-33,-16,-7,-24,-4
-15,-14,0,15,-8,-7,13,-32,-15,-7,-24,-3
-14,-15,0,15,-7,-8,13,-32,-15,-7,-24,-3
-14,-16,-2,16,-6,-9,13,-32,-16,-8,-26,-4
-16,-18,-2,18,-7,-10,13,-33,-16,-8,-27,-5
-17,-19,-1,18,-7,-10,13,-33,-17,-9,-27,-5
-16,-17,-1,17,-7,-9,13,-34,-18,-10,-27,-5
-15,-16,-1,16,-7,-9,13,-34,-17,-10,-27,-4
-17,-17,0,17,-8,-9,13,-34,-17,-10,-27,-4
-19,-19,0,20,-10,-9,12,-35,-18,-11,-27,-4
-21,-20,2,21,-12,-9,12,-35,-18,-11,-27,-3
-22,-18,5,21,-14,-6,12,-35,-17,-10,-25,-1
-23,-16,8,20,-15,-3,12,-35,-17,-10,-23,0
-24,-14,11,19,-17,-1,12,-36,-17,-10,-22,1
-23,-12,11,18,-17,0,11,-37,-17,-10,-20,2
-22,-11,11,17,-16,0,10,-38,-17,-10,-18,3
-20,-10,9,15,-15,0,9,-38,-16,-9,-16,6
-17,-10,7,13,-13,-1,8,-36,-15,-6,-13,9
-13,-9,4,11,-9,-2,7,-33,-12,-3,-9,14
-8,-9,0,8,-4,-3,7,-28,-10,0,-4,19
-2,-9,-5,6,1,-7,6,-22,-5,6,2,25
3,-11,-14,4,8,-12,7,-10,3,16,10,32
10,-15,-25,3,17,-20,8,5,14,29,20,41
18,-19,-37,0,28,-28,9,26,29,44,32,51
26,-23,-50,-1,38,-37,12,51,47,64,47,62
33,-28,-61,-1,47,-45,16,81,70,87,64,74
38,-35,-72,-1,55,-53,19,109,92,110,81,86
41,-43,-84,1,62,-63,19,135,112,132,98,98
44,-52,-96,4,70,-74,18,160,131,154,114,110
47,-60,-108,6,78,-83,18,187,151,176,130,120
52,-66,-120,7,86,-93,18,215,172,198,142,127
55,-73,-130,9,93,-101,19,245,192,218,151,130
54,-79,-134,13,94,-107,23,271,210,232,155,127
49,-82,-132,17,91,-108,25,286,221,239,152,119
41,-85,-127,22,84,-106,25,288,224,237,143,106
32,-87,-120,27,76,-104,23,278,219,227,129,90
21,-90,-112,34,67,-101,20,259,207,212,111,71
10,-91,-101,40,56,-96,16,233,191,192,91,51
1,-89,-90,44,46,-90,11,198,170,168,71,32
-4,-83,-79,44,38,-82,6,157,143,142,50,16
-9,-78,-69,43,31,-74,2,114,115,113,31,4
-13,-73,-60,43,24,-67,-1,76,90,88,17,-4
-15,-68,-52,42,18,-60,-2,46,71,70,8,-8
-16,-65,-48,41,16,-56,-3,21,54,54,1,-11
-16,-63,-46,39,15,-54,-4,-1,36,36,-8,-15
-17,-63,-46,40,14,-54,-3,-23,14,14,-21,-22
-19,-65,-46,42,14,-55,-4,-42,-11,-10,-36,-30
-19,-65,-46,42,14,-56,-6,-55,-30,-29,-47,-35
-16,-64,-47,40,16,-56,-7,-62,-41,-39,-52,-37
-13,-62,-48,38,18,-55,-9,-64,-47,-45,-55,-38
-10,-60,-49,36,19,-54,-10,-65,-51,-49,-56,-37
-8,-57,-47,33,19,-52,-10,-65,-53,-50,-56,-36
-9,-53,-43,32,16,-48,-9,-65,-53,-50,-54,-35
-12,-49,-36,31,12,-43,-6,-63,-51,-49,-52,-32
-15,-44,-29,29,7,-37,-3,-60,-48,-46,-49,-29
-17,-39,-23,28,3,-31,0,-57,-46,-44,-46,-27
-18,-35,-17,27,0,-26,1,-56,-44,-43,-45,-25
-18,-33,-13,26,-2,-23,3,-55,-43,-42,-44,-24
-19,-31,-11,26,-4,-21,5,-55,-42,-41,-43,-24
-20,-30,-8,26,-6,-19,6,-54,-42,-40,-42,-23
-21,-28,-6,25,-8,-18,7,-54,-41,-39,-41,-23
-22,-27,-4,25,-9,-16,9,-54,-40,-39,-40,-22
-23,-25,-2,24,-10,-14,10,-53,-40,-38,-39,-21
-23,-23,0,23,-11,-12,11,-52,-39,-37,-39,-21
-24,-22,2,23,-12,-10,11,-52,-40,-37,-39,-21
-24,-22,2,23,-13,-10,11,-53,-40,-38,-39,-21
-24,-22,2,23,-13,-10,10,-53,-41,-38,-39,-21
-23,-21,2,22,-13,-9,10,-54,-41,-38,-38,-20
-23,-21,2,22,-13,-9,10,-54,-41,-38,-38,-20
-23,-20,2,22,-13,-9,10,-54,-41,-38,-38,-20
-22,-19,2,21,-12,-9,10,-55,-42,-39,-38,-20
-21,-18,2,20,-12,-8,10,-56,-42,-40,-38,-20
-21,-17,3,20,-12,-7,10,-57,-43,-41,-38,-20
-21,-17,4,19,-12,-7,10,-58,-44,-42,-38,-20
-20,-16,4,18,-11,-6,10,-59,-44,-43,-38,-20
-19,-14,5,17,-12,-5,10,-59,-44,-44,-38,-19
-19,-14,5,17,-12,-5,10,-60,-44,-45,-38,-19
-20,-14,5,17,-13,-5,9,-61,-45,-46,-39,-20
-21,-15,5,18,-13,-5,9,-63,-46,-47,-40,-21
-21,-14,6,18,-13,-4,8,-64,-47,-47,-40,-21
-20,-14,6,17,-13,-4,8,-64,-47,-47,-40,-20
-19,-12,7,16,-13,-3,8,-65,-47,-46,-40,-20
-17,-10,8,14,-12,-1,7,-66,-48,-46,-40,-20
-15,-7,9,12,-12,0,6,-67,-48,-45,-39,-19
-15,-4,11,10,-14,3,7,-67,-48,-44,-38,-18
-16,-2,14,9,-15,5,7,-67,-48,-43,-37,-17
-17,-2,15,10,-17,6,6,-70,-50,-44,-36,-17
-20,-3,17,12,-19,7,4,-73,-52,-45,-36,-17
-22,-3,19,13,-21,8,3,-75,-53,-46,-36,-16
-22,-1,21,11,-21,10,3,-77,-54,-46,-34,-15
-21,2,23,9,-22,13,2,-79,-55,-46,-33,-13
-22,4,26,9,-24,15,1,-81,-57,-47,-32,-12
-23,6,29,9,-26,17,0,-83,-59,-49,-31,-11
-22,8,30,7,-27,19,-1,-86,-61,-51,-31,-10
-22,10,32,6,-27,21,-2,-88,-62,-52,-30,-9
-21,14,35,4,-28,24,-3,-90,-63,-53,-29,-7
-18,18,36,0,-27,27,-3,-92,-64,-53,-27,-5
-16,22,38,-3,-27,30,-5,-94,-65,-53,-26,-3
-14,25,38,-5,-26,31,-7,-96,-66,-54,-26,-2
-13,27,39,-6,-26,33,-9,-97,-67,-54,-25,0
-12,30,42,-8,-27,36,-11,-99,-68,-54,-24,2
-13,32,44,-9,-29,38,-12,-100,-69,-53,-23,4
-14,31,46,-8,-30,38,-13,-102,-69,-52,-22,6
-15,31,46,-8,-30,39,-14,-103,-69,-51,-21,8
-14,33,47,-10,-30,40,-15,-103,-69,-50,-20,10
-13,35,48,-11,-30,42,-16,-103,-69,-49,-19,11
-11,37,48,-13,-29,43,-18,-103,-69,-48,-18,13
-9,38,47,-14,-28,43,-19,-103,-69,-47,-16,15
-7,39,46,-15,-27,43,-19,-102,-68,-45,-14,17
-6,40,46,-16,-26,43,-20,-101,-67,-43,-12,19
-5,40,46,-17,-25,43,-20,-100,-66,-42,-10,20
-5,40,45,-17,-25,43,-21,-99,-66,-41,-8,21
-5,38,44,-16,-24,41,-21,-98,-65,-40,-7,22
-5,37,43,-15,-24,40,-22,-97,-64,-38,-5,23
-5,36,42,-15,-24,39,-22,-95,-63,-36,-3,25
-5,35,42,-14,-24,39,-22,-93,-62,-34,-1,26
-5,34,40,-14,-23,37,-22,-92,-61,-33,0,26
-6,31,38,-12,-22,35,-22,-90,-60,-31,1,27
-6,29,36,-11,-21,33,-22,-88,-58,-30,3,27
-5,30,34,-12,-19,32,-20,-84,-56,-27,4,28
-3,30,33,-13,-18,31,-18,-80,-53,-25,6,29
-4,29,32,-13,-18,30,-17,-77,-51,-23,7,29
-5,27,32,-11,-18,29,-16,-73,-48,-21,8,29
-7,25,32,-9,-19,28,-15,-69,-46,-18,9,29
-8,24,31,-8,-19,28,-14,-64,-42,-15,10,30
-8,22,30,-7,-19,27,-12,-60,-39,-12,11,31
-8,21,29,-7,-18,25,-11,-56,-37,-9,12,30
-8,18,27,-5,-18,23,-10,-53,-35,-8,11,29
-9,15,25,-3,-17,20,-9,-50,-33,-6,11,28
-9,13,23,-2,-16,18,-9,-48,-31,-5,10,26
-8,12,21,-2,-15,17,-8,-45,-28,-3,10,26
-8,11,20,-1,-14,16,-8,-42,-26,-1,9,25
-8,9,18,0,-13,14,-8,-39,-24,0,8,24
-8,7,16,1,-12,12,-8,-36,-22,0,7,23
-9,5,15,2,-12,10,-7,-34,-20,2,7,22
-8,4,14,2,-11,9,-6,-31,-18,3,6,21
-7,5,13,1,-10,9,-5,-28,-16,5,6,21
-6,5,12,0,-10,8,-4,-26,-15,6,6,20
-8,3,12,2,-10,7,-3,-24,-14,6,5,19
-10,0,11,5,-10,6,-3,-22,-14,6,4,18
-10,0,10,5,-10,5,-3,-21,-13,6,4,18
-10,0,10,5,-9,5,-3,-20,-12,7,4,17
-9,0,10,5,-9,5,-3,-19,-11,8,4,17
-10,-1,10,6,-10,4,-3,-19,-12,8,3,15
-12,-3,9,8,-10,2,-4,-20,-12,7,2,14
-12,-5,8,8,-10,1,-5,-20,-13,6,1,13
-12,-6,6,9,-9,0,-5,-21,-13,6,0,13
-12,-6,5,9,-8,0,-5,-20,-13,6,0,13
-10,-5,5,7,-7,0,-4,-19,-12,7,0,13
-8,-3,4,5,-6,1,-4,-18,-11,8,1,14
-6,-1,4,3,-5,2,-3,-17,-10,9,1,14
-4,0,4,2,-4,2,-3,-16,-9,10,2,15
-3,0,3,1,-4,1,-2,-15,-8,10,3,15
-1,-1,1,1,-1,0,-1,-14,-8,11,3,15
1,0,-1,0,1,0,0,-12,-7,11,4,16
2,0,-2,-1,2,0,0,-12,-7,12,4,17
2,0,-1,-1,2,0,0,-11,-6,12,4,17
1,0,-1,0,2,0,1,-10,-6,13,4,17
-1,-2,-1,1,0,-1,2,-9,-5,13,5,17
-4,-4,0,4,-2,-1,2,-9,-5,13,5,17
-7,-6,1,6,-4,-2,2,-8,-6,13,5,17
-9,-7,1,8,-5,-2,2,-8,-6,13,5,17
-9,-8,1,9,-5,-3,2,-8,-6,13,5,17
-9,-10,0,9,-4,-4,2,-8,-8,11,4,15
-9,-11,-1,10,-4,-5,2,-9,-9,10,3,14
-10,-13,-2,12,-4,-7,2,-10,-10,8,2,12
-13,-17,-3,15,-5,-10,1,-12,-11,6,0,10
-17,-19,-2,19,-7,-11,1,-13,-12,4,-1,9
-19,-19,0,19,-9,-9,3,-12,-12,5,0,9
-18,-17,1,17,-9,-7,5,-11,-10,6,2,10
-17,-15,2,16,-9,-6,7,-10,-9,7,3,11
-17,-14,3,15,-10,-5,9,-9,-9,8,4,12
-18,-14,3,16,-10,-5,10,-9,-8,8,5,12
-19,-16,3,17,-11,-6,11,-9,-8,9,6,12
-20,-17,3,18,-11,-7,11,-9,-8,8,5,10
-19,-17,3,18,-11,-7,10,-11,-9,7,4,8
-19,-17,2,18,-10,-7,10,-12,-9,6,4,7
-19,-18,1,18,-10,-8,10,-12,-9,6,4,6
-19,-18,1,19,-10,-9,10,-13,-10,5,3,5
-20,-18,1,20,-11,-8,9,-13,-10,5,3,5
-20,-18,1,19,-11,-8,9,-14,-10,5,3,4
-20,-19,1,19,-10,-8,8,-14,-10,5,3,4
-19,-19,0,19,-10,-8,8,-14,-10,5,2,3
-19,-18,0,18,-9,-8,8,-14,-9,5,2,3
-19,-19,1,19,-10,-8,8,-14,-9,6,2,2
-21,-20,1,20,-11,-9,8,-15,-9,6,1,1
-21,-21,0,21,-10,-10,7,-15,-9,6,0,0
-20,-20,0,20,-9,-10,6,-15,-9,6,0,0
-18,-19,-1,19,-8,-9,6,-15,-9,6,0,0
-18,-18,0,18,-9,-9,6,-15,-8,6,0,0
-19,-18,1,18,-10,-8,6,-15,-8,7,0,0
-20,-18,2,18,-11,-8,6,-15,-8,7,0,0
-20,-19,1,19,-11,-8,6,-15,-8,8,0,-1
-20,-19,0,19,-10,-9,6,-15,-7,8,0,-1
-19,-18,0,19,-9,-9,6,-15,-7,9,0,-1
-18,-17,0,18,-10,-8,6,-15,-6,9,0,-1
-18,-17,0,18,-10,-7,6,-14,-6,10,0,0
-18,-17,1,18,-10,-7,6,-13,-5,10,0,0
-18,-16,2,17,-10,-6,6,-13,-5,11,0,0
-17,-15,3,16,-10,-6,6,-12,-4,11,0,1
-15,-12,3,13,-9,-5,6,-10,-3,12,0,1
-13,-11,2,12,-8,-4,6,-9,-3,12,0,2
-14,-11,2,12,-8,-5,6,-8,-3,12,0,2
-14,-11,2,13,-8,-5,6,-7,-3,12,0,2
-14,-11,2,13,-9,-4,6,-7,-3,12,0,2
-14,-12,2,13,-9,-4,6,-7,-3,12,0,2
-15,-13,2,13,-9,-5,6,-7,-3,11,0,2
-15,-14,2,14,-9,-5,5,-7,-3,11,-1,2
-16,-14,2,15,-9,-5,5,-6,-3,10,-1,3
-16,-14,2,15,-9,-5,4,-6,-3,10,-1,3
-16,-13,2,15,-9,-5,4,-5,-3,10,-1,3
-14,-12,1,14,-8,-5,4,-5,-3,10,-1,4
-13,-12,0,13,-7,-5,4,-5,-3,10,-1,4
-12,-11,0,12,-6,-5,4,-5,-3,11,-1,4
-11,-11,0,11,-5,-5,4,-4,-3,11,-1,5
-10,-11,0,11,-5,-4,4,-4,-3,11,-1,5
-10,-11,0,10,-5,-5,3,-4,-3,11,-1,5
-10,-12,0,11,-5,-6,3,-5,-3,11,-1,5
-13,-14,0,13,-6,-7,2,-5,-3,11,-1,4
-17,-15,1,16,-9,-7,3,-4,-3,11,0,5
-20,-14,4,17,-12,-5,4,-4,-2,12,1,6
-22,-14,6,18,-14,-4,4,-4,-2,11,1,5
-22,-16,6,19,-14,-4,3,-5,-2,11,1,5
-22,-17,6,20,-14,-5,3,-4,-2,10,1,5
-22,-17,6,19,-14,-5,3,-3,-1,11,2,5
-21,-17,4,19,-12,-6,4,0,0,12,3,5
-19,-16,3,18,-11,-7,5,5,3,15,4,6
-17,-15,1,16,-9,-6,6,12,8,19,6,6
-13,-13,0,13,-7,-6,8,21,15,24,10,8
-11,-13,-2,12,-5,-7,9,31,23,31,14,10
-10,-13,-3,11,-4,-7,11,41,32,39,20,14
-7,-11,-3,9,-3,-6,12,52,42,48,27,19
-5,-7,-2,6,-2,-4,14,64,53,59,35,25
-4,-3,0,4,-2,-1,15,74,63,69,44,32
-4,-1,2,3,-3,0,16,78,71,78,53,39
-3,1,4,1,-3,2,16,75,75,85,61,48
0,6,5,-3,-2,5,14,64,76,91,71,58
7,15,8,-11,0,12,12,49,77,99,84,71
14,27,12,-20,0,20,9,28,77,107,98,87
21,38,17,-30,1,28,2,0,72,113,113,103
27,49,22,-38,2,35,-8,-34,61,115,124,118
29,57,28,-43,0,42,-20,-73,43,109,128,127
28,63,34,-45,-3,48,-32,-115,17,92,121,127
22,64,41,-42,-9,52,-43,-163,-18,62,101,116
9,60,50,-34,-20,55,-51,-219,-63,16,65,91
-5,51,55,-23,-30,53,-56,-276,-118,-45,15,55
-14,39,52,-12,-34,46,-62,-322,-169,-104,-34,18
-18,28,45,-5,-32,36,-68,-345,-203,-146,-70,-10
-19,17,36,0,-28,26,-73,-347,-220,-167,-92,-30
-19,6,25,6,-23,15,-77,-336,-226,-176,-105,-44
-18,-5,13,11,-16,4,-80,-317,-224,-178,-112,-54
-17,-15,1,16,-9,-6,-80,-293,-216,-172,-113,-60
-16,-23,-8,20,-4,-15,-77,-265,-201,-160,-109,-62
-16,-29,-13,23,-1,-21,-73,-235,-182,-145,-102,-60
-16,-33,-17,25,0,-25,-68,-205,-161,-128,-92,-57
-16,-35,-19,26,1,-27,-62,-176,-141,-111,-82,-52
-16,-37,-21,26,2,-28,-56,-150,-121,-95,-71,-46
-16,-36,-21,26,2,-29,-48,-124,-101,-79,-60,-39
-16,-35,-20,26,2,-28,-40,-100,-83,-64,-49,-33
-16,-34,-18,25,2,-26,-33,-79,-68,-51,-40,-27
-16,-33,-17,25,1,-25,-26,-62,-55,-40,-33,-22
-16,-32,-16,24,0,-24,-21,-49,-46,-32,-28,-19
-15,-30,-15,22,0,-23,-16,-38,-38,-26,-24,-17
-14,-28,-14,20,0,-21,-13,-30,-32,-21,-21,-15
-13,-26,-13,19,0,-19,-10,-23,-27,-18,-19,-13
-13,-25,-13,19,0,-19,-8,-19,-23,-16,-17,-12
-13,-26,-13,19,0,-20,-6,-16,-21,-14,-17,-12
-12,-27,-14,19,1,-20,-5,-14,-20,-13,-16,-12
-11,-27,-15,19,2,-21,-4,-12,-19,-11,-16,-12
-10,-27,-17,19,3,-22,-4,-10,-18,-10,-17,-12
-10,-28,-18,19,4,-23,-3,-9,-17,-10,-18,-12
-10,-29,-18,20,3,-23,-3,-8,-16,-9,-18,-13
-11,-29,-18,20,3,-24,-3,-7,-15,-8,-19,-13
-10,-29,-18,20,4,-24,-2,-6,-13,-7,-18,-13
-10,-28,-17,19,3,-23,-2,-4,-12,-6,-18,-12
-10,-27,-16,19,3,-22,-1,-3,-11,-5,-17,-12
-11,-28,-17,19,3,-23,-1,-3,-10,-4,-17,-12
-11,-30,-18,21,3,-24,-1,-2,-10,-4,-16,-12
-12,-28,-16,20,2,-22,0,0,-8,-2,-15,-11
-13,-26,-13,20,0,-20,2,2,-6,-1,-13,-10
-14,-26,-11,20,-2,-18,3,4,-4,0,-11,-9
-13,-25,-11,19,-1,-17,3,5,-2,1,-9,-8
-10,-23,-12,17,0,-17,3,6,-2,1,-8,-8
-9,-23,-14,16,2,-18,3,6,-2,1,-8,-8
-9,-25,-15,17,2,-20,2,5,-3,1,-8,-8
-10,-27,-16,18,2,-21,1,6,-3,1,-8,-9
-13,-27,-14,20,0,-21,1,7,-2,2,-7,-8
-14,-26,-12,20,-1,-19,1,9,-1,3,-5,-8
-14,-26,-12,20,-1,-18,1,10,0,3,-4,-8
-14,-26,-12,20,-1,-18,1,11,1,4,-3,-8
-14,-25,-11,20,-1,-18,2,14,3,5,-2,-6
-14,-24,-11,20,-1,-17,3,16,5,6,0,-5
-13,-24,-11,19,-1,-18,3,18,6,6,0,-4
-11,-23,-13,18,0,-18,3,20,8,8,0,-3
-8,-21,-13,15,2,-18,3,23,10,10,2,-2
-7,-18,-11,13,2,-15,3,26,13,12,3,-1
-7,-18,-10,13,1,-14,2,28,14,13,3,-1
-8,-19,-10,14,1,-15,1,30,16,14,3,-1
-8,-21,-12,15,2,-17,0,33,18,16,3,-1
-8,-22,-14,15,3,-18,-1,37,20,18,4,0
-8,-21,-13,15,2,-17,-1,42,24,21,5,1
-7,-18,-12,13,2,-16,0,48,29,26,8,3
-5,-16,-11,11,3,-14,0,55,34,32,12,6
-4,-15,-10,10,2,-13,0,61,39,37,15,7
-4,-14,-9,9,2,-11,0,67,44,42,19,9
-1,-12,-10,6,4,-10,1,73,49,47,23,12
2,-9,-11,3,6,-10,2,79,54,52,28,15
5,-7,-12,0,8,-9,3,85,59,57,32,18
7,-6,-13,0,9,-8,3,90,63,61,36,20
8,-5,-13,-1,10,-8,3,95,67,65,40,23
10,-2,-12,-3,11,-7,4,99,71,70,44,26
12,0,-11,-6,12,-5,4,104,75,74,49,29
14,2,-11,-8,12,-4,5,108,78,78,53,31
14,3,-10,-8,12,-3,4,110,81,80,56,33
12,2,-9,-7,10,-3,4,111,82,82,58,35
11,2,-8,-6,9,-2,4,111,83,83,60,36
10,3,-7,-6,8,-1,4,111,84,84,60,37
9,3,-6,-6,7,-1,4,111,84,84,61,37
9,2,-6,-5,7,-2,4,110,84,84,60,37
9,2,-6,-5,7,-2,3,108,84,84,60,37
8,3,-4,-5,6,0,4,108,84,84,59,38
7,5,-1,-5,4,2,4,107,84,85,59,38
5,6,1,-5,2,3,5,106,84,85,59,39
3,5,2,-4,0,4,5,105,83,84,58,38
2,4,2,-3,0,3,5,103,82,83,56,38
3,5,2,-4,0,3,5,101,80,82,55,38
4,6,2,-5,1,3,6,98,79,80,54,37
5,6,1,-5,2,3,5,95,76,77,52,36
6,5,0,-5,3,2,5,91,73,74,49,34
8,6,-1,-6,4,2,4,86,70,71,47,32
8,6,-1,-7,4,2,4,82,66,68,45,31
6,6,0,-6,3,3,4,77,63,64,43,29
4,5,1,-4,1,3,5,73,59,61,42,28
1,5,3,-3,-1,4,6,70,56,59,41,28
0,5,5,-2,-2,5,6,66,54,56,41,27
-1,3,5,-1,-3,4,6,61,50,53,39,25
-2,2,5,0,-4,3,6,56,46,49,38,23
-3,1,5,1,-4,3,6,52,42,45,36,21
-3,1,4,1,-4,2,6,47,38,41,34,19
-3,0,3,1,-3,2,6,42,34,37,33,17
-3,0,3,1,-3,1,6,37,30,33,31,15
-2,1,2,0,-2,2,7,34,27,31,30,14
0,1,2,0,-2,2,7,30,25,28,29,13
0,1,1,0,-1,1,7,26,22,26,28,12
0,0,0,0,-1,0,7,22,19,23,26,9
0,-1,0,0,0,-1,7,19,15,19,24,7
0,-2,-1,1,0,-1,7,16,12,16,22,5
0,-2,-1,1,0,-1,7,13,10,14,20,3
-2,-3,0,2,0,-1,7,11,9,12,19,2
-5,-4,1,5,-3,-1,7,9,7,11,17,1
-7,-5,2,7,-5,-2,7,7,6,10,16,0
-8,-6,2,7,-5,-2,7,6,5,9,14,0
-8,-6,1,7,-5,-3,7,4,4,8,12,-1
-9,-8,1,8,-5,-3,7,2,2,7,10,-3
-10,-10,0,10,-5,-4,7,0,1,6,7,-5
-11,-11,0,11,-5,-5,7,-1,0,5,5,-6
-10,-11,-1,11,-4,-6,7,-3,-1,4,4,-6
-10,-11,-1,11,-4,-6,7,-4,-2,3,3,-7
-10,-10,-1,11,-5,-5,7,-4,-2,4,2,-6
-9,-9,0,10,-5,-4,8,-4,-1,5,3,-6
-7,-7,0,8,-4,-4,9,-5,-1,5,3,-6
-6,-7,-1,7,-3,-4,8,-6,-2,5,1,-7
-7,-9,-2,8,-3,-5,7,-8,-4,3,0,-8
-9,-10,-1,9,-4,-6,7,-10,-5,3,-1,-9
-10,-11,0,10,-5,-5,7,-11,-5,3,-2,-9
-11,-11,0,11,-5,-5,7,-11,-5,3,-1,-9
-10,-11,0,11,-5,-5,7,-11,-6,3,-1,-9
-9,-11,-1,10,-4,-6,7,-12,-6,3,-1,-9
-9,-11,-2,10,-3,-7,6,-12,-6,3,-1,-9
-9,-11,-2,10,-3,-7,6,-12,-6,3,0,-9
-8,-12,-3,10,-3,-7,6,-13,-7,2,0,-9
-8,-12,-4,10,-2,-8,5,-14,-8,2,0,-9
-9,-12,-3,10,-3,-8,5,-15,-8,1,0,-9
-11,-13,-3,12,-4,-8,4,-16,-9,1,0,-9
-14,-15,-2,15,-6,-8,3,-17,-10,0,0,-10
-16,-17,-2,17,-7,-9,2,-17,-10,0,0,-10
-16,-18,-2,17,-7,-10,1,-18,-10,0,1,-10
-16,-18,-2,17,-7,-10,1,-18,-11,0,1,-10
-16,-18,-1,17,-8,-9,1,-18,-11,0,2,-10
-16,-16,0,16,-8,-8,2,-17,-11,0,3,-9
-13,-13,0,12,-7,-6,4,-16,-10,0,4,-8
-9,-10,0,9,-4,-5,4,-16,-9,1,5,-7
-8,-9,-1,9,-3,-6,5,-16,-9,1,5,-6
-9,-11,-2,10,-3,-7,5,-16,-9,0,5,-6
-10,-12,-3,12,-3,-8,4,-17,-9,0,5,-6
-9,-12,-2,11,-3,-7,4,-17,-9,0,5,-6
-8,-11,-2,9,-3,-6,4,-16,-8,0,5,-6
-9,-12,-2,10,-3,-7,3,-16,-8,0,5,-7
-11,-13,-2,11,-5,-7,2,-16,-8,0,4,-8
-12,-13,-1,12,-6,-7,2,-16,-8,0,4,-8
-12,-12,-1,12,-5,-6,2,-16,-7,0,4,-8
-11,-11,-1,11,-5,-6,2,-16,-7,0,4,-8
-10,-11,-1,11,-4,-6,2,-16,-7,0,4,-8
-9,-10,-1,10,-4,-6,2,-15,-6,1,4,-8
-9,-10,-1,10,-4,-6,2,-13,-5,3,5,-7
-10,-11,-1,10,-5,-6,2,-10,-2,5,5,-7
-10,-11,-1,11,-5,-6,2,-4,2,9,7,-6
-10,-11,-1,11,-5,-6,2,2,8,14,10,-4
-9,-9,0,9,-5,-4,2,10,16,21,15,-1
-7,-4,2,5,-4,-1,3,19,25,30,21,4
-4,0,3,2,-4,1,3,27,35,39,29,10
-3,2,5,0,-4,4,3,36,44,50,38,16
-2,5,7,-2,-5,6,3,45,53,60,47,23
0,8,9,-4,-5,8,3,54,62,69,55,30
1,11,10,-7,-5,11,4,62,70,78,64,38
4,15,11,-10,-4,13,4,65,78,87,73,46
8,21,12,-15,-3,17,4,61,83,94,83,56
14,30,15,-22,-1,23,4,50,85,101,94,67
20,39,19,-29,0,29,3,29,81,105,103,78
24,47,23,-35,0,35,0,-3,69,102,109,87
27,54,28,-40,-1,41,-5,-43,51,93,110,93
28,59,31,-43,-2,45,-12,-88,24,76,103,93
28,60,33,-44,-2,46,-21,-136,-8,52,91,88
25,59,35,-42,-5,46,-29,-184,-43,23,72,78
19,56,37,-37,-10,46,-35,-236,-86,-17,42,59
9,49,39,-29,-15,44,-39,-297,-142,-76,-1,29
0,39,38,-19,-20,39,-43,-353,-199,-138,-49,-5
-7,28,34,-10,-21,31,-47,-382,-236,-181,-86,-35
-11,15,26,-2,-19,20,-50,-383,-251,-201,-108,-56
-13,2,16,5,-15,9,-55,-369,-252,-207,-119,-69
-14,-9,6,11,-11,-1,-58,-345,-244,-202,-123,-77
-13,-17,-2,15,-6,-10,-58,-313,-227,-189,-119,-79
-13,-21,-8,17,-3,-15,-57,-277,-204,-170,-110,-77
-15,-25,-10,20,-2,-18,-54,-242,-179,-149,-98,-73
-16,-28,-12,22,-1,-21,-49,-207,-154,-127,-86,-66
-16,-30,-15,23,0,-23,-44,-174,-129,-107,-73,-59
-17,-31,-14,23,0,-23,-37,-144,-106,-87,-61,-52
-18,-31,-12,24,-3,-22,-30,-117,-85,-70,-50,-45
-20,-31,-10,25,-5,-21,-23,-95,-69,-56,-41,-39
-22,-32,-9,26,-7,-20,-19,-79,-57,-46,-36,-36
-21,-31,-9,26,-7,-20,-16,-67,-48,-40,-32,-34
-19,-28,-10,24,-5,-19,-13,-57,-41,-34,-29,-32
-16,-26,-11,21,-3,-19,-11,-49,-35,-29,-26,-30
-14,-25,-11,20,-1,-19,-9,-42,-30,-26,-24,-28
-13,-25,-12,19,-1,-19,-8,-37,-27,-23,-22,-27
-12,-25,-12,19,-1,-19,-7,-34,-25,-22,-22,-26
-12,-26,-12,19,-1,-19,-6,-32,-23,-21,-22,-26
-13,-27,-12,20,-1,-20,-6,-31,-22,-20,-22,-26
-13,-28,-13,20,-1,-20,-6,-29,-21,-20,-22,-26
-14,-28,-14,21,-1,-21,-6,-28,-21,-20,-22,-26
-13,-27,-14,20,0,-21,-5,-26,-20,-19,-21,-26
-13,-27,-15,20,0,-21,-4,-23,-18,-18,-21,-25
-14,-28,-15,21,0,-22,-4,-21,-16,-18,-20,-25
-14,-28,-14,21,-1,-22,-3,-20,-15,-17,-20,-24
-13,-27,-13,20,0,-20,-2,-18,-13,-16,-18,-24
-12,-26,-13,19,0,-19,-1,-17,-12,-15,-18,-23
-10,-25,-14,17,1,-19,-1,-16,-11,-15,-17,-23
-9,-23,-13,16,1,-18,-1,-14,-10,-14,-17,-22
-11,-23,-13,17,0,-18,-1,-13,-10,-14,-17,-22
-14,-26,-12,19,-1,-20,-2,-11,-9,-13,-17,-23
-17,-29,-12,23,-2,-21,-3,-10,-9,-13,-18,-24
-17,-30,-12,24,-3,-22,-4,-8,-9,-13,-19,-24
-15,-28,-12,22,-2,-21,-4,-6,-7,-11,-18,-23
-13,-26,-12,20,-1,-19,-4,-4,-6,-9,-17,-22
-10,-24,-12,17,0,-18,-3,-2,-4,-7,-15,-21
-6,-19,-13,12,2,-16,-2,0,-3,-5,-13,-19
-3,-16,-13,9,4,-14,-2,3,-1,-3,-12,-18
-1,-15,-13,8,5,-14,-2,5,0,-2,-11,-18
0,-14,-13,7,6,-14,-2,8,2,0,-10,-17
0,-13,-12,7,6,-12,-1,10,4,2,-8,-15
-1,-12,-11,6,5,-11,-1,13,7,3,-7,-14
-1,-12,-11,7,5,-11,-1,15,9,5,-6,-14
-1,-13,-11,7,4,-11,-1,16,10,6,-5,-13
-1,-13,-11,7,4,-11,-2,17,10,6,-5,-13
0,-12,-11,6,5,-11,-4,19,11,7,-5,-13
0,-11,-11,6,5,-11,-5,21,12,8,-4,-13
0,-10,-11,5,5,-10,-5,24,14,9,-3,-12
0,-10,-11,5,5,-10,-6,28,16,11,-1,-10
0,-10,-11,5,5,-10,-7,31,19,13,0,-9
0,-10,-10,5,4,-10,-7,34,22,16,2,-8
1,-8,-9,4,4,-8,-7,38,25,19,4,-6
1,-7,-8,2,4,-7,-7,42,28,22,7,-4
1,-6,-7,2,3,-6,-8,46,31,25,9,-2
1,-4,-5,1,3,-4,-8,51,35,29,12,0
3,-1,-4,0,3,-3,-7,56,39,33,15,2
5,1,-4,-2,4,-1,-7,61,43,37,17,5
8,4,-4,-5,6,0,-6,66,48,41,20,7
11,6,-5,-9,8,1,-6,71,52,45,24,10
14,7,-6,-11,9,1,-6,73,54,48,26,12
14,7,-7,-11,10,0,-7,74,56,49,27,13
12,6,-6,-10,9,0,-7,76,57,51,28,14
11,6,-5,-9,8,0,-7,78,59,53,29,16
11,8,-2,-10,7,2,-7,81,61,56,32,19
11,11,0,-11,5,5,-6,84,64,59,35,22
11,14,2,-12,4,7,-6,85,66,61,37,24
12,15,3,-13,4,8,-6,85,67,62,37,25
12,15,4,-13,3,9,-6,84,66,61,37,25
11,16,5,-13,2,10,-6,82,65,61,37,25
9,16,7,-13,0,12,-5,81,65,60,38,25
8,16,8,-13,-1,13,-5,80,64,60,38,26
8,16,9,-12,-1,13,-4,79,64,60,38,26
6,15,10,-11,-2,13,-4,78,63,59,38,26
3,15,12,-9,-4,13,-3,77,63,59,38,26
1,15,13,-8,-6,14,-3,76,62,58,38,26
2,16,13,-9,-5,14,-3,74,61,57,37,26
3,16,12,-10,-4,14,-3,72,59,56,37,26
3,15,12,-9,-4,14,-3,70,57,54,36,25
2,13,12,-8,-5,13,-3,67,55,51,35,24
1,12,12,-7,-5,13,-3,65,52,49,34,23
0,11,11,-6,-5,12,-3,62,50,47,32,21
0,11,11,-5,-5,11,-3,60,48,45,31,20
0,11,10,-5,-5,10,-3,57,47,43,29,19
0,11,10,-6,-5,10,-3,54,45,41,28,18
1,11,9,-6,-5,10,-3,51,42,38,26,17
2,12,9,-8,-4,10,-2,47,40,36,25,16
3,13,9,-9,-3,11,0,45,38,34,23,15
3,13,9,-9,-3,11,0,43,36,32,22,14
3,11,8,-7,-3,10,0,40,33,29,20,12
1,8,8,-5,-3,8,0,36,30,26,17,9
-1,6,7,-2,-4,6,-1,32,27,23,14,7
-2,3,6,0,-4,4,-1,29,24,20,12,5
-4,1,5,1,-5,3,-1,25,22,18,10,4
-5,0,5,2,-5,2,-1,22,20,16,8,3
-4,0,4,2,-5,1,0,19,17,14,7,1
-3,0,3,1,-4,1,0,17,15,11,4,0
-3,-1,2,2,-3,0,0,14,12,9,2,-2
-5,-3,2,4,-4,0,0,12,10,7,0,-4
-6,-4,2,5,-4,-1,0,10,9,6,-1,-5
-8,-5,3,7,-6,-1,0,8,7,5,-3,-6
-11,-7,3,9,-7,-2,0,6,6,3,-4,-7
-12,-8,3,10,-8,-3,0,4,4,2,-5,-7
-12,-9,2,10,-7,-4,1,3,3,1,-5,-8
-11,-10,1,10,-7,-4,2,2,2,0,-6,-8
-10,-10,0,10,-5,-5,1,1,0,0,-7,-9
-9,-10,-1,9,-4,-6,1,0,-1,-2,-9,-11
-8,-9,-1,8,-3,-5,1,0,-1,-2,-10,-12
-7,-8,-2,7,-2,-5,1,-1,-2,-3,-10,-12
-6,-9,-2,7,-2,-6,1,-2,-2,-3,-11,-13
-8,-9,-2,8,-3,-6,0,-3,-3,-3,-11,-14
-11,-11,0,10,-5,-6,0,-4,-3,-4,-12,-14
-15,-14,1,13,-8,-6,0,-5,-4,-4,-12,-15
-17,-16,1,16,-9,-7,0,-5,-5,-5,-13,-15
-17,-16,1,17,-9,-8,0,-5,-5,-5,-13,-16
-16,-15,1,16,-9,-7,1,-5,-5,-5,-13,-16
-15,-15,0,15,-9,-7,0,-5,-5,-5,-13,-16
-13,-14,-1,14,-7,-7,0,-6,-5,-5,-13,-16
-10,-13,-2,12,-4,-7,0,-6,-5,-5,-13,-16
-8,-11,-3,9,-2,-7,0,-7,-5,-5,-12,-16
-5,-11,-5,8,0,-8,0,-7,-6,-6,-13,-16
-3,-11,-8,7,1,-10,-1,-8,-7,-7,-13,-17
-4,-11,-8,8,1,-10,-1,-7,-7,-7,-13,-17
-7,-12,-5,10,-1,-9,-1,-6,-6,-6,-12,-16
-11,-13,-2,12,-4,-8,-1,-5,-6,-6,-11,-15
-14,-14,0,14,-6,-8,-1,-5,-6,-7,-11,-15
-15,-14,0,15,-8,-7,-1,-5,-6,-6,-10,-14
-16,-14,1,15,-8,-6,-1,-4,-5,-6,-10,-13
-16,-14,2,15,-8,-6,-1,-4,-5,-6,-9,-13
-16,-15,2,15,-8,-6,-1,-4,-5,-6,-9,-13
-16,-14,3,15,-9,-6,0,-4,-5,-5,-9,-13
-16,-12,4,14,-9,-4,1,-3,-4,-4,-8,-12
-17,-12,5,14,-10,-4,1,-2,-3,-4,-7,-11
-18,-13,5,15,-11,-4,1,-3,-3,-4,-8,-12
-19,-14,5,16,-11,-5,1,-4,-4,-5,-8,-12
-17,-14,3,16,-10,-6,1,-4,-4,-5,-8,-12
-16,-14,2,15,-9,-6,1,-5,-4,-5,-8,-12
-16,-13,3,14,-9,-5,1,-5,-3,-5,-8,-12
-15,-12,3,13,-9,-5,0,-5,-3,-5,-8,-12
-14,-12,3,13,-8,-5,0,-5,-3,-5,-9,-12
-14,-12,2,13,-8,-5,0,-6,-4,-6,-9,-12
-14,-13,1,14,-8,-6,0,-6,-4,-6,-10,-12
-13,-13,0,14,-7,-7,0,-6,-4,-6,-10,-12
-13,-13,0,14,-7,-7,-1,-7,-5,-6,-11,-12
-14,-14,0,14,-7,-7,-1,-7,-5,-7,-11,-12
-16,-15,0,16,-8,-7,-1,-7,-5,-7,-11,-12
-18,-16,1,17,-9,-7,-1,-7,-5,-7,-11,-12
-17,-15,1,16,-9,-7,-1,-7,-5,-8,-11,-12
-15,-13,1,14,-8,-6,-1,-6,-4,-7,-11,-11
-13,-11,1,12,-7,-6,0,-5,-3,-6,-10,-11
-12,-11,0,11,-7,-6,0,-2,-1,-5,-9,-10
-11,-12,-1,11,-5,-7,0,3,2,-2,-7,-9
-9,-11,-1,9,-4,-6,1,11,8,3,-3,-6
-7,-9,-1,8,-3,-5,2,21,16,10,2,-3
-7,-8,-1,7,-2,-4,3,30,25,18,8,1
-6,-7,-1,6,-2,-3,3,40,34,27,15,5
-5,-4,0,4,-2,-2,2,50,44,37,24,12
-3,0,3,1,-3,1,1,61,55,49,35,21
1,7,6,-4,-3,6,2,72,67,62,48,31
7,16,9,-12,-1,12,4,81,79,75,61,43
12,25,12,-19,0,18,4,83,87,87,74,54
16,32,16,-24,0,24,4,76,92,95,86,66
19,40,21,-30,0,31,3,62,93,102,97,77
22,49,26,-36,-1,38,2,39,89,104,106,88
24,56,31,-41,-2,44,0,6,75,100,110,96
26,62,36,-44,-4,49,-4,-35,53,88,108,99
26,66,40,-46,-7,53,-11,-81,24,69,100,98
24,68,44,-46,-10,56,-19,-130,-10,43,85,91
20,68,48,-44,-14,58,-28,-179,-47,12,65,79
13,64,51,-39,-20,58,-36,-229,-88,-26,37,59
2,55,52,-29,-25,54,-42,-281,-135,-77,-3,30
-8,43,51,-17,-30,47,-48,-328,-183,-131,-47,-3
-15,31,46,-8,-30,39,-54,-356,-218,-172,-82,-32
-18,19,37,-1,-27,28,-60,-362,-236,-194,-103,-51
-18,8,27,4,-22,17,-66,-352,-241,-202,-114,-63
-18,-1,17,9,-17,7,-71,-332,-236,-200,-117,-70
-16,-10,6,13,-12,-2,-72,-304,-223,-191,-114,-73
-16,-18,-3,17,-7,-11,-70,-272,-205,-177,-109,-73
-16,-26,-11,20,-3,-18,-68,-239,-185,-161,-101,-72
-15,-32,-18,23,1,-25,-64,-208,-164,-144,-92,-69
-13,-35,-23,24,4,-29,-58,-178,-142,-127,-82,-64
-12,-37,-24,24,6,-30,-51,-150,-121,-109,-70,-57
-12,-37,-24,24,6,-31,-43,-123,-101,-92,-59,-50
-13,-36,-23,24,5,-30,-36,-100,-84,-77,-49,-43
-12,-33,-20,22,4,-27,-28,-80,-69,-65,-40,-37
-12,-30,-18,21,2,-24,-22,-64,-56,-54,-33,-32
-13,-29,-16,21,0,-22,-18,-52,-47,-47,-28,-29
-14,-29,-16,21,0,-22,-15,-43,-41,-42,-25,-28
-13,-29,-16,21,0,-22,-13,-36,-36,-38,-23,-26
-13,-28,-16,20,1,-22,-11,-30,-32,-35,-21,-25
-12,-28,-15,20,1,-22,-9,-26,-29,-33,-19,-24
-13,-29,-15,20,1,-22,-8,-23,-27,-31,-18,-24
-14,-30,-15,22,0,-23,-7,-21,-26,-30,-17,-23
-16,-30,-14,23,0,-23,-6,-19,-24,-29,-16,-23
-16,-29,-13,22,-1,-22,-5,-16,-22,-28,-16,-22
-16,-28,-13,21,-2,-20,-4,-14,-20,-26,-15,-22
-16,-28,-13,22,-2,-20,-3,-12,-18,-25,-16,-22
-17,-29,-13,23,-2,-21,-3,-10,-17,-25,-17,-22
-15,-29,-13,22,-1,-22,-2,-9,-15,-24,-16,-21
-13,-28,-13,20,0,-21,-1,-8,-14,-22,-16,-20
-12,-27,-13,19,0,-21,0,-7,-13,-21,-16,-19
-14,-28,-14,20,0,-22,0,-6,-12,-21,-16,-19
-15,-29,-14,21,0,-22,-1,-6,-12,-21,-17,-19
-15,-29,-15,21,0,-22,-2,-5,-12,-21,-18,-20
-16,-30,-15,22,0,-22,-3,-5,-11,-21,-19,-21
-17,-31,-15,23,-1,-23,-3,-4,-11,-21,-19,-21
-18,-32,-15,24,-2,-23,-3,-4,-10,-20,-19,-21
-17,-31,-13,24,-2,-22,-3,-3,-10,-19,-18,-20
-14,-28,-13,21,-1,-21,-3,-2,-9,-18,-17,-19
-10,-25,-14,18,1,-20,-2,0,-7,-17,-16,-18
-8,-23,-15,16,3,-19,-2,1,-5,-15,-14,-17
-8,-23,-15,15,3,-19,-2,3,-3,-13,-13,-16
-8,-22,-15,14,4,-18,-1,6,-1,-11,-11,-15
-8,-22,-14,14,3,-17,0,8,0,-9,-10,-14
-9,-22,-12,15,1,-17,0,9,1,-8,-9,-14
-9,-22,-12,16,1,-17,-1,9,1,-7,-8,-13
-8,-21,-12,15,1,-16,-1,10,2,-7,-7,-13
-7,-20,-12,14,2,-16,-1,11,3,-6,-6,-12
-6,-19,-13,12,3,-16,-1,13,4,-5,-5,-11
-4,-17,-13,10,4,-15,-1,16,6,-3,-3,-10
-3,-16,-13,9,5,-14,-2,19,8,-2,-1,-9
-2,-15,-13,8,5,-14,-3,23,10,0,0,-8
-1,-14,-13,7,5,-13,-3,27,13,3,2,-7
-1,-14,-13,7,6,-13,-3,30,16,6,4,-5
0,-14,-13,7,6,-13,-3,34,19,9,6,-4
0,-12,-13,5,6,-12,-2,38,23,12,9,-2
2,-10,-12,3,6,-10,-2,43,27,16,13,0
3,-8,-11,2,6,-9,-1,48,32,21,17,3
3,-6,-11,1,6,-8,-1,54,37,26,20,5
4,-5,-11,0,7,-8,0,60,42,31,24,8
6,-4,-11,-1,8,-7,0,65,47,36,27,10
8,-4,-11,-2,9,-7,1,70,51,40,31,13
9,-3,-11,-3,10,-7,1,74,54,44,34,15
10,-1,-10,-4,9,-5,1,77,57,48,37,18
10,1,-8,-5,8,-3,1,81,61,52,41,21
9,2,-6,-6,7,-2,1,84,64,55,45,24
8,4,-5,-6,6,0,1,87,68,59,49,26
9,6,-3,-8,6,1,2,90,71,62,52,28
10,8,-3,-9,7,2,3,92,73,64,54,29
11,8,-3,-10,7,2,3,93,73,65,55,30
11,9,-2,-10,7,3,3,93,74,66,55,31
11,9,-2,-11,7,4,2,92,73,66,56,31
12,9,-2,-11,7,4,2,91,73,65,56,31
12,9,-2,-11,7,4,2,90,72,65,56,31
10,8,-2,-9,6,3,1,90,72,65,56,31
8,7,-1,-8,4,3,1,90,71,66,56,31
6,8,1,-8,2,5,2,90,71,67,56,31
6,10,3,-9,1,7,4,90,71,67,56,32
7,11,4,-10,1,8,4,89,70,67,55,32
7,11,5,-10,1,8,5,88,69,66,54,31
7,11,5,-10,1,8,5,86,68,65,53,31
9,12,3,-11,2,8,6,84,67,64,52,31
10,12,2,-11,3,7,6,82,65,62,50,31
8,12,3,-10,1,7,6,79,63,60,48,30
5,11,5,-8,0,8,6,76,61,58,46,29
3,10,6,-7,-2,7,6,72,58,55,43,28
2,9,6,-6,-2,7,6,68,55,53,41,26
1,8,7,-5,-3,6,6,64,52,50,39,25
0,7,7,-4,-4,7,6,60,49,48,37,24
-1,7,8,-3,-5,7,6,57,47,46,36,23
-1,6,8,-3,-5,7,7,54,44,44,35,22
-1,6,7,-3,-5,7,7,50,42,42,34,20
-1,6,6,-3,-3,6,7,47,38,39,32,19
0,4,4,-2,-2,4,7,42,34,36,30,17
-1,2,3,-1,-2,3,7,38,31,33,28,15
-2,2,4,-1,-3,3,7,34,28,30,26,13
-2,1,4,0,-4,3,7,30,25,28,25,11
-3,0,3,1,-3,2,6,27,22,25,23,10
-3,0,2,1,-3,1,6,24,19,23,22,8
-4,-1,2,2,-3,1,6,21,17,21,21,7
-5,-2,1,3,-3,0,6,18,14,19,20,5
-5,-3,0,3,-3,-1,6,15,12,17,18,4
-5,-4,0,4,-3,-2,6,12,9,15,16,2
-5,-5,0,5,-3,-3,5,9,7,13,14,0
-5,-6,0,6,-3,-3,5,6,5,12,12,-1
-6,-7,0,6,-3,-4,6,3,3,11,11,-3
-6,-7,0,7,-3,-4,6,1,2,10,10,-4
-7,-8,-1,7,-2,-5,6,0,1,9,9,-5
-7,-9,-3,8,-1,-6,6,-1,0,8,8,-5
-7,-10,-4,8,-1,-7,6,-2,0,7,7,-6
-7,-11,-4,8,-1,-8,6,-4,-2,6,5,-7
-8,-12,-4,10,-2,-8,6,-6,-3,6,3,-8
-8,-12,-4,10,-2,-8,6,-8,-4,6,2,-9
-8,-12,-4,10,-2,-8,6,-8,-4,6,2,-9
-8,-12,-4,10,-2,-8,6,-9,-4,6,2,-9
-8,-12,-4,10,-2,-8,6,-9,-5,6,1,-10
-9,-12,-4,10,-2,-8,5,-9,-5,6,1,-11
-9,-11,-4,10,-2,-8,5,-9,-6,6,0,-11
-8,-11,-4,9,-1,-8,6,-9,-6,7,0,-11
-7,-11,-5,9,-1,-8,6,-10,-6,8,0,-11
-6,-11,-5,8,-1,-8,6,-10,-6,9,0,-11
-5,-10,-5,7,0,-8,7,-10,-6,10,0,-11
-4,-10,-5,6,1,-8,7,-10,-6,11,1,-10
-3,-10,-6,6,1,-8,7,-10,-6,11,2,-10
-4,-10,-6,7,1,-8,7,-11,-6,12,2,-9
-5,-10,-5,7,1,-8,7,-11,-6,12,3,-9
-4,-9,-5,6,1,-7,7,-11,-6,13,3,-8
-4,-9,-5,6,1,-7,6,-11,-6,14,3,-8
-4,-11,-7,7,1,-9,5,-11,-7,15,3,-8
-5,-14,-9,9,1,-11,4,-12,-8,14,2,-8
-7,-16,-9,11,0,-12,3,-13,-9,14,3,-9
-8,-17,-8,13,0,-12,4,-12,-9,15,4,-8
-8,-16,-8,13,0,-12,4,-11,-9,16,4,-8
-7,-15,-7,11,0,-11,5,-11,-8,17,5,-8
-6,-13,-7,9,1,-10,5,-10,-8,18,5,-7
-3,-11,-8,6,2,-10,5,-10,-8,20,5,-7
-1,-10,-9,5,4,-10,5,-9,-8,21,5,-7
-1,-10,-9,5,4,-10,5,-9,-8,21,4,-6
-3,-12,-8,7,2,-10,5,-9,-8,22,4,-6
-5,-14,-8,9,1,-11,4,-9,-9,22,3,-6
-7,-15,-7,10,0,-11,4,-10,-9,23,2,-6
-8,-14,-6,11,0,-10,4,-9,-8,24,3,-5
-9,-14,-4,11,-2,-9,5,-7,-7,26,4,-3
-11,-13,-2,12,-4,-8,6,-6,-6,28,4,-2
-11,-12,-1,11,-5,-7,6,-6,-5,29,4,-1
-11,-10,1,10,-6,-5,7,-5,-4,30,5,0
-12,-9,2,10,-7,-4,8,-5,-4,31,5,2
-12,-9,3,11,-7,-3,8,-4,-3,32,6,2
-12,-9,2,10,-6,-4,7,-5,-3,32,6,3
-11,-9,1,10,-5,-4,7,-5,-3,33,6,3
-10,-9,0,10,-5,-4,7,-5,-2,33,7,3
-10,-9,0,10,-5,-4,7,-4,-2,33,7,3
-10,-9,0,10,-5,-5,7,-3,-2,34,7,4
-9,-8,0,8,-4,-5,7,0,0,36,8,4
-6,-6,-1,5,-2,-4,8,5,3,39,10,6
-3,-3,-1,2,-1,-3,8,12,9,45,13,9
-1,0,0,0,-1,-1,9,21,18,53,18,13
-1,1,2,0,-2,1,9,30,27,61,24,17
-2,3,4,-1,-3,3,8,39,37,71,31,22
-1,5,6,-2,-3,5,8,50,48,82,41,29
3,10,6,-7,-2,8,8,62,60,96,52,39
8,16,7,-13,0,12,8,75,73,110,65,49
13,24,9,-19,1,17,8,86,86,124,78,61
19,31,12,-25,2,21,7,92,98,137,91,73
23,39,15,-31,3,27,6,91,107,149,105,85
27,47,19,-37,3,33,5,83,113,160,119,99
30,56,25,-43,2,41,4,65,113,167,131,112
34,66,31,-50,1,49,1,34,105,167,138,122
37,75,37,-56,0,56,-3,-5,88,160,140,129
39,81,41,-60,-1,61,-9,-50,62,144,134,130
39,82,43,-61,-2,62,-18,-102,27,119,121,125
35,79,43,-57,-4,61,-27,-154,-11,89,101,114
29,73,44,-51,-8,59,-34,-205,-50,54,75,97
20,65,45,-42,-13,55,-39,-260,-97,6,37,70
9,53,44,-30,-17,48,-43,-315,-151,-52,-10,35
-1,39,39,-18,-20,39,-46,-352,-195,-102,-54,2
-8,24,32,-8,-20,27,-50,-363,-219,-132,-83,-23
-12,9,21,1,-17,15,-54,-356,-229,-145,-99,-41
-14,-4,10,9,-13,3,-58,-337,-227,-147,-107,-52
-14,-14,0,14,-8,-7,-58,-310,-216,-140,-108,-58
-14,-22,-8,18,-4,-15,-57,-278,-198,-126,-103,-58
-14,-26,-13,20,-1,-20,-54,-244,-177,-109,-94,-56
-14,-30,-17,22,1,-23,-50,-211,-155,-91,-85,-52
-14,-33,-20,24,2,-26,-44,-179,-134,-73,-75,-47
-14,-35,-22,25,4,-29,-37,-149,-114,-55,-64,-42
-13,-35,-23,24,5,-29,-30,-121,-94,-39,-54,-36
-12,-34,-22,23,5,-28,-24,-97,-77,-24,-44,-30
-12,-33,-20,22,4,-27,-18,-78,-63,-12,-36,-25
-11,-30,-19,21,4,-25,-14,-64,-52,-3,-31,-21
-9,-28,-18,19,4,-23,-11,-53,-44,3,-26,-18
-8,-27,-18,18,5,-23,-10,-45,-38,8,-24,-16
-8,-27,-19,18,6,-23,-9,-38,-34,11,-22,-15
-8,-27,-20,17,6,-23,-7,-32,-31,14,-21,-14
-7,-26,-19,16,7,-22,-5,-28,-28,17,-19,-12
-6,-24,-17,15,6,-21,-3,-23,-25,21,-17,-11
-6,-22,-15,14,4,-19,0,-19,-21,24,-15,-9
-6,-20,-13,13,3,-17,1,-16,-18,27,-14,-7
-5,-18,-12,12,3,-16,1,-13,-16,29,-13,-6
-4,-15,-11,10,3,-14,2,-10,-14,31,-12,-5
-4,-14,-10,9,3,-12,2,-8,-12,33,-11,-4
-6,-15,-10,10,1,-13,2,-7,-12,33,-11,-4
-7,-16,-10,12,1,-14,2,-7,-12,33,-11,-4
-7,-17,-11,12,2,-14,1,-7,-12,33,-11,-4
-6,-18,-11,12,2,-15,0,-7,-11,34,-11,-4
-7,-20,-12,14,2,-16,0,-7,-11,34,-12,-4
-8,-22,-12,15,1,-17,-1,-7,-11,35,-12,-4
-9,-22,-13,16,1,-17,-2,-6,-10,36,-12,-4
-8,-21,-13,15,2,-17,-2,-4,-9,37,-11,-4
-7,-19,-12,13,2,-16,-2,-2,-7,39,-10,-3
-7,-18,-12,12,3,-15,-1,0,-5,41,-8,-1
-6,-17,-13,11,4,-15,-1,2,-4,43,-5,0
-3,-16,-13,9,5,-14,0,5,-2,44,-3,1
0,-13,-12,7,6,-13,1,7,0,46,0,3
0,-12,-12,6,6,-12,2,10,2,48,1,5
0,-12,-12,6,6,-12,3,12,4,49,2,6
2,-11,-13,4,7,-12,3,14,5,49,3,6
4,-10,-14,3,9,-12,3,17,6,50,4,6
3,-10,-14,3,9,-12,3,19,8,51,4,7
2,-10,-13,4,8,-12,3,22,9,52,5,7
0,-11,-12,5,6,-12,3,24,11,53,6,8
0,-12,-12,6,5,-13,3,25,12,54,7,7
-2,-15,-12,8,5,-14,3,27,13,55,7,7
-3,-16,-12,9,4,-15,3,29,14,56,7,7
-3,-15,-12,9,4,-14,3,31,15,57,7,8
-4,-15,-12,10,4,-14,4,35,17,59,7,8
-5,-16,-12,10,3,-14,5,39,20,61,8,9
-4,-15,-12,9,3,-13,6,43,23,64,9,10
-3,-13,-12,8,4,-12,7,48,26,66,11,11
-2,-13,-12,7,4,-12,8,52,29,69,12,11
-3,-14,-11,8,4,-13,8,56,31,71,13,12
-3,-14,-11,8,3,-12,8,60,35,73,15,13
-2,-12,-10,7,4,-11,9,64,39,77,17,14
-1,-10,-10,6,4,-10,9,69,42,80,19,16
0,-8,-9,4,4,-9,9,73,46,84,20,17
0,-7,-8,3,5,-8,9,77,49,88,23,19
0,-6,-8,3,4,-7,9,81,53,91,26,21
0,-6,-7,3,3,-7,8,84,55,94,28,22
-1,-7,-6,4,2,-7,8,86,58,97,31,24
-1,-6,-6,3,2,-7,7,88,60,99,33,26
0,-4,-5,1,3,-5,7,89,62,101,34,27
1,-1,-4,0,2,-3,6,91,64,104,36,29
1,0,-2,-1,2,-1,6,92,66,106,38,31
2,1,-2,-2,2,-1,5,93,67,108,39,32
3,2,-2,-3,3,0,5,94,68,109,40,33
4,4,-1,-4,3,1,4,94,69,110,42,34
5,6,0,-6,2,2,4,93,69,111,43,36
7,7,1,-7,3,3,4,92,69,111,44,37
8,8,0,-8,4,3,3,91,69,111,45,37
10,9,-1,-9,5,4,2,89,68,111,45,38
11,9,-1,-10,6,4,1,87,67,111,45,38
10,9,0,-9,5,5,1,86,67,110,44,38
8,9,1,-9,3,5,1,84,66,110,44,39
9,11,1,-10,4,6,1,82,65,109,44,39
10,13,1,-12,5,7,1,80,65,108,44,40
10,14,3,-12,4,8,1,78,64,107,44,40
9,14,4,-12,3,8,1,75,63,106,43,41
8,15,5,-11,2,9,1,73,62,105,43,41
6,14,7,-10,0,10,1,70,60,104,41,42
3,12,8,-7,-2,10,1,67,57,101,39,41
1,10,8,-5,-3,9,1,64,55,98,36,41
0,9,8,-5,-4,9,2,62,53,95,34,40
0,9,8,-5,-4,8,2,59,50,93,32,40
0,8,8,-5,-4,7,2,56,48,90,30,39
2,8,6,-5,-2,6,2,53,45,88,29,38
4,8,4,-6,0,6,2,49,43,85,27,37
5,9,4,-7,0,6,2,46,40,83,25,36
4,8,4,-6,0,7,2,42,37,80,22,35
2,8,5,-5,-1,7,3,40,36,78,21,35
1,7,5,-5,-2,6,4,37,34,76,19,34
1,7,4,-5,-2,5,4,34,31,74,17,33
1,6,4,-4,-2,5,3,30,28,71,15,32
0,5,4,-3,-2,4,3,26,25,68,12,30
0,3,3,-2,-1,2,3,24,22,65,10,29
0,1,1,-1,-1,1,4,21,20,64,9,28
-1,1,1,0,-1,0,4,19,18,62,8,26
-1,0,1,0,-1,0,4,16,16,59,6,25
-1,0,0,0,0,0,4,14,14,57,4,23
-1,-2,-2,1,0,-2,4,11,12,54,2,22
-2,-4,-3,2,0,-3,3,9,9,51,0,20
-3,-5,-2,4,0,-4,3,7,8,49,0,19
-5,-5,-1,5,-2,-3,3,6,7,48,-1,19
-6,-5,0,5,-3,-3,4,5,6,47,-2,18
-6,-5,0,5,-3,-3,4,5,6,46,-2,18
-6,-6,0,6,-3,-3,4,4,5,45,-3,18
-7,-8,0,8,-3,-4,4,3,4,43,-4,17
-7,-9,-1,8,-3,-5,4,3,3,42,-4,17
-5,-8,-2,7,-1,-5,5,3,3,41,-5,16
-3,-7,-2,5,0,-4,5,2,2,39,-5,16
-2,-6,-3,4,0,-4,5,2,2,38,-6,16
-2,-6,-3,4,0,-4,5,1,1,37,-6,15
-2,-5,-3,3,0,-4,5,1,1,36,-7,15
-1,-5,-3,3,1,-4,5,1,0,36,-7,15
0,-5,-4,2,2,-4,5,2,0,35,-7,15
-1,-6,-5,3,2,-5,5,2,0,34,-8,14
-1,-7,-6,4,2,-6,4,1,-1,33,-8,13
-1,-7,-5,4,2,-6,5,0,-1,31,-9,13
-1,-6,-5,3,1,-5,5,1,-1,31,-9,13
-2,-7,-4,4,1,-5,5,1,-1,31,-8,13
-4,-8,-4,6,0,-6,5,1,-1,30,-8,12
-6,-9,-3,7,-1,-6,5,1,-1,30,-9,12
-6,-9,-3,8,-1,-6,4,1,-1,29,-9,12
-5,-8,-3,7,-1,-5,4,1,-1,29,-9,12
-3,-7,-4,6,0,-6,4,1,-1,29,-9,13
-3,-8,-4,6,0,-6,4,0,-1,28,-9,13
-5,-9,-3,7,-1,-6,3,-1,-1,26,-10,12
-7,-10,-2,9,-2,-6,2,-3,-2,25,-10,12
-8,-11,-2,9,-3,-7,2,-3,-3,24,-10,12
-8,-11,-3,9,-2,-7,2,-3,-3,24,-10,12
-7,-11,-4,9,-1,-8,2,-4,-2,24,-10,13
-6,-10,-4,8,-1,-7,2,-4,-2,24,-9,13
-6,-9,-3,8,-1,-6,3,-3,-1,25,-8,14
-4,-8,-3,6,0,-5,3,-3,-1,26,-8,15
-2,-6,-3,4,0,-4,4,-3,-1,26,-8,15
0,-5,-4,2,2,-4,4,-3,0,26,-8,15
1,-4,-4,1,3,-4,4,-3,0,26,-8,15
0,-4,-4,1,2,-4,4,-3,0,26,-8,14
-3,-5,-3,3,0,-4,4,-3,-1,26,-8,14
-6,-8,-2,6,-1,-4,3,-4,-1,25,-9,13
-8,-9,-1,8,-2,-5,3,-4,-2,25,-9,13
-7,-9,-1,8,-2,-5,3,-4,-2,25,-10,14
-6,-8,-2,6,-1,-4,3,-4,-2,25,-10,14
-4,-6,-2,4,-1,-3,3,-3,-1,25,-9,14
-2,-3,-1,2,0,-2,4,-2,-1,26,-9,15
0,-1,-1,0,0,-1,4,-1,0,26,-8,15
1,0,-1,-1,0,0,4,0,1,27,-8,16
2,1,-1,-2,1,0,4,0,2,27,-7,16
2,1,-1,-2,2,0,4,0,2,28,-7,17
1,0,-1,0,1,0,2,0,1,27,-8,16
0,-2,-2,1,1,-1,1,-1,0,26,-9,15
0,-3,-2,1,1,-2,0,-2,0,26,-10,14
0,-3,-2,1,0,-2,-1,-2,0,25,-10,13
-3,-4,0,3,-2,-2,-2,-2,0,25,-11,13
-7,-4,2,5,-5,-1,-2,-1,0,25,-11,13
-8,-4,3,6,-6,-1,-1,0,0,25,-10,13
-8,-4,3,6,-5,-1,-1,0,1,25,-10,14
-8,-5,2,6,-5,-1,-1,0,0,25,-10,13
-6,-5,1,6,-4,-1,-2,0,0,24,-11,13
-6,-6,1,6,-4,-1,-2,0,0,24,-11,12
-6,-6,0,6,-3,-2,-2,0,0,23,-11,12
-5,-7,-1,5,-2,-3,-3,-1,-1,22,-12,11
-5,-7,-1,5,-2,-4,-4,-2,-1,22,-12,10
-6,-7,-1,6,-2,-4,-4,-2,-2,21,-13,9
-7,-8,-1,7,-2,-5,-4,-2,-2,21,-13,8
-7,-9,-2,8,-2,-6,-4,-2,-2,20,-13,8
-6,-9,-2,7,-1,-5,-4,-2,-3,20,-14,7
-5,-7,-2,6,-1,-4,-4,-2,-3,19,-14,7
-4,-7,-2,5,-1,-4,-3,-2,-2,19,-13,7
-4,-6,-2,5,0,-4,-3,-2,-2,19,-13,7
-2,-5,-3,3,0,-4,-3,-1,-2,19,-12,7
-1,-4,-4,2,1,-4,-3,-1,-3,19,-12,6
-2,-6,-4,3,1,-5,-3,-2,-4,17,-13,6
-3,-7,-4,5,0,-6,-3,-2,-5,16,-13,5
-4,-8,-4,5,0,-6,-3,-3,-5,16,-13,5
-4,-8,-3,6,0,-6,-3,-3,-5,16,-13,5
-5,-8,-2,6,-1,-5,-3,-3,-5,16,-13,5
-6,-8,-2,6,-2,-5,-3,-3,-5,16,-13,4
-6,-8,-1,7,-2,-5,-4,-4,-5,15,-13,4
-8,-9,-1,8,-3,-5,-4,-4,-5,14,-13,3
-9,-10,-1,9,-4,-5,-5,-5,-6,13,-13,3
-9,-10,-1,9,-3,-6,-5,-5,-6,12,-13,3
-8,-10,-1,9,-3,-5,-5,-5,-6,12,-13,3
-7,-9,-1,8,-3,-5,-5,-5,-6,12,-13,3
-6,-8,-2,7,-2,-5,-6,-6,-7,11,-13,3
-5,-9,-3,7,-1,-6,-7,-7,-8,10,-14,2
-4,-8,-4,6,0,-6,-7,-8,-8,10,-14,1
-2,-5,-4,3,0,-5,-6,-7,-8,10,-13,2
1,-2,-4,1,2,-3,-5,-7,-7,10,-13,3
4,1,-4,-2,4,-1,-4,-6,-6,11,-12,4
6,4,-3,-5,5,0,-2,-6,-6,12,-11,5
5,4,-2,-4,3,1,-3,-7,-6,11,-12,4
4,3,-1,-3,2,1,-4,-8,-7,10,-13,3
2,2,0,-2,1,1,-4,-8,-7,10,-12,3
0,0,1,0,-1,0,-5,-8,-7,10,-12,3
-3,-1,1,2,-2,0,-6,-9,-8,9,-12,2
-4,-2,1,3,-2,-1,-7,-11,-9,8,-13,1
-4,-3,0,4,-2,-1,-8,-12,-10,7,-14,1
-4,-3,0,4,-2,-2,-9,-12,-10,7,-14,1
-3,-3,0,3,-1,-2,-9,-12,-10,7,-13,2
-2,-2,0,2,-1,-1,-9,-11,-9,8,-12,2
0,-1,0,1,0,-1,-9,-10,-8,9,-11,3
1,0,-1,0,0,-1,-9,-9,-7,9,-11,3
3,0,-2,-1,2,-1,-8,-8,-7,10,-10,4
3,0,-3,-1,3,-2,-7,-8,-6,10,-10,4
2,-2,-4,0,4,-3,-6,-7,-6,10,-10,4
1,-3,-5,1,4,-4,-6,-7,-7,10,-10,4
0,-5,-5,3,3,-5,-7,-8,-7,9,-10,3
-2,-7,-5,5,1,-6,-7,-7,-7,9,-10,3
-1,-7,-5,5,1,-6,-6,-6,-6,10,-10,3
0,-7,-6,3,2,-6,-5,-6,-6,10,-10,3
0,-6,-5,3,1,-6,-5,-6,-6,9,-10,3
-3,-6,-2,4,-1,-5,-3,-6,-5,9,-10,4
-5,-5,0,5,-2,-4,-1,-5,-4,10,-10,4
-6,-6,0,6,-2,-3,0,-5,-4,9,-10,4
-6,-7,-1,7,-2,-4,0,-6,-5,8,-11,2
-7,-9,-1,8,-3,-4,0,-7,-6,6,-12,1
-9,-11,-1,10,-4,-5,0,-8,-7,5,-13,0
-10,-13,-2,11,-4,-6,-1,-8,-8,4,-14,-1
-9,-13,-3,10,-3,-7,-1,-8,-8,3,-14,-2
-8,-11,-3,9,-2,-7,-1,-8,-8,3,-14,-2
-7,-10,-2,9,-2,-7,0,-8,-8,3,-13,-2
-8,-10,-2,9,-3,-7,1,-7,-7,4,-13,-1
-10,-10,-1,9,-4,-6,2,-6,-7,4,-13,-1
-10,-10,0,9,-4,-5,2,-6,-7,4,-13,-2
-10,-11,-1,10,-4,-5,2,-6,-7,4,-13,-2
-10,-12,-2,11,-3,-7,2,-6,-7,3,-13,-3
-11,-14,-3,12,-3,-8,2,-7,-8,3,-13,-4
-12,-15,-3,13,-4,-9,1,-8,-9,2,-14,-5
-10,-13,-3,11,-3,-8,2,-8,-9,2,-13,-5
-5,-8,-4,6,0,-6,2,-7,-8,2,-12,-4
-2,-6,-5,4,2,-6,2,-7,-8,2,-12,-4
-3,-9,-6,6,2,-8,1,-8,-8,1,-12,-5
-7,-13,-6,10,0,-10,1,-8,-9,0,-13,-6
-9,-15,-6,12,-1,-10,0,-7,-9,0,-13,-6
-10,-16,-5,13,-2,-10,0,-7,-9,0,-13,-6
-10,-16,-6,13,-2,-11,0,-6,-9,0,-13,-6
-9,-15,-7,12,-1,-11,0,-6,-10,0,-13,-6
-7,-14,-7,11,0,-11,0,-5,-10,-1,-13,-7
-8,-15,-8,11,0,-12,0,-5,-10,-1,-13,-7
-9,-16,-8,12,0,-12,0,-4,-10,-1,-13,-8
-8,-15,-7,11,0,-11,1,-2,-9,-1,-12,-7
-8,-13,-5,10,0,-8,3,0,-7,0,-11,-6
-8,-12,-4,10,-1,-7,4,1,-7,0,-10,-6
-7,-12,-5,9,0,-8,4,0,-7,0,-11,-6
-7,-12,-5,9,0,-8,4,0,-7,0,-11,-6
-10,-13,-3,11,-2,-9,5,-1,-7,0,-11,-7
-13,-13,0,13,-6,-7,5,-3,-7,0,-11,-7
-14,-10,3,12,-9,-4,6,-3,-5,1,-9,-6
-15,-7,7,11,-11,0,8,-2,-3,3,-8,-5
-15,-4,9,9,-12,2,10,-1,-1,5,-6,-4
-13,-2,10,7,-11,4,12,1,1,7,-5,-3
-12,0,11,6,-11,6,14,3,2,8,-3,-2
-13,1,15,6,-14,8,15,4,4,10,-1,0
-16,2,18,7,-17,10,16,5,6,11,0,1
-17,3,20,7,-18,11,17,5,7,12,1,2
-16,5,21,5,-18,12,17,5,9,13,2,3
-17,7,24,4,-20,15,18,6,10,15,3,5
-19,9,27,4,-23,18,20,7,12,16,5,6
-19,10,29,4,-24,20,21,8,14,18,6,7
-18,12,30,2,-24,21,22,8,16,19,7,8
-16,16,32,0,-24,24,23,7,18,21,9,9
-14,20,33,-3,-24,26,25,5,19,22,10,11
-13,22,35,-4,-25,28,28,2,21,23,11,12
-14,24,38,-5,-26,30,30,0,23,25,12,12
-14,26,41,-6,-27,33,32,-2,25,27,14,13
-15,29,44,-7,-29,36,35,-1,29,30,16,15
-15,33,48,-9,-31,41,39,1,35,35,21,18
-15,38,53,-12,-33,46,43,3,42,41,26,21
-15,43,58,-14,-36,51,45,2,48,47,31,25
-16,48,65,-16,-40,57,46,-1,53,54,38,31
-16,58,73,-21,-44,65,46,-8,58,60,46,38
-13,70,82,-28,-47,75,44,-20,61,66,54,47
-9,81,90,-35,-49,84,38,-34,63,71,62,56
-6,90,96,-42,-50,92,26,-49,64,77,73,68
-2,99,101,-48,-51,100,9,-64,66,86,88,82
2,107,105,-55,-51,107,-10,-79,68,97,105,100
8,118,109,-63,-50,114,-31,-94,70,109,125,120
15,129,114,-72,-49,122,-53,-112,71,122,146,143
24,143,118,-84,-47,130,-74,-132,71,133,167,166
35,158,121,-96,-43,139,-94,-150,69,144,186,188
45,167,121,-106,-37,143,-110,-164,66,150,200,204
51,168,116,-110,-32,142,-121,-174,58,148,202,210
53,159,106,-107,-26,133,-125,-179,45,137,193,204
51,140,90,-96,-19,116,-125,-183,26,115,171,186
46,116,71,-81,-12,95,-123,-192,-3,79,136,158
38,93,56,-65,-9,75,-119,-205,-38,33,92,122
30,72,42,-51,-6,57,-112,-211,-69,-10,49,87
24,53,28,-38,-2,40,-105,-209,-91,-42,14,55
18,33,15,-26,2,23,-96,-200,-104,-63,-12,29
12,14,2,-14,5,7,-87,-185,-108,-74,-30,8
6,-2,-7,-2,7,-5,-77,-165,-106,-77,-41,-7
0,-14,-14,6,7,-14,-66,-142,-97,-74,-45,-17
-4,-24,-19,14,7,-21,-56,-119,-87,-68,-46,-23
-9,-32,-23,20,7,-27,-47,-98,-77,-62,-45,-27
-12,-38,-25,25,7,-32,-39,-79,-67,-56,-44,-29
-14,-40,-27,27,7,-34,-32,-63,-57,-49,-42,-30
-15,-41,-27,28,7,-35,-26,-48,-49,-43,-40,-30
-16,-42,-27,29,6,-36,-21,-36,-41,-38,-38,-30
-17,-43,-28,30,6,-36,-17,-27,-36,-34,-36,-30
-17,-45,-28,31,6,-37,-15,-20,-32,-32,-35,-31
-18,-48,-29,33,5,-38,-13,-15,-30,-30,-35,-31
-21,-51,-29,36,4,-40,-12,-11,-29,-30,-35,-31
-23,-55,-30,39,4,-42,-11,-8,-28,-30,-36,-32
-25,-56,-30,41,3,-44,-11,-5,-28,-30,-36,-33
-26,-57,-31,42,3,-45,-10,-2,-27,-29,-37,-34
-25,-58,-33,42,4,-46,-8,0,-25,-29,-37,-35
-23,-57,-35,40,5,-46,-7,3,-24,-28,-37,-35
-24,-58,-35,40,5,-46,-6,6,-23,-28,-35,-35
-25,-59,-34,41,4,-45,-5,8,-23,-27,-34,-34
-25,-58,-33,41,4,-45,-5,10,-23,-27,-32,-34
-25,-58,-32,41,4,-45,-5,12,-22,-27,-31,-33
-26,-59,-33,42,4,-46,-5,14,-22,-28,-30,-34
-26,-61,-35,43,4,-48,-5,15,-22,-28,-30,-35
-26,-61,-36,44,5,-49,-4,17,-22,-28,-29,-35
-26,-61,-36,43,5,-49,-3,20,-21,-27,-28,-34
-25,-61,-37,43,6,-49,-3,23,-20,-27,-27,-34
-25,-62,-37,43,6,-49,-3,25,-20,-27,-26,-34
-24,-62,-38,43,7,-50,-3,26,-20,-27,-26,-34
-22,-62,-40,42,9,-50,-4,28,-19,-27,-26,-34
-21,-61,-41,41,10,-51,-4,30,-18,-27,-25,-34
-20,-60,-41,40,11,-51,-3,34,-17,-26,-25,-33
-19,-61,-42,40,12,-52,-3,37,-16,-25,-25,-34
-19,-63,-44,41,13,-54,-4,38,-16,-26,-27,-36
-21,-67,-47,44,13,-57,-6,39,-17,-28,-30,-38
-22,-70,-48,46,12,-59,-7,40,-18,-29,-32,-39
-21,-70,-48,45,13,-59,-6,43,-17,-28,-32,-39
-19,-68,-49,44,15,-58,-5,46,-15,-27,-32,-39
-19,-68,-49,44,15,-59,-5,48,-15,-26,-32,-38
-21,-70,-49,46,14,-60,-5,51,-14,-25,-32,-38
-24,-71,-48,48,12,-60,-4,54,-13,-24,-32,-38
-26,-73,-47,49,10,-61,-3,57,-12,-23,-32,-38
-26,-73,-47,49,10,-61,-3,59,-11,-23,-33,-39
-24,-72,-48,47,11,-60,-3,61,-10,-23,-33,-39
-22,-71,-49,46,13,-60,-3,63,-9,-23,-33,-39
-22,-72,-49,47,14,-61,-3,64,-9,-23,-33,-39
-22,-73,-50,47,14,-62,-2,66,-9,-22,-33,-39
-21,-72,-51,46,15,-62,-1,68,-8,-22,-32,-39
-20,-73,-52,46,16,-63,-1,70,-7,-22,-32,-40
-21,-74,-52,47,16,-63,0,71,-7,-22,-33,-41
-23,-75,-52,48,14,-64,0,73,-7,-22,-33,-42
-24,-75,-51,48,14,-64,0,74,-6,-21,-33,-42
-22,-74,-51,47,15,-63,1,76,-6,-21,-32,-42
-21,-72,-51,46,15,-62,2,77,-5,-20,-31,-41
-21,-72,-49,46,14,-61,4,79,-3,-19,-30,-41
-22,-71,-48,47,13,-60,5,80,-1,-18,-29,-41
-22,-71,-48,46,13,-60,6,81,0,-17,-28,-41
-21,-70,-48,45,14,-60,6,82,1,-16,-27,-41
-21,-69,-48,45,13,-59,6,83,1,-15,-27,-41
-22,-69,-47,45,12,-58,6,83,2,-15,-26,-41
-23,-68,-45,45,11,-57,6,83,3,-14,-25,-40
-23,-68,-44,45,11,-56,6,83,4,-13,-24,-39
-24,-67,-43,45,10,-55,6,83,5,-12,-23,-38
-25,-66,-41,45,9,-54,6,82,6,-11,-22,-37
-25,-65,-40,45,8,-53,5,81,7,-10,-21,-36
-25,-64,-39,44,7,-52,5,80,8,-9,-20,-35
-23,-62,-39,42,8,-51,4,79,8,-8,-18,-34
-21,-59,-38,39,9,-49,4,79,9,-7,-17,-32
-18,-55,-37,36,9,-46,4,78,10,-5,-15,-30
-17,-52,-35,34,9,-44,4,77,10,-4,-13,-28
-16,-48,-33,32,9,-41,4,76,11,-3,-11,-26
-14,-44,-30,29,9,-37,4,75,12,-2,-9,-25
-13,-42,-28,28,8,-35,3,74,12,-2,-8,-24
-16,-42,-26,29,5,-34,2,72,12,-2,-7,-23
-19,-43,-24,31,3,-34,0,69,11,-3,-7,-23
-19,-41,-23,30,2,-32,-1,66,10,-4,-6,-22
-16,-38,-23,27,3,-30,-2,64,9,-4,-5,-21
-11,-33,-22,22,5,-28,-2,63,9,-4,-4,-19
-9,-31,-21,20,6,-26,-2,62,9,-4,-2,-18
-9,-29,-20,19,5,-24,-3,61,9,-3,-1,-16
-8,-27,-19,18,5,-23,-3,60,9,-3,0,-15
-8,-25,-18,17,5,-22,-3,58,9,-2,1,-13
-7,-23,-17,15,5,-21,-4,57,9,-2,1,-11
-5,-23,-18,14,6,-21,-5,55,8,-2,1,-10
-5,-24,-19,14,7,-22,-6,53,7,-3,1,-10
-6,-24,-19,15,6,-22,-7,51,6,-3,1,-10
-8,-25,-16,17,4,-21,-6,50,6,-3,1,-9
-12,-25,-13,19,1,-20,-6,48,6,-3,2,-8
-13,-24,-11,19,-1,-18,-6,47,6,-3,2,-7
-13,-22,-10,18,-1,-17,-5,46,6,-3,3,-6
-11,-21,-10,16,0,-16,-4,44,6,-3,3,-6
-11,-21,-11,16,1,-16,-4,42,5,-4,2,-6
-12,-22,-10,17,0,-16,-4,41,5,-4,3,-6
-15,-23,-9,19,-2,-16,-3,40,4,-4,3,-5
-16,-22,-6,19,-5,-14,-3,38,4,-5,3,-5
-17,-20,-2,19,-7,-12,-1,37,4,-5,3,-5
-18,-19,0,19,-8,-10,0,37,3,-6,3,-5
-19,-20,0,19,-9,-10,0,35,2,-7,2,-6
-20,-21,-1,20,-9,-11,0,32,0,-9,1,-8
-21,-22,-2,21,-9,-12,0,30,-1,-11,0,-9
-21,-24,-2,22,-9,-13,0,29,-2,-12,0,-9
-22,-25,-2,23,-9,-14,0,28,-2,-13,0,-10
-22,-26,-3,24,-9,-15,0,27,-3,-14,0,-10
-23,-26,-3,24,-9,-15,0,27,-3,-14,0,-11
-24,-26,-2,25,-10,-14,1,27,-4,-15,-1,-11
-24,-26,-2,25,-10,-14,1,26,-4,-16,-2,-12
-23,-26,-2,24,-10,-14,2,26,-5,-16,-2,-12
-22,-26,-3,24,-9,-15,2,25,-5,-16,-2,-12
-23,-28,-4,26,-9,-16,2,24,-6,-17,-3,-13
-25,-29,-4,27,-10,-16,2,23,-7,-18,-4,-13
-25,-29,-3,27,-11,-16,3,22,-8,-19,-4,-14
-26,-29,-2,27,-11,-16,3,22,-8,-19,-5,-14
-26,-30,-3,28,-11,-16,2,22,-9,-20,-5,-15
-25,-29,-4,27,-10,-17,2,23,-8,-20,-5,-16
-22,-27,-5,24,-8,-16,2,25,-7,-18,-4,-15
-18,-22,-5,20,-6,-14,3,29,-4,-16,-2,-13
-14,-18,-4,17,-4,-12,3,32,-2,-13,0,-11
-13,-16,-3,15,-4,-10,3,34,0,-11,1,-9
-12,-15,-2,14,-5,-9,2,36,2,-9,2,-8
-12,-13,-1,13,-5,-7,0,38,5,-7,4,-7
-11,-11,-1,11,-5,-6,0,41,7,-5,5,-5
-9,-9,0,9,-5,-4,0,46,11,-2,7,-4
-8,-6,1,7,-5,-2,0,51,15,1,10,-2
-8,-4,4,6,-6,0,0,57,19,4,12,0
-10,-2,7,6,-8,2,1,62,23,7,14,1
-11,-1,10,6,-10,4,2,67,27,11,16,2
-12,0,13,5,-12,6,3,71,32,14,19,4
-11,4,15,4,-13,9,5,74,37,17,21,6
-10,7,17,1,-13,11,7,76,41,21,24,8
-9,11,21,0,-15,15,8,75,45,24,26,10
-10,15,26,-2,-18,20,8,72,49,26,28,11
-11,20,32,-4,-22,26,9,68,52,28,31,13
-11,25,37,-7,-24,31,10,65,57,32,34,16
-11,31,42,-9,-26,36,9,60,60,35,37,18
-11,35,46,-12,-28,40,8,52,61,37,39,20
-11,39,50,-14,-30,44,7,39,60,36,40,21
-11,44,55,-16,-32,49,5,23,56,34,40,22
-11,49,60,-18,-35,54,2,6,51,32,40,23
-11,55,65,-21,-38,60,-2,-10,47,29,41,25
-11,60,71,-24,-41,66,-8,-27,41,27,42,27
-11,64,75,-26,-43,70,-19,-48,33,24,43,30
-10,67,77,-28,-44,72,-32,-70,24,21,44,34
-6,69,77,-32,-42,73,-46,-91,14,18,46,38
-1,73,75,-36,-38,74,-60,-113,3,15,49,44
3,76,74,-40,-35,75,-73,-135,-8,12,53,50
7,78,72,-43,-32,75,-85,-161,-22,6,55,55
9,78,68,-44,-29,73,-98,-194,-43,-4,55,60
12,75,63,-44,-25,69,-112,-231,-69,-18,53,64
15,71,56,-43,-20,64,-124,-268,-97,-36,48,65
17,66,48,-42,-15,57,-133,-303,-127,-56,40,66
20,61,40,-41,-9,50,-140,-334,-157,-77,32,65
25,56,31,-41,-2,43,-147,-362,-184,-97,23,65
28,51,23,-40,3,37,-153,-388,-210,-118,14,63
31,45,15,-38,9,30,-157,-408,-233,-137,5,61
32,40,8,-36,13,24,-159,-423,-252,-154,-3,59
32,36,4,-34,15,20,-160,-435,-269,-171,-11,56
32,34,2,-33,15,17,-159,-444,-284,-186,-19,53
30,31,1,-31,15,15,-158,-449,-296,-200,-28,49
28,28,0,-28,14,14,-155,-449,-303,-212,-36,45
26,25,0,-26,13,13,-151,-444,-307,-220,-43,42
25,26,2,-25,12,14,-146,-437,-307,-224,-48,40
24,27,4,-25,10,15,-142,-428,-305,-227,-51,38
23,28,5,-25,9,16,-137,-418,-301,-228,-53,37
22,29,7,-25,8,17,-132,-406,-296,-228,-54,36
22,29,8,-25,7,18,-127,-394,-289,-225,-54,36
22,29,8,-25,7,18,-124,-382,-281,-221,-52,37
23,29,7,-26,8,18,-122,-370,-273,-216,-50,39
25,29,4,-27,10,17,-119,-357,-264,-209,-48,41
26,28,3,-27,11,15,-115,-341,-252,-200,-45,42
23,25,2,-24,11,14,-111,-323,-239,-190,-40,44
21,22,1,-21,10,11,-107,-304,-225,-179,-36,44
20,19,0,-19,10,9,-102,-284,-211,-169,-33,45
18,16,-2,-17,10,6,-97,-263,-197,-159,-30,44
16,12,-4,-14,10,3,-91,-241,-182,-149,-29,42
14,8,-6,-11,10,0,-85,-218,-168,-139,-28,39
13,4,-8,-9,11,-2,-77,-195,-154,-130,-28,35
14,2,-12,-8,13,-5,-68,-171,-139,-119,-28,30
15,0,-15,-7,15,-7,-59,-148,-124,-108,-27,25
15,-3,-18,-5,16,-11,-50,-125,-109,-97,-26,20
13,-9,-22,-1,17,-15,-42,-103,-94,-87,-26,15
9,-15,-24,3,16,-19,-34,-81,-81,-78,-25,8
5,-19,-24,7,15,-22,-26,-62,-68,-70,-26,1
2,-21,-24,9,13,-23,-19,-43,-56,-62,-26,-5
-1,-24,-23,13,11,-24,-11,-25,-44,-54,-25,-10
-7,-30,-23,19,8,-26,-4,-9,-33,-46,-24,-15
-15,-36,-22,26,4,-29,2,6,-22,-39,-23,-20
-20,-42,-22,31,2,-31,8,19,-14,-34,-22,-24
-21,-45,-24,34,1,-34,13,30,-8,-29,-21,-27
-22,-48,-25,35,2,-36,16,40,-2,-26,-20,-29
-21,-49,-27,36,3,-38,19,49,2,-23,-20,-31
-22,-50,-27,37,3,-39,22,56,6,-21,-19,-32
-25,-52,-26,39,1,-39,24,61,9,-20,-18,-33
-28,-53,-25,40,-1,-39,27,66,12,-18,-18,-34
-28,-53,-25,41,-1,-39,29,71,15,-16,-18,-35
-28,-54,-26,41,0,-40,31,75,17,-15,-18,-36
-29,-56,-27,43,0,-41,32,79,19,-14,-18,-38
-30,-57,-27,44,-1,-42,34,83,20,-13,-19,-39
-29,-58,-28,44,0,-42,34,86,21,-13,-20,-41
-28,-59,-30,44,1,-44,34,89,22,-14,-22,-43
-28,-60,-32,44,2,-46,35,91,24,-13,-23,-45
-29,-61,-32,45,1,-46,37,95,26,-12,-23,-45
-30,-59,-29,45,0,-44,40,99,29,-10,-24,-45
-30,-57,-27,43,-1,-42,42,104,33,-8,-24,-46
-30,-56,-26,43,-2,-41,45,108,35,-6,-24,-46
-31,-56,-25,44,-3,-41,46,112,38,-4,-25,-47
-33,-57,-24,46,-5,-40,48,117,40,-3,-25,-47
-34,-56,-22,46,-6,-39,50,121,44,-1,-25,-47
-36,-56,-20,46,-7,-38,52,126,47,0,-25,-47
-38,-56,-18,47,-9,-38,53,130,51,2,-25,-48
-40,-57,-17,48,-11,-37,55,133,54,4,-25,-49
-41,-57,-16,48,-12,-36,56,136,57,6,-25,-50
-42,-57,-15,49,-13,-35,57,139,60,8,-25,-50
-42,-57,-15,49,-13,-35,58,142,63,10,-25,-51
-41,-57,-15,49,-13,-35,58,146,66,12,-25,-51
-41,-56,-15,49,-13,-35,59,150,69,14,-25,-51
-40,-55,-14,48,-13,-34,59,153,72,16,-24,-51
-40,-54,-14,48,-13,-34,59,156,75,18,-24,-52
-40,-54,-15,47,-13,-35,60,159,78,20,-24,-53
-40,-55,-15,47,-12,-35,60,163,82,23,-22,-53
-40,-54,-14,47,-12,-34,61,168,86,27,-20,-52
-41,-53,-12,47,-14,-32,63,173,91,32,-18,-51
-42,-51,-9,46,-16,-30,64,179,96,36,-15,-49
-41,-47,-7,44,-16,-27,66,185,101,41,-12,-47
-38,-43,-5,41,-17,-24,68,191,107,46,-8,-45
-37,-39,-3,38,-17,-21,70,196,112,51,-5,-43
-36,-38,-3,37,-17,-20,70,200,116,55,-3,-42
-35,-38,-3,36,-16,-21,70,203,120,58,-1,-42
-34,-38,-4,36,-15,-21,70,206,123,62,1,-40
-32,-37,-5,35,-14,-21,70,209,126,64,3,-39
-31,-38,-6,35,-13,-22,69,211,128,67,4,-38
-33,-39,-5,36,-14,-21,68,214,131,70,6,-37
-35,-39,-4,37,-15,-21,67,216,134,74,9,-36
-34,-39,-5,37,-15,-22,67,217,136,77,11,-34
-33,-38,-5,35,-14,-22,66,218,139,80,14,-32
-31,-36,-5,33,-13,-21,66,220,141,84,17,-28
-29,-33,-4,31,-13,-19,66,221,144,87,21,-25
-28,-32,-4,30,-12,-18,66,221,146,90,25,-23
-27,-31,-4,29,-11,-18,65,221,147,92,28,-21
-25,-28,-3,27,-10,-16,64,221,148,94,31,-19
-21,-25,-3,24,-9,-14,64,221,149,96,33,-16
-20,-23,-4,22,-8,-14,63,218,148,96,35,-14
-20,-23,-4,22,-7,-14,61,214,146,96,36,-13
-18,-23,-5,20,-6,-15,59,208,144,95,37,-12
-16,-22,-6,19,-4,-15,57,202,141,94,38,-11
-16,-22,-6,18,-4,-14,55,196,139,92,40,-9
-17,-22,-4,19,-6,-13,53,190,135,91,41,-7
-18,-22,-3,20,-7,-12,51,183,131,88,41,-5
-17,-21,-3,20,-7,-12,49,177,127,85,41,-5
-16,-19,-3,18,-7,-11,48,170,122,82,41,-4
-16,-18,-2,18,-7,-10,46,161,117,78,40,-3
-17,-18,-1,18,-8,-10,44,152,112,74,39,-3
-18,-18,0,18,-9,-9,43,143,107,70,38,-2
-19,-18,2,18,-10,-8,42,134,102,66,37,-1
-19,-17,2,18,-10,-8,40,126,96,62,36,-1
-17,-16,2,16,-9,-7,39,119,91,58,35,-1
-15,-14,2,15,-8,-6,37,111,86,54,34,-1
-14,-13,1,14,-8,-6,35,103,80,49,32,-1
-15,-13,1,14,-8,-6,33,95,74,44,30,-1
-16,-13,2,14,-8,-6,31,86,68,39,27,-2
-15,-13,2,14,-8,-6,29,77,63,35,25,-2
-13,-13,0,13,-6,-7,27,69,58,30,23,-3
-11,-12,-1,12,-4,-7,26,62,53,26,22,-3
-11,-12,-1,12,-4,-7,25,56,48,22,20,-4
-12,-13,0,13,-5,-7,23,50,43,17,18,-5
-14,-14,0,15,-7,-8,21,44,38,13,16,-6
-15,-13,1,15,-8,-7,20,38,34,9,14,-6
-15,-12,2,14,-8,-6,19,33,31,6,12,-7
-16,-12,2,13,-9,-5,19,28,28,4,11,-7
-17,-14,2,15,-9,-6,18,23,25,1,9,-8
-17,-16,1,16,-8,-7,17,19,22,-1,7,-9
-16,-16,1,15,-8,-8,16,15,19,-4,6,-10
-13,-14,0,14,-6,-8,16,13,16,-6,4,-11
-11,-13,-1,13,-4,-8,15,11,14,-8,3,-12
-11,-13,-2,13,-4,-8,15,9,11,-10,1,-13
-12,-13,-1,14,-5,-8,14,7,10,-11,0,-13
-13,-13,-1,13,-5,-8,14,4,9,-12,0,-14
-12,-13,-1,13,-5,-7,13,2,8,-13,-1,-14
-12,-13,-1,12,-4,-7,13,0,6,-14,-2,-15
-12,-14,0,13,-5,-7,13,0,5,-15,-3,-15
-13,-16,-1,15,-5,-9,13,-1,4,-16,-4,-16
-14,-17,-1,16,-6,-10,13,-1,2,-17,-5,-16
-14,-15,0,15,-7,-8,13,-1,2,-17,-6,-16
-14,-13,1,14,-7,-6,14,-1,2,-16,-6,-16
-14,-14,0,14,-6,-7,14,-2,2,-17,-6,-16
-13,-15,-2,14,-5,-8,13,-4,1,-17,-7,-17
-13,-15,-2,14,-5,-8,13,-5,0,-18,-8,-18
-15,-16,-1,15,-7,-8,12,-6,0,-18,-9,-18
-16,-16,0,16,-8,-8,13,-6,0,-18,-9,-18
-17,-17,0,16,-8,-9,13,-6,0,-19,-10,-18
-17,-18,0,17,-8,-9,13,-6,-1,-19,-11,-18
-18,-18,0,18,-8,-10,13,-6,-1,-19,-11,-19
-17,-18,-1,18,-8,-10,13,-7,-2,-20,-12,-19
-16,-18,-2,17,-7,-10,12,-9,-2,-20,-12,-19
-15,-18,-2,16,-6,-10,12,-10,-2,-20,-12,-19
-15,-17,-2,16,-5,-10,12,-10,-2,-20,-11,-19
-15,-17,-2,16,-5,-10,12,-9,-3,-20,-11,-19
-16,-18,-2,17,-6,-11,11,-9,-4,-21,-11,-19
-16,-19,-2,17,-6,-11,11,-9,-4,-21,-11,-19
-17,-19,-1,18,-7,-11,11,-9,-4,-21,-11,-19
-17,-19,-2,18,-7,-11,11,-9,-4,-21,-11,-19
-17,-20,-3,19,-7,-11,11,-10,-5,-22,-11,-19
-16,-19,-3,18,-6,-11,11,-10,-5,-22,-11,-19
-15,-17,-2,16,-6,-9,11,-9,-5,-22,-10,-18
-15,-17,-2,15,-6,-9,11,-9,-5,-22,-10,-18
-16,-17,-2,16,-7,-9,11,-9,-5,-22,-10,-18
-16,-18,-2,17,-7,-10,11,-9,-6,-22,-10,-18
-16,-18,-2,17,-7,-10,11,-8,-6,-22,-10,-18
-15,-16,-2,15,-6,-9,10,-8,-6,-22,-9,-18
-13,-15,-2,14,-5,-8,10,-8,-6,-22,-9,-17
-13,-15,-2,14,-5,-8,10,-8,-6,-22,-9,-17
-13,-15,-2,14,-5,-8,10,-8,-5,-21,-9,-17
-13,-16,-2,14,-5,-9,10,-7,-5,-21,-9,-17
-12,-16,-4,14,-4,-9,10,-7,-5,-21,-9,-17
-11,-15,-5,14,-3,-9,10,-7,-5,-21,-10,-17
-10,-14,-4,12,-2,-9,10,-6,-5,-21,-10,-16
-8,-12,-4,11,-2,-8,11,-5,-4,-20,-10,-15
-8,-12,-4,11,-2,-9,10,-4,-4,-20,-10,-15
-10,-14,-4,12,-3,-9,10,-5,-5,-20,-11,-15
-12,-15,-3,13,-4,-9,9,-5,-6,-20,-11,-15
-12,-14,-2,13,-4,-8,9,-5,-5,-20,-11,-14
-11,-13,-2,12,-4,-7,10,-4,-4,-19,-11,-14
-10,-13,-3,11,-3,-8,10,-4,-4,-18,-10,-13
-11,-14,-3,13,-3,-9,9,-4,-4,-18,-11,-13
-13,-15,-3,14,-4,-9,8,-5,-4,-19,-12,-13
-13,-16,-3,14,-5,-10,7,-6,-5,-19,-12,-13
-13,-17,-3,15,-5,-10,6,-6,-5,-19,-13,-13
-12,-17,-4,14,-4,-11,6,-7,-6,-19,-13,-13
-11,-16,-5,13,-3,-11,5,-7,-6,-19,-14,-13
-11,-16,-5,14,-3,-11,5,-7,-6,-19,-14,-13
-13,-17,-4,15,-4,-11,5,-6,-7,-19,-14,-13
-13,-16,-4,15,-4,-10,5,-5,-6,-19,-14,-13
-11,-14,-3,13,-4,-9,6,-3,-5,-18,-13,-12
-10,-13,-3,12,-3,-8,6,-1,-4,-17,-13,-11
-8,-12,-4,11,-2,-8,7,2,-2,-16,-12,-10
-7,-12,-5,10,0,-9,7,5,0,-14,-10,-9
-7,-12,-5,9,0,-9,7,10,4,-10,-7,-7
-7,-10,-3,8,-1,-7,8,17,10,-4,-2,-4
-5,-7,-2,6,-1,-5,9,25,17,3,4,0
-3,-4,-1,4,-1,-3,9,32,24,11,11,6
0,0,0,0,0,0,9,39,32,19,18,12
4,5,0,-4,1,2,8,44,38,26,26,20
7,9,1,-8,3,4,6,50,44,33,35,28
10,12,1,-11,4,6,5,57,50,41,44,36
13,15,2,-14,5,8,4,63,57,49,53,45
17,19,3,-18,7,11,2,67,64,57,64,55
21,26,5,-23,8,15,0,63,68,64,74,66
25,33,9,-29,8,21,-1,52,68,69,84,77
28,42,14,-35,8,28,-1,35,65,70,91,87
31,51,20,-40,6,35,-1,12,57,65,93,93
31,56,25,-43,4,40,-3,-19,40,54,88,93
30,59,29,-44,1,44,-5,-55,18,38,78,88
27,62,35,-45,-3,48,-8,-92,-5,19,66,80
21,62,42,-42,-10,52,-9,-127,-29,-1,50,67
12,58,47,-35,-17,52,-11,-165,-57,-29,26,47
1,50,49,-25,-24,49,-14,-205,-91,-66,-6,18
-10,40,50,-14,-29,45,-18,-241,-125,-104,-40,-11
-18,30,48,-5,-32,39,-24,-267,-153,-134,-67,-34
-23,20,43,2,-33,31,-30,-283,-174,-157,-86,-51
-25,9,35,8,-30,22,-36,-287,-187,-170,-99,-63
-26,-2,24,14,-25,10,-41,-280,-192,-175,-106,-70
-27,-13,14,20,-21,0,-43,-264,-189,-174,-108,-75
-26,-22,5,24,-16,-8,-44,-243,-182,-169,-108,-77
-24,-29,-4,26,-10,-16,-43,-221,-172,-161,-106,-78
-22,-35,-12,28,-5,-23,-43,-198,-158,-151,-102,-76
-20,-37,-17,29,-1,-27,-42,-173,-141,-137,-94,-72
-17,-38,-21,28,2,-29,-39,-147,-122,-120,-83,-65
-16,-38,-21,27,3,-30,-35,-121,-102,-103,-71,-57
-17,-38,-20,27,2,-30,-29,-99,-84,-89,-62,-51
-18,-38,-19,28,0,-29,-23,-80,-70,-78,-54,-45
-17,-35,-17,26,0,-26,-17,-63,-58,-69,-47,-40
-15,-31,-16,23,0,-24,-12,-50,-48,-62,-42,-36
-12,-28,-16,20,1,-21,-8,-38,-40,-56,-38,-33
-11,-25,-15,18,2,-19,-5,-29,-34,-52,-35,-30
-10,-24,-14,17,2,-18,-4,-22,-29,-49,-33,-29
-9,-23,-14,17,3,-18,-3,-17,-26,-47,-32,-28
-9,-23,-13,16,2,-18,-1,-13,-23,-45,-31,-26
-10,-23,-13,17,1,-19,0,-10,-21,-43,-30,-25
-11,-24,-13,18,0,-19,1,-8,-19,-42,-29,-24
-12,-25,-13,19,0,-20,2,-6,-18,-42,-29,-24
-13,-26,-13,20,0,-20,2,-4,-18,-42,-29,-25
-13,-26,-13,20,0,-20,2,-2,-16,-41,-29,-25
-13,-26,-13,20,0,-20,2,-1,-15,-40,-29,-24
-14,-27,-13,21,-1,-20,2,0,-14,-39,-29,-24
-16,-28,-12,22,-2,-20,2,1,-13,-39,-29,-23
-16,-28,-12,22,-2,-20,2,2,-13,-38,-29,-22
-15,-27,-12,21,-2,-20,3,3,-12,-38,-28,-21
-12,-24,-12,19,0,-19,3,4,-11,-37,-26,-20
-8,-22,-13,16,2,-18,3,5,-11,-36,-25,-19
-7,-22,-14,15,3,-18,2,6,-10,-36,-25,-19
-6,-22,-15,15,4,-19,2,7,-10,-36,-24,-19
-6,-21,-15,14,4,-18,2,9,-8,-35,-23,-19
-6,-20,-14,14,4,-17,2,10,-7,-34,-21,-18
-7,-20,-14,14,4,-17,2,11,-6,-34,-21,-18
-7,-20,-14,14,3,-17,2,11,-6,-34,-20,-19
-7,-20,-13,14,3,-17,2,11,-6,-33,-20,-19
-9,-20,-12,15,2,-16,2,11,-5,-33,-19,-19
-11,-21,-10,16,0,-16,2,12,-5,-32,-19,-19
-10,-20,-10,15,0,-15,1,13,-4,-32,-18,-19
-9,-19,-10,14,1,-15,1,15,-3,-30,-16,-18
-8,-18,-10,13,1,-14,0,17,-2,-29,-15,-17
-7,-17,-9,12,1,-13,0,19,-1,-27,-13,-16
-6,-15,-9,10,1,-11,1,22,1,-25,-11,-14
-5,-13,-8,9,1,-10,1,25,3,-22,-9,-12
-4,-12,-8,8,2,-10,2,28,6,-19,-7,-10
-2,-12,-9,7,3,-10,2,31,8,-16,-6,-9
0,-11,-10,6,4,-10,2,33,9,-14,-5,-8
1,-11,-11,5,5,-10,2,37,11,-12,-3,-8
1,-11,-11,5,6,-10,2,41,14,-8,-2,-6
0,-11,-11,5,5,-10,2,46,18,-4,0,-4
0,-10,-10,5,4,-9,2,50,21,0,2,-2
0,-9,-10,4,5,-9,2,54,25,4,5,0
2,-8,-10,3,6,-9,3,58,28,7,7,1
4,-6,-10,1,7,-8,4,63,32,11,10,4
5,-4,-9,0,7,-7,4,67,35,15,12,6
4,-5,-8,0,6,-6,4,71,37,18,14,8
1,-6,-7,2,4,-6,3,74,40,22,16,10
0,-6,-7,2,4,-6,3,77,43,25,18,12
1,-5,-6,1,4,-5,3,80,46,28,21,14
1,-4,-6,1,4,-4,3,82,48,30,23,16
2,-4,-7,1,5,-5,2,83,49,32,25,17
3,-4,-8,0,6,-6,1,84,49,34,26,18
6,-2,-8,-2,7,-5,1,86,51,36,28,20
8,0,-8,-4,8,-3,1,88,53,38,31,22
11,4,-6,-8,8,0,2,91,56,41,34,24
12,7,-5,-10,8,1,3,93,58,44,36,27
10,7,-4,-9,7,2,2,94,59,45,37,28
7,5,-3,-7,5,2,1,94,59,45,38,28
6,5,-2,-6,4,2,0,93,59,46,39,29
6,6,0,-6,3,3,0,93,60,46,40,30
7,8,0,-7,3,4,0,93,60,47,41,31
9,9,0,-9,3,5,0,92,59,47,41,32
9,10,1,-9,3,5,0,90,58,46,41,32
8,8,0,-8,3,4,-1,88,57,45,41,31
8,7,0,-8,4,4,-2,86,56,44,40,31
8,8,0,-8,3,5,-3,84,55,44,40,31
8,10,2,-9,3,6,-3,83,54,43,41,31
9,12,3,-11,3,8,-2,82,54,43,41,31
10,14,3,-12,4,9,-2,81,53,43,41,31
8,13,4,-10,2,9,-2,78,51,41,40,30
6,11,5,-9,0,8,-2,75,49,39,38,29
6,11,4,-9,1,8,-2,72,47,37,36,27
6,11,3,-9,1,8,-1,69,45,36,35,26
7,11,3,-9,2,7,-1,66,44,34,34,25
8,11,3,-10,3,7,-1,63,42,33,32,23
8,11,3,-9,2,7,0,61,40,31,31,22
6,11,5,-8,0,8,0,58,38,29,29,20
3,10,6,-6,-1,8,1,56,37,28,27,19
1,9,7,-5,-3,8,3,54,35,26,26,17
1,9,7,-5,-3,8,3,51,33,25,24,16
2,8,6,-5,-2,7,4,49,31,23,22,14
2,8,6,-5,-2,7,4,46,30,22,21,13
1,7,6,-4,-2,7,5,44,29,21,20,12
0,6,5,-3,-2,6,5,42,27,19,18,11
0,5,5,-2,-3,5,5,39,25,17,16,9
-1,4,5,-1,-3,5,5,37,23,15,13,7
-2,4,5,-1,-3,4,5,35,21,12,10,5
-3,3,5,0,-3,3,6,33,19,11,8,4
-4,1,5,1,-4,3,6,30,18,9,6,3
-6,-1,5,3,-5,2,6,28,16,8,4,1
-8,-3,5,5,-5,1,6,26,15,6,2,0
-7,-3,4,5,-4,0,7,24,14,5,0,-1
-6,-4,3,5,-4,0,8,23,13,4,-1,-2
-7,-4,3,6,-4,0,8,22,12,3,-3,-2
-8,-5,3,6,-5,0,9,21,10,2,-5,-3
-7,-4,3,6,-5,-1,9,19,9,1,-6,-3
-7,-4,2,5,-4,-1,10,18,8,1,-7,-4
-8,-5,3,6,-5,-1,11,17,8,0,-7,-4
-9,-5,4,7,-6,-1,11,16,7,0,-7,-5
-9,-6,4,8,-6,-1,11,15,7,0,-8,-6
-9,-7,3,9,-6,-3,11,13,5,-2,-10,-7
-10,-9,2,10,-6,-4,11,12,4,-3,-11,-9
-11,-10,2,10,-6,-4,11,10,2,-4,-12,-9
-11,-10,2,10,-6,-4,11,9,1,-5,-12,-10
-12,-11,2,11,-6,-4,11,8,1,-5,-12,-10
-12,-11,1,12,-6,-5,12,7,0,-5,-12,-10
-14,-12,1,13,-7,-5,12,7,0,-5,-12,-10
-15,-13,2,14,-7,-5,12,6,0,-5,-12,-10
-15,-13,1,14,-7,-6,12,6,0,-5,-12,-10
-14,-13,1,14,-7,-6,12,6,-1,-5,-12,-10
-14,-13,1,14,-7,-6,12,5,-2,-6,-13,-10
-14,-13,1,14,-7,-6,12,4,-3,-7,-13,-10
-13,-13,0,13,-6,-6,11,3,-3,-8,-14,-10
-12,-13,0,13,-5,-7,11,2,-4,-8,-14,-11
-13,-13,0,13,-5,-7,11,2,-5,-8,-14,-11
-12,-12,0,12,-6,-6,11,2,-4,-7,-14,-10
-10,-10,0,10,-5,-5,12,2,-3,-7,-13,-10
-8,-8,0,8,-3,-4,12,3,-3,-7,-13,-9
-7,-8,0,8,-3,-4,12,3,-3,-7,-13,-9
-9,-8,1,9,-5,-3,13,3,-2,-6,-12,-8
-10,-9,2,10,-6,-3,13,3,-2,-6,-12,-8
-11,-10,1,11,-6,-4,13,3,-2,-6,-12,-8
-11,-11,0,11,-5,-4,12,3,-2,-6,-13,-8
-11,-11,0,11,-4,-5,12,2,-2,-6,-13,-8
-10,-12,-1,11,-3,-6,11,2,-2,-6,-13,-8
-10,-12,-2,11,-3,-6,9,1,-3,-7,-15,-9
-9,-11,-1,11,-3,-6,8,1,-3,-7,-15,-10
-10,-11,0,11,-5,-5,9,1,-2,-7,-15,-9
-11,-11,1,11,-5,-4,10,2,-1,-6,-14,-8
-9,-9,2,9,-5,-3,10,2,0,-5,-13,-7
-9,-7,2,7,-6,-1,10,3,0,-4,-12,-7
-9,-6,3,7,-6,-1,10,3,0,-3,-12,-6
-9,-5,3,7,-6,-1,10,3,0,-3,-11,-6
-9,-5,3,7,-6,-1,10,3,0,-3,-11,-6
-9,-6,3,7,-6,-1,10,3,1,-2,-11,-6
-10,-7,3,8,-6,-2,10,3,1,-2,-10,-6
-11,-9,2,9,-6,-3,10,4,2,-1,-10,-6
-12,-11,1,11,-6,-5,10,7,3,0,-10,-6
-12,-12,1,12,-6,-6,10,11,6,1,-9,-6
-12,-11,1,11,-6,-5,10,18,12,6,-6,-4
-10,-8,2,9,-6,-3,11,27,20,14,0,-1
-7,-3,4,5,-5,0,13,38,29,23,6,3
-5,1,5,2,-5,3,14,49,40,33,15,9
-4,4,7,0,-5,5,15,60,51,45,25,16
-1,8,9,-4,-5,8,16,71,63,57,36,25
4,13,9,-9,-3,12,17,80,73,68,47,34
10,20,10,-15,-1,16,17,84,83,80,60,45
14,26,13,-20,0,20,18,82,91,91,73,56
17,34,18,-26,0,27,18,75,97,102,86,68
18,42,24,-30,-3,34,16,57,99,110,100,81
19,50,31,-35,-6,41,11,27,93,115,111,94
21,59,38,-40,-7,48,3,-10,80,114,119,106
25,66,42,-46,-8,54,-6,-53,60,105,121,113
28,72,45,-51,-7,59,-18,-102,30,86,115,115
31,77,46,-54,-7,62,-30,-151,-4,61,102,111
31,79,48,-55,-9,64,-40,-196,-38,33,83,102
24,76,51,-50,-13,63,-47,-244,-79,-7,54,83
14,67,52,-40,-19,59,-51,-297,-131,-64,10,52
3,54,50,-28,-23,52,-54,-341,-184,-126,-39,16
-4,40,44,-17,-23,42,-57,-361,-218,-170,-78,-14
-8,26,34,-9,-20,30,-61,-356,-232,-190,-101,-35
-8,15,24,-4,-15,19,-63,-338,-231,-195,-113,-49
-9,6,15,1,-12,11,-63,-311,-220,-190,-116,-56
-10,-2,9,5,-10,4,-61,-277,-201,-176,-112,-59
-11,-8,3,9,-7,-2,-56,-239,-176,-157,-104,-58
-10,-12,-2,11,-4,-7,-49,-201,-151,-137,-94,-56
-11,-16,-5,14,-3,-10,-42,-165,-126,-117,-84,-52
-13,-19,-6,16,-2,-12,-34,-134,-103,-98,-74,-47
-13,-20,-7,16,-2,-13,-27,-106,-83,-81,-64,-41
-12,-20,-8,16,-1,-14,-21,-84,-65,-67,-56,-36
-11,-21,-9,15,0,-15,-16,-66,-52,-57,-49,-32
-10,-22,-10,16,0,-16,-13,-53,-44,-50,-44,-30
-11,-23,-11,17,0,-17,-11,-43,-38,-45,-41,-28
-12,-24,-11,18,0,-17,-9,-35,-33,-42,-39,-27
-13,-24,-11,18,0,-17,-7,-28,-28,-39,-38,-27
-14,-24,-10,19,-1,-17,-5,-22,-25,-36,-36,-26
-14,-24,-10,19,-1,-17,-3,-18,-22,-34,-34,-25
-13,-23,-11,18,0,-17,-1,-14,-19,-31,-32,-24
-12,-24,-12,18,0,-18,0,-12,-17,-30,-30,-24
-12,-25,-12,19,0,-19,1,-11,-16,-30,-30,-24
-12,-24,-11,18,0,-18,1,-10,-16,-30,-30,-23
-11,-23,-10,17,0,-17,2,-8,-14,-29,-29,-23
-9,-21,-10,15,1,-16,3,-6,-12,-27,-28,-22
-7,-20,-12,14,3,-16,3,-5,-11,-27,-28,-23
-5,-19,-14,13,5,-17,3,-4,-10,-26,-28,-23
-3,-18,-15,11,7,-17,3,-4,-9,-25,-27,-23
-1,-17,-15,9,7,-16,3,-3,-8,-24,-26,-22
-1,-16,-14,9,6,-15,4,-2,-6,-23,-25,-21
-2,-16,-12,9,5,-14,4,-1,-5,-22,-24,-20
-5,-16,-10,10,3,-13,4,0,-4,-21,-24,-19
-9,-18,-9,13,0,-13,3,0,-3,-21,-24,-19
-13,-21,-8,17,-1,-15,2,1,-3,-21,-24,-20
-14,-22,-9,18,-1,-16,2,1,-2,-20,-25,-21
-12,-22,-9,17,0,-16,2,2,-1,-19,-24,-21
-11,-20,-9,15,0,-14,2,3,0,-18,-23,-20
-9,-19,-8,14,0,-13,3,4,0,-17,-23,-19
-8,-18,-8,13,0,-13,3,5,1,-16,-23,-19
-8,-17,-9,12,0,-13,2,6,2,-16,-22,-18
-8,-17,-9,12,0,-13,2,7,3,-15,-21,-17
-8,-16,-8,12,0,-12,1,9,4,-14,-20,-17
-8,-15,-7,12,0,-11,1,11,6,-13,-19,-16
-7,-14,-7,11,0,-11,1,12,7,-11,-17,-15
-7,-14,-7,11,0,-11,1,14,8,-10,-16,-14
-7,-14,-6,11,0,-10,0,16,10,-9,-15,-13
-6,-13,-6,10,1,-10,0,19,12,-7,-14,-11
-4,-12,-6,8,2,-9,0,22,14,-5,-12,-10
-2,-10,-6,6,2,-8,0,26,17,-3,-10,-9
0,-7,-5,3,3,-6,1,31,20,0,-8,-7
2,-4,-6,0,4,-5,1,36,25,3,-5,-5
4,-2,-6,0,5,-4,2,41,29,7,-2,-3
3,-2,-6,0,5,-4,2,45,32,10,0,-1
2,-3,-5,0,5,-4,3,49,35,13,1,0
2,-3,-5,1,4,-4,3,53,38,15,3,1
1,-4,-5,1,4,-4,2,56,40,17,4,2
2,-3,-6,0,5,-4,2,61,43,20,6,4
5,-1,-7,-2,6,-4,3,66,47,24,9,6
6,0,-7,-3,7,-4,3,70,50,27,11,7
6,0,-7,-3,7,-4,3,74,54,30,14,9
7,1,-6,-4,7,-3,3,78,57,34,16,11
8,2,-6,-5,7,-2,3,80,59,36,19,13
7,2,-5,-5,6,-1,4,82,61,38,20,14
5,2,-2,-4,4,0,4,84,62,39,22,15
4,2,-1,-3,3,0,4,85,62,40,23,16
4,2,-1,-3,3,0,4,86,63,41,24,16
3,2,0,-3,2,0,4,87,64,42,25,17
2,2,0,-2,1,1,4,87,65,43,27,18
1,2,1,-2,0,2,4,88,67,45,28,19
0,2,2,-1,0,2,5,88,67,46,30,20
0,2,2,-1,-1,3,5,88,67,47,30,20
1,4,3,-3,-1,4,5,87,66,47,30,21
2,6,4,-4,-1,6,5,87,66,48,31,22
3,6,4,-4,0,5,5,86,65,48,31,22
3,6,3,-4,0,5,5,85,65,49,31,23
3,7,4,-5,0,5,5,84,64,49,31,23
4,7,3,-5,0,6,5,82,63,48,31,23
4,7,2,-6,1,6,4,79,61,47,31,22
4,7,2,-6,2,5,3,76,59,46,30,22
4,6,1,-5,2,5,2,73,56,44,29,21
4,6,2,-5,1,5,2,70,54,42,28,21
3,7,3,-5,0,5,3,68,53,41,27,21
2,7,5,-5,-1,7,4,67,52,41,27,21
1,7,6,-4,-2,7,4,64,51,40,26,20
0,6,6,-3,-2,6,4,61,49,38,24,18
0,5,6,-3,-2,6,5,57,47,36,23,18
0,6,6,-4,-2,6,5,52,44,34,22,17
0,7,7,-4,-3,7,6,49,42,32,20,17
-1,6,7,-3,-4,7,6,45,39,29,19,16
0,5,6,-3,-3,6,6,41,36,26,16,14
1,5,5,-3,-2,5,6,37,33,23,13,11
1,4,4,-2,-1,4,5,33,30,20,10,9
-1,2,4,0,-2,3,6,30,27,18,9,7
-3,0,4,1,-3,2,6,28,26,16,8,6
-4,0,4,2,-4,2,7,25,24,15,7,5
-6,-1,4,3,-4,2,7,21,21,12,5,4
-5,-2,3,3,-4,1,7,17,18,9,3,3
-4,-2,2,3,-3,0,6,14,15,6,1,2
-3,-3,0,3,-2,-1,6,11,13,4,0,0
-3,-3,0,3,-1,-2,7,9,11,2,-1,-1
-4,-4,0,4,-1,-2,7,7,10,1,-2,-2
-4,-4,0,3,-1,-1,8,5,9,0,-3,-3
-4,-4,1,4,-2,-1,9,3,8,0,-3,-4
-6,-5,1,5,-3,-1,9,1,7,-2,-4,-4
-8,-7,1,7,-4,-2,9,-1,5,-4,-5,-5
-9,-9,1,9,-4,-4,9,-4,3,-6,-6,-6
-10,-10,0,10,-5,-4,9,-5,1,-7,-7,-7
-11,-10,1,11,-6,-4,10,-6,0,-8,-7,-8
-12,-10,3,11,-7,-3,10,-6,0,-9,-8,-8
-12,-10,3,11,-7,-3,10,-6,0,-9,-8,-9
-12,-10,2,11,-6,-4,10,-7,0,-10,-8,-9
-12,-10,1,11,-6,-4,10,-8,0,-11,-8,-9
-13,-10,2,11,-7,-4,10,-8,-1,-12,-8,-9
-13,-10,2,11,-7,-4,10,-9,-2,-13,-8,-9
-12,-10,1,11,-6,-4,10,-10,-3,-14,-8,-10
-12,-10,1,11,-6,-4,10,-10,-4,-14,-9,-10
-11,-9,1,10,-6,-4,10,-10,-4,-15,-9,-11
-10,-10,0,10,-5,-4,9,-10,-4,-15,-9,-11
-10,-11,0,11,-4,-5,9,-10,-5,-16,-10,-11
-11,-12,-1,11,-4,-5,9,-10,-5,-16,-10,-12
-11,-11,0,11,-5,-5,9,-10,-5,-16,-10,-12
-11,-11,0,11,-5,-5,9,-10,-5,-16,-10,-11
-12,-11,0,12,-5,-6,8,-10,-6,-17,-10,-11
-13,-12,0,13,-6,-6,8,-10,-6,-17,-10,-11
-14,-13,0,14,-6,-7,7,-11,-7,-18,-10,-11
-14,-13,0,14,-6,-6,7,-10,-7,-18,-10,-11
-12,-13,0,13,-5,-6,7,-9,-7,-17,-9,-11
-10,-11,0,11,-4,-6,8,-9,-6,-17,-8,-10
-7,-8,-1,8,-3,-4,8,-8,-6,-16,-7,-10
-5,-6,-1,6,-1,-3,9,-8,-5,-15,-6,-9
-3,-4,-1,4,-1,-2,9,-7,-5,-15,-6,-9
-3,-4,-1,4,-1,-2,9,-7,-5,-15,-5,-8
-5,-6,-1,5,-1,-3,9,-6,-5,-15,-5,-8
-6,-7,-1,6,-2,-3,9,-6,-5,-15,-5,-8
-5,-7,-1,6,-1,-4,9,-5,-4,-15,-5,-8
-4,-6,-2,5,0,-4,9,-5,-4,-15,-5,-8
-5,-6,-1,5,-1,-4,9,-6,-5,-15,-5,-8
-7,-7,0,7,-3,-4,8,-6,-5,-16,-6,-8
-7,-7,0,8,-4,-4,8,-7,-5,-16,-6,-8
-5,-7,-1,6,-2,-5,7,-7,-5,-16,-6,-8
-2,-5,-2,4,0,-4,7,-6,-4,-15,-6,-7
0,-2,-2,1,1,-2,8,-5,-3,-14,-4,-6
1,0,-1,0,1,0,9,-5,-3,-14,-3,-5
0,0,-1,0,0,0,9,-5,-3,-14,-3,-5
-2,-2,0,2,-1,-1,8,-6,-3,-15,-3,-5
-4,-3,0,4,-2,-1,8,-6,-3,-15,-3,-5
-3,-2,0,3,-2,-1,8,-6,-2,-14,-3,-5
-2,-1,0,2,-2,0,8,-6,-2,-14,-3,-4
-1,0,1,1,-1,0,8,-6,-2,-13,-2,-4
-1,0,2,0,-2,1,8,-6,-2,-13,-2,-3
-2,0,3,1,-2,2,7,-6,-1,-13,-1,-3
-3,0,2,1,-2,1,6,-7,-2,-14,-2,-4
-1,-1,0,1,0,-1,5,-8,-3,-14,-2,-4
0,-1,-2,0,1,-2,4,-8,-3,-14,-2,-4
2,0,-3,-1,2,-1,5,-7,-2,-14,-2,-4
2,1,-2,-2,2,0,5,-7,-2,-14,-1,-3
0,1,0,0,0,0,5,-6,-1,-14,-1,-2
-3,-1,1,2,-2,0,5,-6,-2,-15,-1,-2
-6,-3,3,5,-4,0,4,-7,-2,-15,-1,-3
-6,-3,3,4,-4,1,4,-7,-2,-15,-1,-3
-5,-1,4,3,-4,2,5,-6,-2,-15,0,-2
-4,1,4,1,-4,3,5,-6,-1,-14,1,-1
-1,3,3,0,-2,3,5,-6,-1,-15,1,-1
2,3,1,-2,0,2,5,-7,-1,-15,0,-1
2,3,1,-2,0,1,6,-7,-1,-15,0,-1
1,3,2,-2,0,3,6,-6,-1,-15,0,-1
3,5,2,-3,0,4,7,-6,-1,-15,0,0
4,5,1,-4,2,3,6,-7,-2,-15,0,-1
3,4,0,-4,2,3,6,-8,-3,-16,0,-1
3,4,0,-3,2,2,6,-8,-3,-16,0,-1
2,3,0,-3,1,2,6,-8,-3,-16,0,-1
2,3,1,-2,0,2,6,-8,-3,-16,0,-1
1,3,1,-2,0,2,6,-8,-3,-16,0,-1
0,2,2,-1,0,2,7,-8,-2,-16,0,-1
1,2,2,-1,0,3,7,-7,-2,-16,0,0
3,4,1,-3,1,4,7,-7,-2,-16,0,0
3,5,1,-4,2,4,7,-8,-2,-17,0,-1
2,4,1,-3,1,3,6,-8,-3,-18,-1,-1
2,3,1,-3,0,2,6,-8,-3,-18,-1,-1
3,4,0,-4,1,2,6,-8,-3,-19,-1,-1
5,5,0,-5,2,3,6,-8,-3,-20,-1,-1
5,5,1,-5,2,3,5,-9,-4,-21,-1,-2
4,4,1,-4,2,3,3,-10,-5,-23,-2,-2
3,3,0,-3,2,2,2,-11,-6,-24,-3,-3
4,4,0,-4,3,2,2,-12,-6,-24,-3,-3
5,5,0,-5,3,3,2,-12,-5,-23,-2,-2
6,6,1,-6,3,4,3,-11,-5,-23,-2,-2
5,6,1,-6,2,4,3,-11,-5,-23,-3,-2
5,6,1,-6,1,4,3,-11,-5,-23,-3,-2
6,7,1,-6,1,4,3,-11,-5,-23,-3,-2
6,8,2,-6,1,5,3,-11,-5,-23,-3,-2
6,8,2,-7,2,5,2,-12,-5,-24,-3,-2
7,10,2,-8,3,6,2,-13,-5,-24,-4,-2
9,11,2,-10,3,7,2,-14,-5,-24,-4,-1
9,13,3,-11,3,8,2,-14,-6,-24,-4,-1
10,13,2,-12,4,8,1,-15,-6,-24,-4,-1
10,12,1,-11,4,7,0,-16,-7,-25,-4,-1
8,10,1,-9,3,5,-1,-16,-7,-25,-5,-1
7,8,1,-8,3,5,-2,-17,-8,-25,-5,-1
8,8,0,-8,4,5,-2,-17,-8,-25,-5,-1
8,9,0,-9,4,5,-2,-17,-8,-25,-5,0
8,10,1,-10,4,6,-2,-17,-8,-25,-5,0
10,11,0,-11,5,6,-2,-16,-7,-24,-5,0
15,15,0,-15,8,7,0,-14,-5,-22,-3,1
18,17,0,-18,10,8,2,-12,-4,-20,-1,3
20,18,-1,-19,11,9,3,-11,-2,-19,0,4
21,18,-2,-20,12,8,3,-11,-2,-19,0,4
21,18,-2,-19,12,8,4,-11,-2,-19,0,4
20,17,-3,-19,12,7,4,-11,-2,-19,0,4
19,15,-4,-18,12,6,4,-11,-3,-20,0,4
16,13,-4,-15,11,4,4,-12,-4,-21,-1,3
12,10,-3,-11,8,3,4,-12,-5,-22,-2,2
10,9,-1,-9,6,3,5,-12,-5,-22,-2,1
9,10,0,-8,4,5,7,-11,-4,-21,-2,1
8,10,1,-8,3,5,8,-11,-4,-21,-2,1
8,9,0,-8,4,4,8,-12,-5,-22,-3,1
7,8,0,-8,4,3,8,-12,-5,-23,-4,0
6,7,0,-7,4,3,8,-12,-5,-23,-4,0
5,7,0,-7,3,4,9,-12,-6,-22,-5,0
4,6,0,-5,2,3,9,-12,-6,-22,-6,-1
4,5,0,-4,2,2,9,-13,-6,-22,-6,-2
6,5,0,-5,3,2,10,-13,-6,-21,-6,-2
6,6,0,-5,3,3,11,-12,-5,-21,-6,-1
5,6,1,-5,1,4,12,-11,-5,-20,-5,-1
5,7,2,-6,1,5,12,-11,-5,-20,-5,-1
5,7,2,-6,1,5,12,-11,-5,-20,-6,-1
6,7,0,-7,3,4,12,-11,-5,-20,-6,-1
8,8,0,-9,4,4,12,-11,-5,-20,-6,-1
9,8,-1,-8,5,3,12,-11,-6,-21,-7,-2
6,5,-1,-5,3,2,11,-12,-7,-22,-8,-3
4,3,0,-2,2,1,11,-13,-7,-23,-8,-3
2,2,0,-1,1,1,11,-13,-7,-23,-9,-3
2,3,1,-2,0,2,11,-12,-7,-23,-8,-3
3,5,1,-3,1,3,12,-12,-6,-23,-8,-2
4,5,0,-4,2,3,11,-12,-6,-23,-8,-3
4,5,0,-5,2,3,11,-11,-6,-23,-8,-3
6,7,0,-6,2,4,12,-11,-6,-22,-7,-2
8,8,0,-8,3,4,12,-10,-5,-20,-6,-2
8,8,0,-7,3,4,12,-10,-5,-20,-6,-2
8,8,0,-7,3,4,11,-11,-6,-19,-6,-2
8,7,-1,-7,4,3,11,-11,-6,-19,-7,-3
8,7,-1,-7,5,3,10,-11,-6,-19,-7,-3
7,8,0,-8,4,4,10,-10,-6,-18,-6,-2
8,8,0,-9,5,4,10,-9,-5,-17,-6,-2
9,9,0,-10,5,4,10,-10,-5,-16,-6,-2
9,9,0,-9,4,4,9,-10,-6,-15,-7,-3
7,8,1,-7,3,4,8,-11,-7,-14,-7,-4
7,8,1,-7,3,4,8,-11,-7,-14,-8,-4
8,9,0,-8,3,5,7,-10,-7,-14,-8,-4
8,9,0,-8,4,5,7,-10,-7,-13,-8,-4
9,9,0,-9,5,5,7,-10,-7,-13,-8,-4
9,9,0,-10,5,5,7,-10,-6,-12,-8,-4
10,10,0,-11,5,5,8,-9,-6,-12,-8,-4
10,11,0,-11,5,5,8,-9,-5,-11,-8,-4
9,10,0,-10,4,5,9,-8,-5,-11,-7,-4
9,10,0,-9,4,5,10,-7,-5,-11,-7,-3
9,10,-1,-9,5,4,10,-7,-5,-11,-7,-3
9,9,-1,-9,5,4,9,-7,-5,-11,-7,-4
9,9,-1,-9,5,4,9,-7,-5,-11,-8,-4
8,7,-1,-8,4,3,9,-6,-5,-11,-8,-4
7,6,-1,-7,4,2,8,-7,-6,-11,-9,-5
7,5,-2,-6,4,1,8,-7,-6,-12,-9,-5
7,4,-2,-6,4,1,7,-7,-6,-11,-9,-5
6,4,-2,-5,4,1,7,-7,-6,-11,-9,-5
5,3,-2,-4,3,0,7,-7,-6,-11,-9,-5
5,3,-2,-3,3,0,7,-6,-7,-11,-10,-5
5,3,-2,-4,3,1,7,-6,-7,-11,-10,-5
5,4,-1,-4,3,1,7,-6,-7,-11,-10,-5
5,4,-1,-5,3,1,6,-5,-7,-11,-10,-6
7,3,-3,-5,4,0,6,-3,-7,-11,-10,-6
8,3,-4,-5,6,-1,5,-1,-7,-10,-10,-7
7,2,-5,-5,6,-1,5,2,-5,-8,-10,-7
6,1,-5,-3,6,-2,6,8,-2,-6,-9,-7
3,0,-4,-1,4,-2,7,15,3,-2,-8,-6
2,-1,-3,0,3,-2,9,23,9,2,-5,-5
2,0,-3,-1,3,-1,10,31,15,7,-2,-3
4,1,-2,-3,3,0,11,38,21,13,3,1
6,4,-1,-5,4,1,12,44,28,20,9,6
7,6,0,-6,3,3,13,49,34,27,16,13
9,8,0,-8,4,4,13,52,39,34,23,19
14,13,0,-13,7,6,12,52,44,41,32,28
21,20,-1,-21,11,10,9,47,48,50,43,39
27,29,1,-28,13,15,6,37,51,59,55,52
32,39,7,-36,13,23,4,24,55,69,70,67
35,51,16,-43,10,34,1,5,56,78,86,85
36,62,25,-49,6,43,-6,-19,53,85,102,102
38,71,33,-54,2,52,-17,-49,47,91,116,119
39,81,42,-60,-1,62,-28,-81,38,93,126,132
39,91,52,-65,-6,72,-37,-113,25,89,128,137
35,94,59,-64,-12,77,-45,-144,7,76,120,132
27,87,60,-57,-16,73,-52,-174,-17,54,100,116
16,72,56,-44,-20,64,-57,-208,-50,17,67,90
5,57,51,-31,-23,54,-63,-243,-90,-30,24,57
0,44,44,-22,-22,44,-68,-271,-128,-78,-18,23
-5,29,34,-12,-20,31,-73,-287,-159,-117,-55,-8
-11,10,21,0,-16,15,-78,-291,-180,-143,-82,-34
-15,-9,6,12,-11,-1,-81,-285,-190,-158,-100,-53
-16,-21,-5,19,-6,-13,-80,-267,-190,-161,-108,-64
-16,-28,-11,22,-3,-19,-74,-243,-181,-156,-110,-69
-16,-33,-17,25,0,-25,-67,-219,-170,-148,-108,-72
-16,-38,-22,27,2,-30,-62,-195,-157,-138,-104,-73
-16,-41,-26,28,5,-33,-56,-172,-142,-126,-97,-71
-14,-42,-27,28,6,-34,-50,-148,-125,-112,-89,-66
-13,-40,-26,26,7,-33,-44,-125,-107,-97,-79,-60
-11,-35,-24,24,6,-30,-36,-103,-89,-82,-70,-53
-10,-31,-21,21,5,-26,-29,-83,-74,-68,-61,-46
-8,-28,-20,18,5,-24,-23,-66,-61,-57,-53,-41
-8,-26,-18,17,5,-22,-18,-52,-51,-48,-48,-38
-10,-25,-15,17,3,-20,-14,-41,-44,-42,-44,-36
-11,-24,-14,17,1,-19,-11,-32,-38,-38,-41,-34
-11,-24,-13,17,1,-19,-9,-24,-33,-34,-38,-32
-10,-22,-13,16,1,-18,-6,-18,-29,-30,-36,-30
-8,-20,-12,14,1,-16,-2,-12,-24,-26,-33,-27
-5,-17,-11,12,2,-14,0,-8,-20,-23,-30,-25
-2,-14,-12,8,4,-12,2,-5,-17,-21,-29,-23
1,-11,-12,5,6,-11,3,-2,-16,-19,-28,-23
1,-11,-12,4,7,-11,3,0,-15,-18,-27,-22
0,-11,-12,4,7,-11,3,2,-14,-18,-26,-22
-1,-11,-12,5,6,-11,3,4,-13,-17,-25,-21
-2,-13,-11,7,5,-12,3,4,-13,-18,-25,-21
-2,-14,-12,8,5,-12,2,5,-13,-18,-24,-21
-2,-14,-12,8,5,-13,2,5,-12,-18,-24,-21
-3,-14,-11,8,4,-12,2,6,-12,-17,-23,-20
-4,-15,-10,9,3,-12,1,7,-11,-17,-22,-20
-6,-17,-10,11,2,-13,1,7,-12,-18,-22,-21
-8,-19,-10,13,2,-15,1,7,-12,-18,-21,-22
-9,-20,-11,14,2,-16,2,8,-11,-18,-21,-22
-8,-20,-12,14,3,-16,2,8,-11,-18,-21,-22
-5,-19,-13,13,4,-16,3,9,-10,-18,-21,-22
-5,-19,-14,13,4,-16,3,9,-10,-18,-21,-22
-5,-21,-14,14,4,-17,3,9,-9,-18,-21,-22
-6,-22,-14,14,4,-18,3,10,-9,-18,-21,-22
-7,-21,-13,14,3,-17,4,11,-8,-17,-21,-22
-5,-19,-13,11,4,-16,5,12,-7,-16,-21,-21
-4,-17,-12,10,4,-14,7,15,-5,-14,-20,-20
-6,-17,-10,11,2,-13,9,16,-3,-12,-20,-20
-9,-18,-8,13,0,-13,9,17,-2,-11,-21,-20
-8,-18,-8,13,0,-12,9,19,-1,-10,-21,-20
-6,-16,-9,11,1,-12,10,20,0,-9,-20,-19
-4,-14,-10,9,2,-12,10,22,1,-8,-20,-19
-4,-15,-10,9,3,-13,11,23,2,-7,-20,-19
-6,-16,-10,11,2,-14,11,25,3,-6,-20,-18
-8,-17,-9,12,1,-14,12,27,5,-5,-19,-18
-7,-16,-9,11,1,-13,13,30,7,-3,-18,-17
-7,-15,-8,11,1,-12,14,32,10,-1,-17,-16
-7,-16,-9,12,0,-12,14,34,11,0,-16,-15
-7,-17,-9,13,0,-13,13,36,13,1,-15,-15
-8,-18,-9,13,0,-13,13,38,14,2,-13,-14
-7,-17,-9,12,0,-13,13,41,16,3,-12,-13
-5,-15,-9,10,1,-12,13,44,18,5,-10,-12
-3,-13,-9,8,3,-11,13,48,21,8,-8,-10
-2,-12,-9,6,4,-10,13,52,24,10,-6,-9
-1,-10,-8,5,4,-9,12,54,26,13,-5,-7
-2,-11,-8,7,3,-9,12,57,28,15,-3,-6
-4,-12,-8,8,1,-9,11,59,30,17,-1,-5
-4,-12,-7,8,1,-9,11,62,33,19,1,-3
-3,-10,-6,7,1,-7,11,65,36,22,4,0
-3,-8,-4,5,1,-6,11,69,39,25,6,1
-2,-6,-3,4,1,-5,10,72,41,28,9,3
-1,-5,-3,3,1,-4,9,74,44,30,11,5
0,-3,-3,2,2,-3,9,76,46,33,13,7
1,-1,-2,0,2,-1,9,77,48,35,15,9
1,0,0,0,1,0,8,77,49,36,18,10
1,1,0,-1,0,1,7,78,50,38,20,12
3,4,1,-3,0,3,5,78,50,40,22,14
5,8,2,-7,1,5,4,79,51,41,24,16
8,12,3,-11,2,7,4,79,53,43,27,19
11,16,4,-14,3,10,3,80,54,45,29,21
12,17,5,-15,3,10,3,79,55,46,30,22
11,16,5,-14,3,10,2,78,55,46,30,23
11,15,5,-14,3,10,1,77,54,47,31,24
13,17,5,-15,4,11,1,77,54,47,33,25
14,18,5,-16,4,12,1,77,54,48,34,26
13,19,6,-16,4,12,1,77,54,48,36,28
12,19,6,-15,3,12,1,76,54,48,36,28
12,19,6,-15,3,12,1,75,53,47,36,28
12,18,5,-15,3,11,0,73,52,46,36,28
12,17,5,-14,3,11,0,71,50,45,35,28
12,18,6,-15,3,12,1,69,49,44,35,28
15,20,6,-17,4,14,2,67,49,44,34,28
17,23,6,-20,5,15,3,66,48,43,34,28
18,24,5,-21,6,15,3,64,47,42,34,28
19,24,4,-22,7,14,3,61,45,40,32,26
18,23,4,-21,7,14,3,57,42,37,30,25
16,22,5,-19,6,13,4,54,40,35,28,24
13,20,6,-17,4,13,5,51,39,34,26,23
8,16,7,-12,1,12,6,47,37,32,23,21
2,11,8,-7,-2,10,6,43,34,29,20,19
-1,9,9,-4,-4,9,6,39,31,26,17,17
-1,8,10,-3,-5,9,6,37,29,24,15,15
-1,8,10,-3,-5,9,8,35,27,22,14,14
-2,8,10,-3,-5,8,9,32,25,21,12,13
-3,7,10,-3,-6,8,10,30,24,20,11,12
-3,7,10,-3,-6,8,11,27,23,18,9,11
-4,6,9,-2,-6,7,11,24,21,16,8,9
-5,3,9,0,-7,6,11,22,19,15,6,8
-8,0,8,3,-8,5,11,19,16,13,5,7
-10,-2,8,6,-9,4,11,16,13,10,3,4
-10,-4,7,7,-9,2,10,14,10,8,1,2
-8,-3,5,6,-7,1,11,12,9,7,0,1
-6,-2,4,4,-5,1,11,10,8,6,0,1
-5,0,4,3,-4,2,12,9,7,5,0,1
-4,0,4,2,-4,3,13,7,7,5,0,1
-3,2,5,1,-4,4,14,6,6,5,0,1
-2,3,6,0,-4,5,15,6,6,5,0,1
-1,3,5,0,-3,4,16,5,5,4,0,1
-1,2,5,0,-3,3,16,3,4,3,0,1
-2,1,5,1,-3,3,16,2,3,2,-1,0
-3,0,5,1,-4,2,15,1,2,1,-1,0
-5,0,5,2,-5,2,15,0,1,1,-2,-1
-6,-1,5,3,-5,1,14,0,0,0,-3,-2
-6,-2,3,4,-5,0,14,-2,-1,0,-4,-3
-6,-3,3,5,-4,0,13,-3,-2,-1,-4,-4
-4,-2,2,3,-3,0,14,-3,-2,-1,-4,-4
-1,-1,2,1,-2,0,14,-3,-3,-1,-4,-4
-1,-1,2,1,-2,0,14,-4,-3,-2,-5,-4
-3,-1,2,2,-3,0,14,-4,-4,-2,-5,-5
-4,-2,2,2,-3,0,14,-4,-4,-2,-5,-5
-4,-2,2,2,-3,0,14,-4,-4,-2,-6,-5
-4,-2,1,3,-3,0,13,-4,-4,-3,-6,-6
-4,-2,1,3,-3,0,13,-4,-4,-3,-6,-6
-3,-2,1,3,-3,0,14,-3,-3,-2,-6,-6
-5,-3,2,4,-3,0,13,-2,-4,-3,-7,-6
-6,-5,2,5,-4,-1,12,-2,-5,-4,-8,-7
-7,-6,1,6,-4,-2,12,-2,-5,-4,-9,-7
-6,-5,1,5,-3,-2,12,-2,-5,-4,-9,-7
-4,-3,2,4,-3,-1,12,-1,-5,-3,-9,-7
-3,-1,2,2,-2,0,13,0,-4,-3,-9,-6
-1,1,2,0,-2,1,13,1,-3,-2,-9,-6
0,2,2,-1,-1,2,14,2,-3,-2,-9,-5
0,1,2,0,-1,2,13,3,-3,-2,-10,-6
-2,-1,2,1,-2,1,13,3,-4,-2,-11,-7
-2,-1,2,1,-1,0,13,4,-4,-2,-11,-6
-2,-1,2,1,-1,1,14,6,-3,-1,-10,-5
-2,0,2,1,-2,1,15,7,-2,0,-9,-5
-2,0,2,0,-2,1,15,7,-2,0,-8,-5
0,0,0,0,0,0,14,7,-2,0,-8,-5
0,0,0,0,0,0,13,7,-3,-1,-9,-6
-3,-3,0,3,-2,-1,11,7,-3,-2,-10,-7
-5,-5,0,5,-2,-2,10,7,-4,-3,-10,-7
-4,-4,0,4,-1,-2,10,7,-5,-3,-10,-7
-4,-3,0,3,-1,-1,10,7,-5,-2,-9,-7
-3,-2,1,3,-1,0,10,8,-5,-2,-9,-6
-3,-1,1,2,-1,0,10,8,-4,-1,-8,-6
-1,1,1,0,-1,1,11,9,-3,0,-6,-5
1,3,1,-2,0,2,12,9,-2,0,-4,-5
2,4,2,-3,-1,3,12,10,-2,0,-3,-4
2,5,3,-3,-1,4,12,10,-1,1,-2,-4
3,4,1,-4,0,3,12,11,-1,1,-2,-4
3,3,0,-4,2,2,12,11,-1,1,-1,-4
3,2,-1,-3,2,1,11,11,-1,1,-1,-4
3,2,-1,-3,2,0,11,12,-1,1,-1,-4
4,1,-2,-3,2,0,11,14,0,2,-1,-5
4,0,-3,-2,3,-1,10,17,2,3,-1,-5
5,1,-3,-3,3,-1,11,23,6,7,1,-4
7,4,-3,-6,4,1,11,31,13,13,5,-2
8,7,-1,-8,4,3,12,40,21,20,10,1
7,10,3,-9,2,7,13,48,29,28,16,6
5,12,7,-9,0,10,14,56,37,36,23,11
6,14,9,-10,-1,11,15,63,45,44,30,17
7,16,9,-12,-1,12,15,70,52,52,38,24
10,18,8,-14,0,13,15,76,58,59,46,32
14,20,6,-17,3,13,14,76,62,65,53,39
19,24,5,-22,6,15,13,69,64,70,61,48
22,29,7,-26,6,19,12,56,64,74,71,58
24,36,12,-31,6,24,10,35,61,78,81,70
27,44,17,-36,5,30,5,4,51,78,90,81
30,52,21,-41,5,36,-1,-34,34,71,93,88
34,59,24,-47,6,41,-10,-77,9,56,88,91
37,64,27,-51,5,45,-19,-123,-20,36,77,88
35,65,31,-50,2,48,-27,-167,-51,11,61,78
27,62,35,-45,-4,48,-33,-216,-89,-26,33,60
18,55,37,-36,-10,46,-37,-273,-142,-84,-10,31
9,47,38,-28,-14,43,-39,-323,-198,-147,-58,-2
3,39,36,-21,-16,38,-41,-346,-233,-190,-94,-31
-1,31,31,-15,-15,31,-43,-341,-245,-209,-114,-50
-3,22,25,-9,-13,23,-45,-322,-243,-211,-123,-62
-6,12,18,-3,-12,15,-46,-296,-232,-203,-123,-69
-7,5,12,1,-10,8,-45,-262,-212,-187,-118,-70
-8,0,9,3,-9,5,-41,-225,-186,-166,-107,-67
-9,-2,7,5,-9,3,-36,-186,-158,-143,-93,-61
-9,-4,5,6,-7,1,-30,-149,-131,-120,-79,-55
-9,-5,3,6,-5,-1,-23,-115,-105,-98,-66,-48
-7,-6,1,6,-3,-2,-16,-84,-82,-78,-53,-40
-5,-5,0,4,-1,-2,-10,-59,-63,-61,-43,-34
-3,-5,-2,3,0,-4,-5,-41,-49,-49,-35,-29
-2,-8,-4,4,1,-6,-2,-28,-40,-41,-29,-26
-3,-10,-5,6,0,-7,0,-19,-34,-36,-26,-25
-5,-11,-6,7,0,-8,1,-12,-29,-33,-24,-24
-5,-11,-6,8,0,-8,2,-6,-25,-30,-23,-23
-5,-12,-7,9,1,-9,3,-1,-22,-27,-21,-22
-4,-12,-8,9,2,-9,3,2,-19,-25,-20,-22
-4,-12,-8,8,2,-10,3,5,-17,-23,-19,-22
-3,-11,-8,8,2,-10,4,7,-15,-21,-18,-21
-4,-12,-8,8,2,-10,4,8,-14,-20,-17,-20
-4,-13,-9,9,2,-11,4,10,-14,-20,-17,-20
-3,-13,-9,9,2,-11,4,11,-13,-19,-16,-19
-2,-12,-9,8,3,-11,4,13,-11,-18,-16,-19
-2,-12,-9,7,4,-11,4,16,-9,-17,-15,-19
-2,-12,-10,7,4,-10,4,17,-8,-17,-15,-19
-2,-12,-10,7,4,-10,4,19,-7,-16,-14,-19
-3,-13,-10,8,4,-11,3,20,-6,-16,-14,-18
-4,-14,-10,9,3,-11,3,20,-6,-16,-14,-18
-5,-15,-10,9,2,-12,2,19,-6,-16,-14,-19
-5,-16,-10,10,2,-13,2,19,-6,-16,-15,-19
-4,-15,-10,9,2,-13,2,19,-6,-15,-15,-19
-3,-14,-11,8,3,-12,2,21,-4,-14,-15,-19
-3,-14,-11,8,4,-12,2,22,-3,-14,-15,-19
-4,-15,-12,10,4,-13,1,22,-2,-14,-15,-19
-6,-17,-12,11,4,-14,1,22,-2,-14,-15,-20
-5,-18,-12,11,4,-14,1,22,-2,-13,-15,-19
-3,-16,-12,9,4,-13,2,22,-1,-12,-15,-19
-2,-15,-12,8,4,-13,2,23,-1,-12,-15,-19
-3,-16,-12,9,4,-14,2,24,0,-12,-15,-19
-3,-15,-11,8,3,-13,3,26,1,-10,-13,-18
-3,-13,-9,7,3,-11,5,30,5,-8,-11,-16
-3,-11,-8,7,2,-10,6,32,8,-6,-9,-14
-5,-12,-7,8,1,-9,7,34,9,-4,-8,-14
-7,-13,-6,10,0,-9,6,35,10,-3,-8,-13
-7,-14,-7,11,0,-10,6,36,10,-3,-7,-13
-5,-14,-8,10,1,-11,5,36,11,-2,-7,-13
-3,-14,-10,9,2,-12,4,37,11,-1,-7,-13
-4,-15,-11,9,2,-12,3,38,12,0,-6,-13
-6,-16,-9,11,1,-12,3,40,15,1,-5,-12
-10,-15,-5,12,-2,-10,3,43,18,4,-2,-10
-11,-14,-3,13,-3,-9,3,45,21,7,0,-9
-10,-13,-3,11,-3,-8,3,47,24,9,1,-7
-7,-11,-3,9,-2,-7,2,49,27,12,3,-5
-6,-10,-4,8,-1,-6,2,52,29,14,5,-4
-5,-10,-4,7,-1,-6,3,55,32,17,7,-2
-4,-9,-4,6,0,-6,3,59,35,20,9,0
-4,-8,-4,5,0,-6,2,62,38,23,11,1
-4,-7,-4,5,0,-5,1,65,42,25,13,2
-3,-6,-3,4,0,-4,1,68,45,29,16,4
-2,-3,-2,2,0,-2,0,71,49,33,19,7
-2,-1,0,1,-1,0,0,73,52,36,22,10
-2,0,2,0,-2,2,0,74,54,38,24,12
0,2,3,-1,-2,3,-1,75,55,40,26,14
2,4,4,-3,-1,4,-2,75,56,41,28,16
4,6,3,-5,0,4,-4,76,57,42,30,17
5,7,3,-6,0,5,-6,76,58,43,31,18
6,9,3,-8,1,6,-7,77,59,45,34,19
7,11,4,-9,1,7,-8,77,61,47,36,21
8,13,5,-10,2,9,-8,78,62,48,39,24
9,15,5,-12,2,10,-8,78,63,49,41,26
10,17,7,-13,1,12,-8,78,63,50,42,28
10,18,8,-14,1,13,-8,78,63,51,44,29
11,19,8,-15,1,14,-8,78,64,52,45,30
12,20,8,-17,1,14,-7,78,65,53,46,32
13,21,8,-18,2,14,-7,77,65,53,47,33
12,20,8,-16,1,14,-7,75,64,52,46,32
10,19,9,-15,0,14,-8,73,63,51,46,32
10,19,9,-14,0,14,-7,71,62,51,45,33
10,19,9,-14,0,14,-7,69,61,50,45,33
9,19,9,-14,-1,15,-7,68,60,50,45,32
8,18,10,-13,-2,14,-7,65,58,48,43,31
6,17,10,-12,-2,14,-6,62,55,45,41,29
7,18,11,-13,-2,14,-5,60,54,43,39,28
10,20,11,-16,0,15,-3,58,53,42,37,28
11,21,10,-17,1,15,-1,56,51,40,36,27
12,21,9,-17,1,15,0,53,48,38,34,26
11,20,9,-16,1,14,0,50,46,36,32,24
11,18,7,-15,1,13,1,47,43,33,30,23
9,16,7,-13,1,12,2,45,40,30,27,21
7,14,7,-10,0,11,3,42,37,27,24,18
5,12,7,-9,-1,10,3,39,34,24,21,15
4,11,6,-8,-1,9,3,35,31,20,18,12
3,9,5,-6,-1,8,2,31,28,17,16,10
2,6,4,-5,-1,6,2,28,25,15,14,9
1,4,3,-2,-1,4,2,25,22,12,12,7
-1,2,4,0,-3,3,3,22,20,9,10,6
-4,0,5,1,-5,3,3,20,17,7,8,4
-6,0,6,3,-6,3,4,18,15,4,7,2
-7,0,6,3,-6,3,5,16,13,2,5,1
-5,0,6,2,-6,3,6,14,12,1,4,0
-4,1,4,1,-4,2,7,12,10,0,3,0
-3,0,3,1,-3,1,7,10,9,-1,2,-1
-2,0,2,1,-2,1,8,9,8,-2,2,-2
-2,0,3,1,-2,2,9,8,7,-3,1,-2
-3,0,3,2,-3,2,9,7,6,-4,0,-3
-5,-1,4,4,-4,2,9,6,5,-5,-1,-5
-8,-3,5,6,-6,2,9,5,4,-6,-3,-6
-11,-3,7,7,-9,2,10,5,4,-6,-3,-6
-13,-3,9,8,-11,3,11,5,4,-6,-4,-6
-12,-3,9,7,-11,3,11,4,4,-7,-4,-6
-11,-2,9,6,-10,3,11,3,4,-7,-5,-6
-10,-3,8,7,-10,3,12,2,3,-7,-5,-7
-8,-3,7,6,-8,2,12,1,2,-8,-7,-8
-8,-3,6,6,-7,1,11,1,2,-9,-8,-9
-10,-5,6,7,-8,1,11,0,1,-10,-10,-10
-11,-5,6,8,-9,0,11,0,0,-10,-11,-10
-9,-4,5,6,-8,0,11,0,0,-10,-11,-10
-9,-4,5,6,-7,0,11,-1,0,-10,-12,-10
-11,-6,5,8,-8,-1,10,-2,0,-11,-12,-11
-12,-7,5,9,-8,-2,9,-3,0,-11,-13,-11
-10,-7,4,9,-7,-1,10,-3,1,-10,-12,-11
-8,-6,3,7,-6,-1,10,-3,1,-10,-12,-11
-7,-5,2,6,-5,-1,10,-4,0,-11,-13,-12
-7,-5,2,6,-5,-1,10,-4,0,-12,-14,-12
-7,-4,2,5,-5,0,10,-4,0,-12,-13,-12
-6,-2,3,4,-4,0,11,-4,0,-12,-12,-11
-5,-2,3,3,-4,1,11,-4,1,-11,-11,-10
-5,-1,4,3,-4,1,11,-4,1,-11,-11,-9
-3,0,4,2,-4,2,12,-4,1,-10,-10,-9
-1,1,4,0,-3,3,13,-4,2,-10,-9,-8
0,2,4,-1,-2,4,13,-4,2,-10,-9,-8
1,3,3,-2,-1,4,14,-4,2,-10,-8,-7
1,3,3,-2,-1,3,14,-3,2,-10,-8,-7
0,3,3,-1,-1,3,13,-4,2,-10,-8,-7
-2,1,3,0,-2,2,12,-5,1,-10,-8,-8
-4,-1,2,2,-3,1,11,-6,1,-11,-8,-8
-4,-1,3,3,-3,1,11,-6,1,-10,-8,-8
-5,-1,3,3,-4,1,11,-6,1,-10,-8,-8
-6,-2,4,4,-5,1,10,-6,0,-11,-9,-8
-8,-4,4,6,-6,0,10,-7,0,-12,-10,-9
-9,-4,4,7,-7,0,9,-8,-1,-13,-11,-9
-7,-3,3,5,-5,0,10,-8,-1,-12,-10,-9
-4,0,2,1,-3,1,10,-7,0,-11,-9,-8
-2,1,2,0,-2,1,10,-7,0,-11,-9,-7
-2,1,2,0,-2,1,10,-7,0,-11,-8,-7
0,1,1,0,-1,1,10,-7,1,-10,-8,-6
0,2,2,-1,0,1,10,-6,1,-10,-7,-6
0,1,2,0,-1,2,10,-7,1,-10,-8,-6
-1,1,2,0,-2,2,10,-7,1,-10,-8,-6
-1,1,2,0,-2,1,10,-7,1,-10,-9,-7
0,1,1,-1,-1,1,10,-7,1,-10,-9,-7
0,2,1,-2,-1,2,10,-8,1,-9,-8,-7
1,3,1,-2,0,2,9,-8,0,-10,-9,-7
1,3,1,-2,0,2,9,-9,0,-10,-9,-7
1,3,2,-1,0,2,9,-8,1,-10,-9,-7
1,3,2,-1,0,2,9,-8,1,-10,-9,-6
2,3,1,-2,0,2,9,-8,1,-10,-9,-6
3,4,0,-4,1,2,10,-7,2,-10,-9,-5
2,4,1,-3,0,2,10,-5,3,-9,-8,-5
0,3,2,-1,-1,2,11,-2,5,-7,-7,-5
0,3,2,-2,-1,3,12,3,8,-4,-6,-4
2,4,1,-3,0,3,12,10,14,0,-3,-2
3,4,1,-4,1,3,13,20,21,7,1,0
3,5,2,-4,1,4,13,31,30,15,6,4
4,8,4,-6,0,6,14,42,40,25,14,10
6,13,6,-10,0,10,15,52,51,36,23,17
8,17,8,-13,0,13,15,62,61,47,33,25
11,21,9,-16,1,15,14,71,71,58,44,34
14,25,10,-20,1,17,14,79,81,69,56,44
19,32,13,-25,2,22,13,83,89,79,68,56
24,40,16,-32,3,28,12,78,93,87,79,68
29,49,21,-39,3,35,11,67,95,94,91,80
33,59,27,-46,3,43,10,49,92,98,101,93
36,67,31,-52,3,50,9,23,84,97,108,104
39,73,34,-56,3,54,5,-10,67,89,110,110
40,76,36,-58,2,56,-1,-49,44,75,106,111
39,78,38,-58,0,58,-9,-92,16,55,95,106
35,77,42,-56,-3,59,-18,-135,-14,31,80,97
29,75,46,-52,-9,60,-25,-180,-48,1,57,81
20,69,50,-44,-15,59,-32,-228,-89,-41,23,55
10,60,50,-35,-20,55,-38,-276,-134,-92,-18,23
4,52,48,-28,-22,50,-45,-312,-172,-138,-57,-7
0,43,43,-22,-21,43,-52,-330,-198,-169,-85,-31
-3,32,35,-14,-19,34,-60,-333,-212,-186,-102,-48
-5,19,24,-7,-15,22,-67,-324,-216,-192,-111,-59
-4,8,12,-1,-9,10,-70,-305,-212,-190,-114,-65
-4,-2,2,4,-4,0,-69,-280,-201,-182,-114,-69
-5,-10,-5,8,0,-8,-66,-252,-186,-171,-111,-70
-3,-15,-11,9,4,-13,-62,-223,-168,-157,-104,-68
-1,-17,-15,9,8,-16,-57,-194,-147,-139,-94,-63
1,-17,-18,8,10,-17,-51,-165,-126,-121,-83,-56
1,-17,-18,8,10,-17,-43,-138,-105,-102,-71,-49
-1,-18,-17,9,8,-17,-36,-113,-86,-86,-60,-42
-5,-19,-15,11,5,-17,-29,-92,-70,-72,-52,-36
-6,-19,-14,12,3,-17,-23,-75,-57,-62,-45,-32
-6,-18,-12,12,2,-16,-18,-61,-47,-54,-39,-29
-5,-16,-11,10,2,-14,-14,-50,-38,-47,-35,-26
-3,-14,-10,9,3,-13,-10,-40,-30,-41,-31,-23
-3,-15,-11,9,4,-13,-8,-33,-25,-37,-28,-21
-3,-15,-11,9,4,-13,-6,-28,-21,-34,-26,-20
-3,-13,-9,8,3,-12,-5,-24,-18,-31,-24,-18
-2,-11,-9,7,3,-11,-3,-21,-16,-29,-23,-17
0,-10,-10,5,4,-11,-2,-19,-14,-27,-21,-16
0,-10,-11,5,5,-11,-3,-18,-13,-27,-21,-16
1,-10,-12,4,6,-11,-3,-16,-12,-26,-22,-16
4,-8,-13,2,8,-11,-3,-14,-11,-25,-21,-16
6,-7,-13,0,9,-10,-3,-11,-9,-24,-21,-15
6,-6,-12,0,9,-9,-2,-10,-7,-22,-21,-15
4,-6,-11,1,7,-9,-2,-9,-6,-22,-20,-15
0,-8,-9,4,5,-9,-3,-9,-6,-22,-21,-15
-2,-10,-8,7,3,-10,-4,-10,-7,-22,-21,-16
-4,-11,-7,8,2,-10,-4,-9,-6,-22,-21,-16
-3,-10,-7,7,2,-9,-5,-8,-6,-22,-21,-15
-1,-8,-7,5,2,-8,-5,-7,-5,-21,-20,-14
0,-7,-7,3,3,-7,-5,-5,-3,-20,-19,-14
1,-7,-8,3,4,-7,-6,-4,-2,-19,-18,-13
1,-8,-9,3,5,-8,-6,-3,-2,-19,-17,-13
2,-7,-9,2,6,-8,-7,-3,-1,-18,-16,-13
5,-4,-10,-1,7,-7,-7,-1,0,-17,-15,-12
9,-1,-11,-4,9,-6,-7,0,1,-16,-13,-10
10,0,-11,-5,10,-5,-7,2,2,-15,-12,-9
9,0,-9,-5,9,-4,-6,5,4,-14,-10,-8
7,0,-7,-3,7,-3,-5,9,7,-11,-8,-6
5,0,-5,-2,5,-2,-4,12,9,-9,-7,-5
4,-1,-5,-1,4,-2,-4,14,11,-8,-6,-4
5,-2,-6,-1,5,-4,-3,16,12,-6,-4,-3
6,-2,-8,-1,7,-5,-3,17,13,-5,-3,-3
7,-2,-9,-2,8,-5,-3,19,14,-4,-2,-2
9,-1,-10,-3,9,-5,-3,22,16,-3,-1,-1
11,1,-10,-6,10,-4,-2,26,18,-1,0,0
11,2,-9,-6,10,-4,-2,30,21,1,1,0
9,1,-9,-5,9,-4,-1,34,23,2,1,0
8,0,-9,-4,9,-5,-1,36,25,3,1,0
6,-2,-8,-2,7,-6,0,39,27,5,1,0
4,-3,-7,0,5,-5,0,42,29,7,2,0
3,-3,-6,0,4,-4,1,46,32,10,4,2
4,-2,-6,-1,4,-4,1,51,36,13,6,3
5,-1,-6,-3,5,-3,2,55,40,16,7,4
5,0,-6,-3,5,-3,2,60,44,20,9,6
6,0,-5,-3,6,-2,2,65,48,23,12,7
7,1,-5,-4,6,-2,3,70,52,27,15,9
8,1,-5,-4,7,-2,3,74,56,31,18,10
7,1,-5,-4,6,-2,3,77,59,34,21,12
6,1,-4,-4,5,-1,3,80,62,38,24,14
7,3,-3,-5,5,0,3,84,65,42,27,17
8,6,-2,-8,5,2,3,87,69,45,31,19
8,7,-1,-8,4,3,2,89,71,47,33,21
7,7,0,-7,4,3,1,91,73,49,34,22
8,8,0,-8,5,4,0,92,74,50,36,23
11,11,0,-11,6,6,0,93,76,52,38,25
12,15,2,-13,6,8,0,94,78,55,41,27
13,16,4,-14,5,10,0,95,79,56,42,29
14,17,3,-15,5,10,0,95,79,57,43,30
14,17,3,-16,5,11,-1,94,79,58,43,30
14,18,4,-16,4,12,-1,94,80,58,43,31
16,20,4,-18,5,13,-1,94,80,58,43,31
18,22,4,-20,6,14,-1,94,80,59,43,32
17,22,5,-20,5,14,-1,92,79,58,42,32
16,22,6,-19,4,14,-1,90,78,57,41,32
17,24,6,-21,5,15,-2,87,76,56,40,32
19,25,6,-23,6,16,-2,84,74,55,39,32
19,26,7,-23,5,16,-2,82,72,53,37,32
18,26,8,-23,4,17,-2,79,71,51,36,31
19,27,8,-23,4,18,-1,77,69,50,36,31
19,27,8,-23,5,18,-1,74,67,47,35,30
19,27,8,-23,5,18,-1,70,64,44,33,29
17,27,10,-23,4,19,-1,66,61,42,32,29
17,28,11,-23,3,19,0,62,59,40,32,28
17,28,11,-23,3,20,0,59,56,38,31,28
16,27,12,-22,2,20,0,55,53,35,29,27
12,25,12,-19,0,19,0,52,50,32,28,25
10,22,12,-16,-1,18,0,48,46,29,26,23
9,21,11,-15,-1,16,-1,44,42,25,24,21
9,20,10,-14,0,15,-1,39,38,21,21,19
10,18,8,-14,1,13,-1,35,35,18,19,17
11,17,6,-14,2,12,-1,30,32,15,17,16
10,15,5,-13,3,10,-1,26,29,12,15,14
10,14,4,-12,3,10,-1,23,27,10,13,13
11,14,3,-13,3,9,0,21,25,8,12,12
11,15,4,-13,3,10,0,19,23,7,11,11
9,14,5,-12,2,10,1,17,22,6,9,11
6,12,5,-9,0,9,2,14,20,4,7,10
4,10,6,-7,0,8,2,11,18,3,5,9
1,8,6,-5,-1,7,1,8,15,1,3,7
1,7,6,-4,-1,6,1,6,13,0,1,6
3,8,5,-5,-1,6,2,4,12,-1,0,6
3,8,4,-6,0,6,2,3,11,-2,0,5
4,7,3,-6,0,5,2,1,9,-3,-2,4
5,6,2,-6,1,4,2,0,8,-4,-3,3
4,6,2,-5,0,4,2,-1,7,-5,-5,2
3,5,2,-5,0,4,2,-2,7,-5,-5,2
3,6,2,-5,0,4,3,-3,6,-5,-6,2
3,6,3,-5,0,5,4,-4,6,-5,-6,2
3,6,4,-5,0,5,5,-4,5,-5,-6,1
2,6,5,-4,-1,6,5,-5,5,-5,-6,1
1,5,5,-3,-2,5,5,-5,5,-6,-7,1
0,3,4,-2,-2,3,5,-6,3,-7,-7,0
0,1,3,-1,-1,2,4,-7,2,-9,-8,-1
0,0,1,0,-1,1,4,-8,1,-11,-9,-2
0,1,0,-1,0,1,3,-8,0,-12,-10,-2
1,2,1,-2,0,1,3,-8,0,-12,-10,-2
1,3,2,-2,0,2,4,-8,0,-11,-9,-2
1,3,2,-2,0,2,4,-8,0,-11,-9,-2
3,4,1,-3,1,2,4,-8,-1,-11,-9,-2
5,5,0,-5,2,3,4,-7,-1,-11,-8,-1
5,6,0,-5,2,3,5,-6,0,-11,-7,-1
3,4,0,-3,1,3,5,-6,-1,-12,-7,-2
2,2,0,-2,0,1,4,-7,-2,-13,-7,-2
2,1,0,-2,1,1,4,-7,-2,-13,-7,-2
1,1,0,-1,1,1,4,-7,-2,-14,-7,-2
1,1,0,-1,0,1,3,-8,-3,-14,-7,-2
1,1,0,-1,0,1,3,-8,-3,-14,-7,-2
1,0,0,-1,0,0,4,-7,-3,-14,-7,-2
0,0,-1,0,0,0,4,-7,-3,-14,-6,-2
0,0,0,-1,0,1,4,-7,-3,-14,-6,-3
0,2,1,-1,0,2,4,-7,-3,-15,-6,-3
1,3,2,-2,0,3,4,-7,-3,-15,-6,-3
2,4,2,-3,0,3,4,-6,-2,-14,-5,-2
3,4,1,-3,1,3,4,-6,-2,-14,-4,-2
4,3,0,-3,1,2,3,-6,-3,-14,-4,-3
5,4,0,-4,2,2,3,-6,-3,-14,-4,-3
6,5,0,-5,2,2,3,-6,-3,-14,-4,-3
6,5,0,-6,2,2,4,-6,-3,-14,-4,-3
5,5,0,-5,2,2,4,-6,-3,-14,-4,-3
4,4,0,-4,1,2,4,-7,-3,-14,-4,-3
4,4,0,-4,1,2,4,-7,-2,-14,-4,-3
5,5,0,-5,2,2,4,-7,-2,-15,-4,-3
5,5,0,-5,2,2,3,-7,-2,-15,-4,-3
5,4,0,-4,2,2,3,-8,-2,-15,-5,-4
6,5,0,-5,3,2,3,-7,-2,-14,-5,-4
7,7,-1,-7,3,3,3,-7,-1,-13,-4,-3
9,9,0,-9,4,4,4,-6,0,-12,-3,-2
11,12,0,-12,5,6,5,-5,0,-11,-2,0
13,14,0,-14,5,7,5,-4,1,-10,-1,0
14,14,0,-14,6,7,4,-5,1,-11,-1,0
13,11,-1,-12,7,5,3,-6,0,-12,-2,-1
13,9,-2,-11,7,3,2,-6,0,-12,-3,-2
12,9,-1,-11,6,4,2,-5,0,-11,-2,-1
11,11,1,-11,4,6,2,-4,2,-10,-1,0
9,12,3,-11,2,8,3,-3,3,-9,0,1
6,11,4,-9,0,8,2,-2,3,-8,0,2
4,10,5,-7,-1,8,1,-2,3,-8,0,2
3,9,6,-6,-1,8,1,-2,3,-8,0,2
3,9,6,-6,-1,8,1,-2,4,-8,1,2
3,10,7,-6,-2,9,1,-2,4,-7,2,3
2,10,8,-6,-3,9,1,-2,4,-7,2,3
3,9,7,-6,-2,8,0,-2,4,-7,2,3
3,9,5,-6,-1,8,-1,-3,3,-7,1,2
5,9,4,-7,0,7,-1,-3,3,-8,1,2
7,10,3,-9,1,7,-1,-4,2,-8,1,2
8,11,3,-9,2,7,-1,-4,2,-9,1,1
7,9,2,-8,2,5,-2,-5,2,-9,1,1
5,6,2,-5,1,3,-3,-6,1,-10,0,0
3,3,1,-3,0,2,-4,-8,0,-12,-1,-1
5,4,0,-4,2,2,-4,-9,-1,-12,-1,-1
8,8,0,-8,4,3,-4,-9,0,-12,-1,0
10,10,0,-10,5,4,-3,-8,0,-11,0,0
10,11,1,-10,4,5,-2,-8,0,-11,0,0
9,12,3,-10,3,7,-1,-7,0,-10,0,1
8,12,4,-10,2,7,0,-7,0,-10,0,2
8,12,3,-10,2,7,0,-6,0,-10,0,2
9,12,3,-11,3,8,0,-6,0,-10,0,2
9,12,4,-11,2,8,0,-7,0,-11,0,2
8,11,5,-10,1,8,0,-7,0,-11,-1,1
7,10,5,-9,0,8,0,-8,0,-12,-1,1
7,10,4,-9,1,7,0,-8,-1,-12,-2,0
8,10,3,-10,3,7,0,-8,-1,-12,-2,0
9,11,2,-10,3,6,0,-8,-1,-12,-2,0
9,11,2,-10,3,6,0,-8,-1,-12,-2,0
9,10,2,-10,3,6,0,-9,-1,-12,-2,0
8,9,2,-9,3,5,0,-9,-2,-12,-2,0
8,8,2,-8,3,5,-1,-10,-2,-12,-2,0
8,8,1,-8,4,4,-1,-10,-3,-12,-2,0
10,9,0,-9,5,4,-2,-11,-3,-12,-2,0
9,8,-1,-9,5,3,-3,-12,-4,-13,-2,0
8,8,0,-8,4,4,-3,-12,-4,-13,-2,0
8,10,2,-10,3,6,-3,-11,-3,-13,-1,0
10,13,3,-12,3,8,-2,-10,-3,-12,-1,1
13,16,3,-14,4,10,-2,-10,-3,-11,0,2
14,17,3,-15,5,10,-2,-10,-3,-11,0,2
14,17,2,-15,5,10,-2,-10,-3,-11,0,2
14,16,2,-15,5,9,-2,-11,-3,-11,0,1
13,15,2,-15,5,9,-2,-12,-3,-12,-1,1
14,16,2,-15,6,10,-3,-13,-4,-12,-1,0
15,16,1,-16,7,10,-4,-14,-5,-13,-1,0
15,16,1,-16,7,9,-6,-15,-6,-13,-2,0
16,16,0,-16,8,8,-7,-15,-7,-14,-2,-1
17,16,-1,-17,9,8,-8,-15,-7,-14,-2,0
17,16,0,-16,8,8,-7,-14,-7,-13,-2,0
15,16,0,-15,7,8,-7,-13,-7,-12,-1,1
15,15,1,-15,7,8,-7,-13,-7,-12,-1,1
14,15,1,-15,7,8,-7,-12,-7,-12,-1,1
13,15,1,-15,6,8,-7,-10,-6,-11,0,1
15,16,1,-16,7,9,-6,-9,-5,-10,0,2
18,18,1,-18,8,10,-4,-6,-3,-9,1,4
19,20,2,-19,8,11,-3,-4,-2,-7,2,5
18,20,3,-19,6,11,-2,-3,-1,-6,3,5
17,19,2,-18,6,11,-1,-2,-1,-6,2,5
17,17,0,-17,8,9,-1,-2,-1,-7,1,4
18,16,-1,-17,9,8,-1,-2,-2,-7,1,4
18,15,-3,-17,10,7,-1,-2,-2,-8,0,3
16,13,-3,-15,10,5,-1,-1,-2,-8,0,2
12,10,-3,-11,8,4,-1,-1,-3,-9,-1,1
9,8,-1,-8,5,3,0,0,-3,-9,-1,1
8,8,0,-8,5,4,2,1,-2,-8,-1,1
10,10,0,-10,5,5,3,2,-2,-8,-2,1
10,11,1,-10,4,6,4,2,-2,-9,-2,0
7,10,3,-8,2,6,4,2,-3,-9,-3,0
6,9,2,-7,2,6,5,3,-2,-9,-2,0
8,10,2,-9,3,7,7,4,-2,-8,-1,0
9,11,2,-10,4,8,8,5,-1,-8,-1,0
9,12,3,-10,3,8,9,5,-1,-8,-1,0
9,11,3,-9,3,7,10,5,-2,-9,-2,-1
7,9,2,-8,2,6,10,5,-3,-9,-3,-2
5,8,2,-6,1,5,10,5,-3,-10,-4,-3
5,7,2,-6,1,5,10,5,-3,-10,-4,-3
5,7,2,-6,1,5,10,5,-3,-9,-4,-3
4,6,1,-5,1,4,10,4,-4,-9,-4,-3
4,5,1,-4,1,3,9,4,-4,-10,-4,-4
3,3,0,-3,1,2,8,3,-5,-11,-5,-4
3,2,0,-2,1,1,8,2,-6,-12,-6,-5
2,2,0,-2,0,1,7,2,-6,-13,-6,-5
3,3,0,-3,1,2,8,3,-6,-12,-6,-4
4,4,0,-4,1,2,8,4,-6,-12,-5,-4
2,2,0,-2,1,1,8,4,-6,-12,-5,-5
2,1,-1,-2,2,0,8,4,-6,-12,-5,-5
5,3,-2,-4,3,1,8,4,-6,-12,-5,-5
7,5,-2,-6,4,1,8,4,-6,-13,-5,-6
6,3,-2,-4,4,0,8,4,-7,-13,-6,-6
4,1,-2,-2,3,0,8,3,-7,-14,-6,-7
3,1,-1,-1,1,0,8,3,-7,-14,-6,-7
2,1,0,-1,0,0,8,3,-7,-14,-6,-7
1,1,0,-1,0,1,8,3,-7,-14,-7,-7
2,2,0,-2,0,1,8,3,-7,-13,-7,-7
3,3,0,-3,1,2,9,3,-6,-13,-6,-7
4,4,0,-4,2,2,9,4,-6,-12,-5,-6
6,4,-1,-5,3,1,9,4,-6,-12,-6,-7
7,4,-1,-5,4,1,9,4,-6,-12,-6,-7
6,4,-2,-5,4,1,9,4,-6,-12,-6,-7
6,5,-2,-6,4,1,9,4,-6,-12,-6,-7
7,5,-2,-7,4,2,9,4,-5,-12,-6,-7
8,6,-2,-7,5,2,9,4,-5,-12,-7,-8
8,6,-2,-7,5,2,9,5,-5,-12,-7,-8
8,6,-2,-7,5,2,9,6,-4,-12,-7,-9
8,6,-2,-7,5,2,10,7,-3,-11,-6,-9
10,7,-2,-8,6,3,10,8,-2,-11,-6,-8
13,9,-4,-11,9,2,10,9,-2,-10,-6,-8
17,11,-5,-13,11,3,10,9,-1,-10,-5,-8
17,13,-3,-15,10,4,11,10,0,-9,-4,-7
14,13,0,-13,7,6,12,11,0,-8,-3,-6
10,12,2,-11,4,7,14,12,1,-7,-3,-6
8,12,4,-10,2,8,15,13,1,-7,-2,-6
8,12,3,-9,2,7,15,11,0,-8,-3,-6
8,10,2,-9,3,6,13,6,-4,-10,-4,-7
7,9,1,-8,3,5,12,1,-7,-12,-5,-8
7,8,0,-7,3,5,10,-1,-8,-12,-5,-8
8,8,0,-8,4,5,9,0,-7,-10,-3,-7
8,8,-1,-8,5,4,7,4,-4,-7,-1,-7
8,7,-2,-8,6,3,3,9,0,-4,1,-6
11,8,-3,-10,7,2,-3,13,2,0,4,-5
16,12,-4,-14,11,3,-12,12,4,2,7,-2
22,15,-6,-19,14,4,-23,5,3,4,10,0
27,17,-9,-22,18,4,-35,-6,0,4,13,4
33,20,-12,-26,22,4,-48,-20,-4,5,18,8
39,23,-16,-31,27,3,-62,-34,-8,7,24,15
45,23,-22,-34,33,1,-78,-49,-14,9,31,23
51,23,-28,-37,40,-2,-93,-64,-19,13,40,33
59,25,-34,-42,47,-4,-107,-81,-24,18,53,48
68,29,-39,-49,54,-5,-120,-104,-31,24,68,65
76,34,-41,-55,59,-4,-133,-131,-41,29,84,85
83,41,-41,-62,62,0,-144,-158,-49,35,103,107
93,52,-40,-72,66,5,-153,-180,-54,42,122,131
103,63,-39,-82,71,12,-160,-199,-60,46,138,151
108,71,-36,-89,72,18,-165,-217,-68,45,147,164
106,74,-31,-90,68,22,-166,-231,-80,34,144,166
99,70,-29,-84,64,21,-162,-239,-93,17,129,155
91,58,-33,-74,62,13,-153,-241,-106,-5,105,135
82,41,-41,-61,62,0,-143,-243,-123,-34,72,107
73,25,-48,-49,61,-11,-131,-245,-143,-70,32,74
66,12,-53,-39,59,-20,-118,-243,-161,-103,-6,40
56,-1,-56,-27,56,-28,-106,-235,-171,-128,-39,9
44,-14,-58,-15,51,-36,-93,-220,-171,-140,-61,-15
35,-24,-59,-5,47,-41,-79,-198,-162,-141,-73,-33
29,-28,-57,0,43,-42,-66,-172,-147,-133,-76,-43
22,-30,-52,4,37,-41,-54,-146,-129,-121,-73,-48
15,-31,-46,7,31,-39,-43,-120,-110,-108,-68,-49
10,-29,-39,9,25,-35,-33,-97,-92,-93,-61,-48
7,-25,-31,8,19,-29,-23,-75,-75,-80,-54,-45
6,-20,-25,7,16,-23,-15,-56,-59,-67,-46,-40
7,-15,-22,4,14,-18,-7,-40,-46,-56,-39,-36
8,-11,-19,1,14,-14,-2,-26,-36,-47,-33,-33
9,-7,-16,-1,13,-11,2,-15,-28,-40,-28,-31
9,-4,-13,-3,11,-8,5,-7,-22,-36,-25,-29
7,-3,-10,-3,9,-6,7,-1,-17,-32,-23,-28
7,-2,-9,-2,8,-6,9,3,-12,-29,-22,-28
8,-1,-8,-3,8,-5,11,8,-8,-26,-20,-27
9,0,-8,-4,8,-4,14,12,-5,-24,-18,-26
10,0,-9,-4,9,-5,16,15,-3,-22,-17,-26
10,0,-10,-5,10,-5,17,17,-2,-21,-16,-26
10,0,-10,-5,10,-4,17,18,-1,-21,-16,-26
10,1,-9,-6,9,-3,18,19,-1,-21,-15,-26
10,2,-9,-6,9,-3,18,20,0,-21,-14,-26
10,2,-8,-6,9,-2,19,21,1,-20,-13,-26
10,3,-6,-6,8,-1,20,23,2,-20,-12,-26
9,3,-5,-6,7,-1,20,24,3,-19,-10,-26
7,1,-5,-4,6,-1,21,25,4,-19,-9,-26
6,0,-5,-3,5,-2,21,26,4,-18,-8,-25
6,0,-5,-3,6,-2,22,26,4,-18,-7,-25
7,1,-5,-4,6,-2,22,26,4,-19,-7,-26
6,1,-5,-4,6,-2,22,26,4,-19,-7,-26
6,1,-5,-3,6,-1,22,27,4,-18,-7,-26
6,1,-4,-4,5,-1,22,28,6,-17,-6,-26
7,2,-3,-4,5,0,22,30,7,-17,-6,-26
6,3,-2,-5,4,1,23,32,9,-16,-5,-26
5,4,0,-5,2,2,23,33,11,-15,-5,-26
4,4,0,-4,1,3,24,35,12,-14,-5,-25
2,3,2,-3,0,3,25,36,13,-13,-5,-25
0,2,3,-1,-1,3,26,37,15,-12,-5,-25
-1,3,4,-1,-2,3,27,39,16,-10,-5,-25
-1,3,4,-1,-2,3,27,41,17,-9,-6,-25
-1,2,4,-1,-2,3,27,43,19,-9,-7,-25
0,3,5,-2,-2,4,28,45,21,-7,-7,-25
0,5,5,-3,-2,5,30,48,23,-6,-7,-25
1,6,5,-4,-2,6,31,50,25,-4,-7,-24
2,8,6,-5,-2,7,32,53,27,-2,-7,-24
2,10,7,-6,-2,8,34,55,30,0,-6,-23
1,10,9,-6,-4,9,35,58,32,1,-5,-22
-1,9,11,-4,-6,10,36,60,34,2,-5,-23
-3,9,13,-3,-8,10,37,62,36,2,-4,-23
-3,9,14,-4,-8,11,38,65,38,3,-4,-23
-2,11,14,-5,-8,12,39,68,40,4,-4,-23
-1,11,13,-6,-7,12,40,70,42,5,-3,-24
-1,11,13,-5,-7,12,41,72,43,6,-3,-24
-1,12,13,-5,-7,12,43,75,45,7,-2,-24
0,15,15,-7,-7,15,44,77,47,8,-1,-24
-1,18,19,-8,-10,19,46,81,49,10,0,-23
-3,19,22,-8,-12,20,47,84,51,11,1,-23
-4,19,23,-7,-14,21,47,86,53,12,3,-22
-5,18,24,-7,-15,22,48,88,55,13,4,-22
-5,18,24,-7,-15,21,48,90,56,14,4,-22
-6,17,24,-6,-15,21,48,90,57,14,5,-22
-10,15,26,-3,-18,20,47,91,57,14,5,-22
-14,13,27,0,-21,21,47,91,58,15,6,-21
-15,14,28,0,-21,22,46,92,59,16,8,-20
-14,16,29,-1,-21,23,46,94,60,18,10,-19
-15,15,30,0,-23,23,45,95,62,20,12,-18
-18,14,32,2,-25,23,45,95,63,21,13,-16
-20,13,33,3,-27,23,44,96,63,22,14,-15
-20,13,33,3,-26,23,43,95,63,23,15,-13
-20,13,33,3,-26,23,41,94,63,23,16,-12
-20,13,33,3,-26,23,39,92,62,23,16,-12
-18,13,32,2,-24,23,37,90,61,23,17,-11
-17,14,30,1,-23,22,34,88,60,23,17,-11
-15,14,29,0,-21,22,32,86,59,23,18,-10
-11,17,28,-3,-19,23,31,84,58,23,19,-8
-7,20,28,-6,-18,24,31,83,58,24,20,-5
-6,22,28,-8,-17,25,29,81,57,24,21,-3
-6,21,28,-7,-17,24,27,78,55,23,21,-3
-7,19,27,-6,-17,23,25,75,52,22,21,-2
-7,21,29,-7,-17,25,24,73,51,22,22,-1
-7,22,30,-8,-17,26,23,71,51,23,24,0
-6,23,29,-8,-17,26,23,70,51,24,25,2
-4,23,28,-10,-15,26,22,68,50,24,25,3
-2,24,27,-11,-14,25,21,66,48,23,25,4
-1,24,26,-12,-13,25,20,64,47,22,25,5
1,24,24,-12,-11,23,19,62,45,21,25,6
1,21,21,-11,-10,21,18,59,43,20,25,6
0,19,20,-10,-9,19,16,55,40,18,24,6
0,17,18,-9,-9,18,15,51,38,17,23,6
0,17,17,-9,-8,17,14,48,36,16,23,7
0,16,16,-8,-7,16,13,45,34,15,22,6
0,15,15,-8,-7,16,13,42,31,13,20,6
1,14,14,-8,-6,15,13,40,29,11,19,6
2,14,12,-9,-5,14,13,38,28,10,19,6
1,13,12,-8,-5,13,13,36,26,9,18,6
1,12,12,-7,-5,12,13,34,25,8,17,6
0,11,11,-7,-4,11,13,31,22,7,16,5
-1,9,10,-5,-5,10,12,28,20,4,14,4
-3,7,10,-3,-6,9,12,25,17,2,12,2
-3,6,10,-2,-6,8,13,22,15,0,10,1
-4,5,9,-1,-6,7,13,19,13,-1,9,0
-4,3,8,0,-6,6,13,17,11,-3,8,0
-4,2,8,0,-6,5,13,15,9,-4,7,-1
-4,2,7,1,-6,5,13,14,8,-5,6,-2
-4,2,6,1,-5,4,13,12,7,-6,6,-3
-3,2,4,0,-3,3,14,11,5,-7,5,-3
0,2,2,-1,-1,2,14,10,4,-8,5,-4
0,2,0,-1,0,1,15,8,3,-9,4,-5
0,0,0,0,0,0,15,7,1,-11,3,-5
-1,-1,0,1,-1,0,15,6,0,-12,2,-6
-1,-1,0,1,-1,0,16,6,0,-13,2,-6
-2,-1,1,1,-1,0,16,5,0,-13,2,-6
-5,-3,1,4,-2,-1,15,3,-2,-14,1,-7
-8,-7,0,7,-4,-3,14,0,-4,-16,0,-8
-11,-10,0,10,-5,-4,13,-1,-6,-17,-1,-9
-10,-10,0,10,-5,-4,13,-2,-6,-17,-2,-10
-8,-9,-1,8,-3,-4,13,-2,-7,-18,-3,-10
-5,-8,-2,6,-1,-4,13,-2,-7,-18,-3,-10
-4,-6,-1,4,-1,-3,14,-2,-7,-18,-4,-10
-3,-4,0,3,-2,-2,14,-2,-7,-18,-3,-9
-2,-3,-1,2,-1,-2,15,-1,-6,-16,-2,-8
-1,-2,-1,1,0,-2,16,0,-5,-15,-1,-7
0,-2,-2,0,1,-2,16,0,-6,-15,-2,-7
0,-3,-3,1,1,-2,15,-1,-7,-16,-3,-8
0,-3,-3,1,1,-3,15,-1,-7,-17,-4,-9
1,-2,-4,0,2,-3,15,-1,-7,-17,-4,-9
2,-2,-4,0,3,-3,14,-2,-7,-18,-5,-9
2,-3,-5,0,3,-4,13,-3,-8,-19,-6,-10
0,-4,-4,2,2,-4,13,-3,-8,-19,-6,-10
-1,-3,-2,2,0,-3,13,-3,-8,-18,-6,-9
-2,-2,0,2,-1,-1,14,-2,-7,-16,-5,-8
-3,-2,1,3,-2,0,15,-1,-6,-16,-5,-7
-5,-3,2,4,-3,0,15,-1,-6,-15,-5,-7
-6,-3,3,4,-4,0,15,0,-5,-15,-4,-6
-6,-3,3,5,-5,0,16,0,-5,-15,-4,-6
-7,-4,3,5,-5,-1,15,0,-5,-15,-5,-7
-5,-4,2,4,-4,-1,15,0,-5,-15,-5,-7
-3,-3,0,2,-1,-2,14,-1,-5,-15,-6,-7
-1,-3,-1,2,0,-3,14,-1,-5,-15,-6,-8
-1,-3,-2,2,1,-3,13,-1,-5,-15,-7,-8
0,-2,-3,1,2,-3,13,-1,-5,-14,-7,-7
2,-1,-4,-1,3,-2,14,0,-5,-14,-7,-7
4,1,-3,-3,4,-1,15,0,-4,-13,-6,-6
3,2,-1,-3,2,0,16,1,-3,-11,-5,-5
0,1,1,-1,0,0,16,2,-2,-10,-4,-4
-2,0,2,0,-2,0,16,2,-2,-10,-4,-4
0,0,1,0,0,0,16,2,-2,-10,-4,-4
1,1,0,-1,1,0,16,2,-2,-10,-4,-4
2,0,-2,-1,2,0,16,1,-2,-10,-4,-5
2,0,-2,0,2,-1,15,1,-3,-10,-5,-5
1,-1,-2,1,2,-2,15,0,-3,-11,-5,-6
0,-1,-1,1,0,-1,15,0,-3,-10,-5,-6
-2,-1,0,2,0,-1,15,0,-3,-10,-5,-7
-3,-2,0,2,-1,-1,15,1,-3,-10,-5,-7
-3,-3,0,3,-1,-2,14,1,-3,-9,-5,-7
-2,-3,0,3,0,-2,14,1,-3,-9,-5,-8
-2,-3,-1,2,0,-2,15,2,-2,-8,-4,-8
-3,-3,0,3,-1,-1,15,3,-1,-7,-3,-8
-5,-2,2,3,-3,0,15,3,-1,-6,-3,-9
-5,-2,3,3,-4,0,15,3,-1,-6,-3,-9
-3,0,2,1,-2,0,15,3,-1,-5,-2,-9
0,2,2,-1,-1,1,16,4,0,-4,-2,-9
0,3,3,-2,-2,2,17,5,0,-4,-1,-8
0,3,3,-2,-2,3,17,5,0,-3,-1,-8
0,2,2,-1,-1,2,16,6,1,-3,-1,-9
0,1,1,0,-1,2,16,8,2,-1,-1,-9
-1,1,2,0,-2,2,16,12,5,1,-1,-9
0,2,2,-1,-1,2,16,18,10,5,1,-8
4,5,1,-5,1,3,17,26,17,12,5,-5
8,8,0,-8,3,4,18,35,25,20,10,-1
10,11,2,-11,3,6,19,44,34,29,17,3
11,14,4,-12,3,9,19,52,43,38,24,8
12,16,4,-14,3,11,19,59,51,48,33,15
15,18,3,-16,5,12,18,67,60,58,42,23
19,21,2,-20,8,13,18,75,69,68,52,32
24,26,2,-25,11,14,19,81,77,79,62,42
29,31,2,-31,14,16,18,80,82,87,72,52
33,35,2,-35,15,18,16,68,82,92,80,61
37,40,2,-39,16,21,14,50,78,95,89,71
42,46,3,-44,18,25,10,24,69,94,96,80
47,51,4,-49,20,28,5,-9,52,88,99,87
53,57,4,-54,23,31,-1,-48,28,74,96,91
55,61,6,-57,24,34,-9,-89,0,56,87,89
51,62,11,-57,20,37,-17,-131,-29,33,74,82
43,60,18,-52,12,39,-25,-176,-62,3,52,68
32,54,23,-44,4,39,-31,-226,-104,-41,17,43
20,46,26,-34,-3,36,-36,-276,-155,-98,-28,10
11,38,27,-25,-8,32,-40,-310,-197,-148,-69,-21
4,32,27,-18,-11,29,-43,-321,-219,-177,-96,-44
0,26,25,-13,-13,26,-46,-314,-226,-188,-109,-59
0,19,20,-9,-11,21,-49,-296,-222,-188,-114,-67
-1,12,13,-5,-8,14,-50,-271,-210,-179,-113,-72
-3,5,8,-1,-6,7,-48,-241,-193,-165,-108,-72
-5,0,6,1,-5,3,-45,-210,-172,-147,-100,-70
-4,0,3,1,-4,1,-40,-179,-149,-128,-89,-65
-1,1,1,0,-2,1,-34,-148,-126,-108,-77,-58
2,2,0,-2,0,1,-26,-118,-103,-89,-65,-51
3,1,-1,-2,1,0,-17,-91,-83,-71,-53,-44
1,-3,-3,1,1,-2,-10,-69,-66,-57,-44,-39
0,-6,-4,3,2,-4,-4,-51,-53,-46,-38,-35
1,-7,-6,2,4,-5,0,-37,-42,-37,-32,-32
2,-7,-8,1,5,-6,2,-26,-34,-30,-28,-29
3,-7,-10,1,7,-8,3,-18,-28,-25,-26,-28
4,-8,-12,1,8,-10,5,-12,-24,-22,-25,-27
5,-8,-14,0,10,-11,6,-7,-21,-19,-23,-26
5,-8,-14,0,10,-11,8,-4,-18,-17,-22,-25
5,-8,-14,1,10,-11,9,-1,-16,-15,-20,-25
4,-9,-14,2,9,-11,11,0,-15,-13,-19,-24
2,-10,-12,4,7,-11,11,2,-13,-12,-18,-24
0,-12,-12,5,6,-11,11,3,-12,-11,-18,-24
0,-13,-13,6,6,-12,11,5,-11,-11,-18,-24
-1,-14,-14,7,6,-14,11,6,-10,-10,-18,-24
0,-14,-14,7,7,-14,11,8,-9,-9,-18,-24
2,-11,-14,4,7,-13,13,10,-7,-7,-16,-22
4,-7,-12,1,7,-10,15,13,-4,-4,-14,-20
5,-3,-9,-1,7,-7,16,14,-2,-2,-12,-19
7,-1,-9,-3,8,-5,16,15,-1,-1,-11,-19
8,-1,-9,-4,9,-5,16,16,0,0,-11,-18
7,-2,-10,-3,9,-6,15,17,0,0,-11,-18
7,-3,-11,-3,10,-7,14,18,0,1,-11,-17
10,-1,-11,-5,11,-6,15,20,2,2,-10,-16
13,1,-12,-7,12,-5,15,22,4,4,-9,-14
14,1,-12,-8,13,-5,15,23,5,5,-8,-14
13,1,-12,-7,12,-5,15,24,6,5,-8,-14
12,1,-10,-7,11,-4,15,24,7,6,-8,-14
10,2,-8,-6,9,-3,15,24,7,6,-8,-14
9,1,-7,-5,8,-2,14,25,7,7,-8,-14
8,0,-8,-5,8,-3,13,25,7,7,-8,-14
9,0,-8,-5,9,-4,12,25,7,7,-8,-14
9,0,-9,-5,9,-4,11,26,7,7,-8,-14
10,0,-10,-5,9,-4,9,27,7,7,-8,-14
10,-1,-11,-4,10,-5,8,28,8,8,-7,-14
10,-1,-12,-4,11,-6,7,30,9,9,-6,-13
11,0,-11,-6,11,-5,7,34,11,11,-4,-11
13,3,-10,-8,12,-3,8,38,15,14,-1,-8
15,7,-8,-11,12,0,9,43,19,18,2,-5
16,9,-7,-12,12,1,10,48,23,21,5,-2
18,10,-7,-14,13,1,11,52,26,24,7,0
20,12,-8,-16,14,2,11,56,29,28,10,1
23,14,-9,-18,16,2,12,60,33,31,12,3
25,14,-11,-19,17,2,12,63,35,34,14,5
25,13,-12,-19,18,1,12,66,37,36,15,6
24,12,-11,-18,18,1,12,69,40,38,16,7
24,12,-11,-18,18,1,12,72,42,40,17,8
24,13,-11,-19,18,1,11,76,45,43,19,9
25,14,-11,-19,18,1,10,80,49,47,21,11
23,14,-10,-18,17,2,10,84,53,51,23,13
22,14,-8,-18,15,3,10,88,56,54,25,15
22,15,-7,-19,15,4,10,91,59,57,27,17
22,17,-5,-20,14,6,11,95,62,60,30,19
23,19,-4,-21,14,8,12,99,66,64,33,21
24,21,-4,-23,15,9,13,101,69,67,36,24
26,23,-4,-25,16,10,14,103,71,69,39,26
28,26,-3,-27,16,12,14,106,74,72,42,28
30,29,-2,-29,17,13,14,108,76,75,45,31
30,29,-2,-29,16,13,14,109,78,77,47,33
29,29,-1,-29,15,14,13,110,79,78,49,34
29,30,0,-30,14,15,13,111,79,79,50,36
31,32,0,-32,15,16,13,111,80,80,52,37
34,35,0,-35,16,18,12,111,80,80,52,38
34,35,0,-35,17,18,12,110,79,80,52,39
33,33,0,-33,17,16,11,108,78,79,52,39
32,31,-1,-31,17,15,10,106,77,78,52,39
31,31,0,-31,16,15,9,104,75,77,51,39
29,31,2,-30,14,16,9,102,74,76,50,38
27,30,3,-28,11,17,9,101,73,76,50,38
25,31,5,-28,10,18,9,100,73,75,50,39
26,34,7,-30,9,21,10,99,72,75,50,39
26,36,8,-31,9,22,11,97,71,74,49,39
27,36,8,-32,9,22,11,95,70,72,47,39
28,36,8,-32,10,22,12,93,68,70,46,39
28,36,8,-32,9,22,12,90,66,69,45,39
26,34,8,-30,9,21,12,88,64,67,43,38
25,32,7,-29,9,20,13,84,61,64,41,36
26,33,7,-30,9,20,14,82,59,62,39,34
27,35,7,-31,9,21,15,80,57,60,38,33
26,35,8,-30,9,22,15,77,55,57,36,32
24,33,8,-29,8,21,16,74,52,55,34,30
23,32,7,-28,8,20,16,70,49,52,31,28
24,30,6,-27,9,18,16,65,45,49,28,26
25,29,4,-27,10,17,16,60,41,45,25,23
25,28,3,-26,10,15,15,56,37,41,22,21
22,25,3,-23,9,14,14,52,34,38,19,18
19,22,3,-20,7,12,14,48,31,34,17,16
17,21,3,-19,7,12,14,45,28,32,14,14
18,21,2,-20,8,12,15,43,27,30,13,13
17,20,2,-19,7,11,16,41,25,29,11,12
13,17,4,-16,4,11,17,39,23,27,9,10
11,16,5,-14,2,11,18,36,22,26,8,9
11,16,6,-14,3,11,19,34,20,24,6,8
12,16,5,-14,4,10,19,32,18,22,3,6
13,16,3,-14,5,9,19,30,16,20,1,5
12,15,3,-14,5,8,19,29,14,18,0,3
12,14,2,-13,6,8,18,27,13,16,-2,1
13,13,1,-14,7,7,18,25,11,14,-4,0
14,13,0,-14,8,6,17,23,9,13,-6,-2
14,13,0,-14,8,6,17,21,8,12,-7,-3
14,12,-1,-13,8,6,17,19,7,11,-7,-3
12,9,-2,-11,7,3,16,17,5,10,-8,-4
6,3,-2,-5,4,1,16,15,4,9,-10,-5
-2,-3,0,2,-1,-1,15,13,3,7,-11,-7
-11,-10,1,10,-6,-4,13,10,1,5,-13,-9
-17,-16,1,16,-9,-7,12,8,-1,3,-15,-10
-21,-20,0,20,-10,-10,10,5,-3,1,-17,-12
-24,-24,0,24,-12,-12,8,2,-5,0,-19,-14
-27,-27,0,27,-13,-13,7,0,-6,0,-20,-15
-26,-27,0,27,-13,-14,6,-1,-7,-1,-21,-16
-25,-26,-1,26,-12,-14,5,-2,-8,-2,-21,-16
-25,-27,-2,26,-12,-14,5,-2,-9,-3,-22,-17
-27,-27,0,27,-13,-14,4,-3,-9,-3,-22,-17
-29,-27,2,28,-16,-12,5,-3,-8,-2,-21,-16
-32,-28,4,30,-18,-12,5,-3,-8,-1,-20,-15
-35,-30,5,33,-20,-12,5,-3,-8,-1,-19,-15
-36,-31,5,34,-21,-13,5,-4,-8,0,-19,-15
-35,-32,4,33,-20,-13,4,-4,-8,-1,-19,-15
-34,-32,3,33,-19,-14,4,-5,-8,-1,-19,-15
-33,-32,2,33,-18,-14,4,-5,-8,-1,-19,-15
-32,-30,2,31,-17,-13,4,-5,-8,-1,-19,-14
-30,-28,1,29,-16,-13,5,-6,-8,-1,-19,-14
-28,-28,-1,28,-13,-14,5,-6,-9,-1,-19,-14
-27,-27,-1,27,-12,-14,5,-6,-9,0,-19,-15
-25,-25,0,25,-12,-13,5,-5,-8,0,-19,-15
-25,-24,0,25,-13,-12,5,-5,-8,0,-18,-15
-25,-25,0,26,-13,-13,5,-6,-8,0,-18,-15
-27,-28,0,28,-13,-14,3,-6,-8,-1,-19,-15
-29,-30,0,30,-14,-15,2,-6,-9,-2,-19,-16
-31,-32,0,31,-15,-16,2,-7,-9,-2,-19,-16
-32,-33,0,32,-16,-17,1,-7,-9,-2,-19,-16
-33,-34,0,33,-17,-17,1,-7,-9,-2,-19,-16
-34,-34,0,34,-18,-17,1,-8,-9,-2,-19,-16
-34,-35,0,34,-17,-18,0,-8,-9,-1,-18,-16
-33,-34,-1,33,-16,-18,1,-8,-9,0,-17,-15
-32,-32,0,32,-16,-17,2,-7,-8,0,-15,-13
-32,-31,1,31,-16,-15,2,-7,-8,0,-15,-13
-31,-31,1,30,-16,-15,2,-7,-9,0,-15,-13
-31,-31,0,30,-15,-15,1,-8,-9,0,-16,-14
-32,-30,2,30,-16,-14,1,-8,-9,0,-17,-14
-32,-29,3,30,-17,-13,1,-8,-8,0,-18,-14
-32,-30,3,30,-17,-13,1,-9,-8,0,-19,-15
-31,-30,1,30,-16,-15,1,-9,-8,0,-20,-15
-30,-30,0,30,-14,-15,0,-9,-8,0,-21,-15
-29,-30,-1,29,-14,-15,0,-9,-8,0,-22,-15
-30,-30,0,30,-15,-15,0,-10,-8,0,-22,-14
-31,-31,0,30,-15,-15,0,-10,-8,0,-23,-15
-32,-32,0,31,-16,-16,-1,-11,-9,-1,-24,-15
-32,-32,0,31,-16,-16,-1,-12,-9,-1,-23,-15
-31,-32,0,31,-15,-16,-1,-12,-9,-1,-21,-15
-29,-31,0,29,-14,-16,-1,-12,-9,-1,-20,-14
-27,-29,-1,28,-13,-15,-1,-12,-9,-1,-18,-14
-26,-27,-1,27,-13,-15,-1,-12,-10,-2,-17,-14
-25,-27,-2,26,-12,-15,-1,-12,-10,-2,-15,-13
-27,-28,-1,27,-13,-15,-1,-11,-10,-1,-14,-13
-28,-29,0,28,-13,-14,-2,-11,-10,-1,-12,-12
-28,-29,0,28,-13,-14,-3,-11,-10,-2,-11,-12
-28,-29,0,28,-14,-14,-3,-11,-10,-2,-10,-12
-28,-28,1,28,-15,-13,-4,-11,-10,-2,-9,-11
-28,-27,2,28,-15,-12,-4,-11,-11,-2,-8,-11
-29,-27,2,28,-16,-12,-5,-10,-11,-3,-8,-11
-28,-26,2,27,-15,-12,-5,-10,-11,-3,-7,-11
-28,-27,1,27,-15,-13,-5,-10,-12,-4,-7,-11
-29,-28,0,29,-15,-14,-5,-9,-12,-4,-7,-11
-30,-28,1,29,-15,-13,-5,-8,-12,-4,-7,-11
-29,-27,1,27,-14,-12,-5,-8,-13,-4,-8,-11
-28,-27,1,27,-14,-12,-6,-8,-13,-5,-9,-12
-28,-28,0,27,-14,-13,-6,-8,-13,-5,-9,-12
-29,-29,0,28,-14,-14,-7,-8,-13,-6,-10,-12
-29,-29,0,29,-14,-15,-7,-8,-13,-6,-10,-12
-28,-28,0,28,-14,-14,-7,-8,-13,-5,-10,-12
-28,-28,1,28,-15,-13,-7,-8,-13,-5,-10,-11
-27,-27,0,27,-13,-13,-7,-8,-13,-6,-11,-11
-24,-26,-1,24,-11,-13,-7,-8,-13,-6,-11,-11
-22,-24,-1,22,-10,-12,-7,-8,-13,-6,-12,-11
-22,-23,-1,22,-10,-12,-7,-8,-13,-6,-12,-11
-24,-24,0,23,-11,-12,-7,-8,-13,-6,-12,-11
-26,-25,0,25,-13,-12,-7,-8,-14,-7,-12,-12
-27,-25,1,26,-14,-12,-7,-8,-15,-8,-12,-12
-26,-25,0,26,-13,-12,-7,-9,-15,-8,-12,-13
-26,-26,0,26,-13,-13,-7,-9,-16,-9,-12,-13
-26,-28,0,27,-12,-14,-7,-10,-16,-9,-13,-13
-26,-28,-1,26,-12,-14,-7,-10,-16,-10,-12,-13
-23,-25,-1,23,-11,-13,-6,-9,-15,-9,-11,-12
-19,-21,-1,19,-8,-12,-5,-8,-14,-8,-10,-11
-14,-16,-3,15,-5,-11,-4,-7,-13,-7,-9,-10
-10,-13,-3,12,-3,-9,-3,-6,-13,-6,-7,-9
-11,-14,-3,13,-4,-9,-3,-6,-13,-7,-7,-9
-15,-17,-2,17,-6,-10,-5,-7,-14,-8,-8,-10
-18,-20,-1,19,-8,-10,-6,-8,-15,-9,-9,-11
-19,-21,-1,20,-9,-11,-7,-9,-15,-9,-9,-11
-21,-22,0,21,-10,-11,-8,-9,-16,-9,-9,-11
-23,-23,0,22,-11,-12,-8,-10,-16,-10,-10,-11
-25,-25,0,24,-12,-13,-9,-10,-17,-10,-10,-12
-25,-25,0,25,-12,-13,-9,-10,-17,-10,-10,-12
-23,-21,1,22,-12,-11,-8,-10,-16,-10,-10,-11
-21,-17,4,19,-12,-7,-7,-9,-15,-9,-9,-10
-21,-16,5,18,-13,-5,-6,-9,-14,-9,-9,-10
-21,-16,6,18,-13,-5,-7,-10,-15,-10,-9,-10
-22,-16,5,18,-13,-5,-7,-11,-15,-10,-10,-10
-21,-16,5,17,-12,-5,-8,-13,-15,-11,-10,-10
-19,-15,4,16,-11,-5,-8,-14,-15,-11,-9,-10
-18,-13,4,15,-11,-5,-8,-15,-15,-10,-9,-9
-17,-13,4,15,-10,-5,-9,-16,-16,-11,-9,-9
-16,-13,3,15,-10,-5,-11,-17,-17,-12,-10,-10
-15,-13,3,14,-9,-5,-12,-18,-17,-12,-10,-10
-13,-12,1,12,-7,-5,-12,-18,-17,-11,-9,-9
-12,-12,0,11,-6,-5,-11,-18,-16,-10,-9,-8
-13,-12,1,12,-6,-5,-11,-17,-15,-10,-8,-7
-14,-12,2,12,-7,-5,-10,-16,-15,-9,-8,-7
-15,-12,2,13,-8,-5,-10,-15,-14,-8,-8,-7
-13,-12,1,12,-7,-6,-9,-13,-14,-7,-8,-7
-10,-11,0,10,-5,-6,-8,-12,-13,-7,-7,-6
-8,-10,-2,9,-3,-6,-7,-10,-12,-6,-7,-5
-8,-11,-2,10,-3,-6,-7,-8,-12,-6,-7,-5
-11,-13,-2,12,-4,-7,-7,-8,-12,-6,-7,-5
-12,-14,-2,13,-5,-8,-7,-7,-12,-6,-8,-6
-11,-13,-2,12,-4,-7,-6,-5,-11,-5,-8,-6
-11,-11,-1,11,-4,-7,-5,-3,-11,-5,-7,-5
-10,-10,0,10,-5,-6,-4,-1,-10,-4,-6,-5
-9,-8,1,9,-5,-4,-2,0,-8,-4,-5,-4
-9,-7,1,8,-5,-3,-1,1,-8,-3,-5,-3
-9,-7,1,8,-5,-3,0,1,-8,-3,-5,-3
-10,-9,1,9,-5,-3,0,0,-8,-4,-5,-4
-13,-12,0,12,-6,-5,-1,0,-10,-5,-6,-5
-15,-14,0,14,-7,-6,0,0,-11,-6,-6,-6
-16,-15,1,16,-8,-7,0,0,-11,-7,-7,-6
-18,-17,1,17,-9,-8,0,-1,-12,-8,-7,-7
-19,-18,0,19,-10,-9,0,-3,-13,-9,-8,-8
-18,-17,0,18,-9,-9,0,-4,-13,-9,-8,-8
-16,-16,0,16,-8,-8,1,-4,-13,-9,-7,-8
-14,-15,-1,15,-7,-8,1,-5,-13,-9,-7,-8
-14,-16,-2,15,-6,-9,1,-5,-14,-10,-7,-9
