leadI,leadII,leadIII,leadaVR,leadaVL,leadaVF,leadV1,leadV2,leadV3,leadV4,leadV5,leadV6
0,0,0,0,0,0,0,0,1,0,0,0
0,-1,-1,0,0,-1,-1,0,2,1,1,-1
0,0,-1,0,1,-1,-1,0,3,2,1,0
2,1,-1,-2,2,0,0,0,3,3,2,0
3,2,-1,-3,2,0,1,2,4,4,3,2
3,2,-1,-3,2,0,2,5,4,5,3,3
3,2,-1,-3,2,0,3,7,5,6,4,3
3,2,0,-3,2,1,4,9,5,6,4,3
3,2,0,-2,2,1,4,9,6,6,4,2
2,2,0,-2,1,1,4,6,6,6,4,2
1,3,1,-2,0,2,4,4,7,6,5,2
0,3,2,-2,0,2,4,3,7,7,5,2
0,2,2,-1,-1,2,5,4,6,7,5,2
0,1,2,0,-1,2,5,6,6,7,5,2
-1,0,2,0,-1,1,5,7,6,7,5,2
0,0,2,0,0,1,5,8,6,7,5,2
0,1,1,-1,0,1,5,8,6,7,5,2
0,1,2,-1,0,2,5,6,6,7,5,2
0,2,3,-2,-1,3,5,4,7,7,6,2
0,3,3,-2,-1,3,5,2,7,7,6,3
0,2,3,-1,-2,3,5,2,6,7,6,3
-1,1,3,0,-2,3,4,2,6,7,5,3
-1,2,3,-1,-2,3,5,4,7,7,6,3
0,4,4,-2,-1,4,5,6,7,8,6,3
2,5,4,-4,-1,5,6,6,7,9,7,4
1,5,4,-4,-1,4,5,5,7,9,7,3
0,4,4,-2,-2,4,4,3,7,9,7,3
-1,4,4,-1,-3,4,4,1,8,9,7,3
0,5,4,-3,-2,4,4,1,8,9,7,3
2,6,4,-4,-1,5,4,2,9,9,7,3
3,6,4,-4,0,5,4,3,8,9,7,3
3,6,4,-4,0,5,4,3,8,8,7,3
3,6,4,-4,0,5,3,4,8,8,7,3
2,5,4,-3,-1,5,3,3,8,8,7,2
0,4,4,-2,-2,5,2,1,8,8,7,2
-2,4,5,-1,-3,5,2,0,8,8,8,3
-3,4,6,-1,-4,5,2,0,8,8,8,3
-2,4,6,-1,-4,5,2,0,8,8,7,3
-2,4,6,-1,-4,5,2,0,8,8,7,3
-1,4,6,-1,-4,5,2,0,7,8,6,3
-1,4,5,-1,-3,4,1,0,7,8,6,3
0,3,4,-1,-3,4,1,0,6,7,5,2
0,3,3,-1,-2,4,1,-1,6,7,5,2
0,3,3,-2,-2,3,1,-1,6,6,4,1
0,3,2,-1,-2,3,1,-1,6,5,3,0
0,2,2,-1,-1,2,1,-1,5,4,1,-3
0,1,1,-1,0,1,1,0,4,3,-1,-5
0,0,0,0,0,0,1,0,2,0,-4,-8
0,-1,-1,0,1,-1,1,0,-1,-3,-8,-12
0,-4,-3,2,1,-3,1,0,-6,-8,-13,-15
0,-5,-4,2,2,-4,1,-2,-10,-13,-17,-18
0,-5,-5,3,2,-5,0,-3,-14,-17,-20,-19
-1,-5,-4,4,1,-5,0,-5,-17,-19,-22,-20
-3,-5,-3,4,0,-4,-1,-8,-20,-21,-23,-19
-4,-5,-1,5,-1,-3,-2,-9,-21,-21,-23,-16
-5,-4,1,4,-2,-1,-3,-10,-19,-20,-21,-12
-5,-1,4,3,-4,1,-5,-10,-14,-15,-17,-5
-4,1,6,1,-5,3,-6,-10,-10,-10,-12,2
-4,4,7,0,-5,6,-8,-11,-8,-6,-8,9
-2,6,8,-1,-5,7,-11,-13,-8,-3,-3,17
-1,7,7,-2,-4,7,-13,-14,-9,-2,0,25
0,6,6,-2,-3,6,-14,-14,-15,-6,3,34
1,6,5,-3,-2,6,-16,-15,-28,-14,4,45
3,9,6,-6,-1,8,-19,-17,-45,-27,4,58
7,14,7,-11,0,11,-21,-20,-66,-45,2,71
11,20,9,-16,1,15,-23,-23,-87,-65,-3,81
12,24,12,-18,0,19,-25,-27,-107,-87,-10,89
11,27,16,-19,-2,22,-28,-33,-126,-108,-20,95
9,31,21,-20,-6,27,-32,-40,-144,-127,-32,100
8,36,27,-21,-9,32,-34,-48,-160,-144,-45,103
8,41,33,-24,-11,37,-36,-56,-172,-157,-55,107
7,43,37,-25,-14,40,-38,-63,-182,-167,-64,110
2,43,41,-22,-18,42,-39,-70,-190,-175,-73,110
-3,41,45,-19,-24,43,-38,-76,-194,-180,-80,108
-9,41,50,-16,-29,46,-36,-80,-196,-182,-86,104
-15,39,54,-11,-35,46,-34,-82,-197,-184,-93,96
-21,33,54,-5,-38,44,-30,-83,-197,-186,-99,84
-24,25,50,0,-38,38,-27,-83,-196,-185,-106,69
-25,16,42,4,-33,29,-23,-81,-191,-181,-111,51
-23,5,29,8,-26,17,-18,-75,-181,-173,-113,31
-21,-6,15,13,-18,4,-13,-67,-167,-160,-111,6
-20,-17,3,18,-11,-7,-9,-56,-150,-145,-108,-23
-18,-24,-6,20,-6,-15,-6,-46,-131,-128,-102,-46
-16,-27,-12,21,-2,-19,-5,-37,-112,-110,-93,-58
-13,-28,-15,20,1,-21,-4,-29,-92,-92,-80,-59
-9,-27,-17,18,4,-22,-3,-22,-73,-75,-67,-56
-6,-25,-18,16,6,-22,-1,-16,-56,-59,-56,-51
-3,-22,-18,13,8,-21,0,-9,-42,-46,-45,-45
-1,-20,-18,11,8,-19,1,-4,-31,-35,-36,-39
0,-17,-16,9,8,-17,2,0,-22,-26,-29,-34
0,-14,-14,7,8,-14,3,3,-15,-18,-21,-29
1,-11,-12,5,7,-11,3,4,-8,-11,-15,-24
1,-9,-10,4,5,-9,3,4,-3,-5,-9,-20
1,-7,-8,4,4,-8,3,3,2,0,-3,-17
0,-6,-6,4,3,-6,3,3,6,4,0,-15
0,-6,-4,3,2,-5,2,2,8,7,3,-13
0,-5,-3,2,2,-4,2,2,10,9,5,-12
0,-4,-3,2,1,-4,2,1,11,11,6,-11
0,-3,-2,1,0,-3,2,2,12,12,7,-10
-1,-2,-1,2,0,-1,2,3,13,13,9,-8
-2,-2,0,3,-1,-1,2,3,13,14,9,-7
-2,-3,-1,3,-1,-2,2,2,13,14,10,-7
-1,-4,-1,3,0,-2,3,2,14,14,10,-7
-1,-4,-1,3,0,-3,4,2,14,14,10,-8
-1,-4,-2,3,0,-3,4,3,15,14,10,-8
-1,-4,-2,3,1,-3,5,3,15,14,9,-8
-1,-4,-3,3,1,-4,5,3,15,14,9,-8
-1,-4,-3,3,1,-4,5,4,15,14,9,-8
0,-3,-3,2,2,-3,5,5,15,15,10,-7
0,-3,-3,2,2,-3,6,6,15,15,10,-7
0,-5,-3,3,2,-4,6,6,15,15,10,-7
0,-5,-4,3,2,-5,6,6,15,15,10,-8
0,-6,-4,3,2,-5,6,6,15,15,10,-8
0,-6,-4,4,2,-6,6,7,15,15,10,-8
0,-6,-5,4,3,-6,6,7,15,15,10,-9
0,-6,-6,4,3,-7,7,8,15,15,10,-9
0,-7,-7,4,3,-7,7,9,15,14,9,-9
0,-8,-8,4,4,-8,7,9,15,14,9,-9
0,-9,-9,4,4,-9,7,10,15,14,10,-9
0,-9,-9,5,4,-9,8,10,16,14,10,-9
0,-10,-9,5,4,-10,9,11,16,14,10,-9
0,-10,-10,6,4,-10,9,12,16,14,9,-9
0,-11,-10,6,4,-10,9,12,16,14,9,-9
0,-11,-10,6,4,-10,9,13,16,15,9,-9
0,-11,-9,6,4,-10,10,13,16,15,9,-9
0,-11,-9,6,4,-10,10,14,17,16,9,-9
0,-11,-9,6,4,-10,10,14,17,16,9,-9
0,-10,-9,5,4,-10,10,14,18,16,10,-9
0,-10,-9,5,5,-10,10,14,18,17,10,-9
0,-9,-9,5,4,-9,9,14,19,17,10,-9
0,-9,-9,5,4,-9,8,13,19,17,10,-9
0,-9,-9,5,4,-9,7,12,19,17,10,-9
0,-9,-9,5,5,-9,6,12,19,17,10,-9
1,-9,-10,4,5,-9,6,12,19,17,10,-9
1,-9,-10,4,5,-9,7,13,19,17,10,-9
1,-9,-10,4,5,-9,7,13,19,17,10,-9
1,-10,-10,4,5,-10,7,13,19,17,10,-10
1,-10,-11,5,5,-11,7,12,19,17,10,-10
1,-10,-11,5,5,-11,7,12,19,17,9,-10
0,-10,-11,5,5,-11,7,12,19,17,9,-10
0,-10,-10,5,5,-11,7,12,19,18,9,-10
0,-10,-10,5,5,-11,7,12,20,18,9,-11
0,-11,-11,6,6,-11,6,11,20,18,9,-11
0,-12,-12,6,6,-12,6,11,19,17,9,-11
0,-12,-12,6,6,-12,6,10,20,18,9,-11
1,-11,-12,5,6,-12,6,10,20,18,10,-11
2,-10,-12,4,7,-11,7,10,21,19,10,-11
3,-10,-12,4,7,-11,7,10,21,19,10,-11
3,-10,-12,4,7,-11,8,9,21,19,10,-11
3,-10,-12,4,7,-11,8,9,21,19,10,-11
3,-10,-12,4,7,-11,8,9,22,20,10,-11
3,-10,-12,4,7,-11,9,9,22,20,11,-11
3,-10,-12,4,7,-11,9,9,23,20,11,-11
2,-10,-12,4,7,-11,9,9,23,21,11,-11
2,-9,-12,4,7,-11,9,10,24,22,11,-11
2,-9,-12,4,7,-11,9,10,24,22,11,-11
2,-9,-12,4,7,-11,9,9,24,22,11,-12
2,-9,-12,4,7,-10,9,9,25,23,11,-12
2,-8,-11,4,7,-10,9,10,26,23,11,-11
2,-8,-11,4,6,-10,9,10,26,24,12,-11
1,-9,-10,5,6,-10,9,10,27,24,12,-11
1,-9,-10,5,6,-10,9,10,27,24,12,-11
2,-8,-10,4,6,-9,9,10,28,25,12,-11
2,-8,-10,4,7,-9,9,10,28,26,12,-11
2,-8,-10,4,7,-9,9,10,29,26,12,-11
2,-8,-10,4,6,-9,10,10,29,27,13,-11
2,-7,-9,4,6,-8,10,11,30,27,13,-11
2,-7,-9,4,5,-8,10,11,31,28,14,-12
3,-6,-8,3,5,-7,10,11,32,29,14,-12
3,-5,-8,2,6,-6,11,11,33,30,15,-12
4,-5,-8,1,6,-6,11,12,34,30,15,-12
3,-5,-8,1,6,-6,10,12,34,30,14,-12
3,-4,-8,1,6,-6,10,12,34,31,14,-12
3,-4,-8,1,6,-6,10,12,35,31,15,-11
3,-4,-8,1,6,-6,10,12,35,32,15,-11
3,-4,-7,1,5,-6,10,12,36,32,15,-12
2,-4,-6,1,4,-5,10,11,36,32,15,-12
0,-4,-5,2,3,-5,10,11,37,32,15,-12
-1,-4,-3,3,1,-4,10,11,38,33,15,-12
-1,-3,-2,3,0,-3,10,11,38,33,15,-12
-1,-3,-1,2,0,-3,10,12,39,34,15,-12
0,-2,-1,2,1,-2,10,12,39,34,15,-12
0,-1,-1,1,1,-2,10,13,40,35,15,-12
0,-1,-1,1,1,-1,10,13,41,35,15,-12
1,0,-1,0,1,-1,10,13,41,35,15,-12
1,0,-1,0,1,-1,9,12,41,35,15,-12
2,1,-1,-1,2,-1,9,12,41,35,14,-12
3,2,-1,-2,2,0,9,13,41,35,14,-11
3,3,0,-3,1,1,10,13,41,35,14,-11
3,4,0,-3,1,2,9,13,41,35,14,-11
2,3,1,-2,0,2,9,12,41,35,13,-11
1,3,1,-1,0,2,8,12,40,34,13,-11
2,3,2,-2,0,2,8,11,40,34,12,-11
2,4,2,-2,0,3,8,11,40,34,12,-11
2,5,3,-3,0,3,8,11,40,34,12,-11
2,5,3,-3,0,3,8,11,39,33,11,-11
1,5,3,-2,-1,3,7,10,38,32,10,-11
1,5,4,-2,-1,4,7,10,38,31,10,-11
0,6,5,-2,-2,5,7,10,37,31,9,-11
0,6,6,-2,-2,6,8,10,37,31,9,-10
1,7,6,-3,-2,7,8,10,37,31,9,-10
1,8,7,-4,-3,7,7,10,36,30,9,-10
1,8,7,-4,-3,8,7,9,35,29,8,-9
1,9,7,-4,-3,8,7,9,34,29,8,-8
1,9,8,-4,-3,9,7,9,34,28,8,-7
0,10,8,-4,-3,9,6,9,33,28,8,-7
0,10,8,-5,-4,9,6,8,32,27,8,-7
0,10,9,-5,-4,10,5,8,32,27,8,-7
0,10,9,-4,-4,10,5,7,31,26,7,-6
0,9,10,-4,-5,10,4,7,30,25,7,-6
-1,9,11,-3,-6,10,4,6,29,24,6,-6
-1,10,11,-3,-6,10,4,6,28,23,6,-5
0,11,11,-5,-6,11,4,7,27,23,6,-4
0,12,12,-5,-6,12,4,7,27,23,6,-3
0,13,12,-5,-6,12,4,6,26,22,6,-2
0,13,13,-6,-6,13,4,6,26,22,6,-2
0,13,13,-6,-6,13,4,6,25,21,6,-1
1,13,13,-6,-6,14,4,6,24,20,6,-1
1,13,13,-6,-6,14,4,5,23,20,6,0
1,13,13,-6,-6,13,3,5,22,19,6,0
0,13,13,-6,-6,13,3,5,21,18,5,0
0,12,13,-5,-7,13,2,4,20,17,5,0
-1,12,13,-5,-7,13,2,4,19,16,5,0
-1,12,13,-5,-7,13,2,4,18,16,5,1
-1,12,13,-5,-7,13,2,4,18,15,5,1
-1,12,14,-5,-7,13,2,4,17,15,5,2
0,12,14,-5,-7,13,3,4,17,15,5,2
0,12,13,-6,-7,13,3,4,16,14,5,3
0,12,13,-5,-7,12,3,4,15,13,5,3
-1,11,13,-4,-7,12,3,4,14,12,4,3
-1,11,12,-4,-6,12,3,3,14,12,4,3
0,10,11,-4,-5,11,3,3,13,11,4,3
0,10,10,-4,-5,11,4,3,12,11,3,3
0,9,9,-4,-4,10,4,3,11,10,3,3
0,8,8,-3,-4,8,4,2,10,9,2,2
0,7,7,-3,-4,7,3,2,9,8,2,2
0,7,7,-2,-4,6,3,2,8,7,2,1
0,7,7,-3,-3,6,3,2,8,7,2,1
1,8,7,-3,-2,6,3,2,8,7,2,2
1,7,6,-3,-2,6,3,2,7,6,2,2
0,6,6,-2,-2,5,3,2,7,6,1,2
0,4,5,-1,-2,4,3,1,6,5,1,1
0,4,3,-1,-2,3,3,1,5,5,1,1
1,3,2,-1,-1,2,3,1,4,4,0,0
1,2,1,0,0,1,4,1,3,3,0,0
1,1,0,0,0,0,4,1,3,3,0,0
1,0,-1,0,1,-1,4,1,2,2,0,0
1,0,-2,0,2,-1,5,1,2,2,-1,-1
2,-1,-3,1,2,-2,5,2,1,1,-1,-1
1,-2,-4,1,3,-3,5,2,1,1,-2,-2
1,-3,-4,2,3,-4,5,2,0,0,-2,-2
1,-4,-5,2,3,-4,5,2,0,0,-2,-2
1,-4,-5,2,3,-5,5,2,0,0,-2,-2
1,-5,-6,2,3,-5,5,2,0,0,-2,-2
1,-5,-6,2,3,-6,4,1,0,0,-2,-2
1,-6,-6,3,3,-6,2,1,0,0,-2,-3
0,-7,-6,4,3,-7,1,0,0,0,-2,-3
0,-7,-7,4,4,-7,0,0,0,0,-2,-3
2,-6,-7,3,5,-7,-2,0,0,0,-1,-2
4,-4,-8,1,6,-6,-3,0,0,0,-1,-2
5,-3,-8,0,7,-6,-5,0,1,0,0,-1
5,-3,-8,-1,7,-6,-6,0,1,1,0,-1
5,-3,-8,-1,7,-6,-7,0,1,1,0,-1
5,-3,-8,0,7,-6,-8,0,1,1,0,-1
5,-3,-8,0,7,-6,-10,-1,1,1,1,-1
5,-3,-8,0,6,-6,-11,-1,1,2,1,-1
3,-4,-7,1,5,-6,-11,-1,1,2,1,0
1,-5,-7,2,4,-6,-11,-1,1,2,1,0
0,-6,-6,3,3,-6,-11,0,1,2,1,0
1,-6,-6,2,3,-6,-10,0,1,2,2,0
3,-4,-6,1,4,-5,-9,0,2,3,2,0
4,-2,-6,0,5,-5,-8,1,2,3,2,0
5,-1,-6,-1,5,-4,-8,1,3,4,3,0
5,-1,-5,-1,5,-4,-7,1,3,4,3,0
5,0,-5,-1,5,-3,-7,1,4,4,4,0
5,0,-5,-2,5,-2,-6,1,4,5,4,1
5,0,-4,-2,4,-2,-6,0,4,5,5,2
4,0,-4,-1,4,-2,-6,-1,4,5,5,2
4,0,-4,-1,4,-2,-6,-2,3,4,4,2
5,0,-4,-1,5,-2,-6,-2,3,4,4,1
4,0,-3,-1,4,-2,-6,-3,3,4,4,1
3,0,-2,-1,3,-1,-6,-3,3,4,4,1
2,0,-1,0,2,-1,-5,-3,3,4,4,2
2,1,-1,0,2,0,-5,-3,3,5,4,2
1,1,-1,0,1,0,-5,-3,3,5,5,2
0,0,0,0,0,0,-5,-3,3,5,5,2
-1,0,0,1,0,0,-5,-3,3,5,5,2
-1,0,0,1,0,0,-4,-4,3,5,5,2
0,0,1,1,0,0,-4,-4,3,5,5,3
0,0,1,0,0,0,-4,-4,3,5,5,3
0,1,1,0,0,0,-4,-4,3,5,5,3
0,1,1,0,0,1,-4,-4,3,5,5,3
0,1,1,0,0,1,-4,-4,3,5,5,3
0,1,1,0,0,1,-4,-4,3,5,5,3
0,1,1,0,0,1,-3,-4,3,5,5,3
1,2,1,0,0,1,-3,-4,4,5,5,3
1,2,1,0,0,1,-3,-4,4,5,5,3
1,2,1,0,0,1,-3,-4,4,5,5,2
0,1,1,0,0,1,-3,-4,3,5,5,2
0,2,1,0,0,1,-3,-4,3,5,5,2
0,2,1,0,0,1,-3,-4,3,5,5,2
0,2,1,0,0,1,-4,-4,3,5,4,2
0,2,1,0,0,1,-4,-4,3,5,4,2
0,2,2,0,-1,1,-4,-4,3,5,4,2
0,2,2,0,-1,2,-4,-4,3,5,4,2
-1,2,3,0,-2,2,-4,-4,4,5,4,2
-1,2,3,0,-2,3,-4,-4,4,5,4,2
-1,2,4,0,-2,3,-4,-4,4,5,4,2
-1,2,4,0,-2,3,-3,-4,4,5,4,2
-2,1,4,0,-2,3,-3,-4,4,5,4,2
-2,2,4,0,-2,3,-3,-4,4,5,4,2
-2,3,4,0,-2,3,-3,-4,5,6,4,2
-2,3,5,0,-2,4,-3,-3,5,6,4,2
-1,3,5,0,-2,4,-3,-3,5,6,4,2
-1,4,5,0,-2,4,-3,-3,5,6,4,2
-1,4,4,0,-2,4,-3,-3,5,6,4,2
-1,3,4,0,-3,4,-3,-3,5,6,4,2
-1,3,4,0,-3,4,-3,-4,5,6,4,2
-1,3,4,0,-3,4,-3,-4,5,6,5,2
0,4,4,-1,-3,5,-3,-4,5,7,5,2
0,5,5,-1,-3,5,-3,-3,5,7,5,2
0,4,5,-1,-3,5,-3,-3,5,7,5,2
-2,2,5,1,-3,4,-4,-4,5,6,5,2
-2,1,4,2,-3,3,-5,-4,5,6,4,2
-1,2,4,0,-2,3,-4,-4,6,6,5,2
0,3,4,-1,-1,4,-4,-3,6,7,5,2
0,4,4,-1,-2,4,-4,-3,6,6,5,2
0,3,4,-1,-2,4,-4,-3,6,6,5,2
0,3,4,-1,-2,4,-4,-3,6,6,5,1
0,4,4,-1,-2,4,-4,-3,6,6,5,1
0,4,3,-1,-2,4,-4,-4,6,6,5,1
0,3,3,-1,-1,3,-4,-4,6,6,5,1
0,3,3,0,-1,3,-4,-4,5,6,5,1
0,2,3,0,-2,3,-4,-4,5,6,5,1
-1,2,3,0,-2,3,-4,-4,5,6,5,1
-1,2,4,0,-3,3,-4,-4,5,6,5,1
0,3,4,0,-3,4,-4,-4,5,7,5,1
-1,3,4,0,-3,4,-4,-4,5,6,5,1
-2,1,4,1,-3,3,-5,-5,4,6,4,0
-3,1,4,2,-3,2,-5,-5,5,5,3,0
-2,2,4,1,-3,3,-4,-4,5,5,4,1
0,3,4,0,-2,3,-4,-4,5,5,4,1
0,3,3,0,-2,3,-4,-4,5,5,4,0
0,2,3,0,-2,2,-5,-4,4,5,3,0
0,2,2,0,-1,2,-5,-5,4,4,3,0
0,1,1,0,-1,1,-6,-5,3,4,3,-1
0,1,1,0,0,1,-6,-6,3,4,2,-1
0,1,1,0,0,1,-6,-6,3,4,2,-1
0,1,2,0,-1,1,-6,-6,3,4,2,-1
-1,1,2,0,-1,1,-6,-6,3,4,2,-1
-1,1,2,0,-1,2,-6,-6,4,4,2,-1
0,2,2,0,-1,2,-6,-6,4,4,2,-1
0,2,2,0,-2,2,-6,-5,4,4,2,-1
0,2,2,0,-2,2,-6,-5,4,4,2,-1
-1,2,3,0,-2,2,-6,-5,4,4,2,-1
-1,1,3,0,-2,2,-6,-5,3,4,2,-1
-1,2,3,0,-2,2,-5,-5,3,4,2,-1
0,2,3,0,-2,3,-5,-5,3,4,2,-1
0,2,3,0,-2,3,-5,-4,3,4,2,-1
0,2,2,0,-2,2,-5,-4,3,4,2,-2
0,1,2,0,-2,2,-5,-4,3,3,1,-2
-1,1,2,1,-2,1,-6,-4,3,3,1,-2
-1,1,2,0,-2,2,-6,-4,3,3,1,-2
0,2,2,-1,-2,3,-5,-4,3,4,2,-1
0,3,3,-1,-2,3,-5,-4,4,5,2,0
0,3,3,-1,-3,4,-5,-4,4,5,3,0
0,3,3,-1,-3,4,-5,-4,4,5,3,0
0,3,3,-1,-2,3,-5,-4,4,5,3,0
0,2,2,0,-2,3,-5,-4,4,5,3,0
0,2,3,0,-2,3,-5,-3,4,5,3,0
0,2,3,0,-2,2,-4,-3,4,5,3,0
0,1,2,0,-1,2,-4,-3,4,5,3,0
-1,0,2,0,-2,2,-4,-3,4,4,3,-1
-1,0,3,1,-2,2,-4,-3,4,4,3,-1
-2,0,2,1,-2,1,-4,-3,4,4,2,-1
-2,0,2,2,-2,1,-4,-3,3,4,2,-1
-2,-1,1,2,-2,0,-3,-3,3,4,1,-1
-2,-1,1,2,-1,0,-3,-2,3,3,1,-2
-2,-2,1,2,-1,0,-2,-1,3,3,0,-3
-2,-2,0,3,-1,-1,-1,0,3,2,-1,-4
-2,-3,-1,3,-1,-2,0,0,2,1,-3,-6
-1,-5,-3,3,0,-3,2,1,1,0,-5,-9
-1,-7,-5,4,1,-6,3,2,-2,-4,-9,-13
-1,-9,-7,5,2,-8,3,2,-6,-8,-14,-17
-1,-11,-9,6,3,-10,3,2,-10,-13,-18,-19
-1,-12,-9,7,3,-11,4,2,-13,-17,-22,-21
-2,-13,-9,8,3,-11,4,2,-17,-19,-24,-22
-3,-13,-9,8,3,-10,5,1,-19,-21,-25,-20
-4,-12,-8,8,2,-9,5,0,-20,-21,-24,-18
-4,-11,-6,8,1,-8,4,-1,-19,-20,-23,-15
-5,-10,-5,8,0,-7,3,-2,-16,-18,-21,-11
-5,-10,-4,8,-1,-7,1,-4,-13,-14,-17,-5
-6,-9,-3,8,-2,-6,-1,-5,-11,-10,-13,2
-5,-6,-1,6,-2,-4,-4,-7,-10,-6,-8,10
-2,-3,0,4,-1,-2,-5,-7,-9,-3,-2,19
0,-1,0,2,0,-1,-6,-7,-13,-4,1,30
1,0,0,0,1,0,-7,-7,-22,-10,4,41
4,3,0,-3,2,1,-9,-8,-38,-21,5,54
7,7,0,-6,3,4,-12,-11,-58,-38,3,66
8,10,2,-8,3,6,-15,-14,-80,-59,-2,77
9,14,5,-10,2,10,-19,-18,-101,-81,-9,85
9,18,9,-12,0,13,-22,-23,-120,-101,-18,91
9,23,14,-14,-2,18,-25,-29,-138,-121,-29,96
7,26,20,-15,-6,23,-28,-37,-155,-139,-42,99
4,29,26,-15,-11,27,-31,-45,-170,-154,-54,102
1,30,31,-15,-15,30,-33,-53,-181,-166,-64,105
-2,30,34,-13,-18,32,-35,-60,-189,-175,-73,106
-7,30,37,-11,-23,34,-35,-66,-195,-181,-81,105
-13,31,43,-8,-28,37,-33,-71,-197,-184,-86,103
-19,30,48,-5,-34,39,-31,-73,-197,-185,-91,96
-23,26,50,0,-37,38,-28,-75,-198,-186,-98,86
-26,20,47,4,-36,33,-25,-76,-198,-187,-105,71
-27,11,39,8,-33,26,-21,-76,-196,-185,-112,54
-25,1,28,12,-26,15,-17,-73,-188,-179,-117,35
-23,-10,13,16,-18,2,-13,-66,-176,-168,-116,13
-21,-21,0,21,-10,-10,-9,-57,-159,-153,-113,-15
-19,-29,-11,24,-4,-20,-5,-46,-141,-137,-108,-41
-17,-34,-18,26,0,-26,-3,-37,-121,-120,-99,-58
-15,-36,-21,27,2,-29,-2,-29,-101,-101,-88,-63
-12,-36,-23,25,5,-30,-1,-22,-82,-83,-75,-61
-9,-34,-24,23,7,-29,0,-15,-64,-67,-62,-56
-6,-32,-24,20,9,-28,2,-9,-49,-52,-51,-50
-3,-29,-24,17,10,-26,4,-3,-36,-40,-41,-44
-2,-25,-23,14,10,-23,5,2,-26,-30,-32,-38
0,-21,-21,12,10,-20,5,5,-17,-21,-24,-32
0,-17,-18,9,10,-17,5,6,-10,-13,-17,-27
1,-13,-16,7,9,-15,5,6,-4,-7,-11,-23
1,-11,-13,7,7,-13,4,5,0,-1,-6,-19
0,-10,-11,6,5,-11,4,4,4,3,-1,-16
0,-9,-9,5,4,-9,4,4,8,7,2,-13
1,-7,-7,3,4,-7,4,4,11,10,4,-11
0,-6,-6,3,3,-6,3,4,12,12,6,-10
0,-5,-6,2,3,-5,2,3,13,13,7,-10
0,-4,-5,1,3,-4,2,3,14,14,8,-9
0,-3,-5,1,2,-4,2,3,14,14,9,-8
0,-4,-4,2,1,-4,2,3,15,15,9,-7
0,-4,-3,3,1,-4,2,3,15,15,10,-7
0,-4,-3,2,1,-3,2,3,15,16,11,-7
1,-4,-3,2,1,-3,2,2,16,16,11,-7
1,-3,-3,1,1,-2,2,2,16,16,11,-8
1,-2,-3,1,2,-2,2,2,16,16,11,-8
2,-2,-4,0,2,-2,2,2,16,16,11,-7
2,-1,-4,0,2,-2,2,2,16,16,11,-7
2,-1,-4,0,2,-2,2,2,16,16,11,-7
2,-1,-4,0,2,-2,1,1,16,16,11,-7
2,-2,-3,1,2,-2,1,1,16,16,11,-7
1,-3,-3,1,1,-2,1,1,16,16,11,-7
1,-3,-3,1,1,-2,1,1,16,16,11,-7
0,-3,-3,2,1,-2,1,0,16,16,10,-7
0,-3,-2,2,0,-2,1,0,16,16,10,-8
-1,-3,-2,3,0,-2,1,0,16,16,10,-8
-1,-3,-2,3,0,-2,1,0,16,16,10,-8
0,-3,-2,3,0,-2,1,0,16,16,10,-8
1,-2,-3,2,1,-2,1,0,16,16,10,-8
2,-2,-3,1,2,-2,1,0,16,16,10,-8
2,-2,-3,0,2,-2,0,0,16,16,10,-9
2,-2,-3,0,2,-2,0,0,16,16,10,-9
2,-2,-3,0,2,-2,0,0,16,16,10,-9
2,-1,-3,0,2,-2,0,0,17,16,10,-9
2,-1,-3,0,2,-2,0,0,17,16,10,-9
1,-1,-3,1,2,-2,0,0,17,16,10,-9
1,-1,-2,1,1,-1,1,1,17,17,10,-8
1,-1,-1,1,0,-1,1,1,17,17,11,-8
1,-1,-1,1,0,-1,1,1,18,18,11,-8
1,-1,-2,1,1,-1,1,1,18,18,11,-8
1,-2,-2,1,1,-2,1,1,18,18,11,-9
0,-2,-3,2,1,-2,1,1,18,18,10,-9
0,-3,-3,2,1,-3,1,1,18,18,10,-10
1,-3,-3,1,2,-3,1,1,18,18,10,-10
1,-3,-3,1,2,-3,1,1,18,18,10,-10
1,-3,-3,1,2,-3,1,1,18,18,10,-10
1,-3,-3,1,2,-3,1,1,18,18,10,-10
0,-3,-3,2,1,-3,1,1,18,18,10,-11
0,-4,-3,2,1,-3,1,1,19,18,10,-11
0,-3,-3,2,1,-3,2,1,19,19,10,-11
1,-3,-4,2,2,-3,2,1,19,19,10,-11
1,-4,-4,2,3,-4,1,1,19,19,9,-11
1,-4,-5,2,3,-4,1,1,19,19,9,-12
1,-4,-5,2,3,-4,2,2,20,19,10,-12
1,-4,-5,2,3,-4,2,2,20,19,10,-12
1,-4,-5,2,3,-5,2,3,21,20,10,-12
1,-4,-4,2,2,-5,3,3,21,20,11,-11
0,-4,-4,3,2,-5,3,4,22,20,11,-11
0,-5,-4,3,2,-5,3,5,22,21,11,-11
0,-5,-4,3,2,-5,3,5,23,21,12,-11
0,-5,-5,3,2,-5,4,6,24,22,12,-11
1,-6,-5,3,2,-5,4,6,24,23,12,-11
1,-6,-6,3,3,-5,4,6,24,23,12,-11
1,-6,-6,3,3,-5,4,6,25,23,12,-11
1,-5,-6,2,3,-5,4,6,25,24,13,-11
1,-5,-6,2,3,-5,5,7,26,24,13,-11
1,-5,-5,2,3,-5,5,7,26,25,13,-11
1,-5,-5,2,3,-5,5,7,27,25,14,-11
1,-5,-5,2,3,-5,5,8,28,26,14,-11
1,-5,-5,2,3,-5,6,8,28,26,14,-11
1,-5,-6,2,3,-5,6,9,29,26,14,-11
1,-5,-6,2,3,-6,6,9,29,26,14,-11
1,-5,-6,2,3,-6,6,10,30,27,14,-11
2,-5,-6,2,3,-6,6,10,31,28,15,-11
2,-5,-7,2,4,-6,6,11,31,28,15,-11
2,-6,-7,2,4,-6,7,11,32,29,15,-11
2,-5,-6,2,4,-5,7,11,33,30,15,-10
1,-5,-5,1,3,-4,8,12,34,31,16,-10
1,-5,-5,2,3,-4,8,13,35,31,16,-9
0,-5,-5,2,3,-4,8,13,36,32,17,-9
1,-4,-5,2,3,-4,8,14,36,32,17,-9
1,-4,-4,1,3,-4,9,14,37,33,17,-9
1,-4,-4,1,3,-4,9,15,38,33,17,-9
1,-4,-5,1,3,-4,9,15,38,34,17,-9
1,-5,-5,2,3,-4,9,16,39,34,17,-10
1,-5,-5,2,3,-4,9,16,39,34,16,-10
1,-5,-5,1,3,-4,9,16,39,34,16,-10
2,-4,-5,1,3,-4,9,16,39,34,16,-10
2,-4,-5,1,3,-4,9,16,39,34,16,-10
2,-3,-5,0,4,-4,9,16,40,34,16,-10
3,-3,-5,0,4,-4,9,16,40,34,16,-10
3,-3,-6,0,4,-4,8,16,39,34,15,-11
3,-4,-6,0,4,-4,8,16,39,34,15,-11
2,-4,-6,0,4,-4,8,15,39,33,14,-12
2,-4,-6,0,4,-4,8,15,38,33,13,-12
1,-4,-5,1,3,-4,8,15,38,32,13,-12
0,-5,-5,2,2,-4,8,15,37,31,13,-13
0,-6,-4,3,1,-4,8,15,37,31,12,-13
0,-5,-4,3,1,-4,9,16,37,30,12,-13
0,-5,-4,3,1,-4,9,17,37,30,11,-12
0,-4,-4,2,1,-3,10,17,37,30,11,-12
0,-4,-3,2,1,-3,10,17,37,30,10,-12
1,-3,-3,1,1,-3,10,17,37,30,10,-12
1,-3,-3,1,2,-2,10,17,36,29,9,-12
1,-2,-3,0,2,-2,9,17,36,29,9,-12
1,-2,-3,1,1,-2,7,17,35,28,8,-12
0,-2,-2,1,1,-2,6,16,34,27,8,-12
0,-2,-2,1,0,-2,4,15,33,27,8,-12
1,-1,-1,0,0,-1,3,15,32,26,8,-11
1,-1,-1,0,0,-1,2,14,32,26,8,-11
1,-1,0,0,0,0,1,13,31,25,7,-10
1,-1,0,-1,0,0,0,11,30,24,6,-10
1,-1,0,-1,0,0,-2,10,28,23,5,-10
1,-1,0,-1,0,0,-3,10,27,21,5,-10
1,0,0,-1,0,1,-4,9,26,20,4,-9
1,0,0,-1,0,1,-4,9,25,19,4,-9
1,0,0,-1,0,1,-5,8,24,18,3,-8
1,0,1,-1,-1,1,-6,6,22,18,3,-8
1,0,1,-1,-1,2,-6,5,21,17,2,-8
1,1,1,-1,-1,2,-6,4,20,16,2,-8
1,2,2,-1,-1,3,-6,3,19,15,1,-7
0,2,2,-1,-1,3,-6,3,18,14,1,-7
0,2,3,-1,-2,3,-7,2,17,13,0,-6
0,2,3,-1,-2,3,-7,2,16,13,0,-6
0,3,3,-1,-2,3,-7,1,16,12,0,-5
0,3,4,-1,-2,4,-7,1,15,12,0,-5
0,2,4,0,-2,3,-7,0,15,11,0,-4
0,2,4,0,-2,3,-7,0,14,10,0,-4
0,2,4,0,-3,3,-7,0,13,10,0,-4
0,2,4,-1,-3,3,-7,0,12,9,0,-3
0,2,4,-1,-3,4,-7,-1,11,9,0,-3
0,2,4,-1,-3,4,-7,-1,10,8,0,-2
0,2,4,-1,-3,4,-7,-1,10,8,0,-2
0,3,4,-1,-3,4,-7,-1,9,7,0,-1
0,3,5,-1,-3,4,-7,-2,9,7,0,-1
0,3,5,-1,-3,4,-7,-2,8,6,0,-1
0,3,5,-1,-3,4,-7,-2,7,6,-1,-1
0,3,5,-1,-3,4,-7,-2,7,5,-1,-1
0,3,5,-1,-3,4,-6,-2,6,5,-1,0
0,3,5,-1,-3,4,-6,-3,6,4,-1,0
-1,2,4,0,-3,3,-6,-3,5,3,-1,0
-1,1,4,0,-3,3,-6,-4,5,3,-1,0
-1,1,4,0,-3,3,-6,-4,4,3,-1,0
-1,1,4,0,-3,3,-6,-4,4,3,-1,0
-2,1,5,1,-4,3,-6,-4,4,3,-1,0
-2,0,5,1,-4,3,-6,-4,4,3,-1,0
-3,0,5,2,-4,3,-5,-4,4,3,-1,0
-3,0,4,2,-4,2,-5,-4,3,2,-1,0
-3,-1,4,2,-4,2,-5,-5,3,2,-1,0
-2,-1,3,2,-3,1,-5,-5,2,1,-1,-1
-1,-1,2,2,-3,1,-5,-5,2,1,-1,-1
-1,-1,2,2,-2,1,-5,-5,1,1,-1,-1
0,-1,2,2,-2,1,-5,-5,1,1,-1,-1
0,0,2,2,-2,1,-4,-5,2,1,-1,-1
0,0,2,2,-2,1,-4,-5,2,1,-1,-1
0,0,2,2,-2,1,-4,-5,2,1,-1,-1
-1,0,3,2,-2,1,-4,-4,2,2,0,-1
-1,0,3,2,-3,1,-3,-4,2,2,0,-1
-2,0,3,2,-3,2,-3,-4,2,2,0,-1
-3,-1,4,3,-4,2,-3,-4,2,2,0,-1
-3,-1,4,3,-4,2,-3,-3,2,2,0,-1
-3,-2,3,3,-4,1,-3,-3,2,2,0,-1
-3,-2,2,3,-3,1,-3,-4,2,2,0,-1
-2,-2,2,2,-3,1,-2,-4,2,2,0,-1
-2,-2,2,2,-3,1,-2,-4,2,2,0,-1
-2,-2,2,2,-3,1,-2,-4,2,2,0,-1
-2,-2,2,2,-3,1,-2,-4,2,2,0,-1
-2,-2,2,2,-3,1,-2,-4,2,2,1,-1
-2,-1,2,2,-3,1,-2,-4,2,2,1,-1
-2,-1,2,3,-3,1,-2,-4,2,3,2,-1
-2,-2,2,3,-3,1,-2,-4,2,3,2,-1
-2,-2,2,3,-3,1,-2,-4,2,3,2,-1
-2,-2,2,3,-3,1,-2,-4,2,3,2,-1
-2,-2,2,3,-3,1,-1,-4,3,3,2,-1
-2,-2,2,3,-3,1,-1,-3,3,3,2,0
-2,-2,2,3,-3,1,-1,-3,3,4,3,0
-2,-2,2,3,-3,1,-1,-3,3,4,3,0
-2,-2,2,3,-3,1,-1,-3,3,4,3,0
-2,-2,2,3,-3,1,-1,-3,3,4,3,0
-2,-2,2,3,-3,1,-1,-3,3,4,4,0
-2,-2,2,3,-3,0,-1,-4,3,4,4,0
-2,-2,1,3,-3,0,-1,-4,3,4,3,-1
-2,-2,1,3,-3,0,-1,-4,3,4,3,0
-2,-2,1,3,-3,0,-1,-4,3,4,3,0
-1,-2,1,3,-2,0,-1,-4,3,3,3,0
-1,-3,0,3,-2,0,-2,-4,2,3,3,-1
-1,-3,0,3,-2,-1,-2,-4,2,3,3,-1
-2,-3,1,3,-2,-1,-2,-4,2,3,3,-1
-2,-3,1,4,-3,-1,-2,-4,2,3,4,0
-2,-3,1,4,-3,-1,-2,-5,2,3,4,0
-2,-3,1,3,-3,-1,-2,-5,2,3,4,0
-2,-3,1,3,-3,-1,-2,-5,2,3,4,0
-2,-3,1,3,-3,-1,-2,-5,2,3,4,0
-2,-3,1,3,-3,-1,-2,-5,2,3,4,0
-2,-3,1,3,-3,-1,-2,-5,2,3,4,0
-2,-3,1,3,-2,-1,-2,-5,2,4,4,0
-1,-3,1,3,-2,-1,-2,-5,2,4,4,0
-1,-2,1,2,-2,0,-3,-5,2,5,4,0
-2,-1,2,2,-3,0,-3,-5,2,5,4,0
-2,0,3,2,-3,2,-3,-5,2,5,5,0
-2,0,4,1,-4,3,-3,-5,2,5,5,0
-1,1,5,1,-4,3,-3,-5,2,5,5,0
-1,2,5,0,-4,4,-3,-5,3,5,5,0
-1,2,5,0,-4,4,-2,-4,3,5,5,0
-2,2,5,0,-4,4,-2,-4,3,4,4,0
-2,1,5,0,-4,4,-1,-3,3,4,4,0
-2,0,4,1,-4,3,-1,-2,3,3,3,0
-2,0,3,1,-3,2,0,-1,3,3,3,0
-1,-2,1,2,-2,1,0,0,3,3,3,0
-1,-3,0,2,-2,0,1,0,3,3,3,0
-2,-4,0,3,-2,-1,2,0,4,3,3,0
-2,-5,0,4,-2,-2,2,1,4,3,3,1
-2,-6,-1,5,-1,-3,2,1,4,3,3,1
-2,-6,-2,5,0,-4,2,1,4,3,3,2
-1,-6,-3,4,0,-4,2,2,4,4,4,2
-1,-6,-3,4,0,-4,2,2,4,4,4,2
-1,-6,-2,4,0,-3,2,2,4,5,4,2
-1,-5,-1,4,0,-2,1,1,4,5,4,2
-1,-3,0,3,-1,-1,1,1,4,4,4,1
-1,-2,1,2,-2,0,0,0,4,4,4,1
-1,-1,1,2,-2,0,0,0,4,4,3,1
-1,-1,2,2,-2,1,0,0,4,4,3,1
-1,-1,1,2,-2,1,-1,0,4,4,3,1
-1,-1,1,2,-1,0,-1,0,3,3,2,1
-1,-1,0,2,-1,0,-1,0,3,3,2,1
-1,-2,0,2,-1,0,-1,0,3,3,2,1
-1,-2,0,2,-1,-1,0,0,4,3,3,1
-1,-2,0,2,-1,-1,0,1,4,4,4,2
-1,-2,0,2,-1,-1,0,1,5,4,4,2
-1,-2,1,2,-1,0,1,1,5,5,5,3
-1,-2,1,2,-1,0,1,1,5,5,5,2
-1,-1,1,1,-1,0,1,2,5,4,4,1
0,-1,1,1,-1,0,1,2,4,4,2,0
0,-1,0,1,0,0,1,3,4,3,0,-2
0,-1,0,1,0,0,1,3,2,1,-2,-4
0,-1,0,1,0,0,1,4,0,-1,-5,-7
0,-2,-1,1,0,-1,1,4,-3,-5,-9,-10
0,-4,-2,2,1,-3,1,4,-7,-10,-13,-13
0,-5,-3,2,1,-4,1,3,-11,-14,-17,-15
0,-5,-3,3,1,-4,0,3,-13,-16,-18,-15
-1,-4,-1,3,0,-2,0,2,-15,-17,-18,-13
-2,-3,1,3,-2,0,-1,0,-15,-17,-17,-10
-4,-1,4,3,-4,1,-2,0,-14,-15,-16,-7
-4,0,6,3,-6,3,-3,-1,-11,-12,-13,-2
-4,2,8,1,-7,5,-5,-2,-8,-8,-10,3
-4,4,10,0,-7,7,-6,-2,-6,-4,-6,10
-3,6,10,-1,-7,8,-8,-3,-5,-1,-2,17
-2,7,10,-3,-7,9,-10,-4,-6,0,2,25
0,8,9,-4,-6,9,-11,-4,-11,-2,4,34
1,8,8,-5,-4,9,-12,-5,-22,-9,5,44
3,10,8,-6,-3,9,-14,-7,-39,-22,5,55
6,12,8,-9,-2,11,-16,-11,-60,-40,2,67
8,15,9,-11,-1,13,-19,-14,-83,-61,-3,77
9,18,10,-13,-1,15,-22,-18,-105,-83,-12,85
10,21,12,-15,-2,17,-25,-23,-125,-105,-22,91
9,24,15,-16,-3,20,-28,-30,-144,-125,-34,95
8,27,20,-17,-6,24,-31,-38,-160,-142,-46,98
6,29,25,-17,-10,28,-33,-46,-174,-156,-57,102
3,31,30,-17,-14,31,-35,-55,-186,-168,-65,106
0,31,33,-15,-17,32,-37,-64,-196,-178,-74,108
-4,30,37,-12,-21,34,-37,-73,-202,-184,-81,108
-10,30,41,-9,-26,36,-36,-79,-205,-188,-87,105
-16,28,45,-6,-31,37,-34,-82,-206,-190,-93,98
-21,24,46,-1,-34,35,-31,-83,-206,-191,-100,86
-25,18,45,3,-35,32,-27,-83,-205,-191,-106,72
-26,11,39,7,-33,25,-23,-82,-201,-187,-112,55
-26,2,31,12,-28,17,-19,-79,-192,-180,-116,36
-25,-7,20,16,-23,7,-15,-72,-179,-169,-115,13
-23,-15,9,19,-16,-2,-12,-63,-162,-155,-112,-13
-20,-22,0,21,-10,-10,-9,-53,-143,-137,-105,-38
-18,-26,-7,22,-5,-16,-8,-43,-122,-119,-96,-53
-16,-28,-12,22,-2,-20,-7,-34,-102,-100,-85,-57
-13,-29,-14,21,0,-21,-6,-27,-83,-83,-72,-56
-10,-28,-16,20,2,-21,-4,-20,-66,-67,-60,-51
-7,-27,-16,18,4,-21,-3,-14,-51,-53,-50,-46
-4,-25,-17,15,5,-20,-1,-8,-39,-42,-40,-41
-2,-22,-17,12,6,-19,-1,-4,-29,-32,-32,-35
-1,-20,-17,10,7,-18,-1,-1,-20,-24,-24,-30
0,-18,-16,8,7,-17,-1,1,-13,-17,-18,-25
1,-15,-16,7,8,-15,-1,2,-7,-10,-12,-21
2,-13,-14,6,8,-13,-1,2,-1,-4,-6,-17
2,-12,-12,6,7,-11,-1,3,3,1,-2,-14
1,-11,-10,6,5,-10,-1,3,6,5,2,-12
1,-10,-9,5,4,-9,-1,3,9,7,4,-10
1,-9,-8,4,4,-8,-1,2,10,9,6,-10
2,-8,-8,3,4,-8,-1,2,11,10,7,-9
2,-8,-9,2,5,-8,-1,2,12,10,8,-8
3,-7,-9,1,5,-8,-1,2,12,11,8,-7
3,-7,-9,2,5,-8,-1,2,13,11,9,-6
3,-7,-8,2,5,-7,-1,2,14,12,9,-6
2,-7,-7,2,4,-7,-1,2,14,13,10,-5
2,-6,-6,2,4,-6,-1,2,15,13,10,-5
3,-6,-6,1,4,-6,-1,2,15,14,10,-5
3,-5,-6,1,4,-6,-1,2,15,14,10,-5
3,-5,-6,0,4,-5,-1,2,15,14,11,-5
3,-5,-6,0,4,-5,-1,2,15,14,11,-4
3,-4,-6,0,4,-5,-1,2,15,14,12,-4
3,-4,-6,0,4,-4,-1,2,16,14,12,-4
3,-4,-6,0,4,-4,-1,2,16,15,12,-4
3,-4,-6,0,4,-4,-1,2,16,15,12,-4
3,-4,-6,0,4,-4,-1,2,16,16,12,-4
3,-4,-6,0,4,-4,0,2,17,16,12,-4
2,-4,-5,0,3,-4,0,2,17,16,13,-4
2,-4,-5,0,3,-4,0,2,17,17,13,-4
3,-4,-5,0,4,-4,0,2,17,17,13,-4
3,-4,-5,0,4,-4,0,2,17,17,13,-4
4,-4,-5,0,4,-4,0,3,18,17,13,-4
4,-3,-5,0,4,-4,0,3,18,17,13,-4
4,-3,-5,0,4,-4,0,3,18,17,13,-4
4,-2,-5,-1,4,-4,0,3,18,17,13,-4
4,-2,-5,-1,4,-4,0,3,18,17,13,-4
4,-2,-5,-1,4,-4,0,3,18,17,13,-4
4,-2,-5,-1,4,-4,0,3,18,17,13,-4
4,-2,-4,-1,4,-3,0,3,18,17,13,-4
4,-2,-4,-1,3,-3,0,4,18,17,13,-5
4,-2,-4,-1,3,-3,1,4,18,18,13,-5
3,-2,-4,-1,3,-3,1,4,19,18,13,-5
3,-2,-3,-1,2,-3,2,5,19,19,13,-5
3,-2,-3,-1,2,-3,2,5,20,19,14,-5
3,-2,-3,-1,2,-3,3,6,20,19,14,-5
3,-2,-3,-1,3,-3,3,6,20,19,15,-5
3,-2,-3,-1,3,-3,3,7,21,19,15,-5
3,-2,-4,-1,3,-3,4,7,21,20,15,-5
3,-2,-4,-1,3,-3,4,8,21,20,14,-5
4,-2,-4,-1,3,-3,4,8,21,20,14,-5
4,-2,-5,-1,4,-3,5,9,22,20,14,-6
5,-2,-6,-1,5,-3,5,9,22,20,14,-6
6,-2,-6,-1,5,-3,5,9,23,21,15,-6
6,-2,-6,-1,5,-3,6,10,23,21,15,-6
5,-2,-6,-1,5,-3,6,11,24,22,15,-6
5,-2,-5,0,4,-4,7,11,24,22,15,-6
4,-3,-5,0,4,-4,7,11,24,22,15,-6
4,-3,-5,0,4,-5,8,12,24,22,15,-6
4,-4,-5,0,4,-5,8,12,25,22,15,-6
3,-4,-5,1,4,-5,8,12,25,23,15,-7
3,-4,-6,1,4,-5,8,13,26,23,16,-7
3,-5,-6,1,4,-5,8,13,26,23,16,-7
3,-5,-6,2,4,-6,9,13,26,23,16,-8
3,-5,-7,1,4,-6,9,13,27,24,16,-8
4,-5,-7,1,4,-6,9,13,27,24,16,-8
4,-5,-7,1,4,-6,9,13,28,25,16,-8
3,-5,-7,1,4,-6,9,13,28,25,16,-8
3,-5,-6,1,3,-6,9,14,29,25,16,-8
3,-4,-6,1,3,-5,10,14,30,26,16,-8
3,-4,-5,0,3,-5,10,15,30,27,17,-8
3,-3,-5,0,3,-4,11,15,31,28,17,-8
3,-3,-4,0,3,-4,11,16,31,28,17,-8
3,-2,-4,0,3,-4,12,16,32,29,17,-8
3,-2,-4,0,2,-4,12,16,33,29,17,-8
3,-2,-3,0,2,-3,13,17,33,30,17,-8
3,-1,-3,0,2,-3,13,18,34,30,17,-8
3,-1,-3,-1,2,-3,14,18,35,30,18,-8
3,-1,-3,-1,2,-2,14,19,36,31,18,-8
3,-1,-2,-1,1,-2,14,19,37,32,19,-8
3,0,-1,0,1,-1,13,20,37,32,19,-8
3,0,-1,0,1,-1,13,20,37,33,18,-8
3,0,-1,-1,1,-1,12,20,38,33,18,-8
4,1,-1,-1,1,0,12,21,38,34,18,-8
4,1,0,-2,1,0,11,21,39,34,19,-8
4,1,0,-2,1,0,11,21,40,35,19,-8
4,1,-1,-2,2,0,11,22,41,35,19,-8
4,1,-1,-2,2,0,11,22,41,35,19,-8
4,1,-1,-2,2,0,10,22,42,35,19,-8
4,1,-1,-2,2,0,9,22,42,36,19,-8
4,1,-1,-2,2,0,8,21,42,36,18,-8
4,2,0,-3,2,0,7,21,42,37,18,-7
4,2,0,-3,2,1,7,22,42,37,18,-7
4,3,0,-4,2,1,6,22,43,37,18,-7
4,3,0,-4,1,2,6,22,43,37,18,-7
4,4,1,-3,1,2,6,22,43,37,18,-7
4,4,2,-3,0,3,6,21,43,37,18,-7
4,5,3,-3,0,3,6,21,43,37,18,-7
4,5,3,-4,0,3,5,21,43,37,17,-7
5,6,3,-4,0,4,5,21,42,36,17,-7
5,6,3,-5,0,4,5,21,42,36,16,-7
5,6,3,-5,0,4,4,20,41,35,16,-7
4,6,3,-5,0,4,4,19,40,34,15,-7
4,6,3,-5,0,4,3,19,39,33,14,-7
4,6,3,-5,0,4,3,18,38,32,13,-7
4,6,3,-5,0,4,3,17,37,31,13,-7
4,6,3,-5,0,5,2,17,37,31,12,-7
3,6,4,-5,0,5,2,16,36,30,12,-7
3,6,4,-5,0,5,1,15,35,29,11,-7
3,6,4,-5,0,5,1,15,34,28,10,-7
3,6,4,-5,0,5,0,14,33,27,10,-7
3,6,4,-5,0,4,0,13,31,26,9,-6
3,6,4,-4,0,4,0,12,30,25,9,-6
3,6,4,-4,0,4,-1,11,29,24,8,-6
3,6,4,-4,0,5,-1,10,28,24,8,-6
3,6,4,-4,0,5,-2,9,27,23,7,-6
3,6,3,-4,0,5,-2,9,26,22,6,-5
3,5,3,-4,0,4,-2,8,25,21,6,-5
3,5,3,-4,0,4,-2,8,24,20,5,-5
3,4,3,-4,-1,4,-2,8,23,19,5,-4
2,4,3,-3,-1,4,-2,8,22,19,5,-3
2,4,3,-3,-1,4,-2,7,22,18,5,-2
3,4,3,-4,0,4,-2,7,21,18,5,-1
3,4,2,-4,0,3,-2,7,21,17,5,-1
3,3,1,-3,0,2,-2,7,20,16,5,-1
2,2,1,-3,0,2,-2,7,19,15,5,0
2,2,0,-3,0,1,-2,7,18,15,5,0
2,1,0,-3,1,1,-2,7,17,14,5,0
2,1,0,-2,1,0,-2,6,16,13,4,0
2,1,-1,-2,1,0,-3,6,15,13,4,0
3,1,-1,-2,2,0,-3,5,15,12,4,1
3,1,-2,-2,2,0,-3,5,14,12,4,1
3,0,-2,-2,2,-1,-3,5,14,11,4,2
3,0,-2,-2,2,-1,-3,5,13,11,4,2
4,0,-2,-2,2,-1,-3,5,12,10,4,2
4,0,-2,-2,2,-1,-3,4,11,10,4,2
4,0,-3,-2,2,-1,-3,4,11,9,4,2
4,0,-3,-2,3,-1,-3,4,10,8,4,2
4,0,-4,-2,4,-2,-3,3,9,8,4,3
4,-1,-5,-2,4,-2,-4,3,9,7,3,3
4,-1,-5,-1,4,-3,-4,3,8,7,3,3
3,-1,-4,-1,4,-3,-3,3,8,6,3,3
3,-1,-3,-1,3,-2,-3,3,8,6,3,3
2,-1,-2,-1,2,-2,-2,3,8,6,3,3
2,-1,-2,-1,2,-2,-2,3,7,6,3,3
2,-1,-2,-1,2,-2,-2,3,7,6,3,3
2,-1,-2,-1,2,-2,-1,3,6,6,3,3
2,-1,-3,-1,3,-2,-1,3,6,6,3,3
2,-1,-3,-1,3,-2,-1,3,6,6,3,3
3,-1,-3,-1,4,-3,-1,3,6,6,3,3
3,-2,-4,-1,4,-3,-1,3,6,5,3,3
3,-2,-4,-1,4,-3,-1,3,5,5,3,3
3,-2,-4,0,4,-3,-1,3,5,4,3,2
3,-2,-4,0,3,-3,-1,3,5,4,3,2
3,-2,-4,0,3,-3,-1,3,5,4,3,2
3,-2,-4,0,3,-3,-1,3,5,4,3,2
3,-2,-4,0,3,-3,-1,3,5,4,3,2
3,-2,-4,0,3,-3,0,3,5,4,3,2
3,-2,-4,0,3,-3,0,4,5,4,3,2
3,-2,-4,0,3,-3,0,4,5,4,3,2
3,-2,-4,0,3,-3,0,4,5,4,3,2
3,-2,-4,0,3,-3,0,4,5,4,3,2
3,-1,-4,0,3,-3,1,4,5,4,4,2
2,-1,-4,0,3,-3,1,5,5,5,4,2
2,-1,-3,0,2,-3,1,5,5,5,4,2
2,-1,-3,0,2,-3,2,5,5,5,4,2
2,-1,-3,-1,2,-2,2,6,5,5,4,2
3,0,-3,-1,2,-2,2,6,5,5,4,2
3,0,-4,-1,3,-2,2,6,5,5,4,2
3,0,-4,-1,3,-2,2,6,5,5,4,1
3,-1,-5,-1,4,-3,3,7,5,5,4,1
3,-1,-5,-1,4,-3,3,7,5,5,4,1
3,-2,-5,0,4,-3,4,7,5,5,4,1
3,-2,-5,0,4,-3,4,7,5,5,4,1
3,-2,-5,0,4,-3,5,8,5,5,5,1
3,-2,-5,0,4,-3,5,8,5,5,5,1
3,-3,-6,0,4,-4,5,8,5,5,5,1
4,-3,-6,0,4,-4,5,8,5,5,5,1
3,-3,-6,0,4,-5,5,8,5,5,5,1
3,-3,-6,0,4,-5,5,8,5,5,4,0
3,-4,-7,0,4,-5,5,8,5,5,4,0
2,-4,-7,0,4,-5,6,8,5,4,4,0
2,-4,-7,0,4,-5,6,7,4,4,4,0
2,-4,-7,0,4,-5,6,7,4,4,4,0
2,-4,-6,0,4,-5,6,6,4,4,4,0
1,-3,-6,0,3,-5,6,6,4,4,4,0
1,-3,-5,1,3,-5,6,5,4,4,4,0
1,-3,-5,1,3,-4,6,5,4,4,4,0
1,-3,-5,0,3,-4,7,5,4,4,4,0
1,-3,-5,0,3,-4,7,5,4,4,4,0
1,-2,-4,0,3,-3,8,5,4,4,4,0
1,-2,-4,0,2,-3,8,5,4,4,4,1
1,-1,-4,0,2,-3,9,5,4,4,4,1
1,-1,-3,0,2,-2,9,5,4,4,4,1
1,-1,-2,0,1,-2,9,5,4,4,4,1
1,0,-2,0,1,-1,10,5,4,4,4,1
1,0,-1,-1,1,-1,10,5,4,5,4,1
1,1,0,-1,1,0,10,5,4,5,4,1
1,2,0,-2,0,0,9,5,4,6,5,1
1,2,0,-2,0,1,9,5,4,6,5,2
1,3,1,-2,0,1,8,5,5,7,6,2
1,3,1,-3,0,2,7,5,5,7,6,2
2,4,1,-4,0,2,6,5,6,7,6,2
3,5,1,-4,0,3,5,5,6,7,6,2
3,5,2,-4,0,3,4,5,7,8,7,2
2,6,3,-4,-1,4,4,5,7,8,7,2
2,6,4,-4,-1,5,3,5,7,8,7,2
2,6,4,-4,-1,5,3,4,7,8,7,2
2,6,4,-4,-1,5,2,3,7,8,7,2
2,6,4,-4,-1,5,2,3,7,8,7,2
2,6,4,-4,-1,5,1,2,7,8,7,2
1,6,4,-3,-2,5,0,2,7,8,7,2
1,6,4,-3,-2,5,0,1,7,8,6,2
2,6,4,-3,-1,5,0,1,6,7,6,2
2,6,3,-3,-1,5,0,0,6,7,6,2
2,6,3,-3,0,4,-1,0,6,6,6,2
3,6,3,-4,0,4,-1,0,6,6,6,2
3,6,3,-4,0,4,-1,-1,6,6,6,2
2,5,3,-4,0,4,-1,-1,6,6,5,2
2,5,3,-4,0,4,-1,-1,6,6,5,2
2,5,3,-4,0,4,-1,-1,6,6,5,2
3,6,3,-4,0,4,-1,-1,6,6,5,2
3,6,3,-4,0,4,-1,-1,5,6,5,2
2,5,3,-4,-1,4,-1,-2,5,5,5,2
2,5,3,-4,-1,4,-1,-2,5,5,5,1
2,5,3,-4,-1,4,-1,-2,5,5,5,1
2,5,3,-4,-1,4,-1,-2,5,5,5,1
2,5,3,-4,-1,4,-2,-2,5,5,5,1
3,5,2,-4,0,4,-2,-2,5,5,5,1
2,4,2,-3,0,3,-2,-1,5,5,5,1
1,4,2,-3,-1,3,-2,-1,5,5,5,1
1,4,1,-2,-1,2,-2,-2,5,5,4,1
1,3,1,-2,0,2,-2,-2,5,4,3,0
0,3,0,-2,0,1,-2,-1,4,4,2,-2
0,2,0,-1,0,0,-2,-1,2,2,0,-4
1,0,-1,-1,1,-1,-2,-1,0,0,-4,-8
1,-1,-3,0,2,-3,-2,-1,-4,-5,-8,-11
2,-2,-5,0,3,-4,-2,-1,-9,-10,-13,-14
2,-3,-6,0,3,-5,-2,-2,-13,-14,-16,-16
1,-3,-5,0,2,-4,-2,-3,-15,-16,-18,-15
0,-1,-2,0,0,-2,-3,-4,-16,-16,-17,-13
-1,0,0,0,-1,0,-3,-6,-16,-15,-15,-10
-1,2,2,0,-2,2,-4,-7,-15,-13,-13,-6
-1,3,4,0,-3,4,-6,-8,-12,-10,-11,-2
-1,5,5,-1,-4,5,-7,-8,-8,-7,-8,3
-1,7,7,-2,-5,7,-9,-9,-6,-3,-4,10
0,9,8,-4,-5,8,-11,-9,-5,0,0,18
0,10,8,-5,-5,9,-12,-9,-4,2,5,27
1,10,7,-5,-4,8,-14,-9,-8,2,9,36
3,11,6,-6,-2,8,-16,-9,-18,-3,11,46
6,13,5,-9,0,9,-18,-11,-33,-13,13,58
9,15,5,-11,1,10,-20,-15,-54,-29,11,69
11,18,6,-14,1,12,-23,-18,-76,-49,6,78
12,22,9,-17,1,15,-25,-21,-98,-70,-1,86
13,26,12,-19,0,19,-27,-26,-117,-90,-10,91
12,30,16,-21,-2,23,-30,-32,-136,-109,-20,96
11,34,22,-22,-6,27,-33,-40,-152,-127,-30,100
9,37,27,-22,-10,32,-36,-49,-166,-141,-40,104
6,38,32,-22,-14,35,-39,-59,-178,-153,-48,108
2,38,36,-19,-18,37,-40,-68,-189,-163,-55,111
-3,37,39,-16,-22,38,-40,-75,-196,-170,-62,111
-8,37,43,-14,-26,39,-39,-81,-199,-175,-68,108
-14,35,47,-10,-31,40,-36,-85,-200,-177,-75,102
-19,30,47,-6,-34,38,-33,-86,-201,-179,-82,91
-22,24,45,-1,-34,34,-29,-87,-200,-180,-90,76
-24,17,40,3,-33,28,-26,-87,-197,-179,-97,59
-23,9,32,7,-28,20,-22,-84,-189,-173,-103,40
-22,0,22,11,-23,10,-18,-78,-178,-164,-105,17
-21,-9,11,15,-17,0,-14,-70,-162,-151,-104,-9
-21,-18,2,19,-12,-8,-11,-60,-144,-136,-101,-35
-20,-23,-5,21,-7,-15,-8,-50,-125,-119,-94,-53
-17,-26,-10,21,-3,-19,-6,-40,-105,-102,-85,-59
-14,-27,-14,20,0,-21,-5,-31,-86,-85,-73,-59
-11,-26,-15,18,2,-21,-4,-23,-68,-69,-61,-55
-8,-24,-16,16,4,-20,-3,-15,-53,-55,-50,-50
-4,-21,-17,13,5,-19,-2,-8,-40,-43,-41,-44
-2,-19,-17,10,6,-18,-1,-3,-30,-33,-32,-39
0,-16,-17,8,7,-17,0,1,-21,-24,-25,-33
0,-13,-16,6,8,-16,0,3,-14,-16,-18,-28
1,-11,-14,5,7,-14,1,5,-7,-10,-13,-24
2,-9,-13,4,7,-12,1,6,-1,-4,-8,-20
3,-8,-12,3,7,-10,1,7,3,0,-3,-17
4,-6,-11,2,7,-9,1,7,7,4,1,-14
4,-5,-10,1,6,-8,2,8,10,8,4,-12
4,-5,-9,1,5,-7,2,9,12,10,6,-11
3,-4,-8,0,4,-6,2,9,14,13,8,-9
3,-3,-8,0,4,-6,2,9,16,14,10,-8
3,-3,-7,0,4,-5,3,9,17,15,11,-7
2,-3,-7,0,5,-5,3,10,17,16,11,-6
2,-3,-7,0,5,-5,3,10,17,16,11,-7
2,-4,-7,0,5,-5,4,11,18,16,11,-7
3,-4,-7,0,5,-6,4,11,18,16,12,-8
2,-4,-7,1,5,-6,4,11,18,15,11,-8
2,-4,-7,1,5,-7,4,11,17,15,10,-9
2,-5,-8,1,5,-7,5,11,17,15,10,-9
2,-5,-9,1,6,-8,6,12,18,15,10,-9
2,-6,-10,1,6,-8,6,12,18,16,10,-9
2,-7,-11,2,6,-9,7,13,18,16,11,-9
3,-7,-11,1,7,-9,7,13,18,16,11,-9
3,-7,-11,1,7,-9,8,14,19,16,11,-9
3,-7,-11,2,7,-9,9,14,19,16,11,-9
3,-7,-11,2,7,-9,9,14,19,16,11,-8
3,-7,-11,2,7,-9,9,14,19,17,12,-8
3,-6,-11,1,7,-9,9,14,19,17,12,-8
3,-6,-11,1,7,-8,9,14,19,17,11,-8
2,-6,-10,1,6,-7,10,14,19,16,11,-9
2,-5,-9,1,6,-7,10,15,19,17,11,-9
2,-5,-8,1,5,-7,11,15,19,17,11,-9
2,-5,-8,1,5,-7,11,16,19,17,11,-9
2,-5,-8,1,5,-7,12,16,19,17,11,-9
3,-5,-9,1,6,-7,13,16,19,17,11,-9
3,-5,-10,1,6,-8,13,16,19,17,11,-10
3,-5,-11,1,6,-8,13,16,20,17,11,-10
2,-5,-10,1,6,-8,13,16,20,18,11,-10
2,-5,-9,1,5,-7,13,17,20,18,11,-10
2,-5,-9,1,5,-7,14,17,20,18,11,-11
2,-5,-8,1,5,-7,14,18,20,18,10,-11
2,-6,-8,1,5,-7,14,18,20,18,10,-11
2,-5,-8,1,5,-6,14,18,21,18,11,-11
2,-5,-8,1,5,-6,14,18,21,19,11,-11
2,-5,-8,1,5,-5,14,19,22,19,12,-10
2,-5,-8,1,5,-5,15,20,22,20,12,-10
3,-5,-8,0,5,-5,15,20,23,20,13,-9
3,-5,-8,0,5,-6,15,20,23,21,13,-9
3,-5,-8,0,5,-6,15,20,24,21,13,-9
2,-5,-8,0,4,-6,14,19,24,22,14,-9
2,-5,-7,0,4,-6,13,19,24,22,14,-9
2,-4,-7,0,4,-6,13,18,24,22,14,-9
3,-4,-7,0,4,-6,13,18,24,21,13,-10
3,-4,-7,0,4,-6,13,18,24,21,13,-11
3,-4,-7,0,4,-6,13,18,24,21,13,-11
3,-4,-7,0,4,-6,12,17,24,21,12,-11
3,-4,-7,0,4,-6,12,17,24,21,12,-11
3,-3,-7,0,5,-5,11,17,24,22,12,-11
3,-3,-7,-1,5,-5,11,17,24,22,12,-11
2,-3,-7,0,5,-5,11,17,25,23,13,-11
2,-3,-7,0,4,-5,10,17,25,23,13,-11
1,-3,-6,0,4,-5,10,17,26,23,13,-11
1,-3,-6,0,4,-5,10,17,26,23,13,-11
1,-3,-6,0,4,-5,10,16,27,23,13,-11
1,-4,-6,0,4,-5,9,16,27,24,13,-12
1,-4,-6,0,4,-5,9,16,28,24,13,-12
1,-4,-6,0,4,-5,9,16,28,25,13,-12
1,-3,-6,0,4,-5,8,16,29,25,14,-12
1,-3,-6,0,4,-5,8,16,30,26,14,-12
1,-3,-6,0,4,-5,8,16,31,26,15,-12
1,-4,-7,0,4,-6,8,16,31,26,15,-12
1,-4,-7,0,4,-6,8,16,31,26,15,-12
1,-4,-6,0,4,-5,7,16,31,27,15,-12
1,-4,-6,0,3,-5,7,16,32,28,15,-12
2,-4,-6,0,3,-4,6,16,32,28,15,-12
2,-3,-5,0,3,-4,6,16,33,28,15,-12
2,-2,-4,0,3,-3,6,16,33,28,15,-12
2,-1,-3,-1,2,-2,6,16,34,29,14,-13
2,0,-2,-1,2,-1,6,17,34,29,14,-13
1,0,-1,-2,1,-1,7,17,35,30,14,-13
1,0,-1,-2,1,-1,7,17,35,30,14,-13
1,0,-1,-2,1,-1,7,17,36,31,14,-13
1,0,-1,-2,1,-1,6,16,36,31,14,-13
1,0,-1,-2,1,-1,6,16,36,30,13,-13
1,0,-1,-2,1,-1,6,16,36,31,14,-13
2,0,-1,-2,1,-1,6,16,37,31,14,-13
2,0,-2,-2,1,-1,6,16,37,31,14,-14
2,1,-2,-2,1,0,6,16,37,31,14,-14
2,1,-2,-3,1,0,6,16,37,31,13,-13
2,1,-1,-2,1,0,6,16,37,31,13,-13
1,1,-1,-2,1,0,6,16,37,31,13,-12
1,1,-1,-2,1,0,6,16,37,31,13,-12
2,1,-1,-2,1,0,5,16,37,31,13,-12
2,2,0,-2,1,1,4,15,37,31,13,-12
1,2,0,-2,1,1,4,15,37,30,12,-12
0,2,1,-2,0,1,4,15,36,30,12,-12
0,2,1,-2,0,1,4,15,36,29,11,-12
0,1,0,-2,0,1,4,15,36,29,10,-12
1,1,0,-2,0,1,5,15,35,29,10,-12
1,2,1,-2,0,1,5,15,35,29,10,-12
1,2,1,-2,0,1,5,15,35,28,9,-12
0,2,1,-2,0,1,4,15,34,27,8,-12
0,2,1,-2,0,1,4,14,33,26,8,-12
1,2,1,-2,0,1,4,14,32,26,8,-12
1,3,2,-2,0,2,4,13,32,26,8,-12
1,4,3,-3,-1,3,4,13,32,26,8,-12
1,5,4,-3,-2,5,4,13,31,26,7,-11
1,6,5,-3,-2,5,4,13,30,25,6,-11
1,6,5,-3,-2,5,3,12,29,24,5,-11
1,6,5,-4,-2,6,3,12,28,22,5,-11
1,7,6,-4,-2,6,3,12,27,22,5,-10
1,7,6,-4,-2,6,3,12,27,22,5,-9
1,7,6,-5,-2,6,3,11,26,21,5,-9
2,8,6,-5,-2,7,2,11,25,20,4,-9
1,8,6,-5,-2,7,2,11,25,19,4,-9
1,7,6,-5,-3,7,3,11,24,19,3,-9
1,7,6,-5,-2,7,3,11,24,18,3,-8
1,7,5,-5,-2,7,3,10,23,18,3,-6
1,7,6,-5,-2,7,3,10,23,18,4,-5
1,7,6,-4,-2,7,3,10,22,18,4,-4
1,7,5,-4,-1,6,3,10,21,17,4,-3
2,7,5,-5,-1,6,3,10,20,16,4,-3
2,7,4,-5,-1,5,3,10,19,16,4,-2
2,6,4,-4,-1,5,3,10,18,15,4,-2
1,6,5,-4,-2,5,3,10,17,15,3,-2
0,6,5,-4,-2,6,3,10,17,14,3,-1
0,6,5,-4,-2,6,4,10,16,13,3,-1
0,6,5,-4,-2,6,4,10,16,12,3,-1
1,7,5,-4,-2,6,4,10,15,12,3,-1
1,7,5,-4,-2,6,4,10,13,11,2,0
2,7,5,-4,-2,6,4,10,12,10,2,0
2,7,4,-5,-1,6,4,10,11,9,2,0
3,7,4,-5,-1,6,5,10,11,9,2,0
2,6,4,-5,-1,5,5,10,10,8,2,0
2,6,3,-4,-1,5,5,10,10,7,1,0
2,5,3,-4,0,4,5,10,9,6,1,0
2,5,2,-4,0,4,5,10,8,5,0,0
2,4,1,-3,0,3,6,10,7,5,0,0
2,3,1,-3,0,3,6,10,6,4,0,0
2,3,0,-3,0,2,7,10,5,4,0,1
3,3,0,-4,1,2,7,10,5,4,0,1
2,3,1,-4,0,2,7,9,5,4,1,2
1,2,1,-2,0,2,6,8,5,3,0,1
0,2,1,-1,0,1,7,7,4,3,0,1
0,1,1,-1,0,1,7,7,4,3,0,1
-1,0,0,0,0,0,7,7,4,2,0,1
0,0,0,0,0,0,7,7,3,2,0,1
0,0,1,-1,-1,1,7,7,3,2,0,1
0,1,2,-1,-1,2,7,7,3,2,1,1
-1,2,3,-1,-2,2,7,6,3,2,0,1
-1,2,3,-1,-2,2,7,6,3,1,1,1
-1,2,2,-1,-1,2,7,7,3,2,1,2
0,2,2,-2,-1,2,7,7,3,2,1,2
0,3,2,-2,0,2,7,7,3,2,1,2
0,3,2,-3,-1,3,7,7,3,2,2,3
0,4,3,-3,-1,4,6,7,3,2,2,3
0,4,4,-3,-1,4,6,7,3,2,2,3
1,5,4,-3,-1,4,6,8,3,3,2,3
1,5,3,-3,-1,4,6,8,4,3,3,3
1,5,3,-3,-1,4,6,8,4,3,3,3
1,5,3,-3,-1,4,6,9,4,3,3,3
1,5,3,-3,-1,4,6,9,4,3,3,3
1,4,3,-3,-1,3,6,10,4,4,4,3
0,3,2,-2,-1,3,5,10,4,4,4,3
0,3,3,-2,-1,3,5,10,5,5,4,3
0,4,3,-2,-1,4,5,10,6,6,6,4
0,4,3,-2,-1,4,4,9,6,6,6,4
1,5,3,-3,-1,4,3,9,6,5,6,4
1,6,3,-3,-1,4,2,8,6,5,5,3
1,5,3,-3,-1,3,1,8,6,4,5,3
1,4,2,-2,0,2,0,8,6,4,5,3
1,4,1,-2,0,2,0,7,6,5,5,4
1,3,2,-2,0,2,0,6,6,5,5,4
1,3,2,-3,0,2,0,5,5,5,5,4
2,4,1,-4,0,2,-1,4,4,5,5,4
2,5,2,-4,0,3,-1,3,4,5,5,4
2,5,2,-4,0,3,-1,2,4,4,5,3
1,5,2,-3,0,3,-1,3,3,3,4,2
1,4,2,-3,0,2,0,3,3,3,4,2
1,3,1,-2,0,2,0,3,3,4,4,2
0,2,1,-2,0,2,0,3,3,4,4,2
0,2,1,-1,0,1,0,3,3,4,5,1
0,1,1,-1,0,1,1,3,3,4,5,1
0,1,1,-1,0,1,1,3,4,5,5,2
0,2,1,-2,0,1,1,3,4,5,6,3
1,2,1,-2,0,1,0,3,4,5,6,3
1,2,0,-2,0,1,0,2,4,5,6,4
1,3,0,-2,0,1,0,2,4,6,6,4
1,3,0,-2,0,2,0,1,4,5,5,3
1,3,0,-2,0,2,0,1,4,4,4,3
2,2,-1,-2,1,1,0,1,4,3,4,3
3,2,-2,-2,2,0,0,1,4,4,4,3
3,2,-2,-2,2,0,0,1,5,5,5,4
2,2,-1,-2,2,0,-1,1,5,5,6,5
1,1,-1,-1,1,0,-1,1,5,5,6,6
0,1,0,-1,0,0,-1,1,4,5,6,5
0,1,0,-1,0,0,-1,1,4,5,6,5
1,2,0,-1,0,1,-1,0,4,5,6,5
1,3,0,-2,0,1,-1,0,4,6,6,5
1,3,1,-2,0,1,-1,0,4,6,7,5
0,2,1,-1,0,1,-2,0,4,6,7,5
0,2,1,-1,-1,1,-2,0,4,5,7,4
0,2,1,-1,0,1,-2,0,4,4,6,3
1,2,1,-1,0,1,-2,0,4,5,6,3
1,2,1,-1,0,1,-2,0,5,6,7,4
0,1,1,-1,0,1,-2,1,5,6,7,5
1,1,0,-1,0,0,-2,1,5,6,7,5
1,1,-1,-1,1,0,-2,1,4,6,6,4
1,1,-1,-1,1,0,-2,1,4,5,5,4
1,1,0,-1,1,0,-2,1,4,5,5,4
1,1,0,-1,1,0,-1,1,4,4,4,4
1,1,0,-1,0,0,-1,1,4,5,5,4
1,1,0,-1,0,0,-1,1,4,5,5,5
1,2,0,-2,0,1,-1,1,4,5,5,5
2,3,0,-3,0,1,-1,1,4,6,5,5
2,4,1,-3,0,2,0,1,4,6,5,5
2,3,0,-3,0,2,0,2,4,5,5,5
2,2,0,-2,0,1,0,2,4,5,5,4
2,2,0,-2,1,0,0,2,4,4,5,4
2,2,0,-2,1,0,0,2,4,4,5,4
2,2,0,-2,1,0,0,1,4,5,5,4
2,2,-1,-2,1,0,0,1,3,4,4,4
2,1,-1,-2,1,0,0,1,3,4,4,4
2,1,-1,-1,1,0,0,1,4,5,5,4
1,2,0,-1,0,0,0,1,5,7,6,5
1,3,1,-2,0,1,0,1,5,7,7,5
1,3,1,-2,0,2,0,1,4,5,6,4
1,3,1,-2,0,1,0,1,4,4,5,4
1,2,0,-2,0,1,0,1,4,3,4,4
1,2,0,-2,1,0,0,1,4,4,5,5
2,3,0,-3,1,1,1,2,5,4,5,6
2,3,0,-3,1,1,1,2,5,5,5,6
3,3,0,-3,1,1,1,2,5,5,5,6
2,3,1,-3,0,2,1,2,5,5,5,6
1,3,2,-3,0,3,1,2,5,5,6,5
1,4,3,-3,-1,4,1,1,5,6,6,5
1,5,4,-4,-1,5,1,1,5,6,6,5
1,5,5,-4,-2,5,1,2,5,5,5,5
0,5,4,-3,-2,5,2,2,5,4,5,4
0,4,3,-3,-1,4,3,3,5,4,4,3
0,2,2,-2,0,2,3,3,4,3,3,2
0,1,0,-1,0,0,4,4,3,2,1,0
1,0,-1,-1,1,-1,4,4,1,0,-1,-2
2,0,-2,-1,2,-2,5,5,0,-1,-4,-5
2,-1,-3,-1,3,-2,5,5,-3,-4,-7,-7
2,-2,-4,-1,4,-3,5,4,-7,-8,-12,-9
1,-3,-5,0,3,-4,5,4,-11,-13,-15,-11
0,-3,-4,1,2,-3,5,3,-14,-15,-17,-11
0,-1,-2,0,1,-2,5,2,-15,-16,-16,-9
-1,0,0,0,0,0,5,1,-15,-16,-15,-6
-2,0,2,0,-2,1,4,0,-13,-14,-13,-3
-3,1,4,0,-3,2,3,-1,-9,-9,-10,2
-2,3,6,-1,-4,4,2,-1,-5,-4,-6,8
-2,6,8,-2,-5,7,0,-2,-3,0,-3,14
-2,7,9,-3,-5,8,-2,-4,-2,2,1,22
0,8,8,-4,-4,8,-4,-5,-3,4,4,30
1,8,6,-5,-2,7,-5,-5,-8,2,7,39
3,9,5,-6,-1,7,-6,-5,-19,-4,10,50
5,11,5,-8,0,8,-7,-6,-35,-15,10,63
7,13,6,-11,0,9,-9,-8,-55,-32,7,75
9,16,7,-13,1,11,-10,-10,-77,-53,1,84
10,19,8,-15,1,13,-12,-14,-98,-75,-8,91
11,22,10,-17,1,16,-14,-18,-117,-96,-19,96
11,26,14,-19,-1,20,-17,-24,-135,-115,-30,99
10,30,19,-20,-4,25,-19,-31,-151,-132,-42,102
8,33,24,-21,-7,29,-21,-40,-165,-146,-52,104
5,35,29,-20,-11,32,-23,-49,-178,-158,-62,107
1,34,32,-18,-15,33,-23,-57,-188,-169,-72,107
-4,32,36,-15,-20,34,-23,-65,-196,-178,-81,104
-10,32,41,-12,-26,36,-21,-72,-200,-183,-89,100
-16,30,45,-8,-30,37,-19,-76,-202,-186,-96,91
-21,26,46,-3,-33,36,-15,-78,-203,-188,-103,79
-24,21,44,1,-34,32,-11,-79,-204,-190,-111,63
-26,14,40,6,-32,26,-7,-78,-201,-189,-118,46
-26,6,32,10,-29,18,-3,-76,-195,-184,-122,26
-26,-3,23,14,-25,8,0,-71,-183,-174,-123,2
-25,-12,13,18,-20,-1,4,-62,-168,-160,-120,-25
-25,-20,4,21,-15,-9,8,-52,-150,-144,-114,-48
-23,-25,-3,23,-10,-15,10,-42,-130,-127,-106,-62
-21,-27,-8,23,-6,-18,11,-34,-110,-109,-94,-65
-17,-26,-11,21,-3,-18,12,-26,-90,-90,-80,-62
-13,-24,-11,18,-1,-17,12,-19,-72,-73,-67,-57
-10,-22,-12,16,1,-17,13,-12,-57,-58,-55,-50
-6,-19,-13,13,3,-17,14,-5,-43,-46,-45,-43
-4,-17,-13,10,4,-16,15,0,-32,-35,-35,-36
-3,-16,-13,8,4,-15,15,5,-23,-26,-27,-31
-2,-13,-12,7,4,-13,15,7,-16,-18,-21,-26
-2,-11,-11,6,4,-11,14,8,-9,-11,-15,-22
-1,-9,-9,5,4,-8,13,9,-4,-6,-9,-18
-1,-7,-7,4,4,-6,13,9,1,-1,-4,-15
0,-6,-6,3,3,-5,12,8,5,3,1,-12
0,-4,-4,2,2,-4,11,8,8,6,4,-10
0,-3,-2,1,1,-3,9,7,10,9,6,-8
0,-2,-1,0,0,-2,8,7,11,10,8,-7
0,-2,-1,0,0,-2,7,7,12,11,8,-6
0,-2,-1,0,0,-1,6,7,13,12,9,-5
0,-2,-1,0,0,-1,6,7,13,12,9,-5
0,-2,-2,0,1,-2,6,6,14,13,10,-4
0,-2,-2,0,1,-2,6,5,15,14,11,-4
0,-3,-2,0,2,-3,5,4,15,13,10,-5
0,-3,-3,0,2,-3,4,3,15,13,10,-5
0,-3,-3,0,2,-3,4,3,15,14,10,-5
0,-3,-3,0,2,-3,3,4,15,14,10,-5
0,-2,-3,0,2,-2,3,4,15,14,10,-5
0,-2,-3,0,2,-2,2,3,15,14,10,-5
0,-2,-3,0,2,-2,2,3,15,13,10,-6
0,-2,-3,0,3,-3,2,3,14,13,10,-6
0,-3,-4,1,3,-3,2,3,14,13,10,-7
0,-4,-5,1,3,-4,3,3,15,13,10,-6
0,-5,-5,2,2,-5,3,4,15,14,11,-5
-1,-6,-6,3,2,-6,3,4,15,14,11,-5
-1,-7,-6,3,2,-7,3,5,16,15,11,-4
-1,-7,-7,4,2,-7,4,5,16,15,12,-4
-1,-7,-7,4,3,-7,4,5,16,15,12,-4
-1,-7,-7,4,3,-8,5,6,16,15,12,-4
-1,-7,-8,4,4,-8,5,6,16,15,12,-4
-1,-8,-8,4,4,-9,5,6,16,15,12,-4
-1,-8,-9,4,4,-9,5,6,16,15,12,-5
0,-9,-10,4,5,-10,5,7,16,15,12,-5
0,-9,-10,4,5,-10,5,7,16,15,11,-6
0,-9,-10,4,5,-10,5,7,16,15,11,-6
0,-9,-11,4,6,-10,5,7,16,15,11,-7
1,-9,-11,3,6,-10,5,7,16,15,11,-7
1,-9,-11,3,6,-10,5,7,16,15,11,-7
0,-9,-11,3,6,-10,5,7,17,15,11,-7
0,-9,-11,3,5,-10,5,7,17,15,11,-7
0,-9,-11,4,5,-10,5,7,18,16,11,-7
0,-9,-11,4,5,-10,6,8,18,16,11,-7
0,-10,-11,4,5,-11,6,8,18,16,11,-8
0,-11,-12,5,6,-12,7,8,18,16,11,-8
0,-11,-13,5,6,-12,7,9,18,16,12,-8
0,-12,-13,5,7,-13,7,9,19,17,12,-8
0,-12,-13,6,7,-13,7,10,19,17,12,-8
0,-13,-13,6,7,-13,7,10,19,17,12,-7
0,-13,-13,6,7,-13,7,10,19,17,12,-7
0,-13,-13,6,7,-13,7,10,20,18,12,-7
0,-12,-13,6,7,-13,7,10,20,18,13,-7
0,-12,-13,6,7,-13,8,10,21,19,13,-6
0,-12,-12,6,6,-12,8,10,22,20,14,-6
0,-12,-12,6,6,-12,8,10,22,20,14,-6
0,-11,-11,5,6,-11,8,11,23,21,15,-6
0,-10,-10,5,5,-10,9,11,23,21,15,-6
0,-9,-10,4,5,-9,9,11,24,21,15,-6
0,-9,-10,4,5,-9,9,12,24,21,15,-7
0,-8,-10,3,5,-9,9,12,25,22,16,-7
1,-8,-10,3,5,-9,9,12,25,23,16,-7
1,-8,-10,3,5,-9,10,13,25,24,16,-7
1,-8,-10,3,5,-9,10,13,26,24,16,-7
1,-8,-10,3,5,-9,11,14,27,25,16,-8
1,-7,-9,3,5,-9,11,14,28,25,16,-8
1,-7,-9,3,5,-8,12,14,28,25,16,-8
1,-7,-9,3,5,-8,12,15,29,26,17,-8
1,-8,-10,4,5,-9,12,15,29,26,18,-7
1,-8,-10,4,5,-9,12,16,30,27,18,-7
1,-8,-10,4,5,-9,12,16,30,27,19,-6
1,-8,-10,4,5,-9,12,16,31,28,19,-6
1,-8,-10,4,5,-9,12,16,32,28,19,-6
1,-8,-10,4,5,-9,12,16,33,29,19,-6
1,-8,-9,3,5,-9,12,17,34,30,20,-6
1,-7,-9,3,5,-8,12,17,35,32,21,-6
1,-7,-8,3,4,-7,12,17,35,32,21,-6
1,-6,-8,2,4,-7,12,17,35,32,20,-6
1,-6,-8,2,4,-7,13,18,36,32,20,-7
1,-6,-8,2,4,-7,13,18,36,32,19,-7
1,-6,-8,2,5,-7,13,18,36,32,19,-8
2,-6,-8,1,5,-7,13,18,36,32,19,-8
3,-6,-9,1,6,-7,13,18,37,32,19,-8
3,-6,-9,1,6,-8,13,18,37,32,19,-9
3,-6,-9,1,6,-8,13,19,37,32,19,-9
2,-6,-9,1,6,-8,13,19,38,33,19,-9
1,-6,-8,2,4,-7,13,19,39,34,19,-8
0,-5,-6,2,3,-6,13,19,39,34,19,-8
0,-5,-5,2,3,-5,13,19,39,34,19,-8
0,-4,-5,2,2,-4,13,19,39,34,18,-8
0,-4,-4,2,2,-4,14,19,39,34,18,-8
0,-3,-4,2,1,-3,14,20,39,34,18,-8
0,-3,-3,1,1,-3,14,20,40,35,18,-8
0,-2,-3,1,2,-3,13,19,40,35,17,-9
0,-2,-4,1,2,-3,13,19,39,34,16,-9
0,-2,-4,1,2,-3,12,19,39,34,16,-9
0,-2,-3,1,2,-2,12,18,39,33,15,-9
0,-2,-3,0,2,-2,12,18,39,33,15,-9
1,-1,-3,0,2,-1,12,18,38,32,15,-9
1,-1,-3,0,2,-1,12,17,37,31,14,-9
1,-1,-3,0,2,-1,12,17,36,30,14,-9
0,-2,-2,0,2,-1,11,16,35,30,13,-9
0,-2,-2,0,1,-1,11,15,35,29,12,-9
0,-1,-2,0,1,-1,11,15,34,29,12,-9
0,-1,-1,0,0,0,11,15,34,28,11,-9
-1,0,0,0,0,0,11,14,33,28,10,-9
-1,0,0,0,0,0,11,14,33,27,10,-9
-1,0,1,0,-1,1,12,15,32,26,10,-8
-2,1,2,0,-2,2,12,15,31,26,9,-8
-2,1,3,0,-2,2,12,14,30,25,8,-8
-1,2,3,0,-2,3,12,14,29,24,8,-8
-1,3,4,-1,-2,4,12,14,29,23,7,-8
-1,4,4,-2,-2,4,12,14,28,23,7,-8
-1,4,5,-2,-3,5,12,13,28,23,7,-8
-1,5,6,-2,-3,5,11,13,27,22,7,-8
-1,5,6,-2,-4,6,11,13,26,21,7,-7
-1,6,7,-2,-4,6,10,12,25,20,6,-6
-1,6,7,-2,-4,6,9,12,24,19,6,-5
-1,7,7,-2,-4,7,8,12,23,19,6,-4
-1,7,7,-2,-4,7,7,12,23,18,6,-3
-1,7,7,-2,-4,7,7,12,22,18,6,-2
-1,7,6,-3,-4,7,6,12,22,18,6,-2
0,7,6,-3,-4,7,5,11,22,18,6,-1
0,7,6,-3,-4,7,4,11,21,18,7,-1
0,7,6,-4,-3,7,3,10,20,17,7,0
0,7,6,-4,-3,7,3,10,19,16,6,0
0,7,6,-4,-3,7,2,10,18,15,6,1
0,7,6,-3,-3,7,2,10,17,14,5,1
0,7,6,-3,-3,7,2,9,16,13,5,1
0,7,6,-3,-3,6,2,9,16,13,5,1
0,7,6,-3,-2,6,1,8,15,12,5,1
0,6,5,-3,-2,5,1,8,15,12,5,2
0,5,5,-2,-2,5,1,8,14,11,5,3
0,5,6,-2,-3,5,1,8,14,11,5,4
0,6,6,-2,-3,5,1,8,13,10,5,4
0,6,6,-2,-3,6,1,8,12,10,5,5
0,6,6,-2,-3,6,1,8,12,9,5,5
0,6,5,-2,-3,6,1,8,11,9,5,5
0,6,5,-2,-3,5,1,8,11,8,4,5
0,5,4,-2,-2,5,1,8,10,7,4,5
0,4,3,-2,-1,4,1,8,9,6,3,5
0,3,1,-2,0,3,1,8,9,6,3,5
1,2,0,-2,0,2,1,7,8,5,3,5
1,1,0,-1,1,1,1,7,8,5,3,5
0,1,0,-1,0,1,2,7,8,5,3,6
0,1,0,0,0,1,2,7,8,5,3,6
0,1,0,0,0,1,2,7,8,5,3,5
0,1,1,0,0,1,2,7,7,5,4,5
0,1,1,0,-1,2,2,7,7,5,4,5
0,2,1,-1,-1,2,2,6,7,5,4,5
0,2,1,-1,0,2,2,6,6,5,4,5
0,3,1,-2,0,2,2,6,6,5,4,5
0,3,1,-2,0,2,2,6,6,4,3,5
0,2,0,-2,0,2,2,6,6,4,3,5
0,2,0,-1,0,2,2,6,6,4,4,5
0,1,1,-1,0,2,2,6,6,4,4,6
0,1,1,0,0,1,2,6,6,4,4,6
0,0,0,0,0,0,2,6,6,4,4,6
0,0,0,0,0,0,2,6,6,4,4,6
-1,0,-1,1,0,-1,2,6,6,4,4,6
-1,-1,-1,1,0,-1,2,6,6,4,5,7
-1,0,0,0,0,0,2,6,6,5,5,7
-1,0,0,0,0,0,2,6,7,5,6,7
-1,0,0,0,0,0,2,6,6,4,6,7
-1,0,0,0,0,0,2,6,6,4,6,7
-1,0,-1,0,0,0,2,6,6,4,6,7
-1,0,-1,0,0,0,2,6,6,5,6,7
-1,0,-1,0,0,-1,2,6,6,5,6,7
0,-1,-1,0,0,-1,2,6,6,5,6,6
0,-1,-2,0,1,-1,2,6,5,5,6,6
0,-1,-2,0,1,-1,2,6,5,4,5,6
0,-1,-2,0,1,-1,2,6,5,4,5,6
0,-1,-2,0,1,-1,3,6,5,4,5,6
0,-1,-3,0,2,-2,3,6,5,4,6,6
0,-1,-3,0,2,-2,3,6,5,4,6,6
0,-2,-3,0,2,-3,2,6,4,4,6,6
0,-3,-3,1,2,-3,2,5,4,4,5,6
0,-3,-4,1,2,-4,1,4,3,3,5,6
1,-3,-5,1,3,-4,1,4,3,3,5,6
2,-3,-6,0,4,-4,0,3,3,3,5,6
2,-3,-6,0,4,-4,0,3,3,3,6,6
2,-3,-6,0,4,-4,0,3,3,3,6,6
1,-3,-5,0,3,-4,0,2,3,3,6,6
1,-2,-4,0,3,-3,0,2,3,3,5,6
1,-1,-3,0,3,-2,0,2,3,3,5,6
1,0,-2,-1,3,-1,0,2,3,3,6,6
1,0,-1,-1,2,-1,1,3,3,3,6,6
0,0,-1,0,2,-1,1,3,3,3,6,6
0,-1,-2,0,2,-2,1,2,3,3,6,6
0,-1,-2,0,2,-2,2,2,2,3,6,7
0,-2,-2,0,2,-3,2,2,2,3,6,7
0,-2,-2,1,2,-3,2,1,2,3,6,7
-1,-2,-2,1,1,-3,2,1,2,3,6,8
-1,-2,-2,1,1,-3,3,1,2,3,6,8
-1,-2,-2,1,1,-3,3,1,2,3,6,7
-1,-2,-2,1,1,-3,3,0,2,3,6,7
-1,-2,-2,1,1,-2,3,0,2,3,6,7
-1,-1,-1,1,1,-2,3,0,2,3,6,7
-1,-1,-1,1,0,-2,3,0,2,3,6,7
-1,-1,-1,1,0,-2,3,0,2,3,6,8
-1,-1,-1,1,0,-1,3,0,2,4,6,8
-1,-1,-1,1,0,-1,3,0,2,4,6,7
-1,-1,-1,1,0,-1,3,0,1,3,5,7
-1,-1,-1,1,0,-1,3,0,1,3,5,7
-1,0,0,1,0,0,4,0,2,4,5,7
-2,0,1,1,-1,0,4,0,2,4,5,7
-2,0,1,1,-2,0,5,0,2,4,5,7
-2,0,1,1,-2,0,5,0,2,4,5,7
-2,0,1,0,-1,0,5,0,2,4,5,8
-2,0,1,0,-1,0,5,1,3,4,6,8
-2,0,1,0,-1,0,5,1,3,5,6,8
-2,-1,0,0,-1,0,6,1,3,5,6,8
-2,-1,1,1,-1,0,6,1,3,5,6,8
-3,-1,1,1,-2,0,6,2,3,6,6,8
-3,0,1,1,-2,0,7,2,4,6,6,8
-2,0,1,1,-2,0,7,2,4,6,6,8
-2,0,1,1,-2,0,8,3,4,6,6,7
-3,0,2,1,-2,0,8,3,5,6,6,6
-3,0,3,1,-3,1,8,4,5,6,6,6
-4,0,3,2,-3,1,8,4,5,6,6,6
-4,0,3,2,-3,1,8,4,4,5,6,6
-3,0,3,1,-3,1,8,4,4,5,5,6
-3,0,2,1,-2,1,8,4,5,5,5,7
-2,0,2,1,-2,1,9,5,5,5,5,7
-2,0,1,1,-2,0,9,5,4,5,5,7
-2,0,1,1,-2,0,9,5,4,5,5,7
-2,0,1,1,-2,0,9,5,4,5,5,7
-2,0,1,1,-2,0,9,5,4,6,5,7
-2,0,2,1,-2,0,9,5,4,6,5,7
-2,0,2,1,-2,0,9,5,4,6,5,6
-2,0,1,1,-2,0,9,5,4,5,5,6
-2,0,1,1,-2,0,9,6,4,5,5,6
-2,0,1,1,-2,0,9,6,5,5,5,6
-2,0,1,1,-2,0,9,6,5,5,5,6
-2,0,1,1,-2,0,9,6,5,5,5,6
-2,0,1,1,-1,0,9,6,5,5,5,6
-2,0,1,1,-1,0,9,6,5,5,5,6
-2,0,2,1,-2,1,8,6,5,5,5,6
-2,0,2,1,-2,1,8,6,5,5,5,6
-2,0,2,0,-2,1,8,6,5,5,5,6
-2,1,2,0,-2,1,8,6,5,6,5,7
-2,1,2,0,-2,2,8,7,5,6,5,7
-2,2,2,0,-2,2,8,7,5,6,5,6
-2,1,2,0,-2,1,8,7,5,6,5,5
-2,1,1,0,-2,1,9,7,4,5,3,4
-1,0,0,0,-1,0,9,8,3,4,1,1
-1,-1,0,0,-1,0,10,8,2,2,-1,-1
-2,-2,-1,1,0,-1,10,8,0,-1,-5,-4
-2,-4,-2,2,0,-2,10,8,-4,-5,-9,-7
-3,-5,-2,3,0,-3,10,8,-8,-10,-13,-10
-3,-5,-2,4,0,-4,10,7,-12,-13,-16,-11
-4,-5,-1,5,-1,-3,9,5,-15,-16,-18,-12
-6,-5,0,5,-3,-2,8,4,-17,-17,-18,-10
-7,-4,2,5,-4,0,7,2,-17,-17,-17,-7
-8,-2,4,5,-6,1,6,1,-15,-15,-16,-4
-8,-1,6,4,-7,3,5,0,-11,-11,-13,1
-7,1,7,3,-7,4,3,0,-6,-6,-8,8
-7,3,9,1,-8,6,1,-1,-3,-1,-4,16
-6,5,10,0,-8,8,-1,-2,-2,2,1,24
-4,7,10,-2,-6,8,-3,-3,-2,5,5,32
-1,7,8,-3,-4,7,-5,-3,-6,4,9,42
1,8,6,-5,-2,7,-7,-4,-16,-1,11,53
4,10,5,-7,0,7,-9,-6,-31,-12,12,65
6,13,5,-9,1,9,-11,-8,-51,-28,10,76
8,16,6,-12,1,11,-13,-12,-73,-49,5,86
10,19,7,-14,1,13,-15,-15,-95,-70,-2,93
11,22,9,-16,1,15,-18,-19,-114,-90,-12,99
10,25,13,-17,-1,19,-20,-24,-132,-110,-23,103
9,29,19,-18,-4,23,-23,-32,-149,-127,-35,106
6,31,24,-19,-8,28,-25,-40,-163,-142,-46,110
3,33,29,-18,-12,31,-27,-49,-176,-155,-56,113
0,32,33,-16,-16,32,-29,-58,-187,-166,-66,113
-5,31,36,-12,-21,33,-29,-65,-194,-175,-75,111
-11,29,40,-9,-26,34,-27,-71,-199,-180,-82,106
-17,28,44,-5,-30,35,-24,-75,-201,-183,-88,99
-22,25,45,-1,-33,34,-20,-76,-202,-185,-95,88
-25,19,43,3,-34,31,-17,-77,-201,-186,-102,74
-27,12,39,7,-32,25,-13,-76,-197,-183,-109,58
-27,3,31,11,-29,17,-10,-73,-190,-177,-113,39
-27,-5,22,15,-24,7,-7,-68,-178,-168,-114,14
-26,-14,11,20,-19,-2,-3,-60,-163,-154,-112,-13
-25,-22,1,23,-13,-10,0,-50,-146,-139,-107,-38
-23,-26,-6,24,-8,-16,2,-41,-127,-122,-99,-52
-20,-29,-11,24,-4,-20,3,-33,-107,-105,-88,-57
-17,-29,-14,23,0,-22,3,-25,-88,-87,-75,-56
-13,-28,-16,20,2,-23,3,-18,-71,-72,-64,-52
-9,-26,-17,18,4,-22,4,-11,-55,-57,-53,-46
-6,-24,-18,15,6,-22,4,-5,-42,-45,-43,-40
-3,-22,-19,12,7,-21,5,0,-31,-35,-34,-33
-2,-20,-19,11,8,-20,5,4,-22,-26,-26,-28
-2,-18,-18,10,8,-18,5,6,-14,-18,-19,-23
-2,-16,-16,8,8,-16,5,8,-8,-11,-13,-18
-1,-14,-14,7,7,-14,5,8,-2,-5,-7,-15
-1,-12,-12,7,6,-13,5,9,2,0,-2,-12
-1,-11,-11,6,5,-11,5,9,6,4,1,-10
-1,-10,-10,5,5,-10,4,9,9,7,4,-8
0,-9,-10,4,4,-10,4,8,11,9,5,-8
0,-8,-9,3,4,-9,3,8,12,10,7,-7
0,-7,-9,3,4,-8,3,9,13,12,8,-6
0,-7,-8,3,4,-7,3,9,13,13,9,-4
0,-7,-8,3,4,-7,3,9,14,13,10,-3
0,-7,-7,4,4,-7,4,9,14,13,11,-3
0,-8,-7,4,4,-7,4,9,15,13,11,-3
0,-8,-7,4,4,-8,4,9,15,14,11,-3
0,-7,-7,3,3,-8,4,9,16,14,11,-3
0,-7,-7,3,3,-8,4,9,16,14,11,-3
0,-7,-7,3,3,-8,4,9,16,15,11,-3
0,-7,-7,3,3,-8,4,10,16,15,11,-2
0,-7,-7,3,4,-7,4,10,16,15,11,-2
0,-6,-7,3,4,-7,4,10,17,15,12,-2
0,-6,-7,3,4,-6,4,10,17,16,12,-2
0,-6,-7,3,4,-6,5,10,18,16,13,-2
0,-6,-6,3,3,-6,5,10,18,17,13,-2
-1,-6,-6,3,3,-6,5,10,18,17,13,-2
-1,-6,-5,3,3,-6,5,11,18,17,13,-2
-2,-7,-5,3,3,-6,5,11,18,17,12,-3
-2,-7,-6,3,3,-6,5,11,18,17,12,-3
-1,-7,-6,3,3,-6,5,11,18,17,12,-3
-1,-6,-6,3,3,-6,5,11,19,17,12,-3
-1,-6,-6,3,3,-6,5,11,19,17,12,-3
-1,-6,-6,3,3,-6,5,11,19,17,12,-3
0,-6,-7,3,4,-7,5,11,19,17,12,-3
0,-6,-7,2,4,-7,5,11,19,17,12,-3
0,-7,-8,2,4,-7,5,12,19,17,12,-3
0,-7,-8,3,4,-7,5,11,19,17,12,-3
0,-7,-8,3,4,-7,5,11,20,17,12,-4
0,-7,-8,3,4,-7,6,11,20,18,13,-4
0,-7,-8,3,4,-7,6,11,20,18,13,-4
-1,-7,-7,4,3,-7,6,11,20,18,13,-4
-2,-7,-7,4,3,-7,6,10,20,18,13,-5
-3,-7,-7,5,2,-7,6,10,20,19,13,-6
-3,-8,-7,5,2,-7,7,10,21,19,13,-6
-3,-8,-7,5,2,-7,7,10,21,19,13,-6
-3,-8,-7,5,2,-7,7,10,21,19,13,-6
-3,-8,-7,5,2,-7,8,10,21,19,13,-6
-3,-8,-7,5,2,-7,8,10,21,19,13,-6
-3,-8,-7,5,2,-7,9,10,21,20,13,-5
-2,-8,-7,5,2,-8,9,10,22,20,13,-5
-2,-8,-7,5,3,-8,9,10,22,20,14,-5
-1,-8,-8,4,3,-8,9,10,22,21,14,-5
-1,-8,-8,4,4,-8,9,10,23,21,14,-5
-1,-8,-7,4,3,-8,10,11,23,21,14,-5
-2,-8,-7,4,3,-7,10,11,24,22,15,-5
-2,-8,-6,4,2,-7,10,12,24,22,15,-5
-3,-8,-6,5,2,-7,11,12,24,22,15,-6
-3,-7,-6,4,2,-6,11,12,25,22,15,-6
-2,-7,-6,4,2,-6,12,13,25,22,15,-6
-2,-7,-6,4,2,-6,12,13,26,23,15,-6
-2,-7,-6,4,2,-6,12,14,26,23,15,-6
-2,-8,-6,5,2,-6,12,14,26,24,15,-6
-2,-8,-7,4,2,-7,12,14,27,24,15,-6
-1,-8,-7,4,3,-7,12,14,28,25,16,-6
-1,-8,-7,4,3,-7,11,14,28,25,16,-5
-1,-8,-7,4,3,-8,11,14,29,26,16,-5
-1,-8,-7,4,3,-8,11,14,29,26,16,-5
-1,-8,-7,4,3,-8,10,14,30,27,17,-6
-1,-7,-7,4,3,-7,10,14,31,27,17,-6
-1,-7,-6,4,3,-7,10,14,31,28,17,-6
-1,-7,-6,3,3,-7,10,14,32,28,17,-6
-1,-7,-6,3,3,-7,10,15,32,29,18,-7
-1,-7,-5,3,2,-6,10,15,33,29,18,-7
-1,-6,-5,3,2,-6,10,15,33,30,18,-7
-1,-6,-5,3,2,-6,10,15,34,30,18,-8
0,-5,-5,2,2,-5,10,15,34,31,18,-8
0,-5,-5,2,2,-5,9,16,35,31,18,-8
0,-4,-5,2,2,-5,9,16,36,32,18,-7
0,-4,-5,2,2,-5,9,16,36,32,18,-7
0,-4,-5,2,2,-5,9,16,37,33,18,-7
0,-4,-4,2,2,-4,9,16,38,33,19,-7
0,-4,-4,2,2,-4,9,16,38,34,19,-6
0,-3,-4,1,2,-4,10,16,39,34,19,-6
0,-3,-3,1,2,-4,10,17,40,35,20,-6
0,-2,-2,1,1,-3,10,17,41,36,20,-5
0,-2,-2,1,1,-2,10,18,41,36,20,-5
-1,-1,-1,1,0,-1,10,18,42,36,20,-5
-1,-1,-1,0,0,-1,10,18,42,36,20,-5
-1,0,-1,0,0,0,9,18,42,36,20,-5
0,0,0,0,0,0,9,18,42,37,20,-5
0,0,0,0,0,0,9,17,42,37,20,-5
0,0,0,0,0,0,8,17,42,37,20,-5
-1,0,1,0,-1,0,8,17,42,37,20,-5
-1,0,1,0,-1,1,8,17,42,37,19,-5
-1,1,2,0,-1,1,8,17,42,36,19,-5
-1,1,2,0,-1,1,8,17,42,36,18,-5
0,2,2,-1,-1,1,8,17,41,35,18,-5
0,2,2,-1,-1,2,8,16,41,35,17,-5
0,2,2,-1,-1,2,8,16,40,34,16,-6
0,2,1,-1,0,2,7,15,39,33,15,-6
0,2,1,-1,0,1,7,14,38,32,14,-6
0,1,0,-1,0,1,6,13,37,31,13,-7
0,1,0,-1,0,1,6,13,36,30,12,-7
0,1,0,-1,0,1,5,12,35,29,12,-7
1,1,0,-1,0,1,5,11,34,28,11,-8
1,1,0,-1,0,1,4,11,33,27,10,-8
0,1,0,0,0,1,4,10,32,27,10,-8
-1,1,1,0,-1,1,4,10,31,26,9,-7
-1,2,2,-1,-1,2,4,9,30,26,9,-7
-1,3,3,-1,-2,3,4,9,30,25,9,-6
-1,4,4,-1,-2,4,4,8,29,24,8,-6
-2,4,4,-1,-3,4,4,8,28,24,8,-5
-2,4,5,-1,-3,4,4,8,27,23,8,-5
-3,4,6,-1,-4,4,4,8,26,22,8,-5
-4,4,6,0,-4,4,3,8,25,21,7,-4
-3,4,6,0,-4,4,3,8,24,20,6,-4
-3,4,6,-1,-4,5,3,8,23,19,6,-4
-3,4,6,-1,-4,5,3,8,23,19,5,-3
-2,4,6,-1,-4,5,3,8,22,18,5,-3
-2,4,5,-1,-3,5,3,8,21,18,5,-2
-1,4,5,-1,-3,5,3,7,20,17,5,-2
-1,4,4,-1,-3,4,3,7,19,16,4,-2
-1,4,4,-1,-3,4,3,8,18,15,4,-1
-1,4,4,-1,-3,4,4,8,17,14,4,-1
-1,3,4,-1,-2,3,4,8,16,13,4,0
-1,3,4,-1,-2,3,4,8,16,13,4,0
-1,2,3,0,-2,2,4,8,15,12,4,0
-1,2,3,0,-2,2,4,8,14,11,4,0
-1,3,3,0,-2,2,4,8,13,11,4,1
-1,3,3,-1,-2,3,4,8,13,10,4,1
-1,4,3,-1,-2,3,5,8,12,10,4,2
-1,4,4,-1,-2,4,5,8,12,9,4,3
-1,4,4,-1,-2,4,5,8,11,9,4,3
-2,4,4,-1,-3,4,5,8,10,8,4,3
-2,4,5,-1,-3,5,5,9,10,8,4,3
-2,5,6,-1,-4,5,5,9,10,8,3,3
-2,5,6,-1,-4,5,4,9,9,7,3,3
-2,5,6,0,-4,5,4,8,9,7,3,3
-3,5,6,0,-4,5,3,8,9,7,3,4
-3,5,6,0,-3,5,3,8,8,7,3,4
-2,5,5,0,-3,5,3,8,8,7,3,4
-2,5,5,0,-3,5,3,7,7,6,3,4
-2,5,5,0,-3,5,3,7,7,6,3,4
-2,5,5,0,-3,5,3,8,7,6,3,5
-2,4,5,0,-3,5,3,8,7,5,3,5
-2,4,5,0,-3,5,3,7,7,5,3,5
-2,4,5,0,-3,5,3,7,7,5,3,5
-1,4,5,0,-2,4,3,7,6,5,3,5
-1,4,4,-1,-2,4,3,7,6,5,3,5
-1,4,3,-1,-1,4,3,7,6,5,3,5
-1,4,3,-1,-2,4,3,7,6,5,3,5
-1,4,4,-1,-2,4,3,7,6,5,3,5
-1,4,4,-1,-2,4,3,7,5,5,3,5
-1,3,4,0,-2,4,3,7,5,5,3,4
-1,3,4,0,-2,3,2,6,5,5,3,4
-2,3,4,0,-3,3,2,6,5,5,3,4
-2,3,5,0,-3,3,2,6,5,5,3,4
-2,3,4,0,-2,3,2,6,5,5,3,4
-2,3,4,0,-2,3,2,6,5,5,3,4
-1,3,3,0,-1,3,2,6,5,5,3,3
-1,3,3,0,-1,3,2,5,5,5,3,3
-2,3,4,0,-2,3,2,5,5,5,4,3
-2,3,4,0,-2,3,2,5,5,5,4,3
-1,3,4,0,-2,3,2,5,5,5,4,3
-1,3,4,0,-2,3,2,5,5,5,4,3
-1,3,4,0,-2,3,2,5,5,5,4,3
-1,3,4,0,-2,3,2,4,5,5,4,3
-1,3,4,0,-2,3,2,4,5,5,4,3
-1,2,4,0,-2,3,2,4,4,5,4,3
-2,2,4,0,-2,3,3,4,4,5,4,3
-2,2,4,0,-2,3,3,3,4,5,4,3
-2,2,4,0,-2,3,3,3,4,5,4,3
-2,2,4,0,-2,3,3,3,4,5,4,2
-2,2,4,0,-2,3,3,2,4,5,4,2
-2,2,4,0,-2,3,3,2,4,5,4,2
-2,2,4,0,-2,3,2,1,4,5,4,2
-2,1,4,0,-2,3,2,0,4,4,4,2
-3,1,4,1,-3,2,1,-1,3,4,4,2
-3,1,4,1,-3,2,1,-2,3,4,4,2
-3,1,4,1,-3,2,0,-3,3,4,4,2
-3,1,4,1,-3,2,0,-3,3,5,5,2
-4,1,4,2,-4,2,0,-4,3,5,5,3
-5,1,4,2,-5,2,0,-4,3,6,6,3
-4,1,4,2,-5,2,0,-4,3,6,6,3
-4,1,4,2,-5,3,-1,-4,4,6,7,3
-4,1,4,1,-5,3,-1,-4,4,6,7,4
-4,1,4,1,-5,3,-1,-4,4,6,8,5
-4,1,4,1,-5,3,-1,-5,4,7,8,5
-3,1,4,0,-4,3,-1,-5,4,7,8,5
-3,1,4,0,-4,3,-1,-5,4,7,8,5
-3,2,5,0,-4,3,-1,-5,5,7,8,6
-3,2,5,0,-5,3,-1,-5,5,7,8,6
-3,3,6,0,-5,4,-2,-5,5,7,8,6
-3,3,6,0,-5,4,-3,-5,5,7,8,6
-2,3,5,0,-4,4,-4,-6,5,7,8,6
-2,3,5,0,-4,4,-4,-6,4,7,8,6
-2,3,4,0,-3,4,-5,-7,4,6,7,6
-2,2,4,0,-3,3,-5,-7,4,6,7,6
-2,2,4,0,-3,3,-5,-8,3,5,6,5
-2,1,3,0,-3,2,-6,-9,3,5,6,5
-2,1,3,0,-2,2,-6,-10,2,4,6,5
-2,1,3,0,-2,2,-7,-10,2,4,6,5
-2,1,3,0,-2,2,-7,-10,2,4,6,5
-2,0,3,1,-3,2,-7,-10,2,4,5,5
-2,0,3,1,-3,1,-7,-10,2,4,5,5
-2,0,3,1,-3,1,-7,-10,2,4,5,5
-2,0,3,1,-3,1,-7,-10,2,4,5,5
-2,0,3,1,-3,1,-7,-10,2,4,5,5
-2,0,2,1,-3,1,-7,-10,2,3,5,5
-2,0,2,1,-3,1,-7,-10,1,3,5,5
-3,0,2,1,-3,1,-7,-9,1,3,4,4
-3,-1,2,1,-3,1,-7,-9,1,3,4,4
-3,-1,2,1,-3,1,-7,-9,1,3,4,4
-2,-1,2,1,-3,1,-7,-9,1,3,4,4
-2,-1,2,1,-3,0,-7,-9,1,3,4,4
-2,-1,2,1,-3,0,-7,-8,1,3,4,4
-2,-1,2,1,-2,0,-7,-8,1,3,4,4
-2,0,2,0,-2,1,-7,-8,1,3,4,4
-1,0,1,0,-2,1,-7,-8,1,3,4,4
-1,0,1,0,-2,0,-6,-7,1,3,4,4
-1,0,1,0,-2,0,-6,-7,1,3,4,4
-1,0,1,0,-2,0,-6,-6,2,3,4,4
-1,0,1,0,-2,0,-6,-6,2,3,4,4
-1,0,1,0,-2,0,-5,-6,2,3,4,4
-1,0,1,0,-2,0,-5,-6,2,3,4,4
-1,0,1,0,-2,0,-5,-6,2,3,4,3
-1,0,0,0,-1,0,-5,-6,1,3,4,3
-1,0,0,0,-1,0,-5,-5,1,3,4,3
-1,0,1,0,-2,0,-4,-5,1,3,4,3
-2,0,1,0,-2,0,-4,-4,1,3,4,3
-2,0,2,0,-2,0,-4,-4,1,3,4,3
-2,0,2,0,-2,1,-4,-4,1,3,4,3
-2,0,2,0,-2,1,-3,-4,1,3,4,3
-3,0,2,1,-2,1,-2,-3,1,3,4,2
-3,-1,2,1,-2,1,-1,-3,1,3,3,1
-3,-1,1,1,-2,0,0,-2,1,2,1,0
-2,-2,0,1,-2,0,0,-1,0,1,0,-2
-2,-3,-1,2,-1,-2,1,0,-1,-1,-3,-5
-2,-4,-3,2,0,-4,1,0,-4,-4,-7,-8
-2,-6,-5,3,1,-6,2,0,-8,-9,-11,-11
-2,-8,-6,4,1,-7,2,0,-12,-13,-15,-14
-3,-9,-5,5,1,-8,3,0,-15,-17,-18,-15
-4,-9,-4,6,0,-7,3,-1,-18,-19,-19,-15
-4,-8,-3,6,-1,-5,2,-2,-19,-19,-19,-13
-5,-7,-1,6,-3,-4,2,-3,-20,-19,-18,-10
-7,-6,1,6,-5,-2,1,-4,-18,-18,-17,-6
-8,-4,4,6,-6,0,0,-5,-15,-14,-14,-1
-8,-2,6,4,-7,1,-1,-5,-11,-9,-9,5
-6,0,7,2,-7,3,-3,-6,-9,-5,-5,12
-5,2,7,0,-7,5,-5,-7,-7,-1,0,20
-2,4,6,-1,-5,5,-7,-7,-7,0,5,28
0,5,4,-2,-3,4,-9,-7,-11,0,8,37
2,6,3,-3,-1,4,-10,-7,-21,-6,11,48
4,7,3,-5,0,5,-12,-8,-37,-18,11,59
6,9,3,-7,1,6,-14,-11,-58,-34,8,70
7,11,4,-9,1,8,-17,-15,-80,-55,3,78
7,14,7,-11,0,10,-19,-18,-101,-75,-4,86
7,18,10,-13,-2,14,-21,-22,-120,-95,-13,91
7,22,15,-14,-4,18,-24,-28,-138,-114,-23,96
5,26,21,-15,-8,23,-27,-36,-155,-130,-34,99
3,29,26,-15,-12,28,-29,-44,-168,-144,-44,103
1,31,31,-15,-15,30,-32,-53,-180,-156,-53,106
-1,31,33,-14,-17,32,-33,-62,-190,-166,-61,106
-6,30,36,-12,-21,33,-34,-70,-196,-174,-68,105
-13,28,41,-8,-27,34,-33,-76,-200,-178,-75,100
-19,27,45,-4,-32,35,-30,-79,-201,-181,-82,92
-24,23,46,0,-35,34,-26,-80,-202,-182,-89,80
-27,18,44,4,-36,31,-22,-80,-200,-182,-97,65
-28,11,39,9,-34,25,-18,-79,-196,-180,-104,48
-28,2,30,13,-29,16,-14,-76,-188,-174,-109,27
-27,-7,19,17,-22,5,-11,-70,-176,-164,-110,3
-25,-16,8,20,-16,-4,-7,-61,-160,-151,-109,-23
-24,-24,0,23,-11,-12,-5,-52,-141,-134,-104,-46
-22,-28,-6,24,-7,-17,-3,-42,-121,-116,-95,-58
-19,-29,-10,23,-5,-20,-2,-33,-101,-98,-84,-61
-16,-28,-12,22,-3,-20,-1,-25,-82,-81,-71,-59
-13,-26,-12,20,-1,-19,0,-18,-65,-65,-59,-54
-11,-23,-12,17,0,-17,0,-11,-50,-51,-48,-48
-8,-21,-12,14,1,-16,2,-5,-38,-40,-39,-42
-6,-19,-12,12,2,-16,3,0,-27,-30,-31,-36
-5,-17,-11,10,3,-15,3,3,-19,-22,-23,-31
-4,-14,-10,9,3,-13,3,5,-12,-15,-17,-26
-3,-12,-8,7,2,-10,3,6,-6,-8,-11,-21
-3,-9,-6,6,2,-8,2,6,0,-1,-5,-17
-3,-7,-4,5,1,-5,2,6,4,4,0,-14
-3,-5,-2,5,0,-3,2,6,8,8,4,-11
-3,-4,-1,4,0,-2,2,5,11,10,6,-10
-2,-3,0,3,-1,-1,1,5,12,12,8,-10
-2,-2,0,2,-1,-1,1,5,13,13,9,-9
-2,-2,1,1,-1,0,1,5,14,14,9,-8
-2,-1,1,1,-1,0,1,5,15,14,10,-8
-2,0,1,1,-1,0,1,5,15,15,10,-7
-2,0,1,1,-1,0,1,5,16,16,11,-7
-2,0,2,1,-1,1,1,6,17,17,12,-6
-3,0,2,2,-2,1,1,6,17,17,12,-6
-3,0,2,2,-2,1,1,6,18,17,12,-6
-3,0,2,2,-2,0,1,6,18,17,12,-6
-3,-1,2,2,-2,0,2,6,18,17,13,-6
-3,-1,1,2,-2,0,2,6,18,17,13,-5
-3,-2,0,2,-1,-1,2,6,18,17,13,-5
-2,-3,0,3,-1,-2,1,6,18,17,13,-6
-2,-3,-1,3,0,-2,1,6,17,17,12,-6
-1,-4,-2,3,0,-3,1,6,17,17,12,-7
-1,-5,-3,3,1,-4,1,5,16,16,11,-7
-1,-6,-4,3,1,-5,1,5,16,15,10,-8
-1,-6,-5,4,2,-6,1,5,16,14,10,-9
-1,-7,-5,4,2,-6,1,5,16,14,10,-9
-1,-8,-6,4,2,-7,1,5,15,14,10,-9
-1,-9,-6,5,2,-8,1,5,15,14,9,-9
-1,-10,-7,5,2,-9,2,5,15,14,9,-9
-1,-10,-8,5,3,-9,2,5,15,14,9,-9
-1,-11,-9,6,3,-10,3,5,15,14,9,-9
-1,-11,-9,6,3,-10,3,5,15,14,9,-10
-1,-11,-9,6,3,-10,4,6,15,14,9,-10
-1,-11,-9,6,3,-10,5,6,16,14,9,-10
-1,-10,-9,6,3,-10,6,6,16,14,9,-10
-1,-10,-9,6,3,-10,6,6,15,14,8,-11
-1,-11,-9,7,3,-10,5,6,15,13,8,-12
-2,-12,-9,8,3,-11,5,5,14,13,7,-13
-3,-12,-9,8,3,-11,5,4,15,14,7,-13
-3,-12,-9,8,2,-11,5,3,15,14,8,-13
-4,-12,-9,9,2,-11,4,3,16,14,8,-13
-4,-13,-9,9,2,-11,4,2,16,14,8,-13
-4,-14,-9,9,2,-12,3,1,16,14,8,-13
-4,-14,-10,9,3,-13,2,0,16,14,8,-13
-3,-14,-10,9,3,-13,2,0,16,14,8,-13
-3,-14,-10,9,3,-13,1,0,16,15,8,-13
-3,-14,-10,9,2,-13,1,0,17,16,8,-13
-3,-14,-10,9,2,-12,0,-1,17,16,8,-13
-3,-13,-9,8,2,-12,0,-1,18,16,8,-13
-3,-13,-9,8,2,-12,0,-1,18,16,8,-13
-2,-13,-10,8,3,-12,0,-2,18,16,8,-14
-2,-12,-10,8,3,-12,0,-2,18,16,8,-14
-2,-12,-9,8,3,-11,0,-2,18,16,8,-14
-2,-12,-10,8,3,-11,0,-2,19,16,9,-14
-2,-13,-10,8,3,-12,0,-2,19,17,9,-15
-2,-13,-11,8,3,-12,0,-2,19,17,9,-15
-2,-14,-11,8,3,-13,0,-2,20,17,9,-15
-2,-14,-12,8,3,-13,0,-1,20,18,9,-15
-2,-14,-11,8,3,-13,0,-1,21,19,10,-14
-3,-14,-10,9,2,-13,0,-1,22,20,11,-14
-4,-14,-9,9,2,-12,0,0,23,21,11,-14
-4,-14,-9,9,2,-12,1,0,24,21,11,-14
-3,-14,-9,8,2,-11,1,0,25,21,11,-14
-3,-13,-9,8,2,-11,1,1,25,22,11,-14
-3,-13,-9,8,1,-11,2,1,26,22,11,-14
-4,-13,-9,9,1,-11,2,1,26,23,12,-14
-4,-13,-9,9,1,-11,3,2,27,23,12,-14
-4,-14,-9,9,1,-12,3,2,28,24,12,-14
-3,-14,-10,9,2,-12,3,2,28,24,12,-15
-3,-14,-10,9,2,-12,3,2,29,24,12,-15
-3,-14,-10,9,2,-12,3,3,29,25,12,-15
-3,-13,-9,9,2,-11,3,3,30,26,12,-15
-3,-13,-9,8,2,-11,3,4,31,27,12,-15
-3,-12,-9,8,2,-11,3,4,31,27,12,-15
-3,-12,-9,8,2,-11,3,4,32,27,12,-15
-3,-12,-9,8,2,-11,3,4,33,28,12,-15
-3,-12,-8,8,1,-10,3,5,34,29,13,-15
-3,-12,-7,8,1,-10,3,6,35,30,13,-15
-3,-12,-7,8,1,-10,3,7,36,30,13,-15
-2,-11,-7,7,1,-10,3,7,36,31,14,-15
-2,-11,-7,7,1,-9,3,8,37,31,14,-15
-3,-11,-7,7,1,-9,3,8,37,31,14,-15
-3,-10,-6,7,0,-8,3,8,38,32,14,-15
-3,-9,-5,6,0,-7,3,9,39,33,15,-15
-3,-8,-4,6,0,-6,3,9,40,34,15,-14
-2,-7,-3,5,0,-5,3,9,41,34,15,-14
-2,-6,-3,5,0,-4,3,10,41,35,15,-13
-2,-5,-2,4,-1,-3,3,10,41,35,15,-13
-2,-5,-1,4,-1,-3,2,11,42,35,15,-12
-1,-4,-1,3,-1,-2,2,11,42,35,16,-12
-1,-2,0,2,-1,-1,1,11,42,36,16,-12
-1,-1,0,1,-1,0,0,11,42,36,16,-12
-1,0,1,1,-2,0,0,11,42,36,15,-12
-1,1,3,1,-3,2,-1,11,43,36,15,-11
-1,1,4,1,-4,3,-2,11,43,36,16,-10
-1,2,5,1,-5,4,-2,11,43,37,16,-10
-1,2,6,0,-5,4,-3,11,43,37,16,-9
-1,3,7,0,-5,5,-3,11,43,36,16,-9
-1,4,7,0,-5,5,-4,11,43,36,15,-9
-1,5,8,-1,-5,6,-4,11,42,36,15,-9
-1,6,9,-1,-6,7,-4,11,42,36,15,-9
-1,7,10,-2,-6,8,-4,10,42,36,14,-9
-1,8,11,-2,-7,9,-5,10,41,35,13,-9
-1,8,11,-2,-7,10,-5,10,40,34,12,-9
-1,8,11,-2,-7,10,-6,10,39,33,12,-8
-1,8,12,-2,-8,10,-6,10,38,33,12,-8
-1,9,12,-2,-8,10,-6,10,38,32,12,-7
-1,9,12,-2,-8,10,-7,10,37,32,12,-6
-1,9,12,-2,-8,10,-7,9,37,31,12,-6
-1,9,12,-3,-7,10,-7,9,36,31,12,-5
-1,10,12,-3,-7,11,-7,9,36,31,12,-4
-1,10,13,-3,-8,12,-8,8,35,30,12,-3
-2,11,14,-3,-9,13,-8,8,35,30,12,-2
-2,11,15,-4,-9,13,-8,8,34,30,12,-1
-2,11,16,-4,-10,13,-8,8,33,29,12,0
-3,11,16,-3,-10,13,-8,8,32,28,12,0
-3,11,16,-3,-10,13,-7,8,31,27,11,0
-3,11,16,-3,-11,13,-7,8,30,26,11,0
-3,11,16,-3,-11,13,-6,8,29,25,10,0
-2,11,15,-3,-10,13,-6,7,28,24,10,0
-2,11,15,-3,-10,13,-7,6,26,23,9,0
-1,11,14,-3,-9,13,-7,6,25,22,9,0
-1,11,14,-3,-9,12,-7,5,24,21,8,0
-1,11,14,-3,-8,12,-7,5,23,20,8,0
-1,10,13,-4,-8,12,-7,4,21,18,7,0
-1,9,13,-3,-8,11,-7,4,20,17,7,0
-2,8,12,-2,-7,10,-8,3,18,15,6,0
-1,7,11,-2,-7,9,-8,1,17,14,5,0
-1,7,10,-2,-6,8,-8,0,15,13,5,0
-1,7,10,-2,-6,8,-8,0,14,12,4,0
-1,7,10,-1,-7,8,-8,0,13,11,3,0
-2,6,10,-1,-7,8,-8,0,12,10,3,0
-3,6,10,0,-7,8,-8,0,12,9,3,0
-3,5,10,0,-7,8,-8,-1,11,9,3,0
-4,5,10,0,-8,8,-8,-1,10,9,3,0
-4,4,10,0,-8,7,-8,-2,9,8,2,0
-4,3,10,1,-8,7,-8,-2,8,7,1,0
-4,3,9,1,-8,6,-8,-3,6,6,0,-1
-4,2,9,2,-7,5,-8,-3,5,5,0,-2
-4,2,8,2,-7,5,-8,-3,5,4,0,-2
-4,1,8,2,-7,4,-7,-3,4,3,-1,-3
-4,0,7,2,-7,4,-7,-2,4,3,-1,-3
-4,0,6,3,-6,3,-6,-2,3,2,-2,-3
-4,-1,5,3,-5,2,-6,-3,3,2,-2,-3
-4,-2,4,4,-4,1,-6,-3,2,1,-2,-3
-4,-3,3,4,-4,0,-6,-3,2,1,-2,-2
-4,-3,2,4,-4,0,-6,-3,2,2,-1,-2
-4,-3,2,4,-4,0,-6,-3,1,2,-1,-2
-4,-3,2,4,-4,0,-6,-3,1,1,-2,-3
-4,-4,2,5,-4,0,-6,-4,0,0,-3,-4
-4,-4,2,5,-4,-1,-5,-4,0,-1,-3,-4
-4,-5,1,5,-3,-1,-5,-4,-1,-1,-4,-5
-4,-5,0,5,-3,-2,-5,-4,-1,-2,-4,-5
-4,-5,0,5,-3,-2,-5,-4,-1,-2,-4,-5
-4,-5,0,5,-3,-2,-5,-4,-1,-2,-4,-5
-4,-5,0,5,-3,-2,-5,-4,-1,-2,-3,-4
-4,-6,-1,5,-3,-3,-5,-5,-1,-2,-3,-4
-4,-6,-1,5,-3,-3,-5,-5,-1,-2,-2,-4
-4,-6,-1,5,-3,-3,-5,-5,-1,-2,-2,-4
-4,-6,-1,5,-2,-3,-4,-5,-1,-2,-3,-5
-4,-6,-1,6,-2,-3,-4,-5,-2,-2,-3,-6
-4,-6,0,6,-3,-3,-3,-5,-2,-2,-3,-6
-5,-7,0,7,-3,-4,-3,-5,-2,-2,-4,-6
-5,-8,-1,8,-3,-4,-2,-5,-2,-3,-4,-7
-6,-9,-2,8,-3,-5,-2,-5,-2,-3,-4,-7
-6,-10,-2,8,-3,-5,-2,-5,-2,-3,-4,-7
-6,-10,-2,9,-3,-6,-1,-5,-3,-3,-4,-7
-6,-11,-2,9,-3,-6,-1,-5,-3,-3,-4,-7
-6,-11,-2,9,-2,-6,-1,-5,-4,-3,-4,-7
-5,-11,-3,9,-2,-7,-1,-5,-4,-3,-4,-7
-5,-11,-3,9,-1,-7,0,-5,-4,-3,-4,-7
-5,-11,-3,9,-1,-7,0,-5,-4,-3,-4,-7
-6,-12,-3,9,-1,-7,0,-5,-3,-3,-3,-7
-6,-11,-3,9,-1,-7,-1,-5,-3,-2,-3,-6
-5,-11,-3,9,-1,-7,-1,-5,-2,-1,-2,-6
-5,-10,-3,9,-1,-7,-1,-5,-2,-1,-1,-5
-6,-11,-3,10,-2,-7,-1,-5,-2,-1,-1,-5
-7,-12,-3,11,-2,-8,-1,-6,-2,-1,-1,-5
-7,-12,-4,11,-2,-8,-1,-6,-2,-1,-1,-5
-7,-12,-5,11,-2,-8,-2,-7,-2,-1,-1,-5
-7,-12,-5,10,-2,-8,-2,-7,-2,-1,-2,-5
-6,-12,-5,10,-2,-8,-2,-8,-2,-2,-2,-5
-6,-11,-4,9,-1,-8,-2,-8,-2,-1,-2,-5
-6,-10,-4,9,-1,-8,-2,-8,-2,-1,-1,-5
-6,-10,-4,9,-1,-8,-2,-8,-1,0,-1,-5
-6,-10,-4,9,-1,-8,-2,-8,-1,0,-1,-6
-6,-10,-4,9,-1,-8,-2,-8,-1,0,-1,-6
-7,-11,-3,10,-2,-7,-2,-8,-1,0,-1,-6
-7,-12,-2,10,-2,-7,-2,-8,-1,0,-1,-6
-7,-12,-3,10,-2,-7,-2,-8,-1,0,0,-5
-7,-12,-3,10,-2,-7,-2,-8,0,0,0,-5
-7,-12,-3,10,-2,-7,-2,-8,0,0,0,-4
-6,-12,-4,10,-1,-7,-2,-8,0,0,0,-3
-6,-12,-4,10,-1,-7,-2,-8,0,0,1,-2
-5,-11,-3,10,-1,-7,-2,-8,0,1,2,-1
-5,-10,-3,9,-1,-6,-2,-8,0,1,2,-1
-6,-10,-2,9,-2,-6,-2,-7,0,1,2,0
-6,-9,-2,9,-2,-6,-2,-7,1,1,2,0
-7,-9,-1,9,-3,-6,-2,-7,1,2,3,0
-7,-9,-1,9,-3,-5,-2,-7,1,2,3,0
-7,-9,0,9,-4,-5,-2,-7,1,2,3,0
-8,-9,0,9,-4,-4,-2,-8,1,2,3,0
-8,-9,1,9,-5,-4,-2,-8,1,2,3,0
-7,-8,1,8,-4,-4,-3,-8,1,2,3,0
-6,-8,1,7,-4,-3,-3,-7,1,3,3,0
-5,-7,1,7,-3,-3,-4,-7,1,3,3,0
-5,-6,1,6,-3,-2,-4,-7,2,3,3,0
-5,-5,1,6,-4,-2,-4,-6,2,3,3,0
-6,-5,2,6,-4,-1,-4,-6,2,4,3,0
-6,-5,2,6,-4,-1,-4,-6,2,4,3,0
-6,-5,2,6,-4,-1,-4,-5,3,4,3,0
-6,-5,2,6,-4,-1,-4,-5,3,4,3,0
-6,-4,3,6,-4,0,-3,-4,3,4,3,0
-6,-4,3,6,-5,0,-3,-4,3,4,3,0
-5,-3,4,5,-5,0,-3,-4,3,4,3,0
-5,-2,4,4,-5,1,-3,-4,3,4,3,0
-5,-2,4,4,-5,1,-3,-4,4,4,3,0
-5,-2,4,4,-5,1,-3,-3,4,5,3,0
-6,-2,5,4,-5,1,-3,-3,5,5,3,1
-6,-1,5,4,-5,2,-4,-3,5,6,4,1
-5,-1,4,4,-5,2,-4,-3,5,6,4,2
-5,-1,4,4,-4,1,-5,-3,5,6,4,2
-5,-1,4,4,-4,1,-6,-3,5,5,4,2
-4,-1,4,4,-4,0,-7,-3,5,5,3,1
-4,-1,3,4,-4,0,-7,-4,4,5,3,1
-3,-1,3,3,-4,0,-8,-4,4,5,3,0
-3,0,4,3,-4,1,-8,-5,4,5,3,0
-3,0,4,3,-4,2,-9,-5,4,5,3,0
-3,0,5,2,-4,2,-9,-6,3,4,2,0
-2,1,5,2,-4,2,-10,-7,3,4,2,-1
-2,1,5,2,-4,2,-11,-7,2,3,1,-1
-3,1,5,2,-4,2,-11,-8,2,3,1,-2
-3,1,5,2,-4,2,-11,-8,1,3,0,-2
-3,1,5,2,-4,2,-11,-8,1,2,0,-2
-4,1,6,3,-5,2,-10,-7,1,2,0,-2
-5,0,6,4,-6,2,-10,-7,1,1,-1,-3
-6,0,6,4,-6,2,-9,-6,1,1,-1,-4
-5,-1,4,4,-5,1,-8,-5,1,1,-2,-5
-4,-1,3,4,-4,1,-7,-5,0,0,-4,-7
-4,-3,2,5,-3,0,-7,-4,-2,-3,-7,-11
-4,-5,0,6,-2,-2,-7,-4,-5,-7,-12,-14
-4,-6,-1,7,-2,-4,-6,-4,-9,-11,-16,-17
-4,-8,-2,7,-1,-5,-6,-5,-13,-15,-21,-19
-4,-9,-3,8,-1,-7,-6,-6,-17,-19,-24,-21
-6,-10,-3,9,-2,-7,-6,-7,-21,-21,-25,-21
-8,-10,-1,10,-4,-5,-6,-8,-22,-21,-24,-18
-10,-9,3,10,-7,-3,-6,-9,-22,-21,-23,-15
-12,-7,6,10,-9,-1,-6,-10,-21,-20,-22,-12
-12,-6,7,10,-9,0,-8,-11,-17,-18,-19,-7
-11,-5,8,9,-10,1,-9,-11,-13,-13,-15,-1
-10,-3,8,7,-9,2,-11,-12,-10,-8,-11,6
-8,-2,7,6,-8,2,-13,-13,-9,-5,-7,14
-5,-1,4,4,-5,1,-15,-13,-9,-3,-3,22
-3,-1,2,3,-3,0,-17,-13,-12,-3,1,32
-1,0,2,2,-2,0,-18,-12,-20,-6,5,44
1,1,2,0,-1,2,-19,-14,-34,-15,7,57
3,4,2,-2,0,3,-22,-16,-53,-30,6,68
5,6,3,-5,0,5,-24,-20,-74,-49,0,77
7,9,4,-7,0,6,-26,-23,-96,-69,-7,84
8,12,6,-9,0,8,-28,-27,-115,-89,-16,90
8,15,9,-11,-1,12,-31,-33,-134,-109,-26,94
7,19,14,-12,-4,17,-33,-40,-151,-126,-37,98
4,23,21,-12,-8,22,-35,-48,-165,-140,-46,102
0,24,26,-10,-13,25,-37,-57,-177,-152,-55,105
-4,24,29,-8,-17,26,-38,-65,-186,-162,-63,105
-8,22,32,-6,-21,27,-37,-72,-193,-170,-72,102
-14,21,36,-2,-26,29,-35,-78,-197,-175,-80,97
-20,19,40,1,-31,29,-32,-82,-200,-180,-88,88
-25,14,41,6,-34,27,-28,-84,-202,-183,-98,74
-29,8,39,11,-34,23,-24,-84,-202,-185,-106,58
-31,0,33,16,-32,16,-20,-83,-200,-184,-114,40
-31,-8,24,21,-28,8,-16,-81,-193,-180,-119,18
-31,-17,15,25,-23,-1,-12,-76,-182,-171,-121,-7
-30,-26,5,28,-18,-10,-9,-69,-168,-159,-120,-34
-28,-33,-3,30,-13,-18,-6,-60,-151,-144,-116,-57
-26,-37,-10,31,-8,-23,-4,-51,-132,-128,-108,-70
-24,-38,-14,31,-5,-26,-3,-42,-113,-110,-97,-73
-21,-38,-16,30,-2,-27,-3,-34,-93,-92,-84,-70
-18,-36,-17,29,0,-27,-2,-27,-75,-75,-71,-64
-14,-34,-18,26,2,-26,-2,-20,-59,-60,-59,-57
-11,-32,-19,23,4,-26,-2,-13,-45,-48,-48,-50
-8,-30,-20,20,5,-25,-2,-7,-34,-37,-40,-44
-6,-28,-19,17,6,-24,-2,-3,-25,-28,-32,-39
-5,-25,-18,15,6,-22,-2,0,-18,-21,-26,-34
-5,-22,-16,14,5,-19,-2,1,-11,-14,-20,-30
-4,-20,-14,13,5,-17,-2,1,-5,-8,-14,-26
-3,-18,-13,12,4,-16,-2,1,0,-2,-8,-22
-3,-17,-12,12,4,-15,-2,2,4,2,-3,-19
-3,-17,-11,11,3,-14,-2,2,8,5,0,-16
-3,-16,-11,11,3,-14,-2,2,10,8,2,-15
-4,-15,-10,10,2,-13,-3,2,12,10,4,-14
-4,-15,-9,10,2,-13,-3,2,12,11,4,-13
-5,-15,-8,10,2,-12,-3,2,13,11,5,-13
-5,-15,-8,10,2,-12,-3,2,13,12,5,-13
-4,-14,-8,10,2,-11,-3,1,14,12,5,-13
-4,-14,-8,10,2,-11,-3,1,14,12,6,-12
-3,-14,-8,10,2,-11,-3,0,14,12,6,-12
-4,-14,-8,10,2,-11,-4,0,14,13,6,-13
-4,-14,-8,10,1,-11,-4,0,14,13,6,-13
-4,-14,-9,9,1,-11,-4,0,14,13,6,-12
-4,-14,-9,9,2,-12,-4,0,15,13,7,-12
-4,-14,-9,10,2,-12,-4,0,15,14,7,-11
-4,-15,-9,10,2,-12,-4,0,15,14,8,-11
-5,-15,-10,11,2,-12,-4,0,15,14,8,-11
-5,-16,-10,11,2,-12,-4,0,16,14,8,-11
-5,-16,-9,11,1,-12,-4,0,16,14,8,-10
-6,-15,-8,11,1,-12,-4,0,17,14,8,-10
-6,-15,-7,11,0,-11,-4,0,17,15,9,-10
-6,-14,-7,10,0,-11,-4,0,17,16,9,-10
-5,-14,-7,10,0,-11,-4,0,17,16,9,-10
-5,-13,-7,10,0,-10,-4,0,17,16,9,-10
-5,-13,-7,10,0,-10,-4,-1,17,16,9,-10
-5,-13,-7,9,0,-10,-4,-1,17,16,9,-11
-5,-12,-6,9,0,-9,-4,-1,17,16,9,-11
-5,-12,-5,9,0,-9,-4,-1,17,17,9,-11
-5,-12,-5,9,0,-9,-4,-1,17,17,9,-12
-5,-12,-6,9,0,-9,-4,-1,17,16,9,-12
-5,-12,-6,9,0,-9,-4,0,17,16,8,-13
-6,-13,-5,10,0,-9,-4,0,17,16,8,-13
-6,-13,-5,10,0,-9,-4,0,18,16,9,-12
-6,-12,-5,10,0,-9,-3,0,18,17,9,-12
-6,-12,-5,10,-1,-9,-3,1,19,17,10,-11
-6,-13,-5,10,-1,-9,-2,1,19,18,10,-11
-6,-13,-5,10,-1,-9,-2,2,19,18,10,-10
-6,-12,-5,9,0,-9,-2,2,19,18,10,-10
-5,-12,-5,9,0,-9,-2,2,20,19,10,-10
-5,-12,-5,9,0,-9,-2,2,20,19,10,-10
-5,-12,-5,9,0,-9,-2,2,20,19,10,-11
-5,-12,-5,9,0,-8,-2,2,20,18,10,-11
-5,-12,-4,9,0,-8,-2,2,20,18,10,-11
-5,-12,-4,9,0,-8,-2,2,19,18,10,-11
-5,-11,-5,8,0,-8,-2,1,19,18,10,-12
-4,-10,-5,8,0,-8,-2,1,19,18,10,-13
-5,-10,-4,8,-1,-7,-2,1,20,18,10,-14
-5,-10,-4,8,-1,-7,-2,1,20,18,10,-14
-5,-10,-4,8,-1,-7,-1,2,21,19,10,-14
-5,-10,-4,8,0,-7,-1,2,21,19,10,-14
-5,-10,-4,8,0,-7,0,3,21,19,10,-14
-6,-11,-4,8,-1,-7,1,3,21,19,10,-14
-6,-11,-4,8,-1,-7,2,4,21,19,9,-14
-6,-11,-5,8,-1,-8,3,4,21,19,9,-14
-6,-11,-5,9,-1,-8,4,4,21,19,9,-14
-6,-11,-4,9,-1,-8,4,4,21,19,9,-14
-6,-11,-4,9,-1,-8,5,4,21,19,8,-15
-6,-11,-4,9,-1,-8,5,4,21,19,8,-16
-6,-11,-4,9,-1,-8,4,4,21,19,7,-17
-6,-10,-4,9,-1,-7,4,4,21,19,7,-18
-6,-10,-3,9,-1,-7,4,4,22,19,7,-19
-6,-10,-3,9,-1,-7,4,4,22,19,7,-19
-6,-10,-3,8,-1,-7,4,4,23,20,7,-19
-5,-10,-4,8,0,-7,3,4,23,20,7,-19
-5,-10,-4,8,0,-7,2,4,23,20,7,-19
-5,-11,-4,9,-1,-8,1,4,23,21,8,-19
-6,-12,-4,9,-1,-8,0,4,24,21,8,-19
-6,-11,-4,9,-1,-7,0,5,25,22,9,-18
-6,-11,-4,8,-1,-7,0,5,26,23,9,-18
-6,-10,-3,8,-2,-6,-1,5,27,23,10,-18
-7,-9,-2,8,-3,-5,-1,5,28,24,10,-17
-7,-8,0,8,-4,-4,-2,5,28,25,10,-17
-7,-7,1,7,-4,-3,-3,5,29,25,10,-17
-7,-6,1,7,-4,-3,-3,5,30,26,10,-17
-6,-6,1,6,-4,-2,-3,6,30,26,10,-17
-5,-5,1,5,-3,-2,-4,6,31,27,10,-18
-5,-4,1,5,-3,-2,-4,6,31,27,10,-18
-5,-4,1,5,-3,-2,-4,6,32,28,11,-18
-5,-4,1,5,-3,-2,-4,6,32,28,11,-18
-5,-4,0,5,-2,-2,-5,7,33,28,11,-18
-5,-4,0,5,-2,-2,-5,7,33,28,11,-17
-5,-5,0,5,-2,-2,-6,7,34,28,11,-17
-5,-5,0,5,-2,-3,-6,8,34,28,11,-17
-5,-5,0,5,-2,-3,-6,8,34,29,11,-17
-5,-5,1,5,-2,-3,-6,8,35,29,11,-17
-5,-4,1,5,-3,-2,-6,8,35,29,10,-17
-5,-4,2,5,-3,-2,-7,8,34,29,9,-17
-5,-3,2,5,-3,-1,-7,7,34,29,9,-17
-4,-2,3,4,-3,0,-8,7,34,29,8,-17
-5,-1,4,3,-4,0,-8,7,34,29,8,-17
-5,0,5,3,-4,1,-8,7,34,28,8,-17
-5,0,5,3,-4,2,-8,6,33,28,7,-17
-4,0,5,2,-4,1,-8,6,33,27,7,-17
-4,0,4,2,-3,1,-8,6,32,27,7,-17
-4,0,4,2,-3,1,-8,6,32,27,7,-17
-4,0,4,2,-4,1,-8,6,32,26,7,-16
-4,0,4,2,-4,1,-8,6,31,26,7,-16
-5,0,4,3,-4,1,-8,6,31,26,6,-16
-5,0,5,3,-5,1,-9,6,30,25,6,-16
-6,0,6,3,-5,2,-9,5,29,25,5,-16
-6,0,7,3,-6,3,-9,5,28,24,5,-15
-5,1,7,2,-6,4,-9,5,28,23,4,-15
-5,1,7,2,-6,4,-9,5,27,23,4,-15
-5,1,7,1,-6,4,-9,5,27,22,3,-15
-5,1,7,1,-6,4,-9,5,26,21,3,-14
-5,2,7,1,-6,5,-9,4,25,20,2,-14
-5,2,7,1,-6,5,-9,4,24,20,2,-13
-5,2,7,1,-6,5,-9,3,24,19,2,-13
-5,2,7,1,-6,5,-9,3,23,19,2,-12
-5,2,7,1,-5,5,-9,2,22,18,2,-12
-4,2,7,1,-5,5,-10,2,21,18,1,-12
-4,3,7,0,-5,5,-10,2,20,17,1,-11
-4,3,8,0,-5,5,-10,1,20,16,0,-11
-4,4,8,0,-5,5,-10,1,19,16,0,-10
-4,4,8,0,-5,5,-10,1,18,15,0,-10
-4,4,8,0,-6,5,-10,1,17,14,0,-9
-5,3,8,1,-6,5,-10,0,15,13,-1,-9
-5,2,8,2,-6,5,-10,0,14,12,-1,-8
-4,2,7,2,-6,5,-9,-1,13,11,-1,-8
-4,2,7,2,-6,4,-9,-1,13,10,-1,-8
-4,1,6,2,-6,4,-9,-2,12,10,-1,-7
-5,1,6,2,-5,3,-9,-3,12,9,-1,-7
-5,0,5,2,-5,3,-9,-3,11,9,-1,-6
-5,0,5,2,-5,2,-8,-3,11,9,-1,-5
-6,-1,6,3,-6,2,-7,-3,10,8,-1,-4
-7,-1,6,4,-6,2,-7,-3,10,8,-1,-3
-6,-1,6,4,-6,2,-7,-3,9,7,-1,-3
-6,-1,5,4,-5,2,-7,-3,9,7,0,-3
-5,-1,5,3,-5,2,-6,-3,8,6,0,-3
-5,-1,5,3,-5,2,-6,-3,8,6,0,-3
-5,-1,5,3,-5,1,-6,-3,7,6,0,-3
-5,-1,4,3,-4,1,-6,-4,6,6,0,-3
-5,-1,4,3,-4,1,-6,-4,6,6,0,-3
-5,-1,4,3,-5,1,-5,-4,6,6,-1,-3
-6,-1,5,3,-5,2,-5,-4,5,5,-1,-3
-6,-1,5,3,-5,2,-5,-4,5,4,-2,-3
-6,-1,5,3,-5,2,-5,-4,4,4,-2,-3
-6,-2,5,4,-5,1,-4,-4,4,4,-2,-3
-7,-3,5,4,-5,1,-4,-4,4,4,-1,-3
-6,-3,4,4,-5,0,-4,-5,3,3,-1,-3
-6,-4,3,4,-4,0,-4,-5,3,3,-1,-3
-6,-4,2,4,-4,0,-4,-5,2,3,-1,-3
-6,-4,2,4,-3,-1,-3,-5,2,2,-1,-3
-6,-4,1,5,-3,-1,-3,-5,2,2,-1,-2
-6,-4,1,5,-3,-2,-3,-5,2,2,-1,-2
-6,-5,0,5,-3,-2,-3,-5,2,1,-1,-2
-6,-6,0,5,-2,-3,-3,-5,1,1,-2,-2
-5,-7,-1,5,-2,-3,-3,-5,1,1,-2,-2
-5,-7,-2,5,-1,-4,-2,-6,1,1,-2,-2
-4,-8,-2,5,-1,-5,-2,-6,1,1,-2,-3
-4,-8,-3,5,0,-5,-2,-6,1,1,-2,-3
-4,-8,-3,6,0,-6,-2,-6,0,0,-2,-3
-4,-8,-3,6,0,-6,-2,-6,0,0,-2,-4
-5,-8,-3,6,-1,-6,-2,-6,0,0,-2,-4
-5,-8,-3,6,-1,-6,-1,-6,0,0,-2,-4
-5,-9,-3,6,0,-6,-1,-5,0,0,-2,-4
-5,-9,-4,7,0,-7,0,-5,0,0,-3,-4
-5,-10,-4,7,0,-7,0,-5,0,-1,-3,-5
-5,-10,-5,8,0,-7,0,-4,0,-1,-3,-5
-5,-10,-5,8,0,-8,0,-4,0,-1,-3,-5
-5,-10,-5,8,0,-8,0,-4,0,-1,-3,-6
-5,-10,-5,8,0,-8,0,-4,0,0,-3,-6
-4,-10,-5,7,1,-8,0,-4,0,0,-3,-6
-4,-10,-5,7,1,-8,0,-3,0,0,-3,-7
-4,-10,-5,7,1,-8,0,-3,0,0,-3,-7
-4,-10,-5,7,1,-8,0,-2,0,0,-3,-7
-4,-10,-5,7,1,-8,0,-2,0,0,-2,-6
-4,-10,-5,7,1,-8,0,-2,0,0,-2,-6
-4,-11,-6,7,1,-8,0,-2,0,0,-2,-6
-4,-11,-6,7,0,-8,0,-2,0,0,-2,-6
-4,-11,-5,7,0,-8,0,-2,0,0,-2,-6
-5,-12,-5,8,0,-8,-1,-3,0,0,-2,-6
-4,-11,-5,7,1,-8,-2,-3,0,0,-2,-6
-4,-10,-5,7,1,-8,-3,-3,0,0,-2,-6
-4,-10,-5,7,1,-8,-4,-4,0,0,-2,-6
-3,-9,-5,7,1,-8,-5,-4,0,0,-1,-6
-3,-9,-5,6,1,-7,-6,-5,0,0,-1,-5
-3,-8,-5,6,1,-7,-6,-5,0,1,0,-5
-3,-8,-4,6,1,-6,-6,-5,1,1,0,-5
-4,-8,-3,6,0,-5,-6,-5,1,2,0,-5
-5,-8,-2,6,-1,-5,-5,-4,2,2,1,-4
-6,-8,-1,6,-2,-4,-5,-4,2,3,1,-4
-6,-7,-1,6,-2,-4,-5,-4,2,3,1,-4
-6,-7,-1,6,-2,-4,-5,-4,2,3,1,-4
-6,-7,-1,6,-2,-4,-4,-4,2,3,1,-4
-6,-7,-1,6,-2,-4,-3,-4,2,3,1,-3
-6,-7,-1,6,-2,-4,-3,-4,2,2,1,-3
-6,-7,-1,6,-2,-4,-2,-4,2,2,1,-3
-6,-7,-1,6,-2,-5,-2,-4,2,2,1,-3
-5,-7,-1,6,-2,-5,-2,-4,2,2,1,-3
-5,-7,-1,6,-2,-4,-2,-4,2,2,1,-3
-5,-6,0,6,-2,-3,-2,-4,2,2,1,-3
-5,-6,0,6,-2,-3,-2,-4,2,2,1,-2
-5,-5,0,5,-2,-3,-2,-4,2,2,1,-2
-4,-5,0,5,-2,-3,-2,-4,2,3,1,-2
-5,-5,0,5,-2,-3,-3,-4,2,3,2,-2
-5,-5,1,5,-3,-2,-3,-4,2,3,2,-1
-5,-4,1,4,-3,-2,-4,-4,3,4,2,-1
-4,-3,1,4,-2,-1,-5,-4,3,4,2,-1
-4,-3,1,3,-2,-1,-6,-4,3,4,3,-1
-4,-2,1,3,-2,0,-7,-4,3,5,3,0
-4,-2,2,3,-2,0,-8,-4,3,5,3,0
-4,-2,2,2,-2,0,-8,-5,3,5,3,0
-4,-2,3,2,-3,0,-9,-5,3,5,3,0
-4,-2,3,2,-3,0,-9,-5,3,5,3,0
-4,-2,2,2,-2,0,-10,-5,3,5,2,-1
-4,-2,2,3,-2,0,-10,-5,3,4,2,-2
-4,-3,2,3,-2,0,-11,-5,3,4,1,-4
-4,-3,1,3,-2,0,-11,-4,3,3,-1,-5
-4,-3,0,3,-1,-1,-11,-4,1,1,-3,-7
-3,-5,-1,4,0,-3,-11,-4,-1,-2,-7,-10
-3,-6,-2,4,0,-4,-11,-4,-5,-7,-11,-13
-3,-7,-3,4,0,-5,-11,-5,-10,-11,-15,-15
-3,-7,-3,4,0,-5,-10,-5,-14,-15,-19,-17
-4,-7,-2,5,0,-4,-10,-5,-16,-17,-20,-17
-5,-6,-1,5,-1,-3,-11,-7,-18,-18,-21,-15
-6,-5,0,5,-2,-2,-11,-8,-19,-18,-20,-13
-6,-4,2,5,-3,-1,-12,-9,-18,-18,-19,-9
-6,-3,3,4,-4,0,-13,-10,-14,-15,-17,-3
-6,-1,5,4,-5,2,-15,-11,-10,-10,-13,3
-6,1,7,3,-6,4,-16,-11,-7,-5,-8,10
-4,3,8,1,-6,5,-18,-12,-5,-1,-3,18
-1,5,7,-1,-4,6,-20,-12,-4,2,2,26
0,5,5,-3,-2,5,-22,-12,-6,3,6,36
3,6,4,-4,-1,5,-23,-12,-14,-1,9,47
5,9,4,-7,0,6,-25,-13,-28,-10,10,59
6,12,5,-9,0,8,-27,-16,-48,-26,8,70
8,15,6,-11,0,10,-29,-19,-70,-45,2,79
9,17,8,-13,0,13,-31,-22,-92,-66,-5,86
9,20,11,-14,0,15,-33,-25,-112,-87,-15,92
8,23,15,-15,-3,19,-35,-30,-130,-107,-26,96
7,26,20,-16,-6,23,-37,-37,-146,-124,-37,100
5,30,26,-17,-10,28,-39,-46,-160,-139,-47,103
2,31,31,-16,-14,31,-41,-54,-172,-151,-57,106
-2,31,34,-14,-18,33,-41,-62,-183,-162,-66,106
-7,30,38,-11,-22,34,-41,-69,-190,-169,-74,104
-14,30,44,-8,-28,37,-39,-74,-193,-174,-82,98
-20,28,48,-4,-33,38,-36,-77,-195,-177,-89,89
-24,24,49,0,-36,36,-32,-78,-196,-179,-97,75
-27,18,46,4,-36,31,-28,-79,-196,-181,-105,60
-28,10,40,8,-33,25,-25,-79,-194,-180,-112,42
-27,2,31,12,-29,16,-21,-77,-187,-175,-117,21
-26,-6,20,16,-23,7,-18,-72,-177,-167,-119,-4
-25,-14,10,19,-17,-2,-14,-64,-162,-154,-117,-31
-23,-21,1,22,-12,-10,-12,-55,-145,-139,-112,-53
-21,-25,-5,23,-7,-16,-10,-47,-126,-122,-103,-65
-19,-28,-9,23,-4,-19,-9,-39,-107,-104,-92,-68
-15,-28,-12,22,-1,-20,-8,-32,-88,-86,-80,-66
-12,-27,-13,20,0,-20,-8,-26,-70,-70,-67,-61
-9,-25,-13,17,2,-19,-7,-20,-55,-56,-56,-55
-6,-23,-15,15,4,-19,-6,-13,-42,-44,-46,-48
-4,-21,-16,12,6,-19,-6,-8,-31,-34,-37,-41
-2,-19,-16,10,7,-18,-5,-4,-23,-26,-29,-36
-1,-16,-15,8,8,-16,-5,-1,-16,-18,-23,-32
-1,-14,-13,7,7,-14,-5,0,-10,-12,-17,-28
-1,-12,-11,7,6,-12,-5,0,-4,-6,-11,-24
-1,-10,-8,6,4,-9,-5,0,1,0,-6,-20
-1,-9,-6,5,3,-7,-4,0,6,4,-1,-18
-1,-8,-5,5,2,-6,-4,0,9,7,1,-16
-1,-7,-5,4,2,-6,-5,0,10,9,2,-15
-1,-7,-5,4,2,-6,-5,0,11,10,3,-14
-2,-7,-5,4,2,-6,-5,0,12,11,4,-13
-2,-7,-5,4,2,-6,-5,0,12,11,5,-12
-2,-7,-5,4,2,-6,-5,0,13,12,6,-11
-1,-8,-5,5,2,-6,-4,0,13,12,6,-11
-1,-8,-5,5,2,-6,-4,0,14,13,7,-11
-1,-8,-5,5,2,-6,-4,0,14,13,7,-11
-1,-7,-5,4,2,-6,-4,0,15,14,7,-12
-1,-7,-5,4,2,-6,-4,0,15,14,7,-12
-1,-6,-4,4,2,-6,-4,0,15,14,7,-12
-1,-6,-4,4,2,-5,-4,0,15,14,8,-11
-1,-6,-4,4,2,-5,-4,0,15,15,8,-11
-1,-6,-4,4,2,-5,-4,0,15,15,8,-11
0,-6,-5,3,2,-5,-4,0,15,15,8,-11
0,-6,-5,3,2,-6,-4,0,15,15,8,-12
0,-6,-5,3,3,-6,-4,0,15,15,8,-12
0,-6,-5,3,3,-6,-4,0,15,15,8,-12
0,-6,-5,4,3,-6,-4,0,15,15,8,-12
0,-6,-5,4,2,-6,-3,0,15,15,8,-12
-1,-6,-5,4,2,-5,-3,0,15,15,8,-12
-2,-6,-4,4,0,-5,-2,1,16,16,8,-11
-3,-6,-3,5,0,-4,-1,1,17,16,9,-11
-3,-6,-2,5,-1,-4,-1,2,17,16,9,-11
-3,-6,-2,5,-1,-4,0,2,18,16,9,-11
-3,-6,-2,5,-1,-4,0,3,18,16,9,-11
-3,-6,-3,4,0,-4,0,3,18,16,9,-11
-2,-6,-4,4,1,-4,0,3,18,16,9,-12
-1,-6,-5,3,2,-5,0,3,18,16,9,-12
0,-6,-5,3,2,-5,0,4,17,16,9,-13
0,-7,-5,3,2,-6,0,4,17,16,9,-13
0,-7,-5,3,2,-6,1,4,18,16,9,-13
-1,-7,-5,3,1,-6,1,5,18,16,9,-13
-1,-7,-5,4,1,-6,2,5,18,16,9,-14
-2,-8,-5,5,1,-7,2,6,18,17,9,-14
-2,-8,-5,5,2,-7,3,6,19,17,9,-14
-1,-8,-6,5,2,-7,3,6,19,17,9,-14
-1,-8,-6,5,2,-7,3,6,19,17,9,-14
0,-7,-6,4,3,-7,3,6,19,17,9,-14
0,-7,-6,4,3,-7,3,7,20,17,9,-14
0,-7,-5,4,2,-6,4,7,20,18,9,-14
0,-6,-5,4,2,-6,5,8,21,18,9,-14
0,-6,-5,3,2,-6,5,9,21,19,9,-15
0,-6,-5,3,2,-5,6,10,22,19,10,-15
0,-6,-5,4,1,-5,6,10,22,20,10,-15
0,-6,-5,4,1,-5,7,10,23,20,11,-15
0,-6,-5,4,2,-6,7,10,23,21,11,-15
0,-6,-5,4,2,-6,7,10,23,21,11,-15
0,-6,-5,3,2,-6,7,10,24,21,11,-15
0,-6,-5,3,2,-6,8,11,25,22,11,-15
0,-6,-5,3,2,-6,9,12,26,23,11,-15
0,-6,-5,4,2,-6,10,12,26,23,12,-15
0,-6,-5,4,2,-6,10,13,27,24,12,-15
0,-6,-5,4,2,-6,11,13,27,24,12,-15
0,-6,-5,4,2,-6,12,14,27,25,13,-15
0,-6,-5,4,1,-6,13,14,28,25,13,-15
-1,-6,-5,4,1,-6,13,14,28,25,13,-15
-1,-7,-5,5,1,-6,13,14,29,25,13,-16
-1,-7,-5,5,1,-5,13,15,29,25,13,-16
-1,-6,-5,5,1,-5,13,15,30,26,12,-17
-1,-6,-6,5,1,-5,12,14,30,26,12,-17
0,-6,-6,5,2,-6,11,14,30,26,12,-17
0,-6,-6,4,2,-6,9,14,31,27,13,-16
0,-6,-6,4,2,-6,8,14,31,28,13,-16
0,-6,-5,4,2,-6,7,13,32,28,13,-16
0,-6,-5,4,2,-6,6,13,33,29,14,-16
0,-6,-5,4,2,-5,5,13,34,30,14,-16
0,-5,-4,3,2,-5,4,13,35,31,14,-16
0,-4,-4,3,2,-4,3,12,36,31,14,-16
1,-4,-4,2,3,-4,2,12,36,31,14,-16
2,-3,-4,2,3,-4,1,12,36,32,14,-16
2,-3,-3,1,3,-4,0,12,36,32,15,-16
2,-2,-2,1,2,-3,-1,12,37,33,15,-15
2,-1,-2,0,1,-2,-2,11,38,33,15,-15
2,0,-1,0,1,-1,-3,11,39,34,15,-15
2,0,0,0,0,0,-3,11,40,34,16,-14
1,1,1,0,0,0,-4,11,40,35,16,-14
1,2,2,0,0,1,-5,11,41,35,16,-13
1,2,2,0,0,2,-6,10,41,35,16,-13
0,2,2,0,-1,2,-7,10,41,35,16,-13
0,2,3,0,-1,2,-7,9,41,36,16,-13
1,3,3,-1,-1,3,-8,9,41,36,16,-13
2,4,3,-2,-1,3,-8,8,40,35,15,-14
3,5,3,-3,0,3,-9,8,40,35,15,-14
4,6,3,-4,0,3,-9,8,40,35,14,-14
4,7,3,-5,0,4,-9,8,39,34,14,-13
3,7,4,-5,0,4,-10,7,39,34,13,-13
3,7,4,-4,0,4,-10,7,38,34,13,-13
3,7,4,-4,0,5,-10,7,38,33,13,-13
3,7,4,-5,0,5,-11,7,38,32,12,-13
4,8,4,-5,0,5,-11,6,37,32,12,-13
4,8,4,-5,0,5,-11,6,36,31,11,-13
4,8,4,-5,0,5,-12,5,35,31,11,-13
3,8,5,-5,-1,6,-12,5,34,30,10,-13
3,8,6,-5,-1,7,-12,4,33,30,10,-13
3,9,7,-5,-2,8,-12,4,33,29,9,-12
2,9,7,-5,-2,8,-12,4,32,28,9,-12
2,9,7,-5,-3,9,-13,4,32,27,8,-12
1,10,8,-5,-3,9,-13,3,31,26,7,-11
2,10,8,-6,-3,9,-13,3,30,25,7,-11
2,10,8,-6,-3,9,-13,3,29,25,6,-11
2,10,9,-5,-4,9,-13,2,28,24,6,-11
2,11,9,-6,-4,10,-14,1,27,23,6,-11
2,11,9,-6,-4,10,-14,1,26,23,6,-10
2,12,10,-7,-4,10,-14,1,25,22,6,-9
2,12,10,-7,-4,11,-14,1,25,21,6,-9
2,12,10,-7,-4,11,-14,1,24,20,5,-8
2,11,10,-7,-4,11,-14,1,23,19,5,-8
2,11,10,-7,-4,11,-14,1,22,19,5,-8
2,12,10,-7,-4,11,-14,1,21,18,5,-7
3,12,9,-7,-3,10,-14,0,20,17,4,-6
3,12,9,-7,-3,10,-14,0,19,16,4,-6
3,12,9,-6,-3,10,-13,0,18,16,4,-5
2,11,9,-6,-3,10,-13,0,18,15,4,-5
2,11,8,-6,-3,9,-13,0,17,15,4,-5
2,10,8,-6,-3,9,-12,0,17,14,4,-5
1,10,9,-5,-4,9,-12,0,16,14,4,-4
1,10,9,-5,-4,9,-11,0,15,13,4,-4
1,10,9,-5,-4,9,-11,0,13,12,3,-4
1,10,9,-5,-4,9,-11,0,12,11,3,-4
2,10,9,-5,-4,9,-11,0,12,11,3,-3
2,10,9,-5,-4,9,-11,0,11,10,2,-3
2,10,8,-5,-3,8,-11,0,11,10,2,-3
2,10,8,-5,-3,8,-10,0,11,9,2,-3
2,9,7,-5,-2,8,-10,0,10,9,2,-3
2,9,7,-5,-2,8,-9,0,9,8,2,-3
2,9,6,-5,-2,8,-9,0,8,8,1,-3
2,9,6,-5,-2,8,-9,0,8,7,1,-3
2,9,6,-5,-2,7,-9,0,7,7,1,-3
2,8,5,-5,-1,6,-9,0,7,6,1,-3
3,8,5,-5,-1,6,-9,0,6,6,1,-3
3,8,4,-5,0,6,-9,-1,6,5,1,-3
4,8,4,-5,0,5,-8,-1,6,5,1,-3
4,8,3,-5,0,5,-8,0,5,4,1,-3
3,8,3,-5,0,5,-7,0,5,4,0,-3
3,8,3,-5,0,5,-7,0,4,4,0,-4
3,7,3,-5,0,5,-6,0,4,4,0,-4
2,7,4,-4,-1,5,-6,0,4,4,0,-4
2,7,4,-4,-1,5,-5,0,4,4,0,-4
2,6,4,-4,-1,5,-5,0,4,4,0,-4
1,6,4,-3,-1,5,-5,0,4,4,0,-4
1,5,3,-3,0,4,-5,0,4,4,0,-4
2,4,2,-3,0,3,-5,0,3,3,0,-4
3,5,2,-4,1,3,-5,0,4,3,0,-4
4,6,2,-5,1,4,-5,0,4,3,1,-4
5,6,1,-5,2,4,-4,0,4,3,1,-4
5,6,1,-5,2,3,-4,0,4,3,1,-4
4,5,1,-4,1,3,-4,0,4,3,1,-4
4,5,1,-4,1,3,-4,1,4,3,1,-4
4,4,0,-4,2,2,-3,1,4,3,1,-4
4,4,0,-4,2,2,-3,1,4,3,1,-4
4,4,0,-3,2,2,-3,1,4,3,1,-4
3,4,0,-3,1,2,-3,1,4,3,1,-4
3,4,0,-3,1,2,-3,1,4,3,1,-3
3,4,0,-3,1,2,-3,1,4,3,2,-3
3,4,1,-3,1,2,-2,1,4,4,2,-3
3,4,1,-3,1,2,-2,1,4,4,2,-3
3,4,1,-3,1,2,-2,1,4,5,2,-3
4,4,1,-4,1,2,-2,1,4,5,3,-3
4,5,1,-4,1,2,-2,1,4,5,3,-3
4,5,1,-4,1,3,-2,1,4,5,3,-3
4,5,1,-4,1,3,-2,1,4,5,3,-3
4,5,0,-4,2,2,-2,1,4,5,3,-3
4,5,0,-4,2,2,-2,1,4,5,3,-3
4,5,0,-4,2,2,-1,2,5,5,4,-3
4,5,0,-5,2,2,-1,2,5,6,5,-2
5,5,0,-5,2,2,0,3,6,6,5,-2
4,4,-1,-4,2,1,0,3,6,6,5,-2
4,3,-1,-4,2,1,0,3,6,6,5,-2
4,3,-1,-4,2,1,0,3,6,6,5,-2
4,3,-1,-4,2,1,0,4,6,6,5,-1
4,3,-1,-4,2,1,1,4,6,6,5,-1
4,4,-1,-4,2,1,1,4,6,7,5,-1
3,4,0,-4,2,1,2,5,6,7,6,-1
3,4,0,-4,1,2,2,5,7,8,6,-1
3,4,1,-4,1,2,3,6,7,8,7,0
3,4,1,-4,1,2,3,6,7,8,7,0
4,4,1,-4,1,2,2,6,7,8,7,0
4,5,1,-4,1,2,2,6,7,8,7,0
4,5,0,-4,1,2,2,6,7,8,7,0
4,4,0,-4,2,1,2,5,7,7,6,0
4,4,-1,-4,2,1,2,5,7,7,6,0
4,4,-1,-4,2,1,2,5,7,7,6,0
4,3,-1,-4,2,1,2,5,6,6,6,0
4,3,-1,-3,2,1,1,4,6,6,6,0
4,3,-1,-3,2,1,0,3,5,6,6,-1
4,3,-1,-4,3,1,0,3,5,6,5,-1
5,4,-1,-4,3,1,0,3,5,6,5,-1
5,5,-1,-4,3,1,-1,3,5,6,5,-1
5,5,0,-4,3,2,-1,3,5,6,5,-1
5,5,0,-4,3,2,-2,2,5,6,5,-1
4,5,0,-4,2,2,-2,2,5,6,5,-2
3,5,1,-3,1,3,-2,2,5,6,4,-2
3,6,2,-3,0,3,-1,3,5,6,4,-2
3,6,2,-4,0,4,0,3,5,6,4,-2
2,6,3,-4,0,4,0,4,5,6,4,-2
1,6,4,-3,-1,4,1,4,5,6,4,-2
1,6,4,-3,-1,5,1,3,5,6,4,-2
1,6,5,-3,-1,5,2,1,5,6,4,-2
1,7,5,-3,-1,5,2,1,5,6,4,-2
1,7,5,-3,-2,5,2,0,5,6,4,-2
1,7,5,-3,-2,5,1,-1,5,6,4,-1
1,7,5,-3,-2,5,0,-2,4,5,4,-1
1,7,5,-3,-2,5,-1,-3,3,5,4,-1
1,7,5,-3,-2,5,-2,-4,3,5,4,-2
1,7,4,-4,-1,5,-4,-5,3,5,4,-2
2,7,4,-4,-1,5,-5,-6,3,5,4,-2
3,7,3,-4,0,4,-7,-7,3,4,3,-2
3,7,2,-5,0,4,-8,-7,3,4,3,-2
3,7,3,-5,0,4,-8,-7,3,4,3,-2
2,7,3,-5,-1,5,-9,-7,3,4,3,-2
1,7,4,-4,-1,5,-9,-7,3,4,3,-2
1,6,4,-4,-1,5,-9,-7,3,4,3,-2
1,6,5,-4,-1,5,-9,-7,3,4,3,-2
1,6,5,-4,-1,5,-10,-7,3,4,3,-2
1,6,4,-4,-1,5,-10,-7,2,3,2,-2
1,6,4,-4,-1,4,-11,-7,2,3,2,-2
1,6,4,-4,-1,4,-11,-7,2,3,2,-2
1,7,4,-4,-1,5,-11,-7,3,3,3,-2
1,7,5,-4,-1,5,-11,-7,3,3,3,-2
1,7,5,-4,-1,5,-11,-7,3,3,3,-3
2,7,4,-4,0,5,-11,-6,3,3,3,-3
2,7,4,-4,0,5,-11,-6,3,3,3,-3
2,7,4,-5,0,5,-11,-6,3,3,3,-3
2,7,4,-5,0,5,-11,-6,3,3,3,-3
2,7,4,-5,0,5,-11,-6,3,3,2,-3
2,7,3,-5,0,4,-11,-6,3,3,2,-3
3,7,3,-5,0,4,-11,-6,3,3,2,-3
3,7,3,-5,0,4,-11,-6,3,3,2,-4
3,7,3,-5,0,4,-11,-6,3,3,2,-4
3,7,3,-5,0,4,-11,-6,3,3,2,-4
3,7,3,-5,0,4,-11,-6,3,3,2,-4
3,6,2,-5,0,4,-11,-6,2,3,2,-4
3,6,2,-5,0,4,-11,-6,2,3,2,-4
3,6,2,-5,0,4,-11,-6,2,3,2,-4
3,7,2,-5,0,4,-11,-7,3,3,2,-4
3,7,3,-5,0,5,-11,-7,3,3,2,-4
3,7,3,-5,0,5,-11,-7,3,3,2,-4
3,7,3,-5,0,5,-11,-7,3,3,2,-4
3,7,3,-5,0,5,-11,-7,3,3,2,-4
3,7,3,-6,0,5,-11,-6,3,3,2,-4
3,7,3,-6,0,5,-11,-6,3,3,2,-4
3,7,3,-6,0,5,-11,-5,3,3,2,-3
3,7,3,-6,0,5,-11,-5,3,3,2,-3
3,7,3,-6,0,5,-11,-6,3,3,2,-3
3,7,3,-6,1,5,-11,-6,3,3,2,-3
3,7,3,-6,1,5,-11,-6,3,3,3,-3
3,7,4,-6,0,5,-11,-6,3,3,3,-3
3,7,3,-6,0,5,-11,-6,3,3,3,-3
4,8,3,-6,1,5,-11,-5,3,4,3,-3
4,8,3,-6,1,5,-11,-5,4,4,3,-3
4,8,3,-6,1,5,-11,-5,4,5,4,-2
4,8,3,-6,1,5,-11,-6,4,5,4,-2
4,8,3,-6,1,6,-10,-6,4,5,4,-2
4,9,3,-6,1,6,-10,-6,4,6,4,-2
4,9,4,-6,0,7,-10,-6,4,6,4,-2
4,9,4,-7,0,7,-10,-6,4,6,4,-2
4,9,5,-7,0,8,-10,-5,4,6,4,-2
4,9,6,-7,0,8,-10,-5,5,6,4,-2
4,9,6,-7,0,8,-9,-4,5,6,4,-2
3,9,6,-7,0,8,-9,-4,5,6,4,-2
3,9,6,-7,0,7,-9,-5,5,6,4,-3
3,9,5,-7,0,7,-9,-5,5,6,4,-3
4,9,5,-7,0,7,-9,-5,5,6,4,-2
4,10,5,-7,0,7,-9,-5,5,6,4,-2
5,10,5,-7,0,7,-9,-5,5,6,4,-2
5,10,5,-8,0,7,-10,-5,5,6,4,-2
5,11,5,-8,0,8,-10,-5,5,6,4,-2
5,11,5,-8,0,8,-9,-5,6,6,5,-2
5,11,5,-8,0,8,-9,-5,6,6,5,-2
5,11,5,-8,0,8,-9,-4,6,7,5,-2
6,11,5,-9,1,8,-8,-4,6,7,5,-2
6,11,5,-9,1,8,-8,-4,6,7,5,-1
6,11,5,-8,1,8,-8,-4,6,7,5,-1
5,11,5,-8,0,8,-8,-4,7,7,6,-1
4,11,6,-8,0,8,-7,-3,7,8,6,0
4,11,6,-8,0,8,-7,-3,8,8,7,0
4,11,6,-8,0,8,-6,-3,8,8,7,0
4,11,6,-8,0,8,-6,-2,8,8,7,0
4,11,6,-8,0,8,-6,-2,8,8,7,0
4,10,6,-7,0,8,-6,-2,8,8,7,0
4,10,6,-7,0,8,-6,-2,8,8,7,0
4,10,6,-7,0,8,-6,-2,8,8,6,0
4,10,6,-7,0,7,-6,-2,8,8,6,-1
4,10,5,-7,0,7,-6,-2,7,8,6,-1
4,9,5,-7,1,7,-6,-2,7,8,6,-2
4,9,5,-7,1,7,-6,-2,6,7,5,-3
5,9,4,-8,1,7,-6,-2,6,6,5,-3
5,9,4,-8,2,7,-5,-2,5,6,4,-3
6,9,3,-8,2,6,-5,-2,5,5,3,-4
6,8,3,-8,2,5,-4,-1,5,5,2,-6
6,7,2,-7,2,4,-3,-1,4,4,0,-8
6,6,1,-7,3,3,-2,0,3,2,-2,-10
6,5,0,-6,4,2,-1,0,1,0,-5,-12
6,4,-1,-5,5,0,-1,0,-2,-4,-9,-16
5,2,-3,-4,5,-1,0,0,-7,-9,-14,-19
5,1,-4,-4,5,-2,0,0,-11,-13,-17,-20
5,1,-4,-3,5,-2,0,0,-14,-16,-19,-21
3,1,-3,-3,3,-1,0,-1,-17,-17,-20,-20
2,2,0,-2,2,0,0,-2,-18,-18,-19,-17
2,3,2,-3,0,2,0,-3,-18,-17,-18,-14
1,5,4,-3,0,4,0,-4,-15,-15,-16,-9
1,6,5,-4,-1,5,-1,-5,-11,-10,-12,-3
2,8,6,-5,-2,7,-3,-5,-7,-5,-7,3
2,11,7,-7,-2,9,-5,-6,-5,-1,-3,11
4,12,7,-9,-1,10,-8,-7,-4,1,2,19
7,13,6,-10,1,9,-9,-7,-5,3,6,28
10,14,4,-12,4,9,-10,-6,-11,0,10,38
12,16,4,-14,5,9,-11,-7,-24,-6,13,50
13,18,5,-15,5,11,-13,-9,-41,-18,14,63
14,20,6,-17,5,13,-15,-13,-63,-35,12,74
15,23,8,-19,4,15,-17,-17,-84,-55,7,83
15,27,11,-21,3,19,-18,-20,-104,-75,0,90
15,31,15,-23,1,23,-21,-26,-124,-94,-8,95
14,35,20,-25,-2,27,-24,-34,-143,-113,-19,99
12,38,26,-26,-6,32,-26,-43,-159,-129,-29,103
10,40,31,-25,-10,36,-29,-52,-173,-143,-38,106
6,41,35,-24,-14,38,-30,-61,-184,-154,-46,109
2,40,38,-21,-17,39,-30,-69,-192,-163,-54,109
-3,39,42,-18,-22,40,-29,-75,-196,-168,-61,107
-11,37,47,-13,-28,41,-26,-79,-197,-172,-68,100
-17,32,48,-8,-32,40,-22,-81,-198,-175,-76,90
-21,26,46,-3,-33,36,-18,-81,-198,-176,-85,76
-22,19,41,1,-31,29,-14,-81,-196,-176,-93,59
-22,9,32,6,-26,20,-9,-79,-190,-173,-100,39
-21,0,21,10,-20,9,-5,-74,-180,-165,-104,15
-19,-10,9,14,-14,-1,0,-67,-165,-154,-105,-12
-17,-18,-1,17,-7,-10,3,-57,-148,-140,-103,-39
-16,-24,-9,19,-3,-17,6,-47,-130,-124,-98,-57
-15,-27,-14,20,0,-21,8,-37,-111,-107,-89,-64
-13,-28,-16,20,2,-23,9,-27,-92,-90,-78,-65
-10,-27,-18,18,4,-23,10,-19,-74,-74,-66,-61
-6,-25,-19,15,6,-22,11,-12,-58,-60,-56,-56
-2,-23,-20,13,9,-22,12,-4,-45,-48,-46,-51
1,-20,-21,10,11,-21,13,2,-33,-37,-38,-45
3,-17,-21,7,13,-20,14,7,-24,-28,-30,-40
4,-14,-20,4,13,-18,14,10,-17,-20,-24,-35
4,-12,-18,3,12,-15,13,12,-10,-13,-18,-31
4,-10,-15,3,11,-13,13,13,-4,-7,-13,-27
3,-8,-13,2,9,-11,12,14,1,-2,-8,-24
3,-7,-11,1,8,-9,12,13,5,2,-3,-21
4,-5,-9,0,7,-7,11,13,8,6,0,-19
4,-3,-8,0,6,-6,11,12,10,8,1,-18
5,-1,-7,-1,6,-4,10,12,12,9,3,-17
5,0,-6,-2,6,-4,9,12,13,10,4,-16
5,0,-6,-3,6,-3,9,13,13,11,5,-15
5,0,-6,-3,6,-3,8,13,14,12,7,-14
5,0,-6,-3,6,-3,8,12,15,14,8,-13
5,0,-6,-3,6,-3,7,12,16,15,9,-12
5,0,-6,-3,6,-3,7,11,17,15,9,-12
5,0,-6,-3,6,-3,7,10,17,14,9,-12
5,0,-5,-3,6,-3,6,10,17,14,9,-12
4,0,-5,-3,6,-2,6,9,17,15,9,-12
4,0,-4,-3,5,-2,5,9,17,15,10,-11
3,0,-4,-2,5,-2,5,8,17,15,10,-11
4,0,-4,-2,5,-2,4,8,17,16,10,-11
4,1,-4,-3,5,-1,4,7,17,16,10,-11
5,1,-4,-3,5,-1,4,7,17,16,10,-11
5,1,-4,-3,5,-1,4,6,17,16,9,-11
5,2,-4,-3,5,-1,3,6,17,16,9,-11
5,2,-4,-3,5,0,3,5,17,16,10,-11
5,2,-3,-3,5,0,2,5,17,16,10,-11
5,2,-3,-3,5,0,2,5,17,16,10,-11
5,2,-3,-3,5,0,1,5,17,16,10,-11
5,2,-3,-3,4,0,1,5,17,16,10,-11
4,2,-2,-3,4,0,1,5,18,17,11,-11
3,2,-2,-3,3,0,1,5,18,18,11,-11
3,2,-2,-2,3,0,1,5,19,18,11,-11
3,2,-2,-2,3,0,1,4,19,18,11,-11
3,2,-2,-2,3,0,1,4,19,18,11,-11
3,2,-2,-2,3,0,0,4,19,18,11,-11
3,2,-2,-2,3,0,0,4,19,18,11,-11
3,2,-2,-2,3,0,0,4,19,18,11,-11
3,2,-2,-2,3,0,0,4,19,18,11,-11
4,2,-2,-3,4,0,0,4,20,19,12,-10
5,2,-3,-3,5,0,0,4,20,19,13,-10
5,2,-3,-4,5,0,0,3,20,19,13,-10
5,2,-4,-4,5,0,0,3,20,19,13,-10
6,3,-4,-4,5,0,0,3,20,19,13,-11
6,3,-3,-4,5,0,0,3,20,19,13,-11
6,3,-3,-4,5,0,-1,4,20,19,12,-11
6,3,-4,-5,5,0,-1,3,20,19,12,-11
6,2,-4,-5,6,0,-1,3,20,18,11,-12
6,1,-5,-4,6,-1,-1,3,20,18,11,-12
6,0,-5,-3,6,-2,-1,3,20,18,11,-12
5,0,-5,-3,6,-2,0,3,21,19,11,-12
5,0,-5,-2,6,-2,0,3,21,19,11,-12
5,0,-6,-2,6,-3,0,3,21,18,11,-12
6,0,-7,-2,7,-3,0,3,21,18,10,-12
6,0,-7,-3,7,-3,0,3,21,18,10,-12
6,0,-7,-3,7,-3,-1,2,21,18,10,-13
6,0,-7,-3,6,-2,-1,2,21,18,10,-13
6,0,-7,-3,6,-2,-1,2,21,18,10,-14
6,0,-7,-3,7,-3,-1,2,21,18,9,-15
6,0,-7,-3,7,-3,-1,2,21,18,9,-15
6,0,-7,-3,7,-3,-1,3,21,18,9,-15
6,0,-7,-2,7,-3,-1,3,21,18,9,-16
6,0,-7,-2,7,-3,-1,3,22,18,9,-16
6,0,-7,-2,7,-3,0,3,22,19,10,-16
5,0,-7,-2,6,-3,0,4,23,19,10,-16
5,-1,-7,-2,6,-3,0,4,23,20,10,-16
5,0,-6,-2,6,-2,0,4,24,20,10,-17
5,0,-6,-2,7,-2,0,5,24,20,10,-17
6,0,-7,-3,7,-2,1,5,25,21,10,-16
7,0,-7,-3,7,-3,2,6,25,21,10,-16
6,0,-7,-2,7,-3,2,6,26,22,10,-15
6,0,-7,-2,7,-3,2,6,26,22,10,-15
6,0,-8,-2,8,-3,2,7,27,22,10,-15
6,0,-8,-2,8,-3,2,8,27,22,10,-15
6,0,-7,-2,7,-2,3,8,28,23,10,-15
6,0,-7,-3,7,-2,3,9,28,23,11,-15
6,1,-6,-3,6,-1,3,9,29,24,11,-15
6,2,-6,-3,6,-1,3,9,30,25,12,-15
6,2,-5,-3,5,-1,3,10,30,25,12,-15
6,2,-5,-3,5,-1,4,10,30,25,11,-15
5,2,-4,-3,5,0,4,10,31,25,11,-16
5,2,-4,-3,5,0,5,11,31,25,11,-16
5,1,-4,-3,5,0,5,12,31,25,11,-16
5,1,-4,-3,5,0,5,12,32,25,11,-17
6,2,-5,-3,5,0,6,12,32,26,11,-17
6,2,-5,-4,5,0,6,12,33,27,11,-16
6,2,-5,-4,5,0,6,13,33,27,11,-16
6,2,-5,-4,5,0,6,13,33,27,10,-16
6,2,-5,-4,5,0,6,13,33,27,10,-16
6,2,-5,-4,5,0,6,13,33,27,10,-16
6,2,-5,-4,6,0,6,13,33,27,10,-16
7,3,-5,-5,6,0,6,14,33,27,10,-16
7,3,-4,-5,6,1,6,14,34,28,10,-16
6,4,-3,-5,5,1,6,14,34,28,10,-16
6,4,-2,-5,4,2,6,14,34,28,10,-16
5,5,-1,-5,3,3,7,15,34,28,9,-16
5,5,-1,-5,3,3,7,15,34,28,9,-16
5,5,-1,-5,3,3,8,16,34,27,8,-16
5,5,-1,-4,3,3,8,16,33,27,8,-16
5,5,-1,-4,3,3,8,16,33,26,8,-16
5,6,0,-5,2,3,8,16,32,25,7,-16
5,7,1,-5,2,4,8,16,32,25,7,-15
4,7,2,-5,1,5,8,16,32,25,7,-14
4,7,2,-5,1,6,8,16,31,24,7,-14
4,8,2,-6,1,6,8,16,31,24,6,-14
5,8,2,-6,1,6,8,15,30,24,6,-14
5,8,2,-6,1,6,8,15,30,24,6,-14
5,8,2,-6,1,6,9,15,29,23,5,-14
5,8,2,-6,1,6,9,15,27,21,3,-14
5,8,3,-6,1,7,9,15,26,20,2,-14
5,9,3,-7,1,7,9,15,25,20,2,-14
5,9,3,-7,1,7,9,15,24,19,2,-14
5,9,4,-6,0,7,9,15,23,17,1,-14
4,9,4,-6,0,7,9,15,23,16,1,-14
4,10,5,-6,0,8,10,15,23,17,1,-13
4,11,6,-7,-1,9,11,15,22,17,1,-12
4,11,7,-7,-2,10,11,15,22,17,1,-11
3,11,8,-6,-2,10,11,14,20,15,0,-11
3,11,7,-6,-2,10,11,14,19,14,-1,-10
3,11,7,-7,-2,10,11,14,18,13,-1,-10
3,11,7,-7,-2,10,11,14,18,12,-1,-9
3,11,7,-7,-2,10,11,13,17,12,-1,-8
3,11,7,-7,-2,10,11,13,16,11,-1,-8
3,11,7,-7,-2,10,12,13,16,11,-1,-6
3,11,7,-7,-1,10,12,13,15,11,-1,-5
3,11,7,-7,-1,10,11,12,14,10,-1,-5
3,12,8,-7,-2,10,11,12,14,9,0,-4
3,12,8,-7,-2,11,10,12,13,9,0,-4
3,12,8,-7,-2,11,9,12,13,8,0,-3
4,13,8,-8,-2,11,8,12,12,8,0,-3
4,13,8,-8,-2,11,8,11,12,8,0,-2
4,14,9,-9,-2,12,7,11,11,8,0,-1
4,14,9,-9,-2,12,7,11,11,8,-1,-1
5,14,8,-9,-2,12,6,11,10,7,-1,-1
5,14,8,-9,-1,12,6,11,10,6,-1,0
5,14,7,-9,-1,11,7,12,9,6,0,0
4,13,8,-8,-2,11,7,12,9,7,0,1
3,13,8,-7,-3,11,6,11,9,7,1,2
2,13,9,-7,-3,11,6,11,9,8,1,2
2,13,9,-7,-3,11,6,10,9,7,1,2
2,12,9,-7,-3,11,6,10,9,6,0,2
2,12,9,-7,-2,11,6,10,9,6,0,2
3,12,8,-7,-1,11,5,9,8,5,1,3
4,12,6,-8,0,10,5,8,7,5,1,3
5,12,5,-8,0,10,4,7,7,5,1,3
6,11,4,-8,1,9,3,6,6,5,1,3
6,11,3,-8,2,8,2,5,6,4,1,3
6,10,3,-8,2,7,1,4,5,4,1,3
5,9,2,-7,2,6,1,3,4,3,0,3
6,8,2,-7,2,5,0,3,4,2,0,2
6,8,1,-7,2,5,0,2,3,2,0,2
6,7,1,-7,3,5,0,1,3,1,-1,1
7,7,0,-7,3,5,-1,0,2,1,-1,1
7,8,0,-7,4,4,-1,0,2,1,-1,1
7,7,0,-7,4,4,-1,0,2,0,-1,1
7,7,0,-7,4,3,-1,0,2,1,0,1
6,7,0,-6,3,4,-1,0,2,2,0,1
5,7,0,-6,2,4,-1,0,2,2,0,1
5,6,0,-6,2,4,-1,0,2,1,0,1
4,6,0,-6,2,3,-1,-1,1,1,-1,0
4,5,0,-5,2,3,-1,-1,1,0,-1,0
4,5,0,-4,2,3,-1,-1,1,0,-1,0
4,5,0,-4,2,3,-1,-2,0,0,-1,0
4,5,0,-4,2,3,-1,-2,0,0,-1,0
4,4,-1,-4,2,2,-1,-2,0,0,-1,0
4,4,-1,-4,3,2,-1,-2,0,0,-1,0
4,3,-2,-4,3,1,-1,-2,0,0,-1,-1
5,3,-2,-4,3,1,-1,-3,0,0,-1,-1
5,3,-3,-4,4,1,-1,-3,0,0,-1,-2
5,3,-3,-4,4,1,-1,-3,1,0,-1,-2
5,2,-3,-3,4,0,-1,-3,1,0,-1,-2
4,2,-3,-3,4,0,-1,-3,0,0,-1,-2
4,2,-3,-3,4,0,-1,-4,0,0,-1,-2
5,2,-3,-3,4,0,-1,-4,0,0,0,-1
5,3,-3,-4,4,0,-1,-3,1,1,0,-1
5,3,-3,-4,4,0,-1,-3,1,1,0,-1
4,2,-3,-3,3,0,-1,-3,1,1,0,-1
4,2,-3,-3,3,0,-1,-4,1,1,0,-1
4,2,-3,-3,4,0,-1,-4,2,1,0,-1
5,2,-3,-3,4,0,-1,-4,2,2,1,-1
5,2,-4,-3,4,0,-1,-4,2,2,1,-1
5,1,-4,-3,4,0,-1,-4,2,2,1,-1
5,0,-4,-2,4,-1,-1,-4,2,2,1,-1
5,0,-4,-2,4,-1,-1,-4,2,2,1,-1
5,1,-4,-3,5,0,-1,-4,3,3,2,0
6,2,-4,-4,5,0,-1,-4,3,4,3,0
5,2,-4,-4,5,0,-1,-4,3,4,3,0
5,1,-4,-3,5,0,-1,-4,3,4,3,0
5,1,-4,-3,5,0,-1,-4,4,4,4,0
5,2,-4,-3,5,0,-1,-3,4,5,4,-1
5,2,-3,-3,5,0,-1,-3,4,5,4,-1
5,3,-3,-4,5,0,-1,-3,4,4,4,-1
5,3,-2,-4,4,1,0,-3,4,5,4,-1
5,4,-2,-4,3,1,0,-3,5,5,5,0
4,3,-2,-4,3,2,0,-3,5,5,5,0
4,3,-2,-3,3,1,0,-2,5,5,5,1
4,2,-2,-3,3,1,0,-2,5,6,6,1
5,3,-2,-3,3,1,0,-2,5,6,6,2
4,3,-1,-3,3,1,0,-2,6,6,6,2
4,3,-1,-3,3,1,0,-2,6,6,6,2
4,3,-2,-3,3,1,0,-2,6,6,6,2
4,3,-2,-3,3,1,0,-2,6,6,6,3
4,2,-2,-3,3,1,0,-2,6,6,6,3
4,3,-2,-3,4,1,-1,-3,6,6,6,3
4,4,-1,-4,4,2,-1,-3,6,7,7,3
4,4,0,-4,3,3,-1,-3,6,7,7,3
4,5,0,-4,3,4,-1,-3,6,7,7,3
4,5,0,-4,2,4,-1,-2,6,8,7,3
4,5,0,-4,2,3,-1,-2,6,8,7,2
5,5,-1,-4,2,3,-1,-2,6,8,7,2
5,5,-1,-5,3,3,-1,-2,7,8,7,3
5,5,-1,-5,3,3,-1,-2,7,8,7,3
5,5,-1,-5,3,3,-1,-1,7,8,7,4
5,5,-1,-5,3,3,-1,-1,8,8,8,5
5,5,-1,-5,4,2,-1,-1,8,8,8,6
6,5,-1,-5,4,2,0,0,8,9,9,7
6,5,-1,-5,4,2,0,0,8,9,9,7
5,5,-1,-4,3,2,0,0,8,9,9,7
4,5,0,-4,2,2,0,0,8,9,9,6
5,5,0,-4,2,3,0,1,8,9,8,5
5,6,0,-5,3,3,0,2,8,9,7,3
5,5,-1,-4,3,3,1,2,7,7,4,1
5,4,-2,-4,4,2,1,3,5,4,1,-2
5,2,-3,-3,4,0,2,3,2,0,-3,-5
5,1,-4,-2,5,-1,2,3,-2,-4,-8,-7
4,0,-5,-1,4,-1,2,2,-6,-8,-11,-10
3,0,-4,0,3,-1,2,1,-10,-11,-14,-11
2,1,-2,0,2,0,2,0,-14,-13,-15,-10
1,2,0,0,1,2,2,-1,-17,-16,-17,-8
0,3,2,0,0,3,1,-3,-20,-19,-18,-6
0,4,3,0,-1,4,1,-5,-23,-22,-19,-3
0,4,4,-1,-2,5,0,-7,-25,-24,-20,1
0,5,5,-2,-2,6,-2,-9,-26,-25,-20,6
0,7,6,-3,-3,7,-4,-11,-25,-24,-18,12
1,9,7,-4,-2,8,-6,-11,-21,-20,-14,20
2,11,6,-6,-1,8,-7,-11,-14,-14,-7,29
5,12,5,-8,0,9,-8,-10,-6,-5,1,41
8,14,5,-10,2,9,-10,-9,0,3,11,55
11,16,5,-12,3,11,-12,-8,5,11,21,71
13,20,6,-16,4,13,-13,-6,7,16,29,85
15,24,9,-19,3,17,-15,-5,2,14,33,98
16,29,11,-22,3,20,-16,-6,-10,6,34,108
18,33,13,-25,3,23,-19,-8,-28,-8,31,117
18,35,15,-26,2,26,-21,-11,-51,-28,23,123
18,37,17,-27,1,28,-22,-14,-74,-50,13,128
16,38,21,-27,-1,30,-23,-16,-95,-72,2,132
14,40,26,-26,-5,34,-23,-19,-113,-91,-10,132
9,41,32,-25,-11,38,-22,-22,-127,-106,-23,128
3,43,40,-23,-18,42,-19,-24,-137,-117,-36,121
-3,44,48,-20,-25,47,-16,-25,-142,-125,-47,110
-10,44,54,-17,-32,50,-11,-25,-145,-130,-58,96
-16,41,56,-12,-35,50,-6,-26,-147,-136,-70,79
-20,35,54,-7,-36,45,-2,-29,-151,-142,-81,59
-22,26,47,-1,-34,38,1,-31,-156,-149,-94,37
-22,16,37,4,-29,27,5,-32,-159,-155,-105,10
-21,5,26,9,-23,16,8,-32,-160,-157,-114,-18
-20,-6,14,13,-17,4,11,-31,-156,-154,-118,-46
-19,-16,2,17,-10,-7,13,-30,-149,-147,-119,-67
-17,-24,-8,20,-4,-15,15,-27,-140,-139,-116,-78
-16,-29,-15,22,0,-21,16,-24,-129,-128,-110,-83
-13,-30,-19,22,3,-24,16,-20,-116,-116,-103,-83
-11,-29,-20,21,5,-24,15,-16,-102,-101,-92,-79
-8,-27,-19,19,5,-22,13,-12,-85,-85,-80,-72
-6,-25,-19,17,6,-21,12,-8,-68,-70,-66,-62
-4,-22,-18,14,6,-20,12,-3,-53,-55,-54,-53
-2,-20,-18,11,7,-18,12,1,-40,-43,-43,-44
0,-18,-17,9,8,-17,13,5,-30,-32,-33,-37
1,-15,-17,7,9,-15,13,7,-21,-23,-25,-31
2,-13,-16,5,9,-14,12,8,-14,-16,-18,-26
3,-10,-15,4,9,-12,12,9,-8,-9,-11,-21
3,-8,-13,4,8,-9,12,8,-3,-4,-7,-18
3,-7,-11,3,7,-8,11,7,1,-1,-3,-16
3,-6,-9,3,6,-7,11,6,4,2,0,-13
2,-6,-8,2,6,-6,10,6,6,5,2,-11
2,-6,-8,2,5,-6,10,5,8,6,4,-9
2,-5,-8,2,5,-6,10,4,8,8,5,-7
2,-5,-8,2,5,-6,10,4,9,9,6,-7
2,-5,-8,2,5,-6,10,4,9,9,7,-6
2,-5,-9,2,6,-6,10,4,10,10,8,-6
3,-5,-9,2,6,-7,10,4,10,10,8,-6
3,-5,-9,2,7,-7,10,4,11,10,8,-6
3,-6,-9,2,7,-7,10,4,11,10,8,-6
3,-6,-9,2,6,-7,9,4,12,10,8,-6
2,-6,-9,2,6,-7,8,3,12,11,8,-6
2,-5,-9,2,6,-7,8,3,12,11,8,-6
3,-5,-9,2,6,-6,7,3,11,11,8,-6
3,-4,-8,1,6,-6,7,3,11,11,8,-6
3,-4,-8,1,6,-5,7,3,11,11,8,-7
3,-4,-7,1,6,-5,7,3,12,11,8,-7
3,-4,-7,1,6,-5,8,3,12,12,8,-8
3,-3,-7,0,6,-5,8,3,12,12,8,-8
3,-3,-7,0,6,-5,8,3,12,12,8,-8
3,-3,-7,0,6,-5,8,3,12,11,8,-8
3,-4,-8,0,6,-6,9,3,12,11,8,-8
3,-4,-8,1,6,-6,9,4,12,12,9,-7
3,-5,-9,1,6,-7,9,4,13,12,9,-7
3,-5,-9,2,6,-7,10,4,13,13,9,-7
2,-5,-8,2,5,-6,10,5,14,13,10,-7
2,-4,-7,2,5,-6,10,5,14,13,10,-7
1,-4,-6,2,4,-5,10,5,14,13,9,-7
1,-4,-6,2,4,-5,10,5,14,13,9,-7
1,-4,-7,2,5,-5,10,5,15,14,10,-7
2,-4,-7,1,5,-5,10,5,15,14,10,-7
3,-4,-8,1,6,-5,10,5,15,14,10,-7
3,-4,-8,1,6,-5,10,5,15,14,10,-7
3,-4,-8,1,6,-6,10,5,15,14,9,-7
3,-5,-8,1,6,-6,10,5,15,14,9,-7
3,-5,-8,1,6,-6,10,6,15,14,10,-7
2,-5,-8,1,6,-6,10,6,16,14,10,-7
2,-5,-8,1,6,-6,10,6,16,15,10,-8
2,-5,-8,1,6,-6,10,6,16,15,10,-8
2,-5,-8,1,6,-6,10,6,16,15,10,-8
2,-5,-8,1,6,-6,10,7,16,15,10,-7
2,-5,-8,2,6,-6,10,7,17,16,10,-7
2,-5,-8,2,6,-6,10,7,17,16,10,-7
3,-5,-9,1,6,-6,10,8,18,17,11,-7
3,-5,-9,1,7,-6,10,8,18,17,11,-7
3,-5,-10,1,7,-6,10,8,19,17,11,-7
3,-5,-10,1,7,-6,10,8,19,18,12,-7
3,-5,-10,1,7,-6,10,8,19,18,12,-7
3,-5,-10,1,7,-6,10,7,19,18,12,-7
3,-5,-10,1,7,-7,10,7,19,18,12,-8
3,-5,-10,1,7,-7,10,7,20,18,12,-8
3,-5,-10,1,7,-7,10,8,20,19,12,-8
3,-5,-9,1,7,-6,10,8,21,19,13,-7
3,-5,-9,1,6,-6,10,8,21,20,13,-7
3,-4,-8,1,6,-5,10,8,22,21,13,-7
3,-3,-8,0,6,-5,10,9,22,21,14,-7
4,-2,-8,0,6,-4,11,9,23,22,14,-7
4,-2,-8,-1,6,-4,11,9,23,22,15,-7
4,-2,-8,-1,6,-4,11,9,24,22,15,-7
4,-2,-8,-1,6,-4,10,9,25,23,15,-7
4,-2,-8,-1,6,-4,10,10,26,24,15,-6
4,-2,-8,-1,6,-4,10,10,26,24,15,-6
4,-2,-7,-1,6,-4,10,10,27,24,15,-6
4,-2,-7,-1,6,-4,10,10,27,25,16,-6
4,-1,-7,-1,6,-4,11,11,28,26,17,-6
5,-1,-7,-2,7,-4,11,11,28,27,17,-6
5,-1,-7,-2,7,-4,11,11,29,27,17,-6
5,-1,-7,-2,7,-4,11,11,30,27,17,-5
5,-1,-7,-2,7,-3,11,12,31,28,18,-5
4,-1,-6,-2,6,-3,11,13,31,29,18,-5
4,0,-5,-2,5,-2,11,13,32,29,18,-4
3,0,-5,-2,4,-1,11,13,33,30,19,-4
3,0,-4,-2,4,-1,11,13,33,30,19,-4
3,1,-4,-2,4,0,11,13,33,30,19,-4
3,1,-4,-2,4,0,11,13,34,30,19,-4
3,1,-4,-2,4,0,10,12,34,30,19,-4
4,1,-4,-2,4,0,10,12,34,30,19,-4
5,1,-4,-3,5,0,10,12,34,31,18,-4
6,3,-4,-4,5,0,9,12,34,31,18,-4
6,3,-4,-5,5,1,8,11,34,31,18,-4
6,3,-3,-5,5,1,8,10,34,31,17,-4
6,4,-2,-5,5,2,7,9,34,31,17,-4
5,5,-2,-5,4,2,7,9,34,31,17,-4
5,6,-1,-6,4,3,7,8,34,31,17,-4
6,7,0,-6,4,4,7,7,34,31,17,-3
6,7,0,-6,4,4,7,7,34,31,17,-3
6,8,1,-6,4,5,7,7,34,31,16,-3
6,8,1,-6,3,5,7,7,33,30,16,-3
6,8,1,-6,3,5,7,7,33,29,15,-3
6,8,1,-7,3,5,6,7,32,29,15,-3
6,8,1,-7,3,5,6,6,32,28,14,-3
5,8,1,-6,3,5,6,6,31,28,13,-3
5,7,2,-6,2,5,6,5,30,27,12,-4
5,7,2,-6,2,5,6,5,29,26,11,-4
5,7,2,-6,2,5,6,5,28,25,11,-4
5,8,3,-6,2,6,5,5,28,25,10,-4
4,8,3,-6,1,6,5,5,27,24,10,-4
4,8,4,-6,1,7,5,5,27,24,10,-4
3,8,4,-6,0,7,4,5,26,23,10,-3
3,9,5,-6,0,8,4,5,26,23,10,-3
3,9,5,-6,0,8,4,4,25,23,9,-2
3,9,5,-6,0,8,3,4,24,23,9,-2
4,10,5,-7,0,8,2,4,24,22,9,-1
4,10,5,-7,0,9,0,3,23,21,9,-1
5,10,5,-7,0,9,0,3,23,21,9,-1
4,10,5,-7,0,9,-2,3,23,20,9,0
4,10,5,-7,0,9,-3,3,23,20,9,1
4,11,5,-8,0,9,-5,3,23,20,8,2
5,12,5,-8,0,9,-6,2,22,20,8,3
5,12,5,-9,0,9,-7,2,22,20,8,3
6,12,5,-9,0,9,-7,2,21,19,8,4
6,12,5,-9,0,9,-8,2,20,19,8,4
6,11,5,-8,0,9,-8,2,19,18,8,4
5,10,5,-8,0,9,-9,2,18,16,8,4
5,10,5,-7,1,8,-9,2,17,15,7,4
5,9,4,-7,1,8,-9,2,17,14,6,4
5,9,3,-7,2,7,-9,2,16,14,6,4
5,8,2,-6,2,6,-8,2,16,13,5,4
4,7,2,-6,2,6,-8,2,15,13,5,4
4,6,2,-5,2,5,-8,2,14,12,5,3
4,6,2,-5,2,5,-8,2,13,11,5,3
4,6,2,-5,1,5,-8,2,12,10,5,3
3,6,2,-5,1,5,-7,2,11,10,4,3
3,6,2,-5,1,5,-7,2,11,9,4,3
3,5,2,-4,1,4,-6,2,11,9,4,3
2,5,2,-4,1,4,-5,1,10,9,3,3
2,5,2,-3,1,4,-5,1,10,8,3,3
2,5,2,-3,1,4,-4,2,9,8,3,3
2,5,1,-3,1,3,-4,2,9,8,3,3
2,5,1,-3,2,3,-3,2,8,8,3,3
3,4,0,-3,2,2,-3,2,8,7,3,3
3,4,0,-3,2,2,-3,2,8,7,3,3
3,4,-1,-3,3,2,-3,1,7,6,3,3
3,4,-1,-3,3,2,-3,1,7,6,3,2
2,3,0,-2,2,2,-3,1,7,6,3,2
2,3,0,-2,2,2,-3,1,7,6,3,3
2,3,0,-2,2,2,-3,1,6,5,3,3
2,2,0,-2,3,2,-3,1,6,5,3,3
2,2,-1,-2,3,1,-3,1,6,5,3,2
3,2,-1,-2,3,1,-3,1,5,4,2,2
3,2,-2,-2,3,1,-3,1,5,4,2,2
3,2,-2,-2,3,1,-3,0,5,4,2,2
4,2,-3,-3,4,1,-3,0,5,4,2,2
4,2,-3,-3,4,1,-3,0,5,4,2,2
4,2,-2,-3,4,1,-3,0,4,4,2,2
4,2,-2,-3,4,1,-3,0,4,4,2,2
4,2,-2,-3,4,1,-3,0,4,4,2,2
4,2,-2,-3,4,1,-2,0,4,4,2,2
4,2,-2,-3,4,1,-2,0,4,4,2,2
4,2,-2,-3,4,1,-2,0,4,4,3,2
4,2,-2,-3,3,1,-2,0,4,4,3,2
4,2,-2,-3,3,1,-2,0,4,4,3,2
4,2,-2,-3,4,1,-1,0,4,4,3,2
4,2,-1,-3,4,1,-1,0,4,4,3,2
3,2,-1,-2,3,1,-1,0,4,4,4,2
3,2,-1,-2,3,1,-1,0,4,4,4,2
3,2,-1,-2,3,1,-1,0,4,4,4,2
3,2,-1,-3,3,1,0,0,4,4,4,3
4,3,-1,-3,3,1,0,0,4,4,5,3
4,3,-1,-3,2,2,0,0,4,4,5,3
4,3,-1,-3,2,2,0,0,4,4,5,4
4,4,0,-3,2,3,0,0,4,4,5,4
4,4,0,-3,2,3,0,-1,4,5,5,5
4,4,0,-3,2,3,0,-1,4,5,5,5
4,4,1,-4,2,3,0,-1,4,5,5,5
4,4,1,-4,2,3,0,-1,4,5,5,5
4,4,1,-4,2,3,0,-1,4,5,5,5
4,5,0,-4,2,3,0,-1,4,5,6,5
5,5,0,-5,2,3,0,-1,4,5,6,5
4,5,1,-5,2,3,0,-1,4,5,6,5
4,5,0,-5,2,3,0,-1,4,5,6,6
5,5,0,-5,2,3,0,-1,4,5,6,6
5,5,0,-6,3,3,0,-1,4,6,7,6
5,5,0,-6,3,3,0,-1,5,6,7,7
5,5,0,-6,3,3,0,-2,5,6,7,7
6,5,0,-6,3,2,0,-2,5,6,7,7
6,5,-1,-5,3,2,0,-2,4,5,7,7
5,5,-1,-5,3,2,0,-2,4,5,7,8
5,5,0,-4,2,2,0,-2,4,5,7,8
5,5,0,-4,3,2,0,-2,4,5,7,8
5,4,-1,-4,3,2,0,-2,4,5,7,8
5,4,-1,-4,4,1,0,-2,3,5,6,8
5,3,-2,-4,4,1,0,-2,3,5,6,8
6,3,-2,-5,5,1,0,-2,3,5,6,8
6,3,-3,-5,5,1,0,-2,3,4,6,7
6,3,-3,-5,5,1,0,-2,3,4,5,7
6,3,-3,-5,4,1,0,-2,3,4,5,7
6,4,-3,-5,4,1,0,-2,3,4,5,7
6,4,-3,-5,4,1,0,-2,3,5,6,7
5,4,-2,-5,4,2,1,-2,3,5,6,8
5,4,-2,-5,4,2,1,-2,3,5,6,7
5,4,-1,-5,4,2,1,-2,4,5,6,7
5,4,-1,-5,4,2,1,-1,4,5,6,7
6,5,-2,-5,4,2,1,-1,4,5,6,7
6,5,-2,-6,4,3,1,-1,4,5,6,7
6,5,-1,-6,4,3,1,-1,4,5,6,7
6,6,-1,-6,3,3,1,0,4,6,6,7
6,6,-1,-6,3,4,2,0,4,6,6,7
6,6,-1,-6,3,4,2,0,4,6,6,7
6,6,-1,-6,3,4,2,0,4,6,6,7
6,6,-1,-6,3,4,2,0,5,6,6,7
6,6,-1,-6,4,4,2,1,5,6,6,7
7,6,-1,-7,4,3,3,1,5,6,6,6
7,6,-2,-7,5,3,3,1,5,6,5,6
7,6,-2,-7,5,3,3,1,5,6,5,6
7,6,-1,-6,4,3,3,1,5,6,5,6
6,6,-1,-6,4,3,4,1,5,6,5,6
6,6,-1,-6,4,3,4,2,5,6,5,6
7,6,-2,-6,4,2,4,2,5,6,5,6
7,6,-2,-6,4,2,4,2,5,6,5,6
6,6,-1,-6,4,3,5,3,5,6,5,6
5,6,0,-5,3,3,6,4,5,6,5,6
5,6,0,-5,2,3,6,4,5,6,5,6
5,6,0,-5,2,3,7,4,5,6,5,6
5,6,0,-5,2,3,7,5,5,6,5,6
5,6,0,-5,2,3,7,5,5,6,5,5
5,5,0,-5,2,3,7,5,5,6,5,5
5,5,0,-5,2,3,7,5,5,6,5,4
5,5,0,-6,2,3,8,6,5,6,5,4
6,5,0,-6,2,3,8,6,5,6,4,4
6,5,0,-6,3,3,8,6,5,6,4,4
6,5,0,-6,3,3,8,6,6,6,4,4
6,5,-1,-6,3,3,8,6,6,6,4,4
6,6,-1,-6,3,3,8,7,6,7,5,4
7,6,-1,-7,4,3,8,7,7,7,5,5
7,6,-1,-7,4,3,8,7,7,7,5,5
7,6,-1,-7,4,3,8,7,7,7,5,5
7,6,-1,-7,3,3,8,7,7,7,5,5
6,6,-1,-6,3,3,8,7,7,7,5,5
6,6,-1,-6,3,3,8,7,7,7,5,5
6,6,-1,-6,3,3,7,7,7,7,5,5
6,6,-1,-6,3,3,7,7,7,7,5,4
6,6,-1,-7,3,3,7,7,7,7,5,4
6,6,-1,-7,3,3,7,7,7,7,5,4
7,6,-1,-7,3,3,7,7,7,7,5,4
7,6,-1,-7,3,3,6,7,6,7,5,4
7,6,-2,-7,3,3,6,7,6,6,5,3
7,5,-2,-6,3,2,6,6,6,6,5,3
7,6,-2,-6,3,2,6,6,6,7,5,3
6,6,-1,-6,3,2,6,6,6,7,5,3
5,5,-1,-5,3,2,6,6,6,7,5,3
5,5,-1,-5,3,2,6,5,6,6,5,3
4,5,-1,-5,2,2,6,4,6,6,5,3
4,5,-1,-5,2,2,6,4,5,6,5,3
5,4,-2,-5,3,2,6,3,5,5,5,3
5,4,-3,-5,3,1,6,3,4,5,4,3
5,3,-3,-5,4,1,6,2,4,4,4,2
5,3,-4,-4,4,0,6,2,3,4,4,2
5,2,-4,-4,4,0,6,2,3,4,4,2
5,2,-3,-4,4,0,6,2,4,4,4,2
5,2,-3,-3,4,0,6,2,4,4,4,2
5,2,-3,-3,3,0,6,2,4,4,4,2
5,2,-4,-3,3,0,6,2,4,4,3,2
5,2,-4,-3,4,0,7,2,4,4,3,2
5,2,-4,-3,4,0,7,2,4,4,3,2
5,1,-4,-3,4,0,6,2,4,4,3,2
5,1,-4,-3,4,0,6,1,4,4,3,2
5,1,-4,-3,4,0,5,1,4,4,3,2
5,1,-4,-3,4,0,5,0,4,4,4,2
5,1,-4,-3,4,0,4,0,4,4,4,2
5,1,-4,-3,4,0,4,0,4,4,4,3
5,1,-4,-3,4,0,3,0,5,5,4,3
5,2,-3,-4,4,0,3,0,5,5,4,3
5,2,-3,-4,4,0,3,-1,5,5,4,3
5,3,-3,-4,4,0,2,-1,5,5,4,3
5,3,-3,-5,4,0,1,-1,6,5,4,3
6,4,-2,-5,4,1,1,-1,6,6,5,4
6,4,-3,-6,4,1,1,-1,6,6,5,4
7,4,-3,-6,4,1,0,-1,6,6,5,4
8,4,-3,-6,5,1,0,-1,6,6,5,4
8,5,-3,-6,5,1,0,-1,6,7,5,4
7,5,-2,-6,4,2,0,-1,6,7,5,4
7,5,-2,-6,4,2,0,-1,6,7,5,4
7,5,-2,-6,4,2,0,-2,6,7,5,4
7,5,-2,-6,4,2,0,-2,6,7,5,4
7,5,-2,-6,4,2,-1,-3,6,6,5,4
7,5,-1,-6,4,2,-1,-3,6,6,5,4
6,5,-1,-5,4,2,-1,-3,6,6,5,4
6,5,-1,-6,4,2,-1,-3,6,6,5,4
6,5,-1,-6,4,2,-1,-3,6,6,5,4
6,5,-1,-6,4,2,-2,-3,6,6,5,4
7,5,-1,-7,4,2,-2,-3,6,6,5,4
7,6,-1,-7,4,2,-2,-3,6,6,5,4
8,6,-1,-7,4,2,-2,-4,6,6,5,4
8,6,-1,-7,4,2,-3,-4,6,6,5,4
8,7,-1,-8,4,3,-3,-4,6,6,5,4
8,7,-1,-8,4,3,-3,-4,6,6,5,4
8,7,-1,-8,4,3,-3,-4,5,6,5,3
8,7,-1,-7,4,3,-3,-4,5,6,5,3
8,7,-1,-7,4,3,-3,-4,5,6,5,3
8,7,-1,-7,4,3,-3,-4,5,6,5,3
8,7,-1,-7,4,3,-3,-4,5,6,5,2
8,7,-1,-7,4,3,-3,-4,5,6,5,2
8,8,0,-8,4,4,-3,-3,6,6,5,3
8,9,0,-8,4,4,-2,-3,6,7,5,3
8,9,0,-8,4,4,-2,-3,6,7,5,3
8,9,0,-8,4,4,-2,-3,6,7,5,3
9,9,0,-9,4,4,-2,-2,6,7,5,2
9,8,0,-9,4,4,-2,-2,6,6,4,1
9,8,0,-9,4,4,-1,-1,6,6,3,0
9,7,-1,-8,4,3,0,-1,5,4,1,-2
8,6,-2,-8,5,2,0,0,2,1,-2,-5
8,4,-3,-7,5,1,1,0,-1,-3,-7,-9
8,3,-5,-6,6,-1,1,0,-5,-7,-12,-12
8,1,-6,-5,6,-2,2,0,-10,-11,-16,-13
6,1,-6,-4,5,-2,2,0,-13,-14,-18,-14
5,1,-4,-3,4,-1,2,-1,-16,-16,-18,-13
4,2,-2,-3,2,0,2,-3,-17,-17,-17,-10
3,3,0,-3,1,2,2,-4,-17,-16,-16,-7
3,5,2,-4,0,3,1,-6,-15,-14,-14,-2
3,7,4,-5,0,5,0,-6,-11,-10,-11,4
3,9,5,-6,-1,7,-2,-7,-7,-6,-7,10
3,11,6,-7,-1,9,-4,-8,-5,-2,-2,17
5,13,6,-9,0,9,-6,-8,-4,2,3,26
8,14,4,-11,2,9,-7,-7,-4,4,8,35
11,14,3,-13,3,9,-8,-6,-10,3,13,46
13,16,3,-14,4,10,-9,-7,-21,-3,16,58
15,18,3,-17,5,11,-10,-9,-38,-15,17,71
17,22,3,-19,6,13,-12,-13,-60,-33,14,82
19,24,4,-21,7,15,-14,-16,-82,-53,8,90
20,27,6,-23,6,17,-15,-20,-103,-73,0,96
20,31,9,-25,5,20,-17,-24,-123,-93,-9,101
19,34,14,-26,2,25,-20,-31,-141,-112,-20,104
17,37,20,-27,-2,29,-22,-39,-158,-129,-30,107
13,39,26,-26,-6,33,-24,-48,-171,-142,-38,111
10,40,29,-25,-10,35,-25,-56,-180,-152,-46,113
6,39,33,-23,-14,36,-24,-62,-186,-159,-53,114
0,39,38,-20,-19,39,-23,-67,-189,-164,-60,112
-7,38,44,-16,-26,41,-20,-70,-189,-166,-66,106
-14,35,48,-11,-31,41,-16,-71,-189,-168,-74,95
-19,29,47,-5,-33,38,-13,-72,-190,-170,-82,81
-20,21,41,0,-31,31,-9,-71,-188,-170,-90,63
-20,11,32,4,-26,22,-5,-70,-183,-167,-97,42
-18,2,20,8,-19,11,-2,-66,-173,-160,-101,16
-16,-7,8,12,-13,0,2,-58,-158,-148,-101,-11
-15,-15,-2,15,-7,-9,5,-49,-141,-134,-99,-36
-13,-21,-9,17,-2,-16,7,-41,-123,-118,-93,-53
-11,-23,-14,17,1,-19,7,-32,-104,-101,-84,-59
-8,-23,-16,16,4,-20,7,-24,-85,-84,-72,-58
-5,-21,-17,14,6,-20,7,-16,-67,-68,-61,-54
-2,-19,-18,11,8,-19,8,-8,-52,-53,-50,-48
1,-16,-18,8,10,-18,9,-1,-38,-40,-40,-42
4,-14,-19,5,11,-17,10,5,-27,-30,-31,-36
6,-11,-18,2,12,-15,10,10,-18,-21,-24,-30
6,-9,-17,0,12,-13,10,12,-10,-13,-17,-26
7,-6,-15,-1,11,-11,10,14,-3,-7,-11,-21
7,-3,-13,-2,11,-8,9,14,2,-1,-5,-17
8,-2,-11,-2,10,-6,9,14,7,4,0,-14
8,0,-9,-3,9,-4,9,14,11,9,4,-11
8,1,-7,-4,8,-2,9,13,14,12,7,-10
8,2,-5,-5,6,-1,8,13,16,14,9,-9
8,3,-5,-6,6,0,8,13,17,15,10,-7
8,4,-4,-6,6,0,8,13,18,16,11,-6
8,5,-4,-6,6,0,8,13,18,17,12,-6
8,5,-4,-6,6,0,8,13,19,17,12,-5
8,5,-4,-6,6,0,9,13,19,18,13,-5
8,5,-4,-6,6,0,9,14,20,18,13,-5
7,5,-4,-6,5,0,9,14,20,19,14,-5
7,5,-2,-6,4,1,10,14,21,19,14,-4
6,5,-1,-6,3,1,10,14,22,20,15,-4
6,5,-1,-6,3,1,11,15,22,20,15,-4
6,5,-2,-5,3,1,11,15,22,20,15,-4
6,4,-2,-5,4,1,11,15,22,20,15,-4
6,4,-2,-5,4,1,11,16,22,20,15,-4
6,4,-2,-5,4,0,11,16,22,20,15,-4
6,4,-3,-5,4,0,11,16,22,20,15,-4
7,4,-3,-5,5,0,11,16,22,20,15,-5
7,4,-4,-5,5,-1,11,16,22,20,15,-5
8,4,-5,-5,6,-1,11,16,22,20,15,-5
8,3,-6,-5,6,-2,11,16,22,20,15,-5
8,2,-6,-5,7,-2,12,16,22,20,15,-5
7,1,-6,-5,7,-2,12,16,22,20,15,-5
6,1,-6,-4,7,-3,13,17,22,20,15,-5
6,0,-7,-4,7,-3,13,17,22,20,15,-5
7,0,-7,-4,7,-4,13,16,22,20,15,-5
7,0,-8,-4,7,-5,13,16,21,19,14,-6
7,-1,-9,-3,7,-6,13,16,21,19,14,-6
7,-2,-10,-3,8,-6,13,16,21,18,13,-7
7,-2,-11,-3,9,-7,13,16,21,18,13,-7
8,-3,-12,-3,10,-7,12,16,20,18,12,-8
9,-3,-12,-3,11,-8,12,16,20,18,12,-8
9,-4,-13,-3,11,-8,12,15,19,17,12,-9
9,-4,-13,-3,12,-9,11,15,19,17,12,-9
9,-4,-13,-3,11,-9,11,14,19,17,12,-9
9,-4,-13,-3,10,-9,11,15,20,17,12,-9
8,-4,-12,-2,10,-9,11,15,20,17,12,-9
8,-4,-13,-2,10,-9,11,15,20,18,12,-9
7,-4,-13,-2,10,-9,11,15,20,18,12,-9
7,-4,-12,-2,10,-9,11,15,21,19,12,-9
7,-4,-12,-2,10,-8,11,16,21,19,12,-9
7,-4,-12,-2,10,-8,11,16,20,18,12,-10
7,-4,-12,-2,10,-8,11,15,20,18,12,-10
7,-4,-13,-2,10,-9,10,15,21,18,12,-11
8,-4,-13,-2,10,-9,10,15,21,18,12,-11
8,-4,-14,-2,11,-9,9,15,22,19,12,-11
8,-4,-14,-2,11,-9,8,15,22,19,12,-11
9,-4,-14,-2,11,-9,7,15,22,19,12,-11
9,-4,-14,-3,12,-9,7,15,22,19,12,-11
9,-4,-14,-3,12,-9,6,15,22,19,12,-11
9,-4,-14,-3,12,-9,6,14,22,20,12,-11
9,-4,-14,-3,12,-9,6,13,23,20,12,-11
9,-4,-14,-3,11,-9,6,13,23,20,13,-11
9,-4,-14,-3,11,-9,5,13,23,20,13,-12
9,-4,-14,-3,11,-9,5,13,24,21,13,-12
9,-4,-14,-3,11,-9,5,14,24,21,13,-12
9,-4,-14,-3,11,-9,5,14,25,22,13,-12
9,-4,-14,-3,11,-9,5,14,25,22,13,-12
9,-3,-14,-3,11,-9,5,14,26,22,13,-12
9,-3,-13,-3,11,-8,5,14,26,22,13,-12
9,-2,-13,-3,11,-8,5,14,26,23,14,-12
10,-2,-13,-4,11,-8,5,15,27,23,14,-12
10,-2,-13,-4,11,-8,5,15,27,23,14,-12
10,-2,-13,-4,11,-8,5,16,28,24,14,-12
10,-2,-13,-4,11,-8,6,16,28,24,14,-12
10,-2,-13,-4,11,-8,6,16,28,24,14,-12
10,-2,-13,-4,11,-8,6,16,29,25,15,-12
10,-1,-12,-4,11,-7,6,17,30,25,15,-12
10,-1,-12,-4,10,-7,7,17,30,26,15,-12
10,-1,-11,-4,10,-7,7,18,31,27,15,-11
9,-1,-11,-4,10,-7,7,19,31,27,15,-11
9,-1,-11,-4,10,-6,7,19,32,28,15,-11
9,0,-11,-4,9,-6,7,19,32,28,16,-11
9,0,-11,-5,9,-5,7,20,33,29,16,-11
9,1,-10,-5,9,-5,7,20,33,29,16,-11
9,1,-10,-5,9,-4,7,20,34,29,16,-11
9,2,-9,-5,8,-3,7,20,35,30,16,-11
9,2,-7,-5,8,-3,7,21,35,30,16,-11
8,2,-6,-5,7,-2,7,21,36,31,16,-11
8,3,-5,-5,7,-2,7,21,37,31,16,-11
8,3,-4,-5,6,-1,7,21,37,32,16,-11
8,4,-4,-6,6,0,8,22,38,33,17,-11
8,5,-3,-6,5,0,8,22,38,33,17,-11
7,5,-3,-6,5,1,8,22,39,33,17,-11
7,6,-2,-7,5,2,7,22,39,33,17,-11
8,7,-1,-8,5,3,7,23,40,34,17,-11
8,8,0,-8,4,3,8,24,40,34,17,-11
8,8,0,-9,4,4,8,24,40,34,16,-11
8,9,0,-9,4,4,8,24,40,33,16,-11
8,10,0,-10,4,4,8,24,40,33,16,-11
8,10,1,-10,4,5,8,24,40,33,15,-11
8,11,1,-10,4,5,8,24,40,33,15,-11
9,11,1,-10,4,6,8,24,40,32,14,-11
9,11,2,-10,3,6,8,24,39,32,14,-11
9,12,3,-10,3,7,8,24,39,32,14,-11
9,13,4,-11,3,8,8,24,38,32,13,-11
8,14,4,-11,2,9,8,24,38,31,13,-11
8,14,5,-11,1,9,8,24,37,31,13,-11
7,14,5,-11,1,10,8,24,37,31,13,-10
7,14,6,-11,0,10,8,24,37,30,13,-10
6,14,7,-11,0,11,8,24,37,30,12,-10
6,15,8,-11,-1,11,8,25,36,29,12,-9
5,15,9,-11,-1,12,8,25,35,29,11,-9
5,16,9,-11,-1,12,8,25,34,28,11,-8
5,16,10,-11,-1,12,8,24,33,27,10,-8
5,17,10,-11,-2,12,8,23,32,26,10,-8
5,17,11,-11,-2,13,8,23,32,26,9,-7
5,17,11,-12,-2,13,8,22,31,25,9,-6
5,17,11,-12,-2,13,7,22,30,24,9,-6
5,17,11,-12,-2,14,7,21,29,23,9,-6
6,18,11,-12,-2,14,7,21,28,22,8,-5
6,18,11,-12,-2,14,6,21,27,22,8,-5
6,18,11,-12,-2,14,6,20,27,21,8,-4
6,19,12,-12,-3,14,5,19,26,21,8,-3
6,19,12,-12,-3,14,5,18,25,21,8,-3
6,19,12,-13,-2,14,4,17,24,20,8,-2
7,19,12,-13,-2,15,4,16,23,18,7,-2
7,19,12,-14,-2,15,4,16,22,17,6,-2
7,19,12,-14,-2,15,4,15,21,17,6,-1
6,19,12,-13,-2,15,4,14,20,17,6,0
5,19,12,-13,-3,15,4,13,20,17,7,1
5,19,13,-12,-3,15,4,12,19,17,7,2
4,18,12,-12,-3,14,4,11,19,16,7,2
4,18,12,-11,-3,14,4,11,18,16,7,3
4,18,12,-11,-3,14,4,10,17,15,7,3
4,18,12,-11,-4,14,3,9,17,15,7,4
4,18,12,-11,-4,14,3,9,16,14,7,5
5,18,12,-11,-3,14,2,8,15,14,7,6
5,18,11,-12,-3,14,1,7,15,13,7,6
5,17,11,-11,-3,14,0,6,14,12,7,6
4,17,11,-11,-3,13,0,5,13,11,6,6
4,16,11,-10,-2,12,0,5,12,10,6,6
5,15,10,-10,-2,11,0,4,11,9,6,6
5,14,9,-10,-1,10,0,4,11,8,6,6
5,13,8,-10,-1,10,0,3,10,8,6,6
5,13,7,-9,-1,9,0,3,10,8,6,6
5,12,6,-9,0,9,0,2,9,8,5,6
5,12,6,-8,0,8,0,2,9,7,5,5
6,11,5,-9,0,8,0,1,8,7,4,5
7,11,4,-9,1,7,0,1,8,6,4,5
7,11,3,-9,1,7,0,1,7,6,4,5
6,10,3,-9,2,6,0,1,7,6,4,5
7,10,3,-9,2,6,0,1,6,6,4,5
7,10,3,-9,2,6,0,1,6,6,5,5
6,10,3,-8,2,6,0,1,5,5,4,4
6,10,2,-8,2,5,0,1,5,5,4,4
6,9,1,-8,3,5,0,1,4,4,3,4
6,9,1,-7,3,4,1,1,4,4,3,4
5,8,2,-7,2,4,1,2,4,4,3,4
5,8,2,-6,1,4,2,2,4,4,3,4
5,7,1,-6,2,4,2,2,4,4,3,3
5,7,1,-6,2,4,2,2,4,3,3,3
5,7,1,-6,2,4,2,2,4,3,3,3
5,6,1,-6,2,3,3,2,4,3,3,3
5,6,0,-6,2,3,3,2,4,3,3,3
5,5,-1,-6,3,2,3,2,4,3,3,3
6,4,-2,-6,3,1,3,3,4,3,3,3
6,3,-3,-6,4,0,3,3,4,3,3,3
6,3,-3,-5,5,-1,3,3,4,3,3,3
6,2,-4,-5,5,-1,3,3,4,3,3,3
7,2,-5,-5,6,-2,4,2,4,3,4,3
7,2,-5,-5,7,-2,4,2,4,4,4,3
7,1,-5,-5,7,-2,4,1,4,4,4,3
7,1,-6,-5,7,-2,4,1,4,4,4,3
7,1,-6,-4,7,-3,4,1,4,4,4,2
6,0,-6,-4,6,-3,3,1,4,4,4,2
6,0,-6,-3,6,-3,3,0,4,4,4,1
6,0,-6,-3,6,-3,3,0,4,4,4,1
5,0,-6,-3,6,-3,4,1,4,4,4,1
5,0,-6,-3,6,-3,4,1,4,4,4,0
5,0,-6,-3,6,-4,4,1,4,4,3,0
5,0,-6,-3,6,-4,4,1,4,4,3,0
5,0,-6,-3,6,-3,4,2,4,4,3,0
6,1,-6,-4,6,-3,5,2,5,4,3,0
6,1,-6,-4,6,-3,4,2,5,4,3,0
5,0,-6,-3,6,-3,4,2,5,4,3,0
5,0,-6,-3,5,-3,4,2,4,5,3,0
5,0,-6,-3,6,-3,4,2,4,5,4,0
6,0,-6,-3,6,-3,4,2,5,5,4,0
6,0,-6,-3,6,-3,4,2,5,5,5,0
6,0,-6,-3,6,-3,4,2,5,6,5,0
6,1,-6,-3,6,-3,4,2,6,6,6,0
6,1,-6,-4,6,-3,4,3,6,6,6,0
7,1,-6,-4,6,-3,4,3,6,6,6,0
7,1,-6,-4,6,-3,4,4,6,6,6,0
7,1,-6,-4,6,-3,4,4,6,6,6,0
7,1,-6,-4,6,-3,4,4,6,7,6,0
7,1,-6,-4,6,-3,4,3,6,7,6,0
7,1,-6,-4,6,-3,4,3,7,7,7,1
7,1,-6,-4,6,-2,4,3,7,8,7,1
6,1,-5,-4,6,-1,4,4,8,8,8,2
6,2,-4,-4,5,-1,5,4,8,9,8,3
5,2,-3,-4,5,0,5,4,8,9,8,4
5,2,-2,-4,4,0,5,5,9,9,9,4
5,2,-2,-4,4,0,5,5,9,10,9,4
5,2,-2,-4,4,0,5,6,9,10,10,4
5,3,-2,-4,4,1,6,6,9,10,10,4
5,3,-1,-4,4,1,6,6,9,10,9,4
4,3,-1,-4,3,1,7,6,9,9,9,4
4,3,0,-4,3,1,7,6,9,9,8,4
5,3,0,-5,3,1,7,6,9,9,8,4
5,4,0,-5,3,2,8,6,10,9,9,5
5,4,0,-5,3,2,8,6,10,10,9,5
5,4,0,-5,3,2,8,6,10,10,9,6
5,5,0,-5,3,2,8,6,10,10,9,6
5,5,0,-6,3,2,8,6,11,11,10,7
5,6,0,-6,3,3,8,6,11,11,10,7
5,6,0,-6,3,3,8,6,12,11,10,7
6,6,0,-7,3,3,8,6,12,11,10,7
6,7,0,-7,3,3,8,6,12,11,10,7
7,7,0,-7,3,3,7,6,11,10,10,7
7,6,0,-7,4,3,7,6,10,9,9,6
7,6,0,-7,4,2,7,6,10,9,9,6
7,7,0,-7,4,3,7,6,10,9,9,6
7,7,0,-7,4,3,7,7,10,10,9,6
7,7,0,-7,4,4,7,7,10,10,9,6
6,7,0,-7,3,4,7,6,11,10,9,6
6,7,1,-7,3,4,7,6,11,11,10,6
5,7,2,-7,2,5,8,6,11,11,10,7
5,7,3,-7,1,5,8,6,11,11,10,7
4,8,4,-7,0,6,8,6,11,11,10,7
4,8,4,-7,0,6,8,5,11,11,10,7
4,9,4,-7,0,6,7,6,11,11,10,7
4,9,4,-7,0,6,7,6,11,11,10,7
4,9,3,-7,1,6,7,6,11,11,10,7
5,9,3,-7,1,5,7,6,11,11,10,7
5,8,2,-7,1,5,7,6,11,11,10,7
5,8,3,-7,1,5,7,6,11,11,10,7
5,9,3,-7,1,6,6,6,11,11,10,7
6,9,3,-8,1,6,6,6,11,10,9,6
6,8,2,-8,1,5,6,7,10,9,8,5
6,8,2,-8,2,4,7,8,10,9,6,3
6,7,1,-8,2,4,7,8,9,8,4,1
6,7,0,-7,3,3,7,9,8,6,2,-1
6,6,-1,-7,4,1,8,9,5,3,-1,-4
6,4,-3,-6,5,0,8,10,1,-1,-5,-6
6,3,-4,-5,5,-1,8,9,-3,-5,-9,-8
6,2,-4,-4,5,-1,8,8,-7,-9,-12,-9
4,2,-2,-4,3,-1,7,7,-11,-12,-14,-9
3,2,-1,-4,2,0,7,5,-14,-14,-15,-8
2,2,0,-3,1,0,6,3,-15,-15,-16,-5
1,3,1,-3,0,1,5,1,-15,-14,-15,-2
1,4,3,-3,0,3,4,0,-12,-12,-12,3
1,6,4,-4,-1,5,2,-2,-8,-7,-7,10
2,8,5,-5,-1,6,1,-3,-5,-3,-3,18
3,9,5,-6,-1,7,-1,-4,-3,1,1,26
5,9,3,-7,1,6,-3,-4,-1,4,7,34
8,10,1,-9,3,5,-4,-3,-3,6,11,43
10,11,0,-10,4,5,-6,-2,-10,2,14,54
12,12,0,-12,6,6,-8,-3,-23,-6,16,66
15,15,0,-15,8,7,-11,-6,-41,-19,15,77
17,17,0,-18,9,8,-14,-10,-63,-37,11,87
19,20,0,-20,9,10,-17,-15,-85,-58,4,95
20,22,1,-21,9,12,-19,-20,-106,-78,-5,101
20,25,3,-23,8,14,-22,-26,-125,-99,-15,105
20,28,8,-24,6,18,-25,-33,-143,-117,-26,108
18,31,13,-25,2,22,-27,-42,-159,-132,-36,111
14,33,19,-24,-2,26,-29,-51,-171,-144,-45,112
9,32,23,-21,-7,27,-30,-59,-181,-154,-54,112
4,31,27,-18,-11,29,-29,-67,-188,-163,-62,108
-2,30,32,-15,-17,31,-27,-73,-192,-169,-70,101
-8,29,36,-10,-23,32,-24,-77,-194,-173,-79,91
-15,24,39,-5,-27,31,-20,-79,-196,-176,-88,76
-19,18,38,0,-28,27,-16,-80,-196,-179,-97,59
-21,11,33,5,-26,21,-12,-79,-194,-178,-106,38
-22,2,25,9,-23,13,-8,-77,-187,-174,-113,13
-21,-6,15,13,-18,4,-4,-73,-176,-165,-115,-13
-19,-15,4,16,-12,-5,0,-65,-161,-153,-114,-38
-17,-21,-5,18,-7,-13,2,-56,-144,-138,-109,-57
-16,-25,-10,20,-3,-18,4,-47,-126,-122,-101,-65
-14,-27,-14,20,0,-21,5,-38,-106,-104,-90,-66
-11,-27,-16,19,2,-22,6,-30,-87,-86,-77,-63
-8,-25,-17,17,4,-21,7,-23,-70,-70,-64,-57
-5,-23,-17,14,5,-20,8,-15,-55,-57,-54,-50
-2,-20,-18,11,7,-19,9,-8,-42,-45,-44,-44
0,-18,-19,9,9,-19,10,-2,-31,-35,-36,-38
2,-16,-19,7,10,-18,10,2,-22,-26,-29,-33
3,-14,-18,5,10,-16,11,5,-14,-18,-21,-27
3,-12,-16,4,10,-14,11,7,-8,-11,-15,-22
4,-9,-14,2,9,-12,11,7,-2,-5,-9,-18
5,-7,-13,1,9,-10,11,7,2,0,-4,-14
5,-6,-12,0,9,-9,11,7,6,4,0,-12
5,-5,-11,0,8,-8,11,7,9,7,3,-10
5,-4,-10,-1,7,-7,10,7,11,9,5,-9
5,-4,-9,-1,7,-7,10,7,13,10,6,-8
5,-4,-9,-1,6,-7,9,8,14,11,7,-8
5,-4,-9,-1,6,-7,9,9,14,12,7,-7
5,-3,-9,-1,7,-6,10,9,15,12,8,-7
5,-3,-8,-1,7,-6,10,9,15,13,8,-7
5,-3,-8,-1,6,-5,10,9,16,13,9,-7
5,-3,-7,-1,6,-5,10,9,16,14,9,-7
4,-3,-7,-1,6,-5,10,9,16,14,10,-6
4,-3,-7,-1,6,-5,10,10,17,14,10,-6
4,-3,-7,-2,6,-5,10,10,17,15,10,-5
4,-3,-8,-1,7,-6,10,11,17,15,10,-5
4,-4,-9,0,7,-6,10,11,17,15,10,-5
4,-5,-9,0,7,-6,10,11,17,15,10,-5
3,-5,-9,1,7,-6,11,12,17,15,10,-5
3,-6,-9,1,7,-7,11,12,17,15,10,-5
3,-6,-10,1,7,-8,11,12,18,16,11,-5
4,-6,-10,0,7,-8,11,12,18,16,11,-5
4,-5,-10,0,7,-8,11,12,18,16,11,-5
5,-5,-11,0,7,-8,11,12,18,16,11,-5
5,-5,-11,0,7,-8,11,12,18,16,11,-5
5,-5,-11,0,7,-8,10,12,19,17,11,-5
5,-5,-10,0,7,-8,10,12,19,17,11,-5
4,-5,-9,0,7,-7,10,12,19,17,11,-5
4,-4,-8,0,6,-7,11,13,19,17,12,-5
5,-4,-8,-1,6,-6,11,12,20,17,12,-5
5,-3,-9,-1,7,-6,11,12,20,17,12,-6
5,-4,-9,-1,7,-6,10,13,20,17,12,-6
5,-4,-9,-1,6,-6,10,13,20,17,12,-6
4,-4,-9,0,6,-6,10,13,20,18,12,-6
4,-5,-9,0,6,-6,10,13,21,18,12,-6
4,-5,-9,0,7,-7,9,13,21,18,12,-7
4,-5,-9,0,7,-7,9,13,21,18,12,-7
4,-5,-8,0,6,-7,9,13,21,18,12,-7
4,-4,-8,0,6,-6,9,13,21,18,12,-7
5,-4,-8,-1,6,-6,9,14,21,18,13,-7
5,-3,-8,-1,6,-6,9,14,21,19,12,-7
5,-3,-7,-1,6,-5,9,15,22,19,12,-7
5,-2,-7,-1,5,-5,9,15,22,19,13,-6
4,-2,-6,-1,5,-5,9,16,23,20,13,-6
4,-3,-6,-1,5,-5,9,16,23,21,14,-6
4,-2,-6,-1,5,-4,9,16,24,21,14,-6
4,-2,-5,-1,5,-3,9,16,24,22,14,-6
3,-1,-4,-1,4,-3,9,16,24,22,15,-6
3,-1,-4,-2,4,-3,9,16,25,22,15,-6
3,-1,-4,-2,4,-3,9,16,25,23,16,-6
3,-1,-4,-2,4,-3,9,15,25,23,15,-6
3,-1,-4,-1,4,-3,8,14,25,22,15,-7
4,0,-4,-2,4,-3,9,15,25,23,15,-7
4,0,-4,-2,4,-3,9,16,26,24,16,-6
4,-1,-4,-2,4,-3,9,17,27,24,16,-6
4,-1,-5,-1,4,-4,9,18,28,25,16,-7
4,-1,-5,-2,5,-4,8,18,28,25,16,-7
5,-1,-5,-2,5,-3,8,18,29,26,16,-7
5,0,-5,-3,5,-2,7,18,30,26,17,-7
5,0,-5,-3,5,-2,6,18,31,27,17,-6
5,0,-5,-3,5,-2,6,18,32,28,18,-5
5,0,-5,-3,5,-2,6,18,33,29,18,-5
5,0,-5,-3,5,-2,6,17,33,29,19,-4
5,0,-5,-3,5,-2,5,16,34,30,19,-4
5,0,-5,-3,5,-2,4,15,34,30,20,-5
6,0,-5,-3,5,-2,4,15,34,31,20,-5
6,0,-6,-3,6,-3,3,15,35,31,20,-5
6,0,-6,-3,6,-3,3,15,35,30,19,-6
6,0,-7,-3,7,-3,2,15,36,31,19,-6
7,0,-7,-3,7,-3,2,16,36,31,19,-6
7,0,-7,-3,8,-3,3,16,36,31,19,-6
8,0,-7,-4,8,-3,3,16,36,32,19,-6
8,0,-7,-4,8,-3,3,16,37,32,19,-6
7,0,-7,-3,7,-3,3,16,37,32,19,-6
6,0,-6,-3,7,-3,3,17,37,32,19,-6
6,0,-6,-3,7,-3,3,17,38,32,19,-6
6,0,-6,-3,7,-3,3,17,38,33,19,-7
6,0,-6,-3,7,-3,3,17,38,34,19,-7
6,1,-5,-4,7,-2,2,16,38,34,18,-8
6,1,-5,-4,7,-2,2,16,38,33,17,-9
6,2,-4,-4,6,-1,2,15,38,32,17,-9
6,2,-3,-4,5,0,2,15,38,32,17,-10
6,3,-2,-4,5,0,2,16,38,33,17,-10
6,3,-2,-4,4,0,2,16,39,33,17,-10
6,3,-2,-4,4,0,2,16,39,34,17,-9
5,3,-2,-4,4,1,2,16,40,34,18,-9
5,4,-2,-4,4,1,2,16,40,34,18,-8
5,4,-1,-4,4,1,2,15,40,34,17,-8
5,4,-1,-4,4,1,2,14,40,33,17,-8
5,4,-1,-4,4,1,2,14,40,33,16,-8
5,4,0,-5,4,2,2,14,40,33,16,-8
6,5,0,-5,4,2,2,14,40,33,15,-7
6,6,0,-6,4,3,2,14,39,33,15,-7
6,7,0,-6,4,3,2,14,38,32,15,-8
6,7,0,-6,4,4,2,14,38,31,14,-8
6,7,0,-6,4,4,2,14,37,30,13,-8
6,7,1,-7,3,5,2,14,37,30,13,-8
6,7,1,-6,2,5,2,14,37,30,13,-8
5,7,2,-6,2,5,2,14,36,30,13,-8
5,7,1,-6,2,4,2,14,35,29,12,-8
6,7,1,-6,2,4,2,13,34,28,11,-9
5,7,2,-6,2,4,2,14,34,27,10,-8
5,7,3,-6,1,5,2,14,33,27,10,-8
4,8,4,-6,1,6,2,14,33,27,10,-7
4,8,5,-6,0,7,2,14,32,27,10,-7
4,8,5,-6,0,7,2,14,31,26,9,-6
3,8,6,-6,0,7,3,14,31,26,9,-6
3,9,6,-6,-1,8,3,15,31,25,9,-5
2,9,7,-6,-1,8,3,15,30,25,9,-5
2,9,7,-6,-1,8,3,15,29,24,9,-5
2,9,7,-6,-1,8,4,14,28,23,8,-4
2,9,7,-6,-1,8,4,14,27,22,8,-3
3,9,7,-6,-1,8,4,13,26,21,7,-3
3,9,6,-6,0,8,4,13,25,20,7,-3
4,9,6,-6,0,7,4,13,25,20,7,-2
4,9,6,-6,0,7,4,13,24,19,7,-2
3,9,6,-6,-1,7,4,13,24,19,7,-1
2,8,6,-5,-1,7,4,13,23,19,7,-1
2,8,6,-5,-1,7,4,13,22,18,7,0
2,8,6,-5,-1,7,4,13,21,17,7,0
3,8,5,-5,-1,7,4,13,20,16,6,1
3,8,5,-5,0,6,4,13,19,15,6,1
3,7,4,-4,0,5,4,13,19,14,6,1
3,6,3,-4,0,5,4,13,18,14,6,1
3,6,2,-5,1,4,4,13,18,14,6,2
4,7,2,-5,2,4,4,13,17,14,7,3
4,7,2,-5,2,4,4,13,17,14,7,4
3,6,2,-4,1,4,4,13,16,13,7,4
3,5,2,-4,1,4,4,12,15,13,6,4
3,5,2,-4,1,4,4,12,14,12,6,4
3,4,2,-4,1,4,4,12,14,12,6,4
3,4,1,-4,1,3,4,12,14,10,6,4
3,4,0,-4,2,2,5,12,13,9,5,3
4,3,0,-3,2,1,5,11,12,8,4,3
4,3,-1,-3,2,0,5,11,11,7,4,3
4,2,-1,-3,2,0,6,11,10,7,4,3
4,2,-1,-3,2,0,6,11,9,7,4,3
4,2,-1,-3,2,0,6,10,9,7,4,3
3,2,-1,-3,2,0,6,10,9,7,4,3
3,2,-1,-3,2,0,6,10,9,7,4,3
3,2,-1,-3,2,0,6,10,9,7,4,4
3,2,-1,-3,2,0,6,9,9,7,4,4
3,2,-1,-2,2,0,5,9,8,6,4,3
3,2,-1,-2,2,0,5,9,8,5,4,3
3,2,-1,-2,2,0,4,9,7,5,4,3
3,2,-1,-3,3,0,4,8,7,5,4,3
3,1,-1,-2,3,0,4,8,7,5,4,3
3,1,-1,-2,3,0,4,8,7,5,4,4
3,1,-1,-2,3,0,4,7,7,5,5,4
3,1,-1,-2,3,0,3,7,7,5,5,4
3,1,-1,-2,3,0,3,6,7,5,5,4
3,1,-1,-2,3,0,3,6,6,5,5,4
3,1,-1,-2,2,0,3,6,6,5,5,4
3,2,0,-2,2,0,3,6,6,5,5,4
3,3,1,-3,1,1,3,6,6,5,6,4
3,4,2,-3,1,2,3,6,6,5,6,4
3,4,2,-3,0,3,3,6,6,5,6,4
3,4,2,-3,0,3,3,6,6,5,6,4
3,5,2,-3,0,3,2,5,6,5,6,4
3,5,2,-3,0,3,2,5,6,5,6,4
3,5,1,-3,1,2,2,5,6,5,6,5
3,4,1,-3,1,2,2,5,6,5,6,5
3,3,0,-3,2,1,2,5,6,4,6,5
3,3,0,-2,2,1,2,4,6,4,6,5
2,2,0,-2,2,0,2,4,6,4,6,6
2,2,0,-2,2,0,1,4,5,4,6,6
3,2,-1,-2,3,0,0,3,5,4,6,6
4,2,-2,-3,3,0,0,3,4,4,6,6
4,2,-2,-3,3,0,0,3,4,4,6,6
4,2,-2,-3,3,0,-1,3,4,4,6,6
4,2,-2,-3,3,0,-1,2,4,4,6,6
4,2,-2,-3,3,0,-1,2,4,4,6,6
4,2,-2,-3,4,0,-1,2,4,4,6,6
4,2,-2,-3,3,0,-1,2,4,4,6,6
4,2,-2,-3,3,0,-2,2,4,4,6,6
