leadI,leadII,leadIII,leadaVR,leadaVL,leadaVF,leadV1,leadV2,leadV3,leadV4,leadV5,leadV6
0,-1,-1,1,0,-1,0,-1,-2,-1,-2,-2
-1,-4,-2,2,0,-2,-1,-3,-6,-4,-4,-5
-1,-5,-3,3,0,-3,-1,-4,-8,-5,-6,-7
0,-6,-4,3,1,-4,-1,-5,-10,-5,-7,-8
-1,-7,-5,4,1,-5,-1,-6,-10,-6,-7,-9
-3,-8,-4,5,0,-5,-1,-6,-11,-6,-8,-9
-4,-8,-4,6,0,-5,-1,-6,-11,-6,-8,-10
-5,-9,-4,6,0,-5,-1,-6,-12,-6,-8,-10
-4,-9,-4,6,0,-5,-1,-6,-12,-6,-9,-9
-4,-9,-4,5,0,-5,-1,-6,-12,-6,-9,-9
-4,-9,-4,5,0,-5,0,-6,-12,-6,-9,-9
-4,-9,-4,6,0,-6,0,-6,-12,-6,-9,-9
-4,-9,-4,6,0,-6,0,-6,-12,-6,-9,-9
-4,-9,-4,6,0,-6,1,-6,-12,-6,-9,-9
-6,-9,-3,7,-1,-6,1,-6,-12,-6,-9,-9
-7,-9,-3,8,-2,-5,1,-6,-12,-6,-9,-9
-7,-9,-3,7,-2,-5,1,-5,-12,-6,-9,-9
-6,-9,-3,7,-2,-5,1,-5,-12,-6,-9,-10
-6,-10,-3,7,-2,-5,1,-5,-12,-6,-9,-11
-6,-10,-3,7,-2,-5,1,-5,-12,-5,-9,-12
-5,-9,-3,7,-2,-5,1,-5,-12,-5,-9,-12
-5,-9,-3,7,-1,-5,1,-5,-12,-5,-9,-11
-6,-9,-3,7,-2,-5,1,-5,-12,-5,-9,-11
-7,-9,-3,8,-2,-5,1,-5,-12,-5,-9,-11
-6,-9,-3,8,-2,-5,1,-5,-12,-5,-9,-11
-6,-9,-3,8,-2,-5,1,-5,-12,-6,-9,-11
-5,-9,-4,7,-1,-5,1,-5,-12,-6,-9,-11
-5,-10,-4,7,-1,-6,1,-5,-12,-6,-9,-11
-5,-11,-4,8,-1,-7,1,-5,-12,-6,-10,-10
-5,-12,-6,8,0,-8,1,-4,-13,-7,-11,-11
-4,-13,-8,8,1,-9,1,-3,-13,-8,-12,-12
-3,-13,-10,8,3,-10,2,-1,-12,-8,-13,-13
-3,-14,-11,8,4,-11,4,4,-10,-8,-14,-14
-2,-14,-12,8,4,-12,6,12,-5,-7,-14,-14
-1,-13,-11,7,4,-11,8,25,2,-4,-13,-14
0,-10,-9,4,4,-8,11,40,13,1,-9,-11
3,-5,-7,0,5,-5,12,55,26,10,-2,-6
9,2,-6,-6,7,0,12,70,42,23,6,0
16,12,-4,-14,9,5,11,81,59,39,18,8
23,22,-2,-23,12,11,9,82,72,56,31,17
32,33,0,-33,15,18,5,73,83,73,45,27
41,44,2,-43,19,25,0,56,90,91,61,39
50,58,7,-54,21,34,-7,32,97,111,79,52
60,74,14,-67,22,45,-15,5,103,133,99,68
69,90,22,-79,23,57,-23,-22,106,154,119,84
77,106,29,-91,24,69,-32,-51,106,170,136,100
84,120,36,-102,24,79,-40,-77,101,180,150,112
88,129,41,-108,23,86,-49,-104,91,182,157,120
87,131,43,-109,22,88,-56,-130,74,175,156,122
82,125,43,-103,19,85,-60,-151,52,157,146,116
74,112,39,-93,17,77,-65,-168,27,131,128,104
65,98,34,-81,15,68,-69,-181,-1,100,106,89
53,85,33,-69,10,60,-73,-190,-32,67,84,75
41,73,33,-57,4,54,-73,-194,-63,35,63,61
29,62,33,-45,-2,49,-71,-191,-85,8,45,48
19,52,32,-35,-6,43,-66,-178,-92,-8,30,36
12,42,29,-27,-9,36,-60,-159,-90,-16,18,26
7,33,26,-20,-10,31,-54,-139,-83,-20,9,17
4,26,23,-15,-10,26,-48,-119,-74,-21,3,10
2,21,20,-12,-10,22,-42,-100,-65,-21,-1,6
1,16,17,-9,-9,18,-35,-84,-56,-20,-3,3
0,13,15,-7,-8,15,-28,-70,-48,-18,-4,1
-1,10,12,-5,-8,13,-22,-58,-41,-17,-6,0
-3,8,11,-3,-7,10,-16,-48,-35,-15,-7,-2
-4,5,9,0,-7,8,-12,-38,-30,-13,-7,-3
-5,2,7,1,-7,6,-8,-29,-25,-11,-8,-5
-5,0,5,2,-6,4,-6,-21,-21,-10,-8,-6
-5,-1,4,3,-5,2,-3,-14,-17,-9,-8,-6
-4,-2,3,3,-4,1,-1,-8,-14,-9,-8,-6
-4,-2,2,3,-3,1,0,-4,-12,-8,-8,-5
-4,-3,1,3,-3,0,1,-2,-10,-8,-8,-5
-4,-3,0,3,-3,0,2,0,-8,-8,-8,-6
-4,-4,0,4,-2,0,3,1,-7,-7,-8,-6
-4,-4,0,4,-2,-1,3,3,-6,-7,-8,-6
-4,-5,0,4,-2,-1,4,5,-6,-7,-8,-6
-4,-5,0,5,-2,-1,4,7,-5,-6,-8,-7
-5,-6,-1,5,-2,-2,5,8,-4,-6,-8,-7
-5,-7,-1,6,-2,-2,5,10,-3,-6,-8,-8
-5,-7,-2,6,-2,-3,6,11,-2,-5,-8,-8
-5,-8,-2,6,-1,-3,6,11,-1,-5,-8,-8
-5,-8,-2,6,-1,-4,7,12,0,-5,-8,-9
-5,-8,-2,6,-1,-4,7,13,0,-5,-8,-9
-5,-8,-2,6,-1,-4,7,14,0,-5,-8,-9
-5,-8,-2,6,-1,-4,7,15,0,-4,-8,-9
-5,-8,-2,6,-1,-4,8,17,1,-4,-8,-8
-5,-8,-3,6,-1,-4,8,18,1,-4,-8,-8
-4,-8,-3,6,-1,-4,8,18,2,-4,-8,-8
-4,-8,-3,6,-1,-4,8,19,3,-4,-8,-8
-4,-8,-3,6,-1,-4,8,19,3,-4,-8,-9
-4,-8,-3,6,-1,-4,8,19,4,-4,-8,-9
-4,-8,-3,6,-1,-4,8,20,4,-4,-8,-9
-4,-8,-3,6,-1,-4,9,21,4,-4,-8,-9
-4,-7,-3,6,0,-4,9,22,5,-4,-7,-9
-4,-7,-3,5,0,-4,9,23,5,-4,-7,-9
-4,-7,-3,5,0,-4,9,24,6,-3,-7,-9
-4,-7,-3,5,0,-4,10,24,7,-3,-7,-9
-4,-7,-3,5,0,-4,10,24,8,-2,-7,-9
-3,-7,-3,5,0,-4,10,25,9,-2,-7,-9
-3,-7,-3,5,0,-4,10,25,9,-2,-7,-8
-3,-7,-3,5,0,-4,10,26,9,-2,-7,-8
-3,-7,-2,5,-1,-4,10,27,10,-1,-6,-9
-3,-7,-2,5,-1,-4,10,28,10,-1,-6,-9
-2,-7,-3,4,0,-4,10,29,10,-1,-6,-9
-2,-7,-3,5,0,-4,10,30,11,-1,-6,-10
-3,-8,-3,5,0,-4,10,30,11,-1,-6,-10
-3,-8,-3,6,0,-5,10,30,12,-1,-6,-10
-3,-8,-3,5,0,-5,10,31,12,-1,-6,-10
-2,-7,-3,4,0,-4,10,32,13,-1,-5,-9
-1,-6,-3,3,0,-4,10,33,13,0,-5,-8
0,-5,-3,3,1,-4,11,34,14,0,-4,-8
0,-5,-3,2,1,-4,11,35,14,0,-4,-8
1,-4,-3,2,1,-3,11,36,15,1,-4,-7
1,-4,-3,2,1,-3,12,37,16,2,-3,-7
1,-4,-3,2,1,-3,12,38,17,2,-3,-7
1,-4,-3,1,2,-3,12,39,18,2,-2,-8
1,-3,-3,1,2,-3,12,40,19,2,-2,-7
0,-3,-3,1,1,-3,12,41,19,3,-2,-7
0,-4,-2,1,1,-3,12,42,20,3,-2,-6
0,-4,-2,1,0,-3,12,44,20,3,-2,-6
0,-4,-2,1,0,-3,12,45,21,4,-2,-6
0,-4,-2,1,0,-3,13,46,22,4,-1,-7
0,-4,-2,1,0,-2,13,47,23,5,-1,-7
0,-4,-1,1,0,-2,13,48,24,5,-1,-7
0,-4,-1,1,0,-2,13,49,25,6,-1,-7
0,-3,-1,1,0,-1,13,50,26,7,0,-7
1,-2,-1,0,0,-1,14,52,27,7,0,-7
1,-2,-1,0,0,-1,14,54,28,8,0,-6
1,-1,-1,0,0,0,14,56,29,8,0,-6
1,-1,0,0,0,0,15,57,31,9,1,-5
1,0,0,-1,0,0,15,59,32,9,1,-4
2,0,0,-1,1,0,14,60,33,9,1,-4
3,0,-1,-2,1,0,14,61,34,10,1,-4
3,0,-1,-2,1,0,14,63,35,10,2,-4
3,0,-1,-2,1,0,14,65,37,10,2,-3
3,0,-1,-2,1,0,14,67,38,11,2,-3
3,0,-1,-2,1,0,15,70,40,12,2,-3
3,1,0,-3,1,1,15,72,42,13,3,-2
4,2,0,-4,2,2,16,74,44,14,3,-1
5,4,0,-5,2,3,16,77,46,16,4,-1
5,4,0,-5,2,3,17,79,48,17,5,-1
5,4,0,-5,2,3,17,81,50,18,6,-1
6,5,0,-5,2,3,18,84,52,19,6,-1
6,5,0,-6,3,3,18,87,54,20,7,-1
7,6,0,-7,3,4,18,90,56,21,7,0
7,6,1,-7,3,4,18,92,58,22,8,0
7,7,1,-8,2,5,18,95,61,24,9,0
8,8,2,-8,2,6,18,98,63,25,10,1
8,9,3,-9,2,7,19,101,66,27,11,3
8,10,3,-9,2,8,19,103,68,28,12,4
8,11,4,-10,2,9,20,106,70,30,13,5
8,12,5,-11,2,10,20,109,72,31,14,6
9,13,5,-12,2,10,20,112,75,33,15,7
10,14,5,-13,2,11,21,115,77,35,16,9
11,16,6,-14,2,12,21,118,80,37,17,10
12,17,7,-15,2,13,22,120,83,39,19,11
13,19,8,-16,2,14,22,123,86,41,21,12
13,20,9,-17,2,16,22,125,89,43,22,13
14,22,9,-18,2,17,22,127,91,45,23,14
14,23,10,-19,2,18,22,130,93,46,25,14
15,24,10,-20,1,18,22,132,95,48,26,15
15,26,11,-21,1,20,22,134,98,50,28,16
16,27,12,-22,0,21,22,135,100,52,30,17
16,29,13,-22,0,22,21,136,103,54,32,19
17,31,14,-24,0,24,21,137,105,55,34,21
19,33,15,-26,0,26,21,137,107,57,36,23
20,36,17,-27,0,27,21,138,108,58,38,25
20,38,18,-29,0,29,21,138,109,59,40,27
21,39,19,-30,0,30,20,138,110,60,41,29
22,41,19,-32,0,31,20,137,111,61,43,31
23,43,21,-33,0,33,20,136,112,63,45,32
23,45,22,-34,0,35,19,134,112,65,47,34
24,46,24,-35,0,36,18,131,112,66,48,35
25,48,24,-36,0,37,17,128,112,67,50,36
26,49,24,-38,0,38,15,124,111,67,51,38
28,51,24,-39,1,38,14,120,109,68,52,40
28,52,24,-40,1,39,13,116,107,68,52,41
29,52,24,-41,1,39,12,112,105,67,53,42
29,52,24,-41,1,40,10,108,102,67,53,42
29,52,24,-41,1,40,9,103,100,68,54,42
29,53,25,-41,1,40,8,98,97,68,54,42
29,53,25,-41,1,40,7,93,94,68,54,42
29,53,25,-41,1,40,6,88,91,68,54,42
29,52,25,-40,1,40,5,83,87,67,54,41
28,51,25,-39,1,39,4,78,82,65,53,41
27,50,24,-38,1,38,3,74,77,64,52,40
26,48,24,-37,1,37,2,69,73,62,50,40
25,46,23,-36,1,36,2,65,68,59,49,39
24,44,21,-35,1,35,1,60,64,56,46,37
23,42,20,-33,0,33,1,55,59,53,44,34
22,40,19,-31,0,31,1,51,55,49,41,32
20,37,19,-28,0,30,1,47,50,45,38,30
18,34,18,-26,0,28,1,43,46,41,35,28
16,31,17,-24,0,26,1,40,41,38,32,25
15,28,15,-22,0,23,1,37,37,34,29,22
14,25,14,-20,-1,21,1,33,33,30,26,20
13,22,12,-18,-1,19,1,30,29,27,23,17
11,20,11,-16,-1,17,1,27,26,23,20,15
10,18,10,-14,-1,15,2,24,23,19,17,12
8,15,9,-12,-1,14,2,21,20,15,15,10
6,13,8,-10,-1,12,2,19,17,12,12,9
4,10,7,-8,-2,11,2,17,13,8,10,7
3,7,6,-5,-2,9,2,15,10,5,8,5
2,5,5,-4,-2,7,2,14,8,3,6,4
2,4,4,-3,-2,5,2,12,6,1,4,3
1,2,3,-2,-3,4,2,10,4,0,3,1
0,0,2,0,-3,3,2,8,3,-2,1,0
-1,0,2,0,-3,3,3,7,1,-3,0,-1
-1,-1,2,1,-3,2,3,6,0,-4,-1,-1
-1,-1,1,1,-2,2,4,5,-1,-5,-2,-1
0,-1,1,1,-2,1,4,5,-2,-5,-3,-2
0,-2,0,1,-2,0,4,5,-3,-6,-4,-2
-1,-4,0,2,-2,0,4,4,-4,-7,-5,-3
-1,-5,-1,3,-2,-1,4,3,-5,-7,-5,-3
-2,-5,-1,3,-2,-1,4,2,-6,-8,-6,-4
-3,-6,0,4,-3,-1,4,1,-6,-8,-6,-4
-4,-6,0,5,-4,-1,4,1,-6,-8,-6,-5
-6,-7,0,6,-4,-1,4,1,-7,-8,-7,-5
-6,-7,0,6,-4,-2,3,0,-8,-8,-7,-5
-5,-7,-1,6,-3,-2,3,0,-9,-9,-8,-5
-3,-8,-2,5,-2,-3,2,0,-10,-9,-9,-6
-3,-8,-3,5,-2,-3,2,0,-10,-9,-9,-7
-2,-8,-3,5,-1,-4,2,0,-10,-9,-9,-7
-2,-8,-3,5,-1,-4,2,-1,-10,-9,-9,-8
-2,-8,-3,6,-1,-4,2,-1,-10,-9,-10,-9
-2,-9,-4,6,-1,-4,2,-1,-10,-9,-10,-9
-3,-9,-3,6,-1,-4,2,-1,-10,-9,-10,-9
-3,-9,-3,6,-1,-4,2,-1,-10,-9,-10,-9
-4,-9,-3,6,-2,-4,2,-1,-10,-9,-10,-9
-4,-9,-2,6,-2,-4,2,-1,-10,-9,-10,-8
-4,-9,-2,6,-3,-4,2,-1,-10,-9,-10,-8
-4,-9,-2,6,-2,-4,2,-1,-10,-9,-10,-8
-4,-9,-2,6,-2,-4,2,-1,-10,-9,-10,-8
-5,-9,-2,6,-2,-4,2,-1,-10,-9,-10,-8
-5,-9,-2,7,-3,-4,2,-1,-10,-9,-9,-8
-5,-9,-2,7,-3,-4,2,-1,-10,-9,-9,-9
-5,-9,-2,7,-3,-5,2,-1,-10,-9,-9,-9
-5,-9,-2,7,-3,-5,2,-1,-10,-9,-10,-9
-6,-9,-2,7,-3,-5,2,-1,-10,-9,-10,-9
-6,-9,-2,8,-3,-5,2,-1,-10,-9,-10,-9
-6,-9,-2,8,-3,-5,2,-1,-10,-9,-10,-9
-6,-10,-2,8,-3,-5,2,-1,-11,-9,-10,-9
-5,-10,-2,8,-3,-5,2,-1,-11,-9,-10,-9
-5,-10,-2,8,-2,-5,2,-1,-11,-9,-10,-9
-4,-10,-2,7,-2,-5,2,-1,-11,-9,-10,-9
-4,-10,-2,7,-2,-5,2,-1,-11,-9,-10,-9
-4,-10,-3,7,-2,-5,2,-1,-11,-10,-10,-9
-4,-10,-3,7,-2,-5,2,-1,-11,-10,-11,-10
-5,-10,-4,7,-2,-5,2,-1,-11,-10,-11,-10
-5,-10,-3,7,-2,-5,2,-1,-11,-10,-11,-11
-5,-10,-3,7,-2,-5,2,0,-11,-10,-11,-11
-6,-10,-3,8,-3,-5,2,0,-11,-11,-11,-11
-6,-10,-2,8,-3,-5,2,0,-11,-11,-11,-11
-6,-10,-2,7,-3,-5,2,0,-11,-11,-10,-10
-6,-9,-2,7,-3,-5,2,0,-11,-11,-10,-9
-6,-9,-2,7,-3,-5,2,0,-11,-11,-10,-9
-6,-9,-2,7,-3,-5,2,0,-11,-11,-10,-9
-6,-9,-2,7,-3,-5,3,0,-11,-11,-10,-10
-5,-9,-2,7,-2,-5,3,0,-11,-11,-10,-10
-5,-9,-2,7,-2,-5,3,0,-11,-11,-10,-10
-5,-9,-2,7,-2,-5,4,1,-11,-11,-10,-10
-5,-9,-1,7,-3,-5,4,1,-11,-11,-10,-10
-5,-9,-1,7,-3,-5,4,1,-11,-11,-10,-10
-6,-9,-1,7,-3,-5,4,1,-11,-11,-10,-10
-6,-9,-1,7,-3,-4,4,1,-11,-11,-10,-10
-6,-9,-1,8,-3,-4,4,1,-11,-11,-10,-10
-7,-10,-1,8,-4,-5,4,1,-11,-12,-10,-10
-8,-10,-1,9,-4,-5,4,1,-12,-12,-11,-10
-7,-10,-1,8,-4,-5,4,1,-12,-12,-11,-10
-7,-9,-1,8,-4,-5,4,1,-12,-12,-11,-10
-7,-9,-1,8,-4,-5,4,1,-12,-12,-11,-10
-8,-9,-1,9,-4,-5,4,1,-11,-13,-11,-10
-8,-10,-1,9,-4,-5,4,2,-11,-13,-11,-11
-8,-10,-1,9,-4,-5,4,2,-11,-14,-11,-11
-8,-10,-1,9,-4,-5,4,2,-11,-14,-11,-11
-8,-10,-1,9,-4,-4,4,2,-11,-14,-12,-11
-8,-11,0,9,-4,-4,4,2,-11,-14,-12,-11
-8,-11,0,10,-5,-4,4,3,-11,-13,-12,-12
-8,-11,-2,9,-4,-5,4,3,-11,-13,-12,-12
-7,-11,-3,9,-3,-5,4,3,-11,-13,-12,-12
-7,-11,-3,9,-3,-5,4,3,-11,-13,-12,-12
-8,-11,-2,9,-3,-5,5,3,-11,-13,-12,-12
-8,-11,-2,9,-4,-5,5,3,-11,-14,-12,-12
-8,-11,-2,9,-4,-5,5,3,-11,-14,-12,-12
-8,-11,-2,9,-3,-5,5,3,-11,-14,-12,-12
-8,-11,-2,9,-3,-5,5,3,-11,-14,-12,-11
-8,-11,-2,9,-4,-5,5,3,-11,-14,-12,-11
-8,-11,-2,10,-4,-5,5,3,-11,-14,-12,-11
-9,-11,-2,10,-4,-5,5,3,-12,-14,-12,-10
-8,-10,-1,9,-4,-5,5,3,-12,-14,-11,-10
-8,-10,-1,8,-3,-4,5,4,-12,-14,-11,-10
-7,-10,-1,8,-3,-4,5,4,-12,-14,-12,-10
-7,-10,-1,8,-3,-4,5,4,-12,-14,-12,-9
-7,-10,-1,8,-3,-4,5,4,-12,-14,-12,-9
-7,-10,-1,8,-3,-4,5,4,-12,-14,-12,-9
-7,-9,-2,8,-3,-4,5,4,-12,-14,-12,-8
-7,-9,-2,8,-3,-4,5,4,-12,-14,-12,-8
-7,-10,-2,8,-4,-5,4,4,-12,-14,-12,-8
-7,-10,-2,9,-4,-5,4,4,-12,-14,-12,-8
-6,-10,-2,8,-3,-5,4,4,-12,-14,-12,-8
-6,-9,-2,8,-2,-5,4,4,-12,-14,-12,-8
-6,-10,-2,8,-2,-5,4,4,-12,-14,-12,-8
-7,-10,-2,8,-2,-5,4,4,-12,-14,-12,-8
-7,-10,-2,8,-2,-5,4,4,-12,-14,-12,-8
-7,-10,-2,8,-3,-5,4,4,-12,-14,-12,-8
-7,-10,-2,8,-3,-5,4,4,-13,-14,-12,-8
-7,-10,-2,9,-3,-5,4,4,-13,-15,-12,-7
-7,-10,-2,9,-3,-5,4,4,-13,-15,-11,-7
-6,-10,-2,8,-2,-5,4,4,-13,-15,-11,-7
-7,-10,-2,8,-2,-4,4,4,-13,-15,-11,-6
-7,-10,-1,8,-3,-4,4,4,-13,-15,-11,-6
-7,-10,-2,8,-3,-5,4,4,-13,-15,-11,-6
-7,-10,-2,8,-2,-5,4,4,-13,-15,-11,-6
-6,-9,-3,8,-2,-5,4,4,-13,-15,-11,-6
-6,-9,-3,8,-2,-5,4,4,-13,-15,-11,-6
-6,-10,-3,8,-2,-5,4,4,-13,-15,-11,-6
-6,-10,-3,8,-2,-5,3,3,-13,-14,-11,-6
-7,-10,-2,8,-2,-5,3,3,-13,-14,-11,-6
-7,-10,-2,8,-2,-5,3,2,-14,-14,-11,-6
-7,-10,-2,8,-2,-5,3,2,-14,-14,-11,-6
-6,-10,-3,7,-1,-5,3,2,-14,-14,-11,-6
-5,-10,-3,7,-1,-5,3,2,-14,-14,-11,-6
-5,-10,-3,7,-1,-5,3,1,-14,-14,-11,-6
-6,-10,-3,8,-1,-5,3,1,-14,-14,-11,-6
-6,-10,-3,8,-1,-5,3,1,-14,-14,-11,-6
-6,-10,-3,8,-1,-5,3,1,-14,-14,-11,-7
-7,-10,-3,8,-2,-5,3,1,-14,-14,-11,-7
-7,-10,-3,8,-2,-5,2,0,-14,-14,-11,-7
-6,-10,-3,8,-1,-5,2,0,-15,-14,-11,-7
-6,-10,-3,8,-1,-5,2,0,-15,-14,-11,-7
-6,-10,-3,8,-1,-5,2,-1,-15,-14,-10,-6
-6,-9,-3,8,-1,-5,2,-1,-15,-15,-10,-6
-6,-9,-3,8,-1,-5,2,-2,-15,-15,-10,-6
-5,-9,-3,7,-1,-6,2,-2,-15,-16,-11,-7
-5,-9,-4,7,0,-6,2,-3,-15,-16,-11,-7
-5,-10,-4,7,0,-6,2,-3,-15,-16,-11,-7
-5,-10,-4,7,0,-6,2,-3,-15,-16,-11,-7
-5,-11,-4,8,0,-6,2,-3,-15,-16,-11,-7
-5,-11,-4,8,0,-6,2,-4,-15,-16,-11,-8
-5,-11,-4,8,-1,-6,2,-4,-15,-16,-11,-8
-5,-11,-4,8,-1,-6,2,-5,-15,-16,-10,-7
-5,-11,-4,8,-1,-6,2,-5,-15,-16,-10,-7
-5,-10,-4,8,-1,-6,2,-5,-15,-16,-9,-6
-5,-10,-3,8,-1,-6,2,-5,-14,-16,-9,-6
-5,-10,-3,8,-1,-5,2,-5,-14,-16,-9,-6
-5,-10,-3,7,-1,-5,2,-5,-14,-16,-9,-6
-5,-10,-3,7,-1,-5,2,-6,-14,-16,-9,-6
-5,-9,-3,7,-1,-5,2,-6,-14,-16,-9,-6
-5,-9,-3,7,-1,-5,2,-6,-14,-17,-9,-6
-5,-10,-3,7,-1,-6,2,-6,-14,-17,-9,-6
-5,-10,-3,8,-1,-6,2,-7,-14,-17,-10,-6
-5,-9,-3,7,-1,-6,2,-7,-14,-17,-10,-5
-5,-9,-3,7,-1,-6,2,-7,-14,-17,-10,-5
-5,-10,-3,8,-1,-6,2,-7,-14,-17,-10,-5
-6,-10,-3,8,-1,-6,1,-7,-14,-17,-10,-5
-6,-10,-3,8,-1,-5,1,-7,-14,-18,-10,-5
-6,-10,-3,8,-1,-5,2,-7,-14,-18,-10,-4
-6,-10,-3,8,-1,-5,2,-7,-14,-19,-10,-4
-6,-10,-3,8,-1,-5,2,-8,-15,-19,-10,-4
-6,-10,-3,8,-1,-6,2,-8,-15,-20,-10,-4
-6,-10,-3,8,-1,-6,1,-8,-15,-21,-10,-4
-6,-10,-3,8,-1,-6,1,-8,-15,-22,-10,-4
-6,-11,-3,8,-1,-6,1,-9,-15,-22,-10,-4
-6,-11,-3,8,-1,-6,1,-9,-15,-20,-10,-4
-6,-10,-3,8,-1,-5,1,-9,-15,-19,-10,-4
-6,-10,-3,8,-2,-5,1,-9,-15,-18,-10,-4
-6,-10,-3,8,-2,-5,1,-9,-15,-17,-10,-4
-6,-10,-3,8,-2,-6,1,-9,-15,-16,-10,-4
-7,-10,-3,8,-2,-6,1,-9,-15,-16,-10,-3
-7,-10,-3,8,-2,-6,1,-9,-15,-15,-10,-3
-6,-10,-2,8,-2,-5,1,-9,-14,-15,-10,-2
-6,-10,-2,8,-2,-5,1,-9,-14,-14,-10,-2
-6,-10,-3,8,-2,-5,1,-9,-14,-14,-10,-2
-6,-10,-3,8,-2,-5,1,-9,-14,-14,-9,-2
-5,-10,-3,7,-1,-5,1,-9,-14,-14,-9,-2
-5,-10,-4,7,-1,-6,1,-10,-14,-14,-9,-2
-4,-10,-4,7,0,-6,1,-10,-14,-14,-9,-2
-5,-10,-4,7,0,-6,1,-10,-14,-14,-9,-2
-5,-10,-3,7,-1,-6,1,-11,-15,-14,-9,-2
-4,-10,-4,7,0,-6,1,-11,-15,-14,-10,-2
-4,-10,-5,7,0,-7,0,-12,-16,-14,-10,-3
-4,-10,-5,7,0,-7,0,-12,-16,-14,-10,-4
-5,-10,-5,7,0,-6,0,-12,-16,-14,-10,-4
-5,-10,-5,8,-1,-6,0,-12,-16,-14,-10,-4
-5,-11,-5,8,-1,-6,0,-12,-16,-14,-10,-4
-5,-11,-5,8,-1,-6,0,-12,-16,-14,-10,-4
-5,-11,-5,8,-1,-6,0,-12,-16,-14,-10,-4
-5,-11,-5,8,-1,-6,0,-12,-16,-14,-10,-4
-5,-11,-5,8,-1,-6,0,-12,-16,-13,-10,-4
-5,-11,-5,8,-1,-6,0,-12,-16,-13,-10,-4
-6,-11,-5,8,-1,-6,0,-12,-16,-13,-10,-4
-6,-12,-4,9,-2,-7,0,-12,-16,-13,-10,-4
-7,-12,-4,9,-2,-7,0,-12,-16,-13,-10,-4
-7,-12,-4,10,-2,-7,0,-12,-16,-13,-10,-4
-7,-12,-4,10,-2,-7,0,-12,-15,-13,-10,-4
-6,-12,-4,9,-2,-7,1,-12,-15,-13,-10,-4
-6,-11,-4,9,-2,-7,1,-12,-15,-13,-10,-4
-5,-11,-5,8,-1,-7,1,-12,-15,-13,-10,-4
-4,-10,-5,7,-1,-6,1,-12,-15,-13,-10,-4
-5,-10,-4,7,-1,-6,1,-12,-15,-13,-10,-4
-5,-10,-4,8,-1,-6,1,-12,-16,-13,-10,-5
-5,-10,-5,8,-1,-6,1,-11,-16,-13,-10,-6
-5,-10,-4,8,-1,-6,1,-11,-15,-13,-9,-6
-5,-10,-4,8,-1,-6,1,-11,-15,-13,-9,-6
-5,-10,-4,8,-1,-6,0,-11,-15,-13,-9,-6
-5,-11,-5,8,-1,-6,0,-11,-16,-14,-9,-6
-5,-11,-5,8,-1,-7,0,-11,-16,-15,-9,-6
-5,-11,-5,8,-1,-7,0,-11,-16,-15,-9,-5
-5,-11,-5,8,-1,-7,0,-11,-16,-15,-9,-5
-5,-11,-5,8,-1,-7,0,-11,-16,-15,-9,-5
-5,-11,-5,8,-1,-7,0,-12,-16,-15,-9,-6
-5,-12,-5,8,-1,-7,0,-12,-16,-15,-9,-5
-5,-12,-5,8,-1,-7,0,-13,-16,-15,-9,-4
-5,-12,-5,8,-1,-7,0,-13,-16,-15,-9,-2
-6,-12,-5,9,-1,-7,0,-13,-16,-15,-9,-2
-7,-13,-5,9,-2,-7,0,-13,-16,-15,-9,-2
-7,-13,-4,9,-2,-7,1,-13,-15,-14,-9,-2
-7,-12,-4,9,-2,-6,1,-13,-15,-14,-9,-2
-6,-12,-4,9,-2,-6,2,-13,-15,-13,-8,-2
-6,-11,-4,9,-2,-6,2,-13,-14,-13,-8,-2
-6,-11,-4,9,-2,-6,3,-13,-14,-12,-8,-2
-7,-11,-4,9,-2,-6,3,-13,-14,-12,-8,-3
-7,-11,-4,9,-2,-6,3,-12,-13,-12,-8,-3
-7,-10,-3,8,-2,-5,4,-12,-13,-12,-7,-3
-7,-10,-2,8,-3,-5,4,-11,-12,-12,-7,-3
-7,-9,-2,8,-3,-4,5,-11,-12,-12,-7,-2
-7,-9,-1,8,-4,-4,5,-11,-12,-11,-6,-2
-7,-8,0,7,-4,-3,6,-11,-12,-11,-6,-2
-6,-7,0,6,-4,-2,7,-11,-11,-10,-5,-2
-5,-5,0,4,-4,-1,8,-11,-10,-10,-4,-1
-5,-5,1,4,-4,0,9,-11,-10,-10,-4,0
-5,-4,1,4,-4,0,9,-11,-10,-10,-4,0
-5,-4,2,4,-4,0,10,-11,-9,-9,-4,1
-5,-3,2,4,-4,1,10,-11,-9,-9,-4,1
-5,-3,1,4,-3,0,9,-11,-10,-10,-5,1
-4,-4,1,4,-3,0,8,-12,-10,-10,-5,1
-5,-5,0,4,-3,-1,7,-13,-11,-11,-5,1
-4,-6,0,5,-2,-2,6,-15,-12,-12,-6,0
-4,-6,-1,5,-2,-3,5,-16,-12,-13,-6,0
-4,-6,-2,5,-1,-3,4,-17,-13,-13,-6,0
-4,-6,-2,5,-1,-3,3,-18,-13,-14,-6,0
-4,-6,-1,5,-1,-2,3,-18,-13,-14,-6,0
-4,-5,-1,5,-2,-2,2,-19,-13,-15,-6,0
-3,-5,-1,5,-2,-2,2,-20,-14,-15,-6,0
-3,-5,-1,4,-2,-2,1,-21,-14,-16,-6,-2
-3,-5,0,4,-2,-1,1,-22,-15,-16,-6,-4
-3,-5,0,4,-2,-1,0,-22,-15,-16,-6,-5
-3,-5,-1,3,-1,-2,-1,-23,-15,-16,-6,-6
-2,-5,-3,3,0,-2,-1,-23,-15,-16,-7,-7
-1,-6,-4,3,1,-3,-2,-24,-15,-16,-7,-8
0,-7,-6,3,2,-5,-2,-24,-15,-16,-8,-8
0,-8,-7,4,2,-6,-2,-24,-15,-16,-8,-9
0,-8,-7,4,2,-6,-2,-23,-15,-15,-8,-9
0,-9,-7,4,2,-7,-2,-23,-15,-15,-9,-9
-1,-9,-7,5,2,-7,-2,-24,-15,-16,-9,-9
-1,-9,-7,5,2,-7,-2,-24,-16,-16,-9,-9
-1,-9,-7,5,2,-7,-2,-25,-16,-16,-10,-10
-2,-9,-7,6,2,-7,-2,-25,-17,-16,-10,-10
-3,-10,-6,6,1,-7,-2,-26,-17,-15,-10,-10
-4,-11,-6,8,0,-7,-2,-26,-17,-15,-10,-10
-5,-12,-5,9,0,-7,-2,-27,-18,-15,-11,-9
-5,-12,-6,9,0,-7,-2,-27,-18,-15,-11,-8
-5,-13,-6,9,0,-7,-2,-28,-18,-15,-11,-8
-6,-13,-6,9,0,-7,-2,-28,-18,-15,-11,-8
-7,-13,-6,10,-1,-8,-2,-28,-18,-15,-11,-8
-7,-14,-6,10,-1,-8,-2,-28,-18,-15,-11,-8
-7,-15,-7,11,-1,-9,-2,-28,-19,-16,-12,-8
-7,-16,-8,11,0,-10,-3,-29,-20,-16,-12,-8
-6,-16,-9,11,0,-11,-3,-30,-20,-17,-13,-8
-7,-17,-9,11,1,-11,-3,-30,-21,-17,-13,-8
-6,-17,-10,11,1,-12,-3,-30,-21,-17,-13,-9
-5,-17,-10,11,2,-12,-3,-30,-21,-17,-14,-9
-5,-16,-10,11,2,-12,-3,-30,-21,-17,-14,-8
-5,-16,-10,11,2,-12,-3,-30,-21,-17,-14,-8
-5,-17,-10,11,2,-12,-3,-30,-21,-17,-14,-8
-5,-17,-10,11,2,-12,-3,-30,-21,-17,-14,-9
-5,-17,-10,11,2,-12,-3,-30,-21,-17,-14,-9
-6,-18,-10,12,1,-12,-3,-30,-21,-17,-13,-9
-7,-18,-10,12,1,-12,-2,-30,-21,-17,-13,-9
-6,-18,-10,11,1,-12,-2,-30,-21,-17,-13,-10
-6,-17,-10,11,1,-12,-1,-30,-21,-17,-13,-10
-7,-17,-9,12,0,-12,-1,-30,-21,-17,-13,-10
-7,-18,-9,12,0,-12,-1,-30,-21,-17,-13,-10
-7,-18,-9,13,0,-12,-1,-30,-21,-17,-13,-10
-7,-17,-9,12,0,-12,0,-29,-20,-17,-13,-10
-7,-17,-9,12,0,-11,0,-29,-20,-17,-12,-10
-8,-17,-8,12,0,-11,0,-29,-20,-17,-12,-10
-9,-18,-8,13,-1,-12,0,-29,-20,-17,-13,-10
-9,-18,-8,13,-1,-12,0,-28,-20,-17,-13,-10
-9,-18,-8,13,-1,-12,0,-28,-20,-17,-13,-11
-9,-18,-8,13,-1,-11,0,-28,-20,-17,-13,-11
-9,-18,-8,14,-1,-11,0,-28,-20,-18,-13,-12
-9,-18,-8,14,-1,-11,0,-28,-20,-18,-13,-12
-9,-18,-8,14,-1,-11,0,-28,-20,-17,-13,-13
-9,-18,-7,14,-1,-11,0,-28,-20,-17,-13,-13
-9,-18,-7,13,-2,-11,0,-28,-20,-17,-13,-13
-9,-18,-7,13,-2,-11,0,-28,-20,-17,-13,-13
-9,-18,-7,13,-1,-12,0,-28,-20,-17,-13,-13
-9,-18,-8,13,-1,-12,0,-28,-20,-17,-13,-14
-8,-19,-9,14,0,-12,0,-27,-20,-18,-14,-14
-7,-19,-11,14,1,-13,0,-27,-20,-18,-14,-15
-5,-20,-14,13,3,-15,0,-25,-20,-19,-16,-16
-3,-21,-17,12,6,-18,0,-23,-20,-20,-18,-17
-2,-22,-18,12,7,-19,1,-18,-17,-21,-19,-19
-2,-22,-18,12,7,-19,3,-9,-12,-20,-19,-19
-2,-20,-17,11,6,-18,7,4,-3,-16,-17,-18
-1,-16,-14,9,5,-14,9,19,9,-9,-12,-15
2,-10,-11,4,6,-10,11,36,24,2,-5,-9
7,-2,-9,-2,7,-4,11,52,42,16,5,-2
14,7,-6,-10,9,2,9,64,60,34,19,7
21,17,-3,-19,11,8,7,66,75,52,33,18
29,28,0,-28,13,15,2,58,87,71,49,29
38,41,4,-39,16,23,-3,41,97,93,68,42
47,56,10,-51,17,35,-10,17,105,117,89,58
55,73,20,-64,16,48,-18,-9,112,143,113,76
62,90,30,-76,16,62,-26,-36,116,166,135,94
69,106,39,-87,15,74,-34,-65,116,184,154,110
74,120,48,-96,13,85,-42,-92,111,196,168,124
76,128,54,-102,11,92,-49,-119,102,199,175,133
74,130,58,-102,8,95,-55,-145,85,192,174,135
68,124,57,-96,5,92,-58,-168,62,173,162,130
60,110,52,-85,3,82,-61,-187,34,143,141,116
50,94,46,-72,2,72,-65,-203,0,106,116,99
38,79,42,-59,-2,63,-68,-215,-38,65,89,81
27,66,40,-47,-6,55,-69,-221,-74,26,64,65
17,54,38,-36,-10,48,-68,-218,-99,-5,42,50
9,44,36,-27,-13,42,-64,-206,-106,-24,26,37
3,35,33,-19,-15,35,-58,-187,-103,-33,13,27
0,27,29,-13,-16,29,-53,-167,-96,-38,4,18
-2,20,25,-8,-15,23,-49,-148,-87,-39,-2,11
-4,15,21,-5,-14,18,-44,-130,-77,-38,-5,5
-5,11,18,-3,-12,15,-38,-112,-66,-36,-7,2
-5,8,16,-2,-11,13,-31,-96,-57,-33,-8,0
-6,7,14,-1,-10,12,-24,-83,-49,-31,-9,-1
-6,5,12,0,-9,10,-17,-71,-42,-29,-10,-3
-5,2,9,0,-8,8,-12,-61,-37,-28,-11,-4
-5,0,7,2,-7,5,-9,-53,-32,-26,-11,-6
-5,-2,4,3,-6,2,-6,-45,-28,-25,-12,-7
-5,-4,2,4,-5,0,-4,-38,-25,-23,-12,-7
-4,-5,0,4,-3,0,-2,-33,-22,-22,-12,-8
-3,-6,-1,4,-2,-1,-1,-29,-20,-21,-13,-9
-3,-6,-2,4,-1,-2,0,-26,-18,-21,-13,-9
-3,-7,-2,5,-1,-2,0,-24,-16,-20,-13,-10
-3,-7,-3,5,-1,-3,1,-22,-15,-20,-13,-10
-3,-8,-3,5,-1,-3,1,-20,-15,-21,-14,-10
-3,-8,-3,6,-1,-4,2,-19,-14,-21,-14,-10
-4,-9,-3,6,-1,-5,2,-17,-14,-20,-15,-11
-4,-9,-3,7,-1,-5,2,-15,-13,-20,-15,-11
-4,-10,-4,7,-1,-5,2,-13,-12,-19,-15,-12
-5,-10,-4,8,-1,-5,2,-11,-11,-19,-15,-12
-5,-11,-5,8,-1,-6,3,-10,-9,-18,-15,-12
-5,-11,-5,8,-1,-6,3,-9,-8,-17,-15,-12
-5,-11,-5,8,-1,-6,4,-8,-8,-16,-14,-12
-4,-11,-5,7,0,-7,4,-7,-7,-15,-14,-12
-4,-11,-5,7,0,-7,4,-6,-7,-14,-14,-12
-4,-11,-5,7,0,-7,4,-5,-7,-14,-14,-12
-4,-11,-5,7,0,-7,4,-4,-6,-14,-14,-12
-4,-11,-5,7,0,-7,4,-3,-6,-14,-14,-12
-4,-11,-5,7,0,-7,5,-2,-5,-13,-14,-12
-4,-10,-5,7,0,-6,5,-2,-5,-13,-14,-11
-4,-10,-5,7,0,-6,5,-1,-4,-12,-13,-11
-4,-10,-5,7,0,-6,5,-1,-4,-12,-13,-11
-4,-10,-5,7,0,-6,5,0,-3,-11,-13,-11
-4,-10,-5,7,-1,-6,5,0,-3,-11,-13,-11
-4,-10,-4,7,-1,-6,5,1,-2,-11,-13,-11
-4,-10,-5,7,-1,-6,5,1,-2,-11,-13,-11
-3,-10,-5,6,0,-6,5,2,-1,-11,-13,-10
-3,-10,-6,6,0,-6,5,2,0,-11,-12,-9
-2,-10,-6,6,0,-6,5,2,0,-11,-12,-9
-2,-10,-6,6,0,-6,5,3,0,-11,-12,-9
-2,-10,-6,5,1,-6,5,3,1,-11,-12,-9
-1,-10,-6,5,1,-6,5,4,1,-11,-12,-9
-2,-10,-6,5,1,-6,6,6,2,-11,-12,-9
-2,-9,-6,5,1,-6,6,7,2,-10,-12,-10
-1,-9,-6,5,1,-6,6,8,3,-10,-12,-10
-1,-9,-6,5,1,-6,7,8,3,-9,-12,-10
-2,-9,-6,5,0,-6,7,9,4,-8,-11,-11
-2,-8,-6,5,0,-6,7,9,4,-8,-11,-11
-1,-8,-6,5,0,-6,7,10,5,-7,-11,-11
-1,-8,-5,5,0,-5,7,11,6,-7,-11,-11
-1,-7,-5,4,0,-5,7,12,7,-7,-10,-11
-1,-7,-5,4,0,-5,7,13,8,-7,-10,-11
-1,-7,-5,4,0,-5,7,14,8,-7,-10,-11
-1,-7,-5,4,0,-5,8,14,9,-6,-10,-11
-1,-7,-5,4,0,-5,8,15,10,-6,-10,-11
-2,-7,-4,5,0,-5,9,16,11,-5,-9,-11
-2,-7,-4,5,0,-5,9,17,12,-5,-9,-11
-1,-7,-4,4,0,-5,9,18,13,-4,-8,-11
-1,-7,-4,4,0,-5,9,19,13,-4,-8,-11
0,-7,-4,4,0,-5,9,20,14,-4,-8,-11
0,-7,-4,4,1,-5,9,21,15,-4,-8,-11
0,-7,-4,4,0,-5,9,22,15,-4,-8,-10
-1,-6,-4,4,0,-4,9,23,17,-3,-7,-10
0,-5,-3,3,0,-3,10,25,18,-2,-6,-9
0,-4,-3,2,0,-2,10,26,20,-1,-6,-8
0,-4,-3,2,0,-2,10,28,21,-1,-6,-8
0,-4,-3,2,0,-2,10,29,22,0,-6,-7
0,-3,-3,2,0,-1,11,31,23,0,-6,-7
1,-3,-2,1,0,-1,11,33,24,1,-6,-7
2,-2,-2,0,0,0,11,35,26,2,-5,-7
2,-2,-2,0,0,0,11,37,27,3,-5,-6
2,-1,-2,0,0,0,11,38,28,4,-4,-6
2,-1,-2,0,0,0,11,40,30,5,-4,-5
2,-1,-2,0,0,0,11,42,31,6,-3,-4
2,-1,-2,0,1,0,11,44,32,7,-3,-4
2,0,-2,-1,1,0,12,46,33,7,-3,-4
2,0,-2,-1,1,0,12,48,35,8,-2,-4
2,0,-1,-1,1,0,12,51,37,9,-1,-4
3,1,-1,-2,1,1,13,53,39,11,0,-3
5,2,-1,-4,2,2,13,56,42,12,0,-3
5,3,-1,-4,2,2,13,58,44,13,1,-3
5,3,0,-4,1,2,13,61,46,14,1,-2
5,3,0,-4,1,2,13,64,48,15,2,-2
5,3,0,-4,1,3,14,67,50,16,3,-1
4,4,1,-4,0,3,14,70,52,17,4,-1
4,4,1,-4,0,4,15,73,54,19,5,0
4,5,2,-5,0,4,15,77,57,20,6,0
6,6,2,-6,0,5,15,79,59,21,7,0
7,7,2,-7,1,6,15,82,62,22,8,1
8,9,2,-9,1,7,16,85,64,23,9,2
9,11,3,-10,1,9,16,88,67,25,10,3
10,13,3,-11,1,10,17,92,70,27,11,4
10,14,4,-12,2,11,17,95,72,29,12,5
11,15,5,-13,2,12,18,98,75,31,13,6
11,16,6,-13,1,13,18,101,78,33,14,7
12,16,6,-14,1,13,18,104,81,35,16,8
12,17,7,-14,0,14,18,106,84,37,17,9
12,19,8,-15,0,15,19,109,87,39,19,10
12,21,9,-16,0,16,19,111,89,41,21,12
13,23,10,-17,0,18,19,114,92,44,22,13
14,24,11,-19,0,20,19,116,95,46,24,15
15,26,11,-20,0,21,19,118,98,49,26,16
15,27,12,-21,0,22,19,120,100,51,28,18
16,29,14,-22,0,23,19,121,103,53,30,20
17,30,15,-23,0,25,19,121,105,55,32,21
18,32,16,-25,0,26,18,121,106,57,34,23
18,34,17,-26,-1,28,18,121,108,59,36,24
19,36,18,-27,-1,29,17,121,109,61,38,26
19,38,20,-28,-1,31,17,120,110,63,40,27
19,40,21,-29,-2,33,16,119,111,64,42,29
20,41,23,-30,-2,34,16,117,112,66,44,31
21,43,24,-31,-2,35,15,115,112,67,46,33
22,44,25,-33,-2,36,14,112,112,68,47,34
22,46,26,-34,-3,38,13,108,112,69,49,36
23,48,27,-35,-3,39,12,104,111,70,50,37
23,49,28,-35,-3,40,11,100,109,70,51,38
23,50,28,-36,-3,41,10,96,107,70,52,39
24,51,28,-37,-3,42,9,92,105,70,53,40
24,51,29,-37,-3,42,8,88,103,70,54,41
24,52,29,-38,-3,43,7,83,100,69,55,42
24,52,29,-38,-3,43,6,78,97,68,55,43
24,52,30,-37,-4,43,5,73,93,67,55,43
23,52,30,-37,-4,43,4,68,90,66,55,43
24,52,29,-37,-3,42,2,62,85,64,54,43
24,52,28,-37,-2,41,1,57,80,61,53,42
24,50,27,-36,-2,40,0,53,75,59,52,41
23,48,26,-35,-2,39,-1,48,70,56,50,39
23,46,24,-34,-1,37,-1,43,64,52,47,38
22,43,23,-32,-1,35,-2,38,59,48,44,36
21,40,22,-30,-1,33,-2,34,54,44,41,34
20,38,21,-29,-1,31,-2,30,49,40,39,32
18,36,20,-27,-2,30,-2,26,44,37,36,30
16,34,19,-25,-2,28,-2,22,39,33,33,27
15,31,17,-23,-2,26,-2,19,34,28,30,24
13,28,16,-20,-2,24,-2,16,30,24,27,22
12,24,14,-18,-2,21,-1,13,25,20,24,19
10,21,13,-15,-2,19,-1,10,21,16,20,16
9,18,11,-13,-2,17,-1,7,18,13,17,13
8,16,10,-12,-2,14,-1,4,14,9,14,11
7,13,8,-10,-2,12,0,1,10,6,11,9
5,11,7,-8,-2,10,0,-1,7,3,8,7
3,9,6,-6,-2,9,0,-2,4,0,6,5
1,6,6,-4,-3,7,0,-4,1,-3,4,3
0,3,5,-2,-3,6,0,-6,-1,-5,2,2
0,1,4,-1,-2,4,0,-7,-3,-8,0,0
0,0,3,0,-2,3,0,-9,-4,-10,-1,-1
-1,-1,2,0,-2,1,0,-10,-6,-12,-3,-2
-1,-2,1,1,-2,0,0,-12,-7,-14,-5,-4
-2,-3,0,2,-2,0,0,-13,-9,-16,-6,-5
-2,-3,0,3,-2,0,0,-14,-11,-17,-7,-5
-3,-4,0,4,-2,-1,0,-15,-12,-18,-7,-6
-3,-5,0,4,-2,-1,0,-15,-13,-19,-8,-6
-3,-6,0,5,-2,-2,0,-16,-14,-21,-9,-7
-3,-7,-1,6,-2,-2,0,-17,-15,-22,-10,-8
-3,-7,-1,6,-2,-3,0,-17,-15,-23,-11,-8
-4,-8,-1,6,-2,-3,0,-18,-16,-24,-11,-9
-4,-8,-2,7,-2,-3,0,-18,-16,-25,-12,-9
-4,-8,-2,7,-2,-3,0,-19,-17,-25,-12,-10
-4,-8,-2,7,-2,-3,0,-19,-17,-25,-12,-11
-5,-9,-2,8,-2,-4,0,-19,-18,-25,-12,-11
-5,-10,-2,8,-2,-4,0,-19,-18,-25,-12,-12
-5,-10,-2,8,-2,-4,0,-19,-18,-25,-13,-12
-5,-10,-2,8,-2,-4,0,-20,-18,-25,-13,-11
-5,-10,-2,8,-2,-4,0,-20,-18,-25,-13,-11
-5,-10,-2,8,-2,-4,0,-20,-19,-25,-13,-11
-5,-10,-2,8,-2,-4,0,-20,-19,-25,-13,-11
-5,-10,-2,8,-2,-4,0,-20,-19,-25,-13,-11
-5,-10,-2,9,-2,-4,0,-20,-19,-26,-13,-11
-5,-10,-2,9,-2,-4,0,-20,-19,-26,-13,-10
-5,-10,-2,9,-3,-4,0,-20,-19,-26,-13,-10
-5,-10,-2,9,-3,-5,0,-20,-19,-26,-13,-9
-6,-10,-2,9,-3,-5,0,-21,-19,-26,-13,-9
-6,-10,-2,9,-3,-5,0,-21,-19,-26,-13,-9
-6,-10,-3,8,-3,-5,0,-21,-19,-25,-14,-10
-5,-10,-4,8,-2,-5,0,-21,-19,-25,-14,-10
-4,-10,-4,7,-1,-5,0,-21,-19,-25,-14,-10
-3,-9,-4,7,-1,-5,0,-20,-19,-24,-14,-10
-4,-10,-4,7,-1,-5,0,-21,-19,-25,-15,-11
-4,-10,-4,7,-1,-6,0,-21,-20,-25,-15,-12
-4,-10,-5,7,-1,-6,0,-21,-20,-25,-16,-12
-4,-10,-5,7,-1,-6,0,-21,-20,-25,-16,-13
-4,-10,-4,8,-1,-6,0,-20,-20,-25,-15,-13
-5,-10,-4,8,-2,-6,0,-20,-20,-25,-15,-13
-5,-10,-3,8,-2,-6,0,-20,-20,-25,-15,-14
-4,-10,-3,8,-2,-6,0,-20,-20,-24,-15,-14
-4,-10,-3,8,-2,-6,0,-20,-20,-23,-15,-14
-4,-10,-3,8,-2,-6,0,-20,-19,-23,-15,-14
-5,-10,-3,8,-3,-6,0,-20,-19,-22,-15,-14
-6,-10,-2,9,-3,-6,0,-20,-19,-22,-14,-14
-6,-10,-2,9,-3,-6,0,-20,-19,-22,-14,-14
-6,-11,-2,9,-3,-6,0,-20,-19,-21,-14,-14
-6,-11,-3,9,-3,-6,0,-20,-19,-21,-15,-14
-6,-11,-3,9,-3,-6,0,-19,-19,-21,-15,-14
-6,-11,-3,9,-3,-6,0,-19,-19,-21,-16,-14
-7,-11,-2,10,-3,-6,0,-19,-18,-20,-16,-14
-7,-11,-2,9,-3,-6,0,-19,-18,-19,-17,-14
-6,-11,-3,9,-2,-6,0,-19,-19,-19,-18,-14
-6,-11,-3,9,-2,-6,0,-19,-19,-19,-18,-14
-6,-11,-4,9,-2,-6,0,-19,-19,-18,-18,-14
-6,-11,-3,9,-2,-6,0,-18,-18,-18,-18,-14
-6,-11,-3,9,-3,-6,1,-18,-18,-18,-18,-13
-6,-11,-3,9,-3,-6,1,-18,-18,-19,-18,-13
-6,-11,-3,10,-3,-6,1,-18,-18,-19,-19,-13
-7,-11,-3,10,-4,-6,1,-17,-18,-18,-19,-13
-8,-11,-2,10,-4,-6,2,-17,-18,-18,-18,-13
-7,-11,-3,10,-3,-6,1,-17,-18,-18,-19,-13
-7,-11,-3,10,-3,-6,1,-17,-18,-19,-19,-14
-7,-11,-3,10,-3,-6,1,-17,-18,-19,-20,-14
-6,-11,-3,10,-2,-6,1,-16,-18,-19,-20,-13
-7,-11,-3,10,-2,-6,1,-16,-18,-19,-20,-13
-7,-11,-3,10,-2,-6,1,-16,-18,-19,-20,-13
-7,-11,-3,9,-2,-6,1,-16,-18,-19,-20,-13
-7,-11,-3,9,-2,-6,1,-16,-18,-18,-20,-13
-7,-11,-3,9,-2,-6,1,-16,-18,-18,-19,-13
-7,-11,-2,10,-3,-6,2,-15,-18,-18,-19,-13
-7,-11,-2,10,-3,-5,2,-15,-18,-18,-18,-13
-7,-11,-2,10,-3,-5,2,-15,-18,-18,-18,-13
-7,-11,-2,10,-3,-5,2,-15,-18,-18,-18,-13
-7,-11,-2,10,-3,-5,2,-15,-18,-18,-18,-13
-7,-11,-2,10,-3,-5,2,-15,-18,-17,-17,-13
-7,-11,-2,10,-3,-5,2,-15,-18,-17,-17,-13
-7,-11,-2,10,-3,-6,2,-15,-18,-18,-17,-13
-7,-11,-2,10,-3,-6,2,-15,-18,-18,-17,-12
-8,-11,-2,10,-3,-6,2,-15,-18,-18,-17,-12
-8,-11,-2,10,-3,-6,2,-15,-18,-18,-17,-11
-8,-11,-2,10,-3,-6,2,-15,-18,-18,-16,-11
-8,-11,-2,10,-3,-6,2,-15,-18,-18,-16,-11
-8,-11,-2,10,-3,-6,2,-15,-18,-18,-16,-11
-8,-11,-2,10,-3,-6,2,-15,-18,-18,-16,-11
-7,-10,-2,10,-3,-6,2,-15,-18,-18,-15,-11
-7,-10,-2,9,-3,-5,2,-15,-18,-17,-15,-11
-7,-10,-2,9,-3,-5,2,-15,-18,-17,-14,-11
-7,-10,-2,9,-3,-5,2,-15,-18,-17,-14,-11
-7,-10,-3,9,-2,-6,1,-15,-18,-17,-15,-11
-6,-10,-3,9,-2,-6,1,-16,-19,-17,-15,-11
-6,-10,-4,9,-1,-6,1,-16,-19,-17,-15,-11
-5,-10,-4,9,-1,-6,1,-16,-19,-17,-15,-11
-5,-11,-4,9,-1,-6,1,-16,-19,-17,-15,-11
-5,-11,-4,9,-1,-6,1,-16,-19,-17,-15,-11
-5,-11,-4,9,-1,-6,1,-16,-19,-17,-15,-11
-6,-11,-3,9,-1,-6,1,-16,-19,-17,-15,-11
-6,-11,-3,9,-2,-6,1,-16,-19,-17,-15,-10
-7,-11,-3,9,-2,-6,1,-16,-19,-17,-14,-10
-7,-11,-3,9,-2,-6,1,-16,-19,-17,-14,-10
-6,-10,-3,9,-2,-6,1,-16,-19,-17,-14,-9
-6,-10,-3,9,-2,-6,1,-16,-19,-17,-14,-9
-6,-10,-3,9,-2,-6,0,-16,-19,-17,-14,-9
-6,-11,-3,9,-2,-6,0,-16,-20,-17,-14,-9
-6,-11,-3,9,-2,-6,0,-16,-20,-17,-14,-10
-6,-10,-3,9,-2,-6,0,-16,-19,-17,-14,-10
-5,-10,-3,8,-2,-5,0,-16,-19,-17,-14,-10
-5,-10,-3,8,-1,-5,0,-16,-19,-16,-14,-10
-5,-10,-4,8,-1,-6,0,-16,-19,-16,-14,-10
-5,-10,-4,8,-1,-6,0,-16,-19,-16,-14,-10
-5,-10,-4,8,-1,-6,0,-16,-19,-16,-14,-11
-5,-10,-4,8,-1,-6,-1,-16,-19,-16,-14,-11
-5,-10,-4,8,-1,-6,-1,-16,-19,-16,-14,-11
-5,-10,-3,8,-1,-6,-1,-16,-19,-16,-14,-12
-6,-10,-3,8,-1,-6,-1,-16,-19,-16,-14,-12
-6,-10,-3,8,-1,-6,-1,-16,-19,-16,-14,-12
-5,-10,-3,8,-1,-6,-1,-16,-19,-16,-14,-12
-5,-10,-3,8,-1,-6,-1,-16,-19,-16,-14,-12
-6,-10,-3,8,-1,-6,-1,-16,-19,-16,-13,-12
-5,-10,-3,8,-1,-6,-1,-16,-19,-16,-13,-12
-5,-9,-3,8,-1,-6,-1,-16,-19,-16,-13,-12
-5,-9,-3,8,-1,-6,-1,-16,-20,-16,-13,-12
-5,-9,-2,8,-1,-6,-1,-16,-20,-16,-13,-12
-5,-9,-2,8,-1,-5,-1,-16,-20,-16,-13,-12
-5,-9,-2,8,-1,-5,-1,-16,-20,-16,-13,-12
-5,-10,-3,8,-1,-5,-1,-16,-20,-16,-13,-13
-4,-10,-3,8,-1,-6,-1,-16,-20,-16,-13,-13
-4,-10,-4,8,0,-6,-1,-16,-20,-16,-13,-14
-4,-10,-4,8,0,-6,-1,-16,-20,-16,-13,-14
-5,-10,-4,8,0,-6,-1,-16,-20,-16,-13,-14
-5,-10,-4,8,0,-6,-1,-16,-20,-16,-13,-14
-5,-10,-4,8,0,-7,-1,-16,-20,-16,-13,-14
-5,-10,-4,8,0,-7,-1,-17,-20,-16,-13,-14
-5,-10,-4,8,0,-7,-1,-17,-21,-16,-13,-14
-5,-10,-4,8,0,-7,-1,-17,-21,-16,-13,-14
-5,-10,-4,9,-1,-6,-1,-17,-21,-16,-13,-14
-5,-10,-4,9,-1,-6,-1,-17,-21,-16,-13,-14
-5,-10,-4,9,-1,-6,-1,-17,-21,-16,-13,-15
-5,-10,-4,9,-1,-6,-1,-17,-21,-16,-13,-15
-5,-10,-4,9,-1,-6,-2,-17,-21,-16,-13,-15
-5,-10,-4,9,-1,-6,-2,-17,-21,-16,-13,-15
-5,-10,-4,9,-1,-6,-2,-17,-21,-17,-13,-15
-5,-10,-4,9,-1,-6,-2,-17,-21,-17,-13,-15
-5,-10,-4,9,-1,-7,-2,-17,-21,-17,-13,-16
-6,-11,-4,9,-1,-7,-2,-17,-21,-17,-13,-16
-6,-11,-4,9,-1,-7,-2,-17,-21,-17,-13,-16
-6,-11,-4,8,-1,-7,-2,-17,-21,-17,-13,-16
-6,-11,-4,9,-1,-7,-2,-17,-21,-17,-13,-16
-6,-11,-4,9,-2,-7,-2,-17,-21,-17,-14,-16
-6,-11,-4,9,-2,-7,-2,-17,-21,-17,-14,-16
-6,-11,-4,9,-1,-7,-2,-17,-22,-17,-14,-16
-5,-11,-4,9,-1,-7,-2,-17,-22,-16,-14,-16
-6,-11,-3,9,-2,-7,-2,-17,-22,-16,-14,-16
-6,-11,-2,9,-2,-6,-2,-17,-22,-16,-14,-16
-5,-10,-3,8,-2,-6,-2,-17,-22,-16,-14,-16
-4,-10,-4,7,-1,-6,-2,-17,-22,-16,-14,-17
-3,-10,-5,8,0,-7,-2,-17,-22,-16,-14,-17
-3,-10,-5,8,0,-7,-2,-17,-22,-16,-14,-17
-3,-9,-5,7,0,-6,-2,-16,-22,-16,-14,-17
-3,-9,-4,7,0,-6,-2,-16,-22,-16,-13,-17
-3,-9,-4,7,0,-5,-1,-16,-22,-16,-13,-17
-3,-9,-4,7,0,-5,-1,-16,-22,-16,-13,-17
-4,-9,-3,7,0,-5,-1,-16,-22,-17,-13,-17
-4,-9,-3,7,-1,-5,-1,-16,-22,-17,-13,-17
-5,-9,-3,8,-1,-5,-1,-16,-22,-17,-13,-17
-5,-9,-2,8,-2,-5,-1,-16,-22,-16,-13,-17
-5,-9,-2,8,-2,-5,-1,-16,-22,-16,-13,-17
-5,-9,-3,8,-1,-6,-2,-16,-22,-16,-13,-17
-5,-9,-3,8,-1,-6,-2,-16,-22,-16,-13,-17
-5,-9,-3,8,-1,-6,-2,-16,-22,-16,-13,-17
-5,-10,-3,8,-1,-6,-2,-16,-22,-17,-13,-17
-5,-10,-3,8,-1,-6,-2,-16,-22,-17,-13,-17
-5,-10,-3,8,-1,-6,-2,-16,-22,-17,-13,-17
-5,-10,-3,8,-2,-6,-2,-16,-21,-17,-13,-17
-5,-10,-3,8,-2,-6,-2,-15,-21,-17,-12,-17
-5,-10,-3,8,-2,-6,-2,-15,-22,-17,-12,-17
-6,-10,-3,8,-2,-6,-2,-15,-22,-17,-12,-17
-6,-11,-3,9,-2,-6,-2,-15,-22,-17,-12,-17
-5,-10,-4,8,-2,-6,-2,-15,-22,-17,-12,-17
-5,-10,-4,8,-1,-6,-2,-15,-22,-17,-11,-16
-5,-10,-4,8,-1,-6,-2,-15,-22,-17,-11,-16
-5,-10,-4,8,-1,-6,-2,-16,-22,-18,-12,-16
-4,-10,-4,8,0,-6,-2,-16,-22,-18,-12,-16
-3,-9,-4,7,0,-6,-2,-15,-22,-18,-12,-16
-3,-9,-5,7,0,-6,-2,-15,-22,-18,-12,-15
-3,-9,-5,7,0,-6,-2,-15,-23,-18,-13,-15
-3,-9,-5,7,0,-6,-2,-15,-23,-18,-13,-15
-4,-10,-5,8,0,-7,-2,-15,-23,-18,-13,-15
-5,-10,-5,9,-1,-7,-2,-15,-22,-18,-13,-15
-5,-10,-4,9,-1,-7,-2,-15,-22,-18,-13,-14
-5,-10,-4,9,-1,-7,-2,-15,-22,-18,-12,-13
-5,-10,-4,9,-2,-7,-2,-15,-22,-18,-12,-13
-5,-11,-4,9,-1,-7,-2,-15,-22,-18,-12,-13
-5,-11,-4,9,-1,-7,-2,-15,-22,-18,-12,-13
-5,-10,-4,8,-1,-6,-1,-15,-22,-18,-12,-13
-5,-9,-3,8,-1,-5,-1,-15,-22,-18,-12,-12
-5,-9,-3,8,-1,-5,-1,-15,-22,-19,-12,-12
-5,-9,-3,8,-1,-5,-1,-15,-22,-19,-12,-12
-5,-9,-3,8,-1,-5,-1,-15,-22,-19,-12,-12
-5,-10,-3,8,-1,-6,-1,-15,-22,-19,-12,-12
-5,-10,-4,8,0,-6,-1,-15,-22,-19,-12,-12
-4,-10,-4,8,0,-6,-1,-15,-22,-19,-12,-12
-5,-9,-3,8,-1,-6,-1,-15,-22,-19,-12,-12
-5,-9,-3,8,-1,-6,-1,-15,-22,-19,-12,-11
-4,-9,-3,7,0,-6,-1,-15,-22,-19,-12,-11
-3,-8,-3,7,0,-6,-1,-14,-22,-19,-12,-11
-3,-8,-3,6,0,-5,0,-13,-21,-19,-12,-11
-3,-8,-3,6,-1,-5,0,-13,-21,-19,-11,-11
-4,-7,-2,6,-1,-4,0,-12,-21,-19,-11,-11
-4,-7,-1,6,-1,-4,1,-12,-20,-19,-11,-11
-5,-6,0,6,-2,-3,1,-11,-20,-18,-10,-10
-5,-5,0,6,-2,-2,2,-11,-19,-18,-10,-10
-5,-5,1,5,-3,-1,2,-11,-18,-17,-9,-9
-4,-4,1,5,-3,-1,2,-10,-18,-16,-9,-9
-4,-3,2,4,-3,0,3,-10,-18,-16,-8,-9
-4,-2,2,4,-3,0,4,-9,-18,-16,-8,-9
-4,-2,2,3,-3,1,4,-9,-18,-16,-7,-9
-4,-2,2,3,-3,1,5,-8,-17,-16,-7,-9
-4,-1,3,3,-3,1,5,-8,-17,-16,-7,-9
-4,-1,3,3,-3,1,5,-8,-16,-16,-7,-9
-4,-1,3,3,-3,1,5,-8,-16,-17,-7,-9
-4,-1,3,3,-3,1,4,-8,-17,-18,-8,-9
-4,-2,2,3,-3,1,3,-9,-17,-19,-8,-8
-4,-2,2,3,-3,1,1,-10,-18,-20,-8,-8
-4,-2,2,3,-3,1,0,-11,-18,-23,-8,-8
-4,-2,2,3,-3,1,0,-11,-19,-24,-8,-9
-4,-2,3,3,-3,1,0,-12,-19,-23,-8,-9
-4,-2,3,3,-3,1,-1,-12,-20,-22,-8,-9
-4,-2,3,3,-3,1,-1,-13,-20,-20,-8,-9
-4,-1,3,3,-4,1,-2,-13,-20,-19,-8,-8
-4,-1,3,3,-4,1,-2,-14,-21,-19,-8,-8
-5,-2,3,4,-4,1,-2,-14,-21,-19,-8,-8
-4,-2,3,3,-4,1,-3,-15,-21,-18,-8,-8
-3,-1,3,2,-3,1,-3,-15,-21,-17,-8,-8
-1,0,1,1,-2,1,-3,-14,-21,-16,-8,-8
0,0,0,1,0,0,-4,-14,-21,-16,-8,-8
1,-1,-1,1,1,-1,-4,-14,-21,-15,-8,-8
0,-2,-2,1,1,-1,-5,-14,-20,-15,-8,-8
0,-2,-3,2,2,-2,-5,-14,-20,-15,-8,-8
1,-3,-5,1,3,-4,-6,-14,-21,-16,-9,-9
2,-4,-6,1,4,-5,-6,-15,-22,-16,-9,-9
2,-4,-6,2,4,-5,-5,-15,-22,-16,-9,-9
0,-5,-6,3,3,-5,-5,-15,-23,-16,-9,-10
0,-6,-6,4,2,-6,-6,-16,-23,-17,-9,-10
0,-6,-6,4,2,-6,-6,-16,-24,-17,-10,-11
-1,-7,-6,5,2,-6,-6,-17,-24,-18,-10,-11
-2,-8,-5,6,1,-6,-6,-17,-24,-18,-10,-12
-3,-8,-5,6,0,-6,-6,-17,-24,-18,-10,-12
-3,-9,-5,6,1,-6,-5,-17,-24,-19,-11,-12
-3,-9,-5,6,1,-7,-5,-17,-24,-19,-11,-12
-3,-10,-5,7,1,-7,-5,-17,-24,-20,-11,-13
-4,-10,-5,7,1,-8,-5,-17,-25,-20,-12,-13
-4,-11,-5,8,0,-8,-5,-18,-25,-21,-12,-13
-5,-11,-6,8,0,-9,-5,-18,-25,-21,-13,-13
-5,-12,-6,9,0,-9,-5,-18,-25,-21,-13,-14
-6,-12,-7,9,0,-10,-6,-18,-26,-22,-13,-14
-6,-13,-7,10,0,-10,-6,-18,-26,-22,-13,-14
-6,-13,-7,10,0,-10,-6,-18,-26,-22,-13,-14
-7,-14,-7,11,0,-10,-6,-18,-26,-23,-13,-14
-7,-14,-7,11,0,-10,-6,-18,-26,-24,-14,-14
-6,-15,-8,11,1,-10,-6,-18,-26,-25,-14,-14
-6,-15,-9,11,1,-11,-6,-18,-26,-26,-14,-14
-6,-15,-9,11,1,-11,-6,-17,-26,-27,-14,-14
-6,-14,-8,11,1,-11,-5,-17,-25,-27,-14,-14
-6,-14,-8,11,1,-11,-5,-17,-25,-26,-14,-14
-6,-14,-8,10,1,-11,-5,-16,-25,-26,-14,-14
-6,-15,-8,10,1,-11,-5,-16,-25,-25,-14,-14
-6,-15,-8,10,1,-11,-5,-16,-25,-25,-14,-14
-6,-14,-7,10,1,-10,-4,-15,-24,-25,-13,-14
-7,-14,-7,10,0,-10,-4,-15,-24,-23,-13,-14
-7,-14,-7,11,0,-10,-3,-15,-24,-22,-13,-14
-7,-14,-7,11,0,-10,-3,-15,-24,-21,-13,-13
-7,-14,-7,11,0,-10,-3,-15,-24,-20,-13,-13
-7,-15,-7,11,0,-11,-3,-15,-24,-20,-13,-13
-7,-15,-8,11,0,-11,-3,-15,-24,-19,-13,-14
-7,-15,-7,11,0,-11,-2,-14,-24,-19,-13,-14
-7,-15,-7,11,0,-10,-2,-14,-24,-19,-13,-13
-7,-15,-7,11,0,-10,-2,-14,-24,-19,-13,-13
-7,-15,-7,12,0,-10,-2,-14,-24,-19,-14,-13
-8,-15,-7,12,0,-10,-2,-14,-24,-18,-14,-13
-8,-15,-7,12,0,-10,-2,-14,-25,-18,-14,-13
-8,-15,-7,12,0,-10,-2,-14,-25,-18,-14,-13
-8,-15,-6,12,-1,-10,-2,-14,-25,-18,-14,-13
-8,-15,-6,12,-1,-10,-2,-13,-24,-18,-14,-13
-8,-15,-6,12,-1,-10,-1,-13,-24,-18,-14,-13
-7,-15,-7,12,0,-11,-1,-13,-24,-18,-15,-14
-6,-17,-9,12,1,-12,-1,-12,-24,-19,-16,-15
-6,-18,-11,13,2,-14,-1,-11,-23,-19,-17,-16
-5,-19,-13,13,4,-15,-1,-9,-22,-20,-18,-18
-5,-20,-15,13,5,-16,0,-4,-20,-20,-19,-19
-4,-20,-15,12,5,-17,2,4,-16,-19,-19,-19
-3,-19,-14,11,5,-15,5,17,-7,-16,-18,-18
-2,-15,-12,8,5,-12,8,33,4,-9,-13,-15
1,-9,-10,4,5,-8,9,50,19,0,-6,-9
6,-2,-7,-1,6,-4,9,66,37,14,3,-2
12,7,-4,-9,8,2,8,78,55,32,17,8
19,18,-1,-18,9,9,5,81,71,52,32,19
26,29,3,-27,11,17,0,74,84,72,48,31
34,42,8,-38,12,26,-5,58,94,95,68,44
43,58,15,-49,13,38,-11,35,103,120,90,61
51,75,25,-62,13,51,-18,9,111,147,114,79
59,93,34,-75,12,64,-27,-18,116,172,137,98
65,109,44,-86,11,77,-35,-46,117,192,157,114
70,122,52,-95,10,88,-42,-74,114,205,173,128
73,132,59,-102,7,97,-50,-101,106,211,182,137
72,135,64,-103,4,101,-57,-127,92,206,183,140
66,130,65,-98,0,99,-61,-150,71,190,174,135
60,118,60,-88,0,90,-64,-168,45,162,154,121
51,102,53,-76,-1,79,-68,-184,11,125,128,103
40,87,48,-63,-4,69,-72,-198,-29,83,100,85
29,73,45,-50,-7,60,-74,-206,-69,40,73,67
18,59,42,-38,-10,51,-73,-206,-98,5,50,51
10,48,39,-28,-13,44,-70,-195,-110,-16,31,37
3,38,35,-20,-15,37,-65,-177,-109,-28,17,25
0,30,31,-14,-16,31,-60,-156,-102,-33,8,15
-2,23,26,-10,-15,26,-55,-136,-93,-35,1,8
-3,19,23,-7,-14,22,-49,-117,-82,-34,-2,3
-4,15,20,-6,-13,18,-42,-99,-72,-32,-4,0
-4,12,17,-4,-11,15,-35,-83,-63,-29,-6,-2
-5,9,15,-1,-10,12,-28,-69,-54,-27,-7,-4
-7,5,13,1,-10,10,-22,-58,-47,-25,-8,-6
-8,2,11,3,-9,7,-16,-47,-41,-23,-8,-8
-8,0,9,5,-8,5,-12,-38,-36,-21,-8,-9
-7,-1,7,5,-7,3,-9,-29,-31,-20,-8,-10
-7,-3,4,6,-7,1,-6,-22,-28,-19,-8,-10
-7,-5,3,7,-6,0,-4,-16,-24,-18,-9,-11
-8,-6,2,8,-5,-1,-3,-11,-22,-17,-9,-12
-8,-7,1,8,-5,-3,-1,-7,-20,-17,-9,-12
-8,-8,0,8,-3,-3,0,-5,-19,-17,-10,-13
-6,-8,-1,7,-2,-4,0,-4,-18,-17,-10,-13
-6,-9,-2,7,-1,-5,1,-2,-17,-16,-10,-13
-6,-9,-3,7,-1,-5,1,-1,-16,-16,-10,-13
-5,-9,-3,7,-2,-5,1,1,-16,-16,-10,-13
-6,-10,-3,8,-2,-6,1,3,-15,-16,-11,-13
-6,-11,-4,8,-2,-7,1,5,-14,-15,-11,-14
-6,-12,-4,8,-1,-7,2,6,-12,-15,-11,-14
-5,-12,-5,8,0,-8,2,7,-11,-14,-11,-14
-5,-11,-5,8,0,-8,3,8,-10,-13,-11,-13
-5,-11,-5,8,0,-7,3,9,-9,-12,-10,-13
-5,-11,-5,9,0,-7,3,10,-8,-12,-10,-13
-5,-11,-5,9,0,-7,3,11,-8,-11,-10,-13
-5,-11,-5,9,0,-7,3,12,-7,-11,-10,-13
-5,-11,-5,9,0,-7,3,13,-7,-11,-10,-13
-5,-12,-5,9,0,-8,3,14,-6,-11,-10,-13
-5,-12,-5,9,0,-8,3,15,-5,-11,-10,-13
-6,-12,-5,9,0,-8,3,15,-5,-11,-9,-14
-6,-12,-5,9,0,-8,4,15,-4,-11,-9,-14
-6,-11,-5,8,0,-7,4,16,-4,-11,-8,-14
-6,-11,-5,8,0,-7,4,17,-3,-11,-8,-14
-6,-11,-5,8,0,-7,4,18,-3,-11,-8,-14
-6,-11,-5,8,0,-7,4,19,-3,-11,-8,-14
-5,-11,-5,8,0,-7,4,19,-2,-11,-8,-14
-4,-10,-5,8,0,-6,4,20,-1,-10,-8,-14
-4,-10,-5,7,0,-6,4,20,0,-10,-7,-14
-4,-10,-5,8,0,-6,4,21,0,-9,-7,-14
-5,-10,-5,8,0,-6,4,21,0,-9,-7,-14
-5,-10,-5,8,0,-6,4,22,0,-8,-7,-14
-4,-10,-5,7,0,-6,4,23,1,-8,-7,-14
-4,-10,-4,7,0,-6,4,24,1,-8,-7,-14
-4,-10,-4,7,0,-6,4,25,2,-8,-7,-14
-4,-10,-4,7,0,-6,4,25,2,-8,-7,-14
-4,-10,-4,7,0,-6,4,26,3,-8,-7,-14
-5,-10,-4,7,0,-6,4,26,3,-7,-6,-14
-5,-10,-4,7,0,-6,4,27,4,-7,-6,-13
-5,-9,-4,7,0,-6,5,27,4,-7,-6,-12
-5,-9,-4,7,0,-5,5,28,5,-7,-5,-12
-5,-8,-4,6,0,-5,5,30,6,-6,-5,-11
-4,-8,-4,6,0,-5,5,31,6,-6,-5,-11
-4,-8,-4,6,0,-5,5,32,7,-6,-5,-10
-4,-8,-3,6,0,-5,6,33,8,-5,-5,-10
-4,-8,-3,6,-1,-4,6,34,9,-4,-4,-10
-4,-8,-3,6,0,-4,6,34,10,-4,-4,-10
-3,-8,-3,5,0,-5,6,35,11,-3,-4,-10
-2,-8,-4,5,1,-5,6,36,11,-3,-4,-10
-2,-8,-4,5,1,-5,6,37,11,-2,-4,-10
-1,-7,-4,5,1,-5,6,39,12,-1,-3,-10
-1,-7,-5,4,1,-5,6,40,13,-1,-3,-10
0,-7,-5,4,2,-5,6,41,14,0,-3,-10
0,-6,-4,4,2,-5,6,42,15,0,-3,-9
0,-6,-4,3,2,-4,6,43,16,1,-2,-9
0,-5,-4,3,2,-4,6,44,17,1,-2,-8
0,-5,-4,3,2,-4,7,46,18,2,-1,-8
0,-5,-4,3,1,-3,7,48,19,2,-1,-7
0,-5,-3,3,1,-3,7,50,21,3,0,-7
0,-4,-3,2,1,-3,8,52,22,3,0,-6
0,-4,-3,2,1,-2,8,54,24,4,0,-6
0,-3,-3,2,1,-2,8,55,25,4,1,-6
0,-3,-3,2,1,-2,8,57,26,5,1,-5
0,-3,-3,2,0,-2,9,59,28,5,2,-5
0,-2,-2,1,0,-1,9,61,29,6,2,-4
0,-2,-2,1,0,-1,9,63,31,7,3,-3
0,-1,-2,0,1,0,9,66,32,7,3,-3
0,-1,-1,0,1,0,10,68,34,8,4,-2
1,-1,-1,0,0,0,10,71,36,9,4,-2
2,0,-1,0,1,0,10,73,38,10,4,-2
2,0,-2,-1,1,0,10,75,40,11,5,-2
3,0,-2,-1,2,0,10,77,42,12,5,-1
3,1,-1,-2,2,1,11,80,44,13,6,-1
3,2,0,-2,1,1,11,83,46,14,7,0
2,2,0,-2,1,2,12,87,49,16,8,1
3,3,0,-3,1,2,12,90,51,17,9,2
5,4,0,-4,2,2,12,93,53,19,10,3
5,4,0,-5,2,3,13,96,55,20,10,3
6,5,0,-5,2,4,13,98,58,22,11,4
6,6,1,-6,2,5,14,101,60,23,12,5
6,8,1,-6,2,5,14,104,63,25,13,6
7,9,2,-7,2,6,14,107,66,26,15,8
8,10,2,-8,2,7,14,111,68,28,16,9
8,11,3,-9,2,8,14,115,71,30,17,10
8,12,4,-9,1,9,15,118,73,32,18,11
8,13,6,-10,0,10,15,120,76,35,20,12
9,15,7,-11,0,12,16,123,79,38,21,13
10,17,8,-12,0,13,16,125,82,40,23,14
11,19,8,-13,0,14,16,128,85,43,24,15
11,20,9,-14,0,15,16,130,87,45,26,17
11,22,10,-15,0,17,16,133,90,48,27,18
12,23,11,-17,0,18,16,135,92,50,29,20
12,25,12,-18,0,20,16,137,95,53,31,21
13,26,13,-19,-1,21,16,138,97,55,32,22
14,27,14,-20,-1,23,16,139,99,57,34,23
15,29,15,-22,0,24,16,139,102,60,36,24
16,32,16,-23,0,26,16,139,103,62,38,26
17,34,17,-24,0,27,16,139,105,64,40,27
17,36,19,-26,-1,28,15,138,106,65,42,29
18,38,20,-27,-1,30,15,138,107,67,44,31
19,39,21,-28,-1,31,14,136,107,69,46,33
19,41,23,-29,-1,33,14,134,108,71,48,35
19,42,24,-30,-2,34,13,132,108,72,50,37
20,44,25,-31,-2,36,13,129,108,73,52,38
20,45,26,-32,-3,37,12,125,108,74,53,39
20,47,27,-32,-3,38,10,121,107,75,54,40
21,48,27,-33,-3,38,9,117,106,75,56,41
21,49,27,-34,-3,39,7,114,104,76,57,42
22,49,28,-35,-3,39,6,110,101,76,58,43
22,50,28,-35,-3,40,5,105,99,76,59,43
22,50,29,-36,-3,40,4,100,96,75,59,44
23,51,29,-36,-3,41,3,95,93,74,59,44
23,51,29,-36,-3,41,2,89,90,73,59,44
23,51,29,-36,-3,41,1,84,86,72,59,44
23,50,28,-36,-2,40,0,79,82,70,59,44
22,48,27,-34,-2,39,-2,74,77,68,58,43
21,46,26,-33,-2,38,-3,70,72,66,56,42
21,45,26,-32,-2,37,-3,66,68,64,55,41
21,45,25,-32,-2,36,-3,61,63,61,54,40
20,43,24,-31,-1,35,-3,57,58,58,51,38
19,41,23,-29,-2,34,-3,52,54,54,49,36
17,39,22,-27,-2,32,-3,48,49,50,46,34
16,36,20,-25,-1,29,-3,44,44,46,43,31
15,34,19,-24,-1,27,-3,40,39,41,40,28
14,31,17,-22,-2,25,-3,37,34,37,37,25
13,28,16,-20,-2,23,-3,34,30,34,33,23
11,24,14,-17,-2,21,-3,31,25,30,30,20
9,21,13,-15,-2,19,-3,27,21,26,26,18
8,19,12,-13,-1,16,-3,24,17,22,23,15
7,16,9,-11,-1,14,-3,21,14,18,20,13
6,14,7,-9,0,11,-3,19,11,15,17,10
5,11,5,-7,0,9,-3,17,7,11,15,8
4,8,4,-5,0,6,-3,15,4,8,12,6
3,5,3,-3,0,4,-3,13,1,5,10,4
2,3,2,-1,-1,3,-3,11,-1,3,7,2
1,2,2,0,0,2,-3,9,-4,1,5,0
1,1,0,0,0,1,-3,7,-6,-1,3,-1
0,0,0,1,0,0,-3,5,-7,-3,1,-3
-1,-2,-1,2,-1,0,-3,4,-8,-5,0,-4
-2,-3,-1,3,-1,-1,-3,3,-9,-7,-1,-5
-2,-5,-2,4,-1,-3,-3,2,-11,-9,-2,-6
-2,-6,-3,4,-1,-3,-3,2,-12,-10,-3,-6
-3,-7,-3,5,-1,-4,-3,1,-14,-11,-3,-7
-3,-7,-3,6,-1,-4,-3,0,-15,-12,-4,-7
-3,-8,-3,6,0,-4,-3,0,-15,-12,-5,-8
-4,-8,-3,7,0,-5,-2,-1,-16,-13,-5,-8
-5,-9,-3,7,-1,-5,-2,-2,-16,-13,-6,-9
-5,-9,-3,8,-1,-6,-2,-2,-17,-14,-6,-9
-5,-10,-4,8,-1,-6,-2,-2,-17,-14,-7,-9
-5,-10,-4,9,0,-7,-2,-2,-18,-14,-7,-9
-6,-11,-4,9,0,-7,-2,-2,-18,-14,-7,-9
-6,-11,-4,10,0,-7,-2,-2,-19,-15,-7,-9
-6,-11,-4,10,0,-7,-2,-3,-19,-15,-7,-10
-6,-11,-5,10,0,-7,-2,-3,-19,-15,-7,-10
-6,-11,-5,10,0,-7,-2,-3,-19,-16,-8,-10
-6,-11,-5,9,0,-7,-2,-3,-19,-16,-8,-10
-6,-11,-5,9,-1,-7,-2,-3,-19,-16,-8,-10
-6,-11,-5,9,-1,-7,-2,-3,-19,-16,-8,-10
-6,-11,-5,9,-1,-7,-2,-3,-19,-16,-8,-10
-6,-12,-5,9,0,-7,-2,-3,-20,-16,-8,-10
-6,-12,-5,9,0,-7,-2,-3,-20,-16,-8,-10
-6,-12,-5,10,0,-7,-2,-3,-20,-16,-8,-10
-6,-12,-5,10,-1,-7,-2,-3,-20,-16,-8,-10
-7,-12,-5,11,-1,-7,-2,-3,-20,-16,-8,-10
-7,-12,-5,11,-1,-8,-2,-3,-20,-16,-8,-9
-7,-12,-5,10,-1,-8,-2,-4,-20,-17,-8,-9
-7,-12,-5,10,-1,-8,-2,-4,-20,-17,-8,-9
-7,-12,-5,10,-1,-8,-2,-3,-20,-17,-8,-9
-7,-12,-5,10,-1,-8,-2,-3,-20,-17,-8,-8
-6,-12,-5,9,0,-8,-2,-3,-20,-17,-8,-8
-5,-12,-5,9,0,-8,-2,-3,-20,-18,-9,-8
-6,-12,-5,10,-1,-8,-2,-3,-20,-18,-9,-7
-7,-12,-5,10,-1,-8,-2,-3,-20,-18,-9,-7
-7,-12,-5,10,-2,-8,-2,-3,-20,-18,-9,-7
-8,-12,-4,10,-2,-8,-2,-3,-20,-18,-9,-7
-7,-12,-4,10,-1,-8,-2,-3,-20,-19,-9,-7
-7,-12,-4,10,-1,-8,-2,-3,-20,-19,-9,-7
-6,-12,-4,10,-1,-8,-2,-2,-20,-19,-9,-7
-6,-12,-4,9,-1,-8,-2,-2,-20,-20,-9,-7
-6,-11,-4,9,-1,-7,-2,-2,-20,-21,-9,-7
-6,-11,-4,9,-1,-7,-1,-2,-20,-21,-9,-7
-6,-11,-5,9,0,-7,-1,-1,-20,-21,-9,-7
-6,-11,-5,9,0,-7,-1,-1,-20,-21,-9,-7
-7,-11,-5,10,0,-7,-1,-1,-19,-21,-9,-7
-7,-12,-5,10,0,-7,-1,-1,-19,-21,-9,-8
-7,-12,-5,10,-1,-7,-1,-1,-19,-21,-9,-8
-7,-12,-5,10,-1,-7,-1,-1,-19,-21,-9,-8
-7,-12,-5,10,-2,-8,-1,-1,-19,-21,-9,-9
-7,-12,-5,10,-1,-8,-1,-1,-19,-21,-9,-9
-6,-12,-5,10,-1,-8,-1,-1,-19,-21,-9,-9
-6,-12,-5,10,-1,-8,-1,-1,-19,-20,-9,-9
-6,-12,-5,10,-1,-8,-1,-1,-19,-20,-9,-10
-6,-12,-5,10,-1,-8,-1,-1,-19,-20,-9,-10
-6,-12,-5,10,-1,-8,-1,-1,-19,-20,-9,-10
-7,-12,-4,10,-1,-7,-1,0,-19,-20,-9,-10
-7,-12,-4,10,-2,-7,-1,0,-19,-20,-9,-10
-7,-12,-4,10,-1,-7,-1,0,-19,-20,-9,-10
-8,-12,-4,11,-1,-7,-1,0,-19,-19,-9,-10
-8,-12,-4,11,-2,-7,-1,0,-19,-19,-9,-10
-8,-13,-4,11,-2,-8,-1,0,-19,-19,-9,-10
-8,-13,-4,11,-2,-8,-1,0,-19,-19,-9,-10
-8,-13,-4,11,-2,-8,0,0,-18,-19,-9,-9
-8,-13,-4,11,-2,-8,0,0,-18,-18,-9,-9
-8,-13,-4,11,-2,-8,0,0,-18,-18,-9,-9
-8,-13,-4,11,-2,-8,0,0,-18,-18,-9,-8
-8,-13,-4,11,-2,-8,0,1,-18,-18,-9,-8
-8,-12,-4,11,-2,-8,0,1,-18,-18,-9,-8
-8,-12,-4,11,-2,-7,0,1,-18,-18,-9,-8
-8,-12,-3,11,-2,-7,0,1,-18,-18,-9,-7
-8,-12,-3,10,-2,-7,0,1,-18,-18,-9,-6
-8,-11,-3,10,-2,-7,0,1,-18,-18,-9,-6
-8,-12,-3,11,-2,-7,0,1,-18,-18,-9,-6
-9,-12,-3,11,-2,-7,-1,1,-18,-18,-9,-7
-8,-12,-3,10,-2,-7,-1,1,-18,-18,-9,-7
-8,-12,-3,10,-2,-7,-1,1,-18,-18,-9,-7
-8,-12,-3,10,-2,-7,-1,1,-18,-18,-9,-7
-9,-11,-2,10,-3,-6,-1,1,-17,-18,-9,-7
-9,-11,-2,10,-3,-6,-1,2,-17,-19,-9,-7
-8,-11,-3,10,-2,-7,-1,2,-18,-19,-9,-7
-8,-11,-3,10,-2,-7,-1,1,-18,-20,-9,-7
-7,-11,-4,10,-2,-7,-1,1,-18,-20,-9,-7
-7,-11,-4,10,-2,-7,-1,1,-18,-20,-9,-7
-7,-11,-4,10,-2,-7,-1,1,-18,-20,-9,-7
-8,-11,-3,11,-2,-7,-1,1,-18,-20,-9,-8
-8,-12,-3,11,-2,-7,-1,1,-18,-20,-9,-8
-8,-12,-3,11,-2,-8,-1,0,-18,-20,-9,-8
-8,-12,-3,11,-2,-8,-1,0,-18,-19,-8,-8
-8,-12,-3,11,-2,-7,-1,0,-18,-19,-8,-8
-8,-12,-3,11,-3,-7,-1,1,-18,-18,-8,-7
-9,-12,-2,11,-3,-6,-1,1,-18,-18,-8,-7
-9,-12,-2,11,-3,-6,-2,1,-18,-18,-8,-7
-9,-12,-2,11,-3,-7,-2,1,-18,-18,-8,-7
-9,-12,-2,10,-3,-7,-2,1,-17,-18,-8,-6
-7,-11,-2,9,-2,-6,-1,1,-17,-18,-7,-5
-7,-11,-2,9,-2,-6,-2,1,-17,-19,-7,-5
-7,-11,-2,10,-2,-7,-2,1,-17,-19,-8,-5
-8,-11,-2,10,-2,-7,-2,1,-17,-19,-8,-4
-8,-11,-2,10,-2,-7,-2,1,-17,-19,-8,-4
-7,-11,-2,10,-2,-7,-2,1,-17,-19,-7,-4
-7,-10,-2,9,-2,-7,-2,1,-17,-19,-7,-5
-7,-10,-2,9,-2,-7,-2,1,-17,-19,-7,-5
-7,-10,-2,10,-2,-7,-2,1,-17,-19,-7,-5
-8,-10,-2,10,-2,-6,-2,1,-17,-20,-7,-5
-7,-10,-2,10,-2,-6,-2,0,-17,-20,-7,-5
-7,-10,-2,9,-1,-5,-2,0,-17,-20,-7,-5
-7,-10,-2,9,-2,-5,-2,0,-17,-20,-6,-4
-8,-10,-2,9,-2,-5,-2,0,-17,-20,-6,-4
-8,-10,-2,9,-3,-5,-2,0,-17,-20,-6,-4
-8,-11,-2,9,-3,-6,-2,0,-17,-20,-6,-4
-8,-11,-2,9,-3,-6,-2,0,-17,-21,-6,-4
-8,-11,-2,9,-3,-6,-2,0,-17,-21,-6,-4
-8,-11,-2,9,-3,-6,-2,0,-17,-22,-6,-3
-8,-11,-2,9,-3,-6,-2,0,-17,-22,-6,-3
-8,-11,-2,10,-3,-6,-2,0,-17,-22,-6,-4
-8,-11,-2,10,-3,-6,-2,0,-17,-21,-6,-4
-8,-11,-2,10,-3,-6,-2,0,-17,-21,-6,-4
-8,-11,-2,10,-3,-6,-2,0,-17,-21,-6,-4
-8,-11,-1,10,-3,-6,-2,0,-16,-21,-6,-4
-8,-11,-1,10,-4,-6,-2,0,-16,-20,-6,-4
-8,-11,-1,10,-3,-5,-3,-1,-16,-20,-6,-5
-8,-11,-1,10,-3,-5,-3,-1,-16,-19,-6,-5
-9,-11,0,10,-4,-5,-3,-1,-16,-19,-6,-5
-10,-11,0,10,-4,-5,-2,-1,-16,-18,-6,-5
-10,-11,0,10,-4,-5,-2,-1,-17,-18,-6,-5
-10,-11,0,10,-4,-5,-2,-1,-17,-17,-6,-5
-9,-11,0,10,-4,-5,-2,-1,-17,-17,-6,-5
-8,-11,-1,10,-3,-5,-2,-2,-17,-16,-6,-5
-9,-11,-1,10,-4,-5,-2,-2,-17,-16,-6,-5
-9,-11,-1,10,-4,-5,-2,-2,-17,-16,-6,-5
-9,-11,-1,10,-4,-5,-2,-2,-17,-16,-6,-4
-8,-10,-1,10,-3,-5,-2,-2,-17,-17,-6,-4
-8,-9,-1,9,-3,-5,-2,-3,-17,-17,-7,-4
-8,-10,-1,9,-3,-5,-2,-4,-17,-17,-7,-4
-8,-10,-1,9,-3,-5,-2,-5,-17,-17,-7,-4
-8,-10,-1,10,-3,-5,-2,-6,-17,-16,-7,-4
-9,-11,-1,11,-4,-5,-2,-7,-17,-16,-7,-5
-10,-12,-1,11,-4,-5,-2,-8,-17,-16,-7,-5
-10,-11,-1,11,-4,-5,-2,-8,-17,-16,-7,-5
-9,-11,-1,10,-3,-5,-2,-9,-17,-16,-7,-5
-8,-10,-1,9,-3,-5,-2,-9,-17,-16,-7,-5
-8,-10,-1,9,-3,-5,-2,-10,-17,-16,-6,-5
-8,-10,0,9,-3,-5,-2,-10,-17,-16,-6,-5
-8,-10,0,9,-4,-4,-2,-10,-17,-16,-6,-5
-8,-10,0,9,-4,-4,-2,-11,-17,-16,-6,-5
-8,-9,0,9,-4,-4,-2,-11,-17,-16,-6,-5
-8,-9,0,9,-4,-4,-2,-12,-17,-16,-6,-6
-8,-10,0,10,-4,-5,-2,-12,-17,-17,-7,-7
-9,-10,0,10,-4,-5,-2,-13,-17,-17,-7,-8
-9,-10,0,10,-4,-5,-2,-13,-17,-17,-7,-8
-9,-10,0,10,-4,-5,-2,-13,-16,-17,-7,-7
-9,-10,0,10,-4,-5,-2,-13,-16,-17,-7,-7
-9,-9,0,10,-4,-5,-2,-14,-16,-17,-7,-7
-8,-9,0,9,-4,-5,-2,-14,-16,-16,-7,-7
-8,-9,0,9,-4,-4,-2,-14,-16,-16,-7,-7
-8,-9,0,9,-4,-4,-2,-14,-16,-16,-7,-7
-9,-9,0,9,-4,-4,-2,-15,-16,-16,-7,-7
-9,-9,0,9,-4,-4,-2,-15,-16,-16,-7,-7
-9,-9,0,9,-4,-4,-2,-16,-16,-16,-7,-7
-9,-9,0,9,-4,-5,-2,-16,-16,-16,-7,-7
-8,-9,0,9,-4,-5,-2,-16,-16,-16,-7,-7
-8,-10,0,9,-4,-5,-2,-16,-16,-16,-7,-7
-9,-10,0,10,-5,-5,-2,-16,-16,-16,-7,-7
-9,-9,0,10,-5,-4,-2,-16,-16,-17,-7,-6
-10,-9,1,10,-6,-4,-2,-16,-16,-17,-7,-6
-10,-9,1,10,-6,-4,-2,-16,-16,-17,-7,-6
-9,-9,0,10,-5,-4,-2,-17,-17,-18,-7,-6
-9,-10,0,10,-5,-5,-3,-17,-17,-18,-8,-6
-9,-10,0,10,-5,-5,-3,-17,-17,-18,-8,-6
-8,-9,0,9,-4,-4,-3,-17,-17,-18,-8,-6
-8,-9,-1,9,-3,-5,-3,-17,-17,-18,-8,-6
-8,-10,-1,9,-3,-5,-3,-18,-17,-19,-8,-6
-7,-10,-2,8,-3,-5,-3,-18,-18,-19,-8,-6
-7,-9,-1,8,-3,-5,-3,-18,-18,-18,-8,-6
-7,-9,0,8,-3,-4,-3,-18,-17,-18,-8,-5
-7,-9,0,8,-3,-4,-3,-18,-17,-18,-8,-4
-7,-9,0,8,-3,-4,-3,-18,-17,-18,-8,-4
-7,-8,0,8,-3,-4,-2,-17,-17,-17,-8,-4
-8,-8,0,9,-4,-4,-2,-17,-17,-17,-8,-4
-8,-9,0,9,-4,-4,-2,-17,-17,-17,-8,-4
-9,-9,0,10,-4,-4,-2,-17,-17,-18,-8,-5
-8,-9,0,9,-4,-4,-2,-17,-17,-18,-8,-5
-7,-8,1,8,-4,-4,-2,-17,-17,-17,-7,-4
-7,-7,1,8,-4,-3,-2,-17,-17,-17,-7,-4
-8,-7,1,8,-4,-3,-2,-17,-17,-18,-7,-4
-8,-8,1,9,-5,-3,-2,-17,-17,-18,-7,-4
-9,-8,1,9,-5,-3,-2,-17,-17,-18,-7,-4
-9,-8,1,9,-5,-3,-2,-17,-17,-18,-7,-3
-9,-8,1,9,-5,-3,-2,-17,-17,-18,-7,-3
-9,-8,1,8,-5,-3,-2,-17,-17,-18,-7,-3
-8,-8,1,8,-4,-3,-2,-17,-17,-19,-7,-3
-8,-8,0,8,-4,-4,-2,-18,-17,-19,-7,-3
-8,-9,0,9,-4,-4,-3,-18,-17,-19,-7,-3
-8,-9,0,9,-5,-4,-3,-18,-17,-19,-8,-3
-8,-9,0,9,-5,-4,-3,-18,-17,-19,-8,-3
-8,-8,0,8,-5,-4,-3,-18,-17,-19,-8,-3
-8,-8,0,8,-4,-4,-3,-18,-17,-19,-8,-3
-8,-8,0,8,-4,-4,-3,-18,-17,-19,-8,-4
-8,-8,0,8,-4,-4,-3,-18,-16,-19,-8,-4
-8,-8,0,8,-4,-4,-3,-18,-16,-19,-8,-5
-8,-8,0,8,-4,-4,-3,-18,-16,-19,-8,-5
-8,-8,0,8,-4,-4,-3,-18,-16,-19,-8,-5
-8,-8,0,8,-4,-4,-3,-18,-16,-19,-8,-5
-8,-8,-1,8,-3,-4,-3,-18,-16,-19,-8,-5
-8,-8,-1,8,-3,-5,-3,-18,-16,-19,-8,-5
-7,-8,-1,8,-3,-5,-3,-18,-16,-20,-8,-5
-7,-8,-1,7,-3,-4,-3,-18,-16,-20,-8,-5
-6,-7,-1,7,-3,-4,-3,-18,-16,-20,-7,-4
-5,-7,-1,6,-2,-4,-2,-17,-15,-20,-7,-3
-5,-6,0,6,-2,-4,-2,-17,-15,-20,-7,-2
-5,-6,0,6,-3,-3,-1,-16,-14,-20,-7,-2
-5,-5,1,6,-3,-2,0,-15,-14,-20,-6,-1
-6,-4,2,6,-4,-1,0,-15,-13,-20,-5,-1
-6,-4,2,5,-4,-1,1,-14,-12,-20,-5,0
-5,-3,2,4,-4,0,1,-14,-12,-20,-4,0
-4,-2,2,4,-4,0,2,-14,-12,-19,-4,0
-4,-2,2,3,-4,0,2,-14,-12,-19,-4,0
-4,-1,2,3,-4,0,2,-13,-12,-19,-4,0
-3,-1,2,2,-3,0,3,-13,-12,-19,-4,0
-3,0,2,2,-3,0,3,-13,-12,-19,-4,0
-2,0,2,1,-2,1,3,-13,-12,-19,-4,0
-2,0,1,1,-2,1,3,-13,-12,-19,-4,-1
-2,0,1,1,-2,1,3,-13,-12,-18,-4,-1
-2,0,2,1,-2,1,2,-13,-11,-18,-4,-2
-2,0,2,1,-2,0,1,-14,-11,-18,-4,-2
-2,-1,1,1,-2,0,0,-15,-12,-19,-4,-2
-2,-1,1,1,-2,0,-1,-15,-13,-19,-4,-2
-2,0,1,1,-2,0,-2,-16,-13,-19,-4,-2
-2,0,1,1,-2,0,-2,-16,-14,-19,-4,-2
-2,0,1,1,-2,0,-3,-17,-14,-19,-4,-2
-2,0,2,1,-2,0,-3,-17,-14,-19,-4,-2
-2,0,2,1,-2,0,-3,-18,-14,-20,-4,-2
-2,-1,2,1,-2,0,-3,-18,-14,-20,-4,-2
-2,-1,2,1,-2,0,-4,-19,-15,-20,-4,-2
-1,-1,2,1,-2,0,-4,-19,-15,-20,-4,-2
0,-1,1,1,-1,0,-5,-19,-15,-20,-4,-2
0,-1,0,0,0,-1,-6,-19,-15,-21,-4,-2
1,-1,-2,1,1,-2,-6,-19,-15,-21,-4,-3
1,-2,-3,1,2,-3,-7,-19,-15,-21,-4,-3
2,-2,-4,0,3,-4,-7,-19,-15,-22,-4,-3
3,-2,-5,0,4,-5,-6,-19,-15,-22,-4,-3
3,-3,-5,0,4,-5,-6,-19,-15,-23,-5,-3
2,-5,-5,1,3,-6,-6,-19,-15,-24,-5,-4
0,-6,-5,2,3,-6,-6,-20,-16,-25,-6,-4
0,-6,-6,3,2,-6,-6,-21,-17,-26,-7,-5
0,-7,-5,3,2,-6,-5,-22,-17,-26,-7,-5
-1,-7,-4,4,1,-6,-5,-22,-18,-27,-7,-6
-2,-7,-4,4,1,-6,-5,-23,-18,-27,-7,-6
-2,-8,-3,5,0,-6,-5,-23,-18,-27,-8,-6
-2,-8,-3,5,0,-6,-5,-23,-18,-27,-8,-7
-3,-9,-3,6,0,-6,-5,-23,-18,-27,-8,-7
-5,-10,-3,7,-1,-7,-5,-23,-18,-28,-8,-8
-5,-10,-4,8,0,-7,-5,-23,-19,-28,-9,-9
-5,-11,-5,9,0,-8,-5,-23,-19,-28,-9,-9
-6,-11,-5,9,0,-8,-5,-24,-20,-28,-9,-10
-6,-12,-5,9,0,-9,-6,-24,-20,-28,-10,-10
-6,-12,-6,10,0,-10,-6,-25,-21,-28,-10,-11
-6,-13,-6,10,0,-10,-7,-25,-21,-29,-10,-11
-5,-13,-6,9,0,-10,-7,-25,-20,-29,-10,-11
-5,-13,-6,9,0,-10,-6,-25,-20,-29,-10,-11
-5,-13,-7,9,0,-10,-6,-25,-20,-29,-10,-11
-6,-13,-7,9,0,-10,-6,-25,-20,-29,-10,-11
-6,-14,-7,10,0,-10,-6,-25,-20,-29,-10,-11
-6,-14,-7,10,0,-10,-6,-25,-21,-29,-10,-11
-6,-15,-7,10,0,-10,-5,-25,-21,-29,-10,-11
-6,-14,-6,10,0,-10,-5,-25,-20,-29,-10,-11
-6,-14,-6,9,0,-10,-5,-24,-20,-29,-10,-11
-5,-13,-6,9,0,-10,-5,-24,-20,-29,-10,-11
-6,-13,-6,10,0,-10,-5,-24,-20,-30,-10,-11
-7,-13,-5,10,0,-10,-4,-24,-20,-30,-10,-10
-8,-14,-5,11,-1,-10,-4,-24,-20,-31,-10,-10
-8,-14,-5,11,0,-10,-3,-23,-20,-31,-10,-10
-7,-13,-5,10,0,-10,-3,-23,-20,-31,-10,-10
-7,-13,-5,10,-1,-9,-3,-23,-20,-31,-10,-10
-8,-13,-4,10,-2,-9,-2,-23,-20,-31,-10,-10
-8,-14,-4,11,-2,-9,-2,-23,-20,-32,-10,-11
-9,-15,-5,11,-2,-9,-3,-23,-20,-32,-10,-11
-9,-15,-5,11,-2,-10,-3,-23,-20,-33,-10,-11
-9,-14,-5,11,-2,-10,-3,-23,-19,-33,-10,-11
-8,-14,-5,11,-1,-9,-2,-23,-19,-33,-10,-12
-8,-14,-5,11,-1,-9,-2,-23,-19,-33,-10,-12
-8,-14,-5,11,-1,-9,-2,-23,-19,-33,-10,-12
-8,-14,-5,11,-1,-10,-2,-23,-19,-34,-10,-12
-8,-14,-5,11,-1,-10,-2,-23,-20,-34,-10,-12
-8,-14,-5,11,-1,-10,-2,-23,-20,-34,-10,-12
-9,-15,-5,11,-1,-10,-2,-23,-20,-34,-10,-11
-9,-15,-6,12,-1,-10,-2,-23,-20,-34,-11,-11
-8,-16,-7,12,0,-11,-2,-22,-21,-34,-11,-11
-7,-16,-9,11,1,-12,-2,-22,-21,-34,-12,-11
-5,-17,-11,11,3,-14,-2,-20,-20,-34,-13,-11
-5,-18,-12,11,4,-15,-1,-17,-19,-34,-14,-12
-4,-19,-14,11,5,-16,0,-11,-16,-34,-15,-13
-3,-18,-14,10,5,-16,3,-1,-11,-33,-15,-13
-2,-16,-13,9,5,-15,6,13,-2,-29,-13,-12
-1,-12,-11,6,5,-12,8,28,9,-23,-8,-8
3,-6,-9,1,6,-8,9,43,23,-13,-1,-3
9,1,-7,-5,8,-2,8,58,39,0,8,4
15,11,-4,-13,10,3,7,66,56,16,21,14
23,21,-1,-23,12,10,4,64,70,33,35,25
32,32,1,-33,15,17,0,53,80,51,50,37
41,45,5,-43,18,25,-6,32,87,69,67,49
50,60,11,-55,20,35,-13,6,94,89,86,64
58,76,18,-68,20,48,-21,-21,100,112,107,81
67,93,26,-80,21,60,-30,-50,102,135,128,97
75,108,34,-92,21,72,-39,-79,102,153,145,113
80,121,41,-100,20,82,-47,-105,98,165,158,125
82,128,46,-105,19,87,-55,-132,87,167,164,133
81,128,48,-104,17,88,-61,-156,70,159,161,134
75,121,47,-98,14,84,-65,-176,48,141,149,127
68,108,42,-88,13,75,-70,-191,22,114,129,114
58,94,38,-76,11,66,-76,-204,-8,82,107,98
46,81,36,-64,6,59,-79,-213,-42,47,84,82
34,68,35,-52,0,52,-80,-217,-74,13,62,68
24,57,34,-41,-3,46,-77,-211,-94,-12,43,54
15,46,31,-31,-6,39,-72,-196,-99,-27,28,42
10,36,27,-24,-8,32,-65,-177,-95,-35,16,31
6,28,23,-18,-8,26,-58,-156,-87,-39,7,21
4,21,19,-13,-8,20,-52,-137,-79,-40,1,14
2,16,16,-10,-7,16,-45,-119,-70,-40,-3,9
1,12,13,-7,-6,13,-38,-103,-61,-39,-5,5
0,8,11,-4,-6,10,-31,-89,-54,-37,-7,3
-2,6,10,-2,-6,8,-25,-77,-47,-35,-7,2
-3,3,8,0,-5,6,-19,-66,-40,-33,-8,0
-4,1,6,1,-4,3,-14,-57,-35,-31,-9,0
-4,-1,4,2,-3,1,-10,-48,-30,-29,-9,-1
-4,-3,2,2,-3,0,-8,-40,-26,-28,-9,-2
-4,-5,1,3,-2,-2,-6,-34,-23,-26,-9,-3
-4,-6,0,4,-1,-3,-4,-28,-20,-23,-9,-4
-4,-8,-1,5,-1,-4,-3,-25,-18,-21,-9,-5
-4,-9,-2,6,0,-5,-2,-22,-16,-19,-9,-5
-4,-9,-2,7,0,-6,-1,-20,-15,-18,-9,-5
-4,-10,-3,7,0,-6,0,-19,-13,-16,-9,-5
-4,-10,-4,7,0,-7,1,-17,-13,-15,-9,-6
-5,-11,-4,7,0,-7,1,-16,-12,-14,-9,-6
-5,-11,-4,8,0,-7,1,-14,-12,-14,-10,-6
-5,-12,-5,8,0,-8,1,-12,-12,-14,-10,-6
-5,-13,-6,8,1,-9,2,-11,-11,-14,-11,-6
-5,-13,-7,8,1,-10,2,-10,-10,-13,-11,-6
-5,-13,-7,8,2,-10,3,-9,-8,-13,-11,-5
-4,-13,-8,8,3,-10,3,-8,-7,-12,-10,-5
-3,-12,-8,7,3,-10,3,-7,-7,-11,-10,-4
-3,-11,-7,7,3,-9,3,-6,-6,-10,-9,-3
-3,-11,-7,6,2,-9,3,-4,-6,-10,-9,-3
-3,-11,-7,6,2,-9,4,-3,-6,-9,-9,-2
-2,-11,-7,6,2,-9,4,-2,-6,-9,-9,-2
-2,-11,-7,6,3,-9,4,-1,-5,-9,-8,-2
-2,-11,-7,6,3,-9,5,-1,-4,-9,-8,-2
-2,-11,-7,6,3,-9,5,-1,-3,-8,-8,-2
-2,-11,-7,6,3,-9,5,0,-2,-7,-8,-2
-3,-11,-7,6,3,-9,6,0,-2,-7,-8,-2
-3,-11,-7,6,2,-9,6,1,-2,-6,-8,-3
-2,-11,-7,6,3,-9,6,2,-2,-6,-8,-3
-2,-11,-7,6,3,-9,6,2,-1,-6,-8,-3
-2,-11,-7,6,2,-9,6,3,0,-6,-7,-3
-3,-11,-7,7,2,-8,6,3,0,-6,-7,-4
-2,-11,-7,6,2,-8,6,4,1,-6,-7,-4
-2,-11,-8,6,3,-9,6,4,1,-6,-7,-4
-1,-11,-8,6,4,-9,6,5,1,-6,-7,-4
-1,-11,-8,6,4,-9,6,6,2,-6,-7,-4
-1,-11,-7,6,3,-9,6,6,2,-5,-7,-5
-1,-11,-7,6,3,-9,6,7,2,-5,-7,-5
-1,-11,-7,6,3,-9,6,8,3,-5,-6,-5
-1,-11,-7,6,4,-9,7,8,4,-4,-6,-5
-1,-10,-7,6,4,-8,7,9,5,-4,-6,-5
-1,-10,-7,5,4,-8,7,10,6,-4,-6,-5
-1,-9,-7,5,4,-8,7,11,6,-3,-6,-5
-1,-9,-7,5,3,-8,7,12,7,-3,-6,-5
-1,-9,-7,5,3,-8,7,13,7,-2,-6,-5
0,-8,-7,4,3,-8,8,14,8,-2,-6,-4
0,-8,-7,4,3,-8,8,15,9,-2,-6,-3
0,-8,-7,4,3,-7,8,15,10,-2,-6,-3
0,-8,-7,4,3,-7,8,16,11,-2,-5,-3
0,-7,-6,4,3,-6,8,18,12,-1,-5,-2
0,-7,-6,3,3,-6,9,19,13,0,-4,-1
0,-7,-5,4,3,-6,9,20,14,1,-4,-1
0,-7,-5,4,3,-6,9,21,15,2,-4,-1
0,-7,-5,3,3,-6,9,22,15,3,-4,0
0,-6,-5,3,3,-6,9,24,16,4,-3,0
0,-6,-5,3,3,-5,9,25,18,5,-3,0
0,-6,-5,3,3,-5,9,26,19,5,-3,0
0,-6,-5,3,3,-5,9,27,20,6,-3,0
1,-6,-6,2,3,-5,9,28,21,7,-2,0
2,-5,-6,1,4,-5,9,30,22,7,-2,0
2,-5,-6,1,4,-5,9,32,22,8,-2,1
2,-5,-6,1,4,-5,10,34,23,9,-1,1
2,-5,-6,1,4,-5,10,36,24,10,-1,1
3,-4,-6,0,5,-4,11,37,26,11,0,2
4,-3,-5,0,5,-4,11,39,28,12,0,2
3,-2,-4,0,4,-3,12,40,30,12,0,2
3,-2,-4,0,4,-3,12,42,31,13,0,2
3,-2,-4,0,3,-2,12,43,33,13,1,2
3,-2,-4,-1,3,-2,12,45,34,13,1,2
3,-1,-4,-1,4,-2,12,47,35,14,1,2
3,-1,-4,-1,4,-2,12,50,36,15,2,2
3,0,-3,-2,4,-1,13,52,38,16,2,3
4,0,-3,-2,4,-1,13,54,40,17,3,3
4,0,-3,-2,3,-1,13,57,42,18,3,3
4,0,-2,-2,3,0,13,59,44,19,4,3
4,0,-2,-3,3,0,13,62,46,20,4,3
5,1,-2,-4,3,0,13,64,47,22,5,3
6,2,-2,-4,3,1,14,68,49,24,6,3
6,3,-1,-5,3,1,15,71,51,26,7,4
6,3,-1,-5,3,2,15,74,53,27,7,4
6,4,-1,-5,3,2,15,76,56,29,8,5
6,5,0,-5,3,3,15,79,59,31,9,6
7,6,0,-6,3,4,15,82,61,33,10,6
8,7,1,-7,3,5,16,85,64,36,11,7
8,9,1,-8,3,6,16,88,66,38,13,8
9,10,2,-9,3,7,17,91,68,39,14,9
9,11,3,-10,3,8,17,94,70,41,15,11
10,12,3,-11,3,8,18,98,73,43,16,12
10,13,4,-12,3,9,18,101,75,45,17,13
11,15,4,-13,3,10,18,103,78,47,18,14
12,16,5,-14,3,11,18,105,81,48,19,15
13,17,5,-15,3,12,18,108,84,50,21,17
14,19,6,-16,4,14,18,110,86,52,22,18
14,21,7,-17,4,15,18,113,88,54,24,19
14,22,8,-18,3,16,18,115,90,57,25,20
15,23,9,-19,3,17,18,117,92,59,27,21
16,25,10,-20,3,18,18,118,95,61,28,22
17,26,10,-22,4,19,18,119,97,63,30,23
18,28,11,-23,4,20,18,120,99,65,31,25
19,30,13,-24,3,22,18,121,101,67,33,26
19,32,14,-26,3,24,18,121,103,69,35,27
20,34,16,-27,3,25,18,122,104,71,37,29
20,36,17,-28,2,27,18,122,105,72,39,31
21,38,18,-29,2,28,17,121,106,74,41,32
21,39,19,-30,2,30,17,120,106,75,43,34
22,41,20,-31,1,31,16,118,107,77,44,35
22,42,21,-32,1,32,15,115,107,78,46,37
23,44,22,-33,0,33,13,112,107,79,47,39
24,45,22,-35,0,35,12,109,107,80,49,40
25,47,23,-36,1,36,11,105,106,80,50,42
26,49,24,-37,1,37,11,102,105,81,52,43
26,50,25,-38,1,38,10,99,103,81,53,45
27,50,25,-39,1,39,9,95,100,82,53,46
27,50,25,-39,1,39,7,90,98,82,54,46
27,50,25,-39,2,39,6,85,95,82,54,46
28,51,25,-39,2,39,4,80,92,81,54,46
28,51,25,-40,1,39,3,75,89,80,54,46
27,51,25,-40,1,39,1,70,86,79,54,46
27,50,24,-39,2,38,0,66,82,77,54,45
27,49,23,-39,2,37,0,61,77,75,54,44
27,48,22,-38,2,36,-1,57,72,73,52,43
26,46,21,-36,3,35,-2,52,67,70,50,41
26,45,21,-35,3,34,-3,47,63,67,48,39
25,43,20,-34,3,33,-3,42,59,64,46,37
24,41,19,-33,3,31,-4,38,55,61,44,36
23,39,18,-31,3,29,-4,33,50,57,41,34
21,36,16,-29,3,27,-4,30,45,53,38,31
19,33,15,-26,2,25,-4,26,41,49,35,28
18,30,13,-24,2,23,-4,23,36,45,33,26
16,27,12,-22,2,21,-4,20,32,41,30,23
14,24,12,-20,1,19,-4,16,28,37,27,20
12,21,11,-17,1,17,-4,13,24,34,24,17
11,18,9,-15,1,14,-4,10,21,30,20,14
10,16,7,-13,2,12,-4,6,17,26,17,11
9,13,5,-11,2,10,-4,4,14,23,14,9
7,11,4,-9,1,8,-3,2,10,20,11,7
7,9,3,-8,2,7,-3,0,7,17,9,5
6,7,2,-6,2,5,-3,-1,4,15,7,3
6,4,1,-5,3,3,-3,-3,2,13,5,1
5,2,0,-3,3,2,-3,-5,0,11,3,0
4,1,0,-2,2,1,-3,-7,-1,10,1,-1
3,0,-1,-2,2,0,-2,-9,-3,8,0,-3
2,-1,-1,-1,2,-1,-2,-11,-4,7,-1,-4
1,-3,-2,0,2,-2,-2,-11,-6,5,-3,-6
0,-4,-3,2,2,-3,-2,-12,-7,4,-4,-7
0,-6,-4,3,1,-4,-3,-12,-9,2,-5,-9
-1,-7,-4,4,1,-5,-3,-13,-10,1,-6,-10
-2,-7,-4,5,1,-5,-3,-14,-10,1,-6,-10
-2,-7,-4,4,1,-5,-2,-14,-11,0,-7,-10
-2,-8,-4,4,1,-5,-2,-15,-11,0,-7,-10
-2,-8,-4,5,1,-6,-2,-16,-12,-1,-8,-10
-3,-9,-4,5,1,-6,-2,-16,-12,-2,-8,-10
-3,-9,-4,5,1,-6,-2,-16,-12,-3,-8,-10
-3,-9,-5,5,1,-6,-2,-16,-13,-4,-8,-10
-3,-9,-5,6,1,-6,-2,-16,-13,-4,-9,-10
-3,-10,-5,6,1,-6,-2,-17,-14,-5,-9,-10
-3,-10,-5,6,1,-7,-2,-17,-14,-5,-9,-10
-4,-11,-5,7,1,-7,-2,-18,-14,-5,-9,-10
-4,-11,-5,7,0,-7,-2,-18,-14,-5,-9,-10
-4,-11,-5,7,0,-7,-2,-18,-14,-5,-9,-10
-3,-11,-5,7,0,-7,-2,-18,-14,-5,-10,-10
-3,-11,-5,7,1,-7,-2,-17,-14,-5,-10,-10
-3,-11,-5,7,1,-7,-2,-17,-14,-5,-10,-10
-3,-11,-5,7,1,-7,-2,-17,-14,-5,-10,-10
-3,-11,-5,7,1,-7,-2,-17,-14,-4,-10,-10
-3,-11,-6,7,1,-7,-2,-17,-14,-4,-10,-10
-3,-11,-6,7,1,-8,-2,-17,-15,-4,-10,-10
-4,-11,-6,8,0,-8,-2,-17,-15,-4,-10,-10
-4,-11,-6,7,0,-7,-2,-17,-15,-4,-10,-9
-3,-10,-5,7,0,-7,-2,-17,-15,-3,-10,-9
-4,-10,-5,7,0,-7,-2,-17,-15,-2,-10,-9
-5,-10,-5,8,0,-7,-2,-17,-15,-2,-10,-9
-5,-11,-5,8,0,-7,-2,-17,-15,-2,-10,-9
-4,-11,-5,8,1,-7,-2,-17,-15,-2,-10,-9
-4,-11,-6,8,1,-8,-2,-17,-15,-2,-10,-10
-3,-11,-6,8,1,-8,-2,-17,-15,-2,-10,-10
-4,-11,-5,8,1,-8,-2,-17,-14,-1,-10,-10
-4,-11,-5,8,0,-8,-2,-17,-14,-1,-11,-10
-4,-11,-6,8,0,-8,-2,-17,-14,-1,-11,-10
-4,-11,-6,8,1,-8,-2,-17,-14,-1,-11,-10
-3,-11,-7,8,1,-8,-2,-17,-14,-1,-11,-10
-3,-11,-7,8,1,-8,-2,-17,-14,-1,-11,-10
-4,-12,-6,9,1,-8,-2,-17,-14,-1,-11,-11
-4,-12,-6,9,0,-8,-2,-16,-14,-1,-11,-11
-4,-12,-6,8,1,-8,-2,-16,-14,-1,-11,-11
-3,-11,-6,7,1,-8,-2,-16,-14,-1,-11,-11
-2,-10,-6,7,1,-8,-2,-15,-14,-1,-11,-11
-2,-11,-6,7,1,-8,-2,-15,-14,-1,-11,-11
-2,-11,-6,7,1,-8,-2,-15,-14,-1,-11,-11
-3,-11,-6,8,1,-7,-1,-15,-14,0,-11,-11
-3,-11,-5,8,0,-7,-1,-14,-14,0,-11,-10
-4,-11,-5,9,0,-7,0,-14,-14,-1,-11,-10
-5,-11,-5,9,0,-7,0,-14,-14,-1,-11,-10
-5,-11,-5,9,0,-7,0,-14,-14,-2,-11,-10
-5,-11,-5,9,0,-7,0,-14,-14,-2,-11,-9
-5,-11,-5,9,0,-7,0,-14,-14,-2,-11,-9
-5,-11,-5,9,0,-8,0,-14,-14,-2,-11,-8
-5,-11,-5,9,0,-8,0,-14,-14,-2,-11,-8
-5,-11,-5,9,0,-8,0,-14,-14,-2,-11,-8
-5,-11,-5,9,0,-8,0,-13,-14,-2,-11,-8
-5,-11,-5,9,0,-8,0,-13,-14,-2,-11,-8
-6,-11,-4,9,-1,-7,0,-12,-14,-2,-10,-7
-6,-11,-4,9,-1,-7,0,-12,-14,-2,-10,-7
-6,-11,-4,10,-1,-7,0,-12,-14,-3,-10,-7
-6,-11,-4,10,-1,-7,0,-12,-14,-3,-10,-7
-6,-11,-4,10,-1,-7,0,-12,-14,-3,-10,-7
-6,-11,-4,10,-1,-7,0,-12,-14,-3,-10,-7
-6,-11,-4,9,-1,-7,0,-12,-14,-3,-10,-7
-6,-11,-4,9,-1,-7,0,-11,-14,-3,-10,-7
-6,-11,-4,9,-1,-7,0,-11,-13,-3,-10,-7
-6,-11,-4,9,-1,-7,0,-11,-13,-4,-11,-7
-6,-11,-5,9,0,-7,0,-11,-14,-4,-11,-8
-6,-11,-5,9,0,-7,0,-11,-14,-4,-11,-9
-6,-11,-4,9,-1,-7,0,-10,-13,-3,-11,-9
-7,-11,-3,9,-2,-7,1,-10,-13,-3,-11,-9
-7,-11,-4,9,-1,-7,1,-10,-13,-3,-11,-9
-7,-11,-4,9,-1,-8,0,-10,-13,-3,-11,-9
-7,-11,-4,9,-1,-8,0,-10,-13,-3,-12,-9
-6,-11,-4,9,-1,-7,0,-10,-13,-3,-12,-9
-6,-11,-4,9,-1,-7,0,-9,-13,-3,-11,-8
-7,-12,-3,10,-2,-7,0,-9,-13,-3,-11,-8
-7,-12,-3,11,-2,-7,0,-9,-13,-3,-11,-7
-7,-12,-3,10,-2,-7,0,-9,-13,-3,-11,-7
-8,-12,-3,10,-2,-7,0,-9,-13,-3,-11,-7
-8,-12,-3,11,-3,-7,0,-9,-13,-3,-11,-8
-8,-11,-3,10,-2,-7,1,-9,-13,-3,-11,-8
-7,-11,-3,10,-2,-7,1,-8,-12,-3,-11,-7
-7,-11,-3,10,-2,-7,1,-8,-12,-3,-11,-7
-7,-11,-3,10,-2,-7,1,-8,-12,-3,-11,-8
-6,-11,-3,9,-1,-7,1,-8,-11,-3,-11,-8
-6,-10,-3,9,-1,-6,1,-7,-11,-3,-11,-8
-6,-10,-3,9,-1,-6,1,-7,-10,-3,-11,-8
-5,-10,-3,8,-1,-6,1,-7,-10,-3,-11,-8
-5,-10,-4,8,0,-6,1,-7,-10,-3,-11,-8
-5,-10,-3,8,-1,-6,1,-7,-10,-3,-11,-8
-5,-10,-3,9,-2,-6,1,-7,-10,-3,-11,-9
-6,-10,-2,9,-2,-6,1,-7,-10,-3,-11,-9
-6,-10,-3,9,-2,-6,1,-7,-10,-3,-11,-9
-6,-10,-3,9,-1,-7,1,-7,-10,-3,-11,-9
-6,-10,-3,9,-1,-7,1,-7,-10,-4,-11,-9
-7,-10,-3,9,-2,-7,1,-7,-11,-4,-11,-9
-6,-10,-3,9,-2,-7,1,-7,-11,-5,-11,-10
-5,-10,-4,9,-1,-7,1,-7,-11,-5,-11,-10
-5,-10,-4,9,-1,-7,1,-7,-11,-5,-11,-10
-5,-10,-4,9,-1,-7,1,-7,-11,-6,-11,-10
-5,-10,-4,9,-1,-7,0,-7,-11,-7,-11,-10
-5,-10,-4,9,-1,-7,0,-7,-11,-8,-11,-10
-6,-10,-4,9,-1,-7,0,-8,-11,-9,-11,-10
-6,-10,-4,9,-1,-7,0,-8,-11,-9,-11,-10
-6,-10,-4,9,-1,-7,0,-8,-11,-8,-11,-10
-6,-10,-4,9,-1,-7,0,-8,-11,-6,-11,-10
-6,-10,-3,10,-2,-7,0,-8,-12,-4,-11,-9
-6,-10,-3,9,-2,-7,0,-8,-12,-3,-11,-9
-5,-10,-3,8,-1,-7,0,-8,-12,-2,-11,-8
-5,-9,-3,8,-1,-7,0,-8,-11,-1,-11,-8
-5,-9,-3,8,-1,-7,0,-8,-11,-1,-11,-8
-5,-9,-3,8,-1,-7,0,-8,-11,0,-11,-8
-4,-9,-3,8,0,-7,0,-8,-11,0,-11,-8
-4,-9,-4,7,0,-7,0,-8,-11,0,-11,-8
-3,-9,-4,7,0,-7,0,-8,-11,0,-11,-8
-3,-9,-4,7,0,-7,0,-8,-11,0,-11,-8
-3,-9,-4,7,-1,-6,0,-8,-11,0,-11,-8
-3,-9,-4,7,-1,-6,0,-8,-11,0,-11,-8
-4,-9,-3,7,-1,-6,0,-8,-12,0,-11,-8
-4,-9,-3,8,-1,-6,0,-9,-12,-1,-11,-8
-4,-10,-3,8,-1,-6,0,-9,-12,-1,-11,-8
-4,-10,-3,8,-1,-6,0,-9,-12,-1,-11,-8
-4,-9,-3,8,0,-6,0,-9,-12,-1,-11,-8
-4,-9,-3,7,0,-7,0,-9,-12,-1,-11,-8
-4,-9,-3,7,0,-7,0,-9,-12,-1,-11,-8
-4,-9,-3,7,0,-7,0,-9,-12,-1,-11,-8
-4,-9,-3,7,0,-7,0,-9,-12,-1,-11,-8
-4,-9,-3,7,0,-7,0,-9,-12,-1,-11,-8
-4,-9,-3,7,0,-7,0,-9,-12,-1,-11,-8
-4,-9,-3,7,0,-7,0,-9,-12,-1,-11,-8
-4,-9,-4,7,0,-7,-1,-9,-12,-1,-11,-8
-4,-10,-4,8,0,-7,-1,-9,-13,-1,-11,-9
-5,-10,-3,8,-1,-7,-1,-9,-13,-1,-11,-9
-6,-11,-3,9,-1,-7,-1,-9,-13,-1,-11,-9
-5,-11,-4,8,0,-7,-1,-9,-13,-1,-11,-9
-4,-10,-4,7,0,-7,-1,-9,-13,-1,-11,-9
-3,-10,-5,7,0,-7,-1,-9,-13,-1,-11,-9
-2,-9,-5,7,1,-7,-1,-9,-13,-1,-11,-9
-2,-9,-5,7,1,-7,-1,-9,-13,-1,-11,-9
-3,-9,-5,7,1,-7,-1,-9,-13,-1,-11,-10
-3,-9,-5,7,1,-7,0,-9,-13,-1,-11,-10
-3,-9,-5,7,1,-7,0,-9,-13,-1,-11,-10
-3,-9,-4,7,0,-6,0,-9,-13,-1,-11,-10
-3,-9,-4,7,0,-6,0,-9,-13,-1,-11,-10
-3,-9,-4,7,0,-7,0,-9,-13,-1,-12,-10
-3,-10,-4,7,0,-7,0,-9,-13,-1,-12,-11
-4,-10,-4,7,0,-7,0,-9,-13,-1,-12,-11
-4,-10,-4,8,0,-7,0,-9,-13,-1,-12,-11
-4,-10,-3,8,0,-7,0,-9,-13,-2,-12,-11
-4,-10,-4,8,0,-7,-1,-9,-13,-2,-12,-11
-4,-10,-4,8,0,-7,-1,-9,-13,-2,-12,-11
-5,-10,-4,8,0,-7,-1,-9,-13,-2,-12,-11
-5,-10,-3,9,-1,-7,-1,-9,-13,-2,-12,-11
-5,-10,-3,9,-1,-7,-1,-9,-13,-2,-12,-11
-4,-10,-3,8,0,-7,-1,-9,-13,-2,-11,-10
-4,-10,-3,8,0,-7,-1,-9,-13,-2,-11,-10
-4,-9,-3,7,0,-6,-1,-8,-13,-2,-10,-9
-4,-9,-3,7,0,-6,-1,-8,-13,-2,-10,-9
-4,-9,-3,7,0,-7,-1,-8,-13,-2,-10,-9
-4,-9,-4,7,0,-7,-1,-8,-13,-2,-10,-9
-5,-9,-4,8,0,-7,-1,-8,-13,-2,-10,-9
-5,-9,-4,8,0,-7,0,-8,-13,-2,-10,-9
-4,-9,-4,8,0,-7,0,-7,-13,-2,-10,-9
-4,-10,-4,8,0,-7,-1,-7,-13,-2,-10,-10
-4,-10,-4,8,0,-7,-1,-7,-13,-2,-10,-10
-4,-10,-4,8,0,-7,-1,-7,-13,-2,-10,-10
-4,-10,-4,8,0,-7,-1,-7,-13,-2,-10,-10
-4,-10,-4,8,0,-7,-1,-7,-13,-2,-10,-10
-4,-9,-4,7,0,-7,0,-7,-13,-2,-10,-10
-4,-9,-4,7,0,-7,0,-7,-13,-2,-10,-10
-4,-10,-4,8,0,-7,0,-7,-13,-2,-10,-10
-5,-10,-4,8,-1,-7,0,-7,-13,-2,-10,-10
-5,-10,-4,8,-1,-7,0,-7,-13,-2,-10,-10
-5,-10,-4,8,-1,-7,0,-7,-13,-2,-10,-10
-5,-10,-4,8,-1,-7,1,-7,-13,-2,-10,-10
-5,-10,-4,8,-1,-7,1,-7,-13,-2,-10,-10
-5,-10,-4,8,-1,-7,1,-7,-13,-2,-10,-10
-5,-10,-4,8,-1,-7,1,-7,-14,-3,-10,-10
-5,-10,-4,8,-1,-7,1,-7,-14,-3,-10,-9
-5,-10,-4,8,-1,-7,2,-7,-14,-3,-10,-9
-5,-10,-4,8,-1,-7,2,-7,-14,-3,-10,-9
-4,-10,-4,8,0,-7,2,-7,-14,-3,-10,-9
-4,-10,-4,8,0,-7,2,-7,-14,-4,-10,-9
-4,-10,-4,7,0,-7,2,-7,-14,-4,-10,-9
-4,-10,-4,7,0,-7,2,-7,-14,-4,-10,-8
-4,-9,-4,7,0,-7,2,-7,-14,-4,-10,-8
-4,-9,-4,7,0,-7,3,-7,-14,-3,-10,-8
-5,-9,-4,8,0,-7,3,-6,-14,-4,-10,-8
-5,-10,-4,8,0,-7,3,-6,-14,-4,-10,-8
-5,-10,-4,8,0,-7,3,-6,-14,-4,-10,-8
-5,-10,-4,8,0,-7,3,-6,-14,-4,-10,-8
-5,-10,-4,8,0,-7,3,-6,-14,-3,-10,-8
-5,-10,-4,8,0,-7,3,-6,-14,-3,-10,-7
-5,-10,-4,8,0,-7,3,-6,-14,-3,-10,-7
-5,-10,-4,8,0,-7,3,-6,-14,-3,-10,-7
-5,-10,-4,7,0,-7,3,-6,-14,-3,-10,-7
-4,-10,-4,7,0,-7,3,-6,-14,-4,-10,-7
-4,-10,-4,7,0,-7,3,-7,-14,-4,-10,-7
-5,-10,-4,7,0,-7,3,-7,-14,-5,-10,-7
-5,-10,-4,7,0,-7,2,-7,-14,-5,-10,-7
-5,-10,-4,8,0,-7,2,-8,-14,-6,-10,-7
-5,-10,-4,8,0,-7,2,-8,-14,-6,-10,-7
-5,-9,-3,8,0,-6,2,-8,-14,-6,-10,-7
-4,-9,-3,7,0,-6,2,-8,-14,-6,-10,-7
-4,-9,-4,7,0,-6,2,-9,-14,-7,-10,-7
-4,-9,-4,8,0,-7,2,-9,-14,-8,-10,-7
-5,-9,-3,8,-1,-7,2,-8,-14,-8,-10,-7
-5,-9,-3,8,-1,-7,2,-8,-14,-7,-10,-6
-6,-9,-3,8,-1,-7,2,-8,-14,-5,-10,-6
-6,-10,-3,8,-1,-7,2,-8,-14,-4,-10,-6
-6,-10,-3,8,-1,-6,2,-8,-14,-4,-9,-6
-5,-9,-3,7,-1,-6,2,-8,-14,-3,-9,-6
-4,-8,-3,6,0,-5,2,-8,-13,-2,-9,-5
-3,-7,-3,5,0,-5,2,-7,-13,-1,-8,-5
-3,-6,-2,5,0,-4,3,-7,-13,0,-8,-4
-4,-6,-1,5,-1,-4,4,-6,-12,0,-7,-3
-4,-5,-1,4,-1,-3,5,-6,-12,0,-7,-2
-3,-4,0,3,-1,-2,5,-5,-11,1,-6,-2
-4,-3,0,3,-2,-1,6,-5,-11,1,-6,-1
-4,-3,1,3,-2,0,6,-5,-10,1,-5,-1
-4,-2,2,3,-3,0,7,-4,-10,2,-5,-1
-4,-2,3,3,-3,0,7,-4,-9,2,-4,0
-4,-1,3,3,-3,0,8,-4,-9,3,-4,0
-4,-1,3,3,-3,0,8,-4,-9,3,-4,0
-4,-1,3,3,-3,0,8,-4,-9,3,-4,0
-4,-1,3,3,-3,1,8,-4,-9,3,-4,0
-4,0,3,2,-3,1,8,-4,-9,3,-4,0
-5,-1,4,3,-4,1,8,-4,-9,3,-4,0
-5,-1,3,3,-4,1,7,-5,-10,3,-4,0
-3,-2,1,3,-2,0,4,-7,-11,2,-5,-1
-2,-2,-1,3,0,-2,2,-9,-12,1,-6,-3
-2,-3,-1,3,0,-2,1,-10,-12,0,-7,-3
-1,-2,0,2,0,-1,1,-11,-12,0,-6,-3
-1,-1,0,1,0,-1,2,-11,-12,0,-6,-2
-1,-1,0,1,0,-1,1,-12,-13,0,-6,-2
-1,-1,0,2,0,-1,1,-12,-13,0,-6,-2
-1,-1,0,2,0,-1,0,-13,-14,0,-6,-2
-1,-1,0,2,0,-1,0,-14,-14,0,-6,-2
0,-1,0,2,0,-1,0,-14,-14,0,-6,-2
0,-1,-1,1,0,-1,-1,-14,-14,0,-6,-1
0,-2,-2,1,1,-2,-2,-15,-14,0,-6,-1
1,-2,-3,1,2,-3,-2,-15,-14,-1,-6,-1
2,-2,-5,1,3,-4,-2,-15,-14,-1,-6,-1
3,-3,-6,0,4,-5,-2,-15,-14,-1,-7,-1
3,-3,-6,1,5,-5,-2,-15,-13,-1,-7,-1
2,-4,-7,1,5,-6,-2,-15,-14,-1,-7,-1
1,-5,-7,2,5,-6,-2,-16,-14,-1,-8,-2
0,-6,-7,3,4,-7,-2,-17,-15,-1,-8,-2
0,-6,-7,3,4,-7,-2,-18,-16,-1,-9,-2
0,-6,-6,4,3,-7,-2,-18,-16,-1,-9,-2
-1,-7,-6,4,3,-7,-2,-18,-16,-2,-9,-2
-2,-7,-5,5,2,-7,-2,-18,-16,-2,-9,-2
-3,-8,-5,6,2,-7,-2,-19,-17,-3,-9,-2
-4,-9,-5,7,1,-7,-2,-19,-17,-3,-9,-1
-5,-10,-5,8,1,-7,-2,-20,-18,-4,-10,-1
-6,-11,-5,9,0,-8,-2,-21,-18,-4,-10,-1
-6,-12,-5,9,0,-8,-2,-21,-18,-5,-10,-1
-5,-12,-6,8,0,-9,-1,-21,-18,-5,-10,-1
-5,-12,-6,8,1,-9,-1,-21,-18,-5,-10,-1
-5,-12,-7,8,1,-9,-2,-22,-19,-5,-10,-2
-5,-12,-7,9,1,-10,-2,-23,-19,-6,-11,-3
-5,-12,-7,9,1,-10,-2,-23,-19,-7,-11,-3
-5,-12,-7,9,1,-10,-2,-24,-19,-7,-11,-3
-5,-12,-7,9,1,-10,-2,-24,-19,-7,-11,-3
-6,-13,-7,10,1,-11,-2,-24,-20,-7,-11,-3
-6,-13,-8,10,1,-11,-2,-25,-20,-8,-11,-3
-6,-14,-8,10,1,-11,-2,-25,-21,-8,-11,-3
-6,-14,-8,10,1,-11,-2,-25,-21,-8,-11,-3
-6,-14,-8,10,1,-11,-2,-25,-21,-8,-11,-2
-7,-15,-8,11,0,-11,-2,-25,-21,-8,-11,-2
-7,-15,-8,11,0,-11,-2,-25,-21,-8,-11,-1
-7,-15,-7,11,0,-11,-1,-25,-20,-7,-11,-1
-7,-15,-7,11,0,-10,-1,-25,-20,-7,-11,-1
-6,-15,-8,10,1,-10,0,-25,-20,-7,-11,-2
-6,-15,-8,10,1,-11,0,-25,-21,-7,-11,-2
-6,-15,-8,10,1,-11,0,-25,-21,-8,-11,-2
-5,-15,-8,10,2,-11,0,-25,-21,-8,-11,-2
-5,-15,-8,10,2,-11,0,-25,-21,-8,-11,-2
-5,-15,-8,11,2,-11,0,-25,-21,-8,-11,-3
-5,-14,-8,11,2,-11,0,-25,-20,-8,-11,-3
-5,-14,-8,11,2,-11,0,-25,-20,-8,-11,-3
-6,-14,-8,11,1,-11,0,-25,-20,-8,-11,-2
-7,-14,-7,11,0,-11,0,-25,-20,-8,-11,-2
-7,-14,-6,11,0,-10,0,-25,-20,-8,-11,-2
-8,-14,-6,11,0,-10,0,-25,-20,-8,-11,-2
-8,-14,-6,11,0,-10,0,-25,-20,-8,-11,-2
-8,-15,-6,11,0,-10,0,-25,-20,-8,-11,-2
-8,-15,-6,11,0,-10,0,-25,-20,-8,-11,-1
-8,-15,-6,11,0,-10,0,-25,-20,-8,-11,-1
-8,-15,-6,12,0,-10,0,-25,-20,-8,-12,-1
-9,-15,-6,12,0,-10,1,-25,-20,-8,-12,-1
-8,-15,-6,11,0,-11,1,-25,-20,-9,-13,-2
-7,-16,-8,11,1,-12,1,-24,-20,-9,-14,-4
-6,-17,-10,11,2,-14,1,-23,-20,-10,-15,-7
-6,-19,-12,11,4,-15,1,-21,-19,-11,-16,-9
-5,-19,-14,11,5,-16,3,-15,-16,-11,-16,-10
-3,-18,-14,10,6,-16,5,-5,-10,-9,-16,-11
-2,-16,-13,9,6,-15,8,8,-1,-5,-14,-10
-1,-12,-11,7,5,-12,11,23,10,1,-10,-8
2,-6,-9,2,6,-7,12,39,23,10,-3,-3
8,2,-7,-5,8,-2,12,53,39,23,6,3
16,11,-5,-13,11,4,10,61,55,39,18,12
24,21,-3,-22,13,10,7,60,68,56,31,21
32,31,-1,-32,17,16,2,50,78,73,46,32
42,44,2,-43,20,24,-3,31,85,91,62,45
51,58,7,-55,22,34,-10,6,92,112,81,59
60,75,15,-67,23,46,-18,-20,97,134,101,74
68,91,22,-80,24,58,-27,-49,99,154,121,90
76,106,30,-91,24,69,-35,-78,98,169,137,105
82,119,37,-100,24,79,-44,-104,93,178,150,118
84,126,41,-105,22,85,-52,-131,82,179,156,125
83,126,44,-105,20,86,-58,-155,64,170,153,126
78,120,42,-99,19,81,-62,-175,43,151,141,119
71,108,37,-90,18,73,-67,-190,17,125,122,107
61,94,33,-78,15,64,-72,-203,-12,94,101,93
48,81,33,-65,9,58,-75,-211,-44,61,79,78
35,69,33,-52,2,52,-75,-215,-74,29,58,65
24,58,33,-41,-3,47,-72,-210,-93,4,40,52
16,47,31,-31,-7,40,-67,-196,-98,-10,26,41
10,37,27,-24,-8,33,-61,-176,-94,-18,14,30
6,29,23,-18,-8,27,-54,-156,-86,-22,6,22
3,22,20,-13,-8,21,-48,-136,-77,-23,0,16
1,17,17,-10,-8,17,-41,-118,-68,-23,-3,12
0,13,15,-7,-7,14,-34,-102,-60,-21,-5,9
-2,10,13,-4,-7,12,-28,-88,-52,-19,-6,6
-3,8,12,-3,-6,10,-22,-77,-46,-18,-7,4
-4,5,10,-1,-6,8,-16,-67,-40,-16,-8,3
-6,2,8,1,-6,6,-11,-57,-35,-15,-9,2
-6,0,6,2,-6,3,-8,-49,-30,-13,-9,1
-6,-2,4,3,-5,1,-5,-41,-26,-12,-9,0
-6,-4,3,4,-4,0,-3,-34,-23,-11,-9,0
-6,-5,1,5,-3,-1,-2,-29,-20,-10,-9,0
-5,-5,0,5,-2,-2,-1,-26,-19,-10,-10,-1
-5,-6,-1,5,-1,-3,0,-24,-17,-10,-10,-2
-5,-6,-1,6,-1,-3,1,-22,-16,-9,-10,-2
-6,-7,-2,7,-2,-4,1,-21,-15,-9,-10,-2
-6,-8,-2,7,-2,-5,2,-19,-14,-9,-11,-2
-6,-9,-3,7,-1,-5,2,-17,-13,-9,-11,-2
-5,-9,-3,7,-1,-6,3,-15,-13,-9,-11,-2
-5,-9,-3,7,-1,-6,3,-13,-12,-9,-11,-2
-6,-10,-3,8,-1,-6,4,-12,-11,-9,-11,-2
-6,-10,-4,8,-1,-6,4,-11,-11,-9,-11,-2
-6,-10,-4,8,0,-6,5,-10,-10,-8,-11,-3
-6,-10,-4,8,0,-6,5,-10,-9,-7,-11,-3
-5,-10,-4,7,0,-6,5,-9,-8,-7,-10,-3
-5,-10,-4,7,0,-6,5,-8,-7,-6,-10,-2
-6,-10,-4,8,-1,-6,5,-7,-7,-6,-10,-2
-6,-10,-4,8,0,-6,5,-6,-6,-6,-10,-2
-6,-10,-5,8,0,-7,5,-5,-6,-6,-10,-2
-6,-11,-5,8,0,-7,6,-4,-5,-6,-10,-2
-6,-11,-5,8,0,-7,6,-4,-5,-6,-10,-1
-5,-10,-5,7,1,-7,6,-3,-4,-6,-10,-1
-3,-10,-6,6,1,-7,6,-3,-3,-5,-10,-1
-3,-9,-5,6,1,-7,6,-2,-3,-5,-10,-1
-3,-9,-5,6,1,-7,6,-1,-2,-5,-9,-1
-3,-9,-5,6,1,-7,6,0,-2,-5,-9,-1
-3,-9,-6,6,1,-7,6,0,-2,-5,-9,-1
-3,-9,-6,6,1,-7,6,0,-1,-4,-9,-2
-3,-9,-5,6,1,-7,7,1,-1,-4,-8,-2
-3,-10,-5,6,1,-7,7,1,0,-4,-8,-2
-3,-10,-5,6,1,-7,7,1,0,-4,-8,-2
-3,-9,-5,6,1,-7,7,2,0,-4,-8,-2
-3,-9,-5,5,1,-6,7,3,1,-4,-8,-1
-3,-8,-5,5,1,-6,8,4,2,-4,-8,-1
-3,-7,-5,5,1,-6,8,5,2,-4,-7,-1
-3,-7,-5,5,1,-5,8,5,3,-4,-7,-1
-3,-7,-5,5,1,-5,8,6,3,-3,-7,-1
-3,-7,-5,5,1,-5,8,6,4,-3,-7,-1
-3,-8,-4,5,1,-5,8,7,4,-3,-6,-1
-3,-8,-4,5,1,-5,8,7,5,-2,-6,-1
-2,-7,-4,4,1,-5,8,8,5,-2,-6,-1
-1,-6,-5,4,2,-5,8,9,6,-2,-6,-1
-1,-6,-4,4,1,-5,8,10,7,-1,-5,-1
-1,-6,-4,4,1,-4,8,11,7,-1,-5,-1
-1,-6,-4,3,1,-4,8,12,8,0,-5,-1
-1,-6,-4,3,2,-4,8,13,9,0,-4,-1
-1,-6,-4,3,2,-4,8,13,10,0,-4,-1
-1,-6,-4,3,1,-4,9,14,11,1,-3,-1
-1,-6,-4,3,1,-4,9,15,11,1,-3,0
-1,-5,-4,3,2,-4,9,16,12,1,-3,0
-1,-5,-4,3,2,-4,9,17,12,2,-3,0
-1,-5,-4,3,2,-4,9,19,13,2,-3,0
0,-5,-4,3,2,-3,10,20,14,3,-3,0
0,-5,-4,3,2,-3,10,21,15,3,-2,0
0,-5,-4,2,2,-3,10,22,16,4,-2,0
0,-5,-4,2,2,-3,10,23,17,4,-2,0
0,-4,-4,2,1,-3,10,25,18,4,-1,0
0,-4,-3,2,1,-2,10,26,19,5,-1,1
0,-3,-3,2,1,-2,10,28,20,5,0,1
0,-3,-3,1,1,-2,10,30,21,5,0,1
1,-2,-3,0,2,-2,11,32,23,5,0,1
1,-1,-2,0,2,-1,11,34,25,6,0,1
2,-1,-2,-1,2,-1,12,35,26,6,1,2
2,-1,-3,-1,2,-1,12,37,27,6,1,2
2,-1,-3,-1,2,-1,12,38,28,6,1,2
2,-1,-2,-1,2,-1,12,40,29,6,2,3
2,-1,-2,-1,2,-1,12,42,31,6,2,3
2,0,-2,-1,2,0,12,44,32,7,2,4
3,0,-2,-2,2,0,12,46,34,9,2,4
3,0,-2,-2,2,0,12,48,35,10,3,4
4,1,-2,-3,2,0,13,50,37,12,3,5
4,3,-2,-4,2,1,14,53,39,14,4,5
4,3,-1,-4,2,1,14,55,41,16,5,5
4,4,-1,-4,2,2,15,57,43,18,6,5
4,4,0,-4,2,2,15,60,45,20,7,5
4,5,0,-5,2,3,15,63,47,22,7,5
5,6,0,-5,3,3,16,66,49,23,8,5
5,6,0,-6,3,4,16,68,51,25,8,6
6,7,1,-6,2,4,16,70,53,27,9,6
6,7,1,-7,2,5,17,73,56,29,10,7
6,8,2,-8,2,6,17,75,58,31,11,8
7,9,2,-9,2,7,18,78,61,34,12,9
8,10,3,-10,3,8,18,81,63,36,13,10
9,12,3,-11,3,8,19,84,66,38,14,11
9,13,4,-11,3,9,19,87,68,40,15,12
10,14,4,-12,3,10,19,90,71,41,17,12
10,15,5,-12,2,11,20,93,73,43,18,13
10,16,6,-13,2,12,20,95,76,45,20,14
10,18,7,-14,1,13,21,97,79,47,22,15
11,19,8,-16,1,15,21,99,82,50,23,16
13,21,8,-17,2,16,21,102,84,52,25,18
14,23,8,-19,2,17,21,104,87,53,26,19
15,24,9,-20,2,18,21,106,89,55,27,20
16,25,9,-20,2,19,21,107,91,57,29,21
16,27,10,-21,2,20,21,108,93,58,30,23
17,29,12,-22,2,21,21,109,95,60,32,25
17,30,13,-23,2,23,21,110,97,63,34,27
17,32,14,-24,1,24,20,111,99,65,36,28
17,34,15,-26,1,26,20,111,100,67,37,30
19,36,16,-27,1,27,20,111,101,68,39,32
20,38,17,-29,1,28,20,110,102,70,41,34
21,39,18,-30,1,29,19,109,103,71,43,35
22,41,19,-31,0,31,19,108,103,73,45,37
23,43,21,-33,0,33,18,105,104,74,47,39
23,45,22,-34,0,35,17,102,104,75,49,40
24,47,22,-35,0,36,16,99,103,76,50,40
25,48,23,-36,0,37,15,96,103,77,52,41
25,50,24,-37,0,38,14,93,102,78,53,42
25,50,24,-38,0,38,13,89,100,78,53,43
25,51,25,-38,0,39,12,85,98,78,54,44
26,51,25,-39,0,39,10,80,96,78,54,45
26,52,25,-39,1,40,9,76,93,77,55,46
27,52,25,-39,1,39,7,71,90,77,55,46
27,52,25,-39,1,39,6,66,87,76,55,46
27,52,25,-39,1,39,5,61,84,75,55,46
27,51,25,-39,1,39,4,56,80,73,55,46
26,50,24,-38,1,38,3,51,76,71,54,45
26,49,23,-38,1,37,2,47,71,68,52,44
25,48,22,-37,1,36,2,42,67,66,51,43
24,46,22,-35,0,35,1,37,62,63,49,42
22,44,21,-33,0,33,1,32,58,60,47,40
21,41,20,-31,0,32,0,28,53,57,45,38
21,39,18,-29,1,30,0,23,49,53,42,36
20,37,15,-28,2,27,0,19,44,49,39,34
20,34,13,-26,2,24,-1,15,40,45,36,32
18,31,12,-25,2,22,-1,11,35,41,33,31
17,29,11,-23,2,21,-1,8,31,38,30,29
16,26,10,-21,2,19,-1,5,27,34,27,27
14,24,9,-19,2,18,-1,2,23,31,24,25
13,21,8,-17,2,16,-1,-1,19,27,21,22
11,18,7,-14,1,14,0,-4,16,24,19,20
9,16,7,-12,1,12,0,-7,13,21,16,18
7,13,6,-10,0,10,0,-9,10,18,14,16
5,10,4,-8,0,8,0,-11,7,15,11,14
4,8,3,-6,0,6,0,-13,4,12,9,13
3,6,3,-5,0,5,0,-15,2,10,7,11
3,5,2,-4,0,4,0,-17,0,8,5,9
2,3,1,-2,0,3,0,-18,-2,6,3,7
1,2,0,-1,0,2,0,-20,-4,5,2,6
0,0,0,0,0,1,1,-21,-5,3,1,5
0,-1,0,1,0,0,1,-22,-7,2,0,4
-1,-2,-1,2,0,-1,1,-23,-8,0,-1,3
-2,-4,-1,3,0,-2,1,-24,-9,-1,-2,2
-3,-5,-2,4,0,-3,1,-25,-10,-2,-3,1
-3,-6,-2,4,0,-3,1,-26,-11,-3,-4,0
-3,-6,-2,4,-1,-3,1,-26,-12,-3,-5,0
-3,-7,-2,5,-1,-3,1,-27,-12,-4,-5,-1
-4,-7,-2,5,-1,-3,1,-27,-13,-4,-5,-1
-4,-7,-2,5,-1,-4,1,-27,-13,-5,-5,-1
-4,-7,-2,6,-1,-4,1,-27,-13,-5,-5,-2
-5,-8,-2,6,-1,-5,2,-27,-14,-5,-6,-2
-5,-8,-3,7,-1,-5,2,-27,-14,-6,-6,-3
-6,-9,-3,7,-1,-5,2,-28,-15,-6,-7,-3
-6,-9,-3,8,-2,-5,2,-28,-15,-6,-7,-3
-7,-10,-3,8,-2,-6,2,-28,-15,-6,-7,-3
-8,-10,-2,9,-3,-6,2,-28,-15,-6,-7,-2
-9,-11,-2,10,-3,-6,2,-28,-15,-6,-7,-2
-7,-10,-3,8,-2,-6,2,-28,-15,-7,-7,-2
-5,-9,-4,7,0,-6,2,-28,-15,-7,-7,-2
-5,-9,-4,7,0,-7,2,-27,-15,-7,-7,-2
-5,-10,-4,7,-1,-6,3,-27,-15,-7,-7,-1
-5,-10,-4,7,-1,-6,3,-27,-15,-8,-7,-1
-5,-10,-4,7,0,-7,2,-27,-15,-8,-7,-1
-5,-10,-5,7,0,-7,2,-27,-15,-8,-7,-1
-5,-10,-5,7,0,-7,2,-27,-15,-8,-7,-2
-5,-10,-5,7,0,-7,2,-27,-15,-8,-7,-2
-5,-10,-5,8,0,-7,2,-27,-15,-7,-7,-2
-6,-10,-5,8,-1,-7,2,-27,-15,-7,-7,-2
-6,-10,-5,8,-1,-7,2,-26,-15,-7,-7,-2
-6,-10,-5,8,-1,-7,3,-26,-15,-7,-7,-1
-6,-10,-5,8,-1,-8,3,-26,-15,-7,-7,-1
-7,-11,-5,9,-1,-8,3,-26,-15,-7,-7,-1
-7,-11,-5,9,-1,-8,3,-26,-15,-7,-7,-1
-7,-11,-5,8,-1,-8,3,-26,-15,-7,-7,-1
-6,-11,-5,8,-1,-8,3,-26,-15,-7,-7,-1
-6,-11,-4,8,-1,-7,3,-26,-15,-8,-7,-1
-6,-11,-4,8,-1,-7,3,-25,-15,-8,-7,-1
-6,-11,-4,8,-1,-7,3,-25,-15,-8,-8,-2
-6,-10,-5,8,-1,-7,3,-25,-15,-8,-8,-2
-6,-10,-5,8,-1,-7,3,-25,-15,-8,-8,-2
-7,-10,-4,8,-1,-7,3,-25,-15,-8,-8,-2
-7,-10,-4,8,-2,-7,3,-25,-15,-8,-8,-2
-7,-10,-4,8,-2,-7,3,-25,-16,-8,-8,-2
-7,-10,-4,9,-2,-7,3,-25,-16,-8,-9,-2
-7,-10,-4,9,-2,-7,3,-25,-16,-8,-9,-2
-7,-10,-4,9,-2,-7,3,-25,-16,-8,-9,-2
-7,-10,-4,9,-2,-7,3,-25,-16,-8,-9,-2
-7,-10,-4,8,-1,-7,3,-25,-16,-8,-9,-2
-6,-9,-4,8,-1,-7,3,-25,-16,-9,-9,-2
-6,-9,-4,8,-1,-7,3,-25,-16,-9,-9,-2
-7,-9,-3,8,-2,-7,3,-25,-16,-9,-9,-2
-7,-9,-3,8,-2,-7,3,-25,-16,-9,-9,-3
-6,-9,-3,8,-1,-7,3,-25,-16,-9,-9,-3
-6,-9,-4,8,-1,-7,3,-24,-16,-10,-9,-4
-5,-9,-4,8,0,-7,3,-24,-16,-10,-9,-4
-6,-9,-4,8,0,-7,2,-24,-16,-10,-9,-4
-6,-9,-4,8,0,-7,2,-24,-16,-10,-9,-5
-5,-10,-5,8,0,-7,2,-24,-17,-11,-10,-5
-5,-10,-5,8,0,-7,2,-24,-17,-11,-10,-5
-5,-9,-5,8,0,-7,2,-24,-17,-11,-10,-5
-5,-9,-4,7,0,-7,2,-24,-17,-11,-10,-4
-5,-8,-4,7,0,-7,2,-24,-17,-11,-10,-4
-5,-8,-4,7,0,-7,2,-24,-17,-11,-10,-4
-6,-8,-4,7,-1,-6,2,-24,-17,-11,-10,-4
-6,-7,-4,7,-1,-6,2,-24,-17,-12,-10,-4
-5,-7,-3,6,-1,-5,2,-24,-17,-12,-10,-4
-5,-7,-3,6,-1,-5,2,-24,-18,-12,-10,-4
-5,-7,-3,6,-1,-5,2,-24,-18,-12,-11,-4
-5,-8,-3,6,-1,-5,1,-25,-19,-13,-11,-4
-5,-7,-3,6,-1,-5,1,-25,-19,-13,-12,-4
-4,-6,-3,5,-1,-4,1,-25,-19,-14,-12,-4
-4,-6,-3,5,-1,-4,1,-25,-19,-14,-12,-4
-3,-5,-3,5,0,-4,0,-25,-20,-15,-12,-4
-3,-5,-3,5,0,-4,0,-25,-20,-15,-12,-4
-3,-5,-3,5,0,-4,0,-25,-20,-15,-12,-4
-3,-5,-3,5,0,-4,0,-25,-20,-15,-12,-4
-3,-5,-3,5,0,-4,0,-25,-20,-15,-12,-5
-3,-6,-3,5,0,-4,0,-25,-20,-15,-13,-5
-4,-6,-3,5,0,-5,0,-25,-20,-16,-13,-5
-4,-6,-3,6,0,-5,0,-25,-21,-16,-13,-5
-4,-6,-3,6,0,-5,0,-25,-21,-16,-13,-4
-3,-6,-4,5,0,-5,1,-25,-21,-16,-13,-4
-3,-5,-4,4,0,-5,1,-25,-21,-16,-13,-4
-2,-5,-4,4,0,-5,1,-25,-21,-15,-13,-4
-2,-5,-4,4,0,-5,1,-24,-20,-15,-13,-4
-2,-5,-4,4,0,-4,1,-24,-20,-15,-13,-4
-2,-5,-4,4,0,-4,1,-24,-20,-15,-13,-4
-3,-5,-4,4,0,-4,1,-24,-20,-15,-13,-5
-3,-5,-4,4,0,-4,1,-24,-20,-16,-13,-5
-3,-5,-4,4,0,-4,1,-24,-20,-16,-12,-5
-3,-5,-4,4,0,-4,1,-24,-20,-16,-12,-5
-2,-5,-4,4,0,-4,0,-24,-20,-17,-13,-5
-2,-5,-4,4,0,-5,0,-24,-21,-17,-13,-6
-2,-5,-4,4,0,-5,0,-24,-21,-17,-13,-7
-2,-4,-4,3,0,-5,0,-24,-21,-17,-13,-7
-1,-4,-4,3,0,-4,0,-24,-20,-17,-13,-7
-1,-4,-4,3,0,-4,0,-24,-20,-17,-13,-7
-2,-4,-3,3,0,-4,0,-24,-20,-17,-13,-7
-2,-5,-3,3,0,-4,0,-24,-20,-17,-12,-7
-2,-5,-3,3,0,-4,0,-24,-20,-17,-12,-7
-2,-5,-3,3,0,-4,0,-24,-20,-17,-12,-7
-2,-4,-2,3,0,-3,0,-24,-20,-17,-12,-7
-2,-4,-2,3,0,-3,0,-24,-20,-16,-12,-7
-2,-4,-3,3,0,-4,0,-24,-20,-16,-12,-8
-2,-4,-4,3,1,-4,0,-24,-20,-16,-12,-9
-2,-4,-4,3,0,-4,0,-24,-20,-16,-12,-9
-2,-4,-3,3,0,-4,0,-24,-20,-16,-12,-9
-2,-4,-3,4,0,-4,0,-24,-20,-16,-12,-9
-2,-4,-3,4,0,-4,0,-24,-20,-16,-12,-9
-2,-4,-3,3,0,-4,0,-24,-20,-15,-11,-9
-2,-4,-3,3,0,-4,0,-24,-20,-14,-11,-9
-2,-4,-3,3,0,-4,0,-24,-20,-14,-10,-9
-2,-4,-3,3,0,-4,0,-24,-19,-14,-10,-9
-2,-4,-3,3,0,-4,0,-23,-19,-14,-10,-8
-2,-4,-3,3,0,-4,0,-23,-19,-13,-10,-8
-3,-5,-3,3,0,-4,0,-23,-19,-13,-10,-8
-3,-5,-3,4,0,-4,-1,-23,-19,-13,-10,-8
-3,-5,-3,4,0,-4,-1,-23,-19,-12,-10,-9
-3,-6,-3,4,0,-4,-2,-23,-19,-12,-10,-9
-3,-6,-3,4,-1,-4,-2,-23,-19,-12,-10,-9
-3,-6,-3,4,-1,-4,-2,-24,-19,-12,-9,-9
-3,-6,-3,4,-1,-4,-2,-24,-19,-12,-9,-9
-3,-6,-3,4,-1,-4,-2,-24,-19,-12,-9,-9
-2,-6,-3,4,0,-4,-2,-24,-19,-12,-9,-8
-2,-6,-3,4,0,-4,-2,-24,-19,-12,-9,-8
-2,-5,-3,4,-1,-4,-1,-24,-19,-12,-9,-8
-2,-5,-3,3,0,-4,-1,-24,-19,-12,-9,-8
-2,-5,-3,3,0,-4,-1,-24,-19,-12,-9,-8
-3,-5,-3,4,-1,-4,-1,-24,-18,-12,-9,-8
-3,-5,-3,4,0,-4,-2,-24,-18,-12,-9,-8
-3,-6,-4,4,0,-4,-2,-24,-19,-12,-9,-8
-3,-6,-3,4,0,-4,-2,-24,-19,-12,-9,-8
-3,-6,-3,5,-1,-4,-2,-24,-19,-12,-9,-9
-3,-6,-3,5,-1,-4,-2,-24,-18,-12,-9,-9
-3,-6,-3,4,-1,-4,-2,-24,-18,-12,-9,-9
-3,-6,-3,4,-1,-4,-2,-24,-18,-12,-9,-9
-3,-6,-3,4,0,-4,-2,-24,-18,-12,-10,-9
-2,-5,-3,3,0,-4,-2,-24,-18,-12,-10,-9
-2,-6,-3,4,0,-4,-2,-24,-18,-12,-9,-9
-3,-6,-3,4,0,-4,-2,-24,-18,-12,-9,-10
-3,-6,-3,4,0,-4,-2,-24,-18,-12,-9,-10
-3,-6,-3,4,0,-4,-2,-24,-18,-11,-9,-9
-3,-5,-3,4,0,-4,-2,-24,-18,-11,-9,-9
-3,-5,-3,4,0,-4,-2,-24,-18,-11,-9,-9
-3,-5,-3,4,0,-4,-2,-24,-18,-11,-9,-9
-3,-6,-3,4,0,-4,-2,-24,-18,-11,-9,-9
-3,-6,-3,4,0,-4,-2,-24,-18,-11,-9,-9
-3,-6,-3,5,-1,-4,-2,-24,-18,-11,-9,-9
-3,-6,-3,5,-1,-4,-2,-24,-18,-11,-9,-9
-3,-7,-3,5,-1,-4,-2,-24,-18,-11,-9,-9
-4,-7,-3,5,-1,-4,-2,-24,-18,-11,-9,-9
-4,-7,-3,5,-1,-4,-2,-24,-17,-11,-9,-9
-4,-7,-3,5,-1,-4,-1,-24,-17,-11,-9,-9
-3,-6,-3,5,-1,-4,-1,-24,-17,-11,-9,-9
-3,-6,-3,5,-1,-4,-1,-24,-16,-11,-9,-8
-4,-6,-3,5,-1,-4,-1,-24,-16,-11,-9,-8
-4,-6,-2,5,-2,-4,-1,-24,-16,-11,-9,-8
-4,-6,-2,5,-2,-4,-1,-24,-16,-11,-9,-8
-4,-6,-2,5,-2,-4,-1,-24,-16,-11,-9,-8
-5,-7,-2,6,-2,-4,-1,-24,-16,-11,-9,-8
-5,-7,-1,7,-3,-4,-1,-24,-16,-11,-9,-8
-6,-8,-1,7,-3,-5,-1,-24,-16,-11,-9,-8
-5,-8,-2,7,-3,-5,-2,-24,-16,-12,-9,-8
-5,-8,-3,6,-2,-5,-2,-24,-16,-12,-9,-8
-4,-7,-3,6,-2,-4,-2,-24,-16,-12,-9,-7
-4,-7,-3,5,-2,-4,-1,-23,-16,-11,-9,-7
-4,-7,-3,5,-2,-4,-1,-23,-16,-11,-9,-8
-4,-7,-3,5,-2,-4,-1,-23,-16,-11,-9,-8
-4,-7,-3,5,-2,-4,-1,-23,-16,-12,-9,-8
-4,-8,-3,6,-2,-5,-2,-23,-16,-12,-9,-8
-5,-8,-4,6,-2,-5,-2,-23,-16,-13,-9,-8
-5,-8,-3,6,-2,-5,-1,-22,-16,-12,-9,-8
-5,-7,-3,6,-2,-4,-1,-22,-15,-12,-9,-8
-4,-7,-3,6,-2,-4,-1,-22,-15,-12,-9,-8
-4,-8,-3,6,-2,-5,-1,-22,-15,-12,-9,-8
-5,-8,-3,7,-2,-6,-1,-22,-16,-12,-9,-9
-5,-8,-3,7,-2,-6,-1,-22,-16,-12,-9,-9
-5,-7,-3,6,-2,-5,-1,-22,-15,-11,-8,-9
-5,-7,-3,6,-2,-5,0,-21,-15,-11,-8,-9
-5,-8,-3,7,-3,-5,0,-21,-15,-11,-8,-9
-5,-8,-3,7,-3,-5,0,-21,-15,-11,-8,-9
-5,-8,-3,7,-3,-5,0,-21,-15,-11,-8,-9
-5,-8,-3,7,-2,-5,0,-21,-15,-11,-8,-9
-5,-8,-3,7,-2,-5,0,-21,-15,-11,-8,-9
-4,-8,-3,6,-2,-5,0,-21,-15,-11,-8,-8
-5,-8,-3,6,-2,-5,0,-21,-14,-11,-8,-8
-6,-8,-3,7,-2,-6,0,-21,-14,-11,-8,-7
-6,-9,-3,7,-3,-6,0,-21,-14,-10,-8,-7
-7,-9,-3,8,-3,-6,0,-21,-14,-10,-7,-7
-8,-9,-2,8,-4,-5,0,-20,-14,-9,-7,-6
-7,-9,-2,8,-4,-5,0,-20,-13,-9,-7,-6
-6,-9,-3,8,-3,-6,0,-20,-13,-9,-7,-6
-6,-9,-4,8,-2,-6,0,-20,-14,-10,-7,-7
-6,-9,-4,8,-2,-6,0,-20,-14,-10,-7,-7
-6,-9,-4,8,-2,-6,0,-20,-14,-10,-7,-6
-6,-9,-4,8,-2,-6,0,-20,-13,-9,-7,-6
-6,-10,-4,8,-3,-6,0,-20,-13,-9,-7,-5
-6,-10,-4,8,-3,-7,0,-20,-13,-9,-7,-5
-6,-11,-4,8,-2,-7,0,-19,-13,-9,-7,-5
-6,-11,-4,8,-2,-7,1,-19,-12,-9,-7,-5
-7,-11,-3,9,-3,-7,1,-18,-12,-9,-7,-4
-8,-11,-3,9,-4,-7,1,-18,-12,-9,-6,-3
-9,-11,-3,10,-4,-7,2,-18,-12,-9,-6,-3
-9,-11,-3,10,-4,-7,2,-18,-12,-8,-6,-3
-9,-11,-3,10,-4,-7,2,-18,-12,-8,-6,-2
-9,-12,-3,10,-4,-7,2,-18,-12,-8,-6,-2
-9,-12,-3,10,-4,-7,2,-18,-12,-8,-6,-1
-9,-13,-3,11,-4,-7,2,-17,-11,-8,-6,-1
-9,-13,-3,11,-4,-7,2,-17,-11,-8,-5,0
-9,-13,-3,11,-3,-7,2,-16,-10,-8,-5,0
-9,-13,-3,11,-3,-7,2,-16,-10,-8,-5,0
-9,-13,-3,11,-3,-8,2,-16,-10,-8,-5,0
-10,-14,-3,12,-3,-8,2,-16,-10,-8,-5,0
-10,-14,-3,12,-4,-8,3,-15,-10,-8,-5,-1
-10,-13,-3,12,-4,-8,4,-15,-10,-8,-4,-1
-9,-13,-3,11,-4,-7,4,-15,-10,-8,-4,-1
-9,-12,-3,11,-4,-7,5,-15,-10,-8,-4,-1
-10,-12,-2,11,-4,-6,5,-14,-9,-8,-4,-1
-10,-11,-2,10,-4,-6,5,-14,-9,-8,-3,-1
-9,-11,-2,10,-4,-6,5,-14,-9,-8,-3,-1
-8,-10,-2,9,-4,-5,6,-14,-9,-8,-3,-2
-8,-9,-2,8,-3,-5,6,-14,-9,-7,-3,-2
-8,-8,-1,7,-4,-4,7,-13,-8,-7,-2,-2
-8,-7,1,7,-5,-2,8,-12,-7,-5,-1,0
-8,-6,2,7,-6,-1,9,-12,-7,-4,-1,0
-8,-5,2,7,-6,-1,10,-11,-7,-4,-1,0
-7,-5,2,6,-5,0,10,-11,-7,-3,-1,0
-7,-4,3,6,-6,0,10,-11,-7,-3,0,0
-7,-4,3,6,-6,0,10,-11,-7,-3,0,-1
-5,-3,2,4,-4,0,10,-11,-8,-4,-1,-1
-3,-2,1,3,-3,-1,9,-11,-8,-4,-1,-2
-3,-2,1,2,-3,0,9,-11,-7,-4,-1,-2
-3,-2,1,2,-3,0,9,-11,-7,-4,-1,-2
-3,-3,0,3,-2,-1,8,-12,-8,-5,-1,-2
-3,-4,0,3,-2,-1,6,-12,-8,-5,-2,-2
-4,-5,0,4,-2,-2,4,-13,-9,-5,-2,-3
-4,-5,0,5,-3,-2,3,-14,-9,-5,-2,-3
-5,-5,0,5,-3,-2,3,-14,-9,-5,-2,-2
-5,-5,0,5,-3,-2,3,-15,-10,-5,-2,-2
-5,-4,0,5,-3,-2,3,-15,-10,-5,-2,-2
-5,-4,0,4,-3,-2,2,-16,-11,-5,-2,-2
-5,-4,0,4,-3,-2,1,-17,-11,-5,-2,-2
-5,-4,0,4,-2,-2,1,-17,-12,-5,-2,-2
-4,-4,0,4,-2,-1,0,-17,-12,-4,-2,-1
-3,-3,-1,3,-1,-1,0,-17,-12,-4,-2,-1
-2,-4,-2,2,0,-2,0,-17,-12,-4,-2,-1
-2,-5,-3,2,0,-3,-1,-18,-12,-4,-3,-1
-1,-5,-5,2,1,-4,-1,-18,-13,-5,-3,-1
0,-6,-6,2,3,-6,-1,-18,-13,-5,-3,-2
1,-6,-8,2,4,-7,-1,-18,-13,-5,-3,-3
1,-6,-8,2,4,-7,-1,-18,-13,-5,-3,-4
1,-7,-8,2,4,-7,-1,-18,-13,-5,-4,-4
0,-7,-8,3,3,-7,-1,-19,-14,-6,-4,-5
-1,-8,-8,4,2,-7,-1,-20,-15,-7,-5,-5
-1,-9,-8,5,2,-7,-1,-20,-15,-7,-5,-6
-2,-9,-7,5,2,-7,-1,-20,-16,-8,-5,-6
-3,-9,-7,5,1,-7,-1,-20,-16,-8,-6,-6
-5,-10,-6,7,0,-7,-1,-20,-16,-9,-6,-6
-6,-10,-5,8,-1,-7,-1,-20,-16,-9,-6,-6
-5,-10,-5,8,0,-7,-1,-21,-17,-9,-6,-7
-5,-11,-6,8,0,-8,-1,-21,-17,-10,-6,-8
-6,-12,-6,8,0,-8,-1,-21,-18,-10,-7,-9
-6,-12,-7,8,0,-9,-1,-21,-18,-11,-7,-9
-6,-13,-7,8,0,-9,-2,-22,-18,-11,-7,-10
-5,-13,-7,9,0,-10,-2,-22,-18,-11,-8,-10
-6,-14,-7,10,0,-10,-2,-23,-18,-12,-8,-10
-6,-15,-8,10,0,-11,-3,-23,-19,-12,-9,-11
-5,-15,-9,10,1,-11,-4,-23,-20,-13,-10,-11
-5,-15,-9,10,1,-11,-3,-23,-20,-13,-10,-11
-6,-15,-10,10,1,-11,-3,-23,-20,-12,-10,-11
-6,-16,-10,10,1,-11,-3,-23,-20,-12,-10,-11
-6,-16,-10,10,1,-11,-2,-23,-20,-12,-10,-11
-5,-15,-10,10,1,-11,-2,-23,-19,-12,-10,-11
-5,-15,-10,10,1,-11,-2,-23,-19,-12,-10,-11
-5,-15,-9,10,1,-12,-2,-23,-19,-12,-11,-11
-5,-15,-9,10,1,-12,-2,-23,-19,-12,-11,-12
-5,-15,-9,10,1,-12,-2,-23,-19,-12,-12,-12
-6,-15,-9,10,0,-12,-1,-22,-18,-12,-12,-12
-6,-15,-8,10,0,-11,-1,-22,-18,-13,-12,-12
-6,-16,-8,11,0,-11,-1,-22,-18,-13,-12,-12
-7,-16,-8,11,0,-11,-1,-22,-18,-14,-12,-12
-7,-16,-8,11,0,-11,-1,-22,-18,-15,-12,-12
-7,-16,-8,11,0,-11,-1,-22,-18,-15,-12,-11
-7,-16,-8,11,0,-11,0,-22,-18,-15,-12,-11
-7,-16,-8,11,0,-11,0,-21,-18,-15,-12,-11
-8,-16,-8,12,0,-11,0,-21,-18,-15,-12,-11
-8,-16,-8,12,0,-11,0,-21,-18,-16,-12,-11
-7,-16,-8,11,0,-11,0,-21,-18,-17,-12,-11
-7,-16,-8,11,0,-11,0,-20,-18,-17,-12,-11
-7,-16,-8,11,-1,-11,0,-20,-18,-17,-12,-11
-8,-16,-7,12,-1,-11,0,-20,-18,-16,-13,-11
-8,-16,-7,12,-1,-11,0,-20,-17,-15,-13,-11
-8,-16,-7,12,-1,-11,0,-20,-17,-14,-13,-11
-8,-16,-7,11,-1,-10,0,-20,-17,-13,-13,-11
-8,-16,-7,11,-1,-10,0,-20,-17,-13,-13,-11
-8,-16,-7,11,-1,-11,0,-20,-17,-13,-13,-11
-8,-16,-7,11,-1,-11,0,-20,-17,-13,-13,-11
-7,-16,-8,11,0,-11,0,-20,-17,-13,-13,-11
-7,-17,-10,11,1,-13,0,-19,-16,-13,-14,-12
-6,-18,-12,12,2,-14,1,-18,-16,-14,-16,-14
-4,-19,-14,12,4,-16,2,-15,-15,-14,-17,-16
-3,-20,-16,12,6,-17,3,-9,-12,-14,-18,-17
-3,-20,-17,11,7,-17,6,1,-7,-12,-18,-17
-2,-18,-15,10,7,-15,8,14,1,-8,-15,-15
0,-13,-13,6,7,-12,10,29,13,0,-10,-11
5,-7,-11,1,8,-8,11,45,27,10,-3,-5
10,0,-9,-5,9,-3,10,59,43,24,7,2
17,10,-7,-14,11,2,8,66,59,40,19,11
26,21,-4,-23,14,9,4,65,71,57,32,21
35,32,-2,-34,17,16,0,54,81,74,47,32
44,45,1,-45,21,24,-6,33,88,92,63,44
53,59,7,-56,23,34,-13,8,94,113,82,58
61,76,15,-69,23,46,-21,-18,99,134,102,74
70,92,23,-81,23,58,-29,-47,100,152,121,90
78,107,30,-93,24,69,-37,-74,98,165,137,104
84,119,35,-101,24,78,-45,-101,91,172,147,115
87,125,39,-106,23,83,-53,-127,78,170,151,121
85,125,40,-105,21,84,-58,-150,59,159,147,120
78,116,39,-97,19,79,-61,-169,37,139,133,112
70,103,34,-86,17,70,-66,-184,11,111,114,98
58,88,31,-73,13,61,-70,-197,-19,80,92,83
45,75,31,-60,7,54,-73,-205,-50,47,70,68
33,63,32,-48,0,49,-72,-207,-77,17,50,55
23,53,31,-38,-4,43,-69,-200,-92,-4,34,44
15,43,28,-29,-7,37,-63,-184,-94,-17,20,33
9,33,25,-21,-9,30,-57,-164,-89,-23,10,24
5,25,22,-15,-9,25,-51,-144,-82,-26,2,16
2,19,19,-11,-9,20,-45,-125,-73,-26,-2,11
0,15,17,-8,-9,17,-38,-107,-64,-25,-5,8
-1,12,15,-5,-8,14,-32,-92,-55,-24,-6,5
-2,8,13,-3,-8,11,-25,-79,-47,-22,-8,3
-4,5,11,0,-8,9,-20,-68,-41,-21,-9,1
-5,2,9,1,-8,6,-14,-57,-35,-19,-10,0
-5,0,6,2,-6,4,-9,-48,-30,-17,-11,0
-5,-1,5,3,-6,2,-6,-39,-25,-15,-11,0
-6,-3,3,4,-5,0,-3,-31,-21,-14,-11,-1
-5,-5,2,5,-4,-1,-2,-25,-18,-13,-11,-1
-5,-6,0,5,-3,-2,-1,-21,-16,-12,-11,-2
-4,-7,-1,6,-2,-4,0,-18,-15,-12,-12,-3
-4,-8,-2,6,-2,-5,1,-16,-13,-12,-12,-3
-5,-9,-3,7,-2,-5,2,-14,-12,-12,-12,-3
-5,-9,-3,7,-2,-6,2,-12,-11,-11,-12,-4
-5,-9,-3,7,-2,-6,3,-10,-11,-11,-12,-5
-6,-10,-3,7,-2,-6,3,-8,-10,-10,-12,-5
-6,-10,-3,7,-2,-6,4,-6,-9,-10,-12,-6
-6,-11,-3,8,-2,-6,4,-5,-8,-10,-12,-6
-6,-11,-3,8,-2,-6,4,-3,-7,-9,-12,-6
-6,-11,-4,8,-1,-6,5,-2,-6,-9,-12,-6
-6,-12,-4,8,-1,-7,5,-1,-5,-9,-12,-6
-6,-12,-5,8,-1,-7,5,-1,-4,-9,-13,-6
-6,-13,-5,9,-1,-8,5,0,-4,-9,-13,-6
-6,-13,-6,9,-1,-9,5,0,-4,-9,-13,-7
-5,-13,-6,9,0,-9,5,1,-4,-8,-12,-7
-4,-12,-6,8,0,-8,6,3,-3,-8,-12,-7
-4,-11,-6,8,0,-8,6,4,-2,-8,-12,-7
-4,-12,-6,8,0,-8,6,4,-1,-8,-12,-7
-5,-12,-6,8,0,-8,6,5,-1,-8,-11,-6
-4,-11,-6,7,0,-7,6,5,0,-7,-11,-6
-3,-11,-6,6,0,-7,6,6,0,-7,-11,-6
-3,-10,-6,6,0,-7,7,7,0,-6,-11,-7
-3,-10,-6,6,0,-7,7,8,1,-6,-11,-7
-3,-10,-5,6,0,-7,7,9,2,-5,-11,-7
-4,-11,-5,7,0,-7,7,9,2,-5,-11,-8
-5,-11,-5,7,0,-7,7,10,3,-5,-11,-8
-4,-10,-5,7,0,-7,7,10,3,-5,-11,-8
-4,-10,-5,6,0,-6,7,11,4,-4,-10,-7
-4,-10,-5,6,0,-6,7,11,4,-4,-10,-7
-4,-10,-5,6,0,-6,7,12,5,-4,-10,-7
-3,-9,-5,6,0,-6,7,13,5,-4,-9,-7
-3,-8,-5,5,0,-5,7,14,6,-3,-9,-7
-3,-8,-5,5,0,-5,8,15,7,-3,-8,-7
-3,-8,-5,5,0,-5,8,16,7,-3,-8,-7
-3,-8,-5,5,0,-5,8,16,8,-3,-8,-7
-2,-8,-5,5,0,-6,8,16,8,-3,-8,-7
-2,-8,-6,4,1,-6,8,17,8,-3,-8,-7
-2,-8,-6,4,1,-6,8,18,9,-2,-8,-6
-2,-8,-6,4,1,-6,8,19,9,-2,-8,-6
-2,-8,-5,4,1,-5,8,20,10,-2,-8,-6
-2,-8,-5,4,0,-5,8,21,11,-1,-8,-6
-2,-7,-4,4,0,-5,9,22,12,-1,-8,-6
-2,-7,-4,4,0,-4,9,23,13,0,-7,-6
-2,-7,-4,4,0,-4,9,23,14,0,-7,-6
-2,-7,-4,4,0,-5,9,24,14,0,-7,-6
-2,-7,-4,4,0,-5,9,25,15,1,-6,-6
-2,-7,-4,4,0,-5,9,26,16,1,-6,-6
-2,-6,-4,4,0,-5,9,27,17,2,-6,-6
-2,-6,-4,4,0,-5,10,29,18,2,-6,-6
-1,-6,-4,3,0,-5,10,30,19,3,-6,-6
-1,-6,-4,3,0,-4,10,31,20,3,-6,-6
-1,-5,-4,3,0,-4,10,32,21,4,-5,-5
-1,-5,-3,2,0,-3,11,33,22,4,-4,-4
-1,-4,-3,2,0,-3,11,34,23,5,-4,-4
-1,-4,-3,2,0,-3,12,36,24,5,-3,-3
-1,-4,-3,2,0,-3,12,38,25,6,-3,-2
0,-4,-3,1,0,-3,12,39,25,6,-2,-2
0,-4,-3,1,0,-3,11,41,26,6,-2,-2
0,-4,-3,1,0,-2,11,42,27,7,-1,-2
0,-4,-2,1,0,-2,11,44,28,7,-1,-2
0,-4,-2,1,0,-2,11,45,30,8,0,-1
0,-3,-2,1,0,-2,11,47,31,9,0,-1
1,-3,-3,0,0,-2,12,48,32,9,0,-1
1,-2,-3,0,1,-2,12,50,33,10,0,-1
1,-1,-2,0,0,-1,13,53,35,12,0,0
1,-1,-2,0,0,-1,13,55,36,13,1,0
2,0,-2,-1,1,0,14,57,38,14,1,0
3,0,-2,-2,1,0,14,59,40,15,2,1
3,1,-1,-3,1,1,14,61,42,16,2,1
3,1,-1,-3,1,1,14,63,43,17,3,1
4,2,-1,-4,1,1,15,65,45,18,3,2
4,3,0,-4,1,2,15,68,47,19,4,3
4,4,0,-5,1,3,16,71,49,21,5,3
4,4,0,-4,0,3,16,74,51,22,6,4
4,4,0,-4,0,3,16,76,53,23,7,4
5,5,0,-5,1,4,17,79,55,24,7,5
6,6,0,-6,1,4,17,81,58,25,8,5
7,6,1,-7,1,4,17,84,60,26,9,6
7,8,1,-8,1,5,18,87,63,28,10,7
8,9,2,-9,1,6,18,90,65,30,11,8
9,11,2,-10,2,7,18,93,68,31,12,9
10,12,2,-11,2,8,18,96,70,33,13,9
10,13,3,-12,2,9,18,99,72,34,14,10
10,14,4,-12,1,10,19,101,74,36,15,11
11,15,5,-13,1,11,19,104,77,37,16,12
11,16,6,-14,1,13,20,106,79,39,18,14
12,18,8,-15,1,14,20,108,82,41,19,15
12,19,8,-16,1,15,20,111,84,44,21,16
13,21,9,-17,1,16,20,113,86,46,22,17
14,23,9,-18,1,17,20,115,88,47,24,19
14,24,10,-19,1,18,20,117,90,49,25,20
15,25,11,-20,0,19,20,119,92,50,27,22
16,27,12,-22,1,21,20,120,94,52,29,23
18,29,12,-23,1,22,20,121,97,54,31,25
19,31,13,-25,1,23,20,122,99,56,32,26
19,33,15,-26,1,25,20,122,100,58,34,28
19,34,16,-27,0,26,20,122,101,59,36,30
20,36,17,-28,0,28,19,122,102,61,38,32
20,37,17,-29,0,29,19,122,103,62,39,34
21,39,18,-30,0,30,18,121,104,63,41,35
23,41,19,-32,1,31,17,119,104,65,42,36
25,43,20,-33,1,33,17,117,105,66,44,38
25,45,21,-35,0,34,16,115,105,68,46,39
26,47,22,-36,0,36,15,112,104,69,47,40
26,48,23,-37,0,37,14,109,103,70,49,41
27,50,24,-38,0,38,14,106,102,71,50,42
27,51,24,-39,0,38,13,102,100,71,51,43
27,51,24,-39,0,38,11,98,98,70,51,43
27,51,24,-39,0,39,10,93,96,70,51,44
28,51,25,-39,0,39,8,88,93,69,51,44
29,52,24,-40,0,39,6,83,91,69,51,44
30,52,24,-41,1,39,5,78,88,68,51,44
29,51,23,-40,1,39,4,73,84,66,51,43
29,50,23,-39,1,38,3,69,80,65,50,43
28,49,23,-38,1,38,2,64,76,63,49,43
27,48,22,-37,1,37,2,60,71,61,48,42
27,47,21,-37,1,36,1,56,67,58,47,41
26,45,20,-36,1,34,0,51,62,55,45,39
25,43,19,-34,1,33,0,47,58,52,43,37
24,41,18,-32,0,31,-1,42,53,48,40,35
22,38,17,-30,0,30,-1,38,49,45,38,33
21,36,16,-28,0,28,-1,34,45,41,35,32
19,33,15,-26,0,26,-1,31,40,37,33,30
18,31,14,-24,0,24,-1,28,36,34,30,27
15,28,13,-21,-1,22,-1,24,31,30,27,25
14,25,12,-19,-1,20,-1,21,27,26,23,22
13,22,11,-18,-1,18,-1,18,24,22,20,20
11,20,9,-16,-1,16,0,15,20,19,18,17
10,17,8,-14,-1,14,0,12,17,16,15,15
9,15,7,-12,-1,12,0,10,14,13,13,13
7,12,6,-10,-1,10,0,7,11,11,10,11
6,10,5,-8,-1,9,0,5,8,8,8,9
5,8,4,-6,-1,7,0,3,6,6,5,7
4,6,3,-5,-1,6,0,1,3,3,3,5
3,4,3,-3,-1,4,0,0,1,1,2,4
2,2,2,-2,-1,3,0,-2,-1,-1,0,3
2,1,1,-1,-1,1,0,-4,-3,-2,-1,1
0,0,0,0,-2,0,0,-5,-4,-3,-2,0
-1,-2,0,1,-2,0,1,-6,-6,-4,-3,-1
-2,-3,0,2,-2,-1,1,-7,-7,-5,-4,-1
-3,-3,0,3,-2,-1,1,-7,-8,-6,-5,-2
-3,-4,-1,3,-2,-2,1,-8,-9,-7,-6,-2
-3,-5,-1,4,-2,-2,1,-9,-10,-8,-7,-3
-3,-5,-1,4,-2,-3,1,-10,-11,-8,-8,-3
-3,-6,-2,4,-2,-3,1,-11,-11,-9,-8,-4
-3,-7,-2,5,-2,-3,1,-11,-12,-9,-8,-5
-3,-8,-2,6,-2,-4,0,-12,-12,-9,-9,-5
-4,-8,-3,6,-2,-4,0,-12,-13,-9,-9,-6
-4,-9,-3,7,-3,-4,0,-12,-13,-9,-9,-6
-4,-9,-3,6,-3,-4,0,-12,-14,-9,-9,-6
-3,-8,-3,6,-2,-4,0,-12,-14,-9,-9,-6
-3,-8,-4,6,-2,-5,0,-13,-14,-9,-9,-6
-4,-9,-4,6,-3,-5,0,-13,-14,-9,-9,-7
-5,-9,-4,7,-3,-5,0,-13,-15,-10,-9,-7
-4,-9,-4,7,-3,-5,0,-13,-15,-10,-10,-7
-3,-8,-4,6,-2,-5,0,-13,-15,-10,-10,-7
-3,-8,-5,6,-1,-5,0,-13,-15,-10,-10,-7
-3,-8,-5,6,-1,-5,0,-13,-15,-10,-10,-7
-4,-8,-4,6,-1,-5,0,-14,-15,-10,-10,-7
-4,-9,-4,6,-2,-5,0,-14,-15,-10,-10,-7
-5,-9,-4,7,-2,-6,0,-15,-16,-11,-10,-7
-5,-10,-4,7,-2,-6,0,-15,-16,-11,-10,-7
-5,-10,-4,7,-2,-6,-1,-15,-17,-11,-11,-7
-4,-9,-5,6,-1,-6,-1,-15,-16,-11,-11,-8
-3,-9,-5,6,-1,-6,0,-14,-16,-11,-10,-8
-3,-8,-5,6,-1,-5,0,-14,-16,-11,-10,-9
-3,-8,-5,6,-1,-5,0,-14,-16,-11,-10,-9
-3,-8,-5,6,-1,-6,0,-15,-16,-11,-10,-9
-3,-8,-5,6,-1,-6,0,-15,-16,-11,-10,-9
-4,-8,-4,6,-2,-6,0,-15,-16,-11,-10,-10
-4,-8,-4,6,-2,-6,0,-15,-16,-11,-10,-10
-4,-9,-4,7,-1,-6,0,-15,-16,-11,-10,-10
-4,-9,-4,7,-1,-6,0,-15,-16,-11,-11,-10
-5,-9,-4,7,-2,-6,0,-14,-16,-11,-11,-10
-5,-9,-3,7,-2,-5,0,-14,-16,-11,-11,-10
-4,-9,-3,7,-2,-5,0,-15,-16,-12,-11,-10
-4,-9,-3,7,-2,-5,-1,-15,-16,-13,-11,-10
-4,-9,-3,7,-2,-5,0,-15,-16,-13,-11,-10
-4,-8,-2,6,-2,-5,0,-14,-16,-13,-11,-10
-5,-8,-2,6,-2,-5,0,-14,-16,-13,-11,-10
-5,-9,-3,6,-2,-5,0,-14,-16,-13,-11,-10
-5,-9,-3,7,-2,-5,0,-14,-16,-13,-11,-10
-5,-9,-3,7,-2,-5,0,-14,-16,-13,-11,-10
-5,-9,-3,7,-2,-5,0,-14,-16,-13,-11,-9
-5,-9,-3,7,-2,-5,0,-14,-16,-13,-11,-9
-5,-9,-3,8,-2,-6,0,-14,-16,-13,-11,-9
-5,-8,-3,7,-2,-6,0,-14,-16,-14,-11,-9
-5,-8,-3,7,-2,-5,0,-14,-16,-14,-11,-9
-5,-8,-3,7,-2,-5,0,-14,-16,-14,-11,-9
-5,-8,-3,7,-2,-5,0,-14,-16,-14,-11,-9
-5,-8,-3,7,-3,-5,0,-14,-16,-15,-11,-9
-5,-8,-3,7,-3,-5,0,-14,-16,-16,-11,-9
-5,-8,-2,7,-3,-5,0,-14,-16,-16,-11,-8
-6,-8,-2,8,-3,-5,0,-13,-16,-16,-11,-8
-6,-9,-2,8,-4,-5,1,-13,-16,-16,-11,-8
-6,-9,-2,8,-4,-5,1,-13,-16,-16,-11,-8
-6,-8,-2,7,-3,-5,1,-13,-16,-16,-11,-8
-6,-8,-2,7,-3,-4,1,-13,-16,-16,-11,-8
-6,-8,-2,7,-3,-4,2,-13,-16,-15,-11,-8
-6,-8,-2,7,-3,-4,2,-13,-16,-15,-11,-8
-6,-8,-2,7,-3,-4,1,-13,-16,-15,-12,-7
-5,-8,-2,7,-3,-5,1,-13,-16,-15,-12,-7
-5,-8,-2,7,-3,-5,1,-13,-16,-15,-12,-8
-5,-8,-2,7,-3,-5,1,-12,-16,-15,-12,-8
-5,-8,-2,7,-3,-5,1,-12,-16,-14,-12,-8
-5,-8,-2,7,-3,-5,1,-12,-16,-14,-12,-8
-5,-8,-3,7,-3,-5,1,-12,-16,-14,-13,-8
-5,-9,-3,7,-3,-5,1,-12,-16,-14,-13,-8
-5,-9,-3,7,-3,-5,1,-12,-16,-14,-13,-8
-5,-8,-2,7,-3,-5,2,-12,-16,-13,-13,-7
-5,-8,-2,7,-3,-4,2,-12,-16,-13,-13,-7
-4,-7,-3,6,-2,-4,2,-12,-16,-13,-13,-7
-3,-7,-3,6,-2,-4,2,-12,-16,-13,-13,-7
-4,-7,-2,6,-2,-4,2,-12,-16,-13,-13,-7
-5,-7,-2,7,-3,-4,2,-12,-16,-13,-13,-7
-5,-7,-2,7,-3,-4,2,-12,-16,-13,-13,-8
-5,-7,-2,7,-3,-4,2,-12,-16,-13,-13,-8
-5,-7,-2,7,-3,-4,2,-12,-16,-13,-13,-8
-6,-8,-2,7,-3,-4,2,-12,-16,-13,-13,-8
-6,-8,-2,7,-3,-5,2,-12,-16,-13,-13,-8
-5,-8,-3,7,-3,-5,1,-12,-16,-13,-13,-8
-5,-8,-2,7,-3,-4,1,-12,-15,-13,-13,-8
-5,-7,-2,7,-3,-4,1,-11,-15,-13,-13,-8
-5,-7,-2,7,-3,-4,1,-11,-15,-14,-13,-8
-5,-8,-2,7,-3,-4,1,-12,-15,-14,-13,-9
-5,-8,-2,7,-3,-4,1,-12,-15,-14,-13,-10
-4,-7,-2,6,-2,-4,1,-11,-15,-13,-13,-10
-4,-7,-2,6,-2,-4,1,-11,-15,-13,-12,-9
-5,-7,-2,7,-3,-4,2,-11,-15,-13,-12,-9
-5,-7,-1,7,-3,-4,2,-11,-15,-13,-12,-9
-5,-7,-1,7,-3,-4,2,-11,-15,-13,-12,-9
-5,-7,-2,7,-3,-4,2,-11,-15,-13,-12,-9
-5,-7,-2,7,-3,-4,2,-11,-15,-13,-12,-9
-5,-7,-2,7,-3,-4,2,-11,-15,-13,-12,-9
-5,-7,-2,7,-3,-4,2,-11,-15,-13,-12,-9
-5,-7,-2,7,-3,-4,2,-11,-15,-13,-12,-9
-4,-7,-3,7,-2,-5,1,-11,-15,-13,-12,-9
-5,-7,-3,7,-2,-5,1,-11,-15,-13,-12,-9
-5,-7,-3,7,-2,-5,1,-11,-15,-13,-12,-9
-5,-8,-3,7,-2,-5,1,-11,-15,-13,-12,-9
-5,-8,-3,7,-2,-4,1,-11,-14,-13,-12,-9
-5,-8,-2,7,-3,-4,1,-11,-14,-13,-12,-9
-5,-8,-2,7,-3,-4,1,-11,-14,-13,-12,-9
-5,-8,-2,7,-3,-4,1,-11,-14,-13,-12,-9
-5,-8,-2,7,-3,-4,1,-11,-14,-13,-12,-9
-5,-7,-2,7,-3,-4,1,-11,-14,-12,-11,-8
-5,-7,-2,7,-3,-4,1,-11,-14,-12,-11,-8
-4,-7,-2,6,-3,-4,1,-12,-14,-12,-11,-9
-5,-8,-3,6,-2,-5,0,-12,-14,-13,-11,-9
-5,-8,-3,7,-2,-5,0,-13,-14,-13,-11,-9
-5,-8,-3,7,-2,-5,0,-13,-14,-13,-11,-9
-5,-8,-3,7,-2,-5,0,-13,-14,-13,-11,-9
-5,-8,-3,7,-2,-5,0,-13,-14,-13,-11,-9
-5,-8,-3,7,-2,-5,0,-13,-13,-13,-11,-9
-5,-8,-3,7,-2,-5,0,-13,-13,-13,-11,-9
-4,-8,-3,6,-2,-4,0,-13,-13,-13,-11,-10
-4,-7,-2,6,-2,-4,0,-13,-13,-13,-11,-10
-5,-7,-2,6,-3,-4,0,-13,-13,-13,-11,-9
-5,-8,-2,7,-3,-4,0,-13,-13,-13,-11,-9
-5,-8,-3,7,-2,-5,0,-13,-13,-13,-11,-10
-5,-8,-3,7,-2,-5,0,-14,-14,-13,-11,-10
-5,-8,-3,7,-2,-5,0,-14,-14,-13,-11,-9
-5,-8,-3,7,-2,-5,0,-14,-14,-13,-11,-9
-5,-8,-3,7,-2,-5,0,-14,-14,-13,-11,-9
-5,-9,-3,7,-2,-5,0,-14,-14,-13,-11,-9
-6,-9,-3,8,-2,-5,0,-14,-14,-13,-11,-9
-6,-9,-3,8,-2,-5,0,-14,-14,-13,-10,-9
-5,-9,-3,7,-2,-5,0,-14,-14,-13,-10,-8
-5,-8,-3,7,-2,-5,0,-14,-14,-13,-9,-8
-5,-8,-3,7,-2,-5,0,-14,-14,-14,-9,-7
-5,-8,-3,7,-2,-5,0,-14,-14,-14,-9,-7
-5,-8,-3,7,-2,-5,0,-14,-14,-14,-9,-7
-5,-8,-3,7,-2,-5,0,-14,-14,-14,-9,-7
-5,-8,-3,7,-2,-5,0,-14,-14,-14,-10,-7
-5,-8,-3,7,-3,-5,0,-15,-14,-14,-10,-7
-5,-8,-3,7,-3,-5,0,-15,-14,-14,-10,-7
-5,-8,-2,7,-3,-5,0,-15,-14,-14,-10,-7
-5,-8,-2,7,-3,-5,0,-15,-14,-14,-10,-7
-5,-8,-3,7,-2,-5,0,-15,-14,-14,-10,-7
-5,-8,-3,7,-2,-5,-1,-15,-14,-14,-10,-7
-5,-8,-3,7,-2,-5,-1,-15,-14,-14,-10,-7
-4,-8,-3,7,-2,-5,-1,-15,-14,-14,-10,-7
-4,-8,-3,6,-2,-5,-1,-15,-14,-15,-10,-6
-4,-8,-3,6,-2,-5,-1,-15,-14,-15,-10,-6
-5,-9,-3,7,-3,-5,-1,-15,-14,-15,-10,-6
-6,-9,-3,8,-3,-5,-1,-15,-14,-15,-10,-6
-6,-9,-3,8,-2,-5,-1,-15,-14,-15,-10,-6
-6,-9,-3,8,-2,-5,-1,-15,-15,-16,-10,-6
-6,-9,-3,8,-2,-5,-1,-15,-15,-16,-10,-6
-5,-9,-3,7,-2,-5,-1,-15,-15,-16,-10,-6
-5,-8,-3,7,-2,-5,-1,-15,-15,-16,-10,-6
-5,-8,-4,7,-2,-5,-1,-15,-15,-16,-10,-6
-4,-8,-4,7,-1,-6,-1,-16,-15,-16,-11,-6
-4,-9,-4,7,-1,-6,-1,-16,-15,-16,-11,-6
-4,-9,-4,7,-1,-6,-1,-16,-15,-16,-11,-7
-4,-9,-4,7,-1,-6,-1,-16,-15,-16,-11,-7
-4,-9,-4,7,-1,-6,-1,-16,-15,-16,-11,-7
-4,-9,-4,7,-1,-6,-1,-16,-15,-16,-11,-7
-5,-9,-4,8,-2,-6,-1,-16,-15,-16,-11,-7
-5,-9,-4,8,-2,-6,-1,-16,-15,-16,-11,-7
-5,-9,-4,8,-2,-6,-1,-16,-15,-16,-11,-7
-5,-9,-4,8,-2,-6,-1,-16,-15,-16,-11,-7
-5,-9,-4,8,-2,-6,-1,-16,-15,-15,-11,-7
-5,-10,-4,8,-2,-6,-1,-16,-15,-15,-11,-8
-5,-9,-3,8,-2,-6,-1,-15,-14,-15,-10,-7
-4,-9,-3,7,-2,-5,-1,-15,-14,-15,-10,-7
-4,-8,-3,7,-2,-5,-1,-16,-14,-15,-10,-6
-4,-8,-4,7,-2,-6,-1,-16,-14,-15,-10,-7
-5,-9,-4,7,-2,-6,-1,-16,-14,-16,-11,-7
-5,-9,-3,8,-2,-6,-1,-16,-14,-16,-11,-7
-5,-9,-3,7,-2,-5,-1,-16,-14,-16,-10,-6
-5,-9,-3,7,-2,-5,-1,-16,-14,-16,-10,-6
-5,-9,-3,8,-2,-6,-1,-16,-13,-17,-10,-5
-5,-9,-3,8,-2,-6,-1,-16,-13,-17,-10,-5
-5,-9,-3,8,-2,-6,-1,-16,-13,-18,-10,-5
-5,-9,-3,8,-2,-6,-2,-16,-13,-19,-10,-5
-5,-9,-4,8,-2,-6,-2,-16,-13,-19,-10,-5
-5,-9,-4,8,-2,-6,-2,-16,-13,-18,-10,-5
-5,-10,-4,8,-2,-6,-2,-16,-13,-17,-10,-6
-5,-10,-4,8,-1,-6,-2,-16,-13,-17,-10,-6
-5,-10,-4,8,-1,-6,-2,-16,-13,-16,-10,-6
-5,-10,-3,8,-2,-6,-2,-16,-13,-16,-11,-6
-5,-10,-3,8,-2,-6,-2,-16,-13,-15,-11,-6
-5,-9,-4,8,-1,-6,-2,-16,-13,-15,-11,-6
-4,-9,-4,7,-1,-6,-1,-16,-13,-14,-10,-6
-4,-9,-3,7,-1,-6,-1,-16,-12,-14,-10,-6
-5,-9,-3,7,-1,-6,-1,-16,-13,-14,-11,-6
-4,-9,-4,7,-1,-6,-1,-16,-13,-14,-11,-6
-4,-9,-4,7,-1,-6,-1,-16,-13,-14,-11,-6
-5,-9,-3,7,-1,-6,-1,-16,-13,-14,-11,-6
-5,-9,-3,7,-1,-6,-1,-16,-13,-14,-11,-6
-5,-9,-3,7,-1,-7,-1,-16,-13,-14,-11,-6
-5,-9,-3,7,-2,-7,-1,-16,-13,-14,-11,-6
-5,-9,-3,7,-2,-6,-1,-16,-13,-14,-11,-6
-5,-9,-3,8,-2,-6,-1,-16,-13,-14,-11,-6
-5,-10,-3,8,-2,-6,-1,-16,-13,-14,-11,-7
-5,-10,-4,8,-2,-6,-1,-16,-13,-14,-11,-7
-4,-9,-4,8,-1,-6,-1,-16,-13,-14,-11,-8
-4,-9,-4,8,-1,-6,-1,-16,-13,-14,-11,-8
-5,-9,-4,8,-1,-6,-1,-16,-13,-14,-11,-8
-5,-10,-4,8,-2,-6,-1,-16,-14,-14,-11,-9
-5,-10,-4,8,-2,-6,-1,-16,-14,-15,-11,-9
-4,-9,-4,7,-1,-6,-1,-16,-14,-15,-11,-9
-4,-9,-3,7,-1,-6,-1,-16,-14,-15,-11,-8
-4,-8,-3,7,-1,-6,-1,-16,-14,-15,-11,-8
-4,-8,-3,7,-1,-6,-1,-16,-14,-15,-11,-8
-4,-8,-3,7,-1,-6,-1,-16,-14,-15,-11,-8
-4,-8,-4,7,-1,-6,-1,-16,-14,-15,-11,-8
-4,-8,-4,7,-1,-6,-1,-16,-14,-14,-11,-8
-4,-8,-4,7,-1,-6,-1,-16,-14,-14,-11,-7
-4,-8,-4,7,-1,-6,-1,-16,-14,-14,-11,-7
-4,-8,-3,7,-2,-6,-1,-16,-14,-14,-11,-8
-5,-8,-3,7,-2,-6,-1,-16,-14,-14,-11,-8
-4,-8,-3,7,-2,-6,-1,-16,-14,-14,-11,-8
-4,-8,-3,7,-1,-6,-1,-16,-14,-14,-11,-9
-4,-8,-3,7,-1,-5,0,-16,-14,-13,-10,-9
-4,-7,-3,6,-1,-5,0,-16,-14,-13,-10,-8
-3,-7,-2,6,-1,-4,0,-15,-14,-13,-10,-8
-3,-6,-2,5,-1,-4,1,-15,-13,-13,-10,-7
-3,-5,-1,5,-2,-3,1,-14,-13,-13,-9,-7
-3,-4,-1,4,-2,-3,1,-13,-12,-12,-9,-6
-3,-4,0,4,-2,-2,2,-13,-12,-12,-9,-6
-3,-3,0,4,-3,-1,3,-12,-11,-11,-8,-5
-3,-3,1,4,-3,0,4,-12,-11,-11,-8,-5
-3,-2,2,4,-4,0,5,-11,-10,-11,-7,-4
-3,-2,2,3,-4,1,5,-11,-10,-10,-7,-4
-4,-1,3,3,-4,1,5,-10,-10,-10,-7,-4
-4,-1,3,3,-4,1,6,-10,-10,-10,-7,-4
-4,0,3,2,-4,1,6,-9,-9,-10,-6,-3
-3,0,3,2,-4,1,6,-9,-9,-10,-6,-3
-3,0,3,2,-4,1,6,-9,-9,-9,-6,-3
-3,0,3,2,-4,1,6,-9,-9,-9,-6,-3
-3,0,2,2,-3,1,5,-10,-10,-9,-6,-3
-3,-1,2,3,-3,1,3,-11,-11,-9,-6,-4
-3,-2,1,3,-3,0,2,-12,-11,-10,-7,-4
-3,-2,1,3,-3,0,1,-13,-12,-10,-7,-4
-3,-2,1,3,-3,0,0,-13,-12,-10,-7,-4
-3,-1,1,3,-3,0,0,-14,-12,-11,-7,-4
-3,-1,1,3,-3,0,0,-14,-12,-11,-7,-4
-3,-1,1,3,-3,0,-1,-15,-13,-12,-7,-4
-3,-1,1,3,-3,0,-1,-15,-13,-12,-7,-4
-3,-1,1,3,-3,1,-1,-15,-13,-11,-7,-3
-2,0,1,2,-2,1,-2,-15,-13,-11,-6,-3
-1,0,1,2,-2,0,-3,-15,-13,-11,-6,-3
0,-1,0,2,-1,0,-3,-15,-14,-11,-7,-4
0,-2,-2,2,0,-2,-4,-16,-14,-12,-7,-4
0,-3,-3,3,1,-3,-4,-16,-14,-12,-8,-5
1,-4,-5,2,2,-4,-4,-16,-14,-13,-8,-5
3,-3,-6,1,3,-4,-4,-15,-14,-13,-8,-5
3,-3,-6,1,4,-5,-4,-15,-14,-13,-8,-5
3,-4,-6,1,4,-5,-4,-16,-15,-13,-8,-5
3,-4,-6,2,4,-6,-4,-17,-16,-14,-9,-5
3,-5,-7,2,4,-6,-4,-18,-17,-15,-9,-6
2,-5,-7,2,3,-6,-4,-18,-17,-15,-9,-6
1,-6,-6,3,2,-6,-3,-18,-17,-15,-9,-6
-1,-7,-6,5,1,-6,-3,-18,-17,-15,-9,-6
-3,-8,-5,6,0,-6,-3,-18,-17,-16,-10,-6
-4,-9,-4,7,0,-7,-3,-19,-18,-16,-10,-6
-4,-9,-4,7,-1,-7,-3,-19,-18,-17,-11,-6
-5,-10,-5,7,-1,-7,-3,-19,-18,-17,-11,-6
-5,-10,-5,8,-1,-7,-3,-19,-18,-17,-11,-6
-6,-11,-5,8,-1,-7,-3,-19,-18,-17,-11,-6
-6,-11,-5,9,-1,-8,-3,-19,-18,-18,-11,-6
-6,-11,-5,9,-1,-8,-3,-19,-19,-18,-12,-7
-5,-12,-6,9,-1,-9,-4,-20,-19,-18,-12,-7
-5,-12,-6,9,-1,-10,-4,-20,-19,-18,-13,-7
-6,-13,-6,9,-1,-10,-4,-20,-19,-18,-13,-7
-6,-13,-6,9,-1,-10,-4,-20,-19,-18,-12,-7
-6,-13,-6,9,-1,-10,-4,-20,-19,-18,-12,-7
-6,-13,-6,10,-1,-10,-4,-20,-19,-18,-12,-7
-6,-14,-6,10,-1,-10,-4,-20,-19,-18,-12,-7
-6,-14,-7,11,-1,-10,-4,-20,-19,-18,-12,-7
-6,-14,-7,11,-1,-10,-3,-20,-19,-18,-12,-7
-6,-14,-7,11,-1,-10,-3,-19,-19,-18,-12,-7
-7,-15,-7,11,-1,-11,-3,-19,-19,-18,-12,-7
-7,-15,-7,11,-1,-11,-3,-18,-19,-18,-12,-7
-7,-15,-7,11,-1,-11,-3,-18,-19,-18,-12,-7
-7,-15,-7,11,-1,-11,-2,-18,-19,-18,-12,-6
-7,-15,-6,11,-2,-10,-2,-18,-19,-18,-12,-6
-7,-15,-6,12,-2,-10,-1,-18,-19,-17,-12,-5
-8,-15,-6,12,-2,-10,-1,-17,-18,-17,-12,-5
-9,-15,-5,12,-2,-10,0,-17,-18,-17,-12,-5
-8,-15,-6,12,-1,-11,0,-17,-18,-17,-12,-5
-8,-15,-7,12,-1,-11,0,-17,-18,-17,-12,-5
-9,-16,-6,12,-2,-11,0,-16,-18,-17,-12,-5
-9,-16,-6,13,-2,-11,0,-16,-18,-16,-11,-5
-9,-16,-6,13,-2,-11,0,-15,-17,-16,-11,-6
-8,-16,-7,13,-1,-11,0,-15,-17,-16,-11,-6
-8,-16,-7,13,-1,-11,0,-16,-17,-16,-11,-7
-8,-16,-7,13,-1,-11,0,-15,-17,-16,-11,-7
-8,-16,-7,13,-1,-11,0,-15,-17,-16,-11,-7
-9,-16,-6,13,-1,-11,1,-15,-17,-16,-11,-7
-9,-16,-6,13,-1,-11,1,-15,-17,-16,-12,-7
-9,-16,-6,13,-1,-11,1,-15,-17,-17,-12,-7
-9,-16,-6,13,-1,-11,1,-15,-17,-17,-12,-6
-9,-17,-7,13,-1,-12,1,-15,-17,-17,-12,-7
-8,-18,-8,13,0,-13,1,-14,-17,-18,-12,-8
-7,-19,-11,14,1,-15,1,-13,-17,-19,-13,-9
-6,-20,-13,14,3,-17,1,-11,-16,-20,-15,-11
-5,-21,-14,14,4,-17,3,-6,-14,-20,-16,-11
-5,-21,-15,14,4,-17,5,1,-10,-20,-16,-12
-4,-19,-14,12,4,-16,7,13,-3,-16,-15,-11
-2,-15,-12,9,4,-13,10,28,7,-10,-11,-9
1,-10,-10,5,4,-10,11,43,21,0,-4,-5
5,-3,-8,0,6,-5,11,58,37,12,4,1
12,5,-6,-7,8,0,10,71,54,28,16,9
19,15,-4,-16,10,6,8,75,69,46,30,19
27,26,-2,-25,13,12,5,70,81,64,44,30
37,37,0,-36,17,19,0,55,90,82,59,42
47,51,5,-48,19,28,-7,33,96,103,77,56
56,67,12,-61,21,40,-15,7,102,125,97,72
64,84,20,-73,22,52,-23,-20,105,145,117,88
72,99,27,-84,22,64,-31,-48,104,162,135,103
78,112,34,-94,22,74,-39,-75,99,172,149,115
82,121,40,-101,21,81,-47,-102,90,175,157,123
81,124,43,-101,19,84,-53,-128,74,168,156,126
77,119,43,-97,16,82,-56,-150,52,151,147,121
70,108,40,-88,14,74,-59,-167,26,125,129,110
60,94,35,-76,12,65,-63,-182,-4,93,106,94
48,79,33,-62,7,56,-66,-194,-37,58,82,78
34,66,33,-49,0,50,-67,-200,-68,24,60,63
23,54,32,-37,-5,43,-65,-198,-90,-2,41,49
14,43,30,-27,-8,36,-62,-187,-98,-20,26,36
8,34,27,-20,-10,30,-56,-169,-95,-28,14,26
3,27,24,-14,-11,25,-51,-149,-88,-32,5,19
0,21,21,-9,-11,20,-46,-129,-79,-34,0,13
-1,16,18,-6,-11,17,-41,-111,-70,-33,-3,9
-2,12,16,-4,-10,14,-35,-94,-61,-31,-5,6
-3,9,14,-3,-9,12,-29,-79,-52,-29,-7,3
-4,7,12,0,-9,9,-23,-67,-45,-27,-8,1
-6,4,11,1,-8,7,-17,-57,-39,-25,-8,-1
-7,1,9,3,-8,5,-12,-47,-33,-23,-9,-2
-7,-1,6,5,-7,2,-8,-38,-28,-21,-9,-2
-7,-4,4,6,-6,0,-5,-31,-24,-20,-9,-3
-7,-6,2,7,-6,-1,-3,-24,-21,-19,-9,-3
-6,-7,1,7,-5,-3,-2,-18,-18,-19,-9,-3
-6,-8,0,8,-4,-4,-1,-14,-16,-18,-9,-4
-7,-9,-1,9,-3,-6,0,-11,-15,-18,-10,-5
-8,-10,-2,10,-3,-7,1,-10,-13,-17,-10,-6
-7,-11,-2,10,-3,-7,2,-8,-12,-17,-10,-6
-7,-10,-3,10,-2,-7,3,-6,-11,-16,-10,-6
-6,-10,-3,10,-2,-7,3,-4,-10,-16,-10,-6
-6,-11,-3,10,-2,-7,3,-2,-10,-17,-10,-7
-6,-11,-3,10,-2,-7,3,-1,-9,-17,-10,-7
-6,-12,-4,10,-2,-8,4,0,-8,-16,-10,-8
-6,-12,-4,10,-2,-8,4,1,-8,-16,-10,-8
-6,-12,-5,10,-1,-9,4,2,-7,-16,-10,-8
-6,-12,-5,10,-1,-9,5,3,-7,-16,-11,-8
-6,-12,-5,10,-1,-9,5,4,-6,-16,-11,-8
-6,-12,-5,10,-1,-9,6,5,-6,-15,-11,-8
-5,-12,-6,10,0,-9,6,6,-5,-15,-11,-8
-4,-12,-6,9,0,-9,6,7,-5,-15,-10,-8
-4,-12,-6,9,0,-9,6,8,-4,-15,-10,-8
-5,-12,-6,9,0,-9,6,8,-3,-15,-10,-8
-6,-12,-6,9,0,-9,6,9,-2,-15,-10,-8
-6,-12,-6,9,0,-10,6,9,-2,-15,-10,-8
-5,-12,-7,9,0,-10,6,9,-1,-15,-10,-8
-4,-12,-7,9,0,-10,6,10,-1,-15,-10,-8
-4,-12,-6,9,0,-10,6,11,0,-14,-10,-8
-4,-12,-6,9,0,-10,6,11,0,-14,-10,-7
-3,-12,-7,8,1,-10,5,12,0,-14,-10,-7
-3,-12,-7,8,2,-10,5,12,0,-14,-10,-8
-3,-12,-7,8,1,-10,5,13,0,-14,-10,-8
-3,-11,-7,8,1,-9,5,13,1,-14,-10,-8
-3,-10,-7,8,1,-9,5,13,1,-14,-10,-8
-3,-10,-7,7,1,-8,5,13,1,-13,-10,-8
-2,-9,-7,7,1,-8,5,14,1,-13,-10,-8
-2,-9,-7,7,1,-8,5,14,1,-12,-10,-8
-2,-9,-7,7,1,-8,5,15,1,-12,-10,-8
-1,-9,-7,6,2,-8,5,15,2,-11,-10,-9
0,-8,-7,5,2,-7,5,16,3,-10,-9,-9
0,-6,-7,4,3,-7,5,16,3,-9,-9,-8
1,-6,-7,3,3,-7,5,17,4,-8,-9,-7
1,-6,-7,3,3,-7,5,17,4,-7,-9,-7
1,-6,-6,3,3,-7,5,18,5,-7,-9,-7
0,-7,-6,3,3,-7,4,19,5,-7,-9,-7
0,-7,-5,4,3,-6,4,20,6,-6,-9,-7
0,-7,-5,4,3,-6,4,21,6,-6,-9,-7
1,-6,-5,3,3,-6,4,21,7,-6,-9,-7
1,-6,-5,3,2,-5,4,22,8,-6,-9,-6
0,-6,-5,3,2,-5,4,23,8,-5,-8,-6
0,-6,-5,3,2,-5,5,23,9,-5,-8,-6
1,-5,-5,3,2,-5,5,24,10,-5,-8,-5
2,-5,-6,2,3,-5,5,25,10,-5,-8,-4
2,-5,-5,2,4,-5,5,26,11,-4,-7,-4
3,-4,-5,1,4,-5,6,28,12,-3,-7,-3
3,-3,-5,1,4,-5,6,29,13,-2,-7,-3
3,-3,-5,1,4,-5,6,31,14,-2,-7,-3
3,-3,-5,1,3,-4,6,32,15,-1,-7,-3
3,-2,-5,0,4,-4,6,32,16,-1,-6,-4
4,-2,-5,0,4,-4,6,33,17,0,-6,-4
3,-2,-5,0,4,-4,6,35,18,0,-6,-3
3,-2,-5,0,4,-4,6,36,19,1,-6,-3
4,-2,-5,0,4,-4,6,38,20,1,-6,-3
4,-2,-5,0,4,-4,7,39,21,2,-5,-2
4,-2,-5,0,4,-4,7,40,22,3,-5,-2
4,-1,-5,0,4,-4,7,42,23,4,-4,-2
5,-1,-5,-1,4,-3,8,43,25,4,-3,-2
5,0,-4,-1,4,-3,8,45,26,5,-3,-1
5,0,-4,-2,4,-2,8,47,28,6,-2,0
5,0,-4,-2,4,-2,9,49,29,6,-2,0
5,0,-4,-2,4,-2,9,52,31,7,-1,0
5,1,-4,-2,4,-1,9,54,32,8,-1,1
5,1,-3,-2,4,-1,10,56,34,9,0,1
5,2,-3,-3,4,-1,10,58,35,10,0,2
6,2,-3,-3,4,-1,10,60,37,11,0,2
6,3,-3,-4,4,0,10,62,39,12,1,2
6,3,-3,-4,4,0,10,65,41,13,1,2
7,3,-3,-5,4,0,11,67,43,14,2,3
8,4,-3,-6,5,1,11,70,45,16,3,4
9,5,-2,-6,5,2,12,74,48,17,4,4
9,6,-1,-7,5,3,12,77,50,19,5,5
9,7,0,-7,5,3,13,80,52,20,6,5
10,8,0,-8,5,4,13,82,54,22,7,5
10,9,0,-8,5,4,13,85,56,23,8,6
10,9,1,-9,4,5,14,87,59,25,9,6
10,10,1,-9,4,5,14,90,61,26,10,7
11,11,1,-10,4,6,14,93,64,28,11,8
12,13,2,-11,4,8,15,96,67,30,13,9
12,15,3,-12,4,9,15,99,70,33,14,10
12,16,4,-13,3,10,15,102,72,34,16,11
13,18,4,-14,4,11,15,105,75,36,17,11
14,19,5,-15,4,12,15,107,78,37,18,12
15,20,6,-16,4,12,15,109,80,39,19,13
15,21,7,-17,4,13,16,112,83,40,21,14
16,22,8,-18,4,15,16,114,85,43,22,16
16,24,8,-19,4,16,17,117,88,45,24,18
17,25,9,-20,4,17,17,119,91,47,25,20
17,26,9,-21,4,18,17,120,93,49,27,22
17,27,10,-21,4,19,17,121,95,52,29,24
18,29,12,-23,4,20,17,122,97,54,31,26
20,32,13,-25,4,22,17,123,99,56,33,28
20,33,14,-26,3,23,17,123,101,58,35,30
20,35,16,-27,3,25,17,124,103,61,37,31
21,37,16,-28,3,27,16,124,104,63,39,33
23,39,17,-30,3,28,16,123,105,64,41,35
24,40,17,-31,3,29,15,122,105,66,43,36
24,42,18,-32,3,30,14,120,106,67,44,38
25,43,19,-33,3,31,13,117,106,68,46,39
26,45,20,-34,3,32,12,114,106,69,47,40
27,47,21,-36,3,33,11,111,105,70,49,42
27,48,22,-37,3,35,10,108,104,71,50,43
28,49,22,-37,3,35,9,104,103,72,51,44
28,49,23,-37,3,36,8,100,101,72,52,44
28,50,23,-38,3,37,8,97,99,72,53,45
28,51,24,-39,3,37,7,93,97,72,54,46
29,51,24,-39,3,37,6,88,94,71,54,46
28,51,24,-38,3,37,5,82,91,69,54,46
28,50,24,-38,3,36,4,77,88,68,54,45
28,50,23,-38,3,36,3,72,84,66,53,45
27,49,23,-37,3,36,2,68,80,65,52,44
27,48,23,-36,2,36,1,63,75,63,51,44
26,47,22,-36,2,35,0,59,71,61,50,44
26,46,21,-34,2,33,0,54,66,58,48,43
25,43,20,-33,2,32,0,50,62,55,46,41
23,41,19,-31,2,30,-1,45,57,52,44,40
22,38,18,-29,2,28,-1,41,53,48,42,38
20,36,18,-27,2,27,-1,37,48,45,39,37
18,34,17,-25,1,25,-1,33,43,41,36,35
17,31,15,-23,1,23,-1,30,39,38,33,32
16,29,14,-21,1,21,-1,27,34,34,30,30
15,26,12,-19,2,19,-1,24,30,30,27,27
14,23,11,-17,1,17,-1,21,26,26,24,24
11,20,10,-15,1,15,-1,18,22,22,22,22
9,17,9,-12,0,13,-1,15,19,19,19,19
8,14,8,-10,0,11,-1,12,15,15,16,17
7,12,6,-8,1,9,-1,9,11,11,13,14
6,9,4,-7,1,7,0,7,8,8,10,12
5,7,3,-6,1,5,0,5,5,6,7,10
4,5,1,-4,1,3,0,3,3,4,5,8
3,3,0,-2,1,2,0,2,0,2,3,6
2,1,0,-1,1,0,0,0,-1,0,1,5
1,0,0,0,1,-1,0,-1,-3,-2,0,4
0,-1,-1,1,1,-2,0,-3,-5,-4,-1,3
0,-2,-2,2,1,-2,0,-5,-6,-5,-3,2
-1,-4,-2,3,0,-3,0,-6,-8,-7,-4,0
-2,-6,-3,5,0,-4,0,-7,-9,-8,-6,0
-2,-7,-3,5,0,-5,0,-7,-10,-8,-6,-1
-2,-7,-3,6,0,-5,0,-7,-11,-9,-7,-2
-3,-8,-3,6,0,-6,0,-8,-11,-9,-7,-3
-3,-9,-3,7,0,-6,0,-9,-12,-10,-8,-3
-4,-9,-3,8,0,-7,0,-9,-12,-11,-8,-4
-4,-9,-4,8,0,-7,0,-10,-13,-12,-8,-4
-4,-9,-4,8,0,-8,0,-10,-13,-13,-8,-4
-4,-9,-4,8,0,-8,0,-10,-14,-13,-9,-4
-4,-9,-4,8,0,-8,0,-10,-14,-13,-9,-4
-4,-10,-4,8,0,-8,0,-10,-14,-13,-10,-4
-4,-10,-5,8,0,-8,0,-10,-15,-13,-10,-3
-4,-10,-5,8,0,-8,1,-10,-15,-13,-10,-3
-5,-10,-5,8,0,-8,1,-11,-15,-13,-10,-2
-5,-10,-5,8,0,-8,0,-11,-15,-14,-10,-2
-5,-10,-4,8,0,-8,0,-12,-15,-14,-10,-2
-6,-10,-4,8,0,-8,0,-12,-15,-15,-10,-2
-6,-11,-4,8,0,-8,0,-12,-15,-15,-10,-2
-6,-11,-4,8,0,-8,0,-12,-15,-15,-10,-2
-6,-11,-4,9,0,-8,0,-12,-15,-15,-10,-2
-6,-11,-4,9,0,-8,0,-12,-16,-15,-10,-3
-7,-12,-4,10,-1,-9,0,-12,-16,-15,-10,-4
-7,-12,-4,10,-1,-9,0,-12,-16,-15,-11,-4
-6,-11,-4,9,0,-8,0,-12,-16,-15,-11,-5
-5,-11,-4,8,0,-8,0,-12,-16,-15,-11,-5
-6,-11,-4,9,-1,-9,0,-12,-16,-15,-11,-5
-6,-12,-4,10,-1,-10,0,-13,-16,-15,-11,-6
-6,-13,-5,10,-1,-10,0,-13,-16,-15,-11,-7
-6,-12,-5,10,-1,-9,0,-12,-16,-14,-11,-6
-7,-12,-5,10,-1,-9,0,-12,-16,-14,-11,-6
-7,-12,-5,10,-1,-9,0,-12,-16,-14,-11,-6
-7,-12,-5,9,0,-9,0,-12,-16,-15,-11,-6
-6,-12,-6,9,0,-10,0,-12,-16,-16,-11,-6
-5,-12,-6,9,1,-10,0,-12,-16,-16,-11,-6
-5,-12,-5,9,0,-10,0,-12,-16,-17,-11,-6
-6,-12,-5,10,0,-10,0,-12,-16,-17,-11,-6
-6,-12,-4,10,-1,-10,1,-12,-16,-17,-11,-6
-6,-12,-4,10,-1,-10,1,-12,-16,-17,-11,-5
-6,-12,-4,10,-1,-9,1,-12,-16,-17,-11,-5
-6,-12,-4,10,-1,-9,0,-12,-15,-17,-11,-5
-6,-12,-5,10,0,-9,0,-12,-15,-17,-11,-5
-6,-12,-5,10,0,-9,0,-12,-15,-17,-11,-5
-7,-13,-4,11,-1,-9,0,-11,-15,-17,-11,-5
-7,-13,-4,11,-1,-9,0,-11,-15,-17,-11,-5
-7,-13,-4,11,-1,-9,0,-11,-15,-17,-11,-4
-7,-13,-4,11,-2,-9,0,-11,-15,-17,-11,-4
-8,-13,-4,11,-2,-9,0,-10,-15,-17,-11,-4
-9,-14,-4,12,-2,-10,1,-10,-15,-17,-11,-4
-9,-14,-4,12,-2,-10,1,-10,-15,-17,-12,-4
-9,-14,-4,12,-2,-10,1,-10,-15,-17,-12,-4
-9,-13,-4,12,-2,-9,1,-10,-15,-17,-12,-4
-9,-13,-4,12,-2,-9,1,-9,-15,-17,-12,-4
-8,-13,-4,11,-2,-9,1,-9,-15,-17,-12,-4
-8,-13,-4,11,-2,-9,1,-9,-15,-17,-12,-5
-8,-13,-4,11,-2,-9,1,-9,-15,-17,-13,-5
-8,-13,-4,11,-1,-9,1,-9,-15,-17,-13,-5
-7,-13,-4,10,-1,-9,1,-9,-15,-18,-13,-5
-7,-12,-3,10,-1,-9,1,-9,-14,-18,-13,-5
-7,-12,-3,10,-1,-8,1,-9,-14,-18,-13,-5
-7,-12,-3,10,-1,-8,1,-9,-14,-19,-13,-5
-7,-12,-3,10,-1,-8,1,-9,-14,-19,-13,-5
-8,-12,-3,10,-2,-8,1,-9,-14,-19,-13,-5
-8,-12,-2,10,-2,-8,1,-9,-14,-19,-13,-5
-8,-12,-2,10,-2,-8,2,-8,-14,-19,-13,-5
-8,-12,-2,10,-2,-8,2,-8,-15,-19,-13,-5
-8,-12,-2,11,-2,-8,2,-8,-15,-20,-13,-6
-9,-12,-2,11,-2,-8,2,-8,-15,-20,-13,-6
-9,-12,-2,11,-2,-8,2,-8,-15,-20,-14,-6
-8,-12,-2,11,-2,-9,2,-8,-15,-20,-14,-6
-7,-12,-3,10,-1,-9,2,-8,-15,-20,-14,-7
-6,-12,-4,10,0,-9,1,-8,-15,-20,-14,-7
-6,-12,-4,9,0,-9,1,-9,-15,-20,-14,-8
-6,-12,-4,9,0,-9,1,-9,-15,-20,-15,-8
-7,-12,-4,9,0,-9,1,-9,-15,-20,-15,-8
-7,-12,-3,10,-1,-9,1,-9,-15,-19,-15,-8
-7,-13,-3,10,-1,-9,1,-9,-16,-19,-15,-8
-6,-12,-4,10,0,-9,0,-9,-16,-19,-15,-8
-5,-11,-4,9,0,-8,1,-9,-16,-19,-14,-8
-5,-11,-4,8,0,-8,1,-9,-16,-18,-14,-7
-5,-11,-3,8,-1,-8,2,-9,-16,-17,-14,-7
-5,-11,-3,8,-1,-8,2,-9,-16,-17,-14,-7
-5,-10,-3,8,0,-8,2,-9,-16,-17,-14,-7
-5,-10,-3,8,0,-8,1,-9,-16,-18,-14,-7
-6,-11,-3,8,0,-8,1,-9,-16,-18,-14,-7
-6,-11,-3,8,-1,-8,1,-9,-17,-18,-14,-7
-6,-11,-3,9,-1,-8,1,-9,-17,-18,-14,-7
-6,-11,-4,9,-1,-8,1,-9,-17,-18,-14,-7
-7,-12,-4,10,-1,-8,1,-9,-17,-18,-14,-7
-7,-12,-3,10,-2,-8,1,-9,-17,-18,-14,-7
-6,-11,-3,9,-1,-8,1,-9,-17,-18,-14,-7
-5,-11,-3,8,-1,-8,1,-9,-17,-19,-14,-6
-5,-10,-3,8,0,-8,1,-9,-17,-19,-14,-6
-5,-10,-3,8,0,-8,1,-10,-17,-18,-14,-6
-5,-11,-3,8,0,-8,0,-10,-17,-18,-14,-6
-5,-11,-4,9,0,-8,0,-10,-17,-19,-14,-6
-5,-11,-4,8,0,-8,0,-10,-17,-19,-14,-6
-5,-10,-4,8,0,-8,0,-10,-17,-19,-14,-5
-5,-10,-4,7,0,-8,0,-10,-17,-19,-14,-5
-5,-10,-4,7,0,-8,0,-10,-17,-19,-14,-5
-5,-10,-4,7,0,-8,0,-10,-17,-19,-14,-5
-5,-10,-3,7,0,-8,0,-10,-17,-19,-14,-4
-5,-10,-3,7,0,-8,0,-10,-17,-19,-14,-4
-5,-9,-3,7,0,-7,0,-10,-17,-19,-14,-4
-5,-9,-3,7,0,-7,0,-10,-17,-19,-14,-4
-5,-10,-3,7,0,-7,0,-11,-18,-19,-15,-4
-5,-10,-3,8,0,-7,-1,-11,-18,-18,-15,-4
-5,-10,-3,8,0,-7,-1,-11,-18,-18,-14,-4
-5,-10,-3,7,0,-7,-1,-11,-18,-18,-14,-3
-4,-10,-4,7,0,-7,-1,-11,-18,-18,-14,-3
-4,-10,-4,7,0,-7,-1,-12,-18,-18,-14,-4
-5,-10,-3,7,0,-7,-1,-12,-18,-18,-14,-4
-5,-10,-3,8,0,-7,-1,-12,-18,-18,-14,-4
-5,-10,-4,8,0,-8,-1,-12,-18,-18,-14,-4
-4,-10,-4,7,0,-8,-1,-12,-18,-18,-14,-4
-3,-10,-5,7,1,-8,-1,-12,-18,-18,-14,-5
-3,-10,-5,7,1,-8,-1,-12,-18,-18,-14,-5
-4,-10,-5,7,1,-8,-1,-12,-18,-18,-14,-5
-4,-10,-5,7,1,-8,-1,-12,-18,-18,-14,-5
-4,-9,-5,7,1,-8,-1,-12,-18,-18,-14,-4
-4,-9,-5,7,1,-8,-1,-12,-18,-18,-14,-4
-4,-9,-5,7,1,-8,-1,-13,-18,-19,-14,-4
-4,-9,-4,7,0,-8,-1,-13,-18,-19,-14,-4
-4,-9,-4,7,0,-7,-1,-13,-18,-19,-14,-3
-4,-9,-4,6,0,-7,-1,-13,-18,-19,-13,-3
-3,-9,-4,6,0,-7,-1,-13,-18,-19,-13,-3
-4,-9,-4,7,0,-7,-1,-13,-18,-19,-13,-3
-5,-9,-4,8,0,-7,-1,-13,-18,-19,-13,-3
-5,-9,-4,8,0,-7,0,-13,-18,-19,-13,-4
-4,-8,-4,7,0,-7,0,-13,-18,-19,-13,-4
-3,-8,-4,6,0,-7,0,-13,-19,-19,-14,-4
-3,-9,-4,6,1,-8,0,-13,-19,-19,-14,-5
-3,-9,-5,6,1,-8,0,-13,-19,-19,-14,-5
-3,-9,-5,6,1,-8,0,-13,-19,-19,-14,-5
-3,-9,-5,6,1,-8,0,-13,-19,-19,-14,-5
-3,-9,-5,7,1,-8,0,-13,-19,-19,-14,-5
-4,-9,-5,7,1,-8,0,-13,-19,-19,-14,-5
-4,-9,-5,7,1,-8,0,-13,-19,-19,-14,-5
-4,-9,-5,7,1,-8,0,-14,-19,-19,-14,-4
-4,-9,-4,7,0,-7,0,-14,-19,-19,-14,-4
-4,-9,-4,7,0,-7,0,-14,-19,-19,-14,-4
-4,-10,-4,7,0,-8,-1,-14,-19,-19,-14,-4
-4,-10,-4,8,0,-8,-1,-14,-19,-19,-14,-4
-5,-10,-4,8,0,-8,-1,-14,-19,-19,-14,-4
-4,-10,-4,8,0,-8,-1,-13,-19,-19,-13,-4
-4,-9,-4,7,0,-7,0,-13,-18,-18,-13,-4
-4,-9,-4,7,0,-7,0,-13,-18,-18,-13,-4
-4,-9,-4,7,0,-7,0,-13,-18,-18,-13,-4
-4,-9,-4,7,0,-7,0,-13,-18,-18,-13,-4
-4,-9,-4,7,0,-7,0,-13,-18,-18,-13,-4
-4,-10,-4,7,0,-7,0,-13,-18,-18,-13,-4
-4,-10,-4,7,0,-7,0,-13,-18,-18,-13,-4
-4,-10,-4,7,0,-7,0,-13,-18,-18,-13,-5
-5,-10,-4,7,0,-7,0,-13,-18,-18,-13,-5
-5,-10,-4,8,0,-7,0,-13,-18,-18,-13,-6
-6,-11,-4,8,0,-7,0,-13,-18,-18,-13,-6
-5,-11,-4,8,0,-7,0,-13,-18,-18,-13,-6
-5,-11,-4,8,0,-7,0,-13,-18,-18,-12,-6
-5,-11,-4,8,0,-7,0,-13,-18,-18,-12,-6
-5,-11,-4,9,-1,-8,0,-13,-18,-17,-11,-6
-6,-12,-4,9,-1,-8,0,-13,-17,-17,-11,-6
-6,-12,-4,9,0,-8,0,-12,-17,-17,-11,-7
-6,-12,-5,9,0,-9,0,-12,-17,-17,-11,-7
-6,-12,-5,10,-1,-9,0,-12,-17,-17,-11,-8
-7,-12,-4,10,-1,-9,1,-11,-17,-17,-10,-8
-7,-12,-4,10,-2,-9,1,-11,-17,-17,-10,-8
-7,-12,-4,10,-2,-9,1,-11,-17,-17,-10,-9
-7,-12,-4,9,-1,-8,1,-11,-17,-17,-10,-9
-7,-12,-4,9,-1,-8,1,-11,-17,-17,-10,-9
-7,-12,-4,10,-1,-8,1,-11,-17,-17,-10,-9
-7,-12,-4,10,-1,-8,1,-11,-17,-17,-10,-9
-7,-12,-4,10,-1,-8,1,-11,-17,-17,-10,-9
-7,-12,-4,10,-1,-8,1,-11,-17,-17,-10,-9
-7,-12,-4,10,-1,-8,0,-12,-17,-17,-10,-9
-7,-11,-4,9,-1,-7,0,-12,-17,-17,-10,-10
-7,-11,-4,9,-1,-7,0,-12,-17,-17,-9,-10
-6,-11,-4,9,-1,-7,0,-12,-17,-18,-9,-10
-6,-11,-4,8,-1,-7,0,-12,-17,-18,-9,-9
-5,-10,-3,8,0,-6,0,-12,-17,-18,-9,-9
-5,-10,-3,7,0,-6,0,-13,-18,-18,-9,-10
-5,-10,-3,7,0,-7,0,-13,-18,-18,-9,-10
-5,-10,-4,7,0,-7,0,-14,-19,-19,-9,-10
-5,-10,-4,7,0,-7,0,-14,-19,-19,-10,-10
-5,-10,-4,7,0,-7,0,-15,-19,-19,-10,-10
-5,-10,-4,7,0,-7,-1,-15,-20,-19,-10,-10
-5,-10,-4,7,0,-7,-1,-16,-20,-20,-10,-11
-5,-9,-4,7,0,-7,-2,-16,-20,-20,-10,-11
-4,-9,-4,7,0,-7,-2,-16,-20,-20,-10,-11
-4,-9,-4,7,0,-7,-3,-16,-21,-21,-10,-11
-3,-9,-4,6,0,-7,-3,-17,-21,-21,-11,-12
-3,-8,-5,6,0,-6,-4,-18,-22,-22,-11,-12
-2,-7,-5,5,1,-6,-4,-18,-22,-22,-11,-12
-1,-6,-5,4,1,-6,-4,-18,-22,-23,-11,-12
-1,-6,-5,3,1,-5,-4,-18,-22,-23,-11,-12
-1,-6,-4,4,1,-5,-5,-18,-23,-23,-12,-12
-1,-6,-4,4,1,-5,-5,-18,-23,-24,-12,-12
0,-6,-4,3,2,-5,-5,-18,-23,-24,-12,-12
0,-5,-4,3,2,-5,-5,-19,-23,-24,-12,-12
0,-5,-4,3,2,-5,-5,-19,-23,-24,-12,-12
0,-5,-4,3,1,-5,-5,-19,-23,-24,-12,-12
0,-5,-4,3,1,-5,-5,-19,-24,-24,-12,-13
0,-6,-4,3,1,-5,-5,-19,-24,-25,-12,-13
0,-6,-5,3,2,-6,-5,-20,-24,-25,-12,-13
0,-6,-5,3,2,-6,-5,-20,-24,-25,-13,-13
0,-5,-5,2,2,-5,-5,-20,-24,-25,-13,-13
0,-5,-4,2,2,-5,-5,-20,-24,-25,-13,-12
0,-5,-4,2,2,-5,-5,-20,-24,-25,-13,-12
0,-5,-4,2,2,-5,-5,-20,-24,-25,-13,-12
0,-5,-4,2,2,-5,-5,-20,-24,-25,-13,-12
0,-5,-4,2,1,-5,-5,-19,-24,-25,-12,-12
0,-4,-4,2,1,-4,-4,-19,-23,-25,-12,-11
0,-4,-4,1,1,-4,-4,-18,-23,-25,-12,-11
0,-4,-3,1,1,-3,-4,-18,-23,-25,-12,-10
0,-3,-2,1,1,-3,-3,-17,-22,-24,-11,-10
1,-2,-1,0,1,-2,-3,-17,-22,-23,-11,-9
0,-2,-1,0,0,-2,-2,-17,-22,-23,-11,-9
0,-1,0,0,0,-1,-2,-16,-21,-22,-10,-9
1,0,0,0,0,0,-1,-15,-21,-22,-9,-8
2,1,0,-1,0,0,0,-14,-20,-22,-9,-7
2,2,1,-2,0,1,0,-14,-20,-22,-9,-7
2,2,1,-2,0,1,1,-13,-19,-22,-9,-7
2,2,2,-2,0,2,1,-13,-19,-22,-9,-7
1,2,2,-2,0,2,1,-13,-19,-22,-9,-7
1,3,2,-2,0,2,1,-13,-19,-22,-9,-6
1,3,2,-2,0,2,1,-13,-19,-22,-9,-6
1,2,2,-2,0,1,0,-14,-19,-23,-9,-5
1,2,1,-2,0,1,0,-14,-19,-24,-9,-5
