leadI,leadII,leadIII,leadaVR,leadaVL,leadaVF,leadV1,leadV2,leadV3,leadV4,leadV5,leadV6
0,0,0,0,0,0,0,0,0,0,0,0
1,1,0,-1,0,1,0,0,-1,-1,-1,-1
2,3,1,-2,0,2,0,0,-2,-2,-1,-2
2,4,1,-2,0,3,1,1,-2,-2,0,-2
2,4,2,-2,0,3,1,1,-3,-2,0,-2
1,3,2,-1,0,2,1,0,-4,-3,-1,-3
0,2,2,0,-1,2,1,0,-5,-3,-1,-3
-1,1,2,0,-2,2,1,0,-5,-4,-2,-4
-1,1,2,0,-2,2,1,-1,-6,-5,-3,-5
-2,0,2,1,-3,2,1,-2,-6,-6,-4,-6
-3,0,2,2,-3,1,1,-2,-7,-6,-4,-6
-4,0,3,2,-4,1,1,-2,-7,-6,-5,-6
-4,0,3,2,-4,1,2,-2,-7,-6,-5,-6
-4,0,3,2,-4,1,2,-2,-8,-6,-5,-6
-4,-1,4,3,-4,1,2,-2,-8,-6,-5,-6
-5,-1,4,3,-4,1,1,-2,-8,-7,-5,-6
-5,-1,4,3,-5,1,1,-3,-8,-7,-6,-7
-6,-1,5,4,-5,1,1,-3,-9,-7,-6,-7
-7,-2,5,5,-6,1,1,-3,-9,-7,-6,-8
-7,-2,5,5,-7,1,1,-3,-9,-7,-6,-9
-7,-2,6,5,-7,2,1,-3,-9,-7,-6,-9
-7,-1,6,4,-7,2,1,-3,-9,-7,-6,-9
-7,0,6,4,-7,2,1,-3,-9,-7,-6,-9
-6,0,6,3,-6,2,1,-3,-9,-7,-6,-9
-5,0,6,2,-6,2,1,-3,-9,-7,-6,-8
-4,1,6,1,-5,3,1,-2,-8,-7,-6,-8
-4,1,6,1,-5,3,1,-2,-8,-7,-6,-8
-5,0,6,2,-5,3,1,-2,-8,-7,-6,-8
-5,0,6,2,-5,3,1,-2,-8,-7,-6,-8
-6,0,6,2,-5,3,1,-2,-9,-7,-6,-8
-6,0,6,2,-5,3,1,-2,-9,-7,-6,-8
-6,0,6,3,-6,3,1,-2,-9,-7,-6,-8
-6,0,6,3,-6,2,2,-2,-9,-7,-6,-8
-6,-1,5,3,-6,2,2,-2,-9,-7,-6,-8
-6,-1,5,3,-6,2,2,-2,-9,-7,-6,-8
-5,-1,4,3,-5,2,2,-2,-8,-7,-6,-7
-5,-1,4,3,-5,1,2,-1,-8,-7,-6,-7
-5,-2,3,3,-4,1,2,-1,-8,-7,-6,-7
-5,-2,3,4,-4,0,2,-1,-8,-7,-6,-7
-5,-2,3,4,-4,0,2,-1,-8,-7,-6,-8
-5,-2,3,4,-4,0,3,-1,-8,-7,-6,-8
-4,-2,3,3,-4,0,3,-1,-8,-7,-6,-8
-4,-3,2,4,-4,0,3,-1,-8,-7,-6,-8
-5,-4,1,4,-3,-1,3,-1,-8,-7,-6,-8
-5,-5,1,5,-3,-2,3,-1,-8,-7,-6,-7
-6,-6,1,6,-3,-2,3,-1,-8,-7,-6,-7
-7,-7,1,7,-3,-3,3,-1,-8,-7,-6,-7
-7,-7,1,8,-3,-3,4,0,-8,-7,-6,-7
-8,-8,1,8,-4,-4,5,1,-8,-6,-6,-7
-8,-7,1,8,-4,-4,7,3,-6,-5,-6,-7
-7,-7,1,7,-4,-4,9,6,-4,-4,-5,-7
-6,-5,0,6,-3,-3,11,9,-2,-3,-4,-6
-3,-3,0,3,-2,-2,13,12,0,-1,-3,-5
0,-1,0,1,0,-1,15,15,2,1,-1,-4
1,0,-1,0,0,0,15,16,4,2,0,-3
2,0,-2,-1,1,-1,13,14,4,3,1,-2
3,-1,-3,-1,2,-2,10,9,2,3,2,-2
4,-1,-5,-1,4,-2,4,0,0,2,3,0
7,0,-7,-3,6,-3,-6,-11,-3,2,4,1
11,2,-9,-6,9,-3,-20,-26,-7,2,7,4
16,4,-12,-10,13,-4,-35,-43,-13,2,10,8
21,6,-15,-13,17,-4,-53,-61,-20,2,14,12
28,9,-18,-18,22,-4,-71,-79,-26,3,19,18
36,14,-21,-25,28,-3,-89,-93,-30,7,28,26
45,20,-25,-32,35,-2,-106,-103,-30,14,39,37
54,26,-28,-40,41,0,-123,-112,-31,22,51,48
63,31,-32,-47,48,0,-141,-123,-33,27,62,59
71,35,-37,-53,54,0,-159,-136,-37,30,70,68
77,37,-40,-57,58,0,-173,-148,-42,32,78,77
81,41,-39,-60,60,1,-183,-158,-46,35,85,85
83,47,-35,-64,59,6,-188,-165,-48,38,92,93
84,53,-31,-67,57,11,-189,-168,-49,40,98,101
86,58,-27,-71,56,15,-188,-169,-51,42,102,107
87,63,-23,-74,55,19,-185,-168,-52,43,105,112
86,66,-20,-75,53,22,-179,-166,-54,41,104,114
82,64,-18,-73,50,22,-172,-163,-56,37,99,111
75,58,-16,-66,45,21,-161,-157,-58,29,89,103
63,50,-12,-57,37,19,-148,-150,-62,18,73,89
49,43,-5,-46,27,19,-134,-144,-67,5,53,72
35,36,2,-35,16,19,-120,-138,-72,-8,33,56
22,31,8,-26,7,20,-106,-129,-74,-18,18,42
13,26,12,-19,1,19,-93,-118,-73,-25,8,32
7,22,13,-14,-3,18,-82,-108,-72,-29,0,24
3,18,13,-10,-5,15,-73,-99,-70,-32,-6,17
0,13,13,-7,-6,13,-65,-91,-67,-34,-11,11
-2,9,11,-3,-7,10,-57,-83,-64,-36,-15,6
-3,4,9,0,-7,7,-50,-75,-61,-36,-17,2
-4,0,7,3,-6,4,-43,-66,-57,-36,-19,0
-5,-3,4,5,-5,0,-37,-59,-53,-35,-20,-2
-6,-5,1,7,-4,-2,-32,-51,-49,-33,-21,-4
-7,-8,-1,8,-3,-5,-27,-44,-45,-31,-20,-5
-8,-11,-3,10,-3,-7,-23,-38,-41,-29,-20,-6
-10,-15,-4,12,-3,-9,-18,-32,-36,-26,-19,-7
-11,-17,-5,14,-3,-11,-14,-26,-32,-24,-18,-8
-11,-19,-6,15,-3,-12,-9,-20,-27,-21,-17,-9
-12,-19,-6,16,-3,-12,-4,-14,-23,-18,-16,-9
-12,-20,-6,16,-2,-13,0,-9,-19,-16,-15,-9
-12,-20,-7,17,-2,-13,3,-5,-16,-15,-14,-9
-13,-21,-7,17,-2,-14,6,-1,-14,-13,-13,-10
-14,-22,-7,18,-3,-15,8,2,-11,-11,-12,-10
-15,-22,-7,19,-3,-15,11,5,-8,-9,-11,-10
-14,-21,-7,18,-3,-14,14,9,-5,-6,-9,-10
-13,-20,-6,17,-3,-13,17,13,-1,-3,-7,-8
-12,-19,-6,16,-3,-12,19,16,2,-1,-5,-7
-12,-19,-6,16,-3,-12,21,19,4,0,-4,-7
-12,-19,-6,16,-3,-12,23,22,6,2,-3,-6
-12,-19,-6,16,-3,-12,24,24,7,3,-2,-6
-13,-18,-5,16,-4,-12,25,25,8,4,-2,-5
-13,-18,-5,16,-4,-12,25,26,9,5,-1,-5
-13,-18,-4,16,-4,-12,25,26,10,6,-1,-5
-14,-19,-4,17,-4,-12,26,27,11,6,-1,-5
-14,-19,-5,17,-4,-12,26,28,12,7,0,-5
-14,-20,-5,17,-4,-12,27,29,13,7,0,-5
-14,-20,-6,17,-4,-13,28,30,13,7,0,-5
-14,-20,-6,17,-4,-13,28,31,14,8,0,-5
-13,-20,-7,17,-3,-14,29,32,14,8,1,-4
-13,-21,-8,17,-3,-14,29,32,15,9,1,-4
-13,-22,-8,17,-2,-15,30,33,15,9,1,-3
-14,-23,-8,18,-2,-15,30,33,16,9,1,-3
-15,-24,-8,19,-2,-16,30,33,17,9,1,-3
-15,-24,-9,20,-2,-16,31,34,17,10,2,-3
-15,-25,-9,20,-2,-17,31,34,17,10,2,-3
-15,-25,-9,20,-3,-17,31,35,17,10,2,-3
-15,-24,-8,20,-3,-16,31,35,18,10,2,-3
-15,-24,-8,20,-3,-16,31,35,18,11,2,-3
-15,-23,-7,20,-3,-16,31,35,18,11,2,-3
-15,-23,-7,19,-3,-16,31,35,18,11,2,-3
-15,-23,-7,19,-3,-15,31,36,19,12,3,-3
-15,-23,-7,19,-4,-15,31,36,19,12,3,-3
-15,-23,-6,19,-4,-15,31,37,20,12,3,-3
-15,-23,-6,19,-4,-15,32,37,20,12,3,-3
-15,-23,-6,19,-4,-14,32,37,20,12,3,-3
-15,-22,-6,19,-4,-14,32,37,21,12,3,-3
-16,-22,-6,19,-4,-14,32,38,21,13,3,-3
-16,-22,-6,19,-4,-14,32,38,21,13,3,-3
-16,-21,-6,18,-4,-14,32,39,21,13,3,-3
-15,-19,-5,16,-3,-13,32,39,22,13,4,-3
-14,-18,-5,15,-3,-12,32,40,22,14,4,-3
-13,-18,-4,15,-4,-11,32,40,23,14,4,-3
-13,-17,-4,15,-4,-11,33,41,23,14,4,-3
-14,-18,-3,16,-4,-11,33,41,23,14,4,-3
-15,-18,-3,17,-4,-11,33,41,24,14,4,-3
-15,-18,-3,17,-4,-11,34,42,24,15,4,-3
-16,-19,-4,17,-4,-12,34,42,25,15,4,-3
-16,-20,-4,18,-5,-12,34,43,25,15,4,-3
-17,-21,-4,19,-5,-13,34,43,25,15,4,-3
-17,-22,-5,19,-5,-14,34,44,25,15,4,-3
-16,-22,-5,19,-5,-14,35,44,26,15,4,-3
-16,-21,-4,18,-5,-13,35,45,26,16,5,-3
-16,-19,-4,18,-5,-12,36,45,27,16,5,-3
-16,-19,-4,17,-5,-11,36,46,27,17,5,-3
-17,-19,-4,18,-6,-11,36,47,27,17,5,-3
-17,-19,-3,18,-6,-10,36,47,28,17,5,-3
-15,-17,-3,16,-5,-9,36,49,29,18,6,-2
-13,-14,-2,13,-5,-7,37,50,30,18,7,-1
-12,-13,-1,12,-5,-6,37,51,30,19,7,-1
-12,-12,0,12,-6,-6,37,51,30,19,6,-2
-13,-13,0,13,-6,-6,37,51,31,19,6,-2
-14,-13,1,14,-7,-6,37,52,31,19,6,-2
-15,-13,1,14,-7,-6,37,52,31,19,6,-2
-15,-13,1,14,-6,-6,38,53,31,19,7,-2
-14,-13,1,13,-7,-6,38,54,32,20,7,-2
-15,-13,1,14,-8,-6,38,55,32,20,7,-2
-16,-14,2,14,-9,-6,38,55,33,20,7,-2
-16,-14,2,15,-9,-6,38,56,34,20,7,-2
-16,-13,2,15,-9,-6,38,57,34,20,7,-2
-15,-13,2,14,-9,-5,39,58,35,21,7,-2
-15,-12,2,14,-8,-4,39,59,35,21,7,-2
-15,-11,3,13,-8,-4,39,60,36,22,7,-2
-15,-12,2,13,-8,-4,39,61,36,22,8,-2
-15,-12,2,13,-8,-5,40,61,37,22,8,-2
-15,-13,2,13,-8,-5,40,62,38,23,9,-2
-15,-13,1,13,-8,-5,41,63,38,23,9,-2
-15,-13,1,13,-8,-5,41,63,39,24,9,-2
-15,-13,1,13,-7,-5,41,64,39,24,9,-1
-15,-13,1,13,-7,-5,41,64,39,25,10,-1
-14,-13,1,13,-6,-5,41,65,40,25,10,0
-13,-12,1,12,-6,-5,41,65,40,25,10,0
-13,-12,1,12,-6,-5,41,65,40,25,10,0
-12,-12,1,11,-6,-5,40,65,40,25,10,0
-12,-11,1,11,-6,-5,40,65,40,25,10,0
-12,-11,1,11,-6,-5,39,65,40,25,10,0
-12,-12,1,11,-6,-5,39,64,40,24,10,0
-12,-12,1,12,-6,-6,38,64,39,24,10,0
-12,-11,1,11,-6,-5,37,63,39,24,10,0
-11,-10,1,10,-5,-5,36,63,38,24,10,0
-10,-9,1,9,-5,-4,36,62,38,23,10,0
-9,-8,0,8,-4,-4,35,61,37,23,10,0
-8,-8,0,7,-4,-4,34,60,37,23,10,0
-7,-7,0,7,-3,-4,34,58,36,22,9,0
-7,-7,0,6,-3,-4,33,57,35,22,9,1
-6,-6,0,6,-2,-3,32,56,34,21,9,1
-5,-6,-1,5,-2,-3,31,54,33,21,9,1
-5,-6,-1,5,-1,-3,30,53,32,20,9,1
-4,-6,-1,5,-1,-3,29,51,31,20,9,1
-4,-6,-2,5,-1,-4,27,50,30,19,8,1
-5,-7,-2,5,-1,-4,26,48,29,17,7,1
-5,-8,-2,6,-1,-5,25,46,27,16,7,1
-5,-8,-3,7,0,-6,24,44,26,15,6,1
-4,-8,-4,6,0,-6,23,42,25,14,6,1
-3,-7,-4,6,1,-6,22,41,24,14,6,1
-2,-7,-5,5,1,-6,20,39,22,13,6,1
-2,-7,-5,5,1,-6,19,36,21,13,5,1
-2,-7,-6,4,2,-6,17,34,19,12,5,1
-2,-7,-6,4,2,-6,16,31,18,10,4,1
-3,-8,-6,5,2,-7,15,29,16,9,3,1
-3,-9,-7,6,3,-8,14,26,14,8,2,1
-1,-8,-7,5,3,-8,13,24,12,7,2,1
0,-7,-7,3,4,-7,12,23,11,6,2,1
2,-4,-7,1,4,-6,12,22,10,6,2,1
4,-3,-7,0,5,-5,11,20,9,5,2,1
4,-2,-7,-1,5,-4,10,18,8,5,2,1
5,-1,-7,-2,6,-4,9,17,7,4,1,1
5,0,-7,-2,6,-3,8,15,6,3,1,1
5,-1,-7,-2,6,-3,7,13,4,2,0,1
5,-2,-7,-2,6,-4,7,11,3,1,0,1
4,-2,-7,-2,6,-4,6,9,1,0,0,1
4,-2,-6,-1,6,-4,6,8,0,0,-1,1
3,-3,-6,-1,5,-5,5,7,0,0,-1,0
2,-3,-6,0,5,-5,5,5,-1,-1,-2,0
2,-3,-6,0,4,-5,5,4,-1,-1,-2,0
1,-4,-6,1,4,-5,5,3,-2,-2,-2,0
0,-5,-6,2,3,-6,4,2,-3,-2,-3,0
0,-5,-6,2,3,-6,4,1,-4,-3,-3,0
0,-5,-5,2,3,-5,4,1,-4,-3,-3,0
0,-4,-5,1,3,-5,4,0,-4,-3,-3,0
0,-4,-5,2,3,-5,4,0,-4,-3,-3,0
-1,-5,-5,2,2,-5,4,0,-4,-4,-3,-1
-1,-4,-5,2,2,-5,3,-1,-4,-4,-3,-1
0,-3,-5,2,3,-4,3,-1,-4,-4,-3,-1
1,-2,-5,0,3,-3,3,-1,-5,-4,-3,-1
1,-2,-4,0,3,-3,3,-2,-5,-4,-3,-1
0,-2,-4,0,3,-3,3,-2,-5,-4,-4,-1
0,-2,-4,1,2,-3,3,-2,-5,-4,-4,-1
-1,-3,-4,2,2,-3,3,-2,-5,-4,-4,-1
-1,-3,-3,2,1,-3,3,-2,-5,-4,-4,-1
-1,-3,-3,3,1,-3,3,-2,-5,-4,-4,-1
-1,-3,-3,3,1,-3,3,-2,-5,-4,-4,-1
-1,-3,-3,2,1,-3,3,-2,-5,-4,-4,-1
-1,-2,-3,2,1,-3,4,-2,-5,-4,-4,-1
0,-2,-3,1,1,-3,4,-2,-5,-4,-4,-1
-1,-3,-3,1,1,-3,4,-2,-5,-4,-4,-1
-1,-4,-3,2,1,-4,4,-2,-5,-4,-4,-1
-1,-4,-3,2,1,-4,4,-3,-5,-4,-4,-1
-1,-4,-3,2,1,-4,4,-3,-5,-4,-4,-1
-1,-4,-3,2,1,-4,4,-3,-5,-4,-4,-1
-1,-4,-3,2,1,-3,4,-3,-5,-4,-4,-1
-1,-3,-3,2,1,-3,4,-3,-5,-4,-4,-1
-2,-4,-3,2,1,-3,4,-3,-5,-4,-4,-1
-2,-4,-3,3,0,-4,4,-3,-5,-4,-4,-1
-2,-5,-3,3,0,-4,4,-2,-5,-4,-4,-1
-2,-4,-3,3,1,-4,4,-2,-5,-3,-3,-1
-2,-4,-2,3,0,-4,5,-1,-5,-3,-3,-1
-2,-5,-2,4,0,-4,5,-1,-5,-3,-3,-1
-3,-5,-3,5,0,-5,5,-1,-5,-3,-3,-1
-3,-6,-3,5,0,-5,5,-1,-5,-3,-3,-1
-3,-6,-3,5,0,-5,5,-1,-5,-3,-3,-2
-4,-7,-3,6,0,-5,5,-1,-5,-3,-3,-2
-4,-8,-3,6,0,-6,5,-1,-5,-3,-3,-2
-5,-9,-4,7,0,-6,5,-1,-5,-3,-3,-2
-6,-10,-4,8,-1,-7,5,-1,-5,-3,-4,-2
-7,-10,-3,8,-1,-7,5,-1,-5,-3,-4,-2
-6,-10,-3,8,-1,-7,6,-1,-5,-3,-4,-2
-5,-9,-3,7,0,-6,6,0,-5,-3,-4,-1
-5,-8,-3,6,0,-6,7,0,-5,-3,-4,-1
-4,-7,-3,6,0,-5,7,0,-5,-3,-4,-1
-4,-6,-2,5,0,-5,7,0,-5,-3,-4,-1
-4,-6,-2,5,0,-4,6,0,-5,-3,-4,-1
-4,-5,-2,5,0,-4,6,0,-4,-2,-4,-1
-4,-4,-2,4,0,-3,6,0,-4,-2,-4,-1
-3,-3,-1,4,0,-3,6,0,-3,-2,-4,-1
-3,-3,-1,4,0,-2,6,0,-3,-2,-4,-1
-4,-3,0,4,-1,-2,6,0,-4,-2,-4,-2
-5,-4,0,5,-1,-2,6,0,-4,-3,-4,-2
-5,-4,0,5,-1,-2,6,0,-4,-3,-4,-2
-5,-4,0,4,-1,-2,6,0,-4,-3,-4,-2
-5,-3,0,4,-1,-2,7,0,-4,-2,-4,-1
-5,-3,0,4,-2,-2,7,0,-4,-2,-4,-1
-4,-3,0,4,-2,-2,7,0,-4,-2,-4,-2
-4,-3,0,3,-1,-1,7,0,-4,-2,-4,-2
-3,-2,0,3,-1,-1,7,0,-4,-2,-4,-2
-3,-2,1,3,-1,-1,7,0,-5,-3,-4,-2
-3,-2,1,3,-2,0,7,0,-5,-3,-4,-2
-3,-1,1,2,-2,0,7,0,-5,-3,-4,-3
-3,-1,1,2,-2,0,7,0,-5,-3,-4,-3
-3,-1,1,2,-1,0,6,0,-5,-3,-4,-3
-4,-3,1,3,-2,-1,6,0,-5,-4,-5,-3
-5,-4,1,5,-2,-2,6,0,-5,-4,-5,-3
-5,-4,0,5,-2,-2,6,0,-5,-3,-5,-3
-4,-4,0,5,-2,-3,6,1,-5,-3,-4,-3
-4,-4,0,5,-1,-3,7,1,-5,-2,-4,-2
-4,-5,-1,5,-1,-4,7,1,-5,-2,-4,-2
-4,-5,-1,5,-1,-4,7,1,-4,-2,-4,-2
-3,-5,-1,5,0,-4,7,1,-4,-2,-4,-2
-3,-5,-1,5,0,-4,8,1,-4,-2,-4,-2
-4,-6,-1,5,0,-4,8,1,-4,-2,-4,-2
-5,-7,-1,6,-1,-4,7,1,-5,-3,-4,-2
-6,-7,-1,7,-1,-5,6,0,-5,-3,-4,-2
-6,-7,-1,7,-1,-5,6,0,-5,-3,-4,-2
-5,-6,-1,6,-1,-4,6,0,-5,-2,-4,-2
-4,-5,-1,5,0,-4,6,0,-5,-2,-4,-2
-3,-4,-1,4,0,-3,6,0,-5,-2,-4,-2
-3,-4,-1,4,0,-3,6,0,-5,-2,-4,-2
-3,-4,-1,4,0,-3,6,0,-5,-2,-3,-2
-4,-5,-2,5,0,-4,6,0,-5,-2,-3,-2
-3,-5,-2,5,0,-4,6,0,-4,-1,-3,-1
-3,-5,-2,4,1,-4,6,0,-4,-1,-3,-1
-3,-5,-2,4,1,-4,6,0,-4,-1,-3,-1
-3,-5,-3,4,1,-4,6,0,-4,-1,-3,-1
-2,-5,-3,4,1,-5,6,0,-4,-1,-3,-1
-2,-5,-3,4,1,-4,7,1,-4,-1,-3,-1
-1,-4,-3,3,1,-4,7,1,-4,-1,-3,-1
-1,-4,-3,3,1,-3,7,1,-4,-1,-3,-1
0,-4,-3,2,2,-3,7,1,-3,-1,-2,-1
-1,-5,-3,3,2,-4,7,1,-3,-1,-2,-1
-4,-8,-3,6,1,-6,7,1,-4,-2,-3,-1
-8,-12,-4,10,0,-8,6,0,-5,-3,-4,-2
-11,-16,-4,14,-2,-10,5,0,-6,-4,-4,-3
-11,-16,-4,14,-2,-11,5,0,-6,-4,-4,-3
-8,-13,-5,11,-1,-9,5,0,-6,-4,-3,-2
-4,-9,-5,7,0,-7,6,1,-5,-3,-2,-1
-2,-7,-5,4,1,-6,6,1,-4,-2,-2,-1
-1,-5,-4,3,2,-5,6,1,-4,-2,-1,0
0,-4,-4,2,2,-4,6,2,-3,-1,-1,0
0,-3,-4,1,3,-4,7,2,-3,-1,0,0
0,-3,-4,1,3,-4,7,2,-2,0,0,0
0,-4,-4,2,2,-4,7,2,-3,0,0,0
-2,-5,-4,3,1,-4,6,1,-3,-1,-1,0
-3,-6,-4,4,0,-4,6,1,-4,-1,-1,-1
-3,-6,-4,5,0,-4,6,0,-4,-1,-2,-1
-3,-5,-3,4,0,-4,6,0,-4,-2,-2,-1
-3,-5,-3,4,0,-3,6,0,-4,-2,-1,-1
-2,-4,-2,3,0,-3,6,1,-3,-2,-1,-1
-1,-3,-2,2,0,-2,7,1,-3,-1,-1,0
-1,-2,-1,1,0,-2,7,2,-2,-1,-1,0
-1,-2,-1,2,0,-2,7,2,-2,-1,-1,0
-2,-3,-1,2,0,-2,7,2,-2,-1,-1,0
-2,-3,-1,3,0,-1,6,1,-2,-1,-1,0
-2,-3,0,3,0,-1,6,1,-2,-1,-1,0
-2,-2,0,2,0,-1,7,1,-2,-1,-1,0
-1,-1,0,1,0,-1,7,2,-1,-1,0,0
0,0,0,0,0,0,8,2,-1,0,0,1
0,1,0,-1,0,0,8,3,0,0,0,1
1,1,0,-1,0,1,9,4,0,1,1,2
1,2,1,-2,0,2,9,4,1,2,2,2
2,3,1,-3,1,2,10,5,2,2,2,3
2,4,1,-3,1,3,10,5,2,3,3,3
2,4,1,-3,1,3,10,6,2,3,3,3
2,4,1,-3,1,3,10,6,2,3,3,3
2,3,1,-2,1,2,10,6,2,3,3,3
2,3,1,-2,1,2,10,6,2,3,3,3
3,4,1,-3,1,2,10,7,2,3,3,3
4,5,0,-4,2,2,10,7,3,4,3,4
5,6,0,-5,3,3,11,8,3,4,4,4
6,7,1,-6,3,3,11,8,4,5,4,4
6,7,1,-6,3,4,11,8,4,5,4,5
6,8,1,-7,3,4,11,8,4,5,4,5
7,9,1,-8,3,5,11,8,4,5,5,5
8,10,1,-9,4,5,10,8,4,5,5,6
8,10,1,-9,4,5,9,7,4,5,5,6
9,10,1,-9,4,5,8,7,4,5,5,6
9,10,0,-9,4,5,6,6,3,4,5,6
8,9,0,-8,4,4,4,4,2,3,4,5
8,8,0,-8,4,4,3,3,1,3,4,5
8,8,0,-8,4,4,2,2,1,2,3,5
7,7,0,-7,4,3,2,2,0,2,3,4
6,5,-1,-5,4,2,2,1,0,1,2,4
4,4,-1,-4,3,1,2,1,-1,0,1,3
3,3,-1,-3,2,1,2,0,-2,-1,0,2
3,3,0,-3,1,1,2,0,-2,-1,0,2
4,4,0,-4,2,2,1,0,-3,-1,0,2
5,5,0,-5,3,2,1,-1,-3,-2,0,1
6,5,-1,-5,4,1,0,-2,-4,-3,-1,1
6,5,-1,-5,4,1,0,-2,-4,-3,-1,1
6,5,-1,-5,4,1,0,-3,-4,-3,-1,1
5,5,-1,-5,4,1,0,-3,-4,-3,-1,1
4,4,-1,-4,4,1,0,-3,-4,-3,-1,1
3,3,0,-3,3,1,0,-3,-4,-3,-1,1
3,4,0,-4,2,2,1,-3,-4,-2,-1,1
3,5,1,-4,2,3,1,-2,-4,-2,-1,1
3,5,2,-4,1,3,1,-2,-4,-2,-1,1
2,6,3,-4,0,4,1,-2,-4,-2,-1,0
1,6,3,-4,0,4,2,-2,-4,-2,-1,0
1,6,4,-4,0,4,2,-2,-4,-2,-1,0
0,5,4,-3,-1,4,2,-2,-4,-3,-1,0
-1,3,4,-1,-2,3,2,-2,-5,-4,-2,-1
-3,2,5,1,-3,3,2,-3,-5,-5,-3,-2
-5,0,5,2,-4,2,2,-3,-6,-6,-4,-3
-6,0,6,3,-5,2,2,-4,-6,-6,-5,-4
-7,0,6,4,-6,2,1,-4,-7,-7,-6,-4
-7,0,7,4,-6,2,1,-5,-7,-7,-6,-5
-7,0,7,4,-6,2,1,-5,-7,-7,-6,-5
-7,0,7,4,-6,2,1,-5,-7,-7,-6,-5
-7,0,7,4,-6,2,1,-5,-7,-7,-6,-5
-7,0,7,4,-6,2,1,-5,-7,-8,-6,-5
-7,0,7,4,-6,3,2,-5,-7,-8,-6,-5
-7,0,7,4,-6,3,2,-5,-7,-8,-6,-5
-7,1,7,3,-6,3,2,-5,-7,-7,-6,-5
-7,1,8,3,-7,3,2,-5,-7,-7,-6,-5
-7,1,8,3,-7,3,2,-5,-7,-7,-6,-5
-7,1,8,3,-7,3,2,-5,-7,-7,-6,-5
-7,1,8,3,-7,4,2,-5,-7,-7,-6,-5
-7,2,9,2,-7,4,2,-4,-7,-7,-6,-5
-6,2,9,2,-7,5,3,-4,-7,-7,-6,-5
-6,3,10,2,-8,6,3,-4,-7,-7,-6,-5
-7,3,10,2,-8,6,3,-5,-7,-7,-6,-6
-7,2,10,3,-8,5,3,-5,-8,-7,-6,-6
-8,2,10,3,-8,5,2,-5,-8,-7,-6,-6
-8,2,10,3,-8,5,2,-5,-8,-7,-6,-6
-8,2,10,3,-8,4,2,-5,-8,-7,-6,-6
-8,1,10,3,-9,4,2,-5,-8,-7,-7,-6
-8,1,10,3,-9,5,2,-5,-8,-8,-7,-6
-8,2,10,3,-9,5,2,-5,-8,-8,-7,-6
-8,2,10,3,-8,5,2,-5,-8,-7,-7,-6
-7,2,9,3,-7,5,3,-5,-8,-7,-7,-6
-7,2,9,3,-7,5,3,-5,-8,-7,-7,-6
-7,2,9,2,-7,5,3,-5,-8,-7,-7,-6
-6,2,9,2,-7,5,3,-4,-7,-7,-6,-6
-6,2,8,2,-6,4,3,-4,-7,-6,-6,-5
-6,1,7,2,-6,4,4,-3,-6,-6,-6,-5
-7,0,6,3,-6,3,4,-3,-6,-6,-6,-5
-8,-2,6,5,-6,1,4,-3,-6,-6,-6,-5
-9,-3,5,6,-6,0,4,-3,-6,-6,-6,-5
-9,-4,5,7,-6,0,4,-3,-6,-6,-6,-5
-9,-5,4,7,-6,0,5,-3,-6,-6,-5,-5
-9,-5,4,7,-6,0,6,-1,-5,-5,-5,-4
-8,-5,4,6,-6,0,9,1,-4,-4,-4,-4
-8,-5,4,6,-6,0,12,4,-2,-3,-3,-3
-8,-5,4,6,-6,0,14,7,0,-2,-3,-3
-8,-4,4,6,-6,0,16,9,2,-1,-2,-2
-7,-3,4,5,-5,0,16,11,3,0,-1,-2
-6,-2,4,4,-5,1,15,11,4,1,-1,-1
-4,-1,4,2,-4,2,13,8,3,1,-1,-1
-3,0,4,1,-3,2,10,2,1,0,-1,-1
-3,0,4,1,-3,2,3,-7,-2,-1,-1,-1
-1,2,3,0,-2,2,-8,-19,-6,-2,0,0
2,5,2,-4,0,3,-22,-35,-12,-2,1,1
8,9,1,-9,4,4,-39,-52,-18,-3,3,4
14,13,0,-14,8,5,-57,-71,-25,-4,5,7
21,17,-3,-20,13,6,-76,-88,-32,-4,9,12
29,20,-7,-25,18,6,-94,-102,-36,-2,16,18
37,24,-12,-31,25,5,-111,-112,-38,2,25,26
48,29,-18,-39,33,5,-129,-121,-39,9,36,37
59,35,-23,-47,41,5,-146,-130,-39,15,47,48
69,40,-29,-55,49,5,-162,-139,-41,20,58,59
77,43,-34,-61,56,4,-176,-149,-44,25,67,68
84,48,-36,-66,60,5,-186,-156,-45,29,76,78
88,53,-36,-71,62,8,-192,-161,-45,34,84,86
91,57,-33,-74,62,12,-193,-163,-46,37,90,94
93,62,-30,-77,62,16,-192,-164,-47,39,95,100
93,66,-27,-79,61,20,-188,-164,-47,40,98,105
92,68,-23,-80,58,23,-182,-161,-47,40,100,109
90,68,-21,-79,56,23,-176,-158,-49,38,99,109
84,64,-19,-74,53,22,-168,-155,-52,32,91,104
76,58,-17,-67,47,20,-157,-151,-55,22,79,94
65,53,-11,-59,38,20,-145,-145,-60,11,62,81
52,48,-4,-50,28,21,-131,-141,-65,-3,43,64
39,43,3,-41,18,22,-117,-135,-71,-16,24,48
28,38,10,-33,9,23,-103,-127,-73,-25,9,35
19,34,15,-27,2,24,-90,-117,-72,-30,0,26
11,30,19,-21,-3,24,-78,-107,-69,-33,-6,19
6,26,20,-16,-6,22,-70,-98,-67,-36,-12,13
1,21,21,-11,-9,20,-62,-90,-65,-38,-17,8
-3,16,20,-6,-11,18,-55,-83,-62,-39,-20,3
-6,12,20,-3,-12,16,-49,-75,-58,-38,-22,0
-8,9,19,0,-13,14,-42,-66,-53,-37,-23,-3
-10,6,17,1,-13,12,-36,-59,-49,-36,-24,-5
-11,4,16,3,-13,10,-31,-52,-45,-34,-24,-7
-11,3,14,4,-13,8,-26,-45,-41,-32,-24,-8
-11,1,13,5,-12,7,-22,-40,-37,-30,-24,-10
-11,0,12,5,-11,6,-17,-34,-33,-28,-23,-11
-11,-1,11,6,-11,5,-13,-29,-29,-26,-23,-12
-11,-2,10,6,-10,4,-9,-23,-26,-23,-22,-12
-11,-3,9,7,-10,3,-5,-19,-22,-21,-21,-13
-12,-4,8,7,-10,2,-2,-15,-19,-20,-20,-13
-12,-5,7,8,-9,1,0,-11,-16,-18,-19,-14
-11,-6,6,8,-9,0,3,-7,-13,-16,-18,-14
-11,-6,5,8,-8,-1,5,-4,-10,-14,-17,-14
-11,-7,5,8,-8,-1,8,0,-7,-12,-16,-14
-11,-7,5,8,-8,-1,11,3,-4,-10,-15,-14
-11,-7,5,9,-8,-1,13,7,-2,-7,-13,-13
-11,-8,4,9,-7,-1,15,10,1,-5,-12,-13
-11,-8,4,9,-7,-2,17,12,3,-4,-10,-12
-10,-8,3,9,-6,-2,19,15,5,-3,-9,-11
-10,-8,3,9,-6,-3,20,17,7,-2,-9,-11
-10,-8,2,9,-6,-3,21,18,8,-1,-8,-10
-10,-8,2,9,-6,-3,22,19,8,0,-8,-10
-10,-9,2,10,-6,-3,23,20,9,1,-7,-10
-11,-9,2,11,-6,-4,23,21,10,1,-7,-10
-12,-10,2,11,-6,-4,23,21,10,2,-6,-10
-12,-11,2,12,-6,-5,23,22,11,2,-6,-10
-13,-12,2,13,-7,-5,24,22,12,2,-6,-10
-13,-12,2,13,-7,-5,24,23,12,2,-6,-10
-13,-12,2,13,-7,-5,24,23,13,3,-6,-10
-13,-11,2,12,-7,-4,24,24,13,4,-5,-10
-13,-11,2,12,-7,-4,25,24,14,4,-5,-10
-13,-10,3,12,-8,-4,26,25,14,5,-5,-10
-13,-10,3,11,-8,-3,26,25,15,5,-5,-10
-13,-10,3,11,-7,-3,26,26,15,5,-5,-10
-12,-9,3,10,-7,-3,27,26,16,5,-5,-10
-12,-9,3,10,-7,-2,27,27,16,5,-5,-10
-12,-9,3,10,-7,-3,27,27,16,5,-5,-10
-12,-10,3,11,-8,-3,27,27,16,5,-5,-10
-13,-11,3,12,-8,-4,27,28,17,6,-4,-10
-12,-10,3,11,-7,-3,28,29,18,6,-3,-9
-10,-8,3,9,-6,-2,29,30,19,7,-3,-8
-9,-7,2,8,-5,-2,29,31,20,8,-2,-8
-9,-6,2,8,-5,-2,30,32,21,9,-2,-7
-9,-7,2,8,-5,-2,30,32,21,9,-1,-7
-10,-7,3,9,-6,-2,30,32,20,8,-1,-7
-11,-8,3,10,-7,-2,29,32,20,8,-2,-8
-12,-7,4,10,-7,-1,29,32,20,8,-2,-8
-12,-7,5,9,-8,-1,29,32,20,8,-2,-8
-12,-6,6,9,-8,0,29,32,20,8,-2,-8
-12,-6,7,9,-9,0,28,32,20,7,-2,-9
-12,-5,7,9,-10,0,28,32,20,7,-2,-9
-12,-4,8,8,-10,1,29,33,21,8,-2,-10
-11,-3,8,8,-10,2,29,34,22,8,-2,-10
-11,-3,9,7,-10,2,29,34,22,8,-2,-10
-12,-3,9,7,-11,3,29,34,22,8,-2,-10
-13,-3,9,8,-11,3,29,34,22,8,-2,-10
-14,-4,10,9,-12,3,29,34,22,8,-2,-10
-14,-3,11,9,-12,4,29,35,23,9,-2,-10
-14,-2,12,8,-13,4,29,36,23,9,-2,-10
-13,-2,12,8,-13,4,29,36,24,10,-2,-10
-13,-1,12,8,-13,4,30,37,24,10,-2,-10
-13,-1,13,7,-13,5,30,38,25,11,-2,-10
-13,0,13,7,-13,6,31,39,25,11,-1,-10
-12,0,13,6,-13,6,31,40,26,11,-1,-9
-12,0,13,6,-12,6,32,41,26,11,-1,-9
-12,0,13,6,-12,6,32,41,27,12,-1,-9
-12,0,13,6,-12,5,33,42,28,12,-1,-9
-12,-1,12,6,-12,5,33,43,28,12,0,-9
-12,-1,12,7,-12,5,33,44,29,13,0,-9
-13,-2,12,7,-12,4,34,45,29,13,0,-8
-13,-2,11,8,-12,4,34,46,30,14,0,-8
-13,-2,11,8,-12,4,35,47,31,14,1,-8
-13,-2,11,8,-12,4,35,48,31,15,1,-8
-14,-3,11,9,-12,4,36,49,32,15,1,-8
-15,-4,11,10,-13,3,36,49,32,15,1,-8
-15,-5,11,10,-13,3,36,50,33,15,1,-8
-16,-5,11,10,-13,3,36,50,33,15,1,-8
-16,-4,12,10,-13,3,37,51,34,16,1,-8
-15,-4,12,10,-13,4,37,53,35,17,1,-8
-15,-3,12,10,-14,4,38,54,36,17,2,-8
-15,-3,13,10,-14,4,38,55,36,18,2,-8
-15,-2,13,9,-14,4,39,56,37,18,2,-8
-14,-1,13,8,-13,5,39,56,38,19,3,-7
-13,-1,13,7,-13,5,39,57,38,19,3,-7
-13,0,13,7,-13,6,39,58,39,20,4,-6
-13,0,13,6,-13,6,39,59,39,20,4,-6
-13,0,14,6,-13,6,39,59,40,20,4,-6
-13,0,14,6,-13,6,38,59,40,20,4,-7
-13,1,15,6,-13,7,38,59,40,20,4,-7
-13,1,15,6,-14,7,38,60,40,20,4,-7
-13,2,16,6,-14,8,38,60,40,20,4,-7
-13,2,16,6,-15,9,38,60,40,20,3,-7
-13,3,17,5,-15,10,38,60,40,20,3,-8
-13,4,18,5,-15,10,38,60,40,20,3,-8
-12,5,18,4,-15,11,37,60,40,20,3,-8
-11,6,18,3,-14,11,37,59,39,20,3,-8
-11,7,18,2,-14,11,36,59,39,20,3,-8
-11,7,18,2,-14,11,35,58,38,19,3,-8
-10,7,18,2,-14,12,34,57,37,19,3,-8
-10,7,18,1,-14,12,33,56,36,18,3,-8
-9,8,18,1,-13,12,32,55,36,18,3,-7
-8,10,19,0,-13,14,31,54,35,18,3,-7
-7,12,19,-2,-12,15,31,53,35,18,3,-7
-7,12,19,-2,-12,14,30,52,34,17,2,-7
-6,12,18,-2,-11,14,29,51,33,17,2,-7
-6,12,17,-3,-11,13,28,50,32,16,2,-6
-5,11,16,-2,-11,13,27,49,31,15,2,-6
-6,10,16,-2,-11,12,26,47,30,14,1,-6
-6,9,15,-1,-10,12,25,45,29,14,1,-6
-6,8,15,-1,-9,11,24,44,28,13,1,-6
-5,8,14,-1,-8,10,23,42,27,12,1,-6
-5,7,12,-1,-8,9,22,41,26,12,1,-6
-4,6,11,-1,-7,8,21,39,25,11,1,-6
-4,6,10,-1,-7,7,20,37,23,11,1,-6
-3,6,9,-1,-6,7,18,35,22,10,1,-5
-1,6,8,-2,-4,7,17,33,21,10,1,-5
0,7,7,-3,-3,7,16,32,20,9,0,-4
1,7,6,-3,-2,6,16,30,19,8,0,-4
1,6,5,-3,-1,5,15,28,18,7,0,-4
2,6,4,-3,-1,4,14,26,16,6,0,-4
2,6,2,-4,0,3,14,24,15,5,0,-3
3,6,1,-4,0,3,13,22,14,4,0,-3
4,6,1,-5,1,3,12,20,13,4,0,-3
5,6,0,-5,2,2,10,18,12,3,-1,-3
5,5,0,-5,3,2,9,16,10,2,-1,-3
5,4,0,-4,3,1,8,14,9,1,-2,-3
5,2,0,-3,3,1,8,11,7,0,-2,-3
4,1,-1,-2,3,0,7,9,6,-1,-3,-4
3,0,-2,-1,3,-1,6,7,4,-2,-4,-4
3,0,-2,-1,3,-1,5,5,3,-3,-5,-4
4,0,-3,-2,4,-1,4,4,3,-3,-5,-4
4,1,-3,-2,4,-1,4,3,2,-4,-5,-4
4,1,-2,-2,4,-1,3,1,1,-4,-5,-4
4,2,-1,-3,4,0,3,0,0,-5,-5,-4
5,3,-1,-4,4,0,2,0,0,-5,-5,-4
5,4,-1,-5,4,0,2,-1,0,-6,-6,-4
5,5,-1,-5,4,1,2,-1,-1,-6,-6,-4
5,4,-1,-4,3,0,2,-2,-1,-6,-6,-4
4,3,-1,-3,2,0,2,-3,-2,-6,-6,-5
4,2,-1,-3,3,0,2,-3,-2,-6,-6,-5
4,1,-2,-2,3,-1,2,-4,-2,-7,-6,-5
4,0,-3,-2,4,-2,2,-4,-2,-7,-6,-5
4,0,-4,-1,4,-2,2,-4,-2,-7,-6,-5
3,-1,-5,0,4,-3,2,-4,-2,-7,-6,-5
3,-2,-5,0,4,-4,2,-4,-2,-7,-6,-5
2,-3,-5,0,4,-5,2,-4,-2,-7,-6,-4
2,-3,-6,0,4,-5,2,-4,-2,-6,-6,-4
2,-4,-6,1,4,-5,2,-4,-2,-6,-6,-4
2,-5,-7,1,4,-6,2,-4,-2,-6,-6,-4
1,-5,-7,1,5,-6,2,-4,-2,-6,-6,-3
1,-5,-7,1,5,-6,2,-4,-2,-6,-6,-3
1,-5,-7,2,5,-7,2,-4,-2,-6,-6,-3
0,-6,-7,2,4,-7,2,-4,-2,-6,-6,-4
0,-6,-8,3,4,-8,2,-4,-2,-6,-6,-4
1,-6,-8,2,4,-8,3,-4,-2,-6,-6,-4
2,-4,-7,1,5,-7,3,-4,-2,-6,-6,-3
3,-3,-7,0,5,-6,3,-4,-1,-5,-6,-3
3,-3,-7,0,5,-6,3,-4,-1,-5,-6,-3
2,-3,-7,1,4,-6,3,-4,-1,-5,-6,-3
2,-4,-7,1,4,-6,3,-4,-1,-5,-5,-3
2,-4,-7,1,4,-6,3,-4,-1,-5,-5,-3
2,-4,-7,1,4,-6,3,-4,-1,-5,-5,-3
1,-4,-6,1,4,-6,3,-4,-1,-5,-5,-3
1,-4,-6,2,4,-6,3,-4,-1,-5,-5,-3
1,-5,-6,2,4,-6,3,-4,-1,-5,-5,-3
0,-6,-6,3,4,-6,3,-4,-1,-5,-5,-3
0,-7,-6,3,3,-7,3,-4,-1,-5,-5,-4
-1,-7,-6,4,3,-7,3,-4,-1,-6,-5,-4
-1,-7,-6,4,3,-7,3,-4,-1,-6,-5,-4
-1,-7,-7,4,3,-7,3,-4,-1,-6,-5,-4
-1,-7,-7,4,3,-7,3,-4,-1,-6,-6,-4
-1,-7,-7,4,3,-7,3,-4,-1,-6,-6,-4
0,-6,-7,4,4,-7,3,-4,0,-5,-5,-4
0,-5,-7,3,4,-7,4,-3,0,-5,-5,-4
1,-5,-7,2,4,-7,4,-3,0,-5,-5,-3
1,-5,-7,2,4,-7,4,-3,0,-5,-5,-3
0,-5,-6,2,4,-6,4,-3,0,-5,-5,-3
0,-5,-6,2,3,-6,4,-3,0,-5,-5,-3
0,-6,-6,3,3,-6,5,-3,0,-5,-5,-3
0,-5,-6,3,3,-6,5,-2,0,-5,-5,-3
0,-5,-6,3,3,-5,5,-2,0,-4,-5,-3
0,-5,-6,3,3,-5,5,-2,0,-4,-5,-4
0,-5,-6,2,3,-5,5,-2,0,-4,-5,-4
0,-5,-6,2,3,-5,5,-2,1,-4,-5,-4
0,-5,-6,2,3,-5,6,-2,1,-4,-5,-4
0,-5,-6,2,3,-5,6,-2,1,-4,-5,-4
0,-5,-6,2,3,-5,6,-2,1,-4,-5,-4
0,-5,-6,2,2,-6,6,-2,0,-5,-6,-4
-1,-6,-5,3,2,-6,6,-2,0,-5,-6,-4
-1,-6,-5,4,1,-6,6,-2,0,-5,-6,-4
-1,-6,-5,4,1,-6,6,-2,0,-5,-6,-4
-1,-6,-5,4,1,-6,6,-2,0,-5,-6,-4
-1,-5,-5,4,1,-6,6,-2,0,-5,-6,-4
-1,-4,-4,3,2,-5,6,-2,1,-5,-6,-4
0,-3,-4,3,2,-5,6,-1,1,-4,-5,-3
0,-3,-5,2,3,-5,7,-1,2,-4,-5,-3
0,-4,-5,2,3,-5,7,0,2,-4,-5,-3
0,-4,-5,2,3,-5,7,0,2,-4,-5,-3
0,-5,-5,3,2,-5,7,0,2,-4,-5,-3
-1,-6,-5,3,2,-5,7,0,2,-4,-5,-4
-2,-6,-5,4,2,-6,7,0,2,-5,-5,-4
-2,-7,-6,4,2,-6,7,0,2,-5,-6,-4
-3,-8,-6,5,1,-7,7,-1,2,-5,-6,-5
-3,-9,-6,6,1,-7,7,-1,2,-6,-6,-5
-3,-9,-6,6,1,-7,7,-1,2,-5,-6,-5
-3,-8,-6,5,2,-7,7,0,2,-5,-6,-4
-2,-8,-6,5,2,-7,7,0,2,-4,-5,-4
-2,-8,-6,5,2,-7,7,0,2,-4,-5,-4
-1,-8,-7,5,2,-8,7,0,2,-4,-5,-4
-1,-7,-7,4,3,-8,7,0,2,-4,-4,-3
0,-6,-7,3,3,-7,8,1,3,-3,-4,-3
1,-6,-7,3,4,-7,8,1,3,-3,-4,-3
0,-6,-7,3,4,-7,8,1,3,-3,-4,-3
0,-8,-8,4,4,-8,8,1,2,-3,-4,-3
0,-9,-9,5,4,-9,7,0,2,-3,-4,-3
0,-10,-10,6,4,-10,7,0,2,-3,-4,-3
-1,-11,-10,6,3,-11,7,0,2,-3,-4,-3
-2,-11,-10,7,3,-11,7,0,2,-3,-4,-3
-2,-11,-10,7,3,-11,7,0,1,-3,-4,-3
-1,-11,-10,7,3,-11,8,0,1,-3,-5,-3
-1,-11,-10,7,4,-11,8,0,1,-3,-5,-3
-1,-11,-10,7,4,-11,8,0,1,-3,-5,-3
-1,-11,-10,7,4,-11,8,0,1,-3,-5,-3
-1,-11,-10,6,4,-11,8,0,1,-3,-5,-3
-1,-11,-10,6,4,-11,8,0,1,-3,-4,-2
0,-11,-11,5,5,-11,8,0,1,-3,-4,-2
0,-11,-11,5,6,-11,8,0,1,-3,-4,-2
1,-11,-11,5,6,-11,8,0,1,-3,-4,-2
1,-10,-11,5,6,-11,8,0,1,-3,-4,-2
1,-10,-11,5,6,-11,7,0,1,-3,-4,-2
1,-9,-11,5,6,-10,7,0,1,-3,-4,-2
0,-9,-11,5,5,-10,7,0,1,-3,-4,-2
0,-10,-11,6,4,-11,7,0,0,-3,-4,-2
-1,-11,-10,7,3,-11,6,-1,0,-4,-4,-3
-2,-11,-9,7,3,-10,6,-1,0,-4,-5,-3
-1,-9,-8,6,3,-9,6,-1,0,-5,-5,-3
-1,-8,-8,5,3,-9,6,-1,0,-5,-5,-3
0,-8,-7,4,3,-8,6,-1,0,-5,-5,-3
0,-7,-7,4,3,-8,6,-1,0,-5,-4,-3
1,-6,-7,3,4,-7,6,-1,0,-4,-4,-3
2,-4,-6,2,4,-6,6,-1,0,-4,-3,-3
3,-3,-6,1,4,-5,6,-1,0,-4,-3,-3
3,-3,-5,0,4,-4,6,-1,0,-3,-3,-2
3,-2,-5,0,4,-4,6,-1,0,-3,-3,-2
4,-1,-5,0,4,-4,6,0,0,-3,-3,-2
5,0,-4,-2,4,-3,6,0,0,-2,-3,-1
5,1,-4,-2,4,-2,6,0,0,-2,-2,-1
5,1,-3,-2,4,-2,6,0,1,-2,-2,-1
4,1,-3,-2,3,-1,7,1,1,-2,-2,-1
5,1,-3,-3,3,-1,7,1,2,-1,-1,0
5,2,-3,-3,4,-1,8,2,2,-1,-1,0
5,2,-3,-3,4,-1,8,2,3,0,0,0
5,3,-3,-3,4,-1,8,2,3,0,0,0
6,3,-2,-3,4,0,9,3,3,0,0,1
6,3,-2,-3,4,0,9,3,3,0,0,1
7,3,-2,-4,4,0,9,4,4,0,0,1
8,4,-3,-5,5,0,9,4,4,1,0,1
9,5,-3,-6,6,0,9,4,4,1,1,1
10,6,-3,-7,6,0,9,5,4,2,1,1
10,6,-3,-7,6,0,9,5,4,2,1,1
9,5,-3,-6,6,0,9,5,5,2,1,1
8,5,-3,-6,6,1,9,6,5,2,1,2
9,6,-3,-7,6,1,10,6,6,2,2,3
10,6,-4,-7,7,0,11,7,7,3,3,4
10,6,-5,-8,7,0,11,7,8,4,3,4
11,6,-5,-8,8,0,10,7,8,4,4,5
12,6,-6,-8,8,0,9,6,7,4,4,5
13,6,-6,-9,9,0,8,5,7,3,3,5
12,5,-7,-8,9,-1,6,4,6,3,3,4
12,4,-7,-7,9,-1,5,3,5,2,2,4
11,3,-7,-7,9,-2,4,2,4,1,2,3
11,3,-8,-6,9,-2,3,2,3,1,1,3
10,2,-8,-5,9,-3,2,1,3,0,1,2
9,1,-8,-4,9,-3,2,1,2,0,0,2
8,0,-8,-4,8,-4,2,0,2,-1,0,1
9,0,-8,-4,8,-4,2,0,2,-1,0,1
10,1,-8,-6,9,-3,3,0,2,-1,0,2
12,2,-8,-7,9,-3,3,0,2,-1,0,2
12,2,-9,-7,10,-3,2,-1,1,-1,0,1
11,1,-9,-6,10,-3,1,-2,0,-2,-1,1
11,1,-9,-6,10,-4,1,-3,0,-3,-1,0
11,1,-9,-6,10,-4,1,-3,-1,-3,-1,0
11,1,-9,-6,10,-4,1,-3,-1,-3,-1,0
10,0,-9,-5,9,-4,0,-3,-1,-3,-1,0
10,0,-9,-5,9,-4,0,-3,-1,-4,-2,0
10,0,-9,-5,9,-4,0,-3,-1,-4,-2,0
9,0,-8,-5,8,-4,0,-3,-1,-4,-2,0
8,0,-7,-4,8,-3,0,-3,-1,-4,-2,0
7,0,-6,-3,7,-3,0,-3,-1,-4,-2,0
6,0,-5,-2,6,-3,1,-3,-1,-4,-2,0
4,-1,-5,0,5,-3,1,-3,-1,-4,-3,-1
2,-2,-5,1,4,-4,1,-3,-2,-4,-3,-1
0,-4,-5,2,3,-5,2,-3,-2,-5,-4,-2
-1,-6,-5,4,2,-6,2,-4,-3,-6,-5,-3
-2,-7,-5,5,1,-6,2,-4,-4,-7,-5,-4
-2,-7,-5,5,1,-6,2,-5,-4,-7,-6,-5
-2,-7,-5,5,0,-6,2,-5,-4,-7,-6,-5
-2,-7,-5,5,1,-6,2,-4,-4,-7,-6,-4
-1,-7,-5,5,1,-7,2,-4,-3,-6,-5,-4
-1,-7,-6,5,2,-7,2,-4,-3,-6,-5,-3
-2,-8,-7,6,2,-8,2,-4,-3,-5,-5,-3
-2,-9,-8,6,2,-9,3,-4,-2,-5,-5,-3
-1,-9,-9,6,3,-9,3,-3,-2,-5,-4,-3
-2,-10,-9,6,3,-10,3,-3,-2,-5,-4,-3
-2,-11,-9,7,3,-10,4,-3,-2,-5,-4,-3
-3,-12,-9,7,3,-11,4,-3,-2,-5,-4,-3
-3,-12,-9,7,3,-11,4,-2,-2,-5,-4,-3
-3,-12,-9,7,3,-11,4,-2,-2,-5,-4,-3
-3,-12,-9,8,2,-11,4,-2,-1,-4,-4,-3
-4,-12,-9,8,2,-11,4,-2,-1,-4,-4,-3
-4,-13,-9,8,2,-11,5,-2,-1,-4,-4,-3
-3,-13,-9,8,2,-11,5,-2,-1,-4,-4,-3
-3,-12,-9,8,2,-11,5,-2,-1,-4,-4,-3
-3,-12,-9,7,2,-11,5,-2,-1,-4,-4,-3
-3,-11,-9,7,2,-10,5,-2,-1,-4,-4,-3
-3,-11,-9,7,2,-10,6,-2,-1,-4,-4,-3
-3,-11,-8,7,2,-9,6,-2,-1,-4,-4,-3
-3,-11,-8,7,2,-9,6,-2,-1,-4,-4,-3
-3,-11,-8,7,2,-9,6,-2,-1,-4,-4,-3
-3,-11,-8,7,2,-9,6,-2,-1,-4,-4,-3
-3,-11,-8,7,2,-9,5,-2,-1,-5,-4,-3
-4,-11,-7,8,1,-9,5,-2,-1,-5,-5,-3
-4,-11,-7,8,1,-9,5,-2,-1,-5,-5,-3
-4,-11,-7,8,1,-9,5,-2,-1,-5,-5,-3
-4,-11,-7,8,1,-9,5,-2,-1,-5,-5,-3
-4,-11,-7,8,1,-9,5,-2,-1,-5,-5,-3
-4,-11,-7,8,1,-9,5,-2,-1,-5,-5,-3
-4,-11,-7,8,1,-9,5,-2,-1,-5,-5,-4
-4,-11,-7,8,1,-10,5,-2,-1,-5,-5,-4
-4,-11,-7,8,1,-10,6,-2,-1,-6,-5,-4
-3,-10,-7,7,1,-9,6,-1,-1,-6,-5,-4
-3,-9,-6,6,1,-8,7,-1,0,-5,-4,-4
-3,-9,-6,6,1,-8,7,0,0,-5,-4,-4
-3,-8,-5,6,0,-7,9,1,1,-4,-4,-4
-4,-8,-5,6,0,-7,11,4,2,-3,-4,-4
-4,-8,-4,7,0,-7,13,6,3,-3,-4,-4
-4,-8,-4,7,0,-7,15,9,5,-2,-3,-4
-4,-7,-4,6,0,-6,16,11,6,-1,-3,-3
-3,-6,-4,5,0,-6,15,11,7,0,-2,-3
-2,-6,-4,5,1,-5,14,8,7,0,-2,-3
-1,-5,-4,4,1,-5,11,3,5,-1,-2,-3
0,-3,-4,2,2,-4,4,-5,2,-2,-2,-2
4,0,-5,-1,3,-2,-6,-17,-2,-3,-1,-1
8,3,-5,-5,6,-1,-20,-32,-7,-4,0,0
13,7,-7,-10,9,0,-36,-49,-14,-5,1,3
19,10,-9,-14,13,0,-54,-68,-23,-7,3,5
25,13,-12,-19,18,0,-73,-86,-30,-7,7,9
33,17,-15,-25,24,1,-90,-100,-34,-6,13,16
42,22,-20,-32,30,1,-108,-111,-37,-2,22,24
53,28,-24,-40,38,2,-126,-121,-38,3,32,34
65,35,-29,-49,46,2,-143,-130,-39,9,43,45
75,41,-35,-57,54,2,-160,-141,-42,14,53,55
84,45,-39,-64,61,2,-175,-151,-46,17,61,64
91,50,-40,-70,65,4,-185,-159,-47,21,69,73
95,56,-38,-75,66,8,-190,-164,-48,25,77,82
97,61,-35,-78,66,12,-192,-167,-49,28,83,90
98,65,-33,-81,65,16,-191,-168,-49,30,88,96
98,69,-29,-83,63,20,-188,-167,-50,32,92,101
99,73,-26,-85,62,23,-183,-165,-50,32,94,105
97,73,-23,-85,60,25,-177,-162,-51,30,92,105
91,70,-21,-80,56,24,-168,-158,-54,24,84,100
82,64,-18,-73,50,22,-157,-153,-57,15,72,90
69,58,-11,-64,40,23,-144,-147,-61,4,56,75
54,52,-3,-53,28,24,-130,-142,-66,-9,36,58
40,46,5,-42,17,25,-117,-136,-71,-22,18,43
27,40,12,-33,7,26,-103,-128,-73,-30,5,30
18,36,17,-26,0,26,-91,-118,-72,-35,-4,21
11,31,20,-21,-5,26,-80,-109,-70,-38,-11,14
6,28,21,-17,-8,25,-72,-101,-68,-41,-17,8
3,25,22,-14,-9,23,-64,-93,-66,-42,-21,3
1,22,21,-11,-10,21,-57,-85,-62,-42,-24,0
-1,18,20,-8,-11,19,-50,-76,-58,-42,-25,-4
-3,14,18,-5,-11,16,-43,-68,-53,-41,-26,-6
-5,11,16,-2,-11,13,-38,-61,-48,-39,-26,-8
-7,9,15,0,-11,11,-33,-54,-44,-37,-26,-10
-7,7,13,1,-11,10,-28,-47,-40,-35,-25,-10
-8,5,12,1,-10,9,-24,-41,-36,-32,-24,-11
-8,4,12,2,-10,8,-19,-35,-32,-30,-24,-12
-10,2,12,3,-11,7,-14,-29,-28,-27,-23,-12
-12,1,12,5,-12,7,-9,-24,-24,-25,-22,-13
-13,0,11,7,-13,6,-5,-19,-20,-23,-21,-13
-14,-2,11,8,-13,4,-2,-15,-17,-21,-21,-14
-14,-3,10,9,-13,3,0,-11,-14,-19,-20,-14
-14,-4,9,10,-13,1,2,-7,-12,-17,-19,-14
-14,-5,8,10,-12,0,5,-3,-9,-14,-17,-14
-13,-4,7,8,-11,1,8,0,-6,-12,-15,-13
-12,-3,7,7,-10,2,11,4,-2,-9,-13,-13
-11,-3,7,7,-10,2,14,7,0,-7,-12,-12
-11,-3,7,7,-10,2,16,10,3,-5,-10,-12
-11,-3,7,8,-10,2,17,12,6,-4,-9,-11
-12,-4,7,8,-10,1,18,14,7,-2,-9,-11
-13,-5,8,9,-11,0,19,16,8,-2,-8,-11
-15,-6,8,10,-12,0,19,17,9,-1,-8,-11
-16,-6,9,11,-13,0,20,17,9,-1,-8,-11
-16,-6,9,11,-13,0,21,18,10,0,-8,-11
-16,-6,8,11,-13,0,22,19,12,1,-7,-11
-15,-6,8,11,-13,0,22,20,13,1,-7,-11
-13,-6,7,10,-12,0,23,21,14,2,-6,-10
-12,-5,7,9,-11,0,24,22,15,2,-5,-9
-12,-5,7,9,-10,0,24,23,15,2,-5,-9
-11,-4,7,8,-10,0,24,24,15,3,-5,-8
-11,-4,7,8,-10,0,25,24,16,3,-4,-8
-11,-3,7,8,-10,1,25,25,16,4,-4,-8
-12,-4,7,8,-11,1,26,25,17,4,-4,-8
-13,-5,7,9,-11,1,26,26,17,5,-3,-8
-13,-6,6,10,-11,0,26,26,18,5,-3,-8
-13,-6,6,10,-10,0,27,27,18,5,-3,-8
-13,-7,5,10,-9,0,27,28,19,6,-2,-8
-13,-7,5,10,-9,-1,27,28,19,6,-2,-7
-13,-7,5,10,-9,-1,28,29,19,6,-2,-7
-13,-8,5,10,-9,-1,28,29,20,6,-1,-7
-13,-8,5,11,-9,-1,29,29,20,7,-1,-7
-14,-8,5,11,-9,-1,29,30,21,7,-1,-7
-14,-8,5,12,-10,-1,29,30,21,7,-1,-7
-15,-9,5,12,-10,-2,29,30,21,7,-1,-7
-15,-9,5,12,-10,-2,29,30,22,8,-1,-7
-15,-10,5,12,-10,-2,29,31,22,8,-1,-7
-15,-11,4,13,-10,-3,29,32,23,9,0,-6
-15,-11,3,13,-10,-4,30,33,23,9,0,-6
-15,-12,2,14,-9,-4,30,33,24,10,0,-6
-15,-12,2,14,-9,-5,31,34,24,10,1,-6
-15,-12,2,13,-8,-5,31,35,25,11,1,-5
-15,-11,2,13,-8,-5,32,35,26,11,1,-5
-14,-11,2,13,-8,-5,32,36,26,12,1,-5
-14,-11,2,13,-8,-5,32,36,27,12,1,-5
-14,-11,2,13,-8,-5,32,37,27,12,1,-5
-15,-12,2,14,-9,-5,32,37,27,12,0,-5
-16,-12,3,15,-9,-5,32,37,27,12,0,-5
-16,-11,3,14,-10,-4,32,38,27,12,0,-5
-16,-11,4,14,-10,-4,33,38,28,12,0,-5
-15,-10,4,13,-10,-3,33,39,28,13,0,-5
-14,-9,5,12,-10,-3,34,40,29,13,0,-5
-13,-8,5,11,-10,-2,34,40,29,13,0,-5
-13,-8,5,11,-10,-2,35,41,30,14,0,-5
-13,-7,5,11,-10,-1,35,42,30,15,1,-5
-14,-7,6,11,-10,-1,36,43,31,15,1,-5
-14,-7,6,11,-10,-1,36,43,31,15,1,-5
-15,-8,6,12,-10,-1,35,44,32,15,1,-5
-16,-9,6,12,-11,-2,35,44,32,15,1,-5
-16,-9,6,13,-11,-2,35,45,33,16,1,-5
-16,-10,6,13,-11,-2,35,46,33,16,1,-5
-16,-10,6,13,-11,-2,35,47,34,16,1,-5
-16,-10,6,13,-11,-2,35,48,34,16,1,-5
-16,-10,6,13,-11,-2,36,49,35,17,2,-5
-16,-10,6,13,-11,-2,37,50,36,18,2,-4
-16,-10,6,13,-11,-2,38,51,37,18,3,-4
-16,-9,6,13,-11,-2,38,52,37,19,3,-4
-16,-9,7,13,-11,-2,39,52,38,19,3,-4
-16,-9,7,13,-11,-2,39,53,38,19,3,-4
-16,-9,7,13,-11,-2,40,54,39,20,4,-4
-16,-9,7,13,-11,-2,40,55,39,20,4,-4
-17,-9,7,13,-11,-2,40,56,40,21,4,-4
-18,-10,7,14,-12,-2,40,57,40,21,4,-4
-19,-11,7,15,-12,-2,40,57,41,21,4,-4
-19,-12,7,16,-13,-3,41,58,41,21,4,-4
-19,-12,7,16,-13,-3,41,59,41,21,4,-4
-17,-10,7,14,-12,-2,42,60,42,21,4,-4
-16,-8,7,13,-11,-1,42,61,42,22,5,-3
-15,-7,7,11,-10,-1,42,62,43,23,6,-2
-14,-6,7,10,-10,0,42,62,43,23,6,-1
-13,-6,6,10,-9,0,43,63,44,24,7,-1
-13,-6,6,9,-9,0,43,63,44,24,7,-1
-13,-6,7,9,-9,0,43,63,44,25,8,0
-14,-6,7,9,-10,0,43,63,44,25,7,-1
-15,-8,6,11,-10,-1,42,63,44,24,7,-1
-15,-8,6,11,-10,-1,41,63,43,24,6,-1
-14,-7,6,11,-10,-1,40,63,43,23,6,-1
-13,-6,6,10,-10,0,40,62,43,23,6,-1
-13,-6,6,9,-10,0,39,62,42,23,6,-1
-12,-5,7,9,-10,0,38,61,42,23,6,-1
-11,-5,7,8,-9,1,38,60,41,23,6,-1
-11,-4,6,7,-8,1,37,59,41,23,7,0
-10,-4,6,7,-8,1,36,58,40,22,7,0
-10,-5,6,7,-8,0,35,57,39,22,7,0
-10,-5,5,8,-8,0,34,55,38,21,6,0
-10,-6,5,8,-7,0,32,54,37,20,6,-1
-10,-5,5,7,-7,0,31,53,36,20,6,-1
-9,-5,4,7,-6,0,31,52,36,20,6,-1
-7,-4,4,5,-5,0,30,51,35,19,6,0
-6,-2,4,4,-4,1,30,50,35,19,6,0
-4,-1,4,3,-3,1,29,48,34,18,6,0
-3,-1,3,2,-3,0,29,47,32,17,6,0
-3,-1,2,2,-2,0,27,45,31,15,5,0
-2,-2,2,2,-2,0,26,43,29,14,5,0
-2,-2,1,2,-1,0,24,41,28,13,4,0
-2,-2,0,2,-1,-1,23,39,26,12,4,0
-2,-3,0,2,-1,-2,21,36,25,12,3,0
-2,-3,-1,2,-1,-2,20,34,23,11,3,0
-1,-2,-1,1,0,-2,19,32,22,11,3,0
0,-1,-2,0,1,-2,18,30,20,10,2,0
1,0,-2,0,1,-2,17,28,19,8,2,0
2,0,-2,-1,2,-1,16,26,17,7,1,0
2,0,-2,0,2,-1,14,23,15,5,1,0
1,-1,-2,0,2,-1,13,21,13,4,0,0
1,-1,-3,0,2,-2,11,18,11,3,0,-1
1,-2,-3,1,2,-2,10,16,10,2,-1,-2
1,-2,-3,1,2,-2,10,13,8,1,-2,-2
1,-2,-4,0,3,-3,9,11,7,1,-2,-2
2,-1,-4,0,3,-3,9,10,6,0,-2,-1
3,-1,-5,-1,4,-3,8,8,5,0,-2,-1
4,0,-5,-1,4,-3,7,7,4,-1,-2,-1
5,0,-5,-2,5,-3,6,6,3,-1,-2,-1
6,0,-5,-3,5,-2,6,5,2,-1,-2,-1
6,1,-5,-3,5,-2,6,4,1,-2,-2,-1
5,0,-4,-3,5,-2,6,3,1,-2,-3,-1
4,0,-4,-2,4,-2,5,1,0,-3,-4,-1
4,0,-4,-1,4,-2,5,0,0,-3,-4,-1
4,0,-4,-1,4,-2,4,0,-1,-4,-4,-1
4,0,-4,-1,4,-2,4,-1,-2,-4,-4,-1
3,0,-4,-1,4,-2,3,-1,-2,-4,-5,-1
3,-1,-4,0,4,-2,3,-2,-3,-5,-5,-2
2,-2,-4,0,3,-2,2,-3,-3,-5,-6,-3
0,-3,-3,1,2,-3,2,-4,-4,-6,-6,-4
0,-3,-3,2,2,-3,1,-5,-4,-6,-7,-5
0,-3,-3,2,2,-3,1,-5,-4,-6,-7,-5
0,-3,-4,2,2,-3,1,-5,-4,-6,-7,-4
0,-4,-4,2,3,-3,1,-5,-4,-6,-7,-4
0,-4,-5,3,3,-4,1,-5,-4,-6,-6,-3
0,-5,-5,3,3,-4,1,-5,-4,-6,-6,-3
0,-4,-5,2,3,-4,1,-5,-4,-6,-6,-2
1,-3,-5,1,3,-3,2,-5,-4,-5,-5,-2
3,-2,-5,0,4,-3,2,-5,-3,-5,-5,-2
4,-1,-5,-1,4,-2,3,-4,-3,-4,-4,-2
4,0,-4,-2,4,-2,3,-4,-3,-4,-4,-2
4,0,-4,-2,4,-1,4,-4,-3,-4,-4,-2
3,0,-3,-1,3,-1,4,-4,-3,-4,-4,-2
2,-1,-3,-1,3,-1,4,-4,-3,-4,-4,-2
1,-1,-3,0,3,-1,4,-4,-3,-4,-4,-3
1,-2,-4,0,3,-2,4,-4,-3,-4,-5,-3
0,-3,-4,0,3,-2,4,-4,-3,-4,-5,-3
0,-3,-4,1,2,-3,4,-5,-3,-4,-5,-3
0,-4,-4,1,2,-3,4,-5,-4,-5,-6,-3
0,-4,-4,2,2,-3,4,-5,-4,-5,-6,-3
0,-4,-4,2,2,-3,4,-5,-4,-5,-6,-3
0,-4,-4,2,2,-3,4,-5,-4,-5,-6,-3
0,-4,-3,2,2,-3,4,-5,-3,-5,-6,-3
0,-3,-3,2,2,-2,4,-4,-3,-4,-5,-3
0,-2,-2,1,1,-1,3,-4,-3,-4,-5,-3
0,-1,-2,0,1,-1,3,-4,-3,-4,-5,-3
0,-1,-2,0,1,-1,3,-4,-3,-4,-5,-3
0,-2,-2,1,1,-1,3,-4,-3,-4,-6,-3
-1,-2,-2,1,0,-1,4,-4,-4,-4,-6,-4
-2,-3,-1,2,0,-1,4,-4,-4,-4,-6,-4
-2,-3,-1,2,0,-1,4,-4,-4,-4,-6,-4
-2,-2,-1,2,0,-1,5,-4,-4,-4,-6,-4
-2,-2,-1,2,0,-1,5,-3,-4,-4,-6,-3
-1,-2,-1,2,0,-1,5,-3,-4,-5,-6,-3
-1,-2,-1,1,0,-1,5,-3,-4,-5,-6,-3
-1,-2,-1,1,0,-1,5,-3,-4,-5,-6,-3
-1,-2,-1,1,0,-1,5,-3,-4,-5,-6,-3
-1,-2,-1,1,0,-1,5,-3,-4,-5,-6,-3
-1,-2,-1,2,0,-1,5,-4,-4,-5,-6,-4
-2,-3,-1,2,0,-2,4,-4,-4,-5,-6,-4
-3,-3,-1,3,0,-2,4,-5,-4,-5,-6,-5
-3,-4,0,3,-1,-1,4,-5,-4,-5,-6,-5
-3,-3,0,3,-1,-1,4,-4,-4,-5,-7,-5
-3,-2,0,2,0,0,5,-4,-3,-5,-7,-5
-2,-2,0,2,0,0,5,-3,-3,-5,-7,-5
-2,-1,0,1,0,0,6,-3,-2,-5,-7,-5
-2,-1,0,1,0,0,6,-2,-2,-4,-6,-4
-2,-2,0,1,0,0,7,-2,-2,-4,-6,-4
-2,-2,-1,2,0,-1,7,-2,-2,-4,-6,-3
-2,-2,-1,2,0,-1,7,-2,-2,-4,-6,-3
-2,-3,-1,3,0,-2,7,-2,-2,-4,-6,-3
-3,-4,-1,3,0,-2,7,-2,-2,-4,-6,-3
-3,-4,-1,4,0,-3,7,-2,-2,-3,-6,-3
-3,-4,-1,4,0,-3,7,-2,-2,-3,-6,-3
-2,-4,-1,3,0,-2,7,-2,-1,-3,-6,-3
-2,-3,-1,3,0,-1,7,-1,-1,-3,-6,-3
-2,-3,0,3,0,-1,7,-1,-1,-3,-6,-3
-2,-3,0,3,0,0,7,-1,-1,-3,-6,-3
-2,-3,0,3,0,-1,7,-1,-1,-3,-6,-3
-3,-4,-1,4,0,-1,7,-1,-1,-3,-6,-3
-4,-6,-1,5,-1,-2,7,-1,-1,-4,-6,-4
-6,-8,-1,7,-2,-3,6,-2,-2,-5,-7,-5
-6,-7,-1,7,-2,-3,6,-2,-2,-5,-7,-5
-5,-5,-1,5,-2,-2,6,-2,-2,-5,-7,-5
-3,-3,0,3,-1,-1,6,-2,-2,-4,-7,-5
-2,-1,0,2,-1,0,6,-2,-2,-4,-7,-5
0,0,0,0,0,1,6,-2,-2,-4,-7,-5
0,0,1,0,0,1,7,-2,-2,-4,-7,-5
-1,0,1,0,0,1,7,-2,-2,-4,-7,-5
-1,0,1,0,0,2,7,-2,-1,-4,-7,-5
-2,0,1,1,-1,2,6,-2,-1,-4,-7,-5
-2,0,2,1,-1,2,6,-2,-1,-4,-7,-5
-2,0,2,1,-1,2,5,-3,-1,-4,-7,-5
-2,0,2,1,-1,2,4,-3,-1,-4,-7,-5
-2,0,2,1,-1,2,4,-3,-1,-4,-7,-6
-2,0,2,1,-1,1,4,-2,-1,-5,-7,-6
-1,0,2,0,-1,2,5,-2,-1,-5,-7,-6
0,1,2,0,0,2,5,-2,0,-4,-6,-5
1,2,1,-1,0,2,5,-2,0,-4,-6,-4
1,2,1,-1,0,2,5,-2,-1,-4,-6,-4
1,2,1,-1,0,2,5,-2,-1,-4,-6,-4
0,1,1,0,0,1,5,-2,-1,-4,-7,-4
0,0,1,0,0,1,4,-2,-1,-4,-7,-5
-1,0,1,0,0,1,4,-2,-1,-4,-7,-5
-1,0,1,0,0,1,4,-2,-1,-4,-7,-5
0,0,1,0,0,1,4,-2,-1,-4,-7,-5
0,0,1,0,0,1,4,-2,-1,-4,-7,-5
0,0,1,0,0,1,4,-2,-1,-4,-7,-5
0,0,1,0,0,1,4,-2,-1,-5,-7,-5
0,0,1,0,0,1,5,-2,-1,-5,-7,-5
0,0,1,0,0,1,5,-2,-1,-5,-7,-5
0,0,1,0,0,1,5,-2,-1,-5,-7,-5
-1,0,1,0,0,1,5,-2,0,-5,-7,-5
-1,0,1,0,0,1,5,-2,0,-5,-7,-4
-1,0,1,0,0,1,5,-2,0,-5,-7,-4
-1,0,1,0,0,1,5,-2,0,-4,-6,-4
0,0,1,0,0,1,5,-2,0,-4,-6,-4
0,1,1,0,0,2,5,-2,0,-3,-5,-4
1,2,2,-1,0,2,5,-2,0,-3,-5,-4
1,3,2,-1,0,3,4,-2,0,-3,-5,-4
1,4,2,-2,0,4,5,-1,0,-3,-5,-3
2,5,2,-3,0,4,5,-1,1,-3,-5,-3
2,5,3,-4,0,5,6,0,1,-2,-5,-3
3,6,3,-5,0,5,7,0,1,-2,-4,-2
4,7,3,-6,0,5,7,1,2,-1,-3,-1
5,8,3,-7,1,5,8,2,3,0,-2,0
5,8,3,-7,1,5,8,2,4,0,-1,0
5,8,2,-7,1,5,8,3,4,0,-1,0
6,8,2,-7,1,5,8,3,4,0,-1,0
7,9,1,-7,2,5,8,3,4,0,-1,0
7,9,1,-8,3,5,8,3,4,0,-1,0
7,8,1,-8,3,5,7,3,4,0,-1,0
7,8,0,-8,3,4,7,3,4,1,0,0
8,8,0,-8,3,5,8,4,5,1,0,0
8,8,0,-9,3,5,8,5,5,2,0,0
8,9,0,-9,3,6,9,6,6,2,0,0
8,9,0,-9,3,6,9,6,6,2,0,1
8,10,0,-9,4,6,9,6,6,2,0,1
9,10,0,-9,4,6,9,6,6,2,1,2
9,10,0,-10,4,6,9,5,6,3,1,2
10,11,0,-11,4,6,8,5,6,3,2,3
11,12,0,-12,5,6,7,5,6,3,2,3
12,11,0,-11,6,6,6,4,6,2,2,3
11,10,0,-10,5,5,5,3,5,1,1,2
11,10,0,-10,5,5,4,2,4,1,1,2
10,9,-1,-10,5,5,3,1,3,0,0,2
10,9,-1,-10,5,4,2,1,3,0,0,2
10,8,-2,-10,5,4,1,1,2,0,0,1
10,8,-1,-9,5,3,1,0,2,0,0,1
9,8,-1,-9,5,3,0,0,1,-1,-1,0
9,8,0,-8,4,3,0,-1,0,-1,-1,0
8,8,0,-8,4,3,0,-3,0,-2,-2,0
8,7,0,-7,4,3,-1,-4,-2,-3,-3,-1
8,7,-1,-7,4,3,-2,-5,-2,-4,-4,-2
7,5,-1,-6,4,2,-3,-5,-3,-5,-4,-2
6,4,-2,-5,4,1,-2,-5,-3,-5,-5,-3
6,4,-1,-6,4,1,-1,-4,-2,-5,-5,-3
7,6,-1,-7,4,2,0,-3,-1,-5,-5,-2
8,7,-1,-7,4,3,0,-3,-1,-5,-5,-2
7,6,-1,-6,3,2,0,-3,-1,-5,-5,-2
6,5,0,-5,3,2,0,-4,-1,-5,-4,-2
5,5,0,-5,2,3,0,-4,-1,-4,-4,-2
4,5,2,-5,1,4,0,-4,-1,-4,-4,-2
4,6,3,-5,1,4,1,-4,-1,-3,-4,-2
4,6,3,-5,1,5,1,-4,-1,-3,-4,-2
3,6,3,-5,0,5,1,-4,-1,-4,-5,-3
2,5,3,-4,0,5,1,-5,-2,-5,-6,-4
1,5,3,-3,-1,5,1,-6,-3,-6,-7,-5
0,4,4,-2,-2,5,1,-6,-3,-7,-7,-6
0,4,4,-2,-2,5,1,-6,-4,-7,-8,-7
0,3,4,-1,-3,5,1,-6,-4,-7,-8,-7
-1,2,4,0,-3,4,1,-6,-5,-7,-8,-7
-2,1,4,0,-4,4,1,-6,-5,-8,-9,-7
-3,1,4,1,-4,3,1,-6,-5,-8,-9,-7
-4,0,4,1,-4,3,1,-6,-5,-8,-9,-7
-4,0,4,1,-4,3,1,-7,-5,-7,-9,-7
-4,0,4,1,-4,3,1,-7,-5,-7,-8,-7
-3,0,4,1,-3,3,1,-7,-5,-7,-8,-7
-3,0,4,1,-3,3,1,-7,-5,-7,-8,-7
-4,0,4,2,-3,3,1,-7,-5,-7,-9,-7
-4,0,5,2,-4,3,1,-7,-5,-7,-9,-7
-4,0,5,2,-4,3,1,-6,-5,-7,-9,-7
-4,0,5,2,-4,3,1,-6,-5,-7,-9,-7
-4,0,4,2,-4,2,1,-6,-5,-7,-9,-7
-4,-1,4,2,-4,2,1,-6,-5,-7,-8,-7
-4,-1,4,2,-4,2,1,-6,-5,-7,-8,-7
-4,-1,4,2,-4,2,1,-6,-5,-7,-8,-7
-4,-1,4,2,-4,2,1,-6,-5,-7,-8,-7
-4,-1,4,2,-4,2,1,-6,-5,-7,-8,-7
-4,0,4,2,-4,2,2,-5,-5,-7,-8,-7
-4,0,4,2,-3,2,2,-5,-5,-7,-8,-7
-4,0,4,2,-3,2,2,-5,-5,-7,-8,-7
-4,0,4,2,-4,2,2,-5,-5,-7,-8,-7
-4,0,4,2,-4,3,3,-5,-5,-7,-8,-7
-4,0,4,1,-4,3,3,-5,-5,-7,-8,-7
-4,0,4,1,-4,3,3,-5,-5,-7,-8,-7
-5,0,4,2,-4,3,3,-6,-6,-7,-8,-8
-6,-1,4,3,-5,2,2,-6,-6,-7,-9,-9
-7,-3,4,5,-5,1,2,-7,-7,-8,-10,-10
-7,-3,4,5,-6,0,1,-7,-7,-8,-10,-10
-8,-3,5,6,-6,1,1,-7,-7,-9,-10,-10
-8,-3,5,5,-6,1,1,-7,-7,-9,-10,-10
-7,-3,5,5,-6,1,1,-7,-7,-9,-10,-9
-7,-3,4,5,-6,0,2,-7,-7,-9,-10,-9
-7,-3,4,5,-6,0,2,-7,-7,-9,-10,-8
-6,-2,5,4,-6,1,2,-6,-7,-8,-9,-8
-5,-1,5,3,-5,1,3,-4,-5,-6,-7,-7
-4,0,5,2,-4,2,6,-1,-3,-4,-6,-6
-4,0,5,2,-3,2,9,1,-1,-3,-5,-6
-3,0,4,1,-3,2,12,5,0,-2,-4,-6
-2,1,4,1,-2,2,14,8,2,-1,-4,-6
0,2,3,0,-1,2,15,11,4,0,-3,-5
1,3,2,-2,0,2,15,12,5,1,-2,-4
3,3,0,-3,1,2,13,11,5,1,-1,-3
3,2,-1,-3,2,0,11,6,4,1,-1,-3
3,1,-2,-3,3,0,6,-1,2,1,0,-3
5,1,-3,-4,5,-1,-3,-12,-1,1,1,-1
10,4,-4,-7,8,0,-16,-26,-6,1,3,1
15,7,-7,-11,12,0,-30,-42,-11,1,6,4
21,10,-10,-16,16,0,-47,-60,-18,0,9,8
27,13,-14,-20,21,-1,-66,-79,-26,0,13,13
34,16,-17,-25,25,0,-85,-96,-31,2,20,21
42,21,-21,-32,31,0,-103,-108,-33,8,30,30
50,26,-24,-39,37,1,-120,-118,-34,15,42,41
59,32,-28,-46,44,2,-138,-129,-36,20,52,51
69,37,-32,-53,52,2,-155,-142,-40,23,61,60
78,42,-36,-60,58,2,-170,-154,-46,25,68,69
84,48,-36,-65,61,5,-182,-166,-51,26,74,77
87,54,-33,-70,60,10,-190,-174,-55,29,81,86
89,60,-28,-74,58,16,-193,-180,-57,31,87,94
89,66,-23,-78,56,21,-193,-182,-58,33,92,100
90,71,-18,-81,54,27,-191,-182,-59,34,95,106
89,75,-14,-82,52,30,-186,-180,-60,34,96,108
87,74,-12,-81,49,31,-178,-176,-62,30,93,107
80,70,-11,-75,46,29,-168,-171,-65,23,84,99
70,63,-7,-67,39,27,-156,-163,-68,13,70,87
58,57,-1,-57,29,28,-141,-156,-72,1,51,71
44,51,6,-47,18,29,-126,-149,-76,-12,32,55
30,45,13,-37,8,29,-112,-140,-79,-23,16,41
19,39,19,-29,0,29,-98,-130,-78,-29,4,30
11,34,22,-22,-5,28,-87,-119,-76,-34,-4,22
6,29,23,-17,-8,26,-78,-109,-74,-37,-10,15
2,25,24,-13,-10,24,-70,-101,-72,-39,-16,8
-2,20,23,-9,-11,22,-63,-94,-70,-41,-20,2
-5,16,21,-5,-12,19,-57,-86,-68,-43,-24,-2
-7,12,20,-2,-13,16,-51,-79,-64,-43,-26,-6
-8,10,18,0,-13,14,-45,-72,-60,-42,-28,-9
-8,8,17,0,-13,13,-40,-65,-56,-40,-28,-12
-9,7,16,1,-13,11,-35,-58,-52,-38,-28,-13
-9,5,15,2,-12,10,-31,-51,-48,-36,-28,-14
-10,4,14,3,-11,8,-26,-45,-44,-34,-27,-15
-10,2,13,4,-11,7,-22,-38,-39,-31,-26,-16
-11,1,13,5,-11,7,-17,-32,-35,-28,-25,-17
-11,1,13,5,-12,7,-12,-26,-30,-26,-24,-17
-12,0,13,5,-12,6,-7,-20,-26,-23,-23,-17
-12,0,12,6,-12,6,-3,-15,-22,-21,-21,-17
-13,-2,11,8,-12,4,0,-11,-19,-19,-20,-17
-14,-4,10,9,-12,3,2,-7,-17,-17,-19,-17
-14,-4,10,9,-11,2,4,-3,-14,-15,-18,-17
-14,-4,10,9,-11,2,6,0,-12,-12,-17,-16
-14,-4,10,9,-12,2,8,2,-9,-10,-16,-16
-14,-4,10,9,-12,2,10,4,-6,-8,-14,-16
-14,-5,10,9,-12,2,12,7,-3,-6,-13,-16
-14,-5,10,9,-12,2,14,10,-1,-5,-11,-16
-14,-5,10,9,-12,2,16,13,1,-4,-10,-16
-14,-4,10,8,-12,3,17,15,3,-3,-9,-15
-13,-3,10,7,-12,3,19,17,4,-2,-8,-14
-13,-2,10,6,-12,4,20,18,5,0,-7,-13
-13,-2,11,7,-12,4,21,19,6,0,-7,-12
-13,-3,10,7,-11,3,21,19,7,1,-6,-12
-13,-4,9,8,-11,2,21,19,7,1,-6,-11
-13,-4,9,8,-10,2,21,20,8,2,-5,-11
-12,-4,8,8,-10,2,21,21,8,2,-5,-11
-12,-4,9,8,-10,2,21,21,9,2,-5,-12
-13,-4,9,8,-10,2,21,22,9,2,-5,-12
-13,-4,9,8,-11,2,21,22,9,2,-5,-12
-13,-4,9,8,-11,2,22,23,10,3,-5,-12
-13,-3,10,8,-11,3,23,23,10,3,-5,-12
-13,-3,10,7,-11,3,24,24,11,3,-5,-12
-14,-4,10,8,-12,3,24,24,11,3,-5,-12
-15,-4,10,9,-12,3,24,25,11,3,-5,-13
-15,-4,10,9,-12,3,24,25,11,3,-4,-12
-14,-4,10,8,-11,3,24,26,12,4,-3,-11
-13,-3,9,7,-10,3,24,26,12,4,-3,-11
-12,-3,9,7,-10,3,24,27,13,5,-3,-10
-12,-3,9,7,-10,3,25,27,13,5,-3,-10
-12,-3,9,7,-10,3,25,28,13,5,-3,-11
-12,-3,9,7,-10,3,25,28,14,5,-3,-11
-13,-3,9,8,-10,3,24,28,14,5,-3,-12
-14,-4,9,9,-11,2,24,28,14,5,-3,-12
-15,-5,10,10,-12,2,24,28,14,5,-3,-12
-16,-4,10,10,-13,3,23,28,14,5,-3,-12
-15,-3,11,8,-13,4,23,29,15,6,-3,-12
-13,-1,11,7,-12,5,24,29,15,6,-2,-11
-12,0,11,6,-12,5,24,30,16,7,-2,-11
-12,0,11,6,-12,5,24,30,16,7,-2,-11
-13,0,11,7,-12,5,24,31,16,7,-2,-11
-13,-1,12,7,-13,5,24,31,17,8,-2,-11
-14,-2,12,8,-13,5,23,31,17,8,-2,-11
-16,-4,12,9,-13,4,23,31,16,7,-2,-11
-18,-5,12,11,-14,3,23,31,16,7,-2,-12
-18,-6,12,11,-14,2,23,32,16,7,-2,-12
-16,-4,12,10,-13,3,24,33,17,7,-2,-12
-14,-2,12,8,-13,4,25,34,18,8,-1,-11
-13,-1,11,7,-13,5,26,35,19,8,-1,-11
-13,-2,11,8,-13,4,26,36,19,9,0,-10
-14,-3,10,8,-12,4,27,36,20,9,0,-10
-14,-3,10,8,-12,4,27,37,20,10,0,-9
-14,-4,9,9,-11,3,28,38,21,11,1,-9
-15,-6,9,10,-12,2,28,38,21,11,1,-9
-17,-8,9,11,-12,1,28,39,21,11,1,-10
-17,-9,8,12,-12,0,28,39,22,11,1,-10
-17,-8,8,12,-12,0,29,40,23,12,1,-9
-15,-7,8,11,-12,1,30,42,24,13,2,-9
-13,-5,8,9,-11,1,30,43,25,14,2,-8
-13,-5,8,9,-10,1,31,45,26,14,3,-8
-14,-5,8,9,-10,1,31,45,26,14,3,-9
-15,-6,8,10,-11,1,32,46,26,14,3,-9
-15,-7,7,11,-11,1,32,47,26,15,3,-9
-15,-7,6,11,-10,0,33,48,27,15,3,-9
-14,-8,6,11,-10,0,33,49,28,16,4,-8
-13,-8,5,11,-9,-1,34,50,29,16,4,-8
-13,-8,5,10,-9,-1,34,51,30,17,5,-8
-13,-8,4,10,-8,-2,34,52,30,17,5,-8
-13,-8,4,10,-8,-2,34,53,31,18,5,-7
-13,-8,4,10,-8,-1,35,54,32,19,6,-7
-13,-8,4,11,-8,-1,35,55,32,20,6,-7
-14,-8,4,11,-9,-1,36,55,32,19,6,-7
-14,-9,4,12,-9,-2,36,56,32,19,5,-7
-14,-9,4,12,-9,-2,36,56,33,19,5,-7
-14,-8,5,11,-9,-2,36,57,33,19,6,-6
-13,-8,5,11,-9,-2,36,58,33,19,6,-6
-13,-8,4,11,-9,-2,36,59,33,19,6,-6
-13,-8,4,11,-8,-3,36,59,34,20,6,-6
-13,-8,3,10,-8,-3,36,60,34,20,6,-6
-11,-8,2,9,-7,-3,36,60,35,21,7,-5
-10,-7,1,9,-6,-3,36,60,35,22,8,-5
-10,-8,1,9,-5,-3,35,60,36,22,9,-4
-10,-8,1,9,-5,-4,35,60,36,22,9,-4
-9,-9,1,9,-4,-4,34,60,36,22,9,-4
-9,-9,0,9,-4,-4,34,60,35,22,9,-4
-9,-8,0,8,-4,-4,33,59,35,22,9,-4
-9,-8,0,8,-4,-4,32,58,34,22,9,-4
-9,-8,0,8,-4,-4,31,57,34,22,9,-4
-9,-8,0,8,-4,-4,31,57,33,22,8,-4
-8,-8,0,8,-4,-4,31,56,33,21,8,-4
-8,-8,0,8,-3,-4,30,55,33,21,8,-4
-7,-8,0,7,-3,-4,29,54,32,20,8,-4
-7,-8,-1,7,-2,-4,28,53,31,19,8,-4
-6,-8,-1,7,-2,-4,27,52,30,18,7,-4
-5,-8,-2,7,-1,-5,26,51,29,18,7,-3
-4,-7,-3,6,0,-5,25,49,28,17,7,-3
-3,-7,-4,6,1,-5,24,48,27,17,7,-2
-3,-7,-5,5,1,-6,23,46,26,16,6,-2
-2,-8,-5,4,2,-6,21,44,25,15,6,-2
-2,-8,-6,5,2,-7,19,42,23,15,6,-2
-2,-9,-6,5,2,-8,18,41,22,14,5,-3
-2,-9,-7,5,2,-8,17,39,20,13,4,-3
-2,-9,-7,5,2,-8,16,37,19,12,4,-3
-1,-8,-8,4,3,-8,15,35,18,12,4,-2
0,-8,-9,3,4,-8,14,33,17,11,4,-2
0,-8,-9,3,5,-8,13,31,15,9,3,-2
1,-8,-10,3,5,-8,12,29,14,8,3,-2
1,-8,-10,3,6,-8,11,27,12,7,2,-1
2,-7,-11,2,7,-8,11,25,11,6,2,-1
3,-7,-11,1,8,-8,10,24,10,5,2,0
4,-7,-11,1,8,-9,9,22,8,4,2,0
4,-8,-12,1,8,-10,8,20,7,3,1,0
4,-8,-13,2,9,-10,7,17,5,3,1,-1
4,-8,-13,2,9,-11,6,15,3,2,1,-1
4,-9,-14,2,10,-11,5,13,2,2,1,-1
4,-10,-15,3,10,-12,4,12,1,1,0,-1
4,-11,-16,3,10,-13,4,10,0,0,0,-1
4,-12,-16,3,10,-13,3,9,-1,0,0,-1
3,-12,-16,4,10,-14,3,8,-2,-1,0,-1
3,-12,-16,4,10,-14,2,7,-3,-1,-1,-1
3,-12,-16,4,10,-14,2,6,-3,-2,-1,-1
3,-13,-16,4,10,-14,1,5,-4,-2,-1,-1
2,-13,-16,5,10,-14,1,3,-5,-2,-2,-1
2,-12,-16,5,10,-14,1,2,-5,-3,-2,-1
3,-12,-15,4,10,-13,1,2,-6,-3,-2,-1
3,-11,-15,3,10,-13,1,2,-6,-3,-2,-1
4,-11,-15,3,10,-13,2,2,-6,-3,-2,-1
4,-10,-15,2,10,-13,2,1,-6,-3,-2,-1
5,-10,-16,2,10,-13,2,1,-6,-3,-2,-1
5,-11,-16,2,11,-13,2,1,-6,-3,-2,-1
4,-12,-17,3,11,-14,2,0,-6,-3,-2,-1
3,-13,-18,4,10,-15,2,0,-7,-3,-2,-1
1,-15,-18,6,9,-16,2,0,-7,-4,-3,-2
0,-17,-17,8,8,-16,2,-1,-8,-4,-3,-2
-1,-17,-17,8,8,-16,2,-2,-9,-5,-3,-2
-1,-17,-16,8,8,-16,2,-2,-9,-5,-3,-3
0,-16,-16,8,8,-16,2,-2,-9,-5,-3,-3
0,-16,-16,8,8,-16,2,-1,-8,-5,-3,-3
0,-16,-16,8,8,-16,2,-1,-8,-5,-3,-3
0,-15,-16,7,8,-15,2,-1,-8,-4,-3,-3
0,-15,-15,7,8,-15,2,-1,-8,-4,-3,-2
0,-15,-15,7,8,-15,2,-2,-8,-4,-3,-2
-1,-15,-15,7,8,-15,2,-2,-8,-4,-3,-2
-1,-16,-15,8,7,-15,1,-2,-8,-5,-3,-3
-2,-17,-15,9,7,-16,1,-3,-8,-5,-4,-3
-2,-17,-15,9,6,-16,1,-3,-9,-6,-4,-4
-2,-17,-15,8,6,-16,1,-3,-9,-6,-4,-4
-1,-15,-15,7,7,-15,1,-3,-9,-6,-4,-4
0,-14,-15,6,7,-14,2,-3,-9,-6,-3,-3
0,-14,-14,6,7,-14,2,-3,-9,-6,-3,-3
0,-15,-14,6,7,-14,2,-3,-9,-6,-3,-3
-1,-15,-14,7,7,-14,2,-3,-9,-6,-3,-3
-1,-15,-14,7,7,-14,2,-3,-8,-5,-2,-2
-1,-15,-14,7,7,-14,2,-3,-8,-5,-2,-2
-1,-15,-14,7,7,-14,1,-3,-8,-5,-2,-2
0,-14,-14,7,7,-14,1,-2,-8,-5,-2,-2
0,-14,-14,7,7,-14,1,-2,-8,-5,-2,-2
0,-14,-14,6,7,-14,2,-1,-8,-5,-2,-2
0,-14,-14,6,7,-14,2,-1,-8,-5,-2,-2
0,-14,-14,7,7,-14,2,-1,-8,-5,-3,-3
0,-14,-14,7,7,-14,2,-1,-8,-5,-3,-3
0,-14,-14,7,7,-14,2,-1,-8,-5,-3,-3
-1,-15,-14,8,7,-14,2,-2,-7,-4,-3,-4
-1,-15,-14,8,6,-14,2,-2,-7,-4,-3,-4
-1,-15,-14,8,6,-14,2,-2,-7,-4,-3,-4
-1,-15,-14,8,6,-14,2,-2,-7,-5,-3,-4
-1,-15,-14,7,7,-14,2,-1,-7,-5,-3,-4
-1,-15,-14,7,7,-14,2,-1,-7,-5,-3,-4
-1,-14,-14,7,6,-13,2,0,-7,-5,-3,-3
-1,-14,-13,7,6,-13,2,0,-7,-5,-3,-3
-1,-13,-13,7,6,-13,2,0,-6,-5,-3,-3
-1,-13,-13,7,6,-13,3,0,-6,-5,-3,-3
-1,-14,-13,7,6,-13,3,0,-6,-5,-3,-3
-2,-14,-13,8,5,-13,3,0,-6,-5,-3,-4
-2,-15,-13,8,5,-13,3,0,-6,-6,-4,-4
-2,-15,-13,8,4,-13,2,0,-6,-6,-4,-5
-2,-14,-12,8,4,-13,1,0,-6,-6,-5,-5
-2,-13,-12,7,5,-12,1,0,-6,-6,-5,-5
-2,-13,-11,6,5,-12,1,0,-7,-6,-5,-5
-2,-12,-11,6,5,-12,1,0,-7,-6,-5,-5
-2,-12,-10,6,4,-11,1,0,-7,-6,-5,-5
-2,-11,-10,6,4,-11,0,0,-7,-6,-5,-5
-2,-11,-9,6,3,-10,0,0,-7,-6,-5,-6
-2,-11,-9,6,3,-10,0,-1,-7,-6,-5,-6
-2,-11,-9,6,3,-10,0,-1,-8,-6,-5,-6
-2,-11,-9,6,3,-10,0,-1,-8,-6,-5,-6
-2,-11,-9,6,3,-10,0,-1,-8,-6,-5,-6
-2,-11,-9,6,3,-10,0,0,-8,-6,-5,-6
-2,-11,-9,6,4,-10,1,0,-8,-6,-5,-6
-2,-11,-9,6,4,-10,1,0,-7,-6,-5,-6
-2,-12,-10,6,4,-10,1,0,-7,-6,-5,-6
-2,-12,-10,7,4,-11,1,0,-7,-6,-5,-6
-1,-11,-10,6,5,-11,1,0,-7,-6,-4,-5
-1,-10,-10,5,5,-10,1,1,-7,-6,-4,-5
-1,-10,-10,5,5,-10,2,1,-7,-6,-4,-5
-1,-11,-10,5,5,-11,2,1,-7,-6,-4,-5
-1,-11,-10,5,5,-11,2,1,-7,-6,-4,-5
0,-10,-10,5,5,-11,2,1,-6,-6,-4,-5
0,-11,-10,5,5,-11,2,1,-6,-6,-4,-5
-1,-12,-10,6,5,-11,2,1,-6,-6,-4,-5
-2,-13,-10,7,5,-11,1,0,-7,-7,-4,-5
-4,-14,-10,9,4,-12,0,0,-7,-7,-5,-6
-5,-15,-10,10,4,-12,0,0,-7,-8,-5,-6
-4,-13,-10,8,4,-11,0,0,-7,-8,-5,-6
-2,-11,-10,6,5,-11,0,0,-7,-7,-4,-6
-1,-10,-10,5,6,-10,0,0,-7,-7,-4,-6
0,-9,-10,4,6,-10,1,0,-6,-6,-4,-5
1,-8,-10,3,6,-9,1,1,-6,-6,-4,-5
1,-8,-10,3,6,-9,1,1,-5,-5,-3,-4
1,-9,-10,3,6,-9,1,1,-5,-5,-3,-4
1,-9,-10,3,6,-9,0,1,-5,-6,-3,-4
1,-10,-11,3,6,-10,0,1,-6,-6,-3,-4
1,-10,-11,4,6,-11,0,1,-6,-6,-3,-4
0,-11,-12,5,6,-11,0,1,-6,-6,-3,-4
0,-11,-12,5,6,-12,0,0,-6,-6,-4,-4
0,-11,-12,5,6,-12,0,0,-6,-6,-4,-4
0,-11,-12,5,7,-12,0,0,-7,-6,-4,-5
1,-10,-12,5,7,-11,0,0,-7,-6,-4,-5
1,-9,-12,4,7,-11,0,1,-7,-6,-4,-5
2,-8,-11,3,7,-10,0,1,-7,-6,-4,-5
2,-8,-11,3,7,-9,0,1,-7,-6,-3,-5
2,-8,-10,3,6,-9,0,1,-7,-5,-3,-5
1,-8,-10,3,6,-9,0,1,-6,-5,-2,-4
1,-8,-10,3,6,-9,0,1,-6,-5,-2,-4
1,-8,-9,3,6,-9,0,1,-6,-5,-2,-3
1,-8,-9,3,6,-8,0,1,-5,-5,-2,-3
1,-8,-9,2,6,-8,0,1,-5,-5,-2,-3
1,-8,-9,2,6,-8,0,1,-5,-5,-2,-3
2,-7,-9,2,6,-8,1,2,-5,-5,-2,-3
2,-7,-9,1,7,-8,1,2,-5,-5,-1,-3
3,-6,-9,1,7,-7,2,3,-4,-4,-1,-2
4,-5,-9,0,7,-7,3,4,-4,-4,0,-2
5,-4,-10,-1,8,-7,4,5,-3,-3,0,-1
6,-3,-10,-2,9,-6,5,6,-2,-2,1,0
6,-3,-10,-2,9,-6,5,6,-2,-1,1,0
4,-4,-10,0,8,-7,5,6,-2,-1,2,0
3,-5,-10,0,7,-7,4,5,-2,-1,2,0
4,-4,-9,0,7,-7,4,5,-2,-1,2,0
5,-3,-9,-1,8,-6,3,5,-2,-1,2,0
8,-2,-10,-3,9,-6,3,6,-1,-1,2,0
10,-1,-10,-4,10,-6,3,6,-1,-1,2,0
10,0,-10,-5,11,-5,4,7,-1,0,2,0
10,0,-10,-5,11,-5,4,7,0,0,2,0
9,0,-9,-5,10,-5,4,7,0,0,3,1
9,0,-9,-5,10,-5,4,8,0,0,3,1
9,0,-9,-5,10,-5,4,7,0,0,3,1
9,0,-10,-5,10,-5,4,7,0,0,3,1
9,0,-10,-5,10,-5,2,6,0,0,3,1
10,0,-10,-5,11,-5,1,6,-1,-1,3,1
11,1,-10,-7,11,-4,0,5,-1,0,3,1
12,3,-10,-8,12,-4,0,5,-1,0,3,1
13,3,-10,-8,12,-3,-1,4,-2,-1,3,1
13,3,-10,-8,12,-3,-2,3,-2,-1,2,1
12,2,-10,-7,12,-4,-3,2,-3,-2,2,1
11,0,-11,-6,12,-5,-3,2,-3,-2,2,0
9,-1,-11,-4,11,-6,-4,1,-4,-3,1,0
8,-2,-10,-3,10,-6,-5,1,-4,-4,1,0
7,-3,-10,-3,9,-7,-5,0,-5,-4,0,-1
7,-4,-10,-2,9,-7,-6,0,-5,-4,0,-1
7,-4,-11,-2,9,-7,-6,0,-6,-4,0,-1
7,-4,-11,-2,10,-7,-6,-1,-6,-5,-1,-2
8,-4,-12,-3,11,-7,-6,-1,-7,-5,-1,-2
10,-3,-12,-4,12,-7,-6,-1,-6,-5,0,-1
10,-2,-12,-4,12,-7,-5,-1,-6,-4,0,-1
10,-2,-12,-4,11,-7,-5,-1,-6,-4,0,-1
9,-2,-11,-4,10,-7,-5,-1,-6,-5,0,-1
8,-3,-10,-3,10,-7,-5,-1,-6,-5,-1,-2
7,-2,-10,-3,9,-6,-4,-1,-6,-5,-1,-1
7,-2,-9,-3,9,-6,-4,0,-6,-5,-1,-1
7,-2,-9,-2,8,-5,-3,0,-6,-5,-1,-1
6,-2,-8,-2,8,-5,-3,0,-6,-6,-1,-1
5,-3,-8,-1,7,-5,-2,0,-6,-6,-2,-2
4,-3,-8,-1,7,-5,-2,-1,-6,-6,-2,-2
3,-4,-7,0,6,-5,-3,-2,-6,-7,-2,-3
1,-5,-7,1,5,-6,-4,-3,-7,-7,-3,-4
0,-6,-6,2,4,-6,-4,-4,-8,-8,-4,-5
-1,-6,-6,3,3,-6,-4,-4,-9,-8,-5,-6
-1,-6,-5,4,3,-6,-4,-4,-9,-8,-5,-6
-1,-7,-5,4,2,-6,-4,-4,-9,-8,-6,-7
-2,-7,-5,5,2,-6,-4,-4,-9,-9,-6,-7
-2,-8,-5,5,2,-6,-5,-4,-9,-9,-7,-7
-3,-8,-5,6,2,-7,-5,-4,-9,-9,-7,-7
-3,-8,-5,6,2,-7,-5,-4,-9,-9,-7,-7
-3,-8,-5,6,2,-7,-4,-4,-9,-9,-7,-7
-2,-7,-5,6,2,-7,-4,-4,-9,-9,-7,-7
-2,-7,-5,5,2,-6,-5,-4,-9,-9,-7,-7
-2,-7,-5,5,2,-6,-5,-4,-10,-9,-7,-8
-2,-8,-5,6,2,-6,-6,-4,-10,-10,-7,-8
-2,-8,-5,5,2,-6,-5,-4,-10,-10,-7,-8
-2,-7,-5,5,2,-6,-5,-4,-10,-9,-6,-8
-2,-7,-4,4,1,-5,-4,-4,-9,-9,-6,-8
-2,-6,-4,4,1,-5,-4,-4,-9,-9,-6,-8
-2,-6,-4,4,1,-5,-4,-4,-9,-9,-6,-8
-2,-7,-4,4,1,-5,-4,-4,-9,-9,-7,-8
-2,-7,-4,5,1,-5,-4,-4,-9,-9,-7,-8
-3,-7,-4,5,1,-5,-4,-4,-9,-9,-7,-8
-3,-7,-4,6,1,-5,-3,-4,-9,-9,-7,-8
-3,-7,-4,6,1,-6,-3,-3,-9,-9,-7,-8
-3,-8,-4,6,1,-6,-3,-3,-9,-10,-7,-8
-4,-9,-4,7,0,-7,-3,-4,-9,-10,-7,-8
-5,-9,-5,8,0,-7,-3,-4,-9,-10,-7,-8
-4,-10,-5,8,1,-8,-3,-4,-9,-10,-7,-8
-4,-10,-5,8,1,-8,-3,-4,-9,-10,-7,-8
-4,-10,-5,7,1,-8,-3,-4,-9,-10,-7,-8
-4,-10,-6,7,1,-8,-3,-4,-9,-10,-7,-8
-4,-11,-6,8,1,-9,-3,-4,-9,-10,-7,-8
-5,-11,-7,8,1,-9,-3,-4,-9,-10,-7,-8
-5,-12,-7,9,1,-9,-3,-4,-9,-10,-7,-9
-6,-13,-7,10,1,-10,-2,-4,-9,-10,-7,-9
-6,-13,-7,10,1,-10,-2,-4,-8,-10,-7,-9
-6,-12,-6,9,1,-9,-2,-4,-8,-9,-6,-8
-5,-11,-6,8,1,-8,-1,-3,-7,-9,-6,-8
-3,-9,-5,6,2,-7,0,-2,-6,-8,-5,-7
-2,-7,-5,5,2,-6,0,-1,-5,-8,-5,-6
-1,-7,-5,4,2,-6,2,1,-4,-7,-4,-6
-1,-7,-5,4,2,-6,5,4,-2,-6,-4,-6
-1,-7,-5,4,2,-6,7,7,0,-4,-3,-5
0,-6,-5,3,3,-6,9,9,1,-3,-2,-5
1,-5,-6,2,4,-6,11,12,4,-2,-1,-4
2,-5,-6,2,5,-6,11,14,6,0,0,-3
3,-5,-7,1,5,-7,10,14,6,0,0,-3
4,-4,-8,0,7,-7,8,10,6,0,1,-2
7,-3,-9,-2,8,-6,4,4,4,0,2,-1
9,-2,-10,-3,9,-6,-4,-6,1,0,3,0
11,-1,-12,-4,11,-7,-17,-20,-3,0,5,3
15,0,-14,-7,14,-7,-33,-37,-8,0,8,6
20,2,-16,-11,18,-7,-50,-55,-14,0,11,9
25,4,-19,-15,23,-7,-69,-74,-21,1,16,14
32,8,-22,-21,28,-6,-87,-90,-26,4,23,21
41,15,-25,-28,33,-5,-105,-101,-27,10,34,32
50,23,-27,-37,39,-2,-122,-110,-27,18,47,43
60,31,-29,-46,45,0,-140,-120,-27,26,59,55
69,37,-32,-53,51,2,-158,-132,-30,31,69,65
77,42,-34,-59,56,3,-175,-145,-35,33,77,74
81,47,-34,-64,58,6,-188,-157,-40,35,84,82
83,53,-30,-68,57,11,-196,-166,-44,38,91,90
84,59,-25,-71,55,16,-199,-172,-46,40,97,98
84,63,-21,-73,53,21,-199,-175,-48,41,101,104
83,67,-16,-75,50,25,-197,-176,-50,42,103,109
82,69,-12,-75,47,28,-193,-175,-53,41,104,112
79,69,-10,-74,44,29,-186,-173,-55,37,100,111
73,65,-8,-69,41,28,-176,-167,-57,31,92,104
65,59,-5,-62,35,27,-162,-160,-60,21,79,93
54,53,0,-54,27,27,-147,-152,-64,8,60,78
42,47,5,-45,18,27,-132,-146,-69,-5,40,61
30,42,11,-36,10,27,-118,-138,-72,-17,23,46
20,37,16,-28,2,26,-104,-127,-72,-24,11,34
13,32,19,-22,-3,25,-92,-116,-71,-29,2,24
8,28,19,-18,-5,24,-82,-106,-69,-33,-5,17
5,24,20,-15,-7,22,-74,-98,-67,-37,-11,10
2,20,19,-12,-8,20,-67,-91,-66,-40,-16,5
-1,15,17,-7,-8,16,-61,-84,-63,-42,-20,0
-4,9,14,-3,-9,12,-55,-76,-60,-43,-24,-4
-6,5,12,0,-9,8,-50,-69,-57,-44,-26,-8
-7,1,10,3,-8,5,-45,-62,-54,-43,-27,-10
-8,-1,8,4,-8,3,-40,-56,-50,-42,-28,-12
-8,-3,6,5,-8,1,-35,-49,-46,-39,-28,-14
-9,-4,5,6,-7,0,-30,-43,-42,-36,-27,-14
-8,-5,4,6,-6,0,-25,-36,-37,-33,-25,-15
-8,-5,4,7,-6,-1,-21,-30,-32,-30,-24,-15
-9,-6,3,7,-6,-1,-16,-24,-27,-27,-22,-16
-9,-6,3,8,-6,-1,-11,-18,-23,-25,-21,-16
-9,-6,3,8,-6,-2,-7,-14,-20,-23,-19,-16
-9,-7,2,8,-6,-2,-4,-9,-17,-21,-18,-16
-9,-7,2,8,-6,-3,-1,-5,-14,-18,-18,-16
-10,-8,2,9,-7,-3,1,-2,-12,-16,-17,-16
-12,-10,3,11,-8,-3,3,1,-9,-14,-16,-16
-13,-10,3,12,-8,-3,5,4,-6,-12,-15,-15
-12,-10,3,11,-8,-3,7,7,-3,-9,-13,-14
-11,-9,3,10,-7,-3,10,10,0,-7,-11,-13
-11,-9,2,10,-7,-3,12,13,2,-6,-9,-13
-11,-9,2,10,-6,-4,14,15,4,-5,-8,-13
-11,-9,1,10,-6,-4,15,17,5,-4,-8,-12
-11,-9,2,10,-7,-4,16,19,6,-2,-8,-12
-11,-9,2,10,-7,-3,17,20,7,-1,-7,-12
-12,-9,3,10,-7,-3,17,20,8,0,-7,-11
-12,-10,3,11,-7,-3,18,21,9,0,-6,-11
-14,-11,3,12,-8,-4,18,21,10,0,-6,-12
-15,-12,3,14,-8,-5,19,21,10,0,-6,-12
-15,-12,2,14,-8,-5,19,22,11,0,-6,-12
-14,-11,2,13,-8,-4,19,23,11,0,-6,-12
-13,-10,3,11,-8,-3,20,24,12,1,-5,-12
-12,-9,3,10,-8,-2,20,25,12,1,-5,-11
-11,-8,3,9,-7,-2,20,25,13,2,-4,-11
-10,-7,3,8,-7,-1,21,26,14,2,-4,-10
-9,-6,3,8,-7,-1,21,27,15,3,-3,-10
-9,-6,3,8,-7,-1,21,27,15,3,-3,-10
-10,-7,3,9,-7,-2,21,27,15,3,-2,-10
-11,-7,3,9,-7,-2,21,27,15,3,-2,-10
-11,-8,3,10,-7,-2,22,28,15,3,-2,-10
-11,-8,3,10,-7,-2,22,28,15,4,-2,-10
-12,-8,3,10,-8,-2,22,28,16,4,-2,-10
-12,-8,3,10,-8,-2,22,29,16,4,-2,-10
-13,-9,3,11,-8,-2,22,29,16,4,-2,-10
-13,-9,3,11,-8,-2,22,29,17,4,-2,-10
-13,-9,3,11,-8,-2,22,29,17,4,-2,-10
-12,-9,3,11,-8,-2,22,30,17,5,-2,-10
-12,-8,4,10,-8,-2,22,30,17,5,-2,-10
-12,-8,4,10,-8,-1,22,30,17,5,-2,-10
-12,-7,5,10,-9,-1,22,31,17,5,-2,-10
-12,-7,5,10,-9,0,23,31,18,6,-2,-10
-12,-6,5,9,-9,0,23,32,18,6,-2,-10
-13,-6,5,9,-9,0,23,32,18,6,-2,-10
-13,-6,5,9,-9,0,23,32,19,6,-2,-10
-13,-6,5,9,-9,0,24,33,19,6,-2,-9
-13,-6,6,9,-9,0,24,33,20,6,-2,-9
-13,-6,6,10,-9,0,24,34,20,7,-2,-9
-13,-5,7,10,-9,0,24,35,20,7,-1,-9
-13,-5,7,10,-9,0,24,35,21,8,-1,-9
-13,-6,6,10,-9,0,24,36,21,8,-1,-9
-14,-7,6,11,-10,0,25,36,21,8,-1,-9
-14,-8,6,11,-10,0,25,37,22,8,-1,-9
-14,-7,7,10,-10,0,25,37,22,9,0,-9
-13,-6,7,9,-10,1,26,38,23,9,0,-8
-13,-5,7,9,-11,1,26,39,23,9,0,-8
-14,-6,8,9,-11,1,26,40,24,9,0,-9
-14,-6,8,10,-11,1,26,40,24,9,0,-9
-14,-6,8,10,-11,1,27,41,24,10,0,-9
-14,-6,8,10,-11,1,27,41,25,10,0,-9
-14,-6,8,10,-11,1,28,42,25,10,0,-8
-14,-6,8,10,-11,1,28,43,26,10,0,-8
-13,-6,7,10,-10,1,29,44,27,11,0,-8
-13,-6,6,10,-10,0,30,45,28,12,1,-8
-13,-7,6,10,-10,0,30,46,29,13,1,-8
-13,-7,6,10,-10,0,31,47,29,13,2,-8
-13,-7,6,10,-10,0,31,48,30,13,2,-8
-13,-7,6,10,-10,0,32,49,30,14,2,-8
-13,-7,6,10,-10,0,32,50,31,14,2,-8
-14,-7,6,11,-10,0,32,51,31,14,2,-8
-16,-8,6,12,-11,0,32,51,31,15,2,-8
-17,-10,6,13,-12,-1,32,52,31,15,2,-8
-18,-11,7,14,-13,-2,32,52,32,15,2,-8
-18,-10,7,14,-13,-1,32,53,33,15,2,-8
-16,-8,7,11,-12,0,33,55,34,16,3,-7
-13,-5,7,9,-10,1,33,56,35,17,4,-6
-12,-4,7,8,-9,1,33,57,36,18,4,-6
-11,-3,7,7,-9,2,33,58,36,18,5,-6
-10,-1,8,6,-8,3,34,59,37,19,5,-6
-10,-1,8,5,-8,3,34,59,38,19,5,-6
-10,-1,8,6,-8,3,34,59,38,19,5,-6
-10,-1,8,6,-8,4,34,60,38,19,5,-6
-10,-1,8,6,-9,4,34,60,38,19,5,-5
-10,-2,8,6,-9,3,34,60,38,19,5,-5
-10,-2,8,6,-9,3,33,60,38,19,5,-5
-10,-1,8,6,-9,3,33,60,38,19,5,-5
-10,-1,8,6,-9,3,32,60,38,19,5,-5
-10,-1,8,6,-9,3,32,60,38,19,5,-5
-10,-1,8,5,-9,3,32,60,38,19,6,-5
-10,-1,8,5,-9,3,31,59,37,19,6,-5
-10,-1,8,5,-9,3,30,58,37,18,6,-5
-9,-1,8,5,-9,3,29,57,36,18,6,-5
-9,-1,8,5,-8,3,29,56,36,18,5,-5
-9,-1,7,5,-8,3,28,55,35,17,5,-5
-9,-2,7,5,-8,2,27,54,34,16,4,-5
-9,-2,7,5,-7,2,26,53,33,16,4,-5
-8,-1,7,4,-7,3,25,52,32,15,4,-5
-6,0,7,3,-6,3,25,51,32,15,4,-4
-5,1,6,2,-5,4,24,50,31,15,4,-4
-4,2,6,1,-5,4,23,49,30,15,4,-4
-3,2,5,1,-4,3,22,48,29,14,4,-4
-3,1,4,1,-3,3,20,46,28,14,4,-4
-2,1,4,1,-3,2,19,44,27,13,4,-4
-2,0,3,1,-2,2,18,43,26,12,4,-4
-2,0,3,1,-2,1,17,41,25,11,3,-4
-2,0,2,1,-2,1,16,40,23,9,3,-4
-2,0,2,1,-1,0,15,38,22,8,2,-4
-1,0,1,0,0,0,14,36,20,7,2,-3
0,1,1,0,0,0,13,34,19,7,2,-3
1,1,0,-1,1,0,11,31,17,6,2,-2
2,2,0,-2,2,1,10,29,16,6,2,-2
3,3,0,-3,2,1,9,27,15,5,2,-1
4,4,0,-4,3,2,8,25,13,4,2,-1
5,4,0,-4,3,2,7,23,12,3,1,-1
5,4,0,-4,3,2,6,21,10,1,0,-1
4,4,0,-4,2,2,5,18,8,0,0,-1
4,4,0,-4,2,2,4,16,6,-1,-1,-1
4,4,0,-4,3,2,3,14,5,-1,-1,-1
4,3,0,-4,3,1,2,12,3,-2,-2,-2
4,2,-1,-3,3,1,1,10,2,-3,-2,-2
3,2,-1,-2,3,0,0,8,1,-4,-3,-2
4,2,-2,-2,3,0,0,6,0,-4,-3,-2
4,2,-2,-3,3,0,0,5,0,-5,-3,-2
4,1,-2,-3,3,0,0,4,-1,-6,-4,-2
3,1,-2,-2,3,0,0,3,-2,-6,-4,-2
2,0,-2,-1,2,-1,-1,1,-3,-7,-5,-3
1,0,-2,-1,2,-1,-1,0,-4,-7,-5,-3
1,0,-1,0,2,-1,-1,0,-4,-7,-5,-3
2,0,-1,0,2,-1,-1,0,-4,-7,-5,-3
2,0,-2,0,2,-1,-1,-1,-4,-7,-5,-3
2,0,-2,0,2,-1,-1,-1,-5,-7,-5,-3
2,0,-2,0,2,-1,-1,-2,-5,-7,-5,-3
1,0,-1,0,2,0,-1,-2,-6,-7,-5,-3
1,0,-1,0,2,0,-1,-3,-6,-7,-5,-3
1,0,-1,-1,2,0,-1,-3,-6,-7,-5,-3
1,1,-1,-1,2,0,0,-3,-6,-7,-5,-4
1,0,-1,-1,1,0,0,-4,-7,-7,-5,-4
0,0,0,0,1,0,0,-4,-7,-8,-6,-4
0,0,0,0,0,0,-1,-4,-7,-8,-6,-4
0,-1,0,0,0,0,-1,-4,-7,-8,-6,-4
0,-1,0,0,0,0,-1,-5,-7,-8,-6,-4
0,-1,0,0,0,0,-1,-5,-7,-9,-6,-4
-1,-2,0,1,0,-1,-1,-5,-7,-9,-6,-4
-1,-2,0,1,0,-1,-1,-5,-7,-9,-6,-4
-1,-2,0,2,0,-1,-1,-5,-7,-9,-6,-4
0,-2,-1,1,0,-1,-1,-5,-7,-8,-6,-4
0,-1,-1,1,0,-1,0,-5,-7,-8,-6,-4
0,0,-1,0,0,-1,0,-5,-7,-8,-5,-4
1,0,-1,0,0,0,0,-5,-7,-8,-5,-4
1,0,-1,0,0,0,0,-5,-8,-8,-5,-4
1,0,-1,0,0,0,0,-5,-8,-8,-5,-4
0,0,0,1,0,0,0,-5,-8,-8,-5,-4
0,0,0,1,0,0,0,-5,-8,-8,-5,-4
0,0,0,0,0,0,0,-5,-8,-8,-5,-4
0,0,0,0,0,0,0,-5,-7,-8,-5,-3
0,0,0,0,0,-1,0,-5,-7,-8,-5,-3
0,-1,0,1,0,-1,0,-5,-7,-8,-5,-3
0,-2,0,1,0,-1,0,-5,-7,-7,-5,-3
-1,-3,0,2,0,-2,0,-5,-7,-7,-5,-3
-1,-4,0,2,0,-2,0,-5,-7,-7,-5,-3
-1,-3,0,2,0,-2,0,-5,-7,-7,-5,-3
-1,-3,0,2,0,-2,1,-5,-7,-7,-5,-3
-2,-3,0,2,-1,-2,1,-5,-6,-7,-5,-3
-3,-3,0,3,-1,-2,1,-5,-6,-7,-5,-4
-3,-3,0,3,-1,-2,1,-5,-6,-7,-5,-4
-2,-3,-1,2,-1,-1,1,-4,-6,-7,-5,-4
-1,-2,-1,1,0,-1,2,-4,-6,-7,-5,-3
-1,-2,-1,1,0,-1,2,-4,-6,-7,-5,-3
-1,-2,-1,1,0,-1,2,-4,-6,-7,-5,-3
-1,-2,-1,1,0,-2,2,-4,-5,-7,-5,-3
-1,-3,-1,2,0,-2,2,-3,-5,-7,-5,-3
-1,-3,-1,2,0,-2,2,-3,-4,-7,-5,-3
-2,-3,-1,2,0,-2,3,-3,-4,-7,-5,-3
-2,-4,-1,3,0,-3,3,-3,-4,-7,-5,-3
-3,-4,-2,3,0,-3,3,-3,-4,-7,-5,-3
-3,-5,-2,4,0,-4,3,-3,-4,-7,-5,-3
-4,-6,-2,4,0,-4,3,-3,-4,-7,-6,-4
-4,-6,-2,5,0,-4,3,-3,-4,-7,-5,-4
-4,-6,-2,5,0,-4,4,-2,-4,-7,-5,-4
-4,-6,-2,5,0,-4,4,-2,-4,-7,-5,-4
-4,-6,-2,5,-1,-4,4,-2,-4,-7,-5,-4
-4,-6,-2,5,-1,-4,4,-2,-4,-7,-5,-4
-4,-6,-2,5,-1,-4,4,-2,-4,-7,-5,-3
-3,-6,-2,5,-1,-4,4,-2,-4,-7,-5,-3
-3,-6,-1,5,-1,-4,4,-2,-4,-7,-5,-3
-4,-6,-1,5,-1,-4,4,-2,-4,-7,-5,-3
-4,-7,-1,5,-1,-4,4,-2,-4,-7,-5,-3
-4,-6,-1,5,-1,-4,4,-1,-4,-7,-5,-3
-3,-5,-1,4,0,-4,4,-1,-4,-7,-5,-3
-2,-5,-1,3,0,-4,4,-1,-3,-7,-5,-3
-2,-5,-1,3,0,-4,4,-1,-3,-7,-5,-3
-2,-5,-1,4,0,-4,4,-1,-3,-7,-5,-3
-3,-5,-2,4,0,-4,4,-1,-3,-7,-5,-3
-3,-6,-2,5,0,-4,4,-1,-3,-7,-5,-3
-4,-6,-1,5,-1,-4,4,-1,-4,-7,-5,-4
-4,-6,-1,5,-1,-3,4,-1,-4,-7,-5,-4
-3,-5,-1,4,-1,-3,4,-1,-4,-7,-5,-4
-2,-4,-1,4,-1,-2,4,-1,-4,-7,-5,-4
-2,-2,0,3,-1,-1,4,-1,-4,-7,-5,-4
-1,-1,1,2,-1,0,4,-1,-4,-7,-5,-4
-1,0,2,1,-1,1,3,-1,-4,-7,-5,-4
-1,1,2,0,-1,2,3,-1,-4,-7,-6,-4
0,2,2,0,-1,2,3,-1,-4,-7,-6,-4
0,2,2,0,-1,2,3,-1,-4,-7,-6,-4
0,1,2,0,-1,2,3,-1,-4,-7,-6,-4
-1,1,2,0,-2,1,3,-1,-5,-7,-6,-5
-2,0,2,1,-2,1,3,-2,-5,-7,-7,-5
-3,0,2,2,-2,0,2,-2,-5,-8,-7,-6
-3,0,2,3,-2,0,2,-2,-5,-8,-7,-5
-3,0,2,2,-2,1,2,-2,-5,-8,-7,-5
-2,1,2,1,-2,1,3,-2,-5,-8,-6,-4
-2,1,2,1,-2,1,3,-2,-5,-8,-6,-4
-2,0,2,1,-1,0,3,-2,-5,-7,-6,-4
-2,-1,1,2,-1,0,3,-2,-4,-7,-6,-4
-2,-3,0,3,-1,-1,3,-2,-4,-7,-5,-4
-2,-3,-1,3,0,-2,3,-2,-4,-7,-5,-3
-2,-4,-2,3,0,-3,3,-2,-3,-7,-4,-3
-2,-5,-2,4,1,-3,4,-2,-3,-7,-4,-3
-2,-5,-3,4,1,-4,4,-2,-3,-7,-4,-3
-2,-6,-3,5,1,-5,4,-1,-3,-7,-4,-3
-2,-7,-4,5,2,-6,4,-1,-3,-6,-4,-3
-1,-7,-4,5,2,-6,4,-1,-3,-6,-4,-2
0,-6,-4,4,2,-5,4,-1,-3,-6,-4,-2
0,-5,-3,3,2,-4,4,-1,-3,-6,-4,-2
0,-4,-2,3,2,-3,4,-1,-3,-6,-4,-2
0,-3,-2,2,1,-2,4,-1,-3,-6,-4,-2
-1,-3,-1,2,1,-2,4,-2,-3,-6,-4,-2
-1,-3,-1,2,0,-1,3,-2,-3,-6,-4,-2
-1,-2,0,2,0,-1,3,-2,-3,-6,-4,-3
-1,0,1,1,-1,0,3,-2,-3,-6,-4,-3
-1,0,1,1,-1,0,2,-3,-4,-6,-4,-3
-1,1,2,1,-1,1,2,-3,-4,-7,-5,-3
0,2,3,0,-1,2,2,-3,-4,-7,-5,-3
1,4,3,-2,-1,3,3,-2,-3,-6,-4,-2
2,6,4,-3,0,4,3,-2,-3,-6,-4,-2
2,6,4,-4,-1,5,3,-1,-2,-6,-3,-2
2,6,4,-4,-1,5,3,-1,-2,-6,-3,-2
2,7,5,-4,-1,5,3,-1,-2,-5,-3,-1
2,7,5,-4,-1,5,4,0,-2,-5,-3,-1
2,6,5,-3,-1,5,4,0,-1,-5,-2,-1
1,5,5,-2,-1,4,4,0,-1,-4,-2,-1
2,6,4,-3,-1,5,5,0,0,-4,-2,-1
2,7,4,-4,0,5,6,1,0,-3,-1,0
3,7,4,-5,0,6,7,2,1,-2,0,0
4,8,3,-5,0,6,7,3,2,-1,0,1
5,7,2,-6,1,5,8,3,2,-1,0,1
5,7,2,-5,2,4,8,4,2,-1,0,1
4,5,1,-4,2,3,8,4,2,-1,0,1
4,4,0,-3,2,2,8,4,2,-1,0,2
4,3,0,-3,3,1,8,4,3,0,1,2
5,3,-1,-4,3,1,9,5,3,0,1,3
6,5,0,-5,4,2,10,6,4,0,2,3
7,7,0,-7,4,3,10,7,4,1,3,4
8,9,0,-8,5,4,10,7,5,2,3,5
9,9,-1,-9,6,4,10,7,5,2,4,6
10,9,-1,-9,6,4,9,7,5,3,4,6
10,9,-1,-9,6,4,8,6,5,3,4,6
11,8,-1,-9,7,3,7,6,5,3,4,6
11,8,-3,-9,8,3,7,5,4,3,4,6
11,7,-4,-9,8,2,6,5,4,2,4,6
11,6,-5,-8,9,0,5,4,3,1,4,6
10,5,-6,-7,9,-1,5,3,3,1,4,6
11,4,-7,-7,10,-2,4,3,2,0,4,6
11,4,-7,-8,10,-2,4,3,2,0,4,6
11,3,-7,-7,10,-2,4,2,2,0,4,6
9,2,-7,-6,9,-2,4,2,1,0,3,6
8,1,-7,-5,8,-2,3,1,1,0,3,5
9,1,-8,-5,9,-2,3,1,0,-1,3,5
9,0,-9,-5,9,-3,3,0,0,-1,2,5
9,0,-9,-4,10,-4,2,0,-1,-2,2,4
8,-1,-10,-3,10,-5,1,-1,-2,-3,1,4
7,-2,-10,-2,9,-6,1,-2,-3,-3,1,3
7,-2,-9,-2,9,-6,1,-2,-3,-3,0,3
6,-2,-9,-2,9,-5,1,-2,-3,-3,0,3
6,-2,-8,-1,8,-4,1,-2,-3,-3,0,3
5,-2,-7,-1,7,-4,2,-2,-3,-3,0,3
4,-2,-6,-1,6,-3,2,-2,-3,-3,0,2
3,-1,-5,-1,5,-3,2,-2,-3,-3,0,2
3,0,-4,-1,5,-2,2,-2,-3,-3,0,2
3,0,-3,-1,4,-2,2,-2,-3,-4,0,2
2,-1,-3,0,3,-2,2,-2,-4,-4,-1,1
1,-1,-2,0,2,-1,2,-2,-4,-4,-1,1
0,-2,-2,1,1,-1,2,-3,-4,-5,-2,0
-1,-3,-1,2,0,-1,2,-3,-4,-6,-3,0
-2,-4,-1,3,0,-2,2,-4,-5,-6,-4,-1
-3,-4,-1,4,-1,-2,2,-4,-5,-7,-4,-2
-4,-4,0,5,-2,-2,2,-5,-6,-7,-5,-3
-5,-4,1,5,-3,-1,2,-5,-6,-8,-5,-3
-5,-4,2,5,-3,-1,2,-6,-7,-8,-5,-4
-5,-2,3,5,-3,0,2,-6,-7,-8,-5,-4
-4,-1,3,4,-3,1,2,-6,-8,-8,-6,-4
-4,0,3,4,-4,2,2,-6,-8,-8,-6,-4
-3,0,4,3,-4,2,2,-6,-8,-9,-6,-4
-3,1,4,2,-4,3,2,-6,-8,-9,-6,-4
-4,1,5,2,-4,3,2,-6,-8,-10,-7,-5
-4,1,6,2,-5,4,2,-6,-8,-10,-7,-5
-5,2,7,2,-5,4,2,-6,-8,-10,-7,-5
-5,2,7,2,-6,5,2,-6,-8,-10,-7,-6
-5,3,8,2,-6,5,2,-6,-8,-10,-7,-6
-5,3,8,2,-6,6,2,-6,-8,-10,-7,-6
-5,3,8,2,-6,5,1,-6,-8,-10,-7,-6
-5,2,8,2,-7,5,1,-6,-9,-10,-8,-7
-6,2,8,3,-7,5,1,-6,-9,-10,-8,-7
-7,1,8,3,-8,5,1,-6,-9,-11,-8,-7
-7,1,8,3,-8,5,1,-7,-9,-11,-8,-7
-6,2,8,3,-7,5,1,-7,-9,-11,-8,-7
-5,3,8,2,-7,6,1,-7,-9,-11,-8,-7
-5,3,8,1,-7,6,1,-7,-9,-11,-8,-7
-5,3,8,2,-7,6,1,-7,-9,-11,-9,-7
-7,1,9,3,-8,5,1,-7,-9,-11,-9,-7
-7,1,9,4,-8,5,1,-7,-9,-11,-9,-7
-6,2,10,3,-7,6,1,-7,-9,-11,-9,-7
-5,4,10,1,-7,7,2,-7,-9,-11,-8,-7
-5,4,10,1,-7,7,2,-7,-9,-11,-8,-7
-6,4,10,1,-7,7,2,-7,-9,-11,-9,-8
-6,4,10,1,-7,7,2,-7,-9,-11,-9,-8
-5,5,10,0,-7,8,3,-6,-9,-11,-8,-7
-4,6,10,0,-7,8,3,-5,-8,-10,-8,-7
-4,6,10,0,-7,8,3,-5,-8,-10,-8,-7
-4,5,10,0,-7,8,3,-5,-9,-10,-8,-7
-5,5,10,0,-7,8,3,-5,-9,-10,-8,-7
-5,5,10,0,-8,8,3,-5,-9,-10,-8,-7
-5,5,11,0,-8,8,4,-4,-8,-9,-8,-6
-5,5,11,0,-8,8,6,-2,-7,-9,-7,-6
-6,5,11,1,-8,8,9,0,-6,-8,-7,-6
-6,4,11,1,-8,8,11,3,-4,-7,-6,-6
-6,4,10,1,-8,7,13,5,-2,-6,-6,-6
-5,4,10,1,-7,7,14,7,0,-5,-5,-5
-4,4,9,0,-6,7,14,8,0,-4,-4,-4
-3,4,8,0,-5,6,13,7,0,-4,-3,-4
-2,5,7,-1,-4,6,11,2,0,-4,-3,-3
0,6,6,-3,-2,6,5,-5,-3,-4,-2,-2
2,8,5,-5,0,6,-5,-16,-6,-4,-1,-1
5,9,3,-7,1,6,-19,-31,-11,-5,0,1
8,10,1,-9,4,6,-35,-48,-17,-5,2,3
14,13,-1,-13,8,6,-54,-67,-24,-6,5,7
21,16,-5,-18,13,6,-73,-84,-30,-5,9,12
29,21,-9,-24,19,6,-91,-98,-34,-3,16,18
38,26,-13,-31,25,6,-109,-109,-36,2,26,27
48,32,-16,-39,32,7,-127,-117,-36,9,37,38
58,38,-20,-47,39,8,-145,-126,-36,16,49,49
68,43,-25,-55,46,8,-162,-137,-38,22,60,59
77,48,-29,-62,53,9,-177,-147,-41,26,69,69
83,53,-30,-68,57,12,-187,-156,-43,30,78,78
87,59,-27,-73,58,16,-192,-161,-43,35,86,88
89,64,-24,-76,57,20,-194,-164,-44,38,93,96
90,68,-22,-78,56,23,-194,-166,-45,40,98,102
91,72,-18,-80,55,26,-190,-166,-46,41,101,108
91,76,-15,-83,53,30,-185,-163,-46,41,103,112
91,77,-13,-83,52,32,-178,-160,-47,40,102,113
86,74,-12,-80,49,31,-169,-156,-50,34,95,108
77,68,-10,-72,43,29,-157,-151,-53,25,83,98
65,61,-4,-63,35,29,-144,-146,-58,13,66,83
51,54,2,-52,24,29,-130,-141,-65,-2,45,66
37,48,9,-42,14,28,-116,-136,-70,-16,26,49
26,42,15,-33,6,28,-103,-128,-73,-25,11,36
16,36,19,-26,-1,27,-90,-118,-72,-31,1,26
10,31,21,-20,-5,26,-80,-108,-71,-35,-6,19
5,27,22,-16,-8,25,-71,-100,-69,-38,-12,12
2,23,22,-13,-9,23,-63,-93,-67,-41,-17,6
-1,19,21,-9,-10,21,-57,-86,-64,-42,-21,2
-3,16,20,-6,-11,18,-50,-78,-60,-43,-23,-1
-5,13,18,-4,-11,16,-44,-69,-56,-42,-24,-4
-5,10,17,-2,-11,13,-38,-61,-51,-40,-25,-6
-6,8,15,0,-11,11,-32,-54,-47,-38,-25,-8
-7,6,14,0,-10,9,-28,-48,-43,-36,-25,-9
-7,5,13,1,-10,8,-23,-42,-39,-34,-25,-10
-8,4,12,2,-10,8,-18,-36,-35,-31,-24,-11
-9,3,12,3,-10,7,-13,-30,-31,-28,-22,-11
-10,2,12,4,-10,7,-8,-24,-26,-25,-21,-11
-11,0,11,5,-10,6,-4,-18,-22,-23,-20,-12
-12,-1,11,7,-11,4,-1,-14,-19,-21,-19,-12
-12,-3,10,8,-11,3,2,-10,-16,-20,-19,-13
-13,-4,9,9,-11,2,4,-6,-13,-18,-18,-13
-14,-6,9,10,-11,1,7,-3,-11,-16,-18,-13
-15,-7,9,11,-12,0,9,0,-9,-14,-17,-13
-15,-7,9,11,-12,0,12,3,-6,-12,-15,-13
-15,-7,9,11,-12,1,14,6,-3,-10,-13,-13
-15,-6,9,11,-11,1,17,9,0,-8,-11,-12
-15,-6,9,11,-11,1,19,12,2,-6,-10,-11
-14,-6,9,11,-11,1,20,15,4,-4,-9,-11
-14,-6,8,11,-11,1,21,17,5,-3,-8,-10
-13,-6,8,10,-11,1,22,18,6,-2,-8,-10
-13,-5,9,9,-11,1,23,19,7,-1,-7,-10
-13,-5,9,9,-11,1,24,20,9,0,-7,-10
-13,-5,9,9,-10,1,25,20,10,0,-6,-9
-13,-6,8,9,-10,1,26,21,11,1,-6,-9
-13,-6,8,10,-10,0,26,22,12,1,-5,-9
-14,-7,7,10,-10,0,26,23,13,2,-5,-9
-14,-7,7,10,-10,0,26,23,14,2,-4,-9
-14,-7,7,11,-10,0,26,24,14,2,-4,-8
-14,-8,7,11,-10,0,26,24,14,2,-4,-8
-15,-8,7,12,-10,-1,26,24,14,2,-4,-8
-15,-9,7,12,-10,-1,27,25,15,3,-4,-8
-16,-10,6,12,-10,-2,27,25,15,3,-3,-8
-16,-10,6,13,-11,-2,28,26,16,4,-3,-8
-16,-10,6,13,-11,-2,28,26,16,4,-3,-8
-15,-10,6,12,-11,-2,28,27,17,4,-3,-8
-15,-9,6,12,-10,-1,29,27,17,4,-3,-7
-15,-9,6,12,-10,-1,29,28,17,4,-2,-7
-15,-9,6,12,-10,-1,29,28,17,4,-2,-7
-15,-9,6,11,-10,-1,29,28,18,5,-2,-7
-14,-7,7,10,-10,0,29,29,18,5,-2,-7
-14,-6,7,10,-10,0,30,29,19,6,-2,-7
-14,-6,8,10,-10,0,30,29,19,6,-2,-7
-15,-6,8,10,-11,1,30,30,20,6,-2,-7
-15,-6,9,10,-11,1,30,30,20,6,-2,-7
-15,-6,9,10,-12,1,30,30,20,6,-2,-7
-15,-6,9,10,-12,2,30,31,20,6,-2,-7
-14,-5,10,9,-12,2,31,31,21,7,-1,-7
-14,-4,10,8,-12,3,31,32,21,7,-1,-7
-14,-4,10,9,-12,3,31,32,22,7,-1,-7
-14,-4,10,9,-12,3,31,33,22,7,-1,-7
-14,-4,10,9,-12,3,31,34,23,7,-1,-7
-15,-4,11,9,-12,3,31,34,23,7,-1,-7
-15,-5,11,10,-12,3,31,34,23,8,-1,-7
-16,-6,10,11,-13,2,31,35,23,8,-1,-7
-17,-7,10,11,-13,1,31,35,24,8,-1,-7
-17,-7,10,11,-13,1,31,36,24,9,-1,-7
-17,-8,10,12,-13,0,31,36,25,9,0,-7
-17,-8,10,12,-13,0,32,37,25,9,0,-7
-16,-8,9,12,-13,0,33,38,26,10,0,-7
-16,-8,9,12,-13,0,34,39,26,10,0,-7
-16,-8,8,12,-13,0,34,40,27,11,1,-6
-15,-8,8,11,-12,0,35,41,28,12,1,-6
-15,-7,8,11,-12,0,35,42,29,13,2,-5
-14,-6,8,10,-12,0,36,43,30,13,2,-5
-14,-6,8,10,-12,0,36,44,30,13,2,-5
-14,-6,8,10,-12,0,37,44,31,13,2,-5
-14,-6,9,10,-12,0,37,45,31,13,2,-5
-14,-6,9,10,-12,0,37,46,32,14,2,-5
-15,-6,9,10,-12,0,38,47,32,15,2,-5
-16,-7,9,11,-12,0,38,47,33,15,2,-5
-16,-7,9,11,-12,0,38,48,34,15,2,-5
-16,-7,8,11,-12,0,39,49,35,15,2,-5
-16,-7,8,11,-12,0,39,50,35,16,2,-5
-16,-8,8,12,-12,0,39,51,36,16,2,-5
-17,-8,9,12,-13,0,39,51,36,16,3,-5
-17,-8,9,12,-13,0,40,52,37,17,3,-5
-17,-8,8,12,-13,0,41,54,38,18,4,-4
-17,-8,8,12,-13,0,41,55,39,18,4,-4
-18,-9,8,13,-13,0,41,56,39,18,4,-4
-18,-9,8,13,-14,0,41,56,39,18,4,-4
-18,-9,8,13,-14,0,42,57,40,19,4,-4
-17,-8,8,12,-13,0,42,58,41,19,5,-4
-17,-8,9,12,-13,0,43,59,41,20,5,-4
-16,-7,9,11,-13,0,43,60,42,20,5,-3
-16,-7,9,11,-13,0,44,61,43,21,6,-3
-16,-7,9,11,-13,0,44,61,43,21,6,-3
-16,-7,9,11,-13,1,44,62,44,21,6,-3
-16,-7,9,11,-13,1,44,62,44,21,7,-3
-16,-7,9,11,-13,1,43,62,44,21,7,-3
-16,-7,9,11,-13,0,43,62,44,21,7,-3
-17,-8,9,12,-13,0,42,62,44,21,6,-3
-16,-7,9,11,-12,0,42,62,44,21,6,-3
-15,-6,9,10,-12,1,41,62,44,21,6,-3
-14,-5,8,9,-11,1,41,62,44,21,6,-2
-13,-4,8,9,-11,1,41,62,44,21,6,-2
-12,-3,8,8,-10,2,41,61,44,21,7,-2
-11,-3,8,7,-10,2,41,61,44,21,7,-1
-10,-2,8,7,-9,2,41,61,44,21,8,-1
-10,-2,7,6,-9,2,41,61,43,21,8,-1
-9,-2,7,6,-8,2,40,60,42,21,8,-1
-9,-2,7,6,-8,2,39,59,41,21,8,-1
-9,-3,6,6,-8,1,38,57,40,20,8,-1
-9,-3,6,7,-8,1,36,55,39,19,7,-1
-9,-3,6,6,-8,1,34,53,38,18,6,-1
-8,-2,6,5,-8,1,33,52,37,18,6,-1
-7,-1,6,4,-7,2,32,51,36,17,6,-1
-6,0,6,3,-7,2,31,50,35,16,6,-1
-5,1,6,2,-6,3,30,49,34,15,5,-1
-4,3,6,1,-6,4,29,47,33,15,5,-1
-4,4,6,0,-5,5,28,45,31,14,5,-1
-3,4,7,0,-5,5,26,43,30,13,5,-1
-3,4,7,0,-5,5,24,41,28,12,4,-1
-3,3,6,0,-5,5,23,38,27,11,4,-1
-2,3,6,-1,-5,4,22,36,25,10,4,-1
-1,3,5,-1,-4,4,21,35,24,9,3,-1
-1,2,4,-1,-4,3,20,33,23,9,3,-1
0,2,3,-1,-3,3,18,30,22,8,2,-1
0,2,2,-1,-2,2,17,28,20,7,2,-1
1,2,1,-1,0,1,16,26,18,7,2,-1
1,1,0,-2,0,1,15,24,17,6,2,0
1,1,-1,-1,1,0,15,22,15,5,1,0
1,0,-2,-1,1,-1,14,20,14,4,1,0
2,0,-2,-1,1,-2,13,18,12,3,0,0
2,-1,-3,0,1,-2,12,16,11,2,0,0
2,-1,-4,0,2,-3,12,14,10,2,0,0
2,-2,-5,0,3,-4,11,12,9,1,0,0
3,-3,-6,0,4,-5,11,10,7,0,0,0
3,-4,-7,1,4,-6,10,9,6,0,-1,0
2,-5,-7,1,5,-6,9,7,5,-1,-1,0
2,-5,-8,2,5,-7,9,6,5,-1,-1,0
2,-6,-8,2,5,-7,8,5,4,-2,-1,0
2,-7,-9,3,5,-8,8,4,4,-2,-1,0
2,-7,-9,3,5,-9,8,4,4,-2,-1,1
3,-7,-10,2,6,-9,8,3,3,-1,-1,1
4,-7,-11,2,7,-10,8,3,3,-1,-1,1
4,-8,-12,3,7,-10,8,2,2,-2,-1,1
3,-9,-12,3,7,-11,8,1,2,-2,-1,1
3,-10,-13,4,7,-11,8,1,2,-2,-1,1
2,-11,-13,5,7,-12,8,0,2,-2,-1,1
2,-12,-14,5,7,-13,8,0,2,-2,-1,1
1,-14,-15,6,7,-15,8,0,1,-2,-1,1
0,-15,-16,7,7,-16,8,0,1,-2,-1,1
0,-16,-16,7,7,-16,8,0,1,-2,-1,1
0,-16,-17,7,8,-17,9,0,1,-2,-1,2
1,-16,-17,7,9,-17,9,0,2,-1,0,2
1,-17,-18,8,9,-17,9,0,2,-1,0,2
0,-17,-18,8,9,-17,9,0,2,-1,0,2
0,-18,-18,8,9,-18,9,0,2,-1,0,2
0,-18,-18,8,9,-18,9,0,2,0,0,3
1,-17,-18,7,9,-18,10,0,3,0,0,3
1,-17,-18,7,9,-18,10,0,3,0,0,3
2,-17,-18,7,10,-18,10,0,3,0,0,3
2,-17,-19,7,10,-18,10,0,3,0,0,3
3,-17,-19,7,10,-18,10,0,3,0,1,3
3,-17,-19,7,10,-18,11,1,3,0,1,3
1,-18,-19,8,10,-18,11,1,2,0,1,3
-1,-20,-19,10,8,-19,10,0,2,-1,0,1
-3,-22,-18,12,7,-20,9,0,1,-1,-1,1
-4,-22,-18,13,7,-20,9,0,1,-2,-1,0
-3,-21,-18,12,7,-19,9,0,1,-2,-1,0
-2,-19,-17,10,7,-18,9,0,2,-2,-1,1
-1,-18,-17,9,7,-17,9,0,2,-2,0,1
0,-17,-17,8,8,-17,9,0,2,-2,0,1
0,-16,-16,7,8,-16,9,0,2,-1,0,2
1,-15,-16,7,8,-16,9,0,3,-1,0,2
1,-15,-16,7,8,-15,9,0,3,-1,0,2
0,-15,-16,7,8,-15,9,0,3,0,0,2
0,-15,-16,7,7,-15,9,0,3,0,0,2
0,-15,-15,7,7,-15,10,0,3,0,0,2
0,-14,-15,7,7,-14,10,0,3,0,0,2
0,-14,-14,7,7,-14,9,0,3,0,0,1
0,-13,-14,7,7,-14,9,0,3,0,0,1
0,-13,-13,6,7,-13,10,0,3,0,0,1
0,-12,-13,6,7,-13,10,0,3,0,0,1
0,-12,-13,6,7,-12,10,0,3,0,0,1
0,-12,-12,6,6,-12,9,0,3,0,0,1
-1,-12,-12,6,5,-11,9,0,3,-1,-1,1
-2,-12,-11,6,4,-11,9,0,3,-1,-1,0
-2,-12,-10,7,4,-11,8,0,3,-2,-2,0
-2,-12,-10,7,3,-11,8,0,2,-2,-2,-1
-2,-11,-9,7,3,-10,8,0,2,-2,-2,-1
-2,-11,-8,7,2,-9,8,0,2,-2,-2,-1
-3,-10,-7,7,2,-8,8,0,1,-3,-3,-2
-3,-10,-7,7,1,-8,8,0,1,-3,-3,-2
-2,-9,-6,6,1,-7,9,0,1,-3,-3,-2
-2,-9,-6,6,1,-7,9,0,1,-3,-3,-2
-2,-9,-6,5,1,-7,9,0,2,-3,-3,-2
-2,-9,-6,5,1,-7,9,0,2,-3,-3,-2
-2,-9,-6,5,1,-7,9,0,2,-3,-3,-2
-2,-8,-6,5,1,-7,9,0,2,-3,-3,-2
-2,-8,-5,5,1,-6,9,0,2,-3,-3,-3
-2,-7,-5,4,1,-6,9,0,2,-3,-3,-3
-1,-6,-5,4,1,-5,9,0,2,-3,-3,-3
0,-5,-5,3,1,-5,9,0,2,-3,-3,-2
1,-3,-4,1,2,-4,10,1,2,-3,-3,-2
2,-2,-4,0,2,-3,10,1,2,-3,-2,-1
1,-2,-4,0,2,-3,9,0,2,-4,-3,-2
-1,-4,-3,2,1,-4,8,0,2,-4,-3,-3
-2,-5,-3,3,0,-4,8,0,2,-4,-3,-3
-2,-6,-3,4,0,-4,8,0,2,-4,-3,-3
-3,-7,-3,5,0,-4,8,0,1,-5,-4,-3
-5,-8,-3,7,-1,-5,8,-1,1,-5,-4,-4
-6,-9,-3,7,-2,-6,8,-1,0,-6,-5,-4
-6,-9,-3,7,-2,-6,8,-1,0,-6,-5,-4
-6,-8,-3,7,-2,-6,8,-1,0,-6,-5,-4
-6,-9,-3,7,-2,-6,8,-1,1,-6,-5,-4
-6,-9,-2,8,-2,-5,8,-1,1,-6,-5,-5
-6,-8,-2,7,-2,-5,8,-1,1,-5,-5,-5
-4,-7,-2,6,-1,-4,8,0,1,-5,-5,-4
-3,-5,-2,4,-1,-3,8,0,1,-5,-4,-4
-2,-4,-2,3,0,-3,8,0,1,-5,-4,-4
-2,-4,-2,3,0,-3,8,0,1,-5,-4,-4
-2,-4,-2,3,0,-3,8,0,1,-5,-4,-4
-2,-4,-2,3,0,-3,7,0,2,-5,-4,-4
-2,-4,-2,3,0,-3,7,0,2,-5,-4,-4
-1,-3,-2,3,0,-3,7,-1,2,-5,-4,-4
-1,-3,-2,2,0,-3,7,-1,2,-5,-4,-4
-1,-3,-2,2,0,-3,7,-1,2,-5,-4,-4
-1,-3,-2,2,0,-3,6,-1,1,-5,-4,-4
-1,-3,-2,2,0,-3,6,-1,1,-5,-4,-4
-1,-2,-1,2,0,-2,6,-1,1,-5,-4,-4
0,-2,-1,1,0,-2,6,-1,1,-5,-4,-4
0,-1,-1,1,0,-1,6,-1,1,-5,-4,-4
0,-1,-1,0,0,-1,6,-1,1,-5,-4,-4
0,-1,-1,0,0,-1,6,-1,1,-5,-4,-4
0,-1,-1,1,0,-1,6,-1,1,-5,-4,-4
-1,-2,-1,2,0,-2,6,-1,1,-5,-4,-4
-1,-2,-2,2,0,-2,6,-1,1,-5,-4,-4
-1,-3,-2,2,0,-2,5,-2,1,-5,-4,-4
-1,-3,-2,2,0,-2,5,-2,1,-5,-4,-4
-1,-3,-2,2,0,-2,5,-2,1,-5,-4,-4
-1,-2,-1,1,0,-2,6,-2,1,-5,-4,-4
-1,-2,-1,1,0,-2,6,-2,1,-5,-4,-4
-1,-2,-1,1,0,-2,6,-2,1,-5,-4,-4
-1,-2,-1,1,0,-2,6,-2,1,-5,-4,-4
0,-2,-1,1,0,-1,6,-2,1,-5,-3,-3
0,-1,-1,0,0,-1,7,-1,1,-4,-3,-3
0,-1,-1,0,0,0,7,-1,2,-4,-2,-3
0,0,-1,0,0,0,7,0,2,-3,-2,-3
1,0,-1,0,1,0,7,0,2,-3,-2,-2
1,0,-1,-1,1,0,7,0,3,-3,-2,-2
1,0,-1,-1,1,0,7,0,3,-3,-2,-2
1,1,0,-1,1,0,7,0,3,-3,-2,-2
1,1,0,-1,1,0,7,0,3,-2,-1,-1
2,2,0,-2,1,1,8,1,4,-2,-1,-1
2,3,0,-2,1,2,8,1,4,-1,0,0
3,4,1,-3,1,2,9,2,5,0,0,0
4,5,1,-4,1,3,9,3,6,0,1,0
4,5,1,-4,1,3,10,3,6,1,1,0
5,6,1,-5,1,4,10,3,6,1,1,1
5,7,1,-5,2,4,10,3,7,1,1,1
5,7,0,-5,2,3,10,3,7,1,1,1
5,7,0,-6,2,3,10,3,7,1,1,1
6,7,0,-6,3,3,10,4,7,2,2,1
6,6,0,-6,3,3,10,4,7,2,2,1
7,6,0,-7,3,3,10,5,8,3,2,1
8,7,0,-7,3,3,11,5,8,3,3,2
7,6,0,-7,3,3,10,6,9,3,3,2
6,5,-1,-6,2,2,10,5,9,3,3,2
6,4,-1,-6,3,2,10,5,9,3,3,3
7,5,-2,-7,4,2,10,5,9,3,3,3
9,7,-2,-8,5,3,9,5,9,4,4,4
10,8,-2,-9,6,4,8,4,9,4,4,4
10,8,-3,-9,6,3,7,4,8,4,4,4
11,8,-4,-9,7,2,6,3,8,3,4,4
11,7,-5,-9,7,1,5,3,7,3,4,4
11,6,-5,-8,8,0,4,2,7,3,4,4
11,6,-6,-8,8,0,3,2,7,3,4,4
11,5,-7,-9,9,-1,3,1,7,3,4,4
11,5,-7,-9,9,-1,3,1,7,2,4,4
11,4,-7,-8,8,-1,3,1,6,2,3,4
10,4,-7,-8,8,-1,3,0,6,2,3,3
10,3,-7,-7,8,-2,3,0,5,1,2,3
10,3,-8,-7,8,-2,3,0,5,1,2,3
10,2,-8,-6,8,-3,2,-1,4,0,1,2
10,1,-9,-5,8,-4,2,-1,3,0,1,2
9,0,-9,-5,8,-4,1,-2,2,-1,0,1
9,0,-9,-4,8,-4,1,-3,2,-1,0,1
8,0,-9,-4,8,-4,1,-3,2,-1,0,1
8,0,-8,-4,7,-4,1,-3,2,-1,0,1
7,0,-8,-4,7,-4,1,-3,2,-1,0,1
6,0,-7,-3,6,-4,1,-3,2,-1,0,1
5,0,-7,-2,5,-4,2,-3,2,-1,0,1
5,-1,-6,-2,4,-4,2,-3,2,-1,0,1
4,-1,-6,-1,3,-4,2,-3,2,-1,0,1
2,-2,-5,0,3,-4,3,-3,2,-1,0,0
1,-4,-5,1,2,-4,3,-3,2,-1,-1,0
0,-5,-5,3,2,-4,3,-3,1,-2,-2,-1
-1,-6,-5,4,1,-5,3,-3,1,-2,-2,-1
-2,-7,-5,4,1,-5,3,-3,0,-3,-3,-2
-2,-6,-5,4,1,-5,4,-4,0,-3,-3,-2
-2,-6,-5,3,0,-5,4,-4,0,-3,-4,-2
-2,-6,-4,4,0,-5,4,-4,0,-3,-4,-3
-3,-6,-4,4,0,-5,4,-4,0,-4,-4,-3
-4,-7,-3,5,-1,-5,4,-4,0,-4,-4,-3
-4,-7,-3,5,-1,-5,4,-5,0,-4,-4,-3
-5,-8,-3,6,-1,-5,3,-5,0,-4,-4,-4
-5,-9,-3,7,-2,-5,3,-5,-1,-4,-4,-4
-6,-10,-3,8,-2,-5,2,-5,-1,-4,-4,-4
-7,-10,-3,8,-3,-6,2,-5,-1,-4,-4,-5
-6,-9,-3,8,-3,-5,2,-5,-1,-4,-4,-5
-6,-8,-3,7,-2,-5,2,-5,-1,-4,-4,-5
-5,-7,-3,7,-2,-5,2,-5,-1,-4,-4,-5
-5,-7,-3,6,-2,-5,3,-5,-1,-4,-4,-4
-5,-7,-2,6,-2,-4,3,-4,-1,-4,-4,-4
-5,-7,-2,6,-2,-4,4,-4,0,-4,-4,-4
-5,-7,-2,6,-2,-4,4,-4,0,-4,-4,-4
-4,-6,-2,5,-1,-4,5,-4,0,-4,-4,-4
-4,-6,-2,5,-1,-4,5,-4,0,-4,-4,-3
-3,-5,-2,4,-1,-3,5,-4,0,-4,-4,-3
-3,-4,-2,4,-1,-3,5,-4,0,-4,-4,-3
-3,-5,-2,4,-1,-3,5,-3,0,-4,-5,-3
-3,-5,-2,4,-1,-3,4,-3,0,-4,-5,-3
-4,-6,-2,5,-1,-3,4,-3,0,-4,-6,-3
-5,-7,-2,5,-1,-4,4,-3,0,-4,-6,-3
-5,-7,-2,6,-2,-4,4,-3,0,-4,-6,-3
-6,-8,-2,6,-2,-4,4,-4,0,-5,-6,-4
-6,-8,-2,7,-2,-4,3,-4,0,-5,-6,-4
-5,-8,-2,7,-2,-5,3,-4,0,-5,-6,-4
-5,-8,-3,7,-2,-5,4,-4,0,-5,-6,-4
-4,-8,-3,6,-1,-5,4,-4,0,-5,-6,-4
-5,-9,-3,7,-1,-5,5,-4,0,-5,-7,-4
-5,-9,-3,7,-1,-6,5,-4,0,-5,-7,-4
-5,-10,-4,7,-1,-6,5,-4,0,-5,-7,-4
-6,-10,-4,8,-1,-6,5,-4,0,-5,-7,-4
-7,-11,-4,8,-2,-7,5,-4,0,-5,-7,-5
-8,-12,-4,9,-2,-7,5,-4,0,-5,-7,-5
-8,-11,-3,8,-2,-7,6,-3,0,-5,-7,-5
-7,-9,-2,7,-2,-6,8,-1,1,-4,-6,-4
-7,-8,-2,7,-2,-5,10,1,3,-3,-6,-4
-5,-6,-1,5,-2,-3,13,5,5,-1,-5,-3
-3,-4,-1,3,-1,-2,16,8,7,0,-3,-2
0,-2,-1,2,0,-1,18,11,9,1,-2,-1
1,-1,-2,0,1,-1,17,12,11,2,-1,-1
1,-1,-2,0,2,-2,16,11,11,2,0,0
1,-2,-3,0,2,-2,14,7,10,1,-1,0
0,-3,-3,1,2,-3,10,0,7,0,-1,0
0,-4,-4,1,2,-4,1,-10,3,0,-1,0
2,-3,-6,0,4,-4,-11,-24,-1,-1,0,1
6,-1,-7,-2,6,-4,-26,-40,-8,-2,0,2
10,1,-9,-6,10,-4,-44,-59,-15,-3,2,5
17,4,-13,-11,15,-4,-63,-77,-23,-4,5,8
25,8,-17,-17,20,-4,-82,-92,-29,-3,10,14
34,13,-21,-24,27,-3,-99,-104,-31,0,18,22
44,20,-25,-32,34,-2,-116,-113,-32,6,29,32
55,27,-29,-41,41,-1,-133,-121,-32,13,41,43
67,33,-34,-50,49,0,-150,-131,-34,19,51,54
77,37,-39,-57,57,-1,-166,-141,-37,23,60,63
85,42,-43,-63,63,0,-179,-151,-39,27,69,72
90,47,-43,-68,66,2,-186,-157,-40,31,77,81
93,52,-40,-72,66,6,-190,-161,-41,35,84,90
93,55,-37,-74,64,9,-190,-163,-42,37,90,97
94,59,-34,-76,63,12,-188,-163,-43,39,94,103
94,63,-31,-79,62,16,-183,-161,-43,40,97,108
94,66,-28,-80,60,19,-177,-158,-44,39,98,111
92,65,-27,-79,58,19,-169,-155,-45,36,94,109
85,60,-25,-73,54,18,-159,-151,-48,29,84,101
74,53,-21,-64,47,17,-147,-146,-51,19,70,89
59,46,-14,-53,36,17,-134,-141,-57,5,52,73
44,39,-6,-42,24,17,-121,-136,-63,-9,31,56
31,33,1,-32,14,17,-107,-130,-67,-20,14,41
21,29,7,-25,6,18,-94,-120,-68,-27,3,31
13,25,11,-19,1,18,-82,-110,-66,-31,-5,23
8,21,13,-15,-2,17,-72,-102,-64,-34,-11,16
4,17,13,-10,-4,15,-64,-94,-63,-36,-16,10
0,13,13,-6,-6,13,-57,-86,-60,-37,-20,5
-2,9,12,-3,-7,11,-50,-79,-57,-37,-22,1
-4,6,11,-1,-8,9,-44,-70,-53,-37,-24,-1
-6,3,10,1,-8,7,-37,-62,-48,-36,-25,-3
-7,1,9,2,-8,5,-32,-54,-44,-34,-25,-5
-9,-1,7,4,-9,3,-27,-48,-40,-32,-25,-6
-10,-4,6,6,-9,1,-23,-42,-36,-30,-25,-8
-10,-5,5,8,-9,0,-18,-36,-32,-28,-24,-9
-11,-6,5,8,-9,0,-14,-30,-28,-25,-23,-9
-11,-7,5,9,-9,0,-9,-25,-23,-22,-21,-10
-11,-7,5,9,-9,0,-4,-19,-19,-19,-20,-10
-12,-8,4,9,-8,-1,0,-14,-15,-17,-18,-10
-12,-9,4,10,-8,-2,3,-10,-12,-15,-17,-10
-13,-10,3,12,-8,-4,5,-6,-10,-14,-17,-11
-14,-12,2,13,-8,-5,8,-3,-8,-12,-16,-11
-15,-14,1,14,-8,-6,10,0,-6,-10,-16,-11
-16,-15,0,15,-8,-7,13,3,-3,-8,-14,-10
-16,-15,0,15,-8,-6,16,7,0,-5,-12,-10
-16,-15,0,15,-8,-6,19,10,3,-2,-10,-9
-16,-15,0,15,-8,-7,21,14,5,-1,-9,-9
-15,-15,0,15,-8,-7,22,17,8,0,-7,-8
-15,-15,0,14,-8,-7,24,19,9,1,-6,-7
-14,-14,0,14,-8,-7,25,20,11,2,-6,-6
-14,-14,0,14,-7,-7,26,21,12,3,-5,-5
-14,-14,-1,14,-7,-7,26,22,12,4,-5,-5
-14,-15,-1,14,-7,-8,27,23,13,5,-4,-5
-14,-16,-1,15,-7,-8,27,23,14,6,-4,-5
-15,-17,-1,16,-7,-9,28,24,15,6,-4,-6
-16,-18,-1,17,-7,-9,28,25,15,6,-4,-6
-17,-19,-1,18,-8,-10,28,25,15,6,-4,-6
-17,-20,-2,18,-8,-10,28,26,16,6,-4,-6
-17,-19,-2,17,-8,-10,29,26,16,7,-3,-6
-16,-18,-2,16,-8,-9,29,27,17,7,-2,-5
-15,-16,-1,15,-8,-8,30,27,17,8,-2,-5
-14,-14,-1,14,-7,-7,30,28,18,9,-1,-5
-13,-13,-1,13,-6,-6,31,29,19,10,-1,-4
-12,-12,0,12,-6,-6,31,30,20,10,-1,-4
-12,-12,0,12,-6,-5,31,30,20,10,-1,-4
-13,-13,0,13,-7,-6,31,30,20,10,-1,-4
-15,-15,0,15,-8,-7,31,30,19,10,-2,-4
-17,-17,1,16,-9,-7,30,29,19,9,-2,-5
-18,-17,1,17,-10,-7,30,29,19,9,-2,-5
-18,-16,2,16,-10,-6,30,30,19,9,-2,-5
-17,-14,2,15,-10,-5,30,31,20,9,-2,-5
-16,-13,3,14,-10,-4,30,31,20,9,-2,-5
-16,-13,3,14,-10,-4,31,32,21,9,-2,-5
-15,-12,3,13,-9,-4,31,32,21,10,-1,-5
-15,-11,3,13,-9,-4,32,33,21,10,-1,-5
-15,-12,4,14,-10,-4,32,33,22,10,-1,-5
-17,-12,4,15,-11,-4,32,33,22,10,-1,-6
-18,-13,5,15,-11,-4,31,33,22,10,-1,-6
-19,-13,5,16,-12,-3,31,33,22,10,-2,-7
-18,-11,6,15,-12,-3,30,34,23,11,-1,-6
-16,-9,6,13,-12,-1,30,34,23,11,-1,-6
-15,-7,7,11,-12,0,31,35,24,11,0,-6
-14,-6,8,10,-11,1,31,35,24,12,0,-6
-12,-4,8,8,-11,2,32,35,24,12,0,-6
-12,-4,8,8,-11,2,32,36,25,12,0,-6
-14,-4,9,9,-12,2,32,37,25,12,0,-6
-15,-5,9,10,-13,2,32,37,26,13,0,-6
-16,-5,9,11,-13,2,32,38,26,13,0,-6
-16,-5,9,11,-14,2,32,38,26,13,0,-6
-16,-5,10,11,-14,2,32,38,26,13,0,-7
-16,-5,11,10,-14,3,32,38,26,13,0,-7
-16,-4,12,10,-14,4,33,39,27,13,0,-7
-15,-3,13,9,-14,4,33,40,27,13,0,-7
-16,-4,12,10,-15,4,34,41,27,13,0,-7
-16,-4,12,11,-15,4,34,41,28,13,0,-7
-17,-5,11,11,-15,3,34,42,28,14,0,-7
-17,-5,11,11,-15,3,35,43,29,14,0,-7
-17,-6,11,11,-15,2,35,44,29,15,1,-7
-17,-7,11,12,-15,2,35,45,30,16,1,-7
-17,-7,11,12,-14,1,35,46,31,16,1,-7
-17,-7,11,12,-14,1,36,47,32,17,2,-6
-16,-7,11,11,-13,1,37,48,33,18,2,-6
-16,-6,11,11,-13,2,38,50,34,19,3,-5
-16,-5,10,10,-13,2,38,51,35,19,3,-5
-16,-5,10,10,-14,2,39,51,35,19,3,-5
-17,-6,10,11,-14,2,39,52,35,19,3,-6
-17,-6,10,11,-14,2,39,52,36,19,3,-5
-17,-6,11,11,-14,2,39,53,36,19,3,-5
-17,-6,11,11,-14,3,39,54,37,20,3,-5
-17,-6,11,11,-15,3,39,55,37,20,3,-5
-18,-6,12,12,-15,3,39,56,37,20,3,-5
-18,-7,12,13,-16,3,40,57,37,20,3,-5
-19,-7,12,12,-16,3,40,57,38,20,4,-5
-18,-6,13,11,-16,3,40,58,39,21,4,-5
-17,-4,13,10,-15,4,41,59,39,21,5,-5
-17,-4,13,10,-15,4,41,59,40,22,5,-5
-16,-3,13,10,-15,4,41,60,40,22,5,-5
-16,-3,13,10,-15,5,41,60,41,23,5,-5
-17,-4,13,10,-15,4,41,61,41,23,5,-5
-18,-6,12,12,-15,3,40,61,41,22,5,-5
-19,-7,12,13,-15,2,40,60,40,22,4,-6
-19,-7,12,13,-15,2,39,60,40,22,4,-6
-17,-5,12,11,-15,3,39,61,41,23,5,-5
-14,-2,12,8,-14,5,39,61,41,24,6,-4
-12,0,12,6,-13,6,39,61,42,24,6,-3
-11,0,12,5,-12,6,39,60,42,24,6,-3
-10,1,12,5,-12,6,39,60,42,24,6,-2
-9,2,12,4,-11,7,39,60,42,24,7,-2
-9,2,12,4,-11,7,39,60,41,24,7,-1
-10,1,12,5,-11,7,37,59,40,23,7,-2
-11,0,11,6,-11,5,35,57,39,22,6,-3
-12,-2,10,7,-11,4,34,55,37,21,5,-3
-11,-2,9,7,-11,4,33,53,36,20,5,-3
-10,-1,9,5,-10,4,32,52,35,20,5,-3
-9,0,9,4,-10,4,32,52,35,19,5,-3
-8,0,9,4,-9,4,31,51,34,19,4,-3
-7,1,8,3,-8,5,31,50,33,18,4,-3
-5,3,8,1,-7,5,30,49,32,18,4,-2
-5,3,8,1,-6,6,29,48,31,17,4,-2
-4,3,7,0,-6,6,27,46,30,16,4,-1
-4,2,7,0,-5,5,26,44,29,15,4,-1
-4,2,6,1,-5,5,24,41,27,14,4,-1
-3,1,6,0,-5,4,23,39,26,13,3,-1
-3,1,5,0,-5,3,22,37,24,13,3,-1
-2,0,4,0,-4,2,21,35,23,12,3,-1
-2,0,3,0,-3,2,20,33,22,11,3,0
-1,0,2,0,-2,1,19,31,21,11,2,0
0,0,2,0,-1,1,17,29,19,10,2,0
0,0,1,0,0,0,16,26,17,9,1,0
1,0,1,0,0,0,14,24,15,7,1,0
1,1,0,-1,0,0,13,21,14,6,0,-1
2,1,0,-1,0,0,11,19,12,5,0,-1
2,1,0,-1,1,0,10,17,11,4,0,-1
2,1,0,-2,1,0,10,15,10,3,-1,-1
2,1,-1,-2,2,0,9,13,9,3,-1,-1
3,1,-1,-2,2,0,9,11,8,2,-1,-1
3,1,-2,-2,2,0,8,9,6,1,-2,-1
3,0,-2,-1,2,0,8,7,5,0,-2,-1
3,0,-3,-1,2,-1,7,5,4,0,-3,-1
3,-1,-3,0,2,-1,7,4,3,-1,-3,-1
3,-1,-4,0,2,-2,6,3,2,-1,-3,-2
3,-1,-4,-1,3,-2,6,2,1,-2,-4,-2
3,-1,-4,-1,3,-2,5,1,0,-2,-4,-2
3,-1,-3,-1,3,-2,5,0,0,-2,-4,-2
3,-1,-3,-1,3,-2,4,0,0,-2,-4,-2
3,-1,-3,0,3,-2,4,-1,-1,-3,-4,-2
2,-2,-3,0,2,-3,4,-2,-2,-3,-5,-2
0,-4,-3,2,1,-3,4,-2,-3,-4,-5,-3
0,-5,-4,3,1,-4,4,-3,-3,-5,-6,-3
0,-6,-4,4,1,-4,4,-3,-3,-5,-6,-3
0,-5,-4,3,1,-4,4,-3,-3,-5,-5,-3
2,-3,-4,1,2,-3,4,-3,-2,-4,-5,-2
4,-1,-4,0,3,-2,5,-3,-2,-3,-4,-2
3,-1,-4,-1,3,-2,5,-4,-2,-3,-4,-2
2,-2,-4,0,2,-3,5,-4,-3,-3,-5,-2
0,-4,-4,1,2,-3,4,-4,-3,-4,-5,-3
-1,-5,-4,3,1,-4,4,-4,-4,-4,-5,-3
-2,-6,-3,4,1,-4,4,-4,-4,-5,-6,-3
-2,-6,-3,4,0,-4,4,-5,-5,-5,-6,-3
-1,-5,-3,3,1,-4,4,-5,-5,-5,-6,-3
0,-3,-3,1,1,-3,4,-5,-5,-4,-6,-3
1,-1,-2,0,1,-2,4,-6,-5,-4,-5,-2
1,0,-2,0,1,-2,4,-6,-5,-4,-5,-2
1,-1,-2,0,1,-2,4,-6,-5,-4,-5,-2
0,-3,-2,1,1,-2,4,-6,-5,-4,-5,-2
-1,-4,-2,2,1,-2,4,-6,-5,-4,-5,-2
-1,-4,-2,3,0,-2,4,-6,-4,-4,-5,-2
-1,-4,-2,2,0,-2,4,-5,-4,-4,-5,-2
-2,-4,-2,3,0,-3,3,-5,-5,-5,-6,-3
-2,-4,-2,3,0,-3,3,-6,-5,-5,-6,-3
-2,-3,-1,2,0,-2,3,-6,-5,-5,-6,-3
-1,-1,-1,1,0,-1,3,-5,-5,-4,-6,-3
0,0,0,0,0,0,4,-5,-5,-4,-6,-2
0,0,0,0,0,0,4,-5,-5,-3,-5,-2
0,0,0,0,0,0,4,-5,-4,-3,-5,-2
0,0,0,0,0,0,4,-5,-4,-3,-5,-2
0,0,0,1,0,0,4,-5,-4,-3,-5,-2
-1,-1,0,1,-1,0,4,-5,-4,-3,-5,-2
-1,-1,1,1,-1,0,4,-5,-4,-3,-6,-2
-1,-1,1,1,-1,0,4,-5,-4,-3,-6,-2
-1,-1,1,1,-1,0,4,-5,-4,-3,-6,-2
-1,-1,1,1,-1,0,4,-5,-4,-3,-6,-2
-1,0,1,1,-1,1,5,-4,-4,-3,-5,-2
-1,0,1,1,-1,1,5,-4,-3,-3,-5,-2
-1,-1,1,2,-1,0,5,-4,-3,-4,-6,-3
-1,-1,1,2,-2,0,5,-4,-4,-4,-6,-3
-2,-2,1,2,-2,0,5,-4,-4,-4,-7,-3
-2,-2,1,3,-2,0,6,-4,-4,-4,-7,-3
-2,-2,1,3,-2,-1,6,-4,-4,-4,-7,-3
-3,-2,1,3,-2,-1,6,-4,-4,-4,-7,-3
-3,-2,1,3,-2,-1,5,-4,-4,-3,-7,-3
-3,-3,1,3,-2,-1,5,-4,-4,-3,-7,-3
-3,-3,1,3,-2,-1,5,-4,-4,-3,-7,-4
-3,-2,1,3,-2,0,5,-4,-4,-3,-7,-4
-3,-1,2,2,-2,0,5,-4,-4,-3,-7,-4
-3,-1,2,2,-2,0,5,-4,-4,-3,-7,-5
-2,0,2,1,-2,1,5,-3,-4,-3,-7,-5
-2,0,2,1,-2,1,6,-3,-4,-3,-7,-5
-2,0,2,1,-2,1,6,-3,-4,-3,-7,-5
-2,0,2,2,-3,1,6,-3,-4,-3,-7,-5
-3,-1,3,2,-3,1,7,-3,-4,-3,-7,-4
-4,-2,3,3,-4,0,7,-2,-3,-3,-7,-4
-4,-2,3,3,-4,0,7,-2,-3,-3,-7,-3
-5,-3,2,4,-4,0,7,-2,-3,-4,-7,-3
-5,-3,2,4,-4,-1,7,-2,-4,-4,-7,-4
-6,-4,2,5,-4,-1,7,-2,-4,-5,-8,-4
-6,-4,2,5,-4,-1,7,-2,-4,-5,-8,-4
-5,-3,2,4,-4,0,7,-2,-4,-4,-7,-4
-4,-2,2,3,-3,0,7,-2,-4,-4,-7,-4
-3,-1,2,2,-3,0,7,-1,-3,-3,-7,-4
-2,0,2,1,-3,1,7,-1,-3,-3,-7,-3
-2,0,2,0,-3,2,7,-2,-3,-2,-7,-3
-3,0,2,1,-3,2,7,-2,-3,-2,-7,-3
-3,0,2,1,-3,2,7,-2,-3,-2,-6,-3
-3,-1,2,2,-3,1,7,-2,-3,-2,-6,-4
-4,-2,2,3,-3,0,7,-2,-3,-3,-7,-4
-5,-2,3,4,-4,0,6,-2,-3,-3,-7,-5
-4,-2,3,3,-4,0,6,-2,-3,-3,-7,-5
-4,-2,2,3,-3,0,7,-2,-3,-3,-7,-5
-4,-2,2,2,-3,0,7,-2,-3,-3,-7,-5
-4,-2,2,3,-3,0,6,-2,-3,-3,-7,-5
-4,-2,2,3,-3,0,6,-2,-3,-4,-7,-5
-3,-1,2,2,-3,0,6,-2,-3,-4,-7,-4
-1,0,2,0,-2,1,6,-1,-3,-3,-7,-4
0,1,2,-1,-1,2,7,-1,-2,-3,-7,-3
0,1,2,-1,-1,1,7,-1,-2,-3,-7,-3
-1,0,2,0,-1,1,6,-2,-3,-3,-8,-4
-2,0,2,1,-2,0,6,-2,-3,-3,-8,-4
-2,0,2,1,-2,0,6,-2,-3,-3,-8,-4
-1,0,2,0,-2,1,6,-2,-2,-3,-7,-3
-1,0,2,0,-2,1,6,-1,-2,-3,-7,-3
-1,0,1,0,-2,1,6,-1,-3,-3,-7,-3
-1,0,1,0,-2,0,6,-2,-3,-3,-7,-3
-1,-1,0,1,-2,0,5,-2,-3,-3,-7,-4
-1,-1,0,1,-2,0,5,-3,-4,-3,-8,-4
-1,-1,1,1,-2,0,5,-3,-4,-3,-8,-4
-1,-1,1,1,-2,0,5,-3,-4,-3,-8,-4
-1,-1,1,1,-2,0,5,-2,-3,-3,-8,-4
-1,0,1,0,-2,0,6,-2,-3,-3,-7,-4
-1,0,1,0,-1,0,6,-1,-2,-3,-7,-3
0,0,1,-1,-1,1,7,-1,-2,-3,-6,-3
0,1,1,-1,-1,1,7,-1,-2,-2,-6,-3
0,1,1,-1,0,1,7,-1,-2,-2,-6,-2
1,2,2,-2,0,2,7,0,-1,-1,-5,-2
1,3,2,-2,0,2,7,0,-1,-1,-5,-1
2,4,2,-3,0,3,8,0,-1,-1,-4,-1
2,5,2,-4,0,4,8,1,0,-1,-4,-1
3,6,3,-5,0,5,8,1,0,0,-4,0
3,7,3,-5,0,5,8,1,0,0,-4,0
4,8,4,-6,0,6,8,1,0,0,-3,0
4,9,5,-7,0,6,8,1,0,0,-3,0
5,10,5,-7,0,7,8,2,1,1,-3,0
5,10,6,-8,0,8,8,2,1,1,-3,-1
5,11,6,-8,0,8,8,2,1,1,-3,-1
6,11,6,-8,0,9,8,2,1,1,-4,-1
7,12,6,-9,0,9,8,2,1,1,-4,-1
7,12,6,-9,0,9,8,3,2,1,-4,-1
8,13,6,-10,0,9,8,4,3,1,-3,0
8,15,7,-12,1,10,9,4,3,2,-3,1
9,16,7,-12,1,11,9,5,4,2,-2,2
9,16,7,-12,1,11,9,5,4,2,-1,2
9,16,7,-13,1,11,9,4,4,3,-1,2
9,16,7,-13,1,11,9,4,4,3,0,2
9,15,7,-12,1,11,7,3,4,3,0,2
9,15,6,-12,1,11,6,2,4,3,-1,2
9,15,5,-12,2,10,4,1,3,2,-1,1
9,14,5,-12,2,10,3,0,2,2,-1,1
9,14,4,-12,2,10,2,0,1,2,-1,0
10,14,4,-12,3,9,1,0,1,1,-2,0
9,13,3,-11,3,8,1,-1,0,0,-2,0
8,10,2,-9,3,6,0,-1,0,0,-3,0
7,8,1,-8,3,5,0,-2,0,0,-3,0
7,7,1,-8,3,4,1,-2,0,0,-3,1
9,8,0,-9,4,4,1,-2,0,0,-3,1
11,10,0,-10,5,5,1,-2,0,0,-3,2
11,9,-1,-10,5,4,1,-2,-1,0,-3,2
11,7,-2,-9,6,2,0,-3,-2,-1,-4,1
11,6,-4,-9,6,1,0,-3,-2,-1,-4,1
11,6,-4,-9,7,1,1,-3,-2,-1,-4,1
11,6,-4,-9,8,1,1,-3,-2,-1,-4,1
10,5,-4,-9,7,1,1,-4,-2,-1,-4,0
9,4,-4,-7,7,0,1,-4,-2,-1,-4,0
8,3,-3,-6,6,0,1,-4,-3,-2,-4,0
7,2,-3,-5,5,0,2,-4,-3,-2,-4,0
7,2,-3,-5,5,0,2,-3,-2,-1,-4,0
7,3,-2,-5,4,1,3,-3,-2,-1,-4,0
6,3,-2,-5,4,1,3,-3,-2,-1,-4,0
6,3,-2,-4,3,1,3,-3,-2,-1,-4,0
5,3,-1,-4,3,1,3,-3,-2,-1,-4,0
3,2,-1,-2,2,0,2,-3,-2,-2,-4,-1
1,0,0,0,0,0,2,-4,-3,-2,-5,-2
0,-1,0,1,0,0,2,-4,-4,-3,-5,-2
-2,-2,0,2,-1,0,2,-5,-4,-3,-6,-3
-3,-3,0,3,-2,-1,2,-5,-4,-3,-6,-3
-3,-3,0,3,-2,-1,2,-5,-4,-3,-7,-3
-3,-4,0,3,-2,-1,2,-5,-4,-3,-7,-3
-3,-4,0,3,-2,-1,2,-5,-5,-3,-7,-3
-3,-4,0,3,-2,-1,3,-5,-5,-3,-7,-4
-3,-4,0,4,-2,-2,3,-5,-5,-4,-8,-4
-4,-5,0,4,-2,-2,4,-5,-5,-4,-8,-5
-4,-5,0,5,-2,-2,4,-5,-5,-4,-8,-5
-5,-6,0,5,-2,-3,4,-5,-5,-4,-8,-5
-5,-6,0,5,-2,-3,3,-5,-5,-4,-8,-5
-5,-6,0,5,-2,-3,3,-5,-5,-4,-8,-5
-5,-6,0,5,-2,-3,3,-5,-5,-4,-8,-5
-5,-6,0,5,-2,-3,3,-5,-5,-4,-8,-5
-5,-6,0,5,-2,-3,3,-5,-5,-4,-8,-4
-5,-5,0,5,-2,-2,4,-5,-5,-4,-7,-4
-4,-4,0,4,-2,-2,4,-5,-4,-3,-7,-4
-4,-4,0,4,-2,-1,4,-5,-4,-3,-7,-3
-4,-3,0,4,-2,-1,4,-5,-4,-3,-7,-3
-4,-3,0,4,-2,-1,4,-5,-5,-4,-7,-4
-4,-3,0,4,-2,-1,4,-5,-5,-4,-8,-4
-4,-3,1,4,-2,-1,4,-5,-5,-4,-8,-4
-3,-3,1,3,-2,-1,4,-5,-5,-4,-8,-4
-3,-3,1,3,-2,-1,4,-5,-6,-4,-8,-5
-4,-3,1,4,-2,-1,3,-5,-6,-4,-8,-5
-4,-4,1,4,-2,-1,3,-5,-6,-4,-8,-5
-4,-4,1,4,-2,-1,3,-5,-6,-4,-8,-5
-4,-3,1,4,-2,-1,3,-5,-6,-4,-8,-5
-4,-3,1,4,-2,-1,3,-5,-6,-4,-8,-5
-4,-3,1,4,-3,0,4,-5,-6,-4,-8,-5
-4,-3,2,4,-3,0,4,-5,-5,-4,-8,-5
-4,-3,2,4,-3,0,4,-5,-5,-4,-8,-5
-3,-3,2,3,-2,0,4,-5,-5,-4,-8,-5
-3,-3,1,3,-2,0,4,-5,-6,-5,-8,-5
-4,-4,1,4,-2,-1,4,-5,-6,-5,-9,-5
-5,-5,1,5,-3,-1,4,-5,-6,-5,-9,-5
-5,-5,1,5,-3,-1,5,-5,-5,-4,-8,-5
-4,-4,1,4,-3,-1,5,-4,-4,-3,-8,-4
-4,-3,1,4,-3,0,6,-2,-3,-2,-7,-4
-4,-3,2,4,-3,0,8,0,-2,-2,-7,-4
-5,-3,2,4,-3,0,11,2,-1,-1,-7,-5
-5,-3,2,4,-3,0,13,5,0,-1,-7,-5
-4,-2,2,3,-2,0,15,8,1,0,-6,-5
-2,-1,2,1,-1,0,16,10,3,1,-5,-4
-1,0,2,0,-1,1,16,12,5,2,-4,-4
1,1,1,-1,0,1,15,10,6,3,-4,-3
2,1,0,-2,1,1,11,6,5,3,-3,-2
4,2,-1,-3,2,1,5,-2,2,3,-1,-1
7,4,-3,-5,5,1,-5,-13,-1,3,0,1
10,5,-5,-8,8,1,-19,-29,-6,3,2,4
15,7,-7,-11,11,0,-35,-46,-12,2,4,7
20,10,-10,-15,15,0,-53,-65,-19,2,7,11
27,13,-13,-20,20,0,-72,-83,-26,2,12,16
36,19,-16,-28,26,1,-89,-97,-29,6,20,24
47,27,-19,-37,32,3,-106,-107,-30,12,31,35
57,35,-22,-46,39,5,-123,-116,-31,19,43,46
68,41,-26,-54,46,7,-140,-127,-33,24,54,56
78,47,-30,-62,53,8,-158,-139,-38,27,62,65
85,51,-33,-68,58,9,-172,-152,-43,30,70,74
88,56,-31,-72,60,13,-183,-162,-46,33,77,83
89,62,-27,-75,58,18,-189,-169,-48,36,84,91
90,67,-22,-78,56,23,-191,-173,-50,38,89,98
91,72,-17,-81,54,27,-190,-175,-51,39,93,104
90,76,-14,-83,52,31,-187,-175,-53,39,95,108
89,77,-11,-83,50,33,-182,-173,-55,36,94,109
84,75,-9,-80,47,33,-174,-170,-58,31,89,105
77,70,-7,-74,42,31,-163,-164,-60,24,79,97
66,63,-2,-65,34,31,-150,-156,-63,14,64,85
52,57,4,-55,24,31,-135,-150,-67,1,45,69
38,50,12,-44,13,31,-121,-143,-72,-12,26,53
26,45,19,-35,4,32,-107,-134,-73,-21,11,39
17,40,23,-28,-3,31,-94,-124,-73,-27,0,29
10,34,25,-22,-7,30,-83,-114,-72,-32,-7,20
5,30,25,-17,-10,28,-74,-106,-71,-35,-14,13
1,25,26,-13,-12,26,-66,-98,-69,-37,-18,7
-1,22,25,-10,-13,24,-59,-91,-66,-38,-22,2
-2,20,24,-9,-12,22,-52,-82,-62,-38,-24,-1
-3,18,22,-7,-12,20,-46,-74,-57,-37,-26,-3
-4,16,20,-6,-12,18,-40,-66,-53,-37,-27,-6
-5,13,18,-3,-11,15,-34,-59,-49,-36,-28,-8
-7,9,16,0,-11,12,-30,-53,-46,-35,-28,-11
-9,4,15,3,-12,9,-26,-47,-43,-33,-29,-13
-12,-1,13,6,-13,6,-23,-42,-40,-31,-29,-14
-14,-3,12,8,-12,5,-20,-36,-35,-28,-28,-15
-14,-3,11,8,-12,4,-15,-30,-30,-25,-26,-14
-14,-3,11,8,-12,4,-11,-25,-26,-22,-25,-14
-14,-2,11,8,-12,4,-7,-20,-21,-20,-23,-14
-14,-2,11,8,-12,3,-4,-15,-18,-18,-22,-14
-13,-3,11,8,-12,3,-1,-11,-15,-15,-20,-14
-13,-3,11,8,-12,3,1,-7,-13,-13,-19,-14
-13,-2,11,8,-12,4,4,-3,-10,-10,-17,-14
-13,-2,11,8,-11,4,7,0,-7,-8,-16,-14
-13,-2,11,8,-11,4,10,3,-4,-6,-15,-14
-13,-3,11,8,-12,4,12,7,-1,-5,-14,-13
-14,-3,11,8,-12,4,14,10,1,-4,-13,-13
-13,-2,11,8,-12,4,16,13,3,-2,-12,-12
-13,-2,10,8,-12,4,18,15,5,-1,-11,-12
-13,-2,10,8,-12,4,19,17,6,0,-10,-11
-13,-3,10,8,-12,3,19,18,7,0,-9,-11
-14,-4,10,9,-12,3,20,18,8,1,-9,-11
-15,-5,10,10,-12,3,21,19,9,2,-8,-11
-15,-4,10,9,-12,3,22,20,11,4,-8,-11
-15,-4,11,9,-12,4,23,21,12,5,-7,-10
-15,-4,11,9,-13,4,23,22,13,5,-7,-10
-15,-4,10,9,-13,3,23,22,13,5,-7,-11
-14,-4,10,9,-13,3,24,23,13,5,-7,-11
-14,-3,10,9,-12,4,24,24,13,6,-7,-11
-13,-2,11,8,-12,4,24,24,13,6,-6,-11
-13,-2,11,7,-12,5,24,25,13,7,-6,-10
-14,-2,11,7,-12,5,24,25,14,7,-6,-10
-15,-3,11,9,-12,4,25,25,15,6,-6,-10
-16,-5,11,10,-13,3,25,25,15,6,-6,-10
-16,-6,10,11,-13,2,24,25,15,5,-6,-10
-16,-6,10,11,-13,2,24,26,15,5,-6,-10
-15,-4,11,10,-13,3,24,26,15,6,-6,-9
-13,-1,11,7,-12,5,24,27,16,8,-5,-9
-12,0,11,6,-12,5,24,28,16,9,-4,-8
-11,0,11,5,-12,6,24,28,17,9,-4,-8
-11,1,11,5,-11,6,25,29,17,10,-4,-8
-10,1,11,5,-11,6,25,29,18,10,-3,-7
-10,1,11,5,-11,6,26,30,18,10,-3,-7
-11,0,11,6,-11,5,26,30,18,10,-3,-7
-12,0,11,7,-12,5,26,30,18,10,-3,-8
-13,-1,11,7,-12,4,26,31,18,10,-4,-8
-13,-1,11,7,-12,4,26,31,18,10,-4,-8
-12,-1,11,7,-12,4,26,31,19,10,-3,-8
-12,-1,11,7,-12,4,26,31,19,11,-3,-8
-13,-1,11,8,-12,4,26,31,20,11,-3,-9
-13,-2,11,8,-13,4,26,31,20,10,-3,-9
-14,-2,11,8,-13,4,26,32,20,10,-3,-9
-14,-2,11,9,-13,4,26,32,21,11,-3,-9
-14,-2,12,9,-13,4,26,33,21,11,-3,-9
-15,-2,12,9,-13,4,26,33,21,11,-3,-10
-15,-2,12,9,-14,4,26,34,21,11,-4,-10
-15,-2,12,9,-14,4,26,34,21,11,-4,-10
-15,-2,12,9,-14,4,26,34,21,11,-3,-9
-15,-2,12,9,-14,4,27,35,22,12,-3,-9
-14,-2,11,9,-13,4,28,36,23,12,-2,-8
-14,-3,11,9,-13,3,28,37,24,12,-2,-8
-14,-3,11,9,-13,3,28,38,24,12,-2,-8
-15,-3,11,9,-13,3,28,39,25,13,-2,-8
-14,-2,12,8,-13,4,29,40,25,13,-2,-8
-14,-2,12,8,-13,4,29,41,26,14,-1,-8
-14,-2,12,8,-13,4,30,41,26,14,-1,-8
-14,-2,12,9,-13,4,30,42,27,14,-1,-8
-15,-3,12,9,-13,4,31,42,27,15,-1,-7
-15,-3,12,9,-13,4,31,43,28,15,0,-7
-15,-3,12,9,-14,4,31,44,29,16,0,-7
-15,-3,12,9,-14,4,31,45,30,16,0,-7
-15,-3,12,9,-14,4,31,45,30,16,0,-8
-16,-3,12,9,-15,4,30,46,30,16,0,-8
-16,-3,13,10,-15,4,30,46,30,17,0,-8
-16,-2,13,9,-15,5,31,47,31,17,0,-8
-15,-2,13,9,-15,5,32,48,31,17,0,-8
-15,-2,13,9,-14,5,32,49,32,17,0,-7
-15,-1,13,9,-14,5,33,51,33,18,1,-7
-14,0,13,8,-14,5,34,52,34,18,1,-6
-13,0,13,7,-13,6,34,53,34,19,2,-6
-14,0,13,7,-14,6,34,53,35,19,2,-7
-16,-2,13,9,-14,5,33,53,34,19,1,-7
-18,-4,13,11,-15,4,32,53,34,19,1,-8
-19,-5,13,12,-16,3,31,53,34,19,0,-9
-19,-5,13,11,-16,4,30,54,35,19,0,-9
-16,-2,13,9,-15,5,31,55,36,20,1,-8
-13,1,14,6,-14,7,33,57,37,20,2,-7
-12,2,14,5,-13,7,33,57,37,21,2,-7
-11,3,14,4,-13,8,34,58,37,21,3,-6
-10,4,14,3,-13,9,34,58,38,22,4,-6
-8,6,14,1,-12,10,35,59,39,23,5,-5
-6,7,14,0,-11,11,35,59,39,24,6,-4
-6,7,13,0,-10,10,34,59,39,23,6,-4
-6,7,12,0,-10,10,33,59,39,22,5,-4
-7,6,12,1,-10,9,32,58,38,22,5,-4
-7,5,12,1,-10,9,31,57,37,22,5,-4
-7,5,12,1,-10,9,30,57,36,22,5,-4
-7,5,12,1,-10,8,30,56,36,22,5,-4
-7,5,12,1,-10,8,29,55,35,21,4,-4
-7,5,12,1,-10,8,29,54,34,20,4,-4
-7,4,11,2,-10,8,27,52,33,20,4,-4
-7,3,11,2,-10,7,26,50,32,19,4,-4
-7,3,10,3,-10,7,24,49,31,19,3,-4
-6,4,10,2,-9,7,23,48,30,18,3,-4
-5,4,9,1,-8,7,23,47,29,17,2,-4
-4,5,9,0,-7,7,22,46,28,16,2,-5
-3,5,8,0,-6,7,22,45,28,16,2,-5
-3,5,8,0,-6,6,21,44,27,15,2,-5
-3,5,8,0,-6,6,19,41,26,14,1,-5
-3,5,8,0,-5,6,17,39,24,13,1,-5
-2,5,7,-1,-4,6,16,37,23,12,1,-5
0,5,7,-2,-3,6,15,35,21,12,0,-5
0,5,6,-2,-3,6,14,34,20,11,0,-5
0,5,6,-2,-2,6,13,32,18,10,0,-4
1,5,5,-3,-2,6,11,30,17,9,0,-4
1,5,4,-3,-1,6,10,28,15,8,0,-4
2,6,4,-4,-1,6,8,26,14,7,-1,-4
2,6,4,-4,-1,6,7,23,12,5,-2,-4
3,7,4,-5,-1,6,5,21,10,4,-2,-4
3,8,4,-5,0,6,4,18,8,4,-3,-4
4,8,4,-5,0,6,3,16,7,3,-3,-4
3,7,4,-5,0,6,2,14,5,2,-4,-4
3,7,4,-5,0,6,2,12,4,0,-4,-4
3,8,4,-5,0,6,1,11,3,0,-5,-4
3,8,4,-5,0,6,1,9,2,-1,-5,-5
3,7,4,-5,0,5,0,7,0,-2,-6,-5
3,7,4,-4,0,4,-1,5,-1,-3,-6,-5
3,7,4,-4,0,4,-1,4,-2,-3,-7,-5
3,7,3,-4,0,4,-1,2,-2,-3,-7,-5
3,6,3,-4,0,4,-1,1,-3,-4,-7,-5
3,6,3,-4,0,4,-1,1,-3,-4,-7,-5
3,6,3,-4,0,4,-1,0,-4,-4,-7,-5
3,7,3,-4,0,5,-1,0,-4,-5,-7,-5
3,7,3,-5,0,5,-1,-1,-5,-5,-7,-5
4,8,4,-6,0,6,-1,-2,-5,-5,-7,-5
5,9,4,-7,0,6,-1,-2,-6,-6,-7,-5
6,10,4,-8,1,7,-1,-3,-6,-6,-7,-5
6,10,4,-8,1,7,-1,-3,-7,-6,-7,-5
4,8,4,-6,0,6,-2,-4,-7,-7,-8,-5
2,6,4,-4,-1,5,-2,-5,-8,-7,-9,-6
0,3,4,-2,-1,4,-3,-6,-8,-8,-9,-7
-1,2,3,-1,-2,3,-3,-6,-8,-8,-9,-8
-1,2,3,0,-2,3,-3,-6,-8,-7,-9,-8
-2,2,3,0,-2,2,-3,-7,-9,-7,-9,-8
-3,1,3,0,-3,2,-3,-7,-9,-8,-9,-8
-3,1,3,1,-4,2,-3,-8,-9,-8,-10,-8
-2,2,3,0,-4,2,-3,-8,-9,-8,-10,-8
0,4,4,-1,-3,4,-3,-7,-8,-8,-9,-7
1,6,4,-3,-2,5,-2,-7,-8,-7,-9,-7
2,7,5,-4,-2,6,-2,-6,-8,-7,-9,-6
2,7,5,-4,-2,6,-2,-6,-8,-7,-9,-6
1,7,5,-4,-2,6,-2,-7,-9,-7,-9,-6
1,7,5,-4,-3,6,-2,-7,-9,-7,-9,-6
1,6,5,-3,-3,5,-2,-7,-9,-7,-9,-6
0,5,5,-2,-3,5,-2,-7,-9,-8,-9,-6
0,4,5,-2,-3,5,-2,-7,-8,-8,-9,-6
0,4,5,-1,-3,4,-2,-7,-8,-8,-9,-7
-1,3,4,-1,-3,4,-2,-7,-9,-8,-9,-7
-1,3,4,-1,-3,4,-3,-7,-9,-8,-9,-7
0,4,4,-1,-3,4,-2,-7,-9,-8,-9,-7
0,4,4,-2,-3,5,-2,-7,-8,-8,-9,-7
0,4,4,-1,-3,5,-2,-7,-8,-8,-9,-7
0,4,4,-1,-3,4,-2,-7,-8,-8,-9,-7
0,4,4,-1,-3,4,-2,-7,-8,-8,-9,-7
0,4,4,-1,-3,4,-2,-7,-8,-7,-9,-7
0,5,4,-2,-3,4,-1,-6,-7,-7,-8,-6
0,5,4,-2,-3,4,-1,-6,-8,-7,-8,-6
-1,4,4,-1,-3,4,-2,-6,-8,-7,-8,-7
-1,4,4,-1,-3,4,-2,-6,-8,-7,-9,-7
-2,4,4,-1,-3,4,-2,-6,-8,-8,-9,-8
-2,4,5,0,-4,4,-2,-6,-8,-8,-9,-8
-3,3,5,0,-4,4,-2,-6,-8,-8,-9,-9
-3,3,5,0,-5,4,-2,-7,-8,-8,-9,-9
-3,3,6,0,-5,5,-3,-7,-8,-8,-9,-9
-3,3,6,0,-5,5,-3,-7,-8,-8,-9,-9
-3,3,7,0,-5,5,-3,-7,-8,-8,-10,-9
-3,3,7,0,-5,5,-2,-7,-8,-8,-10,-9
-3,4,7,0,-5,5,-2,-7,-8,-8,-10,-9
-2,4,7,-1,-4,5,-2,-6,-7,-8,-10,-9
-1,5,7,-1,-4,5,-2,-6,-7,-7,-10,-9
-1,5,7,-1,-4,5,-2,-6,-7,-7,-10,-9
-1,5,7,-1,-4,5,-1,-5,-7,-7,-9,-9
-1,5,6,-2,-4,6,0,-5,-6,-7,-9,-8
-1,6,6,-2,-4,6,0,-4,-6,-7,-9,-8
-1,5,6,-1,-4,5,0,-4,-6,-7,-9,-8
-2,4,6,0,-4,5,0,-5,-6,-7,-9,-8
-2,4,6,0,-4,4,0,-5,-6,-7,-9,-8
-2,4,6,0,-4,4,0,-5,-6,-7,-9,-8
-2,4,5,0,-4,4,0,-5,-6,-7,-9,-8
-1,4,5,0,-3,4,0,-5,-6,-7,-9,-9
-1,3,4,0,-3,3,0,-5,-6,-7,-9,-9
-2,2,4,1,-3,3,0,-4,-6,-7,-9,-9
-3,1,4,1,-3,2,0,-4,-6,-7,-9,-9
-3,1,3,1,-3,2,0,-4,-6,-7,-9,-9
-2,1,3,1,-3,2,0,-4,-6,-7,-9,-8
-2,1,3,1,-3,2,0,-4,-6,-7,-9,-8
-2,1,3,1,-3,2,0,-3,-6,-7,-9,-8
-2,1,4,1,-4,2,0,-3,-6,-7,-9,-7
-2,1,4,1,-4,2,0,-3,-6,-6,-8,-7
-2,2,4,0,-4,2,0,-3,-6,-6,-8,-7
-2,2,3,0,-4,2,0,-3,-6,-6,-8,-7
-2,1,3,1,-4,2,0,-3,-6,-7,-8,-7
-3,0,3,2,-4,2,0,-4,-6,-7,-8,-7
-4,0,3,3,-5,1,0,-4,-6,-7,-9,-8
-6,-2,3,5,-5,0,0,-4,-6,-8,-9,-9
-6,-3,3,6,-5,0,0,-4,-7,-8,-9,-9
-6,-4,2,5,-5,-1,0,-3,-7,-8,-9,-9
-5,-3,2,5,-4,-1,0,-3,-7,-8,-9,-9
-4,-3,1,4,-4,-1,0,-3,-6,-8,-9,-9
-2,-2,0,2,-2,-1,1,-3,-6,-7,-8,-8
-1,0,0,1,-1,0,1,-2,-5,-6,-7,-8
0,1,0,0,-1,1,1,-2,-4,-5,-6,-7
1,2,0,-1,0,1,1,-1,-4,-5,-6,-6
1,1,0,-1,0,1,1,-1,-4,-5,-6,-6
1,0,0,0,0,0,1,-1,-4,-5,-6,-6
0,0,0,0,0,0,1,-1,-5,-5,-7,-6
0,0,0,0,0,0,1,-1,-5,-5,-7,-6
0,0,0,0,0,-1,1,-1,-5,-6,-7,-6
0,-1,0,1,0,-1,1,-2,-5,-6,-7,-6
0,-1,-1,1,0,-1,1,-2,-5,-6,-6,-7
0,0,-1,0,0,-1,1,-1,-5,-5,-6,-7
0,0,-1,0,0,0,2,-1,-4,-5,-5,-6
0,0,-1,0,0,0,1,-1,-4,-5,-5,-6
0,0,-1,0,0,-1,0,-1,-4,-5,-5,-6
0,0,-1,0,0,-1,0,-1,-4,-5,-5,-6
0,0,-1,0,0,0,-1,-1,-4,-5,-5,-5
1,1,-1,-1,0,0,0,-1,-4,-5,-5,-5
2,2,0,-2,0,1,0,-1,-4,-4,-5,-4
3,3,0,-2,0,1,0,-1,-3,-4,-4,-4
3,3,0,-3,1,1,1,-1,-3,-4,-4,-4
3,3,0,-3,1,1,2,0,-2,-3,-4,-4
3,4,0,-3,1,2,3,1,-2,-3,-4,-4
3,4,0,-3,1,2,3,2,-1,-2,-4,-4
3,4,0,-4,1,2,4,2,-1,-1,-3,-4
4,4,0,-4,1,2,4,3,0,-1,-3,-4
4,5,1,-4,1,3,4,3,0,-1,-2,-3
4,5,1,-4,1,3,4,3,0,-1,-2,-3
5,6,1,-5,1,3,4,3,0,-1,-2,-2
5,6,1,-5,1,3,4,3,0,-1,-2,-2
5,6,1,-5,2,3,4,3,0,-1,-1,-2
5,6,0,-5,2,3,4,4,0,-1,-1,-2
6,6,0,-5,3,3,4,4,0,-1,-1,-2
6,6,0,-6,3,3,4,5,0,0,0,-2
6,6,-1,-6,3,3,4,6,1,0,0,-2
7,6,-1,-7,3,3,4,6,1,0,0,-2
7,7,0,-7,3,3,4,6,2,1,0,-2
7,7,0,-7,3,3,4,6,2,1,0,-1
8,8,0,-8,3,3,4,6,2,1,0,-1
9,10,0,-10,4,4,3,6,1,1,1,0
10,11,0,-10,5,5,2,5,1,1,1,0
10,11,-1,-11,5,5,0,4,1,1,1,0
11,11,-1,-11,6,5,0,3,0,1,1,0
11,11,-1,-10,6,5,-1,2,0,1,1,0
11,10,-1,-10,6,4,-2,1,-1,0,1,0
11,8,-2,-9,6,3,-3,1,-1,-1,0,0
10,7,-3,-8,7,2,-4,0,-2,-1,-1,-1
10,6,-3,-8,7,2,-4,0,-2,-2,-1,-1
9,6,-3,-8,6,2,-4,0,-2,-2,-2,-1
9,7,-3,-8,6,2,-4,0,-3,-2,-2,-1
9,8,-2,-8,6,3,-4,0,-3,-2,-2,-1
9,8,-2,-8,6,3,-4,-1,-4,-3,-2,-1
9,7,-3,-8,5,2,-5,-2,-5,-4,-3,-2
8,5,-3,-6,5,1,-5,-3,-6,-5,-4,-4
7,3,-3,-5,4,0,-6,-3,-7,-6,-4,-5
6,3,-3,-5,4,0,-6,-4,-7,-6,-4,-5
6,3,-2,-5,3,1,-7,-4,-6,-6,-4,-5
6,4,-2,-5,3,2,-7,-4,-6,-6,-4,-4
7,6,-2,-6,3,3,-6,-4,-6,-6,-4,-4
7,7,-2,-7,4,3,-5,-3,-6,-5,-3,-4
7,7,-2,-7,4,3,-5,-3,-6,-4,-3,-3
7,6,-1,-7,3,3,-5,-2,-5,-4,-3,-3
5,5,-1,-5,3,2,-4,-2,-5,-4,-3,-3
3,2,-1,-3,2,0,-4,-3,-6,-5,-4,-3
1,0,-1,0,1,0,-4,-3,-6,-6,-4,-4
0,-1,-1,1,0,-1,-4,-4,-7,-7,-5,-5
-1,-2,-1,2,0,-1,-5,-5,-8,-8,-6,-6
-2,-2,0,2,-1,-1,-5,-6,-8,-9,-7,-7
-2,-1,0,2,-1,0,-5,-6,-9,-9,-8,-7
-1,0,0,0,-1,0,-5,-6,-9,-9,-8,-8
0,1,0,0,-1,1,-5,-6,-8,-9,-8,-8
0,1,1,-1,-1,1,-5,-6,-8,-9,-8,-8
0,1,1,0,-1,2,-5,-6,-8,-9,-8,-8
-1,1,2,0,-2,2,-4,-6,-8,-9,-8,-8
-2,0,3,1,-2,1,-4,-6,-8,-9,-9,-8
-3,0,3,1,-3,1,-4,-6,-9,-10,-9,-9
-3,0,3,2,-3,1,-4,-6,-9,-10,-9,-9
-3,0,3,2,-3,1,-4,-6,-9,-10,-9,-9
-3,0,3,2,-3,1,-4,-6,-9,-10,-9,-9
-3,0,3,2,-4,2,-4,-6,-9,-10,-9,-9
-3,0,3,2,-4,2,-4,-6,-9,-10,-9,-9
-3,0,2,1,-4,2,-4,-6,-9,-9,-8,-9
-3,0,2,1,-4,2,-4,-6,-8,-9,-8,-9
-3,0,3,2,-4,2,-4,-6,-8,-9,-8,-9
-3,0,3,2,-4,2,-4,-6,-8,-9,-8,-9
-4,-1,3,2,-4,1,-4,-6,-8,-9,-8,-9
-4,-1,3,2,-4,1,-4,-6,-8,-10,-9,-9
-3,0,3,2,-4,2,-4,-6,-8,-10,-9,-9
-3,0,3,1,-4,2,-4,-6,-9,-10,-10,-10
-3,0,3,1,-4,2,-4,-6,-9,-11,-10,-10
-3,0,3,1,-4,2,-4,-6,-9,-11,-10,-11
-3,0,3,2,-4,2,-4,-6,-9,-11,-10,-11
-4,0,4,2,-4,2,-4,-6,-9,-11,-10,-11
-4,-1,4,3,-4,2,-3,-6,-9,-11,-10,-11
-4,-1,4,3,-4,2,-4,-6,-9,-11,-10,-11
-4,0,4,2,-4,2,-4,-6,-9,-11,-9,-10
-4,0,3,2,-4,1,-5,-6,-9,-10,-9,-10
-4,0,3,2,-4,1,-5,-6,-9,-10,-9,-9
-4,0,3,2,-4,1,-5,-6,-9,-10,-9,-9
-4,0,3,2,-4,1,-4,-6,-9,-10,-9,-9
-4,-1,3,3,-4,0,-4,-6,-9,-10,-9,-9
-4,-1,3,3,-4,0,-4,-6,-9,-10,-9,-10
-5,-2,3,3,-4,0,-4,-6,-9,-11,-10,-10
-5,-2,3,4,-5,0,-4,-6,-9,-11,-10,-11
-6,-3,3,4,-6,0,-4,-6,-8,-11,-10,-11
-6,-3,3,4,-6,0,-3,-6,-8,-11,-10,-11
-5,-2,3,3,-5,1,-1,-4,-7,-10,-9,-10
-3,0,3,2,-5,2,1,-1,-5,-9,-7,-9
-2,0,3,0,-4,2,3,2,-3,-8,-6,-9
-1,1,3,0,-4,3,6,5,-2,-7,-6,-8
0,2,3,-1,-3,3,7,8,0,-6,-5,-8
0,1,2,0,-2,2,8,10,2,-5,-5,-8
-1,0,1,0,-2,1,7,11,3,-4,-4,-8
-1,0,0,1,-1,1,5,9,3,-4,-4,-8
0,0,0,0,0,0,3,5,2,-4,-3,-7
3,1,-1,-2,1,1,-2,-2,0,-4,-2,-5
6,4,-2,-5,3,1,-11,-13,-3,-3,0,-3
11,8,-3,-10,6,2,-24,-28,-7,-2,3,0
16,11,-5,-14,10,3,-40,-44,-12,-2,6,4
22,15,-7,-19,14,3,-59,-63,-18,-1,11,8
30,20,-10,-25,19,5,-78,-80,-24,1,17,15
38,26,-12,-32,24,7,-96,-94,-26,7,27,24
47,32,-14,-40,30,9,-114,-104,-26,14,39,35
55,38,-16,-47,35,10,-131,-113,-26,22,51,47
63,43,-19,-53,40,11,-150,-125,-28,28,62,57
70,47,-22,-59,45,12,-168,-138,-33,31,71,67
76,52,-24,-64,49,13,-183,-150,-38,33,78,76
81,58,-22,-70,50,18,-193,-161,-41,36,86,84
84,66,-18,-75,50,24,-199,-168,-43,39,93,93
85,73,-12,-79,48,30,-200,-172,-45,42,99,101
85,79,-7,-82,46,35,-199,-174,-47,44,103,107
85,83,-3,-84,44,40,-197,-175,-49,44,104,112
83,84,1,-83,41,42,-192,-174,-52,41,103,113
78,80,3,-79,37,41,-185,-171,-55,35,97,109
69,73,4,-71,32,38,-174,-165,-58,27,85,99
57,65,8,-61,24,37,-161,-158,-62,15,68,84
43,57,13,-51,15,36,-146,-151,-67,0,48,66
31,52,19,-42,6,36,-130,-144,-72,-13,29,50
21,47,25,-34,-2,36,-115,-134,-73,-22,14,37
13,43,28,-28,-7,35,-102,-123,-72,-29,4,27
8,38,29,-23,-10,33,-92,-114,-71,-33,-4,18
5,33,28,-18,-12,30,-83,-105,-70,-37,-11,11
2,28,27,-15,-13,27,-75,-97,-69,-40,-16,5
0,23,25,-12,-13,24,-68,-89,-66,-42,-20,0
-2,19,22,-8,-13,21,-61,-82,-63,-44,-24,-4
-5,14,19,-5,-12,17,-55,-74,-59,-45,-26,-8
-7,10,16,-2,-12,13,-49,-67,-55,-45,-28,-11
-8,6,13,1,-11,9,-44,-60,-52,-44,-29,-13
-9,2,10,3,-10,6,-40,-54,-49,-42,-29,-14
-10,-1,8,6,-10,3,-35,-47,-45,-40,-29,-15
-10,-4,7,8,-9,0,-30,-41,-40,-37,-28,-15
-10,-6,5,8,-8,-1,-25,-34,-35,-34,-26,-15
-9,-6,4,8,-7,-1,-20,-27,-30,-30,-24,-15
-9,-7,3,8,-7,-1,-15,-21,-25,-27,-22,-15
-10,-7,2,8,-6,-2,-11,-15,-21,-25,-21,-15
-10,-8,2,8,-6,-3,-7,-11,-17,-22,-20,-15
-10,-8,1,9,-6,-3,-4,-7,-15,-20,-19,-15
-11,-9,1,9,-6,-4,-2,-3,-12,-19,-18,-15
-12,-10,2,10,-7,-4,0,0,-10,-16,-17,-15
-12,-11,2,11,-8,-4,3,3,-7,-14,-16,-15
-13,-11,2,11,-8,-4,5,6,-4,-12,-14,-15
-14,-11,2,12,-8,-4,7,9,-1,-10,-13,-15
-14,-11,2,12,-8,-4,9,12,2,-8,-11,-15
-14,-11,2,12,-8,-4,11,15,4,-7,-10,-15
-14,-11,3,12,-8,-4,12,17,5,-6,-9,-15
-14,-10,3,12,-9,-4,13,18,6,-5,-9,-14
-14,-9,4,12,-9,-3,14,19,7,-4,-8,-14
-13,-8,4,11,-9,-2,15,20,9,-2,-8,-13
-12,-7,4,10,-9,-2,16,21,10,-1,-7,-13
-12,-7,4,10,-9,-1,16,22,12,0,-6,-13
-11,-7,4,9,-9,-1,17,23,13,0,-6,-13
-11,-7,4,9,-9,-2,17,24,13,0,-6,-13
-12,-8,4,10,-9,-2,17,24,13,0,-6,-13
-12,-8,4,10,-8,-2,18,25,13,0,-6,-12
-12,-8,4,10,-8,-2,18,25,13,0,-6,-12
-12,-8,4,10,-8,-2,19,25,14,0,-6,-12
-12,-8,4,11,-9,-2,19,26,14,0,-6,-12
-13,-9,3,11,-9,-2,19,26,15,0,-6,-13
-14,-10,3,12,-9,-3,19,26,15,0,-6,-13
-15,-12,3,13,-10,-4,19,26,15,0,-6,-13
-16,-12,4,13,-10,-4,19,27,15,0,-6,-13
-15,-10,4,12,-10,-3,19,27,15,0,-5,-13
-13,-8,5,11,-9,-1,19,27,15,1,-5,-12
-12,-7,5,10,-9,0,19,27,16,2,-4,-12
-12,-6,5,9,-9,0,19,28,16,2,-4,-12
-12,-5,6,9,-10,0,19,28,17,2,-4,-12
-12,-5,6,8,-10,1,20,29,18,2,-4,-12
-12,-4,7,8,-10,1,20,30,19,3,-3,-12
-12,-4,7,8,-10,1,20,30,19,3,-3,-11
-12,-5,7,8,-10,1,20,30,19,3,-3,-12
-13,-6,7,9,-11,1,20,30,18,3,-4,-12
-14,-7,7,10,-11,0,20,30,18,3,-4,-13
-15,-7,8,11,-11,0,20,30,18,3,-4,-13
-15,-6,8,10,-11,1,20,31,18,3,-4,-13
-14,-5,8,10,-11,1,21,31,19,3,-4,-13
-13,-4,8,9,-11,2,21,32,19,3,-3,-12
-13,-3,8,8,-11,2,21,32,20,4,-3,-12
-12,-3,8,7,-11,3,21,33,20,4,-3,-12
-12,-3,9,7,-11,3,21,33,21,5,-3,-12
-13,-3,9,7,-11,3,21,33,21,5,-3,-12
-13,-3,9,8,-11,3,21,33,21,5,-3,-12
-14,-4,9,9,-12,3,21,33,21,5,-3,-12
-14,-4,9,9,-12,3,21,34,21,5,-3,-12
-13,-3,9,8,-12,3,22,35,22,5,-2,-12
-12,-1,10,6,-12,4,22,36,23,6,-2,-12
-11,0,10,5,-12,5,23,37,24,7,-2,-12
-11,0,11,5,-12,6,24,38,25,7,-1,-12
-11,0,11,6,-12,6,24,39,25,7,-1,-12
-12,0,11,6,-12,5,24,39,25,7,-1,-12
-13,-1,11,7,-12,5,24,39,25,7,-1,-12
-13,-1,11,7,-13,5,24,40,26,7,-1,-12
-14,-2,11,8,-13,5,24,40,26,7,-1,-13
-16,-4,11,10,-14,4,23,40,26,7,-2,-13
-17,-5,11,11,-15,3,23,40,26,7,-2,-13
-17,-4,11,11,-15,4,24,41,27,8,-1,-13
-16,-2,12,9,-15,5,24,43,28,9,-1,-12
-14,0,12,7,-14,6,25,44,29,10,0,-12
-13,1,13,6,-14,7,26,45,30,10,0,-12
-12,2,13,5,-13,7,27,46,31,11,1,-12
-12,2,13,5,-13,7,27,47,31,11,1,-11
-12,2,13,5,-13,7,28,48,32,12,1,-11
-12,1,13,6,-13,7,28,49,32,12,1,-11
-13,0,13,7,-14,6,28,49,33,12,1,-11
-14,0,14,7,-14,6,28,50,33,12,1,-12
-14,0,14,7,-14,6,29,51,34,12,1,-12
-14,0,14,7,-14,6,29,52,34,13,1,-12
-13,0,13,6,-14,7,29,52,35,13,1,-11
-13,1,13,6,-14,7,29,53,35,13,1,-11
-12,1,13,6,-13,7,29,54,36,14,2,-11
-12,2,13,5,-13,7,29,55,36,14,2,-11
-12,2,13,5,-13,7,29,55,37,15,3,-11
-12,1,13,5,-13,7,29,56,37,15,3,-11
-11,2,13,5,-12,7,29,56,37,15,3,-10
-10,3,13,4,-12,8,29,57,38,15,3,-10
-10,3,13,4,-12,8,30,58,38,15,3,-10
-10,3,13,4,-12,8,30,58,38,15,3,-10
-11,3,13,4,-12,8,29,58,38,15,3,-10
-11,3,13,4,-12,8,29,58,38,15,3,-10
-10,3,13,4,-12,8,28,58,38,15,3,-10
-10,3,13,4,-12,8,28,57,38,15,3,-10
-9,3,13,3,-12,8,27,57,38,15,3,-9
-8,4,13,2,-11,8,27,56,38,15,3,-9
-8,4,12,1,-10,8,26,55,37,15,4,-8
-8,4,12,2,-10,7,25,54,36,15,4,-8
-9,2,11,3,-10,6,24,53,35,14,3,-9
-10,1,10,4,-10,6,23,52,34,13,3,-9
-10,0,10,4,-10,5,22,51,33,12,3,-8
-9,1,10,4,-9,6,21,50,33,12,3,-8
-7,2,9,2,-8,6,21,49,32,12,3,-8
-5,3,9,1,-7,6,20,48,32,12,3,-7
-4,3,8,0,-6,6,19,47,31,11,2,-7
-3,4,8,0,-6,7,18,45,30,11,2,-7
-1,6,8,-2,-5,8,17,44,30,11,2,-6
0,8,8,-4,-4,9,17,43,29,11,3,-6
1,9,8,-5,-4,9,16,42,27,10,2,-6
1,9,8,-5,-4,9,14,40,26,8,1,-6
1,9,8,-4,-4,8,12,37,24,7,0,-7
1,8,8,-4,-4,8,11,35,22,6,0,-7
1,8,7,-4,-4,8,9,32,20,5,0,-7
1,8,7,-4,-4,8,8,30,18,4,0,-7
0,7,7,-3,-4,7,6,27,16,3,-1,-7
0,7,7,-3,-4,7,5,25,14,2,-1,-8
0,7,6,-3,-3,7,4,23,12,1,-2,-7
1,8,6,-4,-3,7,3,22,10,0,-2,-7
2,8,5,-4,-2,7,2,20,8,-1,-3,-7
3,8,5,-4,-2,7,1,17,7,-2,-3,-7
3,8,5,-4,-2,7,0,15,5,-3,-4,-7
3,8,5,-5,-2,7,-1,12,3,-4,-4,-8
3,8,5,-5,-2,7,-2,10,1,-5,-5,-8
2,7,5,-5,-2,6,-3,8,0,-6,-6,-8
3,8,5,-5,-1,6,-3,7,-1,-7,-6,-7
4,9,5,-7,-1,7,-3,6,-2,-7,-6,-6
6,11,5,-8,0,7,-3,5,-2,-7,-6,-5
7,12,5,-9,0,7,-4,4,-2,-7,-5,-5
7,11,4,-9,0,7,-4,3,-3,-7,-5,-4
6,10,4,-8,0,6,-4,1,-4,-8,-6,-4
6,9,3,-7,1,6,-4,0,-4,-8,-6,-5
6,9,3,-7,1,6,-4,0,-5,-9,-6,-5
5,8,3,-6,1,5,-4,-1,-6,-9,-7,-6
4,6,3,-5,0,4,-5,-2,-7,-10,-7,-6
3,5,3,-4,0,4,-5,-3,-7,-10,-8,-7
2,4,2,-3,0,3,-5,-3,-8,-10,-8,-7
2,4,2,-3,0,3,-5,-3,-8,-10,-8,-7
2,3,2,-3,0,3,-5,-4,-8,-10,-8,-7
2,3,2,-3,0,3,-5,-4,-8,-10,-8,-7
1,3,2,-2,0,3,-4,-5,-9,-10,-8,-7
0,2,2,-2,-1,3,-4,-5,-9,-10,-8,-7
0,2,2,-1,-1,3,-4,-5,-10,-10,-8,-7
0,2,2,-1,-1,3,-4,-5,-10,-10,-8,-7
0,2,2,-1,-1,3,-4,-5,-11,-10,-8,-7
0,2,2,-1,-1,3,-4,-6,-11,-10,-8,-7
0,2,2,-1,-1,3,-4,-6,-11,-10,-8,-7
0,2,3,-1,-2,3,-4,-6,-11,-10,-8,-7
0,3,3,-1,-2,3,-4,-6,-11,-10,-8,-7
0,3,3,-1,-2,3,-4,-6,-11,-10,-8,-7
0,3,3,-1,-2,3,-4,-6,-11,-10,-8,-7
0,3,3,-1,-2,3,-5,-7,-11,-10,-8,-7
0,3,3,-1,-2,3,-5,-7,-12,-10,-8,-7
0,3,4,-1,-2,3,-5,-7,-12,-10,-8,-7
-1,3,4,-1,-2,3,-5,-7,-12,-10,-8,-7
-1,2,4,0,-2,3,-5,-7,-12,-10,-8,-7
-2,2,4,0,-2,3,-5,-7,-12,-10,-8,-7
-2,1,4,0,-3,3,-5,-8,-12,-10,-8,-8
-3,1,4,1,-3,3,-5,-8,-13,-10,-9,-8
-4,1,4,1,-4,3,-5,-8,-13,-10,-9,-8
-4,1,4,1,-4,3,-5,-8,-13,-10,-9,-8
-4,1,4,1,-4,3,-5,-8,-13,-11,-9,-8
-4,1,4,1,-5,3,-5,-8,-14,-11,-9,-9
-4,1,5,1,-5,3,-6,-8,-14,-11,-9,-9
-3,1,5,1,-4,4,-6,-8,-14,-11,-9,-9
-2,2,5,0,-4,4,-6,-8,-14,-11,-9,-9
-1,3,5,0,-4,5,-5,-8,-13,-11,-9,-9
0,5,6,-2,-4,6,-4,-7,-13,-10,-8,-8
0,6,6,-3,-3,6,-3,-7,-12,-10,-8,-8
1,7,6,-4,-3,7,-3,-6,-12,-9,-8,-8
1,8,7,-4,-3,7,-3,-6,-12,-9,-8,-8
0,7,7,-3,-4,7,-3,-7,-13,-10,-8,-8
-1,6,8,-2,-4,7,-4,-7,-13,-10,-9,-9
-1,6,8,-2,-5,7,-5,-7,-13,-10,-9,-9
-2,6,8,-1,-5,7,-5,-7,-13,-10,-9,-9
-2,5,8,-1,-5,7,-5,-7,-13,-10,-9,-9
-2,5,8,-1,-5,7,-5,-7,-13,-10,-9,-9
-2,5,8,-1,-5,7,-4,-7,-14,-10,-9,-9
-2,4,8,0,-5,6,-4,-7,-14,-10,-9,-9
-2,4,7,0,-5,6,-3,-6,-14,-10,-9,-8
-2,4,7,0,-5,5,-3,-6,-13,-9,-8,-8
-2,3,6,0,-4,5,-3,-5,-13,-9,-8,-8
-2,2,5,1,-4,4,-3,-5,-13,-9,-8,-8
-3,1,5,2,-4,3,-3,-6,-13,-9,-8,-8
-4,0,4,2,-4,2,-3,-6,-13,-9,-8,-9
-3,0,4,2,-4,1,-3,-6,-13,-9,-8,-9
-3,0,3,1,-4,1,-2,-5,-13,-9,-8,-9
-3,0,3,2,-4,1,-2,-5,-13,-9,-8,-8
-3,0,2,2,-4,1,-1,-4,-13,-9,-8,-8
-3,0,2,2,-3,1,-1,-4,-12,-9,-8,-7
-2,0,1,2,-2,0,0,-3,-12,-8,-7,-7
-2,-1,1,2,-2,0,0,-3,-11,-8,-7,-6
-2,-2,0,2,-1,-1,0,-3,-11,-7,-6,-6
-3,-4,0,3,-1,-2,0,-3,-11,-7,-6,-6
-3,-6,-1,4,-1,-4,1,-3,-11,-7,-6,-6
-3,-7,-2,5,-1,-5,1,-2,-11,-7,-6,-6
-3,-7,-3,5,0,-5,2,-2,-10,-7,-5,-6
-3,-7,-4,6,0,-6,2,-1,-10,-7,-5,-6
-4,-8,-4,7,0,-6,2,-1,-10,-6,-5,-6
-4,-8,-5,7,0,-7,2,0,-10,-6,-5,-6
-3,-9,-6,7,0,-8,2,0,-9,-6,-5,-6
-3,-10,-7,7,1,-9,2,0,-9,-5,-4,-5
-3,-11,-8,7,1,-10,3,0,-9,-5,-4,-5
-2,-11,-9,7,2,-10,3,0,-8,-5,-4,-5
-2,-12,-9,7,2,-11,3,0,-8,-5,-3,-4
-2,-11,-9,6,2,-11,3,1,-8,-5,-3,-4
-1,-10,-9,6,3,-10,4,1,-8,-5,-3,-4
-1,-10,-9,6,3,-9,4,1,-8,-4,-3,-4
-1,-9,-9,6,3,-9,4,1,-8,-4,-3,-4
-1,-9,-9,6,3,-9,4,1,-8,-4,-3,-4
-1,-10,-9,6,3,-9,4,1,-8,-4,-3,-4
-1,-9,-9,6,3,-9,4,0,-8,-5,-3,-4
-1,-9,-9,6,3,-9,3,0,-8,-5,-3,-4
-1,-9,-9,6,3,-9,3,0,-8,-5,-3,-4
-2,-10,-9,6,3,-10,3,0,-8,-5,-3,-4
-2,-11,-9,7,2,-10,2,0,-9,-5,-4,-4
-2,-11,-9,7,2,-10,2,0,-9,-5,-4,-4
-1,-10,-9,6,2,-9,2,0,-8,-5,-3,-4
-1,-10,-9,6,2,-9,2,0,-8,-5,-3,-4
-2,-11,-9,7,2,-10,2,0,-8,-6,-4,-4
-3,-12,-9,8,2,-10,2,0,-9,-6,-4,-4
-3,-12,-9,8,2,-11,2,0,-9,-6,-4,-4
-4,-13,-9,9,2,-11,2,0,-9,-6,-4,-4
-4,-14,-9,9,2,-12,2,0,-9,-5,-4,-4
-2,-14,-10,8,2,-12,2,0,-8,-4,-3,-3
-1,-12,-10,7,3,-11,3,1,-7,-3,-2,-2
0,-11,-10,6,3,-11,4,1,-7,-3,-1,-2
0,-10,-10,6,3,-11,5,2,-6,-3,-1,-2
0,-10,-10,5,4,-11,5,2,-6,-3,-1,-2
1,-9,-10,5,5,-10,5,2,-6,-2,-1,-1
2,-9,-10,4,5,-10,5,3,-5,-2,-1,-1
2,-8,-10,4,6,-9,5,3,-5,-1,0,0
3,-8,-11,3,6,-9,6,4,-4,-1,0,0
3,-8,-11,3,6,-10,6,4,-4,0,0,0
3,-9,-11,4,6,-10,6,4,-4,0,1,1
2,-10,-11,5,6,-11,6,5,-4,0,1,1
1,-11,-11,5,5,-11,7,5,-3,0,1,1
2,-10,-11,4,5,-10,8,6,-3,1,2,2
4,-6,-10,1,6,-8,9,7,-2,2,3,2
5,-3,-9,0,6,-6,9,7,-1,2,3,3
6,-2,-8,-1,6,-5,9,7,-1,2,3,3
6,-1,-8,-1,6,-5,9,7,-1,2,3,3
6,-1,-7,-1,5,-4,9,7,-1,2,3,3
6,-1,-7,-1,5,-4,8,7,-1,2,3,3
6,-1,-7,-2,5,-4,8,7,-1,2,3,2
6,0,-7,-3,6,-4,7,8,-1,2,3,2
7,0,-6,-3,6,-3,7,8,-1,2,3,2
7,1,-6,-3,5,-3,7,8,-1,2,3,2
7,2,-5,-4,5,-2,7,8,-1,3,3,3
9,4,-5,-6,6,0,7,8,0,3,4,3
10,6,-4,-7,6,0,7,8,0,3,4,4
11,7,-4,-8,7,1,6,7,0,3,5,4
12,7,-4,-9,7,1,5,7,0,3,5,4
11,6,-5,-8,7,0,4,6,-1,3,5,4
11,5,-6,-7,7,-1,3,5,-1,2,4,4
10,4,-6,-7,7,-1,2,5,-2,2,4,4
10,4,-7,-7,7,-2,1,4,-3,2,4,4
10,3,-7,-6,7,-2,0,3,-3,1,4,3
9,2,-8,-5,7,-3,0,3,-4,1,3,3
9,1,-8,-5,8,-3,0,2,-4,1,3,2
10,1,-8,-5,8,-3,0,2,-4,1,3,2
10,0,-9,-4,9,-4,1,2,-4,1,3,3
10,-2,-11,-3,10,-6,1,2,-4,1,3,4
10,-6,-15,-1,11,-10,2,3,-4,1,3,5
10,-11,-20,1,14,-15,3,3,-3,2,4,6
10,-16,-25,3,16,-20,4,4,-3,2,4,7
9,-20,-29,5,18,-24,5,5,-2,3,5,8
8,-24,-33,7,19,-28,6,6,-1,4,7,9
8,-28,-35,10,20,-31,7,7,0,6,8,10
7,-30,-36,11,21,-33,8,8,1,7,9,11
7,-32,-38,13,21,-35,9,8,2,7,10,11
6,-34,-39,14,22,-37,10,9,2,8,10,12
6,-35,-41,15,23,-38,11,9,3,8,11,12
5,-37,-42,16,23,-39,11,10,3,9,11,13
4,-38,-43,17,23,-40,12,10,3,9,11,13
3,-40,-43,19,23,-41,12,10,3,9,11,13
2,-41,-44,20,23,-42,13,10,3,9,11,12
1,-43,-44,21,22,-43,13,10,3,9,11,12
0,-44,-44,23,22,-44,14,10,3,8,10,11
-1,-46,-44,24,21,-45,14,9,2,8,9,10
-2,-46,-44,24,21,-45,14,9,2,7,9,9
-3,-47,-44,25,20,-45,14,9,2,7,8,9
-4,-46,-43,25,19,-45,14,9,2,7,8,9
-4,-45,-42,25,18,-44,14,8,1,6,7,8
-5,-45,-41,25,17,-43,13,7,1,6,7,8
-6,-45,-39,26,16,-42,12,6,0,5,6,7
-5,-43,-37,25,15,-40,12,6,0,4,6,7
-4,-40,-35,23,15,-37,12,6,0,4,6,6
-3,-37,-34,21,14,-35,12,6,0,4,6,6
-3,-36,-33,20,14,-34,12,6,0,4,5,6
-3,-35,-32,19,13,-33,12,5,-1,3,5,5
-4,-34,-31,20,12,-33,12,5,-1,3,4,5
-5,-34,-30,20,12,-32,11,5,-1,3,4,4
-5,-34,-29,20,11,-32,11,5,-1,3,3,4
-4,-33,-28,19,11,-31,10,5,-1,2,3,4
-4,-31,-26,18,10,-29,10,4,-2,2,3,4
-4,-30,-25,18,10,-28,9,4,-2,1,2,3
-5,-30,-25,18,9,-28,8,3,-3,0,2,2
-5,-29,-24,17,8,-27,8,3,-3,0,1,2
-5,-27,-24,16,8,-26,8,3,-3,0,1,2
-4,-26,-23,15,8,-25,8,3,-3,0,1,1
-5,-26,-23,16,8,-25,8,3,-3,0,1,1
-6,-27,-22,17,7,-25,8,2,-3,0,1,1
-6,-28,-21,17,7,-25,8,2,-3,-1,0,0
-6,-27,-21,16,7,-24,8,2,-3,-1,0,0
-5,-26,-21,16,7,-23,8,2,-3,-1,0,0
-5,-25,-21,15,6,-23,8,2,-3,-1,0,0
-5,-25,-21,15,6,-23,8,2,-3,-1,0,0
-4,-24,-20,14,6,-22,8,2,-3,-1,0,0
-4,-24,-20,14,6,-22,8,2,-3,-1,0,0
-3,-23,-20,13,7,-21,8,2,-3,0,0,0
-3,-23,-20,13,7,-21,8,2,-3,0,0,0
-3,-23,-19,13,7,-21,8,2,-3,0,0,0
-4,-24,-19,14,7,-21,8,2,-3,0,0,0
-5,-24,-19,14,6,-21,8,2,-3,-1,0,0
-6,-25,-19,15,6,-22,8,2,-4,-1,0,0
-7,-26,-20,16,6,-23,9,2,-4,-1,0,0
-7,-27,-20,17,6,-23,10,3,-3,-1,0,0
-6,-26,-20,16,6,-23,12,5,-2,0,1,0
-5,-25,-20,15,6,-22,15,7,0,2,1,1
-4,-23,-20,14,6,-21,18,10,1,3,2,1
-3,-23,-20,13,7,-21,20,13,3,4,3,2
-2,-22,-21,12,8,-22,21,16,5,5,3,3
0,-22,-22,12,10,-22,21,18,7,6,4,3
0,-22,-23,11,11,-22,20,18,8,7,5,4
1,-22,-24,11,12,-23,19,15,8,7,6,4
2,-22,-24,10,13,-23,16,9,7,7,6,5
4,-22,-26,10,14,-24,9,0,4,7,7,6
6,-22,-27,9,15,-24,-3,-12,1,7,9,8
9,-21,-30,7,18,-25,-18,-27,-4,7,11,11
13,-20,-33,4,22,-26,-35,-44,-10,7,14,14
19,-17,-36,0,27,-26,-54,-62,-16,7,18,18
26,-13,-39,-6,32,-26,-73,-79,-22,9,25,25
34,-8,-42,-13,38,-25,-90,-91,-24,15,34,34
44,-1,-45,-21,44,-24,-107,-99,-23,23,47,45
55,6,-49,-30,51,-22,-124,-108,-22,31,60,57
65,12,-53,-38,58,-21,-142,-118,-23,38,71,68
74,16,-57,-45,64,-20,-158,-129,-26,42,81,78
80,20,-60,-50,69,-19,-172,-140,-30,45,89,88
83,25,-59,-54,70,-16,-180,-148,-32,49,96,97
85,30,-55,-57,69,-12,-184,-154,-33,52,103,105
85,35,-51,-59,67,-8,-184,-157,-34,55,109,112
86,40,-47,-62,66,-4,-182,-157,-35,56,114,118
87,44,-43,-65,64,0,-177,-156,-36,57,116,123
86,46,-41,-66,62,2,-170,-154,-38,55,116,125
82,43,-39,-63,59,2,-163,-150,-40,50,110,122
74,37,-37,-56,54,0,-152,-145,-43,42,98,112
63,31,-33,-47,46,0,-139,-139,-48,29,82,98
50,25,-26,-37,37,0,-125,-133,-54,14,61,80
37,19,-19,-28,27,0,-111,-128,-60,0,41,63
26,14,-12,-19,18,0,-97,-120,-63,-10,25,50
16,9,-8,-12,11,0,-84,-111,-63,-17,14,39
10,4,-6,-6,7,-1,-74,-102,-63,-22,6,30
5,0,-5,-2,4,-3,-66,-94,-62,-26,-1,23
1,-4,-5,2,2,-4,-59,-87,-61,-29,-7,16
-2,-8,-5,5,1,-6,-52,-80,-59,-31,-11,11
-4,-11,-6,8,0,-8,-46,-73,-56,-32,-14,7
-6,-14,-7,10,0,-10,-40,-65,-53,-32,-16,3
-7,-16,-8,12,0,-12,-34,-57,-49,-32,-17,0
-9,-19,-9,14,-1,-14,-29,-51,-45,-31,-18,-2
-11,-21,-10,16,-1,-16,-25,-45,-42,-30,-19,-4
-11,-22,-11,17,-1,-17,-20,-39,-38,-28,-19,-5
-11,-23,-12,17,-1,-17,-16,-33,-34,-25,-18,-6
-10,-22,-12,16,0,-16,-11,-26,-29,-21,-17,-6
-9,-20,-11,15,0,-15,-6,-20,-24,-18,-16,-6
-9,-19,-11,15,0,-15,-2,-14,-20,-16,-14,-7
-9,-19,-10,15,0,-15,1,-10,-16,-14,-13,-7
-10,-20,-10,15,-1,-15,5,-6,-13,-12,-12,-8
-11,-22,-11,16,-1,-17,8,-2,-11,-11,-11,-8
-11,-24,-11,17,-1,-18,11,1,-9,-9,-10,-8
-12,-25,-12,18,-1,-18,13,5,-6,-7,-9,-8
-12,-26,-12,19,-1,-19,16,8,-3,-5,-8,-8
-13,-26,-13,20,-1,-19,18,11,0,-2,-7,-7
-13,-27,-14,20,0,-20,21,15,3,0,-5,-7
-14,-27,-14,21,0,-21,23,18,6,2,-3,-6
-14,-28,-15,21,0,-22,25,21,9,4,-2,-5
-14,-28,-15,21,0,-22,26,23,10,5,0,-4
-14,-29,-16,22,0,-22,27,24,11,5,0,-3
-14,-29,-16,22,0,-22,28,25,12,6,0,-3
-15,-30,-16,23,0,-23,29,25,13,7,0,-3
-15,-31,-16,23,0,-23,29,26,14,8,0,-3
-15,-31,-16,23,0,-23,30,28,15,9,1,-3
-14,-30,-17,23,0,-24,31,29,17,10,1,-3
-14,-30,-17,23,0,-24,32,30,18,10,2,-2
-14,-31,-17,23,0,-24,32,31,18,10,2,-2
-14,-31,-18,22,1,-24,32,31,18,11,2,-2
-13,-30,-18,22,1,-24,33,32,18,11,3,-2
-13,-30,-18,22,1,-24,33,32,18,12,3,-2
-14,-31,-18,22,1,-24,33,32,19,12,3,-2
-14,-31,-18,23,1,-25,34,33,19,13,3,-2
-14,-32,-18,23,1,-25,34,33,20,13,3,-2
-14,-31,-18,23,1,-25,34,34,20,13,4,-2
-14,-31,-18,23,1,-25,34,34,20,13,4,-1
-14,-31,-18,23,1,-25,34,35,20,13,4,-1
-15,-32,-18,24,0,-25,34,35,20,13,4,-1
-15,-32,-17,24,0,-25,34,35,21,13,4,-1
-16,-32,-17,24,0,-25,34,35,21,14,4,-1
-16,-32,-17,24,-1,-24,34,35,22,14,4,-1
-16,-32,-16,24,-1,-24,34,35,22,14,4,-1
-16,-31,-16,24,-1,-24,35,36,23,14,4,-1
-15,-30,-16,23,-1,-23,35,36,23,14,4,-1
-15,-30,-15,23,-1,-22,35,37,23,14,4,-1
-15,-29,-14,22,-1,-21,35,37,23,14,4,-1
-15,-28,-14,21,-1,-21,35,38,23,14,5,-1
-14,-27,-13,20,-1,-20,36,38,24,15,5,-1
-13,-26,-13,20,-1,-19,36,38,24,15,5,-1
-13,-25,-12,19,-1,-19,37,39,24,15,5,-1
-14,-25,-11,19,-2,-18,37,39,24,15,5,-1
-15,-26,-11,21,-3,-18,36,39,24,15,4,-2
-18,-28,-10,23,-4,-19,36,39,23,14,4,-3
-20,-29,-10,25,-5,-19,36,39,23,14,3,-3
-21,-30,-10,26,-6,-20,36,39,23,14,3,-3
-21,-29,-9,26,-6,-20,35,39,23,14,3,-3
-20,-28,-9,24,-6,-19,36,39,24,14,3,-3
-18,-25,-8,22,-6,-17,36,40,25,15,4,-3
-17,-23,-7,20,-6,-15,37,41,26,15,4,-2
-16,-21,-6,19,-6,-14,37,42,27,16,4,-2
-15,-20,-6,18,-5,-13,38,43,27,16,5,-2
-15,-20,-6,17,-5,-12,38,44,28,17,5,-2
-15,-19,-6,17,-5,-12,38,44,28,17,5,-2
-15,-19,-6,17,-5,-12,38,45,29,18,5,-2
-15,-19,-5,17,-5,-12,38,45,29,18,5,-2
-15,-19,-5,17,-6,-12,38,46,30,18,5,-2
-15,-19,-4,17,-6,-12,38,46,30,18,5,-2
-15,-18,-4,17,-7,-11,38,47,31,18,5,-2
-15,-18,-3,16,-7,-11,39,48,31,18,6,-2
-15,-17,-3,16,-7,-10,39,49,32,19,6,-2
-15,-17,-2,16,-7,-10,40,50,32,19,6,-2
-14,-16,-1,15,-7,-9,40,51,33,20,6,-2
-14,-15,-1,14,-7,-8,41,51,33,20,6,-2
-15,-15,0,15,-8,-8,41,52,33,20,6,-2
-16,-16,0,16,-9,-8,40,52,33,20,6,-3
-18,-18,0,18,-10,-9,40,52,33,19,6,-3
-20,-19,0,20,-11,-9,40,53,33,19,5,-4
-21,-20,0,20,-11,-9,40,54,34,19,5,-5
-20,-18,1,19,-11,-8,41,55,35,19,6,-5
-18,-16,1,17,-11,-7,41,56,35,20,6,-5
-16,-14,2,15,-10,-6,42,57,36,20,6,-4
-14,-10,2,12,-9,-4,42,59,37,22,7,-4
-12,-8,3,10,-9,-2,43,60,38,23,8,-3
-12,-9,3,11,-9,-3,43,60,39,23,8,-4
-14,-11,3,13,-10,-3,43,61,39,23,8,-4
-16,-12,3,14,-10,-4,43,61,39,23,8,-4
-16,-12,4,14,-10,-4,43,62,39,23,8,-4
-15,-11,4,13,-10,-3,43,62,39,23,8,-4
-15,-10,4,12,-10,-3,43,62,39,23,8,-4
-15,-10,4,12,-11,-3,42,62,39,23,7,-4
-15,-10,4,12,-11,-3,42,62,39,23,7,-4
-14,-9,5,11,-10,-2,41,62,39,23,7,-4
-13,-8,5,10,-10,-1,41,62,39,23,8,-3
-12,-6,5,9,-9,0,41,62,39,24,8,-3
-12,-5,5,9,-9,0,41,62,39,24,8,-3
-11,-5,5,8,-9,0,40,62,39,23,8,-3
-11,-4,6,8,-9,0,39,61,38,23,8,-3
-11,-4,6,8,-9,0,38,61,37,22,8,-3
-10,-4,6,8,-9,0,37,60,37,22,8,-3
-10,-4,5,8,-9,0,37,59,36,22,8,-3
-10,-4,5,8,-8,0,36,58,36,21,8,-3
-9,-4,4,7,-8,0,35,57,35,21,7,-3
-9,-4,4,7,-7,0,35,56,34,20,7,-3
-8,-4,3,7,-7,0,34,55,33,20,7,-3
-8,-4,3,6,-6,0,33,54,32,19,7,-3
-8,-4,3,6,-6,0,32,52,31,18,7,-3
-7,-4,3,6,-6,-1,31,51,30,18,7,-3
-7,-5,2,6,-5,-1,29,49,29,17,7,-3
-7,-5,1,6,-5,-2,28,48,28,16,7,-2
-6,-5,1,6,-4,-2,28,46,27,16,6,-2
-5,-4,0,4,-3,-1,27,45,27,15,6,-2
-4,-3,0,4,-3,-1,26,44,26,15,6,-2
-4,-3,0,4,-3,-1,25,42,24,14,6,-2
-3,-3,0,3,-2,-1,23,39,22,12,5,-2
-3,-3,0,3,-2,-1,21,37,20,11,5,-2
-2,-3,0,2,-2,-1,19,34,19,10,4,-2
-2,-3,0,2,-1,-2,17,31,17,9,4,-2
-2,-3,0,2,-1,-2,16,29,16,8,3,-2
-2,-3,-1,2,-1,-2,15,27,15,7,3,-2
0,-2,-1,1,0,-2,14,25,14,7,3,-2
1,0,-2,-1,1,-1,13,24,12,6,3,-1
3,1,-2,-2,2,0,13,22,11,6,3,-1
4,2,-2,-3,3,0,12,20,9,5,3,-1
4,2,-2,-4,3,0,11,18,8,4,2,-1
4,2,-2,-4,3,0,10,15,6,3,2,-1
4,2,-2,-4,3,0,9,13,5,2,1,-1
4,2,-2,-4,3,0,9,11,4,1,0,-1
4,2,-2,-3,3,0,8,9,3,0,0,-2
4,2,-2,-3,3,0,8,8,2,-1,-1,-2
3,1,-2,-2,2,-1,7,6,0,-2,-2,-2
2,-1,-3,0,2,-2,6,4,-1,-3,-2,-3
1,-2,-3,0,1,-2,5,3,-2,-3,-3,-3
0,-3,-3,1,1,-3,4,1,-3,-4,-3,-3
0,-3,-3,1,1,-3,4,1,-4,-4,-3,-3
0,-3,-3,1,1,-3,4,0,-4,-4,-3,-3
0,-3,-3,1,1,-3,4,0,-4,-4,-3,-3
0,-3,-3,1,1,-3,4,0,-5,-4,-4,-3
0,-2,-3,1,1,-3,4,-1,-5,-4,-4,-3
0,-2,-3,1,0,-3,4,-2,-6,-5,-4,-3
0,-2,-3,1,0,-2,4,-3,-6,-5,-4,-3
1,-1,-2,0,0,-1,4,-3,-7,-5,-4,-3
1,0,-2,0,0,0,5,-4,-7,-5,-4,-3
1,0,-2,-1,0,0,5,-4,-7,-5,-4,-3
1,0,-2,0,0,0,5,-4,-7,-5,-4,-3
0,0,-1,0,0,0,5,-4,-7,-5,-4,-3
0,0,-1,0,0,0,5,-4,-7,-5,-4,-3
0,-1,-1,0,0,0,4,-5,-7,-5,-4,-3
0,-1,-1,0,0,0,4,-5,-7,-5,-4,-3
0,-1,-1,0,0,-1,4,-6,-7,-5,-4,-3
-1,-2,-1,1,0,-1,4,-6,-8,-5,-4,-3
-1,-2,-1,1,0,-1,4,-6,-8,-6,-4,-3
-1,-2,-1,1,0,-1,4,-6,-8,-6,-4,-3
-1,-2,-1,2,-1,-1,4,-6,-8,-6,-4,-3
-2,-3,-1,2,-1,-1,4,-6,-8,-6,-4,-3
-1,-2,-1,2,0,-1,5,-6,-7,-5,-4,-3
-1,-2,-1,1,0,-1,5,-6,-7,-5,-4,-3
0,-2,-1,1,0,-1,5,-6,-7,-6,-4,-3
0,-2,-1,1,0,-1,5,-6,-7,-6,-4,-3
0,-2,-1,1,0,-1,5,-6,-7,-6,-4,-3
-1,-2,-1,1,0,-1,5,-5,-7,-5,-4,-3
-1,-3,-1,2,0,-1,5,-5,-6,-5,-4,-3
-1,-2,-1,2,0,-1,5,-5,-6,-5,-4,-3
-1,-2,-1,1,0,-1,6,-5,-6,-5,-4,-3
-1,-2,-1,1,0,-1,6,-5,-6,-5,-4,-3
-1,-2,-1,1,0,-2,6,-5,-6,-5,-4,-2
0,-2,-1,1,0,-2,6,-5,-6,-4,-4,-2
0,-1,-1,0,0,-1,7,-4,-5,-4,-3,-1
1,-1,-2,0,1,-1,7,-4,-5,-3,-2,-1
0,-2,-2,0,1,-2,7,-3,-5,-3,-2,-1
-1,-4,-2,2,0,-3,7,-3,-5,-4,-3,-1
-2,-5,-3,3,0,-3,7,-4,-5,-4,-3,-2
-3,-6,-3,4,0,-4,7,-4,-5,-4,-3,-2
-3,-7,-4,5,0,-5,7,-4,-5,-4,-3,-3
-3,-7,-4,5,0,-5,7,-4,-5,-4,-3,-3
-3,-6,-4,5,0,-5,7,-4,-5,-4,-3,-3
-2,-6,-4,4,0,-4,7,-4,-5,-3,-3,-3
-2,-5,-3,4,0,-4,7,-4,-5,-3,-3,-3
-2,-5,-3,4,0,-4,8,-4,-5,-3,-3,-3
-2,-6,-3,5,0,-4,8,-4,-5,-3,-3,-3
-2,-6,-3,5,0,-4,8,-3,-5,-4,-3,-3
-2,-6,-3,5,0,-4,8,-3,-5,-4,-3,-3
-3,-6,-3,5,0,-4,8,-3,-5,-4,-3,-3
-4,-8,-3,7,-1,-5,8,-3,-5,-5,-4,-3
-6,-9,-3,8,-1,-6,8,-3,-5,-5,-4,-3
-5,-9,-3,8,-1,-6,8,-3,-5,-5,-4,-3
