leadI,leadII,leadIII,leadaVR,leadaVL,leadaVF,leadV1,leadV2,leadV3,leadV4,leadV5,leadV6
-1,-1,0,1,0,0,1,0,1,0,0,0
-2,-2,0,2,-1,-1,4,0,3,1,-1,-2
-2,-2,0,2,-2,-1,6,0,4,2,-1,-3
-3,-2,1,2,-2,-1,6,0,4,2,-2,-4
-3,-1,1,2,-2,-1,4,0,5,2,-2,-5
-3,-1,0,2,-2,-1,3,0,5,2,-2,-5
-3,-2,0,3,-2,-1,2,-1,5,2,-3,-5
-4,-3,0,4,-2,-2,2,-1,5,2,-3,-6
-4,-4,0,4,-1,-2,3,-1,5,2,-3,-6
-3,-4,0,4,-1,-2,5,-1,5,2,-3,-6
-3,-3,0,3,-1,-2,6,-1,6,2,-3,-6
-3,-3,0,3,-1,-2,7,-1,6,1,-4,-7
-3,-3,0,3,-1,-2,5,-1,5,1,-4,-7
-3,-3,0,3,-1,-2,3,-1,5,1,-4,-7
-3,-3,0,3,-1,-2,2,-1,5,1,-4,-7
-3,-3,0,3,-1,-2,2,-1,5,1,-5,-8
-3,-4,0,4,-1,-2,3,-1,5,0,-6,-9
-3,-4,0,4,-1,-2,5,-1,5,0,-7,-10
-3,-4,0,4,-1,-2,6,-1,5,-1,-8,-11
-3,-4,0,4,-1,-2,7,-1,5,-1,-8,-12
-3,-4,-1,4,-1,-2,6,-1,5,-1,-9,-12
-3,-4,-1,4,-1,-3,5,-1,5,-1,-10,-13
-3,-5,-1,5,-1,-3,4,0,5,-2,-11,-14
-3,-5,-1,5,-1,-3,4,0,5,-2,-11,-15
-4,-6,-1,5,-1,-4,5,0,5,-2,-12,-16
-4,-6,-1,5,-1,-4,5,0,5,-2,-12,-17
-4,-6,-1,5,-1,-4,6,0,5,-2,-12,-18
-4,-6,-1,5,-1,-4,7,0,5,-3,-13,-19
-4,-6,-1,5,-1,-4,7,0,5,-3,-13,-20
-4,-6,-1,5,-1,-4,6,0,5,-3,-14,-21
-4,-6,-1,5,-1,-4,5,0,5,-3,-14,-22
-4,-6,-1,5,-1,-4,4,0,5,-3,-15,-23
-4,-6,-1,5,-1,-4,4,0,5,-3,-15,-24
-4,-6,-1,5,-1,-4,4,0,5,-3,-14,-24
-4,-6,-1,6,-1,-4,5,0,5,-3,-14,-24
-4,-6,-1,6,-1,-4,5,0,5,-3,-14,-24
-4,-6,-1,6,-1,-4,5,0,5,-3,-13,-24
-4,-5,0,6,-1,-4,5,0,5,-3,-13,-24
-4,-5,0,5,-1,-3,4,0,4,-3,-12,-23
-3,-5,0,5,-1,-3,3,-1,4,-2,-10,-22
-3,-4,0,4,-1,-3,3,-1,3,-2,-8,-21
-3,-4,0,4,-1,-3,2,-2,2,-2,-6,-19
-2,-4,-1,4,0,-3,2,-2,1,-2,-4,-18
-1,-3,-1,3,0,-3,1,-3,0,-2,-3,-16
-1,-3,-1,2,0,-3,1,-3,-1,-2,-1,-13
-1,-3,-1,2,0,-3,0,-4,-2,-2,0,-11
0,-2,-2,2,0,-3,-2,-5,-3,-2,2,-8
0,-2,-2,1,1,-3,-3,-6,-4,-2,4,-5
1,-2,-2,1,2,-3,-4,-7,-5,-2,6,-2
2,-2,-3,1,2,-3,-5,-7,-5,-2,8,0
3,-1,-3,0,3,-3,-5,-8,-6,-2,9,3
4,0,-3,-1,4,-2,-6,-8,-7,-2,11,6
5,1,-4,-2,4,-2,-7,-9,-8,-2,12,9
6,2,-4,-3,5,-1,-8,-9,-8,-2,14,11
7,2,-4,-4,5,-1,-10,-9,-9,-2,15,14
7,3,-4,-4,6,-1,-11,-9,-9,-2,16,15
8,3,-4,-4,6,-1,-11,-9,-9,-3,17,17
8,4,-5,-5,7,-1,-12,-10,-9,-3,17,18
9,4,-5,-6,7,-1,-12,-10,-9,-3,17,19
9,4,-5,-6,7,-1,-12,-10,-8,-3,16,20
9,4,-5,-6,7,-1,-12,-10,-8,-4,16,20
10,4,-6,-6,8,-1,-12,-9,-7,-4,15,20
10,4,-6,-6,8,-1,-13,-9,-6,-4,14,20
10,3,-7,-6,8,-1,-13,-9,-5,-4,14,20
10,3,-7,-6,8,-1,-13,-8,-4,-4,13,20
9,3,-7,-6,8,-2,-12,-8,-3,-4,13,20
9,3,-7,-6,8,-2,-11,-7,-2,-5,12,19
9,3,-7,-6,8,-2,-11,-7,-1,-5,11,19
9,3,-6,-6,8,-1,-11,-6,0,-5,10,18
9,3,-5,-6,7,-1,-10,-6,1,-5,9,17
8,3,-5,-5,7,0,-10,-5,2,-5,8,16
7,3,-4,-5,6,0,-10,-5,3,-5,8,15
7,4,-3,-5,6,0,-9,-5,4,-5,7,14
6,4,-3,-5,5,0,-9,-5,5,-4,6,14
6,4,-3,-5,5,0,-8,-4,6,-4,5,13
6,4,-3,-5,5,0,-7,-4,7,-4,5,12
6,4,-2,-5,4,1,-6,-3,7,-3,5,12
5,4,-1,-5,4,1,-6,-3,7,-3,4,11
5,4,-1,-5,3,1,-5,-3,8,-3,3,10
5,4,-1,-5,3,1,-5,-3,8,-3,2,9
5,4,-1,-4,3,1,-5,-3,8,-3,2,8
4,4,0,-4,2,1,-4,-3,8,-3,1,7
4,4,0,-4,2,1,-3,-3,8,-3,1,7
4,4,0,-4,2,1,-2,-3,8,-4,1,6
4,4,0,-4,1,1,-1,-4,7,-4,1,6
3,4,1,-3,1,2,0,-4,7,-4,0,6
2,4,1,-3,1,2,0,-4,7,-4,0,6
2,5,2,-3,0,2,0,-5,7,-4,0,5
2,5,3,-3,0,3,1,-5,6,-4,-1,5
2,6,3,-3,0,4,1,-6,6,-4,-1,4
1,6,4,-3,-1,4,1,-6,5,-4,-1,4
1,6,4,-3,-1,5,2,-6,5,-4,-1,4
1,6,5,-3,-1,5,1,-6,4,-4,-1,4
1,7,5,-3,-1,5,0,-6,4,-4,-1,3
1,7,6,-3,-1,5,0,-6,4,-5,-2,3
0,7,6,-3,-2,6,0,-6,4,-5,-2,3
0,7,6,-3,-2,6,-1,-7,3,-5,-2,3
0,7,6,-3,-2,6,-1,-7,3,-5,-2,3
0,6,6,-3,-2,6,-2,-7,3,-5,-2,3
1,6,5,-3,-2,5,-2,-7,3,-5,-2,3
1,6,5,-3,-2,5,-2,-7,3,-5,-2,3
1,6,4,-3,-2,5,-1,-7,3,-5,-2,3
1,6,4,-3,-1,4,-1,-7,3,-5,-3,3
1,6,4,-3,-1,4,-1,-7,3,-6,-3,3
1,5,4,-2,-1,4,0,-7,3,-6,-3,3
1,5,4,-2,-1,4,0,-7,2,-6,-3,3
1,5,4,-2,-1,4,0,-7,2,-6,-3,3
1,5,4,-2,-1,4,-1,-7,1,-7,-3,2
1,5,4,-2,-1,4,-1,-7,1,-7,-4,2
1,5,5,-2,-1,4,0,-7,1,-8,-4,2
1,5,5,-2,-1,4,0,-7,1,-8,-4,2
1,4,4,-2,-1,4,-1,-7,1,-8,-4,2
0,3,3,-1,-1,3,0,-7,0,-8,-5,2
0,3,3,-1,-1,2,0,-7,0,-9,-5,1
0,3,3,-1,-1,2,0,-7,0,-9,-5,1
0,3,3,-1,-1,2,0,-7,0,-9,-5,1
0,3,3,-1,-1,2,0,-8,0,-10,-5,1
0,4,3,-1,-1,2,0,-8,0,-10,-5,1
0,4,3,-1,0,2,0,-8,0,-10,-6,1
0,4,2,-1,0,2,0,-8,-1,-10,-6,1
1,3,2,-1,0,1,1,-8,-1,-10,-6,1
1,2,1,0,0,1,1,-8,-1,-11,-6,1
1,1,1,0,0,0,0,-8,-1,-11,-6,1
1,1,0,0,0,0,1,-7,-1,-11,-6,1
1,0,0,0,1,0,1,-7,-1,-12,-6,0
1,0,0,0,1,-1,1,-7,-1,-12,-7,0
1,0,0,0,1,-1,0,-8,-2,-12,-7,0
1,0,0,0,1,-1,1,-8,-2,-13,-7,0
1,0,-1,0,1,-1,0,-8,-2,-13,-7,0
1,0,-1,0,2,-1,0,-8,-3,-14,-7,0
2,0,-2,0,2,-1,0,-8,-3,-14,-7,0
2,0,-2,0,2,-1,0,-8,-3,-14,-7,0
2,0,-2,0,2,-1,0,-8,-3,-14,-8,0
2,0,-1,0,2,-1,0,-8,-3,-14,-7,0
3,1,-1,-1,3,-1,0,-8,-3,-13,-6,0
3,1,-1,-1,3,-1,0,-7,-2,-13,-6,1
2,1,-1,-1,2,0,1,-7,-1,-12,-5,1
2,2,0,-1,2,0,2,-6,0,-12,-5,2
2,2,0,-1,2,0,2,-6,0,-11,-5,2
3,2,0,-1,2,0,2,-7,0,-11,-5,2
3,2,0,-1,2,0,2,-7,0,-11,-5,2
3,2,0,-1,2,0,3,-7,0,-11,-5,2
2,2,0,-1,2,0,4,-7,0,-11,-5,2
1,2,0,0,1,0,4,-7,0,-11,-5,1
0,1,0,0,1,0,4,-7,0,-11,-5,1
0,1,1,0,0,0,5,-7,0,-11,-5,1
0,1,1,0,0,0,6,-6,0,-11,-5,0
0,1,2,0,0,0,6,-6,0,-11,-6,0
0,1,2,0,-1,1,6,-6,0,-11,-6,0
0,1,2,0,-1,1,7,-6,0,-11,-6,0
-1,1,2,0,-1,1,7,-6,0,-11,-6,0
-1,1,2,1,-1,1,7,-6,0,-11,-6,0
-2,1,2,1,-1,1,7,-6,0,-11,-6,0
-2,0,1,1,0,0,7,-6,0,-12,-6,0
-1,0,1,1,0,0,6,-7,-1,-12,-6,0
-1,0,1,1,-1,0,6,-7,-1,-12,-6,0
-1,0,1,1,-1,0,6,-7,-1,-12,-7,0
-1,0,1,1,-1,0,7,-7,-1,-12,-7,0
-1,0,1,1,-1,0,7,-7,-1,-11,-6,0
-1,0,1,1,-1,0,7,-7,-1,-11,-6,0
-1,0,1,1,-1,0,7,-6,-1,-11,-6,0
-1,0,1,1,-1,0,7,-6,-1,-11,-6,0
-2,0,2,1,-1,0,7,-6,-1,-12,-6,0
-2,0,2,1,-1,0,7,-6,-1,-12,-6,0
-2,0,2,1,-1,0,7,-6,-1,-12,-6,0
-1,0,2,1,-1,0,7,-6,0,-12,-6,0
-1,0,2,1,-1,0,7,-6,0,-12,-6,0
-1,0,2,1,0,0,7,-6,0,-12,-6,0
-1,0,2,1,0,0,7,-7,0,-12,-6,0
-1,1,2,1,0,1,8,-7,0,-12,-7,0
-1,1,2,1,0,1,8,-7,0,-12,-7,0
-1,1,2,1,-1,1,7,-7,0,-12,-7,0
-1,1,2,1,-1,1,7,-7,0,-12,-6,0
-1,1,2,1,-1,1,8,-7,0,-12,-6,0
-1,1,2,1,-1,1,8,-6,0,-12,-6,0
-1,1,2,1,-1,1,9,-6,0,-11,-6,0
-1,1,2,0,0,1,9,-6,0,-11,-6,0
0,1,2,0,0,1,9,-6,0,-11,-6,0
0,1,1,0,0,1,9,-6,0,-10,-6,0
0,1,1,0,0,1,9,-6,0,-11,-6,0
0,1,1,0,0,1,9,-6,0,-11,-7,0
0,1,1,0,0,1,9,-6,-1,-12,-7,0
0,1,2,0,0,1,9,-6,-1,-12,-7,0
0,1,2,0,0,2,9,-6,-1,-12,-7,0
0,2,3,0,-1,2,9,-6,-1,-12,-7,0
0,2,3,0,-1,2,9,-6,-1,-12,-7,0
0,2,2,0,-1,2,9,-6,-1,-11,-7,0
0,2,2,0,-1,1,10,-6,-1,-11,-6,0
0,2,2,0,-1,1,10,-5,0,-11,-6,1
0,1,2,0,0,1,10,-5,0,-10,-5,1
0,1,1,0,0,0,10,-4,1,-10,-4,1
0,0,1,0,0,0,11,-3,2,-8,-3,0
-1,0,1,1,0,0,11,-1,4,-6,-2,0
-1,-1,0,1,0,-1,12,0,7,-4,-1,-1
0,0,0,0,0,-1,13,3,11,0,0,-2
0,0,0,0,1,0,14,4,14,4,3,-2
0,0,0,0,1,0,14,5,15,7,6,-1
0,0,0,0,1,0,14,5,16,11,11,0
1,1,1,-1,1,1,14,5,16,14,16,3
1,3,2,-2,0,2,13,3,15,16,21,7
2,5,3,-3,0,3,12,2,12,17,26,12
2,7,4,-4,0,5,10,0,9,17,31,18
3,9,5,-5,0,7,8,-3,6,17,36,25
5,11,5,-7,0,9,5,-5,4,17,42,33
7,14,6,-10,1,10,2,-7,2,17,48,41
10,16,6,-12,2,11,0,-9,0,18,54,51
12,17,5,-14,3,11,-1,-10,0,20,62,62
14,18,4,-16,5,11,-2,-11,-1,22,70,76
16,19,4,-17,7,11,-4,-13,-2,24,79,91
18,21,3,-19,8,12,-6,-16,-5,25,86,107
21,24,3,-21,9,13,-10,-19,-9,26,94,125
24,27,2,-24,11,14,-13,-23,-13,26,100,142
27,29,1,-27,13,14,-16,-25,-16,24,102,154
30,30,0,-28,15,14,-18,-27,-18,20,99,160
32,29,-3,-29,18,13,-20,-27,-19,17,94,160
34,29,-5,-30,20,12,-21,-27,-18,15,87,153
35,28,-7,-31,22,10,-21,-27,-17,10,76,141
35,27,-9,-30,23,9,-22,-26,-16,3,56,122
35,24,-11,-29,24,7,-21,-25,-16,-7,25,99
33,22,-11,-27,23,5,-20,-24,-17,-20,-12,74
31,19,-11,-25,22,4,-18,-24,-18,-36,-48,51
26,17,-8,-21,18,4,-16,-25,-21,-52,-81,28
20,15,-4,-17,12,5,-12,-26,-25,-67,-106,7
14,15,1,-13,7,7,-9,-28,-30,-79,-123,-10
9,15,6,-11,2,10,-6,-29,-33,-86,-133,-25
4,15,10,-9,-2,12,-5,-30,-33,-90,-137,-38
0,15,15,-7,-6,15,-3,-28,-29,-90,-138,-49
-3,15,18,-6,-10,16,-1,-25,-22,-89,-136,-56
-5,14,20,-4,-12,17,2,-21,-13,-86,-132,-61
-7,13,21,-2,-13,17,4,-16,-4,-80,-125,-64
-9,12,22,-1,-14,16,7,-10,5,-73,-116,-65
-11,10,22,1,-15,16,11,-5,14,-63,-105,-64
-13,8,22,3,-16,15,15,0,22,-54,-94,-62
-15,5,21,5,-17,13,19,5,29,-45,-84,-60
-17,3,20,7,-17,12,22,9,34,-38,-74,-57
-18,0,20,9,-17,10,24,11,38,-31,-66,-53
-19,-1,19,10,-17,8,26,12,40,-25,-59,-50
-19,-2,18,11,-17,7,29,13,43,-20,-53,-47
-20,-2,17,12,-17,6,31,14,44,-16,-48,-45
-20,-3,17,13,-18,6,33,14,42,-15,-44,-43
-21,-3,17,14,-18,6,35,13,38,-16,-41,-41
-21,-3,17,14,-19,6,36,12,32,-17,-39,-39
-22,-3,18,14,-19,6,37,10,26,-19,-37,-37
-22,-3,18,14,-19,6,37,8,19,-21,-36,-35
-22,-3,18,13,-19,6,37,5,12,-22,-35,-33
-22,-3,19,13,-19,7,38,3,6,-23,-34,-32
-22,-3,19,13,-20,7,39,1,2,-23,-33,-31
-22,-4,18,13,-20,7,41,0,0,-24,-33,-30
-22,-4,18,13,-19,6,42,0,-4,-25,-32,-29
-22,-5,17,13,-19,6,43,0,-7,-26,-31,-28
-21,-5,17,14,-18,5,44,-1,-10,-25,-30,-27
-21,-5,16,14,-18,5,44,-2,-13,-24,-28,-25
-21,-5,15,14,-17,4,44,-3,-14,-22,-27,-24
-20,-5,15,14,-17,4,45,-3,-14,-21,-26,-23
-20,-5,14,14,-17,3,46,-3,-13,-19,-25,-23
-20,-5,14,14,-16,3,47,-3,-13,-18,-24,-22
-19,-5,14,13,-16,3,48,-3,-13,-18,-23,-21
-19,-5,13,13,-15,3,48,-2,-13,-17,-21,-20
-18,-5,13,12,-14,3,48,-2,-13,-17,-21,-19
-17,-5,12,12,-13,3,46,-2,-13,-17,-20,-18
-16,-5,11,11,-12,2,42,-3,-14,-17,-20,-17
-15,-5,10,11,-11,2,38,-4,-15,-17,-20,-16
-13,-4,10,10,-10,1,33,-5,-15,-17,-19,-16
-12,-4,9,9,-9,1,29,-6,-16,-17,-18,-15
-11,-3,8,8,-8,1,24,-7,-15,-17,-17,-14
-10,-3,7,7,-7,1,21,-8,-15,-16,-16,-13
-9,-2,6,6,-7,1,18,-8,-14,-16,-15,-12
-8,-2,6,6,-6,1,14,-8,-13,-15,-14,-11
-7,-1,5,5,-5,1,11,-8,-12,-14,-14,-10
-6,-1,5,5,-5,1,9,-8,-11,-13,-13,-9
-5,-1,4,4,-4,1,7,-8,-10,-12,-12,-9
-5,-1,4,3,-4,1,6,-7,-9,-11,-11,-8
-4,0,3,3,-3,1,5,-6,-8,-10,-10,-8
-3,0,3,2,-3,1,4,-5,-7,-10,-9,-8
-3,0,3,2,-2,1,3,-4,-6,-9,-8,-7
-2,0,3,1,-2,1,2,-3,-5,-8,-8,-7
-2,0,2,1,-1,1,2,-3,-4,-7,-7,-6
-1,0,2,1,-1,0,1,-3,-3,-6,-7,-6
-1,0,1,1,-1,0,0,-2,-2,-5,-6,-5
-1,0,1,1,0,0,0,-2,-2,-4,-6,-5
0,0,1,0,0,0,-1,-1,-1,-4,-5,-5
0,0,1,0,0,0,-1,-1,-1,-3,-5,-5
0,0,0,0,0,0,-1,-1,0,-3,-4,-5
0,0,0,0,1,0,-1,0,0,-3,-4,-5
0,0,0,0,1,0,-1,0,0,-2,-3,-5
0,0,0,0,1,0,-1,0,1,-2,-3,-5
0,0,0,0,1,0,-2,0,1,-1,-3,-5
0,0,0,0,1,0,-3,0,1,-1,-3,-5
0,0,0,0,1,0,-3,0,1,-1,-3,-5
0,0,0,0,1,0,-3,0,1,-1,-3,-5
0,0,0,0,1,0,-3,0,1,-1,-2,-5
0,0,0,0,1,0,-3,0,2,0,-2,-5
0,0,0,0,1,0,-3,0,2,0,-2,-5
1,0,0,0,1,0,-3,0,2,0,-2,-5
1,0,-1,0,2,0,-3,0,2,0,-2,-5
1,0,-1,0,2,-1,-3,0,2,1,-2,-5
1,0,-1,0,2,-1,-4,0,2,1,-1,-5
1,0,-1,0,2,-1,-5,0,2,1,-1,-5
1,0,-1,0,2,-1,-5,0,2,1,-1,-5
1,0,-1,0,2,-1,-4,0,2,1,-1,-5
1,0,-1,0,2,-1,-4,0,2,1,-1,-5
1,0,-1,0,2,-1,-5,0,2,1,-1,-5
1,0,-1,0,2,-1,-5,0,2,2,-1,-5
1,0,-1,0,1,-1,-5,0,2,2,-1,-5
1,0,-2,0,1,-2,-5,0,2,2,-1,-5
1,0,-2,0,1,-2,-5,0,2,2,-1,-5
1,0,-2,0,1,-2,-5,1,2,2,-1,-5
1,0,-2,0,1,-2,-6,1,3,2,-1,-5
0,-1,-2,0,1,-2,-5,1,3,2,0,-5
0,-1,-2,0,1,-2,-5,1,3,2,0,-5
0,-1,-2,0,2,-2,-5,1,3,2,0,-5
0,-1,-2,0,2,-2,-5,1,3,2,0,-6
0,-2,-2,1,2,-2,-5,1,3,2,-1,-6
0,-2,-2,1,2,-3,-6,1,3,2,-1,-7
0,-2,-2,1,2,-3,-6,1,3,2,-1,-7
0,-2,-2,1,2,-3,-6,1,3,2,-2,-7
0,-2,-2,1,2,-3,-7,1,3,2,-2,-8
0,-2,-2,1,2,-3,-7,1,3,2,-2,-8
0,-2,-2,1,2,-3,-6,1,3,2,-2,-8
0,-2,-3,1,2,-3,-7,1,2,2,-2,-9
0,-2,-3,1,2,-3,-7,2,2,2,-3,-9
0,-2,-3,1,2,-3,-7,2,3,2,-3,-10
0,-2,-3,1,2,-3,-7,2,3,2,-4,-10
0,-2,-3,1,2,-3,-7,2,3,2,-4,-11
0,-3,-4,1,3,-4,-7,3,3,2,-5,-11
0,-3,-4,1,3,-4,-7,3,3,2,-5,-12
0,-3,-4,1,3,-4,-6,3,3,2,-5,-13
0,-3,-4,1,3,-4,-6,3,3,1,-6,-14
0,-3,-4,1,3,-4,-7,3,3,1,-6,-15
0,-4,-4,2,3,-4,-7,3,4,1,-7,-16
0,-4,-4,2,3,-4,-7,3,4,1,-7,-17
0,-4,-4,2,3,-4,-7,3,4,1,-8,-18
0,-4,-4,2,2,-4,-7,4,4,1,-8,-19
0,-4,-4,2,2,-4,-7,4,4,1,-9,-20
0,-4,-4,2,2,-4,-7,4,4,1,-9,-21
0,-4,-4,2,2,-4,-6,4,4,1,-9,-22
0,-4,-4,2,2,-4,-7,4,4,1,-8,-22
0,-5,-4,2,2,-5,-7,4,4,1,-8,-23
0,-5,-5,2,2,-5,-7,4,4,1,-7,-23
0,-5,-5,2,2,-5,-8,4,4,1,-7,-23
0,-5,-5,2,2,-5,-8,4,4,1,-6,-23
0,-5,-5,2,2,-5,-8,4,3,2,-5,-23
0,-5,-5,2,2,-5,-8,4,3,2,-3,-22
0,-5,-5,2,2,-5,-9,4,2,3,-2,-21
0,-5,-5,2,2,-5,-10,3,1,3,0,-20
0,-5,-5,2,3,-5,-10,3,0,4,1,-18
1,-4,-5,1,3,-5,-11,2,0,4,3,-15
1,-4,-5,1,3,-4,-12,2,0,4,5,-13
2,-3,-5,0,3,-4,-12,1,-1,4,7,-11
2,-3,-5,0,3,-4,-14,0,-2,4,9,-8
3,-2,-5,0,4,-4,-15,0,-3,4,11,-6
4,-2,-5,-1,4,-4,-16,-1,-5,5,13,-3
5,-1,-5,-1,5,-3,-17,-2,-6,5,15,0
6,-1,-6,-2,6,-3,-18,-3,-7,5,17,3
6,0,-6,-2,6,-3,-19,-4,-8,5,19,6
7,0,-7,-3,7,-3,-19,-4,-9,5,20,9
8,0,-7,-4,7,-3,-20,-5,-9,5,22,12
9,1,-8,-5,8,-3,-21,-5,-10,5,23,14
9,2,-8,-6,9,-3,-22,-6,-10,5,24,16
10,2,-8,-6,9,-3,-23,-6,-11,5,25,18
10,2,-8,-7,10,-3,-25,-6,-11,5,26,20
11,2,-8,-7,10,-3,-25,-6,-11,5,26,21
11,3,-8,-7,10,-3,-25,-6,-11,5,26,23
12,3,-9,-7,11,-3,-25,-6,-10,5,26,24
12,3,-9,-8,11,-3,-26,-6,-10,5,26,24
12,3,-9,-8,11,-3,-26,-6,-9,5,26,24
12,3,-9,-8,11,-3,-26,-5,-8,5,25,24
12,3,-9,-8,11,-3,-26,-5,-7,5,25,24
12,3,-9,-8,11,-3,-26,-4,-6,5,24,24
12,3,-9,-8,11,-3,-26,-3,-5,5,23,24
12,3,-9,-8,11,-3,-26,-3,-4,6,22,23
12,3,-9,-8,11,-3,-26,-2,-3,6,21,23
12,3,-9,-8,11,-3,-25,-1,-2,6,20,22
12,3,-9,-8,10,-3,-24,-1,0,6,18,21
12,3,-9,-8,10,-2,-24,0,1,7,18,20
11,3,-9,-8,10,-2,-24,0,2,7,18,19
11,3,-8,-7,10,-2,-23,1,3,8,18,18
10,3,-8,-7,10,-2,-22,2,4,8,18,18
10,3,-7,-6,9,-2,-22,2,5,8,17,17
10,3,-7,-6,9,-2,-23,3,6,9,17,16
10,3,-6,-6,8,-2,-22,3,7,9,16,16
9,3,-6,-6,8,-1,-20,3,8,9,16,15
9,3,-5,-6,7,-1,-20,4,9,9,16,14
8,3,-5,-5,7,-1,-19,4,9,9,15,13
8,3,-5,-5,7,-1,-18,4,10,10,14,13
7,3,-5,-5,6,-1,-18,4,10,10,14,12
7,3,-4,-5,6,0,-17,4,10,10,13,12
6,2,-4,-5,5,0,-17,4,10,10,13,11
6,2,-3,-5,5,0,-16,4,10,9,12,11
6,2,-3,-5,4,0,-15,4,10,9,11,10
6,2,-3,-5,4,0,-14,4,10,9,11,10
6,2,-3,-5,4,0,-13,4,10,9,10,9
5,2,-2,-5,3,1,-13,4,10,9,10,9
5,2,-2,-5,3,1,-13,4,10,9,10,9
5,3,-2,-5,3,1,-12,4,10,8,9,8
5,3,-2,-5,3,1,-12,4,10,8,9,8
5,4,-1,-5,3,1,-12,4,9,8,9,7
5,4,-1,-5,2,1,-12,4,9,8,9,7
4,4,-1,-4,2,1,-11,4,9,8,9,6
4,4,0,-4,2,2,-11,4,9,8,9,6
4,4,0,-4,1,2,-10,4,9,8,9,6
4,4,0,-4,1,2,-9,4,9,8,9,6
4,4,1,-4,1,3,-10,3,8,8,8,6
4,4,1,-4,1,3,-11,3,8,8,8,6
4,4,2,-4,1,3,-11,3,8,8,8,6
4,4,2,-5,1,3,-11,3,7,8,7,6
4,4,2,-5,1,3,-12,3,7,8,7,6
4,4,2,-5,1,3,-13,3,7,8,7,6
4,5,2,-5,1,3,-13,3,7,7,7,6
4,5,2,-5,1,3,-14,3,7,7,7,6
4,5,2,-5,1,3,-14,3,7,7,7,6
4,5,2,-5,1,3,-14,3,7,8,7,5
4,5,1,-5,1,3,-14,2,7,8,7,5
4,5,1,-5,1,3,-14,2,6,8,8,4
4,5,1,-5,1,3,-14,2,6,7,8,4
4,5,0,-5,1,3,-15,2,5,7,8,4
4,5,0,-5,1,3,-16,2,5,7,7,4
4,5,0,-5,1,2,-16,2,5,7,7,4
4,4,0,-4,1,2,-16,2,4,7,7,4
4,4,0,-4,1,1,-16,2,4,6,7,3
4,3,0,-4,1,1,-16,2,4,6,6,3
4,3,-1,-4,1,1,-15,2,3,5,5,3
4,3,-1,-4,1,1,-15,2,3,5,5,3
4,3,-1,-4,2,1,-15,1,3,5,5,3
4,3,-1,-4,2,1,-15,1,3,5,5,3
4,2,-1,-4,2,0,-15,1,3,4,5,3
4,2,-1,-4,2,0,-15,1,3,4,5,3
4,2,-1,-4,2,0,-14,1,3,3,5,3
4,1,-2,-4,2,0,-14,1,2,3,5,2
3,1,-2,-3,2,0,-14,1,2,2,4,2
3,0,-3,-3,2,-1,-14,1,2,2,4,1
3,0,-3,-2,2,-1,-14,1,2,2,4,1
3,0,-4,-2,3,-1,-14,1,2,2,4,1
3,0,-4,-2,3,-1,-15,1,2,2,3,1
3,0,-4,-2,3,-2,-15,1,1,2,3,1
4,0,-5,-2,4,-2,-14,1,1,2,3,1
4,0,-5,-2,4,-3,-14,1,0,2,3,1
4,0,-5,-2,4,-3,-15,1,0,1,2,1
4,0,-5,-2,4,-3,-15,1,0,1,2,1
5,0,-5,-2,5,-3,-15,1,0,1,3,1
5,0,-5,-2,5,-3,-15,1,0,1,3,1
5,0,-5,-3,5,-3,-15,1,0,2,4,1
5,0,-6,-3,6,-3,-15,1,0,2,4,1
5,0,-6,-3,6,-3,-14,1,0,1,4,2
5,0,-6,-3,6,-3,-14,2,0,1,3,2
5,0,-6,-4,6,-3,-14,3,2,1,4,3
6,1,-6,-4,6,-3,-14,3,3,2,4,3
6,1,-6,-4,6,-3,-13,3,3,3,5,4
6,1,-6,-4,6,-3,-13,3,2,3,5,4
6,1,-6,-4,6,-2,-13,2,2,4,4,4
6,1,-5,-4,6,-2,-13,2,1,4,4,4
5,1,-5,-4,5,-1,-12,2,1,4,4,3
5,1,-4,-3,5,-1,-12,2,1,4,5,3
4,1,-4,-3,4,-1,-11,2,1,4,5,3
3,0,-4,-2,4,-2,-11,2,2,4,5,3
2,0,-4,-1,3,-2,-11,3,2,4,5,3
2,0,-4,-1,3,-2,-10,3,3,4,5,3
2,-1,-4,0,3,-2,-10,4,3,4,5,3
2,-1,-4,0,3,-2,-10,4,3,4,5,2
2,-1,-4,0,3,-2,-10,4,3,4,5,2
2,-1,-4,0,3,-2,-10,4,3,4,5,2
1,-1,-4,0,2,-2,-10,4,3,4,5,2
1,-1,-3,0,2,-2,-9,4,3,5,5,2
1,-1,-3,0,2,-2,-9,4,3,5,5,1
1,-1,-3,0,2,-2,-9,4,3,5,5,1
1,-1,-3,0,2,-2,-9,4,3,4,5,1
1,-1,-3,0,2,-2,-9,4,3,4,5,1
1,-1,-3,0,2,-2,-9,4,3,4,5,1
1,-1,-3,0,2,-2,-8,4,3,4,5,1
1,-1,-3,0,2,-2,-8,4,3,4,6,1
1,-1,-3,0,2,-2,-9,4,3,4,6,1
1,-1,-3,0,2,-2,-9,4,3,4,6,1
1,-1,-3,0,2,-2,-8,4,3,4,6,1
1,-1,-3,0,2,-2,-8,4,3,4,6,1
1,-1,-3,0,2,-2,-8,4,3,4,6,1
1,-1,-3,0,2,-2,-8,4,3,4,5,1
1,-1,-3,0,2,-2,-8,4,3,4,5,1
1,-1,-3,0,2,-2,-8,4,3,4,5,1
1,-1,-3,0,2,-2,-8,5,3,4,5,1
1,-1,-3,0,2,-2,-8,5,3,4,5,1
1,-1,-3,0,2,-2,-7,5,3,4,5,1
1,-1,-3,0,2,-2,-7,5,3,4,5,1
1,-1,-3,0,2,-2,-7,5,3,4,5,1
1,-1,-3,0,2,-2,-7,5,3,4,5,1
1,-1,-3,0,2,-2,-7,5,3,4,5,1
1,-1,-3,0,2,-2,-6,5,3,4,5,1
1,-1,-3,0,2,-2,-7,5,3,4,5,1
1,-1,-3,0,2,-2,-7,5,3,4,5,1
1,-1,-3,0,2,-2,-7,5,3,3,4,1
1,-1,-3,0,2,-2,-7,5,3,3,4,1
1,-1,-3,0,2,-2,-7,5,3,3,4,1
1,-1,-3,0,2,-2,-7,5,3,3,4,1
1,-1,-3,0,2,-2,-7,5,3,4,4,1
1,-1,-3,0,2,-2,-7,5,3,4,3,1
1,-1,-3,0,2,-2,-7,5,3,3,2,1
1,-1,-3,0,2,-2,-7,5,3,4,3,1
1,-1,-3,0,2,-2,-8,5,3,5,5,1
1,-1,-3,0,2,-2,-8,5,3,6,6,1
0,-1,-3,0,2,-2,-7,6,3,6,7,1
0,-1,-3,0,2,-2,-6,7,5,8,7,1
0,-1,-3,0,2,-2,-6,8,7,10,8,1
0,-1,-3,0,2,-2,-5,10,11,12,10,1
0,-2,-4,0,2,-3,-4,13,14,15,11,1
0,-2,-4,0,2,-3,-3,15,17,18,14,0
0,-3,-4,0,2,-3,-3,16,19,22,17,0
0,-2,-4,0,2,-3,-2,16,20,26,20,1
1,-1,-3,0,2,-2,-2,16,20,29,25,2
1,0,-3,-1,2,-1,-3,15,19,32,30,5
2,1,-2,-2,2,0,-4,13,17,33,35,10
3,3,0,-3,2,1,-6,11,14,33,39,15
4,5,1,-5,1,3,-8,8,11,32,44,22
5,8,2,-7,1,5,-11,5,8,32,49,29
7,10,2,-9,2,6,-12,2,5,32,54,37
8,12,3,-11,3,7,-14,0,3,32,59,45
10,15,3,-13,4,8,-17,-1,1,32,66,55
12,17,3,-15,5,9,-19,-3,0,34,73,67
14,19,3,-17,6,10,-22,-5,-2,35,80,79
16,21,3,-19,7,11,-24,-8,-5,35,86,93
19,23,3,-21,8,13,-26,-12,-9,35,92,108
21,26,3,-23,9,14,-29,-16,-13,34,98,124
24,28,3,-26,10,16,-33,-20,-18,32,102,139
27,30,1,-28,12,16,-35,-22,-21,29,103,150
29,30,0,-30,14,15,-37,-24,-23,26,102,154
31,30,-2,-31,16,14,-39,-24,-23,24,100,154
32,29,-4,-31,18,12,-39,-24,-22,21,95,148
33,27,-7,-30,20,9,-40,-23,-21,17,83,137
33,25,-9,-29,21,7,-40,-22,-20,11,61,120
32,22,-11,-27,22,5,-39,-21,-19,1,28,99
30,19,-12,-25,21,3,-36,-20,-18,-12,-8,77
27,17,-12,-22,19,2,-34,-19,-18,-27,-45,55
23,15,-9,-19,16,2,-31,-19,-20,-43,-78,32
17,13,-6,-15,12,3,-27,-19,-24,-58,-103,11
12,12,-2,-12,7,4,-25,-20,-26,-69,-120,-8
8,11,2,-10,3,6,-23,-21,-27,-76,-130,-24
4,11,6,-8,-1,8,-20,-20,-24,-78,-134,-37
0,11,9,-6,-4,9,-18,-18,-19,-77,-133,-47
-2,10,11,-4,-6,10,-16,-15,-12,-73,-129,-54
-4,8,12,-2,-8,10,-13,-12,-4,-67,-123,-59
-7,7,13,0,-10,10,-9,-8,4,-60,-113,-61
-9,5,13,1,-11,9,-6,-3,12,-51,-102,-61
-11,3,13,4,-12,8,-2,1,19,-42,-90,-60
-14,2,14,6,-13,7,1,5,26,-34,-79,-58
-16,0,14,7,-15,6,4,8,31,-26,-70,-56
-17,-2,14,9,-15,5,7,10,34,-19,-61,-53
-18,-3,13,10,-16,4,9,11,36,-14,-54,-50
-19,-5,13,12,-16,4,11,12,38,-9,-48,-47
-19,-6,12,13,-16,3,14,13,40,-5,-42,-45
-20,-6,12,13,-16,3,16,14,39,-4,-38,-43
-20,-7,12,14,-17,3,17,14,37,-5,-35,-41
-21,-7,12,14,-17,2,18,14,33,-8,-33,-39
-22,-8,12,14,-17,2,20,13,28,-10,-32,-37
-22,-8,12,14,-17,2,21,12,22,-11,-30,-35
-22,-8,13,14,-17,2,22,10,16,-12,-29,-33
-22,-8,13,15,-17,2,24,9,11,-13,-27,-31
-22,-8,13,15,-18,2,25,8,7,-13,-26,-30
-23,-8,13,15,-18,2,27,7,4,-13,-25,-29
-23,-9,12,16,-17,1,29,7,0,-14,-24,-29
-22,-9,12,16,-17,1,30,6,-3,-15,-23,-28
-22,-9,11,16,-17,1,31,6,-7,-16,-22,-27
-22,-9,11,15,-16,1,32,5,-9,-15,-21,-25
-22,-9,11,15,-16,1,33,5,-10,-13,-20,-24
-22,-9,11,15,-15,1,34,5,-10,-11,-19,-22
-21,-9,10,15,-15,1,35,5,-9,-9,-18,-21
-20,-9,10,14,-15,1,36,6,-9,-7,-17,-21
-19,-8,10,14,-14,1,37,6,-8,-6,-16,-20
-18,-8,10,13,-14,1,37,7,-8,-5,-14,-20
-18,-8,9,13,-13,0,36,7,-8,-4,-13,-19
-17,-8,8,12,-12,0,34,7,-8,-4,-12,-18
-16,-7,7,12,-11,0,31,6,-9,-4,-11,-17
-15,-7,6,11,-10,0,27,5,-10,-4,-10,-16
-14,-7,5,11,-9,-1,23,4,-11,-4,-9,-15
-12,-7,4,10,-8,-1,19,3,-11,-4,-9,-14
-11,-7,3,10,-7,-2,15,2,-11,-4,-8,-13
-10,-7,2,9,-6,-2,12,1,-11,-3,-6,-12
-9,-7,2,8,-5,-2,9,1,-10,-2,-5,-11
-9,-6,1,8,-5,-2,6,1,-9,-1,-4,-10
-8,-6,1,7,-4,-2,4,0,-9,-1,-3,-10
-8,-5,0,6,-3,-2,2,0,-8,0,-3,-9
-7,-5,0,5,-3,-2,0,0,-8,0,-3,-9
-6,-5,0,5,-2,-2,-2,0,-7,1,-3,-8
-5,-4,0,4,-2,-2,-3,0,-7,1,-3,-8
-4,-4,-1,4,-1,-2,-3,1,-6,2,-2,-8
-4,-4,-1,4,-1,-2,-4,2,-4,3,0,-7
-3,-4,-1,3,0,-2,-4,2,-3,4,0,-7
-3,-4,-2,3,0,-2,-5,3,-2,4,1,-6
-3,-4,-2,3,0,-2,-5,3,-1,5,1,-6
-2,-4,-2,3,0,-2,-7,4,-1,5,2,-6
-2,-4,-2,3,0,-2,-8,4,0,6,2,-6
-2,-4,-3,3,0,-3,-8,5,0,6,2,-5
-2,-4,-3,3,0,-3,-7,5,0,7,2,-5
-2,-4,-3,3,0,-3,-8,5,1,7,2,-5
-2,-4,-3,2,0,-3,-7,5,1,8,2,-5
-2,-4,-3,2,0,-3,-7,6,2,8,3,-5
-2,-4,-3,2,0,-3,-7,6,2,7,3,-5
-2,-4,-3,2,0,-3,-8,6,2,7,3,-5
-2,-4,-3,2,0,-3,-8,6,2,7,3,-5
-2,-4,-3,2,0,-3,-8,6,2,7,3,-5
-2,-4,-3,2,0,-3,-8,6,3,8,3,-5
-2,-4,-3,2,0,-3,-8,6,3,8,3,-5
-2,-4,-3,2,0,-3,-8,6,2,9,3,-5
-2,-4,-3,2,0,-3,-8,6,2,9,3,-5
-2,-4,-3,2,0,-3,-9,7,2,9,3,-5
-2,-4,-3,2,0,-3,-9,7,2,9,3,-5
-2,-4,-3,2,0,-3,-9,7,2,9,3,-6
-2,-4,-3,2,0,-3,-9,7,2,9,3,-6
-2,-4,-3,2,0,-3,-8,7,2,8,3,-6
-2,-4,-3,2,1,-3,-8,7,3,8,3,-6
-2,-4,-3,2,1,-3,-8,7,3,8,3,-6
-2,-4,-3,2,1,-3,-8,7,3,8,3,-6
-2,-4,-3,2,1,-3,-7,7,3,8,3,-6
-2,-4,-3,2,1,-3,-7,7,3,8,3,-6
-2,-4,-3,2,1,-3,-8,7,3,9,3,-6
-2,-4,-3,2,1,-3,-8,7,3,9,3,-6
-2,-4,-3,2,1,-3,-8,7,3,9,3,-7
-2,-4,-3,2,1,-3,-8,7,3,9,2,-7
-2,-4,-3,2,1,-4,-8,7,3,8,2,-7
-2,-4,-3,2,1,-4,-7,7,3,8,2,-7
-2,-4,-3,2,1,-4,-7,7,3,9,2,-8
-2,-5,-3,3,1,-4,-8,7,3,9,2,-8
-2,-5,-3,3,1,-4,-8,7,3,9,2,-8
-2,-5,-3,3,1,-4,-8,7,3,9,2,-8
-2,-5,-3,3,1,-4,-8,7,3,9,2,-8
-2,-5,-3,3,1,-4,-8,7,3,9,2,-8
-2,-5,-3,3,1,-5,-7,7,3,9,2,-8
-2,-5,-4,3,1,-5,-7,7,3,9,1,-9
-2,-5,-4,3,1,-5,-7,7,3,8,1,-9
-2,-5,-4,3,1,-5,-7,7,3,8,0,-10
-2,-5,-4,3,1,-5,-7,7,4,7,-1,-10
-2,-5,-4,3,1,-5,-7,7,4,7,-2,-11
-2,-5,-4,3,1,-5,-7,7,4,7,-2,-12
-2,-6,-4,3,1,-5,-6,7,4,7,-2,-12
-2,-6,-4,3,1,-5,-6,7,4,7,-2,-13
-2,-6,-4,3,1,-5,-7,7,4,7,-2,-13
-2,-6,-4,4,1,-5,-7,7,4,7,-2,-14
-2,-6,-4,4,1,-5,-7,7,4,7,-3,-15
-2,-7,-4,4,1,-5,-7,8,4,6,-3,-16
-2,-7,-5,4,1,-6,-7,8,4,6,-4,-17
-2,-7,-5,5,1,-6,-7,8,4,6,-4,-19
-2,-8,-5,5,1,-7,-7,8,4,7,-5,-20
-2,-8,-5,5,1,-7,-6,8,4,7,-6,-20
-2,-8,-5,5,1,-7,-6,8,4,6,-7,-21
-2,-8,-5,5,1,-7,-6,8,4,6,-7,-22
-3,-8,-5,5,1,-7,-6,8,5,6,-7,-23
-3,-8,-5,5,1,-7,-5,8,5,7,-7,-24
-3,-8,-5,5,1,-7,-5,8,5,7,-7,-25
-3,-8,-5,5,1,-7,-6,8,5,7,-7,-26
-3,-8,-5,5,1,-7,-6,8,5,7,-7,-26
-3,-8,-5,5,1,-7,-6,8,5,6,-7,-27
-3,-8,-5,5,1,-7,-7,8,5,7,-7,-26
-3,-8,-5,6,1,-7,-7,8,5,8,-6,-26
-3,-8,-5,6,1,-7,-7,8,4,8,-4,-25
-3,-8,-5,6,1,-7,-8,8,4,8,-3,-25
-3,-8,-5,6,1,-7,-8,8,3,8,-1,-24
-2,-8,-5,5,2,-7,-8,8,3,8,0,-22
-2,-7,-5,5,2,-7,-10,8,2,8,1,-20
-1,-7,-5,4,2,-7,-11,7,1,9,4,-18
-1,-6,-5,4,2,-7,-11,6,1,9,6,-16
0,-6,-5,3,2,-6,-11,6,0,9,8,-14
0,-5,-5,3,3,-6,-12,5,0,9,10,-11
0,-5,-6,2,3,-6,-13,4,-1,9,12,-9
1,-4,-6,2,4,-5,-14,4,-2,9,13,-6
2,-4,-6,1,4,-5,-15,3,-3,9,15,-4
3,-3,-6,1,5,-5,-17,2,-4,9,17,-1
3,-3,-6,0,5,-5,-18,2,-5,9,19,2
4,-2,-6,0,5,-5,-19,1,-5,9,20,5
5,-1,-7,-1,6,-4,-19,1,-6,9,22,8
5,-1,-7,-1,6,-4,-20,0,-6,8,23,10
6,0,-7,-2,6,-4,-21,0,-6,8,23,12
6,0,-7,-2,7,-4,-21,0,-6,7,24,14
7,0,-7,-3,7,-4,-22,0,-7,7,24,15
8,0,-7,-3,8,-4,-24,0,-7,7,24,16
8,1,-7,-4,8,-4,-24,0,-7,8,24,17
8,1,-7,-4,9,-4,-24,0,-6,8,24,18
9,1,-7,-4,9,-4,-24,0,-5,8,24,19
9,2,-7,-5,9,-3,-25,0,-5,8,24,20
9,2,-7,-5,9,-3,-24,0,-4,8,23,20
9,2,-7,-5,9,-3,-24,0,-3,9,23,20
9,2,-7,-5,9,-3,-24,1,-2,9,22,20
9,2,-7,-5,8,-2,-24,2,-1,9,21,19
9,2,-7,-5,8,-2,-23,2,0,8,20,19
9,2,-7,-5,8,-2,-23,3,1,8,19,18
9,2,-7,-5,8,-2,-22,3,2,9,18,17
8,2,-7,-5,7,-2,-22,4,3,9,17,16
8,2,-6,-4,7,-2,-21,4,3,10,16,16
7,2,-6,-4,6,-2,-20,5,4,10,16,15
7,2,-6,-4,6,-2,-20,5,5,10,15,14
7,2,-5,-4,6,-1,-20,6,6,9,14,13
6,1,-5,-4,6,-1,-19,6,7,9,14,12
6,1,-4,-3,5,-1,-18,6,8,9,13,12
5,1,-4,-3,5,-1,-18,7,8,9,13,11
5,1,-3,-2,5,-1,-17,7,9,9,12,11
4,1,-3,-2,4,0,-16,7,9,9,11,10
3,1,-2,-2,3,0,-15,7,9,9,11,10
3,1,-2,-2,3,0,-15,7,9,10,10,9
2,1,-1,-2,3,0,-14,7,9,10,10,9
2,1,-1,-2,2,0,-14,7,9,9,9,8
1,1,0,-2,2,1,-14,7,9,9,9,7
1,1,0,-2,1,1,-13,7,8,8,9,7
1,1,0,-2,1,1,-12,7,8,8,8,6
1,2,1,-1,1,1,-12,6,7,8,8,6
0,2,1,-1,0,2,-11,6,7,8,8,6
0,2,2,-1,0,2,-10,6,7,8,8,6
0,2,2,-1,0,2,-10,6,7,7,7,6
0,2,3,-1,-1,3,-10,6,7,7,6,6
0,2,3,-1,-1,3,-10,6,7,8,6,6
0,2,3,-1,-1,3,-9,6,6,8,6,6
0,2,3,-1,-1,3,-8,6,6,8,6,5
0,3,3,-1,-1,3,-8,6,6,8,7,5
0,3,4,-1,-1,3,-8,5,6,9,7,5
-1,3,4,-1,-1,3,-8,5,5,9,7,5
-1,4,4,-1,-2,3,-8,4,5,9,6,4
-1,4,4,-1,-2,3,-9,4,5,8,5,4
-1,4,4,-1,-2,4,-9,4,5,8,5,4
-1,3,4,-1,-2,4,-9,4,5,8,6,4
-1,3,4,-1,-2,4,-10,4,4,8,6,4
-1,3,4,0,-2,4,-11,4,4,8,5,3
-1,3,4,0,-2,4,-11,4,4,8,5,3
-1,3,4,0,-2,4,-11,4,4,8,5,3
-1,3,4,0,-2,4,-11,4,4,8,6,3
-1,3,4,0,-2,4,-11,4,4,7,7,4
-1,3,4,0,-2,3,-11,4,4,7,8,4
-1,2,4,0,-2,3,-11,4,4,7,7,4
-1,2,3,0,-1,2,-12,4,4,7,7,4
-1,2,3,0,-1,2,-13,4,4,7,6,4
-1,2,3,0,-1,2,-13,4,3,7,6,4
-1,2,2,0,-1,2,-12,4,3,8,6,4
-1,1,2,0,-1,2,-13,4,3,8,6,3
-1,1,2,0,-1,1,-13,4,2,7,6,3
-1,1,2,0,-1,1,-13,4,2,7,6,3
-1,0,2,0,-1,1,-12,4,2,7,6,3
-1,0,2,0,-1,1,-12,4,2,6,6,2
-1,0,1,0,-1,1,-11,4,2,6,5,2
-1,0,1,1,0,0,-11,4,2,5,4,2
-1,0,0,1,0,0,-11,4,2,5,4,2
-1,0,0,1,0,0,-11,4,2,4,3,2
-1,-1,0,1,0,0,-11,4,2,4,3,2
-1,-1,0,1,0,-1,-11,4,2,4,3,2
-1,-2,-1,1,0,-1,-10,4,2,4,3,2
-1,-2,-1,2,0,-2,-10,4,1,4,3,2
-1,-2,-1,2,0,-2,-9,4,1,4,3,2
-1,-2,-2,2,0,-2,-9,4,1,3,3,1
-1,-3,-2,2,1,-3,-9,4,1,3,3,1
-1,-3,-3,2,1,-3,-9,4,0,3,3,1
-1,-3,-3,2,1,-3,-10,3,0,2,2,1
-1,-3,-4,2,2,-4,-10,3,0,2,2,1
-1,-3,-4,2,2,-4,-11,3,0,1,2,1
0,-3,-4,2,2,-4,-12,3,0,1,2,1
0,-3,-4,2,2,-4,-12,3,0,2,2,1
0,-3,-4,2,2,-4,-11,3,0,2,2,1
1,-3,-4,1,2,-4,-10,3,0,2,2,2
1,-3,-4,1,3,-4,-10,4,1,2,2,2
1,-2,-4,1,3,-3,-10,5,2,3,3,3
1,-2,-3,0,3,-3,-9,5,2,4,5,3
2,-1,-3,0,3,-2,-9,5,3,5,6,4
2,0,-3,0,3,-2,-9,5,3,5,6,4
1,0,-3,0,2,-2,-8,5,3,5,6,3
1,-1,-3,0,2,-2,-8,5,2,5,5,3
0,-1,-2,0,2,-2,-7,5,2,5,4,3
0,-1,-2,0,1,-2,-7,5,2,4,4,3
0,-1,-1,1,1,-2,-7,5,2,4,3,3
-1,-2,-1,1,1,-2,-7,5,2,4,4,3
-1,-2,-1,2,0,-2,-6,5,2,4,4,3
-2,-3,-1,2,0,-2,-5,5,2,4,4,3
-2,-3,-1,2,0,-2,-4,6,3,4,4,3
-2,-3,-1,3,0,-2,-4,6,3,4,4,3
-2,-3,-1,3,0,-2,-4,6,3,4,4,3
-2,-3,-1,3,0,-3,-3,6,3,4,4,2
-2,-3,-1,3,0,-3,-3,6,3,4,4,2
-2,-3,-1,3,0,-2,-4,6,3,4,5,2
-2,-3,0,3,0,-2,-4,6,3,4,5,2
-2,-3,0,3,0,-2,-4,6,3,4,5,2
-3,-3,0,3,0,-2,-4,6,3,3,4,2
-3,-3,0,3,0,-2,-4,6,2,3,4,2
-3,-3,0,3,0,-2,-3,6,2,3,4,2
-3,-3,0,3,0,-2,-3,6,2,4,4,2
-3,-3,0,3,0,-2,-3,6,2,4,5,2
-3,-3,0,3,0,-2,-3,6,2,4,5,2
-3,-3,0,3,0,-2,-3,6,2,4,5,2
-3,-3,0,3,0,-2,-3,6,2,4,4,2
-3,-3,0,3,0,-2,-3,6,2,4,4,1
-3,-3,0,3,0,-2,-3,6,2,4,4,1
-3,-3,0,3,0,-2,-2,6,2,4,4,2
-3,-3,0,3,0,-2,-2,6,2,4,4,2
-3,-3,0,3,0,-2,-3,6,2,4,4,2
-3,-3,0,3,0,-2,-2,6,2,3,4,2
-3,-3,0,3,0,-2,-2,6,2,3,5,2
-3,-3,0,3,0,-2,-2,6,2,4,5,2
-3,-3,0,3,0,-2,-2,6,2,4,5,2
-3,-3,0,3,0,-2,-2,6,2,4,5,2
-3,-3,0,3,0,-2,-2,6,2,4,5,2
-3,-3,0,3,-1,-2,-2,6,2,4,5,1
-3,-3,0,3,-1,-2,-2,6,2,4,5,1
-3,-3,0,3,-1,-2,-2,6,2,4,5,1
-3,-3,0,3,-1,-2,-1,6,2,4,4,1
-3,-3,0,3,-1,-2,-1,7,2,4,5,2
-3,-3,0,3,-1,-2,-2,7,3,4,5,2
-3,-3,0,3,-1,-2,-1,7,3,3,5,2
-3,-3,0,3,-1,-2,-1,7,3,3,5,2
-3,-3,0,3,-1,-2,-2,7,3,4,5,2
-3,-2,0,3,-1,-2,-2,7,3,6,5,2
-3,-2,0,3,-1,-2,-1,7,3,6,5,2
-3,-2,0,3,-1,-1,-1,7,3,6,5,2
-3,-2,0,3,-1,-1,-1,7,2,5,5,2
-3,-2,0,3,-1,-1,-1,7,2,5,5,2
-3,-2,0,3,-1,-1,0,7,2,5,7,2
-3,-2,0,3,-1,-1,-1,8,3,6,8,2
-3,-2,0,3,-1,-2,0,9,5,8,8,2
-3,-3,-1,3,-1,-2,0,10,7,9,10,2
-3,-3,-1,3,0,-3,1,12,11,12,11,1
-3,-4,-2,3,0,-3,2,15,14,15,13,0
-3,-4,-2,3,0,-3,3,17,17,19,15,0
-3,-4,-2,3,0,-3,3,17,19,24,18,1
-2,-3,-1,3,0,-2,2,17,20,28,22,2
-2,-2,-1,2,0,-1,2,16,19,30,27,4
-1,0,0,1,0,0,1,15,18,32,31,7
0,1,1,0,0,1,0,13,15,32,36,12
0,3,2,-2,0,3,-2,10,12,32,40,17
1,6,4,-3,-1,5,-4,8,9,32,44,24
2,8,5,-5,0,6,-6,5,6,32,50,31
4,10,5,-7,0,8,-8,3,3,32,56,39
6,12,5,-9,1,9,-10,1,1,32,63,48
9,14,5,-12,2,10,-12,-1,0,34,70,58
11,16,5,-14,3,11,-15,-3,-1,36,77,70
13,19,5,-16,4,12,-17,-5,-4,37,85,82
15,21,6,-18,5,14,-19,-8,-7,38,91,96
17,23,6,-20,6,15,-22,-12,-11,37,98,111
20,26,6,-23,7,16,-25,-16,-16,36,104,127
23,28,5,-26,8,17,-28,-20,-20,34,108,140
25,29,4,-27,10,17,-30,-22,-22,32,108,149
28,30,2,-28,12,16,-33,-23,-23,29,106,152
29,29,0,-29,14,14,-34,-23,-23,27,102,150
30,28,-2,-29,17,12,-34,-23,-22,23,95,143
31,26,-5,-28,19,10,-34,-23,-20,19,81,131
31,23,-8,-27,20,7,-33,-22,-19,11,54,112
30,20,-10,-25,20,5,-31,-20,-18,-1,18,91
28,17,-11,-22,19,3,-30,-19,-17,-16,-19,69
24,14,-10,-19,17,2,-27,-18,-18,-33,-56,47
19,12,-7,-15,13,2,-24,-19,-21,-50,-87,26
13,10,-3,-11,8,3,-21,-20,-25,-64,-109,7
8,9,1,-9,3,5,-18,-22,-28,-75,-123,-10
4,9,5,-7,-1,7,-16,-22,-29,-81,-129,-25
0,9,8,-5,-4,8,-14,-22,-25,-84,-131,-37
-3,8,11,-3,-7,9,-12,-19,-18,-83,-129,-46
-5,7,13,-1,-9,10,-10,-16,-11,-78,-124,-52
-8,6,14,1,-11,10,-7,-12,-3,-71,-117,-56
-10,5,15,3,-12,10,-3,-8,4,-62,-107,-58
-13,3,16,5,-14,9,0,-4,11,-52,-97,-58
-15,1,16,7,-15,8,3,0,18,-42,-86,-57
-18,0,16,9,-17,7,7,3,24,-34,-76,-55
-19,-2,16,11,-18,6,10,6,28,-28,-67,-52
-21,-4,16,12,-18,5,13,7,31,-22,-59,-50
-22,-6,16,14,-19,4,15,8,33,-17,-52,-47
-23,-7,16,15,-19,4,17,9,35,-12,-46,-45
-23,-8,15,16,-19,3,19,10,36,-9,-41,-42
-24,-8,15,16,-19,3,22,11,34,-8,-38,-41
-24,-8,15,17,-20,3,24,11,31,-10,-35,-39
-25,-8,15,17,-20,3,25,10,26,-12,-32,-37
-25,-8,15,17,-20,3,26,9,21,-14,-30,-35
-25,-9,15,17,-20,3,27,8,15,-16,-29,-33
-25,-9,16,17,-20,3,28,6,9,-16,-27,-31
-25,-9,16,17,-20,3,30,5,4,-16,-26,-30
-25,-9,16,17,-21,3,32,4,0,-15,-25,-29
-25,-9,16,17,-20,2,33,3,-3,-15,-24,-28
-25,-10,15,18,-20,1,35,3,-6,-16,-24,-28
-25,-10,14,18,-20,1,36,2,-10,-16,-23,-27
-25,-10,14,18,-20,1,37,1,-13,-16,-22,-26
-25,-10,14,18,-20,0,37,0,-15,-14,-20,-25
-25,-10,14,17,-20,0,38,0,-16,-13,-18,-23
-24,-10,14,17,-19,0,39,0,-15,-11,-17,-22
-23,-10,14,16,-18,0,41,0,-14,-9,-16,-21
-22,-9,13,16,-17,0,42,0,-14,-8,-14,-20
-21,-9,12,15,-16,0,42,0,-13,-7,-13,-20
-20,-9,12,15,-16,0,42,1,-13,-6,-12,-19
-20,-9,11,14,-15,0,40,1,-13,-5,-11,-18
-19,-9,10,14,-15,0,39,0,-13,-5,-12,-17
-18,-8,9,14,-14,0,36,0,-14,-4,-12,-16
-17,-8,8,13,-13,-1,32,-1,-14,-4,-11,-14
-15,-8,7,12,-11,-1,27,-2,-14,-4,-9,-13
-14,-8,6,11,-10,-2,23,-3,-14,-3,-7,-13
-12,-8,5,10,-8,-2,19,-3,-13,-3,-6,-13
-12,-7,4,9,-7,-2,16,-4,-13,-3,-5,-12
-11,-7,3,9,-7,-2,13,-4,-12,-2,-4,-11
-11,-7,3,9,-7,-2,11,-4,-11,-1,-3,-10
-10,-7,3,8,-6,-3,8,-4,-10,0,-2,-10
-10,-6,3,8,-6,-3,6,-4,-10,0,-2,-9
-9,-6,2,8,-6,-3,4,-4,-9,1,-2,-9
-8,-6,2,7,-5,-3,3,-4,-8,1,-2,-8
-7,-6,1,7,-5,-3,1,-4,-7,2,-1,-8
-7,-6,1,6,-4,-3,0,-3,-6,3,-1,-8
-6,-6,0,6,-4,-3,0,-2,-5,3,-1,-7
-6,-5,0,5,-4,-3,-1,-2,-3,4,-1,-7
-6,-5,0,5,-3,-3,-1,-1,-2,4,0,-6
-5,-4,0,5,-3,-3,-1,-1,-1,4,1,-6
-5,-4,0,5,-3,-3,-1,-1,-1,6,2,-5
-4,-4,0,5,-3,-3,-1,-1,-2,7,3,-5
-4,-4,0,5,-2,-3,-2,0,-2,8,3,-5
-4,-4,-1,4,-2,-3,-3,0,-1,8,3,-5
-4,-4,-1,4,-1,-3,-3,0,0,8,3,-4
-4,-4,-1,4,-1,-3,-4,1,0,8,4,-4
-4,-4,-1,4,-1,-3,-3,1,0,9,4,-4
-4,-4,-1,4,-1,-3,-3,1,0,9,4,-4
-3,-4,-1,4,-1,-3,-3,1,0,9,4,-5
-3,-4,-1,4,-1,-3,-3,1,0,9,4,-5
-3,-4,-1,4,-1,-3,-3,1,0,9,4,-5
-3,-4,-1,4,-1,-3,-4,1,1,9,3,-5
-3,-4,-1,4,-1,-3,-4,1,1,9,3,-5
-3,-4,-1,4,-1,-3,-3,1,1,8,3,-5
-3,-4,-1,4,-1,-3,-3,2,2,8,3,-5
-3,-4,-1,4,-1,-3,-3,2,2,9,3,-5
-3,-4,-1,4,-1,-3,-3,2,2,9,3,-5
-3,-4,-1,4,-1,-3,-3,2,2,9,3,-5
-3,-4,-1,4,-1,-3,-3,2,2,9,3,-6
-3,-4,-1,4,-1,-3,-3,2,2,9,3,-6
-3,-4,-1,4,-1,-3,-3,2,2,10,3,-6
-3,-4,-1,4,-1,-3,-3,2,2,10,4,-6
-4,-5,-1,4,-1,-3,-3,2,2,10,4,-6
-4,-5,-1,4,-1,-3,-3,2,2,10,4,-6
-4,-5,-1,4,-1,-3,-3,2,2,10,4,-6
-4,-5,-1,4,-1,-3,-3,2,2,9,3,-6
-4,-5,-1,4,-1,-3,-3,3,2,9,2,-6
-4,-5,-1,4,-1,-3,-3,3,2,9,2,-6
-4,-5,-1,4,-1,-3,-3,3,2,9,2,-7
-4,-5,-1,4,-1,-3,-3,3,2,10,3,-7
-4,-5,-2,4,-1,-4,-3,3,2,10,3,-8
-4,-5,-2,4,-1,-4,-3,3,2,10,3,-8
-4,-5,-2,4,-1,-4,-3,3,2,10,2,-9
-4,-5,-2,4,-1,-4,-3,3,2,10,2,-8
-4,-5,-2,4,-1,-4,-3,3,2,10,2,-8
-4,-6,-2,5,-1,-4,-2,3,2,9,2,-8
-4,-6,-2,5,-1,-4,-2,3,3,9,2,-8
-4,-6,-2,5,-1,-4,-3,3,3,9,1,-8
-4,-6,-2,5,-1,-4,-2,3,3,9,1,-9
-4,-7,-2,5,-1,-5,-2,3,3,8,0,-9
-4,-7,-3,5,-1,-5,-2,3,3,8,0,-10
-4,-7,-3,5,-1,-5,-2,3,3,8,0,-11
-4,-7,-3,6,-1,-5,-2,3,3,8,0,-11
-4,-7,-3,6,-1,-5,-2,3,3,8,0,-12
-4,-7,-3,6,0,-5,-2,3,3,9,0,-12
-4,-8,-3,6,0,-5,-2,4,3,9,-1,-13
-4,-8,-3,6,0,-5,-1,4,3,10,-2,-14
-4,-8,-3,6,0,-5,-2,4,3,10,-3,-15
-4,-8,-4,6,0,-6,-2,4,3,9,-4,-16
-4,-8,-4,6,0,-6,-1,4,3,9,-4,-17
-4,-8,-4,6,0,-6,0,4,3,9,-4,-17
-4,-8,-4,6,0,-6,-1,4,4,8,-5,-18
-4,-8,-4,6,0,-6,-1,4,4,8,-5,-19
-4,-8,-4,7,0,-6,-1,5,4,8,-5,-20
-4,-8,-4,7,0,-6,-1,5,5,8,-6,-21
-4,-9,-4,7,0,-6,-1,5,5,8,-6,-23
-4,-9,-4,7,0,-6,-1,5,5,8,-7,-24
-4,-9,-4,7,0,-7,-1,5,5,8,-6,-24
-4,-9,-4,8,0,-7,-1,5,5,8,-6,-25
-4,-9,-4,8,0,-7,-1,5,5,8,-6,-25
-4,-9,-4,8,0,-7,-1,5,5,9,-5,-26
-4,-9,-4,8,0,-7,-1,6,5,9,-5,-26
-4,-9,-4,8,0,-7,-2,6,5,10,-4,-26
-4,-9,-4,8,0,-7,-2,6,5,10,-3,-26
-4,-9,-4,8,0,-7,-2,6,4,10,-2,-25
-4,-9,-4,8,0,-7,-2,6,4,10,-1,-24
-4,-9,-4,8,0,-7,-3,5,3,10,0,-23
-4,-8,-4,7,1,-7,-4,5,2,10,2,-22
-3,-8,-4,7,1,-6,-5,4,1,11,3,-20
-2,-7,-4,6,1,-6,-6,4,1,11,5,-18
-2,-7,-4,6,2,-6,-7,3,0,11,7,-15
-1,-6,-4,5,2,-5,-7,3,0,12,9,-13
-1,-6,-4,4,2,-5,-8,2,-1,12,11,-11
0,-5,-5,4,2,-5,-9,2,-2,13,13,-8
0,-5,-5,3,3,-5,-10,1,-3,13,15,-5
1,-4,-5,3,3,-5,-10,0,-4,13,17,-2
2,-4,-5,2,3,-5,-11,0,-4,13,19,1
3,-3,-5,1,4,-4,-13,-1,-5,13,21,4
4,-2,-5,0,5,-4,-14,-1,-5,13,22,6
5,-2,-6,-1,6,-4,-15,-2,-6,13,24,9
5,-1,-6,-1,6,-4,-16,-2,-6,13,25,11
6,-1,-6,-2,7,-4,-16,-3,-6,13,26,12
6,0,-7,-2,7,-4,-17,-3,-6,13,26,14
7,0,-7,-3,8,-4,-18,-3,-6,13,27,15
7,0,-7,-3,8,-4,-19,-3,-6,13,27,17
8,0,-7,-3,9,-4,-19,-3,-6,13,27,18
8,0,-7,-4,9,-4,-19,-3,-5,12,27,19
9,0,-7,-4,9,-4,-19,-3,-5,12,26,19
9,0,-7,-4,9,-4,-20,-2,-4,12,26,20
9,0,-8,-4,9,-4,-20,-2,-3,12,25,20
9,1,-8,-4,9,-4,-19,-1,-2,12,24,19
9,1,-7,-4,9,-3,-19,-1,-1,12,23,19
9,1,-7,-4,8,-3,-19,0,0,12,22,18
9,1,-7,-4,8,-3,-19,0,1,12,22,18
8,1,-7,-4,8,-3,-18,0,2,12,21,17
8,1,-7,-3,8,-3,-17,1,3,12,20,16
8,1,-6,-3,8,-3,-18,1,4,12,19,15
8,1,-6,-3,8,-3,-17,2,5,12,18,15
8,1,-6,-3,7,-2,-15,2,6,12,17,14
7,1,-5,-3,7,-2,-15,3,7,12,17,13
6,0,-5,-3,6,-2,-15,3,7,12,16,12
6,0,-5,-2,6,-2,-14,4,8,12,16,12
5,0,-5,-2,5,-2,-14,4,8,12,15,11
5,1,-4,-2,5,-2,-13,4,9,12,15,11
5,1,-4,-2,4,-2,-12,4,9,13,14,10
5,1,-3,-2,4,-1,-11,4,9,13,14,10
4,1,-2,-2,3,-1,-10,4,9,13,13,9
4,1,-2,-2,3,0,-10,4,9,13,13,9
3,1,-1,-1,3,0,-9,4,9,13,12,8
3,1,-1,-1,2,0,-9,4,9,13,12,8
2,1,0,0,2,0,-8,4,9,13,11,7
2,1,0,0,1,0,-8,4,9,12,11,7
2,1,0,0,1,0,-7,4,8,12,10,6
1,1,0,0,1,0,-7,4,8,12,10,6
1,1,0,0,1,0,-6,4,8,12,10,5
1,1,0,0,0,0,-5,3,7,12,10,5
1,1,1,0,0,1,-5,3,7,12,9,5
1,1,1,0,0,1,-4,3,7,12,9,5
1,2,2,0,0,2,-4,3,7,12,9,4
0,2,2,0,0,2,-3,3,6,12,8,4
0,2,2,0,-1,2,-3,3,6,12,8,4
0,2,2,0,-1,2,-3,3,6,12,8,4
0,3,3,0,-1,2,-4,2,6,12,8,4
0,3,3,0,-1,2,-4,2,5,12,8,4
0,3,3,0,-1,2,-5,1,5,12,8,4
0,3,3,0,-1,3,-5,1,5,12,8,4
0,3,4,0,-1,3,-4,1,5,12,8,4
0,2,4,0,-1,4,-5,1,5,12,8,4
0,2,4,0,-1,4,-5,1,5,12,8,4
0,2,4,0,-1,4,-5,1,5,11,8,4
0,2,4,0,-1,3,-5,1,5,11,8,4
0,2,3,0,-1,3,-6,1,5,11,8,4
0,1,3,0,-1,2,-7,1,5,11,8,4
0,1,3,0,-1,2,-7,1,5,11,8,4
0,1,3,0,-1,2,-7,1,4,11,8,4
0,1,2,0,-1,2,-7,1,4,11,7,3
0,1,2,0,0,2,-7,1,4,11,7,3
0,1,2,0,0,2,-7,1,4,11,7,3
0,1,2,0,0,2,-7,1,4,10,7,3
0,0,1,0,0,1,-7,1,3,10,6,2
0,0,1,0,0,1,-7,1,3,9,6,2
0,0,0,0,0,0,-6,1,3,9,7,2
0,0,0,0,0,0,-6,1,3,8,7,2
0,-1,0,1,1,0,-6,1,3,8,6,2
0,-1,-1,1,1,0,-6,1,3,8,6,2
0,-1,-1,1,1,0,-6,1,2,8,6,2
1,-1,-1,1,1,-1,-6,1,2,8,5,2
1,-1,-2,1,2,-1,-6,1,2,8,5,1
1,-2,-2,1,2,-1,-6,1,2,7,4,1
1,-2,-2,2,2,-2,-5,1,2,7,4,1
1,-3,-3,2,2,-2,-5,1,2,6,4,1
1,-3,-3,2,2,-3,-5,1,1,6,4,1
0,-4,-4,2,2,-3,-4,1,1,6,3,1
0,-4,-4,3,2,-4,-4,1,1,6,3,1
0,-4,-4,3,3,-4,-4,1,1,5,3,1
0,-4,-4,3,3,-4,-5,1,1,5,3,1
0,-5,-4,3,3,-5,-6,1,1,4,2,0
0,-5,-5,3,3,-5,-5,1,0,3,2,0
1,-5,-5,2,3,-5,-5,1,0,3,2,0
1,-4,-5,2,3,-4,-5,1,0,3,2,0
2,-4,-5,2,4,-5,-5,1,0,3,2,1
2,-4,-6,1,4,-5,-5,1,0,3,2,1
3,-4,-6,1,5,-5,-4,1,0,3,3,2
3,-4,-6,1,5,-5,-3,2,1,3,3,2
3,-4,-6,1,6,-5,-3,2,2,4,4,3
3,-3,-6,0,5,-5,-3,3,2,4,4,3
3,-3,-6,0,5,-4,-3,3,3,5,5,3
4,-2,-5,0,5,-4,-3,3,3,5,5,3
4,-2,-5,0,5,-3,-3,2,3,5,5,3
3,-2,-4,0,4,-3,-2,2,3,5,6,3
3,-2,-4,0,4,-3,-2,2,3,5,6,3
2,-2,-4,1,3,-3,-2,2,2,5,5,3
2,-2,-4,1,3,-3,-1,2,2,5,5,2
1,-2,-4,1,3,-3,-1,2,2,4,4,2
1,-3,-4,2,3,-4,-1,2,2,4,4,2
0,-4,-4,3,2,-4,0,2,2,4,4,1
0,-5,-4,3,2,-4,1,2,2,4,4,1
0,-5,-4,4,2,-4,1,2,2,4,4,1
0,-5,-4,4,2,-5,1,2,2,4,4,1
0,-5,-4,4,2,-5,1,2,2,3,4,1
0,-5,-4,4,2,-5,2,2,2,3,4,1
0,-4,-3,4,2,-4,2,2,2,2,4,1
0,-4,-3,4,2,-4,1,2,2,2,4,1
0,-4,-3,3,2,-4,1,2,2,2,3,1
0,-4,-3,3,2,-4,1,2,2,2,3,1
0,-4,-3,3,2,-4,1,2,2,2,2,1
0,-4,-3,3,2,-4,0,2,2,2,2,1
0,-4,-3,3,1,-4,1,2,2,1,2,1
0,-4,-3,3,1,-4,1,2,2,1,2,1
0,-4,-3,3,1,-4,1,2,2,1,2,1
0,-4,-3,3,1,-4,1,2,2,1,2,1
0,-4,-3,3,2,-4,1,2,2,1,2,1
0,-4,-3,3,2,-4,1,2,2,1,2,1
0,-4,-3,3,2,-3,1,2,2,1,2,1
0,-4,-2,3,1,-3,1,2,1,0,2,1
0,-3,-2,3,1,-3,1,2,1,0,2,1
0,-3,-2,2,1,-3,1,2,1,0,2,1
0,-3,-2,2,1,-3,2,2,1,0,2,1
0,-3,-2,3,1,-3,2,2,1,0,2,1
0,-4,-2,3,1,-3,2,2,1,0,2,1
0,-4,-3,3,2,-3,2,2,1,0,2,1
0,-4,-3,3,2,-3,2,2,1,0,2,1
0,-4,-3,3,2,-3,1,2,1,-1,2,1
0,-4,-3,2,2,-3,1,2,1,-1,2,1
0,-3,-3,2,2,-3,2,2,1,-1,2,1
1,-3,-3,2,2,-3,3,2,1,-1,2,1
1,-4,-3,2,2,-4,3,2,1,-1,1,1
0,-4,-3,3,2,-4,3,2,1,-1,1,1
1,-4,-4,3,2,-4,3,2,1,-2,1,1
1,-4,-4,3,2,-4,2,2,0,-2,1,1
0,-4,-4,3,2,-4,2,1,0,-2,1,1
0,-4,-3,3,2,-4,2,1,0,-2,1,1
0,-4,-3,3,2,-4,2,1,0,-2,1,1
0,-3,-3,2,2,-4,2,1,0,-2,1,1
0,-3,-3,2,2,-4,3,1,0,-2,1,1
0,-3,-3,2,2,-4,3,1,0,-2,1,1
0,-3,-3,2,2,-4,3,1,0,-1,1,1
0,-3,-3,2,2,-4,3,2,1,-1,2,1
0,-4,-3,3,2,-4,4,2,2,0,2,1
0,-4,-4,3,2,-5,4,3,3,1,3,1
0,-5,-4,3,2,-5,5,5,6,3,4,1
0,-5,-4,3,2,-5,6,7,9,5,5,1
0,-5,-4,3,2,-5,7,9,13,9,7,0
0,-4,-4,3,2,-5,7,11,15,12,10,0
0,-4,-4,2,2,-4,7,11,17,16,13,1
1,-3,-4,2,2,-4,7,10,17,19,17,2
2,-1,-4,0,3,-3,6,10,17,22,22,5
3,0,-3,-1,3,-3,5,9,15,24,27,9
3,0,-2,-1,3,-2,4,7,13,25,32,14
4,2,-1,-2,3,0,3,4,9,25,37,20
5,4,0,-4,3,1,1,1,6,25,42,27
7,6,0,-6,3,3,0,-1,4,25,47,35
9,9,1,-9,4,4,-3,-3,1,25,52,43
11,11,1,-11,5,6,-5,-5,0,26,58,52
14,14,1,-14,6,7,-7,-7,-1,27,65,62
16,15,0,-15,8,7,-10,-8,-2,29,73,74
18,17,0,-17,9,7,-12,-10,-4,31,80,87
21,18,0,-19,11,8,-13,-13,-7,31,87,101
23,20,-1,-21,13,9,-17,-17,-11,31,94,117
26,23,-2,-24,14,10,-21,-21,-15,31,99,133
29,25,-3,-26,16,10,-23,-24,-18,29,101,144
31,25,-5,-28,18,10,-25,-26,-20,26,100,149
33,25,-7,-29,20,8,-26,-27,-21,24,96,147
35,25,-10,-30,23,7,-28,-27,-20,21,90,140
37,24,-13,-30,25,5,-28,-26,-19,17,79,128
38,22,-16,-30,27,2,-27,-25,-18,11,60,110
37,19,-18,-28,27,0,-27,-23,-18,0,30,87
36,16,-19,-26,27,-1,-26,-22,-18,-14,-7,64
33,13,-19,-23,26,-3,-24,-22,-18,-30,-43,41
28,11,-16,-19,23,-2,-21,-22,-20,-47,-74,20
22,10,-11,-15,17,-1,-18,-23,-25,-62,-98,1
16,10,-6,-12,11,1,-15,-25,-30,-73,-114,-15
11,10,0,-10,6,4,-12,-27,-33,-80,-124,-29
7,11,5,-9,1,7,-9,-27,-32,-84,-128,-40
3,11,9,-7,-3,9,-8,-25,-28,-85,-129,-49
0,10,12,-5,-6,11,-7,-22,-21,-84,-127,-55
-2,9,13,-3,-7,11,-4,-18,-12,-80,-122,-59
-5,8,13,-1,-9,11,0,-13,-3,-75,-116,-61
-8,6,14,1,-11,10,2,-8,5,-67,-107,-62
-10,4,14,4,-12,9,5,-4,13,-57,-96,-61
-13,2,15,6,-13,8,9,0,20,-48,-86,-59
-14,0,15,7,-14,7,13,4,26,-40,-77,-57
-15,-1,15,8,-15,6,16,7,31,-33,-68,-54
-17,-3,15,9,-15,5,19,9,35,-27,-61,-51
-18,-5,14,11,-15,4,21,10,37,-22,-54,-48
-18,-6,14,12,-16,3,23,10,40,-17,-47,-45
-19,-6,13,13,-16,3,25,11,40,-13,-42,-43
-20,-7,13,14,-17,3,26,10,37,-13,-39,-41
-21,-7,14,14,-17,3,28,9,32,-14,-37,-40
-22,-7,14,14,-17,3,29,8,26,-16,-36,-38
-21,-7,14,14,-17,3,30,7,19,-18,-34,-36
-21,-7,14,14,-17,3,31,4,12,-19,-33,-34
-20,-6,14,14,-17,3,33,2,6,-20,-32,-31
-20,-6,15,14,-17,4,35,1,2,-20,-30,-30
-20,-6,15,14,-17,4,36,0,-1,-20,-29,-29
-20,-6,14,14,-17,3,38,0,-4,-20,-28,-28
-20,-7,14,14,-17,3,39,-1,-7,-21,-27,-28
-20,-7,13,14,-16,2,40,-1,-10,-21,-27,-27
-20,-8,12,14,-16,1,41,-3,-14,-21,-26,-25
-20,-8,11,14,-15,1,41,-4,-16,-19,-24,-24
-19,-8,11,13,-14,1,42,-4,-16,-18,-23,-23
-18,-8,10,13,-14,1,44,-5,-15,-16,-22,-22
-17,-8,10,13,-13,1,45,-5,-14,-15,-21,-21
-17,-7,10,12,-13,1,46,-4,-14,-14,-20,-20
-16,-7,9,12,-12,1,46,-4,-14,-13,-19,-20
-15,-7,9,11,-12,1,46,-4,-15,-12,-17,-20
-14,-6,8,11,-11,1,45,-4,-15,-12,-16,-19
-13,-6,7,10,-10,0,43,-4,-15,-11,-16,-18
-12,-5,7,10,-9,0,40,-5,-16,-12,-16,-17
-11,-5,6,9,-8,0,35,-6,-17,-13,-16,-16
-10,-5,6,9,-7,0,31,-7,-18,-13,-15,-15
-9,-6,5,8,-7,0,27,-8,-17,-13,-15,-14
-8,-6,4,8,-6,-1,23,-9,-17,-13,-14,-14
-7,-5,3,7,-4,-1,19,-9,-17,-13,-13,-13
-6,-4,2,6,-4,-1,16,-9,-16,-13,-12,-12
-5,-4,2,5,-3,-1,14,-9,-15,-12,-11,-11
-4,-4,1,4,-3,-1,12,-9,-14,-11,-10,-10
-4,-3,1,4,-2,-1,10,-9,-13,-11,-10,-9
-3,-3,1,4,-2,-1,8,-8,-12,-10,-9,-9
-3,-3,1,3,-1,-1,7,-7,-11,-10,-9,-8
-2,-3,0,3,0,-1,6,-7,-10,-9,-8,-8
-1,-3,0,2,0,-1,5,-6,-9,-8,-8,-8
-1,-2,0,2,0,-1,4,-6,-8,-7,-7,-7
0,-2,0,1,1,-1,4,-5,-7,-6,-7,-7
0,-2,0,1,1,-1,3,-5,-6,-6,-7,-6
0,-2,-1,0,1,-1,3,-4,-6,-5,-6,-6
1,-2,-1,0,2,-1,2,-4,-5,-5,-6,-5
1,-2,-2,0,2,-1,1,-3,-5,-5,-5,-5
1,-2,-2,0,3,-2,1,-3,-5,-5,-5,-5
1,-2,-2,0,3,-2,2,-3,-4,-4,-5,-5
1,-2,-2,0,3,-3,2,-2,-4,-4,-5,-5
1,-2,-2,0,3,-3,2,-2,-3,-4,-5,-5
2,-2,-2,0,3,-3,2,-2,-3,-3,-5,-5
2,-2,-2,0,3,-3,2,-2,-3,-3,-5,-5
1,-2,-2,0,2,-3,2,-2,-3,-3,-5,-5
1,-2,-2,0,2,-3,1,-2,-3,-3,-4,-5
2,-2,-3,0,3,-3,1,-2,-2,-3,-4,-5
2,-1,-3,0,3,-2,1,-2,-2,-3,-3,-5
3,-1,-2,-1,3,-2,1,-2,-2,-2,-3,-5
3,-1,-2,-1,3,-2,1,-2,-2,-2,-4,-6
3,-1,-2,0,3,-2,1,-2,-2,-3,-5,-6
3,-1,-2,0,3,-2,1,-1,-2,-3,-5,-6
2,-1,-2,0,3,-2,1,-1,-2,-2,-5,-6
2,-1,-3,0,3,-2,1,-1,-2,-2,-5,-6
2,-1,-3,0,3,-2,2,-1,-2,-2,-4,-6
2,-1,-3,0,3,-2,2,-1,-2,-2,-4,-6
1,-1,-3,0,3,-2,2,-1,-2,-2,-4,-6
1,-2,-3,0,3,-3,2,-1,-2,-2,-4,-6
1,-2,-3,1,3,-3,2,-1,-2,-2,-4,-6
1,-2,-3,1,3,-3,2,-1,-2,-2,-4,-6
2,-2,-3,0,3,-3,2,-1,-2,-2,-4,-6
2,-2,-3,0,3,-2,2,-1,-2,-2,-5,-7
2,-2,-3,0,3,-2,2,-1,-2,-3,-5,-7
2,-2,-4,0,3,-2,2,-1,-2,-3,-5,-7
2,-2,-4,0,3,-3,1,-1,-2,-3,-5,-7
1,-2,-4,0,3,-3,2,-1,-2,-3,-5,-7
1,-2,-4,0,3,-3,2,-1,-2,-3,-5,-7
1,-2,-4,0,3,-3,3,-1,-2,-2,-5,-8
1,-2,-4,0,3,-3,3,-1,-2,-2,-5,-8
1,-2,-4,0,2,-3,2,-1,-2,-3,-5,-8
1,-2,-4,0,2,-3,2,-1,-2,-3,-6,-9
1,-2,-4,0,2,-3,1,-1,-2,-3,-6,-9
1,-2,-4,0,2,-3,1,-1,-2,-3,-7,-10
1,-1,-4,0,2,-2,1,-1,-2,-3,-7,-10
1,-1,-4,0,2,-2,1,-1,-2,-4,-8,-11
1,-1,-4,0,2,-2,0,-1,-2,-4,-8,-11
1,-1,-4,0,2,-2,0,-1,-2,-4,-8,-12
1,-2,-3,0,2,-2,1,-1,-2,-5,-9,-12
0,-2,-3,0,2,-2,1,-1,-3,-5,-10,-13
0,-2,-3,0,2,-2,1,-1,-3,-6,-11,-14
0,-2,-3,1,2,-2,1,-1,-3,-6,-12,-15
0,-2,-3,1,2,-2,1,-1,-3,-6,-12,-16
0,-3,-3,1,1,-2,2,-1,-3,-6,-13,-17
0,-3,-3,1,1,-2,2,0,-3,-6,-13,-17
0,-3,-3,1,1,-2,1,0,-3,-6,-13,-18
0,-3,-3,1,1,-3,1,0,-3,-7,-14,-19
0,-3,-3,2,1,-3,1,0,-3,-7,-15,-20
0,-3,-3,2,1,-3,1,0,-2,-7,-15,-22
0,-3,-3,2,1,-3,1,0,-2,-8,-16,-23
0,-2,-2,2,1,-2,1,0,-2,-8,-17,-24
-1,-2,-2,2,0,-2,1,0,-2,-8,-18,-25
-1,-3,-2,2,0,-3,1,0,-2,-8,-18,-26
-1,-3,-2,2,0,-3,2,0,-2,-8,-18,-27
-1,-4,-3,3,0,-4,2,1,-2,-8,-18,-28
-1,-5,-3,3,0,-4,2,1,-2,-8,-18,-29
-1,-4,-3,3,1,-4,2,1,-2,-8,-18,-30
-1,-4,-3,3,1,-4,1,1,-2,-8,-18,-30
-1,-4,-3,3,1,-4,1,0,-2,-8,-18,-30
-1,-4,-3,2,1,-4,0,0,-3,-8,-17,-30
-1,-3,-2,2,1,-3,0,0,-3,-8,-16,-30
-1,-3,-2,1,1,-3,0,0,-3,-7,-14,-29
0,-3,-2,1,1,-3,0,0,-4,-7,-12,-28
0,-2,-2,1,1,-3,0,-1,-5,-7,-11,-26
0,-2,-2,1,1,-3,0,-1,-5,-7,-9,-25
0,-2,-2,1,1,-3,-1,-1,-6,-6,-8,-23
0,-2,-3,1,2,-3,-2,-2,-7,-6,-6,-21
1,-1,-3,0,2,-3,-3,-3,-7,-6,-3,-18
2,-1,-4,0,3,-2,-4,-3,-8,-6,-1,-15
3,0,-4,-1,4,-2,-5,-4,-9,-6,0,-12
4,0,-4,-2,4,-2,-6,-4,-10,-6,3,-9
5,0,-5,-2,5,-2,-6,-5,-11,-6,5,-5
5,0,-5,-2,5,-3,-7,-5,-12,-6,6,-2
6,0,-6,-2,5,-3,-8,-6,-13,-7,7,0
7,1,-6,-3,6,-3,-9,-7,-14,-7,8,2
8,2,-6,-4,6,-2,-10,-8,-14,-7,10,5
8,3,-6,-5,7,-2,-10,-8,-15,-7,12,7
9,4,-6,-6,7,-2,-12,-8,-16,-7,13,10
10,4,-6,-6,8,-2,-13,-9,-16,-7,14,12
10,4,-6,-7,8,-1,-13,-9,-17,-7,15,14
11,5,-6,-8,9,-1,-13,-9,-17,-7,15,16
12,5,-7,-8,9,-1,-15,-9,-16,-7,15,17
12,5,-7,-8,10,-1,-16,-9,-16,-8,15,18
13,5,-8,-8,10,-2,-15,-9,-15,-8,14,19
13,4,-8,-8,11,-2,-15,-8,-14,-8,14,19
13,4,-9,-8,11,-2,-15,-7,-13,-8,13,19
13,4,-9,-8,11,-2,-15,-6,-12,-8,13,19
13,4,-9,-8,11,-3,-16,-6,-11,-8,13,18
13,4,-9,-8,10,-3,-15,-5,-10,-9,11,18
13,4,-9,-8,10,-2,-15,-5,-9,-9,10,17
13,5,-8,-8,10,-2,-14,-4,-9,-8,9,17
12,5,-8,-8,10,-1,-14,-4,-8,-8,9,16
12,5,-8,-8,10,-1,-13,-3,-6,-8,8,16
11,5,-7,-8,9,-1,-13,-2,-5,-8,7,15
11,4,-7,-7,9,-1,-12,-1,-3,-8,6,14
11,4,-7,-7,9,-1,-11,0,-2,-8,6,13
11,5,-6,-7,9,-1,-11,0,-1,-7,5,13
10,5,-5,-7,8,0,-11,0,-1,-7,5,12
10,5,-5,-6,8,0,-11,0,0,-7,4,11
9,5,-5,-6,7,0,-10,1,0,-7,4,10
9,5,-4,-6,7,0,-9,1,1,-6,3,9
9,5,-4,-6,6,0,-9,1,1,-6,3,9
8,5,-3,-6,6,0,-9,1,2,-6,2,8
8,5,-3,-6,5,1,-8,1,2,-6,1,7
8,6,-2,-6,5,1,-8,2,2,-6,1,7
8,6,-2,-6,4,1,-7,2,2,-6,1,6
7,6,-1,-6,4,1,-6,2,2,-6,1,5
6,6,0,-5,3,2,-6,2,2,-6,0,5
5,7,0,-6,2,3,-5,1,2,-6,0,5
5,8,1,-6,2,4,-4,1,2,-6,0,5
5,8,2,-7,1,5,-4,0,1,-6,0,5
5,8,2,-6,1,5,-3,0,1,-6,0,4
5,8,2,-6,1,5,-3,0,1,-6,-1,4
5,7,2,-5,1,5,-2,0,1,-6,-1,3
5,7,2,-5,0,5,-2,0,1,-6,-1,3
4,7,3,-5,0,5,-3,0,1,-6,-1,3
4,8,3,-5,0,6,-2,0,1,-6,-1,3
4,8,4,-5,0,6,-2,0,0,-6,-2,3
4,8,4,-5,0,6,-3,0,0,-6,-2,3
3,8,4,-5,0,6,-4,0,0,-6,-3,2
3,8,3,-5,0,5,-4,0,0,-6,-3,2
3,8,3,-5,0,5,-4,0,0,-6,-2,2
3,8,3,-5,0,5,-4,0,0,-6,-2,2
3,8,3,-5,-1,5,-5,0,-1,-6,-2,2
3,8,3,-5,-1,5,-5,0,-1,-6,-1,2
3,8,3,-5,0,5,-5,0,-1,-6,-1,2
4,7,2,-5,0,5,-5,0,-1,-6,-1,2
4,7,2,-5,1,5,-5,0,-1,-6,-2,2
4,7,2,-5,1,5,-6,0,-1,-6,-2,2
3,7,2,-5,0,5,-5,0,-1,-7,-2,2
3,6,2,-5,0,4,-5,0,-2,-7,-2,2
3,6,2,-5,0,4,-5,0,-2,-8,-2,2
3,6,2,-5,0,4,-4,0,-2,-8,-2,2
3,6,2,-5,0,4,-4,0,-3,-8,-2,1
3,6,2,-5,0,4,-5,0,-3,-9,-2,1
3,6,2,-5,0,4,-5,0,-3,-9,-3,1
2,6,2,-5,0,4,-5,0,-3,-9,-3,1
2,6,2,-4,0,4,-3,0,-3,-9,-3,1
2,6,2,-4,0,4,-3,0,-3,-9,-3,1
2,6,2,-4,0,4,-3,0,-3,-9,-3,1
3,6,1,-4,0,3,-4,0,-3,-9,-3,1
3,5,1,-4,1,3,-4,0,-3,-9,-3,1
3,4,0,-4,1,2,-4,0,-4,-9,-3,0
3,4,0,-3,1,2,-3,0,-4,-10,-4,0
3,3,-1,-3,1,1,-3,0,-4,-10,-4,0
3,3,-1,-3,1,1,-3,0,-4,-10,-3,0
3,3,-1,-3,2,1,-2,0,-4,-10,-3,0
3,3,-1,-3,2,1,-2,0,-4,-11,-3,0
3,3,-1,-3,2,1,-3,0,-4,-11,-4,0
3,3,-1,-3,2,1,-3,-1,-5,-12,-4,0
3,3,-1,-3,2,1,-3,-1,-5,-12,-4,0
3,3,-2,-3,2,1,-4,-1,-5,-12,-4,0
3,2,-2,-3,3,0,-5,-1,-5,-12,-4,0
4,2,-3,-3,3,0,-5,-1,-5,-12,-4,0
4,2,-3,-3,4,0,-4,0,-5,-12,-4,0
4,2,-3,-3,4,0,-3,0,-5,-12,-3,0
4,2,-3,-3,4,0,-3,0,-6,-12,-3,0
4,2,-3,-3,4,0,-3,0,-5,-11,-3,0
4,2,-3,-3,4,0,-2,1,-4,-10,-2,1
4,3,-2,-4,4,0,-2,1,-3,-9,-1,1
5,4,-2,-4,4,1,-1,1,-3,-9,-1,2
5,4,-1,-4,4,1,-1,1,-2,-9,-1,2
5,5,-1,-4,3,2,-1,1,-3,-9,-1,2
5,4,-1,-4,3,1,-1,1,-3,-9,-1,1
4,4,-1,-3,3,1,-1,1,-3,-9,-1,1
4,3,-1,-3,2,1,0,1,-3,-9,-1,1
3,3,-1,-3,2,1,0,1,-3,-9,-1,1
3,2,-1,-2,1,1,0,1,-3,-9,-1,1
2,2,-1,-2,1,1,1,1,-3,-9,-1,1
2,2,-1,-1,1,1,1,1,-3,-9,-1,1
1,2,0,-1,1,1,2,2,-3,-9,-1,0
1,1,0,-1,1,1,2,2,-3,-9,-1,0
1,1,0,0,0,1,2,2,-3,-9,-1,0
1,1,0,0,0,1,2,2,-3,-9,-1,0
1,1,0,0,0,1,2,2,-3,-8,-1,0
1,1,0,0,0,1,2,2,-2,-8,-1,0
1,1,0,0,0,1,2,2,-2,-8,-1,0
1,1,0,0,0,1,1,2,-2,-8,-1,0
1,1,0,0,0,1,2,2,-2,-8,-1,0
1,1,0,0,0,1,2,2,-2,-8,-1,0
1,1,0,0,0,1,2,2,-2,-8,-1,0
1,1,0,0,0,1,3,2,-2,-8,-1,0
1,1,0,0,0,1,2,2,-2,-8,-1,0
0,1,0,0,0,1,2,2,-2,-8,0,0
0,1,0,0,0,1,2,2,-2,-8,0,0
0,1,0,0,0,1,1,2,-2,-8,0,0
0,1,0,0,0,1,2,2,-2,-8,-1,0
0,1,0,0,0,1,2,2,-2,-8,-1,0
0,1,0,0,0,1,2,2,-2,-8,-1,0
0,1,0,0,0,1,2,2,-2,-7,0,0
0,1,0,0,0,1,2,2,-2,-7,0,0
0,1,0,0,0,1,2,2,-2,-7,0,0
0,1,0,0,0,1,2,2,-2,-7,0,0
0,1,0,0,0,1,2,2,-2,-7,0,0
0,1,0,0,0,1,3,3,-2,-7,0,0
0,1,0,0,0,1,3,3,-2,-6,0,0
0,1,0,0,0,1,2,3,-2,-6,0,0
0,1,0,0,0,1,3,3,-2,-6,0,0
0,1,0,0,0,1,3,3,-2,-6,0,0
0,1,0,0,0,1,2,3,-2,-6,0,0
0,1,0,0,0,1,2,3,-2,-6,0,0
0,1,0,0,0,1,2,3,-1,-6,1,1
0,1,0,0,0,1,3,3,-1,-6,1,1
0,1,0,0,0,1,3,3,-1,-6,1,1
0,1,0,0,0,0,3,3,-1,-6,1,1
0,1,0,0,0,0,3,3,-1,-5,1,1
0,1,0,0,0,0,3,3,0,-5,2,1
0,1,0,0,0,0,3,3,0,-5,2,1
0,1,0,0,0,0,3,3,0,-5,2,1
0,1,0,0,0,0,3,3,0,-5,2,1
1,1,-1,0,0,0,3,3,0,-4,2,1
1,1,-1,0,0,0,3,3,0,-4,3,1
1,1,-1,0,0,0,3,3,0,-3,3,1
1,0,-1,0,0,0,3,4,2,-1,4,1
1,0,-1,0,1,0,4,5,4,0,5,1
1,0,-2,0,1,-1,5,7,7,3,7,1
1,-1,-2,1,1,-1,5,10,11,6,9,0
1,-1,-3,1,1,-2,6,12,14,9,11,0
1,-1,-3,1,2,-2,7,14,17,13,14,0
1,-1,-3,0,2,-2,6,15,18,18,18,1
2,0,-3,0,2,-1,6,14,19,22,23,3
2,0,-3,0,2,-1,5,13,18,25,28,7
3,1,-2,-1,2,0,4,12,17,26,34,11
3,3,-1,-3,2,1,2,10,14,27,39,17
4,5,0,-4,2,3,1,8,11,27,44,23
6,7,0,-6,3,4,-1,5,8,28,50,30
7,9,1,-8,3,5,-4,3,6,28,56,38
9,11,1,-10,4,6,-6,1,4,28,62,46
12,13,0,-12,5,7,-8,0,2,30,68,56
14,15,0,-14,7,7,-10,-2,1,32,76,68
16,16,0,-16,8,8,-13,-3,0,34,84,80
19,18,-1,-18,10,8,-16,-5,-1,36,92,94
21,20,-1,-20,12,9,-19,-8,-4,36,98,108
24,23,-2,-23,13,11,-20,-12,-8,35,105,124
27,25,-2,-26,15,12,-23,-15,-13,34,110,139
29,27,-3,-28,16,12,-26,-18,-16,32,111,150
32,28,-5,-29,18,11,-28,-19,-18,29,109,155
34,28,-7,-30,20,10,-29,-20,-18,27,105,153
35,27,-9,-31,22,9,-29,-20,-17,24,98,146
36,25,-12,-30,24,7,-30,-19,-16,20,86,134
36,23,-14,-29,26,5,-30,-18,-15,13,64,116
35,21,-16,-28,26,3,-28,-17,-15,2,32,95
34,18,-16,-26,25,1,-27,-16,-15,-12,-4,73
31,16,-15,-23,23,0,-25,-15,-16,-28,-39,52
26,14,-13,-20,19,0,-23,-16,-19,-44,-69,32
20,13,-8,-16,14,2,-20,-17,-23,-59,-93,13
15,12,-4,-13,9,4,-17,-19,-27,-70,-109,-3
10,12,1,-11,5,7,-15,-20,-29,-76,-117,-17
5,12,5,-9,0,9,-13,-19,-27,-79,-121,-29
2,12,9,-7,-3,11,-10,-17,-22,-79,-121,-39
-1,11,11,-5,-5,11,-8,-14,-15,-78,-119,-46
-3,9,12,-3,-7,11,-6,-10,-6,-74,-114,-51
-6,8,13,-1,-9,11,-3,-5,2,-67,-106,-54
-8,6,13,1,-10,10,0,0,11,-59,-97,-54
-10,4,13,3,-11,9,4,4,19,-49,-86,-54
-12,2,13,5,-12,8,8,9,26,-39,-75,-52
-14,0,13,7,-12,6,11,12,32,-31,-66,-50
-15,-2,12,9,-13,5,14,15,36,-25,-57,-48
-16,-4,12,10,-13,3,17,16,38,-20,-50,-45
-17,-5,11,11,-14,2,19,17,40,-15,-44,-42
-17,-7,10,12,-14,1,21,18,42,-10,-38,-40
-18,-8,10,13,-14,1,23,19,43,-8,-33,-38
-18,-8,10,14,-14,1,25,18,40,-7,-29,-36
-19,-9,10,14,-14,1,26,18,35,-8,-26,-34
-19,-9,10,14,-14,0,28,17,30,-9,-24,-32
-20,-9,10,14,-14,0,29,16,24,-11,-23,-30
-20,-9,10,14,-14,0,31,13,17,-13,-22,-28
-20,-9,10,14,-14,0,33,11,11,-14,-22,-27
-20,-9,10,15,-14,0,34,10,7,-14,-21,-26
-20,-9,10,15,-14,0,36,9,3,-14,-19,-25
-20,-9,9,15,-14,0,38,8,0,-15,-18,-25
-20,-10,9,15,-14,-1,39,8,-3,-15,-17,-24
-20,-10,9,15,-14,-1,40,7,-7,-15,-16,-23
-20,-10,9,15,-14,-1,41,7,-11,-15,-15,-22
-19,-10,9,15,-14,-1,42,6,-13,-14,-14,-20
-19,-10,8,15,-14,-1,43,6,-13,-13,-14,-19
-19,-11,8,15,-13,-1,44,6,-13,-11,-13,-19
-19,-11,8,14,-13,-1,45,6,-12,-10,-11,-18
-18,-10,7,14,-12,-1,46,6,-11,-8,-10,-18
-17,-10,7,13,-11,-1,46,6,-11,-7,-8,-17
-16,-10,6,13,-11,-2,46,7,-11,-6,-7,-16
-15,-9,5,12,-10,-2,45,7,-11,-5,-7,-15
-14,-9,5,12,-9,-2,44,6,-11,-5,-6,-14
-13,-9,4,11,-8,-2,40,6,-11,-4,-6,-13
-12,-8,3,10,-7,-2,35,5,-11,-4,-5,-11
-11,-8,2,10,-6,-3,30,4,-11,-4,-5,-11
-10,-7,1,9,-4,-3,25,3,-12,-4,-4,-10
-9,-7,1,8,-3,-3,21,2,-12,-3,-2,-9
-8,-7,0,8,-3,-3,17,2,-11,-2,-1,-8
-7,-7,0,7,-2,-3,14,1,-10,-1,0,-7
-6,-6,0,7,-2,-3,12,1,-9,0,1,-6
-5,-6,-1,6,-1,-3,10,1,-8,1,1,-5
-4,-5,-2,5,-1,-3,7,1,-7,1,2,-5
-3,-5,-2,5,0,-3,5,1,-6,2,2,-4
-2,-4,-2,4,0,-3,4,2,-5,2,3,-4
-2,-4,-2,4,0,-3,2,2,-4,3,4,-4
-1,-3,-2,3,1,-3,1,3,-3,4,5,-4
-1,-3,-3,3,1,-3,1,3,-2,5,5,-3
0,-3,-3,2,2,-3,1,4,-1,6,6,-3
0,-3,-3,2,2,-3,1,4,0,6,6,-2
0,-3,-3,1,2,-3,0,5,0,7,6,-2
1,-3,-4,1,3,-3,0,5,0,7,6,-2
1,-3,-4,1,3,-3,-1,5,1,7,6,-2
1,-3,-4,1,3,-3,-1,5,1,7,6,-2
1,-3,-5,0,3,-3,-1,6,2,8,7,-2
1,-3,-5,0,3,-3,-1,6,2,8,7,-2
1,-3,-5,0,3,-3,-1,6,3,9,8,-1
2,-2,-5,0,3,-3,-1,6,3,9,8,-1
2,-2,-5,0,3,-3,-1,6,3,10,8,-1
2,-2,-5,0,3,-3,-1,6,3,10,8,-1
2,-2,-5,0,3,-3,-1,6,3,10,8,-1
2,-2,-5,0,3,-3,-1,6,3,10,8,-1
2,-2,-5,0,3,-3,-1,6,3,10,8,-1
2,-2,-5,0,3,-3,-1,6,3,10,8,-2
2,-2,-5,0,3,-3,-2,6,3,10,8,-2
2,-2,-5,0,3,-3,-1,7,3,10,8,-2
2,-2,-5,0,3,-3,-1,7,3,10,8,-2
2,-2,-5,0,3,-3,-1,7,3,10,8,-2
2,-2,-5,0,3,-3,-1,7,3,10,8,-2
2,-2,-5,0,3,-3,-1,7,4,10,8,-2
2,-2,-5,0,3,-3,-2,7,4,10,8,-2
2,-2,-5,0,3,-4,-3,7,4,10,8,-2
2,-2,-6,0,3,-4,-2,7,4,10,7,-2
2,-2,-6,0,3,-4,-2,7,4,10,7,-3
2,-2,-6,0,3,-4,-1,7,4,10,7,-3
2,-3,-6,0,3,-4,0,7,4,10,7,-4
2,-3,-6,0,3,-4,0,7,4,10,7,-4
2,-3,-6,0,3,-4,-1,7,4,10,7,-5
2,-3,-6,0,3,-4,-1,7,4,10,7,-5
2,-3,-6,0,4,-4,0,7,4,10,7,-5
2,-3,-6,0,4,-4,0,7,4,10,7,-5
2,-3,-6,0,4,-5,-1,7,4,10,6,-5
2,-3,-6,0,4,-5,0,7,4,10,6,-5
2,-3,-6,0,4,-5,0,7,4,10,5,-6
2,-3,-6,0,4,-5,0,7,4,10,5,-6
2,-4,-6,0,4,-5,0,7,4,9,5,-6
2,-4,-7,0,4,-5,0,7,4,9,5,-7
2,-4,-7,0,4,-5,0,7,4,9,5,-7
2,-4,-7,0,4,-5,0,7,4,9,5,-8
2,-4,-7,1,4,-5,0,7,4,9,5,-8
2,-4,-7,1,4,-5,0,8,4,9,4,-9
2,-4,-7,1,4,-5,0,8,4,9,4,-9
2,-4,-7,1,4,-5,0,7,4,9,3,-10
2,-5,-7,1,4,-5,0,7,4,8,1,-10
1,-5,-7,1,4,-6,0,7,4,8,0,-11
1,-5,-7,1,4,-6,0,7,4,7,0,-12
1,-6,-7,1,4,-6,0,7,4,7,-1,-13
1,-6,-7,1,4,-6,0,7,4,7,-1,-14
1,-6,-7,2,4,-7,0,8,3,7,-1,-15
1,-6,-7,2,4,-7,0,8,3,7,-1,-16
0,-6,-7,3,3,-7,0,8,3,7,-1,-17
0,-6,-7,3,3,-7,0,8,3,7,-2,-18
0,-6,-7,3,4,-7,0,8,4,7,-3,-19
0,-6,-7,3,4,-7,0,8,4,7,-3,-20
0,-6,-7,3,3,-7,0,9,4,7,-3,-21
0,-6,-7,3,3,-7,0,9,4,7,-3,-22
0,-7,-7,3,3,-7,0,9,4,7,-4,-23
0,-7,-7,3,3,-7,0,9,4,7,-5,-24
0,-7,-7,4,3,-7,0,9,4,7,-5,-25
0,-7,-7,4,3,-7,0,9,4,7,-4,-26
0,-7,-7,4,3,-7,1,9,4,8,-4,-26
0,-7,-7,4,3,-7,1,9,4,8,-3,-26
0,-7,-7,4,3,-7,1,9,4,8,-3,-26
0,-7,-7,4,3,-7,0,9,4,8,-2,-26
0,-7,-7,3,3,-7,-1,9,3,8,-1,-26
0,-7,-7,3,3,-7,-1,9,3,8,0,-25
0,-7,-7,3,3,-7,-2,9,2,8,1,-23
1,-6,-7,2,4,-7,-2,8,1,8,3,-22
1,-6,-7,2,4,-6,-3,7,0,8,4,-20
2,-6,-8,1,5,-6,-4,7,0,8,6,-18
2,-5,-8,1,5,-6,-4,6,-1,8,7,-16
3,-5,-8,0,5,-6,-5,6,-2,8,9,-13
3,-5,-8,0,5,-6,-6,5,-3,7,11,-11
4,-4,-8,0,6,-6,-7,5,-4,7,13,-8
4,-3,-8,-1,6,-5,-7,4,-5,8,15,-5
5,-3,-9,-1,7,-5,-8,3,-6,8,16,-2
6,-2,-9,-2,8,-5,-9,2,-8,7,18,1
7,-1,-9,-3,8,-5,-10,1,-9,7,19,4
8,-1,-9,-4,9,-5,-11,1,-10,7,21,6
8,0,-9,-4,9,-5,-12,0,-11,7,22,9
9,0,-9,-5,9,-4,-13,0,-11,7,23,11
9,0,-9,-5,9,-4,-14,0,-11,7,24,14
10,1,-9,-6,9,-4,-14,0,-11,7,24,16
11,1,-10,-6,10,-4,-15,0,-11,7,25,17
12,1,-10,-7,10,-4,-16,0,-11,7,25,18
12,1,-11,-7,11,-4,-16,0,-11,7,25,19
12,1,-11,-7,11,-4,-17,0,-11,6,25,20
12,2,-11,-7,11,-4,-17,0,-10,6,25,20
12,2,-11,-8,11,-4,-17,0,-9,6,25,21
13,2,-11,-8,11,-4,-17,1,-8,7,24,21
13,2,-11,-8,11,-4,-17,1,-7,7,23,20
13,2,-11,-8,11,-4,-17,2,-6,7,23,20
13,2,-11,-8,11,-3,-16,3,-4,7,22,19
13,2,-10,-8,11,-3,-17,3,-3,7,22,19
12,2,-10,-8,11,-3,-17,4,-2,8,21,18
12,2,-10,-8,11,-3,-16,4,0,8,20,17
12,2,-10,-8,11,-3,-15,5,0,8,19,16
11,2,-9,-7,10,-3,-15,6,2,9,18,16
11,2,-9,-7,10,-3,-14,7,3,9,18,15
11,2,-9,-7,10,-3,-14,7,4,9,17,15
11,2,-8,-7,9,-2,-13,8,5,9,16,14
11,2,-8,-7,9,-2,-12,8,6,10,16,14
10,2,-8,-7,9,-2,-11,9,7,10,15,13
10,2,-8,-7,8,-2,-11,9,8,11,15,12
10,3,-7,-7,8,-2,-10,9,9,11,15,11
9,3,-7,-6,7,-2,-10,9,9,11,15,10
8,3,-6,-6,7,-2,-9,9,10,11,13,9
7,2,-6,-5,6,-1,-8,9,10,11,12,8
7,2,-5,-5,6,-1,-8,9,9,11,11,7
6,2,-5,-5,6,-1,-8,9,9,11,10,6
6,2,-4,-4,6,-1,-7,9,9,11,10,6
6,2,-4,-4,5,0,-6,9,9,11,9,5
5,2,-3,-4,5,0,-5,9,8,11,9,5
5,2,-3,-4,4,0,-5,9,8,11,9,5
5,2,-2,-4,4,0,-4,9,8,11,8,5
5,2,-2,-4,3,0,-4,9,8,10,8,5
5,2,-2,-4,3,0,-3,9,8,10,8,5
5,2,-1,-4,3,1,-3,9,8,10,7,4
4,2,-1,-4,2,1,-3,9,7,10,7,4
4,2,-1,-4,2,1,-3,9,7,9,6,4
4,2,0,-4,2,1,-2,8,7,9,6,4
4,2,0,-4,2,1,-1,8,7,8,6,3
4,2,0,-4,2,1,-1,8,7,8,6,3
4,2,0,-3,2,2,-1,8,7,8,6,3
4,3,0,-3,1,2,0,8,7,9,6,3
4,3,0,-3,1,2,0,8,6,10,6,3
4,3,0,-3,1,2,0,8,6,10,5,3
4,4,0,-3,1,2,0,8,6,10,5,3
3,4,1,-3,0,3,0,7,6,10,5,3
3,4,1,-3,0,3,0,7,6,10,6,3
3,4,2,-3,0,3,0,7,5,10,6,3
3,4,2,-3,0,3,-1,7,5,10,6,3
3,4,2,-3,0,3,-1,7,5,9,6,3
3,4,2,-3,0,3,-2,7,5,9,6,3
3,4,2,-3,0,3,-2,7,5,9,6,3
3,4,2,-4,0,3,-1,7,5,10,7,3
3,4,1,-4,0,3,-2,7,5,10,7,3
3,4,1,-4,0,3,-3,7,4,10,7,3
3,4,1,-4,0,3,-4,6,4,10,6,3
3,3,1,-4,0,3,-4,6,4,9,6,3
3,3,1,-4,0,2,-4,6,4,9,5,3
3,3,0,-3,1,2,-5,6,4,8,4,2
3,3,0,-3,1,2,-5,6,3,7,4,2
3,3,0,-3,1,2,-6,6,3,7,4,2
3,3,0,-3,1,1,-6,6,3,6,4,2
3,3,0,-3,1,1,-6,6,2,6,3,2
3,2,0,-3,1,0,-5,6,2,6,3,2
3,2,0,-3,1,0,-5,6,2,6,4,1
3,1,0,-3,1,0,-4,6,2,6,4,1
3,1,-1,-3,1,0,-4,6,2,6,4,1
3,1,-1,-3,1,0,-4,6,2,5,3,1
3,1,-1,-2,1,0,-4,6,2,5,3,1
3,0,-1,-2,2,0,-4,6,1,5,3,1
3,0,-2,-2,2,0,-3,6,1,5,3,1
3,0,-2,-2,2,-1,-4,6,1,4,2,1
3,0,-2,-2,2,-1,-4,6,1,4,2,1
3,-1,-2,-2,2,-1,-4,6,1,3,2,1
3,-1,-3,-1,2,-2,-4,6,1,4,2,1
3,-1,-3,-1,2,-2,-4,6,0,4,2,1
3,-1,-3,-1,3,-2,-3,6,0,3,2,1
3,-2,-4,-1,3,-3,-4,6,0,3,2,1
3,-2,-4,-1,4,-3,-4,6,0,3,1,1
3,-2,-5,-1,4,-4,-4,6,0,2,1,1
3,-2,-5,-1,4,-4,-4,6,-1,2,1,1
4,-2,-6,-1,4,-4,-4,6,-1,2,1,1
4,-2,-6,-1,5,-4,-4,6,-1,2,1,1
4,-2,-6,-1,5,-4,-5,6,0,2,1,1
4,-2,-6,-2,5,-4,-5,7,0,2,1,1
5,-2,-6,-2,5,-4,-5,7,0,2,1,1
5,-1,-6,-2,5,-4,-4,7,0,3,1,1
5,-1,-6,-2,5,-4,-4,8,0,4,2,1
5,0,-6,-3,5,-4,-3,9,1,5,4,2
5,0,-6,-3,5,-3,-2,9,2,5,4,3
6,0,-5,-3,5,-3,-2,9,2,5,4,4
6,0,-5,-3,5,-3,-2,9,2,4,4,4
6,0,-5,-3,5,-3,-2,9,2,5,4,4
5,0,-5,-3,5,-3,-2,9,2,6,4,4
5,0,-5,-2,4,-3,-2,9,2,6,4,3
4,0,-5,-2,4,-3,0,9,2,6,4,3
4,-1,-5,-1,4,-3,0,9,2,6,3,3
3,-1,-5,-1,3,-3,0,9,2,6,3,3
2,-2,-4,0,3,-3,0,10,2,7,3,3
2,-2,-4,0,3,-3,1,10,2,7,3,2
1,-2,-4,0,2,-3,2,10,2,7,3,2
1,-3,-4,0,2,-3,2,10,2,6,3,2
1,-3,-4,0,2,-3,2,10,3,6,3,1
1,-3,-4,0,2,-3,2,10,3,5,3,1
1,-3,-4,1,2,-3,2,10,3,5,4,1
1,-3,-4,1,2,-3,2,10,3,5,4,1
0,-3,-4,1,2,-3,2,10,2,5,4,1
0,-3,-4,1,2,-3,2,10,2,5,4,2
0,-2,-3,0,2,-3,2,10,2,5,4,2
0,-2,-3,0,2,-3,2,10,2,5,4,2
0,-2,-3,0,1,-2,2,10,3,5,4,2
0,-2,-3,0,1,-2,2,11,3,6,3,2
0,-2,-3,0,1,-2,2,11,3,6,3,2
0,-2,-3,0,1,-2,2,11,3,6,3,2
0,-2,-3,0,1,-2,2,11,3,5,2,1
0,-2,-3,0,1,-2,3,11,3,5,2,1
0,-2,-3,0,1,-2,3,10,3,5,2,1
0,-2,-3,0,1,-2,4,8,3,5,2,1
0,-2,-3,0,1,-2,3,7,3,6,3,1
0,-2,-3,0,1,-2,3,5,3,6,3,1
0,-2,-3,0,1,-2,4,4,3,6,3,1
0,-2,-3,0,1,-2,4,2,3,6,3,1
0,-2,-3,0,1,-2,4,1,3,6,3,1
0,-2,-3,0,1,-2,4,1,3,6,3,1
0,-2,-2,1,1,-2,4,0,3,6,4,1
0,-2,-2,1,1,-2,4,0,3,6,4,1
0,-2,-2,1,1,-2,4,0,3,6,4,1
0,-2,-2,1,1,-2,4,0,3,6,4,1
0,-2,-2,1,1,-2,5,-1,3,6,4,1
0,-2,-2,0,1,-2,5,-1,3,6,4,1
0,-2,-2,0,1,-2,5,-2,3,6,4,1
0,-2,-2,0,1,-2,5,-2,3,5,4,1
0,-2,-2,0,1,-2,5,-2,3,5,3,1
0,-2,-2,0,1,-2,4,-2,3,5,3,1
0,-2,-2,0,1,-2,4,-2,3,5,3,2
0,-2,-2,0,1,-2,5,-2,3,6,4,2
0,-2,-2,0,1,-2,5,-2,3,6,4,2
0,-2,-2,1,1,-2,5,-2,3,6,4,2
0,-2,-2,1,1,-2,5,-3,3,6,4,2
0,-2,-2,1,1,-2,6,-3,3,6,5,2
0,-2,-2,1,1,-2,6,-3,3,7,5,2
0,-2,-2,1,0,-2,6,-2,4,8,5,2
0,-2,-2,1,0,-2,6,-1,5,10,6,1
0,-2,-2,1,0,-2,6,0,8,12,6,1
0,-3,-3,1,1,-3,7,3,12,14,7,0
0,-3,-3,2,1,-3,8,5,16,18,10,0
0,-3,-3,2,1,-3,10,7,19,22,13,0
0,-3,-3,1,1,-3,10,7,20,26,17,0
0,-3,-3,0,1,-2,9,7,20,29,22,2
1,-2,-2,0,1,-2,8,6,19,32,26,5
1,0,-1,-1,1,-1,8,4,17,33,31,8
2,2,0,-2,1,1,6,2,15,34,36,13
3,4,1,-3,1,3,4,0,12,34,41,19
4,6,2,-5,1,5,2,-3,9,34,46,26
5,9,3,-7,1,6,0,-5,6,33,52,34
7,11,4,-9,1,7,-1,-8,3,33,57,42
9,13,4,-11,2,8,-4,-10,1,34,63,51
11,15,4,-13,3,9,-7,-12,0,35,70,61
13,17,4,-15,4,10,-9,-14,-2,36,78,73
15,19,4,-17,5,11,-11,-16,-4,37,85,87
17,22,4,-19,6,13,-13,-20,-7,37,92,101
20,25,4,-22,7,15,-17,-24,-12,36,99,117
22,28,4,-25,8,16,-20,-28,-16,35,104,133
25,29,4,-27,10,17,-22,-31,-20,33,107,146
27,30,2,-28,12,16,-24,-33,-23,30,106,152
30,30,0,-29,14,15,-26,-34,-23,28,103,153
32,29,-2,-30,16,13,-28,-34,-23,25,97,150
33,27,-5,-30,18,10,-29,-34,-22,21,87,141
33,25,-8,-29,20,8,-29,-33,-21,15,69,126
33,23,-10,-27,21,5,-28,-31,-20,6,40,106
31,20,-12,-25,21,4,-26,-30,-19,-6,4,85
28,17,-12,-23,20,2,-23,-29,-18,-21,-33,63
24,14,-10,-19,17,2,-20,-28,-20,-38,-67,41
19,12,-7,-16,12,3,-17,-29,-23,-55,-95,20
14,11,-3,-12,8,4,-15,-30,-26,-67,-115,1
9,11,1,-9,3,6,-13,-31,-28,-75,-127,-16
4,11,6,-7,-1,8,-10,-31,-27,-79,-132,-30
0,10,9,-5,-4,9,-8,-29,-22,-80,-133,-41
-3,9,11,-3,-7,10,-5,-27,-15,-77,-130,-49
-5,8,12,-1,-9,11,-2,-23,-6,-72,-124,-54
-7,7,13,0,-10,11,1,-19,1,-65,-116,-57
-9,5,14,2,-12,10,4,-15,9,-56,-106,-58
-12,3,14,4,-13,9,8,-11,16,-46,-95,-58
-14,1,15,6,-15,8,12,-7,22,-37,-84,-56
-16,0,15,8,-16,7,14,-4,28,-30,-75,-54
-17,-2,15,9,-16,6,17,-1,32,-24,-68,-52
-19,-3,15,11,-17,5,21,0,36,-20,-60,-50
-20,-5,14,12,-17,4,23,2,38,-15,-52,-47
-20,-6,14,13,-17,4,25,3,40,-10,-46,-44
-21,-6,14,14,-18,3,27,3,39,-7,-41,-42
-21,-7,14,14,-18,3,29,3,36,-7,-37,-40
-22,-7,14,15,-18,3,30,3,32,-8,-34,-39
-22,-7,14,15,-19,3,32,3,27,-10,-32,-37
-23,-7,14,15,-19,2,33,2,21,-12,-31,-35
-23,-8,14,15,-19,2,34,1,15,-13,-30,-33
-23,-8,15,15,-19,3,35,-1,9,-13,-28,-31
-23,-8,15,15,-19,3,37,-2,5,-13,-27,-30
-23,-8,14,15,-18,2,39,-3,2,-14,-26,-29
-23,-9,14,16,-18,2,41,-3,-1,-15,-26,-28
-23,-9,13,16,-18,1,42,-4,-5,-16,-25,-28
-23,-9,13,16,-18,0,43,-4,-9,-16,-24,-27
-23,-9,13,16,-18,0,44,-5,-12,-15,-23,-25
-22,-9,12,16,-17,0,45,-6,-13,-13,-22,-24
-22,-9,12,16,-17,0,46,-6,-13,-11,-20,-23
-21,-9,12,15,-16,1,47,-6,-12,-9,-19,-22
-21,-8,12,15,-16,1,48,-6,-11,-8,-18,-21
-20,-8,11,14,-15,1,49,-5,-11,-7,-16,-21
-19,-8,11,14,-15,0,49,-4,-10,-6,-15,-20
-18,-8,10,13,-14,0,48,-4,-10,-5,-13,-19
-17,-8,9,13,-13,0,47,-4,-11,-4,-12,-18
-16,-8,8,12,-12,0,44,-4,-11,-4,-11,-17
-15,-7,7,11,-11,0,40,-5,-12,-4,-10,-16
-14,-7,6,11,-10,-1,36,-6,-12,-3,-9,-16
-13,-7,5,10,-9,-1,31,-7,-12,-3,-8,-15
-12,-6,4,9,-8,-1,27,-8,-12,-2,-7,-14
-11,-6,4,9,-8,-1,24,-9,-12,-2,-7,-12
-10,-6,3,8,-7,-1,22,-9,-11,-2,-6,-11
-9,-5,3,7,-6,-1,18,-9,-10,-1,-5,-10
-8,-5,2,7,-6,-1,15,-9,-9,0,-5,-10
-8,-5,2,6,-5,-1,13,-9,-8,0,-4,-9
-7,-4,1,6,-4,-1,11,-9,-8,1,-4,-8
-7,-4,1,6,-4,-1,8,-9,-7,2,-4,-8
-6,-3,1,5,-3,-1,7,-9,-7,2,-3,-7
-5,-3,1,5,-3,-1,7,-9,-6,3,-3,-7
-4,-3,0,4,-2,-1,6,-8,-4,4,-2,-7
-4,-3,0,4,-2,-1,6,-7,-3,4,-1,-6
-4,-3,0,4,-2,-2,6,-7,-2,5,0,-6
-4,-3,0,4,-2,-2,5,-6,-1,5,1,-5
-3,-3,0,4,-1,-2,4,-6,-1,6,1,-5
-3,-3,0,3,-1,-2,4,-6,0,6,2,-5
-3,-2,0,3,-1,-2,3,-6,0,7,2,-5
-3,-2,0,3,-1,-2,2,-6,0,7,2,-5
-3,-2,0,3,-1,-2,2,-5,0,8,2,-5
-3,-2,0,3,-1,-2,3,-5,1,8,2,-4
-2,-2,-1,2,-1,-2,3,-4,2,8,2,-4
-2,-2,-1,2,-1,-2,3,-4,2,8,2,-4
-2,-2,-1,2,-1,-2,3,-4,2,9,2,-4
-2,-2,-1,2,0,-2,2,-4,2,9,2,-4
-2,-2,-1,2,0,-2,2,-4,2,9,2,-4
-2,-2,-1,2,0,-2,2,-4,2,9,2,-4
-2,-2,-1,2,0,-2,2,-4,2,9,2,-4
-2,-2,-1,2,0,-2,2,-4,2,10,2,-4
-2,-2,-1,2,0,-2,2,-4,2,11,2,-4
-2,-2,-1,2,0,-2,2,-4,3,11,2,-4
-2,-2,-1,2,0,-2,2,-4,3,11,2,-4
-2,-2,-1,2,0,-2,3,-4,3,11,2,-4
-2,-2,-1,2,0,-2,2,-4,3,11,2,-5
-2,-2,-1,2,0,-2,1,-4,3,11,2,-5
-2,-2,-1,3,0,-2,2,-3,3,11,2,-5
-2,-2,-1,3,0,-2,2,-3,3,10,2,-5
-2,-2,-1,3,0,-2,2,-3,3,10,1,-5
-2,-2,-1,3,0,-2,1,-3,3,10,0,-5
-2,-3,-2,3,0,-2,1,-3,4,10,0,-5
-2,-3,-2,3,0,-2,1,-3,4,9,0,-5
-2,-3,-2,3,0,-2,2,-3,4,9,1,-5
-2,-3,-2,3,0,-2,2,-3,3,10,2,-6
-2,-3,-2,3,0,-2,2,-3,3,11,2,-6
-2,-3,-2,3,0,-2,2,-3,3,11,2,-6
-2,-3,-2,3,0,-2,2,-3,3,11,2,-6
-2,-3,-2,3,0,-3,2,-3,3,11,2,-6
-2,-3,-2,3,0,-3,2,-3,3,12,2,-7
-2,-3,-2,3,0,-3,2,-3,3,12,2,-7
-2,-3,-2,3,0,-3,2,-3,3,12,1,-7
-2,-3,-2,3,0,-3,2,-3,3,11,1,-7
-2,-3,-2,3,0,-3,2,-3,3,11,1,-7
-2,-3,-2,3,0,-3,3,-3,3,10,0,-7
-3,-4,-3,3,0,-4,3,-3,3,10,0,-8
-3,-4,-3,3,0,-4,2,-3,3,10,0,-9
-3,-4,-3,3,0,-4,1,-3,3,10,0,-10
-3,-4,-3,3,0,-4,2,-3,3,10,0,-10
-3,-4,-3,3,0,-4,3,-3,3,10,-1,-10
-3,-4,-3,3,0,-4,3,-3,3,10,-1,-11
-3,-4,-3,4,0,-4,2,-3,4,10,-1,-11
-3,-5,-3,4,0,-4,2,-2,4,10,-2,-12
-3,-5,-3,4,0,-4,2,-2,4,10,-2,-12
-3,-5,-3,4,0,-4,2,-2,4,9,-3,-13
-3,-5,-3,4,0,-4,2,-1,5,9,-3,-14
-3,-5,-3,5,0,-4,3,-1,5,9,-3,-15
-3,-5,-3,5,0,-4,3,-1,5,9,-4,-16
-3,-5,-3,5,0,-4,3,-1,5,9,-4,-17
-3,-6,-3,5,0,-5,2,-1,5,9,-5,-18
-3,-6,-3,5,0,-5,3,-1,5,9,-6,-19
-3,-6,-3,5,0,-5,3,-1,5,9,-6,-20
-3,-6,-3,5,0,-5,4,-1,5,9,-6,-21
-3,-6,-3,6,0,-5,4,-1,5,9,-6,-22
-4,-6,-3,6,0,-5,4,-1,5,9,-7,-23
-4,-7,-3,6,0,-5,4,-1,5,9,-7,-24
-4,-7,-3,6,0,-6,4,0,5,9,-7,-24
-4,-7,-3,6,0,-6,4,0,5,9,-7,-25
-4,-7,-3,6,0,-6,3,0,5,9,-7,-25
-4,-7,-3,6,0,-6,3,0,5,9,-7,-26
-4,-7,-3,6,0,-6,3,0,6,9,-6,-26
-4,-7,-4,6,0,-6,3,0,5,10,-5,-25
-4,-7,-4,6,0,-6,2,0,4,11,-4,-25
-4,-7,-4,6,0,-6,1,-1,4,11,-2,-24
-3,-6,-4,5,0,-6,0,-1,3,12,0,-22
-3,-6,-4,5,0,-6,0,-1,3,12,1,-21
-2,-6,-4,5,0,-6,0,-2,3,11,2,-19
-2,-6,-4,4,0,-6,0,-2,2,11,3,-17
-2,-5,-4,4,0,-6,-2,-3,2,11,5,-15
-1,-5,-4,3,1,-6,-3,-3,1,11,7,-13
0,-4,-4,3,1,-5,-4,-4,0,12,9,-10
0,-4,-4,2,2,-5,-5,-4,-2,12,12,-8
1,-3,-4,1,2,-4,-6,-5,-2,12,15,-5
2,-2,-5,1,3,-4,-6,-5,-3,12,17,-2
2,-1,-5,0,3,-4,-6,-6,-3,13,19,1
3,-1,-5,0,4,-4,-8,-7,-4,13,20,4
4,0,-6,-1,4,-4,-10,-8,-5,13,21,6
5,0,-6,-1,5,-4,-11,-8,-6,13,22,8
5,0,-6,-2,5,-4,-11,-8,-6,13,23,10
6,1,-6,-3,6,-4,-13,-9,-7,12,23,12
6,1,-6,-3,6,-3,-14,-9,-7,12,24,14
7,2,-7,-4,7,-3,-14,-9,-7,12,24,16
7,2,-7,-4,7,-3,-14,-9,-6,12,25,17
8,2,-7,-4,7,-3,-14,-9,-6,12,25,18
8,2,-7,-4,7,-3,-15,-9,-5,12,25,19
9,3,-7,-5,7,-3,-16,-8,-4,12,24,19
9,3,-7,-5,8,-3,-16,-8,-3,12,23,19
9,3,-7,-5,8,-3,-15,-7,-2,12,22,19
9,3,-7,-5,8,-3,-15,-6,-1,11,22,19
9,3,-7,-5,8,-2,-15,-6,0,11,22,19
9,3,-7,-5,7,-2,-14,-5,1,11,21,19
9,3,-7,-5,7,-2,-14,-5,2,12,21,18
8,3,-7,-5,7,-2,-14,-4,3,12,20,17
8,3,-6,-5,6,-2,-14,-4,4,12,19,16
7,3,-6,-5,6,-2,-13,-3,5,12,19,15
7,3,-6,-5,6,-2,-12,-3,6,12,19,15
7,3,-5,-5,6,-2,-12,-2,6,12,18,14
6,3,-5,-4,5,-2,-12,-2,7,12,17,14
6,3,-4,-4,5,-1,-11,-2,8,12,16,13
5,3,-4,-3,4,-1,-10,-2,9,12,15,12
5,3,-3,-3,4,-1,-9,-2,9,12,14,11
5,3,-3,-3,4,0,-9,-2,10,12,14,10
4,3,-3,-3,4,0,-8,-2,10,12,13,9
4,2,-2,-2,3,0,-7,-2,10,12,13,9
3,2,-2,-2,3,0,-6,-1,10,12,12,8
3,2,-1,-2,2,0,-6,-1,10,12,11,8
3,2,-1,-2,2,0,-6,-1,10,12,11,8
2,2,0,-2,2,0,-6,-1,9,12,10,7
2,2,0,-2,1,1,-6,-1,9,12,10,7
1,2,0,-1,1,1,-5,-1,9,12,9,7
1,2,1,-1,0,1,-4,-1,8,12,9,7
1,2,1,-1,0,1,-3,-1,8,11,8,6
1,2,1,-1,0,2,-2,-1,8,11,8,6
0,3,2,-1,-1,2,-1,-1,8,11,8,5
0,3,2,-1,-1,2,0,-1,8,11,8,5
0,3,2,-1,-2,3,0,-2,8,12,8,5
0,3,3,-1,-2,3,0,-2,8,12,7,5
0,3,3,-1,-2,3,0,-2,7,11,7,5
0,3,3,-1,-2,3,0,-2,7,11,7,5
-1,3,3,-1,-2,3,0,-2,6,11,7,4
-1,3,4,-1,-2,4,0,-3,6,11,7,4
-1,3,4,-1,-3,4,0,-3,6,11,7,3
-1,3,4,0,-3,4,-1,-4,6,11,6,3
-1,3,4,0,-3,4,-1,-4,6,11,5,3
-1,3,4,0,-2,4,-1,-4,6,11,6,3
-1,3,4,-1,-2,4,-1,-4,5,11,7,3
-1,3,4,-1,-2,4,-1,-4,5,11,7,4
-1,3,4,-1,-2,3,-1,-4,5,11,7,4
-1,3,4,-1,-2,3,-2,-4,5,11,6,4
-1,3,4,-1,-2,3,-3,-4,5,11,6,4
-1,3,4,0,-2,3,-3,-4,5,11,7,4
-1,2,3,0,-2,3,-3,-4,5,11,7,4
-1,2,3,0,-2,3,-4,-4,5,11,7,3
-1,2,3,0,-2,2,-4,-4,4,10,7,3
-1,2,3,0,-1,2,-5,-4,4,10,6,3
-1,1,2,0,-1,1,-5,-4,4,10,4,3
-1,1,2,0,-1,1,-5,-4,3,9,3,3
-1,1,2,0,-1,1,-4,-4,3,9,3,3
-1,0,2,0,-1,1,-4,-4,3,9,5,3
-1,0,2,0,-1,1,-4,-4,3,9,6,2
-1,0,2,0,-1,1,-4,-4,3,9,6,2
-1,0,2,0,-1,0,-3,-4,3,8,6,2
-1,0,1,1,-1,0,-2,-4,3,8,6,2
-1,0,1,1,-1,0,-2,-4,3,8,6,2
-1,-1,0,1,-1,0,-2,-4,3,8,6,2
-1,-1,0,2,-1,-1,-1,-4,3,8,5,2
-1,-2,0,2,-1,-1,-1,-4,3,7,4,2
-1,-2,-1,2,0,-2,-1,-4,3,7,4,2
-1,-2,-1,2,0,-2,-2,-4,2,7,4,2
-1,-2,-1,2,0,-2,-2,-4,2,7,4,2
-1,-2,-1,2,0,-2,-1,-4,2,7,4,1
-1,-3,-2,2,0,-3,-1,-4,2,7,4,1
-1,-3,-2,2,1,-3,-2,-4,2,6,4,1
-1,-4,-3,2,1,-4,-2,-4,1,5,4,1
-1,-4,-3,2,1,-4,-2,-4,1,5,4,1
-1,-4,-3,2,1,-4,-2,-4,1,4,3,1
-1,-4,-3,2,1,-4,-2,-4,1,4,3,1
0,-4,-3,2,1,-4,-2,-4,1,4,3,1
0,-4,-3,2,2,-4,-2,-4,1,4,3,1
0,-4,-4,2,2,-4,-2,-4,1,5,3,1
0,-3,-4,2,2,-4,-2,-4,1,5,4,2
1,-3,-4,1,2,-4,-2,-3,2,6,4,2
1,-2,-4,0,2,-3,-1,-2,3,6,5,3
1,-1,-4,0,2,-3,-1,-2,3,7,5,3
1,-1,-4,0,2,-3,-1,-2,3,7,5,4
1,-1,-3,0,2,-3,0,-2,3,7,5,4
1,-1,-3,0,2,-3,0,-2,3,7,5,4
0,-1,-2,0,1,-3,0,-2,3,7,5,4
0,-1,-2,1,1,-3,1,-3,3,7,5,3
-1,-2,-2,1,0,-3,1,-3,3,7,4,3
-1,-2,-2,2,0,-3,1,-3,3,7,4,3
-2,-2,-2,2,0,-3,1,-2,3,7,4,2
-2,-3,-2,3,0,-3,3,-2,3,7,4,2
-3,-3,-1,3,0,-3,4,-2,3,7,4,2
-3,-3,-1,3,0,-3,4,-2,3,7,4,2
-3,-3,-1,3,-1,-3,4,-2,3,7,4,2
-3,-3,-1,3,-1,-3,3,-2,3,7,4,1
-3,-3,-1,3,-1,-3,3,-2,3,7,4,1
-3,-3,-1,3,-1,-3,3,-2,3,7,4,1
-3,-3,-1,3,-1,-3,3,-2,3,6,4,1
-3,-4,-1,3,-1,-3,3,-2,3,6,4,1
-3,-4,-1,3,-1,-3,3,-2,3,6,4,1
-3,-4,-1,3,-1,-3,3,-2,3,6,4,1
-3,-4,-1,3,-1,-3,2,-2,3,6,4,1
-3,-4,-1,3,-1,-3,3,-2,3,6,4,1
-3,-4,-1,3,-1,-3,4,-2,3,6,4,1
-3,-4,-1,3,-1,-3,4,-2,3,6,4,1
-3,-4,0,3,-1,-3,4,-2,3,6,4,1
-3,-4,0,3,-1,-3,4,-2,3,6,4,1
-3,-3,0,3,-1,-3,4,-2,3,6,4,2
-3,-3,0,3,-1,-3,4,-1,3,6,4,2
-3,-3,0,3,-1,-3,4,-1,3,6,4,2
-3,-3,0,3,-1,-3,4,-1,3,6,4,2
-3,-3,0,3,-1,-3,5,-1,3,6,4,2
-3,-3,0,3,-1,-2,5,-1,3,6,5,2
-3,-3,0,3,-1,-2,4,-1,3,6,5,2
-3,-3,0,3,-1,-2,5,-1,3,6,5,2
-3,-3,0,3,-1,-2,5,-1,3,6,5,2
-3,-3,0,3,-1,-2,5,-1,3,6,5,2
-3,-4,0,3,-1,-2,5,-1,3,6,5,2
-3,-4,0,3,-2,-2,5,-1,3,7,5,2
-3,-4,0,3,-2,-2,5,-1,3,7,5,2
-3,-4,0,3,-2,-2,5,-1,3,7,5,2
-3,-4,0,3,-2,-2,5,-1,3,7,5,2
-3,-4,0,3,-1,-2,5,-1,3,7,5,1
-3,-4,-1,3,-1,-2,5,-1,3,7,5,1
-3,-4,-1,3,-1,-2,5,-1,3,7,5,1
-3,-4,-1,3,-1,-2,5,-1,3,7,5,1
-3,-4,-1,3,-1,-3,5,-1,2,7,5,1
-3,-4,-1,3,-1,-3,5,-1,2,7,5,1
-3,-4,-1,3,-1,-3,5,-1,2,7,5,1
-3,-4,0,3,-1,-3,5,-1,2,7,5,1
-3,-4,0,3,-1,-3,5,-1,2,7,5,1
-3,-3,0,3,-1,-3,5,-1,3,7,5,1
-3,-3,0,3,-1,-3,5,-1,3,7,6,1
-3,-3,0,3,-1,-3,5,0,4,8,6,1
-3,-3,0,3,-1,-2,5,0,5,9,7,1
-3,-3,0,4,-1,-2,6,1,7,11,7,1
-3,-4,-1,4,-1,-3,7,3,10,14,8,1
-3,-5,-1,4,-1,-3,9,6,14,17,10,0
-3,-5,-2,4,0,-4,9,8,17,21,12,0
-3,-5,-2,4,0,-4,9,9,20,25,16,0
-3,-5,-1,4,-1,-4,9,10,21,28,20,1
-3,-3,0,3,-1,-3,9,9,20,31,24,3
-2,-2,0,2,-1,-2,8,7,19,33,29,6
-2,0,1,1,-1,0,7,6,17,35,34,11
-1,1,2,0,-1,1,6,4,14,35,38,16
0,3,3,-2,-1,3,4,1,11,35,43,22
1,6,4,-3,-1,4,2,-1,8,35,48,29
3,8,4,-5,0,5,0,-3,5,35,54,36
4,9,4,-7,0,6,-2,-6,3,35,59,45
6,11,4,-9,1,7,-5,-8,2,36,66,54
9,14,4,-11,2,9,-8,-10,0,37,73,65
11,16,4,-13,3,10,-9,-12,-1,39,81,77
13,19,5,-15,4,11,-11,-14,-3,40,89,90
15,21,5,-18,5,12,-13,-18,-7,40,95,105
18,24,5,-21,6,14,-16,-22,-12,39,101,121
21,26,5,-24,8,15,-19,-25,-16,38,106,135
24,28,4,-26,10,15,-22,-28,-20,35,108,146
26,28,2,-27,12,14,-25,-29,-21,32,106,150
28,28,0,-27,14,13,-26,-30,-21,30,103,150
29,26,-4,-27,17,11,-27,-30,-20,27,97,145
30,25,-7,-27,19,9,-28,-29,-19,24,86,134
31,22,-9,-26,20,6,-27,-28,-18,17,64,118
30,19,-11,-24,21,4,-25,-26,-17,7,31,97
28,16,-12,-22,20,1,-23,-25,-17,-7,-6,75
26,13,-12,-19,19,0,-22,-24,-17,-24,-42,53
21,11,-10,-15,15,0,-19,-24,-19,-42,-75,32
15,9,-6,-12,11,1,-16,-25,-23,-58,-100,12
10,9,-2,-9,6,2,-13,-27,-26,-70,-117,-6
5,9,2,-7,2,4,-10,-28,-28,-77,-126,-21
1,9,6,-5,-2,7,-8,-27,-26,-80,-131,-34
-2,8,10,-3,-6,8,-6,-25,-21,-80,-131,-44
-5,7,12,-1,-9,9,-3,-22,-14,-78,-128,-51
-8,6,13,0,-11,9,0,-18,-6,-72,-122,-56
-10,4,14,3,-12,9,2,-14,2,-65,-113,-59
-13,2,14,5,-13,8,5,-10,10,-56,-103,-59
-15,0,15,7,-14,7,9,-6,18,-47,-92,-59
-17,-1,15,9,-15,6,13,-2,24,-38,-81,-57
-19,-3,15,11,-17,5,16,1,30,-30,-71,-55
-20,-5,15,13,-18,4,19,4,33,-24,-63,-52
-21,-7,14,14,-18,3,22,6,36,-19,-57,-49
-22,-8,14,15,-19,2,24,7,38,-14,-51,-47
-23,-9,14,16,-19,2,27,8,39,-10,-45,-44
-24,-9,14,17,-19,1,29,8,38,-9,-40,-42
-24,-9,14,17,-19,1,30,7,35,-9,-37,-40
-25,-9,15,18,-20,1,31,7,31,-10,-34,-38
-25,-9,15,18,-20,1,32,6,25,-11,-33,-36
-25,-10,15,18,-20,1,34,4,19,-13,-31,-34
-25,-10,15,18,-20,1,35,3,12,-14,-30,-32
-25,-10,15,18,-20,1,36,1,7,-14,-29,-30
-25,-10,15,18,-20,1,37,0,2,-15,-28,-29
-25,-10,15,18,-20,1,39,0,-1,-15,-27,-29
-25,-10,15,18,-20,1,42,0,-4,-16,-26,-28
-25,-10,14,18,-19,0,43,-1,-7,-16,-25,-27
-25,-10,14,18,-19,0,44,-2,-11,-15,-24,-26
-24,-10,14,18,-19,0,45,-3,-13,-14,-23,-25
-24,-10,13,17,-19,0,45,-3,-14,-13,-21,-24
-24,-10,13,17,-18,0,46,-3,-14,-11,-20,-22
-23,-10,12,17,-18,0,47,-3,-14,-10,-19,-21
-22,-10,12,16,-17,0,48,-3,-13,-8,-18,-20
-21,-9,12,15,-16,0,49,-3,-13,-7,-16,-20
-20,-8,12,15,-16,0,49,-2,-12,-6,-15,-19
-20,-8,11,14,-15,0,48,-2,-12,-6,-14,-19
-19,-8,10,14,-14,0,46,-2,-12,-5,-13,-18
-18,-8,9,13,-13,-1,44,-3,-13,-5,-13,-17
-17,-8,8,13,-13,-1,40,-4,-14,-5,-12,-16
-16,-8,8,12,-12,-1,35,-5,-15,-5,-11,-15
-14,-8,7,11,-11,-1,30,-6,-15,-5,-11,-14
-13,-7,6,10,-10,-1,25,-7,-15,-6,-10,-13
-12,-7,5,10,-9,-1,22,-8,-14,-6,-10,-12
-11,-7,4,9,-8,-2,20,-8,-13,-5,-9,-12
-11,-7,3,9,-7,-2,17,-8,-12,-5,-9,-11
-10,-7,2,9,-6,-3,14,-8,-12,-4,-8,-11
-10,-6,1,8,-6,-3,13,-8,-11,-4,-8,-10
-9,-6,1,8,-5,-3,11,-7,-11,-3,-7,-9
-8,-5,1,7,-5,-2,9,-7,-10,-3,-7,-8
-7,-5,1,6,-4,-2,8,-7,-9,-2,-7,-8
-6,-4,1,5,-4,-2,7,-6,-8,-2,-6,-7
-6,-4,1,5,-3,-2,6,-6,-6,-1,-6,-7
-6,-4,1,5,-3,-2,6,-5,-5,-1,-5,-7
-5,-4,0,5,-3,-2,5,-5,-5,0,-5,-7
-5,-3,0,4,-2,-2,4,-4,-4,0,-4,-6
-4,-3,0,4,-2,-2,4,-4,-4,0,-4,-6
-4,-3,0,4,-1,-2,3,-3,-3,1,-3,-5
-3,-3,0,3,-1,-2,2,-3,-3,1,-3,-5
-3,-3,0,3,0,-2,2,-3,-2,1,-3,-6
-2,-3,-1,2,0,-2,1,-2,-2,2,-3,-6
-2,-3,-1,2,0,-2,1,-2,-1,2,-3,-6
-2,-3,-1,3,0,-2,2,-1,0,2,-3,-6
-2,-3,-1,3,0,-2,3,-1,0,2,-3,-6
-2,-2,-1,3,0,-2,2,-1,0,2,-2,-5
-2,-2,-1,2,0,-2,1,-1,0,2,-2,-5
-2,-2,-1,2,0,-2,1,-1,0,2,-3,-5
-2,-3,-1,2,0,-2,1,-1,0,2,-3,-5
-2,-3,-1,2,0,-2,1,-1,0,3,-3,-5
-1,-3,-1,2,0,-2,0,-1,0,3,-3,-5
-1,-3,-1,2,0,-2,0,-1,0,3,-3,-5
-1,-3,-1,2,0,-2,1,-1,0,3,-3,-5
-1,-3,-1,2,0,-2,1,-1,0,3,-3,-6
-1,-3,-2,2,0,-3,1,-1,0,3,-3,-6
-1,-2,-2,2,0,-3,1,-1,0,3,-3,-6
-2,-2,-1,2,0,-3,1,-1,0,2,-3,-7
-2,-2,-1,2,0,-3,1,-1,0,2,-3,-7
-1,-3,-1,2,0,-3,1,-1,0,2,-3,-7
-1,-3,-1,2,0,-3,1,-1,0,3,-3,-7
-1,-3,-1,2,0,-3,2,-1,0,3,-3,-7
-1,-3,-2,2,0,-3,2,-1,0,2,-4,-8
-1,-3,-2,2,0,-3,1,-1,0,2,-4,-8
-1,-3,-2,2,0,-3,1,-1,0,2,-4,-8
-1,-3,-2,2,0,-3,1,0,0,2,-4,-8
-1,-3,-2,2,0,-3,1,0,0,2,-4,-8
-1,-3,-2,2,0,-3,1,0,0,2,-4,-8
-1,-3,-2,2,0,-3,2,0,0,2,-4,-8
-1,-3,-2,2,0,-3,2,0,0,2,-4,-8
-1,-3,-2,2,0,-3,2,0,0,2,-4,-8
-1,-3,-2,2,0,-3,2,0,0,2,-4,-8
-1,-3,-2,3,0,-3,2,0,0,2,-4,-9
-1,-3,-2,3,0,-3,2,0,0,2,-4,-9
-1,-3,-2,3,0,-3,2,0,0,1,-5,-10
-1,-3,-2,3,0,-3,2,0,0,1,-5,-10
-1,-3,-2,3,0,-3,1,0,0,0,-6,-11
-1,-3,-2,3,0,-3,1,0,0,0,-6,-11
-1,-3,-2,3,0,-3,1,0,0,0,-6,-11
-1,-3,-2,3,0,-3,1,0,0,0,-6,-12
-1,-3,-2,3,0,-3,2,0,0,0,-7,-12
-1,-3,-2,3,0,-3,2,0,0,0,-7,-13
-1,-3,-2,3,1,-3,1,0,0,0,-8,-14
-1,-3,-3,3,1,-3,1,0,0,0,-9,-15
-1,-4,-3,3,1,-3,2,0,0,0,-10,-16
-1,-4,-3,3,1,-3,2,0,0,-1,-10,-17
-2,-4,-3,3,0,-3,2,0,0,-1,-11,-18
-2,-4,-3,3,0,-4,2,0,0,-2,-11,-19
-2,-4,-3,3,0,-4,3,0,0,-2,-12,-20
-2,-4,-2,3,0,-4,3,0,0,-2,-13,-21
-2,-4,-2,3,0,-4,2,0,0,-2,-13,-22
-2,-4,-2,3,0,-4,2,0,0,-2,-14,-23
-2,-5,-2,3,0,-4,2,0,0,-2,-14,-24
-3,-5,-2,4,0,-4,2,0,1,-2,-15,-25
-3,-6,-2,5,0,-5,3,0,1,-2,-15,-26
-3,-6,-2,5,0,-5,3,0,1,-2,-15,-27
-3,-5,-2,4,0,-5,3,1,1,-2,-15,-28
-3,-5,-2,4,0,-4,2,1,1,-2,-15,-29
-3,-5,-2,5,0,-4,2,1,1,-2,-14,-29
-3,-5,-2,5,0,-4,1,1,0,-2,-14,-29
-3,-5,-2,5,0,-4,1,1,0,-2,-13,-29
-3,-5,-2,5,0,-3,1,1,0,-2,-12,-29
-3,-5,-1,5,0,-3,1,0,0,-2,-11,-29
-3,-5,-1,5,0,-3,1,0,0,-2,-9,-28
-3,-4,-1,4,0,-3,1,0,-1,-1,-8,-26
-3,-4,-1,4,0,-3,0,0,-2,-1,-7,-25
-3,-4,-1,4,0,-3,0,-1,-3,-1,-6,-23
-2,-4,-2,4,0,-3,-1,-1,-4,-1,-4,-21
-1,-4,-2,3,0,-3,-2,-2,-4,0,-2,-18
-1,-3,-2,3,1,-3,-3,-2,-5,0,0,-16
0,-3,-3,2,2,-3,-3,-3,-6,0,2,-13
1,-3,-4,1,3,-3,-4,-3,-6,0,4,-11
2,-2,-4,0,3,-3,-5,-4,-7,0,7,-8
3,-1,-4,0,4,-2,-6,-5,-8,0,9,-4
4,0,-4,-1,4,-2,-7,-6,-9,0,11,-1
5,0,-4,-2,5,-2,-7,-6,-10,0,12,1
5,0,-4,-3,5,-2,-8,-7,-11,0,13,4
6,0,-5,-3,5,-2,-9,-7,-12,0,14,6
6,1,-5,-3,6,-2,-9,-8,-12,-1,15,8
7,1,-6,-4,6,-2,-11,-8,-12,-1,16,11
8,2,-6,-5,7,-2,-12,-8,-12,-1,17,13
9,2,-7,-5,8,-2,-12,-8,-12,-1,18,15
9,3,-7,-5,8,-2,-13,-8,-12,-1,18,16
9,3,-7,-6,8,-2,-13,-8,-11,-1,18,17
9,3,-7,-6,8,-2,-14,-8,-11,-2,18,18
10,3,-7,-6,9,-2,-14,-8,-11,-2,17,18
10,3,-7,-7,9,-2,-13,-7,-10,-3,16,18
11,4,-7,-7,9,-1,-13,-7,-9,-3,16,18
11,4,-6,-7,9,-1,-14,-6,-9,-4,15,17
10,3,-6,-7,9,-1,-14,-6,-8,-4,14,17
10,3,-6,-7,9,-1,-14,-5,-6,-4,13,17
10,3,-6,-7,8,-1,-13,-5,-5,-4,13,16
10,3,-5,-7,8,-1,-13,-4,-4,-4,12,16
9,3,-6,-7,8,-1,-12,-4,-3,-4,11,15
9,3,-6,-6,8,-1,-11,-3,-2,-4,10,14
9,3,-6,-6,8,-1,-11,-2,-1,-4,10,13
8,3,-6,-6,7,-1,-11,-2,0,-3,9,12
8,3,-5,-5,7,-1,-10,-1,0,-3,9,12
7,3,-5,-5,7,-1,-10,-1,1,-3,8,11
7,3,-5,-5,7,-1,-9,-1,2,-3,7,10
6,3,-4,-5,6,-1,-8,0,2,-3,6,9
6,3,-4,-5,5,0,-8,0,3,-3,5,9
6,3,-3,-5,5,0,-8,0,3,-3,5,8
6,3,-3,-5,4,0,-7,0,3,-3,5,7
6,3,-2,-5,4,1,-7,0,3,-3,4,7
5,3,-1,-4,3,1,-6,0,4,-3,4,6
5,3,-1,-4,3,2,-6,0,4,-3,3,6
4,4,0,-4,2,2,-5,-1,4,-3,3,5
4,5,1,-5,2,3,-4,-1,3,-3,2,5
4,5,1,-5,1,3,-3,-1,3,-3,2,4
3,6,2,-5,1,4,-2,-1,3,-3,1,4
3,6,2,-5,1,4,-2,-1,3,-3,1,4
3,6,2,-5,0,4,-2,-1,3,-3,1,4
2,6,3,-4,0,4,-1,-2,3,-3,1,3
2,5,3,-4,0,4,0,-2,2,-3,1,3
2,5,3,-3,0,4,0,-2,2,-3,1,3
2,5,3,-3,0,4,-1,-2,2,-4,0,3
1,5,3,-3,-1,4,-1,-3,1,-4,0,2
1,5,3,-3,-1,4,-2,-3,1,-4,0,2
0,5,4,-3,-2,5,-2,-3,0,-4,0,2
0,6,5,-3,-2,5,-3,-3,0,-4,0,2
0,6,5,-3,-2,6,-3,-3,0,-4,0,2
1,7,5,-4,-2,6,-4,-3,0,-4,0,2
1,7,5,-4,-1,6,-4,-3,0,-4,0,2
1,7,5,-4,-2,6,-3,-3,0,-4,0,2
1,7,5,-4,-2,6,-3,-3,0,-4,-1,2
1,6,5,-4,-1,5,-3,-3,0,-4,-1,1
1,5,4,-4,-1,5,-3,-3,0,-5,-1,1
1,5,3,-3,0,4,-2,-3,0,-5,-1,1
1,4,3,-3,0,4,-3,-3,0,-5,-1,1
1,4,2,-2,0,3,-3,-3,-1,-5,-1,1
1,4,2,-2,0,3,-3,-3,-1,-5,-1,1
1,3,2,-2,0,3,-4,-3,-2,-6,-1,1
1,4,2,-2,0,3,-4,-3,-2,-6,-1,1
1,4,3,-2,-1,3,-2,-3,-2,-6,-1,1
0,5,3,-2,-1,4,-2,-3,-2,-7,-2,1
0,5,3,-2,-1,4,-2,-3,-3,-7,-2,0
1,4,3,-2,-1,4,-2,-3,-3,-8,-3,0
1,4,3,-2,-1,3,-2,-3,-3,-8,-3,0
1,3,2,-2,-1,3,-2,-3,-3,-8,-3,0
0,2,2,-1,-1,2,-1,-3,-3,-8,-3,0
0,2,2,-1,0,2,-1,-3,-3,-8,-3,0
0,1,1,-1,0,1,-1,-3,-3,-8,-3,0
0,1,0,-1,0,1,-1,-3,-3,-8,-3,0
0,1,0,-1,1,0,-1,-3,-3,-8,-3,0
0,0,0,0,1,0,-1,-3,-3,-8,-3,0
1,0,-1,0,1,0,0,-3,-4,-9,-3,0
1,0,0,-1,1,0,-1,-3,-4,-10,-4,0
1,1,0,-1,1,0,-1,-3,-4,-10,-4,0
1,1,0,-1,1,0,-1,-3,-4,-10,-4,0
1,1,0,-1,1,0,-1,-4,-4,-11,-4,-1
1,0,-1,-1,1,0,-2,-4,-4,-11,-5,-1
1,0,-1,-1,1,0,-1,-4,-4,-12,-5,-1
2,0,-2,-1,2,-1,-2,-4,-5,-12,-5,-1
2,0,-2,-1,2,-1,-2,-4,-5,-12,-5,-1
2,0,-2,-1,2,-1,-2,-4,-5,-12,-5,0
2,0,-2,-1,2,-1,-1,-4,-5,-12,-5,0
2,0,-2,-1,3,-1,-2,-4,-5,-12,-5,0
2,0,-2,-1,3,-1,-1,-4,-5,-11,-4,0
2,0,-2,-1,3,-1,0,-3,-4,-11,-4,0
3,1,-1,-2,2,0,0,-3,-3,-10,-3,0
3,2,-1,-2,2,1,0,-3,-3,-9,-3,1
3,3,0,-2,2,1,1,-3,-3,-8,-2,1
2,3,0,-2,2,1,1,-3,-3,-8,-2,1
2,2,0,-2,2,1,1,-3,-3,-8,-2,1
2,2,0,-2,2,1,1,-2,-3,-8,-2,1
1,2,0,-1,1,1,1,-3,-3,-8,-2,1
1,1,0,-1,1,1,2,-3,-4,-8,-2,1
0,1,0,0,1,1,2,-3,-4,-8,-2,0
0,1,0,0,0,1,2,-3,-3,-8,-3,0
0,1,0,0,0,1,3,-3,-3,-8,-3,0
-1,1,1,0,0,1,4,-3,-3,-9,-3,-1
-1,1,1,0,0,1,4,-3,-3,-9,-3,-1
-1,1,2,0,-1,1,4,-3,-3,-9,-3,-1
-1,1,2,0,-1,1,4,-3,-3,-9,-3,-1
-1,1,2,0,-1,1,4,-3,-3,-9,-4,-1
-2,0,2,1,-1,1,4,-3,-3,-10,-4,-1
-2,0,1,1,-1,1,4,-3,-3,-10,-4,-1
-2,0,0,1,0,0,4,-2,-3,-10,-3,0
-2,0,0,1,0,0,4,-2,-3,-10,-3,0
-2,0,1,1,-1,0,4,-2,-3,-10,-3,0
-2,1,1,1,-1,1,4,-2,-3,-10,-3,0
-1,1,1,1,-1,1,4,-2,-3,-9,-3,0
-1,1,1,1,-1,1,4,-2,-3,-9,-3,0
-1,1,1,1,-1,1,4,-2,-3,-9,-3,0
-2,1,1,1,-1,1,4,-2,-3,-9,-3,0
-2,1,1,1,-1,1,4,-2,-3,-9,-3,0
-2,1,1,1,-1,1,3,-2,-3,-9,-2,0
-2,1,1,1,-1,1,3,-2,-3,-10,-3,0
-2,0,1,1,-1,1,4,-1,-3,-10,-3,0
-2,0,2,1,-1,1,4,-1,-3,-10,-3,0
-2,1,2,1,-1,1,4,-1,-3,-10,-3,0
-2,1,2,1,-1,1,5,-1,-3,-10,-3,0
-2,1,2,1,-1,1,5,-1,-3,-10,-2,0
-2,1,2,1,-1,1,4,-1,-3,-10,-2,0
-2,0,2,1,-1,1,5,-1,-3,-10,-2,0
-2,0,2,1,-1,1,6,-1,-3,-10,-3,0
-2,0,1,1,-1,1,6,-1,-3,-10,-3,0
-2,0,1,1,-1,0,5,-1,-3,-10,-3,0
-2,0,2,1,-1,0,5,-1,-3,-10,-3,0
-2,0,2,1,-1,0,5,-1,-3,-10,-3,0
-2,0,2,1,-1,0,4,-1,-3,-10,-3,0
-2,1,2,1,-1,0,4,-1,-3,-10,-2,0
-2,1,2,0,-1,1,4,-1,-3,-10,-2,0
-2,2,2,0,-1,1,4,-1,-3,-10,-2,-1
-2,1,2,0,-1,1,4,-1,-3,-10,-2,-1
-2,0,2,1,-1,1,4,-1,-3,-10,-2,-1
-2,0,1,1,-1,0,4,0,-3,-10,-2,-1
-2,0,1,1,-1,0,5,0,-3,-10,-2,-1
-2,0,1,1,-1,0,5,0,-3,-10,-2,-1
-2,0,2,1,-1,0,5,0,-3,-10,-2,-1
-2,0,2,1,-1,0,5,0,-3,-9,-3,0
-2,0,1,1,-1,0,6,0,-3,-9,-2,0
-2,0,1,1,-1,0,5,0,-2,-8,-2,0
-2,0,1,1,-1,0,5,0,-2,-7,-1,-1
-2,0,1,1,-1,0,6,0,0,-6,-1,-1
-2,-1,1,2,-1,0,7,2,2,-4,0,-1
-2,-1,1,2,-1,-1,7,4,5,-1,1,-2
-2,-1,1,2,0,-1,8,6,9,2,3,-2
-2,-1,1,2,0,-1,8,8,12,6,6,-2
-2,0,1,2,-1,0,8,9,14,10,10,-2
-1,0,1,1,-1,0,8,9,14,14,15,0
-1,2,2,0,-1,1,8,8,14,17,21,3
0,3,2,-1,-1,2,7,7,12,19,26,7
0,4,3,-2,-1,3,6,5,10,20,31,12
2,6,3,-3,0,4,5,3,7,21,36,18
3,7,4,-4,0,5,2,1,4,21,41,25
4,9,4,-6,0,6,0,-1,2,21,47,33
5,11,5,-8,1,8,-2,-3,0,21,53,41
7,13,5,-10,2,9,-4,-5,-2,22,59,51
10,16,4,-13,3,10,-7,-7,-3,23,66,63
13,18,4,-15,5,11,-9,-8,-4,25,74,76
15,19,3,-17,6,11,-11,-10,-5,26,82,90
18,21,3,-19,8,12,-14,-13,-8,27,89,105
20,23,2,-21,9,12,-15,-16,-12,28,96,123
22,24,2,-23,10,13,-18,-19,-16,27,102,141
25,26,0,-25,12,13,-21,-22,-19,24,104,153
28,27,-2,-27,15,12,-24,-24,-21,22,102,159
30,27,-4,-28,17,11,-26,-24,-21,19,98,158
31,26,-7,-28,19,10,-27,-24,-20,17,90,151
32,25,-9,-28,21,9,-27,-24,-19,12,78,139
33,24,-10,-28,22,7,-27,-23,-19,5,57,120
33,22,-11,-27,22,5,-26,-22,-19,-5,26,97
31,19,-12,-25,21,3,-24,-21,-20,-19,-11,73
28,17,-11,-22,20,3,-22,-21,-21,-34,-47,49
24,15,-9,-19,16,3,-20,-21,-24,-51,-78,27
18,14,-5,-15,11,5,-18,-23,-29,-65,-103,7
12,13,0,-12,6,7,-15,-25,-33,-76,-119,-11
7,13,5,-9,1,9,-13,-26,-36,-83,-129,-26
2,13,10,-7,-4,12,-11,-26,-35,-87,-133,-39
-1,13,15,-6,-8,14,-9,-24,-31,-87,-134,-49
-4,13,18,-4,-11,15,-6,-21,-23,-86,-132,-57
-7,12,20,-2,-13,16,-3,-16,-15,-83,-128,-62
-9,11,20,0,-15,16,0,-11,-5,-78,-121,-65
-11,10,20,1,-16,15,2,-6,4,-70,-112,-66
-13,8,20,3,-16,14,5,-1,13,-60,-100,-65
-15,6,20,5,-17,13,8,4,21,-51,-89,-63
-17,4,20,7,-18,11,11,8,27,-42,-80,-60
-18,1,20,8,-18,10,15,11,32,-35,-71,-57
-19,0,19,10,-18,8,18,14,36,-29,-63,-54
-20,-2,18,11,-18,7,20,15,38,-23,-56,-51
-21,-3,17,12,-18,6,23,16,41,-18,-50,-48
-21,-4,16,13,-18,6,25,17,42,-15,-44,-46
-22,-5,16,14,-18,5,26,16,40,-13,-40,-44
-22,-5,16,14,-18,5,27,15,35,-14,-37,-42
-23,-5,17,14,-18,5,28,14,30,-15,-35,-40
-23,-5,17,14,-19,6,29,13,24,-17,-34,-37
-23,-5,17,14,-19,6,30,10,17,-19,-33,-35
-23,-6,17,14,-19,6,32,8,10,-21,-32,-33
-23,-6,17,14,-19,6,34,5,4,-21,-31,-32
-23,-6,17,14,-19,5,36,4,0,-22,-30,-31
-23,-6,16,15,-19,5,37,3,-3,-22,-29,-31
-23,-6,15,15,-19,4,39,3,-6,-23,-28,-30
-23,-7,15,15,-19,4,40,2,-9,-23,-27,-29
-22,-7,14,15,-18,3,41,1,-12,-23,-26,-28
-22,-7,14,15,-18,3,42,0,-15,-22,-25,-26
-21,-7,14,15,-17,3,43,0,-16,-21,-25,-25
-21,-7,13,15,-17,3,43,0,-15,-19,-24,-24
-21,-7,13,14,-16,3,44,0,-15,-18,-22,-23
-20,-7,13,14,-16,3,46,0,-14,-16,-21,-23
-20,-6,12,13,-15,3,47,0,-14,-15,-19,-22
-19,-6,12,13,-15,3,47,0,-15,-15,-18,-22
-18,-6,11,12,-14,3,46,0,-15,-14,-17,-21
-17,-6,11,12,-14,2,44,0,-15,-14,-16,-20
-16,-6,10,11,-13,2,41,0,-16,-14,-16,-18
-15,-6,9,11,-12,2,38,-1,-17,-14,-15,-17
-14,-5,8,10,-11,2,33,-2,-17,-14,-15,-17
-13,-5,7,9,-10,2,28,-3,-17,-14,-14,-16
-12,-4,7,8,-9,2,24,-4,-17,-14,-13,-15
-11,-4,6,7,-8,1,20,-5,-17,-13,-12,-14
-10,-4,6,7,-7,1,16,-6,-16,-13,-11,-13
-10,-3,6,6,-7,1,13,-6,-15,-12,-10,-12
-9,-3,5,6,-6,1,11,-6,-14,-11,-9,-11
-8,-2,5,6,-6,1,9,-6,-13,-10,-9,-10
-7,-2,4,5,-5,1,7,-6,-12,-9,-8,-10
-6,-2,4,5,-5,1,5,-6,-11,-9,-8,-10
-6,-1,3,4,-4,1,4,-5,-10,-8,-7,-9
-5,-1,3,4,-4,1,2,-4,-9,-7,-6,-9
-5,-1,3,3,-3,1,2,-3,-8,-6,-5,-8
-4,-1,3,3,-3,1,2,-2,-7,-5,-4,-8
-4,-1,2,3,-2,1,1,-2,-6,-4,-4,-7
-3,-1,2,3,-2,0,1,-1,-5,-4,-3,-7
-3,-1,1,2,-1,0,1,-1,-4,-3,-3,-7
-2,-1,1,2,-1,0,0,-1,-4,-2,-2,-7
-2,-1,0,2,0,0,0,-1,-4,-2,-2,-7
-1,-1,0,1,0,0,0,0,-3,-2,-1,-6
-1,-1,0,1,0,0,-1,0,-2,-1,-1,-6
-1,-1,0,1,0,0,-1,0,-2,-1,-1,-6
-1,-1,0,1,0,0,-1,1,-1,0,-1,-6
-1,-1,0,1,0,0,-2,1,-1,0,0,-6
-1,-1,0,1,0,0,-1,1,-1,0,0,-6
-1,-1,0,1,0,0,-1,1,-1,1,0,-5
-1,-1,0,1,0,0,-1,1,0,1,0,-5
-1,0,0,1,0,0,-1,1,0,1,0,-5
-1,0,0,1,0,0,-2,1,0,1,0,-5
-1,-1,0,1,0,0,-2,1,0,1,0,-5
-1,-1,0,1,0,0,-2,1,0,2,0,-5
-1,-1,-1,1,0,-1,-1,1,0,2,0,-5
-1,-1,-1,1,0,-1,-1,1,0,2,0,-5
-1,-1,-1,1,0,-1,-2,1,0,2,1,-5
0,-1,-1,1,0,-1,-2,1,0,2,1,-5
0,-1,-1,1,0,-1,-1,1,0,2,1,-5
0,-1,-1,1,0,-1,-2,1,1,3,1,-5
0,-1,-1,1,1,-1,-2,2,1,3,2,-5
0,-1,-1,1,1,-1,-2,2,1,3,2,-5
0,-1,-1,1,1,-1,-2,2,1,3,2,-5
0,-1,-2,1,1,-2,-1,2,1,4,2,-5
0,-1,-2,1,1,-2,-1,2,1,4,2,-5
0,-2,-2,1,1,-2,-1,2,1,4,2,-5
0,-2,-3,1,1,-2,-1,2,1,4,2,-5
0,-2,-3,1,1,-2,-1,2,1,4,2,-5
0,-3,-3,1,2,-2,-2,2,1,4,2,-5
0,-3,-3,1,2,-2,-2,2,1,4,2,-6
0,-3,-3,1,2,-2,-2,2,1,4,2,-6
0,-3,-3,2,2,-2,-2,2,1,4,2,-6
0,-3,-3,2,2,-3,-2,2,1,4,2,-7
0,-3,-3,2,2,-3,-1,2,1,4,2,-7
0,-3,-3,2,2,-3,-2,3,1,4,2,-7
0,-3,-3,2,2,-3,-2,3,1,4,2,-7
0,-3,-3,2,2,-3,-2,3,1,4,2,-8
0,-3,-3,2,2,-3,-2,3,2,4,2,-8
0,-3,-3,2,2,-3,-2,3,2,4,1,-8
0,-3,-3,2,2,-3,-2,3,2,4,1,-8
0,-3,-3,2,2,-3,-1,3,2,4,1,-9
0,-3,-3,2,2,-4,-1,3,2,4,0,-9
0,-3,-3,2,2,-4,-1,3,2,4,0,-10
0,-3,-3,2,2,-4,-1,3,2,3,0,-11
0,-4,-3,2,2,-4,-1,4,2,3,-1,-11
0,-4,-3,3,2,-4,-1,4,2,3,-1,-12
0,-4,-4,3,2,-4,-1,4,2,3,-2,-13
0,-4,-4,3,2,-4,-1,4,2,3,-2,-13
0,-5,-4,3,2,-5,-1,4,2,2,-3,-14
0,-5,-5,3,2,-5,-2,4,2,2,-3,-15
0,-5,-5,3,2,-5,-2,4,2,2,-4,-16
-1,-5,-5,3,2,-5,-2,5,2,2,-4,-18
-1,-5,-5,3,2,-5,-1,5,2,2,-5,-19
-1,-6,-5,4,2,-5,-1,5,2,2,-5,-20
-1,-6,-5,4,2,-5,-1,5,2,2,-5,-21
-1,-6,-5,4,2,-5,-1,5,2,2,-5,-22
-1,-6,-5,4,2,-5,-1,5,2,2,-5,-22
-1,-6,-5,4,2,-5,-1,5,2,2,-5,-23
-1,-6,-5,4,2,-5,-1,5,2,2,-5,-23
-1,-6,-5,4,2,-5,-1,5,2,3,-4,-24
-1,-6,-5,4,2,-6,-1,5,2,3,-4,-24
-1,-6,-5,4,2,-6,-2,5,2,3,-3,-24
-1,-6,-5,4,2,-6,-2,5,2,3,-1,-23
-1,-6,-5,4,2,-6,-3,5,1,3,0,-23
-1,-6,-5,4,2,-6,-3,5,1,4,1,-21
0,-5,-5,4,2,-5,-3,4,0,4,3,-20
0,-5,-5,3,3,-5,-4,3,0,4,4,-18
0,-4,-5,3,3,-5,-5,2,-1,5,6,-15
0,-4,-5,3,3,-5,-6,2,-2,5,8,-13
1,-3,-5,2,3,-5,-7,1,-3,5,9,-11
2,-3,-5,2,3,-5,-8,1,-4,5,11,-8
2,-3,-5,1,4,-5,-8,0,-5,5,13,-6
3,-2,-5,1,5,-5,-9,0,-6,5,16,-3
3,-2,-6,0,5,-5,-10,-1,-7,5,18,0
4,-1,-6,0,6,-5,-11,-2,-8,5,20,3
5,-1,-6,-1,6,-5,-13,-2,-9,5,22,6
6,0,-7,-1,7,-5,-13,-3,-10,5,23,9
7,0,-7,-2,7,-4,-14,-3,-11,5,25,11
7,0,-7,-3,8,-4,-15,-4,-12,5,26,13
8,0,-8,-3,8,-4,-16,-4,-12,5,27,15
9,1,-8,-4,9,-4,-16,-5,-12,4,28,17
9,1,-8,-4,9,-4,-17,-5,-12,4,28,19
10,2,-8,-5,10,-4,-18,-6,-12,4,28,21
10,2,-8,-5,10,-4,-18,-6,-12,4,28,22
11,2,-9,-5,10,-4,-19,-6,-12,4,28,23
11,2,-9,-5,10,-4,-19,-5,-12,4,28,23
11,2,-9,-6,10,-4,-20,-5,-11,4,28,23
11,2,-9,-6,10,-4,-20,-5,-10,4,27,23
11,2,-9,-6,10,-4,-19,-4,-9,4,26,23
11,2,-9,-6,10,-4,-19,-3,-8,4,25,22
11,2,-9,-6,10,-4,-19,-3,-7,4,24,22
11,2,-9,-6,10,-4,-19,-2,-6,4,23,21
11,2,-9,-6,10,-4,-18,-1,-5,5,23,21
11,2,-9,-6,10,-4,-18,-1,-4,5,22,20
11,2,-9,-5,10,-4,-18,0,-2,6,22,20
10,2,-9,-5,9,-4,-17,0,-1,6,22,19
10,2,-8,-5,9,-3,-16,1,0,6,21,19
9,2,-8,-5,8,-3,-16,2,2,7,20,18
9,2,-7,-5,8,-3,-16,2,3,7,19,17
8,2,-7,-5,8,-3,-16,3,4,7,18,17
8,2,-6,-5,8,-2,-15,3,5,7,18,16
8,2,-6,-4,7,-2,-15,3,5,8,17,14
8,2,-5,-4,7,-2,-14,4,6,8,17,13
7,2,-5,-4,6,-2,-12,4,7,8,17,12
6,2,-4,-4,6,-2,-11,5,7,8,16,12
6,2,-4,-4,5,-2,-11,5,8,8,15,11
5,2,-4,-4,5,-2,-10,5,8,8,14,11
5,2,-3,-3,5,-1,-10,5,9,8,14,10
5,2,-3,-3,5,-1,-10,5,9,8,13,10
5,2,-3,-3,5,-1,-8,5,9,8,13,9
4,2,-2,-2,4,0,-8,5,8,8,12,9
4,2,-2,-2,3,0,-7,5,8,8,12,8
4,2,-1,-2,3,0,-7,5,8,8,12,8
3,2,-1,-2,3,0,-7,5,8,8,11,7
3,2,-1,-2,3,0,-7,5,8,7,11,7
3,2,-1,-2,3,0,-6,5,7,7,10,6
3,2,0,-2,2,0,-5,5,7,7,10,6
2,2,0,-2,2,0,-4,5,7,7,10,6
2,3,0,-2,1,1,-4,5,7,7,10,6
2,3,1,-2,1,1,-3,5,7,7,10,5
2,3,1,-2,1,1,-3,5,7,7,10,5
2,3,1,-2,1,2,-2,5,7,7,9,5
2,3,1,-2,1,2,-2,5,7,7,8,5
2,3,1,-2,1,2,-2,5,7,7,8,5
2,3,1,-2,1,2,-2,5,6,7,8,5
2,4,2,-2,0,2,-3,4,6,7,8,5
2,4,2,-2,0,3,-4,4,6,7,9,5
2,4,3,-2,0,3,-4,4,5,6,8,5
2,4,3,-2,0,3,-5,3,5,6,8,4
2,4,3,-2,0,3,-6,3,5,6,8,4
2,4,3,-2,0,3,-6,3,5,6,8,4
1,4,3,-2,0,3,-6,3,4,6,8,4
1,4,3,-2,0,2,-6,3,4,6,8,4
1,3,2,-2,0,2,-6,3,4,6,8,4
1,3,2,-2,0,2,-6,3,4,6,8,4
1,3,2,-2,0,2,-6,3,4,6,8,4
1,3,2,-2,0,2,-7,3,4,6,8,4
1,3,1,-2,0,1,-7,3,4,5,8,4
1,3,1,-2,0,1,-8,3,4,5,8,4
1,3,1,-2,0,1,-8,2,3,5,8,4
1,3,1,-2,0,1,-8,2,3,5,8,4
1,2,1,-2,0,1,-9,2,2,5,8,4
1,2,1,-1,0,1,-8,2,2,4,8,4
1,2,0,-1,1,0,-8,2,1,4,7,4
1,2,0,-1,1,0,-8,2,1,4,7,4
1,1,0,-1,1,0,-8,2,1,4,7,3
1,1,0,-1,1,0,-7,2,1,4,6,3
1,1,0,-1,1,0,-7,2,1,3,6,3
1,0,0,0,1,0,-7,2,1,3,6,3
1,0,0,0,1,0,-6,2,1,2,6,2
1,0,0,0,1,0,-6,2,1,2,6,2
1,0,-1,0,1,-1,-6,2,1,2,5,2
1,0,-1,0,1,-1,-7,2,0,2,5,2
1,0,-2,0,2,-2,-6,2,0,1,5,2
1,-1,-2,0,2,-2,-6,2,0,1,5,2
1,-1,-3,0,2,-3,-7,2,0,1,5,2
1,-1,-3,0,2,-3,-7,2,0,1,5,2
1,-1,-3,0,3,-3,-6,2,0,1,4,2
2,-2,-4,0,3,-3,-6,1,0,0,4,1
2,-2,-4,0,4,-4,-7,1,-1,0,4,1
3,-2,-5,0,4,-4,-8,1,-1,0,4,1
3,-2,-5,0,4,-4,-8,1,-1,0,5,1
3,-2,-5,0,4,-4,-8,1,-1,0,5,1
3,-2,-5,0,4,-4,-8,1,-1,0,5,1
3,-2,-5,0,4,-4,-7,1,0,0,5,1
3,-2,-5,0,4,-4,-6,1,0,0,5,1
4,-1,-5,-1,4,-4,-6,2,0,0,6,2
4,-1,-5,-1,4,-4,-5,2,1,1,6,3
4,0,-5,-1,4,-3,-4,3,1,2,7,3
4,0,-5,-1,5,-3,-4,3,1,3,7,4
4,0,-5,-1,5,-3,-4,3,1,3,7,4
4,0,-4,-1,5,-2,-3,3,1,3,7,4
3,0,-4,-1,4,-2,-3,3,1,3,7,4
3,0,-3,-1,4,-2,-3,3,1,3,6,4
3,0,-3,-1,4,-2,-4,3,1,2,5,4
2,0,-3,0,3,-2,-3,3,1,2,5,3
2,-1,-3,0,3,-2,-2,3,1,3,5,3
1,-1,-3,1,3,-2,-2,3,1,3,5,2
0,-2,-3,1,2,-2,-1,3,2,3,6,2
0,-2,-3,1,2,-3,0,3,2,3,6,2
0,-2,-3,1,2,-3,0,3,2,3,7,1
0,-2,-3,1,2,-3,0,3,2,3,7,1
0,-2,-3,1,2,-3,0,3,2,3,7,1
0,-2,-2,1,2,-3,0,3,2,3,7,1
0,-2,-2,1,2,-3,0,3,2,3,6,1
0,-2,-2,1,2,-3,0,3,2,3,5,1
0,-2,-3,1,2,-3,0,3,2,3,5,1
0,-2,-3,1,2,-3,0,3,2,3,5,1
0,-2,-3,1,2,-3,1,3,2,2,5,1
0,-2,-3,1,2,-3,1,3,2,2,5,1
0,-2,-3,1,2,-3,0,3,2,3,5,1
0,-2,-3,1,2,-3,0,4,3,4,5,1
0,-2,-3,1,2,-3,0,4,3,4,5,1
0,-2,-3,1,2,-3,1,4,3,3,5,1
0,-2,-3,1,2,-3,1,4,3,3,5,1
0,-2,-3,1,2,-3,0,4,3,3,5,1
0,-2,-3,1,2,-3,0,4,2,3,4,1
0,-2,-3,1,2,-3,1,4,2,3,4,1
0,-2,-3,2,2,-3,1,4,2,3,4,1
0,-2,-2,2,2,-3,1,4,2,3,4,1
0,-2,-2,2,2,-3,1,4,2,3,5,1
0,-2,-2,2,2,-3,1,4,2,3,5,1
0,-2,-2,2,1,-3,1,4,2,3,5,1
0,-2,-2,2,1,-3,1,4,2,3,5,1
0,-2,-2,2,1,-3,1,4,2,3,5,1
0,-2,-2,2,1,-3,1,4,2,3,5,1
0,-2,-2,2,1,-3,2,4,2,3,5,1
0,-2,-2,2,1,-3,2,4,2,3,4,1
0,-2,-2,2,1,-3,1,4,2,2,4,1
0,-2,-2,2,1,-3,2,4,2,2,4,1
0,-2,-2,2,1,-3,2,4,2,2,4,1
0,-2,-2,2,1,-3,1,4,2,2,4,1
0,-2,-2,2,1,-3,2,4,2,3,4,1
0,-2,-2,2,1,-3,2,4,2,3,5,1
0,-2,-2,2,1,-3,2,4,2,3,5,1
0,-2,-2,2,1,-3,2,4,2,3,4,1
0,-2,-2,2,1,-3,2,4,2,3,4,1
0,-2,-2,2,1,-3,2,4,2,3,4,1
0,-2,-2,2,1,-3,2,4,2,3,5,1
0,-2,-2,2,1,-3,2,5,3,3,5,1
0,-2,-2,2,1,-3,2,5,3,4,5,1
0,-2,-2,2,1,-3,3,6,5,6,6,1
0,-2,-2,2,1,-3,4,8,7,8,6,1
0,-3,-3,2,2,-3,5,10,10,10,6,0
0,-3,-3,2,2,-4,6,12,14,14,8,0
0,-4,-3,2,2,-4,6,14,17,17,12,-1
0,-4,-3,2,2,-4,6,15,19,21,16,0
0,-3,-3,2,2,-4,6,15,20,25,21,1
0,-1,-3,1,2,-3,6,14,19,28,25,3
0,0,-2,0,2,-2,4,13,18,30,30,7
1,1,-1,-1,2,0,3,11,16,30,34,11
2,3,0,-2,2,1,2,9,13,31,38,16
3,5,1,-3,2,3,0,6,10,31,43,22
5,7,2,-5,2,5,-1,3,7,31,49,30
6,9,3,-7,2,6,-3,1,4,31,55,38
8,11,3,-9,3,7,-6,0,2,31,60,47
10,14,3,-11,4,8,-8,-2,0,31,67,57
12,16,3,-13,5,9,-10,-4,-1,32,74,69
14,18,3,-15,6,10,-13,-7,-3,33,81,82
17,20,3,-18,7,11,-15,-10,-6,33,87,96
19,22,3,-20,8,12,-17,-13,-10,32,93,111
21,25,3,-23,9,14,-20,-17,-15,31,98,127
24,27,3,-25,11,15,-24,-21,-19,29,102,141
26,29,2,-27,13,15,-26,-23,-22,26,102,151
28,29,0,-28,15,14,-28,-24,-23,23,100,154
30,28,-2,-29,17,12,-30,-25,-23,21,96,153
32,27,-5,-29,19,11,-31,-25,-23,19,90,147
33,26,-7,-29,21,9,-31,-24,-22,14,77,135
33,23,-9,-27,22,6,-30,-23,-20,7,52,116
31,21,-11,-25,22,4,-29,-22,-20,-3,18,94
29,18,-12,-23,21,3,-27,-21,-19,-16,-18,72
26,15,-11,-20,19,2,-25,-20,-19,-32,-54,49
20,13,-8,-16,15,2,-21,-20,-22,-48,-86,27
15,11,-4,-13,10,3,-18,-21,-25,-63,-109,6
10,10,0,-10,6,4,-16,-23,-28,-73,-124,-12
5,10,3,-7,2,6,-14,-23,-28,-78,-132,-27
1,9,7,-5,-2,7,-10,-22,-24,-79,-134,-39
-1,9,10,-4,-5,8,-8,-20,-18,-77,-133,-49
-4,8,12,-2,-7,9,-6,-16,-10,-73,-128,-55
-6,7,13,0,-9,10,-3,-12,-2,-67,-121,-59
-9,6,14,2,-11,10,0,-8,5,-59,-112,-61
-11,4,14,4,-12,9,2,-4,13,-50,-101,-61
-14,2,14,6,-13,8,6,0,20,-41,-90,-60
-16,1,15,7,-14,7,10,3,27,-33,-81,-58
-17,-1,15,9,-15,6,13,6,32,-26,-71,-55
-18,-3,14,11,-15,5,16,8,36,-20,-63,-53
-19,-4,14,12,-15,4,18,10,38,-16,-56,-50
-19,-6,13,13,-16,4,20,11,40,-11,-50,-47
-20,-7,13,14,-16,3,22,12,41,-7,-44,-44
-21,-7,13,14,-17,3,24,12,39,-6,-39,-42
-22,-8,13,15,-17,3,26,12,36,-7,-36,-40
-22,-8,13,15,-17,3,27,12,32,-9,-35,-39
-23,-8,14,15,-17,3,29,11,27,-12,-33,-37
-23,-8,14,15,-17,3,30,9,21,-13,-32,-35
-23,-8,14,15,-17,3,31,8,14,-14,-31,-33
-23,-8,14,15,-17,3,33,7,9,-15,-30,-31
-23,-8,14,16,-17,3,34,6,5,-15,-28,-30
-23,-9,13,16,-17,2,36,5,2,-16,-27,-30
-23,-9,13,16,-17,2,38,5,0,-17,-26,-29
-23,-10,12,16,-17,1,39,4,-4,-17,-25,-28
-23,-10,12,16,-17,1,40,3,-7,-17,-24,-27
-23,-10,12,16,-16,1,41,3,-10,-16,-22,-25
-22,-10,12,16,-16,1,42,3,-11,-15,-21,-24
-22,-9,12,16,-16,1,43,3,-11,-12,-20,-23
-21,-9,11,15,-16,1,44,3,-11,-10,-19,-23
-21,-9,11,15,-15,0,45,3,-10,-8,-19,-22
-20,-9,10,14,-15,0,46,4,-10,-8,-18,-22
-19,-9,9,14,-14,0,46,5,-9,-8,-16,-21
-18,-8,9,13,-13,0,44,5,-8,-8,-15,-20
-17,-8,8,13,-12,0,42,5,-8,-7,-14,-19
-17,-8,8,12,-11,0,39,4,-10,-6,-13,-17
-16,-8,7,12,-10,0,35,3,-11,-4,-12,-16
-15,-8,6,12,-9,0,31,2,-12,-4,-11,-15
-13,-7,5,11,-9,-1,27,1,-12,-4,-10,-15
-12,-7,4,10,-8,-1,23,0,-12,-3,-10,-14
-11,-7,3,10,-7,-1,19,0,-12,-2,-9,-13
-10,-6,3,9,-6,-1,15,-1,-11,-2,-8,-12
-9,-6,2,8,-5,-1,13,-1,-11,-1,-7,-11
-9,-6,2,8,-5,-1,11,-1,-10,-1,-6,-11
-8,-6,2,7,-4,-1,11,-1,-9,-1,-6,-10
-8,-5,2,6,-4,-1,9,-1,-8,-1,-5,-10
-7,-5,2,6,-4,-1,6,-1,-8,0,-5,-9
-6,-4,1,5,-3,-1,5,-1,-7,0,-4,-9
-5,-4,1,5,-3,-1,4,-1,-6,1,-4,-9
-5,-3,0,4,-2,-1,3,0,-4,2,-3,-9
-4,-3,0,4,-2,-1,3,0,-3,3,-2,-8
-4,-3,0,4,-1,-1,3,1,-2,4,-2,-8
-4,-3,0,4,-1,-2,2,1,-1,4,-2,-7
-3,-3,-1,4,-1,-2,1,2,-1,5,-2,-7
-3,-3,-1,4,-1,-2,1,2,0,5,-2,-6
-3,-3,-1,4,-1,-2,1,2,0,5,-1,-6
-3,-3,-1,3,-1,-2,0,3,0,6,-1,-6
-3,-3,-1,3,0,-2,0,3,1,6,0,-6
-3,-3,-1,3,0,-2,0,3,2,7,0,-6
-3,-3,-1,3,0,-2,0,3,2,7,0,-6
-2,-3,-1,3,0,-2,0,3,2,7,0,-6
-2,-3,-1,3,0,-2,0,3,2,7,0,-6
-2,-3,-1,3,0,-2,0,3,2,7,0,-6
-2,-3,-1,3,0,-2,0,3,2,7,0,-6
-2,-3,-2,3,0,-2,0,3,2,7,-1,-6
-2,-3,-2,3,0,-2,-1,3,2,7,0,-6
-2,-3,-2,3,0,-2,-1,3,2,7,0,-6
-2,-3,-2,3,0,-2,0,3,2,8,1,-6
-2,-3,-2,3,0,-2,0,3,2,8,1,-6
-2,-3,-2,3,0,-2,0,3,2,8,1,-6
-2,-3,-2,3,0,-3,0,3,2,8,1,-6
-2,-3,-2,3,0,-3,0,3,2,8,1,-6
-2,-3,-2,3,0,-3,0,3,2,8,1,-7
-2,-3,-2,3,0,-3,0,3,2,8,0,-7
-2,-3,-2,3,0,-3,-1,3,2,8,0,-7
-2,-3,-2,3,0,-3,-1,3,2,8,0,-7
-2,-3,-2,3,0,-3,0,4,2,8,0,-7
-2,-3,-2,3,0,-3,0,4,3,8,0,-7
-2,-3,-3,3,0,-3,0,4,3,8,0,-7
-2,-3,-3,3,0,-3,0,4,3,8,-1,-7
-2,-3,-3,3,0,-3,0,4,3,7,-1,-7
-2,-3,-3,3,1,-3,0,4,3,7,-1,-7
-2,-3,-3,3,1,-3,-1,4,3,7,-1,-7
-2,-3,-3,3,1,-3,-1,4,3,7,-1,-7
-2,-3,-3,3,1,-3,0,4,3,8,-1,-7
-1,-3,-3,3,1,-3,0,4,3,7,-2,-8
-1,-3,-3,3,1,-3,0,4,3,7,-2,-8
-1,-4,-3,3,1,-3,0,4,3,8,-1,-9
-2,-4,-3,3,1,-3,0,4,2,9,-1,-9
-2,-4,-3,3,1,-4,0,4,2,9,-1,-10
-2,-4,-3,3,1,-4,-1,5,2,9,-1,-10
-2,-5,-3,3,1,-4,-1,5,3,9,-2,-11
-2,-5,-3,3,1,-4,-1,5,3,8,-2,-11
-2,-5,-4,4,1,-5,-1,5,3,8,-3,-12
-2,-5,-4,4,1,-5,-1,5,3,7,-3,-12
-2,-5,-4,4,1,-5,-1,5,3,7,-3,-12
-2,-5,-4,4,1,-5,-1,5,3,7,-3,-13
-2,-5,-4,4,1,-5,0,5,3,7,-4,-14
-2,-5,-4,4,1,-5,0,5,3,6,-4,-15
-2,-6,-4,4,1,-5,0,5,3,6,-5,-16
-2,-6,-4,4,1,-5,0,5,3,6,-6,-16
-2,-6,-4,5,1,-5,0,5,3,6,-6,-17
-2,-6,-4,5,1,-5,0,6,3,6,-7,-18
-2,-6,-4,5,1,-5,0,6,3,6,-7,-19
-2,-6,-4,5,1,-5,0,6,3,6,-7,-20
-2,-6,-4,5,1,-5,0,6,4,6,-8,-21
-2,-6,-4,5,1,-6,1,7,4,6,-8,-22
-2,-7,-4,5,1,-6,1,7,4,6,-9,-23
-3,-7,-4,5,1,-6,0,7,4,6,-10,-24
-3,-7,-4,5,1,-6,0,7,4,6,-10,-25
-3,-7,-4,5,1,-6,0,7,4,6,-9,-25
-3,-8,-4,6,1,-6,0,7,4,6,-9,-26
-3,-8,-4,6,1,-6,0,7,4,7,-9,-26
-3,-8,-4,6,1,-6,0,7,4,7,-8,-27
-3,-8,-4,6,1,-6,0,7,4,7,-8,-27
-3,-8,-5,6,1,-6,0,8,4,7,-7,-27
-3,-7,-5,6,1,-6,0,8,4,8,-6,-27
-3,-7,-5,6,1,-6,0,7,4,8,-6,-27
-3,-7,-5,6,1,-6,-1,7,4,8,-5,-26
-3,-7,-5,5,1,-6,-1,6,3,8,-3,-25
-2,-6,-5,5,2,-6,-2,6,3,8,-2,-24
-2,-6,-5,5,2,-6,-2,5,2,9,-1,-22
-1,-6,-5,4,2,-6,-3,5,1,9,1,-20
-1,-5,-5,4,2,-6,-4,4,0,9,4,-18
0,-5,-5,3,2,-6,-5,4,0,9,6,-15
0,-4,-5,3,3,-6,-5,3,-1,9,7,-13
0,-4,-5,2,3,-6,-6,3,-2,9,9,-10
1,-3,-6,2,4,-5,-7,2,-3,9,10,-7
2,-3,-6,1,4,-5,-8,1,-4,9,12,-4
3,-2,-6,0,5,-5,-9,0,-5,9,15,0
4,-1,-6,0,5,-4,-10,0,-6,9,17,2
5,-1,-6,-1,6,-4,-11,0,-7,9,19,5
5,0,-7,-2,6,-4,-12,-1,-7,9,20,7
6,0,-7,-2,7,-3,-12,-1,-7,8,20,9
6,0,-7,-3,7,-3,-13,-1,-7,7,21,11
7,1,-7,-3,8,-3,-13,-1,-7,7,21,13
8,1,-7,-4,8,-3,-14,-2,-8,8,21,15
8,1,-7,-4,8,-3,-15,-2,-8,9,21,16
9,2,-7,-4,9,-3,-15,-2,-7,9,22,17
9,2,-7,-5,9,-3,-16,-2,-7,9,22,18
10,2,-7,-5,9,-3,-17,-1,-6,8,22,18
10,2,-7,-5,9,-3,-17,-1,-5,8,22,18
10,2,-7,-5,9,-2,-17,0,-4,9,21,18
10,2,-7,-5,9,-2,-16,0,-3,10,21,18
10,2,-7,-5,9,-2,-16,0,-2,9,20,18
10,2,-7,-5,9,-2,-17,0,-1,9,19,17
10,2,-7,-5,9,-2,-17,1,0,9,19,17
9,2,-7,-5,9,-2,-16,1,0,9,18,16
9,2,-7,-5,9,-2,-15,2,1,9,17,16
8,2,-7,-4,8,-2,-15,3,2,9,16,15
8,2,-6,-4,8,-2,-15,3,3,9,16,14
8,2,-6,-4,7,-2,-14,4,4,9,15,13
7,2,-5,-4,7,-1,-13,4,5,10,14,12
7,2,-5,-4,6,-1,-13,5,6,10,13,11
7,2,-4,-4,6,-1,-13,5,7,10,12,11
6,2,-4,-4,6,0,-12,5,7,10,12,10
6,2,-4,-3,5,0,-11,5,8,10,11,9
5,2,-3,-3,5,0,-10,5,8,10,11,9
5,2,-3,-3,4,0,-9,5,8,10,10,9
4,2,-2,-3,4,0,-9,5,8,10,10,8
4,2,-2,-2,3,0,-8,5,8,10,9,7
4,2,-1,-2,3,0,-8,5,8,10,9,7
3,2,-1,-2,2,0,-7,5,8,10,8,6
3,2,-1,-2,2,0,-7,5,8,10,7,6
2,2,0,-2,2,1,-6,5,8,10,6,6
2,2,0,-2,2,1,-6,5,8,9,6,6
1,2,0,-2,1,2,-5,5,7,9,6,5
1,2,1,-2,1,2,-4,5,7,9,6,5
1,2,1,-2,0,2,-4,5,7,9,6,4
1,2,1,-2,0,2,-4,5,6,9,6,4
1,2,2,-1,0,2,-3,5,6,9,5,4
1,3,2,-1,0,2,-2,5,6,9,5,4
1,3,2,-1,0,2,-2,4,6,9,5,3
1,3,2,-1,0,3,-2,4,6,9,5,3
1,3,3,-1,0,3,-2,4,5,9,5,3
0,4,3,-1,-1,3,-1,4,5,8,5,3
0,4,4,-1,-1,4,-1,3,5,8,5,3
0,4,4,-1,-1,4,-2,3,5,8,5,2
0,4,4,-1,-1,4,-2,2,5,8,5,2
0,4,4,-1,-1,4,-3,2,4,8,5,2
0,4,4,-1,-1,4,-4,2,4,8,4,2
0,4,4,-1,-1,4,-4,2,4,8,4,2
0,4,4,-1,-1,4,-4,2,4,8,4,3
0,4,4,-1,-1,4,-5,2,4,8,4,3
0,4,4,-1,-1,3,-5,2,4,8,4,3
0,4,3,-1,-1,3,-4,2,4,9,4,3
0,3,3,-1,-1,2,-4,2,3,9,5,3
0,3,3,-1,-1,2,-5,2,3,9,5,3
0,3,3,-1,-1,2,-5,2,3,8,5,3
0,3,3,-1,-1,2,-5,1,3,8,5,3
0,3,3,-1,-1,2,-6,1,3,8,5,3
0,2,2,-1,0,2,-5,1,3,8,5,2
0,2,2,-1,0,1,-5,1,2,8,5,2
0,1,1,0,0,1,-5,1,2,7,4,1
0,1,1,0,0,1,-5,1,2,6,4,1
0,0,1,0,0,1,-5,1,2,5,3,1
0,0,1,0,0,0,-5,2,2,4,2,1
0,0,1,0,0,0,-5,2,2,3,2,0
0,0,0,0,0,0,-4,2,2,3,2,0
0,0,0,0,0,0,-3,2,2,4,3,0
0,0,0,0,0,0,-3,2,1,5,3,0
0,0,0,0,0,0,-4,2,1,5,3,0
0,0,0,0,0,-1,-3,2,1,5,3,0
0,-1,-1,0,0,-1,-3,2,1,5,3,0
0,-1,-1,0,1,-1,-3,2,0,5,2,0
0,-2,-2,1,1,-2,-4,1,0,5,2,0
0,-2,-2,1,2,-2,-3,1,0,5,2,0
0,-2,-2,1,2,-2,-3,1,0,4,2,0
0,-3,-2,1,2,-3,-4,1,0,4,1,0
0,-3,-3,1,2,-3,-4,1,0,3,1,0
0,-4,-3,1,2,-4,-4,1,0,2,0,0
0,-4,-3,1,2,-4,-4,1,0,1,0,0
0,-4,-4,1,2,-4,-4,1,0,1,0,0
0,-4,-4,1,2,-4,-4,1,0,1,0,0
1,-3,-4,1,2,-4,-5,1,0,1,0,0
1,-3,-4,1,3,-4,-5,1,0,2,0,0
2,-3,-4,0,3,-4,-4,1,0,2,0,1
2,-3,-4,0,3,-3,-4,2,0,3,1,1
2,-2,-4,0,3,-3,-4,3,1,4,2,1
2,-2,-4,-1,3,-2,-3,3,2,4,3,2
2,-1,-4,-1,3,-2,-2,3,2,4,4,2
2,-1,-4,-1,3,-2,-2,3,2,4,5,2
2,-1,-4,-1,3,-2,-1,2,2,5,5,2
2,-1,-3,-1,3,-2,0,2,2,5,4,2
1,-1,-3,0,2,-2,-1,2,2,5,3,2
1,-1,-2,0,2,-2,0,2,2,4,2,2
0,-1,-2,0,1,-2,1,2,2,4,2,2
-1,-2,-2,1,1,-2,1,3,2,4,3,1
-1,-2,-2,1,0,-2,1,3,2,4,3,1
-2,-3,-2,2,0,-2,1,3,2,4,4,1
-2,-3,-2,2,0,-2,1,3,2,4,4,1
-2,-3,-2,2,0,-2,1,3,2,4,4,1
-2,-4,-2,2,0,-2,1,3,2,4,4,1
-2,-4,-2,2,0,-2,1,3,2,4,4,1
-2,-4,-2,2,0,-2,2,3,2,4,4,1
-2,-4,-2,2,0,-2,2,3,2,4,4,1
-2,-4,-2,2,0,-2,2,3,2,4,4,1
-2,-4,-2,2,0,-2,2,3,2,4,4,1
-2,-3,-1,2,0,-2,2,3,2,4,3,1
-2,-3,-1,2,0,-2,2,3,2,4,3,1
-2,-3,-1,2,0,-2,2,3,2,4,3,1
-2,-3,-1,2,0,-2,3,3,2,4,3,1
-2,-3,-1,2,0,-2,3,3,2,4,3,1
-2,-3,-1,2,0,-2,3,3,2,4,3,1
-2,-3,-1,2,0,-2,3,3,2,4,3,1
-2,-3,-1,2,0,-2,3,3,2,4,3,1
-2,-3,-1,2,0,-2,3,3,2,4,3,1
-2,-3,-1,2,0,-2,4,3,2,4,3,1
-2,-3,-1,2,0,-2,4,3,2,4,4,1
-2,-3,-1,2,0,-2,3,3,2,4,4,1
-2,-3,-1,2,0,-2,3,3,2,4,4,1
-2,-3,-1,2,0,-2,4,3,2,4,4,1
-2,-3,-1,2,0,-2,5,3,2,4,4,1
-2,-3,-1,2,0,-2,4,3,2,4,4,1
-2,-3,-1,2,0,-2,4,3,2,4,4,1
-2,-3,-1,2,0,-2,5,3,2,4,4,1
-2,-3,-1,2,0,-2,4,3,2,4,4,1
-2,-3,-1,2,0,-2,4,3,2,4,4,1
-2,-3,-1,2,0,-1,4,3,2,4,4,1
-2,-3,-1,2,0,-1,4,3,2,4,4,1
-2,-3,-1,2,0,-1,4,3,2,4,4,1
-2,-3,-1,2,0,-1,5,3,2,4,4,1
-2,-3,-1,2,0,-1,5,3,2,4,4,1
-2,-3,-1,2,0,-1,1,3,2,4,4,1
-2,-3,0,2,0,-1,0,3,2,4,4,1
-2,-3,0,2,0,-1,4,3,2,4,5,1
-2,-3,0,2,0,-1,7,3,2,4,5,1
-2,-3,0,2,-1,-1,6,3,2,4,5,1
-2,-3,0,2,-1,-1,6,3,2,5,5,1
-2,-3,0,2,-1,-1,6,3,3,5,5,1
-2,-3,0,2,-1,-1,6,4,3,5,5,1
-2,-3,0,2,-1,-1,7,4,4,5,6,1
-2,-3,0,2,-1,-1,7,5,5,6,6,1
-2,-3,0,2,-1,-2,7,6,7,8,7,1
-2,-3,-1,2,-1,-2,8,8,9,11,8,1
-2,-3,-1,2,0,-2,9,10,13,15,9,0
-2,-4,-2,2,0,-2,10,12,16,18,11,-1
-2,-4,-2,2,0,-2,10,14,18,21,14,-1
-2,-3,-1,2,0,-2,10,14,20,25,18,0
-2,-2,-1,2,0,-1,10,14,20,28,23,1
-1,-1,0,1,0,0,10,13,19,30,28,4
0,0,0,0,0,0,8,11,17,32,33,8
0,2,1,-1,0,2,5,9,14,32,37,13
0,5,3,-2,0,4,3,6,11,32,42,19
1,7,4,-4,0,6,2,3,8,32,47,26
3,9,5,-6,0,7,0,1,5,32,52,34
5,11,5,-8,0,8,-1,-1,2,32,58,43
7,13,5,-10,1,9,-4,-3,0,33,65,52
10,15,5,-12,2,10,-7,-5,-1,34,72,63
12,17,5,-14,4,10,-9,-7,-2,35,80,75
14,19,5,-16,5,11,-11,-9,-5,36,87,89
16,21,5,-19,6,13,-14,-13,-9,36,93,103
19,25,5,-21,7,15,-17,-17,-13,35,99,119
21,27,5,-24,8,16,-20,-21,-17,34,104,134
24,29,4,-26,10,17,-22,-24,-21,32,106,145
27,29,2,-27,12,16,-24,-25,-23,29,105,150
29,29,0,-28,15,14,-26,-26,-23,27,103,150
30,28,-3,-29,17,12,-27,-26,-22,24,98,145
31,26,-5,-28,19,10,-27,-25,-21,20,87,135
31,24,-8,-27,20,8,-27,-24,-20,14,66,119
30,22,-9,-26,21,6,-26,-23,-19,3,33,99
28,19,-11,-23,20,4,-24,-22,-18,-10,-4,77
25,16,-11,-20,19,3,-21,-21,-18,-26,-41,55
21,13,-8,-16,15,3,-18,-21,-20,-44,-74,33
16,12,-4,-13,11,4,-15,-21,-24,-60,-100,13
11,11,0,-10,6,5,-13,-23,-27,-72,-118,-5
6,10,4,-8,2,7,-10,-24,-29,-79,-128,-20
2,10,8,-6,-2,8,-8,-23,-27,-82,-132,-33
-2,9,11,-4,-5,10,-6,-22,-21,-82,-132,-44
-5,8,13,-2,-8,11,-4,-19,-14,-79,-129,-51
-7,7,14,0,-10,11,-1,-16,-6,-74,-122,-55
-10,6,15,2,-12,11,2,-12,1,-66,-113,-58
-12,4,16,4,-13,10,6,-8,9,-57,-103,-59
-14,2,16,6,-14,9,10,-4,17,-48,-92,-58
-16,0,17,8,-15,8,13,0,23,-39,-81,-57
-18,-1,17,10,-17,7,16,4,28,-32,-72,-54
-20,-3,17,11,-17,6,19,6,32,-25,-64,-52
-21,-4,16,12,-18,5,21,8,34,-20,-57,-49
-21,-5,16,13,-18,5,23,9,36,-15,-50,-46
-22,-6,15,15,-19,4,25,10,37,-11,-44,-44
-23,-7,15,16,-19,4,28,10,36,-10,-39,-42
-24,-8,15,17,-19,4,30,10,33,-10,-36,-40
-24,-8,15,17,-19,4,31,10,30,-12,-34,-39
-25,-8,16,17,-20,3,32,10,25,-13,-32,-37
-25,-8,16,17,-20,3,34,8,19,-15,-31,-35
-25,-8,16,17,-20,3,35,7,12,-15,-29,-33
-25,-7,16,17,-20,4,36,5,7,-15,-28,-31
-25,-7,16,17,-20,4,38,4,3,-15,-26,-29
-25,-8,16,17,-20,3,40,4,0,-16,-25,-29
-25,-9,15,17,-20,3,41,3,-3,-16,-25,-28
-25,-9,15,17,-19,2,42,3,-7,-17,-24,-28
-25,-10,14,17,-19,2,43,2,-10,-17,-23,-27
-24,-10,14,17,-18,2,43,2,-13,-16,-21,-25
-24,-10,13,17,-18,1,44,1,-14,-14,-20,-24
-23,-10,13,17,-17,1,46,1,-14,-12,-18,-23
-23,-9,13,16,-17,1,47,1,-13,-10,-17,-22
-22,-9,13,16,-16,1,48,1,-13,-9,-16,-21
-21,-9,12,15,-16,1,49,2,-12,-8,-15,-21
-21,-8,12,15,-15,1,49,2,-12,-7,-13,-20
-20,-8,11,14,-15,1,48,2,-11,-6,-12,-19
-19,-7,11,14,-14,1,46,2,-11,-6,-11,-18
-18,-7,10,13,-13,1,43,1,-12,-5,-10,-17
-17,-7,9,13,-12,0,39,0,-12,-5,-10,-16
-16,-7,7,13,-11,0,34,0,-13,-5,-9,-15
-15,-7,6,12,-10,-1,30,-1,-13,-5,-8,-14
-14,-7,5,11,-9,-1,27,-1,-13,-4,-7,-14
-13,-6,5,10,-8,-1,23,-2,-13,-4,-6,-13
-12,-6,5,9,-7,-1,19,-2,-12,-3,-5,-12
-11,-6,4,9,-7,-1,17,-2,-11,-3,-4,-11
-10,-6,4,8,-6,-1,14,-2,-10,-2,-4,-10
-10,-5,3,8,-6,-1,12,-2,-9,-1,-3,-9
-9,-5,3,7,-5,-1,10,-1,-8,-1,-3,-9
-8,-5,2,7,-5,-1,9,-1,-8,0,-2,-8
-7,-5,1,6,-4,-1,7,-1,-7,0,-1,-8
-6,-4,1,6,-3,-1,6,-1,-6,1,0,-8
-5,-4,1,5,-3,-1,5,0,-4,2,0,-8
-5,-4,1,4,-2,-1,4,0,-3,2,0,-7
-4,-4,0,4,-2,-2,3,1,-2,3,0,-7
-4,-4,0,4,-2,-2,3,1,-1,3,1,-6
-4,-3,0,4,-2,-2,3,1,-1,4,1,-6
-3,-3,0,3,-1,-2,3,2,-1,4,1,-6
-3,-3,0,3,-1,-2,2,2,0,4,1,-6
-3,-3,0,3,-1,-2,2,3,0,5,2,-6
-3,-3,0,3,-1,-2,2,3,0,5,2,-5
-3,-3,0,3,0,-2,2,3,1,5,3,-5
-3,-3,-1,3,0,-2,1,3,2,5,3,-5
-3,-3,-1,3,0,-2,1,4,2,5,3,-5
-3,-3,-1,3,0,-2,1,4,2,6,3,-5
-3,-3,-1,3,0,-2,1,4,2,6,3,-5
-3,-3,-2,3,0,-2,1,4,2,6,3,-5
-3,-3,-2,3,0,-2,1,4,2,5,3,-5
-2,-3,-2,3,0,-2,1,4,2,5,3,-5
-2,-3,-2,3,1,-2,1,4,2,5,3,-6
-2,-3,-2,3,1,-2,1,4,2,5,3,-6
-2,-3,-2,3,0,-2,0,4,2,5,2,-6
-2,-3,-1,3,0,-2,0,4,2,5,2,-6
-2,-2,-1,2,0,-2,1,4,2,5,2,-6
-2,-2,-1,2,0,-2,1,4,2,5,2,-6
-2,-3,-1,3,0,-2,1,4,2,5,2,-6
-2,-3,-2,3,0,-3,2,4,2,5,1,-6
-2,-3,-2,3,1,-3,2,4,2,5,1,-6
-2,-4,-2,3,1,-3,1,4,3,5,1,-6
-2,-4,-3,3,1,-3,1,5,3,5,1,-6
-2,-4,-3,3,1,-4,2,5,3,5,1,-6
-2,-4,-3,3,1,-4,2,5,3,5,1,-6
-2,-4,-3,3,1,-4,2,5,2,5,1,-7
-1,-4,-3,3,1,-3,1,5,2,5,1,-7
-1,-3,-3,3,1,-3,1,5,2,5,1,-7
-1,-3,-2,3,1,-3,1,5,2,5,1,-7
-1,-3,-2,3,1,-3,1,5,2,5,0,-8
-1,-3,-3,3,1,-3,1,5,3,5,0,-8
-2,-4,-3,3,1,-3,1,5,3,4,0,-8
-2,-4,-3,3,1,-3,1,5,3,4,0,-8
-2,-4,-3,3,1,-3,1,5,3,3,0,-8
-2,-4,-3,3,1,-3,1,5,2,3,-1,-9
-2,-4,-3,3,1,-3,1,5,2,2,-1,-9
-2,-4,-3,3,1,-3,1,5,2,2,-1,-10
-2,-4,-3,3,1,-3,1,5,2,2,-2,-10
-1,-3,-3,2,1,-3,1,5,2,2,-2,-11
-1,-3,-3,2,1,-3,1,5,2,2,-2,-11
-1,-4,-3,3,1,-3,1,5,2,2,-2,-11
-1,-4,-3,3,1,-4,1,5,2,1,-2,-12
-2,-5,-3,3,1,-4,1,5,2,1,-3,-12
-2,-5,-4,4,2,-5,1,5,2,0,-4,-13
-2,-6,-5,4,2,-5,1,5,2,0,-4,-13
-2,-6,-5,4,2,-5,1,5,2,0,-5,-14
-2,-6,-5,3,2,-5,1,5,2,0,-6,-15
-2,-6,-4,3,2,-5,1,5,2,0,-7,-16
-2,-6,-4,4,2,-5,1,5,2,0,-7,-17
-2,-6,-4,4,2,-5,2,5,2,0,-8,-18
-1,-5,-4,4,2,-4,2,5,2,0,-9,-19
-1,-5,-3,4,2,-4,1,5,2,-1,-9,-20
-2,-6,-3,4,2,-5,1,5,2,-1,-10,-21
-2,-6,-4,4,2,-5,1,6,2,-2,-10,-22
-2,-6,-4,4,2,-5,1,6,2,-2,-11,-24
-2,-6,-4,4,2,-5,1,6,2,-2,-11,-25
-2,-6,-4,4,2,-5,1,6,2,-2,-12,-26
-2,-6,-4,4,2,-5,1,6,2,-2,-12,-26
-2,-6,-4,4,2,-5,1,6,2,-2,-12,-27
-2,-6,-4,4,2,-5,1,6,2,-2,-12,-27
-2,-6,-4,4,2,-5,0,6,2,-2,-11,-27
-2,-6,-4,4,2,-5,0,6,2,-2,-11,-27
-2,-6,-4,4,2,-5,0,6,2,-2,-10,-27
-2,-6,-4,4,2,-5,0,6,2,-2,-9,-26
-2,-6,-4,3,2,-5,0,6,1,-2,-8,-25
-1,-6,-4,3,2,-5,-1,5,1,-1,-7,-24
0,-6,-4,2,2,-5,-1,5,0,-1,-5,-23
0,-5,-4,2,3,-5,-2,4,0,-1,-4,-22
1,-5,-5,1,3,-5,-3,4,-1,-1,-2,-20
1,-4,-5,1,4,-5,-4,3,-2,-1,0,-17
1,-4,-4,1,4,-4,-5,3,-3,-1,1,-15
2,-3,-4,0,4,-4,-5,2,-4,-1,3,-12
3,-3,-4,0,4,-4,-7,2,-5,-1,5,-9
4,-2,-5,-1,5,-4,-8,1,-6,-1,7,-6
5,-2,-5,-1,5,-4,-8,0,-7,-1,9,-3
6,-1,-6,-2,6,-4,-10,0,-8,-2,11,0
6,-1,-6,-2,7,-4,-11,0,-9,-2,12,2
6,-1,-6,-3,7,-4,-12,-1,-10,-2,13,5
7,0,-6,-3,7,-4,-13,-1,-10,-2,15,8
8,1,-7,-5,8,-3,-13,-2,-11,-2,16,10
10,2,-7,-6,9,-3,-14,-2,-11,-2,17,12
11,2,-8,-6,10,-4,-16,-2,-11,-2,18,14
11,2,-9,-6,11,-4,-17,-2,-11,-2,18,15
11,2,-9,-6,11,-4,-17,-2,-11,-3,18,17
11,2,-9,-6,11,-4,-17,-2,-11,-3,18,17
11,2,-8,-7,11,-3,-18,-2,-11,-4,18,18
12,3,-8,-7,11,-3,-18,-2,-10,-4,18,18
12,3,-8,-7,11,-3,-18,-2,-9,-5,17,18
12,3,-8,-7,11,-3,-18,-1,-8,-5,16,18
13,3,-8,-7,11,-3,-17,-1,-7,-5,15,18
13,4,-8,-8,11,-3,-16,0,-6,-5,14,18
13,4,-8,-8,11,-3,-16,0,-5,-5,13,17
13,4,-8,-8,11,-3,-16,1,-4,-5,12,16
13,4,-8,-8,11,-3,-17,2,-3,-5,12,15
12,3,-8,-8,10,-3,-16,2,-2,-5,12,15
12,3,-8,-7,10,-3,-15,3,-1,-5,11,14
11,2,-8,-7,10,-3,-14,3,0,-5,10,14
11,2,-8,-7,10,-3,-14,4,1,-4,10,13
11,3,-7,-7,9,-2,-13,4,2,-4,9,12
10,3,-7,-7,9,-2,-13,5,2,-3,8,11
10,3,-6,-6,8,-2,-13,5,3,-3,7,10
9,3,-6,-6,8,-2,-13,5,3,-4,6,9
9,3,-5,-6,8,-1,-12,6,4,-4,6,9
8,3,-5,-6,7,-1,-11,6,4,-3,6,8
8,3,-4,-6,7,-1,-10,5,5,-3,5,8
8,3,-3,-5,6,0,-9,4,5,-3,4,7
7,3,-3,-5,6,0,-9,3,5,-3,4,6
7,3,-2,-5,5,0,-9,3,5,-3,3,6
7,3,-2,-5,5,0,-8,2,5,-3,3,5
7,4,-1,-5,4,0,-7,2,5,-3,2,5
6,4,-1,-4,3,1,-5,1,5,-3,2,5
6,4,0,-5,3,1,-5,1,5,-3,2,5
6,4,0,-5,2,2,-5,0,4,-3,2,5
5,4,0,-5,2,2,-4,0,4,-3,1,5
5,4,0,-5,2,2,-3,0,4,-3,1,4
5,4,0,-5,2,2,-3,0,3,-3,1,4
5,4,0,-5,2,2,-3,-1,3,-3,1,4
5,4,0,-5,2,2,-3,-1,2,-3,1,3
4,5,1,-5,1,3,-3,-2,2,-3,1,3
4,5,2,-4,0,3,-3,-2,2,-4,1,3
3,6,3,-4,0,4,-4,-3,1,-4,1,3
3,6,3,-4,0,4,-5,-3,1,-4,1,3
3,6,3,-4,0,4,-5,-4,1,-4,1,3
3,6,3,-4,0,4,-5,-4,1,-4,0,2
4,6,3,-4,0,4,-5,-4,1,-4,0,2
4,6,2,-4,1,4,-6,-4,1,-4,0,2
4,5,2,-4,1,4,-7,-4,1,-5,0,2
4,5,2,-4,1,4,-7,-4,1,-5,0,2
4,5,2,-4,1,4,-6,-4,1,-5,0,2
4,5,1,-4,1,3,-6,-4,1,-5,0,2
4,5,1,-4,1,3,-5,-4,1,-4,0,2
4,5,1,-4,1,3,-6,-4,0,-4,0,2
4,5,1,-4,1,3,-7,-5,0,-5,-1,1
4,4,1,-4,1,3,-7,-5,0,-5,-1,1
4,4,1,-4,1,3,-6,-4,0,-5,-1,1
4,4,1,-4,1,2,-5,-4,-1,-5,-1,1
4,4,1,-4,1,2,-6,-4,-1,-6,-1,1
4,4,1,-4,1,2,-7,-4,-2,-6,-1,1
4,4,1,-4,1,2,-8,-5,-2,-7,-2,1
4,3,0,-3,1,2,-7,-5,-2,-7,-2,1
3,3,0,-3,1,1,-6,-5,-2,-8,-2,1
3,3,0,-3,1,1,-5,-5,-2,-8,-2,0
3,3,0,-3,1,1,-5,-5,-2,-8,-2,0
3,3,0,-3,1,1,-5,-5,-2,-9,-3,0
3,2,0,-3,1,1,-5,-5,-2,-9,-3,0
3,2,-1,-2,1,0,-5,-5,-3,-9,-3,0
3,1,-1,-2,1,0,-5,-5,-3,-10,-3,0
3,1,-1,-2,2,0,-5,-5,-3,-10,-4,0
3,0,-2,-2,2,0,-5,-5,-3,-11,-4,0
3,0,-2,-2,3,0,-5,-5,-3,-11,-5,0
3,0,-2,-2,3,-1,-5,-5,-3,-11,-5,0
3,0,-3,-2,4,-1,-5,-5,-3,-11,-5,0
4,0,-3,-2,4,-2,-5,-5,-3,-11,-5,0
4,0,-3,-2,4,-2,-5,-5,-4,-12,-5,-1
4,0,-4,-2,4,-2,-6,-5,-4,-12,-5,-1
4,0,-4,-2,4,-2,-6,-5,-5,-12,-5,-1
5,0,-4,-3,5,-2,-6,-5,-5,-12,-5,-1
5,0,-4,-3,5,-2,-6,-5,-5,-12,-5,0
5,0,-4,-3,5,-2,-6,-5,-5,-12,-5,0
5,0,-4,-2,5,-2,-6,-5,-5,-12,-5,0
5,0,-4,-2,5,-2,-5,-5,-5,-12,-4,0
5,0,-4,-2,5,-2,-4,-4,-4,-12,-4,0
5,1,-4,-2,5,-1,-4,-3,-3,-11,-4,0
5,1,-3,-3,5,-1,-4,-3,-2,-11,-4,1
5,1,-3,-3,5,-1,-4,-3,-2,-10,-3,1
6,2,-3,-4,5,-1,-3,-3,-2,-10,-3,2
5,2,-3,-3,5,-1,-3,-4,-2,-10,-3,2
4,1,-3,-3,4,-1,-2,-4,-2,-10,-3,2
4,1,-3,-2,4,-1,-2,-4,-2,-10,-3,2
4,1,-3,-2,4,-1,-2,-4,-2,-10,-3,2
4,1,-3,-2,4,0,-2,-4,-3,-10,-3,1
3,1,-2,-2,3,0,-1,-4,-3,-10,-3,1
3,1,-2,-2,3,0,0,-4,-3,-10,-4,0
2,1,-1,-2,2,0,0,-4,-3,-10,-4,0
2,1,-1,-1,2,0,0,-4,-2,-10,-4,0
1,0,-1,-1,2,0,0,-3,-2,-10,-4,0
1,0,-1,0,2,0,0,-3,-2,-10,-4,0
1,0,-1,0,2,0,0,-3,-2,-11,-4,0
1,0,-1,0,2,0,0,-3,-2,-11,-4,0
1,0,-2,0,2,-1,0,-3,-2,-11,-4,0
1,-1,-2,0,2,-1,0,-3,-2,-11,-4,0
1,-1,-1,0,1,-1,0,-3,-3,-11,-4,0
1,-1,-1,0,1,0,1,-4,-3,-11,-4,0
1,-1,-1,0,1,0,0,-3,-3,-11,-3,0
1,0,-1,0,2,0,0,-3,-3,-10,-3,0
1,0,-1,0,2,0,0,-3,-3,-10,-3,0
1,0,-1,0,2,0,0,-3,-3,-10,-4,0
1,0,-1,0,2,0,0,-3,-3,-10,-4,0
1,0,-1,0,2,0,1,-3,-3,-10,-4,0
1,0,-1,0,2,0,1,-3,-3,-9,-3,0
1,0,-1,0,2,0,1,-3,-2,-10,-3,0
1,0,-1,0,2,0,1,-3,-2,-10,-4,0
1,0,-1,0,1,0,1,-3,-2,-10,-4,0
1,0,-1,0,1,0,1,-3,-2,-10,-4,0
1,0,-1,0,1,0,1,-3,-2,-10,-4,0
1,0,-1,0,1,0,1,-3,-3,-11,-4,0
1,0,-1,0,1,0,1,-3,-3,-11,-4,0
1,0,-1,0,1,0,1,-3,-3,-10,-4,0
1,0,-1,0,1,0,1,-3,-3,-10,-4,0
1,0,-1,0,1,0,1,-3,-3,-11,-4,0
1,0,-1,0,1,0,2,-2,-3,-11,-4,0
2,0,-1,0,2,0,1,-2,-3,-11,-4,0
2,0,-1,0,2,0,1,-2,-3,-11,-4,0
1,0,-1,0,2,0,2,-2,-3,-11,-4,0
1,0,-1,0,1,0,2,-2,-3,-11,-4,0
1,0,-1,0,1,0,2,-2,-3,-11,-4,0
1,0,-1,0,1,0,2,-2,-3,-11,-4,0
1,0,-1,0,1,0,2,-2,-3,-11,-4,0
1,0,-1,0,1,0,1,-2,-3,-10,-4,0
1,1,0,-1,1,0,1,-2,-3,-10,-4,0
1,1,0,-1,1,0,1,-2,-3,-10,-4,0
2,0,-1,-1,1,0,1,-2,-3,-10,-4,0
2,0,-1,-1,2,0,1,-2,-3,-10,-4,0
2,0,-1,-1,2,0,1,-2,-3,-10,-4,0
1,0,-1,0,2,0,1,-2,-3,-10,-4,0
1,0,-1,0,2,0,2,-2,-3,-10,-4,0
1,0,-1,0,1,0,2,-2,-2,-9,-4,0
0,0,0,0,1,0,2,-2,-1,-8,-3,0
0,0,0,0,1,0,3,0,0,-6,-2,0
0,0,-1,0,1,0,4,1,3,-4,-1,-1
0,-1,-1,0,1,-1,4,4,6,-1,1,-2
1,-1,-2,0,1,-1,5,6,10,2,3,-3
1,-1,-2,0,2,-1,6,8,12,5,6,-3
1,-1,-2,0,2,-1,6,8,14,9,10,-1
2,0,-2,0,2,0,5,8,14,13,15,1
3,1,-2,-1,2,0,4,8,14,16,20,5
3,2,-1,-2,2,0,3,6,12,18,25,10
4,4,0,-4,2,2,2,4,10,19,30,15
5,7,1,-5,2,4,1,1,7,19,35,21
6,9,3,-7,2,6,-1,-1,4,19,40,28
7,11,3,-9,3,7,-4,-4,1,18,45,36
9,13,3,-11,4,8,-6,-6,-1,18,52,45
11,14,3,-13,5,8,-8,-7,-2,20,59,55
14,16,3,-15,6,9,-10,-9,-3,22,66,68
16,18,2,-17,8,9,-12,-10,-4,24,75,82
18,20,1,-19,9,10,-14,-12,-6,26,83,97
21,22,0,-21,11,10,-17,-15,-9,26,90,113
23,24,0,-24,12,12,-19,-18,-13,26,97,131
26,26,0,-26,14,13,-22,-22,-17,24,101,147
29,28,-2,-28,16,13,-25,-24,-20,22,102,158
32,28,-4,-29,18,12,-28,-26,-21,19,99,161
34,28,-6,-30,20,11,-29,-26,-21,17,93,158
36,27,-8,-31,22,9,-30,-26,-20,13,85,150
37,26,-11,-31,24,7,-30,-25,-20,8,70,135
37,24,-13,-30,25,5,-30,-24,-19,0,45,113
35,22,-14,-28,25,4,-29,-23,-20,-12,11,88
33,20,-14,-26,24,2,-27,-23,-20,-27,-26,64
30,17,-13,-23,22,2,-25,-22,-22,-43,-61,41
24,15,-9,-19,18,2,-22,-23,-26,-59,-90,19
18,13,-4,-16,12,4,-19,-25,-31,-72,-112,0
13,13,1,-13,7,6,-16,-27,-35,-82,-126,-16
8,14,6,-11,1,9,-14,-28,-37,-87,-134,-31
3,14,11,-9,-3,12,-13,-27,-35,-89,-137,-43
0,14,15,-7,-7,14,-10,-25,-29,-89,-136,-53
-3,14,17,-5,-9,15,-8,-21,-21,-87,-133,-59
-5,13,18,-4,-11,16,-6,-16,-12,-83,-128,-63
-7,11,19,-2,-12,15,-3,-11,-2,-76,-120,-65
-9,9,19,0,-13,14,1,-5,7,-68,-110,-65
-11,7,20,2,-14,13,5,0,16,-57,-98,-63
-13,5,19,4,-15,12,8,4,23,-48,-87,-61
-15,3,19,6,-16,11,11,8,29,-40,-77,-58
-16,2,18,7,-17,10,15,11,34,-34,-69,-55
-17,1,18,7,-17,9,18,13,37,-29,-62,-52
-17,0,18,8,-17,8,20,14,39,-24,-55,-49
-18,-1,17,9,-17,7,21,15,42,-18,-49,-47
-18,-3,16,10,-17,6,23,15,42,-15,-45,-45
-19,-4,16,11,-17,6,26,15,39,-15,-41,-43
-19,-4,15,12,-17,5,27,14,34,-16,-39,-41
-19,-4,15,12,-17,5,28,13,28,-17,-37,-38
-20,-4,15,12,-17,5,29,11,21,-19,-35,-36
-20,-4,15,12,-17,5,31,8,14,-21,-34,-34
-20,-4,16,12,-17,5,32,6,8,-22,-34,-33
-20,-4,16,12,-18,5,33,4,3,-23,-33,-32
-20,-4,16,12,-18,5,35,3,0,-24,-32,-31
-20,-4,16,12,-17,5,36,2,-4,-24,-31,-30
-20,-4,15,12,-17,4,38,2,-7,-25,-30,-29
-20,-5,15,12,-17,4,39,1,-11,-25,-29,-27
-20,-5,15,12,-17,4,40,0,-14,-25,-28,-26
-20,-5,15,12,-17,4,40,-1,-16,-24,-28,-25
-20,-6,14,12,-16,4,41,-2,-16,-23,-27,-24
-20,-6,14,12,-16,3,43,-2,-15,-21,-26,-23
-19,-5,13,12,-15,3,44,-2,-14,-20,-24,-22
-18,-5,13,11,-15,3,46,-2,-14,-18,-23,-22
-17,-5,12,11,-14,3,46,-1,-15,-17,-22,-21
-16,-5,12,11,-14,3,46,-1,-15,-17,-21,-21
-16,-5,11,10,-13,3,45,-1,-15,-17,-20,-20
-15,-4,11,10,-12,3,43,-1,-16,-17,-20,-19
-14,-4,10,9,-11,2,40,-2,-16,-17,-19,-18
-13,-4,9,9,-10,2,35,-4,-17,-17,-19,-17
-11,-4,8,8,-9,1,30,-5,-17,-17,-18,-16
-10,-4,7,7,-8,1,26,-6,-18,-17,-16,-15
-9,-3,6,7,-7,1,22,-7,-18,-16,-15,-14
-8,-3,6,6,-7,1,18,-7,-17,-16,-14,-13
-7,-2,5,5,-6,1,14,-7,-16,-15,-13,-12
-6,-2,5,5,-5,1,12,-7,-15,-15,-12,-11
-5,-1,4,4,-5,1,10,-7,-14,-14,-12,-10
-4,-1,4,3,-4,1,8,-7,-13,-13,-11,-10
-3,-1,3,3,-3,1,6,-7,-12,-12,-11,-9
-2,0,3,2,-2,1,4,-7,-11,-11,-10,-9
-2,0,3,2,-2,1,3,-6,-10,-11,-10,-9
-1,0,3,1,-1,1,2,-5,-9,-10,-9,-8
-1,0,2,1,-1,1,2,-4,-8,-9,-8,-8
-1,1,2,1,-1,1,1,-3,-7,-9,-7,-7
0,1,2,0,0,1,1,-3,-6,-8,-6,-7
0,1,1,0,0,1,0,-2,-5,-7,-5,-7
0,1,1,0,0,1,0,-2,-5,-6,-5,-7
1,1,1,0,0,1,0,-1,-4,-6,-5,-6
1,1,0,0,1,1,0,-1,-4,-5,-5,-6
1,1,0,0,1,1,0,0,-3,-5,-4,-6
1,1,0,0,1,1,0,0,-3,-4,-4,-6
1,1,0,0,1,0,0,0,-2,-4,-3,-6
1,1,0,0,2,0,0,0,-2,-4,-3,-6
1,1,0,0,2,0,0,0,-1,-4,-3,-6
2,1,0,0,2,0,0,0,-1,-4,-3,-6
2,1,0,0,2,0,0,0,-1,-3,-3,-6
2,1,0,0,2,0,0,0,-1,-3,-2,-6
2,1,0,0,2,0,0,1,-1,-3,-2,-6
2,1,0,0,2,0,-1,1,-1,-3,-2,-6
2,1,0,0,2,0,0,1,-1,-3,-2,-6
2,1,-1,0,2,0,0,1,-1,-3,-2,-6
2,1,-1,0,2,0,0,1,0,-3,-2,-6
2,1,-1,0,2,0,0,1,0,-3,-2,-6
2,1,-1,0,2,0,0,1,0,-2,-2,-6
2,1,-1,0,2,0,0,1,0,-2,-2,-6
2,1,-1,0,2,0,0,1,0,-1,-2,-6
2,1,-1,0,2,0,0,1,0,-1,-2,-6
2,1,-2,0,2,-1,0,1,0,-1,-2,-6
2,1,-2,0,2,-1,0,1,0,-1,-2,-6
2,1,-2,0,2,-1,0,1,0,-1,-1,-6
2,0,-2,0,2,-1,0,2,0,-1,-1,-6
2,0,-2,0,3,-1,0,2,0,-1,-1,-6
2,0,-2,0,3,-1,-1,2,0,0,-1,-6
2,0,-2,0,3,-1,-1,2,0,0,-1,-7
2,0,-2,0,3,-1,-1,2,0,0,-1,-7
2,0,-2,0,3,-1,0,2,0,0,-1,-7
2,0,-3,0,3,-2,0,2,0,0,-1,-7
2,0,-3,0,3,-2,-1,2,0,0,-1,-7
2,0,-3,0,3,-2,-1,2,0,0,-1,-7
2,-1,-3,0,3,-2,-1,2,1,0,-1,-7
2,-1,-3,0,3,-2,-1,2,1,0,-1,-7
2,-1,-3,0,3,-2,-1,2,1,0,-1,-7
2,-1,-3,0,3,-2,0,2,1,0,-1,-8
2,-1,-3,0,3,-3,0,2,1,0,-1,-8
2,-1,-3,0,3,-3,0,2,1,0,-1,-9
2,-1,-3,0,3,-3,0,2,1,0,-1,-9
2,-1,-3,0,3,-3,0,2,1,0,-2,-10
2,-2,-3,0,3,-3,0,2,1,0,-2,-10
2,-2,-4,0,3,-3,-1,2,1,0,-3,-11
2,-2,-4,0,3,-3,-2,2,1,0,-3,-11
2,-2,-4,0,4,-3,-1,2,1,0,-4,-12
2,-2,-4,0,4,-3,0,2,1,0,-4,-12
2,-2,-4,0,4,-3,0,2,1,0,-4,-13
2,-2,-4,0,4,-3,0,2,1,0,-5,-14
2,-2,-4,0,4,-4,0,3,1,0,-5,-15
2,-3,-5,1,4,-4,0,3,2,0,-6,-16
2,-3,-5,1,4,-5,0,3,2,-1,-6,-17
1,-4,-5,2,4,-5,0,3,2,-1,-7,-18
1,-4,-5,2,4,-5,-1,4,2,-1,-7,-19
1,-4,-5,2,4,-5,0,4,2,-1,-7,-19
1,-4,-5,2,4,-5,0,4,2,-1,-7,-20
1,-4,-5,2,4,-5,0,4,2,-1,-7,-21
1,-4,-5,2,3,-5,0,4,2,-1,-7,-22
1,-5,-5,2,3,-5,0,4,2,-1,-7,-23
1,-5,-5,2,3,-5,0,4,2,-1,-7,-23
1,-5,-5,2,3,-5,-1,4,2,0,-7,-24
1,-5,-5,2,3,-5,-1,4,2,0,-7,-24
1,-5,-5,2,3,-6,-1,4,2,0,-7,-24
1,-5,-6,2,3,-6,-1,4,2,1,-5,-24
1,-5,-6,2,3,-6,-1,4,1,1,-4,-23
1,-5,-6,2,3,-6,-2,4,1,1,-2,-22
1,-5,-6,2,3,-6,-3,3,0,2,-1,-21
1,-5,-6,2,3,-6,-3,3,0,2,1,-19
2,-4,-6,2,3,-6,-3,2,-1,2,3,-17
2,-4,-6,1,4,-6,-4,2,-2,2,5,-15
2,-3,-6,1,4,-6,-6,1,-3,3,7,-13
3,-3,-6,0,5,-5,-6,1,-3,3,9,-11
4,-2,-7,0,5,-5,-6,0,-4,3,11,-8
5,-2,-7,0,6,-5,-7,0,-5,3,13,-5
5,-1,-7,-1,6,-5,-8,-1,-6,3,15,-2
6,-1,-7,-1,7,-4,-10,-2,-7,3,17,0
7,0,-7,-2,7,-4,-11,-3,-8,4,19,3
7,0,-8,-3,8,-4,-12,-3,-9,4,21,6
8,1,-8,-4,9,-4,-13,-4,-10,4,22,9
9,1,-9,-4,9,-4,-14,-4,-11,4,24,11
10,2,-9,-5,10,-3,-15,-5,-11,4,25,14
11,2,-9,-5,10,-3,-15,-5,-11,4,26,16
11,2,-9,-6,11,-3,-16,-6,-11,4,27,18
12,2,-10,-6,11,-3,-16,-6,-11,4,28,19
12,2,-10,-7,11,-3,-17,-6,-11,4,28,21
12,3,-10,-7,11,-3,-17,-6,-11,4,28,22
13,3,-10,-8,11,-3,-18,-6,-11,4,28,22
13,3,-10,-8,12,-3,-18,-5,-11,4,28,23
13,3,-10,-8,12,-4,-17,-5,-10,4,27,23
13,3,-10,-8,13,-4,-17,-4,-9,4,27,23
14,3,-10,-8,13,-4,-18,-4,-8,4,26,23
14,3,-10,-8,13,-4,-18,-3,-7,5,25,23
14,3,-10,-8,13,-4,-18,-2,-5,5,24,22
14,3,-10,-8,12,-4,-17,-1,-4,5,23,22
13,3,-10,-8,12,-3,-17,-1,-3,5,23,21
13,3,-9,-8,11,-3,-17,0,-2,6,22,20
13,3,-9,-8,11,-3,-17,0,-1,6,22,19
12,3,-9,-8,11,-3,-17,1,0,7,21,19
12,3,-9,-7,10,-3,-16,1,2,7,21,18
12,3,-8,-7,10,-3,-15,2,3,8,20,17
11,3,-8,-7,10,-2,-15,2,4,8,19,17
11,3,-7,-7,9,-2,-14,3,5,8,18,16
10,3,-7,-7,9,-2,-13,3,6,8,18,15
10,3,-7,-7,8,-2,-13,4,7,8,17,14
9,3,-6,-7,8,-2,-13,4,8,8,17,13
9,3,-6,-7,8,-1,-12,4,8,8,16,13
8,3,-6,-6,7,-1,-10,4,9,8,16,12
8,3,-5,-6,7,-1,-10,4,9,9,15,12
8,3,-5,-6,6,0,-10,4,10,9,15,11
7,3,-4,-5,6,0,-9,4,10,9,14,11
7,3,-4,-5,5,0,-8,4,10,9,14,10
6,3,-3,-5,5,0,-7,4,10,9,13,10
6,3,-3,-4,4,0,-7,4,10,9,13,9
5,3,-3,-4,4,0,-7,4,9,9,12,9
5,3,-2,-4,4,0,-6,5,9,9,12,8
5,3,-2,-4,4,1,-6,5,8,9,12,8
5,3,-1,-4,4,1,-5,5,8,9,12,7
5,3,-1,-4,3,1,-5,5,8,9,11,7
5,4,0,-4,3,2,-4,5,8,8,11,6
4,4,0,-4,2,2,-4,4,8,8,11,6
4,4,0,-4,2,2,-3,4,8,8,11,6
4,4,0,-4,2,2,-2,4,8,8,10,6
4,4,1,-4,2,2,-2,4,8,8,10,6
4,4,1,-4,2,3,-1,4,7,8,9,6
3,4,1,-4,1,3,-2,4,7,8,9,6
3,4,1,-4,1,3,-2,3,7,8,9,6
3,4,2,-4,1,3,-2,3,7,8,9,6
3,5,2,-4,1,3,-3,3,6,8,9,5
3,5,2,-4,1,3,-3,3,6,8,8,5
3,5,2,-4,1,3,-4,3,6,8,9,5
3,5,2,-4,1,3,-4,3,6,7,9,5
3,5,2,-4,1,3,-4,2,6,7,9,5
3,5,2,-4,1,3,-5,2,6,7,9,5
3,5,2,-4,1,3,-5,2,6,7,9,5
3,5,2,-4,1,3,-5,2,6,7,9,4
3,5,1,-4,1,2,-6,2,5,7,9,4
3,5,1,-4,1,2,-6,2,5,7,9,4
3,4,1,-4,1,2,-6,2,5,7,9,4
3,4,1,-4,1,2,-6,2,4,6,9,4
3,4,1,-4,1,2,-7,2,4,6,9,4
3,4,1,-4,1,2,-7,2,4,6,9,4
3,4,1,-4,1,2,-7,2,4,6,8,4
3,3,0,-4,2,2,-7,2,4,5,8,3
3,3,0,-3,2,1,-7,2,4,5,7,3
3,3,0,-3,2,1,-6,2,3,5,7,3
3,3,0,-3,2,1,-7,2,3,5,6,3
3,3,0,-3,2,1,-7,2,2,5,6,3
3,2,0,-3,2,1,-6,2,2,4,6,3
3,2,-1,-3,2,0,-6,2,2,4,6,3
3,2,-1,-3,2,0,-6,1,2,3,6,3
3,2,-1,-3,2,0,-5,1,2,3,6,3
3,1,-2,-3,2,0,-5,1,2,3,6,3
3,1,-2,-3,3,-1,-6,1,1,3,6,2
3,0,-3,-3,3,-1,-5,1,1,3,6,2
3,0,-3,-3,3,-2,-5,1,1,2,6,2
3,0,-4,-2,4,-2,-5,1,1,2,6,2
3,0,-4,-2,4,-2,-5,1,0,2,6,2
3,0,-5,-2,4,-3,-6,1,0,2,5,2
3,0,-5,-2,4,-3,-6,1,0,2,5,2
3,-1,-5,-2,4,-4,-6,0,-1,1,4,1
3,-1,-5,-2,5,-4,-6,0,-1,1,4,1
4,-1,-5,-2,5,-4,-6,0,-1,1,4,1
4,-1,-5,-2,6,-4,-7,0,-1,1,4,1
5,-1,-5,-2,6,-4,-7,0,0,1,4,1
5,-1,-5,-2,6,-4,-6,1,0,1,4,1
6,-1,-5,-2,6,-4,-5,1,0,1,4,1
6,0,-5,-3,6,-4,-5,1,1,1,5,1
6,0,-5,-3,6,-4,-5,2,1,2,6,2
6,0,-5,-3,6,-3,-4,2,2,3,6,3
6,0,-5,-3,6,-3,-4,2,2,4,6,3
6,0,-5,-3,6,-3,-3,2,2,4,6,3
6,0,-5,-3,6,-3,-3,2,2,4,6,3
6,0,-5,-3,6,-2,-3,2,2,4,6,3
5,0,-5,-3,5,-2,-2,2,2,4,6,3
5,0,-4,-3,5,-2,-2,2,2,3,5,3
4,0,-4,-3,4,-2,-2,2,2,3,5,2
4,0,-4,-2,4,-2,-1,2,2,3,5,2
3,0,-4,-1,4,-2,-1,2,2,4,5,2
3,-1,-4,-1,4,-2,0,3,2,4,5,2
2,-1,-4,-1,4,-2,0,3,2,4,5,2
2,-1,-4,-1,4,-2,0,3,2,3,5,2
2,-1,-4,-1,3,-2,0,3,2,3,6,1
2,-1,-3,-1,3,-2,0,3,2,3,6,1
2,-1,-3,-1,3,-2,0,3,2,4,6,1
2,-1,-3,-1,3,-2,0,3,2,4,7,1
2,-1,-3,0,3,-2,0,3,2,4,7,1
1,-1,-3,0,3,-2,1,3,2,4,7,1
1,-1,-3,0,3,-2,1,3,2,4,6,1
1,-1,-3,0,3,-2,1,3,2,3,6,1
1,-1,-3,0,3,-2,1,3,3,3,6,1
1,-1,-3,0,3,-2,2,3,3,3,5,1
1,-1,-3,0,3,-2,2,3,3,3,5,1
1,-1,-3,0,3,-2,2,3,3,4,5,1
1,-1,-3,0,3,-2,2,3,3,4,5,1
1,-1,-3,0,3,-2,2,3,3,4,5,1
1,-1,-3,0,3,-2,2,3,3,4,5,0
1,-1,-3,0,3,-2,2,3,3,4,5,0
1,-1,-3,0,3,-2,3,3,3,4,5,1
1,-1,-3,0,3,-2,3,4,3,4,5,1
1,-1,-3,0,3,-2,3,4,3,3,5,1
1,-1,-3,0,3,-2,3,3,3,4,5,1
1,-1,-3,0,3,-2,3,3,3,4,5,1
1,-1,-3,0,3,-2,3,3,3,4,5,1
1,-1,-3,0,3,-2,3,3,3,4,5,1
1,-1,-3,0,3,-2,3,3,3,4,5,1
1,-1,-3,0,3,-2,3,3,3,4,5,1
1,-1,-3,0,3,-2,3,3,3,4,5,1
1,-1,-3,0,2,-2,3,3,3,4,5,1
1,-1,-3,0,2,-2,3,3,3,4,5,0
1,-1,-3,0,2,-2,3,3,3,3,5,0
1,-1,-3,0,2,-2,3,3,3,3,4,0
1,-1,-3,0,2,-2,3,3,3,3,4,1
1,-1,-3,0,2,-2,3,3,3,3,4,1
1,-1,-3,0,2,-2,3,3,3,3,4,1
1,-1,-3,0,2,-2,3,3,3,3,5,1
1,-1,-3,0,2,-2,3,3,3,4,5,1
1,-1,-3,0,2,-2,4,3,3,4,5,1
1,-1,-3,0,2,-2,4,3,3,4,5,1
1,-1,-3,0,2,-2,4,3,3,4,5,1
1,-2,-3,0,2,-2,4,3,3,5,5,1
1,-2,-3,0,2,-2,5,3,3,5,5,1
1,-2,-3,0,2,-2,5,4,4,6,5,1
1,-2,-3,0,2,-2,5,5,6,7,5,0
1,-2,-3,0,2,-3,6,7,9,9,6,0
1,-2,-4,0,3,-3,7,10,13,13,9,0
1,-3,-4,0,3,-4,8,12,16,17,12,-1
1,-3,-4,0,3,-4,8,13,19,21,16,-1
1,-2,-4,0,3,-3,8,14,20,25,20,0
1,-1,-3,0,3,-2,8,13,20,28,25,2
2,0,-3,-1,3,-2,7,12,19,30,30,5
2,1,-2,-2,3,-1,6,11,17,32,34,9
3,2,-1,-3,3,0,5,8,15,32,38,14
4,5,0,-5,2,2,3,6,11,31,42,20
5,7,2,-6,2,4,1,3,8,31,48,27
7,10,3,-8,2,5,-1,0,5,31,53,35
9,12,3,-10,3,7,-4,-2,3,31,58,43
11,14,3,-12,4,8,-6,-4,1,32,65,53
13,16,3,-14,5,9,-7,-5,0,33,72,64
15,17,3,-16,6,10,-9,-7,-2,34,80,76
17,19,2,-18,7,10,-11,-9,-4,35,87,89
19,22,2,-20,9,11,-14,-13,-8,35,93,104
21,25,3,-23,10,13,-17,-17,-13,34,98,120
24,28,3,-25,11,15,-21,-21,-17,32,102,136
27,29,1,-27,12,15,-23,-24,-21,29,104,148
29,30,0,-29,14,15,-25,-26,-23,26,103,154
31,29,-2,-30,17,13,-27,-27,-23,23,101,155
33,28,-4,-30,19,12,-28,-27,-22,21,96,151
34,27,-7,-30,21,10,-28,-26,-21,17,86,141
34,24,-9,-29,22,7,-27,-25,-20,11,66,125
33,22,-11,-28,23,5,-26,-23,-19,2,34,104
32,19,-12,-26,23,3,-25,-22,-19,-11,-2,81
29,17,-12,-23,21,2,-22,-21,-19,-26,-39,59
25,14,-10,-19,18,2,-20,-21,-21,-42,-72,37
19,13,-7,-16,14,3,-17,-22,-24,-57,-99,16
14,12,-3,-13,9,4,-14,-23,-27,-69,-118,-3
10,11,1,-10,5,5,-12,-24,-29,-76,-129,-20
5,11,5,-8,1,7,-9,-23,-27,-79,-134,-34
2,10,8,-6,-2,8,-6,-22,-21,-79,-134,-45
-1,9,10,-4,-5,9,-4,-19,-14,-75,-131,-53
-3,8,12,-2,-7,9,-2,-15,-6,-70,-125,-58
-5,7,12,0,-8,9,1,-11,2,-63,-116,-60
-8,6,13,1,-10,9,4,-7,10,-54,-105,-61
-10,4,13,3,-11,9,8,-3,18,-45,-93,-60
-13,2,14,5,-13,8,12,1,24,-37,-83,-59
-14,0,14,7,-14,7,15,5,30,-30,-73,-57
-16,-2,14,8,-14,6,17,7,35,-24,-65,-54
-17,-3,14,10,-15,5,21,9,38,-18,-58,-51
-18,-5,14,11,-15,4,23,10,40,-12,-51,-48
-18,-6,13,12,-15,3,24,11,41,-7,-45,-45
-19,-6,12,13,-15,2,26,12,41,-5,-40,-43
-19,-7,12,13,-15,2,28,12,38,-6,-36,-41
-20,-7,13,14,-16,2,30,12,35,-7,-33,-40
-20,-7,13,14,-16,2,31,11,30,-9,-30,-38
-21,-7,13,14,-16,2,33,10,25,-11,-29,-36
-21,-7,13,14,-16,2,34,8,18,-13,-29,-33
-21,-7,13,14,-16,2,35,7,13,-13,-28,-31
-21,-7,13,14,-16,2,36,5,9,-14,-27,-30
-21,-7,13,14,-16,2,38,4,5,-15,-27,-29
-21,-8,12,14,-16,1,41,4,1,-15,-27,-29
-21,-8,12,14,-16,1,42,4,-2,-16,-26,-28
-21,-9,11,14,-16,0,43,3,-6,-16,-24,-28
-20,-9,11,14,-16,0,44,2,-9,-15,-22,-27
-20,-9,11,14,-15,0,44,2,-10,-14,-20,-25
-20,-9,11,14,-15,0,45,2,-10,-12,-18,-24
-20,-9,11,14,-14,0,46,2,-9,-10,-16,-23
-19,-9,11,14,-14,0,47,2,-9,-8,-14,-22
-19,-8,10,14,-14,0,48,2,-9,-7,-13,-21
-18,-8,10,13,-14,0,48,3,-8,-6,-12,-20
-17,-8,9,13,-13,0,48,4,-8,-6,-12,-19
-16,-8,8,12,-12,0,47,4,-8,-6,-11,-19
-15,-8,8,11,-11,0,44,4,-9,-6,-11,-18
-14,-7,7,10,-10,0,40,3,-10,-5,-10,-16
-13,-7,6,10,-9,0,35,2,-10,-5,-10,-15
-12,-7,5,9,-8,-1,30,1,-11,-4,-9,-14
-11,-7,4,8,-7,-1,26,0,-11,-4,-8,-14
-10,-6,3,8,-6,-1,24,0,-11,-4,-6,-13
-9,-6,2,7,-6,-1,22,-1,-11,-3,-5,-12
-8,-6,2,7,-5,-2,19,-1,-10,-2,-4,-11
-7,-6,1,6,-4,-2,16,-1,-10,-2,-4,-11
-6,-5,1,6,-4,-2,14,-1,-9,-1,-3,-10
-6,-5,1,5,-3,-2,11,-1,-8,0,-3,-9
-5,-4,0,4,-2,-2,9,-1,-8,0,-2,-9
-4,-4,0,4,-2,-2,8,-1,-7,0,-2,-8
-3,-3,0,3,-1,-2,7,-1,-6,1,-2,-8
-3,-3,-1,3,-1,-2,6,0,-5,2,-2,-8
-2,-3,-1,3,-1,-2,6,0,-4,3,-1,-7
-2,-3,-1,3,-1,-2,6,0,-3,3,0,-7
-2,-3,-1,3,0,-2,5,1,-2,4,0,-7
-2,-3,-1,2,0,-2,4,1,-1,4,0,-6
-2,-3,-1,2,0,-2,3,1,0,3,1,-6
-2,-3,-1,2,0,-2,3,1,0,4,1,-6
-1,-3,-2,2,0,-3,3,1,0,5,1,-6
-1,-3,-2,2,1,-3,3,2,0,7,2,-6
0,-3,-2,2,1,-3,4,2,1,8,2,-6
0,-3,-3,2,1,-3,4,3,1,8,3,-6
0,-3,-3,2,1,-3,3,3,2,8,3,-5
0,-3,-3,2,1,-3,3,3,2,8,2,-5
0,-3,-3,2,1,-3,3,3,2,8,1,-5
0,-3,-3,1,1,-3,2,3,2,8,0,-5
0,-3,-3,1,1,-3,2,3,2,8,1,-5
0,-3,-3,1,1,-3,2,3,2,8,2,-5
0,-3,-3,1,1,-3,3,3,2,8,2,-5
0,-3,-3,1,2,-3,3,3,2,8,3,-5
0,-3,-3,1,2,-3,3,3,3,8,3,-5
0,-3,-3,1,2,-3,2,3,3,8,3,-6
0,-3,-3,1,2,-3,2,3,3,9,3,-6
0,-3,-3,1,2,-3,2,3,3,9,3,-6
0,-3,-3,1,2,-3,2,3,3,9,3,-6
0,-3,-3,1,2,-3,2,3,3,8,3,-6
0,-3,-3,1,2,-3,2,3,3,8,3,-6
0,-3,-3,1,2,-3,2,3,3,8,3,-6
0,-3,-3,1,2,-3,2,3,3,8,2,-6
0,-3,-3,1,2,-3,2,3,3,8,2,-6
0,-3,-3,1,2,-3,2,3,3,8,2,-6
0,-3,-3,1,2,-3,2,3,3,9,2,-7
0,-3,-3,1,1,-3,2,3,3,9,2,-7
0,-3,-3,1,1,-3,2,3,3,9,2,-7
0,-3,-3,1,1,-4,2,3,3,9,2,-7
0,-3,-3,2,1,-4,2,3,3,9,2,-7
0,-3,-3,2,1,-4,3,3,3,9,1,-8
0,-3,-3,2,1,-4,3,3,3,9,0,-8
0,-4,-3,2,1,-4,3,3,3,9,1,-8
0,-4,-3,2,1,-4,3,3,3,9,1,-8
0,-4,-3,2,1,-4,3,3,3,8,1,-9
0,-4,-3,2,1,-4,2,3,3,8,0,-9
0,-4,-3,2,1,-4,2,3,3,8,0,-9
-1,-4,-4,2,1,-4,2,3,3,8,0,-9
-1,-4,-4,2,1,-4,2,3,3,8,0,-10
-1,-4,-4,3,1,-4,3,3,3,8,0,-10
-1,-4,-4,3,1,-4,3,3,3,8,0,-11
-1,-5,-4,3,1,-4,2,4,3,8,0,-12
-1,-5,-4,3,1,-5,2,4,3,8,-1,-12
-1,-5,-4,3,1,-5,2,4,3,8,-2,-13
-1,-5,-4,3,1,-5,2,4,3,7,-2,-13
-1,-5,-4,3,1,-5,3,4,3,7,-3,-14
-2,-5,-4,3,1,-5,3,4,3,6,-3,-14
-2,-5,-5,3,1,-5,3,4,3,6,-4,-15
-2,-5,-5,3,1,-5,3,4,4,6,-4,-16
-2,-5,-5,3,1,-5,3,4,4,5,-5,-18
-2,-5,-5,4,1,-5,3,4,4,5,-6,-19
-2,-5,-5,4,1,-5,3,4,4,6,-7,-20
-2,-6,-5,4,1,-6,3,5,4,6,-8,-21
-2,-6,-5,4,1,-6,3,5,4,6,-8,-21
-2,-6,-5,4,1,-6,3,5,4,7,-8,-22
-2,-6,-5,4,1,-6,3,5,4,7,-8,-23
-2,-6,-5,4,1,-6,3,5,4,8,-8,-24
-2,-6,-5,4,1,-6,3,5,4,8,-8,-24
-2,-7,-5,4,1,-6,2,5,4,8,-8,-25
-2,-7,-5,4,1,-6,2,5,4,8,-7,-25
-2,-7,-5,5,1,-6,3,5,4,8,-7,-26
-2,-7,-5,5,1,-6,3,5,4,8,-7,-26
-2,-7,-5,5,1,-6,2,5,4,8,-6,-26
-2,-7,-5,5,1,-6,2,5,4,9,-4,-26
-2,-7,-5,5,1,-6,2,5,4,9,-2,-25
-2,-6,-5,4,1,-6,1,5,3,9,0,-24
-2,-6,-5,4,2,-6,0,5,2,9,1,-23
-1,-6,-6,3,2,-6,0,4,2,9,2,-22
-1,-5,-6,3,2,-6,-1,4,1,9,4,-20
0,-5,-6,2,2,-6,-2,3,0,9,5,-18
0,-5,-6,2,2,-5,-3,3,0,9,7,-15
0,-4,-6,2,3,-5,-4,2,-1,9,8,-12
1,-4,-6,1,3,-5,-5,2,-2,9,10,-10
2,-3,-6,0,4,-4,-6,1,-3,9,12,-7
3,-3,-6,0,4,-4,-7,0,-4,10,14,-4
4,-2,-6,0,5,-4,-7,0,-5,10,16,-1
4,-2,-6,-1,5,-4,-9,-1,-5,10,18,2
5,-1,-6,-2,5,-4,-10,-1,-6,10,20,5
5,0,-7,-3,6,-4,-11,-2,-6,10,21,7
6,0,-7,-3,6,-4,-12,-2,-7,10,22,10
7,0,-7,-4,7,-4,-13,-3,-7,10,23,12
7,1,-7,-4,7,-4,-14,-3,-8,10,24,13
8,1,-8,-5,8,-4,-14,-3,-8,9,24,14
9,1,-8,-5,8,-4,-15,-3,-8,9,24,15
9,2,-8,-5,9,-3,-15,-3,-7,8,24,17
10,2,-8,-6,9,-3,-16,-3,-7,8,23,18
10,2,-8,-6,9,-3,-16,-3,-6,8,23,19
10,2,-8,-6,9,-3,-16,-3,-6,8,23,19
10,2,-8,-6,9,-3,-16,-2,-5,9,23,19
10,2,-8,-6,9,-3,-15,-1,-4,9,22,19
10,3,-8,-6,9,-3,-15,-1,-3,9,21,19
10,3,-8,-6,9,-3,-16,0,-2,9,21,19
10,3,-8,-6,9,-3,-15,0,-1,9,20,19
9,3,-7,-6,9,-3,-14,1,0,9,19,18
9,3,-7,-6,8,-2,-14,1,1,9,18,17
9,3,-6,-6,8,-2,-14,2,2,9,17,16
9,3,-6,-6,7,-2,-14,2,3,9,16,15
8,3,-6,-6,7,-2,-13,2,4,9,15,15
8,3,-6,-6,7,-1,-13,3,5,10,15,14
8,3,-5,-6,7,-1,-12,3,6,10,15,14
7,3,-5,-5,7,-1,-11,4,6,10,15,13
7,3,-5,-5,6,-1,-10,4,7,11,15,12
6,3,-4,-5,6,-1,-10,4,7,11,14,11
6,3,-4,-5,5,0,-8,4,8,11,13,10
5,3,-3,-4,5,0,-7,4,8,11,12,9
5,3,-3,-4,4,0,-7,4,9,11,11,9
4,3,-3,-4,4,0,-7,5,9,11,10,8
4,3,-2,-4,4,0,-7,5,9,10,10,8
4,3,-2,-4,3,0,-6,5,9,9,9,7
3,3,-1,-3,3,1,-5,5,9,9,9,7
3,3,-1,-3,2,1,-5,5,9,9,9,6
3,3,-1,-3,2,1,-4,4,8,10,9,6
2,3,0,-2,1,1,-4,4,7,10,9,6
