leadI,leadII,leadIII,leadaVR,leadaVL,leadaVF,leadV1,leadV2,leadV3,leadV4,leadV5,leadV6
-2,0,3,0,-3,1,-102,4,-103,6,0,6
-4,1,8,0,-7,2,-243,48,-245,53,37,52
-5,2,10,-1,-9,2,-285,142,-288,150,127,148
-5,3,10,-2,-9,2,-274,258,-277,267,241,264
-4,3,10,-2,-8,2,-235,378,-239,388,360,386
-3,3,9,-3,-8,2,-185,495,-189,506,476,503
-2,3,8,-3,-7,1,-131,604,-135,615,584,612
-1,3,7,-4,-6,1,-78,702,-83,714,682,710
0,3,6,-5,-5,0,-28,790,-33,802,770,798
1,3,5,-6,-3,0,17,868,12,879,848,876
2,3,4,-6,-2,-1,58,936,52,947,915,944
3,3,3,-7,-2,-1,94,995,88,1006,974,1003
3,3,3,-7,-1,-2,126,1046,120,1058,1026,1055
4,3,2,-7,-1,-2,154,1091,147,1102,1070,1099
4,3,2,-7,0,-2,178,1129,171,1141,1109,1138
5,3,2,-7,0,-2,199,1162,192,1174,1142,1171
5,3,1,-8,0,-2,217,1190,210,1202,1170,1199
6,3,1,-8,1,-2,233,1214,226,1226,1193,1223
6,3,0,-9,1,-3,247,1234,240,1246,1213,1243
7,3,0,-9,2,-3,259,1251,251,1263,1230,1260
7,3,0,-9,2,-3,269,1265,261,1277,1244,1274
7,3,0,-9,2,-3,277,1277,269,1288,1255,1285
7,3,0,-9,2,-3,284,1286,276,1298,1265,1295
7,3,0,-9,2,-3,290,1294,282,1305,1272,1302
8,3,0,-9,2,-3,295,1300,287,1312,1278,1308
8,3,0,-9,2,-3,299,1305,292,1317,1283,1313
8,3,0,-9,2,-3,301,1306,294,1318,1283,1315
6,5,2,-9,0,-1,301,1305,294,1318,1278,1316
2,6,8,-8,-5,2,300,1325,294,1338,1291,1338
-4,7,16,-6,-12,7,300,1401,294,1415,1361,1416
-9,8,21,-4,-17,10,301,720,295,736,677,737
-6,7,17,-5,-13,7,304,-375,298,-359,-415,-359
2,5,5,-7,-4,0,309,-867,302,-853,-900,-854
8,4,-1,-9,2,-4,312,-1014,304,-1000,-1042,-1003
11,3,-4,-10,5,-5,313,-975,305,-962,-1001,-965
12,3,-6,-10,7,-6,314,-843,306,-830,-868,-834
13,2,-6,-11,7,-7,314,-669,306,-656,-693,-660
13,2,-7,-11,8,-7,313,-483,305,-470,-506,-474
13,2,-7,-11,8,-7,312,-300,304,-287,-323,-291
12,2,-6,-11,7,-7,310,-128,302,-116,-151,-120
12,2,-5,-11,7,-6,309,28,300,40,5,36
11,3,-4,-11,6,-6,307,168,299,180,145,176
10,3,-3,-11,5,-5,306,292,298,304,269,300
10,3,-3,-10,4,-5,304,401,296,413,378,409
10,3,-2,-10,4,-5,303,496,295,509,474,505
10,3,-2,-10,4,-5,302,579,293,592,557,588
10,3,-2,-10,4,-5,300,651,292,664,628,660
9,3,-2,-10,4,-5,298,714,290,726,690,722
9,3,-1,-10,3,-4,296,767,288,780,744,775
9,4,-1,-10,3,-4,294,813,286,826,790,821
8,0,-4,-8,4,-7,294,504,285,517,483,515
8,6,2,-11,0,-1,290,-326,281,-317,-348,-325
13,42,33,-32,-12,32,277,-559,268,-552,-578,-577
-3,-203,-195,99,93,-204,351,-270,347,-227,-225,-105
-129,-156,-22,556,361,-94,630,-286,640,-203,-176,219
-352,350,706,1080,551,523,1080,-390,1100,-323,-324,140
-520,745,435,1362,580,1002,810,-480,839,-453,-500,-231
-578,1138,-445,1428,561,589,27,-541,93,-485,-548,-465
-575,658,-884,1389,526,-389,-456,-759,-340,-527,-552,-490
-545,-356,-1067,1298,481,-878,-883,-402,-742,-798,-741,-483
-502,-865,-1108,1185,433,-1087,-425,300,-281,-497,-375,-709
-453,-1085,-1073,1066,386,-1141,579,425,717,183,330,-388
-405,-1144,-1000,949,342,-1112,1085,245,1212,304,458,294
-359,-1117,-912,840,302,-1040,1305,-84,1420,127,279,411
-316,-1046,-820,740,266,-950,1365,-475,1468,-196,-51,225
-277,-956,-730,650,234,-856,1340,-878,1431,-579,-443,-108
-243,-860,-646,570,205,-763,1272,-1267,1352,-973,-847,-500
-213,-766,-569,499,180,-676,1185,-1629,1254,-1353,-1237,-904
-186,-678,-501,437,158,-597,1093,-1123,1152,-1707,-1600,-1294
-162,-598,-440,382,139,-526,1001,-88,1052,-1194,-1096,-1656
-141,-526,-386,334,122,-462,915,438,959,-152,-61,-1150
-123,-462,-339,292,107,-407,836,674,873,381,465,-115
-107,-405,-297,254,93,-357,764,748,796,623,701,412
-93,-355,-260,222,82,-314,700,734,728,702,774,649
-80,-311,-228,193,72,-275,643,674,667,691,759,723
-70,-272,-199,168,63,-241,593,594,613,635,698,709
-61,-237,-174,147,56,-212,549,507,565,558,617,649
-53,-207,-153,128,49,-186,511,420,523,474,530,569
-46,-181,-134,112,43,-163,476,339,486,390,443,481
-39,-159,-118,97,38,-144,446,264,453,311,361,395
-34,-139,-104,85,33,-127,418,197,424,238,286,314
-29,-122,-91,73,29,-112,394,138,398,173,219,239
-25,-106,-79,64,26,-99,373,85,376,115,160,173
-21,-93,-69,55,23,-87,355,39,356,64,107,114
-19,-81,-61,48,20,-77,339,-2,339,19,60,61
-16,-70,-54,42,18,-68,325,-38,323,-21,18,15
-14,-61,-47,37,16,-61,312,-70,309,-57,-18,-26
-12,-54,-42,32,15,-54,300,-98,297,-88,-50,-63
-10,-47,-38,28,13,-49,289,-122,286,-115,-78,-95
-8,-42,-33,24,12,-44,280,-143,276,-139,-102,-122
-6,-37,-29,21,10,-39,271,-160,268,-159,-122,-146
-5,-32,-26,18,9,-35,264,-176,260,-176,-140,-166
-5,-28,-23,16,8,-32,258,-190,253,-191,-156,-184
-4,-24,-20,14,8,-29,252,-202,247,-205,-171,-200
-4,-21,-18,12,7,-26,247,-214,241,-217,-184,-214
-3,-19,-17,11,7,-24,242,-224,236,-228,-195,-227
-2,-17,-16,9,6,-23,237,-232,231,-237,-204,-238
-1,-15,-14,8,6,-21,233,-238,227,-245,-212,-247
0,-14,-13,7,6,-20,229,-244,223,-251,-219,-255
0,-12,-12,7,5,-19,223,-251,217,-261,-228,-267
0,-7,-7,4,4,-14,222,-251,216,-258,-226,-253
-8,-26,-18,18,6,-29,254,-214,250,-218,-187,-235
7,-24,-32,9,20,-34,83,-459,47,-526,-488,131
128,402,272,-264,-71,330,315,-337,230,-488,-444,561
233,1043,808,-636,-287,918,451,-174,378,-297,-258,323
164,965,800,-563,-317,875,277,-251,247,-299,-266,124
50,389,338,-218,-143,356,457,-21,448,-33,-3,249
-4,31,35,-12,-19,26,523,67,524,72,101,267
-30,-124,-95,79,32,-117,530,86,536,100,128,239
-43,-204,-162,126,60,-190,518,80,526,97,124,200
-47,-231,-185,141,70,-215,490,52,498,68,95,144
-50,-246,-199,150,75,-229,473,35,481,53,80,116
-57,-278,-223,170,84,-257,485,52,495,78,106,145
31,83,48,-55,-8,59,113,-377,93,389,411,309
264,191,-75,-643,-247,51,0,-639,-97,373,377,-83
461,-338,-802,-1143,-451,-577,528,-238,365,23,10,-752
531,-840,-539,-1322,-524,-279,1029,218,842,85,67,-802
537,-1281,345,-1339,-532,608,633,654,1279,326,308,-568
514,-814,791,-1282,-511,1042,-331,1036,818,621,606,-235
476,200,981,-1187,-473,1214,-807,541,-186,937,924,143
432,717,1030,-1078,-430,1241,-1005,-489,-690,411,403,525
387,948,1003,-966,-385,1191,-1049,-1013,-909,-628,-632,891
344,1020,937,-858,-342,1104,-1010,-1247,-968,-1150,-1151,394
305,1006,856,-759,-303,1003,-931,-1320,-942,-1377,-1375,-629
268,947,770,-668,-266,899,-833,-1304,-872,-1439,-1433,-1143
235,868,686,-587,-234,798,-732,-1243,-784,-1413,-1404,-1366
206,783,607,-514,-205,705,-633,-1163,-691,-1342,-1331,-1428
180,698,535,-450,-179,620,-541,-1077,-599,-1252,-1239,-1403
158,618,470,-393,-157,544,-459,-991,-513,-1157,-1142,-1335
138,545,412,-344,-137,476,-385,-910,-435,-1063,-1047,-1247
121,478,360,-300,-120,415,-319,-835,-365,-975,-957,-1153
106,420,315,-262,-105,363,-262,-768,-304,-893,-875,-1060
92,368,276,-229,-91,317,-210,-707,-248,-819,-800,-972
80,323,242,-199,-80,276,-165,-653,-200,-754,-733,-891
70,283,211,-174,-69,241,-126,-607,-157,-696,-675,-819
60,247,184,-151,-60,209,-91,-566,-119,-645,-623,-755
53,215,159,-131,-52,181,-61,-530,-87,-601,-579,-699
46,187,138,-114,-46,157,-35,-499,-59,-562,-539,-650
40,162,120,-99,-40,135,-13,-470,-34,-528,-504,-606
35,141,105,-86,-34,117,5,-445,-13,-497,-473,-567
30,123,92,-74,-30,101,22,-423,5,-470,-445,-532
26,108,80,-64,-26,88,37,-404,21,-445,-421,-501
22,94,70,-55,-22,76,50,-387,34,-425,-400,-474
19,82,60,-48,-19,65,61,-373,47,-407,-382,-451
16,70,52,-41,-17,55,71,-361,57,-392,-367,-432
14,61,44,-35,-14,47,79,-350,66,-379,-354,-416
12,52,38,-30,-12,39,85,-341,73,-367,-342,-401
11,45,32,-25,-11,33,90,-332,79,-357,-332,-387
9,39,28,-21,-9,28,94,-323,84,-347,-322,-375
8,33,25,-18,-8,23,99,-316,89,-338,-313,-363
6,29,21,-15,-6,19,102,-310,93,-330,-305,-353
5,25,18,-12,-5,15,106,-306,97,-324,-299,-344
4,21,15,-10,-4,12,108,-302,100,-319,-294,-338
3,17,12,-8,-4,9,110,-299,101,-315,-290,-333
2,14,10,-6,-3,6,111,-296,103,-311,-286,-329
2,11,8,-5,-3,4,111,-292,104,-308,-282,-324
1,10,7,-3,-2,2,111,-289,104,-304,-279,-320
1,8,6,-2,-2,1,112,-286,105,-300,-275,-315
0,7,5,-1,-1,0,112,-283,105,-297,-272,-310
0,6,4,0,-1,0,113,-282,105,-295,-270,-307
-1,4,3,0,-1,-1,113,-281,106,-293,-268,-305
-1,3,1,1,-1,-3,113,-280,105,-292,-268,-304
-1,2,1,2,-1,-4,112,-279,105,-291,-267,-303
-1,0,0,2,0,-5,111,-278,104,-290,-266,-302
-1,0,0,2,0,-6,110,-277,103,-289,-264,-300
-1,0,0,3,0,-6,109,-275,102,-287,-262,-298
-2,-1,0,3,0,-6,108,-274,102,-286,-261,-295
-2,-1,-1,4,0,-6,107,-273,101,-285,-260,-294
-2,-1,-1,4,0,-6,107,-273,100,-284,-259,-293
-2,-2,-2,5,0,-6,106,-273,100,-284,-260,-293
-2,-2,-2,5,0,-7,105,-272,99,-283,-259,-292
-2,-3,-2,5,0,-7,107,-269,101,-280,-256,-290
-2,-3,-2,5,0,-8,108,-266,102,-277,-252,-286
0,-3,-4,4,2,-9,104,-267,100,-276,-257,-285
5,-3,-10,2,8,-12,110,-255,111,-259,-256,-267
10,-4,-16,-1,14,-15,163,-198,169,-196,-208,-203
14,-4,-19,-2,17,-16,260,-98,268,-95,-112,-101
16,-4,-22,-3,19,-17,373,15,381,19,1,13
17,-4,-24,-4,21,-18,487,131,495,134,117,127
19,-4,-25,-5,22,-19,597,241,603,243,229,236
20,-4,-26,-5,23,-20,698,344,704,344,333,336
20,-4,-26,-6,23,-20,789,437,795,436,429,428
20,-4,-26,-6,24,-20,872,520,876,519,515,511
20,-4,-27,-6,24,-20,945,594,949,593,591,585
21,-4,-27,-6,25,-20,1010,659,1012,657,657,650
21,-4,-27,-6,25,-20,1066,716,1068,714,716,706
22,-4,-28,-7,25,-20,1115,766,1117,763,767,755
22,-4,-28,-7,25,-20,1158,810,1160,806,812,798
23,-4,-29,-7,26,-21,1196,849,1197,844,852,835
23,-4,-29,-8,26,-21,1228,883,1229,878,887,869
24,-4,-30,-8,27,-22,1256,913,1257,907,918,899
24,-4,-30,-8,27,-22,1281,939,1281,933,945,926
24,-4,-30,-8,27,-22,1302,961,1302,956,968,949
25,-4,-31,-8,28,-22,1321,980,1321,975,988,968
26,-4,-31,-8,29,-22,1337,997,1336,991,1004,984
26,-4,-32,-8,29,-22,1350,1012,1349,1005,1019,998
27,-4,-32,-9,30,-22,1362,1025,1360,1017,1032,1010
27,-4,-33,-9,30,-23,1372,1036,1370,1028,1043,1020
28,-4,-33,-10,31,-23,1380,1046,1378,1038,1054,1030
28,-4,-34,-10,31,-23,1388,1055,1386,1047,1064,1040
29,-4,-34,-10,32,-24,1395,1063,1393,1055,1072,1048
29,-4,-35,-11,33,-24,1400,1069,1398,1061,1078,1054
30,-4,-36,-11,34,-25,1404,1074,1402,1067,1083,1059
31,-4,-37,-11,34,-25,1407,1078,1405,1071,1088,1063
32,-4,-38,-11,35,-25,1410,1082,1407,1075,1092,1067
33,-4,-38,-12,36,-25,1412,1086,1409,1079,1097,1070
34,-4,-39,-13,37,-26,1413,1089,1411,1082,1101,1074
35,-4,-40,-13,38,-26,1415,1093,1413,1086,1104,1078
35,-4,-41,-14,38,-27,1416,1095,1415,1089,1107,1082
36,-4,-42,-14,39,-27,1416,1097,1415,1091,1109,1084
37,-4,-43,-15,40,-27,1417,1099,1416,1092,1111,1085
38,-4,-44,-15,41,-27,1416,1100,1416,1093,1112,1086
39,-4,-45,-16,42,-28,1416,1101,1415,1093,1112,1087
40,-4,-45,-16,43,-28,1415,1102,1414,1094,1113,1087
41,-4,-46,-17,44,-29,1415,1103,1414,1094,1114,1088
42,-4,-47,-17,45,-30,1415,1104,1413,1095,1115,1089
43,-4,-49,-18,46,-30,1414,1104,1413,1096,1116,1091
45,-4,-50,-19,47,-31,1414,1105,1412,1097,1116,1092
46,-4,-51,-19,48,-31,1413,1105,1411,1098,1117,1093
47,-4,-52,-20,50,-31,1412,1105,1409,1098,1117,1093
49,-4,-54,-21,51,-32,1411,1105,1408,1098,1117,1093
50,-4,-55,-22,53,-33,1410,1105,1407,1098,1118,1093
51,-4,-57,-22,54,-34,1409,1105,1406,1098,1118,1093
52,-4,-58,-23,55,-34,1408,1105,1404,1098,1119,1093
53,-4,-59,-23,56,-35,1407,1105,1403,1098,1119,1094
55,-3,-60,-24,58,-35,1405,1105,1402,1098,1119,1095
56,-3,-61,-25,59,-36,1404,1104,1401,1098,1119,1095
58,-3,-62,-26,60,-36,1403,1104,1399,1098,1118,1095
59,-3,-63,-26,61,-37,1402,1104,1398,1097,1118,1095
60,-3,-65,-27,62,-37,1401,1103,1396,1097,1118,1095
60,-3,-65,-26,62,-37,1365,1069,1360,1062,1084,1061
57,-3,-62,-25,59,-36,1278,984,1272,977,999,976
53,-3,-58,-23,55,-34,1170,877,1163,871,892,869
48,-3,-53,-21,50,-32,1055,764,1048,758,779,757
44,-3,-48,-19,46,-30,943,654,936,648,669,647
39,-3,-43,-16,41,-27,839,551,831,545,566,544
35,-3,-39,-14,37,-25,743,457,734,451,472,450
31,-3,-36,-12,33,-23,657,372,647,366,387,366
28,-3,-33,-10,30,-22,580,297,570,290,312,290
25,-3,-30,-9,27,-20,511,230,500,224,246,224
22,-3,-27,-7,24,-19,451,172,439,165,188,166
19,-4,-25,-6,22,-18,397,120,385,114,136,115
17,-4,-23,-5,20,-18,350,75,338,69,91,70
15,-5,-21,-4,18,-17,309,36,296,29,51,30
14,-5,-20,-3,16,-16,273,2,259,-5,16,-4
12,-5,-18,-2,14,-15,242,-28,227,-35,-14,-34
10,-5,-16,-1,13,-14,214,-54,198,-61,-40,-60
9,-5,-15,-1,11,-13,190,-77,173,-84,-63,-83
8,-5,-14,0,10,-13,168,-96,151,-103,-82,-103
7,-5,-13,0,9,-12,149,-113,132,-120,-99,-120
6,-4,-12,0,8,-12,132,-128,115,-135,-114,-135
5,-4,-11,0,7,-11,118,-140,100,-147,-127,-148
5,-4,-10,1,6,-11,105,-151,88,-158,-139,-159
4,-4,-9,1,5,-10,94,-161,76,-168,-148,-168
3,-4,-8,1,5,-10,85,-169,66,-176,-156,-176
3,-4,-8,1,4,-9,76,-176,58,-182,-163,-183
2,-4,-7,2,4,-9,68,-182,50,-188,-169,-189
1,-4,-6,2,3,-9,62,-187,43,-193,-173,-194
1,-4,-6,2,3,-8,56,-191,38,-197,-178,-199
0,-4,-5,2,2,-8,51,-194,33,-201,-182,-202
0,-4,-5,2,2,-8,46,-197,29,-203,-185,-206
0,-4,-5,3,1,-7,43,-199,25,-206,-188,-208
0,-4,-4,3,1,-7,40,-201,22,-208,-190,-211
-1,-4,-4,3,0,-6,37,-203,19,-209,-191,-212
-1,-4,-3,3,0,-6,34,-204,17,-210,-192,-214
-2,-4,-3,4,0,-6,32,-205,15,-210,-193,-215
-2,-4,-2,4,0,-6,30,-206,13,-211,-193,-216
-2,-4,-2,4,-1,-6,28,-206,12,-211,-194,-216
-2,-4,-2,4,-1,-6,26,-206,11,-211,-195,-217
-2,-3,-1,4,-1,-6,25,-206,10,-211,-195,-217
-2,-3,-1,4,-2,-6,24,-206,9,-211,-195,-217
-3,-3,-1,4,-2,-5,23,-206,8,-211,-195,-217
-3,-3,0,4,-2,-5,22,-206,7,-211,-195,-217
-3,-3,0,4,-2,-5,21,-206,6,-210,-194,-216
-4,-3,0,4,-2,-5,20,-205,6,-210,-194,-216
-4,-3,0,4,-2,-5,19,-205,6,-209,-194,-216
-4,-3,0,4,-2,-4,18,-204,6,-209,-194,-215
-4,-3,0,4,-2,-4,18,-204,6,-208,-194,-215
-4,-3,0,4,-2,-4,17,-203,5,-208,-194,-215
-4,-3,0,4,-2,-4,17,-203,5,-208,-193,-215
-4,-3,0,4,-3,-4,16,-203,5,-207,-192,-214
-4,-3,0,4,-3,-4,16,-202,4,-207,-192,-214
-4,-3,0,4,-3,-4,15,-202,4,-206,-191,-213
-4,-3,0,4,-3,-4,15,-201,4,-205,-191,-212
-4,-3,0,4,-2,-4,15,-200,4,-205,-190,-211
-4,-3,-1,4,-2,-5,14,-200,4,-204,-190,-211
-4,-3,-1,4,-2,-5,14,-199,4,-204,-189,-210
-4,-3,-1,4,-2,-5,14,-198,4,-204,-189,-210
-4,-3,-1,4,-2,-5,14,-197,3,-203,-189,-209
-4,-3,-1,4,-2,-5,13,-196,3,-203,-188,-209
-4,-3,-1,4,-2,-5,13,-196,4,-202,-188,-208
-4,-3,0,4,-2,-5,14,-195,5,-201,-187,-207
-4,-3,0,4,-2,-4,15,-195,7,-200,-186,-207
-4,-3,0,4,-2,-4,17,-194,9,-200,-185,-206
-3,-3,0,4,-2,-4,19,-193,12,-199,-184,-205
-3,-3,0,4,-2,-4,20,-193,14,-198,-184,-204
-3,-3,0,4,-2,-4,22,-192,16,-198,-183,-203
-3,-3,0,4,-2,-4,23,-192,18,-197,-182,-203
-3,-3,0,4,-2,-4,24,-191,20,-196,-182,-202
-3,-3,0,4,-2,-4,25,-190,21,-195,-181,-201
-3,-3,-1,4,-2,-5,26,-190,22,-195,-181,-201
-3,-3,-1,5,-2,-5,26,-189,23,-194,-180,-200
-3,-3,-1,5,-2,-5,27,-189,24,-193,-180,-199
-3,-3,-1,4,-2,-5,28,-188,25,-192,-179,-198
-3,-3,-1,4,-2,-5,29,-187,25,-192,-178,-198
-3,-3,-1,4,-2,-5,29,-187,26,-191,-177,-197
-3,-3,-1,4,-2,-5,30,-186,27,-191,-176,-196
-3,-3,-1,4,-2,-5,30,-186,27,-190,-176,-195
-3,-3,-1,4,-2,-5,30,-185,27,-189,-175,-194
-3,-3,-1,4,-2,-5,30,-184,27,-188,-174,-194
-3,-3,-1,4,-2,-5,30,-184,27,-188,-174,-193
-3,-3,-1,4,-2,-5,30,-183,27,-187,-173,-192
-3,-3,-1,4,-2,-5,31,-183,28,-186,-172,-191
-3,-3,-1,4,-2,-5,31,-182,28,-186,-172,-191
-3,-3,-1,4,-2,-5,31,-181,29,-185,-171,-190
-3,-3,-1,4,-2,-5,31,-181,29,-185,-171,-190
-3,-3,-1,4,-2,-5,31,-180,29,-184,-170,-189
-3,-3,-1,4,-2,-5,31,-179,29,-183,-169,-189
-3,-3,0,4,-2,-5,31,-178,29,-182,-169,-188
-3,-3,0,4,-2,-5,31,-178,29,-182,-168,-187
-3,-3,0,4,-2,-5,31,-177,29,-181,-167,-187
-3,-3,0,4,-2,-5,30,-177,29,-180,-167,-186
-3,-3,0,4,-2,-5,30,-176,29,-179,-166,-185
-3,-3,0,4,-2,-4,30,-175,29,-179,-166,-184
-3,-3,-1,4,-2,-4,30,-175,29,-178,-165,-184
-3,-3,-1,4,-2,-4,29,-174,29,-177,-164,-183
-3,-3,-1,4,-2,-4,29,-173,29,-177,-164,-182
-3,-3,-1,4,-2,-4,29,-173,29,-176,-163,-181
-3,-3,-1,4,-2,-4,29,-172,29,-176,-163,-181
-3,-3,-1,4,-1,-4,29,-171,29,-175,-162,-180
-3,-3,-1,4,-1,-4,29,-170,29,-174,-162,-179
-3,-3,-1,4,-1,-4,29,-170,29,-174,-161,-179
-3,-3,-1,4,-1,-5,29,-169,29,-173,-161,-178
-3,-3,-1,4,-1,-5,29,-169,29,-173,-160,-178
-3,-3,-1,4,-1,-5,29,-168,29,-172,-159,-177
-3,-3,-1,4,-1,-5,29,-168,29,-171,-159,-177
-3,-3,-1,4,-1,-5,29,-167,28,-171,-158,-176
-3,-3,-1,4,-1,-5,29,-166,28,-170,-158,-175
-3,-3,-1,4,-1,-5,28,-166,28,-169,-157,-175
-3,-3,-1,4,-1,-5,28,-165,28,-169,-156,-174
-3,-3,-1,4,-1,-4,28,-164,28,-168,-156,-173
-3,-3,-1,4,-1,-4,28,-164,28,-167,-155,-172
-3,-3,-1,4,-1,-4,28,-163,28,-167,-155,-171
-3,-3,-1,4,-1,-4,28,-163,28,-166,-154,-170
-2,-3,-1,4,-1,-4,28,-162,28,-166,-153,-170
-2,-3,-1,4,-1,-4,28,-161,28,-165,-153,-169
-2,-3,-1,4,-1,-4,28,-161,28,-165,-152,-169
-2,-3,-1,4,-1,-4,28,-160,28,-164,-152,-168
-2,-3,-1,4,-1,-4,28,-160,27,-164,-151,-167
-2,-3,-1,4,-1,-4,28,-159,27,-163,-151,-167
-2,-3,-1,4,-1,-5,28,-158,27,-163,-150,-166
-2,-3,-1,4,-1,-5,28,-158,27,-162,-149,-166
-3,-3,-1,4,-1,-5,28,-157,27,-161,-149,-165
-3,-3,-1,4,-1,-5,28,-156,26,-160,-148,-164
-3,-3,-1,4,-1,-5,27,-155,26,-159,-147,-163
-3,-3,-1,4,-1,-5,27,-154,26,-158,-146,-163
-3,-3,-1,4,-1,-5,27,-152,26,-157,-145,-162
-3,-3,0,4,-1,-5,27,-151,26,-156,-145,-161
-3,-3,0,4,-1,-5,27,-150,26,-156,-144,-160
-3,-3,0,4,-1,-5,27,-149,26,-155,-143,-159
-3,-3,0,4,-1,-5,27,-148,26,-154,-143,-158
-3,-3,0,4,-1,-5,27,-148,26,-154,-142,-157
-3,-3,0,4,-1,-4,27,-147,26,-153,-142,-156
-3,-3,0,4,-1,-4,26,-146,25,-152,-141,-156
-3,-3,0,4,-1,-4,26,-146,25,-152,-140,-155
-3,-3,0,4,-1,-4,26,-145,25,-151,-140,-154
-3,-3,0,4,-1,-4,26,-144,25,-151,-139,-153
-3,-3,0,4,-1,-4,26,-143,25,-150,-138,-153
-3,-3,0,4,-1,-4,26,-143,25,-149,-137,-152
-3,-3,0,4,-1,-4,26,-142,25,-148,-137,-151
-3,-3,0,4,-1,-4,25,-142,25,-148,-137,-151
-3,-3,0,4,-1,-4,25,-141,25,-147,-136,-150
-3,-3,0,4,-1,-4,25,-140,25,-147,-135,-149
-3,-3,0,4,-1,-4,25,-139,25,-146,-135,-149
-3,-3,0,4,-1,-4,25,-139,24,-145,-134,-148
-3,-3,0,4,-1,-4,25,-138,24,-145,-134,-148
-3,-3,0,4,-1,-4,25,-138,24,-144,-133,-147
-3,-3,0,4,-1,-4,25,-137,24,-144,-133,-147
-3,-3,0,4,-1,-4,24,-137,24,-143,-132,-146
-3,-3,0,4,-2,-4,24,-136,24,-143,-132,-146
-3,-3,0,4,-2,-4,24,-135,23,-142,-131,-145
-3,-3,0,4,-2,-4,24,-134,23,-141,-131,-145
-3,-3,0,4,-2,-5,24,-134,23,-141,-130,-144
-3,-3,0,4,-2,-5,24,-133,23,-140,-130,-144
-3,-3,0,4,-2,-5,24,-133,23,-140,-129,-143
-3,-3,0,4,-2,-5,24,-132,23,-139,-129,-142
-3,-3,0,4,-2,-5,24,-132,23,-139,-128,-142
-3,-3,0,4,-2,-5,24,-131,23,-138,-128,-141
-4,-3,0,4,-2,-4,24,-131,23,-138,-127,-140
-4,-3,0,4,-2,-4,24,-130,23,-137,-127,-140
-4,-3,0,4,-2,-4,24,-130,23,-136,-126,-139
-4,-3,0,4,-2,-4,24,-129,23,-136,-126,-139
-4,-3,1,4,-2,-4,24,-129,23,-135,-125,-138
-4,-3,1,4,-2,-4,24,-128,23,-135,-125,-138
-4,-3,1,4,-2,-4,23,-128,22,-134,-124,-137
-4,-3,1,4,-2,-4,23,-127,22,-133,-123,-136
-4,-3,1,4,-2,-4,23,-127,22,-133,-123,-136
-4,-3,1,4,-2,-4,23,-126,22,-132,-122,-135
-4,-3,1,4,-2,-4,23,-126,22,-132,-122,-135
-4,-3,1,4,-2,-4,23,-125,22,-131,-121,-134
-4,-3,0,4,-2,-4,23,-125,22,-131,-121,-134
-4,-3,0,4,-2,-4,23,-124,22,-130,-120,-133
-4,-3,0,4,-2,-4,23,-124,22,-129,-120,-132
-4,-3,0,4,-2,-4,23,-123,22,-129,-120,-132
-4,-3,0,4,-2,-4,23,-123,22,-128,-119,-131
-4,-3,0,4,-2,-4,23,-122,22,-128,-119,-131
-4,-3,0,4,-2,-4,23,-122,22,-127,-118,-130
-4,-3,0,4,-2,-4,22,-121,22,-127,-118,-130
-4,-3,0,4,-2,-4,22,-121,21,-126,-117,-129
-4,-3,0,4,-2,-4,22,-120,21,-126,-117,-129
-4,-3,0,4,-2,-4,22,-120,21,-125,-116,-128
-4,-3,0,4,-2,-4,22,-119,21,-125,-116,-128
-4,-3,0,4,-2,-4,22,-119,21,-124,-115,-127
-4,-3,0,4,-2,-4,22,-118,21,-124,-115,-126
-4,-3,0,4,-2,-4,22,-118,21,-123,-114,-126
-4,-3,0,4,-2,-4,22,-117,21,-123,-114,-125
-4,-3,1,4,-2,-4,22,-117,21,-122,-113,-125
-4,-3,1,4,-2,-4,22,-116,21,-122,-113,-124
-4,-3,1,4,-2,-4,22,-116,21,-121,-112,-124
-4,-3,1,4,-2,-4,22,-115,21,-121,-112,-123
-4,-3,1,4,-2,-4,22,-115,21,-120,-112,-123
-4,-3,1,4,-2,-4,22,-114,21,-120,-111,-122
-4,-3,1,4,-2,-4,21,-114,21,-119,-111,-122
-4,-3,1,4,-2,-4,21,-113,21,-119,-110,-121
-5,-4,1,4,-2,-5,21,-113,21,-118,-110,-121
-5,-4,1,5,-3,-5,21,-113,21,-118,-109,-121
-5,-4,1,5,-3,-5,21,-112,21,-117,-109,-120
-5,-4,1,4,-2,-4,21,-112,21,-117,-108,-120
-4,-3,1,4,-2,-4,21,-111,20,-116,-108,-119
-4,-3,1,4,-2,-4,21,-111,20,-116,-107,-119
-4,-3,1,4,-2,-4,21,-110,20,-115,-107,-118
-4,-3,1,4,-2,-4,21,-109,20,-115,-106,-118
-4,-3,1,4,-2,-4,21,-109,20,-114,-106,-117
-4,-3,1,4,-2,-4,21,-108,20,-114,-105,-117
-4,-3,1,4,-2,-3,21,-108,20,-113,-105,-116
-5,-3,1,4,-2,-3,21,-107,20,-113,-104,-116
-5,-3,1,4,-2,-3,21,-107,20,-112,-104,-115
-5,-3,1,4,-2,-3,21,-107,20,-112,-103,-115
-5,-3,1,4,-2,-3,21,-106,20,-111,-103,-114
-5,-3,1,4,-2,-3,21,-106,20,-111,-102,-114
-5,-3,1,4,-2,-3,20,-105,20,-111,-102,-114
-5,-3,1,4,-2,-3,20,-105,20,-110,-102,-113
-5,-3,1,4,-2,-3,20,-104,20,-110,-101,-113
-5,-3,0,4,-2,-4,20,-104,20,-109,-101,-112
-5,-3,0,4,-2,-4,20,-103,20,-109,-100,-112
-5,-3,0,4,-3,-4,20,-103,20,-108,-100,-111
-5,-3,0,4,-3,-4,20,-103,20,-108,-99,-111
-5,-3,0,4,-3,-4,20,-102,20,-107,-99,-110
-5,-3,0,4,-3,-4,20,-102,20,-107,-99,-110
-5,-3,0,4,-3,-4,20,-101,20,-107,-99,-109
-5,-3,0,4,-3,-4,20,-101,19,-106,-98,-109
-5,-3,0,4,-3,-4,19,-100,19,-106,-98,-108
-5,-3,0,4,-3,-4,19,-100,19,-105,-97,-108
-5,-3,0,4,-3,-4,19,-100,19,-105,-97,-108
-5,-3,1,4,-3,-4,19,-99,19,-104,-97,-107
-5,-3,1,4,-3,-3,19,-99,19,-104,-97,-107
-5,-3,1,4,-3,-3,19,-99,19,-104,-96,-107
-5,-3,1,4,-3,-3,19,-98,19,-104,-96,-106
-5,-3,1,4,-3,-3,19,-98,19,-103,-95,-106
-5,-3,1,5,-3,-3,19,-97,19,-103,-95,-105
-5,-3,1,5,-3,-3,19,-97,19,-102,-95,-105
-5,-3,1,5,-3,-3,19,-96,19,-102,-94,-104
-5,-3,1,4,-2,-3,19,-96,19,-101,-94,-104
-5,-3,1,4,-2,-3,19,-95,18,-101,-93,-103
-6,-3,1,4,-2,-3,18,-95,18,-100,-93,-103
-6,-3,1,4,-2,-3,18,-94,18,-100,-92,-102
-6,-3,1,4,-2,-3,18,-94,18,-99,-92,-102
-6,-3,1,5,-2,-3,18,-94,18,-99,-92,-101
-6,-3,1,5,-2,-3,18,-93,18,-99,-91,-101
-6,-3,1,5,-2,-3,18,-93,18,-98,-91,-101
-6,-3,1,5,-2,-3,18,-92,18,-98,-90,-100
-6,-3,1,5,-2,-3,18,-92,18,-97,-90,-100
-6,-3,1,5,-2,-3,18,-91,18,-97,-90,-99
-6,-2,1,5,-2,-3,18,-91,18,-96,-89,-99
-6,-2,1,4,-2,-2,18,-91,19,-96,-89,-98
-6,-2,1,4,-2,-2,17,-90,19,-95,-88,-98
-5,-1,1,4,-2,-2,17,-90,19,-95,-88,-97
-5,-1,1,4,-2,-2,17,-89,19,-95,-87,-97
-5,-1,1,3,-2,-1,17,-89,19,-94,-87,-97
-4,0,1,3,-2,-1,17,-88,19,-94,-87,-96
-4,0,1,2,-1,-1,17,-88,19,-93,-86,-96
-3,0,1,2,-1,-1,17,-87,19,-93,-86,-95
-3,0,1,1,0,-1,17,-87,19,-92,-86,-95
-3,0,1,1,0,-1,17,-86,19,-92,-85,-94
-3,0,1,1,0,-1,17,-86,19,-91,-85,-94
-2,0,1,1,0,-1,17,-85,19,-91,-84,-93
-2,1,1,1,0,-1,17,-85,19,-90,-84,-93
-2,1,0,1,0,-1,17,-84,19,-90,-83,-92
-2,1,0,1,0,0,17,-84,19,-89,-83,-92
-2,1,0,1,0,0,17,-83,19,-89,-82,-92
-2,2,0,0,0,0,17,-83,19,-88,-82,-91
-1,2,0,0,0,0,17,-83,19,-88,-82,-91
-1,2,0,0,0,0,17,-82,19,-87,-81,-90
-1,2,0,0,0,0,17,-82,19,-87,-81,-90
-1,2,0,0,0,0,17,-81,19,-87,-81,-90
-1,2,0,0,0,0,17,-81,19,-87,-81,-89
-1,2,0,0,0,0,16,-80,19,-87,-81,-89
0,2,0,0,0,0,16,-80,19,-87,-80,-89
0,2,0,0,0,0,16,-80,19,-86,-80,-89
0,2,0,0,0,0,16,-80,18,-86,-80,-89
0,2,0,0,0,0,15,-80,18,-86,-80,-88
0,2,0,0,0,0,15,-80,17,-85,-79,-88
0,2,0,-1,0,0,14,-80,17,-85,-79,-88
0,2,0,-1,1,0,14,-80,16,-85,-79,-87
0,2,-1,-1,1,0,14,-80,16,-84,-79,-87
0,2,-1,-1,1,-1,14,-81,16,-84,-79,-87
0,1,-1,0,1,-1,14,-81,15,-85,-79,-87
0,1,-1,0,1,-1,14,-81,15,-85,-79,-86
1,1,-1,0,2,-1,14,-81,15,-85,-78,-86
1,2,-1,-1,2,-1,14,-81,15,-84,-78,-86
1,2,-1,-1,2,-1,14,-80,15,-84,-77,-85
2,2,-1,-1,2,-1,13,-80,15,-83,-77,-85
2,2,-1,-1,2,-1,13,-79,15,-83,-77,-85
2,3,-1,-2,2,-1,13,-79,15,-83,-77,-84
3,3,-1,-2,2,-1,12,-78,15,-82,-76,-84
3,4,-2,-3,3,-1,12,-78,15,-82,-76,-83
4,4,-2,-3,3,-1,12,-78,15,-82,-76,-83
4,4,-2,-3,4,-1,12,-78,15,-82,-75,-83
4,4,-2,-3,4,-1,11,-77,14,-81,-75,-82
5,4,-2,-3,4,-1,11,-77,14,-81,-74,-82
5,4,-2,-3,4,-1,11,-77,14,-80,-74,-81
5,4,-3,-4,5,-1,12,-76,15,-80,-74,-81
5,5,-3,-4,5,-1,12,-75,15,-79,-74,-81
6,5,-3,-5,6,-1,13,-74,16,-78,-73,-80
7,6,-3,-6,6,-1,13,-73,16,-78,-72,-80
7,6,-3,-6,7,-1,14,-72,17,-77,-71,-79
8,6,-3,-7,7,-1,14,-71,17,-76,-71,-78
8,6,-4,-7,7,-1,14,-71,17,-76,-70,-78
9,6,-4,-7,8,-1,14,-70,17,-75,-70,-78
9,5,-5,-7,8,-1,14,-70,17,-75,-70,-78
8,5,-5,-6,8,-2,15,-70,17,-75,-70,-78
8,5,-5,-6,8,-2,15,-70,17,-75,-70,-78
8,5,-5,-6,7,-2,16,-69,17,-75,-70,-77
8,5,-4,-6,7,-2,16,-69,17,-75,-69,-77
8,5,-4,-6,7,-2,16,-69,16,-74,-69,-77
8,4,-4,-5,7,-2,16,-69,16,-74,-69,-77
7,4,-5,-5,7,-2,16,-68,16,-74,-69,-77
7,3,-5,-4,7,-2,16,-68,16,-74,-69,-77
6,2,-5,-3,7,-3,16,-68,16,-74,-69,-77
5,1,-5,-2,7,-4,16,-68,15,-74,-69,-77
4,0,-5,-1,6,-4,17,-68,15,-74,-69,-77
3,-1,-5,0,6,-5,17,-68,14,-74,-70,-77
2,-2,-6,0,5,-5,18,-67,14,-75,-70,-77
1,-2,-6,1,4,-6,18,-67,13,-75,-70,-77
1,-3,-6,1,4,-6,18,-67,12,-75,-70,-77
1,-3,-6,1,4,-6,18,-67,12,-75,-70,-77
1,-3,-6,2,4,-6,18,-67,12,-74,-69,-76
1,-3,-6,2,4,-6,18,-67,11,-74,-69,-76
1,-4,-6,2,4,-6,18,-67,11,-74,-69,-76
1,-4,-7,2,5,-6,18,-67,11,-73,-69,-76
1,-5,-7,2,5,-7,18,-66,11,-73,-68,-75
1,-5,-7,2,5,-7,18,-66,11,-72,-68,-75
1,-5,-7,2,5,-7,18,-65,11,-72,-67,-74
1,-5,-7,2,5,-7,18,-65,10,-72,-67,-74
1,-5,-7,2,5,-7,18,-64,10,-71,-66,-73
1,-5,-7,2,5,-7,18,-64,10,-71,-66,-73
1,-4,-7,2,5,-7,18,-63,10,-71,-65,-72
1,-4,-7,2,5,-7,18,-63,10,-70,-65,-72
1,-4,-7,2,5,-7,18,-62,10,-70,-64,-71
1,-4,-7,2,5,-7,18,-62,10,-69,-64,-71
1,-4,-7,2,5,-8,18,-62,10,-69,-64,-71
1,-4,-7,2,5,-8,18,-62,10,-68,-63,-70
1,-4,-7,2,5,-8,17,-62,10,-68,-63,-70
1,-5,-7,2,5,-8,17,-61,10,-68,-63,-69
1,-5,-7,2,5,-8,17,-61,10,-67,-63,-69
1,-5,-7,3,5,-8,17,-60,10,-67,-62,-68
1,-5,-8,3,5,-8,17,-60,9,-67,-62,-68
1,-6,-8,3,6,-8,17,-60,9,-66,-62,-68
1,-6,-8,3,6,-8,17,-59,9,-66,-61,-68
1,-6,-8,3,6,-9,17,-59,9,-65,-61,-67
1,-6,-9,3,6,-9,17,-59,9,-65,-61,-67
1,-6,-9,3,6,-9,16,-58,9,-65,-60,-67
1,-6,-9,3,6,-9,16,-58,9,-64,-60,-66
1,-6,-9,3,6,-9,16,-57,9,-64,-60,-66
1,-6,-9,3,6,-9,16,-57,9,-64,-60,-66
1,-6,-9,3,6,-10,16,-57,9,-63,-59,-66
1,-6,-9,3,6,-10,16,-57,9,-63,-59,-65
1,-6,-9,3,6,-9,16,-57,8,-63,-59,-65
1,-6,-9,3,6,-9,16,-57,8,-63,-59,-65
1,-6,-9,3,6,-9,16,-56,8,-63,-59,-65
1,-6,-9,3,6,-9,16,-56,8,-63,-58,-64
1,-6,-9,3,6,-9,16,-56,8,-62,-58,-64
2,-6,-10,3,7,-9,16,-55,8,-62,-58,-64
2,-6,-10,3,7,-10,15,-55,8,-62,-58,-64
2,-7,-10,3,7,-10,15,-55,8,-62,-58,-64
2,-7,-10,3,7,-11,15,-55,7,-62,-58,-64
2,-8,-11,3,8,-11,15,-54,7,-62,-58,-64
2,-8,-12,3,8,-12,15,-53,7,-62,-58,-64
3,-9,-14,3,9,-13,15,-52,7,-61,-57,-64
3,-10,-15,3,10,-14,16,-50,8,-61,-57,-64
4,-11,-18,3,12,-16,16,-49,8,-61,-58,-65
5,-13,-21,3,14,-18,16,-48,8,-60,-58,-66
7,-15,-25,3,17,-21,15,-48,8,-60,-58,-66
11,-17,-30,3,21,-25,13,-48,8,-60,-58,-67
15,-18,-34,2,26,-27,11,-46,10,-58,-56,-66
20,-18,-39,0,31,-30,9,-43,14,-54,-53,-65
26,-17,-45,-3,36,-32,5,-41,17,-50,-49,-62
33,-16,-51,-8,43,-35,0,-41,20,-44,-44,-58
42,-14,-59,-14,52,-37,-7,-42,22,-38,-36,-52
54,-12,-68,-21,62,-41,-14,-42,25,-29,-26,-45
69,-8,-79,-29,75,-45,-22,-44,28,-20,-14,-36
84,-4,-90,-39,88,-49,-32,-50,28,-11,-2,-26
100,0,-101,-49,101,-52,-43,-62,26,-3,10,-15
115,6,-110,-60,114,-53,-54,-78,20,4,22,-4
128,12,-118,-70,125,-54,-65,-96,11,9,34,6
140,18,-123,-79,133,-54,-75,-115,0,13,45,16
148,26,-124,-87,137,-50,-83,-135,-12,17,57,28
150,37,-115,-93,133,-40,-89,-155,-23,23,70,43
144,51,-95,-97,120,-23,-93,-174,-32,29,83,60
130,66,-66,-98,99,-1,-94,-194,-41,33,93,74
111,80,-33,-96,73,22,-93,-213,-52,31,97,86
91,93,0,-92,46,46,-92,-230,-65,25,96,94
70,102,30,-86,21,65,-88,-243,-77,15,89,95
50,101,49,-75,1,74,-80,-247,-88,0,71,83
32,91,58,-61,-11,73,-68,-244,-97,-19,44,59
16,78,60,-47,-20,68,-55,-235,-104,-38,18,34
4,69,63,-36,-28,64,-44,-226,-108,-52,-1,15
-6,62,66,-28,-34,63,-37,-216,-109,-62,-15,2
-13,58,68,-22,-39,62,-32,-206,-108,-70,-25,-6
-18,55,70,-18,-43,61,-29,-196,-107,-77,-33,-13
-20,53,71,-15,-45,60,-27,-187,-104,-83,-39,-19
-22,50,71,-13,-46,59,-24,-178,-100,-88,-45,-23
-24,47,70,-11,-45,57,-20,-166,-93,-92,-51,-29
-24,43,66,-9,-43,53,-15,-153,-85,-94,-57,-35
-23,38,59,-7,-40,47,-11,-139,-77,-95,-63,-41
-22,31,51,-4,-35,40,-7,-126,-69,-96,-69,-48
-20,25,43,-2,-30,32,-4,-114,-62,-97,-75,-55
-19,19,36,0,-26,26,-1,-105,-55,-97,-78,-60
-18,15,30,2,-23,21,0,-97,-49,-96,-80,-65
-17,11,26,4,-21,17,2,-90,-44,-94,-81,-67
-17,7,23,5,-19,13,4,-84,-39,-92,-81,-69
-17,5,21,6,-18,11,6,-79,-34,-89,-81,-70
-17,3,19,7,-17,9,8,-73,-29,-86,-80,-71
-17,2,17,7,-16,8,10,-69,-24,-83,-79,-71
-16,1,16,8,-15,6,12,-64,-20,-80,-77,-71
-16,0,14,8,-14,5,13,-60,-16,-78,-76,-71
-16,-1,13,9,-13,4,15,-57,-13,-75,-75,-70
-16,-3,11,9,-12,2,16,-53,-9,-73,-73,-70
-16,-4,10,10,-11,1,17,-50,-6,-71,-72,-69
-15,-6,8,10,-10,0,18,-47,-3,-68,-70,-69
-14,-7,6,11,-9,-2,20,-43,0,-65,-69,-69
-14,-8,4,11,-8,-3,21,-40,3,-63,-67,-68
-13,-9,3,11,-7,-4,23,-38,5,-60,-66,-68
-13,-9,2,11,-6,-5,24,-36,7,-59,-64,-67
-12,-9,1,11,-6,-5,24,-34,9,-57,-63,-66
-12,-9,1,11,-5,-5,24,-33,10,-56,-62,-65
-11,-9,1,10,-5,-5,24,-33,11,-55,-62,-64
-11,-8,1,10,-6,-5,25,-32,11,-55,-61,-64
-11,-8,2,10,-6,-5,25,-32,12,-54,-61,-63
-11,-8,2,10,-6,-5,26,-31,12,-53,-60,-63
-11,-8,2,10,-6,-5,26,-30,13,-52,-60,-63
-12,-8,2,10,-6,-5,27,-29,13,-51,-59,-63
-12,-8,2,10,-6,-5,27,-28,14,-51,-59,-63
-11,-8,2,10,-6,-5,27,-28,14,-51,-59,-63
-11,-8,2,10,-6,-5,27,-28,15,-50,-58,-62
-11,-8,2,9,-6,-5,28,-28,15,-50,-58,-62
-11,-8,2,9,-6,-5,28,-27,15,-50,-57,-62
-11,-7,2,9,-6,-5,28,-27,15,-49,-57,-62
-11,-7,2,9,-6,-4,28,-27,15,-49,-57,-62
-11,-7,2,9,-6,-4,28,-26,16,-48,-57,-61
-11,-7,2,9,-5,-4,28,-26,16,-48,-57,-61
-11,-7,2,9,-5,-4,28,-25,16,-48,-57,-60
-11,-7,2,9,-5,-4,28,-25,16,-48,-56,-60
-11,-7,2,9,-5,-4,28,-25,16,-47,-56,-60
-11,-7,2,9,-5,-4,28,-25,16,-47,-56,-60
-11,-7,2,9,-5,-4,28,-25,16,-47,-55,-60
-11,-7,2,9,-6,-4,28,-24,16,-46,-55,-60
-11,-7,2,9,-6,-4,28,-24,16,-46,-55,-60
-11,-7,2,9,-6,-4,28,-24,16,-46,-55,-60
-11,-7,2,9,-6,-4,28,-24,17,-46,-55,-60
-11,-7,3,9,-6,-4,28,-24,17,-45,-55,-59
-11,-7,3,9,-6,-3,28,-23,17,-45,-55,-59
-11,-7,3,9,-6,-3,28,-23,17,-44,-54,-59
-11,-7,3,9,-6,-3,28,-23,17,-44,-54,-59
-11,-7,3,9,-6,-3,28,-23,17,-44,-54,-59
-11,-7,3,9,-6,-3,28,-23,17,-44,-54,-59
-11,-7,3,9,-6,-3,28,-22,17,-44,-54,-59
-11,-7,3,9,-6,-3,28,-22,18,-43,-53,-58
-11,-7,3,9,-6,-3,27,-21,18,-43,-53,-58
-11,-7,3,9,-6,-3,27,-21,18,-43,-53,-58
-11,-7,3,9,-6,-3,27,-21,18,-42,-53,-58
-11,-7,4,9,-6,-3,27,-21,18,-42,-53,-58
-11,-7,4,9,-7,-3,26,-21,18,-42,-53,-58
-11,-7,4,8,-7,-3,26,-21,18,-42,-53,-57
-10,-7,4,8,-7,-3,26,-21,18,-41,-52,-57
-10,-7,4,8,-7,-3,26,-21,19,-41,-52,-57
-10,-7,4,8,-7,-3,26,-21,19,-41,-52,-57
-10,-6,4,8,-7,-2,26,-20,19,-41,-52,-56
-10,-6,4,8,-7,-2,26,-20,19,-41,-51,-56
-10,-6,4,8,-7,-2,26,-20,19,-40,-51,-56
-10,-6,4,8,-7,-2,26,-19,19,-40,-51,-56
-10,-6,4,8,-7,-2,25,-19,19,-40,-51,-56
-10,-6,4,8,-7,-2,25,-19,19,-40,-51,-56
-10,-6,4,8,-7,-2,25,-19,19,-39,-51,-55
-10,-6,4,8,-7,-2,25,-19,19,-39,-51,-55
-10,-6,4,8,-7,-2,25,-19,19,-38,-51,-55
-10,-6,4,8,-7,-2,25,-18,19,-38,-51,-55
-10,-6,4,8,-7,-2,25,-18,19,-38,-51,-55
-10,-6,4,8,-7,-2,25,-18,19,-38,-51,-55
-10,-6,4,8,-7,-2,25,-17,19,-38,-50,-54
-10,-6,4,8,-7,-2,25,-17,20,-38,-50,-54
-10,-6,4,8,-7,-2,25,-17,20,-38,-50,-54
-10,-6,4,8,-7,-2,24,-16,20,-37,-50,-54
-9,-6,4,7,-6,-2,24,-16,20,-37,-50,-54
-9,-6,4,7,-6,-2,24,-16,20,-37,-50,-54
-9,-6,4,7,-6,-2,24,-16,20,-37,-49,-54
-9,-6,4,7,-6,-2,24,-16,20,-36,-49,-54
-9,-6,3,7,-5,-2,24,-16,20,-36,-49,-53
-9,-6,3,7,-5,-2,24,-15,20,-36,-49,-53
-8,-6,3,7,-4,-2,24,-15,21,-36,-48,-53
-8,-6,2,7,-4,-2,24,-15,21,-35,-48,-53
-7,-6,2,7,-4,-2,23,-14,21,-35,-48,-52
-7,-6,2,7,-4,-2,23,-14,21,-35,-48,-52
-7,-6,2,7,-4,-2,23,-14,21,-34,-48,-52
-7,-6,1,6,-3,-2,22,-14,21,-34,-47,-52
-6,-5,1,6,-3,-3,22,-14,21,-34,-47,-52
-6,-5,0,5,-3,-3,22,-13,21,-34,-47,-52
-5,-5,0,5,-2,-3,22,-13,21,-33,-46,-51
-5,-5,0,5,-2,-3,22,-13,21,-33,-46,-51
-5,-5,0,5,-2,-3,22,-13,21,-33,-46,-51
-4,-5,0,5,-2,-3,21,-13,21,-33,-46,-51
-4,-5,-1,5,-1,-3,21,-13,21,-33,-46,-51
-4,-5,-1,5,-1,-3,20,-13,21,-32,-45,-50
-4,-5,-2,4,0,-3,20,-12,21,-32,-45,-50
-3,-5,-2,4,0,-3,19,-12,21,-32,-45,-49
-2,-5,-3,3,1,-4,19,-12,21,-32,-44,-49
-1,-5,-3,3,1,-4,19,-12,21,-32,-44,-48
0,-5,-4,2,2,-4,18,-12,20,-31,-44,-48
1,-5,-5,2,3,-4,18,-12,20,-31,-44,-48
1,-5,-6,1,4,-4,17,-12,20,-31,-44,-48
2,-4,-6,1,5,-4,17,-12,19,-31,-44,-48
3,-4,-7,0,6,-5,16,-12,19,-31,-43,-48
4,-3,-7,0,7,-5,15,-12,18,-31,-43,-47
5,-3,-8,0,8,-6,14,-13,17,-32,-43,-47
6,-3,-9,-1,9,-6,14,-13,16,-32,-43,-47
7,-3,-10,-1,10,-7,13,-14,15,-32,-43,-46
8,-3,-11,-2,11,-7,12,-14,14,-32,-43,-46
9,-3,-13,-2,12,-8,11,-15,13,-32,-43,-46
10,-3,-14,-3,13,-8,10,-16,12,-33,-43,-46
11,-3,-14,-3,13,-9,9,-17,11,-33,-43,-46
12,-3,-15,-4,14,-9,8,-18,10,-34,-43,-46
13,-3,-16,-5,15,-10,8,-18,9,-34,-43,-46
14,-3,-17,-5,16,-10,7,-19,8,-35,-43,-45
15,-3,-18,-5,17,-11,7,-20,7,-36,-43,-45
16,-3,-19,-5,18,-11,6,-21,6,-36,-43,-45
16,-3,-20,-6,19,-12,6,-22,5,-37,-44,-45
17,-3,-21,-6,20,-12,5,-23,3,-38,-44,-45
18,-3,-22,-7,21,-12,4,-24,2,-38,-44,-44
19,-3,-22,-7,21,-13,4,-25,1,-39,-45,-44
20,-3,-23,-8,22,-13,3,-26,0,-40,-45,-44
21,-3,-23,-8,22,-13,3,-27,-1,-41,-45,-44
21,-3,-24,-9,23,-14,2,-28,-3,-42,-46,-44
22,-3,-25,-9,24,-14,2,-29,-4,-43,-46,-44
23,-3,-26,-9,25,-14,1,-30,-5,-44,-46,-44
23,-3,-27,-9,25,-15,0,-31,-6,-44,-47,-44
24,-3,-28,-10,26,-15,0,-32,-8,-45,-47,-44
24,-3,-28,-10,26,-16,-1,-32,-9,-46,-47,-44
25,-3,-29,-10,27,-16,-1,-33,-10,-47,-48,-44
25,-3,-29,-10,27,-17,-2,-34,-11,-47,-48,-44
26,-3,-30,-10,28,-17,-2,-35,-12,-48,-48,-44
26,-3,-30,-10,28,-17,-2,-35,-13,-48,-48,-44
27,-4,-31,-10,29,-17,-2,-36,-14,-49,-48,-44
27,-4,-31,-10,29,-17,-3,-36,-15,-49,-48,-44
27,-4,-31,-10,29,-17,-3,-37,-15,-49,-48,-44
27,-4,-31,-11,30,-18,-3,-38,-16,-50,-48,-43
27,-4,-31,-11,30,-18,-3,-38,-16,-50,-48,-43
27,-4,-32,-11,30,-18,-4,-38,-17,-50,-48,-43
27,-4,-32,-11,30,-18,-4,-38,-17,-50,-48,-43
27,-4,-32,-11,30,-18,-4,-38,-17,-50,-48,-43
27,-4,-32,-11,30,-18,-4,-38,-17,-50,-48,-42
26,-4,-31,-10,29,-17,-4,-38,-17,-49,-47,-42
24,-4,-29,-9,27,-16,-3,-38,-15,-48,-46,-40
23,-3,-27,-9,26,-15,-3,-37,-14,-47,-44,-39
11,-6,-18,-1,15,-12,-1,-34,-8,-40,-40,-33
-16,-14,2,16,-8,-6,3,-26,5,-24,-34,-20
-40,-20,19,31,-29,-1,7,-19,16,-10,-29,-9
-49,-22,27,37,-37,1,9,-16,21,-4,-26,-4
-52,-22,29,38,-40,2,10,-14,23,-2,-24,-3
-52,-21,30,37,-41,3,11,-14,24,-2,-23,-3
-49,-20,29,35,-39,4,11,-14,23,-3,-23,-4
-46,-19,27,32,-36,4,10,-15,22,-5,-23,-6
-41,-17,25,29,-33,4,9,-16,20,-7,-23,-8
-37,-15,22,26,-29,3,8,-17,18,-9,-23,-10
-32,-13,20,23,-26,3,8,-18,17,-11,-23,-12
-29,-11,18,21,-23,2,7,-18,16,-13,-23,-13
-26,-9,16,19,-21,2,7,-19,15,-14,-23,-15
-24,-8,15,17,-20,2,7,-19,14,-15,-23,-16
-23,-8,14,16,-18,2,7,-19,13,-16,-23,-16
-21,-8,13,15,-17,2,7,-20,12,-17,-23,-17
-18,-7,12,13,-15,2,7,-20,11,-18,-23,-18
-16,-6,11,12,-13,2,7,-21,10,-19,-23,-19
-14,-5,9,10,-11,2,7,-21,10,-20,-23,-20
-13,-4,8,9,-9,2,7,-21,9,-21,-23,-21
-12,-3,8,8,-9,2,7,-21,9,-21,-23,-21
-11,-3,7,8,-9,1,7,-21,9,-21,-23,-22
-11,-4,6,8,-8,0,7,-21,9,-21,-21,-22
-14,1,14,7,-13,7,2,-25,4,-25,-27,-24
-24,15,39,5,-31,26,-10,-34,-7,-36,-50,-29
-36,29,65,4,-49,46,-23,-43,-17,-44,-78,-32
-41,33,75,4,-57,53,-27,-44,-19,-44,-89,-32
-33,23,56,5,-44,39,-17,-37,-11,-37,-74,-29
-16,7,23,5,-19,14,-2,-27,1,-27,-43,-25
-6,-4,1,5,-3,-2,8,-20,9,-21,-20,-22
-1,-8,-8,5,3,-9,12,-17,12,-18,-10,-21
1,-11,-12,5,7,-12,14,-16,14,-17,-5,-21
2,-12,-14,5,8,-13,15,-15,14,-16,-3,-20
3,-12,-15,5,9,-13,15,-15,14,-16,-2,-20
4,-12,-14,4,9,-13,15,-15,14,-17,-3,-20
4,-10,-13,4,8,-12,14,-15,13,-17,-4,-20
3,-9,-11,4,7,-10,13,-16,12,-18,-6,-21
2,-8,-9,4,5,-9,12,-17,11,-18,-8,-21
0,-7,-7,4,3,-7,11,-18,10,-19,-9,-21
-1,-6,-5,4,2,-6,10,-18,10,-19,-11,-21
-1,-6,-4,4,1,-5,10,-18,9,-20,-12,-21
-1,-5,-3,4,0,-5,9,-18,9,-20,-12,-21
-1,-5,-3,4,0,-4,9,-18,8,-20,-13,-21
-1,-4,-2,4,0,-4,9,-19,8,-20,-14,-21
-1,-3,-2,4,0,-3,8,-19,7,-20,-14,-21
-2,-3,-1,4,0,-2,8,-19,7,-21,-15,-21
-2,-2,0,4,-1,-1,7,-19,7,-21,-16,-21
-3,-3,0,4,-1,-2,8,-18,8,-20,-15,-20
-4,0,5,3,-5,2,4,-21,6,-25,-21,-24
-4,0,4,3,-4,1,5,-21,6,-24,-20,-23
12,-63,-75,25,45,-70,60,25,36,60,72,39
29,-121,-150,46,90,-136,112,68,65,138,158,98
18,-79,-97,31,58,-89,75,37,44,82,97,56
2,-21,-23,10,13,-23,23,-5,15,5,11,-1
-4,2,7,2,-5,4,2,-22,4,-26,-24,-25
-8,14,22,-2,-15,18,-8,-31,-1,-42,-42,-36
-10,19,29,-4,-19,24,-13,-35,-4,-49,-50,-42
-10,21,31,-5,-21,26,-14,-37,-5,-51,-52,-44
-11,21,31,-5,-21,26,-14,-37,-5,-51,-52,-44
-12,19,31,-3,-21,25,-13,-35,-5,-48,-51,-42
5,20,14,-12,-3,17,-9,-35,-6,-53,-41,-49
52,26,-25,-38,39,0,-1,-38,-11,-71,-21,-70
89,30,-57,-58,74,-13,4,-40,-16,-85,-6,-87
99,31,-67,-64,83,-18,5,-40,-19,-88,-4,-91
96,30,-66,-62,81,-18,4,-40,-20,-86,-6,-88
89,28,-60,-58,75,-16,3,-39,-20,-81,-9,-82
79,27,-53,-52,66,-13,2,-38,-19,-75,-13,-76
68,25,-45,-46,57,-10,1,-37,-18,-69,-17,-69
58,22,-37,-39,48,-7,0,-36,-17,-63,-21,-62
48,20,-29,-33,39,-5,0,-34,-15,-57,-25,-55
40,18,-22,-28,32,-2,-1,-32,-13,-51,-28,-48
32,16,-16,-22,25,0,-2,-31,-11,-46,-30,-43
25,14,-11,-18,19,1,-3,-30,-10,-42,-31,-38
19,12,-7,-14,14,2,-3,-29,-8,-38,-32,-35
14,11,-4,-12,10,2,-3,-28,-7,-35,-32,-32
10,10,-1,-9,7,3,-3,-28,-6,-33,-32,-30
7,8,1,-7,4,3,-3,-27,-5,-30,-32,-28
4,7,3,-4,1,4,-3,-26,-4,-28,-32,-25
2,6,5,-2,-1,5,-3,-24,-2,-26,-31,-23
0,5,6,-1,-2,6,-2,-23,-1,-24,-31,-21
-2,4,7,0,-4,6,-2,-23,0,-22,-31,-19
-3,4,8,0,-5,6,-2,-22,0,-21,-30,-18
-5,3,8,1,-6,5,-1,-22,0,-21,-29,-18
-6,3,9,1,-6,5,-1,-21,0,-20,-28,-18
-6,2,9,2,-6,5,-1,-21,0,-20,-27,-18
-7,2,9,2,-7,5,0,-21,0,-19,-27,-17
-7,2,9,3,-7,5,0,-20,1,-18,-26,-16
-8,2,9,3,-7,5,0,-20,2,-17,-26,-16
-8,1,9,4,-8,5,0,-19,2,-17,-25,-15
-8,1,9,4,-8,5,1,-19,3,-17,-25,-15
-8,0,9,4,-9,4,1,-18,3,-16,-24,-15
-8,0,8,4,-9,4,1,-18,3,-16,-23,-15
-8,0,8,4,-9,4,1,-18,3,-16,-22,-15
-8,0,8,4,-9,4,1,-18,3,-16,-22,-15
-8,0,8,4,-8,4,2,-18,3,-16,-22,-15
-8,0,8,4,-8,4,2,-18,4,-16,-22,-15
-8,0,8,4,-8,4,2,-17,4,-16,-21,-15
-8,0,8,4,-8,4,2,-17,4,-16,-21,-14
-8,0,8,4,-8,3,2,-17,4,-16,-20,-14
-7,0,8,4,-8,3,2,-17,4,-16,-20,-14
-7,0,8,4,-8,3,3,-17,4,-16,-19,-14
-7,0,8,4,-7,3,3,-17,4,-16,-19,-14
-7,0,7,4,-7,3,3,-17,4,-16,-19,-14
-7,0,7,4,-6,3,3,-17,4,-16,-19,-14
-7,0,6,4,-6,3,3,-16,4,-16,-19,-14
-7,0,6,4,-6,3,3,-16,4,-16,-18,-14
-7,0,6,4,-6,3,2,-16,4,-16,-18,-14
-7,0,6,4,-6,3,2,-16,4,-16,-18,-14
-7,0,6,4,-6,3,2,-16,4,-16,-18,-14
-6,0,6,4,-6,3,2,-16,4,-16,-17,-14
-6,0,6,4,-6,3,2,-16,4,-15,-17,-14
-6,0,6,4,-6,3,2,-16,4,-15,-17,-14
-6,0,5,4,-6,3,2,-16,4,-15,-17,-14
-6,0,5,4,-6,3,2,-16,4,-15,-16,-14
-6,0,5,4,-6,3,2,-16,4,-15,-16,-14
-6,0,6,4,-6,3,2,-16,4,-15,-16,-15
-5,0,6,4,-6,3,2,-16,4,-16,-16,-15
-5,0,6,4,-6,2,2,-16,4,-16,-16,-15
-5,0,5,4,-5,2,2,-16,4,-15,-16,-15
-5,0,5,4,-5,1,2,-15,4,-15,-16,-15
-5,0,5,4,-5,1,2,-15,4,-15,-16,-15
-5,0,5,4,-5,1,2,-15,4,-15,-15,-15
-5,0,5,4,-5,1,2,-15,4,-15,-15,-15
-5,-1,5,4,-5,1,2,-15,4,-15,-15,-15
-5,-1,4,3,-5,1,2,-15,4,-15,-15,-15
-4,-1,4,3,-4,1,2,-15,4,-15,-15,-15
-4,-1,4,3,-4,1,2,-15,4,-15,-15,-15
-4,-1,4,3,-5,1,2,-15,4,-15,-15,-15
-4,-1,4,3,-5,1,2,-14,4,-15,-15,-15
-4,-1,4,3,-4,1,2,-14,4,-15,-15,-15
-4,-1,4,3,-4,1,2,-14,4,-15,-15,-15
-4,-1,4,3,-4,1,2,-14,4,-15,-15,-15
-4,-1,4,3,-4,1,3,-14,4,-15,-15,-15
-4,-1,4,3,-5,1,3,-14,4,-15,-15,-15
-4,-1,4,3,-5,1,3,-14,4,-15,-15,-15
-4,-1,4,3,-4,1,3,-14,4,-15,-15,-15
-4,-1,4,3,-4,1,3,-14,4,-15,-15,-15
-4,-1,4,3,-4,1,3,-14,4,-15,-14,-15
-4,-1,4,3,-4,2,3,-14,4,-15,-14,-15
-4,-1,4,3,-4,2,3,-14,4,-15,-14,-15
-4,-1,3,3,-4,1,3,-14,4,-15,-14,-15
-4,-1,3,3,-4,1,3,-14,4,-15,-14,-15
-4,0,4,3,-4,1,3,-14,4,-15,-14,-15
-4,0,4,3,-4,1,3,-14,4,-15,-14,-15
-4,0,4,3,-4,1,3,-14,4,-15,-14,-15
-4,0,4,3,-4,1,3,-13,4,-15,-14,-15
-4,0,4,3,-4,1,3,-13,4,-15,-14,-15
-4,0,4,3,-4,1,3,-13,4,-15,-14,-15
-4,0,4,3,-4,1,3,-13,4,-15,-14,-15
-4,0,4,3,-4,1,3,-13,4,-15,-14,-15
-5,0,4,3,-4,1,3,-13,4,-15,-14,-15
-5,-1,4,3,-4,1,3,-13,4,-15,-14,-15
-5,-1,4,3,-4,1,3,-13,4,-15,-14,-15
-5,-1,4,3,-4,1,3,-13,4,-15,-14,-14
-5,-1,4,3,-4,1,3,-13,4,-15,-14,-14
-5,-1,4,3,-4,1,3,-13,4,-15,-14,-14
-5,-1,4,3,-4,1,3,-13,4,-15,-14,-14
-5,-1,3,3,-4,1,3,-13,4,-14,-14,-14
-4,-1,3,3,-4,1,3,-13,4,-14,-14,-14
-4,-1,3,3,-4,1,3,-13,4,-14,-14,-14
-4,-1,3,3,-4,1,3,-12,4,-14,-14,-14
-4,-1,3,3,-4,1,3,-12,4,-14,-14,-14
-4,-1,3,3,-4,1,4,-12,4,-14,-14,-14
-4,-1,3,3,-4,1,4,-12,4,-14,-14,-14
-4,-1,3,3,-4,1,4,-13,4,-14,-13,-14
-4,-1,3,3,-4,1,4,-13,4,-14,-13,-13
-4,-1,3,3,-4,1,4,-13,4,-14,-13,-13
-4,-1,3,3,-4,1,4,-13,4,-13,-13,-13
-4,-1,3,3,-4,1,4,-13,4,-13,-13,-13
-4,-1,3,3,-4,1,4,-13,4,-13,-12,-13
-4,-1,3,3,-4,1,4,-13,4,-13,-12,-13
-4,-1,3,3,-4,1,4,-13,4,-13,-12,-13
-4,-1,3,3,-4,0,4,-13,4,-13,-12,-13
-4,-1,2,3,-4,0,4,-13,4,-13,-13,-13
-4,-1,2,3,-4,0,4,-13,4,-13,-13,-13
-4,-1,2,3,-3,0,4,-13,4,-13,-13,-13
-4,-1,2,3,-3,0,4,-12,4,-13,-13,-13
-4,-1,2,3,-3,0,4,-12,4,-13,-13,-13
-4,-1,2,3,-3,0,4,-12,4,-13,-13,-13
-4,-1,2,2,-3,1,4,-12,4,-13,-13,-13
-4,-1,2,2,-3,1,4,-12,4,-13,-13,-13
-4,-1,2,2,-3,1,3,-12,4,-13,-13,-13
-4,-1,2,2,-3,1,3,-12,4,-13,-13,-13
-4,-1,2,2,-3,1,3,-12,4,-13,-13,-12
-4,-1,2,2,-3,1,3,-12,4,-13,-13,-12
-4,-1,2,2,-3,0,3,-12,4,-13,-13,-12
-4,-1,2,2,-3,0,3,-12,4,-13,-12,-12
-4,-1,2,2,-3,0,3,-12,4,-13,-12,-12
-4,-1,2,2,-3,0,3,-12,4,-13,-12,-12
-3,-1,2,2,-3,0,3,-12,4,-13,-12,-12
-3,-1,2,2,-3,0,3,-12,4,-13,-12,-12
-3,-1,2,3,-3,0,3,-12,4,-13,-12,-12
-3,-1,2,3,-3,0,3,-12,4,-13,-12,-12
-3,-1,2,3,-3,0,3,-12,4,-13,-12,-12
-3,-1,2,3,-3,0,3,-12,4,-13,-12,-12
-3,-1,2,3,-3,0,3,-12,4,-13,-12,-12
-3,-1,2,3,-3,1,3,-12,4,-13,-12,-12
-3,-1,2,3,-3,1,3,-12,3,-13,-12,-12
-3,-1,2,3,-3,1,3,-12,3,-13,-12,-12
-3,-1,2,3,-2,1,3,-12,3,-13,-12,-12
-3,-1,2,2,-2,1,3,-12,3,-13,-12,-12
-3,0,2,2,-2,1,3,-12,3,-13,-12,-12
-3,0,2,2,-2,1,3,-12,3,-13,-12,-12
-3,0,2,2,-2,1,3,-12,3,-13,-12,-12
-3,0,2,2,-2,1,3,-11,3,-13,-12,-12
-3,0,2,2,-2,1,3,-11,3,-12,-12,-12
-3,0,2,2,-2,1,3,-11,3,-12,-12,-12
-3,0,2,2,-2,1,3,-11,3,-12,-12,-12
-3,0,2,2,-2,1,3,-11,3,-12,-12,-12
-3,0,2,2,-2,1,3,-11,3,-12,-12,-12
-3,-1,2,2,-2,1,3,-11,3,-12,-12,-12
-3,-1,2,2,-2,1,3,-11,3,-12,-12,-12
-3,-1,2,2,-2,1,3,-11,3,-12,-12,-12
-3,-1,2,2,-2,1,3,-11,3,-12,-12,-12
-3,-1,2,2,-2,1,3,-11,3,-12,-12,-12
-3,-1,2,2,-2,1,3,-10,3,-12,-11,-12
-3,-1,2,2,-2,1,3,-10,3,-12,-11,-12
-3,-1,2,2,-2,1,3,-10,3,-12,-11,-12
-3,-1,2,2,-2,1,3,-9,3,-12,-11,-12
-3,-1,2,2,-2,1,3,-9,3,-12,-11,-12
-3,-1,2,2,-2,1,3,-9,3,-12,-11,-12
-3,0,3,2,-2,1,3,-9,3,-11,-11,-12
-2,0,3,2,-2,1,3,-9,3,-11,-11,-12
-2,0,3,1,-2,1,3,-9,3,-11,-10,-11
-2,0,3,1,-2,2,3,-8,3,-11,-10,-11
-2,0,3,1,-2,2,3,-8,3,-11,-10,-11
-2,0,3,1,-2,2,3,-8,3,-11,-10,-11
-2,0,3,1,-2,2,3,-8,4,-10,-10,-11
-2,0,3,1,-2,2,3,-8,4,-10,-10,-10
-1,0,2,1,-2,2,3,-8,4,-10,-10,-10
-1,0,2,1,-2,2,3,-7,4,-10,-10,-10
-1,0,2,1,-2,2,3,-7,4,-10,-10,-10
-1,0,2,1,-2,2,3,-7,4,-10,-10,-10
-1,0,2,1,-2,2,3,-7,4,-10,-10,-10
-1,0,2,1,-2,2,3,-6,4,-10,-10,-10
-1,0,2,1,-2,2,3,-6,4,-10,-9,-10
-1,0,2,1,-2,2,3,-6,4,-10,-9,-10
-1,0,2,1,-2,2,3,-6,4,-9,-9,-10
-1,0,2,1,-2,2,3,-6,5,-9,-9,-10
-1,0,2,1,-2,2,3,-6,5,-9,-9,-9
-2,0,2,2,-2,2,3,-6,5,-9,-9,-9
-2,0,2,2,-2,2,3,-6,5,-8,-9,-9
-2,0,2,2,-2,2,3,-5,5,-8,-9,-9
-1,0,2,2,-2,2,3,-5,5,-8,-9,-9
-1,0,2,2,-2,2,2,-4,5,-8,-9,-9
-1,0,2,2,-2,2,2,-4,5,-8,-9,-9
-1,0,2,2,-2,2,2,-4,5,-8,-8,-8
-1,0,2,2,-2,2,2,-4,5,-8,-8,-8
-1,0,2,2,-2,2,2,-5,5,-8,-8,-8
-1,0,2,2,-2,2,1,-5,5,-8,-8,-9
-1,0,2,2,-2,2,1,-5,5,-8,-8,-9
-1,0,2,2,-2,2,0,-5,5,-8,-8,-9
-1,0,2,2,-2,1,0,-6,4,-8,-8,-9
-1,-1,2,2,-2,1,0,-7,4,-9,-8,-9
-1,-1,2,2,-2,1,0,-8,3,-9,-8,-9
-1,-1,2,2,-1,1,-1,-8,3,-9,-8,-9
-1,0,1,2,-1,1,-1,-8,3,-9,-8,-9
-1,0,1,2,-1,1,-1,-8,3,-9,-8,-9
-1,0,1,1,-1,1,-1,-8,2,-9,-8,-9
-1,0,1,1,-1,1,-2,-9,2,-9,-8,-9
0,0,1,1,-1,1,-2,-9,2,-9,-8,-9
0,0,1,1,-1,1,-3,-9,1,-9,-8,-8
0,0,0,0,0,1,-3,-9,1,-9,-8,-8
1,1,0,0,0,1,-4,-10,1,-9,-8,-7
1,1,0,0,1,1,-5,-10,1,-9,-8,-7
1,1,0,0,1,1,-5,-11,0,-9,-8,-8
1,1,0,0,1,1,-6,-11,0,-9,-8,-8
1,1,0,0,1,1,-6,-11,0,-9,-8,-8
2,1,0,-1,1,1,-6,-11,0,-9,-8,-8
2,1,0,-1,2,1,-6,-11,0,-9,-7,-8
3,1,0,-2,2,1,-6,-10,1,-9,-7,-7
3,2,0,-2,3,1,-6,-10,1,-8,-6,-6
4,2,-1,-3,3,1,-6,-9,2,-8,-6,-6
4,3,-1,-3,3,1,-6,-9,2,-7,-5,-5
5,3,-2,-4,3,1,-6,-8,2,-7,-5,-5
5,3,-2,-4,3,0,-5,-8,2,-7,-5,-5
5,2,-2,-3,4,0,-4,-7,2,-7,-5,-5
5,2,-2,-3,4,0,-4,-7,2,-7,-5,-5
5,2,-2,-3,3,0,-3,-7,2,-7,-5,-5
4,1,-2,-2,3,0,-3,-6,2,-7,-5,-5
3,1,-2,-2,2,0,-3,-6,2,-7,-5,-5
3,1,-2,-2,2,0,-3,-6,2,-7,-5,-5
2,1,-2,-1,2,0,-2,-6,2,-7,-5,-5
2,0,-2,-1,2,0,-2,-6,2,-7,-5,-5
1,0,-2,0,2,0,-1,-6,2,-7,-5,-6
1,-1,-2,1,1,-1,-1,-6,2,-8,-6,-6
0,-2,-2,2,1,-1,0,-6,1,-8,-6,-7
0,-3,-2,2,1,-2,0,-6,1,-8,-7,-7
-1,-4,-2,3,0,-3,0,-6,0,-9,-8,-8
-2,-5,-2,4,0,-3,0,-6,0,-9,-8,-9
-3,-6,-2,5,0,-4,0,-7,0,-10,-9,-9
-3,-6,-2,5,0,-4,0,-7,-1,-10,-9,-10
-4,-7,-2,5,0,-4,1,-7,-1,-11,-10,-10
-4,-7,-2,5,0,-4,1,-7,-1,-11,-10,-10
-4,-7,-2,5,0,-4,1,-7,-1,-11,-10,-10
-4,-7,-2,5,0,-4,1,-7,-1,-12,-10,-10
-4,-7,-2,5,0,-4,1,-7,-2,-12,-10,-10
-4,-7,-2,6,0,-5,1,-7,-2,-12,-10,-10
-4,-7,-2,6,0,-5,1,-7,-2,-12,-10,-10
-4,-7,-2,5,0,-5,2,-7,-2,-12,-10,-10
-4,-7,-2,5,0,-4,2,-7,-1,-11,-10,-10
-4,-6,-2,5,-1,-4,2,-7,-1,-11,-10,-10
-4,-6,-1,5,-1,-3,2,-7,-1,-11,-10,-10
-3,-5,-1,5,-1,-3,2,-7,-1,-11,-10,-10
-3,-5,0,4,-1,-2,2,-7,0,-11,-10,-10
-3,-4,0,4,-1,-2,2,-7,0,-10,-10,-10
-3,-4,0,4,-2,-2,2,-7,0,-10,-10,-10
-4,-3,0,4,-2,-2,2,-7,0,-10,-10,-10
-4,-3,0,4,-2,-1,2,-7,0,-10,-10,-10
-3,-3,0,3,-1,-1,2,-7,0,-10,-10,-9
-3,-3,0,3,-1,-1,2,-7,0,-10,-10,-9
-3,-3,0,3,-2,-1,2,-7,0,-9,-10,-9
-3,-3,0,3,-2,-1,2,-7,0,-9,-9,-9
-3,-3,1,3,-2,0,2,-7,0,-9,-9,-9
-3,-2,1,3,-2,0,2,-7,0,-9,-9,-9
-3,-2,1,3,-2,0,2,-7,0,-9,-9,-9
-3,-2,1,3,-2,0,2,-7,0,-9,-9,-9
-2,-2,1,3,-2,0,2,-7,1,-9,-9,-9
-2,-2,1,2,-2,0,2,-7,1,-9,-9,-9
-2,-2,1,2,-2,0,2,-7,1,-9,-9,-8
-2,-2,1,2,-2,0,2,-7,1,-9,-9,-8
-2,-2,1,2,-2,0,2,-7,1,-9,-9,-8
-2,-2,1,2,-2,0,2,-7,1,-9,-9,-8
-2,-1,2,2,-2,0,2,-6,1,-8,-9,-8
-2,-1,2,2,-2,0,2,-6,1,-8,-9,-8
-2,-1,1,2,-1,0,2,-6,1,-8,-9,-8
-2,-1,1,2,-1,0,2,-6,1,-8,-9,-8
-2,-1,1,2,-1,0,2,-6,1,-8,-9,-8
-2,-1,1,2,-1,0,2,-6,1,-8,-9,-8
-2,-1,1,2,-1,0,2,-6,1,-8,-8,-8
-2,-1,1,2,-1,0,2,-6,1,-8,-8,-8
-2,-1,1,2,-1,0,2,-6,1,-8,-8,-8
-2,-1,1,2,-1,0,2,-6,1,-8,-8,-8
-2,-1,1,2,-1,0,2,-6,1,-8,-8,-8
-2,-2,1,2,-1,0,2,-6,1,-8,-8,-8
-2,-2,0,2,-1,-1,2,-5,1,-8,-8,-8
-2,-3,0,2,-1,-1,2,-4,1,-8,-9,-9
-1,-3,-1,2,0,-2,2,-3,2,-8,-9,-9
-1,-4,-2,2,0,-3,2,-2,2,-8,-10,-10
0,-5,-4,2,2,-4,2,-2,2,-8,-10,-11
1,-6,-7,2,4,-6,2,-2,2,-8,-10,-11
3,-7,-10,2,6,-8,1,-2,2,-8,-10,-12
6,-8,-13,2,9,-10,0,-2,3,-8,-10,-12
9,-8,-16,0,12,-11,-2,0,5,-5,-8,-11
13,-7,-19,-2,15,-12,-5,2,8,-1,-5,-9
17,-6,-22,-5,19,-13,-8,1,10,2,-1,-6
23,-4,-26,-9,24,-14,-13,0,11,6,3,-3
31,-2,-31,-14,31,-16,-18,-2,13,11,10,1
40,1,-38,-20,39,-17,-23,-3,14,16,17,7
50,4,-45,-27,47,-19,-28,-7,15,22,25,14
60,8,-51,-33,55,-21,-35,-16,12,26,32,20
69,12,-56,-39,62,-22,-42,-29,6,29,38,26
76,16,-59,-45,67,-22,-48,-44,-1,31,43,32
80,19,-61,-49,71,-21,-52,-58,-12,30,47,36
82,22,-59,-51,71,-19,-56,-71,-23,28,49,39
79,27,-51,-53,65,-12,-57,-84,-32,27,53,45
70,35,-34,-52,52,0,-56,-95,-38,27,58,53
53,45,-7,-48,30,19,-53,-105,-43,28,63,62
30,54,25,-41,2,39,-47,-112,-47,26,63,68
5,61,56,-33,-25,58,-39,-118,-54,18,58,70
-16,65,83,-24,-49,74,-31,-121,-61,8,49,69
-36,63,100,-13,-68,82,-21,-118,-66,-4,34,59
-52,52,105,0,-79,78,-8,-106,-68,-21,10,37
-64,34,99,15,-82,66,5,-87,-67,-38,-18,8
-71,18,91,26,-81,54,17,-68,-63,-50,-40,-16
-75,8,84,33,-79,46,24,-50,-57,-57,-53,-31
-75,1,78,37,-77,40,28,-33,-49,-60,-59,-39
-74,-2,72,38,-73,35,29,-19,-41,-61,-62,-43
-70,-5,66,38,-68,30,30,-7,-32,-61,-63,-44
-65,-6,59,36,-62,26,30,3,-23,-59,-62,-45
-58,-7,51,34,-55,22,31,13,-14,-55,-60,-45
-52,-10,42,32,-47,16,31,24,-4,-51,-60,-46
-45,-14,32,30,-39,9,32,35,5,-47,-59,-48
-39,-18,21,29,-31,2,32,44,13,-43,-59,-50
-33,-22,12,28,-24,-4,32,50,20,-40,-59,-52
-29,-25,5,28,-18,-10,32,54,25,-37,-58,-53
-26,-27,0,27,-13,-14,32,56,28,-32,-55,-52
-23,-28,-4,26,-9,-16,31,55,30,-28,-50,-50
-20,-28,-7,24,-6,-18,29,54,32,-23,-45,-48
-17,-28,-9,23,-4,-18,28,52,33,-18,-40,-44
-15,-27,-10,21,-3,-18,26,49,33,-13,-35,-40
-13,-25,-10,19,-2,-17,24,47,34,-10,-31,-36
-11,-23,-10,17,-1,-16,23,45,34,-7,-26,-32
-10,-21,-10,15,-1,-15,22,43,34,-5,-23,-29
-9,-19,-10,14,0,-15,21,41,34,-4,-20,-26
-8,-18,-10,14,0,-14,21,39,33,-2,-18,-24
-7,-18,-10,13,0,-14,20,37,32,0,-15,-22
-6,-17,-10,12,1,-14,19,34,31,1,-13,-20
-4,-17,-11,11,2,-14,18,32,30,3,-10,-18
-3,-16,-11,10,3,-14,16,31,29,4,-8,-16
-3,-15,-11,9,3,-13,15,29,28,5,-7,-14
-2,-14,-11,8,3,-12,14,28,27,4,-6,-12
-2,-12,-10,7,3,-11,13,26,26,4,-6,-11
-2,-11,-9,6,3,-10,12,23,24,4,-5,-10
-2,-10,-8,6,3,-9,11,20,23,4,-5,-10
-2,-8,-6,5,2,-7,10,17,21,4,-4,-9
-1,-7,-4,4,1,-6,9,15,19,3,-4,-8
-1,-6,-2,4,0,-5,8,13,17,3,-4,-8
-1,-5,-2,3,0,-4,7,11,16,2,-4,-7
-1,-5,-2,3,0,-3,6,10,14,1,-4,-6
-1,-4,-2,3,0,-3,6,9,13,0,-4,-6
-1,-4,-2,3,0,-2,6,8,12,0,-5,-6
-1,-4,-1,3,0,-2,5,7,11,-1,-5,-6
-1,-3,-1,3,-1,-2,5,5,10,-1,-5,-6
-1,-3,0,2,-1,-1,5,4,9,-1,-5,-6
-1,-2,0,2,-1,-1,4,3,8,-1,-5,-6
-1,-2,1,2,-1,0,4,2,7,-2,-5,-6
-1,-2,1,2,-1,0,3,1,7,-2,-5,-6
-1,-2,1,2,-1,0,3,1,6,-2,-5,-6
-1,-2,1,2,-1,0,3,1,6,-2,-5,-6
-1,-2,1,2,-1,0,3,0,6,-2,-5,-6
-1,-2,1,2,-1,0,3,0,5,-3,-5,-6
-1,-2,1,2,-1,0,3,0,5,-3,-5,-6
-1,-2,1,2,-1,0,3,-1,4,-3,-5,-6
-1,-1,2,2,-1,0,2,-1,4,-3,-5,-6
-1,-1,2,2,-2,0,2,-1,3,-3,-5,-6
-1,-1,2,2,-2,0,2,-1,3,-3,-6,-6
-2,-1,2,2,-2,0,2,-1,3,-3,-6,-6
-2,-1,2,2,-2,0,2,-1,3,-3,-6,-6
-2,-1,2,2,-2,0,2,-2,3,-3,-6,-6
-2,-1,2,2,-2,0,2,-2,3,-3,-6,-6
-2,-1,2,2,-2,0,2,-2,3,-3,-6,-6
-2,-1,2,2,-2,0,2,-2,3,-3,-6,-6
-2,-1,2,2,-2,0,2,-2,3,-3,-6,-6
-2,-1,2,2,-2,0,2,-2,3,-3,-6,-6
-2,-1,2,2,-2,0,2,-2,3,-3,-6,-6
-2,-1,2,2,-2,0,1,-2,3,-3,-6,-6
-2,-1,2,2,-2,0,1,-2,2,-3,-6,-6
-2,-1,2,2,-2,0,1,-2,2,-3,-6,-6
-2,-1,2,2,-2,0,1,-2,2,-3,-6,-6
-2,-1,2,2,-2,1,1,-2,2,-3,-6,-6
-2,0,2,2,-2,1,1,-2,2,-4,-6,-5
-2,0,2,2,-2,1,1,-2,2,-4,-6,-5
-2,0,2,1,-2,1,1,-2,2,-4,-6,-5
-2,0,2,1,-2,1,1,-2,2,-4,-6,-5
-2,0,2,1,-2,1,1,-2,2,-4,-6,-5
-2,0,2,1,-2,1,1,-2,2,-4,-6,-5
-2,0,2,1,-2,1,1,-2,2,-4,-6,-5
-2,0,2,1,-2,1,1,-2,2,-4,-6,-5
-2,0,2,1,-2,1,1,-2,2,-4,-6,-5
-2,0,2,1,-2,1,1,-2,2,-4,-6,-5
-2,0,2,1,-2,1,1,-2,2,-4,-6,-5
-2,0,2,1,-2,1,1,-2,2,-4,-6,-5
-2,0,2,1,-2,1,1,-2,2,-4,-6,-5
-2,0,2,1,-2,1,1,-2,2,-4,-6,-5
-2,0,2,1,-2,1,1,-2,2,-4,-6,-5
-2,0,2,1,-2,1,1,-2,2,-4,-6,-5
-2,-1,2,1,-2,1,1,-2,2,-4,-6,-5
-2,-1,2,1,-2,1,1,-2,2,-4,-6,-5
-2,-1,2,1,-2,1,1,-2,2,-4,-6,-5
-2,-1,2,1,-2,1,1,-2,2,-4,-6,-5
-2,-1,2,1,-2,1,1,-2,2,-4,-7,-5
-2,-1,2,1,-2,1,1,-2,2,-4,-7,-5
-1,-1,2,1,-2,1,1,-2,2,-4,-7,-5
-1,-1,2,1,-2,1,1,-2,2,-4,-7,-5
-1,-1,2,1,-2,1,1,-2,2,-4,-7,-5
-1,-1,2,1,-2,0,1,-2,2,-4,-7,-5
-1,-1,2,1,-2,0,1,-2,2,-4,-7,-5
-1,-1,1,1,-2,0,1,-2,2,-4,-7,-5
-1,-1,1,1,-2,0,1,-2,2,-4,-7,-5
-1,-1,1,1,-2,0,1,-2,2,-4,-7,-5
0,-1,1,1,-1,0,1,-2,2,-4,-6,-5
0,-1,1,1,-1,0,1,-2,2,-4,-6,-5
0,-1,1,1,-1,0,1,-1,2,-4,-6,-5
0,-1,1,1,-1,0,1,-1,2,-4,-6,-5
0,-1,1,1,0,0,1,-1,2,-4,-6,-5
0,-1,1,1,0,0,1,-1,2,-4,-6,-5
0,-1,1,1,0,0,1,-1,2,-4,-6,-5
0,-1,0,1,0,0,1,-1,2,-4,-6,-5
0,-1,0,1,0,0,1,-1,2,-4,-6,-5
0,-1,0,1,0,0,0,-1,2,-4,-6,-5
0,-1,0,1,0,0,0,-1,2,-5,-6,-5
1,-1,0,0,0,0,0,-1,1,-5,-6,-5
1,-1,0,0,1,0,0,-1,1,-5,-6,-5
1,-1,-1,0,1,0,0,-1,1,-4,-6,-5
2,-1,-1,0,2,0,0,-2,1,-4,-6,-5
2,-1,-1,0,2,0,-1,-2,1,-4,-6,-5
2,-1,-1,0,2,0,-1,-2,1,-4,-6,-5
3,-1,-2,-1,2,0,-1,-2,0,-4,-6,-5
3,-1,-2,-1,2,-1,-1,-2,0,-5,-6,-5
3,0,-2,-1,2,-1,-2,-2,0,-5,-6,-5
4,0,-2,-1,3,-1,-2,-3,-1,-5,-6,-5
4,0,-2,-1,3,-1,-2,-3,-1,-5,-6,-5
4,0,-2,-1,3,-1,-2,-4,-2,-6,-6,-5
4,0,-3,-1,4,-1,-3,-4,-2,-6,-7,-5
4,0,-3,-1,4,-2,-3,-5,-2,-7,-7,-5
5,0,-4,-1,4,-2,-3,-5,-3,-7,-7,-5
5,-1,-4,-1,4,-2,-3,-6,-3,-8,-7,-5
5,-1,-4,-1,4,-2,-3,-6,-4,-8,-7,-5
5,-1,-5,-1,4,-2,-3,-7,-4,-8,-7,-5
5,-1,-5,-1,4,-2,-3,-7,-5,-8,-7,-5
5,-1,-5,-1,4,-2,-3,-7,-5,-8,-7,-5
5,-1,-5,-1,4,-2,-4,-8,-6,-8,-7,-5
5,-1,-5,-1,4,-2,-4,-8,-6,-9,-7,-5
5,-1,-5,-1,4,-2,-4,-9,-6,-9,-7,-5
5,-1,-5,-1,4,-2,-4,-9,-7,-10,-8,-5
5,-1,-5,-1,4,-2,-4,-9,-7,-10,-8,-5
5,-1,-5,-1,4,-2,-4,-9,-8,-10,-8,-5
5,-1,-5,-1,4,-2,-4,-9,-8,-11,-8,-5
5,-1,-5,-1,5,-3,-4,-9,-8,-11,-9,-5
5,-1,-5,-1,5,-3,-4,-9,-8,-11,-9,-6
5,-2,-5,-1,5,-3,-4,-9,-8,-11,-9,-6
4,-2,-5,-1,5,-3,-4,-9,-8,-11,-9,-6
4,-2,-5,-1,4,-3,-4,-9,-8,-11,-9,-6
4,-2,-5,-1,4,-3,-4,-9,-8,-11,-9,-6
4,-2,-5,-1,4,-3,-3,-9,-8,-11,-9,-6
4,-2,-5,-1,4,-3,-3,-9,-8,-11,-9,-6
4,-2,-5,0,4,-3,-3,-9,-8,-11,-9,-6
3,-2,-4,0,4,-3,-3,-9,-8,-11,-9,-6
3,-2,-4,0,4,-3,-3,-9,-8,-11,-9,-6
3,-2,-4,0,3,-3,-3,-8,-8,-10,-9,-6
2,-2,-3,0,3,-3,-3,-8,-7,-10,-9,-6
2,-2,-3,0,2,-3,-2,-8,-7,-10,-9,-5
2,-2,-2,0,2,-2,-2,-8,-6,-9,-9,-5
1,-2,-2,0,1,-2,-2,-7,-6,-9,-8,-5
1,-2,-1,0,1,-1,-2,-7,-6,-9,-8,-5
0,-2,-1,0,1,-1,-2,-6,-5,-9,-8,-5
0,-2,-1,0,1,-1,-1,-6,-5,-8,-8,-5
0,-2,-1,0,0,0,-1,-5,-4,-8,-7,-5
0,-2,0,0,0,0,-1,-5,-4,-7,-7,-5
0,-2,0,0,0,0,-1,-5,-3,-7,-7,-5
0,-2,0,0,0,0,-1,-4,-3,-6,-7,-5
0,-2,0,1,0,0,0,-4,-2,-6,-7,-5
-1,-2,0,1,-1,0,0,-4,-2,-5,-6,-5
-1,-2,1,1,-1,0,0,-4,-1,-5,-6,-5
-1,-1,1,1,-1,0,0,-3,-1,-4,-6,-4
-1,-1,1,1,-1,0,0,-3,0,-4,-5,-4
-1,-1,1,1,-1,0,0,-2,0,-4,-5,-4
-1,-1,1,1,-1,0,0,-2,0,-3,-5,-4
-1,-1,1,1,-1,1,0,-2,0,-3,-4,-4
-2,-1,2,1,-2,1,0,-2,0,-2,-4,-3
-2,-1,2,1,-2,1,0,-1,1,-2,-4,-3
-2,-1,3,1,-2,1,0,-1,1,-2,-4,-3
-3,-1,3,1,-2,1,1,-1,1,-2,-4,-3
-3,-1,3,1,-3,1,1,-1,1,-1,-4,-3
-3,-1,3,1,-3,1,1,-1,1,-1,-4,-3
-3,-1,3,1,-3,1,1,-1,1,-1,-4,-3
-3,-1,3,1,-3,1,1,-1,2,-1,-4,-3
-3,0,3,1,-3,1,1,-1,2,-1,-4,-3
-3,0,3,1,-3,1,1,-1,2,-1,-3,-3
-3,0,3,1,-3,1,1,-1,2,-1,-3,-3
-3,0,3,1,-3,1,1,-1,2,-1,-3,-3
-3,0,3,1,-3,2,1,-1,3,0,-3,-3
-3,0,3,1,-3,2,1,-1,3,0,-2,-3
-3,0,4,2,-4,2,1,0,3,0,-2,-2
-4,0,4,2,-4,2,2,0,3,0,-2,-2
-4,0,5,2,-4,2,2,0,3,0,-2,-2
-4,0,5,2,-4,2,2,0,3,0,-2,-2
-4,0,5,2,-4,2,2,0,3,1,-2,-2
-4,0,5,2,-4,2,2,0,3,1,-2,-2
-4,0,5,2,-5,2,2,0,3,1,-2,-2
-4,0,5,2,-5,2,2,0,3,1,-2,-2
-4,0,5,2,-5,2,2,0,3,1,-1,-2
-4,0,5,2,-5,2,2,0,3,1,-1,-2
-4,0,5,2,-5,2,2,0,3,1,-1,-2
-4,0,5,2,-5,2,2,0,3,1,-1,-2
-4,0,5,2,-5,2,2,0,3,1,-1,-2
-4,0,5,2,-5,2,2,0,4,1,-1,-2
-4,0,5,2,-5,2,2,0,4,1,-1,-2
-4,0,5,2,-5,2,2,0,4,1,-1,-2
-4,0,5,2,-5,2,2,0,4,1,0,-2
-4,0,5,2,-5,2,2,0,4,1,0,-2
-4,0,5,2,-5,2,2,0,4,1,0,-2
-4,0,5,2,-5,2,3,0,4,1,0,-2
-4,0,5,2,-5,2,3,0,4,1,0,-2
-4,0,5,3,-5,2,3,0,4,1,0,-2
-4,0,5,3,-5,2,3,0,4,1,0,-2
-4,0,5,3,-5,2,3,1,4,1,0,-2
-4,0,5,3,-5,2,3,1,4,1,0,-2
-4,0,5,3,-5,2,3,1,4,1,0,-2
-5,0,5,3,-5,2,3,1,4,1,0,-2
-5,0,5,3,-5,3,3,1,4,1,0,-2
-4,0,5,3,-5,3,3,1,4,1,0,-2
-4,0,5,3,-5,3,3,1,5,1,0,-2
-4,0,5,3,-5,3,3,1,5,2,0,-2
-4,0,5,3,-5,3,3,1,5,2,0,-1
-4,0,5,3,-5,3,3,1,5,2,1,-1
-4,0,5,3,-5,3,3,1,5,2,1,-1
-4,0,5,3,-5,3,3,2,5,2,1,-1
-4,0,5,3,-5,3,3,2,5,2,1,-1
-4,0,5,3,-5,3,3,2,5,2,1,-1
-4,0,5,3,-5,3,3,2,5,2,1,-1
-4,0,5,3,-5,3,3,2,5,2,1,-1
-4,0,5,3,-5,3,3,2,5,2,1,-1
-4,0,5,3,-5,3,4,2,5,2,1,-1
-4,0,5,3,-5,3,4,2,5,2,1,-1
-5,0,5,3,-5,3,4,3,6,2,1,-1
-5,0,5,3,-5,3,4,3,6,2,1,-1
-5,0,5,3,-5,3,4,3,6,2,1,-1
-5,0,5,3,-5,3,4,3,6,2,1,-1
-4,0,5,3,-5,3,4,3,6,3,1,-1
-4,0,5,3,-5,3,4,3,6,3,1,-1
-4,0,5,3,-5,3,4,3,6,3,1,-1
-4,0,5,3,-5,3,4,3,6,3,1,-1
-4,0,5,3,-4,3,4,3,6,3,2,-1
-4,0,5,3,-4,3,4,3,6,3,2,-1
-4,0,5,3,-4,3,4,3,6,3,2,-1
-4,0,5,3,-4,2,4,3,6,3,2,-1
-4,0,5,3,-4,2,4,3,6,3,2,-1
-4,0,5,3,-4,2,4,3,6,3,2,-1
-4,0,5,3,-4,2,4,3,7,3,2,0
-4,0,5,3,-4,2,4,3,7,3,2,0
-4,0,4,3,-4,2,4,3,7,3,2,0
-4,0,4,3,-4,2,4,3,7,3,2,-1
-4,-1,4,3,-4,2,4,3,7,3,2,-1
-4,-1,4,3,-4,2,4,3,7,3,2,-1
-4,-1,4,3,-4,2,4,3,7,3,2,-1
-4,-1,4,3,-4,2,4,3,7,3,2,-1
-4,-1,4,3,-4,2,4,3,7,3,2,-1
-4,-1,4,3,-4,2,3,3,7,3,2,-1
-4,-1,4,3,-4,2,3,3,7,3,2,-1
-4,-1,4,3,-4,2,3,3,7,3,2,-1
-4,-1,4,3,-4,2,3,3,7,3,2,-1
-4,-1,4,3,-4,2,3,4,7,3,2,-1
-4,-1,4,3,-4,2,3,4,7,3,2,-1
-4,-1,4,2,-3,2,3,4,7,3,2,-1
-3,-1,4,2,-3,1,3,4,7,3,2,-1
-3,-1,4,2,-3,1,3,4,7,3,2,-1
-3,-1,4,2,-3,1,3,4,7,3,2,-1
-3,-1,4,2,-3,1,3,4,7,3,2,-1
-3,-1,4,2,-3,1,3,4,7,3,2,-1
-3,-1,4,2,-3,1,3,4,7,3,2,-1
-3,-1,4,2,-3,1,3,4,7,3,2,-1
-3,-1,4,2,-3,1,3,4,7,3,2,-1
-3,-1,3,2,-3,1,3,4,7,3,2,-1
-3,-1,3,2,-2,1,3,4,7,3,2,0
-3,-1,3,2,-2,1,3,4,7,3,2,0
-3,-1,3,2,-2,1,3,4,7,3,2,0
-3,-1,3,2,-2,1,3,4,7,3,2,0
-3,-1,3,2,-2,1,3,4,7,3,2,0
-3,-1,3,2,-2,1,3,4,7,3,2,0
-2,-1,3,2,-2,1,3,4,7,3,2,0
-2,-1,3,2,-2,1,3,4,7,3,2,0
-2,-1,3,2,-2,1,3,4,7,3,2,0
-2,-1,3,2,-2,1,3,4,7,3,2,0
-2,-1,3,2,-2,1,3,4,7,3,2,0
-2,-1,3,1,-2,1,3,4,7,3,2,0
-2,-1,3,1,-2,1,3,4,7,3,2,0
-2,-1,3,1,-2,1,3,4,7,3,2,0
-2,-1,3,1,-2,1,3,4,7,3,2,0
-2,-1,2,1,-2,0,3,4,6,3,2,0
-2,-1,2,1,-2,0,3,4,6,3,2,0
-1,0,2,1,-2,0,3,4,6,3,2,0
-1,0,2,1,-2,0,2,4,6,3,2,0
-1,0,2,1,-1,0,2,4,6,3,2,0
-1,0,2,1,-1,0,2,4,6,3,2,0
-1,0,2,1,-1,0,2,3,5,3,2,0
-1,-1,2,1,-1,0,2,3,5,2,2,0
-1,-1,2,1,-1,0,2,3,5,2,2,0
-1,-1,2,1,-1,0,2,3,5,2,2,0
-1,-1,2,1,-1,0,2,3,5,2,2,0
-1,-1,2,1,-1,0,2,3,5,2,2,0
-1,-1,2,1,-1,0,2,3,5,2,2,0
-1,-1,2,1,-1,0,2,3,5,2,2,0
-1,-1,2,1,-1,0,2,3,5,2,2,0
-1,-1,2,1,-1,0,2,3,5,2,2,0
-1,-1,2,1,-1,0,2,2,5,2,2,0
-1,-1,2,1,-1,0,2,2,4,2,1,0
-1,-1,2,1,-1,0,2,2,4,2,1,0
-1,-1,2,1,-1,0,2,2,4,2,1,0
-1,-1,2,1,-1,0,2,2,4,2,1,0
-1,-1,2,1,-1,0,2,2,4,2,1,0
-1,-1,2,1,-1,0,2,2,4,2,2,0
-1,-1,2,1,-1,0,2,1,4,2,2,0
-1,-1,2,1,-1,0,2,1,4,2,2,0
-1,-1,2,1,-1,0,2,1,4,2,2,0
-1,-1,2,1,-1,0,2,1,4,2,2,0
-1,-1,2,1,-1,0,2,1,4,2,2,0
-1,-1,2,1,-1,0,2,1,4,2,2,0
-1,-1,2,1,-1,0,2,1,4,1,2,0
-1,-1,2,1,-1,0,2,1,4,1,2,0
-1,-1,2,1,-1,0,2,1,4,1,2,0
-1,-1,2,1,-1,0,2,1,4,1,2,0
-1,-1,2,1,-1,0,2,1,4,1,2,0
-1,-1,2,1,-1,0,2,1,4,1,2,0
-1,-1,2,1,-1,0,2,1,4,1,2,0
-1,-1,2,1,-1,0,2,1,4,1,2,0
-1,-1,2,1,-1,0,2,1,4,1,2,0
-1,-1,2,1,-1,0,2,1,4,1,2,0
-1,-1,2,1,-1,0,2,1,4,1,2,0
-1,-1,2,1,-1,0,2,1,4,1,2,0
-1,-1,2,1,-1,0,2,1,4,1,2,0
-1,-1,2,1,-1,0,2,1,4,1,2,0
-2,-1,2,1,-1,0,2,1,4,1,2,0
-2,-1,2,1,-2,1,2,1,4,1,2,0
-2,-1,2,1,-2,1,2,1,4,1,2,0
-2,-1,2,1,-2,1,2,1,4,1,2,0
-2,-1,2,1,-2,1,2,1,4,1,2,0
-2,-1,2,1,-2,1,2,1,4,1,2,0
-2,-1,2,1,-2,1,2,1,4,1,2,0
-2,-1,2,1,-2,0,2,1,4,1,2,0
-2,-1,2,1,-2,0,2,1,4,1,2,0
-2,-1,2,1,-2,0,2,1,4,1,1,0
-2,-1,2,1,-2,0,2,1,4,1,1,0
-2,-1,2,1,-2,0,2,1,4,1,1,0
-2,-1,2,1,-2,0,2,1,3,1,1,0
-2,-1,2,1,-2,0,2,1,3,1,1,0
-2,-1,2,1,-2,0,2,1,3,1,1,0
-1,-1,2,1,-2,0,2,1,3,1,1,0
-1,-1,2,1,-2,0,2,1,3,1,1,0
-1,-1,2,1,-2,0,2,1,3,1,1,0
-1,-1,2,1,-2,0,2,1,3,1,1,0
-1,-1,2,1,-2,0,2,1,3,1,1,0
-1,-1,2,1,-2,0,2,1,3,0,1,0
-1,-1,2,1,-2,0,2,1,3,0,1,0
-1,-1,2,1,-2,0,2,1,3,0,1,0
-1,-1,2,1,-2,0,2,1,3,0,1,0
-1,-1,2,1,-2,0,3,1,3,0,1,0
-1,-1,2,1,-2,0,3,1,3,0,1,0
-1,-1,2,1,-2,0,3,1,3,0,1,0
-1,-1,2,1,-2,0,3,1,3,0,1,0
-1,-1,2,1,-2,0,3,1,3,0,1,0
-1,-1,2,1,-2,0,3,1,3,0,1,0
-1,-1,2,1,-2,0,3,1,3,0,1,0
-1,-1,2,1,-2,0,3,1,3,0,1,0
-1,-1,2,1,-2,0,3,1,3,0,1,0
-1,-1,2,1,-2,0,3,1,3,0,1,0
-2,-1,2,2,-2,0,3,1,3,0,1,0
-2,-1,2,2,-2,0,3,1,3,0,1,0
-2,-1,2,2,-2,0,3,1,3,0,1,0
-2,-1,2,2,-2,0,3,1,3,0,1,0
-2,-1,3,2,-2,0,3,1,3,0,1,0
-2,-1,3,2,-2,0,3,1,3,0,1,0
-2,0,3,2,-2,0,3,1,3,0,1,0
-1,0,3,1,-2,0,3,1,3,0,1,0
-1,0,3,1,-2,0,3,1,3,0,1,0
-1,-1,3,1,-2,0,3,1,3,0,1,0
-1,-1,3,1,-1,1,3,1,3,0,1,0
-1,-1,3,1,-1,1,3,1,3,0,1,0
-1,-1,3,1,-2,1,3,1,3,0,1,0
-1,-1,3,1,-2,1,3,1,3,0,1,0
-1,-1,3,1,-2,1,3,1,3,0,1,0
-1,-1,3,1,-2,1,3,1,3,0,1,0
-1,-1,3,1,-2,1,3,1,3,0,1,0
-1,-1,3,1,-2,1,3,1,3,0,1,0
-1,-1,3,1,-2,1,3,1,3,0,1,0
-1,-1,3,1,-2,1,3,1,3,0,1,0
-1,-1,2,1,-2,1,3,1,3,0,1,0
-1,-1,2,1,-2,1,3,1,3,0,1,0
-1,-1,2,1,-2,1,3,1,3,0,1,-1
-1,-1,2,1,-2,1,3,1,3,0,1,-1
-1,-1,2,1,-2,1,3,1,2,0,1,-1
-1,-1,2,1,-2,1,3,1,2,0,1,-1
-1,-1,2,1,-2,1,3,1,2,0,1,-1
-1,-1,2,1,-2,1,3,1,2,0,1,-1
-1,-1,2,1,-2,1,3,1,2,0,1,-1
-1,0,3,1,-2,1,3,1,2,0,1,-1
-1,0,3,1,-2,1,3,1,2,0,1,-1
-1,0,3,1,-2,1,4,1,3,0,1,-1
-1,0,3,1,-2,1,4,2,3,0,2,-1
-1,1,3,1,-2,1,4,2,3,0,2,-1
-1,1,3,1,-2,2,4,2,3,0,2,0
-1,1,3,0,-2,2,4,2,3,1,2,0
-1,1,3,0,-2,2,4,2,4,1,2,0
-1,2,3,0,-2,2,4,2,4,1,2,0
-1,2,3,0,-2,2,4,2,4,1,3,0
-1,2,3,0,-2,2,4,3,4,1,3,0
0,2,3,0,-2,3,4,3,4,1,3,1
0,2,3,-1,-2,3,4,4,5,1,4,1
0,3,3,-1,-2,3,4,4,5,1,4,1
0,3,4,-1,-2,3,4,4,5,2,4,1
0,3,4,-1,-2,4,4,4,6,2,4,1
0,4,4,-1,-1,4,5,5,6,3,4,1
1,4,4,-2,-1,4,5,5,6,3,5,1
1,4,4,-2,-1,4,6,5,7,3,5,2
1,4,4,-2,-1,4,6,6,7,3,5,2
1,4,4,-2,-1,4,6,6,7,3,5,2
1,4,4,-2,-1,4,6,6,7,3,5,2
1,4,4,-2,-1,4,6,7,7,4,6,2
1,4,4,-2,-1,4,6,7,7,4,6,2
1,4,4,-2,-1,4,6,7,7,4,6,2
1,4,4,-2,-1,4,6,7,8,5,6,2
1,4,4,-2,-1,4,6,8,8,5,6,2
1,4,4,-2,-1,4,6,8,8,5,6,2
1,4,4,-2,-1,4,5,8,8,5,6,2
1,4,4,-2,-1,4,5,8,8,5,7,2
1,4,4,-2,-1,4,5,8,8,5,7,2
1,4,4,-2,-1,4,5,7,8,5,7,2
1,4,4,-2,-1,4,4,7,8,5,7,2
1,4,4,-2,-1,4,4,6,8,5,7,2
1,4,4,-2,-1,3,3,5,7,4,7,2
1,3,4,-2,-1,3,3,4,6,4,7,2
1,3,4,-2,-1,3,3,4,6,3,6,2
1,3,4,-2,-1,3,3,3,5,3,6,2
1,3,4,-2,-1,3,3,3,5,3,6,2
1,3,4,-2,0,3,3,3,5,3,6,2
1,3,4,-2,0,3,2,3,5,3,5,2
1,4,4,-2,0,3,1,2,5,3,5,2
2,4,4,-2,0,3,1,2,5,3,5,2
3,5,4,-3,0,4,0,2,5,3,5,2
4,5,3,-3,1,4,0,1,5,3,6,2
4,5,3,-4,1,4,0,1,5,2,6,2
4,5,2,-4,1,4,-1,0,4,2,6,2
5,5,2,-4,1,4,-1,0,4,2,6,2
5,5,2,-5,1,4,-1,0,4,2,6,2
5,5,2,-5,2,4,-2,0,4,2,6,2
5,5,2,-5,2,3,-2,0,4,2,6,2
6,5,2,-5,2,3,-2,0,4,3,6,3
6,6,2,-6,3,3,-2,1,4,3,7,4
7,6,1,-6,3,3,-2,1,5,4,7,4
8,6,1,-6,4,3,-2,2,5,4,8,5
8,7,1,-7,4,3,-1,2,6,4,8,5
8,7,0,-7,5,3,-1,2,6,4,8,5
8,7,0,-7,5,3,0,2,6,4,8,5
8,7,0,-7,5,2,0,2,6,4,8,5
8,7,0,-7,5,2,0,2,6,4,8,5
8,6,0,-7,4,2,0,3,6,4,8,5
7,6,0,-6,3,2,1,3,6,4,8,5
7,6,1,-6,3,2,1,3,6,4,8,5
6,5,1,-5,3,2,1,3,6,4,8,5
5,5,1,-5,2,2,2,3,6,4,8,5
5,4,1,-4,2,2,2,3,6,4,8,5
4,4,1,-4,2,2,3,3,6,4,7,4
4,3,0,-3,2,1,3,3,6,4,7,3
3,2,0,-2,1,1,3,3,6,3,6,2
2,1,0,-1,1,0,3,3,5,3,6,2
1,0,0,0,0,0,4,3,5,2,5,1
0,-1,0,1,0,0,4,2,4,1,4,1
0,-1,1,1,0,0,4,2,4,0,4,0
-1,-1,1,1,0,0,4,1,3,0,3,0
-1,-2,1,1,-1,0,5,1,3,0,3,0
-1,-2,1,2,-1,-1,5,1,3,-1,3,0
-2,-3,1,2,-1,-1,5,1,3,-1,2,-1
-2,-3,1,3,-1,-1,5,1,3,-1,2,-1
-2,-3,1,3,-1,-1,5,1,3,-1,2,-1
-2,-3,0,3,-1,-1,5,1,2,-1,2,-2
-2,-3,0,3,-1,-1,5,1,2,-1,2,-2
-2,-3,0,3,-1,-1,5,1,2,-1,2,-1
-2,-3,0,3,-1,-1,5,1,2,-1,2,-1
-2,-3,0,3,-1,-1,5,1,2,-1,2,-1
-2,-3,0,3,-1,-1,5,1,2,-1,2,-1
-2,-3,0,3,-1,-1,5,1,2,-1,2,-1
-2,-3,0,3,-1,-1,5,1,2,-1,2,-1
-2,-3,0,3,-1,-1,5,1,2,-1,2,-1
-2,-3,0,3,-1,-1,5,1,2,-1,2,-1
-2,-3,0,3,-1,-1,5,1,2,-2,2,-1
-2,-3,0,3,-1,-1,5,1,2,-2,2,-1
-3,-3,0,3,-1,-2,5,1,2,-2,2,-2
-3,-4,0,4,-1,-2,6,1,2,-2,2,-2
-3,-4,0,4,-1,-2,6,1,2,-2,2,-2
-3,-4,0,4,-1,-2,6,1,2,-2,2,-2
-3,-4,0,4,-2,-2,6,1,2,-2,1,-2
-3,-4,0,4,-2,-2,6,1,2,-2,1,-2
-3,-4,0,4,-2,-2,6,1,2,-2,1,-2
-3,-4,0,4,-2,-2,6,1,2,-2,1,-2
-3,-4,0,4,-2,-2,6,1,2,-2,1,-2
-3,-4,0,4,-1,-3,6,1,2,-2,1,-2
-3,-4,0,4,-1,-3,6,1,2,-2,1,-2
-3,-4,0,4,-1,-3,6,1,2,-2,1,-2
-3,-4,0,4,-1,-3,6,1,2,-2,1,-2
-3,-4,0,4,-1,-3,6,1,2,-2,1,-2
-3,-4,0,4,-1,-3,6,1,2,-2,1,-2
-3,-4,0,4,-1,-3,6,1,2,-2,1,-2
-3,-5,0,4,-1,-3,6,1,2,-2,1,-2
-3,-5,0,4,-1,-3,6,1,2,-3,1,-2
-3,-5,0,4,-1,-3,6,2,2,-3,1,-2
-3,-5,0,4,-1,-3,6,2,2,-3,1,-2
-3,-5,0,4,-1,-3,6,2,2,-3,1,-2
-3,-5,0,4,-1,-3,6,2,2,-3,1,-2
-3,-5,0,4,-1,-3,6,2,2,-3,1,-2
-3,-5,0,3,-1,-3,6,2,2,-3,1,-2
-3,-5,-1,3,-1,-3,6,2,2,-3,1,-2
-3,-5,-1,4,-1,-4,6,2,2,-3,1,-2
-3,-6,-2,4,0,-5,6,3,2,-3,0,-3
-2,-7,-4,4,0,-6,7,5,2,-3,0,-4
-2,-8,-5,5,1,-8,7,6,2,-3,0,-5
-1,-10,-8,5,3,-10,7,7,2,-4,-2,-6
0,-11,-11,5,5,-12,7,8,2,-4,-3,-8
2,-13,-14,5,8,-14,7,8,2,-5,-4,-9
5,-14,-19,5,12,-17,5,8,2,-5,-5,-10
9,-15,-24,3,16,-20,3,10,4,-4,-4,-10
14,-16,-29,1,21,-23,0,13,8,-1,-1,-9
20,-16,-35,-2,27,-26,-3,15,11,3,3,-7
28,-15,-42,-6,35,-29,-9,14,13,7,8,-5
38,-14,-50,-12,44,-33,-15,13,14,13,14,-1
50,-12,-61,-19,55,-37,-23,13,17,20,22,5
65,-9,-72,-28,68,-41,-31,11,19,27,31,12
81,-5,-84,-38,83,-45,-41,4,19,35,42,21
98,0,-97,-49,98,-49,-52,-9,17,42,52,30
115,5,-108,-59,112,-53,-64,-26,11,48,63,39
130,10,-118,-70,125,-55,-75,-45,2,52,73,48
143,15,-126,-79,136,-56,-86,-65,-9,55,82,56
153,22,-129,-87,142,-54,-95,-85,-22,57,91,66
156,32,-122,-94,140,-45,-102,-106,-32,62,103,80
151,46,-104,-99,128,-30,-106,-126,-41,69,117,96
137,61,-75,-99,106,-8,-107,-146,-49,74,129,112
118,76,-40,-97,79,17,-106,-165,-59,73,135,125
96,89,-5,-92,51,41,-103,-182,-72,67,136,135
74,98,26,-86,24,61,-99,-196,-84,59,132,139
52,98,48,-75,2,72,-90,-201,-96,45,118,131
32,89,58,-61,-12,73,-78,-197,-105,27,94,110
15,76,62,-46,-23,68,-65,-188,-111,9,69,86
2,67,66,-35,-31,65,-54,-179,-114,-3,50,68
-8,61,71,-26,-39,64,-46,-168,-114,-12,38,56
-16,56,75,-20,-45,64,-40,-157,-112,-19,29,48
-22,54,78,-15,-49,64,-36,-147,-110,-25,21,42
-26,52,79,-13,-52,64,-33,-137,-106,-30,15,36
-28,50,79,-11,-53,63,-30,-126,-100,-34,9,31
-29,47,78,-9,-52,61,-25,-113,-93,-37,3,25
-30,42,74,-7,-51,57,-21,-99,-85,-39,-3,19
-29,37,68,-4,-48,51,-16,-85,-77,-41,-9,12
-29,31,61,-1,-44,45,-12,-72,-69,-42,-15,4
-28,25,54,1,-40,38,-9,-60,-61,-43,-21,-2
-26,20,47,3,-36,32,-6,-51,-55,-43,-24,-7
-25,16,42,4,-33,27,-4,-43,-49,-43,-26,-11
-25,12,38,6,-31,23,-3,-37,-43,-41,-27,-14
-25,9,36,7,-30,21,-1,-32,-39,-39,-27,-16
-25,7,34,8,-28,19,1,-26,-34,-37,-27,-17
-25,5,32,9,-28,17,3,-21,-29,-34,-27,-17
-25,4,30,10,-27,16,6,-17,-25,-31,-26,-18
-25,2,29,11,-27,14,8,-12,-21,-29,-25,-18
-25,1,27,11,-26,13,9,-8,-17,-26,-24,-18
-25,0,26,12,-25,11,10,-5,-13,-24,-22,-18
-25,-1,24,12,-24,9,11,-2,-10,-22,-21,-18
-24,-3,22,13,-23,8,12,1,-7,-20,-20,-18
-23,-4,20,13,-21,6,13,4,-4,-17,-19,-18
-22,-6,18,13,-20,5,15,7,-1,-15,-18,-18
-22,-7,17,13,-19,4,16,10,1,-13,-17,-17
-22,-7,16,14,-18,3,17,13,4,-11,-15,-17
-21,-7,15,14,-18,2,18,15,6,-9,-14,-16
-21,-7,15,14,-18,2,18,16,7,-8,-13,-16
-21,-7,15,14,-18,2,18,17,8,-7,-12,-15
-21,-7,15,14,-18,2,18,17,9,-7,-11,-15
-21,-7,15,14,-18,2,18,18,10,-6,-11,-15
-21,-7,16,13,-18,3,18,18,10,-6,-11,-14
-21,-7,16,13,-18,3,18,19,11,-5,-11,-14
-20,-7,16,13,-17,3,19,20,12,-5,-11,-14
-20,-7,16,13,-17,3,19,20,13,-4,-11,-14
-20,-7,15,13,-17,3,19,21,13,-4,-10,-14
-20,-7,15,13,-17,3,19,21,13,-4,-10,-14
-20,-7,15,13,-17,3,19,21,13,-4,-10,-14
-20,-6,15,13,-17,3,19,21,13,-4,-10,-14
-20,-6,15,13,-17,3,19,21,13,-4,-10,-14
-20,-6,15,13,-17,3,19,21,14,-4,-10,-14
-20,-6,15,13,-17,3,19,21,14,-3,-9,-14
-20,-6,16,13,-18,3,19,21,15,-3,-9,-14
-20,-6,16,13,-18,3,20,21,15,-3,-9,-14
-20,-6,16,13,-18,4,20,22,16,-2,-9,-14
-20,-6,16,13,-18,4,20,22,16,-2,-9,-14
-20,-6,17,13,-18,4,20,22,16,-2,-9,-14
-20,-6,17,13,-18,4,20,22,16,-2,-9,-14
-20,-6,17,13,-18,4,20,22,16,-2,-9,-14
-21,-6,17,13,-18,4,20,22,16,-2,-9,-14
-21,-6,17,13,-18,4,20,22,16,-2,-9,-14
-21,-6,17,13,-18,4,20,22,16,-2,-8,-14
-21,-6,17,13,-19,4,20,23,17,-2,-8,-14
-21,-6,17,13,-19,4,20,23,17,-1,-8,-14
-21,-6,17,13,-19,4,20,23,17,-1,-8,-14
-21,-6,17,13,-19,4,21,23,17,-1,-8,-14
-21,-6,17,13,-19,4,21,23,17,-1,-8,-14
-21,-6,17,13,-19,4,21,23,18,-1,-8,-14
-21,-6,17,13,-19,4,21,24,18,-1,-8,-14
-21,-6,17,13,-19,4,21,24,18,-1,-8,-14
-21,-6,17,13,-19,4,21,24,18,0,-8,-14
-21,-6,17,13,-20,4,21,24,18,0,-7,-14
-22,-6,18,13,-20,5,21,24,18,0,-7,-14
-22,-6,18,13,-20,5,21,24,18,0,-7,-14
-22,-6,18,13,-20,5,21,24,18,0,-7,-14
-22,-6,18,13,-20,5,21,24,19,0,-7,-14
-22,-6,18,13,-20,5,21,24,19,0,-7,-14
-22,-5,18,14,-20,5,21,24,19,0,-7,-14
-23,-5,18,14,-20,5,21,24,19,0,-7,-14
-23,-5,18,14,-20,5,21,24,19,0,-7,-14
-23,-5,19,14,-20,5,22,24,19,1,-7,-13
-23,-5,19,14,-20,5,22,24,20,1,-7,-13
-23,-5,19,14,-20,5,22,25,20,1,-7,-13
-23,-5,19,14,-20,5,22,25,20,1,-7,-13
-23,-5,19,14,-21,5,22,25,20,1,-7,-13
-23,-5,19,14,-21,5,22,25,20,1,-7,-13
-23,-5,19,14,-21,5,22,25,21,1,-6,-13
-23,-5,19,14,-21,6,22,25,21,1,-6,-13
-23,-5,19,14,-21,6,22,25,21,1,-6,-13
-23,-5,19,13,-21,6,22,25,21,1,-6,-13
-22,-5,19,13,-21,6,22,25,21,2,-6,-13
-22,-5,19,13,-21,6,23,26,22,2,-6,-13
-22,-5,19,13,-21,6,23,26,22,2,-6,-13
-22,-5,19,13,-21,6,23,26,22,2,-6,-13
-22,-5,19,13,-21,6,23,26,22,2,-6,-13
-22,-5,19,14,-21,6,23,26,22,2,-6,-13
-22,-5,19,14,-21,6,23,27,22,2,-6,-13
-22,-5,19,13,-21,6,23,27,23,2,-6,-13
-22,-5,19,13,-21,6,23,27,23,2,-6,-13
-22,-4,19,13,-21,6,23,27,23,2,-6,-13
-22,-4,19,13,-21,6,22,27,23,3,-6,-13
-22,-4,19,13,-21,6,22,27,23,3,-6,-13
-22,-4,19,13,-21,6,22,27,23,3,-5,-13
-22,-4,19,13,-21,6,22,28,23,4,-5,-13
-21,-4,19,13,-20,7,22,28,24,4,-4,-13
-21,-4,18,12,-20,7,22,28,24,4,-4,-13
-21,-4,18,12,-20,7,22,28,24,4,-4,-13
-20,-4,18,12,-20,7,22,29,24,4,-4,-13
-20,-4,18,12,-20,7,22,29,25,4,-4,-13
-20,-4,18,12,-19,6,22,29,25,4,-4,-13
-19,-4,17,12,-19,6,22,29,25,5,-4,-13
-19,-4,17,11,-18,6,22,29,25,5,-4,-13
-18,-4,16,11,-18,6,22,29,25,5,-4,-12
-18,-4,16,11,-18,6,21,29,25,5,-4,-12
-18,-4,15,10,-17,6,21,29,25,5,-4,-12
-17,-3,15,10,-17,6,20,30,25,5,-4,-12
-17,-3,15,10,-16,6,20,30,25,5,-4,-12
-16,-3,14,10,-16,5,20,30,25,5,-4,-12
-16,-3,14,9,-15,4,20,30,25,5,-3,-12
-15,-3,13,9,-15,4,19,30,25,5,-3,-12
-14,-3,12,8,-14,4,19,30,25,5,-3,-12
-13,-3,12,8,-13,4,19,30,25,5,-2,-12
-12,-3,11,7,-12,4,18,30,24,5,-2,-12
-11,-3,11,7,-11,4,18,30,24,5,-2,-12
-10,-3,10,7,-10,3,17,29,23,5,-2,-12
-10,-3,9,6,-9,3,17,29,23,5,-2,-12
-9,-2,8,6,-9,2,16,28,22,5,-2,-12
-8,-2,7,5,-8,2,16,28,22,5,-2,-12
-7,-2,6,5,-7,1,15,27,21,4,-2,-11
-6,-2,5,5,-6,0,14,26,20,4,-2,-11
-5,-3,4,4,-5,0,14,25,19,3,-3,-11
-4,-3,3,4,-4,0,13,25,18,3,-3,-11
-3,-3,2,3,-3,-1,12,24,17,3,-3,-11
-2,-2,1,3,-2,-1,11,23,16,2,-3,-11
-1,-2,1,2,-1,-1,11,22,15,2,-4,-11
0,-2,0,2,0,-2,10,21,14,1,-4,-11
0,-2,-1,1,0,-2,10,19,13,0,-4,-11
1,-2,-2,1,1,-2,9,18,12,-1,-4,-11
1,-2,-3,1,2,-2,9,17,10,-2,-5,-11
2,-2,-4,1,2,-3,8,16,9,-3,-5,-11
2,-2,-4,1,3,-3,7,15,8,-3,-6,-11
3,-2,-5,0,4,-4,6,14,7,-4,-6,-11
4,-2,-6,0,4,-5,5,13,6,-5,-7,-11
5,-3,-7,0,5,-6,5,12,4,-6,-7,-11
6,-3,-8,0,6,-6,4,11,3,-7,-7,-11
7,-3,-9,0,7,-7,4,10,2,-8,-8,-11
7,-3,-9,-1,8,-7,3,9,1,-9,-8,-12
8,-3,-10,-1,8,-7,3,8,0,-9,-8,-12
8,-4,-10,-1,9,-8,2,7,0,-10,-9,-12
9,-4,-11,-1,9,-8,2,6,-1,-10,-9,-12
9,-4,-12,-1,10,-9,2,5,-2,-11,-9,-12
9,-5,-13,-1,10,-9,1,5,-4,-12,-9,-12
10,-5,-14,-1,11,-10,1,4,-5,-13,-10,-12
10,-5,-14,-1,11,-10,1,3,-6,-14,-10,-12
11,-5,-15,-2,12,-10,1,2,-7,-14,-11,-13
11,-5,-15,-2,12,-10,0,2,-7,-15,-11,-13
11,-5,-15,-2,12,-10,0,1,-8,-15,-11,-13
11,-5,-16,-2,12,-11,0,1,-8,-15,-11,-13
11,-5,-16,-3,13,-11,0,0,-8,-16,-12,-13
11,-5,-16,-3,13,-11,0,0,-9,-16,-12,-13
12,-5,-16,-3,13,-11,0,0,-9,-16,-12,-13
12,-5,-16,-3,13,-11,0,-1,-9,-16,-12,-12
12,-5,-16,-3,13,-11,0,-1,-9,-16,-11,-12
12,-5,-16,-3,13,-11,0,-1,-9,-16,-11,-11
12,-5,-16,-3,13,-11,0,-1,-9,-16,-11,-11
12,-5,-15,-3,13,-11,0,-2,-9,-15,-11,-10
12,-5,-15,-3,13,-10,0,-2,-9,-15,-11,-10
12,-5,-15,-3,13,-10,0,-2,-9,-15,-10,-10
11,-6,-15,-2,13,-10,0,-2,-9,-15,-10,-10
11,-6,-15,-2,13,-10,0,-2,-9,-15,-9,-9
11,-6,-15,-2,13,-10,0,-2,-9,-15,-9,-9
10,-6,-14,-2,12,-10,0,-2,-9,-14,-9,-9
10,-6,-14,-1,11,-10,0,-2,-8,-13,-8,-8
9,-6,-13,-1,11,-9,0,-2,-8,-12,-8,-8
9,-5,-13,-1,10,-9,0,-2,-7,-12,-7,-8
9,-5,-12,-1,10,-9,0,-2,-7,-11,-7,-8
9,-5,-12,-1,9,-9,0,-2,-6,-11,-6,-7
8,-4,-11,-1,9,-8,1,-2,-6,-10,-5,-7
8,-4,-10,-1,9,-8,1,-2,-5,-10,-5,-6
7,-3,-10,-2,9,-7,1,-2,-5,-9,-4,-6
7,-3,-9,-2,9,-7,1,-2,-4,-9,-4,-6
7,-3,-9,-1,8,-7,1,-1,-4,-8,-3,-6
7,-3,-9,-1,8,-6,1,-1,-3,-8,-3,-5
7,-3,-8,-1,7,-6,1,-1,-3,-7,-3,-5
7,-3,-8,-1,7,-6,2,-1,-3,-7,-2,-5
7,-3,-8,-1,7,-6,2,-1,-3,-6,-2,-5
6,-3,-8,-1,7,-6,2,-1,-2,-6,-1,-5
6,-3,-8,-1,7,-6,2,0,-2,-6,-1,-4
5,-3,-7,-1,6,-6,2,0,-1,-5,-1,-4
5,-3,-7,-1,6,-6,2,0,-1,-5,-1,-4
4,-3,-7,0,6,-6,2,0,-1,-5,-1,-4
4,-3,-7,0,6,-6,2,0,-1,-5,0,-4
4,-3,-7,0,6,-6,3,0,-1,-5,0,-4
4,-3,-6,0,5,-6,3,0,-1,-5,0,-4
4,-3,-6,0,5,-6,3,0,0,-5,0,-4
4,-3,-6,0,5,-6,3,0,0,-5,0,-4
4,-3,-6,0,5,-6,3,0,0,-5,0,-4
4,-2,-5,0,5,-5,3,0,0,-4,0,-4
4,-2,-5,0,5,-5,3,1,0,-4,0,-4
4,-2,-5,0,5,-5,3,1,0,-4,0,-4
4,-2,-5,0,5,-5,3,1,0,-4,0,-4
4,-2,-5,0,5,-4,3,1,0,-4,0,-3
4,-2,-5,0,5,-4,3,1,0,-4,0,-3
4,-2,-5,0,5,-4,3,1,0,-4,0,-3
4,-2,-5,0,5,-5,3,1,0,-3,0,-3
4,-2,-5,0,5,-5,3,1,0,-3,0,-3
4,-2,-5,0,5,-5,3,1,0,-3,0,-3
4,-2,-5,0,5,-5,3,1,0,-3,0,-3
4,-2,-5,0,5,-5,3,1,0,-3,0,-3
4,-2,-5,0,5,-5,3,1,0,-3,0,-3
4,-2,-5,0,5,-5,3,1,0,-3,0,-3
4,-2,-5,0,5,-5,4,1,0,-3,0,-3
3,-2,-5,0,5,-5,4,1,0,-3,0,-3
3,-2,-5,0,5,-5,4,1,0,-3,0,-3
3,-2,-5,0,4,-4,4,2,0,-3,0,-2
3,-2,-4,0,4,-4,4,2,0,-3,0,-2
3,-2,-4,0,4,-4,4,2,0,-3,0,-2
3,-2,-4,0,4,-4,4,2,0,-3,0,-3
3,-2,-4,0,4,-3,4,2,0,-3,0,-3
3,-2,-4,0,4,-3,4,2,0,-3,0,-3
3,-2,-4,0,4,-3,4,2,0,-3,0,-2
3,-2,-4,0,4,-3,4,3,0,-3,0,-2
3,-2,-4,0,4,-3,4,3,0,-3,0,-2
3,-2,-4,0,4,-3,4,3,0,-3,1,-2
3,-2,-4,0,4,-4,5,3,0,-3,1,-2
3,-2,-4,0,4,-4,5,3,0,-3,1,-2
3,-2,-4,0,4,-4,5,3,0,-3,1,-2
3,-2,-4,0,4,-4,5,3,0,-3,1,-2
3,-2,-4,0,3,-4,5,3,0,-3,1,-2
3,-2,-4,0,3,-4,5,3,0,-3,1,-2
2,-2,-4,0,3,-4,5,3,0,-3,1,-2
2,-2,-4,0,3,-3,6,3,0,-3,1,-2
2,-2,-4,0,3,-3,6,4,1,-2,1,-2
3,-2,-4,0,3,-3,6,4,1,-2,1,-2
3,-2,-4,0,3,-3,6,4,2,-2,1,-2
3,-2,-4,0,3,-3,6,4,2,-2,1,-2
3,-2,-4,0,3,-4,6,4,2,-2,2,-2
3,-2,-4,0,3,-4,6,4,2,-2,2,-2
3,-2,-4,0,3,-4,6,4,2,-2,2,-2
3,-2,-4,0,3,-4,6,4,2,-2,2,-2
2,-2,-4,0,3,-4,5,4,2,-2,2,-2
2,-2,-4,0,3,-4,5,4,2,-2,2,-2
2,-1,-4,0,3,-4,4,4,2,-2,2,-2
2,-1,-4,0,3,-4,4,4,2,-2,2,-2
2,-1,-4,0,3,-4,4,4,2,-2,2,-2
2,-1,-4,0,3,-3,4,4,2,-2,2,-2
3,-1,-4,0,3,-3,4,4,2,-2,2,-2
3,-1,-4,0,3,-3,4,4,2,-2,2,-2
3,-1,-4,-1,3,-3,4,5,2,-1,2,-2
3,-1,-4,-1,3,-3,4,5,3,-1,2,-2
3,-1,-4,-1,3,-3,4,5,3,-1,2,-2
3,-1,-4,-1,3,-3,4,5,3,-1,2,-2
3,-1,-4,-1,3,-3,4,5,3,-1,2,-1
3,-1,-4,-1,3,-3,3,5,3,-1,2,-1
3,-1,-4,-1,3,-3,3,5,3,-1,2,-1
3,-1,-4,-1,4,-3,3,5,3,-1,2,-1
3,-1,-4,-1,4,-3,3,5,3,-1,2,-1
3,-1,-5,-1,4,-3,3,5,3,-1,2,-1
3,-1,-5,0,4,-3,3,5,3,-1,2,-1
3,-1,-5,0,4,-3,3,5,3,-1,2,-1
3,-1,-5,0,4,-3,3,5,3,-1,2,-1
3,-1,-5,0,4,-3,3,5,3,-1,2,-2
3,-1,-5,0,3,-3,3,5,3,-1,2,-2
3,-2,-5,0,3,-3,3,5,3,-1,2,-2
3,-1,-5,0,3,-3,2,6,3,-1,2,-2
3,-1,-5,-1,3,-3,2,6,3,-1,2,-2
3,-1,-5,-1,3,-3,1,6,3,-1,2,-2
3,-1,-5,-1,3,-3,1,6,3,-1,2,-2
3,-1,-5,-1,3,-3,1,6,3,-1,2,-1
3,-1,-5,-1,3,-3,1,6,3,-1,2,-1
3,-1,-5,-1,4,-3,1,6,3,-1,2,-1
3,-1,-5,-1,4,-3,1,6,3,-1,2,-1
3,-1,-5,-1,4,-3,1,6,3,-1,2,-1
3,-1,-5,-1,4,-3,1,6,3,-1,2,-1
3,-1,-5,-1,4,-3,1,6,3,-1,2,-1
3,-1,-5,-1,4,-3,1,6,3,-1,2,-1
3,-1,-5,-1,4,-3,1,6,3,-1,2,-1
4,-1,-6,-1,4,-3,1,6,3,-1,2,-1
4,-1,-6,-1,4,-3,1,6,3,-1,2,-1
4,-1,-6,-1,4,-3,1,6,3,-1,2,-1
4,-1,-6,-1,4,-3,1,6,3,-1,3,-1
4,-1,-6,-1,5,-3,1,6,3,-1,3,0
4,-1,-6,-1,5,-3,1,6,3,-1,3,0
4,-1,-6,-2,5,-3,1,6,3,-1,3,0
4,-1,-6,-2,5,-3,1,6,3,-1,3,0
4,-1,-6,-2,5,-3,1,6,2,-1,3,0
4,-1,-6,-2,5,-3,1,6,2,-1,3,0
4,-1,-6,-2,5,-3,1,6,2,-1,3,0
4,-1,-6,-2,5,-3,1,6,2,-1,3,0
4,-1,-6,-2,5,-4,1,6,2,-1,2,0
4,-1,-6,-2,5,-4,1,6,2,-1,2,0
4,-1,-6,-2,5,-4,1,6,2,-1,2,0
4,-1,-6,-2,5,-4,1,6,2,-1,2,0
4,-1,-6,-2,5,-4,1,6,2,-1,2,0
4,-1,-6,-2,5,-4,1,6,2,-1,2,0
4,-1,-6,-2,5,-4,1,6,2,-1,2,0
4,-1,-6,-2,5,-4,1,5,2,-1,2,0
4,-1,-6,-2,5,-4,1,5,2,-1,2,0
4,-1,-6,-2,5,-4,1,5,2,-1,2,0
4,-1,-6,-2,5,-3,1,5,2,-1,2,0
4,-1,-6,-2,5,-3,1,5,2,-1,2,0
4,-1,-6,-2,5,-3,1,5,2,-1,2,0
4,-1,-6,-2,5,-3,1,4,2,-1,2,0
4,-1,-6,-2,5,-3,1,4,2,-1,2,0
4,-1,-6,-2,5,-3,1,4,2,-1,2,0
4,-1,-6,-2,5,-3,1,4,2,-1,2,0
4,-1,-6,-2,5,-3,1,4,1,-1,2,0
4,-1,-6,-2,5,-3,1,4,1,-1,2,0
4,-1,-6,-2,5,-3,1,4,1,-1,2,-1
4,-1,-6,-2,5,-3,1,4,1,-1,2,-1
4,-1,-6,-1,5,-3,1,4,1,-1,2,-1
4,-1,-6,-1,5,-3,1,4,1,-2,1,-1
3,-1,-6,-1,5,-3,1,3,1,-2,1,-1
3,-1,-6,-1,5,-3,1,3,1,-2,1,-1
4,-1,-5,-1,5,-3,1,3,1,-2,1,-1
4,-1,-5,-1,5,-3,1,3,1,-2,1,-1
4,-1,-5,-1,5,-3,1,3,1,-2,1,-1
4,-1,-5,-1,5,-3,1,3,1,-2,1,-1
4,-1,-5,-1,5,-3,1,3,1,-1,1,0
4,-2,-5,-1,5,-3,1,3,1,-1,2,0
4,-2,-5,-1,5,-3,1,3,1,-1,2,0
4,-2,-5,-1,5,-3,1,3,1,-1,2,0
4,-2,-5,-1,5,-3,1,3,1,-1,2,0
4,-2,-5,-1,5,-3,1,3,1,-1,2,0
4,-2,-5,-1,4,-3,1,3,1,-1,2,0
4,-2,-5,-1,4,-3,1,3,1,-1,2,0
4,-2,-5,-1,4,-3,1,3,1,-1,2,0
4,-2,-5,-1,4,-3,1,3,1,-1,1,0
3,-2,-5,-1,4,-3,1,2,1,-1,1,0
3,-2,-5,-1,4,-3,1,2,1,-1,1,0
3,-2,-5,-1,4,-3,1,2,1,-1,1,0
3,-2,-5,-1,4,-3,1,2,1,-1,1,0
3,-2,-5,-1,4,-3,1,2,1,-1,1,0
3,-2,-5,-1,4,-3,1,2,1,-1,1,0
3,-2,-5,-1,4,-3,1,2,1,-1,1,0
3,-2,-5,-1,4,-3,1,2,1,-1,1,0
3,-1,-5,-1,4,-3,1,2,1,-1,1,0
3,-1,-5,-1,4,-3,1,2,1,-1,1,0
3,-1,-5,-1,4,-3,1,2,1,-1,1,0
3,-1,-5,-1,4,-3,1,2,1,-1,1,0
3,-1,-5,-1,4,-3,1,2,1,-1,1,0
3,-1,-5,-1,3,-3,1,2,1,-1,1,0
3,-1,-4,-1,3,-2,1,2,0,-1,1,0
3,-1,-4,-1,3,-2,1,2,0,-1,1,0
3,-1,-4,-1,3,-2,1,2,0,-1,1,0
3,-1,-4,-1,3,-2,1,2,0,-1,1,0
3,-1,-4,0,3,-2,1,2,0,-1,1,0
3,-1,-4,0,3,-2,1,2,0,-1,1,0
3,-1,-4,0,3,-2,1,2,0,-1,1,0
3,-1,-4,-1,3,-2,1,2,0,-1,1,0
3,-1,-4,-1,3,-2,1,2,0,-1,1,0
3,-1,-4,-1,3,-2,1,2,0,-1,1,0
3,-1,-4,-1,3,-2,1,2,0,-1,0,0
3,-1,-4,-1,3,-2,1,2,0,-1,0,0
3,-1,-4,-1,3,-2,1,2,0,-2,0,0
3,-1,-4,-1,3,-2,1,2,0,-2,0,0
3,-1,-4,-1,3,-2,1,2,0,-2,0,0
3,-1,-4,-1,3,-2,1,2,0,-2,0,0
3,-1,-4,-1,3,-2,1,2,0,-2,0,0
3,-1,-4,-1,3,-2,1,2,0,-2,0,0
3,-1,-4,-1,3,-2,1,1,0,-2,1,0
3,-1,-4,-1,3,-2,1,1,0,-2,1,0
3,-1,-4,-1,3,-2,1,1,0,-2,1,0
3,-1,-4,-1,3,-2,1,1,0,-2,1,0
3,-1,-4,-1,3,-2,1,1,0,-2,1,0
3,-1,-4,-1,3,-2,1,1,0,-2,1,0
3,-1,-4,-1,3,-2,1,1,0,-2,0,0
3,-1,-4,-1,3,-2,1,1,0,-2,0,0
3,-1,-4,-1,3,-2,1,1,0,-2,0,0
3,-1,-4,-1,3,-2,1,1,0,-2,0,0
2,-2,-4,0,3,-2,1,1,0,-2,0,0
2,-2,-4,0,3,-2,1,1,0,-2,0,0
2,-2,-4,0,3,-2,1,1,0,-2,0,0
2,-2,-4,0,3,-2,1,1,0,-2,0,0
2,-1,-3,0,2,-2,1,1,0,-2,0,0
2,-1,-3,-1,2,-1,1,1,0,-2,0,0
3,0,-3,-1,3,-1,1,1,0,-2,0,0
3,0,-3,-1,3,-1,1,1,0,-2,0,0
3,0,-3,-1,3,-1,1,1,0,-2,0,0
3,0,-3,-1,3,-1,1,1,0,-2,0,0
3,0,-3,-1,3,-1,1,1,0,-1,0,0
3,0,-3,-1,3,-1,1,1,0,-1,0,0
3,-1,-3,-1,3,-1,1,1,0,-1,0,0
3,-1,-3,-1,3,-1,1,1,0,-1,0,0
3,-1,-3,-1,3,-1,1,1,0,-1,0,0
3,0,-3,-1,3,-1,1,1,0,-1,0,0
3,0,-2,-1,3,-1,2,2,0,-1,1,1
3,0,-2,-2,3,-1,2,2,0,-1,1,1
3,1,-1,-2,3,0,2,2,0,-1,1,1
3,1,-1,-2,3,0,2,2,1,0,1,1
3,1,-1,-2,2,0,2,2,1,0,1,1
3,2,-1,-2,2,0,2,2,2,0,1,1
4,2,-1,-3,2,0,2,3,2,0,1,1
4,2,-1,-3,2,0,2,3,2,0,2,1
4,2,-1,-3,3,0,2,3,2,0,2,2
4,2,-1,-3,3,0,3,3,2,1,3,2
4,2,-1,-3,3,0,3,4,3,1,3,2
4,2,-1,-3,3,0,3,4,3,2,3,2
4,2,-1,-3,3,0,3,5,4,2,3,2
4,2,-1,-3,3,0,3,5,4,2,3,2
4,2,-1,-3,3,0,3,5,4,2,3,2
4,3,-1,-3,3,0,3,5,5,2,4,2
4,3,-1,-4,3,1,3,6,5,2,4,3
4,4,0,-4,3,1,4,6,5,3,4,3
5,4,0,-5,3,2,4,7,5,3,5,3
5,5,0,-5,3,2,4,7,6,4,5,3
5,5,0,-5,3,2,4,8,6,4,5,3
5,5,0,-5,3,2,4,8,6,4,5,4
5,5,0,-5,3,2,4,8,7,4,5,4
5,5,0,-5,3,2,4,8,7,5,5,5
5,4,0,-5,3,2,4,8,7,5,5,5
5,4,0,-5,3,2,4,8,7,5,5,5
5,3,-1,-5,3,1,3,8,7,5,5,5
5,3,-1,-5,3,1,3,8,7,5,5,5
5,3,-1,-5,3,1,2,8,7,5,5,5
5,3,-1,-5,3,0,2,7,7,5,5,4
5,3,-1,-4,3,0,2,6,6,4,5,4
5,3,-1,-4,3,0,2,5,5,4,4,3
5,2,-1,-4,3,0,2,4,5,3,4,3
5,2,-1,-4,3,0,1,3,4,3,4,2
5,2,-1,-4,3,0,1,3,4,3,4,2
5,3,-1,-4,3,0,1,3,4,3,4,3
5,3,-1,-4,3,0,0,3,4,3,4,3
6,3,-1,-5,3,0,0,2,3,2,4,3
6,4,-1,-5,3,1,0,2,3,2,4,3
7,5,-1,-6,3,1,-1,1,3,2,4,3
7,5,-1,-7,4,2,-2,0,3,2,4,4
7,6,-1,-7,4,2,-3,0,2,2,4,4
7,6,-1,-7,4,2,-3,0,2,2,4,4
7,6,-1,-7,4,2,-3,0,2,2,4,4
7,6,-1,-7,5,2,-3,0,2,2,4,4
7,6,-1,-7,5,2,-3,0,2,2,4,4
8,6,-2,-7,5,2,-4,0,2,2,4,4
8,6,-2,-7,5,2,-4,0,2,3,4,5
9,6,-3,-8,6,2,-4,0,3,3,4,5
10,7,-3,-8,6,2,-4,1,3,4,5,6
11,7,-3,-9,6,2,-3,1,4,4,6,6
11,7,-3,-9,6,2,-3,2,4,5,6,6
11,7,-3,-9,7,2,-3,2,5,5,6,6
11,7,-3,-9,7,2,-2,2,5,6,6,6
11,7,-3,-9,7,1,-2,2,5,6,6,6
11,7,-4,-9,7,1,-1,2,5,5,6,6
11,6,-4,-9,7,1,-1,2,5,5,6,6
10,6,-4,-9,7,1,0,2,5,5,6,6
9,6,-3,-8,7,1,0,2,5,5,6,6
9,6,-3,-7,6,1,0,2,5,5,6,6
8,6,-2,-7,6,1,0,3,5,5,6,6
8,5,-2,-6,6,1,0,3,5,5,6,6
7,4,-3,-6,5,0,1,3,5,5,6,6
7,3,-3,-5,5,0,1,3,5,4,5,5
6,2,-4,-4,5,0,2,3,4,4,5,5
5,1,-4,-3,4,-1,2,3,4,4,4,4
4,0,-4,-2,4,-1,3,3,4,3,4,4
3,-1,-4,-1,3,-2,3,2,3,2,3,3
3,-1,-4,0,3,-3,3,2,2,1,2,2
2,-2,-4,0,2,-4,3,1,2,1,1,1
2,-2,-3,0,2,-4,4,1,2,0,0,1
1,-2,-3,0,2,-3,4,1,2,0,0,1
1,-2,-3,1,2,-3,4,1,2,0,0,1
1,-3,-3,1,2,-3,4,1,1,0,0,0
1,-3,-4,1,2,-3,4,1,1,0,0,0
1,-3,-4,1,2,-3,4,1,1,0,0,0
1,-3,-4,1,2,-3,4,1,1,0,0,0
0,-3,-4,1,2,-3,4,0,1,0,0,-1
0,-3,-4,2,2,-3,4,0,0,0,0,-1
0,-3,-4,2,2,-3,4,0,0,0,0,-1
0,-3,-4,2,1,-3,4,0,0,0,0,-1
0,-3,-3,2,1,-3,4,0,0,0,0,-1
0,-3,-3,2,1,-3,4,1,0,0,0,-1
0,-4,-4,2,1,-3,4,1,0,0,0,-1
0,-4,-4,2,1,-3,4,1,0,0,0,-1
0,-4,-4,2,1,-3,4,1,0,0,0,-1
0,-5,-4,3,1,-4,4,1,0,0,0,-1
0,-5,-4,3,1,-4,4,1,0,0,0,-1
0,-5,-4,3,1,-4,4,1,1,0,-1,-1
0,-5,-4,3,1,-4,4,1,1,0,-1,-1
0,-5,-4,3,1,-4,4,1,1,0,-1,-1
0,-5,-4,3,1,-4,4,1,0,0,-1,-1
0,-5,-4,2,1,-4,4,1,0,0,-1,-1
0,-4,-4,2,1,-4,4,1,0,0,-1,-1
0,-4,-4,2,1,-4,4,1,0,0,-1,-1
0,-4,-4,2,1,-4,4,1,0,0,-1,-1
0,-4,-4,2,1,-4,4,1,0,-1,-1,-1
0,-5,-4,3,1,-4,4,1,0,-1,-2,-1
0,-5,-4,3,1,-5,4,1,0,-1,-2,-1
0,-6,-4,3,1,-5,5,1,0,-1,-2,-1
0,-6,-4,3,1,-5,5,1,0,-1,-2,-1
0,-6,-4,3,1,-5,5,1,0,-1,-2,-1
0,-6,-4,3,2,-6,5,1,0,-1,-2,-1
0,-6,-5,3,2,-6,5,1,0,-1,-2,-1
0,-6,-5,3,2,-6,5,1,0,-1,-2,-1
0,-6,-5,3,2,-5,5,1,0,-1,-2,-1
0,-6,-4,3,2,-5,5,1,0,-1,-2,-1
0,-6,-4,3,2,-5,5,1,0,-1,-2,-1
0,-6,-4,3,2,-5,5,1,0,-1,-2,-1
0,-6,-5,3,2,-5,5,1,0,-1,-2,-1
0,-6,-5,3,2,-5,5,1,0,-1,-3,-1
0,-6,-5,3,2,-6,5,1,0,-1,-3,-2
0,-7,-6,4,2,-6,6,2,0,-2,-4,-2
0,-8,-7,4,3,-7,6,3,0,-2,-5,-3
0,-9,-8,5,4,-9,6,5,0,-2,-5,-4
0,-11,-11,5,5,-11,6,6,1,-2,-5,-5
1,-13,-14,5,8,-14,6,7,1,-2,-5,-6
3,-15,-18,5,10,-17,6,7,1,-3,-6,-7
5,-17,-22,4,14,-20,5,7,1,-3,-6,-8
9,-18,-27,3,18,-22,3,7,2,-2,-5,-7
13,-18,-31,2,22,-25,0,8,4,1,-2,-6
18,-18,-36,0,27,-27,-3,11,8,5,2,-4
25,-18,-42,-4,33,-29,-7,13,11,10,7,-1
34,-16,-49,-9,41,-32,-13,12,13,16,13,3
45,-14,-57,-16,51,-35,-21,11,16,23,22,10
59,-10,-68,-25,63,-39,-28,10,19,31,33,19
73,-6,-79,-34,76,-43,-37,6,20,40,45,28
88,-1,-89,-44,89,-45,-47,-3,19,48,58,39
103,4,-98,-54,101,-47,-58,-18,15,56,71,50
117,10,-105,-64,112,-47,-69,-36,8,62,83,62
129,17,-111,-73,120,-47,-79,-55,-2,67,94,74
138,24,-112,-81,125,-44,-87,-75,-14,71,106,86
142,34,-106,-88,124,-37,-94,-94,-24,76,119,100
137,47,-90,-92,113,-22,-98,-113,-33,83,132,116
125,61,-64,-93,94,-2,-98,-131,-41,87,143,130
107,76,-31,-92,69,22,-97,-149,-50,87,148,142
88,90,2,-89,43,46,-95,-167,-62,82,148,150
68,100,33,-84,17,67,-91,-180,-74,74,143,154
47,103,57,-75,-4,79,-84,-187,-84,62,128,146
28,95,68,-62,-19,81,-74,-187,-93,44,103,124
12,82,72,-48,-29,76,-62,-180,-101,24,75,96
-1,71,74,-35,-36,71,-50,-171,-106,8,51,73
-12,63,76,-26,-43,69,-41,-162,-108,-3,35,58
-20,58,79,-19,-48,68,-35,-152,-108,-12,24,47
-25,54,80,-15,-52,67,-32,-142,-107,-20,16,39
-28,52,81,-12,-54,66,-29,-134,-106,-27,9,33
-31,49,81,-10,-55,65,-27,-126,-103,-32,2,28
-32,47,80,-8,-55,63,-24,-117,-98,-37,-3,22
-33,43,78,-6,-54,60,-20,-106,-92,-40,-10,16
-32,39,73,-4,-52,55,-17,-94,-85,-43,-16,10
-31,33,65,-1,-47,48,-13,-82,-78,-45,-22,3
-30,26,56,1,-42,41,-10,-70,-70,-46,-28,-3
-28,20,48,3,-38,34,-7,-59,-63,-47,-32,-9
-27,14,41,5,-34,28,-4,-50,-56,-46,-35,-14
-26,9,36,7,-31,23,-2,-43,-50,-45,-36,-17
-26,5,32,9,-29,19,0,-37,-45,-43,-37,-20
-25,2,29,10,-27,16,2,-31,-40,-40,-37,-21
-25,0,27,11,-26,13,4,-25,-35,-37,-37,-22
-25,-1,25,12,-25,11,6,-20,-30,-34,-36,-23
-25,-2,24,13,-24,10,7,-15,-25,-31,-34,-23
-25,-2,22,13,-24,9,9,-11,-21,-29,-33,-23
-25,-4,21,14,-23,8,10,-8,-17,-26,-31,-23
-25,-6,19,14,-22,6,12,-4,-13,-24,-30,-23
-24,-7,18,15,-21,4,13,-1,-9,-21,-28,-22
-24,-9,16,16,-19,2,14,2,-6,-19,-27,-22
-23,-10,14,16,-18,0,15,5,-3,-17,-25,-21
-23,-11,12,16,-17,-1,16,8,0,-14,-24,-21
-22,-12,10,16,-16,-2,16,11,2,-12,-22,-20
-22,-12,9,16,-16,-2,17,13,5,-9,-21,-20
-21,-12,9,16,-15,-2,18,15,7,-8,-19,-19
-21,-12,8,16,-15,-2,18,16,8,-7,-18,-19
-21,-13,8,16,-15,-2,18,17,9,-6,-18,-18
-21,-13,9,16,-15,-2,18,17,10,-5,-17,-18
-21,-12,9,16,-16,-2,18,18,10,-5,-17,-18
-21,-12,10,16,-16,-1,18,18,11,-4,-17,-18
-21,-12,10,16,-16,-1,18,19,12,-4,-17,-17
-21,-11,10,15,-15,-1,18,19,13,-3,-16,-17
-21,-11,10,15,-15,-1,18,19,13,-3,-16,-17
-21,-11,10,15,-15,-1,18,20,14,-2,-15,-17
-21,-11,10,15,-15,-1,18,20,14,-2,-15,-17
-21,-11,10,15,-15,-1,18,20,14,-2,-14,-17
-21,-11,10,15,-15,-1,18,20,14,-2,-14,-17
-21,-11,10,15,-15,-1,18,20,14,-2,-15,-17
-21,-11,10,15,-15,-1,18,20,14,-2,-15,-17
-21,-11,10,15,-15,-1,19,20,15,-1,-15,-17
-21,-11,11,15,-15,0,19,21,15,-1,-14,-17
-21,-11,11,15,-16,0,19,21,15,-1,-14,-16
-21,-11,11,15,-16,0,19,21,15,0,-14,-16
-21,-10,11,15,-16,0,19,21,16,0,-14,-16
-21,-10,12,15,-17,0,20,22,16,0,-14,-16
-21,-9,12,15,-17,1,20,22,17,0,-13,-15
-21,-9,13,14,-17,1,20,23,17,0,-13,-15
-21,-8,13,14,-17,2,20,23,18,0,-13,-14
-21,-8,13,13,-17,2,20,23,18,0,-13,-14
-21,-8,13,13,-17,2,20,23,18,1,-12,-14
-21,-8,13,13,-17,2,20,23,19,1,-12,-14
-21,-8,13,13,-17,2,20,24,19,2,-12,-14
-21,-7,13,13,-17,2,20,24,20,2,-11,-14
-20,-7,13,13,-17,2,20,24,20,2,-11,-14
-20,-7,13,13,-16,2,20,25,20,3,-11,-14
-20,-7,13,13,-16,2,20,25,20,3,-11,-14
-20,-7,13,13,-16,2,21,26,21,3,-11,-14
-20,-7,13,13,-16,2,21,26,21,3,-11,-14
-20,-7,13,13,-16,2,22,26,22,3,-11,-14
-19,-6,13,12,-16,2,22,26,22,3,-11,-14
-19,-6,13,12,-16,2,22,26,22,3,-11,-14
-19,-5,14,12,-16,3,22,26,22,3,-11,-14
-19,-5,14,11,-16,4,21,25,22,3,-11,-14
-19,-4,15,11,-16,4,21,25,22,3,-11,-14
-18,-4,15,10,-16,5,20,25,22,3,-11,-14
-18,-3,15,10,-16,5,20,25,22,3,-10,-13
-17,-3,15,9,-16,5,20,25,22,4,-10,-13
-17,-3,15,9,-16,5,20,25,22,4,-10,-12
-16,-2,15,8,-15,5,21,26,23,5,-9,-12
-16,-2,15,8,-15,6,21,26,23,5,-9,-12
-16,-2,15,8,-15,6,21,27,24,6,-8,-12
-16,-1,15,7,-15,7,22,28,25,7,-8,-11
-15,0,15,7,-15,7,22,29,26,7,-7,-11
-15,0,15,7,-15,6,23,30,26,8,-7,-11
-15,0,15,7,-15,6,23,30,27,8,-7,-11
-15,0,15,7,-15,6,23,31,27,9,-7,-11
-15,0,15,7,-15,6,23,31,28,9,-6,-10
-15,0,15,7,-15,6,24,32,29,10,-6,-10
-15,0,15,7,-15,7,24,33,30,11,-5,-9
-15,0,15,7,-15,7,24,34,31,11,-5,-9
-15,0,15,7,-15,7,24,34,31,12,-4,-8
-15,0,15,7,-15,7,24,34,31,12,-4,-8
-16,0,16,8,-15,7,24,33,31,12,-5,-9
-18,-1,16,9,-17,7,25,32,30,11,-5,-9
-19,-3,17,10,-18,6,25,31,30,10,-6,-10
-20,-4,17,11,-18,6,25,31,29,10,-6,-10
-21,-4,17,12,-18,5,25,30,29,9,-7,-11
-21,-5,16,12,-18,4,25,30,28,9,-7,-11
-21,-5,16,13,-18,4,25,29,28,9,-7,-12
-21,-5,15,13,-18,4,25,29,28,9,-8,-13
-21,-5,15,13,-18,3,25,29,28,9,-8,-13
-21,-6,15,13,-18,3,24,29,27,8,-8,-13
-21,-6,14,13,-17,3,24,29,27,8,-8,-13
-21,-7,14,13,-17,2,24,29,27,7,-9,-13
-21,-7,13,14,-16,2,24,29,27,7,-9,-14
-21,-8,13,14,-16,1,24,29,27,7,-9,-14
-21,-8,12,14,-16,1,23,29,26,7,-9,-14
-20,-8,12,14,-16,1,23,29,26,7,-9,-14
-20,-8,12,14,-15,0,23,29,25,7,-9,-14
-19,-8,11,14,-15,0,23,29,25,7,-9,-14
-19,-9,11,14,-14,0,23,29,25,7,-9,-14
-18,-9,10,14,-14,0,23,29,25,7,-9,-14
-18,-9,9,13,-13,-1,22,29,25,7,-9,-14
-17,-9,8,13,-12,-1,22,29,24,7,-9,-14
-17,-9,7,13,-12,-2,22,29,24,7,-9,-14
-16,-9,7,13,-11,-2,22,28,24,7,-9,-14
-16,-9,7,12,-11,-2,22,28,24,6,-9,-14
-15,-9,7,12,-10,-2,21,27,23,6,-9,-14
-14,-9,7,11,-10,-2,21,27,23,6,-9,-14
-13,-9,6,11,-9,-2,20,27,23,6,-8,-14
-12,-9,5,10,-8,-3,20,27,22,6,-8,-14
-11,-8,4,10,-7,-3,19,27,22,5,-8,-14
-11,-8,3,9,-6,-3,19,26,21,5,-8,-14
-10,-8,2,9,-6,-4,18,25,20,5,-8,-14
-9,-8,1,9,-5,-4,18,24,19,5,-8,-13
-8,-8,0,9,-4,-5,17,23,18,5,-8,-13
-8,-8,0,8,-3,-5,16,23,17,4,-8,-13
-7,-8,0,8,-2,-5,15,22,16,3,-8,-13
-6,-9,-1,8,-1,-6,14,22,15,3,-8,-13
-5,-9,-2,7,0,-6,14,21,14,2,-8,-13
-4,-8,-3,6,0,-7,13,20,13,2,-8,-13
-3,-8,-4,5,1,-7,13,19,12,1,-8,-13
-3,-8,-5,5,1,-7,12,17,11,1,-9,-12
-2,-8,-5,4,2,-8,11,16,10,0,-9,-12
-1,-8,-6,4,3,-8,11,15,9,-1,-9,-12
0,-7,-6,3,3,-8,10,14,8,-2,-10,-12
0,-7,-7,3,4,-8,10,13,6,-3,-10,-12
0,-7,-8,3,4,-9,9,12,5,-4,-11,-12
1,-7,-9,3,5,-9,8,10,3,-5,-11,-12
1,-7,-10,3,6,-10,8,9,2,-6,-11,-12
2,-8,-10,2,6,-10,7,7,0,-7,-12,-12
3,-8,-11,2,7,-10,7,6,0,-8,-12,-12
4,-8,-11,1,8,-11,6,5,-2,-9,-13,-12
4,-8,-12,1,9,-11,6,4,-3,-10,-13,-12
5,-8,-13,1,10,-12,5,3,-4,-11,-14,-12
5,-8,-14,1,10,-12,5,2,-5,-12,-14,-12
6,-8,-15,1,11,-12,4,1,-6,-12,-14,-12
6,-8,-15,1,11,-13,4,0,-7,-13,-14,-12
7,-9,-16,1,11,-13,4,-1,-9,-14,-15,-12
7,-9,-16,1,12,-13,4,-1,-10,-15,-15,-12
7,-9,-16,0,12,-13,3,-2,-11,-16,-15,-12
7,-9,-16,0,12,-13,3,-3,-12,-17,-15,-12
7,-9,-16,0,13,-14,3,-3,-12,-17,-16,-12
7,-9,-17,0,13,-14,3,-4,-13,-18,-16,-12
8,-9,-17,0,13,-14,2,-4,-14,-18,-16,-12
8,-9,-17,0,13,-14,2,-5,-14,-19,-16,-12
8,-9,-17,0,13,-14,2,-5,-15,-19,-16,-12
8,-9,-17,0,13,-14,2,-6,-15,-19,-17,-12
8,-9,-17,0,13,-14,2,-6,-15,-19,-17,-12
8,-9,-17,0,13,-14,2,-6,-15,-19,-17,-12
8,-9,-17,0,13,-14,2,-6,-15,-19,-17,-11
8,-9,-17,0,13,-14,3,-6,-15,-19,-16,-11
8,-9,-17,1,13,-14,3,-6,-15,-19,-16,-11
8,-9,-17,1,13,-14,3,-6,-15,-19,-15,-11
8,-9,-17,0,13,-14,3,-6,-15,-18,-15,-10
8,-9,-17,0,13,-14,3,-6,-14,-18,-14,-10
8,-9,-16,0,12,-14,3,-7,-14,-17,-14,-9
8,-8,-16,0,12,-14,4,-7,-14,-17,-13,-9
8,-8,-15,0,12,-13,4,-7,-13,-16,-13,-8
7,-8,-15,0,12,-13,4,-7,-13,-16,-12,-8
7,-8,-14,0,11,-13,4,-6,-12,-15,-12,-8
6,-8,-14,0,11,-12,4,-6,-12,-15,-11,-7
6,-8,-13,0,10,-12,4,-6,-11,-14,-10,-7
5,-8,-13,1,9,-12,5,-6,-11,-14,-10,-7
5,-8,-12,1,9,-11,5,-6,-10,-13,-9,-7
5,-8,-11,1,8,-11,5,-5,-9,-12,-9,-6
4,-7,-11,1,8,-10,6,-5,-9,-12,-8,-6
4,-7,-10,1,7,-10,6,-4,-8,-11,-8,-6
4,-7,-10,1,7,-10,6,-4,-8,-11,-8,-6
3,-7,-10,1,7,-10,6,-4,-7,-10,-8,-5
3,-7,-10,1,7,-9,7,-4,-7,-10,-7,-5
2,-7,-10,2,7,-9,7,-3,-6,-9,-7,-5
2,-7,-9,2,6,-9,7,-3,-6,-9,-6,-5
2,-7,-9,2,6,-9,7,-3,-5,-8,-6,-5
3,-6,-8,2,6,-9,7,-2,-5,-8,-5,-4
3,-6,-8,2,6,-8,7,-2,-4,-7,-5,-4
2,-6,-8,2,6,-8,7,-2,-4,-7,-5,-4
2,-6,-8,2,6,-8,7,-2,-4,-6,-5,-4
2,-6,-8,2,5,-8,7,-2,-3,-6,-4,-4
2,-6,-8,2,5,-8,7,-2,-3,-5,-4,-4
2,-6,-7,2,5,-8,8,-2,-3,-5,-4,-4
2,-6,-7,2,5,-8,8,-2,-3,-5,-4,-4
2,-6,-7,2,5,-8,8,-1,-3,-5,-4,-4
2,-6,-7,2,5,-8,8,-1,-2,-5,-3,-4
2,-6,-7,2,5,-8,8,-1,-2,-5,-3,-4
2,-6,-7,2,5,-8,9,-1,-2,-5,-3,-4
2,-6,-7,2,5,-8,9,-1,-2,-5,-3,-4
2,-6,-7,2,5,-8,9,-1,-2,-5,-3,-4
1,-6,-7,2,5,-8,9,-1,-2,-5,-3,-4
1,-6,-7,2,5,-8,9,-1,-2,-5,-3,-4
1,-6,-7,2,5,-8,9,-1,-2,-5,-3,-4
1,-5,-7,2,5,-8,9,-1,-2,-5,-3,-4
1,-5,-6,2,4,-8,9,-1,-2,-5,-3,-4
1,-5,-6,2,4,-8,9,-1,-2,-4,-3,-4
1,-5,-6,2,4,-8,9,-1,-2,-4,-2,-4
1,-5,-6,2,4,-7,9,-1,-1,-3,-2,-4
1,-5,-6,2,4,-7,9,0,-1,-3,-2,-4
1,-5,-6,2,4,-7,9,0,-1,-3,-2,-4
1,-5,-6,2,4,-7,9,0,-1,-3,-2,-4
1,-5,-6,2,4,-7,9,0,-1,-3,-1,-4
1,-5,-6,2,4,-7,9,0,-1,-3,-1,-4
1,-5,-6,2,4,-6,9,0,-1,-3,-1,-4
1,-5,-5,2,4,-6,9,0,-1,-3,-1,-4
1,-5,-5,2,4,-6,9,0,-1,-3,-1,-4
1,-5,-5,2,4,-6,9,0,0,-3,-1,-4
1,-5,-5,2,4,-6,9,0,0,-3,-1,-4
1,-5,-5,2,4,-6,9,0,0,-3,-1,-4
1,-5,-5,2,4,-6,9,0,0,-3,-1,-3
1,-5,-5,2,4,-6,9,0,0,-3,-1,-3
1,-5,-5,2,4,-6,9,0,0,-3,-1,-3
1,-5,-5,2,4,-6,9,0,0,-3,-1,-3
2,-5,-5,1,4,-6,9,1,0,-3,-1,-3
2,-5,-5,1,4,-6,9,1,0,-2,-1,-3
2,-5,-5,1,4,-6,9,1,0,-2,0,-3
2,-5,-5,1,3,-6,9,1,0,-2,0,-3
2,-5,-5,1,3,-6,9,1,0,-2,0,-3
2,-5,-5,1,3,-6,9,1,0,-2,0,-3
1,-5,-5,1,3,-6,10,1,0,-2,0,-3
1,-5,-5,1,3,-6,10,1,0,-2,0,-3
1,-5,-5,1,3,-6,10,1,0,-2,0,-3
1,-5,-5,1,3,-6,10,2,0,-2,0,-3
1,-5,-5,1,3,-6,10,2,0,-2,0,-3
1,-5,-5,1,3,-6,10,2,0,-2,0,-3
1,-5,-5,1,3,-6,10,2,0,-2,0,-3
1,-5,-5,1,3,-6,10,2,0,-2,0,-3
2,-5,-5,1,4,-7,10,3,1,-2,0,-3
2,-5,-6,1,4,-8,10,4,1,-1,-1,-3
2,-6,-8,1,5,-9,11,6,2,-1,-1,-4
3,-7,-10,1,7,-10,11,7,3,-1,-1,-4
5,-9,-14,1,9,-13,11,8,4,-1,-1,-5
7,-11,-18,1,12,-16,11,9,4,-1,-2,-6
10,-13,-22,1,16,-19,9,9,4,0,-1,-7
14,-14,-27,0,20,-22,7,9,6,1,0,-7
19,-14,-32,-2,25,-24,5,10,9,5,3,-5
25,-14,-37,-5,31,-27,1,11,13,11,9,-2
32,-12,-43,-10,37,-29,-4,11,17,20,17,3
43,-9,-50,-17,46,-31,-12,10,22,31,28,11
56,-5,-60,-25,58,-34,-20,11,29,44,43,21
71,-1,-71,-35,71,-37,-28,13,36,59,59,32
86,3,-83,-44,84,-41,-37,10,39,71,74,42
101,7,-93,-53,97,-44,-46,3,36,80,86,51
114,11,-101,-62,108,-46,-55,-9,29,85,95,59
125,16,-107,-70,116,-47,-63,-22,20,89,104,67
132,21,-109,-77,121,-45,-70,-36,9,91,113,76
133,29,-103,-81,119,-38,-74,-50,-1,92,121,86
124,40,-84,-82,104,-23,-75,-67,-14,91,127,98
107,54,-53,-80,80,0,-74,-90,-29,86,132,111
87,69,-17,-78,53,25,-72,-115,-48,78,133,124
67,82,16,-75,26,48,-70,-138,-69,64,129,132
47,93,47,-70,0,69,-67,-155,-89,46,119,134
28,99,71,-64,-21,84,-62,-165,-106,27,106,130
13,100,87,-57,-36,92,-56,-168,-120,8,88,120
1,97,96,-50,-47,95,-49,-166,-131,-10,69,106
-8,92,101,-42,-54,95,-42,-160,-139,-26,51,92
-15,88,103,-36,-58,94,-36,-151,-141,-39,37,80
-19,85,104,-33,-61,93,-31,-141,-139,-47,27,72
-20,81,103,-30,-61,90,-27,-131,-134,-51,20,65
-21,77,99,-28,-60,86,-24,-120,-125,-54,12,57
-22,71,94,-25,-58,81,-20,-108,-115,-55,5,48
-22,64,88,-22,-55,74,-16,-95,-103,-55,-2,38
-21,57,80,-18,-50,67,-13,-83,-90,-53,-8,29
-21,50,71,-14,-46,59,-9,-71,-78,-51,-14,20
-20,42,63,-11,-41,51,-5,-60,-67,-49,-19,12
-20,35,55,-7,-37,43,-1,-50,-57,-45,-22,5
-20,28,49,-4,-34,37,2,-41,-49,-42,-24,0
-21,22,43,-1,-32,31,5,-33,-42,-39,-25,-5
-21,17,39,1,-30,26,8,-27,-35,-36,-25,-8
-21,14,36,3,-29,23,10,-22,-30,-33,-25,-10
-21,12,34,4,-28,21,12,-18,-25,-30,-25,-11
-21,10,32,6,-27,19,13,-14,-20,-27,-24,-12
-21,8,30,7,-25,17,15,-11,-16,-24,-23,-13
-21,5,27,9,-24,14,17,-7,-12,-22,-22,-14
-21,2,24,10,-22,11,18,-3,-8,-19,-21,-15
-21,0,21,10,-21,8,20,0,-4,-16,-20,-16
-21,-2,19,11,-20,6,21,4,-1,-14,-19,-16
-21,-4,18,11,-19,5,22,6,1,-13,-18,-16
-20,-4,17,11,-19,5,23,8,3,-11,-17,-16
-20,-4,16,11,-18,4,23,9,4,-10,-16,-16
-20,-4,16,11,-18,4,23,10,6,-9,-15,-15
-20,-4,16,12,-17,4,24,11,7,-8,-15,-15
-20,-4,16,12,-17,4,24,12,8,-7,-14,-15
-20,-4,16,11,-17,4,25,13,9,-6,-14,-14
-20,-4,16,11,-18,5,25,14,9,-5,-13,-14
-20,-4,17,11,-18,5,25,14,10,-5,-13,-14
-20,-4,17,11,-18,5,25,14,10,-4,-13,-14
-20,-4,17,11,-18,5,25,14,11,-4,-13,-14
-20,-4,17,11,-18,5,26,14,12,-4,-13,-14
-20,-4,17,11,-18,5,26,14,12,-3,-12,-14
-21,-4,17,12,-18,5,26,15,13,-3,-12,-14
-21,-4,17,12,-18,5,26,15,13,-2,-12,-14
-21,-4,17,12,-18,5,27,15,13,-2,-11,-14
-21,-4,17,12,-18,5,27,15,13,-2,-11,-14
-21,-4,17,12,-18,5,27,15,14,-2,-11,-14
-21,-4,17,12,-18,5,27,15,14,-2,-11,-14
-21,-4,17,12,-18,5,27,15,15,-2,-11,-14
-21,-4,17,12,-19,5,27,16,15,-1,-11,-14
-21,-4,17,12,-19,5,27,16,15,-1,-11,-14
-21,-4,17,13,-19,5,27,16,15,-1,-11,-14
-21,-4,17,13,-19,5,27,16,15,-1,-11,-14
-21,-4,17,13,-19,5,27,16,15,0,-11,-14
-21,-4,17,13,-20,5,27,16,15,0,-11,-14
-22,-4,18,13,-20,5,27,16,16,0,-11,-14
-22,-4,18,13,-20,5,27,16,16,0,-10,-14
-22,-4,18,13,-20,5,27,16,16,0,-10,-14
-22,-4,18,13,-20,5,27,16,16,0,-10,-14
-23,-5,18,13,-21,5,27,16,16,0,-10,-14
-23,-5,18,14,-21,5,28,16,16,0,-10,-14
-23,-5,18,14,-21,5,28,16,16,0,-10,-14
-23,-5,18,14,-21,5,28,16,16,0,-10,-14
-23,-5,18,14,-21,5,28,16,17,0,-10,-14
-23,-5,18,14,-21,5,28,16,17,0,-10,-14
-24,-5,18,14,-21,5,28,16,17,0,-10,-14
-24,-5,18,14,-21,5,28,16,17,0,-10,-14
-23,-5,18,14,-21,5,28,16,17,0,-10,-14
-23,-5,18,14,-21,5,28,16,17,0,-10,-14
-23,-5,19,14,-21,6,27,16,17,0,-10,-14
-23,-5,19,14,-21,6,26,16,17,1,-10,-14
-23,-5,19,14,-21,6,25,16,17,1,-10,-14
-23,-5,19,14,-21,6,24,16,17,1,-10,-14
-23,-5,19,14,-21,6,23,16,17,1,-10,-14
-23,-5,19,14,-21,6,23,16,17,1,-10,-14
-23,-5,19,14,-21,6,22,16,17,1,-10,-14
-23,-5,19,14,-21,6,22,16,17,1,-10,-14
-23,-5,19,14,-21,6,21,16,17,1,-10,-14
-23,-5,19,14,-21,6,21,16,17,1,-10,-14
-23,-5,19,14,-21,6,20,16,17,1,-10,-14
-23,-5,19,14,-21,6,20,16,17,1,-10,-14
-23,-5,19,14,-21,6,19,16,18,1,-10,-14
-23,-5,19,14,-22,6,19,16,18,1,-10,-15
-24,-5,19,14,-22,6,18,16,18,1,-10,-15
-24,-5,19,14,-21,6,18,16,18,1,-10,-15
-23,-5,19,14,-21,6,18,16,18,1,-10,-15
-23,-5,19,14,-21,6,18,16,18,1,-10,-15
-23,-5,18,14,-21,6,18,16,18,1,-10,-15
-23,-5,18,14,-21,6,17,16,18,1,-10,-15
-23,-5,18,14,-21,6,17,17,18,1,-10,-15
-23,-5,18,14,-21,6,17,17,18,2,-10,-15
-23,-5,17,14,-21,6,16,17,18,2,-10,-15
-23,-5,17,14,-21,6,16,17,18,2,-10,-15
-23,-5,17,14,-21,6,16,17,18,2,-10,-15
-22,-5,17,14,-21,5,16,17,18,2,-10,-15
-22,-6,17,14,-20,5,15,17,18,2,-9,-15
-21,-6,16,14,-20,5,15,17,19,2,-9,-15
-22,-6,17,14,-20,5,14,17,19,2,-10,-15
-24,-6,19,15,-23,6,11,16,18,1,-13,-16
-24,-7,18,15,-22,5,7,14,18,0,-14,-19
-21,-8,13,14,-18,2,6,14,19,-2,-13,-21
-20,-7,13,13,-17,2,8,15,20,-2,-13,-20
-19,-7,13,13,-17,3,9,16,20,0,-12,-18
-18,-6,13,12,-17,4,10,17,20,2,-10,-16
-17,-6,13,12,-16,4,10,18,20,3,-9,-15
-17,-5,12,11,-16,3,10,18,20,3,-8,-15
-16,-5,12,11,-15,3,10,19,20,4,-7,-14
-16,-5,11,10,-14,2,10,19,20,4,-6,-14
-15,-5,10,9,-13,2,10,19,20,5,-6,-14
-14,-5,10,8,-13,2,10,19,20,5,-6,-14
-13,-5,9,8,-12,2,9,19,20,5,-6,-13
-12,-5,8,8,-11,1,8,19,20,5,-6,-13
-11,-5,7,8,-11,1,7,19,20,5,-6,-13
-11,-5,7,7,-10,0,7,19,20,5,-6,-13
-10,-5,6,7,-9,0,6,19,19,5,-6,-13
-9,-5,5,6,-8,0,6,18,19,5,-6,-13
-8,-5,4,6,-7,-1,5,18,18,5,-6,-13
-7,-5,3,5,-6,-1,5,17,18,5,-6,-13
-5,-5,2,5,-5,-1,4,16,17,5,-6,-13
-4,-5,2,4,-4,-1,3,16,17,4,-6,-12
-3,-5,1,4,-3,-1,2,15,16,4,-6,-12
-3,-5,0,3,-2,-2,1,15,15,3,-6,-12
-2,-4,0,3,-2,-2,0,14,14,3,-6,-12
-2,-4,-1,2,-1,-3,0,14,13,2,-6,-12
-1,-4,-2,2,0,-3,0,13,12,2,-6,-12
0,-4,-3,2,0,-4,-1,12,11,1,-7,-12
0,-4,-4,2,1,-4,-1,11,10,1,-7,-12
1,-5,-5,2,2,-4,-2,10,9,0,-7,-12
2,-5,-6,1,3,-5,-3,9,8,0,-8,-12
3,-5,-7,1,4,-5,-4,8,7,-1,-8,-12
3,-5,-8,0,5,-6,-4,7,6,-2,-8,-12
4,-5,-8,0,6,-6,-5,7,4,-3,-8,-12
5,-5,-9,0,7,-7,-5,6,3,-3,-8,-12
6,-5,-10,-1,8,-7,-6,5,2,-4,-9,-12
7,-5,-11,-1,9,-8,-6,4,1,-4,-9,-12
8,-5,-11,-1,9,-8,-7,3,0,-5,-10,-12
9,-5,-12,-1,10,-9,-8,3,0,-6,-10,-12
9,-5,-13,-1,10,-9,-9,2,-1,-7,-10,-12
10,-5,-13,-1,11,-10,-9,2,-2,-8,-10,-12
10,-5,-14,-2,11,-10,-9,1,-3,-9,-10,-12
10,-5,-14,-2,12,-10,-10,1,-4,-9,-10,-12
11,-5,-15,-3,12,-10,-10,0,-4,-10,-11,-11
11,-5,-15,-3,13,-10,-10,0,-5,-10,-11,-11
12,-5,-16,-3,13,-10,-10,0,-5,-10,-11,-11
12,-6,-16,-3,13,-10,-10,-1,-6,-10,-11,-11
12,-6,-16,-3,14,-10,-10,-1,-6,-11,-11,-11
12,-6,-17,-3,14,-10,-10,-1,-6,-11,-11,-11
12,-6,-17,-3,13,-10,-10,-2,-7,-11,-11,-10
12,-6,-16,-3,13,-10,-10,-2,-7,-12,-11,-10
12,-6,-16,-3,13,-10,-10,-2,-7,-12,-11,-10
12,-6,-16,-3,13,-10,-10,-2,-7,-12,-11,-10
12,-6,-16,-3,13,-10,-10,-2,-7,-12,-11,-10
12,-6,-16,-3,13,-10,-11,-2,-7,-12,-11,-9
11,-6,-15,-3,13,-10,-11,-2,-7,-11,-11,-9
11,-6,-15,-3,13,-10,-11,-2,-7,-11,-10,-9
10,-5,-15,-3,12,-10,-11,-2,-7,-10,-10,-8
10,-5,-14,-3,12,-10,-11,-2,-7,-10,-9,-8
10,-5,-14,-3,11,-9,-10,-2,-6,-9,-9,-7
10,-5,-13,-3,11,-9,-10,-2,-6,-9,-8,-7
9,-5,-13,-3,10,-9,-10,-2,-6,-8,-8,-7
9,-5,-12,-2,10,-9,-9,-2,-5,-8,-7,-7
8,-5,-12,-2,10,-8,-9,-1,-5,-8,-7,-6
8,-5,-11,-2,9,-8,-9,-1,-4,-8,-7,-6
8,-4,-11,-2,9,-7,-9,-1,-4,-7,-6,-6
7,-4,-10,-2,8,-6,-9,-1,-4,-7,-6,-5
7,-4,-9,-2,8,-6,-9,-1,-3,-6,-6,-5
6,-4,-9,-2,7,-5,-9,-1,-3,-6,-5,-5
6,-4,-8,-2,6,-5,-9,-1,-3,-5,-5,-5
5,-4,-8,-2,6,-5,-9,-1,-3,-5,-5,-5
5,-4,-7,-2,5,-5,-8,-1,-2,-4,-4,-4
5,-4,-7,-1,5,-5,-8,-1,-2,-4,-4,-4
5,-4,-6,-1,5,-5,-8,-1,-2,-4,-4,-4
5,-4,-6,-1,5,-5,-8,-1,-1,-3,-4,-4
4,-4,-6,0,5,-5,-8,-1,-1,-3,-3,-4
4,-4,-6,0,5,-5,-7,0,-1,-3,-3,-4
4,-3,-6,0,5,-5,-7,0,-1,-2,-3,-4
4,-3,-6,-1,5,-4,-7,0,-1,-2,-3,-4
4,-3,-5,-1,4,-4,-7,0,-1,-2,-3,-4
4,-3,-5,-1,4,-4,-7,0,-1,-2,-3,-4
4,-3,-5,-1,4,-4,-7,0,0,-2,-3,-4
4,-3,-5,-1,4,-4,-7,0,0,-2,-3,-4
4,-3,-5,-1,4,-4,-7,0,0,-2,-3,-4
4,-3,-5,-1,4,-4,-7,0,0,-2,-3,-4
3,-3,-5,-1,4,-4,-7,0,0,-2,-3,-4
3,-3,-5,-1,4,-4,-7,0,0,-2,-3,-4
3,-3,-5,-1,4,-4,-7,0,0,-2,-3,-4
3,-3,-5,-1,4,-4,-7,0,0,-2,-3,-4
3,-3,-5,0,4,-4,-7,0,0,-2,-3,-4
3,-3,-5,0,4,-4,-7,0,0,-2,-3,-4
3,-3,-5,0,4,-4,-7,0,0,-2,-3,-4
3,-3,-5,0,4,-4,-7,0,0,-2,-3,-4
3,-3,-5,0,4,-4,-7,0,0,-2,-3,-4
3,-3,-5,0,4,-4,-7,0,0,-2,-3,-4
3,-3,-5,0,4,-4,-7,0,0,-2,-3,-4
3,-3,-5,0,3,-4,-7,0,0,-2,-3,-4
3,-3,-5,0,3,-4,-7,0,0,-2,-3,-4
3,-3,-5,0,3,-4,-7,0,0,-2,-3,-4
3,-3,-5,0,3,-4,-7,0,0,-2,-3,-4
3,-3,-5,0,3,-4,-7,0,0,-2,-3,-4
3,-3,-5,0,3,-4,-7,0,0,-2,-3,-4
3,-3,-5,0,3,-4,-7,0,0,-2,-3,-4
3,-3,-6,0,3,-4,-6,0,0,-2,-2,-4
2,-3,-4,0,2,-4,-8,0,-1,-3,-5,-4
-2,-2,1,2,-2,-1,-11,-2,-2,-6,-12,-5
-5,-2,4,3,-5,0,-15,-4,-3,-9,-18,-7
-5,-3,2,3,-4,-1,-17,-6,-3,-16,-22,-11
-4,-4,0,3,-3,-2,-16,-7,-4,-18,-21,-14
-2,-3,0,2,-1,-2,-13,-5,-3,-13,-15,-11
0,-2,-2,1,0,-2,-11,-3,-2,-8,-11,-8
1,-2,-3,0,1,-3,-10,-3,-1,-6,-8,-7
2,-2,-3,0,2,-3,-9,-2,-1,-5,-7,-5
2,-2,-4,0,3,-4,-9,-2,-1,-4,-6,-4
3,-2,-4,-1,3,-4,-8,-1,0,-3,-5,-4
4,-2,-5,-1,4,-4,-8,-1,0,-3,-4,-3
4,-2,-5,-1,4,-4,-8,-1,0,-2,-4,-3
4,-2,-5,-1,4,-4,-7,-1,0,-2,-3,-3
4,-2,-5,-1,4,-4,-7,-1,0,-2,-3,-3
4,-2,-5,-1,4,-4,-7,-1,0,-2,-3,-3
3,-2,-6,-1,4,-4,-7,-1,0,-2,-3,-3
3,-2,-6,-1,4,-4,-7,-1,0,-2,-3,-3
3,-2,-6,-1,4,-4,-7,-1,0,-2,-3,-3
3,-2,-6,-1,4,-4,-7,-1,0,-1,-3,-3
3,-2,-6,-1,4,-4,-7,-1,0,-1,-3,-3
3,-2,-6,-1,4,-4,-7,-1,0,-1,-3,-3
4,-2,-6,-1,4,-4,-7,-1,0,-2,-3,-3
4,-2,-6,-1,4,-4,-7,-1,0,-2,-3,-3
4,-2,-6,-1,5,-4,-7,-1,0,-2,-3,-3
4,-2,-6,-1,5,-4,-7,-1,0,-2,-3,-2
4,-2,-6,-1,5,-4,-7,-1,0,-2,-3,-2
4,-2,-6,-1,5,-4,-7,-1,0,-2,-3,-2
4,-2,-6,-1,5,-4,-7,-1,0,-2,-3,-2
4,-2,-6,-1,5,-4,-7,-1,0,-2,-3,-2
4,-2,-6,-1,5,-4,-7,-1,0,-2,-3,-2
4,-2,-6,-2,5,-4,-7,-1,0,-2,-3,-2
4,-2,-6,-2,5,-4,-7,-1,0,-2,-3,-2
4,-2,-6,-2,5,-4,-7,-1,0,-2,-3,-2
4,-2,-6,-1,5,-4,-7,-1,-1,-2,-3,-2
4,-2,-7,-1,5,-4,-7,-1,-1,-2,-3,-2
4,-2,-7,-2,5,-4,-7,-1,-1,-2,-3,-2
4,-1,-6,-2,5,-4,-7,-1,-1,-2,-3,-2
4,-1,-6,-2,5,-4,-7,-2,-1,-2,-3,-2
4,-2,-7,-2,5,-4,-7,-2,-1,-2,-3,-2
4,-2,-7,-2,5,-4,-7,-2,-1,-2,-3,-2
4,-2,-6,-2,5,-4,-7,-2,-1,-2,-3,-2
4,-2,-6,-2,5,-4,-7,-2,-1,-2,-3,-2
4,-2,-6,-2,5,-4,-7,-2,-1,-2,-3,-2
4,-2,-6,-2,5,-3,-7,-3,-1,-2,-3,-2
4,-2,-6,-2,5,-3,-7,-3,-1,-2,-3,-2
4,-2,-6,-2,5,-3,-8,-3,-1,-2,-3,-2
4,-2,-6,-2,5,-3,-8,-3,-1,-2,-3,-2
4,-2,-6,-2,5,-3,-9,-3,-1,-2,-3,-2
4,-2,-6,-2,5,-3,-9,-3,-1,-2,-3,-2
4,-2,-6,-2,5,-3,-10,-3,-1,-2,-3,-2
4,-2,-6,-2,5,-3,-10,-3,-1,-2,-3,-2
4,-1,-6,-2,5,-3,-11,-3,-2,-2,-3,-2
4,-1,-6,-2,4,-3,-11,-3,-2,-2,-3,-2
4,-1,-5,-1,4,-3,-11,-3,-2,-2,-3,-2
3,-1,-5,-1,4,-3,-11,-3,-2,-2,-3,-2
3,-1,-5,-1,4,-3,-11,-3,-2,-2,-3,-2
3,-1,-5,-1,4,-3,-11,-3,-2,-2,-3,-2
4,-1,-5,-1,4,-3,-11,-3,-2,-2,-3,-2
4,-1,-5,-2,4,-2,-11,-3,-2,-2,-3,-2
4,-1,-5,-2,4,-2,-11,-3,-2,-2,-3,-2
4,-1,-5,-2,4,-2,-11,-3,-2,-2,-3,-2
4,-1,-5,-2,4,-2,-11,-4,-2,-2,-3,-2
4,-1,-5,-2,4,-2,-12,-4,-2,-2,-3,-2
4,-1,-5,-2,4,-2,-12,-4,-2,-2,-3,-2
4,-1,-5,-2,4,-2,-12,-4,-2,-2,-3,-2
4,-1,-5,-2,4,-2,-12,-4,-2,-2,-3,-2
4,-1,-5,-2,4,-2,-12,-4,-2,-2,-3,-2
3,-1,-5,-2,4,-2,-12,-4,-3,-2,-3,-2
3,-1,-5,-2,4,-2,-12,-4,-3,-2,-3,-2
3,-1,-5,-2,4,-2,-12,-4,-3,-2,-3,-2
3,-1,-5,-2,4,-2,-12,-4,-3,-3,-3,-2
3,-1,-5,-1,3,-2,-12,-4,-3,-3,-3,-2
3,-1,-4,-1,3,-2,-12,-4,-3,-3,-3,-2
3,-1,-4,-1,3,-2,-12,-4,-3,-3,-3,-2
3,-1,-4,-1,3,-2,-12,-4,-3,-3,-3,-2
3,-1,-4,-1,3,-2,-12,-4,-3,-3,-3,-2
3,-1,-4,-1,3,-2,-12,-4,-3,-3,-3,-2
3,-1,-4,-1,3,-2,-12,-4,-3,-3,-3,-2
3,-1,-4,-1,3,-2,-12,-4,-3,-3,-3,-2
2,-1,-4,-1,3,-2,-12,-4,-3,-3,-3,-2
2,-1,-4,-1,2,-2,-12,-4,-3,-3,-3,-2
2,-1,-4,-1,2,-2,-12,-4,-3,-3,-3,-2
2,-1,-4,-1,2,-2,-12,-4,-3,-3,-3,-2
2,-1,-4,-1,2,-2,-12,-4,-3,-3,-3,-2
2,-1,-4,-1,2,-2,-12,-4,-3,-3,-3,-2
2,-1,-4,-1,2,-2,-12,-4,-3,-3,-3,-2
2,-1,-4,-1,2,-2,-12,-4,-3,-3,-3,-2
2,-1,-4,-1,2,-2,-12,-4,-3,-3,-3,-2
2,-1,-4,-1,2,-2,-12,-4,-3,-3,-3,-2
2,-1,-4,-1,2,-2,-12,-4,-3,-3,-3,-2
2,-1,-4,-1,2,-2,-12,-4,-3,-3,-3,-2
2,-1,-4,-1,2,-2,-11,-4,-3,-3,-3,-2
2,-1,-4,-1,2,-2,-11,-4,-3,-3,-3,-2
2,-1,-4,-1,2,-2,-11,-4,-3,-3,-3,-2
2,-1,-4,-1,2,-2,-11,-4,-3,-3,-3,-2
2,-1,-4,-1,2,-2,-11,-4,-3,-3,-3,-2
2,-1,-4,-1,2,-2,-11,-4,-3,-3,-3,-2
2,-1,-4,-1,2,-2,-11,-4,-3,-3,-3,-2
2,-1,-4,-1,2,-2,-11,-3,-3,-3,-3,-1
1,-1,-4,-1,1,-2,-11,-3,-3,-3,-3,-1
1,-1,-4,-1,1,-2,-11,-3,-3,-3,-3,-1
1,-1,-4,-1,1,-2,-11,-3,-3,-3,-3,-1
1,-1,-4,-1,1,-2,-11,-3,-3,-3,-3,-1
1,-2,-4,0,1,-2,-11,-3,-3,-3,-3,-1
1,-2,-4,0,1,-2,-11,-3,-3,-3,-3,-1
1,-2,-4,0,1,-2,-11,-3,-3,-3,-3,-1
1,-2,-4,0,1,-2,-11,-3,-3,-3,-3,-1
1,-2,-4,0,1,-2,-11,-3,-3,-3,-3,-1
1,-2,-4,0,1,-2,-10,-3,-3,-3,-3,-1
1,-2,-4,0,1,-2,-10,-3,-3,-3,-3,-1
1,-2,-4,0,1,-2,-10,-3,-3,-3,-3,-1
1,-2,-3,0,1,-2,-10,-3,-3,-3,-3,-1
1,-2,-3,0,1,-2,-10,-3,-3,-3,-3,-1
1,-2,-3,0,1,-2,-10,-3,-3,-3,-3,-1
1,-2,-3,0,1,-2,-10,-3,-3,-3,-3,-1
1,-2,-3,0,1,-2,-10,-3,-3,-3,-3,-1
1,-2,-2,0,1,-2,-10,-3,-3,-3,-3,-1
1,-2,-2,0,1,-2,-10,-3,-3,-3,-3,-1
1,-2,-2,0,1,-2,-10,-3,-3,-3,-3,-1
1,-2,-2,0,1,-2,-10,-3,-3,-3,-4,-1
1,-2,-2,0,1,-2,-10,-3,-3,-3,-4,-1
1,-2,-2,0,1,-2,-10,-3,-3,-3,-4,-1
1,-2,-2,0,1,-2,-10,-3,-3,-3,-4,-1
1,-2,-2,0,1,-2,-10,-3,-3,-3,-4,-1
1,-2,-2,0,1,-2,-10,-3,-3,-3,-4,-1
1,-2,-2,0,1,-2,-10,-3,-3,-3,-4,-1
1,-2,-2,0,1,-2,-10,-3,-3,-3,-4,-1
1,-2,-3,0,1,-2,-10,-3,-3,-3,-4,-1
1,-2,-3,0,1,-2,-10,-3,-3,-3,-4,-1
1,-2,-3,0,1,-2,-10,-3,-3,-3,-4,-1
0,-2,-2,0,1,-2,-10,-3,-3,-3,-4,-1
0,-2,-2,0,1,-2,-10,-3,-3,-3,-4,-1
0,-2,-2,0,1,-2,-10,-3,-3,-3,-4,-1
0,-2,-2,0,1,-2,-10,-3,-3,-3,-4,-1
0,-2,-2,0,1,-2,-10,-3,-3,-3,-4,-1
0,-2,-2,0,1,-2,-10,-3,-3,-3,-4,-1
0,-2,-2,0,1,-2,-10,-3,-3,-3,-4,-1
0,-2,-2,0,1,-2,-10,-3,-3,-3,-4,-1
0,-2,-2,0,1,-2,-10,-3,-3,-3,-4,-1
0,-2,-2,0,1,-2,-10,-3,-3,-3,-4,-1
0,-2,-2,0,1,-2,-10,-3,-3,-3,-4,-1
0,-2,-2,0,1,-2,-10,-3,-3,-3,-4,-1
0,-2,-2,0,1,-2,-10,-3,-3,-3,-4,-1
0,-2,-2,0,1,-2,-10,-3,-3,-3,-4,-1
0,-2,-2,0,1,-2,-11,-3,-3,-3,-4,-1
0,-2,-2,0,1,-2,-11,-3,-3,-3,-4,-1
0,-2,-2,0,1,-2,-11,-3,-3,-3,-4,-1
0,-2,-2,0,1,-2,-11,-3,-3,-3,-4,-1
0,-2,-2,0,1,-2,-11,-3,-3,-3,-4,-1
0,-2,-2,0,1,-2,-11,-3,-3,-3,-4,-1
0,-2,-2,0,1,-2,-11,-3,-3,-3,-4,-1
0,-3,-2,0,1,-2,-11,-3,-3,-3,-4,-1
0,-3,-2,0,1,-2,-11,-3,-3,-3,-4,-1
0,-3,-2,0,1,-2,-11,-3,-3,-3,-4,-1
0,-3,-2,0,1,-2,-11,-3,-3,-3,-3,-1
0,-3,-2,0,1,-2,-11,-3,-3,-3,-3,-1
0,-3,-2,0,1,-2,-11,-3,-3,-3,-3,-1
0,-3,-2,0,1,-2,-11,-3,-3,-3,-3,-1
0,-3,-2,0,1,-2,-11,-3,-2,-3,-3,-1
0,-3,-2,0,1,-2,-11,-3,-2,-3,-3,-1
0,-3,-2,0,1,-2,-11,-3,-2,-3,-3,-1
0,-3,-2,0,1,-2,-11,-3,-2,-3,-3,-1
0,-3,-2,0,1,-3,-11,-3,-2,-3,-3,-1
0,-3,-2,0,1,-3,-11,-3,-2,-3,-3,-1
0,-3,-2,0,1,-3,-11,-3,-2,-3,-3,-1
0,-3,-2,0,1,-3,-11,-3,-2,-3,-3,-1
0,-3,-2,0,1,-3,-12,-3,-2,-3,-3,-1
0,-3,-2,0,1,-3,-12,-3,-2,-3,-3,-1
0,-3,-2,0,1,-3,-12,-3,-2,-3,-3,-1
0,-3,-2,0,1,-3,-12,-3,-2,-3,-3,-1
0,-3,-2,0,1,-3,-12,-3,-2,-3,-3,-1
0,-3,-2,0,1,-3,-12,-3,-2,-3,-3,-1
0,-3,-2,0,1,-3,-12,-3,-2,-3,-3,-1
0,-3,-2,1,1,-2,-12,-3,-2,-3,-3,-1
0,-3,-2,1,1,-2,-12,-3,-2,-3,-3,-1
0,-3,-2,1,1,-2,-12,-3,-2,-3,-3,-1
0,-3,-2,1,1,-2,-12,-3,-2,-3,-3,-1
0,-3,-2,1,1,-2,-12,-3,-2,-3,-3,-1
0,-2,-2,1,1,-2,-12,-3,-2,-3,-3,-1
0,-2,-2,1,1,-2,-12,-3,-2,-3,-3,0
0,-2,-2,1,1,-2,-12,-3,-2,-3,-3,0
0,-2,-2,1,1,-2,-12,-4,-2,-3,-3,0
0,-2,-2,1,1,-2,-12,-4,-2,-3,-3,0
0,-2,-2,1,1,-2,-12,-4,-2,-3,-3,0
0,-2,-2,1,1,-2,-12,-4,-2,-3,-3,0
0,-2,-2,1,1,-2,-12,-4,-2,-3,-3,0
0,-2,-2,1,1,-2,-12,-4,-2,-3,-3,0
0,-2,-2,1,1,-3,-12,-4,-2,-3,-3,0
0,-2,-2,1,1,-3,-12,-4,-2,-3,-3,0
0,-2,-2,1,1,-3,-11,-4,-2,-3,-3,0
0,-2,-2,1,1,-3,-11,-4,-2,-3,-3,0
0,-2,-2,1,1,-3,-11,-4,-2,-3,-3,0
0,-2,-1,1,1,-3,-12,-4,-2,-3,-3,0
0,-2,-1,1,1,-3,-12,-4,-2,-3,-3,0
0,-2,-1,1,1,-3,-12,-4,-2,-3,-3,0
0,-2,-1,1,1,-3,-12,-4,-2,-3,-3,0
0,-2,-1,1,1,-2,-12,-4,-2,-3,-3,0
0,-2,-1,1,1,-2,-12,-4,-2,-3,-3,0
0,-2,-2,1,1,-2,-12,-4,-2,-3,-3,0
0,-2,-2,1,1,-2,-12,-4,-2,-3,-3,0
0,-2,-2,1,1,-2,-12,-4,-2,-3,-3,0
0,-2,-2,1,1,-2,-12,-4,-2,-3,-3,0
0,-2,-2,1,1,-2,-12,-4,-2,-3,-3,0
0,-2,-2,1,1,-2,-12,-4,-2,-3,-3,0
0,-2,-2,1,1,-2,-12,-4,-2,-3,-3,0
0,-2,-2,1,1,-2,-12,-4,-2,-3,-3,0
0,-2,-1,1,1,-2,-11,-4,-2,-3,-3,0
0,-2,-1,1,1,-2,-11,-4,-2,-3,-3,0
0,-2,-1,1,1,-2,-11,-4,-2,-3,-3,0
0,-2,-1,1,1,-2,-11,-4,-2,-3,-3,0
0,-2,-1,1,1,-2,-11,-4,-2,-3,-3,0
0,-2,-1,1,1,-2,-11,-4,-2,-3,-3,0
0,-2,-1,1,1,-2,-11,-4,-2,-3,-3,0
0,-2,-1,1,1,-2,-11,-4,-2,-3,-3,0
0,-2,-1,1,1,-2,-11,-4,-2,-3,-3,0
0,-2,-1,1,1,-2,-11,-4,-2,-3,-3,0
0,-2,-1,1,1,-2,-11,-4,-2,-3,-3,0
0,-2,-1,1,1,-2,-11,-4,-2,-3,-3,0
0,-2,-1,1,1,-2,-11,-4,-2,-3,-3,0
0,-2,-1,1,1,-2,-11,-3,-2,-3,-3,0
0,-2,-1,1,1,-2,-11,-3,-2,-3,-3,0
0,-2,-1,1,1,-2,-11,-3,-2,-3,-3,0
0,-2,-1,1,1,-2,-10,-3,-2,-3,-3,0
0,-2,-1,1,1,-2,-10,-3,-2,-3,-3,0
0,-2,-1,1,1,-2,-10,-3,-2,-3,-3,0
0,-2,-2,1,1,-2,-10,-3,-2,-3,-3,0
0,-2,-2,1,1,-2,-10,-3,-2,-3,-3,0
0,-2,-2,1,1,-2,-10,-3,-2,-3,-3,0
0,-2,-1,1,1,-2,-10,-3,-2,-3,-3,0
0,-2,-1,1,1,-2,-10,-3,-2,-3,-3,0
0,-2,-1,1,1,-2,-10,-3,-2,-3,-3,0
1,-2,-1,1,1,-2,-10,-3,-2,-3,-3,0
1,-2,-1,1,1,-2,-10,-3,-2,-3,-4,0
0,-2,-1,1,1,-2,-10,-3,-2,-3,-4,0
0,-2,-1,1,1,-2,-10,-3,-2,-3,-4,0
0,-2,-1,1,2,-2,-10,-3,-2,-3,-4,0
0,-2,-1,1,2,-2,-10,-3,-2,-3,-4,0
0,-2,-1,1,2,-2,-10,-3,-2,-3,-4,0
0,-2,-1,1,1,-2,-10,-3,-2,-3,-4,0
0,-2,-1,1,1,-2,-10,-3,-2,-3,-4,0
1,-2,-1,1,1,-2,-10,-3,-2,-3,-4,0
1,-2,-1,0,1,-2,-10,-3,-2,-3,-4,0
0,-2,0,0,1,-2,-10,-3,-2,-3,-4,0
0,-1,0,0,1,-1,-10,-3,-1,-2,-4,0
0,-1,0,0,1,-1,-10,-2,-1,-2,-3,0
0,-1,0,0,1,-1,-9,-2,-1,-2,-3,0
1,0,0,0,1,-1,-9,-2,-1,-2,-3,0
1,0,0,0,1,0,-9,-2,-1,-1,-3,1
2,0,0,-1,1,0,-9,-2,0,-1,-3,1
2,1,0,-1,1,0,-9,-2,0,-1,-3,1
2,1,0,-1,1,0,-9,-1,0,-1,-2,1
3,1,0,-2,2,0,-9,-1,0,0,-2,1
3,1,0,-2,2,0,-9,0,1,0,-2,1
3,2,0,-2,2,0,-9,0,1,0,-2,1
3,2,0,-2,2,0,-9,0,1,0,-2,2
3,2,0,-2,2,0,-9,1,1,0,-2,2
3,2,0,-2,2,0,-8,1,1,0,-1,2
3,2,0,-3,2,1,-8,1,2,0,-1,2
3,2,0,-3,2,1,-8,1,2,1,-1,2
3,3,1,-3,2,1,-7,2,3,1,0,2
3,3,1,-3,2,2,-7,2,3,2,0,3
3,4,1,-3,2,2,-7,3,3,2,0,3
3,4,1,-3,2,2,-7,3,3,2,0,3
3,4,1,-3,2,2,-7,3,3,2,0,3
3,4,1,-3,2,2,-7,3,3,2,0,3
3,4,1,-3,2,2,-7,3,3,2,0,3
3,4,1,-4,2,2,-7,4,3,2,0,3
3,4,1,-4,2,2,-7,4,4,2,0,3
3,4,1,-3,2,2,-8,4,4,2,0,3
3,3,1,-3,2,1,-8,4,4,2,0,3
3,3,0,-3,2,1,-9,4,4,2,0,3
3,3,0,-3,2,1,-9,3,4,2,0,3
3,3,0,-3,2,1,-9,3,4,2,0,3
3,3,0,-3,2,1,-9,2,3,2,0,3
3,2,0,-3,2,1,-9,0,2,1,0,3
3,2,0,-3,2,0,-10,0,1,1,-1,2
2,2,0,-3,2,0,-10,-1,1,1,-1,2
2,2,0,-3,2,0,-10,-2,1,1,-1,2
2,2,0,-3,2,0,-11,-2,1,1,-1,2
3,2,0,-3,2,0,-11,-2,1,1,-1,2
3,2,0,-3,2,0,-11,-2,1,0,-1,2
3,3,0,-3,2,0,-12,-2,1,0,-1,2
4,3,0,-4,2,1,-12,-2,1,0,-1,3
4,4,0,-4,2,1,-13,-2,0,0,-1,3
5,5,0,-5,3,1,-13,-3,0,0,-1,3
5,5,0,-5,3,1,-14,-3,0,0,-1,3
5,5,0,-5,3,1,-14,-4,0,0,-1,3
5,5,0,-5,3,1,-15,-4,0,0,-1,3
5,5,0,-5,3,1,-15,-4,0,0,-1,3
6,5,0,-6,4,1,-15,-4,0,0,-1,3
6,5,-1,-6,4,1,-15,-4,0,0,-1,3
7,6,-1,-7,5,1,-15,-3,0,1,0,4
8,6,-1,-7,5,1,-15,-3,0,2,0,4
8,7,-1,-8,5,2,-15,-2,1,2,1,5
9,7,-1,-8,5,2,-15,-2,1,3,1,5
9,7,-2,-8,5,2,-14,-1,1,3,2,5
9,7,-2,-8,5,1,-13,-1,1,3,2,5
9,6,-2,-8,6,1,-13,0,1,3,2,5
9,6,-2,-7,6,1,-12,0,1,3,2,5
8,5,-2,-7,5,1,-12,0,1,2,2,5
7,5,-2,-6,5,1,-12,0,1,2,1,5
7,5,-2,-6,4,1,-12,0,1,2,1,5
6,5,-2,-6,4,1,-11,0,1,2,1,5
6,4,-2,-6,4,1,-11,0,1,2,1,5
5,4,-2,-6,4,0,-10,0,1,2,1,5
5,3,-2,-5,3,0,-9,0,1,2,1,5
5,2,-2,-5,3,0,-9,0,1,2,1,5
5,1,-2,-4,3,0,-8,0,1,1,0,4
4,0,-2,-3,3,-1,-8,0,1,1,0,3
3,0,-2,-2,2,-1,-8,0,1,0,0,3
2,-1,-2,-1,2,-2,-7,0,0,0,-1,2
1,-2,-2,0,1,-2,-7,0,0,-1,-2,1
0,-2,-2,0,1,-3,-7,0,-1,-1,-3,0
0,-3,-2,1,1,-3,-7,-1,-1,-2,-3,0
0,-3,-1,1,0,-3,-6,-1,-1,-2,-3,0
0,-3,-1,1,0,-3,-6,-1,-1,-2,-3,0
-1,-3,-1,1,0,-3,-6,-1,-1,-2,-3,0
-1,-3,-1,1,0,-3,-6,-1,-1,-2,-4,-1
-1,-3,-2,1,0,-3,-6,-1,-2,-2,-4,-1
-1,-3,-2,2,0,-3,-6,-1,-2,-2,-4,-1
-1,-3,-2,2,0,-3,-6,-1,-2,-2,-4,-1
-1,-3,-2,2,0,-3,-6,-1,-2,-2,-4,-1
-1,-3,-2,2,0,-3,-6,-1,-2,-2,-4,-1
-1,-3,-2,2,0,-3,-6,-1,-2,-2,-4,-1
-1,-4,-2,2,0,-3,-6,-1,-2,-2,-4,-1
-1,-4,-2,2,0,-3,-6,-1,-2,-2,-4,-1
-1,-4,-2,2,0,-3,-5,-1,-2,-2,-5,-1
-1,-4,-2,2,0,-3,-5,-1,-2,-2,-5,-1
-2,-4,-2,2,0,-3,-5,-1,-2,-3,-5,-1
-2,-4,-2,3,0,-4,-5,-1,-2,-3,-5,-1
-2,-5,-2,3,0,-4,-5,-1,-2,-3,-5,-1
-2,-5,-2,3,0,-4,-5,-1,-2,-3,-5,-1
-2,-5,-2,3,0,-4,-5,-1,-2,-3,-5,-1
-2,-5,-2,3,0,-4,-5,-1,-2,-3,-5,-1
-2,-5,-2,3,0,-4,-4,-1,-2,-3,-5,-1
-2,-5,-2,3,0,-4,-4,-1,-2,-3,-5,-1
-2,-5,-2,3,0,-4,-4,-1,-2,-3,-5,-1
-2,-5,-2,3,0,-4,-4,-1,-2,-3,-5,-1
-2,-5,-2,3,0,-4,-4,-1,-2,-3,-5,-1
-2,-5,-2,3,0,-4,-4,-1,-2,-3,-5,-1
-2,-5,-2,3,0,-4,-4,-1,-2,-3,-5,-1
-2,-5,-1,3,0,-4,-4,-1,-2,-3,-5,-1
-3,-5,-1,3,0,-4,-4,-1,-2,-3,-5,-1
-3,-6,-1,3,-1,-4,-4,-1,-2,-3,-5,-1
-3,-6,-2,3,-1,-4,-4,-1,-2,-3,-5,-1
-3,-6,-2,3,0,-4,-4,-1,-2,-3,-5,-1
-3,-6,-2,3,0,-4,-4,-1,-2,-3,-5,-1
-3,-6,-2,3,0,-4,-4,-1,-2,-3,-5,-1
-3,-6,-1,3,0,-4,-4,-1,-2,-3,-5,-1
-3,-6,-1,3,0,-4,-4,-1,-2,-3,-5,-1
-3,-6,-1,3,0,-4,-4,-1,-2,-3,-5,-1
-3,-6,-1,3,0,-4,-4,0,-2,-3,-5,-1
-3,-6,-2,3,0,-5,-4,0,-2,-4,-6,-2
-3,-7,-3,4,0,-6,-3,1,-2,-4,-6,-3
-3,-8,-4,4,1,-7,-3,2,-2,-4,-7,-3
-2,-9,-6,5,2,-8,-2,4,-1,-4,-8,-4
-1,-11,-8,5,4,-10,-2,5,-1,-5,-9,-5
0,-12,-12,5,7,-13,-2,5,-1,-5,-9,-6
2,-14,-16,5,10,-16,-3,5,-1,-5,-10,-7
5,-16,-20,4,13,-19,-4,5,0,-5,-10,-8
9,-17,-25,3,18,-21,-7,7,2,-3,-8,-8
14,-17,-30,0,23,-24,-10,10,6,0,-5,-7
21,-16,-36,-3,29,-26,-14,11,9,4,-1,-5
29,-15,-43,-7,36,-29,-19,10,11,9,4,-2
39,-13,-51,-13,46,-33,-26,9,13,15,11,3
51,-11,-61,-21,57,-37,-34,8,16,23,20,9
66,-7,-72,-30,70,-40,-42,4,18,31,30,17
82,-3,-84,-40,83,-44,-52,-5,17,38,41,26
98,1,-95,-50,97,-48,-63,-20,13,45,52,36
114,6,-106,-61,111,-50,-75,-38,6,51,63,46
129,12,-115,-71,123,-52,-85,-57,-4,54,73,55
141,17,-122,-80,132,-53,-95,-78,-17,56,82,63
149,25,-123,-88,137,-49,-104,-98,-29,59,92,74
151,36,-114,-94,133,-40,-111,-119,-40,64,104,89
145,50,-93,-98,120,-23,-116,-139,-49,71,118,105
130,65,-64,-98,98,-1,-117,-159,-58,75,129,120
111,79,-31,-95,72,23,-115,-177,-69,73,133,132
90,91,3,-91,44,46,-113,-193,-81,66,132,140
68,99,32,-84,18,65,-108,-205,-93,57,126,142
47,97,51,-72,-1,73,-98,-207,-103,42,109,130
28,86,59,-58,-15,72,-85,-201,-110,23,84,107
12,74,63,-44,-24,67,-72,-191,-115,6,59,83
0,65,66,-33,-32,64,-62,-181,-117,-6,40,65
-10,58,70,-25,-39,62,-54,-170,-116,-15,28,54
-18,54,73,-19,-44,62,-49,-159,-114,-22,19,45
-23,51,75,-15,-48,61,-45,-149,-112,-28,11,39
-26,49,77,-12,-51,61,-42,-139,-108,-33,4,33
-28,47,77,-10,-52,60,-38,-127,-102,-37,-1,28
-29,44,75,-8,-51,58,-33,-114,-94,-39,-6,23
-29,39,70,-6,-49,54,-29,-100,-86,-41,-12,16
-29,34,65,-3,-46,48,-25,-86,-78,-43,-19,9
-29,28,58,-1,-43,42,-21,-74,-70,-44,-25,2
-28,22,51,1,-39,36,-17,-64,-64,-45,-30,-4
-28,17,45,3,-36,30,-15,-55,-58,-45,-33,-9
-27,13,41,5,-33,26,-13,-48,-52,-45,-35,-13
-26,10,37,7,-31,22,-11,-42,-47,-43,-36,-15
-26,7,35,8,-30,20,-9,-36,-42,-41,-36,-17
-26,5,34,9,-29,18,-6,-31,-37,-38,-36,-18
-26,4,32,10,-29,17,-4,-25,-32,-35,-35,-18
-26,2,31,11,-28,15,-2,-21,-28,-33,-34,-19
-27,1,30,12,-27,14,0,-17,-24,-30,-33,-19
-27,0,28,12,-26,12,1,-13,-20,-28,-31,-19
-26,-1,26,13,-26,11,2,-9,-17,-26,-30,-19
-26,-3,24,13,-25,9,3,-6,-14,-24,-29,-19
-26,-4,23,14,-24,8,4,-3,-11,-21,-28,-19
-25,-5,21,14,-23,7,5,0,-7,-19,-27,-18
-24,-6,20,14,-22,5,7,4,-3,-16,-25,-18
-23,-7,18,14,-20,4,8,7,-1,-14,-24,-17
-23,-7,17,14,-19,3,9,9,1,-13,-23,-17
-22,-7,16,14,-19,3,10,11,2,-11,-21,-17
-22,-7,15,14,-19,2,11,12,4,-10,-20,-16
-22,-7,15,14,-18,2,11,13,5,-9,-20,-16
-22,-7,15,14,-18,2,11,14,6,-8,-19,-15
-22,-7,15,13,-18,3,11,14,7,-8,-19,-15
-22,-7,16,13,-18,3,11,15,8,-7,-18,-14
-22,-7,16,13,-18,3,11,16,8,-6,-18,-14
-22,-6,17,13,-18,3,11,17,9,-5,-17,-14
-22,-6,17,13,-18,3,11,17,9,-5,-17,-14
-22,-6,17,13,-18,3,11,17,10,-5,-17,-14
-22,-6,17,13,-19,3,11,17,10,-5,-17,-14
-22,-6,17,13,-19,3,11,18,10,-5,-17,-14
-22,-6,17,13,-19,4,11,18,11,-4,-17,-14
-22,-6,17,13,-19,4,12,18,11,-4,-16,-14
-22,-6,17,13,-19,4,12,18,12,-3,-16,-14
-23,-6,17,14,-19,4,12,19,12,-3,-16,-14
-23,-6,17,14,-20,4,12,19,12,-3,-16,-14
-23,-6,17,14,-20,4,12,19,12,-3,-16,-14
-23,-6,17,14,-20,4,12,19,12,-2,-15,-14
-23,-6,17,14,-20,4,13,19,13,-2,-15,-14
-23,-6,18,14,-20,4,13,19,13,-2,-15,-14
-23,-6,18,14,-20,4,13,19,13,-2,-15,-13
-23,-6,18,14,-21,4,13,19,14,-2,-15,-13
-23,-6,18,14,-21,4,13,20,14,-2,-15,-13
-24,-6,18,14,-21,4,13,20,14,-2,-14,-13
-24,-6,18,14,-21,4,13,20,14,-2,-14,-13
-24,-6,18,14,-21,4,13,20,14,-2,-14,-13
-24,-6,18,14,-21,5,13,20,14,-1,-14,-13
-24,-6,18,14,-21,5,13,21,15,-1,-14,-12
-24,-6,19,14,-21,5,13,21,15,-1,-14,-12
-24,-6,19,14,-21,5,13,21,15,-1,-14,-12
-24,-6,19,14,-21,5,13,21,15,-1,-14,-12
-24,-6,19,14,-21,5,13,21,15,-1,-14,-12
-24,-6,19,14,-21,5,13,21,15,-1,-14,-12
-24,-6,19,14,-21,5,13,21,15,0,-14,-12
-24,-6,19,14,-22,5,14,22,16,0,-13,-12
-24,-6,20,14,-22,6,14,22,16,0,-13,-12
-25,-5,20,14,-22,6,14,22,16,0,-13,-12
-25,-5,20,14,-22,6,14,22,16,0,-13,-12
-25,-5,20,14,-22,6,14,22,16,0,-13,-11
-25,-5,20,14,-22,6,14,22,16,0,-13,-11
-25,-5,20,14,-22,6,14,22,16,0,-13,-11
-25,-5,20,14,-22,6,14,22,16,0,-13,-12
-25,-5,20,14,-22,6,14,23,16,0,-13,-12
-25,-5,20,14,-23,6,14,23,17,1,-13,-12
-25,-5,21,14,-23,7,14,23,17,1,-13,-12
-25,-5,21,14,-23,7,14,23,18,1,-13,-12
-25,-5,21,14,-23,7,14,23,18,1,-13,-12
-25,-5,21,14,-23,7,15,23,18,1,-13,-12
-25,-5,21,14,-23,7,15,23,18,1,-13,-12
-25,-5,21,14,-23,7,15,24,18,2,-13,-12
-25,-5,21,14,-23,7,15,24,18,2,-13,-12
-25,-5,21,14,-23,7,15,24,19,2,-12,-12
-25,-5,21,14,-23,7,15,24,19,2,-12,-12
-25,-5,21,15,-23,7,15,24,19,2,-12,-12
-25,-5,21,15,-23,7,15,25,19,2,-12,-12
-25,-5,21,15,-23,7,15,25,19,2,-12,-12
-25,-5,21,15,-23,7,15,25,19,2,-12,-11
-25,-5,21,14,-23,7,15,26,19,3,-12,-11
-24,-5,21,14,-23,7,15,26,19,3,-12,-11
-24,-5,21,13,-22,7,15,26,19,3,-12,-11
-24,-5,21,13,-22,7,15,26,20,3,-12,-11
-24,-4,21,13,-22,7,15,26,20,3,-12,-11
-23,-4,21,13,-22,7,15,26,20,3,-12,-11
-23,-4,21,13,-22,7,15,26,20,3,-12,-11
-23,-4,21,13,-22,7,15,26,21,3,-11,-11
-23,-4,21,13,-22,7,15,26,21,3,-11,-11
-23,-4,20,13,-22,7,15,26,21,3,-11,-11
-23,-4,20,12,-21,7,15,26,21,3,-11,-11
-23,-4,20,12,-21,7,15,26,21,3,-11,-10
-22,-4,20,12,-21,7,15,27,21,3,-11,-10
-22,-4,19,12,-20,7,14,27,21,3,-11,-10
-21,-4,19,12,-20,7,14,27,21,3,-10,-10
-21,-4,19,12,-20,7,14,27,21,3,-10,-10
-21,-4,19,12,-20,7,14,27,21,3,-10,-10
-21,-4,18,12,-20,7,14,27,21,3,-10,-10
-20,-4,18,11,-19,7,14,27,21,3,-10,-10
-20,-3,17,11,-18,6,14,27,21,3,-10,-10
-19,-3,17,10,-18,6,13,27,21,3,-10,-10
-18,-3,16,10,-17,6,13,27,21,3,-10,-10
-18,-3,16,10,-17,6,13,27,21,3,-10,-10
-17,-3,15,10,-16,6,12,27,21,3,-10,-10
-17,-3,15,9,-16,6,12,27,20,3,-10,-10
-16,-3,14,9,-15,5,12,27,20,3,-10,-10
-16,-3,14,8,-15,5,11,27,19,3,-10,-10
-15,-3,13,8,-14,4,11,26,19,3,-10,-9
-14,-3,12,8,-13,4,10,26,19,3,-10,-9
-13,-3,11,8,-12,3,10,25,18,2,-10,-9
-12,-3,11,8,-12,3,9,25,18,2,-10,-9
-11,-3,10,7,-11,3,9,24,17,1,-10,-9
-11,-3,10,7,-11,2,8,24,16,1,-10,-9
-10,-3,9,7,-10,2,8,23,15,0,-10,-9
-9,-3,8,6,-9,1,7,23,14,0,-10,-9
-8,-3,7,5,-8,1,7,22,13,0,-10,-9
-7,-3,6,5,-7,0,6,21,12,-1,-11,-9
-6,-3,5,4,-6,0,6,20,11,-1,-11,-9
-6,-3,5,4,-5,0,5,19,10,-2,-11,-9
-5,-3,4,3,-5,0,5,18,9,-2,-11,-9
-4,-2,4,3,-4,0,4,17,8,-3,-11,-9
-3,-2,3,2,-3,0,3,16,7,-4,-12,-9
-3,-3,2,2,-3,-1,3,15,6,-5,-12,-9
-2,-3,1,2,-2,-1,2,14,4,-6,-12,-9
-1,-3,0,1,-1,-2,1,13,3,-7,-13,-9
0,-3,-1,1,0,-2,1,12,2,-8,-13,-9
0,-4,-1,1,0,-3,0,11,1,-9,-14,-9
0,-4,-2,1,1,-3,0,10,0,-10,-15,-9
1,-4,-3,1,2,-4,0,9,-1,-11,-15,-9
2,-4,-4,0,2,-4,-1,8,-2,-12,-16,-9
2,-4,-5,0,3,-5,-1,7,-3,-12,-16,-9
3,-4,-6,0,4,-5,-2,6,-4,-13,-17,-10
3,-4,-7,0,5,-6,-2,5,-6,-14,-17,-10
4,-5,-8,0,5,-6,-3,5,-7,-14,-17,-10
5,-5,-9,0,6,-7,-3,4,-8,-15,-17,-10
6,-5,-9,-1,7,-8,-3,3,-9,-16,-18,-10
6,-5,-10,-1,8,-9,-4,2,-10,-17,-18,-10
7,-6,-10,-1,8,-9,-4,1,-11,-18,-19,-11
7,-6,-11,-1,9,-9,-5,1,-12,-19,-19,-11
7,-6,-12,-1,9,-10,-5,0,-12,-19,-19,-11
8,-6,-12,-1,10,-10,-5,0,-13,-19,-19,-11
8,-6,-13,-1,10,-10,-5,0,-13,-19,-19,-11
8,-6,-13,-1,11,-11,-6,-1,-14,-20,-19,-11
9,-7,-14,-2,11,-11,-6,-1,-14,-20,-19,-11
9,-7,-14,-2,12,-11,-6,-2,-15,-21,-19,-11
10,-7,-14,-2,12,-11,-6,-2,-15,-21,-19,-10
10,-7,-15,-2,12,-11,-6,-2,-15,-21,-19,-10
10,-7,-15,-3,12,-11,-6,-2,-15,-21,-19,-9
10,-7,-15,-3,12,-11,-6,-2,-15,-21,-19,-9
10,-7,-15,-3,12,-11,-7,-2,-15,-21,-19,-9
11,-7,-15,-3,13,-11,-7,-3,-15,-20,-18,-9
11,-7,-15,-3,13,-11,-7,-3,-15,-20,-18,-9
11,-7,-15,-3,13,-11,-7,-3,-15,-19,-17,-8
11,-7,-15,-3,13,-11,-7,-3,-15,-19,-17,-8
11,-6,-15,-3,13,-11,-7,-3,-14,-18,-16,-7
11,-6,-15,-3,12,-11,-7,-3,-14,-18,-16,-7
10,-6,-14,-3,12,-11,-7,-3,-13,-17,-16,-7
10,-6,-14,-3,12,-11,-7,-3,-13,-17,-15,-7
10,-6,-14,-3,12,-11,-7,-3,-12,-16,-15,-6
10,-6,-14,-3,12,-10,-7,-3,-12,-16,-14,-6
10,-6,-14,-3,12,-10,-7,-3,-12,-15,-13,-6
10,-6,-14,-3,12,-10,-7,-2,-12,-15,-13,-5
10,-6,-13,-3,11,-10,-7,-2,-11,-14,-12,-5
9,-6,-13,-3,11,-9,-7,-1,-11,-13,-12,-5
9,-6,-12,-3,10,-9,-7,-1,-10,-13,-11,-4
8,-5,-12,-3,10,-9,-7,-1,-9,-12,-11,-4
8,-5,-11,-3,10,-9,-7,-1,-8,-11,-10,-4
8,-5,-11,-3,9,-9,-7,-1,-8,-11,-10,-3
8,-5,-11,-3,9,-8,-7,-1,-7,-10,-9,-3
7,-5,-10,-3,9,-8,-7,-1,-7,-9,-9,-3
7,-5,-10,-3,8,-7,-6,0,-6,-9,-8,-3
6,-5,-10,-3,8,-7,-6,0,-6,-8,-8,-3
6,-5,-9,-3,8,-7,-6,0,-5,-8,-7,-2
6,-5,-9,-3,8,-7,-6,0,-5,-7,-7,-2
6,-5,-8,-2,7,-6,-5,0,-5,-7,-6,-2
6,-5,-8,-2,7,-6,-5,0,-5,-7,-6,-1
6,-5,-7,-2,7,-6,-5,0,-5,-6,-6,-1
6,-5,-7,-2,7,-6,-5,0,-4,-6,-6,-1
6,-4,-7,-2,7,-6,-5,0,-4,-5,-6,0
6,-4,-7,-2,7,-6,-5,0,-4,-5,-6,0
6,-4,-7,-2,7,-6,-5,1,-4,-5,-6,0
5,-4,-7,-2,6,-6,-5,1,-4,-5,-5,0
5,-4,-7,-2,6,-6,-5,1,-3,-5,-5,0
5,-4,-7,-2,6,-6,-5,1,-3,-5,-5,0
5,-4,-6,-2,5,-6,-5,1,-3,-5,-4,0
5,-4,-6,-2,5,-5,-5,1,-3,-5,-4,0
5,-4,-6,-2,5,-5,-4,1,-3,-4,-4,0
5,-4,-6,-2,5,-5,-4,1,-3,-4,-4,0
5,-4,-6,-2,5,-5,-4,1,-3,-4,-4,1
5,-4,-6,-2,5,-5,-4,1,-3,-3,-4,1
5,-4,-6,-2,5,-5,-4,1,-3,-3,-4,1
5,-4,-6,-2,5,-5,-4,1,-2,-3,-4,1
5,-4,-5,-2,5,-5,-4,1,-2,-3,-4,1
5,-4,-5,-2,5,-5,-4,1,-2,-3,-4,1
5,-4,-5,-2,5,-5,-4,1,-2,-3,-4,1
4,-3,-5,-2,5,-5,-4,1,-2,-3,-4,1
4,-3,-5,-2,5,-5,-4,1,-2,-3,-3,1
4,-3,-5,-2,5,-5,-4,1,-2,-3,-3,1
3,-3,-5,-1,4,-5,-4,1,-2,-3,-3,1
3,-3,-5,-1,4,-5,-4,1,-2,-3,-3,1
3,-3,-5,-1,4,-5,-3,1,-2,-3,-3,1
3,-3,-5,-1,4,-5,-3,2,-2,-3,-3,1
4,-3,-5,-1,4,-4,-3,2,-2,-3,-3,1
4,-3,-5,-1,4,-4,-3,2,-2,-3,-3,1
4,-3,-5,-1,4,-4,-3,2,-2,-2,-3,1
4,-3,-4,-1,4,-4,-3,2,-1,-2,-3,1
4,-3,-4,-1,4,-4,-3,2,-1,-2,-3,1
4,-3,-4,-1,4,-4,-3,3,-1,-2,-3,1
4,-3,-4,-1,4,-4,-3,3,-1,-2,-2,1
4,-3,-4,-2,4,-4,-3,3,-1,-1,-2,1
4,-2,-4,-2,4,-4,-2,3,-1,-1,-2,1
4,-2,-4,-2,4,-4,-2,3,0,-1,-2,1
4,-2,-4,-2,4,-4,-2,3,0,-1,-2,1
4,-2,-4,-2,4,-4,-2,3,0,-1,-2,1
4,-2,-4,-2,4,-4,-2,3,0,-1,-2,1
4,-2,-4,-2,4,-4,-2,3,0,-1,-2,1
4,-2,-4,-2,4,-4,-2,3,0,-1,-2,1
4,-2,-3,-2,4,-4,-2,3,0,-1,-2,1
4,-2,-3,-2,4,-4,-2,3,0,-1,-2,1
4,-2,-3,-2,4,-4,-2,3,0,0,-2,1
4,-2,-3,-2,4,-4,-2,3,0,0,-2,1
4,-2,-3,-2,4,-4,-2,3,0,0,-2,1
4,-2,-3,-2,4,-4,-2,4,0,0,-2,2
4,-2,-4,-2,4,-4,-2,4,0,0,-2,2
4,-2,-4,-2,4,-4,-2,4,0,0,-2,2
4,-2,-4,-2,4,-4,-2,4,0,0,-2,2
4,-2,-4,-2,4,-4,-2,4,0,0,-2,2
4,-2,-4,-2,4,-4,-2,5,0,0,-2,2
4,-2,-4,-2,4,-4,-2,5,0,0,-2,1
4,-2,-4,-2,4,-4,-2,5,0,0,-2,1
4,-2,-4,-2,4,-4,-2,5,0,0,-2,1
4,-2,-4,-2,5,-4,-2,5,0,0,-1,2
4,-2,-4,-2,5,-4,-2,5,0,0,-1,2
4,-2,-4,-2,5,-4,-2,5,0,0,-1,2
4,-2,-4,-2,5,-4,-2,5,0,0,-1,2
4,-2,-4,-2,5,-4,-2,5,0,0,-1,2
4,-2,-4,-2,5,-4,-2,5,0,0,-1,2
4,-2,-4,-2,5,-4,-1,5,0,0,-1,2
4,-2,-4,-2,5,-4,-1,5,0,0,-1,2
4,-2,-4,-2,5,-4,-1,5,0,0,-1,2
4,-2,-4,-2,5,-4,-1,5,0,0,-1,2
4,-2,-4,-2,5,-3,-1,6,1,0,-1,2
4,-2,-4,-2,5,-3,-1,6,1,0,-1,2
4,-2,-4,-2,5,-3,-1,6,1,0,-1,2
4,-2,-4,-2,5,-3,-1,6,1,0,-2,2
3,-2,-4,-2,4,-3,-1,6,0,-1,-2,2
3,-2,-4,-2,4,-3,-2,5,0,-1,-2,2
3,-2,-4,-2,4,-3,-2,5,0,-1,-2,2
4,-1,-3,-2,4,-3,-2,5,0,-1,-2,2
4,-1,-3,-3,4,-3,-2,5,0,-1,-2,2
4,-1,-3,-3,4,-3,-2,5,0,-1,-2,2
4,-1,-3,-3,4,-3,-2,5,0,-1,-2,2
4,-1,-3,-3,4,-3,-2,5,0,-1,-2,2
4,-1,-3,-3,4,-3,-2,5,0,-1,-2,2
4,-1,-3,-3,4,-3,-2,5,0,-1,-2,2
4,-1,-3,-3,4,-3,-2,5,0,-1,-2,2
4,-1,-3,-3,4,-3,-2,5,0,-1,-2,2
4,-1,-3,-2,4,-3,-2,5,0,-1,-2,1
4,-2,-3,-2,4,-3,-2,5,0,-1,-2,1
4,-2,-3,-2,4,-3,-2,5,0,-1,-2,1
4,-2,-3,-2,4,-3,-2,5,0,-1,-2,1
4,-2,-3,-2,4,-3,-2,5,0,-1,-2,1
4,-2,-3,-2,4,-3,-2,5,0,-2,-2,1
4,-2,-3,-2,5,-3,-2,5,0,-2,-2,1
4,-2,-3,-2,5,-3,-1,5,0,-2,-2,1
4,-2,-4,-2,5,-3,-1,5,0,-2,-2,1
4,-2,-4,-2,5,-3,-1,5,0,-2,-2,1
4,-2,-4,-2,5,-3,-1,4,0,-2,-2,1
4,-2,-4,-2,5,-3,-1,4,0,-2,-2,1
4,-2,-5,-2,5,-3,-1,4,0,-2,-2,1
5,-2,-5,-2,5,-3,-1,4,0,-2,-2,1
5,-2,-5,-2,5,-3,-1,4,0,-2,-2,1
5,-2,-5,-2,5,-3,-1,4,0,-2,-2,1
5,-2,-5,-2,5,-3,-1,4,0,-2,-3,1
5,-2,-5,-2,6,-3,-1,4,0,-2,-3,0
5,-2,-5,-2,6,-4,-1,4,0,-2,-3,0
5,-2,-5,-2,6,-4,-1,4,0,-2,-3,0
5,-2,-5,-2,6,-4,-1,4,0,-2,-3,0
4,-2,-5,-2,6,-4,-1,4,0,-2,-3,0
4,-2,-5,-2,6,-4,-1,4,0,-2,-3,0
4,-2,-5,-2,6,-4,-1,4,0,-2,-3,0
4,-2,-5,-2,6,-4,-1,4,0,-2,-3,0
4,-2,-5,-2,6,-4,-1,4,0,-2,-3,0
4,-2,-5,-2,5,-4,-1,4,0,-2,-3,0
4,-2,-5,-2,5,-4,-1,4,0,-2,-3,0
4,-3,-5,-2,5,-4,-1,4,0,-2,-3,0
4,-3,-5,-2,5,-4,-1,4,0,-2,-3,0
4,-3,-5,-2,5,-4,-1,4,0,-2,-3,0
4,-3,-5,-1,5,-4,-1,4,0,-2,-3,0
4,-3,-5,-1,5,-4,-1,4,0,-2,-3,0
4,-3,-5,-1,5,-4,-1,4,0,-2,-3,0
4,-3,-5,-1,5,-4,-1,4,0,-2,-3,0
4,-3,-5,-1,5,-4,-1,4,0,-2,-3,0
4,-3,-5,-1,5,-4,-1,4,0,-2,-3,0
4,-3,-5,-1,5,-4,-1,4,0,-2,-3,0
3,-3,-5,-1,5,-4,-1,4,0,-2,-3,0
3,-3,-4,-1,5,-3,-1,4,0,-2,-3,0
3,-3,-4,-1,5,-4,-1,4,0,-2,-3,0
3,-3,-5,-1,5,-4,-1,4,0,-2,-3,0
3,-3,-5,-1,5,-4,-1,4,0,-2,-3,0
3,-3,-5,-1,5,-4,-1,4,0,-2,-3,0
3,-3,-5,-1,5,-4,-1,4,0,-2,-3,0
3,-2,-5,-1,5,-4,-1,4,0,-2,-3,0
3,-2,-5,-1,5,-4,-1,4,0,-2,-3,0
3,-2,-5,-1,4,-4,-1,4,0,-2,-3,0
3,-2,-5,-1,4,-4,-1,4,0,-2,-3,0
3,-2,-5,-1,4,-4,-1,4,0,-2,-3,0
3,-2,-5,-1,4,-4,-1,4,0,-2,-3,0
2,-2,-5,-1,4,-4,-1,4,0,-2,-3,0
2,-3,-5,-1,4,-4,-1,4,0,-2,-3,0
2,-3,-5,-1,4,-4,-1,4,0,-2,-3,0
2,-3,-5,-1,4,-3,-1,3,0,-2,-3,0
2,-3,-5,0,4,-3,-1,3,0,-2,-3,0
2,-3,-4,0,4,-3,-1,3,0,-2,-3,0
2,-3,-4,0,4,-3,-1,3,0,-2,-3,0
2,-2,-4,0,4,-3,-1,3,0,-2,-3,0
2,-2,-4,-1,4,-3,-1,3,0,-2,-3,0
2,-2,-4,-1,4,-3,-1,3,0,-2,-3,0
2,-2,-4,-1,4,-3,-1,3,0,-2,-3,0
2,-2,-4,-1,4,-3,-1,3,0,-2,-3,0
2,-2,-4,-1,4,-3,-1,3,0,-2,-3,0
2,-2,-4,-1,4,-3,-1,3,0,-2,-3,0
2,-2,-4,-1,4,-3,-1,3,0,-2,-2,1
2,-2,-4,-1,4,-3,-1,3,0,-2,-2,1
2,-2,-4,-1,4,-3,-1,3,0,-2,-2,0
2,-2,-4,-1,4,-3,-1,3,0,-2,-2,0
2,-2,-4,-1,4,-3,-1,3,0,-2,-2,0
2,-2,-4,-1,4,-3,-1,3,0,-2,-2,0
2,-2,-4,-1,4,-3,-1,3,0,-2,-2,0
2,-2,-4,-1,4,-3,-1,3,0,-2,-2,0
2,-2,-4,-1,4,-3,-1,3,0,-2,-2,0
2,-2,-4,-1,4,-3,-1,3,0,-1,-2,0
2,-2,-4,-1,4,-3,-1,3,0,-1,-2,0
2,-2,-4,-1,4,-3,-1,3,0,-1,-2,0
2,-2,-4,-1,4,-3,-1,3,0,-1,-2,0
2,-2,-4,-1,4,-3,-1,3,0,-1,-2,0
2,-2,-4,-1,4,-3,-1,3,0,-1,-2,1
2,-2,-4,-1,4,-3,-1,3,0,-1,-2,1
2,-2,-4,-1,4,-3,-1,3,0,-1,-2,1
2,-3,-4,0,3,-3,-1,3,0,-1,-2,0
1,-3,-4,0,3,-3,0,3,0,-1,-2,0
1,-3,-4,0,3,-3,0,3,0,-1,-2,0
1,-3,-4,0,3,-3,0,2,0,-1,-2,0
1,-3,-4,0,3,-3,0,2,0,-1,-2,0
1,-2,-4,0,3,-2,0,2,0,-1,-1,0
1,-2,-4,0,3,-2,0,2,0,-1,-1,0
1,-2,-4,0,3,-2,0,2,0,-1,-1,0
1,-2,-4,0,3,-2,0,2,0,-1,-1,0
1,-2,-4,0,3,-2,0,2,0,-1,-1,0
1,-2,-4,0,3,-2,0,2,0,-1,-1,0
1,-2,-4,0,3,-2,0,2,0,0,-1,0
1,-2,-4,0,3,-2,0,2,0,0,-1,0
1,-2,-4,0,3,-2,0,2,0,0,-1,0
1,-2,-4,0,3,-2,0,2,0,0,-1,0
1,-2,-4,0,3,-2,0,2,0,0,-1,0
1,-2,-4,0,3,-3,0,2,0,0,-1,0
