leadI,leadII,leadIII,leadaVR,leadaVL,leadaVF,leadV1,leadV2,leadV3,leadV4,leadV5,leadV6
-3,-1,2,2,-3,0,-1,-1,-2,-3,-2,-1
-9,-3,6,6,-7,1,-2,-3,-5,-7,-7,-3
-12,-3,9,7,-10,2,-3,-4,-7,-9,-9,-4
-14,-2,11,8,-12,4,-3,-4,-7,-10,-9,-5
-14,-2,12,8,-13,4,-3,-4,-8,-11,-10,-5
-14,-3,12,9,-13,4,-3,-4,-8,-11,-10,-5
-16,-3,12,10,-14,4,-4,-4,-7,-11,-10,-5
-19,-4,15,11,-16,5,-4,-3,-6,-11,-10,-4
-21,-5,16,13,-18,5,-4,-3,-6,-11,-10,-3
-23,-7,15,15,-19,3,-5,-4,-7,-12,-11,-4
-24,-8,15,16,-19,3,-6,-5,-7,-12,-12,-5
-26,-9,16,17,-20,2,-6,-6,-7,-12,-12,-5
-29,-11,17,20,-23,2,-7,-6,-8,-12,-12,-6
-30,-12,17,21,-24,2,-7,-6,-7,-12,-11,-5
-29,-11,18,20,-23,3,-6,-5,-6,-11,-11,-5
-28,-10,18,19,-23,4,-6,-5,-6,-11,-11,-4
-30,-10,19,20,-24,4,-7,-5,-6,-11,-11,-4
-30,-10,20,20,-25,4,-8,-5,-6,-11,-11,-4
-29,-9,20,19,-24,5,-8,-4,-5,-10,-10,-4
-28,-8,19,18,-23,5,-8,-4,-5,-9,-10,-3
-28,-9,19,18,-23,5,-8,-4,-5,-9,-10,-3
-29,-10,18,19,-24,4,-8,-4,-5,-9,-10,-4
-30,-12,18,20,-24,3,-8,-4,-5,-10,-11,-4
-31,-13,17,22,-24,2,-8,-5,-6,-10,-11,-5
-32,-14,18,22,-24,2,-8,-5,-6,-10,-11,-5
-31,-13,18,21,-24,3,-7,-4,-5,-10,-10,-4
-28,-10,18,18,-23,4,-5,-4,-4,-9,-9,-3
-24,-7,17,15,-20,5,-4,-3,-3,-8,-8,-3
-23,-7,16,15,-20,5,-4,-3,-3,-8,-8,-3
-25,-9,17,17,-21,4,-5,-3,-4,-8,-9,-3
-29,-10,19,19,-24,5,-6,-3,-4,-9,-9,-3
-31,-9,22,20,-26,7,-5,-3,-3,-8,-9,-3
-32,-10,22,21,-27,6,-4,-3,-3,-8,-9,-2
-32,-11,21,21,-26,5,-3,-4,-3,-8,-9,-2
-31,-10,20,20,-25,5,-2,-4,-3,-8,-9,-2
-30,-11,19,20,-24,4,-2,-4,-3,-8,-9,-2
-29,-11,18,20,-23,3,-2,-4,-3,-8,-9,-2
-28,-9,19,18,-23,4,-2,-4,-3,-8,-9,-2
-28,-7,20,18,-24,6,-3,-3,-2,-7,-9,-2
-29,-7,22,18,-25,7,-3,-3,-2,-7,-9,-2
-30,-7,22,19,-25,7,-3,-3,-2,-7,-9,-2
-29,-7,21,18,-24,6,-3,-2,-2,-7,-8,-1
-25,-5,20,15,-22,7,-2,-2,-1,-6,-7,0
-22,-3,19,12,-20,7,-2,-2,-1,-6,-7,0
-20,-3,18,11,-19,7,-2,-3,-1,-6,-7,-1
-21,-3,19,12,-20,8,-2,-2,-1,-6,-7,-1
-24,-4,20,14,-22,8,-2,-2,0,-6,-6,0
-26,-5,20,15,-23,8,-2,-2,0,-6,-6,0
-24,-4,20,14,-22,8,-1,-2,0,-5,-6,0
-22,-3,19,13,-21,8,0,-1,0,-5,-5,1
-23,-2,20,13,-21,9,0,-1,1,-4,-5,1
-24,-2,21,13,-23,9,0,-1,1,-4,-5,1
-23,-1,21,12,-23,10,-1,0,1,-4,-5,1
-23,0,21,11,-22,10,-1,0,2,-3,-4,2
-24,-1,22,12,-23,10,-1,0,2,-3,-4,2
-25,-1,23,12,-24,11,-1,1,3,-2,-3,3
-24,0,23,12,-24,12,-1,1,3,-2,-3,3
-23,0,22,11,-22,12,-1,1,3,-2,-4,3
-21,0,20,11,-21,10,-1,0,2,-2,-4,3
-23,-2,20,12,-21,8,-1,0,2,-3,-4,3
-26,-4,21,14,-23,8,-1,0,2,-3,-4,3
-27,-4,23,15,-25,9,0,-1,2,-3,-4,3
-26,-3,23,14,-24,9,0,-1,2,-3,-4,3
-25,-2,22,13,-23,10,0,0,3,-2,-4,3
-23,-1,22,12,-22,11,-1,0,3,-2,-3,3
-30,-8,22,19,-25,7,-5,-3,1,-4,-5,1
-39,-17,22,28,-30,3,-8,-5,-1,-6,-7,-1
-37,-14,23,26,-30,4,-7,-4,0,-4,-6,0
-30,-7,23,18,-26,7,-4,-1,3,-1,-3,3
-26,-3,22,14,-24,9,-2,0,5,0,-2,4
-24,-1,22,12,-23,10,-2,0,5,0,-2,4
-22,1,23,10,-23,11,-1,1,7,2,-1,5
-19,4,23,7,-22,13,0,2,8,3,0,7
-18,6,23,6,-21,14,0,3,9,4,1,8
-18,5,23,6,-20,14,-1,3,9,5,2,8
-18,5,23,7,-20,14,-1,3,10,5,3,9
-17,5,22,6,-20,13,0,3,11,6,3,10
-16,6,22,5,-19,13,0,3,11,7,3,10
-16,6,22,4,-19,13,0,3,11,7,3,10
-15,7,22,4,-19,14,1,3,12,8,4,10
-13,8,21,2,-17,14,2,4,13,9,5,11
-13,7,21,2,-16,14,2,4,13,9,5,11
-19,2,22,8,-20,12,1,3,13,9,4,10
-26,-3,24,14,-24,11,0,2,12,8,4,10
-27,-2,25,15,-26,11,0,3,13,9,4,10
-27,-2,25,14,-26,11,-1,3,14,10,5,11
-28,-4,23,15,-25,10,-2,3,13,10,5,11
-32,-8,23,20,-28,7,-6,1,11,8,3,9
-36,-12,23,24,-30,5,-9,-1,10,6,1,7
-33,-10,22,21,-28,6,-8,0,11,8,3,9
-36,-14,22,25,-29,4,-9,1,11,9,3,9
-45,-23,22,34,-34,0,-12,-1,9,7,1,7
-40,-17,23,28,-32,3,-10,1,12,9,4,9
-30,-5,25,17,-27,10,-6,5,16,14,8,12
-29,-4,24,16,-27,10,-6,5,16,14,8,13
-31,-7,22,19,-27,7,-9,2,13,12,6,11
-27,-5,21,16,-24,8,-9,2,13,13,7,12
-17,3,21,7,-19,12,-5,5,16,16,10,15
-11,11,22,0,-16,17,-2,8,19,19,14,18
-9,14,23,-2,-16,19,0,10,21,20,16,20
-10,14,24,-2,-17,19,0,11,22,21,17,21
-9,16,24,-3,-16,20,1,12,23,23,18,22
-5,19,23,-7,-14,22,1,13,24,24,19,23
0,21,21,-11,-11,22,0,13,24,24,20,23
2,21,19,-12,-8,20,0,12,24,24,19,22
2,20,18,-11,-8,19,-1,12,23,23,19,22
1,20,20,-10,-9,20,-2,12,23,24,19,23
0,21,21,-10,-9,21,-2,12,24,24,19,23
-1,20,21,-9,-10,21,-2,12,24,24,20,23
-4,18,21,-7,-12,19,-3,12,23,24,20,23
-6,16,21,-5,-13,18,-3,11,23,23,19,22
-5,16,21,-6,-13,18,-3,11,22,23,19,22
-2,18,20,-8,-11,19,-2,11,22,23,19,22
0,19,20,-10,-10,19,-2,11,22,23,19,22
1,19,19,-10,-9,19,-2,11,22,23,19,23
0,20,20,-10,-9,20,-2,11,23,23,19,23
-1,20,22,-9,-11,21,0,12,24,23,19,23
0,22,22,-11,-11,22,1,13,25,24,20,24
0,22,21,-12,-10,22,2,13,25,24,20,24
0,20,20,-10,-9,20,2,13,24,23,19,24
-2,18,19,-8,-10,18,2,12,23,22,18,23
-1,18,20,-8,-10,19,2,12,23,21,17,22
0,19,20,-9,-10,19,3,12,23,21,18,22
1,20,19,-10,-9,19,4,13,23,21,17,22
2,19,17,-10,-8,18,4,12,22,20,17,22
0,17,16,-8,-8,17,4,12,22,19,16,21
-2,16,17,-7,-9,17,4,12,22,19,16,20
-3,16,19,-7,-10,17,4,13,22,18,15,20
-3,16,19,-7,-10,17,5,13,22,18,15,20
0,18,19,-8,-9,17,6,13,22,18,15,20
1,20,19,-10,-8,18,7,13,22,17,14,20
1,19,18,-9,-8,18,7,12,20,16,13,19
0,17,18,-7,-9,17,8,11,19,15,12,18
-2,16,18,-6,-10,17,9,11,19,14,12,18
-2,17,19,-7,-10,17,10,11,19,13,12,17
-1,18,18,-8,-9,18,11,11,18,13,11,17
0,18,18,-9,-8,18,11,11,18,12,11,17
-1,18,19,-9,-9,18,11,10,17,11,10,17
-2,17,20,-7,-11,18,11,11,17,11,10,17
-3,17,21,-7,-12,18,12,11,17,11,10,17
-2,17,20,-7,-11,18,12,11,17,10,10,16
-1,18,19,-8,-10,18,13,10,16,9,9,16
-1,17,18,-8,-9,18,13,10,15,8,8,15
-1,16,17,-8,-9,17,12,9,14,8,8,14
0,16,16,-8,-8,16,12,9,14,7,7,14
0,16,16,-9,-7,16,12,8,13,6,7,14
0,17,16,-9,-8,16,12,8,12,5,6,13
0,17,17,-8,-9,17,12,8,12,5,6,13
-1,16,17,-7,-9,16,13,8,11,4,6,13
-1,16,17,-6,-9,16,13,8,11,4,5,12
-1,15,15,-6,-8,15,12,8,10,3,5,11
-1,14,15,-6,-7,15,12,8,10,3,4,11
-1,14,15,-6,-7,15,11,8,10,3,4,10
-1,14,15,-7,-7,15,11,8,10,3,4,10
-2,13,15,-6,-8,13,10,7,10,3,4,10
-3,11,14,-4,-8,12,10,7,9,2,3,10
-3,11,15,-4,-8,12,10,7,9,2,4,10
-4,12,16,-4,-9,13,10,8,10,3,4,11
-7,11,18,-2,-12,14,11,9,10,3,4,11
-10,10,19,0,-14,14,11,9,10,3,5,11
-9,11,19,-1,-14,15,12,9,11,3,5,11
-9,11,20,-2,-14,16,12,9,11,3,5,11
-9,11,20,-2,-14,15,12,10,11,3,5,11
-7,12,20,-3,-13,15,12,10,11,3,5,11
-6,13,20,-3,-12,15,12,10,11,3,5,11
-7,11,20,-2,-13,15,12,9,10,2,5,10
-9,11,20,-1,-14,15,11,9,9,1,4,9
-8,13,20,-2,-14,16,11,9,9,2,5,9
-6,15,20,-4,-13,17,12,10,10,3,5,10
-6,15,20,-5,-12,17,12,11,11,3,6,10
-5,15,20,-5,-12,17,12,10,10,4,6,10
-4,15,19,-5,-11,16,12,10,10,4,6,10
-4,14,19,-5,-11,16,12,10,10,3,5,10
-5,14,19,-4,-12,16,12,10,10,3,5,10
-4,14,19,-4,-12,17,13,11,11,4,6,10
-6,13,19,-3,-12,17,13,10,11,3,5,9
-10,10,20,0,-15,16,12,9,10,3,4,8
-13,8,21,2,-17,15,12,9,9,2,3,8
-15,7,21,4,-18,14,11,8,9,2,3,7
-16,6,22,5,-18,13,11,8,9,2,3,7
-16,5,22,5,-19,13,11,9,9,2,3,7
-17,5,22,5,-19,13,11,9,9,2,3,7
-17,5,22,5,-20,13,10,8,8,2,3,7
-17,5,22,5,-20,13,10,9,8,2,3,7
-17,5,21,6,-20,13,10,9,9,2,4,7
-19,4,22,7,-21,13,9,9,9,2,4,7
-21,2,23,10,-22,12,9,9,9,2,3,7
-22,2,23,10,-23,12,8,8,8,1,3,7
-20,3,23,9,-22,12,8,8,8,1,3,7
-19,3,22,8,-21,12,8,8,8,1,3,7
-16,3,19,7,-18,10,8,7,7,2,3,7
-13,5,17,4,-15,10,9,7,7,2,3,7
-12,6,18,3,-15,12,9,8,8,3,4,7
-15,6,22,4,-18,14,10,9,9,3,4,7
-19,6,25,6,-22,15,10,9,9,3,4,8
-22,5,27,8,-24,16,11,9,10,3,4,8
-23,4,27,9,-25,15,12,9,9,3,4,8
-22,3,25,9,-24,14,12,8,9,3,4,8
-22,3,24,9,-22,13,11,8,8,3,4,8
-22,2,23,10,-22,12,11,7,8,3,4,8
-21,1,23,10,-22,12,11,7,8,3,4,8
-21,1,22,10,-22,11,11,7,7,2,3,8
-22,0,21,11,-22,10,9,6,7,1,2,7
-23,-2,21,13,-22,10,7,6,6,0,1,6
-24,-2,21,13,-23,10,6,6,6,0,1,6
-25,-2,22,14,-24,10,6,7,6,1,2,7
-26,-2,23,14,-24,10,6,8,7,2,3,7
-24,-1,23,13,-24,10,6,9,8,2,3,8
-23,-1,22,12,-22,9,6,9,7,2,3,7
-23,-2,21,12,-21,8,5,8,6,1,2,6
-24,-2,22,13,-22,9,5,7,6,1,2,6
-26,-2,24,14,-25,10,6,8,6,1,2,6
-28,-2,26,14,-26,12,7,9,7,2,3,7
-27,0,26,13,-26,12,8,10,8,3,4,8
-24,1,25,11,-24,13,10,11,8,4,5,9
-23,2,24,10,-24,13,11,11,8,4,5,10
-23,3,25,10,-24,14,11,11,8,4,5,9
-23,2,25,11,-24,14,11,12,8,4,5,9
-22,3,25,10,-23,13,12,12,9,4,5,10
-20,5,26,7,-23,15,13,13,10,5,6,10
-19,7,26,6,-23,16,14,14,11,6,7,11
-19,6,25,6,-22,15,14,14,11,6,7,11
-20,4,24,8,-23,14,13,13,10,5,6,10
-22,1,23,11,-23,12,11,12,8,4,5,9
-22,1,23,10,-22,12,11,12,8,4,5,9
-18,5,23,6,-20,14,12,13,9,5,6,10
-16,7,23,4,-19,15,12,13,10,6,7,11
-18,5,23,6,-21,14,11,12,10,5,6,10
-21,2,23,10,-22,12,8,10,8,3,4,8
-23,0,23,12,-23,11,6,8,7,2,3,8
-25,-1,23,13,-24,11,4,7,6,2,3,7
-27,-2,25,15,-26,11,2,7,6,2,3,7
-29,-4,25,16,-27,11,1,7,6,2,3,7
-28,-5,24,16,-26,10,0,7,5,1,3,7
-28,-5,23,16,-25,9,-2,6,4,0,2,6
-29,-6,22,17,-25,8,-3,5,4,-1,2,6
-30,-6,22,18,-26,8,-2,4,4,-1,2,6
-30,-5,24,17,-27,9,-1,4,4,0,2,7
-30,-4,25,17,-28,10,0,5,4,0,2,7
-30,-4,26,17,-28,10,0,4,4,0,3,7
-30,-4,25,17,-28,10,0,3,3,-1,2,6
-28,-4,24,16,-27,9,0,3,2,-1,2,6
-27,-4,23,15,-25,9,1,3,2,-2,2,6
-27,-4,23,15,-25,9,2,3,2,-2,2,7
-27,-3,23,15,-25,10,3,3,3,-1,2,7
-26,-1,24,13,-25,12,4,3,4,0,3,8
-23,1,24,11,-24,13,5,3,5,1,3,8
-23,1,23,11,-23,12,6,3,5,1,4,8
-25,0,23,12,-24,11,7,3,5,1,4,8
-27,-2,24,14,-25,11,8,4,5,1,4,9
-28,-3,25,15,-26,11,9,4,6,1,5,9
-27,-3,24,15,-26,10,9,4,6,1,4,9
-27,-4,23,15,-25,9,8,4,5,0,3,8
-27,-5,22,16,-25,9,7,3,4,0,2,7
-29,-7,22,18,-25,8,5,2,3,-1,1,5
-30,-9,21,20,-25,6,5,1,2,-2,0,4
-29,-9,20,20,-24,5,5,1,2,-3,0,4
-27,-9,19,18,-23,5,6,1,2,-3,0,4
-25,-7,18,16,-22,6,7,2,3,-3,0,4
-22,-4,18,13,-20,7,8,2,3,-3,0,5
-22,-4,18,13,-20,7,8,2,3,-3,-1,5
-24,-6,18,15,-21,5,7,1,2,-4,-2,4
-26,-8,18,17,-22,4,7,1,2,-4,-2,3
-28,-9,18,18,-22,4,6,1,2,-4,-2,3
-30,-10,19,20,-24,4,6,1,2,-4,-2,3
-33,-13,19,23,-26,3,5,0,2,-4,-3,3
-35,-15,19,24,-27,2,4,-1,1,-5,-3,2
-34,-14,19,23,-27,3,4,-1,1,-5,-3,2
-33,-13,20,22,-27,4,4,0,1,-5,-3,2
-32,-11,20,21,-26,4,4,0,1,-4,-3,2
-28,-9,19,18,-23,5,5,0,2,-4,-2,2
-27,-8,18,17,-22,4,6,0,2,-3,-2,2
-27,-9,18,18,-22,3,6,0,2,-3,-2,2
-27,-9,17,18,-22,3,6,1,2,-3,-2,2
-28,-10,18,19,-23,3,5,1,2,-4,-2,2
-30,-11,18,20,-24,3,5,0,1,-4,-3,2
-31,-12,18,21,-24,2,4,0,0,-5,-3,1
-30,-12,17,21,-24,2,4,0,0,-5,-3,1
-30,-12,18,21,-24,2,5,-1,0,-5,-3,1
-31,-12,18,21,-24,3,5,-1,0,-5,-2,1
-31,-12,19,21,-24,3,5,-1,1,-4,-2,1
-30,-11,19,20,-24,3,5,-1,0,-4,-2,1
-28,-10,18,19,-23,3,5,-1,1,-4,-2,1
-28,-10,18,19,-23,3,6,0,1,-4,-2,2
-29,-10,18,19,-24,3,7,0,1,-4,-2,2
-30,-9,20,19,-25,4,8,0,1,-4,-2,2
-31,-8,22,19,-26,6,9,0,1,-4,-2,2
-30,-8,21,19,-25,6,9,-1,1,-4,-2,1
-27,-8,19,18,-22,5,8,-2,1,-5,-3,1
-23,-6,16,15,-19,4,8,-2,0,-5,-3,0
-22,-5,17,14,-20,5,8,-2,1,-4,-3,1
-26,-6,20,16,-23,7,9,0,2,-3,-1,3
-30,-4,25,17,-28,10,11,0,3,-2,0,4
-31,0,30,15,-31,15,12,1,4,-1,1,6
-32,4,35,14,-33,19,13,1,6,0,3,7
-34,5,39,15,-36,21,14,2,8,1,4,8
-36,6,42,16,-39,23,15,6,12,4,6,9
-36,7,44,16,-40,25,17,12,18,10,10,12
-36,9,45,14,-41,27,18,18,25,18,15,16
-35,12,47,11,-42,29,19,23,33,26,20,20
-33,16,49,8,-41,32,18,24,39,34,27,25
-29,21,49,3,-39,35,15,20,45,44,34,30
-22,28,49,-3,-36,38,11,14,51,57,45,38
-13,37,49,-11,-31,42,5,8,59,74,58,48
-3,46,49,-21,-25,47,-2,0,67,92,73,59
5,51,46,-28,-19,48,-9,-10,71,104,84,67
13,51,37,-32,-11,43,-16,-20,70,109,88,70
21,45,24,-33,-1,34,-22,-29,64,105,85,68
28,37,8,-33,9,22,-30,-40,53,95,78,61
32,27,-6,-30,19,9,-39,-51,37,80,67,53
36,17,-20,-27,28,-2,-47,-62,19,60,54,43
39,7,-32,-23,36,-14,-51,-70,0,37,39,32
40,-3,-43,-18,42,-24,-52,-78,-20,13,23,20
39,-12,-51,-13,45,-32,-51,-85,-40,-11,7,8
36,-22,-58,-6,47,-40,-49,-91,-58,-34,-7,-3
32,-31,-62,0,47,-47,-47,-97,-74,-54,-20,-12
29,-36,-64,3,46,-50,-44,-101,-86,-69,-30,-20
26,-38,-64,5,44,-51,-42,-103,-93,-79,-37,-25
22,-40,-63,8,42,-52,-41,-101,-95,-83,-42,-29
20,-42,-62,11,41,-52,-39,-97,-94,-83,-44,-32
19,-41,-62,11,40,-52,-37,-90,-90,-81,-45,-34
20,-40,-60,10,40,-50,-35,-83,-84,-77,-45,-34
18,-39,-56,10,37,-48,-32,-75,-77,-73,-44,-34
13,-38,-50,12,31,-44,-28,-66,-68,-66,-41,-32
7,-35,-42,13,24,-39,-23,-56,-59,-58,-37,-28
3,-31,-34,13,18,-33,-19,-48,-51,-51,-33,-25
1,-26,-28,11,15,-28,-16,-41,-45,-45,-30,-23
0,-23,-24,11,12,-24,-13,-35,-39,-40,-27,-20
-1,-20,-20,11,10,-21,-10,-30,-34,-36,-24,-18
-4,-18,-15,11,6,-17,-7,-25,-28,-31,-21,-15
-7,-16,-8,12,0,-12,-3,-19,-22,-26,-18,-13
-9,-11,-1,11,-4,-6,1,-14,-16,-20,-14,-9
-11,-7,5,9,-8,-1,3,-9,-10,-15,-11,-6
-14,-7,8,11,-12,1,4,-7,-7,-12,-9,-5
-18,-9,10,13,-14,1,4,-6,-6,-10,-8,-4
-19,-8,11,13,-15,1,4,-4,-5,-9,-7,-3
-19,-7,12,13,-15,2,4,-3,-4,-8,-6,-2
-22,-8,13,15,-17,2,4,-2,-4,-8,-6,-2
-24,-8,15,16,-19,3,4,-2,-3,-7,-6,-1
-23,-7,16,15,-20,4,6,-1,-1,-6,-5,0
-23,-6,17,15,-21,5,7,0,0,-5,-4,0
-24,-6,18,15,-22,5,7,0,0,-5,-4,0
-25,-7,18,15,-22,5,7,0,0,-5,-4,0
-25,-6,18,15,-21,5,6,0,0,-5,-4,0
-25,-6,18,15,-21,5,6,0,0,-4,-3,1
-25,-6,19,15,-21,6,6,1,1,-4,-3,1
-25,-6,19,15,-21,6,6,2,1,-4,-3,1
-24,-5,19,15,-21,7,5,2,1,-4,-4,1
-23,-5,18,15,-21,6,4,2,2,-3,-4,1
-23,-6,17,15,-21,6,4,2,2,-3,-3,1
-23,-6,17,15,-21,6,3,3,3,-3,-3,1
-24,-6,17,15,-21,6,3,2,3,-3,-3,1
-23,-6,17,14,-20,5,3,2,2,-4,-3,1
-22,-6,16,14,-19,5,3,1,2,-5,-4,0
-22,-5,17,14,-19,5,4,1,1,-5,-4,0
-23,-5,18,14,-21,6,4,1,1,-5,-4,0
-24,-6,18,15,-22,6,4,1,2,-4,-4,0
-23,-6,17,15,-21,5,4,2,2,-4,-4,0
-22,-6,17,14,-20,5,4,2,3,-3,-3,0
-22,-4,18,13,-20,6,4,3,4,-3,-2,1
-22,-3,18,12,-20,7,4,4,4,-2,-2,1
-21,-2,18,12,-20,7,4,4,5,-2,-2,1
-21,-2,18,12,-20,8,4,4,5,-2,-2,1
-23,-3,19,14,-21,8,4,4,6,-2,-2,2
-23,-3,20,14,-22,8,5,4,6,-1,-1,2
-20,0,20,10,-20,10,6,5,7,-1,-1,3
-16,3,19,6,-18,11,7,5,7,-1,0,3
-15,3,19,5,-18,11,7,4,7,-1,0,3
-17,1,19,8,-18,9,7,4,7,-1,-1,2
-19,-1,18,10,-18,8,7,4,7,-1,-1,2
-18,-1,17,10,-17,8,7,4,7,-1,-1,2
-17,-1,15,9,-16,7,6,4,7,-1,-1,2
-17,-2,14,9,-15,6,6,3,7,-2,-2,1
-17,-2,14,9,-16,5,5,3,6,-2,-2,1
-19,-2,15,10,-17,5,5,3,6,-2,-3,0
-20,-3,16,12,-19,5,4,2,6,-2,-3,0
-20,-4,16,12,-19,5,4,3,6,-2,-2,0
-21,-4,16,13,-19,5,4,3,7,-2,-2,1
-22,-5,17,14,-20,6,4,4,7,-1,-2,1
-20,-2,18,11,-19,8,4,4,8,-1,-2,1
-17,2,19,8,-18,10,3,5,8,-1,-1,1
-14,4,18,5,-16,11,3,5,8,-1,-1,2
-11,5,16,2,-14,10,3,5,9,0,0,2
-10,6,16,1,-14,10,3,5,10,0,0,3
-13,5,18,4,-16,10,4,6,10,1,0,4
-18,1,19,8,-19,10,4,5,10,0,0,3
-22,-2,20,12,-20,8,3,4,9,0,-1,2
-23,-4,19,14,-20,7,2,4,8,-1,-1,1
-23,-5,18,15,-20,6,0,4,8,-1,-2,1
-23,-4,19,14,-21,7,0,4,8,-1,-1,1
-23,-3,20,13,-22,8,0,5,9,0,-1,1
-23,-2,21,13,-22,9,0,5,9,1,0,2
-22,-2,21,12,-22,9,0,6,10,1,0,2
-21,0,21,11,-21,10,0,6,11,2,1,3
-19,2,21,8,-20,11,0,7,12,3,2,5
-17,3,20,7,-18,11,1,8,13,4,3,6
-16,3,18,6,-17,10,1,8,12,4,3,6
-14,3,18,5,-17,10,2,7,12,4,3,5
-13,5,19,3,-17,11,3,7,12,4,3,5
-13,6,20,2,-17,12,4,7,13,4,3,6
-12,7,19,2,-16,12,4,7,13,5,3,6
-11,6,17,2,-14,11,3,7,13,4,3,5
-11,5,16,2,-13,11,1,6,13,4,2,5
-12,5,16,3,-14,11,0,6,13,4,2,5
-12,6,17,3,-15,12,1,6,13,5,3,6
-12,7,18,2,-15,12,2,7,14,7,4,6
-12,6,19,3,-16,12,2,7,15,8,5,6
-13,6,20,3,-16,12,2,7,15,8,5,6
-13,7,21,2,-17,13,2,8,16,9,6,7
-12,8,21,1,-16,14,2,8,17,10,8,8
-11,9,20,1,-16,15,2,9,18,11,9,9
-10,10,20,0,-15,15,1,9,19,11,9,10
-10,10,20,0,-15,15,0,10,19,12,10,10
-10,10,20,0,-15,14,-1,9,19,12,10,9
-11,9,20,1,-15,13,-2,9,18,11,9,8
-11,8,19,1,-15,13,-2,9,18,11,9,8
-9,9,19,0,-14,13,-2,10,19,13,9,9
-7,11,19,-3,-12,14,-1,12,21,15,11,10
-7,12,19,-3,-13,15,0,13,23,16,12,11
-9,10,20,0,-15,15,-1,12,23,16,12,12
-10,10,19,0,-15,14,-1,12,23,17,13,12
-8,10,18,0,-13,14,-1,11,23,17,13,12
-6,11,17,-1,-12,14,-1,11,23,18,13,12
-5,11,17,-2,-11,13,-1,11,23,18,13,12
-6,10,17,-2,-11,13,-2,10,23,19,14,12
-6,10,18,-2,-11,13,-2,10,23,19,14,13
-5,12,18,-3,-11,14,-2,10,24,20,15,13
-3,14,18,-6,-10,16,-2,11,25,21,16,15
-2,16,17,-7,-9,16,-2,11,25,22,17,16
-3,14,17,-5,-10,15,-2,11,25,21,17,16
-6,12,17,-3,-11,14,-3,10,25,21,17,16
-6,11,17,-3,-11,14,-3,10,24,21,18,16
-5,11,17,-3,-11,13,-3,11,24,21,18,16
-5,10,16,-2,-10,12,-3,11,25,22,18,16
-6,10,16,-1,-11,12,-3,11,25,22,18,16
-8,10,18,-1,-13,13,-3,11,25,22,18,16
-9,11,19,-1,-14,14,-3,11,25,22,18,16
-8,11,18,-1,-13,14,-3,11,25,22,18,17
-6,11,17,-3,-12,14,-3,11,26,23,19,18
-3,14,17,-5,-10,15,-2,12,27,24,20,19
0,15,16,-7,-8,15,-2,12,26,24,20,19
0,14,14,-7,-6,13,-3,11,25,23,19,18
-1,11,13,-5,-7,12,-4,9,24,21,17,17
-2,10,14,-3,-8,11,-5,9,24,21,17,16
-2,10,13,-3,-8,11,-5,9,24,22,17,16
-2,11,13,-4,-7,11,-6,9,24,21,17,16
-2,11,13,-4,-8,12,-5,9,24,21,17,16
-3,11,15,-4,-9,12,-4,10,24,22,18,17
-4,11,16,-3,-10,13,-3,11,25,22,19,18
-5,11,17,-2,-10,13,-2,11,25,22,19,18
-5,10,16,-2,-10,12,-1,11,25,21,18,17
-5,10,15,-1,-9,12,-1,11,25,21,18,17
-5,9,13,-1,-9,11,0,11,25,20,17,16
-5,7,12,-1,-8,10,0,11,25,20,17,15
-6,6,12,0,-8,9,0,10,24,19,16,15
-5,7,12,-1,-8,10,0,10,24,18,16,14
-3,7,12,-2,-7,10,1,10,23,18,15,14
-3,7,11,-1,-6,9,1,10,23,17,14,14
-4,6,11,-1,-7,9,2,10,23,16,13,13
-6,6,12,0,-8,9,2,10,22,15,12,13
-8,5,13,2,-10,9,1,9,21,14,11,12
-9,4,12,2,-10,8,1,9,21,13,10,11
-8,4,10,2,-9,7,0,8,20,12,10,10
-6,3,8,1,-7,6,0,8,19,11,10,10
-5,3,8,1,-6,5,0,8,19,11,9,9
-5,3,8,1,-6,5,0,8,18,10,8,9
-5,3,9,1,-7,5,1,8,18,10,8,8
-5,4,10,1,-8,6,3,8,18,10,8,8
-6,4,10,1,-8,7,4,8,18,9,7,8
-6,4,10,1,-8,7,5,8,17,8,7,8
-6,5,10,1,-8,8,5,7,17,8,7,8
-6,4,10,1,-8,7,5,6,15,6,5,7
-7,1,8,3,-8,4,4,5,14,4,4,6
-9,-3,7,6,-8,2,4,3,13,3,3,5
-12,-3,9,8,-10,3,3,2,12,2,2,4
-12,-1,11,7,-11,5,3,2,12,2,2,4
-12,-1,11,7,-11,5,4,2,12,2,2,4
-13,-2,10,8,-12,4,5,2,11,1,2,4
-13,-2,10,7,-11,4,6,1,10,0,1,3
-11,-1,9,6,-10,3,6,1,10,0,0,3
-9,-1,8,5,-9,3,7,1,10,0,0,3
-10,-3,8,6,-9,2,6,2,10,0,0,3
-12,-4,9,8,-11,2,6,2,10,0,0,2
-12,-3,10,7,-11,3,6,2,11,0,1,2
-10,-1,9,5,-10,4,6,3,11,1,1,3
-8,0,8,4,-8,4,6,4,12,1,2,3
-9,0,9,5,-9,4,6,4,11,1,1,3
-13,-1,11,7,-12,4,6,4,11,0,1,3
-16,-2,13,9,-14,5,7,3,11,0,1,3
-17,-3,14,10,-15,5,7,3,11,0,1,3
-15,-3,12,9,-13,4,7,3,11,0,1,3
-13,-2,11,8,-12,4,8,3,11,0,1,3
-13,-2,10,8,-12,4,8,3,10,-1,0,2
-12,-2,10,7,-11,3,7,2,9,-2,0,2
-11,-2,10,7,-11,3,7,2,9,-2,0,2
-13,-3,9,8,-11,2,6,2,9,-2,0,2
-14,-5,9,10,-12,1,6,2,9,-2,0,2
-15,-6,9,11,-12,1,5,2,9,-2,-1,2
-15,-6,9,10,-12,1,5,2,9,-2,-1,2
-14,-5,9,10,-12,2,5,2,8,-3,-2,1
-14,-5,9,10,-12,2,5,2,8,-3,-2,1
-13,-4,9,9,-11,2,5,2,8,-3,-2,1
-11,-4,8,8,-9,1,6,2,8,-4,-3,0
-10,-2,7,7,-9,2,7,2,8,-4,-3,0
-10,-1,8,6,-9,3,8,2,9,-3,-2,1
-10,-1,8,6,-9,3,8,3,9,-2,-2,1
-12,-3,8,7,-10,2,7,4,9,-2,-2,1
-13,-4,9,8,-11,2,6,4,9,-2,-2,1
-13,-3,10,8,-12,2,6,4,9,-2,-1,1
-13,-2,10,8,-12,3,6,4,9,-2,-1,1
-12,-2,10,7,-11,3,6,4,9,-2,-1,1
-11,-1,9,6,-10,3,7,4,9,-2,-1,2
-10,0,10,5,-10,5,8,5,9,-1,-1,2
-11,0,10,5,-10,5,8,5,9,-1,-1,2
-11,0,10,6,-10,5,7,4,9,-2,-1,2
-11,-1,9,6,-9,4,7,4,9,-2,-2,1
-12,-3,9,7,-10,3,6,4,9,-2,-2,1
-13,-2,10,8,-11,3,6,4,9,-2,-1,1
-12,0,12,7,-12,5,7,5,10,-1,0,2
-11,0,12,6,-12,6,7,6,11,0,0,3
-10,0,10,6,-11,5,6,6,10,0,0,2
-9,-1,8,6,-9,4,5,6,10,0,0,2
-9,-1,7,5,-8,3,4,6,10,0,-1,2
-8,-1,7,4,-8,3,4,6,9,-1,-1,1
-10,-1,8,5,-9,4,5,5,9,-1,-2,1
-12,-2,9,7,-11,3,5,5,8,-2,-2,0
-13,-4,8,9,-11,1,4,4,8,-2,-3,0
-14,-6,8,11,-12,0,4,4,7,-3,-3,0
-16,-6,10,12,-13,1,4,5,8,-2,-3,0
-16,-4,11,11,-14,3,6,6,9,-1,-2,1
-14,-2,11,9,-13,4,7,6,9,0,-1,1
-13,-2,11,8,-13,5,7,6,10,0,-1,2
-11,0,11,6,-11,5,8,7,10,0,0,2
-9,1,11,4,-10,6,8,7,11,1,0,3
-9,2,11,4,-10,6,8,8,11,1,0,3
-10,1,11,4,-10,5,7,7,10,1,0,3
-10,0,10,5,-10,5,5,6,9,0,0,2
-9,0,9,5,-9,5,4,6,9,0,-1,2
-8,0,9,4,-9,5,4,5,9,0,-1,2
-10,-1,9,6,-10,4,4,5,9,0,-1,2
-10,-1,9,6,-10,4,5,5,9,1,0,2
-8,1,9,4,-8,5,6,6,10,1,0,2
-7,2,9,2,-8,5,7,6,10,1,0,2
-7,3,10,2,-8,6,7,7,10,1,0,2
-8,3,11,2,-9,7,8,7,10,2,1,3
-8,4,12,2,-10,8,8,8,11,3,2,4
-8,4,13,2,-10,9,8,9,12,4,3,5
-9,2,12,4,-11,8,7,9,12,4,2,5
-10,1,12,5,-11,7,7,9,12,4,2,4
-10,1,12,5,-11,6,6,9,12,4,2,4
-10,1,12,4,-11,6,6,9,12,4,2,3
-10,2,12,4,-10,6,5,9,12,3,1,3
-8,2,11,3,-9,6,5,9,12,3,1,3
-6,4,10,1,-8,7,6,9,12,3,2,3
-5,6,11,0,-8,9,6,9,13,4,3,4
-6,6,12,0,-9,9,7,9,13,4,3,4
-6,5,11,0,-9,9,7,9,13,4,2,3
-4,6,10,-1,-7,8,7,9,13,5,2,3
-3,6,9,-1,-6,7,7,9,13,5,3,4
-4,4,8,0,-6,6,7,9,13,6,3,5
-5,4,10,0,-7,7,7,8,12,5,3,5
-5,5,11,0,-8,8,5,6,11,4,3,4
-4,5,10,0,-7,7,3,4,10,3,2,4
-2,5,8,-1,-5,6,2,3,9,2,2,4
-1,6,7,-2,-4,7,1,2,9,2,3,4
-1,9,10,-3,-5,9,1,3,9,3,4,5
-2,9,11,-3,-7,10,1,3,9,3,4,6
-6,5,11,0,-8,8,-1,2,8,2,3,5
-9,2,12,3,-11,7,-2,0,7,1,2,4
-9,3,13,3,-11,8,-2,0,7,1,2,4
-7,4,13,1,-10,9,0,0,7,1,3,4
-6,5,12,1,-10,9,2,0,7,2,3,4
-5,6,12,0,-9,10,3,0,8,2,4,5
-4,7,11,-1,-8,9,4,0,7,1,3,5
-4,5,9,0,-7,7,3,-1,6,0,2,4
-4,4,9,0,-6,6,2,-1,6,0,2,4
-4,5,9,0,-6,6,2,0,7,1,3,4
-3,4,8,0,-6,5,2,0,7,2,3,4
-4,2,7,1,-5,4,1,0,7,1,3,4
-4,2,7,1,-6,5,0,-1,7,1,2,3
-6,2,9,2,-7,6,0,0,7,0,2,3
-9,0,10,4,-9,5,0,0,7,0,2,3
-11,-2,10,6,-10,4,0,0,7,0,1,2
-9,-2,8,5,-8,3,1,0,7,0,0,2
-6,0,6,3,-6,2,2,0,7,0,0,1
-6,-1,5,3,-5,2,2,0,6,0,0,1
-7,-3,5,5,-6,1,1,0,5,0,0,0
-7,-3,4,6,-6,0,0,0,5,-1,-1,0
-6,-3,4,5,-5,0,0,0,5,-1,-1,0
-5,-2,3,4,-4,0,0,0,4,-1,-1,0
-5,-1,5,4,-5,1,2,0,4,-2,-2,0
-8,-2,7,5,-7,2,3,0,4,-2,-2,0
-10,-3,7,7,-9,2,3,0,4,-3,-2,-1
-10,-4,7,7,-9,1,3,0,4,-3,-2,-1
-9,-3,6,7,-8,1,3,0,4,-2,-2,-1
-9,-4,6,7,-8,1,3,0,4,-2,-2,-1
-9,-5,5,7,-7,0,3,0,3,-2,-2,-1
-9,-5,5,7,-7,0,3,0,3,-3,-3,-1
-9,-5,4,7,-7,0,4,0,3,-3,-3,-1
-8,-4,4,6,-6,0,4,1,3,-2,-3,-1
-5,-2,3,3,-4,0,5,2,4,-1,-2,0
-3,0,3,1,-3,1,5,3,5,0,-2,0
-3,-1,3,1,-3,1,4,3,4,0,-2,0
-3,-2,2,2,-3,0,3,3,4,-1,-2,0
-4,-2,3,3,-4,0,4,3,3,-1,-2,0
-6,-4,3,5,-5,0,5,2,3,-2,-3,-1
-7,-5,2,6,-4,-1,4,1,2,-3,-4,-2
-6,-6,0,6,-3,-3,3,0,1,-4,-6,-3
-6,-6,0,6,-2,-3,2,0,0,-4,-6,-3
-8,-7,1,7,-4,-3,2,0,1,-4,-5,-3
-11,-8,3,9,-7,-2,2,1,1,-3,-5,-2
-11,-7,4,9,-8,-2,3,1,2,-3,-4,-2
-9,-5,3,8,-6,-1,3,2,2,-3,-4,-2
-6,-4,3,6,-5,-1,3,2,3,-2,-4,-2
-5,-3,2,4,-4,-1,3,3,3,-1,-3,-2
-4,-1,2,3,-3,0,3,3,3,-1,-3,-1
-4,-1,3,3,-4,1,4,2,3,0,-2,-1
-6,-1,4,3,-4,1,4,2,3,-1,-3,-2
-6,-3,3,5,-4,0,3,2,2,-2,-3,-2
-7,-5,2,6,-5,-1,3,2,2,-2,-4,-3
-7,-5,3,7,-5,-1,2,2,2,-3,-4,-3
-6,-2,4,5,-5,0,3,3,2,-2,-4,-3
-5,-1,5,4,-5,2,4,3,2,-2,-3,-2
-7,-1,6,5,-7,2,4,2,2,-2,-3,-1
-10,-1,8,6,-9,3,5,2,3,-3,-3,-1
-11,1,13,5,-12,7,7,3,4,-2,-2,0
-12,5,17,3,-14,11,9,4,6,-1,-1,1
-12,7,20,2,-16,13,10,6,9,1,0,2
-13,9,24,2,-18,16,13,11,15,7,4,6
-13,13,27,1,-20,20,15,18,23,15,11,11
-13,15,30,0,-21,22,16,25,30,23,17,15
-12,18,31,-2,-21,24,16,30,38,32,23,20
-10,21,32,-5,-20,26,15,32,46,42,31,25
-6,26,32,-10,-19,29,13,30,52,54,40,31
-1,32,32,-15,-17,32,8,25,60,68,52,40
8,39,31,-23,-12,35,2,19,68,86,66,50
20,47,28,-33,-4,37,-5,11,75,103,81,61
30,53,24,-41,3,38,-14,1,77,113,90,68
37,52,16,-44,10,34,-21,-9,73,115,92,69
42,45,4,-43,19,24,-27,-19,64,108,86,65
47,36,-11,-42,30,12,-34,-31,51,95,76,57
52,26,-27,-40,40,0,-41,-43,33,77,64,47
56,15,-42,-36,49,-13,-46,-54,14,56,49,36
58,5,-54,-32,56,-24,-48,-63,-6,31,32,23
58,-5,-63,-27,61,-34,-48,-70,-27,6,15,10
56,-15,-70,-20,63,-42,-48,-76,-47,-19,-2,-2
52,-22,-74,-14,63,-48,-46,-82,-64,-42,-17,-13
45,-30,-75,-7,60,-53,-44,-86,-78,-61,-29,-22
36,-40,-76,2,56,-58,-43,-90,-89,-75,-40,-30
29,-46,-76,8,52,-61,-42,-91,-94,-83,-46,-36
25,-49,-75,11,50,-61,-41,-89,-94,-85,-49,-39
22,-49,-72,13,47,-61,-38,-84,-91,-84,-50,-40
21,-48,-69,13,45,-59,-35,-78,-86,-80,-49,-40
21,-43,-64,11,43,-54,-32,-71,-80,-76,-47,-39
22,-37,-58,8,40,-48,-28,-63,-72,-70,-45,-36
22,-31,-52,5,37,-42,-24,-54,-62,-62,-41,-33
22,-26,-47,3,35,-37,-19,-45,-53,-54,-36,-29
20,-23,-43,1,32,-33,-15,-38,-45,-47,-32,-26
16,-22,-38,2,27,-30,-12,-32,-38,-41,-29,-23
11,-20,-32,4,22,-26,-10,-27,-33,-37,-26,-22
9,-17,-27,4,18,-22,-8,-22,-29,-32,-24,-20
8,-15,-22,4,14,-19,-6,-18,-24,-27,-21,-18
4,-13,-16,5,10,-16,-4,-13,-19,-23,-19,-17
1,-11,-12,6,6,-12,-2,-9,-14,-18,-16,-15
0,-9,-8,5,4,-9,0,-5,-9,-14,-14,-12
0,-7,-6,4,3,-6,2,-2,-6,-11,-12,-11
-1,-6,-5,4,1,-5,3,0,-4,-9,-10,-9
-3,-5,-3,4,0,-4,5,2,-1,-6,-8,-7
-4,-4,-1,3,-2,-2,7,4,0,-4,-6,-5
-4,-2,2,3,-3,0,7,5,1,-3,-5,-4
-6,-1,5,4,-6,1,6,5,1,-3,-5,-4
-9,-2,8,6,-8,2,5,6,2,-2,-5,-4
-8,-1,8,5,-7,3,5,6,2,-2,-4,-3
-5,1,6,2,-5,4,5,7,3,-1,-4,-3
-2,2,4,0,-3,4,5,7,4,-1,-3,-3
-2,2,3,0,-2,3,5,6,3,-1,-3,-3
-2,1,2,0,-2,2,6,6,3,-1,-3,-3
-3,1,3,1,-3,2,7,7,4,0,-3,-2
-3,1,4,1,-3,2,8,8,5,0,-2,-2
-5,0,5,2,-4,2,8,8,5,0,-2,-2
-7,-2,5,5,-6,1,7,7,4,-1,-3,-3
-11,-6,5,9,-8,0,5,5,2,-2,-4,-4
-13,-8,4,11,-8,-2,3,4,2,-3,-5,-5
-11,-7,3,9,-8,-1,4,5,2,-2,-4,-4
-11,-6,4,8,-8,-1,4,5,2,-2,-4,-4
-13,-7,5,9,-10,-1,4,5,2,-2,-4,-4
-11,-6,5,8,-9,0,3,4,1,-2,-4,-4
-9,-4,5,7,-7,0,3,4,2,-1,-4,-3
-9,-4,5,7,-7,0,3,5,2,-1,-3,-3
-10,-5,5,8,-8,0,3,5,2,-1,-3,-3
-9,-4,5,7,-7,0,4,5,2,-1,-3,-2
-9,-3,5,6,-7,1,4,6,2,-1,-3,-2
-9,-2,6,6,-8,1,4,6,3,0,-2,-1
-8,-2,6,5,-8,1,4,6,3,0,-2,-1
-8,-2,5,5,-7,1,4,6,2,-1,-3,-2
-9,-4,5,7,-8,0,4,6,2,-1,-3,-2
-9,-3,5,7,-8,1,5,6,3,0,-3,-2
-7,-1,5,5,-6,2,7,8,4,1,-2,-1
-5,0,4,3,-4,2,8,8,5,2,-1,0
-5,-1,3,3,-4,1,7,7,4,1,-2,-1
-5,-1,3,3,-4,1,7,6,3,0,-3,-2
-6,-1,4,3,-4,1,6,6,2,0,-3,-3
-8,-2,4,5,-6,1,7,6,2,0,-3,-3
-8,-2,5,5,-6,1,7,6,3,0,-3,-2
-6,-1,5,3,-6,1,6,6,3,0,-2,-2
-5,0,4,2,-5,2,5,6,3,0,-2,-2
-4,0,4,2,-5,2,4,6,3,0,-2,-1
-5,0,4,2,-5,2,4,6,3,0,-1,-1
-6,-1,3,3,-5,1,4,6,3,0,-1,-1
-7,-3,2,5,-5,0,4,6,2,0,-2,-2
-5,-3,1,4,-3,-1,4,6,2,0,-2,-2
-2,-2,0,2,-2,0,5,7,3,1,-1,-1
-2,-1,2,1,-2,0,5,7,4,2,0,0
-4,0,4,2,-4,2,5,7,4,2,-1,0
-5,0,5,3,-5,2,5,7,3,1,-1,0
-6,-2,4,4,-6,1,5,7,3,1,-1,0
-8,-3,4,6,-7,0,4,7,3,1,-1,-1
-8,-3,4,6,-6,0,4,6,3,1,-1,-1
-6,-2,4,4,-5,1,4,6,2,1,-1,-1
-6,-1,4,4,-5,1,4,6,2,1,-1,-1
-6,-1,5,4,-6,1,5,7,2,1,-1,-1
-4,0,5,3,-5,2,5,8,3,2,-1,0
-1,2,4,0,-3,3,5,9,4,3,0,0
0,4,3,-1,-2,3,5,9,5,4,0,1
0,3,3,-1,-2,3,5,9,5,4,0,1
-2,1,3,0,-3,2,5,9,4,4,0,1
-2,1,4,1,-3,2,5,9,4,4,1,1
-3,1,5,1,-4,3,6,10,4,4,1,1
-4,1,6,2,-5,3,6,10,4,5,1,1
-3,1,5,1,-4,2,5,9,4,5,1,1
-1,1,3,0,-2,2,4,9,4,5,0,0
-2,1,4,1,-3,2,4,9,4,6,1,1
-3,1,5,1,-4,3,4,9,5,7,2,1
-3,3,6,0,-4,4,3,10,6,8,3,2
-3,3,6,0,-5,4,1,11,6,8,4,3
-4,2,6,1,-5,4,0,11,6,8,4,3
-3,3,6,0,-5,4,-2,11,6,8,4,3
-2,3,6,0,-4,4,-2,11,6,9,5,3
-2,3,6,0,-4,4,-1,11,7,10,6,4
-3,3,6,0,-5,4,0,11,7,11,6,4
-4,3,7,0,-5,5,0,11,8,11,7,5
-4,3,7,0,-6,5,0,11,8,11,6,5
-5,3,7,1,-6,5,0,11,8,11,6,5
-5,1,6,2,-6,4,0,12,8,11,6,5
-4,1,5,1,-5,4,0,12,8,12,6,5
-1,3,5,-1,-3,4,-1,12,8,12,6,5
1,4,4,-3,-1,4,0,12,9,13,6,5
2,6,4,-4,-1,4,0,13,9,13,7,5
3,7,4,-5,-1,5,0,13,10,14,8,5
5,9,3,-7,0,6,0,14,11,16,9,6
7,11,3,-9,2,6,1,15,12,17,11,8
7,12,4,-10,2,7,1,15,13,19,12,9
7,13,5,-9,1,8,1,15,14,19,13,10
4,11,7,-8,-1,8,1,15,14,19,14,10
1,9,7,-5,-2,7,0,15,14,20,14,11
1,8,7,-4,-3,7,0,16,14,20,14,11
1,9,8,-5,-3,8,-1,16,14,21,14,10
2,9,7,-6,-2,8,-1,16,14,21,14,10
4,10,6,-7,-1,8,-1,16,14,22,15,10
7,12,5,-9,1,8,-1,17,15,23,16,11
8,13,4,-10,2,8,-2,17,16,24,17,12
7,10,4,-8,1,6,-3,16,16,24,17,12
5,8,4,-6,0,5,-3,16,15,24,17,13
4,7,4,-6,0,5,-3,15,15,24,17,13
3,7,4,-5,0,5,-4,15,15,23,17,13
2,7,5,-4,-1,5,-5,14,14,22,16,12
0,6,5,-2,-3,5,-6,13,13,22,16,11
0,5,4,-1,-3,4,-7,12,13,22,16,11
2,6,2,-3,-1,4,-7,12,13,22,17,12
6,8,2,-7,2,5,-6,13,14,23,18,13
9,10,2,-9,3,5,-4,15,15,24,19,14
10,11,2,-11,4,6,-3,16,15,25,19,14
11,12,2,-12,4,7,-3,16,15,25,20,15
11,13,2,-13,4,7,-3,16,15,25,19,15
12,13,0,-13,5,6,-4,16,14,24,19,14
12,12,-1,-12,6,5,-5,16,14,24,18,14
10,11,0,-10,5,5,-5,15,13,24,18,13
9,10,0,-9,4,5,-6,15,13,23,18,13
8,8,0,-8,4,4,-6,15,12,23,17,12
7,6,0,-6,4,2,-6,14,12,22,16,11
4,4,0,-4,2,2,-6,14,11,21,15,10
3,4,1,-4,1,3,-5,14,11,20,15,10
4,5,1,-5,1,3,-4,14,11,20,15,10
4,5,0,-5,2,2,-3,14,11,20,15,10
5,5,0,-5,2,2,-3,14,11,20,15,11
8,7,0,-7,3,3,-2,14,11,20,15,11
8,7,0,-7,3,3,-2,13,10,19,14,10
5,4,1,-4,1,2,-1,13,10,18,13,10
3,3,1,-3,0,2,-1,13,10,18,13,9
3,3,0,-3,1,2,-1,13,9,17,12,9
4,4,0,-4,2,2,-1,12,9,16,11,8
4,3,-1,-4,2,1,-1,12,8,16,11,7
4,3,-2,-3,2,1,-1,12,8,15,10,7
5,3,-1,-4,3,1,0,12,8,15,10,6
4,3,0,-3,2,1,1,12,7,14,9,6
2,2,0,-2,0,1,1,11,7,13,8,6
0,1,1,0,0,0,1,11,6,12,7,5
-2,0,1,1,-1,0,1,11,6,10,6,5
-4,-2,1,2,-2,0,1,10,5,9,5,4
-3,-2,1,2,-2,0,1,10,4,8,5,4
0,0,1,0,-1,0,2,11,4,8,4,4
3,1,0,-2,1,0,4,12,5,8,5,4
5,1,-2,-3,3,0,5,12,5,9,5,4
3,0,-2,-2,2,-1,5,12,4,7,4,3
0,-3,-3,1,1,-3,4,10,2,5,1,1
-1,-5,-3,3,1,-4,3,8,1,3,0,0
-2,-5,-3,3,0,-4,3,9,0,2,0,0
-1,-4,-2,2,0,-3,5,9,0,2,0,0
0,-2,-2,1,0,-2,5,10,0,2,0,0
-1,-3,-1,1,0,-2,5,10,0,1,-1,0
-1,-3,-1,2,-1,-2,5,9,0,1,-1,0
0,-3,-1,1,0,-2,5,9,0,1,-1,0
0,-2,-2,1,0,-2,5,9,0,1,-1,0
-1,-3,-1,2,0,-2,5,9,0,0,-2,-1
-3,-5,-1,4,-1,-3,4,8,-1,0,-3,-1
-4,-7,-2,5,-1,-4,4,8,-2,-1,-4,-2
-4,-8,-3,6,-1,-5,4,7,-3,-3,-5,-3
-4,-9,-4,7,-1,-6,4,7,-4,-4,-6,-4
-5,-10,-3,7,-1,-6,4,7,-5,-5,-6,-4
-5,-9,-2,7,-2,-6,5,8,-4,-4,-5,-3
-5,-7,-1,6,-2,-5,5,9,-4,-4,-4,-3
-3,-5,-1,4,-2,-3,5,10,-3,-3,-3,-2
-3,-3,0,3,-2,-2,5,11,-2,-2,-3,-2
-4,-4,0,4,-2,-2,6,11,-2,-2,-3,-2
-6,-7,0,7,-3,-4,6,10,-3,-3,-4,-2
-7,-8,0,8,-3,-4,6,10,-3,-3,-4,-3
-7,-9,-1,8,-3,-5,5,10,-3,-4,-5,-3
-8,-10,-1,9,-4,-6,4,9,-4,-4,-5,-4
-9,-10,0,9,-5,-5,4,9,-4,-4,-5,-4
-10,-9,1,9,-5,-4,5,10,-3,-3,-4,-3
-8,-7,1,7,-4,-3,6,11,-2,-2,-3,-2
-5,-4,0,4,-2,-2,7,11,-2,-2,-3,-2
-2,-2,0,2,-1,-1,7,11,-2,-1,-2,-1
-2,-1,0,2,-1,-1,7,12,-1,-1,-2,-1
-3,-3,0,3,-2,-2,7,12,-1,-2,-3,-2
-4,-4,0,4,-2,-2,7,12,-1,-2,-3,-2
-3,-5,-1,4,-1,-3,7,12,-1,-1,-3,-2
-3,-5,-1,4,-1,-3,6,12,-1,-2,-3,-2
-4,-6,-1,5,-1,-4,6,11,-2,-2,-3,-3
-4,-6,-1,5,-1,-4,6,11,-2,-1,-3,-3
-4,-5,-1,5,-1,-4,6,11,-1,-1,-3,-3
-5,-5,0,5,-2,-3,5,11,-1,-1,-3,-3
-5,-6,0,6,-3,-3,5,11,-1,-1,-3,-3
-5,-4,0,5,-3,-2,4,11,-1,-1,-2,-2
-4,-3,1,4,-3,-1,3,11,0,0,-2,-2
-5,-4,2,5,-3,-1,1,11,-1,0,-2,-2
-4,-3,1,4,-2,-1,1,11,-1,-1,-3,-2
-2,-3,0,3,-1,-1,1,11,-1,-1,-3,-2
-2,-3,0,3,-1,-1,1,11,-1,0,-2,-2
-5,-5,0,5,-3,-2,1,11,0,0,-1,-1
-7,-6,1,7,-4,-2,2,11,0,1,-1,-1
-7,-6,1,6,-4,-2,3,11,0,1,-1,-1
-5,-3,1,4,-3,-1,5,11,0,2,0,0
-1,0,2,1,-2,0,6,12,0,2,0,0
1,1,1,-1,0,1,7,12,1,3,0,0
1,1,0,-1,1,0,7,12,1,3,1,0
1,1,1,-1,0,1,6,13,1,3,1,1
0,1,2,0,0,2,5,13,1,4,1,1
0,0,1,0,0,1,4,12,1,3,1,0
0,0,0,0,0,0,3,12,1,3,0,0
0,0,0,0,0,0,4,12,1,3,1,0
0,1,1,0,-1,1,5,13,1,4,2,1
0,2,2,-1,-1,2,6,13,1,4,2,1
0,1,2,0,-1,1,5,12,1,3,2,0
0,1,2,-1,0,2,5,11,0,3,2,0
0,1,3,0,-1,2,4,12,0,3,2,0
-1,0,2,1,-1,1,4,12,0,3,1,0
-2,-1,2,1,-1,0,4,12,0,3,1,0
-3,-1,2,2,-3,0,4,12,0,3,1,0
-6,-2,4,4,-5,0,4,12,0,3,1,0
-7,-3,4,5,-6,0,4,12,0,3,1,0
-6,-2,3,4,-5,0,3,12,0,3,1,-1
-3,-1,2,2,-2,0,3,11,0,3,1,-1
0,1,2,0,-1,2,4,12,0,4,1,-1
-1,1,2,0,-1,2,5,12,1,5,2,0
-2,2,4,0,-2,3,5,13,2,5,2,0
-2,2,4,0,-3,3,5,14,2,6,3,0
-2,1,3,0,-3,2,5,14,2,6,3,0
-3,0,2,1,-3,0,5,14,1,5,3,-1
-3,0,3,1,-3,1,5,14,1,4,3,-1
-2,2,4,0,-3,2,6,14,2,5,3,0
-1,2,3,0,-2,2,6,14,2,5,3,0
-1,2,2,0,-2,2,6,14,2,5,3,0
0,3,2,-1,-1,3,6,14,2,5,2,0
-1,2,2,-1,-2,2,5,13,1,4,2,0
-1,2,2,0,-2,2,4,13,1,4,2,0
0,4,3,-1,-2,3,5,14,2,5,4,0
0,4,3,-2,-1,3,6,14,2,6,5,1
1,4,3,-3,-1,3,5,14,2,6,5,1
2,5,3,-3,0,4,3,13,1,6,4,1
2,5,3,-4,0,4,2,12,1,6,4,1
3,6,3,-4,0,5,2,12,2,7,5,1
2,6,4,-4,0,5,1,12,2,7,5,2
3,8,4,-5,0,6,1,12,1,7,6,2
5,9,4,-7,0,6,1,12,1,7,6,3
5,9,4,-7,1,6,0,11,0,6,6,2
3,7,3,-5,0,5,-1,9,-1,4,5,1
2,4,3,-3,0,4,-2,7,-2,3,4,1
1,4,4,-3,-1,4,-1,7,-2,4,5,1
1,7,6,-4,-2,6,0,8,-1,5,6,2
4,10,6,-7,-1,8,2,9,0,5,7,3
5,11,6,-8,0,7,2,8,-1,5,6,3
4,10,5,-7,0,6,1,7,-2,4,6,2
3,8,5,-6,0,5,0,6,-2,3,5,1
3,7,4,-5,0,5,-1,6,-3,3,5,0
3,6,4,-4,0,5,-1,6,-3,3,4,0
2,6,5,-3,-1,5,-2,7,-3,3,4,0
0,5,5,-2,-3,5,-2,7,-2,3,4,0
-1,4,4,-1,-2,4,-3,7,-3,3,4,0
1,5,2,-3,0,3,-2,7,-3,3,4,0
4,6,0,-5,2,2,-2,7,-3,3,3,0
6,6,0,-5,3,2,-1,7,-3,2,3,0
5,3,-1,-3,3,0,-1,7,-3,2,2,-1
1,0,0,0,1,0,0,6,-3,2,2,-1
-1,-1,0,2,0,0,1,6,-3,2,2,-2
-1,0,1,1,-1,0,2,6,-3,2,2,-2
-1,0,0,0,0,0,3,6,-4,2,2,-2
-1,-1,-1,1,0,-1,2,5,-4,1,1,-3
-1,-2,-1,1,0,-2,1,5,-5,0,0,-4
0,0,0,0,0,-1,1,6,-4,0,0,-4
1,1,0,-1,0,0,1,6,-3,1,1,-4
0,0,0,0,0,0,1,6,-4,1,0,-4
-2,-3,-1,2,0,-2,1,4,-5,0,-1,-6
-1,-4,-2,3,1,-3,1,3,-6,-1,-2,-7
0,-3,-3,2,1,-3,2,3,-6,-1,-2,-7
0,-2,-2,2,1,-2,2,3,-6,-1,-2,-7
-1,-3,-3,2,1,-3,2,3,-7,-1,-2,-7
0,-2,-3,1,1,-3,2,3,-6,-1,-1,-6
1,0,-2,0,1,-2,3,4,-5,0,-1,-6
1,0,-1,0,1,-1,3,4,-5,0,0,-6
0,-1,-1,1,0,-1,3,4,-6,0,-1,-6
0,-2,-1,1,1,-2,3,4,-6,0,-1,-6
-1,-3,-2,2,0,-3,3,4,-6,0,-1,-6
-3,-4,-1,3,0,-3,3,3,-7,-1,-1,-6
-2,-3,-1,2,0,-2,3,3,-7,-1,-1,-6
-2,-2,-1,2,-1,-2,3,4,-6,-1,-1,-6
-5,-4,0,4,-2,-2,2,4,-6,-1,-2,-7
-7,-6,1,6,-4,-3,2,4,-6,-1,-2,-7
-7,-5,1,6,-4,-3,2,5,-6,-1,-2,-7
-6,-5,1,5,-3,-2,2,5,-6,-1,-2,-7
-4,-5,-1,5,-2,-3,1,5,-6,-1,-2,-7
-3,-5,-3,4,0,-4,1,4,-7,-1,-2,-7
-2,-5,-4,4,0,-5,0,4,-7,-1,-2,-7
-2,-5,-4,3,0,-5,0,3,-8,-2,-3,-8
-1,-5,-4,3,1,-5,0,2,-8,-2,-3,-8
-1,-5,-4,3,1,-5,0,2,-8,-2,-3,-8
-2,-6,-4,3,1,-5,0,2,-8,-2,-3,-8
-3,-6,-3,4,0,-5,2,2,-7,-2,-2,-7
-6,-6,0,5,-2,-3,3,3,-7,-1,-2,-6
-6,-4,1,4,-3,-1,3,3,-7,-1,-1,-6
-3,-2,1,2,-2,0,4,4,-6,0,0,-5
0,0,0,0,0,0,5,5,-5,0,0,-5
0,1,0,-1,0,0,5,5,-5,0,0,-5
2,4,2,-3,0,3,6,5,-4,1,0,-4
1,6,4,-3,-1,5,7,4,-4,0,0,-4
-2,7,9,-2,-5,8,9,4,-4,0,0,-3
-6,8,15,-1,-10,11,11,5,-2,2,2,-2
-9,10,20,-1,-14,15,12,8,1,4,4,0
-12,11,23,0,-18,17,12,12,5,8,7,2
-12,13,24,-1,-19,18,13,17,11,14,11,5
-10,16,25,-3,-18,20,14,23,19,22,17,10
-7,19,26,-6,-17,22,15,29,28,32,24,15
-3,23,26,-10,-15,24,14,30,35,42,32,20
1,28,27,-14,-13,27,12,27,42,54,41,27
7,34,28,-21,-10,31,7,22,49,68,53,35
16,43,27,-29,-5,35,1,16,57,86,69,46
27,53,26,-40,1,39,-6,8,64,103,84,58
37,59,22,-48,7,41,-12,0,67,114,94,65
44,59,15,-51,14,37,-17,-8,65,117,96,67
51,53,2,-52,24,28,-23,-17,57,112,91,63
58,44,-13,-51,36,15,-30,-28,45,101,82,56
62,33,-29,-48,46,1,-38,-40,28,84,70,46
64,20,-44,-42,54,-12,-44,-51,8,62,55,35
63,7,-56,-35,60,-25,-47,-60,-13,37,38,22
59,-6,-66,-27,63,-36,-48,-67,-34,10,20,8
55,-17,-72,-19,64,-45,-47,-73,-54,-16,3,-4
51,-25,-76,-13,64,-51,-46,-78,-72,-39,-12,-16
47,-32,-79,-7,63,-56,-44,-83,-86,-58,-25,-25
43,-36,-79,-3,61,-58,-42,-86,-94,-71,-34,-32
37,-40,-78,0,58,-59,-40,-86,-98,-77,-40,-37
32,-43,-76,5,54,-59,-39,-83,-98,-80,-44,-40
28,-43,-73,7,50,-58,-37,-79,-95,-79,-45,-42
26,-43,-70,8,48,-57,-35,-73,-91,-76,-45,-43
25,-42,-68,8,46,-55,-33,-67,-86,-73,-45,-43
24,-39,-63,8,43,-51,-30,-59,-78,-67,-42,-41
22,-36,-58,7,40,-47,-26,-51,-69,-60,-38,-38
19,-33,-52,7,36,-43,-23,-44,-61,-53,-35,-36
18,-30,-48,6,33,-39,-21,-38,-54,-47,-32,-33
16,-26,-43,5,30,-35,-19,-32,-48,-41,-29,-31
14,-23,-37,4,25,-30,-16,-26,-43,-36,-26,-28
11,-20,-31,4,20,-26,-13,-21,-38,-32,-23,-25
9,-17,-25,4,16,-21,-9,-15,-32,-27,-20,-22
7,-13,-19,3,12,-16,-4,-8,-25,-20,-15,-18
6,-10,-15,2,10,-12,0,-3,-19,-14,-11,-15
3,-8,-11,2,7,-9,1,0,-15,-10,-9,-13
2,-6,-9,2,6,-7,3,1,-12,-7,-7,-11
4,-3,-8,0,6,-5,4,3,-10,-5,-6,-10
6,0,-7,-3,6,-4,5,4,-9,-4,-5,-9
4,0,-4,-2,4,-2,5,4,-9,-4,-5,-9
-1,-2,-1,1,0,-2,5,5,-9,-4,-5,-9
-4,-3,1,4,-3,-1,5,5,-8,-4,-5,-9
-5,-3,2,4,-4,0,6,6,-7,-3,-4,-8
-5,-3,1,4,-3,0,5,6,-7,-3,-4,-8
-4,-3,0,4,-2,-1,5,6,-6,-2,-4,-8
-1,-1,0,1,-1,0,6,7,-5,-1,-3,-7
0,1,0,0,0,1,7,8,-4,0,-2,-6
0,2,1,-1,-1,2,7,9,-4,0,-1,-6
0,2,2,-1,-1,2,7,9,-4,0,-1,-6
-1,1,1,0,-1,1,7,8,-4,0,-2,-6
-2,0,1,2,-2,0,5,8,-5,-1,-2,-7
-4,-1,2,3,-3,0,3,8,-5,-1,-3,-7
-7,-3,3,5,-4,0,1,8,-5,-1,-3,-7
-8,-4,4,6,-6,0,1,8,-4,0,-3,-7
-8,-2,4,5,-6,1,2,9,-4,0,-2,-6
-6,0,4,3,-5,2,3,9,-4,0,-2,-6
-4,0,4,1,-4,2,4,8,-4,0,-2,-6
-2,1,3,0,-2,1,6,8,-4,0,-2,-6
0,1,2,0,-1,1,7,8,-4,0,-2,-5
-1,1,2,0,-1,1,7,8,-4,0,-2,-5
-2,0,2,1,-2,1,8,8,-4,0,-2,-5
-5,-1,3,2,-4,1,8,7,-4,0,-2,-6
-8,-3,4,5,-5,0,8,7,-4,0,-2,-6
-7,-3,3,4,-5,0,8,7,-4,-1,-2,-6
-3,-1,1,1,-2,0,8,8,-4,0,-2,-6
0,0,1,-1,0,0,8,8,-3,0,-1,-6
0,0,0,0,0,0,7,8,-3,-1,-2,-6
-1,-1,1,2,-1,0,5,8,-3,-1,-2,-6
-2,-1,1,1,-1,0,4,8,-3,-1,-3,-6
-1,0,1,0,-1,0,4,7,-3,-1,-3,-6
-1,1,1,0,-1,0,4,8,-3,-1,-2,-6
-3,0,2,1,-3,0,5,8,-3,0,-2,-5
-7,-3,3,4,-5,0,4,8,-3,0,-2,-6
-8,-6,2,6,-5,-2,3,7,-4,-1,-3,-7
-6,-4,2,5,-4,-1,3,7,-4,-1,-3,-7
-4,-1,3,3,-4,1,4,8,-3,0,-2,-5
-3,0,3,1,-3,2,4,9,-2,0,-1,-4
-3,0,3,1,-3,1,4,9,-2,0,-1,-4
-3,0,2,1,-3,1,5,9,-1,0,-1,-4
-2,1,3,0,-3,2,5,10,-1,1,0,-4
-1,2,4,-1,-3,3,5,10,-1,1,0,-4
-2,1,3,0,-3,2,5,9,-1,0,-1,-5
-3,-1,3,2,-3,1,4,9,-2,0,-1,-5
-4,-1,4,3,-4,1,4,9,-1,0,-1,-5
-5,0,5,3,-5,2,5,9,-1,1,-1,-4
-5,0,5,3,-5,2,6,9,-1,1,-1,-4
-4,0,3,2,-4,2,6,9,-1,1,-1,-4
-4,-1,2,2,-3,1,6,8,-2,1,-1,-4
-4,-2,1,3,-3,0,5,8,-2,0,-2,-5
-6,-2,3,4,-4,0,5,8,-2,0,-1,-4
-6,-1,4,3,-5,1,6,8,-1,1,0,-3
-5,0,5,2,-5,3,6,9,0,2,1,-2
-5,1,6,1,-5,4,5,10,1,3,1,-2
-5,2,7,1,-6,4,5,10,1,3,1,-2
-5,2,7,1,-6,4,4,10,1,3,1,-2
-5,1,5,2,-5,3,3,9,0,2,0,-3
-4,0,3,2,-4,1,2,8,0,2,0,-4
-4,-2,2,2,-3,0,2,9,0,2,0,-4
-5,-2,3,3,-4,0,3,10,1,3,0,-3
-5,0,5,2,-5,2,4,11,2,4,1,-2
-3,3,7,0,-5,5,4,12,4,5,3,-1
-2,5,8,-2,-4,6,5,12,4,6,3,0
-2,5,8,-1,-5,6,5,12,4,6,3,0
-2,5,7,-1,-5,6,4,12,4,6,3,0
-2,5,7,-1,-5,6,4,12,5,6,4,0
0,6,6,-2,-4,6,4,13,5,7,4,0
1,6,4,-3,-2,5,4,13,5,7,4,0
3,5,2,-4,0,3,4,12,5,7,4,0
2,4,2,-3,0,3,3,11,4,7,4,0
0,4,5,-1,-3,4,3,11,4,7,5,0
-2,4,7,-1,-4,5,4,12,5,8,6,1
-1,6,7,-2,-4,6,4,12,6,9,7,2
0,7,6,-4,-3,7,4,12,6,10,7,2
1,6,5,-4,-2,6,3,11,6,10,6,2
1,5,3,-3,-1,4,3,11,6,10,6,2
1,4,3,-2,-1,4,2,11,6,10,6,2
0,4,5,-2,-2,4,2,11,7,11,7,2
0,5,4,-3,-2,4,1,12,8,12,7,3
2,6,3,-4,0,4,0,12,9,12,8,3
2,7,4,-5,0,5,0,13,10,13,9,4
1,7,6,-4,-2,6,0,13,10,14,9,4
0,6,6,-3,-3,6,-1,13,11,15,10,5
1,7,6,-4,-2,6,-2,14,11,16,11,6
3,8,5,-6,-1,6,-2,14,12,17,12,6
2,7,5,-5,-1,5,-2,14,12,17,12,6
0,5,5,-3,-2,4,-3,14,12,17,12,6
1,7,6,-4,-2,6,-3,14,13,18,13,7
2,10,7,-6,-2,8,-2,14,14,19,14,8
3,11,7,-7,-1,9,-2,14,14,20,14,9
3,11,7,-7,-1,9,-1,15,14,20,15,10
3,10,7,-6,-2,9,0,15,14,21,16,10
3,10,6,-6,-1,8,0,15,14,21,16,10
4,10,6,-7,-1,8,0,15,14,21,17,10
4,9,6,-7,0,7,0,14,14,21,17,11
5,9,4,-7,0,6,0,14,14,21,17,11
6,9,3,-8,2,6,-1,13,14,21,16,11
7,10,2,-9,2,6,-2,13,14,21,16,11
7,10,2,-8,2,6,-3,13,14,21,16,11
6,10,3,-8,1,6,-3,13,14,22,17,11
6,10,3,-8,1,6,-3,13,14,22,17,11
8,11,3,-9,2,6,-3,13,14,22,18,11
8,12,4,-10,2,7,-3,13,14,22,18,11
7,11,5,-10,1,8,-3,14,14,22,18,11
7,11,4,-10,2,7,-3,14,14,22,18,11
9,11,2,-10,4,7,-3,14,14,23,18,12
9,11,1,-10,4,7,-4,14,14,23,18,12
9,11,1,-10,3,7,-4,14,14,23,18,11
8,11,2,-9,3,7,-5,14,14,22,18,11
8,11,2,-9,3,7,-6,14,14,22,18,11
9,10,1,-9,4,6,-6,13,14,22,17,11
9,8,0,-9,5,4,-6,12,12,21,16,10
9,7,-1,-9,5,3,-6,11,11,20,15,9
8,6,-1,-7,4,3,-6,11,10,20,15,9
6,6,-1,-6,3,2,-6,11,9,19,15,9
7,6,-2,-6,4,2,-5,11,8,18,14,8
8,6,-2,-6,4,2,-4,11,8,18,14,8
8,6,-2,-6,4,2,-3,11,8,18,14,7
9,7,-1,-8,5,2,-2,11,7,18,14,7
11,9,-2,-10,6,3,-1,12,7,18,14,7
12,9,-2,-11,7,3,0,12,7,17,13,7
10,7,-2,-9,6,2,0,11,6,16,12,6
9,6,-2,-8,6,2,0,11,6,15,12,6
7,6,-2,-6,5,2,1,11,6,14,11,6
6,4,-2,-4,4,1,0,11,5,13,10,5
5,3,-3,-4,4,0,0,11,4,12,10,5
6,3,-3,-4,4,0,1,11,4,12,10,4
5,3,-2,-4,4,0,1,11,3,11,9,3
4,1,-2,-3,3,0,1,9,1,10,7,2
4,0,-3,-2,3,-1,1,8,0,8,5,1
4,1,-3,-2,3,-1,2,8,0,7,5,0
3,1,-3,-2,3,0,2,8,-1,6,4,0
3,0,-3,0,3,-1,2,8,-1,6,4,0
0,-2,-3,2,1,-2,2,8,-1,5,4,0
-3,-3,-1,4,-1,-2,2,8,-2,4,4,0
-3,-4,-1,4,-1,-2,1,7,-3,3,3,-1
-1,-4,-1,2,0,-3,1,7,-3,3,3,-1
1,-3,-3,1,2,-3,1,7,-3,2,2,-1
2,-2,-4,0,3,-3,2,7,-4,2,2,-2
1,-2,-4,0,3,-2,2,7,-5,1,1,-2
-1,-3,-3,2,1,-2,2,6,-5,0,0,-3
-3,-4,-2,4,0,-2,1,6,-6,0,0,-3
-3,-4,-2,4,0,-3,1,6,-6,-1,0,-3
-1,-3,-3,2,1,-3,1,6,-6,-1,0,-3
2,-2,-4,-1,3,-2,1,6,-6,-1,0,-3
3,-1,-3,-2,4,-2,2,6,-7,-1,0,-3
3,-1,-3,-1,3,-2,2,6,-7,-1,0,-3
3,-1,-4,-1,4,-2,3,6,-7,-1,0,-3
4,0,-5,-2,5,-2,5,6,-6,0,0,-2
5,0,-5,-2,5,-2,6,6,-6,0,0,-2
3,-1,-5,-1,4,-2,5,6,-7,-1,-1,-3
1,-3,-5,1,3,-3,4,5,-8,-2,-2,-4
0,-4,-4,2,2,-4,4,6,-8,-2,-2,-5
0,-4,-3,2,1,-3,5,6,-7,-2,-2,-4
0,-3,-2,1,1,-2,6,7,-7,-1,-1,-4
0,-2,-2,0,1,-2,6,7,-7,-1,-1,-4
0,-2,-2,1,1,-2,6,7,-7,-2,-2,-4
0,-4,-4,2,1,-4,5,7,-8,-3,-3,-5
0,-4,-4,3,1,-4,4,6,-9,-4,-3,-5
1,-3,-4,1,2,-4,5,6,-8,-4,-3,-5
2,-2,-5,0,3,-3,5,6,-8,-4,-3,-4
2,-3,-5,0,3,-4,4,6,-8,-4,-3,-5
1,-4,-5,1,3,-4,3,5,-9,-4,-3,-5
-1,-7,-5,4,1,-5,2,5,-9,-5,-4,-6
-4,-9,-5,7,0,-7,2,4,-10,-5,-5,-6
-4,-9,-5,7,0,-7,2,5,-9,-5,-4,-6
-2,-7,-4,5,0,-5,3,6,-8,-3,-3,-5
-1,-5,-4,3,0,-4,3,7,-7,-2,-2,-4
0,-5,-4,3,0,-4,3,8,-6,-2,-1,-4
0,-4,-3,2,0,-4,4,8,-6,-2,-1,-3
0,-3,-2,1,0,-3,5,9,-5,-2,-1,-3
0,-2,-2,1,1,-2,6,9,-5,-2,-1,-3
0,-3,-3,1,1,-3,5,8,-6,-2,-2,-3
0,-3,-3,1,2,-3,5,8,-6,-3,-2,-4
2,-1,-3,0,2,-2,5,8,-5,-2,-2,-3
3,-1,-4,0,3,-3,5,8,-6,-2,-2,-4
4,-1,-5,-1,3,-3,5,7,-6,-2,-2,-4
3,0,-3,-2,2,-2,5,8,-5,-2,-1,-3
1,-1,-1,0,0,-1,6,8,-5,-1,-1,-3
0,-1,0,0,0,-1,6,8,-4,-1,0,-2
-1,-1,0,1,0,0,6,8,-4,-1,0,-2
-2,-2,0,2,0,0,6,8,-4,-1,0,-2
-4,-3,0,3,-1,-1,6,8,-4,-1,0,-2
-5,-5,-1,5,-2,-3,5,8,-4,-1,0,-2
-5,-7,-2,6,-2,-4,5,7,-4,-2,-1,-2
-6,-9,-2,8,-3,-5,4,7,-5,-2,-2,-3
-7,-10,-2,9,-3,-6,3,6,-5,-3,-3,-4
-8,-10,-2,9,-3,-6,3,6,-6,-3,-3,-4
-6,-10,-2,8,-1,-6,4,6,-6,-3,-3,-4
-3,-7,-3,5,0,-5,4,6,-5,-2,-2,-4
0,-2,-3,1,2,-2,5,7,-4,0,-1,-3
5,2,-3,-3,4,0,7,8,-3,1,0,-2
8,5,-3,-6,5,1,8,9,-2,2,1,0
7,4,-3,-6,4,1,9,10,-1,3,1,0
4,1,-2,-3,2,0,8,9,-2,2,0,0
0,-1,-1,0,0,0,7,9,-2,2,0,-1
-1,-2,0,1,0,0,5,9,-3,1,0,-1
0,-1,-1,1,0,0,4,8,-3,1,0,-1
0,-2,-1,1,1,-1,3,8,-3,0,0,-1
-2,-3,-1,3,0,-2,3,8,-3,0,0,-1
-2,-3,-1,3,-1,-1,3,9,-2,1,0,-1
-2,-2,0,2,-1,-1,3,9,-3,0,0,-1
-1,-2,-1,2,-1,-1,2,8,-3,0,0,-1
1,-2,-2,1,1,-1,3,8,-3,0,0,-1
1,-2,-3,0,2,-2,4,8,-2,1,1,0
0,-1,-1,1,1,-1,5,9,-1,2,1,0
0,0,0,1,0,0,6,9,-1,2,2,0
0,1,1,0,0,1,6,9,-1,2,2,1
0,1,0,0,0,0,7,9,-1,2,1,1
1,1,0,-1,0,0,7,9,-1,2,1,1
3,2,0,-2,1,1,8,9,-1,2,1,1
4,2,-1,-3,2,1,8,9,-1,2,1,1
5,3,-1,-4,3,1,7,9,-1,2,1,0
4,3,0,-4,3,2,7,10,0,3,1,0
4,3,0,-4,2,3,7,11,0,3,2,1
3,3,0,-3,2,2,7,12,1,4,2,1
2,2,0,-2,1,2,6,12,0,4,2,0
2,2,0,-2,0,2,6,11,0,3,2,0
1,2,1,-1,-1,2,5,11,0,3,1,0
0,1,2,-1,-2,2,5,10,-1,2,1,0
0,1,1,-1,-1,2,6,10,-1,2,1,0
2,3,1,-3,0,2,7,10,0,3,1,0
5,5,0,-5,2,3,7,10,0,3,2,1
5,5,0,-5,2,3,6,9,0,3,2,1
3,5,2,-3,0,3,5,8,-1,3,2,1
1,5,3,-3,-1,4,4,8,-1,3,2,1
1,5,3,-3,-1,3,3,7,-1,3,2,1
1,4,2,-2,-1,3,3,7,-1,3,2,1
0,3,2,-2,-1,3,3,7,-1,3,2,1
1,3,2,-2,-1,3,1,6,-2,2,1,1
3,4,1,-3,0,3,0,5,-2,2,1,1
5,6,1,-6,2,4,1,4,-2,2,2,2
6,8,2,-7,2,6,2,4,-2,2,3,2
6,9,2,-7,1,6,4,4,-2,2,3,3
4,7,2,-6,1,5,5,4,-3,2,3,3
3,6,2,-5,0,4,5,3,-4,1,3,2
3,6,2,-5,0,5,4,3,-4,1,2,2
5,8,2,-7,1,6,3,2,-5,1,2,2
7,9,2,-9,2,6,3,1,-5,0,2,2
4,5,1,-5,1,3,2,0,-7,-1,0,1
0,1,1,0,-1,1,1,-1,-8,-2,0,0
-1,1,2,0,-2,2,1,-1,-7,-3,0,0
0,2,2,-1,-1,2,1,0,-6,-2,0,0
1,4,1,-2,0,3,1,1,-5,-2,1,1
2,3,0,-2,0,2,1,2,-5,-1,1,1
1,2,0,-1,0,2,1,3,-4,-1,1,1
1,1,0,-1,0,1,1,3,-4,-1,1,1
1,1,0,-1,0,1,2,3,-4,-1,1,1
1,0,-1,-1,1,0,2,3,-5,-1,1,1
1,0,-2,0,2,-1,2,3,-5,-1,0,0
1,-2,-4,0,3,-3,2,2,-6,-2,-1,0
2,-2,-5,0,3,-3,1,1,-7,-3,-2,-2
1,-2,-4,0,2,-3,0,1,-8,-4,-3,-3
0,-3,-3,2,0,-3,1,2,-7,-4,-3,-3
-3,-4,-1,4,-2,-2,1,3,-7,-4,-3,-2
-5,-6,0,6,-3,-3,1,2,-8,-4,-4,-3
-5,-6,-1,5,-2,-3,2,1,-8,-5,-4,-3
-3,-4,-1,3,-1,-2,3,1,-8,-5,-4,-3
-2,-3,-1,2,0,-2,4,1,-8,-5,-4,-3
-3,-3,-1,3,-1,-2,5,1,-9,-5,-4,-3
-4,-4,-1,4,-1,-3,6,1,-9,-5,-4,-3
-4,-5,-2,5,-1,-3,6,1,-9,-5,-5,-3
-2,-4,-2,4,0,-3,6,1,-9,-5,-5,-3
0,-3,-3,2,1,-3,6,1,-10,-5,-5,-3
2,-1,-3,0,3,-2,5,2,-10,-5,-5,-3
3,0,-3,-1,3,-2,6,2,-10,-4,-5,-2
0,-1,-2,0,1,-2,6,2,-10,-4,-5,-2
-3,-4,-2,3,-1,-3,5,1,-10,-5,-6,-2
-4,-4,-1,4,-2,-2,5,1,-10,-5,-6,-2
-4,-4,0,4,-2,-2,5,1,-10,-5,-6,-2
-5,-4,-1,4,-2,-2,5,1,-10,-6,-6,-2
-4,-5,-1,4,-1,-3,5,1,-10,-5,-6,-2
-4,-5,-1,5,-1,-3,6,1,-10,-5,-5,-2
-5,-5,-1,5,-2,-3,6,1,-10,-5,-5,-2
-4,-4,-1,4,-2,-3,7,1,-10,-5,-5,-2
0,-3,-3,2,1,-3,7,1,-10,-5,-5,-2
1,-3,-5,1,3,-4,6,0,-11,-6,-6,-3
0,-5,-6,2,2,-5,4,0,-11,-6,-7,-4
-2,-6,-4,4,0,-4,4,0,-11,-6,-7,-4
-4,-6,-2,5,-1,-4,4,1,-10,-6,-6,-3
-4,-5,-1,4,-1,-3,5,1,-10,-5,-6,-3
-2,-3,0,2,-1,-2,6,2,-9,-5,-5,-2
0,0,0,-1,0,0,7,3,-8,-3,-4,-1
1,1,0,-2,0,0,7,4,-8,-3,-4,-1
0,-1,0,0,0,0,6,4,-8,-4,-4,-1
-3,-4,0,4,-2,-1,4,3,-9,-5,-6,-1
-5,-5,0,5,-3,-2,3,2,-10,-6,-6,-2
-6,-6,0,6,-3,-2,3,1,-10,-7,-6,-2
-7,-3,3,5,-5,0,5,0,-10,-7,-6,-2
-8,-1,7,5,-7,2,6,0,-10,-7,-6,-2
-12,-2,9,7,-10,3,6,0,-10,-8,-6,-3
-14,-2,12,8,-13,4,7,0,-8,-6,-6,-2
-14,2,16,6,-15,9,9,4,-4,-2,-3,0
-13,6,19,3,-16,13,12,9,2,3,1,4
-12,11,23,1,-18,17,14,15,10,10,7,8
-11,14,25,-1,-19,20,16,22,18,18,13,13
-10,17,27,-3,-19,22,17,26,26,27,20,17
-5,22,27,-7,-17,24,17,25,32,37,27,22
1,29,28,-14,-14,28,14,21,38,49,36,29
8,37,28,-22,-11,32,10,16,46,64,48,38
16,44,28,-31,-6,36,3,9,54,82,63,48
26,51,25,-39,0,38,-5,1,60,97,76,58
34,55,21,-44,6,38,-13,-9,62,106,84,64
41,54,12,-47,14,33,-19,-18,59,107,85,65
47,47,-1,-47,24,23,-25,-28,51,101,80,61
53,38,-15,-45,34,11,-33,-38,39,89,72,54
58,28,-30,-44,44,-1,-41,-49,24,73,61,45
63,19,-44,-41,53,-13,-45,-57,5,53,48,35
65,7,-57,-37,60,-25,-47,-65,-14,29,32,24
65,-3,-68,-32,66,-35,-47,-72,-34,4,16,11
64,-12,-76,-26,69,-43,-46,-79,-55,-21,-1,-1
62,-20,-81,-20,71,-50,-45,-86,-73,-44,-16,-12
57,-27,-83,-14,70,-55,-43,-91,-87,-63,-28,-21
50,-33,-82,-8,66,-57,-42,-94,-97,-76,-37,-28
44,-37,-80,-3,62,-58,-40,-93,-101,-83,-42,-33
40,-39,-79,-1,59,-59,-38,-90,-100,-84,-45,-35
37,-40,-77,1,56,-59,-36,-85,-97,-83,-48,-37
34,-40,-75,3,54,-58,-34,-78,-93,-81,-48,-38
33,-39,-71,3,51,-55,-30,-70,-86,-76,-47,-38
30,-37,-66,3,47,-51,-26,-61,-79,-70,-45,-36
26,-36,-61,4,43,-48,-23,-53,-71,-64,-43,-35
21,-34,-55,6,38,-44,-21,-46,-64,-58,-40,-33
17,-33,-49,7,33,-41,-19,-40,-57,-52,-37,-31
13,-31,-45,8,29,-38,-17,-34,-51,-47,-34,-29
10,-29,-40,8,25,-35,-15,-28,-46,-42,-31,-26
9,-25,-34,7,21,-30,-11,-22,-40,-37,-28,-23
9,-18,-28,4,18,-24,-7,-14,-33,-30,-23,-19
7,-14,-22,3,14,-18,-3,-8,-26,-24,-20,-16
3,-13,-17,5,10,-15,-1,-4,-21,-20,-17,-14
0,-12,-13,6,6,-12,0,-2,-18,-16,-15,-12
-1,-11,-10,6,4,-10,0,0,-15,-14,-14,-11
-2,-10,-9,5,3,-9,1,1,-13,-12,-12,-10
-2,-9,-8,5,2,-8,2,2,-12,-10,-10,-9
-2,-7,-5,4,1,-6,4,4,-10,-9,-9,-7
-1,-4,-3,2,0,-4,6,6,-8,-7,-8,-6
0,-1,-2,0,0,-1,8,8,-6,-5,-6,-4
2,1,-1,-1,1,0,9,9,-4,-4,-6,-3
0,-1,-1,1,0,-1,9,9,-4,-4,-7,-3
-3,-3,-1,3,-1,-2,8,8,-4,-4,-7,-4
-5,-3,1,4,-2,-1,9,8,-3,-3,-7,-4
-6,-3,2,4,-4,0,9,9,-3,-3,-6,-4
-7,-4,1,5,-4,-1,8,8,-4,-4,-7,-4
-6,-5,0,5,-3,-2,7,8,-5,-5,-7,-4
-3,-4,0,4,-2,-2,7,8,-5,-5,-7,-4
-2,-3,0,3,-1,-2,7,8,-5,-5,-7,-4
-3,-3,0,3,-2,-1,7,8,-5,-5,-7,-4
-4,-3,0,4,-2,-1,7,8,-4,-4,-6,-4
-4,-3,0,3,-2,-1,8,8,-4,-4,-6,-4
-5,-3,0,3,-3,-1,8,8,-4,-4,-5,-4
-7,-4,1,5,-5,-1,8,8,-4,-4,-5,-3
-8,-5,1,6,-5,-2,8,8,-4,-4,-4,-3
-6,-5,0,6,-3,-3,7,8,-5,-4,-5,-3
-2,-4,-2,4,-1,-3,7,7,-5,-5,-5,-4
-2,-4,-2,3,0,-3,6,7,-5,-5,-5,-4
-3,-4,0,3,-1,-2,6,7,-5,-5,-5,-4
-3,-3,0,3,-2,-1,6,7,-4,-4,-4,-3
-3,-3,0,3,-2,-2,6,7,-4,-4,-4,-3
-4,-4,0,4,-2,-3,5,7,-4,-4,-4,-3
-5,-6,-1,5,-3,-4,5,6,-4,-4,-4,-3
-5,-6,-1,5,-3,-3,4,6,-4,-4,-5,-3
-5,-6,-1,5,-2,-3,4,5,-4,-4,-5,-3
-4,-5,-1,5,-2,-2,4,5,-4,-4,-5,-3
-3,-5,-1,4,-1,-2,4,5,-4,-4,-5,-3
-3,-4,-1,3,-1,-2,4,5,-4,-4,-5,-3
-2,-3,0,2,-1,-1,5,5,-4,-4,-5,-3
-2,-1,0,0,-2,0,6,5,-3,-3,-4,-3
-2,1,2,0,-3,2,7,6,-2,-1,-3,-1
-1,2,3,-1,-3,3,8,7,-1,0,-2,0
-2,0,1,0,-2,1,8,7,-1,-1,-2,0
-3,-3,0,3,-3,0,7,6,-2,-2,-3,-1
-4,-3,1,3,-3,0,7,5,-2,-2,-3,-1
-5,-3,2,3,-4,0,6,5,-2,-2,-3,-2
-6,-3,3,4,-4,0,6,4,-3,-2,-4,-2
-6,-4,1,4,-4,-1,5,4,-3,-3,-4,-3
-5,-4,0,5,-3,-2,5,3,-4,-3,-5,-3
-6,-5,-1,6,-3,-3,4,2,-4,-3,-5,-3
-7,-6,-1,7,-3,-3,4,2,-3,-3,-5,-3
-5,-5,-1,5,-2,-2,5,2,-3,-3,-4,-3
-2,-2,0,2,-1,0,6,3,-2,-2,-3,-2
0,1,0,-1,0,1,7,4,-1,-1,-2,-1
0,1,1,-1,-1,1,7,3,-1,-1,-3,-1
-3,-2,1,2,-2,0,6,1,-3,-3,-4,-3
-4,-3,0,4,-3,-1,5,0,-3,-3,-5,-3
-3,-1,0,2,-2,0,4,1,-3,-2,-4,-2
-2,-1,1,1,-2,0,4,1,-2,-1,-3,-2
-4,-2,1,3,-3,0,3,2,-2,-1,-3,-1
-5,-3,2,4,-4,0,3,2,-1,0,-2,-1
-6,-2,4,4,-5,1,3,3,-1,0,-2,-1
-5,-1,4,2,-5,2,3,3,0,0,-1,-1
-3,1,4,0,-4,3,4,3,0,1,-1,0
-2,2,4,0,-3,3,5,4,0,2,0,0
-1,3,4,-1,-3,4,6,4,1,2,0,0
0,4,3,-1,-2,4,5,4,1,2,0,0
1,4,1,-2,0,3,5,3,0,2,0,0
1,3,1,-2,0,3,5,3,0,2,0,0
0,2,2,0,-1,2,5,3,0,2,0,0
-3,0,3,1,-3,2,4,2,0,2,0,0
-3,0,4,1,-3,2,3,2,0,2,-1,0
-3,0,4,1,-3,2,3,2,0,2,-1,0
-3,1,4,1,-3,3,4,2,1,3,0,0
-3,2,4,0,-3,3,4,3,2,4,1,1
-2,3,4,0,-3,4,5,3,3,6,2,2
0,4,3,-1,-2,4,6,4,4,7,3,3
2,4,2,-3,0,4,6,4,5,7,4,3
3,4,1,-3,1,3,5,5,5,8,4,4
4,4,0,-4,2,3,5,5,6,8,4,4
4,4,0,-3,2,3,4,4,6,8,4,4
2,3,0,-2,1,2,3,4,6,8,4,4
2,3,1,-2,0,2,2,4,6,8,5,4
1,3,1,-2,-1,3,2,4,6,9,5,4
1,4,3,-2,-2,4,2,4,7,10,6,4
0,4,3,-1,-3,4,2,4,7,10,6,5
0,2,2,0,-2,3,1,4,7,10,6,5
0,1,2,0,-2,2,0,4,8,11,6,5
-1,1,3,0,-3,2,-1,5,8,12,7,6
-2,2,4,0,-4,4,-1,5,9,13,8,7
-2,3,5,0,-4,5,-1,6,10,14,9,7
-2,4,5,-1,-4,5,-1,6,11,15,10,8
0,5,5,-2,-3,5,-1,6,12,15,10,8
1,6,4,-3,-2,5,-2,6,12,16,11,8
3,7,3,-5,-1,5,-2,7,13,17,11,9
6,8,2,-7,1,5,-2,7,13,17,12,9
9,9,1,-9,3,5,-1,7,14,18,12,10
11,12,0,-12,4,6,-1,7,15,20,13,11
12,13,1,-13,4,8,0,8,16,21,14,12
10,13,3,-12,3,8,0,8,17,21,15,13
9,12,3,-11,2,8,0,8,18,22,16,13
8,11,2,-9,2,7,0,8,18,22,16,13
7,10,2,-8,2,6,0,7,17,21,15,13
8,10,1,-9,3,6,0,7,17,21,15,12
10,10,0,-10,4,5,0,7,17,21,15,12
11,10,-1,-10,5,5,-1,7,17,22,15,12
11,9,-1,-10,5,4,-2,7,17,22,15,12
9,9,-1,-9,5,4,-2,6,17,22,15,12
9,9,-1,-9,5,5,-3,6,17,22,16,13
11,11,-1,-11,6,6,-3,7,18,22,17,14
14,14,-1,-14,7,7,-2,7,19,23,17,14
14,14,0,-14,7,7,-2,7,18,23,17,14
12,13,1,-12,5,7,-2,6,18,23,17,14
11,11,1,-11,5,6,-1,6,18,23,17,14
9,8,-1,-9,5,3,-2,5,17,21,15,13
8,6,-2,-8,5,2,-3,4,16,20,14,13
10,7,-4,-9,6,2,-3,4,16,20,15,13
11,8,-4,-9,7,2,-3,3,16,20,15,13
9,7,-2,-8,5,3,-3,3,16,19,14,13
7,7,0,-7,2,3,-3,3,16,19,14,13
6,6,0,-6,2,3,-2,3,16,19,14,13
7,6,0,-7,3,3,-2,3,16,19,14,12
7,6,-1,-7,3,3,-2,3,15,18,13,12
7,5,-2,-6,3,2,-2,3,15,17,13,11
7,5,-3,-6,4,1,-2,3,14,17,12,11
9,6,-3,-7,5,2,-2,3,14,17,12,11
10,7,-3,-8,6,2,-2,3,14,16,12,11
9,6,-3,-8,6,1,-2,4,14,16,12,10
9,6,-3,-7,5,1,-2,4,14,16,12,10
9,6,-2,-8,5,2,-1,4,14,15,12,10
9,6,-2,-8,5,1,-1,3,13,14,11,9
8,4,-2,-6,5,1,0,3,13,13,10,8
7,4,-2,-6,4,1,1,3,13,13,10,8
7,6,-1,-6,4,2,2,3,12,12,10,8
7,5,-1,-6,4,2,3,2,11,11,9,8
6,4,-2,-5,4,1,3,0,9,9,7,7
6,3,-2,-4,4,0,2,-1,8,8,6,5
5,1,-3,-2,4,-1,2,-2,6,6,4,4
4,0,-3,-2,3,-2,1,-3,5,4,3,3
4,-1,-4,-1,3,-3,1,-3,5,4,3,2
1,-3,-4,1,2,-4,1,-3,5,3,2,2
-1,-5,-3,4,0,-4,2,-3,4,3,2,2
-2,-4,-3,4,0,-3,1,-4,3,2,2,1
-1,-3,-3,3,0,-3,1,-4,2,1,1,1
0,-3,-4,2,1,-3,2,-4,2,1,1,1
0,-4,-4,2,1,-4,3,-4,2,1,1,1
-1,-4,-3,3,0,-4,4,-5,2,0,1,1
-1,-4,-2,3,0,-3,4,-5,1,0,0,1
0,-3,-2,1,1,-2,5,-5,1,0,0,1
2,0,-2,0,2,-1,6,-5,1,0,0,1
3,1,-3,-1,2,0,6,-4,1,0,0,1
3,0,-3,-1,2,-1,6,-4,1,0,0,1
3,0,-3,-1,2,-1,6,-4,0,0,0,1
4,1,-3,-2,3,-1,6,-4,1,0,0,1
5,1,-4,-3,4,-1,6,-4,0,0,0,0
4,-2,-5,-1,4,-3,4,-5,0,-2,-2,0
3,-4,-6,0,4,-5,4,-6,-1,-2,-2,-1
1,-4,-5,1,3,-5,4,-6,-1,-2,-2,-1
0,-4,-4,2,2,-4,4,-6,-1,-3,-3,-1
0,-4,-5,2,2,-4,4,-7,-2,-3,-3,-2
2,-3,-6,1,4,-5,4,-7,-2,-4,-4,-2
5,-3,-8,0,6,-5,4,-7,-2,-4,-4,-2
5,-3,-9,-1,7,-6,5,-7,-2,-5,-4,-2
3,-5,-9,1,5,-6,5,-7,-2,-5,-4,-2
1,-5,-7,2,4,-5,6,-6,-2,-4,-4,-1
3,-2,-5,0,3,-3,8,-5,0,-3,-2,0
3,0,-4,-1,3,-2,9,-4,0,-3,-2,0
1,-3,-4,1,2,-4,8,-5,-1,-4,-3,0
-2,-6,-4,4,0,-5,6,-5,-1,-4,-3,-1
-4,-7,-3,5,0,-5,5,-4,-1,-4,-3,-1
-3,-6,-3,5,0,-5,4,-3,-1,-4,-3,0
-2,-5,-3,3,0,-4,3,-3,0,-3,-3,0
-1,-5,-3,3,1,-5,2,-4,-1,-4,-3,-1
-2,-7,-4,4,1,-6,2,-5,-2,-5,-4,-2
-2,-7,-5,4,2,-6,3,-5,-2,-5,-5,-2
0,-5,-5,3,2,-6,5,-5,-2,-5,-4,-2
1,-3,-5,1,3,-4,6,-4,-1,-4,-3,-1
1,-2,-4,0,2,-3,7,-3,0,-4,-3,0
1,-2,-4,0,2,-3,8,-3,0,-3,-2,0
1,-2,-4,0,2,-2,8,-2,0,-3,-2,1
1,-1,-3,0,2,-2,8,-2,1,-2,-1,1
0,-1,-2,0,1,-1,7,-2,0,-2,-2,1
-1,-3,-2,2,0,-2,6,-2,0,-3,-2,0
-1,-4,-3,2,1,-3,6,-3,0,-3,-3,0
0,-4,-4,2,1,-4,6,-3,0,-3,-3,0
-1,-5,-4,3,0,-4,7,-4,0,-3,-3,0
-3,-5,-2,4,-1,-3,8,-4,0,-3,-3,0
-2,-4,-1,3,-1,-2,8,-4,0,-2,-2,0
0,-3,-2,1,0,-2,8,-4,0,-2,-2,0
1,-2,-3,0,2,-2,8,-4,0,-2,-2,0
2,-2,-4,0,3,-3,8,-4,0,-2,-2,0
1,-3,-4,0,3,-3,8,-3,0,-2,-2,0
1,-2,-3,1,2,-3,8,-3,0,-1,-1,1
0,-2,-2,1,1,-2,8,-3,0,-1,-1,1
0,-1,-2,0,0,-1,8,-3,0,-1,-1,1
0,0,-1,0,0,-1,8,-3,1,-1,-1,1
0,-1,-1,0,0,-1,9,-3,1,0,-1,1
0,-1,-1,0,0,-1,9,-2,1,0,-1,2
0,0,0,0,0,0,9,-2,1,0,-1,2
1,1,0,-1,1,1,9,-2,1,0,-1,2
1,0,-1,-1,1,0,8,-2,1,0,-1,1
-1,-2,-2,2,1,-2,7,-2,1,0,-1,1
-3,-5,-3,4,0,-4,6,-3,0,-1,-2,0
-3,-6,-4,4,1,-5,5,-4,0,-2,-3,0
-2,-6,-4,4,1,-5,4,-4,0,-2,-3,0
-2,-5,-3,4,0,-4,4,-4,0,-1,-3,0
-2,-5,-2,4,0,-4,3,-3,1,-1,-3,1
-1,-3,-2,2,1,-3,4,-3,1,0,-2,1
1,-1,-3,0,2,-2,4,-2,1,0,-2,2
2,-1,-4,0,3,-3,4,-2,1,0,-1,2
1,-2,-4,1,3,-3,4,-3,1,0,-1,2
0,-3,-3,2,1,-3,4,-3,1,0,-1,2
-1,-2,-1,2,0,-2,4,-2,1,0,-1,2
0,-2,-1,1,0,-1,4,-2,1,0,-1,2
0,-1,-2,0,1,-1,4,-2,1,0,-1,2
-1,-2,-1,1,0,-1,4,-2,1,0,-2,1
-2,-3,0,3,-1,-1,4,-2,1,0,-2,1
0,0,-1,1,0,0,6,-1,2,1,-1,2
4,3,-1,-2,2,1,9,0,4,3,1,4
3,3,0,-2,1,1,10,1,5,4,2,4
0,1,1,0,0,1,10,1,4,3,2,4
0,0,1,0,0,1,10,0,4,3,1,4
0,0,0,0,0,1,10,0,4,2,1,4
0,0,1,0,-1,1,10,0,3,1,0,3
0,0,1,0,-1,1,10,0,3,2,0,3
-1,0,2,0,-1,1,9,0,3,2,0,3
-1,0,2,1,-2,1,9,0,3,2,0,2
0,1,1,0,-1,1,9,0,4,2,0,3
0,1,0,0,0,1,10,1,5,3,1,4
1,1,1,-1,0,1,10,1,6,3,2,4
3,3,1,-3,1,3,10,2,6,3,2,5
5,6,1,-5,2,4,10,2,7,3,2,5
6,6,0,-6,2,3,9,2,7,4,2,5
5,5,0,-5,3,2,8,2,7,4,2,5
4,4,-1,-4,3,1,7,0,6,3,2,5
5,5,-1,-5,3,1,5,0,5,3,2,5
8,6,-1,-7,4,2,4,-1,5,3,2,5
9,7,-1,-8,5,3,3,-2,5,3,2,5
7,6,-1,-7,4,2,2,-3,4,2,1,5
3,3,0,-3,1,1,0,-5,2,0,0,4
1,1,0,-1,0,1,0,-6,1,0,0,3
1,2,1,-1,0,1,0,-6,1,0,0,3
2,3,1,-2,0,2,0,-7,0,0,0,4
2,3,1,-3,0,2,1,-7,0,0,0,4
2,3,1,-3,0,2,1,-8,0,0,0,4
2,2,1,-2,0,1,1,-8,0,-1,0,4
2,1,0,-2,0,1,1,-8,0,-1,0,4
1,1,0,-1,0,1,2,-8,0,0,1,4
2,2,0,-2,0,1,3,-7,1,0,1,5
2,2,0,-3,1,2,3,-6,1,0,1,5
4,3,0,-4,2,1,3,-6,1,0,1,5
5,4,-1,-5,3,1,2,-6,1,0,1,5
6,3,-2,-5,4,0,2,-6,1,0,1,5
5,2,-2,-4,4,0,2,-6,1,0,0,4
4,1,-2,-3,3,0,2,-6,0,0,0,4
3,0,-2,-2,2,-1,1,-6,0,-1,-1,3
3,-1,-4,-1,3,-2,1,-7,-1,-2,-2,2
3,-2,-5,0,3,-3,1,-7,-2,-3,-2,2
3,-2,-6,0,4,-4,1,-7,-2,-3,-2,2
1,-3,-4,1,2,-3,2,-7,-1,-2,-2,2
-2,-3,-1,3,0,-2,3,-6,-1,-2,-2,2
-3,-4,0,4,-1,-2,4,-6,-1,-2,-2,1
-4,-4,-1,4,-1,-2,4,-6,-1,-2,-2,1
-4,-5,-1,5,-1,-3,5,-6,-1,-2,-2,1
-4,-6,-3,5,-1,-4,4,-5,-1,-3,-2,1
-5,-7,-4,6,-1,-5,3,-5,-1,-3,-3,0
-5,-8,-4,6,-1,-6,3,-6,-2,-4,-4,-1
-3,-6,-4,4,0,-5,3,-6,-3,-4,-4,-1
-1,-5,-4,2,1,-5,3,-6,-3,-4,-4,-1
0,-5,-4,2,2,-5,3,-6,-3,-4,-4,-1
0,-4,-5,2,2,-5,3,-5,-2,-4,-3,-1
1,-4,-5,2,3,-5,4,-5,-2,-4,-3,0
-1,-6,-5,3,2,-5,4,-6,-3,-4,-4,0
-2,-6,-5,3,1,-5,4,-6,-3,-4,-4,0
-1,-5,-4,2,1,-4,4,-6,-2,-4,-4,0
-2,-5,-4,3,0,-4,4,-6,-2,-4,-4,0
-2,-4,-2,3,0,-3,4,-5,-2,-3,-4,0
-1,-2,0,1,0,-1,4,-5,-2,-3,-3,0
-1,-1,0,1,-1,0,4,-5,-2,-3,-3,0
-1,-1,0,2,-1,0,5,-5,-2,-3,-3,0
0,0,0,0,0,0,6,-4,-1,-3,-2,1
1,-1,-2,0,2,-2,6,-5,-1,-3,-3,0
0,-5,-4,2,2,-4,5,-6,-3,-5,-5,-1
0,-7,-6,3,3,-6,5,-6,-3,-5,-6,-2
0,-6,-5,3,3,-5,5,-6,-3,-5,-5,-2
-1,-5,-3,3,1,-4,6,-6,-3,-5,-5,-2
-1,-4,-3,3,1,-4,6,-6,-3,-5,-5,-2
0,-3,-3,2,2,-3,6,-5,-3,-5,-5,-2
0,-2,-2,1,2,-2,6,-4,-2,-4,-4,-1
0,-2,-2,1,1,-1,7,-3,-1,-3,-3,0
-1,-4,-3,2,1,-3,6,-3,-2,-3,-3,0
-2,-6,-5,3,1,-5,5,-4,-3,-4,-4,-1
-2,-8,-6,4,1,-6,5,-4,-3,-5,-5,-2
-3,-8,-5,5,1,-6,5,-4,-3,-5,-5,-2
-3,-7,-4,5,0,-6,5,-4,-3,-5,-5,-2
-3,-6,-3,5,0,-5,5,-3,-3,-5,-5,-1
-3,-5,-2,4,0,-4,6,-3,-3,-5,-4,-1
-5,-6,-1,6,-2,-4,6,-3,-3,-5,-4,-1
-9,-7,1,8,-6,-3,6,-4,-3,-6,-5,-1
-11,-5,5,8,-9,0,6,-5,-3,-6,-4,0
-11,-1,9,6,-11,4,8,-4,-1,-4,-3,1
-10,3,13,3,-12,8,9,-1,1,-2,-1,3
-9,7,16,1,-12,11,10,3,6,2,1,5
-8,11,18,-1,-13,14,12,9,13,7,5,8
-8,14,21,-2,-14,17,13,16,21,15,11,13
-7,18,24,-5,-15,20,15,23,30,24,18,18
-3,22,25,-9,-14,23,15,25,37,34,26,23
0,27,26,-13,-13,26,14,22,44,45,34,29
4,32,27,-18,-12,30,11,17,51,58,45,37
9,38,28,-24,-10,33,5,10,58,74,59,47
17,44,27,-31,-5,36,-3,1,65,90,72,57
25,49,23,-37,1,36,-11,-9,68,102,82,64
33,50,16,-41,9,33,-18,-20,66,105,85,65
42,46,4,-43,20,25,-24,-29,60,102,82,63
53,40,-12,-46,33,14,-30,-38,50,93,75,58
61,33,-28,-47,45,2,-37,-48,36,79,66,50
65,24,-43,-45,54,-9,-43,-58,19,60,53,41
67,13,-56,-40,61,-21,-47,-66,0,38,39,30
65,0,-67,-32,65,-34,-49,-75,-22,12,22,18
61,-13,-75,-24,67,-44,-49,-83,-43,-13,5,5
57,-23,-80,-17,68,-52,-49,-90,-62,-37,-10,-6
52,-31,-83,-10,68,-57,-48,-97,-79,-58,-24,-16
48,-36,-84,-5,66,-60,-47,-102,-91,-73,-34,-24
46,-37,-84,-4,65,-60,-44,-102,-96,-82,-40,-29
46,-36,-84,-5,65,-59,-41,-99,-96,-84,-43,-32
42,-39,-83,-2,62,-60,-39,-94,-94,-84,-45,-34
37,-41,-81,1,58,-61,-38,-88,-90,-83,-47,-36
34,-42,-77,3,55,-59,-35,-81,-85,-79,-46,-36
32,-40,-72,4,51,-56,-32,-72,-77,-73,-44,-35
30,-37,-66,4,48,-52,-29,-64,-69,-67,-42,-33
28,-33,-60,3,45,-47,-25,-55,-61,-60,-38,-31
27,-28,-54,1,41,-41,-20,-47,-52,-52,-34,-27
25,-23,-49,-1,37,-35,-16,-39,-45,-46,-30,-24
22,-21,-44,-1,32,-31,-12,-33,-38,-41,-27,-22
17,-20,-38,0,27,-28,-10,-28,-34,-37,-25,-20
13,-19,-33,2,22,-26,-8,-24,-30,-34,-23,-19
9,-17,-27,3,17,-23,-5,-19,-25,-29,-21,-16
5,-16,-21,5,13,-19,-1,-14,-19,-24,-18,-13
2,-14,-16,6,9,-15,1,-10,-13,-19,-15,-11
1,-11,-13,5,7,-11,4,-7,-8,-15,-12,-9
0,-9,-10,5,5,-9,5,-4,-5,-12,-10,-7
-2,-9,-9,6,3,-9,6,-2,-3,-10,-8,-6
-3,-10,-9,7,2,-9,6,-1,-2,-9,-8,-5
-3,-9,-8,6,2,-9,6,0,-2,-9,-7,-5
-2,-7,-5,5,0,-6,6,0,-1,-9,-7,-4
-3,-6,-3,4,0,-5,6,1,0,-8,-6,-3
-4,-8,-2,6,-1,-5,6,2,0,-8,-6,-3
-6,-9,-2,8,-2,-4,6,2,1,-7,-6,-3
-7,-9,-2,9,-2,-4,6,2,1,-7,-5,-3
-6,-7,-2,7,-2,-4,6,3,2,-6,-5,-2
-2,-3,-2,2,0,-2,7,5,3,-5,-3,-1
0,0,-2,0,0,-1,7,6,4,-3,-2,0
0,-1,-1,0,0,-2,7,5,4,-4,-3,0
-2,-3,-1,2,-1,-2,6,4,4,-4,-4,-1
-1,-3,-1,2,0,-2,6,4,5,-4,-4,-1
1,-2,-1,0,1,-1,7,5,6,-3,-3,0
1,-1,-1,0,1,0,8,7,7,-2,-2,0
-1,-2,0,2,0,-1,8,7,7,-3,-2,0
-5,-5,-1,4,-2,-3,8,6,6,-4,-3,-1
-7,-6,-1,6,-4,-4,7,4,4,-5,-3,-1
-8,-7,0,7,-4,-4,6,3,3,-6,-4,-2
-7,-7,-1,7,-3,-4,4,3,3,-6,-4,-2
-6,-8,-1,7,-3,-4,3,3,4,-6,-4,-2
-6,-8,-1,7,-3,-4,2,3,4,-5,-4,-2
-6,-7,0,7,-2,-3,1,4,5,-5,-4,-2
-6,-6,0,6,-3,-3,1,4,6,-5,-4,-2
-7,-5,1,6,-4,-2,1,4,6,-5,-3,-1
-7,-4,1,5,-4,-2,1,5,7,-4,-3,-1
-6,-4,1,5,-4,-2,2,5,7,-4,-3,0
-6,-5,0,5,-4,-2,2,5,8,-4,-3,0
-7,-6,1,6,-4,-2,4,5,9,-4,-3,0
-6,-6,1,6,-3,-2,5,5,10,-4,-2,0
-4,-4,1,4,-1,-1,6,5,11,-4,-2,0
-1,-2,0,2,0,-1,6,5,11,-5,-2,0
-2,-2,0,1,0,-1,7,5,11,-5,-3,0
-3,-2,1,2,-2,-1,7,5,11,-5,-3,0
-3,0,1,1,-3,0,7,6,12,-5,-2,0
-1,1,1,0,-1,1,7,6,12,-4,-2,0
0,1,0,-1,0,0,7,5,11,-4,-2,0
1,0,0,0,0,0,7,5,11,-5,-3,0
0,-1,0,1,0,-1,8,5,11,-5,-3,0
-3,-3,0,4,-1,-1,8,5,11,-5,-2,0
-7,-5,1,6,-4,-2,9,4,11,-5,-2,0
-9,-7,1,8,-5,-3,9,4,10,-6,-3,0
-8,-6,0,7,-5,-3,8,4,10,-6,-3,0
-4,-4,0,4,-3,-3,8,3,10,-6,-3,0
-1,-3,-1,2,0,-2,7,3,10,-6,-4,0
1,-2,-2,1,1,-2,7,3,11,-6,-4,0
2,0,0,-1,1,0,7,3,12,-5,-3,0
0,2,2,-1,-1,2,8,4,13,-4,-1,1
-2,1,4,0,-3,3,9,5,14,-3,0,2
-2,1,3,0,-3,2,9,5,15,-2,0,2
-1,2,2,-1,-2,2,9,5,15,-2,0,2
-1,1,1,0,-2,1,8,5,14,-2,0,1
-3,-2,1,2,-2,-1,7,3,13,-3,-1,1
-5,-4,2,4,-4,-1,5,3,13,-4,-2,0
-5,-3,3,4,-4,0,5,3,14,-3,-1,1
-4,-1,3,2,-3,0,5,3,15,-3,-1,1
-3,-1,1,2,-2,0,5,3,15,-3,-1,1
-3,0,1,2,-2,0,4,3,15,-3,-1,1
-2,0,1,1,-2,1,4,3,16,-2,0,1
-2,1,2,0,-2,1,5,4,17,-1,1,2
-2,1,3,0,-3,1,6,5,18,0,1,3
-2,1,3,0,-3,1,6,5,18,0,1,3
-3,-1,3,2,-3,0,6,4,18,0,1,2
-5,-3,2,4,-3,0,5,2,16,-1,0,1
-5,-3,2,4,-3,0,5,2,16,-1,0,1
-5,-2,2,3,-4,0,7,2,16,0,0,2
-4,-1,2,3,-3,0,7,3,17,0,1,2
-4,-1,1,2,-3,0,7,3,17,0,1,2
-3,0,2,1,-3,1,7,3,17,1,2,3
-2,3,4,0,-3,3,7,4,18,2,3,3
0,5,5,-2,-2,4,7,5,19,3,3,4
0,5,5,-3,-2,5,6,5,19,3,4,5
0,5,5,-3,-2,5,6,5,20,4,4,5
1,5,4,-4,-1,5,5,5,20,4,4,5
3,6,3,-4,0,5,5,5,20,5,5,5
3,6,2,-5,0,5,4,5,20,5,5,5
3,6,2,-4,0,4,3,6,21,6,6,5
2,5,2,-3,-1,4,2,6,21,7,6,6
1,4,3,-3,-1,4,0,6,22,7,7,6
0,4,4,-2,-2,4,-1,6,22,8,7,6
-1,3,5,-1,-3,4,-2,7,23,8,8,7
-1,3,4,-1,-2,4,-2,7,23,9,9,8
0,4,3,-2,-2,4,-2,7,24,10,9,9
0,5,3,-3,-2,4,-2,7,24,11,10,10
0,6,4,-3,-2,5,-1,7,25,12,11,10
2,8,5,-5,-2,6,0,8,26,14,12,11
4,9,5,-7,0,7,0,8,27,15,13,12
4,9,4,-7,0,7,0,8,27,15,14,12
4,8,4,-6,0,7,0,8,27,16,14,12
6,10,4,-8,1,7,1,7,27,16,14,12
8,11,2,-10,3,7,2,7,27,16,15,12
9,10,0,-9,4,6,2,6,27,16,15,12
8,9,0,-8,3,5,2,6,28,17,15,13
8,11,1,-9,3,6,3,7,29,19,16,14
9,14,3,-12,3,9,3,8,29,20,17,14
9,14,4,-12,3,9,3,7,29,19,16,14
8,11,2,-10,3,7,1,6,27,18,15,12
9,10,0,-9,4,5,0,5,27,17,15,12
10,11,0,-10,5,5,0,6,27,18,15,13
11,11,-1,-11,5,5,0,6,28,19,16,14
10,10,0,-10,5,5,-1,6,27,19,16,14
7,8,1,-8,2,5,-2,5,27,19,16,13
4,7,2,-6,1,5,-3,5,26,19,16,13
5,8,2,-7,1,5,-3,5,26,19,16,13
6,8,1,-7,2,4,-3,5,26,19,15,13
7,8,0,-8,3,4,-4,4,25,19,15,13
9,11,1,-10,3,6,-4,4,26,19,16,13
11,13,1,-12,4,7,-4,4,26,20,17,14
10,11,0,-10,4,5,-5,4,25,19,16,14
7,6,-1,-6,3,2,-7,3,24,18,15,13
5,4,-2,-4,3,0,-7,2,23,18,15,12
5,4,-2,-5,4,1,-6,2,23,18,15,12
7,6,-2,-7,5,2,-5,2,23,18,15,12
9,8,-2,-9,6,3,-4,2,23,17,15,12
10,8,-2,-9,6,3,-3,2,23,17,15,12
10,8,-2,-9,6,3,-3,3,23,17,15,12
10,7,-2,-8,5,2,-3,3,23,16,15,12
9,6,-2,-7,5,2,-2,3,22,16,14,11
8,5,-3,-7,5,1,-1,3,22,16,14,11
8,5,-3,-7,5,1,0,4,22,15,13,10
7,5,-2,-6,5,2,0,4,22,15,12,10
6,4,-1,-5,3,2,0,3,21,13,11,9
4,3,0,-3,2,2,-1,3,20,12,10,8
4,3,0,-3,2,2,-1,4,20,11,10,7
5,4,-1,-4,3,2,0,4,20,11,10,7
7,6,-1,-6,4,2,0,4,20,11,10,7
7,6,-2,-7,4,2,0,4,19,10,9,7
5,4,-2,-5,4,1,0,3,18,8,8,6
3,2,-2,-2,3,0,0,2,17,7,8,6
2,1,-2,-1,2,0,0,2,17,7,8,6
1,1,-1,-1,1,0,1,2,17,7,7,5
0,0,-1,0,1,0,1,1,16,5,6,4
1,0,-1,-1,1,0,2,1,15,4,5,3
3,1,-2,-2,3,0,2,1,14,3,4,3
3,0,-3,-2,4,-1,2,0,13,2,3,3
3,0,-3,-1,3,-2,2,0,13,1,2,2
3,0,-3,-1,3,-2,3,1,13,1,2,2
3,0,-4,-1,4,-2,4,1,13,1,2,1
2,-2,-5,0,4,-3,3,0,12,0,1,0
1,-2,-4,0,3,-3,4,0,12,0,0,0
2,0,-3,-1,3,-1,5,1,12,0,1,0
2,1,-2,-2,2,0,5,1,12,0,1,0
0,0,-1,0,1,-1,5,1,12,-1,0,0
0,-1,0,0,0,-1,5,0,11,-2,0,0
0,-1,-1,0,1,-2,5,0,10,-2,0,0
2,-1,-2,0,2,-2,6,0,10,-2,0,0
1,-1,-2,0,2,-1,6,0,10,-2,0,0
0,-1,-1,1,1,-1,6,0,10,-2,0,0
-2,-2,-1,2,0,-1,6,0,9,-2,0,0
-2,-1,-1,2,0,-1,5,0,9,-3,-1,0
-2,-1,0,2,0,-1,5,0,9,-3,-1,-1
-2,-2,0,2,0,-2,5,0,8,-4,-2,-1
-1,-2,-1,2,0,-2,4,0,8,-5,-2,-2
-2,-4,-1,3,0,-3,4,-1,7,-6,-3,-2
-4,-6,-1,5,-1,-4,3,-1,7,-6,-3,-3
-5,-6,-1,6,-1,-4,3,-1,7,-6,-3,-3
-4,-6,-2,5,0,-4,3,-1,6,-6,-3,-3
-3,-5,-2,4,0,-4,3,-1,6,-6,-4,-3
-2,-4,-2,3,0,-4,3,-1,6,-6,-4,-3
-1,-4,-2,2,1,-4,3,-1,7,-5,-3,-2
0,-3,-3,1,2,-4,3,0,7,-4,-3,-2
2,-2,-3,0,3,-3,4,1,8,-3,-2,-1
3,0,-3,-1,3,-1,4,1,8,-2,-2,-1
2,0,-2,-1,2,-1,4,1,8,-2,-2,-1
1,-1,-2,0,2,-1,4,1,8,-2,-3,-2
0,-2,-1,1,0,-1,4,0,8,-2,-3,-2
-4,-4,0,3,-2,-2,4,0,8,-3,-4,-3
-6,-5,0,5,-3,-2,4,0,7,-3,-4,-3
-5,-5,0,5,-3,-3,3,0,7,-3,-4,-3
-4,-5,-1,5,-2,-4,3,0,7,-2,-4,-3
-4,-5,-2,5,-1,-4,3,0,7,-2,-4,-3
-3,-5,-2,4,0,-3,4,1,8,-2,-4,-3
-3,-5,-1,4,0,-3,4,1,8,-2,-4,-3
-3,-4,-1,3,0,-2,3,1,8,-1,-4,-3
-1,-3,-1,2,0,-3,3,1,8,-1,-4,-3
0,-3,-2,1,1,-3,3,1,8,0,-4,-3
0,-3,-2,1,1,-3,3,1,8,0,-4,-3
-2,-3,-1,2,0,-3,4,1,8,0,-4,-3
-3,-3,0,2,-1,-2,5,1,8,0,-4,-3
-1,-2,0,1,0,-1,5,1,8,0,-4,-3
0,1,0,-1,0,0,5,1,9,0,-3,-1
0,2,2,-1,0,1,6,2,10,1,-2,0
0,1,2,0,-1,1,5,2,10,1,-2,0
-2,0,1,1,-1,0,3,1,9,0,-3,-1
-3,-1,1,2,-2,0,2,1,9,0,-3,-1
-3,-1,2,2,-2,0,2,2,10,0,-3,-1
-4,-1,3,3,-3,0,3,2,10,1,-2,-1
-5,-2,3,4,-4,0,4,2,10,0,-2,-1
-6,-3,3,4,-4,0,5,1,9,0,-3,-2
-4,-1,3,3,-3,1,5,1,8,0,-2,-1
-3,0,3,1,-3,1,5,1,9,0,-2,-1
-2,0,3,1,-2,1,5,2,9,1,-1,0
-1,1,2,0,-1,1,5,2,9,1,-1,0
0,1,0,0,0,0,4,2,9,0,-2,-1
1,0,-1,0,2,-1,4,1,8,0,-2,-1
2,0,-2,-1,3,-1,4,1,8,0,-2,-1
3,1,-1,-2,3,0,5,1,9,0,-2,-1
3,3,1,-3,2,2,6,2,9,1,-1,0
0,3,3,-2,0,2,6,2,9,1,-1,0
-3,0,3,1,-2,1,5,1,8,0,-2,-1
-3,-1,2,2,-2,0,4,0,7,-1,-3,-2
-1,1,2,0,-1,1,4,0,7,-1,-2,-1
0,2,2,-1,-1,2,5,2,9,0,-1,0
1,3,2,-2,0,3,6,3,10,2,0,0
1,3,2,-2,0,3,6,4,10,2,0,0
-1,2,3,0,-1,2,4,3,8,1,-1,0
-3,0,3,2,-2,1,2,2,7,1,-2,-1
-3,0,2,2,-2,0,2,2,8,1,-2,-1
-2,0,2,1,-1,1,2,3,9,2,-1,0
-1,1,3,0,-2,2,3,4,10,3,0,0
-1,2,4,0,-2,3,5,5,10,3,0,1
-1,3,5,0,-3,4,6,5,10,3,0,1
-2,2,4,0,-3,3,5,4,8,2,0,0
-2,2,3,0,-2,2,4,3,7,0,-2,0
-1,2,2,0,-1,2,4,3,7,0,-2,0
0,2,1,0,-1,1,4,3,7,1,-1,0
0,3,2,-1,-1,2,6,5,9,3,0,1
0,5,6,-2,-3,5,7,5,10,4,1,2
-2,5,8,0,-5,6,7,5,9,3,1,1
-4,3,7,1,-5,5,7,4,9,3,0,1
-2,2,4,0,-3,3,7,4,9,3,0,1
1,4,2,-2,0,3,6,4,9,3,0,1
3,5,2,-4,0,4,6,4,9,3,0,1
2,6,4,-4,0,5,5,4,9,3,0,1
1,6,5,-4,-1,5,5,4,8,3,0,1
1,6,5,-4,-2,5,4,3,8,3,0,1
2,7,6,-5,-2,6,3,3,8,3,1,2
2,8,5,-5,-1,6,3,2,8,3,2,2
3,7,4,-5,-1,5,2,1,7,3,2,2
4,8,4,-6,0,6,2,1,7,3,2,3
5,10,4,-7,0,7,2,1,7,3,2,3
5,10,5,-8,0,7,2,0,6,3,3,3
6,11,4,-8,1,7,1,0,6,2,3,3
7,12,5,-9,1,8,2,-1,6,2,3,3
6,13,6,-9,0,9,2,-1,6,3,4,4
3,10,7,-6,-2,8,2,-2,5,2,3,3
0,7,6,-3,-3,7,0,-3,3,0,1,3
1,7,6,-4,-2,7,0,-4,3,0,1,3
1,8,5,-4,-1,7,0,-4,3,0,1,3
1,6,5,-3,-1,6,-1,-4,2,0,1,2
1,5,5,-2,-2,5,-1,-4,2,0,1,2
1,6,5,-3,-2,5,-1,-3,3,0,1,2
2,7,4,-4,0,5,-1,-3,3,0,0,1
3,7,2,-5,1,4,-1,-3,2,-1,0,1
3,6,1,-5,1,4,-1,-3,2,-1,0,0
2,4,2,-3,0,3,-1,-3,2,-1,0,0
0,3,3,-2,-1,3,0,-2,2,-1,0,0
0,3,3,-1,-1,3,0,-2,2,-1,0,0
0,2,3,-1,0,2,0,-2,2,0,-1,0
-1,0,2,0,0,0,0,-3,2,0,-1,0
-2,0,2,2,-1,0,1,-3,2,0,-1,0
-2,0,3,1,-2,1,3,-2,2,0,-1,0
-2,0,3,1,-2,1,4,-2,2,0,-1,0
-1,1,2,0,-1,1,4,-2,1,-1,-1,0
0,0,0,0,0,0,4,-3,0,-2,-2,-1
1,-1,-1,1,1,-1,4,-3,0,-3,-3,-2
0,-1,-1,2,1,-2,4,-3,-1,-3,-4,-3
-1,-1,0,2,0,-1,5,-3,-1,-3,-4,-3
-2,-2,0,3,-1,-2,5,-3,-1,-3,-4,-3
-1,-2,-1,3,0,-2,4,-3,-1,-3,-4,-3
-1,-3,-2,3,0,-2,3,-3,-1,-3,-4,-3
0,-3,-2,2,1,-2,3,-2,-1,-3,-4,-3
0,-3,-3,1,2,-3,3,-2,-1,-3,-4,-4
-2,-5,-2,4,0,-3,2,-2,-2,-3,-4,-4
-5,-6,0,6,-2,-3,2,-2,-2,-3,-4,-4
-6,-6,0,6,-3,-3,2,-2,-2,-4,-5,-4
-5,-5,0,6,-2,-3,2,-2,-2,-4,-5,-4
-4,-4,0,5,-2,-2,1,-2,-2,-4,-6,-4
-4,-3,1,4,-2,-1,1,-2,-2,-4,-6,-4
-3,-2,0,3,-1,0,2,-2,-2,-3,-6,-4
0,0,0,1,0,0,3,-1,-2,-3,-5,-4
0,1,0,0,0,1,3,-1,-2,-3,-5,-4
0,0,1,0,0,0,4,-1,-1,-2,-5,-4
-2,-1,1,2,-1,0,5,0,-1,-2,-4,-4
-2,-3,0,3,0,-1,5,0,0,-1,-4,-3
-1,-4,-2,3,0,-2,5,0,0,-2,-4,-3
-3,-5,-1,4,0,-3,4,-1,-2,-3,-6,-4
-7,-7,0,7,-2,-3,3,-1,-3,-4,-7,-5
-8,-7,0,7,-4,-3,3,-1,-3,-4,-7,-6
-8,-6,1,7,-4,-3,2,-1,-3,-4,-7,-6
-9,-7,2,8,-5,-3,2,-1,-3,-4,-7,-6
-9,-6,3,7,-6,-2,2,-1,-2,-4,-6,-5
-7,-3,3,5,-5,-1,2,0,-2,-4,-6,-5
-5,-2,2,3,-3,0,2,0,-1,-3,-5,-4
-5,-2,2,3,-3,0,2,0,-1,-3,-5,-4
-6,-3,2,4,-3,0,3,0,-1,-3,-5,-4
-6,-4,2,5,-4,-1,3,0,-2,-3,-6,-5
-7,-4,1,6,-4,-1,2,0,-2,-4,-6,-5
-7,-4,2,5,-4,-1,3,0,-2,-4,-7,-5
-7,-2,5,4,-6,1,4,0,-2,-4,-6,-5
-7,1,8,2,-7,5,6,1,-1,-4,-6,-4
-6,4,11,1,-8,8,7,1,0,-3,-5,-3
-7,7,14,0,-10,10,8,3,3,-1,-3,-1
-9,9,18,0,-13,14,10,8,9,4,0,2
-11,11,23,0,-17,17,11,13,15,10,5,6
-12,14,26,-1,-19,20,11,20,22,18,11,10
-9,19,28,-5,-19,23,13,27,31,27,18,15
-4,24,28,-10,-17,26,14,32,40,37,26,21
0,28,28,-14,-14,28,12,31,47,49,35,27
4,33,29,-19,-12,30,9,27,55,63,46,35
12,41,28,-27,-7,34,5,22,63,80,60,45
23,49,26,-36,-1,37,-1,14,70,97,75,55
34,56,22,-45,6,38,-9,4,73,109,85,63
43,57,14,-50,15,35,-15,-6,71,112,89,66
50,52,2,-51,24,27,-21,-16,64,108,85,63
57,45,-12,-51,34,16,-27,-26,52,98,77,57
64,36,-27,-50,45,4,-35,-38,37,82,65,48
66,25,-41,-45,54,-8,-42,-49,18,62,51,38
66,13,-53,-39,60,-20,-45,-58,-2,38,35,26
64,2,-62,-33,64,-30,-46,-65,-22,13,18,13
60,-9,-68,-25,65,-39,-45,-71,-42,-13,1,0
54,-20,-73,-16,64,-47,-44,-77,-61,-37,-15,-12
51,-27,-77,-11,64,-52,-42,-82,-76,-57,-28,-22
48,-32,-79,-7,63,-55,-40,-86,-87,-72,-39,-30
42,-36,-78,-2,60,-57,-40,-87,-93,-81,-46,-36
37,-39,-76,1,56,-58,-39,-86,-95,-85,-50,-40
32,-41,-74,4,53,-57,-37,-81,-93,-84,-52,-42
27,-43,-70,8,48,-57,-35,-76,-89,-82,-53,-43
23,-43,-66,10,44,-55,-33,-70,-83,-78,-53,-43
22,-40,-62,9,41,-51,-30,-61,-76,-72,-50,-41
20,-36,-56,8,38,-46,-27,-53,-67,-65,-46,-38
19,-32,-51,7,35,-42,-24,-45,-59,-59,-42,-35
18,-27,-45,4,32,-36,-20,-37,-51,-52,-38,-32
18,-21,-40,1,29,-31,-16,-30,-44,-45,-33,-28
16,-18,-35,0,26,-26,-12,-23,-37,-39,-30,-25
12,-18,-30,3,21,-24,-10,-18,-32,-34,-27,-23
7,-17,-24,5,15,-21,-8,-14,-28,-31,-26,-22
4,-15,-18,5,11,-16,-6,-8,-22,-26,-23,-20
0,-13,-12,6,6,-12,-3,-3,-17,-20,-20,-17
-4,-12,-7,8,1,-10,0,1,-12,-16,-17,-14
-5,-10,-4,8,0,-7,2,4,-8,-12,-14,-13
-3,-6,-3,5,0,-5,4,6,-6,-9,-12,-11
-2,-3,-2,3,0,-4,5,8,-4,-8,-11,-10
-2,-2,-1,2,0,-3,6,9,-3,-7,-10,-9
-2,-2,-1,2,0,-2,6,10,-2,-6,-10,-8
-1,-2,-1,1,0,-2,6,11,-1,-6,-9,-7
-2,-2,0,1,-1,-1,5,12,-1,-5,-8,-6
-3,-1,3,2,-3,0,5,12,0,-4,-7,-5
-4,0,4,2,-4,2,5,13,0,-3,-7,-5
-4,0,5,2,-4,2,6,13,1,-2,-6,-5
-5,0,5,2,-5,2,6,13,1,-2,-6,-5
-4,0,4,2,-4,2,6,13,1,-3,-7,-5
-3,0,3,1,-3,1,6,13,0,-3,-7,-5
-4,-1,2,2,-3,0,5,13,0,-3,-7,-6
-5,-1,3,3,-5,1,5,13,1,-3,-7,-5
-5,1,6,2,-6,3,5,14,1,-2,-6,-4
-3,2,6,1,-5,4,5,14,1,-2,-6,-4
-2,3,5,0,-3,4,6,14,1,-2,-6,-4
-1,4,4,-1,-2,4,7,15,2,-1,-5,-4
-2,2,4,0,-3,3,8,15,1,-1,-6,-4
-6,-1,4,3,-4,1,6,13,0,-3,-7,-5
-7,-3,3,5,-5,0,4,13,-1,-3,-8,-6
-6,-3,3,4,-5,0,4,14,0,-2,-7,-5
-5,-2,3,3,-4,0,4,14,0,-2,-7,-4
-5,-3,2,4,-4,0,2,13,0,-3,-8,-5
-6,-4,1,5,-3,-1,1,12,-1,-4,-9,-6
-8,-6,2,7,-5,-2,0,12,-1,-4,-9,-7
-10,-5,4,7,-7,-1,1,12,-1,-4,-9,-7
-8,-2,5,5,-6,1,3,13,0,-3,-8,-6
-6,0,5,2,-5,2,4,14,0,-2,-7,-5
-5,0,5,2,-5,2,4,15,0,-2,-7,-5
-5,-2,3,3,-4,1,4,15,0,-2,-7,-5
-3,-2,1,3,-2,0,5,15,0,-1,-6,-5
-2,-1,1,2,-2,0,6,16,1,-1,-6,-4
-2,1,4,1,-3,2,7,16,1,-1,-5,-4
-2,4,6,0,-4,5,8,16,1,-1,-5,-4
-2,6,7,-1,-4,6,9,17,2,0,-4,-3
-2,6,7,-2,-4,6,8,17,1,-1,-5,-3
-1,5,6,-2,-3,5,7,16,1,-1,-5,-4
0,5,5,-2,-2,4,7,16,1,-1,-5,-4
0,4,5,-2,-3,4,6,16,1,-1,-5,-4
-1,2,4,0,-3,3,6,16,1,-1,-5,-4
-1,2,4,0,-3,3,6,16,1,-1,-5,-4
-2,3,4,0,-3,3,5,16,0,-1,-5,-4
-4,2,5,1,-4,3,5,16,0,-1,-5,-4
-5,1,5,2,-4,3,4,16,0,-1,-5,-4
-4,1,5,1,-4,3,4,15,0,-1,-5,-4
-4,0,4,2,-4,2,4,15,0,-1,-6,-4
-4,0,3,2,-3,1,3,14,0,-2,-7,-5
-4,-1,3,2,-4,0,2,14,-1,-2,-7,-6
-4,0,3,2,-4,1,1,14,-1,-2,-7,-6
-4,0,4,2,-4,2,1,14,0,-1,-6,-5
-5,1,5,2,-5,3,1,14,0,0,-6,-5
-4,2,6,1,-4,4,1,14,0,0,-6,-4
-3,4,6,0,-4,4,2,15,1,0,-5,-4
-3,4,7,0,-5,5,2,15,1,1,-5,-3
-4,4,8,0,-6,5,3,15,1,1,-5,-3
-5,2,7,1,-7,4,3,14,1,1,-5,-3
-4,3,7,1,-6,4,3,14,1,1,-4,-3
-1,6,7,-2,-4,6,4,15,2,2,-4,-2
1,8,6,-5,-2,7,5,16,3,3,-3,-1
2,9,6,-6,-2,7,6,17,4,4,-2,0
0,8,6,-4,-3,7,6,17,4,4,-2,0
-2,5,6,-2,-4,6,4,16,4,4,-2,-1
-3,4,6,-1,-5,5,3,15,3,3,-3,-1
-2,4,6,-1,-4,5,3,14,3,3,-3,-1
-2,3,5,-1,-4,4,2,14,2,3,-3,-2
-4,3,7,0,-5,5,3,14,3,3,-3,-2
-4,4,8,0,-6,6,3,14,4,4,-2,-1
-2,6,7,-2,-4,7,3,15,4,5,-1,-1
0,8,7,-4,-3,7,3,15,4,5,-1,-1
-2,7,8,-3,-4,7,2,14,4,5,-1,-1
-3,5,8,-1,-5,6,1,14,4,5,-1,-1
-2,5,7,-2,-5,6,1,14,5,6,0,0
-1,6,7,-3,-4,7,2,15,5,7,0,0
-1,6,8,-3,-5,7,2,15,6,8,0,1
-2,6,8,-2,-5,6,2,15,5,8,0,1
-3,5,7,-1,-5,5,1,13,4,7,0,0
-2,5,6,-1,-4,5,0,12,4,7,0,0
0,6,5,-3,-3,5,0,13,5,8,0,0
0,7,5,-4,-3,6,0,14,6,9,1,1
1,8,6,-4,-3,7,0,15,7,10,3,2
0,8,7,-4,-4,8,0,16,8,11,4,3
-1,8,9,-4,-5,9,0,17,9,12,4,3
-1,8,9,-4,-5,9,-1,17,9,13,5,4
0,8,8,-4,-4,8,-2,17,9,13,5,4
1,8,6,-5,-2,7,-2,16,9,13,5,4
2,7,5,-5,-1,6,-3,16,9,13,5,4
2,7,5,-5,-1,6,-4,16,9,14,6,5
2,8,5,-5,-2,7,-3,16,10,15,7,6
2,9,6,-6,-2,7,-2,17,11,17,8,7
3,10,7,-7,-2,8,-2,17,11,18,9,8
4,11,7,-8,-1,8,-1,18,12,19,9,8
5,12,6,-9,0,9,-1,18,12,19,10,8
6,13,6,-10,0,9,-1,17,12,19,10,8
6,14,7,-10,-1,10,-1,17,12,19,10,8
6,14,7,-10,-1,10,-1,17,12,19,10,8
7,14,6,-11,0,10,-1,16,12,19,10,8
9,14,4,-11,2,10,-2,15,11,19,9,8
10,14,3,-12,3,9,-3,14,10,19,9,7
10,14,3,-12,3,9,-3,14,10,19,10,7
9,13,4,-11,2,9,-3,15,11,20,10,8
8,14,4,-11,2,9,-3,16,11,20,11,8
8,14,5,-11,1,9,-3,16,11,20,11,8
8,14,5,-11,1,9,-4,15,10,20,11,8
9,15,6,-12,1,10,-3,16,11,21,12,9
10,16,6,-13,2,10,-2,16,12,22,13,11
9,16,6,-13,1,10,-1,16,12,23,13,11
9,16,7,-12,1,11,-1,16,12,23,14,12
11,18,7,-14,2,12,-1,16,12,23,14,12
14,19,5,-16,4,11,-2,16,12,22,14,11
12,15,3,-13,4,9,-3,14,10,20,13,10
7,11,4,-9,1,7,-4,13,9,19,12,9
4,8,4,-7,0,6,-4,13,9,19,11,8
3,7,4,-5,-1,5,-4,13,8,19,11,8
3,6,3,-5,0,5,-5,13,8,19,10,8
5,8,3,-7,1,6,-5,13,8,18,9,7
7,9,2,-9,2,6,-6,13,8,18,9,7
7,8,1,-7,2,5,-6,13,7,17,8,6
6,6,0,-6,2,3,-5,12,7,16,7,5
6,7,0,-6,2,3,-4,12,7,15,7,5
6,8,1,-7,2,4,-4,12,6,15,7,4
5,7,1,-6,2,3,-4,12,5,14,6,4
5,6,0,-6,2,3,-5,11,4,13,5,3
5,6,0,-6,2,3,-4,11,3,12,4,3
5,6,0,-6,2,3,-3,12,3,12,4,4
4,6,1,-5,1,4,-2,12,3,12,4,3
3,5,1,-4,0,3,-2,12,3,11,4,2
3,5,1,-4,0,3,-2,12,3,10,3,1
3,5,1,-4,0,3,-2,11,2,9,2,0
3,5,2,-4,0,4,-2,11,1,9,1,0
3,5,3,-4,-1,4,0,11,1,8,1,0
3,5,2,-4,0,4,1,12,1,8,1,0
3,3,1,-3,0,3,2,11,1,7,0,0
1,1,0,-1,0,1,2,10,0,6,-1,0
1,1,0,-1,0,0,2,9,-1,5,-2,-1
3,2,-1,-2,1,0,2,9,-1,4,-2,-2
4,3,-1,-4,2,0,3,10,-1,4,-2,-2
4,3,-1,-4,2,0,3,10,-1,4,-2,-2
2,3,0,-3,0,1,4,10,-2,3,-2,-2
1,2,1,-3,0,2,4,9,-3,3,-3,-2
1,1,0,-2,0,2,4,8,-4,2,-4,-3
0,0,0,0,0,1,4,8,-4,0,-5,-3
0,-1,-1,0,0,0,4,7,-5,0,-5,-4
1,-1,-2,0,1,-1,3,7,-6,-1,-6,-4
0,-1,-2,0,0,-2,3,6,-7,-2,-7,-5
0,-1,-2,0,0,-2,3,6,-7,-3,-7,-6
0,-2,-3,1,1,-2,2,5,-8,-3,-8,-7
0,-3,-3,1,1,-3,1,5,-9,-4,-9,-7
0,-2,-2,1,0,-1,1,6,-8,-3,-8,-7
-1,-1,0,0,-1,0,1,6,-8,-3,-8,-7
-1,-1,1,0,-2,0,1,6,-8,-4,-9,-7
-1,-2,0,1,-1,0,0,6,-8,-4,-9,-8
-2,-3,0,2,-1,-1,1,6,-8,-4,-9,-8
-3,-3,0,3,-2,-2,2,7,-8,-4,-8,-7
-2,-3,0,2,-2,-1,3,7,-8,-4,-8,-7
-1,0,0,0,-1,0,4,8,-7,-3,-8,-6
0,0,0,0,-1,0,5,7,-8,-4,-8,-7
-1,-2,0,1,-1,0,5,6,-9,-5,-9,-8
0,0,0,0,0,0,6,7,-8,-5,-9,-7
1,1,0,-1,0,1,7,8,-7,-4,-7,-6
0,0,0,1,-1,0,7,8,-7,-4,-7,-6
-2,-1,0,2,-1,-1,6,8,-7,-5,-8,-7
0,0,0,0,0,0,5,8,-7,-4,-8,-7
2,3,0,-3,0,1,4,9,-6,-4,-7,-7
3,5,1,-4,0,3,4,9,-6,-3,-7,-6
3,5,1,-4,0,3,4,9,-7,-4,-8,-6
2,2,0,-2,0,2,4,8,-8,-5,-9,-7
0,0,0,0,-1,1,4,8,-8,-5,-9,-7
-1,0,0,0,-1,0,3,8,-8,-5,-9,-7
-2,-1,0,1,-1,-1,3,9,-8,-5,-9,-7
-2,-2,-1,2,-1,-2,3,9,-8,-5,-9,-7
-2,-3,-1,2,-1,-2,3,9,-8,-5,-9,-7
-2,-2,-1,2,-2,-1,3,10,-7,-4,-8,-7
-1,0,0,0,-2,0,2,10,-7,-4,-8,-6
0,0,0,-1,0,1,2,9,-7,-4,-8,-6
2,0,-1,-1,1,0,2,9,-7,-4,-8,-6
2,1,-1,-2,1,0,3,10,-6,-3,-7,-6
0,1,1,0,-1,1,4,10,-6,-3,-7,-5
-4,-1,2,3,-4,0,4,9,-6,-4,-7,-6
-5,-3,1,4,-4,-1,3,9,-7,-4,-7,-6
-4,-3,0,4,-3,-2,3,8,-7,-4,-8,-7
-3,-3,0,3,-2,-2,2,8,-7,-3,-8,-7
-2,-2,-1,2,-1,-2,2,8,-7,-3,-8,-7
-2,-1,0,2,-1,-1,2,9,-6,-2,-7,-7
-2,0,1,2,-2,0,3,9,-5,-1,-6,-6
-1,0,1,1,-2,1,4,10,-5,-1,-5,-5
-1,0,1,1,-1,0,5,10,-4,-1,-4,-5
-1,-1,0,2,-1,-1,5,10,-4,-1,-4,-5
-2,-1,0,2,-1,-1,4,9,-4,-1,-4,-5
-3,0,2,2,-3,0,4,8,-5,-1,-5,-6
-3,0,2,2,-3,1,4,8,-5,-1,-5,-6
-2,0,1,1,-2,0,3,8,-5,-1,-6,-6
0,0,0,0,0,0,3,8,-5,-1,-6,-6
0,0,0,1,0,0,2,8,-6,-1,-6,-6
-2,-1,0,2,-1,0,2,8,-6,-1,-5,-6
-2,-1,1,2,-1,0,2,8,-5,-1,-4,-6
-1,0,0,1,0,0,3,9,-4,0,-3,-5
0,0,0,0,0,0,3,9,-4,0,-2,-5
0,-1,0,1,-1,-1,3,9,-4,0,-2,-5
-1,-2,0,2,-1,-1,2,8,-4,0,-2,-5
0,0,0,0,0,0,2,9,-4,1,-2,-5
2,2,0,-2,1,1,2,10,-3,2,-1,-4
1,1,0,-1,0,1,1,10,-3,2,-1,-4
-2,0,2,1,-2,1,1,10,-3,2,-1,-4
-3,0,3,1,-3,2,2,10,-3,2,0,-4
1,4,3,-2,-2,3,4,11,-2,3,1,-3
3,5,3,-4,0,4,5,10,-2,3,1,-2
1,2,2,-2,-1,2,5,9,-3,2,1,-3
-2,0,3,1,-3,1,5,8,-3,2,1,-3
-2,1,4,0,-3,2,6,9,-2,3,3,-2
0,3,4,-1,-2,3,7,10,-2,3,4,-1
0,3,3,-1,-1,3,6,11,-2,3,4,-2
0,2,3,0,-1,2,6,11,-2,3,4,-2
-1,1,3,0,-2,1,5,11,-3,2,3,-3
0,2,2,-2,-1,1,6,11,-2,2,4,-3
4,4,1,-4,1,2,7,13,-1,3,5,-2
5,6,1,-6,2,3,8,13,0,4,6,-1
4,5,1,-5,1,3,8,13,0,4,6,-2
2,4,2,-3,0,3,8,12,-1,3,6,-2
1,4,2,-3,0,3,6,11,-1,2,5,-3
2,4,2,-3,0,3,5,11,-2,2,5,-3
3,4,1,-4,0,3,5,11,-2,2,6,-3
4,5,1,-5,1,3,5,11,-1,3,7,-2
5,6,1,-5,1,3,4,11,-1,3,8,-2
4,5,1,-4,0,2,3,9,-2,2,8,-2
2,4,1,-3,0,2,2,8,-2,2,8,-2
3,4,1,-4,1,2,2,8,-2,2,8,-2
5,5,0,-5,2,2,2,7,-2,2,9,-2
4,5,0,-5,2,2,2,7,-2,2,9,-1
3,6,2,-5,0,4,2,7,-2,3,10,0
4,7,3,-6,0,5,3,7,-2,4,12,0
5,7,3,-6,1,5,2,6,-3,3,12,0
4,5,2,-5,1,3,1,4,-4,2,11,-1
3,4,1,-4,1,3,1,3,-5,1,11,-1
4,6,2,-5,1,4,2,3,-5,1,12,0
4,7,3,-6,1,5,3,4,-4,2,13,1
5,9,3,-7,1,6,3,5,-3,2,13,1
6,11,4,-8,0,7,2,4,-4,2,13,1
6,11,4,-9,1,7,1,4,-5,1,13,0
7,9,3,-8,1,5,0,3,-5,1,12,0
4,5,2,-5,1,3,-2,2,-6,0,12,-1
1,2,1,-2,0,1,-3,1,-7,-1,11,-2
2,3,1,-3,0,1,-2,2,-7,0,12,-1
5,6,1,-5,1,3,-1,3,-7,0,12,-1
6,7,0,-6,3,3,0,3,-7,0,12,-1
7,6,-2,-7,4,2,0,2,-7,-1,11,-2
6,4,-3,-5,4,0,1,3,-7,-1,11,-2
4,2,-2,-3,3,0,1,3,-7,0,11,-2
1,0,-1,-1,1,-1,2,3,-7,0,11,-2
0,-2,0,1,0,-1,3,3,-7,0,11,-2
-1,-2,-1,1,0,-1,3,3,-7,-1,10,-2
0,-2,-1,1,0,-2,3,3,-7,-1,10,-3
0,-2,-2,1,1,-2,3,4,-8,-2,10,-3
0,-3,-3,1,1,-2,2,4,-8,-2,9,-4
-2,-4,-2,2,0,-3,2,4,-8,-3,9,-5
-4,-5,-2,4,-1,-3,1,4,-8,-3,8,-5
-5,-6,-2,5,-2,-4,0,4,-8,-4,8,-6
-5,-6,-2,6,-2,-4,-1,4,-9,-4,8,-6
-4,-6,-2,5,-1,-4,-1,4,-10,-4,7,-6
-2,-6,-3,4,0,-5,-1,3,-10,-4,7,-7
0,-6,-4,3,2,-5,0,3,-10,-4,7,-7
-1,-6,-4,4,2,-5,2,3,-10,-4,7,-7
-4,-7,-2,5,0,-5,4,3,-10,-4,7,-8
-4,-5,-1,5,-1,-4,5,4,-9,-4,7,-7
0,-2,-2,1,1,-2,7,5,-8,-3,9,-6
4,0,-4,-3,4,-2,8,5,-8,-2,9,-6
7,0,-6,-4,6,-2,8,4,-9,-3,9,-6
5,-1,-6,-2,5,-3,7,3,-9,-4,8,-7
2,-3,-3,0,3,-3,7,3,-9,-4,9,-6
0,-4,-2,2,1,-3,6,3,-9,-4,9,-6
-1,-5,-3,3,0,-4,5,3,-9,-5,8,-7
-1,-5,-4,3,1,-4,5,3,-9,-5,8,-7
-1,-5,-3,3,1,-4,5,3,-9,-5,8,-7
-2,-4,-2,3,-1,-3,5,3,-9,-4,8,-7
-3,-4,0,4,-2,-2,5,3,-9,-4,8,-7
-3,-4,-1,4,-1,-2,5,3,-9,-4,8,-7
-1,-5,-3,3,1,-3,5,3,-9,-4,8,-7
0,-5,-5,3,3,-4,5,3,-9,-4,8,-7
0,-4,-4,2,2,-4,6,3,-8,-4,8,-7
-2,-4,-2,3,0,-3,6,3,-8,-4,9,-7
-5,-6,-1,6,-2,-3,6,4,-8,-4,9,-7
-6,-7,-1,7,-3,-4,6,4,-8,-4,8,-7
-3,-7,-4,5,0,-5,5,3,-8,-5,7,-8
-2,-8,-6,5,2,-7,4,2,-9,-5,6,-8
-3,-8,-5,6,1,-7,3,2,-9,-5,5,-8
-5,-7,-3,6,-1,-5,3,2,-8,-5,5,-8
-5,-6,-1,6,-2,-3,3,2,-8,-5,5,-8
-6,-6,-1,6,-2,-4,3,2,-8,-5,5,-9
-6,-7,-1,7,-2,-4,3,2,-8,-6,4,-10
-5,-5,-1,5,-2,-3,4,1,-8,-7,4,-10
-4,-1,1,3,-3,0,6,2,-7,-6,5,-8
-5,1,6,2,-6,3,8,2,-6,-5,7,-7
-7,5,12,1,-9,8,10,5,-3,-2,9,-4
-7,9,17,-1,-12,13,13,11,3,3,13,-1
-7,13,22,-2,-14,18,15,18,10,9,18,3
-8,16,24,-3,-16,20,16,24,16,16,23,6
-6,18,25,-5,-15,22,16,29,23,23,28,10
-3,22,25,-10,-14,24,16,31,31,33,35,15
0,27,27,-14,-13,27,15,29,37,44,43,21
4,32,28,-18,-12,30,11,24,44,57,53,28
11,39,28,-26,-8,33,5,18,53,74,67,38
21,49,27,-35,-3,38,-2,11,62,92,82,50
30,55,26,-43,2,40,-10,2,67,106,94,59
36,56,20,-46,8,38,-17,-7,66,112,99,63
42,49,8,-46,17,29,-24,-16,60,109,96,60
49,40,-8,-45,29,16,-32,-27,49,99,89,54
56,31,-26,-44,41,3,-41,-39,34,85,78,45
62,21,-42,-42,51,-10,-47,-50,16,66,65,35
65,10,-55,-38,59,-22,-49,-59,-3,44,51,25
66,0,-65,-33,65,-33,-50,-66,-23,19,35,13
65,-9,-74,-28,69,-42,-50,-73,-44,-7,17,0
62,-19,-80,-21,71,-49,-49,-80,-63,-32,0,-12
55,-28,-82,-13,68,-55,-48,-86,-81,-54,-14,-23
47,-36,-83,-5,65,-59,-46,-91,-93,-71,-25,-32
42,-41,-83,0,62,-61,-44,-93,-100,-81,-33,-38
39,-43,-83,1,61,-62,-41,-92,-101,-85,-37,-41
37,-44,-82,2,59,-62,-39,-88,-99,-85,-40,-43
36,-44,-80,3,57,-62,-36,-82,-95,-83,-41,-44
33,-44,-76,5,54,-60,-34,-75,-90,-79,-41,-45
30,-43,-71,6,51,-57,-31,-67,-84,-74,-40,-44
27,-40,-65,6,46,-53,-28,-59,-76,-68,-38,-43
23,-37,-59,7,41,-48,-25,-50,-68,-62,-35,-41
22,-33,-54,5,38,-43,-21,-42,-59,-55,-31,-38
20,-28,-49,4,35,-38,-17,-34,-51,-47,-27,-34
18,-24,-43,3,30,-33,-13,-27,-44,-41,-23,-30
15,-21,-37,2,26,-29,-9,-22,-38,-36,-20,-27
13,-18,-31,2,22,-24,-6,-17,-33,-31,-17,-25
10,-16,-25,3,17,-21,-3,-13,-29,-27,-15,-23
6,-15,-19,4,13,-18,-1,-9,-24,-23,-12,-21
4,-13,-16,4,10,-15,0,-5,-20,-19,-10,-19
4,-11,-14,4,9,-13,2,-2,-16,-15,-7,-17
3,-9,-12,3,8,-11,3,0,-13,-12,-5,-15
1,-7,-9,3,6,-8,5,2,-11,-10,-4,-13
0,-5,-6,3,3,-5,6,4,-9,-8,-2,-11
0,-3,-3,2,1,-3,8,6,-8,-7,-1,-10
-1,-3,-1,2,0,-2,8,7,-7,-6,-1,-9
-1,-3,-1,2,0,-2,8,8,-6,-6,-1,-9
-2,-3,0,2,-1,-1,8,8,-6,-5,-1,-9
-2,-3,0,3,-1,-1,7,8,-6,-5,-1,-10
-3,-4,-1,3,-1,-2,7,8,-6,-5,-2,-10
-3,-4,-2,4,-1,-3,7,8,-6,-5,-2,-10
-4,-4,-2,4,-1,-3,7,8,-6,-5,-2,-10
-3,-4,-2,3,0,-3,7,8,-5,-5,-2,-9
0,-2,-3,1,1,-2,7,9,-5,-4,-1,-8
2,0,-2,0,1,-1,7,9,-4,-4,-1,-8
-2,-3,0,2,-1,-1,6,9,-5,-4,-1,-8
-7,-6,1,6,-4,-2,5,8,-5,-4,-2,-9
-8,-8,0,8,-5,-3,5,8,-6,-4,-3,-9
-9,-9,0,9,-4,-4,4,7,-6,-5,-3,-9
-8,-9,-1,9,-4,-4,5,8,-5,-4,-3,-9
-7,-8,-1,8,-4,-4,5,8,-5,-4,-3,-8
-6,-7,-1,7,-3,-4,4,8,-5,-5,-3,-8
-5,-7,-1,6,-3,-4,3,8,-5,-5,-4,-9
-3,-6,-1,4,-2,-4,2,8,-5,-5,-4,-9
-1,-5,-1,3,-1,-3,2,8,-4,-4,-4,-8
-1,-2,0,1,-1,-1,4,9,-3,-3,-3,-7
-1,-1,0,1,-1,0,6,10,-3,-2,-2,-7
-2,-2,0,2,-2,0,6,9,-3,-2,-1,-7
-3,-4,-1,4,-2,-2,6,8,-4,-3,-2,-7
-4,-6,-1,5,-2,-3,5,7,-5,-4,-3,-8
-5,-7,-1,6,-3,-3,4,7,-5,-5,-3,-8
-5,-6,0,5,-3,-2,5,7,-5,-4,-3,-7
-4,-3,1,3,-3,-1,6,9,-3,-3,-2,-6
-4,-2,2,3,-3,0,7,9,-3,-2,-2,-6
-5,-3,2,4,-4,0,7,9,-3,-3,-3,-7
-7,-4,2,5,-4,0,6,8,-4,-4,-3,-7
-8,-4,2,6,-5,0,6,8,-4,-4,-3,-7
-7,-5,1,6,-4,-1,6,8,-4,-4,-3,-7
-6,-5,0,6,-3,-2,6,8,-4,-4,-3,-7
-4,-5,0,5,-2,-2,6,8,-4,-4,-4,-8
-3,-4,0,3,-1,-2,6,8,-4,-4,-4,-8
-2,-2,0,2,-1,-1,7,8,-3,-4,-4,-7
-1,-1,0,1,-1,0,8,9,-3,-3,-3,-7
0,0,0,0,0,0,8,10,-2,-2,-2,-6
0,1,0,-1,0,1,8,10,-2,-1,-1,-6
1,2,0,-2,1,1,8,10,-2,-1,-1,-5
1,1,-1,-1,1,0,8,10,-2,-1,-1,-5
0,0,0,0,0,0,7,10,-2,-1,-2,-5
0,0,1,0,-1,0,7,10,-2,-2,-2,-6
1,1,0,-1,0,0,7,10,-2,-1,-2,-5
3,1,-1,-2,1,0,7,10,-1,-1,-2,-5
3,2,-2,-2,2,0,6,9,-2,-2,-3,-6
0,1,0,0,0,0,4,8,-3,-3,-3,-7
-2,0,1,1,-2,0,4,8,-3,-2,-3,-7
-3,-1,1,2,-2,0,3,8,-2,-2,-3,-7
-3,-3,0,3,-2,-1,2,7,-3,-3,-4,-7
-3,-5,-1,4,-1,-3,1,7,-3,-3,-4,-8
-3,-5,-2,4,-1,-4,1,7,-3,-3,-4,-8
-4,-5,0,4,-2,-2,2,8,-2,-2,-4,-7
-5,-3,1,3,-3,-1,3,8,-1,-1,-3,-7
-4,-2,1,3,-2,0,4,8,-1,-1,-2,-6
-3,-2,0,2,-1,-1,3,8,-1,-1,-3,-6
-3,-2,0,2,-2,-1,2,9,-1,0,-3,-6
-4,-2,1,3,-3,0,3,10,0,0,-2,-5
-3,-1,2,2,-3,0,3,11,1,1,-1,-4
-2,0,2,1,-3,0,3,10,1,1,-1,-4
-2,-1,1,2,-2,0,2,10,1,1,-1,-4
-2,-2,0,2,-2,-1,2,9,1,1,-1,-4
-2,-2,0,2,-2,-1,2,9,1,1,-1,-4
-2,-1,0,1,-1,0,2,10,1,2,0,-4
-1,0,0,0,-1,0,3,10,2,2,0,-4
0,0,0,0,0,0,3,11,2,3,0,-3
0,1,1,0,0,1,4,12,3,3,1,-2
0,2,2,-1,-1,2,4,12,4,4,1,-1
0,2,4,-1,-2,2,4,12,4,4,2,-1
0,2,4,-1,-2,2,4,12,5,5,2,0
1,2,2,-1,-1,1,3,12,5,5,3,0
2,3,1,-2,0,1,3,13,5,6,3,0
2,4,2,-3,0,3,2,13,5,7,4,0
2,5,3,-4,0,4,1,13,5,7,4,1
3,6,4,-5,0,5,1,13,6,8,5,1
3,7,4,-6,0,6,0,13,7,8,5,2
2,6,4,-4,-1,5,0,13,7,9,6,2
1,4,4,-3,-1,4,0,13,8,9,6,2
1,4,4,-2,-1,4,0,14,9,11,7,3
1,5,4,-2,-1,4,1,14,10,12,8,3
1,5,3,-2,-1,4,1,14,11,13,8,4
3,6,2,-3,0,4,0,13,10,14,8,4
4,7,2,-5,0,4,0,13,10,14,9,4
3,6,3,-4,0,4,0,13,10,14,9,4
2,5,3,-3,0,4,-1,12,10,14,9,4
3,5,3,-4,0,4,-1,12,10,14,10,4
5,8,3,-7,1,6,-1,13,12,16,11,6
9,11,2,-10,3,7,-1,14,13,17,12,7
9,11,1,-10,4,6,-2,14,12,17,12,7
9,10,0,-9,4,5,-3,14,12,17,12,6
10,10,0,-10,5,5,-3,14,13,18,12,6
10,10,1,-10,4,5,-3,15,13,18,13,7
8,9,1,-9,3,6,-4,14,13,18,13,7
7,8,1,-8,2,5,-4,14,13,18,13,7
10,10,1,-10,4,6,-3,14,13,19,14,8
12,12,0,-12,5,6,-2,14,13,20,14,8
12,11,-1,-11,6,5,-3,13,13,19,14,8
11,10,-1,-11,5,4,-3,13,12,19,14,8
11,10,-1,-10,5,4,-3,14,13,20,14,8
12,10,-1,-11,6,4,-4,14,13,20,14,8
13,10,-2,-11,7,4,-4,13,12,19,13,8
13,10,-2,-11,8,4,-5,12,12,19,13,8
12,10,-1,-11,7,4,-5,12,13,19,14,8
11,10,-1,-11,6,5,-4,13,13,20,15,9
11,10,-1,-11,6,4,-5,13,13,20,15,9
11,9,-2,-10,6,3,-5,12,12,19,14,9
10,7,-2,-8,6,2,-5,11,11,18,13,8
8,4,-2,-6,5,0,-5,11,11,18,13,7
7,3,-2,-5,4,0,-5,10,10,17,12,7
7,4,-2,-6,4,1,-5,10,10,17,12,7
7,5,-2,-6,4,1,-4,10,10,16,12,7
7,4,-3,-6,5,0,-4,10,10,16,12,7
6,2,-4,-5,5,0,-5,10,9,15,11,6
6,2,-4,-4,4,-1,-6,9,9,15,11,6
6,2,-3,-4,4,0,-5,9,9,14,10,6
6,3,-2,-5,5,0,-4,10,9,14,10,6
7,2,-3,-5,6,0,-3,10,9,14,10,6
8,3,-4,-6,7,0,-2,10,9,13,10,6
9,4,-4,-7,7,0,-2,11,9,13,10,6
9,5,-4,-8,7,1,-2,11,9,13,10,6
8,5,-3,-7,6,1,-2,12,9,13,9,6
8,5,-3,-6,5,1,-1,12,9,12,9,5
8,5,-3,-6,6,1,0,11,9,11,8,5
9,4,-3,-6,7,0,0,11,8,10,7,4
9,4,-4,-6,7,0,0,10,8,9,6,3
9,4,-5,-6,7,0,0,10,7,8,6,2
8,3,-4,-6,7,0,0,10,7,8,6,2
6,1,-4,-4,6,-1,0,9,6,7,5,2
4,-1,-5,-2,5,-3,0,8,4,5,3,1
2,-2,-5,0,4,-3,1,7,3,4,2,0
2,-1,-4,0,3,-2,2,6,2,3,2,0
1,-1,-3,0,2,-1,3,7,2,3,2,0
1,-1,-3,0,2,-1,4,7,2,3,2,0
2,-1,-4,-1,3,-2,3,7,2,2,1,-1
3,-1,-5,-1,4,-2,3,6,1,0,0,-2
1,-1,-4,0,2,-2,2,5,0,0,0,-3
0,-2,-3,0,1,-2,2,5,0,-1,-1,-3
0,-2,-3,1,1,-3,1,5,-1,-1,-1,-3
0,-4,-4,2,2,-4,1,4,-2,-3,-2,-4
-1,-6,-5,3,2,-6,0,3,-3,-4,-3,-5
0,-7,-7,3,4,-7,0,3,-3,-4,-4,-5
2,-6,-8,2,5,-7,0,3,-2,-4,-4,-5
3,-5,-8,0,6,-6,0,3,-2,-4,-4,-5
3,-4,-8,0,5,-6,0,3,-2,-5,-5,-5
2,-4,-7,0,5,-5,0,4,-2,-4,-4,-4
4,-3,-7,0,6,-5,0,4,-2,-4,-4,-4
4,-2,-6,-1,6,-4,1,5,-2,-4,-3,-4
3,-1,-4,-1,4,-3,2,5,-2,-4,-3,-4
2,-3,-5,0,4,-4,2,4,-2,-5,-4,-4
3,-5,-7,1,6,-6,3,3,-3,-6,-5,-5
3,-4,-7,1,6,-6,3,4,-3,-6,-5,-5
3,-2,-5,0,4,-3,4,5,-2,-5,-5,-4
2,-1,-4,0,3,-2,5,6,-2,-4,-4,-3
1,-3,-4,2,2,-4,5,6,-2,-5,-4,-4
0,-6,-5,3,2,-5,4,5,-3,-5,-5,-4
-1,-7,-5,4,1,-5,4,5,-3,-5,-5,-4
-1,-7,-4,4,0,-5,4,5,-3,-5,-5,-4
-1,-7,-4,4,1,-5,4,5,-3,-6,-5,-5
-1,-7,-5,5,1,-6,3,5,-3,-6,-6,-5
-2,-7,-4,5,1,-5,2,6,-3,-6,-6,-5
-1,-5,-3,3,1,-4,3,7,-2,-5,-5,-5
1,-2,-3,1,2,-3,4,7,-2,-5,-5,-4
2,-1,-3,0,3,-2,5,8,-1,-4,-4,-3
2,-1,-3,0,2,-2,6,8,-1,-4,-4,-3
3,-1,-3,0,2,-2,6,7,-1,-4,-4,-3
4,0,-4,-1,3,-2,6,7,-1,-5,-4,-3
4,0,-4,-1,4,-1,5,7,-1,-5,-5,-3
2,-1,-4,0,3,-2,4,7,-1,-5,-5,-4
0,-4,-3,2,1,-3,4,7,-1,-5,-5,-4
-1,-5,-4,3,1,-4,3,7,-1,-5,-5,-5
0,-4,-4,2,2,-4,4,7,0,-5,-4,-4
1,-3,-4,1,2,-3,4,7,0,-4,-4,-3
0,-4,-4,2,2,-4,4,7,0,-4,-4,-3
-1,-6,-3,4,1,-4,4,6,0,-5,-5,-3
-2,-6,-3,5,0,-4,4,6,0,-5,-5,-4
-2,-5,-3,4,1,-4,4,7,0,-5,-5,-4
-1,-3,-2,2,1,-2,5,7,1,-4,-4,-3
-1,-3,-1,2,0,-2,5,7,1,-4,-4,-3
-2,-4,-2,3,0,-3,4,7,0,-5,-5,-4
0,-4,-3,2,1,-4,3,7,0,-5,-5,-4
1,-4,-4,2,2,-4,2,7,0,-5,-5,-4
1,-5,-5,2,3,-5,1,6,0,-5,-5,-4
3,-4,-6,1,4,-5,1,7,1,-4,-5,-4
4,-2,-6,0,5,-4,2,7,2,-3,-4,-3
1,-3,-4,1,3,-4,3,7,2,-3,-4,-3
0,-4,-3,3,1,-4,3,7,2,-3,-4,-3
0,-2,-3,1,2,-3,5,8,3,-2,-3,-2
1,0,-1,0,1,-1,6,9,4,-1,-2,-1
0,0,0,0,0,0,6,9,4,-1,-2,-1
0,-1,-1,0,0,-1,5,9,3,-2,-3,-2
1,-1,-2,0,1,-1,4,9,3,-2,-3,-2
1,-1,-2,0,2,-1,4,10,4,-1,-3,-2
0,-2,-2,2,0,-2,3,10,4,-1,-3,-2
-3,-4,-1,4,-1,-2,2,9,3,-1,-3,-2
-3,-4,-1,4,-1,-3,1,9,3,-2,-4,-3
-1,-3,-2,2,0,-3,1,9,3,-2,-4,-3
0,-3,-3,1,1,-3,1,8,2,-2,-4,-3
0,-3,-3,1,1,-3,2,8,2,-3,-4,-3
0,-2,-2,1,0,-2,3,8,2,-2,-3,-2
0,-1,0,1,0,0,4,9,3,-2,-3,-1
-1,-1,0,1,0,0,6,9,3,-1,-3,-1
-2,-3,0,2,-1,-1,6,9,2,-2,-3,-2
-1,-3,-1,2,0,-1,7,9,3,-1,-2,-1
1,-1,-2,0,1,-1,8,9,3,-1,-2,-1
3,0,-2,-2,2,-1,8,9,3,-1,-2,-1
3,1,-1,-2,1,0,7,9,3,-1,-2,-1
3,2,0,-3,1,0,7,10,4,0,-1,0
5,3,0,-4,2,1,7,11,4,1,0,0
5,4,0,-5,2,2,7,11,5,1,0,0
5,5,0,-5,2,3,7,12,6,2,0,0
5,6,1,-5,2,3,8,13,7,3,1,1
3,4,1,-3,0,3,7,12,6,2,1,1
0,1,1,0,-1,1,6,11,5,1,0,0
-2,0,2,1,-2,1,6,11,4,0,0,0
-2,0,2,1,-3,1,6,10,4,0,0,0
0,1,2,0,-2,1,6,10,4,0,0,0
0,1,2,0,-2,1,6,10,4,0,0,-1
-2,0,2,1,-3,1,6,10,3,0,0,-1
-3,0,2,2,-3,1,6,10,4,0,0,0
-1,0,1,1,-2,1,5,10,4,0,0,0
1,0,0,0,0,0,3,9,3,0,0,-1
4,1,-1,-2,2,0,2,8,2,0,0,-1
6,2,-2,-3,3,0,0,7,2,0,0,0
6,2,-3,-3,4,0,-1,6,2,-1,0,0
4,1,-2,-2,2,0,-3,6,1,-1,0,0
2,1,-1,-1,1,0,-3,6,1,-1,0,0
2,1,-1,-1,1,0,-3,5,0,-1,0,0
4,2,-2,-3,3,0,-3,5,0,-1,0,0
6,4,-2,-5,4,1,-2,5,0,-1,0,0
7,5,-1,-6,4,2,-3,5,0,-1,0,0
8,7,0,-6,3,3,-2,5,0,-1,0,0
6,7,2,-6,1,4,-1,5,0,0,1,1
2,4,2,-3,0,3,0,4,-1,-1,1,1
1,2,0,-2,0,1,0,3,-3,-3,0,0
4,3,-1,-4,3,0,1,2,-3,-3,0,0
6,5,-2,-6,4,1,2,3,-3,-3,0,0
8,7,-2,-8,5,2,3,4,-2,-2,0,0
9,7,-1,-8,5,3,3,5,-2,-2,1,1
9,6,-1,-7,5,2,3,5,-1,-1,1,1
7,4,-1,-5,4,1,3,5,-2,-1,1,1
4,1,-1,-2,3,0,2,4,-3,-2,0,0
2,-1,-3,0,3,-2,1,3,-4,-4,-2,-2
3,-2,-5,0,4,-3,1,2,-5,-5,-3,-3
2,-2,-5,0,4,-4,3,3,-4,-4,-2,-2
0,-3,-4,0,2,-3,4,4,-3,-2,-1,0
1,-3,-4,0,2,-3,5,3,-3,-2,-1,0
1,-3,-3,1,2,-3,5,3,-3,-3,-1,-1
0,-2,-1,1,1,-2,6,2,-3,-3,-1,-1
1,0,0,0,1,0,6,2,-3,-3,-1,-1
3,1,0,-2,2,0,7,3,-3,-2,-1,0
4,2,-1,-3,3,0,7,3,-3,-3,-1,-1
2,0,-2,-1,3,-2,6,1,-4,-4,-3,-3
1,-3,-3,1,2,-3,5,0,-5,-5,-4,-4
1,-3,-4,1,2,-3,6,0,-6,-5,-4,-4
1,-3,-3,1,1,-3,6,0,-6,-5,-4,-4
0,-3,-2,2,1,-2,6,0,-6,-5,-3,-4
1,-3,-3,1,2,-2,6,0,-6,-5,-3,-4
2,-3,-4,1,3,-3,5,0,-6,-5,-3,-4
0,-5,-4,3,2,-5,4,0,-6,-6,-4,-5
-1,-6,-5,4,2,-5,4,-1,-7,-7,-5,-5
0,-6,-5,3,3,-6,3,-2,-7,-7,-6,-5
-1,-6,-5,4,2,-6,3,-2,-8,-8,-6,-5
-3,-7,-4,5,0,-6,4,-2,-8,-8,-5,-5
-4,-8,-3,6,0,-6,4,-2,-7,-7,-5,-5
-4,-8,-3,7,0,-6,4,-2,-7,-7,-5,-5
-3,-8,-4,6,1,-6,4,-2,-8,-7,-5,-5
-2,-7,-5,5,2,-6,3,-2,-8,-7,-5,-5
-2,-7,-5,5,2,-6,2,-2,-7,-7,-5,-5
-3,-7,-4,5,1,-5,2,-2,-7,-6,-5,-4
-2,-6,-4,4,1,-5,2,-2,-6,-5,-4,-4
-1,-5,-4,3,1,-5,2,-2,-6,-5,-4,-4
-2,-7,-4,4,1,-6,2,-3,-7,-6,-5,-5
-4,-9,-4,6,0,-7,2,-4,-8,-7,-5,-5
-4,-9,-5,6,1,-6,4,-4,-8,-7,-5,-5
-2,-7,-4,5,1,-5,5,-3,-7,-6,-5,-5
-1,-6,-5,4,2,-5,6,-3,-7,-6,-5,-5
0,-6,-6,3,3,-5,6,-4,-8,-7,-5,-5
0,-6,-7,2,4,-6,6,-4,-8,-6,-5,-5
0,-6,-7,3,3,-7,6,-4,-8,-6,-5,-5
-1,-7,-6,4,2,-7,5,-4,-8,-6,-5,-5
-2,-8,-6,5,2,-7,4,-4,-9,-7,-5,-6
-2,-7,-5,5,1,-6,3,-4,-9,-7,-5,-6
-3,-6,-3,5,0,-4,4,-3,-8,-6,-4,-5
-5,-5,0,5,-2,-2,6,-2,-7,-6,-3,-4
-7,-5,2,5,-4,-1,8,-2,-6,-5,-3,-3
-6,-2,5,4,-6,1,10,-1,-5,-5,-2,-2
-6,1,8,2,-7,4,12,-1,-4,-4,-1,-1
-7,3,11,2,-9,7,13,0,-2,-3,0,0
-10,5,15,3,-13,9,15,3,1,0,1,2
-12,7,19,3,-15,13,16,8,6,4,5,4
-11,10,21,0,-16,16,17,14,13,11,10,8
-9,14,23,-2,-16,19,18,21,21,19,15,13
-9,16,25,-4,-16,21,18,24,29,28,21,17
-6,20,26,-7,-16,23,17,22,35,38,29,22
-3,25,27,-11,-15,26,13,17,41,50,38,29
3,32,27,-17,-12,30,8,11,48,65,50,37
14,40,26,-27,-6,33,1,3,56,82,65,47
26,49,23,-38,1,36,-6,-6,62,97,78,57
38,54,17,-46,11,36,-13,-15,64,106,86,63
47,54,7,-50,20,31,-19,-24,60,106,86,63
53,46,-6,-49,30,20,-26,-33,52,99,80,58
56,33,-23,-45,40,6,-35,-45,38,86,70,50
58,20,-38,-39,48,-8,-43,-57,20,67,57,41
60,9,-52,-35,55,-21,-47,-66,1,45,43,30
62,-1,-63,-31,62,-32,-48,-74,-19,21,27,19
61,-10,-72,-25,66,-41,-49,-82,-40,-4,10,6
59,-20,-78,-19,69,-49,-48,-89,-60,-29,-6,-6
57,-27,-83,-14,70,-55,-47,-95,-77,-51,-19,-16
54,-33,-87,-10,71,-60,-45,-100,-90,-68,-30,-25
52,-37,-89,-8,71,-62,-44,-103,-99,-79,-39,-31
50,-38,-88,-6,69,-63,-42,-101,-102,-85,-44,-34
46,-39,-85,-4,65,-62,-40,-97,-100,-86,-47,-36
42,-40,-82,-1,61,-61,-37,-91,-96,-84,-48,-38
39,-40,-79,0,58,-60,-34,-83,-91,-81,-48,-38
37,-39,-76,0,56,-57,-31,-75,-84,-76,-46,-38
35,-36,-70,0,53,-53,-27,-66,-76,-69,-43,-36
31,-32,-63,0,47,-47,-23,-56,-67,-61,-39,-33
29,-27,-55,-1,42,-40,-18,-47,-58,-54,-35,-30
27,-23,-50,-2,38,-36,-15,-40,-51,-48,-32,-27
23,-23,-46,0,34,-34,-13,-35,-46,-43,-30,-25
17,-24,-41,3,29,-32,-11,-31,-42,-40,-29,-24
13,-24,-37,6,24,-31,-9,-27,-38,-37,-27,-23
9,-23,-32,7,20,-28,-7,-22,-34,-33,-25,-21
4,-21,-26,9,15,-24,-4,-17,-28,-28,-22,-19
0,-19,-17,10,8,-18,-1,-11,-22,-21,-17,-15
-4,-15,-9,10,3,-12,1,-5,-15,-16,-13,-11
-6,-12,-5,10,0,-8,3,-2,-11,-12,-10,-9
-5,-10,-4,8,-1,-6,5,0,-9,-10,-9,-7
-3,-7,-4,5,0,-5,6,1,-8,-9,-8,-6
-1,-5,-4,3,1,-4,6,1,-8,-8,-8,-6
0,-4,-5,2,2,-4,7,2,-7,-8,-8,-5
0,-5,-5,2,2,-5,7,2,-7,-8,-8,-5
0,-5,-5,2,3,-5,6,2,-7,-8,-7,-5
0,-5,-5,2,3,-4,7,2,-6,-7,-7,-5
-1,-5,-4,3,2,-4,8,3,-4,-6,-6,-4
-2,-5,-3,4,0,-4,9,3,-4,-5,-5,-4
-1,-3,-3,3,0,-3,9,4,-3,-5,-5,-3
-1,-3,-3,2,0,-3,9,4,-3,-4,-5,-3
-4,-6,-2,5,-1,-4,8,4,-4,-5,-6,-4
-7,-8,-1,8,-3,-5,7,3,-5,-7,-8,-5
-7,-8,-1,8,-2,-5,8,3,-5,-7,-8,-5
-6,-8,-1,7,-1,-4,9,3,-5,-6,-7,-5
-6,-7,-1,6,-1,-4,9,3,-4,-6,-7,-5
-5,-7,-1,6,-1,-4,8,3,-4,-6,-7,-5
-4,-6,-2,5,-1,-4,8,4,-3,-5,-7,-4
-4,-6,-2,5,-1,-4,8,4,-3,-5,-6,-4
-6,-7,-1,7,-3,-4,8,3,-3,-5,-6,-4
-7,-8,0,7,-4,-4,9,3,-3,-5,-6,-4
-4,-5,0,5,-2,-3,10,5,-1,-4,-5,-3
-3,-3,0,2,-1,-1,11,6,0,-3,-4,-2
-4,-3,0,3,-1,-1,11,6,0,-3,-4,-2
-3,-3,0,3,0,-2,10,6,0,-3,-4,-2
0,-3,-3,2,1,-2,9,6,0,-3,-4,-2
0,-4,-4,3,1,-3,8,5,0,-3,-4,-3
-3,-5,-2,5,-1,-3,7,5,0,-4,-5,-3
-5,-7,-2,6,-2,-4,7,4,0,-5,-6,-4
-4,-6,-2,5,-1,-4,7,4,-1,-5,-6,-4
-3,-6,-2,5,0,-5,7,4,0,-5,-6,-4
-4,-7,-2,6,0,-5,7,4,0,-4,-6,-4
-5,-8,-2,7,-1,-5,7,3,0,-4,-6,-4
-6,-7,0,7,-3,-4,7,3,0,-5,-6,-4
-4,-3,1,4,-3,-1,8,4,1,-4,-5,-4
0,1,1,0,-1,1,9,6,2,-3,-4,-3
0,1,0,0,0,1,9,7,3,-2,-3,-2
0,-1,0,1,0,0,8,7,3,-3,-3,-2
-2,-3,0,2,-1,-1,8,6,3,-3,-3,-2
-4,-5,0,4,-2,-2,7,6,3,-3,-4,-2
-6,-7,1,6,-3,-2,7,5,3,-4,-4,-2
-7,-6,2,6,-4,-2,7,5,3,-4,-4,-3
-7,-5,2,6,-4,-1,7,5,4,-3,-4,-3
-4,-3,1,4,-3,-1,7,6,4,-3,-4,-2
-2,-1,0,2,-2,0,8,6,5,-2,-3,-2
-2,-1,1,2,-2,0,8,6,5,-2,-3,-2
-4,-3,1,3,-3,-1,7,6,5,-2,-3,-2
-5,-4,2,4,-3,-1,7,5,4,-2,-3,-2
-5,-5,1,5,-3,-1,6,5,4,-2,-3,-2
-5,-5,0,5,-3,-1,6,5,4,-2,-4,-2
-5,-6,0,5,-2,-2,5,5,4,-2,-4,-3
-3,-5,-2,4,-1,-3,5,5,4,-2,-4,-3
-2,-4,-1,3,-1,-3,4,5,5,-2,-4,-3
-3,-3,0,3,-2,-1,4,6,5,-2,-3,-2
-4,-3,2,3,-3,0,5,6,6,-1,-3,-1
-5,-3,2,4,-4,0,5,6,7,0,-3,-1
-5,-3,2,4,-4,0,5,6,7,0,-3,-1
-5,-3,2,4,-4,0,6,6,8,0,-3,-1
-4,-2,2,3,-3,0,7,6,8,0,-2,0
-2,-1,1,1,-2,0,7,6,8,0,-2,0
0,0,1,0,-1,0,8,6,8,0,-2,0
-1,0,1,0,-1,1,8,6,8,0,-2,0
-1,1,2,0,-2,2,9,6,9,1,-1,0
0,1,2,0,-1,2,10,7,10,2,0,1
0,2,2,-1,0,2,10,7,11,2,0,1
0,2,3,-1,-1,3,9,7,11,3,1,1
1,3,2,-2,-1,3,8,7,11,3,1,1
2,2,1,-2,0,2,7,7,11,3,0,1
2,0,0,-1,0,0,5,6,10,2,0,0
0,-2,0,1,0,0,3,5,9,1,-1,0
-2,-3,0,2,-1,-1,3,5,9,1,-1,0
-2,-2,1,2,-2,0,3,5,10,2,-1,0
-2,-1,2,1,-2,1,4,6,11,3,0,0
-2,-1,2,1,-2,1,4,6,11,4,0,1
-2,-1,2,1,-2,1,4,7,12,5,1,2
-2,0,3,1,-2,2,4,8,13,7,3,3
-1,2,4,0,-3,3,4,10,15,9,5,5
-1,2,4,0,-2,3,3,10,16,9,5,5
0,3,3,-1,-2,3,2,10,17,9,5,5
0,3,3,-1,-2,3,1,10,17,9,5,5
-1,3,4,-1,-2,4,2,9,17,10,5,5
-1,3,4,-1,-3,4,2,9,17,10,6,5
0,4,4,-2,-2,4,3,10,17,11,7,6
2,5,3,-3,-1,4,3,10,18,12,8,7
3,5,3,-3,-1,4,3,9,18,13,8,8
4,6,3,-4,0,4,3,9,18,14,9,8
6,8,2,-7,1,5,3,10,19,15,9,9
7,8,1,-7,2,5,3,10,20,15,9,9
6,6,0,-6,2,3,2,10,20,15,9,9
7,7,0,-7,2,4,1,10,20,16,10,10
7,8,1,-8,2,4,0,11,21,17,11,11
4,5,1,-5,1,3,-1,11,21,17,11,11
1,3,2,-2,-1,2,-2,10,21,17,11,10
0,3,2,-2,-1,3,-2,10,21,17,12,11
2,5,3,-4,-1,5,-1,10,22,18,12,11
5,8,2,-7,0,6,-1,11,22,18,13,12
8,10,1,-10,3,6,0,11,22,19,13,12
11,11,0,-12,5,6,0,10,23,19,14,12
11,12,1,-12,5,7,0,10,23,20,14,13
11,12,1,-12,5,7,0,10,23,20,15,13
11,11,1,-11,5,7,0,9,23,20,15,13
9,10,1,-9,4,6,0,9,23,20,16,13
6,8,2,-7,2,6,-1,9,23,20,16,13
4,7,2,-6,1,6,-2,8,22,20,15,13
5,8,2,-7,1,6,-2,8,22,21,15,13
8,11,2,-10,2,7,-3,8,22,21,16,14
8,11,3,-10,2,7,-3,8,22,21,16,14
7,10,3,-9,2,7,-4,8,21,20,16,13
6,9,3,-7,2,6,-5,7,20,19,15,13
7,7,0,-7,3,4,-6,7,20,19,14,13
7,6,-1,-7,4,3,-5,7,20,19,14,13
8,6,-2,-7,5,3,-5,7,20,19,14,13
10,7,-3,-9,6,3,-4,7,20,18,14,13
13,10,-3,-12,7,3,-3,6,20,18,14,13
16,12,-4,-14,9,3,-1,7,20,18,14,13
16,11,-4,-13,9,2,0,7,20,17,14,13
11,7,-4,-9,7,1,0,6,19,16,13,12
7,5,-3,-5,4,1,0,6,18,16,12,12
6,5,-2,-5,4,1,0,6,18,15,11,11
6,4,-2,-5,3,1,0,6,18,15,11,11
5,4,-2,-5,3,1,0,6,18,15,11,10
6,5,-2,-6,3,1,0,7,19,15,11,10
8,5,-3,-7,5,1,0,8,19,15,10,10
8,5,-4,-7,6,0,0,7,18,14,9,9
7,3,-4,-5,6,0,0,7,16,12,7,8
5,1,-4,-3,5,-1,0,6,15,11,6,7
4,0,-4,-2,4,-1,0,6,14,10,5,6
4,1,-4,-3,4,0,0,5,14,10,5,6
4,2,-3,-3,3,0,1,5,14,9,5,6
4,1,-2,-3,2,0,2,5,13,8,5,6
4,1,-3,-3,3,-1,2,4,13,8,4,6
6,2,-4,-4,4,-1,2,4,12,7,4,5
6,2,-4,-4,5,-1,2,3,11,6,3,5
7,3,-4,-5,5,0,2,3,11,5,3,4
9,4,-4,-7,7,0,3,3,11,5,3,4
10,5,-5,-8,8,0,4,3,11,5,3,4
10,5,-5,-8,8,0,4,3,10,4,3,3
9,3,-6,-6,7,-1,3,1,8,2,1,2
4,-2,-6,-1,5,-4,1,-1,6,0,-1,0
0,-5,-4,3,2,-5,-1,-2,5,0,-2,-1
-3,-7,-3,5,0,-6,-2,-2,5,-1,-2,-1
-4,-8,-4,6,0,-6,-1,-1,5,-1,-2,0
-3,-7,-3,5,0,-5,0,-1,6,-1,-1,0
-3,-5,-2,4,0,-3,2,-1,6,-1,-1,1
-3,-5,-2,4,-1,-3,3,-1,5,-1,-1,0
-2,-4,-3,3,0,-3,3,-2,5,-2,-2,0
0,-4,-4,3,1,-4,3,-1,5,-2,-2,0
1,-4,-5,2,2,-4,3,0,5,-2,-1,0
3,-3,-6,0,3,-4,4,0,5,-2,-1,0
4,-2,-6,0,4,-3,4,0,5,-2,-1,0
4,-1,-5,-1,4,-2,4,0,6,-2,-1,0
3,0,-4,-1,3,-2,5,0,6,-1,-1,1
0,-3,-4,1,2,-3,5,0,5,-2,-2,0
-2,-6,-5,4,0,-5,4,-2,4,-3,-3,-1
-1,-6,-5,3,1,-5,3,-3,3,-4,-4,-2
1,-4,-6,1,3,-5,3,-3,2,-5,-5,-2
1,-4,-5,1,3,-4,3,-3,2,-5,-5,-2
0,-4,-4,2,2,-4,3,-2,2,-5,-5,-2
-1,-6,-4,3,1,-4,2,-2,2,-5,-5,-2
-2,-8,-5,5,0,-6,2,-3,2,-6,-6,-3
-3,-9,-7,6,1,-7,2,-2,2,-6,-6,-3
-1,-7,-7,4,2,-6,4,0,4,-5,-4,-1
0,-4,-4,2,1,-4,6,1,5,-4,-3,0
-2,-4,-2,3,0,-3,6,1,5,-4,-3,0
-4,-6,-1,5,-1,-4,5,0,4,-5,-4,-1
-4,-8,-3,6,-1,-6,4,-1,3,-6,-6,-2
-4,-8,-4,6,0,-6,3,-1,2,-7,-6,-3
-2,-7,-5,4,1,-6,4,-1,2,-7,-6,-3
1,-4,-6,1,3,-5,4,-1,2,-6,-5,-2
3,-1,-6,-1,4,-3,5,0,3,-6,-4,-1
4,-1,-6,-1,4,-3,5,0,3,-6,-4,-1
3,-3,-6,0,4,-4,5,-1,3,-6,-5,-2
2,-4,-6,1,4,-5,5,-1,3,-7,-6,-3
2,-3,-5,1,3,-4,5,0,3,-6,-5,-2
2,-2,-4,0,3,-3,6,0,4,-5,-5,-1
2,-2,-4,0,3,-2,6,1,5,-4,-4,-1
2,-3,-5,0,3,-3,5,1,5,-4,-5,-1
0,-6,-6,3,2,-5,4,0,5,-4,-5,-1
-3,-7,-4,5,0,-5,3,1,5,-4,-4,0
-4,-6,-2,5,-1,-4,3,1,6,-4,-4,0
-4,-5,-1,4,-1,-3,3,2,6,-4,-4,0
-3,-4,0,4,-1,-2,3,2,6,-4,-4,0
-3,-3,0,3,-1,-2,3,2,6,-4,-4,0
-3,-3,0,3,-1,-1,4,2,7,-3,-4,0
-3,-2,0,3,-2,-1,5,3,9,-2,-3,0
0,0,0,1,-1,0,5,5,10,0,-1,1
1,1,0,-1,0,0,5,5,11,0,-1,2
2,0,-1,-1,1,0,5,5,10,0,-1,1
2,0,-2,-1,2,-1,5,4,10,0,-1,1
3,-1,-3,-1,4,-2,5,4,10,0,-1,1
3,-3,-5,0,4,-3,4,3,9,-1,-2,0
3,-4,-7,0,5,-4,3,3,8,-2,-3,0
4,-3,-7,-1,5,-4,3,2,8,-2,-4,0
2,-3,-5,0,4,-4,4,2,8,-2,-4,0
-1,-3,-2,1,0,-3,5,2,9,-1,-3,0
-4,-4,0,4,-2,-2,6,2,9,-1,-3,0
-5,-5,0,5,-3,-2,6,2,9,-1,-3,0
-3,-3,0,3,-1,-1,7,3,10,0,-2,1
0,0,0,0,0,0,7,3,11,0,-1,1
2,0,-1,-1,1,0,6,3,11,0,-1,1
0,-1,-1,0,0,0,5,3,11,0,-1,1
-2,-3,0,2,-2,-1,4,2,10,0,-2,0
-3,-2,0,3,-2,-1,4,1,9,-1,-2,0
-2,-2,0,2,-1,-1,4,1,9,-1,-2,0
0,-1,-1,1,0,-1,4,2,9,-1,-2,0
1,-1,-1,0,1,-1,4,2,9,0,-2,0
0,-1,-1,0,1,-1,3,2,9,0,-2,0
0,-2,-1,1,1,-1,3,2,9,0,-2,0
0,-2,-2,1,1,-1,3,1,9,0,-1,1
2,-1,-2,0,2,-1,3,1,9,0,-1,1
1,0,-2,0,1,-1,2,1,10,0,-1,1
-1,-1,0,1,0,0,2,1,10,0,-1,1
-1,0,0,0,-1,0,3,1,11,0,0,2
0,1,1,-1,0,1,4,2,12,1,0,3
-1,0,1,0,-1,1,5,2,12,1,0,3
-2,-1,1,1,-1,0,6,2,11,1,0,3
-1,-3,-1,2,0,-1,5,1,11,0,0,2
-1,-4,-3,2,1,-3,4,1,10,0,-1,1
-2,-3,-2,2,0,-2,3,1,10,0,-1,0
-2,-1,-1,1,-1,-1,4,2,11,0,-1,1
0,0,-1,0,0,0,5,3,11,1,0,1
3,2,-1,-3,2,0,6,3,12,1,0,2
4,3,-1,-4,2,0,7,3,12,2,0,2
3,3,0,-3,2,1,7,3,12,2,0,3
3,4,0,-4,1,3,9,3,13,3,1,4
6,8,1,-7,2,5,11,5,15,5,3,5
9,10,0,-10,4,6,11,5,15,5,4,6
8,8,0,-8,4,4,9,2,13,4,3,5
5,5,-1,-5,3,2,7,0,12,2,2,4
2,3,0,-3,1,1,6,-1,11,2,1,4
0,3,3,-2,-1,3,6,-1,12,2,2,5
-1,4,5,-2,-2,5,6,-1,12,3,3,5
0,5,5,-3,-2,6,5,-2,11,3,3,5
2,6,3,-4,0,5,3,-3,10,2,2,5
3,5,2,-5,0,4,2,-5,9,1,1,4
3,5,2,-4,0,4,1,-6,8,0,1,4
2,5,2,-4,0,3,0,-6,8,0,1,4
2,5,2,-3,0,3,0,-6,7,-1,1,4
3,5,2,-4,1,2,-1,-6,7,-1,1,4
5,7,2,-6,1,4,0,-6,8,0,1,5
6,9,3,-7,1,5,0,-5,8,0,2,5
6,8,2,-7,2,5,1,-4,8,1,3,5
7,8,1,-7,2,5,1,-4,8,0,2,5
8,8,0,-8,3,4,1,-4,8,1,3,5
7,8,0,-8,3,4,2,-4,8,1,3,5
5,6,0,-6,3,2,1,-4,8,1,3,5
6,4,-2,-5,4,0,0,-5,7,0,2,4
7,3,-3,-5,5,0,0,-5,7,0,1,4
6,2,-4,-4,4,-1,0,-5,6,-1,0,3
3,-1,-4,-1,3,-2,0,-5,6,-1,0,3
0,-2,-3,0,2,-2,0,-5,5,-1,0,2
0,-2,-3,1,1,-2,1,-5,5,-1,-1,2
-1,-3,-3,2,0,-2,1,-6,5,-2,-1,1
-3,-4,-2,3,0,-3,2,-6,4,-2,-1,1
-4,-5,-2,4,-1,-3,2,-6,4,-2,-1,1
-4,-5,-1,5,-2,-3,2,-6,4,-2,-2,0
-3,-5,-2,4,-1,-4,2,-6,3,-2,-3,0
-2,-5,-3,4,0,-3,1,-5,3,-2,-3,0
-1,-4,-3,3,0,-2,2,-5,4,-2,-3,0
0,-3,-4,2,1,-3,2,-5,3,-2,-3,0
0,-4,-4,2,2,-3,2,-6,2,-3,-3,-1
-1,-4,-4,2,2,-4,2,-6,2,-4,-4,-1
0,-4,-5,2,3,-5,2,-7,1,-4,-4,-2
2,-3,-6,0,5,-5,3,-7,1,-4,-5,-2
5,-1,-6,-2,6,-3,4,-7,1,-4,-5,-2
4,0,-4,-2,4,-2,5,-7,1,-4,-4,-2
1,-2,-3,1,1,-2,5,-8,1,-4,-4,-2
0,-3,-2,2,0,-2,6,-8,1,-3,-3,-1
-1,-2,-1,2,0,-1,7,-7,2,-2,-2,0
-5,-4,0,4,-3,-1,7,-7,2,-2,-2,0
-7,-5,0,6,-4,-2,7,-8,2,-3,-2,-1
-6,-6,-1,7,-3,-3,6,-8,1,-4,-4,-1
-6,-7,-1,7,-2,-4,6,-8,1,-4,-4,-1
-5,-6,-1,5,-2,-3,7,-6,2,-3,-3,0
-5,-6,-2,5,-1,-4,7,-6,2,-3,-2,0
-7,-8,-2,7,-2,-5,5,-7,1,-4,-3,-1
-7,-10,-3,8,-2,-6,4,-7,0,-4,-4,-2
-5,-8,-3,6,-1,-6,4,-7,0,-4,-4,-3
-2,-5,-3,3,0,-4,4,-7,1,-3,-4,-3
0,-3,-3,2,1,-3,4,-6,1,-3,-3,-3
-1,-4,-3,3,0,-4,4,-7,0,-3,-4,-3
-4,-7,-3,5,0,-5,2,-7,0,-4,-5,-4
-6,-9,-3,8,-1,-6,1,-7,0,-5,-5,-4
-7,-10,-2,9,-2,-6,1,-7,0,-4,-5,-4
-8,-10,-2,9,-3,-6,1,-6,1,-3,-4,-3
-6,-9,-2,7,-2,-5,1,-6,1,-3,-4,-2
-3,-6,-3,4,0,-4,1,-5,2,-2,-3,-2
0,-3,-3,2,1,-3,2,-5,2,-2,-3,-2
0,-3,-3,1,1,-3,4,-6,1,-2,-3,-2
0,-3,-3,2,1,-3,5,-6,1,-2,-3,-2
0,-1,-2,0,1,-2,6,-5,2,-2,-2,-1
1,1,-1,-1,1,0,8,-5,2,-1,-1,0
0,2,1,-1,-1,2,8,-5,2,-2,-1,0
-2,3,5,0,-4,4,9,-5,3,-1,-1,1
-5,5,10,0,-8,7,10,-5,4,0,0,2
-8,6,15,1,-12,10,11,-2,8,2,1,3
-9,10,20,0,-15,14,13,3,14,7,4,6
-9,14,24,-3,-16,18,14,9,21,14,9,10
-10,16,26,-4,-18,21,14,15,27,21,14,13
-10,17,27,-4,-18,22,14,20,34,29,20,17
-7,20,27,-6,-17,24,14,21,41,38,27,22
-1,24,26,-11,-14,25,13,18,48,49,35,28
5,30,25,-18,-10,27,9,13,55,63,46,36
14,37,25,-26,-5,30,3,6,63,80,60,46
25,45,22,-36,1,33,-4,-2,70,98,74,56
35,51,17,-43,8,33,-12,-12,72,108,84,63
41,50,9,-46,15,30,-18,-23,69,110,86,64
46,44,-2,-46,24,22,-25,-33,61,103,81,60
55,38,-18,-47,37,11,-32,-43,49,91,73,54
64,31,-33,-48,49,0,-40,-55,33,75,62,46
68,22,-46,-45,57,-12,-45,-65,15,54,49,37
67,11,-56,-38,61,-23,-47,-73,-4,31,34,26
65,-1,-66,-31,65,-34,-48,-81,-25,6,17,13
62,-13,-74,-25,68,-44,-49,-88,-46,-19,0,0
56,-23,-79,-17,67,-51,-49,-95,-64,-42,-15,-11
49,-32,-81,-9,65,-57,-48,-101,-80,-61,-27,-21
46,-38,-84,-4,65,-60,-46,-105,-91,-75,-37,-29
45,-40,-86,-2,65,-62,-44,-106,-96,-83,-43,-33
43,-41,-85,0,63,-62,-42,-104,-96,-85,-46,-36
39,-41,-80,1,59,-60,-39,-98,-93,-84,-48,-37
34,-41,-75,3,54,-59,-37,-91,-89,-81,-48,-38
30,-42,-71,5,50,-57,-35,-84,-83,-77,-48,-39
28,-40,-67,5,48,-54,-33,-75,-76,-71,-47,-38
26,-36,-63,4,45,-49,-29,-66,-68,-65,-44,-36
23,-34,-58,5,41,-45,-25,-59,-60,-58,-40,-33
19,-32,-52,6,36,-40,-21,-51,-52,-52,-36,-30
15,-29,-45,7,30,-36,-17,-44,-45,-45,-32,-26
14,-25,-39,6,26,-32,-14,-37,-39,-39,-28,-23
13,-22,-34,4,23,-29,-11,-30,-33,-34,-24,-20
10,-20,-29,4,19,-25,-8,-24,-27,-29,-22,-18
7,-17,-23,4,15,-21,-5,-19,-21,-24,-19,-16
4,-14,-18,4,11,-16,-2,-13,-15,-19,-16,-14
1,-11,-13,4,7,-12,0,-9,-10,-14,-13,-11
-1,-9,-9,5,4,-8,2,-6,-6,-10,-10,-9
-1,-7,-6,4,3,-6,4,-3,-4,-7,-8,-6
0,-4,-4,2,2,-4,6,-1,-2,-5,-6,-5
0,-4,-3,2,1,-3,7,-1,-1,-5,-6,-5
0,-4,-3,2,0,-4,8,0,-1,-5,-7,-5
1,-3,-3,0,1,-3,7,0,-1,-4,-7,-5
2,-1,-3,-1,2,-2,7,1,0,-3,-6,-4
1,0,-2,-1,1,-1,7,2,0,-2,-5,-4
0,-1,-1,0,0,0,7,2,0,-2,-4,-4
-1,0,0,0,-1,1,7,3,1,-2,-3,-3
-2,-1,0,1,-2,0,8,3,1,-2,-3,-3
-3,-3,0,3,-2,-1,7,2,0,-2,-3,-3
-4,-5,0,4,-2,-2,6,2,0,-3,-4,-3
-3,-4,0,4,-2,-2,4,2,0,-3,-5,-4
-3,-3,1,3,-2,0,4,3,1,-1,-5,-3
-3,-2,2,2,-3,0,5,4,2,0,-3,-2
-2,0,2,1,-2,1,7,5,3,1,-2,-2
-1,1,2,0,-2,2,8,5,3,2,-1,-1
-2,0,2,1,-2,1,8,4,3,1,-2,-1
-2,-1,1,1,-2,0,7,4,2,0,-3,-2
-1,-2,0,1,-1,-1,7,3,2,0,-3,-2
-4,-4,0,3,-2,-2,7,2,0,-2,-5,-3
-7,-6,2,5,-4,-2,6,2,0,-2,-5,-3
-7,-5,2,5,-5,-1,5,2,0,-2,-5,-3
-5,-3,2,3,-4,0,5,3,0,-1,-4,-3
-3,-2,0,2,-2,0,4,3,0,-1,-4,-3
-3,-3,0,3,-2,-1,2,3,0,-1,-4,-3
-5,-4,0,4,-3,-1,2,3,0,-2,-5,-3
-7,-4,2,6,-5,-1,2,3,0,-1,-5,-3
-8,-4,4,6,-6,0,4,3,0,-1,-5,-3
-8,-4,4,6,-6,0,5,3,0,-1,-5,-3
-6,-2,3,4,-4,1,6,4,1,0,-4,-3
-2,0,2,1,-2,1,8,4,1,0,-3,-2
-1,0,1,0,-1,1,8,4,1,0,-3,-2
-3,-2,1,2,-2,0,6,3,0,0,-4,-3
-5,-3,1,4,-3,-1,5,2,0,-1,-5,-3
-5,-3,1,4,-3,-1,5,3,0,0,-4,-2
-4,-2,2,3,-3,0,6,4,1,1,-3,-2
-4,-2,3,3,-4,0,5,4,1,1,-3,-2
-4,-1,3,2,-3,1,4,4,0,0,-4,-2
-3,-1,2,2,-3,1,4,3,0,0,-5,-3
-3,-1,1,2,-3,1,4,3,-1,0,-4,-3
-3,-1,1,2,-3,1,6,4,0,0,-3,-2
-2,0,2,1,-2,1,7,5,0,1,-2,-1
-1,1,2,0,-2,2,6,6,1,2,-1,0
0,2,3,-1,-1,3,5,6,2,2,-1,0
0,3,3,-1,-1,3,4,6,2,2,-1,0
-1,2,3,-1,-2,2,3,5,1,1,-2,-1
-3,0,3,1,-3,1,2,4,0,0,-3,-2
-5,-2,2,2,-3,1,2,3,0,0,-4,-3
-4,-1,2,2,-3,1,2,3,0,0,-4,-3
-2,0,2,0,-2,2,2,4,0,0,-3,-3
-3,2,4,0,-3,3,3,5,1,1,-2,-2
-5,1,6,2,-5,3,3,5,1,2,-1,-1
-5,0,4,3,-5,2,3,5,1,2,-1,0
-2,0,2,1,-2,1,3,6,1,3,-1,0
1,1,0,-1,0,1,3,6,1,3,-1,-1
2,1,-1,-2,2,0,3,6,1,2,-1,-1
1,0,-1,-1,1,0,2,5,0,1,-2,-2
-1,0,1,0,-1,0,2,4,0,1,-3,-3
-2,0,2,1,-3,1,2,4,0,1,-3,-3
-2,1,3,0,-3,1,2,4,0,1,-3,-3
-1,2,3,0,-2,2,2,5,1,2,-2,-2
0,3,3,-1,-2,3,2,5,2,3,0,0
-1,4,5,-1,-3,5,3,6,3,4,1,1
-2,5,7,-1,-5,6,4,8,4,6,2,3
-2,6,8,-2,-5,7,5,9,5,7,3,4
0,7,8,-3,-4,7,5,9,5,7,3,4
1,8,7,-4,-2,7,4,8,5,6,3,3
2,7,5,-5,-1,6,3,7,4,6,2,3
1,5,4,-3,-1,4,2,7,4,5,1,2
-1,3,3,-1,-2,3,1,7,3,5,1,2
-1,3,3,-1,-3,3,1,7,3,5,1,2
-3,1,3,0,-3,3,1,7,3,5,1,2
-4,0,4,2,-4,2,1,7,3,5,1,1
-5,1,5,2,-5,3,1,7,3,6,1,1
-3,3,5,0,-4,4,1,7,4,7,2,2
-1,4,5,-1,-3,4,1,8,5,7,3,2
0,6,5,-3,-3,5,1,8,6,8,4,3
1,7,5,-4,-2,5,2,9,7,10,5,5
0,6,5,-4,-3,5,2,9,8,11,6,6
0,6,4,-3,-2,5,2,9,8,12,6,6
2,7,4,-5,-1,6,2,9,8,12,7,7
3,8,4,-6,0,7,2,9,8,12,7,7
3,9,5,-6,0,7,1,9,9,13,8,7
4,9,5,-7,0,7,1,10,9,13,8,7
4,9,5,-7,0,7,0,11,10,15,9,7
3,10,6,-7,-1,8,0,11,10,16,10,8
2,9,7,-6,-2,8,0,11,10,16,10,8
2,9,6,-5,-2,7,-1,12,11,17,11,8
3,9,5,-6,0,7,-1,12,12,18,12,9
5,10,4,-7,1,7,-2,12,12,18,12,9
5,10,4,-8,1,7,-3,11,11,18,12,9
5,10,4,-8,1,7,-3,11,11,18,11,9
6,9,3,-7,2,5,-3,11,10,18,11,9
7,7,0,-7,3,3,-4,10,10,17,11,9
7,7,0,-7,3,2,-6,10,11,18,11,9
6,8,1,-8,2,4,-7,11,11,19,12,9
7,10,2,-9,2,6,-7,11,12,20,12,9
9,11,2,-10,4,7,-7,12,12,21,13,10
11,13,2,-12,5,8,-6,12,13,22,14,10
11,14,3,-12,4,8,-5,12,13,23,15,11
11,14,3,-12,3,9,-5,12,13,23,16,12
10,14,4,-12,2,9,-4,12,13,22,15,12
9,12,3,-11,2,8,-5,11,12,21,15,11
7,11,3,-9,2,7,-5,10,11,21,14,11
7,10,2,-9,2,6,-5,9,11,20,14,11
8,9,1,-9,3,6,-5,9,10,19,13,10
8,10,1,-9,4,6,-6,9,10,19,14,10
8,10,2,-9,3,6,-6,10,11,20,14,11
8,10,2,-9,3,6,-6,10,11,20,14,11
8,9,1,-9,3,5,-5,10,11,20,14,11
9,10,0,-10,4,5,-4,11,11,20,15,11
11,12,1,-12,4,6,-2,12,12,21,15,12
13,15,1,-14,5,8,-1,13,13,21,16,12
15,16,1,-15,7,8,-2,13,12,21,15,12
14,14,0,-14,7,7,-3,12,11,20,14,11
11,9,-1,-10,6,4,-5,10,10,18,12,9
7,4,-2,-6,5,1,-7,9,8,16,10,7
5,4,-1,-5,4,1,-7,8,7,15,9,6
5,6,0,-6,3,3,-6,8,7,15,9,6
6,7,0,-8,3,4,-5,9,8,15,9,7
8,7,-2,-8,5,3,-5,9,8,14,8,7
10,7,-3,-9,6,3,-5,9,8,14,8,7
10,7,-2,-9,5,3,-5,9,8,14,8,7
8,7,-1,-8,4,3,-4,9,9,14,8,7
6,7,0,-7,3,4,-3,10,9,14,9,7
6,8,1,-8,2,5,-1,10,10,14,9,7
7,9,1,-9,3,5,0,9,10,14,8,7
7,9,1,-8,3,5,0,8,9,12,7,6
6,7,0,-6,3,3,0,7,7,11,6,5
6,5,-1,-5,4,2,0,6,7,10,5,4
6,4,-2,-5,4,1,1,6,7,9,5,3
5,4,-1,-4,3,2,1,6,7,9,5,3
4,5,1,-4,1,3,1,6,7,8,4,3
3,4,1,-4,0,3,0,5,7,7,3,2
1,2,1,-2,0,1,-1,3,5,5,2,1
0,0,0,0,0,-1,-2,2,3,4,1,0
0,-1,-1,0,0,-1,-1,1,2,3,0,0
0,0,-1,0,0,0,0,1,2,2,0,0
0,0,0,0,0,0,0,1,3,2,1,0
-1,0,0,0,0,0,1,2,2,2,0,0
-1,-1,-1,1,0,-1,1,1,1,0,0,-1
0,-2,-2,1,0,-2,0,1,0,0,-2,-2
2,-1,-3,-1,2,-2,0,1,0,-1,-2,-2
4,0,-3,-2,3,-1,0,2,1,0,-2,-1
3,1,-1,-2,1,0,0,3,2,0,-2,-1
1,1,0,-1,0,0,0,2,1,0,-2,-1
0,0,-1,0,0,0,-1,0,0,-1,-3,-2
-1,-2,-2,1,0,-1,-1,0,-1,-2,-4,-3
-2,-3,-2,2,0,-2,-1,-1,-2,-3,-5,-4
-2,-3,-1,2,0,-2,0,-1,-2,-3,-6,-5
-2,-2,0,2,0,-1,0,0,-2,-3,-6,-5
-1,-1,0,1,0,-1,0,1,-2,-3,-6,-4
0,-1,-1,0,1,-1,1,1,-1,-2,-6,-4
2,-1,-3,-1,2,-2,1,1,-1,-3,-6,-4
3,0,-3,-1,3,-2,1,1,-1,-3,-6,-4
3,0,-3,-1,4,-1,3,2,-1,-2,-5,-4
5,2,-3,-3,4,0,5,2,0,-2,-4,-3
6,3,-3,-4,5,0,6,2,0,-2,-4,-3
4,1,-2,-2,3,0,7,2,0,-2,-4,-3
1,0,-1,0,1,-1,6,1,-1,-3,-4,-4
1,0,-1,0,1,-1,6,1,-1,-3,-5,-4
2,0,-2,0,2,-1,6,2,-1,-3,-5,-4
0,-2,-2,1,1,-2,5,2,-1,-3,-5,-4
-1,-3,-1,3,0,-2,4,1,-2,-4,-6,-5
-1,-2,0,2,0,-1,3,2,-1,-4,-6,-4
-1,-2,0,2,0,-2,2,2,-1,-4,-6,-4
-4,-4,0,4,-1,-3,1,1,-2,-4,-7,-5
-4,-4,0,4,-1,-3,0,1,-3,-4,-7,-5
-2,-2,-1,2,0,-2,0,1,-2,-4,-6,-4
-1,-1,-1,1,0,-1,0,2,-2,-4,-6,-4
-1,-2,0,2,0,-1,0,2,-2,-4,-7,-5
-3,-3,0,3,-1,-1,0,2,-2,-4,-7,-5
-6,-5,1,5,-3,-1,0,2,-2,-4,-7,-5
-7,-6,1,6,-4,-2,-1,1,-2,-4,-7,-5
-7,-6,0,6,-3,-2,-1,1,-2,-4,-8,-6
-5,-6,-1,5,-2,-2,-1,1,-2,-4,-8,-6
-4,-4,0,3,-2,-1,0,2,-1,-3,-7,-5
-3,-1,2,2,-3,0,1,3,0,-2,-6,-5
-2,0,3,0,-3,2,2,3,0,-2,-6,-4
-1,1,3,0,-2,2,3,4,0,-1,-5,-4
0,1,2,-1,-1,2,4,4,1,0,-5,-3
1,2,0,-2,0,1,4,4,1,0,-4,-3
2,3,0,-3,1,1,4,4,1,0,-4,-3
1,2,0,-2,0,1,3,4,1,0,-4,-3
-2,0,2,1,-2,0,3,4,1,0,-4,-3
-3,0,3,2,-3,1,4,4,1,1,-4,-2
-1,2,3,0,-2,2,5,5,2,2,-3,-2
1,5,3,-3,-1,4,5,5,2,2,-3,-2
1,5,3,-3,-1,4,5,4,1,1,-4,-2
0,4,3,-2,-2,3,6,4,1,1,-4,-3
0,4,3,-1,-2,3,6,4,1,1,-3,-2
0,4,3,-2,-1,3,6,5,1,2,-3,-2
1,4,1,-3,0,3,5,4,1,2,-3,-2
2,3,0,-3,0,2,4,4,1,2,-3,-2
2,3,0,-2,0,2,4,4,2,2,-3,-1
2,3,1,-2,0,3,4,4,2,3,-2,-1
2,4,2,-2,0,3,4,5,2,3,-2,-1
0,2,2,-1,0,2,3,4,2,2,-2,-1
-1,1,1,0,-1,1,1,3,1,1,-3,-2
-1,0,2,0,-1,1,1,3,1,1,-3,-2
-3,0,3,1,-3,1,0,3,1,1,-3,-2
-4,0,4,2,-4,2,0,3,1,1,-3,-2
-2,1,3,0,-3,2,0,3,1,1,-3,-2
1,3,2,-3,-1,3,0,3,1,1,-3,-2
3,5,2,-5,0,4,1,4,2,1,-2,-1
3,6,2,-5,0,4,2,5,2,2,-2,-1
2,5,2,-4,0,3,3,5,2,2,-2,-1
1,4,1,-3,0,2,3,5,2,2,-2,-1
1,3,2,-2,0,3,4,5,2,2,-2,-1
0,3,2,-2,-1,3,5,4,2,2,-2,-1
0,3,3,-1,-2,3,4,4,2,2,-2,-1
-1,2,3,-1,-2,2,4,3,2,1,-3,-1
-2,2,3,0,-3,2,4,3,2,1,-3,-1
-4,1,5,1,-5,3,5,4,2,2,-2,-1
-5,2,6,1,-6,4,6,5,3,3,-2,-1
-4,3,6,0,-5,5,6,6,4,3,-1,0
-3,4,6,-1,-4,5,6,6,4,4,-2,-1
-1,4,5,-1,-3,5,5,5,3,4,-2,-1
0,3,3,-2,-1,4,4,5,3,3,-3,-1
0,3,3,-2,-1,4,4,5,3,3,-3,-1
0,3,4,-1,-2,4,4,5,3,4,-2,-1
0,4,5,-2,-2,5,3,5,3,4,-2,0
0,6,6,-3,-3,6,3,5,3,4,-1,0
-1,5,7,-2,-4,6,2,4,3,4,-1,0
0,4,5,-2,-3,5,1,3,2,4,-1,0
2,6,4,-4,-1,6,0,2,2,4,0,0
2,7,5,-5,0,6,0,1,2,4,0,1
1,7,5,-4,-1,6,0,0,2,4,0,1
0,6,6,-4,-2,6,-1,-1,1,4,0,1
0,5,5,-3,-2,5,-3,-2,0,3,-1,0
-1,5,5,-3,-2,5,-4,-3,-1,1,-2,0
0,5,5,-3,-2,5,-3,-3,-2,1,-2,0
1,7,5,-4,-2,6,-2,-3,-2,1,-2,0
1,8,5,-5,-2,7,-1,-3,-2,1,-2,0
1,7,6,-4,-2,7,-1,-3,-1,2,-1,1
0,7,6,-4,-2,7,-1,-3,0,2,-1,1
0,7,6,-4,-2,7,-1,-3,0,2,0,1
1,7,6,-5,-2,7,0,-3,0,2,0,2
3,8,5,-6,0,7,0,-3,-1,2,0,2
5,9,4,-8,1,6,0,-3,-2,1,0,2
5,8,3,-7,1,6,-1,-3,-3,0,0,1
4,7,4,-5,0,6,-1,-2,-2,0,0,1
3,8,4,-5,0,6,0,-1,-1,1,0,2
3,7,3,-5,0,6,0,-1,-1,2,1,2
3,5,2,-4,0,4,0,-1,-1,1,0,1
2,4,2,-3,0,2,0,-2,-1,1,0,1
2,3,2,-2,0,2,0,-2,-1,0,-1,0
2,3,1,-2,0,1,1,-1,-1,0,-1,0
4,4,0,-3,2,1,2,0,-1,0,-1,0
5,5,0,-4,2,2,2,0,-1,0,-1,0
4,5,0,-4,2,2,2,0,-2,0,-2,0
1,3,1,-2,0,2,1,-1,-3,-2,-3,-1
-2,1,2,1,-2,2,0,-2,-4,-3,-4,-2
-4,-1,2,2,-3,0,0,-3,-4,-4,-5,-3
-3,-3,1,3,-2,-1,-1,-3,-5,-5,-6,-4
-2,-4,-1,3,0,-2,-1,-2,-6,-5,-6,-5
-1,-4,-1,3,0,-2,0,-1,-5,-5,-6,-4
-2,-4,0,3,-1,-1,0,0,-5,-4,-5,-4
-4,-3,2,4,-3,0,0,0,-5,-4,-5,-4
-4,-2,3,3,-3,0,0,0,-5,-4,-5,-5
-2,-1,1,1,-1,0,0,0,-5,-4,-5,-5
-2,-1,0,1,-1,0,1,0,-5,-4,-5,-5
-3,-2,1,2,-1,0,2,0,-4,-4,-5,-4
-4,-2,2,2,-2,0,3,1,-4,-3,-4,-4
-3,-1,2,2,-2,0,4,1,-4,-3,-4,-4
-2,-2,1,2,-1,0,4,0,-5,-4,-5,-4
-3,-3,0,3,-1,-1,4,0,-6,-5,-6,-5
-5,-4,1,5,-3,-1,4,0,-6,-6,-6,-5
-6,-5,1,6,-4,-1,4,0,-6,-6,-6,-5
-6,-5,0,5,-4,-2,3,0,-6,-6,-7,-5
-5,-4,0,4,-2,-2,3,0,-6,-5,-7,-5
-3,-3,0,3,-1,-1,3,0,-6,-5,-6,-5
-1,-2,0,1,-1,0,3,1,-6,-5,-6,-5
-1,-1,1,1,-2,0,3,1,-6,-5,-5,-5
-2,-1,1,2,-2,0,3,2,-6,-5,-5,-4
-1,-1,0,1,-2,0,3,2,-6,-5,-5,-4
0,0,0,0,0,0,3,2,-6,-5,-5,-4
-1,0,0,0,0,0,3,2,-6,-5,-5,-3
-3,-1,1,1,-2,0,3,2,-6,-4,-5,-3
-5,-3,2,3,-4,0,2,2,-6,-4,-5,-3
-6,-4,2,4,-4,0,2,2,-6,-4,-5,-3
-5,-3,2,4,-3,-1,1,2,-6,-5,-5,-3
-4,-3,0,4,-2,-2,0,2,-7,-5,-6,-4
-4,-5,0,5,-2,-3,-1,1,-8,-6,-7,-6
-6,-6,0,6,-3,-3,-1,1,-8,-7,-7,-7
-6,-6,0,6,-3,-3,-1,1,-8,-7,-7,-7
-6,-5,0,5,-2,-3,0,2,-7,-6,-6,-6
-6,-4,1,4,-3,-1,1,3,-6,-6,-6,-5
-7,-2,4,4,-5,1,1,3,-7,-6,-6,-5
-12,-2,9,7,-10,3,2,3,-7,-6,-5,-5
-17,-2,15,9,-16,7,4,4,-5,-5,-4,-3
-19,0,20,9,-20,10,6,7,-1,-2,-1,-1
-17,4,22,6,-20,13,8,10,3,2,2,1
-13,9,22,1,-18,15,9,15,9,7,6,5
-7,15,22,-4,-15,18,10,22,16,15,12,9
-4,19,23,-8,-14,21,12,29,25,24,18,14
-4,21,26,-8,-15,24,13,33,33,34,26,20
-2,24,28,-11,-15,26,12,32,40,45,34,26
5,31,27,-18,-11,29,9,28,47,59,46,34
16,41,26,-28,-5,34,4,23,55,76,61,44
27,50,24,-38,1,37,-2,16,63,94,76,55
37,58,21,-47,8,39,-9,8,68,107,88,64
46,61,15,-54,15,38,-15,-2,67,112,92,68
53,58,4,-56,24,31,-21,-12,60,109,89,65
59,49,-10,-54,35,19,-28,-23,49,99,81,58
60,35,-25,-48,43,5,-36,-36,32,83,69,49
61,22,-39,-41,50,-8,-42,-48,13,63,56,38
64,11,-52,-37,58,-20,-46,-57,-6,39,40,26
63,0,-63,-31,63,-32,-47,-64,-27,14,23,13
58,-13,-72,-23,65,-42,-48,-71,-48,-13,4,-1
53,-23,-76,-15,65,-49,-47,-78,-67,-38,-12,-13
47,-30,-77,-9,62,-54,-45,-84,-83,-59,-26,-23
40,-36,-77,-2,59,-56,-43,-88,-95,-75,-37,-31
35,-40,-77,2,56,-58,-40,-89,-101,-84,-44,-36
31,-44,-76,6,54,-60,-38,-88,-103,-88,-48,-40
27,-47,-74,9,51,-60,-37,-84,-101,-88,-50,-42
26,-45,-71,9,49,-58,-35,-78,-96,-85,-50,-42
27,-41,-68,6,48,-55,-32,-70,-89,-80,-48,-41
28,-37,-65,4,47,-51,-30,-62,-82,-75,-46,-40
27,-33,-60,3,44,-47,-27,-54,-74,-68,-43,-38
23,-30,-53,3,38,-42,-24,-46,-66,-61,-40,-35
18,-28,-46,5,32,-37,-20,-39,-58,-54,-36,-31
16,-25,-40,4,28,-32,-15,-31,-51,-47,-31,-28
16,-20,-36,2,25,-27,-11,-24,-44,-41,-27,-25
15,-16,-31,0,22,-23,-8,-18,-38,-35,-24,-22
10,-16,-26,3,17,-21,-7,-13,-33,-31,-22,-21
4,-17,-21,6,12,-19,-6,-10,-29,-28,-21,-19
0,-16,-16,8,8,-16,-4,-6,-24,-23,-18,-17
-2,-13,-11,8,4,-12,-1,-2,-19,-19,-15,-15
-3,-11,-8,7,2,-9,1,2,-15,-14,-13,-13
-4,-9,-5,7,0,-7,3,5,-12,-11,-10,-11
-4,-8,-3,6,0,-5,4,7,-11,-9,-9,-9
-2,-6,-3,4,0,-4,4,9,-10,-8,-8,-8
0,-3,-3,1,1,-4,5,10,-9,-8,-7,-8
0,-3,-3,1,1,-3,4,11,-9,-8,-7,-8
-1,-3,-2,2,1,-3,4,11,-8,-8,-7,-8
-2,-3,-2,2,0,-3,4,12,-7,-7,-7,-7
-3,-3,-1,3,0,-2,4,12,-6,-6,-6,-7
-4,-2,1,4,-2,-1,4,12,-6,-5,-6,-6
-5,-1,2,4,-3,0,5,13,-6,-5,-5,-5
-5,-3,1,4,-2,-1,5,13,-6,-5,-5,-5
-5,-5,0,6,-3,-2,5,12,-7,-6,-6,-5
-6,-5,0,6,-3,-2,4,13,-7,-6,-5,-5
-5,-4,0,4,-2,-2,4,13,-6,-5,-5,-5
-4,-4,0,4,-1,-2,3,13,-7,-6,-5,-5
-4,-4,-1,4,-1,-2,3,12,-7,-6,-6,-6
-5,-3,0,4,-2,-1,3,12,-7,-6,-6,-6
-5,-3,1,4,-2,-1,3,13,-7,-5,-6,-6
-4,-3,1,3,-2,-1,4,13,-6,-5,-6,-6
-3,-3,1,3,-2,-1,4,13,-6,-5,-6,-6
-4,-3,1,4,-3,-1,4,13,-6,-5,-6,-6
-5,-3,1,4,-3,-1,4,13,-6,-5,-6,-6
-5,-2,3,4,-4,0,5,13,-5,-5,-5,-6
-5,-1,3,3,-4,1,5,14,-5,-3,-4,-5
-5,-1,3,4,-4,1,5,14,-4,-2,-3,-4
-4,-1,3,3,-4,1,5,15,-4,-2,-3,-3
-2,0,2,1,-3,1,6,15,-4,-2,-3,-3
-3,-1,2,3,-3,0,5,14,-5,-3,-4,-4
-5,-4,2,5,-4,-1,4,14,-5,-4,-4,-4
-6,-4,2,6,-4,-1,4,14,-5,-4,-4,-4
-6,-3,2,5,-4,0,5,15,-5,-4,-4,-4
-5,-2,2,4,-3,0,5,15,-5,-4,-4,-4
-3,-2,1,3,-2,0,5,14,-6,-4,-5,-5
-3,-3,0,3,-1,-1,4,14,-7,-5,-5,-5
-5,-3,1,4,-3,-1,4,15,-6,-4,-5,-5
-4,-2,2,3,-4,0,5,16,-5,-3,-4,-4
-3,-1,3,2,-3,1,6,17,-4,-2,-4,-3
-4,-1,4,2,-4,1,6,16,-4,-2,-4,-3
-4,0,4,1,-3,2,6,16,-4,-2,-4,-3
-3,0,4,1,-2,2,6,16,-4,-2,-3,-3
-4,0,4,2,-3,2,5,16,-5,-2,-4,-4
-5,0,4,3,-4,1,4,15,-5,-3,-4,-4
-6,-1,3,4,-4,1,4,16,-5,-3,-4,-4
-5,-1,3,4,-4,0,3,16,-5,-2,-4,-4
-4,-1,3,3,-4,1,3,16,-5,-2,-4,-4
-3,0,3,1,-4,2,3,16,-5,-2,-3,-3
-2,1,3,0,-3,2,4,17,-4,-1,-2,-3
-2,1,3,0,-2,2,5,17,-3,0,-2,-2
-2,1,3,0,-2,2,5,16,-3,0,-2,-2
0,3,2,-1,0,3,5,16,-3,0,-2,-2
2,5,3,-3,0,4,5,17,-3,0,-1,-2
0,3,3,-1,-1,4,4,16,-3,-1,-2,-2
-2,-1,2,2,-3,1,2,15,-5,-2,-3,-4
-3,-2,2,3,-3,0,1,15,-5,-3,-4,-4
-4,0,4,2,-4,2,1,16,-4,-1,-3,-3
-6,0,7,2,-7,4,1,17,-3,0,-2,-2
-10,-1,9,5,-9,4,0,16,-3,0,-2,-2
-11,-3,7,7,-9,2,0,15,-4,-1,-3,-3
-8,-4,4,6,-6,0,-1,13,-5,-2,-3,-4
-6,-3,3,4,-4,0,0,13,-5,-1,-3,-4
-5,-2,3,4,-5,1,1,13,-4,-1,-2,-3
-6,-2,5,4,-6,1,1,14,-4,0,-2,-3
-8,-2,6,4,-7,2,1,14,-3,0,-1,-3
-8,-2,5,4,-7,1,1,13,-3,0,-1,-3
-7,-2,4,4,-5,1,1,13,-3,0,-1,-3
-6,-1,4,3,-4,1,1,14,-3,1,-1,-2
-5,-1,4,3,-4,2,2,14,-2,1,-1,-2
-5,0,5,3,-4,2,1,14,-2,2,0,-1
-3,2,6,1,-5,4,2,14,-1,3,0,-1
-2,4,6,-1,-5,5,2,15,0,4,1,0
-1,4,6,-2,-4,5,3,15,0,4,2,0
-1,4,6,-2,-4,5,3,15,0,5,2,0
-1,5,6,-3,-4,5,3,15,1,5,2,0
0,6,6,-3,-3,6,3,15,1,5,2,1
0,6,4,-3,-1,6,2,15,2,6,3,1
2,6,3,-4,0,5,2,15,3,7,3,2
3,6,2,-4,1,5,2,15,4,7,4,2
3,6,3,-4,0,5,1,15,4,7,4,2
0,6,5,-3,-3,5,1,15,4,8,4,2
-2,6,8,-2,-5,6,1,15,4,9,4,3
-1,7,8,-3,-5,7,1,16,6,10,5,4
2,9,7,-6,-3,8,2,16,7,11,6,5
3,10,6,-6,-2,8,1,16,7,11,6,5
1,8,6,-4,-2,7,0,15,7,11,6,4
2,7,5,-4,-2,7,0,15,7,12,7,5
4,9,5,-7,0,8,0,15,8,13,8,6
6,10,5,-8,0,8,0,15,9,13,9,6
3,9,5,-6,-1,7,-1,15,9,14,9,6
0,7,6,-4,-4,7,-2,16,9,15,10,7
0,7,7,-3,-4,7,-2,16,10,15,11,7
1,8,6,-4,-2,7,-3,16,10,16,11,8
3,10,5,-6,0,8,-3,16,10,17,11,8
4,10,5,-6,0,7,-3,16,11,17,12,8
4,9,5,-5,0,6,-5,16,11,18,12,9
4,8,4,-5,0,6,-6,16,12,18,12,9
5,9,4,-7,0,6,-6,16,12,19,13,10
6,10,4,-8,0,7,-7,16,12,19,14,10
7,11,3,-9,1,7,-7,16,11,19,14,10
6,10,3,-8,1,6,-7,15,11,18,14,9
4,9,4,-7,0,6,-7,14,10,18,14,9
4,10,5,-7,-1,7,-5,14,11,19,15,10
4,11,6,-7,-1,8,-4,15,11,19,15,10
5,10,6,-7,-1,8,-3,14,11,19,15,10
6,11,5,-8,0,7,-3,14,10,19,14,10
8,12,4,-10,1,7,-3,14,10,20,14,10
7,10,3,-9,2,6,-4,14,10,20,15,10
5,9,3,-7,1,6,-4,13,10,20,15,10
6,11,4,-8,1,7,-4,13,10,20,15,11
7,11,3,-9,2,7,-4,13,11,20,16,11
7,10,3,-9,2,7,-4,13,10,20,15,11
6,10,4,-8,1,7,-4,12,10,19,15,11
6,10,4,-8,0,7,-4,12,9,19,15,10
6,10,3,-8,0,6,-4,12,9,18,15,10
7,10,2,-9,1,6,-4,12,9,18,15,10
7,9,2,-9,2,5,-4,12,9,18,15,10
7,8,1,-8,3,5,-4,12,9,18,14,10
7,8,1,-8,3,5,-5,11,8,17,13,9
7,9,2,-8,2,5,-5,11,8,16,12,8
7,9,1,-7,2,5,-5,11,7,16,12,8
8,8,0,-7,3,4,-5,11,7,15,12,8
7,8,0,-7,3,3,-5,10,7,15,12,8
5,6,1,-5,2,3,-5,9,6,14,11,7
3,4,1,-3,1,2,-5,8,5,12,10,6
2,2,0,-2,1,2,-4,7,5,11,9,6
2,2,0,-1,1,2,-4,6,5,11,8,5
2,2,0,-1,1,2,-3,6,4,11,8,5
1,2,1,-1,0,2,-3,6,4,10,7,4
2,3,1,-1,0,2,-2,6,4,10,7,4
3,3,1,-3,1,2,-2,6,4,9,6,3
4,4,0,-4,1,3,-1,6,4,9,6,3
4,5,0,-4,1,3,-1,6,4,8,6,3
3,4,0,-3,1,2,-1,5,3,7,5,2
1,2,0,-2,1,2,0,5,2,6,4,1
0,2,0,-1,0,1,0,4,1,5,3,1
0,0,0,0,0,0,0,3,0,4,2,0
-1,-1,0,1,0,-1,-1,2,0,2,2,0
0,-2,-1,1,0,-2,-1,2,-1,2,1,-1
0,-2,-1,1,0,-2,-1,1,-2,1,0,-1
-1,-2,-1,1,0,-2,0,1,-3,0,0,-2
-1,-2,0,2,-1,-1,0,1,-3,0,-1,-2
-2,-2,0,2,-1,-1,0,1,-3,-1,-1,-3
-1,-1,-1,2,0,-1,0,1,-3,-1,-1,-3
1,0,-1,0,1,0,1,1,-2,-1,-1,-2
5,4,-1,-4,3,1,3,3,-1,0,0,-1
8,6,-2,-7,5,2,4,4,0,0,0,-1
9,6,-2,-7,5,1,5,4,0,0,0,-1
8,5,-2,-7,5,1,5,4,-1,0,0,-1
6,4,-1,-5,3,1,4,3,-2,-1,-1,-2
4,3,-1,-3,2,1,4,2,-3,-2,-2,-2
1,0,-1,0,1,0,4,0,-4,-3,-3,-3
-2,-3,-2,3,0,-2,3,0,-6,-5,-4,-5
-4,-6,-2,5,0,-4,2,-1,-6,-6,-5,-6
-5,-7,-2,6,-1,-4,1,-1,-7,-6,-5,-6
-6,-8,-1,7,-2,-4,1,-1,-7,-7,-6,-7
-6,-8,0,7,-3,-4,0,-1,-8,-7,-6,-7
-6,-7,-1,7,-2,-4,0,-1,-8,-7,-6,-7
-4,-6,-2,6,-1,-4,0,-1,-8,-7,-6,-8
-4,-5,-2,5,0,-4,1,0,-8,-7,-6,-8
-3,-5,-2,5,0,-3,1,0,-7,-7,-5,-7
-3,-5,-2,4,0,-3,1,1,-6,-6,-4,-7
-4,-5,-1,5,-1,-4,1,1,-7,-7,-4,-7
-4,-7,-2,6,-1,-5,0,1,-8,-8,-5,-7
-5,-7,-2,6,-2,-5,1,0,-7,-8,-5,-7
-3,-4,0,4,-2,-2,4,1,-6,-6,-4,-6
-1,0,1,1,-1,1,6,2,-4,-5,-3,-5
0,1,1,0,0,1,6,3,-4,-5,-3,-5
2,3,0,-2,2,1,6,3,-4,-5,-3,-5
4,4,-1,-3,3,1,6,3,-4,-5,-3,-5
2,2,0,-2,1,1,5,3,-5,-5,-3,-5
-1,-1,0,1,-1,0,5,2,-6,-6,-4,-6
-5,-4,1,5,-3,-1,4,2,-6,-6,-5,-6
-8,-6,2,7,-5,-1,4,2,-6,-6,-5,-6
-8,-7,2,8,-5,-2,3,2,-6,-6,-5,-6
-8,-7,1,7,-5,-2,3,2,-6,-6,-5,-6
-7,-5,2,6,-5,-1,2,2,-6,-6,-5,-6
-8,-4,4,6,-6,0,2,2,-6,-6,-4,-6
-8,-4,4,6,-6,0,3,3,-5,-5,-3,-5
-6,-3,3,4,-5,0,3,4,-4,-5,-3,-5
-3,-1,2,2,-3,0,4,4,-4,-4,-2,-4
-2,0,2,1,-2,0,4,5,-4,-4,-2,-5
-2,0,2,1,-2,0,4,5,-4,-4,-2,-5
-1,0,2,0,-1,1,4,5,-4,-4,-2,-5
-1,1,2,0,-1,1,4,5,-3,-3,-2,-5
-2,0,2,0,-2,1,4,5,-3,-3,-2,-4
-3,-1,2,1,-2,1,3,5,-3,-3,-2,-4
-3,-1,2,2,-3,0,3,4,-3,-3,-2,-4
-4,-1,2,2,-3,0,3,4,-3,-3,-2,-4
-4,-1,2,2,-3,1,3,4,-3,-3,-2,-4
-3,0,2,1,-3,1,3,4,-3,-2,-1,-4
0,1,1,0,-1,1,3,4,-3,-2,-1,-4
2,2,0,-2,1,1,3,4,-3,-2,-1,-4
3,3,0,-3,1,1,2,4,-3,-2,-1,-4
3,3,1,-3,0,1,2,4,-2,-1,0,-4
3,4,2,-4,0,3,3,5,-1,0,0,-3
3,4,1,-4,0,3,3,5,-1,0,0,-3
1,2,0,-1,0,1,1,3,-2,-2,-1,-4
-1,0,0,1,0,0,0,2,-3,-3,-2,-5
-3,-2,1,2,-2,0,1,3,-3,-2,-2,-5
-5,-3,2,4,-3,0,1,3,-2,-1,-1,-4
-5,-3,2,4,-3,0,1,3,-2,-1,-1,-4
-3,-3,2,3,-2,0,1,2,-3,-2,-2,-5
-3,-2,2,3,-3,0,0,1,-4,-3,-2,-5
-5,-1,4,3,-5,1,1,2,-3,-2,-2,-5
-7,-1,5,4,-6,1,1,3,-3,-1,-1,-4
-6,-1,4,3,-5,1,2,4,-2,-1,0,-4
-3,0,3,2,-3,1,3,5,-1,0,0,-3
-1,1,2,0,-2,2,4,5,-1,0,0,-3
0,2,3,0,-2,3,4,5,-1,0,1,-2
0,2,3,-1,-1,3,5,5,-1,0,1,-2
2,3,2,-2,0,2,5,5,0,0,1,-2
3,4,1,-4,0,2,5,6,0,0,1,-2
2,4,2,-3,0,2,4,6,0,0,1,-2
-2,2,4,0,-3,2,4,6,0,0,1,-2
-5,1,5,2,-5,3,4,6,0,0,0,-2
-5,1,6,2,-6,4,4,6,0,0,0,-2
-5,1,6,2,-5,3,4,7,0,1,1,-1
-5,0,5,2,-5,2,5,7,1,1,1,-1
-2,2,5,0,-3,3,5,7,1,1,1,-1
1,5,4,-3,-1,4,5,7,1,1,2,-1
3,6,3,-4,0,4,4,6,1,1,2,-1
1,6,4,-4,-1,5,4,6,1,1,2,-1
0,7,6,-3,-3,6,4,7,1,2,2,0
0,7,6,-4,-3,7,5,8,2,3,3,0
0,6,6,-3,-3,6,4,7,1,2,2,0
0,4,5,-2,-3,5,2,5,0,1,1,-1
0,4,5,-2,-3,5,1,4,0,1,1,-1
0,4,4,-3,-2,4,0,3,0,0,1,-1
3,7,4,-5,-1,5,0,3,0,1,1,-1
5,9,4,-7,0,7,0,3,0,2,2,0
5,10,4,-8,0,7,0,3,0,2,3,0
5,9,4,-7,0,7,0,2,0,1,2,0
5,9,3,-7,1,6,-1,1,-1,0,2,0
5,8,2,-6,1,5,-2,0,-2,-1,1,0
3,6,3,-4,0,5,-3,-1,-4,-2,0,-1
1,5,4,-3,-1,5,-4,-2,-5,-3,0,-1
2,5,3,-3,0,5,-3,-3,-5,-3,0,-2
3,6,2,-4,0,4,-2,-3,-5,-3,0,-2
5,7,2,-6,1,5,-1,-3,-5,-3,0,-1
7,9,2,-8,2,6,0,-2,-4,-1,1,0
6,9,2,-7,2,6,1,-1,-3,-1,2,0
4,7,3,-5,1,5,1,-1,-3,-1,2,0
2,5,3,-3,0,4,0,-2,-4,-1,2,0
0,3,4,-1,-2,4,0,-2,-4,-2,1,-1
-1,2,4,0,-2,3,0,-1,-4,-2,0,-1
-1,0,4,0,-2,2,-1,-1,-4,-2,0,-1
-3,-1,3,2,-3,1,-1,-1,-4,-2,0,-2
-4,-2,2,3,-4,0,-1,-2,-5,-3,-1,-2
-3,-1,2,2,-3,1,-1,-2,-5,-3,-1,-3
-1,1,2,0,-2,2,-1,-1,-5,-3,-1,-3
-2,2,3,0,-3,3,0,-1,-5,-3,-1,-3
-4,0,4,2,-4,2,0,-1,-5,-4,-2,-3
-4,-2,3,3,-3,0,0,-1,-5,-4,-2,-4
-2,-3,0,3,-1,-2,0,-2,-6,-5,-3,-5
-2,-5,-2,4,0,-4,0,-2,-7,-6,-4,-6
-4,-7,-3,6,-1,-5,0,-3,-8,-7,-5,-6
-5,-7,-2,7,-2,-4,0,-3,-8,-7,-5,-6
-6,-6,0,6,-2,-3,1,-2,-7,-7,-5,-6
-5,-4,1,5,-3,-2,2,-2,-7,-7,-5,-6
-5,-3,1,4,-3,-1,2,-2,-7,-7,-5,-6
-5,-4,1,5,-3,-2,2,-2,-7,-7,-5,-6
-5,-4,0,5,-3,-2,3,-2,-7,-6,-4,-6
-4,-3,0,4,-3,-2,4,-1,-6,-5,-3,-5
-4,-4,0,4,-3,-2,4,0,-5,-5,-3,-4
-5,-5,0,5,-4,-2,3,-1,-6,-5,-3,-5
-5,-5,0,5,-3,-2,3,-2,-7,-6,-4,-6
-3,-5,-2,4,-1,-3,3,-2,-7,-6,-4,-6
-2,-5,-3,3,0,-3,3,-2,-7,-6,-4,-6
-1,-4,-2,2,0,-3,3,-2,-7,-6,-4,-6
-2,-3,0,2,-1,-1,3,-2,-7,-6,-4,-6
-3,-2,2,2,-3,0,4,-2,-7,-6,-4,-6
-3,-1,3,2,-4,0,5,-1,-6,-5,-4,-5
-1,0,1,0,-2,0,6,-1,-6,-5,-3,-5
2,0,-1,-1,1,0,6,-1,-6,-5,-4,-5
2,-1,-3,0,2,-1,5,-2,-7,-6,-5,-6
0,-3,-3,2,1,-3,3,-3,-7,-7,-6,-7
-2,-4,-1,3,0,-3,4,-2,-7,-7,-5,-6
-3,-3,0,3,-2,-1,5,0,-5,-5,-4,-5
-2,-2,1,2,-2,0,6,0,-4,-4,-3,-4
-2,-2,1,2,-2,0,6,0,-5,-5,-3,-4
-2,-2,0,2,-2,0,4,-1,-6,-6,-4,-5
0,-1,0,0,0,0,3,-2,-6,-6,-5,-6
1,0,0,-1,0,1,3,-2,-5,-6,-4,-5
0,0,1,0,0,1,4,-1,-5,-5,-4,-5
-3,-2,1,2,-2,0,4,-2,-5,-6,-4,-5
-5,-4,1,4,-3,-1,3,-2,-5,-6,-5,-5
-6,-4,2,5,-4,-1,3,-1,-5,-6,-5,-5
-8,-5,4,6,-6,0,3,-2,-6,-7,-5,-5
-12,-6,6,9,-9,0,3,-3,-7,-8,-6,-6
-14,-6,8,10,-11,1,3,-5,-8,-10,-7,-7
-15,-4,11,10,-13,3,5,-5,-7,-10,-7,-6
-17,-1,16,9,-16,7,7,-3,-4,-7,-5,-5
-18,3,20,8,-19,11,10,1,1,-2,-1,-2
-16,8,24,5,-20,15,13,9,9,4,4,2
-15,12,27,2,-21,19,14,16,17,12,10,7
-13,16,29,-1,-21,22,15,23,25,21,16,11
-9,21,30,-6,-20,25,15,25,32,30,23,16
-4,26,30,-11,-18,28,13,22,39,41,31,22
1,32,31,-17,-15,32,10,18,46,54,42,30
8,38,30,-23,-11,34,6,12,54,71,56,40
17,45,28,-30,-6,37,-2,3,62,88,70,51
26,51,26,-38,0,39,-10,-6,66,102,82,59
36,55,20,-45,8,38,-16,-15,67,108,88,64
43,51,8,-47,17,30,-22,-24,61,106,86,62
48,42,-5,-45,26,18,-30,-34,51,98,79,57
52,32,-20,-42,35,6,-38,-46,36,84,68,49
57,23,-34,-40,45,-5,-45,-57,19,65,55,39
61,13,-48,-37,55,-17,-49,-65,0,42,41,28
63,2,-61,-32,62,-29,-50,-72,-20,18,25,16
62,-8,-69,-26,66,-39,-50,-79,-40,-8,8,3
59,-17,-75,-20,67,-47,-49,-85,-59,-32,-7,-8
56,-25,-80,-15,68,-52,-47,-91,-76,-53,-20,-18
52,-31,-82,-10,67,-56,-45,-96,-89,-70,-31,-26
47,-36,-82,-5,64,-59,-43,-98,-97,-81,-40,-33
41,-39,-81,-1,61,-60,-42,-98,-100,-86,-45,-37
38,-40,-79,1,58,-59,-40,-93,-98,-87,-48,-40
36,-40,-76,2,55,-58,-37,-87,-94,-84,-49,-41
33,-40,-73,3,53,-56,-34,-80,-88,-81,-48,-41
32,-38,-68,4,50,-53,-31,-71,-81,-75,-46,-40
29,-35,-63,4,46,-49,-27,-62,-72,-68,-43,-38
25,-33,-56,4,41,-45,-23,-53,-64,-61,-40,-35
22,-29,-50,4,36,-39,-20,-46,-57,-55,-37,-32
20,-24,-44,2,32,-34,-16,-39,-50,-48,-33,-29
17,-21,-39,1,27,-29,-13,-33,-43,-43,-30,-27
14,-19,-34,2,23,-26,-10,-28,-38,-38,-27,-24
10,-18,-29,4,19,-23,-8,-23,-33,-34,-25,-23
6,-18,-23,6,14,-21,-5,-19,-29,-30,-23,-21
2,-17,-17,7,9,-18,-3,-14,-24,-25,-20,-19
1,-14,-12,6,6,-14,0,-10,-19,-21,-17,-17
1,-9,-8,4,4,-9,2,-6,-14,-16,-14,-14
0,-4,-4,2,2,-4,4,-3,-11,-12,-11,-11
-1,-2,-1,1,0,-1,5,-1,-8,-10,-9,-8
-3,-2,0,2,-1,-1,6,0,-7,-8,-7,-7
-5,-4,0,4,-2,-2,6,0,-7,-8,-8,-7
-6,-5,0,5,-3,-3,5,0,-7,-9,-9,-8
-5,-5,1,5,-3,-3,4,0,-7,-9,-8,-8
-6,-6,2,6,-3,-3,4,0,-6,-8,-8,-8
-7,-6,1,7,-4,-3,4,0,-6,-8,-8,-8
-6,-5,2,5,-4,-1,5,1,-5,-7,-8,-7
-6,-2,3,3,-5,1,6,2,-4,-6,-6,-6
-5,0,5,2,-5,3,8,3,-3,-5,-5,-5
-5,0,4,2,-5,2,8,3,-3,-5,-5,-5
-3,0,2,2,-3,1,6,2,-4,-5,-6,-6
-2,-1,2,2,-2,0,5,2,-5,-6,-7,-7
-3,-2,1,3,-2,-1,4,2,-5,-6,-7,-7
-5,-4,1,5,-3,-1,3,2,-5,-6,-7,-7
-9,-8,2,9,-6,-2,2,1,-5,-6,-7,-8
-14,-10,3,12,-8,-3,2,0,-6,-7,-8,-8
-15,-10,3,12,-9,-3,2,0,-6,-7,-8,-8
-12,-7,3,9,-8,-2,4,0,-6,-7,-7,-7
-7,-3,3,5,-5,-1,5,1,-5,-6,-6,-7
-4,-1,3,3,-4,0,6,2,-4,-5,-5,-6
-3,-1,3,2,-3,0,7,2,-3,-4,-5,-6
-2,0,3,1,-2,0,8,2,-3,-4,-5,-6
-3,-2,2,2,-2,0,7,1,-4,-4,-5,-6
-4,-3,0,3,-2,-1,7,0,-4,-5,-6,-6
-5,-3,0,4,-3,0,7,0,-4,-5,-5,-5
-5,-3,1,4,-4,0,8,1,-3,-4,-5,-5
-5,-3,1,4,-4,0,8,1,-3,-4,-5,-5
-6,-3,3,5,-5,0,7,1,-4,-4,-6,-5
-8,-3,5,6,-7,0,6,1,-4,-5,-6,-6
-8,-4,5,7,-7,0,6,1,-3,-5,-6,-5
-6,-4,3,6,-5,-1,6,1,-3,-5,-6,-5
-5,-4,1,5,-4,-2,5,1,-4,-6,-6,-5
-5,-4,1,5,-3,-1,4,1,-4,-6,-6,-5
-5,-3,1,5,-3,-1,3,1,-3,-6,-5,-5
-5,-2,2,4,-4,0,4,2,-2,-5,-5,-4
-4,0,4,2,-4,2,5,3,-1,-3,-4,-3
-3,1,5,1,-5,3,5,3,0,-2,-3,-3
-5,0,6,2,-6,3,5,3,-1,-3,-4,-3
-5,1,6,2,-6,3,5,3,-1,-3,-4,-3
-3,2,5,1,-5,4,6,4,0,-2,-3,-2
-3,2,4,1,-4,3,7,4,0,-2,-3,-2
-4,0,2,2,-3,1,6,4,-1,-3,-4,-4
-4,-2,1,3,-3,0,5,3,-1,-4,-5,-5
-4,-2,1,3,-3,0,3,3,-2,-4,-5,-5
-5,-2,2,4,-4,0,2,2,-2,-4,-6,-6
-6,-3,3,5,-4,0,1,2,-2,-4,-6,-6
-7,-4,3,5,-5,0,2,2,-2,-4,-6,-6
-8,-4,4,6,-6,0,3,2,-2,-4,-5,-5
-9,-3,5,6,-8,2,4,3,-1,-3,-4,-4
-9,-2,6,6,-8,3,5,3,0,-2,-4,-4
-6,0,6,3,-7,3,6,4,0,-2,-3,-3
-2,2,4,0,-3,4,7,5,0,-1,-2,-3
0,3,3,-2,-2,4,7,5,1,0,-2,-2
-1,2,4,-1,-3,4,6,5,1,0,-2,-3
-5,1,6,1,-6,4,5,5,1,-1,-3,-3
-6,0,6,2,-6,3,5,5,1,0,-2,-3
-5,0,5,3,-5,3,4,5,1,0,-2,-3
-5,0,4,3,-5,2,4,4,1,0,-3,-3
-4,0,4,3,-4,2,3,4,1,-1,-3,-3
-4,-1,4,3,-4,1,2,4,1,-1,-3,-4
-5,-2,4,4,-5,1,1,4,1,0,-3,-4
-6,-1,5,4,-6,2,1,5,2,0,-3,-3
-7,-1,6,4,-7,3,1,6,2,0,-2,-2
-8,-2,7,5,-8,3,1,6,2,1,-2,-2
-9,-2,6,6,-8,2,1,5,2,1,-2,-2
-8,-2,5,6,-7,1,0,4,2,0,-2,-2
-8,-2,5,5,-7,1,1,4,2,1,-2,-2
-7,-1,6,4,-7,2,2,5,3,2,-1,-1
-5,0,6,2,-6,3,3,6,4,2,0,-1
-2,2,5,0,-4,3,3,6,4,3,0,0
0,4,5,-1,-3,4,3,7,5,3,1,0
0,3,4,-1,-3,3,2,6,5,3,1,0
-3,1,4,1,-4,3,1,6,5,3,0,0
-5,0,5,2,-6,3,0,6,5,4,0,0
-5,1,6,2,-7,4,1,6,6,5,1,0
-5,2,7,1,-7,5,1,7,7,6,2,1
-4,2,7,1,-7,5,1,8,8,7,3,1
-3,2,6,1,-6,4,1,8,9,8,3,2
-2,3,6,0,-5,5,1,8,9,8,4,2
-1,4,6,-2,-4,5,1,9,10,9,4,3
0,6,6,-3,-3,6,1,9,11,10,5,3
2,7,5,-5,-1,6,0,10,12,11,6,4
3,8,5,-5,-1,7,0,11,13,12,7,5
2,8,7,-5,-3,7,0,11,14,13,8,5
1,9,8,-5,-3,8,0,12,14,14,9,6
2,10,8,-6,-3,8,1,12,15,14,9,6
2,10,8,-6,-3,8,1,11,15,15,9,6
2,9,7,-6,-3,8,0,11,14,15,9,6
2,9,7,-6,-2,8,0,11,14,15,9,7
3,10,7,-7,-2,8,0,11,15,16,10,8
4,11,7,-8,-1,9,0,12,16,18,11,9
5,11,6,-9,0,9,0,12,17,18,12,9
5,9,4,-8,0,7,-1,11,16,18,12,9
5,9,4,-7,0,6,-2,10,16,17,11,9
6,11,4,-9,0,7,-2,10,16,18,12,9
8,12,4,-10,1,8,-1,11,16,19,13,9
9,13,4,-11,1,9,0,11,17,20,13,10
8,13,4,-10,1,9,-1,11,17,20,13,10
6,11,4,-9,0,8,-2,11,17,20,13,10
5,10,4,-8,0,7,-3,11,17,20,14,10
4,9,4,-7,0,7,-4,10,17,20,14,10
3,8,5,-6,-1,6,-4,10,16,20,14,10
3,7,4,-5,-1,5,-5,9,15,19,13,10
5,8,3,-6,0,5,-6,8,14,19,12,9
8,9,2,-8,2,5,-6,8,14,19,12,9
9,9,1,-9,3,5,-6,8,14,19,13,10
8,10,1,-9,3,5,-6,9,15,19,13,10
7,10,2,-9,2,6,-5,9,15,20,14,11
8,10,1,-9,3,5,-5,9,15,20,14,11
8,9,0,-8,3,4,-5,9,15,19,14,11
6,7,-1,-6,3,3,-5,9,15,19,13,10
5,6,0,-5,2,3,-5,8,14,18,12,10
5,6,1,-6,1,4,-4,9,14,18,12,10
5,8,3,-6,0,6,-3,9,15,18,13,10
4,8,4,-6,0,6,-3,9,15,18,12,10
4,7,3,-5,0,5,-4,8,14,16,11,9
3,6,2,-4,0,4,-4,8,13,15,10,8
2,5,1,-4,0,3,-4,8,12,15,9,8
3,4,0,-4,0,3,-4,8,12,14,9,7
4,4,0,-4,1,2,-3,8,12,14,9,7
5,5,0,-5,2,2,-2,8,12,14,9,7
7,6,0,-6,3,3,0,9,12,14,9,7
8,7,0,-7,3,3,0,9,12,13,9,7
8,7,0,-7,3,4,1,9,11,12,8,6
7,7,0,-7,3,4,1,9,10,12,8,6
7,7,0,-6,3,3,1,9,10,11,7,6
7,7,0,-7,3,3,1,9,10,11,7,6
9,9,0,-9,4,4,2,9,10,11,6,6
9,9,-1,-9,5,4,2,9,10,10,6,5
5,4,-1,-4,3,2,0,7,8,7,4,4
1,0,0,0,1,0,0,6,6,5,2,2
-1,-1,0,2,0,0,0,5,5,4,2,2
-2,-2,0,3,-1,-1,0,4,4,3,1,1
-2,-2,0,2,-1,-1,0,3,3,2,0,0
-2,-1,1,2,-2,0,1,3,3,1,0,0
-3,-1,1,3,-3,0,2,3,3,1,-1,0
-2,-1,1,2,-2,0,2,3,3,1,-1,0
-2,0,2,2,-2,0,3,2,2,0,-1,0
-3,0,3,2,-3,1,3,2,2,0,-1,-1
-1,1,2,1,-2,1,3,2,1,0,-1,-1
1,1,0,-1,0,0,3,2,1,-1,-2,-2
3,0,-3,-1,2,-1,1,1,0,-2,-3,-3
1,-3,-4,1,2,-3,0,0,-1,-3,-5,-4
-2,-5,-3,3,0,-4,0,-1,-2,-4,-6,-5
-2,-5,-3,3,0,-3,0,-1,-2,-4,-6,-5
-1,-4,-2,2,0,-2,0,0,-1,-4,-6,-4
-2,-3,-1,2,0,-2,1,0,-1,-4,-5,-4
-4,-4,0,4,-1,-2,1,0,-2,-4,-5,-4
