leadI,leadII,leadIII,leadaVR,leadaVL,leadaVF,leadV1,leadV2,leadV3,leadV4,leadV5,leadV6
2,0,-1,-1,2,0,0,0,-1,-1,-1,-1
5,1,-4,-3,5,-1,0,-1,-3,-4,-4,-3
7,1,-6,-4,7,-2,0,-2,-4,-5,-5,-6
9,0,-8,-4,8,-3,0,-2,-5,-6,-6,-9
11,0,-10,-5,10,-4,0,-3,-5,-7,-7,-11
12,0,-11,-6,11,-5,0,-3,-5,-7,-7,-12
11,0,-10,-6,11,-5,0,-3,-5,-7,-7,-13
9,0,-9,-5,9,-4,0,-2,-5,-7,-6,-14
10,1,-9,-5,10,-4,1,-2,-6,-8,-6,-15
11,0,-10,-6,11,-5,2,-1,-7,-10,-8,-16
10,-1,-11,-4,11,-6,3,0,-9,-14,-12,-18
8,-4,-11,-2,10,-7,5,2,-10,-19,-17,-21
5,-5,-11,0,8,-8,7,5,-11,-23,-22,-23
4,-6,-11,1,8,-8,9,7,-11,-27,-26,-24
6,-7,-13,1,9,-9,10,8,-11,-29,-29,-27
7,-7,-14,0,10,-10,10,10,-9,-28,-30,-28
6,-6,-12,0,9,-9,10,12,-4,-24,-27,-27
9,-1,-9,-4,9,-5,9,14,3,-16,-19,-23
15,5,-9,-10,12,-2,6,14,12,-5,-9,-17
20,12,-7,-16,13,2,2,13,20,8,3,-8
24,18,-5,-21,14,6,-2,11,29,24,18,2
29,25,-4,-27,17,10,-7,9,39,44,35,16
36,33,-3,-34,20,15,-13,5,49,68,56,35
43,42,-1,-43,22,20,-20,0,59,96,81,57
51,52,0,-52,25,26,-28,-9,68,126,109,80
60,62,2,-61,29,32,-37,-20,72,156,136,102
68,71,3,-70,32,37,-46,-33,73,182,161,123
75,78,3,-77,36,40,-56,-48,70,204,180,144
84,82,-1,-83,42,40,-67,-65,64,219,194,164
93,85,-8,-89,50,38,-77,-82,52,224,203,180
99,85,-13,-92,56,36,-85,-97,33,217,205,192
101,85,-16,-93,58,35,-90,-111,11,198,201,197
101,83,-17,-93,59,33,-93,-126,-13,172,190,194
99,81,-17,-91,58,32,-94,-141,-35,142,175,187
92,78,-13,-86,52,32,-92,-154,-58,106,155,174
81,73,-7,-78,44,33,-87,-167,-84,64,127,154
69,67,-1,-68,35,33,-80,-177,-109,20,96,132
56,59,3,-57,26,31,-72,-182,-130,-18,67,109
44,48,5,-46,20,26,-63,-180,-144,-47,41,88
33,36,3,-35,16,20,-55,-170,-148,-66,19,67
26,25,0,-26,14,13,-49,-156,-144,-76,1,48
22,18,-3,-20,12,7,-44,-142,-136,-79,-11,32
17,12,-4,-15,10,4,-41,-128,-124,-77,-19,20
11,8,-3,-10,6,2,-38,-113,-110,-72,-22,10
8,5,-2,-7,4,0,-33,-97,-95,-66,-24,1
7,4,-3,-6,5,0,-28,-81,-80,-58,-24,-5
6,4,-3,-6,4,0,-22,-67,-66,-50,-23,-8
6,3,-3,-5,5,0,-17,-54,-54,-43,-21,-9
9,2,-6,-6,8,-1,-13,-43,-45,-38,-20,-10
12,2,-9,-8,10,-2,-10,-34,-37,-33,-20,-10
13,2,-10,-8,11,-3,-8,-26,-29,-28,-18,-12
14,2,-11,-8,12,-4,-5,-18,-22,-23,-17,-13
14,2,-11,-8,12,-4,-2,-11,-15,-19,-15,-13
14,2,-11,-8,12,-5,0,-5,-9,-16,-14,-12
14,1,-13,-8,13,-6,1,-2,-5,-14,-13,-12
14,0,-13,-7,13,-6,2,0,-4,-13,-13,-13
13,0,-13,-7,13,-6,2,1,-3,-12,-12,-13
13,0,-13,-7,13,-6,3,3,-2,-11,-11,-12
13,-1,-14,-7,13,-7,3,4,-2,-11,-11,-13
13,-2,-14,-6,13,-7,3,4,-1,-11,-12,-13
12,-3,-15,-5,13,-8,3,5,0,-11,-12,-14
12,-3,-15,-5,13,-9,3,6,0,-11,-13,-16
11,-3,-15,-4,13,-8,3,7,2,-10,-13,-17
11,-3,-14,-4,12,-8,4,8,3,-9,-13,-17
11,-3,-14,-5,13,-8,4,8,3,-8,-13,-17
11,-3,-15,-5,13,-8,4,8,3,-9,-13,-16
10,-4,-14,-3,12,-9,4,8,2,-9,-12,-14
9,-5,-14,-3,12,-9,4,9,3,-9,-12,-13
10,-4,-14,-3,12,-9,4,9,3,-9,-11,-15
11,-4,-14,-3,12,-9,4,10,4,-8,-11,-18
12,-3,-14,-4,12,-8,5,10,5,-8,-10,-19
14,-2,-15,-6,14,-8,5,10,5,-8,-10,-18
15,-1,-16,-7,15,-8,5,10,5,-9,-11,-15
13,-2,-15,-6,14,-8,5,11,5,-9,-12,-12
12,-2,-14,-5,13,-8,5,11,5,-8,-12,-11
13,-2,-15,-6,14,-8,5,11,5,-8,-13,-12
14,-2,-16,-7,15,-9,5,11,5,-9,-13,-12
14,-2,-15,-6,14,-8,5,12,5,-8,-13,-12
12,-1,-13,-6,12,-7,6,13,7,-7,-13,-11
11,-1,-11,-5,11,-6,7,14,8,-6,-12,-11
9,0,-9,-4,9,-5,7,15,9,-5,-10,-11
7,0,-8,-3,7,-4,8,15,10,-4,-9,-12
6,0,-7,-3,6,-3,8,16,10,-3,-8,-13
5,-1,-7,-2,6,-3,8,16,10,-3,-7,-15
4,-1,-7,-1,5,-3,8,16,10,-3,-7,-16
2,-2,-5,0,3,-3,9,17,10,-3,-7,-14
0,-3,-3,1,1,-2,9,17,11,-3,-7,-11
-2,-4,-2,2,0,-2,9,17,11,-3,-8,-10
-4,-4,0,4,-2,-1,9,18,12,-2,-8,-8
-5,-4,1,4,-3,0,10,18,13,-1,-6,-9
-5,-3,2,3,-4,0,11,19,13,0,-5,-11
-4,-3,2,3,-4,0,11,19,13,0,-4,-13
-3,-3,0,3,-2,-1,10,19,13,-1,-4,-13
-2,-3,-1,2,-1,-1,10,19,13,-1,-5,-12
-3,-2,0,2,-2,0,11,20,14,0,-5,-10
-2,-2,0,2,-1,0,11,20,14,-1,-7,-8
-1,-2,-1,2,0,-1,10,19,13,-2,-8,-8
0,-2,-1,2,0,-2,10,19,13,-3,-9,-8
-1,-2,-1,2,0,-2,10,19,13,-2,-8,-8
-2,-2,0,2,-1,-1,10,20,13,-2,-7,-9
-4,-3,1,3,-3,0,10,20,14,-1,-6,-9
-5,-3,1,4,-3,0,10,20,14,-1,-6,-9
-6,-3,2,4,-4,0,11,21,15,0,-5,-8
-7,-3,3,5,-5,0,11,21,15,0,-5,-8
-4,-2,2,3,-3,0,11,21,15,0,-6,-8
-1,-1,0,1,0,0,11,21,15,0,-6,-8
-1,-1,0,0,0,0,11,21,15,0,-6,-8
-2,-1,0,1,-1,0,11,22,15,0,-6,-8
-3,-1,1,2,-2,0,11,22,16,0,-6,-9
-4,-2,1,2,-3,0,10,22,16,0,-6,-9
-5,-2,1,3,-3,0,10,23,16,1,-6,-10
-6,-2,2,3,-4,0,11,23,17,2,-5,-12
-9,-2,6,5,-7,2,12,25,19,3,-3,-14
-10,-2,8,6,-9,3,13,26,19,4,-2,-14
-8,-2,6,5,-7,2,13,26,19,3,-2,-13
-7,-2,6,4,-7,2,12,26,19,3,-3,-11
-9,-2,7,6,-8,2,12,26,19,2,-4,-9
-10,-3,7,6,-9,2,12,26,19,2,-5,-7
-9,-2,6,5,-8,2,11,26,19,2,-6,-7
-8,-2,6,5,-7,2,11,26,19,2,-6,-8
-8,-2,5,5,-7,2,11,26,19,2,-5,-8
-7,-2,5,4,-6,2,11,26,19,2,-5,-7
-6,-2,4,4,-6,2,11,27,19,2,-5,-6
-7,-1,6,4,-7,3,12,28,20,3,-5,-4
-9,-1,8,5,-9,4,13,29,22,4,-4,-3
-9,0,8,5,-9,4,13,29,22,4,-4,-4
-5,0,5,3,-6,3,12,29,21,3,-4,-5
-3,0,3,1,-4,2,11,29,21,3,-4,-6
-2,0,2,0,-3,2,11,29,22,4,-4,-7
-2,1,2,0,-3,2,11,30,22,5,-3,-8
-6,0,6,2,-7,3,12,31,23,6,-2,-8
-13,0,12,6,-13,5,13,33,25,7,-1,-7
-15,0,13,7,-14,6,13,34,25,8,0,-5
-13,0,12,7,-13,5,13,33,25,8,0,-5
-12,0,10,6,-12,5,12,33,25,8,0,-5
-11,0,9,6,-10,4,12,33,25,7,0,-5
-9,0,9,5,-9,4,12,34,25,7,0,-4
-9,0,10,4,-10,5,13,34,26,8,0,-3
-9,1,10,4,-10,6,13,35,26,9,1,-4
-7,1,8,2,-8,5,12,35,26,9,0,-6
-5,2,6,0,-6,5,11,35,26,9,0,-8
-4,3,6,0,-5,5,11,35,27,9,1,-9
-4,3,7,0,-6,5,11,36,27,10,2,-9
-4,3,8,0,-6,6,11,36,28,10,2,-7
-4,4,8,0,-6,6,11,37,28,10,1,-4
-2,3,6,-1,-5,4,10,37,27,10,0,-3
-2,3,5,-1,-4,4,9,36,26,9,-1,-3
-5,3,9,1,-8,5,10,37,28,11,0,-3
-9,3,13,3,-12,8,12,39,30,13,2,-2
-11,3,15,3,-13,9,12,40,30,14,3,-1
-11,3,14,3,-13,9,12,40,31,15,4,-1
-10,3,14,3,-12,9,12,41,31,15,5,0
-11,3,15,3,-13,10,12,41,32,16,5,0
-10,4,15,2,-13,11,12,42,32,16,5,1
-6,6,12,0,-10,10,11,41,31,16,5,2
-4,7,11,-2,-9,10,10,41,31,16,5,3
-4,8,12,-2,-8,10,10,41,32,17,6,4
-4,9,12,-3,-8,11,10,41,32,17,7,3
-4,9,12,-3,-8,11,10,41,32,17,7,2
-3,9,12,-3,-7,11,9,40,31,18,7,2
-7,8,14,-1,-11,12,9,41,32,19,8,3
-11,8,18,1,-15,13,9,42,33,20,10,6
-11,8,19,1,-15,14,9,42,33,21,10,7
-7,9,16,0,-12,13,7,40,32,20,10,7
-5,10,15,-2,-10,12,6,39,32,20,10,7
-4,11,15,-3,-10,13,6,39,32,21,11,9
-3,11,15,-4,-9,13,6,39,32,21,11,10
-3,12,15,-4,-9,14,6,39,32,22,12,9
-3,12,15,-5,-9,14,6,39,32,22,12,9
-3,12,15,-5,-10,14,6,39,32,23,13,9
-2,13,15,-6,-9,15,6,39,32,24,14,9
-1,14,16,-6,-9,15,6,39,32,24,15,10
-2,14,17,-5,-10,16,6,39,32,24,16,10
-2,14,17,-5,-10,15,5,38,32,25,16,10
0,15,15,-7,-8,15,4,37,32,25,16,11
0,16,16,-8,-8,16,4,37,32,25,17,14
-1,16,17,-7,-10,17,4,37,32,25,17,15
-1,15,17,-7,-10,17,3,36,32,25,16,15
-2,15,18,-7,-11,17,3,35,32,25,17,14
-4,15,20,-5,-13,18,3,35,32,25,18,14
-4,15,19,-5,-12,17,2,34,31,25,18,14
-4,14,18,-4,-11,16,1,33,30,24,17,14
-3,13,16,-5,-10,15,1,32,29,24,17,15
-1,14,15,-7,-8,15,1,31,29,24,16,15
1,16,15,-9,-7,16,1,31,29,24,17,14
2,17,15,-10,-7,17,1,31,29,25,18,14
1,18,17,-10,-9,18,1,31,29,25,19,14
-1,18,19,-9,-11,19,1,31,29,25,19,15
-3,18,21,-7,-13,20,1,30,29,25,19,16
-4,18,22,-7,-13,20,1,29,29,25,19,17
-2,18,20,-8,-11,19,1,28,28,24,18,17
0,18,19,-8,-10,19,1,26,28,24,18,16
-2,18,20,-8,-12,20,2,26,28,25,18,16
-3,17,20,-7,-12,20,2,25,27,24,18,16
-1,16,18,-8,-10,18,0,23,26,23,17,14
0,16,16,-8,-9,16,0,22,25,22,17,12
0,15,15,-8,-8,15,-1,20,24,22,17,10
0,14,15,-7,-8,15,-1,19,23,21,17,10
-2,14,16,-6,-9,15,0,18,22,21,17,12
-4,13,17,-5,-10,16,0,18,22,21,17,13
-5,12,17,-4,-11,16,1,17,22,20,16,13
-4,12,16,-4,-10,15,0,16,21,19,15,10
-3,11,15,-4,-10,14,0,15,20,19,15,8
-3,11,15,-4,-9,13,0,14,19,18,15,6
-1,11,13,-5,-7,12,0,13,18,17,14,6
0,12,12,-6,-7,12,0,12,17,17,12,7
-4,11,16,-4,-10,14,0,13,18,18,12,10
-8,11,19,-2,-13,15,1,13,18,17,12,13
-7,10,17,-2,-12,14,1,12,17,15,11,15
-5,10,15,-2,-11,13,0,11,16,14,10,15
-5,10,15,-3,-10,13,1,10,15,13,10,15
-5,10,15,-3,-10,13,1,10,14,13,10,15
-6,9,15,-2,-11,12,2,9,14,12,9,14
-6,8,14,-1,-10,11,1,8,13,12,9,13
-5,7,12,-1,-9,10,0,7,11,11,8,10
-4,6,11,-1,-8,9,0,6,10,10,8,7
-6,6,13,0,-10,10,1,6,11,11,9,5
-9,6,16,1,-13,11,2,7,11,11,9,5
-7,6,14,0,-11,10,2,6,10,10,8,5
-6,5,12,0,-9,9,2,4,9,9,7,5
-8,4,13,1,-11,9,2,4,8,8,6,6
-10,3,14,2,-13,9,3,4,8,8,6,7
-8,4,13,1,-11,9,3,4,8,8,5,6
-7,3,11,1,-9,8,2,3,7,7,4,5
-9,3,12,2,-11,8,3,3,7,7,4,5
-10,3,13,3,-11,9,3,3,7,7,5,4
-7,4,12,1,-10,8,3,2,6,6,5,3
-6,4,11,1,-9,7,3,1,5,5,4,2
-7,4,11,2,-10,7,3,1,5,5,4,2
-7,4,10,1,-9,7,3,1,4,5,4,1
-6,4,10,1,-8,7,4,1,4,5,4,0
-7,3,11,2,-9,8,4,2,4,5,5,-1
-9,2,12,3,-11,8,4,2,4,4,4,-1
-9,1,11,4,-10,6,3,1,3,3,3,-1
-8,0,9,3,-9,5,3,0,2,1,1,-1
-8,0,8,3,-8,4,3,0,1,0,0,0
-8,0,8,4,-8,4,3,-1,0,0,-1,1
-7,1,8,3,-8,5,3,0,0,0,-1,2
-7,2,9,2,-8,6,4,0,1,1,0,3
-7,2,10,2,-9,6,4,0,1,1,0,2
-7,1,9,3,-8,5,4,-1,0,0,0,1
-7,0,8,3,-8,5,3,-1,0,0,-1,0
-7,0,8,3,-8,5,3,-1,0,0,-1,-1
-8,0,8,3,-9,5,4,-1,0,0,0,-1
-9,0,8,4,-10,5,4,0,0,0,0,-1
-8,0,7,4,-9,4,4,0,0,0,0,-1
-7,0,6,3,-8,4,3,-1,0,-1,0,-1
-7,0,6,4,-7,3,3,-1,0,-1,0,-2
-8,-2,6,5,-8,3,3,-1,-1,-1,0,-3
-9,-3,6,6,-8,2,3,-2,-1,-2,-1,-4
-9,-3,6,6,-7,1,3,-2,-1,-2,-1,-5
-10,-2,7,6,-9,3,4,-1,0,-1,0,-4
-12,-1,11,6,-12,5,5,1,1,0,0,-2
-12,0,11,7,-12,5,6,1,1,0,1,0
-9,-1,8,6,-9,4,5,0,0,0,0,-2
-7,-1,6,5,-6,2,4,-1,0,-1,0,-6
-9,-1,8,5,-8,3,4,0,0,0,1,-9
-14,-1,13,7,-14,6,6,2,2,1,4,-10
-15,-1,13,7,-14,7,6,3,2,1,4,-9
-11,-1,9,5,-11,5,5,2,1,0,1,-9
-9,-2,7,4,-8,3,4,1,0,-1,0,-9
-8,-2,6,4,-7,2,4,0,0,-2,-2,-10
-7,-2,4,4,-6,2,3,0,-1,-3,-3,-11
-7,-3,4,5,-6,1,3,-1,-2,-4,-4,-10
-10,-3,7,7,-8,2,4,0,-1,-4,-5,-7
-13,-3,10,8,-12,4,5,1,0,-3,-5,-3
-14,-2,12,8,-13,5,6,2,0,-3,-5,0
-13,-2,11,8,-13,5,6,3,0,-3,-6,0
-12,-3,9,7,-12,4,6,2,0,-4,-6,-1
-10,-3,8,7,-10,3,6,2,0,-4,-6,-2
-9,-2,7,6,-9,3,6,2,0,-4,-6,-1
-8,-1,7,5,-8,3,6,2,0,-4,-6,-1
-8,-1,7,5,-8,3,6,2,0,-4,-6,0
-8,-2,5,5,-7,2,6,2,-1,-5,-6,-1
-6,-3,4,4,-6,1,5,1,-1,-5,-7,-2
-8,-2,6,5,-8,2,6,2,0,-4,-6,-3
-14,-2,12,7,-14,6,9,4,1,-2,-3,-2
-16,-2,14,8,-16,7,9,5,2,-1,-3,-3
-13,-2,11,7,-12,5,8,4,2,-2,-4,-5
-10,-1,9,6,-10,4,7,4,1,-3,-4,-7
-9,-1,8,6,-9,3,7,3,1,-3,-5,-9
-9,-2,7,6,-9,3,6,3,1,-3,-5,-11
-10,-2,8,6,-9,3,6,3,1,-3,-5,-12
-9,-2,8,6,-9,3,7,3,1,-3,-4,-12
-9,-2,7,5,-9,3,7,3,1,-3,-4,-11
-9,-2,7,6,-9,2,7,3,1,-3,-5,-10
-10,-3,7,7,-9,2,7,3,1,-4,-6,-9
-11,-4,7,8,-10,2,7,3,1,-4,-6,-8
-12,-5,7,9,-10,1,7,3,1,-4,-6,-8
-12,-5,7,9,-10,1,7,3,1,-4,-7,-8
-12,-5,7,9,-10,1,7,3,0,-4,-7,-7
-11,-4,7,8,-10,1,7,3,0,-4,-7,-7
-10,-3,7,7,-9,2,7,4,0,-4,-7,-8
-10,-3,7,6,-10,2,7,4,0,-4,-6,-8
-12,-3,8,7,-11,3,7,4,1,-3,-6,-9
-11,-3,8,7,-10,3,7,4,1,-3,-6,-9
-9,-2,7,6,-8,2,7,4,1,-3,-7,-10
-10,-2,8,6,-9,3,7,5,2,-2,-7,-9
-14,-2,12,9,-13,4,8,6,3,-1,-5,-8
-16,-3,13,10,-14,4,8,6,3,-1,-5,-9
-14,-3,10,9,-13,3,7,5,2,-2,-5,-11
-15,-4,9,10,-13,2,7,4,2,-3,-5,-12
-15,-5,9,10,-13,1,7,4,2,-2,-4,-12
-14,-4,8,9,-12,1,7,5,2,-2,-4,-12
-12,-3,8,8,-11,2,7,5,2,-1,-3,-13
-10,-2,8,7,-9,2,7,5,3,0,-3,-13
-9,-2,7,6,-8,1,6,5,3,-1,-4,-13
-8,-2,6,6,-7,1,6,5,2,-1,-4,-11
-8,-2,6,5,-7,1,6,5,2,-2,-4,-10
-8,-2,5,5,-7,1,5,5,2,-2,-4,-8
-7,-2,4,4,-6,0,5,4,2,-3,-5,-6
-7,-2,4,4,-6,0,5,4,2,-3,-5,-7
-7,-2,5,5,-6,0,5,4,2,-3,-5,-9
-7,-2,4,5,-6,0,4,4,2,-3,-5,-11
-6,-2,4,5,-5,0,4,4,2,-3,-4,-11
-8,-2,6,6,-7,1,5,5,2,-2,-3,-11
-12,-2,10,8,-11,3,6,6,3,-1,-2,-11
-14,-2,11,9,-13,3,6,6,4,0,-1,-12
-12,-3,8,8,-10,1,5,5,3,-1,-2,-13
-11,-4,6,8,-10,0,5,4,2,-1,-2,-12
-12,-3,8,9,-11,1,6,5,3,0,-2,-10
-11,-2,9,8,-10,2,6,5,3,0,-3,-7
-12,-2,10,8,-11,3,6,6,3,0,-4,-5
-13,-3,10,8,-11,2,6,6,3,0,-4,-4
-10,-4,7,7,-8,0,5,4,2,-2,-5,-4
-6,-4,2,5,-4,-2,3,3,0,-4,-6,-4
-4,-3,0,4,-2,-2,3,2,-1,-4,-6,-3
-4,-3,1,4,-3,-1,3,3,-1,-4,-5,-1
-5,-2,2,4,-4,0,4,3,0,-3,-4,0
-4,-1,2,3,-3,0,4,3,0,-3,-4,0
-4,-1,2,3,-3,0,4,2,0,-3,-4,0
-4,-1,2,3,-3,0,4,2,0,-3,-4,-2
-5,-1,4,3,-4,0,4,2,0,-2,-3,-4
-7,-1,5,4,-6,1,4,3,0,-2,-2,-5
-6,-1,3,4,-5,0,3,2,0,-2,-2,-6
-5,-1,2,3,-4,0,3,2,0,-2,-2,-6
-5,0,3,3,-5,1,3,2,0,-2,-2,-5
-5,-1,4,4,-5,1,3,2,0,-2,-3,-4
-5,-2,3,4,-4,0,2,1,-1,-3,-4,-4
-5,-3,2,4,-3,-1,2,0,-1,-4,-5,-4
-6,-3,2,5,-3,-1,2,0,-1,-4,-5,-4
-7,-3,3,5,-5,-1,2,1,-1,-3,-4,-4
-7,-4,2,6,-5,-1,2,1,-1,-3,-4,-4
-8,-5,2,7,-5,-2,2,0,-2,-4,-4,-5
-7,-5,1,7,-5,-2,2,0,-2,-4,-4,-6
-6,-5,1,6,-4,-2,2,0,-2,-4,-4,-6
-5,-4,1,5,-4,-2,2,0,-2,-4,-4,-7
-5,-4,2,4,-4,-2,2,0,-2,-4,-4,-7
-5,-4,1,4,-3,-2,1,0,-3,-5,-4,-7
-4,-4,0,3,-2,-3,1,-1,-3,-5,-4,-7
-3,-2,0,2,-1,-2,1,0,-3,-5,-4,-6
-3,-2,1,2,-2,-1,2,0,-2,-4,-4,-5
-2,-2,1,2,-2,-1,2,0,-3,-5,-3,-5
-2,-2,0,2,-2,-1,1,0,-3,-5,-3,-7
-2,-2,1,2,-2,-1,1,0,-3,-5,-3,-10
-2,-2,1,2,-2,-1,1,0,-3,-5,-2,-12
-2,-2,1,2,-2,-1,1,-1,-3,-4,-2,-13
-2,-2,1,2,-2,-1,1,-1,-3,-4,-2,-12
-4,-2,2,3,-3,-1,2,-1,-2,-3,-1,-10
-6,-2,4,4,-6,0,3,0,-2,-2,0,-8
-10,-3,7,6,-10,2,4,1,-1,-1,0,-5
-9,-3,6,6,-9,1,3,0,-1,-2,-1,-4
-4,-3,1,4,-4,-1,1,-1,-3,-4,-3,-4
-3,-4,0,4,-2,-2,1,-1,-4,-5,-4,-3
-4,-4,0,4,-2,-2,1,-1,-4,-5,-5,-1
-4,-4,0,4,-2,-1,1,-1,-4,-5,-5,-1
-3,-3,0,3,-2,-1,1,-1,-4,-5,-5,-2
-3,-3,0,3,-1,-1,1,-1,-4,-5,-5,-4
-2,-2,0,2,-1,-1,1,-1,-5,-5,-4,-6
-5,-2,2,3,-4,0,1,-1,-4,-5,-3,-6
-7,-2,4,5,-6,1,2,0,-3,-4,-3,-5
-5,-2,2,4,-4,0,1,-1,-4,-5,-4,-4
-1,-2,-2,2,0,-3,0,-3,-6,-7,-5,-5
0,-3,-4,1,2,-4,0,-4,-6,-7,-6,-5
0,-3,-4,2,2,-4,0,-4,-6,-7,-7,-5
-1,-4,-4,2,1,-4,0,-4,-6,-7,-6,-5
-2,-4,-2,3,0,-3,0,-4,-6,-6,-5,-6
-4,-4,-1,4,-1,-3,0,-4,-5,-6,-5,-6
-4,-5,-1,4,-2,-3,0,-4,-5,-6,-5,-6
-4,-5,-1,4,-2,-3,0,-3,-5,-6,-4,-6
-5,-5,0,5,-3,-3,1,-2,-5,-5,-3,-6
-6,-5,0,6,-3,-3,1,-2,-5,-5,-3,-7
-4,-5,-2,5,-1,-4,0,-3,-6,-6,-3,-9
-3,-5,-3,5,0,-5,0,-4,-6,-6,-3,-11
-4,-5,-1,5,-1,-4,0,-3,-6,-6,-3,-10
-4,-5,-1,4,-1,-4,0,-3,-6,-6,-3,-9
-2,-5,-2,3,0,-4,0,-3,-6,-7,-4,-9
-1,-4,-2,2,0,-3,0,-3,-6,-7,-5,-8
0,-3,-3,2,1,-3,0,-4,-7,-7,-6,-7
0,-3,-4,2,1,-4,0,-4,-7,-8,-7,-7
0,-4,-3,2,1,-4,0,-4,-7,-8,-7,-6
-1,-4,-2,3,0,-3,0,-4,-7,-7,-7,-5
-2,-4,-2,3,0,-3,0,-4,-6,-8,-7,-4
-2,-4,-2,3,0,-4,0,-4,-7,-8,-7,-5
-3,-5,-2,4,0,-4,0,-4,-7,-8,-7,-6
-6,-6,0,6,-3,-4,0,-4,-6,-8,-6,-6
-8,-7,0,7,-4,-4,0,-3,-6,-7,-5,-6
-6,-6,0,6,-2,-4,0,-3,-6,-7,-5,-6
-4,-5,-1,4,-1,-4,0,-3,-6,-7,-4,-6
-2,-5,-1,3,0,-3,0,-3,-6,-6,-4,-5
-2,-4,-1,3,-1,-3,0,-3,-6,-6,-4,-5
-2,-3,-1,2,-1,-3,0,-3,-6,-6,-4,-6
0,-2,-2,1,0,-3,0,-3,-6,-7,-4,-7
1,-2,-3,0,1,-3,0,-3,-6,-7,-4,-8
0,-2,-2,1,1,-3,0,-3,-6,-7,-4,-8
-1,-3,-2,2,0,-3,0,-3,-6,-7,-4,-8
-1,-3,-3,2,0,-3,0,-3,-7,-7,-5,-8
0,-3,-4,1,1,-3,0,-4,-7,-8,-6,-8
2,-3,-5,0,3,-4,0,-4,-7,-8,-6,-7
3,-3,-5,0,4,-4,-1,-5,-7,-8,-7,-6
3,-3,-5,0,4,-4,-1,-5,-7,-8,-7,-5
2,-3,-5,1,3,-4,-1,-4,-7,-8,-8,-5
0,-3,-4,2,1,-4,-1,-4,-7,-8,-7,-6
-1,-4,-3,3,0,-4,-1,-4,-7,-7,-6,-6
-2,-4,-3,3,0,-3,0,-3,-6,-7,-5,-6
-3,-4,-1,3,-1,-2,0,-3,-5,-6,-4,-7
-2,-4,-1,3,0,-2,0,-3,-5,-6,-4,-8
1,-3,-4,1,2,-3,0,-4,-6,-7,-4,-9
2,-3,-5,0,3,-4,0,-4,-6,-7,-4,-9
0,-2,-2,1,1,-2,0,-3,-6,-6,-3,-7
-1,-1,0,2,0,-1,1,-3,-5,-5,-3,-8
0,-1,-1,1,0,-1,0,-3,-5,-5,-3,-10
0,0,-1,0,0,0,0,-3,-5,-5,-2,-11
0,1,0,0,0,1,1,-2,-4,-4,-2,-9
0,2,1,-1,-1,2,2,-2,-3,-4,-2,-7
1,2,0,-1,0,2,2,-2,-3,-4,-3,-4
1,2,0,-2,0,2,2,-2,-3,-5,-4,-3
0,2,1,-1,-1,2,2,-1,-3,-5,-4,-2
0,1,1,0,-1,2,2,-1,-3,-5,-4,-2
0,1,0,-1,0,1,2,-1,-3,-5,-3,-3
2,2,-1,-2,1,1,2,-2,-3,-5,-3,-3
2,2,0,-2,1,1,2,-2,-3,-4,-2,-4
1,1,0,-1,0,1,2,-1,-3,-4,-1,-6
-1,-1,0,0,-1,0,1,-1,-3,-4,-1,-7
-3,-2,1,3,-3,0,1,-1,-3,-4,-1,-8
-4,-3,0,3,-3,-1,1,-1,-3,-4,-1,-7
-1,-2,-2,2,0,-2,0,-2,-4,-5,-3,-6
1,-2,-3,1,2,-2,0,-3,-5,-6,-5,-5
1,-2,-4,0,2,-3,-1,-3,-5,-6,-6,-5
2,-2,-5,0,3,-3,-1,-4,-5,-7,-7,-5
3,-2,-5,0,4,-3,-2,-4,-5,-7,-7,-4
5,-1,-7,-2,5,-4,-2,-5,-6,-8,-7,-4
7,-1,-8,-3,7,-4,-3,-6,-6,-8,-7,-5
7,-1,-8,-3,7,-5,-4,-7,-7,-9,-7,-6
4,-1,-6,-1,5,-4,-5,-7,-8,-8,-7,-7
2,-1,-4,0,3,-3,-5,-7,-8,-8,-6,-7
4,0,-4,-2,4,-3,-6,-7,-8,-7,-5,-7
6,0,-5,-4,6,-2,-6,-8,-8,-7,-5,-6
7,1,-6,-5,6,-2,-7,-8,-8,-8,-5,-6
7,1,-5,-5,6,-2,-7,-8,-8,-8,-5,-6
7,1,-5,-4,6,-2,-7,-8,-8,-8,-4,-7
8,1,-7,-4,7,-3,-7,-8,-8,-8,-5,-8
8,0,-8,-4,8,-4,-7,-8,-9,-8,-5,-8
9,0,-9,-4,8,-4,-6,-8,-9,-8,-4,-7
8,0,-8,-4,8,-4,-5,-7,-8,-8,-4,-6
6,0,-7,-2,7,-4,-5,-7,-8,-8,-4,-5
5,-2,-7,-2,6,-4,-5,-7,-8,-8,-5,-5
5,-2,-8,-2,7,-5,-5,-7,-8,-8,-5,-6
4,-2,-6,-1,5,-4,-4,-6,-8,-8,-4,-6
2,-3,-5,0,3,-4,-4,-6,-8,-8,-4,-6
4,-4,-8,0,6,-6,-5,-7,-10,-9,-5,-7
10,-4,-14,-2,12,-9,-7,-9,-12,-12,-7,-10
12,-4,-16,-3,14,-11,-8,-11,-13,-13,-9,-12
11,-4,-16,-3,13,-11,-8,-11,-14,-13,-9,-13
10,-5,-16,-2,12,-11,-8,-11,-14,-13,-10,-15
9,-6,-15,-2,12,-11,-8,-11,-14,-13,-10,-16
10,-4,-15,-3,12,-10,-8,-11,-14,-13,-9,-14
10,-2,-13,-3,11,-8,-7,-10,-12,-12,-8,-11
10,-2,-12,-3,11,-7,-6,-10,-12,-12,-8,-7
9,-2,-12,-3,10,-7,-6,-9,-12,-12,-8,-4
8,-1,-10,-2,9,-6,-5,-8,-11,-11,-8,-2
6,-1,-8,-2,7,-5,-3,-6,-10,-10,-8,-2
6,-2,-8,-2,7,-6,-3,-6,-11,-11,-8,-3
8,-3,-12,-3,10,-8,-4,-7,-12,-12,-9,-5
8,-3,-13,-3,11,-9,-4,-8,-12,-12,-9,-8
5,-4,-11,0,7,-8,-3,-7,-11,-11,-8,-9
3,-6,-11,1,6,-8,-3,-7,-11,-11,-8,-11
6,-7,-14,0,9,-10,-4,-9,-13,-13,-10,-13
4,-8,-13,2,8,-10,-4,-9,-13,-13,-11,-13
0,-9,-11,4,5,-10,-4,-8,-13,-13,-12,-12
1,-10,-12,4,6,-10,-5,-9,-14,-14,-13,-11
4,-9,-13,2,8,-11,-5,-10,-15,-15,-13,-10
5,-8,-14,1,9,-11,-5,-10,-15,-16,-13,-9
7,-8,-15,0,11,-11,-5,-10,-15,-16,-14,-9
8,-8,-17,0,12,-12,-6,-10,-15,-16,-14,-11
8,-7,-17,0,12,-12,-6,-10,-15,-16,-13,-12
10,-7,-17,0,13,-12,-6,-10,-15,-16,-13,-14
12,-6,-18,-2,15,-12,-6,-10,-15,-16,-12,-14
11,-5,-17,-3,14,-11,-5,-9,-14,-15,-11,-13
9,-5,-14,-2,12,-9,-4,-8,-12,-13,-10,-12
9,-5,-14,-2,11,-10,-4,-8,-12,-13,-11,-12
10,-6,-16,-2,13,-11,-5,-9,-13,-14,-12,-13
10,-6,-17,-2,13,-12,-5,-9,-13,-14,-12,-13
8,-6,-15,0,11,-11,-4,-8,-12,-13,-11,-12
6,-7,-13,1,9,-10,-3,-8,-12,-13,-11,-11
5,-8,-13,2,9,-11,-4,-8,-12,-13,-12,-11
6,-8,-14,1,10,-11,-4,-9,-13,-14,-12,-11
7,-9,-15,1,11,-12,-5,-9,-13,-14,-13,-12
8,-9,-16,0,12,-12,-5,-9,-13,-14,-13,-13
8,-8,-17,0,13,-12,-5,-9,-13,-14,-13,-13
9,-7,-17,-1,13,-12,-4,-9,-13,-14,-13,-13
10,-6,-17,-2,13,-11,-4,-8,-13,-14,-13,-13
9,-5,-17,-1,12,-11,-4,-8,-13,-14,-14,-13
9,-6,-16,-1,12,-11,-4,-7,-14,-15,-15,-14
9,-7,-17,0,12,-12,-3,-6,-15,-18,-17,-17
8,-10,-18,1,13,-14,-1,-5,-16,-22,-21,-21
7,-12,-19,2,12,-15,0,-2,-17,-26,-26,-26
5,-14,-19,4,11,-16,2,0,-17,-29,-29,-31
3,-14,-17,5,9,-15,4,3,-15,-29,-30,-36
0,-13,-14,6,7,-14,6,6,-11,-27,-29,-41
-2,-12,-11,7,4,-12,8,10,-5,-22,-25,-43
-1,-9,-8,5,3,-9,7,12,1,-15,-18,-40
4,-4,-8,0,5,-6,5,13,8,-7,-10,-30
10,0,-9,-5,9,-4,0,11,14,2,-1,-16
16,5,-10,-10,12,-2,-4,9,20,14,8,0
21,11,-10,-16,15,0,-9,7,27,29,22,16
28,18,-10,-23,18,4,-15,5,36,49,41,34
38,27,-11,-32,23,8,-22,1,44,73,64,54
46,37,-10,-41,27,13,-29,-6,52,100,90,76
54,47,-8,-50,30,19,-37,-16,57,128,117,99
64,55,-9,-59,36,22,-46,-29,56,151,141,122
76,62,-14,-69,44,24,-57,-46,49,168,160,142
87,67,-19,-77,52,24,-68,-64,39,181,175,160
92,70,-21,-81,57,24,-77,-81,27,188,185,176
95,69,-25,-83,60,22,-85,-98,9,183,190,187
99,68,-32,-84,65,18,-93,-115,-16,164,185,191
103,66,-37,-84,70,14,-98,-132,-42,138,173,188
101,66,-37,-83,68,14,-100,-148,-65,111,158,181
93,65,-29,-78,60,17,-99,-160,-85,83,141,170
80,63,-19,-71,49,22,-94,-171,-105,49,118,152
66,57,-9,-62,37,24,-86,-179,-125,12,89,128
54,50,-4,-52,29,23,-77,-184,-144,-24,60,102
42,40,-2,-41,22,19,-68,-184,-157,-53,33,77
32,29,-3,-30,18,13,-58,-177,-162,-73,10,56
25,19,-5,-21,16,7,-49,-164,-159,-84,-8,38
20,12,-7,-15,14,3,-43,-150,-150,-88,-21,25
17,8,-9,-11,13,0,-40,-137,-139,-88,-29,16
16,5,-11,-9,13,-3,-38,-123,-126,-84,-34,8
14,2,-12,-8,13,-5,-36,-109,-112,-78,-36,2
11,0,-11,-5,11,-6,-32,-93,-98,-71,-36,-2
6,-2,-8,-2,8,-5,-28,-79,-84,-63,-36,-6
4,-3,-7,0,6,-5,-23,-65,-71,-55,-34,-11
3,-3,-6,1,5,-5,-19,-53,-59,-48,-32,-15
2,-3,-5,1,4,-5,-15,-43,-49,-41,-28,-17
3,-2,-5,0,4,-4,-13,-34,-40,-35,-25,-18
3,-2,-5,0,4,-4,-10,-26,-31,-30,-22,-19
3,-2,-5,0,4,-3,-8,-19,-23,-25,-19,-20
1,-3,-5,1,3,-4,-5,-12,-17,-21,-17,-19
1,-4,-6,2,3,-4,-3,-6,-12,-19,-16,-16
2,-3,-6,0,5,-4,-1,-2,-9,-16,-15,-13
4,-2,-7,0,6,-4,0,0,-7,-15,-14,-11
4,-3,-8,0,6,-5,1,2,-6,-14,-14,-11
4,-4,-8,0,6,-7,1,2,-5,-14,-13,-12
3,-5,-9,1,6,-8,2,3,-4,-14,-13,-13
4,-6,-10,1,7,-9,2,3,-4,-14,-13,-14
3,-7,-11,2,7,-9,2,4,-3,-14,-14,-15
0,-7,-8,3,4,-8,2,5,-2,-13,-13,-13
-3,-7,-5,5,1,-6,3,6,0,-11,-12,-12
-4,-7,-3,5,0,-5,3,7,0,-10,-12,-13
-4,-7,-2,6,0,-5,3,8,1,-10,-11,-14
-3,-7,-3,5,0,-5,3,8,1,-9,-11,-14
-2,-7,-4,5,1,-5,4,8,1,-9,-11,-14
-1,-7,-5,5,1,-5,4,8,2,-9,-11,-13
-2,-7,-5,5,1,-5,4,9,2,-9,-11,-12
-4,-7,-4,5,0,-5,4,10,3,-9,-11,-11
-5,-7,-2,5,-1,-4,4,11,4,-8,-11,-10
-5,-6,-1,5,-1,-4,5,11,4,-8,-10,-9
-3,-6,-3,4,0,-5,5,11,4,-8,-11,-10
-2,-7,-5,4,2,-6,5,11,3,-9,-11,-11
-3,-8,-4,6,0,-6,6,11,4,-8,-11,-11
-5,-8,-2,7,-2,-5,7,12,5,-7,-10,-11
-7,-8,-1,8,-4,-4,7,13,5,-6,-10,-13
-7,-8,-1,8,-4,-5,7,13,5,-6,-9,-15
-5,-8,-3,7,-1,-6,6,12,5,-6,-10,-15
-3,-8,-5,6,0,-6,5,12,4,-7,-10,-14
-6,-8,-2,8,-2,-6,6,13,5,-6,-10,-12
-9,-9,0,10,-4,-5,6,13,5,-6,-9,-12
-8,-9,0,9,-4,-5,6,13,5,-6,-9,-13
-7,-8,-1,8,-3,-5,6,13,6,-6,-9,-14
-8,-8,0,9,-5,-4,7,14,6,-5,-9,-14
-7,-8,-1,8,-4,-5,6,14,6,-6,-9,-15
-4,-8,-5,6,0,-6,5,13,6,-7,-11,-16
-4,-8,-5,5,0,-7,5,13,6,-7,-12,-16
-5,-8,-3,6,0,-6,6,14,6,-6,-11,-15
-6,-8,-2,7,-1,-5,6,14,7,-6,-10,-14
-6,-8,-2,7,-1,-5,6,14,7,-6,-10,-12
-7,-9,-2,8,-2,-5,6,14,7,-6,-11,-11
-6,-8,-3,7,-2,-5,6,15,7,-6,-12,-11
-4,-7,-4,6,-1,-5,6,15,7,-6,-11,-12
-4,-6,-4,6,-1,-5,6,15,7,-5,-10,-13
-4,-7,-3,6,-1,-5,6,15,7,-5,-10,-14
-5,-8,-3,7,-1,-5,6,15,7,-5,-10,-14
-6,-8,-2,7,-2,-5,6,16,8,-5,-10,-13
-7,-8,-2,7,-2,-5,6,16,8,-5,-10,-12
-6,-8,-2,7,-2,-5,7,16,8,-5,-10,-12
-6,-8,-2,7,-3,-4,7,16,9,-5,-9,-11
-8,-8,0,8,-5,-3,8,17,10,-4,-9,-10
-10,-8,2,9,-7,-2,8,18,10,-3,-8,-9
-10,-8,2,9,-6,-3,8,18,10,-4,-9,-8
-10,-8,2,9,-6,-3,7,18,9,-5,-9,-9
-12,-9,3,10,-7,-3,8,18,10,-4,-8,-10
-11,-8,2,10,-7,-3,8,19,10,-4,-8,-11
-10,-7,2,8,-6,-2,8,19,11,-3,-7,-11
-10,-7,2,8,-6,-2,8,19,11,-3,-7,-10
-10,-7,2,9,-7,-2,8,19,11,-4,-7,-8
-10,-8,1,9,-6,-3,8,19,11,-4,-8,-7
-10,-8,1,9,-6,-3,7,20,11,-4,-9,-6
-10,-7,2,9,-6,-2,8,21,13,-3,-8,-6
-10,-7,3,9,-6,-1,9,22,14,-2,-7,-6
-11,-7,4,9,-7,-1,9,23,14,-2,-6,-7
-12,-7,6,10,-9,0,10,23,15,-1,-6,-7
-12,-7,5,10,-9,-1,9,23,15,-1,-6,-8
-10,-7,4,9,-7,-1,9,23,15,-1,-6,-10
-9,-6,3,8,-6,-2,8,23,15,-1,-5,-12
-10,-6,3,9,-7,-2,8,24,15,-1,-5,-12
-10,-7,3,9,-6,-2,8,24,16,-1,-5,-11
-9,-7,2,8,-6,-2,8,24,16,-1,-6,-9
-10,-6,4,9,-7,-1,9,25,16,-1,-6,-7
-11,-6,5,9,-8,0,9,26,17,0,-6,-6
-11,-6,6,9,-8,0,9,26,18,0,-6,-7
-11,-6,6,9,-9,0,8,26,18,0,-5,-8
-12,-6,6,9,-9,0,8,27,19,0,-5,-8
-12,-6,6,9,-9,0,8,27,19,0,-5,-7
-12,-6,5,9,-8,0,8,27,19,0,-5,-7
-11,-6,4,8,-7,-1,8,27,19,0,-6,-7
-9,-5,3,7,-6,-1,7,27,19,0,-7,-6
-8,-6,3,7,-6,-1,7,28,19,0,-7,-6
-12,-6,6,9,-9,0,8,29,20,1,-5,-5
-16,-7,9,11,-13,1,8,30,21,2,-4,-5
-16,-6,9,11,-13,1,8,30,22,3,-3,-6
-14,-5,9,9,-12,1,8,31,22,4,-2,-7
-15,-4,10,9,-13,3,9,32,24,5,0,-7
-15,-4,10,9,-13,3,9,33,24,5,0,-8
-12,-5,8,8,-10,1,8,32,24,4,-1,-8
-10,-5,5,7,-8,0,7,32,23,4,-3,-7
-9,-5,5,7,-7,0,7,32,23,4,-3,-5
-9,-5,5,7,-7,0,7,32,22,4,-3,-5
-8,-5,4,6,-6,0,6,32,22,4,-2,-5
-8,-4,4,6,-6,0,6,32,23,5,-1,-5
-9,-2,6,6,-8,2,7,34,24,7,0,-4
-9,-1,8,5,-9,3,7,35,26,8,1,-4
-9,0,8,5,-9,4,7,36,26,9,2,-4
-10,-1,8,5,-9,4,7,36,26,10,2,-4
-10,-1,8,6,-9,3,7,36,26,10,2,-4
-9,-1,8,5,-8,3,7,36,26,10,1,-3
-6,0,7,3,-7,3,7,36,26,10,1,-1
-6,1,8,2,-7,4,7,36,27,10,1,0
-7,2,10,2,-9,6,7,37,27,11,3,1
-8,2,10,2,-10,6,7,37,28,12,4,0
-8,2,9,2,-9,6,6,37,28,12,4,0
-8,2,9,3,-8,6,6,37,27,12,5,0
-8,1,9,3,-9,6,5,37,27,12,5,0
-9,2,10,4,-10,6,5,37,28,13,5,1
-10,2,12,4,-11,7,6,37,28,14,5,3
-9,2,11,2,-11,7,5,37,28,14,5,3
-5,3,8,0,-7,5,3,36,26,13,5,3
-4,3,8,0,-7,6,2,35,26,13,5,4
-7,4,12,0,-10,8,3,36,27,15,8,6
-9,6,14,1,-12,10,4,37,29,16,9,5
-7,7,13,0,-10,10,3,37,29,17,10,4
-4,8,12,-2,-8,10,2,36,28,17,10,4
-4,8,12,-2,-8,10,2,35,28,17,10,6
-6,9,15,-1,-11,12,2,36,28,17,10,9
-6,9,16,-1,-12,12,1,36,28,17,10,12
-4,9,14,-3,-10,11,0,35,27,16,9,13
-2,9,13,-4,-8,11,0,34,26,16,10,14
-4,10,14,-3,-9,12,0,34,27,17,11,14
-6,11,16,-2,-11,14,1,35,28,18,13,15
-7,11,18,-2,-13,15,2,35,29,20,14,16
-6,11,17,-2,-12,14,2,34,28,20,15,15
-5,11,16,-3,-11,13,0,33,27,19,15,13
-6,10,16,-2,-12,13,0,32,27,19,15,10
-7,10,17,-1,-13,13,0,32,27,19,16,10
-7,10,18,-1,-13,14,-1,31,27,19,16,12
-8,10,18,-1,-14,14,-1,31,27,19,16,14
-7,10,18,-1,-13,14,-1,30,26,19,15,15
-5,11,17,-2,-12,14,-2,29,25,18,14,15
-5,12,18,-3,-12,15,-1,29,26,19,15,15
-7,12,20,-2,-14,16,-1,28,26,19,15,15
-9,12,21,-1,-15,16,-2,28,26,19,15,15
-10,11,21,0,-16,16,-2,27,25,19,15,16
-10,11,21,0,-16,16,-2,26,25,19,15,17
-9,12,21,-1,-15,16,-1,26,25,19,15,17
-7,13,20,-3,-14,16,-1,25,25,19,15,16
-5,13,18,-4,-12,15,-1,24,24,18,15,14
-4,13,17,-4,-11,14,-2,23,23,17,15,13
-6,12,18,-3,-12,15,-1,22,22,17,15,13
-7,12,19,-2,-14,15,-1,21,22,17,15,14
-7,12,19,-2,-13,15,-2,20,22,17,14,14
-8,12,20,-1,-14,15,-2,20,22,17,14,15
-10,11,21,0,-16,16,-1,19,22,17,14,17
-11,10,21,1,-16,15,-1,19,22,17,14,17
-12,9,21,1,-17,15,-1,18,21,17,15,18
-13,9,22,2,-18,15,-1,18,21,17,15,17
-13,9,23,2,-18,15,0,17,21,17,15,16
-13,9,22,1,-18,15,0,16,21,16,15,16
-11,10,21,0,-17,16,0,15,20,16,15,15
-11,10,21,0,-16,16,0,14,20,16,14,15
-12,9,21,1,-17,16,0,14,19,16,14,15
-13,8,21,2,-17,15,0,13,18,15,13,14
-11,7,19,2,-15,13,0,12,17,13,12,13
-10,6,17,2,-14,11,0,10,16,11,11,12
-10,6,17,2,-14,11,0,10,16,11,10,11
-11,6,17,2,-14,11,0,9,15,11,10,10
-12,6,18,2,-15,12,0,9,15,11,10,10
-13,6,19,3,-16,12,0,8,15,11,10,9
-13,6,19,3,-16,12,0,8,15,11,10,8
-11,5,16,2,-14,11,0,6,14,10,9,5
-9,5,13,2,-12,9,0,5,13,8,8,3
-12,4,15,4,-14,10,0,5,13,9,8,3
-18,2,20,8,-20,11,2,6,13,10,8,5
-20,1,21,9,-21,11,2,6,13,9,7,7
-19,0,19,9,-20,10,2,5,11,7,6,8
-19,0,19,9,-19,9,1,4,10,6,6,8
-19,0,19,10,-20,9,1,4,10,6,6,7
-18,0,19,9,-19,9,1,4,10,6,6,6
-16,1,17,7,-17,9,2,4,10,5,6,6
-13,2,16,6,-15,9,2,4,10,5,5,6
-14,2,17,6,-16,9,3,4,9,5,4,8
-19,1,20,8,-20,10,4,4,10,6,5,10
-20,0,20,9,-20,10,4,4,9,5,4,9
-18,0,17,9,-18,8,3,3,7,3,3,7
-17,-1,15,9,-17,7,2,2,6,2,2,5
-18,-2,16,10,-17,7,3,2,6,2,3,4
-18,-1,16,10,-17,8,4,2,7,3,4,3
-18,-1,16,9,-17,8,4,3,8,4,4,1
-18,-1,16,10,-17,7,4,2,7,3,4,0
-19,-1,18,10,-19,8,5,2,6,3,3,0
-21,-1,20,11,-20,8,5,2,6,3,3,0
-20,-1,19,10,-19,8,5,2,6,2,2,1
-18,0,17,9,-17,8,4,1,5,1,1,2
-18,0,17,9,-17,8,4,1,5,1,0,3
-18,-1,17,9,-17,8,4,1,5,1,0,3
-18,-1,16,10,-17,7,4,1,5,0,0,2
-18,-2,16,10,-17,6,4,1,4,0,0,2
-18,-2,16,10,-17,6,5,1,4,0,0,2
-17,-2,15,9,-16,6,5,0,4,0,-1,2
-15,-2,13,8,-14,5,4,0,3,-1,-1,1
-14,-2,12,8,-13,4,4,0,2,-2,-2,1
-15,-2,13,8,-14,5,4,0,3,-2,-1,0
-18,-2,15,10,-16,6,5,0,3,-1,0,-1
-20,-2,17,12,-19,7,5,1,4,0,0,-3
-23,-3,19,13,-21,7,6,1,5,0,0,-4
-24,-4,20,14,-22,7,6,2,5,0,1,-4
-24,-4,19,14,-21,7,6,1,4,0,0,-3
-22,-5,16,13,-19,5,5,1,3,-1,-1,-2
-20,-6,14,13,-17,4,5,0,2,-3,-2,-1
-19,-7,12,13,-16,3,4,-1,1,-4,-3,-1
-19,-6,12,12,-15,3,4,-1,1,-4,-4,-1
-21,-5,15,13,-18,4,5,0,2,-3,-3,-1
-24,-5,18,14,-21,6,7,1,3,-3,-3,0
-24,-5,19,14,-21,7,7,1,3,-3,-3,0
-21,-4,17,12,-19,7,7,1,3,-3,-2,0
-19,-3,16,11,-17,6,8,1,3,-3,-2,-1
-18,-3,15,11,-16,6,8,2,3,-3,-3,-1
-19,-3,16,11,-17,7,9,3,4,-2,-3,-1
-20,-2,17,12,-19,8,9,3,5,-1,-2,-2
-21,-2,18,12,-20,8,9,3,5,-1,-3,-2
-23,-3,19,13,-21,8,9,3,6,-1,-4,-2
-22,-3,17,12,-20,7,8,3,5,-2,-5,-3
-19,-4,15,11,-17,6,7,2,5,-3,-5,-4
-20,-4,15,12,-18,6,7,2,5,-3,-5,-7
-22,-5,17,14,-20,6,7,3,6,-3,-3,-9
-24,-5,18,15,-21,6,8,3,6,-2,-3,-12
-27,-6,19,17,-23,6,8,3,7,-2,-3,-12
-28,-7,20,18,-24,6,8,3,7,-2,-3,-10
-27,-7,18,17,-23,5,8,3,6,-3,-5,-6
-27,-8,17,17,-22,5,8,2,5,-4,-7,-3
-26,-7,17,16,-22,5,9,3,5,-4,-7,-2
-23,-6,17,14,-20,5,9,3,5,-4,-7,-2
-21,-5,16,13,-19,5,8,4,5,-4,-6,-3
-20,-5,16,13,-19,5,8,4,5,-3,-6,-6
-21,-5,17,12,-19,6,8,5,5,-3,-5,-8
-23,-4,19,13,-22,7,9,6,6,-2,-3,-9
-26,-4,22,14,-24,9,10,7,7,0,-2,-7
-26,-4,22,14,-25,9,11,7,8,0,-3,-6
-25,-4,21,14,-23,8,11,7,7,-1,-4,-4
-23,-5,18,14,-21,6,10,6,6,-2,-6,-4
-21,-6,15,14,-18,4,9,5,5,-4,-7,-4
-20,-6,15,14,-18,4,9,5,5,-4,-6,-4
-21,-6,16,14,-19,5,9,5,5,-3,-5,-2
-23,-6,17,14,-20,5,9,6,5,-3,-4,-2
-24,-6,18,15,-22,6,9,6,6,-2,-4,-3
-26,-7,18,15,-23,6,9,6,6,-2,-4,-5
-26,-8,18,16,-22,5,9,6,6,-1,-4,-8
-25,-8,17,16,-21,5,9,6,7,-1,-5,-10
-24,-7,17,16,-21,5,9,6,7,-1,-5,-10
-25,-6,18,17,-22,6,10,7,9,0,-4,-8
-25,-5,19,16,-22,7,10,8,9,0,-4,-6
-22,-5,17,14,-20,5,9,7,8,-1,-6,-5
-20,-5,14,12,-17,3,7,6,7,-3,-8,-5
-20,-5,15,12,-17,4,8,6,8,-2,-8,-3
-23,-4,18,13,-21,6,9,8,10,0,-6,-2
-23,-4,19,14,-21,7,10,9,11,0,-5,-2
-22,-4,18,14,-20,7,10,9,11,1,-4,-3
-23,-4,19,15,-21,8,11,9,11,1,-2,-4
-23,-4,19,15,-21,8,11,9,12,1,-2,-5
-20,-4,16,12,-18,6,10,8,11,0,-3,-5
-16,-3,13,10,-14,5,8,7,10,0,-4,-5
-15,-2,12,9,-14,5,7,7,10,-1,-4,-5
-16,-2,13,9,-15,5,7,7,10,0,-4,-5
-21,-3,17,12,-19,7,8,8,11,0,-3,-5
-26,-4,21,15,-23,8,9,9,12,2,-2,-5
-26,-5,21,15,-23,8,8,9,13,2,-2,-5
-24,-5,19,15,-22,7,8,9,12,1,-3,-5
-24,-5,19,15,-22,6,8,9,12,1,-2,-4
-24,-5,18,14,-21,6,7,8,12,1,-2,-4
-22,-6,16,13,-19,4,6,7,11,0,-2,-5
-21,-6,14,13,-18,4,6,6,11,0,-2,-6
-20,-5,15,12,-18,5,6,7,11,1,-1,-5
-19,-3,15,11,-18,6,7,7,12,1,0,-3
-20,-2,17,11,-19,8,8,8,13,2,0,-1
-20,-1,18,11,-19,9,8,8,13,2,0,0
-18,-1,17,10,-18,8,8,8,13,2,0,-1
-17,-1,16,9,-17,8,7,8,13,2,0,-1
-18,-2,15,10,-16,7,7,8,13,2,0,-1
-19,-3,15,11,-17,7,7,8,13,2,0,-1
-21,-3,16,12,-18,7,7,8,13,2,0,-1
-23,-3,18,13,-20,8,7,9,13,3,0,0
-25,-3,21,14,-23,9,8,9,14,3,1,1
-25,-3,22,14,-24,9,8,9,14,4,2,0
-24,-4,20,14,-22,8,7,8,13,3,1,-1
-22,-5,17,14,-20,6,6,7,12,2,0,-2
-22,-5,16,14,-19,5,6,7,12,1,-1,-2
-22,-6,16,14,-19,5,6,6,11,1,-1,-1
-21,-6,15,13,-18,4,6,6,11,1,-1,0
-20,-5,14,12,-17,4,6,6,10,1,-1,0
-20,-4,16,12,-18,6,6,6,10,1,0,1
-21,-3,18,12,-20,7,7,7,11,1,0,3
-21,-3,18,12,-20,7,7,6,11,1,0,3
-19,-3,16,11,-18,7,7,6,10,1,0,3
-16,-2,14,9,-15,6,7,5,10,0,0,2
-14,-1,12,8,-13,6,6,5,10,0,-1,2
-12,0,11,7,-11,5,6,5,10,0,-1,0
-12,-1,11,7,-11,5,5,5,9,0,-1,-1
-15,-2,13,9,-14,6,5,5,8,0,-1,-1
-17,-3,14,10,-16,6,5,5,8,0,0,-1
-18,-3,15,10,-16,5,5,4,8,0,0,-2
-18,-3,15,11,-17,5,5,4,8,0,0,-3
-20,-3,17,11,-18,6,6,5,9,0,0,-3
-21,-3,18,12,-20,8,7,6,9,1,0,-3
-22,-3,19,13,-20,8,7,6,9,2,1,-3
-22,-3,19,13,-20,8,6,6,9,2,0,-4
-21,-4,16,13,-19,6,5,4,8,0,-1,-5
-19,-5,13,12,-16,4,4,3,6,-1,-2,-6
-20,-5,14,13,-17,4,4,3,6,-1,-2,-5
-23,-6,17,15,-21,5,5,4,7,0,-1,-3
-24,-5,18,15,-22,6,5,4,8,0,-1,-3
-21,-4,15,13,-19,5,5,4,8,0,-1,-4
-18,-4,13,11,-15,5,4,3,7,-1,-2,-3
-17,-3,13,10,-15,6,5,3,7,-1,-1,0
-16,-2,14,9,-15,7,5,3,7,-1,-1,3
-16,-1,14,9,-15,7,5,3,7,-1,-2,4
-16,-2,14,9,-15,6,5,3,6,-2,-2,5
-18,-2,14,10,-16,6,5,3,6,-2,-3,5
-18,-3,14,11,-17,5,5,3,7,-2,-3,6
-19,-2,15,11,-17,6,6,4,8,-1,-2,5
-20,-2,17,11,-19,7,6,5,9,0,0,3
-21,-3,18,12,-20,7,6,5,10,0,1,0
-19,-5,15,12,-17,5,5,4,8,-1,0,-3
-16,-5,12,11,-14,3,5,2,7,-1,0,-2
-19,-4,15,12,-17,5,6,4,8,0,0,1
-22,-4,17,13,-20,6,7,5,8,0,-1,2
-20,-5,13,12,-17,4,6,3,7,-1,-3,0
-16,-5,9,10,-13,2,4,2,6,-3,-4,0
-16,-5,10,10,-13,3,4,2,7,-2,-3,0
-16,-5,11,11,-14,3,5,3,7,-2,-2,0
-16,-5,11,11,-14,3,5,3,7,-2,-2,0
-17,-4,13,10,-15,4,5,3,8,-1,-1,1
-16,-3,13,10,-15,5,6,4,8,0,0,1
-15,-3,12,9,-14,4,5,3,7,0,-1,0
-17,-3,13,10,-16,5,5,3,7,0,-1,1
-22,-3,17,13,-20,7,7,5,8,1,0,2
-22,-3,17,13,-20,6,7,5,8,0,-1,2
-18,-4,12,12,-16,4,5,3,7,-1,-2,0
-16,-5,10,10,-13,2,4,2,7,-2,-3,-1
-16,-7,9,11,-12,1,4,2,6,-2,-3,-4
-17,-8,8,12,-12,0,3,2,6,-2,-3,-7
-18,-9,9,13,-14,0,4,2,7,-2,-2,-8
-20,-9,11,14,-15,1,4,2,7,-2,-2,-7
-19,-7,11,13,-16,2,4,2,7,-2,-2,-4
-19,-5,13,12,-16,3,5,3,7,-2,-2,0
-18,-4,13,11,-16,4,6,3,7,-2,-2,2
-17,-5,12,11,-15,4,6,3,7,-2,-3,2
-17,-5,12,11,-15,3,6,3,7,-2,-3,1
-18,-5,13,11,-16,4,6,3,8,-1,-3,1
-18,-4,14,11,-17,5,7,4,9,0,-2,1
-17,-4,13,10,-16,5,7,4,9,0,-1,0
-16,-4,11,10,-14,3,6,3,8,0,-1,0
-16,-5,9,10,-13,2,5,3,7,-1,-1,-2
-16,-6,9,11,-13,1,5,2,7,-1,0,-4
-17,-5,11,11,-14,2,5,3,7,-1,1,-5
-19,-5,13,12,-16,3,6,3,8,0,1,-5
-21,-6,15,13,-18,4,6,3,8,0,1,-4
-21,-6,15,13,-19,5,6,3,8,-1,0,-3
-21,-5,15,12,-19,5,6,4,9,-1,-1,-2
-20,-5,15,12,-19,5,6,4,9,0,-2,-2
-20,-5,14,12,-18,5,6,3,8,0,-2,-1
-18,-5,13,12,-16,4,5,2,7,-1,-3,1
-17,-5,12,11,-15,3,5,2,7,-2,-3,3
-18,-5,13,12,-15,3,5,2,7,-2,-4,3
-18,-6,12,12,-15,3,4,1,7,-3,-4,2
-18,-7,11,12,-14,2,4,1,6,-3,-4,0
-18,-7,11,12,-14,1,4,0,6,-4,-4,-1
-18,-7,10,13,-14,1,3,0,5,-5,-5,-2
-17,-7,9,13,-14,0,3,0,5,-5,-5,-3
-16,-7,9,12,-13,0,3,1,6,-4,-5,-2
-16,-6,9,11,-13,1,4,1,6,-4,-4,-2
-15,-4,11,10,-13,2,5,2,7,-3,-3,-2
-14,-2,12,8,-13,4,6,3,8,-1,-2,-3
-12,0,12,6,-12,5,7,3,9,0,-1,-3
-11,0,11,6,-12,5,7,3,9,0,-1,-3
-13,0,12,7,-13,5,7,4,9,0,0,-2
-17,-1,16,9,-17,7,8,5,11,0,1,-1
-20,-1,18,10,-19,8,9,5,11,1,2,0
-19,-1,17,10,-18,7,8,5,11,1,1,1
-19,-1,17,10,-18,7,8,4,10,0,1,1
-19,-1,17,10,-18,7,8,4,10,0,1,2
-17,-1,14,9,-15,6,7,4,10,0,0,2
-12,-1,10,6,-11,4,6,3,9,-1,-1,0
-8,-1,7,4,-8,2,4,2,8,-1,-2,-1
-8,-1,6,4,-8,2,4,2,9,-1,-2,-2
-10,-1,9,5,-10,4,4,3,10,0,-1,-4
-13,-1,12,6,-13,5,6,4,11,0,0,-4
-15,0,14,7,-15,6,7,4,12,0,0,-4
-15,0,15,7,-15,7,7,4,12,1,1,-4
-16,-1,14,8,-15,6,7,4,12,1,1,-3
-17,-1,14,9,-16,6,7,4,12,1,1,-1
-20,-2,16,11,-19,7,8,5,12,1,1,0
-24,-3,20,14,-23,8,9,6,13,2,1,2
-27,-3,23,16,-26,9,9,6,13,2,1,4
-26,-3,22,15,-25,9,9,6,13,2,0,4
-22,-1,20,12,-22,9,8,5,12,1,0,4
-18,0,18,9,-18,9,7,5,12,1,0,2
-14,1,16,6,-15,8,7,4,11,1,0,0
-12,1,14,5,-13,8,6,4,11,1,1,-3
-11,1,12,5,-12,7,6,3,11,2,1,-5
-12,0,12,6,-12,6,5,3,10,2,1,-4
-12,0,11,6,-12,5,4,2,10,1,1,-4
-12,0,11,6,-11,5,3,2,9,0,0,-4
-12,0,12,6,-12,5,3,1,9,0,0,-3
-13,0,12,6,-13,6,2,1,9,0,0,-2
-12,0,11,6,-12,5,1,0,8,0,0,-1
-11,0,10,6,-11,4,0,0,7,-1,-1,-1
-10,0,10,6,-10,4,0,-1,7,-1,-1,-1
-10,0,10,6,-11,4,0,-1,7,-1,-1,0
-13,0,12,7,-13,5,0,0,7,0,-1,1
-14,0,13,8,-14,5,0,0,7,0,0,2
-13,-1,10,7,-12,3,0,0,7,-1,-1,1
-12,-3,8,7,-10,1,0,-1,6,-1,-1,0
-12,-4,7,7,-9,0,0,-1,6,-2,-2,-1
-12,-5,6,8,-9,0,0,-1,5,-2,-2,-1
-13,-6,6,9,-10,0,0,-1,5,-2,-2,-1
-13,-7,6,10,-10,-1,0,0,5,-2,-2,0
-16,-7,8,11,-12,0,1,0,5,-2,-2,2
-20,-8,11,14,-16,1,2,1,5,-2,-1,3
-18,-7,10,13,-15,0,2,0,5,-3,-2,3
-11,-6,4,9,-9,-1,1,-1,3,-5,-4,1
-8,-6,1,8,-6,-2,0,-1,2,-6,-5,0
-8,-6,1,8,-6,-2,1,-1,2,-6,-5,0
-9,-6,2,8,-6,-1,1,-1,2,-5,-5,0
-8,-6,1,7,-5,-2,1,-2,1,-5,-5,-1
-6,-5,0,6,-3,-3,0,-2,1,-5,-5,-3
-6,-5,0,5,-3,-3,0,-2,1,-5,-4,-6
-8,-5,3,6,-6,-2,1,-1,3,-4,-2,-6
-9,-5,4,7,-7,-1,2,0,4,-3,-1,-5
-11,-6,4,8,-8,-1,3,0,4,-3,-1,-4
-15,-6,8,10,-11,0,4,1,5,-2,-1,-2
-18,-7,11,12,-15,2,5,2,6,-1,0,-1
-18,-8,10,13,-14,1,5,2,6,-2,-1,-3
-17,-8,8,13,-13,0,4,1,4,-3,-3,-3
-17,-9,7,14,-12,-1,3,1,3,-4,-5,-2
-17,-10,6,13,-11,-2,3,0,2,-5,-5,-2
-15,-10,4,12,-10,-3,2,0,1,-6,-6,-1
-15,-10,4,12,-10,-3,3,0,1,-6,-5,-1
-16,-9,5,12,-11,-2,4,1,1,-5,-4,-2
-16,-10,5,12,-11,-2,4,0,1,-6,-4,-3
-16,-11,5,13,-11,-3,3,0,0,-7,-5,-4
-15,-11,4,13,-10,-3,3,-1,0,-7,-6,-4
-13,-10,3,12,-8,-4,3,-1,-1,-7,-7,-4
-10,-8,1,10,-6,-4,3,-1,-1,-7,-7,-5
-8,-8,0,8,-4,-4,3,-1,-1,-8,-7,-5
-7,-8,-1,8,-3,-4,3,-1,-1,-8,-7,-5
-9,-8,0,9,-5,-4,3,-1,0,-8,-7,-4
-15,-8,6,11,-10,-1,5,1,1,-5,-4,-3
-19,-8,10,13,-15,1,7,2,3,-3,-2,-3
-18,-8,9,12,-14,0,6,2,2,-3,-2,-5
-15,-8,6,11,-11,-1,5,1,1,-4,-3,-6
-13,-8,4,11,-8,-3,4,0,0,-5,-4,-7
-12,-9,3,11,-7,-3,3,0,0,-6,-4,-7
-15,-9,4,12,-9,-2,4,0,0,-5,-4,-7
-19,-10,8,14,-13,-1,5,1,0,-4,-3,-5
-19,-10,8,14,-14,-1,4,1,0,-4,-3,-5
-17,-9,6,13,-11,-2,3,0,0,-4,-4,-6
-16,-9,6,12,-11,-2,3,0,-1,-5,-5,-7
-16,-10,6,13,-11,-2,3,0,-1,-5,-5,-8
-14,-10,3,13,-9,-3,2,-1,-2,-6,-6,-8
-14,-11,2,13,-9,-4,2,-1,-3,-8,-8,-8
-15,-12,2,14,-9,-4,3,-1,-3,-9,-9,-7
-15,-13,1,14,-9,-5,4,0,-4,-12,-12,-7
-16,-15,0,15,-9,-7,5,0,-5,-15,-16,-10
-16,-17,-1,16,-7,-8,6,2,-7,-19,-20,-15
-15,-17,-2,15,-6,-9,8,5,-7,-23,-24,-21
-16,-16,0,16,-8,-8,12,9,-4,-24,-25,-25
-18,-15,2,16,-10,-6,15,14,0,-23,-25,-28
-18,-15,2,16,-10,-6,16,17,3,-22,-25,-30
-17,-14,2,15,-10,-6,15,19,8,-17,-22,-30
-15,-11,3,13,-9,-4,13,19,15,-10,-16,-24
-13,-6,6,9,-10,0,10,19,22,0,-6,-13
-10,0,9,5,-10,4,7,18,29,13,7,0
-4,5,9,-1,-7,7,2,15,35,29,22,12
2,11,9,-6,-4,10,-3,12,41,48,40,25
5,18,12,-11,-4,15,-8,10,49,74,65,42
12,27,15,-19,-2,21,-15,5,56,104,93,64
23,37,14,-29,4,25,-24,-5,59,134,122,88
35,47,11,-40,11,29,-34,-17,57,161,149,114
45,54,8,-49,17,31,-45,-32,49,184,174,138
53,60,6,-56,22,33,-55,-48,38,204,195,159
62,64,2,-63,29,33,-66,-65,24,217,211,177
70,65,-5,-67,37,30,-77,-83,5,220,220,191
73,62,-10,-68,42,26,-85,-99,-18,209,221,201
72,59,-13,-66,43,23,-91,-114,-43,187,214,205
69,60,-11,-64,40,24,-92,-126,-65,161,201,202
65,62,-4,-63,34,29,-91,-137,-83,135,186,195
60,63,2,-61,28,32,-88,-147,-102,102,162,180
52,61,9,-56,21,34,-82,-157,-122,61,131,158
41,56,14,-49,13,35,-75,-164,-141,16,97,132
30,48,17,-39,6,32,-66,-168,-157,-27,64,106
19,38,19,-29,0,28,-56,-164,-166,-60,35,81
9,28,18,-19,-4,23,-45,-153,-165,-80,12,59
2,19,16,-10,-7,18,-37,-139,-157,-89,-5,40
-3,12,14,-4,-8,13,-32,-126,-146,-90,-17,27
-6,7,12,0,-9,9,-30,-114,-133,-88,-24,18
-9,2,11,3,-11,6,-28,-101,-118,-82,-28,11
-15,-2,13,8,-15,5,-25,-87,-102,-73,-29,6
-20,-5,15,12,-18,4,-20,-73,-86,-63,-28,2
-20,-6,13,13,-17,3,-17,-62,-74,-55,-27,-4
-19,-7,11,13,-15,2,-14,-51,-62,-47,-24,-11
-19,-6,12,13,-15,2,-10,-40,-50,-39,-20,-15
-18,-6,11,12,-14,2,-7,-32,-41,-33,-17,-17
-16,-7,9,11,-13,1,-6,-25,-33,-28,-15,-17
-16,-8,8,11,-12,0,-4,-18,-25,-24,-14,-14
-17,-9,8,13,-13,0,-2,-12,-18,-20,-13,-11
-18,-10,7,14,-13,-2,0,-6,-12,-17,-13,-8
-14,-10,3,12,-9,-4,1,-3,-9,-16,-13,-8
-9,-10,-1,10,-4,-5,2,-1,-7,-14,-13,-9
-9,-10,-1,9,-3,-5,4,1,-4,-13,-12,-10
-11,-10,1,10,-5,-4,5,3,-2,-11,-10,-10
-12,-10,2,11,-7,-4,6,5,0,-10,-9,-9
-12,-10,1,11,-6,-4,7,6,0,-10,-9,-9
-9,-10,-1,10,-4,-6,6,6,1,-10,-10,-9
-8,-10,-2,9,-3,-6,6,6,1,-10,-10,-9
-8,-10,-3,9,-2,-6,6,7,2,-9,-10,-10
-9,-10,-2,10,-3,-6,6,7,2,-8,-10,-11
-11,-10,0,10,-5,-5,7,8,3,-7,-9,-13
-12,-11,0,11,-6,-5,7,9,3,-7,-8,-14
-13,-12,1,12,-6,-5,7,9,3,-6,-8,-14
-13,-12,0,12,-7,-6,7,9,3,-6,-8,-13
-13,-13,0,13,-7,-6,7,9,4,-6,-9,-12
-13,-13,0,13,-6,-7,7,10,5,-6,-10,-11
-12,-13,-2,12,-4,-8,7,10,4,-7,-11,-10
-11,-13,-3,12,-3,-8,7,10,4,-7,-11,-9
-11,-13,-2,12,-3,-7,7,10,4,-7,-11,-8
-11,-13,-3,12,-3,-8,6,10,4,-7,-10,-7
-13,-14,-1,13,-5,-8,6,10,4,-7,-10,-8
-16,-16,0,16,-8,-8,6,10,4,-7,-9,-10
-17,-17,-1,17,-8,-9,6,10,3,-7,-9,-12
-15,-17,-2,16,-7,-10,5,9,3,-6,-9,-13
-16,-15,0,16,-9,-8,7,11,5,-5,-8,-13
-16,-13,1,15,-9,-6,8,12,6,-3,-7,-12
-13,-12,0,12,-6,-6,8,12,6,-3,-8,-12
-11,-12,-1,11,-5,-6,7,12,5,-4,-8,-11
-12,-12,0,11,-5,-5,8,12,5,-4,-8,-10
-11,-11,0,11,-6,-5,8,13,6,-3,-8,-9
-11,-11,0,10,-6,-5,9,13,6,-3,-7,-8
-11,-11,0,11,-6,-5,9,13,6,-3,-7,-8
-11,-11,0,11,-6,-5,9,12,6,-3,-8,-9
-12,-12,-1,12,-6,-6,8,12,6,-3,-8,-8
-13,-12,0,13,-6,-6,8,13,6,-3,-7,-7
-13,-11,1,12,-7,-5,9,14,7,-2,-6,-7
-14,-11,1,12,-8,-5,9,14,7,-2,-6,-8
-15,-12,2,13,-9,-5,10,14,8,-1,-5,-9
-16,-12,4,13,-10,-4,10,15,8,-1,-5,-10
-16,-12,4,14,-10,-4,10,15,8,0,-5,-11
-16,-12,4,14,-10,-4,10,15,7,0,-6,-10
-17,-12,5,15,-12,-3,11,15,8,0,-6,-8
-18,-12,6,15,-12,-3,10,16,8,0,-7,-6
-15,-13,3,14,-9,-5,9,15,7,-1,-8,-6
-11,-13,-1,12,-5,-7,7,13,5,-3,-9,-7
-9,-13,-4,11,-2,-9,6,12,3,-4,-10,-8
-8,-13,-5,10,-2,-9,5,11,3,-4,-11,-9
-8,-14,-5,11,-2,-10,5,11,2,-4,-11,-9
-9,-14,-5,11,-2,-10,5,12,2,-4,-10,-10
-10,-14,-4,12,-4,-9,5,12,3,-3,-10,-10
-10,-13,-3,12,-4,-9,6,13,3,-3,-9,-9
-9,-13,-4,11,-3,-9,6,13,3,-3,-9,-10
-7,-12,-5,10,-1,-9,6,12,3,-3,-8,-12
-6,-12,-6,9,0,-9,6,12,3,-3,-8,-15
-7,-12,-4,10,-2,-8,7,13,4,-2,-7,-16
-8,-12,-3,10,-3,-7,7,13,4,-2,-7,-15
-10,-12,-1,11,-5,-6,7,14,5,-1,-7,-12
-14,-11,3,12,-9,-4,9,16,7,1,-6,-8
-17,-10,6,13,-12,-2,10,18,9,2,-5,-6
-18,-11,7,14,-13,-2,10,18,9,3,-5,-6
-18,-11,7,14,-12,-2,10,19,10,3,-4,-7
-16,-10,5,13,-10,-2,10,19,10,3,-4,-10
-12,-10,2,12,-7,-4,10,18,9,3,-4,-12
-10,-11,-1,10,-4,-6,8,17,8,2,-5,-13
-8,-11,-3,9,-2,-6,7,17,7,1,-6,-12
-7,-11,-4,9,-2,-7,7,17,7,1,-7,-10
-7,-11,-4,9,-1,-7,6,17,7,1,-8,-9
-8,-12,-4,9,-2,-8,6,17,7,0,-9,-8
-10,-13,-3,11,-3,-8,6,17,7,0,-9,-8
-12,-14,-1,13,-5,-7,6,17,8,1,-8,-7
-14,-14,-1,14,-6,-8,6,17,8,1,-8,-8
-12,-14,-2,13,-5,-8,6,17,8,1,-8,-10
-8,-12,-4,10,-2,-8,6,18,9,2,-7,-11
-8,-11,-3,9,-3,-6,6,19,10,3,-5,-12
-10,-10,0,9,-5,-5,7,21,11,5,-4,-12
-11,-9,1,9,-6,-4,8,22,13,6,-2,-13
-11,-8,3,9,-7,-3,9,23,14,7,-2,-12
-12,-7,4,9,-8,-2,9,23,14,7,-1,-10
-13,-7,4,10,-9,-1,9,24,15,7,-2,-7
-14,-9,4,11,-10,-2,9,24,15,7,-3,-5
-14,-9,5,12,-10,-2,9,24,15,7,-4,-3
-12,-7,5,10,-9,-2,9,25,15,7,-4,-2
-9,-6,3,8,-6,-2,9,26,15,7,-4,-2
-6,-6,1,6,-4,-3,8,25,15,7,-4,-2
-5,-5,0,6,-3,-3,7,25,15,7,-3,-2
-6,-5,1,6,-3,-2,7,26,15,8,-2,-2
-6,-5,1,6,-3,-2,7,26,16,8,-2,-4
-5,-5,0,6,-2,-3,7,26,16,9,-2,-6
-6,-5,0,6,-3,-3,7,26,16,9,-1,-7
-7,-5,2,7,-5,-1,7,27,18,10,0,-7
-9,-5,4,7,-7,0,7,28,19,11,0,-7
-11,-6,6,8,-9,0,7,29,19,12,1,-7
-12,-6,7,9,-10,0,6,29,19,12,1,-7
-10,-6,4,8,-7,-1,5,28,18,11,0,-6
-8,-5,2,6,-5,-2,4,28,18,11,0,-5
-7,-4,3,6,-5,0,5,28,19,12,0,-3
-7,-2,4,5,-6,1,5,29,19,13,1,0
-5,-1,4,3,-5,1,5,30,19,13,1,1
-2,-1,1,1,-2,0,4,29,18,13,1,0
-1,-1,0,1,0,-1,2,28,18,12,1,0
-1,-1,0,1,0,-1,2,28,18,12,1,0
-4,-1,2,2,-3,0,2,28,18,13,2,0
-7,0,6,4,-6,2,3,29,19,15,4,1
-8,0,7,4,-7,3,4,29,19,16,5,1
-7,0,7,4,-7,3,3,29,19,16,5,1
-6,0,7,3,-6,3,3,29,19,17,6,2
-4,1,5,2,-4,3,2,29,19,17,6,3
-1,1,3,0,-2,2,1,28,19,17,6,3
0,2,2,0,-1,2,0,28,19,17,6,3
0,3,2,-1,-1,2,0,28,19,17,7,3
-1,3,4,0,-3,3,0,28,19,18,8,3
-2,4,5,0,-4,4,0,28,19,19,9,2
-2,4,6,-1,-4,5,-1,28,19,20,10,1
-2,4,7,0,-5,6,-1,28,19,21,11,0
-3,4,8,0,-5,7,-2,27,19,21,11,1
-3,3,7,0,-5,6,-3,26,18,20,11,2
-4,3,8,1,-6,6,-3,26,18,20,11,4
-5,4,10,1,-8,7,-2,26,18,21,11,6
-4,7,10,-1,-7,8,-1,26,19,22,11,8
-3,8,11,-2,-6,9,-1,26,19,22,12,9
-5,8,12,-2,-8,10,0,26,19,23,12,10
-4,8,12,-2,-8,10,-1,26,19,23,12,11
-3,9,11,-3,-7,10,-1,25,19,23,12,12
-2,9,11,-4,-7,10,-1,24,18,23,12,13
0,9,9,-5,-5,9,-2,23,17,22,12,13
2,10,7,-6,-2,8,-3,21,16,21,12,12
3,10,7,-6,-2,8,-4,20,15,20,13,12
2,10,7,-6,-2,8,-5,19,14,20,13,11
0,9,8,-5,-3,9,-5,19,14,20,13,11
0,9,9,-5,-4,9,-5,19,14,20,13,11
-1,9,10,-4,-5,10,-5,19,14,21,14,11
-1,9,10,-4,-6,10,-5,18,14,21,14,10
-2,9,11,-3,-6,10,-5,17,14,21,14,9
-2,8,10,-2,-7,10,-6,16,13,21,14,8
-4,8,11,-1,-8,10,-6,14,13,20,14,7
-3,8,10,-2,-7,10,-7,13,12,20,14,8
0,9,9,-4,-5,9,-7,12,11,19,13,9
-1,9,10,-4,-5,9,-7,12,11,18,13,12
-3,9,12,-3,-8,10,-6,12,11,18,13,13
-3,9,13,-3,-8,11,-6,11,10,18,13,13
-1,10,11,-4,-6,10,-6,10,10,18,13,11
0,10,10,-5,-5,10,-6,9,9,18,13,8
0,10,10,-5,-4,10,-6,8,8,17,13,7
0,9,9,-4,-4,10,-6,7,7,17,13,8
0,9,9,-4,-4,9,-6,6,7,16,12,10
0,9,8,-4,-4,9,-6,5,6,15,10,11
2,9,6,-5,-1,7,-7,4,4,13,9,11
2,8,6,-5,-1,7,-7,3,3,13,8,10
-1,8,8,-3,-4,8,-6,4,4,13,9,11
-1,8,8,-3,-4,8,-6,3,3,13,9,10
0,7,6,-3,-3,7,-6,1,2,11,8,10
-2,6,7,-2,-5,7,-6,0,1,11,9,10
-3,5,7,-1,-5,6,-6,0,0,10,10,10
-4,4,7,0,-6,5,-6,0,0,10,9,9
-6,3,8,1,-7,5,-6,0,0,9,9,8
-6,2,8,1,-7,5,-6,-1,0,9,9,7
-5,2,7,0,-5,4,-6,-2,-1,8,7,6
-6,1,6,2,-6,3,-6,-3,-2,7,6,5
-8,0,7,4,-7,3,-5,-3,-3,6,5,5
-7,0,7,4,-7,3,-5,-4,-3,6,4,5
-4,1,4,1,-4,2,-5,-5,-4,5,4,4
0,2,2,-1,-1,2,-6,-5,-5,5,4,3
-2,2,4,-1,-3,3,-5,-4,-4,6,5,4
-5,2,8,1,-6,4,-3,-3,-3,6,5,5
-6,2,9,2,-7,4,-3,-3,-3,6,5,5
-6,1,7,2,-6,3,-3,-4,-4,5,4,4
-4,1,5,2,-4,2,-3,-5,-5,4,3,3
-3,0,3,2,-3,2,-3,-5,-6,3,3,3
-3,0,2,2,-3,1,-3,-6,-6,3,2,2
-4,-1,2,3,-3,1,-3,-6,-7,2,2,1
-4,-2,2,3,-4,0,-4,-6,-7,2,2,0
-3,-2,1,2,-2,0,-4,-7,-8,1,2,-1
-2,-3,0,2,0,-2,-4,-7,-9,0,1,-2
-2,-3,-1,2,0,-2,-4,-7,-9,-1,1,-4
-5,-3,1,4,-2,-1,-3,-7,-9,-1,0,-4
-7,-3,3,5,-5,0,-2,-6,-9,0,0,-3
-8,-3,3,5,-5,0,-2,-7,-9,-1,0,-1
-6,-4,1,5,-3,-1,-3,-8,-10,-2,-1,0
-5,-4,0,4,-3,-2,-4,-9,-11,-3,-2,0
-6,-5,0,5,-3,-3,-5,-9,-12,-4,-3,-1
-7,-7,0,7,-3,-4,-5,-10,-12,-5,-4,-2
-10,-8,1,9,-6,-3,-4,-9,-12,-5,-4,-1
-13,-8,4,11,-9,-2,-2,-8,-11,-5,-3,0
-13,-8,5,11,-9,-2,-2,-8,-11,-4,-3,0
-12,-8,4,10,-8,-2,-2,-9,-12,-4,-3,-2
-12,-8,4,9,-8,-2,-1,-9,-12,-4,-2,-3
-12,-7,5,9,-8,-1,0,-8,-11,-3,-1,-4
-9,-6,4,7,-6,-1,0,-7,-10,-3,-1,-5
-5,-5,0,5,-2,-2,-1,-8,-11,-4,-2,-5
-3,-4,-1,4,-1,-2,-1,-8,-12,-5,-3,-5
-3,-4,-2,4,0,-3,-1,-8,-12,-6,-4,-5
-3,-4,-2,4,0,-3,-1,-8,-12,-6,-5,-6
-4,-5,-1,5,-1,-3,-1,-8,-12,-6,-6,-8
-6,-5,0,6,-2,-3,-1,-8,-12,-6,-6,-8
-5,-6,-1,5,-2,-4,-1,-8,-12,-6,-6,-8
-4,-6,-2,5,0,-4,-1,-9,-13,-7,-7,-8
-3,-6,-3,5,0,-4,-1,-9,-13,-7,-7,-6
-5,-7,-2,6,-1,-4,-1,-8,-13,-8,-7,-5
-8,-7,0,7,-3,-3,0,-8,-12,-8,-6,-5
-9,-7,0,8,-4,-3,0,-8,-12,-8,-5,-6
-8,-7,0,7,-4,-4,0,-9,-13,-8,-5,-7
-7,-7,-1,7,-3,-4,0,-9,-13,-8,-5,-8
-7,-7,-1,7,-3,-4,0,-8,-13,-8,-5,-7
-7,-7,-1,7,-2,-4,0,-8,-13,-9,-6,-6
-7,-8,-2,7,-2,-5,0,-8,-13,-9,-7,-5
-7,-8,-2,8,-3,-5,0,-7,-13,-9,-7,-7
-8,-9,-1,8,-3,-5,0,-7,-13,-10,-8,-10
-11,-10,0,10,-5,-5,0,-7,-12,-10,-8,-11
-15,-11,3,13,-9,-4,0,-6,-11,-9,-7,-10
-16,-12,3,14,-9,-5,0,-7,-12,-10,-8,-9
-14,-14,0,14,-7,-8,-1,-8,-13,-12,-10,-10
-12,-15,-2,13,-5,-9,-2,-9,-14,-13,-11,-10
-11,-14,-3,12,-5,-9,-1,-8,-13,-13,-11,-10
-10,-14,-3,12,-4,-8,-1,-8,-12,-12,-11,-11
-9,-13,-3,11,-3,-8,0,-7,-11,-12,-10,-12
-8,-11,-2,9,-3,-7,0,-6,-10,-11,-10,-13
-7,-9,-1,8,-3,-6,1,-5,-9,-10,-10,-12
-6,-8,-2,7,-2,-6,2,-5,-9,-10,-10,-11
-5,-8,-3,6,0,-6,2,-5,-9,-11,-10,-11
-7,-8,-1,8,-2,-5,2,-4,-8,-10,-9,-11
-11,-8,2,9,-6,-3,3,-2,-7,-9,-8,-11
-10,-8,2,9,-5,-3,3,-3,-7,-9,-8,-11
-8,-8,0,8,-4,-4,2,-3,-7,-9,-9,-11
-9,-9,0,8,-4,-4,2,-3,-7,-10,-10,-10
-9,-9,0,8,-4,-5,2,-4,-8,-10,-10,-9
-8,-10,-1,8,-3,-6,1,-4,-8,-11,-11,-10
-7,-10,-2,8,-2,-7,1,-4,-9,-11,-12,-11
-8,-10,-2,9,-3,-6,1,-4,-8,-11,-11,-11
-10,-10,0,10,-5,-5,2,-3,-7,-10,-10,-11
-10,-10,0,9,-4,-5,1,-3,-7,-10,-11,-12
-7,-10,-3,8,-2,-7,0,-4,-8,-10,-12,-13
-8,-10,-2,8,-3,-6,1,-4,-7,-10,-11,-12
-9,-10,-1,9,-4,-5,1,-3,-6,-9,-11,-10
-11,-10,0,10,-6,-5,2,-2,-5,-8,-11,-10
-14,-10,4,12,-9,-4,3,-1,-4,-7,-10,-10
-14,-10,3,12,-9,-4,3,-1,-4,-7,-9,-11
-10,-10,0,10,-5,-5,2,-2,-5,-8,-9,-14
-8,-10,-2,9,-3,-6,1,-2,-5,-8,-9,-15
-7,-9,-2,8,-2,-5,1,-2,-4,-7,-9,-15
-7,-9,-2,8,-2,-5,0,-2,-4,-7,-10,-13
-6,-9,-3,7,-1,-6,0,-2,-4,-8,-11,-12
-6,-9,-3,7,-1,-6,0,-2,-4,-8,-11,-10
-6,-8,-3,7,-2,-6,0,-2,-4,-7,-10,-10
-6,-7,-3,7,-2,-6,0,-2,-3,-7,-9,-11
-6,-8,-3,7,-2,-6,0,-2,-3,-7,-8,-12
-6,-8,-3,7,-2,-6,0,-2,-4,-7,-7,-14
-7,-9,-2,8,-3,-6,0,-1,-3,-6,-7,-13
-9,-9,0,8,-5,-4,1,-1,-2,-5,-7,-11
-10,-9,1,9,-6,-4,1,-1,-2,-5,-7,-9
-9,-9,0,9,-5,-5,0,-1,-2,-5,-8,-8
-6,-9,-2,8,-2,-6,0,-2,-4,-6,-9,-9
-4,-9,-5,7,0,-7,-1,-3,-5,-7,-9,-10
-6,-9,-3,8,-2,-6,-1,-2,-4,-6,-8,-9
-8,-8,0,9,-4,-5,0,-1,-2,-5,-6,-9
-9,-8,1,9,-5,-4,0,0,-1,-4,-5,-9
-11,-8,2,9,-7,-3,0,0,0,-3,-5,-9
-10,-9,1,9,-6,-4,0,0,0,-4,-6,-11
-8,-8,0,7,-4,-4,0,0,-1,-4,-6,-11
-8,-6,1,7,-4,-3,0,0,0,-3,-5,-8
-9,-6,1,8,-5,-3,1,0,0,-3,-5,-6
-7,-6,0,7,-3,-3,0,0,-1,-3,-6,-5
-5,-6,-1,6,-1,-4,0,-1,-1,-4,-7,-4
-4,-6,-2,5,0,-4,-1,-1,-2,-5,-7,-5
-4,-7,-2,5,0,-4,-1,-1,-2,-5,-7,-5
-5,-7,-1,5,-1,-4,-1,-1,-2,-5,-7,-5
-5,-7,-1,6,-2,-3,-1,-1,-2,-4,-6,-5
-5,-6,-1,6,-2,-3,-1,-2,-2,-4,-6,-5
-4,-6,-1,5,-1,-3,-1,-2,-2,-4,-6,-6
-5,-5,-1,6,-2,-3,-1,-1,-1,-4,-5,-7
-6,-5,0,6,-3,-3,-1,-1,-1,-3,-4,-7
-5,-5,-1,5,-2,-3,-1,-1,-1,-3,-4,-8
-3,-5,-3,4,0,-4,-2,-2,-2,-3,-5,-9
-2,-6,-4,3,1,-5,-3,-3,-3,-4,-6,-10
-2,-6,-5,4,1,-6,-3,-3,-3,-5,-6,-10
-5,-8,-3,6,0,-6,-3,-3,-4,-6,-6,-8
-10,-9,0,9,-4,-5,-3,-3,-3,-5,-6,-7
-15,-11,3,13,-9,-4,-2,-2,-2,-4,-5,-6
-17,-11,6,14,-11,-3,-2,-1,-2,-3,-4,-5
-15,-9,6,13,-10,-3,-1,-1,-2,-3,-4,-4
-10,-7,4,9,-7,-2,-1,-1,-2,-3,-4,-4
-5,-5,1,5,-3,-2,-1,-1,-2,-3,-4,-3
-2,-3,-1,3,0,-2,-1,-1,-2,-3,-4,-3
-2,-3,-1,3,0,-2,0,-1,-2,-3,-3,-2
-3,-4,-2,3,0,-3,0,-2,-2,-3,-3,-3
-2,-4,-2,3,0,-3,0,-2,-3,-4,-3,-6
-3,-4,-2,4,0,-4,-1,-2,-3,-4,-3,-7
-4,-4,0,5,-2,-3,0,-2,-3,-3,-2,-6
-6,-4,1,6,-4,-3,0,-1,-2,-3,-1,-5
-6,-4,1,5,-4,-2,0,-1,-2,-3,-2,-4
-6,-4,1,5,-3,-2,0,-1,-2,-3,-3,-4
-5,-4,0,5,-2,-3,0,-2,-3,-4,-4,-5
-6,-5,0,6,-2,-3,0,-2,-3,-4,-4,-5
-7,-6,0,7,-3,-3,0,-2,-3,-4,-4,-5
-6,-7,-1,7,-2,-4,-1,-3,-4,-5,-4,-7
-5,-7,-2,6,-1,-5,-2,-4,-4,-5,-5,-10
-7,-8,-1,7,-2,-5,-2,-4,-5,-5,-5,-11
-7,-8,-1,7,-2,-5,-2,-4,-5,-5,-5,-11
-4,-7,-2,5,-1,-5,-2,-4,-5,-5,-5,-9
-4,-5,-1,4,-1,-4,-1,-3,-5,-5,-5,-7
-5,-5,-1,5,-1,-3,-1,-2,-5,-5,-5,-5
-4,-5,-1,5,-1,-3,-1,-2,-5,-5,-5,-3
-5,-5,0,5,-2,-2,0,-2,-5,-6,-4,0
-8,-5,2,7,-5,-2,0,-2,-4,-6,-4,2
-9,-6,3,8,-6,-2,-1,-2,-5,-6,-5,2
-9,-6,2,7,-5,-3,-1,-3,-5,-7,-6,2
-9,-7,2,7,-5,-3,-1,-3,-5,-6,-6,1
-10,-7,3,8,-7,-2,-1,-2,-4,-6,-5,0
-11,-7,4,9,-7,-1,0,-2,-4,-5,-5,0
-9,-6,3,8,-6,-1,0,-2,-4,-5,-5,0
-6,-5,0,6,-2,-3,0,-3,-5,-6,-5,-3
-5,-5,0,6,-2,-3,0,-3,-5,-6,-5,-4
-7,-5,1,6,-3,-3,0,-3,-5,-6,-5,-4
-6,-5,0,6,-3,-3,0,-3,-5,-6,-5,-4
-6,-6,0,5,-2,-4,0,-3,-5,-6,-5,-5
-8,-6,1,7,-4,-3,0,-3,-5,-6,-5,-5
-10,-8,2,9,-6,-3,0,-3,-6,-6,-6,-5
-11,-10,2,10,-6,-4,-1,-4,-6,-7,-7,-7
-12,-10,1,11,-6,-4,-1,-4,-6,-7,-7,-8
-11,-9,1,10,-6,-4,-1,-3,-6,-6,-7,-7
-10,-7,1,8,-5,-3,-1,-3,-5,-6,-6,-6
-10,-6,3,8,-6,-2,0,-2,-5,-5,-6,-5
-11,-6,4,8,-7,-1,0,-2,-4,-5,-5,-4
-10,-6,4,8,-6,-1,0,-2,-4,-5,-5,-4
-9,-6,3,8,-5,-2,0,-2,-5,-5,-5,-4
-9,-6,3,8,-6,-1,1,-2,-4,-5,-4,-3
-10,-5,5,8,-7,0,2,-1,-3,-5,-3,-2
-10,-4,6,7,-8,1,2,0,-2,-4,-2,-1
-9,-3,6,6,-8,1,2,0,-2,-3,-2,0
-8,-3,5,5,-6,0,2,-1,-3,-3,-2,-1
-10,-4,5,6,-7,0,2,-1,-3,-3,-1,-3
-12,-4,7,7,-9,0,2,0,-2,-3,-1,-6
-10,-5,5,7,-7,0,2,-1,-3,-4,-1,-8
-9,-5,4,6,-6,0,2,-1,-3,-4,-1,-8
-11,-5,6,7,-8,0,2,0,-2,-4,-1,-4
-11,-5,6,7,-8,1,2,0,-2,-4,-1,-2
-8,-5,3,6,-5,-1,1,-1,-4,-5,-3,-3
-6,-5,1,5,-4,-2,0,-2,-4,-6,-4,-5
-7,-5,2,6,-5,-2,0,-2,-4,-6,-4,-5
-9,-5,2,7,-6,-2,0,-2,-5,-6,-4,-4
-11,-6,3,8,-7,-2,1,-2,-5,-6,-5,-1
-12,-7,4,10,-8,-2,1,-2,-5,-6,-6,1
-12,-8,3,10,-7,-3,0,-3,-6,-7,-7,0
-11,-9,2,10,-6,-3,0,-3,-6,-7,-7,-2
-11,-8,2,9,-7,-2,0,-2,-5,-6,-6,-2
-9,-7,2,8,-6,-2,1,-2,-5,-6,-6,-3
-7,-7,1,7,-4,-3,1,-2,-5,-6,-6,-3
-6,-6,0,5,-3,-2,1,-2,-5,-6,-6,-4
-6,-5,1,4,-3,-2,1,-2,-5,-6,-5,-4
-5,-4,1,4,-3,-1,1,-2,-5,-6,-4,-4
-5,-3,1,4,-3,-1,1,-1,-4,-6,-4,-4
-6,-4,2,4,-4,-1,1,-1,-4,-5,-3,-5
-8,-4,4,6,-6,-1,2,-1,-4,-5,-3,-5
-10,-4,5,7,-8,0,2,-1,-4,-5,-3,-4
-12,-4,7,8,-10,1,2,0,-3,-5,-2,-2
-12,-4,8,8,-10,1,3,0,-3,-5,-2,-1
-11,-4,7,8,-9,0,2,-1,-4,-5,-3,-1
-10,-4,6,7,-8,0,2,-1,-4,-5,-4,0
-8,-4,4,6,-6,0,2,-2,-4,-6,-4,-1
-6,-4,2,5,-4,0,2,-2,-4,-6,-4,-3
-6,-3,2,4,-4,0,1,-2,-4,-6,-4,-4
-7,-3,3,4,-5,0,1,-2,-4,-5,-4,-4
-8,-3,4,5,-6,0,1,-2,-4,-5,-3,-4
-8,-3,5,5,-6,0,1,-2,-4,-5,-3,-4
-9,-3,6,6,-7,0,1,-1,-3,-5,-3,-3
-11,-4,6,7,-8,0,1,-1,-3,-5,-3,-3
-12,-5,7,9,-9,0,1,-1,-3,-5,-3,-3
-13,-5,8,10,-10,1,2,-1,-3,-5,-3,-3
-13,-4,8,9,-10,2,3,0,-2,-5,-3,-2
-12,-4,8,9,-10,2,3,0,-2,-5,-3,-2
-13,-3,10,8,-11,3,4,0,-1,-4,-2,-1
-13,-2,11,7,-12,4,4,1,0,-3,-2,-1
-10,0,10,5,-10,4,4,1,0,-3,-2,-2
-9,1,10,4,-9,5,5,1,0,-3,-1,-2
-8,2,10,3,-9,5,6,1,1,-2,0,-3
-6,2,8,2,-7,5,6,1,1,-1,0,-4
-5,3,7,2,-6,5,6,1,0,-1,0,-5
-5,3,8,2,-6,5,6,1,0,-2,0,-3
-5,2,7,2,-6,5,5,1,0,-3,-1,-1
-4,2,6,1,-5,3,4,0,-1,-4,-3,0
-3,1,5,1,-4,2,4,0,-2,-5,-4,0
-4,1,6,2,-5,3,4,0,-1,-5,-4,0
-7,1,8,3,-8,4,4,0,0,-4,-2,1
-9,1,9,4,-9,5,4,1,0,-3,-1,0
-8,0,8,4,-8,4,4,0,0,-3,-1,-1
-8,0,8,4,-8,4,3,0,0,-3,-1,-2
-8,0,7,4,-7,3,3,0,0,-3,-1,-4
-8,-1,7,4,-7,3,2,-1,-1,-3,-1,-6
-9,-1,7,5,-8,2,1,-1,-1,-3,-2,-5
-9,-1,7,5,-8,2,1,-2,-2,-4,-2,-3
-8,-1,5,4,-6,1,0,-3,-3,-5,-3,-1
-8,-1,6,4,-6,1,-1,-4,-4,-5,-3,1
-9,-1,7,5,-7,3,-1,-4,-4,-5,-3,2
-9,-1,8,5,-8,3,-2,-4,-4,-5,-3,2
-8,-1,7,4,-7,2,-2,-4,-4,-5,-3,1
-6,-2,3,4,-4,0,-3,-5,-6,-7,-5,0
-6,-3,1,4,-3,-1,-4,-6,-7,-8,-6,-1
-9,-3,4,6,-6,0,-2,-5,-6,-7,-4,-2
-10,-2,7,6,-8,2,0,-3,-4,-5,-2,-2
-9,-1,7,5,-8,3,0,-2,-3,-4,0,-2
-9,-1,7,5,-8,3,0,-2,-3,-4,0,-2
-10,-2,8,6,-8,3,0,-2,-3,-4,0,-1
-9,-2,6,6,-7,1,0,-2,-3,-5,-1,-1
-6,-3,2,5,-3,-1,-1,-3,-5,-6,-3,-2
-5,-3,0,4,-2,-2,-1,-4,-6,-7,-4,-2
-6,-4,0,5,-3,-2,-1,-4,-6,-8,-4,-2
-5,-4,-1,5,-2,-3,-1,-4,-7,-9,-5,-2
-4,-5,-2,4,0,-4,-1,-5,-8,-9,-6,-2
-4,-5,-1,4,-1,-4,-1,-5,-8,-9,-6,-2
-4,-5,-1,4,-1,-4,-1,-5,-8,-9,-6,-1
-3,-5,-2,4,0,-4,-1,-5,-8,-9,-7,-1
-4,-5,-1,4,0,-4,-1,-4,-7,-9,-6,0
-6,-5,1,5,-3,-2,0,-3,-6,-8,-5,-1
-7,-4,2,5,-4,-2,0,-3,-6,-7,-5,-2
-7,-4,2,6,-5,-2,0,-3,-6,-7,-4,-3
-8,-5,2,7,-5,-2,0,-4,-6,-7,-4,-3
-8,-6,1,8,-4,-3,0,-4,-7,-8,-5,-3
-8,-7,1,8,-4,-4,0,-4,-7,-9,-6,-4
-11,-9,2,10,-6,-4,0,-4,-7,-9,-6,-4
-13,-11,2,12,-7,-4,0,-4,-8,-9,-7,-5
-12,-10,1,11,-6,-5,0,-4,-8,-10,-7,-4
-8,-7,1,7,-4,-3,1,-4,-7,-9,-7,-3
-5,-4,1,5,-3,-2,2,-3,-6,-8,-7,-1
-5,-4,1,5,-3,-1,3,-3,-6,-8,-6,-1
-5,-4,1,5,-3,-1,3,-3,-6,-8,-7,-2
-5,-4,0,5,-2,-1,3,-3,-6,-8,-7,-3
-6,-4,1,5,-3,-1,4,-2,-6,-8,-6,-4
-6,-5,1,6,-3,-2,4,-2,-6,-9,-6,-6
-5,-6,-1,5,-2,-3,4,-3,-7,-9,-6,-7
-5,-6,-2,6,-2,-4,3,-3,-7,-10,-7,-8
-7,-7,-1,7,-3,-4,3,-3,-7,-9,-7,-8
-9,-7,0,8,-5,-3,4,-3,-6,-9,-7,-10
-10,-8,1,9,-6,-3,4,-2,-6,-8,-6,-12
-11,-8,3,9,-7,-2,5,-2,-6,-8,-6,-11
-12,-7,4,9,-8,-1,5,-1,-6,-8,-5,-8
-11,-7,3,9,-7,-2,4,-1,-6,-8,-6,-5
-11,-8,2,9,-6,-3,4,-1,-6,-9,-7,-3
-10,-8,1,10,-6,-3,4,-1,-6,-9,-8,-2
-10,-8,1,10,-6,-4,4,-2,-6,-10,-9,-1
-9,-8,0,9,-6,-4,4,-2,-6,-10,-9,-1
-10,-8,1,10,-7,-3,4,-2,-6,-10,-9,-1
-12,-9,3,10,-8,-2,4,-1,-5,-9,-9,-2
-12,-9,3,10,-8,-2,4,-1,-5,-9,-9,-2
-11,-9,3,9,-7,-2,4,-1,-5,-9,-8,-2
-10,-8,3,9,-6,-2,5,-1,-5,-9,-7,-2
-11,-8,3,10,-7,-2,5,-1,-5,-8,-6,-1
-12,-9,3,11,-8,-3,5,-1,-6,-9,-6,-4
-11,-10,1,11,-6,-4,4,-2,-7,-10,-7,-10
-9,-10,-1,10,-4,-5,4,-3,-8,-12,-8,-15
-8,-10,-2,9,-3,-6,5,-2,-9,-14,-10,-18
-7,-11,-3,9,-2,-7,7,0,-10,-17,-13,-19
-7,-13,-5,9,0,-9,8,2,-11,-23,-19,-20
-8,-14,-6,10,0,-10,10,5,-13,-29,-26,-21
-14,-15,-1,14,-6,-8,14,9,-12,-32,-29,-22
-20,-15,4,17,-12,-6,17,13,-9,-32,-30,-23
-20,-15,4,17,-13,-5,17,15,-6,-31,-30,-25
-15,-14,0,15,-8,-6,16,16,-2,-28,-28,-24
-10,-11,0,11,-6,-5,13,16,4,-22,-23,-20
-8,-6,2,7,-6,-1,10,16,13,-11,-13,-13
-4,0,6,1,-5,3,6,14,21,3,0,-3
0,7,8,-5,-4,7,0,10,29,20,14,8
5,14,9,-11,-2,11,-5,7,38,42,33,22
12,22,9,-18,1,15,-12,1,47,68,55,40
21,31,10,-26,5,20,-19,-5,55,100,82,61
29,43,13,-36,7,27,-26,-13,64,136,112,84
36,54,17,-44,9,35,-34,-22,69,172,142,107
42,63,20,-52,10,42,-43,-33,69,205,170,129
51,71,20,-61,15,46,-53,-48,66,234,194,149
60,78,18,-69,21,48,-64,-64,60,256,213,167
66,82,15,-74,25,48,-73,-78,48,268,227,183
70,83,12,-77,29,47,-81,-91,30,265,233,194
73,82,8,-78,33,44,-86,-105,6,246,230,199
75,80,4,-77,35,42,-90,-119,-18,217,218,198
73,78,5,-75,34,41,-91,-132,-42,183,201,193
66,75,8,-71,29,42,-89,-145,-66,140,178,182
57,70,13,-64,21,42,-85,-158,-93,89,147,164
45,64,19,-55,13,41,-79,-169,-120,35,114,143
34,56,22,-45,6,39,-71,-175,-143,-13,83,120
26,47,21,-37,2,33,-63,-173,-158,-49,55,98
20,37,16,-28,2,26,-56,-165,-162,-73,30,77
14,26,12,-19,0,18,-48,-151,-156,-84,9,59
8,17,9,-12,-1,13,-43,-137,-146,-87,-5,43
4,11,7,-7,-1,8,-39,-124,-133,-86,-15,30
0,6,5,-3,-2,5,-36,-109,-118,-80,-21,19
-4,3,7,0,-5,4,-30,-93,-101,-72,-23,9
-9,1,10,3,-9,5,-24,-77,-84,-62,-22,3
-12,0,12,6,-12,5,-18,-62,-69,-53,-21,-1
-16,-1,14,8,-14,5,-12,-49,-56,-45,-20,-3
-19,-2,16,10,-17,6,-7,-37,-44,-38,-18,-4
-18,-2,15,10,-16,5,-3,-28,-35,-32,-16,-6
-13,-2,10,8,-12,3,-1,-22,-28,-28,-16,-10
-10,-2,8,7,-9,2,1,-15,-21,-23,-14,-12
-12,-3,9,8,-10,3,4,-7,-14,-19,-11,-10
-13,-5,8,8,-10,1,5,-2,-8,-16,-10,-7
-9,-5,4,7,-6,-1,5,0,-5,-15,-11,-4
-7,-5,2,6,-4,-2,6,2,-3,-14,-12,-2
-7,-6,1,7,-5,-3,7,4,-2,-14,-13,-2
-7,-6,1,7,-4,-3,7,5,-1,-13,-14,-3
-6,-6,0,6,-4,-3,8,6,0,-13,-13,-4
-6,-6,0,6,-4,-3,8,8,1,-12,-13,-4
-8,-6,1,7,-5,-3,9,9,2,-11,-12,-5
-10,-8,2,9,-6,-3,9,10,3,-11,-12,-7
-12,-9,3,10,-8,-3,10,11,4,-10,-11,-8
-14,-9,4,11,-9,-3,10,12,5,-9,-11,-9
-12,-9,3,10,-8,-3,11,12,6,-9,-11,-9
-11,-8,3,9,-7,-2,11,12,6,-8,-10,-9
-10,-8,2,9,-6,-3,11,12,6,-9,-10,-8
-8,-8,0,8,-4,-4,11,12,6,-9,-11,-8
-8,-8,0,8,-4,-4,11,13,6,-9,-11,-9
-8,-8,0,8,-4,-4,11,13,7,-9,-10,-12
-9,-9,0,9,-4,-5,11,13,7,-9,-10,-15
-10,-9,1,9,-6,-4,12,14,8,-8,-10,-14
-11,-8,3,9,-7,-3,12,14,9,-7,-9,-11
-9,-7,1,8,-5,-3,12,14,9,-7,-10,-10
-7,-7,0,7,-4,-4,11,14,9,-7,-11,-10
-8,-8,0,8,-4,-5,11,14,9,-7,-11,-10
-8,-8,-1,8,-3,-5,11,15,9,-7,-11,-9
-6,-8,-2,7,-2,-5,11,15,9,-7,-11,-9
-5,-7,-3,6,0,-5,11,15,9,-7,-11,-10
-4,-7,-3,6,0,-5,11,15,9,-7,-12,-10
-4,-6,-2,5,0,-4,11,15,9,-7,-11,-10
-3,-5,-2,4,0,-3,11,15,9,-6,-10,-10
-4,-6,-2,5,-1,-4,11,15,9,-6,-10,-10
-5,-7,-1,6,-2,-4,11,15,9,-6,-10,-9
-6,-7,-1,6,-2,-5,11,16,9,-6,-10,-9
-6,-8,-2,6,-1,-5,11,16,9,-6,-11,-9
-7,-8,-1,7,-2,-4,11,16,10,-6,-11,-9
-9,-8,1,8,-5,-4,12,17,11,-6,-11,-9
-11,-8,2,9,-7,-3,12,17,11,-5,-10,-9
-10,-8,2,9,-7,-4,11,17,11,-5,-10,-10
-11,-8,2,10,-7,-4,11,17,12,-5,-10,-11
-12,-8,3,10,-8,-4,12,18,13,-4,-8,-13
-11,-8,3,10,-7,-3,12,19,13,-3,-8,-15
-10,-8,1,9,-5,-4,12,18,13,-3,-8,-16
-8,-9,-1,8,-3,-5,11,18,13,-4,-9,-14
-7,-9,-1,8,-3,-5,11,17,12,-5,-10,-12
-6,-7,-1,7,-2,-5,11,17,12,-5,-10,-11
-5,-6,-2,5,-1,-5,11,17,12,-5,-11,-10
-3,-6,-3,4,0,-5,11,17,12,-5,-11,-9
-2,-6,-3,4,0,-5,11,17,12,-5,-11,-9
-3,-6,-3,4,0,-5,11,17,12,-5,-11,-8
-4,-7,-2,5,-2,-4,11,18,13,-5,-11,-8
-5,-6,-1,5,-2,-4,12,19,13,-5,-11,-8
-5,-6,-1,5,-2,-4,12,20,14,-4,-11,-8
-6,-6,0,6,-3,-3,12,20,14,-4,-10,-7
-7,-5,1,6,-4,-3,13,21,15,-3,-10,-7
-7,-5,0,6,-3,-3,13,21,15,-3,-10,-7
-5,-5,0,6,-2,-3,12,21,15,-3,-10,-9
-5,-5,0,6,-3,-3,12,21,16,-3,-9,-10
-9,-5,3,8,-6,-1,13,23,18,-1,-8,-10
-11,-6,5,9,-8,-1,14,23,18,-1,-7,-10
-12,-7,4,9,-8,-1,13,24,18,-1,-7,-11
-12,-7,5,10,-9,-1,13,24,18,-1,-7,-12
-13,-7,5,10,-9,-1,13,24,18,-1,-7,-12
-13,-8,5,10,-9,-1,13,24,18,-1,-7,-11
-11,-8,2,10,-6,-3,12,23,17,-1,-8,-11
-7,-8,-2,8,-2,-5,11,22,16,-3,-9,-10
-5,-8,-2,7,-2,-5,11,22,17,-3,-9,-9
-5,-7,-1,6,-3,-4,11,23,18,-2,-9,-8
-5,-6,-1,6,-2,-3,12,24,18,-2,-9,-7
-4,-6,-2,5,-1,-4,12,24,18,-3,-10,-7
-5,-6,-1,6,-2,-4,12,24,19,-2,-10,-6
-7,-6,0,7,-3,-3,12,25,19,-1,-9,-5
-7,-6,0,7,-3,-4,12,25,19,-1,-9,-6
-7,-6,0,7,-3,-4,12,25,19,0,-9,-7
-7,-6,0,7,-3,-3,12,26,20,0,-9,-7
-4,-6,-3,5,0,-5,11,25,19,0,-9,-8
-2,-6,-4,4,1,-5,11,25,19,0,-9,-9
-3,-6,-1,4,-1,-4,12,27,21,0,-8,-8
-5,-5,0,5,-3,-3,12,28,22,1,-7,-8
-5,-5,0,5,-3,-2,13,29,23,2,-7,-9
-5,-4,0,5,-3,-2,13,29,23,2,-7,-10
-5,-4,1,5,-3,-2,13,30,24,3,-6,-10
-5,-4,1,4,-3,-2,13,30,24,3,-6,-10
-4,-4,0,4,-2,-2,13,30,24,4,-6,-11
-3,-4,0,4,-2,-2,12,30,24,4,-6,-10
-6,-4,1,5,-4,-1,13,31,25,4,-5,-9
-8,-4,4,6,-6,0,14,33,26,5,-3,-6
-7,-3,3,5,-5,0,13,33,26,5,-4,-5
-6,-4,2,4,-4,-1,12,32,26,4,-5,-4
-6,-4,1,4,-4,-1,12,33,26,5,-5,-3
-4,-2,2,3,-3,0,12,34,27,6,-5,-2
-2,0,2,1,-2,1,13,35,28,8,-4,-1
-1,1,2,0,-2,2,13,36,29,8,-3,-1
-1,0,1,1,-2,1,12,36,29,8,-3,-3
0,0,0,1,-1,0,11,35,29,8,-3,-4
0,0,1,0,-1,0,11,36,29,9,-2,-4
-1,0,2,0,-2,1,11,36,29,9,-1,-3
-1,1,2,0,-1,1,11,36,30,10,-1,-3
1,1,0,-1,0,0,10,36,30,10,-1,-4
2,1,0,-1,1,0,10,36,30,11,-1,-5
1,2,1,-1,0,2,11,37,31,12,0,-5
-1,3,4,0,-3,4,12,38,33,14,1,-4
-2,3,6,0,-4,5,12,39,34,15,2,-5
-1,4,5,-1,-3,5,12,39,34,16,3,-5
0,4,3,-2,-1,4,11,39,33,16,3,-5
2,4,1,-3,0,3,10,39,33,15,3,-4
1,4,3,-2,0,4,10,39,34,16,4,-2
0,5,5,-2,-3,5,11,40,34,17,4,1
0,5,6,-2,-3,6,10,39,34,17,5,4
0,6,6,-3,-3,6,10,39,34,17,5,7
0,8,8,-4,-4,7,10,40,35,18,5,9
0,8,8,-4,-5,8,10,40,35,19,6,11
0,9,8,-4,-4,8,10,40,35,20,7,11
0,10,9,-4,-5,9,10,40,36,21,8,11
1,10,8,-5,-3,9,9,40,36,22,9,10
3,8,5,-5,-1,7,7,39,35,21,8,8
2,7,4,-4,-1,6,6,37,34,21,9,7
0,6,6,-3,-3,7,6,37,35,22,11,5
0,7,8,-3,-5,7,6,37,36,23,12,3
1,8,7,-5,-4,8,5,37,36,24,13,1
4,10,6,-8,-1,8,5,36,36,24,14,3
8,12,5,-10,1,8,5,36,36,24,14,6
8,14,6,-11,0,10,6,37,36,25,14,10
6,14,9,-10,-1,11,6,37,36,25,14,13
6,14,8,-10,-1,11,6,36,36,25,12,15
5,14,8,-10,-1,11,5,35,35,24,12,17
3,14,10,-9,-3,12,5,35,35,24,12,18
4,14,9,-9,-3,12,5,34,35,24,12,18
6,14,7,-11,-1,11,4,33,34,24,12,17
7,14,6,-11,0,10,3,32,33,24,13,14
6,14,7,-9,-1,10,3,32,33,25,14,12
4,14,9,-8,-3,11,3,32,34,26,16,11
3,14,10,-8,-4,12,4,31,34,26,16,11
4,14,10,-8,-3,12,3,30,33,26,16,11
4,14,9,-8,-3,11,3,28,32,25,15,11
2,13,10,-8,-4,11,3,28,32,25,15,12
1,13,12,-7,-6,13,4,28,33,26,15,14
2,13,11,-8,-5,12,3,27,32,25,14,15
5,13,8,-9,-2,11,2,26,30,24,14,15
7,14,7,-10,0,10,1,25,29,23,14,15
7,15,7,-10,0,10,1,23,29,23,15,13
7,14,7,-10,0,10,1,22,28,23,14,12
6,14,8,-10,-1,10,1,21,28,23,14,11
5,15,9,-10,-2,11,2,21,28,23,15,12
6,15,9,-10,-2,11,2,20,27,23,14,13
8,15,8,-11,-1,11,2,19,26,22,13,14
9,15,6,-11,0,11,2,18,25,21,13,14
8,14,6,-11,0,10,2,17,24,20,13,13
7,13,6,-10,0,9,1,16,23,19,13,12
4,12,7,-8,-1,9,1,15,23,19,13,11
3,12,8,-8,-2,10,2,15,23,19,13,10
3,13,9,-9,-3,11,2,15,23,20,14,10
2,13,11,-8,-4,11,3,14,23,20,14,10
2,12,10,-8,-3,11,3,13,21,19,13,8
5,12,7,-9,-1,9,2,12,19,18,13,7
3,11,7,-7,-2,9,2,11,19,17,13,7
-2,10,12,-4,-7,11,4,12,19,17,13,10
-3,11,13,-3,-8,12,4,12,19,16,13,11
0,11,10,-5,-5,10,3,10,17,15,11,11
0,9,8,-4,-4,8,2,8,15,13,9,11
-1,6,7,-3,-4,6,1,6,13,11,7,10
0,4,5,-2,-3,5,1,5,11,9,6,9
1,5,3,-3,-1,4,1,4,10,9,6,9
4,6,2,-4,0,4,1,4,10,8,6,8
5,6,0,-5,1,4,1,4,9,8,5,7
4,6,1,-4,1,3,2,3,8,7,5,6
3,5,1,-4,0,3,2,2,8,7,5,7
3,4,0,-4,1,2,1,1,7,6,4,6
4,3,-1,-4,2,1,1,1,6,5,3,5
3,3,0,-4,1,1,2,1,6,5,3,5
2,3,0,-3,0,2,3,1,6,5,3,5
2,2,0,-2,0,1,3,1,5,4,3,3
1,1,0,-1,0,1,3,0,4,4,3,2
-1,1,2,0,-2,2,4,1,4,4,3,2
-3,1,4,1,-4,3,4,1,5,4,4,1
-4,1,5,2,-5,3,5,1,4,4,4,0
-6,0,6,3,-7,3,5,1,4,3,4,-1
-7,0,7,3,-7,3,6,1,3,3,4,0
-4,0,4,1,-4,2,6,0,2,2,3,1
0,0,1,0,-1,1,5,0,1,1,1,2
0,0,0,0,0,0,5,-1,0,0,0,2
-3,0,2,1,-2,1,6,0,0,0,0,3
-6,0,5,3,-5,1,6,0,0,0,0,4
-5,0,4,2,-4,1,5,-1,0,-1,-1,3
-2,-1,1,1,-1,-1,4,-2,-1,-2,-2,2
0,-2,-1,0,0,-2,3,-3,-2,-3,-3,1
0,-3,-2,1,1,-3,3,-4,-3,-4,-4,0
-2,-4,-2,3,0,-3,4,-4,-3,-4,-4,0
-3,-5,0,4,-1,-3,4,-4,-3,-4,-3,-1
-3,-5,-1,4,-1,-3,3,-4,-3,-4,-3,-1
-2,-4,-2,3,0,-3,3,-4,-4,-4,-3,-2
-3,-3,-1,3,-1,-3,4,-4,-3,-4,-2,-2
-3,-2,0,3,-1,-2,5,-3,-3,-3,-1,-5
-2,-2,0,2,-1,-2,5,-3,-2,-2,-1,-7
-1,-1,0,1,-1,-1,6,-2,-2,-2,0,-7
-1,-1,0,1,0,-1,6,-2,-2,-2,0,-6
-4,-2,1,3,-2,-1,6,-2,-2,-3,-1,-4
-5,-3,2,4,-4,0,6,-2,-2,-3,-2,-2
-6,-2,3,4,-4,0,6,-2,-2,-4,-3,-2
-7,-2,4,4,-6,0,6,-2,-2,-4,-3,-1
-6,-2,3,3,-5,0,6,-2,-2,-4,-3,0
-3,-2,0,2,-2,-1,5,-3,-3,-6,-4,0
-1,-2,-1,1,0,-2,5,-3,-3,-6,-5,0
-2,-2,0,2,0,-1,6,-3,-2,-6,-5,0
-3,-3,0,3,-1,-1,6,-2,-2,-5,-4,-2
-5,-4,1,5,-2,-2,6,-2,-2,-5,-4,-5
-7,-5,1,6,-3,-2,6,-2,-2,-5,-4,-6
-7,-6,0,6,-3,-3,5,-3,-2,-6,-4,-6
-5,-6,0,5,-1,-4,5,-3,-3,-6,-5,-6
-4,-5,-1,4,-1,-4,5,-3,-3,-6,-5,-5
-3,-6,-2,4,-1,-4,5,-3,-3,-7,-6,-6
-3,-6,-2,5,-1,-4,5,-3,-3,-7,-6,-7
-6,-6,0,6,-3,-3,6,-2,-2,-6,-5,-7
-9,-6,3,7,-6,-1,7,0,0,-5,-4,-7
-10,-5,4,7,-7,-1,8,0,0,-4,-4,-6
-9,-5,3,7,-6,-1,7,0,-1,-5,-4,-5
-8,-5,2,6,-5,-2,7,0,-1,-6,-5,-4
-6,-5,0,5,-3,-2,7,0,-1,-6,-7,-4
-4,-5,-1,5,-2,-3,7,-1,-2,-7,-8,-4
-4,-6,-1,5,-2,-4,7,-1,-2,-8,-9,-4
-5,-5,0,5,-3,-3,7,0,-1,-7,-8,-3
-5,-5,1,5,-4,-3,8,0,-1,-7,-8,-3
-5,-5,0,5,-3,-3,8,0,-1,-7,-8,-4
-6,-5,0,5,-3,-3,8,0,-1,-7,-8,-6
-8,-6,2,7,-5,-3,9,0,-1,-6,-8,-6
-10,-6,3,8,-6,-3,9,1,0,-6,-7,-6
-9,-7,2,8,-5,-4,9,0,-1,-6,-7,-7
-8,-7,0,8,-4,-5,8,0,-1,-7,-8,-9
-7,-8,-1,8,-3,-5,8,0,-1,-7,-8,-10
-7,-8,-1,8,-3,-5,7,0,-2,-7,-8,-10
-7,-8,0,8,-4,-5,7,0,-2,-7,-8,-11
-8,-9,-1,9,-4,-5,7,0,-2,-8,-8,-11
-10,-10,0,10,-5,-5,7,0,-2,-8,-9,-12
-12,-10,1,11,-7,-5,7,0,-1,-7,-8,-12
-11,-9,1,10,-6,-4,8,0,-1,-7,-8,-12
-9,-8,1,8,-5,-4,8,1,0,-7,-8,-12
-7,-7,0,7,-4,-3,8,1,0,-7,-7,-12
-7,-6,1,7,-4,-3,9,2,0,-7,-7,-10
-7,-6,1,6,-4,-2,9,2,0,-7,-8,-9
-4,-5,-1,5,-1,-3,9,1,0,-7,-9,-9
-2,-4,-3,3,0,-4,9,1,0,-7,-10,-8
-4,-4,0,4,-2,-2,10,3,1,-6,-9,-9
-10,-4,5,7,-7,0,12,5,3,-4,-6,-9
-14,-5,8,9,-11,0,12,5,3,-3,-5,-10
-12,-6,6,9,-9,-1,11,4,2,-4,-5,-11
-10,-7,4,9,-7,-2,10,3,1,-5,-6,-11
-11,-7,5,9,-8,-1,10,4,2,-5,-6,-10
-12,-7,5,9,-9,-1,10,4,2,-5,-6,-9
-11,-7,4,9,-8,-1,9,3,1,-6,-7,-7
-10,-7,2,9,-6,-2,9,3,1,-6,-8,-6
-9,-7,1,8,-5,-3,9,2,0,-6,-8,-6
-9,-7,1,8,-5,-4,8,2,0,-6,-9,-6
-8,-7,0,8,-4,-4,7,2,0,-6,-9,-6
-9,-7,1,8,-5,-4,7,2,0,-6,-8,-6
-10,-7,2,8,-6,-3,7,2,1,-5,-8,-7
-11,-8,2,9,-7,-2,7,2,1,-5,-8,-9
-11,-9,2,9,-7,-3,7,2,1,-5,-8,-10
-12,-9,2,10,-7,-4,7,2,1,-5,-8,-11
-13,-10,2,11,-7,-4,7,2,1,-5,-8,-10
-14,-11,2,13,-8,-5,7,1,0,-6,-9,-9
-15,-12,3,14,-9,-5,6,1,0,-6,-8,-7
-15,-11,4,13,-10,-4,7,2,1,-5,-7,-6
-13,-9,4,11,-9,-3,8,3,1,-4,-6,-6
-11,-7,4,9,-7,-2,8,3,2,-4,-5,-7
-9,-6,3,7,-6,-2,9,4,2,-3,-5,-7
-7,-5,2,5,-5,-2,9,4,2,-3,-4,-8
-4,-4,0,4,-2,-3,8,3,2,-3,-5,-8
-3,-4,-1,3,-1,-3,8,3,2,-3,-5,-8
-3,-4,-2,3,0,-3,8,3,2,-3,-5,-7
-3,-4,-2,4,0,-3,7,2,1,-4,-5,-7
-4,-5,-1,4,-2,-3,7,2,1,-4,-4,-6
-7,-5,1,5,-4,-2,8,3,1,-3,-3,-5
-9,-5,4,6,-7,-1,8,3,2,-2,-2,-4
-12,-5,7,8,-9,0,9,4,2,-1,-2,-4
-14,-5,8,9,-11,0,9,4,3,-1,-1,-5
-13,-5,7,9,-10,0,9,4,2,-1,-1,-5
-11,-5,5,8,-8,0,9,3,2,-1,-2,-4
-9,-6,3,7,-6,-1,8,3,1,-2,-3,-3
-8,-6,2,7,-5,-2,8,2,1,-3,-3,-3
-8,-7,2,7,-5,-2,7,2,0,-4,-4,-4
-8,-7,1,7,-4,-3,6,2,0,-4,-4,-6
-7,-7,0,6,-3,-4,6,1,0,-4,-5,-7
-8,-7,0,7,-4,-4,6,1,0,-4,-5,-7
-10,-7,2,8,-6,-3,6,1,0,-3,-5,-5
-12,-7,3,10,-7,-3,7,1,0,-3,-4,-3
-12,-8,3,11,-8,-3,6,1,0,-4,-4,-3
-11,-9,1,10,-6,-5,5,0,-1,-5,-5,-5
-8,-10,-2,9,-3,-7,4,-1,-3,-6,-7,-6
-7,-9,-3,8,-2,-7,3,-1,-3,-7,-7,-6
-7,-8,-1,8,-3,-5,4,0,-2,-5,-6,-5
-8,-7,1,8,-4,-4,5,0,-1,-4,-5,-4
-8,-7,1,8,-4,-4,5,0,-1,-5,-6,-4
-6,-7,0,7,-3,-5,5,0,-2,-5,-6,-3
-7,-7,0,6,-3,-4,6,0,-2,-5,-5,-2
-8,-6,2,7,-5,-2,7,0,-1,-4,-3,-2
-8,-5,3,6,-5,-1,7,1,0,-4,-2,-4
-8,-6,2,6,-5,-2,6,0,-1,-4,-2,-5
-9,-6,3,7,-6,-2,6,0,-1,-4,-1,-5
-10,-7,4,8,-7,-2,7,0,-1,-4,-2,-4
-10,-7,3,8,-6,-2,7,0,-2,-5,-3,-3
-9,-7,2,8,-5,-3,7,0,-2,-5,-5,-2
-7,-6,1,7,-3,-3,7,-1,-2,-6,-6,-1
-7,-6,0,6,-3,-3,7,-1,-2,-6,-6,-1
-6,-6,0,6,-2,-3,6,-1,-2,-6,-6,0
-7,-7,0,7,-3,-3,6,-1,-3,-6,-6,0
-10,-8,1,9,-6,-3,6,-1,-3,-6,-6,0
-11,-9,1,10,-6,-4,5,-2,-4,-6,-6,-1
-10,-10,-1,10,-4,-6,4,-3,-6,-7,-7,-4
-10,-12,-1,11,-4,-7,3,-4,-6,-8,-7,-6
-11,-11,0,11,-4,-6,3,-4,-6,-7,-6,-8
-10,-10,0,10,-4,-5,4,-3,-5,-7,-5,-8
-9,-9,0,9,-4,-5,4,-2,-5,-6,-5,-7
-10,-9,1,9,-5,-3,4,-2,-4,-6,-4,-5
-10,-7,3,8,-6,-2,5,-1,-4,-6,-4,-2
-8,-6,2,7,-5,-2,6,-1,-4,-6,-4,-1
-6,-5,1,5,-4,-2,6,-1,-4,-6,-5,-2
-5,-4,1,5,-3,-2,7,-1,-3,-6,-5,-3
-6,-4,1,5,-3,-2,7,-1,-3,-5,-4,-4
-7,-5,1,6,-4,-2,6,-1,-3,-5,-4,-4
-8,-6,1,7,-5,-2,6,-1,-3,-5,-4,-4
-7,-6,1,7,-4,-3,6,-1,-4,-5,-4,-5
-6,-6,0,6,-3,-4,5,-2,-4,-6,-5,-6
-6,-7,-1,6,-2,-4,5,-3,-5,-6,-5,-7
-6,-7,-1,6,-2,-4,5,-3,-5,-7,-5,-7
-6,-7,-1,6,-2,-4,5,-3,-5,-7,-5,-5
-6,-7,-1,6,-2,-4,5,-3,-5,-8,-6,-5
-7,-7,0,7,-4,-3,5,-2,-5,-7,-5,-5
-11,-7,4,9,-8,-1,7,-1,-3,-5,-4,-4
-15,-7,9,11,-12,1,8,0,-2,-4,-2,-2
-15,-7,8,10,-12,0,8,0,-2,-4,-2,-2
-12,-7,4,9,-8,-1,6,-1,-4,-6,-3,-4
-11,-8,2,10,-7,-2,5,-2,-5,-7,-4,-5
-11,-8,2,10,-6,-3,4,-2,-5,-7,-4,-5
-9,-8,0,9,-4,-4,4,-3,-6,-7,-4,-6
-8,-8,-1,9,-3,-5,3,-4,-6,-7,-4,-6
-9,-9,0,9,-4,-5,3,-4,-6,-7,-5,-5
-9,-9,0,9,-4,-5,4,-3,-6,-8,-6,-4
-8,-8,0,8,-4,-4,4,-3,-6,-8,-6,-4
-8,-7,0,8,-4,-4,4,-3,-6,-8,-6,-4
-7,-7,0,7,-3,-4,4,-3,-6,-7,-6,-5
-7,-6,0,7,-3,-4,4,-3,-5,-7,-6,-4
-7,-7,0,7,-3,-4,4,-3,-5,-7,-6,-4
-8,-7,0,8,-3,-4,4,-3,-5,-7,-6,-5
-8,-8,0,8,-4,-4,4,-3,-5,-7,-6,-6
-7,-8,0,7,-3,-4,4,-3,-5,-7,-6,-6
-8,-8,0,8,-5,-3,5,-3,-5,-6,-5,-6
-12,-8,4,10,-8,-2,6,-2,-4,-5,-5,-4
-14,-8,6,11,-10,-1,6,-1,-3,-5,-4,-2
-12,-7,4,10,-8,-2,6,-2,-4,-5,-4,-1
-8,-7,0,8,-4,-3,5,-3,-5,-6,-5,-3
-8,-7,1,8,-4,-3,5,-2,-5,-6,-4,-5
-10,-7,2,8,-6,-2,5,-2,-4,-6,-3,-7
-8,-8,0,8,-4,-4,4,-4,-6,-7,-4,-7
-7,-9,-2,8,-3,-6,3,-5,-7,-8,-5,-5
-8,-9,-1,9,-4,-5,3,-4,-7,-8,-5,-3
-8,-7,0,8,-4,-4,4,-4,-6,-8,-5,-2
-6,-6,0,7,-3,-4,4,-3,-6,-8,-6,-2
-5,-5,-1,6,-2,-4,5,-3,-6,-8,-6,-1
-4,-5,-1,6,-2,-3,5,-3,-6,-7,-5,-1
-3,-5,-2,5,-1,-4,5,-3,-6,-7,-5,-1
-2,-5,-3,5,0,-4,5,-3,-6,-7,-6,-2
-3,-5,-2,5,-1,-3,6,-3,-5,-7,-5,-3
-6,-5,0,6,-3,-3,6,-2,-5,-6,-5,-3
-8,-6,2,7,-5,-3,6,-2,-4,-6,-4,-3
-9,-6,3,7,-5,-2,6,-2,-4,-6,-4,-2
-11,-6,4,8,-7,-2,6,-1,-4,-6,-4,-2
-11,-6,4,9,-7,-1,6,-2,-4,-6,-4,-2
-8,-5,3,7,-5,-1,6,-2,-4,-6,-4,-1
-7,-3,4,5,-5,0,7,-1,-3,-5,-3,-1
-8,-2,5,5,-6,1,8,-1,-2,-4,-2,-1
-7,-2,5,4,-6,1,7,-1,-2,-4,-2,-1
-8,-3,4,5,-6,0,7,-2,-3,-4,-2,-1
-9,-4,4,6,-7,0,6,-2,-3,-5,-3,-1
-8,-4,4,6,-6,-1,6,-2,-3,-5,-3,-2
-8,-5,4,7,-6,-1,6,-2,-3,-5,-3,-2
-9,-5,4,7,-6,0,6,-1,-3,-5,-2,-3
-9,-4,5,7,-6,0,6,-1,-2,-4,-2,-2
-7,-3,5,5,-6,1,7,0,-1,-4,-2,-2
-6,-1,5,4,-6,2,8,0,-1,-3,-1,-1
-6,0,6,4,-6,2,8,0,0,-2,-1,-1
-6,-1,4,4,-5,1,8,0,-1,-3,-2,-3
-4,-2,2,3,-3,0,7,-1,-2,-4,-2,-5
-3,-2,1,3,-2,0,7,-1,-2,-3,-2,-7
-4,-2,2,3,-3,0,7,0,-2,-3,-1,-9
-5,-2,3,4,-3,0,7,0,-2,-3,-1,-9
-4,-3,1,4,-3,-1,6,-1,-2,-4,-1,-9
-3,-4,0,3,-2,-2,5,-2,-3,-5,-2,-8
-2,-3,0,3,-1,-2,5,-2,-3,-5,-3,-8
-3,-3,0,3,-2,-2,5,-2,-2,-5,-4,-7
-6,-2,3,4,-4,0,6,-1,-1,-4,-3,-5
-9,-2,6,5,-7,2,7,0,0,-3,-1,-3
-10,-2,7,6,-9,3,7,0,0,-2,-1,-1
-9,-2,7,5,-8,3,7,0,0,-3,-1,0
-7,-1,6,4,-7,2,6,-1,-1,-4,-2,2
-7,-1,6,4,-7,3,5,-2,-2,-4,-3,3
-10,-2,8,6,-9,3,5,-3,-2,-4,-2,3
-10,-3,7,7,-9,2,3,-4,-3,-4,-3,2
-7,-3,4,5,-5,0,2,-5,-4,-5,-3,0
-5,-2,1,3,-3,0,1,-6,-5,-6,-3,-2
-3,-2,0,2,-1,-1,0,-6,-6,-6,-3,-3
-2,-2,0,1,0,-1,0,-6,-6,-6,-3,-3
-2,-2,0,2,-1,0,0,-6,-5,-6,-3,-3
-3,-2,1,2,-1,0,1,-5,-5,-5,-3,-4
-3,-2,1,3,-1,0,1,-5,-5,-6,-3,-5
-4,-2,1,3,-2,0,1,-5,-5,-6,-3,-4
-3,-2,0,3,-1,-1,1,-5,-6,-7,-3,-3
-1,-3,-2,2,0,-2,1,-5,-6,-7,-4,-1
0,-3,-4,2,2,-3,0,-5,-6,-8,-4,-1
1,-4,-5,1,3,-4,0,-6,-7,-8,-5,-2
1,-4,-5,1,3,-4,0,-6,-7,-8,-5,-4
0,-4,-3,2,1,-4,1,-5,-7,-7,-5,-5
-2,-4,-2,3,0,-3,2,-4,-7,-7,-4,-5
-2,-4,-2,3,0,-4,2,-4,-7,-8,-4,-4
-3,-4,-2,4,0,-3,2,-4,-7,-8,-4,-3
-4,-4,-1,4,-1,-2,2,-4,-7,-7,-4,-1
-4,-4,-1,4,-1,-2,2,-4,-7,-7,-3,0
-3,-4,-1,3,0,-2,2,-5,-7,-7,-3,0
-2,-4,-2,3,0,-3,2,-5,-7,-7,-4,0
-4,-5,-1,4,-1,-3,2,-5,-7,-7,-4,0
-6,-6,0,6,-2,-3,2,-5,-7,-7,-5,0
-6,-6,-1,6,-2,-4,2,-5,-7,-8,-5,0
-4,-6,-3,5,0,-4,2,-5,-7,-8,-6,0
-3,-6,-3,5,0,-4,2,-5,-7,-9,-6,-1
-5,-7,-2,6,-2,-3,3,-5,-7,-8,-5,0
-6,-7,0,6,-3,-3,4,-4,-6,-7,-5,-1
-5,-6,0,6,-3,-2,4,-4,-6,-7,-4,-3
-4,-5,0,5,-2,-2,5,-4,-6,-7,-4,-6
-4,-5,-1,4,-1,-3,5,-4,-7,-8,-4,-7
-3,-6,-2,4,0,-4,4,-4,-7,-8,-4,-6
-4,-7,-3,5,0,-5,4,-4,-8,-9,-5,-5
-5,-8,-2,6,-1,-5,4,-4,-8,-10,-7,-5
-7,-8,-1,7,-2,-4,4,-4,-8,-9,-7,-5
-8,-9,-1,8,-2,-5,4,-4,-8,-9,-8,-7
-8,-10,-2,9,-2,-6,4,-5,-9,-10,-8,-8
-8,-10,-3,9,-2,-7,3,-5,-9,-10,-8,-8
-9,-11,-2,10,-3,-7,4,-5,-9,-10,-8,-7
-8,-10,-2,9,-3,-6,4,-4,-8,-10,-8,-7
-5,-9,-2,7,-1,-6,5,-4,-8,-10,-8,-7
-4,-7,-2,6,-1,-4,6,-3,-7,-9,-7,-6
-7,-6,1,7,-4,-2,7,-1,-5,-8,-5,-3
-10,-6,4,8,-7,-1,8,0,-4,-6,-4,-1
-8,-6,2,7,-5,-2,8,-1,-5,-6,-5,-2
-4,-6,-2,5,-1,-4,6,-2,-6,-8,-7,-3
-3,-7,-4,5,0,-5,6,-3,-7,-8,-8,-4
-3,-7,-3,5,0,-5,6,-2,-6,-8,-7,-5
-3,-6,-3,5,0,-4,6,-2,-6,-8,-6,-5
-3,-7,-3,4,0,-5,5,-2,-6,-8,-6,-7
-3,-8,-3,5,0,-5,5,-2,-6,-8,-6,-8
-4,-8,-3,5,0,-5,5,-2,-6,-8,-6,-9
-2,-8,-5,5,1,-6,4,-3,-6,-8,-7,-8
-1,-7,-5,4,2,-6,4,-3,-6,-9,-7,-6
-1,-6,-5,4,2,-5,5,-2,-6,-8,-7,-5
0,-6,-5,4,2,-5,5,-2,-6,-9,-6,-7
-2,-7,-4,5,1,-5,6,-2,-7,-10,-6,-9
-4,-9,-3,7,-1,-5,7,-1,-7,-11,-7,-11
-6,-11,-4,8,-2,-7,8,0,-8,-14,-10,-16
-8,-13,-4,10,-2,-8,9,2,-9,-18,-15,-20
-10,-14,-4,12,-3,-9,12,5,-10,-22,-20,-24
-11,-15,-4,13,-3,-10,14,8,-11,-26,-25,-26
-11,-15,-4,14,-3,-10,15,10,-10,-29,-29,-25
-11,-14,-4,13,-3,-10,15,12,-9,-29,-30,-23
-9,-13,-4,12,-2,-9,15,14,-5,-27,-28,-21
-8,-10,-2,9,-3,-6,14,15,2,-20,-21,-16
-7,-5,2,6,-5,-1,12,16,11,-9,-11,-8
-4,1,5,1,-4,3,8,15,20,4,2,0
2,8,5,-5,-1,7,3,12,28,20,16,10
8,15,6,-11,1,10,-2,9,37,40,32,21
15,22,7,-18,4,14,-8,5,47,64,53,38
22,32,9,-27,7,20,-15,0,57,93,78,58
30,43,12,-36,8,28,-22,-8,66,125,107,82
39,53,14,-46,12,34,-30,-18,72,157,135,105
50,63,13,-56,17,38,-40,-32,72,185,159,126
59,71,12,-65,23,42,-50,-46,70,210,180,147
69,78,9,-73,29,44,-60,-62,66,229,197,165
78,82,4,-80,37,43,-71,-78,55,239,209,181
84,82,-1,-83,43,40,-80,-93,37,235,214,193
84,81,-3,-82,44,39,-85,-107,15,218,212,200
81,79,-3,-80,42,38,-88,-121,-9,192,203,201
78,77,-2,-78,40,37,-90,-135,-32,162,189,196
72,74,2,-73,35,38,-88,-148,-54,126,169,184
60,70,10,-65,25,40,-82,-160,-79,83,143,166
47,64,16,-56,16,40,-76,-171,-105,35,112,144
37,55,18,-46,10,36,-69,-179,-129,-8,81,120
28,44,17,-36,6,30,-61,-179,-146,-42,53,96
22,33,11,-27,5,22,-54,-171,-153,-64,28,74
17,24,6,-20,5,15,-46,-157,-150,-76,9,56
8,17,8,-12,0,12,-39,-141,-139,-78,-3,42
0,12,11,-6,-6,12,-34,-125,-126,-76,-10,32
-3,8,11,-2,-7,9,-30,-110,-112,-71,-15,23
-5,4,10,0,-7,6,-26,-95,-97,-66,-18,14
-6,2,9,2,-7,5,-21,-80,-82,-58,-19,6
-5,1,7,2,-6,4,-16,-65,-68,-50,-19,-1
-5,0,6,2,-6,3,-11,-52,-55,-43,-19,-6
-7,-1,6,4,-7,3,-6,-40,-44,-35,-18,-9
-10,-2,7,6,-9,3,-3,-29,-35,-29,-16,-10
-10,-3,6,6,-8,2,-1,-22,-27,-24,-14,-10
-7,-4,3,5,-5,0,0,-16,-21,-21,-14,-10
-4,-4,0,4,-2,-2,2,-10,-15,-19,-13,-9
-3,-4,-2,3,0,-3,4,-5,-10,-16,-12,-7
-2,-4,-3,3,0,-4,6,0,-5,-14,-11,-6
-1,-4,-3,3,1,-4,7,2,-3,-12,-11,-5
1,-4,-4,1,2,-4,8,5,-1,-10,-11,-6
1,-3,-4,1,2,-4,9,6,0,-9,-10,-7
1,-4,-5,1,2,-4,9,7,0,-9,-10,-7
2,-5,-7,1,4,-6,8,7,0,-10,-10,-7
2,-5,-8,2,4,-7,8,7,0,-11,-10,-8
0,-6,-7,3,3,-6,9,9,2,-10,-10,-10
-3,-6,-4,5,0,-5,10,11,3,-8,-9,-10
-6,-7,-1,7,-2,-4,11,12,5,-7,-8,-9
-8,-7,0,8,-4,-3,11,13,6,-6,-8,-9
-8,-7,0,8,-4,-3,11,14,6,-5,-9,-10
-7,-7,0,7,-3,-4,11,14,6,-6,-9,-10
-5,-7,-1,6,-2,-4,11,14,6,-6,-9,-9
-6,-6,0,6,-3,-3,12,15,7,-5,-8,-7
-7,-6,1,6,-5,-2,13,16,8,-4,-7,-7
-8,-6,2,7,-5,-2,13,16,9,-4,-7,-8
-7,-6,0,7,-4,-3,12,16,9,-4,-7,-11
-7,-7,0,7,-3,-4,11,15,8,-4,-8,-12
-7,-7,-1,8,-3,-5,11,15,8,-4,-9,-11
-7,-8,-1,8,-3,-5,11,15,8,-4,-9,-9
-6,-7,-1,7,-3,-4,12,16,8,-5,-9,-5
-3,-6,-3,5,0,-4,12,16,7,-5,-9,-3
1,-5,-6,2,3,-5,11,15,7,-6,-10,-3
2,-4,-6,1,4,-5,11,15,8,-6,-10,-4
1,-4,-5,2,3,-5,11,16,8,-6,-9,-6
0,-4,-5,3,2,-5,11,16,8,-5,-9,-8
0,-4,-5,2,3,-5,11,16,8,-5,-9,-9
2,-5,-7,2,4,-6,10,16,8,-5,-10,-10
2,-5,-7,2,4,-6,10,16,8,-5,-10,-10
1,-6,-7,3,3,-6,11,16,9,-5,-9,-9
0,-7,-7,3,3,-6,11,16,9,-5,-9,-9
0,-7,-6,4,3,-7,10,16,9,-5,-9,-9
-4,-8,-3,6,0,-5,11,17,10,-4,-8,-10
-9,-8,0,9,-4,-4,12,18,11,-3,-7,-11
-9,-9,0,9,-4,-5,11,18,10,-4,-8,-11
-6,-8,-2,8,-2,-5,11,18,10,-4,-9,-10
-5,-7,-1,6,-2,-4,12,18,11,-4,-8,-8
-4,-6,-1,5,-1,-3,12,19,11,-3,-8,-6
-4,-6,-1,5,-1,-4,12,19,11,-3,-8,-6
-5,-7,-1,6,-2,-4,12,19,11,-3,-8,-8
-5,-7,-1,6,-2,-4,12,18,11,-3,-8,-9
-4,-6,-2,5,-1,-5,12,18,11,-3,-8,-11
-4,-6,-2,5,-1,-4,12,19,11,-3,-8,-11
-4,-5,-1,5,-1,-3,13,20,12,-3,-7,-10
-4,-4,-1,4,-1,-3,13,21,13,-2,-7,-9
-4,-4,-1,4,-1,-3,13,21,13,-2,-7,-9
-3,-4,-2,4,0,-3,13,21,13,-1,-7,-13
-2,-4,-2,4,0,-3,13,21,13,-1,-7,-15
-1,-4,-3,3,1,-3,12,21,13,-1,-7,-15
-1,-4,-3,3,1,-3,12,21,13,-1,-7,-12
-3,-4,-1,3,0,-3,13,21,13,-1,-7,-8
-4,-4,-1,4,-1,-3,13,21,13,-1,-8,-5
-4,-5,-2,4,-1,-4,12,21,13,-2,-10,-4
-4,-7,-2,5,-1,-5,11,21,12,-3,-11,-5
-6,-8,-2,7,-2,-5,11,20,12,-3,-11,-6
-6,-9,-2,8,-1,-5,10,20,12,-3,-11,-8
-4,-9,-4,7,0,-6,9,20,12,-3,-11,-9
-2,-7,-4,4,1,-5,10,21,13,-2,-10,-9
-1,-5,-3,3,1,-4,11,22,14,-1,-8,-9
-2,-4,-1,2,0,-3,13,23,15,0,-7,-8
-3,-3,0,3,-1,-2,14,24,16,0,-7,-7
-3,-3,0,3,-1,-2,14,24,16,0,-7,-7
-4,-4,0,4,-1,-3,13,24,16,0,-8,-8
-6,-4,1,5,-3,-2,14,25,17,1,-8,-8
-5,-4,1,5,-3,-2,14,26,17,1,-8,-7
-1,-3,-1,2,0,-2,13,26,17,0,-8,-7
1,-2,-3,0,2,-3,13,25,16,0,-9,-7
0,-2,-2,1,1,-2,13,26,17,0,-8,-8
-1,-2,-1,2,0,-2,14,26,17,1,-7,-9
-1,-2,-1,1,0,-2,14,27,18,2,-7,-10
0,-2,-2,0,1,-2,13,27,18,2,-6,-11
1,-2,-3,0,2,-2,13,27,18,2,-6,-11
1,-2,-3,0,2,-2,13,28,19,2,-6,-11
-1,-2,-1,1,0,-1,13,28,19,3,-6,-10
-3,-2,1,2,-2,-1,14,29,20,3,-5,-8
-1,-2,-1,1,0,-2,13,28,19,2,-6,-9
1,-2,-4,0,2,-4,11,27,18,1,-7,-9
0,-2,-3,1,2,-3,11,28,18,2,-7,-8
-1,-2,0,2,0,-2,12,29,19,3,-6,-6
-1,-2,0,2,0,-2,12,30,20,3,-6,-6
-1,-3,-1,2,0,-2,12,30,20,3,-7,-7
-2,-4,0,3,-1,-2,12,30,20,3,-7,-7
-4,-4,0,4,-2,-2,12,30,21,3,-6,-7
-6,-5,2,6,-4,-2,11,31,21,3,-6,-7
-6,-5,1,6,-3,-2,11,31,21,4,-5,-8
-5,-4,0,5,-2,-2,11,31,21,4,-5,-9
-4,-4,1,4,-2,-1,11,32,22,5,-4,-9
-3,-3,1,3,-1,0,12,33,23,6,-3,-8
-1,-1,1,1,0,0,12,34,24,7,-3,-8
0,0,1,-1,0,1,12,35,25,8,-3,-6
3,2,1,-3,1,1,12,36,25,8,-3,-4
4,4,1,-4,1,2,13,36,25,8,-2,-2
3,5,2,-4,0,2,13,37,26,9,-1,0
2,5,2,-4,0,3,13,37,27,10,0,0
3,5,2,-4,1,3,13,37,27,10,0,0
3,5,2,-4,1,3,13,37,27,11,0,0
3,4,2,-3,1,3,12,37,27,11,0,1
1,4,3,-2,0,3,12,37,27,11,0,1
-2,3,6,0,-4,4,12,38,28,12,1,1
-5,3,8,1,-6,5,12,39,29,13,2,0
-5,4,8,0,-6,5,12,39,29,14,2,0
-2,4,6,-1,-4,5,11,38,29,14,2,0
1,4,3,-2,-1,4,10,37,28,14,2,0
3,5,2,-4,1,4,9,37,28,14,2,0
5,6,1,-5,2,4,9,37,28,14,3,1
6,7,1,-6,3,4,8,37,28,14,3,1
6,7,2,-7,2,5,8,37,28,15,4,0
4,8,4,-6,0,6,8,37,28,16,5,1
4,8,4,-6,0,6,7,36,28,16,5,2
6,9,3,-7,1,6,7,36,28,17,5,5
7,10,4,-8,2,7,7,36,29,18,6,7
6,11,5,-8,1,8,7,37,30,19,7,8
6,11,5,-8,1,8,7,37,30,19,7,9
7,11,4,-9,2,8,6,36,29,19,8,8
8,11,3,-9,3,7,5,35,29,19,8,6
6,12,5,-9,1,8,5,35,29,20,9,4
4,12,8,-8,-2,10,6,35,30,21,11,4
4,13,8,-9,-2,10,6,35,30,22,11,4
8,14,6,-11,0,10,5,35,30,22,11,5
9,14,6,-12,2,10,5,34,30,23,11,6
7,14,9,-10,0,12,5,35,31,23,12,10
4,14,11,-9,-3,13,6,35,31,23,12,13
4,14,10,-9,-3,12,5,33,30,22,12,14
5,14,8,-9,-1,10,3,31,28,20,11,15
6,13,6,-10,0,9,2,29,27,20,10,14
6,13,6,-9,0,8,2,28,26,19,10,14
5,12,8,-8,-1,9,2,28,26,20,11,14
4,12,9,-7,-3,11,2,28,26,21,12,13
6,13,9,-9,-1,11,1,28,26,21,12,12
8,14,8,-11,0,12,1,28,26,21,13,12
7,16,10,-11,0,13,1,28,27,22,14,12
7,18,10,-12,-1,14,2,28,28,23,14,13
9,18,9,-13,0,13,1,26,27,22,14,13
10,17,7,-13,0,12,1,24,25,21,13,13
8,17,9,-12,-1,13,1,24,25,21,13,13
6,16,11,-11,-2,14,1,23,25,21,14,11
7,16,10,-11,-1,13,1,22,24,20,14,9
7,16,9,-11,0,13,0,21,23,21,14,8
7,16,10,-11,-1,13,1,21,24,22,14,10
7,17,11,-11,-2,14,1,20,24,22,14,11
6,17,11,-12,-2,14,2,20,24,21,13,14
6,17,11,-12,-3,14,2,19,23,20,13,15
7,17,11,-12,-2,13,2,18,22,19,13,15
6,17,11,-11,-2,13,2,17,21,19,13,15
6,16,11,-11,-2,14,2,16,21,18,13,15
6,15,10,-10,-2,13,1,14,19,16,11,14
5,13,8,-9,-1,11,0,12,17,15,10,12
4,12,8,-7,-2,10,0,11,16,14,9,12
3,11,8,-7,-3,10,0,10,16,13,9,12
2,11,9,-6,-3,10,0,10,16,13,9,11
3,11,8,-7,-2,10,0,9,15,13,9,8
6,12,7,-9,0,10,0,9,15,13,9,6
7,13,6,-10,0,10,0,8,14,13,10,5
7,12,6,-9,0,9,0,7,13,12,9,5
5,11,6,-7,0,8,0,6,12,11,8,6
4,10,6,-7,0,8,1,6,11,10,6,7
3,9,6,-6,-1,7,1,5,11,9,5,8
3,9,5,-6,0,6,0,4,10,8,4,8
4,9,5,-6,0,6,0,3,9,8,4,8
5,9,5,-6,0,7,1,3,8,8,4,7
5,8,4,-6,0,6,1,3,7,7,4,6
3,7,4,-5,-1,6,1,2,6,7,4,4
2,7,5,-4,-1,6,1,2,6,7,4,3
3,7,5,-5,-1,6,2,2,6,7,5,2
3,7,4,-5,0,6,2,1,5,6,4,1
2,6,4,-4,0,5,1,0,4,5,3,0
1,4,4,-2,-1,4,1,0,3,4,2,0
0,3,4,-1,-2,4,1,0,2,3,1,1
-1,3,4,0,-3,4,1,0,2,3,0,2
-3,2,6,0,-5,4,2,0,2,3,0,2
-5,2,8,1,-6,5,3,0,2,3,0,3
-3,2,6,0,-4,4,2,-1,1,2,0,2
1,2,3,-2,0,3,2,-2,0,0,-1,1
4,3,0,-3,2,2,1,-2,-1,0,-2,0
5,3,0,-4,2,2,1,-2,-1,-1,-2,-1
2,3,2,-2,0,3,2,-2,-1,0,-1,-2
-1,2,4,0,-2,3,3,-2,-1,0,-1,-3
-1,1,3,0,-2,1,2,-3,-2,-1,-2,-6
-1,0,2,0,-1,0,2,-4,-3,-2,-2,-7
0,0,1,0,0,0,2,-4,-3,-2,-3,-6
0,0,1,0,0,0,2,-4,-4,-3,-3,-4
0,1,1,0,0,1,2,-3,-4,-3,-3,-1
2,0,0,-1,1,0,2,-4,-4,-4,-4,0
4,0,-3,-1,3,-1,1,-5,-5,-5,-6,0
2,0,-1,-1,1,0,1,-5,-5,-5,-6,0
0,1,2,0,-2,2,3,-3,-3,-4,-5,0
-2,3,5,0,-4,4,5,-2,-2,-3,-4,0
-3,3,6,0,-4,5,6,-2,-2,-2,-3,-1
-3,4,7,-1,-4,5,6,-1,-2,-2,-3,-1
-2,4,6,-1,-3,5,6,-1,-2,-2,-3,-1
0,4,4,-2,-1,4,5,-2,-3,-3,-3,-2
2,3,2,-2,0,2,5,-3,-3,-4,-4,-3
1,3,2,-2,0,3,5,-2,-3,-3,-3,-2
1,3,2,-2,-1,3,5,-3,-3,-4,-3,-1
2,3,1,-2,0,2,5,-3,-3,-5,-4,-1
2,3,1,-3,0,2,5,-3,-4,-5,-5,-1
1,2,2,-2,0,2,5,-3,-4,-5,-5,-1
0,2,2,-1,-1,2,4,-3,-4,-5,-5,-2
-1,1,2,0,-1,1,4,-3,-4,-5,-5,-2
-1,0,2,1,-1,1,4,-3,-4,-5,-5,-3
-2,0,2,1,-2,1,4,-3,-4,-5,-5,-3
-2,0,2,1,-2,1,4,-3,-4,-5,-5,-4
-1,0,2,1,-1,1,4,-3,-4,-6,-6,-4
-1,0,1,0,-1,1,4,-3,-4,-6,-6,-5
-1,0,1,1,-1,1,4,-3,-4,-6,-6,-6
-2,-1,2,2,-1,0,4,-3,-4,-7,-6,-7
-3,-2,2,3,-2,0,3,-3,-5,-7,-6,-8
-4,-3,2,4,-3,0,3,-3,-5,-7,-6,-7
-6,-3,4,4,-4,1,4,-2,-4,-7,-6,-6
-6,-2,4,4,-5,1,5,-2,-4,-6,-6,-7
-6,-2,4,4,-4,1,5,-2,-4,-6,-7,-9
-6,-2,5,4,-5,2,6,-1,-3,-6,-6,-10
-6,-2,5,4,-5,2,6,-1,-3,-5,-6,-9
-4,-2,3,3,-3,1,6,-1,-3,-6,-7,-9
-3,-2,2,2,-2,1,5,-2,-4,-6,-7,-9
-2,-2,1,2,-2,0,5,-2,-4,-6,-8,-9
-3,-2,1,2,-2,0,5,-1,-4,-6,-7,-8
-5,-2,3,3,-4,1,6,0,-3,-6,-6,-8
-6,-2,4,4,-5,1,7,0,-2,-5,-6,-9
-6,-2,4,4,-5,1,8,0,-2,-5,-6,-9
-7,-3,5,4,-6,1,8,0,-2,-5,-5,-10
-4,-3,3,3,-3,1,7,0,-2,-6,-6,-11
-1,-2,0,1,0,0,7,0,-3,-8,-8,-12
0,-2,-1,1,1,0,7,0,-3,-8,-9,-12
0,-1,0,0,1,0,7,0,-3,-8,-9,-11
0,-1,0,0,0,0,7,0,-2,-8,-9,-12
-1,-1,0,1,0,0,6,0,-3,-9,-10,-12
-3,-2,1,2,-2,0,7,0,-3,-9,-11,-10
-5,-2,3,3,-4,1,8,0,-2,-8,-11,-8
-6,-2,5,4,-6,2,8,1,-2,-8,-11,-7
-8,-3,7,5,-8,3,9,1,-1,-7,-11,-6
-9,-3,7,6,-8,3,9,1,-1,-8,-11,-6
-7,-3,4,5,-6,1,7,0,-2,-9,-11,-7
-6,-4,2,5,-4,0,6,0,-3,-9,-12,-8
-7,-4,2,6,-4,-1,6,0,-3,-9,-12,-9
-6,-4,2,6,-4,-1,6,0,-3,-9,-12,-10
-5,-4,1,5,-3,-1,7,0,-3,-9,-12,-11
-5,-4,1,5,-3,-1,7,0,-3,-8,-12,-12
-5,-4,3,5,-3,0,8,1,-3,-8,-11,-12
-5,-3,3,4,-3,0,8,1,-2,-7,-11,-12
-4,-3,3,4,-3,0,8,2,-2,-7,-10,-12
-5,-2,3,4,-4,1,9,2,-1,-7,-10,-12
-6,-2,5,4,-6,2,9,3,0,-6,-9,-11
-7,-1,6,5,-7,2,9,3,0,-6,-8,-10
-6,-1,4,4,-5,1,9,3,-1,-6,-8,-10
-3,-1,2,3,-2,0,8,2,-2,-7,-8,-11
-3,-1,2,3,-2,0,8,2,-2,-7,-8,-12
-3,-1,2,3,-2,0,8,2,-1,-6,-7,-14
-3,-2,2,3,-2,0,8,2,-1,-6,-7,-16
-6,-3,4,5,-5,1,8,2,0,-5,-6,-15
-7,-3,4,6,-6,1,8,3,0,-5,-6,-12
-5,-3,2,5,-4,0,7,2,0,-6,-7,-10
-4,-3,1,4,-2,-1,7,1,-1,-7,-9,-9
-3,-3,1,4,-2,-1,6,1,-1,-7,-10,-8
-3,-3,1,4,-2,-1,6,1,-1,-8,-10,-8
-4,-3,1,4,-2,-1,6,1,-1,-8,-10,-7
-4,-3,2,4,-2,0,6,1,-1,-8,-10,-7
-4,-2,2,3,-2,0,6,1,-1,-7,-9,-6
-4,-2,2,2,-2,0,6,2,0,-7,-9,-7
-1,-1,0,0,0,0,6,1,-1,-7,-8,-9
3,0,-3,-1,4,-1,5,0,-2,-7,-9,-12
3,0,-3,-1,3,-1,5,0,-1,-7,-8,-13
-1,0,1,1,-1,1,7,2,0,-5,-6,-12
-5,-1,4,3,-4,2,7,3,1,-4,-5,-10
-6,-1,5,3,-5,2,7,3,1,-4,-5,-8
-6,0,5,3,-5,2,7,3,1,-4,-4,-7
-6,-1,5,3,-5,2,7,3,1,-4,-4,-9
-7,-2,5,4,-6,1,7,3,1,-4,-3,-11
-8,-3,5,5,-6,1,7,2,1,-4,-3,-12
-7,-3,3,5,-5,0,6,2,0,-4,-4,-12
-5,-3,1,4,-3,-1,5,1,0,-5,-5,-9
-3,-2,1,3,-1,0,5,1,-1,-6,-7,-4
-1,0,0,1,0,0,5,1,-1,-6,-7,-2
-1,0,1,1,-1,0,5,1,-1,-6,-7,-1
-3,-1,2,3,-3,0,5,1,-1,-6,-7,-2
-4,-2,1,4,-3,0,5,1,-1,-6,-7,-4
-3,-3,0,4,-2,-1,5,0,-2,-6,-7,-7
-4,-3,2,4,-3,0,6,1,-1,-5,-6,-9
-5,-2,3,5,-4,1,6,1,-1,-5,-5,-9
-4,-2,2,4,-3,1,5,0,-1,-5,-6,-8
-4,-2,2,4,-3,0,4,0,-2,-6,-6,-6
-4,-2,2,4,-3,0,4,0,-2,-6,-6,-5
-3,-2,1,3,-2,0,3,-1,-3,-7,-7,-5
-2,-2,0,2,-1,0,3,-1,-3,-7,-7,-6
-2,-1,1,2,-2,0,4,0,-3,-7,-7,-6
-2,-1,1,2,-2,0,4,0,-2,-6,-6,-5
-1,-1,0,1,-1,0,4,0,-2,-6,-6,-5
0,-1,0,1,0,0,4,0,-2,-6,-6,-5
-2,-1,2,1,-2,1,5,0,-1,-5,-4,-4
-3,0,3,2,-3,1,5,0,-1,-5,-3,-3
-1,0,0,1,0,0,5,0,-3,-6,-4,-3
0,0,-1,0,1,-1,4,-1,-4,-6,-5,-4
0,-1,-1,1,1,-1,4,-1,-4,-7,-5,-4
1,-1,-3,1,2,-2,3,-2,-5,-8,-6,-4
1,-2,-3,1,2,-3,3,-2,-5,-8,-6,-5
1,-1,-3,1,2,-2,3,-2,-4,-7,-5,-6
1,-1,-2,1,1,-1,3,-2,-4,-7,-5,-7
2,-1,-2,0,2,-1,3,-2,-5,-8,-6,-8
2,-1,-3,0,2,-1,3,-2,-5,-8,-6,-9
2,-1,-3,0,2,-1,3,-2,-5,-8,-6,-8
1,-1,-2,0,1,-1,3,-2,-5,-8,-7,-6
0,-1,-1,1,0,-1,3,-2,-5,-8,-7,-5
-1,-1,-1,1,0,-1,3,-2,-5,-8,-7,-5
0,-1,-1,1,0,-1,2,-3,-5,-8,-6,-7
0,-3,-2,1,1,-2,2,-3,-6,-8,-6,-10
0,-4,-3,2,2,-3,1,-4,-6,-8,-6,-12
-1,-4,-2,3,1,-2,2,-3,-6,-7,-5,-12
-3,-3,0,3,-1,-1,4,-2,-5,-6,-4,-10
-3,-2,1,2,-1,0,5,-1,-4,-6,-3,-8
-3,-1,2,2,-2,0,5,-1,-4,-6,-3,-6
-3,-1,3,2,-2,0,5,-1,-4,-6,-4,-4
-1,-1,1,1,0,0,4,-1,-5,-7,-5,-5
2,-1,-3,0,3,-2,3,-2,-6,-8,-7,-7
2,-2,-4,0,4,-3,2,-3,-6,-9,-7,-9
-1,-3,-1,2,0,-1,3,-2,-6,-8,-7,-8
-6,-3,3,4,-5,0,4,-1,-5,-7,-7,-6
-9,-3,6,5,-8,1,4,-1,-4,-6,-7,-3
-9,-3,6,5,-7,2,4,-1,-4,-6,-7,-1
-5,-2,3,3,-4,0,4,-2,-5,-7,-7,-1
-1,-2,0,1,0,-1,3,-3,-6,-8,-8,-1
1,-2,-2,1,1,-2,3,-3,-7,-8,-8,-2
0,-3,-2,1,1,-2,3,-3,-6,-8,-7,-2
0,-3,-2,2,1,-2,2,-3,-7,-9,-8,-2
0,-4,-4,2,2,-3,1,-4,-8,-10,-9,-3
1,-4,-4,1,3,-4,1,-5,-8,-10,-9,-4
2,-3,-4,0,3,-4,1,-5,-8,-10,-8,-5
3,-2,-4,-1,3,-3,2,-4,-8,-10,-7,-6
1,-1,-2,0,2,-2,3,-3,-7,-8,-5,-6
0,-1,0,0,1,0,3,-2,-6,-7,-4,-7
1,-1,-1,1,1,-1,3,-2,-6,-8,-5,-8
1,-2,-1,1,1,-1,2,-2,-7,-8,-6,-7
1,-1,-1,1,1,-1,2,-2,-7,-9,-7,-6
2,-1,-3,0,2,-1,2,-3,-8,-9,-8,-6
2,-1,-3,0,3,-2,1,-3,-8,-10,-9,-6
0,-2,-2,1,1,-2,1,-3,-8,-10,-9,-6
-1,-2,0,2,0,-1,2,-3,-7,-9,-9,-5
-1,-1,0,1,0,0,3,-2,-7,-9,-8,-5
1,0,0,0,1,0,3,-2,-6,-8,-7,-5
2,0,-1,-1,2,0,3,-2,-6,-8,-7,-5
2,-1,-2,0,2,-1,3,-3,-6,-8,-7,-6
2,-1,-3,0,2,-2,2,-3,-7,-8,-6,-6
2,-2,-3,0,2,-3,2,-3,-7,-8,-6,-6
1,-2,-3,0,2,-3,2,-4,-7,-8,-6,-7
2,-2,-3,0,3,-3,2,-4,-7,-8,-6,-9
2,-2,-3,0,3,-3,2,-4,-7,-8,-6,-10
1,-2,-3,0,3,-3,2,-4,-7,-8,-6,-10
1,-2,-3,0,2,-3,3,-3,-7,-8,-6,-8
0,-2,-2,1,1,-2,3,-3,-7,-8,-6,-7
-1,-3,-1,2,0,-2,3,-3,-7,-8,-7,-6
-2,-3,0,2,-1,-1,3,-3,-7,-8,-8,-6
-2,-3,0,2,-1,-1,2,-3,-7,-8,-8,-7
-3,-3,0,2,-2,-1,2,-3,-7,-8,-8,-7
-3,-3,1,3,-2,-1,2,-3,-7,-8,-8,-6
-2,-2,1,2,-2,-1,2,-3,-7,-8,-7,-7
-1,-1,1,1,-1,0,2,-2,-6,-7,-5,-9
0,0,0,0,0,0,3,-2,-6,-7,-4,-12
0,-1,-1,0,0,-1,3,-3,-6,-7,-4,-14
0,-1,-1,0,0,-1,3,-3,-6,-7,-4,-14
-1,-2,0,1,-1,-1,3,-3,-5,-7,-4,-10
-2,-2,0,1,-1,-1,3,-3,-6,-7,-5,-6
1,-2,-3,0,2,-3,2,-4,-7,-9,-7,-4
5,-1,-5,-2,5,-3,2,-4,-8,-10,-9,-4
2,-1,-2,0,2,-2,2,-3,-7,-9,-8,-4
-2,-1,2,2,-2,0,3,-2,-6,-8,-7,-2
-3,0,3,2,-3,1,4,-2,-6,-8,-7,-2
-3,0,3,1,-3,1,4,-2,-5,-7,-7,-2
-2,0,2,0,-2,2,4,-2,-5,-7,-7,-2
-3,1,3,0,-3,2,5,-2,-5,-6,-6,-1
-2,1,4,0,-3,3,5,-1,-5,-6,-6,-1
0,2,2,-2,0,2,5,-2,-5,-7,-6,-1
3,2,0,-3,2,1,4,-3,-6,-7,-6,-2
5,3,-1,-4,3,1,3,-3,-6,-8,-7,-3
6,4,-1,-5,4,1,4,-3,-5,-8,-6,-3
5,4,0,-5,3,2,4,-3,-5,-8,-6,-3
4,3,-1,-4,2,1,4,-3,-5,-8,-6,-3
4,3,-1,-4,2,1,4,-3,-5,-8,-6,-4
4,3,0,-4,2,1,4,-2,-5,-7,-6,-6
3,2,0,-3,1,1,4,-2,-4,-7,-5,-7
2,2,2,-2,0,2,4,-1,-4,-6,-5,-7
0,3,4,-1,-2,3,5,0,-3,-5,-4,-6
0,4,5,-1,-3,4,6,0,-2,-4,-3,-5
3,4,2,-3,0,3,5,0,-3,-5,-4,-5
4,4,0,-4,1,2,5,-1,-3,-6,-5,-4
4,4,1,-4,1,3,5,0,-3,-6,-5,-4
5,4,0,-4,2,2,4,0,-3,-6,-5,-6
6,4,-1,-5,3,1,2,-1,-4,-7,-6,-9
4,3,0,-3,2,1,2,-1,-3,-6,-5,-10
1,3,2,-1,0,1,2,-1,-3,-6,-5,-8
0,2,2,0,0,1,2,-2,-4,-6,-5,-7
0,2,2,0,-1,1,1,-3,-4,-6,-5,-7
-1,1,2,1,-2,1,1,-3,-5,-7,-5,-7
-2,0,2,1,-2,1,1,-4,-5,-7,-5,-6
-2,0,2,1,-2,1,0,-4,-5,-6,-4,-5
-1,1,2,0,-2,1,0,-4,-5,-6,-4,-3
0,1,2,-1,-1,1,0,-4,-5,-7,-5,-1
3,2,0,-2,1,0,-1,-5,-6,-7,-5,0
6,3,-2,-4,4,0,-2,-6,-7,-8,-5,-1
6,3,-3,-4,4,0,-2,-6,-7,-8,-5,-3
4,3,-2,-3,3,0,-2,-6,-6,-8,-4,-4
2,1,-1,-1,1,0,-1,-5,-6,-8,-4,-5
1,0,-1,0,1,-1,-2,-5,-7,-9,-5,-6
0,-1,-1,0,0,-1,-2,-5,-7,-9,-6,-7
0,-2,-1,1,0,-1,-2,-5,-8,-10,-7,-7
0,-2,-3,1,2,-2,-2,-6,-9,-10,-8,-7
1,-2,-4,1,3,-3,-3,-6,-9,-10,-8,-7
2,-1,-4,0,3,-3,-2,-6,-9,-10,-7,-6
4,0,-5,-1,5,-3,-2,-6,-10,-10,-7,-5
6,0,-7,-2,7,-4,-2,-6,-10,-11,-7,-5
5,-1,-7,-2,7,-4,-1,-6,-10,-10,-6,-6
4,-1,-6,-1,5,-4,0,-5,-9,-10,-5,-7
2,-1,-4,0,3,-3,0,-5,-9,-9,-4,-9
0,-2,-2,0,2,-2,0,-4,-9,-9,-3,-9
0,-3,-2,1,1,-3,0,-5,-9,-10,-5,-8
0,-4,-3,2,1,-4,-1,-6,-10,-11,-7,-6
-1,-3,-2,3,0,-3,0,-6,-9,-11,-8,-4
-1,-2,-2,2,0,-1,0,-5,-9,-10,-8,-2
1,-1,-4,0,2,-2,0,-5,-9,-10,-8,-3
5,-1,-6,-2,5,-3,0,-6,-9,-10,-8,-3
6,0,-7,-3,6,-3,1,-6,-9,-10,-8,-2
6,-1,-6,-2,6,-3,1,-5,-9,-10,-7,-2
4,-2,-6,-1,6,-4,1,-5,-9,-11,-8,-2
5,-3,-7,0,6,-5,0,-6,-10,-12,-9,-4
5,-2,-8,0,7,-5,0,-6,-11,-12,-9,-5
1,-2,-4,1,3,-3,2,-5,-10,-11,-8,-4
-2,-2,-1,2,0,-2,3,-4,-9,-10,-8,-3
0,-2,-3,1,1,-3,3,-4,-10,-11,-9,-4
5,-3,-9,-1,6,-6,1,-6,-12,-14,-11,-5
7,-4,-11,-1,8,-8,0,-7,-12,-15,-12,-7
4,-4,-8,0,6,-7,1,-6,-11,-13,-10,-7
0,-5,-5,3,2,-6,2,-5,-10,-12,-9,-8
-1,-6,-5,4,2,-6,2,-5,-10,-12,-9,-8
0,-6,-6,4,2,-6,2,-5,-10,-12,-9,-8
0,-5,-6,3,3,-6,2,-5,-10,-12,-10,-8
1,-4,-6,2,3,-5,3,-4,-10,-12,-10,-8
1,-3,-6,1,4,-5,3,-4,-10,-12,-11,-8
1,-3,-6,1,3,-4,3,-5,-10,-12,-11,-8
1,-4,-5,1,3,-4,3,-5,-10,-12,-10,-8
2,-4,-6,1,4,-5,3,-5,-10,-12,-10,-11
2,-4,-7,1,5,-5,2,-5,-10,-12,-9,-16
2,-4,-6,1,4,-5,3,-5,-10,-12,-8,-18
0,-4,-4,2,2,-4,4,-4,-9,-10,-7,-16
-3,-4,-1,3,0,-3,5,-4,-9,-10,-6,-11
-2,-5,-2,3,0,-3,4,-4,-9,-10,-8,-7
-1,-5,-4,3,1,-4,3,-5,-10,-12,-10,-5
0,-5,-5,2,2,-5,2,-5,-10,-13,-12,-4
-1,-5,-4,3,2,-5,2,-4,-10,-12,-11,-4
-1,-4,-3,3,1,-4,3,-4,-9,-11,-10,-4
-1,-4,-2,3,0,-3,3,-3,-8,-11,-10,-5
-1,-4,-2,3,1,-3,3,-3,-8,-11,-9,-5
-1,-4,-3,3,1,-4,4,-3,-8,-11,-9,-6
-1,-5,-3,3,1,-4,5,-3,-9,-13,-11,-7
-2,-6,-3,4,0,-5,6,-2,-10,-15,-13,-10
-3,-8,-4,6,0,-6,7,0,-11,-18,-16,-14
-4,-9,-5,7,0,-7,9,2,-12,-22,-21,-19
-5,-11,-6,8,0,-8,11,5,-12,-25,-25,-24
-8,-12,-4,10,-2,-8,13,7,-11,-27,-27,-29
-11,-12,-2,11,-5,-7,14,10,-8,-26,-26,-32
-12,-12,-1,11,-6,-6,15,13,-4,-23,-24,-33
-9,-9,0,9,-5,-5,14,15,1,-18,-20,-32
-4,-4,0,4,-2,-3,12,16,8,-9,-12,-26
1,1,0,-1,0,0,9,17,16,1,-2,-16
5,7,2,-6,2,4,5,15,23,13,9,-3
10,12,2,-11,4,7,0,13,30,27,22,10
13,18,4,-16,4,11,-4,11,38,46,39,26
18,26,7,-22,5,16,-10,7,47,70,62,46
29,35,6,-33,11,21,-18,0,55,97,87,68
43,46,3,-45,20,24,-27,-11,59,123,112,91
55,56,1,-56,26,28,-36,-22,60,148,137,115
64,64,0,-64,32,32,-45,-36,56,169,159,139
73,70,-2,-72,37,33,-55,-53,49,184,176,160
82,74,-7,-78,44,33,-66,-71,38,194,187,178
89,74,-14,-81,51,30,-76,-89,20,192,193,191
94,72,-22,-83,57,25,-84,-107,-3,177,190,197
95,70,-25,-82,59,23,-89,-123,-28,154,181,198
90,70,-21,-80,56,24,-91,-138,-51,128,170,194
82,69,-13,-75,48,27,-90,-150,-71,101,155,185
72,67,-4,-69,38,30,-86,-162,-92,68,134,167
60,64,4,-62,27,33,-79,-171,-112,31,107,143
46,58,12,-52,17,35,-69,-177,-131,-5,78,118
35,50,15,-42,10,32,-60,-178,-147,-37,49,94
25,40,13,-32,6,26,-50,-174,-155,-62,23,72
16,29,11,-23,2,20,-42,-162,-154,-76,2,53
10,20,9,-15,0,15,-36,-148,-147,-82,-13,36
8,13,4,-11,2,9,-33,-136,-138,-84,-23,23
9,9,0,-10,5,4,-32,-124,-127,-83,-30,13
8,6,-2,-7,5,1,-29,-109,-113,-78,-32,6
3,4,0,-4,2,1,-25,-93,-98,-70,-32,0
-1,2,3,0,-2,2,-20,-78,-82,-61,-30,-3
-5,1,5,2,-5,3,-15,-64,-69,-52,-28,-6
-6,1,5,2,-5,3,-11,-51,-57,-45,-26,-9
-4,1,4,1,-4,3,-7,-40,-47,-38,-24,-11
-4,1,5,1,-4,3,-4,-31,-38,-33,-21,-12
-4,1,5,1,-4,3,-1,-23,-29,-27,-18,-11
-2,2,5,0,-3,3,1,-15,-21,-23,-16,-10
-1,1,3,0,-2,1,3,-9,-15,-19,-14,-10
0,0,0,0,0,0,4,-4,-10,-17,-14,-9
0,0,-1,0,0,-1,5,-1,-7,-15,-14,-9
-1,-1,-1,0,0,-1,6,1,-5,-14,-13,-9
-2,-2,0,1,0,-1,7,3,-4,-13,-12,-10
0,-3,-2,1,1,-2,7,4,-4,-13,-12,-11
1,-3,-4,0,3,-3,7,4,-4,-13,-12,-13
1,-3,-4,0,3,-4,7,5,-2,-12,-12,-14
-1,-4,-3,2,1,-4,7,7,-1,-12,-12,-14
-2,-3,-2,3,0,-3,8,8,1,-11,-12,-14
-1,-1,-1,2,0,-2,9,10,3,-9,-11,-14
0,0,-1,0,0,-1,9,11,4,-8,-11,-14
0,0,-1,0,0,-1,9,11,4,-8,-10,-12
-1,-2,-1,1,0,-2,9,11,3,-9,-10,-11
-2,-3,-1,3,0,-2,9,11,2,-10,-10,-10
-3,-4,0,4,-1,-2,9,11,3,-9,-10,-9
-3,-4,0,4,-1,-2,10,12,3,-9,-10,-8
-2,-3,-2,3,0,-3,10,12,4,-9,-11,-8
-1,-3,-2,2,0,-3,10,13,5,-9,-11,-8
0,-2,-2,1,1,-3,10,13,5,-9,-11,-7
0,-2,-2,1,1,-2,10,13,5,-9,-11,-7
0,-2,-2,0,1,-2,10,13,5,-8,-11,-7
2,-2,-3,0,2,-3,10,13,5,-8,-11,-10
2,-2,-4,0,3,-4,10,13,5,-8,-10,-13
0,-3,-3,1,1,-4,10,13,6,-8,-10,-14
-1,-3,-2,2,0,-4,10,14,6,-7,-9,-14
-1,-3,-3,2,1,-4,10,14,6,-7,-9,-14
0,-2,-3,1,1,-3,10,14,6,-6,-9,-13
1,-1,-2,0,1,-2,10,14,7,-6,-9,-12
3,0,-3,-2,3,-1,10,15,8,-6,-9,-11
5,0,-4,-3,4,-2,10,15,7,-6,-10,-11
5,0,-5,-3,5,-2,10,15,7,-6,-10,-10
4,1,-3,-3,4,-1,11,16,8,-6,-9,-10
3,1,-2,-2,3,-1,12,17,8,-5,-9,-10
3,1,-3,-2,3,-1,12,17,8,-5,-9,-10
3,0,-3,-2,3,-2,11,16,8,-5,-10,-11
1,0,-2,-1,1,-1,11,16,8,-5,-10,-11
-1,0,0,0,-1,0,11,17,9,-5,-9,-12
-3,-1,2,1,-2,0,12,18,10,-4,-8,-12
-2,-1,1,1,-1,0,11,18,10,-4,-8,-12
2,0,-2,-1,2,-1,11,18,9,-5,-8,-13
4,0,-4,-2,4,-2,10,17,9,-5,-9,-15
2,0,-3,-1,3,-2,11,17,9,-5,-9,-16
0,-1,-2,0,2,-2,11,17,9,-4,-9,-16
0,-2,-3,1,1,-2,10,17,9,-5,-9,-14
-1,-2,-2,2,0,-2,10,17,9,-6,-9,-11
-3,-3,0,3,-1,-2,10,17,9,-6,-9,-9
-3,-4,-1,3,-1,-2,10,17,8,-6,-9,-8
0,-3,-3,2,1,-3,9,17,8,-6,-10,-8
2,-1,-3,-1,3,-2,10,18,9,-6,-10,-7
3,0,-2,-2,3,-1,11,19,10,-5,-9,-7
2,0,-1,-1,2,-1,12,19,11,-4,-9,-7
3,0,-3,-2,3,-1,11,19,11,-4,-9,-8
5,1,-4,-4,5,-2,11,19,10,-4,-10,-9
6,1,-5,-4,6,-2,11,19,10,-5,-10,-9
6,1,-4,-4,6,-2,10,19,10,-5,-10,-9
6,1,-5,-3,6,-2,10,19,10,-5,-10,-8
6,1,-5,-3,6,-2,10,19,10,-5,-9,-9
5,1,-4,-3,5,-2,10,20,11,-4,-9,-11
4,0,-4,-2,4,-2,10,20,12,-4,-8,-12
4,0,-4,-2,4,-3,10,20,12,-4,-8,-12
4,0,-4,-2,4,-3,10,20,12,-4,-8,-10
4,0,-3,-2,3,-2,10,21,13,-4,-8,-8
2,0,-2,-1,2,-1,11,22,13,-4,-8,-7
1,0,-1,0,1,-1,11,23,13,-4,-8,-6
0,0,0,0,0,0,11,23,14,-3,-8,-6
0,0,0,0,0,0,12,24,15,-3,-8,-5
0,1,0,-1,0,0,12,25,15,-2,-8,-5
2,2,0,-3,1,1,12,25,16,-2,-7,-5
3,3,0,-4,1,2,12,26,16,-1,-6,-5
4,4,0,-4,1,2,12,26,17,-1,-5,-6
4,4,0,-4,2,1,12,26,16,-1,-5,-8
4,3,-1,-4,2,0,11,25,15,-2,-6,-10
5,3,-2,-4,4,0,10,25,15,-1,-6,-11
7,3,-4,-5,5,0,10,25,16,-1,-6,-10
7,3,-4,-6,6,0,10,25,16,-1,-7,-9
6,3,-4,-5,5,0,10,26,17,-1,-7,-8
7,3,-4,-6,5,0,10,26,17,-1,-7,-7
9,3,-5,-7,7,0,10,26,17,-1,-7,-7
9,3,-5,-7,7,0,10,27,17,-1,-7,-8
7,3,-3,-5,5,0,10,28,18,0,-6,-9
4,3,-1,-3,3,0,11,29,19,1,-4,-10
4,3,-1,-3,3,0,10,30,19,1,-3,-11
4,2,-2,-3,3,0,10,29,19,2,-3,-10
4,2,-2,-3,3,0,9,29,19,2,-3,-10
3,2,-2,-3,3,0,9,30,20,2,-4,-11
2,2,-1,-2,1,0,9,30,20,2,-4,-11
1,1,0,-1,0,0,9,30,20,2,-4,-11
-1,1,2,0,-2,1,10,31,21,2,-4,-9
-2,1,4,0,-3,2,10,31,21,2,-4,-6
-1,1,2,0,-1,1,9,31,21,2,-5,-5
2,1,-1,-2,2,-1,7,30,19,1,-7,-5
4,1,-3,-3,3,-1,7,30,19,1,-6,-5
3,3,-1,-3,2,0,7,31,21,3,-4,-5
5,5,0,-5,3,2,8,32,22,4,-3,-5
7,7,0,-7,4,3,8,33,23,5,-2,-5
7,8,2,-8,3,4,9,35,24,7,0,-6
4,9,5,-7,0,6,10,36,26,8,1,-6
1,8,7,-4,-3,6,11,37,27,10,2,-6
-1,6,7,-3,-4,6,10,37,26,10,2,-6
-1,6,7,-2,-4,6,10,37,26,10,2,-5
0,7,6,-3,-3,7,9,37,26,11,3,-4
2,8,5,-5,-1,7,8,36,25,11,3,-2
3,8,5,-5,0,6,7,35,24,9,2,0
2,7,5,-5,0,6,6,35,24,9,1,2
3,8,5,-6,0,6,5,34,24,9,1,5
6,9,3,-8,2,5,4,33,23,8,1,6
8,9,1,-9,4,4,3,33,23,8,1,5
8,10,1,-9,4,5,3,33,23,9,2,4
8,9,0,-9,5,5,2,33,23,9,3,3
8,9,1,-9,4,5,2,33,23,10,4,3
7,8,2,-8,3,5,2,33,23,11,4,3
8,9,2,-9,3,6,2,33,23,11,5,3
9,11,3,-10,4,6,2,33,23,12,5,4
9,12,4,-11,3,7,2,33,23,12,6,5
9,12,4,-11,2,8,2,33,24,13,6,6
8,12,4,-11,2,8,2,33,24,13,7,7
8,12,4,-10,2,8,1,32,24,13,7,7
7,11,4,-10,1,8,0,32,24,14,8,7
7,11,5,-9,1,8,0,31,24,14,8,8
6,11,5,-9,1,8,0,30,23,14,8,9
6,11,6,-9,0,8,0,29,23,14,8,9
6,12,6,-9,0,8,0,29,22,14,9,9
7,13,7,-10,0,9,0,29,23,15,10,9
7,15,8,-11,-1,11,0,30,23,15,11,9
7,15,8,-11,0,11,-1,29,23,15,11,9
8,15,7,-12,1,11,-2,28,23,15,11,9
9,15,6,-12,1,11,-3,27,22,14,11,9
8,15,6,-11,1,11,-3,26,22,14,11,9
6,15,8,-10,-1,12,-2,26,22,15,12,10
4,15,11,-10,-3,13,-1,26,23,16,13,11
6,15,9,-11,-1,12,-2,25,22,16,13,10
10,14,5,-13,2,10,-4,23,20,14,12,8
10,13,4,-12,3,9,-4,22,19,13,12,8
9,13,4,-11,3,8,-4,21,19,13,11,8
9,13,3,-11,3,8,-4,20,18,13,10,9
9,12,3,-10,2,8,-4,19,18,13,10,9
9,12,3,-10,2,7,-4,17,17,13,9,9
10,13,3,-11,3,8,-4,17,17,13,9,9
12,14,3,-13,4,8,-4,16,17,13,9,9
14,16,2,-15,5,8,-5,16,17,12,9,9
13,16,4,-15,4,9,-5,15,17,12,10,9
10,16,7,-13,1,11,-4,15,17,13,11,9
6,16,10,-11,-1,12,-4,15,18,13,13,7
3,16,13,-10,-4,14,-3,15,18,14,14,6
3,16,13,-10,-4,14,-3,15,18,14,14,6
5,15,11,-10,-3,12,-3,13,16,13,12,6
5,13,9,-10,-2,11,-3,11,15,12,10,7
6,12,7,-10,0,10,-3,10,14,11,9,7
7,12,5,-10,1,9,-4,9,12,10,7,8
7,11,5,-9,1,8,-4,8,11,9,7,9
6,11,5,-9,0,9,-4,7,11,8,7,10
8,12,3,-10,2,8,-4,6,10,7,6,10
11,12,1,-11,5,6,-5,5,9,5,4,10
10,12,2,-11,4,7,-4,5,9,5,4,10
7,11,5,-9,1,8,-2,5,10,6,4,10
5,11,6,-8,0,8,-2,5,10,6,5,9
5,10,6,-8,0,8,-2,5,9,6,4,6
6,10,4,-8,0,7,-2,4,8,5,3,5
7,10,3,-8,2,6,-3,3,7,5,3,5
8,9,2,-8,3,5,-3,2,7,4,2,5
7,9,3,-8,2,6,-2,2,7,3,3,6
5,9,5,-7,0,7,-1,2,7,4,3,7
5,9,4,-7,0,7,-1,2,7,4,3,6
5,8,3,-7,0,6,-1,1,6,3,3,5
3,7,4,-6,-1,6,-1,0,5,2,3,4
1,6,5,-4,-2,6,-1,0,5,2,3,3
0,5,6,-3,-3,6,-1,0,4,1,2,3
-1,5,6,-2,-3,5,-1,-1,3,1,2,2
1,5,4,-2,-1,4,-2,-1,3,0,1,0
2,4,2,-3,0,3,-2,-2,2,0,0,0
3,5,2,-4,0,3,-1,-2,1,-1,0,0
4,6,1,-5,1,3,-1,-2,1,-1,0,0
5,6,1,-6,2,3,0,-3,1,-1,0,0
6,6,0,-6,3,3,0,-3,1,-1,-1,0
6,6,0,-6,3,3,0,-3,1,-1,-1,0
6,6,0,-6,3,3,0,-3,1,-1,0,0
5,5,0,-5,3,2,0,-3,1,-1,0,-1
5,4,0,-5,3,2,0,-3,0,-2,0,-1
4,4,0,-5,2,2,1,-3,0,-2,0,-2
3,3,1,-4,1,2,1,-3,-1,-2,0,-3
1,2,1,-3,0,1,1,-3,-1,-3,-1,-4
0,1,1,-2,0,1,1,-4,-2,-3,-1,-4
0,1,1,-1,-1,1,1,-4,-2,-3,-1,-4
0,1,2,0,-1,1,1,-4,-2,-3,-2,-3
-1,1,2,0,-2,1,2,-4,-2,-3,-3,-3
-2,1,2,0,-2,1,2,-4,-2,-4,-4,-4
-3,0,2,1,-3,1,2,-4,-3,-4,-4,-4
-4,-1,3,3,-4,1,2,-4,-3,-5,-4,-5
-5,-1,4,3,-5,1,2,-4,-3,-5,-4,-5
-5,0,4,3,-4,1,2,-4,-3,-5,-4,-5
-3,0,3,2,-3,1,2,-4,-3,-5,-4,-5
-1,0,1,1,-1,0,1,-5,-4,-6,-5,-5
0,0,0,1,0,-1,0,-5,-4,-6,-5,-5
-3,-1,2,2,-2,0,1,-4,-3,-6,-4,-6
-5,-1,4,3,-4,1,2,-3,-2,-5,-3,-6
-4,0,4,2,-3,1,3,-2,-2,-4,-2,-7
-1,1,2,0,-1,1,3,-2,-2,-5,-2,-7
0,0,0,0,0,0,2,-3,-3,-6,-4,-8
0,0,0,0,0,0,2,-4,-3,-6,-6,-10
-1,-1,0,1,-1,0,2,-4,-3,-7,-7,-13
0,-1,0,1,0,-1,1,-4,-4,-7,-7,-15
1,-1,-2,0,1,-1,1,-5,-4,-8,-8,-13
2,0,-3,0,2,-2,1,-5,-5,-9,-9,-9
2,0,-3,-1,3,-2,1,-5,-6,-10,-10,-4
0,-1,-2,0,1,-2,1,-5,-5,-10,-11,-2
-4,-3,0,3,-2,-1,2,-5,-5,-10,-11,-2
-6,-4,2,5,-4,-1,2,-5,-5,-10,-10,-3
-8,-3,3,5,-5,0,3,-4,-5,-10,-9,-4
-8,-2,4,5,-6,0,4,-3,-4,-9,-8,-4
-7,-2,4,4,-6,1,4,-3,-4,-9,-8,-6
-5,-2,2,4,-4,0,3,-3,-4,-9,-8,-9
-4,-3,1,4,-3,-1,3,-3,-4,-9,-8,-11
-3,-3,0,3,-2,-1,3,-3,-3,-9,-8,-12
-5,-3,1,4,-3,-1,3,-2,-3,-9,-9,-12
-8,-4,3,6,-5,0,4,-2,-2,-9,-9,-12
-8,-4,3,6,-6,0,3,-3,-2,-9,-9,-12
-7,-4,2,5,-4,-1,3,-3,-3,-10,-10,-13
-6,-4,1,5,-4,-1,3,-3,-3,-10,-10,-13
-6,-4,2,5,-4,-1,3,-3,-3,-10,-10,-12
-6,-4,2,5,-4,-1,4,-2,-3,-10,-10,-10
-4,-3,1,4,-3,-1,4,-2,-3,-10,-10,-8
-3,-3,0,3,-2,-1,4,-2,-3,-10,-10,-8
-3,-3,0,2,-1,-2,4,-2,-3,-10,-11,-8
-3,-3,0,2,-1,-2,4,-2,-4,-10,-11,-9
-3,-3,0,2,-2,-2,4,-2,-4,-10,-11,-10
-5,-3,1,4,-4,-1,4,-2,-3,-10,-11,-10
-8,-4,3,5,-6,-1,5,-1,-2,-9,-11,-10
-7,-5,2,6,-5,-1,5,-1,-2,-10,-13,-10
-6,-5,0,5,-3,-2,4,-1,-3,-10,-14,-12
-6,-6,0,6,-3,-3,4,-2,-3,-10,-14,-12
-7,-7,1,7,-4,-3,4,-2,-3,-10,-13,-12
-6,-7,0,7,-3,-4,3,-2,-3,-10,-13,-13
-5,-7,-1,6,-2,-4,3,-2,-3,-10,-12,-14
-5,-6,0,5,-2,-3,3,-1,-2,-10,-12,-15
-4,-4,0,4,-3,-2,3,0,0,-9,-11,-15
-4,-3,2,4,-3,0,4,1,1,-8,-10,-14
-5,-3,3,5,-4,0,4,1,1,-8,-10,-13
-7,-4,3,6,-5,-1,4,1,1,-8,-10,-14
-9,-6,3,8,-5,-2,4,0,1,-8,-11,-14
-10,-6,4,8,-6,-2,4,1,2,-7,-11,-13
-10,-6,5,8,-7,-1,5,2,3,-7,-10,-12
-10,-6,4,8,-7,0,5,2,3,-7,-10,-12
-8,-6,2,7,-5,-2,5,1,3,-7,-11,-13
-6,-7,0,6,-3,-3,4,1,2,-8,-11,-14
-7,-7,0,7,-4,-3,4,1,3,-7,-11,-14
-9,-6,3,7,-6,-1,5,2,3,-6,-10,-13
-8,-6,3,7,-5,-1,5,2,3,-6,-9,-12
-6,-6,1,6,-3,-2,4,1,3,-7,-10,-13
-4,-6,-1,5,-1,-4,3,0,2,-8,-11,-13
-1,-5,-4,3,1,-5,3,0,1,-9,-12,-13
1,-5,-7,2,4,-6,2,-1,1,-10,-13,-13
1,-5,-7,2,5,-6,1,-1,1,-10,-13,-13
-3,-6,-2,4,0,-4,2,0,3,-8,-11,-13
-6,-6,0,6,-3,-3,3,1,5,-6,-9,-14
-4,-5,-1,4,-1,-4,2,1,4,-6,-9,-16
-5,-5,0,5,-2,-3,2,1,4,-5,-8,-16
-9,-6,3,7,-6,-1,4,3,6,-3,-6,-16
-10,-6,4,7,-7,0,4,4,7,-2,-5,-18
-8,-5,3,6,-5,0,4,4,7,-2,-5,-20
-6,-5,2,5,-4,0,5,4,8,-2,-4,-18
-5,-4,1,4,-2,-1,5,4,8,-2,-4,-14
-3,-5,-1,4,-1,-2,4,2,6,-4,-6,-10
-5,-6,-1,5,-1,-3,3,1,5,-5,-7,-8
-8,-7,0,7,-3,-3,3,1,5,-5,-8,-7
-8,-7,0,7,-4,-3,3,1,5,-5,-8,-6
-7,-7,0,6,-3,-3,2,1,5,-5,-8,-5
-6,-6,0,5,-3,-2,2,1,5,-5,-9,-3
-4,-5,0,5,-2,-2,2,1,5,-6,-9,-2
-2,-5,-2,4,0,-3,1,0,5,-7,-10,-1
0,-5,-4,3,1,-4,1,0,4,-7,-10,-1
0,-4,-3,2,1,-3,1,0,5,-6,-9,-1
-1,-3,-2,2,0,-2,2,0,5,-5,-8,-1
-1,-2,-1,2,0,-2,2,1,6,-5,-7,-1
-1,-2,-1,1,0,-2,2,0,5,-5,-7,-2
1,-2,-3,0,2,-3,1,0,5,-5,-7,-4
2,-2,-5,0,4,-4,0,-1,5,-6,-8,-6
0,-3,-3,2,2,-3,1,0,5,-5,-7,-7
-3,-3,0,4,-1,-2,2,0,6,-4,-6,-7
-5,-3,2,4,-3,-1,2,0,6,-4,-6,-9
-4,-3,1,3,-2,-1,1,0,6,-4,-6,-10
-3,-4,0,3,-1,-3,0,-1,4,-5,-7,-10
-3,-5,-2,4,0,-4,0,-1,3,-6,-8,-10
-2,-5,-3,4,0,-4,0,-1,3,-6,-8,-9
-2,-6,-3,4,0,-4,0,-1,3,-6,-7,-8
-3,-6,-1,5,0,-4,0,-1,3,-5,-7,-7
-4,-6,-1,5,-1,-3,1,-1,3,-5,-6,-6
-4,-6,0,5,-1,-3,1,-1,4,-4,-6,-5
-4,-5,0,5,-1,-3,1,-1,4,-4,-6,-4
-5,-4,1,4,-2,-2,1,0,5,-4,-6,-4
-5,-3,2,4,-3,0,2,0,5,-3,-5,-3
-5,-2,2,4,-3,0,3,1,5,-3,-4,-4
-6,-3,2,5,-4,0,3,0,4,-3,-5,-5
-8,-5,2,7,-5,-1,2,0,4,-4,-5,-6
-6,-7,-1,7,-3,-3,1,-2,2,-5,-7,-8
-3,-8,-4,6,0,-5,-1,-3,1,-6,-8,-10
-2,-7,-5,4,1,-6,-1,-4,0,-7,-9,-11
-1,-7,-6,3,2,-6,-2,-4,0,-8,-9,-11
0,-6,-6,3,3,-6,-2,-4,0,-8,-9,-11
-2,-6,-4,3,1,-5,-1,-3,1,-8,-8,-10
-3,-5,-3,4,0,-4,0,-2,1,-7,-8,-10
-3,-5,-2,4,0,-4,0,-2,1,-7,-8,-9
-5,-6,0,5,-1,-3,1,-2,1,-6,-7,-8
-8,-7,0,7,-4,-3,0,-3,1,-6,-7,-8
-8,-8,0,8,-4,-4,-1,-4,1,-6,-8,-8
-8,-9,-1,8,-4,-5,-1,-4,1,-7,-8,-8
-7,-8,-1,7,-3,-4,-1,-3,1,-7,-8,-7
-5,-6,-2,5,-2,-3,-1,-3,1,-7,-8,-7
-2,-5,-3,3,0,-3,-1,-3,0,-7,-8,-8
0,-4,-4,2,2,-3,-1,-3,0,-7,-8,-10
1,-4,-5,1,3,-4,-1,-3,0,-7,-8,-12
1,-4,-4,1,3,-4,-1,-4,0,-7,-8,-13
1,-4,-4,1,3,-4,-1,-4,0,-7,-7,-13
2,-4,-5,0,4,-4,-1,-5,0,-7,-7,-13
1,-3,-5,0,3,-4,0,-4,0,-7,-6,-12
0,-3,-3,1,1,-3,0,-3,1,-6,-5,-10
-2,-4,-2,2,0,-3,0,-3,1,-7,-6,-9
-3,-4,-1,3,0,-3,0,-3,1,-7,-6,-9
-5,-4,1,5,-3,-1,1,-2,2,-6,-6,-8
-8,-5,4,6,-6,0,2,-1,3,-5,-5,-8
-8,-5,4,6,-6,0,2,-1,3,-5,-6,-7
-8,-4,4,6,-6,0,2,-1,3,-5,-6,-4
-6,-4,2,5,-4,-1,1,-2,2,-6,-7,-3
-3,-4,-1,3,-1,-3,0,-3,0,-8,-8,-3
-1,-5,-3,3,1,-4,0,-4,0,-9,-9,-4
-1,-5,-4,3,2,-5,0,-4,-1,-9,-10,-4
-3,-6,-3,4,0,-4,0,-4,0,-9,-10,-4
-6,-7,0,6,-3,-3,0,-4,0,-8,-9,-4
-7,-7,1,6,-4,-3,0,-4,0,-8,-9,-6
-5,-6,0,5,-2,-3,0,-4,0,-8,-9,-10
-3,-5,-2,4,0,-4,-1,-4,0,-8,-10,-12
-3,-6,-3,4,0,-4,-1,-4,0,-8,-10,-13
-4,-6,-2,5,0,-4,-1,-4,0,-8,-9,-11
-4,-6,-1,5,-1,-4,-1,-4,0,-8,-10,-8
-4,-6,-1,5,-1,-4,-1,-4,-1,-9,-11,-6
-5,-6,0,5,-2,-3,-1,-4,-1,-9,-11,-5
-5,-5,0,5,-2,-3,-1,-4,0,-9,-11,-5
-4,-5,0,4,-2,-2,0,-4,0,-9,-11,-6
-5,-5,1,5,-3,-2,0,-3,1,-8,-10,-6
-8,-5,2,7,-5,-1,0,-2,1,-7,-9,-6
-7,-6,0,7,-4,-2,0,-2,1,-7,-9,-6
-6,-7,-1,7,-2,-4,0,-3,0,-7,-9,-7
-6,-7,-1,7,-2,-4,0,-4,0,-7,-8,-7
-5,-7,-2,5,-1,-4,1,-4,0,-7,-8,-7
-3,-7,-3,4,0,-5,0,-4,0,-8,-8,-7
-3,-8,-4,4,1,-6,0,-5,-1,-9,-8,-7
-5,-9,-3,6,0,-6,-1,-5,-1,-9,-9,-7
-7,-9,-1,7,-3,-5,0,-4,-1,-9,-8,-7
-8,-9,-1,7,-3,-4,0,-4,-1,-8,-8,-7
-6,-8,-3,6,-1,-5,-1,-5,-2,-9,-9,-8
-4,-8,-4,5,0,-6,-2,-5,-2,-9,-10,-9
-5,-8,-3,5,0,-5,-1,-5,-2,-9,-9,-10
-5,-6,0,5,-2,-3,0,-4,-1,-8,-8,-10
-6,-5,2,5,-4,-1,0,-3,0,-7,-7,-10
-6,-4,3,5,-5,0,1,-2,0,-6,-6,-9
-7,-4,3,5,-4,-1,0,-3,0,-6,-7,-9
-6,-5,0,6,-3,-2,0,-4,0,-7,-8,-9
-5,-6,-2,6,-1,-4,-1,-4,0,-8,-10,-8
-6,-7,-2,6,-1,-4,0,-4,0,-9,-10,-7
-9,-8,0,8,-4,-4,0,-4,0,-8,-9,-7
-9,-8,1,8,-4,-4,0,-4,0,-8,-8,-7
-5,-7,-1,6,-2,-4,0,-4,0,-8,-8,-8
-4,-6,-1,4,-1,-4,0,-4,0,-7,-7,-7
-4,-5,0,4,-1,-3,0,-3,1,-7,-7,-6
-3,-5,-2,3,0,-3,0,-3,0,-7,-7,-7
-3,-4,-2,3,0,-3,0,-3,0,-7,-7,-8
-5,-3,0,4,-2,-1,1,-3,1,-6,-6,-9
-5,-2,2,3,-3,0,1,-2,2,-6,-6,-9
-3,-1,2,2,-2,0,1,-2,2,-6,-6,-8
-4,-1,4,2,-4,1,2,-2,3,-5,-6,-6
-5,-1,4,3,-4,1,2,-1,3,-5,-6,-6
-3,-2,2,2,-2,0,1,-2,2,-6,-7,-7
-4,-2,1,3,-2,0,0,-2,2,-6,-7,-8
-4,-3,1,4,-2,0,1,-2,2,-5,-6,-8
-5,-2,2,4,-3,0,2,-1,3,-5,-5,-7
-4,-2,2,3,-3,1,2,-1,3,-5,-5,-6
-4,-2,3,3,-4,1,3,-1,3,-5,-6,-5
-5,-2,5,3,-5,2,3,-1,3,-5,-6,-5
-5,-1,5,3,-5,2,3,-1,3,-5,-6,-4
-4,-1,4,3,-4,1,3,-1,3,-5,-6,-4
-4,-1,3,3,-4,1,3,-1,3,-5,-7,-5
-5,-1,3,3,-4,1,3,-1,4,-5,-6,-7
-7,-1,4,4,-5,1,3,0,4,-4,-5,-8
-6,-1,4,3,-5,1,3,0,5,-4,-5,-10
-6,-1,5,3,-5,2,3,0,5,-4,-5,-9
-8,-1,6,4,-7,2,3,0,5,-4,-5,-7
-6,-2,5,4,-5,1,2,-1,4,-5,-6,-6
-4,-2,3,3,-3,0,1,-2,3,-6,-7,-5
-5,-1,4,3,-4,1,1,-2,3,-5,-7,-4
-6,-1,5,3,-5,2,1,-1,4,-5,-6,-3
-5,-1,3,3,-4,2,1,-2,3,-5,-6,-2
-4,-2,1,2,-2,0,0,-4,2,-6,-7,-2
-3,-3,0,2,-1,-1,-1,-5,1,-7,-8,-3
-3,-2,1,2,-2,0,-1,-4,1,-6,-7,-3
-3,-1,3,2,-3,1,-1,-4,1,-6,-6,-3
-3,-1,3,2,-3,1,-2,-4,1,-6,-6,-4
-5,-1,4,3,-5,2,-2,-5,1,-6,-6,-4
-6,0,5,3,-5,2,-2,-5,1,-6,-6,-5
-3,0,3,1,-3,2,-3,-5,1,-6,-6,-6
-1,1,2,0,-1,2,-3,-6,0,-7,-6,-7
-2,0,2,1,-2,1,-3,-6,0,-7,-6,-9
-4,-1,2,3,-3,1,-3,-6,0,-6,-6,-9
-3,-2,1,2,-2,0,-4,-6,0,-7,-6,-9
0,-2,-2,1,0,-1,-4,-6,-1,-8,-7,-10
1,-3,-3,1,2,-2,-4,-7,-2,-8,-7,-9
1,-3,-4,1,2,-3,-4,-7,-2,-9,-8,-7
1,-4,-5,1,3,-4,-4,-7,-3,-9,-8,-6
1,-5,-5,2,3,-5,-5,-7,-3,-10,-8,-6
0,-6,-6,3,3,-6,-5,-8,-4,-10,-8,-7
0,-8,-7,4,3,-7,-6,-8,-5,-11,-9,-8
-1,-9,-7,5,3,-8,-6,-9,-6,-12,-11,-8
-2,-10,-7,6,2,-9,-6,-9,-6,-12,-12,-8
-4,-10,-6,7,1,-8,-5,-8,-6,-12,-12,-7
-4,-10,-5,6,0,-7,-4,-8,-6,-12,-11,-7
-2,-9,-6,5,2,-7,-4,-8,-6,-12,-11,-8
-1,-8,-6,4,2,-7,-4,-8,-6,-12,-11,-8
-4,-7,-2,5,-1,-4,-3,-6,-4,-10,-10,-8
-7,-5,2,6,-4,-1,-2,-4,-2,-9,-8,-6
-4,-3,1,3,-2,-1,-1,-4,-2,-8,-7,-6
-1,-3,0,1,0,-1,-1,-4,-2,-8,-7,-5
-2,-3,-1,3,0,-1,-1,-4,-2,-8,-7,-5
-4,-4,0,5,-2,-2,0,-4,-2,-8,-7,-6
-6,-6,0,6,-3,-3,0,-4,-2,-9,-8,-7
-5,-7,-2,6,-1,-5,-1,-6,-4,-11,-10,-8
-4,-8,-5,6,0,-7,-2,-7,-6,-12,-12,-8
-6,-9,-3,7,-1,-6,-1,-6,-5,-11,-11,-8
-7,-8,-1,7,-2,-5,0,-5,-4,-10,-10,-7
-6,-8,-1,6,-1,-4,1,-4,-3,-10,-9,-8
-5,-8,-3,6,0,-5,1,-4,-3,-10,-9,-10
-4,-9,-5,7,1,-6,0,-5,-4,-11,-9,-13
-4,-10,-7,7,2,-8,-1,-6,-5,-12,-10,-16
-6,-10,-6,8,0,-8,0,-6,-5,-12,-10,-17
-8,-10,-2,9,-2,-6,0,-5,-5,-11,-9,-15
-7,-9,-2,8,-2,-5,0,-4,-5,-11,-9,-13
-4,-10,-5,6,1,-7,0,-5,-6,-12,-11,-13
-2,-10,-7,6,2,-8,-1,-6,-6,-13,-13,-12
-4,-10,-5,7,1,-7,-1,-5,-6,-13,-14,-10
-6,-10,-3,8,-1,-6,0,-4,-5,-12,-13,-8
-8,-9,-1,9,-3,-5,1,-4,-5,-11,-12,-6
-9,-8,0,8,-4,-4,2,-3,-4,-11,-11,-4
-8,-8,-1,8,-3,-5,2,-3,-4,-11,-11,-4
-7,-8,-2,7,-2,-6,1,-4,-5,-11,-11,-5
-6,-9,-3,7,-2,-6,1,-4,-5,-12,-11,-6
-9,-9,0,8,-4,-5,2,-3,-4,-11,-10,-7
-11,-9,2,9,-6,-3,3,-2,-2,-9,-9,-8
-8,-8,0,8,-3,-4,2,-3,-2,-10,-9,-10
-6,-8,-2,7,-2,-5,2,-4,-3,-10,-9,-12
-7,-8,-2,7,-2,-5,2,-4,-3,-10,-9,-12
-8,-9,-2,8,-3,-5,2,-4,-4,-10,-10,-10
-9,-9,-1,9,-4,-5,2,-4,-4,-10,-10,-9
-9,-10,-1,9,-4,-5,2,-4,-5,-11,-11,-9
-7,-10,-3,9,-2,-6,2,-4,-5,-13,-12,-13
-6,-11,-4,9,-1,-7,2,-3,-6,-15,-14,-17
-8,-13,-5,11,-1,-9,3,-2,-7,-18,-16,-20
-10,-16,-5,13,-2,-10,4,0,-8,-22,-20,-22
-12,-17,-6,15,-3,-11,6,2,-8,-26,-25,-24
-13,-17,-5,15,-4,-11,8,5,-7,-29,-30,-26
-13,-16,-4,15,-4,-10,10,9,-4,-29,-32,-28
-12,-16,-4,14,-4,-10,12,12,0,-28,-32,-29
-10,-14,-4,13,-3,-9,12,14,4,-24,-29,-29
-8,-11,-3,10,-3,-6,11,15,11,-16,-22,-24
-5,-6,0,6,-3,-2,8,15,18,-6,-12,-16
-2,0,2,1,-2,1,4,14,26,7,0,-6
0,6,4,-3,-2,5,0,12,32,23,15,4
5,11,4,-8,0,7,-6,8,37,41,32,18
10,16,4,-13,2,10,-13,4,44,65,54,36
16,24,7,-20,4,15,-20,-1,51,94,82,60
27,35,8,-31,9,21,-27,-10,56,125,112,84
41,46,6,-43,17,26,-36,-20,56,155,141,107
50,56,7,-53,21,31,-44,-32,51,181,168,130
57,63,6,-60,25,34,-54,-47,41,201,190,150
67,67,0,-67,33,33,-65,-65,27,215,206,167
77,69,-8,-73,42,30,-76,-84,8,219,215,182
84,69,-16,-76,49,26,-85,-100,-14,210,217,194
86,67,-20,-76,53,23,-91,-115,-39,189,210,199
85,66,-20,-75,52,23,-93,-128,-63,162,197,198
81,65,-16,-73,48,25,-94,-141,-84,134,181,190
72,63,-9,-68,41,27,-92,-152,-103,101,158,174
61,60,0,-60,31,29,-86,-161,-123,61,129,151
46,55,8,-50,19,31,-78,-167,-141,16,97,126
32,48,15,-40,9,31,-68,-170,-157,-26,64,101
22,38,15,-30,3,26,-58,-167,-167,-60,34,77
13,27,13,-20,0,20,-49,-158,-168,-82,9,57
6,18,11,-12,-2,15,-41,-144,-161,-92,-9,39
2,11,10,-6,-3,11,-36,-130,-149,-93,-21,24
1,8,8,-4,-3,8,-33,-117,-135,-90,-28,12
0,5,5,-3,-2,5,-31,-104,-121,-84,-31,3
-1,1,2,0,-1,1,-29,-92,-107,-78,-33,-5
-3,-3,0,3,-1,-2,-27,-80,-93,-71,-34,-12
-6,-4,1,6,-4,-2,-22,-68,-80,-63,-33,-15
-9,-5,3,7,-7,-1,-17,-56,-66,-53,-30,-14
-10,-5,4,7,-7,0,-12,-45,-54,-45,-27,-13
-8,-4,4,6,-7,0,-9,-36,-44,-38,-25,-11
-7,-4,3,5,-5,0,-7,-28,-36,-33,-23,-10
-6,-4,3,5,-4,0,-5,-21,-28,-29,-21,-10
-6,-4,2,5,-4,-1,-3,-15,-21,-25,-19,-9
-6,-4,1,5,-4,-2,-1,-9,-14,-21,-17,-9
-6,-4,0,5,-3,-3,0,-5,-9,-18,-16,-10
-7,-5,0,6,-3,-3,2,-2,-6,-16,-15,-12
-6,-6,-1,6,-2,-4,3,0,-4,-14,-14,-15
-3,-7,-5,5,1,-6,3,0,-3,-14,-14,-17
-2,-8,-6,5,2,-7,3,1,-3,-14,-14,-17
-7,-9,-2,9,-2,-6,5,3,-1,-13,-14,-16
-12,-10,1,12,-6,-5,6,5,0,-12,-13,-14
-13,-11,0,12,-6,-5,5,5,1,-13,-14,-14
-11,-11,-1,11,-4,-6,4,5,0,-13,-16,-14
-7,-10,-4,9,-2,-7,4,5,0,-13,-16,-13
-4,-9,-5,6,0,-7,4,5,1,-12,-16,-12
-1,-8,-6,4,2,-6,5,6,1,-11,-15,-12
0,-7,-7,3,3,-6,6,7,1,-11,-14,-13
2,-6,-7,2,5,-6,6,7,1,-11,-14,-14
2,-6,-8,2,5,-6,5,7,2,-11,-14,-14
-1,-7,-6,4,3,-6,5,8,3,-10,-13,-14
-3,-7,-5,5,1,-6,6,9,4,-10,-13,-14
-3,-7,-6,5,1,-6,6,9,4,-10,-13,-14
-3,-7,-6,5,1,-6,6,9,4,-9,-13,-13
-4,-7,-5,6,0,-6,7,10,4,-9,-13,-11
-3,-7,-4,6,0,-6,7,10,4,-9,-13,-10
-3,-8,-5,6,1,-6,7,10,4,-9,-13,-11
-2,-9,-5,6,1,-7,7,10,4,-9,-13,-12
-2,-9,-6,6,2,-7,6,10,4,-10,-14,-13
-3,-9,-6,6,2,-7,6,10,4,-10,-14,-13
-5,-9,-5,7,0,-7,6,10,4,-9,-13,-12
-7,-9,-4,8,-2,-6,6,10,4,-9,-13,-13
-9,-10,-3,9,-3,-6,6,10,4,-8,-12,-15
-8,-11,-3,10,-3,-6,6,10,4,-8,-12,-16
-7,-11,-3,10,-2,-6,6,10,4,-8,-12,-16
-6,-10,-3,8,-2,-6,7,11,5,-7,-11,-15
-4,-8,-3,6,0,-5,7,12,6,-7,-11,-14
-2,-7,-4,5,1,-6,7,13,6,-7,-11,-15
-1,-6,-5,4,1,-6,7,13,6,-7,-11,-17
-1,-6,-5,4,1,-6,7,12,6,-7,-10,-18
-1,-6,-5,4,2,-6,7,12,6,-7,-10,-17
1,-6,-7,2,4,-6,7,12,6,-7,-11,-17
3,-7,-9,2,6,-8,6,11,5,-8,-13,-17
2,-8,-10,3,6,-9,6,11,4,-9,-14,-15
0,-8,-7,5,3,-7,7,12,5,-8,-12,-13
-1,-8,-6,5,2,-6,7,12,6,-7,-11,-11
-1,-7,-6,4,2,-6,7,12,5,-6,-11,-11
0,-7,-7,3,3,-6,7,12,5,-6,-11,-12
1,-6,-8,2,4,-7,7,12,4,-6,-11,-12
0,-7,-7,3,3,-6,7,13,4,-6,-11,-11
-2,-7,-4,5,1,-5,8,14,5,-5,-10,-10
-3,-7,-4,5,1,-5,8,14,5,-5,-10,-11
-2,-7,-6,5,2,-6,7,13,4,-6,-11,-12
-2,-8,-6,5,2,-7,7,12,4,-6,-11,-13
-4,-8,-4,6,0,-6,7,13,4,-6,-11,-11
-5,-8,-3,7,0,-6,7,13,5,-5,-11,-10
-4,-8,-4,7,0,-6,7,13,5,-5,-11,-9
-5,-8,-3,7,0,-6,8,14,5,-5,-11,-8
-3,-8,-4,7,1,-6,8,14,5,-5,-12,-9
-2,-8,-5,6,2,-7,7,14,5,-5,-12,-10
-4,-8,-4,7,0,-6,8,15,6,-4,-11,-10
-4,-7,-3,7,0,-5,8,16,7,-3,-10,-11
-3,-7,-4,6,1,-6,8,16,7,-3,-10,-13
-2,-6,-5,4,2,-6,8,16,7,-3,-10,-14
-1,-4,-4,3,1,-5,9,17,8,-2,-9,-14
-2,-3,-2,3,0,-3,10,18,9,-1,-8,-13
-1,-3,-3,2,1,-3,10,18,9,-1,-8,-12
1,-4,-5,2,3,-4,9,17,9,-2,-9,-12
1,-4,-6,2,4,-5,8,17,9,-2,-9,-11
0,-5,-6,3,3,-5,8,17,9,-3,-10,-9
1,-5,-7,3,4,-6,7,16,8,-4,-10,-8
3,-6,-10,2,6,-8,6,15,7,-4,-11,-9
3,-6,-10,1,7,-8,6,15,8,-4,-11,-10
2,-5,-8,2,5,-6,7,17,9,-3,-10,-10
0,-5,-6,2,3,-5,8,18,11,-2,-8,-10
0,-5,-4,3,2,-4,8,19,12,-1,-8,-10
-1,-6,-3,4,1,-4,8,20,12,0,-7,-11
-4,-6,-2,5,0,-4,9,21,13,1,-7,-11
-6,-7,-1,6,-2,-4,9,21,13,1,-6,-10
-6,-7,-1,6,-2,-4,9,21,13,2,-6,-8
-4,-5,-2,4,-1,-3,9,22,13,2,-5,-7
-2,-4,-2,3,0,-3,9,22,14,3,-5,-7
-2,-4,-2,3,0,-3,9,23,15,3,-5,-8
-2,-4,-2,3,0,-3,9,23,15,3,-5,-10
-1,-4,-3,2,1,-4,8,23,15,3,-5,-11
0,-3,-5,1,3,-4,8,23,15,3,-5,-11
2,-3,-5,0,4,-4,8,24,15,3,-5,-9
3,-3,-6,0,4,-5,8,24,15,3,-6,-8
3,-3,-6,0,5,-5,7,24,15,3,-6,-8
3,-3,-6,0,4,-5,7,24,15,3,-6,-7
3,-3,-6,0,4,-5,7,24,15,4,-6,-7
3,-3,-6,0,5,-5,6,24,15,4,-6,-8
3,-3,-7,0,5,-5,6,24,15,4,-6,-8
4,-3,-7,0,6,-5,6,25,16,4,-6,-8
5,-2,-8,-1,7,-5,6,25,16,5,-5,-9
5,-1,-7,-2,6,-4,6,26,17,6,-4,-9
4,-1,-6,-1,5,-3,6,27,18,8,-2,-9
1,-1,-2,0,1,-2,6,28,19,9,0,-9
-2,-1,2,2,-2,0,7,30,21,11,1,-9
-4,0,3,2,-4,1,8,31,22,13,2,-9
-3,0,2,1,-2,0,7,30,21,13,2,-9
-1,-1,0,1,-1,0,6,30,21,12,0,-9
-3,-1,1,2,-2,0,7,30,21,12,0,-7
-4,-1,3,3,-4,1,7,30,21,12,1,-3
-2,0,2,1,-2,1,6,30,20,12,1,0
2,2,0,-2,1,1,6,29,20,12,1,1
6,4,-2,-5,4,1,5,29,20,12,0,2
8,4,-3,-6,5,1,4,29,20,12,0,1
6,4,-1,-5,4,2,4,29,20,12,1,2
5,5,0,-5,3,3,4,30,20,13,2,3
5,5,-1,-5,3,3,4,30,20,14,2,4
5,6,0,-5,2,3,4,30,20,15,3,4
5,6,1,-5,1,4,3,30,21,16,4,4
6,6,0,-6,2,3,2,29,20,16,5,3
6,6,0,-6,3,3,1,29,19,16,5,1
7,7,0,-6,4,3,1,29,19,17,6,0
7,8,0,-7,3,4,1,29,20,18,7,0
7,9,1,-7,3,5,1,29,20,19,8,0
7,9,2,-7,3,5,1,29,21,19,9,1
7,10,2,-8,3,5,1,28,20,19,9,2
7,9,2,-8,3,5,0,28,20,19,9,3
5,9,3,-7,1,6,0,28,20,20,10,4
1,9,7,-5,-2,7,1,28,20,21,10,7
1,8,7,-4,-2,7,0,27,19,21,10,9
4,8,4,-5,0,6,-2,25,18,19,9,10
5,9,3,-6,1,6,-2,24,17,19,9,11
6,9,3,-7,1,6,-2,23,17,19,10,11
6,9,3,-7,1,7,-2,23,16,19,10,11
8,10,2,-9,2,7,-2,22,16,19,11,10
9,12,2,-10,3,7,-2,22,16,20,11,10
9,13,3,-11,3,8,-2,22,16,20,12,10
11,13,2,-11,4,7,-3,21,15,20,11,9
11,14,2,-12,4,7,-3,20,15,20,11,9
11,14,2,-12,4,8,-4,20,14,20,11,11
11,14,1,-12,5,7,-5,18,13,19,11,11
12,13,0,-12,6,6,-5,17,12,18,10,11
11,13,1,-12,5,7,-5,17,12,18,11,10
10,13,2,-11,3,8,-4,16,12,19,12,10
10,13,2,-11,3,8,-4,16,12,19,13,8
11,13,2,-12,4,7,-4,15,12,19,13,7
11,13,2,-12,4,8,-4,14,11,19,13,7
10,13,3,-11,3,8,-4,14,11,19,13,8
7,13,6,-9,0,9,-4,14,11,19,13,9
5,12,7,-8,-1,10,-4,13,11,19,14,10
5,12,6,-8,-1,9,-4,12,10,18,13,10
4,12,7,-7,-1,9,-4,11,9,17,13,11
3,12,8,-6,-3,10,-4,10,9,17,12,12
3,12,7,-7,-2,9,-4,9,8,17,11,12
7,12,4,-8,1,8,-5,8,7,15,9,11
9,12,2,-9,3,7,-5,6,6,14,9,10
7,12,3,-9,2,7,-5,6,6,14,9,11
5,11,5,-8,0,8,-4,6,6,15,10,10
6,11,4,-8,0,7,-4,5,5,14,9,8
7,11,3,-9,2,7,-5,3,4,13,9,6
8,11,2,-9,2,7,-4,2,3,12,10,6
9,11,1,-9,3,6,-4,1,2,11,10,7
9,10,0,-9,4,6,-4,0,1,10,9,8
10,9,-1,-9,5,5,-5,0,0,9,7,8
10,9,-2,-9,6,4,-5,-1,0,8,6,7
8,8,-1,-7,4,4,-5,-1,-1,8,6,5
4,7,1,-4,1,4,-4,-1,-1,8,7,3
1,6,3,-2,0,4,-4,-1,-1,8,7,2
0,5,3,-2,-1,4,-3,-2,-2,8,7,2
0,4,3,-1,-2,4,-3,-2,-2,7,6,3
-1,3,3,0,-2,3,-3,-3,-2,6,4,4
0,2,1,0,0,2,-4,-4,-4,5,2,3
0,1,1,0,-1,1,-3,-4,-4,4,2,3
-2,1,3,1,-2,2,-2,-4,-4,4,2,3
0,2,2,0,-1,2,-2,-4,-5,3,2,4
1,3,1,-1,0,2,-2,-5,-6,3,2,5
1,3,2,-1,0,2,-1,-5,-6,3,2,6
-2,3,5,0,-3,4,0,-4,-5,4,3,7
-1,3,4,0,-2,4,0,-4,-5,4,3,6
4,3,0,-3,3,2,-1,-6,-7,2,2,4
4,3,-1,-3,3,1,-1,-6,-8,2,2,2
1,2,0,-1,1,1,0,-6,-8,2,2,1
2,2,-1,-1,2,0,-1,-7,-9,0,1,-1
3,1,-4,-2,4,-2,-2,-8,-11,-2,0,-2
3,0,-4,-1,4,-3,-2,-9,-11,-3,-2,-1
3,-1,-5,0,4,-4,-3,-9,-12,-4,-3,-1
4,-1,-6,-1,5,-4,-3,-9,-12,-4,-2,-1
5,0,-6,-3,5,-3,-2,-8,-11,-3,-1,-1
4,0,-4,-2,4,-2,0,-8,-11,-3,-1,-1
3,0,-4,-2,4,-2,0,-8,-11,-3,-1,-2
5,0,-5,-2,5,-2,0,-8,-11,-4,-2,-2
5,0,-5,-2,5,-2,0,-8,-12,-5,-2,-1
1,-2,-4,0,3,-3,0,-9,-13,-5,-3,-2
-1,-4,-4,3,1,-4,0,-9,-13,-6,-3,-4
-1,-5,-4,3,2,-4,0,-9,-14,-6,-3,-6
1,-4,-5,2,3,-4,0,-9,-14,-5,-3,-6
2,-2,-5,1,4,-3,0,-9,-13,-5,-3,-5
1,-2,-4,1,3,-3,0,-9,-13,-5,-3,-4
1,-2,-4,1,2,-3,0,-9,-13,-6,-3,-3
1,-2,-4,1,2,-4,0,-8,-13,-6,-3,-3
-1,-2,-2,2,1,-3,1,-7,-12,-5,-3,-3
-2,-3,-2,3,0,-3,1,-7,-12,-5,-3,-4
-1,-4,-4,3,1,-4,1,-8,-13,-6,-3,-5
-1,-4,-4,3,2,-4,1,-8,-13,-6,-4,-6
0,-4,-5,2,3,-4,1,-9,-13,-7,-4,-6
0,-4,-4,2,3,-4,1,-9,-13,-7,-4,-6
-1,-4,-3,3,1,-3,1,-8,-12,-7,-4,-6
-1,-4,-3,4,1,-4,1,-8,-13,-8,-5,-6
-1,-4,-4,4,1,-4,1,-8,-13,-8,-6,-7
-2,-4,-3,4,0,-4,1,-8,-13,-8,-6,-7
-1,-4,-4,3,1,-4,2,-8,-13,-8,-6,-7
0,-4,-5,2,2,-5,1,-8,-13,-8,-7,-7
0,-4,-5,2,2,-4,2,-8,-13,-8,-7,-7
0,-5,-4,3,1,-4,2,-7,-12,-8,-6,-8
-2,-5,-3,4,0,-4,2,-7,-12,-8,-6,-9
-3,-6,-3,5,0,-4,2,-7,-13,-9,-6,-11
-3,-6,-4,5,0,-5,2,-8,-13,-9,-6,-13
-3,-6,-4,5,0,-5,2,-8,-13,-9,-7,-13
-4,-6,-3,6,-1,-4,3,-7,-13,-9,-7,-11
-3,-7,-4,6,0,-5,3,-7,-13,-10,-8,-10
-2,-7,-5,5,1,-5,2,-8,-13,-11,-9,-9
-1,-7,-6,5,2,-6,2,-8,-13,-12,-10,-7
-3,-7,-5,6,1,-6,2,-7,-13,-13,-11,-6
-5,-7,-3,6,0,-5,3,-7,-12,-12,-11,-5
-6,-7,-2,7,-1,-5,3,-7,-12,-12,-11,-7
-6,-8,-3,7,-1,-6,3,-7,-12,-12,-11,-10
-6,-7,-3,7,-1,-5,3,-6,-11,-11,-10,-12
-5,-6,-2,7,-1,-4,4,-5,-10,-11,-9,-12
-5,-6,-1,6,-1,-3,4,-4,-9,-10,-8,-11
-6,-6,-1,6,-2,-3,4,-4,-9,-10,-9,-10
-6,-7,-1,7,-1,-4,4,-4,-9,-11,-10,-10
-5,-7,-2,7,-1,-4,3,-5,-10,-12,-11,-10
-5,-7,-2,6,-1,-4,3,-5,-10,-12,-11,-9
-4,-6,-2,5,0,-4,4,-5,-10,-12,-11,-9
-2,-5,-3,4,0,-4,4,-5,-10,-12,-11,-9
-1,-4,-4,4,1,-4,5,-4,-10,-11,-10,-9
0,-4,-4,3,2,-4,5,-4,-9,-11,-10,-9
0,-4,-4,3,2,-4,5,-3,-9,-11,-10,-10
-1,-5,-3,4,1,-4,5,-3,-9,-11,-10,-12
-3,-6,-3,5,0,-4,5,-3,-9,-10,-9,-14
-4,-6,-2,5,0,-4,5,-3,-9,-10,-9,-16
-4,-6,-2,5,-1,-4,5,-2,-8,-9,-9,-16
-4,-6,-2,5,-1,-4,5,-2,-8,-9,-10,-15
-4,-7,-2,6,-1,-4,4,-2,-8,-10,-10,-14
-5,-8,-2,7,-1,-5,4,-3,-8,-10,-11,-13
-4,-8,-3,7,0,-6,3,-4,-9,-11,-11,-12
-3,-8,-4,6,1,-6,2,-4,-10,-12,-12,-11
-2,-6,-5,4,2,-6,2,-4,-9,-11,-12,-10
0,-5,-6,2,4,-6,3,-3,-9,-11,-12,-10
0,-4,-6,2,3,-6,3,-3,-8,-11,-11,-9
-4,-5,-2,5,-1,-4,3,-2,-7,-10,-10,-8
-8,-6,1,8,-5,-3,4,-1,-6,-8,-9,-7
-9,-7,1,9,-5,-2,5,0,-5,-7,-8,-8
-8,-6,0,8,-4,-3,4,0,-5,-7,-8,-11
-5,-6,-1,7,-1,-4,4,-1,-5,-7,-8,-14
-2,-5,-3,4,1,-4,4,-1,-5,-7,-8,-15
0,-4,-4,3,2,-4,4,0,-5,-7,-7,-14
-1,-4,-3,3,1,-3,4,0,-4,-6,-7,-12
-3,-4,-2,4,0,-3,4,0,-4,-6,-7,-11
-2,-3,-2,4,0,-3,4,0,-4,-6,-8,-11
-2,-3,-2,3,0,-3,3,0,-4,-6,-8,-10
-2,-4,-3,3,0,-3,3,0,-4,-6,-8,-10
-1,-4,-3,3,1,-4,3,0,-4,-6,-8,-10
-1,-4,-3,2,1,-3,3,0,-4,-6,-8,-9
0,-3,-3,2,2,-3,3,0,-4,-6,-7,-7
-1,-4,-3,2,2,-3,2,-1,-4,-6,-7,-6
-1,-5,-4,3,2,-4,2,-1,-4,-6,-7,-6
-1,-5,-4,3,1,-4,1,-2,-4,-6,-7,-6
-1,-5,-4,3,2,-5,1,-2,-4,-6,-6,-7
0,-4,-4,3,2,-5,2,-2,-3,-6,-6,-8
-2,-4,-2,3,0,-4,2,-1,-2,-5,-5,-9
-4,-4,0,4,-2,-3,3,0,-2,-4,-4,-10
-4,-5,-1,4,-1,-4,2,0,-2,-4,-4,-11
-1,-5,-4,3,1,-5,1,-1,-3,-5,-5,-11
0,-4,-5,2,3,-5,0,-2,-3,-5,-5,-9
0,-3,-4,1,3,-4,1,-1,-3,-5,-5,-7
0,-2,-3,1,2,-3,1,-1,-2,-5,-5,-6
0,-2,-2,1,1,-2,1,0,-2,-5,-4,-5
-1,-2,-1,2,0,-2,2,0,-2,-4,-4,-4
-2,-2,0,2,-1,-1,2,0,-2,-4,-4,-3
-2,-2,0,2,0,-2,2,0,-2,-4,-4,-3
0,-2,-2,1,1,-2,2,-1,-2,-4,-4,-3
2,-2,-4,0,4,-3,1,-2,-3,-5,-4,-4
1,-3,-4,1,3,-4,0,-2,-3,-5,-4,-5
-2,-4,-2,4,0,-3,1,-1,-2,-4,-3,-6
-3,-4,-1,4,0,-3,1,-1,-2,-3,-3,-7
-1,-3,-2,3,1,-3,0,-2,-3,-3,-3,-8
1,-2,-4,1,3,-4,0,-2,-3,-4,-4,-10
2,-2,-5,0,4,-4,0,-2,-4,-4,-5,-10
1,-3,-4,1,3,-4,0,-2,-4,-5,-5,-9
0,-3,-3,2,2,-3,0,-2,-4,-5,-5,-6
-1,-3,-2,2,1,-3,1,-2,-4,-5,-4,-4
-1,-3,-3,3,2,-3,0,-3,-4,-5,-5,-4
-1,-4,-3,3,2,-4,0,-3,-5,-6,-6,-3
-1,-3,-3,3,1,-3,0,-3,-5,-6,-6,-2
0,-2,-2,2,2,-2,0,-2,-4,-5,-5,-1
1,-2,-3,1,3,-3,0,-2,-4,-5,-5,-2
1,-3,-4,1,3,-3,0,-3,-5,-6,-6,-3
0,-3,-3,2,2,-3,0,-3,-5,-6,-5,-3
0,-3,-3,2,3,-3,0,-3,-4,-6,-4,-5
2,-3,-5,1,5,-4,0,-3,-5,-6,-4,-7
2,-3,-5,1,4,-4,0,-3,-5,-6,-4,-9
0,-3,-4,2,3,-4,0,-3,-5,-5,-3,-10
-1,-4,-3,3,2,-4,0,-3,-5,-5,-3,-11
0,-4,-4,3,2,-4,0,-3,-6,-5,-4,-11
0,-4,-5,2,2,-4,0,-3,-6,-5,-4,-10
0,-4,-4,2,2,-4,0,-3,-6,-5,-5,-8
0,-4,-3,3,2,-4,1,-3,-6,-6,-5,-6
-1,-5,-3,3,1,-4,0,-3,-6,-6,-5,-5
-2,-5,-3,4,0,-4,0,-4,-6,-7,-6,-4
-3,-5,-2,5,0,-3,0,-3,-6,-7,-6,-3
-2,-4,-2,4,0,-3,0,-3,-6,-7,-6,-3
-1,-3,-2,2,0,-2,1,-3,-6,-7,-5,-4
-5,-2,1,4,-3,0,2,-1,-4,-5,-4,-3
-5,-2,2,4,-3,0,3,-1,-4,-5,-3,-2
1,-2,-3,1,2,-3,1,-3,-6,-6,-4,-3
4,-2,-7,0,6,-5,0,-4,-7,-7,-5,-4
3,-2,-6,0,5,-4,0,-4,-6,-7,-5,-3
1,-3,-5,1,4,-4,0,-4,-6,-7,-5,-3
0,-4,-5,2,3,-4,0,-4,-7,-7,-5,-4
-1,-4,-4,3,1,-4,0,-4,-7,-7,-5,-5
-2,-5,-3,3,0,-4,0,-4,-7,-7,-5,-6
-1,-5,-4,3,1,-5,0,-4,-7,-8,-5,-8
0,-6,-6,3,3,-6,-1,-5,-8,-8,-6,-9
1,-5,-7,2,4,-6,-1,-4,-8,-8,-6,-8
2,-3,-6,1,5,-5,0,-4,-7,-8,-6,-7
3,-3,-6,0,5,-5,0,-4,-7,-8,-7,-6
2,-2,-5,1,4,-4,0,-4,-7,-8,-7,-6
0,-2,-4,2,2,-4,0,-4,-7,-7,-7,-5
0,-3,-5,2,2,-4,0,-4,-7,-8,-7,-5
0,-4,-5,2,3,-5,0,-5,-8,-8,-8,-6
0,-5,-5,3,3,-5,0,-5,-7,-8,-7,-7
-1,-5,-4,3,2,-4,0,-4,-7,-7,-6,-7
-1,-5,-4,3,2,-4,0,-4,-7,-7,-6,-8
1,-5,-5,2,3,-5,0,-5,-7,-8,-6,-7
2,-5,-7,1,4,-6,0,-5,-8,-9,-7,-7
2,-4,-6,1,4,-5,0,-5,-7,-8,-7,-6
1,-2,-4,0,2,-3,1,-3,-6,-7,-5,-4
-1,-1,0,1,0,-1,3,-2,-4,-6,-4,-2
-3,-2,1,2,-2,-1,3,-2,-4,-5,-3,-3
-3,-3,0,3,-1,-2,2,-2,-4,-6,-3,-6
-3,-4,-1,3,-1,-3,2,-3,-5,-6,-3,-7
-3,-5,-1,4,-1,-3,1,-3,-6,-7,-4,-7
-2,-5,-2,4,0,-4,1,-3,-6,-7,-5,-6
-4,-4,0,4,-2,-2,2,-2,-6,-7,-5,-3
-5,-4,1,4,-3,-2,2,-2,-6,-7,-6,-1
-1,-4,-3,2,1,-4,0,-4,-7,-9,-7,-2
3,-4,-7,0,5,-6,0,-5,-8,-10,-8,-4
1,-4,-5,2,3,-5,0,-4,-7,-9,-7,-5
-3,-5,-2,5,0,-3,1,-3,-6,-7,-5,-8
-3,-5,-1,5,-1,-3,1,-3,-6,-6,-3,-10
-1,-3,-2,3,0,-2,2,-3,-5,-6,-3,-11
0,-2,-3,2,1,-3,1,-3,-5,-6,-3,-10
0,-2,-4,1,2,-3,1,-3,-6,-7,-5,-9
1,-3,-5,1,3,-4,0,-4,-7,-8,-7,-8
1,-3,-5,1,3,-5,0,-4,-8,-9,-8,-6
1,-4,-5,1,3,-5,-1,-4,-8,-10,-8,-4
0,-4,-5,2,3,-5,-1,-4,-9,-10,-8,-2
-2,-5,-4,4,1,-5,-1,-4,-9,-10,-8,-1
-3,-6,-3,5,0,-5,-1,-5,-9,-10,-8,-1
-3,-7,-4,5,0,-6,-1,-5,-9,-10,-8,-1
-1,-6,-5,4,2,-6,-1,-5,-9,-10,-8,-3
0,-6,-5,3,3,-6,-1,-5,-8,-10,-8,-4
-1,-6,-4,4,2,-5,0,-5,-8,-10,-8,-5
-2,-6,-3,4,1,-5,0,-5,-8,-10,-7,-6
-2,-6,-4,4,1,-5,0,-5,-8,-9,-7,-6
-2,-6,-4,4,1,-5,0,-5,-8,-9,-7,-7
-1,-6,-5,4,2,-5,-1,-5,-8,-9,-8,-7
-1,-5,-5,3,2,-5,0,-5,-7,-9,-7,-7
-1,-4,-4,3,1,-4,0,-4,-6,-8,-6,-6
0,-4,-3,2,1,-4,1,-4,-6,-7,-6,-6
0,-3,-2,2,1,-3,1,-4,-5,-7,-5,-6
-1,-2,-1,2,0,-2,1,-3,-5,-6,-5,-6
-3,-2,0,3,-1,-1,2,-3,-4,-6,-4,-6
-5,-2,3,4,-4,0,2,-2,-4,-5,-3,-5
-5,-1,4,3,-4,0,3,-1,-3,-5,-3,-5
-1,0,0,1,-1,-1,2,-2,-4,-6,-4,-7
1,0,-2,0,1,-2,1,-3,-5,-7,-4,-8
0,0,-1,0,0,-1,2,-3,-4,-6,-4,-7
0,0,0,0,0,0,2,-2,-4,-6,-4,-5
2,0,-2,-1,2,-1,2,-3,-4,-6,-5,-3
5,1,-4,-3,5,-2,1,-3,-5,-7,-6,-3
6,2,-5,-3,5,-2,1,-3,-5,-7,-6,-3
4,2,-3,-3,4,-1,2,-2,-4,-6,-5,-4
2,1,-2,-2,2,-1,2,-2,-4,-6,-3,-6
1,1,-1,-1,2,-1,2,-2,-4,-5,-2,-8
1,0,-1,-1,1,-1,2,-2,-3,-5,-2,-10
0,0,0,0,0,0,3,-1,-3,-4,-2,-9
-1,0,0,1,0,0,3,-1,-3,-5,-3,-6
0,-1,0,1,0,-1,2,-2,-4,-6,-5,-4
0,-1,0,1,0,-1,2,-3,-4,-7,-6,-3
0,-1,-1,1,1,-1,1,-3,-5,-7,-6,-3
0,-1,-1,1,1,-2,0,-4,-5,-8,-6,-3
-1,-1,-1,1,0,-1,0,-3,-4,-7,-6,-4
-1,-1,0,1,0,-1,0,-3,-4,-7,-5,-5
0,-1,0,1,0,-1,0,-3,-4,-7,-5,-6
0,-2,-2,1,2,-2,-1,-4,-5,-7,-6,-7
0,-2,-2,1,1,-3,-1,-5,-5,-7,-6,-7
-1,-2,-1,2,0,-2,-2,-5,-5,-7,-6,-6
-2,-1,0,2,0,-2,-2,-6,-5,-7,-6,-5
-2,-1,0,2,0,-1,-3,-7,-6,-7,-5,-4
0,-1,-1,1,0,-1,-4,-7,-7,-8,-5,-3
0,-1,-1,1,1,-1,-4,-7,-7,-8,-5,-3
0,-2,-1,1,0,-1,-4,-7,-8,-8,-5,-4
0,-3,-2,2,1,-2,-5,-8,-8,-9,-5,-5
0,-4,-3,3,2,-4,-5,-8,-9,-9,-6,-6
-1,-4,-4,3,2,-4,-5,-8,-9,-9,-6,-5
-2,-4,-3,3,1,-4,-4,-7,-8,-9,-6,-5
-2,-4,-3,3,1,-4,-4,-7,-8,-9,-5,-6
0,-4,-5,2,3,-5,-4,-7,-9,-10,-6,-7
2,-5,-7,2,4,-7,-5,-7,-10,-11,-7,-7
2,-6,-8,2,5,-7,-5,-7,-10,-11,-7,-5
3,-6,-9,2,6,-8,-6,-8,-11,-12,-8,-4
3,-7,-10,2,7,-9,-6,-9,-11,-12,-9,-4
3,-7,-11,2,7,-10,-6,-10,-12,-13,-10,-4
2,-7,-11,3,7,-10,-6,-10,-12,-13,-10,-5
2,-7,-11,3,7,-10,-6,-9,-12,-13,-9,-6
4,-6,-12,1,8,-9,-5,-9,-12,-13,-9,-7
4,-6,-10,1,7,-8,-5,-8,-11,-12,-8,-8
1,-6,-8,2,4,-7,-4,-7,-11,-11,-7,-7
0,-6,-6,3,3,-7,-3,-7,-10,-11,-6,-6
0,-6,-6,3,3,-6,-3,-7,-10,-10,-6,-5
0,-5,-6,3,3,-6,-3,-7,-9,-10,-7,-4
0,-5,-4,3,2,-5,-2,-6,-9,-10,-7,-3
-2,-5,-3,4,1,-4,-1,-5,-8,-9,-7,-3
-2,-5,-3,4,0,-4,-1,-5,-8,-10,-7,-3
-3,-6,-2,5,-1,-4,0,-4,-8,-10,-8,-3
-4,-6,-1,5,-2,-3,0,-4,-8,-9,-8,-3
-4,-6,-1,5,-1,-4,0,-4,-8,-9,-8,-4
-4,-6,-2,5,-1,-5,0,-4,-8,-10,-8,-5
-4,-7,-3,6,0,-6,0,-4,-9,-10,-8,-6
-3,-7,-5,5,1,-7,0,-5,-9,-11,-9,-7
0,-7,-7,4,3,-8,-1,-6,-10,-12,-9,-7
0,-8,-9,4,5,-9,-1,-6,-11,-13,-10,-8
0,-9,-9,4,5,-10,-1,-7,-11,-14,-11,-9
0,-9,-9,5,4,-10,-1,-7,-11,-14,-12,-8
0,-9,-9,4,4,-9,-1,-7,-11,-14,-12,-8
1,-8,-9,3,5,-9,-1,-7,-11,-14,-12,-8
1,-8,-9,3,5,-9,-1,-6,-11,-14,-11,-8
-2,-8,-7,5,3,-8,0,-6,-11,-13,-10,-9
-5,-9,-5,7,1,-8,0,-5,-10,-13,-9,-10
-5,-10,-5,8,0,-8,0,-5,-10,-12,-9,-11
-4,-9,-6,7,1,-8,0,-5,-10,-12,-9,-11
-4,-9,-6,7,1,-8,0,-5,-10,-11,-9,-10
-3,-9,-6,7,2,-8,0,-5,-10,-11,-9,-10
-2,-9,-7,6,3,-9,0,-5,-10,-12,-10,-12
0,-9,-8,5,4,-9,0,-5,-10,-12,-9,-13
0,-8,-8,4,4,-8,0,-5,-10,-12,-9,-12
-2,-8,-5,5,2,-7,0,-4,-9,-11,-8,-9
-4,-8,-3,7,0,-6,1,-4,-8,-11,-8,-7
-5,-9,-4,7,0,-7,1,-4,-8,-11,-9,-5
-3,-9,-6,6,1,-8,0,-5,-9,-12,-11,-5
-2,-9,-8,6,2,-9,0,-5,-10,-13,-11,-6
-3,-9,-6,7,1,-8,0,-5,-9,-12,-10,-9
-5,-10,-5,8,0,-8,0,-4,-9,-12,-10,-11
-5,-10,-6,8,0,-8,0,-5,-9,-12,-10,-11
-4,-10,-7,8,1,-9,0,-5,-10,-13,-10,-12
-4,-11,-7,8,2,-9,0,-4,-10,-15,-11,-15
-5,-12,-7,8,2,-10,2,-2,-11,-18,-14,-18
-5,-13,-8,9,2,-11,4,0,-12,-22,-19,-21
-6,-14,-8,10,1,-12,6,4,-13,-27,-24,-22
-7,-16,-9,12,1,-13,8,6,-14,-33,-30,-23
-6,-18,-11,12,2,-15,8,6,-15,-38,-35,-25
-8,-18,-10,13,1,-15,9,8,-13,-38,-36,-24
-10,-16,-7,13,-1,-12,10,12,-7,-34,-34,-23
-8,-13,-5,11,-1,-10,9,14,0,-27,-27,-22
-4,-8,-4,6,1,-7,6,14,8,-17,-18,-17
1,-2,-3,0,2,-3,2,12,16,-4,-5,-10
5,4,-1,-4,3,1,-2,9,24,12,9,1
9,11,2,-10,3,6,-7,7,33,33,26,15
14,19,4,-16,4,11,-12,3,43,58,47,33
22,29,6,-24,8,17,-19,-2,52,89,72,53
31,40,8,-35,11,23,-27,-10,60,124,102,76
41,51,9,-45,15,30,-37,-21,65,160,132,98
50,61,10,-55,19,35,-47,-33,65,193,161,120
56,69,13,-62,21,41,-57,-47,63,223,187,140
58,76,17,-67,20,46,-65,-60,59,249,209,160
63,80,17,-71,23,48,-73,-74,50,265,225,177
72,81,8,-76,32,44,-83,-90,32,265,231,189
80,79,-2,-79,42,38,-92,-105,7,248,228,195
80,77,-5,-78,43,36,-96,-119,-18,222,218,197
74,76,0,-74,37,38,-96,-131,-40,191,205,194
70,75,4,-72,33,39,-94,-143,-62,153,186,184
66,73,6,-70,30,39,-91,-156,-88,104,159,166
58,68,10,-63,24,38,-85,-168,-116,49,126,145
47,61,13,-54,17,36,-78,-176,-141,-1,93,123
37,50,13,-44,12,32,-70,-177,-159,-42,63,101
27,38,10,-33,9,25,-62,-171,-166,-70,36,79
20,28,7,-24,7,17,-54,-158,-162,-84,14,60
14,19,4,-17,6,11,-49,-143,-152,-89,-2,44
10,13,2,-11,4,7,-44,-129,-140,-88,-13,31
7,9,1,-8,3,5,-41,-114,-125,-83,-19,21
5,5,0,-5,2,2,-37,-100,-109,-76,-23,13
2,2,-1,-2,2,0,-32,-85,-94,-69,-25,6
1,0,-1,-1,1,-1,-26,-71,-79,-61,-26,1
1,-1,-2,0,2,-2,-21,-59,-66,-54,-26,-2
0,-2,-3,1,2,-2,-16,-47,-54,-47,-25,-6
-1,-3,-2,3,0,-2,-12,-37,-43,-40,-23,-9
-3,-4,-1,4,-1,-3,-9,-29,-35,-34,-20,-11
-2,-4,-2,3,0,-4,-7,-21,-27,-28,-17,-12
-6,-5,0,5,-3,-3,-4,-13,-19,-22,-12,-14
-13,-5,7,9,-10,0,1,-4,-10,-15,-7,-16
-13,-6,6,9,-10,0,3,1,-4,-12,-6,-18
-7,-7,0,7,-4,-4,3,2,-3,-12,-8,-19
-3,-7,-4,5,0,-5,3,2,-2,-13,-10,-15
-3,-7,-4,5,0,-5,4,4,-1,-13,-12,-9
-3,-7,-4,5,0,-6,4,4,-1,-13,-14,-6
-1,-7,-6,4,2,-7,3,5,-1,-14,-15,-5
0,-7,-8,3,4,-8,2,5,-1,-15,-16,-5
0,-8,-8,4,4,-9,2,6,0,-14,-15,-6
-1,-8,-7,4,4,-8,3,7,0,-14,-15,-8
-1,-8,-7,4,4,-8,4,8,1,-14,-15,-9
-2,-9,-7,5,3,-8,5,8,1,-13,-15,-9
-2,-8,-7,5,3,-7,5,9,2,-13,-14,-9
-1,-7,-7,4,3,-7,5,10,3,-12,-13,-9
0,-7,-8,3,4,-8,5,9,3,-12,-13,-9
0,-8,-9,4,5,-9,4,9,3,-12,-13,-10
-3,-9,-7,6,2,-8,5,9,3,-11,-13,-11
-5,-9,-5,7,0,-7,6,11,4,-10,-12,-11
-3,-8,-6,5,1,-7,6,11,5,-10,-11,-11
-1,-8,-7,4,3,-7,6,12,5,-9,-11,-11
-1,-7,-6,4,2,-7,7,13,6,-9,-11,-11
-4,-6,-2,5,-1,-5,8,14,8,-7,-10,-10
-7,-6,1,6,-4,-3,9,15,9,-6,-9,-9
-7,-6,1,6,-4,-3,9,15,9,-6,-9,-9
-5,-6,0,5,-3,-4,8,15,9,-6,-9,-9
-5,-7,-1,6,-2,-4,8,15,9,-7,-10,-8
-4,-7,-3,6,-1,-5,8,15,9,-7,-10,-8
-2,-7,-5,5,1,-6,7,14,8,-8,-11,-8
-2,-7,-6,5,2,-6,7,14,8,-8,-11,-9
-3,-8,-5,5,1,-6,7,14,8,-8,-11,-10
-2,-8,-5,5,1,-7,6,14,7,-8,-11,-11
0,-7,-7,4,3,-8,5,13,7,-8,-11,-12
1,-6,-8,3,4,-8,5,13,7,-8,-11,-12
1,-6,-7,3,4,-7,6,14,8,-7,-10,-12
1,-5,-8,2,5,-7,6,14,9,-7,-10,-11
2,-5,-8,2,5,-7,7,15,9,-6,-11,-11
1,-5,-7,2,4,-6,7,15,9,-6,-11,-11
1,-5,-7,2,4,-7,7,15,9,-7,-11,-11
1,-6,-8,2,4,-7,7,15,9,-7,-11,-13
0,-7,-8,4,3,-8,6,15,9,-7,-11,-14
-1,-8,-7,5,3,-8,6,16,9,-7,-11,-15
-1,-9,-8,5,3,-8,6,16,9,-7,-11,-18
0,-9,-9,4,5,-9,6,16,9,-7,-11,-22
1,-9,-9,4,5,-9,5,16,9,-7,-11,-24
0,-9,-8,4,4,-8,5,16,9,-7,-10,-22
-1,-8,-7,4,3,-7,6,16,9,-7,-10,-17
-2,-7,-4,4,1,-6,7,17,11,-6,-9,-11
-3,-6,-1,4,-1,-4,8,18,12,-5,-9,-7
-2,-5,-3,3,0,-4,7,18,12,-5,-10,-6
-3,-6,-3,4,0,-4,7,18,11,-6,-11,-6
-8,-6,1,7,-4,-2,9,20,13,-4,-10,-5
-9,-6,2,8,-5,-2,10,21,14,-4,-9,-5
-3,-5,-2,5,0,-4,9,20,13,-5,-10,-7
1,-4,-6,2,4,-5,8,19,12,-5,-11,-10
2,-4,-7,0,5,-5,7,19,12,-5,-11,-11
3,-4,-7,0,5,-6,7,18,12,-5,-11,-11
