leadI,leadII,leadIII,leadaVR,leadaVL,leadaVF,leadV1,leadV2,leadV3,leadV4,leadV5,leadV6
3,-1,-4,-1,3,-2,-11,-1,-1,0,2,2
8,-3,-10,-2,9,-6,-28,-3,-3,-2,4,5
10,-5,-15,-3,13,-9,-39,-4,-4,-3,5,7
12,-6,-18,-3,15,-12,-44,-4,-5,-4,5,8
12,-7,-19,-3,16,-13,-47,-4,-5,-5,5,8
13,-7,-19,-3,16,-13,-47,-3,-5,-5,6,8
13,-7,-19,-3,16,-13,-48,-2,-5,-5,6,8
12,-7,-19,-2,16,-13,-48,-2,-5,-5,7,8
12,-7,-19,-2,16,-13,-48,-2,-4,-5,7,8
12,-8,-19,-2,16,-13,-48,-1,-4,-5,8,9
11,-8,-19,-2,15,-13,-48,-1,-4,-5,8,9
11,-7,-18,-2,14,-13,-48,-1,-2,-4,8,9
11,-7,-18,-2,14,-13,-47,0,-1,-3,9,9
11,-7,-18,-2,14,-13,-46,1,-1,-2,9,9
11,-7,-18,-2,14,-12,-46,1,-1,-2,10,9
10,-6,-16,-2,13,-11,-45,1,-1,-2,10,9
10,-6,-15,-2,12,-11,-44,2,0,-2,10,9
10,-6,-15,-2,12,-10,-43,3,0,-2,10,9
10,-6,-15,-2,12,-10,-42,4,0,-2,10,10
10,-5,-14,-2,12,-10,-42,4,1,-2,10,11
11,-3,-14,-3,12,-9,-42,5,1,-2,10,11
11,-2,-13,-4,12,-8,-42,6,2,-2,10,11
11,-2,-12,-4,11,-7,-41,7,4,-2,10,11
10,-3,-12,-3,11,-7,-39,8,5,-2,10,11
10,-3,-12,-3,11,-7,-38,9,4,-3,10,12
9,-3,-12,-3,11,-7,-39,9,2,-3,9,12
9,-3,-12,-3,11,-7,-40,7,1,-4,10,12
10,-2,-12,-4,11,-7,-42,6,1,-4,10,12
10,-2,-12,-3,11,-7,-43,5,1,-5,10,12
10,-3,-13,-3,11,-8,-44,5,1,-5,11,13
10,-3,-13,-3,11,-8,-45,4,2,-4,12,14
11,-3,-13,-3,12,-8,-47,4,2,-3,13,15
11,-3,-14,-3,12,-9,-47,4,2,-3,13,15
12,-3,-14,-4,13,-9,-48,4,2,-2,13,14
12,-2,-15,-5,14,-9,-49,4,3,-2,13,15
12,-3,-15,-4,14,-9,-51,3,2,-2,13,15
12,-3,-15,-4,14,-9,-52,2,1,-2,13,15
12,-3,-14,-4,14,-9,-52,2,1,-2,13,15
12,-2,-13,-5,13,-8,-53,1,0,-2,13,15
11,-1,-12,-5,12,-7,-53,1,-2,-3,13,16
11,-1,-12,-5,11,-6,-54,0,-3,-4,12,16
12,-1,-12,-5,12,-6,-55,0,-3,-4,13,17
12,-1,-12,-5,12,-6,-55,0,-2,-3,15,17
11,-1,-12,-5,12,-7,-56,0,-1,-2,17,18
11,-2,-13,-4,12,-7,-56,0,-1,-2,18,18
10,-2,-13,-4,12,-8,-56,0,-1,-2,19,19
10,-3,-13,-4,12,-8,-56,0,-1,-2,19,20
11,-3,-14,-4,12,-9,-56,0,-1,-2,20,21
11,-3,-14,-3,12,-9,-56,0,-1,-2,20,21
10,-3,-13,-3,11,-8,-56,0,-1,-2,20,21
9,-3,-12,-2,10,-8,-56,0,-1,-2,19,21
8,-3,-12,-1,10,-8,-55,0,-1,-2,19,20
7,-4,-12,0,9,-8,-55,0,-1,-2,18,19
6,-6,-12,0,9,-9,-56,0,-2,-3,18,19
5,-7,-12,1,9,-9,-56,0,-2,-3,17,18
5,-8,-12,2,9,-10,-57,0,-3,-3,17,18
4,-8,-12,2,8,-10,-57,-1,-3,-3,17,18
4,-8,-11,2,7,-10,-58,-1,-4,-4,17,18
4,-8,-11,2,7,-10,-58,-1,-4,-4,17,18
4,-8,-11,2,7,-10,-58,-1,-5,-4,16,17
3,-8,-11,2,7,-10,-59,-2,-6,-4,16,17
3,-8,-10,2,6,-9,-60,-3,-6,-5,16,17
3,-7,-9,2,6,-8,-61,-3,-7,-5,16,17
2,-6,-8,2,5,-7,-62,-3,-7,-5,16,17
2,-5,-6,1,4,-6,-62,-4,-8,-5,16,18
1,-4,-4,1,3,-4,-63,-5,-9,-5,16,18
1,-3,-3,1,2,-3,-64,-5,-9,-5,16,18
0,-2,-2,1,1,-3,-64,-6,-10,-5,16,19
0,-2,-2,1,1,-2,-64,-6,-10,-5,16,19
0,-1,-2,0,1,-2,-64,-6,-10,-5,16,19
0,-2,-2,0,1,-2,-64,-5,-10,-6,16,19
1,-3,-3,1,1,-3,-64,-5,-10,-6,16,19
1,-4,-5,1,2,-4,-64,-4,-9,-7,16,19
1,-6,-6,2,3,-6,-64,-4,-9,-7,15,18
1,-7,-8,2,4,-7,-64,-3,-9,-8,14,18
1,-8,-9,3,5,-9,-64,-2,-8,-8,13,17
1,-10,-10,4,5,-10,-64,-2,-8,-8,13,16
1,-11,-11,5,6,-11,-64,-2,-7,-8,13,16
0,-11,-12,5,6,-12,-64,-2,-7,-8,13,16
0,-12,-12,6,6,-12,-65,-2,-7,-7,13,16
0,-12,-11,6,6,-12,-65,-2,-7,-7,13,16
0,-12,-11,6,6,-12,-66,-2,-8,-7,13,16
0,-12,-11,6,5,-11,-66,-3,-9,-7,13,16
0,-11,-11,6,5,-11,-67,-4,-10,-7,13,16
0,-11,-11,6,5,-11,-67,-4,-11,-7,13,16
0,-11,-11,6,5,-11,-68,-4,-11,-8,12,16
0,-12,-12,6,6,-12,-68,-4,-11,-9,11,15
0,-13,-13,6,6,-13,-69,-5,-11,-9,10,14
0,-13,-13,6,6,-13,-69,-5,-11,-9,9,14
0,-13,-13,6,7,-13,-68,-4,-10,-9,9,14
0,-13,-13,6,7,-13,-68,-4,-10,-9,9,14
0,-13,-12,6,6,-13,-68,-4,-10,-10,9,14
0,-12,-12,6,6,-12,-68,-4,-10,-10,9,14
0,-12,-11,5,6,-12,-69,-4,-9,-10,9,14
0,-12,-12,5,7,-12,-69,-4,-9,-10,9,14
0,-13,-14,5,7,-13,-69,-3,-9,-11,8,13
1,-15,-16,6,8,-15,-69,-3,-9,-12,7,12
1,-17,-19,7,10,-17,-71,-3,-9,-13,6,11
2,-19,-21,8,11,-19,-81,-3,-9,-13,6,10
2,-19,-21,8,12,-20,-8,-3,-9,-13,5,9
3,-17,-20,7,12,-19,201,-4,-10,-11,6,10
3,-14,-18,5,11,-16,404,-5,-10,-10,7,11
4,-11,-15,4,10,-13,516,-5,-11,-9,7,12
4,-10,-14,3,9,-12,580,-5,-11,-10,7,12
4,-10,-15,3,10,-12,618,-4,-10,-11,6,12
4,-12,-17,4,11,-14,641,-4,-10,-12,5,10
5,-15,-20,4,12,-17,654,-3,-10,-13,4,9
6,-17,-23,5,14,-19,662,-3,-10,-13,3,8
6,-18,-25,5,15,-21,666,-2,-10,-13,3,7
7,-19,-26,5,16,-22,669,-1,-9,-13,3,6
7,-18,-26,5,17,-22,670,0,-8,-12,3,6
8,-16,-25,4,17,-20,670,1,-6,-10,5,6
9,-13,-23,2,17,-18,670,3,-3,-6,8,8
11,-9,-22,0,17,-15,669,6,1,0,13,10
15,-6,-21,-4,18,-13,669,9,7,6,19,14
19,-3,-22,-8,21,-12,668,13,14,15,28,19
25,0,-24,-13,24,-11,668,17,24,25,39,25
31,6,-24,-18,28,-9,667,22,35,38,53,33
38,14,-24,-25,31,-5,667,25,47,52,68,43
46,23,-23,-33,34,0,666,27,58,67,83,53
53,32,-21,-41,37,5,666,28,66,80,98,63
60,41,-20,-50,39,10,665,28,72,91,111,72
65,49,-17,-57,41,16,665,27,76,98,120,79
66,53,-13,-60,39,20,664,26,75,99,123,83
61,53,-7,-58,34,23,664,23,68,90,116,82
49,48,0,-50,25,24,663,18,56,72,96,73
31,39,9,-35,11,24,663,11,38,46,66,58
10,29,19,-19,-4,24,662,2,18,19,34,40
-7,21,28,-6,-18,25,661,-4,0,-3,5,23
-21,15,35,3,-28,25,660,-6,-9,-18,-15,10
-29,11,40,9,-35,26,660,-3,-11,-25,-27,1
-34,9,43,12,-39,26,660,2,-9,-28,-34,-4
-36,7,44,15,-40,25,659,9,-5,-29,-38,-8
-37,4,42,17,-39,22,659,16,-2,-29,-41,-12
-38,0,38,19,-37,19,659,23,1,-29,-42,-15
-38,-4,33,21,-35,15,658,31,3,-29,-43,-18
-37,-8,28,22,-32,11,658,39,6,-29,-44,-20
-36,-10,24,23,-30,8,657,47,8,-28,-43,-21
-34,-10,23,22,-29,7,657,55,12,-26,-41,-21
-32,-8,23,20,-28,8,656,65,17,-22,-39,-20
-31,-6,24,18,-27,9,657,74,22,-20,-36,-19
-29,-4,24,16,-26,10,655,81,25,-18,-34,-18
-28,-3,24,15,-26,10,644,83,26,-17,-33,-17
-26,-3,23,15,-25,10,724,83,27,-16,-32,-16
-25,-3,21,14,-24,9,254,82,28,-14,-31,-16
-24,-3,19,14,-22,8,-375,81,29,-13,-29,-15
-23,-4,17,14,-20,6,-274,80,29,-13,-28,-15
-21,-5,15,14,-18,4,63,78,29,-12,-28,-14
-20,-6,13,14,-16,2,312,76,29,-12,-27,-14
-19,-7,11,14,-15,1,445,73,29,-12,-27,-14
-18,-6,12,12,-14,2,523,72,31,-10,-25,-13
-18,-4,14,10,-15,5,569,72,35,-6,-23,-11
-17,0,16,8,-16,8,596,73,38,-3,-21,-10
-16,3,18,6,-17,10,611,74,41,0,-19,-9
-15,5,19,5,-17,12,618,75,42,2,-17,-7
-14,6,19,3,-17,13,621,76,43,4,-15,-6
-12,7,18,2,-15,13,543,75,43,6,-15,-5
-10,6,16,1,-14,12,155,73,42,6,-14,-5
-9,5,15,1,-12,10,-545,69,40,5,-14,-5
-8,3,12,2,-11,8,-740,63,38,4,-14,-5
-7,2,10,2,-9,6,-367,55,34,3,-14,-5
-4,2,7,1,-6,5,-118,45,30,2,-14,-5
-1,3,4,0,-3,3,48,33,24,1,-14,-4
1,4,2,-2,-1,2,-292,22,18,0,-14,-4
4,4,0,-3,1,1,-623,13,13,-1,-14,-4
7,4,-3,-5,4,0,-35,6,9,-2,-13,-3
9,3,-5,-5,7,-1,373,0,5,-2,-12,-1
10,2,-8,-6,9,-3,-61,-3,2,-3,-11,0
11,1,-10,-6,11,-4,-88,-6,-1,-5,-10,0
12,0,-13,-6,13,-6,226,-8,-5,-6,-10,0
13,-1,-15,-6,14,-7,149,-10,-7,-7,-10,0
14,-1,-16,-6,15,-8,95,-12,-9,-8,-10,0
15,-2,-18,-6,16,-10,175,-12,-9,-9,-10,1
16,-3,-19,-6,18,-11,192,-11,-9,-9,-10,1
17,-3,-20,-7,19,-12,206,-11,-9,-8,-10,1
18,-3,-20,-7,19,-12,-12,-11,-9,-8,-9,1
19,-2,-21,-8,20,-12,-342,-11,-8,-7,-7,2
20,-1,-23,-9,22,-13,-602,-10,-8,-6,-6,3
21,-3,-26,-9,24,-15,-605,-9,-7,-6,-6,2
21,-5,-28,-8,25,-17,-161,-8,-7,-7,-7,2
21,-7,-29,-7,25,-18,74,-8,-8,-7,-7,1
21,-7,-29,-7,25,-18,-227,-9,-8,-7,-7,2
21,-5,-27,-8,24,-16,-376,-9,-8,-6,-6,2
22,-2,-25,-10,24,-14,85,-8,-7,-4,-4,3
23,0,-23,-12,24,-12,631,-7,-6,-2,-2,5
25,2,-23,-13,24,-11,983,-6,-5,0,-1,6
26,4,-23,-15,25,-10,1009,-6,-4,1,0,6
28,4,-24,-16,25,-10,655,-5,-3,2,1,7
29,4,-24,-16,26,-10,-86,-4,-2,3,2,7
30,3,-26,-16,28,-12,-365,-2,-1,3,3,8
31,2,-28,-16,29,-13,-495,-1,0,4,4,8
32,2,-29,-17,31,-14,-644,0,1,5,5,9
33,2,-30,-17,32,-14,-65,0,2,6,7,9
34,2,-31,-17,33,-15,26,0,2,7,8,9
34,1,-33,-17,34,-16,-243,0,3,8,8,10
35,1,-34,-17,34,-17,44,0,3,9,9,10
35,1,-34,-17,34,-16,605,-1,2,10,9,10
35,2,-33,-18,34,-15,447,-2,2,11,10,11
36,3,-32,-20,34,-14,-183,-3,2,12,11,11
37,4,-33,-20,35,-14,-296,-4,2,13,12,12
38,4,-33,-21,36,-14,-133,-5,0,12,12,12
38,5,-33,-21,36,-14,164,-7,-1,12,12,12
38,6,-33,-22,36,-13,516,-8,-2,12,12,13
39,7,-32,-23,36,-13,879,-10,-2,12,13,13
39,7,-32,-23,36,-13,1229,-11,-2,12,13,13
39,6,-32,-22,36,-13,719,-12,-2,12,13,12
39,6,-33,-22,36,-13,-315,-13,-3,12,12,11
40,6,-33,-23,37,-13,-839,-14,-4,12,12,10
40,7,-32,-23,36,-13,-1072,-15,-4,12,12,10
39,8,-31,-23,35,-12,-1141,-17,-6,12,12,10
39,9,-30,-24,35,-10,-1123,-19,-7,12,12,10
39,9,-30,-24,34,-10,-1058,-21,-8,11,12,10
39,9,-30,-23,34,-11,-974,-22,-10,9,10,9
39,8,-31,-23,35,-12,-883,-24,-11,7,9,9
39,7,-32,-23,35,-13,-793,-25,-12,6,8,8
38,6,-32,-22,35,-13,-709,-26,-13,5,7,7
38,7,-31,-23,34,-12,-685,-28,-14,6,7,7
37,8,-28,-23,33,-10,-510,-29,-15,7,7,7
37,10,-27,-23,32,-8,-43,-30,-16,7,6,7
36,10,-26,-23,31,-8,-47,-31,-17,6,6,7
34,9,-26,-21,30,-8,-611,-32,-17,5,4,6
33,8,-25,-20,29,-8,-550,-33,-17,4,3,5
32,8,-24,-20,28,-7,-597,-33,-17,3,2,5
31,8,-23,-20,27,-7,-911,-33,-17,2,1,5
30,8,-23,-19,27,-7,-993,-33,-18,1,0,4
29,7,-22,-18,26,-7,-1208,-33,-18,0,0,2
28,7,-21,-17,25,-7,-1059,-33,-18,0,-2,0
27,7,-20,-17,24,-6,-308,-33,-18,0,-3,0
26,8,-18,-17,23,-5,304,-33,-18,-1,-4,-1
25,8,-17,-17,21,-4,289,-33,-18,-1,-4,0
24,8,-15,-16,20,-4,161,-33,-18,-1,-5,0
23,8,-14,-15,19,-3,188,-32,-18,-2,-6,-1
21,8,-14,-15,18,-3,503,-30,-18,-2,-6,-1
20,7,-14,-14,17,-4,325,-30,-18,-3,-7,-3
20,6,-14,-13,17,-4,5,-29,-19,-4,-9,-4
20,5,-15,-13,17,-5,-268,-29,-19,-5,-10,-5
19,4,-15,-12,17,-5,-399,-28,-18,-5,-11,-6
18,4,-14,-11,16,-5,-345,-27,-17,-5,-12,-7
17,4,-13,-11,15,-4,-92,-25,-16,-5,-12,-7
17,5,-11,-11,15,-3,356,-24,-15,-5,-13,-8
17,6,-10,-12,14,-2,150,-22,-13,-4,-13,-8
15,6,-9,-11,12,-1,-383,-20,-11,-4,-13,-9
14,6,-9,-10,11,-1,-225,-18,-10,-4,-14,-10
13,6,-8,-10,11,-1,386,-17,-11,-4,-15,-11
13,7,-6,-10,9,0,474,-16,-11,-4,-16,-11
12,8,-4,-10,8,2,285,-15,-10,-4,-16,-11
10,7,-2,-9,6,2,-39,-14,-10,-4,-17,-11
9,7,-2,-8,5,2,-416,-13,-9,-5,-17,-12
9,6,-3,-8,6,2,-802,-12,-8,-5,-18,-13
11,6,-5,-8,8,0,-1174,-11,-8,-5,-18,-13
12,5,-7,-9,9,0,-683,-10,-8,-6,-19,-15
13,6,-8,-9,11,-1,334,-9,-7,-6,-20,-16
15,6,-9,-10,12,-2,843,-8,-7,-7,-22,-17
15,4,-11,-9,13,-3,1063,-7,-8,-8,-23,-18
16,4,-11,-10,13,-4,1119,-7,-9,-9,-24,-19
16,7,-9,-11,12,-1,1091,-7,-10,-9,-24,-19
16,9,-6,-13,11,1,1019,-7,-10,-8,-23,-18
16,11,-4,-14,11,3,927,-6,-10,-8,-24,-17
15,11,-4,-13,10,3,830,-5,-10,-9,-25,-18
15,9,-6,-12,11,1,735,-4,-9,-9,-26,-19
15,7,-8,-11,11,0,645,-3,-8,-10,-27,-20
14,6,-8,-10,11,-1,563,-2,-6,-9,-26,-20
13,6,-7,-9,10,-1,490,-2,-6,-9,-26,-20
13,7,-6,-10,9,0,425,-2,-6,-9,-26,-20
13,8,-5,-11,9,1,368,-1,-6,-9,-26,-19
14,8,-5,-11,10,0,317,0,-5,-9,-26,-18
13,7,-7,-10,10,0,273,0,-4,-9,-26,-18
13,4,-9,-8,11,-2,235,1,-4,-9,-26,-19
12,2,-11,-7,11,-4,199,3,-3,-8,-26,-19
11,1,-10,-6,10,-4,169,3,-2,-8,-26,-20
11,2,-9,-6,10,-3,142,4,-1,-7,-26,-20
11,3,-8,-7,10,-3,118,5,-1,-7,-25,-20
11,4,-7,-7,10,-2,99,6,0,-6,-24,-20
11,4,-7,-8,10,-1,82,7,1,-6,-24,-19
10,4,-6,-8,9,-1,67,8,2,-5,-23,-18
10,5,-6,-8,9,0,53,8,3,-5,-23,-18
12,6,-6,-9,9,0,39,8,3,-4,-22,-17
13,7,-6,-10,9,0,26,7,2,-3,-22,-17
13,7,-6,-9,9,0,15,6,2,-3,-22,-17
12,6,-6,-8,9,0,6,6,2,-3,-22,-17
11,5,-6,-7,8,0,0,6,2,-3,-23,-18
10,5,-6,-7,9,0,-7,5,0,-4,-24,-19
10,5,-6,-8,9,0,-14,3,0,-4,-24,-19
11,6,-6,-8,9,0,-18,3,0,-4,-23,-18
12,6,-6,-9,9,0,-23,3,0,-4,-23,-18
13,7,-6,-9,9,0,-27,3,0,-4,-22,-17
14,7,-7,-10,10,0,-30,4,1,-4,-22,-16
14,6,-9,-9,11,-1,-33,4,0,-4,-23,-16
14,5,-10,-9,12,-2,-36,3,0,-5,-23,-17
13,4,-10,-8,12,-3,-37,2,-1,-5,-23,-17
11,3,-9,-7,11,-3,-39,1,-2,-6,-24,-17
11,3,-9,-7,10,-3,-40,0,-2,-7,-24,-17
12,4,-9,-7,10,-2,-41,-1,-3,-7,-24,-17
13,5,-8,-8,10,-1,-43,-1,-3,-6,-23,-16
12,7,-6,-9,9,0,-44,-1,-4,-5,-22,-15
12,8,-4,-9,8,1,-45,-1,-4,-4,-22,-14
12,8,-4,-9,8,1,-45,-1,-4,-5,-21,-13
12,8,-4,-9,8,1,-43,-1,-4,-6,-21,-14
12,7,-5,-9,9,0,-43,-1,-4,-6,-22,-15
12,6,-6,-8,9,-1,-43,-1,-4,-6,-22,-16
12,4,-7,-7,9,-2,-43,-1,-5,-6,-23,-17
10,2,-8,-6,9,-3,-43,-1,-5,-7,-24,-18
8,0,-8,-4,8,-4,-44,-1,-6,-9,-26,-19
7,-1,-9,-3,8,-5,-44,-1,-6,-10,-27,-20
7,-2,-10,-2,9,-6,-45,-1,-7,-11,-28,-21
8,-3,-10,-2,9,-7,-45,-2,-7,-12,-29,-21
8,-3,-11,-2,10,-7,-45,-2,-7,-11,-28,-21
8,-2,-11,-2,10,-7,-45,-2,-7,-11,-28,-21
8,-2,-11,-2,9,-7,-45,-2,-6,-11,-28,-21
6,-3,-10,-1,8,-7,-45,-2,-7,-11,-28,-21
5,-3,-9,0,6,-6,-45,-2,-7,-11,-28,-22
5,-3,-9,0,7,-6,-45,-2,-7,-11,-28,-23
5,-4,-10,0,8,-7,-45,-2,-8,-11,-29,-24
5,-6,-11,0,8,-8,-45,-3,-8,-12,-30,-24
5,-7,-12,0,9,-9,-44,-3,-9,-12,-30,-25
5,-7,-13,1,9,-10,-43,-2,-9,-13,-31,-26
5,-8,-13,2,9,-11,-43,-1,-9,-14,-32,-27
4,-9,-14,3,9,-12,-43,-1,-9,-15,-32,-27
3,-9,-13,4,8,-12,-45,-2,-11,-15,-32,-27
2,-8,-12,3,7,-11,-46,-3,-12,-16,-32,-27
2,-6,-10,2,6,-9,-48,-3,-13,-15,-32,-26
3,-5,-9,1,6,-7,-48,-4,-13,-15,-31,-25
3,-3,-7,0,5,-5,-47,-4,-12,-14,-29,-24
4,-2,-6,0,5,-4,-45,-3,-10,-12,-28,-24
4,-2,-6,0,5,-5,-44,-3,-9,-11,-28,-25
3,-3,-6,1,5,-5,-43,-2,-8,-10,-28,-26
2,-3,-6,1,4,-6,-43,-2,-7,-10,-28,-26
2,-3,-6,1,4,-6,-43,-1,-7,-10,-27,-25
3,-4,-7,1,5,-6,-43,-1,-6,-10,-27,-25
3,-5,-9,1,6,-7,-43,0,-6,-10,-28,-25
3,-7,-10,3,6,-8,-43,0,-6,-11,-29,-27
2,-7,-10,4,6,-9,-43,-1,-7,-12,-30,-27
3,-7,-10,3,6,-9,-43,-1,-9,-12,-31,-28
3,-7,-11,3,7,-9,-43,-2,-10,-13,-31,-28
3,-7,-11,3,7,-9,-43,-2,-10,-14,-32,-29
2,-8,-11,3,7,-10,-42,-1,-9,-15,-33,-29
3,-7,-11,3,7,-10,-42,-1,-9,-15,-32,-30
2,-6,-10,2,6,-9,-43,-2,-10,-14,-32,-29
1,-6,-8,3,5,-7,-43,-2,-10,-14,-31,-28
1,-6,-7,3,4,-6,-43,-1,-9,-14,-30,-28
1,-5,-7,2,4,-6,-43,-1,-8,-13,-30,-28
2,-5,-7,2,4,-6,-43,-1,-8,-12,-29,-28
2,-5,-7,2,4,-6,-43,-1,-7,-11,-29,-28
2,-5,-7,2,4,-6,-43,-1,-8,-10,-29,-28
1,-5,-7,2,4,-7,-43,-1,-8,-10,-30,-28
1,-5,-7,2,4,-7,-42,0,-7,-10,-29,-28
1,-5,-8,2,4,-7,-41,1,-5,-10,-29,-28
1,-5,-7,2,4,-6,-40,1,-5,-10,-28,-28
1,-5,-7,2,4,-6,-40,1,-5,-9,-28,-28
1,-6,-8,3,4,-7,-40,1,-6,-9,-29,-28
1,-7,-8,4,4,-8,-40,0,-5,-9,-29,-27
1,-7,-9,4,5,-8,-40,0,-5,-9,-28,-27
1,-6,-8,3,5,-8,-40,1,-4,-9,-27,-27
0,-5,-7,3,4,-7,-40,1,-5,-9,-27,-27
0,-4,-5,2,3,-6,-40,1,-5,-9,-27,-27
0,-4,-4,2,3,-5,-40,1,-6,-10,-28,-27
0,-3,-4,1,3,-4,-40,1,-6,-9,-27,-28
1,-3,-5,1,3,-4,-40,1,-6,-8,-27,-28
2,-4,-6,1,4,-5,-40,1,-6,-8,-28,-29
4,-5,-9,1,6,-7,-41,1,-6,-8,-27,-29
4,-6,-11,1,7,-9,-41,1,-5,-8,-27,-29
5,-7,-12,1,8,-10,-41,2,-4,-8,-26,-29
5,-7,-13,1,9,-10,-40,4,-3,-8,-25,-29
6,-6,-12,0,9,-9,-40,6,-1,-6,-23,-27
7,-3,-10,-1,9,-7,-40,8,2,-1,-19,-24
10,-1,-11,-4,11,-6,-41,10,6,5,-12,-20
14,1,-13,-7,14,-5,-43,13,11,12,-3,-15
20,5,-14,-12,17,-4,-44,15,18,21,8,-8
26,11,-15,-18,21,-2,-45,16,26,33,22,0
33,18,-16,-25,25,0,-46,18,36,47,38,9
42,25,-17,-33,30,3,-48,19,44,60,53,19
50,34,-17,-42,34,7,-51,19,50,73,68,29
57,42,-15,-50,37,13,-54,18,55,83,82,39
62,50,-12,-56,38,18,-54,17,58,89,92,48
62,55,-7,-58,35,23,-52,15,58,90,95,52
56,56,-1,-56,29,27,-48,14,54,84,89,50
45,53,7,-49,19,30,-41,12,46,69,70,41
27,45,17,-35,5,31,-31,9,35,48,41,25
6,35,27,-20,-10,30,-22,6,22,24,9,5
-10,26,35,-7,-22,30,-15,4,11,5,-19,-13
-22,19,41,1,-31,30,-10,5,6,-6,-37,-26
-30,15,45,7,-37,30,-8,9,6,-11,-47,-33
-34,13,47,10,-40,30,-8,13,7,-12,-51,-37
-36,13,49,12,-42,31,-9,16,9,-12,-53,-39
-37,13,50,12,-43,32,-11,19,11,-11,-53,-41
-37,14,50,12,-43,32,-14,23,12,-10,-53,-42
-36,12,48,12,-41,30,-16,27,14,-10,-54,-44
-34,8,41,13,-38,24,-17,34,16,-11,-55,-47
-33,2,34,15,-33,18,-17,43,19,-12,-55,-49
-32,-1,29,16,-30,13,-17,52,23,-11,-54,-50
-31,-2,27,16,-29,12,-16,61,27,-9,-52,-49
-30,-1,28,16,-29,13,-15,68,32,-6,-50,-48
-29,0,28,15,-29,14,-14,74,35,-4,-48,-47
-28,1,29,14,-28,15,-15,77,36,-3,-46,-46
-27,4,31,12,-28,17,-15,78,36,-2,-44,-45
-26,6,31,10,-28,19,-15,78,37,-1,-42,-43
-24,6,30,9,-27,18,-14,80,39,0,-41,-43
-23,4,27,9,-25,15,-11,83,40,-1,-41,-43
-23,0,23,11,-23,11,-8,84,40,-2,-41,-44
-23,-4,19,13,-21,8,-6,85,39,-2,-42,-45
-23,-6,17,14,-20,5,-3,84,38,-3,-42,-45
-23,-7,16,15,-19,4,0,82,37,-3,-42,-45
-22,-7,15,15,-18,4,2,80,38,-3,-41,-45
-21,-5,15,14,-18,4,6,80,40,-1,-40,-44
-20,-4,16,12,-18,5,9,80,42,0,-38,-43
-20,-2,17,11,-18,7,11,79,41,1,-37,-42
-20,0,20,10,-19,9,14,78,40,2,-35,-41
-20,1,21,9,-20,11,16,78,40,3,-33,-39
-18,2,20,8,-19,11,18,78,41,4,-31,-38
-17,3,19,7,-18,11,18,77,42,6,-29,-37
-16,3,19,7,-18,11,18,74,43,7,-28,-36
-15,3,18,6,-17,11,17,70,41,7,-27,-35
-14,3,16,6,-15,10,13,63,37,6,-27,-35
-12,2,14,5,-13,8,6,52,31,4,-27,-35
-11,3,13,4,-12,8,-4,40,24,3,-26,-34
-9,4,13,2,-11,9,-17,27,17,2,-25,-32
-7,6,13,1,-10,10,-29,17,13,1,-25,-31
-5,5,11,0,-8,8,-39,10,10,0,-24,-30
-3,3,6,1,-4,5,-49,4,7,-1,-24,-31
-1,0,0,1,0,0,-57,0,5,-2,-24,-31
1,-2,-5,1,3,-4,-64,-2,3,-3,-24,-31
3,-4,-9,0,6,-7,-71,-3,1,-4,-23,-31
5,-3,-9,0,7,-7,-77,-5,-1,-3,-22,-30
5,-2,-9,-1,7,-6,-82,-7,-3,-1,-19,-29
6,-1,-8,-2,7,-5,-86,-8,-4,-1,-18,-28
6,-1,-8,-2,7,-5,-88,-8,-5,-1,-17,-27
7,-1,-9,-2,8,-6,-89,-8,-6,0,-17,-27
7,-2,-10,-2,9,-6,-90,-8,-5,0,-17,-27
9,-2,-12,-3,11,-7,-91,-7,-4,0,-16,-26
11,-3,-15,-3,13,-9,-92,-6,-4,-1,-16,-26
13,-3,-17,-4,16,-11,-94,-5,-4,-2,-16,-26
14,-4,-19,-4,17,-12,-95,-5,-4,-1,-15,-26
15,-4,-20,-4,18,-13,-97,-5,-3,0,-14,-26
16,-3,-20,-5,18,-12,-98,-5,-3,0,-13,-25
17,-2,-20,-6,18,-12,-98,-5,-2,2,-12,-24
18,-1,-20,-8,19,-11,-99,-4,-2,3,-11,-23
19,0,-20,-9,19,-11,-99,-4,-1,4,-10,-22
19,-1,-22,-9,20,-12,-99,-3,0,4,-9,-22
20,-2,-24,-9,22,-13,-100,-2,0,4,-8,-22
20,-3,-25,-8,23,-15,-101,-2,0,5,-7,-22
21,-4,-26,-8,24,-15,-103,-3,-1,6,-6,-21
21,-2,-25,-9,24,-14,-104,-3,-1,7,-5,-20
22,0,-23,-10,23,-12,-104,-3,-1,8,-3,-18
23,1,-23,-11,22,-11,-104,-3,0,9,-1,-17
23,0,-24,-12,23,-11,-104,-2,2,10,0,-17
24,0,-25,-12,25,-12,-104,-2,3,11,1,-16
25,0,-27,-12,26,-13,-105,-2,3,12,2,-16
27,0,-28,-13,27,-14,-106,-2,3,12,2,-16
28,0,-28,-13,28,-14,-107,-2,2,12,2,-16
28,0,-29,-13,28,-15,-108,-3,1,12,2,-16
29,0,-29,-14,29,-15,-109,-4,0,11,2,-16
30,1,-29,-15,30,-14,-110,-6,0,12,3,-15
31,2,-29,-16,30,-13,-111,-8,-1,12,4,-15
32,3,-30,-17,30,-13,-112,-9,-1,12,4,-14
32,3,-30,-18,31,-13,-112,-10,-1,12,5,-13
32,3,-31,-18,31,-14,-113,-11,-2,12,5,-13
32,2,-31,-17,31,-14,-113,-12,-3,11,5,-12
32,1,-32,-16,32,-16,-109,-13,-5,11,5,-12
32,0,-33,-15,32,-17,-103,-15,-6,10,5,-13
31,-2,-33,-14,32,-18,-97,-16,-7,9,4,-13
31,-3,-34,-14,32,-18,-90,-18,-8,8,4,-14
30,-3,-34,-13,32,-18,-84,-19,-9,7,3,-14
30,-3,-34,-13,32,-18,-79,-20,-10,7,3,-14
30,-2,-33,-14,32,-18,-75,-21,-10,6,3,-14
30,-2,-33,-14,31,-17,-71,-22,-10,6,3,-14
30,-1,-32,-14,30,-17,-67,-23,-11,6,2,-14
30,-1,-31,-14,30,-16,-64,-24,-11,6,2,-14
30,-1,-30,-14,29,-16,-61,-25,-12,6,2,-14
29,0,-29,-14,28,-15,-58,-26,-13,6,2,-14
28,0,-27,-14,27,-14,-56,-26,-13,6,1,-14
27,1,-26,-14,26,-12,-53,-27,-14,6,1,-14
26,2,-24,-14,25,-11,-51,-28,-14,6,0,-14
26,3,-23,-14,25,-10,-50,-28,-15,5,0,-14
25,3,-23,-14,24,-9,-48,-28,-15,5,-1,-14
25,3,-22,-14,23,-9,-46,-28,-15,5,-1,-14
24,3,-22,-13,23,-9,-44,-28,-15,4,-2,-15
23,3,-21,-13,22,-9,-42,-28,-15,4,-2,-15
22,3,-20,-12,21,-9,-41,-28,-15,4,-3,-16
21,3,-20,-12,20,-8,-39,-27,-15,4,-3,-16
20,3,-19,-11,19,-8,-38,-27,-15,3,-4,-17
19,3,-18,-11,18,-7,-37,-26,-15,3,-5,-17
18,3,-17,-11,17,-7,-36,-25,-14,3,-6,-17
18,3,-16,-10,17,-6,-35,-24,-14,3,-7,-18
17,3,-15,-10,16,-6,-34,-24,-14,3,-8,-18
16,3,-14,-9,15,-6,-33,-23,-13,3,-8,-19
15,3,-13,-9,14,-5,-32,-22,-13,3,-9,-19
14,3,-12,-8,13,-5,-31,-21,-12,3,-9,-20
13,3,-11,-8,12,-5,-30,-20,-12,3,-10,-20
12,3,-10,-7,11,-4,-30,-19,-11,2,-10,-20
12,3,-10,-7,10,-4,-29,-18,-10,2,-11,-21
11,3,-9,-6,10,-3,-28,-17,-9,2,-12,-21
11,3,-9,-6,9,-3,-28,-16,-9,2,-13,-22
10,2,-8,-5,9,-3,-27,-15,-8,2,-13,-22
9,2,-8,-5,8,-3,-27,-14,-7,2,-14,-22
8,2,-7,-4,8,-3,-27,-13,-6,2,-14,-23
7,2,-6,-4,7,-2,-26,-12,-5,2,-15,-23
6,1,-5,-3,6,-2,-26,-11,-5,2,-15,-23
5,1,-5,-3,5,-2,-26,-10,-4,2,-16,-23
5,1,-4,-2,5,-2,-26,-9,-3,1,-16,-23
4,1,-4,-2,4,-2,-26,-8,-3,1,-17,-24
3,0,-3,-1,4,-1,-25,-7,-2,1,-17,-24
2,0,-3,-1,3,-1,-25,-6,-2,1,-17,-24
2,0,-2,0,2,-1,-25,-5,-1,1,-17,-24
1,0,-2,0,2,-1,-25,-4,-1,1,-17,-24
1,0,-1,0,1,-1,-25,-3,0,1,-17,-24
0,1,0,0,0,0,-25,-1,0,1,-18,-25
0,1,0,0,0,0,-25,0,1,1,-18,-25
0,1,1,0,0,0,-24,1,1,1,-18,-25
0,1,1,0,0,1,-24,2,2,1,-18,-24
0,2,1,0,-1,1,-24,3,2,1,-18,-24
-1,2,2,0,-1,2,-23,4,3,1,-18,-24
-2,2,2,0,-2,2,-23,5,4,1,-18,-24
-2,2,3,0,-2,2,-23,6,4,1,-18,-24
-2,2,4,0,-3,2,-23,7,5,1,-18,-24
-3,2,5,0,-4,3,-23,8,6,2,-18,-24
-3,2,5,1,-4,3,-23,9,7,2,-18,-23
-3,2,6,1,-5,4,-24,9,7,2,-18,-23
-3,2,6,1,-5,4,-25,8,7,2,-18,-23
-4,2,6,1,-5,4,-27,8,7,2,-18,-23
-4,2,6,1,-5,4,-29,7,6,2,-18,-23
-5,2,6,1,-5,4,-31,6,6,2,-18,-23
-5,2,5,1,-5,4,-32,6,6,1,-18,-22
-4,2,5,1,-5,4,-34,5,5,1,-19,-22
-4,2,4,1,-4,4,-35,5,5,1,-19,-22
-3,2,4,1,-4,3,-35,5,4,1,-19,-21
-2,2,4,1,-3,3,-36,5,4,1,-19,-21
-2,2,4,0,-3,3,-36,4,4,1,-19,-20
-2,2,4,0,-2,3,-37,4,3,1,-19,-20
-2,2,4,0,-2,3,-37,4,3,1,-19,-19
-2,2,4,0,-3,3,-37,3,2,1,-18,-19
-2,2,5,0,-3,3,-37,3,2,1,-18,-18
-3,2,5,1,-4,3,-37,2,2,0,-18,-18
-3,2,5,1,-4,3,-37,2,1,0,-18,-18
-3,2,5,1,-4,3,-37,1,1,0,-18,-18
-3,2,4,1,-4,3,-37,1,0,0,-18,-18
-3,1,4,1,-4,3,-37,1,0,0,-18,-17
-3,1,4,1,-4,2,-36,1,0,0,-18,-17
-2,1,3,1,-3,2,-36,1,0,0,-18,-17
-2,1,3,1,-3,2,-36,1,0,0,-18,-16
-3,0,3,2,-3,2,-36,1,1,0,-18,-16
-4,0,3,2,-3,1,-36,1,1,0,-18,-16
-5,-1,3,3,-4,1,-35,1,1,0,-18,-16
-5,-2,3,4,-4,0,-35,1,2,0,-18,-16
-6,-3,3,5,-5,0,-35,1,2,0,-18,-16
-6,-4,2,6,-5,0,-35,1,2,0,-19,-16
-7,-5,2,6,-5,-1,-35,1,2,0,-19,-16
-7,-6,1,7,-5,-2,-35,2,1,0,-19,-16
-7,-7,1,7,-5,-3,-35,2,1,0,-19,-16
-7,-8,0,8,-5,-3,-35,2,1,0,-19,-16
-7,-8,0,8,-4,-4,-35,2,1,0,-19,-16
-7,-9,-1,8,-4,-4,-35,2,1,0,-19,-16
-7,-9,-1,8,-4,-5,-35,2,1,0,-19,-16
-7,-10,-1,9,-4,-5,-35,2,1,0,-19,-16
-7,-10,-1,9,-3,-6,-35,2,1,0,-19,-15
-7,-10,-2,9,-3,-6,-35,2,0,0,-19,-15
-8,-10,-2,10,-3,-6,-35,2,0,0,-19,-15
-8,-10,-2,10,-3,-6,-36,2,0,0,-19,-15
-8,-10,-2,10,-3,-6,-36,2,0,0,-20,-15
-8,-10,-3,10,-3,-6,-36,2,0,0,-20,-15
-8,-10,-3,10,-3,-6,-36,2,-1,0,-20,-15
-8,-10,-2,10,-3,-6,-37,2,-1,-1,-20,-15
-8,-10,-2,10,-3,-6,-37,2,-1,-1,-20,-15
-8,-10,-2,10,-3,-6,-37,2,-1,-1,-20,-15
-7,-10,-2,10,-3,-6,-37,2,-2,-2,-20,-15
-7,-10,-2,10,-3,-6,-37,2,-3,-2,-21,-15
-7,-11,-3,10,-2,-7,-37,1,-3,-3,-21,-15
-7,-11,-3,10,-2,-7,-37,1,-3,-3,-21,-15
-7,-11,-3,10,-2,-7,-37,1,-3,-3,-21,-15
-7,-11,-3,10,-2,-8,-37,1,-3,-3,-21,-15
-8,-12,-4,11,-2,-8,-37,1,-3,-3,-21,-14
-8,-12,-4,11,-2,-8,-36,1,-4,-3,-21,-14
-8,-12,-3,11,-2,-8,-37,1,-3,-3,-21,-14
-8,-12,-3,11,-2,-8,-37,0,-3,-3,-21,-14
-8,-12,-3,11,-2,-8,-38,0,-4,-3,-21,-14
-8,-12,-3,11,-2,-8,-38,0,-4,-2,-20,-13
-8,-12,-3,11,-2,-8,-38,0,-4,-2,-20,-13
-8,-12,-3,11,-2,-8,-38,0,-4,-2,-20,-13
-9,-13,-4,11,-3,-8,-38,-1,-4,-2,-20,-12
-9,-13,-4,11,-3,-8,-38,-1,-4,-2,-19,-12
-8,-13,-4,11,-3,-8,-38,-1,-4,-2,-19,-12
-8,-13,-4,11,-2,-8,-38,-1,-4,-2,-19,-12
-8,-13,-4,11,-2,-8,-37,-1,-3,-2,-19,-12
-8,-13,-4,11,-2,-8,-37,-1,-3,-1,-19,-12
-9,-13,-4,11,-3,-8,-37,-1,-4,-1,-19,-12
-9,-13,-4,11,-3,-9,-37,-1,-4,0,-18,-12
-9,-13,-4,11,-3,-9,-37,-1,-4,0,-18,-12
-9,-12,-4,11,-3,-8,-37,-1,-4,1,-18,-13
-9,-12,-3,11,-3,-8,-37,-1,-4,1,-19,-13
-9,-12,-3,11,-3,-8,-37,-1,-4,1,-19,-12
-8,-12,-3,11,-3,-8,-37,-1,-4,1,-18,-12
-8,-12,-3,11,-3,-8,-37,-1,-4,0,-18,-12
-8,-12,-3,11,-3,-8,-37,-1,-5,0,-18,-12
-8,-12,-3,11,-3,-7,-38,-1,-5,0,-18,-12
-8,-12,-3,10,-3,-7,-38,-1,-5,0,-18,-12
-8,-12,-3,10,-3,-7,-38,-1,-5,0,-18,-11
-8,-12,-3,10,-3,-7,-38,-1,-5,0,-17,-11
-8,-12,-3,10,-3,-7,-38,-1,-4,1,-17,-11
-8,-12,-2,10,-3,-7,-38,-1,-4,1,-17,-11
-8,-12,-2,10,-3,-7,-38,-1,-4,1,-17,-10
-8,-12,-3,10,-3,-8,-39,-1,-4,1,-16,-9
-8,-13,-4,10,-2,-9,-38,-1,-5,1,-16,-9
-7,-13,-5,10,-1,-9,-38,-1,-5,0,-15,-9
-7,-13,-6,10,-1,-10,-39,-1,-5,0,-15,-9
-6,-13,-6,10,0,-10,-39,0,-4,1,-14,-9
-6,-13,-6,10,0,-10,-39,2,-2,2,-13,-9
-5,-12,-6,9,1,-10,-39,4,1,5,-11,-8
-3,-11,-7,7,2,-9,-39,7,6,10,-5,-5
0,-9,-8,5,4,-9,-39,10,12,17,2,-1
4,-5,-9,1,7,-8,-40,13,19,26,13,5
10,0,-9,-4,9,-5,-42,16,27,38,26,12
16,7,-8,-11,12,-1,-43,18,37,51,41,21
22,15,-6,-18,14,3,-45,19,47,66,57,31
29,24,-5,-26,17,9,-47,19,56,81,73,41
36,32,-4,-34,20,13,-49,19,63,93,88,51
42,39,-2,-40,22,18,-51,19,68,103,101,59
45,45,0,-45,22,22,-50,17,70,108,108,65
43,48,5,-45,18,26,-48,15,68,105,107,67
35,47,13,-40,10,30,-43,12,61,94,96,64
21,43,22,-31,-1,32,-36,8,49,73,72,53
2,34,32,-18,-15,32,-28,2,31,46,40,36
-15,24,40,-4,-28,32,-21,-2,13,19,8,17
-29,16,46,6,-38,31,-16,-4,0,-1,-18,2
-38,12,51,13,-45,31,-13,-2,-5,-12,-34,-9
-44,10,54,17,-49,32,-11,1,-4,-16,-42,-15
-47,9,56,20,-52,32,-10,6,-1,-17,-46,-19
-49,7,56,21,-53,31,-10,12,2,-17,-48,-22
-50,5,55,22,-53,29,-11,18,5,-16,-49,-24
-50,3,53,23,-51,27,-14,23,7,-16,-50,-25
-49,0,49,24,-49,24,-16,29,9,-15,-50,-27
-48,-3,44,25,-46,20,-18,37,11,-14,-49,-29
-46,-6,40,26,-43,16,-18,46,14,-13,-48,-30
-45,-8,37,26,-41,14,-17,55,19,-11,-46,-30
-43,-9,35,26,-39,13,-15,65,25,-8,-43,-29
-42,-8,34,26,-38,12,-13,73,30,-5,-41,-28
-40,-7,34,25,-38,12,-12,78,33,-4,-39,-27
-39,-7,33,24,-37,12,-12,81,33,-3,-37,-27
-39,-6,33,23,-36,12,-13,81,33,-2,-36,-26
-38,-6,32,23,-35,12,-15,80,33,-1,-34,-26
-38,-6,31,22,-34,12,-16,80,33,-1,-32,-25
-37,-7,30,22,-33,11,-18,80,31,-1,-31,-25
-37,-8,29,23,-32,10,-20,79,30,-1,-31,-24
-36,-9,27,23,-31,9,-21,77,29,-2,-30,-24
-35,-9,26,23,-31,8,-22,74,29,-1,-29,-23
-35,-9,26,23,-30,7,-22,71,30,0,-28,-23
-34,-8,26,22,-30,8,-22,70,32,2,-26,-22
-33,-7,27,21,-30,9,-22,70,34,4,-24,-20
-33,-6,27,20,-30,10,-22,70,36,6,-22,-19
-32,-6,27,19,-29,10,-21,71,38,7,-20,-18
-31,-5,26,19,-29,10,-22,72,39,9,-18,-17
-30,-5,25,18,-28,10,-23,72,39,10,-17,-16
-28,-4,24,16,-27,10,-27,69,38,10,-16,-15
-26,-3,24,15,-26,10,-31,65,36,10,-15,-14
-25,-3,23,15,-24,10,-37,59,33,10,-15,-13
-24,-3,21,14,-23,9,-44,52,29,9,-14,-13
-22,-3,19,13,-21,8,-52,42,24,8,-14,-12
-20,-3,17,12,-19,7,-61,31,20,6,-13,-11
-19,-3,16,12,-17,6,-71,19,15,5,-13,-10
-17,-3,14,11,-16,5,-79,10,10,3,-13,-10
-14,-4,11,10,-13,3,-85,2,6,2,-13,-9
-12,-5,8,9,-11,1,-90,-3,1,1,-12,-8
-10,-6,5,8,-8,-1,-92,-8,-1,2,-10,-7
-9,-6,3,8,-6,-2,-93,-11,-4,2,-9,-6
-8,-7,0,8,-4,-3,-92,-13,-6,1,-8,-5
-7,-8,-1,8,-3,-4,-91,-14,-8,0,-7,-4
-6,-8,-2,7,-2,-5,-89,-15,-9,0,-6,-4
-5,-8,-2,7,-1,-5,-86,-16,-10,-1,-5,-3
-4,-8,-3,7,-1,-5,-83,-16,-10,-1,-4,-3
-3,-7,-3,6,0,-5,-80,-16,-10,0,-3,-2
-2,-7,-4,5,1,-6,-77,-15,-9,0,-2,-2
-1,-8,-6,5,2,-8,-74,-14,-9,1,-2,-1
0,-8,-8,4,4,-9,-72,-14,-9,1,-1,-1
1,-8,-9,4,5,-9,-70,-13,-9,2,-1,0
1,-9,-9,4,5,-9,-69,-13,-9,3,0,0
2,-9,-10,4,6,-10,-67,-12,-8,4,1,1
3,-9,-11,3,7,-10,-64,-12,-7,5,2,1
3,-9,-11,3,7,-11,-62,-11,-7,6,3,2
4,-9,-12,3,8,-11,-61,-11,-6,7,5,2
4,-9,-12,2,8,-11,-60,-10,-5,8,6,3
5,-8,-13,1,9,-11,-59,-10,-4,9,7,3
6,-8,-14,1,10,-11,-58,-9,-3,11,9,4
7,-7,-14,0,11,-11,-57,-9,-3,12,10,4
8,-7,-15,0,11,-11,-57,-9,-2,13,11,5
8,-7,-15,0,12,-11,-56,-9,-2,13,12,5
9,-6,-15,0,12,-11,-55,-8,-1,14,14,6
10,-6,-16,-1,13,-11,-55,-8,0,15,15,7
11,-5,-16,-2,13,-11,-54,-8,0,16,16,8
12,-5,-16,-3,14,-11,-54,-8,0,17,18,9
12,-5,-17,-3,14,-11,-55,-8,0,18,19,9
13,-5,-17,-4,15,-11,-55,-8,0,19,20,10
14,-5,-18,-4,15,-11,-55,-9,0,20,22,10
14,-5,-18,-4,16,-11,-55,-10,0,21,23,11
15,-4,-18,-5,16,-11,-55,-10,0,21,23,11
16,-3,-18,-5,17,-11,-55,-11,0,21,24,12
16,-3,-18,-6,17,-11,-55,-12,0,21,24,12
17,-3,-18,-6,17,-11,-55,-13,-1,21,25,13
17,-2,-18,-7,17,-10,-55,-15,-2,21,25,13
17,-2,-18,-7,17,-10,-56,-16,-3,20,25,14
17,-2,-18,-7,18,-10,-57,-18,-4,20,25,14
18,-2,-19,-7,18,-10,-57,-19,-5,20,25,15
18,-2,-19,-7,18,-10,-58,-20,-6,19,25,15
18,-2,-19,-7,18,-10,-59,-22,-7,19,25,15
18,-2,-19,-7,18,-10,-61,-23,-7,18,25,15
18,-2,-18,-7,18,-10,-62,-25,-8,18,24,14
18,-2,-18,-7,18,-10,-64,-26,-9,18,24,13
18,-1,-18,-7,18,-10,-65,-28,-10,16,23,13
18,-1,-18,-7,18,-10,-66,-29,-12,15,23,13
18,-1,-17,-7,18,-10,-67,-31,-13,15,23,14
18,-1,-17,-7,17,-9,-67,-32,-14,14,23,14
18,-1,-17,-7,17,-9,-68,-33,-15,14,22,14
17,-1,-17,-7,17,-9,-69,-34,-16,13,22,14
17,-1,-16,-7,17,-8,-70,-35,-16,13,21,13
16,-1,-16,-7,16,-8,-71,-35,-17,12,20,13
15,-1,-16,-6,15,-8,-71,-36,-17,12,19,12
14,-2,-15,-5,14,-8,-72,-37,-18,11,19,12
13,-2,-14,-5,14,-8,-72,-37,-18,10,18,11
12,-3,-14,-4,13,-8,-72,-37,-19,9,17,11
12,-3,-13,-4,13,-8,-72,-37,-20,8,16,10
11,-3,-13,-3,12,-8,-72,-38,-21,7,15,10
10,-4,-12,-3,11,-8,-72,-38,-21,6,14,9
9,-4,-12,-2,11,-8,-72,-37,-22,5,13,9
9,-4,-11,-2,10,-7,-72,-37,-22,5,12,8
8,-4,-11,-1,9,-7,-71,-36,-22,5,11,8
6,-4,-10,0,8,-7,-70,-36,-22,4,9,8
5,-4,-9,0,7,-7,-69,-36,-22,3,7,7
4,-4,-8,0,6,-6,-69,-35,-22,2,6,6
3,-4,-7,1,5,-6,-68,-35,-22,1,5,5
2,-5,-6,1,4,-6,-67,-34,-22,1,5,4
2,-5,-5,1,3,-5,-66,-32,-21,1,5,4
1,-4,-4,1,3,-4,-65,-31,-21,1,4,4
0,-3,-3,1,2,-3,-64,-30,-20,0,3,3
0,-2,-1,2,0,-2,-63,-29,-20,0,2,2
-1,-2,0,2,0,-1,-62,-29,-20,0,1,1
-2,-2,1,2,-1,0,-61,-28,-19,0,0,0
-3,-1,3,2,-3,0,-60,-27,-19,0,0,0
-4,-1,4,2,-4,1,-59,-26,-18,-1,-1,0
-5,-1,5,3,-5,2,-58,-24,-18,-2,-2,-1
-6,-1,6,3,-6,2,-57,-22,-17,-2,-2,-1
-6,-1,6,4,-6,3,-56,-21,-17,-2,-3,-2
-7,0,7,4,-7,4,-55,-21,-17,-2,-3,-2
-7,0,8,4,-8,4,-53,-20,-16,-1,-3,-3
-7,0,9,4,-8,4,-52,-19,-16,-2,-3,-3
-8,0,9,5,-9,4,-51,-18,-16,-2,-4,-3
-8,1,10,4,-9,5,-50,-17,-16,-3,-4,-4
-8,1,11,4,-10,5,-50,-15,-15,-3,-5,-4
-9,1,11,5,-10,6,-49,-14,-14,-4,-5,-5
-9,1,12,5,-11,6,-48,-14,-14,-4,-6,-5
-10,1,13,5,-11,7,-48,-13,-14,-4,-6,-5
-11,1,13,5,-12,7,-47,-13,-13,-4,-6,-5
-12,0,13,6,-13,7,-46,-12,-13,-4,-6,-6
-12,0,13,7,-13,6,-45,-11,-12,-4,-7,-6
-12,0,13,7,-13,6,-44,-10,-12,-4,-7,-7
-12,0,14,7,-13,7,-44,-9,-11,-4,-7,-7
-12,0,14,6,-13,7,-43,-9,-11,-5,-7,-7
-12,1,14,6,-13,7,-43,-8,-11,-5,-7,-7
-13,1,14,6,-13,7,-44,-9,-11,-6,-8,-8
-13,1,15,6,-14,7,-44,-9,-12,-7,-8,-8
-13,1,15,6,-14,8,-43,-9,-11,-7,-8,-8
-13,2,15,6,-14,8,-43,-8,-11,-7,-8,-8
-13,2,15,6,-14,9,-43,-8,-11,-8,-8,-8
-13,2,15,6,-14,9,-42,-7,-11,-8,-8,-7
-13,2,15,6,-14,9,-41,-7,-10,-7,-8,-7
-13,2,16,6,-14,9,-40,-6,-10,-7,-8,-7
-13,2,17,6,-15,10,-39,-5,-10,-7,-8,-7
-13,3,18,6,-15,10,-38,-4,-10,-7,-8,-7
-13,3,18,6,-16,11,-37,-3,-9,-7,-7,-6
-13,4,19,5,-16,11,-36,-3,-8,-7,-7,-6
-13,5,19,4,-16,12,-36,-2,-6,-6,-6,-5
-13,6,19,3,-16,13,-35,-2,-5,-5,-5,-5
-12,6,20,3,-16,13,-35,-2,-5,-5,-6,-5
-12,7,20,3,-16,13,-35,-2,-5,-5,-6,-6
-12,7,20,3,-16,13,-36,-2,-5,-4,-6,-6
-12,7,20,2,-16,14,-37,-2,-5,-4,-6,-5
-12,7,20,2,-16,14,-39,-3,-6,-4,-6,-5
-12,6,20,3,-16,13,-41,-4,-7,-4,-6,-5
-12,6,19,3,-16,13,-43,-4,-8,-5,-6,-6
-11,6,19,3,-15,12,-44,-5,-8,-5,-6,-6
-11,5,18,3,-14,12,-45,-5,-8,-5,-7,-6
-10,5,17,3,-14,11,-45,-5,-8,-6,-7,-6
-9,6,16,2,-13,11,-46,-5,-9,-6,-7,-5
-8,7,16,1,-12,11,-47,-5,-9,-6,-6,-5
-6,7,15,0,-11,11,-48,-6,-9,-6,-6,-5
-6,7,15,0,-10,11,-49,-7,-9,-6,-6,-5
-7,7,15,0,-10,11,-50,-8,-10,-6,-6,-5
-7,7,15,0,-11,11,-50,-8,-10,-6,-6,-5
-7,7,15,0,-11,11,-51,-9,-10,-6,-5,-4
-7,8,15,0,-11,12,-51,-9,-10,-6,-5,-4
-6,8,16,0,-11,12,-52,-9,-11,-6,-4,-3
-6,8,16,0,-11,12,-52,-8,-10,-6,-4,-3
-7,7,16,0,-12,11,-51,-8,-10,-6,-4,-4
-8,6,16,1,-12,10,-51,-8,-10,-6,-4,-5
-8,6,15,1,-12,10,-50,-8,-10,-6,-4,-5
-8,5,15,1,-11,10,-50,-8,-10,-6,-4,-5
-7,5,14,1,-11,10,-50,-8,-10,-6,-5,-5
-8,4,14,2,-11,9,-51,-8,-11,-7,-6,-6
-8,3,14,3,-11,9,-51,-8,-12,-8,-7,-7
-8,2,13,3,-10,8,-52,-8,-13,-9,-7,-8
-8,2,12,3,-9,7,-52,-8,-13,-10,-8,-9
-7,1,10,3,-8,6,-53,-9,-14,-11,-9,-9
-6,0,9,3,-7,4,-54,-10,-14,-11,-10,-10
-6,0,7,3,-6,3,-55,-11,-15,-12,-10,-10
-5,-1,6,3,-5,2,-56,-11,-16,-13,-10,-10
-5,-1,5,3,-4,1,-56,-11,-16,-13,-11,-10
-4,-2,4,3,-4,1,-57,-12,-17,-14,-11,-11
-4,-2,3,3,-3,0,-58,-13,-18,-15,-12,-12
-4,-3,3,3,-3,0,-58,-13,-18,-15,-12,-12
-4,-3,2,3,-3,0,-58,-13,-18,-16,-12,-13
-4,-3,2,3,-3,0,-58,-13,-19,-16,-12,-13
-4,-3,2,3,-3,0,-58,-14,-19,-17,-13,-13
-4,-3,2,3,-3,0,-59,-14,-19,-17,-14,-14
-4,-3,1,3,-3,-1,-59,-14,-19,-17,-14,-14
-4,-3,1,3,-3,-1,-60,-14,-19,-17,-13,-15
-4,-3,1,3,-3,-1,-60,-14,-20,-17,-13,-15
-4,-3,1,3,-3,-1,-61,-14,-20,-17,-13,-15
-4,-3,1,4,-3,-1,-61,-14,-20,-18,-13,-15
-4,-3,1,4,-3,-1,-62,-14,-20,-18,-13,-15
-4,-3,1,4,-3,-1,-62,-14,-19,-19,-13,-15
-4,-3,1,4,-3,0,-63,-15,-19,-19,-13,-15
-4,-3,2,4,-3,0,-63,-15,-20,-19,-13,-15
-4,-3,2,4,-3,0,-63,-15,-20,-19,-13,-15
-3,-2,2,3,-3,0,-64,-14,-19,-19,-13,-15
-3,-2,2,3,-3,0,-64,-14,-19,-20,-13,-15
-4,-3,2,4,-3,0,-64,-14,-19,-20,-13,-15
-4,-3,2,4,-3,0,-64,-14,-18,-19,-13,-14
-5,-3,2,5,-3,0,-64,-14,-18,-18,-12,-14
-5,-3,2,5,-3,0,-65,-15,-19,-17,-12,-14
-5,-3,2,5,-3,0,-66,-15,-19,-17,-12,-13
-5,-3,2,5,-3,0,-66,-15,-18,-17,-12,-14
-5,-3,2,5,-3,0,-66,-15,-19,-17,-12,-14
-5,-3,2,4,-3,0,-66,-15,-20,-17,-13,-15
-4,-3,2,4,-3,0,-66,-14,-21,-17,-12,-15
-4,-3,2,4,-3,0,-66,-14,-20,-16,-12,-15
-4,-3,2,4,-3,0,-67,-14,-19,-16,-13,-15
-4,-3,2,4,-3,0,-67,-14,-19,-16,-14,-16
-4,-3,2,4,-3,0,-67,-13,-20,-16,-14,-16
-4,-2,3,4,-4,0,-67,-13,-21,-17,-14,-16
-4,-2,3,4,-4,0,-68,-14,-21,-18,-14,-16
-4,-2,3,4,-4,0,-68,-14,-20,-18,-14,-16
-4,-2,3,4,-4,0,-68,-14,-19,-18,-14,-16
-4,-2,3,4,-4,0,-69,-14,-19,-17,-14,-16
-4,-2,3,3,-3,0,-69,-14,-19,-17,-13,-16
-4,-2,3,3,-3,0,-70,-15,-19,-17,-13,-15
-4,-2,3,4,-4,0,-70,-15,-19,-17,-13,-15
-5,-2,3,4,-4,0,-70,-15,-19,-16,-13,-15
-5,-2,2,4,-4,0,-70,-15,-19,-16,-13,-14
-5,-2,2,4,-4,0,-71,-15,-20,-17,-13,-14
-4,-2,3,3,-4,0,-71,-14,-19,-17,-12,-13
-4,-1,3,3,-4,1,-71,-14,-18,-17,-12,-13
-5,-1,4,3,-5,1,-71,-14,-18,-17,-11,-13
-5,-1,4,3,-5,1,-72,-14,-18,-17,-11,-13
-5,-1,4,3,-5,1,-73,-14,-18,-16,-10,-13
-4,-1,3,3,-4,1,-74,-14,-19,-16,-10,-13
-3,-1,3,2,-3,1,-75,-14,-19,-16,-9,-12
-2,0,2,2,-2,0,-76,-13,-20,-16,-9,-13
-2,-1,0,2,-1,0,-77,-12,-19,-16,-9,-13
-1,-2,0,2,-1,-1,-77,-10,-18,-16,-9,-13
-1,-2,0,2,0,-1,-77,-8,-17,-15,-8,-12
0,-1,0,1,0,-1,-77,-4,-13,-12,-4,-11
2,0,-1,-1,2,-1,-78,0,-7,-6,1,-9
6,2,-3,-4,4,0,-79,3,0,1,8,-5
10,6,-3,-8,6,1,-81,5,7,11,19,1
15,11,-3,-13,9,4,-82,8,16,23,32,9
21,18,-2,-19,11,8,-83,10,26,37,48,18
27,27,0,-27,13,13,-86,11,36,51,64,28
35,37,1,-35,17,19,-89,12,45,65,79,38
43,45,2,-44,20,24,-91,13,53,76,93,48
49,53,4,-51,22,28,-94,13,57,85,105,56
52,58,6,-55,23,32,-95,12,58,90,111,62
49,61,11,-55,19,36,-95,9,56,87,111,64
40,59,19,-49,10,39,-92,6,47,76,99,60
24,53,29,-38,-3,41,-86,1,33,54,75,48
4,44,40,-24,-18,42,-77,-4,15,26,43,31
-14,35,49,-10,-32,42,-69,-10,-4,-1,10,14
-27,27,55,0,-42,42,-62,-13,-17,-21,-14,0
-36,23,60,6,-49,42,-55,-10,-21,-32,-30,-11
-42,21,64,10,-53,43,-49,-5,-20,-36,-38,-17
-46,19,66,13,-56,43,-45,0,-18,-38,-42,-22
-48,17,66,15,-57,41,-43,5,-16,-39,-45,-25
-49,15,65,17,-57,39,-41,10,-15,-39,-46,-28
-49,13,62,18,-55,37,-40,15,-13,-38,-46,-29
-47,10,57,18,-53,34,-39,21,-10,-37,-45,-31
-46,8,53,19,-50,30,-38,29,-6,-35,-43,-33
-44,5,48,19,-47,27,-36,37,-2,-33,-42,-33
-42,4,45,19,-44,25,-32,47,2,-30,-40,-33
-40,3,43,19,-42,23,-26,57,7,-27,-37,-33
-39,3,42,18,-41,23,-21,66,12,-24,-35,-32
-38,3,42,18,-40,23,-17,71,15,-23,-34,-32
-37,3,41,17,-39,22,-14,72,16,-22,-33,-31
-36,3,40,16,-38,22,-13,71,15,-21,-31,-30
-35,3,39,15,-37,21,-12,71,15,-20,-28,-28
-33,4,37,14,-35,21,-11,71,14,-18,-25,-27
-31,4,36,12,-33,21,-10,69,13,-18,-23,-26
-30,4,35,12,-32,20,-10,66,12,-18,-22,-26
-30,3,34,13,-31,19,-9,63,11,-17,-21,-26
-29,2,32,13,-31,17,-8,60,11,-16,-20,-25
-28,3,32,13,-30,17,-7,57,11,-15,-19,-24
-27,5,32,11,-30,18,-5,57,12,-13,-17,-23
-26,6,32,10,-30,18,-3,58,15,-11,-15,-21
-26,7,32,9,-29,19,0,59,18,-9,-13,-19
-25,7,31,8,-29,19,2,60,20,-8,-12,-18
-24,7,31,8,-28,19,3,60,20,-7,-10,-17
-23,7,30,8,-27,19,2,58,20,-6,-9,-17
-21,7,29,8,-26,18,0,54,18,-7,-9,-16
-20,7,28,7,-25,17,-4,49,15,-7,-9,-16
-20,6,26,7,-24,16,-10,42,12,-8,-8,-15
-19,6,25,6,-22,15,-19,33,7,-10,-8,-13
-17,6,23,5,-20,15,-29,22,2,-11,-7,-13
-15,6,20,4,-18,14,-40,10,-2,-11,-5,-13
-12,5,18,3,-16,13,-52,0,-6,-12,-4,-11
-10,5,16,2,-13,11,-62,-6,-10,-12,-4,-10
-7,4,13,2,-10,9,-72,-12,-13,-13,-3,-9
-5,4,10,1,-8,7,-82,-17,-16,-14,-3,-9
-3,5,8,0,-6,6,-90,-21,-20,-15,-2,-8
-1,5,6,-2,-4,5,-96,-23,-22,-15,-1,-8
0,4,4,-3,-2,4,-101,-25,-23,-14,0,-8
1,4,2,-3,0,3,-105,-26,-24,-15,1,-8
2,3,0,-3,0,2,-109,-26,-24,-16,2,-6
3,2,0,-3,1,1,-112,-26,-25,-16,2,-6
4,2,-1,-3,2,0,-114,-26,-25,-16,3,-5
6,3,-2,-4,3,0,-116,-26,-24,-15,5,-4
7,4,-2,-5,4,0,-117,-25,-24,-14,6,-3
7,3,-3,-5,5,0,-119,-24,-24,-14,7,-3
7,2,-5,-4,5,-1,-120,-24,-24,-13,8,-2
7,1,-6,-4,6,-2,-122,-23,-24,-12,9,-1
7,1,-7,-5,7,-2,-124,-23,-23,-12,10,0
8,1,-7,-5,7,-2,-125,-23,-22,-11,11,0
9,2,-8,-5,8,-3,-126,-23,-22,-10,12,0
10,2,-8,-5,9,-3,-127,-22,-21,-9,13,0
10,2,-8,-5,9,-3,-128,-21,-21,-8,13,-1
11,2,-8,-6,9,-3,-129,-21,-21,-7,14,-1
11,3,-8,-7,10,-2,-130,-21,-22,-7,15,0
12,3,-8,-8,10,-2,-131,-20,-22,-8,15,0
12,4,-8,-9,10,-2,-131,-19,-22,-8,16,1
13,3,-9,-9,11,-2,-132,-19,-21,-7,17,3
13,3,-9,-9,11,-3,-133,-19,-19,-5,19,4
15,4,-10,-9,12,-3,-134,-18,-17,-2,22,4
16,5,-10,-10,13,-3,-134,-17,-16,0,24,5
17,5,-11,-10,14,-3,-135,-16,-16,1,26,5
18,5,-12,-11,15,-3,-136,-16,-15,2,27,5
18,4,-13,-11,15,-4,-137,-17,-15,2,28,6
19,5,-13,-12,16,-4,-139,-18,-14,2,28,7
20,6,-14,-13,17,-4,-140,-18,-14,2,28,8
21,6,-15,-14,17,-4,-141,-19,-14,3,30,10
21,7,-15,-14,18,-4,-142,-19,-14,3,31,10
22,7,-15,-15,18,-4,-144,-19,-14,4,33,10
23,7,-16,-15,19,-5,-146,-21,-15,4,33,11
23,7,-16,-15,20,-5,-147,-22,-15,4,33,12
24,8,-16,-16,20,-5,-149,-23,-16,4,32,12
24,8,-17,-16,21,-4,-151,-24,-16,4,32,13
25,8,-17,-17,21,-4,-153,-25,-17,4,32,13
25,9,-16,-17,20,-4,-155,-27,-19,3,32,13
25,9,-16,-17,20,-4,-156,-28,-21,2,33,14
25,9,-16,-17,21,-4,-157,-29,-22,3,35,15
25,9,-16,-17,21,-3,-159,-31,-21,4,37,16
25,10,-16,-17,21,-3,-160,-32,-20,5,38,16
25,10,-16,-17,21,-3,-162,-34,-20,4,38,16
25,9,-16,-17,20,-3,-164,-36,-22,3,37,16
24,9,-16,-16,20,-3,-166,-38,-24,3,37,16
23,8,-15,-16,20,-3,-167,-39,-25,3,37,16
23,8,-15,-16,19,-3,-168,-40,-26,2,36,16
23,8,-14,-16,19,-3,-168,-40,-26,2,34,16
23,8,-14,-16,18,-3,-169,-41,-26,1,33,15
22,8,-13,-15,18,-2,-169,-41,-27,1,32,15
21,8,-13,-15,17,-2,-170,-42,-28,0,32,15
21,8,-12,-15,16,-2,-170,-42,-29,-1,32,15
20,9,-12,-15,16,-1,-171,-43,-30,-1,32,15
20,9,-11,-15,15,0,-172,-43,-31,-2,31,14
19,9,-10,-15,15,0,-173,-44,-31,-3,30,13
18,8,-10,-14,14,0,-173,-44,-32,-4,29,14
17,8,-9,-13,13,0,-174,-44,-32,-4,28,14
16,7,-9,-11,13,0,-174,-45,-32,-5,26,14
15,7,-8,-10,12,0,-173,-45,-32,-6,24,13
14,7,-7,-10,11,0,-173,-45,-32,-7,23,12
13,6,-7,-9,10,0,-173,-45,-32,-7,23,11
13,6,-7,-9,10,0,-172,-44,-32,-8,23,11
12,6,-6,-9,9,0,-172,-43,-33,-8,23,11
11,6,-5,-9,8,0,-172,-42,-33,-8,23,11
10,6,-4,-8,7,1,-171,-41,-33,-8,22,11
10,5,-4,-8,7,1,-170,-40,-32,-8,21,10
9,5,-3,-7,6,1,-169,-39,-32,-9,20,10
8,5,-2,-7,6,1,-168,-38,-31,-8,19,10
7,5,-1,-6,5,1,-166,-37,-30,-7,19,10
6,6,0,-6,3,2,-165,-35,-29,-7,19,9
4,5,0,-5,2,2,-164,-33,-29,-7,18,9
3,5,1,-4,1,2,-164,-32,-29,-9,16,8
2,5,1,-4,1,3,-163,-30,-29,-10,15,8
2,5,2,-4,0,3,-161,-29,-28,-10,15,9
1,4,2,-3,0,3,-160,-28,-27,-10,15,9
0,4,3,-2,-1,3,-160,-27,-26,-9,16,9
0,4,4,-2,-2,4,-160,-27,-25,-8,16,9
-1,4,5,-1,-3,4,-159,-25,-25,-7,16,8
-2,3,5,-1,-3,3,-158,-24,-24,-8,16,8
-2,3,6,-1,-4,4,-157,-23,-25,-9,17,9
-3,3,7,0,-5,5,-156,-22,-25,-9,17,8
-4,3,8,0,-6,6,-155,-20,-24,-9,17,8
-5,3,9,0,-7,6,-154,-19,-24,-10,16,8
-6,3,9,1,-7,7,-154,-19,-24,-10,16,8
-7,3,10,1,-8,7,-154,-18,-25,-11,16,8
-7,3,10,2,-8,6,-154,-17,-25,-10,16,8
-7,3,10,2,-8,6,-153,-16,-24,-10,16,7
-7,3,10,2,-8,6,-153,-16,-24,-11,15,8
-7,2,10,2,-8,6,-153,-15,-24,-11,15,9
-7,2,9,2,-8,6,-152,-14,-23,-11,16,9
-7,2,9,2,-8,6,-152,-14,-22,-10,16,9
-7,3,10,2,-8,6,-151,-13,-21,-9,16,9
-7,4,10,1,-8,7,-150,-11,-20,-8,16,9
-7,4,11,1,-9,7,-150,-10,-19,-7,16,10
-7,5,12,1,-9,8,-149,-9,-19,-7,15,10
-7,5,12,1,-9,8,-149,-8,-18,-7,15,11
-7,5,13,1,-9,9,-149,-7,-17,-7,15,11
-7,6,13,0,-10,10,-149,-7,-16,-7,15,12
-7,6,14,0,-10,11,-149,-6,-16,-7,16,12
-7,7,14,0,-11,11,-149,-6,-16,-7,16,12
-7,7,15,0,-11,11,-148,-5,-16,-7,17,13
-7,8,16,0,-11,12,-147,-3,-16,-7,17,14
-7,9,17,-1,-12,13,-147,-2,-15,-7,17,15
-7,11,18,-1,-12,15,-147,-2,-15,-6,17,15
-7,12,20,-2,-13,16,-149,-4,-15,-6,17,16
-8,14,22,-3,-14,18,-150,-5,-15,-5,18,16
-8,16,23,-4,-15,19,-151,-6,-15,-5,19,17
-7,17,24,-5,-15,20,-153,-7,-16,-5,19,17
-7,18,25,-6,-15,21,-155,-8,-17,-5,19,18
-7,19,25,-6,-15,22,-157,-9,-18,-5,20,19
-6,20,26,-7,-16,23,-159,-10,-19,-4,21,20
-5,22,27,-8,-16,24,-160,-11,-19,-3,21,21
-4,22,26,-9,-15,24,-162,-11,-20,-4,21,21
-3,22,25,-9,-14,24,-163,-11,-21,-4,21,21
-3,21,24,-9,-13,23,-164,-10,-20,-4,21,21
-2,20,23,-9,-12,21,-164,-10,-19,-5,21,21
-2,19,21,-9,-11,20,-164,-9,-18,-6,21,21
-2,18,20,-8,-10,19,-165,-9,-18,-6,21,21
-2,17,19,-8,-10,18,-165,-9,-17,-7,20,21
-2,16,18,-7,-9,17,-166,-9,-17,-7,20,21
-2,14,16,-6,-8,15,-166,-9,-17,-7,20,21
-2,13,15,-6,-8,14,-167,-9,-17,-7,20,20
-2,11,13,-5,-7,12,-167,-9,-17,-7,20,20
-2,9,11,-5,-6,10,-168,-9,-18,-7,19,19
-2,8,10,-4,-6,9,-169,-9,-19,-8,18,19
-2,8,10,-4,-6,9,-169,-10,-20,-8,18,19
-2,8,10,-4,-6,9,-170,-10,-20,-9,17,19
-2,9,10,-4,-6,10,-170,-10,-21,-9,17,19
-2,9,11,-3,-6,10,-170,-10,-21,-9,17,19
-3,8,11,-2,-6,9,-170,-10,-21,-10,16,18
-3,6,10,-1,-6,8,-170,-10,-21,-11,16,18
-4,5,9,0,-6,7,-171,-9,-21,-11,15,17
-5,3,8,0,-6,5,-171,-9,-20,-11,15,16
-5,1,7,2,-6,3,-171,-8,-20,-12,14,15
-6,-1,5,3,-5,2,-171,-8,-20,-13,13,14
-7,-3,4,5,-5,1,-172,-8,-20,-13,12,13
-8,-3,5,6,-6,1,-173,-8,-21,-14,12,13
-8,-3,6,6,-7,1,-174,-9,-21,-14,12,13
-9,-2,7,5,-8,2,-175,-9,-22,-14,11,13
-9,-1,8,5,-8,3,-176,-10,-22,-14,11,12
-9,-1,8,5,-8,3,-177,-10,-22,-14,11,12
-9,-1,8,5,-8,3,-177,-10,-21,-14,10,12
-9,-1,8,5,-8,3,-178,-10,-21,-14,10,12
-9,-1,8,5,-8,3,-178,-10,-22,-14,10,12
-9,0,8,4,-8,3,-176,-10,-22,-14,10,11
-8,0,8,4,-8,4,-183,-10,-22,-15,9,11
-8,0,9,4,-8,4,-208,-10,-22,-15,9,10
-9,0,9,4,-8,4,-14,-10,-22,-15,8,10
-9,-1,9,5,-8,4,-299,-10,-22,-15,8,9
-9,-2,8,5,-8,3,-260,-11,-23,-16,7,9
-10,-2,8,6,-9,3,576,-11,-23,-16,7,8
-11,-3,8,7,-9,2,1065,-11,-23,-16,6,8
-11,-4,7,7,-9,1,1357,-11,-23,-17,6,8
-11,-5,6,8,-8,0,1530,-11,-23,-18,5,7
-11,-6,4,8,-7,-1,1633,-10,-23,-18,5,6
-10,-6,4,8,-7,-1,1693,-10,-23,-18,4,5
-10,-7,3,8,-7,-2,1728,-10,-23,-18,4,5
-10,-6,4,7,-7,-1,1748,-11,-23,-17,4,5
-9,-4,5,7,-8,0,1758,-11,-23,-16,4,5
-10,-3,7,6,-9,2,1764,-11,-23,-15,4,5
-10,-2,8,6,-9,3,1767,-11,-24,-15,4,5
-10,-1,9,6,-9,3,1768,-11,-24,-15,3,4
-9,-1,8,5,-8,3,1769,-10,-23,-15,2,4
-8,-2,6,5,-7,2,1768,-10,-23,-16,2,4
-8,-3,5,6,-7,0,1767,-10,-23,-16,1,3
-8,-4,4,6,-6,0,1766,-10,-23,-16,1,3
-8,-4,4,6,-6,0,1764,-10,-23,-16,0,2
-8,-4,4,6,-6,0,1763,-10,-22,-16,0,2
-8,-5,3,6,-5,-1,1761,-9,-22,-17,-1,1
-8,-6,2,7,-5,-2,1760,-8,-22,-17,-2,0
-8,-7,1,7,-5,-3,1759,-8,-22,-17,-2,0
-8,-7,1,7,-5,-3,1758,-9,-22,-17,-3,-1
-8,-6,2,7,-6,-2,1756,-9,-23,-17,-3,-1
-8,-5,3,7,-6,-1,1755,-10,-23,-17,-3,-1
-7,-4,3,6,-5,0,1754,-10,-23,-17,-3,-1
-6,-4,3,5,-5,-1,1752,-9,-22,-17,-4,-2
-6,-5,1,5,-4,-2,1751,-8,-21,-17,-5,-2
-6,-7,0,6,-3,-4,1749,-7,-20,-17,-5,-3
-6,-7,0,6,-3,-4,1748,-7,-20,-17,-6,-3
-6,-7,0,6,-3,-3,1748,-8,-20,-16,-6,-3
-5,-5,0,5,-3,-2,1747,-9,-19,-16,-6,-2
-4,-3,1,3,-2,-1,1746,-9,-19,-15,-6,-2
-3,-2,1,2,-2,0,1745,-8,-19,-15,-6,-2
-3,-1,1,2,-2,0,1743,-8,-19,-15,-6,-2
-3,-2,1,2,-2,0,1742,-8,-20,-15,-7,-2
-2,-2,0,2,-1,-1,1741,-9,-21,-16,-8,-3
-1,-2,0,1,0,-1,1741,-9,-22,-16,-8,-3
0,-2,-1,1,0,-2,1731,-9,-22,-16,-8,-3
0,-3,-3,2,1,-3,913,-8,-21,-16,-8,-3
1,-4,-5,2,2,-4,-195,-6,-19,-15,-8,-4
3,-4,-7,1,4,-5,-425,-3,-16,-14,-6,-3
5,-3,-8,0,6,-6,-74,0,-12,-10,-3,-2
7,-1,-8,-2,7,-5,514,3,-7,-5,1,0
11,0,-10,-5,10,-5,1012,7,-1,2,8,4
15,3,-11,-10,13,-4,1306,10,6,11,17,9
20,8,-11,-15,15,-1,1473,13,15,23,29,16
26,16,-10,-22,18,3,1572,16,25,37,44,25
34,25,-9,-30,21,8,1630,19,36,51,60,36
42,35,-7,-39,24,14,1663,20,45,65,76,47
50,44,-6,-47,28,19,1681,21,53,78,91,57
56,51,-6,-54,31,23,1690,21,59,87,103,65
60,55,-5,-58,32,25,1694,20,61,91,109,71
59,57,-1,-58,30,27,1695,18,57,88,108,72
52,56,5,-54,24,30,1694,14,48,76,96,68
38,51,14,-44,12,32,1585,8,33,56,73,57
19,44,26,-31,-3,34,1124,0,15,31,42,41
0,36,36,-18,-18,35,334,-7,-2,5,11,24
-15,30,44,-7,-30,36,7,-11,-15,-14,-13,10
-26,26,51,0,-39,38,194,-10,-20,-25,-30,-1
-33,24,57,5,-45,40,278,-6,-20,-29,-39,-8
-36,22,59,7,-48,40,335,0,-18,-30,-43,-12
-39,20,60,10,-50,39,-79,6,-15,-30,-46,-15
-40,17,58,12,-50,37,-462,12,-14,-30,-48,-18
-41,14,56,13,-49,35,-758,17,-12,-31,-49,-20
-40,12,52,14,-47,32,-881,24,-10,-31,-49,-22
-39,8,48,16,-44,28,-650,32,-7,-30,-49,-24
-38,5,43,16,-41,24,-685,41,-4,-30,-49,-25
-35,3,38,16,-37,21,-814,51,0,-28,-48,-26
-33,3,36,15,-35,20,-934,61,5,-24,-46,-26
-31,4,36,14,-34,20,-509,70,9,-21,-44,-25
-30,5,37,12,-34,21,241,75,11,-19,-42,-25
-30,7,38,11,-34,22,507,75,12,-18,-40,-24
-29,8,37,10,-33,22,717,74,13,-16,-38,-23
-27,8,35,9,-32,21,364,74,13,-16,-37,-22
-26,7,32,9,-29,20,49,73,14,-15,-36,-22
-24,7,30,8,-27,18,188,73,14,-15,-35,-21
-23,6,29,8,-26,17,243,71,14,-15,-35,-21
-23,5,28,8,-25,16,-61,69,13,-15,-34,-21
-22,4,27,8,-24,16,-851,66,14,-14,-33,-21
-20,5,27,7,-24,16,-1329,65,16,-11,-31,-20
-19,8,28,6,-23,17,-996,65,20,-8,-28,-18
-18,10,28,4,-23,19,-362,67,24,-5,-26,-17
-18,13,30,3,-24,21,-544,68,26,-2,-25,-16
-18,15,32,1,-25,23,-515,70,27,0,-23,-14
-17,17,33,0,-25,25,-482,71,27,1,-22,-13
-15,17,33,-1,-24,25,-552,70,27,1,-20,-12
-14,16,31,-1,-22,24,59,67,26,1,-19,-11
-13,15,29,-1,-20,22,158,62,24,2,-18,-11
-12,13,26,-1,-19,20,-119,55,21,2,-17,-11
-10,13,24,-2,-17,19,153,47,18,1,-17,-11
-7,14,21,-4,-14,18,-138,37,14,0,-16,-10
-4,13,18,-5,-11,16,-813,26,9,-1,-16,-9
-2,12,14,-5,-8,13,-922,16,4,-3,-16,-9
1,10,10,-6,-4,10,-729,8,-2,-5,-16,-9
3,9,6,-6,-1,7,-391,0,-7,-7,-16,-9
5,7,3,-6,1,5,6,-6,-12,-9,-16,-8
6,6,1,-6,2,3,415,-11,-16,-10,-16,-8
7,7,0,-7,3,3,807,-15,-19,-11,-15,-6
8,7,-1,-8,4,2,1172,-17,-21,-11,-14,-5
9,7,-2,-8,5,2,667,-18,-23,-12,-14,-5
10,7,-3,-8,6,2,-367,-19,-25,-12,-14,-5
11,7,-3,-8,7,2,-892,-20,-27,-12,-13,-5
11,7,-3,-9,8,2,-1127,-21,-27,-10,-11,-4
12,7,-3,-9,8,2,-1199,-20,-26,-10,-10,-4
13,7,-5,-10,9,0,-1182,-18,-25,-10,-9,-3
15,6,-8,-10,12,-1,-1120,-17,-25,-10,-9,-3
16,5,-11,-11,13,-3,-1039,-17,-25,-11,-9,-4
16,5,-12,-11,14,-3,-950,-18,-26,-10,-9,-4
17,6,-11,-11,14,-3,-864,-18,-27,-10,-8,-4
17,6,-11,-12,15,-2,-782,-18,-26,-9,-8,-4
18,6,-12,-12,16,-3,-706,-17,-26,-9,-8,-3
18,5,-13,-12,16,-4,-638,-16,-25,-8,-7,-3
19,5,-14,-12,17,-5,-577,-15,-24,-7,-6,-3
20,4,-15,-12,17,-5,-523,-14,-22,-6,-5,-3
21,4,-16,-13,18,-6,-528,-14,-21,-5,-4,-2
22,5,-17,-13,19,-6,-378,-13,-20,-4,-3,-2
23,6,-18,-14,20,-6,49,-13,-19,-3,-2,-1
24,7,-17,-15,20,-5,42,-12,-19,-2,0,0
25,8,-16,-16,20,-4,-352,-12,-19,-1,1,0
25,8,-16,-17,20,-4,-177,-13,-19,0,2,1
25,9,-15,-17,20,-3,458,-13,-19,1,3,1
25,9,-15,-17,20,-3,462,-13,-19,3,5,2
25,9,-15,-17,20,-3,-244,-13,-18,4,6,3
25,10,-15,-18,20,-3,-826,-13,-18,5,7,3
26,10,-16,-18,21,-3,-889,-15,-19,5,8,3
27,10,-16,-19,22,-3,-261,-16,-19,6,9,3
28,9,-17,-18,22,-4,278,-16,-20,6,9,3
28,9,-18,-18,23,-5,223,-16,-20,5,8,3
29,9,-20,-19,24,-6,70,-16,-20,5,8,3
30,8,-22,-20,26,-7,85,-16,-20,5,8,3
32,7,-24,-20,28,-8,394,-17,-20,5,8,3
33,8,-24,-20,28,-8,214,-19,-21,4,8,3
33,9,-22,-21,28,-6,-107,-21,-21,5,9,4
33,11,-21,-22,27,-4,-381,-22,-21,5,10,5
33,11,-20,-22,26,-4,-511,-23,-23,5,10,5
32,11,-20,-22,26,-4,-455,-25,-24,4,10,5
32,11,-20,-22,26,-4,-201,-26,-24,5,10,5
32,11,-20,-22,26,-5,248,-28,-25,5,10,5
31,11,-20,-21,25,-5,45,-29,-26,4,10,5
31,11,-20,-21,25,-5,-488,-31,-28,4,9,5
31,11,-20,-22,26,-4,-329,-32,-29,3,9,4
31,11,-19,-22,25,-3,284,-34,-30,3,8,4
30,11,-18,-21,25,-3,373,-35,-30,3,8,4
30,11,-17,-21,24,-2,185,-36,-30,3,9,4
30,11,-17,-21,24,-2,-137,-37,-31,2,8,3
30,12,-17,-21,23,-2,-513,-38,-32,1,7,3
30,13,-17,-22,24,-2,-898,-39,-33,1,7,3
30,13,-18,-22,24,-2,-1268,-40,-34,0,6,2
30,12,-18,-21,24,-2,-774,-40,-34,-1,4,2
29,11,-17,-21,23,-2,245,-40,-35,-2,3,1
29,11,-17,-20,23,-2,756,-40,-36,-3,2,0
28,10,-17,-19,22,-3,976,-41,-37,-4,2,0
27,9,-16,-18,21,-3,1035,-42,-38,-4,1,0
26,9,-16,-18,21,-3,1008,-41,-37,-5,0,-1
25,8,-17,-17,21,-4,937,-41,-36,-6,-1,-1
24,7,-16,-16,20,-4,846,-41,-37,-6,-2,-2
23,8,-15,-16,19,-3,749,-42,-39,-6,-3,-3
23,9,-13,-17,18,-2,655,-42,-39,-5,-3,-3
22,9,-12,-17,18,-1,567,-40,-37,-4,-3,-3
22,8,-13,-16,18,-2,487,-38,-33,-5,-5,-4
21,6,-14,-15,18,-4,416,-37,-29,-7,-6,-5
21,5,-14,-14,18,-4,351,-36,-25,-7,-7,-6
20,6,-13,-13,16,-3,295,-36,-22,-7,-7,-7
19,7,-11,-13,15,-2,245,-35,-19,-7,-8,-7
17,7,-10,-12,13,-1,201,-34,-18,-8,-8,-7
15,6,-9,-11,13,-2,163,-33,-17,-8,-9,-7
15,5,-9,-10,13,-2,129,-32,-15,-8,-10,-8
14,4,-9,-10,12,-2,100,-30,-13,-8,-10,-9
14,4,-8,-9,11,-2,74,-29,-12,-7,-10,-9
13,5,-7,-9,10,-1,51,-29,-12,-7,-10,-9
12,6,-5,-9,8,0,32,-28,-12,-7,-9,-9
11,7,-3,-9,7,2,15,-27,-11,-6,-9,-9
11,8,-2,-10,6,3,0,-25,-10,-6,-10,-9
10,8,-1,-10,6,4,-12,-23,-8,-6,-11,-9
10,8,-1,-9,6,3,-24,-21,-6,-6,-11,-10
10,6,-3,-9,7,2,-35,-19,-4,-7,-12,-11
9,4,-4,-7,7,0,-43,-18,-3,-7,-13,-12
8,3,-5,-6,7,0,-51,-17,-3,-8,-14,-13
8,3,-4,-6,6,0,-58,-16,-2,-8,-15,-13
7,4,-2,-6,5,1,-63,-15,-2,-8,-16,-14
7,5,-1,-6,4,2,-69,-15,-2,-9,-16,-14
7,6,0,-6,3,3,-74,-15,-3,-9,-17,-15
7,6,0,-6,4,3,-77,-14,-2,-9,-17,-15
7,6,-1,-7,4,3,-80,-11,0,-9,-17,-15
7,5,-1,-7,4,2,-82,-9,1,-9,-18,-16
6,4,-1,-6,4,1,-84,-8,3,-8,-18,-16
7,4,-2,-6,4,1,-87,-7,3,-8,-19,-17
7,4,-2,-6,5,1,-89,-7,4,-8,-19,-17
6,4,-2,-6,5,1,-90,-6,4,-9,-19,-17
6,4,-2,-5,4,1,-92,-6,4,-9,-20,-18
5,4,-1,-5,4,2,-93,-6,4,-8,-20,-18
5,5,0,-5,3,3,-94,-5,4,-8,-19,-17
4,6,1,-6,2,4,-95,-4,5,-8,-18,-16
5,7,2,-7,1,5,-95,-3,5,-8,-18,-15
5,8,3,-7,1,5,-96,-2,6,-8,-18,-15
6,9,3,-8,2,5,-97,-1,7,-8,-18,-16
7,9,2,-8,2,5,-96,0,9,-7,-18,-16
7,10,2,-8,3,6,-96,1,11,-6,-17,-16
7,10,2,-8,3,6,-97,2,12,-6,-17,-16
7,10,2,-8,2,6,-98,1,12,-6,-18,-17
7,9,2,-8,2,6,-100,0,11,-7,-18,-17
6,8,2,-8,2,6,-103,-1,10,-7,-19,-17
6,8,2,-8,2,6,-105,-2,9,-7,-19,-17
6,8,3,-8,2,6,-106,-2,9,-7,-18,-17
6,8,3,-8,2,6,-106,-2,9,-7,-18,-17
7,9,2,-8,2,5,-106,-3,8,-7,-18,-17
8,9,1,-9,4,5,-107,-3,8,-7,-18,-17
9,8,-1,-9,5,4,-107,-3,8,-7,-17,-17
9,7,-2,-9,6,2,-107,-3,8,-7,-17,-16
9,6,-3,-8,6,2,-107,-4,8,-7,-17,-16
9,7,-2,-9,5,3,-107,-4,7,-7,-17,-16
9,9,0,-10,5,4,-106,-5,6,-7,-16,-15
9,9,1,-10,4,5,-106,-5,6,-8,-17,-15
8,7,0,-8,4,4,-105,-5,6,-8,-17,-15
8,6,-1,-7,5,2,-104,-5,7,-8,-17,-15
8,6,-2,-7,5,2,-104,-5,8,-8,-16,-14
8,5,-3,-7,5,1,-103,-5,8,-7,-15,-13
9,4,-5,-7,7,0,-102,-4,8,-7,-16,-14
10,3,-7,-7,8,-1,-100,-3,9,-7,-16,-14
9,2,-7,-6,8,-2,-99,-3,8,-7,-16,-14
8,2,-6,-6,7,-2,-99,-4,7,-7,-16,-14
8,2,-5,-6,7,-1,-98,-4,7,-6,-15,-14
7,2,-5,-5,7,-1,-97,-4,7,-6,-15,-14
7,0,-6,-4,7,-2,-97,-4,7,-7,-16,-15
6,-2,-8,-2,7,-4,-97,-4,7,-8,-17,-16
6,-5,-10,-1,7,-7,-96,-3,7,-9,-18,-17
5,-7,-12,0,8,-9,-96,-3,7,-10,-19,-18
5,-9,-13,1,9,-11,-96,-3,6,-11,-20,-19
4,-9,-14,1,9,-11,-96,-3,6,-11,-20,-19
4,-10,-14,2,10,-12,-96,-3,5,-11,-21,-19
4,-11,-15,2,10,-13,-96,-3,5,-12,-21,-20
4,-11,-15,3,10,-13,-96,-4,4,-12,-21,-21
3,-12,-15,3,9,-13,-95,-4,3,-12,-21,-21
3,-12,-15,3,9,-14,-95,-4,4,-12,-21,-21
4,-12,-16,3,9,-14,-94,-4,5,-13,-21,-21
3,-12,-15,4,9,-14,-94,-4,5,-12,-21,-20
3,-12,-14,4,8,-13,-94,-4,6,-11,-20,-20
2,-11,-12,3,7,-12,-94,-4,5,-11,-19,-19
2,-10,-11,3,7,-11,-94,-5,4,-11,-19,-19
2,-10,-11,3,7,-11,-94,-6,3,-11,-20,-19
2,-11,-12,4,8,-12,-93,-6,3,-12,-21,-20
2,-12,-14,5,8,-13,-93,-6,3,-12,-21,-21
2,-13,-15,6,8,-14,-93,-7,2,-12,-22,-22
2,-12,-14,5,8,-13,-94,-8,1,-12,-22,-23
3,-10,-13,4,7,-12,-94,-8,1,-12,-21,-22
3,-10,-13,3,8,-12,-93,-6,3,-13,-21,-22
3,-12,-15,4,9,-14,-91,-5,4,-14,-22,-22
3,-15,-17,5,10,-16,-90,-4,5,-14,-22,-23
3,-16,-18,6,11,-17,-90,-4,5,-13,-22,-22
2,-17,-19,7,11,-18,-91,-5,4,-12,-21,-22
2,-15,-17,6,9,-15,-91,-5,3,-11,-21,-21
2,-13,-15,5,8,-13,-90,-5,3,-11,-20,-21
2,-12,-14,5,8,-13,-89,-4,4,-11,-20,-21
1,-13,-15,5,8,-14,-88,-4,5,-12,-21,-22
1,-15,-16,6,9,-15,-88,-4,5,-12,-21,-23
1,-17,-17,7,9,-17,-88,-3,6,-12,-21,-23
1,-18,-18,8,9,-18,-88,-3,6,-12,-21,-23
1,-18,-19,8,9,-18,-88,-3,5,-12,-21,-23
1,-17,-17,7,9,-16,-88,-4,5,-11,-21,-21
1,-14,-15,6,8,-14,-88,-4,5,-11,-20,-20
0,-13,-13,6,7,-13,-89,-4,4,-11,-20,-21
0,-12,-13,6,6,-12,-89,-5,4,-11,-20,-21
0,-12,-13,6,6,-12,-88,-5,4,-11,-20,-22
0,-13,-13,6,6,-13,-88,-4,4,-11,-20,-22
0,-14,-14,6,7,-14,-88,-4,3,-12,-21,-23
1,-14,-15,5,8,-15,-88,-5,2,-12,-21,-23
2,-14,-16,4,9,-15,-87,-5,3,-12,-21,-23
3,-13,-16,4,9,-15,-86,-4,3,-12,-21,-23
3,-14,-17,5,10,-15,-85,-3,4,-12,-21,-23
2,-14,-17,5,10,-16,-85,-4,4,-12,-20,-24
2,-14,-16,5,9,-15,-85,-4,4,-11,-20,-23
2,-13,-16,5,9,-15,-85,-4,4,-11,-19,-23
2,-13,-16,5,9,-14,-84,-4,5,-11,-20,-22
3,-13,-16,5,9,-14,-84,-3,5,-10,-20,-23
3,-13,-15,5,9,-14,-84,-4,4,-10,-20,-23
2,-12,-14,5,8,-13,-84,-5,3,-9,-20,-23
2,-11,-13,4,7,-12,-84,-5,4,-8,-19,-23
2,-11,-13,4,7,-12,-83,-5,5,-9,-19,-23
2,-12,-14,4,8,-13,-82,-4,6,-10,-20,-23
2,-13,-15,5,8,-14,-82,-4,5,-11,-20,-23
1,-13,-15,6,8,-14,-82,-5,5,-12,-20,-23
2,-14,-15,6,9,-14,-82,-5,4,-12,-19,-23
3,-14,-17,5,10,-15,-82,-4,4,-12,-19,-23
4,-15,-19,5,12,-16,-82,-2,5,-12,-19,-24
6,-14,-20,4,14,-17,-82,-1,7,-11,-18,-24
8,-13,-21,3,15,-17,-82,1,9,-8,-16,-23
9,-13,-22,2,16,-18,-82,3,11,-5,-13,-21
11,-12,-24,0,18,-19,-81,5,14,0,-8,-19
14,-11,-25,-2,20,-18,-82,7,17,7,0,-14
18,-7,-25,-6,22,-16,-84,9,22,16,11,-8
24,-1,-24,-12,24,-12,-85,11,29,27,25,0
31,7,-23,-19,27,-7,-87,13,39,40,40,10
39,15,-23,-27,31,-3,-88,15,49,53,55,21
47,23,-24,-35,35,0,-90,15,57,66,70,31
54,30,-24,-43,39,3,-92,15,63,76,84,40
59,37,-23,-48,41,7,-93,13,67,84,96,48
61,42,-18,-52,40,12,-94,10,68,88,102,54
57,45,-11,-52,34,18,-92,8,66,86,101,55
46,45,0,-47,24,23,-86,6,59,75,88,51
30,41,11,-37,10,27,-78,4,49,57,63,39
11,33,22,-23,-5,28,-67,2,37,34,31,20
-7,24,31,-8,-18,27,-57,0,24,13,0,1
-20,16,36,1,-28,26,-50,0,16,-2,-22,-14
-27,13,40,7,-33,27,-44,1,13,-10,-36,-24
-31,11,42,9,-36,27,-40,5,14,-13,-42,-30
-33,9,43,11,-38,26,-37,9,17,-13,-44,-34
-35,6,43,13,-39,25,-34,13,19,-14,-46,-36
-36,4,41,15,-38,23,-33,18,21,-14,-46,-38
-35,3,39,15,-37,21,-32,22,22,-13,-46,-38
-34,1,35,16,-34,18,-30,27,23,-13,-46,-39
-33,-3,30,18,-31,13,-28,34,26,-12,-46,-41
-33,-7,25,20,-29,9,-24,42,30,-12,-46,-43
-31,-10,21,21,-26,5,-20,51,34,-11,-46,-44
-29,-11,19,20,-24,4,-17,59,39,-9,-44,-44
-28,-9,20,18,-24,6,-13,66,43,-6,-41,-43
-28,-5,23,16,-25,9,-9,71,46,-3,-38,-41
-28,-3,26,14,-26,12,-5,74,48,-1,-36,-40
-27,-2,25,14,-26,12,-2,75,48,-1,-35,-40
-26,-3,22,14,-24,9,0,76,47,0,-34,-39
-24,-5,19,14,-21,7,3,77,47,0,-33,-39
-23,-6,17,14,-20,5,5,77,46,-1,-33,-38
-22,-7,15,14,-19,3,8,77,44,-2,-33,-38
-22,-9,14,15,-18,2,10,77,41,-3,-33,-38
-22,-9,14,15,-18,2,12,75,39,-4,-32,-38
-22,-9,13,15,-17,2,14,73,38,-4,-32,-37
-21,-9,13,14,-17,2,17,72,39,-3,-31,-37
-21,-9,12,14,-16,2,21,72,42,-2,-31,-36
-20,-9,11,14,-15,1,25,72,46,0,-30,-36
-19,-8,11,14,-14,1,28,72,48,1,-29,-36
-19,-8,10,13,-13,0,32,72,50,1,-28,-36
-17,-8,9,12,-12,0,34,72,50,2,-26,-35
-16,-7,9,11,-11,1,36,72,50,2,-25,-34
-14,-6,8,10,-11,1,36,70,49,2,-24,-33
-13,-6,7,8,-10,1,35,67,48,2,-23,-31
-12,-6,6,7,-8,0,32,61,45,1,-22,-31
-11,-6,5,7,-7,0,27,52,40,1,-21,-30
-11,-6,5,7,-7,0,19,41,34,0,-21,-30
-9,-4,5,6,-6,0,8,28,28,0,-20,-28
-7,-1,5,3,-5,2,-3,16,24,-1,-18,-26
-4,0,4,1,-3,2,-13,8,20,-2,-17,-25
-1,0,1,0,-1,0,-23,3,17,-3,-16,-23
1,-2,-3,0,2,-3,-31,0,15,-3,-15,-22
3,-3,-6,0,5,-5,-39,-3,12,-3,-14,-22
5,-3,-8,-1,8,-6,-46,-6,9,-3,-13,-21
7,-3,-10,-2,9,-6,-52,-9,7,-3,-12,-20
8,-2,-10,-3,10,-6,-56,-10,5,-3,-11,-19
9,-2,-11,-4,11,-7,-60,-12,5,-4,-11,-18
11,-3,-13,-4,12,-8,-63,-13,4,-4,-11,-18
12,-3,-15,-5,13,-8,-65,-13,4,-4,-10,-17
14,-2,-16,-6,14,-8,-67,-13,5,-3,-9,-17
15,-1,-16,-7,15,-8,-69,-13,6,-2,-8,-16
16,0,-16,-8,16,-8,-70,-13,6,-1,-6,-16
17,0,-16,-9,17,-8,-72,-13,7,0,-5,-15
17,0,-17,-9,17,-8,-74,-14,6,0,-5,-15
18,1,-17,-9,18,-8,-75,-14,6,0,-4,-14
19,0,-18,-9,18,-8,-76,-14,5,1,-3,-14
19,0,-19,-9,19,-9,-76,-14,5,1,-3,-14
20,-1,-20,-9,20,-10,-76,-14,4,2,-2,-13
20,-1,-21,-10,21,-11,-76,-13,4,3,-1,-12
21,-1,-22,-10,21,-11,-75,-12,4,4,0,-12
21,-1,-22,-11,22,-11,-74,-11,4,5,2,-11
22,-1,-23,-11,23,-12,-73,-11,4,5,3,-10
23,-1,-24,-11,24,-13,-73,-10,4,6,4,-10
23,-2,-25,-11,25,-14,-72,-10,5,6,4,-9
23,-3,-26,-10,25,-15,-72,-10,5,6,5,-9
24,-5,-28,-10,26,-16,-71,-10,6,7,6,-9
24,-6,-29,-9,26,-17,-71,-10,6,7,7,-8
24,-7,-30,-9,27,-18,-70,-10,6,8,7,-8
24,-7,-31,-8,28,-19,-70,-10,6,8,8,-8
25,-7,-32,-8,29,-20,-70,-11,6,8,9,-7
25,-7,-33,-8,30,-21,-70,-11,5,8,9,-7
25,-7,-33,-9,30,-21,-69,-12,4,8,10,-7
26,-7,-34,-9,31,-21,-69,-14,3,8,10,-7
26,-8,-34,-10,31,-21,-69,-15,2,8,11,-6
27,-8,-35,-10,31,-21,-69,-17,1,8,11,-6
28,-8,-35,-10,31,-21,-69,-18,0,8,11,-5
28,-8,-36,-10,32,-22,-68,-19,-1,8,11,-5
28,-8,-36,-10,32,-22,-68,-20,-1,8,11,-5
28,-8,-36,-10,32,-22,-68,-21,-2,7,11,-5
28,-8,-36,-10,32,-22,-68,-22,-3,7,11,-4
28,-8,-36,-10,32,-22,-67,-23,-4,7,12,-4
27,-8,-35,-10,32,-22,-67,-24,-6,6,12,-4
27,-8,-35,-10,32,-22,-67,-26,-7,6,12,-4
27,-8,-35,-10,32,-22,-67,-27,-8,6,12,-4
27,-8,-35,-10,31,-22,-67,-28,-9,6,12,-4
27,-8,-34,-9,31,-22,-66,-29,-9,6,12,-3
26,-8,-34,-9,31,-22,-66,-29,-10,5,12,-3
26,-8,-34,-9,31,-22,-66,-30,-10,5,12,-3
25,-8,-34,-9,30,-22,-65,-31,-10,4,11,-3
25,-8,-33,-9,30,-22,-65,-31,-11,4,10,-3
25,-8,-33,-9,29,-21,-64,-32,-11,4,10,-3
25,-8,-32,-8,29,-21,-64,-33,-11,4,9,-3
24,-8,-32,-8,28,-20,-63,-33,-12,3,9,-3
24,-8,-31,-7,28,-20,-63,-33,-12,3,8,-3
23,-8,-31,-7,27,-20,-62,-33,-12,3,8,-3
23,-8,-31,-7,27,-20,-61,-33,-12,3,7,-3
22,-8,-30,-7,26,-19,-61,-33,-12,3,6,-3
21,-8,-30,-6,26,-19,-60,-32,-12,2,6,-3
20,-8,-29,-6,25,-19,-59,-32,-12,2,5,-3
19,-8,-28,-5,24,-19,-59,-31,-12,2,4,-4
19,-8,-27,-5,23,-19,-58,-30,-12,2,3,-4
18,-8,-26,-4,22,-18,-56,-30,-12,1,3,-5
17,-8,-26,-4,22,-18,-55,-29,-12,1,2,-5
16,-8,-25,-3,21,-18,-55,-28,-11,1,2,-6
15,-9,-25,-3,20,-18,-54,-27,-11,1,2,-6
14,-9,-24,-2,19,-17,-53,-26,-10,1,1,-6
13,-10,-23,-2,18,-17,-52,-24,-9,1,1,-6
12,-10,-22,-1,17,-16,-51,-23,-8,1,0,-6
11,-10,-21,-1,16,-16,-50,-21,-7,1,0,-7
10,-10,-20,0,16,-15,-49,-20,-6,1,-1,-7
9,-10,-20,0,15,-15,-48,-19,-4,1,-1,-7
8,-10,-19,0,14,-15,-48,-18,-3,1,-2,-7
7,-10,-18,1,13,-15,-47,-17,-1,1,-2,-7
6,-10,-17,1,12,-15,-47,-16,0,1,-3,-8
6,-10,-17,2,12,-14,-46,-15,0,1,-4,-8
5,-10,-16,2,11,-14,-45,-14,1,1,-4,-8
5,-10,-15,3,10,-14,-45,-13,2,1,-5,-8
4,-10,-15,3,10,-14,-44,-11,2,1,-5,-9
4,-10,-14,4,9,-14,-44,-10,3,1,-6,-9
3,-11,-14,4,9,-14,-43,-9,3,1,-6,-9
2,-11,-13,4,8,-13,-43,-8,4,1,-7,-9
2,-11,-13,5,8,-13,-43,-7,4,1,-7,-9
1,-11,-13,5,7,-13,-43,-6,5,2,-8,-9
0,-11,-12,6,7,-13,-43,-5,5,2,-8,-9
0,-11,-12,6,6,-13,-42,-3,5,2,-9,-9
-1,-12,-11,7,5,-12,-42,-2,5,2,-9,-9
-1,-12,-10,7,4,-12,-42,-2,5,2,-9,-8
-2,-12,-10,8,4,-12,-42,-1,5,2,-9,-8
-2,-12,-9,8,4,-12,-42,0,6,2,-9,-8
-3,-12,-9,8,3,-12,-41,0,6,2,-9,-8
-3,-13,-9,8,3,-12,-41,1,7,2,-10,-8
-4,-13,-9,9,3,-12,-42,2,7,2,-10,-8
-4,-13,-9,9,3,-12,-42,2,7,1,-10,-8
-5,-14,-8,9,2,-12,-43,2,7,1,-10,-8
-5,-14,-9,10,2,-12,-44,2,7,1,-11,-8
-5,-15,-10,10,2,-13,-44,2,7,1,-11,-7
-6,-16,-10,11,2,-14,-44,3,7,1,-11,-7
-6,-17,-10,11,2,-14,-44,4,8,1,-11,-8
-6,-16,-10,11,2,-13,-44,6,11,2,-10,-8
-5,-15,-9,10,2,-12,-44,8,15,6,-8,-6
-4,-13,-8,9,2,-11,-45,9,20,12,-3,-4
-1,-10,-8,6,3,-10,-47,11,27,21,6,0
2,-5,-7,1,5,-7,-48,13,34,32,17,7
7,1,-6,-4,6,-3,-49,14,42,44,31,16
13,9,-4,-11,8,1,-52,15,50,56,44,25
20,18,-2,-19,10,7,-53,17,58,67,58,35
27,26,0,-26,13,12,-54,19,65,78,71,45
32,34,1,-33,15,17,-54,20,69,84,81,54
33,38,5,-35,15,21,-53,20,68,82,82,58
27,39,11,-33,9,24,-49,18,59,70,71,56
14,37,22,-25,-3,28,-43,11,43,49,49,47
-2,32,34,-15,-17,32,-38,0,23,25,22,35
-18,27,44,-4,-31,35,-32,-8,6,3,-4,22
-30,22,51,4,-41,36,-26,-8,-2,-12,-24,10
-39,17,55,11,-47,36,-22,-4,-3,-20,-37,0
-44,14,57,15,-50,36,-19,2,-1,-22,-44,-6
-48,11,58,19,-52,35,-17,10,3,-22,-47,-10
-50,7,58,22,-53,32,-16,21,8,-21,-50,-14
-51,3,55,24,-53,28,-15,31,12,-21,-51,-17
-51,0,52,25,-51,24,-15,42,17,-20,-51,-20
-50,-3,47,26,-48,20,-15,55,23,-17,-50,-21
-48,-6,41,27,-45,16,-14,69,30,-14,-48,-22
-47,-10,36,28,-41,12,-13,82,36,-11,-46,-23
-46,-12,32,29,-39,10,-12,91,39,-10,-44,-24
-45,-14,30,29,-37,8,-12,99,43,-8,-43,-23
-44,-14,29,29,-36,7,-12,105,46,-6,-42,-23
-43,-14,29,29,-35,7,-12,109,47,-4,-40,-22
-41,-13,28,28,-34,6,-12,112,48,-3,-38,-21
-40,-13,26,27,-33,5,-14,113,47,-3,-36,-20
-40,-14,25,27,-32,4,-15,114,45,-3,-35,-19
-39,-15,23,27,-31,3,-16,113,42,-4,-35,-19
-39,-15,23,27,-30,3,-18,111,41,-4,-34,-18
-38,-14,22,26,-30,3,-19,110,40,-4,-33,-18
-37,-14,22,26,-29,3,-19,110,41,-3,-32,-17
-36,-14,22,25,-29,3,-18,112,44,-1,-29,-16
-35,-13,22,24,-29,3,-17,116,49,1,-26,-14
-34,-11,23,23,-29,4,-17,119,53,5,-23,-13
-33,-10,23,21,-28,5,-19,119,55,8,-20,-11
-32,-8,23,20,-27,6,-24,115,55,10,-18,-10
-30,-6,22,18,-26,7,-30,109,53,12,-16,-9
-27,-5,21,16,-24,7,-35,101,51,12,-15,-7
-26,-5,20,16,-23,7,-42,92,47,11,-14,-6
-24,-6,18,15,-21,6,-51,80,42,11,-13,-4
-22,-6,16,15,-19,4,-61,66,37,11,-11,-3
-20,-6,13,14,-16,2,-72,52,32,11,-9,-1
-18,-6,10,12,-13,0,-81,38,27,11,-7,0
-15,-7,7,11,-10,-1,-88,27,22,10,-6,1
-12,-7,4,9,-7,-2,-93,16,16,10,-5,2
-10,-8,1,9,-5,-4,-97,8,11,9,-4,3
-8,-10,-1,8,-2,-5,-100,1,6,7,-4,3
-6,-11,-4,8,0,-7,-101,-4,2,6,-3,4
-5,-12,-6,8,2,-9,-100,-7,0,5,-2,4
-4,-12,-9,8,3,-11,-98,-9,-1,5,-1,5
-3,-13,-11,8,5,-13,-95,-10,-2,5,0,5
-2,-13,-12,7,6,-14,-91,-11,-2,5,0,5
0,-13,-13,7,7,-14,-88,-13,-2,5,1,6
0,-13,-14,6,8,-14,-84,-14,-2,5,2,6
1,-14,-14,6,8,-15,-80,-14,-2,5,2,7
1,-14,-15,6,9,-15,-77,-15,-2,5,3,7
2,-14,-16,6,10,-16,-74,-15,-2,6,4,8
3,-14,-17,5,11,-16,-72,-15,-2,6,5,9
3,-14,-17,5,11,-16,-69,-15,-1,7,6,10
4,-13,-18,5,11,-16,-67,-15,0,7,7,10
4,-13,-18,5,12,-16,-64,-14,0,8,8,11
5,-13,-18,4,12,-16,-61,-14,1,9,8,11
5,-13,-18,4,13,-16,-59,-14,1,10,9,12
6,-13,-18,3,13,-16,-58,-14,2,12,10,13
6,-13,-19,3,13,-16,-57,-13,2,13,11,14
7,-12,-19,2,14,-16,-56,-13,2,14,13,15
8,-12,-20,2,15,-16,-55,-12,3,15,14,16
8,-12,-20,2,15,-16,-54,-12,3,16,16,17
8,-12,-20,2,15,-17,-52,-12,3,17,17,17
9,-11,-21,1,16,-17,-51,-12,3,17,17,18
10,-11,-21,0,16,-17,-50,-12,3,18,18,18
11,-10,-21,0,17,-17,-50,-13,3,18,18,19
12,-10,-22,-1,17,-17,-50,-14,2,18,19,20
13,-10,-22,-1,18,-17,-50,-15,2,18,20,20
13,-10,-23,-2,19,-18,-51,-17,2,18,21,21
14,-10,-24,-2,20,-18,-51,-18,2,18,21,21
14,-9,-24,-2,20,-18,-50,-20,2,17,21,21
15,-9,-24,-2,20,-18,-50,-21,2,17,21,21
15,-9,-24,-2,21,-18,-50,-23,2,17,22,21
15,-9,-24,-3,21,-17,-49,-24,2,17,22,22
16,-9,-24,-3,21,-17,-49,-26,2,17,22,22
16,-8,-24,-4,21,-17,-49,-27,2,17,22,23
16,-8,-24,-4,21,-17,-49,-28,1,16,22,23
16,-8,-23,-4,20,-16,-49,-29,0,16,22,24
16,-8,-24,-4,21,-16,-49,-30,0,15,22,24
16,-7,-24,-4,21,-16,-49,-32,-1,14,22,24
17,-7,-24,-5,21,-16,-48,-33,-2,13,22,25
17,-7,-24,-5,21,-16,-47,-34,-2,13,22,25
17,-7,-24,-5,21,-16,-47,-35,-3,13,21,25
16,-7,-23,-5,21,-15,-47,-36,-4,13,20,24
16,-7,-23,-5,20,-15,-47,-37,-6,12,19,23
15,-7,-22,-5,20,-15,-46,-38,-8,12,19,23
15,-6,-22,-5,20,-15,-46,-39,-10,11,18,23
15,-6,-22,-5,20,-15,-45,-40,-12,10,18,23
15,-6,-22,-5,20,-15,-45,-40,-13,9,17,23
15,-6,-21,-5,20,-14,-44,-41,-13,9,16,22
15,-6,-21,-5,19,-14,-43,-41,-14,8,15,22
14,-6,-20,-4,19,-14,-42,-41,-14,8,15,21
14,-6,-19,-4,18,-14,-41,-41,-14,8,14,21
13,-6,-18,-3,17,-13,-39,-41,-14,8,14,21
11,-6,-17,-3,15,-13,-39,-40,-14,8,13,20
10,-6,-16,-2,14,-12,-38,-40,-14,8,12,20
9,-6,-15,-2,13,-11,-38,-39,-13,8,12,20
8,-6,-14,-1,12,-11,-37,-38,-12,8,12,20
7,-6,-13,0,11,-10,-36,-37,-12,7,11,20
6,-6,-13,0,11,-10,-35,-36,-12,7,11,20
6,-5,-12,0,11,-9,-34,-35,-11,7,11,20
5,-5,-11,0,10,-9,-34,-34,-11,7,10,19
5,-5,-10,0,9,-8,-33,-33,-11,7,10,18
4,-5,-9,0,8,-8,-32,-31,-11,7,10,17
4,-5,-8,0,7,-8,-31,-30,-10,6,9,17
3,-5,-7,0,6,-7,-31,-28,-9,6,9,17
2,-4,-6,0,5,-6,-31,-27,-8,6,8,17
2,-4,-5,1,5,-6,-31,-25,-6,6,8,17
1,-4,-5,1,4,-5,-30,-24,-5,6,8,17
0,-5,-5,2,4,-5,-30,-22,-3,6,8,17
0,-5,-4,3,3,-5,-30,-21,-2,7,8,17
-1,-5,-4,3,3,-5,-30,-20,-1,7,8,16
-1,-5,-3,3,2,-5,-29,-18,0,7,7,16
-1,-5,-3,3,2,-5,-29,-17,0,7,7,16
-1,-5,-3,3,2,-5,-29,-15,0,7,7,16
-2,-5,-2,3,1,-5,-29,-14,1,7,7,16
-2,-5,-2,4,1,-4,-29,-13,2,6,7,15
-3,-5,-1,4,0,-4,-29,-12,2,6,7,15
-4,-4,0,4,0,-3,-30,-11,3,6,6,15
-4,-4,0,4,-1,-3,-29,-9,4,7,6,15
-5,-4,1,4,-1,-2,-28,-8,4,7,6,14
-5,-4,1,4,-1,-2,-28,-7,3,6,6,15
-5,-4,1,4,-2,-2,-29,-7,3,5,6,15
-6,-4,2,4,-2,-2,-29,-6,2,5,6,16
-6,-4,2,4,-2,-2,-29,-6,2,5,6,15
-6,-4,2,4,-2,-2,-30,-6,2,5,6,15
-6,-4,2,4,-2,-2,-30,-5,3,6,6,15
-6,-4,2,4,-2,-1,-30,-5,3,6,6,15
-7,-4,2,5,-3,-1,-31,-5,2,6,5,14
-7,-4,2,5,-3,-1,-32,-5,2,6,5,14
-7,-4,2,5,-3,-1,-32,-4,2,5,4,13
-7,-4,3,5,-3,-1,-32,-4,2,4,4,13
-7,-4,3,5,-4,-1,-33,-4,1,4,4,14
-7,-4,3,5,-4,-1,-34,-4,1,3,4,14
-7,-5,3,5,-4,-1,-34,-5,1,3,4,14
-8,-5,3,6,-5,-1,-34,-5,1,3,4,14
-8,-5,4,6,-5,-1,-34,-5,0,2,4,14
-9,-5,4,6,-5,-1,-34,-5,0,2,4,14
-9,-5,4,6,-5,-1,-34,-5,1,3,5,14
-9,-5,4,7,-5,-1,-34,-5,1,4,5,14
-9,-5,4,7,-5,-1,-35,-4,2,5,5,14
-8,-4,4,6,-5,0,-34,-4,2,5,5,13
-8,-4,4,6,-5,0,-34,-5,1,4,5,13
-8,-4,4,6,-5,0,-35,-5,0,3,5,13
-9,-4,4,6,-6,0,-35,-6,0,3,5,13
-9,-4,4,6,-5,0,-35,-6,0,2,5,13
-9,-5,4,6,-5,-1,-35,-6,0,2,5,13
-9,-5,3,6,-5,-1,-36,-6,-1,2,4,13
-9,-5,3,6,-5,-1,-36,-6,-2,2,4,13
-9,-6,3,7,-5,-1,-36,-6,-2,1,3,12
-9,-6,3,7,-5,-1,-36,-7,-2,1,3,12
-9,-6,2,7,-5,-1,-36,-7,-2,0,3,11
-9,-6,2,7,-5,-1,-37,-7,-2,0,2,11
-9,-6,2,7,-5,-2,-37,-8,-3,-1,2,10
-9,-6,2,7,-4,-2,-36,-8,-3,-1,2,10
-9,-6,2,7,-4,-2,-36,-8,-3,-1,3,11
-9,-6,2,7,-4,-2,-36,-9,-3,-1,3,11
-9,-7,2,7,-4,-3,-36,-9,-4,-1,3,10
-9,-7,1,8,-4,-3,-36,-9,-4,-1,3,10
-9,-8,1,8,-4,-4,-36,-9,-5,-2,3,10
-9,-8,1,8,-4,-4,-37,-10,-6,-3,3,10
-9,-7,1,8,-4,-3,-37,-10,-6,-3,3,10
-9,-7,1,8,-4,-3,-37,-11,-5,-3,2,10
-9,-7,1,8,-4,-4,-37,-11,-5,-3,2,9
-9,-8,1,8,-4,-4,-37,-11,-6,-3,1,9
-9,-8,1,8,-4,-3,-37,-12,-7,-3,1,9
-9,-8,1,8,-4,-3,-37,-12,-8,-3,1,9
-9,-8,1,8,-4,-3,-37,-12,-8,-3,1,9
-9,-8,1,8,-4,-3,-37,-12,-7,-2,1,9
-10,-8,1,8,-5,-3,-37,-12,-7,-2,1,9
-10,-8,1,9,-5,-3,-37,-12,-7,-3,0,9
-10,-8,1,9,-5,-3,-37,-12,-7,-3,0,9
-10,-8,1,9,-5,-3,-37,-12,-8,-4,0,9
-10,-8,2,9,-5,-3,-37,-13,-8,-4,0,9
-10,-8,2,9,-5,-3,-37,-13,-7,-4,1,9
-10,-8,2,9,-5,-3,-36,-14,-7,-3,2,9
-10,-8,2,9,-5,-3,-36,-14,-6,-3,2,8
-10,-8,2,10,-5,-3,-35,-13,-7,-3,2,8
-11,-8,2,10,-5,-3,-35,-13,-7,-3,2,7
-11,-8,2,10,-6,-3,-36,-13,-6,-3,2,6
-11,-8,2,10,-6,-3,-36,-13,-6,-3,2,7
-11,-9,2,10,-6,-3,-36,-13,-6,-4,2,7
-11,-9,2,10,-6,-3,-37,-13,-5,-4,2,7
-11,-9,3,10,-7,-3,-37,-13,-4,-4,2,7
-11,-9,3,10,-7,-3,-37,-13,-4,-4,2,7
-11,-9,3,10,-7,-3,-37,-13,-4,-4,2,7
-11,-9,3,10,-7,-3,-37,-14,-5,-4,2,7
-11,-9,2,10,-6,-3,-37,-14,-5,-4,2,7
-11,-9,2,10,-6,-3,-37,-13,-4,-3,2,8
-11,-8,3,10,-6,-3,-37,-13,-4,-4,2,8
-11,-8,3,10,-7,-3,-37,-13,-5,-4,1,7
-11,-8,3,10,-7,-2,-37,-13,-6,-5,1,7
-11,-8,4,10,-7,-2,-37,-13,-6,-5,1,7
-11,-8,4,10,-7,-2,-38,-13,-6,-5,2,7
-11,-8,3,10,-7,-3,-38,-13,-6,-5,2,7
-11,-8,3,10,-7,-3,-38,-13,-6,-5,3,7
-12,-8,3,10,-7,-3,-37,-13,-6,-6,3,7
-12,-9,3,10,-7,-3,-37,-13,-6,-6,3,7
-12,-9,3,10,-7,-3,-37,-13,-7,-6,3,8
-12,-9,3,10,-7,-3,-37,-13,-7,-6,3,7
-12,-9,3,10,-7,-3,-37,-13,-7,-6,3,7
-12,-9,3,11,-7,-3,-37,-13,-7,-5,3,7
-12,-9,2,11,-7,-3,-37,-13,-6,-5,3,7
-12,-9,2,11,-7,-3,-36,-13,-7,-5,3,7
-12,-8,3,10,-7,-2,-37,-13,-7,-6,3,7
-12,-8,3,10,-7,-2,-38,-12,-7,-6,3,7
-12,-8,3,10,-7,-2,-38,-12,-7,-5,3,7
-12,-8,2,10,-7,-3,-37,-11,-6,-5,3,7
-11,-8,2,10,-6,-3,-37,-11,-6,-6,3,7
-11,-8,2,10,-6,-3,-36,-10,-6,-7,2,7
-11,-8,2,10,-7,-3,-35,-10,-6,-7,2,7
-11,-8,2,10,-7,-3,-35,-10,-5,-7,3,7
-11,-8,2,10,-7,-3,-35,-9,-6,-6,3,7
-11,-8,2,10,-7,-3,-35,-9,-6,-6,3,7
-11,-8,2,10,-7,-3,-35,-8,-7,-6,3,7
-11,-8,2,9,-7,-2,-34,-8,-7,-5,4,7
-11,-8,3,9,-7,-2,-35,-8,-7,-5,4,7
-11,-8,3,9,-8,-2,-35,-8,-8,-5,3,6
-11,-7,4,9,-8,-1,-35,-7,-8,-6,2,6
-11,-7,4,9,-8,-1,-35,-6,-9,-8,2,7
-11,-6,4,9,-8,0,-34,-6,-9,-9,2,7
-11,-5,5,8,-8,0,-33,-6,-8,-9,2,8
-11,-4,6,8,-8,1,-32,-6,-7,-8,3,8
-11,-3,6,8,-9,1,-32,-6,-6,-7,4,9
-10,-3,7,7,-9,1,-32,-6,-5,-6,4,9
-10,-2,7,7,-9,2,-32,-5,-4,-5,5,10
-10,-1,8,6,-9,4,-31,-4,-3,-4,6,10
-10,0,9,5,-10,5,-31,-4,-2,-3,7,10
-11,0,10,5,-11,5,-31,-5,-1,-3,7,10
-11,0,10,5,-11,5,-31,-6,0,-3,7,11
-10,0,10,5,-10,5,-31,-6,0,-3,7,11
-10,0,9,5,-10,4,-32,-7,-1,-3,6,10
-10,0,8,5,-9,4,-32,-7,-2,-4,6,10
-9,0,7,5,-8,4,-32,-8,-3,-4,5,10
-8,0,7,4,-8,4,-33,-9,-3,-5,5,10
-8,0,6,5,-7,3,-35,-10,-4,-5,4,10
-8,0,6,5,-7,3,-36,-10,-4,-5,5,10
-7,0,6,4,-7,3,-36,-11,-6,-6,5,11
-7,0,6,4,-6,3,-36,-12,-7,-7,6,11
-7,0,6,4,-6,3,-36,-12,-7,-7,6,11
-7,0,6,4,-6,3,-36,-13,-8,-6,6,11
-6,0,6,4,-6,3,-37,-13,-8,-5,7,11
-6,0,5,4,-6,3,-37,-13,-9,-4,8,11
-6,0,5,4,-6,3,-38,-14,-9,-4,9,11
-5,1,5,3,-5,3,-38,-14,-9,-4,9,11
-5,1,5,2,-5,3,-38,-14,-9,-4,8,10
-5,0,4,3,-5,2,-37,-14,-8,-4,8,10
-6,0,4,3,-5,2,-37,-13,-8,-4,7,10
-5,0,4,3,-5,2,-37,-13,-9,-5,7,10
-5,-1,3,3,-5,1,-37,-13,-10,-7,7,11
-5,-2,3,4,-4,0,-37,-12,-10,-7,7,11
-6,-3,3,5,-4,0,-37,-12,-10,-7,6,10
-7,-4,2,6,-5,0,-37,-12,-11,-9,4,9
-8,-5,2,7,-5,-1,-36,-12,-11,-9,3,8
-9,-6,2,8,-5,-2,-36,-12,-11,-9,3,7
-10,-7,2,9,-6,-2,-35,-12,-12,-10,3,6
-11,-7,3,10,-7,-2,-34,-12,-12,-10,3,6
-12,-7,4,10,-8,-2,-33,-12,-11,-9,4,6
-13,-7,4,10,-9,-2,-32,-11,-10,-8,4,6
-13,-8,5,11,-9,-2,-31,-11,-9,-8,5,6
-14,-8,5,11,-9,-2,-31,-11,-9,-9,5,6
-14,-8,5,11,-9,-2,-30,-11,-9,-9,5,6
-14,-8,4,12,-9,-2,-31,-11,-9,-9,5,6
-14,-9,4,12,-9,-2,-31,-12,-10,-10,4,6
-14,-10,3,12,-8,-3,-31,-12,-10,-11,3,6
-13,-11,2,13,-8,-4,-30,-11,-11,-12,2,6
-13,-11,1,13,-7,-5,-30,-11,-11,-14,1,6
-13,-11,0,13,-7,-6,-30,-11,-11,-14,0,6
-12,-11,0,12,-6,-5,-30,-10,-10,-14,1,5
-12,-10,1,12,-6,-5,-30,-10,-9,-13,1,5
-12,-10,1,12,-6,-4,-30,-10,-9,-13,2,4
-11,-10,1,12,-6,-4,-30,-10,-9,-13,2,4
-11,-9,1,11,-6,-4,-30,-10,-9,-12,2,4
-10,-9,1,11,-6,-4,-30,-9,-9,-12,1,4
-10,-9,1,10,-6,-4,-30,-9,-8,-12,1,4
-10,-9,1,10,-6,-4,-31,-9,-9,-13,1,3
-10,-8,1,10,-6,-4,-32,-9,-9,-13,1,3
-10,-8,1,10,-6,-4,-32,-9,-9,-13,1,4
-10,-8,1,10,-6,-4,-32,-9,-9,-12,1,4
-10,-8,1,10,-6,-4,-31,-8,-8,-11,2,4
-10,-8,1,10,-6,-4,-31,-8,-8,-11,2,3
-11,-9,1,10,-6,-4,-32,-9,-9,-11,2,3
-11,-9,1,11,-6,-4,-33,-9,-10,-11,3,3
-11,-9,1,11,-6,-4,-32,-9,-11,-11,3,3
-11,-9,1,11,-6,-4,-32,-8,-11,-11,3,3
-11,-9,1,11,-6,-4,-32,-7,-11,-11,3,4
-11,-9,1,11,-6,-4,-32,-7,-12,-11,3,4
-11,-9,2,11,-6,-4,-32,-6,-11,-11,3,4
-11,-8,2,10,-6,-3,-32,-5,-10,-11,2,4
-11,-8,2,10,-6,-3,-33,-4,-10,-11,2,4
-11,-8,2,10,-7,-3,-35,-4,-10,-12,1,3
-10,-8,1,10,-6,-3,-36,-4,-11,-13,0,3
-9,-8,0,9,-5,-4,-37,-4,-12,-13,0,4
-8,-8,0,9,-4,-4,-37,-4,-12,-12,0,4
-8,-8,0,9,-4,-4,-38,-4,-12,-12,0,4
-8,-7,0,8,-4,-4,-38,-4,-12,-12,0,4
-7,-7,0,8,-4,-4,-38,-3,-13,-12,1,5
-7,-7,-1,8,-3,-5,-38,-3,-13,-12,1,5
-7,-7,-1,8,-3,-5,-39,-2,-13,-12,2,5
-7,-7,-2,8,-3,-5,-39,-2,-13,-11,3,5
-6,-7,-2,8,-2,-5,-40,-1,-14,-10,3,5
-6,-8,-2,7,-2,-5,-39,-1,-14,-10,3,4
-6,-8,-3,7,-1,-6,-39,-1,-13,-10,2,4
-4,-8,-5,7,0,-7,-40,-1,-13,-10,1,4
-3,-8,-6,6,1,-8,-40,0,-13,-10,2,4
-2,-8,-7,6,2,-8,-41,1,-12,-10,3,4
-1,-8,-7,5,2,-8,-41,3,-9,-8,6,4
0,-6,-8,3,4,-8,-41,6,-5,-3,10,6
3,-5,-9,1,6,-7,-41,10,0,2,16,10
7,-2,-10,-2,8,-7,-42,14,7,10,25,14
12,2,-10,-7,11,-5,-43,17,15,20,35,20
17,7,-10,-12,13,-2,-44,19,25,32,48,28
23,14,-9,-18,16,1,-46,22,35,45,63,38
29,22,-8,-25,18,6,-48,24,45,58,78,48
36,30,-7,-32,21,11,-51,24,52,69,93,58
42,38,-5,-39,23,16,-55,24,58,79,107,67
48,45,-4,-46,25,20,-57,24,61,87,118,76
50,49,-1,-49,25,23,-57,24,61,90,124,81
46,51,4,-48,20,27,-55,22,57,87,120,81
35,48,12,-42,11,29,-51,18,47,73,105,74
19,41,21,-30,-1,30,-45,13,32,50,79,61
0,32,31,-15,-15,31,-36,7,14,23,46,43
-17,23,39,-2,-28,31,-28,2,-2,-1,16,26
-29,17,45,6,-37,31,-22,1,-12,-18,-7,12
-37,14,49,12,-43,31,-16,3,-15,-26,-21,2
-41,12,52,15,-47,31,-11,7,-13,-29,-28,-3
-44,10,53,18,-49,31,-9,12,-10,-30,-31,-6
-46,8,54,19,-50,30,-12,17,-7,-29,-32,-8
-47,6,52,20,-49,28,39,22,-4,-28,-32,-10
-46,4,49,21,-47,26,182,26,-3,-28,-33,-12
-45,1,45,21,-44,23,320,30,-1,-28,-33,-13
-44,-2,40,22,-42,20,396,37,2,-28,-33,-14
-42,-5,36,23,-39,16,439,45,7,-27,-32,-16
-40,-6,33,23,-37,13,466,55,12,-25,-31,-15
-39,-6,32,23,-36,12,482,64,16,-22,-28,-15
-38,-7,31,22,-35,11,491,72,19,-20,-26,-14
-37,-6,31,22,-34,11,497,76,21,-17,-23,-14
-37,-5,31,22,-34,11,500,76,21,-15,-21,-13
-37,-5,31,22,-34,12,501,75,20,-14,-19,-12
-37,-5,31,22,-34,12,502,73,19,-13,-17,-11
-37,-4,31,22,-34,12,502,71,19,-13,-16,-9
-37,-4,31,21,-33,12,502,69,17,-13,-15,-7
-36,-5,30,21,-32,11,502,65,15,-13,-14,-6
-36,-6,29,21,-32,10,502,61,13,-13,-12,-5
-36,-7,29,22,-32,10,502,57,12,-12,-11,-5
-36,-6,29,22,-32,11,502,53,12,-10,-9,-4
-35,-5,29,21,-32,11,502,50,14,-9,-7,-3
-35,-4,29,20,-32,12,501,49,14,-9,-6,-1
-34,-3,29,20,-31,12,501,49,15,-8,-5,-1
-33,-2,29,19,-31,13,501,49,17,-7,-4,-1
-32,-2,28,18,-31,12,500,49,18,-6,-3,0
-31,-3,27,18,-29,11,500,47,18,-5,-1,1
-28,-3,25,16,-27,10,500,43,17,-5,0,2
-26,-3,23,15,-25,10,500,39,16,-5,2,2
-25,-3,21,15,-23,8,500,33,13,-6,3,3
-23,-4,18,14,-21,7,499,26,10,-7,5,4
-21,-4,16,13,-19,6,499,18,8,-7,6,5
-19,-3,15,12,-17,5,499,9,4,-7,7,6
-17,-3,13,11,-15,4,499,1,0,-9,8,6
-16,-4,11,10,-13,3,499,-4,-2,-8,9,7
-14,-5,8,10,-11,1,499,-9,-4,-7,11,8
-11,-5,6,9,-8,0,499,-12,-7,-7,12,9
-9,-4,3,7,-6,-1,499,-14,-9,-7,13,10
-7,-4,1,6,-4,-2,498,-16,-9,-6,15,11
-6,-5,0,6,-3,-3,498,-17,-9,-5,16,11
-5,-5,-1,6,-2,-4,497,-18,-10,-5,17,11
-4,-6,-3,6,0,-5,497,-18,-11,-6,18,12
-3,-7,-4,6,1,-6,497,-18,-11,-6,18,12
-2,-7,-5,5,2,-7,497,-18,-11,-6,19,13
0,-6,-6,4,3,-6,498,-17,-11,-6,19,14
1,-5,-7,3,4,-6,498,-16,-10,-5,19,14
1,-6,-8,3,5,-7,499,-15,-9,-5,20,15
2,-6,-9,3,6,-8,490,-14,-9,-4,21,16
2,-6,-10,2,7,-8,500,-13,-9,-3,23,17
3,-6,-11,2,7,-9,712,-12,-11,-3,24,18
3,-6,-11,2,7,-9,450,-11,-11,-3,25,18
4,-6,-11,1,8,-9,-22,-10,-11,-3,25,18
5,-6,-12,1,9,-9,74,-9,-10,-2,26,18
6,-6,-13,0,10,-10,254,-9,-11,-2,27,19
6,-6,-13,0,10,-10,352,-8,-11,-1,29,20
7,-5,-13,-1,10,-9,405,-8,-10,0,31,21
8,-4,-12,-2,10,-8,436,-7,-9,1,31,22
8,-3,-13,-3,11,-8,454,-6,-8,2,32,23
8,-4,-14,-2,11,-9,463,-6,-6,3,32,23
9,-4,-14,-2,12,-9,468,-6,-5,4,32,23
10,-3,-13,-3,12,-8,397,-6,-5,4,32,24
11,-2,-13,-3,12,-8,20,-6,-4,4,33,25
12,-3,-15,-4,13,-9,163,-5,-3,5,35,26
13,-3,-16,-4,14,-10,535,-5,-3,6,36,26
13,-2,-17,-5,15,-10,534,-6,-3,6,38,27
14,-2,-17,-5,16,-10,603,-6,-3,6,39,28
15,-1,-17,-6,17,-10,635,-6,-2,7,41,29
15,-1,-17,-6,17,-10,196,-6,-2,8,43,29
15,-1,-17,-7,17,-10,-208,-6,-2,9,45,30
16,0,-17,-7,17,-10,-512,-7,-2,10,45,31
18,0,-18,-9,18,-9,-645,-8,-2,10,45,31
21,2,-19,-11,20,-9,-589,-8,-4,9,45,31
23,2,-21,-12,22,-9,-296,-10,-5,9,45,32
24,3,-22,-13,24,-10,411,-11,-5,9,46,33
26,3,-24,-14,25,-10,791,-12,-6,9,46,34
27,3,-25,-15,26,-10,1045,-13,-8,8,46,34
27,3,-25,-15,26,-10,1012,-15,-9,8,46,34
27,3,-24,-15,26,-10,880,-16,-9,8,46,34
27,3,-24,-15,25,-10,546,-17,-10,7,46,34
26,3,-23,-14,24,-10,134,-17,-10,7,46,34
25,3,-22,-14,23,-9,-191,-18,-11,8,46,35
23,3,-20,-13,22,-9,-248,-19,-11,8,46,35
22,3,-19,-13,20,-8,151,-20,-12,8,46,36
20,4,-17,-12,19,-7,350,-21,-12,8,46,36
19,4,-16,-12,17,-6,18,-21,-12,8,46,36
18,5,-14,-11,16,-5,-156,-22,-12,8,46,36
18,6,-12,-11,15,-3,283,-22,-11,8,46,37
18,7,-11,-12,14,-2,809,-23,-10,8,46,37
17,8,-9,-12,13,0,1144,-23,-10,8,45,38
16,9,-7,-12,11,1,1155,-24,-9,8,45,38
14,10,-4,-12,9,2,787,-25,-9,9,45,38
12,11,-1,-12,7,4,33,-26,-9,9,45,38
12,13,0,-13,6,6,-255,-26,-9,9,45,39
12,14,1,-13,5,7,-392,-26,-9,9,45,39
12,15,2,-13,5,8,-548,-26,-9,9,44,39
12,16,3,-13,5,8,24,-26,-9,8,43,39
13,16,2,-14,5,9,110,-25,-9,8,43,39
13,15,1,-14,6,8,-165,-23,-9,7,42,38
13,14,0,-13,6,7,117,-22,-8,7,41,37
13,12,0,-13,7,6,675,-21,-8,6,40,36
12,11,-1,-12,7,5,513,-21,-8,6,39,35
12,10,-1,-11,7,4,-119,-20,-9,6,38,35
11,10,-1,-11,6,4,-233,-20,-9,6,37,34
11,10,0,-10,6,5,-71,-20,-9,6,36,34
10,10,0,-9,5,5,223,-18,-9,6,36,34
9,8,0,-8,5,4,573,-17,-9,5,35,33
7,6,-1,-6,4,2,934,-15,-9,4,33,31
6,4,-1,-4,4,1,1282,-14,-9,3,32,30
5,2,-2,-3,3,0,772,-14,-9,3,31,30
4,1,-2,-2,3,0,-262,-13,-9,3,30,29
3,1,-2,-1,2,0,-786,-12,-8,3,30,29
3,1,-2,-1,2,0,-1018,-11,-8,2,29,29
2,0,-2,-1,1,0,-1088,-9,-7,2,29,29
1,0,-2,0,1,-1,-1070,-8,-6,1,28,28
0,-1,-2,0,1,-2,-1007,-6,-5,1,27,27
0,-2,-2,1,1,-2,-924,-5,-4,0,26,26
0,-2,-3,1,1,-3,-833,-4,-3,0,25,25
0,-3,-3,2,1,-3,-743,-3,-3,0,24,25
0,-3,-2,2,0,-3,-658,-2,-2,0,24,24
-1,-2,-1,2,0,-1,-580,-2,-2,0,24,24
-1,0,1,1,-2,0,-532,-1,-2,1,24,24
-2,1,4,1,-3,3,-427,0,-2,1,24,24
-2,3,6,0,-4,4,-209,0,-2,2,23,24
-3,3,7,1,-5,5,81,2,0,2,23,24
-4,2,7,1,-5,5,-141,3,0,2,22,24
-5,1,7,2,-5,4,-653,5,1,2,21,23
-6,-1,5,3,-5,2,-327,5,2,1,20,21
-6,-3,3,5,-5,0,332,6,2,0,18,20
-8,-5,2,6,-5,-1,114,6,1,0,17,19
-9,-5,2,7,-6,-1,-6,6,1,0,17,19
-9,-4,4,7,-7,0,453,6,1,0,17,19
-10,-2,8,7,-8,2,877,6,1,1,17,19
-11,0,11,6,-10,5,844,6,1,1,17,20
-11,2,13,5,-11,7,55,5,1,1,17,20
-11,2,13,4,-11,7,-43,6,2,2,17,20
-11,2,13,4,-12,7,534,7,3,1,17,20
-11,1,11,4,-11,6,913,8,4,1,16,19
-10,-1,8,5,-10,4,540,9,4,0,15,18
-11,-3,6,7,-9,2,-99,10,5,0,14,17
-11,-4,5,8,-8,0,96,11,5,0,14,16
-12,-5,6,9,-8,0,88,11,5,0,13,16
-12,-5,7,9,-9,1,80,11,5,0,13,16
-13,-4,8,9,-10,2,178,10,5,0,12,16
-13,-3,9,8,-11,3,-405,10,5,-1,12,15
-12,-2,10,7,-11,4,-477,9,5,0,12,15
-12,-1,10,6,-11,5,-178,9,5,0,12,16
-12,0,11,6,-12,6,-432,9,5,1,12,16
-12,1,13,5,-12,7,-124,9,5,1,11,16
-12,2,14,5,-13,8,564,9,6,1,11,16
-12,2,15,5,-13,8,685,10,7,1,11,16
-12,2,14,5,-12,7,506,11,8,2,11,16
-12,2,14,5,-12,7,180,13,10,2,11,16
-12,2,13,5,-12,7,-206,14,11,3,11,15
-12,1,12,5,-12,7,-605,16,13,4,11,15
-11,0,10,6,-11,5,-996,18,14,5,11,15
-10,-2,8,6,-9,3,-1304,20,15,5,10,14
-10,-3,7,6,-8,2,-899,20,15,4,10,14
-10,-3,7,7,-8,1,-668,20,14,4,9,14
-10,-3,8,7,-9,2,-432,19,14,4,9,14
-10,-2,8,6,-9,3,-307,18,14,4,8,14
-10,-1,9,5,-9,4,-902,17,14,4,8,14
-10,0,10,5,-10,6,-1170,15,14,4,8,15
-10,2,11,4,-10,7,-1251,14,13,4,9,15
-9,3,11,3,-10,8,-1229,13,13,4,9,16
-7,5,12,1,-9,9,-1156,12,13,4,9,16
-7,5,12,1,-9,9,-1058,12,13,4,9,16
-6,5,12,0,-9,8,-952,12,14,4,9,16
-5,5,11,0,-8,8,-847,11,13,4,9,16
-4,5,9,-1,-6,7,-747,11,13,4,9,16
-2,5,7,-1,-4,6,-656,10,12,4,8,16
-2,5,6,-1,-3,5,-576,9,12,3,7,16
-1,5,5,-1,-3,5,-504,8,12,2,6,15
-1,4,4,-1,-3,4,-442,7,11,1,5,15
-1,4,4,-1,-3,4,-387,6,10,1,4,14
0,5,5,-2,-2,5,-337,5,9,0,4,14
0,6,5,-2,-2,5,-292,4,7,0,4,14
0,6,6,-2,-3,6,-252,4,7,0,4,14
-1,6,7,-1,-4,6,-216,4,8,0,4,14
-3,4,7,0,-4,6,-187,4,9,0,3,14
-4,2,6,1,-4,5,-162,5,9,-1,2,13
-4,1,5,2,-4,3,-169,5,9,-1,1,13
-5,0,4,3,-4,2,-93,4,8,-1,0,12
-5,-1,4,3,-4,1,138,4,7,-1,0,12
-6,-1,5,4,-5,1,23,4,6,-1,0,12
-6,-1,5,4,-5,1,-459,5,6,-1,0,12
-6,-1,4,4,-5,1,-288,5,6,-1,0,11
-6,-2,4,4,-5,1,3,5,6,-1,-1,10
-7,-2,4,5,-5,1,120,4,6,-2,-2,9
-7,-2,4,5,-5,1,-61,4,6,-2,-3,8
-8,-3,4,6,-6,0,-466,4,5,-3,-3,8
-8,-4,4,6,-6,0,-235,3,5,-4,-4,7
-9,-4,4,7,-6,0,316,2,4,-4,-4,7
-9,-4,5,7,-7,0,171,2,3,-5,-5,6
-10,-5,4,8,-7,0,-433,2,3,-5,-6,6
-10,-7,3,9,-7,-2,-514,2,2,-7,-7,5
-11,-8,2,9,-6,-3,-322,2,1,-8,-8,4
-11,-8,2,9,-6,-3,3,2,1,-8,-8,3
-10,-8,2,9,-6,-3,381,2,1,-8,-8,3
-10,-8,1,9,-5,-3,767,1,1,-8,-8,2
-10,-9,1,10,-5,-4,1139,1,1,-9,-9,2
-10,-10,0,10,-4,-5,650,1,1,-9,-10,1
-10,-11,0,11,-4,-6,-365,0,0,-10,-10,1
-10,-11,0,11,-4,-6,-873,0,0,-11,-11,1
-9,-10,-1,10,-4,-6,-1093,0,0,-11,-12,0
-9,-9,0,9,-4,-5,-1152,-1,0,-11,-12,0
-8,-7,1,8,-4,-3,-1124,-1,-1,-11,-12,0
-8,-5,2,7,-5,-2,-1052,-1,-1,-10,-11,0
-7,-4,4,6,-5,0,-960,0,0,-10,-11,1
-7,-3,4,6,-5,0,-863,0,1,-10,-11,1
-7,-4,3,6,-5,-1,-768,1,1,-10,-11,1
-7,-6,2,7,-5,-2,-678,1,2,-10,-11,1
-8,-7,1,8,-5,-3,-594,1,2,-10,-11,0
-9,-9,0,10,-5,-5,-520,2,1,-10,-12,0
-9,-11,-1,11,-4,-6,-454,2,1,-11,-12,-1
-10,-10,0,11,-5,-6,-397,1,1,-11,-12,-1
-10,-9,0,10,-5,-4,-346,0,1,-10,-12,-1
-10,-8,1,10,-5,-3,-300,0,0,-10,-13,-1
-10,-8,1,10,-5,-3,-258,0,0,-11,-13,-1
-9,-8,1,9,-5,-3,-221,-1,-1,-11,-13,-1
-9,-8,1,9,-5,-3,-189,-1,-1,-10,-13,-1
-9,-9,0,10,-5,-4,-162,0,-1,-10,-13,-1
-9,-9,0,10,-5,-5,-141,0,-1,-11,-14,-2
-9,-8,1,9,-5,-4,-123,-1,-1,-10,-14,-2
-9,-7,2,9,-6,-3,-107,-1,0,-10,-14,-2
-9,-6,3,8,-6,-2,-91,-1,0,-10,-14,-2
-8,-5,3,7,-5,-1,-76,-1,0,-10,-13,-2
-7,-5,2,7,-5,-1,-63,0,1,-9,-13,-2
-7,-6,1,7,-4,-2,-50,0,2,-8,-13,-3
-7,-7,0,7,-4,-3,-41,0,1,-8,-13,-3
-7,-8,0,8,-4,-4,-35,-1,0,-9,-14,-4
-7,-7,0,8,-4,-4,-31,-2,0,-9,-14,-4
-7,-6,1,7,-5,-3,-28,-3,-1,-9,-14,-4
-8,-5,2,7,-5,-2,-23,-4,-1,-9,-14,-3
-7,-4,3,7,-5,-1,-17,-3,-1,-9,-14,-3
-7,-4,3,6,-5,0,-10,-2,-1,-9,-14,-3
-6,-4,3,6,-5,0,-4,-2,0,-8,-14,-2
-6,-3,2,5,-4,0,0,-2,0,-8,-14,-2
-5,-2,2,4,-4,0,2,-2,2,-7,-14,-1
-5,-3,2,4,-4,0,3,-2,3,-7,-15,-2
-6,-4,1,5,-4,-2,4,-1,3,-8,-16,-3
-6,-6,0,6,-2,-4,4,-1,3,-8,-16,-4
-5,-7,-3,6,0,-5,6,-2,3,-7,-16,-4
-4,-8,-4,6,0,-6,8,-2,2,-7,-15,-5
-4,-7,-4,6,0,-5,10,-2,2,-7,-14,-4
-3,-5,-2,5,0,-3,12,-1,3,-6,-12,-3
-1,-3,-2,2,0,-2,13,1,6,-2,-8,-1
1,-1,-3,0,2,-2,13,4,11,3,-3,1
5,-1,-6,-1,5,-4,12,9,18,10,4,4
11,0,-10,-4,10,-5,11,13,25,19,14,9
16,3,-13,-9,14,-5,10,16,33,30,26,16
23,9,-13,-15,18,-2,10,19,41,43,41,25
32,18,-13,-24,22,2,10,20,49,56,57,35
40,28,-12,-34,26,8,10,21,56,68,73,47
48,38,-10,-43,29,13,8,21,61,79,87,57
55,46,-10,-50,32,17,7,20,65,86,99,66
58,50,-9,-53,33,20,6,19,66,89,104,70
55,50,-5,-52,30,22,8,18,63,85,99,69
46,47,1,-45,22,23,13,16,56,72,84,62
29,39,11,-33,9,24,22,13,44,52,58,48
8,31,23,-18,-7,26,31,7,29,30,27,30
-11,24,35,-5,-23,29,40,1,16,9,0,14
-25,20,45,3,-35,32,46,-1,7,-4,-21,1
-34,19,54,8,-44,36,49,0,5,-11,-34,-7
-40,20,60,10,-50,40,50,4,7,-13,-39,-11
-43,20,64,12,-53,41,49,9,11,-13,-42,-14
-45,17,63,14,-54,40,47,14,13,-13,-44,-17
-46,12,59,17,-52,36,45,19,15,-13,-45,-21
-45,8,54,18,-50,32,44,23,16,-13,-46,-24
-45,5,50,19,-48,28,42,26,17,-13,-46,-26
-44,3,47,20,-46,25,40,31,17,-13,-46,-28
-42,2,44,20,-44,23,40,39,20,-12,-46,-28
-40,2,41,20,-41,21,40,49,25,-11,-45,-28
-37,1,39,19,-38,20,41,59,30,-10,-43,-27
-36,0,37,19,-37,18,43,68,35,-8,-41,-27
-35,-1,34,19,-35,16,44,73,37,-8,-40,-28
-34,-2,32,18,-34,15,44,74,37,-7,-39,-28
-33,-1,31,17,-33,15,43,73,36,-6,-37,-27
-32,-1,31,17,-32,14,43,72,36,-4,-35,-26
-32,-1,30,16,-31,14,43,73,37,-4,-34,-25
-31,-1,29,16,-31,13,42,74,38,-4,-33,-25
-31,-1,29,16,-30,14,40,75,38,-4,-33,-25
-30,-1,29,16,-30,14,39,74,37,-4,-32,-25
-29,-2,28,16,-29,13,38,72,37,-4,-31,-24
-29,-2,27,16,-28,12,38,71,37,-2,-30,-24
-28,-2,26,16,-28,12,39,71,38,-1,-29,-23
-28,0,27,15,-28,13,40,71,39,0,-28,-22
-27,2,29,13,-29,15,41,71,39,2,-26,-20
-27,5,31,11,-29,18,41,72,39,4,-24,-18
-27,5,31,11,-29,18,41,75,41,5,-23,-17
-27,4,31,12,-29,17,39,78,41,4,-23,-16
-25,4,30,11,-28,17,36,78,41,4,-21,-16
-24,5,29,10,-27,17,33,76,41,6,-19,-15
-22,5,28,9,-25,16,30,73,40,6,-18,-15
-20,4,25,8,-23,14,26,67,37,5,-17,-15
-19,2,22,9,-21,12,19,58,33,4,-17,-15
-19,2,20,9,-19,11,10,46,28,3,-17,-15
-17,2,18,8,-17,10,-1,33,22,2,-17,-14
-13,2,15,6,-14,8,-11,22,17,0,-17,-14
-9,1,11,4,-11,5,-20,13,13,-1,-17,-14
-6,0,7,3,-7,3,-26,5,8,-3,-18,-13
-3,0,4,2,-4,1,-31,-1,4,-4,-17,-13
-2,0,2,2,-3,0,-35,-6,1,-5,-16,-12
-2,-1,1,2,-2,0,-39,-9,-1,-6,-15,-12
-2,-2,0,3,-1,-1,-44,-11,-3,-7,-15,-11
-1,-3,-2,3,0,-3,-49,-13,-5,-8,-15,-11
0,-4,-3,2,1,-3,-53,-14,-7,-7,-14,-10
1,-3,-4,1,2,-3,-57,-15,-8,-6,-13,-8
3,-2,-4,0,3,-3,-60,-15,-7,-4,-11,-7
4,-2,-5,0,4,-4,-61,-14,-6,-3,-9,-6
5,-2,-7,0,5,-5,-60,-14,-6,-3,-9,-6
5,-3,-8,0,6,-6,-60,-13,-6,-3,-8,-6
6,-3,-9,-1,7,-6,-60,-13,-6,-2,-8,-6
7,-4,-11,-1,9,-8,-62,-12,-6,-2,-7,-6
8,-6,-14,-1,11,-10,-63,-11,-6,-2,-7,-7
9,-7,-15,-1,12,-11,-64,-10,-6,-2,-7,-7
10,-6,-15,-1,12,-11,-66,-11,-7,-2,-7,-7
10,-3,-13,-2,11,-9,-67,-11,-7,0,-5,-5
10,0,-9,-4,9,-5,-67,-11,-6,2,-3,-4
10,2,-8,-5,9,-3,-67,-11,-5,3,-2,-2
11,2,-9,-6,10,-3,-67,-9,-3,4,-1,-2
12,2,-11,-7,11,-4,-68,-8,-2,5,0,-1
13,2,-12,-7,13,-5,-69,-8,-2,6,1,-1
15,2,-14,-8,14,-6,-69,-6,-1,6,1,-1
16,0,-16,-7,16,-8,-70,-5,0,5,2,-1
17,-2,-19,-6,18,-11,-70,-4,0,5,2,-1
18,-4,-22,-6,19,-14,-71,-4,0,5,2,-2
18,-4,-23,-6,20,-14,-71,-5,0,5,3,-2
19,-2,-22,-8,20,-12,-73,-7,-1,6,4,-1
19,0,-20,-9,20,-10,-75,-8,-1,8,6,0
19,0,-19,-10,20,-9,-76,-9,-2,9,7,1
20,1,-19,-11,20,-8,-77,-9,-2,10,9,3
22,2,-19,-12,20,-8,-77,-9,-1,10,11,4
23,1,-21,-12,21,-10,-78,-9,-1,10,11,3
23,0,-22,-11,22,-11,-79,-10,-1,9,11,3
23,0,-23,-11,22,-12,-79,-11,-1,9,11,2
23,0,-23,-11,22,-11,-80,-13,-1,10,11,2
23,2,-22,-12,22,-10,-81,-14,-2,10,12,3
24,3,-21,-13,22,-8,-82,-16,-3,10,13,3
24,4,-21,-14,22,-8,-84,-17,-4,10,13,4
24,3,-21,-14,23,-9,-86,-19,-6,9,12,4
24,2,-22,-13,23,-10,-88,-21,-8,9,11,4
25,1,-23,-13,24,-12,-89,-22,-9,8,11,4
25,1,-24,-13,24,-13,-89,-24,-10,8,10,4
26,1,-25,-13,25,-13,-89,-25,-11,7,10,3
25,0,-25,-12,25,-13,-90,-26,-11,6,9,2
25,0,-25,-12,25,-13,-91,-28,-13,4,7,1
25,0,-25,-12,25,-12,-93,-31,-14,3,7,0
25,2,-23,-13,24,-10,-94,-33,-15,4,7,0
24,3,-20,-13,22,-9,-94,-34,-15,4,7,1
24,4,-19,-14,21,-8,-95,-34,-15,4,7,1
24,4,-19,-14,21,-8,-95,-35,-15,3,7,1
24,4,-20,-14,22,-8,-95,-36,-16,2,6,0
24,3,-20,-13,22,-9,-95,-36,-17,1,5,0
23,2,-20,-13,22,-9,-95,-36,-17,0,4,0
22,2,-20,-12,21,-8,-95,-37,-17,0,3,0
21,2,-18,-11,20,-8,-95,-37,-17,0,3,-1
20,1,-18,-10,19,-8,-95,-37,-16,0,2,-2
19,0,-18,-10,19,-9,-95,-37,-16,0,2,-4
19,0,-18,-10,19,-9,-95,-38,-16,0,1,-4
18,2,-17,-10,17,-8,-95,-38,-17,0,1,-4
18,3,-15,-10,16,-6,-92,-38,-17,1,0,-3
17,3,-14,-9,15,-6,-84,-38,-16,0,-1,-4
17,1,-15,-8,16,-7,-74,-37,-16,-1,-3,-5
16,0,-16,-8,16,-7,-65,-36,-16,-2,-4,-6
15,0,-15,-7,15,-7,-55,-35,-16,-2,-4,-7
15,0,-15,-7,15,-8,-46,-33,-14,-2,-5,-8
14,-1,-15,-6,15,-8,-36,-31,-12,-3,-6,-8
13,-1,-14,-5,14,-8,-28,-29,-11,-3,-6,-9
11,-1,-12,-5,12,-7,-22,-29,-10,-2,-7,-10
10,0,-9,-4,10,-4,-17,-28,-9,-1,-7,-10
9,2,-7,-5,9,-2,-12,-28,-9,-1,-7,-10
9,3,-6,-6,8,-1,-8,-27,-9,-1,-7,-10
9,4,-5,-6,7,0,-4,-26,-9,-1,-8,-10
8,4,-4,-5,6,0,-1,-26,-9,-1,-9,-11
6,4,-2,-5,4,1,1,-26,-9,0,-9,-11
5,5,0,-5,3,2,4,-25,-8,0,-8,-11
4,4,0,-4,3,2,7,-22,-7,0,-8,-12
4,2,-1,-3,3,0,10,-20,-5,0,-9,-12
3,0,-3,-1,3,-1,12,-18,-4,-1,-11,-13
3,-1,-4,-1,3,-2,13,-16,-3,-2,-13,-15
3,-1,-4,0,3,-2,14,-15,-3,-2,-14,-16
3,0,-3,0,3,-2,15,-15,-2,-2,-15,-17
2,0,-2,0,2,-1,15,-14,-2,-1,-15,-17
1,1,-1,0,1,0,16,-14,-1,-1,-15,-17
1,1,0,0,1,0,16,-13,-1,-1,-15,-17
1,1,0,0,1,0,17,-12,-1,-1,-14,-17
0,1,1,0,0,1,17,-11,-1,0,-14,-17
0,2,1,0,-1,1,18,-9,0,0,-14,-17
0,1,1,0,-1,1,18,-7,1,0,-14,-17
-1,1,2,1,-2,1,19,-5,2,-1,-15,-18
-2,1,2,1,-2,1,19,-5,2,-1,-15,-18
-2,1,2,1,-2,1,20,-4,2,-1,-16,-18
-2,1,3,1,-2,2,20,-4,2,-2,-17,-19
-3,1,4,1,-3,2,21,-3,2,-2,-18,-19
-2,1,4,1,-3,2,21,-3,2,-3,-19,-20
-2,1,3,0,-2,2,21,-2,2,-3,-20,-20
-2,2,4,0,-3,3,21,-2,2,-3,-19,-20
-2,2,4,0,-3,3,20,-1,2,-2,-19,-20
-2,3,5,0,-4,4,20,0,3,-2,-18,-20
-2,4,6,0,-4,4,20,1,5,-1,-17,-20
-2,4,6,-1,-4,5,21,3,7,-1,-17,-20
-2,4,6,-1,-4,5,21,5,8,-2,-18,-20
-3,3,6,0,-4,4,20,6,9,-2,-18,-20
-3,2,5,1,-4,3,20,7,9,-2,-18,-21
-4,0,4,2,-4,2,20,7,9,-2,-19,-22
-4,0,4,2,-4,1,19,7,9,-2,-20,-22
-4,0,5,2,-5,2,18,7,9,-2,-20,-22
-4,2,6,1,-5,3,18,7,10,-1,-19,-21
-3,4,7,0,-5,5,16,7,10,0,-19,-20
-3,5,8,0,-5,6,14,7,10,0,-18,-20
-3,6,9,-1,-5,7,13,6,10,0,-18,-19
-2,7,9,-2,-5,8,11,4,10,0,-17,-19
-2,7,9,-3,-5,8,9,2,8,0,-17,-20
-1,8,10,-3,-5,9,8,1,7,0,-17,-19
0,9,9,-4,-5,9,7,0,7,0,-16,-18
1,9,8,-5,-4,9,6,1,8,0,-15,-17
2,9,7,-5,-3,8,6,1,9,0,-15,-17
2,8,5,-4,-2,6,6,1,9,0,-15,-17
1,7,5,-4,-1,5,7,1,9,0,-15,-18
1,6,5,-3,-2,5,7,0,8,1,-15,-19
0,7,7,-3,-3,7,7,-1,7,1,-14,-18
0,9,8,-4,-3,8,7,-1,8,2,-13,-17
0,9,8,-4,-4,9,8,-1,8,1,-13,-16
0,8,8,-3,-4,8,8,-1,7,0,-15,-17
0,8,7,-3,-3,7,8,-1,6,-1,-16,-17
0,8,7,-3,-3,7,8,-1,6,-1,-16,-17
0,7,7,-3,-3,7,8,0,7,-1,-16,-17
0,6,6,-2,-3,6,8,0,7,-1,-16,-17
0,4,4,-2,-2,5,8,-1,6,-2,-17,-18
0,4,4,-2,-1,4,8,-1,6,-2,-17,-18
0,3,4,-1,-2,4,9,-1,5,-2,-17,-18
-1,3,5,-1,-4,5,10,-1,5,-2,-18,-18
-2,3,6,0,-4,5,10,-2,4,-2,-18,-18
-3,2,6,1,-5,4,10,-2,4,-2,-18,-19
-5,1,6,3,-6,3,10,-2,4,-2,-18,-20
-7,-1,6,4,-6,2,10,-2,4,-3,-18,-21
-7,-3,4,5,-5,0,10,-2,4,-4,-19,-21
-7,-4,2,6,-4,0,9,-2,4,-4,-20,-22
-7,-5,2,6,-4,-1,9,-3,4,-4,-20,-23
-7,-5,2,6,-4,-1,9,-3,5,-5,-20,-23
-7,-5,2,6,-4,-1,9,-2,5,-6,-20,-24
-8,-5,2,6,-4,-1,9,-3,4,-7,-21,-24
-8,-4,3,6,-4,-1,8,-4,4,-7,-21,-24
-7,-3,3,6,-5,0,8,-4,3,-7,-21,-23
-7,-3,4,6,-5,0,8,-4,3,-7,-21,-23
-7,-3,3,6,-5,0,8,-4,3,-7,-22,-23
-7,-4,2,6,-5,-1,8,-4,3,-7,-22,-24
-8,-6,1,7,-5,-3,8,-4,3,-7,-22,-25
-8,-8,0,8,-5,-4,8,-4,2,-8,-22,-25
-8,-8,0,9,-5,-4,8,-4,2,-8,-23,-26
-8,-9,0,9,-4,-5,8,-4,2,-8,-23,-26
-8,-9,0,9,-4,-5,7,-4,2,-8,-23,-26
-8,-9,0,9,-4,-5,7,-4,2,-8,-23,-26
-8,-8,0,9,-4,-5,7,-4,2,-7,-23,-26
-8,-7,0,9,-5,-4,7,-4,2,-7,-23,-26
-8,-7,1,9,-5,-3,7,-4,2,-7,-23,-26
-8,-7,1,8,-5,-3,7,-4,2,-7,-23,-26
-8,-7,1,8,-5,-3,7,-4,2,-7,-23,-26
-8,-6,1,7,-5,-2,7,-5,2,-7,-23,-25
-8,-6,1,7,-5,-2,7,-5,2,-7,-23,-25
-8,-7,0,8,-4,-3,7,-4,2,-7,-23,-25
-8,-8,0,8,-4,-4,7,-4,2,-8,-23,-25
-8,-8,-1,9,-4,-5,7,-4,2,-8,-23,-25
-8,-9,-1,9,-4,-5,7,-4,3,-7,-23,-25
-8,-9,-1,10,-4,-6,7,-4,3,-7,-23,-25
-8,-10,-2,10,-3,-7,7,-4,3,-7,-23,-25
-9,-12,-3,11,-3,-8,7,-4,2,-7,-23,-26
-9,-12,-3,11,-3,-8,6,-4,2,-7,-23,-26
-10,-12,-2,11,-3,-7,6,-4,2,-7,-23,-26
-10,-10,0,10,-4,-5,5,-4,1,-7,-22,-26
-10,-8,1,9,-5,-3,4,-5,0,-7,-22,-25
-9,-7,2,8,-5,-2,4,-5,0,-6,-21,-25
-9,-6,2,8,-6,-1,5,-5,0,-6,-21,-25
-9,-7,2,9,-6,-2,5,-5,0,-6,-21,-25
-9,-7,2,9,-6,-2,6,-4,1,-6,-21,-25
-9,-7,2,9,-6,-2,6,-4,2,-6,-21,-25
-10,-8,2,9,-6,-2,6,-4,2,-6,-21,-25
-10,-8,1,10,-6,-3,6,-4,2,-6,-21,-25
-10,-9,1,10,-5,-4,6,-4,2,-6,-21,-25
-10,-9,0,10,-5,-4,6,-4,2,-6,-21,-25
-10,-9,0,10,-5,-4,5,-4,2,-6,-21,-25
-10,-9,1,10,-5,-4,5,-4,2,-5,-21,-24
-10,-9,1,9,-5,-4,5,-4,2,-5,-20,-24
-10,-8,1,9,-5,-3,5,-4,2,-5,-20,-23
-9,-8,1,8,-5,-3,5,-3,2,-5,-20,-23
-9,-7,2,8,-5,-2,5,-3,2,-5,-20,-23
-9,-6,2,7,-5,-2,5,-3,2,-5,-20,-23
-9,-6,1,7,-5,-2,4,-3,2,-5,-20,-23
-8,-6,1,7,-5,-3,4,-3,2,-5,-20,-23
-7,-6,0,7,-4,-3,3,-3,2,-5,-19,-23
-6,-6,0,7,-3,-4,3,-3,2,-5,-19,-23
-5,-6,-1,7,-2,-4,2,-2,2,-5,-18,-23
-5,-6,-1,6,-1,-4,2,-2,2,-4,-18,-22
-4,-6,-2,6,-1,-4,2,-1,3,-3,-17,-21
-3,-6,-2,5,0,-4,2,1,6,0,-14,-19
-1,-5,-3,3,1,-4,2,3,10,4,-10,-17
2,-3,-5,1,4,-4,1,6,15,10,-3,-13
7,0,-7,-3,7,-4,0,9,20,18,6,-8
13,4,-9,-8,11,-2,0,11,27,28,19,0
20,10,-9,-15,15,1,-2,14,35,41,33,8
27,19,-8,-23,18,5,-3,15,44,54,49,18
35,27,-7,-31,21,9,-5,16,51,67,65,29
42,35,-7,-38,24,14,-7,16,57,78,79,40
48,42,-6,-45,27,17,-9,15,62,87,92,49
51,48,-4,-49,28,21,-9,14,64,92,100,55
50,51,0,-50,24,26,-7,12,64,92,102,58
43,51,9,-47,16,30,-2,11,59,84,93,55
29,48,19,-38,4,33,4,9,50,68,72,44
10,40,30,-25,-10,35,13,6,39,46,42,28
-9,32,40,-11,-25,35,22,4,26,24,11,9
-24,24,47,0,-36,35,28,3,17,6,-14,-6
-34,18,52,8,-43,35,31,4,12,-4,-30,-17
-40,16,55,12,-48,36,32,7,12,-8,-38,-23
-43,14,57,14,-50,36,32,11,15,-8,-41,-27
-44,14,58,15,-52,36,31,15,17,-8,-42,-29
-45,13,58,16,-52,35,29,19,19,-8,-43,-31
-44,11,55,17,-50,33,25,22,20,-8,-44,-32
-43,8,51,17,-47,30,22,26,20,-8,-44,-33
-43,5,47,18,-44,26,20,31,22,-8,-44,-34
-42,1,42,20,-42,22,20,38,24,-7,-43,-35
-41,-1,39,21,-40,19,21,47,28,-6,-42,-35
-40,-2,37,21,-38,17,22,55,33,-4,-40,-35
-38,-3,35,20,-37,16,24,63,38,-2,-38,-35
-37,-3,34,20,-36,16,25,70,41,-1,-37,-34
-36,-3,34,20,-36,15,26,74,43,0,-35,-34
-36,-3,33,20,-35,15,25,75,43,0,-34,-33
-35,-3,32,19,-34,14,25,75,43,0,-33,-32
-35,-3,31,19,-33,14,24,75,43,0,-32,-31
-35,-4,30,19,-32,13,24,76,42,0,-31,-30
-35,-5,29,20,-32,13,23,76,41,0,-31,-30
-34,-5,29,20,-31,12,23,75,40,0,-30,-30
-34,-6,28,20,-31,11,22,74,39,-1,-30,-30
-34,-7,28,21,-31,10,22,72,38,-1,-29,-29
-34,-6,28,20,-30,10,21,70,38,-1,-28,-28
-33,-5,28,19,-30,11,21,69,40,1,-26,-27
-33,-4,28,18,-30,12,22,68,41,3,-24,-25
-32,-3,28,18,-30,13,22,68,42,4,-23,-24
-32,-3,28,17,-29,13,22,68,42,5,-22,-23
-31,-3,27,17,-29,13,22,68,43,6,-20,-22
-30,-3,27,17,-28,13,21,67,42,6,-19,-21
-29,-3,26,16,-28,12,19,65,41,6,-19,-20
-28,-3,25,16,-27,11,15,62,40,6,-18,-20
-27,-3,24,15,-25,10,11,57,38,6,-17,-18
-25,-3,22,15,-24,9,5,50,35,6,-16,-17
-24,-3,20,14,-22,9,-3,41,31,5,-15,-15
-23,-3,18,13,-20,8,-12,31,25,3,-15,-14
-21,-3,16,13,-18,6,-22,20,20,2,-14,-13
-19,-4,14,12,-16,5,-30,11,16,1,-14,-12
-16,-5,11,11,-14,3,-37,3,12,0,-14,-11
-14,-5,8,10,-11,1,-42,-2,9,0,-13,-10
-11,-6,5,9,-8,-1,-46,-6,6,-1,-12,-9
-10,-6,2,8,-6,-2,-49,-9,4,-1,-10,-8
-9,-7,0,8,-4,-4,-49,-12,1,-1,-9,-7
-7,-8,-2,7,-2,-5,-49,-13,0,-1,-8,-6
-6,-9,-4,7,0,-6,-47,-14,-1,-1,-7,-6
-5,-10,-5,7,0,-7,-45,-15,-2,-1,-7,-5
-4,-11,-6,7,1,-8,-42,-15,-2,-1,-6,-5
-2,-11,-8,7,2,-9,-38,-15,-2,-1,-5,-4
-1,-11,-9,6,4,-10,-34,-14,-2,0,-4,-3
0,-11,-10,6,5,-10,-31,-13,-1,1,-3,-2
0,-11,-12,5,6,-11,-29,-12,-1,2,-2,-1
1,-11,-13,5,7,-11,-27,-12,0,3,-1,0
2,-11,-14,4,8,-12,-26,-11,0,3,-1,0
3,-11,-15,4,9,-12,-24,-11,0,4,0,0
4,-11,-16,4,10,-13,-21,-10,1,5,0,0
6,-11,-16,3,11,-14,-19,-10,1,6,1,1
7,-11,-17,2,12,-14,-18,-10,2,7,3,2
8,-10,-17,1,12,-14,-16,-10,2,8,4,3
8,-10,-18,1,13,-14,-15,-10,3,9,6,4
9,-10,-19,0,14,-14,-14,-10,3,10,7,5
10,-9,-19,0,15,-14,-13,-10,3,10,8,6
11,-9,-20,0,15,-14,-13,-10,4,10,9,7
12,-9,-20,-1,16,-14,-12,-9,4,10,10,8
12,-9,-21,-1,16,-15,-11,-9,4,11,11,9
13,-9,-21,-2,17,-15,-11,-9,5,13,12,9
14,-9,-22,-2,18,-15,-10,-9,5,14,13,10
15,-8,-22,-3,18,-15,-10,-9,6,15,14,11
16,-7,-23,-4,19,-15,-10,-9,6,15,16,12
17,-7,-24,-4,20,-15,-11,-10,5,16,17,13
18,-6,-25,-5,21,-15,-11,-10,5,16,18,14
19,-6,-25,-6,22,-15,-11,-11,6,17,19,15
20,-6,-26,-6,22,-15,-11,-12,6,18,19,16
20,-6,-26,-7,23,-15,-11,-13,6,18,20,16
20,-6,-26,-7,23,-16,-11,-14,5,18,20,17
21,-5,-26,-8,23,-16,-11,-15,4,18,21,18
21,-5,-26,-8,24,-16,-11,-17,3,18,21,18
22,-5,-26,-8,24,-16,-11,-19,2,18,21,18
22,-5,-26,-8,24,-16,-12,-20,1,17,21,18
22,-5,-26,-8,24,-16,-12,-22,0,17,21,18
22,-5,-26,-8,24,-16,-12,-23,-1,16,21,19
22,-5,-27,-8,24,-16,-12,-25,-2,16,21,19
22,-4,-27,-8,24,-16,-12,-26,-3,16,21,19
22,-4,-27,-8,24,-16,-11,-27,-4,16,20,19
22,-5,-27,-8,24,-16,-11,-29,-6,15,20,19
22,-5,-27,-8,24,-16,-11,-30,-7,14,20,19
22,-5,-27,-8,24,-16,-11,-31,-7,14,20,19
22,-5,-27,-8,24,-16,-11,-32,-8,14,19,19
22,-5,-26,-8,24,-16,-11,-33,-8,14,19,19
22,-5,-26,-8,24,-16,-11,-34,-9,14,18,19
21,-5,-26,-8,23,-16,-10,-35,-10,13,18,19
20,-5,-25,-8,22,-15,-10,-36,-11,13,17,18
20,-5,-24,-8,22,-14,-10,-37,-12,12,17,18
19,-4,-24,-8,21,-13,-10,-37,-12,11,16,18
19,-4,-23,-8,21,-13,-10,-38,-13,11,16,18
18,-4,-23,-7,20,-13,-10,-38,-13,10,15,18
18,-4,-22,-7,20,-13,-10,-38,-13,10,14,17
17,-4,-22,-6,19,-13,-10,-38,-13,10,13,17
16,-4,-21,-6,18,-13,-10,-38,-13,9,13,17
16,-4,-21,-5,18,-13,-10,-38,-13,9,12,16
15,-4,-20,-5,17,-12,-10,-38,-13,8,11,16
14,-4,-19,-4,17,-11,-9,-38,-13,8,10,16
14,-4,-18,-4,16,-11,-9,-37,-13,8,10,15
13,-5,-17,-4,16,-11,-8,-36,-12,8,9,15
13,-4,-16,-3,15,-10,-7,-36,-12,8,9,14
12,-4,-15,-3,13,-10,-7,-35,-11,7,8,14
10,-5,-15,-2,12,-10,-6,-34,-11,7,8,13
9,-5,-14,-1,11,-10,-5,-33,-10,7,7,13
8,-5,-13,-1,10,-9,-4,-32,-10,7,7,13
7,-5,-12,-1,10,-8,-2,-31,-9,7,6,12
6,-5,-11,0,9,-8,-1,-29,-9,7,5,12
6,-5,-11,0,8,-7,0,-28,-9,7,4,11
5,-5,-10,0,8,-7,1,-27,-8,6,3,11
5,-5,-10,1,7,-7,2,-26,-8,6,3,11
4,-5,-9,1,6,-7,3,-25,-7,5,2,10
3,-5,-8,2,5,-6,4,-24,-6,5,1,10
2,-5,-7,2,4,-6,6,-23,-5,5,1,9
1,-5,-6,2,3,-5,7,-21,-4,4,0,9
0,-5,-5,3,2,-5,8,-20,-4,4,0,8
0,-5,-5,3,2,-5,9,-19,-3,3,0,8
0,-5,-4,3,2,-5,10,-19,-3,3,-1,8
0,-5,-4,3,1,-5,11,-18,-3,3,-1,8
-1,-6,-4,4,1,-5,11,-17,-3,3,-1,8
-1,-6,-4,4,1,-5,13,-16,-3,3,-2,8
-2,-6,-3,4,0,-4,14,-15,-3,2,-3,8
-2,-6,-3,4,0,-4,14,-15,-2,2,-3,8
-2,-6,-2,4,0,-4,15,-14,-2,3,-3,8
-3,-7,-2,5,0,-4,16,-14,-2,2,-3,7
-3,-7,-2,5,0,-4,17,-13,-2,1,-4,6
-4,-7,-2,5,-1,-4,17,-13,-2,1,-5,6
-4,-7,-1,5,-1,-4,18,-12,-2,1,-5,6
-5,-7,-1,5,-2,-4,19,-12,-2,1,-5,6
-5,-7,-1,5,-2,-3,19,-11,-2,1,-5,6
-5,-7,-1,5,-2,-3,20,-11,-2,1,-5,6
-5,-7,-1,6,-2,-3,20,-10,-1,1,-5,6
-5,-7,0,6,-2,-3,21,-10,-1,1,-5,6
-5,-6,0,6,-2,-3,21,-10,-1,1,-5,6
-5,-5,1,5,-3,-2,22,-9,-1,1,-6,7
-5,-5,1,5,-3,-1,22,-9,0,1,-6,7
-6,-5,1,5,-4,-1,23,-9,0,1,-6,7
-6,-5,2,5,-4,0,23,-9,0,1,-7,7
-6,-4,2,5,-4,0,23,-8,0,1,-7,7
-6,-4,3,5,-4,0,24,-8,0,1,-7,7
-6,-4,3,5,-5,0,25,-7,0,1,-7,7
-6,-3,4,4,-5,1,26,-6,0,1,-7,7
-6,-3,5,4,-6,2,26,-6,0,1,-6,7
-6,-2,6,4,-6,2,27,-5,0,1,-6,7
-6,-2,6,4,-6,3,28,-4,1,2,-5,8
-6,-1,6,3,-7,4,28,-3,1,2,-5,8
-6,0,7,3,-7,4,28,-2,2,3,-4,8
-6,0,7,3,-7,4,28,-3,2,3,-4,8
-6,-1,6,3,-7,3,28,-3,2,3,-4,9
-6,-1,6,3,-7,3,27,-4,2,3,-4,9
-6,-1,6,3,-7,3,26,-5,1,3,-4,9
-6,-1,6,3,-6,3,25,-6,2,3,-4,9
-5,-1,5,3,-5,2,23,-6,2,3,-4,9
-5,-2,4,3,-4,2,22,-7,1,3,-3,9
-4,-2,3,3,-4,1,20,-7,0,2,-3,10
-4,-2,3,3,-3,1,19,-8,0,2,-3,10
-3,-2,2,2,-3,0,18,-8,0,2,-3,10
-3,-2,2,2,-2,0,17,-8,0,1,-3,10
-3,-1,2,2,-2,0,17,-9,0,1,-2,11
-3,-1,3,1,-3,1,17,-9,0,1,-2,11
-2,0,3,1,-3,2,16,-10,0,1,-2,12
-2,0,4,1,-3,2,16,-10,-1,1,-1,12
-3,0,4,2,-3,2,15,-11,-2,0,-1,12
-3,0,4,1,-4,2,15,-11,-2,0,-1,12
-3,0,4,1,-4,2,15,-11,-2,1,-1,13
-3,0,4,1,-4,2,15,-11,-2,1,-1,13
-2,-1,3,1,-3,1,16,-10,-2,1,-1,13
-2,-1,3,1,-3,1,17,-10,-2,1,-1,13
-2,-1,3,1,-3,1,17,-10,-3,1,-1,13
-2,-1,2,1,-3,1,16,-10,-3,1,-1,13
-1,-1,2,1,-2,1,15,-10,-2,1,-1,12
-2,-1,2,1,-3,1,15,-10,-2,1,-1,12
-3,-1,2,2,-3,1,15,-10,-2,0,-1,12
-4,-2,3,3,-4,0,16,-10,-3,0,-2,11
-5,-4,2,4,-4,0,16,-10,-4,0,-2,10
-5,-5,2,5,-4,-1,16,-11,-4,-1,-3,10
-6,-6,1,6,-4,-2,16,-11,-4,-1,-4,9
-6,-7,1,6,-4,-2,16,-11,-4,-2,-4,8
-6,-8,0,7,-3,-3,16,-11,-5,-3,-4,8
-5,-8,-1,7,-2,-4,16,-11,-5,-3,-4,7
-5,-9,-2,7,-2,-4,16,-11,-5,-3,-4,7
-5,-9,-2,7,-2,-5,16,-11,-6,-3,-5,6
-5,-9,-3,7,-1,-5,15,-11,-6,-3,-5,6
-5,-9,-3,7,-1,-5,16,-11,-6,-3,-5,5
-5,-9,-3,7,-1,-5,16,-11,-6,-3,-5,5
-6,-10,-3,7,-1,-6,16,-11,-6,-3,-5,5
-6,-10,-3,7,-1,-6,16,-11,-7,-3,-6,5
-5,-10,-3,7,-1,-6,16,-11,-7,-4,-6,5
-5,-10,-3,7,-1,-6,15,-11,-8,-5,-7,5
-5,-10,-4,8,-1,-6,15,-11,-7,-6,-7,5
-5,-10,-4,8,-1,-7,15,-10,-7,-6,-7,5
-6,-10,-4,8,-1,-7,15,-10,-7,-6,-7,5
-6,-10,-4,8,-1,-7,15,-11,-6,-5,-7,5
-6,-10,-4,8,-1,-7,15,-11,-6,-5,-7,5
-6,-10,-4,8,-2,-7,14,-12,-7,-5,-7,5
-7,-11,-4,9,-2,-7,14,-12,-7,-6,-6,5
-7,-12,-4,9,-2,-7,14,-12,-7,-6,-6,5
-7,-11,-4,9,-2,-7,14,-12,-7,-5,-6,5
-6,-11,-4,9,-2,-7,14,-12,-7,-5,-6,5
-6,-11,-4,9,-2,-7,14,-12,-7,-5,-6,5
-6,-11,-4,9,-2,-7,14,-12,-8,-6,-6,5
-6,-11,-4,8,-1,-7,14,-12,-8,-6,-6,5
-6,-11,-4,8,-1,-7,14,-12,-7,-6,-6,5
-5,-11,-4,8,-1,-7,14,-12,-7,-6,-6,5
-5,-11,-4,8,-1,-7,14,-12,-7,-6,-7,5
-6,-11,-4,8,-1,-7,14,-12,-8,-7,-7,5
-6,-11,-4,8,-1,-7,14,-12,-8,-8,-8,5
-6,-10,-4,8,-1,-7,14,-11,-8,-8,-8,5
-5,-10,-4,8,0,-7,14,-11,-8,-8,-8,5
-6,-10,-4,8,-1,-7,15,-11,-8,-8,-8,5
-6,-11,-4,9,-1,-7,15,-11,-8,-8,-8,4
-6,-11,-4,9,-1,-7,15,-11,-8,-8,-8,4
-6,-10,-4,9,-1,-7,14,-10,-8,-7,-7,4
-6,-10,-4,9,-1,-6,14,-10,-8,-7,-7,4
-7,-10,-4,9,-2,-6,13,-10,-9,-7,-7,4
-7,-10,-3,9,-2,-6,13,-11,-10,-8,-7,4
-7,-10,-3,9,-3,-5,13,-11,-10,-9,-7,5
-7,-10,-2,9,-3,-5,13,-11,-9,-9,-7,5
-7,-10,-3,9,-2,-6,13,-11,-9,-9,-6,6
-7,-10,-3,9,-2,-6,12,-11,-9,-8,-6,6
-7,-10,-3,8,-2,-6,12,-11,-8,-8,-6,6
-6,-9,-3,7,-2,-6,13,-11,-8,-8,-6,6
-6,-9,-3,7,-1,-6,13,-11,-8,-8,-6,7
-6,-10,-4,8,-1,-6,13,-11,-7,-8,-6,7
-5,-10,-5,8,0,-7,12,-11,-7,-7,-6,7
-5,-9,-4,7,-1,-6,12,-11,-7,-7,-6,7
-4,-8,-3,7,-1,-5,12,-11,-7,-8,-6,7
-4,-8,-3,7,-1,-5,12,-11,-7,-8,-6,6
-5,-8,-3,7,-1,-5,12,-11,-7,-7,-5,6
-5,-9,-4,7,-1,-6,12,-11,-7,-7,-5,6
-4,-9,-5,7,0,-6,11,-11,-7,-8,-4,6
-3,-9,-6,6,1,-7,11,-10,-7,-8,-4,6
-2,-9,-6,6,1,-7,11,-8,-6,-7,-2,6
-2,-9,-7,6,2,-7,11,-6,-4,-5,0,6
-1,-8,-7,4,2,-7,10,-3,-1,-2,2,7
1,-6,-7,2,3,-6,9,-1,3,2,7,10
4,-4,-8,0,5,-5,8,2,9,9,13,14
8,-1,-9,-4,8,-5,8,5,16,18,23,19
13,3,-10,-9,11,-3,7,9,25,30,36,27
19,10,-9,-15,14,1,7,12,36,45,51,36
26,19,-8,-22,16,6,6,15,46,59,68,46
33,27,-6,-30,19,11,4,17,56,73,83,56
40,35,-5,-38,22,16,1,18,63,85,97,66
46,42,-4,-44,25,20,-1,18,68,94,109,74
49,48,-2,-49,25,24,-3,17,69,98,116,79
48,51,3,-49,22,28,-3,16,66,96,116,82
40,51,10,-45,14,31,0,12,59,85,105,79
25,45,20,-35,2,33,6,8,45,65,82,68
6,36,30,-21,-12,33,15,2,27,39,51,51
-12,26,38,-6,-25,33,24,-4,8,12,19,33
-26,18,44,4,-36,32,31,-7,-5,-8,-7,18
-36,14,49,10,-43,33,37,-6,-9,-20,-24,7
-42,12,53,15,-48,33,43,-2,-8,-24,-33,0
-45,10,55,17,-51,33,47,3,-5,-25,-38,-4
-47,9,56,19,-52,33,51,9,-2,-25,-40,-6
-47,7,54,20,-51,31,53,15,0,-25,-41,-9
-47,4,51,21,-49,28,55,20,1,-24,-41,-11
-47,1,47,22,-47,24,56,26,2,-24,-40,-12
-46,-2,43,23,-45,21,58,33,5,-24,-40,-14
-45,-4,39,24,-42,18,60,41,8,-22,-38,-15
-43,-6,36,24,-40,16,64,50,13,-20,-36,-15
-41,-6,34,23,-38,14,69,59,19,-17,-33,-15
-39,-6,33,23,-36,13,74,68,23,-15,-30,-15
-38,-6,32,22,-35,13,78,74,25,-13,-28,-15
-37,-6,31,22,-34,12,82,76,26,-11,-26,-14
-37,-6,30,22,-34,12,84,75,26,-10,-25,-13
-36,-6,30,21,-33,13,84,74,26,-9,-24,-12
-35,-6,29,20,-32,12,85,73,26,-8,-22,-11
-34,-6,27,20,-31,11,86,72,25,-8,-20,-11
-32,-6,26,19,-30,11,87,71,25,-7,-19,-10
-31,-6,24,19,-29,10,87,69,24,-7,-18,-9
-31,-7,24,20,-28,9,88,66,24,-6,-18,-9
-31,-7,24,19,-28,9,90,64,24,-6,-17,-8
-30,-6,24,18,-28,9,93,64,26,-4,-15,-6
-30,-6,24,17,-27,10,97,65,28,-2,-13,-4
-29,-5,24,16,-27,10,100,67,31,0,-11,-3
-29,-4,24,16,-27,11,103,69,33,1,-9,-3
-28,-4,23,16,-26,10,104,70,34,2,-8,-2
-26,-4,21,15,-24,9,104,69,33,3,-6,-2
-24,-4,20,14,-23,9,102,66,32,3,-5,-1
-23,-3,19,13,-22,8,99,61,30,3,-5,0
-21,-3,18,12,-20,8,95,54,26,1,-4,0
-20,-3,16,12,-18,7,89,45,22,0,-4,0
-18,-3,14,10,-16,6,80,35,17,0,-2,1
-15,-3,11,9,-14,5,68,24,12,-1,-1,2
-13,-3,9,8,-12,4,56,13,7,-2,0,3
-11,-4,7,7,-10,2,45,5,3,-3,0,3
-9,-5,3,7,-7,0,36,-1,0,-4,0,3
-6,-6,0,7,-4,-2,26,-7,-2,-4,0,4
-4,-7,-3,7,-1,-4,18,-12,-5,-5,1,5
-2,-8,-5,6,1,-6,11,-15,-8,-6,2,5
-1,-8,-6,5,2,-6,6,-18,-10,-6,3,6
0,-8,-8,4,4,-7,2,-19,-11,-5,5,6
1,-8,-9,4,5,-7,0,-19,-11,-5,5,6
1,-9,-10,4,5,-8,-1,-19,-10,-5,6,7
2,-9,-11,3,6,-9,-3,-19,-10,-4,6,8
3,-8,-11,2,6,-9,-4,-18,-9,-4,7,9
5,-6,-11,0,7,-8,-5,-16,-8,-2,9,11
6,-5,-11,-1,8,-8,-5,-15,-7,0,11,12
8,-4,-11,-2,9,-7,-5,-14,-5,2,14,13
9,-3,-12,-2,10,-7,-6,-13,-4,3,16,14
9,-3,-12,-3,10,-7,-6,-13,-4,4,17,15
10,-2,-12,-3,10,-7,-7,-12,-3,4,18,15
10,-1,-12,-4,11,-6,-7,-12,-3,5,18,15
11,0,-12,-5,11,-6,-8,-12,-2,5,19,16
12,0,-12,-6,12,-6,-9,-12,-2,6,20,17
13,1,-12,-7,12,-5,-10,-12,-2,8,21,18
15,2,-12,-8,13,-5,-11,-13,-2,9,22,18
16,2,-13,-9,14,-4,-13,-13,-2,10,24,19
18,3,-13,-10,15,-4,-15,-14,-2,10,25,20
19,5,-14,-12,16,-4,-17,-15,-1,11,26,22
21,6,-14,-13,17,-3,-19,-15,0,12,28,24
22,7,-15,-14,18,-3,-20,-15,1,13,29,24
23,7,-15,-15,19,-3,-20,-14,0,13,29,25
24,7,-16,-15,20,-4,-20,-13,0,14,30,25
24,5,-18,-15,21,-6,-20,-12,1,15,31,25
25,4,-19,-14,22,-7,-21,-12,0,16,33,26
25,3,-21,-15,23,-8,-22,-12,0,16,35,27
27,4,-22,-16,24,-9,-23,-12,0,17,37,27
28,5,-22,-16,25,-9,-24,-12,1,17,38,28
28,5,-23,-16,26,-9,-25,-12,1,17,38,29
29,4,-24,-16,26,-10,-26,-13,1,17,39,30
29,4,-25,-16,27,-10,-27,-14,1,17,40,30
30,3,-26,-16,27,-11,-28,-15,1,17,40,30
30,2,-27,-16,28,-11,-29,-16,0,17,40,30
29,1,-27,-15,28,-12,-29,-17,0,17,39,30
29,1,-28,-15,28,-12,-30,-19,-1,16,38,30
29,1,-28,-15,28,-13,-32,-22,-2,16,38,29
29,1,-28,-14,28,-13,-34,-24,-3,15,37,28
28,0,-28,-14,28,-14,-35,-25,-5,14,36,28
28,-1,-29,-13,28,-14,-36,-26,-6,13,36,28
28,-1,-29,-13,28,-14,-37,-27,-7,12,36,27
28,0,-28,-14,27,-13,-38,-29,-8,12,36,27
28,0,-27,-14,27,-13,-39,-31,-9,11,35,27
27,0,-27,-14,27,-12,-39,-32,-10,10,35,26
27,0,-27,-13,27,-13,-40,-33,-11,10,34,26
26,0,-26,-13,26,-13,-41,-34,-12,9,33,26
25,0,-26,-12,26,-13,-41,-35,-12,9,32,26
25,0,-26,-12,25,-13,-41,-36,-12,9,32,25
25,0,-26,-13,25,-12,-42,-36,-13,9,31,25
25,0,-25,-13,24,-12,-42,-36,-12,8,31,25
24,0,-25,-12,24,-12,-41,-36,-12,7,30,25
23,-1,-24,-11,23,-12,-41,-37,-13,6,28,25
22,-1,-24,-10,23,-12,-42,-38,-14,4,26,24
22,-1,-23,-10,22,-12,-42,-39,-15,3,25,23
21,-1,-22,-9,22,-11,-42,-39,-16,2,25,22
20,-1,-21,-9,20,-11,-42,-39,-16,2,25,22
19,-1,-21,-8,19,-11,-41,-38,-17,1,24,22
18,-2,-20,-7,18,-11,-40,-38,-17,1,24,22
17,-2,-20,-7,18,-11,-38,-37,-17,0,23,21
16,-2,-19,-6,17,-11,-37,-36,-17,0,23,20
15,-3,-18,-6,16,-10,-36,-36,-17,1,23,20
14,-3,-17,-5,15,-10,-35,-35,-17,1,23,19
13,-3,-17,-5,15,-10,-34,-34,-16,1,22,19
12,-3,-16,-4,14,-10,-33,-32,-15,1,21,18
11,-3,-15,-3,13,-9,-31,-30,-14,1,21,18
10,-3,-14,-3,11,-9,-30,-29,-15,1,20,17
9,-4,-13,-2,10,-8,-29,-28,-15,1,20,17
8,-5,-13,-1,10,-8,-27,-26,-14,1,19,16
7,-5,-12,-1,9,-8,-26,-25,-13,1,18,16
6,-5,-12,0,9,-8,-24,-24,-12,1,17,15
6,-5,-11,0,8,-8,-22,-22,-12,0,15,15
5,-6,-11,0,8,-8,-20,-20,-11,0,14,14
5,-6,-11,0,7,-8,-18,-18,-10,0,14,14
5,-5,-10,0,7,-7,-16,-17,-9,-1,13,14
4,-5,-9,1,6,-7,-15,-16,-8,-1,13,14
2,-6,-8,2,5,-7,-15,-15,-8,-2,12,13
1,-7,-8,3,4,-7,-14,-14,-8,-3,12,13
1,-7,-7,3,4,-7,-14,-13,-8,-3,12,12
1,-7,-7,4,4,-7,-13,-12,-8,-3,12,12
0,-7,-7,4,4,-7,-12,-10,-9,-4,11,11
0,-7,-7,4,3,-6,-11,-9,-9,-5,9,10
0,-7,-6,4,2,-6,-10,-8,-8,-4,9,9
-1,-7,-5,4,1,-6,-8,-7,-6,-3,8,9
-3,-7,-5,5,0,-6,-5,-5,-6,-3,8,9
-3,-8,-4,5,0,-6,-3,-3,-5,-3,8,9
-4,-7,-4,5,0,-5,-3,-3,-5,-4,8,9
-4,-7,-3,5,0,-5,-2,-2,-5,-4,8,9
-4,-7,-3,5,0,-5,-1,-2,-4,-4,8,9
-4,-7,-3,6,-1,-5,-1,-1,-3,-4,8,9
-5,-8,-3,6,-1,-5,0,-1,-2,-3,9,9
-5,-8,-4,7,-1,-6,0,0,-2,-4,9,10
-5,-8,-4,7,-1,-6,0,0,-2,-4,9,11
-4,-8,-3,6,-1,-5,1,0,-2,-4,9,11
-5,-7,-3,6,-1,-5,2,1,-1,-4,8,11
-6,-7,-2,7,-2,-5,3,2,-1,-4,8,11
-6,-7,-2,7,-2,-5,4,2,-1,-3,8,11
-5,-7,-2,7,-1,-5,4,2,-1,-3,8,11
-5,-8,-3,7,-1,-5,4,3,-1,-3,7,10
-5,-8,-3,6,-1,-5,4,4,0,-2,7,10
-5,-8,-2,6,-1,-4,5,5,2,-1,8,10
-5,-8,-2,6,-1,-4,6,7,4,1,11,11
-5,-7,-1,6,-2,-4,6,10,7,3,14,12
-4,-5,0,5,-2,-2,7,13,12,8,19,14
-2,-2,0,2,-1,-1,7,16,19,16,27,19
2,2,0,-2,1,1,6,20,28,28,38,25
7,8,1,-8,2,5,5,24,38,42,51,34
13,15,3,-14,4,9,5,27,48,56,65,42
19,24,4,-22,7,15,4,30,56,67,78,50
26,32,5,-30,10,20,3,32,63,78,92,60
34,40,6,-38,13,24,2,35,69,87,105,69
40,47,7,-44,16,28,0,36,72,93,114,76
41,52,10,-47,15,31,0,35,69,90,114,79
35,51,16,-43,9,34,2,30,58,76,102,75
20,47,27,-33,-3,37,7,21,39,54,79,66
0,41,40,-21,-20,41,12,8,17,28,51,54
-18,36,54,-9,-36,45,20,0,0,6,24,41
-32,32,64,0,-48,48,29,0,-8,-9,3,29
-41,28,69,6,-55,49,37,4,-9,-17,-11,18
-47,25,72,11,-60,49,44,12,-6,-20,-19,10
-52,21,74,15,-63,48,50,20,-1,-20,-23,5
-54,17,73,18,-64,45,54,27,4,-18,-25,1
-55,14,70,20,-62,42,56,34,9,-16,-26,0
-55,11,66,22,-60,39,58,41,12,-15,-25,-1
-53,8,61,22,-57,35,60,50,15,-14,-24,-2
-51,5,54,22,-53,30,64,61,20,-12,-22,-3
-48,2,49,23,-49,26,69,72,26,-10,-20,-3
-46,0,46,23,-46,23,74,81,31,-7,-18,-4
-45,-1,44,23,-44,22,79,89,36,-5,-17,-4
-44,-1,43,23,-43,21,84,96,40,-3,-16,-4
-44,-1,43,23,-43,21,89,100,42,-2,-14,-3
-44,-1,43,22,-44,21,93,101,42,-2,-12,-3
-44,-1,43,22,-44,21,95,101,41,-2,-11,-2
-44,-1,42,22,-43,21,97,100,39,-1,-9,-2
-44,-1,41,22,-43,21,99,97,37,-1,-8,-2
-43,-2,40,22,-42,19,101,95,36,-2,-7,-2
-42,-3,39,23,-41,18,104,96,36,-1,-6,-1
-41,-3,38,22,-40,18,108,99,38,0,-4,0
-40,-2,38,21,-39,18,114,104,42,2,-2,0
-39,-1,38,20,-38,19,121,112,47,6,1,2
-38,0,38,19,-38,20,125,117,51,10,5,4
-36,1,38,17,-37,20,126,117,53,12,8,6
-35,2,37,16,-36,20,124,113,52,12,9,7
-33,2,35,15,-34,19,119,107,49,12,9,7
-31,1,33,15,-32,18,114,99,45,11,10,8
-30,0,30,14,-30,16,106,88,41,10,12,9
-27,0,28,13,-27,14,96,75,36,10,14,10
-25,0,25,12,-24,13,84,61,31,9,16,12
-22,0,21,11,-21,11,72,48,26,7,16,13
-20,-2,18,11,-19,8,60,37,21,6,16,14
-18,-3,14,10,-16,6,48,28,17,5,17,16
-15,-3,11,9,-13,4,37,19,12,4,19,17
-13,-4,8,8,-10,2,28,11,7,3,19,17
-11,-6,4,8,-7,0,19,5,2,2,20,17
-9,-7,1,7,-5,-2,12,0,-1,1,21,18
-7,-8,-1,7,-3,-4,5,-3,-2,1,22,20
-6,-9,-4,7,-1,-6,0,-5,-2,1,22,21
-5,-10,-6,7,0,-7,-3,-6,-3,1,23,21
-4,-11,-7,6,1,-8,-5,-7,-3,1,24,21
-3,-11,-8,6,2,-8,-8,-7,-4,1,26,21
-2,-11,-8,6,3,-9,-9,-8,-4,1,27,22
-1,-11,-10,6,4,-10,-10,-9,-5,1,27,23
0,-12,-11,6,5,-11,-11,-9,-5,2,28,23
0,-12,-12,5,6,-12,-12,-9,-5,2,28,24
1,-12,-13,5,7,-12,-13,-9,-6,3,29,24
2,-12,-14,5,8,-13,-15,-9,-7,2,29,25
2,-12,-15,5,9,-13,-17,-9,-8,2,29,25
3,-12,-15,4,10,-13,-18,-8,-8,3,29,25
4,-11,-15,4,10,-12,-19,-7,-7,4,30,25
5,-10,-15,3,10,-12,-19,-7,-5,6,31,25
6,-10,-15,2,11,-12,-19,-6,-4,7,32,26
6,-10,-16,2,11,-13,-19,-6,-3,8,34,26
7,-10,-17,1,12,-13,-19,-5,-2,9,35,26
8,-10,-18,1,12,-13,-18,-4,-1,10,36,27
8,-10,-18,0,13,-13,-19,-4,-1,9,37,28
9,-10,-19,0,13,-13,-20,-3,-1,9,38,30
9,-10,-19,0,14,-13,-20,-3,0,10,39,31
9,-10,-19,0,14,-14,-19,-4,0,11,40,31
9,-9,-19,0,14,-14,-20,-5,0,12,40,31
10,-8,-19,0,14,-13,-21,-6,0,12,40,31
10,-8,-19,-1,14,-13,-22,-7,-1,10,40,31
10,-7,-19,-1,14,-13,-23,-10,-2,10,40,32
11,-6,-19,-2,14,-12,-25,-12,-3,10,42,33
12,-6,-18,-3,15,-12,-27,-15,-4,11,43,35
13,-6,-19,-3,16,-12,-29,-17,-5,11,43,36
14,-6,-20,-4,17,-13,-31,-19,-6,11,44,36
15,-5,-20,-4,18,-13,-34,-21,-7,11,45,37
16,-5,-21,-5,18,-13,-37,-24,-8,10,45,37
17,-4,-21,-6,19,-13,-39,-26,-10,10,45,37
17,-5,-22,-6,20,-14,-40,-28,-12,9,45,37
17,-5,-23,-6,20,-14,-42,-30,-13,8,44,37
17,-5,-23,-6,21,-13,-43,-33,-15,7,44,37
18,-5,-23,-6,21,-13,-45,-35,-16,6,43,37
18,-4,-23,-6,21,-13,-46,-36,-18,6,43,37
19,-3,-22,-7,21,-12,-47,-38,-19,6,42,37
19,-1,-21,-8,20,-11,-48,-39,-20,6,42,38
19,0,-20,-9,20,-10,-49,-39,-20,6,42,38
19,0,-19,-9,19,-9,-49,-40,-21,6,42,38
18,0,-18,-9,18,-8,-49,-40,-21,6,42,39
18,0,-17,-9,17,-7,-49,-41,-21,6,42,39
17,0,-16,-9,16,-7,-48,-41,-22,6,42,39
15,0,-14,-8,15,-6,-48,-41,-22,5,42,39
13,0,-13,-7,13,-6,-47,-40,-23,5,42,39
12,0,-12,-6,12,-6,-45,-39,-23,5,41,39
12,0,-13,-6,12,-6,-44,-39,-23,4,40,38
11,0,-13,-5,12,-6,-44,-39,-24,3,38,37
11,-1,-13,-4,12,-7,-43,-38,-24,2,37,37
10,-3,-13,-3,12,-7,-41,-38,-23,2,35,36
9,-4,-13,-2,11,-8,-40,-37,-22,1,34,35
8,-6,-13,-1,11,-9,-39,-36,-21,1,33,34
7,-6,-14,-1,11,-10,-39,-35,-20,0,33,33
6,-7,-14,0,11,-11,-38,-34,-19,0,32,33
4,-8,-14,1,10,-11,-36,-32,-18,0,31,32
3,-10,-14,3,9,-12,-35,-31,-17,0,30,31
2,-12,-15,5,8,-13,-34,-30,-17,-1,29,30
2,-14,-15,6,8,-14,-32,-29,-16,-1,28,30
1,-15,-16,7,8,-14,-31,-27,-16,-1,27,29
0,-16,-16,7,8,-15,-29,-26,-16,-1,26,29
-1,-16,-15,7,7,-14,-28,-25,-16,-1,26,28
-1,-14,-13,7,6,-13,-27,-24,-15,-1,26,28
-2,-12,-11,6,5,-11,-25,-22,-14,-1,26,29
-2,-11,-10,6,4,-10,-24,-20,-12,0,26,29
-3,-11,-9,7,4,-10,-22,-17,-11,0,25,28
-3,-13,-10,8,4,-11,-19,-14,-9,0,24,27
-3,-15,-11,9,4,-12,-17,-10,-7,0,23,26
-4,-18,-12,10,4,-14,-15,-8,-5,0,22,25
-5,-20,-14,12,4,-16,-14,-6,-5,-1,21,24
-6,-22,-15,13,4,-18,-12,-4,-4,-2,20,23
-7,-22,-14,14,3,-18,-11,-3,-4,-2,19,22
-8,-20,-12,14,2,-17,-10,-3,-3,-2,19,22
-8,-17,-9,13,1,-13,-9,-2,-2,0,20,23
-8,-14,-5,11,-1,-10,-8,-1,-1,1,20,23
-8,-12,-3,10,-2,-7,-7,0,-1,2,21,23
-8,-10,-1,9,-3,-6,-6,2,0,2,21,23
-8,-10,-2,9,-3,-6,-5,4,0,2,20,22
-8,-12,-3,10,-2,-7,-4,5,0,1,19,21
-8,-14,-5,11,-1,-10,-3,6,1,0,18,20
-9,-15,-7,12,-1,-11,-3,6,1,-1,16,18
-9,-16,-7,13,-1,-12,-2,7,0,-2,15,17
-10,-16,-5,13,-2,-10,-2,7,0,-2,14,17
-11,-13,-2,12,-4,-7,-2,7,0,-1,14,18
-11,-10,1,10,-5,-4,-1,7,0,0,15,18
-11,-9,3,10,-7,-2,0,7,0,1,15,18
-11,-8,3,9,-7,-2,0,7,0,0,15,18
-10,-7,2,8,-6,-2,0,7,0,0,14,18
-9,-7,1,8,-6,-3,0,7,1,0,14,18
-9,-7,1,8,-6,-3,0,7,1,0,13,17
-9,-7,2,8,-7,-2,0,7,1,0,13,17
-9,-6,4,8,-7,0,1,7,2,0,12,17
-9,-5,5,7,-7,0,1,8,2,0,12,17
-9,-4,5,6,-6,0,2,9,3,0,12,16
-9,-4,4,6,-6,0,3,10,3,0,11,15
-9,-5,4,7,-6,-1,3,10,2,0,11,14
-9,-5,3,7,-6,-1,3,8,1,-1,10,14
-9,-5,3,7,-6,-1,3,7,1,-1,10,14
-9,-6,3,7,-6,-2,3,7,0,-2,9,13
-9,-7,2,8,-5,-2,3,7,0,-2,8,13
-9,-8,1,8,-4,-3,3,8,0,-3,7,13
-9,-9,0,9,-4,-4,3,8,0,-3,6,13
-9,-10,-1,9,-4,-5,3,7,-1,-4,5,12
-10,-11,-1,10,-4,-6,3,6,-1,-4,5,12
-10,-12,-2,10,-4,-6,3,6,-1,-4,4,11
-10,-13,-3,11,-3,-7,4,7,0,-4,4,10
-10,-14,-4,11,-3,-8,5,8,1,-5,3,9
-10,-15,-4,12,-3,-9,5,8,1,-5,2,8
-10,-15,-4,12,-3,-9,5,8,1,-5,1,7
-11,-15,-4,13,-4,-8,5,7,1,-5,1,7
-11,-14,-3,12,-5,-7,4,5,0,-5,0,7
-10,-12,-3,11,-4,-7,4,4,-1,-5,0,7
-9,-11,-2,10,-4,-6,3,4,-2,-5,0,7
-8,-10,-2,9,-3,-6,2,4,-2,-6,0,7
-8,-10,-2,9,-3,-5,1,4,-3,-6,-1,6
-7,-9,-2,8,-2,-5,0,5,-2,-5,-1,6
-6,-7,-1,6,-2,-4,0,7,0,-4,0,6
-4,-5,-1,4,-2,-3,1,10,3,-1,3,7
-1,-1,-1,1,0,-1,1,15,9,5,9,11
3,2,-1,-2,2,0,1,20,18,14,19,17
9,7,-2,-8,5,2,0,25,29,27,33,24
17,15,-2,-15,8,6,0,30,42,42,48,34
25,24,-1,-24,12,11,-1,34,54,57,64,44
33,32,0,-33,16,16,-3,36,65,71,79,54
40,41,1,-41,19,22,-5,38,72,83,93,63
45,51,4,-48,20,28,-7,38,77,92,104,71
47,59,11,-53,17,36,-7,36,79,97,111,77
42,64,21,-53,10,43,-5,34,76,95,109,78
31,64,32,-48,0,48,0,31,67,83,96,73
15,59,44,-37,-14,51,6,26,52,62,72,62
-3,52,56,-25,-29,54,13,16,33,37,42,47
-19,45,64,-13,-41,54,20,5,13,12,13,30
-31,38,69,-3,-50,54,26,0,0,-7,-11,16
-40,32,71,3,-56,52,33,1,-6,-19,-26,5
-45,27,72,9,-59,51,38,6,-7,-25,-36,-2
-49,22,71,13,-60,48,43,11,-7,-28,-43,-8
-50,19,69,15,-60,45,45,16,-7,-30,-46,-13
-50,15,66,17,-58,41,47,20,-6,-30,-48,-16
-50,12,62,18,-56,37,48,26,-3,-30,-49,-18
-49,9,58,19,-53,33,51,33,0,-30,-49,-19
-48,6,53,20,-51,29,55,42,5,-29,-49,-21
-47,3,49,21,-48,27,59,52,9,-27,-48,-22
-45,2,47,21,-46,25,63,61,13,-25,-46,-22
-44,2,46,21,-45,25,68,69,16,-23,-44,-22
-43,2,45,20,-44,24,74,76,19,-20,-41,-22
-41,2,45,20,-43,24,78,80,21,-18,-39,-21
-40,3,44,19,-43,24,81,81,22,-17,-38,-20
-39,4,44,17,-42,24,83,79,23,-16,-37,-19
-38,5,43,16,-41,24,84,77,23,-16,-36,-19
-37,6,43,15,-40,24,85,74,23,-15,-35,-18
-37,7,43,15,-40,25,86,71,22,-14,-34,-17
-37,6,43,15,-40,25,87,66,20,-14,-34,-17
-36,6,43,15,-39,25,87,62,18,-13,-33,-17
-35,7,43,14,-39,25,88,59,19,-12,-31,-16
-34,8,43,13,-39,25,90,58,22,-10,-29,-15
-33,8,43,13,-38,25,94,59,26,-7,-27,-14
-33,9,43,12,-38,26,98,63,31,-4,-25,-13
-33,10,43,11,-38,26,102,66,34,-1,-23,-13
-32,11,43,10,-38,27,104,68,37,1,-21,-12
-31,13,43,8,-37,28,105,69,38,3,-19,-11
-29,14,42,7,-35,28,104,69,38,4,-18,-10
-26,14,41,6,-33,27,102,67,37,4,-17,-9
-25,13,38,6,-31,25,99,64,35,3,-16,-9
-23,11,35,6,-29,23,92,58,33,2,-16,-9
-21,11,32,5,-27,21,83,49,29,1,-15,-8
-18,11,30,3,-24,20,72,39,25,1,-15,-8
-17,11,28,2,-22,20,60,28,20,0,-14,-7
-15,11,26,2,-21,19,49,19,15,0,-14,-6
-13,10,24,1,-18,17,38,11,10,-2,-13,-6
-11,9,21,0,-15,15,29,4,5,-3,-13,-5
-8,8,18,0,-13,13,20,-1,0,-5,-12,-5
-6,7,14,0,-10,10,13,-5,-3,-6,-12,-5
-4,5,9,0,-7,7,6,-9,-6,-6,-11,-4
-2,3,5,0,-4,4,1,-11,-8,-7,-11,-4
-1,1,2,0,-2,2,-3,-13,-9,-7,-12,-4
0,0,0,0,0,0,-6,-14,-11,-8,-12,-5
2,0,-1,-1,2,-1,-9,-15,-12,-9,-11,-5
3,0,-2,-1,2,-1,-11,-16,-14,-9,-11,-4
4,1,-1,-2,2,0,-13,-16,-15,-8,-9,-3
5,3,0,-3,2,1,-15,-16,-15,-8,-7,-2
5,4,-1,-4,3,1,-16,-16,-15,-7,-6,-1
5,2,-3,-3,3,0,-18,-17,-15,-7,-6,-2
6,1,-5,-2,5,-2,-19,-17,-14,-7,-6,-2
7,0,-7,-3,7,-4,-21,-17,-14,-7,-6,-2
8,0,-8,-4,8,-4,-22,-17,-14,-7,-6,-3
9,-1,-9,-4,9,-5,-22,-17,-15,-6,-5,-3
10,-1,-10,-4,10,-5,-23,-17,-15,-6,-5,-3
10,0,-9,-5,10,-4,-23,-16,-13,-4,-3,-2
11,3,-8,-6,9,-2,-23,-14,-11,-3,-1,-1
12,4,-8,-8,10,-2,-24,-13,-10,-2,0,0
14,3,-11,-8,12,-4,-25,-13,-10,-1,0,0
14,1,-14,-7,14,-7,-26,-13,-10,-1,0,0
15,-1,-16,-6,15,-9,-26,-13,-9,0,0,0
16,-2,-18,-6,17,-10,-27,-12,-9,0,1,0
17,-2,-19,-7,18,-11,-28,-12,-10,0,1,1
18,-2,-19,-7,19,-11,-29,-13,-10,0,2,1
19,-1,-20,-8,19,-11,-30,-13,-10,0,3,1
19,0,-20,-9,19,-10,-31,-14,-10,1,4,1
19,0,-20,-9,19,-10,-32,-15,-10,2,5,1
20,2,-19,-10,19,-9,-33,-17,-10,3,6,1
20,3,-18,-11,19,-7,-35,-19,-11,3,7,2
20,3,-17,-12,19,-7,-35,-20,-12,4,7,3
21,2,-17,-12,19,-7,-36,-20,-12,4,8,3
21,1,-18,-12,20,-7,-37,-21,-12,4,8,4
21,1,-19,-11,20,-8,-38,-22,-12,4,8,4
21,1,-20,-11,21,-9,-39,-23,-13,4,8,4
23,1,-21,-12,22,-9,-40,-25,-15,4,8,4
24,2,-21,-12,22,-9,-42,-27,-18,3,7,4
24,3,-21,-13,22,-8,-44,-30,-19,2,7,5
24,4,-20,-13,22,-7,-45,-31,-20,2,7,5
24,4,-19,-13,22,-7,-45,-32,-19,2,7,5
24,4,-19,-13,21,-7,-45,-32,-19,2,7,4
24,4,-19,-13,21,-7,-46,-33,-18,2,6,3
24,4,-19,-14,21,-7,-46,-33,-18,3,6,3
23,4,-19,-14,21,-7,-46,-34,-18,3,6,2
22,4,-19,-13,20,-7,-46,-34,-18,2,6,2
22,3,-18,-13,20,-7,-46,-36,-20,1,5,1
21,3,-18,-12,19,-7,-46,-37,-22,0,4,1
21,3,-17,-12,19,-7,-46,-39,-23,0,3,1
20,3,-16,-11,18,-7,-46,-39,-24,-1,1,0
19,2,-16,-10,17,-7,-46,-40,-25,-2,0,0
18,1,-16,-10,17,-7,-46,-40,-26,-3,-1,0
18,2,-15,-10,16,-6,-47,-41,-26,-3,-1,0
18,4,-13,-11,15,-4,-46,-41,-26,-2,0,0
17,5,-11,-11,14,-2,-46,-40,-25,-2,0,-1
17,5,-11,-11,13,-2,-45,-39,-24,-2,-1,-1
16,5,-10,-10,13,-3,-44,-38,-24,-3,-2,-2
16,4,-10,-10,12,-3,-43,-38,-24,-3,-3,-2
15,5,-8,-9,11,-2,-42,-37,-23,-3,-3,-2
13,5,-6,-9,10,-1,-41,-37,-23,-4,-3,-2
11,5,-6,-8,9,-1,-40,-36,-23,-4,-4,-3
11,5,-6,-7,8,-1,-39,-35,-23,-5,-5,-5
10,5,-6,-7,8,-1,-37,-33,-21,-5,-7,-6
9,4,-6,-6,7,-1,-35,-31,-19,-5,-7,-7
9,4,-5,-6,7,-1,-33,-29,-17,-5,-8,-7
8,4,-5,-6,7,0,-31,-28,-17,-5,-9,-8
8,4,-4,-6,6,0,-29,-27,-17,-5,-9,-8
7,4,-2,-6,4,1,-27,-25,-16,-4,-10,-8
6,5,0,-6,3,2,-26,-23,-16,-4,-11,-9
5,6,2,-6,1,4,-24,-21,-15,-5,-12,-9
4,7,4,-5,0,6,-22,-19,-14,-5,-12,-9
3,7,4,-5,-1,6,-20,-16,-12,-5,-12,-9
2,6,4,-4,-1,5,-19,-14,-10,-5,-12,-10
2,4,3,-3,-1,3,-18,-13,-9,-5,-13,-11
1,4,3,-2,-1,3,-18,-12,-9,-5,-14,-12
1,5,4,-2,-2,4,-17,-11,-10,-5,-15,-12
0,6,6,-2,-3,5,-15,-10,-10,-5,-15,-13
0,6,7,-2,-3,6,-13,-9,-9,-5,-16,-14
-1,5,7,-1,-4,6,-11,-7,-9,-6,-17,-15
-1,4,6,0,-4,5,-9,-4,-8,-7,-18,-16
-1,3,6,0,-4,4,-7,-2,-6,-7,-18,-16
-2,3,6,0,-4,4,-6,-1,-5,-6,-18,-16
-2,2,6,1,-4,3,-5,0,-5,-6,-19,-17
-3,1,5,1,-4,3,-4,0,-5,-7,-20,-17
-4,1,6,2,-5,3,-3,0,-5,-7,-20,-18
-5,2,8,1,-6,4,-3,0,-5,-6,-19,-17
-5,4,10,0,-7,6,-3,0,-4,-5,-18,-16
-4,5,10,0,-7,7,-2,1,-3,-5,-17,-16
-4,6,10,0,-7,7,-1,2,-3,-6,-18,-16
-4,5,9,0,-7,7,0,2,-3,-6,-19,-17
-4,5,9,0,-7,7,0,2,-4,-7,-20,-17
-4,4,9,0,-7,7,1,2,-4,-7,-21,-18
-4,4,9,0,-7,7,2,2,-4,-7,-21,-19
-4,4,9,0,-7,7,3,2,-3,-6,-21,-19
-5,3,9,1,-7,6,4,3,-3,-7,-21,-20
-6,1,8,2,-7,5,4,3,-4,-8,-22,-21
-6,2,9,2,-7,5,5,3,-4,-8,-22,-21
-5,3,9,1,-7,6,5,3,-3,-8,-22,-21
-5,3,9,1,-7,6,4,3,-3,-7,-21,-20
-5,5,10,0,-7,7,4,3,-2,-6,-21,-20
-5,6,11,0,-8,8,4,3,-1,-5,-21,-19
-5,6,12,0,-9,9,4,4,0,-5,-20,-19
-6,5,12,1,-9,8,5,5,0,-5,-20,-19
-6,3,11,2,-9,7,6,5,-1,-5,-21,-20
-6,2,10,2,-9,6,6,4,-2,-6,-22,-21
-6,3,9,1,-8,6,5,2,-3,-7,-22,-21
-6,3,9,1,-8,6,4,2,-4,-7,-23,-21
-7,3,9,2,-8,5,5,2,-4,-8,-23,-21
-7,2,8,2,-7,5,5,3,-4,-8,-23,-21
-7,2,8,2,-7,4,6,3,-4,-8,-23,-21
-6,2,8,2,-7,5,6,3,-4,-8,-22,-21
-5,2,8,2,-7,5,5,3,-4,-8,-22,-21
-5,3,9,1,-7,6,5,3,-4,-9,-22,-21
-6,3,10,1,-8,7,5,2,-4,-8,-22,-21
-6,5,11,1,-9,8,4,1,-4,-8,-21,-21
-5,6,11,0,-9,9,4,0,-5,-7,-21,-21
-4,7,11,-1,-8,9,4,0,-5,-7,-21,-21
-3,7,10,-1,-7,8,4,0,-4,-8,-21,-21
-3,6,9,-1,-7,7,5,1,-4,-8,-21,-21
-3,5,9,0,-7,7,6,1,-3,-8,-22,-21
-4,4,8,0,-7,6,7,2,-3,-9,-22,-21
-5,2,8,2,-7,5,7,2,-3,-9,-22,-22
-6,0,7,3,-7,3,7,1,-4,-9,-22,-23
-6,-1,6,4,-6,2,6,1,-4,-9,-22,-23
-5,0,5,3,-5,2,5,0,-4,-9,-22,-23
-5,1,7,2,-6,4,4,0,-4,-8,-21,-23
-5,3,9,1,-8,6,4,-1,-4,-7,-20,-22
-5,6,11,0,-8,8,3,-1,-5,-6,-20,-21
-4,8,12,-1,-9,10,3,-1,-5,-6,-20,-20
-5,9,14,-2,-9,11,4,-1,-4,-5,-19,-20
-6,8,15,-1,-10,11,5,0,-3,-5,-19,-21
-7,5,13,1,-10,9,7,0,-2,-6,-20,-22
-7,2,10,2,-9,6,7,0,-2,-6,-21,-23
-7,0,8,3,-7,4,7,0,-4,-8,-22,-24
-7,0,7,3,-8,3,6,-1,-6,-10,-23,-25
-7,0,8,3,-8,4,6,-2,-7,-11,-24,-26
-6,1,8,3,-8,5,6,-1,-7,-12,-25,-26
-5,0,6,3,-6,3,5,0,-6,-12,-25,-26
-5,-1,5,3,-5,1,5,0,-6,-12,-25,-26
-5,-2,4,3,-5,1,4,0,-5,-12,-25,-26
-5,-1,5,2,-5,2,4,0,-5,-11,-24,-26
-6,1,8,2,-7,4,3,-1,-6,-10,-23,-25
-6,4,10,1,-8,7,3,-2,-6,-9,-22,-24
-6,5,12,0,-9,9,4,-2,-6,-8,-21,-23
-6,5,12,1,-10,9,5,-2,-6,-9,-21,-23
-6,3,10,2,-9,7,5,-2,-6,-10,-22,-23
-6,1,9,2,-8,5,6,-2,-6,-10,-22,-23
-7,0,9,3,-8,4,6,-2,-6,-9,-22,-23
-7,1,10,3,-9,5,6,-2,-6,-9,-21,-23
-7,2,11,2,-10,7,6,-2,-5,-9,-21,-24
-8,3,12,2,-10,8,6,-2,-6,-9,-22,-25
-8,4,12,2,-10,8,5,-2,-6,-9,-22,-25
-7,4,11,1,-10,8,5,-2,-6,-9,-22,-25
-6,5,11,0,-9,8,4,-2,-7,-9,-22,-25
-5,5,10,0,-8,7,4,-3,-8,-9,-22,-26
-5,5,10,0,-8,7,4,-2,-8,-9,-22,-26
-4,4,8,0,-7,6,4,-2,-7,-9,-22,-27
-4,2,7,0,-6,4,4,-1,-6,-9,-23,-27
-4,1,5,1,-5,3,5,0,-5,-10,-24,-28
-4,0,4,2,-4,1,5,0,-5,-11,-25,-28
-4,-1,4,3,-5,1,5,-1,-6,-11,-26,-29
-5,0,6,3,-6,2,5,-2,-8,-10,-25,-28
-6,1,8,2,-7,4,5,-2,-8,-9,-24,-27
-7,2,9,2,-8,5,5,-3,-9,-9,-24,-27
-7,2,9,2,-8,5,5,-3,-9,-11,-25,-27
-6,1,8,2,-7,4,5,-2,-9,-12,-25,-27
-6,0,6,2,-7,3,5,-2,-8,-12,-25,-28
-6,0,5,3,-6,1,6,-1,-7,-12,-25,-28
-6,-1,4,3,-5,1,6,0,-6,-12,-25,-29
-6,-2,4,4,-5,0,6,0,-5,-12,-25,-29
-6,-3,3,5,-5,0,6,0,-6,-12,-25,-30
-6,-3,3,5,-5,0,5,-1,-7,-12,-25,-30
-7,-2,5,5,-6,1,5,-2,-8,-10,-24,-30
-7,0,8,4,-8,4,4,-3,-8,-9,-23,-28
-7,3,10,2,-9,7,3,-4,-7,-8,-22,-27
-6,6,12,0,-9,9,3,-4,-7,-7,-21,-26
-5,7,11,0,-8,9,3,-4,-8,-7,-22,-26
-3,7,10,-1,-7,8,3,-3,-8,-7,-22,-27
-2,6,9,-1,-6,7,4,-3,-8,-8,-23,-27
-3,4,8,0,-6,6,5,-2,-7,-9,-23,-28
-3,1,6,1,-5,3,7,-1,-6,-10,-24,-29
-4,-2,4,3,-5,1,7,0,-6,-11,-25,-30
-6,-3,3,5,-5,0,7,-1,-7,-12,-26,-31
-7,-2,4,5,-6,1,6,-2,-8,-12,-26,-32
-7,-1,6,4,-7,2,7,-2,-7,-11,-25,-31
-6,0,6,3,-7,3,7,-1,-7,-10,-25,-31
-6,1,7,3,-6,4,6,-1,-6,-10,-25,-31
-5,2,8,2,-6,5,6,-2,-6,-8,-23,-30
-5,3,9,1,-7,6,6,-3,-6,-7,-22,-28
-5,4,10,0,-8,7,6,-3,-6,-6,-20,-26
-5,4,9,0,-7,7,7,-2,-6,-6,-20,-26
-4,4,8,0,-7,6,7,-1,-5,-7,-21,-27
-5,4,8,1,-7,6,7,-1,-5,-6,-22,-28
-5,6,10,0,-8,8,7,-1,-4,-5,-21,-28
-4,8,12,-1,-8,10,8,0,-3,-5,-20,-28
-3,7,11,-1,-7,9,9,1,-3,-5,-21,-28
-3,6,10,-1,-6,8,10,2,-2,-6,-21,-28
-3,6,9,-1,-6,8,11,3,-1,-6,-21,-28
-3,5,8,-1,-6,7,12,3,-1,-7,-22,-28
-2,5,8,-1,-6,6,11,2,-2,-8,-23,-29
-2,6,8,-1,-6,7,10,1,-4,-9,-24,-29
-2,8,10,-2,-6,9,9,0,-4,-8,-23,-28
-1,10,11,-3,-7,10,8,-1,-4,-8,-22,-28
-1,10,11,-4,-6,10,7,-1,-3,-8,-22,-27
-1,9,9,-3,-5,9,6,-1,-3,-7,-21,-27
-1,6,7,-2,-4,7,5,-1,-3,-7,-20,-27
-1,5,6,-2,-4,6,5,-2,-3,-7,-20,-27
0,6,6,-3,-4,6,4,-2,-3,-6,-19,-26
0,7,7,-4,-4,7,3,-3,-3,-5,-18,-26
1,9,8,-4,-4,9,2,-3,-3,-5,-19,-26
1,11,10,-5,-5,11,2,-3,-3,-5,-19,-26
1,13,12,-6,-6,12,1,-4,-4,-5,-18,-25
1,14,13,-7,-6,13,0,-5,-4,-4,-17,-24
1,14,13,-7,-6,13,0,-5,-4,-4,-17,-23
1,13,12,-7,-5,12,1,-5,-4,-5,-17,-23
1,11,10,-6,-5,10,1,-5,-4,-6,-18,-25
1,8,7,-5,-4,8,1,-5,-5,-7,-19,-27
1,6,5,-4,-2,6,1,-5,-4,-7,-20,-28
1,4,3,-2,-1,4,1,-4,-4,-8,-21,-29
0,3,2,-1,-1,3,1,-4,-5,-8,-22,-30
0,3,3,0,-2,3,1,-5,-6,-9,-23,-29
-1,4,6,-1,-3,6,1,-5,-7,-9,-23,-29
-1,6,8,-2,-5,8,1,-5,-7,-8,-22,-28
-2,7,10,-2,-6,9,2,-5,-7,-8,-22,-28
-3,6,10,-1,-7,9,2,-5,-7,-8,-22,-29
-4,3,8,0,-7,6,2,-5,-7,-8,-22,-30
-4,0,6,2,-6,3,3,-4,-6,-9,-23,-31
-5,-2,3,4,-5,1,3,-4,-6,-9,-23,-32
-5,-4,1,5,-4,-1,3,-4,-7,-10,-25,-33
-6,-5,0,6,-3,-2,2,-4,-9,-11,-26,-34
-6,-5,1,5,-3,-1,2,-5,-9,-12,-26,-35
-5,-3,2,4,-4,0,2,-5,-9,-12,-26,-34
-5,-1,3,3,-4,1,3,-5,-8,-11,-25,-33
-5,0,4,2,-5,2,3,-5,-8,-10,-25,-32
-5,0,5,2,-5,3,2,-5,-8,-10,-24,-31
-6,0,4,3,-5,2,3,-5,-9,-10,-24,-31
-5,-2,2,4,-4,0,5,-4,-8,-11,-25,-32
-5,-4,1,5,-3,-1,5,-2,-8,-11,-25,-33
-5,-5,0,5,-3,-1,5,-2,-7,-11,-25,-34
-5,-4,1,5,-4,0,5,-2,-7,-10,-25,-35
-5,-2,4,4,-5,1,4,-3,-7,-9,-25,-35
-6,-1,5,4,-6,2,4,-3,-7,-8,-25,-35
-6,-1,4,4,-5,1,4,-3,-7,-9,-26,-35
-6,-3,2,5,-4,0,5,-2,-7,-11,-27,-36
-6,-4,0,5,-3,-2,5,-1,-7,-11,-27,-36
-6,-4,0,5,-3,-2,5,-2,-7,-11,-26,-35
-6,-4,1,5,-4,-1,5,-2,-8,-11,-26,-35
-6,-2,3,4,-5,1,5,-3,-8,-11,-26,-35
-6,-1,4,4,-5,2,5,-3,-8,-11,-26,-34
-5,-1,4,4,-5,1,5,-2,-8,-11,-26,-34
-5,-3,1,4,-3,0,4,-2,-7,-11,-26,-35
-5,-4,0,5,-3,-2,4,-2,-8,-11,-26,-35
-6,-4,0,5,-3,-1,4,-2,-8,-10,-25,-34
-6,-3,2,4,-4,0,5,-2,-8,-10,-25,-34
-5,-2,3,3,-4,0,5,-2,-8,-10,-25,-34
-4,-2,3,3,-4,0,5,-2,-8,-10,-25,-34
-4,-3,2,3,-3,0,5,-1,-7,-10,-25,-34
-5,-4,2,4,-3,0,5,-1,-7,-10,-25,-34
-5,-4,1,4,-3,-1,6,-1,-7,-9,-25,-34
-5,-4,1,4,-3,-1,6,-2,-7,-9,-25,-34
-6,-3,2,4,-4,0,6,-3,-8,-9,-24,-34
-6,-3,3,4,-5,0,6,-3,-8,-8,-24,-33
-7,-3,4,5,-5,0,6,-2,-8,-8,-24,-34
-7,-3,3,5,-5,0,6,-1,-7,-9,-24,-35
-6,-4,2,5,-4,0,5,-1,-7,-9,-25,-35
-5,-4,2,5,-3,0,5,-1,-6,-9,-25,-35
-5,-4,1,5,-3,-1,5,0,-6,-9,-25,-35
-5,-4,0,5,-2,-2,6,0,-5,-9,-25,-36
-5,-5,0,6,-2,-2,6,0,-5,-9,-25,-36
-5,-5,0,6,-2,-2,6,0,-6,-9,-25,-36
-4,-4,0,5,-2,-2,6,0,-6,-9,-24,-36
-4,-3,1,4,-3,-1,5,0,-7,-8,-24,-35
-4,-3,1,4,-3,0,5,0,-7,-8,-23,-34
-4,-3,0,4,-2,-1,4,0,-7,-8,-23,-34
-3,-4,-2,4,0,-3,3,0,-7,-8,-23,-35
-2,-6,-5,4,1,-5,3,0,-7,-9,-23,-35
-1,-6,-6,4,2,-6,3,0,-6,-8,-22,-35
0,-6,-7,3,3,-6,3,2,-3,-6,-21,-34
1,-5,-7,2,4,-6,3,6,0,-2,-17,-32
4,-3,-8,0,6,-6,3,9,5,3,-11,-29
9,-1,-10,-3,9,-6,2,11,10,10,-2,-24
14,2,-12,-7,13,-5,0,13,16,19,9,-17
21,8,-12,-14,17,-2,-2,15,23,31,23,-9
28,16,-12,-22,20,2,-5,16,30,43,38,1
35,25,-10,-30,23,8,-8,16,37,55,54,12
42,35,-9,-39,25,13,-11,16,43,67,69,23
49,43,-8,-46,28,18,-14,15,47,76,81,32
54,49,-6,-51,29,22,-16,13,51,82,91,40
54,53,-2,-53,28,26,-15,13,53,84,95,44
48,54,5,-51,22,30,-12,12,51,80,91,43
36,51,14,-44,11,33,-6,11,45,68,75,35
19,44,25,-32,-2,35,2,10,36,49,49,20
0,35,35,-18,-17,35,12,9,25,28,18,2
-17,27,43,-5,-30,35,21,8,15,9,-9,-16
-28,21,48,4,-38,34,29,10,10,-3,-29,-29
-34,18,51,9,-43,35,34,13,10,-8,-39,-37
-38,16,54,11,-46,35,37,16,12,-9,-43,-42
-41,15,56,13,-48,36,40,20,14,-8,-45,-44
-42,15,56,14,-48,36,41,23,15,-7,-45,-46
-41,14,55,14,-48,35,42,25,16,-7,-45,-47
-40,12,52,14,-46,32,41,27,16,-7,-45,-48
-39,10,48,15,-44,29,42,31,17,-7,-45,-49
-38,6,44,16,-42,25,44,38,20,-7,-45,-51
