leadI,leadII,leadIII,leadaVR,leadaVL,leadaVF,leadV1,leadV2,leadV3,leadV4,leadV5,leadV6
1,1,1,-1,0,1,-3,-5,1,77,1,-215
2,3,2,-3,0,3,-6,-13,4,-357,2,-91
2,3,2,-3,0,2,-8,-17,8,-409,3,123
1,2,1,-2,0,1,-8,-19,11,-458,3,474
1,0,0,0,0,0,-8,-20,16,-956,3,998
0,-1,0,0,0,-1,-6,-20,19,-1208,3,867
0,2,2,-1,-1,1,-5,-19,18,-1567,3,395
1,6,5,-4,-2,5,-7,-20,15,-1783,3,585
2,9,7,-5,-2,7,-9,-23,11,-1376,3,1212
2,9,7,-5,-2,7,-11,-24,10,-1147,3,1310
2,7,5,-5,-1,6,-11,-23,10,-918,3,1126
2,5,3,-4,-1,4,-10,-23,11,-21,3,800
1,2,1,-2,0,2,-9,-22,14,-26,3,426
1,0,0,0,0,0,-8,-21,16,-8,3,62
1,1,1,-1,-1,1,-7,-19,17,-77,3,-278
1,5,4,-3,-2,4,-7,-19,14,-114,3,228
2,9,7,-5,-2,7,-9,-21,11,514,3,1244
2,9,7,-5,-2,7,-11,-23,8,793,3,1799
3,8,6,-5,-1,6,-12,-23,8,871,3,1819
3,7,5,-5,0,5,-12,-23,8,833,3,1743
4,5,3,-5,0,4,-12,-23,9,739,3,1271
4,3,1,-4,0,2,-11,-22,11,647,3,1009
4,3,1,-3,0,1,-9,-21,12,570,3,1638
3,5,3,-4,0,3,-8,-19,12,488,3,2011
4,7,4,-5,0,5,-9,-20,9,431,3,2080
5,8,4,-6,0,5,-10,-21,7,58,3,2053
5,8,3,-6,1,5,-10,-21,7,-162,3,1975
4,7,3,-5,0,4,-10,-21,7,49,3,1870
3,5,2,-4,0,3,-11,-21,8,258,3,1754
2,3,1,-3,0,1,-11,-21,10,112,3,1651
2,2,0,-2,0,0,-10,-19,12,167,3,1574
2,3,2,-3,0,1,-8,-17,11,675,3,1506
3,6,4,-4,-1,4,-9,-17,9,925,3,1428
3,7,4,-5,0,5,-10,-18,6,831,3,1339
3,6,3,-4,0,4,-11,-19,5,795,3,1317
2,4,2,-3,0,3,-11,-18,5,892,3,1160
2,2,0,-2,0,1,-10,-16,7,901,3,1068
1,0,0,-1,0,0,-10,-15,9,391,3,1306
1,-1,0,0,0,-1,-10,-15,10,126,3,1434
1,0,1,-1,0,0,-9,-14,10,-96,3,1563
1,3,3,-2,0,3,-9,-15,8,-214,3,1720
2,5,3,-3,0,4,-10,-16,6,432,3,1728
2,5,3,-3,0,4,-10,-16,5,561,3,1252
2,4,2,-2,0,3,-10,-15,6,615,3,907
2,2,1,-2,0,1,-10,-14,7,896,3,1216
2,0,0,-1,0,0,-10,-14,7,695,3,1597
1,-1,0,-1,0,-1,-10,-14,8,554,3,1988
1,-1,0,0,0,-1,-9,-12,9,870,3,1520
1,0,0,-1,0,0,-8,-11,9,1035,3,517
1,2,1,-1,0,1,-8,-11,8,1014,3,-3
1,3,1,-2,0,2,-9,-11,7,958,3,-282
1,3,1,-2,0,2,-9,-11,7,771,3,-290
1,3,1,-2,0,2,-9,-11,7,379,3,-12
1,2,1,-2,0,1,-10,-11,6,-64,3,234
2,1,0,-2,0,0,-10,-10,7,49,3,42
2,0,0,-2,1,0,-9,-8,8,-77,3,63
2,1,0,-2,0,0,-8,-6,8,-577,3,389
1,2,2,-2,0,2,-9,-6,7,-189,3,666
2,4,2,-3,0,3,-10,-6,6,127,3,549
2,4,2,-3,0,3,-10,-6,6,-364,3,97
2,4,1,-3,0,3,-11,-5,6,-415,3,414
2,3,1,-3,0,2,-11,-5,5,-147,3,1109
2,1,0,-2,1,0,-12,-5,5,-455,3,1483
3,0,-2,-2,1,-1,-11,-5,5,-772,3,1461
3,0,-1,-2,1,0,-10,-3,6,-659,3,1363
2,1,0,-2,0,1,-10,-3,5,-410,3,1449
2,2,0,-2,0,1,-10,-4,4,-607,3,1682
2,2,0,-2,1,1,-11,-4,4,-890,3,1851
2,3,0,-2,1,1,-10,-4,4,-648,3,1356
2,3,0,-3,1,1,-10,-3,5,-773,3,475
2,3,0,-3,1,1,-10,-4,5,-715,3,42
2,2,0,-2,1,0,-11,-4,5,-549,3,-275
2,1,0,-2,0,0,-10,-4,5,-1060,3,-201
1,2,2,-2,0,1,-10,-3,4,-972,3,311
1,3,2,-2,0,2,-11,-4,3,-280,3,598
1,3,1,-2,0,2,-12,-4,2,277,3,606
1,2,0,-1,0,1,-11,-4,2,325,3,695
1,1,0,-1,0,0,-11,-4,3,-318,3,898
1,1,0,-1,0,0,-11,-4,3,-870,3,1025
1,1,0,-2,0,0,-12,-5,3,-810,3,869
1,2,1,-2,0,1,-12,-5,3,-629,3,935
2,3,1,-3,0,2,-11,-4,3,-614,3,1469
2,3,1,-3,0,2,-12,-5,3,-914,3,1707
3,3,1,-3,1,2,-13,-6,2,-739,3,1782
3,3,0,-3,1,2,-13,-6,2,-421,3,1333
2,2,0,-2,1,1,-12,-5,2,-152,3,996
2,2,0,-2,1,1,-12,-5,2,-32,3,1242
2,2,0,-2,1,0,-13,-5,2,-87,3,877
2,1,0,-2,1,0,-12,-4,3,-318,3,741
2,2,0,-2,1,0,-12,-3,3,-734,3,598
2,3,1,-3,0,2,-12,-3,3,-514,3,554
2,4,1,-3,0,3,-13,-4,3,12,3,1239
1,3,1,-2,0,2,-13,-4,3,-154,3,1130
1,3,1,-2,0,2,-12,-3,3,-773,3,982
2,3,1,-2,0,2,-11,-3,3,-871,3,1367
2,3,1,-3,0,2,-12,-3,3,-689,3,1733
2,3,1,-3,0,2,-12,-3,3,-354,3,1702
2,3,1,-2,0,2,-12,-2,3,49,3,983
1,3,2,-2,0,2,-11,-1,3,453,3,916
1,3,2,-2,0,2,-11,-2,2,821,3,1599
1,3,2,-2,0,2,-12,-3,2,321,3,1759
1,3,2,-2,0,2,-11,-2,3,-702,3,1867
1,3,2,-2,-1,3,-11,-2,2,-1222,3,2011
1,3,2,-2,-1,2,-11,-2,2,-1452,3,2052
1,2,1,-2,0,1,-12,-2,2,-1507,3,1868
1,2,1,-2,0,1,-11,-1,3,-1456,3,1061
1,3,2,-2,-1,2,-11,0,3,-1360,3,951
1,4,2,-2,0,2,-11,0,3,-1265,3,1610
2,3,1,-2,0,2,-12,-1,3,-1178,3,1753
1,3,1,-2,0,1,-11,0,3,-1090,3,1844
1,3,1,-2,0,2,-10,0,3,-896,3,1999
1,3,2,-2,0,2,-10,1,3,-656,3,2049
1,3,1,-2,0,1,-10,1,3,-513,3,1595
1,2,0,-2,0,0,-10,1,3,-428,3,883
1,2,0,-2,0,0,-9,1,3,-377,3,294
1,3,1,-2,0,2,-9,1,2,-346,3,-328
1,4,2,-2,0,3,-10,-1,2,-328,3,-585
1,3,2,-2,0,2,-10,-2,2,-316,3,-241
1,3,2,-1,0,2,-9,-1,3,-309,3,8
1,3,2,-1,0,2,-9,0,3,-304,3,-83
1,3,2,-2,0,2,-9,-1,2,-300,3,105
1,3,2,-2,0,2,-9,-2,2,-298,3,62
1,3,1,-2,0,2,-8,-1,3,-296,3,253
1,3,1,-2,0,2,-8,0,3,-294,3,798
1,4,1,-2,0,2,-8,0,3,-293,3,1071
2,3,0,-2,0,1,-9,-1,3,-292,3,1041
2,3,0,-2,1,1,-8,-1,4,-290,3,1078
3,3,0,-3,2,1,-7,0,4,-290,3,1238
4,4,0,-4,2,1,-8,0,3,-288,3,1360
4,2,-2,-3,3,0,-8,0,4,-287,3,1651
3,-1,-4,-1,3,-3,-6,1,5,-286,3,1140
2,-2,-5,0,3,-4,-5,3,7,-285,3,130
3,-1,-5,0,3,-3,-5,3,7,-284,3,-383
3,-1,-5,-1,3,-3,-5,3,7,-283,3,-618
3,-1,-5,-1,4,-3,-5,3,6,-282,3,-688
4,0,-4,-2,4,-2,-5,3,5,-281,3,-669
5,2,-3,-4,5,-1,-6,3,4,-280,3,-612
6,1,-5,-4,6,-1,-7,2,4,-279,3,-526
6,0,-7,-3,7,-3,-7,2,6,-278,3,-406
5,-1,-7,-2,6,-4,-5,4,7,-277,3,-274
5,-1,-7,-2,6,-4,-5,5,8,-276,3,-164
5,-1,-6,-2,5,-4,-5,4,8,-275,3,-88
5,-1,-5,-2,5,-3,-5,4,8,-274,3,-27
5,0,-4,-2,5,-2,-5,3,8,-273,3,26
5,2,-3,-3,5,-1,-5,3,7,-272,3,67
5,2,-3,-3,5,-1,-6,2,6,-271,3,101
4,1,-4,-3,5,-1,-7,1,7,-270,3,155
4,1,-4,-3,5,-2,-6,2,7,-269,3,228
5,1,-4,-3,5,-1,-5,3,7,-268,3,273
5,2,-4,-4,5,-1,-6,2,6,-267,3,357
5,0,-5,-3,5,-2,-7,1,5,-266,3,700
5,0,-5,-3,5,-3,-7,1,4,-265,3,501
6,0,-5,-3,5,-2,-7,1,3,-264,3,-105
6,1,-5,-4,6,-2,-8,0,2,-263,3,-308
6,1,-6,-4,6,-2,-9,-1,1,-262,3,-474
6,1,-6,-4,6,-2,-9,-1,1,-261,3,-697
6,1,-6,-4,6,-2,-8,-1,0,-260,3,-948
6,2,-5,-4,5,-2,-9,-3,-1,-259,3,-387
6,1,-4,-4,5,-2,-10,-5,-3,-258,3,664
6,0,-5,-3,5,-3,-10,-6,-3,-257,3,1195
6,1,-5,-3,6,-2,-10,-7,-4,-256,3,1427
7,2,-5,-4,6,-2,-11,-8,-5,-255,3,1484
7,2,-6,-4,6,-2,-12,-9,-6,-254,3,1461
7,1,-6,-4,6,-2,-12,-9,-7,-253,3,1421
7,1,-6,-4,6,-2,-11,-8,-7,-252,3,1376
7,2,-5,-4,6,-1,-10,-7,-7,-251,3,1308
8,3,-4,-5,6,0,-11,-8,-8,-250,3,1214
8,3,-4,-5,6,0,-11,-9,-8,-249,3,1117
7,3,-3,-4,5,0,-11,-9,-8,-248,3,1028
6,3,-3,-4,4,0,-11,-8,-7,-247,3,940
5,3,-3,-4,4,0,-11,-9,-7,-246,3,808
4,2,-3,-3,3,-1,-11,-9,-7,-245,3,668
4,1,-3,-3,3,-1,-9,-8,-6,-244,3,584
4,2,-2,-3,3,-1,-8,-7,-6,-243,3,534
4,2,-2,-3,3,-1,-8,-8,-7,-242,3,503
3,0,-3,-2,3,-2,-9,-8,-8,-241,3,483
3,0,-3,-1,3,-2,-8,-8,-8,-240,3,471
3,0,-3,-1,3,-1,-8,-8,-8,-239,3,463
3,1,-3,-2,3,-1,-9,-9,-8,-239,3,457
3,1,-3,-2,3,-1,-10,-10,-8,-238,3,453
3,1,-3,-2,3,-1,-10,-10,-8,-237,3,451
3,1,-2,-2,3,-1,-9,-9,-8,-236,3,448
3,1,-2,-2,2,0,-10,-10,-9,-235,3,446
3,1,-2,-1,2,-1,-10,-11,-9,-234,3,444
2,0,-2,-1,2,-1,-9,-10,-8,-234,3,442
2,0,-2,-1,2,-1,-9,-10,-8,-233,3,440
2,1,-1,-1,1,0,-9,-10,-8,-232,3,438
2,0,-2,-1,1,0,-9,-11,-8,-231,3,436
1,0,-2,0,1,0,-9,-11,-7,-230,3,434
1,0,-2,0,1,-1,-8,-10,-6,-229,3,432
1,0,-1,-1,1,0,-8,-10,-7,-229,3,430
1,1,0,-1,1,0,-9,-12,-7,-228,3,429
0,0,-1,0,1,0,-9,-12,-7,-227,3,427
0,0,-1,0,1,0,-8,-11,-6,-226,3,425
0,0,-1,0,1,0,-7,-10,-6,-225,3,423
0,0,-1,1,0,-1,-7,-10,-5,-224,3,422
0,-2,-2,1,0,-2,-7,-10,-3,-224,3,420
0,-2,-2,1,0,-2,-5,-8,0,-223,3,418
0,-1,-1,0,0,-1,-3,-6,1,-222,3,417
0,-1,0,0,0,0,-3,-4,4,-221,3,415
-1,-1,0,1,0,0,-1,-2,9,-220,3,413
-2,0,2,1,-2,1,0,0,15,-220,3,411
-1,3,5,0,-3,4,1,3,19,-219,3,410
0,7,6,-3,-2,7,0,4,24,-218,3,408
4,10,6,-7,-1,8,0,5,28,-217,3,406
7,12,4,-10,1,7,-1,6,30,-217,3,405
12,15,4,-14,4,8,-2,6,28,-216,3,403
17,21,5,-20,6,12,-7,1,21,-215,3,402
23,28,5,-26,9,16,-15,-7,12,-214,3,400
30,36,6,-33,12,21,-25,-17,0,-214,3,398
37,46,8,-42,14,27,-36,-30,-17,-213,3,397
45,56,10,-51,17,33,-48,-45,-35,-212,3,395
52,64,12,-58,19,38,-59,-59,-53,-211,3,393
56,70,14,-63,20,43,-68,-72,-69,-210,3,392
58,75,18,-67,20,47,-76,-83,-85,-210,3,390
59,77,18,-68,20,48,-81,-91,-99,-209,3,388
59,71,12,-65,24,41,-82,-94,-108,-208,3,387
57,56,-1,-56,29,27,-78,-91,-110,-207,3,385
52,38,-14,-45,33,11,-70,-85,-111,-207,3,384
46,23,-22,-34,34,0,-63,-78,-110,-206,3,382
39,13,-26,-26,32,-7,-56,-72,-110,-205,3,381
32,6,-26,-19,29,-10,-51,-68,-109,-205,3,379
25,2,-23,-13,24,-11,-46,-64,-107,-204,3,378
17,-1,-18,-7,18,-10,-41,-60,-104,-203,3,376
11,-4,-15,-3,14,-10,-39,-58,-101,-203,3,375
8,-7,-16,0,13,-12,-37,-56,-97,-202,3,373
7,-9,-17,1,12,-13,-34,-53,-91,-201,3,372
6,-10,-17,2,12,-14,-32,-49,-84,-200,3,370
5,-11,-17,3,11,-15,-31,-47,-77,-200,3,369
5,-11,-17,3,11,-14,-29,-45,-69,-199,3,367
5,-10,-15,2,10,-13,-27,-42,-60,-125,3,366
5,-9,-14,2,9,-12,-24,-39,-53,-219,3,364
5,-8,-12,2,8,-10,-23,-36,-46,-664,3,363
5,-7,-12,1,8,-10,-22,-34,-40,-1117,3,361
5,-7,-12,1,8,-10,-20,-30,-34,-979,3,359
5,-6,-11,1,8,-9,-18,-27,-29,-343,3,358
6,-4,-10,-1,7,-7,-17,-26,-26,-106,3,356
7,-2,-9,-2,8,-6,-17,-24,-23,-524,3,355
8,-2,-10,-2,9,-6,-16,-22,-19,-598,3,353
8,-1,-9,-3,9,-6,-14,-20,-17,-201,3,352
8,0,-8,-4,8,-4,-13,-19,-15,-27,3,350
9,1,-7,-5,8,-3,-14,-19,-14,90,3,349
8,1,-7,-4,7,-3,-14,-18,-13,29,3,347
7,0,-6,-4,6,-3,-13,-17,-12,49,3,346
7,1,-6,-4,6,-3,-13,-17,-12,61,3,344
7,1,-6,-4,6,-3,-13,-18,-12,181,3,343
6,0,-6,-3,6,-4,-14,-18,-12,305,3,341
6,0,-6,-2,6,-4,-13,-17,-12,185,3,340
7,1,-6,-3,6,-3,-12,-16,-11,158,3,339
9,1,-6,-4,7,-2,-12,-16,-11,104,3,337
9,1,-6,-4,7,-3,-13,-16,-11,58,3,336
8,1,-6,-4,7,-3,-13,-16,-10,341,3,335
8,1,-6,-4,7,-2,-12,-15,-10,399,3,333
8,1,-7,-5,7,-3,-12,-15,-10,183,3,332
8,1,-7,-4,7,-3,-13,-16,-10,31,3,330
7,1,-6,-4,7,-3,-12,-16,-10,-101,3,329
8,1,-6,-4,7,-3,-12,-15,-10,-63,3,328
8,1,-7,-4,7,-3,-12,-15,-10,-101,3,326
8,0,-7,-4,7,-3,-12,-16,-10,-101,3,325
7,0,-6,-3,6,-3,-12,-16,-10,293,3,324
6,1,-5,-4,5,-2,-11,-15,-10,423,3,322
7,2,-5,-4,5,-1,-12,-16,-10,3,3,321
7,2,-5,-4,5,-2,-13,-17,-11,223,3,319
7,1,-5,-4,6,-2,-12,-17,-10,459,3,318
7,2,-5,-4,6,-2,-11,-16,-10,205,3,317
7,2,-4,-5,5,-1,-11,-16,-11,-5,3,316
7,2,-4,-4,5,-1,-12,-17,-11,-118,3,315
6,1,-5,-3,5,-2,-12,-16,-10,-320,3,313
6,0,-6,-3,5,-2,-11,-15,-9,-378,3,312
6,1,-6,-3,5,-2,-11,-15,-10,-413,3,310
6,1,-6,-4,6,-3,-12,-16,-11,-446,3,309
6,1,-6,-3,6,-3,-13,-17,-11,-471,3,308
6,0,-6,-3,6,-3,-12,-16,-10,-545,3,307
6,1,-6,-3,6,-3,-12,-16,-10,-479,3,305
7,1,-5,-4,6,-2,-12,-16,-11,-477,3,304
7,1,-6,-4,6,-2,-13,-16,-10,-557,3,303
6,0,-6,-3,6,-2,-12,-15,-9,-430,3,301
6,0,-6,-3,6,-2,-11,-14,-10,-404,3,300
7,0,-6,-4,6,-2,-11,-15,-11,-518,3,299
8,0,-7,-4,7,-3,-11,-16,-11,-618,3,298
7,-1,-7,-3,7,-4,-10,-15,-10,-722,3,297
7,-1,-6,-2,6,-3,-10,-15,-10,-650,3,295
7,0,-6,-3,6,-2,-10,-15,-10,-667,3,294
7,0,-6,-3,6,-3,-11,-16,-11,-656,3,293
6,-1,-7,-2,6,-4,-10,-16,-10,-256,3,292
5,-1,-6,-2,5,-3,-9,-15,-11,-121,3,291
5,0,-5,-3,5,-2,-9,-16,-12,-538,3,289
5,1,-4,-3,5,-2,-10,-16,-12,-316,3,288
5,0,-4,-2,5,-2,-9,-16,-12,-78,3,287
4,0,-4,-2,4,-2,-8,-16,-11,-333,3,286
4,0,-4,-2,4,-2,-8,-16,-11,-623,3,285
5,0,-5,-2,5,-3,-9,-16,-11,-829,3,283
5,-1,-6,-1,5,-4,-8,-16,-10,-998,3,282
4,-2,-7,-1,5,-5,-7,-15,-10,-802,3,281
4,-2,-6,-1,5,-5,-7,-15,-11,-151,3,280
4,-2,-6,-1,5,-4,-7,-15,-11,274,3,279
4,-2,-5,-1,4,-4,-8,-16,-11,-132,3,278
3,-2,-5,0,4,-4,-7,-15,-11,-336,3,277
3,-2,-5,0,4,-4,-7,-15,-11,-231,3,275
4,-1,-5,-1,4,-4,-8,-15,-11,21,3,274
3,-1,-5,0,4,-4,-8,-16,-12,363,3,273
2,-2,-4,0,3,-3,-8,-16,-11,232,3,272
2,-1,-4,0,2,-3,-7,-15,-12,-190,3,271
2,-1,-4,0,3,-3,-8,-16,-12,-687,3,270
2,-2,-5,0,3,-3,-8,-16,-12,-303,3,268
2,-2,-5,0,4,-4,-8,-16,-11,484,3,267
2,-2,-5,0,3,-3,-8,-16,-11,783,3,266
2,-2,-4,0,3,-3,-9,-17,-11,634,3,265
2,-2,-5,1,3,-4,-9,-18,-12,342,3,264
2,-3,-5,1,3,-4,-9,-17,-12,360,3,263
2,-2,-4,0,2,-3,-8,-16,-12,144,3,262
2,-2,-4,0,2,-3,-8,-16,-12,-474,3,261
2,-2,-4,0,3,-3,-9,-17,-12,-303,3,260
2,-3,-5,0,4,-4,-9,-16,-11,-95,3,259
2,-3,-5,0,4,-4,-8,-16,-11,-481,3,257
2,-3,-5,1,3,-4,-8,-16,-11,-915,3,256
1,-4,-4,1,2,-4,-9,-17,-12,-1289,3,255
0,-4,-4,2,2,-4,-9,-18,-12,-1011,3,254
0,-4,-4,2,2,-4,-9,-17,-12,-900,3,253
1,-3,-4,1,2,-4,-9,-17,-12,-703,3,252
1,-4,-5,2,3,-4,-9,-17,-12,-383,3,251
1,-5,-6,2,3,-5,-10,-18,-11,-90,3,250
1,-5,-6,2,3,-5,-9,-17,-10,-40,3,249
1,-4,-5,1,3,-4,-9,-17,-11,-25,3,248
1,-3,-4,1,2,-3,-11,-18,-12,699,3,247
1,-3,-5,1,2,-4,-11,-19,-12,915,3,246
1,-4,-5,2,3,-5,-10,-18,-12,1060,3,245
1,-4,-5,2,2,-4,-10,-17,-12,1178,3,244
1,-3,-4,2,2,-4,-10,-17,-12,521,3,243
1,-4,-5,2,2,-5,-11,-18,-12,241,3,242
1,-4,-5,2,3,-5,-10,-17,-10,26,3,241
1,-3,-4,1,2,-4,-10,-17,-10,-66,3,240
1,-2,-3,0,2,-3,-11,-18,-10,565,3,239
1,-2,-3,0,3,-3,-12,-19,-11,892,3,238
1,-2,-3,0,3,-3,-12,-18,-11,577,3,237
1,-1,-2,0,2,-3,-11,-17,-11,282,3,236
1,-1,-2,0,2,-2,-12,-18,-12,556,3,235
1,-1,-3,0,2,-3,-12,-18,-12,512,3,234
2,-2,-4,0,3,-4,-12,-18,-11,-163,3,233
2,-2,-4,0,3,-3,-12,-18,-10,-168,3,232
2,-1,-3,-1,2,-2,-13,-18,-11,519,3,231
2,-1,-4,0,3,-3,-14,-19,-11,865,3,230
3,-3,-5,0,4,-4,-14,-19,-11,778,3,229
3,-2,-5,-1,4,-4,-14,-19,-12,709,3,228
4,0,-4,-2,4,-2,-14,-19,-12,842,3,227
4,0,-5,-2,4,-3,-15,-20,-13,361,3,226
5,-1,-6,-2,5,-4,-15,-20,-12,217,3,225
5,0,-6,-2,5,-3,-15,-19,-10,-14,3,224
6,1,-6,-3,5,-2,-16,-19,-11,-166,3,223
7,1,-6,-4,6,-2,-17,-20,-11,457,3,222
7,1,-7,-4,6,-2,-17,-20,-12,518,3,221
7,0,-7,-4,6,-3,-17,-20,-12,254,3,220
7,1,-7,-4,6,-2,-17,-20,-12,97,3,219
8,2,-6,-5,6,-2,-18,-21,-12,5,3,218
8,2,-7,-5,7,-2,-19,-22,-13,-50,3,217
8,1,-7,-5,7,-3,-19,-21,-13,-83,3,216
8,2,-5,-6,6,-1,-19,-20,-14,-102,3,215
9,4,-5,-7,6,0,-20,-21,-14,-113,3,214
10,3,-6,-7,8,-1,-21,-22,-13,-119,3,213
11,3,-8,-7,9,-2,-20,-22,-12,-122,3,212
12,5,-7,-8,9,-1,-20,-22,-12,-124,3,212
13,7,-6,-10,9,0,-21,-23,-13,-125,3,211
14,7,-7,-10,10,0,-22,-23,-14,-125,3,210
14,6,-8,-10,11,-1,-22,-23,-15,-125,3,209
14,5,-9,-10,11,-2,-22,-22,-16,-125,3,208
14,6,-8,-10,10,-1,-22,-22,-17,-124,3,207
14,6,-9,-10,11,-1,-23,-23,-17,-124,3,206
14,5,-10,-10,11,-1,-23,-23,-16,-123,3,205
15,6,-10,-10,12,-1,-23,-23,-15,-123,3,204
15,7,-9,-11,12,-1,-24,-23,-16,-122,3,204
16,7,-9,-11,13,-1,-25,-25,-17,-122,3,203
16,7,-10,-11,13,-2,-24,-25,-17,-121,3,202
16,6,-10,-11,13,-2,-24,-24,-18,-121,3,201
17,7,-9,-11,13,-1,-24,-24,-19,-120,3,200
17,7,-9,-11,13,-1,-25,-25,-19,-120,3,199
17,6,-10,-11,13,-2,-25,-26,-18,-119,3,198
17,7,-10,-12,13,-2,-25,-26,-18,-119,3,197
17,8,-9,-12,13,-1,-25,-26,-18,-118,3,196
16,9,-9,-12,13,0,-25,-26,-19,-118,3,196
16,8,-10,-12,13,-1,-25,-26,-20,-117,3,195
16,6,-11,-11,13,-3,-24,-25,-19,-117,3,194
16,5,-11,-10,13,-4,-23,-24,-19,-116,3,193
15,5,-10,-10,12,-3,-23,-25,-20,-116,3,192
15,6,-9,-10,11,-2,-24,-26,-20,-115,3,192
14,5,-8,-9,10,-1,-24,-26,-19,-115,3,191
13,6,-7,-9,9,0,-24,-25,-20,-114,3,190
12,7,-5,-10,9,0,-24,-25,-21,-114,3,189
12,6,-6,-9,9,0,-23,-25,-22,-113,3,188
11,4,-7,-7,9,-2,-22,-24,-22,-113,3,187
10,2,-8,-6,9,-3,-20,-23,-22,-112,3,187
10,1,-8,-5,8,-3,-20,-22,-23,-112,3,186
10,2,-8,-5,8,-3,-20,-23,-23,-111,3,185
9,2,-8,-5,7,-3,-19,-23,-23,-111,3,184
8,2,-6,-4,6,-2,-18,-22,-23,-110,3,184
7,2,-5,-4,5,-2,-18,-22,-24,-110,3,183
6,2,-5,-3,5,-2,-18,-22,-26,-109,3,182
5,0,-6,-2,5,-4,-18,-22,-26,-109,3,181
4,-2,-6,0,5,-4,-16,-20,-27,-108,3,181
3,-2,-5,0,3,-4,-16,-20,-27,-108,3,180
2,-3,-5,0,2,-4,-16,-20,-28,-107,3,179
1,-4,-6,1,3,-5,-15,-20,-27,-107,3,178
1,-5,-7,2,3,-6,-14,-19,-26,-106,3,177
0,-5,-6,3,3,-6,-13,-18,-26,-106,3,177
0,-6,-6,3,3,-6,-13,-18,-27,-105,3,176
0,-8,-7,4,3,-8,-13,-18,-27,-105,3,175
-1,-9,-7,5,2,-9,-12,-17,-27,-104,3,174
-2,-9,-6,6,1,-8,-11,-16,-27,-104,3,173
-3,-9,-5,6,0,-7,-12,-17,-27,-103,3,173
-3,-9,-6,6,0,-8,-12,-17,-26,-103,3,172
-3,-10,-6,6,1,-8,-12,-17,-26,-102,3,171
-3,-9,-5,6,0,-8,-11,-16,-26,-102,3,170
-4,-9,-5,6,0,-7,-11,-16,-26,-101,3,170
-4,-9,-5,7,0,-8,-12,-17,-26,-101,3,169
-4,-11,-6,8,0,-9,-11,-16,-26,-100,3,168
-5,-12,-7,9,0,-10,-9,-14,-25,-100,3,167
-5,-12,-7,9,0,-10,-9,-14,-25,-99,3,167
-5,-12,-7,9,0,-10,-10,-15,-25,-99,3,166
-5,-12,-7,9,0,-9,-10,-15,-25,-98,3,165
-6,-13,-7,10,0,-9,-9,-14,-24,-98,3,165
-7,-13,-7,10,0,-9,-8,-13,-24,-97,3,164
-7,-13,-7,10,0,-10,-9,-14,-25,-97,3,163
-6,-14,-8,10,0,-11,-9,-13,-24,-96,3,163
-6,-14,-8,10,0,-11,-8,-12,-24,-96,3,162
-7,-14,-7,10,0,-11,-8,-12,-24,-96,3,161
-7,-14,-6,10,-1,-11,-8,-12,-24,-95,3,160
-7,-15,-8,11,0,-12,-8,-12,-23,-95,3,160
-6,-15,-9,11,1,-12,-7,-11,-22,-94,3,159
-6,-14,-8,10,1,-11,-6,-11,-22,-94,3,158
-5,-13,-8,9,1,-11,-6,-11,-23,-93,3,158
-5,-15,-9,10,1,-12,-6,-11,-22,-93,3,157
-5,-15,-9,11,1,-13,-5,-10,-22,-92,3,156
-6,-14,-8,10,0,-11,-5,-9,-23,-92,3,155
-6,-13,-7,10,0,-10,-6,-9,-24,-91,3,155
-6,-14,-7,10,0,-11,-6,-9,-24,-91,3,154
-6,-14,-8,10,0,-11,-5,-8,-23,-91,3,153
-6,-14,-7,10,0,-11,-4,-7,-23,-90,3,153
-6,-13,-7,10,0,-10,-5,-7,-23,-90,3,152
-6,-13,-8,10,0,-11,-5,-7,-23,-89,3,151
-7,-15,-9,11,0,-12,-4,-6,-23,-89,3,151
-7,-16,-9,12,0,-12,-3,-5,-25,-88,3,150
-7,-15,-8,11,0,-12,-3,-5,-29,-88,3,149
-6,-15,-8,11,0,-12,-4,-5,-31,-88,3,149
-6,-15,-9,11,0,-12,-3,-5,-31,-87,3,148
-7,-15,-8,11,0,-11,-3,-5,-32,-87,3,147
-8,-14,-7,11,0,-11,-3,-5,-33,-86,3,147
-7,-14,-8,11,0,-11,-3,-5,-33,-86,3,146
-7,-15,-8,11,0,-12,-3,-5,-32,-85,3,145
-7,-15,-8,11,0,-12,-2,-4,-32,-85,3,145
-6,-14,-7,10,0,-11,-2,-3,-33,-85,3,144
-6,-13,-7,10,0,-10,-2,-3,-34,-84,3,143
-6,-14,-8,10,1,-11,-2,-3,-33,-84,3,143
-6,-15,-8,10,1,-12,0,-2,-33,-83,3,142
-6,-14,-8,10,1,-11,0,-1,-32,-83,3,141
-6,-14,-8,10,1,-11,0,-1,-33,-82,3,141
-6,-14,-8,10,1,-11,-1,-1,-33,-82,3,140
-6,-15,-9,11,0,-12,0,0,-32,-82,3,140
-7,-15,-8,11,0,-12,1,1,-33,-81,3,139
-7,-16,-8,11,0,-12,1,2,-35,-81,3,138
-7,-17,-9,12,0,-13,1,2,-35,-81,3,138
-7,-17,-10,12,1,-14,2,4,-34,-80,3,137
-7,-16,-9,12,1,-13,3,5,-34,-80,3,136
-6,-15,-9,11,1,-12,3,5,-35,-79,3,136
-6,-14,-8,10,1,-11,2,5,-34,-79,3,135
-6,-14,-8,10,1,-11,3,6,-32,-78,3,135
-6,-14,-8,10,0,-10,4,8,-31,-78,3,134
-6,-13,-7,10,0,-10,4,9,-31,-78,3,134
-6,-12,-6,9,0,-9,3,9,-32,-77,3,133
-6,-12,-6,9,0,-9,3,9,-33,-77,3,132
-6,-13,-6,9,0,-10,4,11,-34,-77,3,132
-6,-13,-7,9,0,-10,4,11,-34,-76,3,131
-5,-12,-8,8,1,-10,4,11,-33,-75,3,130
-4,-13,-8,8,2,-10,4,11,-30,-110,3,130
-5,-13,-8,9,1,-10,5,12,-28,-196,3,129
-6,-13,-7,9,0,-10,5,13,-27,-16,3,129
-5,-13,-7,9,0,-10,5,13,-28,468,3,128
-5,-14,-9,9,1,-12,5,13,-29,576,3,127
-5,-14,-9,9,1,-11,5,14,-29,74,3,127
-5,-12,-7,9,0,-9,5,14,-30,170,3,126
-5,-10,-5,8,0,-8,4,13,-30,730,3,126
-5,-10,-5,7,0,-7,4,13,-28,779,3,125
-5,-9,-4,7,0,-7,5,13,-25,582,3,125
-5,-8,-4,6,0,-6,5,15,-24,260,3,124
-5,-8,-3,6,-1,-6,5,15,-25,-138,3,123
-5,-9,-4,7,0,-7,4,15,-27,-566,3,123
-5,-10,-5,7,0,-8,5,16,-27,-978,3,122
-5,-10,-5,7,0,-7,6,18,-27,-1364,3,122
-4,-8,-4,6,0,-6,6,18,-27,-891,3,121
-4,-7,-5,5,0,-6,5,18,-26,125,3,121
-4,-9,-6,6,1,-7,6,19,-23,668,3,120
-4,-10,-6,6,0,-8,6,20,-21,936,3,120
-4,-9,-5,6,0,-7,6,21,-21,1033,3,119
-4,-8,-4,6,0,-6,5,21,-22,1057,3,118
-4,-8,-4,5,0,-6,6,22,-22,757,3,118
-4,-6,-3,5,-1,-4,8,24,-22,606,3,117
-4,-5,-2,4,-1,-3,9,25,-22,999,3,117
-4,-5,-2,4,-1,-3,8,25,-21,1142,3,116
-4,-6,-2,5,-1,-4,8,26,-18,1142,3,116
-5,-7,-3,6,-1,-5,10,28,-15,747,3,115
-4,-6,-3,5,-1,-5,10,30,-15,434,3,114
-3,-6,-3,4,0,-5,10,30,-16,803,3,114
-3,-7,-4,5,0,-6,11,31,-17,1192,3,113
-4,-9,-5,6,0,-7,12,33,-17,710,3,113
-5,-8,-4,6,0,-6,13,34,-18,-329,3,112
-4,-7,-3,5,0,-5,13,34,-18,-871,3,112
-4,-7,-3,5,0,-5,13,35,-17,-1103,3,111
-4,-7,-4,5,0,-6,14,37,-14,-1141,3,111
-4,-7,-3,5,0,-5,14,38,-13,-1083,3,110
-4,-6,-3,5,-1,-5,13,39,-14,-1007,3,110
-4,-7,-4,5,0,-5,13,39,-15,-935,3,109
-4,-8,-5,6,0,-7,14,40,-15,-859,3,109
-4,-8,-5,6,0,-7,15,41,-16,-788,3,108
-4,-7,-4,5,0,-6,15,41,-16,-733,3,108
-3,-6,-4,5,0,-5,15,41,-15,-672,3,107
-3,-6,-4,4,0,-4,15,41,-12,-583,3,107
-3,-6,-3,4,0,-4,16,43,-10,-481,3,106
-3,-6,-3,4,0,-4,16,44,-10,-406,3,106
-3,-6,-4,4,0,-5,15,44,-11,-363,3,105
-4,-7,-4,5,0,-6,16,44,-10,-333,3,105
-4,-7,-4,5,0,-5,17,45,-10,-311,3,104
-5,-7,-3,6,-1,-5,17,46,-9,-304,3,104
-5,-7,-3,6,-1,-5,17,45,-8,-298,3,103
-4,-7,-3,5,0,-5,17,45,-5,-264,3,102
-4,-7,-3,5,0,-5,18,46,-2,-202,3,102
-4,-6,-3,5,-1,-4,18,47,-1,-152,3,101
-4,-7,-3,5,-1,-5,18,46,-1,-134,3,101
-5,-8,-4,6,-1,-6,18,46,0,-132,3,100
-5,-8,-3,6,-1,-6,19,47,1,-132,3,100
-4,-6,-2,5,-1,-4,20,48,1,-142,3,99
-4,-4,-1,4,-1,-2,20,48,2,-159,3,99
-3,-4,-2,4,0,-3,20,48,4,-154,3,98
-3,-5,-2,4,0,-4,21,49,9,-143,3,98
-3,-5,-2,4,0,-4,22,50,11,-49,3,97
-2,-4,-2,3,0,-3,22,50,12,170,3,97
-2,-4,-2,2,0,-3,23,50,14,172,3,96
-3,-5,-3,3,0,-4,24,51,16,-221,3,96
-4,-5,-2,4,0,-3,25,53,18,-614,3,95
-4,-4,-1,4,-1,-3,24,53,18,-473,3,95
-3,-5,-2,4,0,-4,21,54,20,-395,3,94
-3,-6,-3,5,0,-5,19,55,23,-653,3,94
-3,-6,-2,5,-1,-4,17,57,24,-438,3,93
-3,-4,-1,3,-1,-2,14,58,22,-246,3,93
-3,-3,-1,2,-1,-2,12,58,20,-368,3,92
-2,-3,-1,2,0,-2,11,60,19,-404,3,92
-2,-2,-1,1,0,-2,11,62,19,-468,3,91
-2,-1,0,1,0,-1,11,63,19,-334,3,91
-1,-2,-1,2,0,-2,11,64,19,-342,3,90
-1,-4,-3,3,0,-4,11,65,22,-438,3,90
-2,-5,-3,4,0,-4,12,66,25,-590,3,89
-2,-5,-2,3,0,-3,13,67,26,-648,3,89
-2,-3,-1,2,0,-2,12,67,26,-473,3,88
-3,-3,-1,2,0,-2,12,68,27,-460,3,88
-3,-4,-1,3,0,-2,12,69,28,-457,3,88
-3,-3,0,3,-1,-2,12,71,28,-375,3,87
-3,-3,0,3,-1,-2,12,72,28,-525,3,87
-2,-4,0,3,-1,-2,12,73,30,-654,3,86
-3,-5,-1,4,-1,-3,13,74,33,-432,3,86
-3,-4,0,4,-1,-3,14,76,34,-404,3,85
-3,-4,0,3,-1,-2,14,77,34,-152,3,85
-2,-4,-1,3,0,-3,14,78,35,54,3,84
-3,-4,-2,3,0,-4,15,80,40,-121,3,84
-3,-4,-1,3,-1,-3,16,82,43,-249,3,83
-2,-3,0,2,-1,-2,16,82,44,-31,3,83
-2,-2,0,2,0,-2,16,83,46,93,3,83
-1,-3,-1,2,0,-2,18,84,51,-36,3,82
-1,-2,0,2,0,-2,19,86,53,-72,3,82
-1,-1,0,1,0,-1,19,87,52,-440,3,81
-1,-1,1,1,0,0,19,86,51,-267,3,81
-2,-1,0,1,0,-1,19,86,50,528,3,80
-2,-2,0,2,-1,-1,20,87,49,274,3,80
-2,-1,1,2,-1,0,20,87,49,-565,3,80
-2,-1,1,2,-1,0,19,86,48,-934,3,79
-2,-1,0,2,-1,-1,19,86,49,-1077,3,79
-2,-2,0,2,-1,-1,21,87,50,-1176,3,78
-2,-2,0,2,-1,-1,21,88,50,-1302,3,78
-2,-2,0,2,0,-2,21,87,51,-1425,3,77
-2,-3,-1,2,0,-2,21,88,52,-1496,3,77
-2,-3,-1,3,0,-3,22,89,52,-1509,3,77
-2,-3,0,3,-1,-2,22,89,50,-1475,3,76
-2,-3,0,2,-1,-2,22,89,47,-1398,3,76
-2,-3,-2,3,0,-3,23,90,44,-1292,3,75
-2,-4,-2,3,0,-3,25,91,42,-1203,3,75
-2,-3,-1,3,-1,-3,27,92,40,-1165,3,75
-2,-3,-1,3,-1,-3,27,93,39,-1165,3,74
-2,-5,-3,3,0,-4,27,93,39,-1170,3,74
-2,-6,-4,4,0,-6,28,95,38,-1156,3,73
-3,-7,-4,5,0,-6,29,96,35,-1123,3,73
-2,-6,-4,5,1,-5,29,97,30,-1068,3,73
-2,-7,-5,5,1,-6,29,98,24,-993,3,72
-2,-8,-6,5,1,-6,30,99,20,-919,3,72
-3,-8,-5,5,1,-6,32,101,16,-874,3,71
-3,-7,-4,5,0,-5,32,102,13,-526,3,71
-2,-6,-4,4,0,-5,31,102,9,-532,3,71
-2,-6,-3,4,0,-5,31,104,6,-813,3,70
-3,-7,-3,5,0,-5,32,106,3,-486,3,70
-3,-7,-3,5,0,-5,33,107,-2,144,3,69
-2,-6,-3,5,0,-5,32,108,-8,70,3,69
-2,-6,-4,5,0,-5,32,108,-13,-473,3,68
-2,-5,-3,4,0,-4,33,110,-17,-519,3,68
-2,-3,-1,2,0,-2,33,111,-21,-316,3,67
-1,-2,-1,2,0,-2,32,111,-23,3,3,67
-1,-3,-2,2,0,-3,32,112,-25,377,3,67
-1,-4,-2,3,0,-4,33,114,-27,772,3,67
-1,-4,-2,3,0,-3,33,116,-30,1164,3,66
-1,-4,-2,3,0,-3,33,115,-35,703,3,66
-2,-4,-2,3,0,-3,32,115,-39,-283,3,65
-2,-4,-2,3,-1,-3,33,115,-41,-773,3,65
-2,-3,-1,2,-1,-2,34,116,-41,-991,3,65
-2,-3,-1,2,-1,-2,33,115,-40,-1055,3,64
-2,-4,-2,3,0,-3,33,115,-38,-1027,3,64
-2,-5,-3,3,0,-4,34,116,-36,-948,3,63
-1,-5,-3,3,0,-4,35,117,-36,-845,3,63
0,-4,-4,2,1,-4,35,116,-38,-733,3,63
1,-5,-5,2,2,-5,36,116,-40,-621,3,62
1,-6,-6,3,3,-6,37,116,-41,-523,3,62
0,-7,-6,3,3,-6,38,117,-42,-445,3,62
0,-7,-6,3,3,-6,38,117,-42,-382,3,61
1,-7,-7,2,4,-7,37,116,-41,-323,3,61
2,-7,-8,2,5,-7,37,116,-39,-265,3,60
2,-6,-8,2,4,-7,37,117,-38,-208,3,60
3,-5,-7,1,4,-6,37,117,-38,-155,3,60
3,-5,-8,1,4,-7,36,116,-39,-107,3,59
3,-6,-9,1,5,-7,37,116,-39,-68,3,59
3,-6,-9,1,6,-8,38,116,-39,-41,3,59
3,-6,-9,1,6,-8,39,117,-39,-21,3,58
4,-5,-8,0,6,-7,39,116,-38,0,3,58
4,-5,-8,1,6,-7,39,116,-36,22,3,57
3,-5,-8,1,5,-7,40,116,-33,46,3,57
3,-3,-7,1,5,-6,40,117,-31,69,3,57
4,-3,-6,0,5,-5,39,116,-31,89,3,56
3,-4,-7,1,5,-6,39,116,-31,106,3,56
1,-5,-7,2,5,-6,40,116,-31,113,3,55
1,-5,-6,1,4,-5,40,114,-31,114,3,55
1,-3,-5,0,4,-4,40,111,-31,117,3,55
2,-3,-6,0,4,-5,39,108,-30,123,3,55
2,-3,-6,0,4,-5,39,107,-28,131,3,54
2,-3,-5,0,3,-4,39,106,-28,140,3,54
3,-3,-5,0,3,-4,38,105,-29,149,3,53
3,-4,-6,0,4,-5,37,103,-29,156,3,53
2,-5,-7,1,4,-6,37,102,-29,155,3,53
2,-5,-7,1,4,-6,37,102,-30,147,3,52
3,-4,-6,0,4,-5,36,100,-31,138,3,52
3,-3,-5,0,4,-5,35,98,-32,132,3,52
2,-4,-5,1,3,-5,35,96,-32,128,3,52
2,-3,-5,1,3,-5,35,96,-32,125,3,51
1,-2,-3,1,2,-4,34,95,-33,122,3,51
1,-2,-3,0,1,-3,33,93,-34,120,3,50
1,-4,-5,1,2,-5,32,91,-34,115,3,50
1,-5,-6,2,3,-5,33,92,-34,107,3,49
1,-4,-5,1,3,-5,33,92,-33,98,3,49
1,-4,-5,1,3,-5,32,91,-33,91,3,49
2,-4,-5,1,3,-5,32,90,-31,88,3,49
2,-4,-6,1,3,-5,32,90,-30,86,3,48
1,-3,-5,1,2,-5,33,89,-29,85,3,48
1,-2,-4,0,2,-3,33,88,-28,84,3,48
0,-3,-3,1,1,-3,33,87,-28,81,3,47
-1,-4,-2,3,0,-3,34,88,-27,71,3,47
-3,-4,-1,4,-1,-2,34,88,-27,57,3,46
-3,-4,-1,4,-1,-2,34,87,-27,46,3,46
-3,-5,-2,4,0,-4,34,87,-26,41,3,46
-4,-7,-3,5,0,-5,34,87,-23,39,3,45
-4,-7,-3,5,-1,-5,34,87,-22,37,3,45
-3,-6,-2,4,-1,-4,34,86,-21,36,3,45
-2,-5,-2,4,-1,-3,33,84,-20,34,3,44
-2,-5,-2,4,-1,-3,33,83,-18,25,3,44
-3,-5,-2,5,-1,-3,33,83,-17,8,3,44
-3,-5,-1,5,-1,-2,33,82,-17,-10,3,43
-3,-5,-2,4,0,-3,31,81,-16,-21,3,43
-2,-5,-3,4,0,-4,31,80,-14,-28,3,43
-2,-4,-2,3,0,-4,32,80,-13,-34,3,42
-2,-3,-1,3,0,-2,31,79,-12,-37,3,42
-1,-4,-1,3,0,-3,30,78,-10,-38,3,42
-2,-5,-2,4,0,-4,30,77,-7,-50,3,41
-3,-6,-2,5,-1,-4,30,77,-5,-77,3,41
-4,-5,-1,5,-2,-3,30,76,-5,-109,3,41
-4,-4,0,4,-2,-2,28,74,-4,-131,3,40
-3,-4,-1,4,-2,-3,28,72,-3,-142,3,40
-4,-5,-1,4,-2,-3,29,71,-1,-149,3,40
-4,-4,0,4,-2,-3,29,70,0,-152,3,39
-3,-3,0,4,-3,-2,28,68,1,-145,3,39
-3,-3,0,3,-2,-1,28,67,5,-129,3,39
-3,-4,0,4,-2,-2,29,67,10,-124,3,38
-4,-4,0,4,-2,-2,29,67,12,-145,3,38
-4,-5,0,5,-2,-2,28,67,12,-175,3,38
-5,-6,-1,6,-2,-4,29,68,13,-196,3,38
-6,-7,-1,7,-3,-5,31,71,17,-207,3,37
-7,-5,1,7,-4,-3,33,73,21,-208,3,37
-6,-2,4,5,-5,0,33,74,26,-191,3,37
-5,0,5,3,-5,2,32,74,34,-155,3,36
-3,2,5,1,-4,3,32,75,43,-120,3,36
0,5,5,-2,-3,5,31,76,49,-115,3,36
5,10,5,-8,-1,8,27,73,47,-142,3,35
10,16,6,-13,1,11,21,67,39,-177,3,35
16,23,7,-20,3,15,15,58,26,-198,3,35
23,32,9,-27,6,20,6,46,8,-204,3,34
30,43,13,-36,8,27,-5,31,-13,-192,3,34
37,52,15,-44,10,33,-17,15,-32,-153,3,33
44,59,15,-51,14,38,-29,0,-42,-106,3,33
49,66,17,-57,16,42,-38,-14,-48,-89,3,33
52,72,19,-62,16,46,-48,-28,-57,-110,3,33
54,73,19,-63,16,46,-55,-39,-71,-151,3,32
54,67,14,-60,19,40,-58,-45,-85,-191,3,32
52,55,3,-53,23,28,-54,-43,-96,-215,3,32
49,40,-8,-44,28,15,-47,-38,-104,-217,3,31
44,25,-18,-33,30,3,-39,-32,-106,-183,3,31
37,12,-24,-24,29,-5,-32,-26,-101,-127,3,31
29,4,-24,-16,26,-10,-26,-21,-91,-89,3,31
21,0,-22,-11,22,-11,-21,-18,-81,-96,3,30
15,-4,-19,-6,17,-12,-18,-18,-75,-141,3,30
8,-8,-17,0,12,-13,-16,-18,-72,-199,3,30
3,-12,-15,4,9,-14,-13,-17,-70,-238,3,29
0,-14,-14,7,6,-14,-11,-17,-69,-248,3,29
-2,-15,-13,9,5,-14,-10,-17,-66,-231,3,28
-3,-16,-12,10,4,-14,-9,-17,-56,-192,3,28
-5,-17,-12,11,4,-14,-7,-17,-38,-149,3,28
-6,-17,-11,11,3,-14,-6,-16,-20,-121,3,28
-6,-15,-9,10,2,-13,-6,-15,-8,-97,3,27
-5,-14,-9,10,2,-12,-5,-14,-2,-63,3,27
-5,-14,-8,9,1,-12,-4,-10,0,-30,3,27
-5,-12,-7,9,0,-10,-1,-7,-1,-5,3,27
-5,-11,-5,8,0,-8,0,-5,-4,14,3,26
-5,-9,-4,8,-1,-7,2,-4,-2,26,3,26
-5,-8,-3,7,-1,-6,3,-3,6,31,3,26
-5,-7,-2,6,-1,-5,5,-1,21,29,3,26
-4,-6,-1,5,-1,-4,6,0,33,30,3,25
-4,-5,-1,4,-1,-4,6,0,39,37,3,25
-4,-6,-1,5,-1,-5,6,1,40,39,3,24
-5,-7,-1,5,-2,-5,8,2,37,33,3,24
-5,-5,0,5,-2,-3,8,2,35,20,3,24
-5,-4,0,5,-2,-2,8,2,38,3,3,24
-5,-5,0,5,-2,-3,7,1,49,-8,3,23
-5,-5,0,5,-2,-3,8,1,62,-10,3,23
-6,-5,0,5,-2,-2,8,1,71,-8,3,22
-6,-5,1,5,-3,-2,7,1,75,-9,3,22
-6,-5,1,5,-4,-3,7,1,76,-13,3,22
-6,-6,1,6,-4,-3,8,2,74,-17,3,22
-6,-5,2,6,-5,-2,8,3,71,-18,3,21
-6,-4,2,6,-5,-1,8,3,67,-18,3,21
-6,-4,2,6,-5,0,7,3,68,-17,3,21
-7,-4,3,6,-5,0,8,3,72,-17,3,21
-7,-2,4,5,-5,0,8,4,74,-17,3,20
-5,-1,4,3,-4,1,7,3,72,-15,3,20
-5,-2,3,3,-4,0,6,2,70,-13,3,20
-5,-4,1,4,-3,-2,6,2,70,-15,3,19
-5,-5,0,5,-3,-3,7,3,70,-20,3,19
-6,-5,1,6,-4,-2,7,3,70,-27,3,19
-6,-5,1,6,-4,-1,6,2,70,-30,3,19
-6,-5,1,6,-3,-1,6,2,71,-27,3,18
-6,-5,1,5,-3,-1,6,3,71,-21,3,18
-5,-4,1,4,-3,-1,6,2,69,-16,3,18
-4,-4,1,4,-2,-2,6,1,68,-15,3,17
-4,-5,0,4,-2,-3,6,1,68,-20,3,17
-4,-5,0,4,-2,-3,6,1,69,-27,3,17
-4,-3,1,4,-3,-2,6,1,69,-36,3,17
-5,-2,2,4,-4,0,5,0,68,-42,3,16
-5,-3,2,4,-4,0,5,-1,67,-43,3,16
-5,-4,1,5,-3,-1,6,0,67,-41,3,16
-5,-3,1,4,-3,-1,7,-1,66,-41,3,15
-4,-3,0,3,-3,-1,6,-2,64,-41,3,15
-4,-3,0,3,-2,-2,6,-3,65,-39,3,15
-3,-4,-1,3,-1,-3,6,-3,67,-38,3,15
-3,-3,0,3,-2,-2,7,-3,68,-38,3,14
-3,-3,0,3,-2,-1,6,-3,67,-41,3,14
-3,-3,0,3,-1,-2,5,-5,66,-46,3,14
-3,-4,0,4,-1,-2,5,-5,65,-54,3,13
-4,-3,1,3,-2,-1,6,-5,64,-63,3,13
-4,-2,2,3,-3,0,6,-6,62,-69,3,13
-4,-2,1,3,-3,-1,5,-7,62,-71,3,12
-4,-4,0,4,-2,-3,6,-7,64,-71,3,12
-4,-4,0,4,-2,-3,7,-6,65,-72,3,12
-4,-4,0,4,-3,-1,7,-7,65,-73,3,12
-4,-4,0,4,-2,-1,7,-8,64,-76,3,11
-4,-5,0,4,-2,-2,7,-8,63,-79,3,11
-4,-4,0,4,-2,-1,7,-8,62,-83,3,11
-4,-3,1,3,-3,0,7,-9,60,-84,3,10
-4,-2,1,3,-2,0,5,-11,59,-80,3,10
-4,-3,0,3,-2,-1,5,-11,61,-76,3,10
-4,-3,0,3,-1,-2,6,-10,63,-72,3,9
-3,-3,0,3,-1,-1,6,-9,64,-69,3,9
-3,-3,0,3,-1,-1,6,-9,63,-70,3,9
-3,-4,0,3,-1,-2,5,-10,62,-73,3,9
-3,-4,0,3,-1,-2,5,-9,61,-77,3,8
-3,-2,0,2,-1,0,5,-9,59,-80,3,8
-2,-1,1,2,-1,0,5,-9,58,-80,3,8
-2,-2,0,2,-1,-1,5,-8,60,-76,3,8
-3,-3,0,3,-1,-2,7,-7,62,-74,3,7
-3,-2,0,3,-1,-1,8,-6,63,-74,3,7
-3,-2,1,2,-1,0,7,-6,62,-77,3,7
-2,-2,0,2,-1,0,7,-7,61,-81,3,7
-2,-2,0,2,0,0,7,-7,60,-87,3,6
-1,-1,0,1,0,0,8,-7,59,-92,3,6
-1,0,0,0,0,0,7,-7,58,-92,3,6
-1,0,0,0,0,0,6,-8,58,-89,3,5
-1,-1,0,1,0,0,6,-8,59,-87,3,5
-1,0,0,1,-1,0,7,-7,60,-86,3,5
-1,0,1,1,-1,0,7,-8,60,-86,3,4
-1,0,1,1,-1,0,6,-9,59,-87,3,4
-1,-1,0,1,0,0,6,-9,58,-90,3,4
-1,-1,0,1,-1,0,7,-9,58,-93,3,3
-1,0,0,0,-1,0,7,-8,57,-93,3,3
0,-1,0,1,0,0,6,-9,57,-90,3,3
0,-2,-1,1,0,-1,6,-9,58,-88,3,3
0,-2,-2,1,1,-2,7,-8,59,-87,3,2
0,-2,-1,1,1,-1,7,-8,59,-87,3,2
1,-1,-1,0,1,0,7,-8,59,-89,3,2
1,0,-1,0,1,0,7,-9,58,-93,3,1
0,0,-1,0,0,0,7,-8,58,-97,3,1
0,0,0,0,0,0,7,-8,56,-100,3,1
0,0,0,0,0,0,6,-9,55,-100,3,1
0,-1,-2,1,0,-2,6,-9,56,-98,3,0
0,-2,-3,1,1,-3,7,-8,57,-96,3,0
1,-1,-3,0,2,-2,7,-8,58,-96,3,0
1,0,-2,-1,2,-1,6,-8,57,-97,3,0
1,-1,-3,0,2,-2,6,-9,56,-100,3,0
1,-1,-3,0,2,-2,6,-9,56,-104,3,-1
2,0,-2,-1,2,-1,6,-8,55,-107,3,-1
2,2,-1,-2,2,0,5,-9,54,-107,3,-1
3,2,-2,-2,2,0,4,-9,54,-104,3,-1
3,1,-3,-2,3,-1,5,-8,55,-103,3,-2
3,2,-2,-2,2,0,6,-5,56,-102,3,-2
3,2,-1,-2,2,0,5,-3,56,-103,3,-2
3,2,0,-3,2,1,5,-3,56,-105,3,-3
3,2,-1,-3,2,1,5,-2,55,-108,3,-3
3,2,-1,-3,3,0,5,-1,55,-112,3,-3
4,2,-1,-3,3,0,5,0,54,-114,3,-3
4,2,-2,-3,3,0,4,-1,54,-113,3,-4
4,1,-2,-3,3,-1,3,-1,55,-111,3,-4
4,2,-2,-3,3,0,4,1,56,-111,3,-4
5,3,-1,-4,3,1,4,2,56,-111,3,-4
6,4,-1,-5,3,1,3,1,55,-111,3,-5
7,3,-2,-5,4,1,2,1,55,-114,4,-5
7,4,-2,-5,4,1,2,1,54,-117,4,-5
8,5,-2,-6,4,1,2,2,54,-121,4,-5
9,6,-2,-7,5,2,2,1,53,-124,4,-6
10,6,-3,-8,6,1,1,1,53,-126,4,-6
10,6,-4,-8,6,1,2,1,54,-125,4,-6
11,7,-4,-9,6,1,2,2,54,-123,4,-7
11,8,-3,-9,6,2,1,1,53,-119,4,-7
11,8,-4,-9,7,2,0,0,52,-113,4,-7
11,7,-4,-9,7,1,-1,0,51,-107,4,-8
12,8,-4,-10,7,2,-1,0,51,-105,4,-8
14,10,-3,-11,7,4,-1,0,50,-105,4,-8
14,11,-3,-12,8,4,-2,-1,50,-104,4,-8
14,10,-4,-12,8,3,-2,-2,50,-103,4,-9
14,9,-4,-11,8,3,-2,-2,50,-101,4,-9
14,10,-3,-12,8,3,-3,-2,49,-98,4,-9
15,10,-4,-13,9,3,-4,-3,48,-92,4,-9
16,11,-5,-13,10,3,-4,-4,48,-86,4,-10
17,12,-5,-14,10,3,-4,-4,47,-83,4,-10
17,13,-5,-15,10,4,-4,-4,46,-82,4,-10
17,13,-4,-15,10,4,-6,-5,46,-82,4,-10
18,12,-5,-15,11,3,-6,-5,46,-82,4,-11
19,12,-6,-15,12,3,-5,-4,47,-80,4,-11
20,13,-6,-16,12,3,-5,-4,46,-78,4,-12
20,14,-6,-17,13,4,-6,-5,45,-73,4,-12
20,15,-6,-17,13,4,-7,-6,44,-68,4,-12
20,15,-6,-17,13,4,-7,-6,44,-63,4,-12
20,15,-6,-17,12,4,-7,-6,43,-62,4,-13
21,15,-5,-17,12,5,-8,-7,41,-63,4,-13
21,16,-5,-18,12,5,-9,-8,40,-63,4,-13
21,16,-5,-18,12,5,-8,-8,40,-62,4,-14
20,16,-4,-19,12,6,-8,-7,40,-61,4,-14
20,17,-4,-19,11,6,-8,-8,39,-58,5,-14
20,16,-5,-18,12,5,-8,-8,39,-53,5,-14
20,14,-6,-17,13,4,-8,-7,39,-48,5,-15
19,13,-6,-17,13,3,-8,-7,39,-47,5,-15
19,14,-5,-17,12,4,-9,-8,37,-48,5,-15
19,14,-4,-16,11,5,-9,-9,36,-48,5,-16
19,14,-4,-16,11,5,-9,-9,36,-48,5,-16
18,14,-4,-15,10,5,-8,-8,36,-48,5,-16
17,14,-3,-15,9,5,-8,-9,35,-47,5,-16
16,13,-3,-14,9,5,-9,-10,34,-43,5,-17
15,12,-3,-13,9,4,-8,-10,34,-38,5,-17
15,12,-2,-13,8,4,-7,-9,34,-36,5,-17
14,12,-1,-13,7,5,-6,-8,34,-36,5,-17
13,11,-1,-12,7,5,-6,-9,33,-37,5,-18
12,9,-2,-10,6,4,-5,-9,33,-37,5,-18
11,8,-2,-9,6,3,-4,-8,33,-37,5,-19
10,9,-1,-9,5,3,-3,-7,33,-37,5,-19
9,9,0,-9,4,4,-4,-8,32,-36,5,-19
8,8,-1,-8,4,3,-4,-8,32,-33,5,-19
7,7,-1,-7,4,2,-3,-7,32,-31,5,-20
7,7,0,-7,3,3,-2,-7,31,-31,5,-20
7,7,0,-7,3,4,-3,-7,30,-32,5,-20
6,5,0,-6,3,3,-2,-7,30,-33,5,-21
5,4,0,-4,2,2,-1,-6,30,-33,5,-21
4,3,0,-3,2,2,0,-6,30,-33,5,-21
3,3,0,-3,1,2,0,-6,29,-32,5,-22
2,2,0,-3,1,1,0,-7,28,-29,5,-22
1,1,0,-1,0,0,0,-6,28,-26,5,-22
0,1,1,0,-1,1,1,-5,28,-26,5,-22
0,1,2,0,-1,1,1,-5,27,-26,5,49
0,0,1,0,-1,1,1,-6,27,-27,5,-79
0,0,0,0,0,0,2,-6,27,-27,5,-574
0,0,0,0,0,0,3,-5,27,-28,6,-657
0,1,1,0,-1,1,2,-6,26,-28,6,-451
-1,1,1,0,-1,1,1,-7,25,-26,6,-14
-2,0,1,2,-1,0,1,-7,25,-22,6,697
-2,-1,0,2,-1,0,2,-5,25,-20,6,376
-2,-1,0,2,-1,0,3,-4,25,-19,6,-415
-2,-2,0,2,-1,-1,3,-5,25,-19,6,-92
-3,-3,0,3,-1,-1,3,-5,25,-19,6,276
-3,-3,0,3,-2,-1,3,-5,25,-19,6,133
-3,-2,1,3,-2,0,3,-6,24,-19,6,34
-3,-2,1,2,-1,-1,2,-7,23,-18,6,-451
-3,-3,0,3,-1,-2,2,-7,23,-14,6,-669
-3,-4,-1,4,-1,-2,4,-6,23,-12,6,-194
-3,-3,0,4,-1,-2,5,-5,23,-11,6,390
-3,-3,0,3,-1,-1,4,-6,22,-11,6,765
-3,-3,0,3,-1,-2,4,-6,22,-10,6,802
-3,-4,-1,3,-1,-3,4,-6,23,-10,6,461
-3,-4,0,4,-2,-3,5,-5,23,-10,6,558
-4,-5,0,4,-2,-3,4,-6,21,-10,6,769
-4,-6,-1,5,-1,-4,4,-7,21,-8,6,112
-4,-6,-1,6,-1,-4,4,-7,21,-5,6,-310
-5,-6,0,6,-2,-4,5,-6,21,-4,6,135
-5,-6,0,6,-2,-3,4,-6,20,-4,6,144
-4,-6,-1,5,-2,-3,4,-6,20,-3,6,-188
-4,-6,-1,5,-1,-3,4,-6,21,-3,6,57
-4,-5,-1,4,-1,-3,5,-5,22,-3,6,588
-3,-4,0,4,-2,-2,4,-5,21,-4,6,398
-3,-4,0,4,-2,-1,4,-6,21,-2,6,-245
-4,-4,0,4,-2,-2,4,-6,21,1,6,-338
-4,-5,0,5,-2,-2,5,-5,21,3,6,-136
-4,-5,0,5,-2,-2,5,-5,20,3,6,131
-4,-5,-1,5,-1,-3,4,-6,20,3,6,397
-5,-7,-2,6,-1,-4,4,-5,20,3,7,501
-6,-8,-2,7,-2,-5,5,-4,21,4,7,407
-6,-8,-2,7,-2,-5,6,-3,21,4,7,-141
-5,-7,-2,7,-1,-5,5,-4,20,5,7,-329
-5,-7,-2,7,-1,-5,5,-4,20,8,7,-25
-5,-7,-1,7,-1,-5,5,-4,20,9,7,-346
-5,-5,0,6,-2,-3,5,-4,19,9,7,-400
-5,-4,0,5,-2,-2,4,-5,18,8,7,-467
-4,-4,0,5,-2,-2,3,-6,19,8,7,-388
-5,-5,0,5,-2,-3,4,-5,19,9,7,247
-5,-5,0,5,-3,-3,5,-5,19,9,7,187
-5,-4,0,5,-3,-3,5,-5,19,9,7,53
-6,-5,0,6,-2,-3,4,-5,19,11,7,-214
-6,-5,0,6,-2,-3,5,-5,20,13,7,-373
-5,-5,0,5,-2,-3,5,-5,19,13,7,220
-4,-4,0,4,-2,-2,4,-5,18,13,7,519
-4,-5,0,4,-2,-3,3,-6,18,13,7,142
-4,-5,0,5,-2,-3,3,-6,19,14,7,23
-5,-5,0,5,-2,-3,4,-5,19,14,7,272
-5,-5,0,5,-2,-3,4,-5,19,14,7,-16
-5,-6,-1,5,-1,-4,4,-6,19,16,7,-159
-4,-6,-2,5,0,-4,4,-6,20,18,7,91
-4,-5,-1,5,0,-3,4,-6,20,19,7,16
-4,-4,0,4,-1,-2,4,-6,20,19,7,181
-4,-4,-1,4,0,-2,3,-6,20,19,7,114
-4,-5,-1,5,0,-3,3,-6,20,20,7,-267
-4,-4,-1,5,0,-3,3,-6,21,20,7,161
-4,-3,0,4,-1,-1,4,-5,21,19,7,732
-4,-2,1,3,-1,0,4,-6,20,19,7,581
-3,-2,0,3,0,-1,4,-6,20,21,7,257
-2,-3,-1,3,0,-2,5,-6,21,22,7,313
-3,-4,-1,3,0,-2,5,-5,20,22,7,369
-3,-4,-1,3,0,-2,4,-6,19,22,8,422
-3,-4,-1,3,0,-2,3,-7,19,23,8,783
-3,-3,0,3,0,-2,4,-6,20,23,8,1226
-3,-1,1,2,-1,0,4,-6,20,23,8,1284
-2,0,2,2,-1,1,4,-6,20,22,8,643
-2,-1,1,2,-1,0,4,-7,20,24,8,25
-2,-2,0,3,-1,0,5,-7,21,25,8,51
-2,-2,0,2,0,0,5,-7,20,25,8,-122
-1,-2,0,2,0,0,4,-7,19,25,8,-57
-2,-2,0,2,0,-1,3,-8,19,24,8,309
-2,-3,0,2,0,-1,4,-7,19,24,8,-26
-3,-3,0,3,-1,-1,5,-6,19,24,8,-509
-3,-2,1,3,-1,0,5,-6,19,24,8,-226
-3,-3,0,3,-1,-1,4,-7,19,25,8,-19
-2,-3,-1,3,0,-2,4,-8,19,26,8,80
-2,-3,-1,3,0,-2,5,-7,19,26,8,484
-2,-3,-1,2,0,-2,4,-7,18,25,8,465
-1,-2,-1,1,1,-2,3,-8,17,24,8,199
0,-2,-1,1,1,-2,3,-8,17,24,8,-151
0,-2,-1,1,1,-1,4,-7,17,24,8,-195
-1,-1,0,1,0,0,4,-7,17,24,8,-426
-1,-1,1,1,0,0,4,-7,17,24,8,-790
-2,-2,0,2,0,0,4,-8,17,25,8,-954
-2,-2,1,2,-1,0,4,-7,17,25,8,-1130
-2,-1,2,2,-2,1,4,-7,16,25,8,-1256
-3,-1,2,2,-2,0,3,-8,15,25,8,-1525
-3,-2,1,2,-2,0,3,-8,15,25,8,-923
-4,-2,2,2,-2,0,3,-7,15,26,8,-213
-4,-1,2,2,-3,0,4,-7,15,25,8,83
-4,-1,2,2,-2,1,3,-7,14,24,8,654
-3,-1,1,3,-2,0,3,-8,14,24,8,804
-4,-2,1,3,-2,0,3,-8,15,25,8,205
-4,-2,1,4,-2,0,4,-7,15,25,9,163
-3,-2,0,3,-2,-1,3,-8,13,25,9,802
-2,-2,0,3,0,-1,2,-9,13,24,9,1119
-2,-3,0,3,0,-2,3,-9,13,24,9,1110
-3,-3,0,3,-1,-2,4,-8,13,24,9,1098
-3,-3,1,3,-1,-1,4,-8,13,23,9,1152
-3,-3,0,2,0,-1,3,-9,12,23,9,764
-3,-3,0,3,-1,-1,3,-10,12,24,9,757
-5,-3,2,3,-2,0,4,-9,12,24,9,1205
-5,-2,3,3,-4,1,4,-9,12,24,9,1347
-5,-2,2,3,-3,0,3,-10,12,24,9,1344
-5,-3,0,4,-2,-1,3,-10,12,24,9,1253
-4,-4,0,4,-1,-2,3,-10,11,24,9,589
-4,-3,0,3,-1,-1,4,-10,11,23,9,125
-4,-2,1,2,-1,-1,3,-11,10,24,9,-230
-4,-2,0,2,-1,-1,2,-12,10,26,9,-310
-4,-2,1,2,-1,0,3,-12,10,27,9,460
-4,0,3,2,-3,1,3,-12,10,27,9,952
-4,0,3,2,-3,1,2,-13,9,27,9,1104
-4,-2,2,3,-3,0,2,-13,10,29,9,1163
-5,-3,1,4,-3,-1,3,-13,10,30,9,704
-6,-3,2,4,-3,0,4,-12,10,30,9,176
-6,-3,2,3,-3,0,3,-13,10,30,9,85
-5,-3,2,3,-3,0,2,-14,9,31,9,31
-5,-3,2,4,-3,0,2,-14,9,33,9,-1
-5,-2,2,4,-3,0,2,-14,8,33,9,-21
-5,-1,2,3,-3,0,2,-14,7,33,9,-33
-5,-2,2,4,-3,0,2,-15,7,34,9,-40
-6,-3,2,5,-4,0,2,-14,8,35,9,-44
-7,-3,2,4,-4,0,3,-13,8,36,9,-45
-6,-2,3,4,-4,1,3,-13,8,36,9,-46
-6,-2,2,3,-3,0,3,-14,8,37,9,-46
-5,-3,1,3,-2,0,3,-14,8,39,10,-47
-5,-3,1,4,-2,0,4,-13,8,39,10,-47
-6,-2,3,4,-4,0,4,-13,7,39,10,-48
-6,-2,3,4,-4,0,3,-14,7,40,10,-48
-6,-3,2,4,-3,0,3,-14,7,42,10,-48
-6,-4,2,4,-3,0,4,-13,7,42,10,-48
-6,-3,2,4,-3,0,4,-13,6,42,10,-48
-6,-3,2,4,-3,0,3,-14,6,42,10,-48
-6,-3,1,4,-3,0,3,-14,7,44,10,-48
-7,-4,2,5,-3,0,4,-13,12,45,10,-48
-7,-3,3,4,-4,0,4,-13,15,45,10,-48
-6,-2,4,4,-4,0,4,-13,16,45,10,-48
-6,-3,3,4,-4,0,3,-13,16,46,10,-48
-7,-5,2,5,-4,-1,4,-13,17,47,10,-48
-7,-5,2,5,-4,-1,5,-12,17,47,10,-48
-7,-4,3,4,-3,0,4,-13,16,47,10,-48
-7,-3,3,4,-3,0,3,-14,16,48,10,-48
-7,-3,3,4,-4,0,3,-14,16,49,10,-48
-7,-2,4,4,-4,1,4,-14,15,49,10,-48
-7,-2,4,4,-4,1,4,-14,15,49,10,-48
-7,-3,4,5,-4,0,3,-14,15,50,10,-48
-7,-4,3,5,-4,0,3,-13,15,50,10,-48
-7,-3,4,5,-5,0,4,-13,15,50,10,-48
-7,-2,4,4,-5,1,3,-13,14,50,10,-48
-7,-3,4,4,-4,0,3,-13,14,51,10,-48
-7,-3,4,4,-4,0,3,-14,14,52,10,-48
-8,-2,4,4,-5,1,4,-13,14,52,10,-48
-8,-2,5,4,-5,1,4,-13,13,52,10,-48
-8,-3,4,5,-5,0,3,-14,13,52,10,-48
-8,-4,3,5,-5,-1,3,-13,13,53,10,-48
-8,-4,3,5,-5,0,4,-12,14,54,10,-48
-8,-2,4,4,-5,1,4,-11,14,53,10,-47
-8,-2,4,4,-5,2,3,-12,13,53,11,-47
-8,-2,4,4,-5,2,3,-13,13,54,11,-47
-8,-2,4,4,-5,1,3,-13,13,55,11,-47
-8,-2,4,5,-5,1,4,-13,13,54,11,-47
-8,-3,4,6,-5,0,3,-13,12,55,11,-47
-9,-5,3,7,-5,-1,3,-13,12,56,11,-47
-9,-5,3,7,-5,-1,3,-13,13,57,11,-47
-9,-4,4,6,-6,0,3,-12,12,56,11,-47
-9,-3,5,6,-6,1,3,-13,12,56,11,-47
-9,-4,5,6,-6,1,2,-13,12,56,11,-47
-10,-5,4,7,-6,0,3,-13,12,57,11,-47
-10,-4,4,6,-6,0,4,-12,13,57,11,-47
-9,-3,5,5,-6,0,3,-12,12,57,11,-47
-9,-3,4,5,-5,0,3,-12,12,57,11,-47
-9,-4,3,6,-5,-1,3,-12,13,58,11,-47
-9,-5,3,7,-6,-1,3,-12,12,57,11,-47
-9,-5,4,7,-6,0,3,-12,12,57,11,-47
-9,-5,3,7,-5,-1,2,-13,12,57,11,-47
-9,-6,3,7,-5,-1,3,-13,12,59,11,-47
-9,-5,3,7,-5,-1,3,-12,12,59,11,-47
-9,-4,4,6,-5,0,3,-12,12,59,11,-47
-9,-4,4,6,-5,0,2,-13,12,59,12,-47
-8,-5,3,6,-5,-1,2,-13,13,60,12,-47
-8,-5,3,6,-5,-1,3,-12,13,61,12,-47
-8,-4,3,6,-5,-1,4,-12,13,60,12,-47
-8,-4,3,6,-4,-1,3,-12,13,60,12,-47
-8,-5,2,6,-4,-1,3,-12,14,62,12,-47
-9,-6,3,7,-5,-2,4,-12,15,62,12,-47
-10,-5,3,7,-5,-1,4,-12,15,61,12,-47
-9,-5,3,6,-5,-1,3,-12,15,61,12,-47
-8,-5,2,6,-5,-2,3,-13,15,62,12,-47
-8,-5,1,6,-4,-2,3,-12,16,63,12,-47
-8,-5,2,6,-4,-2,4,-12,15,63,12,-47
-8,-5,2,6,-4,-1,3,-12,15,62,12,-47
-8,-5,1,6,-3,-2,3,-12,15,63,12,-47
-7,-5,1,6,-3,-2,3,-12,15,64,12,-47
-7,-4,2,6,-4,-1,4,-11,15,64,12,-47
-7,-3,3,5,-4,0,3,-12,15,64,13,-47
-7,-4,2,6,-4,-1,2,-13,15,65,13,-47
-8,-5,2,6,-4,-2,2,-13,15,65,13,-47
-8,-5,3,6,-4,-1,3,-12,15,65,13,-47
-7,-4,3,5,-4,0,3,-12,14,64,13,-47
-6,-4,2,5,-3,-1,2,-13,14,65,13,-47
-7,-6,1,6,-2,-2,2,-12,14,67,13,-47
-7,-5,1,6,-2,-1,3,-11,15,67,13,-47
-6,-5,1,5,-2,-1,4,-11,15,67,13,-47
-6,-6,0,6,-1,-2,4,-11,15,68,13,-47
-6,-6,-1,6,-1,-3,4,-11,15,69,13,-47
-5,-6,-1,5,-1,-2,4,-11,15,68,13,-47
-4,-4,0,4,-1,-1,5,-10,15,67,13,-47
-4,-4,-1,3,0,-2,4,-10,15,68,13,-47
-4,-7,-3,4,0,-4,4,-10,15,69,13,-47
-4,-8,-5,5,1,-6,5,-9,16,70,13,-47
-3,-7,-4,4,1,-5,5,-8,15,70,14,-47
-3,-7,-5,4,2,-6,4,-8,15,70,14,-47
-3,-8,-6,5,2,-7,3,-8,15,71,14,-47
-2,-8,-6,5,3,-7,4,-8,16,72,14,-47
0,-7,-6,3,4,-7,5,-7,16,72,14,-47
1,-6,-7,2,5,-6,5,-7,16,72,14,-47
1,-6,-7,2,5,-7,5,-7,16,73,14,-47
0,-6,-7,2,5,-7,5,-6,17,74,14,-47
0,-6,-6,2,4,-6,5,-5,17,73,14,-47
0,-5,-5,2,4,-6,5,-5,17,72,14,-47
0,-5,-5,2,4,-6,5,-6,17,72,14,-47
0,-6,-6,2,4,-6,5,-6,18,72,14,-47
0,-5,-5,2,3,-5,6,-5,18,72,14,-47
0,-3,-4,0,3,-4,6,-5,18,71,14,-47
1,-3,-4,0,3,-4,5,-6,17,71,14,-47
0,-5,-5,1,4,-5,5,-6,17,71,14,-47
-1,-6,-6,3,4,-7,5,-6,17,71,15,-47
0,-6,-7,3,4,-7,5,-6,16,70,15,-47
1,-6,-8,3,5,-7,4,-7,15,71,15,-47
2,-6,-8,2,6,-7,4,-7,15,73,15,-47
2,-5,-8,2,5,-7,4,-7,15,73,15,-47
1,-5,-7,1,4,-6,4,-7,14,73,15,-48
0,-6,-7,1,4,-6,3,-8,13,73,15,-48
0,-7,-8,2,5,-8,2,-9,12,74,15,-48
0,-8,-9,3,6,-8,2,-9,11,74,15,30
0,-6,-7,2,5,-7,1,-11,10,73,15,-75
0,-5,-6,2,4,-6,0,-13,8,72,15,-539
0,-5,-6,2,4,-6,0,-14,7,73,15,-842
0,-5,-6,2,4,-5,0,-14,7,73,15,-367
0,-4,-6,2,4,-5,0,-14,7,72,15,-287
0,-3,-5,1,3,-4,0,-15,6,72,15,-980
0,-4,-5,1,4,-4,0,-16,7,74,15,-751
0,-5,-7,1,5,-6,0,-15,8,75,16,-584
0,-5,-7,1,5,-6,1,-13,8,76,16,-357
1,-4,-6,1,5,-5,0,-13,8,76,16,537
1,-4,-7,1,5,-6,0,-14,8,77,16,263
0,-5,-7,2,5,-6,0,-13,8,78,16,-138
0,-6,-6,3,3,-6,2,-12,8,78,16,449
-1,-6,-5,3,2,-6,2,-11,8,78,16,920
-1,-6,-5,3,2,-6,2,-11,8,78,16,728
-2,-7,-5,3,2,-6,3,-11,9,79,16,744
-3,-6,-3,3,1,-5,3,-10,9,78,16,1193
-3,-4,-2,3,1,-3,3,-10,9,78,16,1397
-3,-4,-2,3,1,-3,2,-11,9,79,16,1527
-3,-5,-3,4,1,-4,2,-11,9,80,16,1488
-3,-5,-3,4,1,-5,3,-11,9,80,16,713
-2,-5,-3,3,1,-4,4,-10,8,79,16,240
-1,-5,-3,3,1,-4,4,-11,8,79,16,16
-1,-6,-4,3,2,-5,4,-11,8,80,17,-78
-1,-6,-4,3,3,-5,4,-10,9,81,17,539
-2,-5,-3,3,2,-4,4,-10,8,80,17,963
-2,-4,-3,3,2,-4,4,-10,8,81,17,1162
-1,-5,-3,3,2,-4,4,-10,9,82,17,1308
-1,-6,-4,4,2,-4,5,-9,9,82,17,955
-2,-6,-4,3,2,-4,5,-9,9,82,17,598
-2,-6,-4,3,1,-4,4,-9,8,81,17,889
-2,-6,-4,3,1,-4,4,-10,8,81,17,1031
-2,-6,-3,3,1,-4,4,-9,8,82,17,1079
-2,-5,-2,3,1,-4,4,-9,8,82,17,1228
-2,-4,-2,3,1,-3,4,-9,8,82,17,1241
-2,-5,-3,4,1,-4,3,-10,8,83,17,1279
-2,-6,-3,4,1,-5,4,-9,9,84,17,1040
-3,-6,-3,4,1,-5,5,-8,10,84,17,877
-3,-6,-3,4,1,-4,5,-7,11,85,17,929
-2,-5,-3,3,1,-4,6,-6,12,86,18,501
-2,-6,-3,4,1,-5,7,-4,15,88,18,374
-3,-7,-3,5,1,-6,8,-2,18,90,18,738
-4,-7,-2,5,0,-5,10,1,22,91,18,891
-5,-6,-1,5,0,-4,11,3,26,95,18,992
-5,-6,-1,5,-1,-3,13,6,32,100,18,932
-4,-4,0,4,-1,-1,15,10,38,106,18,975
-2,-1,1,1,-1,0,16,13,42,112,18,990
1,3,1,-3,1,2,15,14,46,117,18,1049
5,6,1,-7,3,3,13,14,47,123,18,1118
10,11,1,-11,4,6,10,12,46,127,18,1012
15,18,3,-17,6,10,5,7,40,131,18,1013
22,27,4,-24,9,15,-2,-2,31,135,18,959
29,35,5,-32,12,20,-12,-14,17,139,18,956
36,43,7,-40,15,25,-23,-28,0,141,18,514
43,52,8,-48,18,31,-34,-43,-18,141,18,110
49,60,10,-55,20,35,-45,-57,-36,142,19,353
54,66,11,-60,21,38,-54,-70,-53,144,19,428
56,69,12,-63,22,40,-61,-80,-68,144,19,454
57,69,11,-63,24,39,-65,-87,-80,140,19,626
57,62,5,-59,27,32,-65,-88,-87,131,65,655
54,47,-7,-50,31,19,-61,-86,-90,119,-25,703
49,31,-18,-40,34,6,-54,-80,-90,106,-362,475
42,18,-24,-30,34,-3,-45,-73,-89,92,-87,199
34,8,-26,-22,31,-8,-39,-67,-89,77,39,-50
26,1,-25,-15,27,-12,-33,-62,-88,63,-502,66
18,-4,-23,-8,22,-14,-28,-58,-85,53,-708,273
11,-8,-20,-2,16,-15,-24,-54,-82,43,-344,5
5,-10,-16,2,12,-14,-21,-51,-79,35,-198,-218
2,-13,-15,5,10,-15,-20,-49,-75,31,-125,-346
0,-16,-16,8,9,-17,-18,-47,-70,30,17,-515
-2,-18,-15,9,8,-17,-15,-43,-63,31,294,-491
-3,-18,-14,10,6,-16,-13,-39,-56,32,724,-506
-3,-18,-14,10,6,-16,-12,-37,-48,36,486,-469
-3,-18,-14,10,6,-16,-10,-34,-40,41,-60,-396
-3,-17,-13,10,6,-16,-7,-30,-31,46,104,-540
-3,-15,-11,9,6,-14,-5,-26,-23,49,714,-585
-3,-12,-10,8,5,-12,-4,-24,-17,53,773,-660
-2,-11,-10,7,5,-11,-3,-22,-12,56,547,-675
-2,-11,-9,7,4,-10,-1,-19,-7,59,190,-289
-2,-10,-8,6,4,-9,0,-16,-4,61,-224,-205
-2,-10,-7,5,3,-8,1,-14,-1,63,-646,-486
-2,-9,-7,5,3,-8,2,-12,2,65,-1032,-679
-2,-9,-7,5,3,-8,3,-10,6,66,-1362,-831
-3,-8,-5,5,2,-7,4,-8,8,66,-820,-805
-2,-6,-4,5,2,-6,4,-8,9,65,226,-861
-2,-6,-5,4,3,-6,3,-9,10,65,744,-865
-1,-7,-5,4,3,-6,4,-9,11,64,972,-332
-1,-7,-5,4,3,-6,5,-8,11,63,1035,-52
-1,-7,-5,3,2,-6,5,-8,11,61,1003,-532
-1,-7,-5,4,2,-6,4,-8,11,60,936,-420
-1,-9,-6,5,3,-8,5,-7,12,60,878,-230
-2,-9,-6,5,3,-8,6,-6,13,59,828,-513
-1,-8,-6,5,3,-7,6,-6,14,58,759,-744
-1,-7,-6,4,3,-7,5,-6,14,57,671,-868
-1,-7,-6,4,3,-7,5,-7,15,56,586,-1069
-1,-7,-5,4,2,-6,5,-6,15,54,508,-1133
-1,-6,-4,4,2,-5,6,-6,14,51,429,-1170
-1,-6,-4,3,2,-5,5,-7,14,48,359,-1077
-1,-5,-4,3,2,-5,5,-7,14,46,320,-966
-1,-5,-4,2,2,-4,6,-7,15,43,320,-1098
-1,-3,-3,2,2,-3,6,-6,15,38,356,-1136
-1,-3,-2,2,1,-3,5,-7,15,34,-7,-1192
-1,-5,-3,3,1,-4,5,-7,15,31,-238,-1246
-2,-7,-4,4,1,-5,6,-6,16,27,72,-983
-2,-8,-5,5,2,-6,7,-5,16,22,430,-929
-1,-8,-6,4,2,-7,7,-5,16,17,819,-1132
-1,-8,-6,4,3,-7,6,-5,17,13,1192,-1275
-2,-8,-6,5,3,-8,7,-5,17,8,726,-1404
-3,-7,-5,5,2,-7,8,-4,18,2,-266,-1366
-2,-6,-4,4,2,-6,8,-4,18,-4,-776,-1405
-2,-7,-5,5,3,-7,8,-4,18,-10,-1015,-1404
-2,-9,-6,5,3,-7,8,-4,18,-15,-1090,-1005
-2,-9,-6,6,2,-7,9,-3,18,-22,-1079,-868
-2,-9,-6,5,2,-7,9,-3,17,-29,-1031,-1288
-2,-9,-6,5,2,-7,9,-4,17,-35,-953,-1069
-2,-9,-7,5,2,-8,10,-3,18,-40,-840,-833
-3,-10,-8,6,3,-9,10,-2,19,-46,-714,-1088
-3,-10,-8,7,3,-9,10,-1,19,-52,-612,-1303
-2,-10,-8,7,4,-9,9,-2,19,-56,-541,-1417
-1,-10,-8,6,4,-9,9,-3,18,-59,-505,-1138
-1,-10,-7,6,3,-9,9,-2,18,-62,-408,-683
-2,-9,-6,6,2,-8,9,-2,18,-65,-202,-412
-2,-8,-5,5,2,-7,8,-3,17,-67,73,-252
-2,-7,-5,5,2,-7,8,-4,17,-66,-201,-157
-2,-7,-5,5,2,-7,9,-3,17,-64,-453,-101
-2,-7,-5,5,2,-7,9,-3,17,-62,-616,-69
-2,-7,-5,4,2,-7,9,-4,17,-60,-937,-49
-1,-7,-6,4,3,-8,8,-4,17,-56,-670,-37
-1,-8,-7,5,3,-9,9,-4,17,-53,-83,-30
-1,-9,-7,6,3,-9,10,-3,17,-51,-201,-26
-1,-10,-7,6,3,-9,9,-4,17,-49,-784,-24
-1,-10,-8,6,3,-10,9,-5,17,-46,-828,-22
-1,-10,-8,6,3,-10,9,-5,17,-43,-573,-21
-1,-9,-8,5,3,-9,10,-4,17,-41,-183,-21
-1,-8,-8,5,4,-9,9,-4,17,-38,230,-21
0,-9,-9,5,4,-10,9,-5,17,-34,628,-21
0,-10,-9,5,4,-10,9,-4,18,-29,1008,-22
0,-10,-8,5,4,-9,10,-3,18,-25,1358,-22
0,-10,-8,5,4,-9,10,-3,17,-23,831,-22
0,-10,-8,5,4,-9,9,-3,17,-19,-214,-22
-1,-10,-8,5,4,-9,10,-3,18,-16,-721,-22
-1,-9,-7,5,3,-9,10,-2,18,-14,-923,-22
-1,-7,-7,4,4,-8,10,-2,18,-12,-983,-23
0,-7,-7,3,4,-8,9,-3,18,-9,-977,-23
0,-8,-8,4,4,-8,8,-3,18,-6,-928,-23
-1,-9,-8,5,4,-9,9,-2,18,-4,-860,-23
-1,-9,-7,5,4,-8,9,-2,17,-2,-795,-23
0,-8,-7,5,4,-8,9,-2,17,0,-726,-23
0,-9,-8,5,4,-8,8,-3,17,2,-633,-23
-1,-9,-8,5,4,-9,9,-2,18,4,-524,-24
-1,-8,-7,4,4,-8,9,-1,18,5,-434,-24
0,-7,-7,3,4,-8,8,-2,18,7,-377,-24
0,-7,-7,3,5,-8,8,-2,18,10,-337,-25
0,-6,-7,3,5,-8,8,-2,18,13,-302,-25
1,-5,-6,2,4,-6,9,-2,18,14,-276,-25
1,-5,-5,2,4,-6,8,-2,17,16,-271,-25
2,-5,-6,2,5,-6,8,-3,18,18,-255,-25
2,-6,-7,2,5,-7,8,-2,18,20,140,-25
1,-5,-6,2,4,-7,9,-2,19,21,310,-26
2,-4,-6,1,4,-6,8,-2,19,23,-34,-26
2,-5,-8,1,5,-7,8,-2,19,26,-383,-26
2,-6,-9,2,6,-8,8,-2,19,29,-786,-26
1,-7,-9,3,5,-8,9,-1,19,31,-1167,-26
1,-7,-8,3,5,-8,8,-2,18,32,-691,-26
2,-6,-8,2,5,-7,7,-3,18,33,322,-26
3,-5,-8,1,5,-6,7,-3,18,34,858,-27
3,-4,-6,1,5,-5,8,-2,18,34,1117,-27
3,-3,-5,0,4,-4,7,-2,17,34,1194,-27
3,-3,-6,0,5,-5,7,-3,17,35,1161,-28
3,-4,-7,0,6,-6,7,-3,18,38,1079,-28
4,-4,-7,0,7,-6,8,-2,18,39,977,-28
4,-3,-7,-1,7,-5,8,-2,18,40,861,-28
4,-3,-7,-1,7,-4,7,-3,18,40,752,-28
4,-3,-7,-1,7,-4,7,-4,18,41,677,-28
4,-2,-6,-2,7,-4,7,-4,18,41,633,-29
5,0,-5,-2,6,-3,7,-4,18,41,584,-29
5,1,-5,-3,6,-2,6,-5,17,42,517,-29
5,1,-5,-3,6,-2,5,-5,17,44,447,-29
5,0,-6,-2,7,-3,6,-4,18,46,385,-29
6,0,-6,-2,7,-4,6,-4,18,47,289,-29
6,0,-6,-3,7,-3,5,-4,17,48,183,-29
7,0,-6,-4,7,-3,4,-5,17,49,120,-30
7,1,-6,-4,7,-3,4,-4,18,50,82,-30
8,1,-6,-4,7,-2,5,-4,18,51,60,-31
9,2,-6,-5,8,-2,4,-4,18,51,46,-31
10,3,-6,-5,9,-2,3,-5,18,53,39,-31
10,3,-7,-6,9,-2,3,-5,19,55,34,-31
11,4,-7,-6,9,-2,4,-4,19,56,31,-31
11,4,-7,-7,10,-1,3,-4,18,56,30,-31
12,4,-8,-7,10,-2,2,-5,18,57,29,-31
12,4,-8,-7,11,-2,2,-6,18,58,28,-32
12,5,-8,-8,11,-2,2,-6,18,59,28,-32
13,6,-7,-9,11,-1,1,-6,18,59,28,-32
14,7,-7,-9,11,0,0,-7,17,60,28,-32
14,7,-8,-9,12,-1,0,-7,18,62,28,-32
15,8,-8,-10,12,-1,1,-6,18,63,28,-32
16,9,-7,-12,12,0,1,-6,18,63,28,-32
16,9,-7,-13,12,0,0,-8,18,64,28,-33
17,9,-8,-13,13,0,0,-8,17,64,28,-33
17,9,-8,-13,14,0,0,-8,17,65,28,-34
17,9,-9,-13,14,0,0,-8,17,65,28,-34
18,8,-10,-13,15,-1,-1,-8,17,66,28,-34
19,8,-11,-14,16,-1,-1,-8,18,68,28,-34
20,9,-11,-14,16,-1,0,-8,18,70,28,-34
20,10,-10,-15,16,0,0,-8,17,70,29,-34
21,11,-10,-16,16,0,-2,-9,16,70,29,-34
21,12,-10,-17,17,0,-3,-10,16,71,29,-35
22,12,-10,-17,17,0,-2,-10,16,71,29,-35
22,13,-9,-18,17,1,-2,-10,16,71,29,-35
22,14,-9,-18,17,2,-3,-10,15,71,29,-35
22,13,-10,-18,17,1,-4,-11,15,73,29,-35
22,12,-11,-17,17,0,-4,-12,15,74,29,-35
23,14,-10,-18,17,2,-4,-11,15,74,29,-36
25,16,-9,-20,18,3,-4,-12,14,73,29,-36
25,16,-10,-20,19,3,-5,-13,14,74,29,-37
25,14,-11,-19,19,1,-4,-12,14,74,29,-37
25,14,-11,-19,19,1,-4,-12,14,74,30,-37
26,15,-10,-20,19,2,-4,-12,13,73,30,-37
26,16,-10,-21,19,2,-5,-13,13,74,30,-37
26,16,-10,-21,20,2,-6,-14,13,75,30,-37
26,16,-9,-21,19,3,-5,-14,13,76,30,-37
26,17,-9,-21,19,4,-5,-14,13,75,30,-38
26,17,-9,-21,19,4,-5,-15,12,75,30,-38
25,17,-9,-21,19,3,-5,-15,12,76,30,-39
25,16,-9,-21,18,3,-4,-15,12,76,30,-39
26,16,-9,-21,18,4,-3,-14,12,75,30,-39
26,16,-9,-21,18,4,-4,-15,12,75,30,-39
25,15,-9,-20,18,3,-4,-15,12,76,30,-39
23,14,-8,-18,17,3,-3,-15,12,76,31,-39
22,15,-7,-18,16,4,-2,-15,11,75,31,-40
22,16,-6,-18,15,4,-2,-15,11,75,31,-40
21,15,-6,-18,15,4,-2,-16,10,75,31,-41
20,13,-6,-17,15,3,-1,-15,10,74,31,-41
19,13,-5,-16,13,4,0,-14,10,72,31,-41
17,13,-2,-15,11,5,0,-13,10,71,31,-41
14,12,-1,-13,9,6,0,-13,10,71,31,-41
12,11,0,-11,7,6,2,-13,11,71,32,-41
9,10,2,-9,5,6,3,-11,12,71,32,-41
6,9,3,-8,3,6,4,-10,12,70,32,-42
4,7,3,-6,2,5,5,-10,13,71,32,9
2,5,3,-4,1,4,7,-9,13,71,32,-98
1,5,4,-3,0,5,8,-8,14,70,32,-500
0,5,6,-3,-1,6,9,-8,14,69,32,-247
-1,5,7,-2,-3,6,9,-9,14,68,32,-92
-2,4,7,-1,-4,6,9,-8,14,68,32,-273
-4,4,8,0,-5,6,11,-7,14,67,32,136
-5,4,9,0,-6,7,12,-6,14,65,32,692
-6,3,9,1,-6,6,12,-7,13,65,32,1143
-7,2,9,2,-7,5,12,-6,14,65,33,1413
-8,1,9,3,-7,5,14,-5,14,65,33,1196
-9,2,11,3,-8,6,14,-4,14,64,33,1025
-9,2,11,3,-9,6,14,-5,14,62,33,995
-9,1,11,4,-9,6,15,-5,15,62,33,1031
-10,0,11,5,-10,6,16,-5,15,62,33,584
-11,0,11,5,-10,6,17,-4,14,61,33,-109
-11,0,11,6,-10,6,16,-5,13,60,33,7
-12,-1,11,7,-10,5,16,-5,12,60,33,-151
-12,-2,10,8,-10,4,17,-5,12,60,33,-591
-12,-3,10,8,-10,4,18,-4,12,59,33,-244
-12,-2,10,8,-11,4,18,-4,12,58,33,420
-13,-3,10,8,-11,4,17,-5,12,58,34,568
-14,-3,11,9,-11,4,18,-5,12,58,34,807
-14,-3,11,9,-11,4,20,-4,13,58,34,687
-14,-3,11,9,-11,4,20,-4,13,57,34,98
-14,-4,10,9,-11,3,19,-4,13,58,34,261
-14,-5,10,10,-11,2,19,-4,13,58,34,442
-14,-5,10,10,-11,2,20,-2,13,58,34,20
-15,-4,11,10,-12,3,20,-2,13,57,35,-457
-15,-4,12,10,-12,4,19,-3,12,57,35,-871
-15,-4,12,10,-12,4,19,-3,12,58,35,-612
-15,-3,11,9,-12,5,20,-3,13,58,35,-535
-15,-3,11,9,-12,5,20,-3,12,57,35,-376
-15,-3,11,9,-12,4,19,-3,12,57,35,112
-15,-5,10,10,-12,3,19,-3,12,57,35,-265
-16,-5,11,11,-12,3,20,-2,13,57,35,-869
-16,-6,11,11,-12,2,20,-2,12,57,35,-526
-15,-6,10,11,-11,2,20,-2,9,57,35,421
-15,-7,9,11,-11,1,20,-3,5,57,36,781
-16,-7,9,12,-11,1,21,-2,2,57,36,198
-17,-7,10,12,-12,2,21,-1,-2,57,36,-127
-17,-6,10,11,-12,2,21,-2,-5,56,36,-231
-16,-6,10,11,-12,2,21,-2,-7,57,36,-179
-16,-6,10,11,-12,2,21,-1,-8,58,36,-195
-16,-5,10,11,-12,3,21,0,-10,57,37,-171
-16,-5,11,11,-13,3,20,0,-11,57,37,531
-16,-5,11,11,-12,3,19,-1,-12,58,37,901
-16,-6,11,11,-12,3,20,0,-12,58,37,612
-16,-6,11,11,-12,3,20,0,-12,58,37,333
-16,-6,11,11,-13,3,20,0,-12,58,37,618
-16,-7,10,11,-13,2,19,-1,-12,58,37,582
-16,-7,10,11,-13,2,20,0,-12,59,37,-87
-16,-6,10,11,-13,2,20,0,-13,59,37,-89
-16,-5,11,10,-13,3,20,0,-14,58,37,597
-16,-5,11,10,-12,3,19,0,-14,58,38,942
-16,-6,9,11,-11,2,20,0,-14,59,38,859
-16,-6,9,11,-11,1,21,1,-14,60,38,779
-16,-6,10,11,-12,2,20,1,-14,59,38,914
-16,-5,11,10,-12,3,19,0,-15,59,38,615
-16,-6,10,10,-12,2,19,-1,-14,60,38,635
-16,-6,10,11,-12,2,20,0,-14,61,39,1108
-16,-5,11,11,-13,3,20,1,-14,60,39,1334
-16,-5,11,11,-13,3,19,1,-14,61,39,1030
-16,-6,10,11,-12,2,20,1,-13,62,39,139
-17,-7,9,11,-12,1,21,2,-12,63,39,-207
-17,-7,10,11,-12,1,20,3,-12,62,39,-405
-16,-7,10,11,-12,1,19,3,-12,62,39,-614
-16,-6,9,11,-12,1,19,2,-11,63,39,-346
-17,-7,10,12,-13,1,19,3,-11,64,39,-339
-18,-7,10,13,-14,1,20,3,-11,63,39,-92
-18,-7,11,13,-14,2,20,3,-11,63,40,-49
-18,-7,10,12,-13,2,20,3,-11,64,40,-165
-17,-7,10,12,-13,1,21,3,-10,64,40,-278
-17,-6,10,11,-12,2,22,4,-10,63,40,-334
-16,-6,10,10,-12,2,22,3,-10,62,40,-416
-16,-6,10,10,-12,2,21,2,-10,63,40,-584
-16,-7,9,11,-12,1,20,2,-10,64,41,-69
-17,-7,10,12,-13,1,19,3,-10,63,41,593
-18,-7,11,12,-13,1,18,3,-10,63,41,1118
-18,-7,11,12,-13,2,18,3,-10,63,41,725
-17,-7,11,12,-13,2,18,3,-10,64,41,-122
-17,-6,11,11,-13,2,18,3,-10,63,41,-367
-17,-5,11,11,-13,3,17,3,-10,62,41,-221
-16,-5,10,10,-12,2,17,2,-10,63,41,212
-15,-6,9,10,-12,1,17,2,-9,64,41,791
-15,-7,9,10,-12,1,17,3,-9,65,41,475
-15,-6,9,10,-12,2,17,3,-9,64,42,-539
-14,-5,9,9,-11,2,16,3,-9,64,42,-382
-14,-6,9,10,-11,2,16,3,-9,65,42,511
-15,-6,9,10,-12,2,16,3,-9,65,42,1074
-16,-5,10,10,-12,3,15,3,-9,64,42,656
-15,-5,10,10,-12,3,13,2,-10,63,43,-269
-15,-5,10,9,-12,3,11,1,-10,64,43,-614
-15,-5,10,9,-12,3,10,1,-9,65,43,-678
-15,-4,11,9,-12,3,10,1,-10,64,43,-717
-15,-4,11,9,-12,3,9,1,-10,64,43,-830
-14,-4,10,9,-12,3,8,0,-10,65,43,-963
-14,-4,10,9,-12,3,7,0,-10,65,43,-1045
-14,-3,11,9,-12,3,7,0,-10,64,43,-1047
-14,-3,11,8,-12,3,7,-1,-11,64,44,-940
-15,-4,10,8,-12,3,6,-2,-11,64,44,-711
-15,-4,10,9,-12,2,7,-2,-10,65,44,-432
-14,-4,10,9,-12,3,7,-1,-9,64,44,-241
-14,-4,10,8,-12,3,7,-2,-10,63,44,-213
-14,-5,9,9,-11,2,6,-2,-10,64,44,-285
-14,-6,8,9,-10,1,6,-2,-10,65,45,-359
-14,-6,8,9,-10,1,6,-2,-9,64,45,-388
-14,-5,9,9,-11,2,6,-2,-10,63,45,-346
-15,-6,9,10,-11,1,5,-3,-10,64,45,-208
-15,-7,7,11,-10,0,6,-4,-10,64,45,-4
-15,-7,7,11,-10,0,7,-3,-9,64,45,154
-15,-6,8,10,-11,2,7,-3,-9,63,45,176
-15,-5,9,9,-11,2,6,-3,-10,62,45,84
-15,-6,9,10,-11,2,5,-4,-10,62,46,-29
-16,-6,9,10,-11,1,6,-3,-9,62,46,-104
-16,-6,9,10,-11,1,6,-3,-9,61,46,-118
-15,-6,9,10,-11,1,5,-4,-9,60,46,-44
-15,-6,9,10,-11,1,5,-4,-9,61,46,115
-15,-7,8,11,-11,0,7,-3,-8,62,47,274
-15,-6,8,11,-11,0,7,-2,-7,61,47,324
-14,-6,8,10,-11,0,7,-2,-8,60,47,252
-15,-7,8,11,-11,0,6,-3,-8,60,47,137
-16,-8,8,12,-11,0,6,-3,-8,60,47,40
-17,-7,9,12,-12,0,6,-3,-8,59,48,-13
-16,-6,9,11,-12,1,5,-4,-9,58,48,7
-16,-7,8,11,-11,1,4,-4,-8,59,48,122
-15,-7,7,11,-10,0,5,-4,-7,59,48,287
-15,-6,8,10,-11,1,5,-3,-6,59,48,395
-15,-5,9,9,-11,2,5,-3,-7,58,48,388
-15,-6,9,9,-11,1,4,-3,-7,58,48,304
-15,-7,9,10,-11,1,4,-3,-7,58,48,217
-16,-7,9,10,-11,1,4,-2,-6,58,49,161
-16,-6,10,10,-11,2,4,-2,-7,57,49,161
-16,-5,9,10,-11,2,3,-3,-7,56,49,243
-16,-6,9,11,-11,1,3,-2,-6,57,49,390
-17,-6,9,11,-12,0,5,-1,-5,57,49,513
-17,-6,9,11,-12,1,5,0,-5,56,49,530
-17,-6,10,11,-12,1,4,-1,-5,56,50,454
-17,-7,9,11,-12,1,4,-1,-5,56,50,357
-17,-8,9,11,-12,0,4,0,-5,56,50,286
-17,-7,9,11,-12,1,4,0,-5,56,50,259
-17,-7,9,11,-12,1,3,0,-7,55,51,304
-17,-8,9,12,-12,1,3,0,-9,56,51,426
-17,-9,8,12,-12,0,3,0,-11,56,51,559
-17,-8,9,12,-12,1,4,1,-13,56,51,613
-17,-8,9,12,-12,1,3,1,-14,55,51,564
-18,-8,10,12,-13,0,2,1,-15,56,51,470
-18,-9,10,13,-13,0,2,1,-16,56,51,387
-18,-9,10,13,-13,0,3,2,-17,55,52,340
-18,-8,10,13,-13,1,2,2,-18,54,52,354
-19,-8,10,13,-13,1,1,1,-18,54,52,450
-19,-8,10,13,-14,1,2,2,-18,55,52,585
-19,-7,12,13,-14,2,2,2,-18,54,52,667
-19,-5,13,12,-15,4,2,2,-18,53,53,643
-19,-5,13,12,-15,4,1,1,-19,54,53,551
-19,-5,12,12,-14,3,1,1,-19,55,53,457
-18,-5,13,11,-14,4,2,2,-19,54,53,390
-18,-5,14,11,-15,5,2,2,-20,53,54,372
-18,-6,13,11,-14,4,1,1,-20,53,54,433
-18,-8,11,12,-13,2,2,2,-19,54,54,557
-18,-8,10,13,-13,1,3,3,-18,54,54,657
-18,-7,10,12,-13,2,2,3,-19,53,54,658
-18,-7,10,12,-13,2,1,2,-20,53,54,571
-18,-8,10,13,-13,1,1,2,-20,54,54,463
-19,-8,10,13,-13,1,2,2,-19,54,55,377
-19,-7,11,13,-14,2,2,2,-20,53,55,329
-19,-6,12,12,-14,4,2,2,-20,53,55,346
-18,-6,12,12,-14,3,1,1,-20,53,55,436
-18,-7,11,12,-14,2,2,2,-19,54,55,533
-18,-6,11,12,-14,3,3,3,-19,53,56,549
-19,-6,12,12,-15,3,2,2,-19,52,56,462
-19,-7,12,13,-15,2,2,2,-19,52,56,328
-19,-7,12,13,-15,2,2,2,-19,53,56,202
-19,-7,12,13,-15,2,3,3,-19,53,57,106
-19,-6,12,13,-15,3,2,3,-19,52,57,64
-19,-7,12,13,-15,2,2,3,-19,53,57,92
-20,-8,11,13,-14,1,2,3,-18,53,57,149
-19,-8,11,13,-14,1,4,5,-18,53,58,150
-19,-7,11,13,-14,2,4,5,-18,52,58,52
-19,-7,11,13,-14,1,3,4,-18,52,58,-116
-19,-8,11,13,-13,1,3,4,-18,53,58,-287
-20,-8,11,14,-14,1,4,5,-18,53,59,-428
-20,-8,12,14,-14,1,3,5,-18,52,59,-525
-20,-7,12,14,-14,2,2,4,-19,51,59,-552
-20,-7,12,14,-14,2,2,3,-18,52,59,-532
-20,-7,12,13,-15,2,2,4,-18,51,60,-530
-20,-6,13,13,-15,3,3,4,-18,50,60,-580
-20,-6,12,12,-15,3,2,3,-19,50,60,-651
-19,-7,11,13,-14,2,3,2,-19,51,60,-691
-19,-7,11,13,-14,1,4,3,-18,51,61,-680
-19,-7,11,13,-14,2,4,3,-19,50,61,-612
-18,-7,11,12,-13,2,3,3,-19,50,61,-477
-18,-7,10,12,-13,1,3,2,-18,50,61,-293
-18,-8,10,13,-13,0,4,3,-17,51,62,-118
-19,-7,10,12,-13,1,4,3,-17,50,62,-18
-19,-6,11,12,-14,2,4,2,-18,49,62,-12
-19,-7,11,12,-14,1,4,2,-18,50,62,-43
-19,-8,10,13,-13,0,4,2,-18,50,63,-44
-19,-8,11,13,-14,1,5,3,-18,49,63,-7
-19,-7,12,13,-14,2,5,3,-18,48,63,60
-19,-6,12,13,-14,2,4,3,-18,49,63,173
-19,-6,12,13,-14,2,4,3,-17,49,64,289
-19,-5,13,12,-15,3,5,3,-17,48,64,339
-19,-4,14,11,-15,4,5,3,-18,47,64,327
-19,-4,13,11,-15,4,4,2,-18,47,64,305
-19,-6,12,12,-14,2,5,2,-18,48,65,310
-19,-7,11,13,-14,2,6,3,-17,48,65,343
-19,-6,12,12,-14,2,6,3,-17,47,65,374
-19,-6,12,12,-14,2,6,3,-17,47,65,388
-20,-7,11,13,-14,1,6,3,-17,47,66,389
-20,-7,12,13,-14,2,6,3,-16,46,66,377
-19,-6,12,13,-15,3,6,3,-17,45,66,348
-19,-6,12,12,-14,2,5,2,-17,45,66,309
-19,-7,11,13,-13,1,5,2,-16,46,67,269
-19,-7,11,13,-13,1,6,4,-16,46,67,231
-18,-6,11,12,-13,2,7,5,-16,46,67,196
-17,-6,11,11,-13,2,7,5,-16,45,68,161
-17,-7,9,12,-12,0,7,5,-15,46,68,124
-16,-8,8,12,-11,0,8,7,-14,46,68,91
-15,-6,8,11,-10,0,9,9,-14,46,68,67
-14,-6,8,10,-10,0,9,10,-13,45,69,48
-14,-7,7,10,-9,-1,9,10,-13,46,69,34
-14,-9,5,11,-8,-2,10,11,-12,46,69,26
-14,-10,5,12,-8,-3,10,13,-12,45,70,20
-14,-9,5,11,-8,-2,10,14,-13,44,70,15
-13,-9,4,11,-8,-3,9,14,-13,44,70,12
-12,-9,3,11,-7,-3,9,13,-12,44,70,13
-12,-8,3,10,-6,-3,9,10,-11,43,71,17
-12,-8,3,10,-6,-3,8,7,-12,42,71,20
-12,-9,3,10,-5,-3,8,5,-12,43,71,21
-11,-9,2,10,-5,-4,9,4,-11,44,72,24
-11,-9,2,10,-5,-4,10,4,-11,44,72,29
-10,-9,2,9,-5,-4,11,4,-10,43,72,32
-10,-8,2,9,-5,-4,10,4,-10,44,72,31
-10,-8,2,9,-5,-3,10,4,-9,45,73,26
-11,-7,3,9,-6,-2,10,4,-8,44,73,20
-11,-6,4,8,-6,-1,10,4,-8,42,73,14
-10,-6,4,7,-6,-1,9,3,-9,42,74,9
-10,-6,3,7,-5,-1,9,3,-8,42,74,6
-10,-7,3,7,-5,-2,9,3,-8,42,74,3
-10,-6,3,7,-5,-1,9,3,-9,41,70,-3
-10,-6,3,7,-6,-1,8,2,-11,40,24,-13
-10,-7,3,8,-6,-2,7,1,-11,40,-50,-23
-10,-7,2,9,-6,-3,7,1,-11,40,-198,-29
-10,-7,3,8,-6,-2,7,2,-12,39,-582,-30
-10,-7,3,8,-6,-2,6,1,-12,38,-383,-28
-10,-7,2,8,-5,-2,5,0,-13,38,183,-26
-10,-8,2,8,-5,-3,5,0,-13,39,232,-24
-10,-7,3,8,-5,-2,5,0,-14,38,40,-25
-9,-6,4,7,-6,-1,4,-3,-16,37,-282,-32
-9,-6,3,7,-5,-1,3,-5,-17,37,-637,-42
-9,-7,2,8,-5,-2,3,-5,-17,37,-965,-49
-10,-7,2,9,-5,-2,4,-5,-17,36,-1267,-51
-10,-6,3,8,-5,-1,3,-6,-17,35,-734,-50
-10,-6,3,8,-5,-1,3,-6,-17,35,297,-49
-11,-7,3,9,-6,-2,4,-6,-16,36,813,-47
-11,-7,4,9,-6,-1,5,-4,-16,37,1040,-47
-11,-5,4,8,-7,0,5,-4,-16,37,1135,-51
-11,-5,4,8,-7,0,5,-4,-15,37,909,-59
-11,-6,4,9,-8,-1,5,-3,-15,38,847,-67
-13,-7,5,10,-9,-1,6,-1,-14,38,1090,-69
-14,-7,7,11,-10,0,7,0,-13,38,1266,-64
-15,-7,7,11,-10,0,7,1,-13,38,1526,-58
-16,-9,6,12,-10,-1,8,2,-12,39,947,-51
-16,-10,6,13,-10,-2,10,4,-11,39,-133,-47
-16,-9,7,12,-11,-1,10,5,-12,38,-698,-46
-16,-7,8,11,-11,0,10,5,-13,38,-963,-50
-16,-7,7,12,-11,0,10,5,-12,38,-1035,-55
-16,-9,6,13,-11,-1,11,6,-11,39,-985,-56
-17,-10,6,14,-11,-2,11,6,-11,38,-889,-52
-17,-10,7,14,-11,-2,11,6,-12,37,-801,-46
-18,-11,7,15,-11,-2,10,5,-11,38,-724,-41
-18,-12,7,15,-11,-2,11,5,-11,39,-649,-37
-18,-11,8,14,-12,-1,12,6,-11,39,-583,-35
-18,-9,8,13,-12,0,12,6,-11,38,-530,-37
-18,-9,8,13,-12,0,11,6,-10,39,-468,-42
-19,-10,8,14,-13,0,12,7,-10,39,-379,-45
-19,-9,9,14,-14,0,12,7,-10,38,-286,-42
-19,-8,10,14,-14,1,12,7,-10,37,-224,-35
-18,-8,10,13,-13,1,11,6,-10,37,-191,-29
-18,-8,10,13,-13,0,12,6,-10,37,-165,-23
-17,-8,10,12,-12,1,12,6,-9,37,-147,-18
-17,-7,10,12,-12,1,12,7,-9,36,-144,-17
-17,-7,9,12,-12,1,11,6,-9,37,-138,-21
-17,-9,8,13,-12,0,11,7,-9,38,-101,-26
-18,-9,7,14,-12,0,12,9,-8,38,-40,-26
-18,-9,8,13,-13,0,13,10,-7,38,6,-20
-18,-8,9,13,-13,1,13,10,-6,38,17,-14
-18,-8,9,13,-13,1,14,10,-4,39,14,-10
-18,-8,10,13,-13,1,15,11,-1,40,12,-7
-18,-8,10,13,-13,1,17,14,1,40,0,-8
-18,-7,11,12,-14,2,17,16,5,42,-16,-13
-19,-7,11,13,-15,2,19,20,11,47,-7,-19
-20,-7,12,13,-16,3,21,25,17,52,35,-21
-19,-5,14,12,-16,5,23,29,22,58,77,-15
-16,-1,15,9,-16,7,23,30,27,63,90,-6
-12,1,14,6,-13,8,22,31,31,70,82,4
-8,4,13,2,-10,9,21,32,33,75,73,12
-2,10,14,-3,-8,12,18,30,31,78,58,20
3,18,14,-10,-5,16,13,24,25,82,34,24
10,25,14,-17,-1,19,5,15,16,87,44,27
17,33,14,-25,2,23,-4,4,4,92,36,31
25,42,15,-33,5,29,-15,-9,-13,94,-58,42
33,51,17,-42,8,34,-27,-25,-32,94,271,56
39,58,19,-48,10,39,-38,-40,-50,94,334,69
43,63,20,-53,11,42,-47,-53,-66,95,303,77
46,67,21,-56,12,44,-54,-63,-81,94,463,78
47,66,20,-56,14,43,-58,-70,-94,89,47,64
45,58,12,-51,17,35,-58,-72,-101,80,-573,34
41,43,1,-42,21,22,-54,-69,-103,69,-422,-4
35,28,-7,-32,22,10,-46,-62,-104,57,236,-36
28,17,-11,-22,20,3,-38,-55,-104,44,369,-56
20,8,-12,-14,16,-2,-32,-49,-104,30,199,-69
11,0,-11,-6,11,-5,-26,-43,-102,18,-115,-77
3,-4,-8,0,5,-6,-20,-38,-99,8,-481,-82
-4,-6,-3,5,0,-4,-15,-35,-96,-1,-865,-87
-8,-7,0,8,-4,-3,-13,-33,-93,-8,-1239,-92
-11,-10,0,10,-6,-4,-11,-31,-90,-11,-727,-96
-14,-12,0,13,-7,-6,-9,-28,-85,-11,343,-93
-15,-14,0,15,-8,-7,-7,-24,-79,-10,904,-85
-16,-16,0,16,-8,-8,-6,-21,-72,-9,1143,-73
-17,-17,0,17,-8,-8,-5,-19,-64,-5,1201,-63
-18,-17,1,17,-9,-8,-3,-16,-55,-1,1169,-54
-19,-15,2,17,-10,-7,-1,-13,-48,2,1087,-47
-18,-13,4,15,-10,-5,0,-10,-41,5,978,-44
-17,-10,5,14,-11,-3,1,-7,-34,10,881,-44
-16,-9,6,13,-11,-2,3,-3,-28,14,819,-43
-16,-8,7,12,-12,-1,4,0,-23,17,772,-38
-16,-7,8,12,-12,0,5,1,-20,19,708,-31
-16,-7,9,11,-12,0,5,3,-17,23,628,-26
-16,-7,9,11,-11,0,7,5,-13,26,553,-21
-16,-6,9,11,-11,1,9,7,-10,28,487,-18
-15,-5,9,11,-11,2,9,9,-8,29,407,-18
-15,-5,9,11,-11,2,9,9,-7,30,332,-21
-16,-6,8,11,-11,1,10,10,-5,31,594,-25
-16,-6,9,11,-12,1,10,11,-4,32,641,-25
-16,-5,11,11,-13,3,10,11,-4,31,287,-21
-16,-4,12,10,-13,4,9,10,-4,30,-30,-18
-16,-4,12,11,-13,4,9,9,-4,32,-438,-15
-16,-5,11,11,-13,3,10,10,-3,32,-834,-12
-16,-5,10,11,-13,2,11,11,-2,32,-1213,-11
-16,-5,10,11,-13,2,11,11,-1,32,-728,-13
-16,-6,9,12,-12,1,11,11,0,33,309,-18
-16,-6,9,12,-12,1,11,12,0,34,868,-19
-15,-5,10,10,-12,2,11,12,0,33,1134,-17
-15,-3,11,9,-12,4,10,11,-1,33,1208,-13
-15,-3,11,10,-12,4,9,10,-1,33,1177,-10
-16,-4,11,10,-12,3,10,11,0,34,1103,-8
-16,-4,12,10,-13,4,11,12,0,34,1003,-7
-15,-3,12,9,-13,4,11,12,0,34,890,-9
-14,-3,11,9,-13,4,10,11,0,34,795,-14
-15,-4,10,10,-13,3,10,11,1,34,740,-17
-16,-4,12,10,-14,4,10,11,0,33,701,-17
-16,-3,13,10,-15,6,9,11,0,32,645,-14
-16,-2,14,10,-14,6,8,10,0,32,573,-12
-16,-2,14,10,-14,6,8,10,0,33,507,-10
-16,-2,13,9,-14,5,9,11,0,33,445,-9
-15,-2,13,9,-14,5,9,11,0,33,380,-10
-14,-3,12,8,-13,4,9,11,0,33,329,-14
-14,-3,11,8,-12,3,9,11,1,33,313,-18
-14,-3,11,9,-13,4,9,12,1,33,331,-18
-14,-2,12,9,-13,5,9,11,0,32,333,-16
-14,-2,12,9,-13,5,8,10,0,32,286,-14
-14,-3,11,10,-12,4,9,10,0,32,522,-13
-15,-3,11,10,-12,4,10,11,0,32,396,-13
-15,-3,12,10,-13,4,10,12,0,31,-252,-14
-15,-2,12,9,-13,5,9,11,0,31,-674,-17
-14,-3,11,9,-12,4,9,11,0,31,-919,-21
-14,-4,10,9,-12,3,9,11,0,31,-1030,-22
-13,-3,10,8,-12,3,9,12,0,30,-1085,-20
-13,-3,10,8,-12,3,8,11,0,30,-1134,-16
-14,-3,10,9,-12,2,7,10,0,30,-1178,-14
-14,-2,10,8,-12,3,8,10,0,31,-1209,-11
-13,-1,11,7,-12,4,9,11,0,31,-1238,-8
-13,-2,10,7,-11,3,8,11,0,31,-1268,-9
-13,-3,10,8,-11,3,7,11,0,31,-1280,-11
-13,-3,10,8,-11,2,7,11,1,32,-1257,-13
-12,-3,10,8,-11,3,7,12,1,31,-1224,-12
-12,-3,9,8,-10,3,7,12,0,30,-1216,-10
-12,-3,9,8,-10,2,6,12,0,30,-1229,-9
-12,-3,8,8,-9,2,6,12,0,30,-1242,-8
-12,-3,8,8,-9,2,7,13,0,30,-1258,-7
-11,-3,8,7,-9,2,7,13,0,29,-1281,-7
-11,-3,8,7,-9,2,6,12,0,29,-1297,-10
-11,-3,8,6,-9,2,5,12,-1,30,-1283,-13
-11,-2,8,6,-9,2,5,12,-1,29,-1248,-13
-10,-1,9,5,-9,4,5,12,-1,29,-1227,-9
-10,0,8,5,-9,4,5,12,-1,29,-1236,-7
-10,-2,7,5,-8,2,5,11,0,30,-1253,-7
-10,-3,6,6,-8,1,6,12,0,30,-1273,-6
-10,-4,6,7,-8,1,6,13,0,29,-1243,-5
-10,-4,5,7,-7,0,6,13,0,29,-520,-7
-10,-5,4,7,-7,0,6,13,1,29,-1,-11
-10,-6,4,8,-7,-1,7,14,2,30,-425,-11
-10,-5,5,7,-7,0,7,14,2,30,-788,-9
-10,-4,5,7,-6,0,7,14,2,30,-964,-6
-9,-5,4,7,-6,0,7,14,3,31,-1088,-4
-9,-5,4,7,-6,0,7,14,4,32,-1165,-3
-9,-4,5,7,-6,0,7,15,4,31,-1220,-2
-9,-4,5,7,-7,0,6,15,3,31,-1265,-3
-9,-4,5,7,-7,0,5,14,3,31,-1285,-6
-9,-5,4,8,-7,-1,4,13,3,32,-1267,-8
-9,-5,5,8,-7,0,4,13,3,31,-1236,-7
-9,-5,5,7,-6,0,4,13,2,30,-1229,-5
-9,-5,4,7,-5,0,3,13,2,30,-1241,-4
-9,-6,3,8,-5,-1,3,13,3,31,-1253,-3
-9,-5,4,7,-5,0,4,14,4,30,-1265,-2
-9,-5,4,7,-5,0,3,14,3,29,-1286,-2
-8,-4,4,7,-5,0,2,13,3,30,-1299,-5
-8,-5,4,7,-5,0,1,13,3,31,-1284,-7
-8,-5,3,6,-5,0,1,13,3,31,-1249,-6
-7,-4,3,6,-5,0,0,14,3,31,-1227,-4
-6,-4,3,5,-4,0,0,13,2,31,-1235,-3
-7,-5,2,6,-4,0,0,12,3,31,-1248,-3
-7,-5,3,6,-4,0,0,13,3,31,-1257,-2
-6,-4,3,5,-4,0,1,14,3,31,-1270,-1
-5,-3,2,5,-3,0,0,14,3,32,-1289,-2
-5,-4,2,5,-3,-1,-1,13,3,34,-1335,-3
-6,-4,2,6,-3,-1,-1,13,3,35,-1089,-3
-5,-3,2,5,-4,0,-2,13,3,34,-948,0
-4,-2,3,3,-3,1,-3,13,2,33,-1099,0
-4,-2,2,3,-3,0,-3,12,2,33,-674,-3
-3,-3,0,3,-2,0,-2,13,3,34,-528,-4
-3,-2,0,2,-1,0,-2,14,3,33,-322,-4
-2,-1,1,2,-1,0,-3,13,3,33,456,-4
-3,-2,1,2,-1,0,-4,12,3,34,960,-3
-3,-3,1,3,-1,-1,-4,12,3,35,1014,0
-2,-2,1,2,-1,0,-4,13,3,35,352,2
-1,-1,0,1,0,0,-4,12,3,34,-508,2
0,0,0,0,1,0,-5,12,3,35,-308,-1
1,-1,-1,0,1,0,-4,12,4,35,152,-3
1,0,-1,0,1,0,-4,13,4,35,351,-3
1,0,-1,0,2,0,-4,13,4,35,819,-2
2,0,-2,0,3,-1,-6,12,4,36,531,-1
2,-1,-2,0,3,-1,-6,11,4,37,435,1
2,-1,-2,-1,3,-1,-6,11,4,38,313,5
4,1,-2,-2,4,0,-6,11,3,37,250,6
5,2,-2,-3,4,0,-7,10,2,37,885,3
5,1,-3,-3,5,0,-8,10,2,38,1218,0
6,1,-3,-3,5,0,-7,10,3,38,905,0
7,3,-3,-4,5,0,-8,10,3,37,564,0
8,4,-3,-5,6,0,-9,10,3,38,145,1
8,3,-5,-5,7,0,-10,9,3,40,17,4
9,3,-5,-6,7,0,-10,9,3,42,-80,8
10,5,-5,-7,7,1,-11,10,2,41,-96,10
11,6,-5,-8,8,1,-12,9,1,40,606,9
11,5,-6,-8,8,0,-12,8,1,40,514,6
10,4,-6,-7,8,0,-11,9,2,41,375,4
10,4,-6,-7,8,0,-11,10,3,41,796,4
11,4,-6,-7,8,0,-11,10,3,42,1169,6
11,4,-8,-7,9,-1,-12,9,3,45,824,9
12,4,-8,-8,10,-1,-12,8,3,47,649,13
13,6,-7,-10,10,0,-13,8,1,46,465,17
14,9,-6,-12,10,2,-14,7,0,44,-423,17
15,9,-6,-12,11,1,-15,5,-1,43,-482,14
15,7,-8,-11,11,0,-15,5,0,44,298,12
14,6,-8,-10,11,-1,-14,6,0,44,941,11
15,6,-8,-10,11,-1,-14,6,0,44,1329,12
15,7,-8,-11,12,0,-15,5,0,46,848,13
16,7,-8,-11,12,0,-16,4,0,48,270,16
16,7,-8,-12,12,0,-16,4,0,47,40,20
16,8,-8,-13,12,1,-16,4,-1,45,-528,21
17,9,-8,-14,13,1,-17,2,-2,43,-342,18
18,9,-8,-14,13,1,-17,2,-2,43,-275,15
18,9,-8,-14,13,1,-17,2,-1,43,-135,14
18,10,-7,-14,12,2,-17,2,-1,42,-90,14
18,11,-7,-15,12,3,-18,1,-2,43,-779,14
18,11,-7,-15,12,3,-19,0,-2,45,-655,16
17,10,-7,-14,12,2,-18,1,-2,46,-466,20
18,11,-7,-15,12,3,-18,1,-3,44,-837,22
18,12,-6,-15,12,3,-19,0,-4,42,-408,20
18,11,-7,-15,12,2,-20,-1,-4,42,547,18
17,10,-7,-14,12,2,-20,-1,-5,42,1025,17
17,11,-6,-14,12,2,-21,-1,-5,41,1217,16
18,12,-5,-15,12,3,-22,-2,-6,40,1248,15
18,13,-5,-16,12,3,-23,-3,-6,40,1212,14
18,12,-5,-16,12,3,-22,-2,-6,40,1161,14
18,12,-4,-16,11,4,-20,-2,-5,39,1098,15
17,12,-4,-15,10,4,-20,-2,-6,38,1005,13
16,11,-4,-14,10,4,-20,-2,-6,38,896,9
15,11,-4,-13,9,3,-20,-2,-6,38,693,6
14,11,-2,-13,8,4,-19,-1,-6,37,454,4
13,12,-1,-12,7,5,-19,-2,-7,36,313,1
12,11,-1,-12,7,5,-20,-3,-7,36,230,-1
11,9,-2,-10,7,4,-19,-2,-7,36,178,-3
10,8,-2,-9,6,3,-18,-1,-6,35,144,-3
9,8,-1,-9,5,4,-17,0,-6,33,123,-5
8,7,-1,-8,4,3,-17,0,-6,33,110,-9
7,5,-2,-6,4,2,-17,0,-6,33,105,-11
7,5,-1,-6,3,2,-16,0,-6,33,104,-12
6,6,0,-6,3,3,-15,0,-6,31,105,-13
5,6,1,-6,2,4,-16,0,-7,30,106,-15
4,5,0,-5,2,3,-16,-1,-7,30,105,-16
3,3,0,-3,2,2,-15,0,-6,30,101,-16
2,3,1,-3,1,2,-14,0,-6,28,98,-16
1,2,1,-2,0,2,-14,0,-6,27,95,-19
1,1,0,-1,0,0,-14,0,-6,27,95,-23
0,0,0,-1,0,0,-13,0,-6,26,97,-24
0,1,1,0,0,0,-13,0,-7,24,100,-25
0,1,1,0,0,0,-13,0,-7,22,102,-27
-1,0,1,0,0,0,-14,0,-7,22,103,-28
-1,0,1,0,-1,0,-13,0,-7,21,101,-28
-2,0,2,0,-1,0,-13,1,-7,19,98,-27
-2,0,2,0,-2,1,-13,0,-7,18,96,-29
-2,0,2,1,-2,0,-14,0,-7,17,94,-33
-3,-2,2,3,-2,0,-13,0,-7,16,96,-34
-4,-2,2,4,-3,-1,-13,0,-7,15,98,-34
-5,-2,2,4,-3,0,-13,0,-7,14,100,-34
-5,-2,2,3,-3,0,-13,0,-7,13,102,-35
-5,-2,1,3,-3,-1,-13,0,-7,13,101,-34
-5,-2,2,3,-3,0,-12,0,-6,12,98,-33
-5,-2,3,3,-4,0,-11,0,-7,9,96,-33
-5,-2,3,3,-4,0,-12,0,-7,8,94,-36
-5,-3,2,4,-3,-1,-12,0,-6,8,95,-38
-5,-4,1,4,-3,-1,-11,0,-6,8,97,-37
-6,-3,2,4,-4,-1,-11,0,-6,7,99,-37
-6,-2,3,4,-4,0,-12,0,-7,6,101,-38
-6,-2,3,4,-4,0,-13,-1,-7,6,101,-38
-6,-3,3,5,-5,0,-12,0,-6,6,99,-36
-6,-3,3,5,-5,0,-12,0,-6,4,97,-35
-6,-3,3,5,-5,0,-12,0,-6,4,96,-37
-6,-3,2,5,-4,-1,-13,0,-6,4,95,-38
-6,-4,2,5,-4,-1,-12,1,-5,4,97,-38
-6,-3,2,5,-4,-1,-12,1,-5,3,99,-37
-6,-3,2,4,-4,-1,-12,1,-6,2,100,-37
-6,-4,2,5,-4,-2,-12,1,-6,2,101,-37
-6,-5,2,5,-4,-2,-11,1,-5,2,99,-36
-6,-4,2,5,-4,-1,-11,2,-5,1,97,-35
-6,-3,3,4,-4,0,-11,2,-5,0,96,-36
-6,-2,4,4,-4,1,-12,1,-5,0,95,-39
-7,-2,4,5,-5,1,-12,1,-5,1,96,-40
-7,-2,5,5,-6,1,-11,2,-4,0,98,-40
-7,-2,5,5,-6,1,-12,2,-5,0,99,-40
-7,-3,4,5,-6,0,-12,1,-5,0,100,-40
-7,-4,3,5,-5,0,-12,1,-4,0,99,-39
-7,-4,3,5,-5,0,-11,2,-3,0,98,-38
-7,-3,4,4,-5,1,-11,2,-4,-1,97,-37
-7,-2,5,4,-6,1,-12,2,-4,-1,96,-39
-7,-2,5,4,-6,1,-12,1,-3,0,96,-41
-7,-2,5,4,-6,1,-11,2,-3,0,98,-40
-7,-1,6,4,-7,2,-12,2,-3,-1,98,-40
-7,0,6,4,-7,3,-12,1,-3,-1,99,-41
-7,-1,5,4,-7,2,-12,1,-3,0,99,-41
-7,-1,5,4,-6,2,-11,2,-2,0,98,-40
-7,-1,6,4,-7,3,-10,3,-2,-1,97,-39
-7,-1,7,4,-7,3,-11,3,-3,-2,97,-41
-7,-1,6,4,-6,3,-12,2,-2,-1,97,-43
-6,0,6,4,-6,3,-11,3,-1,0,97,-44
-6,0,7,3,-6,3,-11,3,-1,-1,98,-44
-6,1,8,2,-7,4,-11,3,-2,-2,98,-46
-6,1,7,2,-7,4,-12,2,-2,-2,99,-47
-6,0,6,3,-7,4,-11,3,-2,-2,98,-47
-6,0,7,3,-7,4,-10,4,-2,-2,98,-45
-6,0,7,2,-7,5,-11,4,-2,-3,97,-46
-6,0,6,2,-6,4,-12,3,-2,-3,97,-49
-6,0,6,2,-6,4,-12,3,-2,-3,98,-50
-6,1,7,2,-6,5,-11,3,-2,-4,98,-49
-6,2,7,1,-6,5,-11,3,-2,-5,98,-49
-5,1,6,2,-5,4,-11,3,-2,-4,98,-49
-5,0,4,2,-5,2,-11,3,-1,-4,98,-48
-5,1,5,1,-5,3,-10,4,-1,-4,98,-46
-5,2,6,1,-5,4,-10,5,-1,-5,98,-45
-5,2,6,0,-5,4,-11,4,-1,-5,98,-47
-5,1,5,1,-4,3,-11,3,-1,-5,98,-48
-5,0,5,1,-4,3,-10,4,0,-5,98,-47
-5,1,5,1,-5,3,-10,4,0,-6,98,-46
-4,1,5,1,-5,3,-11,3,-1,-6,98,-46
-4,1,4,1,-4,3,-11,3,-1,-6,98,-46
-4,1,5,1,-4,3,-10,3,0,-6,98,-44
-4,3,6,0,-5,5,-10,4,-1,-7,98,-43
-3,4,7,0,-5,5,-11,3,-1,-7,99,-44
-3,3,5,0,-4,4,-12,2,-1,-7,99,-45
-2,2,4,0,-3,3,-11,3,0,-7,99,-44
-2,3,5,-1,-3,4,-11,3,-1,-8,99,-44
-1,4,5,-2,-3,4,-11,2,-2,-9,99,-44
-1,3,4,-1,-2,3,-12,2,-2,-9,99,-44
-1,2,3,-1,-2,3,-11,2,-1,-9,99,-43
-1,3,4,-1,-2,4,-11,3,-1,-10,99,-41
-1,4,5,-1,-2,5,-11,2,-2,-12,99,-42
-1,4,4,-2,-2,5,-12,1,-2,-12,99,-44
-1,4,4,-1,-2,4,-11,1,-1,-11,99,-44
-1,4,4,-1,-2,4,-10,2,-1,-12,99,-43
0,5,5,-2,-2,5,-11,2,-1,-13,99,-43
0,5,5,-3,-2,5,-12,1,-2,-14,99,-44
0,5,4,-2,-2,4,-12,1,-2,-14,99,-44
0,4,4,-2,-2,4,-11,2,-2,-15,100,-42
0,5,4,-2,-2,5,-11,2,-2,-17,100,-41
0,5,4,-2,-2,5,-12,1,-2,-18,100,-44
0,4,3,-2,-1,4,-12,1,-2,-18,100,-46
0,3,3,-2,-1,3,-11,2,-1,-18,100,-46
0,4,3,-2,-1,4,-11,2,-1,-20,100,-47
0,4,3,-2,-1,4,-11,1,-2,-21,100,-48
0,3,3,-2,-1,3,-11,1,-2,-20,100,-49
0,4,3,-2,-2,4,-10,2,-2,-21,100,-48
0,5,4,-2,-2,5,-10,3,-2,-22,100,-48
1,6,4,-3,-1,5,-10,2,-3,-22,100,-51
1,5,3,-3,-1,5,-10,2,-2,-21,101,-53
1,5,3,-3,-1,4,-10,2,-2,-21,101,-53
1,6,4,-3,-1,5,-9,3,-3,-22,101,-53
1,6,5,-4,-1,5,-10,2,-4,-22,101,-55
1,7,5,-4,-1,5,-11,1,-4,-21,101,-57
1,6,4,-3,-1,5,-11,2,-4,-20,101,-57
1,6,4,-3,-1,4,-10,3,-4,-21,101,-56
1,6,4,-3,-1,4,-10,3,-4,-21,101,-58
1,5,3,-2,-1,4,-11,3,-3,-20,101,-60
0,3,1,-1,0,3,-10,4,-2,-18,101,-61
0,3,1,-1,0,3,-9,5,-2,-18,102,-61
0,3,2,-1,0,3,-9,4,-3,-20,102,-62
0,2,1,-1,0,2,-10,4,-4,-20,102,-63
0,1,0,0,0,0,-10,4,-4,-20,102,-63
0,1,1,0,0,1,-10,4,-4,-21,102,-61
0,3,2,-1,0,2,-10,4,-4,-22,102,-61
0,3,2,-1,0,2,-10,3,-4,-23,102,-63
0,1,1,-1,0,1,-10,3,-3,-23,103,-63
0,1,0,0,0,1,-9,4,-3,-24,103,-62
-1,1,1,0,0,1,-9,4,-4,-26,103,-61
-1,1,2,0,0,1,-10,3,-4,-28,103,-62
-1,0,1,0,0,0,-11,2,-4,-29,103,-63
-1,0,0,0,0,0,-10,2,-4,-31,103,-62
-1,0,1,0,0,1,-10,3,-5,-33,103,-61
0,1,1,0,0,1,-10,2,-5,-35,103,-62
0,1,1,0,0,1,-11,1,-5,-36,103,-63
0,1,1,0,0,2,-10,1,-5,-37,104,-62
0,2,2,-1,0,2,-10,1,-5,-37,104,-61
0,2,2,-1,0,2,-10,1,-6,-38,104,-62
0,1,1,0,0,1,-10,1,-6,-37,104,-62
-1,0,1,0,0,1,-9,1,-5,-35,104,-61
-1,0,1,0,0,1,-8,2,-5,-34,104,-60
0,0,0,0,0,1,-8,2,-5,-34,104,-61
0,0,0,0,1,0,-9,1,-5,-32,105,-63
0,-2,-2,1,2,-1,-8,2,-4,-30,105,-63
-1,-4,-3,2,2,-3,-7,3,-4,-29,105,-62
-1,-4,-3,2,2,-3,-7,3,-4,-29,105,-61
-1,-4,-3,2,2,-4,-7,3,-4,-28,105,-59
-1,-5,-4,3,2,-5,-6,3,-4,-27,105,-55
-1,-5,-5,3,2,-5,-5,3,-3,-26,105,-52
-1,-5,-4,3,2,-5,-5,3,-3,-26,106,-52
-1,-6,-5,3,2,-5,-5,2,-3,-25,106,-54
-1,-7,-6,4,3,-6,-5,2,-3,-23,106,-55
-1,-8,-6,4,3,-6,-4,3,-2,-22,106,-54
-1,-7,-5,4,3,-6,-3,3,-3,-21,107,-54
0,-7,-5,3,3,-6,-4,3,-3,-21,107,-56
0,-7,-6,3,3,-6,-4,3,-3,-19,107,-57
0,-7,-6,4,3,-6,-4,3,-3,-18,107,-57
-1,-6,-5,3,2,-5,-4,3,-3,-19,107,-56
0,-5,-4,3,2,-5,-5,3,-4,-19,107,-58
0,-5,-5,3,2,-5,-5,2,-3,-17,108,-59
-1,-6,-5,4,2,-5,-4,3,-3,-17,108,-58
-1,-6,-4,4,1,-4,-4,3,-3,-18,108,-57
-1,-5,-3,4,1,-4,-4,3,-4,-19,108,-57
-1,-5,-4,3,1,-4,-4,3,-3,-19,108,-57
0,-5,-5,3,2,-4,-4,4,-3,-18,108,-56
-1,-5,-4,3,2,-4,-3,5,-3,-19,109,-54
-1,-4,-3,3,1,-4,-4,4,-4,-20,109,-54
-1,-5,-4,3,2,-4,-4,3,-4,-20,109,-57
-1,-6,-5,3,2,-6,-3,4,-3,-19,109,-57
-1,-7,-5,4,2,-6,-2,5,-3,-19,110,-54
-1,-6,-5,3,1,-5,-2,5,-3,-20,110,-51
-1,-7,-5,3,1,-5,-3,4,-4,-20,110,-48
-2,-8,-5,4,1,-6,-3,4,-4,-19,110,-45
-2,-8,-5,5,1,-6,-3,5,-3,-19,184,-40
-1,-6,-4,4,1,-5,-3,5,-3,-20,86,-36
-1,-5,-4,3,2,-5,-3,4,-3,-19,-305,-34
-1,-7,-5,4,2,-6,-3,4,-3,-17,-206,-31
-2,-8,-5,4,2,-6,-2,5,-2,-17,353,-27
-1,-7,-5,4,2,-6,-2,5,-3,-18,308,-24
-1,-8,-5,5,2,-6,-2,5,-3,-17,-104,-24
-2,-9,-6,6,2,-7,-2,5,-3,-16,-498,-24
-2,-8,-6,6,2,-7,-2,6,-3,-16,-733,-22
-2,-7,-5,5,2,-6,-2,6,-3,-16,-761,-21
-1,-6,-5,4,2,-5,-2,5,-3,-15,-820,-23
-1,-7,-5,4,2,-6,-2,5,-2,-14,-919,-23
-1,-6,-5,4,2,-5,-1,6,-1,-13,-769,-22
-1,-5,-4,3,2,-4,0,6,-1,-13,-740,-22
0,-5,-3,3,1,-3,-1,6,-2,-14,-901,-23
0,-5,-3,3,1,-3,-2,6,-3,-13,-1063,-24
0,-5,-2,3,1,-3,-2,6,-2,-12,-1186,-23
-1,-5,-2,3,1,-3,-1,6,-2,-13,-1097,-22
-1,-4,-1,3,0,-2,-1,6,-3,-13,-1103,-24
-1,-3,-1,2,0,-2,-2,4,-3,-13,-1087,-26
-1,-4,-2,3,0,-3,-2,4,-2,-12,-683,-25
-1,-4,-2,3,0,-3,-1,5,-2,-12,-546,-24
-1,-4,-2,3,0,-3,-1,5,-3,-12,-963,-24
-1,-5,-2,3,1,-3,-1,5,-3,-11,-741,-25
0,-5,-3,3,2,-4,0,6,-2,-10,-503,-28
1,-4,-4,2,2,-4,1,7,-1,-9,-755,-29
1,-4,-4,1,2,-4,1,8,0,-10,-966,-32
1,-5,-6,2,3,-5,1,7,0,-10,-1078,-37
1,-6,-8,2,4,-7,1,7,0,-9,-442,-41
2,-6,-8,2,5,-7,2,8,1,-9,0,-43
3,-5,-8,1,5,-6,3,9,1,-9,257,-45
4,-5,-8,1,6,-7,2,9,1,-9,396,-48
4,-6,-9,1,6,-8,2,9,1,-9,474,-48
4,-6,-9,1,6,-8,3,10,1,-9,462,-41
4,-4,-9,0,6,-7,3,10,0,-9,-270,-32
5,-4,-9,0,7,-6,2,10,0,-9,-743,-28
5,-5,-10,0,8,-7,2,9,1,-8,-1103,-26
5,-5,-11,0,8,-8,3,10,2,-7,-1138,-24
5,-4,-10,0,8,-7,3,11,3,-7,-372,-24
5,-3,-8,0,7,-6,2,11,2,-8,-60,-25
5,-3,-8,-1,7,-5,2,10,2,-7,74,-27
6,-3,-8,-1,7,-5,2,11,3,-6,119,-27
6,-2,-8,-1,7,-5,3,11,3,-7,-540,-28
6,-2,-7,-1,6,-5,2,11,3,-7,-990,-30
6,-2,-8,-1,6,-5,2,10,3,-7,-1237,-33
5,-3,-8,-1,6,-6,3,11,4,-6,-990,-35
5,-4,-8,0,6,-6,4,11,4,-7,-112,-36
4,-4,-8,0,6,-6,4,11,4,-8,747,-37
4,-5,-8,0,6,-6,3,10,3,-8,892,-39
5,-5,-9,0,7,-6,2,10,3,-7,250,-39
5,-4,-8,-1,7,-6,2,10,2,-8,-525,-38
6,-3,-8,-1,7,-5,2,10,1,-9,-1046,-38
6,-3,-8,-1,7,-5,1,8,0,-9,-1342,-40
5,-4,-9,-1,7,-6,0,7,0,-8,-816,-41
5,-4,-8,0,6,-6,1,7,0,-8,-440,-40
5,-3,-7,-1,6,-5,1,7,-1,-9,-221,-40
5,-3,-7,-1,6,-4,0,5,-2,-9,-105,-40
5,-3,-7,0,6,-5,-1,4,-3,-9,-40,-40
4,-4,-7,0,6,-5,0,4,-3,-8,-59,-37
4,-3,-6,0,5,-5,0,4,-4,-9,40,-34
4,-3,-6,0,5,-4,-1,2,-5,-9,852,-33
4,-3,-6,0,5,-5,-1,1,-5,-8,1270,-31
4,-3,-6,0,5,-5,-1,1,-5,-8,1089,-28
4,-2,-6,0,5,-4,0,1,-5,-9,530,-24
4,-2,-6,-1,5,-4,-1,1,-5,-8,-127,-21
5,-2,-6,-1,6,-4,-1,1,-5,-7,-530,-19
5,-2,-6,-1,6,-4,-1,2,-4,-7,-745,-15
5,-1,-6,-1,5,-3,0,3,-5,-7,-681,-11
5,0,-5,-1,5,-3,-1,2,-5,-8,-552,-10
4,-1,-5,-1,4,-3,-1,1,-5,-7,-209,-10
2,-1,-4,0,4,-3,0,2,-4,-7,-135,-8
1,-2,-4,0,3,-2,1,3,-3,-7,-597,-6
1,-2,-3,0,2,-2,1,3,-3,-8,-771,-5
0,-2,-2,1,2,-2,0,3,-4,-9,-550,-6
0,-3,-2,2,1,-3,0,3,-4,-8,-498,-4
0,-3,-2,2,1,-3,1,4,-4,-8,-303,-2
0,-2,-2,2,1,-2,1,4,-4,-8,292,-1
0,-3,-2,2,2,-3,1,3,-4,-8,408,-2
0,-3,-3,2,2,-3,1,2,-4,-7,120,-2
0,-3,-3,1,2,-3,1,3,-4,-7,-166,-1
1,-2,-3,1,2,-2,1,3,-4,-8,-402,-1
1,-2,-3,1,2,-3,1,2,-4,-9,-508,-2
1,-3,-4,1,3,-3,1,2,-4,-8,-531,-2
0,-4,-3,2,2,-3,1,3,-4,-7,-666,0
0,-3,-2,2,2,-3,1,3,-4,-8,-784,0
1,-3,-2,1,2,-3,1,2,-4,-8,-1035,-2
1,-3,-4,1,3,-3,1,2,-4,-7,-554,-3
1,-3,-4,1,3,-3,2,2,-4,-6,-197,-4
1,-3,-4,1,3,-3,2,3,-3,-7,-34,-4
1,-2,-4,0,3,-3,2,2,-3,-7,37,-5
1,-2,-4,0,3,-3,1,1,-3,-7,143,-7
1,-2,-3,1,2,-3,1,1,-3,-6,164,-7
0,-2,-2,1,1,-3,1,2,-3,-7,222,-6
0,-3,-2,2,1,-3,1,1,-4,-7,929,-8
0,-4,-3,2,2,-3,0,1,-4,-6,1286,-11
0,-4,-4,2,2,-3,1,2,-2,-4,979,-12
0,-3,-3,2,1,-3,3,4,0,-4,680,-13
-1,-3,-3,2,1,-3,4,5,1,-3,944,-14
0,-3,-3,2,1,-3,4,6,3,-2,887,-17
-1,-4,-2,2,1,-3,5,8,7,0,199,-19
-2,-4,-1,3,0,-2,8,12,11,1,182,-18
-3,-2,1,3,-2,-1,9,16,16,4,852,-19
-2,-1,2,2,-2,0,10,18,21,9,1185,-19
-1,0,2,0,-2,1,10,20,27,16,1153,-17
1,4,3,-3,-1,3,11,22,32,23,1144,-11
4,7,3,-6,0,5,10,23,35,28,1222,-4
8,11,2,-10,3,6,8,22,34,33,584,2
13,16,2,-15,6,8,4,19,31,38,331,12
19,22,3,-20,8,12,-1,13,23,43,137,27
26,31,5,-28,11,17,-9,3,12,47,50,44
34,40,6,-37,14,23,-20,-10,-4,50,717,59
42,49,6,-45,18,28,-32,-26,-22,53,943,77
49,57,7,-52,20,32,-42,-40,-40,54,1164,95
54,65,10,-59,21,38,-52,-53,-57,55,1309,110
57,71,13,-64,22,42,-61,-66,-75,56,588,117
60,74,14,-67,23,44,-68,-76,-89,55,228,118
60,69,10,-65,25,40,-70,-81,-99,51,12,110
58,59,1,-58,28,30,-67,-80,-104,40,-18,90
55,44,-10,-49,32,17,-62,-75,-106,27,656,59
49,27,-20,-38,34,4,-55,-69,-106,14,1008,27
41,14,-26,-27,33,-6,-47,-63,-105,1,683,1
32,5,-27,-18,29,-11,-40,-56,-104,-13,464,-21
24,-1,-26,-11,25,-13,-35,-52,-103,-26,978,-40
17,-6,-23,-5,20,-15,-31,-49,-100,-36,710,-55
10,-10,-20,0,15,-15,-27,-46,-97,-44,106,-67
5,-12,-16,4,11,-14,-24,-43,-93,-50,-305,-74
2,-12,-14,5,8,-13,-23,-40,-89,-55,-450,-80
1,-13,-14,6,7,-13,-22,-39,-84,-55,172,-86
0,-15,-15,8,7,-15,-20,-36,-77,-53,262,-89
-1,-16,-15,9,6,-15,-17,-31,-68,-50,-38,-89
-2,-15,-13,9,6,-14,-15,-28,-60,-47,73,-89
-2,-14,-12,8,5,-13,-14,-26,-53,-42,501,-89
-2,-13,-12,8,5,-13,-12,-24,-45,-36,452,-87
-2,-13,-12,7,5,-13,-10,-19,-37,-31,-23,-82
-2,-12,-11,7,5,-12,-8,-16,-31,-27,-65,-80
-2,-11,-9,6,4,-10,-7,-14,-26,-24,115,-80
-2,-10,-9,5,3,-9,-6,-12,-22,-20,413,-81
-2,-10,-8,5,3,-9,-4,-10,-18,-17,758,-81
-2,-8,-7,4,3,-7,-2,-7,-14,-15,973,-81
-1,-7,-6,4,3,-6,-2,-5,-12,-13,1132,-82
-1,-7,-7,4,3,-7,-1,-4,-9,-10,676,-83
-1,-7,-6,4,3,-6,0,-3,-7,-9,-185,-82
-1,-6,-5,3,2,-5,0,-2,-6,-9,-610,-82
-1,-5,-3,3,1,-4,0,-2,-5,-9,-809,-84
-1,-5,-3,3,1,-4,-1,-3,-5,-8,-880,-88
-1,-5,-4,3,1,-4,0,-3,-4,-7,-859,-90
-1,-5,-5,3,1,-4,0,-1,-4,-7,-870,-91
-1,-5,-4,3,1,-4,0,-1,-4,-7,-971,-93
-1,-5,-4,3,1,-4,0,-1,-3,-6,-912,-95
-1,-5,-4,3,2,-5,0,-1,-3,-5,-688,-94
-1,-5,-4,3,1,-4,1,0,-2,-5,-449,-93
-1,-4,-3,3,1,-3,1,0,-2,-6,-435,-94
0,-4,-3,2,1,-3,1,-1,-2,-6,-332,-98
-1,-6,-4,3,1,-4,1,-1,-1,-4,-81,-100
-2,-7,-4,4,0,-5,1,0,-1,-3,133,-100
-3,-6,-4,4,0,-5,2,0,-1,-3,489,-100
-2,-6,-4,4,1,-5,1,0,-1,-3,847,-101
-2,-7,-5,5,1,-6,1,0,0,-2,1224,-101
-3,-8,-5,5,1,-6,2,1,1,-1,769,-101
-2,-7,-4,5,0,-5,3,1,1,-1,-223,-105
-2,-6,-3,4,0,-4,2,1,1,0,-736,-111
-2,-6,-3,4,0,-5,2,0,1,0,-973,-115
-3,-6,-3,4,0,-5,2,1,2,0,-1049,-116
-2,-5,-3,4,0,-4,3,1,1,0,-1043,-116
-2,-5,-3,3,0,-4,2,1,0,-1,-997,-115
-2,-5,-4,4,0,-5,2,1,0,0,-907,-111
-2,-6,-4,5,0,-6,4,3,1,0,-778,-104
-3,-7,-4,6,0,-6,5,4,2,0,-645,-98
-2,-7,-4,5,0,-6,5,4,2,-1,-547,-96
-2,-6,-4,5,1,-5,4,4,2,-1,-480,-95
-2,-6,-4,5,1,-6,5,4,2,0,-424,-93
-2,-6,-4,4,1,-5,5,5,2,-1,-378,-91
-2,-5,-4,4,1,-5,5,5,2,-3,-346,-91
-2,-5,-4,4,1,-5,4,5,2,-4,-308,-92
-2,-6,-4,4,1,-5,4,6,3,-3,-240,-90
-3,-6,-3,5,1,-5,5,7,3,-3,-159,-88
-2,-6,-3,5,1,-5,5,8,3,-4,-104,-90
-2,-7,-4,5,1,-6,4,7,3,-4,-81,-94
-2,-8,-4,6,1,-6,4,8,3,-4,-70,-98
-2,-7,-4,5,1,-6,5,9,3,-5,-64,-100
-2,-6,-4,4,1,-5,5,9,3,-6,-93,-101
-1,-5,-4,4,1,-5,4,9,3,-6,-47,-102
-2,-6,-5,4,1,-5,5,10,4,-5,166,-100
-2,-7,-5,5,1,-6,6,11,5,-5,329,-96
-1,-7,-5,5,1,-6,6,12,5,-6,505,-93
-1,-6,-5,4,1,-6,6,11,5,-6,352,-93
-1,-7,-5,4,1,-6,6,10,5,-6,281,-92
-1,-7,-5,4,1,-6,6,10,6,-6,74,-89
-2,-6,-4,4,0,-5,6,10,6,-7,-364,-87
-2,-5,-3,3,0,-3,6,10,6,-7,-117,-86
-1,-4,-3,2,0,-3,6,10,6,-6,495,-83
-1,-5,-3,3,0,-4,7,11,7,-5,422,-78
-2,-5,-3,3,0,-4,8,12,7,-5,-157,-74
-1,-5,-4,3,1,-4,7,11,7,-5,-277,-74
0,-6,-5,3,2,-5,7,11,8,-4,-153,-75
0,-7,-6,4,2,-6,7,11,8,-2,111,-75
-1,-7,-6,4,2,-6,8,12,9,-2,454,-74
-1,-6,-6,4,2,-6,8,12,9,-1,845,-73
-1,-6,-6,4,2,-6,7,12,9,0,1269,-70
-1,-6,-6,4,2,-6,8,12,10,2,857,-64
-1,-5,-5,3,1,-5,8,13,10,3,-112,-57
0,-4,-4,3,1,-4,7,13,10,3,-638,-51
0,-5,-4,3,1,-5,6,12,9,4,-920,-41
0,-6,-5,4,2,-6,6,12,10,6,-1044,-23
0,-7,-6,4,2,-6,7,12,10,7,-1061,-10
0,-6,-6,3,2,-6,7,13,10,8,-999,-5
0,-6,-7,3,3,-6,7,13,10,9,-872,-4
1,-6,-8,3,4,-7,7,13,11,12,-702,-2
0,-6,-7,3,4,-7,8,14,12,13,-544,0
0,-5,-6,2,3,-5,8,15,12,14,-451,0
1,-4,-5,2,3,-5,8,14,11,15,-422,-3
1,-5,-6,2,3,-5,8,14,12,17,-418,-7
1,-5,-6,2,4,-6,8,14,12,19,-408,-9
1,-5,-6,2,3,-5,8,15,11,19,-376,-11
0,-5,-6,2,3,-5,8,14,11,19,-310,-13
0,-6,-7,3,3,-6,7,14,11,20,-207,-15
0,-6,-7,3,3,-7,8,14,12,22,-99,-14
0,-6,-7,3,3,-6,8,15,12,22,-42,-13
1,-5,-6,2,4,-6,7,14,11,23,-54,-16
1,-5,-6,2,4,-6,6,13,12,24,-101,-20
1,-6,-6,3,4,-6,7,14,12,26,-147,-22
1,-6,-6,3,4,-6,8,14,12,27,-172,-24
1,-5,-6,2,4,-6,7,14,12,26,-165,-26
1,-4,-6,1,4,-6,6,13,12,27,-118,-29
1,-4,-6,1,4,-6,6,13,13,29,-45,-29
1,-4,-5,1,3,-5,7,14,13,30,5,-29
1,-4,-5,1,3,-5,6,14,13,30,-1,-31
2,-5,-6,2,3,-6,5,13,13,31,-52,-35
2,-6,-8,2,4,-7,6,14,14,33,-110,-37
2,-6,-8,1,5,-7,6,15,14,34,-149,-37
3,-4,-8,0,5,-6,6,15,14,34,-156,-37
4,-3,-7,0,5,-5,5,14,13,34,-123,-38
4,-3,-7,0,5,-5,5,13,13,35,-56,-37
3,-3,-7,0,5,-5,5,13,13,36,8,-33
3,-2,-6,0,4,-5,5,14,13,36,25,-31
4,-2,-6,0,4,-4,4,13,13,36,-6,-31
4,-2,-6,0,5,-4,3,12,13,37,-54,-30
5,-2,-7,-1,5,-4,4,13,13,38,-89,-27
6,0,-6,-3,6,-3,4,13,13,38,-98,-23
8,1,-6,-5,6,-2,3,12,13,38,-73,-20
8,0,-8,-4,7,-4,2,11,13,39,-16,-16
8,-1,-9,-3,8,-5,2,11,13,40,50,-9
9,0,-10,-4,9,-5,3,12,14,40,87,-1
11,2,-10,-6,9,-4,3,12,13,40,83,5
12,2,-10,-7,10,-4,2,11,13,41,66,10
11,1,-10,-6,10,-5,2,11,13,42,60,16
11,1,-11,-5,10,-5,2,11,13,42,75,22
12,1,-11,-6,11,-5,1,10,12,41,114,26
12,2,-11,-6,11,-5,0,9,11,42,187,28
13,2,-11,-7,12,-5,0,8,12,43,285,32
14,3,-11,-8,12,-5,0,9,12,43,364,38
15,5,-11,-9,13,-4,0,8,12,43,389,41
17,6,-11,-11,13,-3,-2,7,11,44,370,42
17,6,-12,-11,14,-3,-3,6,11,45,334,43
18,7,-12,-12,14,-3,-3,6,11,45,297,46
18,8,-11,-13,14,-2,-3,5,11,44,272,48
20,9,-12,-14,15,-1,-4,4,10,44,266,47
22,9,-13,-15,17,-2,-5,4,10,45,287,46
23,10,-13,-16,18,-1,-5,4,10,45,322,47
23,11,-12,-17,18,-1,-5,3,9,45,343,45
23,10,-13,-17,18,-1,-6,2,8,45,332,42
23,9,-14,-16,18,-2,-7,1,8,47,297,39
24,9,-15,-16,19,-3,-6,2,8,48,258,39
25,10,-15,-17,19,-2,-6,2,7,48,227,39
26,12,-14,-19,19,-1,-7,1,7,48,193,37
26,12,-15,-19,20,-2,-8,0,7,49,151,35
26,11,-15,-18,20,-2,-8,0,7,49,105,36
27,11,-16,-18,21,-2,-7,1,7,49,58,36
27,12,-16,-19,21,-2,-8,0,7,49,16,36
28,12,-16,-20,21,-2,-8,0,6,50,-17,35
29,13,-16,-20,21,-2,-9,-1,6,51,-44,36
29,14,-15,-21,21,-1,-9,0,5,51,-59,38
29,15,-14,-22,21,0,-9,0,5,51,-62,39
29,15,-15,-22,22,0,-10,-1,4,51,-60,39
29,15,-15,-21,22,0,-9,-1,4,52,-52,40
29,15,-15,-21,22,0,-9,0,4,51,-33,41
29,15,-14,-22,21,0,-10,-1,3,50,-12,41
29,15,-14,-22,21,0,-11,-3,3,50,6,39
29,14,-15,-21,22,-1,-11,-3,3,51,17,39
29,13,-15,-21,22,-1,-10,-3,3,51,24,40
29,14,-15,-21,22,0,-10,-3,2,51,28,38
29,14,-15,-21,22,0,-10,-4,2,51,27,34
28,14,-14,-21,21,0,-10,-4,2,51,26,30
28,15,-13,-21,20,1,-10,-4,2,50,30,29
28,16,-12,-22,20,2,-9,-3,2,48,37,28
28,15,-12,-21,20,2,-10,-4,1,47,45,25
27,14,-13,-20,19,1,-10,-4,1,47,50,23
26,13,-12,-19,19,0,-9,-4,1,47,53,24
25,14,-10,-19,17,2,-8,-3,0,45,56,24
24,15,-9,-20,17,3,-9,-3,-1,44,57,22
24,14,-10,-19,17,2,-8,-4,0,44,56,19
23,13,-11,-18,17,1,-7,-3,0,43,61,18
22,11,-11,-16,16,0,-5,-2,0,42,70,17
22,11,-11,-16,16,0,-5,-2,0,41,80,16
22,10,-12,-15,16,-1,-5,-2,0,41,87,16
20,8,-12,-14,16,-2,-4,-2,0,41,89,17
19,8,-11,-14,15,-2,-3,-1,-1,39,89,19
19,9,-10,-14,15,-1,-3,-1,-2,37,87,19
18,8,-10,-13,14,-2,-4,-2,-2,36,83,19
17,7,-10,-12,13,-2,-3,-2,-2,35,81,19
17,7,-10,-11,12,-1,-2,-2,-2,34,83,22
17,8,-9,-11,12,-1,-1,-2,-2,32,85,24
16,7,-9,-11,12,-1,-1,-2,-2,32,85,25
15,6,-9,-11,12,-1,-1,-2,-2,32,83,28
15,6,-9,-10,12,-2,0,-2,-3,31,81,32
15,6,-9,-10,12,-2,0,-1,-3,29,79,35
15,4,-10,-9,12,-3,0,-1,-4,28,77,36
15,2,-12,-8,13,-5,0,-1,-4,28,77,37
14,1,-12,-7,13,-5,1,-1,-3,27,80,40
13,2,-11,-7,12,-4,1,-1,-4,25,81,42
14,3,-11,-8,12,-3,1,-2,-4,24,79,43
14,2,-12,-8,13,-4,1,-3,-4,25,75,44
13,1,-12,-8,13,-5,1,-2,-4,25,71,48
13,1,-12,-7,12,-5,2,-1,-4,24,67,51
13,1,-12,-7,12,-5,1,-2,-4,23,61,51
13,0,-13,-6,13,-6,2,-2,-4,24,56,51
13,0,-13,-5,12,-6,2,-2,-4,23,55,52
13,1,-12,-6,12,-5,3,-2,-5,21,54,55
14,2,-12,-7,12,-4,2,-3,-5,20,52,57
14,1,-13,-7,12,-5,2,-3,-5,21,48,58
14,1,-13,-7,13,-5,2,-3,-5,21,44,60
14,1,-13,-7,13,-5,3,-2,-4,21,41,62
14,2,-12,-8,13,-5,3,-2,-5,20,38,62
14,2,-13,-8,13,-5,3,-2,-5,20,35,60
14,1,-13,-7,13,-6,3,-1,-4,20,35,59
13,1,-13,-6,13,-6,4,-1,-4,20,37,58
13,1,-12,-6,12,-5,4,-1,-5,19,37,57
13,1,-12,-6,12,-5,3,-2,-5,19,35,55
13,1,-13,-6,13,-6,3,-2,-4,20,32,54
12,0,-13,-6,13,-6,4,-1,-4,20,30,56
12,0,-12,-6,12,-6,4,0,-4,19,28,56
13,0,-12,-6,12,-6,3,-1,-4,19,26,54
13,0,-13,-5,13,-7,4,-1,-3,20,26,52
12,0,-13,-5,12,-7,5,0,-3,19,29,52
12,0,-11,-5,11,-5,5,0,-3,18,31,52
12,0,-11,-5,11,-5,4,-1,-3,18,32,50
12,0,-11,-5,11,-5,4,-1,-3,20,32,49
12,0,-11,-5,11,-5,5,0,-2,20,32,49
12,1,-11,-5,11,-5,5,0,-2,20,32,48
12,1,-11,-6,11,-5,5,0,-3,20,32,45
12,1,-11,-6,12,-5,5,0,-2,20,32,42
12,1,-11,-6,11,-5,6,0,-1,20,35,40
12,2,-10,-6,10,-4,6,1,-1,19,38,39
12,3,-9,-7,10,-3,6,1,-1,18,40,37
12,2,-10,-6,10,-4,5,1,-1,19,40,36
12,1,-11,-6,10,-5,6,1,-1,20,40,37
11,1,-11,-5,10,-5,7,2,0,20,42,38
11,1,-10,-5,10,-5,7,2,-1,19,43,38
11,0,-11,-5,10,-5,6,1,-1,19,43,36
11,0,-11,-4,10,-5,7,1,0,20,45,35
11,1,-9,-5,9,-4,7,2,0,19,48,35
11,3,-8,-6,8,-3,6,1,-1,18,49,35
12,4,-8,-6,9,-2,5,1,-1,18,48,35
11,3,-8,-6,9,-3,5,1,0,19,47,36
10,3,-8,-6,8,-3,5,2,0,19,46,39
10,3,-7,-6,8,-2,5,2,0,19,45,41
10,2,-8,-6,8,-3,4,2,0,19,43,40
10,1,-9,-5,9,-3,4,2,0,20,42,40
10,1,-8,-5,8,-3,5,2,0,20,43,41
10,3,-7,-6,8,-2,4,2,0,19,43,42
11,4,-7,-6,8,-1,3,1,0,19,44,41
11,4,-7,-6,8,-1,3,1,0,20,46,42
10,4,-6,-6,8,-1,3,1,0,20,48,44
10,4,-6,-7,8,-1,4,2,0,20,50,47
11,4,-6,-7,8,-1,4,1,0,19,48,47
11,4,-6,-7,8,-1,4,1,0,20,44,46
11,3,-7,-6,8,-2,4,1,0,20,43,46
11,4,-6,-7,8,-1,4,1,0,20,47,46
11,4,-6,-8,8,0,3,1,0,19,53,46
11,4,-6,-7,8,-1,3,1,0,20,58,45
10,3,-7,-7,8,-1,4,1,1,20,60,46
10,2,-7,-7,8,-2,5,2,1,20,62,49
11,2,-7,-7,8,-2,5,2,1,20,61,49
11,2,-7,-7,8,-2,4,2,1,21,56,47
11,3,-6,-7,8,-1,4,1,1,21,52,45
11,5,-4,-8,7,0,4,1,0,20,53,44
11,8,-3,-9,6,2,3,1,0,19,58,43
12,8,-3,-9,7,2,2,0,0,19,62,42
12,7,-4,-9,7,1,2,0,0,20,64,42
11,7,-4,-9,7,1,3,1,1,20,66,43
11,8,-4,-10,6,2,3,1,1,20,66,44
12,8,-3,-10,6,2,3,0,1,20,62,42
12,7,-4,-9,7,1,3,0,1,21,58,40
12,6,-4,-8,7,0,4,1,2,21,58,40
12,8,-3,-9,7,2,4,1,1,20,62,40
13,8,-3,-9,7,2,3,0,0,20,65,38
12,8,-4,-9,7,2,2,0,0,21,67,37
12,8,-4,-9,7,2,3,0,0,21,68,38
12,8,-3,-9,6,2,3,1,0,20,69,39
12,8,-3,-10,6,2,3,0,0,20,66,38
12,7,-4,-9,7,1,2,0,0,21,62,36
11,6,-4,-8,7,0,3,0,0,21,60,35
10,6,-3,-8,6,1,3,0,0,20,63,35
10,7,-3,-8,6,2,2,0,-1,19,66,33
10,7,-4,-8,7,2,1,-1,-1,20,68,32
10,6,-4,-8,7,1,2,-1,0,20,69,33
10,7,-3,-8,6,2,2,-1,-1,19,69,34
10,7,-3,-8,6,2,2,-1,-1,19,68,34
10,7,-3,-8,6,2,2,-2,-1,20,64,32
10,6,-4,-8,6,1,2,-1,0,21,60,32
10,6,-3,-8,5,1,3,-1,0,20,61,32
10,7,-2,-8,5,2,2,-1,-1,19,64,32
10,6,-3,-7,6,1,2,-2,-1,19,66,31
9,5,-3,-7,6,1,2,-2,-1,20,66,31
9,6,-3,-7,5,1,3,-1,-1,20,67,32
9,7,-1,-8,4,3,3,-1,-1,19,66,33
9,7,-1,-8,4,3,3,-2,-2,19,62,31
9,5,-2,-7,5,1,3,-2,-1,20,58,30
8,4,-3,-6,5,0,3,-2,-1,20,58,30
8,5,-2,-6,4,1,3,-2,-1,19,61,30
8,5,-2,-6,4,1,2,-3,-2,18,64,29
8,5,-3,-6,4,1,2,-3,-2,19,65,28
8,5,-2,-6,4,1,3,-2,-1,19,66,29
8,6,-1,-6,4,2,4,-2,-2,18,66,30
8,7,-1,-7,4,2,3,-2,-2,18,64,28
8,7,-1,-7,4,2,3,-3,-2,18,60,27
8,7,-1,-7,4,2,3,-2,-1,18,58,26
8,7,-1,-7,4,2,4,-2,-1,17,60,26
8,6,-1,-6,4,2,3,-2,-2,16,63,25
8,5,-3,-5,4,0,3,-3,-1,17,64,24
8,4,-3,-5,5,0,4,-3,-1,17,65,24
7,5,-2,-6,4,1,4,-2,-1,17,66,26
7,6,0,-7,4,3,3,-3,-2,16,65,25
6,7,0,-7,3,3,2,-4,-2,16,60,23
6,6,0,-6,3,3,3,-4,-2,17,57,22
6,6,0,-6,2,3,4,-4,-2,16,59,23
7,7,0,-7,2,4,3,-4,-2,15,62,23
7,7,0,-7,3,3,2,-5,-3,15,64,22
7,6,-1,-7,3,3,2,-5,-2,16,65,22
7,6,-1,-7,3,3,3,-4,-2,15,65,23
7,8,0,-8,3,4,2,-5,-3,14,64,23
7,8,0,-8,4,4,2,-5,-4,14,60,21
7,6,0,-7,4,3,2,-5,-3,14,56,20
7,5,-1,-6,5,2,4,-4,-2,14,57,21
8,6,-1,-6,5,2,4,-3,-2,13,60,21
8,6,-2,-7,5,2,3,-4,-3,13,62,20
8,6,-2,-7,5,2,3,-5,-3,13,62,19
8,6,-2,-6,5,2,3,-4,-2,13,63,20
7,6,-1,-7,4,2,3,-4,-3,12,63,20
8,7,0,-8,4,4,2,-5,-4,12,62,19
9,8,0,-8,4,4,2,-6,-4,12,58,17
9,8,0,-8,4,4,3,-5,-3,12,56,17
9,8,0,-8,4,4,3,-5,-4,11,58,18
9,9,0,-9,4,4,1,-5,-5,10,60,17
10,8,0,-9,4,4,0,-6,-5,11,62,16
10,7,-1,-8,5,3,1,-6,-4,11,63,16
9,7,-1,-8,5,2,1,-5,-4,11,64,18
9,8,-1,-9,4,3,1,-5,-5,10,64,17
9,7,-2,-8,5,3,0,-6,-5,10,61,15
9,6,-3,-7,5,1,1,-5,-5,11,58,14
8,6,-2,-7,5,1,1,-5,-5,10,59,15
8,7,-2,-7,5,2,1,-5,-5,9,62,14
9,6,-2,-7,5,1,0,-6,-5,9,63,13
8,5,-3,-7,5,1,0,-6,-5,9,63,12
8,5,-2,-7,5,1,0,-6,-5,9,64,13
8,6,-2,-7,5,1,0,-5,-5,8,64,13
8,5,-3,-7,6,1,0,-6,-5,8,62,12
8,4,-4,-6,6,0,0,-6,-5,8,59,11
8,3,-4,-6,6,0,0,-5,-4,8,60,12
8,4,-3,-6,5,0,0,-5,-5,7,63,12
8,5,-3,-6,5,0,0,-6,-5,7,64,10
7,3,-4,-5,5,-1,-1,-7,-6,7,64,9
7,2,-4,-5,5,-1,0,-6,-6,7,65,10
7,3,-4,-5,5,-1,0,-6,-6,6,65,11
7,3,-4,-6,5,0,-1,-7,-6,6,64,10
8,2,-5,-5,6,-1,-1,-7,-6,7,61,9
8,2,-6,-5,7,-2,0,-6,-5,8,60,10
8,2,-5,-5,6,-1,0,-5,-6,7,62,10
8,3,-5,-5,6,-1,0,-6,-6,6,64,9
8,3,-5,-5,6,-1,-1,-7,-7,6,65,8
8,2,-6,-5,7,-2,0,-7,-7,6,65,8
8,2,-5,-5,6,-1,0,-7,-7,5,65,9
8,3,-5,-6,6,-1,-1,-7,-7,5,65,9
8,2,-6,-5,7,-2,-1,-8,-7,5,62,7
8,0,-7,-4,7,-3,0,-7,-6,6,60,7
7,0,-6,-4,7,-3,0,-6,-6,6,61,8
7,1,-5,-4,6,-2,0,-6,-6,5,63,8
7,2,-5,-4,6,-2,-1,-7,-7,5,63,7
7,1,-6,-4,6,-2,0,-8,-7,6,63,6
7,1,-6,-4,6,-2,0,-7,-7,5,64,8
7,1,-6,-4,6,-2,0,-7,-7,4,64,8
7,0,-6,-4,6,-3,0,-8,-7,4,62,6
7,0,-7,-3,6,-3,-1,-8,-7,5,59,5
7,0,-6,-4,6,-2,0,-8,-7,5,59,6
7,2,-5,-4,6,-1,0,-7,-7,4,61,6
8,2,-5,-4,6,-1,-1,-8,-8,3,63,4
8,1,-7,-4,7,-2,-1,-9,-8,4,63,4
8,0,-7,-4,8,-3,0,-8,-7,5,64,5
8,1,-7,-4,8,-3,0,-7,-7,4,65,6
8,0,-8,-4,8,-3,0,-8,-7,4,64,5
8,-1,-8,-3,8,-4,0,-8,-7,4,61,4
7,-1,-8,-2,7,-5,0,-8,-6,4,60,4
7,-1,-7,-2,7,-4,0,-7,-6,3,63,4
7,-1,-7,-2,7,-4,0,-7,-7,2,64,4
7,-1,-8,-2,7,-4,0,-8,-7,3,65,3
6,-1,-7,-2,7,-4,0,-8,-7,4,65,4
6,0,-6,-3,6,-3,0,-7,-7,3,65,6
7,1,-5,-3,6,-2,0,-8,-7,3,66,6
7,0,-6,-3,6,-3,0,-8,-7,3,64,6
7,0,-7,-3,7,-4,0,-8,-6,4,62,6
7,-1,-7,-3,7,-4,1,-7,-6,3,63,7
7,-1,-8,-3,7,-4,0,-7,-7,2,65,7
7,-2,-8,-3,8,-5,0,-8,-7,3,66,6
7,-2,-8,-3,8,-5,0,-8,-7,3,67,6
7,-1,-7,-3,7,-4,1,-8,-7,3,67,8
6,0,-7,-3,7,-4,1,-8,-7,2,68,9
6,-1,-7,-3,7,-4,0,-8,-7,2,67,8
6,-1,-8,-2,7,-5,0,-8,-6,3,65,7
6,-1,-7,-3,7,-4,1,-7,-6,3,65,8
7,0,-6,-3,7,-3,1,-6,-6,3,68,8
7,0,-7,-4,7,-3,1,-7,-6,3,69,7
7,-1,-8,-3,8,-4,1,-7,-6,4,69,6
7,-2,-9,-2,8,-5,3,-5,-5,4,69,8
7,-2,-9,-2,8,-5,4,-4,-4,4,69,9
8,-2,-9,-3,8,-5,3,-5,-4,3,68,8
8,-2,-9,-3,8,-5,3,-5,-4,4,64,6
8,-1,-9,-3,9,-5,3,-5,-4,4,62,6
9,0,-9,-4,9,-4,3,-4,-4,3,64,7
9,0,-9,-4,9,-4,3,-4,-5,2,66,6
10,-1,-11,-4,11,-6,3,-4,-4,3,66,4
10,-4,-13,-3,12,-8,4,-3,-4,3,67,5
10,-5,-14,-2,12,-9,5,-2,-3,3,68,7
11,-4,-14,-3,13,-9,4,-2,-3,2,69,6
12,-4,-15,-3,13,-9,3,-3,-3,3,68,5
12,-4,-15,-3,14,-10,4,-2,-2,4,66,5
12,-4,-15,-3,13,-9,4,-1,-2,3,68,6
12,-3,-14,-4,13,-8,4,-1,-3,2,70,6
11,-3,-14,-4,13,-8,4,-2,-3,3,70,5
11,-3,-14,-3,13,-8,4,-2,-2,4,70,5
10,-2,-12,-4,12,-7,4,-2,-2,3,71,6
10,0,-11,-5,11,-5,4,-2,-2,3,71,6
10,0,-11,-5,11,-5,3,-2,-2,3,70,4
10,-1,-11,-4,11,-6,3,-2,-2,3,67,4
9,-2,-12,-3,11,-7,4,-1,-2,3,68,5
9,-2,-11,-3,10,-6,4,-1,-2,2,71,5
10,-2,-11,-3,11,-6,3,-2,-3,2,71,4
10,-2,-12,-4,12,-7,2,-2,-4,2,70,3
10,-2,-12,-4,12,-7,3,-2,-4,1,70,3
10,-1,-12,-4,11,-7,2,-3,-6,0,70,3
10,-1,-12,-4,11,-7,1,-4,-7,0,70,2
11,-2,-12,-4,12,-7,1,-5,-7,0,68,1
11,-2,-13,-4,12,-8,1,-5,-7,0,67,1
10,-2,-12,-4,11,-7,2,-5,-8,0,69,2
10,-1,-12,-4,11,-6,1,-7,-10,-1,71,1
10,-2,-12,-3,11,-7,0,-9,-11,0,70,0
9,-4,-13,-3,11,-8,1,-10,-11,0,71,0
9,-4,-12,-3,11,-8,2,-9,-11,0,72,2
7,-3,-10,-2,9,-6,2,-10,-11,-1,73,2
4,-4,-7,0,6,-5,2,-10,-11,0,71,1
1,-4,-5,1,3,-4,3,-9,-10,1,70,2
-1,-3,-1,2,0,-2,5,-7,-9,1,73,4
-3,-2,1,2,-2,0,5,-6,-9,1,75,5
-4,-2,3,3,-4,1,5,-6,-8,3,75,4
-6,-3,4,5,-5,1,7,-5,-7,4,75,5
-7,-3,5,5,-6,2,8,-4,-6,5,76,7
-7,-2,7,5,-8,3,9,-3,-6,4,77,8
-8,-2,8,5,-9,3,9,-3,-6,5,76,7
-10,-3,9,7,-10,3,10,-3,-5,6,74,6
-13,-3,11,8,-12,4,11,-1,-5,6,74,7
-14,-2,12,8,-13,5,11,-1,-5,4,76,7
-15,-3,12,9,-13,4,11,-1,-5,4,76,5
-15,-5,11,11,-13,3,12,-1,-4,5,75,4
-16,-6,11,11,-14,3,13,0,-4,5,75,5
-17,-5,12,11,-15,4,13,0,-4,4,76,6
-17,-4,13,10,-15,5,12,-1,-5,4,76,4
-17,-3,14,10,-15,5,12,-1,-5,4,74,3
-17,-3,14,10,-16,5,12,-1,-5,4,73,3
-17,-2,15,10,-16,6,12,0,-5,4,75,4
-17,-2,15,10,-16,6,12,-1,-5,4,77,3
-17,-3,14,10,-16,6,12,-1,-5,5,77,2
-17,-3,14,10,-16,6,13,-1,-4,6,77,3
-17,-2,15,10,-16,6,13,0,-4,5,78,5
-17,-2,15,10,-17,7,13,-1,-4,5,79,4
-17,-2,15,10,-16,6,13,-1,-4,5,77,3
-17,-3,15,11,-16,6,13,-1,-4,6,76,4
-18,-3,15,11,-17,6,14,0,-4,6,78,5
-18,-2,16,10,-17,7,14,0,-4,5,79,5
-18,-2,16,10,-17,7,13,-1,-4,5,79,3
-19,-3,16,11,-17,7,13,-1,-4,6,78,3
-19,-2,17,11,-18,7,14,0,-3,5,79,5
-18,-1,17,11,-18,8,14,0,-3,5,80,5
-18,-1,17,11,-18,8,13,0,-3,5,79,3
-19,-2,17,11,-18,7,14,1,-1,6,77,4
-19,-2,17,11,-18,7,15,3,0,7,78,5
-19,-1,18,11,-18,8,15,5,2,8,81,6
-20,0,19,10,-19,9,15,6,4,9,81,5
-21,-1,19,11,-19,9,16,8,7,11,81,4
-23,-1,21,12,-21,10,18,12,12,13,81,6
-23,0,23,11,-23,12,20,16,18,16,84,8
-22,2,25,10,-23,14,21,18,24,22,87,10
-20,4,25,8,-23,15,21,21,30,29,90,14
-17,7,25,5,-21,16,22,24,35,35,94,20
-13,11,25,1,-19,18,21,25,38,40,100,28
-8,16,24,-3,-17,20,18,24,37,44,106,35
-3,21,24,-8,-14,23,13,19,33,49,112,44
2,27,25,-14,-11,26,7,12,26,55,119,57
9,36,27,-22,-9,32,-1,2,13,59,128,74
17,46,29,-31,-6,38,-13,-13,-3,61,137,89
25,55,29,-40,-2,42,-26,-29,-22,63,142,105
33,62,29,-48,1,46,-37,-44,-41,65,147,123
39,69,31,-54,4,50,-47,-57,-59,66,154,140
43,75,32,-59,5,54,-56,-70,-77,67,157,153
46,78,32,-62,7,55,-63,-80,-92,66,153,157
45,72,27,-59,9,50,-65,-85,-102,61,142,152
42,60,18,-51,12,39,-61,-83,-107,50,124,135
38,44,7,-41,15,26,-55,-78,-109,35,103,109
32,28,-2,-30,17,13,-48,-71,-108,22,83,81
24,17,-7,-21,16,5,-40,-64,-107,9,64,58
16,9,-7,-12,12,0,-33,-57,-106,-4,47,39
7,3,-4,-5,7,-1,-28,-52,-104,-16,30,23
-1,-1,-1,1,1,-1,-24,-49,-101,-25,11,10
-8,-5,2,7,-4,-2,-20,-46,-97,-31,-5,0
-13,-8,5,11,-8,-2,-16,-42,-92,-36,-16,-6
-15,-9,6,12,-10,-1,-14,-39,-87,-39,-20,-10
-17,-10,7,13,-12,-1,-13,-36,-81,-39,-21,-13
-19,-12,7,15,-13,-2,-11,-33,-73,-37,-19,-15
-21,-12,8,17,-14,-2,-9,-29,-64,-34,-15,-14
-22,-11,11,17,-16,0,-6,-26,-56,-30,-12,-13
-22,-10,12,16,-17,1,-5,-24,-48,-26,-13,-12
-23,-9,13,16,-17,2,-3,-21,-39,-20,-14,-11
-23,-9,13,16,-18,2,0,-17,-31,-15,-13,-8
-23,-7,15,15,-19,4,1,-13,-25,-12,-10,-5
-22,-5,18,14,-20,6,2,-10,-21,-9,-6,-4
-22,-4,18,14,-20,7,2,-9,-16,-6,-2,-3
-22,-3,19,13,-21,8,4,-6,-12,-3,2,-2
-22,-2,21,13,-21,9,5,-3,-9,-1,6,0
-23,-1,22,12,-22,10,6,-1,-6,0,5,1
-23,-1,22,12,-22,10,6,0,-4,2,2,1
-23,-2,21,13,-22,9,7,0,-1,5,0,2
-23,-1,22,12,-22,10,9,2,0,6,1,4
-23,0,23,11,-22,11,9,2,1,6,2,5
-23,0,24,11,-23,12,8,1,2,7,4,3
-23,0,24,11,-23,12,7,1,2,7,5,3
-23,0,24,12,-23,12,8,1,3,7,7,3
-23,1,25,11,-23,13,8,2,3,7,7,4
-22,2,24,11,-23,13,8,2,3,7,3,3
-22,1,23,11,-23,12,8,2,4,9,0,3
-23,0,23,12,-23,12,10,3,5,10,0,5
-23,0,23,12,-23,12,10,4,6,10,1,6
-23,0,23,11,-23,12,9,3,6,9,2,5
-22,0,23,11,-22,11,9,3,6,10,3,4
-22,0,23,11,-22,11,9,3,6,10,5,5
-22,0,23,11,-22,12,10,4,6,9,6,5
-22,0,23,11,-22,12,9,4,6,9,4,5
-22,0,22,11,-22,11,9,3,6,10,0,4
-22,0,22,11,-22,11,10,4,7,11,-1,5
-22,1,23,10,-23,12,10,4,7,10,0,7
-22,2,24,10,-23,13,10,4,7,10,0,6
-22,1,23,10,-22,12,9,3,7,10,1,5
-22,1,22,10,-22,11,9,4,7,11,3,6
-21,1,23,10,-22,12,10,4,8,10,5,7
-21,2,24,9,-22,13,10,4,7,10,4,7
-20,1,22,9,-21,12,9,4,7,10,0,6
-20,0,21,10,-21,11,10,4,8,11,-1,6
-21,0,21,10,-22,11,11,5,8,11,-1,8
-21,1,22,10,-22,12,11,5,8,10,0,9
-21,2,22,10,-22,12,10,4,7,10,1,8
-21,1,22,10,-21,12,10,4,7,11,1,7
-21,1,22,10,-21,12,11,5,8,10,3,8
-21,1,22,10,-21,11,11,5,8,9,2,8
-20,0,20,11,-21,10,10,5,8,9,0,6
-20,-1,19,11,-20,9,11,5,8,10,-2,6
-21,-1,19,11,-20,9,11,5,9,10,-2,7
-21,0,21,10,-21,11,11,5,8,10,-1,7
-20,1,21,10,-21,11,11,5,8,10,0,6
-20,0,20,10,-20,10,11,5,9,11,1,6
-20,-1,19,10,-19,9,12,6,9,12,3,7
-19,0,20,9,-19,10,12,7,9,11,3,8
-19,1,20,9,-20,11,11,6,8,10,1,6
-19,0,19,9,-19,10,11,6,8,11,-2,5
-18,0,18,9,-19,10,12,6,9,12,-2,5
-18,0,19,9,-18,10,13,7,10,11,-1,7
-18,0,19,9,-18,9,12,7,10,11,0,6
-18,0,18,10,-17,8,12,7,10,11,0,5
-18,-1,17,10,-17,7,12,7,10,12,1,5
-18,-1,17,9,-17,8,12,7,10,11,3,6
-18,0,18,9,-18,9,12,7,9,10,2,5
-18,0,17,9,-18,9,11,6,9,10,-1,3
-18,0,17,9,-18,8,11,6,9,11,-2,3
-18,0,17,9,-18,8,12,7,10,11,-2,4
-17,0,17,9,-18,9,12,7,9,10,-1,4
-17,0,17,8,-17,9,11,6,9,10,-1,3
-16,0,17,8,-16,8,11,6,10,10,-1,3
-16,0,17,8,-16,8,12,7,10,10,0,4
-16,0,17,7,-16,9,12,7,10,10,1,5
-15,0,16,7,-16,8,12,7,10,10,0,4
-15,-1,15,8,-15,7,12,7,10,12,-2,3
-15,-1,15,8,-15,7,12,8,11,12,-1,4
-15,0,16,8,-16,8,12,8,10,11,-1,5
-15,0,16,8,-16,8,11,7,10,11,-1,4
-15,0,15,8,-15,7,11,7,10,11,-1,3
-15,0,15,7,-15,7,12,7,10,11,0,4
-15,1,15,7,-15,8,12,8,9,10,0,5
-15,1,15,6,-15,8,11,7,9,10,-1,4
-15,0,14,7,-15,7,11,7,9,11,-3,3
-15,-1,14,8,-15,6,12,8,11,12,-3,4
-15,-1,14,8,-15,6,12,9,11,12,-2,6
-14,0,14,7,-15,7,11,8,11,11,-2,6
-14,0,14,7,-14,6,11,8,11,12,-2,5
-14,-1,13,7,-14,6,11,8,12,12,-1,5
-14,0,13,7,-14,6,12,9,12,11,0,6
-14,0,14,6,-14,7,11,9,11,10,-1,6
-13,0,13,6,-13,7,11,8,11,11,-4,4
-13,0,13,6,-13,6,11,8,12,13,-4,4
-13,0,13,6,-13,6,12,9,12,13,-4,6
-13,0,14,6,-13,7,11,9,11,12,-3,6
-13,0,13,6,-13,6,10,9,11,13,-3,5
-13,0,12,7,-12,5,10,9,12,14,-3,5
-13,0,13,7,-13,6,11,9,12,14,-1,6
-13,1,14,6,-13,8,11,9,12,13,-1,6
-12,2,14,5,-13,9,10,8,11,13,-3,5
-12,2,14,5,-13,8,10,8,12,14,-5,4
-11,2,13,5,-13,8,11,10,13,15,-3,6
-11,2,13,4,-13,8,11,11,13,15,-2,7
-11,2,13,4,-13,8,10,10,12,15,-2,6
-11,1,12,4,-12,7,10,10,12,15,-2,5
-11,1,13,4,-12,7,10,10,12,15,-2,6
-11,2,13,4,-13,8,10,10,12,15,0,7
-10,3,13,4,-12,8,9,9,12,15,-1,6
-10,2,12,4,-11,7,9,9,12,16,-3,6
-10,2,12,4,-11,7,10,9,13,17,-3,9
-10,3,12,3,-11,8,10,10,13,17,-1,11
-9,4,13,2,-11,8,9,9,13,17,-1,12
-8,4,13,2,-10,8,8,8,13,17,-1,12
-8,4,12,2,-10,8,9,9,13,18,0,13
-7,4,13,1,-11,9,9,10,13,18,1,15
-7,5,13,1,-10,9,9,10,13,18,2,15
-6,4,11,1,-9,8,8,9,14,19,0,14
-6,3,9,1,-8,6,9,10,15,20,0,14
-6,3,9,1,-7,6,9,11,15,20,1,16
-6,4,10,0,-8,7,8,11,15,20,2,17
-5,4,10,0,-8,7,7,10,14,21,3,16
-5,4,9,0,-7,7,7,10,14,22,3,16
-4,5,10,-1,-7,7,8,10,14,22,4,17
-3,7,11,-2,-7,9,7,10,14,21,5,18
-3,8,11,-2,-7,10,6,9,13,22,4,17
-2,8,10,-2,-7,9,5,8,14,24,3,17
-2,8,10,-2,-6,9,6,9,15,25,5,19
-1,8,10,-3,-6,9,5,9,14,24,6,20
0,9,10,-4,-6,9,4,8,14,24,6,20
0,9,9,-4,-5,9,3,8,14,25,6,20
1,9,9,-5,-4,10,3,8,14,25,8,21
1,10,9,-6,-4,10,3,9,13,25,10,23
2,11,9,-6,-3,10,2,8,12,25,9,23
2,11,8,-7,-3,10,1,7,12,26,8,22
3,11,7,-7,-2,9,2,8,13,27,9,24
3,11,8,-7,-2,10,2,8,12,26,11,26
4,12,8,-8,-2,10,1,7,11,26,11,26
5,13,8,-9,-1,10,0,6,11,27,11,25
6,13,8,-9,-1,10,0,6,11,28,12,27
6,13,8,-9,-2,11,0,6,11,28,14,29
6,14,9,-10,-2,12,0,6,10,28,15,30
7,14,8,-10,-1,11,-1,5,10,29,13,30
7,14,7,-10,0,10,-1,5,11,30,14,31
7,15,7,-10,0,11,0,6,11,30,15,33
8,16,7,-11,0,11,-1,5,10,29,16,34
9,17,7,-12,0,12,-2,4,9,29,16,33
10,17,7,-13,0,12,-2,4,9,30,16,33
10,17,7,-13,0,12,-2,5,9,30,18,35
10,17,7,-13,0,12,-2,5,8,29,19,36
11,17,6,-13,1,12,-3,6,8,30,17,34
10,16,5,-12,2,11,-3,7,8,31,16,34
10,15,5,-12,2,10,-3,8,8,31,16,35
10,16,6,-13,1,11,-3,8,7,30,17,36
10,17,6,-14,1,12,-3,7,7,30,17,35
10,16,6,-13,2,11,-4,7,7,30,17,35
10,16,6,-13,2,11,-3,7,7,30,18,35
10,17,7,-14,1,12,-3,8,6,29,19,36
10,17,7,-14,1,12,-3,7,6,29,18,34
10,17,7,-13,1,12,-3,7,6,29,15,32
9,17,8,-13,0,13,-2,7,6,28,14,32
8,19,10,-14,-1,15,-2,7,5,27,14,32
8,20,11,-14,-2,16,-2,7,4,26,13,30
7,18,11,-13,-2,15,-2,6,4,26,13,29
7,17,10,-12,-2,14,-1,7,5,26,13,28
6,16,9,-11,-2,13,0,9,5,25,14,29
5,15,10,-10,-2,13,0,9,4,24,13,28
5,15,10,-9,-3,12,0,8,4,24,10,25
4,14,10,-8,-3,12,1,9,5,24,8,24
3,13,11,-7,-4,12,3,10,5,23,8,24
1,13,12,-7,-5,13,3,10,4,21,6,22
0,12,12,-6,-6,12,3,9,4,20,4,19
0,10,11,-5,-6,11,4,10,4,19,3,17
0,10,11,-4,-7,10,5,11,4,18,3,17
-1,10,12,-4,-8,11,6,11,3,16,2,16
-3,9,12,-3,-8,11,6,10,3,15,0,13
-4,7,11,-1,-8,10,7,10,4,15,-3,10
-5,6,11,0,-8,9,8,11,4,14,-4,9
-5,7,12,0,-8,10,8,11,3,12,-5,8
-5,8,12,0,-8,10,8,11,3,11,-6,6
-6,6,12,0,-9,9,9,11,3,10,-7,4
-7,5,12,2,-10,9,10,12,3,9,-8,4
-8,4,12,2,-10,8,11,13,3,8,-7,3
-8,4,12,2,-10,8,11,13,3,7,-9,1
-8,3,11,3,-10,8,11,13,3,8,-13,-1
-9,3,11,3,-11,8,12,14,3,8,-14,-1
-10,3,13,4,-11,8,13,14,3,7,-14,-1
-10,3,13,4,-12,8,13,14,3,6,-15,-2
-11,1,12,5,-11,7,12,13,3,6,-16,-4
-12,1,13,6,-12,6,13,13,3,5,-16,-5
-13,1,15,6,-14,8,15,15,3,4,-15,-4
-14,2,16,6,-15,8,15,15,3,3,-16,-5
-14,1,15,6,-14,7,14,14,3,3,-18,-8
-13,0,13,7,-13,6,14,13,3,3,-20,-9
-13,0,12,7,-13,5,15,14,3,2,-19,-8
-13,-1,11,7,-12,5,15,14,3,0,-19,-9
-13,-2,11,7,-12,5,15,14,3,0,-20,-10
-14,-3,11,8,-13,4,15,14,3,1,-20,-11
-15,-3,12,9,-13,4,17,15,3,1,-19,-10
-15,-3,13,9,-14,5,17,15,3,0,-18,-9
-15,-2,14,9,-15,6,17,15,3,0,-20,-11
-15,-3,13,9,-14,5,17,15,3,1,-21,-13
-15,-3,12,9,-14,4,17,16,3,0,-21,-13
-14,-1,12,8,-13,5,17,16,3,-1,-21,-13
-13,-1,12,7,-13,5,16,15,2,-2,-22,-15
-13,-2,11,7,-12,4,16,15,3,-1,-23,-16
-13,-2,12,8,-13,5,17,16,3,-1,-22,-15
-14,-1,13,8,-14,6,18,16,3,-2,-21,-15
-14,-1,13,8,-14,6,17,15,3,-3,-23,-16
-14,-2,12,8,-14,5,17,15,3,-2,-24,-17
-15,-4,12,9,-14,4,17,15,4,-1,-23,-16
-16,-5,11,10,-14,4,17,16,4,-1,-22,-15
-16,-5,11,10,-14,3,17,15,4,-2,-23,-16
-17,-5,12,11,-14,3,16,15,3,-2,-24,-18
-17,-5,12,11,-15,3,17,15,3,-2,-24,-18
-17,-5,12,11,-15,4,18,16,3,-2,-23,-17
-17,-4,13,11,-15,4,17,15,2,-3,-23,-17
-17,-5,12,11,-15,4,17,15,2,-2,-25,-19
-17,-6,11,12,-15,3,18,16,4,-1,-24,-18
-18,-6,12,12,-15,3,19,18,5,0,-23,-17
-17,-6,12,12,-15,3,19,18,5,-1,-22,-17
-17,-5,12,12,-14,3,18,17,5,-1,-22,-18
-18,-4,14,11,-15,4,18,17,5,-1,-23,-18
-17,-2,16,10,-16,6,18,17,4,-2,-23,-18
-16,-1,16,9,-16,7,18,17,4,-3,-22,-18
-16,-3,13,10,-15,5,17,16,4,-2,-23,-20
-17,-4,12,11,-15,4,18,16,4,-1,-24,-21
-18,-5,13,12,-16,4,19,17,5,-1,-23,-20
-18,-5,14,12,-17,4,19,18,5,-2,-23,-19
-18,-5,14,12,-16,4,18,17,4,-3,-23,-20
-18,-7,12,13,-15,2,18,16,4,-2,-24,-21
-18,-8,11,13,-15,1,19,17,5,-2,-23,-20
-18,-6,12,12,-15,2,19,17,5,-2,-22,-19
-17,-5,12,11,-15,3,18,17,4,-2,-22,-20
-17,-5,12,11,-15,3,18,16,4,-1,-24,-22
-17,-5,13,12,-16,4,19,17,5,-1,-23,-21
-18,-3,15,11,-17,5,19,18,5,-1,-22,-20
-17,-2,15,10,-17,6,19,17,5,-1,-21,-21
-17,-3,14,10,-16,5,18,17,6,0,-21,-21
-17,-4,13,11,-15,4,19,17,6,0,-21,-21
-17,-4,14,11,-15,4,19,17,6,0,-20,-20
-17,-4,14,11,-15,5,19,17,5,-1,-21,-20
-17,-4,13,11,-15,4,18,16,5,-1,-23,-22
-17,-5,13,11,-16,4,19,16,5,0,-23,-22
-18,-4,14,11,-17,5,19,16,5,-1,-23,-21
-18,-3,16,11,-18,6,18,16,4,-2,-23,-21
-18,-2,16,11,-17,6,17,15,4,-2,-23,-22
-18,-3,15,11,-16,5,17,15,5,-1,-23,-21
-18,-3,15,11,-16,5,18,16,5,0,-21,-19
-18,-3,15,10,-16,6,18,16,5,0,-20,-18
-17,-3,14,10,-16,6,17,15,5,0,-21,-20
-17,-4,14,11,-16,5,17,15,5,0,-23,-21
-18,-4,14,11,-17,5,18,16,6,0,-22,-20
-17,-2,16,10,-17,7,18,17,6,-1,-21,-19
-17,-1,16,9,-17,8,18,16,6,-1,-21,-20
-17,-1,16,10,-17,7,18,15,6,0,-22,-20
-17,-1,16,10,-17,7,18,15,6,0,-21,-19
-17,0,17,9,-18,8,18,15,6,-1,-20,-18
-17,0,17,8,-18,9,16,14,5,-1,-21,-19
-17,0,17,8,-18,9,16,14,5,0,-22,-19
-18,-1,17,10,-18,8,16,15,5,0,-21,-18
-18,-1,17,10,-18,8,17,15,5,0,-20,-16
-18,-1,18,10,-18,8,16,14,4,0,-20,-16
-18,-1,17,10,-17,8,16,14,4,0,-21,-17
-18,-2,17,10,-17,7,16,14,5,1,-20,-16
-18,-1,17,10,-18,8,16,14,4,0,-19,-15
-17,-1,17,9,-18,8,15,14,4,0,-19,-16
-17,-1,16,9,-17,8,15,13,4,0,-20,-17
-17,-1,16,9,-17,8,15,13,5,1,-20,-16
-17,-1,17,9,-18,8,16,14,5,0,-20,-15
-17,0,18,9,-18,9,15,13,4,0,-20,-15
-17,0,17,10,-17,8,15,12,3,0,-21,-16
-17,-1,16,10,-17,7,15,12,4,0,-21,-16
-17,-1,16,9,-17,7,16,13,4,0,-20,-15
-17,0,17,8,-17,8,16,13,4,0,-20,-15
-17,0,17,8,-17,9,15,12,4,0,-21,-17
-17,-1,17,8,-17,8,15,12,4,0,-22,-17
-17,0,18,8,-17,9,15,13,4,0,-21,-16
-17,0,19,8,-18,10,15,12,4,-1,-20,-15
-17,1,18,8,-17,9,14,11,3,-1,-21,-16
-17,0,17,8,-17,8,14,11,3,-1,-22,-17
-17,0,17,8,-17,8,14,12,3,-1,-22,-16
-17,0,17,8,-17,9,14,13,3,-1,-21,-15
-17,0,17,8,-17,9,14,12,2,-1,-22,-17
-17,0,16,8,-17,8,13,12,3,-1,-23,-18
-17,0,16,8,-17,8,14,12,3,-1,-23,-18
-17,0,18,8,-17,9,14,12,3,-2,-23,-17
-17,0,18,8,-17,9,13,12,2,-3,-23,-18
-17,-1,17,9,-17,7,13,11,1,-3,-24,-19
-17,-2,16,10,-17,7,13,11,2,-2,-24,-19
-17,-1,16,9,-17,8,13,12,1,-3,-23,-18
-17,0,16,9,-17,8,13,12,1,-3,-23,-18
-17,0,16,9,-17,8,12,11,1,-2,-24,-20
-17,-1,15,9,-16,7,12,11,2,-2,-24,-19
-17,0,17,8,-17,8,13,12,2,-3,-23,-18
-17,0,18,8,-17,9,12,11,1,-4,-23,-18
-16,0,17,8,-17,8,11,10,1,-4,-24,-19
-16,-1,16,8,-16,7,11,10,2,-3,-25,-19
-17,-1,15,9,-16,7,13,10,3,-3,-23,-18
-17,-1,15,9,-16,7,13,11,3,-4,-22,-17
-16,-2,14,9,-15,6,13,10,3,-4,-24,-19
-16,-3,13,9,-15,5,13,10,4,-3,-25,-19
-17,-3,15,10,-16,6,13,11,4,-4,-24,-18
-17,-1,16,9,-16,8,13,11,3,-5,-24,-18
-16,0,17,8,-16,8,12,10,3,-5,-24,-18
-16,-1,16,9,-16,7,12,9,3,-4,-25,-19
-17,-2,15,10,-16,6,12,10,3,-4,-25,-18
-18,-2,16,10,-17,6,13,10,3,-5,-24,-17
-17,-2,15,10,-17,7,12,10,2,-6,-25,-17
-17,-3,14,10,-16,6,12,9,3,-5,-26,-18
-17,-4,13,10,-15,5,13,10,3,-4,-25,-17
-17,-4,14,10,-15,5,13,10,3,-5,-25,-15
-17,-3,14,10,-15,6,13,9,3,-6,-25,-16
-16,-4,13,11,-15,5,12,9,3,-6,-26,-17
-16,-4,13,10,-15,4,13,9,4,-5,-26,-16
-15,-2,13,9,-15,5,14,10,4,-6,-24,-16
-15,-1,14,8,-15,6,13,9,3,-6,-25,-17
-14,-1,14,7,-14,6,12,8,3,-6,-27,-19
-14,-1,13,7,-14,6,12,8,4,-6,-28,-19
-14,-1,13,8,-14,6,13,9,4,-6,-27,-19
-14,-1,13,8,-14,6,13,8,3,-7,-26,-19
-14,-2,12,8,-13,5,12,7,3,-6,-27,-21
-14,-3,11,9,-13,4,12,8,3,-6,-27,-21
-14,-4,11,9,-13,3,13,9,3,-7,-27,-21
-14,-3,11,9,-13,4,12,9,2,-8,-26,-21
-14,-2,11,8,-13,4,12,8,2,-8,-28,-24
-14,-3,11,8,-13,4,12,8,2,-7,-28,-25
-14,-3,11,8,-13,4,12,8,3,-7,-27,-25
-14,-3,12,8,-13,4,13,9,2,-8,-26,-25
-13,-2,12,7,-13,5,12,8,2,-9,-27,-27
-13,-2,12,7,-13,4,11,7,2,-8,-28,-28
-13,-3,11,8,-13,4,11,8,2,-8,-27,-27
-14,-2,11,8,-13,4,11,8,2,-8,-25,-26
-14,-2,11,8,-13,4,10,7,2,-9,-27,-28
-14,-2,11,8,-13,5,10,6,2,-9,-29,-30
-14,-2,11,8,-13,5,10,6,2,-8,-29,-30
-14,-1,12,8,-13,5,11,7,2,-9,-28,-29
-13,-1,13,8,-13,6,10,6,1,-9,-28,-29
-13,-2,11,8,-13,4,10,5,1,-9,-29,-31
-13,-4,10,9,-12,3,10,6,2,-9,-29,-31
-14,-4,10,10,-13,3,11,7,2,-10,-28,-29
-14,-4,10,9,-13,3,10,7,1,-11,-28,-29
-14,-4,10,9,-12,3,9,6,1,-10,-30,-30
-14,-4,9,9,-12,3,9,6,1,-9,-30,-30
-14,-4,9,9,-12,3,9,7,1,-10,-29,-28
-13,-3,10,8,-12,4,9,7,1,-10,-28,-27
-13,-3,10,8,-12,3,8,6,1,-10,-29,-28
-13,-4,9,9,-12,2,9,7,1,-9,-29,-28
-13,-4,10,8,-12,3,9,7,2,-9,-28,-27
-13,-2,10,8,-12,4,9,7,1,-11,-28,-27
-12,-2,10,8,-11,4,8,6,1,-11,-29,-28
-12,-2,9,8,-11,4,8,5,1,-10,-30,-28
-12,-2,10,7,-11,4,8,6,1,-10,-29,-26
-12,-1,10,7,-11,4,9,6,1,-11,-28,-25
-12,-2,10,7,-11,4,8,5,1,-11,-29,-25
-12,-3,9,8,-10,3,8,5,1,-10,-30,-25
-11,-3,9,7,-10,3,8,6,2,-10,-29,-24
-11,-2,10,6,-10,4,8,6,1,-11,-29,-23
-11,-2,9,6,-10,4,8,6,1,-11,-30,-24
-11,-3,8,7,-10,3,7,5,1,-10,-31,-24
-12,-3,8,7,-10,2,8,6,2,-10,-30,-23
-12,-3,8,7,-10,3,8,6,1,-10,-28,-21
-12,-2,9,7,-10,3,8,5,1,-11,-29,-22
-12,-3,9,7,-10,3,7,5,1,-11,-30,-22
-12,-3,9,7,-10,2,8,5,1,-10,-30,-21
-12,-2,10,7,-11,3,8,5,2,-11,-28,-19
-12,-2,10,7,-11,3,8,5,1,-11,-28,-20
-12,-2,9,7,-10,3,7,4,1,-11,-30,-22
-12,-2,9,7,-10,3,7,4,2,-10,-30,-21
-11,-2,9,7,-10,3,8,5,2,-11,-29,-19
-10,-1,9,6,-10,4,8,5,2,-11,-28,-19
-10,-1,8,6,-10,3,8,5,1,-11,-29,-21
-10,-2,7,6,-9,2,8,5,1,-11,-30,-21
-10,-3,7,6,-9,2,8,6,2,-12,-29,-20
-9,-3,6,6,-9,2,8,6,2,-13,-29,-20
-8,-4,5,6,-7,1,8,6,2,-13,-30,-22
-8,-6,3,7,-6,-1,8,6,2,-12,-31,-22
-8,-6,2,7,-5,-2,9,7,3,-13,-30,-21
-8,-6,1,7,-5,-2,9,8,3,-14,-29,-20
-7,-5,1,6,-4,-2,8,8,3,-14,-30,-21
-6,-6,0,6,-4,-2,8,7,4,-12,-30,-21
-6,-6,0,6,-4,-2,8,8,4,-11,-29,-20
-6,-4,1,5,-4,-1,8,9,4,-12,-28,-19
-5,-3,1,4,-3,0,8,8,4,-12,-29,-20
-4,-3,0,4,-2,-1,8,8,5,-12,-29,-21
-5,-3,0,4,-2,-1,8,8,5,-11,-29,-20
-4,-2,1,4,-3,0,9,9,6,-12,-28,-19
-4,0,3,3,-3,1,8,8,6,-12,-28,-19
-4,0,3,3,-3,1,8,8,6,-11,-29,-20
-4,-1,2,3,-3,0,8,8,7,-10,-28,-19
-5,-1,3,3,-4,1,8,9,7,-11,-27,-18
-5,-1,3,3,-4,1,7,8,6,-12,-27,-19
-5,-2,2,4,-4,0,6,7,6,-12,-29,-21
-5,-3,2,4,-4,0,6,7,6,-12,-30,-21
-5,-2,3,4,-4,0,6,7,5,-13,-30,-20
-5,0,3,3,-5,1,5,6,3,-14,-30,-21
-5,0,3,3,-5,1,4,5,2,-14,-31,-22
-5,-1,2,4,-5,1,4,5,2,-14,-31,-22
-5,-1,3,4,-5,1,5,6,2,-14,-30,-21
-6,-1,3,4,-5,1,4,5,1,-15,-29,-20
-5,-2,2,4,-4,0,3,4,1,-15,-30,-21
-5,-3,0,5,-3,-1,2,3,1,-14,-30,-21
-6,-3,1,5,-4,-1,3,2,0,-14,-28,-19
-6,-2,2,5,-5,0,3,1,-1,-16,-28,-19
-6,-2,3,5,-5,0,2,0,-2,-16,-29,-20
-6,-2,2,5,-4,0,1,-1,-3,-16,-30,-21
-5,-2,3,4,-4,0,1,-1,-4,-16,-29,-21
-5,-1,3,3,-4,1,1,-1,-4,-17,-29,-21
-4,-1,3,3,-4,1,0,-2,-5,-17,-29,-22
-4,-1,2,3,-3,1,0,-2,-4,-16,-30,-23
-5,-1,3,3,-4,1,0,-2,-4,-16,-29,-21
-5,0,4,3,-5,2,0,-2,-4,-16,-27,-20
-6,0,5,3,-5,2,0,-2,-4,-17,-28,-20
-6,-1,5,4,-6,2,0,-2,-4,-16,-30,-21
-7,-2,5,6,-6,2,1,-1,-3,-16,-30,-21
-9,-2,6,6,-7,2,2,0,-3,-16,-28,-20
-10,-2,7,6,-8,3,2,0,-3,-17,-28,-21
-10,-3,7,7,-8,2,2,-1,-3,-17,-30,-23
-11,-4,6,7,-8,0,3,-1,-2,-17,-31,-24
-10,-3,6,6,-8,1,3,0,-2,-18,-29,-23
-9,-1,6,5,-8,2,3,0,-3,-19,-29,-23
-9,-2,6,5,-8,2,2,-1,-3,-18,-29,-24
-9,-3,6,6,-8,2,2,0,-3,-17,-29,-24
-9,-2,7,6,-8,3,2,0,-3,-18,-28,-23
-9,-2,8,6,-9,3,2,0,-3,-18,-28,-23
-10,-3,8,6,-8,2,1,-1,-3,-18,-29,-25
-10,-4,6,7,-8,0,1,-1,-2,-17,-30,-25
-10,-5,5,7,-8,0,2,0,-1,-16,-29,-24
-10,-3,6,6,-8,1,2,0,-2,-17,-28,-23
-10,-3,7,6,-8,2,1,-1,-2,-17,-29,-24
-10,-4,6,7,-8,1,0,-2,-2,-16,-30,-25
-11,-3,7,7,-9,2,1,-1,-2,-16,-28,-24
-11,-1,9,6,-10,4,1,-1,-3,-16,-27,-23
-11,0,10,6,-10,5,0,-2,-3,-16,-27,-24
-11,0,10,5,-10,5,0,-3,-3,-16,-29,-25
-11,0,10,5,-10,5,0,-2,-2,-16,-28,-25
-11,0,10,5,-11,5,1,-2,-2,-16,-27,-24
-10,1,10,4,-11,5,0,-2,-3,-17,-28,-25
-10,0,9,5,-10,4,0,-3,-2,-17,-29,-26
-11,-2,8,6,-10,3,0,-2,-1,-17,-29,-26
-11,-2,9,7,-10,3,1,0,0,-17,-28,-26
-11,-2,10,7,-11,4,1,0,1,-17,-28,-27
-11,-3,9,7,-10,3,1,0,2,-15,-29,-28
-12,-4,8,8,-10,1,2,3,6,-12,-28,-28
-13,-4,8,9,-11,1,5,7,10,-10,-26,-27
-14,-3,10,9,-12,3,6,10,15,-8,-25,-29
-14,-2,11,8,-12,4,7,12,21,-3,-24,-30
-13,-1,11,7,-12,5,8,15,27,3,-20,-29
-10,2,12,4,-11,7,9,18,32,10,-12,-23
-6,5,12,1,-9,8,9,20,36,16,-4,-15
-2,8,11,-3,-7,9,7,20,38,23,3,-9
2,12,10,-7,-4,11,5,19,37,29,11,0
7,18,11,-12,-2,14,1,15,32,33,23,14
12,26,12,-19,0,19,-5,8,23,37,37,29
19,34,14,-27,2,24,-15,-3,11,41,51,45
27,43,15,-35,6,30,-26,-17,-4,43,66,63
34,53,18,-44,7,36,-37,-31,-22,45,83,85
40,63,22,-51,8,43,-47,-44,-39,45,100,105
44,69,25,-57,9,47,-57,-58,-56,47,114,121
46,73,26,-60,10,49,-65,-69,-72,48,123,132
47,73,26,-60,10,49,-69,-77,-85,44,126,136
46,68,21,-57,12,44,-69,-79,-94,35,119,126
44,55,11,-50,16,33,-66,-77,-97,23,100,103
38,39,1,-38,18,20,-59,-72,-98,11,76,74
31,25,-6,-27,17,9,-51,-65,-97,-2,53,47
23,14,-9,-18,15,3,-44,-58,-96,-16,32,24
16,7,-10,-11,13,-1,-38,-52,-95,-30,12,3
9,1,-8,-4,9,-4,-34,-48,-92,-41,-8,-15
1,-3,-5,1,4,-4,-30,-45,-88,-50,-25,-30
-3,-4,-1,4,-1,-3,-26,-42,-85,-59,-39,-41
-6,-5,1,5,-3,-2,-25,-40,-82,-65,-48,-49
-7,-6,1,7,-4,-3,-24,-39,-78,-66,-54,-54
-8,-9,0,9,-4,-5,-22,-36,-73,-65,-55,-55
-9,-10,-1,10,-4,-6,-20,-33,-66,-62,-53,-55
-10,-11,0,11,-5,-5,-19,-29,-59,-59,-52,-55
-11,-10,0,11,-6,-5,-18,-27,-52,-55,-52,-55
-11,-10,0,11,-5,-5,-16,-25,-44,-49,-49,-54
-10,-9,0,10,-5,-5,-14,-21,-36,-44,-44,-50
-10,-7,2,9,-6,-3,-12,-18,-29,-40,-40,-47
-10,-6,3,8,-6,-2,-11,-16,-23,-36,-38,-45
-9,-5,4,8,-7,-1,-9,-14,-18,-31,-35,-43
-9,-5,4,7,-7,0,-7,-11,-13,-27,-32,-39
-9,-3,5,6,-7,1,-6,-9,-10,-25,-30,-37
-8,-3,5,6,-7,1,-6,-7,-8,-23,-29,-36
-8,-3,5,6,-6,1,-5,-6,-5,-20,-29,-36
-8,-3,4,6,-6,1,-3,-4,-2,-18,-27,-34
-7,-2,5,5,-6,1,-2,-3,-1,-18,-25,-33
-7,0,6,4,-6,2,-3,-3,0,-18,-25,-33
-7,0,6,3,-6,3,-4,-3,0,-17,-26,-33
-7,0,7,4,-7,3,-4,-3,1,-16,-26,-33
-7,0,7,4,-7,3,-4,-3,1,-17,-26,-32
-7,1,7,3,-7,4,-5,-3,1,-17,-25,-32
-7,0,6,3,-7,3,-5,-3,1,-16,-26,-34
-7,0,6,4,-7,2,-5,-3,2,-15,-25,-33
-8,0,7,4,-7,2,-4,-2,2,-15,-23,-32
-7,1,7,3,-7,3,-4,-2,3,-15,-23,-32
-7,1,7,3,-7,4,-5,-2,4,-15,-24,-33
-7,1,7,3,-6,4,-4,-2,4,-14,-25,-33
-7,0,7,4,-6,3,-4,-2,4,-14,-24,-32
-7,0,6,4,-6,3,-4,-2,4,-14,-23,-31
-6,0,5,3,-5,3,-4,-2,4,-13,-24,-32
-5,0,4,3,-5,2,-3,-2,5,-12,-24,-32
-5,0,4,4,-5,1,-3,-1,5,-12,-23,-30
-5,0,4,4,-5,1,-3,0,6,-13,-21,-29
-5,0,4,3,-5,1,-4,-1,6,-12,-22,-29
-6,0,4,3,-5,2,-4,-2,6,-12,-22,-29
-6,0,5,3,-6,2,-5,-2,6,-13,-22,-28
-6,0,5,3,-6,3,-5,-2,5,-13,-21,-26
-5,1,5,2,-6,3,-5,-2,5,-13,-22,-26
-5,1,5,2,-6,3,-6,-2,5,-12,-23,-26
-5,0,5,2,-6,2,-5,-1,6,-12,-22,-24
-5,1,6,2,-6,3,-4,0,7,-12,-20,-22
-4,2,6,2,-5,4,-5,-1,7,-12,-20,-22
-4,2,6,2,-5,3,-6,-1,7,-12,-20,-22
-5,1,5,2,-4,3,-5,-1,7,-11,-19,-21
-5,0,5,2,-4,2,-5,0,7,-11,-18,-20
-4,0,5,2,-4,2,-5,-1,6,-11,-18,-20
-4,0,4,2,-4,2,-6,-2,6,-11,-21,-22
-5,0,4,2,-5,1,-6,-2,7,-11,-22,-23
-5,0,5,2,-5,2,-5,-1,7,-12,-21,-21
-5,1,6,2,-5,3,-6,-1,7,-12,-20,-21
-5,2,5,2,-5,3,-7,-1,7,-11,-20,-21
-5,2,5,2,-5,3,-7,-1,8,-11,-20,-20
-5,2,5,1,-5,4,-6,0,8,-11,-19,-18
-4,3,6,0,-6,4,-7,-1,7,-12,-19,-18
-4,2,6,0,-5,4,-8,-2,7,-12,-21,-20
-3,0,4,1,-4,2,-8,-2,7,-11,-21,-21
-3,0,4,2,-4,1,-7,0,8,-10,-19,-19
-3,0,4,2,-4,2,-7,0,8,-11,-18,-18
-3,1,4,2,-4,3,-8,-1,8,-11,-19,-19
-3,0,3,2,-4,2,-8,0,8,-11,-19,-20
-4,0,3,2,-4,2,-8,0,9,-11,-18,-19
-4,2,5,1,-5,3,-9,0,8,-12,-18,-19
-3,3,6,0,-5,4,-10,-2,7,-12,-19,-21
-3,2,5,1,-4,3,-10,-2,7,-11,-20,-22
-3,1,4,1,-4,2,-9,-1,8,-11,-19,-20
-3,1,4,1,-4,3,-9,0,8,-11,-18,-19
-2,2,4,1,-4,3,-9,-1,8,-11,-18,-18
-2,0,2,1,-3,1,-9,-1,9,-10,-18,-18
-3,0,2,2,-2,1,-9,0,10,-10,-18,-17
-3,1,3,1,-3,2,-9,0,10,-11,-17,-16
-3,2,4,1,-4,3,-10,-1,9,-12,-19,-18
-3,1,4,1,-4,2,-11,-2,9,-11,-20,-19
-3,0,3,2,-4,1,-10,-2,10,-10,-20,-19
-2,1,3,1,-4,2,-9,-1,11,-10,-18,-17
-1,2,3,0,-3,3,-10,-1,11,-11,-17,-16
-1,2,3,0,-3,3,-11,-2,11,-10,-18,-17
-1,1,2,0,-2,2,-11,-2,12,-10,-18,-16
-2,1,2,0,-2,2,-10,-2,12,-10,-17,-15
-2,1,3,0,-2,2,-11,-2,12,-11,-17,-14
-1,1,2,0,-2,2,-12,-3,12,-11,-19,-15
-1,1,1,0,-1,1,-12,-3,13,-9,-19,-15
-1,1,1,0,-1,1,-11,-2,13,-9,-17,-13
-1,2,2,0,-1,2,-12,-2,12,-9,-16,-12
-1,3,3,0,-2,3,-13,-2,12,-10,-17,-12
0,2,2,0,-1,2,-13,-2,12,-9,-17,-12
0,2,2,0,-1,2,-12,-2,13,-9,-17,-11
0,3,3,-1,-1,2,-12,-2,13,-9,-16,-10
0,3,3,-1,-1,2,-13,-3,12,-9,-17,-11
0,2,2,-1,-1,2,-14,-3,12,-8,-18,-11
0,3,2,-1,-1,2,-13,-2,13,-8,-17,-9
0,4,3,-1,-1,3,-13,-2,13,-8,-15,-7
1,4,3,-2,-1,4,-13,-2,13,-7,-15,-7
1,4,3,-2,0,4,-14,-2,13,-7,-15,-7
1,3,3,-2,0,4,-13,-2,14,-7,-15,-6
0,4,4,-2,-1,5,-13,-2,14,-7,-14,-5
0,5,5,-3,-1,5,-14,-2,13,-8,-15,-5
0,4,3,-2,-1,4,-15,-3,13,-7,-16,-7
0,3,2,-2,0,3,-14,-2,14,-6,-16,-6
0,4,3,-2,-1,4,-14,-2,14,-6,-14,-4
0,6,4,-3,-1,5,-15,-3,13,-7,-13,-3
1,6,4,-3,0,5,-16,-4,13,-6,-13,-3
2,5,2,-3,0,4,-15,-3,14,-4,-13,-2
2,5,2,-4,0,3,-15,-3,15,-4,-12,0
2,5,3,-4,0,4,-16,-3,15,-5,-11,0
3,5,3,-4,0,4,-17,-4,9,-4,-12,-2
3,5,2,-4,0,3,-17,-4,0,-3,-12,-1
3,5,3,-4,0,4,-16,-3,-8,-2,-11,0
3,6,3,-4,0,5,-16,-3,-12,-2,-9,1
3,6,3,-4,0,5,-17,-4,-15,-2,-10,1
3,5,2,-4,1,4,-18,-4,-16,-1,-10,1
3,5,1,-4,2,3,-17,-4,-17,0,-9,3
4,6,2,-5,1,4,-17,-4,-18,-1,-8,3
5,7,2,-6,1,4,-18,-4,-19,-1,-9,2
6,7,1,-7,2,4,-19,-5,-18,0,-10,1
7,7,1,-6,2,4,-19,-4,-17,1,-9,3
7,8,1,-6,2,4,-19,-4,-17,1,-7,5
7,9,1,-7,3,5,-20,-5,-17,1,-6,5
8,9,1,-7,3,4,-20,-6,-17,2,-7,6
8,8,0,-7,4,4,-20,-6,-17,3,-6,7
8,9,1,-8,3,4,-20,-5,-17,3,-5,8
9,10,1,-9,3,5,-21,-6,-18,3,-4,8
10,10,1,-10,4,4,-22,-7,-17,4,-5,8
10,10,0,-10,5,4,-22,-6,-16,5,-4,9
11,10,0,-10,5,4,-22,-5,-16,5,-1,12
11,12,1,-11,5,6,-23,-6,-16,5,0,12
12,13,1,-12,5,7,-24,-7,-16,6,-1,12
13,13,0,-12,6,7,-25,-7,-16,7,-1,13
13,13,1,-13,5,7,-25,-7,-16,7,0,15
13,15,2,-14,5,9,-26,-7,-17,7,1,15
14,15,1,-14,5,9,-27,-8,-18,8,1,15
15,15,0,-14,6,8,-27,-8,-17,9,2,16
15,15,0,-14,7,8,-27,-7,-16,10,4,18
15,16,0,-15,7,8,-28,-7,-17,9,6,19
15,15,-1,-15,8,7,-29,-9,-17,10,6,19
16,15,-2,-15,9,6,-29,-9,-16,11,6,20
16,15,-2,-16,9,7,-29,-9,-16,11,7,22
17,17,0,-17,9,8,-30,-9,-16,11,9,23
18,18,0,-18,9,8,-31,-10,-17,11,8,22
18,18,0,-18,10,8,-31,-11,-17,13,8,22
18,18,0,-18,10,8,-31,-10,-17,13,9,24
19,19,0,-19,10,9,-31,-10,-17,13,11,26
20,20,0,-20,10,9,-32,-11,-18,13,11,26
20,20,0,-20,10,9,-33,-12,-17,13,10,26
20,19,-1,-20,10,9,-33,-11,-17,14,11,27
21,19,-1,-20,10,9,-32,-11,-17,13,13,28
21,19,-2,-20,11,8,-33,-11,-17,13,13,28
21,19,-2,-20,12,8,-34,-12,-17,14,12,27
21,19,-2,-19,12,8,-34,-12,-17,14,13,28
21,20,-1,-20,11,9,-34,-12,-17,14,14,30
22,22,0,-21,11,10,-35,-12,-18,13,15,30
22,21,-1,-21,12,9,-36,-13,-18,14,14,30
22,20,-3,-21,12,8,-35,-12,-17,15,14,31
21,20,-2,-20,11,8,-35,-11,-17,14,15,32
21,21,0,-20,10,10,-35,-11,-18,13,15,32
21,21,0,-20,10,11,-36,-12,-18,13,13,30
20,20,0,-19,10,10,-36,-12,-17,14,12,29
20,21,0,-19,10,10,-35,-12,-17,13,13,30
20,22,1,-20,9,11,-35,-12,-18,11,13,30
20,21,1,-20,8,10,-36,-13,-19,10,12,29
19,20,0,-19,8,9,-35,-13,-18,10,10,28
18,19,0,-18,8,9,-34,-12,-18,10,9,28
17,19,1,-18,7,10,-34,-12,-18,8,9,27
16,18,2,-17,7,10,-34,-12,-19,7,6,25
15,16,1,-15,7,8,-34,-12,-18,7,4,23
15,15,1,-14,6,8,-33,-11,-18,6,3,23
14,16,2,-14,5,8,-32,-11,-18,4,3,22
13,16,3,-14,4,8,-33,-11,-19,3,1,20
12,15,2,-13,4,8,-33,-12,-19,2,-1,18
11,14,2,-12,4,8,-32,-11,-19,2,-2,17
10,14,3,-12,3,9,-31,-10,-19,0,-3,17
9,13,3,-11,2,8,-31,-10,-19,-1,-5,15
8,11,2,-9,2,7,-31,-10,-19,-1,-7,12
7,9,2,-8,2,6,-30,-10,-18,-2,-8,11
7,9,2,-7,2,5,-28,-9,-18,-3,-8,12
6,9,2,-7,1,5,-28,-9,-18,-5,-9,10
6,7,1,-6,1,4,-28,-9,-18,-6,-11,8
5,6,1,-5,1,3,-27,-9,-18,-6,-13,7
4,6,2,-5,0,4,-26,-9,-18,-8,-13,7
4,6,3,-5,0,4,-26,-9,-19,-10,-15,6
3,6,3,-5,0,4,-27,-10,-19,-11,-18,3
3,6,3,-5,0,4,-27,-10,-19,-11,-20,2
2,6,3,-4,0,3,-25,-9,-19,-12,-20,2
1,5,2,-3,0,3,-24,-9,-19,-13,-20,1
1,4,1,-3,0,2,-24,-9,-18,-13,-21,0
1,3,0,-2,0,1,-23,-9,-17,-13,-23,-1
1,3,0,-2,0,1,-22,-8,-17,-14,-23,0
0,2,1,-2,0,1,-22,-8,-18,-15,-23,0
0,2,1,-1,0,1,-23,-9,-18,-16,-25,-2
0,0,0,0,0,0,-23,-9,-18,-15,-26,-4
-1,-1,0,1,0,-1,-22,-8,-17,-15,-26,-4
-1,-1,0,1,-1,0,-21,-7,-18,-17,-26,-5
-1,0,1,1,-1,0,-22,-8,-18,-18,-28,-7
-1,0,1,0,-1,0,-22,-9,-18,-18,-30,-8
-2,0,1,1,-1,0,-22,-9,-18,-18,-30,-8
-2,0,1,1,-1,0,-21,-8,-18,-18,-29,-6
-1,0,1,1,-1,0,-22,-9,-18,-19,-29,-7
-1,-1,0,1,-1,-1,-22,-9,-17,-18,-30,-8
-1,-2,0,2,0,-1,-22,-9,-17,-17,-30,-7
-2,-1,0,2,-1,-1,-21,-8,-17,-18,-28,-6
-2,0,1,2,-1,0,-22,-8,-17,-18,-28,-7
-2,-1,0,2,-1,0,-22,-9,-17,-18,-29,-8
-3,-2,0,3,-1,-1,-22,-8,-17,-18,-30,-9
-3,-2,0,2,-2,-1,-22,-8,-17,-19,-29,-9
-2,-1,1,1,-2,0,-22,-8,-17,-20,-29,-9
-2,-2,0,1,-1,-1,-23,-9,-17,-19,-31,-11
-2,-3,-1,2,-1,-2,-22,-9,-17,-18,-31,-11
-2,-3,-1,2,-1,-2,-21,-8,-16,-19,-30,-10
-2,-1,0,2,-1,-1,-21,-7,-16,-19,-30,-10
-2,-1,0,2,-1,-1,-22,-8,-16,-19,-31,-11
-2,-2,0,2,-1,-1,-22,-8,-16,-19,-31,-11
-2,-2,0,2,-1,-2,-21,-7,-15,-19,-30,-11
-2,-2,0,2,-1,-2,-21,-7,-15,-20,-30,-10
-2,-2,0,2,-1,-2,-22,-8,-15,-20,-31,-12
-2,-3,0,2,-1,-2,-22,-8,-15,-19,-32,-13
-3,-4,-1,3,-1,-3,-21,-7,-14,-18,-31,-12
-3,-3,0,3,-1,-2,-20,-7,-14,-19,-30,-11
-2,-2,0,2,-1,-1,-21,-7,-15,-19,-31,-12
-2,-3,-1,3,-1,-2,-21,-7,-15,-19,-32,-13
-3,-4,-1,4,0,-3,-20,-6,-14,-18,-31,-12
-3,-4,-1,4,0,-3,-19,-6,-13,-18,-30,-11
-2,-4,-1,3,0,-2,-19,-6,-13,-18,-30,-12
-2,-4,-2,3,0,-3,-20,-6,-12,-17,-31,-13
-2,-4,-2,3,0,-2,-19,-6,-12,-17,-31,-12
-2,-2,0,2,-1,-1,-18,-5,-12,-17,-30,-11
-2,-1,0,2,-1,0,-18,-5,-12,-18,-30,-11
-2,-2,0,2,-1,-1,-19,-6,-12,-17,-31,-12
-2,-3,-1,3,-1,-2,-18,-5,-12,-16,-30,-12
-2,-3,0,3,-1,-2,-18,-5,-12,-17,-29,-11
-2,-2,0,3,-1,-2,-19,-5,-12,-18,-29,-12
-1,-3,-1,2,0,-2,-20,-6,-12,-17,-30,-13
-1,-4,-2,3,0,-4,-20,-5,-11,-16,-30,-13
-1,-4,-3,3,0,-4,-19,-4,-10,-16,-29,-11
-1,-3,-2,3,0,-4,-19,-3,-10,-16,-28,-10
-1,-3,-2,3,0,-4,-20,-3,-10,-15,-28,-11
-2,-3,-2,3,0,-4,-20,-3,-10,-15,-29,-12
-2,-3,-1,3,0,-3,-19,-3,-9,-15,-28,-11
-2,-2,0,2,0,-2,-20,-3,-10,-16,-28,-11
-1,-2,0,2,0,-1,-21,-4,-10,-16,-28,-13
-1,-3,-2,2,0,-3,-21,-4,-9,-15,-29,-14
-1,-4,-3,3,0,-4,-20,-3,-9,-15,-28,-13
-1,-3,-2,2,0,-3,-19,-3,-9,-15,-27,-12
-1,-3,-2,2,0,-3,-20,-3,-9,-15,-27,-12
0,-3,-2,2,0,-3,-20,-3,-8,-14,-27,-12
0,-3,-2,2,0,-3,-20,-3,-8,-13,-26,-11
0,-2,-1,1,0,-2,-20,-3,-8,-14,-25,-11
0,0,0,0,0,-1,-21,-4,-8,-15,-26,-12
0,0,0,1,0,-1,-21,-4,-8,-15,-28,-15
-1,-2,-1,2,0,-2,-21,-4,-7,-14,-28,-15
-1,-1,0,2,0,-1,-20,-3,-7,-15,-27,-14
0,0,0,1,0,-1,-21,-3,-8,-15,-26,-14
0,0,0,1,0,-1,-21,-4,-8,-14,-27,-15
0,-1,-1,1,0,-2,-21,-3,-7,-13,-26,-14
0,-1,-1,1,0,-1,-21,-2,-7,-14,-25,-13
0,0,0,0,0,-1,-22,-2,-7,-14,-25,-13
0,-1,-1,1,0,-1,-23,-3,-7,-14,-26,-15
0,-2,-1,2,0,-2,-24,-3,-7,-13,-26,-15
-1,-2,-1,2,0,-2,-24,-3,-7,-13,-25,-14
0,-1,0,1,0,-1,-24,-3,-8,-14,-25,-14
0,0,0,1,0,-1,-25,-3,-9,-14,-26,-15
0,-1,-1,1,0,-1,-24,-3,-8,-13,-26,-15
0,-1,-1,1,0,-2,-23,-2,-7,-13,-25,-14
0,-1,0,1,0,-1,-23,-2,-7,-13,-24,-13
0,-1,0,1,0,-1,-23,-2,-7,-13,-25,-14
0,-3,-2,1,0,-3,-23,-2,-7,-12,-26,-15
0,-3,-2,2,1,-3,-22,-1,-6,-12,-25,-14
0,-2,-2,1,0,-3,-22,-1,-6,-13,-24,-13
0,-2,-1,1,0,-2,-23,-2,-7,-13,-25,-14
0,-2,-1,2,0,-2,-24,-3,-7,-13,-26,-15
-1,-2,0,2,0,-2,-24,-3,-7,-13,-25,-15
0,-1,0,1,-1,-1,-24,-2,-7,-13,-24,-14
0,0,1,0,-1,0,-24,-3,-8,-14,-25,-15
0,0,1,0,-1,0,-25,-3,-8,-13,-26,-16
0,-1,0,1,-1,0,-24,-3,-7,-13,-26,-16
0,-1,0,1,-1,0,-24,-2,-7,-13,-24,-15
0,0,1,1,-1,0,-24,-2,-7,-13,-24,-16
0,0,0,1,0,-1,-25,-3,-7,-12,-25,-16
-1,-1,0,2,0,-1,-24,-2,-7,-12,-24,-16
-1,-1,0,2,-1,0,-24,-2,-7,-12,-23,-15
-1,-1,1,2,-1,0,-24,-2,-7,-13,-23,-15
-1,-1,1,2,-1,0,-25,-2,-7,-13,-25,-16
-2,-2,0,2,-1,-1,-24,-2,-6,-12,-25,-17
-2,-2,0,2,-1,-1,-23,-2,-6,-12,-24,-16
-1,-1,1,2,-1,0,-22,-2,-6,-13,-24,-16
-1,-1,1,1,-1,0,-22,-3,-7,-13,-25,-17
-1,-1,1,1,-1,-1,-21,-3,-7,-12,-25,-17
-1,-1,1,1,-1,-1,-19,-3,-7,-13,-24,-17
-2,-1,1,1,-2,0,-18,-2,-7,-14,-24,-17
-2,-1,1,1,-2,0,-18,-3,-7,-14,-25,-18
-2,-1,1,2,-2,0,-18,-3,-7,-13,-27,-19
-2,-1,1,2,-2,0,-16,-3,-6,-13,-26,-18
