leadI,leadII,leadIII,leadaVR,leadaVL,leadaVF,leadV1,leadV2,leadV3,leadV4,leadV5,leadV6
-3,-1,2,2,-2,0,1,-1,-1,-1,-1,-1
-8,-3,4,6,-6,1,3,-2,-4,-4,-2,-3
-10,-3,6,7,-9,2,4,-3,-6,-6,-3,-5
-12,-1,10,7,-11,4,4,-5,-8,-8,-5,-7
-13,0,13,7,-13,7,4,-6,-9,-10,-7,-10
-14,0,13,7,-13,7,5,-6,-9,-10,-8,-10
-13,-2,11,8,-12,5,6,-4,-8,-9,-8,-9
-13,-4,9,9,-11,3,8,-2,-7,-8,-7,-8
-13,-4,9,9,-11,2,9,0,-6,-7,-6,-7
-13,-4,8,8,-10,1,9,4,-4,-3,-2,-6
-11,-4,7,8,-9,1,10,9,0,2,3,-4
-11,-2,8,7,-9,3,11,14,5,9,8,-1
-11,2,12,5,-11,7,12,19,12,18,15,4
-11,7,18,2,-14,12,14,23,22,30,26,13
-11,12,24,0,-17,18,16,24,32,44,39,24
-11,17,29,-2,-20,22,16,25,43,59,54,36
-11,20,32,-4,-21,26,17,25,54,75,71,49
-10,22,32,-6,-21,27,17,25,66,94,91,63
-6,25,32,-9,-19,28,16,21,76,112,113,79
-2,30,32,-14,-17,31,9,11,83,129,136,96
3,37,34,-20,-16,36,-3,-7,84,140,158,113
6,45,38,-25,-16,41,-21,-34,78,143,175,128
8,51,42,-29,-17,47,-42,-69,66,138,187,140
9,57,48,-33,-19,53,-65,-109,48,128,194,148
9,64,55,-36,-23,60,-89,-148,26,113,195,152
8,68,60,-38,-26,65,-111,-183,4,94,187,148
4,67,64,-35,-30,66,-130,-213,-18,66,163,131
-3,61,65,-29,-34,63,-142,-239,-44,28,121,103
-10,51,61,-20,-35,56,-150,-256,-72,-15,69,66
-15,36,52,-10,-33,44,-152,-264,-99,-57,14,25
-19,19,38,0,-28,28,-150,-262,-123,-95,-34,-12
-21,1,22,10,-22,12,-146,-255,-143,-126,-71,-41
-22,-13,9,18,-16,-2,-140,-246,-159,-149,-98,-62
-25,-25,-1,25,-13,-13,-134,-234,-170,-164,-115,-75
-26,-35,-9,31,-10,-22,-128,-219,-173,-170,-122,-82
-26,-41,-14,34,-7,-27,-121,-203,-170,-167,-121,-82
-25,-41,-16,33,-5,-28,-114,-185,-161,-159,-114,-78
-23,-37,-14,30,-4,-25,-106,-166,-148,-146,-104,-71
-20,-32,-12,26,-3,-22,-98,-146,-133,-131,-94,-63
-17,-27,-11,22,-3,-19,-90,-127,-117,-114,-83,-54
-14,-21,-8,18,-3,-15,-79,-107,-101,-98,-71,-47
-12,-16,-6,14,-3,-11,-66,-88,-85,-82,-60,-39
-9,-12,-4,11,-3,-8,-53,-70,-71,-68,-50,-32
-8,-9,-2,9,-3,-6,-40,-54,-58,-55,-41,-26
-8,-7,0,8,-4,-4,-29,-41,-47,-44,-33,-19
-8,-6,2,7,-5,-2,-20,-30,-37,-35,-27,-14
-8,-4,3,6,-5,0,-12,-20,-28,-27,-21,-9
-8,-3,4,6,-6,0,-5,-12,-22,-21,-17,-5
-8,-2,5,6,-7,1,-1,-6,-17,-16,-14,-2
-8,-2,6,6,-7,1,3,-1,-13,-12,-12,-1
-8,-3,5,6,-6,1,6,3,-10,-9,-11,0
-7,-2,5,5,-6,1,8,6,-9,-7,-10,0
-6,0,6,3,-6,3,9,8,-8,-6,-8,1
-5,1,6,2,-5,4,11,11,-6,-4,-6,2
-4,1,6,2,-4,4,12,14,-4,-2,-5,3
-4,1,5,2,-4,3,13,15,-3,-1,-4,5
-4,0,4,3,-4,2,14,17,-1,0,-4,6
-5,-1,3,3,-4,1,15,17,0,1,-4,7
-5,-1,3,3,-5,1,15,17,0,1,-4,7
-5,-1,4,3,-5,2,15,18,0,1,-3,8
-5,0,4,3,-5,2,16,19,0,2,-2,8
-5,0,5,2,-5,3,16,20,0,2,-2,9
-5,1,6,2,-6,4,16,20,0,2,-2,8
-5,1,7,2,-6,4,16,21,0,3,-2,8
-5,1,7,2,-6,5,16,22,1,3,-2,9
-5,1,7,2,-6,5,16,23,2,4,-1,10
-4,1,7,2,-5,4,17,24,3,6,0,11
-3,3,7,1,-5,5,17,25,3,7,0,12
-2,4,7,0,-4,5,17,26,4,7,0,12
-2,3,5,0,-3,4,18,27,5,8,0,13
-3,2,3,0,-3,3,19,28,6,9,0,14
-3,2,4,0,-3,3,19,28,7,9,1,15
-3,2,4,0,-3,3,19,29,7,9,3,16
-2,3,5,0,-3,4,19,29,8,9,5,17
-2,3,5,0,-3,4,19,30,8,10,6,17
-3,1,4,1,-3,3,19,30,8,11,6,16
-4,0,4,3,-4,2,18,30,9,11,7,16
-4,0,4,2,-4,2,18,31,9,12,7,17
-3,3,6,0,-4,5,18,31,10,12,6,17
-2,7,9,-2,-5,8,18,31,10,12,5,16
-2,9,11,-3,-6,10,18,32,11,12,4,16
-1,9,10,-3,-5,9,19,33,12,13,6,17
0,8,8,-3,-4,8,20,35,14,15,8,20
1,8,7,-4,-3,8,20,36,15,16,10,22
1,9,7,-5,-3,8,20,37,16,16,11,23
1,10,7,-5,-3,8,20,38,17,17,11,23
1,9,7,-4,-3,8,20,39,17,18,11,23
0,7,6,-3,-2,7,20,40,18,19,12,23
0,5,5,-3,-2,6,21,42,19,20,13,24
0,5,5,-3,-2,6,21,43,20,21,13,24
0,7,6,-3,-3,7,21,44,21,22,14,25
1,8,6,-4,-3,7,21,45,22,23,15,26
1,8,6,-4,-2,7,21,45,23,24,15,27
1,9,7,-5,-3,8,20,46,24,24,15,27
1,10,8,-5,-3,9,20,47,24,24,14,27
2,12,8,-7,-3,10,20,49,25,25,15,28
4,14,9,-9,-2,11,21,51,27,27,16,29
5,15,9,-10,-2,12,21,54,28,29,18,30
6,15,9,-10,-1,12,22,56,30,30,19,32
7,17,10,-12,-1,14,21,57,31,31,19,33
7,19,11,-13,-1,16,22,59,32,33,20,34
8,20,11,-14,-1,16,23,61,33,34,21,35
8,18,10,-13,-1,14,23,63,35,36,22,36
8,16,8,-12,0,12,24,66,36,37,22,36
8,15,7,-12,0,11,24,68,37,38,22,36
9,16,7,-12,0,12,23,70,38,39,24,37
9,17,7,-13,0,12,23,72,39,40,26,38
9,17,7,-13,0,13,24,74,41,42,28,39
9,18,8,-13,0,13,24,76,43,44,29,40
9,19,9,-14,0,14,24,78,44,45,29,41
11,21,9,-16,1,15,24,80,46,47,31,42
15,24,8,-20,3,17,25,83,48,49,32,44
18,27,8,-22,5,18,26,86,49,51,33,45
19,27,7,-23,6,17,26,90,51,53,34,47
19,26,6,-22,6,16,26,92,52,55,35,48
20,28,8,-24,6,18,26,94,53,56,35,48
21,33,12,-27,5,23,25,94,52,55,34,48
21,35,13,-28,5,25,25,95,52,56,35,49
22,33,11,-27,6,22,25,97,54,58,38,51
22,30,8,-26,8,19,26,99,55,59,40,53
23,29,6,-26,9,18,26,101,56,60,41,55
25,29,5,-27,10,17,26,103,57,62,42,56
25,29,4,-27,10,16,26,105,58,63,42,56
26,30,4,-28,11,17,26,106,58,63,42,57
27,32,5,-29,11,18,26,107,59,64,43,58
28,34,5,-31,12,20,26,107,60,65,45,59
28,36,6,-32,12,21,26,107,60,65,45,58
28,37,7,-32,11,23,24,106,59,63,43,56
28,38,9,-33,10,24,23,105,57,62,42,56
29,39,9,-34,10,24,23,105,57,61,43,57
30,39,9,-35,10,24,23,105,57,61,43,57
30,39,9,-35,10,24,23,104,56,61,43,58
29,38,9,-34,10,24,23,103,56,60,43,58
29,38,9,-34,11,24,22,102,55,59,42,59
30,39,9,-34,11,24,22,100,54,57,41,59
30,39,9,-35,11,24,21,98,53,56,40,58
30,39,8,-35,11,24,20,95,52,54,39,58
30,38,8,-35,11,23,19,92,50,52,37,57
30,38,8,-35,10,23,18,89,47,50,35,57
29,37,7,-34,10,22,17,86,45,47,34,56
28,35,7,-31,10,21,16,82,43,45,33,56
26,33,6,-29,9,20,15,77,41,42,32,55
25,32,7,-28,9,20,14,73,39,40,30,55
24,31,8,-28,8,20,13,68,37,37,28,54
23,31,8,-27,8,20,12,64,35,34,26,52
23,30,8,-26,8,19,11,60,32,31,24,50
22,27,6,-25,8,17,10,57,30,29,22,48
21,25,4,-23,8,15,9,54,29,27,20,47
21,25,4,-23,8,15,9,50,27,24,18,46
20,25,4,-22,8,14,8,46,25,21,15,45
19,23,4,-21,8,14,8,42,23,19,13,43
18,22,3,-20,8,13,8,38,22,17,10,42
18,21,3,-19,8,13,8,34,20,14,9,40
17,19,2,-18,7,12,7,31,18,12,7,39
16,17,1,-16,7,10,6,28,16,9,5,37
15,16,1,-15,6,9,6,25,14,7,4,36
13,14,1,-14,5,8,5,22,12,5,2,35
11,11,0,-11,5,7,4,19,11,3,0,34
10,10,0,-10,5,5,4,17,10,2,-2,32
9,10,0,-9,5,6,4,14,8,0,-5,31
8,12,3,-9,3,8,2,11,6,-2,-7,29
8,13,5,-10,1,10,1,8,4,-5,-8,27
8,14,6,-10,0,10,0,6,3,-6,-9,27
9,14,6,-11,0,10,0,5,2,-7,-10,27
8,14,6,-11,0,10,0,4,1,-8,-11,26
8,12,5,-10,1,9,0,2,1,-9,-11,26
7,9,2,-8,2,7,1,1,1,-8,-11,26
8,7,-1,-8,4,4,2,0,1,-8,-10,27
8,6,-2,-7,5,3,2,-1,1,-8,-11,28
8,6,-3,-7,5,2,2,-2,0,-9,-11,27
7,5,-3,-6,5,1,2,-4,-1,-10,-12,27
6,4,-2,-5,4,1,1,-6,-2,-11,-13,25
4,4,-1,-4,3,1,0,-8,-4,-12,-13,23
4,4,0,-4,2,2,0,-9,-4,-13,-14,22
4,4,0,-4,2,1,0,-9,-4,-13,-14,21
4,3,-1,-4,2,1,0,-10,-4,-13,-15,22
4,3,-1,-4,3,1,0,-10,-4,-13,-15,23
5,4,-1,-5,3,1,0,-10,-4,-13,-16,23
5,5,-1,-5,3,2,0,-11,-5,-13,-16,22
5,4,-1,-4,3,2,0,-11,-6,-13,-15,22
5,4,-1,-5,3,2,0,-12,-6,-13,-15,22
6,5,-1,-5,3,2,0,-12,-7,-13,-15,23
6,5,-1,-5,3,2,0,-12,-7,-13,-15,24
6,5,-1,-5,3,2,0,-13,-7,-14,-15,24
6,5,-1,-5,3,2,0,-13,-8,-14,-15,24
6,4,-2,-5,4,1,0,-13,-8,-14,-15,23
7,4,-3,-5,5,0,0,-12,-8,-14,-15,23
7,3,-4,-5,5,0,0,-12,-8,-14,-15,23
7,3,-3,-5,5,0,0,-12,-8,-14,-15,23
6,3,-3,-5,5,0,0,-12,-8,-14,-15,23
6,4,-2,-5,4,1,0,-13,-8,-14,-15,23
5,5,0,-6,3,2,-1,-14,-9,-15,-16,22
4,4,0,-5,2,2,-1,-15,-10,-16,-18,22
4,0,-2,-2,3,0,-1,-14,-10,-15,-18,23
4,-2,-6,-1,5,-3,0,-13,-9,-14,-16,25
5,-1,-6,-2,6,-3,0,-13,-9,-14,-16,26
6,1,-4,-3,5,-1,0,-13,-10,-14,-16,25
6,4,-1,-5,4,2,0,-14,-12,-15,-17,24
6,5,-1,-5,3,2,0,-14,-12,-15,-17,24
7,5,-2,-6,4,1,0,-13,-11,-15,-16,24
7,6,-1,-7,4,3,0,-13,-12,-15,-17,24
7,8,1,-8,3,5,-1,-14,-12,-15,-17,24
7,8,1,-8,3,5,-1,-14,-13,-15,-16,25
7,6,0,-6,3,3,0,-13,-12,-14,-15,26
7,4,-2,-5,4,0,1,-12,-11,-13,-14,26
6,2,-4,-4,5,-1,1,-12,-10,-13,-14,25
6,0,-6,-3,6,-2,2,-11,-10,-12,-14,24
5,0,-6,-2,5,-3,2,-11,-10,-12,-14,23
3,-1,-5,0,4,-3,1,-11,-10,-13,-15,23
2,-1,-4,0,3,-2,1,-11,-10,-13,-16,23
3,1,-2,-2,2,0,1,-10,-10,-13,-15,23
6,4,-2,-4,3,1,1,-10,-10,-12,-15,24
6,5,-2,-5,4,2,1,-10,-10,-12,-16,24
6,5,-1,-5,3,3,1,-10,-10,-13,-17,23
6,6,0,-6,3,3,1,-10,-10,-13,-16,24
7,6,-1,-7,4,3,2,-9,-9,-12,-15,25
8,7,-2,-8,5,3,2,-8,-8,-11,-14,26
8,6,-3,-8,6,2,3,-7,-8,-10,-13,27
8,5,-3,-6,6,1,2,-6,-8,-10,-14,27
7,4,-3,-5,5,0,1,-7,-10,-11,-15,26
5,2,-3,-3,3,0,1,-7,-11,-12,-16,25
3,1,-2,-2,2,0,0,-8,-12,-13,-16,25
4,2,-2,-3,3,0,0,-7,-11,-12,-15,25
6,2,-3,-4,4,0,1,-6,-9,-11,-13,26
7,3,-4,-5,5,0,2,-5,-8,-10,-12,27
7,4,-2,-6,4,1,1,-5,-8,-10,-12,27
6,5,0,-6,3,2,0,-5,-9,-10,-13,26
6,5,-1,-5,3,2,0,-5,-9,-10,-13,27
6,4,-2,-5,4,1,1,-5,-9,-10,-13,28
6,2,-4,-3,4,0,1,-5,-10,-10,-13,28
5,0,-5,-2,4,-2,1,-5,-11,-10,-14,28
5,1,-4,-3,4,-1,1,-5,-11,-11,-14,28
6,3,-3,-5,4,0,1,-5,-11,-11,-14,27
7,4,-2,-6,4,1,0,-5,-11,-11,-13,27
6,5,-1,-6,3,2,0,-5,-11,-11,-13,27
6,6,0,-6,3,3,0,-5,-12,-11,-13,26
7,5,-1,-6,4,2,0,-5,-12,-11,-13,26
8,5,-3,-7,5,1,1,-4,-11,-10,-13,27
9,5,-4,-7,6,1,2,-4,-10,-10,-12,28
8,5,-4,-7,6,1,1,-4,-11,-11,-13,28
8,5,-3,-6,5,1,1,-4,-12,-11,-13,27
7,6,-2,-6,5,1,0,-5,-13,-12,-14,26
7,7,0,-7,4,2,0,-5,-14,-12,-15,26
8,7,0,-7,4,3,-1,-6,-14,-13,-16,26
8,6,-1,-6,4,2,-1,-6,-14,-13,-15,27
7,5,-1,-5,4,2,-2,-6,-15,-13,-15,27
6,5,-1,-5,3,2,-2,-7,-16,-14,-15,26
5,5,-1,-5,2,2,-3,-8,-16,-15,-15,25
5,5,-1,-5,3,1,-3,-8,-16,-15,-15,25
5,4,-1,-5,3,1,-3,-8,-16,-14,-14,25
6,5,0,-5,3,2,-3,-7,-16,-14,-14,25
7,6,0,-6,4,2,-2,-7,-16,-13,-14,25
7,6,-1,-7,4,2,-2,-7,-16,-13,-14,25
7,5,-2,-6,4,1,-2,-7,-16,-13,-14,25
7,4,-3,-6,4,0,-2,-7,-17,-13,-14,25
7,4,-3,-5,5,0,-2,-7,-17,-14,-14,25
7,4,-3,-5,5,0,-2,-7,-17,-14,-14,25
7,6,-1,-6,4,2,-2,-7,-18,-15,-15,25
6,7,0,-6,3,3,-3,-8,-19,-16,-17,24
7,6,0,-6,4,2,-3,-8,-19,-16,-17,25
7,4,-3,-5,5,0,-3,-7,-19,-16,-17,26
6,1,-5,-3,5,-2,-3,-7,-19,-16,-17,26
5,0,-5,-2,5,-3,-3,-7,-19,-16,-16,26
5,1,-4,-3,4,-2,-4,-7,-19,-16,-16,24
5,3,-2,-4,4,0,-4,-7,-19,-16,-16,24
5,4,-1,-4,4,1,-4,-7,-19,-16,-15,24
5,4,0,-4,4,1,-4,-7,-19,-16,-15,25
5,4,0,-5,4,1,-4,-7,-19,-16,-15,25
6,4,-1,-5,4,0,-4,-7,-19,-16,-14,26
6,3,-3,-5,5,0,-3,-7,-19,-15,-14,26
6,2,-4,-5,5,-1,-3,-7,-18,-15,-14,26
6,3,-3,-5,4,0,-4,-7,-19,-16,-15,25
6,3,-2,-5,4,0,-4,-7,-19,-16,-16,24
6,2,-4,-4,5,-1,-4,-7,-19,-16,-16,24
6,0,-5,-3,6,-2,-4,-7,-19,-16,-15,25
6,0,-5,-3,6,-1,-4,-7,-19,-16,-15,26
5,1,-4,-3,5,-1,-5,-8,-19,-17,-16,26
5,2,-3,-4,4,0,-6,-8,-20,-17,-17,25
5,1,-4,-4,4,-1,-6,-8,-20,-17,-18,25
6,1,-5,-4,5,-1,-5,-8,-19,-17,-17,25
6,2,-4,-4,5,0,-4,-7,-19,-16,-16,25
7,3,-4,-5,6,0,-4,-7,-19,-16,-15,25
8,4,-3,-6,6,0,-4,-7,-19,-16,-15,25
8,4,-3,-6,6,1,-4,-8,-19,-16,-15,25
7,4,-2,-5,5,0,-4,-8,-19,-16,-15,24
6,3,-3,-4,4,0,-4,-8,-19,-16,-14,24
5,2,-3,-3,4,0,-5,-8,-19,-16,-15,23
5,1,-3,-3,3,0,-5,-9,-20,-17,-16,23
5,2,-2,-3,3,0,-6,-10,-21,-18,-18,22
6,3,-2,-4,4,0,-7,-9,-21,-18,-18,23
7,3,-3,-5,5,0,-7,-9,-21,-18,-18,24
7,3,-3,-5,6,0,-7,-8,-20,-17,-17,25
7,4,-3,-5,5,0,-7,-8,-20,-17,-16,25
7,5,-2,-6,5,2,-7,-8,-20,-17,-16,25
8,6,-2,-7,4,2,-7,-8,-20,-17,-16,23
8,5,-3,-7,5,1,-7,-8,-19,-17,-16,23
7,2,-4,-5,6,-1,-6,-7,-18,-16,-15,23
7,2,-4,-5,6,-1,-6,-7,-18,-15,-15,24
6,3,-2,-4,4,0,-6,-7,-18,-16,-16,24
5,3,0,-4,3,1,-7,-8,-19,-16,-17,22
4,3,0,-3,2,1,-6,-7,-18,-16,-16,22
5,4,-1,-4,3,1,-5,-6,-16,-14,-14,21
6,6,0,-6,3,2,-4,-6,-15,-14,-14,20
7,8,0,-7,3,4,-4,-6,-15,-14,-15,21
8,9,1,-9,3,5,-4,-5,-14,-13,-14,23
9,10,1,-10,4,6,-3,-5,-13,-12,-12,25
10,11,2,-10,4,6,-2,-4,-12,-11,-11,26
10,12,3,-11,3,8,-1,-4,-12,-11,-11,25
9,13,5,-11,2,9,-1,-4,-12,-10,-10,25
9,14,6,-11,1,10,-1,-3,-12,-10,-9,26
9,15,7,-12,0,11,0,-3,-11,-9,-8,27
8,17,9,-13,0,13,-1,-4,-11,-9,-8,26
9,21,11,-15,-1,16,-1,-4,-10,-9,-8,26
10,23,12,-17,-1,17,-2,-4,-10,-8,-7,26
11,22,11,-16,0,16,-4,-4,-9,-8,-7,27
10,20,10,-15,0,15,-6,-5,-9,-8,-7,28
10,20,10,-14,0,15,-7,-5,-9,-8,-7,28
11,21,10,-15,0,15,-9,-6,-9,-8,-7,28
12,22,10,-17,0,16,-10,-6,-9,-8,-8,28
14,24,10,-19,1,17,-11,-7,-9,-9,-8,28
15,26,10,-21,2,18,-11,-7,-9,-9,-8,29
16,26,10,-21,3,18,-11,-8,-10,-10,-8,30
16,23,8,-19,4,15,-12,-8,-11,-10,-9,31
15,17,3,-16,6,10,-12,-8,-11,-11,-9,32
15,13,0,-14,8,7,-12,-8,-12,-11,-9,31
15,13,-1,-14,8,6,-12,-8,-13,-11,-9,28
14,13,-1,-14,7,6,-12,-9,-13,-12,-10,25
13,13,0,-13,7,6,-12,-9,-13,-12,-11,23
13,13,0,-13,7,6,-11,-9,-12,-12,-11,23
12,12,0,-12,6,5,-10,-9,-12,-12,-11,22
10,10,0,-10,6,4,-10,-10,-13,-12,-12,21
9,9,0,-9,5,4,-10,-10,-13,-13,-13,20
9,10,1,-9,4,5,-10,-10,-13,-13,-13,20
9,9,0,-8,4,5,-9,-8,-12,-12,-13,21
8,7,-1,-7,4,3,-8,-7,-12,-12,-13,22
7,6,-1,-7,4,2,-8,-8,-12,-13,-14,21
6,5,-2,-6,3,1,-8,-9,-13,-14,-15,20
5,3,-3,-4,4,0,-8,-9,-13,-14,-17,19
4,1,-4,-3,4,-2,-7,-9,-13,-15,-17,20
5,0,-4,-3,5,-2,-7,-9,-14,-15,-17,21
5,1,-3,-3,5,-2,-7,-10,-14,-16,-17,21
5,0,-4,-2,5,-3,-7,-10,-14,-16,-17,20
3,-3,-6,0,4,-5,-7,-10,-14,-16,-17,18
1,-4,-5,1,3,-5,-8,-11,-15,-17,-18,15
0,-4,-5,2,2,-5,-8,-12,-15,-18,-19,12
1,-4,-5,2,3,-5,-8,-12,-14,-17,-18,12
1,-3,-4,1,3,-4,-7,-12,-13,-17,-18,13
1,-1,-2,0,2,-2,-8,-12,-14,-17,-18,13
0,-1,-1,0,1,-1,-8,-12,-14,-18,-19,12
1,0,0,0,1,0,-8,-12,-14,-18,-20,12
2,2,1,-2,0,1,-8,-12,-14,-18,-20,12
2,3,0,-3,0,1,-8,-12,-14,-18,-20,12
3,2,-1,-3,2,0,-8,-11,-13,-17,-19,12
3,1,-3,-2,3,-1,-7,-10,-12,-16,-19,12
3,0,-3,-2,3,-1,-7,-10,-11,-16,-19,13
3,0,-3,-2,3,-1,-7,-10,-11,-16,-19,13
3,0,-2,-2,3,-1,-7,-10,-11,-16,-18,13
3,0,-2,-2,3,-1,-8,-10,-11,-16,-18,13
3,-1,-4,-1,4,-2,-7,-10,-11,-16,-18,13
2,-3,-5,0,4,-4,-7,-10,-11,-15,-18,13
1,-3,-5,1,3,-4,-8,-10,-11,-16,-18,12
0,-4,-5,2,2,-5,-8,-9,-11,-16,-18,12
0,-5,-5,2,2,-5,-7,-8,-9,-15,-17,11
0,-4,-4,1,2,-4,-7,-6,-8,-13,-16,11
2,-3,-4,0,3,-3,-7,-4,-6,-11,-15,12
2,-2,-3,0,3,-3,-6,0,-4,-8,-13,13
2,-1,-2,0,2,-2,-6,3,-1,-3,-9,15
2,1,-1,-1,2,0,-5,7,5,5,-3,19
2,4,1,-2,0,2,-2,13,15,17,7,26
2,9,6,-5,-2,7,0,18,26,31,21,36
2,14,12,-8,-4,13,0,20,37,46,36,47
3,18,15,-11,-6,17,1,23,49,63,55,60
4,20,17,-12,-7,19,3,25,62,83,75,75
6,23,17,-14,-6,20,3,26,74,102,95,90
9,26,17,-17,-5,22,2,22,84,120,117,106
13,32,19,-22,-4,25,-4,9,90,134,139,122
16,39,22,-27,-3,30,-17,-11,90,142,159,136
19,46,27,-32,-4,36,-34,-41,83,143,174,149
19,52,32,-36,-6,42,-54,-78,70,136,185,159
18,57,39,-38,-9,48,-75,-118,52,125,192,166
17,62,45,-40,-13,53,-96,-156,30,109,192,168
15,65,50,-40,-17,57,-114,-189,7,85,177,159
10,63,54,-37,-22,59,-128,-218,-17,52,144,137
1,56,55,-28,-28,56,-139,-243,-45,10,95,104
-8,42,51,-17,-30,47,-145,-258,-73,-33,39,63
-15,27,42,-6,-29,35,-147,-265,-99,-74,-14,21
-18,12,30,3,-24,21,-148,-264,-122,-109,-59,-13
-19,-1,18,9,-18,8,-147,-257,-140,-137,-91,-38
-19,-13,6,15,-12,-3,-142,-246,-152,-156,-111,-53
-19,-24,-5,21,-7,-14,-136,-232,-159,-166,-121,-63
-19,-33,-13,25,-3,-23,-130,-216,-161,-168,-125,-68
-18,-36,-18,27,-1,-27,-124,-200,-157,-164,-124,-70
-17,-35,-18,26,0,-27,-117,-183,-149,-155,-120,-67
-14,-32,-17,24,1,-25,-110,-165,-137,-143,-112,-61
-12,-28,-16,21,2,-22,-104,-148,-124,-129,-101,-53
-9,-24,-15,17,3,-20,-98,-130,-109,-114,-90,-45
-7,-21,-14,14,4,-18,-88,-112,-94,-98,-77,-37
-3,-18,-14,10,5,-16,-76,-93,-78,-82,-66,-31
0,-14,-13,7,6,-14,-63,-75,-64,-67,-56,-25
1,-9,-10,4,5,-10,-52,-60,-51,-55,-48,-20
2,-4,-6,1,3,-5,-42,-48,-41,-45,-41,-16
2,-1,-3,0,3,-2,-33,-36,-30,-36,-34,-11
3,1,-3,-1,3,-1,-24,-25,-21,-27,-27,-6
4,3,-2,-3,3,0,-18,-17,-13,-20,-23,-2
4,4,0,-4,2,2,-14,-11,-8,-15,-21,0
3,4,1,-4,1,3,-11,-7,-5,-12,-19,1
2,3,1,-3,0,3,-8,-3,-3,-10,-17,3
2,3,2,-3,0,3,-5,0,-1,-8,-15,4
3,4,2,-4,0,3,-2,3,0,-7,-14,5
2,4,3,-3,0,3,-1,5,1,-5,-12,5
2,4,2,-3,0,3,0,7,3,-2,-11,6
2,3,0,-3,1,2,1,9,5,-1,-10,7
2,3,0,-3,1,1,1,11,7,0,-9,7
2,4,0,-3,1,2,2,12,8,1,-7,7
1,3,1,-2,0,2,2,13,9,2,-6,7
0,1,1,-1,0,1,3,14,9,3,-5,8
1,0,0,0,0,0,5,16,10,4,-4,9
2,2,0,-2,0,1,5,17,11,5,-4,10
3,5,3,-4,0,4,5,17,11,5,-4,9
3,7,4,-5,0,5,5,18,12,5,-4,8
3,8,4,-5,0,6,5,19,13,7,-3,7
3,7,4,-5,0,5,5,20,15,9,-1,7
3,7,4,-5,0,5,6,21,16,10,0,8
3,7,4,-5,0,5,6,21,16,11,0,8
3,6,4,-5,0,5,6,22,17,11,0,7
3,6,4,-4,0,5,7,22,17,11,0,8
3,6,5,-4,-1,5,7,23,17,12,0,9
2,6,4,-4,-1,5,8,24,19,13,2,11
2,6,3,-4,0,4,8,25,20,14,4,13
2,5,2,-4,0,4,8,26,21,16,6,14
2,6,3,-4,-1,4,8,26,22,16,6,13
2,6,4,-4,-1,5,8,26,22,17,6,12
4,7,5,-5,-1,6,8,27,23,17,6,11
5,9,5,-6,0,6,9,28,23,17,6,11
5,10,6,-7,0,8,9,28,23,17,6,11
5,12,7,-8,-1,10,8,28,24,17,6,11
5,13,8,-9,-1,10,8,29,25,18,6,12
4,12,8,-8,-1,10,9,30,26,19,6,13
3,13,10,-8,-3,12,9,30,26,20,7,13
3,13,10,-8,-3,12,9,30,26,20,7,14
2,10,9,-6,-3,9,9,31,26,21,8,14
2,8,7,-5,-3,7,10,32,26,21,9,13
2,7,6,-4,-2,6,10,33,27,22,10,13
3,7,4,-4,-1,5,11,35,29,24,12,15
4,7,3,-5,0,5,12,36,31,26,14,16
5,9,5,-7,0,7,12,37,32,28,14,16
6,13,7,-9,0,10,12,38,33,29,15,16
7,15,8,-11,0,11,12,39,34,30,15,16
7,16,8,-12,0,12,12,41,35,31,16,17
8,16,9,-12,0,12,12,42,35,32,16,18
8,16,9,-12,0,12,12,43,36,32,16,19
8,16,8,-12,0,12,12,45,37,33,16,20
9,16,8,-13,1,12,13,46,38,35,17,21
9,17,8,-13,0,12,13,48,39,36,19,21
9,17,8,-13,0,13,13,49,40,38,20,22
9,18,9,-14,0,14,13,50,40,39,21,22
9,19,10,-14,-1,15,13,51,41,40,21,22
9,17,8,-14,0,13,13,54,42,41,22,22
9,16,7,-13,1,11,14,56,43,43,24,23
9,16,7,-13,1,11,14,58,45,44,26,23
9,17,8,-14,1,12,14,60,47,46,28,23
10,18,8,-14,1,13,14,62,49,49,30,24
11,19,8,-15,2,13,15,65,51,51,32,25
11,18,7,-15,2,12,15,67,53,53,33,26
12,17,6,-14,3,11,16,69,54,55,34,28
13,19,6,-15,3,12,16,72,55,56,35,29
13,21,8,-17,2,14,16,74,56,57,35,29
14,23,9,-19,2,16,16,76,57,58,36,30
15,26,10,-21,2,18,16,78,58,60,37,31
16,28,12,-23,2,20,16,80,59,61,39,31
16,29,13,-23,2,21,16,81,60,63,40,32
16,29,12,-23,2,21,16,84,62,65,42,33
17,29,11,-23,3,20,16,86,64,67,44,34
17,28,10,-22,3,19,17,88,65,69,46,34
17,27,10,-22,3,18,16,89,65,70,46,35
17,28,11,-23,3,19,16,90,65,70,47,37
17,28,11,-23,3,19,15,91,65,71,48,38
18,28,10,-23,3,19,15,92,66,72,49,39
19,30,10,-25,4,20,16,94,67,74,51,40
21,32,10,-26,5,21,16,95,68,76,53,40
21,32,11,-27,4,21,16,96,68,76,53,41
20,32,12,-27,4,22,15,96,67,75,52,40
19,32,12,-26,3,22,14,95,65,74,50,40
17,31,13,-25,2,22,13,94,64,73,50,40
16,29,13,-23,1,21,12,94,63,72,51,41
15,28,12,-22,1,20,12,93,63,72,51,42
15,27,12,-21,1,19,12,93,63,72,51,42
14,25,11,-19,0,18,11,91,62,71,50,40
12,23,11,-17,0,17,11,89,61,70,49,38
11,23,12,-17,0,17,11,87,60,68,49,38
11,24,12,-18,-1,18,11,85,58,66,48,38
10,23,12,-17,-1,17,10,83,57,65,47,37
8,20,11,-15,-1,15,9,80,55,63,46,35
7,17,10,-12,-1,13,9,78,53,61,45,33
6,15,10,-11,-1,12,8,75,52,60,43,32
4,14,10,-10,-3,12,7,71,50,57,41,30
2,13,11,-8,-4,12,6,66,47,54,39,30
0,10,10,-6,-5,11,5,62,45,51,37,30
0,8,9,-4,-5,9,4,59,42,48,35,29
-1,7,8,-3,-5,7,4,55,40,45,33,28
-2,5,7,-2,-5,6,4,52,37,42,31,26
-3,2,6,0,-5,4,3,48,35,39,27,24
-5,-1,5,2,-5,2,3,45,34,37,25,21
-6,-3,5,4,-5,1,2,41,32,34,22,18
-7,-1,7,4,-7,4,0,36,28,29,17,15
-8,2,11,2,-10,8,-1,30,25,25,13,12
-8,3,11,2,-10,8,-1,27,23,23,13,11
-9,0,9,4,-10,4,-1,25,22,21,13,10
-11,-3,7,6,-9,2,-1,22,21,20,12,9
-11,-5,6,7,-9,0,-1,19,19,17,10,8
-12,-7,5,9,-8,-1,-1,17,17,15,8,8
-12,-9,3,10,-8,-3,-1,14,16,14,6,9
-13,-11,3,12,-8,-4,-2,10,14,11,4,8
-15,-13,2,14,-8,-5,-3,7,11,8,1,5
-16,-16,1,16,-9,-7,-3,4,9,6,-1,0
-17,-18,0,17,-9,-9,-3,3,8,4,-2,-4
-18,-19,0,18,-9,-9,-4,1,7,2,-4,-6
-18,-18,0,18,-9,-9,-4,0,6,1,-5,-6
-18,-17,0,17,-9,-9,-4,-2,5,0,-5,-7
-17,-15,2,16,-10,-7,-5,-4,3,-1,-6,-8
-17,-13,4,15,-11,-4,-6,-7,2,-3,-8,-9
-18,-14,5,16,-11,-4,-6,-8,1,-4,-9,-9
-19,-16,4,18,-11,-5,-6,-9,0,-5,-9,-10
-19,-17,2,18,-11,-7,-5,-9,0,-5,-10,-9
-18,-16,2,17,-10,-7,-5,-9,0,-6,-10,-8
-17,-16,2,16,-9,-7,-5,-10,-1,-6,-11,-8
-19,-18,1,18,-10,-8,-5,-10,-2,-7,-13,-10
-22,-21,1,21,-11,-10,-6,-12,-3,-8,-14,-12
-23,-23,1,23,-12,-11,-6,-13,-4,-8,-14,-13
-23,-24,0,24,-11,-12,-5,-14,-3,-8,-14,-13
-23,-25,-2,24,-10,-13,-4,-14,-3,-8,-13,-13
-22,-25,-2,24,-10,-14,-5,-14,-3,-9,-13,-14
-22,-25,-2,24,-11,-13,-6,-14,-4,-10,-14,-14
-22,-24,0,23,-11,-12,-6,-15,-5,-10,-15,-14
-22,-22,0,21,-12,-11,-7,-15,-5,-10,-15,-15
-21,-21,1,21,-11,-10,-6,-15,-5,-10,-14,-15
-21,-22,0,21,-11,-10,-5,-14,-4,-9,-14,-15
-21,-22,0,21,-11,-11,-5,-14,-4,-9,-14,-15
-21,-22,0,21,-11,-10,-5,-14,-5,-10,-15,-15
-21,-22,0,22,-11,-11,-5,-14,-5,-10,-15,-14
-22,-23,0,22,-11,-11,-5,-14,-6,-11,-15,-14
-22,-21,1,22,-12,-10,-5,-15,-7,-11,-14,-14
-22,-20,1,21,-12,-9,-5,-15,-7,-12,-14,-14
-22,-21,1,22,-12,-10,-5,-14,-7,-11,-14,-14
-23,-22,1,22,-12,-11,-5,-14,-8,-11,-13,-14
-24,-22,2,23,-13,-10,-6,-15,-9,-12,-14,-16
-25,-22,3,24,-14,-9,-7,-15,-9,-12,-15,-18
-24,-20,4,22,-14,-8,-8,-16,-9,-13,-15,-19
-22,-18,4,19,-13,-7,-8,-16,-9,-12,-15,-18
-20,-17,3,18,-12,-7,-7,-15,-8,-11,-14,-17
-20,-18,3,19,-12,-7,-7,-14,-7,-11,-14,-16
-21,-20,2,20,-12,-9,-6,-14,-7,-11,-14,-16
-22,-22,0,21,-11,-10,-6,-13,-6,-10,-13,-16
-22,-22,0,21,-11,-10,-5,-13,-6,-10,-13,-16
-21,-21,0,20,-11,-10,-5,-13,-6,-10,-13,-16
-20,-21,0,20,-10,-10,-5,-13,-6,-10,-13,-17
-20,-20,-1,19,-9,-10,-4,-12,-5,-9,-12,-17
-20,-21,-1,20,-10,-11,-4,-12,-5,-9,-12,-17
-20,-21,0,20,-10,-10,-5,-12,-5,-10,-12,-17
-20,-20,1,20,-11,-10,-5,-13,-6,-10,-12,-17
-20,-19,1,19,-11,-9,-5,-13,-6,-10,-12,-16
-20,-18,1,19,-11,-9,-5,-13,-6,-9,-12,-16
-20,-18,1,19,-11,-9,-5,-12,-6,-9,-12,-15
-20,-17,2,18,-11,-7,-6,-12,-6,-9,-13,-16
-20,-15,4,17,-12,-5,-6,-13,-6,-10,-14,-17
-20,-14,5,17,-13,-4,-7,-13,-6,-10,-14,-18
-20,-14,5,17,-13,-4,-7,-12,-6,-10,-14,-18
-20,-15,5,17,-12,-5,-6,-12,-6,-10,-15,-19
-20,-17,3,18,-12,-7,-6,-11,-5,-10,-14,-18
-20,-20,0,19,-11,-9,-5,-10,-4,-9,-12,-15
-20,-21,-1,20,-10,-11,-5,-9,-3,-7,-10,-13
-20,-21,-1,20,-9,-11,-4,-9,-3,-6,-8,-13
-20,-21,0,20,-10,-10,-4,-9,-3,-6,-8,-15
-21,-21,0,21,-10,-11,-5,-9,-3,-7,-9,-16
-22,-22,0,22,-11,-11,-5,-10,-3,-7,-10,-15
-22,-21,0,21,-11,-10,-4,-10,-3,-7,-10,-14
-20,-19,0,19,-10,-9,-4,-9,-3,-6,-10,-13
-19,-18,1,18,-10,-8,-5,-9,-3,-6,-9,-13
-20,-18,1,18,-11,-8,-5,-9,-3,-6,-9,-15
-20,-19,1,19,-11,-9,-5,-9,-3,-6,-8,-16
-21,-19,1,20,-11,-9,-5,-8,-3,-6,-8,-15
-21,-18,2,19,-11,-8,-5,-7,-3,-6,-7,-14
-21,-16,3,18,-12,-6,-5,-7,-3,-6,-7,-13
-20,-16,3,18,-11,-6,-6,-7,-3,-6,-8,-12
-20,-17,3,18,-11,-7,-6,-7,-3,-6,-10,-11
-21,-18,2,19,-12,-8,-6,-8,-3,-7,-11,-11
-22,-20,2,20,-12,-9,-6,-8,-4,-8,-10,-11
-22,-21,1,21,-12,-10,-6,-8,-4,-8,-9,-12
-22,-19,2,20,-12,-9,-6,-8,-3,-7,-9,-14
-21,-16,3,18,-12,-7,-6,-7,-3,-7,-8,-16
-20,-14,4,17,-12,-6,-6,-7,-2,-6,-7,-18
-20,-13,5,16,-12,-4,-6,-7,-2,-6,-7,-18
-19,-11,6,15,-12,-3,-6,-6,-2,-5,-6,-17
-18,-12,6,15,-12,-3,-5,-6,-2,-5,-6,-16
-17,-13,5,15,-12,-4,-5,-5,-1,-5,-7,-15
-17,-13,5,14,-12,-4,-5,-5,-1,-5,-8,-14
-17,-13,4,14,-11,-4,-5,-5,-1,-5,-7,-13
-18,-16,3,16,-11,-6,-5,-5,-1,-5,-6,-12
-19,-18,1,18,-10,-8,-5,-5,-1,-5,-6,-12
-20,-19,0,19,-10,-9,-5,-6,-1,-5,-6,-14
-20,-19,1,19,-11,-9,-6,-6,-2,-6,-7,-16
-20,-18,1,19,-11,-8,-6,-6,-2,-6,-8,-17
-19,-17,2,17,-11,-7,-6,-7,-2,-6,-8,-17
-18,-17,2,17,-11,-7,-6,-7,-2,-7,-9,-17
-18,-17,1,17,-10,-8,-6,-7,-2,-7,-9,-15
-17,-17,0,17,-9,-8,-5,-8,-3,-8,-9,-12
-17,-16,1,17,-9,-8,-5,-8,-3,-8,-8,-9
-17,-16,1,16,-9,-7,-5,-8,-4,-8,-7,-8
-18,-16,1,17,-10,-7,-5,-8,-4,-8,-7,-11
-19,-18,1,18,-10,-8,-6,-8,-4,-7,-7,-17
-19,-18,1,18,-10,-9,-5,-7,-3,-7,-6,-21
-18,-16,2,16,-10,-7,-5,-7,-3,-6,-6,-21
-17,-14,3,15,-10,-5,-5,-8,-3,-7,-8,-20
-17,-14,3,15,-10,-5,-5,-8,-3,-8,-9,-19
-18,-15,2,16,-10,-6,-5,-8,-3,-8,-9,-18
-18,-17,1,17,-10,-8,-5,-9,-3,-8,-9,-18
-18,-19,0,19,-10,-9,-5,-8,-3,-8,-9,-18
-19,-20,-1,19,-10,-10,-5,-8,-3,-8,-8,-18
-19,-19,0,19,-10,-9,-5,-8,-3,-8,-8,-16
-19,-16,2,17,-11,-7,-5,-8,-3,-8,-7,-14
-17,-14,3,15,-10,-5,-5,-8,-3,-8,-6,-12
-17,-13,4,14,-10,-4,-4,-7,-2,-7,-4,-12
-17,-14,2,15,-10,-5,-4,-7,-2,-7,-3,-14
-17,-16,0,16,-9,-8,-4,-7,-2,-7,-4,-17
-17,-17,0,17,-9,-9,-4,-7,-2,-7,-5,-19
-17,-16,1,16,-9,-8,-4,-7,-3,-7,-6,-19
-17,-14,3,15,-10,-6,-4,-8,-4,-8,-7,-19
-17,-13,4,15,-11,-4,-5,-8,-4,-9,-8,-20
-17,-13,4,14,-10,-4,-4,-8,-4,-9,-8,-20
-17,-14,2,15,-9,-6,-4,-8,-3,-8,-7,-19
-17,-15,1,15,-8,-7,-3,-7,-2,-7,-6,-18
-16,-14,1,14,-8,-7,-3,-8,-2,-7,-6,-17
-16,-14,1,14,-9,-6,-3,-8,-2,-7,-6,-17
-16,-14,1,14,-9,-6,-3,-9,-3,-8,-8,-17
-16,-15,1,15,-9,-7,-3,-9,-3,-8,-8,-17
-16,-15,1,15,-9,-6,-3,-8,-4,-8,-7,-16
-16,-15,1,16,-9,-6,-3,-8,-4,-9,-6,-17
-17,-15,1,16,-9,-7,-3,-8,-4,-9,-6,-18
-17,-15,1,16,-9,-7,-4,-8,-4,-9,-7,-18
-17,-15,1,15,-9,-6,-4,-8,-4,-9,-8,-17
-16,-14,1,15,-9,-6,-3,-8,-4,-8,-8,-16
-15,-14,0,14,-8,-6,-3,-8,-4,-8,-7,-14
-14,-13,0,14,-7,-6,-2,-8,-4,-8,-5,-13
-13,-14,0,14,-7,-7,-2,-7,-3,-7,-5,-12
-14,-14,0,14,-7,-7,-1,-7,-3,-7,-5,-14
-14,-14,0,14,-7,-7,-1,-7,-2,-6,-5,-17
-15,-13,2,13,-8,-6,-1,-6,-2,-6,-5,-19
-15,-12,3,13,-9,-5,-1,-6,-1,-6,-4,-18
-15,-11,3,12,-9,-4,0,-5,-1,-5,-3,-17
-15,-10,4,12,-9,-3,0,-5,0,-4,-1,-15
-14,-10,4,11,-9,-3,1,-4,1,-3,0,-14
-13,-9,4,11,-9,-2,1,-3,2,-2,0,-14
-14,-8,6,11,-10,-1,1,-3,1,-2,0,-13
-14,-6,8,10,-11,0,1,-4,1,-3,0,-13
-14,-4,10,9,-12,2,2,-4,1,-3,-1,-13
-14,-2,11,8,-12,4,2,-4,1,-3,-2,-12
-13,0,12,7,-11,5,4,-3,2,-2,-2,-12
-12,0,11,6,-11,5,5,-2,3,-1,-1,-11
-13,-1,11,7,-12,4,6,-2,4,-1,0,-10
-14,-2,12,8,-13,4,6,-2,4,0,1,-10
-14,-3,12,8,-14,4,6,-2,4,0,2,-9
-14,-3,12,8,-13,4,5,-1,5,1,2,-7
-12,-1,11,6,-12,5,3,-1,5,1,3,-4
-10,2,12,4,-12,7,1,-2,5,2,3,-3
-9,4,12,2,-11,8,0,-2,5,2,3,-4
-9,6,13,1,-11,9,-2,-3,4,2,3,-5
-8,6,13,1,-11,10,-2,-4,3,1,3,-6
-8,6,13,1,-11,10,-3,-5,3,1,3,-7
-7,5,12,1,-10,9,-2,-5,3,1,4,-8
-7,4,11,1,-10,8,-2,-4,3,0,3,-9
-6,4,11,1,-9,7,-3,-4,2,0,3,-9
-6,4,10,1,-8,7,-3,-4,1,-1,2,-10
-5,4,8,1,-7,6,-4,-5,0,-1,2,-10
-6,3,7,2,-7,5,-4,-5,-1,-2,1,-10
-7,1,7,3,-7,3,-5,-5,-2,-3,1,-9
-7,0,6,4,-7,3,-5,-5,-2,-3,0,-8
-7,-1,6,4,-7,2,-5,-5,-2,-3,0,-6
-7,0,7,3,-7,3,-4,-5,-3,-3,0,-6
-7,0,7,2,-7,3,-4,-5,-3,-4,0,-6
-8,-2,6,4,-7,1,-3,-5,-3,-4,0,-8
-10,-4,5,6,-8,0,-2,-4,-3,-4,-1,-10
-11,-4,7,8,-9,1,-2,-4,-4,-4,-2,-12
-12,-4,7,9,-10,1,-2,-4,-4,-5,-2,-15
-12,-7,5,10,-9,-1,-1,-4,-4,-5,-3,-17
-13,-10,3,12,-8,-3,0,-3,-4,-5,-3,-17
-13,-13,1,13,-7,-6,0,-4,-4,-6,-4,-17
-14,-14,0,14,-7,-7,0,-5,-4,-7,-5,-17
-15,-15,0,15,-8,-8,0,-6,-5,-8,-6,-18
-17,-17,0,17,-9,-8,0,-7,-7,-10,-7,-18
-18,-17,1,18,-10,-8,0,-7,-8,-11,-8,-17
-17,-13,3,16,-10,-5,0,-7,-8,-11,-9,-16
-15,-10,4,13,-10,-2,-1,-7,-9,-12,-9,-16
-15,-10,4,13,-10,-2,-1,-7,-9,-12,-10,-18
-16,-10,5,13,-11,-2,-2,-7,-10,-13,-10,-20
-17,-10,6,13,-12,-1,-3,-8,-11,-13,-11,-21
-17,-12,5,14,-11,-3,-2,-7,-10,-13,-10,-19
-17,-14,2,15,-10,-6,-1,-6,-10,-12,-9,-17
-17,-16,1,16,-9,-7,0,-5,-9,-11,-8,-16
-16,-15,0,16,-9,-7,0,-5,-8,-11,-7,-17
-15,-14,0,15,-8,-6,0,-4,-7,-10,-7,-17
-15,-15,-1,16,-7,-7,0,-4,-7,-10,-7,-16
-15,-16,-2,16,-7,-8,0,-3,-6,-10,-6,-15
-15,-16,-1,16,-7,-8,0,-3,-6,-10,-7,-15
-15,-15,0,16,-8,-7,0,-4,-6,-11,-7,-15
-16,-15,0,16,-8,-8,0,-4,-6,-11,-7,-15
-16,-16,0,16,-9,-8,0,-4,-7,-11,-8,-15
-17,-16,0,17,-9,-9,0,-4,-7,-12,-9,-15
-18,-18,-1,18,-9,-9,0,-5,-8,-12,-10,-16
-19,-19,-1,20,-10,-10,0,-5,-8,-13,-11,-17
-18,-19,-1,19,-9,-9,0,-5,-8,-12,-10,-18
-16,-17,-1,17,-8,-9,0,-3,-6,-10,-7,-17
-14,-16,-2,15,-6,-9,1,0,-3,-7,-5,-16
-13,-15,-2,14,-5,-9,2,4,-1,-3,-3,-15
-12,-12,0,12,-6,-6,2,7,3,1,0,-13
-12,-9,2,10,-7,-3,3,11,8,7,5,-8
-12,-7,4,10,-9,-1,5,16,17,18,14,-1
-13,-6,6,10,-10,0,8,21,28,32,28,8
-13,-3,9,8,-11,3,9,22,40,48,44,20
-14,1,14,7,-14,7,10,21,52,65,62,33
-14,5,19,5,-16,11,10,20,65,85,82,46
-13,9,21,2,-17,15,10,19,79,105,104,61
-9,15,24,-2,-17,19,8,16,90,125,129,78
-5,22,26,-8,-16,24,3,7,98,144,155,97
0,29,29,-14,-16,29,-9,-10,100,156,179,117
2,36,33,-19,-16,35,-26,-37,93,159,199,135
3,44,39,-24,-18,42,-46,-72,79,154,212,148
3,52,47,-28,-22,50,-68,-111,60,143,220,158
3,60,56,-32,-26,58,-90,-149,37,127,222,162
2,65,63,-34,-30,64,-110,-182,12,105,211,157
-3,64,67,-31,-35,66,-125,-210,-14,72,181,137
-12,55,67,-21,-39,61,-136,-234,-43,28,133,103
-22,38,60,-8,-41,49,-142,-252,-73,-19,74,61
-28,20,48,4,-39,35,-145,-261,-101,-65,14,17
-30,6,36,12,-34,21,-145,-261,-125,-105,-37,-21
-30,-6,23,18,-27,9,-143,-255,-145,-137,-76,-51
-30,-18,12,24,-21,-3,-138,-245,-160,-161,-102,-73
-31,-30,1,31,-16,-14,-132,-231,-170,-175,-119,-87
-32,-40,-7,36,-12,-24,-126,-215,-173,-180,-127,-96
-31,-46,-14,39,-8,-30,-119,-198,-171,-177,-127,-98
-30,-48,-18,39,-6,-32,-112,-181,-163,-169,-122,-96
-28,-47,-19,38,-5,-33,-105,-164,-151,-156,-113,-90
-27,-44,-18,35,-4,-31,-100,-147,-136,-142,-102,-82
-24,-39,-15,31,-4,-26,-94,-129,-121,-126,-90,-74
-21,-32,-12,26,-4,-21,-85,-111,-104,-109,-78,-64
-18,-27,-10,22,-2,-19,-72,-92,-86,-91,-65,-55
-15,-26,-10,20,-1,-18,-59,-73,-70,-75,-54,-47
-14,-23,-9,18,-2,-16,-47,-58,-56,-62,-44,-40
-13,-19,-5,16,-4,-11,-37,-45,-45,-51,-36,-35
-12,-14,-1,13,-6,-7,-28,-35,-34,-41,-29,-30
-13,-11,1,12,-8,-5,-21,-25,-25,-32,-23,-25
-13,-10,2,12,-8,-4,-14,-17,-17,-25,-18,-22
-13,-10,2,11,-8,-4,-9,-10,-10,-19,-14,-19
-13,-10,2,12,-8,-4,-5,-4,-5,-14,-12,-18
-14,-10,3,12,-8,-4,-2,0,-2,-11,-10,-16
-14,-11,3,13,-9,-4,0,3,-1,-10,-9,-15
-15,-13,2,14,-9,-5,2,6,0,-8,-8,-14
-15,-14,1,15,-9,-6,4,9,2,-7,-7,-13
-14,-13,2,14,-9,-5,6,10,4,-5,-5,-11
-12,-8,3,10,-8,-2,7,12,7,-2,-3,-9
-9,-5,3,7,-7,0,8,14,9,0,-2,-8
-8,-3,4,5,-6,0,9,15,11,1,0,-7
-8,-3,4,5,-5,1,10,16,12,2,1,-6
-8,-4,4,5,-6,0,10,17,13,2,1,-6
-9,-4,4,6,-6,0,11,18,13,2,1,-7
-9,-4,5,6,-7,1,11,18,12,2,0,-8
-10,-4,5,7,-8,1,10,18,12,2,0,-9
-12,-6,5,9,-9,0,10,18,13,2,0,-9
-13,-7,5,10,-9,0,10,19,14,4,2,-8
-12,-7,5,9,-9,0,11,19,15,5,3,-8
-10,-6,5,8,-7,0,12,21,17,7,5,-8
-9,-5,4,7,-6,0,13,22,19,9,6,-7
-9,-5,4,7,-7,0,14,23,19,9,7,-6
-9,-5,5,7,-7,0,14,23,19,10,7,-6
-9,-4,5,6,-7,0,14,23,20,10,8,-6
-8,-2,5,5,-6,1,15,24,21,11,8,-4
-7,-1,4,4,-5,1,16,25,23,13,9,-3
-7,-1,4,4,-5,1,15,24,23,13,8,-2
-7,-1,6,4,-6,2,15,24,23,13,7,-3
-7,-1,5,4,-6,2,16,25,24,13,7,-2
-7,-2,4,5,-6,1,16,25,24,13,8,-2
-8,-2,5,5,-6,1,16,25,24,13,9,-2
-8,-2,5,5,-7,1,16,25,24,13,9,-2
-8,-3,4,6,-7,0,16,26,24,14,10,-2
-8,-3,4,6,-7,0,16,26,25,15,11,-2
-8,-3,4,6,-7,0,17,27,26,16,11,-2
-8,-4,3,6,-6,0,18,28,28,17,13,-1
-8,-4,3,6,-6,0,18,30,29,18,14,-1
-7,-3,4,5,-6,0,18,31,29,19,15,-1
-6,-1,5,4,-6,2,18,32,30,20,17,0
-5,0,6,3,-6,3,18,33,30,21,17,1
-4,1,6,2,-5,3,19,34,32,23,18,2
-4,1,5,2,-5,3,19,35,33,24,19,3
-5,0,6,2,-5,3,19,35,34,25,19,2
-6,1,7,2,-6,4,19,35,34,25,18,1
-6,2,8,2,-7,5,18,36,34,25,18,1
-6,2,9,2,-7,6,18,36,35,26,19,2
-6,1,8,2,-7,5,19,38,36,27,20,3
-5,1,7,1,-6,5,19,40,37,29,21,3
-4,3,7,0,-5,5,20,41,38,30,22,4
-3,4,8,0,-5,7,20,43,39,31,22,4
-3,6,9,-2,-6,8,20,44,39,32,23,4
-3,8,11,-3,-6,9,20,45,40,33,23,4
-3,8,11,-3,-6,9,20,47,41,35,24,5
-2,8,10,-3,-5,9,21,49,43,37,26,5
0,9,9,-4,-4,9,22,52,45,39,28,6
1,10,8,-5,-3,9,22,54,46,40,29,6
1,9,8,-5,-3,8,23,56,47,42,31,6
0,6,6,-4,-3,6,23,58,49,44,33,7
-1,4,6,-2,-3,4,23,60,50,46,33,7
-1,4,6,-1,-4,5,23,61,51,47,33,7
0,7,8,-3,-4,7,24,63,52,48,35,8
1,10,9,-5,-3,9,24,66,54,50,37,10
3,14,10,-9,-3,12,25,69,55,52,38,10
4,16,11,-11,-4,14,24,71,56,54,37,9
5,17,12,-12,-4,15,24,73,57,55,37,9
6,18,11,-12,-3,14,25,76,59,56,39,11
7,18,11,-13,-2,14,26,78,61,59,44,14
7,18,11,-13,-1,14,27,81,63,61,47,15
8,20,12,-15,-1,16,27,83,65,63,49,16
9,22,12,-16,-1,17,27,85,66,65,50,17
10,22,11,-17,0,17,27,87,67,66,52,18
11,22,11,-17,0,17,27,90,68,68,53,18
11,22,11,-17,0,17,27,91,69,69,54,19
10,23,12,-17,-1,18,27,93,69,70,55,19
11,24,13,-18,-1,19,27,94,70,71,56,20
12,27,15,-19,-1,21,27,95,70,71,57,21
12,29,17,-20,-1,23,27,96,70,72,57,21
12,30,18,-21,-2,24,26,96,70,72,56,22
12,28,16,-20,-1,22,27,97,71,73,57,23
13,27,14,-20,0,20,27,99,72,74,58,23
14,27,12,-21,1,19,27,100,72,74,59,23
15,28,12,-22,1,20,27,100,72,74,58,22
16,29,14,-23,1,21,27,99,71,73,58,21
16,30,14,-23,0,22,27,98,71,73,58,21
14,29,15,-21,0,22,26,97,70,72,57,20
13,27,14,-20,0,21,26,96,69,71,57,19
12,25,12,-18,0,19,25,95,68,70,56,20
12,23,10,-18,1,17,25,94,68,69,56,20
12,22,9,-18,1,16,25,93,67,67,55,21
12,20,7,-17,3,14,25,91,66,66,55,21
13,15,2,-15,5,9,26,90,66,66,54,21
13,11,-2,-13,8,4,27,89,66,65,54,21
14,9,-4,-12,9,2,27,87,65,64,53,21
15,9,-5,-12,10,1,27,84,63,61,52,21
14,9,-4,-12,9,2,25,80,60,58,51,20
13,7,-5,-10,9,1,24,76,58,55,49,19
11,4,-7,-8,9,-1,23,72,55,53,48,16
10,1,-8,-6,8,-3,22,68,53,50,46,12
8,0,-8,-4,8,-4,22,64,50,47,44,7
7,-1,-8,-3,7,-5,21,60,48,45,42,5
6,-2,-9,-2,7,-6,21,57,47,42,40,5
6,-3,-9,-1,8,-7,21,54,45,40,39,5
6,-4,-10,-1,8,-7,21,50,44,37,37,3
5,-5,-10,0,8,-8,20,47,42,34,34,1
5,-5,-10,0,7,-8,19,43,39,31,31,-1
4,-5,-9,1,6,-7,18,39,37,28,28,-3
2,-7,-9,2,5,-8,18,35,34,24,25,-6
1,-9,-10,4,5,-10,18,32,32,22,23,-7
0,-11,-11,5,5,-11,17,29,31,21,21,-7
-1,-13,-11,7,5,-12,17,27,30,19,20,-8
-2,-14,-12,8,5,-13,17,24,28,17,18,-10
-3,-15,-12,9,4,-13,16,21,26,14,16,-14
-3,-15,-11,9,4,-13,15,18,23,12,14,-17
-4,-15,-10,9,3,-12,14,15,22,9,12,-20
-6,-17,-11,12,2,-14,13,13,20,8,10,-21
-8,-21,-13,15,2,-17,13,12,19,7,9,-22
-9,-22,-13,16,2,-18,13,11,19,6,8,-23
-8,-21,-13,15,3,-18,13,10,18,5,7,-25
-8,-22,-13,15,3,-18,13,9,18,4,6,-26
-9,-23,-14,16,2,-18,13,8,17,3,5,-26
-10,-22,-13,16,2,-18,13,7,16,2,4,-27
-9,-21,-12,15,2,-17,13,6,15,1,4,-27
-9,-21,-12,15,2,-16,13,5,15,1,5,-27
-9,-21,-12,15,2,-16,13,4,14,0,4,-29
-8,-20,-11,14,2,-16,12,4,14,0,4,-31
-8,-19,-11,13,2,-15,12,3,14,0,3,-32
-8,-20,-12,14,2,-16,12,2,14,0,3,-32
-9,-22,-12,16,1,-18,11,2,13,0,3,-31
-11,-24,-12,17,1,-18,11,1,13,-1,3,-32
-12,-25,-12,18,1,-19,11,0,12,-2,1,-34
-12,-25,-12,18,1,-19,11,0,11,-3,0,-36
-10,-22,-11,16,1,-17,11,-1,10,-3,0,-37
-9,-20,-11,15,1,-16,11,-1,10,-3,-1,-37
-10,-21,-11,15,1,-17,11,-1,11,-3,0,-36
-10,-23,-12,16,1,-18,11,-1,11,-3,0,-35
-10,-22,-12,16,1,-18,11,-1,12,-3,1,-36
-10,-22,-12,16,1,-18,11,-1,12,-3,1,-37
-10,-23,-12,16,1,-18,11,-1,12,-3,1,-38
-10,-23,-12,17,1,-18,11,-1,12,-3,1,-39
-10,-24,-12,17,1,-18,11,-1,12,-3,1,-39
-9,-23,-12,16,2,-17,11,-1,12,-3,1,-39
-9,-21,-12,15,2,-17,11,-2,12,-3,1,-39
-9,-21,-12,15,1,-17,11,-2,12,-3,0,-40
-9,-21,-12,15,1,-17,11,-2,12,-3,0,-40
-9,-21,-12,15,2,-17,11,-2,12,-3,0,-40
-8,-20,-11,14,2,-16,11,-2,12,-3,-1,-42
-8,-18,-9,14,1,-14,10,-2,12,-3,-3,-44
-9,-16,-7,13,0,-11,9,-3,11,-5,-5,-45
-9,-16,-6,13,-1,-11,9,-3,11,-5,-4,-45
-9,-19,-9,14,0,-14,10,-2,13,-3,-2,-43
-10,-22,-12,16,1,-17,11,-1,14,-3,-1,-41
-10,-23,-12,16,1,-18,11,-1,13,-3,-2,-42
-11,-23,-12,16,1,-18,11,-1,13,-3,-2,-44
-11,-24,-13,17,1,-18,12,-1,14,-3,-1,-45
-11,-24,-13,17,1,-18,12,-1,14,-2,0,-45
-11,-23,-12,17,1,-17,12,-1,14,-2,0,-45
-11,-22,-11,17,0,-17,12,-1,14,-3,0,-46
-11,-22,-10,17,0,-16,12,-1,14,-3,0,-47
-11,-21,-9,16,0,-15,12,-1,14,-2,0,-47
-10,-19,-8,14,0,-14,12,-1,15,-2,0,-46
-10,-18,-8,14,0,-13,12,-1,15,-1,1,-46
-10,-18,-8,14,-1,-14,12,0,16,-1,0,-46
-11,-19,-8,15,-1,-14,12,0,16,-1,0,-47
-11,-21,-9,16,-1,-15,12,0,16,-1,-1,-47
-12,-22,-9,17,-1,-15,13,0,16,-1,0,-46
-11,-22,-10,17,0,-16,13,1,17,0,0,-45
-10,-22,-10,16,0,-16,14,1,18,1,1,-45
-10,-20,-10,15,0,-15,13,1,18,1,1,-45
-10,-18,-8,14,0,-13,13,1,18,1,1,-46
-10,-18,-8,14,0,-13,13,1,18,1,1,-46
-9,-19,-10,14,0,-14,14,2,18,1,1,-45
-9,-20,-11,15,1,-15,14,2,18,1,2,-45
-9,-22,-11,15,1,-16,14,2,18,2,2,-44
-9,-22,-12,15,2,-17,14,2,18,2,2,-44
-9,-21,-11,15,1,-16,14,2,18,2,2,-44
-10,-20,-9,15,0,-14,13,1,17,1,1,-45
-11,-19,-8,15,-1,-14,12,0,17,0,1,-46
-11,-19,-7,15,-2,-13,12,0,16,0,0,-46
-11,-18,-7,14,-2,-12,12,0,16,0,1,-46
-10,-16,-7,13,-1,-11,12,0,17,0,2,-46
-8,-15,-7,12,-1,-11,13,1,17,1,2,-46
-8,-14,-6,11,-1,-10,13,0,17,1,1,-47
-7,-14,-6,11,-1,-10,13,0,17,1,0,-46
-8,-16,-7,12,0,-11,13,1,17,2,1,-46
-8,-17,-7,12,0,-12,12,1,17,2,1,-45
-9,-17,-7,12,0,-12,12,1,16,1,1,-45
-9,-17,-7,12,0,-12,12,1,16,1,1,-45
-8,-16,-7,11,1,-12,12,0,16,1,1,-45
-8,-15,-7,11,0,-11,12,0,15,0,0,-45
-8,-16,-7,11,0,-11,11,0,14,0,-2,-46
-8,-17,-7,12,0,-12,11,-1,14,-1,-3,-47
-8,-17,-8,12,0,-13,11,-1,14,-1,-3,-47
-7,-17,-9,12,1,-13,12,-1,14,0,-3,-48
-7,-17,-9,12,1,-13,12,-1,14,0,-2,-48
-8,-17,-9,12,1,-13,12,-1,14,0,-1,-49
-8,-17,-9,12,1,-13,12,-1,14,0,0,-49
-8,-18,-10,13,1,-14,12,0,15,1,0,-48
-8,-18,-10,13,1,-14,12,0,15,1,0,-48
-8,-18,-9,13,0,-13,12,0,15,1,0,-49
-9,-17,-7,13,0,-12,11,0,14,0,-1,-49
-9,-16,-6,13,-1,-11,11,-1,13,0,-2,-49
-9,-16,-6,12,-1,-11,11,-1,13,-1,-3,-48
-8,-16,-8,12,0,-12,11,-1,13,0,-2,-47
-7,-17,-9,12,1,-13,12,0,14,0,-1,-46
-7,-17,-9,12,0,-13,12,0,13,0,-1,-46
-7,-16,-8,12,0,-12,11,0,13,-1,-2,-46
-7,-15,-7,11,0,-11,10,-1,13,-1,-3,-48
-6,-13,-6,10,0,-9,9,-2,12,-2,-4,-50
-7,-13,-6,10,0,-9,9,-2,12,-2,-4,-51
-7,-15,-7,11,0,-11,10,-2,12,-2,-4,-50
-8,-16,-7,11,0,-12,10,-2,12,-2,-4,-50
-8,-16,-7,11,0,-12,10,-3,11,-3,-5,-50
-8,-16,-7,11,0,-12,10,-3,11,-3,-6,-50
-8,-15,-7,11,0,-11,10,-3,11,-3,-6,-49
-9,-15,-6,11,0,-11,10,-3,10,-3,-5,-49
-10,-18,-7,13,0,-13,11,-3,11,-2,-5,-49
-11,-21,-9,16,0,-16,11,-3,11,-2,-5,-49
-11,-22,-10,16,0,-16,10,-3,10,-3,-5,-49
-12,-20,-8,16,-1,-15,10,-4,9,-3,-5,-48
-11,-19,-7,15,-2,-13,10,-4,8,-4,-5,-48
-11,-17,-7,14,-2,-12,10,-4,8,-4,-6,-47
-10,-16,-7,13,-1,-12,9,-4,9,-4,-6,-48
-8,-16,-8,12,0,-12,9,-3,9,-3,-6,-48
-7,-15,-8,11,1,-11,9,-3,10,-3,-6,-49
-5,-15,-8,10,2,-11,10,-3,10,-3,-6,-48
-4,-15,-9,9,3,-12,10,-2,10,-2,-6,-47
-4,-14,-9,9,2,-11,10,-3,10,-2,-6,-46
-5,-15,-8,10,1,-12,10,-3,9,-2,-7,-46
-6,-16,-10,11,2,-13,10,-3,9,-2,-6,-46
-6,-17,-11,11,3,-14,11,-3,10,-2,-5,-45
-6,-17,-11,11,3,-14,11,-3,10,-2,-5,-45
-7,-18,-11,12,2,-14,10,-4,9,-3,-6,-46
-9,-18,-9,13,0,-13,9,-5,7,-4,-7,-47
-9,-16,-7,12,-1,-11,9,-5,7,-5,-8,-47
-8,-14,-5,11,-1,-9,9,-5,7,-5,-8,-47
-7,-12,-5,9,-1,-8,10,-4,8,-4,-8,-47
-5,-10,-5,8,0,-8,11,-3,9,-2,-8,-46
-5,-10,-5,8,0,-7,12,-2,10,-1,-7,-45
-5,-9,-4,8,0,-6,12,-2,11,-1,-7,-44
-5,-8,-3,7,0,-5,13,-2,11,0,-6,-43
-4,-7,-2,5,0,-5,13,-2,12,0,-5,-42
-3,-7,-3,5,0,-5,14,-1,12,0,-3,-41
-4,-8,-4,6,0,-6,14,-1,12,1,-2,-40
-4,-9,-4,7,0,-6,14,-2,12,1,-2,-40
-5,-8,-3,7,-1,-5,15,-2,12,1,-2,-40
-5,-7,-2,7,-1,-4,15,-2,12,1,-2,-41
-6,-6,0,6,-2,-3,16,-2,12,1,-2,-40
-6,-6,0,6,-2,-2,17,-2,13,2,-2,-38
-6,-5,0,5,-2,-2,18,-1,14,3,-2,-36
-5,-4,1,4,-2,-1,18,-1,14,3,-2,-35
-3,-2,1,2,-2,0,17,-1,14,3,-3,-35
-2,0,2,1,-2,1,16,-1,14,4,-2,-34
-2,2,4,0,-2,3,14,-2,14,4,0,-34
0,6,6,-3,-2,6,12,-3,14,5,0,-35
0,7,5,-4,-2,6,10,-3,14,5,1,-35
0,6,4,-3,-1,5,9,-4,14,5,1,-34
0,6,4,-3,-1,5,8,-5,13,5,1,-35
1,6,4,-3,-1,5,8,-6,12,4,0,-35
2,7,4,-4,-1,6,7,-6,12,4,0,-34
2,7,4,-5,-1,6,7,-6,11,4,-1,-34
3,7,3,-5,0,5,6,-6,10,3,-1,-34
3,5,2,-4,1,4,6,-7,9,2,-2,-35
3,3,0,-3,2,2,5,-7,8,1,-2,-35
3,1,-2,-2,3,0,5,-7,7,1,-2,-35
3,-2,-5,0,4,-3,5,-6,7,1,-3,-35
3,-4,-7,0,5,-5,6,-6,7,1,-3,-35
3,-4,-7,0,5,-5,6,-6,6,1,-4,-35
2,-3,-5,0,4,-4,6,-7,5,0,-4,-35
1,-3,-5,1,3,-4,6,-8,5,0,-4,-35
0,-6,-6,4,2,-6,6,-8,4,-1,-5,-35
-3,-9,-6,6,2,-7,7,-7,4,-1,-5,-36
-5,-10,-5,7,1,-7,8,-7,4,-1,-6,-36
-5,-10,-5,7,1,-7,8,-7,3,-1,-7,-36
-4,-9,-6,6,1,-7,8,-7,3,-2,-7,-36
-3,-10,-7,7,2,-9,9,-7,2,-2,-8,-36
-4,-12,-8,8,2,-11,9,-8,1,-3,-8,-37
-6,-15,-9,10,2,-12,9,-8,1,-3,-9,-37
-7,-17,-10,12,2,-13,9,-9,0,-4,-10,-37
-7,-17,-10,12,2,-14,10,-8,0,-4,-11,-37
-7,-18,-11,12,2,-14,10,-8,0,-4,-11,-37
-7,-17,-10,12,2,-14,9,-9,-2,-5,-12,-38
-8,-16,-9,12,1,-13,8,-11,-3,-6,-13,-39
-8,-16,-8,12,0,-12,7,-11,-4,-7,-14,-39
-8,-17,-9,13,0,-13,7,-11,-3,-6,-13,-39
-8,-17,-10,13,0,-13,7,-10,-3,-6,-13,-38
-7,-17,-10,12,1,-13,8,-10,-3,-5,-14,-37
-7,-18,-11,12,2,-14,9,-9,-3,-5,-14,-36
-7,-19,-12,13,2,-15,9,-9,-3,-5,-14,-36
-8,-20,-12,14,2,-16,9,-10,-4,-6,-14,-36
-8,-18,-9,13,1,-13,7,-11,-5,-7,-15,-36
-7,-13,-6,10,0,-10,6,-12,-5,-7,-15,-36
-6,-12,-6,9,0,-9,6,-12,-5,-7,-15,-36
-6,-14,-8,10,1,-11,7,-11,-5,-7,-15,-36
-7,-15,-9,11,1,-12,7,-11,-6,-7,-16,-36
-7,-15,-9,11,1,-12,7,-11,-7,-8,-16,-35
-7,-15,-7,11,0,-11,6,-12,-8,-8,-17,-34
-8,-15,-6,11,-1,-10,6,-12,-9,-9,-16,-33
-8,-14,-6,11,-1,-10,5,-12,-9,-9,-16,-32
-8,-14,-6,11,0,-10,6,-12,-8,-8,-16,-31
-8,-15,-7,11,0,-11,6,-11,-8,-8,-16,-32
-8,-17,-9,13,0,-13,7,-10,-8,-7,-15,-33
-8,-19,-11,14,1,-15,7,-8,-7,-6,-14,-34
-8,-21,-13,14,2,-17,8,-5,-5,-3,-13,-34
-7,-20,-13,13,3,-17,9,-1,-3,0,-12,-33
-7,-18,-11,12,3,-15,9,2,1,5,-9,-30
-6,-14,-8,10,2,-11,10,7,6,12,-3,-25
-6,-11,-5,8,0,-8,12,12,15,22,7,-18
-7,-9,-2,7,-1,-5,14,17,26,36,19,-9
-7,-7,0,7,-3,-3,16,18,36,51,34,2
-7,-4,4,6,-5,0,16,18,47,67,51,14
-5,2,8,1,-7,5,16,18,59,85,70,28
-3,8,11,-3,-7,9,16,16,71,104,91,42
0,12,12,-6,-6,12,14,11,81,123,113,58
4,18,13,-11,-4,16,7,0,87,140,137,75
8,24,15,-16,-3,20,-6,-18,88,151,158,92
11,30,19,-20,-3,25,-25,-47,80,152,174,107
13,37,25,-25,-5,31,-47,-83,66,146,186,118
14,45,32,-29,-9,39,-70,-124,46,135,193,127
14,52,39,-33,-12,46,-93,-162,25,120,194,131
13,57,44,-35,-15,50,-113,-196,2,99,185,125
8,57,48,-33,-20,52,-130,-225,-23,68,156,106
0,50,49,-25,-24,49,-142,-250,-51,27,110,74
-8,36,44,-14,-26,40,-149,-268,-80,-18,54,34
-15,18,33,-1,-24,26,-151,-275,-107,-62,-2,-7
-19,0,20,10,-19,10,-151,-274,-132,-101,-51,-44
-22,-16,6,19,-14,-5,-147,-268,-153,-133,-88,-72
-23,-30,-6,27,-8,-18,-141,-258,-168,-156,-113,-92
-23,-41,-17,32,-3,-29,-134,-244,-177,-169,-127,-104
-24,-49,-26,36,1,-38,-127,-227,-178,-171,-132,-109
-23,-54,-31,38,4,-43,-119,-209,-174,-166,-129,-109
-21,-54,-33,37,6,-43,-111,-190,-165,-157,-122,-105
-18,-49,-32,33,7,-40,-104,-171,-151,-143,-113,-100
-14,-44,-30,30,8,-37,-97,-152,-135,-127,-102,-92
-11,-39,-28,26,8,-33,-88,-133,-118,-110,-90,-84
-9,-33,-24,21,7,-28,-78,-114,-102,-94,-79,-75
-7,-28,-21,17,7,-24,-65,-95,-86,-78,-68,-67
-6,-25,-19,14,7,-22,-52,-77,-72,-64,-58,-59
-6,-22,-16,13,6,-19,-39,-62,-59,-51,-49,-52
-6,-21,-14,12,5,-17,-28,-48,-47,-40,-41,-46
-6,-18,-12,11,3,-14,-19,-37,-38,-31,-35,-41
-4,-14,-10,9,3,-11,-12,-27,-29,-23,-29,-37
-3,-13,-9,8,2,-11,-6,-19,-23,-16,-25,-34
-4,-13,-9,9,2,-11,-2,-14,-18,-12,-23,-32
-4,-12,-8,8,2,-10,1,-9,-15,-8,-20,-30
-3,-12,-8,7,2,-10,5,-4,-13,-5,-18,-28
-4,-12,-8,8,2,-10,8,0,-11,-3,-17,-27
-4,-11,-7,7,2,-9,10,2,-9,-2,-16,-27
-3,-9,-6,6,2,-8,11,4,-8,0,-14,-25
-2,-9,-6,5,2,-7,12,6,-6,1,-12,-24
-2,-9,-5,5,2,-7,12,7,-5,2,-11,-23
-2,-9,-5,6,1,-7,12,8,-4,3,-11,-23
-2,-9,-5,6,1,-7,13,9,-3,4,-10,-21
-3,-10,-5,7,1,-8,14,10,-3,4,-10,-20
-5,-11,-6,8,0,-9,14,11,-3,4,-10,-20
-6,-13,-6,9,0,-9,15,11,-3,5,-10,-20
-6,-13,-7,10,0,-10,15,13,-2,6,-9,-20
-5,-12,-7,8,1,-9,16,14,-1,7,-8,-19
-2,-9,-7,6,2,-8,16,16,0,8,-8,-19
0,-6,-7,3,3,-7,16,17,1,8,-8,-18
1,-5,-6,3,3,-6,16,17,2,9,-7,-17
0,-6,-6,3,3,-7,16,17,2,9,-7,-17
-1,-6,-6,4,3,-6,16,18,2,9,-7,-18
0,-5,-4,3,3,-5,17,19,2,10,-6,-18
0,-3,-4,2,3,-4,17,20,3,11,-5,-17
0,-4,-4,2,3,-4,17,21,3,12,-4,-16
0,-5,-5,3,3,-5,17,21,3,12,-4,-16
0,-6,-5,4,2,-6,17,22,3,12,-4,-16
0,-6,-6,4,2,-6,18,23,4,12,-3,-16
-1,-6,-5,4,2,-6,18,24,4,13,-2,-16
-2,-6,-4,4,1,-5,18,24,4,14,-2,-16
-2,-5,-4,4,1,-4,18,25,4,14,-1,-15
-1,-5,-4,3,2,-4,18,27,5,15,-1,-14
0,-5,-5,3,3,-5,19,29,6,16,0,-13
-1,-6,-5,3,2,-5,18,29,5,16,-1,-13
-2,-5,-3,3,0,-4,17,29,5,16,-1,-14
-1,-3,-1,2,0,-2,17,30,5,16,-1,-14
0,0,0,0,0,0,18,31,6,17,0,-13
3,2,0,-3,2,1,18,32,7,18,1,-12
4,3,-1,-3,2,1,19,33,7,19,2,-11
4,3,-1,-4,3,1,19,35,8,20,3,-10
4,3,-1,-4,3,1,19,36,8,20,3,-10
3,2,-1,-2,2,1,18,36,8,21,3,-11
2,0,-2,-1,2,0,18,37,9,21,3,-11
2,-1,-3,0,2,-2,19,38,10,22,2,-11
2,-2,-4,0,3,-3,19,40,11,24,3,-10
2,-1,-4,0,3,-2,19,41,11,25,3,-9
3,2,-2,-2,2,0,18,42,10,25,4,-8
5,6,0,-5,2,3,18,43,11,26,5,-7
6,8,1,-7,3,4,18,45,12,27,6,-7
7,8,1,-7,3,5,18,46,13,28,7,-7
7,8,1,-8,3,5,19,47,14,29,8,-7
8,7,0,-7,4,4,20,49,15,30,9,-7
8,6,-1,-7,4,3,20,51,17,32,10,-6
9,7,-1,-8,5,2,21,54,18,34,11,-5
9,7,-2,-8,6,2,22,56,20,36,12,-3
9,6,-3,-8,7,1,22,58,21,38,13,-2
9,5,-4,-8,7,0,22,60,22,39,15,-1
9,6,-4,-8,7,1,22,61,23,40,16,0
10,8,-2,-9,6,3,22,63,24,41,17,0
12,11,-1,-11,6,4,22,65,24,42,18,1
13,12,0,-12,6,6,22,67,25,43,19,2
13,13,0,-13,6,6,23,69,27,45,20,2
14,12,-1,-13,7,5,23,72,28,47,21,3
14,11,-2,-13,8,4,24,75,30,50,22,4
14,11,-3,-13,9,3,25,78,31,52,24,5
14,11,-3,-13,9,3,25,80,32,53,25,7
14,12,-2,-13,8,4,25,82,33,54,26,8
16,15,-1,-15,9,6,25,85,33,56,28,9
19,17,-1,-17,10,7,25,87,34,58,29,10
20,19,-1,-19,10,8,25,90,36,60,30,11
20,19,-1,-19,10,8,25,92,37,61,31,11
20,19,-1,-19,10,9,25,94,38,62,31,12
20,19,-1,-20,10,9,25,96,38,63,32,13
20,19,-1,-20,11,9,25,97,39,64,33,14
21,20,0,-21,11,10,25,98,39,64,33,15
23,22,0,-22,12,11,25,99,39,65,34,17
24,22,-1,-23,12,11,25,101,40,66,36,19
24,23,-1,-23,12,11,25,102,40,66,37,20
24,24,0,-24,12,12,25,102,40,67,38,21
26,26,0,-26,13,13,25,103,40,67,40,22
27,28,0,-28,13,15,25,103,40,68,40,22
28,29,1,-28,13,15,24,104,40,67,40,21
28,27,0,-28,14,14,24,104,40,67,40,20
28,26,-2,-27,15,13,24,104,39,67,40,20
28,26,-1,-26,14,13,24,102,38,66,40,20
28,27,-1,-27,14,13,23,101,37,65,39,20
28,28,0,-27,14,13,22,99,36,64,39,20
28,28,0,-27,14,14,22,98,35,62,38,20
27,27,0,-27,13,14,21,95,33,60,36,19
26,27,0,-27,13,14,20,92,32,58,34,19
27,27,0,-27,13,14,19,89,30,56,34,19
27,27,0,-27,14,14,19,87,29,55,34,19
27,27,0,-27,14,14,19,83,27,52,32,19
27,26,-1,-26,14,12,18,79,24,50,30,18
26,24,-1,-25,14,11,17,75,22,47,28,17
25,24,-1,-24,14,11,16,71,19,44,25,16
25,23,-1,-24,13,11,15,67,17,40,23,15
24,22,-2,-23,13,11,14,63,14,38,21,14
23,21,-2,-22,13,10,14,59,12,35,20,13
22,19,-2,-21,12,9,13,55,10,33,18,11
20,19,-1,-20,11,9,12,50,8,30,16,8
19,18,-1,-19,10,9,11,46,6,27,13,5
18,17,-1,-18,9,8,10,42,4,24,11,2
17,16,-1,-16,9,7,9,38,2,21,8,1
16,14,-2,-15,8,6,9,34,0,18,7,0
14,11,-3,-12,8,4,8,30,-2,16,5,0
12,7,-4,-10,8,1,8,27,-3,13,3,-1
10,6,-4,-8,8,1,8,24,-5,10,0,-3
10,6,-3,-8,7,2,7,21,-7,8,-2,-5
10,7,-2,-8,6,3,6,17,-9,5,-4,-7
9,7,-2,-8,6,2,6,14,-11,3,-6,-9
8,6,-2,-7,6,2,5,12,-12,1,-7,-10
9,5,-3,-7,7,1,6,10,-12,0,-8,-10
9,5,-4,-7,7,0,6,9,-13,0,-9,-11
8,4,-4,-7,6,0,5,6,-14,-2,-11,-12
6,2,-4,-4,5,0,4,4,-16,-5,-14,-14
5,-2,-6,-2,6,-3,5,2,-17,-6,-15,-16
5,-3,-8,-1,6,-5,5,1,-17,-7,-16,-17
5,-3,-7,-1,6,-5,4,0,-19,-8,-17,-17
4,-2,-7,-1,5,-4,4,-1,-20,-9,-17,-18
4,-3,-7,0,5,-4,4,-2,-20,-10,-17,-18
3,-4,-7,0,5,-5,4,-2,-21,-10,-17,-18
4,-4,-8,0,5,-6,4,-3,-21,-11,-18,-17
5,-4,-8,-1,6,-5,4,-3,-21,-11,-19,-18
4,-5,-9,0,6,-6,4,-4,-22,-12,-20,-18
3,-7,-10,1,6,-8,4,-5,-22,-13,-21,-18
2,-8,-10,3,6,-9,4,-6,-23,-14,-21,-18
2,-6,-9,2,6,-8,4,-7,-24,-15,-20,-18
3,-5,-8,1,6,-7,4,-7,-25,-15,-20,-18
4,-4,-8,1,6,-7,4,-7,-25,-15,-21,-18
4,-4,-8,1,6,-7,3,-7,-25,-15,-21,-18
2,-6,-9,2,6,-7,3,-8,-26,-16,-22,-19
0,-9,-10,4,5,-9,2,-9,-27,-17,-22,-19
0,-10,-10,4,5,-9,2,-10,-27,-18,-22,-20
1,-8,-10,3,5,-8,3,-10,-27,-18,-22,-19
2,-7,-9,2,6,-8,3,-10,-27,-18,-22,-19
2,-7,-10,2,6,-8,3,-10,-27,-18,-22,-18
2,-7,-10,3,6,-9,3,-10,-27,-18,-22,-18
2,-6,-10,2,6,-8,2,-10,-27,-18,-22,-17
3,-6,-10,2,6,-8,2,-10,-27,-18,-22,-16
3,-6,-11,1,7,-8,2,-10,-27,-18,-22,-16
3,-7,-11,1,7,-8,2,-10,-27,-19,-22,-17
3,-8,-11,2,7,-9,2,-10,-28,-19,-23,-17
3,-9,-12,3,7,-10,2,-10,-28,-19,-23,-16
3,-9,-12,4,7,-10,2,-10,-28,-19,-23,-15
2,-10,-12,4,7,-11,3,-10,-28,-19,-22,-14
2,-10,-13,4,8,-12,3,-10,-28,-19,-22,-13
2,-11,-14,4,8,-12,3,-10,-28,-19,-22,-13
2,-10,-12,3,7,-10,2,-10,-28,-20,-22,-15
2,-9,-11,3,6,-9,2,-11,-29,-20,-23,-16
2,-9,-10,3,6,-9,2,-11,-29,-20,-23,-15
2,-9,-10,3,6,-9,2,-10,-29,-20,-23,-14
2,-9,-10,3,6,-10,2,-10,-29,-20,-23,-13
3,-8,-10,3,6,-10,2,-10,-29,-21,-24,-14
4,-7,-10,1,7,-9,2,-10,-29,-21,-24,-14
4,-6,-10,0,7,-9,2,-9,-28,-20,-23,-14
4,-6,-10,0,7,-8,2,-9,-28,-20,-23,-14
3,-5,-8,0,6,-7,1,-9,-29,-21,-23,-15
3,-5,-7,1,6,-6,1,-9,-28,-21,-23,-14
2,-7,-9,2,6,-8,2,-9,-27,-20,-22,-12
3,-8,-11,3,7,-9,3,-8,-26,-19,-21,-11
4,-7,-11,1,8,-8,4,-8,-26,-19,-21,-11
5,-6,-11,0,8,-8,4,-7,-25,-19,-22,-11
5,-6,-11,0,8,-8,4,-7,-25,-19,-22,-11
4,-8,-12,1,9,-10,4,-6,-24,-19,-21,-10
4,-10,-14,2,9,-12,5,-6,-24,-19,-21,-9
4,-10,-14,3,9,-12,5,-6,-24,-19,-21,-8
4,-10,-13,3,9,-11,5,-6,-25,-20,-21,-8
3,-9,-12,3,8,-11,5,-6,-25,-20,-21,-8
2,-10,-12,4,7,-11,4,-6,-24,-20,-21,-8
2,-11,-13,4,8,-12,5,-5,-24,-19,-20,-7
3,-12,-15,4,8,-13,5,-5,-24,-19,-19,-6
3,-11,-15,4,9,-13,5,-4,-23,-19,-19,-5
4,-9,-13,3,9,-11,6,-4,-23,-19,-19,-5
4,-7,-11,2,8,-9,6,-4,-22,-19,-19,-5
4,-6,-10,2,8,-8,6,-4,-22,-19,-19,-5
4,-8,-11,2,8,-9,6,-4,-21,-18,-19,-5
4,-10,-14,2,9,-11,7,-3,-19,-17,-18,-4
4,-11,-15,2,10,-12,7,-2,-19,-17,-18,-4
4,-10,-14,2,9,-12,7,-3,-19,-18,-18,-3
3,-10,-14,3,9,-12,7,-3,-19,-18,-18,-3
3,-10,-14,3,9,-12,7,-3,-19,-18,-18,-3
3,-11,-14,3,10,-12,7,-3,-19,-18,-18,-2
3,-11,-14,4,10,-12,7,-3,-19,-19,-19,-2
3,-12,-15,5,10,-13,8,-3,-19,-19,-19,-2
2,-13,-15,6,9,-14,7,-4,-19,-19,-20,-2
1,-13,-14,6,8,-13,6,-5,-20,-20,-21,-2
1,-12,-13,6,6,-12,5,-5,-21,-21,-21,-2
2,-10,-12,4,6,-11,6,-5,-21,-20,-21,-1
3,-9,-12,3,8,-11,7,-4,-20,-20,-20,0
4,-9,-13,3,9,-11,7,-4,-20,-20,-19,0
4,-9,-13,3,9,-11,7,-4,-20,-20,-19,0
5,-8,-13,2,9,-10,8,-4,-19,-19,-19,0
6,-7,-12,0,9,-9,8,-4,-19,-19,-19,1
6,-6,-12,0,9,-9,7,-4,-18,-19,-19,1
5,-8,-13,1,9,-10,7,-4,-18,-19,-19,1
4,-10,-14,2,9,-12,8,-4,-18,-19,-19,1
4,-11,-16,3,10,-14,8,-4,-18,-19,-19,2
3,-12,-16,4,9,-14,8,-4,-19,-19,-19,2
2,-12,-15,5,9,-13,8,-4,-20,-20,-20,2
3,-12,-14,4,9,-13,8,-4,-20,-20,-20,3
4,-12,-15,4,9,-13,8,-4,-20,-20,-20,3
5,-12,-15,3,10,-13,8,-4,-20,-20,-19,3
5,-11,-16,3,10,-14,8,-4,-20,-20,-20,3
5,-11,-15,3,10,-13,7,-4,-20,-20,-20,2
5,-10,-14,2,9,-12,7,-5,-20,-20,-21,2
5,-10,-14,2,9,-12,6,-5,-20,-21,-20,2
4,-10,-14,3,9,-12,7,-5,-21,-21,-19,3
4,-10,-13,3,9,-12,7,-6,-21,-21,-19,3
5,-9,-13,2,9,-11,7,-6,-22,-21,-19,4
5,-9,-13,2,9,-11,7,-6,-22,-21,-19,5
5,-9,-14,2,10,-12,7,-6,-22,-21,-20,5
5,-10,-14,2,9,-12,7,-6,-22,-21,-20,5
4,-10,-14,3,9,-12,6,-7,-22,-22,-22,4
3,-11,-14,4,8,-13,6,-7,-23,-23,-24,2
3,-11,-14,4,8,-13,6,-7,-24,-24,-24,1
2,-12,-14,4,8,-13,5,-7,-24,-24,-23,1
2,-12,-14,4,8,-13,5,-7,-24,-24,-22,2
2,-12,-14,5,8,-13,4,-7,-24,-24,-21,3
1,-13,-15,6,8,-14,4,-7,-24,-24,-20,4
1,-14,-15,6,8,-14,4,-7,-24,-24,-20,4
1,-12,-13,6,7,-13,4,-8,-25,-24,-21,4
1,-10,-11,5,6,-11,3,-9,-27,-25,-23,4
0,-10,-9,5,5,-10,3,-9,-28,-26,-24,3
1,-10,-11,5,6,-11,3,-9,-28,-25,-23,3
2,-11,-14,5,8,-13,5,-7,-26,-24,-21,5
4,-12,-16,4,10,-15,6,-6,-25,-23,-19,6
5,-12,-18,4,11,-15,6,-6,-24,-22,-18,7
5,-12,-18,3,12,-15,7,-6,-24,-22,-17,7
5,-12,-17,3,11,-14,7,-6,-24,-22,-18,7
4,-11,-16,3,10,-14,7,-6,-24,-22,-18,7
5,-10,-15,2,10,-13,7,-6,-24,-22,-18,7
6,-10,-15,2,10,-13,6,-6,-25,-23,-18,7
4,-11,-15,3,9,-13,5,-7,-26,-24,-19,6
3,-13,-15,5,9,-14,5,-7,-26,-24,-20,6
2,-14,-15,5,8,-14,4,-8,-27,-25,-21,6
0,-13,-14,6,7,-13,3,-9,-28,-26,-22,6
0,-13,-12,7,6,-12,2,-9,-28,-26,-23,5
1,-13,-14,6,7,-14,3,-8,-27,-25,-22,6
3,-13,-17,5,10,-15,5,-6,-25,-24,-20,8
5,-12,-17,4,10,-15,5,-5,-25,-24,-20,9
5,-10,-16,3,10,-14,4,-5,-25,-24,-20,9
5,-10,-16,2,10,-13,4,-5,-25,-25,-20,9
5,-9,-15,1,10,-12,3,-5,-25,-25,-20,9
5,-8,-14,0,9,-11,3,-5,-25,-25,-21,9
5,-8,-13,1,8,-10,3,-5,-25,-25,-21,9
4,-9,-13,2,8,-11,3,-4,-25,-24,-20,10
4,-10,-14,3,9,-13,3,-4,-24,-24,-19,11
3,-12,-15,5,9,-14,4,-3,-23,-23,-19,12
3,-12,-15,5,9,-14,4,-3,-22,-23,-19,12
3,-11,-14,5,8,-13,4,-3,-22,-23,-19,12
3,-9,-13,3,7,-11,5,-3,-21,-23,-19,13
4,-6,-12,1,8,-10,6,-2,-20,-22,-17,15
6,-4,-11,-1,8,-8,6,-1,-19,-21,-16,16
6,-2,-10,-2,8,-7,6,-1,-19,-21,-16,16
7,-2,-10,-3,8,-7,7,0,-18,-21,-15,17
7,0,-9,-3,8,-5,8,0,-18,-20,-15,17
8,1,-7,-4,8,-4,8,0,-17,-21,-16,17
8,1,-6,-5,8,-3,9,0,-17,-21,-17,18
8,1,-6,-5,8,-3,9,0,-17,-21,-17,19
8,2,-5,-5,7,-2,9,0,-16,-20,-17,19
8,4,-3,-6,6,0,8,0,-16,-20,-16,19
8,5,-2,-7,5,1,7,0,-16,-20,-16,19
8,6,-3,-7,6,0,6,1,-16,-19,-14,20
10,7,-3,-8,6,1,4,1,-15,-18,-13,21
11,8,-3,-10,7,2,2,0,-15,-18,-12,23
12,8,-3,-10,8,1,0,0,-15,-18,-13,24
13,8,-4,-10,8,1,0,0,-15,-19,-13,25
13,7,-4,-9,9,0,-1,-1,-16,-20,-13,26
12,6,-5,-9,9,0,-2,-2,-16,-20,-13,25
13,7,-5,-10,9,1,-3,-2,-16,-21,-14,25
14,9,-5,-12,10,1,-4,-3,-17,-22,-15,25
15,8,-7,-12,11,0,-4,-3,-17,-22,-14,25
14,5,-8,-9,11,-2,-5,-4,-18,-24,-15,22
12,2,-9,-6,11,-4,-6,-5,-19,-25,-17,19
10,-1,-10,-4,10,-6,-7,-6,-20,-26,-18,17
10,-2,-12,-4,11,-7,-7,-5,-20,-25,-17,16
10,-2,-12,-4,11,-7,-6,-5,-20,-25,-17,16
10,-2,-12,-4,11,-7,-5,-5,-20,-26,-17,17
9,-4,-12,-3,11,-8,-4,-5,-20,-26,-17,18
8,-5,-14,-2,11,-10,-4,-5,-20,-26,-17,18
8,-6,-14,-1,11,-11,-3,-4,-20,-26,-17,19
7,-7,-14,0,10,-11,-3,-4,-20,-26,-17,19
7,-7,-14,0,10,-11,-2,-3,-20,-26,-17,19
8,-6,-13,-1,10,-10,-2,-3,-20,-26,-17,20
8,-6,-13,-1,10,-10,-2,-4,-21,-27,-17,20
7,-7,-13,0,10,-10,-2,-4,-21,-28,-17,20
5,-8,-13,1,9,-10,-2,-5,-22,-29,-18,19
4,-7,-11,1,7,-9,-3,-6,-23,-31,-20,17
3,-7,-10,2,6,-9,-4,-7,-24,-32,-22,16
2,-9,-10,3,6,-10,-4,-8,-25,-33,-23,16
1,-10,-11,5,6,-11,-5,-8,-25,-33,-23,16
1,-12,-13,5,7,-13,-5,-8,-25,-33,-22,16
2,-13,-16,5,8,-14,-4,-8,-25,-34,-21,17
2,-14,-17,6,9,-15,-4,-8,-25,-34,-21,17
1,-15,-17,6,9,-16,-4,-8,-25,-34,-22,17
1,-15,-16,6,8,-15,-4,-7,-25,-34,-22,18
2,-14,-15,6,9,-15,-3,-7,-25,-34,-21,19
3,-13,-15,5,9,-15,-3,-7,-25,-34,-20,19
3,-12,-15,5,9,-14,-4,-7,-25,-34,-21,18
3,-10,-13,4,9,-12,-5,-8,-26,-35,-21,17
4,-9,-13,3,8,-11,-5,-8,-26,-36,-21,17
3,-10,-14,4,9,-12,-5,-7,-25,-36,-21,18
2,-12,-15,5,9,-13,-4,-7,-25,-36,-20,19
1,-13,-14,6,8,-14,-4,-7,-25,-36,-20,20
1,-13,-14,5,8,-14,-4,-7,-25,-36,-21,20
2,-12,-14,5,8,-14,-4,-7,-25,-36,-21,19
2,-13,-15,5,9,-15,-3,-6,-25,-36,-21,19
1,-16,-16,8,8,-16,-3,-7,-26,-37,-20,18
-2,-18,-16,10,7,-17,-4,-8,-26,-38,-21,16
-3,-20,-16,12,6,-18,-5,-8,-26,-38,-21,15
-3,-20,-17,12,7,-19,-4,-7,-25,-37,-20,15
-2,-17,-15,10,7,-17,-4,-6,-24,-36,-19,16
0,-14,-14,7,7,-15,-4,-4,-23,-34,-18,17
2,-13,-15,5,9,-15,-3,-1,-21,-31,-16,19
2,-13,-15,5,9,-15,-2,3,-18,-27,-14,22
3,-11,-13,4,8,-13,-2,7,-13,-21,-9,26
4,-7,-11,1,7,-9,0,13,-5,-11,-1,33
5,-2,-8,-1,6,-4,3,18,5,1,10,41
5,2,-4,-3,4,0,4,21,15,16,24,51
4,5,0,-5,2,3,5,22,26,31,40,61
4,9,3,-6,0,6,6,24,38,49,58,74
5,12,6,-8,0,8,6,24,49,67,77,88
7,15,8,-11,0,11,5,21,58,84,98,104
10,19,9,-15,0,13,0,12,64,99,120,120
14,25,11,-20,1,17,-12,-5,66,110,141,134
18,32,15,-25,0,23,-29,-32,61,114,157,146
19,39,20,-29,-1,29,-49,-67,49,110,169,156
19,45,25,-31,-3,35,-72,-106,33,101,177,164
19,50,31,-34,-6,40,-95,-146,13,88,179,168
19,54,36,-36,-8,45,-116,-181,-7,69,171,166
16,55,39,-35,-12,47,-133,-210,-29,42,148,152
10,49,40,-29,-15,44,-145,-235,-54,7,109,126
1,38,38,-20,-18,38,-153,-254,-81,-34,58,91
-6,26,32,-10,-19,29,-157,-264,-109,-77,4,50
-11,11,22,0,-17,16,-158,-265,-134,-115,-45,11
-14,-6,8,10,-11,1,-155,-260,-154,-146,-83,-19
-16,-22,-5,19,-5,-14,-150,-252,-169,-169,-108,-41
-18,-36,-17,27,0,-27,-144,-240,-179,-184,-123,-53
-18,-45,-26,32,4,-36,-137,-225,-182,-189,-130,-59
-17,-51,-32,34,7,-42,-129,-208,-179,-186,-130,-59
-15,-51,-34,33,9,-43,-121,-190,-172,-178,-125,-56
-14,-47,-32,30,8,-39,-114,-171,-161,-166,-117,-50
-12,-40,-29,26,8,-34,-108,-153,-147,-152,-108,-44
-9,-34,-26,22,9,-30,-100,-135,-132,-137,-97,-37
-5,-28,-24,17,9,-26,-89,-116,-117,-120,-86,-30
-3,-24,-22,14,9,-23,-77,-97,-101,-104,-76,-22
-1,-21,-20,11,9,-21,-63,-78,-87,-90,-66,-14
0,-19,-19,9,9,-19,-50,-62,-74,-77,-57,-6
1,-16,-16,7,9,-17,-38,-48,-63,-66,-49,0
0,-14,-14,6,7,-14,-29,-36,-54,-57,-42,4
0,-13,-13,6,7,-13,-22,-26,-46,-49,-35,8
0,-12,-12,6,6,-13,-16,-18,-39,-42,-30,10
0,-11,-12,6,6,-12,-11,-12,-34,-37,-27,13
0,-11,-12,6,5,-11,-7,-7,-30,-33,-24,16
0,-12,-12,7,5,-12,-4,-3,-27,-30,-22,18
-1,-13,-11,7,4,-12,-2,0,-25,-28,-21,19
-2,-13,-10,7,3,-12,0,1,-25,-27,-21,18
-2,-13,-9,7,3,-12,1,3,-24,-25,-20,18
-1,-12,-10,6,4,-11,3,6,-21,-23,-18,20
0,-10,-10,5,5,-11,4,8,-19,-21,-17,21
1,-8,-10,4,5,-9,5,10,-18,-20,-16,22
1,-8,-9,3,5,-9,5,11,-17,-19,-15,23
2,-9,-10,4,6,-10,6,12,-16,-17,-15,23
2,-10,-11,4,6,-11,8,14,-15,-16,-14,23
2,-11,-12,4,6,-12,9,15,-14,-15,-13,24
2,-10,-12,3,7,-11,9,16,-14,-14,-13,24
2,-8,-11,2,6,-9,10,17,-13,-14,-13,24
2,-7,-10,2,6,-8,10,17,-13,-13,-12,24
2,-6,-9,2,5,-8,10,17,-12,-12,-11,24
1,-6,-9,2,5,-8,10,18,-11,-11,-10,24
1,-7,-8,3,5,-8,9,18,-11,-11,-11,24
1,-6,-7,3,4,-7,9,18,-11,-11,-11,24
0,-6,-6,3,3,-7,9,18,-12,-11,-12,25
0,-6,-6,3,3,-7,9,18,-12,-11,-12,24
0,-6,-6,3,3,-7,9,18,-11,-10,-12,23
1,-6,-7,2,4,-7,10,19,-10,-9,-10,24
2,-6,-8,2,5,-7,10,21,-9,-7,-8,24
2,-6,-9,2,5,-8,10,22,-7,-5,-7,24
2,-5,-8,2,5,-7,10,22,-7,-5,-7,24
2,-4,-6,1,4,-6,10,22,-6,-4,-8,24
2,-4,-6,0,4,-5,11,22,-6,-4,-8,25
3,-3,-7,0,5,-6,12,23,-5,-3,-8,25
4,-3,-8,-1,6,-6,13,24,-4,-2,-7,26
4,-3,-8,-1,6,-6,13,25,-4,-1,-7,25
4,-3,-7,-1,5,-5,12,26,-3,-1,-7,25
3,-3,-7,0,5,-5,12,26,-3,0,-7,25
3,-5,-8,0,6,-6,12,26,-2,0,-6,25
3,-6,-8,1,6,-7,12,27,-1,2,-5,26
4,-6,-9,1,6,-8,12,28,0,3,-4,28
5,-4,-9,0,7,-7,13,29,1,4,-2,30
6,-2,-8,-2,7,-5,13,30,1,5,0,31
6,0,-6,-3,6,-4,13,31,1,5,0,31
5,-1,-6,-2,5,-4,12,31,2,5,0,31
4,-2,-7,-1,6,-5,12,32,4,7,0,32
5,-3,-8,-1,7,-6,13,34,6,9,1,32
6,-4,-9,-1,8,-6,14,36,7,11,1,32
5,-5,-10,0,7,-7,14,37,8,12,2,31
4,-6,-10,1,6,-8,14,38,9,13,2,31
4,-4,-8,0,6,-6,14,39,9,14,3,32
5,-2,-7,-2,6,-5,14,40,10,14,4,33
6,-1,-7,-3,7,-4,14,41,11,15,4,34
7,0,-7,-4,7,-4,14,43,12,17,5,33
8,2,-6,-5,7,-2,14,44,13,18,5,33
9,4,-5,-7,7,0,13,46,14,20,5,33
10,5,-5,-8,8,0,13,48,14,21,6,34
10,4,-5,-7,8,0,14,50,15,22,6,34
8,2,-5,-6,7,-1,14,51,16,23,7,34
7,0,-5,-4,6,-2,14,53,17,24,7,34
7,0,-6,-4,6,-3,14,55,18,26,9,35
8,2,-6,-6,7,-2,15,58,21,28,11,36
10,4,-6,-7,8,-1,16,61,23,30,14,37
12,5,-6,-9,9,0,17,63,25,33,16,38
14,7,-6,-11,10,0,18,66,27,35,18,40
16,9,-6,-13,10,1,18,69,29,37,19,41
17,12,-5,-15,10,3,18,71,30,38,20,41
17,15,-3,-16,10,5,18,73,31,39,20,42
18,15,-3,-17,10,6,18,75,32,40,21,42
18,15,-3,-17,11,6,18,76,33,41,22,43
18,16,-3,-17,11,6,18,78,34,43,23,43
19,16,-3,-18,11,6,18,81,36,45,24,44
19,15,-4,-18,11,6,18,83,37,47,26,46
19,15,-4,-17,11,6,18,85,38,48,27,47
19,15,-4,-17,11,6,18,86,38,50,28,49
19,15,-4,-17,11,5,19,88,39,51,28,51
20,14,-5,-17,12,5,19,90,41,52,29,52
20,14,-6,-17,13,4,19,92,42,53,30,51
21,15,-6,-18,13,5,19,94,43,54,31,49
22,18,-4,-21,13,7,20,95,44,55,32,48
24,22,-2,-23,13,10,19,96,44,56,33,48
25,25,0,-25,12,13,18,96,44,57,33,49
26,26,0,-26,12,14,18,96,45,57,34,50
26,25,-1,-26,14,12,19,97,46,58,36,51
26,24,-2,-25,14,11,19,98,46,59,37,52
25,24,-1,-25,13,11,19,97,46,59,37,52
25,24,-1,-25,13,11,19,97,46,59,37,52
25,23,-1,-24,13,10,19,96,46,59,37,52
24,22,-2,-23,13,9,19,95,45,58,37,52
23,20,-2,-22,12,8,18,93,44,56,36,51
22,19,-3,-21,12,8,18,91,43,55,35,49
22,19,-3,-21,12,8,17,89,42,54,34,49
23,20,-3,-21,13,8,17,86,41,52,32,48
23,22,-2,-23,13,9,17,83,39,50,31,48
24,24,-1,-24,12,11,16,80,37,48,31,48
23,24,0,-24,12,12,15,76,35,46,30,48
22,22,-1,-22,12,11,14,72,33,44,28,48
21,19,-3,-20,12,8,13,69,32,42,27,47
21,17,-4,-19,12,7,12,66,31,40,25,46
21,17,-3,-20,12,7,12,62,29,38,22,44
21,20,-1,-21,11,9,11,58,27,35,21,41
20,20,0,-21,10,10,10,53,24,32,20,39
18,18,-1,-19,9,9,10,49,21,29,18,37
17,15,-2,-16,10,6,10,46,20,27,16,36
16,13,-3,-15,10,5,9,43,18,25,15,35
15,12,-3,-14,9,4,9,39,17,22,13,33
14,10,-4,-12,9,3,8,35,15,20,10,31
13,8,-5,-10,8,2,8,32,13,17,7,28
11,6,-5,-9,8,0,8,28,11,14,5,26
9,5,-5,-7,7,0,7,24,9,11,4,24
7,3,-5,-6,7,-1,7,20,7,8,2,23
6,1,-6,-4,7,-3,6,17,5,6,0,22
5,0,-6,-2,7,-4,6,15,4,5,-2,20
5,0,-6,-2,6,-4,5,12,3,3,-3,19
5,0,-5,-2,5,-3,5,10,2,2,-4,18
5,0,-4,-2,5,-2,4,8,1,0,-5,16
4,0,-5,-2,5,-2,4,6,1,-1,-6,13
4,-1,-6,-2,5,-3,5,4,0,-2,-8,11
4,-1,-6,-2,5,-3,5,2,0,-3,-9,10
3,-1,-5,-2,4,-3,4,0,-2,-5,-11,9
3,-2,-5,-1,4,-4,4,-2,-3,-7,-12,9
2,-4,-6,1,4,-5,3,-3,-4,-8,-13,8
1,-7,-7,3,4,-7,3,-4,-5,-9,-13,9
0,-9,-8,5,4,-9,3,-5,-6,-10,-13,9
0,-10,-9,5,3,-9,3,-6,-6,-10,-13,8
0,-8,-8,4,3,-8,3,-7,-7,-11,-14,7
0,-7,-8,4,4,-7,3,-8,-8,-12,-15,6
0,-8,-10,4,5,-9,3,-9,-8,-13,-15,5
0,-9,-10,4,5,-9,2,-9,-8,-13,-15,2
0,-8,-8,4,4,-8,2,-10,-9,-13,-15,0
0,-8,-7,4,3,-8,2,-10,-9,-13,-16,-2
-1,-10,-7,5,3,-9,2,-10,-8,-13,-17,-2
-2,-12,-8,7,3,-10,2,-10,-8,-13,-17,-2
-2,-12,-10,7,4,-11,3,-10,-8,-14,-16,-1
-2,-12,-10,7,4,-11,3,-11,-8,-14,-16,-1
-2,-11,-10,7,4,-10,3,-12,-9,-14,-16,0
-3,-10,-8,6,3,-9,2,-13,-10,-15,-17,0
-3,-10,-8,6,3,-9,1,-14,-10,-16,-17,0
-2,-11,-9,6,4,-10,2,-14,-10,-16,-17,0
-1,-12,-9,6,4,-10,2,-14,-10,-16,-17,0
0,-11,-9,5,4,-10,3,-14,-10,-16,-17,-1
0,-10,-9,5,4,-10,3,-14,-9,-16,-16,-1
-1,-10,-10,5,4,-10,3,-14,-9,-16,-16,-1
-1,-9,-9,5,4,-10,3,-14,-9,-16,-15,-1
-1,-9,-9,4,4,-9,3,-14,-8,-16,-15,-1
0,-9,-9,5,4,-9,4,-13,-8,-15,-15,-1
0,-10,-9,5,5,-10,4,-13,-7,-15,-15,-1
0,-10,-9,5,5,-9,4,-13,-7,-15,-15,-1
0,-9,-9,4,5,-9,4,-13,-7,-15,-14,-1
0,-10,-10,4,5,-10,4,-12,-7,-15,-14,-1
0,-11,-12,5,6,-11,5,-12,-7,-15,-14,-1
-1,-11,-12,6,5,-11,5,-12,-7,-15,-14,-2
-2,-11,-10,6,3,-10,3,-13,-8,-16,-15,-3
-3,-9,-7,6,2,-8,2,-14,-9,-18,-17,-5
-2,-9,-7,6,2,-8,2,-14,-9,-18,-17,-5
0,-9,-8,5,3,-9,3,-12,-8,-17,-16,-4
0,-9,-8,5,3,-9,4,-12,-7,-16,-16,-5
-1,-9,-7,5,3,-9,4,-12,-6,-16,-16,-7
-2,-10,-8,6,3,-10,4,-11,-5,-15,-16,-7
-2,-11,-9,6,3,-10,5,-10,-4,-14,-14,-7
-1,-11,-9,6,4,-11,6,-9,-2,-13,-12,-5
-1,-11,-10,6,5,-11,7,-8,-2,-13,-10,-3
-1,-11,-10,6,5,-11,7,-7,-1,-13,-9,-1
0,-11,-9,6,5,-10,7,-7,-1,-13,-8,0
0,-11,-9,6,5,-10,7,-7,-1,-13,-9,1
0,-9,-8,5,4,-8,7,-7,-1,-13,-10,0
0,-7,-6,4,3,-6,6,-8,-2,-14,-13,-4
-1,-6,-5,3,2,-5,5,-9,-3,-15,-14,-8
-1,-7,-5,4,2,-6,5,-9,-2,-15,-13,-10
-1,-7,-6,4,2,-7,5,-8,-1,-14,-12,-10
0,-7,-6,4,3,-7,6,-7,0,-13,-10,-9
0,-8,-8,4,4,-8,6,-6,1,-12,-8,-8
0,-10,-9,5,5,-9,7,-5,3,-10,-6,-7
0,-11,-10,5,5,-10,7,-4,4,-9,-7,-7
0,-11,-11,6,5,-11,8,-4,4,-9,-9,-8
0,-11,-11,5,5,-11,8,-3,4,-10,-10,-8
1,-10,-10,4,5,-10,8,-3,4,-10,-8,-7
0,-10,-10,5,5,-10,8,-3,4,-10,-7,-6
-2,-12,-9,7,3,-10,7,-4,3,-11,-8,-6
-3,-12,-9,8,2,-10,7,-5,2,-11,-8,-6
-2,-11,-8,7,2,-9,6,-5,2,-11,-8,-6
-2,-9,-7,6,2,-9,7,-5,2,-11,-8,-6
-1,-8,-7,5,3,-8,7,-4,3,-10,-8,-6
0,-7,-7,4,3,-8,7,-4,4,-9,-7,-6
0,-8,-7,4,3,-8,7,-3,4,-9,-6,-6
-1,-9,-7,5,3,-8,7,-3,4,-10,-6,-7
-1,-10,-8,6,3,-9,7,-3,4,-10,-6,-9
-2,-11,-8,6,3,-9,8,-3,4,-11,-6,-10
-2,-9,-7,6,2,-8,7,-3,3,-11,-6,-11
-2,-7,-5,5,1,-6,7,-4,3,-12,-7,-11
-4,-8,-4,6,0,-6,6,-4,3,-12,-7,-12
-5,-9,-5,7,0,-7,6,-4,3,-11,-7,-12
-4,-10,-6,7,1,-8,7,-4,4,-10,-6,-11
-2,-10,-6,6,2,-8,7,-3,5,-9,-6,-10
-1,-9,-7,5,3,-8,8,-3,5,-8,-6,-9
-1,-9,-7,5,3,-8,8,-3,5,-8,-6,-9
-2,-9,-7,5,3,-8,8,-3,5,-9,-6,-10
-2,-9,-7,5,3,-8,8,-3,4,-9,-6,-10
-3,-10,-8,6,3,-9,8,-3,4,-10,-6,-10
-3,-10,-8,6,3,-9,8,-3,3,-10,-6,-11
-2,-10,-8,6,3,-10,8,-3,3,-10,-6,-11
-2,-11,-9,6,3,-11,8,-3,3,-10,-7,-11
-2,-12,-9,7,3,-11,8,-4,3,-10,-7,-11
-3,-12,-9,7,3,-11,8,-4,3,-11,-6,-10
-3,-12,-9,7,3,-11,8,-5,3,-11,-6,-9
-3,-13,-10,8,4,-11,9,-5,3,-10,-5,-9
-3,-11,-9,7,3,-10,8,-5,3,-10,-4,-11
-3,-7,-5,6,1,-6,7,-6,2,-11,-5,-15
-2,-6,-3,5,0,-4,7,-6,2,-12,-6,-18
-2,-6,-3,5,0,-4,7,-7,2,-12,-7,-19
-2,-7,-4,5,0,-5,7,-7,1,-13,-9,-18
-3,-9,-5,6,1,-6,7,-8,1,-13,-10,-18
-3,-10,-7,7,1,-8,7,-8,1,-13,-10,-17
-3,-12,-8,8,2,-10,7,-8,2,-13,-8,-17
-4,-13,-9,8,2,-11,8,-7,2,-12,-6,-17
-4,-13,-10,9,3,-11,9,-6,3,-11,-5,-16
-4,-13,-10,9,3,-12,10,-6,4,-10,-4,-15
-4,-13,-9,8,3,-11,10,-6,4,-10,-4,-14
-3,-12,-8,7,3,-10,10,-6,4,-11,-5,-13
-2,-10,-8,6,3,-9,9,-6,4,-11,-6,-12
-1,-10,-8,5,3,-9,9,-6,3,-12,-7,-12
-2,-11,-9,7,3,-10,8,-6,3,-13,-7,-11
-3,-14,-10,9,3,-13,9,-6,3,-13,-7,-11
-3,-15,-11,9,3,-14,9,-6,3,-13,-7,-11
-3,-13,-10,8,3,-12,9,-6,3,-13,-7,-12
-2,-11,-8,7,3,-10,9,-6,3,-13,-8,-13
-2,-11,-8,7,3,-10,9,-5,4,-13,-7,-14
-2,-13,-10,8,3,-12,10,-5,5,-12,-7,-16
-3,-13,-9,9,2,-11,9,-5,5,-12,-7,-17
-4,-11,-7,8,1,-9,8,-6,4,-13,-7,-17
-4,-10,-5,7,0,-7,8,-6,4,-13,-7,-16
-3,-10,-6,7,0,-7,8,-6,5,-13,-6,-14
-3,-10,-6,7,0,-7,9,-6,5,-12,-5,-12
-4,-10,-6,7,0,-7,9,-6,5,-12,-4,-10
-4,-11,-7,8,1,-8,10,-5,6,-11,-3,-8
-4,-11,-7,8,1,-9,10,-5,6,-11,-3,-7
-4,-10,-6,7,1,-8,11,-4,7,-10,-4,-8
-3,-9,-5,7,0,-7,11,-4,7,-10,-4,-9
-3,-7,-3,6,0,-5,12,-3,8,-10,-5,-11
-2,-5,-2,5,0,-4,12,-3,8,-10,-5,-12
-3,-5,-2,5,0,-3,12,-3,8,-10,-4,-11
-3,-6,-2,5,0,-4,12,-3,8,-10,-4,-9
-2,-5,-2,4,0,-3,13,-2,9,-9,-2,-7
-1,-2,-1,2,0,-2,14,-1,10,-8,-1,-6
0,0,1,1,-1,0,15,-1,11,-7,0,-6
0,1,2,0,-1,1,15,0,11,-7,-1,-9
0,2,2,0,-1,1,16,0,11,-7,-2,-11
-1,2,3,0,-2,2,16,0,12,-7,-1,-12
-2,2,4,0,-3,3,16,0,12,-7,0,-11
-2,4,6,0,-4,5,16,0,13,-6,1,-10
-1,7,8,-2,-4,7,16,0,13,-5,2,-9
0,8,8,-4,-4,7,15,0,14,-4,2,-8
0,7,7,-4,-3,6,14,0,14,-4,3,-7
1,6,5,-3,-3,5,13,0,15,-3,4,-5
1,5,4,-3,-2,5,12,0,14,-4,5,-4
2,5,4,-3,-1,4,11,-1,14,-4,5,-2
3,6,3,-4,0,4,10,-1,14,-4,4,-2
4,7,3,-5,0,5,9,-2,13,-5,3,-3
4,7,3,-6,0,6,8,-3,11,-7,2,-6
4,7,3,-6,1,5,8,-3,10,-8,1,-8
5,7,2,-7,1,5,7,-4,9,-9,0,-10
5,7,2,-7,2,4,7,-5,8,-10,-2,-13
4,5,1,-5,1,3,6,-5,7,-11,-3,-15
3,2,0,-2,1,1,6,-6,7,-12,-3,-15
2,1,0,-1,1,0,6,-6,6,-12,-2,-15
2,0,-1,0,1,-1,7,-6,6,-12,-1,-14
0,-4,-4,2,2,-4,8,-6,6,-12,-1,-13
-2,-10,-7,6,2,-9,8,-6,6,-12,-1,-12
-3,-12,-8,7,2,-10,8,-6,5,-12,-1,-11
-3,-10,-7,6,1,-8,9,-6,5,-13,-2,-10
-2,-7,-5,4,1,-6,9,-5,5,-13,-2,-8
-1,-6,-5,4,2,-5,10,-4,6,-12,-1,-8
0,-7,-7,4,3,-7,11,-3,6,-12,-1,-9
0,-9,-8,5,4,-8,12,-3,6,-12,-2,-13
-2,-10,-7,6,3,-9,12,-4,6,-13,-4,-17
-3,-11,-7,7,2,-9,12,-4,5,-14,-5,-20
-5,-13,-7,8,1,-10,13,-5,5,-15,-6,-22
-6,-15,-8,10,0,-11,12,-5,5,-15,-7,-22
-7,-17,-9,12,0,-13,12,-6,5,-16,-7,-22
-8,-18,-9,13,0,-13,11,-6,4,-16,-7,-21
-8,-17,-9,13,0,-13,11,-7,4,-16,-7,-20
-8,-17,-9,12,0,-13,10,-7,4,-17,-8,-20
-8,-17,-9,12,0,-13,10,-8,3,-18,-9,-20
-8,-16,-8,11,0,-12,10,-9,3,-19,-9,-21
-6,-15,-9,10,0,-12,10,-9,3,-19,-9,-22
-5,-15,-9,10,1,-13,11,-8,3,-18,-9,-23
-5,-15,-9,10,1,-12,11,-8,4,-18,-8,-23
-6,-13,-7,9,0,-10,11,-8,4,-18,-8,-23
-5,-10,-5,8,0,-7,10,-9,3,-18,-8,-23
-5,-10,-5,8,0,-8,10,-8,3,-17,-8,-22
-6,-13,-7,10,1,-11,11,-8,4,-17,-8,-20
-6,-15,-9,11,1,-13,11,-7,4,-17,-7,-19
-6,-16,-9,11,1,-13,11,-7,4,-17,-7,-18
-7,-17,-9,12,1,-13,11,-8,4,-17,-7,-18
-8,-17,-9,12,1,-13,11,-8,4,-17,-7,-19
-8,-17,-8,12,0,-12,10,-8,4,-18,-8,-19
-9,-16,-7,12,0,-12,10,-9,3,-18,-8,-20
-9,-17,-7,13,0,-12,10,-8,3,-18,-9,-20
-8,-17,-8,13,0,-13,10,-7,3,-18,-9,-21
-8,-17,-9,13,0,-13,11,-7,4,-18,-9,-21
-8,-17,-9,13,0,-14,12,-6,4,-17,-9,-23
-8,-18,-9,13,0,-13,12,-5,5,-16,-9,-24
-8,-17,-8,12,0,-12,12,-2,7,-14,-7,-24
-7,-16,-8,12,0,-12,13,1,9,-10,-4,-22
-7,-16,-8,12,0,-12,14,5,14,-4,0,-19
-7,-15,-7,11,0,-11,15,10,20,4,6,-13
-7,-11,-3,9,-2,-7,16,16,29,15,15,-5
-7,-5,2,7,-5,-2,18,21,39,28,28,6
-6,-1,6,4,-6,2,19,23,50,44,46,19
-4,3,8,1,-6,5,20,24,63,63,67,33
-2,7,9,-2,-5,8,21,26,77,84,89,48
0,8,9,-3,-5,8,22,27,91,105,112,63
0,9,10,-4,-5,9,20,22,102,125,137,80
3,13,12,-8,-4,12,14,10,108,141,162,98
6,20,15,-13,-5,18,2,-10,108,150,183,115
9,30,21,-19,-6,25,-15,-40,100,150,199,130
11,40,29,-25,-9,34,-35,-78,86,143,210,140
11,48,38,-30,-13,42,-57,-118,67,131,216,147
10,54,45,-31,-17,49,-78,-157,44,113,215,146
5,55,51,-30,-22,53,-95,-190,19,87,196,134
-1,52,55,-25,-28,54,-109,-218,-7,51,158,107
-10,44,56,-16,-33,50,-119,-242,-37,5,103,69
-19,31,51,-5,-35,41,-125,-258,-67,-42,43,26
-24,15,40,5,-32,28,-127,-265,-94,-85,-12,-13
-27,0,26,14,-26,13,-128,-264,-118,-121,-57,-47
-28,-14,13,21,-21,0,-126,-258,-137,-151,-92,-74
-28,-26,2,27,-16,-11,-123,-248,-151,-171,-115,-92
-29,-36,-7,32,-11,-21,-118,-233,-158,-181,-126,-104
-29,-44,-15,36,-7,-29,-112,-216,-159,-181,-128,-109
-27,-49,-20,38,-4,-34,-105,-199,-155,-176,-124,-108
-25,-49,-23,37,-1,-36,-98,-180,-145,-165,-117,-103
-22,-45,-22,33,0,-34,-91,-162,-132,-151,-107,-96
-18,-39,-20,29,0,-29,-85,-145,-118,-136,-96,-89
-16,-33,-17,25,0,-25,-79,-128,-103,-121,-85,-81
-14,-30,-15,23,0,-23,-70,-110,-87,-105,-74,-73
-12,-27,-14,20,1,-21,-59,-92,-71,-89,-63,-64
-10,-25,-14,18,2,-19,-46,-75,-56,-75,-52,-55
-9,-24,-14,17,2,-19,-34,-59,-43,-61,-41,-47
-8,-22,-13,15,2,-17,-24,-46,-32,-49,-33,-41
-8,-18,-10,13,1,-14,-15,-34,-22,-40,-26,-37
-7,-16,-8,12,0,-12,-8,-25,-13,-32,-20,-35
-7,-16,-8,12,0,-12,-3,-17,-6,-25,-16,-32
-7,-16,-9,12,0,-12,1,-10,-1,-19,-13,-29
-7,-16,-9,12,0,-12,6,-5,4,-15,-11,-27
-7,-16,-8,11,0,-12,9,-1,7,-11,-9,-25
-7,-15,-7,11,0,-11,12,3,10,-9,-7,-24
-7,-15,-7,10,0,-11,14,6,12,-7,-4,-22
-7,-16,-8,11,0,-12,16,9,14,-5,-2,-21
-6,-14,-7,10,0,-11,17,11,15,-4,-1,-20
-6,-11,-5,8,0,-8,16,11,15,-4,-1,-20
-6,-9,-3,8,-2,-6,16,12,16,-3,-1,-19
-6,-10,-3,8,-1,-6,16,13,18,-1,0,-17
-5,-11,-5,8,0,-8,18,15,20,0,1,-17
-5,-11,-5,8,0,-8,19,17,21,1,1,-18
-6,-11,-4,8,-1,-8,19,18,21,2,1,-19
-5,-11,-4,7,-1,-7,20,20,22,2,0,-20
-5,-10,-5,7,0,-7,20,21,22,3,1,-20
-5,-11,-6,8,0,-8,20,21,23,4,2,-18
-5,-13,-8,10,1,-10,20,22,24,5,3,-17
-5,-14,-8,10,1,-11,20,23,25,6,5,-16
-5,-13,-7,9,1,-10,20,24,27,8,6,-16
-5,-12,-6,8,1,-9,21,25,29,9,6,-16
-5,-11,-6,8,0,-9,21,25,29,9,7,-16
-5,-10,-5,7,0,-8,21,25,29,9,8,-16
-4,-10,-6,7,0,-8,21,26,30,10,8,-16
-4,-10,-6,7,1,-8,21,27,30,11,7,-15
-4,-10,-6,7,0,-8,21,27,31,11,6,-15
-4,-9,-5,7,0,-7,20,27,31,11,6,-15
-4,-6,-2,5,-1,-4,20,26,31,11,7,-16
-4,-4,0,4,-2,-2,19,26,31,11,7,-17
-5,-6,0,5,-2,-3,20,27,32,12,9,-16
-6,-9,-1,7,-2,-5,20,27,33,13,11,-14
-6,-11,-3,8,-2,-6,19,28,33,14,12,-13
-6,-11,-3,8,-1,-7,20,29,34,15,13,-12
-4,-9,-3,6,0,-6,20,30,35,16,14,-12
-2,-6,-3,4,0,-5,21,32,36,18,15,-11
-1,-5,-3,3,1,-5,21,33,38,19,15,-10
0,-5,-4,2,1,-5,22,34,39,21,15,-10
0,-5,-4,2,1,-5,22,35,40,22,16,-10
-1,-5,-4,3,1,-4,22,36,40,22,16,-10
-2,-5,-2,3,0,-4,21,36,40,22,16,-10
-3,-5,-1,4,-1,-3,21,36,40,23,16,-10
-3,-5,0,4,-1,-2,20,37,41,23,16,-9
-2,-3,0,3,-1,-2,20,38,41,24,17,-7
-1,-3,0,2,0,-2,20,39,42,25,18,-6
0,-3,-2,2,1,-3,21,41,44,27,20,-4
0,-4,-4,2,2,-4,22,43,45,29,21,-4
1,-4,-5,2,2,-4,23,45,46,30,22,-4
1,-3,-4,1,2,-3,23,46,47,31,23,-4
1,-1,-3,0,2,-2,22,47,47,31,23,-3
1,0,-1,0,1,-1,22,47,48,32,23,-3
0,0,0,0,0,0,21,48,48,33,23,-4
1,2,1,-1,0,1,21,49,48,34,24,-4
2,4,2,-3,0,3,21,51,49,35,24,-4
2,3,1,-3,0,2,21,53,50,37,25,-2
2,2,0,-2,1,1,22,55,52,38,26,0
3,1,-2,-3,2,0,23,58,54,41,28,1
4,0,-4,-3,4,-1,24,62,57,43,31,2
5,0,-5,-3,5,-2,24,65,59,45,33,3
5,2,-4,-4,5,-1,24,67,60,47,34,4
6,4,-2,-5,4,1,24,69,61,48,34,4
6,6,0,-6,3,2,24,71,61,49,35,4
6,8,1,-7,3,4,23,72,62,50,36,4
7,9,1,-8,3,5,23,75,63,52,38,5
9,8,0,-8,4,4,24,78,65,54,40,7
10,9,-1,-9,5,4,24,81,68,57,42,9
11,10,0,-10,5,5,24,83,69,59,44,11
11,11,0,-10,5,6,24,85,71,61,45,11
11,13,2,-12,4,8,24,87,71,62,46,12
12,16,3,-14,4,10,24,88,72,63,46,12
13,17,4,-15,4,10,24,89,73,64,47,13
13,17,4,-15,4,10,24,91,74,65,48,14
13,17,4,-15,4,10,24,93,75,67,50,15
14,17,3,-16,5,10,24,95,77,69,53,16
15,18,3,-17,6,10,25,98,79,71,56,17
17,19,2,-18,7,10,26,99,80,73,57,17
17,19,2,-18,7,10,26,100,80,74,58,18
18,19,1,-18,8,10,26,101,81,74,59,20
18,18,0,-18,8,9,26,101,81,75,59,21
18,19,0,-19,9,9,26,102,81,74,59,21
18,21,2,-20,8,11,25,102,81,74,59,19
19,22,3,-20,8,13,25,102,80,73,58,18
19,22,4,-20,8,13,24,102,80,73,58,18
19,23,4,-21,8,14,24,101,80,72,58,18
20,24,4,-22,8,14,24,100,79,71,59,19
21,24,3,-22,8,14,24,99,79,70,60,21
21,23,2,-22,9,12,24,98,78,70,60,22
21,22,2,-21,9,12,24,97,77,69,59,21
20,23,3,-21,8,14,22,95,75,66,57,18
19,23,5,-21,7,15,21,92,72,63,55,16
18,23,5,-21,7,15,20,89,70,61,53,14
18,22,4,-20,7,13,19,87,68,60,52,13
18,20,2,-19,8,10,20,85,67,59,51,12
18,18,0,-18,8,9,20,82,66,57,51,10
18,19,0,-18,8,9,19,79,65,55,49,6
18,19,1,-18,8,10,19,75,63,52,47,3
16,18,1,-17,7,9,18,71,60,48,45,3
15,16,1,-15,7,8,17,68,58,45,43,2
15,16,1,-15,7,8,17,65,55,43,41,2
15,16,1,-15,7,9,16,61,53,40,38,1
14,15,1,-14,6,8,15,57,50,37,35,0
12,13,1,-13,5,7,14,53,48,33,32,-2
11,11,1,-11,5,6,13,48,45,29,28,-4
9,9,0,-8,4,5,12,44,42,26,24,-6
7,6,0,-6,4,3,12,40,39,22,20,-9
5,3,-1,-3,3,1,11,37,36,18,18,-11
3,-1,-3,0,3,-2,11,34,35,16,16,-12
2,-4,-5,1,4,-4,11,32,33,14,15,-13
3,-3,-6,0,4,-4,11,29,33,13,15,-15
4,-2,-5,-1,4,-4,10,27,32,11,14,-16
3,-1,-5,-1,4,-3,10,24,31,10,13,-18
2,0,-3,-1,3,-2,9,21,29,7,10,-21
1,0,-2,0,2,-1,8,18,27,4,8,-24
0,-1,-1,0,1,-1,8,15,25,2,7,-25
-1,-3,-1,2,0,-2,7,13,24,0,6,-26
-1,-4,-1,3,0,-3,7,12,23,0,5,-25
-2,-6,-3,5,0,-4,7,10,22,-1,3,-25
-2,-8,-5,6,1,-7,6,9,22,-1,2,-25
-3,-10,-7,7,1,-9,6,7,21,-2,1,-25
-4,-12,-8,8,1,-10,6,6,20,-3,0,-26
-5,-13,-8,9,1,-11,6,4,19,-4,0,-28
-4,-12,-8,8,2,-10,6,3,18,-6,0,-30
-3,-11,-6,7,2,-9,6,2,17,-7,-1,-32
-3,-10,-5,7,1,-8,6,1,16,-7,-2,-32
-3,-10,-5,7,1,-7,5,0,16,-8,-2,-32
-4,-10,-5,7,0,-7,5,0,15,-8,-3,-32
-4,-10,-5,7,0,-7,4,-1,15,-9,-4,-32
-5,-9,-4,7,-1,-7,3,-3,14,-10,-5,-31
-6,-10,-4,8,-1,-7,3,-4,13,-11,-6,-31
-6,-11,-4,9,-1,-8,3,-4,13,-12,-6,-32
-5,-11,-5,9,0,-9,3,-4,13,-12,-7,-33
-4,-11,-5,8,0,-8,3,-4,13,-12,-8,-33
-4,-10,-6,8,1,-8,4,-4,13,-12,-7,-33
-4,-11,-6,8,1,-9,4,-4,12,-12,-6,-32
-4,-11,-6,9,0,-9,3,-5,12,-12,-5,-31
-5,-12,-6,9,0,-9,3,-5,12,-12,-5,-31
-5,-12,-6,9,0,-10,3,-5,12,-12,-6,-30
-6,-13,-6,9,0,-10,3,-6,12,-12,-6,-30
-6,-12,-6,9,0,-9,3,-6,12,-12,-6,-31
-5,-11,-6,9,0,-9,3,-7,11,-13,-7,-32
-5,-11,-6,9,0,-9,3,-7,11,-13,-7,-32
-5,-11,-6,9,0,-9,3,-7,11,-13,-8,-32
-5,-12,-7,9,0,-10,3,-7,11,-13,-8,-32
-5,-13,-7,10,0,-10,2,-7,10,-13,-9,-33
-6,-13,-7,10,0,-10,2,-8,10,-13,-9,-34
-6,-14,-7,10,0,-11,2,-8,10,-13,-9,-34
-7,-15,-8,11,1,-12,2,-8,10,-13,-9,-34
-7,-16,-9,12,1,-13,2,-8,10,-13,-9,-33
-7,-14,-7,11,0,-11,2,-8,10,-13,-9,-33
-6,-11,-5,10,0,-9,2,-8,10,-13,-8,-34
-6,-9,-3,8,-1,-7,2,-8,10,-13,-8,-34
-6,-9,-2,8,-1,-6,2,-7,10,-13,-8,-34
-5,-8,-3,7,-1,-6,2,-7,11,-13,-9,-34
-4,-8,-3,7,0,-6,2,-7,11,-13,-9,-34
-4,-9,-4,7,0,-6,2,-6,11,-12,-10,-33
-3,-11,-6,8,1,-8,3,-5,12,-12,-9,-31
-4,-13,-8,9,1,-10,4,-4,12,-11,-9,-30
-5,-14,-8,10,1,-11,3,-4,11,-11,-9,-31
-6,-14,-8,10,1,-11,3,-4,11,-11,-9,-32
-7,-14,-7,10,0,-11,3,-4,11,-11,-8,-33
-7,-14,-6,10,0,-10,3,-4,11,-11,-7,-32
-7,-13,-6,10,0,-10,3,-4,11,-11,-6,-32
-7,-13,-6,10,0,-9,3,-4,11,-10,-7,-32
-6,-12,-6,9,0,-9,3,-3,12,-10,-7,-31
-5,-11,-6,8,0,-9,3,-3,12,-9,-7,-30
-6,-11,-5,8,0,-8,3,-2,12,-9,-7,-30
-7,-11,-4,9,-1,-8,3,-2,12,-9,-8,-31
-8,-12,-4,10,-1,-9,3,-2,11,-9,-9,-33
-8,-11,-3,10,-2,-7,3,-3,11,-9,-9,-33
-8,-10,-2,9,-2,-6,2,-3,11,-9,-8,-32
-7,-11,-3,9,-2,-7,2,-3,11,-9,-6,-31
-7,-11,-3,9,-1,-7,2,-3,11,-9,-6,-31
-6,-11,-4,9,-1,-7,2,-3,11,-9,-7,-31
-7,-11,-4,9,-1,-7,2,-2,11,-9,-7,-31
-7,-11,-4,9,-1,-8,2,-2,11,-9,-6,-30
-8,-13,-5,10,-1,-9,3,-2,11,-8,-5,-28
-8,-14,-6,11,-1,-11,3,-2,12,-8,-4,-28
-7,-15,-7,11,0,-11,3,-1,12,-7,-4,-28
-7,-15,-7,11,0,-11,3,-1,12,-7,-4,-28
-7,-15,-8,11,0,-11,3,0,12,-6,-4,-28
-6,-14,-8,11,0,-11,3,0,12,-6,-4,-29
-5,-12,-7,10,0,-9,3,0,12,-5,-4,-29
-5,-10,-5,8,0,-7,3,0,12,-5,-5,-30
-5,-8,-3,7,-1,-5,3,-1,12,-5,-5,-30
-5,-9,-4,7,0,-6,3,0,12,-5,-5,-29
-5,-10,-5,8,0,-7,3,0,13,-5,-5,-28
-5,-10,-5,8,0,-7,3,-1,12,-6,-7,-28
-5,-10,-4,8,-1,-7,3,-1,11,-7,-7,-29
-6,-10,-4,8,-1,-7,2,-1,10,-7,-6,-30
-6,-10,-3,8,-2,-6,2,-1,10,-7,-5,-30
-7,-9,-1,8,-2,-5,2,-2,10,-7,-5,-30
-7,-10,-2,9,-2,-6,2,-2,10,-7,-6,-29
-7,-12,-4,10,-1,-8,3,-2,10,-6,-5,-27
-7,-12,-4,10,-1,-8,3,-2,10,-6,-3,-26
-7,-12,-5,10,-1,-8,3,-1,10,-5,-2,-25
-6,-13,-6,10,0,-9,3,-1,10,-5,-2,-25
-6,-13,-6,11,0,-10,4,-1,10,-5,-2,-24
-6,-13,-6,11,0,-10,4,-1,10,-5,-2,-24
-6,-13,-6,10,0,-10,4,-1,9,-5,-2,-25
-6,-11,-5,10,0,-9,4,-1,8,-5,-3,-27
-7,-10,-3,9,-2,-7,4,-2,7,-6,-4,-29
-7,-10,-2,9,-2,-6,4,-2,7,-6,-4,-29
-7,-11,-3,9,-1,-7,4,-2,7,-6,-5,-28
-8,-13,-5,10,-1,-9,5,-2,7,-6,-5,-28
-8,-15,-6,11,0,-10,5,-2,7,-6,-5,-27
-8,-14,-5,10,-1,-9,5,-3,6,-6,-5,-27
-8,-13,-3,10,-2,-8,4,-3,5,-7,-6,-27
-8,-13,-3,10,-2,-8,4,-3,4,-7,-6,-27
-8,-14,-5,11,-1,-9,5,-3,5,-6,-6,-28
-9,-15,-6,12,-1,-10,6,-2,5,-6,-6,-29
-10,-16,-5,13,-2,-10,5,-3,4,-7,-7,-30
-11,-16,-5,14,-3,-10,5,-4,4,-8,-8,-30
-11,-16,-5,13,-3,-10,5,-4,4,-8,-8,-29
-9,-13,-4,11,-3,-8,5,-4,4,-8,-7,-29
-8,-11,-3,10,-2,-7,5,-4,4,-8,-7,-29
-8,-12,-3,10,-2,-7,5,-4,3,-8,-7,-28
-9,-12,-3,11,-3,-7,5,-4,3,-8,-7,-27
-9,-12,-2,11,-3,-7,5,-4,3,-8,-7,-27
-8,-11,-2,10,-3,-7,5,-4,3,-8,-8,-30
-8,-11,-2,10,-2,-7,5,-4,3,-8,-8,-32
-7,-10,-3,9,-2,-7,6,-4,3,-7,-8,-33
-7,-10,-3,9,-2,-7,6,-4,4,-7,-8,-32
-7,-11,-4,9,-1,-7,6,-3,4,-7,-8,-31
-7,-12,-5,10,-1,-8,7,-3,4,-7,-8,-29
-7,-12,-4,10,-1,-8,7,-3,4,-7,-7,-29
-7,-11,-3,10,-1,-7,7,-3,4,-6,-7,-28
-7,-12,-4,10,-1,-8,7,-3,4,-6,-7,-28
-7,-12,-4,11,-1,-8,8,-2,3,-6,-7,-27
-8,-12,-4,11,-2,-8,8,-2,3,-6,-6,-27
-8,-12,-3,11,-3,-8,8,-2,3,-5,-5,-27
-8,-12,-3,11,-2,-8,8,-1,4,-4,-4,-27
-8,-11,-2,10,-2,-6,8,-1,4,-4,-5,-27
-7,-8,0,8,-3,-4,9,0,5,-3,-5,-26
-7,-6,1,7,-3,-3,9,0,6,-3,-5,-25
-7,-5,2,7,-4,-2,10,1,6,-2,-5,-25
-7,-6,1,7,-4,-3,10,1,6,-2,-4,-25
-8,-8,0,8,-4,-4,10,2,6,-2,-3,-25
-8,-8,1,8,-5,-3,10,1,6,-2,-3,-25
-8,-6,4,7,-6,0,9,1,6,-2,-3,-24
-8,-4,5,6,-6,1,10,2,6,-1,-2,-23
-7,-5,3,6,-5,0,12,3,8,0,-1,-21
-7,-5,3,6,-5,0,14,4,9,1,-1,-20
-7,-4,3,6,-5,0,14,4,9,1,-1,-20
-6,-1,5,4,-5,2,14,4,9,1,-1,-21
-5,1,6,2,-6,4,14,4,9,1,-1,-21
-5,2,7,1,-6,5,14,4,10,2,0,-22
-5,3,8,1,-7,6,13,4,11,3,0,-22
-6,3,10,1,-8,7,11,3,10,3,1,-21
-6,5,11,0,-9,8,9,3,10,3,1,-19
-5,5,11,0,-8,8,7,3,10,3,2,-17
-5,3,9,1,-7,6,6,3,10,3,3,-14
-3,4,8,0,-5,6,6,2,10,3,3,-13
-1,7,8,-3,-4,8,5,2,9,2,2,-14
0,9,9,-4,-4,8,5,1,8,2,2,-15
0,5,6,-2,-3,5,4,1,7,1,1,-16
-1,1,2,0,-2,2,4,1,6,1,0,-18
0,0,1,1,-1,1,4,1,5,0,0,-21
0,0,2,0,-1,1,4,0,5,-1,-1,-23
-1,0,2,1,-1,1,4,0,4,-1,-1,-24
-2,0,1,1,-1,0,4,0,5,0,-1,-22
-2,-2,0,2,-1,-1,5,0,5,0,-1,-21
-3,-3,0,3,-1,-1,5,0,4,-1,-1,-21
-4,-3,1,4,-2,-1,5,-1,3,-2,-3,-21
-5,-3,2,4,-3,0,5,-1,2,-2,-4,-22
-7,-5,2,6,-4,-1,6,-1,2,-3,-6,-22
-9,-7,2,8,-5,-2,6,-1,1,-4,-6,-22
-10,-8,2,9,-5,-3,7,-1,1,-4,-5,-22
-10,-9,0,10,-5,-4,7,-1,1,-4,-5,-23
-10,-11,-1,10,-4,-5,8,-1,1,-4,-6,-25
-11,-12,-2,11,-5,-6,8,-2,0,-5,-7,-26
-11,-13,-2,12,-5,-7,8,-2,0,-6,-7,-25
-11,-14,-3,13,-5,-8,8,-2,-1,-6,-8,-25
-12,-15,-3,14,-5,-9,8,-2,-2,-7,-9,-24
-12,-15,-3,14,-5,-8,8,-2,-2,-7,-9,-24
-12,-14,-2,13,-5,-8,8,-3,-2,-8,-10,-24
-12,-15,-2,13,-5,-8,8,-3,-3,-9,-10,-24
-13,-16,-3,14,-5,-9,7,-4,-4,-9,-11,-24
-13,-16,-3,15,-5,-9,7,-4,-4,-10,-11,-25
-13,-16,-3,15,-5,-10,7,-4,-4,-10,-11,-25
-13,-16,-3,15,-5,-10,8,-4,-4,-9,-11,-25
-13,-17,-3,15,-5,-10,8,-4,-4,-9,-11,-25
-14,-17,-2,15,-6,-10,7,-4,-5,-10,-11,-25
-15,-18,-2,16,-6,-10,7,-5,-5,-10,-11,-24
-14,-17,-2,15,-6,-10,7,-4,-5,-10,-11,-24
-14,-17,-2,15,-5,-9,7,-4,-5,-10,-11,-23
-14,-16,-2,15,-5,-9,7,-4,-5,-10,-10,-23
-13,-16,-3,15,-5,-9,7,-3,-5,-10,-10,-22
-13,-16,-3,15,-5,-9,8,-3,-5,-10,-10,-21
-13,-16,-3,15,-5,-9,8,-3,-5,-10,-10,-21
-13,-16,-3,15,-5,-9,9,-2,-4,-10,-10,-22
-13,-16,-2,15,-5,-8,9,-2,-5,-10,-11,-23
-13,-15,-2,15,-5,-8,9,-2,-5,-10,-12,-24
-13,-15,-3,15,-5,-9,9,-2,-5,-10,-12,-24
-12,-16,-3,15,-4,-9,9,-1,-4,-10,-12,-22
-13,-17,-4,15,-5,-10,9,-1,-4,-10,-12,-22
-15,-19,-5,17,-5,-11,8,-1,-4,-10,-12,-23
-15,-21,-5,18,-5,-12,8,0,-3,-9,-11,-24
-15,-21,-5,18,-5,-13,9,2,-1,-6,-9,-24
-14,-20,-5,17,-4,-12,10,6,2,-1,-6,-23
-11,-16,-4,14,-4,-10,11,11,7,5,-1,-19
-9,-11,-1,11,-4,-6,13,17,14,14,6,-13
-8,-6,3,7,-6,-1,15,23,25,26,17,-4
-8,-1,7,5,-8,3,17,27,36,41,30,6
-8,1,10,4,-9,6,18,28,48,57,46,18
-7,3,11,3,-9,7,19,29,61,75,65,32
-6,6,13,1,-10,10,20,29,74,94,86,47
-5,9,14,-2,-10,12,20,27,86,114,108,62
-2,14,16,-6,-9,15,16,20,95,133,132,79
1,21,19,-11,-9,20,7,6,100,147,155,96
5,28,23,-16,-9,26,-8,-16,98,154,174,110
7,37,28,-22,-10,33,-28,-48,88,153,188,123
8,45,36,-26,-14,41,-51,-87,71,145,198,134
8,52,44,-30,-18,48,-75,-127,50,132,203,141
7,57,50,-31,-21,54,-97,-164,28,114,200,142
4,57,53,-30,-25,55,-115,-196,4,88,181,131
-2,51,54,-24,-29,53,-128,-223,-22,50,141,104
-11,41,52,-15,-32,47,-137,-245,-52,4,87,66
-19,26,46,-3,-33,36,-142,-258,-82,-43,28,23
-25,9,34,8,-30,22,-144,-262,-109,-86,-24,-18
-28,-7,21,17,-24,7,-142,-259,-132,-121,-67,-51
-28,-19,8,23,-18,-5,-137,-250,-149,-148,-97,-74
-27,-30,-3,28,-12,-16,-131,-238,-160,-166,-116,-89
-26,-40,-13,33,-7,-26,-124,-223,-165,-174,-125,-97
-26,-47,-20,37,-3,-34,-117,-207,-165,-173,-126,-100
-26,-50,-24,38,-1,-37,-110,-190,-159,-167,-122,-99
-25,-50,-25,37,0,-38,-103,-172,-149,-156,-115,-94
-23,-49,-25,36,0,-37,-96,-153,-135,-142,-106,-87
-21,-44,-24,32,1,-33,-89,-135,-119,-127,-95,-79
-17,-37,-21,27,2,-29,-79,-116,-102,-110,-83,-71
-13,-32,-19,23,3,-25,-67,-96,-85,-92,-71,-63
-11,-29,-18,20,3,-23,-54,-77,-69,-76,-60,-56
-9,-25,-15,17,3,-20,-41,-61,-55,-62,-50,-50
-8,-21,-12,15,1,-16,-30,-46,-42,-50,-41,-44
-8,-18,-9,13,0,-13,-20,-34,-32,-40,-34,-38
-8,-16,-7,12,-1,-11,-12,-23,-23,-32,-29,-33
-8,-15,-6,12,-1,-11,-5,-14,-15,-24,-23,-28
-7,-13,-6,11,-1,-10,0,-7,-9,-18,-19,-23
-7,-13,-5,11,-1,-9,4,-2,-4,-13,-15,-21
-8,-14,-5,12,-2,-10,7,2,-1,-10,-12,-20
-9,-16,-6,13,-2,-11,10,6,1,-7,-11,-20
-9,-17,-7,13,-1,-12,13,10,4,-5,-9,-19
-9,-18,-8,14,-1,-13,15,13,5,-3,-8,-17
-9,-17,-7,13,-1,-12,16,14,6,-2,-7,-16
-9,-14,-4,12,-3,-9,16,15,7,-2,-7,-16
-9,-12,-3,11,-3,-7,16,15,8,-1,-7,-15
-9,-11,-3,10,-3,-7,17,16,9,0,-6,-15
-8,-11,-3,10,-3,-7,17,17,10,1,-5,-15
-8,-10,-3,9,-3,-7,18,18,11,2,-4,-15
-7,-10,-3,9,-3,-6,18,18,11,2,-3,-15
-7,-10,-3,9,-2,-6,18,19,11,2,-3,-15
-7,-10,-3,9,-2,-7,19,20,12,3,-3,-15
-7,-10,-3,9,-3,-7,19,21,12,3,-3,-15
-7,-9,-2,9,-3,-6,19,21,13,4,-3,-15
-7,-8,-1,8,-3,-5,19,21,13,4,-3,-14
-7,-7,-1,8,-3,-4,18,21,14,5,-2,-12
-7,-7,0,8,-4,-3,18,21,14,5,-3,-12
-8,-8,0,8,-5,-3,18,21,13,5,-4,-12
-8,-7,0,8,-5,-3,18,21,13,5,-4,-12
-7,-7,0,7,-4,-3,19,22,14,6,-4,-12
-6,-7,0,7,-3,-3,19,23,14,7,-4,-12
-6,-6,0,6,-4,-3,18,23,14,7,-3,-14
-6,-4,1,5,-4,-1,18,23,15,8,-2,-14
-4,-2,2,3,-4,0,19,24,16,10,0,-13
-4,-2,2,3,-4,0,19,25,17,11,2,-12
-5,-4,0,5,-4,-1,19,25,17,12,2,-11
-6,-6,0,6,-4,-2,19,26,17,12,2,-10
-7,-6,2,7,-5,-1,18,26,17,11,1,-11
-7,-3,4,5,-6,1,18,26,16,11,1,-12
-5,0,6,3,-6,3,18,27,17,12,2,-10
-4,1,6,2,-5,4,19,28,18,13,4,-9
-3,2,6,1,-4,4,19,29,18,14,4,-8
-2,2,6,1,-4,4,19,29,19,14,5,-7
-2,3,6,0,-4,4,19,30,19,15,5,-7
-2,3,6,0,-4,5,19,31,20,16,6,-7
-2,3,5,0,-3,4,19,32,21,17,7,-7
-2,2,5,1,-3,4,19,33,21,18,7,-6
-3,1,5,2,-4,4,19,34,21,18,7,-6
-4,0,5,2,-4,3,19,35,22,19,7,-6
-3,1,4,1,-3,3,19,36,23,20,7,-6
-2,2,4,0,-3,3,20,38,24,21,8,-5
-2,2,4,0,-4,3,20,39,24,22,9,-4
-2,2,4,0,-3,3,20,40,25,23,10,-3
-2,2,3,0,-3,2,20,42,26,25,10,-2
-2,1,3,1,-3,2,20,44,26,26,10,-2
-2,2,4,0,-3,3,20,45,27,26,10,-2
0,4,5,-1,-3,4,20,47,28,28,12,-1
1,6,4,-3,-2,5,21,49,29,29,14,1
2,6,4,-4,-2,5,22,51,31,31,15,2
2,6,4,-4,-2,5,22,53,32,33,16,3
2,6,3,-4,-1,4,23,55,33,35,17,3
3,6,2,-4,0,4,23,57,35,37,19,3
4,8,3,-5,0,5,23,59,35,38,20,4
5,9,4,-6,0,6,23,61,36,39,21,5
5,9,3,-6,1,6,24,64,38,41,22,6
7,10,3,-8,2,7,25,67,40,43,24,8
8,13,4,-10,2,8,25,69,41,44,24,8
8,14,5,-11,1,9,25,71,42,45,24,8
8,14,6,-11,1,10,25,73,42,46,24,8
7,14,6,-10,0,10,25,75,43,48,26,9
8,14,6,-10,0,10,25,77,44,50,29,11
9,15,6,-11,1,11,25,80,45,51,31,12
9,15,7,-11,0,11,25,82,45,53,32,12
9,15,7,-11,0,11,25,85,46,54,33,12
9,15,7,-12,0,11,25,87,47,56,34,12
9,17,8,-13,0,12,25,88,47,57,34,13
11,21,10,-16,0,15,25,90,48,58,35,15
13,24,10,-18,1,17,26,92,49,60,38,17
15,25,9,-20,3,18,27,95,51,62,41,19
17,26,9,-21,4,18,27,97,51,63,43,20
17,26,9,-21,4,18,27,99,52,64,44,21
17,25,8,-20,5,16,27,101,52,65,44,22
17,23,7,-20,5,15,27,102,52,66,44,23
16,22,6,-19,5,14,27,102,52,66,44,23
16,22,5,-19,5,13,27,103,52,67,45,23
17,23,6,-20,5,15,27,103,51,67,45,24
18,27,8,-22,5,18,27,103,50,66,44,25
20,30,10,-24,5,20,26,103,49,66,44,26
20,30,10,-24,5,20,26,102,48,65,44,27
19,29,9,-24,5,19,26,102,47,65,45,27
19,27,9,-23,5,18,25,101,47,64,45,26
19,27,9,-23,5,17,24,100,46,63,42,23
19,28,9,-23,5,18,23,98,44,62,40,21
20,30,10,-24,5,20,22,95,42,60,39,21
20,32,12,-26,4,22,21,93,40,58,39,22
20,33,13,-26,4,23,20,90,38,57,39,21
19,31,12,-25,4,22,19,88,36,55,38,20
18,27,9,-22,4,18,19,85,34,53,37,19
17,25,8,-21,4,16,18,82,33,51,37,20
17,25,8,-21,4,16,17,78,31,49,35,20
17,25,8,-21,4,17,16,74,29,47,33,20
17,25,8,-21,5,17,14,70,26,44,30,19
17,26,8,-21,5,17,13,65,23,41,27,17
17,26,8,-21,5,17,12,61,20,38,26,16
17,26,8,-21,4,18,11,57,18,35,25,14
16,25,9,-21,3,18,11,53,15,33,24,12
16,24,8,-21,4,17,11,50,13,31,23,11
17,24,8,-21,4,16,10,47,12,29,22,11
18,25,8,-22,4,17,10,43,10,26,18,10
17,24,7,-20,4,16,10,39,7,23,14,9
16,21,5,-18,5,13,10,35,5,20,12,8
16,19,4,-17,5,12,10,32,3,18,12,8
16,20,5,-17,5,13,9,29,1,16,12,6
14,18,4,-16,5,11,8,26,0,14,9,3
12,15,3,-13,5,9,8,23,-2,12,6,0
10,13,3,-12,4,8,7,20,-4,9,4,-3
9,14,4,-12,3,9,6,17,-6,7,3,-5
10,15,5,-12,3,10,5,14,-7,6,2,-5
11,15,4,-13,4,10,5,12,-8,5,1,-5
11,14,4,-12,4,9,5,10,-10,3,0,-6
10,14,4,-12,3,9,5,8,-11,2,-1,-7
9,12,3,-11,3,8,5,7,-12,1,-3,-7
9,11,2,-10,3,7,6,5,-13,0,-4,-8
8,10,3,-9,3,6,5,3,-15,-2,-6,-9
6,8,3,-7,2,6,4,1,-17,-4,-8,-10
4,6,3,-5,1,4,3,-1,-18,-5,-8,-10
2,4,1,-3,1,2,2,-2,-19,-6,-8,-10
2,2,0,-2,1,1,3,-3,-20,-6,-9,-11
3,3,0,-3,2,1,4,-3,-20,-6,-10,-12
4,5,0,-5,2,3,4,-4,-20,-6,-11,-13
5,7,1,-6,2,4,4,-4,-21,-6,-11,-14
5,7,1,-6,2,4,4,-4,-21,-7,-11,-14
5,7,1,-6,2,3,4,-5,-22,-7,-11,-14
5,6,1,-5,3,3,4,-5,-22,-8,-11,-14
4,5,0,-5,3,2,4,-6,-23,-8,-11,-14
3,4,0,-4,2,1,3,-7,-24,-9,-11,-14
2,3,1,-3,1,1,3,-7,-25,-10,-12,-15
2,3,1,-3,0,2,2,-8,-26,-11,-13,-16
2,4,2,-3,0,3,2,-8,-26,-11,-13,-16
2,5,2,-4,0,4,2,-8,-26,-11,-14,-16
2,5,3,-4,0,4,2,-8,-26,-12,-14,-16
2,5,2,-3,0,4,2,-9,-27,-12,-14,-16
2,3,1,-2,0,2,2,-9,-27,-13,-14,-16
2,2,0,-2,1,1,2,-9,-27,-13,-14,-16
2,2,0,-2,1,1,2,-9,-28,-13,-14,-16
1,2,0,-2,0,1,1,-9,-28,-13,-15,-16
1,1,0,-1,0,1,1,-9,-29,-13,-15,-16
0,-1,-1,0,0,0,1,-9,-29,-13,-15,-17
-1,-3,-2,2,0,-2,1,-9,-29,-13,-15,-17
-2,-3,-2,3,0,-2,1,-9,-29,-14,-15,-17
-1,-1,0,1,0,0,2,-10,-29,-14,-15,-16
0,2,1,-1,0,2,2,-10,-29,-14,-16,-15
1,4,2,-2,0,3,2,-10,-29,-14,-16,-14
2,4,2,-3,0,3,2,-10,-29,-14,-15,-14
2,5,2,-3,0,4,2,-10,-29,-13,-14,-14
3,5,2,-3,0,4,2,-10,-28,-13,-13,-14
3,4,1,-3,1,2,2,-9,-28,-12,-12,-14
2,2,0,-2,1,1,3,-9,-28,-12,-12,-14
2,1,0,-1,1,0,3,-9,-28,-12,-13,-14
1,1,1,-1,0,1,2,-9,-28,-12,-13,-14
0,1,1,0,0,2,2,-9,-28,-13,-14,-15
0,0,0,1,0,0,2,-9,-28,-13,-14,-16
-1,-3,-2,2,0,-2,2,-8,-28,-13,-14,-15
-2,-4,-3,2,1,-3,3,-8,-27,-13,-13,-14
-1,-2,-2,1,1,-2,3,-8,-27,-12,-13,-14
0,0,-1,0,1,0,3,-8,-27,-12,-13,-14
1,1,0,-1,1,0,3,-8,-27,-12,-13,-14
1,1,1,-1,0,1,3,-8,-27,-12,-13,-14
1,3,2,-2,0,3,3,-8,-28,-12,-13,-15
1,3,3,-1,-1,3,3,-7,-28,-13,-14,-15
0,2,2,-1,-1,2,3,-6,-27,-13,-14,-14
0,2,1,-1,-1,2,3,-6,-27,-13,-14,-14
1,4,1,-2,0,3,3,-5,-27,-13,-14,-15
2,5,2,-3,0,4,3,-5,-27,-13,-14,-15
2,6,3,-3,0,4,3,-5,-27,-12,-14,-15
1,5,3,-3,0,4,3,-5,-26,-12,-13,-14
0,2,1,-1,0,1,3,-5,-26,-12,-13,-14
0,0,0,1,0,0,3,-4,-26,-12,-14,-15
-1,-2,0,2,0,-1,4,-3,-26,-12,-14,-15
-1,-3,-2,3,0,-2,4,-3,-25,-11,-13,-14
-1,-3,-2,2,0,-2,4,-3,-25,-11,-12,-13
-1,0,-1,0,0,0,4,-3,-25,-12,-12,-13
0,2,0,-1,0,1,4,-3,-25,-12,-12,-13
0,3,0,-1,0,1,4,-3,-25,-12,-12,-13
1,3,1,-2,0,2,4,-2,-25,-12,-12,-13
1,3,1,-2,0,2,4,-2,-26,-12,-13,-14
1,1,1,-1,0,1,4,-2,-26,-12,-13,-14
0,1,0,0,0,1,4,-2,-26,-12,-12,-14
0,1,0,0,0,1,4,-2,-26,-12,-12,-14
0,0,0,0,0,0,4,-2,-26,-12,-12,-14
-1,0,0,1,0,0,4,-2,-26,-12,-12,-14
-1,0,1,1,0,0,4,-2,-25,-12,-13,-14
-1,1,1,0,0,1,4,-2,-26,-12,-13,-14
-1,0,1,0,0,0,3,-2,-26,-12,-13,-14
-1,-1,0,1,0,0,3,-2,-26,-12,-13,-15
0,0,0,0,0,0,3,-2,-26,-12,-13,-15
0,0,0,0,0,0,3,-2,-26,-12,-13,-15
0,0,0,0,0,0,3,-2,-26,-12,-13,-15
0,1,0,0,0,0,4,-2,-26,-12,-13,-15
0,0,-1,0,0,0,4,-2,-26,-12,-13,-16
0,0,-1,0,1,0,4,-2,-26,-12,-13,-16
0,1,0,0,0,1,3,-3,-27,-13,-13,-16
0,2,1,0,-1,2,2,-4,-28,-13,-13,-16
0,1,1,0,0,1,2,-3,-28,-13,-13,-15
0,0,-1,0,1,0,3,-3,-28,-13,-13,-14
1,0,-2,0,1,-1,3,-3,-28,-13,-14,-13
0,0,-2,0,1,-1,3,-3,-28,-14,-14,-13
0,-1,-2,0,1,-2,3,-3,-28,-14,-15,-13
0,-2,-2,1,1,-2,4,-3,-28,-14,-15,-14
-1,-3,-3,3,1,-3,4,-3,-28,-14,-15,-15
-1,-4,-3,3,1,-3,3,-3,-28,-14,-15,-16
0,-3,-2,2,1,-2,3,-3,-28,-14,-15,-16
0,-2,-2,1,1,-2,3,-3,-28,-15,-15,-16
0,-1,-2,1,1,-1,3,-3,-28,-15,-15,-16
0,-1,-2,1,1,-1,3,-4,-28,-15,-15,-15
0,-2,-2,1,1,-2,3,-4,-28,-15,-14,-15
0,-1,-2,1,1,-1,3,-4,-28,-15,-15,-14
0,-1,-1,1,1,-1,3,-4,-28,-15,-15,-14
0,-2,-2,1,1,-2,3,-4,-28,-15,-16,-14
0,-2,-2,1,1,-2,3,-4,-28,-15,-16,-15
0,-2,-1,1,0,-1,3,-4,-29,-16,-17,-15
-1,-1,0,1,0,0,2,-5,-29,-16,-17,-15
-1,-1,0,1,0,-1,2,-5,-29,-17,-17,-15
-1,-3,-2,2,1,-2,2,-5,-29,-17,-17,-15
-1,-4,-3,2,2,-3,3,-5,-29,-16,-17,-15
0,-4,-3,2,2,-3,3,-5,-28,-16,-17,-15
0,-4,-3,2,2,-3,4,-6,-28,-16,-17,-15
0,-4,-4,2,2,-3,4,-6,-28,-17,-17,-14
0,-5,-5,2,3,-4,4,-5,-28,-16,-17,-13
0,-5,-6,2,3,-5,4,-5,-27,-16,-17,-13
0,-5,-5,2,2,-5,4,-5,-28,-16,-17,-14
-1,-4,-4,2,1,-4,4,-6,-28,-17,-16,-15
-1,-4,-3,2,1,-3,3,-7,-28,-17,-16,-15
-1,-4,-2,2,1,-3,3,-7,-27,-17,-16,-16
-1,-3,-1,1,0,-1,3,-6,-27,-17,-17,-15
0,-1,0,0,0,0,4,-6,-26,-16,-16,-14
0,-2,-1,1,0,-1,4,-5,-26,-15,-15,-12
0,-1,-1,1,0,-1,5,-5,-25,-15,-15,-11
0,1,0,-1,0,1,5,-4,-25,-15,-15,-11
2,3,0,-3,1,2,6,-4,-24,-14,-14,-10
2,2,0,-2,1,1,7,-3,-24,-14,-13,-10
2,1,0,-2,1,1,8,-3,-23,-13,-13,-9
2,3,0,-3,1,2,8,-2,-22,-13,-13,-9
3,4,1,-4,1,3,8,-2,-21,-12,-13,-10
3,4,1,-4,1,3,8,-2,-21,-12,-13,-10
2,5,2,-4,0,4,8,-2,-20,-12,-13,-10
2,6,4,-4,-1,5,9,-2,-20,-11,-13,-11
2,6,4,-4,-1,5,10,-1,-19,-11,-13,-10
2,6,4,-4,-1,5,11,-1,-18,-10,-12,-9
2,7,5,-4,-1,5,12,0,-17,-9,-11,-7
2,8,5,-4,-2,6,13,0,-17,-9,-10,-6
1,7,6,-4,-2,7,13,0,-17,-8,-9,-5
1,7,6,-4,-2,7,12,0,-17,-8,-8,-4
2,8,6,-5,-2,7,11,0,-16,-8,-8,-4
3,10,6,-6,-1,8,9,0,-16,-7,-7,-2
5,13,7,-9,-1,10,8,0,-15,-7,-7,-1
7,14,6,-10,0,10,6,0,-15,-7,-7,0
9,15,5,-11,1,10,5,0,-16,-7,-6,0
9,16,6,-12,1,12,3,0,-17,-8,-7,-1
9,17,7,-13,1,13,2,-1,-18,-9,-8,-3
10,17,6,-13,1,12,2,-2,-18,-10,-10,-3
10,16,5,-13,2,11,1,-2,-20,-11,-11,-3
10,15,4,-13,3,9,1,-3,-21,-12,-11,-3
10,13,1,-12,4,7,1,-4,-22,-13,-10,-2
10,11,0,-11,5,5,1,-4,-23,-13,-11,-2
9,9,-1,-9,5,3,1,-4,-23,-13,-11,-1
8,6,-2,-8,5,2,2,-4,-23,-13,-11,-1
8,4,-4,-6,6,0,2,-3,-22,-13,-10,-1
7,1,-5,-4,6,-1,3,-3,-22,-13,-10,-2
5,0,-4,-3,5,-1,2,-4,-23,-14,-11,-4
3,0,-3,-2,3,-1,2,-5,-24,-15,-13,-6
2,-1,-3,-1,2,-1,2,-5,-25,-15,-13,-7
1,0,-2,-1,1,-1,3,-5,-25,-16,-14,-7
0,1,0,-1,0,0,3,-6,-26,-16,-15,-7
0,1,0,-1,0,0,2,-6,-27,-17,-16,-7
0,0,0,0,0,0,2,-6,-27,-18,-16,-8
0,-1,-1,0,1,-1,3,-6,-27,-18,-16,-8
0,-3,-3,1,1,-3,4,-6,-27,-18,-16,-8
0,-6,-5,3,2,-5,5,-6,-27,-18,-16,-8
-1,-7,-6,3,2,-6,5,-6,-27,-18,-17,-8
-1,-7,-6,3,2,-6,5,-6,-28,-19,-18,-8
-2,-7,-6,4,2,-6,5,-7,-29,-20,-19,-8
-2,-7,-5,4,1,-6,5,-8,-30,-21,-20,-8
-3,-8,-6,5,1,-7,5,-8,-30,-21,-20,-8
-2,-9,-7,5,2,-8,6,-8,-30,-21,-20,-8
-2,-10,-8,6,3,-9,6,-8,-30,-21,-19,-8
-2,-10,-8,6,2,-9,6,-8,-30,-21,-18,-8
-3,-10,-7,6,2,-9,6,-8,-30,-22,-18,-9
-3,-9,-6,6,2,-8,6,-8,-30,-22,-19,-9
-3,-8,-6,5,2,-8,6,-9,-30,-21,-19,-10
-2,-8,-6,5,2,-8,7,-8,-30,-21,-19,-10
-1,-9,-8,5,3,-9,8,-8,-29,-20,-19,-9
-1,-9,-8,5,3,-9,8,-8,-29,-21,-19,-8
-1,-8,-7,5,2,-7,7,-8,-29,-21,-19,-7
-2,-8,-6,5,1,-7,7,-9,-29,-21,-19,-7
-2,-7,-5,5,1,-6,7,-9,-29,-21,-19,-7
-2,-6,-5,4,1,-6,7,-9,-29,-21,-18,-7
-2,-7,-6,4,2,-7,7,-8,-29,-21,-18,-6
-2,-9,-7,6,2,-9,7,-8,-29,-21,-18,-4
-3,-10,-8,7,2,-10,7,-9,-29,-21,-18,-3
-3,-11,-8,7,2,-10,7,-9,-29,-21,-18,-3
-3,-10,-7,6,2,-8,7,-9,-29,-21,-18,-4
-2,-8,-6,4,2,-7,7,-9,-28,-21,-18,-5
-1,-8,-7,4,3,-8,8,-7,-27,-20,-18,-6
-1,-11,-9,6,4,-10,9,-5,-26,-18,-16,-5
-2,-12,-10,7,4,-11,9,-2,-24,-15,-14,-4
-3,-12,-10,8,3,-11,9,1,-21,-11,-11,-2
-3,-10,-7,7,2,-8,9,4,-16,-4,-6,0
-2,-6,-4,4,0,-4,11,10,-8,5,1,6
-2,-2,0,2,-1,0,13,15,1,17,13,16
-2,2,3,0,-2,3,15,17,12,31,28,27
-1,7,8,-3,-4,8,16,19,23,47,43,39
0,11,11,-5,-5,11,16,21,35,64,60,52
1,14,13,-7,-6,13,17,22,47,83,79,66
3,16,13,-10,-5,15,15,19,57,101,100,80
6,20,14,-13,-4,17,9,10,63,116,122,95
10,26,16,-18,-3,21,-3,-7,65,127,143,110
15,34,20,-25,-3,27,-20,-34,59,130,159,125
19,44,25,-31,-3,35,-41,-69,47,125,171,136
21,53,32,-37,-5,43,-65,-109,30,115,178,144
21,60,38,-40,-9,49,-88,-149,10,101,179,148
19,63,43,-41,-12,53,-110,-184,-11,81,168,143
14,60,46,-37,-16,53,-127,-215,-34,52,142,126
6,52,46,-28,-20,49,-139,-240,-60,14,100,98
-2,39,42,-18,-23,41,-146,-258,-87,-28,49,62
-9,23,33,-7,-22,28,-149,-267,-113,-69,-3,22
-14,6,20,3,-18,13,-148,-267,-136,-106,-49,-14
-16,-10,6,12,-12,-1,-145,-261,-156,-136,-85,-42
-18,-24,-6,20,-6,-15,-139,-253,-171,-159,-108,-61
-19,-35,-17,27,-1,-26,-133,-241,-179,-172,-122,-71
-19,-42,-24,31,2,-33,-126,-226,-182,-176,-127,-77
-18,-45,-27,32,4,-36,-119,-209,-179,-173,-127,-78
-17,-43,-26,30,4,-34,-112,-192,-172,-165,-123,-76
-15,-39,-23,27,3,-31,-106,-173,-161,-153,-115,-70
-13,-34,-21,23,3,-27,-99,-154,-147,-138,-104,-63
-10,-28,-19,19,4,-24,-90,-135,-131,-123,-92,-54
-7,-24,-18,15,5,-21,-79,-115,-114,-106,-80,-45
-4,-23,-19,13,7,-21,-66,-96,-98,-89,-68,-36
-3,-22,-19,12,8,-20,-52,-77,-84,-75,-58,-29
-2,-20,-18,11,7,-19,-39,-61,-71,-62,-49,-22
-2,-17,-14,9,6,-16,-28,-48,-60,-52,-41,-16
-2,-15,-12,8,5,-14,-19,-35,-51,-43,-35,-11
-1,-14,-12,8,5,-13,-11,-25,-42,-35,-29,-7
-1,-12,-11,6,5,-11,-5,-17,-36,-28,-25,-4
-1,-9,-9,5,4,-9,-1,-11,-32,-24,-22,-2
-1,-7,-7,4,3,-7,2,-7,-28,-21,-20,0
-1,-6,-6,4,2,-6,4,-4,-26,-19,-20,0
-1,-6,-5,3,2,-5,6,-1,-25,-18,-21,0
0,-7,-6,3,2,-6,8,2,-23,-16,-19,2
0,-8,-8,4,3,-8,11,5,-20,-13,-15,4
0,-8,-8,4,4,-8,12,7,-18,-11,-13,5
0,-7,-7,3,3,-7,13,8,-17,-11,-13,4
-1,-7,-7,4,3,-7,13,9,-16,-10,-13,5
-1,-8,-7,4,3,-7,13,9,-15,-9,-12,6
-1,-7,-6,4,2,-7,14,10,-14,-8,-10,7
-1,-6,-5,4,2,-6,14,11,-13,-8,-8,8
-1,-7,-6,4,2,-7,14,11,-13,-7,-7,8
-1,-7,-6,4,2,-6,14,12,-13,-7,-7,9
-1,-7,-6,4,2,-6,14,13,-12,-6,-7,10
-1,-7,-6,4,2,-6,15,14,-11,-4,-6,11
0,-6,-5,3,2,-5,15,15,-10,-3,-6,12
0,-4,-4,2,2,-3,15,16,-9,-3,-6,11
0,-4,-3,2,1,-3,15,16,-9,-2,-6,11
0,-3,-1,2,0,-2,15,16,-9,-2,-6,10
0,-1,0,1,0,0,15,16,-9,-2,-6,10
0,0,1,0,-1,1,15,17,-9,-2,-6,10
0,2,2,-1,-1,2,14,17,-9,-2,-7,9
0,3,3,-2,-2,4,14,17,-9,-2,-7,9
0,3,3,-2,-1,4,14,17,-8,-2,-6,10
1,3,2,-2,0,3,15,18,-7,-1,-6,10
1,2,1,-2,0,2,15,18,-6,0,-6,11
1,1,1,-1,0,1,15,19,-6,0,-5,12
0,1,1,-1,0,1,15,19,-6,0,-4,12
0,1,2,-1,-1,2,15,20,-6,0,-4,12
0,3,2,-1,-2,3,15,20,-6,1,-3,12
0,3,2,-2,-1,3,15,21,-6,1,-3,13
1,4,3,-2,-1,4,15,22,-5,2,-2,13
2,6,4,-4,-1,5,15,23,-4,3,-2,14
4,8,4,-5,0,6,15,24,-3,4,-1,15
5,9,4,-7,0,7,16,25,-2,5,0,16
5,10,5,-7,0,7,16,26,-2,6,0,16
5,11,6,-8,0,8,16,27,-2,6,0,16
5,11,5,-8,0,8,16,28,-1,7,1,17
4,9,4,-6,0,6,16,29,-1,7,2,17
2,6,3,-4,0,5,16,30,0,8,2,17
2,5,3,-3,0,4,16,31,0,8,2,18
2,6,3,-4,0,4,16,32,0,9,3,18
3,7,3,-4,0,5,16,33,1,10,3,19
3,7,3,-5,0,5,16,34,2,11,3,19
3,6,3,-5,0,5,16,36,3,12,4,21
4,8,3,-6,0,6,16,37,5,13,6,22
5,11,5,-8,0,8,16,39,6,14,7,23
6,12,6,-9,0,9,17,40,7,15,7,23
7,12,5,-9,1,9,17,42,8,16,8,24
7,12,4,-9,1,8,18,44,10,18,8,25
8,13,4,-10,1,8,18,46,11,20,9,25
8,14,5,-11,1,9,18,48,11,21,10,25
7,13,6,-10,0,9,17,50,12,21,11,26
6,12,6,-9,0,9,17,52,12,22,12,27
5,10,5,-8,0,8,17,54,13,23,13,28
6,10,4,-8,1,7,18,56,15,25,14,29
8,11,4,-9,2,8,19,59,16,27,16,31
9,14,5,-11,2,10,19,61,18,28,17,31
11,16,6,-13,2,12,19,64,19,30,18,32
12,18,6,-15,2,13,19,67,21,32,19,33
13,19,6,-16,3,13,20,69,22,34,20,34
15,20,5,-17,4,13,20,72,23,35,22,36
15,21,5,-17,5,13,21,74,24,37,24,38
16,22,5,-19,5,14,21,77,25,38,24,38
17,24,6,-20,5,15,20,79,25,39,23,38
18,25,6,-21,5,16,20,80,25,39,22,38
18,24,5,-21,5,15,20,82,26,41,26,40
18,23,4,-21,6,14,20,84,27,43,29,41
18,23,4,-21,6,14,20,86,29,44,31,41
19,24,5,-22,6,14,20,88,30,46,33,42
20,25,5,-23,7,15,21,90,31,47,34,43
21,26,5,-24,7,16,21,92,33,49,36,45
21,27,5,-24,8,16,22,94,34,50,37,46
21,27,5,-25,8,17,22,95,34,50,37,48
22,28,6,-26,8,17,21,96,34,51,38,49
23,29,6,-27,8,18,21,97,34,51,38,50
24,30,6,-27,8,18,21,98,34,51,38,49
24,31,6,-28,9,19,21,98,34,51,38,49
25,30,5,-28,9,18,21,99,34,51,39,50
25,29,4,-27,10,17,21,99,34,51,39,50
24,28,4,-26,9,16,21,99,33,51,39,50
24,29,5,-26,9,18,20,97,31,49,37,50
24,32,7,-27,8,20,19,96,30,48,36,49
24,33,9,-28,7,21,18,94,28,46,35,49
24,34,9,-28,7,22,18,92,27,45,35,49
24,33,8,-28,8,21,18,90,27,44,35,49
25,32,7,-28,8,20,17,88,26,43,34,49
25,31,7,-28,8,19,17,86,25,42,32,49
25,32,7,-29,8,19,16,84,24,40,31,48
25,33,8,-29,8,21,15,80,22,38,31,48
24,33,9,-29,7,21,14,76,20,36,30,47
24,33,9,-28,7,21,14,72,18,33,29,47
24,33,9,-28,8,20,13,68,16,31,28,47
23,32,9,-27,7,20,11,63,13,28,26,46
21,31,10,-26,5,20,10,59,11,25,23,43
20,30,10,-25,5,20,9,55,9,23,21,41
20,28,8,-24,5,18,8,51,7,21,19,40
19,26,8,-23,5,17,8,47,5,18,16,38
17,25,7,-21,5,16,7,43,3,15,14,37
16,22,6,-19,5,14,7,40,2,13,12,36
15,20,4,-17,6,12,7,37,1,11,10,36
14,18,4,-16,5,11,7,33,-1,8,8,36
12,17,5,-15,3,11,5,28,-3,5,7,33
10,16,5,-14,1,11,4,25,-5,3,5,30
9,16,6,-13,0,11,4,22,-7,1,3,27
8,14,7,-11,0,10,3,19,-8,-1,1,25
7,13,6,-10,0,9,3,16,-10,-3,0,25
6,11,5,-8,0,8,3,13,-11,-4,-1,25
6,8,3,-6,1,6,3,12,-11,-5,-2,24
5,7,2,-5,1,5,3,10,-12,-6,-3,24
5,8,4,-6,0,6,2,7,-14,-8,-4,23
5,11,7,-8,-1,9,1,4,-16,-10,-7,21
4,10,7,-7,-1,8,0,2,-17,-12,-9,20
4,5,3,-5,0,4,1,1,-17,-12,-9,20
3,3,1,-3,1,1,2,0,-17,-13,-9,20
1,2,1,-1,0,1,1,-1,-18,-14,-9,19
0,1,2,0,-1,2,0,-3,-19,-15,-10,18
-1,0,3,1,-2,1,0,-5,-20,-16,-11,17
-1,0,2,0,-1,1,0,-6,-20,-17,-12,17
0,1,2,0,-1,1,0,-7,-21,-17,-12,18
0,0,2,0,-1,0,0,-7,-21,-17,-13,18
-1,0,2,0,-1,0,0,-8,-22,-18,-14,18
-1,-1,2,1,-2,0,-1,-9,-23,-19,-15,18
-1,-1,2,1,-1,0,-1,-10,-24,-20,-15,17
-1,0,1,1,-1,0,-1,-10,-24,-20,-15,17
-2,0,2,1,-2,1,-1,-11,-24,-20,-15,16
-2,1,3,0,-3,2,-1,-11,-24,-21,-15,15
-2,1,4,0,-3,2,-1,-12,-24,-21,-15,15
-1,1,4,0,-3,3,-1,-12,-24,-21,-15,15
0,2,3,-1,-2,3,-1,-12,-24,-21,-16,14
0,0,2,0,-1,2,-1,-12,-24,-21,-17,14
-2,-2,1,2,-1,0,-1,-12,-24,-21,-16,14
-3,-4,0,4,-1,-1,-1,-13,-24,-21,-16,14
-3,-3,0,3,-2,-1,-1,-13,-24,-21,-15,14
-3,-3,0,3,-2,-1,-1,-13,-24,-21,-15,14
-3,-4,0,3,-1,-2,-1,-13,-24,-21,-15,15
-3,-5,-1,3,-1,-3,-1,-13,-24,-21,-15,16
-3,-5,-1,4,-2,-3,-1,-13,-25,-21,-15,17
-3,-5,-1,4,-2,-3,-2,-14,-25,-22,-16,18
-3,-4,-1,4,-1,-2,-2,-14,-26,-22,-16,18
-3,-4,-1,4,0,-3,-2,-14,-26,-22,-16,17
-3,-5,-2,4,0,-4,-2,-13,-25,-22,-16,16
-3,-5,-2,4,0,-3,-2,-13,-25,-21,-16,15
-2,-4,-1,3,0,-2,-2,-13,-24,-21,-16,16
-1,-3,-1,2,0,-2,-1,-12,-24,-21,-16,17
-1,-3,-1,2,0,-2,-2,-12,-24,-21,-15,16
-1,-2,0,2,-1,-1,-2,-12,-24,-21,-15,16
0,-1,0,1,0,-1,-2,-12,-23,-21,-15,17
0,-1,0,1,0,0,-2,-12,-23,-21,-15,18
0,-1,0,1,0,0,-2,-12,-23,-21,-15,18
-1,-3,-1,2,0,-2,-1,-12,-23,-21,-15,18
-2,-4,-1,3,0,-2,-1,-12,-23,-21,-15,17
-2,-1,1,2,-2,0,-2,-13,-23,-22,-16,17
-1,2,4,0,-3,3,-3,-13,-24,-22,-15,18
-1,2,3,0,-2,3,-3,-13,-23,-22,-15,18
-1,1,2,0,-2,1,-2,-12,-22,-21,-15,18
-1,0,1,0,-1,0,-2,-11,-21,-21,-15,17
-1,-1,1,1,-1,0,-1,-10,-20,-20,-14,16
-1,-2,0,2,-1,-1,-1,-10,-20,-19,-13,16
-1,-2,0,2,-1,-2,-1,-9,-19,-18,-12,18
-2,-2,0,2,-1,-2,-1,-9,-19,-18,-12,19
-2,-2,0,2,-1,-1,-1,-10,-19,-18,-12,19
-3,-3,1,3,-2,-1,-1,-10,-19,-19,-13,18
-5,-5,0,5,-2,-2,-1,-10,-19,-19,-14,17
-6,-5,1,5,-3,-2,-2,-10,-19,-19,-14,16
-5,-3,2,4,-3,0,-2,-10,-19,-19,-15,16
-3,0,3,1,-3,2,-1,-10,-18,-19,-14,17
-1,3,4,0,-2,3,-1,-10,-17,-18,-14,18
0,3,3,-1,-2,3,0,-9,-16,-18,-13,19
0,2,2,0,-1,2,0,-9,-16,-18,-13,19
-1,1,2,0,-1,1,0,-9,-15,-17,-13,19
-1,0,1,0,-1,1,0,-9,-15,-17,-13,20
-1,0,1,0,-1,0,0,-9,-15,-16,-12,21
-1,0,1,0,-1,0,0,-9,-15,-16,-12,21
-1,0,1,0,-1,0,0,-10,-15,-17,-13,21
-1,-1,0,1,-1,0,0,-10,-15,-17,-13,21
-3,-3,-1,3,-1,-2,0,-10,-15,-17,-14,20
-4,-5,-1,4,-1,-2,0,-10,-15,-18,-15,19
-4,-4,0,4,-2,-1,0,-11,-15,-18,-15,18
-3,-3,1,3,-2,0,0,-11,-15,-18,-15,19
-2,-1,1,2,-1,0,0,-10,-14,-17,-15,21
0,0,0,0,0,0,0,-9,-13,-16,-15,20
0,0,1,0,0,1,0,-9,-13,-16,-15,19
-1,0,1,1,-1,0,0,-10,-13,-16,-14,17
-2,-2,0,2,-1,0,0,-9,-13,-16,-12,17
-2,-1,1,2,-1,0,0,-9,-12,-16,-11,17
-1,0,2,0,-1,2,0,-9,-12,-16,-11,18
-2,0,3,0,-2,2,0,-9,-12,-16,-11,19
-2,-2,1,2,-1,0,0,-9,-12,-16,-11,20
-3,-4,0,3,-1,-1,0,-9,-12,-16,-12,21
-3,-3,0,3,-2,-1,0,-10,-13,-16,-12,22
-4,-2,2,3,-3,0,-1,-11,-14,-18,-13,22
-5,-2,3,3,-4,0,-1,-12,-14,-19,-15,22
-4,-2,3,3,-4,0,-1,-12,-14,-19,-16,21
-3,-2,0,3,-2,-1,0,-11,-13,-19,-17,19
-2,-3,-1,2,0,-2,0,-10,-12,-18,-16,19
-2,-2,-1,2,0,-1,1,-9,-12,-18,-15,19
-2,-2,0,2,0,-1,1,-9,-11,-17,-13,19
-2,-2,0,2,-1,-1,0,-9,-11,-17,-13,18
-3,-3,0,3,-1,-2,0,-9,-12,-17,-13,18
-3,-4,-1,4,-1,-3,0,-9,-12,-16,-12,18
-4,-4,0,4,-2,-2,0,-9,-12,-16,-12,18
-4,-2,1,3,-3,0,0,-10,-12,-17,-12,19
-3,-1,2,2,-2,0,0,-10,-13,-18,-12,20
-3,-2,1,3,-1,0,0,-10,-12,-18,-11,20
-3,-3,0,3,-1,-1,0,-10,-12,-17,-11,20
-3,-3,0,3,-1,-1,0,-10,-12,-17,-12,20
-2,-4,-1,3,0,-2,1,-10,-11,-17,-13,20
-2,-4,-1,3,0,-3,1,-10,-11,-16,-13,21
-2,-4,-1,3,0,-3,1,-10,-11,-16,-13,21
-2,-4,0,3,-1,-2,1,-10,-11,-17,-14,21
-3,-3,0,3,-1,-2,1,-10,-12,-17,-14,21
-3,-3,0,3,0,-2,1,-10,-12,-18,-14,20
-3,-3,0,3,-1,-1,0,-10,-12,-18,-14,18
-3,-2,1,3,-1,0,0,-10,-12,-18,-15,17
-3,-2,2,3,-2,0,1,-10,-12,-18,-15,17
-3,-2,2,3,-2,0,1,-10,-12,-18,-15,17
-3,-3,1,3,-2,-1,1,-10,-12,-18,-15,17
-4,-4,0,3,-2,-2,1,-10,-12,-18,-15,18
-4,-4,0,4,-2,-2,1,-10,-12,-19,-15,18
-5,-3,1,4,-3,-1,1,-10,-12,-19,-15,18
-5,-4,1,4,-3,-1,1,-10,-11,-18,-15,18
-5,-5,0,5,-2,-2,2,-9,-11,-18,-15,17
-5,-4,1,4,-2,-1,2,-9,-12,-18,-16,16
-5,-2,1,3,-3,0,2,-9,-11,-18,-15,16
-5,-2,1,3,-3,0,2,-9,-10,-17,-15,17
-5,-3,0,4,-2,-1,3,-8,-9,-16,-14,17
-4,-3,0,3,-1,-1,4,-7,-9,-16,-14,18
-4,-3,0,3,-1,-1,4,-7,-8,-15,-13,19
-5,-3,1,4,-2,-1,5,-7,-8,-15,-13,20
-4,-1,3,3,-3,1,5,-7,-8,-16,-14,20
-3,1,5,1,-4,3,5,-7,-8,-15,-13,21
-3,2,5,1,-4,4,6,-6,-7,-14,-12,22
-3,1,4,1,-4,3,7,-5,-6,-13,-11,23
-4,1,4,1,-4,3,7,-4,-5,-13,-11,23
-3,2,5,0,-4,4,7,-5,-6,-13,-13,23
-3,2,5,0,-4,4,7,-5,-6,-14,-14,23
-3,3,6,0,-4,5,7,-5,-6,-14,-13,24
-3,4,7,-1,-5,6,8,-5,-5,-13,-10,24
-3,5,8,-1,-5,7,8,-4,-4,-12,-9,24
-3,5,9,-1,-6,7,9,-4,-3,-11,-8,24
-3,7,10,-2,-6,8,10,-3,-3,-11,-8,24
-3,8,11,-3,-7,10,11,-3,-2,-10,-8,25
-3,9,12,-3,-7,10,11,-2,-2,-9,-7,26
-4,8,11,-2,-7,10,11,-2,-1,-8,-7,27
-4,7,11,-2,-7,10,10,-2,0,-8,-7,28
-4,9,13,-2,-8,11,7,-3,-1,-9,-7,28
-3,10,13,-3,-8,11,5,-3,-1,-9,-7,29
-2,10,12,-3,-6,11,4,-3,-1,-8,-6,30
0,12,12,-5,-5,12,2,-4,-1,-8,-5,30
2,15,13,-8,-5,13,1,-4,-2,-8,-5,30
4,16,12,-10,-4,14,1,-4,-2,-8,-5,29
4,16,11,-10,-3,13,1,-4,-2,-8,-6,29
5,15,10,-10,-2,12,1,-4,-2,-9,-6,29
5,13,7,-10,-1,10,2,-4,-3,-9,-5,29
5,11,5,-9,0,8,2,-5,-4,-10,-6,28
5,8,3,-7,1,5,2,-5,-4,-10,-6,27
4,5,1,-5,1,3,2,-5,-5,-10,-6,27
3,4,1,-3,0,3,1,-6,-6,-11,-7,26
2,5,3,-3,-1,4,0,-7,-7,-12,-8,24
2,5,3,-4,-1,5,0,-7,-8,-13,-9,22
0,4,4,-3,-1,4,1,-8,-8,-13,-9,21
-2,3,5,-1,-3,4,1,-9,-8,-13,-10,21
-4,2,6,0,-4,4,1,-9,-8,-13,-10,22
-5,1,6,1,-5,4,2,-9,-7,-12,-10,22
-5,0,5,2,-5,3,3,-8,-7,-12,-10,22
-5,-1,4,3,-5,2,4,-8,-7,-12,-10,22
-6,-2,3,4,-5,0,4,-8,-8,-13,-11,21
-6,-3,2,5,-5,0,5,-8,-8,-13,-12,19
-6,-4,1,5,-4,-2,5,-8,-9,-13,-12,19
-6,-6,0,6,-3,-3,6,-8,-9,-13,-12,19
-8,-8,0,8,-3,-4,5,-8,-9,-14,-13,18
-10,-9,0,9,-5,-4,5,-9,-11,-16,-15,16
-10,-8,1,9,-5,-3,4,-10,-12,-17,-16,15
-10,-8,1,9,-5,-3,4,-11,-12,-17,-16,14
-10,-9,1,9,-5,-4,4,-11,-12,-17,-17,14
-11,-10,0,10,-5,-5,4,-11,-12,-17,-17,14
-12,-11,0,11,-6,-5,4,-11,-12,-17,-17,14
-12,-10,1,11,-6,-5,5,-11,-12,-17,-17,14
-12,-10,1,10,-5,-5,5,-11,-12,-17,-17,13
-11,-9,1,10,-5,-4,5,-11,-12,-17,-17,13
-10,-7,2,8,-5,-3,5,-11,-13,-17,-17,13
-9,-6,2,7,-6,-2,5,-11,-13,-17,-17,13
-10,-8,1,8,-6,-3,5,-11,-13,-17,-17,13
-11,-10,1,10,-6,-4,5,-11,-13,-17,-17,13
-12,-11,1,11,-7,-5,5,-11,-13,-17,-17,12
-12,-11,1,10,-6,-5,5,-11,-13,-17,-18,12
-11,-11,1,10,-5,-5,5,-10,-12,-17,-18,13
-10,-11,0,10,-5,-5,6,-10,-12,-16,-17,13
-10,-12,0,11,-5,-6,6,-10,-12,-16,-17,13
-10,-11,0,11,-5,-5,6,-10,-11,-15,-17,13
-10,-10,0,10,-5,-5,6,-10,-11,-15,-16,14
-10,-9,0,9,-5,-4,6,-9,-11,-15,-15,15
-10,-9,1,9,-5,-4,7,-9,-11,-15,-14,15
-9,-9,1,9,-5,-4,7,-8,-10,-14,-14,15
-9,-9,1,9,-4,-4,7,-8,-10,-14,-14,14
-9,-9,1,9,-4,-4,7,-7,-9,-13,-14,13
-9,-9,0,8,-4,-4,7,-4,-7,-10,-13,13
-8,-9,-1,8,-3,-5,8,0,-4,-6,-9,15
-8,-9,-1,8,-3,-5,9,4,0,0,-4,18
-8,-6,2,6,-5,-2,11,9,7,9,2,23
-8,-1,6,3,-7,3,12,14,16,21,13,30
-7,3,11,1,-9,7,13,18,27,35,26,40
-7,6,14,0,-10,10,15,20,38,50,41,51
-7,10,17,-1,-12,13,16,23,50,68,59,65
-6,14,20,-4,-13,17,16,26,63,88,80,80
-3,17,21,-7,-12,19,16,26,75,108,104,95
0,21,21,-11,-11,21,14,21,85,127,129,112
5,29,24,-17,-10,26,6,8,90,141,152,128
9,38,28,-24,-10,33,-8,-15,88,147,170,142
11,45,34,-28,-11,39,-27,-48,79,145,183,154
10,52,42,-31,-15,47,-48,-88,63,136,191,162
9,58,48,-33,-19,53,-69,-129,43,123,195,167
7,60,52,-33,-22,56,-89,-165,22,104,189,163
2,58,56,-29,-27,57,-104,-197,0,76,166,146
-7,52,59,-22,-33,55,-116,-224,-26,39,124,116
-16,43,59,-13,-38,51,-125,-246,-55,-5,71,78
-24,31,55,-4,-41,43,-131,-260,-84,-50,14,36
-29,17,46,5,-38,31,-133,-264,-110,-90,-36,-2
-31,1,32,14,-32,16,-133,-262,-131,-122,-75,-32
-32,-13,19,22,-26,3,-130,-255,-148,-146,-102,-51
-32,-24,8,28,-20,-8,-125,-244,-159,-162,-117,-63
-32,-32,0,32,-16,-16,-119,-230,-164,-168,-124,-69
-31,-38,-7,35,-12,-22,-113,-213,-163,-167,-125,-71
-29,-39,-10,34,-10,-24,-107,-196,-157,-160,-122,-71
-27,-37,-10,32,-9,-24,-100,-178,-148,-150,-115,-68
-25,-35,-10,30,-7,-23,-93,-160,-136,-137,-106,-62
-21,-32,-10,26,-5,-22,-86,-142,-122,-122,-95,-55
-17,-27,-9,22,-4,-19,-78,-124,-107,-106,-84,-46
-15,-23,-8,19,-3,-16,-68,-107,-91,-91,-72,-37
-13,-20,-6,16,-2,-13,-56,-89,-77,-76,-62,-29
-11,-16,-4,13,-2,-10,-44,-73,-64,-64,-52,-23
-11,-13,-3,12,-3,-8,-33,-59,-53,-52,-44,-17
-11,-12,-2,11,-4,-7,-23,-46,-42,-42,-37,-13
-11,-12,-1,11,-5,-6,-15,-34,-33,-32,-31,-9
-11,-12,0,11,-5,-6,-8,-25,-26,-25,-27,-7
-11,-12,0,11,-6,-6,-3,-19,-20,-19,-24,-6
-11,-11,1,10,-6,-5,1,-13,-16,-15,-20,-3
-10,-10,1,9,-5,-4,5,-8,-11,-10,-16,1
-9,-7,2,8,-5,-2,8,-4,-8,-7,-13,4
-8,-5,4,7,-6,-1,11,0,-6,-5,-11,5
-8,-4,4,6,-6,0,13,2,-5,-4,-11,5
-8,-3,4,6,-6,0,14,4,-4,-3,-11,5
-7,-1,5,5,-6,2,14,6,-3,-2,-12,4
-7,-1,6,4,-6,2,15,7,-2,-1,-11,4
-7,-3,5,5,-6,1,15,8,0,1,-9,4
-8,-5,3,6,-5,-1,16,9,2,3,-7,6
-8,-5,3,6,-5,-1,17,10,3,4,-6,8
-8,-5,3,6,-5,-1,17,12,3,4,-5,11
-8,-5,3,6,-5,-1,18,13,3,4,-4,11
-8,-4,3,6,-5,-1,18,14,2,5,-4,10
-8,-4,3,6,-5,-1,19,16,3,6,-3,7
-7,-4,3,5,-5,0,19,16,4,7,-3,5
-7,-2,4,4,-5,1,19,16,5,8,-3,5
-7,-1,6,4,-6,2,18,16,5,8,-3,5
-9,-2,6,5,-7,2,17,15,5,8,-3,6
-9,-3,6,6,-8,2,17,16,5,8,-2,6
-8,-3,5,5,-7,1,18,17,6,9,-1,7
-7,-3,4,5,-6,0,19,19,7,10,0,7
-8,-4,3,6,-6,-1,19,19,8,11,0,6
-8,-4,3,6,-6,0,19,19,8,11,0,6
-7,-2,4,4,-6,1,18,20,8,12,0,7
-5,-1,4,3,-5,2,18,20,9,13,0,7
-4,0,5,2,-4,2,18,20,9,13,0,7
-3,0,5,1,-4,3,18,21,9,13,0,6
-3,0,4,1,-3,2,19,22,10,14,0,6
-3,0,3,1,-3,1,19,24,11,15,2,7
-3,0,4,1,-3,2,19,25,12,16,2,7
-3,1,4,1,-3,2,19,25,12,16,3,8
-3,0,4,1,-3,2,19,25,13,17,3,8
-3,0,4,1,-3,2,19,26,13,18,3,8
-2,0,4,1,-3,2,20,27,14,19,4,9
-2,0,4,1,-3,2,20,27,15,20,7,10
-2,-1,3,2,-3,1,20,28,15,21,8,10
-2,0,2,1,-2,1,20,29,16,22,9,10
-1,1,3,0,-2,2,20,30,16,23,9,10
-1,3,4,-1,-2,3,21,31,17,24,10,11
0,4,4,-2,-2,4,21,32,18,25,10,11
0,6,5,-3,-2,5,21,33,19,26,10,11
1,7,6,-3,-3,6,20,33,19,27,11,11
1,6,5,-3,-2,6,20,34,20,28,11,12
1,5,5,-3,-2,5,20,35,20,29,12,12
0,5,5,-3,-3,5,20,37,21,30,12,11
0,6,5,-4,-3,5,21,38,22,31,13,11
1,7,5,-5,-2,6,21,40,23,33,15,12
1,7,5,-4,-2,6,22,42,25,34,16,13
1,5,4,-3,-2,4,22,44,27,36,17,14
2,5,3,-3,-2,4,23,46,28,38,18,14
3,7,4,-5,-2,5,23,47,29,39,19,15
4,9,5,-6,-1,6,23,49,29,40,20,15
4,9,5,-7,-1,7,23,51,30,41,21,15
5,10,4,-7,0,7,23,53,31,42,22,16
5,10,4,-8,0,7,24,55,32,44,23,17
6,11,4,-8,0,7,24,58,34,46,25,18
6,10,3,-8,1,6,25,61,36,49,27,19
6,8,2,-7,2,5,25,64,38,51,28,20
7,9,3,-7,2,6,25,66,40,53,29,20
8,11,5,-10,2,8,25,68,40,53,30,20
8,13,5,-11,2,9,25,70,40,54,30,20
9,14,5,-12,2,10,25,72,41,55,31,22
9,16,6,-13,2,11,25,75,42,56,32,23
10,18,7,-14,2,12,25,77,43,57,33,24
12,19,7,-15,2,13,25,80,44,59,35,25
13,19,7,-16,3,13,26,82,46,62,37,26
14,19,6,-16,3,13,26,84,48,64,38,26
14,20,6,-17,4,13,26,86,50,66,40,26
14,20,6,-17,4,13,26,89,51,67,41,27
15,21,6,-18,4,14,26,91,52,68,41,27
15,22,6,-19,4,14,26,92,52,69,41,27
16,22,6,-20,5,14,26,93,53,69,41,27
17,23,5,-20,5,14,26,95,54,70,42,30
18,25,6,-22,5,15,26,96,55,71,44,32
19,27,8,-23,5,18,25,96,55,72,45,32
19,28,9,-24,5,19,24,96,55,72,46,33
20,28,8,-24,5,18,24,96,55,72,47,35
20,28,8,-24,6,18,24,96,55,72,48,36
20,29,8,-25,5,19,24,96,55,72,48,35
20,30,9,-25,5,19,24,96,56,72,48,32
20,30,9,-25,5,19,24,96,56,72,48,28
20,30,9,-25,5,19,24,96,57,72,49,25
20,29,9,-25,5,19,24,96,57,73,49,25
20,29,9,-24,5,19,24,95,57,72,48,27
20,28,8,-24,5,18,23,93,56,71,47,28
20,28,8,-24,5,18,23,92,55,70,46,29
20,28,8,-24,5,18,22,90,54,68,45,29
19,27,7,-23,5,17,22,88,53,67,45,28
18,25,7,-22,5,16,22,85,52,65,44,28
17,24,7,-20,5,15,21,82,50,63,43,28
16,23,7,-19,4,15,19,78,48,60,42,26
15,23,8,-19,3,15,18,74,46,58,39,25
14,20,7,-17,3,14,18,71,44,56,37,23
14,18,4,-16,4,11,18,68,42,54,35,22
14,17,3,-15,5,10,18,65,41,51,34,21
12,16,4,-14,4,10,17,61,39,48,31,19
9,14,4,-12,2,9,16,56,36,44,28,17
8,12,4,-10,2,8,15,52,34,41,25,14
8,12,5,-10,1,8,15,48,31,38,23,11
8,13,5,-10,1,9,15,45,30,36,21,8
8,13,5,-11,1,9,15,42,29,34,19,6
7,11,5,-9,0,8,14,38,27,31,16,4
4,8,4,-6,0,6,14,35,26,29,14,2
1,4,3,-3,-1,3,14,32,24,26,11,0
0,3,3,-2,-1,3,13,28,21,23,9,-1
0,4,3,-2,-1,3,13,25,19,20,6,-3
1,4,3,-2,-1,3,12,22,17,18,5,-4
0,2,1,-1,-1,1,12,19,16,17,4,-5
1,1,0,-1,0,1,11,17,15,15,4,-5
2,1,0,-1,0,1,11,15,15,14,3,-6
1,1,0,-1,0,1,11,12,14,12,1,-8
0,2,1,-1,0,1,10,10,12,10,-1,-11
0,2,1,-1,-1,2,9,8,11,8,-3,-14
-1,0,1,0,-1,0,9,7,10,7,-4,-15
-1,-2,-1,2,0,-1,10,7,10,7,-4,-15
-1,-4,-2,3,0,-3,9,6,9,6,-5,-15
-2,-5,-2,4,-1,-3,8,4,8,5,-5,-16
-4,-6,-1,5,-2,-3,8,3,8,4,-6,-16
-4,-6,-1,5,-2,-3,7,1,7,4,-6,-17
-4,-6,-1,5,-2,-4,7,0,7,3,-7,-17
-5,-6,0,5,-3,-4,7,0,6,3,-7,-19
-6,-6,0,6,-3,-3,6,-1,6,2,-8,-20
-6,-6,0,6,-3,-3,6,-2,5,1,-8,-20
-6,-6,0,5,-3,-3,6,-2,4,0,-9,-21
-5,-6,-1,5,-2,-4,6,-3,4,0,-9,-21
-5,-7,-1,6,-2,-4,6,-3,4,0,-10,-22
-6,-7,-1,6,-2,-4,6,-4,4,0,-10,-22
-6,-6,0,6,-3,-3,6,-4,3,0,-10,-22
-5,-5,0,6,-3,-3,6,-5,3,0,-11,-22
-5,-7,-1,6,-2,-5,7,-5,4,0,-10,-21
-5,-9,-4,7,-1,-7,7,-5,4,0,-10,-21
-5,-9,-5,7,0,-7,7,-5,4,-1,-11,-22
-5,-9,-5,7,-1,-7,7,-5,4,-1,-12,-23
-6,-10,-5,8,-1,-7,6,-5,4,-1,-12,-24
-6,-11,-4,9,-1,-8,6,-6,3,-2,-13,-24
-6,-9,-2,8,-2,-6,5,-7,3,-2,-13,-25
-6,-6,0,6,-2,-4,5,-8,2,-3,-12,-25
-6,-4,1,6,-3,-3,5,-9,2,-3,-12,-25
-6,-5,1,6,-3,-3,5,-9,2,-4,-13,-26
-7,-6,0,7,-3,-3,5,-9,2,-4,-13,-26
-6,-7,0,7,-3,-4,5,-9,2,-4,-12,-23
-7,-8,0,8,-4,-4,4,-9,2,-4,-12,-21
-10,-11,0,10,-5,-5,4,-9,2,-4,-12,-22
-11,-12,0,11,-5,-7,4,-9,2,-3,-13,-25
-11,-13,-1,12,-5,-7,5,-8,3,-3,-13,-28
-11,-13,-2,12,-4,-8,5,-8,3,-2,-12,-29
-10,-13,-3,12,-3,-8,6,-7,4,-2,-11,-28
-8,-11,-2,10,-3,-7,6,-7,5,-1,-10,-27
-7,-9,-1,8,-3,-5,7,-7,6,-1,-10,-26
-7,-7,0,7,-3,-4,7,-7,6,-1,-11,-27
-7,-7,0,7,-3,-4,7,-6,6,-1,-12,-27
-6,-9,-2,7,-2,-5,8,-6,7,-1,-11,-26
-5,-9,-3,7,-1,-6,9,-5,8,0,-10,-24
-4,-8,-3,7,-1,-5,9,-4,8,0,-11,-24
-4,-6,-1,6,-2,-3,8,-5,8,-1,-11,-23
-5,-5,0,6,-3,-2,7,-5,7,-2,-11,-23
-5,-4,0,6,-3,-2,7,-5,7,-1,-10,-23
-5,-4,0,5,-3,-1,7,-5,8,-1,-10,-23
-4,-4,0,4,-3,-1,7,-4,8,0,-9,-25
-5,-4,0,5,-3,-2,8,-4,9,1,-8,-25
-6,-6,-1,6,-3,-4,8,-3,9,1,-8,-25
-6,-8,-1,8,-2,-5,8,-3,9,1,-9,-24
-6,-8,-1,7,-2,-5,8,-2,9,1,-9,-24
-5,-7,-1,7,-2,-4,8,-2,9,0,-8,-23
-5,-7,-1,7,-3,-4,8,-3,9,0,-7,-23
-5,-6,-1,6,-3,-3,8,-3,10,1,-7,-24
-5,-6,-1,6,-3,-4,8,-2,10,1,-7,-25
-5,-6,-1,6,-3,-4,8,-2,10,1,-8,-26
-5,-5,0,6,-3,-3,8,-2,10,1,-8,-26
-5,-4,1,5,-4,-1,8,-2,11,1,-8,-26
-5,-4,1,5,-3,-2,8,-2,11,1,-7,-25
-5,-7,-1,6,-2,-4,8,-1,11,2,-6,-24
-6,-9,-2,8,-2,-6,8,-1,12,2,-5,-23
-7,-11,-3,9,-2,-7,8,-1,12,2,-5,-22
-7,-10,-3,8,-2,-7,8,-1,11,1,-6,-22
-6,-8,-1,7,-2,-5,8,-1,11,1,-6,-21
-6,-6,0,6,-3,-3,8,-1,10,1,-7,-21
-6,-5,0,6,-3,-3,8,0,10,1,-7,-21
-5,-5,0,6,-2,-3,9,0,11,1,-7,-20
-5,-6,-1,6,-2,-4,9,0,11,1,-7,-20
-5,-6,-2,6,-2,-4,10,0,12,1,-7,-20
-5,-6,-1,6,-2,-4,9,0,12,1,-7,-22
-6,-7,0,6,-3,-4,8,0,11,1,-7,-24
-7,-7,0,7,-4,-4,8,0,10,0,-7,-25
-8,-8,0,7,-4,-4,8,0,10,0,-7,-24
-8,-8,-1,8,-3,-5,8,0,10,0,-8,-23
-8,-7,0,8,-4,-4,7,0,9,0,-9,-23
-8,-6,2,7,-4,-2,7,-1,8,-2,-11,-26
-8,-5,2,6,-5,-1,7,-2,8,-2,-12,-28
-8,-6,1,7,-4,-3,7,-2,9,-1,-12,-28
-8,-8,-1,8,-3,-5,8,-1,10,-1,-10,-26
-8,-9,-2,8,-3,-6,8,-1,9,-1,-11,-26
-8,-9,-1,9,-3,-5,7,-2,8,-2,-13,-27
-8,-9,-1,9,-3,-5,7,-2,8,-2,-11,-25
-7,-8,-1,8,-2,-5,8,-2,9,-1,-7,-22
-6,-6,0,6,-2,-4,9,-1,10,0,-5,-20
-6,-4,2,5,-4,-1,8,-2,9,-1,-6,-20
-6,-1,5,4,-5,1,7,-3,8,-3,-8,-21
-5,0,5,3,-5,2,7,-4,8,-3,-9,-22
-4,-2,2,4,-3,0,7,-3,8,-3,-9,-20
-4,-4,0,4,-2,-2,8,-3,9,-3,-8,-20
-4,-4,0,4,-2,-2,8,-4,9,-3,-8,-23
-5,-5,0,5,-2,-3,8,-4,10,-2,-8,-27
-7,-7,0,7,-3,-4,8,-4,10,-2,-8,-29
-8,-9,0,9,-3,-5,8,-4,10,-2,-7,-29
-8,-10,-1,9,-3,-6,9,-3,11,-1,-7,-29
-7,-10,-3,9,-2,-7,10,-3,12,-1,-7,-28
-7,-9,-3,8,-2,-6,10,-3,12,-1,-7,-27
-7,-7,-1,7,-3,-4,10,-3,13,-1,-7,-27
-6,-7,-1,6,-3,-4,10,-3,13,-1,-7,-26
-6,-6,0,5,-3,-3,10,-3,12,-1,-7,-25
-6,-6,0,5,-3,-3,10,-3,11,-2,-8,-25
-7,-6,0,6,-3,-3,10,-4,10,-2,-8,-25
-7,-8,0,8,-3,-5,10,-4,10,-3,-8,-25
-8,-9,-1,9,-3,-5,9,-4,10,-3,-8,-25
-8,-9,0,9,-4,-5,9,-4,10,-4,-9,-26
-8,-8,0,8,-4,-5,9,-4,11,-4,-9,-27
-7,-8,0,8,-3,-4,9,-4,11,-4,-9,-28
-7,-8,0,8,-3,-4,9,-4,12,-3,-9,-28
-7,-9,0,8,-3,-5,10,-3,12,-3,-9,-28
-7,-10,-1,9,-2,-6,10,-3,12,-3,-9,-27
-6,-8,-1,7,-2,-5,10,-3,12,-3,-9,-26
-5,-5,0,5,-2,-3,10,-3,12,-3,-9,-25
-4,-3,0,4,-2,-2,10,-2,12,-3,-9,-24
-4,-3,0,3,-2,-1,10,-2,12,-3,-9,-24
-5,-4,0,4,-2,-2,11,-2,12,-3,-9,-25
-5,-4,0,5,-2,-2,11,-1,13,-3,-8,-28
-5,-4,1,5,-3,-1,12,-1,14,-2,-7,-29
-5,-3,3,4,-3,0,12,0,15,-1,-7,-29
-4,-1,4,3,-3,1,12,0,15,0,-6,-28
-3,1,4,1,-3,2,12,0,16,0,-5,-26
-2,3,5,0,-3,3,12,1,16,0,-5,-24
-2,3,4,0,-3,3,13,1,17,1,-5,-24
-2,3,4,-1,-3,3,14,2,18,1,-5,-23
-1,3,5,-1,-3,4,15,3,19,2,-4,-23
-1,5,7,-2,-4,6,16,3,19,2,-4,-23
-1,6,9,-2,-4,8,16,3,20,2,-5,-23
-1,6,8,-2,-4,7,17,3,21,3,-4,-23
-1,6,7,-2,-3,7,17,4,22,4,-3,-23
-1,8,9,-3,-4,9,16,3,23,4,-2,-23
0,12,11,-6,-6,12,14,3,23,4,-1,-22
0,14,13,-7,-6,13,12,2,23,4,0,-20
1,14,13,-7,-6,13,11,2,23,5,0,-18
1,14,13,-8,-5,14,9,1,23,4,0,-17
2,15,13,-9,-4,14,9,1,22,4,0,-17
3,13,11,-8,-3,12,8,0,22,3,0,-18
2,12,10,-7,-3,11,8,0,21,2,0,-18
2,12,10,-7,-3,11,7,-1,20,1,-1,-19
2,13,11,-8,-4,12,5,-2,18,0,-3,-20
2,13,9,-8,-3,11,5,-2,17,0,-3,-22
3,11,8,-7,-2,9,5,-2,17,0,-4,-23
3,10,6,-7,-1,8,5,-2,17,0,-4,-23
3,8,5,-6,0,7,6,-2,17,0,-4,-22
3,7,4,-5,0,5,6,-2,16,-1,-4,-21
2,6,3,-4,0,4,6,-2,16,-2,-4,-21
2,4,2,-3,0,3,6,-3,15,-2,-4,-22
1,3,2,-2,0,2,6,-3,15,-2,-4,-24
0,3,3,-1,-1,3,7,-3,15,-2,-4,-25
-2,1,3,0,-3,2,7,-3,15,-3,-4,-25
-5,-2,2,3,-3,0,8,-3,15,-3,-5,-24
-7,-6,1,6,-3,-2,8,-3,14,-4,-6,-25
-7,-7,1,8,-3,-3,9,-4,14,-4,-8,-28
-7,-7,0,8,-3,-4,9,-3,14,-4,-8,-29
-6,-7,0,7,-2,-4,10,-3,14,-4,-9,-30
-6,-6,0,7,-2,-4,10,-4,13,-5,-10,-30
-6,-7,-1,7,-2,-4,10,-4,12,-7,-10,-31
-7,-8,-1,7,-2,-4,10,-5,12,-8,-11,-31
-7,-8,-1,7,-3,-4,9,-5,11,-9,-12,-31
-7,-8,0,7,-3,-4,9,-6,10,-9,-13,-31
-6,-7,0,7,-3,-4,9,-6,10,-9,-14,-32
-6,-6,0,7,-3,-3,9,-6,10,-10,-14,-32
-7,-6,1,7,-4,-3,9,-6,10,-10,-14,-32
-7,-6,1,7,-4,-3,9,-7,10,-10,-14,-33
-7,-7,0,7,-3,-4,9,-7,10,-10,-14,-33
-7,-7,-1,7,-2,-5,10,-7,11,-10,-14,-34
-7,-9,-1,8,-2,-5,10,-7,11,-10,-14,-34
-8,-11,-2,9,-2,-7,10,-6,11,-10,-14,-34
-9,-12,-3,11,-2,-8,10,-6,11,-9,-14,-34
-9,-13,-3,11,-2,-8,10,-6,11,-9,-14,-34
-9,-12,-3,11,-3,-8,9,-6,11,-10,-14,-35
-9,-10,-2,10,-3,-7,9,-6,12,-10,-14,-35
-7,-9,-2,8,-2,-6,10,-5,12,-9,-14,-34
-7,-9,-2,8,-2,-6,11,-4,13,-10,-14,-33
-7,-10,-2,8,-2,-6,10,-4,12,-10,-14,-32
-7,-9,-1,8,-3,-5,10,-4,12,-11,-13,-31
-7,-7,0,7,-3,-3,9,-4,11,-11,-13,-32
-6,-7,0,7,-3,-3,9,-4,12,-11,-13,-33
-7,-9,-1,8,-2,-5,9,-3,12,-10,-12,-34
-8,-10,-2,9,-3,-6,9,-2,13,-10,-13,-35
-8,-9,-1,9,-3,-5,9,-2,13,-10,-13,-36
-8,-8,0,8,-3,-4,9,0,14,-9,-13,-36
-8,-8,-1,8,-3,-5,10,2,16,-6,-11,-35
-7,-8,-1,8,-3,-5,11,6,20,-2,-8,-33
-6,-7,-1,7,-2,-5,11,10,25,4,-4,-30
-5,-5,1,5,-3,-2,13,15,32,13,3,-25
-5,-2,3,4,-4,0,15,21,43,26,15,-16
-5,0,5,3,-5,2,17,24,55,41,30,-5
-5,2,7,2,-6,4,19,25,67,58,48,8
-5,6,11,0,-7,8,19,24,79,77,68,23
-3,12,14,-4,-8,13,20,24,93,97,89,38
0,18,17,-9,-8,17,19,22,106,118,112,55
4,23,19,-13,-7,21,15,16,116,138,137,71
6,28,21,-17,-7,24,6,3,121,153,160,88
9,34,25,-22,-7,29,-10,-20,118,160,180,103
12,42,30,-27,-8,35,-31,-52,107,159,195,117
12,51,37,-31,-11,43,-55,-91,90,151,206,127
12,58,45,-34,-16,51,-79,-131,69,137,212,134
11,63,52,-36,-20,57,-102,-167,45,118,207,134
7,64,57,-35,-24,60,-121,-198,19,89,185,121
1,60,60,-31,-29,60,-135,-225,-9,48,142,94
-7,50,58,-22,-33,54,-144,-247,-39,0,86,55
-15,35,51,-10,-33,43,-149,-262,-70,-49,25,11
-20,19,40,0,-30,29,-151,-267,-99,-93,-31,-30
-22,4,27,9,-24,15,-151,-265,-122,-130,-74,-63
-23,-11,12,17,-17,0,-147,-257,-139,-157,-104,-87
-24,-25,-1,24,-11,-14,-141,-244,-150,-174,-123,-104
-24,-35,-11,29,-5,-24,-133,-228,-155,-181,-131,-115
-22,-41,-19,31,-1,-30,-126,-211,-154,-180,-133,-119
-21,-44,-23,32,2,-34,-120,-193,-147,-173,-129,-117
-19,-44,-25,31,3,-35,-113,-176,-137,-162,-122,-112
-17,-43,-26,30,4,-35,-106,-158,-123,-148,-112,-104
-14,-40,-26,28,6,-33,-99,-140,-108,-132,-100,-96
-12,-35,-24,24,6,-30,-90,-122,-91,-115,-88,-88
-10,-31,-22,21,6,-27,-80,-104,-74,-98,-76,-80
-8,-26,-19,17,6,-23,-68,-86,-58,-82,-66,-73
-6,-21,-16,14,5,-18,-56,-69,-43,-69,-57,-65
-5,-17,-13,11,4,-15,-45,-55,-30,-56,-49,-57
-4,-14,-10,9,3,-12,-35,-42,-19,-45,-40,-49
-3,-10,-8,7,3,-9,-26,-31,-9,-35,-32,-43
-2,-8,-6,6,2,-8,-19,-22,0,-27,-26,-40
-2,-8,-6,5,2,-7,-14,-14,6,-20,-22,-38
-2,-8,-6,5,2,-7,-9,-8,11,-15,-18,-37
-2,-8,-6,5,2,-7,-6,-3,16,-10,-15,-37
-2,-7,-5,4,2,-7,-3,1,19,-7,-13,-36
-2,-7,-5,4,1,-6,-1,4,21,-5,-11,-34
-2,-6,-3,4,1,-5,0,6,22,-5,-11,-33
-2,-5,-2,4,0,-4,1,7,23,-4,-10,-33
-2,-6,-4,5,1,-5,2,9,24,-2,-9,-32
-2,-9,-6,6,2,-8,4,11,26,0,-8,-30
-2,-10,-7,6,2,-9,4,12,27,1,-9,-29
-2,-8,-6,5,1,-8,4,13,27,1,-10,-28
-2,-5,-3,3,0,-5,4,13,27,0,-10,-28
-1,-3,-1,2,0,-3,4,14,27,0,-9,-28
0,-1,-1,0,1,-1,5,15,27,1,-7,-28
2,0,-1,-1,1,0,5,16,28,2,-5,-28
2,0,-2,0,2,-2,6,16,28,3,-4,-27
1,-3,-4,0,2,-4,6,17,29,4,-3,-26
1,-4,-5,1,2,-5,7,18,30,6,-2,-25
1,-3,-4,1,2,-4,7,19,31,7,-1,-26
1,-3,-5,0,3,-4,7,20,32,8,-1,-26
1,-3,-5,0,3,-4,8,21,33,9,0,-25
1,-1,-3,0,2,-2,8,21,34,9,0,-24
0,-2,-3,1,2,-2,8,21,34,10,0,-24
0,-5,-5,2,2,-4,8,22,34,11,0,-24
1,-5,-5,2,3,-5,8,23,35,11,0,-24
1,-3,-3,1,2,-3,8,23,35,11,0,-24
0,-2,-2,1,1,-2,8,23,35,12,0,-23
0,-1,-1,0,1,-1,8,23,36,13,1,-22
1,0,-1,-1,2,0,9,25,37,14,2,-21
2,1,-1,-2,2,0,9,26,37,14,2,-21
2,1,0,-2,2,0,9,26,37,15,3,-21
2,0,0,-1,2,0,9,27,37,15,3,-21
1,-1,-2,0,1,-1,9,27,38,15,3,-21
1,-2,-2,0,1,-2,9,28,38,16,3,-21
2,-1,-2,-1,2,-1,9,29,39,17,4,-21
3,1,-1,-2,2,0,9,30,40,18,5,-21
3,0,-2,-2,3,-1,9,31,41,19,6,-19
3,-1,-4,-1,4,-2,10,32,42,20,7,-17
3,-1,-3,-1,4,-2,10,32,42,21,7,-15
4,1,-2,-2,3,0,9,33,42,21,8,-15
4,1,-1,-3,3,0,9,34,42,22,9,-14
4,1,-1,-3,3,0,9,35,43,23,9,-15
4,2,-1,-3,3,0,9,36,43,24,9,-16
3,4,0,-3,2,1,8,36,43,24,9,-16
3,5,1,-4,1,2,8,37,44,25,10,-16
3,5,1,-4,1,2,8,39,45,27,11,-15
3,5,2,-4,0,3,9,40,46,28,11,-14
3,5,3,-4,0,4,9,41,46,28,12,-14
3,5,2,-4,0,4,9,43,47,30,13,-13
5,6,2,-5,1,4,10,45,49,31,14,-11
7,9,2,-7,2,5,11,47,50,33,14,-11
8,10,3,-9,2,6,11,49,51,34,15,-10
8,11,3,-9,2,6,11,51,52,35,16,-10
7,10,2,-9,2,6,11,53,53,37,18,-9
7,9,2,-9,2,5,12,56,55,39,20,-8
8,9,2,-9,3,5,12,58,56,41,22,-7
8,10,2,-9,3,6,12,60,58,42,23,-6
9,11,2,-10,3,6,12,62,59,44,23,-4
10,13,3,-11,3,7,12,64,60,45,25,-3
11,16,5,-13,3,9,12,66,61,47,27,-2
11,17,6,-14,3,11,13,68,62,49,28,-1
12,17,6,-14,3,11,13,71,63,51,29,-1
13,17,5,-15,4,11,14,73,65,53,30,0
14,17,4,-16,5,10,15,76,67,55,32,0
15,17,3,-16,5,10,16,79,68,57,33,2
15,18,4,-16,5,11,16,81,69,59,33,3
15,18,4,-16,5,11,17,83,71,60,35,4
16,18,3,-16,6,10,18,85,72,62,38,6
17,19,3,-17,6,10,18,87,73,64,40,8
16,20,4,-17,6,11,17,89,74,65,40,9
16,20,4,-18,6,12,17,90,74,66,41,10
16,20,4,-18,6,12,17,92,75,68,43,11
17,21,5,-19,6,13,17,94,75,69,44,12
17,23,6,-20,5,15,17,94,75,69,45,12
17,23,7,-20,5,15,17,95,75,70,46,12
18,23,6,-20,6,14,18,96,76,71,47,13
19,23,4,-21,7,13,18,98,77,72,48,15
20,24,4,-22,8,14,19,99,78,73,49,17
21,26,5,-23,8,15,19,100,78,74,50,18
21,28,7,-24,7,17,18,100,77,74,50,18
21,28,8,-24,6,18,18,99,77,73,50,17
21,28,8,-24,6,18,17,99,76,73,50,16
21,29,8,-25,7,18,17,99,76,72,49,16
22,30,8,-26,7,19,17,98,75,71,48,15
22,31,8,-26,7,19,17,97,73,70,47,16
23,31,8,-26,7,19,16,96,72,69,46,17
23,29,7,-26,7,18,16,95,70,67,45,18
22,27,5,-24,8,16,16,93,69,66,45,18
22,25,5,-23,8,15,15,91,67,64,44,16
21,27,7,-24,7,17,14,88,65,62,42,13
20,28,9,-24,6,18,12,84,62,59,40,11
19,28,9,-23,5,18,12,81,60,57,39,10
19,27,8,-22,5,17,11,78,58,55,38,10
19,27,9,-23,5,18,10,74,56,53,36,10
18,28,9,-23,4,18,10,71,54,50,35,9
17,27,10,-22,3,18,9,67,51,47,33,8
16,25,9,-21,3,17,8,63,48,44,31,7
16,24,8,-20,4,16,7,59,46,41,29,6
16,22,6,-19,5,14,7,55,44,39,26,5
15,19,5,-16,5,11,6,51,42,36,24,3
13,17,4,-14,5,10,6,47,40,33,21,1
11,15,4,-13,4,9,5,43,37,30,19,0
10,13,4,-12,3,9,5,39,34,26,16,-2
9,13,3,-11,3,8,4,36,31,23,14,-4
9,11,3,-11,3,7,4,33,29,20,12,-5
8,10,2,-9,3,6,3,30,27,18,10,-7
7,9,2,-8,2,5,2,26,25,15,8,-9
6,9,3,-7,1,6,1,22,22,13,5,-12
5,9,4,-7,0,6,0,19,20,11,3,-13
4,8,4,-6,0,5,0,16,18,9,1,-15
3,6,3,-4,0,4,0,13,16,6,0,-16
2,6,4,-4,-1,5,-1,10,13,3,-2,-17
1,7,5,-4,-1,6,-1,8,11,1,-3,-18
1,6,5,-3,-1,5,-1,7,10,0,-4,-19
0,3,3,-1,-1,2,-1,5,9,-1,-6,-21
-1,0,1,0,-1,0,-1,4,8,-1,-7,-22
-1,-1,0,1,-1,-1,-1,2,7,-2,-8,-23
-1,-2,0,1,-1,-1,-1,1,6,-3,-9,-22
-2,-2,0,1,-1,-1,-1,0,5,-4,-9,-22
-2,-2,0,2,-1,-1,-1,-1,3,-5,-9,-21
-2,-3,0,3,-1,-2,-1,-2,2,-6,-10,-22
-3,-4,-1,3,-1,-2,-1,-3,1,-7,-10,-22
-3,-5,-1,4,-1,-3,-1,-4,1,-7,-10,-22
-3,-6,-1,4,-1,-3,-1,-4,0,-8,-10,-22
-4,-6,-1,5,-2,-3,-2,-5,0,-8,-11,-24
-5,-7,0,6,-2,-4,-2,-6,-1,-9,-12,-25
-7,-8,-1,8,-2,-5,-2,-6,-2,-9,-12,-26
-6,-8,-1,7,-2,-5,-2,-7,-2,-9,-13,-27
-5,-6,-1,6,-2,-4,-2,-7,-3,-9,-13,-27
-5,-5,0,5,-2,-3,-2,-7,-3,-9,-13,-27
-4,-5,-1,5,-2,-3,-2,-7,-3,-9,-13,-26
-5,-6,-2,6,-2,-4,-2,-7,-3,-9,-13,-24
-5,-8,-3,7,-1,-6,-1,-7,-3,-9,-12,-23
-6,-9,-3,7,-1,-6,-1,-7,-4,-9,-13,-23
-5,-6,-1,6,-2,-4,-1,-7,-5,-10,-14,-24
-4,-4,0,4,-2,-2,-1,-7,-6,-11,-15,-24
-4,-3,0,4,-2,-1,-1,-7,-6,-11,-15,-24
-4,-2,0,3,-2,-1,-1,-8,-7,-12,-16,-24
-5,-3,1,4,-3,-1,-2,-9,-8,-13,-17,-25
-5,-3,1,4,-3,-1,-2,-9,-9,-14,-18,-27
-5,-4,1,5,-3,-1,-3,-9,-9,-14,-18,-28
-6,-5,0,6,-3,-2,-3,-9,-9,-13,-17,-28
-6,-8,-1,7,-2,-4,-3,-9,-8,-12,-16,-26
-6,-9,-2,8,-2,-6,-2,-9,-8,-12,-14,-24
-6,-8,-1,7,-2,-5,-2,-9,-8,-11,-14,-23
-6,-6,0,6,-2,-3,-1,-9,-8,-11,-14,-23
-6,-6,-1,6,-2,-4,-1,-9,-8,-11,-14,-22
-6,-7,-1,7,-2,-4,-1,-9,-8,-12,-15,-22
-7,-7,0,7,-3,-4,-2,-9,-8,-12,-15,-23
-6,-6,0,6,-3,-3,-2,-9,-8,-12,-16,-23
-5,-5,0,5,-3,-3,-2,-9,-8,-11,-15,-23
-5,-5,0,5,-2,-3,-2,-8,-8,-11,-14,-22
-6,-7,0,7,-2,-4,-1,-8,-8,-11,-14,-22
-7,-9,-1,8,-2,-5,-1,-8,-8,-11,-13,-21
-7,-9,-2,9,-2,-6,0,-7,-7,-10,-13,-20
-6,-7,-1,7,-2,-4,0,-7,-7,-10,-12,-19
-6,-4,0,5,-3,-2,-1,-7,-7,-10,-13,-19
-6,-3,1,5,-3,-1,-1,-7,-7,-10,-14,-20
-6,-3,2,5,-4,-1,-1,-7,-8,-11,-14,-22
-7,-4,2,6,-4,-1,-1,-7,-9,-11,-15,-23
-8,-6,1,7,-4,-3,-1,-7,-8,-11,-15,-23
-7,-7,0,7,-4,-3,0,-6,-8,-10,-15,-22
-7,-7,0,7,-4,-3,0,-6,-7,-10,-14,-21
-6,-5,0,5,-3,-3,0,-6,-7,-10,-13,-19
-5,-4,0,4,-3,-2,0,-5,-6,-9,-12,-17
-4,-4,0,4,-3,-2,0,-5,-5,-8,-11,-16
-4,-2,1,3,-3,-1,0,-5,-5,-8,-11,-16
-4,-2,2,3,-3,0,0,-5,-5,-8,-12,-17
-4,-3,1,3,-3,-1,0,-5,-5,-8,-12,-18
-4,-4,1,4,-3,-1,0,-5,-5,-8,-12,-18
-5,-4,1,5,-3,-2,0,-5,-5,-8,-12,-18
-7,-6,0,6,-4,-3,0,-5,-6,-8,-12,-18
-8,-7,0,7,-4,-4,0,-5,-6,-9,-12,-17
-8,-7,0,7,-4,-3,-1,-5,-6,-9,-12,-16
-7,-6,1,7,-4,-2,-1,-4,-5,-8,-12,-16
-7,-5,1,6,-4,-2,-1,-4,-5,-8,-11,-16
-6,-5,1,6,-4,-1,-1,-3,-5,-8,-11,-17
-6,-5,1,6,-4,-1,0,-3,-5,-7,-11,-17
-6,-5,1,6,-4,-1,0,-3,-5,-7,-11,-17
-6,-5,1,6,-4,-1,0,-3,-5,-7,-11,-17
-7,-4,2,6,-4,-1,0,-4,-5,-8,-12,-17
-7,-3,3,5,-5,0,0,-4,-5,-8,-12,-17
-6,-2,3,4,-5,0,0,-4,-5,-8,-12,-17
-5,-2,3,4,-4,0,0,-4,-4,-8,-12,-16
-5,-2,3,4,-4,0,0,-3,-4,-7,-11,-15
-5,-3,2,4,-4,0,0,-3,-4,-7,-11,-14
-5,-4,2,5,-3,-1,0,-3,-4,-7,-10,-14
-5,-4,1,5,-2,-2,0,-3,-4,-7,-10,-13
-5,-5,0,5,-2,-2,1,-3,-4,-7,-9,-13
-5,-5,0,5,-2,-2,1,-3,-4,-7,-10,-13
-6,-4,1,5,-3,-1,0,-3,-5,-7,-10,-14
-6,-3,2,4,-4,0,0,-3,-5,-7,-11,-14
-6,-4,2,4,-4,-1,0,-3,-5,-7,-11,-14
-6,-5,1,5,-4,-2,0,-4,-5,-7,-11,-14
-6,-5,0,6,-4,-2,0,-4,-5,-8,-12,-14
-6,-4,1,5,-4,-1,0,-5,-5,-8,-12,-14
-5,-4,1,5,-3,-1,1,-5,-5,-8,-12,-14
-5,-4,0,4,-2,-2,1,-5,-5,-7,-11,-12
-5,-4,0,4,-2,-2,1,-5,-5,-8,-11,-11
-5,-5,0,5,-2,-2,1,-5,-6,-8,-11,-11
-6,-6,-1,6,-2,-3,1,-5,-6,-8,-12,-12
-6,-7,-1,7,-2,-4,1,-5,-6,-8,-12,-13
-6,-7,-1,7,-3,-3,0,-6,-6,-9,-13,-15
-7,-7,0,7,-4,-3,0,-7,-7,-10,-14,-16
-8,-7,0,7,-4,-3,0,-7,-7,-10,-15,-16
-8,-7,0,7,-4,-4,1,-7,-7,-10,-15,-15
-7,-7,-1,7,-2,-5,1,-7,-7,-10,-14,-14
-6,-7,-2,7,-2,-5,2,-6,-7,-9,-13,-15
-7,-8,-2,7,-2,-5,1,-7,-7,-9,-13,-16
-8,-9,-1,9,-3,-5,1,-8,-8,-9,-14,-16
-9,-8,0,9,-4,-4,0,-8,-8,-9,-14,-16
-8,-7,1,8,-5,-3,0,-9,-8,-10,-13,-14
-8,-5,2,6,-5,-2,0,-9,-8,-10,-13,-13
-7,-4,2,6,-4,-2,1,-9,-8,-9,-13,-12
-7,-5,1,6,-4,-2,1,-9,-8,-9,-13,-12
-6,-5,1,6,-3,-2,1,-9,-7,-9,-13,-13
-6,-5,1,6,-3,-2,1,-9,-7,-9,-13,-14
-6,-5,0,6,-2,-2,2,-8,-6,-8,-12,-13
-6,-6,0,6,-2,-3,2,-7,-6,-8,-12,-13
-6,-5,1,6,-3,-2,2,-7,-6,-8,-12,-12
-5,-3,2,4,-4,0,2,-7,-6,-8,-12,-12
-5,-1,4,3,-4,1,3,-7,-6,-8,-13,-12
-5,0,5,1,-4,2,3,-7,-6,-8,-13,-12
-4,2,6,0,-4,3,4,-7,-5,-7,-13,-12
-4,0,5,1,-4,2,5,-6,-4,-6,-12,-11
-5,-1,4,2,-4,1,6,-5,-3,-5,-11,-9
-5,-1,4,3,-4,0,6,-5,-2,-5,-10,-8
