leadI,leadII,leadIII,leadaVR,leadaVL,leadaVF,leadV1,leadV2,leadV3,leadV4,leadV5,leadV6
6,2,-3,-4,4,0,2,7,11,10,10,6
17,7,-9,-12,13,-1,5,21,33,31,31,19
29,12,-16,-21,23,-2,6,31,54,50,51,31
42,18,-23,-30,33,-2,2,36,72,68,71,44
56,25,-30,-40,44,-3,-4,37,86,84,90,57
69,29,-39,-49,54,-5,-12,31,91,93,100,65
78,28,-49,-53,64,-10,-21,20,84,89,97,64
84,21,-62,-52,73,-20,-28,5,66,74,82,54
85,12,-72,-48,79,-29,-32,-13,42,51,59,39
78,4,-73,-41,76,-34,-33,-38,14,24,33,22
60,-3,-63,-29,62,-33,-34,-71,-21,-9,1,4
36,-9,-46,-13,42,-28,-35,-109,-62,-45,-34,-16
12,-17,-30,2,22,-24,-36,-144,-102,-80,-67,-35
-7,-26,-19,16,7,-23,-38,-173,-135,-108,-93,-51
-22,-35,-13,28,-3,-24,-44,-193,-159,-128,-112,-64
-32,-42,-10,37,-10,-26,-50,-205,-175,-140,-124,-74
-39,-48,-9,44,-14,-28,-56,-208,-182,-147,-132,-81
-42,-53,-11,47,-15,-32,-61,-207,-185,-151,-136,-85
-43,-55,-12,49,-15,-33,-64,-201,-184,-152,-136,-87
-45,-55,-10,50,-17,-33,-65,-194,-179,-151,-134,-86
-47,-54,-7,51,-20,-31,-63,-185,-171,-146,-130,-84
-47,-51,-4,49,-21,-27,-60,-174,-161,-139,-123,-79
-45,-45,0,45,-22,-23,-55,-161,-149,-129,-114,-74
-41,-39,2,41,-21,-19,-49,-147,-137,-118,-106,-68
-38,-34,4,36,-21,-15,-44,-133,-124,-106,-97,-62
-36,-30,6,33,-21,-11,-38,-119,-112,-96,-89,-57
-35,-27,8,31,-22,-9,-32,-107,-102,-89,-82,-52
-34,-25,9,30,-22,-8,-26,-97,-94,-84,-77,-48
-33,-23,10,29,-22,-7,-22,-89,-88,-79,-72,-45
-32,-21,11,27,-22,-5,-18,-82,-82,-75,-68,-42
-31,-19,12,25,-22,-3,-15,-76,-76,-69,-63,-39
-30,-15,14,23,-22,0,-12,-69,-70,-63,-59,-36
-29,-11,16,20,-22,2,-9,-64,-65,-58,-54,-33
-28,-9,18,19,-22,4,-8,-60,-62,-54,-52,-31
-28,-8,20,19,-23,5,-7,-58,-60,-53,-51,-30
-29,-9,20,19,-24,5,-6,-58,-60,-54,-50,-29
-29,-9,19,19,-24,4,-6,-57,-59,-54,-50,-29
-27,-9,18,18,-22,3,-6,-57,-59,-54,-49,-29
-27,-10,17,18,-22,3,-6,-56,-58,-53,-49,-29
-27,-10,17,19,-22,3,-6,-54,-56,-51,-48,-28
-27,-9,18,18,-22,4,-6,-52,-55,-49,-47,-27
-26,-8,19,17,-22,5,-5,-50,-53,-47,-45,-26
-27,-7,20,18,-23,6,-5,-49,-52,-46,-44,-26
-27,-8,19,18,-23,5,-5,-49,-52,-46,-44,-26
-26,-8,18,18,-22,5,-5,-49,-53,-48,-44,-26
-26,-8,18,17,-22,4,-5,-49,-53,-49,-44,-26
-26,-8,17,17,-22,4,-5,-49,-53,-49,-44,-26
-26,-8,17,17,-22,4,-5,-48,-52,-47,-44,-26
-26,-8,18,17,-22,4,-5,-46,-51,-45,-43,-25
-26,-7,19,16,-22,5,-4,-45,-50,-44,-42,-25
-25,-6,20,16,-22,6,-4,-44,-49,-43,-42,-24
-25,-5,20,15,-22,7,-4,-44,-48,-43,-41,-24
-24,-5,19,15,-21,7,-4,-44,-48,-44,-41,-24
-24,-6,18,15,-21,6,-4,-44,-48,-45,-41,-24
-25,-7,18,16,-21,5,-4,-43,-48,-45,-41,-24
-26,-7,19,16,-22,6,-3,-42,-47,-44,-41,-23
-26,-6,19,16,-22,6,-3,-41,-46,-42,-40,-23
-25,-5,19,15,-22,7,-3,-40,-46,-41,-39,-22
-23,-4,19,14,-21,7,-3,-39,-45,-40,-39,-22
-23,-4,19,13,-20,7,-3,-39,-44,-40,-39,-22
-23,-5,18,14,-21,7,-3,-39,-44,-41,-39,-22
-23,-6,18,15,-21,6,-3,-39,-44,-41,-39,-22
-23,-6,17,14,-20,6,-3,-38,-44,-42,-38,-22
-25,-8,17,16,-21,4,-4,-39,-44,-42,-39,-23
-25,-9,15,17,-20,3,-5,-39,-45,-42,-39,-24
-21,-7,14,14,-18,4,-4,-38,-44,-41,-39,-23
-20,-4,16,12,-18,6,-3,-37,-42,-39,-38,-22
-22,-4,18,13,-20,7,-2,-36,-41,-38,-37,-21
-22,-3,19,13,-21,8,-1,-35,-41,-38,-36,-21
-22,-3,19,13,-21,8,-2,-34,-41,-39,-36,-21
-23,-4,18,13,-21,7,-2,-34,-41,-39,-36,-21
-23,-5,18,14,-21,6,-2,-34,-40,-39,-36,-21
-23,-5,18,14,-20,6,-2,-33,-40,-39,-36,-21
-22,-4,17,13,-20,6,-2,-32,-39,-38,-36,-21
-21,-4,17,12,-19,6,-2,-31,-39,-38,-36,-21
-21,-4,17,12,-18,6,-2,-30,-39,-38,-36,-21
-21,-4,17,12,-19,6,-2,-29,-39,-38,-36,-21
-21,-3,17,12,-19,6,-1,-28,-38,-37,-35,-21
-20,-3,17,12,-19,7,-1,-28,-37,-37,-35,-21
-20,-2,17,11,-19,7,-1,-27,-37,-37,-34,-21
-20,-2,17,11,-19,7,-1,-26,-37,-37,-34,-21
-20,-2,18,11,-19,7,-1,-26,-36,-36,-35,-21
-20,-2,18,11,-18,7,0,-25,-36,-36,-35,-21
-19,-1,17,10,-18,8,0,-24,-35,-35,-35,-21
-18,-2,17,10,-17,7,0,-23,-35,-36,-35,-21
-20,-3,17,12,-18,7,0,-23,-35,-36,-35,-22
-22,-4,18,13,-20,7,0,-22,-35,-36,-35,-22
-21,-3,18,12,-20,8,0,-21,-34,-35,-34,-21
-20,-3,17,11,-19,7,0,-20,-33,-35,-34,-21
-19,-3,17,11,-18,6,0,-19,-32,-35,-34,-21
-18,-2,16,10,-17,6,0,-18,-31,-34,-33,-21
-17,-1,16,9,-16,7,1,-17,-30,-33,-32,-20
-17,-1,16,9,-16,7,1,-16,-30,-32,-32,-20
-18,-1,16,10,-17,7,1,-14,-29,-32,-32,-20
-17,-1,16,10,-17,7,1,-13,-29,-31,-31,-20
-16,-1,15,9,-15,7,1,-12,-28,-31,-31,-20
-15,0,15,8,-15,7,2,-11,-28,-31,-31,-20
-16,0,16,9,-16,8,2,-10,-27,-31,-31,-20
-16,0,17,9,-16,9,2,-9,-26,-30,-31,-20
-16,-1,16,9,-16,8,2,-8,-26,-30,-31,-20
-17,-1,16,9,-16,8,2,-7,-25,-30,-31,-20
-18,-2,17,10,-17,8,3,-5,-25,-29,-30,-20
-19,-2,17,10,-17,8,3,-4,-24,-29,-30,-19
-18,-2,16,10,-17,8,3,-3,-23,-28,-30,-19
-18,-1,16,9,-16,8,4,-2,-23,-28,-30,-19
-18,-1,17,10,-16,8,4,-1,-22,-28,-30,-19
-18,-2,17,10,-16,7,4,0,-22,-28,-30,-20
-17,-2,16,9,-16,7,4,2,-21,-27,-30,-20
-14,0,16,7,-14,8,5,4,-19,-26,-29,-19
-13,1,15,6,-13,8,5,6,-18,-26,-29,-19
-15,0,16,7,-15,8,6,8,-17,-25,-29,-19
-17,0,17,8,-17,9,6,10,-16,-24,-28,-18
-17,0,18,8,-17,10,7,11,-15,-23,-27,-18
-16,0,17,8,-17,10,7,13,-14,-23,-26,-17
-15,0,17,7,-15,10,8,14,-13,-22,-26,-17
-14,1,17,6,-15,10,8,16,-13,-22,-26,-17
-15,2,18,6,-16,10,9,17,-12,-21,-26,-17
-15,2,18,6,-17,11,9,19,-11,-21,-26,-17
-15,3,18,6,-17,10,10,20,-11,-21,-26,-17
-14,4,18,5,-16,11,10,22,-10,-20,-26,-17
-13,5,18,4,-15,11,11,24,-9,-20,-25,-17
-13,4,18,5,-16,11,11,26,-8,-20,-26,-17
-17,2,18,8,-17,10,11,27,-8,-21,-26,-17
-18,0,19,9,-18,10,11,28,-7,-20,-26,-17
-17,2,19,7,-18,11,12,30,-5,-19,-25,-17
-15,3,19,6,-17,12,12,32,-4,-18,-25,-17
-14,4,19,5,-17,12,13,33,-4,-18,-25,-17
-13,6,19,3,-16,12,14,35,-3,-17,-25,-17
-12,8,20,2,-15,13,14,37,-2,-17,-24,-16
-12,8,20,2,-16,14,15,38,-1,-16,-24,-16
-13,7,20,3,-16,14,15,39,0,-16,-25,-17
-14,5,19,4,-16,13,15,40,0,-17,-25,-18
-13,6,19,3,-16,14,16,41,1,-16,-25,-18
-12,7,20,2,-16,14,17,43,2,-16,-25,-17
-12,7,20,2,-16,14,17,44,2,-16,-26,-18
-12,7,20,2,-16,14,18,45,1,-16,-26,-18
-12,7,20,2,-16,14,18,46,1,-17,-27,-19
-12,8,20,2,-16,15,18,47,2,-16,-27,-19
-12,8,21,1,-16,15,18,48,2,-16,-27,-19
-12,8,21,1,-16,16,18,49,2,-16,-27,-19
-12,8,21,2,-17,16,19,50,3,-16,-27,-19
-13,8,22,2,-17,16,19,50,3,-16,-27,-19
-14,7,22,3,-18,15,19,51,3,-17,-28,-20
-16,5,21,5,-18,13,19,51,2,-18,-30,-22
-15,3,19,6,-17,11,18,51,2,-19,-31,-24
-12,5,18,3,-15,12,19,51,2,-19,-31,-24
-10,6,17,2,-13,12,19,52,3,-19,-31,-23
-10,6,17,2,-13,12,20,52,3,-19,-31,-23
-10,6,17,2,-14,12,20,52,2,-19,-31,-23
-12,6,19,3,-15,13,21,52,2,-19,-31,-23
-14,5,20,4,-17,13,21,51,1,-20,-32,-24
-15,4,19,5,-17,12,20,50,0,-21,-34,-25
-13,5,18,4,-15,11,20,49,-1,-22,-35,-26
-11,5,17,3,-14,12,20,49,-1,-23,-35,-27
-12,5,17,3,-14,12,20,48,-2,-24,-36,-27
-12,4,17,3,-14,11,19,46,-3,-25,-37,-28
-12,4,16,4,-14,11,19,45,-4,-25,-38,-29
-12,3,15,4,-13,9,18,44,-5,-26,-39,-30
-12,2,13,5,-12,8,17,42,-7,-28,-40,-31
-11,1,13,5,-12,7,17,40,-8,-29,-41,-32
-12,0,12,6,-12,6,16,39,-9,-30,-41,-33
-13,-1,12,7,-12,6,16,37,-10,-31,-42,-33
-13,-2,11,8,-12,5,15,35,-11,-31,-42,-33
-12,-2,11,7,-11,5,15,33,-12,-32,-42,-33
-11,-2,10,6,-10,4,14,31,-13,-32,-42,-33
-10,-2,9,5,-8,3,13,29,-14,-33,-43,-34
-10,-2,8,5,-8,3,13,27,-15,-33,-43,-34
-10,-2,7,5,-8,3,12,25,-16,-34,-43,-34
-10,-3,7,6,-9,2,11,23,-17,-34,-43,-34
-11,-5,6,7,-9,1,10,21,-18,-35,-44,-34
-11,-5,6,8,-8,0,9,20,-19,-36,-44,-34
-11,-6,5,8,-8,0,8,18,-20,-36,-44,-34
-11,-7,4,9,-7,-1,6,15,-22,-37,-44,-35
-11,-8,3,10,-7,-2,5,12,-23,-38,-45,-35
-11,-8,3,9,-7,-2,5,10,-24,-38,-44,-34
-11,-7,4,9,-7,-1,5,8,-24,-37,-43,-33
-11,-7,4,9,-7,-1,5,7,-24,-37,-42,-33
-12,-8,4,10,-7,-1,4,5,-25,-37,-42,-32
-13,-10,3,12,-8,-3,2,3,-26,-37,-42,-32
-14,-11,3,13,-8,-3,1,1,-27,-37,-41,-31
-13,-11,3,12,-8,-3,0,0,-27,-36,-40,-31
-12,-10,3,11,-7,-3,-1,-2,-28,-36,-40,-30
-12,-10,2,11,-6,-3,-1,-4,-29,-36,-40,-30
-12,-10,3,11,-7,-3,-2,-5,-29,-36,-39,-29
-12,-9,3,11,-8,-2,-2,-6,-30,-36,-38,-28
-13,-9,3,11,-8,-3,-3,-8,-31,-36,-38,-28
-14,-11,3,12,-8,-3,-4,-9,-32,-36,-37,-27
-14,-11,3,12,-8,-3,-4,-10,-32,-36,-36,-26
-13,-10,4,12,-8,-2,-5,-11,-32,-35,-35,-25
-14,-10,5,12,-10,-2,-5,-12,-32,-34,-34,-24
-16,-10,6,13,-11,-2,-5,-13,-32,-34,-33,-23
-16,-11,5,14,-11,-2,-6,-15,-33,-34,-33,-23
-16,-11,4,14,-10,-3,-6,-16,-34,-34,-33,-23
-16,-12,4,14,-10,-3,-7,-17,-34,-34,-33,-23
-17,-12,5,15,-11,-3,-7,-18,-34,-34,-32,-22
-19,-12,6,15,-12,-3,-7,-18,-34,-33,-31,-21
-20,-12,7,16,-13,-3,-7,-18,-34,-33,-31,-21
-20,-12,8,16,-13,-2,-7,-19,-34,-33,-30,-20
-20,-13,7,16,-13,-3,-7,-19,-35,-33,-30,-19
-21,-14,7,17,-14,-3,-7,-20,-35,-33,-30,-19
-21,-14,7,17,-14,-2,-7,-20,-35,-33,-29,-18
-20,-12,7,16,-13,-1,-6,-20,-35,-32,-28,-17
-20,-12,7,16,-13,-2,-7,-20,-35,-32,-28,-17
-20,-13,7,17,-13,-3,-8,-21,-36,-33,-28,-17
-20,-14,7,17,-13,-3,-8,-22,-36,-33,-28,-17
-20,-14,7,17,-13,-3,-9,-22,-35,-33,-28,-17
-20,-14,8,17,-14,-2,-9,-21,-35,-32,-28,-17
-22,-14,8,18,-15,-2,-9,-21,-35,-32,-28,-17
-22,-14,8,18,-14,-2,-9,-21,-36,-32,-28,-17
-21,-13,8,17,-14,-2,-8,-21,-36,-32,-27,-17
-21,-13,8,17,-14,-2,-8,-20,-35,-31,-27,-16
-23,-15,9,19,-16,-2,-8,-20,-35,-31,-26,-15
-25,-16,9,20,-17,-3,-8,-20,-35,-31,-26,-15
-26,-16,10,21,-18,-3,-8,-20,-35,-31,-26,-14
-27,-17,10,22,-18,-3,-8,-20,-35,-31,-26,-14
-26,-17,9,21,-17,-3,-8,-20,-35,-31,-26,-14
-25,-17,8,20,-16,-3,-8,-20,-35,-31,-26,-14
-26,-17,8,21,-17,-3,-8,-19,-34,-31,-25,-14
-27,-17,9,22,-18,-3,-8,-19,-34,-30,-25,-13
-28,-17,10,22,-19,-3,-8,-19,-34,-30,-25,-13
-27,-18,9,22,-18,-3,-9,-19,-34,-30,-25,-14
-27,-18,9,22,-18,-4,-9,-19,-34,-30,-26,-14
-27,-19,9,23,-17,-5,-8,-18,-34,-30,-26,-14
-27,-18,9,22,-17,-4,-8,-17,-33,-30,-25,-14
-27,-18,9,23,-18,-4,-7,-17,-33,-30,-25,-14
-30,-20,9,25,-19,-5,-7,-17,-33,-30,-25,-15
-31,-21,9,26,-20,-5,-7,-16,-33,-30,-25,-15
-30,-19,9,24,-19,-4,-7,-15,-32,-29,-24,-14
-28,-18,9,22,-18,-4,-6,-15,-31,-28,-23,-13
-27,-18,9,22,-18,-4,-6,-14,-30,-28,-23,-13
-27,-19,9,23,-18,-4,-7,-14,-30,-28,-24,-14
-28,-20,9,24,-18,-5,-7,-14,-30,-28,-24,-14
-28,-19,9,23,-18,-4,-6,-13,-30,-28,-23,-14
-28,-18,9,23,-18,-3,-6,-12,-29,-27,-22,-13
-29,-18,9,23,-19,-3,-6,-12,-29,-27,-22,-13
-29,-18,10,23,-19,-4,-6,-13,-29,-27,-22,-13
-29,-18,10,23,-18,-4,-6,-13,-30,-27,-23,-13
-27,-18,9,22,-17,-4,-6,-13,-30,-27,-23,-13
-26,-18,9,22,-17,-4,-6,-12,-29,-27,-23,-13
-27,-18,11,22,-18,-3,-6,-12,-29,-26,-22,-12
-27,-17,11,22,-18,-2,-5,-11,-28,-25,-22,-12
-27,-17,11,22,-18,-2,-5,-11,-27,-25,-22,-12
-28,-17,10,22,-18,-2,-5,-10,-27,-25,-22,-13
-28,-17,10,22,-18,-3,-5,-10,-27,-25,-22,-13
-28,-18,9,23,-18,-3,-5,-10,-27,-25,-22,-13
-27,-18,9,23,-18,-4,-5,-10,-27,-25,-22,-13
-26,-18,9,22,-17,-4,-5,-10,-27,-25,-22,-13
-26,-18,9,22,-17,-4,-5,-10,-27,-25,-22,-13
-27,-18,10,23,-18,-4,-5,-10,-27,-25,-21,-12
-27,-18,10,22,-19,-3,-5,-10,-27,-24,-21,-12
-27,-17,9,22,-18,-3,-5,-10,-27,-24,-21,-12
-26,-17,9,21,-17,-3,-6,-10,-27,-24,-21,-12
-25,-16,8,21,-17,-3,-6,-10,-27,-24,-21,-12
-26,-17,8,22,-17,-4,-6,-10,-27,-24,-21,-12
-27,-19,8,23,-18,-4,-7,-11,-28,-24,-21,-13
-27,-19,8,23,-18,-4,-7,-11,-28,-25,-21,-13
-27,-19,8,23,-18,-4,-7,-11,-28,-25,-21,-13
-26,-18,7,22,-17,-4,-7,-11,-29,-26,-22,-14
-24,-16,7,20,-15,-4,-7,-11,-29,-26,-21,-14
-24,-16,7,20,-15,-4,-7,-11,-28,-25,-21,-13
-26,-16,9,21,-18,-3,-7,-11,-28,-25,-21,-13
-28,-16,11,22,-19,-2,-7,-11,-28,-24,-20,-12
-27,-16,12,21,-19,-2,-7,-11,-28,-24,-20,-12
-27,-17,11,22,-19,-3,-7,-12,-28,-25,-20,-12
-27,-18,10,22,-18,-4,-8,-12,-29,-25,-21,-12
-27,-18,9,22,-18,-4,-8,-13,-29,-25,-21,-12
-26,-18,8,22,-17,-4,-8,-13,-29,-25,-20,-12
-26,-18,8,22,-17,-4,-9,-14,-30,-25,-20,-12
-26,-18,8,22,-17,-4,-9,-14,-30,-25,-20,-12
-26,-17,8,22,-17,-4,-9,-14,-30,-25,-20,-12
-25,-16,8,21,-16,-4,-9,-14,-30,-25,-20,-12
-24,-16,7,20,-15,-4,-9,-14,-29,-24,-20,-12
-22,-15,7,19,-14,-4,-8,-14,-29,-24,-19,-11
-21,-15,6,17,-13,-4,-8,-14,-29,-24,-19,-11
-21,-15,6,18,-14,-4,-8,-14,-29,-24,-19,-11
-24,-16,7,20,-15,-4,-9,-14,-29,-24,-19,-12
-25,-17,8,21,-16,-4,-9,-15,-29,-24,-19,-12
-25,-17,8,21,-16,-4,-9,-15,-29,-24,-19,-12
-25,-16,8,21,-16,-4,-10,-15,-29,-24,-19,-12
-24,-16,8,20,-16,-4,-10,-15,-29,-24,-19,-12
-24,-16,8,20,-16,-4,-10,-15,-30,-24,-19,-12
-24,-16,7,20,-15,-4,-10,-16,-30,-24,-19,-12
-23,-16,7,20,-15,-4,-10,-16,-30,-24,-19,-12
-22,-15,7,19,-15,-4,-10,-16,-30,-24,-19,-11
-22,-15,8,19,-15,-3,-10,-15,-30,-24,-18,-11
-22,-14,8,19,-15,-3,-10,-15,-30,-24,-18,-11
-23,-15,8,20,-15,-4,-10,-15,-30,-24,-18,-12
-24,-16,7,20,-15,-4,-10,-15,-30,-24,-18,-12
-24,-16,7,20,-15,-4,-10,-15,-30,-24,-19,-12
-24,-16,7,20,-15,-4,-10,-15,-30,-24,-19,-12
-24,-16,7,20,-15,-4,-10,-16,-30,-24,-19,-12
-23,-16,6,19,-14,-5,-10,-16,-30,-24,-19,-12
-22,-16,5,19,-13,-5,-11,-17,-31,-24,-19,-12
-22,-17,5,20,-13,-6,-11,-17,-31,-24,-19,-13
-23,-17,6,20,-14,-5,-11,-17,-31,-24,-19,-13
-22,-15,6,19,-14,-4,-11,-17,-31,-24,-18,-12
-21,-14,7,18,-14,-3,-10,-16,-30,-23,-17,-11
-21,-13,8,17,-14,-2,-10,-16,-30,-23,-17,-11
-21,-13,8,17,-15,-2,-10,-15,-29,-22,-16,-10
-22,-13,8,18,-15,-2,-10,-16,-29,-22,-16,-10
-22,-14,8,18,-15,-2,-10,-16,-29,-22,-16,-11
-22,-15,8,18,-15,-3,-11,-16,-30,-22,-16,-11
-22,-15,7,19,-14,-3,-11,-16,-30,-22,-17,-11
-22,-15,6,19,-14,-4,-11,-17,-30,-22,-17,-12
-20,-14,6,17,-13,-3,-11,-17,-30,-22,-16,-12
-19,-13,6,16,-12,-3,-11,-17,-30,-22,-16,-12
-20,-14,6,17,-13,-3,-12,-17,-30,-23,-17,-12
-21,-14,6,17,-13,-3,-12,-17,-30,-23,-17,-12
-20,-14,6,17,-12,-3,-12,-17,-30,-23,-16,-12
-19,-14,6,16,-12,-3,-12,-17,-30,-22,-16,-12
-19,-13,6,16,-12,-3,-12,-17,-30,-22,-16,-12
-19,-13,6,16,-12,-3,-12,-17,-30,-22,-15,-12
-19,-13,6,16,-13,-3,-12,-17,-30,-22,-16,-12
-20,-14,6,17,-13,-4,-12,-17,-30,-22,-16,-12
-20,-14,6,17,-12,-4,-12,-17,-30,-22,-16,-12
-20,-14,6,17,-12,-4,-12,-17,-30,-22,-16,-12
-21,-15,7,18,-13,-3,-12,-17,-30,-21,-15,-12
-23,-15,7,19,-14,-3,-12,-17,-30,-21,-15,-12
-22,-15,7,19,-14,-3,-12,-17,-30,-21,-15,-12
-20,-14,6,16,-12,-3,-11,-17,-29,-21,-15,-12
-18,-12,6,15,-12,-2,-11,-17,-29,-20,-14,-12
-19,-12,7,16,-13,-2,-11,-17,-29,-20,-14,-12
-19,-12,8,16,-13,-1,-10,-16,-28,-20,-14,-12
-19,-11,8,15,-13,0,-10,-16,-28,-20,-14,-11
-18,-10,8,14,-13,0,-9,-16,-28,-19,-14,-11
-18,-9,9,14,-13,0,-9,-15,-27,-19,-13,-11
-18,-9,9,14,-14,1,-9,-15,-27,-18,-13,-11
-18,-8,10,13,-14,2,-8,-14,-26,-18,-12,-10
-17,-6,10,12,-14,2,-8,-14,-25,-17,-11,-9
-17,-7,11,12,-15,2,-8,-14,-25,-17,-11,-9
-18,-7,11,12,-15,2,-8,-14,-25,-17,-11,-9
-17,-6,11,12,-14,3,-8,-14,-25,-17,-10,-9
-17,-5,12,11,-14,4,-7,-14,-24,-16,-10,-8
-16,-4,12,10,-14,4,-7,-14,-24,-16,-10,-8
-16,-4,11,10,-13,4,-8,-14,-24,-16,-10,-9
-16,-4,11,10,-13,3,-8,-14,-24,-16,-10,-9
-16,-5,11,10,-13,3,-8,-14,-24,-15,-9,-9
-17,-4,12,10,-14,4,-8,-14,-24,-15,-9,-9
-17,-4,13,10,-15,4,-8,-14,-23,-15,-9,-9
-17,-4,14,10,-15,4,-9,-15,-23,-15,-9,-9
-16,-3,13,10,-15,4,-10,-15,-23,-15,-9,-9
-15,-3,12,9,-14,4,-11,-16,-24,-15,-9,-9
-14,-2,12,8,-13,5,-13,-17,-24,-15,-9,-9
-15,-1,13,7,-14,6,-13,-18,-24,-15,-9,-9
-15,-2,14,8,-14,6,-14,-18,-25,-15,-9,-9
-15,-2,13,8,-13,5,-16,-19,-26,-16,-9,-9
-14,-2,12,8,-12,4,-17,-20,-26,-16,-10,-10
-14,-2,12,8,-12,4,-17,-20,-26,-16,-9,-9
-13,-1,12,7,-12,4,-17,-20,-26,-15,-9,-9
-11,-1,10,6,-11,4,-17,-19,-25,-15,-8,-9
-10,-1,9,6,-10,4,-17,-19,-25,-15,-8,-9
-10,-1,9,6,-10,4,-17,-19,-25,-15,-8,-9
-9,0,9,4,-9,5,-17,-19,-25,-14,-7,-9
-8,0,9,4,-9,5,-17,-19,-24,-14,-7,-9
-9,0,8,4,-9,4,-17,-19,-24,-14,-7,-9
-9,0,8,5,-9,4,-16,-19,-24,-14,-7,-9
-9,0,8,5,-9,4,-15,-19,-25,-14,-8,-9
-10,-1,9,5,-9,4,-14,-19,-25,-14,-8,-10
-10,-2,9,6,-10,3,-14,-19,-25,-15,-8,-10
-11,-3,8,7,-10,2,-14,-20,-25,-15,-9,-11
-11,-3,8,7,-10,2,-13,-20,-25,-15,-9,-11
-12,-4,8,8,-10,2,-13,-19,-25,-15,-9,-11
-14,-5,9,9,-11,2,-13,-19,-25,-15,-9,-11
-15,-6,10,10,-12,2,-13,-19,-25,-15,-9,-12
-15,-7,9,11,-12,1,-13,-19,-26,-16,-9,-12
-15,-7,8,11,-11,0,-13,-20,-26,-16,-10,-13
-14,-7,7,11,-11,0,-13,-20,-26,-16,-10,-13
-13,-7,7,10,-10,0,-13,-20,-26,-16,-10,-14
-14,-7,6,11,-10,0,-13,-20,-26,-17,-10,-14
-14,-8,6,11,-10,0,-14,-21,-26,-17,-10,-15
-13,-8,5,11,-9,-1,-14,-22,-27,-18,-11,-15
-12,-9,3,11,-7,-2,-15,-23,-28,-18,-12,-16
-12,-9,2,11,-7,-3,-15,-23,-29,-19,-12,-17
-14,-9,3,12,-9,-2,-15,-23,-28,-18,-12,-17
-15,-10,5,13,-10,-2,-14,-22,-27,-17,-11,-17
-16,-10,5,13,-11,-1,-13,-22,-27,-17,-11,-16
-16,-10,6,13,-11,-1,-13,-21,-26,-17,-10,-16
-16,-9,6,12,-11,0,-13,-21,-26,-16,-10,-16
-15,-9,6,12,-11,0,-13,-20,-26,-16,-9,-16
-16,-9,6,12,-11,-1,-13,-20,-26,-16,-9,-16
-16,-10,6,13,-11,-1,-13,-21,-26,-16,-9,-16
-16,-10,6,13,-10,-2,-13,-21,-26,-16,-9,-16
-15,-10,5,13,-10,-2,-13,-21,-26,-16,-9,-16
-14,-10,4,12,-9,-2,-13,-21,-26,-16,-9,-17
-14,-10,4,12,-9,-2,-13,-21,-26,-16,-10,-17
-15,-11,4,13,-9,-2,-13,-21,-26,-16,-10,-18
-15,-11,4,13,-10,-2,-13,-21,-26,-16,-10,-18
-15,-11,4,13,-9,-2,-13,-22,-26,-16,-10,-18
-16,-12,4,14,-10,-3,-13,-22,-26,-16,-11,-19
-18,-13,5,15,-11,-4,-13,-22,-26,-17,-11,-19
-17,-12,5,14,-10,-3,-13,-21,-26,-16,-10,-19
-14,-9,5,11,-9,-1,-12,-21,-25,-15,-9,-18
-14,-9,5,11,-9,-1,-12,-21,-25,-15,-9,-18
-16,-11,5,13,-10,-2,-13,-21,-26,-15,-10,-19
-17,-12,5,14,-11,-3,-13,-21,-26,-15,-10,-19
-16,-11,5,13,-10,-3,-13,-21,-25,-15,-9,-19
-13,-9,4,11,-8,-3,-12,-21,-24,-14,-9,-18
-12,-8,4,10,-8,-2,-12,-21,-24,-14,-9,-18
-13,-8,4,10,-8,-2,-12,-21,-24,-13,-8,-18
-13,-8,5,10,-9,-2,-12,-21,-23,-13,-8,-18
-13,-8,6,10,-9,-1,-11,-20,-23,-13,-8,-18
-14,-9,6,11,-10,-1,-10,-18,-22,-13,-8,-19
-16,-9,7,12,-12,-1,-8,-15,-22,-13,-9,-20
-17,-8,9,12,-13,0,-5,-11,-20,-13,-10,-21
-17,-6,11,12,-14,2,-2,-7,-18,-12,-10,-22
-19,-5,13,12,-16,4,0,-3,-14,-10,-9,-21
-21,-5,16,12,-18,6,2,1,-10,-7,-7,-20
-19,-4,15,11,-17,6,3,6,-5,-3,-3,-19
-16,-4,13,9,-14,5,5,12,1,2,1,-16
-11,-4,8,7,-10,3,6,19,9,9,8,-12
-3,-3,1,3,-2,0,6,27,19,20,19,-6
8,-1,-8,-3,8,-3,6,38,33,33,34,3
19,1,-18,-10,19,-7,6,52,52,51,52,14
30,5,-24,-18,28,-9,7,68,74,71,72,25
41,10,-30,-25,36,-10,8,83,97,92,92,37
52,15,-36,-34,44,-10,7,94,117,112,113,50
65,22,-42,-44,54,-10,2,99,135,131,133,63
77,27,-49,-52,63,-11,-5,98,146,145,149,74
86,28,-57,-57,71,-14,-13,91,146,149,155,79
93,25,-67,-59,80,-20,-21,77,134,138,146,75
97,18,-78,-57,87,-29,-26,60,113,118,127,63
94,9,-85,-51,89,-37,-29,40,87,93,102,47
82,0,-81,-41,81,-39,-30,12,55,62,72,28
62,-5,-66,-28,64,-35,-30,-23,16,27,37,8
39,-9,-47,-15,43,-28,-30,-59,-25,-8,1,-11
17,-15,-32,-1,24,-24,-31,-92,-63,-41,-30,-30
0,-23,-23,11,11,-23,-34,-118,-94,-67,-55,-45
-12,-31,-19,21,3,-24,-39,-136,-116,-86,-72,-57
-21,-38,-17,30,-2,-27,-45,-146,-130,-98,-83,-66
-27,-45,-18,37,-5,-30,-52,-150,-137,-105,-89,-73
-29,-50,-20,40,-4,-34,-57,-149,-139,-109,-93,-77
-29,-52,-22,41,-3,-37,-61,-143,-137,-109,-93,-79
-30,-52,-21,41,-4,-37,-62,-135,-131,-105,-90,-78
-31,-50,-18,41,-6,-35,-61,-126,-123,-99,-85,-75
-30,-47,-16,39,-7,-32,-58,-115,-114,-92,-78,-72
-28,-43,-14,36,-7,-29,-54,-104,-103,-83,-71,-67
-27,-39,-12,33,-7,-25,-48,-92,-92,-74,-62,-62
-25,-35,-10,30,-7,-21,-42,-79,-79,-64,-53,-55
-23,-32,-8,27,-7,-18,-35,-66,-67,-55,-45,-50
-21,-29,-7,25,-6,-17,-29,-54,-57,-47,-39,-45
-21,-26,-5,23,-7,-15,-24,-43,-49,-41,-34,-42
-22,-25,-3,23,-9,-14,-20,-35,-42,-36,-30,-39
-21,-23,-2,21,-9,-13,-16,-28,-37,-31,-26,-37
-17,-18,-2,17,-7,-10,-13,-23,-32,-26,-22,-34
-14,-14,-1,13,-6,-7,-11,-18,-27,-22,-18,-31
-14,-12,1,12,-7,-4,-9,-15,-24,-18,-15,-29
-14,-11,3,12,-8,-2,-8,-14,-21,-16,-12,-27
-14,-10,4,11,-8,-1,-7,-12,-19,-15,-11,-26
-13,-9,4,10,-8,-1,-7,-11,-18,-14,-10,-25
-13,-9,5,10,-9,-1,-7,-10,-18,-13,-10,-24
-13,-9,6,10,-9,-1,-7,-9,-17,-13,-9,-24
-12,-8,5,10,-9,-1,-6,-8,-16,-12,-9,-24
-13,-8,5,10,-9,-1,-6,-8,-16,-11,-8,-24
-14,-9,5,11,-9,-1,-6,-8,-15,-10,-8,-24
-14,-7,6,10,-9,0,-4,-7,-13,-9,-6,-23
-13,-5,6,9,-8,1,-4,-6,-12,-8,-5,-22
-13,-6,6,9,-8,1,-4,-6,-12,-8,-5,-22
-12,-6,6,9,-8,0,-4,-6,-12,-8,-6,-23
-12,-7,5,9,-8,0,-5,-6,-13,-9,-6,-23
-12,-8,4,9,-8,-1,-6,-5,-13,-9,-7,-24
-11,-8,3,9,-7,-2,-6,-5,-13,-9,-7,-24
-12,-7,4,9,-8,-1,-6,-5,-12,-8,-6,-23
-13,-7,5,9,-8,0,-5,-4,-11,-7,-5,-22
-12,-6,6,9,-8,1,-5,-4,-11,-6,-4,-22
-11,-5,5,8,-7,1,-5,-4,-10,-6,-4,-21
-9,-5,5,7,-7,1,-5,-4,-10,-6,-4,-21
-9,-5,4,7,-7,1,-5,-4,-10,-6,-5,-22
-9,-6,4,7,-7,0,-5,-3,-10,-6,-5,-22
-10,-6,5,8,-8,0,-5,-3,-9,-5,-4,-21
-11,-6,6,8,-8,0,-4,-2,-9,-5,-3,-21
-12,-6,6,8,-8,0,-4,-2,-8,-4,-3,-21
-12,-6,6,8,-8,0,-4,-2,-8,-4,-3,-21
-11,-5,5,8,-7,0,-4,-2,-8,-4,-3,-21
-9,-4,5,6,-6,1,-4,-1,-8,-4,-3,-20
-9,-4,5,6,-7,1,-3,-1,-7,-4,-2,-20
-10,-4,6,7,-8,1,-3,-1,-7,-4,-2,-20
-11,-4,6,8,-9,1,-3,0,-7,-4,-2,-20
-11,-4,6,7,-9,1,-3,0,-7,-4,-2,-20
-11,-5,6,8,-8,1,-3,0,-7,-4,-2,-20
-11,-5,6,8,-8,1,-4,0,-7,-4,-2,-20
-10,-5,5,7,-7,1,-4,0,-7,-4,-2,-20
-10,-6,4,7,-6,0,-4,0,-7,-4,-2,-20
-11,-7,3,8,-6,-1,-5,0,-8,-5,-3,-21
-10,-6,4,7,-6,0,-5,0,-7,-5,-3,-21
-9,-4,5,6,-7,1,-4,1,-5,-3,-2,-20
-9,-3,6,5,-7,2,-4,2,-4,-3,-1,-19
-9,-3,6,5,-7,2,-4,2,-4,-2,-1,-19
-8,-2,6,4,-6,2,-3,3,-4,-2,-1,-19
-7,-1,6,3,-6,3,-3,3,-3,-1,0,-18
-7,-2,6,4,-6,2,-3,4,-3,-1,0,-18
-7,-2,6,5,-7,2,-3,4,-3,-1,-1,-19
-7,-2,6,5,-7,2,-3,4,-3,-1,-1,-19
-6,-2,5,4,-6,2,-3,5,-3,-1,-1,-19
-7,-2,5,5,-5,1,-3,5,-3,-2,-1,-19
-8,-3,5,5,-6,1,-3,5,-3,-2,-1,-19
-9,-3,6,5,-7,2,-3,5,-2,-1,-1,-19
-10,-3,6,6,-7,2,-2,6,-2,-1,-1,-19
-9,-3,6,6,-7,2,-2,6,-2,-1,-1,-20
-8,-3,5,6,-7,1,-2,6,-2,-1,-2,-20
-9,-4,5,7,-7,1,-2,7,-1,-1,-2,-19
-11,-4,7,8,-9,2,-2,8,-1,-1,-1,-19
-12,-5,7,8,-9,2,-2,8,0,-1,-1,-19
-10,-4,6,7,-7,2,-2,9,0,0,-1,-19
-8,-2,6,5,-6,2,-2,10,1,0,-1,-18
-7,-1,6,4,-6,3,-1,11,1,0,0,-18
-8,-1,7,4,-8,3,-1,12,2,0,0,-18
-9,-2,7,5,-9,3,-1,13,2,0,0,-18
-9,-2,7,5,-8,3,0,14,2,1,0,-18
-8,-1,6,5,-7,2,0,14,3,1,0,-18
-8,-2,6,5,-7,2,0,15,3,1,0,-18
-8,-2,6,5,-6,2,0,15,3,1,0,-18
-7,-1,6,3,-5,2,0,16,4,2,0,-17
-5,0,5,2,-4,2,0,17,4,2,0,-17
-5,0,5,2,-4,2,0,18,5,2,0,-17
-7,-1,5,3,-6,2,0,19,5,2,0,-17
-8,-1,6,4,-7,2,0,20,6,2,0,-17
-8,-1,5,4,-7,2,0,21,6,2,0,-17
-7,-1,5,4,-6,2,1,23,7,2,0,-17
-8,-2,6,5,-7,2,1,24,7,3,0,-17
-9,-1,7,5,-7,3,2,25,8,3,0,-17
-8,0,7,4,-7,3,2,26,9,4,0,-16
-7,0,7,3,-6,3,2,27,10,5,0,-16
-6,0,6,3,-6,2,2,29,11,5,0,-16
-4,1,6,1,-6,3,3,31,12,6,1,-15
-2,3,7,0,-5,5,5,33,13,7,2,-14
-2,4,6,0,-5,5,5,34,14,7,2,-14
-2,3,6,0,-5,5,6,36,14,7,2,-14
-3,3,7,0,-5,5,6,37,15,8,2,-14
-4,2,7,1,-6,5,6,39,16,8,2,-14
-5,2,7,1,-6,5,6,40,16,8,2,-14
-5,1,7,2,-6,4,6,41,17,8,1,-14
-4,2,7,1,-6,4,7,42,17,8,1,-14
-3,3,6,0,-5,5,8,44,18,9,1,-14
-3,3,7,0,-5,5,8,45,19,9,1,-14
-5,3,8,1,-6,6,9,47,20,9,1,-15
-6,2,9,1,-7,6,9,48,20,9,1,-15
-6,3,9,1,-7,6,10,50,21,10,1,-15
-5,4,9,0,-6,6,10,51,22,10,1,-15
-5,4,9,0,-6,7,11,52,23,10,1,-15
-5,5,10,0,-7,7,12,54,23,10,2,-15
-4,6,10,-1,-6,8,13,55,24,10,2,-15
-2,7,9,-2,-6,8,13,56,24,10,2,-15
-2,8,9,-2,-6,9,14,57,25,10,1,-16
-1,9,9,-3,-5,9,14,58,26,10,1,-16
-1,9,9,-4,-6,9,15,59,26,10,1,-16
-4,7,10,-2,-7,9,15,59,26,10,0,-16
-6,6,11,0,-9,9,16,60,26,10,0,-17
-7,5,12,0,-9,9,16,61,26,10,0,-17
-7,4,12,1,-10,9,17,61,26,10,-1,-18
-7,4,12,1,-9,9,17,62,26,10,-1,-18
-5,6,12,0,-8,9,17,63,26,10,-1,-19
-2,8,12,-3,-6,10,18,64,27,10,-1,-19
-1,9,11,-4,-5,10,18,65,27,10,-2,-19
-2,8,11,-3,-6,9,18,65,27,9,-3,-20
-2,8,11,-2,-6,9,18,65,27,9,-3,-21
-1,8,10,-3,-5,9,18,65,27,8,-4,-21
0,8,8,-4,-4,9,18,64,26,8,-5,-21
-1,7,9,-3,-4,9,18,64,26,7,-5,-22
-2,7,11,-3,-6,9,18,64,26,7,-6,-22
-4,7,12,-2,-7,9,18,63,25,7,-6,-23
-4,7,11,-2,-7,8,18,63,25,6,-7,-24
-4,6,11,-1,-7,8,18,62,24,4,-8,-25
-4,5,10,-1,-7,7,18,61,23,3,-9,-25
-4,5,9,-1,-6,7,18,60,23,3,-10,-26
-3,6,9,-2,-5,7,18,59,22,2,-11,-26
-3,5,8,-2,-5,7,17,57,21,1,-12,-27
-4,4,8,-1,-5,6,17,55,19,0,-13,-28
-4,3,8,0,-6,5,17,54,18,0,-14,-28
-3,4,7,-1,-5,5,17,52,18,-1,-14,-29
-3,3,6,-1,-4,5,16,50,17,-2,-15,-29
-3,3,6,0,-4,4,15,48,15,-3,-16,-30
-3,2,6,0,-3,4,15,46,14,-3,-17,-31
-3,2,6,0,-3,4,14,45,13,-4,-17,-31
-3,2,6,0,-3,4,14,43,12,-4,-17,-31
-3,1,5,0,-3,3,13,41,11,-5,-18,-31
-3,0,5,0,-3,3,12,38,9,-6,-19,-32
-3,0,4,1,-3,2,11,36,8,-8,-20,-33
-3,-1,2,2,-2,0,10,33,6,-10,-22,-34
-2,-2,1,2,-1,0,9,30,4,-11,-22,-35
-2,-1,0,2,-1,0,8,28,4,-11,-22,-35
-1,-1,0,1,0,0,8,27,4,-11,-22,-34
-1,-2,0,1,0,0,7,25,3,-11,-22,-34
0,-1,0,1,0,0,7,23,2,-11,-22,-34
0,-1,0,0,0,0,6,21,1,-11,-22,-34
-1,-2,0,1,0,0,5,18,0,-11,-22,-34
-2,-3,0,2,0,-1,3,15,-1,-12,-22,-34
-2,-4,-1,3,0,-2,2,12,-2,-12,-22,-34
-2,-4,-2,3,1,-3,1,10,-3,-13,-22,-34
-2,-5,-2,4,1,-4,0,8,-4,-13,-22,-34
-3,-6,-2,4,0,-4,0,6,-4,-13,-21,-33
-2,-5,-2,4,0,-4,-1,4,-5,-13,-21,-33
-2,-5,-2,3,0,-4,-1,2,-5,-13,-20,-32
-2,-6,-2,4,0,-4,-2,0,-5,-13,-20,-32
-3,-6,-2,4,0,-4,-2,-2,-6,-13,-19,-31
-3,-6,-2,5,0,-4,-3,-4,-7,-13,-19,-30
-4,-6,-2,5,0,-4,-4,-5,-8,-12,-18,-30
-3,-6,-2,5,0,-4,-5,-7,-8,-12,-17,-29
-2,-5,-2,4,1,-3,-5,-9,-8,-12,-16,-28
-2,-5,-1,4,0,-3,-6,-10,-8,-12,-16,-27
-3,-5,-1,4,0,-3,-6,-11,-9,-12,-15,-27
-3,-5,-1,4,0,-3,-6,-13,-9,-12,-15,-26
-2,-5,-1,4,0,-3,-6,-14,-10,-11,-14,-26
-2,-4,-1,4,0,-3,-7,-16,-10,-11,-13,-25
-3,-4,0,4,0,-3,-7,-17,-11,-10,-13,-24
-3,-4,0,4,-1,-2,-8,-18,-11,-10,-12,-24
-2,-3,0,3,0,-2,-8,-18,-11,-10,-12,-23
-1,-2,0,2,0,-2,-8,-19,-11,-9,-11,-22
-1,-3,0,2,0,-2,-9,-20,-12,-9,-11,-22
-4,-5,0,4,-1,-3,-9,-21,-13,-10,-11,-22
-5,-6,0,6,-2,-3,-10,-22,-13,-10,-11,-22
-6,-6,1,6,-2,-2,-10,-23,-13,-10,-10,-21
-5,-4,1,5,-2,-1,-9,-23,-13,-9,-9,-20
-4,-3,2,4,-2,0,-9,-23,-13,-9,-9,-19
-5,-3,2,4,-3,-1,-9,-23,-13,-8,-9,-19
-6,-5,1,5,-3,-2,-10,-24,-13,-9,-9,-20
-7,-6,1,7,-3,-3,-11,-25,-14,-9,-9,-21
-9,-7,2,8,-4,-3,-10,-25,-13,-8,-9,-20
-8,-7,2,7,-4,-2,-10,-25,-13,-8,-8,-19
-6,-5,2,5,-4,-1,-10,-24,-12,-7,-7,-18
-5,-4,2,4,-3,0,-10,-24,-12,-7,-7,-18
-5,-3,3,4,-4,0,-10,-24,-12,-7,-6,-17
-6,-3,3,4,-4,0,-10,-24,-12,-7,-6,-17
-6,-3,3,5,-4,0,-10,-24,-12,-7,-6,-17
-7,-4,3,5,-4,0,-10,-23,-12,-7,-6,-17
-6,-4,3,5,-4,0,-9,-23,-11,-6,-6,-17
-6,-4,3,6,-5,0,-9,-23,-11,-6,-6,-17
-7,-5,3,6,-5,0,-9,-23,-12,-6,-7,-17
-7,-5,3,6,-5,0,-9,-23,-12,-6,-7,-17
-6,-3,3,5,-5,1,-8,-23,-11,-5,-6,-17
-6,-3,4,4,-5,1,-8,-22,-11,-5,-6,-16
-6,-3,4,4,-5,0,-8,-22,-10,-5,-6,-16
-6,-3,3,4,-4,0,-8,-22,-10,-5,-6,-16
-6,-3,3,4,-4,0,-8,-22,-10,-5,-6,-17
-5,-3,2,4,-3,0,-8,-22,-10,-5,-5,-17
-5,-3,2,4,-3,0,-8,-22,-10,-5,-5,-17
-6,-4,2,4,-3,0,-8,-21,-10,-5,-5,-17
-6,-3,2,4,-4,0,-7,-21,-10,-5,-5,-18
-6,-3,3,4,-4,0,-7,-21,-10,-5,-5,-18
-7,-3,4,5,-5,0,-7,-20,-9,-5,-5,-18
-8,-4,4,6,-6,0,-7,-20,-9,-5,-5,-17
-8,-3,5,6,-6,1,-6,-20,-8,-5,-5,-17
-9,-3,5,6,-6,1,-6,-19,-8,-4,-5,-16
-10,-4,5,7,-7,1,-6,-19,-8,-4,-5,-16
-9,-4,5,7,-7,0,-6,-19,-8,-4,-5,-17
-7,-3,4,5,-5,0,-6,-19,-8,-4,-4,-17
-7,-3,3,5,-5,0,-6,-19,-8,-4,-4,-17
-8,-3,4,6,-6,0,-6,-19,-7,-4,-4,-17
-8,-2,5,5,-6,1,-5,-18,-7,-4,-4,-17
-8,-2,5,4,-6,1,-4,-18,-6,-3,-4,-17
-8,-2,5,5,-6,1,-4,-18,-6,-3,-4,-17
-7,-2,5,5,-6,1,-5,-18,-6,-3,-4,-17
-7,-2,5,5,-5,1,-5,-18,-6,-3,-5,-17
-7,-3,4,5,-5,0,-6,-19,-7,-3,-5,-18
-8,-4,5,6,-6,0,-6,-19,-7,-3,-5,-18
-8,-3,5,5,-6,0,-6,-19,-7,-3,-5,-17
-7,-3,5,5,-5,0,-6,-19,-7,-4,-5,-18
-7,-3,5,5,-6,0,-6,-20,-7,-4,-6,-18
-8,-3,5,5,-7,0,-6,-20,-7,-4,-6,-18
-8,-3,6,6,-7,1,-5,-20,-7,-3,-5,-18
-9,-3,6,6,-7,1,-5,-20,-6,-3,-5,-17
-8,-3,6,6,-7,1,-5,-20,-6,-3,-5,-17
-7,-2,6,5,-6,2,-5,-20,-6,-3,-5,-17
-6,-2,5,4,-5,2,-5,-20,-7,-3,-5,-17
-6,-1,5,3,-5,2,-5,-20,-7,-3,-5,-17
-6,-2,5,3,-4,1,-5,-20,-7,-3,-5,-17
-6,-2,4,4,-4,0,-5,-21,-7,-3,-5,-17
-6,-2,4,4,-5,0,-5,-21,-7,-3,-5,-17
-7,-2,5,4,-5,1,-5,-22,-8,-3,-5,-17
-7,-2,5,5,-5,1,-6,-22,-8,-3,-5,-17
-6,-2,4,4,-4,1,-6,-22,-8,-3,-5,-17
-5,0,5,2,-4,2,-5,-22,-7,-3,-5,-16
-5,0,6,2,-4,2,-5,-22,-7,-3,-5,-15
-7,-2,6,4,-5,1,-6,-23,-8,-4,-6,-16
-8,-3,5,5,-6,1,-6,-24,-9,-4,-6,-16
-7,-2,5,5,-5,1,-6,-24,-9,-4,-6,-15
-7,-3,4,5,-5,0,-7,-24,-9,-4,-6,-15
-8,-4,4,6,-5,0,-7,-25,-9,-4,-6,-15
-8,-4,4,5,-5,0,-6,-25,-9,-4,-6,-15
-8,-4,4,5,-5,0,-6,-25,-9,-4,-6,-14
-7,-3,4,4,-5,0,-6,-25,-9,-4,-6,-14
-6,-2,4,3,-4,0,-6,-25,-10,-4,-6,-14
-5,-1,3,2,-4,0,-6,-26,-10,-4,-6,-13
-3,0,3,1,-4,1,-6,-26,-10,-4,-6,-13
-3,1,4,1,-4,2,-6,-26,-9,-3,-5,-12
-3,0,4,1,-4,2,-6,-26,-9,-3,-5,-12
-5,-1,4,3,-4,1,-7,-27,-10,-4,-6,-12
-6,-2,4,4,-4,0,-7,-28,-10,-5,-6,-12
-5,-1,4,3,-4,1,-7,-28,-10,-5,-6,-12
-5,-2,4,3,-4,0,-8,-28,-11,-5,-7,-12
-5,-2,3,4,-4,0,-8,-29,-11,-5,-7,-12
-6,-2,4,4,-4,0,-8,-29,-11,-5,-7,-12
-6,-2,5,3,-5,1,-8,-29,-11,-5,-6,-11
-5,-1,5,2,-4,2,-7,-29,-10,-4,-6,-10
-3,0,4,1,-3,2,-7,-29,-10,-4,-6,-9
-2,0,3,1,-2,2,-7,-29,-10,-4,-6,-9
-3,0,4,1,-3,2,-7,-29,-10,-4,-5,-9
-4,0,4,2,-4,1,-7,-29,-10,-4,-5,-9
-5,-1,4,3,-4,1,-7,-30,-11,-5,-6,-10
-5,-1,4,3,-5,1,-7,-30,-11,-5,-6,-10
-5,-1,4,3,-4,1,-7,-30,-11,-4,-5,-9
-5,-1,4,3,-4,1,-7,-30,-10,-4,-5,-8
-5,-1,4,3,-4,1,-7,-30,-10,-4,-5,-8
-5,-2,3,4,-4,0,-8,-30,-11,-5,-6,-8
-6,-3,3,4,-4,0,-8,-31,-11,-5,-6,-9
-6,-3,3,5,-5,0,-8,-31,-11,-5,-6,-8
-5,-2,3,3,-4,0,-8,-31,-11,-5,-6,-8
-3,-1,2,2,-3,0,-8,-31,-11,-5,-6,-8
-3,-1,2,2,-3,0,-8,-32,-11,-5,-6,-7
-4,-1,3,2,-3,0,-8,-32,-11,-5,-6,-7
-4,-1,3,2,-3,1,-8,-32,-11,-5,-6,-7
-3,-1,2,2,-3,1,-8,-32,-11,-5,-6,-7
-3,-1,2,2,-3,1,-8,-32,-11,-5,-5,-7
-4,-1,2,2,-3,0,-8,-32,-11,-5,-5,-7
-4,-2,2,3,-3,0,-9,-33,-12,-5,-6,-7
-4,-2,2,3,-3,0,-9,-33,-13,-6,-6,-7
-4,-1,2,3,-4,0,-8,-33,-12,-5,-6,-6
-4,-1,3,3,-4,1,-8,-32,-12,-5,-5,-6
-4,-1,3,3,-4,1,-8,-32,-12,-5,-6,-6
-4,-1,3,3,-4,0,-8,-33,-12,-6,-6,-6
-4,-2,3,3,-4,0,-8,-33,-12,-6,-6,-6
-4,-1,4,2,-4,1,-7,-32,-11,-5,-5,-5
-3,0,4,1,-4,2,-7,-31,-11,-4,-4,-4
-3,0,4,1,-4,2,-7,-32,-11,-4,-4,-5
-5,-1,3,3,-4,0,-8,-33,-12,-5,-5,-5
-5,-2,3,3,-4,0,-8,-33,-13,-5,-6,-5
-4,-2,3,3,-4,0,-8,-33,-13,-5,-6,-5
-3,-2,3,2,-3,0,-8,-33,-12,-5,-6,-5
-3,-1,3,2,-3,0,-8,-33,-12,-5,-5,-5
-2,-1,3,1,-2,0,-8,-33,-12,-5,-5,-5
-3,-1,3,1,-2,0,-8,-33,-12,-5,-5,-5
-3,-1,3,1,-3,0,-8,-33,-12,-5,-5,-5
-3,0,2,1,-2,1,-8,-33,-12,-5,-5,-4
-2,0,2,1,-2,1,-8,-33,-12,-5,-5,-4
-3,-1,3,1,-3,1,-8,-33,-13,-5,-5,-4
-3,-1,3,1,-3,1,-8,-33,-13,-5,-5,-4
-1,0,2,0,-1,0,-8,-33,-13,-5,-5,-4
-1,0,1,0,-1,0,-8,-33,-13,-5,-5,-4
-3,0,3,1,-3,1,-7,-33,-12,-5,-5,-3
-3,0,3,1,-3,1,-7,-33,-12,-5,-5,-3
-1,0,1,0,-1,0,-8,-34,-13,-5,-5,-4
0,0,1,0,0,0,-8,-34,-13,-6,-5,-4
0,0,1,0,0,0,-8,-34,-13,-6,-5,-4
-1,0,3,1,-2,0,-8,-33,-12,-5,-4,-3
-5,-2,5,3,-5,0,-8,-33,-12,-5,-4,-2
-7,-3,5,5,-6,0,-8,-33,-12,-5,-4,-2
-5,-1,4,4,-5,1,-7,-33,-12,-5,-4,-2
-4,0,4,2,-4,1,-7,-32,-11,-4,-4,-2
-3,0,4,2,-4,1,-7,-32,-11,-4,-4,-1
-3,0,4,2,-4,1,-7,-32,-11,-4,-4,-1
-2,0,4,1,-4,2,-7,-32,-11,-4,-4,-1
-2,1,5,0,-4,2,-6,-32,-11,-4,-3,0
-2,1,5,0,-4,2,-6,-32,-11,-4,-3,0
-4,0,5,1,-4,2,-6,-32,-11,-4,-4,0
-4,1,5,1,-4,3,-5,-32,-11,-3,-3,0
-2,3,6,-1,-4,5,-4,-31,-10,-2,-2,0
-1,5,7,-2,-4,6,-3,-31,-9,-2,-2,1
-2,5,7,-2,-5,6,-3,-31,-9,-2,-2,1
-1,6,8,-3,-5,7,-3,-30,-8,-1,-1,1
0,7,8,-4,-5,8,-2,-30,-8,-1,-1,2
0,8,8,-4,-4,8,-2,-30,-8,-1,0,3
0,7,7,-4,-4,7,-3,-30,-8,-1,-1,2
0,7,7,-4,-3,7,-3,-30,-8,-1,-1,2
1,8,8,-5,-3,8,-2,-30,-8,-1,0,3
0,9,9,-5,-4,9,-2,-30,-7,0,0,3
-1,9,10,-4,-5,9,-2,-30,-7,0,0,3
-1,9,10,-4,-5,9,-2,-30,-7,0,0,3
-1,8,10,-4,-5,9,-3,-31,-7,0,0,3
-1,8,10,-4,-5,8,-4,-31,-7,0,0,3
-1,7,10,-4,-5,8,-5,-31,-7,0,0,4
-1,8,10,-4,-5,9,-5,-31,-7,0,0,4
-1,8,10,-4,-5,9,-6,-32,-8,0,0,4
-1,7,8,-3,-5,7,-8,-34,-9,-1,0,4
-1,6,7,-2,-5,6,-9,-35,-10,-2,-1,3
-1,6,7,-2,-5,6,-10,-35,-10,-2,-1,3
1,7,6,-4,-3,7,-10,-36,-10,-2,-1,4
4,9,5,-6,-1,7,-11,-36,-10,-2,-1,4
5,9,4,-7,0,7,-11,-36,-10,-2,-1,4
5,9,5,-7,0,7,-11,-35,-10,-2,0,5
5,9,5,-7,0,7,-10,-35,-9,-1,0,6
4,9,5,-7,-1,7,-10,-35,-9,-1,0,6
4,9,5,-7,-1,7,-11,-35,-10,-1,0,6
5,9,5,-7,-1,7,-11,-35,-10,-1,0,7
5,10,5,-8,0,7,-11,-35,-10,-1,0,7
6,10,5,-8,0,7,-10,-35,-10,-1,0,7
5,8,5,-7,0,7,-10,-36,-10,-1,0,6
4,7,5,-5,-1,6,-10,-36,-11,-2,-1,6
2,6,5,-4,-2,6,-9,-36,-12,-2,-1,5
1,5,5,-3,-2,6,-9,-36,-12,-2,-1,5
0,5,6,-3,-3,6,-8,-36,-11,-2,-1,5
-1,5,6,-2,-4,6,-7,-35,-11,-2,-1,5
-3,3,6,0,-5,5,-7,-35,-11,-3,-1,5
-3,2,6,0,-5,4,-7,-35,-11,-3,-2,4
-2,2,5,0,-4,4,-7,-35,-11,-3,-2,4
-2,2,5,0,-4,4,-7,-35,-11,-3,-2,4
-1,2,5,0,-3,3,-7,-36,-12,-3,-2,4
0,2,4,-1,-2,3,-7,-36,-12,-3,-2,4
-1,1,3,0,-2,2,-7,-36,-13,-4,-3,4
-2,0,2,1,-3,1,-8,-37,-13,-5,-3,3
-2,0,3,0,-3,2,-7,-36,-13,-5,-3,4
-1,1,3,0,-3,2,-7,-36,-13,-5,-3,4
-3,0,3,1,-4,1,-7,-36,-13,-5,-3,4
-4,-2,3,3,-4,0,-7,-37,-14,-6,-4,4
-5,-3,3,4,-4,0,-7,-37,-14,-6,-4,3
-5,-3,3,4,-4,0,-7,-37,-14,-6,-4,3
-5,-2,3,3,-4,0,-7,-36,-14,-6,-4,4
-3,-1,2,2,-2,0,-6,-36,-14,-6,-4,4
-2,-2,0,2,-1,0,-7,-37,-14,-6,-5,3
-3,-2,0,2,-2,-1,-7,-37,-14,-6,-5,3
-4,-2,2,3,-3,0,-6,-36,-14,-6,-5,4
-4,-1,3,3,-4,1,-5,-35,-13,-6,-4,5
-3,0,3,2,-4,1,-4,-35,-13,-5,-4,5
-2,-1,2,2,-3,0,-4,-35,-13,-5,-4,5
-2,-2,2,2,-3,0,-5,-35,-13,-6,-4,4
-2,-1,2,2,-2,0,-5,-35,-13,-6,-4,4
-2,-1,2,1,-2,1,-4,-35,-12,-5,-4,5
-1,-1,1,1,-1,1,-4,-35,-13,-5,-4,4
-1,-1,1,1,-2,1,-4,-35,-13,-5,-4,4
-2,-1,1,2,-2,0,-4,-35,-13,-5,-4,4
-3,-1,2,2,-3,0,-4,-35,-13,-5,-4,4
-2,0,2,1,-3,1,-4,-35,-12,-5,-3,5
-2,0,3,0,-2,2,-3,-35,-12,-4,-3,5
-2,0,3,0,-2,1,-3,-35,-12,-4,-3,5
-2,0,3,1,-3,1,-3,-34,-12,-4,-3,5
-3,0,3,1,-3,1,-3,-34,-12,-4,-3,5
-4,-1,3,2,-3,1,-4,-34,-13,-5,-3,5
-4,-2,2,3,-4,0,-4,-35,-13,-5,-4,4
-3,-2,1,2,-2,0,-5,-35,-13,-6,-4,4
0,-1,0,1,0,0,-5,-35,-13,-6,-4,4
0,-1,0,1,0,0,-4,-35,-13,-6,-5,4
-2,-1,1,2,-1,0,-3,-33,-13,-6,-5,4
-5,-2,3,3,-4,1,-1,-31,-12,-6,-5,3
-7,-2,5,4,-6,2,1,-27,-10,-6,-6,3
-8,0,8,4,-8,4,4,-23,-8,-5,-5,3
-8,3,12,2,-10,7,8,-17,-3,-2,-3,5
-9,7,15,0,-12,11,12,-11,1,2,0,7
-9,8,17,0,-13,13,14,-6,6,6,2,9
-8,7,15,0,-11,11,15,0,11,10,6,11
-6,5,12,0,-8,9,16,5,17,15,11,13
-1,5,6,-2,-3,5,16,12,25,23,18,18
9,6,-2,-8,6,1,16,21,36,34,30,25
22,8,-12,-16,17,-2,16,33,53,49,46,34
34,12,-21,-24,28,-4,17,48,72,67,64,44
46,16,-29,-32,38,-6,17,63,93,85,82,55
59,22,-36,-41,48,-6,16,74,112,104,100,67
72,29,-42,-51,58,-6,12,80,130,122,120,79
85,37,-47,-61,67,-5,5,80,143,138,137,92
96,40,-54,-68,75,-7,-4,73,147,145,146,99
103,38,-64,-71,84,-13,-13,59,138,139,142,98
108,31,-76,-70,93,-22,-20,42,118,121,126,88
109,21,-87,-65,98,-32,-24,21,93,97,102,72
102,12,-90,-57,97,-38,-27,-4,63,69,75,55
87,4,-82,-46,85,-38,-29,-38,27,36,43,37
63,-2,-66,-30,65,-34,-30,-76,-14,1,8,17
39,-10,-50,-14,45,-30,-32,-112,-53,-32,-24,-1
20,-20,-39,0,30,-30,-36,-141,-87,-60,-50,-17
6,-30,-35,12,21,-34,-44,-162,-112,-81,-69,-29
-4,-39,-34,21,15,-37,-52,-173,-128,-95,-81,-38
-11,-46,-34,28,11,-40,-56,-175,-134,-102,-88,-44
-15,-50,-34,33,9,-42,-59,-170,-134,-104,-90,-47
-17,-52,-34,34,9,-43,-61,-162,-130,-102,-89,-48
-18,-51,-33,34,8,-42,-60,-153,-123,-99,-86,-48
-18,-49,-31,34,6,-40,-58,-143,-116,-93,-82,-46
-17,-45,-28,32,5,-37,-54,-132,-106,-86,-76,-42
-16,-40,-24,28,4,-33,-48,-119,-95,-77,-68,-36
-14,-35,-20,25,3,-28,-42,-106,-83,-67,-60,-30
-13,-31,-17,22,2,-24,-36,-92,-70,-57,-51,-24
-10,-25,-14,17,2,-19,-28,-78,-58,-48,-42,-18
-8,-20,-12,13,2,-15,-20,-65,-48,-39,-35,-13
-7,-17,-10,11,2,-13,-13,-54,-39,-33,-30,-9
-7,-15,-8,11,0,-11,-8,-46,-33,-28,-26,-7
-7,-13,-7,10,0,-11,-5,-39,-28,-23,-23,-4
-6,-11,-6,9,0,-10,-3,-34,-23,-20,-19,-2
-5,-8,-3,7,-1,-7,0,-30,-19,-15,-15,1
-5,-5,0,5,-2,-3,2,-26,-15,-11,-11,5
-4,-3,0,4,-2,-1,3,-24,-12,-9,-9,7
-3,-2,1,3,-2,0,3,-23,-11,-8,-8,8
-5,-2,2,4,-3,0,4,-22,-10,-7,-8,8
-6,-2,4,4,-4,1,4,-20,-9,-6,-7,9
-6,-1,4,4,-5,1,4,-19,-8,-5,-7,9
-6,-2,4,4,-4,0,4,-19,-8,-5,-7,9
-6,-2,3,4,-4,0,4,-18,-7,-5,-6,9
-6,-2,3,4,-4,0,4,-18,-6,-4,-5,10
-6,-2,3,4,-4,0,5,-17,-6,-3,-5,10
-6,-2,3,4,-4,0,5,-17,-6,-3,-5,10
-5,-2,2,3,-3,0,5,-17,-5,-3,-5,10
-3,0,2,2,-2,1,6,-16,-4,-2,-4,10
-2,0,3,1,-2,2,7,-15,-4,-2,-4,10
-2,0,2,1,-2,1,7,-14,-3,-1,-4,10
-2,0,2,1,-2,1,7,-14,-3,-1,-4,11
-3,0,2,1,-2,1,7,-13,-3,-1,-4,12
-2,1,3,0,-2,2,8,-13,-2,0,-3,13
-1,2,3,0,-2,3,9,-12,-1,0,-2,13
-1,2,3,0,-2,3,9,-12,-1,1,-2,13
-2,1,3,0,-2,2,8,-12,-1,0,-2,13
-2,1,3,0,-2,2,8,-12,-1,0,-3,12
-1,1,3,0,-2,2,7,-12,-1,0,-3,12
-2,1,3,1,-3,2,7,-11,-1,0,-3,12
-3,0,4,1,-4,2,7,-11,-1,0,-3,13
-3,0,3,1,-3,2,7,-11,-1,0,-3,13
-4,0,4,1,-4,2,8,-11,-1,1,-2,13
-5,0,5,2,-5,2,8,-10,0,1,-2,13
-5,0,5,3,-5,2,8,-10,0,1,-2,13
-4,0,4,2,-4,1,8,-9,0,1,-2,13
-4,0,3,2,-4,1,8,-9,0,1,-2,12
-5,-1,3,2,-4,1,8,-9,0,1,-2,12
-4,0,3,1,-4,2,8,-9,0,1,-2,13
-2,2,3,0,-3,3,9,-8,1,2,-1,14
-1,3,3,-1,-2,3,9,-8,1,2,0,15
-1,3,4,-1,-2,3,9,-7,1,2,0,15
-1,3,4,-1,-2,3,9,-7,1,2,0,15
0,3,3,-2,-1,3,9,-6,2,2,0,15
-1,2,3,-1,-2,3,9,-6,2,3,0,15
-2,2,4,-1,-3,3,9,-5,3,3,0,15
-2,2,4,0,-3,3,9,-5,3,3,0,15
-1,2,4,0,-3,3,9,-4,3,3,0,15
-2,2,4,0,-3,2,9,-4,3,3,0,15
-3,0,3,1,-3,1,9,-4,3,3,0,14
-3,0,3,1,-3,1,10,-4,3,3,0,14
-2,1,3,0,-2,2,10,-3,3,3,0,14
-1,2,3,-1,-2,2,11,-2,4,3,0,14
-1,2,3,-1,-1,2,11,-1,4,3,0,13
-1,2,3,-1,-2,2,11,-1,5,3,0,13
-2,2,4,0,-3,3,11,0,5,3,0,13
-1,3,4,-1,-3,3,11,0,5,3,0,14
-1,4,4,-2,-2,4,11,1,6,3,0,14
0,4,4,-2,-2,3,11,1,6,3,0,14
0,4,4,-2,-2,3,11,2,6,3,0,14
0,4,4,-2,-2,3,11,3,6,3,0,14
0,3,4,-1,-2,3,12,3,6,3,0,14
-1,3,4,-1,-2,3,12,4,6,3,0,13
-1,3,4,-1,-2,3,12,5,7,3,0,13
-1,4,5,-1,-3,4,12,5,7,3,0,14
-1,4,4,-2,-3,4,12,6,7,3,0,14
0,4,5,-2,-3,4,12,7,8,3,0,14
-1,5,6,-2,-4,5,13,8,9,4,0,14
-2,5,6,-1,-4,6,13,10,10,4,1,15
-2,4,6,-1,-4,6,13,11,10,5,1,15
-2,4,6,-1,-4,5,13,11,10,5,1,15
-2,3,4,0,-3,4,13,12,10,4,0,14
-1,3,4,-1,-2,4,13,12,11,4,0,14
0,5,4,-3,-2,4,14,14,12,5,1,15
1,6,4,-4,-1,5,15,15,13,5,1,15
1,5,5,-3,-2,4,15,16,13,5,1,14
0,4,5,-2,-2,3,14,17,13,5,0,14
-1,3,5,-1,-3,3,15,18,13,5,0,14
-1,3,5,-1,-3,4,16,19,14,6,1,15
0,5,5,-2,-2,5,16,21,15,7,1,16
1,6,5,-3,-1,5,17,22,16,7,1,16
1,6,4,-3,-2,5,17,24,16,7,1,16
0,5,4,-2,-2,4,17,25,17,7,1,16
1,5,5,-2,-2,5,17,26,17,8,2,16
1,6,6,-3,-3,6,18,28,19,9,2,17
1,6,6,-3,-3,7,19,30,20,10,3,17
2,7,6,-4,-2,7,20,31,20,10,3,17
2,8,5,-4,-1,7,20,33,21,10,3,17
1,8,6,-4,-2,7,20,34,21,10,3,18
0,8,7,-4,-3,7,21,36,22,10,3,18
0,7,7,-3,-4,7,21,37,23,10,3,18
0,7,7,-3,-4,7,21,39,24,11,3,18
1,8,7,-4,-4,7,22,40,25,11,3,18
2,8,6,-5,-3,6,22,42,25,11,3,18
1,7,6,-4,-3,6,22,43,26,11,3,18
0,7,7,-2,-4,7,23,45,27,12,3,18
-1,7,8,-2,-5,7,24,47,27,12,3,18
-1,7,8,-2,-5,7,25,48,28,12,3,18
0,8,8,-3,-5,8,25,49,28,12,3,18
0,9,8,-4,-5,8,26,51,29,12,3,18
1,10,9,-5,-5,9,27,52,30,13,3,18
2,12,9,-7,-4,11,27,54,31,14,3,18
3,13,10,-8,-4,12,28,56,32,14,4,19
2,13,10,-8,-4,12,28,57,33,15,4,19
1,12,11,-7,-5,11,29,57,33,15,3,18
0,11,11,-6,-5,11,29,58,33,15,3,18
0,11,12,-6,-6,12,30,59,33,15,3,17
0,12,11,-6,-5,12,31,60,33,14,3,17
2,12,10,-7,-4,12,31,61,33,14,2,17
2,12,11,-6,-5,12,31,62,34,13,2,16
1,12,11,-6,-5,12,31,63,34,13,1,16
2,13,11,-7,-5,12,32,64,34,13,1,16
3,15,11,-9,-4,13,33,65,35,14,1,16
4,16,11,-10,-3,13,34,66,35,14,1,16
5,16,11,-10,-3,13,34,67,35,13,1,15
4,15,10,-9,-3,12,33,67,34,12,0,14
4,14,10,-8,-3,12,33,67,34,11,-1,14
3,13,10,-7,-3,12,33,67,34,11,-2,14
2,14,11,-7,-5,13,34,68,34,11,-2,14
2,14,12,-8,-5,13,35,68,34,11,-2,14
2,14,12,-8,-5,13,35,67,34,11,-3,13
1,13,11,-7,-5,12,34,66,33,10,-4,12
0,11,12,-5,-6,12,34,65,32,9,-5,11
-1,10,12,-4,-6,11,33,65,31,8,-5,10
0,11,11,-5,-5,11,33,64,31,8,-6,10
2,11,10,-6,-4,11,33,64,30,7,-6,9
3,12,10,-7,-3,11,33,63,29,6,-7,9
3,11,9,-7,-3,10,32,61,28,5,-8,8
2,9,7,-6,-3,8,31,58,26,4,-9,6
2,9,7,-5,-3,8,31,56,25,3,-10,5
2,10,7,-5,-3,8,31,55,24,2,-11,5
2,9,6,-5,-2,8,30,54,23,1,-12,5
2,8,5,-4,-2,7,29,52,22,0,-13,4
2,6,4,-3,-2,6,28,50,20,-1,-14,3
3,6,3,-4,0,5,28,48,19,-2,-14,2
5,7,3,-5,0,5,27,47,19,-2,-14,2
3,6,3,-4,0,5,27,45,18,-3,-15,1
0,4,3,-2,-1,3,26,42,16,-4,-16,1
-1,3,3,0,-2,2,25,39,14,-5,-17,0
0,3,2,-2,-1,3,24,37,13,-5,-17,1
2,4,2,-3,0,3,24,36,12,-5,-17,1
3,4,1,-4,1,2,23,34,11,-6,-17,0
4,3,0,-4,2,1,21,31,9,-7,-17,0
4,2,-1,-3,2,0,20,29,8,-8,-18,0
3,2,-1,-3,2,0,19,26,7,-8,-18,0
2,1,-2,-2,2,0,18,24,6,-9,-18,0
2,0,-3,-1,2,-1,17,22,5,-9,-18,-1
2,-1,-4,0,3,-2,16,19,4,-10,-19,-1
3,-2,-5,0,4,-3,15,17,3,-10,-19,-1
5,-1,-5,-1,5,-3,14,15,2,-10,-18,-1
5,-1,-5,-1,4,-3,13,13,1,-10,-18,0
2,-3,-3,0,2,-3,12,11,0,-11,-18,0
1,-3,-3,1,1,-3,11,9,-1,-11,-17,0
3,-1,-3,0,3,-2,11,7,-1,-11,-16,0
5,0,-4,-2,4,-2,10,5,-2,-11,-16,1
5,0,-5,-2,5,-2,9,3,-3,-11,-16,1
4,0,-5,-2,5,-3,8,1,-3,-11,-15,2
3,-1,-4,-1,4,-3,7,0,-3,-11,-15,3
2,-2,-4,0,3,-3,6,0,-3,-11,-14,3
2,-2,-4,0,3,-3,6,-1,-3,-11,-13,4
3,-1,-4,0,3,-3,6,-2,-3,-10,-12,4
5,0,-5,-2,4,-3,6,-4,-4,-9,-11,5
5,0,-5,-2,5,-3,6,-6,-4,-9,-10,6
5,0,-5,-2,5,-3,5,-7,-5,-8,-9,7
4,0,-5,-2,4,-3,5,-8,-6,-8,-8,8
4,0,-4,-1,4,-3,4,-9,-6,-8,-8,9
4,-1,-4,-1,4,-3,3,-10,-6,-8,-8,9
3,-1,-4,0,3,-3,2,-11,-7,-8,-8,9
2,-1,-3,0,2,-2,2,-11,-7,-7,-7,9
2,-1,-3,0,2,-1,3,-12,-7,-6,-6,10
1,-1,-2,0,1,-1,2,-13,-7,-6,-6,11
-1,-2,-2,2,0,-2,1,-14,-8,-7,-6,11
-2,-3,-2,3,0,-3,1,-15,-8,-7,-6,11
0,-2,-2,1,0,-2,1,-15,-8,-7,-6,11
2,0,-2,0,2,-2,1,-15,-8,-7,-6,12
4,1,-3,-2,3,-1,1,-15,-8,-7,-5,12
3,1,-2,-2,2,0,1,-15,-8,-7,-5,12
2,1,-1,-1,1,0,1,-15,-9,-7,-5,12
1,1,0,-1,0,0,1,-16,-9,-7,-5,12
1,1,-1,-1,1,0,1,-16,-9,-6,-4,13
1,0,-1,0,0,0,1,-16,-9,-6,-4,13
-1,-1,0,1,-1,-1,1,-16,-9,-6,-3,14
-3,-2,0,3,-2,-1,1,-16,-9,-6,-3,14
-3,-2,0,3,-2,-1,1,-16,-9,-6,-3,14
-3,-3,0,3,-2,-1,1,-16,-9,-6,-3,14
-3,-3,0,4,-2,-1,1,-16,-9,-6,-3,13
-1,-1,0,2,-1,-1,1,-15,-8,-5,-3,14
1,1,0,0,0,0,2,-14,-7,-4,-2,15
1,2,0,-1,0,0,3,-14,-7,-4,-1,15
0,1,0,0,0,0,3,-13,-6,-4,-1,15
0,0,0,0,-1,0,3,-13,-6,-4,-1,15
0,0,0,0,0,0,3,-13,-7,-4,-1,15
0,0,0,0,0,0,3,-13,-7,-4,-2,15
-1,0,1,1,-1,0,3,-13,-7,-4,-2,14
-2,-1,1,2,-2,0,3,-13,-7,-4,-2,14
-2,-1,1,1,-2,0,3,-12,-7,-4,-2,14
-3,0,2,2,-3,0,3,-12,-7,-4,-1,14
-4,-1,3,3,-4,0,4,-11,-6,-4,-1,14
-5,-2,3,4,-4,0,4,-11,-6,-4,-1,14
-5,-2,2,4,-4,0,4,-11,-6,-4,-1,14
-4,-1,3,3,-4,1,4,-10,-5,-4,-1,15
-4,0,4,3,-4,2,4,-9,-5,-3,-1,15
-4,0,4,3,-4,2,4,-9,-5,-4,-1,14
-3,0,3,2,-3,2,4,-9,-5,-4,-2,14
-2,1,2,1,-3,2,4,-9,-5,-4,-2,14
-2,1,2,1,-3,2,4,-9,-5,-4,-2,14
-2,1,2,1,-3,2,4,-9,-5,-4,-1,14
-4,1,3,2,-5,3,5,-8,-4,-3,-1,14
-5,1,5,2,-5,4,6,-7,-4,-3,0,15
-4,1,4,2,-5,3,6,-7,-3,-3,0,14
-3,1,4,2,-4,3,6,-7,-3,-3,0,14
-3,1,4,1,-4,3,6,-6,-3,-2,0,14
-3,1,5,2,-4,3,6,-6,-3,-2,0,14
-4,0,5,2,-5,3,6,-6,-3,-2,0,14
-5,0,5,3,-5,3,6,-6,-3,-2,0,14
-4,0,4,2,-4,3,6,-6,-3,-2,0,14
-2,1,3,1,-2,3,6,-5,-2,-2,0,14
0,2,2,0,-1,3,6,-5,-2,-2,0,14
0,2,2,-1,-1,3,6,-5,-2,-2,0,13
-1,1,3,0,-2,2,6,-5,-2,-2,0,13
-3,0,4,1,-4,2,6,-5,-2,-2,0,13
-4,0,4,2,-5,2,6,-5,-2,-2,0,13
-5,0,4,3,-5,2,6,-5,-2,-2,0,13
-6,0,4,3,-6,2,6,-5,-2,-2,0,13
-5,0,5,3,-6,3,6,-5,-2,-2,0,13
-5,0,5,3,-6,3,6,-5,-2,-2,0,13
-4,0,5,2,-5,3,6,-5,-3,-2,0,13
-3,0,5,2,-5,3,6,-5,-3,-2,0,13
-3,1,4,1,-4,3,6,-5,-4,-2,-1,13
-2,1,3,1,-3,2,5,-5,-4,-2,-1,13
-2,1,3,1,-3,2,5,-6,-4,-2,-1,13
-3,1,4,1,-4,3,5,-6,-4,-2,-1,13
-4,1,5,2,-5,3,4,-6,-4,-2,-1,13
-6,0,5,3,-6,2,4,-7,-5,-3,-1,12
-7,-1,5,4,-6,2,3,-8,-6,-3,-1,12
-5,0,6,3,-6,3,3,-7,-5,-3,-1,13
-3,1,6,1,-5,4,3,-7,-5,-2,0,14
-2,1,5,1,-4,3,3,-8,-5,-2,0,14
-1,1,4,1,-3,3,3,-9,-5,-3,0,13
0,2,3,0,-3,3,3,-9,-5,-3,0,13
-1,2,3,0,-3,3,3,-9,-5,-3,0,13
-1,2,4,0,-3,3,3,-9,-5,-3,0,14
-2,2,4,0,-3,3,3,-9,-5,-3,0,14
-2,1,4,0,-3,3,3,-9,-5,-3,0,14
-2,0,4,1,-3,2,3,-9,-6,-3,0,14
-2,0,4,1,-3,2,3,-9,-6,-3,0,14
-2,0,4,1,-3,2,3,-10,-6,-3,0,14
-2,0,4,1,-3,2,3,-10,-6,-3,0,14
-2,1,3,0,-3,2,3,-10,-6,-3,0,14
-2,1,3,0,-3,2,2,-10,-7,-3,0,14
-2,0,3,0,-3,1,2,-11,-8,-4,0,13
-1,0,2,0,-2,1,1,-12,-8,-4,0,13
-1,1,2,0,-1,2,0,-12,-8,-4,0,13
-1,1,3,0,-2,2,0,-11,-8,-3,0,14
-2,0,3,0,-2,2,0,-11,-7,-3,0,14
-2,0,3,0,-2,2,0,-11,-7,-3,0,13
-1,1,2,0,-2,2,0,-11,-7,-3,0,13
0,2,2,0,-1,2,1,-11,-7,-3,0,13
0,2,2,-1,-2,2,1,-11,-7,-3,0,13
0,2,3,-1,-2,3,1,-11,-8,-3,0,13
0,2,3,-1,-2,3,0,-11,-8,-3,0,13
0,2,3,-1,-2,3,0,-11,-8,-3,0,14
0,2,3,-1,-2,3,0,-11,-8,-3,1,14
0,2,3,-1,-2,3,0,-12,-8,-3,1,14
0,3,3,-1,-2,3,0,-12,-8,-3,0,13
0,2,3,-1,-2,3,-1,-12,-8,-3,0,13
-1,0,1,1,-2,1,-1,-13,-9,-4,0,12
-1,-2,0,2,-1,0,-1,-13,-10,-4,-1,11
0,0,1,0,-1,0,-1,-13,-9,-4,0,12
0,1,2,0,-1,2,0,-12,-9,-3,0,13
0,1,2,-1,-1,2,0,-12,-9,-4,0,13
1,1,1,-1,-1,2,-1,-13,-9,-4,0,13
1,1,1,-1,-1,1,-1,-13,-9,-4,0,13
0,0,1,0,-1,1,0,-13,-9,-4,0,13
-1,1,2,0,-2,2,0,-13,-8,-3,0,13
0,1,3,0,-2,2,0,-13,-8,-3,0,13
0,1,2,0,-2,2,0,-13,-9,-4,0,13
-1,0,2,1,-2,1,-1,-14,-10,-4,0,13
0,1,2,0,-2,1,-1,-13,-10,-4,0,13
1,3,2,-1,-1,2,-1,-12,-9,-4,1,14
1,3,2,-2,-1,3,0,-12,-9,-4,2,14
1,3,1,-2,-1,2,-1,-13,-9,-4,1,14
2,3,1,-2,0,2,-1,-13,-9,-4,1,14
2,3,1,-2,0,1,-1,-13,-9,-4,1,14
1,2,2,-1,0,1,-1,-13,-9,-4,1,14
0,2,3,-1,-1,2,-1,-12,-9,-3,1,14
1,2,2,-1,-1,2,-1,-12,-9,-3,1,14
0,2,2,-1,-1,2,-2,-12,-9,-4,1,13
0,2,2,0,-2,2,-2,-12,-10,-4,1,13
-1,1,2,1,-2,1,-2,-12,-10,-5,1,13
-2,0,2,1,-2,1,-2,-12,-10,-5,0,13
-2,1,2,1,-2,1,-2,-12,-10,-5,0,12
0,1,2,0,-1,1,-1,-12,-10,-5,0,13
0,1,2,0,-1,1,-1,-12,-10,-5,0,13
0,1,2,0,0,1,-2,-12,-10,-5,0,13
1,1,1,-1,0,1,-2,-12,-10,-5,1,13
1,1,1,-1,0,1,-2,-12,-10,-5,1,13
1,1,1,-1,0,1,-2,-12,-10,-4,1,13
1,1,1,-1,0,1,-2,-12,-10,-4,1,13
0,1,1,0,0,0,-2,-12,-10,-5,1,12
0,0,1,0,0,0,-2,-12,-11,-5,0,12
0,1,1,0,0,0,-2,-12,-11,-5,1,12
1,1,1,0,0,1,-2,-12,-10,-5,1,12
0,1,1,0,-1,1,-2,-12,-10,-5,1,12
-1,0,2,0,-2,1,-2,-12,-10,-5,1,12
-1,1,2,0,-2,1,-1,-12,-10,-5,1,13
1,3,2,-1,-1,2,-1,-11,-9,-5,2,14
3,5,2,-3,0,3,0,-11,-9,-4,2,14
3,6,2,-4,1,4,0,-10,-8,-4,3,15
3,6,3,-4,0,4,0,-10,-8,-4,3,15
2,5,3,-4,0,4,0,-10,-8,-4,3,15
1,4,3,-3,0,4,0,-10,-8,-4,3,15
1,4,4,-3,-1,4,0,-9,-8,-4,3,15
1,5,4,-3,-1,5,0,-9,-8,-3,3,15
1,5,5,-3,-2,6,1,-8,-7,-3,4,15
2,6,5,-4,-2,6,1,-8,-7,-3,4,15
2,7,6,-4,-2,6,1,-8,-7,-3,4,15
2,7,7,-4,-2,7,1,-8,-7,-3,4,15
1,8,8,-4,-3,7,2,-8,-7,-2,4,15
2,8,8,-4,-3,8,2,-8,-7,-2,4,16
2,8,7,-5,-2,8,2,-8,-7,-2,4,16
2,9,7,-5,-2,8,2,-8,-7,-2,4,16
2,9,8,-5,-3,9,2,-7,-6,-2,4,16
2,10,8,-6,-3,9,1,-7,-6,-2,5,16
3,11,8,-7,-2,9,1,-8,-6,-2,5,16
4,12,8,-8,-2,10,0,-8,-6,-1,5,16
3,12,9,-7,-2,10,-1,-8,-6,-1,6,17
3,12,10,-7,-3,10,-1,-9,-6,0,6,18
3,12,9,-7,-3,10,-2,-9,-7,-1,6,18
4,12,8,-7,-2,10,-3,-10,-7,-1,6,18
3,11,8,-7,-1,9,-4,-11,-8,-2,6,17
1,8,8,-4,-2,8,-6,-12,-9,-3,5,17
-1,6,8,-2,-4,7,-7,-13,-10,-3,4,16
0,6,7,-2,-3,6,-7,-13,-9,-3,4,16
3,8,6,-5,-1,6,-7,-12,-9,-3,4,16
5,9,5,-6,0,6,-7,-12,-8,-3,5,16
5,9,5,-7,0,6,-8,-12,-8,-3,5,17
6,10,5,-8,1,7,-8,-12,-8,-2,5,17
7,12,5,-10,2,8,-7,-11,-8,-2,6,18
8,12,4,-10,2,8,-7,-10,-8,-1,6,18
7,11,4,-10,2,8,-7,-10,-8,-1,6,18
7,11,3,-9,2,7,-7,-10,-8,-1,6,17
6,10,4,-8,2,7,-6,-10,-9,-2,5,16
4,8,5,-6,0,6,-6,-11,-9,-2,4,15
3,7,5,-5,-1,6,-5,-11,-10,-3,3,15
2,7,5,-5,-1,6,-5,-11,-10,-3,3,14
2,6,5,-4,-1,5,-4,-11,-10,-3,3,14
1,5,5,-3,-2,5,-4,-11,-10,-3,2,13
0,4,5,-2,-2,5,-4,-11,-10,-4,2,13
-1,2,4,-1,-1,3,-4,-11,-10,-4,1,13
0,2,3,-1,0,2,-4,-11,-10,-5,1,13
0,2,3,-1,0,2,-4,-11,-10,-5,1,12
0,2,2,-1,0,1,-4,-11,-11,-5,1,12
1,2,3,-1,0,2,-4,-11,-11,-5,1,12
1,3,3,-2,-1,3,-4,-10,-11,-5,1,12
1,3,4,-2,-1,3,-4,-10,-11,-6,1,12
0,2,3,-1,-1,2,-4,-11,-12,-6,1,12
0,1,3,0,-1,2,-5,-11,-12,-7,0,11
0,2,3,0,-1,2,-5,-10,-12,-6,0,11
0,2,3,-1,-1,2,-4,-10,-11,-6,1,11
0,2,2,0,-1,1,-4,-10,-11,-6,1,11
-1,0,2,1,-2,0,-4,-10,-12,-6,0,11
-2,-1,1,2,-2,0,-5,-10,-13,-7,0,10
-2,-1,1,1,-1,-1,-5,-10,-13,-7,-1,10
0,0,1,0,0,0,-4,-10,-13,-7,0,10
1,1,1,-1,0,1,-4,-9,-13,-7,0,11
1,1,2,-1,0,1,-4,-9,-12,-7,0,10
0,0,2,1,-1,0,-4,-9,-12,-7,0,10
-1,0,1,1,-1,0,-4,-9,-12,-7,0,10
0,1,1,0,0,0,-4,-9,-12,-7,0,10
0,1,1,0,0,0,-4,-9,-12,-7,0,10
0,0,1,0,0,0,-4,-9,-12,-7,-1,9
-1,0,2,1,-1,0,-4,-9,-12,-7,-1,9
-2,0,3,1,-2,1,-3,-9,-12,-7,-1,10
-2,0,2,1,-2,1,-3,-8,-12,-7,-1,10
-2,0,2,1,-2,1,-3,-8,-11,-6,0,10
-2,0,2,1,-2,1,-3,-7,-11,-6,0,10
-1,0,1,1,-1,0,-3,-7,-11,-5,0,11
-1,0,1,0,0,0,-3,-7,-11,-5,1,11
0,0,1,0,0,1,-2,-7,-11,-5,1,11
0,0,2,0,0,1,-2,-7,-11,-5,1,11
-1,0,2,0,0,0,-3,-8,-11,-5,1,11
0,0,1,0,0,0,-3,-8,-11,-5,1,11
1,1,0,0,1,0,-3,-8,-11,-5,1,11
1,0,0,-1,2,0,-4,-8,-11,-6,0,10
1,0,-1,0,2,-1,-4,-8,-11,-6,0,10
0,0,0,0,1,0,-3,-7,-11,-6,0,10
-1,0,1,1,-1,0,-1,-5,-9,-5,0,10
-4,-1,4,3,-3,1,1,-1,-8,-5,0,9
-6,0,6,3,-5,2,4,2,-6,-4,-1,8
-6,1,8,3,-7,4,7,7,-4,-3,0,8
-8,2,11,3,-9,6,9,11,0,0,1,9
-10,2,12,5,-11,6,11,15,3,2,3,10
-8,2,11,4,-10,6,12,20,8,6,7,11
-3,4,9,0,-6,6,14,27,15,12,12,14
3,6,4,-4,0,5,15,36,24,20,20,19
11,7,-3,-9,7,3,15,45,34,30,31,25
22,8,-13,-15,17,-1,15,56,48,43,45,33
34,10,-23,-22,29,-5,15,69,66,60,63,43
46,13,-31,-29,38,-8,16,85,87,79,82,54
56,17,-37,-36,47,-10,16,99,108,99,101,66
67,22,-44,-44,56,-11,15,108,127,118,120,78
80,28,-51,-54,66,-11,10,113,144,136,140,91
93,35,-56,-64,75,-11,4,113,155,150,157,103
103,39,-62,-70,83,-12,-3,106,155,154,162,108
109,36,-71,-72,90,-18,-10,94,143,143,154,104
112,28,-83,-70,98,-28,-16,77,121,123,134,91
109,17,-91,-63,100,-37,-20,56,95,96,108,74
95,8,-86,-52,91,-39,-20,29,63,66,78,56
73,2,-69,-38,72,-34,-18,-4,26,32,43,36
48,-2,-48,-23,49,-25,-17,-39,-13,-3,7,16
25,-7,-31,-9,28,-19,-17,-70,-49,-34,-23,-1
7,-14,-20,3,14,-17,-19,-95,-79,-59,-47,-16
-5,-21,-15,13,4,-18,-23,-112,-100,-77,-63,-27
-13,-27,-13,20,0,-20,-28,-123,-114,-89,-74,-36
-17,-32,-15,25,-1,-24,-35,-128,-121,-96,-80,-42
-19,-37,-18,28,0,-28,-41,-128,-124,-99,-83,-46
-20,-41,-20,30,0,-30,-45,-124,-123,-100,-84,-49
-20,-41,-20,31,0,-31,-46,-117,-119,-97,-83,-49
-20,-40,-19,30,0,-30,-46,-109,-112,-92,-78,-47
-20,-38,-17,29,-1,-28,-45,-99,-103,-86,-72,-43
-18,-34,-15,26,-1,-25,-42,-88,-92,-78,-64,-39
-17,-29,-13,23,-1,-21,-37,-75,-81,-68,-55,-33
-15,-26,-11,21,-1,-19,-31,-63,-69,-58,-47,-27
-12,-23,-10,18,0,-17,-26,-50,-58,-49,-39,-22
-10,-20,-10,15,0,-15,-20,-39,-49,-42,-33,-18
-10,-18,-7,14,0,-13,-14,-29,-40,-35,-27,-14
-11,-17,-5,14,-2,-11,-10,-21,-34,-30,-23,-11
-11,-16,-3,13,-3,-10,-6,-14,-28,-26,-19,-9
-8,-12,-2,10,-3,-7,-3,-7,-22,-21,-14,-6
-5,-7,0,6,-2,-4,-1,-1,-17,-16,-10,-2
-4,-4,1,4,-2,-2,1,2,-13,-13,-7,0
-5,-3,2,4,-3,-1,1,4,-11,-11,-5,2
-5,-3,2,4,-3,-1,1,5,-10,-10,-4,3
-5,-4,2,4,-3,-2,1,5,-9,-10,-4,3
-5,-4,1,4,-2,-2,1,6,-9,-10,-4,2
-4,-4,1,3,-1,-2,1,7,-8,-9,-4,2
-3,-3,1,2,-1,-1,2,8,-6,-8,-2,3
-3,-2,2,3,-2,-1,2,9,-5,-7,-1,4
-5,-3,2,4,-3,-1,2,10,-5,-6,-1,5
-4,-3,2,4,-3,-1,2,11,-4,-5,0,6
-2,0,2,2,-2,0,3,12,-3,-3,0,7
-2,0,2,1,-2,1,4,12,-3,-2,1,7
-3,0,4,1,-4,1,4,12,-2,-2,1,8
-3,0,4,2,-4,1,4,13,-2,-2,1,8
-3,0,3,2,-3,1,4,13,-2,-2,1,8
-3,-1,3,2,-3,0,3,13,-2,-2,1,8
-2,-1,2,2,-2,0,3,14,-2,-2,1,8
-2,-1,2,2,-2,0,3,14,-2,-2,1,7
-3,-2,2,3,-3,0,3,14,-2,-2,1,7
-4,-2,2,3,-3,0,3,14,-2,-2,1,7
-3,-1,2,2,-3,0,3,15,-1,-1,2,8
-4,-1,2,2,-3,0,3,15,0,-1,2,8
-4,-2,2,2,-3,0,3,16,0,-1,2,8
-4,-1,3,2,-3,0,4,16,0,0,3,8
-4,-1,4,3,-3,0,4,17,0,0,3,9
-5,-2,4,3,-4,0,4,17,0,0,3,9
-5,-2,3,4,-4,0,3,17,0,-1,3,9
-3,-1,3,2,-3,0,3,17,0,0,3,9
0,0,2,0,-1,0,3,17,0,0,3,8
0,0,1,0,-1,0,2,17,0,0,3,8
-1,-1,1,1,-2,0,2,18,0,0,3,7
-3,-1,2,2,-3,0,2,18,1,0,3,8
-4,-1,3,3,-3,0,2,19,1,0,4,8
-4,-1,3,3,-3,0,2,19,1,0,4,8
-4,-1,2,3,-3,0,2,19,1,0,4,8
-3,-1,2,2,-2,0,2,19,1,0,3,8
-2,-1,1,1,-2,0,2,19,1,0,3,8
-1,0,1,1,-2,0,3,19,1,0,4,8
-2,-1,1,2,-2,0,3,18,1,0,3,7
-3,-2,1,3,-2,-1,3,18,1,0,3,7
-3,-2,1,3,-2,-1,3,19,2,0,3,7
-3,-2,1,3,-2,0,2,20,2,1,3,7
-4,-2,2,3,-2,0,2,20,3,1,3,7
-4,-2,2,3,-2,0,2,21,3,1,3,7
-4,-1,2,2,-3,0,3,22,4,1,3,8
-4,-1,2,3,-3,0,3,22,4,1,3,8
-5,-2,2,3,-4,0,3,23,5,1,3,8
-5,-2,2,3,-3,0,3,23,5,1,3,8
-4,-2,1,3,-3,-1,3,23,4,1,3,8
-4,-2,1,3,-2,-1,3,24,4,1,3,8
-4,-2,1,3,-2,-1,3,24,5,2,3,8
-3,-2,2,3,-2,0,3,25,5,2,4,8
-3,-1,2,2,-2,0,3,26,6,2,4,8
-3,-2,2,3,-3,0,3,26,6,2,4,7
-3,-2,2,3,-3,0,2,26,6,2,4,7
-4,-2,2,2,-3,0,2,27,6,2,4,7
-5,-3,3,3,-3,0,2,27,6,2,4,7
-5,-3,2,4,-3,-1,1,28,6,2,4,6
-4,-3,1,4,-3,-1,1,28,7,2,4,6
-3,-2,1,3,-2,0,2,30,8,3,4,6
-4,-2,1,3,-2,0,2,31,8,3,4,6
-5,-2,2,3,-2,0,3,31,8,3,4,6
-5,-2,2,3,-3,0,3,32,9,3,4,7
-5,-2,2,3,-3,0,3,33,9,3,4,7
-5,-2,3,3,-3,0,3,33,10,4,5,7
-7,-4,3,6,-4,-1,2,34,9,3,4,7
-7,-5,2,6,-4,-2,2,34,9,3,4,6
-3,-3,1,4,-2,-1,2,36,9,3,4,6
-2,0,2,2,-1,1,3,38,11,4,5,7
-2,0,3,1,-2,2,4,39,13,5,6,7
-2,0,3,1,-2,2,4,40,13,5,6,7
-2,0,2,1,-2,2,4,41,13,5,6,7
-2,0,2,1,-3,1,4,42,14,6,6,7
-3,0,2,2,-3,1,5,43,14,6,6,7
-3,-1,2,2,-3,1,5,44,15,6,6,7
-3,-1,2,3,-3,0,5,45,15,6,6,7
-3,-1,2,3,-3,1,5,46,16,7,6,7
-3,-1,2,3,-3,0,6,47,16,7,6,7
-3,-1,2,3,-3,0,6,48,16,7,5,6
-3,-1,2,3,-3,0,6,50,17,7,6,6
-3,-1,2,3,-3,1,6,51,18,7,6,6
-3,0,3,2,-4,1,7,53,19,8,7,6
-3,0,3,2,-4,2,7,55,21,9,7,6
-3,1,3,1,-4,3,7,56,21,9,7,6
-2,1,3,0,-3,2,7,57,22,10,7,6
-1,1,3,0,-2,2,7,58,22,10,7,6
-2,1,4,1,-3,2,8,59,23,10,7,6
-3,1,5,1,-4,3,9,61,24,10,7,6
-4,1,6,2,-4,3,10,63,25,11,7,6
-5,1,6,2,-5,3,10,64,25,11,7,6
-5,0,6,2,-5,3,11,66,26,11,7,5
-4,1,6,1,-5,4,11,67,27,11,8,5
-4,2,7,0,-5,5,12,69,28,12,8,5
-4,3,7,0,-5,5,13,71,29,12,8,5
-5,3,8,1,-6,5,13,72,29,12,7,5
-5,3,8,1,-6,5,14,73,29,12,7,5
-4,4,8,0,-5,6,14,74,30,12,7,5
-2,5,8,-1,-4,6,15,75,31,12,7,5
-2,4,7,-1,-4,6,15,76,31,12,6,4
-2,4,7,-1,-4,5,14,77,31,12,6,3
-1,5,7,-2,-4,5,15,78,32,13,6,3
-2,4,7,-1,-4,5,15,79,32,13,6,2
-5,3,7,1,-6,4,15,79,32,12,5,2
-6,2,8,2,-7,4,16,80,32,12,4,1
-5,4,8,1,-6,5,16,80,32,12,4,1
-3,6,8,-1,-5,6,17,81,33,12,4,1
-2,7,8,-2,-5,7,17,82,33,12,4,0
-2,7,9,-2,-5,7,18,83,33,12,4,0
-2,7,9,-2,-5,7,18,83,33,11,4,0
-2,7,8,-2,-4,7,18,84,33,11,3,-1
-2,6,8,-2,-4,7,18,84,33,10,2,-1
-1,6,7,-2,-4,7,19,84,33,10,1,-2
0,7,7,-3,-3,7,19,84,33,10,1,-3
0,7,7,-3,-3,8,19,84,33,9,0,-3
-2,6,8,-2,-4,7,19,83,32,9,-1,-4
-3,4,9,0,-5,6,18,82,31,8,-2,-5
-3,4,8,0,-4,5,18,81,30,7,-3,-6
-4,3,7,1,-4,4,18,80,29,6,-4,-8
-4,2,8,1,-5,5,18,80,28,5,-5,-8
-3,4,8,0,-5,6,18,80,28,5,-5,-8
-3,4,7,0,-5,6,18,78,28,5,-5,-9
-3,4,6,0,-4,5,18,76,27,4,-7,-10
-3,3,6,0,-4,4,18,75,26,3,-7,-11
-2,3,5,0,-3,4,18,73,25,2,-8,-11
-1,3,4,0,-2,3,18,72,23,1,-9,-12
-1,3,4,0,-2,2,17,71,22,0,-9,-13
-1,1,3,1,-2,2,16,69,21,-1,-10,-14
-4,-1,3,3,-3,0,15,66,19,-2,-12,-16
-6,-4,2,5,-4,-1,13,63,17,-4,-14,-17
-5,-3,2,5,-3,-1,13,61,16,-5,-15,-18
-3,-1,1,2,-2,-1,12,60,15,-5,-15,-19
0,0,0,1,0,-1,12,58,14,-6,-15,-19
0,-1,-1,1,0,-2,11,56,13,-6,-15,-19
-1,-2,-1,2,0,-2,11,54,12,-7,-15,-19
-1,-3,-1,2,0,-2,10,52,11,-7,-15,-19
-1,-3,-3,2,1,-3,9,50,10,-8,-16,-20
0,-4,-4,2,2,-4,8,47,9,-9,-16,-20
-1,-4,-4,3,1,-4,8,45,8,-9,-16,-20
-2,-4,-2,3,0,-4,8,43,8,-9,-16,-20
-3,-5,-2,4,-1,-4,7,41,7,-10,-16,-20
-3,-6,-2,5,-1,-5,6,39,6,-11,-16,-20
-3,-7,-3,5,0,-6,5,37,5,-11,-16,-20
-3,-7,-4,6,0,-6,4,34,4,-11,-15,-20
-3,-8,-4,6,0,-6,3,32,3,-11,-15,-20
-2,-7,-5,5,1,-6,2,30,2,-11,-15,-20
-1,-6,-6,4,2,-6,1,28,1,-11,-15,-19
0,-6,-6,3,3,-6,1,26,0,-11,-15,-19
-1,-6,-5,4,2,-6,0,24,0,-11,-14,-18
-2,-7,-5,5,1,-7,-1,22,-1,-11,-13,-18
-2,-7,-5,5,1,-7,-1,20,-1,-11,-12,-17
-2,-6,-4,4,1,-6,-1,19,-1,-10,-11,-16
-3,-6,-3,4,1,-5,-1,17,-1,-9,-10,-15
-4,-6,-3,5,0,-5,-2,15,-2,-9,-9,-14
-4,-7,-3,6,0,-6,-3,13,-3,-10,-9,-14
-3,-8,-5,6,1,-7,-4,11,-5,-10,-9,-14
-2,-7,-5,5,2,-7,-5,9,-5,-10,-9,-14
-2,-7,-4,5,1,-7,-6,8,-6,-10,-9,-13
-5,-7,-2,7,-1,-6,-6,7,-6,-9,-8,-12
-7,-8,-1,8,-2,-5,-6,6,-6,-9,-7,-12
-7,-8,-1,8,-2,-5,-7,5,-6,-8,-6,-11
-6,-7,-1,6,-1,-4,-7,4,-6,-8,-5,-11
-5,-6,-1,5,-1,-4,-7,3,-6,-8,-5,-10
-4,-6,-1,5,-1,-3,-7,3,-6,-8,-4,-9
-4,-6,-1,5,-1,-3,-7,2,-6,-7,-3,-9
-5,-6,-1,5,-1,-3,-7,1,-6,-7,-3,-8
-5,-6,0,6,-2,-3,-7,1,-6,-7,-2,-8
-5,-6,0,6,-2,-2,-7,0,-6,-7,-2,-8
-5,-5,0,5,-3,-2,-7,0,-6,-6,-1,-7
-5,-6,0,5,-2,-2,-7,0,-7,-6,-1,-7
-6,-7,0,6,-3,-3,-7,-1,-7,-6,-1,-7
-8,-7,1,7,-4,-3,-7,-1,-8,-6,-1,-7
-9,-8,2,8,-5,-3,-7,-2,-8,-6,-1,-6
-10,-8,1,8,-5,-3,-8,-3,-9,-6,-1,-7
-8,-7,1,8,-4,-3,-8,-3,-9,-6,-1,-7
-7,-6,0,7,-3,-3,-8,-3,-9,-6,-1,-7
-6,-6,0,6,-3,-3,-9,-3,-9,-6,-1,-7
-5,-6,0,6,-2,-3,-9,-3,-9,-6,-1,-7
-6,-6,0,6,-3,-3,-9,-3,-9,-6,0,-7
-7,-6,2,7,-4,-2,-9,-2,-8,-5,0,-6
-8,-6,3,7,-4,-1,-8,-2,-8,-5,1,-6
-8,-6,2,7,-4,-2,-8,-3,-8,-5,1,-6
-8,-6,2,7,-4,-2,-8,-3,-8,-5,1,-6
-8,-6,2,7,-4,-2,-8,-2,-7,-4,1,-6
-9,-6,3,8,-5,-1,-8,-2,-7,-4,1,-6
-9,-6,3,8,-5,-1,-8,-2,-6,-4,1,-6
-8,-5,4,7,-5,-1,-7,-2,-6,-3,2,-5
-8,-4,4,6,-5,0,-7,-1,-6,-3,2,-5
-8,-5,3,7,-5,0,-7,-1,-6,-3,2,-5
-8,-5,3,7,-5,-1,-7,-1,-6,-3,2,-5
-8,-5,3,7,-5,-1,-7,-1,-6,-3,2,-5
-8,-5,3,6,-5,-1,-7,-1,-5,-2,2,-5
-6,-4,2,5,-4,-1,-7,-1,-5,-2,2,-5
-6,-4,2,5,-4,-1,-7,-1,-5,-2,2,-5
-7,-5,2,6,-4,-1,-7,-1,-5,-2,2,-6
-9,-6,3,7,-6,-1,-7,-1,-5,-2,2,-6
-9,-6,3,7,-6,-1,-7,0,-4,-1,2,-6
-9,-6,3,7,-6,0,-7,0,-3,-1,3,-6
-9,-6,3,7,-6,0,-7,0,-3,-1,3,-6
-9,-6,3,7,-6,0,-7,0,-3,-1,3,-6
-9,-6,3,7,-6,0,-7,0,-3,-1,3,-6
-8,-5,3,7,-5,0,-7,0,-3,-1,3,-6
-7,-4,3,6,-4,0,-7,0,-3,-1,3,-6
-7,-4,3,5,-4,0,-7,1,-2,-1,4,-6
-7,-4,4,5,-4,0,-7,1,-2,-1,4,-6
-7,-4,4,5,-4,0,-7,1,-2,0,4,-7
-8,-4,3,5,-4,0,-7,0,-2,0,4,-7
-8,-5,3,6,-4,0,-7,0,-2,0,3,-8
-8,-5,3,6,-4,0,-7,0,-2,0,3,-8
-7,-5,3,6,-4,0,-8,0,-2,-1,3,-8
-8,-5,3,7,-4,0,-8,0,-2,-1,3,-8
-9,-5,4,7,-6,0,-7,0,-2,-1,3,-8
-9,-4,5,7,-6,0,-7,0,-2,-1,3,-8
-8,-4,4,6,-5,0,-7,-1,-2,-1,3,-9
-7,-4,4,6,-5,0,-7,-1,-3,-1,3,-9
-6,-4,3,5,-4,0,-7,0,-3,-1,4,-9
-5,-3,3,5,-4,1,-7,0,-2,0,4,-9
-6,-4,3,5,-5,0,-7,-1,-2,0,4,-9
-6,-5,3,6,-5,0,-7,-1,-2,-1,3,-9
-6,-4,3,5,-4,0,-7,-2,-2,-1,3,-9
-6,-4,3,5,-4,0,-8,-2,-3,-1,3,-9
-7,-4,3,6,-5,0,-8,-3,-3,-1,3,-10
-7,-4,3,6,-5,0,-9,-3,-3,-1,3,-10
-8,-4,3,6,-6,0,-9,-4,-3,-1,3,-10
-9,-5,3,7,-6,0,-10,-4,-4,-1,3,-10
-8,-4,4,7,-6,1,-9,-4,-4,-1,4,-10
-7,-3,4,5,-5,1,-9,-4,-4,0,4,-10
-6,-3,4,5,-4,0,-10,-4,-4,-1,3,-10
-6,-4,3,5,-4,0,-10,-5,-5,-2,3,-11
-6,-4,3,5,-4,0,-10,-6,-5,-2,3,-11
-7,-4,3,6,-5,0,-10,-6,-5,-2,3,-11
-8,-5,4,7,-6,0,-9,-6,-5,-2,3,-11
-8,-5,4,7,-6,0,-9,-6,-5,-2,3,-11
-8,-4,4,6,-6,1,-9,-6,-5,-1,3,-11
-7,-3,4,6,-5,1,-9,-7,-6,-1,3,-11
-7,-3,4,6,-5,0,-10,-7,-6,-1,3,-11
-8,-3,4,6,-6,0,-10,-7,-6,-1,3,-11
-8,-3,4,6,-6,0,-10,-8,-6,-1,3,-11
-7,-3,4,5,-5,0,-10,-8,-6,-1,3,-11
-6,-2,3,4,-4,1,-10,-8,-6,-1,3,-11
-6,-2,3,4,-4,1,-11,-8,-6,-1,3,-11
-6,-3,3,4,-4,0,-11,-9,-7,-2,3,-11
-6,-3,3,5,-4,0,-11,-9,-7,-2,3,-11
-7,-4,4,5,-4,0,-11,-9,-7,-2,3,-11
-6,-3,4,5,-4,0,-11,-9,-7,-2,4,-11
-6,-3,3,4,-4,0,-11,-9,-7,-2,4,-11
-6,-3,3,5,-3,0,-12,-10,-7,-2,3,-11
-6,-4,2,5,-3,0,-12,-10,-7,-2,3,-11
-6,-3,3,5,-3,0,-12,-10,-7,-2,3,-11
-4,-2,3,3,-2,0,-12,-10,-7,-2,4,-11
-2,-1,1,2,0,0,-12,-10,-7,-2,4,-11
-3,-2,1,3,-1,0,-13,-11,-8,-3,3,-12
-5,-4,2,5,-2,0,-13,-12,-8,-3,3,-12
-5,-4,2,5,-3,0,-13,-12,-8,-3,3,-12
-5,-4,1,5,-3,-1,-13,-13,-8,-3,3,-12
-5,-4,2,5,-3,-1,-13,-13,-8,-2,3,-12
-5,-4,2,4,-3,0,-13,-13,-7,-2,3,-12
-5,-4,2,4,-3,0,-12,-13,-7,-2,3,-11
-6,-4,2,5,-4,0,-12,-13,-7,-2,3,-11
-8,-4,3,6,-4,0,-12,-12,-7,-2,3,-11
-8,-4,4,6,-5,0,-12,-12,-7,-1,4,-11
-8,-3,4,6,-6,1,-12,-12,-7,-1,4,-11
-7,-3,3,5,-5,0,-13,-13,-8,-2,4,-11
-6,-3,2,4,-4,0,-13,-14,-8,-2,3,-12
-4,-1,2,3,-3,1,-13,-13,-8,-1,4,-11
-3,0,3,2,-3,2,-13,-13,-7,-1,4,-11
-3,-1,3,2,-3,2,-13,-13,-8,-2,4,-11
-4,-2,2,2,-3,1,-14,-13,-8,-2,4,-11
-3,-2,1,2,-2,0,-14,-14,-9,-2,3,-11
-3,-2,1,2,-2,0,-15,-15,-9,-2,3,-11
-3,-2,1,3,-2,0,-15,-15,-9,-2,3,-11
-4,-2,2,3,-3,0,-14,-15,-8,-2,3,-11
-5,-3,3,4,-3,0,-14,-15,-8,-2,3,-12
-5,-3,3,4,-4,0,-14,-15,-8,-2,3,-12
-6,-2,3,4,-4,1,-14,-14,-8,-2,3,-12
-6,-2,4,4,-4,1,-13,-14,-7,-1,4,-11
-5,-1,4,3,-4,2,-13,-14,-7,-1,4,-11
-5,-1,3,4,-3,2,-13,-14,-7,-1,4,-11
-6,-2,3,5,-4,1,-14,-15,-8,-1,4,-11
-7,-3,3,5,-4,1,-14,-15,-8,-1,4,-11
-7,-3,3,5,-4,1,-14,-15,-8,-1,4,-11
-5,-2,2,3,-2,1,-14,-15,-8,-1,3,-11
-3,-2,1,2,-1,0,-15,-16,-9,-2,3,-12
-5,-3,1,4,-3,0,-15,-17,-9,-2,2,-12
-6,-3,2,5,-4,0,-15,-17,-9,-2,2,-12
-6,-3,3,5,-4,0,-15,-17,-9,-1,3,-12
-6,-3,3,5,-4,0,-15,-17,-8,-1,3,-12
-5,-2,3,4,-3,1,-15,-17,-8,-1,3,-12
-4,-1,2,3,-2,1,-15,-17,-8,-1,3,-12
-3,-1,2,2,-2,1,-15,-17,-8,-1,3,-12
-3,0,3,2,-2,1,-15,-17,-8,-1,3,-12
-4,0,3,2,-3,2,-15,-17,-8,-1,3,-12
-4,0,3,2,-3,2,-15,-17,-8,-1,3,-12
-4,0,3,2,-3,2,-15,-17,-9,-1,3,-12
-4,0,3,2,-3,2,-15,-17,-9,-1,3,-12
-4,-1,3,2,-3,1,-15,-17,-9,-2,3,-12
-4,-1,3,2,-3,2,-15,-17,-9,-2,3,-12
-4,-1,4,2,-3,2,-14,-17,-9,-2,3,-12
-5,-1,4,3,-3,1,-14,-17,-9,-2,3,-12
-5,-1,3,3,-3,1,-15,-18,-9,-2,3,-12
-3,0,3,2,-3,2,-14,-18,-9,-1,3,-12
-2,1,3,1,-2,2,-14,-17,-8,0,4,-11
-2,0,3,1,-2,2,-14,-17,-8,0,4,-11
-3,0,3,1,-3,2,-14,-17,-8,0,4,-11
-4,0,3,2,-3,2,-14,-17,-8,0,4,-11
-4,0,4,1,-3,3,-13,-17,-7,0,4,-11
-4,1,5,0,-4,4,-13,-17,-7,0,4,-11
-6,0,6,1,-6,4,-13,-17,-7,0,4,-11
-6,1,6,1,-6,4,-13,-17,-7,0,4,-11
-4,2,5,0,-5,4,-13,-17,-7,0,4,-11
-2,3,5,-1,-4,4,-13,-17,-7,0,4,-11
-2,3,5,-1,-4,5,-13,-17,-7,0,4,-10
-2,5,7,-1,-4,6,-12,-16,-6,1,5,-9
-2,6,9,-1,-5,8,-11,-16,-5,1,6,-8
-4,5,10,-1,-6,8,-11,-16,-5,1,6,-8
-4,5,10,0,-7,8,-11,-16,-5,1,6,-9
-4,5,10,0,-7,8,-11,-16,-5,1,6,-9
-4,6,10,-1,-7,8,-11,-16,-5,2,6,-8
-2,8,10,-2,-6,10,-11,-15,-4,3,7,-7
-2,9,11,-3,-6,11,-11,-15,-3,3,8,-7
-2,9,11,-3,-6,11,-11,-15,-4,3,7,-7
-1,9,10,-4,-6,11,-12,-16,-4,3,7,-7
-1,9,10,-4,-5,10,-13,-17,-4,3,7,-7
0,9,9,-4,-5,10,-15,-18,-5,2,7,-7
0,9,9,-4,-4,10,-15,-18,-5,2,7,-7
0,9,9,-4,-5,9,-16,-19,-5,2,7,-7
0,8,9,-3,-5,9,-17,-19,-6,2,6,-7
0,7,8,-3,-5,8,-18,-20,-7,1,5,-8
0,6,7,-3,-4,7,-20,-21,-8,0,5,-8
0,6,6,-3,-4,7,-21,-22,-8,0,4,-8
-1,6,7,-3,-4,7,-20,-22,-8,0,5,-8
-1,7,9,-3,-5,8,-20,-22,-7,1,6,-7
0,8,9,-3,-4,9,-19,-22,-7,1,6,-6
1,8,8,-4,-3,8,-20,-22,-7,1,6,-6
2,9,7,-5,-2,8,-20,-22,-7,1,6,-6
2,9,6,-5,-2,8,-20,-22,-7,1,6,-6
2,9,6,-5,-1,7,-20,-23,-8,1,6,-6
3,9,5,-6,-1,7,-20,-23,-8,0,5,-6
2,8,5,-5,-1,7,-20,-23,-8,0,5,-6
0,7,6,-4,-3,7,-19,-23,-8,0,5,-7
-1,6,7,-2,-4,7,-19,-23,-9,0,4,-7
-1,5,7,-2,-4,6,-18,-23,-9,0,4,-8
-1,5,7,-2,-4,6,-18,-23,-9,0,4,-8
-1,5,7,-1,-4,6,-17,-22,-8,0,4,-8
-1,4,7,-1,-4,6,-16,-22,-8,0,4,-9
-1,4,6,-1,-4,5,-16,-22,-9,-1,3,-9
-1,3,5,0,-4,5,-16,-22,-9,-1,3,-10
-1,3,5,0,-4,5,-16,-22,-9,-1,3,-10
-2,3,5,0,-3,5,-17,-23,-9,-1,2,-10
-2,2,4,0,-3,4,-17,-23,-10,-2,2,-10
-3,1,4,1,-3,3,-17,-23,-10,-2,1,-11
-3,0,4,2,-3,3,-17,-24,-11,-3,1,-11
-3,0,4,1,-3,3,-17,-24,-10,-3,1,-11
-3,1,4,1,-3,3,-17,-24,-10,-2,1,-10
-3,1,4,0,-3,3,-17,-24,-10,-2,0,-11
-2,1,3,0,-2,3,-17,-24,-10,-2,0,-11
-4,0,3,1,-3,2,-17,-24,-11,-2,0,-11
-6,-2,3,4,-5,1,-17,-24,-11,-3,0,-12
-6,-4,3,5,-4,0,-17,-25,-11,-3,0,-12
-5,-3,3,4,-3,1,-17,-25,-11,-3,0,-12
-4,-2,3,3,-3,1,-16,-24,-11,-3,0,-12
-4,-2,3,4,-3,1,-16,-24,-11,-3,0,-12
-5,-1,3,4,-4,1,-16,-24,-11,-3,0,-11
-3,0,2,2,-3,2,-16,-23,-10,-2,0,-11
-3,0,2,2,-3,2,-15,-23,-10,-2,0,-11
-4,-2,2,3,-3,1,-15,-24,-11,-3,0,-12
-4,-3,2,4,-3,0,-15,-24,-11,-3,-1,-12
-2,-2,1,2,-1,0,-15,-24,-11,-3,-1,-12
-1,-1,1,1,0,0,-15,-24,-11,-3,-1,-13
-1,0,1,1,-1,1,-15,-24,-10,-3,-1,-12
-3,0,2,2,-3,1,-15,-24,-10,-2,0,-12
-5,-1,3,3,-4,1,-16,-23,-10,-2,0,-12
-5,-1,3,3,-4,1,-16,-23,-10,-2,0,-12
-4,-1,2,3,-3,1,-16,-23,-10,-2,0,-12
-5,-1,3,3,-4,2,-15,-23,-9,-2,0,-12
-5,-1,4,3,-4,2,-15,-23,-9,-2,0,-12
-5,-1,4,3,-4,2,-14,-23,-9,-2,0,-12
-4,-1,3,2,-3,2,-15,-23,-9,-2,0,-12
-3,-1,2,2,-2,1,-15,-24,-10,-3,-1,-13
-4,-2,2,3,-3,0,-16,-24,-10,-3,-1,-13
-5,-2,2,4,-4,0,-16,-24,-10,-3,-1,-12
-5,-1,3,4,-4,1,-15,-24,-9,-2,0,-12
-5,0,4,3,-4,2,-14,-23,-9,-2,0,-11
-5,0,4,3,-4,2,-14,-22,-8,-2,0,-12
-5,-1,4,3,-4,2,-12,-20,-8,-2,-1,-13
-6,-1,6,3,-5,3,-10,-16,-7,-2,-2,-14
-8,0,9,4,-8,5,-7,-12,-4,-2,-3,-14
-10,2,12,4,-11,7,-3,-7,-1,0,-2,-13
-12,4,15,4,-13,10,0,-2,2,3,0,-12
-12,5,16,3,-14,11,1,2,7,6,3,-10
-9,5,15,2,-12,11,2,8,12,10,6,-8
-6,5,12,0,-9,9,3,14,18,16,11,-6
-2,4,8,-1,-5,7,4,21,26,23,19,-1
5,5,1,-5,2,4,4,30,37,34,30,5
17,7,-9,-12,13,0,4,41,52,48,45,14
29,10,-19,-19,24,-4,4,55,71,65,62,24
40,14,-27,-27,34,-6,5,70,92,85,81,35
53,21,-33,-37,43,-5,6,83,114,105,101,47
67,28,-39,-47,53,-5,3,91,133,125,121,60
80,35,-44,-57,62,-4,-3,93,149,142,140,73
92,41,-50,-66,71,-4,-12,89,157,154,154,84
102,42,-59,-71,80,-8,-21,78,152,152,154,86
107,36,-70,-71,88,-16,-28,63,135,137,141,78
107,25,-81,-66,94,-27,-33,43,111,114,119,63
102,15,-87,-59,95,-35,-36,19,83,87,92,45
91,8,-83,-49,87,-36,-38,-12,48,55,61,27
70,0,-70,-35,70,-34,-39,-50,6,19,26,6
46,-7,-54,-19,50,-30,-41,-87,-36,-17,-9,-13
24,-17,-41,-3,33,-29,-44,-118,-73,-48,-39,-31
8,-27,-35,10,22,-31,-51,-142,-102,-72,-61,-45
-2,-36,-33,20,15,-34,-59,-157,-121,-89,-75,-55
-10,-44,-33,27,11,-37,-64,-162,-130,-98,-84,-63
-16,-50,-33,33,9,-41,-69,-161,-133,-103,-88,-68
-19,-54,-34,36,8,-43,-71,-154,-130,-103,-89,-70
-20,-54,-33,37,6,-43,-72,-146,-124,-99,-86,-70
-20,-51,-31,35,6,-41,-70,-136,-116,-94,-82,-68
-19,-47,-28,33,5,-38,-66,-125,-107,-87,-76,-65
-18,-43,-24,31,3,-34,-61,-113,-96,-78,-69,-60
-17,-38,-21,28,2,-29,-56,-100,-84,-68,-60,-54
-14,-32,-17,24,2,-24,-49,-86,-71,-58,-51,-47
-12,-26,-14,19,1,-19,-41,-71,-59,-48,-42,-40
-10,-22,-12,16,1,-16,-34,-58,-48,-40,-35,-35
-8,-18,-10,13,1,-13,-27,-46,-39,-33,-29,-32
-7,-16,-8,11,0,-11,-21,-37,-31,-27,-25,-29
-8,-14,-6,10,0,-9,-17,-30,-25,-22,-20,-26
-8,-11,-3,10,-2,-7,-14,-24,-20,-17,-16,-23
-7,-9,-1,9,-2,-5,-12,-20,-15,-13,-13,-20
-8,-7,1,8,-3,-3,-11,-17,-12,-11,-10,-18
-8,-6,1,7,-4,-2,-10,-15,-10,-9,-9,-17
-5,-4,1,5,-2,-1,-9,-14,-9,-8,-8,-16
-3,-2,0,3,-1,0,-8,-12,-7,-6,-7,-15
-3,-2,1,3,-2,0,-8,-11,-6,-5,-6,-15
-4,-2,2,3,-3,1,-7,-10,-5,-4,-5,-14
-6,-3,3,4,-4,1,-6,-9,-4,-3,-5,-14
-7,-4,3,5,-5,1,-6,-8,-4,-3,-5,-14
-6,-4,3,5,-4,0,-6,-8,-3,-2,-4,-13
-5,-3,2,4,-3,1,-6,-7,-2,-2,-4,-13
-6,-3,3,4,-4,1,-6,-7,-2,-1,-3,-12
-6,-2,4,4,-5,2,-6,-6,-1,-1,-3,-12
-6,-1,4,4,-5,2,-6,-6,-1,-1,-2,-11
-6,-2,4,4,-5,1,-6,-6,-1,-1,-3,-11
-7,-3,4,5,-5,1,-6,-6,-1,-1,-3,-11
-5,-2,3,4,-3,1,-6,-6,0,0,-2,-11
-3,-1,3,2,-2,2,-6,-4,0,1,-1,-10
-2,0,3,1,-2,3,-5,-3,1,1,-1,-10
-3,0,4,1,-3,3,-5,-3,1,1,0,-10
-4,0,4,2,-4,3,-5,-2,1,1,0,-10
-6,-1,4,3,-5,3,-5,-2,1,1,0,-10
-5,-1,4,3,-5,3,-4,-2,1,1,0,-10
-4,0,4,2,-4,3,-4,-1,2,2,0,-9
-4,0,4,2,-4,3,-4,-1,2,2,0,-9
-5,0,5,3,-5,3,-4,-1,2,2,0,-9
-4,0,4,3,-5,2,-5,-1,2,2,0,-9
-4,0,4,2,-4,2,-5,-1,2,1,0,-9
-4,0,3,2,-4,2,-5,-1,2,1,0,-9
-3,0,3,1,-3,2,-5,-1,2,1,0,-9
-2,0,3,1,-3,2,-4,-1,2,1,0,-9
-3,0,3,1,-3,2,-4,0,2,1,0,-9
-4,0,4,2,-4,2,-4,0,3,1,0,-9
-3,0,4,2,-4,2,-3,0,3,2,0,-9
-2,1,4,0,-3,3,-3,1,4,2,0,-9
-1,2,4,-1,-2,4,-3,2,4,2,1,-8
0,3,5,-1,-2,4,-3,2,5,3,1,-8
-2,2,5,0,-3,4,-3,3,5,3,1,-8
-4,0,5,2,-4,3,-3,3,4,2,1,-8
-3,0,4,2,-4,3,-3,3,4,2,0,-8
-3,0,3,2,-3,2,-3,3,4,2,0,-8
-3,0,3,2,-3,2,-3,3,4,2,0,-8
-2,0,2,1,-2,2,-3,4,4,2,0,-9
-1,1,2,1,-2,2,-3,4,5,2,0,-9
-2,1,3,1,-3,2,-2,5,6,2,0,-8
-2,1,4,1,-3,3,-2,5,6,2,1,-8
-3,1,4,1,-3,3,-2,6,6,2,1,-8
-3,1,4,2,-3,3,-2,6,6,2,1,-8
-3,0,4,2,-3,3,-1,7,7,2,1,-8
-3,0,4,2,-3,3,-1,7,7,2,1,-8
-2,0,4,1,-3,3,-1,8,7,2,1,-8
-1,1,4,0,-2,3,-1,8,7,2,1,-8
-1,1,4,0,-2,3,0,9,7,2,1,-8
-2,1,4,1,-3,3,0,9,7,2,1,-8
-3,1,5,1,-4,3,0,10,7,2,1,-8
-2,2,5,0,-4,4,0,11,8,2,1,-8
-2,3,5,0,-3,5,0,12,9,3,1,-8
-1,3,5,0,-3,4,0,13,9,3,1,-8
-2,3,5,0,-3,4,0,14,10,3,1,-8
-3,3,7,0,-5,5,1,16,10,3,2,-8
-4,7,11,-2,-8,9,2,20,11,4,4,-7
-4,12,16,-4,-10,14,1,25,10,4,5,-7
-5,13,16,-4,-10,15,0,27,9,3,4,-7
-4,11,14,-3,-9,13,0,26,10,3,4,-7
-3,10,12,-3,-7,11,1,24,11,3,3,-7
-2,8,10,-2,-5,9,1,23,11,3,3,-6
-2,5,8,0,-5,7,1,22,12,3,3,-6
-3,3,6,0,-5,5,1,21,12,3,2,-5
-2,2,5,0,-4,4,2,21,13,3,2,-5
-1,1,3,0,-2,2,2,21,13,3,2,-4
-1,0,1,0,-1,1,2,21,14,3,1,-4
-2,-1,0,1,-1,0,2,21,14,3,1,-3
-2,-1,0,2,-1,0,3,22,15,3,1,-3
-3,-2,0,2,-1,0,3,23,15,3,1,-2
-2,-2,0,2,-1,-1,3,25,15,3,1,-2
0,-1,0,1,0,0,4,27,16,4,2,-1
1,0,0,-1,0,1,5,29,18,5,3,0
1,0,0,-1,0,1,6,30,18,5,3,0
0,0,0,0,0,0,6,31,19,5,2,0
-1,-1,0,1,-1,0,6,32,19,6,2,0
-2,-2,0,2,-1,0,7,34,20,6,2,0
-3,-1,0,2,-2,0,7,36,20,7,3,0
-2,0,2,1,-2,1,8,38,21,8,3,1
-1,2,3,0,-2,3,9,40,23,8,4,2
1,3,3,-2,-1,4,10,42,23,9,5,3
2,4,3,-3,-1,4,11,44,24,9,5,4
2,5,3,-3,-1,5,12,45,26,10,6,4
1,5,3,-3,-1,5,12,47,27,10,6,5
2,5,3,-3,-1,5,13,48,27,11,6,5
2,5,3,-3,0,5,13,49,27,11,5,4
0,4,4,-2,-1,4,13,50,28,10,5,4
-1,3,5,0,-3,4,13,52,28,10,5,4
-1,3,5,-1,-3,5,13,54,29,11,5,4
0,5,6,-2,-3,6,15,56,30,11,5,5
0,6,7,-3,-3,7,16,58,31,12,5,5
0,7,7,-4,-3,8,18,59,32,12,6,6
0,7,7,-4,-3,8,19,61,33,13,6,6
0,8,6,-4,-3,8,19,62,33,13,6,6
1,8,6,-5,-2,8,19,63,34,13,6,6
1,8,6,-5,-2,8,20,64,34,13,6,6
1,8,7,-4,-3,8,20,65,34,13,6,6
-1,7,8,-3,-5,8,20,66,34,13,5,6
-2,7,8,-2,-5,8,20,67,34,13,5,6
0,8,8,-3,-4,8,21,68,34,13,4,6
1,9,8,-5,-3,9,21,69,35,13,4,6
0,9,8,-5,-4,9,22,70,35,13,4,6
0,9,9,-4,-4,9,22,70,36,13,4,6
0,10,10,-4,-5,10,23,71,36,13,4,6
0,10,10,-5,-5,10,23,71,36,13,3,6
0,10,10,-4,-5,10,23,72,36,13,2,5
-1,8,9,-3,-5,10,23,72,35,12,1,4
0,8,9,-3,-4,9,24,72,35,11,0,3
0,8,8,-4,-3,9,24,72,35,11,0,3
0,8,8,-4,-3,9,24,72,34,10,-1,2
0,8,8,-4,-4,9,24,72,34,9,-1,2
0,9,8,-5,-4,9,25,72,34,9,-1,1
2,11,8,-7,-3,10,25,72,34,9,-1,1
2,11,8,-7,-3,10,25,71,33,8,-2,1
1,9,8,-5,-3,9,25,70,32,7,-4,0
1,9,8,-5,-3,9,25,69,31,6,-5,0
2,9,7,-5,-3,9,25,69,31,6,-5,-1
2,8,7,-5,-2,8,24,67,30,5,-6,-1
2,7,6,-4,-2,7,24,66,29,4,-6,-2
2,7,6,-4,-2,6,23,64,28,3,-7,-3
1,7,6,-4,-2,6,23,63,27,3,-8,-3
0,7,6,-3,-2,6,23,61,26,2,-9,-3
0,5,5,-2,-3,6,22,59,24,1,-10,-4
0,4,5,-1,-3,5,22,57,23,0,-11,-5
0,4,4,-1,-2,5,21,55,21,-1,-12,-5
0,3,4,-1,-2,4,20,52,20,-2,-13,-6
0,4,3,-1,-1,4,20,50,19,-3,-13,-6
1,4,2,-2,0,4,19,48,18,-4,-13,-7
2,3,0,-2,1,3,17,46,17,-5,-13,-7
2,3,0,-2,1,2,16,44,15,-5,-14,-8
2,2,-1,-1,2,1,15,41,14,-6,-15,-8
1,0,-2,0,1,0,14,39,12,-7,-16,-9
0,-2,-1,2,0,-1,13,36,10,-8,-17,-10
0,-2,-1,2,0,-1,13,34,10,-8,-17,-10
2,0,-2,0,1,0,12,32,9,-8,-16,-10
3,0,-3,-1,2,0,12,30,9,-8,-16,-9
3,0,-3,-1,3,-1,11,28,8,-9,-16,-9
3,-1,-4,-1,3,-2,9,25,6,-9,-16,-9
2,-2,-4,0,3,-3,8,23,5,-10,-17,-9
2,-3,-5,0,3,-3,6,20,3,-10,-17,-9
3,-4,-6,0,4,-4,5,17,2,-11,-17,-9
2,-4,-6,1,4,-4,5,15,1,-11,-16,-9
2,-4,-6,1,3,-4,4,13,1,-11,-16,-9
2,-4,-6,1,4,-4,3,12,0,-11,-16,-8
3,-3,-6,0,4,-5,3,10,0,-11,-15,-8
1,-4,-6,1,4,-5,2,8,-1,-11,-15,-7
1,-4,-6,1,4,-5,1,6,-1,-10,-14,-7
3,-3,-6,0,5,-4,0,5,-2,-10,-13,-5
4,-2,-6,-1,5,-4,0,3,-2,-9,-12,-4
5,-2,-6,-1,6,-4,0,2,-2,-9,-11,-4
5,-2,-6,-1,6,-4,-1,0,-2,-9,-10,-3
3,-3,-6,0,5,-4,-1,-1,-3,-9,-10,-3
2,-4,-6,1,4,-5,-2,-3,-3,-9,-10,-3
2,-4,-7,0,4,-5,-3,-5,-4,-9,-10,-2
3,-4,-7,0,5,-5,-4,-7,-5,-9,-9,-2
2,-4,-6,1,4,-5,-4,-8,-6,-9,-9,-1
1,-5,-5,2,3,-5,-5,-10,-6,-9,-8,0
0,-4,-4,2,2,-4,-5,-10,-6,-9,-7,0
0,-3,-3,2,2,-3,-5,-11,-6,-8,-6,1
0,-3,-3,2,1,-2,-6,-12,-6,-8,-6,1
0,-3,-3,2,1,-2,-6,-13,-6,-8,-5,2
0,-3,-3,2,1,-2,-6,-14,-6,-7,-5,2
0,-3,-2,2,1,-2,-6,-15,-7,-7,-5,2
0,-3,-2,2,1,-2,-7,-16,-7,-7,-5,3
0,-3,-2,2,1,-2,-7,-16,-8,-7,-4,4
0,-3,-2,2,1,-2,-7,-16,-8,-7,-4,4
0,-2,-3,1,2,-2,-7,-17,-9,-7,-4,5
0,-2,-3,1,2,-2,-7,-17,-9,-7,-4,5
-1,-3,-1,2,0,-2,-7,-17,-9,-7,-4,5
-3,-4,-1,4,0,-2,-7,-18,-9,-7,-4,5
-3,-4,-1,4,0,-2,-7,-18,-9,-7,-4,5
-3,-3,0,4,-1,-1,-7,-18,-9,-6,-3,6
-4,-3,1,4,-2,0,-6,-18,-8,-6,-3,7
-5,-4,1,4,-3,-1,-7,-18,-9,-6,-3,7
-5,-5,1,6,-3,-1,-7,-18,-9,-6,-3,7
-4,-4,1,5,-3,-1,-7,-18,-9,-6,-3,7
-2,-2,1,3,-2,0,-6,-17,-8,-5,-2,7
-2,-1,1,2,-2,1,-5,-17,-7,-5,-1,8
-2,-2,1,2,-2,0,-5,-17,-7,-5,-2,8
-2,-1,1,2,-1,0,-5,-17,-7,-5,-2,8
-2,-1,1,2,-1,0,-5,-17,-7,-4,-1,8
-2,-1,1,2,-1,0,-5,-17,-8,-4,-1,8
-2,-2,1,3,-1,0,-5,-17,-8,-4,-1,8
-2,-2,1,3,-1,0,-5,-16,-8,-4,-1,8
-3,-2,1,3,-2,0,-5,-16,-7,-4,-1,8
-4,-4,1,4,-3,0,-5,-16,-7,-4,-1,8
-6,-5,1,6,-4,-1,-6,-16,-7,-4,-1,7
-7,-5,1,6,-4,-1,-6,-16,-7,-4,-1,7
-6,-4,2,5,-4,0,-5,-15,-7,-4,-1,7
-4,-2,2,3,-3,1,-4,-14,-6,-3,0,8
-3,-2,1,2,-2,0,-4,-14,-6,-4,-1,7
-2,-2,1,3,-2,0,-4,-14,-6,-4,-1,7
-3,-3,1,3,-3,0,-4,-14,-6,-4,-1,7
-4,-2,2,4,-4,1,-3,-14,-5,-4,-1,7
-3,-1,3,3,-3,2,-2,-13,-4,-3,0,8
-2,0,2,1,-2,2,-1,-12,-4,-3,0,8
-3,-1,2,2,-3,1,-2,-12,-4,-3,0,8
-5,-3,2,4,-4,1,-2,-12,-5,-3,-1,7
-6,-3,3,5,-5,1,-2,-12,-5,-3,-1,7
-6,-3,3,4,-5,1,-2,-12,-4,-3,-1,7
-5,-2,3,4,-5,1,-2,-12,-4,-3,-1,7
-5,-2,3,4,-4,1,-2,-12,-4,-3,-1,7
-4,-1,3,3,-4,1,-2,-12,-4,-3,-1,7
-4,-1,3,3,-4,1,-2,-12,-4,-3,-1,7
-5,-1,3,3,-4,1,-2,-12,-4,-3,-1,7
-5,-1,3,3,-4,2,-2,-12,-4,-3,-1,7
-5,-1,3,3,-4,2,-2,-12,-4,-3,-1,7
-6,-2,4,5,-5,1,-2,-12,-4,-3,-2,6
-8,-3,5,6,-6,1,-2,-12,-4,-3,-2,6
-8,-3,6,6,-7,2,-1,-12,-4,-3,-2,6
-9,-3,6,7,-7,2,-1,-12,-4,-3,-2,6
-8,-2,6,6,-7,2,-1,-12,-4,-3,-2,6
-7,-2,6,5,-6,2,-1,-12,-4,-3,-2,6
-6,-1,5,4,-5,2,-1,-12,-4,-2,-2,7
-6,0,5,3,-5,2,-1,-12,-4,-2,-2,7
-6,0,6,4,-6,3,-1,-12,-3,-2,-1,7
-6,0,6,3,-6,3,-1,-12,-3,-2,-1,8
-4,0,5,2,-5,3,-1,-12,-3,-2,-1,8
-3,1,4,2,-4,3,-1,-12,-3,-2,-1,8
-3,1,4,2,-3,2,-1,-12,-3,-2,-1,8
-4,0,4,2,-4,2,-1,-12,-3,-2,-1,8
-6,0,5,3,-5,2,-1,-12,-4,-2,-1,8
-6,-1,5,4,-6,2,-1,-13,-4,-2,-1,8
-6,-1,5,4,-6,2,-1,-13,-4,-2,-1,8
-6,-2,4,4,-6,2,-2,-14,-4,-2,-1,8
-7,-3,4,5,-6,1,-2,-14,-4,-2,-2,8
-7,-3,4,5,-5,1,-3,-15,-4,-3,-2,8
-6,-2,4,4,-5,1,-3,-15,-4,-3,-2,8
-5,-1,4,3,-4,2,-3,-15,-5,-3,-2,8
-4,-1,4,2,-4,2,-3,-15,-5,-3,-2,8
-4,0,4,2,-3,2,-3,-15,-5,-3,-2,8
-4,0,4,2,-3,2,-3,-15,-5,-3,-1,8
-4,0,4,2,-4,2,-3,-15,-5,-3,-1,9
-4,0,4,2,-4,2,-3,-16,-5,-3,-1,9
-4,-1,3,2,-4,2,-3,-16,-6,-3,-1,9
-4,-1,4,2,-4,2,-3,-16,-6,-3,-1,9
-4,-1,4,2,-4,2,-3,-16,-6,-3,-1,9
-5,-1,4,3,-4,1,-4,-17,-6,-3,-1,9
-5,-2,4,3,-4,1,-4,-17,-6,-3,-1,9
-6,-2,3,4,-4,1,-4,-18,-7,-3,-2,9
-5,-2,2,3,-4,0,-5,-18,-7,-4,-2,9
-3,-2,1,2,-3,0,-5,-18,-7,-4,-2,9
-3,-2,1,2,-2,0,-6,-18,-7,-4,-2,9
-3,-2,1,2,-2,0,-6,-18,-7,-4,-2,9
-4,-2,2,3,-3,0,-6,-18,-7,-4,-2,9
-5,-2,4,3,-4,1,-6,-18,-7,-3,-2,10
-4,0,4,2,-4,1,-5,-18,-7,-3,-1,10
-3,0,4,1,-4,2,-5,-18,-7,-3,-1,11
-3,0,4,0,-3,2,-5,-18,-7,-3,-1,11
-2,0,3,1,-3,1,-5,-18,-7,-3,-1,11
-2,0,3,1,-3,1,-5,-18,-7,-3,-1,11
-3,0,3,1,-3,1,-5,-18,-7,-2,-1,12
-3,0,3,2,-3,1,-5,-19,-7,-3,-1,12
-3,0,3,2,-3,1,-6,-19,-8,-3,-1,11
-3,-1,2,3,-3,0,-6,-20,-8,-4,-2,11
-3,-1,2,3,-3,0,-6,-20,-9,-4,-2,11
-3,-1,2,2,-3,0,-6,-20,-9,-4,-2,11
-2,-1,2,2,-2,1,-6,-20,-9,-4,-2,11
-2,-1,2,2,-2,1,-6,-21,-8,-4,-2,11
-2,-1,2,2,-2,1,-6,-21,-8,-4,-2,11
-2,-1,2,2,-2,1,-7,-21,-8,-4,-2,11
-2,-1,2,2,-2,1,-7,-21,-8,-4,-2,11
-2,-1,2,2,-2,1,-7,-21,-9,-4,-2,11
-1,0,2,1,-2,1,-7,-21,-9,-4,-2,11
-1,0,2,0,-2,1,-7,-21,-9,-4,-2,11
-3,-1,2,1,-3,1,-7,-21,-9,-4,-2,11
-4,-1,3,2,-4,1,-7,-21,-9,-4,-2,12
-2,-1,2,1,-3,1,-7,-21,-9,-4,-2,12
0,0,1,0,-1,1,-7,-21,-9,-4,-2,12
0,0,1,1,-1,0,-7,-22,-9,-4,-2,12
-2,0,2,1,-2,1,-7,-21,-9,-4,-1,12
-2,0,3,0,-2,2,-7,-21,-9,-4,-1,12
-1,2,3,0,-2,2,-7,-20,-9,-3,-1,12
-1,2,3,0,-3,2,-7,-21,-9,-3,-1,12
-2,1,3,1,-3,2,-7,-21,-9,-4,-1,12
-4,0,3,2,-4,1,-8,-22,-9,-4,-2,12
-3,-1,2,2,-3,0,-8,-22,-9,-4,-2,12
0,0,1,1,0,0,-8,-22,-9,-4,-2,12
2,0,0,0,1,0,-8,-23,-9,-5,-2,11
0,0,0,0,0,0,-8,-23,-9,-5,-2,11
-2,-1,1,1,-1,0,-8,-23,-9,-5,-2,11
-2,-1,1,1,-2,0,-8,-23,-9,-5,-2,11
-3,-2,1,2,-2,0,-8,-23,-9,-5,-2,11
-4,-2,1,2,-2,0,-8,-23,-9,-5,-2,11
-2,-1,1,1,-2,0,-8,-23,-9,-4,-1,11
-1,-1,1,1,-1,0,-8,-23,-9,-4,-1,11
-2,-2,0,2,-1,0,-8,-24,-10,-5,-2,11
-3,-3,0,3,-1,-1,-9,-24,-10,-5,-2,10
-2,-2,0,2,0,-1,-9,-24,-10,-5,-2,10
0,0,0,0,1,0,-9,-24,-10,-5,-2,10
0,0,0,0,1,0,-9,-24,-10,-5,-2,10
-1,-1,0,2,-1,0,-9,-24,-10,-5,-2,10
-2,-1,1,2,-2,1,-9,-24,-9,-5,-1,11
0,0,1,0,-1,1,-9,-24,-9,-4,-1,11
0,0,0,0,0,1,-9,-24,-9,-4,-1,11
-1,-1,1,1,0,0,-9,-24,-9,-4,-1,11
-2,-1,1,2,-1,1,-9,-24,-9,-4,-1,11
-2,0,1,1,-1,1,-9,-24,-9,-4,-1,11
-2,0,1,1,-1,0,-9,-24,-9,-4,-1,11
-3,-1,2,2,-2,0,-9,-24,-9,-4,-1,11
-3,-2,1,3,-3,0,-9,-25,-9,-4,-2,10
-3,-3,-1,4,-1,-2,-9,-27,-9,-4,-2,10
-2,-4,-2,4,0,-3,-9,-28,-8,-4,-2,10
-2,-4,-3,4,0,-3,-8,-28,-8,-4,-1,11
-1,-4,-2,3,1,-3,-8,-27,-8,-4,-1,11
-1,-3,-1,3,0,-2,-8,-27,-8,-4,-2,10
-2,-2,0,3,0,-1,-9,-26,-9,-4,-2,10
-1,0,0,1,-1,0,-9,-24,-8,-3,-1,11
0,1,1,0,-1,1,-9,-23,-8,-3,-1,11
0,1,2,0,-1,2,-9,-23,-8,-3,0,11
0,2,3,-1,-2,3,-10,-22,-9,-3,0,11
-1,3,4,-1,-2,3,-10,-22,-9,-3,0,11
-1,3,5,-1,-2,4,-10,-22,-9,-3,0,10
-2,4,6,-1,-3,5,-10,-21,-9,-3,0,10
-1,5,7,-2,-3,6,-9,-21,-8,-2,0,11
-1,6,7,-2,-4,6,-9,-21,-8,-2,0,11
-1,6,8,-2,-4,7,-8,-21,-7,-2,0,11
-1,7,9,-2,-5,8,-7,-20,-7,-1,1,12
-1,7,9,-3,-5,8,-7,-19,-6,-1,1,12
0,8,9,-3,-4,8,-7,-19,-6,-1,1,12
1,8,9,-4,-4,9,-6,-19,-6,-1,1,12
0,8,9,-4,-5,9,-6,-20,-5,0,1,12
-1,8,10,-3,-5,9,-7,-20,-5,0,1,12
0,8,9,-3,-5,9,-7,-21,-6,-1,1,12
0,8,9,-4,-4,9,-7,-21,-6,-1,1,12
2,10,8,-6,-3,9,-7,-21,-6,0,1,12
3,11,8,-7,-3,10,-6,-21,-5,0,2,13
2,12,9,-7,-4,11,-6,-20,-5,0,2,13
0,11,11,-6,-5,11,-6,-20,-5,1,3,13
-1,11,12,-5,-6,11,-7,-20,-5,1,2,13
-1,10,12,-5,-6,11,-8,-21,-5,0,2,13
-1,10,11,-5,-6,10,-9,-22,-6,0,1,13
-1,9,11,-4,-6,10,-11,-23,-6,0,1,13
0,10,11,-5,-6,11,-11,-23,-6,0,2,13
0,11,10,-6,-5,11,-12,-23,-6,0,2,13
0,10,9,-5,-5,10,-13,-23,-7,-1,2,13
0,9,8,-4,-4,9,-14,-24,-8,-1,1,12
2,10,8,-6,-3,9,-14,-25,-8,-2,1,12
4,11,7,-8,-1,9,-15,-25,-8,-2,1,12
4,11,7,-7,-1,9,-15,-26,-8,-2,1,12
4,11,8,-7,-2,10,-15,-25,-8,-1,1,13
4,11,8,-8,-2,10,-15,-25,-7,0,2,13
5,11,7,-8,-1,10,-15,-25,-7,0,2,13
5,11,7,-8,-1,10,-15,-25,-8,0,2,13
6,12,6,-8,0,9,-15,-25,-8,0,2,13
7,12,6,-8,0,9,-15,-25,-7,0,2,13
5,11,7,-7,-1,9,-15,-25,-7,0,2,13
4,10,7,-6,-2,8,-14,-25,-7,0,2,13
3,9,7,-5,-2,8,-14,-25,-8,-1,2,13
0,7,6,-3,-3,7,-14,-26,-8,-1,1,12
-1,5,6,-2,-4,6,-14,-26,-9,-2,1,11
0,6,6,-2,-4,7,-13,-25,-9,-2,1,11
0,6,6,-3,-3,7,-12,-25,-9,-2,1,11
0,6,6,-3,-3,7,-11,-24,-8,-2,1,11
0,6,6,-3,-3,6,-11,-24,-8,-2,0,11
1,6,5,-3,-2,6,-11,-24,-8,-2,0,10
2,6,4,-4,-1,5,-11,-24,-9,-2,0,10
2,5,3,-3,-1,4,-11,-25,-9,-3,0,9
1,4,3,-2,-1,4,-12,-25,-10,-3,-1,8
0,3,3,-2,-1,4,-12,-25,-10,-3,-1,8
0,2,3,-1,-2,3,-12,-26,-10,-4,-2,7
-1,1,3,0,-2,2,-13,-26,-11,-5,-2,6
-1,1,3,0,-3,2,-13,-26,-12,-5,-3,6
-2,0,4,1,-4,2,-13,-26,-11,-5,-3,7
-3,0,4,2,-4,2,-13,-26,-11,-6,-3,7
-4,-1,4,2,-4,2,-13,-26,-11,-6,-3,7
-4,-1,3,2,-4,1,-12,-26,-11,-5,-3,7
-4,-1,3,2,-4,2,-12,-25,-10,-5,-3,7
-4,0,4,2,-4,2,-11,-25,-10,-4,-2,7
-4,-1,4,2,-4,2,-11,-25,-11,-5,-3,7
-3,-1,3,1,-3,1,-12,-25,-11,-6,-3,6
-1,0,2,0,-2,1,-12,-25,-11,-6,-3,6
-1,0,2,0,-2,2,-11,-25,-11,-6,-3,6
0,1,2,0,-1,2,-11,-24,-10,-6,-3,6
0,1,2,0,-1,2,-10,-24,-10,-5,-2,7
-1,1,2,0,-2,2,-10,-24,-9,-5,-2,7
-2,1,3,0,-2,2,-10,-24,-9,-4,-2,7
-2,1,3,0,-2,2,-10,-24,-9,-4,-2,6
-2,0,2,0,-2,1,-10,-24,-9,-4,-2,6
-2,0,2,1,-2,1,-10,-24,-10,-4,-2,6
-2,0,1,0,-2,1,-10,-24,-10,-4,-2,6
-1,0,1,0,-1,1,-10,-24,-10,-4,-2,6
-1,0,1,0,-1,1,-10,-24,-10,-5,-2,6
-2,-1,1,1,-2,1,-10,-25,-10,-5,-2,5
-2,-1,1,2,-2,0,-10,-25,-11,-6,-3,5
-2,-1,1,2,-1,0,-10,-24,-10,-6,-3,5
-2,-1,1,1,-1,0,-10,-24,-10,-6,-3,5
-2,-1,2,2,-2,0,-10,-24,-10,-5,-2,5
-3,-1,2,2,-2,0,-10,-24,-10,-5,-2,5
-3,-1,1,2,-2,0,-10,-24,-10,-5,-2,5
-2,-1,0,2,-1,0,-10,-24,-10,-5,-2,5
-1,0,0,1,-1,0,-10,-24,-9,-5,-2,5
-2,0,2,2,-2,1,-9,-22,-8,-4,-2,5
-5,0,4,3,-5,2,-7,-19,-7,-4,-2,5
-7,0,6,3,-6,3,-5,-16,-6,-4,-3,4
-8,0,8,4,-8,4,-2,-12,-4,-3,-3,4
-10,0,11,4,-10,6,0,-8,-2,-2,-3,4
-11,2,14,4,-13,8,2,-4,1,0,-1,5
-10,4,15,3,-13,10,5,1,6,3,1,7
-7,6,14,1,-11,10,7,7,11,7,5,9
-4,6,11,-1,-8,9,9,14,18,13,10,12
1,7,7,-4,-3,8,10,21,26,20,17,15
8,7,0,-7,4,4,9,28,35,29,26,20
17,6,-10,-12,14,-1,8,38,47,41,39,28
30,8,-20,-19,25,-5,8,52,65,57,56,38
43,13,-29,-28,36,-7,9,67,85,76,74,49
56,19,-36,-37,45,-8,9,80,106,95,93,61
69,25,-43,-47,56,-8,7,88,124,113,112,73
84,33,-50,-58,67,-7,1,91,139,130,130,85
97,39,-56,-67,77,-7,-6,88,148,141,144,95
106,40,-64,-73,85,-10,-15,79,145,141,145,98
111,34,-75,-72,93,-19,-23,63,129,127,133,90
112,24,-87,-67,100,-30,-28,44,105,105,111,75
109,14,-94,-61,102,-39,-32,21,77,79,86,58
97,6,-90,-51,93,-41,-34,-9,44,48,56,40
74,-2,-76,-36,75,-38,-35,-46,6,14,22,21
49,-8,-58,-20,54,-32,-35,-82,-33,-19,-10,3
29,-15,-44,-7,37,-29,-37,-113,-68,-48,-38,-13
12,-24,-36,6,24,-29,-42,-137,-96,-72,-60,-27
-2,-33,-31,18,15,-32,-50,-153,-115,-88,-74,-37
-11,-41,-29,26,9,-34,-56,-159,-125,-97,-83,-44
-15,-46,-29,31,7,-37,-60,-159,-129,-102,-87,-49
-17,-49,-31,33,7,-39,-63,-153,-128,-103,-88,-51
-18,-49,-30,34,6,-39,-64,-145,-123,-101,-86,-51
-20,-48,-27,35,3,-37,-62,-135,-115,-95,-82,-49
-21,-45,-24,34,1,-34,-59,-124,-106,-88,-76,-46
-20,-41,-20,31,0,-30,-55,-113,-95,-80,-69,-42
-18,-36,-17,28,0,-26,-50,-100,-84,-71,-61,-36
-15,-30,-14,23,0,-21,-44,-87,-72,-61,-52,-30
-11,-24,-11,18,0,-17,-37,-72,-60,-51,-43,-23
-9,-19,-10,14,0,-14,-30,-59,-49,-43,-36,-18
-7,-17,-9,12,0,-12,-24,-48,-40,-36,-30,-15
-6,-15,-8,11,0,-10,-19,-39,-33,-31,-25,-12
-6,-13,-7,10,0,-9,-15,-32,-27,-26,-22,-10
-6,-12,-4,10,-1,-7,-11,-25,-21,-21,-18,-7
-6,-9,-2,8,-1,-5,-9,-20,-17,-17,-14,-4
-5,-6,0,6,-2,-2,-7,-16,-13,-13,-11,-2
-4,-4,0,5,-2,-1,-6,-14,-11,-11,-9,0
-4,-3,1,4,-3,0,-5,-13,-10,-10,-8,1
-3,-1,1,2,-3,1,-4,-11,-8,-8,-6,2
-3,0,2,2,-3,1,-3,-10,-7,-7,-5,3
-5,-2,3,4,-4,1,-4,-9,-6,-7,-5,3
-6,-3,3,5,-4,0,-4,-9,-6,-6,-5,2
-6,-3,3,5,-4,1,-4,-8,-5,-5,-5,3
-5,-2,3,4,-4,1,-4,-7,-4,-4,-4,3
-3,-1,3,2,-3,2,-3,-6,-3,-3,-3,4
-2,0,3,2,-3,2,-3,-6,-3,-3,-2,5
-2,0,2,1,-2,1,-3,-6,-2,-3,-2,6
-2,0,2,1,-2,1,-3,-6,-2,-3,-2,6
-3,0,3,2,-3,2,-3,-5,-1,-3,-2,7
-4,-1,4,2,-3,2,-2,-5,-1,-2,-1,7
-4,-1,4,3,-3,2,-2,-4,0,-2,-1,7
-4,-1,4,3,-4,2,-2,-4,0,-1,-1,7
-5,-1,4,3,-4,2,-2,-3,0,-1,0,8
-4,0,4,2,-4,2,-2,-3,0,-1,0,8
-2,0,3,0,-3,2,-2,-3,0,-1,0,9
-1,1,2,0,-2,2,-2,-3,0,-1,0,9
-2,0,3,1,-2,2,-2,-3,0,0,0,9
-2,1,3,1,-3,3,-2,-2,1,0,0,9
-1,1,3,1,-2,3,-2,-2,1,0,0,9
-1,1,2,1,-1,2,-2,-1,1,0,0,8
-2,0,2,1,-2,1,-2,-1,1,0,0,8
-4,-1,3,3,-4,1,-2,-1,1,0,0,8
-6,-1,4,4,-5,2,-2,-1,1,0,0,8
-5,0,4,3,-5,2,-2,-1,1,0,0,9
-3,1,3,1,-3,2,-2,0,2,0,0,9
-2,1,3,1,-3,2,-2,0,2,0,0,9
-3,2,4,1,-3,3,-2,0,3,0,0,9
-2,2,5,1,-3,3,-1,1,4,0,0,10
-2,1,4,1,-3,3,-1,1,4,0,0,9
-3,0,4,2,-3,2,-1,1,3,0,0,9
-4,-1,4,2,-4,2,-1,2,3,0,0,9
-4,-1,4,2,-4,2,-1,2,3,0,0,9
-3,0,3,1,-3,2,-1,2,4,0,0,9
-2,0,3,1,-3,2,-1,3,4,0,0,9
-2,0,3,1,-2,2,-1,3,4,0,0,9
-1,1,3,0,-2,2,-1,3,5,1,0,9
0,2,3,0,-1,3,0,4,5,1,1,9
0,2,3,0,-2,3,0,5,6,1,1,9
-1,2,3,0,-3,3,0,5,6,1,1,9
-2,1,4,1,-4,3,0,6,7,1,1,9
-2,1,4,0,-3,3,0,6,7,1,1,9
-2,1,3,0,-3,2,0,6,7,1,1,8
-2,0,3,1,-2,2,0,6,7,1,0,8
-2,1,3,1,-2,2,0,7,7,1,0,8
-1,2,3,0,-2,2,0,8,7,2,1,8
0,3,3,-1,-1,3,1,8,7,2,1,8
1,4,3,-2,-1,3,1,9,8,2,1,8
0,3,3,-1,-2,3,1,9,8,2,1,7
0,3,4,0,-2,3,1,10,8,2,1,7
-1,2,4,0,-3,3,1,10,8,2,1,7
-1,2,4,0,-2,3,1,11,8,2,1,7
-2,1,4,1,-3,2,1,12,9,2,1,7
-3,0,4,2,-4,2,2,13,9,2,1,7
-3,1,4,1,-4,3,2,14,10,2,1,7
-1,2,4,0,-3,3,2,15,10,3,1,8
0,3,3,0,-2,3,2,16,11,3,1,8
0,3,3,-1,-2,3,2,16,11,3,1,8
1,3,2,-1,-1,2,2,17,11,3,1,8
1,3,2,-2,-1,2,2,17,11,3,1,8
1,3,3,-1,-1,2,2,18,11,3,1,8
0,2,3,-1,-1,2,2,19,12,3,1,8
0,2,3,0,-2,2,2,20,12,3,1,8
0,2,3,0,-1,2,2,21,13,3,1,9
0,2,3,0,-1,2,2,22,13,3,1,9
0,2,3,0,-2,2,2,23,14,4,1,9
-1,1,3,0,-2,2,2,23,14,4,1,9
-2,0,4,1,-3,2,2,24,14,4,1,9
-3,0,4,1,-4,2,2,25,15,5,1,10
-2,1,4,0,-3,3,3,27,15,5,1,10
0,3,4,-1,-2,3,3,28,16,6,1,11
1,4,4,-2,-1,4,4,30,17,6,2,11
1,5,4,-2,-2,4,5,32,18,7,2,12
0,4,5,-1,-3,4,5,33,19,7,2,12
0,5,5,-2,-3,4,6,34,20,7,2,12
1,5,4,-3,-1,4,7,35,20,7,2,12
2,5,3,-3,-1,4,7,36,21,8,2,12
2,5,3,-3,-1,3,7,37,21,8,2,12
2,5,3,-4,0,4,7,39,22,8,2,12
1,5,4,-3,-1,4,7,41,23,9,3,12
0,5,5,-2,-3,4,8,43,24,9,3,12
-1,5,5,-2,-3,4,8,44,25,9,3,12
0,5,5,-3,-3,5,9,46,26,10,3,13
0,6,6,-3,-3,6,10,47,27,11,3,13
0,6,7,-3,-3,6,11,49,27,11,4,14
-1,5,7,-1,-3,5,11,50,27,11,3,13
-2,4,7,-1,-3,5,11,51,28,11,3,13
-1,6,7,-2,-3,6,12,53,29,12,3,13
-1,7,7,-3,-4,6,13,55,30,12,3,13
-1,7,8,-3,-4,7,14,56,31,12,3,13
1,9,7,-5,-3,8,15,58,32,13,3,13
3,11,7,-7,-2,8,15,59,32,13,3,13
4,11,7,-7,-1,9,16,60,32,14,3,13
4,11,8,-7,-2,9,17,61,33,14,3,13
2,10,9,-6,-3,9,17,63,33,14,3,13
1,10,10,-5,-4,10,18,64,34,14,3,13
1,11,10,-6,-4,10,18,66,34,14,3,13
1,11,10,-5,-5,10,18,67,35,13,2,12
0,10,10,-5,-5,10,18,67,35,13,2,12
1,11,10,-5,-5,10,19,68,35,13,1,11
1,11,10,-6,-5,11,19,69,35,13,1,11
1,11,10,-6,-4,10,19,69,35,13,1,11
1,11,10,-6,-4,10,19,70,35,12,0,10
2,11,10,-7,-4,10,19,71,35,12,0,10
2,12,11,-7,-5,11,20,72,36,12,0,10
1,12,11,-7,-5,11,20,72,37,12,0,10
1,12,11,-7,-5,11,21,73,37,12,0,9
1,12,11,-6,-5,11,21,73,36,11,-1,9
0,11,11,-6,-5,11,21,73,36,11,-2,8
1,11,10,-6,-4,11,21,73,35,11,-2,8
1,11,10,-6,-4,10,21,72,35,11,-3,7
1,11,10,-6,-4,10,21,72,34,10,-4,6
1,11,10,-6,-4,10,22,72,34,9,-5,6
1,11,9,-6,-4,10,22,72,33,8,-6,5
1,10,9,-5,-4,10,22,71,33,7,-6,4
1,10,9,-5,-4,9,22,70,32,6,-7,4
1,10,9,-5,-3,9,22,69,31,6,-8,3
2,9,8,-5,-3,8,21,67,30,5,-8,3
1,8,8,-5,-3,8,20,66,29,4,-9,2
1,7,7,-5,-3,7,19,64,28,3,-10,1
1,7,6,-5,-2,6,18,63,26,2,-11,0
0,6,6,-4,-3,5,18,62,25,1,-12,0
0,6,6,-4,-3,5,17,60,24,0,-13,-1
1,6,5,-4,-2,5,17,58,23,-1,-14,-1
2,6,4,-4,-2,5,17,56,22,-1,-14,-2
1,5,5,-3,-2,5,16,54,21,-2,-15,-2
0,4,4,-2,-2,4,16,52,20,-3,-16,-3
0,3,3,-2,-2,3,15,50,18,-4,-17,-4
-1,2,3,-1,-2,2,14,48,17,-5,-17,-5
-1,2,2,0,-2,2,13,46,16,-5,-18,-5
0,2,0,-1,0,1,12,44,15,-6,-18,-6
2,1,-1,-2,1,0,11,41,13,-7,-19,-6
2,0,-2,-1,1,-1,9,38,12,-8,-20,-7
0,-1,-1,0,0,-2,8,36,11,-8,-20,-7
0,-2,-1,1,0,-2,8,33,9,-9,-20,-7
1,-1,-2,0,1,-2,7,32,8,-9,-20,-6
2,0,-3,-1,2,-2,7,30,8,-9,-20,-6
3,1,-3,-2,3,-2,6,29,7,-10,-20,-6
4,0,-4,-2,4,-3,5,27,6,-10,-20,-6
4,-1,-5,-2,4,-4,4,24,5,-11,-20,-6
3,-2,-5,-1,4,-4,3,22,4,-11,-20,-6
3,-2,-5,-1,4,-4,2,19,3,-10,-19,-5
3,-3,-5,0,4,-4,0,17,2,-10,-19,-5
4,-3,-6,-1,5,-5,0,15,2,-10,-19,-5
5,-1,-6,-2,6,-4,-1,14,1,-10,-18,-4
5,-1,-6,-2,6,-4,-2,12,1,-10,-17,-3
4,-3,-7,-1,5,-5,-3,10,0,-10,-17,-3
3,-3,-7,-1,5,-6,-3,8,-1,-10,-16,-3
2,-3,-6,0,3,-5,-4,6,-1,-9,-15,-1
2,-3,-5,0,3,-4,-4,5,-1,-9,-15,0
3,-3,-6,-1,4,-5,-5,3,-2,-9,-14,0
4,-3,-6,-1,4,-5,-6,1,-2,-9,-14,0
3,-4,-6,0,4,-5,-6,0,-3,-9,-13,0
1,-4,-5,1,2,-5,-7,-2,-3,-9,-13,1
0,-4,-4,2,1,-5,-7,-3,-3,-9,-12,1
-1,-4,-3,2,1,-5,-8,-4,-4,-9,-12,2
0,-3,-3,1,1,-4,-8,-5,-4,-9,-11,2
0,-3,-3,1,1,-3,-9,-7,-5,-8,-11,3
1,-3,-3,1,1,-3,-10,-8,-5,-8,-11,3
2,-3,-4,0,3,-3,-10,-9,-5,-8,-10,3
2,-3,-4,0,3,-3,-11,-10,-5,-8,-10,4
0,-3,-3,1,2,-3,-11,-10,-6,-8,-9,5
0,-2,-2,1,1,-3,-11,-11,-6,-7,-8,6
0,-1,-2,0,1,-2,-11,-11,-6,-7,-8,6
0,-2,-2,1,1,-3,-11,-12,-7,-7,-8,6
0,-3,-2,1,1,-3,-11,-13,-7,-7,-8,7
-1,-4,-2,2,0,-3,-11,-13,-7,-7,-7,7
-2,-5,-2,2,0,-3,-12,-14,-8,-7,-7,7
-3,-5,-1,3,0,-3,-12,-14,-8,-8,-7,7
-3,-5,0,3,-1,-2,-12,-14,-8,-8,-7,7
-3,-4,0,3,-1,-2,-12,-14,-8,-8,-6,8
-4,-4,0,3,-1,-2,-12,-14,-8,-8,-6,8
-5,-5,0,4,-2,-2,-13,-15,-8,-8,-6,8
-3,-4,0,3,-1,-2,-12,-15,-7,-7,-6,8
-1,-2,-1,1,0,-1,-12,-14,-7,-6,-5,9
-1,-2,0,1,0,-1,-11,-14,-7,-6,-5,9
-2,-2,0,1,-1,-1,-11,-13,-7,-5,-5,10
-2,-1,1,1,-1,0,-11,-13,-7,-5,-4,10
-2,-1,1,1,-1,0,-11,-13,-7,-5,-4,10
-2,-1,0,2,-1,0,-11,-13,-7,-6,-4,10
-3,-2,0,2,-1,-1,-11,-13,-7,-6,-5,9
-3,-3,0,3,-2,-1,-11,-13,-7,-6,-5,9
-4,-3,1,3,-3,-1,-11,-12,-6,-6,-4,10
-4,-3,2,3,-3,0,-10,-12,-6,-5,-4,10
-4,-3,1,3,-3,0,-10,-12,-6,-5,-4,10
-4,-3,1,3,-3,-1,-10,-11,-6,-6,-4,9
-5,-3,1,3,-3,-1,-10,-11,-6,-5,-4,9
-4,-3,1,3,-3,-1,-10,-10,-5,-5,-4,9
-4,-3,0,3,-2,-1,-10,-10,-5,-5,-4,9
-4,-3,1,3,-2,-1,-9,-10,-5,-5,-4,9
-4,-3,2,3,-3,0,-9,-10,-4,-4,-3,10
-4,-3,2,3,-3,0,-8,-9,-4,-4,-3,10
-4,-3,2,3,-3,0,-8,-9,-4,-4,-3,10
-5,-3,2,3,-4,0,-8,-8,-4,-4,-3,10
-6,-3,3,4,-5,0,-8,-8,-4,-3,-3,10
-5,-2,3,3,-5,0,-7,-8,-3,-3,-2,10
-4,0,3,2,-4,1,-7,-7,-3,-3,-2,10
-4,0,3,2,-4,1,-7,-7,-3,-3,-2,10
-5,-2,4,4,-5,1,-7,-7,-3,-3,-2,9
-6,-2,4,4,-6,1,-7,-7,-3,-3,-2,9
-5,-2,4,4,-5,1,-7,-6,-3,-3,-2,9
-5,-2,4,3,-5,1,-7,-6,-3,-3,-2,9
-5,-3,4,4,-5,0,-8,-6,-3,-3,-2,9
-6,-4,4,5,-5,0,-8,-6,-3,-3,-2,9
-6,-3,4,4,-5,0,-8,-6,-2,-3,-2,9
-3,-1,3,2,-3,1,-7,-6,-2,-3,-2,9
-2,0,3,1,-3,1,-7,-6,-1,-2,-1,9
-2,-1,3,2,-3,0,-7,-6,-1,-2,-1,8
-3,-1,3,2,-3,0,-7,-6,-1,-2,-1,8
-3,-2,2,3,-3,0,-8,-6,-2,-2,-2,7
-5,-3,3,4,-4,0,-8,-6,-2,-2,-2,7
-7,-3,4,5,-6,0,-7,-6,-1,-2,-2,7
-7,-3,5,5,-6,1,-7,-6,-1,-2,-1,7
-6,-2,4,4,-5,0,-8,-6,-2,-2,-2,7
-4,-2,3,3,-4,0,-8,-7,-2,-3,-2,6
-5,-2,4,4,-5,1,-8,-7,-2,-3,-2,6
-7,-3,5,5,-6,1,-8,-7,-2,-3,-2,6
-7,-3,5,5,-7,1,-8,-7,-2,-3,-2,6
-6,-2,5,4,-6,1,-8,-6,-2,-2,-2,7
-5,-1,5,3,-6,2,-8,-6,-2,-2,-1,7
-5,0,5,3,-5,2,-8,-6,-2,-2,-1,7
-5,0,5,3,-5,1,-9,-6,-2,-2,-1,7
-5,-1,5,3,-5,1,-9,-7,-2,-2,-1,7
-5,-1,4,3,-5,1,-9,-7,-2,-2,-1,7
-4,-1,4,3,-4,1,-9,-7,-2,-2,-1,7
-3,0,3,2,-3,1,-9,-7,-2,-2,-1,7
-2,0,3,1,-3,2,-9,-7,-2,-2,-1,7
-3,0,4,2,-3,2,-9,-8,-2,-1,-1,7
-4,-1,4,3,-4,1,-10,-8,-3,-2,-1,7
-5,-2,3,4,-4,0,-10,-9,-4,-2,-1,7
-4,-1,3,3,-3,0,-11,-9,-4,-2,-2,7
-4,-1,3,3,-4,0,-11,-9,-4,-2,-1,7
-5,-2,4,4,-5,0,-11,-9,-4,-2,-1,7
-5,-3,3,4,-5,0,-12,-9,-5,-3,-2,6
-6,-4,2,4,-4,0,-13,-10,-5,-3,-2,6
-6,-4,2,5,-4,0,-13,-10,-6,-4,-3,6
-5,-3,2,4,-4,0,-13,-11,-6,-4,-3,6
-4,-2,2,3,-3,0,-13,-11,-6,-4,-2,6
-4,-1,3,3,-4,1,-12,-10,-5,-3,-2,7
-4,-1,3,3,-4,1,-12,-11,-5,-3,-1,7
-3,0,3,2,-3,1,-13,-11,-5,-3,-1,7
-2,0,3,1,-3,1,-13,-11,-5,-3,-1,7
-2,0,4,1,-4,2,-14,-11,-5,-3,-1,8
-2,0,4,1,-3,2,-14,-11,-5,-3,-1,8
-2,0,3,1,-3,2,-15,-11,-5,-3,-1,7
-3,0,4,1,-3,2,-15,-11,-6,-3,-1,7
-4,0,4,2,-4,2,-15,-11,-6,-3,-1,7
-4,-1,3,3,-4,1,-16,-12,-7,-4,-2,7
-4,-2,3,3,-4,0,-16,-13,-8,-4,-2,6
-4,-2,3,3,-4,0,-16,-13,-8,-4,-2,6
-4,-3,3,3,-4,0,-16,-13,-8,-4,-2,6
-5,-3,3,4,-4,0,-16,-13,-8,-4,-2,6
-5,-3,3,4,-4,0,-16,-13,-8,-4,-2,6
-4,-2,2,3,-3,0,-16,-13,-7,-4,-2,6
-1,0,2,1,-2,1,-16,-12,-7,-3,-1,7
0,1,2,0,-1,1,-16,-12,-7,-3,-1,7
-1,0,2,0,-2,1,-16,-12,-7,-3,-1,7
0,0,2,0,-2,1,-17,-13,-7,-3,-1,7
0,1,2,-1,-1,2,-17,-13,-7,-3,-1,7
0,1,2,-1,-1,2,-17,-13,-6,-2,-1,7
0,0,2,0,-1,2,-17,-13,-7,-2,-1,7
-1,0,2,0,-1,1,-18,-13,-7,-3,-1,7
-2,-1,2,1,-2,0,-18,-14,-8,-4,-2,6
-3,-2,2,2,-3,0,-18,-14,-8,-4,-1,6
-4,-1,3,2,-4,0,-18,-13,-7,-3,-1,7
-3,-1,3,2,-4,1,-18,-13,-7,-3,-1,7
-2,-1,3,1,-3,1,-18,-14,-8,-4,-1,7
-2,-1,2,1,-2,0,-19,-14,-8,-4,-2,6
-2,-3,1,2,-2,0,-19,-14,-9,-4,-2,6
-2,-2,1,2,-2,0,-19,-14,-8,-4,-1,7
0,0,2,0,-1,1,-18,-13,-7,-3,0,8
0,1,2,-1,-1,1,-18,-12,-7,-3,0,8
0,0,1,0,-1,1,-18,-13,-8,-3,-1,7
-1,0,2,0,-1,1,-19,-13,-8,-3,-1,7
-2,-1,2,1,-2,1,-19,-14,-8,-3,-1,7
-2,-1,2,1,-2,0,-19,-14,-9,-3,-1,7
-2,-1,2,1,-2,1,-19,-13,-8,-3,-1,7
-2,0,3,0,-2,1,-19,-13,-8,-2,0,8
-2,0,3,0,-2,1,-19,-13,-8,-2,0,8
-3,-1,2,1,-3,0,-20,-13,-8,-3,0,7
-3,-1,2,1,-2,0,-20,-14,-9,-3,-1,7
-2,-1,1,1,-2,0,-20,-14,-9,-3,-1,7
-3,-2,1,2,-2,0,-20,-14,-9,-3,-1,7
-2,-3,0,2,-2,-1,-20,-14,-9,-3,-1,6
-1,-2,0,1,-1,-1,-21,-15,-9,-3,-1,6
-1,-2,0,1,-1,-1,-21,-14,-9,-3,-1,7
-2,-1,1,1,-2,0,-21,-14,-9,-2,-1,7
-2,-1,1,1,-2,-1,-21,-14,-9,-2,-1,7
-2,-2,0,2,-1,-1,-22,-15,-9,-3,-1,6
-3,-3,1,3,-2,-1,-22,-15,-9,-3,-1,6
-4,-2,2,3,-3,0,-21,-14,-9,-2,0,7
-3,-1,2,2,-3,0,-21,-14,-9,-2,0,7
-2,-1,1,1,-2,0,-21,-14,-9,-2,0,7
-2,-1,2,1,-2,1,-21,-14,-9,-2,0,7
-2,0,2,1,-2,1,-21,-14,-8,-1,0,7
-2,0,2,1,-2,1,-21,-14,-8,-1,0,7
-2,0,2,1,-2,1,-21,-14,-8,-1,0,7
-1,0,2,0,-2,1,-21,-14,-8,-1,0,7
0,0,2,0,-1,1,-21,-14,-8,-1,0,7
-1,0,2,0,-1,1,-21,-14,-8,-1,0,7
0,0,2,0,-1,1,-21,-14,-8,-1,0,7
1,1,1,-1,0,1,-21,-14,-8,-1,0,7
2,2,0,-2,1,1,-21,-14,-9,-2,0,7
2,2,0,-2,1,1,-22,-14,-9,-2,0,7
2,2,1,-2,0,1,-22,-14,-8,-2,0,7
0,1,2,-1,-1,2,-22,-14,-8,-1,0,7
-1,0,3,0,-2,1,-22,-14,-8,-1,0,7
-2,0,3,1,-2,1,-22,-14,-9,-1,0,6
-3,-1,3,2,-3,1,-21,-14,-9,-1,0,6
-3,0,4,1,-3,3,-21,-13,-8,-1,1,7
-1,2,5,-1,-3,4,-20,-12,-7,0,1,7
-1,3,5,-2,-3,5,-20,-12,-7,0,2,8
-1,4,6,-2,-3,5,-20,-12,-7,0,2,8
-2,4,7,-1,-4,5,-21,-12,-7,0,2,8
-3,4,7,-1,-4,5,-21,-13,-7,0,2,9
-1,5,7,-2,-4,6,-20,-12,-6,1,3,9
0,7,7,-4,-3,7,-20,-12,-6,1,4,10
1,7,7,-4,-3,7,-20,-11,-5,1,4,10
0,7,7,-4,-3,7,-20,-11,-5,1,4,10
0,6,7,-3,-3,7,-21,-11,-5,1,4,10
0,7,7,-3,-3,7,-21,-11,-5,1,4,10
1,7,7,-4,-2,7,-21,-11,-5,1,4,10
1,7,7,-4,-3,7,-21,-12,-5,1,4,10
0,7,8,-3,-4,7,-22,-12,-5,1,4,10
1,8,8,-4,-4,8,-22,-12,-5,2,5,11
2,9,8,-5,-3,9,-23,-12,-5,2,5,11
1,9,9,-5,-4,9,-25,-13,-5,2,4,11
0,9,9,-5,-4,9,-26,-14,-5,2,4,11
1,9,8,-5,-4,9,-27,-15,-6,1,3,10
1,8,7,-5,-3,8,-29,-16,-8,0,2,10
0,7,7,-4,-3,7,-31,-17,-9,0,2,9
0,7,7,-3,-4,7,-31,-18,-9,-1,2,9
1,7,7,-4,-3,7,-31,-18,-9,-1,2,9
3,7,5,-5,-1,6,-31,-18,-9,-1,2,9
5,7,4,-6,0,5,-31,-18,-9,0,3,9
5,8,5,-6,0,7,-31,-18,-8,0,4,10
5,9,6,-7,-1,8,-30,-17,-7,1,5,11
5,10,6,-8,0,9,-30,-16,-6,2,5,11
4,10,6,-7,-1,9,-30,-15,-6,2,5,11
2,8,6,-5,-2,8,-30,-15,-7,1,5,10
1,6,6,-4,-3,7,-29,-16,-8,0,4,9
0,6,6,-4,-3,6,-29,-16,-8,0,4,9
0,5,6,-3,-3,6,-29,-16,-8,0,3,8
0,4,6,-2,-4,5,-29,-16,-8,0,3,8
0,4,5,-1,-3,5,-29,-16,-8,0,3,7
2,4,3,-3,-1,4,-28,-15,-8,0,3,7
4,5,2,-4,1,4,-28,-15,-8,0,3,7
3,4,2,-3,0,3,-28,-15,-9,0,2,7
0,2,2,-2,-1,3,-28,-15,-9,-1,2,6
-1,1,3,0,-3,2,-28,-16,-9,-1,1,6
-2,0,3,0,-3,2,-29,-16,-10,-2,1,5
-1,0,2,0,-2,2,-29,-16,-10,-2,0,5
-1,0,2,0,-2,2,-29,-17,-11,-2,0,4
-3,-1,3,2,-3,1,-30,-18,-11,-3,0,3
-4,-2,2,4,-3,0,-31,-19,-12,-4,0,3
-3,-2,1,3,-2,0,-31,-19,-12,-4,0,3
-1,-1,1,1,-1,0,-31,-18,-12,-4,0,3
0,0,1,0,-1,0,-30,-17,-11,-4,0,3
1,1,0,-1,0,1,-30,-16,-11,-4,0,3
1,1,1,-1,0,1,-30,-16,-11,-4,0,3
0,0,1,0,-1,1,-30,-16,-11,-4,0,4
0,0,1,1,-1,1,-30,-16,-11,-4,0,4
-1,-1,1,2,-1,0,-31,-16,-11,-4,0,3
-2,-1,1,2,-1,0,-30,-16,-11,-4,0,3
-2,-1,1,1,-1,0,-30,-16,-10,-3,0,3
-1,-1,1,1,-1,0,-30,-15,-10,-3,0,3
-2,-2,1,3,-2,-1,-31,-16,-11,-4,0,2
-3,-4,1,4,-2,-1,-31,-16,-12,-5,-1,1
-3,-4,1,4,-2,-1,-31,-16,-12,-4,-1,1
-1,-2,0,2,-1,0,-31,-16,-12,-4,0,2
0,0,0,0,0,0,-31,-16,-12,-3,0,2
-1,-1,0,1,-1,0,-31,-16,-12,-3,0,2
-4,-2,2,3,-3,0,-31,-16,-11,-3,0,2
-4,-2,3,3,-4,1,-31,-16,-11,-3,0,2
-3,-2,2,2,-3,0,-31,-15,-11,-3,0,2
-3,-2,2,2,-3,0,-30,-15,-10,-3,0,2
-2,-2,2,2,-3,0,-30,-14,-10,-2,1,2
-2,-1,2,2,-2,1,-30,-14,-10,-2,1,3
-2,-1,2,2,-2,1,-31,-14,-10,-2,1,3
-3,-1,2,2,-3,0,-31,-15,-10,-2,1,2
-3,-1,2,2,-3,0,-31,-15,-10,-2,1,2
-3,-1,2,2,-3,0,-31,-15,-10,-2,1,2
-3,-1,2,1,-3,0,-31,-14,-10,-2,2,2
-3,-1,2,2,-2,0,-31,-14,-10,-2,2,2
-4,-2,2,3,-3,0,-31,-13,-9,-2,1,2
-6,-3,3,4,-5,0,-29,-10,-8,-2,1,1
-7,-3,5,5,-6,1,-27,-7,-7,-2,0,0
-9,-2,7,6,-8,3,-24,-3,-5,-1,0,0
-9,0,9,5,-10,5,-20,1,-2,0,0,0
-8,3,11,2,-10,7,-18,6,2,3,2,1
-7,4,11,1,-9,8,-16,10,6,6,5,2
-6,4,11,0,-8,8,-16,16,12,11,9,4
-2,5,8,-1,-5,7,-15,23,19,17,15,7
3,5,3,-5,0,5,-14,31,27,25,23,12
12,6,-5,-9,8,0,-15,40,38,36,35,19
23,6,-15,-14,19,-4,-16,51,53,50,50,28
34,8,-25,-21,29,-8,-15,66,72,68,68,38
45,11,-33,-28,39,-10,-14,81,93,87,87,49
56,15,-40,-35,48,-12,-14,94,113,106,106,60
69,22,-47,-45,58,-12,-17,102,132,125,125,73
83,29,-53,-56,68,-11,-23,104,147,142,144,86
97,35,-60,-66,78,-12,-31,101,154,153,156,95
108,36,-70,-71,88,-16,-39,91,148,150,155,96
114,31,-82,-72,97,-25,-46,76,131,134,141,87
116,22,-93,-68,104,-35,-50,58,108,111,119,73
109,13,-95,-60,102,-41,-52,36,81,84,93,56
91,6,-85,-48,87,-39,-51,7,48,54,62,38
65,0,-65,-32,65,-32,-51,-28,10,19,27,18
39,-7,-45,-15,41,-26,-51,-63,-29,-14,-7,0
18,-12,-29,-2,23,-21,-52,-92,-62,-43,-34,-16
3,-19,-20,8,11,-20,-55,-114,-89,-65,-54,-29
-9,-26,-16,18,3,-22,-60,-129,-107,-80,-68,-40
-17,-34,-15,26,-1,-24,-66,-137,-118,-90,-77,-48
-23,-40,-16,33,-3,-28,-73,-139,-124,-96,-82,-53
-26,-45,-19,37,-3,-32,-78,-136,-125,-98,-85,-57
-26,-47,-20,37,-2,-33,-81,-131,-122,-98,-84,-58
-24,-45,-20,35,-2,-32,-82,-123,-116,-94,-81,-57
-23,-41,-18,32,-2,-30,-80,-113,-107,-87,-75,-53
-21,-38,-15,30,-3,-27,-77,-102,-97,-79,-68,-49
-19,-34,-13,27,-3,-24,-73,-91,-86,-71,-60,-44
-15,-29,-12,23,-1,-21,-68,-78,-74,-61,-51,-38
-12,-25,-12,19,0,-19,-63,-65,-63,-52,-43,-33
-10,-22,-11,17,0,-17,-57,-52,-52,-43,-36,-28
-9,-20,-10,15,0,-15,-51,-40,-43,-36,-30,-25
-8,-18,-9,13,0,-13,-46,-31,-36,-30,-25,-22
-8,-16,-7,12,0,-11,-42,-23,-30,-25,-21,-19
-8,-14,-6,11,-1,-10,-39,-17,-24,-21,-17,-17
-7,-12,-5,9,0,-8,-37,-11,-19,-16,-13,-14
-5,-8,-3,7,0,-5,-34,-7,-15,-12,-9,-11
-5,-6,-1,6,-1,-3,-32,-4,-12,-9,-6,-8
-5,-5,0,5,-2,-1,-31,-2,-10,-7,-4,-6
-5,-4,2,5,-3,0,-30,0,-8,-6,-3,-5
-6,-4,3,5,-4,0,-30,0,-8,-5,-3,-5
-7,-4,3,6,-5,0,-30,1,-7,-5,-3,-5
-6,-4,3,6,-4,0,-30,2,-7,-4,-2,-5
-6,-4,2,6,-3,0,-30,2,-6,-4,-2,-5
-6,-4,2,6,-3,0,-30,3,-5,-3,-1,-4
-5,-3,2,5,-3,0,-30,4,-4,-2,-1,-4
-4,-2,2,3,-3,1,-30,5,-3,-2,0,-3
-3,-1,2,3,-2,1,-30,6,-2,-1,0,-3
-4,-2,2,3,-2,0,-30,6,-2,-1,0,-3
-4,-2,2,4,-2,0,-31,6,-2,-1,0,-4
-5,-4,1,5,-3,-1,-31,6,-2,-1,0,-4
-6,-5,1,6,-4,-1,-31,6,-2,-1,0,-4
-6,-3,2,5,-4,0,-31,7,-1,0,1,-4
-4,-1,2,2,-3,1,-30,8,0,0,2,-3
-2,0,2,1,-2,1,-30,9,0,1,3,-2
-2,0,2,1,-2,1,-30,10,1,2,3,-2
-2,-1,2,1,-2,1,-30,10,1,2,3,-2
-2,-1,2,1,-2,1,-30,10,1,2,3,-2
-1,0,1,1,-2,1,-30,10,1,2,3,-2
-1,0,1,1,-1,1,-30,10,1,2,3,-2
-2,-1,1,1,-2,1,-31,11,1,2,3,-2
-3,-1,1,2,-2,1,-31,11,1,2,3,-2
-2,-1,1,2,-2,1,-31,11,1,2,3,-2
-2,-1,1,2,-3,1,-31,11,1,2,3,-2
-2,-1,2,2,-3,1,-31,12,2,2,3,-2
-2,-1,2,2,-4,2,-31,12,2,3,4,-2
-2,0,2,1,-3,2,-31,13,3,3,4,-2
-1,0,2,0,-2,2,-31,13,3,3,4,-2
-2,0,2,1,-3,1,-31,13,3,3,4,-3
-4,0,2,2,-4,1,-31,13,2,3,4,-3
-4,-1,2,3,-4,1,-32,13,2,3,4,-3
-4,-1,2,3,-4,1,-32,14,2,3,4,-3
-3,0,2,2,-3,1,-32,14,3,3,4,-3
-2,1,2,0,-3,2,-31,15,3,4,4,-2
-1,0,2,0,-3,2,-32,15,3,4,4,-3
-2,-1,2,1,-2,1,-32,15,3,3,4,-3
-3,-2,2,2,-2,0,-33,15,3,3,4,-4
-3,-1,2,2,-2,0,-33,16,3,4,4,-3
-3,0,2,2,-2,1,-32,16,4,4,5,-3
-2,0,2,1,-2,1,-32,17,5,4,5,-3
-1,1,1,1,-2,2,-32,17,5,4,5,-3
0,1,0,0,-1,1,-33,17,5,4,4,-3
1,1,0,-1,0,1,-33,18,5,4,4,-3
0,1,2,0,-2,2,-32,19,6,5,5,-3
-2,1,4,0,-3,3,-31,21,7,5,5,-3
-2,1,4,0,-3,3,-30,21,7,5,5,-3
-2,1,3,0,-2,3,-30,21,7,5,5,-4
-1,1,3,0,-2,2,-30,21,7,5,5,-4
0,2,2,-1,-1,2,-30,22,8,6,5,-3
0,2,2,-1,-1,2,-31,23,8,6,6,-3
0,1,2,0,-2,1,-31,23,8,5,5,-4
-1,0,2,1,-2,1,-32,23,7,5,4,-5
0,0,2,0,-2,1,-32,24,7,5,4,-5
0,1,1,-1,0,2,-32,25,8,5,4,-5
0,1,1,-1,0,2,-32,26,9,6,5,-5
-1,1,2,0,-1,3,-31,27,9,6,5,-5
-2,1,3,0,-2,2,-31,27,10,6,5,-5
-1,1,3,0,-2,2,-31,28,10,6,5,-5
-1,1,3,0,-2,2,-31,28,10,6,5,-5
-2,0,2,2,-2,1,-32,28,10,6,4,-6
-3,-2,2,3,-2,0,-32,28,10,5,4,-7
-2,-1,2,1,-2,1,-31,30,11,6,5,-6
0,2,3,-1,-2,3,-30,32,12,7,6,-5
0,3,3,-1,-2,3,-30,33,13,7,6,-5
-1,2,3,0,-2,2,-30,33,13,7,6,-6
-1,2,3,0,-2,2,-30,34,13,7,6,-6
-1,2,3,0,-2,2,-30,35,14,8,6,-6
0,2,3,0,-2,2,-31,36,14,8,6,-6
0,3,3,-1,-1,3,-31,38,15,9,6,-6
1,3,3,-1,-1,3,-30,39,15,9,6,-6
0,3,2,-1,-1,2,-28,40,16,9,6,-6
0,2,3,0,-1,2,-26,41,16,9,6,-6
0,3,3,-1,-1,3,-24,43,17,10,7,-6
1,4,3,-2,-1,3,-21,44,18,11,7,-5
2,5,3,-3,0,4,-19,46,19,11,7,-5
3,5,3,-4,0,4,-17,47,20,12,7,-5
2,5,3,-3,-1,4,-15,48,20,12,7,-5
0,3,4,-2,-2,4,-13,49,20,11,7,-6
-1,2,4,0,-2,3,-12,50,21,11,6,-6
0,3,4,-1,-1,4,-10,52,22,12,7,-6
2,5,4,-3,0,5,-8,54,23,13,7,-6
3,7,4,-4,0,6,-5,55,24,14,7,-6
2,6,4,-4,-1,5,-4,56,25,14,7,-6
2,6,4,-3,-1,5,-2,57,25,14,7,-7
2,6,4,-3,-2,6,0,59,26,14,8,-6
1,6,5,-3,-2,6,2,60,27,15,8,-6
1,6,5,-3,-2,6,4,62,27,15,8,-7
2,7,5,-4,-2,7,6,63,28,15,8,-7
2,8,6,-4,-2,8,7,65,29,16,8,-7
1,8,7,-4,-3,8,9,66,30,16,8,-7
2,9,7,-5,-3,8,11,68,31,16,8,-7
1,8,8,-4,-3,8,12,69,31,16,8,-8
0,7,8,-3,-4,8,13,69,31,16,7,-8
1,7,7,-3,-3,8,15,70,32,16,7,-8
2,9,7,-5,-2,9,17,72,33,17,7,-8
2,10,8,-5,-3,10,18,73,34,17,7,-8
1,10,9,-5,-3,10,19,74,34,17,7,-9
1,11,9,-6,-4,10,20,75,34,17,6,-9
1,11,8,-6,-4,10,21,76,34,16,6,-10
2,11,8,-6,-4,10,22,77,35,16,6,-10
2,11,9,-6,-4,11,23,78,35,16,6,-10
3,12,9,-7,-4,11,24,78,35,16,6,-10
2,10,9,-6,-4,10,25,78,35,16,5,-12
1,9,8,-4,-4,9,25,78,35,15,3,-13
2,9,8,-5,-3,9,25,79,35,15,3,-14
3,11,8,-7,-3,10,26,80,35,15,2,-14
3,12,8,-8,-3,11,27,80,35,14,2,-14
2,11,8,-7,-3,10,27,80,35,13,1,-15
1,10,8,-6,-4,10,28,79,34,13,1,-15
1,10,8,-6,-4,10,28,79,34,12,0,-16
1,10,9,-6,-4,10,29,79,34,12,0,-16
1,10,9,-6,-4,10,30,79,34,12,0,-17
1,10,9,-5,-4,10,31,79,33,12,-1,-17
1,9,8,-5,-4,9,31,78,32,11,-2,-18
2,9,7,-5,-3,9,31,77,31,10,-3,-19
3,9,6,-6,-2,8,31,76,30,9,-4,-20
4,9,6,-6,-1,8,31,75,29,8,-5,-21
3,9,6,-6,-1,8,32,74,29,8,-5,-22
3,9,6,-5,-2,8,32,73,28,7,-6,-22
2,8,6,-5,-2,7,33,72,27,6,-7,-22
2,7,6,-4,-2,6,33,70,26,5,-8,-24
2,7,5,-4,-1,6,32,68,24,4,-9,-25
2,7,5,-4,-2,5,32,66,23,3,-10,-25
1,6,5,-3,-3,5,32,65,22,2,-11,-26
0,5,4,-2,-3,5,31,63,21,1,-11,-26
1,5,3,-2,-2,5,31,61,20,1,-12,-27
2,5,2,-3,-1,4,30,59,19,0,-12,-27
3,5,1,-3,0,4,30,57,18,0,-13,-28
4,5,0,-4,1,4,30,55,17,-1,-13,-28
4,4,0,-3,2,3,29,52,15,-2,-14,-29
3,2,0,-2,1,2,28,50,13,-3,-15,-30
2,1,0,-2,1,1,28,48,11,-4,-16,-30
1,0,-1,-1,1,0,27,45,10,-5,-16,-31
1,-1,-2,0,1,-1,27,43,9,-6,-17,-31
0,-2,-3,1,1,-1,26,40,7,-6,-17,-32
0,-3,-3,2,1,-2,25,38,6,-7,-17,-32
3,-2,-4,0,3,-2,25,36,6,-7,-17,-31
5,0,-4,-2,4,-1,25,34,5,-7,-16,-31
5,-1,-5,-2,4,-2,24,32,4,-8,-16,-31
4,-2,-5,-1,3,-3,23,30,3,-8,-16,-31
2,-3,-5,0,2,-3,22,27,2,-8,-16,-31
1,-4,-5,1,2,-4,21,25,2,-8,-15,-30
2,-3,-5,1,2,-3,21,23,1,-8,-14,-30
3,-2,-5,0,3,-3,21,21,1,-7,-13,-29
4,-2,-5,0,3,-3,21,20,1,-6,-13,-28
3,-3,-5,0,3,-3,20,18,0,-6,-13,-28
2,-4,-5,1,3,-4,19,15,-1,-7,-13,-28
3,-3,-5,0,4,-4,18,13,-1,-6,-12,-28
2,-3,-5,0,4,-3,18,12,-2,-6,-11,-27
1,-3,-5,1,3,-3,17,10,-2,-6,-11,-26
1,-3,-5,1,3,-3,17,8,-3,-6,-10,-26
1,-3,-4,2,3,-3,16,6,-3,-6,-10,-25
0,-4,-3,3,1,-3,16,5,-4,-6,-9,-24
-1,-5,-2,3,0,-3,16,3,-4,-6,-8,-24
0,-5,-2,3,1,-3,15,2,-5,-6,-8,-23
1,-4,-3,1,2,-2,15,1,-6,-5,-7,-23
1,-3,-2,1,2,-2,15,1,-6,-5,-6,-22
0,-2,-1,1,1,-1,15,0,-6,-4,-5,-21
0,-1,0,1,0,0,15,-1,-6,-4,-5,-20
0,-2,0,1,0,0,15,-2,-6,-3,-4,-20
0,-2,-1,1,0,-1,15,-3,-7,-3,-4,-19
0,-3,-1,1,0,-1,15,-4,-7,-3,-4,-19
-1,-3,-1,2,0,-1,15,-5,-8,-3,-4,-19
-1,-3,0,2,-1,-1,15,-6,-8,-3,-4,-18
0,-3,0,2,0,-1,15,-7,-8,-3,-3,-18
0,-3,-1,2,0,-2,14,-7,-8,-3,-3,-18
0,-3,-2,2,0,-2,14,-8,-9,-4,-3,-18
-2,-4,-1,3,0,-2,14,-8,-9,-4,-3,-18
-2,-4,0,3,-1,-1,14,-9,-9,-4,-3,-18
-2,-3,0,2,-1,0,15,-9,-9,-3,-2,-17
-2,-2,1,2,-2,0,16,-8,-8,-2,-1,-17
-2,-1,2,1,-2,0,16,-8,-8,-2,0,-16
-2,-1,2,1,-3,1,17,-8,-8,-1,0,-16
-3,-2,2,2,-3,0,17,-8,-8,-1,0,-16
-4,-3,2,4,-4,0,17,-9,-8,-2,0,-16
-4,-3,2,4,-3,0,17,-9,-8,-2,0,-16
-3,-2,2,3,-3,1,18,-9,-8,-1,0,-16
-2,-2,2,2,-3,1,18,-9,-8,-1,0,-16
-2,-1,2,2,-3,1,18,-9,-8,-1,0,-16
-1,-1,2,1,-3,1,19,-9,-8,-1,0,-16
-2,-1,2,1,-3,0,19,-9,-8,-1,0,-16
-3,-3,1,2,-3,0,19,-9,-8,-1,0,-16
-3,-3,1,3,-3,0,20,-8,-8,-1,0,-16
-5,-3,2,4,-3,0,20,-8,-7,0,0,-16
-6,-4,2,5,-4,0,20,-8,-7,0,0,-17
-4,-4,1,4,-3,0,21,-8,-7,0,0,-17
-3,-3,1,3,-2,0,21,-8,-7,0,1,-17
-4,-4,1,4,-3,-1,21,-8,-7,0,0,-17
-4,-4,1,5,-3,-1,21,-8,-7,-1,0,-18
-4,-3,2,4,-3,0,21,-8,-6,0,1,-17
-4,-2,3,3,-3,1,22,-7,-6,0,2,-17
-4,-2,3,3,-3,1,22,-7,-6,0,2,-17
-4,-3,2,4,-3,0,22,-7,-6,0,1,-17
-4,-3,2,4,-3,0,22,-7,-6,0,2,-17
-3,-1,3,3,-3,1,22,-6,-5,0,2,-17
-3,-1,3,3,-3,1,23,-6,-5,1,2,-17
-4,-1,3,3,-4,1,23,-6,-5,1,2,-17
-5,-2,4,4,-5,1,23,-6,-4,1,2,-17
-5,-2,4,4,-5,2,23,-5,-4,1,2,-17
-5,-1,4,3,-5,2,23,-5,-4,1,2,-17
-4,-1,4,2,-4,2,24,-5,-4,1,3,-16
-4,-1,4,3,-4,1,24,-5,-4,1,3,-17
-4,-2,4,4,-4,1,23,-6,-4,1,2,-18
-4,-2,3,4,-4,1,23,-6,-4,0,2,-18
-3,-1,3,3,-4,2,24,-6,-3,1,2,-18
-4,0,4,3,-4,3,24,-5,-3,1,3,-17
-4,0,5,3,-5,3,24,-5,-3,1,3,-17
-5,0,4,3,-5,3,24,-6,-3,1,3,-17
-4,0,4,2,-4,3,24,-6,-3,1,3,-17
-4,0,4,2,-5,2,24,-6,-3,1,3,-17
-5,-1,4,3,-5,2,24,-6,-3,1,3,-18
-5,-1,4,3,-5,2,24,-6,-3,1,3,-18
-4,0,4,2,-5,2,24,-6,-3,1,3,-17
-6,-1,4,3,-5,2,24,-7,-3,0,2,-18
-7,-3,4,5,-6,1,23,-8,-4,0,1,-19
-7,-3,4,5,-5,0,23,-8,-5,-1,1,-19
-5,-2,3,3,-4,0,23,-8,-5,-1,1,-19
-3,0,2,1,-3,1,24,-8,-5,-1,1,-19
-2,0,2,1,-3,1,24,-9,-5,0,1,-19
-3,0,3,2,-3,1,24,-9,-5,0,1,-19
-3,0,3,2,-4,1,24,-10,-5,0,1,-19
-4,-1,3,3,-4,1,24,-10,-5,0,1,-19
-4,-1,3,3,-4,1,24,-10,-5,-1,1,-19
-3,0,3,2,-3,1,24,-10,-5,0,1,-19
-3,0,4,1,-4,2,25,-10,-5,0,2,-19
-4,0,4,2,-5,2,25,-11,-5,0,2,-19
-4,0,4,3,-5,2,24,-12,-5,0,2,-19
-4,0,4,3,-5,2,24,-12,-5,0,2,-18
-4,0,4,3,-5,2,24,-12,-5,0,2,-18
-3,0,4,3,-4,2,24,-12,-6,0,2,-18
-4,0,5,3,-5,2,23,-13,-6,0,2,-18
-5,0,5,3,-5,2,23,-13,-7,0,2,-18
-6,-1,5,4,-5,1,23,-14,-7,0,1,-18
-6,-1,5,4,-5,1,23,-14,-7,-1,1,-18
-6,0,5,4,-5,2,23,-15,-8,-1,1,-18
-5,0,5,3,-5,3,23,-15,-8,-1,1,-18
-5,1,5,2,-5,4,23,-15,-7,0,1,-17
-4,1,5,2,-5,4,23,-15,-7,0,1,-17
-4,0,3,2,-4,3,22,-16,-8,-1,1,-17
-3,0,2,1,-3,2,22,-16,-8,-1,1,-17
-1,1,2,0,-2,2,23,-16,-8,0,2,-17
-1,2,2,0,-2,2,23,-16,-8,0,2,-17
-2,1,3,0,-3,2,22,-17,-8,0,2,-17
-2,1,3,1,-3,2,22,-17,-8,0,1,-17
-3,0,2,1,-3,2,22,-18,-9,-1,1,-17
-2,0,2,1,-3,2,21,-18,-9,-1,1,-17
-1,2,2,0,-3,3,22,-18,-9,-1,1,-17
-2,2,3,0,-3,3,22,-18,-9,-1,2,-17
-3,1,3,0,-3,2,22,-18,-9,-1,2,-17
-3,1,3,1,-4,2,22,-18,-9,-1,2,-17
-3,1,3,1,-4,2,22,-18,-9,-1,2,-17
-3,0,3,2,-4,2,22,-18,-9,-1,2,-17
-4,0,3,3,-4,1,22,-19,-9,-2,1,-17
-5,-1,3,4,-5,1,22,-19,-10,-2,1,-17
-4,0,3,3,-4,1,22,-20,-10,-2,0,-17
-2,1,3,1,-3,2,22,-20,-10,-2,0,-17
-1,2,3,0,-3,2,22,-20,-10,-2,1,-17
-1,2,3,0,-2,2,22,-20,-10,-2,1,-17
-2,1,3,0,-3,2,22,-20,-10,-2,1,-17
-3,0,3,2,-4,2,21,-20,-10,-2,1,-17
-2,0,3,1,-3,2,22,-20,-9,-2,1,-16
0,2,2,-1,-1,3,22,-20,-9,-1,1,-16
0,1,2,0,-2,2,22,-21,-10,-1,1,-16
-2,0,3,1,-3,2,22,-21,-10,-2,0,-17
-3,0,3,1,-3,2,22,-21,-10,-2,0,-17
-2,0,2,0,-3,2,22,-21,-10,-2,0,-17
-2,0,2,1,-3,1,22,-22,-11,-2,0,-17
-3,-1,3,2,-3,1,22,-22,-11,-2,0,-17
-3,0,3,2,-4,2,23,-22,-10,-1,1,-17
-1,2,4,0,-3,3,24,-21,-9,-1,1,-16
0,3,4,0,-3,3,24,-21,-9,-1,1,-16
-1,2,4,0,-3,3,24,-22,-10,-1,1,-16
-2,2,4,0,-3,3,24,-22,-10,-1,1,-17
-2,1,4,0,-3,3,24,-22,-10,-1,1,-17
-2,1,3,0,-3,3,24,-22,-10,-1,1,-17
-1,1,3,0,-2,2,23,-22,-10,-1,1,-17
-2,0,3,1,-3,2,23,-23,-11,-1,0,-17
-2,0,2,1,-3,2,23,-23,-11,-1,0,-17
-2,0,2,1,-3,2,23,-23,-11,-1,0,-17
-3,0,3,2,-3,2,23,-23,-11,-1,0,-17
-4,0,3,2,-4,1,23,-23,-11,-2,0,-17
-3,0,3,2,-4,1,23,-23,-11,-2,0,-18
-2,0,3,1,-3,2,23,-23,-11,-2,0,-17
-2,0,3,0,-3,2,23,-23,-11,-2,0,-17
-1,1,2,0,-2,2,23,-23,-10,-2,0,-17
-1,1,2,0,-2,2,23,-23,-10,-1,0,-17
-1,1,3,0,-2,2,23,-23,-10,-1,1,-17
-2,1,3,0,-3,2,23,-23,-10,-1,1,-17
-3,0,4,1,-4,3,23,-23,-10,-1,1,-17
-3,0,4,1,-4,3,23,-23,-10,-1,1,-17
-2,0,4,1,-4,3,23,-24,-10,-1,1,-17
-2,0,3,1,-3,2,23,-24,-10,-1,0,-17
-1,0,3,1,-3,2,23,-24,-10,-1,0,-17
-1,1,3,0,-3,2,23,-24,-10,-1,0,-17
-1,0,3,1,-3,2,22,-24,-11,-1,0,-18
-2,0,3,1,-3,2,22,-25,-11,-1,0,-18
0,1,2,0,-1,2,22,-25,-11,-1,0,-18
0,2,2,-1,-1,2,22,-24,-11,-1,0,-18
0,3,2,-1,-1,3,23,-24,-11,-1,0,-18
0,2,3,-1,-1,3,23,-24,-11,-1,0,-18
-1,1,3,0,-2,3,23,-24,-11,-1,0,-18
-2,1,4,0,-3,3,23,-24,-10,-1,0,-18
-3,0,4,1,-4,3,22,-24,-10,-1,0,-18
-4,0,4,1,-4,2,22,-24,-10,-1,0,-18
-3,1,4,1,-4,3,22,-24,-9,-1,1,-18
-1,2,4,0,-3,3,22,-24,-9,-1,1,-17
-1,2,4,0,-2,3,22,-24,-9,-1,1,-17
0,3,4,-1,-2,3,23,-24,-9,0,1,-17
1,5,4,-3,-2,4,23,-23,-9,0,2,-17
1,6,5,-3,-2,5,24,-23,-8,1,2,-17
0,5,5,-2,-3,5,24,-23,-8,1,2,-17
-1,4,6,-1,-3,5,24,-23,-8,1,2,-17
0,5,6,-2,-3,5,24,-23,-8,1,2,-17
0,6,7,-3,-3,6,25,-23,-8,1,2,-16
-1,7,8,-3,-4,8,25,-23,-7,1,3,-16
-1,7,9,-3,-5,8,25,-22,-7,2,3,-15
0,8,9,-3,-5,9,25,-22,-7,2,3,-15
0,8,9,-4,-5,9,25,-22,-7,2,3,-15
1,9,9,-5,-5,9,25,-22,-6,2,4,-15
1,9,9,-5,-5,9,25,-22,-6,2,4,-15
0,8,9,-4,-5,9,25,-22,-6,2,4,-15
0,9,9,-4,-5,10,25,-22,-6,2,4,-15
1,11,9,-6,-5,11,25,-22,-5,2,5,-14
1,11,10,-6,-5,11,25,-22,-5,2,5,-14
1,10,10,-5,-5,10,24,-23,-6,2,4,-14
0,9,10,-5,-5,10,22,-24,-6,2,4,-15
0,9,11,-4,-6,10,21,-25,-6,2,4,-15
-1,9,11,-4,-6,10,21,-25,-7,2,4,-14
0,9,11,-5,-6,10,20,-26,-7,2,4,-14
0,9,10,-5,-5,10,20,-26,-8,2,4,-14
0,8,9,-4,-5,9,19,-27,-8,1,3,-15
0,8,9,-4,-4,9,18,-28,-9,0,3,-15
0,9,8,-5,-4,9,18,-28,-9,0,3,-15
2,9,7,-6,-3,8,17,-29,-9,0,3,-15
3,9,6,-6,-1,7,17,-29,-9,0,3,-15
4,8,5,-6,-1,7,16,-29,-9,0,3,-15
6,10,5,-8,0,8,16,-28,-8,1,4,-14
7,12,5,-10,1,9,17,-28,-8,2,5,-13
7,12,5,-10,1,9,17,-28,-7,2,5,-12
7,12,5,-10,0,9,18,-28,-7,2,5,-12
5,10,6,-8,-1,9,18,-28,-8,1,5,-12
3,9,7,-6,-2,9,18,-28,-8,1,4,-13
2,9,8,-6,-3,9,19,-28,-8,1,4,-13
1,8,8,-5,-3,8,20,-28,-9,1,4,-13
0,7,8,-4,-3,7,21,-28,-9,0,3,-14
0,6,7,-3,-4,6,21,-28,-10,0,3,-14
-1,5,7,-2,-4,5,21,-28,-10,0,2,-15
-1,5,7,-2,-4,6,21,-28,-9,0,2,-15
-1,5,6,-2,-3,6,21,-28,-9,0,2,-15
-1,4,5,-2,-2,5,21,-29,-10,-1,2,-15
0,3,3,-2,-1,4,21,-29,-10,-1,1,-16
0,3,3,-2,-1,3,21,-29,-10,-1,1,-16
0,4,3,-2,-1,3,21,-30,-10,-1,1,-16
0,3,3,-2,-1,3,21,-30,-11,-2,0,-16
0,2,2,-2,0,2,20,-31,-11,-3,-1,-17
0,2,2,-1,0,2,20,-31,-12,-3,-1,-17
-1,1,2,0,-1,2,21,-31,-12,-3,-1,-17
-2,0,3,1,-2,2,21,-31,-12,-3,-1,-17
-2,0,3,1,-2,2,21,-31,-12,-3,-1,-17
-1,1,3,1,-2,2,21,-30,-12,-3,-1,-16
-1,1,3,0,-2,2,21,-30,-11,-3,-1,-16
-2,0,3,1,-2,2,21,-30,-11,-3,-1,-17
-3,0,3,1,-3,1,21,-30,-11,-3,-1,-17
-3,0,3,2,-3,1,21,-30,-12,-3,-1,-17
-3,0,3,1,-3,1,21,-30,-12,-3,-1,-17
-2,0,3,1,-2,1,21,-30,-12,-3,-1,-17
-2,0,3,1,-2,1,22,-30,-11,-3,-1,-17
-2,0,3,1,-3,1,22,-30,-11,-3,-1,-17
-2,0,3,1,-3,1,22,-30,-11,-3,-2,-17
-2,0,3,1,-2,1,22,-30,-11,-3,-2,-17
-2,0,3,1,-2,2,23,-30,-11,-3,-1,-17
-2,0,3,1,-2,2,23,-30,-11,-3,-1,-17
-2,0,2,1,-1,1,23,-30,-11,-3,-1,-17
-1,0,1,1,-1,1,23,-30,-11,-3,-1,-17
-2,-1,2,2,-2,0,23,-30,-11,-3,-2,-17
-3,-1,2,2,-3,0,23,-30,-11,-3,-2,-17
-2,-1,2,1,-2,0,23,-30,-11,-3,-2,-17
-1,0,1,0,-1,0,23,-30,-11,-3,-2,-18
-2,-1,2,1,-1,0,23,-30,-11,-3,-2,-18
-3,-1,2,1,-2,1,24,-30,-11,-3,-2,-17
-3,-1,3,1,-3,1,24,-30,-11,-2,-2,-17
-3,0,3,1,-3,2,25,-30,-11,-2,-2,-16
-3,0,3,1,-3,2,25,-30,-10,-2,-2,-16
-2,0,3,1,-3,1,24,-30,-10,-2,-2,-16
-2,0,2,1,-2,1,24,-30,-10,-3,-2,-16
-2,0,2,1,-2,0,25,-29,-10,-3,-3,-17
-4,0,3,2,-3,1,27,-26,-9,-3,-3,-17
-6,0,6,3,-6,3,30,-22,-8,-2,-3,-17
-9,0,9,4,-9,5,33,-18,-6,-2,-3,-18
-11,0,11,5,-12,6,35,-15,-4,-1,-3,-18
-11,2,13,4,-13,8,38,-10,0,1,-1,-16
-8,5,14,2,-12,10,41,-5,5,6,2,-13
-7,7,14,0,-11,10,43,1,11,10,6,-11
-5,7,12,0,-9,9,44,8,17,16,11,-8
0,8,8,-4,-4,8,46,15,25,23,19,-3
9,9,0,-10,4,5,46,24,36,33,29,2
20,9,-10,-15,15,0,45,35,50,46,43,10
32,10,-21,-21,26,-4,45,48,68,63,60,20
44,14,-29,-29,36,-7,46,63,88,81,78,31
57,19,-36,-37,46,-8,45,75,108,100,96,43
70,26,-42,-47,56,-8,42,82,127,119,115,56
82,34,-47,-57,64,-7,36,85,142,137,134,69
92,39,-52,-65,72,-7,27,81,150,148,147,79
102,40,-62,-71,82,-10,18,70,146,146,147,81
112,37,-74,-74,93,-18,11,55,129,131,134,73
116,28,-87,-72,101,-28,7,36,106,108,113,58
111,17,-93,-64,102,-37,4,12,77,81,86,41
97,7,-89,-52,93,-40,1,-20,42,49,54,22
75,-1,-75,-37,74,-38,-1,-58,1,14,19,3
49,-8,-57,-20,53,-33,-2,-95,-39,-20,-14,-16
27,-16,-43,-5,35,-31,-4,-125,-74,-50,-42,-32
12,-26,-37,7,24,-32,-11,-149,-102,-73,-63,-45
0,-35,-34,17,17,-35,-18,-164,-120,-89,-77,-55
-9,-42,-33,26,12,-37,-24,-169,-130,-98,-85,-62
-14,-48,-33,31,9,-39,-27,-167,-132,-102,-89,-66
-18,-51,-33,35,8,-42,-29,-160,-130,-102,-89,-68
-19,-52,-32,36,6,-42,-29,-152,-124,-99,-87,-68
-19,-50,-30,35,5,-41,-28,-142,-116,-93,-83,-66
-18,-45,-28,32,5,-38,-24,-130,-106,-86,-77,-62
-16,-40,-24,28,4,-33,-19,-118,-95,-77,-69,-56
-14,-34,-21,24,3,-27,-14,-105,-83,-67,-60,-50
-12,-29,-18,21,3,-23,-7,-91,-71,-57,-52,-44
-10,-25,-15,17,2,-19,0,-78,-59,-48,-44,-38
-8,-21,-13,14,2,-16,6,-65,-49,-40,-37,-33
-7,-18,-11,13,1,-15,13,-54,-40,-33,-31,-29
-7,-16,-8,12,0,-13,18,-45,-33,-27,-26,-26
-8,-14,-5,11,-1,-11,22,-37,-26,-22,-22,-23
-7,-10,-3,9,-2,-8,25,-31,-21,-17,-18,-20
-6,-8,-1,7,-2,-5,27,-27,-17,-13,-14,-17
-5,-6,0,6,-2,-3,29,-24,-14,-11,-12,-15
-4,-4,0,4,-2,-1,30,-22,-12,-9,-10,-13
-3,-3,1,3,-2,0,32,-20,-10,-7,-9,-12
-4,-3,2,4,-3,0,33,-19,-9,-6,-8,-11
-5,-4,2,4,-4,0,33,-19,-8,-6,-8,-10
-6,-5,2,5,-4,-1,32,-18,-8,-5,-8,-10
-6,-4,2,5,-4,-1,32,-17,-7,-5,-7,-10
-5,-3,2,4,-4,0,32,-16,-6,-4,-6,-10
-4,-2,2,3,-3,0,32,-15,-5,-3,-5,-9
-3,-1,2,2,-3,1,33,-15,-4,-3,-4,-9
-3,-1,3,2,-3,2,33,-14,-4,-2,-4,-8
-4,-1,3,2,-4,1,33,-14,-3,-2,-3,-8
-4,-1,3,2,-4,1,34,-13,-3,-1,-3,-8
-3,0,3,2,-3,1,34,-13,-2,-1,-3,-8
-2,0,3,1,-3,1,34,-12,-2,0,-2,-7
-3,0,3,1,-3,1,34,-11,-1,0,-2,-7
-4,0,4,2,-4,1,34,-11,-1,0,-2,-7
-4,0,3,2,-4,1,34,-11,-1,0,-1,-6
-3,0,3,1,-3,1,35,-10,0,1,-1,-6
-2,1,3,0,-2,2,35,-10,0,1,-1,-6
-2,1,3,0,-2,2,35,-10,0,1,-1,-6
-2,0,3,0,-2,1,35,-10,0,1,-1,-6
-1,0,2,0,-2,1,34,-10,0,1,-1,-6
-2,0,1,1,-2,0,34,-10,0,1,-1,-6
-2,0,2,1,-2,1,34,-9,0,1,-1,-5
-3,0,2,1,-3,1,34,-9,0,1,-1,-5
-3,0,3,1,-3,2,34,-8,0,1,-1,-5
-3,0,3,1,-3,2,34,-8,0,1,-1,-5
-3,0,3,1,-3,1,34,-8,0,1,-1,-5
-2,0,2,1,-2,1,34,-8,1,1,-1,-5
-1,0,1,0,-1,1,34,-7,1,2,0,-4
-2,1,2,0,-2,1,35,-6,2,2,0,-4
-3,0,3,1,-3,2,35,-6,2,2,0,-4
-2,0,2,0,-2,1,34,-6,2,2,0,-4
0,0,1,0,-1,1,34,-6,2,2,0,-5
-1,0,1,0,-1,1,34,-6,2,2,0,-5
-2,0,3,1,-2,1,34,-5,2,2,0,-4
-3,0,4,1,-3,2,34,-4,3,2,0,-4
-2,0,3,1,-2,2,34,-4,3,2,0,-4
-1,1,3,0,-2,2,34,-4,3,3,1,-3
-1,1,3,0,-2,2,35,-3,4,3,1,-3
-1,2,4,-1,-3,3,35,-3,4,3,2,-3
-2,1,4,0,-3,2,34,-2,4,3,1,-3
-3,0,4,1,-3,2,34,-2,3,2,1,-4
-2,1,4,0,-3,3,35,-1,4,3,2,-3
-1,3,4,-1,-3,4,36,0,5,4,2,-3
-1,2,4,-1,-3,4,36,0,5,4,3,-3
-1,2,3,-1,-2,3,36,0,5,3,3,-3
0,2,2,-1,-1,3,36,0,6,3,3,-3
0,2,2,-2,-1,3,36,1,6,3,3,-3
0,3,3,-2,-2,3,36,1,7,4,3,-3
-1,2,3,-1,-2,2,36,1,6,3,2,-4
-2,0,2,0,-2,1,35,1,6,3,2,-5
-3,0,3,2,-3,1,34,1,6,3,2,-5
-4,0,4,2,-3,1,34,2,7,3,2,-5
-2,1,4,0,-3,2,35,3,8,4,3,-5
-1,3,4,-1,-2,3,35,4,8,4,3,-4
0,4,4,-2,-2,4,35,5,9,4,3,-4
0,4,4,-3,-2,4,36,6,9,4,3,-3
0,4,4,-3,-1,4,36,6,9,4,3,-3
1,4,3,-3,-1,4,36,7,10,5,3,-3
1,4,3,-3,0,4,36,8,10,5,4,-3
1,4,3,-3,-1,4,36,9,11,6,4,-3
0,4,3,-2,-2,4,36,10,11,6,4,-3
-2,3,4,0,-3,4,35,11,12,6,4,-3
-2,3,4,0,-3,4,35,11,12,6,4,-3
-1,3,4,-1,-3,4,35,12,12,6,4,-3
0,3,4,-1,-2,4,35,13,12,6,4,-3
0,4,4,-2,-2,4,35,14,12,6,5,-3
1,4,4,-2,-1,4,35,15,13,6,5,-3
1,5,4,-3,-1,4,35,16,14,7,5,-2
0,4,4,-2,-2,4,35,17,15,8,5,-2
-2,3,4,0,-3,3,35,18,15,8,4,-3
-3,1,4,0,-3,3,35,18,15,8,4,-3
-3,1,4,0,-3,3,35,19,15,8,4,-2
-2,2,4,0,-3,3,36,21,16,8,5,-2
-1,3,4,-1,-3,4,36,22,16,8,5,-2
-1,2,4,-1,-3,3,36,24,17,8,5,-2
-1,3,4,-1,-3,3,37,26,18,9,5,-2
0,4,4,-2,-2,4,38,28,19,10,6,-1
1,6,4,-4,-1,5,39,30,20,11,6,0
3,7,4,-5,0,5,40,32,22,12,7,0
4,8,4,-6,0,6,41,33,23,12,7,0
3,8,4,-6,0,6,41,35,23,12,7,1
2,7,4,-5,-1,6,42,36,24,12,7,1
3,8,5,-6,-1,7,43,37,25,13,7,1
3,8,6,-6,-1,7,43,39,26,14,8,2
2,7,5,-5,-2,7,43,40,26,14,7,1
3,7,5,-5,-1,6,43,41,26,14,7,1
3,7,5,-5,-1,7,44,43,27,14,7,1
2,8,6,-5,-2,8,45,45,28,15,7,2
1,8,7,-4,-3,8,46,46,29,15,7,2
0,7,7,-3,-3,7,46,47,29,15,6,2
0,7,7,-4,-3,7,46,48,29,15,6,2
2,8,7,-6,-2,7,47,50,30,15,6,3
2,10,8,-7,-3,9,48,52,32,16,7,4
1,10,10,-6,-5,10,50,54,33,17,7,4
0,10,10,-5,-6,10,51,55,33,17,7,5
-1,10,10,-4,-6,10,51,56,34,17,7,5
-1,10,10,-4,-5,10,51,56,34,17,6,5
0,10,10,-4,-5,10,51,57,34,17,6,4
0,10,10,-5,-5,10,52,58,34,17,6,4
2,11,10,-6,-4,11,52,59,34,17,6,4
2,12,10,-7,-4,11,53,60,35,17,6,4
3,12,10,-8,-4,11,54,61,35,17,5,4
3,13,10,-8,-3,11,54,62,36,17,5,4
2,12,10,-8,-3,11,54,62,36,16,4,3
2,12,10,-7,-3,11,55,63,36,16,4,3
3,13,10,-8,-3,11,55,63,36,16,3,3
3,13,10,-8,-2,12,56,64,36,16,3,3
3,12,9,-7,-3,11,55,64,36,15,1,2
3,11,9,-7,-2,10,55,64,35,14,0,1
3,12,9,-8,-2,10,55,64,35,14,0,0
2,11,9,-7,-3,10,55,64,35,13,0,0
1,11,9,-6,-4,10,55,64,35,13,-1,0
1,11,9,-6,-3,10,55,63,35,12,-1,0
2,11,9,-7,-3,10,55,63,35,12,-1,0
3,12,9,-8,-2,10,55,62,34,12,-2,-1
4,11,9,-8,-2,10,55,61,33,11,-3,-2
4,10,8,-8,-2,9,54,60,31,10,-5,-3
4,10,7,-8,-2,9,54,58,30,9,-6,-4
4,10,7,-7,-2,8,54,57,29,8,-6,-4
3,9,7,-6,-2,8,53,55,28,7,-7,-5
1,8,7,-5,-2,8,53,54,28,6,-8,-5
0,7,7,-4,-3,7,52,52,27,5,-9,-5
0,6,6,-3,-3,6,51,50,26,4,-10,-6
0,6,5,-3,-2,6,51,48,24,3,-11,-6
0,5,4,-3,-2,5,50,46,23,2,-11,-6
0,5,4,-3,-1,5,49,44,22,2,-12,-7
1,5,3,-3,-1,4,48,42,20,1,-13,-7
1,4,2,-2,0,3,47,40,18,0,-14,-8
0,2,1,-1,0,2,46,37,17,-2,-15,-9
-1,1,1,0,-1,1,45,35,15,-3,-16,-10
0,1,0,0,0,1,44,33,15,-3,-16,-10
3,3,0,-3,1,1,44,31,14,-3,-16,-9
5,4,0,-4,2,2,43,30,14,-3,-16,-9
5,3,-1,-4,2,1,42,27,12,-4,-16,-9
4,2,-1,-4,2,0,41,24,11,-5,-17,-10
4,1,-2,-3,2,0,40,22,9,-5,-17,-10
4,1,-3,-2,3,0,39,19,8,-6,-17,-9
4,0,-4,-2,4,-1,38,17,7,-6,-17,-9
5,0,-5,-3,5,-1,37,15,7,-6,-17,-8
4,0,-4,-2,5,-2,36,13,6,-6,-17,-8
4,-1,-4,-1,4,-2,34,10,4,-7,-17,-8
4,-2,-5,-1,5,-3,33,8,3,-7,-17,-8
5,-2,-6,-2,6,-4,31,5,2,-8,-17,-7
6,-1,-7,-2,6,-4,30,3,1,-8,-16,-7
5,-3,-7,-1,6,-5,29,0,0,-8,-16,-7
3,-5,-7,0,6,-6,27,-2,-1,-9,-16,-7
3,-4,-6,0,5,-6,27,-3,-1,-8,-15,-6
2,-3,-5,0,4,-5,26,-4,-1,-7,-14,-5
3,-2,-5,0,4,-4,26,-6,-1,-7,-14,-4
3,-2,-5,-1,4,-4,25,-7,-2,-7,-13,-3
3,-1,-5,-1,4,-4,24,-9,-2,-7,-13,-2
3,-1,-5,-1,4,-4,23,-11,-3,-7,-12,-2
4,-1,-6,-1,5,-4,22,-13,-3,-7,-12,-1
3,-2,-6,0,4,-4,22,-15,-4,-7,-11,-1
2,-2,-5,0,3,-3,21,-16,-4,-6,-11,0
2,-2,-4,0,3,-3,21,-17,-4,-6,-10,0
2,-2,-4,0,2,-3,20,-18,-4,-6,-9,1
2,-1,-3,0,2,-3,20,-19,-5,-6,-9,2
2,-1,-3,0,2,-2,20,-20,-5,-6,-8,3
2,-1,-3,0,2,-2,20,-21,-5,-6,-8,3
2,-1,-3,0,2,-2,20,-22,-5,-6,-8,3
1,-1,-3,0,2,-2,19,-23,-6,-6,-8,3
1,-2,-3,0,2,-2,19,-24,-6,-5,-7,3
1,-1,-3,0,2,-2,18,-24,-7,-5,-7,4
0,-2,-3,0,2,-3,18,-25,-7,-5,-6,4
0,-3,-3,1,1,-3,17,-25,-8,-5,-6,3
0,-2,-3,1,1,-3,17,-26,-8,-5,-6,3
0,-1,-2,0,1,-2,17,-26,-8,-4,-5,4
1,-1,-2,0,1,-2,17,-26,-8,-4,-5,4
0,-1,-2,0,1,-2,16,-27,-8,-4,-5,4
0,-1,-2,1,1,-2,16,-28,-8,-4,-5,4
1,0,-1,0,1,-1,16,-28,-7,-4,-5,4
1,0,-1,-1,1,-1,16,-28,-7,-3,-4,4
1,0,-1,0,1,-1,16,-28,-8,-3,-4,4
0,-1,-1,0,0,-1,16,-28,-8,-4,-4,4
-1,0,1,1,-1,0,15,-29,-9,-4,-5,4
-3,0,3,2,-2,0,15,-29,-9,-5,-5,3
-4,-2,2,3,-2,-1,15,-29,-9,-5,-5,3
-4,-4,0,4,-2,-3,15,-29,-8,-4,-5,3
-4,-4,0,4,-1,-3,16,-29,-8,-4,-5,3
-2,-2,-1,2,0,-2,16,-29,-8,-4,-4,3
0,0,-1,0,0,-1,17,-28,-8,-4,-4,3
1,0,-1,0,1,0,18,-27,-8,-4,-3,4
0,0,0,0,0,0,19,-27,-8,-4,-3,4
-1,0,1,1,-1,0,19,-27,-7,-4,-3,4
-3,-1,2,3,-2,0,19,-27,-7,-3,-3,4
-4,-2,2,3,-3,0,20,-27,-6,-3,-3,4
-4,-2,2,3,-3,0,20,-26,-6,-3,-3,4
-4,-2,2,3,-3,0,20,-26,-6,-3,-3,3
-3,-1,2,2,-3,0,20,-26,-6,-3,-3,3
-3,-1,2,2,-2,0,20,-25,-6,-3,-3,3
-2,-1,1,2,-2,0,20,-25,-6,-3,-3,3
-2,-1,1,2,-1,0,21,-25,-5,-3,-3,3
-2,0,1,1,-1,0,21,-25,-4,-2,-3,3
-2,0,1,1,-1,0,21,-24,-4,-2,-3,3
-1,0,0,1,-1,0,21,-24,-4,-2,-3,3
-1,0,1,1,-1,0,21,-24,-4,-2,-3,3
-2,-1,2,2,-2,0,21,-24,-4,-2,-3,3
-3,-1,3,2,-3,1,22,-24,-4,-1,-2,3
-3,0,3,2,-3,1,22,-23,-3,-1,-2,3
-4,0,3,3,-3,1,22,-23,-3,-1,-2,3
-4,-1,3,3,-3,1,21,-23,-3,-1,-2,3
-4,-1,3,3,-4,1,21,-23,-3,-1,-2,4
-3,0,4,2,-4,2,22,-22,-2,-1,-2,4
-2,1,4,0,-3,3,22,-22,-2,0,-1,5
-1,0,3,0,-2,2,21,-23,-3,-1,-2,4
-2,0,3,1,-2,1,21,-23,-3,-1,-2,4
-3,0,3,2,-3,1,21,-22,-3,-1,-2,4
-5,-1,4,4,-4,1,22,-23,-3,-1,-2,4
-5,-1,4,4,-4,1,22,-23,-3,-1,-3,4
-4,0,3,2,-3,1,22,-23,-3,-1,-3,5
-4,0,3,2,-3,1,22,-23,-2,-1,-3,5
-5,-1,4,3,-4,2,22,-23,-2,-1,-2,6
-6,-1,5,3,-5,2,22,-23,-2,-1,-2,6
-6,-1,5,3,-5,2,22,-23,-2,-1,-2,6
-5,0,4,3,-5,2,22,-23,-2,-1,-2,6
-4,0,4,2,-4,2,22,-23,-2,0,-2,7
-4,0,4,2,-4,2,22,-23,-2,0,-2,8
-5,0,4,3,-5,2,21,-24,-2,-1,-2,8
-5,0,4,3,-5,2,21,-24,-2,-1,-2,8
-4,0,4,2,-5,3,21,-24,-2,-1,-1,8
-4,1,4,1,-5,3,21,-24,-2,-1,-1,8
-3,1,4,1,-4,3,21,-25,-3,-1,-1,8
-4,0,4,2,-5,2,21,-25,-3,-1,-2,8
-6,-1,4,3,-5,1,20,-26,-4,-2,-3,7
-4,0,3,2,-4,0,20,-27,-4,-2,-3,7
-2,1,2,0,-2,1,20,-26,-3,-1,-2,8
-1,2,3,-1,-1,2,21,-26,-3,-1,-2,8
-1,3,4,-1,-2,3,21,-26,-3,-1,-2,8
-2,2,4,0,-2,2,20,-26,-3,-1,-2,7
-3,0,4,1,-3,2,20,-27,-4,-2,-2,7
-5,0,4,3,-4,1,20,-27,-4,-2,-2,7
-5,-1,4,3,-4,1,20,-27,-5,-2,-2,7
-4,0,4,3,-4,1,20,-28,-5,-2,-2,8
-2,1,4,1,-3,2,20,-28,-4,-1,-2,8
-1,2,4,0,-2,3,20,-28,-4,-1,-1,8
-2,1,4,0,-3,3,19,-29,-5,-1,-1,8
-2,1,3,0,-3,2,19,-29,-5,-1,-1,8
-2,1,2,0,-2,2,18,-29,-5,-2,-2,8
-2,0,2,1,-2,1,17,-30,-6,-2,-2,7
-3,-1,1,2,-2,0,16,-31,-6,-3,-3,7
-3,-1,1,3,-2,0,16,-31,-7,-3,-3,6
-2,0,1,2,-2,0,16,-31,-7,-3,-3,7
0,1,1,0,0,1,16,-31,-7,-2,-2,7
1,2,1,-1,0,1,16,-31,-7,-2,-2,7
1,2,2,-1,0,1,16,-32,-7,-2,-2,8
0,2,2,-1,-1,1,16,-32,-7,-2,-2,8
-1,2,2,0,-1,2,16,-32,-7,-2,-2,8
-1,2,3,0,-2,2,16,-32,-6,-2,-2,9
-1,2,2,0,-1,2,16,-32,-6,-2,-2,9
0,2,1,0,0,1,16,-32,-6,-2,-2,9
0,2,2,0,-1,1,15,-32,-6,-2,-2,9
-2,1,3,1,-3,1,15,-33,-6,-2,-2,9
-3,0,3,1,-4,1,15,-33,-7,-3,-2,9
-2,0,2,1,-3,0,14,-34,-7,-3,-2,9
-1,1,2,1,-2,0,14,-34,-7,-3,-2,9
0,1,1,0,-1,1,14,-34,-7,-3,-2,10
0,1,1,0,0,1,14,-34,-8,-4,-2,10
0,1,1,0,0,1,14,-34,-8,-4,-2,11
-1,1,2,0,-1,1,14,-34,-8,-4,-2,12
-1,1,3,0,-2,1,14,-34,-8,-3,-2,12
0,2,3,0,-2,2,14,-34,-8,-3,-2,13
0,1,3,0,-2,1,14,-34,-8,-3,-2,13
0,1,2,0,-2,1,14,-34,-8,-3,-2,13
0,1,2,0,-2,2,14,-34,-8,-3,-2,14
0,2,3,0,-2,2,14,-33,-7,-3,-1,15
-1,1,3,0,-2,2,14,-33,-7,-3,-1,16
0,1,2,0,-2,1,14,-34,-7,-3,-2,16
0,1,2,0,-1,1,14,-34,-8,-3,-2,16
0,0,1,0,-1,0,14,-35,-8,-3,-2,16
1,1,1,0,0,0,14,-35,-8,-3,-2,16
1,1,1,0,0,0,14,-35,-8,-3,-2,17
-1,0,1,0,-1,0,14,-35,-8,-3,-2,17
-1,0,2,0,-2,1,14,-35,-8,-3,-2,18
0,1,2,0,-1,1,14,-35,-8,-3,-2,19
0,2,2,-1,-1,1,14,-35,-8,-3,-2,19
2,3,2,-2,0,2,14,-34,-8,-3,-1,20
1,2,2,-2,0,2,14,-34,-9,-3,-1,20
-1,0,2,1,-1,1,13,-35,-9,-3,-2,19
-2,0,2,2,-2,1,13,-35,-9,-3,-2,20
0,1,2,0,-1,2,13,-34,-8,-2,-1,21
1,2,2,-1,0,2,13,-34,-8,-2,-1,21
0,1,1,-1,0,1,13,-35,-9,-3,-2,21
1,1,1,-1,0,1,13,-35,-9,-3,-2,21
1,1,1,-2,0,1,13,-35,-9,-3,-2,21
1,0,0,-1,0,0,13,-36,-9,-4,-2,21
1,0,0,0,0,0,13,-36,-9,-3,-2,21
2,1,0,-1,0,0,13,-35,-9,-3,-1,22
1,2,0,-2,0,1,13,-35,-9,-2,-1,23
0,2,1,-1,-1,1,12,-35,-9,-2,-1,23
0,2,1,-1,-1,1,12,-35,-9,-2,-1,23
1,2,1,-2,0,1,12,-35,-9,-2,0,23
1,2,2,-2,-1,1,12,-35,-9,-2,0,23
0,1,2,-1,-1,1,12,-36,-9,-2,0,23
1,1,1,-1,0,1,12,-36,-9,-2,0,23
1,1,1,-1,0,1,12,-36,-9,-2,0,23
1,1,1,-1,0,1,12,-36,-9,-2,0,23
1,1,0,-1,0,1,12,-36,-9,-3,-1,23
1,1,0,-1,0,1,11,-36,-10,-3,-1,23
0,1,0,-1,0,1,11,-36,-10,-3,-2,22
0,1,1,-1,-1,1,12,-36,-9,-3,-2,23
0,1,1,-1,-1,1,12,-36,-9,-3,-2,23
1,1,1,-2,0,1,12,-36,-9,-3,-2,23
2,2,1,-2,0,1,12,-36,-9,-3,-2,23
2,2,0,-2,1,1,12,-36,-9,-3,-2,23
2,2,0,-2,1,1,12,-36,-10,-3,-2,23
1,2,0,-1,0,1,12,-36,-10,-3,-2,23
0,1,1,0,-1,1,12,-36,-10,-3,-2,23
-1,1,2,0,-1,1,12,-36,-9,-3,-2,24
0,3,2,-2,-1,3,13,-35,-8,-2,-1,24
1,4,3,-3,-2,4,14,-34,-7,-1,0,25
1,4,4,-3,-2,4,15,-34,-7,-1,0,26
2,5,5,-3,-2,5,15,-33,-6,0,1,26
3,6,5,-4,-1,5,15,-33,-6,0,1,27
2,6,5,-4,-1,5,15,-32,-6,0,1,27
1,6,5,-4,-1,5,15,-32,-6,0,1,27
2,7,5,-5,-1,6,15,-32,-5,0,1,27
3,8,4,-6,-1,6,15,-32,-5,0,1,27
4,8,4,-6,-1,7,15,-32,-5,0,1,27
4,8,6,-6,-2,7,15,-32,-5,1,2,28
3,8,7,-5,-3,8,15,-32,-5,1,2,28
3,8,7,-5,-2,8,15,-32,-5,1,2,28
1,7,7,-4,-3,7,15,-32,-5,1,2,28
0,7,7,-3,-4,7,14,-32,-5,1,2,28
0,8,7,-4,-3,7,14,-32,-5,1,2,28
1,9,7,-5,-3,8,14,-32,-5,1,2,28
2,9,6,-6,-2,7,13,-33,-6,1,1,28
2,8,5,-5,-2,6,11,-34,-6,1,1,28
2,8,6,-5,-2,7,11,-34,-6,1,2,28
2,9,7,-6,-2,8,10,-34,-5,2,3,29
4,11,7,-7,-1,9,10,-34,-5,2,3,29
5,12,6,-9,0,9,9,-34,-5,2,3,29
6,12,6,-10,1,9,9,-35,-6,2,3,29
5,11,6,-9,0,9,8,-35,-6,2,2,29
5,11,6,-9,0,9,7,-36,-6,1,2,29
6,11,5,-9,0,8,7,-36,-6,1,2,29
6,9,4,-8,1,7,6,-37,-7,1,2,29
7,9,4,-8,1,6,5,-37,-8,1,1,28
8,10,3,-9,2,6,5,-37,-8,1,1,28
8,11,4,-10,2,7,5,-37,-8,1,2,29
8,11,4,-10,2,7,5,-36,-7,1,2,29
8,11,3,-10,2,7,6,-36,-7,1,2,29
8,10,3,-9,2,6,6,-36,-7,1,2,29
7,10,3,-9,1,6,7,-36,-7,1,2,29
6,10,4,-8,1,7,8,-36,-7,1,2,29
6,10,4,-8,1,6,9,-35,-7,1,2,28
5,9,3,-7,1,5,9,-35,-8,0,1,27
4,7,3,-6,0,5,9,-35,-8,0,1,27
3,6,3,-5,0,4,9,-35,-8,0,0,26
3,6,3,-5,1,4,9,-35,-8,0,0,26
3,5,2,-5,1,4,9,-35,-9,0,0,26
3,5,2,-4,1,3,8,-35,-9,0,0,25
2,4,2,-3,0,3,8,-35,-9,0,0,25
1,4,2,-3,0,3,8,-35,-9,0,0,25
1,3,2,-2,-1,3,8,-35,-10,-1,-1,25
0,2,2,-2,0,2,7,-35,-10,-1,-1,24
1,2,2,-2,0,2,7,-35,-10,-2,-1,24
1,3,2,-3,1,2,8,-35,-9,-1,-1,24
0,3,2,-2,0,2,8,-35,-9,-1,-1,24
-1,0,2,0,-1,1,8,-36,-10,-2,-2,23
-3,-1,2,2,-2,0,7,-37,-11,-3,-3,22
-1,-1,1,1,-1,0,7,-36,-11,-3,-2,22
1,1,1,-1,0,1,8,-35,-11,-3,-2,23
1,1,1,-2,0,1,8,-35,-11,-3,-2,22
0,1,1,-1,0,1,8,-35,-11,-3,-2,22
0,2,2,-1,0,2,9,-34,-10,-2,-1,23
1,2,1,-2,0,2,10,-34,-10,-2,-1,23
1,1,0,-1,0,1,9,-34,-10,-3,-2,22
0,0,0,0,0,0,9,-34,-11,-3,-2,22
0,0,0,0,0,0,9,-34,-10,-3,-2,22
0,-1,0,0,-1,0,9,-33,-10,-3,-2,22
-1,-1,1,1,-1,0,9,-33,-10,-3,-2,22
-2,-2,1,1,-1,0,9,-33,-10,-3,-2,22
-1,-1,1,1,-1,0,9,-33,-10,-3,-2,22
0,0,0,0,0,0,9,-33,-10,-3,-2,22
0,0,0,0,0,0,9,-33,-9,-2,-1,22
1,1,0,-1,0,1,10,-32,-9,-2,-1,23
2,2,0,-1,0,1,10,-31,-9,-2,-1,23
2,1,0,-1,0,0,10,-32,-9,-3,-1,22
1,0,-1,0,1,-1,10,-33,-10,-3,-2,21
0,-1,-1,0,0,-1,10,-33,-10,-3,-2,21
0,0,0,0,0,0,10,-32,-10,-3,-2,21
0,0,0,0,0,0,11,-32,-9,-2,-1,22
0,1,1,-1,0,1,11,-32,-9,-2,-1,22
-1,0,1,0,-1,0,10,-32,-9,-2,-1,21
-1,0,1,0,-1,0,10,-32,-9,-2,-1,21
0,0,1,0,0,1,10,-31,-9,-2,-1,22
0,1,1,0,-1,1,11,-29,-8,-1,-1,22
-2,0,3,1,-3,1,13,-26,-7,-1,-1,21
-4,1,5,1,-4,2,16,-22,-5,-1,-2,20
-5,2,7,1,-6,4,19,-18,-3,0,-2,20
-6,3,10,1,-7,6,22,-14,0,1,-1,21
-6,4,12,1,-8,8,24,-10,3,3,0,22
-5,6,12,0,-8,9,26,-5,7,6,3,23
-2,7,11,-2,-7,10,28,1,13,11,7,25
1,8,8,-4,-4,9,29,8,20,17,13,28
5,8,3,-6,0,6,30,16,28,24,20,32
13,8,-4,-10,8,1,30,24,38,35,30,38
25,9,-15,-17,20,-3,30,35,52,48,45,46
38,12,-25,-25,32,-6,30,49,70,65,62,56
48,15,-33,-32,42,-9,30,63,90,82,79,66
59,18,-41,-39,51,-11,28,75,108,100,97,77
74,25,-48,-50,61,-11,25,82,126,118,116,89
89,34,-55,-62,72,-10,20,85,141,135,135,102
103,40,-62,-72,83,-11,12,81,148,145,146,111
114,41,-72,-77,93,-16,3,70,142,141,144,111
120,34,-85,-77,102,-26,-4,54,123,125,129,101
121,24,-97,-72,109,-36,-8,35,99,102,107,86
116,15,-101,-65,109,-43,-10,11,72,75,80,69
98,6,-92,-52,95,-42,-12,-19,39,44,50,51
71,-1,-72,-35,72,-36,-12,-55,0,10,16,32
46,-7,-52,-20,49,-29,-11,-90,-37,-22,-15,14
27,-12,-39,-7,33,-26,-13,-118,-70,-49,-41,-1
12,-19,-31,4,22,-26,-17,-140,-96,-70,-60,-14
-1,-28,-27,14,13,-28,-23,-154,-113,-85,-73,-24
-11,-36,-25,23,8,-31,-29,-160,-123,-94,-82,-31
-16,-43,-26,29,6,-35,-33,-160,-127,-98,-86,-36
-18,-46,-27,31,5,-37,-36,-155,-126,-99,-87,-38
-19,-46,-27,32,4,-36,-38,-147,-121,-97,-85,-38
-19,-44,-25,31,3,-34,-37,-138,-114,-92,-80,-36
-19,-41,-22,30,1,-32,-35,-127,-105,-85,-74,-33
-18,-37,-20,28,0,-29,-32,-116,-94,-77,-67,-28
-16,-32,-17,24,1,-25,-27,-104,-83,-68,-59,-23
-12,-27,-16,20,2,-21,-22,-91,-72,-58,-51,-17
-9,-22,-14,16,2,-18,-15,-77,-60,-49,-42,-11
-7,-19,-12,13,2,-15,-8,-65,-50,-40,-35,-6
-5,-16,-10,11,2,-13,-2,-54,-41,-34,-29,-2
-4,-14,-9,10,2,-12,3,-44,-33,-28,-25,0
-4,-13,-7,9,1,-11,6,-37,-27,-23,-21,3
-3,-10,-6,7,1,-9,9,-30,-21,-18,-17,5
-1,-5,-4,3,1,-6,12,-25,-16,-13,-12,8
-1,-3,-2,2,1,-4,14,-21,-13,-10,-9,11
-3,-3,0,3,-1,-2,15,-19,-11,-8,-7,12
-4,-3,1,4,-2,-1,16,-17,-9,-7,-6,14
-4,-3,2,3,-3,0,17,-16,-8,-6,-5,14
-4,-2,2,3,-3,0,17,-15,-7,-5,-5,14
-3,-1,2,2,-2,0,18,-14,-6,-4,-4,14
-2,0,2,1,-2,0,18,-12,-5,-3,-4,15
-1,0,2,0,-1,0,18,-11,-4,-2,-3,15
0,1,2,0,-1,0,18,-11,-3,-1,-2,16
1,1,1,-1,0,1,18,-10,-3,-1,-2,16
1,1,1,-1,0,1,18,-10,-2,0,-1,17
0,1,2,0,0,1,18,-9,-2,0,-1,17
0,1,2,0,0,1,18,-8,-2,0,0,17
0,1,2,0,0,1,18,-8,-2,0,0,17
-1,0,1,0,0,0,18,-7,-2,0,0,16
0,0,1,0,0,0,18,-6,-1,0,0,16
1,2,1,-1,0,1,18,-5,0,1,0,17
0,2,2,-1,0,1,18,-5,0,1,1,17
0,2,2,0,-1,2,18,-4,1,2,1,17
0,3,3,-1,-1,2,19,-4,1,2,1,18
1,4,3,-2,0,3,19,-3,1,2,1,18
2,4,3,-3,0,3,19,-2,2,2,1,18
3,4,2,-3,0,3,19,-2,2,3,1,18
2,4,2,-3,0,2,19,-1,2,3,2,18
2,4,2,-3,0,2,19,-1,2,3,2,18
1,3,2,-2,0,2,19,-1,2,3,1,17
1,3,2,-2,0,3,19,0,2,3,1,17
1,3,2,-2,0,3,19,0,3,3,2,17
1,3,1,-1,0,2,18,0,3,3,1,17
0,2,2,-1,-1,2,18,0,2,3,1,16
-1,2,3,0,-2,2,18,1,2,3,1,16
-1,2,3,0,-2,2,18,2,2,3,1,16
