leadI,leadII,leadIII,leadaVR,leadaVL,leadaVF,leadV1,leadV2,leadV3,leadV4,leadV5,leadV6
2,1,-1,-1,2,0,0,1,1,0,0,0
6,2,-4,-3,5,-1,2,4,4,1,1,1
8,1,-6,-4,7,-2,3,6,7,2,2,2
9,1,-7,-4,8,-3,4,7,8,2,3,2
9,0,-8,-4,9,-4,5,8,9,3,3,2
10,1,-8,-4,9,-4,5,8,9,2,2,2
11,2,-8,-5,10,-3,4,7,8,1,2,1
12,3,-8,-7,10,-2,3,7,8,1,1,1
12,4,-7,-8,10,-1,3,7,8,0,1,1
12,4,-7,-7,10,-1,3,7,8,0,1,1
11,2,-7,-6,10,-2,4,7,8,1,2,1
10,1,-8,-5,10,-3,4,8,9,1,2,1
10,0,-8,-5,10,-4,4,8,9,2,2,1
11,0,-9,-5,10,-4,4,8,9,2,1,1
11,1,-9,-5,10,-4,3,7,8,2,1,1
11,2,-8,-6,10,-3,3,7,8,2,0,0
11,3,-8,-6,10,-2,3,7,8,2,0,0
11,3,-8,-6,10,-2,3,7,8,1,0,0
11,2,-8,-6,10,-3,3,7,8,1,0,0
11,1,-9,-5,10,-4,3,8,8,1,0,0
11,0,-9,-5,10,-4,3,8,8,1,0,0
10,0,-9,-4,10,-5,3,8,9,1,0,0
10,0,-9,-4,10,-5,3,8,9,1,0,0
10,0,-9,-4,10,-5,3,8,9,1,0,0
10,0,-9,-4,10,-5,3,8,9,1,0,0
10,1,-9,-4,10,-5,3,8,9,2,0,0
10,1,-9,-4,10,-5,3,8,9,2,0,0
10,0,-9,-4,10,-5,3,8,9,2,0,0
10,0,-9,-4,10,-5,3,8,9,2,0,0
10,0,-9,-4,10,-5,4,8,9,2,0,0
10,0,-9,-5,10,-5,4,8,9,2,0,0
9,0,-9,-5,10,-5,4,8,8,2,0,0
9,0,-9,-4,9,-5,4,8,8,1,-1,0
8,0,-9,-3,9,-5,4,8,8,1,-1,0
9,0,-9,-4,9,-4,5,9,8,1,-1,0
10,0,-9,-5,9,-4,5,9,8,1,-1,0
10,0,-9,-5,9,-4,5,9,8,1,-1,0
10,0,-9,-5,9,-4,5,9,8,1,-1,-1
10,0,-9,-5,9,-5,5,9,8,1,-1,-1
10,0,-9,-6,10,-5,5,9,9,1,-2,-1
11,1,-9,-6,10,-5,5,9,9,1,-2,-1
11,1,-9,-6,10,-5,5,9,9,1,-2,-1
11,1,-9,-5,10,-5,5,9,9,1,-2,-2
10,0,-9,-5,10,-5,5,9,9,1,-2,-2
10,0,-9,-4,10,-6,5,9,9,1,-3,-3
9,-1,-9,-4,10,-6,5,9,9,1,-3,-3
9,-1,-9,-4,10,-6,5,9,9,1,-3,-4
9,-1,-9,-3,10,-6,5,9,9,1,-3,-4
9,-1,-9,-3,10,-6,5,9,9,1,-3,-4
9,-1,-9,-3,9,-6,5,9,9,1,-3,-4
9,-1,-9,-3,9,-6,5,9,9,1,-3,-4
9,-1,-9,-3,9,-6,5,9,9,1,-3,-4
9,-1,-9,-3,9,-6,5,9,9,1,-3,-4
9,-2,-9,-3,9,-6,5,9,9,1,-3,-4
9,-2,-9,-3,10,-6,5,9,9,1,-3,-4
9,-1,-9,-3,10,-6,5,9,9,1,-3,-4
9,-1,-9,-3,10,-6,5,9,9,1,-3,-4
9,-1,-9,-3,10,-6,5,9,9,1,-3,-4
9,-1,-9,-3,10,-6,5,9,9,1,-3,-4
9,-1,-10,-3,10,-6,5,9,9,1,-3,-4
9,-1,-10,-3,10,-6,5,9,9,1,-3,-4
9,-1,-10,-3,10,-6,5,9,9,1,-3,-4
9,-1,-10,-3,9,-6,5,9,9,0,-3,-5
9,-1,-10,-2,9,-6,5,9,9,0,-3,-5
8,-2,-10,-2,9,-7,5,9,8,0,-3,-5
8,-2,-10,-2,9,-7,5,9,8,0,-3,-5
8,-3,-10,-2,9,-7,5,9,8,0,-3,-5
8,-3,-10,-2,9,-7,5,9,8,0,-3,-5
8,-2,-10,-2,9,-7,5,9,8,0,-3,-5
8,-2,-10,-2,9,-7,6,9,8,0,-3,-5
8,-2,-11,-2,10,-7,6,9,8,0,-3,-5
8,-2,-11,-2,10,-7,6,9,8,0,-3,-5
8,-3,-11,-2,10,-8,6,9,8,0,-3,-5
8,-3,-11,-2,10,-8,6,10,8,0,-4,-5
8,-4,-11,-1,10,-8,6,10,8,0,-4,-5
8,-4,-11,-1,9,-8,6,10,8,0,-4,-5
8,-4,-11,-1,9,-8,6,10,8,0,-4,-5
8,-4,-11,-1,9,-8,6,10,8,0,-4,-5
8,-4,-11,-1,9,-8,6,10,8,0,-4,-5
8,-4,-11,-1,9,-8,6,10,8,0,-4,-5
8,-4,-12,-1,9,-8,6,10,8,0,-4,-5
8,-4,-12,-1,9,-8,6,10,8,0,-4,-5
8,-3,-11,-1,9,-8,6,11,8,0,-4,-5
8,-3,-11,-1,9,-7,6,11,8,0,-4,-5
9,-3,-11,-1,9,-7,6,11,9,0,-4,-5
9,-2,-11,-2,9,-7,6,11,9,0,-4,-5
9,-2,-10,-2,9,-7,6,11,9,1,-4,-5
9,-1,-10,-3,9,-6,6,11,10,1,-3,-5
9,0,-9,-3,9,-5,6,12,10,2,-3,-5
9,0,-9,-4,9,-5,6,12,11,2,-2,-5
9,1,-8,-4,9,-4,6,12,11,2,-2,-5
9,1,-8,-5,9,-4,6,12,11,2,-2,-5
9,1,-8,-5,8,-4,6,12,11,2,-2,-5
9,1,-8,-5,8,-4,7,12,11,3,-2,-4
10,1,-8,-5,8,-4,7,12,12,3,-1,-4
10,1,-8,-5,8,-4,8,12,12,3,-1,-4
10,1,-8,-5,8,-4,8,12,12,3,-1,-4
10,1,-8,-4,8,-4,8,12,12,3,-1,-4
9,1,-8,-4,8,-4,8,12,12,3,-1,-4
9,1,-8,-4,9,-4,8,13,12,3,-1,-4
10,1,-9,-4,9,-4,8,13,12,3,-1,-4
11,1,-9,-5,9,-4,8,13,12,3,-1,-4
11,1,-9,-5,9,-4,7,13,12,4,-1,-4
11,1,-9,-5,9,-4,6,13,13,4,-1,-4
11,1,-9,-5,10,-4,5,13,13,4,0,-4
12,1,-10,-6,10,-5,4,13,14,4,0,-4
12,1,-11,-6,11,-5,3,13,14,5,0,-3
13,1,-11,-7,11,-5,3,13,14,5,1,-3
13,1,-12,-7,12,-6,3,14,15,6,1,-2
13,1,-12,-6,12,-6,4,14,15,6,1,-2
13,0,-12,-6,12,-7,4,15,15,6,1,-2
13,0,-12,-6,12,-7,4,15,15,6,1,-2
13,0,-12,-6,12,-7,5,15,15,6,1,-2
12,0,-13,-5,13,-7,5,15,15,6,0,-2
12,-1,-14,-5,13,-8,5,14,15,5,0,-3
12,-1,-14,-5,13,-8,6,14,14,4,0,-3
12,-2,-14,-5,13,-8,6,14,14,4,0,-4
12,-2,-15,-4,13,-9,6,14,13,3,-1,-4
12,-3,-15,-4,13,-10,6,14,13,3,-1,-4
12,-4,-16,-3,14,-11,6,14,12,2,-2,-5
12,-4,-16,-3,14,-11,6,14,12,2,-2,-5
12,-5,-17,-3,14,-11,6,14,12,2,-2,-6
12,-5,-17,-3,14,-11,6,14,12,1,-2,-6
11,-5,-16,-2,13,-11,6,14,12,1,-2,-6
10,-6,-15,-1,12,-11,6,14,12,1,-3,-6
9,-6,-15,-1,12,-11,6,14,12,1,-3,-6
9,-6,-15,0,11,-11,6,13,11,1,-3,-7
9,-6,-15,0,11,-11,7,13,11,1,-3,-7
9,-7,-15,0,11,-11,7,13,10,1,-3,-7
8,-7,-15,0,11,-11,7,12,10,0,-4,-8
8,-7,-15,0,11,-11,7,12,9,0,-4,-8
8,-7,-15,0,11,-11,7,12,9,0,-4,-9
8,-8,-15,0,11,-12,7,12,9,0,-4,-9
8,-8,-15,0,11,-12,7,12,9,0,-4,-9
8,-8,-15,0,11,-12,7,12,9,0,-4,-9
7,-8,-15,1,11,-13,7,12,9,0,-4,-9
7,-9,-16,1,11,-13,7,12,9,0,-4,-9
7,-9,-16,1,11,-13,7,12,9,0,-4,-9
8,-9,-16,1,12,-13,7,12,9,0,-4,-9
8,-9,-16,1,12,-14,7,12,9,-1,-4,-9
8,-10,-17,1,12,-14,7,12,9,-1,-4,-9
8,-10,-17,1,12,-14,7,12,9,-1,-4,-9
9,-10,-17,1,13,-14,7,12,9,-1,-4,-9
9,-10,-17,1,13,-14,7,12,9,-1,-4,-9
8,-10,-17,2,13,-15,7,12,9,-1,-4,-9
8,-10,-18,2,13,-15,7,12,9,-1,-4,-9
8,-10,-18,2,13,-15,8,13,9,0,-4,-9
8,-10,-18,2,13,-15,8,13,9,0,-4,-9
8,-10,-18,2,13,-15,8,13,9,0,-4,-9
8,-10,-18,2,13,-15,8,14,9,0,-4,-9
8,-10,-18,2,13,-16,9,14,10,0,-4,-9
8,-11,-19,2,13,-16,9,15,10,0,-4,-9
8,-12,-19,2,14,-17,11,17,11,0,-5,-9
8,-12,-20,2,14,-17,13,21,13,0,-6,-10
7,-13,-20,3,13,-18,16,26,16,0,-6,-11
6,-13,-19,4,12,-17,21,32,21,1,-7,-12
7,-12,-18,3,12,-16,24,39,26,3,-7,-13
8,-10,-17,2,12,-15,26,46,33,6,-5,-12
10,-7,-17,0,13,-13,27,54,42,12,-2,-9
13,-3,-16,-4,14,-10,28,62,52,20,3,-5
17,1,-16,-9,16,-8,28,73,66,30,10,-1
23,6,-16,-14,19,-6,28,84,81,42,19,5
30,13,-16,-21,22,-2,25,92,97,57,31,13
37,22,-15,-29,26,2,21,98,115,75,46,24
44,33,-11,-38,27,10,16,101,134,97,63,36
50,46,-4,-47,27,19,11,99,151,120,82,49
56,59,3,-57,26,30,4,93,166,143,101,64
62,74,12,-67,24,42,-3,83,177,163,120,79
65,88,24,-76,20,55,-13,66,178,177,136,94
64,102,38,-83,12,69,-23,39,167,180,147,106
59,112,54,-85,2,82,-31,4,142,170,149,114
49,117,68,-83,-10,91,-37,-34,106,149,142,114
37,115,79,-76,-21,95,-41,-70,61,120,126,108
23,110,87,-66,-32,97,-45,-106,6,82,103,97
9,105,97,-57,-44,100,-51,-141,-52,42,78,84
-4,101,105,-48,-55,102,-56,-170,-101,8,55,71
-15,95,110,-40,-62,102,-62,-188,-135,-17,36,59
-21,89,110,-33,-66,99,-67,-197,-156,-35,22,49
-24,82,107,-28,-66,94,-72,-201,-167,-46,12,41
-25,75,102,-24,-64,87,-78,-202,-172,-54,5,35
-25,68,94,-20,-61,80,-84,-199,-172,-58,-1,28
-25,60,86,-17,-56,72,-89,-193,-168,-61,-6,22
-25,53,77,-13,-51,64,-91,-185,-162,-63,-10,17
-24,46,69,-10,-47,57,-92,-175,-155,-64,-14,12
-22,42,63,-9,-43,52,-90,-165,-147,-63,-17,8
-21,39,59,-8,-40,48,-86,-153,-137,-60,-18,6
-19,36,56,-8,-38,45,-81,-141,-127,-56,-18,4
-18,34,52,-7,-35,42,-74,-128,-116,-52,-17,3
-16,31,48,-7,-33,39,-66,-116,-106,-48,-16,2
-14,29,45,-6,-30,36,-58,-104,-97,-44,-15,1
-14,27,42,-6,-28,33,-50,-93,-88,-40,-14,0
-13,26,39,-6,-26,31,-43,-83,-80,-37,-14,0
-12,25,37,-6,-25,30,-36,-74,-72,-34,-13,-1
-12,24,36,-6,-24,28,-31,-66,-66,-31,-13,-2
-11,23,35,-5,-23,27,-27,-61,-60,-29,-12,-2
-11,22,33,-5,-22,26,-24,-56,-55,-26,-11,-2
-10,21,32,-5,-21,25,-22,-52,-51,-24,-10,-2
-8,20,30,-5,-20,24,-19,-48,-47,-22,-9,-1
-7,20,28,-6,-18,23,-17,-44,-44,-19,-7,-1
-6,20,26,-6,-17,22,-16,-40,-41,-17,-6,0
-6,18,25,-5,-16,21,-14,-37,-39,-16,-6,0
-6,18,24,-5,-15,20,-13,-35,-37,-15,-6,0
-5,19,24,-6,-14,20,-12,-32,-34,-14,-5,0
-3,20,24,-8,-14,21,-11,-30,-31,-13,-4,1
-2,21,24,-9,-13,21,-9,-29,-29,-11,-3,1
0,22,23,-10,-12,21,-8,-27,-27,-10,-3,2
0,22,22,-10,-12,21,-7,-26,-26,-9,-2,2
1,23,22,-11,-11,22,-7,-24,-25,-8,-2,3
1,23,22,-12,-11,22,-6,-23,-24,-7,-1,3
1,24,22,-13,-11,23,-6,-21,-23,-6,-1,3
1,24,23,-13,-11,23,-5,-21,-22,-6,-1,3
2,25,23,-13,-11,23,-5,-20,-21,-5,-1,3
2,25,24,-13,-11,24,-5,-20,-20,-5,0,4
2,26,24,-13,-11,24,-4,-20,-19,-5,0,4
2,26,24,-14,-11,25,-4,-20,-19,-4,0,4
2,26,24,-14,-11,25,-4,-20,-19,-4,0,4
2,26,24,-14,-11,25,-4,-19,-19,-4,0,4
2,26,24,-14,-11,25,-4,-19,-18,-4,0,4
2,26,24,-14,-11,25,-3,-18,-18,-3,0,4
2,26,24,-14,-11,25,-3,-18,-17,-3,0,4
2,26,24,-14,-11,25,-3,-18,-17,-3,1,5
2,26,24,-14,-11,25,-3,-18,-17,-3,1,5
2,26,25,-14,-11,24,-3,-18,-17,-2,1,5
2,26,25,-14,-11,24,-3,-17,-17,-2,1,5
2,26,25,-14,-11,25,-3,-17,-17,-1,2,5
2,26,25,-14,-11,25,-3,-16,-17,-1,2,5
2,26,25,-14,-12,25,-3,-16,-17,-1,2,5
2,27,25,-14,-12,25,-3,-16,-17,-1,2,5
2,27,26,-14,-12,25,-3,-16,-16,-1,2,5
2,27,26,-14,-12,25,-3,-16,-16,-1,2,5
2,27,26,-14,-12,26,-2,-16,-16,-1,2,6
2,28,26,-14,-12,26,-2,-16,-16,-1,2,6
2,28,26,-14,-12,26,-2,-16,-16,-1,2,6
1,28,26,-14,-12,26,-2,-16,-16,-1,2,6
1,28,26,-14,-13,26,-2,-16,-16,-1,2,7
1,28,27,-14,-13,26,-2,-16,-15,0,2,7
1,29,27,-15,-13,27,-2,-16,-15,0,3,7
1,29,27,-15,-13,27,-2,-16,-15,0,3,8
2,29,27,-15,-13,27,-2,-16,-15,0,4,8
1,29,28,-15,-13,27,-2,-16,-15,0,4,8
1,29,28,-15,-14,27,-2,-16,-15,0,4,9
1,29,29,-15,-14,28,-2,-15,-15,0,4,9
1,30,29,-15,-14,28,-2,-15,-15,0,4,10
1,30,29,-15,-14,29,-2,-15,-15,0,4,10
1,30,29,-15,-14,29,-2,-15,-15,0,4,10
1,30,30,-15,-15,29,-2,-15,-14,1,5,10
1,31,30,-15,-15,30,-2,-15,-14,1,5,10
1,31,31,-16,-15,30,-2,-15,-14,2,6,10
1,32,31,-16,-15,30,-2,-15,-14,2,6,11
1,32,31,-16,-15,30,-2,-15,-14,2,6,11
0,32,32,-16,-16,30,-2,-15,-14,2,7,11
0,32,32,-16,-16,31,-2,-15,-14,2,7,12
0,33,33,-16,-16,32,-2,-16,-14,2,8,12
0,33,33,-16,-17,32,-2,-16,-14,3,8,13
0,34,34,-16,-17,33,-2,-16,-14,3,9,13
0,34,35,-17,-18,33,-2,-16,-14,3,9,14
0,35,35,-17,-18,34,-2,-16,-15,3,10,15
0,35,36,-17,-18,34,-3,-16,-15,3,10,15
0,36,37,-18,-18,35,-3,-16,-16,3,10,15
0,37,38,-18,-19,35,-3,-16,-16,3,10,15
0,37,38,-18,-20,36,-3,-17,-16,3,10,15
0,38,39,-18,-20,37,-3,-17,-16,3,10,15
0,38,40,-18,-21,38,-3,-18,-16,3,11,15
0,39,41,-19,-21,39,-4,-18,-17,4,11,15
-1,40,42,-19,-22,39,-4,-18,-17,4,11,16
-1,41,42,-19,-22,40,-4,-18,-17,4,11,16
-1,41,43,-19,-22,41,-4,-18,-17,4,12,17
-1,42,44,-19,-23,41,-4,-18,-17,5,12,17
-1,42,44,-19,-23,42,-4,-18,-17,5,12,18
-2,42,45,-20,-24,43,-4,-18,-17,6,13,19
-2,43,46,-20,-24,43,-4,-18,-17,6,14,19
-2,44,47,-20,-25,44,-4,-18,-17,7,14,20
-2,45,47,-21,-25,44,-4,-18,-18,7,15,21
-2,46,48,-21,-25,45,-4,-18,-18,7,15,21
-2,46,49,-22,-25,46,-4,-18,-18,7,16,22
-2,47,50,-22,-26,47,-4,-18,-18,8,17,23
-2,48,51,-22,-27,48,-5,-18,-18,8,17,24
-2,49,52,-23,-28,49,-5,-18,-18,8,18,25
-3,50,54,-23,-28,50,-5,-18,-18,8,19,25
-3,51,55,-23,-29,52,-5,-18,-19,9,19,26
-3,52,56,-24,-30,53,-5,-18,-19,9,20,26
-3,53,57,-24,-31,54,-5,-18,-19,9,20,27
-3,54,58,-24,-31,55,-5,-18,-19,10,21,27
-4,55,59,-25,-32,56,-5,-18,-19,10,21,28
-4,56,60,-25,-32,57,-5,-18,-20,11,22,29
-4,57,61,-26,-33,58,-5,-18,-20,11,23,30
-4,58,62,-26,-33,59,-5,-18,-21,12,24,31
-4,59,63,-27,-34,60,-5,-18,-21,12,25,32
-4,60,64,-27,-34,61,-5,-17,-21,13,25,32
-4,61,66,-27,-35,62,-5,-17,-21,13,26,33
-4,62,67,-28,-36,63,-5,-17,-21,14,26,33
-3,63,68,-29,-36,64,-5,-17,-21,15,27,34
-3,64,69,-29,-37,65,-5,-17,-21,15,27,35
-4,65,70,-30,-37,66,-5,-17,-21,16,28,35
-4,66,71,-30,-38,67,-5,-17,-21,17,29,36
-4,67,72,-31,-38,68,-5,-16,-21,17,30,36
-4,68,73,-31,-39,69,-4,-16,-21,18,31,37
-4,69,74,-32,-40,70,-4,-16,-21,18,32,38
-5,70,75,-32,-40,71,-4,-15,-21,19,32,38
-5,70,76,-32,-41,72,-4,-15,-21,20,33,39
-5,71,77,-33,-41,72,-4,-14,-21,20,33,40
-4,72,77,-34,-41,73,-4,-14,-21,21,34,40
-4,73,78,-34,-41,73,-4,-14,-21,21,34,41
-4,73,78,-34,-41,74,-3,-13,-21,22,34,41
-4,73,78,-33,-42,74,-3,-13,-20,22,35,41
-5,73,79,-33,-42,75,-2,-12,-20,23,35,41
-5,74,79,-33,-42,75,-2,-12,-19,23,35,41
-5,74,80,-33,-42,75,-2,-12,-19,23,36,41
-5,74,80,-33,-42,75,-1,-11,-19,24,36,41
-5,74,80,-33,-42,75,-1,-11,-18,24,36,41
-5,74,80,-34,-42,75,0,-11,-18,24,36,41
-5,74,79,-34,-42,75,0,-11,-18,24,36,41
-5,73,79,-33,-42,75,0,-10,-18,24,36,41
-5,72,78,-33,-42,74,1,-10,-17,24,36,41
-5,71,77,-32,-41,73,1,-10,-17,24,36,41
-5,70,76,-32,-41,72,2,-10,-17,24,35,41
-5,69,75,-32,-40,71,2,-10,-17,24,35,41
-5,69,74,-32,-39,70,2,-10,-16,24,34,40
-5,68,73,-31,-39,69,2,-9,-16,24,34,40
-5,67,72,-31,-38,68,2,-9,-15,24,34,39
-4,66,70,-30,-37,66,3,-9,-15,24,33,38
-4,64,69,-30,-36,65,3,-9,-14,23,33,38
-3,63,67,-29,-36,63,4,-9,-14,23,32,37
-3,61,65,-29,-35,61,4,-9,-13,23,32,36
-3,59,63,-28,-34,59,4,-9,-13,22,31,36
-3,57,61,-27,-32,57,4,-9,-12,22,30,35
-2,56,58,-27,-31,55,4,-8,-12,21,29,34
-2,54,56,-26,-29,53,4,-8,-11,20,28,33
-1,52,54,-25,-28,52,4,-8,-10,19,27,32
0,50,51,-24,-26,50,4,-8,-10,19,26,31
0,48,49,-23,-25,47,4,-8,-9,18,25,30
1,46,46,-23,-23,45,4,-7,-8,18,25,29
2,44,44,-22,-22,42,4,-7,-7,17,24,28
2,43,41,-22,-20,40,4,-6,-6,17,23,27
2,41,39,-21,-18,38,4,-6,-5,16,22,26
2,38,36,-20,-17,36,3,-5,-4,15,21,24
3,36,33,-19,-15,33,3,-4,-3,15,20,23
4,34,30,-18,-14,31,3,-3,-2,14,19,22
5,32,27,-18,-12,28,3,-2,0,14,18,21
6,30,24,-18,-10,26,2,-1,0,14,17,20
7,28,21,-17,-8,23,2,0,1,13,15,18
7,26,18,-16,-6,21,2,0,2,13,14,17
8,24,16,-16,-4,19,2,2,4,12,13,15
9,22,13,-15,-3,16,2,3,5,11,12,14
9,20,11,-15,-1,14,2,4,7,11,11,13
10,18,8,-14,0,12,2,6,8,10,10,11
11,16,6,-13,1,9,2,7,10,10,10,10
11,13,3,-12,3,7,2,8,11,9,9,9
11,11,1,-11,4,4,2,9,12,9,8,8
11,9,-1,-10,6,2,3,11,14,9,7,7
11,7,-4,-9,7,0,3,12,15,9,6,6
11,5,-6,-8,8,-2,3,14,15,8,5,5
11,3,-7,-7,9,-4,3,15,16,8,5,4
11,2,-9,-6,10,-5,3,16,17,7,4,4
11,0,-10,-5,11,-7,4,17,17,7,3,3
12,-1,-12,-5,12,-8,4,17,18,6,2,2
12,-2,-14,-4,12,-10,4,18,18,6,1,1
12,-4,-15,-3,13,-11,4,18,19,5,0,0
11,-5,-16,-2,13,-12,4,19,19,5,0,0
11,-6,-16,-2,13,-13,4,19,19,4,-1,-1
11,-7,-17,-1,14,-13,4,20,19,3,-1,-2
11,-7,-17,-1,14,-14,5,20,19,2,-2,-2
11,-8,-18,-1,14,-14,5,20,19,2,-2,-2
11,-8,-19,-1,15,-15,5,20,19,2,-3,-2
11,-9,-19,0,15,-16,5,21,19,1,-3,-3
10,-10,-20,0,15,-17,5,21,19,1,-4,-3
10,-10,-20,0,15,-17,5,21,19,1,-5,-4
10,-11,-21,0,15,-17,6,21,19,1,-5,-4
10,-11,-21,0,15,-17,6,21,18,1,-6,-5
11,-10,-21,0,16,-17,6,21,18,1,-6,-5
11,-10,-21,0,16,-17,6,21,18,1,-6,-6
11,-10,-21,0,16,-17,6,21,18,0,-6,-6
10,-11,-21,1,15,-18,6,20,17,0,-7,-7
9,-12,-21,2,15,-18,6,20,17,0,-7,-7
9,-13,-21,2,14,-18,6,20,16,-1,-7,-7
9,-13,-21,2,14,-18,6,20,16,-1,-8,-7
8,-13,-21,3,14,-18,6,20,16,-1,-8,-8
8,-13,-21,3,14,-18,6,20,15,-2,-8,-8
7,-13,-20,3,14,-18,6,19,15,-2,-9,-9
8,-13,-20,3,14,-18,6,19,15,-3,-9,-9
8,-13,-21,3,15,-18,6,19,15,-3,-9,-9
9,-13,-21,3,15,-18,6,19,14,-3,-9,-9
9,-13,-21,3,14,-18,6,19,14,-3,-9,-9
9,-13,-21,3,14,-18,7,19,14,-3,-9,-9
9,-13,-21,3,14,-18,7,19,13,-4,-9,-9
8,-13,-21,3,14,-18,7,19,13,-4,-9,-9
8,-13,-21,3,14,-18,7,19,13,-5,-9,-9
8,-13,-21,3,14,-18,7,19,13,-5,-9,-9
8,-13,-21,3,14,-18,7,19,13,-4,-9,-9
8,-13,-21,3,13,-18,7,19,13,-4,-9,-9
8,-13,-21,3,13,-18,7,19,12,-4,-9,-9
8,-13,-21,3,13,-18,7,19,12,-4,-9,-9
8,-13,-21,3,13,-18,7,19,12,-4,-9,-9
8,-13,-21,3,13,-18,7,19,12,-4,-9,-9
8,-13,-21,3,13,-18,7,19,12,-4,-9,-9
8,-13,-21,3,13,-18,7,19,12,-4,-10,-9
8,-13,-20,3,13,-18,7,18,12,-4,-10,-9
8,-13,-20,3,13,-17,7,18,12,-4,-10,-9
8,-13,-20,3,13,-17,7,18,12,-4,-10,-9
9,-13,-20,2,14,-17,8,19,12,-4,-10,-10
9,-13,-20,2,14,-17,8,19,12,-4,-10,-10
8,-13,-20,3,14,-18,8,19,12,-4,-10,-10
8,-13,-20,3,14,-18,8,19,12,-5,-10,-10
8,-13,-20,3,14,-18,8,19,12,-5,-10,-10
8,-13,-20,3,14,-18,8,19,12,-5,-10,-10
8,-13,-20,3,14,-18,8,19,12,-5,-10,-10
8,-13,-20,3,14,-18,8,19,12,-5,-10,-10
8,-13,-20,3,14,-18,8,19,12,-6,-10,-11
8,-13,-20,3,14,-18,8,19,12,-6,-10,-11
8,-14,-21,3,14,-18,8,19,12,-6,-10,-11
8,-14,-21,3,14,-18,8,19,12,-6,-10,-11
8,-13,-21,2,14,-18,8,19,12,-6,-10,-11
9,-13,-21,2,14,-18,8,19,12,-6,-10,-11
9,-13,-21,2,15,-18,8,19,12,-6,-10,-11
9,-13,-21,2,15,-18,8,19,12,-6,-10,-11
9,-13,-21,2,14,-18,8,19,12,-6,-10,-11
9,-13,-21,2,14,-18,8,19,12,-6,-10,-11
9,-13,-21,2,14,-18,8,19,12,-6,-11,-11
9,-13,-21,2,14,-18,8,19,12,-6,-11,-11
9,-13,-21,2,14,-18,8,19,12,-6,-12,-11
9,-13,-21,2,14,-18,8,18,12,-6,-12,-11
9,-13,-21,2,14,-18,8,18,12,-6,-12,-11
9,-13,-21,2,14,-18,8,18,12,-6,-12,-11
8,-13,-21,2,14,-18,7,18,12,-7,-12,-11
8,-13,-21,2,14,-18,7,18,12,-7,-12,-11
9,-13,-21,2,15,-18,7,17,12,-7,-12,-11
9,-13,-21,2,15,-18,7,17,12,-7,-12,-11
9,-13,-21,2,15,-18,7,17,12,-7,-12,-11
9,-13,-21,2,15,-18,7,17,12,-7,-12,-11
9,-13,-21,2,15,-18,7,17,12,-6,-12,-11
9,-13,-21,2,15,-18,7,17,12,-6,-12,-11
9,-14,-21,2,15,-18,7,17,12,-6,-12,-11
9,-14,-21,2,15,-18,7,17,12,-6,-12,-11
9,-14,-21,2,15,-19,7,17,12,-6,-12,-11
9,-14,-21,2,15,-19,7,16,11,-6,-12,-11
9,-14,-21,2,15,-19,7,16,11,-6,-12,-11
9,-14,-21,2,15,-19,7,16,11,-6,-12,-11
9,-14,-22,2,15,-19,7,16,11,-6,-12,-11
9,-14,-22,2,15,-19,7,16,11,-6,-12,-11
8,-14,-22,2,15,-19,7,16,11,-6,-11,-11
8,-14,-22,2,15,-19,7,16,11,-6,-11,-11
8,-14,-22,2,15,-19,7,15,11,-6,-11,-11
8,-14,-21,2,15,-19,7,15,11,-6,-11,-10
8,-14,-21,2,15,-19,7,15,11,-6,-10,-10
8,-14,-21,2,15,-19,7,15,10,-6,-10,-10
8,-14,-21,2,15,-19,6,14,10,-6,-10,-10
8,-14,-21,2,15,-19,6,14,9,-6,-10,-10
8,-14,-21,2,15,-19,6,14,9,-5,-10,-10
8,-14,-21,2,15,-18,6,14,9,-5,-10,-10
8,-14,-21,2,15,-18,6,14,9,-5,-10,-10
8,-14,-21,2,14,-18,6,14,9,-5,-10,-10
8,-14,-21,2,14,-18,6,14,9,-5,-10,-10
8,-14,-21,2,14,-18,6,14,9,-5,-10,-10
9,-14,-21,2,14,-18,6,14,9,-5,-10,-10
9,-14,-21,2,14,-18,6,14,9,-4,-10,-10
8,-14,-21,2,14,-18,6,14,9,-4,-10,-10
8,-14,-21,2,14,-18,6,14,9,-4,-10,-10
8,-14,-21,2,14,-18,6,14,9,-4,-10,-10
8,-14,-21,1,14,-18,6,14,10,-3,-10,-10
9,-13,-21,1,14,-18,6,14,10,-3,-10,-10
9,-13,-21,1,15,-18,6,13,10,-3,-10,-10
8,-14,-21,2,14,-18,6,13,10,-3,-10,-11
8,-14,-21,2,14,-18,6,13,10,-3,-10,-11
9,-14,-21,1,14,-18,6,13,10,-3,-10,-11
9,-13,-20,1,14,-18,6,13,10,-3,-10,-11
9,-13,-20,1,14,-18,6,13,10,-3,-10,-11
9,-13,-20,1,14,-18,6,13,10,-3,-10,-11
8,-13,-20,1,14,-17,6,12,10,-3,-10,-11
8,-13,-20,1,14,-17,6,12,10,-3,-10,-11
8,-13,-20,1,14,-17,6,12,10,-3,-10,-11
8,-13,-20,1,14,-17,6,12,10,-3,-10,-11
8,-13,-20,1,14,-17,6,12,10,-3,-10,-11
8,-13,-20,1,14,-17,6,12,10,-3,-10,-11
8,-13,-20,1,14,-17,6,12,10,-3,-10,-11
8,-13,-20,1,14,-17,6,12,10,-3,-10,-11
8,-13,-20,1,14,-17,6,12,10,-3,-10,-11
8,-13,-20,1,14,-17,6,12,10,-3,-10,-11
8,-14,-20,1,14,-17,6,12,10,-3,-10,-11
8,-14,-20,2,14,-17,7,12,10,-3,-10,-11
8,-14,-20,2,14,-17,7,12,10,-3,-10,-11
8,-14,-20,2,14,-17,7,12,10,-3,-10,-11
8,-14,-20,2,14,-17,7,12,10,-3,-10,-11
8,-13,-20,2,14,-17,7,12,10,-3,-10,-11
8,-13,-20,1,14,-17,7,12,10,-3,-10,-11
8,-13,-20,1,14,-17,7,12,10,-3,-10,-11
8,-13,-20,1,14,-17,7,12,10,-3,-10,-11
8,-14,-20,1,14,-17,7,12,10,-3,-10,-10
8,-14,-20,1,14,-17,7,12,10,-3,-10,-10
8,-14,-20,1,14,-17,7,12,10,-3,-10,-10
8,-14,-20,1,14,-17,7,12,10,-3,-10,-11
8,-14,-20,1,14,-17,7,12,10,-3,-10,-11
8,-14,-20,1,14,-17,7,12,10,-3,-10,-10
8,-14,-20,1,14,-17,7,12,10,-3,-10,-10
7,-14,-20,1,14,-17,7,12,10,-3,-10,-10
7,-14,-20,1,13,-17,7,12,10,-3,-10,-10
7,-14,-19,1,13,-17,7,12,9,-3,-10,-10
7,-14,-19,2,13,-17,7,12,9,-3,-10,-10
7,-14,-19,2,13,-17,7,12,9,-3,-10,-11
7,-14,-19,2,13,-17,7,12,9,-3,-10,-11
7,-13,-19,2,13,-16,7,12,10,-3,-10,-11
7,-13,-19,1,13,-16,7,12,10,-3,-10,-11
7,-13,-19,1,13,-16,7,12,10,-3,-10,-11
7,-13,-19,1,13,-16,7,12,10,-3,-10,-11
7,-14,-19,1,13,-17,7,12,10,-3,-10,-11
7,-14,-19,2,13,-17,7,12,10,-3,-10,-11
7,-13,-20,2,13,-17,7,12,10,-3,-9,-11
7,-13,-20,1,13,-17,7,12,10,-3,-9,-11
7,-13,-19,1,13,-16,7,12,10,-3,-9,-11
7,-13,-19,1,13,-16,7,12,10,-3,-9,-11
7,-13,-19,1,13,-16,7,12,10,-3,-9,-11
7,-13,-19,1,13,-16,7,12,10,-3,-9,-11
7,-13,-19,1,13,-16,7,12,10,-3,-10,-11
7,-13,-19,1,13,-16,7,12,10,-3,-10,-11
7,-13,-19,1,13,-16,7,12,10,-3,-10,-11
7,-13,-19,1,13,-16,7,12,10,-3,-10,-12
7,-13,-19,1,13,-16,7,12,10,-3,-10,-12
7,-13,-20,1,13,-16,7,12,10,-3,-10,-12
8,-13,-20,1,14,-16,7,12,9,-3,-10,-12
7,-14,-20,1,13,-16,7,12,9,-3,-10,-12
7,-14,-20,1,13,-17,7,12,9,-3,-10,-12
7,-14,-20,1,13,-17,7,12,9,-3,-10,-12
7,-14,-20,1,13,-17,7,12,9,-3,-10,-12
7,-14,-20,1,13,-17,7,12,9,-3,-10,-12
7,-14,-20,1,13,-17,6,12,9,-3,-10,-12
7,-14,-20,1,13,-17,6,11,9,-3,-10,-12
7,-14,-20,1,13,-17,6,11,9,-3,-10,-12
7,-14,-20,1,13,-17,6,11,9,-3,-10,-12
7,-14,-20,2,13,-17,6,11,9,-3,-10,-12
6,-15,-20,2,13,-17,6,11,9,-3,-10,-12
6,-15,-20,2,13,-17,6,11,9,-3,-10,-12
6,-15,-20,2,13,-18,6,11,9,-3,-10,-12
6,-16,-20,3,13,-18,6,11,9,-3,-10,-12
5,-16,-20,3,13,-18,6,11,9,-3,-10,-12
5,-16,-21,3,13,-18,6,11,9,-3,-10,-12
5,-16,-21,3,13,-18,6,11,9,-3,-10,-12
5,-16,-21,3,13,-18,6,11,9,-3,-10,-12
5,-16,-21,3,13,-18,6,11,9,-3,-10,-12
5,-16,-21,3,13,-18,6,11,9,-3,-10,-12
5,-16,-21,3,13,-18,6,11,9,-4,-10,-12
5,-16,-21,3,13,-18,6,11,9,-4,-10,-12
4,-16,-20,3,12,-18,6,11,9,-5,-10,-12
4,-17,-20,3,12,-18,6,11,9,-5,-10,-12
4,-17,-20,3,12,-18,6,12,9,-5,-10,-12
5,-17,-20,3,12,-18,6,12,9,-5,-10,-12
5,-17,-20,4,12,-18,6,12,9,-5,-10,-12
5,-17,-21,4,12,-18,6,12,9,-5,-10,-12
5,-17,-21,4,13,-18,6,12,10,-5,-10,-12
5,-17,-21,4,13,-18,6,12,10,-5,-10,-12
4,-17,-21,5,13,-18,6,12,10,-4,-10,-12
4,-18,-21,5,13,-19,7,12,10,-4,-10,-12
4,-18,-21,5,13,-19,7,12,10,-4,-10,-12
4,-18,-21,5,13,-19,7,12,10,-4,-10,-12
4,-18,-21,5,13,-19,7,12,10,-4,-10,-12
4,-18,-21,5,13,-19,7,12,10,-4,-10,-12
4,-18,-21,5,13,-19,7,12,10,-4,-10,-12
4,-18,-21,5,13,-19,7,12,10,-3,-11,-12
4,-18,-21,5,13,-20,7,12,10,-3,-11,-12
4,-18,-21,5,13,-20,7,13,10,-3,-11,-12
4,-18,-21,5,13,-20,7,13,10,-3,-11,-12
4,-18,-21,5,13,-20,7,13,10,-3,-11,-12
4,-18,-21,5,13,-20,7,13,10,-3,-11,-12
4,-18,-21,5,13,-20,7,13,10,-3,-11,-12
4,-18,-21,5,13,-20,7,13,10,-3,-11,-12
4,-18,-21,5,13,-20,7,13,10,-3,-11,-12
4,-18,-21,5,13,-20,7,13,10,-3,-11,-12
4,-18,-21,5,13,-20,7,13,10,-3,-10,-12
4,-18,-21,5,13,-20,7,13,10,-3,-10,-12
4,-18,-21,6,13,-20,7,13,10,-3,-10,-12
4,-18,-21,6,13,-20,7,13,10,-3,-10,-12
4,-18,-21,6,13,-20,7,13,10,-4,-10,-12
4,-18,-21,6,13,-20,7,13,10,-4,-10,-12
4,-18,-21,6,13,-20,7,13,10,-3,-10,-12
4,-18,-21,6,13,-20,7,13,10,-3,-10,-12
4,-18,-21,5,13,-20,7,13,10,-3,-10,-12
4,-18,-21,5,13,-20,7,13,10,-3,-10,-12
4,-18,-21,5,13,-20,7,13,10,-3,-10,-12
4,-18,-22,5,13,-20,7,13,9,-4,-11,-12
4,-18,-22,6,13,-20,6,13,9,-4,-11,-12
4,-18,-22,6,13,-20,6,13,9,-4,-11,-12
4,-18,-22,6,13,-20,6,13,9,-4,-11,-12
4,-18,-22,6,13,-20,6,13,9,-4,-11,-12
4,-18,-22,6,13,-20,6,13,9,-5,-11,-13
4,-18,-22,6,13,-20,6,13,9,-5,-11,-13
4,-18,-22,6,13,-20,6,13,9,-5,-11,-13
4,-18,-21,6,13,-20,6,13,9,-5,-11,-13
4,-18,-21,6,12,-20,6,12,9,-5,-11,-13
4,-18,-21,6,12,-20,6,12,9,-5,-12,-13
4,-18,-21,6,12,-20,6,12,9,-5,-12,-13
4,-19,-21,6,12,-20,6,12,9,-5,-12,-13
4,-18,-21,6,12,-20,6,12,9,-5,-11,-13
4,-18,-21,6,12,-20,6,12,9,-5,-11,-13
4,-17,-21,5,12,-20,6,12,9,-5,-11,-13
4,-17,-21,5,12,-20,6,12,9,-5,-11,-13
4,-17,-20,5,12,-20,6,12,9,-5,-11,-13
4,-17,-20,5,12,-20,6,12,9,-5,-11,-13
4,-17,-20,5,12,-19,6,12,9,-5,-11,-13
4,-17,-20,5,12,-19,6,13,9,-5,-11,-13
4,-17,-20,5,12,-19,6,13,9,-4,-11,-13
4,-17,-20,5,12,-19,6,13,10,-4,-11,-13
4,-17,-20,5,12,-19,6,13,10,-4,-11,-13
4,-17,-20,5,12,-19,6,13,10,-4,-11,-13
3,-17,-20,5,12,-19,6,13,10,-4,-11,-13
3,-17,-20,5,12,-19,5,13,10,-4,-11,-13
3,-17,-20,5,12,-19,5,13,10,-4,-11,-13
3,-17,-20,5,12,-19,5,13,10,-4,-11,-13
3,-17,-20,5,12,-19,5,13,9,-4,-11,-13
4,-17,-20,5,12,-19,6,13,9,-5,-11,-13
4,-17,-20,5,12,-19,6,13,9,-5,-11,-13
4,-16,-20,5,12,-19,6,13,9,-5,-11,-13
4,-16,-20,5,12,-19,6,13,9,-5,-11,-13
4,-16,-20,5,12,-19,6,12,9,-5,-11,-14
4,-17,-20,6,12,-19,6,12,9,-5,-11,-14
4,-17,-20,6,12,-19,6,12,9,-5,-11,-15
4,-17,-20,6,12,-19,6,12,9,-5,-11,-15
4,-17,-20,5,12,-19,6,12,9,-5,-11,-15
4,-17,-20,5,11,-19,6,12,9,-5,-11,-15
4,-17,-20,5,11,-19,6,12,9,-5,-11,-15
4,-17,-20,5,11,-19,6,12,9,-5,-11,-15
4,-16,-20,5,11,-18,6,12,9,-5,-11,-15
4,-16,-20,5,11,-18,6,13,9,-5,-11,-15
4,-16,-20,5,12,-18,6,13,9,-5,-11,-15
4,-16,-20,5,12,-18,6,13,9,-5,-11,-15
4,-16,-20,4,12,-18,6,13,9,-5,-11,-15
4,-16,-20,4,12,-18,6,13,9,-5,-11,-15
4,-16,-20,5,11,-18,6,13,9,-5,-11,-15
4,-16,-20,5,11,-18,6,13,10,-5,-12,-15
4,-16,-20,5,11,-18,6,13,10,-5,-12,-15
4,-16,-20,5,12,-18,6,13,10,-5,-12,-15
4,-16,-20,5,12,-18,6,13,10,-5,-12,-15
4,-17,-20,5,12,-19,6,13,10,-5,-12,-15
4,-18,-20,6,11,-19,6,13,10,-5,-12,-15
3,-18,-20,6,11,-19,6,13,10,-5,-12,-15
3,-18,-21,6,12,-19,6,13,10,-5,-12,-15
4,-18,-21,6,12,-19,6,12,10,-5,-12,-15
4,-18,-21,6,12,-19,6,12,10,-5,-12,-15
3,-18,-21,6,11,-19,6,12,10,-5,-12,-15
3,-18,-21,6,11,-19,5,12,9,-5,-12,-15
3,-18,-21,6,12,-20,5,12,9,-5,-12,-15
3,-18,-21,6,12,-20,5,12,9,-5,-12,-15
4,-18,-21,6,12,-20,5,12,9,-5,-13,-15
4,-18,-21,6,12,-20,5,12,9,-5,-13,-15
4,-18,-21,6,12,-20,5,12,9,-5,-13,-15
4,-18,-21,6,12,-20,5,12,9,-5,-13,-15
4,-18,-21,6,12,-20,5,13,9,-6,-13,-15
4,-18,-21,6,12,-20,5,13,9,-6,-13,-15
4,-18,-21,6,12,-20,5,13,9,-6,-12,-15
4,-18,-21,6,12,-20,5,13,9,-6,-12,-15
4,-17,-21,6,12,-19,5,13,9,-5,-12,-16
4,-17,-21,6,12,-19,5,13,9,-5,-12,-16
3,-17,-20,6,12,-19,5,13,9,-5,-12,-16
3,-17,-20,6,12,-19,5,13,9,-5,-12,-16
3,-17,-20,6,12,-19,5,13,9,-5,-12,-16
3,-17,-20,6,12,-19,5,13,9,-5,-12,-16
3,-17,-20,6,12,-19,5,13,9,-5,-12,-16
4,-17,-20,5,12,-19,5,13,9,-5,-12,-16
4,-17,-20,5,12,-19,5,13,9,-5,-12,-16
4,-17,-20,6,12,-19,5,13,9,-5,-12,-17
4,-17,-20,6,12,-19,5,13,9,-5,-12,-17
4,-17,-21,6,13,-19,5,13,9,-5,-12,-17
4,-17,-21,6,13,-19,6,13,9,-5,-12,-17
4,-17,-21,6,13,-19,6,13,9,-5,-12,-17
4,-17,-21,6,13,-19,6,13,9,-5,-12,-17
4,-18,-21,6,13,-20,6,13,9,-5,-12,-17
4,-18,-22,6,13,-20,6,13,9,-5,-12,-17
4,-18,-21,6,13,-20,6,14,9,-5,-12,-17
4,-18,-21,6,13,-20,6,14,9,-5,-12,-17
4,-18,-21,6,13,-20,6,14,9,-5,-12,-17
4,-17,-20,6,13,-19,6,14,9,-5,-12,-17
4,-17,-20,6,13,-19,6,14,9,-5,-12,-17
4,-16,-20,6,13,-18,6,14,9,-5,-12,-17
4,-16,-20,6,12,-18,6,14,9,-5,-13,-17
4,-16,-19,6,12,-18,6,14,9,-5,-13,-17
3,-16,-19,6,12,-18,6,14,9,-5,-13,-17
2,-17,-19,8,11,-19,5,13,8,-6,-13,-18
0,-19,-19,9,10,-19,5,13,8,-6,-14,-18
-1,-19,-19,10,9,-19,5,13,8,-6,-14,-18
-1,-19,-18,10,9,-19,5,13,8,-6,-13,-18
-2,-19,-18,10,8,-19,5,13,8,-6,-13,-18
-2,-19,-17,10,8,-19,5,12,8,-6,-13,-18
-2,-19,-17,10,8,-19,5,12,8,-6,-13,-18
-2,-19,-17,10,8,-19,5,12,9,-6,-13,-18
-2,-19,-17,10,8,-19,5,12,9,-6,-13,-17
-2,-19,-17,9,8,-19,5,12,9,-5,-13,-17
-1,-18,-18,9,9,-19,5,12,9,-5,-13,-17
0,-19,-18,9,9,-19,4,12,9,-5,-13,-17
0,-19,-19,9,9,-20,4,12,9,-5,-13,-17
0,-19,-19,9,10,-20,4,13,9,-5,-13,-17
0,-19,-20,8,10,-20,3,13,9,-5,-13,-16
1,-18,-20,8,11,-19,3,14,10,-4,-12,-16
1,-17,-20,7,11,-19,2,14,11,-4,-12,-15
2,-17,-20,7,12,-19,1,14,11,-4,-11,-15
3,-18,-21,7,12,-20,0,14,12,-4,-11,-15
3,-18,-21,7,12,-20,0,14,12,-3,-11,-15
3,-18,-21,7,12,-20,0,15,13,-3,-10,-15
3,-18,-22,7,12,-20,1,15,13,-3,-10,-15
3,-19,-22,7,12,-21,1,15,12,-3,-10,-15
2,-20,-22,9,12,-21,2,15,12,-4,-11,-15
1,-21,-22,9,12,-21,2,15,12,-4,-11,-15
1,-20,-22,9,12,-21,3,15,12,-4,-11,-15
2,-20,-22,8,12,-21,3,15,12,-4,-12,-15
2,-20,-22,8,12,-21,3,15,12,-4,-12,-15
2,-20,-23,9,13,-22,2,15,11,-5,-13,-16
2,-21,-23,9,13,-23,2,14,10,-6,-13,-16
2,-22,-24,10,13,-23,2,13,9,-6,-14,-17
2,-22,-24,10,13,-24,2,13,9,-7,-14,-17
2,-23,-25,10,14,-24,2,13,8,-7,-14,-17
1,-23,-25,10,14,-24,2,13,8,-7,-14,-17
1,-23,-24,10,13,-24,2,13,8,-7,-14,-17
1,-22,-24,10,13,-23,2,13,8,-7,-14,-17
0,-22,-23,10,12,-22,2,13,8,-6,-14,-17
0,-21,-22,11,11,-22,3,13,8,-6,-14,-17
-1,-22,-21,11,10,-21,3,13,8,-6,-14,-18
-2,-22,-21,12,9,-22,3,13,8,-6,-14,-18
-2,-23,-21,12,9,-22,3,13,7,-6,-15,-18
-2,-23,-21,12,9,-23,3,12,7,-7,-15,-18
-2,-24,-22,12,10,-23,3,12,7,-7,-16,-18
-2,-24,-22,12,10,-23,4,12,7,-7,-16,-19
-2,-24,-22,12,10,-23,4,12,6,-7,-16,-19
-2,-24,-22,12,10,-23,4,12,6,-7,-16,-19
-2,-24,-22,12,10,-23,3,12,6,-7,-16,-19
-2,-24,-22,13,10,-23,3,12,6,-8,-16,-19
-3,-24,-22,13,10,-23,3,12,6,-8,-16,-19
-3,-24,-21,13,9,-23,3,12,6,-8,-16,-19
-3,-23,-21,13,9,-23,3,12,6,-8,-16,-19
-3,-23,-21,13,9,-23,3,12,6,-8,-16,-19
-3,-23,-21,13,10,-23,3,11,6,-8,-16,-19
-3,-23,-22,13,10,-23,3,11,5,-8,-16,-19
-3,-24,-22,13,10,-23,3,11,5,-8,-16,-19
-3,-24,-22,13,10,-24,3,11,5,-8,-16,-19
-2,-24,-23,13,10,-24,3,11,5,-8,-16,-19
-2,-24,-23,13,10,-24,3,11,5,-8,-15,-19
-1,-24,-23,13,11,-24,3,11,5,-8,-15,-19
-1,-24,-23,13,11,-24,3,11,5,-8,-15,-19
-2,-24,-23,13,11,-24,3,11,5,-8,-15,-19
-2,-24,-23,13,11,-24,3,11,6,-8,-15,-19
-2,-24,-23,13,11,-24,4,11,6,-8,-15,-19
-2,-24,-23,13,11,-24,4,11,6,-8,-15,-20
-1,-24,-24,13,11,-24,4,12,6,-8,-15,-20
-1,-25,-24,13,11,-24,6,14,7,-7,-15,-20
-2,-25,-24,13,10,-25,8,17,9,-7,-15,-20
-2,-26,-24,14,10,-25,10,21,11,-7,-16,-21
-3,-26,-23,14,10,-25,14,27,15,-6,-17,-22
-3,-25,-22,14,9,-24,18,34,20,-5,-17,-23
-3,-23,-21,13,9,-23,21,42,26,-2,-16,-22
-1,-21,-20,11,10,-21,23,50,34,3,-13,-20
1,-17,-19,8,10,-19,23,58,44,10,-8,-17
5,-13,-19,4,11,-17,23,68,56,19,-1,-13
9,-8,-19,0,13,-14,23,79,70,30,7,-8
16,-2,-19,-6,16,-11,21,89,86,43,17,-1
23,6,-18,-14,20,-6,18,96,104,60,30,9
31,17,-15,-23,23,0,14,100,123,81,47,21
38,29,-10,-33,24,8,9,100,141,103,65,34
44,42,-2,-43,23,19,3,96,158,126,83,48
50,56,6,-53,22,30,-4,88,171,148,102,63
54,71,16,-62,20,42,-13,74,176,164,120,79
56,85,29,-70,13,56,-23,50,169,171,134,93
52,96,44,-74,3,70,-31,17,149,167,139,102
43,102,59,-72,-9,80,-37,-21,117,150,135,106
32,102,71,-67,-20,86,-41,-58,76,124,122,102
18,98,79,-58,-31,88,-45,-95,25,89,102,93
3,92,89,-47,-43,90,-50,-132,-33,50,77,80
-11,88,99,-38,-55,92,-56,-164,-87,14,54,67
-23,83,105,-30,-64,93,-62,-186,-127,-13,35,55
-31,78,107,-23,-69,92,-67,-198,-152,-33,20,45
-35,71,106,-18,-71,88,-72,-204,-167,-46,8,36
-37,65,101,-13,-70,82,-78,-206,-173,-55,0,29
-37,58,95,-10,-67,75,-84,-205,-175,-60,-7,22
-37,50,87,-6,-62,68,-90,-200,-173,-64,-12,17
-36,43,78,-3,-57,60,-94,-192,-167,-66,-17,12
-34,36,70,-1,-52,52,-96,-183,-160,-67,-21,7
-33,31,63,0,-48,47,-95,-173,-153,-67,-24,2
-32,28,58,1,-45,43,-92,-161,-143,-65,-25,0
-30,25,55,2,-43,40,-87,-149,-132,-62,-25,-2
-29,23,52,3,-41,37,-81,-136,-122,-59,-25,-4
-27,21,48,3,-39,34,-73,-124,-112,-54,-24,-5
-25,19,45,3,-36,31,-65,-111,-102,-50,-23,-5
-24,18,42,3,-33,29,-56,-99,-93,-46,-22,-6
-23,17,39,4,-31,27,-49,-88,-85,-42,-21,-6
-22,15,37,4,-30,26,-42,-79,-77,-39,-20,-7
-22,14,35,4,-29,24,-36,-71,-70,-36,-19,-8
-22,12,34,4,-28,23,-32,-65,-64,-34,-18,-8
-22,11,32,4,-27,22,-29,-60,-59,-32,-17,-8
-20,11,31,4,-26,20,-26,-55,-55,-29,-17,-8
-19,10,29,4,-24,19,-24,-51,-50,-27,-16,-8
-18,9,27,4,-23,17,-21,-47,-47,-25,-14,-8
-18,9,25,4,-21,16,-19,-43,-44,-23,-13,-8
-17,8,23,4,-20,15,-17,-40,-41,-21,-12,-7
-16,8,22,4,-19,15,-16,-37,-38,-20,-11,-7
-15,8,21,3,-18,14,-15,-34,-36,-19,-11,-6
-14,8,21,3,-18,14,-15,-33,-34,-18,-10,-6
-13,8,21,2,-17,14,-14,-31,-32,-17,-10,-5
-13,8,21,2,-17,14,-13,-30,-30,-16,-10,-5
-12,8,20,2,-16,14,-12,-29,-29,-15,-9,-5
-12,8,20,2,-16,14,-11,-27,-28,-14,-9,-5
-12,8,20,2,-15,14,-10,-26,-27,-13,-8,-5
-12,8,20,2,-15,14,-10,-24,-26,-12,-8,-5
-12,8,20,2,-15,14,-9,-23,-25,-12,-7,-4
-12,9,20,1,-15,14,-9,-23,-23,-11,-7,-4
-11,9,20,1,-15,14,-8,-22,-22,-11,-6,-3
-11,9,20,1,-15,14,-8,-22,-21,-10,-6,-2
-11,9,20,1,-15,14,-7,-22,-21,-9,-5,-2
-11,10,21,0,-15,15,-7,-21,-21,-9,-5,-2
-11,10,21,0,-16,15,-7,-21,-21,-9,-4,-2
-11,10,21,0,-16,16,-7,-20,-21,-9,-4,-2
-11,10,21,0,-16,16,-7,-20,-21,-9,-4,-2
-11,10,21,0,-16,16,-7,-19,-20,-9,-4,-2
-11,11,21,0,-16,16,-7,-19,-20,-9,-3,-2
-11,11,21,0,-16,16,-7,-19,-19,-8,-3,-2
-11,11,22,0,-16,16,-7,-19,-19,-8,-3,-1
-11,11,22,0,-16,16,-7,-19,-19,-7,-2,-1
-11,11,23,0,-16,16,-6,-19,-19,-7,-2,-1
-11,11,23,0,-16,16,-6,-18,-19,-7,-2,-1
-11,11,23,0,-16,17,-6,-18,-18,-6,-2,0
-11,12,23,-1,-16,17,-6,-18,-18,-6,-2,0
-11,12,23,-1,-17,17,-6,-18,-18,-6,-2,0
-11,13,23,-1,-17,17,-6,-18,-17,-6,-2,1
-11,13,23,-1,-17,17,-6,-18,-17,-6,-1,1
-10,13,23,-1,-17,18,-6,-17,-17,-6,-1,2
-11,13,24,-1,-17,18,-6,-17,-17,-6,-1,2
-11,13,24,-1,-18,19,-6,-17,-17,-5,0,2
-11,13,24,-1,-18,19,-6,-17,-17,-5,0,2
-11,14,25,-2,-18,19,-6,-17,-16,-5,0,2
-10,14,25,-2,-18,19,-6,-17,-16,-5,0,2
-10,15,25,-2,-19,20,-6,-17,-17,-5,0,2
-10,15,26,-2,-19,20,-6,-17,-17,-5,1,2
-10,15,26,-2,-19,21,-6,-17,-17,-4,1,3
-10,15,26,-2,-19,21,-6,-17,-17,-4,1,3
-10,16,26,-2,-19,21,-6,-17,-17,-4,1,4
-10,16,26,-2,-19,21,-6,-17,-17,-4,2,4
-10,16,26,-3,-19,22,-6,-17,-17,-3,2,5
-10,16,27,-3,-19,22,-6,-17,-17,-3,2,5
-11,17,27,-3,-20,22,-6,-17,-17,-3,3,6
-11,17,28,-3,-20,23,-6,-17,-17,-2,3,6
-10,18,29,-4,-20,23,-6,-17,-16,-2,4,7
-10,18,29,-4,-20,24,-6,-17,-16,-2,4,7
-10,19,30,-4,-20,24,-6,-17,-17,-2,5,8
-10,19,30,-4,-20,24,-6,-17,-17,-2,5,9
-10,20,30,-4,-20,24,-6,-17,-17,-1,5,9
-10,20,30,-4,-20,25,-6,-17,-17,-1,5,9
-10,20,31,-4,-21,25,-6,-17,-17,-1,6,9
-10,20,31,-4,-21,26,-6,-18,-18,-1,6,9
-10,20,32,-4,-22,26,-6,-18,-18,-1,6,10
-10,21,33,-4,-22,27,-6,-18,-18,-1,7,10
-10,21,33,-4,-22,28,-6,-18,-18,-1,7,10
-10,22,34,-5,-22,28,-6,-18,-18,-1,7,11
-11,23,34,-5,-23,29,-6,-18,-18,-1,8,11
-11,23,35,-6,-24,29,-6,-19,-18,0,8,12
-11,24,36,-6,-24,30,-6,-19,-18,0,9,13
-11,25,36,-7,-24,30,-6,-19,-19,0,10,14
-11,25,37,-7,-24,31,-6,-19,-19,0,10,14
-11,26,37,-7,-24,31,-7,-19,-19,1,10,15
-10,27,38,-7,-24,32,-7,-19,-19,1,11,15
-11,27,39,-8,-25,33,-7,-19,-19,1,11,16
-11,28,40,-8,-26,34,-7,-19,-19,1,11,16
-11,29,41,-8,-27,34,-7,-19,-19,1,12,17
-11,29,42,-8,-27,35,-7,-19,-19,2,12,17
-11,30,43,-9,-28,36,-7,-19,-20,2,13,18
-11,31,44,-9,-28,37,-7,-20,-20,2,13,18
-11,32,45,-10,-28,38,-8,-20,-20,2,14,19
-11,33,46,-10,-29,39,-8,-20,-20,2,14,19
-11,35,46,-11,-29,40,-8,-20,-20,2,15,20
-11,36,47,-11,-30,41,-9,-20,-21,3,15,20
-12,36,48,-12,-31,42,-9,-20,-21,3,16,20
-12,37,49,-12,-31,43,-9,-20,-21,4,17,21
-12,37,50,-13,-32,44,-9,-20,-21,5,17,22
-12,38,51,-13,-32,45,-9,-20,-22,5,18,23
-12,40,52,-14,-33,46,-9,-20,-22,5,19,24
-12,41,54,-14,-33,48,-9,-20,-22,5,20,25
-12,43,55,-15,-34,49,-9,-21,-22,6,20,26
-12,44,57,-15,-34,50,-9,-21,-22,6,21,27
-12,45,58,-16,-35,51,-9,-21,-22,7,22,27
-12,45,59,-16,-35,52,-9,-21,-22,7,22,28
-12,46,60,-17,-36,53,-9,-21,-23,8,23,29
-12,47,61,-17,-36,54,-10,-21,-23,9,24,30
-12,49,62,-18,-37,55,-10,-20,-23,10,25,31
-12,50,63,-18,-37,56,-10,-20,-23,10,26,32
-12,52,64,-19,-38,58,-10,-20,-23,11,27,32
-12,53,66,-19,-39,59,-10,-19,-24,11,27,33
-12,54,67,-20,-40,60,-10,-19,-24,12,28,33
-13,54,68,-20,-41,61,-10,-19,-24,12,28,34
-13,55,69,-20,-42,61,-9,-19,-24,13,29,34
-13,56,70,-21,-42,62,-9,-19,-24,13,29,35
-13,57,71,-21,-42,63,-9,-18,-24,14,30,36
-13,58,72,-22,-43,64,-9,-18,-24,14,31,37
-13,59,73,-22,-43,65,-9,-18,-24,15,31,37
-13,60,74,-23,-43,66,-9,-17,-24,15,32,38
-13,60,74,-23,-44,67,-8,-17,-24,15,32,38
-13,61,75,-23,-44,68,-8,-16,-24,16,33,39
-14,61,75,-24,-45,68,-7,-16,-23,17,33,39
-14,62,76,-24,-45,69,-7,-16,-23,17,34,40
-14,63,77,-25,-46,70,-7,-16,-23,18,35,40
-13,63,77,-25,-46,70,-7,-16,-23,18,35,41
-13,64,77,-25,-46,71,-7,-16,-23,18,36,41
-13,64,77,-25,-46,71,-6,-15,-22,18,36,41
-13,64,77,-25,-46,71,-6,-15,-22,19,36,41
-13,64,77,-25,-46,71,-5,-14,-21,19,37,41
-13,63,77,-25,-46,70,-5,-14,-21,20,37,41
-14,63,77,-24,-46,69,-4,-13,-21,20,36,41
-13,62,76,-24,-45,69,-4,-13,-21,20,36,41
-13,62,76,-24,-45,68,-3,-13,-20,20,36,41
-13,61,75,-24,-44,68,-3,-13,-20,20,36,41
-13,61,75,-23,-44,67,-2,-12,-19,20,36,41
-13,60,74,-23,-43,67,-2,-12,-19,20,36,41
-12,60,73,-23,-43,66,-1,-12,-19,20,36,40
-12,59,72,-23,-42,65,-1,-12,-19,20,36,40
-12,58,70,-22,-42,63,-1,-12,-18,20,35,39
-12,57,69,-22,-41,62,0,-12,-18,19,35,39
-12,55,67,-21,-40,60,0,-12,-18,19,34,38
-12,53,66,-21,-39,59,0,-12,-17,19,33,37
-11,52,64,-20,-38,58,0,-12,-17,18,33,36
-11,51,62,-20,-36,56,0,-12,-16,18,32,35
-11,50,60,-19,-35,55,0,-12,-16,17,32,35
-11,48,58,-19,-34,53,0,-12,-15,17,31,34
-10,46,56,-18,-33,51,0,-11,-14,17,31,33
-9,44,53,-18,-31,48,0,-11,-13,17,30,33
-9,42,51,-17,-30,46,0,-11,-13,16,29,32
-8,40,48,-16,-28,44,0,-11,-12,16,28,31
-8,39,46,-16,-27,42,0,-11,-11,16,27,30
-7,37,44,-15,-25,40,0,-11,-10,15,27,29
-6,35,41,-14,-24,38,0,-10,-9,15,26,28
-5,33,38,-14,-22,35,0,-10,-8,14,26,27
-4,31,35,-14,-20,33,0,-9,-7,14,25,26
-3,29,32,-13,-18,30,0,-8,-6,13,24,25
-2,27,29,-13,-17,28,-1,-7,-4,13,23,24
-1,25,27,-12,-15,25,-1,-6,-3,13,22,23
-1,23,24,-11,-13,23,-2,-5,-2,12,21,22
0,21,22,-10,-11,21,-2,-4,-1,12,20,21
0,19,20,-9,-10,19,-2,-3,0,11,19,20
0,17,18,-9,-9,17,-2,-2,1,10,18,19
1,16,15,-8,-7,15,-2,-1,3,9,17,17
1,14,12,-8,-5,12,-2,0,5,9,16,17
2,12,9,-7,-3,10,-2,2,6,8,15,16
3,10,7,-7,-2,8,-2,3,7,8,14,15
3,8,5,-6,-1,6,-1,4,8,7,13,14
3,6,3,-5,0,4,-1,5,9,7,12,13
3,5,1,-4,1,3,-1,6,10,7,12,12
3,3,0,-3,2,1,-1,7,11,6,11,10
3,1,-2,-2,3,0,-1,8,12,6,10,9
4,0,-4,-2,4,-2,-1,9,13,5,9,8
4,-1,-6,-2,5,-4,-1,10,14,5,8,7
4,-2,-8,-1,6,-5,0,11,15,5,7,6
4,-4,-9,0,6,-7,0,12,15,5,6,5
4,-5,-10,0,7,-8,0,13,16,5,5,5
4,-7,-11,1,7,-9,0,13,16,5,5,4
4,-8,-12,2,8,-10,0,14,17,4,4,3
4,-9,-13,3,8,-11,0,14,17,4,4,2
4,-10,-14,3,8,-12,0,15,17,4,3,2
4,-11,-15,3,9,-13,0,15,17,4,3,1
3,-12,-16,4,9,-14,0,16,18,3,2,1
3,-13,-16,4,10,-14,0,16,18,3,1,1
3,-13,-17,4,10,-15,0,16,18,2,1,0
3,-14,-17,5,10,-15,1,17,18,2,0,0
3,-14,-17,5,10,-16,1,17,18,2,0,0
3,-15,-17,6,10,-16,2,17,17,2,0,0
3,-15,-18,6,11,-17,2,17,17,2,0,-1
3,-16,-19,6,11,-18,2,17,17,1,0,-1
3,-16,-19,6,11,-18,3,17,17,1,0,-1
2,-16,-19,6,11,-18,3,17,17,1,0,-1
2,-16,-19,7,11,-18,3,17,16,1,0,-2
2,-16,-19,7,11,-18,3,17,15,1,0,-2
2,-17,-19,7,10,-19,3,17,15,0,-1,-3
2,-17,-19,7,10,-19,3,16,14,0,-1,-3
2,-17,-19,7,10,-18,3,16,14,0,-1,-3
2,-17,-19,7,10,-18,3,16,14,0,-1,-3
2,-17,-19,7,10,-18,3,16,14,0,-2,-3
2,-17,-19,7,10,-18,3,16,14,0,-2,-3
2,-17,-19,7,10,-18,3,16,14,0,-2,-3
2,-17,-19,7,10,-18,3,16,13,0,-2,-3
2,-17,-19,7,10,-18,3,16,13,-1,-2,-3
2,-17,-19,7,10,-18,3,15,12,-1,-3,-3
1,-17,-19,7,10,-18,3,15,12,-2,-3,-3
1,-17,-19,7,10,-18,3,14,11,-2,-3,-3
1,-16,-19,7,10,-18,3,14,11,-2,-3,-3
1,-16,-18,7,10,-17,3,14,11,-2,-3,-3
1,-16,-18,7,9,-17,3,14,11,-2,-3,-3
1,-16,-18,7,9,-17,3,14,11,-2,-3,-3
1,-16,-18,7,9,-17,3,14,11,-2,-3,-2
1,-16,-18,7,9,-17,3,14,11,-2,-3,-2
1,-16,-18,7,9,-17,3,14,11,-2,-3,-2
1,-16,-18,7,9,-18,3,14,11,-2,-3,-2
1,-16,-18,7,10,-18,4,14,11,-2,-3,-2
1,-17,-18,8,10,-18,4,14,11,-2,-4,-2
1,-17,-19,8,10,-18,4,14,10,-2,-4,-2
1,-17,-19,8,10,-18,4,14,10,-2,-4,-2
1,-17,-19,8,10,-18,4,14,10,-2,-4,-2
1,-17,-19,8,10,-18,4,14,10,-2,-4,-2
1,-17,-19,8,10,-18,4,14,10,-2,-4,-2
1,-17,-19,8,10,-18,4,14,10,-2,-4,-2
1,-17,-19,8,10,-18,4,14,10,-2,-4,-2
0,-17,-19,8,9,-18,4,14,10,-2,-4,-2
0,-17,-18,8,8,-18,4,14,10,-2,-3,-2
0,-17,-18,8,8,-18,4,14,10,-2,-3,-2
0,-17,-18,8,8,-18,4,14,10,-2,-3,-2
0,-17,-18,8,8,-18,4,14,10,-2,-3,-2
0,-17,-18,8,8,-18,4,14,10,-2,-3,-2
0,-17,-17,8,8,-18,4,14,10,-2,-3,-2
0,-17,-17,8,8,-18,4,14,10,-2,-3,-2
0,-17,-18,8,9,-18,4,14,10,-2,-3,-3
0,-17,-18,8,9,-18,4,14,10,-2,-4,-3
0,-17,-18,8,9,-18,4,14,9,-2,-4,-3
0,-17,-18,8,9,-18,5,14,9,-2,-4,-3
1,-17,-18,8,9,-18,5,14,9,-3,-4,-3
1,-17,-18,8,9,-18,5,14,9,-3,-4,-3
0,-17,-17,8,9,-18,4,14,9,-3,-4,-3
0,-17,-17,8,8,-18,4,14,9,-3,-4,-3
0,-17,-18,8,8,-18,4,14,9,-3,-4,-3
0,-17,-18,9,8,-18,4,14,9,-3,-4,-3
0,-18,-18,9,8,-19,4,14,8,-3,-4,-3
0,-18,-18,9,8,-19,4,14,8,-3,-4,-3
0,-18,-18,9,8,-19,4,14,8,-3,-4,-3
-1,-19,-18,9,8,-19,4,14,8,-3,-5,-3
-1,-19,-18,9,8,-19,4,14,8,-3,-5,-3
-1,-19,-18,9,8,-19,4,14,7,-3,-5,-3
-1,-19,-18,9,8,-19,4,14,7,-3,-4,-3
-1,-18,-18,9,8,-19,4,13,7,-4,-4,-3
-1,-18,-18,9,8,-19,4,13,7,-4,-4,-3
-1,-18,-17,9,7,-19,4,13,7,-4,-4,-3
-1,-18,-17,9,7,-18,4,13,7,-4,-4,-3
-1,-18,-17,9,7,-18,4,12,7,-4,-4,-3
-1,-17,-17,9,7,-18,4,12,7,-4,-4,-3
-1,-17,-17,9,7,-18,4,12,7,-4,-4,-3
-1,-17,-17,9,7,-18,4,12,7,-4,-4,-3
-1,-17,-17,9,7,-18,4,11,7,-4,-4,-3
0,-17,-17,8,7,-18,4,11,7,-4,-4,-3
0,-17,-17,8,7,-18,4,11,7,-4,-4,-3
0,-17,-17,8,7,-18,4,11,7,-4,-4,-3
0,-17,-17,9,7,-18,4,11,6,-4,-4,-3
0,-17,-17,9,7,-18,4,11,6,-4,-4,-3
0,-17,-17,9,7,-18,4,11,6,-4,-4,-3
0,-17,-17,8,7,-18,4,11,6,-4,-4,-3
0,-17,-17,8,7,-18,4,11,6,-4,-4,-3
0,-17,-17,8,7,-18,4,10,6,-4,-4,-3
0,-17,-17,8,7,-18,4,10,6,-4,-4,-3
0,-17,-17,8,7,-18,4,10,6,-4,-4,-3
0,-17,-17,8,7,-18,4,10,6,-4,-4,-3
0,-17,-17,8,7,-18,4,10,6,-4,-4,-3
0,-17,-17,8,7,-18,4,9,6,-4,-4,-3
0,-18,-17,9,7,-18,4,9,6,-4,-4,-3
0,-18,-17,9,7,-18,4,9,6,-4,-4,-3
-1,-18,-17,9,7,-18,4,9,6,-4,-4,-3
-1,-18,-17,9,7,-18,4,9,6,-4,-4,-2
-1,-18,-17,9,7,-18,4,9,6,-4,-4,-2
-1,-18,-17,9,7,-18,4,9,6,-4,-4,-2
-1,-18,-16,9,7,-18,4,9,6,-4,-4,-2
-1,-18,-16,9,7,-18,4,9,6,-4,-4,-2
-1,-17,-16,9,7,-17,4,9,6,-4,-4,-2
-1,-17,-16,9,7,-17,4,9,6,-3,-3,-2
-1,-17,-16,9,7,-17,4,9,6,-3,-3,-2
0,-17,-16,8,7,-17,4,9,6,-3,-3,-2
0,-17,-16,8,7,-17,4,9,6,-3,-3,-2
0,-17,-16,8,7,-17,4,9,6,-3,-3,-2
-1,-17,-16,8,7,-17,4,9,5,-3,-3,-3
-1,-17,-16,8,7,-17,4,9,5,-3,-3,-3
-1,-16,-16,8,7,-16,4,9,5,-3,-3,-3
-1,-16,-16,8,7,-16,4,8,5,-3,-3,-3
-1,-16,-16,8,7,-16,4,8,5,-3,-4,-3
-1,-16,-15,9,6,-16,4,8,5,-3,-4,-3
-1,-16,-15,9,6,-16,4,8,5,-3,-4,-3
-1,-16,-16,9,7,-16,4,8,5,-3,-4,-3
-1,-17,-16,9,7,-16,4,8,5,-3,-4,-3
-1,-17,-16,9,7,-16,4,8,5,-3,-4,-3
-1,-17,-16,9,7,-16,4,8,5,-3,-4,-3
-1,-17,-16,9,7,-17,4,8,6,-2,-4,-3
-1,-17,-16,9,7,-17,4,8,6,-2,-4,-3
-1,-17,-16,9,7,-17,4,8,6,-2,-4,-2
0,-17,-16,9,7,-17,5,8,6,-2,-4,-2
0,-17,-16,8,8,-17,5,8,6,-2,-4,-2
0,-17,-17,8,8,-17,5,8,6,-2,-4,-2
0,-17,-17,8,8,-17,5,8,6,-2,-4,-2
0,-17,-17,8,8,-17,5,8,6,-2,-4,-2
0,-17,-17,8,8,-17,5,8,6,-2,-4,-2
0,-17,-17,8,8,-17,5,8,6,-1,-4,-2
0,-17,-17,8,8,-17,5,8,6,-1,-4,-2
0,-17,-17,8,8,-17,5,8,6,-1,-4,-2
0,-17,-17,8,8,-17,5,8,6,-1,-4,-2
0,-16,-16,8,8,-17,5,8,6,-1,-4,-2
0,-16,-16,8,8,-16,5,8,6,-1,-4,-2
0,-16,-16,8,8,-16,5,8,6,-1,-4,-3
0,-16,-16,8,8,-16,5,8,6,-1,-4,-3
0,-16,-16,8,8,-16,5,8,6,-1,-4,-3
0,-16,-16,8,8,-17,5,8,6,-1,-4,-3
0,-16,-16,8,8,-17,5,8,6,-1,-4,-3
0,-16,-16,8,8,-17,5,8,6,-1,-4,-3
0,-16,-16,8,8,-17,5,8,6,-2,-4,-3
0,-17,-16,8,8,-17,5,8,6,-2,-4,-3
-1,-17,-16,9,8,-17,5,8,6,-3,-4,-3
-1,-17,-16,9,8,-17,5,8,6,-3,-4,-3
0,-16,-16,9,8,-17,5,8,6,-3,-4,-3
0,-16,-16,8,8,-16,5,8,6,-2,-4,-3
0,-16,-16,8,8,-16,5,8,6,-2,-4,-3
0,-17,-16,8,8,-17,5,8,6,-2,-5,-3
0,-17,-17,8,8,-17,5,8,6,-2,-5,-3
0,-17,-17,8,8,-17,5,8,6,-2,-5,-3
-1,-18,-17,9,8,-18,5,8,5,-3,-6,-4
-4,-21,-17,13,6,-19,4,7,4,-4,-7,-5
-7,-24,-17,15,5,-21,3,6,3,-5,-8,-6
-8,-25,-17,16,4,-21,3,6,3,-5,-8,-6
-8,-25,-17,16,4,-21,3,6,3,-5,-8,-6
-7,-24,-17,16,4,-21,3,6,3,-5,-8,-6
-7,-24,-17,15,4,-21,3,6,3,-5,-8,-6
-7,-24,-17,15,4,-21,3,6,3,-5,-8,-6
-7,-24,-17,15,5,-21,3,6,3,-5,-8,-6
-6,-23,-18,14,5,-21,3,6,3,-5,-8,-6
-5,-23,-18,14,6,-21,3,6,3,-5,-8,-5
-4,-22,-18,13,6,-21,3,6,3,-4,-8,-5
-3,-22,-18,13,6,-21,3,6,3,-4,-8,-5
-4,-22,-18,13,6,-21,3,6,3,-4,-8,-6
-4,-22,-18,13,6,-20,3,6,3,-4,-7,-6
-4,-21,-18,13,6,-20,3,7,3,-4,-7,-6
-4,-21,-18,13,6,-20,3,7,3,-4,-7,-6
-4,-21,-18,13,6,-20,3,7,3,-4,-7,-6
-4,-21,-18,12,6,-20,3,7,3,-4,-7,-6
-4,-22,-18,12,6,-20,3,7,3,-4,-6,-6
-4,-22,-18,13,6,-20,3,7,3,-4,-6,-6
-4,-22,-18,13,6,-20,3,7,3,-4,-6,-6
-3,-22,-18,13,6,-20,4,7,3,-4,-6,-6
-3,-22,-18,13,7,-20,4,7,4,-4,-6,-6
-3,-22,-18,13,7,-20,4,7,4,-4,-6,-6
-4,-22,-18,13,7,-20,4,7,4,-4,-6,-6
-4,-22,-18,13,6,-20,4,7,4,-4,-6,-6
-4,-22,-18,13,6,-20,4,7,4,-4,-6,-6
-4,-22,-17,13,6,-20,4,7,4,-4,-6,-6
-4,-21,-17,13,6,-19,4,7,4,-4,-7,-6
-4,-21,-16,13,6,-19,4,7,4,-4,-7,-6
-5,-21,-16,13,5,-18,4,7,4,-4,-7,-6
-5,-20,-15,13,5,-18,4,7,4,-4,-7,-6
-5,-20,-15,13,5,-18,4,7,4,-4,-7,-6
-5,-20,-15,13,5,-18,4,7,4,-4,-7,-6
-5,-20,-15,12,5,-18,4,7,4,-4,-7,-6
-5,-20,-15,12,5,-18,4,7,4,-4,-7,-6
-5,-20,-15,12,5,-18,4,7,4,-4,-7,-6
-4,-20,-15,12,5,-18,4,7,4,-4,-7,-6
-4,-20,-15,12,5,-18,4,7,4,-4,-7,-6
-4,-20,-15,12,5,-18,4,7,4,-4,-7,-6
-4,-20,-15,12,5,-18,4,7,4,-4,-7,-7
-5,-20,-15,12,5,-18,4,7,4,-4,-7,-7
-5,-20,-15,12,5,-18,4,7,4,-4,-7,-7
-5,-20,-15,13,5,-18,4,7,4,-4,-7,-7
-5,-20,-15,13,5,-18,4,7,4,-4,-7,-7
-5,-20,-15,12,5,-18,4,7,4,-4,-7,-7
-4,-20,-15,12,6,-18,4,8,4,-4,-7,-7
-4,-20,-15,12,6,-18,4,8,4,-4,-7,-7
-4,-20,-15,12,6,-18,4,8,4,-4,-7,-7
-4,-20,-15,12,6,-18,4,8,4,-4,-7,-7
-4,-20,-15,12,6,-18,4,8,4,-4,-7,-7
-4,-20,-15,12,6,-18,4,8,4,-4,-7,-8
-4,-20,-15,12,6,-18,4,8,4,-4,-7,-8
-4,-19,-15,12,6,-18,4,8,4,-3,-7,-8
-4,-19,-15,12,5,-17,4,8,4,-3,-8,-8
-5,-19,-14,12,5,-17,4,8,4,-3,-8,-8
-5,-19,-14,12,5,-17,4,8,4,-3,-8,-8
-5,-19,-14,12,5,-17,4,8,4,-3,-8,-8
-4,-19,-14,12,5,-17,4,8,4,-3,-8,-8
-4,-19,-14,12,5,-17,4,8,4,-3,-8,-8
-4,-19,-15,12,5,-18,4,8,4,-3,-9,-8
-4,-19,-15,12,5,-18,4,8,4,-3,-9,-8
-4,-19,-15,12,5,-18,4,8,4,-3,-9,-8
-4,-19,-15,12,6,-17,4,8,4,-3,-9,-8
-4,-19,-15,12,6,-17,4,8,4,-3,-9,-8
-4,-19,-15,12,6,-17,4,8,4,-3,-9,-8
-4,-19,-15,12,6,-17,4,8,4,-3,-9,-8
-4,-19,-15,12,6,-17,4,8,4,-3,-8,-8
-4,-19,-15,12,6,-17,4,8,4,-3,-8,-8
-4,-19,-15,12,6,-17,4,8,4,-3,-8,-8
-4,-19,-15,12,6,-17,4,8,4,-3,-8,-8
-4,-19,-15,12,6,-17,4,8,4,-3,-8,-8
-4,-19,-15,12,6,-17,4,8,4,-3,-8,-8
-4,-19,-15,12,6,-18,4,8,4,-3,-8,-8
-4,-19,-15,12,6,-18,4,8,4,-3,-8,-8
-4,-19,-15,12,6,-18,4,8,4,-3,-8,-8
-4,-19,-16,12,6,-18,4,8,4,-3,-8,-9
-4,-19,-16,12,6,-18,4,8,4,-3,-8,-9
-4,-19,-16,12,6,-18,4,8,4,-3,-8,-9
-4,-19,-15,12,6,-17,4,8,4,-3,-8,-9
-3,-19,-16,12,6,-17,4,8,4,-3,-8,-9
-3,-19,-16,11,7,-17,4,8,4,-3,-8,-9
-3,-19,-16,11,7,-17,4,8,4,-3,-8,-9
-3,-19,-16,11,6,-17,4,8,4,-3,-8,-9
-3,-19,-15,11,6,-17,4,8,4,-3,-8,-9
-3,-19,-15,11,6,-17,4,8,4,-3,-8,-9
-3,-19,-15,12,6,-17,5,8,4,-3,-8,-9
-3,-19,-15,12,6,-17,5,8,4,-4,-8,-9
-3,-19,-15,12,6,-17,5,8,4,-4,-8,-9
-3,-19,-15,12,6,-17,4,8,4,-4,-8,-9
-3,-19,-15,12,6,-17,4,9,4,-4,-8,-9
-3,-19,-15,11,6,-17,4,9,4,-4,-8,-9
-3,-19,-16,11,6,-17,4,9,4,-4,-9,-10
-3,-19,-16,11,6,-17,4,9,4,-4,-9,-10
-3,-19,-16,11,6,-17,4,9,4,-4,-9,-11
-3,-19,-16,12,6,-17,4,9,4,-4,-9,-11
-3,-19,-16,12,6,-17,4,9,4,-4,-9,-11
-3,-19,-16,12,6,-17,4,9,4,-4,-9,-11
-3,-19,-16,12,6,-17,4,9,4,-4,-9,-11
-4,-19,-16,12,6,-17,4,9,4,-4,-9,-11
-4,-19,-15,12,6,-17,4,9,4,-4,-9,-11
-3,-19,-15,12,6,-17,4,9,4,-4,-9,-11
-3,-19,-16,12,6,-17,4,9,4,-4,-9,-11
-2,-19,-16,11,6,-17,4,9,4,-3,-8,-11
-2,-19,-17,11,6,-17,4,9,4,-3,-8,-10
-2,-19,-17,11,7,-17,4,9,4,-3,-8,-10
-2,-19,-17,11,7,-18,4,9,4,-3,-8,-10
-2,-19,-17,11,7,-18,4,9,4,-3,-8,-10
-2,-19,-17,11,7,-17,4,9,4,-3,-9,-11
-2,-19,-17,11,7,-17,4,9,4,-3,-9,-11
-2,-19,-17,12,7,-17,4,9,4,-3,-9,-12
-2,-19,-17,12,7,-17,4,9,4,-3,-9,-12
-2,-19,-17,11,7,-17,4,9,4,-3,-9,-12
-2,-19,-17,11,7,-17,4,9,4,-3,-9,-12
-2,-19,-17,11,7,-17,4,9,4,-3,-9,-12
-2,-19,-17,11,7,-17,4,9,4,-3,-9,-12
-3,-20,-17,11,7,-18,4,9,4,-3,-9,-12
-3,-20,-17,11,7,-18,4,9,4,-3,-9,-12
-2,-20,-17,11,7,-17,4,9,4,-3,-9,-12
-2,-20,-17,11,7,-17,4,9,5,-3,-9,-12
-2,-20,-18,11,7,-18,4,9,5,-3,-9,-12
-2,-20,-18,11,7,-18,4,9,5,-3,-9,-12
-2,-20,-18,11,7,-18,4,9,5,-3,-9,-12
-2,-20,-18,11,7,-18,4,9,5,-3,-9,-12
-2,-20,-18,11,7,-18,4,9,5,-3,-9,-12
-2,-20,-18,11,7,-18,4,9,5,-3,-9,-12
-2,-20,-18,12,7,-18,4,9,5,-3,-9,-12
-2,-21,-18,12,7,-18,4,9,5,-3,-9,-12
-1,-21,-19,11,8,-19,4,9,5,-4,-9,-12
-1,-21,-19,11,9,-19,4,9,5,-4,-9,-12
0,-21,-20,11,9,-19,4,9,5,-4,-9,-12
0,-20,-20,11,10,-19,5,9,5,-4,-9,-12
0,-20,-20,11,10,-19,5,9,5,-4,-10,-13
0,-21,-20,11,10,-20,4,9,4,-4,-10,-13
0,-21,-20,11,10,-20,4,9,4,-4,-10,-13
0,-21,-20,11,10,-20,4,9,5,-4,-10,-13
0,-21,-20,11,10,-20,4,9,5,-4,-10,-13
0,-21,-20,11,9,-20,4,9,5,-4,-10,-13
0,-21,-20,11,9,-20,4,9,5,-4,-10,-13
0,-21,-20,11,9,-20,5,9,5,-4,-10,-13
0,-21,-20,11,9,-20,5,9,5,-4,-10,-13
-1,-21,-20,11,9,-20,5,9,5,-4,-11,-13
-1,-21,-20,11,9,-20,5,9,5,-4,-11,-14
0,-20,-20,11,9,-19,5,9,5,-4,-11,-14
0,-20,-20,11,10,-19,5,9,5,-4,-10,-14
0,-21,-20,11,10,-19,4,9,5,-4,-10,-14
-1,-21,-20,11,9,-20,4,9,5,-4,-10,-14
-1,-21,-20,11,9,-20,4,9,5,-4,-10,-13
-1,-21,-20,10,9,-20,5,9,5,-4,-10,-13
0,-21,-20,10,9,-20,5,9,5,-4,-10,-13
0,-21,-20,10,9,-20,5,9,5,-4,-10,-13
0,-21,-20,10,9,-20,5,9,5,-4,-10,-13
0,-21,-20,10,9,-20,5,9,5,-4,-10,-13
0,-21,-20,10,9,-20,5,10,6,-4,-10,-13
0,-21,-20,10,9,-20,5,10,6,-4,-10,-13
0,-21,-21,10,9,-20,5,10,6,-4,-11,-13
0,-21,-21,11,9,-20,5,10,6,-4,-11,-13
-1,-21,-21,11,9,-21,5,10,6,-4,-11,-13
-1,-22,-21,11,9,-21,5,10,6,-4,-11,-13
-1,-22,-21,11,9,-21,5,10,6,-4,-11,-13
0,-22,-21,11,9,-21,5,10,6,-4,-11,-13
0,-22,-21,11,9,-21,5,10,6,-4,-11,-13
0,-21,-21,11,9,-20,5,10,6,-4,-11,-13
0,-20,-21,11,9,-20,5,10,6,-3,-11,-13
0,-20,-20,11,9,-19,5,10,6,-3,-11,-13
0,-19,-20,11,9,-19,5,10,6,-3,-11,-13
0,-19,-20,11,9,-19,5,10,6,-3,-10,-13
0,-19,-19,10,8,-18,5,10,6,-2,-10,-13
0,-18,-18,10,8,-17,6,10,7,-2,-10,-12
0,-17,-17,9,8,-16,6,11,7,-1,-9,-12
0,-16,-17,8,8,-16,6,11,8,-1,-9,-12
0,-15,-16,8,8,-15,6,11,8,-1,-9,-12
0,-14,-16,7,8,-15,6,11,8,0,-9,-12
0,-14,-16,7,7,-14,6,11,8,0,-9,-12
0,-14,-16,6,7,-14,6,11,8,0,-9,-12
0,-13,-16,6,7,-14,6,11,8,0,-9,-12
1,-13,-15,6,7,-13,6,11,9,0,-9,-12
1,-13,-15,6,7,-13,6,11,9,0,-9,-12
1,-13,-15,6,7,-14,6,11,9,-1,-9,-12
1,-14,-16,6,8,-14,6,12,9,-1,-9,-12
1,-14,-16,6,8,-14,6,12,9,-1,-9,-12
1,-14,-16,6,8,-15,6,12,9,-1,-9,-12
1,-14,-16,6,8,-15,6,12,9,-1,-9,-12
1,-14,-16,6,8,-15,6,12,9,-1,-9,-12
2,-14,-16,6,8,-15,5,13,9,-1,-9,-12
2,-13,-16,5,9,-14,4,13,9,0,-8,-11
3,-12,-16,4,9,-14,3,13,10,0,-7,-11
4,-12,-17,4,10,-14,2,13,10,0,-7,-11
4,-12,-17,4,10,-14,2,13,10,0,-7,-11
4,-12,-18,4,10,-15,2,13,10,0,-7,-11
4,-13,-18,4,10,-15,2,13,10,0,-8,-11
4,-13,-18,4,10,-15,2,13,10,0,-8,-10
4,-13,-19,5,11,-15,2,14,10,0,-7,-10
4,-14,-19,5,11,-16,3,14,10,0,-7,-10
4,-14,-19,5,11,-16,3,14,10,0,-8,-11
4,-14,-19,5,11,-16,3,13,9,0,-8,-11
4,-14,-19,5,11,-16,3,13,9,-1,-8,-11
4,-14,-20,5,11,-17,3,12,8,-1,-9,-12
4,-15,-21,6,11,-17,3,12,8,-1,-9,-12
4,-16,-21,6,11,-18,3,12,7,-2,-10,-12
4,-17,-22,6,11,-19,3,11,6,-3,-10,-12
4,-17,-22,7,11,-19,3,11,6,-3,-11,-13
4,-17,-21,7,11,-19,3,11,5,-4,-11,-13
3,-17,-21,8,11,-19,3,11,5,-4,-11,-13
2,-17,-20,8,10,-18,3,12,6,-4,-11,-14
1,-17,-20,9,10,-18,4,12,6,-4,-11,-14
1,-18,-20,9,10,-18,4,12,6,-4,-11,-14
1,-18,-20,9,10,-18,4,12,6,-4,-12,-14
1,-19,-20,9,10,-18,4,11,6,-4,-12,-14
1,-19,-20,9,10,-19,4,11,5,-5,-12,-14
1,-20,-20,10,10,-19,4,10,5,-5,-12,-14
1,-20,-21,10,10,-20,4,10,4,-6,-12,-14
1,-20,-21,10,10,-20,4,10,4,-6,-12,-14
1,-20,-22,10,10,-21,4,10,4,-6,-12,-15
1,-20,-22,10,10,-21,4,10,4,-6,-12,-15
1,-20,-22,10,10,-21,4,10,4,-6,-12,-15
1,-20,-22,10,10,-21,4,10,4,-6,-12,-15
1,-20,-22,10,10,-21,4,10,4,-6,-12,-15
1,-20,-22,10,10,-21,4,10,4,-6,-12,-15
1,-20,-22,10,10,-21,4,10,4,-6,-12,-15
1,-21,-22,10,10,-21,4,10,4,-6,-12,-16
1,-21,-22,10,10,-21,4,10,4,-6,-12,-16
1,-21,-22,10,10,-21,4,10,4,-6,-12,-16
1,-21,-22,10,10,-21,4,10,4,-6,-12,-16
1,-21,-22,10,10,-21,4,10,4,-6,-12,-16
1,-21,-23,10,10,-21,4,10,4,-6,-12,-16
1,-22,-23,10,10,-22,4,10,4,-6,-12,-16
1,-22,-23,10,10,-22,4,10,4,-6,-12,-16
1,-22,-23,10,10,-22,4,10,4,-6,-12,-16
1,-22,-23,10,10,-22,5,10,4,-6,-12,-16
1,-22,-23,10,10,-22,5,11,4,-6,-12,-16
1,-22,-23,10,10,-22,5,11,4,-6,-13,-16
1,-22,-23,10,10,-22,7,13,5,-6,-13,-16
0,-23,-23,11,10,-23,9,16,7,-6,-13,-17
0,-23,-23,12,10,-23,11,20,10,-6,-14,-18
-1,-23,-22,12,9,-22,15,26,14,-6,-15,-19
-2,-22,-21,12,8,-21,19,33,19,-5,-15,-20
-1,-20,-20,11,8,-19,22,41,25,-2,-14,-20
1,-17,-19,8,9,-17,24,49,33,3,-11,-18
4,-14,-19,5,10,-15,24,57,42,10,-7,-15
7,-10,-19,1,11,-13,24,66,54,19,0,-11
12,-5,-19,-3,14,-11,24,77,68,30,7,-6
19,1,-18,-10,17,-8,23,87,84,44,18,0
26,10,-17,-18,21,-3,19,95,102,61,31,10
34,20,-14,-27,23,3,15,99,121,81,47,22
40,32,-9,-36,23,12,10,100,139,103,65,35
46,45,-2,-45,22,22,4,95,156,125,83,49
52,59,6,-55,21,33,-2,87,169,147,103,64
57,74,16,-65,19,46,-11,74,175,164,121,79
58,88,29,-73,14,59,-21,51,170,172,135,93
55,100,45,-77,4,73,-30,19,151,168,141,103
47,107,60,-77,-8,84,-37,-19,119,153,138,107
36,108,72,-72,-19,90,-41,-56,79,127,125,104
23,104,80,-63,-30,92,-45,-93,28,93,105,95
8,98,89,-53,-42,94,-50,-130,-30,54,81,83
-6,93,99,-44,-54,97,-55,-162,-84,17,58,70
-18,88,105,-35,-63,98,-61,-185,-125,-10,38,58
-26,82,108,-28,-68,96,-67,-198,-151,-30,22,48
-30,76,106,-23,-70,92,-72,-204,-166,-44,11,39
-32,70,102,-19,-68,86,-77,-205,-173,-52,3,32
-33,63,96,-15,-66,79,-84,-204,-174,-58,-3,25
-32,55,88,-12,-61,72,-89,-200,-172,-61,-9,19
-31,48,79,-9,-56,64,-93,-192,-167,-64,-14,14
-30,41,70,-6,-51,56,-94,-183,-161,-65,-18,9
-29,35,63,-3,-47,50,-93,-173,-153,-65,-21,4
-28,31,58,-2,-44,46,-91,-162,-143,-63,-23,1
-27,29,54,-1,-42,43,-86,-149,-133,-60,-23,-1
-25,26,51,0,-39,39,-79,-137,-123,-56,-23,-3
-24,24,47,0,-37,36,-72,-124,-113,-52,-22,-4
-22,22,44,0,-34,34,-64,-112,-104,-48,-21,-5
-21,20,41,0,-32,32,-56,-100,-95,-44,-20,-5
-20,19,38,0,-30,30,-48,-89,-86,-41,-20,-6
-19,18,35,0,-28,28,-41,-79,-79,-38,-19,-7
-18,17,34,0,-27,26,-36,-71,-72,-36,-19,-7
-18,16,33,0,-26,25,-31,-65,-66,-34,-18,-7
-17,15,32,0,-25,24,-28,-60,-61,-32,-17,-7
-16,15,31,0,-25,23,-26,-55,-56,-29,-16,-7
-15,14,29,0,-24,22,-23,-51,-52,-27,-15,-7
-14,14,28,0,-22,22,-21,-47,-49,-25,-14,-7
-13,13,26,0,-21,21,-19,-43,-46,-23,-13,-7
-13,13,24,0,-20,20,-17,-40,-43,-22,-13,-7
-12,12,23,0,-19,19,-16,-37,-41,-21,-12,-7
-11,12,23,0,-18,18,-15,-35,-38,-19,-11,-6
-11,12,23,0,-18,18,-14,-33,-36,-18,-10,-6
-10,12,23,-1,-17,18,-14,-32,-34,-17,-9,-6
-10,12,22,-1,-17,18,-13,-30,-32,-15,-9,-6
-10,12,22,-1,-17,18,-12,-29,-31,-14,-8,-6
-10,12,21,-1,-16,17,-11,-27,-30,-13,-8,-6
-9,12,21,-1,-16,17,-10,-26,-29,-12,-8,-5
-9,13,21,-2,-15,17,-9,-25,-28,-12,-8,-5
-8,13,21,-2,-15,18,-9,-24,-27,-11,-7,-4
-8,13,21,-2,-16,18,-8,-24,-26,-11,-7,-4
-8,13,22,-2,-16,18,-8,-23,-25,-11,-6,-3
-8,13,22,-2,-16,19,-8,-23,-24,-10,-6,-3
-8,14,22,-3,-16,19,-7,-23,-23,-10,-5,-3
-8,14,23,-3,-16,19,-7,-22,-23,-9,-5,-3
-8,15,23,-3,-16,20,-6,-22,-23,-9,-5,-3
-8,15,23,-3,-16,20,-6,-21,-22,-9,-5,-3
-8,15,23,-3,-16,20,-6,-21,-22,-9,-5,-3
-8,15,23,-3,-16,20,-6,-20,-21,-9,-5,-3
-8,15,23,-3,-16,20,-6,-20,-21,-9,-4,-3
-8,15,23,-3,-16,20,-6,-20,-20,-9,-4,-3
-8,15,23,-3,-16,20,-6,-20,-20,-8,-3,-2
-8,15,24,-3,-16,20,-6,-20,-19,-8,-3,-2
-8,16,24,-3,-16,20,-6,-19,-19,-8,-3,-2
-8,16,24,-3,-16,20,-5,-19,-19,-8,-3,-2
-8,16,24,-3,-16,20,-5,-19,-19,-8,-3,-2
-8,16,24,-4,-17,21,-5,-18,-19,-8,-2,-1
-8,16,24,-4,-17,21,-5,-18,-19,-8,-2,-1
-7,17,24,-4,-17,21,-5,-18,-19,-8,-1,0
-7,17,24,-5,-17,22,-5,-18,-19,-8,-1,0
-7,17,24,-5,-17,22,-5,-18,-19,-7,-1,0
-7,18,25,-6,-17,22,-4,-18,-19,-7,-1,0
-7,18,26,-6,-18,22,-4,-18,-18,-6,-1,0
-7,19,26,-6,-18,23,-4,-18,-18,-6,-1,0
-7,19,27,-6,-18,23,-4,-18,-18,-6,-1,0
-8,19,27,-6,-18,24,-4,-18,-18,-6,-1,0
-8,19,27,-6,-18,24,-4,-18,-18,-6,-1,1
-8,19,27,-6,-18,24,-4,-17,-18,-6,-1,1
-8,20,27,-6,-18,24,-4,-17,-18,-5,0,1
-8,20,27,-6,-18,24,-4,-17,-18,-5,0,1
-8,20,27,-6,-19,24,-4,-17,-18,-5,0,1
-8,20,27,-6,-19,24,-4,-17,-18,-5,0,2
-8,20,28,-6,-19,24,-4,-17,-18,-5,0,2
-8,21,28,-6,-19,25,-4,-17,-18,-4,1,3
-8,21,29,-6,-19,25,-4,-17,-18,-4,1,3
-8,22,29,-7,-19,26,-4,-17,-18,-4,2,4
-8,22,30,-7,-20,26,-4,-17,-18,-4,2,4
-8,22,30,-7,-20,27,-4,-17,-18,-4,3,4
-8,23,31,-7,-20,27,-5,-17,-18,-4,3,4
-8,23,31,-7,-20,27,-5,-17,-18,-4,3,5
-8,23,31,-7,-20,28,-5,-17,-19,-4,4,5
-8,24,32,-7,-21,28,-5,-17,-19,-3,4,5
-8,24,32,-8,-21,29,-5,-17,-19,-3,4,6
-8,25,33,-8,-22,29,-5,-17,-19,-3,5,6
-8,25,33,-8,-22,30,-5,-18,-19,-3,5,7
-8,26,34,-8,-22,30,-5,-18,-19,-3,6,7
-8,26,34,-8,-22,31,-5,-19,-19,-3,6,8
-8,27,35,-9,-23,32,-5,-19,-19,-3,6,8
-8,27,35,-9,-23,32,-6,-19,-19,-3,6,9
-8,28,36,-10,-23,33,-6,-19,-20,-3,6,9
-8,29,36,-10,-23,33,-6,-19,-20,-3,6,10
-8,29,37,-11,-23,34,-6,-19,-20,-3,7,10
-8,30,38,-11,-24,34,-6,-19,-21,-3,7,11
-9,30,39,-11,-25,35,-6,-20,-21,-2,7,11
-9,31,40,-11,-25,36,-7,-20,-21,-2,8,11
-9,32,41,-11,-25,37,-7,-20,-21,-2,8,11
-9,32,41,-11,-26,37,-7,-20,-21,-2,8,12
-9,33,42,-11,-26,38,-7,-20,-21,-1,8,12
-9,34,42,-12,-26,38,-7,-20,-21,-1,9,13
-9,35,43,-12,-27,39,-7,-20,-22,0,9,14
-9,35,44,-13,-28,40,-7,-20,-22,0,10,15
-9,36,45,-13,-28,41,-7,-20,-22,0,10,15
-9,37,46,-13,-29,42,-7,-20,-22,1,11,16
-9,38,47,-14,-29,43,-7,-20,-22,1,11,16
-9,39,48,-14,-30,44,-7,-20,-22,1,12,17
-9,40,49,-15,-30,45,-7,-20,-22,1,12,18
-9,41,50,-15,-31,46,-7,-20,-22,2,13,18
-9,42,51,-15,-31,47,-7,-20,-23,2,14,19
-9,42,52,-16,-32,48,-7,-20,-23,3,14,20
-9,43,53,-16,-32,49,-8,-20,-23,3,15,20
-9,44,54,-17,-33,50,-8,-20,-24,3,15,21
-10,45,56,-17,-34,51,-9,-20,-24,4,16,21
-10,47,57,-18,-35,53,-9,-20,-24,4,16,22
-10,48,58,-18,-35,54,-9,-20,-24,5,17,22
-10,49,59,-19,-36,55,-9,-20,-24,5,18,23
-10,50,60,-20,-36,56,-9,-20,-24,6,19,24
-10,51,60,-21,-36,56,-9,-20,-24,6,19,25
-10,52,61,-21,-37,57,-9,-20,-24,7,20,25
-10,54,63,-22,-37,59,-9,-19,-24,7,21,26
-10,55,64,-23,-38,60,-9,-19,-24,8,22,27
-10,56,66,-23,-39,62,-9,-19,-24,8,23,27
-10,57,67,-23,-39,63,-9,-19,-24,9,24,28
-10,58,68,-24,-40,64,-9,-19,-24,9,25,29
-10,59,69,-24,-40,65,-9,-19,-24,10,26,29
-10,60,70,-24,-41,66,-8,-18,-24,10,26,30
-10,61,71,-24,-42,66,-8,-18,-24,11,27,30
-10,61,72,-25,-43,67,-8,-18,-24,12,27,31
-10,62,73,-25,-43,68,-8,-18,-24,13,28,32
-11,63,74,-26,-44,69,-8,-18,-24,13,28,32
-11,63,75,-26,-44,70,-8,-17,-24,14,29,33
-11,64,75,-26,-44,70,-7,-17,-24,14,29,33
-11,65,76,-26,-44,71,-7,-16,-24,15,30,34
-11,65,76,-27,-44,71,-6,-16,-24,15,30,34
-11,66,76,-27,-44,72,-6,-15,-24,16,31,35
-11,66,77,-28,-44,72,-6,-15,-23,16,31,35
-11,66,77,-28,-44,72,-6,-14,-23,17,31,35
-11,67,77,-28,-44,72,-6,-14,-23,17,32,35
-11,67,77,-28,-44,72,-5,-13,-23,17,32,35
-11,67,77,-28,-45,73,-5,-13,-23,17,32,35
-11,67,77,-28,-45,73,-5,-12,-23,17,32,35
-11,67,77,-28,-45,72,-4,-12,-22,17,33,35
-11,66,77,-28,-45,72,-4,-12,-22,17,33,35
-10,66,76,-27,-44,71,-3,-12,-21,18,33,35
-10,65,75,-27,-44,71,-3,-12,-21,18,33,35
-10,65,74,-27,-44,70,-3,-11,-21,18,33,34
-10,64,73,-26,-43,69,-2,-11,-20,18,32,34
-10,63,72,-26,-42,68,-2,-11,-20,18,32,34
-9,62,71,-26,-41,67,-2,-11,-20,18,31,33
-9,61,70,-25,-41,66,-1,-11,-19,18,31,33
-9,60,68,-25,-40,65,-1,-11,-19,18,31,33
-9,58,67,-25,-39,63,0,-11,-18,18,31,32
-9,56,65,-24,-38,61,0,-11,-18,17,30,31
-8,55,63,-23,-37,59,0,-10,-17,17,30,31
-8,53,60,-22,-35,57,0,-10,-17,17,29,30
-7,52,58,-22,-34,55,0,-10,-16,16,28,29
-7,50,56,-21,-33,53,0,-10,-16,16,27,28
-7,48,54,-20,-32,51,0,-10,-15,15,26,28
-6,46,52,-20,-30,50,0,-10,-14,15,25,27
-6,45,50,-19,-29,48,0,-10,-13,14,24,27
-5,43,48,-19,-27,46,0,-9,-12,14,23,26
-4,41,45,-18,-26,44,0,-9,-11,13,22,25
-3,39,42,-17,-24,41,0,-8,-10,13,21,24
-2,36,39,-16,-22,39,0,-7,-9,13,20,23
-2,34,36,-16,-20,36,0,-7,-8,13,19,22
-1,32,33,-15,-18,33,0,-6,-7,12,19,21
-1,30,31,-15,-17,31,0,-5,-6,12,18,20
0,28,28,-14,-15,29,0,-5,-6,11,17,19
0,26,25,-13,-14,26,0,-4,-5,11,16,18
1,25,23,-13,-12,24,0,-3,-4,10,15,16
2,23,20,-12,-11,22,0,-2,-2,10,13,15
2,20,17,-11,-9,20,0,-1,-1,9,12,13
3,18,15,-11,-7,17,0,0,0,9,11,12
3,16,12,-10,-6,15,0,1,1,8,10,11
3,14,10,-9,-4,13,0,3,3,8,10,10
4,12,7,-8,-3,10,0,4,4,7,9,9
4,10,5,-7,-1,8,0,5,5,7,8,8
5,8,2,-7,0,6,0,6,6,6,7,6
5,7,0,-6,1,4,0,7,7,6,5,5
6,5,-2,-5,3,2,0,9,8,6,4,4
6,3,-4,-4,4,0,0,10,9,5,3,3
7,1,-6,-4,5,-2,0,11,10,5,2,2
7,0,-8,-3,6,-3,0,12,11,4,1,1
7,-2,-10,-3,7,-5,0,13,12,4,0,0
7,-3,-11,-2,8,-6,0,14,12,3,0,0
7,-4,-12,-1,8,-7,0,14,13,2,-1,-1
7,-5,-13,-1,8,-8,0,15,13,2,-2,-2
7,-6,-14,0,9,-9,0,16,14,1,-3,-3
7,-7,-15,0,10,-10,0,16,14,0,-3,-3
7,-8,-16,0,10,-11,0,17,14,0,-4,-4
7,-9,-17,1,11,-12,0,17,14,0,-4,-4
7,-10,-18,1,11,-13,0,18,14,0,-5,-5
7,-10,-18,2,11,-14,0,18,14,0,-5,-5
7,-11,-18,2,11,-14,0,18,14,-1,-6,-6
7,-11,-19,3,11,-15,1,18,15,-1,-7,-6
7,-12,-19,3,12,-15,1,18,15,-1,-7,-7
7,-12,-20,3,12,-16,1,19,15,-2,-8,-8
7,-13,-20,3,12,-16,1,19,14,-2,-8,-8
7,-14,-21,4,12,-17,1,19,14,-2,-9,-9
6,-14,-21,4,12,-17,1,19,13,-3,-9,-9
6,-14,-21,4,12,-17,1,18,13,-3,-10,-9
6,-14,-21,4,12,-17,2,18,13,-3,-10,-9
6,-14,-21,4,12,-17,2,18,13,-3,-10,-9
6,-14,-21,4,12,-17,2,18,13,-3,-10,-9
6,-15,-22,4,12,-17,2,18,13,-4,-11,-10
6,-16,-22,4,13,-18,2,18,12,-4,-11,-10
6,-16,-22,5,13,-18,2,18,12,-4,-11,-10
5,-16,-22,5,12,-18,3,18,11,-4,-11,-10
5,-16,-22,6,12,-18,3,18,11,-4,-12,-10
5,-16,-22,6,12,-19,3,17,10,-4,-12,-11
5,-16,-23,6,13,-19,3,17,10,-4,-12,-11
5,-16,-23,6,13,-19,3,17,10,-4,-12,-11
5,-17,-23,7,13,-19,3,17,9,-4,-12,-11
4,-17,-22,7,12,-19,3,17,9,-5,-12,-11
4,-17,-22,7,12,-19,3,17,9,-5,-12,-11
4,-17,-22,7,12,-19,3,17,9,-5,-12,-11
4,-17,-22,7,12,-19,3,17,9,-5,-12,-11
4,-17,-22,7,12,-19,3,17,9,-5,-12,-11
4,-17,-22,7,12,-19,3,17,9,-5,-12,-11
4,-18,-22,8,12,-19,3,17,9,-5,-12,-11
3,-18,-22,8,12,-19,3,17,9,-5,-12,-11
3,-18,-22,8,12,-19,3,17,9,-5,-12,-11
4,-18,-22,8,12,-19,3,17,9,-5,-12,-11
4,-18,-22,8,12,-19,3,17,9,-5,-12,-11
4,-18,-22,8,12,-19,3,17,9,-5,-12,-11
4,-18,-22,8,12,-19,3,17,9,-5,-12,-11
4,-17,-22,8,12,-19,3,17,9,-5,-12,-11
4,-17,-21,8,12,-19,3,17,8,-5,-12,-11
4,-17,-21,8,12,-19,3,17,8,-5,-12,-11
4,-17,-22,8,12,-19,3,17,8,-6,-12,-11
4,-18,-22,8,12,-19,3,17,8,-6,-12,-11
4,-18,-22,8,12,-19,3,17,8,-7,-13,-11
4,-18,-22,8,11,-19,3,17,8,-7,-13,-11
4,-18,-22,8,11,-19,3,17,8,-7,-13,-11
4,-18,-22,8,11,-19,3,17,8,-7,-13,-11
4,-18,-22,8,11,-20,3,17,8,-7,-13,-11
4,-18,-22,8,11,-20,3,17,8,-7,-13,-11
4,-18,-22,8,11,-20,4,17,8,-7,-13,-11
4,-18,-23,8,12,-20,4,17,8,-6,-13,-11
4,-18,-23,8,12,-20,4,17,8,-6,-13,-12
4,-18,-23,8,12,-20,4,17,8,-6,-13,-12
5,-18,-23,8,12,-20,4,17,8,-7,-13,-12
5,-18,-23,8,12,-20,4,17,8,-7,-13,-12
5,-18,-23,8,12,-20,4,17,8,-7,-13,-12
5,-17,-23,7,12,-19,4,17,8,-7,-13,-12
5,-17,-23,7,12,-19,4,17,8,-7,-13,-12
5,-17,-23,7,12,-19,4,17,8,-7,-13,-12
4,-17,-23,8,12,-19,4,17,8,-7,-13,-12
4,-17,-23,8,11,-19,4,17,7,-7,-14,-12
4,-18,-23,8,11,-19,4,17,7,-7,-14,-12
4,-18,-23,8,12,-19,4,17,7,-7,-14,-12
4,-18,-23,8,12,-19,4,17,7,-7,-14,-12
4,-18,-23,8,12,-20,4,17,7,-7,-14,-13
4,-18,-23,8,12,-20,4,17,7,-7,-14,-13
4,-18,-23,8,12,-20,4,17,7,-7,-14,-13
4,-18,-24,8,12,-20,4,17,7,-7,-14,-13
4,-18,-24,8,12,-20,4,17,7,-7,-14,-13
4,-18,-24,8,13,-21,4,17,7,-7,-14,-13
4,-19,-24,9,13,-21,4,16,7,-7,-14,-13
4,-19,-24,9,13,-21,4,16,6,-7,-14,-13
5,-19,-24,8,13,-21,4,16,6,-7,-14,-13
5,-19,-24,8,13,-21,4,16,6,-7,-14,-13
5,-19,-24,8,13,-21,4,15,6,-7,-15,-13
5,-19,-24,8,13,-21,4,15,6,-7,-15,-13
5,-18,-24,8,13,-21,4,15,6,-7,-15,-13
5,-18,-24,8,13,-21,4,15,6,-7,-15,-13
5,-18,-24,8,13,-21,4,14,6,-7,-15,-13
5,-18,-24,8,13,-21,4,14,6,-7,-15,-13
5,-18,-24,8,13,-21,4,14,6,-7,-15,-13
5,-18,-24,8,13,-21,3,14,6,-7,-15,-13
5,-18,-24,9,13,-21,3,14,6,-7,-15,-13
4,-18,-24,9,12,-21,3,14,6,-7,-15,-13
4,-18,-24,9,12,-21,3,14,5,-7,-15,-13
4,-18,-24,9,12,-21,3,14,5,-7,-15,-13
4,-18,-24,9,12,-21,3,14,5,-7,-15,-13
4,-18,-24,9,12,-21,3,14,5,-7,-14,-13
4,-18,-24,9,12,-21,3,14,5,-7,-14,-13
4,-19,-24,9,12,-21,3,13,5,-7,-13,-13
4,-19,-24,10,12,-21,3,13,5,-7,-13,-13
4,-19,-24,10,12,-21,3,13,5,-7,-13,-13
4,-19,-24,10,12,-21,3,13,5,-7,-13,-13
4,-19,-24,10,12,-21,3,13,5,-7,-13,-13
4,-19,-24,10,12,-21,3,13,5,-7,-13,-13
4,-19,-24,9,12,-21,3,13,5,-7,-13,-13
4,-19,-24,9,12,-21,3,13,5,-7,-12,-13
4,-19,-24,9,12,-21,4,13,5,-7,-12,-13
4,-19,-24,9,12,-21,4,13,5,-7,-12,-12
4,-19,-24,9,12,-21,4,13,5,-7,-12,-12
4,-19,-24,9,12,-21,4,13,5,-7,-12,-12
4,-19,-24,9,12,-21,4,12,5,-7,-12,-12
4,-20,-24,9,12,-21,4,12,5,-7,-12,-12
4,-20,-24,9,12,-21,4,12,5,-7,-12,-12
4,-20,-24,9,13,-21,4,12,5,-7,-12,-12
4,-20,-24,9,13,-21,4,12,5,-7,-12,-12
4,-20,-24,10,13,-21,4,12,5,-7,-13,-12
4,-20,-24,10,13,-21,4,12,5,-7,-13,-12
5,-20,-25,9,13,-21,4,12,5,-7,-13,-12
5,-20,-25,9,13,-21,4,12,5,-7,-13,-12
5,-20,-25,9,13,-21,4,12,5,-7,-13,-12
5,-20,-24,9,13,-21,4,12,5,-7,-13,-12
4,-20,-24,9,12,-21,4,12,4,-7,-13,-12
4,-19,-23,9,12,-21,4,12,4,-7,-13,-12
5,-19,-23,9,12,-21,4,12,4,-7,-12,-12
5,-19,-23,9,12,-21,4,11,4,-7,-12,-12
5,-19,-23,9,12,-21,4,11,4,-7,-12,-12
5,-19,-23,9,12,-21,4,11,4,-7,-12,-12
5,-19,-23,9,12,-21,4,11,4,-7,-12,-12
5,-19,-23,9,12,-21,4,11,4,-7,-12,-12
4,-19,-23,9,12,-21,4,11,4,-6,-12,-12
4,-19,-23,9,12,-21,4,11,4,-6,-12,-12
4,-19,-23,9,12,-21,4,11,4,-6,-12,-12
4,-20,-24,9,12,-21,4,11,4,-6,-12,-12
4,-20,-24,10,12,-22,4,11,4,-6,-12,-12
4,-20,-24,10,12,-22,4,11,4,-6,-12,-12
4,-20,-24,10,12,-22,4,11,4,-6,-12,-12
4,-21,-24,10,12,-22,4,11,4,-6,-12,-12
4,-21,-24,10,13,-22,4,11,4,-6,-12,-12
4,-21,-24,10,13,-22,4,11,4,-6,-12,-12
4,-21,-24,10,12,-22,4,11,4,-6,-12,-12
4,-21,-24,10,12,-22,4,11,4,-6,-12,-12
4,-21,-24,10,11,-22,4,11,4,-6,-12,-12
4,-21,-24,10,11,-22,4,11,4,-6,-12,-12
4,-21,-24,10,11,-22,4,11,4,-6,-12,-12
4,-21,-24,11,11,-22,5,11,4,-6,-12,-12
3,-21,-23,11,11,-22,5,11,4,-5,-12,-12
3,-21,-23,11,11,-22,5,11,4,-5,-12,-12
3,-21,-23,11,11,-22,5,11,4,-5,-12,-12
3,-21,-23,11,11,-22,5,11,4,-5,-12,-12
3,-21,-23,11,11,-22,5,11,4,-5,-13,-12
3,-21,-23,11,11,-22,5,11,4,-5,-13,-12
3,-21,-23,11,11,-22,5,11,4,-5,-13,-12
3,-21,-23,10,11,-22,5,11,4,-5,-12,-12
3,-21,-23,10,11,-22,5,11,4,-5,-12,-12
3,-21,-23,10,11,-22,5,11,4,-5,-12,-12
3,-21,-23,10,11,-22,5,11,5,-6,-12,-12
3,-21,-23,10,11,-22,5,11,5,-6,-12,-12
3,-21,-23,10,11,-22,5,11,5,-6,-12,-12
4,-21,-23,10,12,-22,5,11,5,-6,-12,-12
4,-21,-23,10,12,-22,5,11,5,-6,-12,-12
4,-21,-23,10,12,-22,5,11,5,-6,-13,-12
3,-21,-23,10,12,-22,5,11,4,-5,-13,-12
3,-21,-23,10,12,-22,5,11,4,-5,-12,-12
3,-21,-23,10,12,-22,5,11,4,-5,-12,-12
3,-21,-23,11,12,-22,5,11,4,-6,-12,-12
3,-21,-23,11,12,-22,5,11,4,-6,-12,-12
3,-21,-23,11,12,-22,5,11,4,-6,-12,-12
3,-21,-23,11,12,-22,5,11,4,-6,-12,-12
3,-21,-23,11,12,-22,5,11,4,-6,-11,-12
3,-22,-23,11,12,-23,5,11,4,-6,-11,-12
3,-22,-23,11,12,-23,5,11,4,-6,-11,-12
3,-22,-23,11,11,-23,5,11,4,-6,-11,-12
3,-22,-24,11,11,-23,5,10,4,-6,-11,-12
3,-22,-24,11,11,-23,5,10,4,-6,-11,-12
3,-22,-24,11,12,-23,5,10,4,-5,-11,-12
3,-22,-24,11,12,-23,5,10,4,-5,-11,-12
3,-22,-24,11,12,-23,5,10,4,-5,-11,-12
3,-22,-24,11,12,-23,6,10,4,-4,-11,-12
3,-22,-24,11,12,-23,6,10,4,-4,-11,-12
3,-22,-24,11,12,-23,6,10,4,-4,-11,-12
3,-22,-25,11,12,-23,6,10,4,-4,-11,-12
3,-22,-25,11,12,-23,6,10,4,-4,-11,-12
3,-22,-24,11,12,-23,6,10,4,-4,-11,-12
3,-22,-24,11,12,-23,6,10,4,-5,-10,-12
3,-22,-24,11,12,-23,6,10,4,-5,-10,-12
3,-22,-24,11,12,-23,6,10,4,-5,-10,-12
3,-22,-24,11,12,-23,6,10,4,-4,-10,-12
3,-22,-24,11,12,-23,6,10,5,-4,-10,-12
3,-22,-24,11,12,-23,6,10,5,-4,-10,-12
3,-22,-24,11,12,-23,6,10,5,-4,-10,-12
3,-22,-24,11,12,-23,6,10,5,-4,-10,-12
3,-22,-24,11,12,-23,6,10,5,-3,-10,-12
3,-22,-24,11,12,-23,6,10,5,-3,-10,-12
3,-22,-24,11,12,-23,6,10,5,-3,-10,-12
3,-22,-24,11,12,-23,6,10,5,-3,-10,-12
2,-22,-24,11,12,-23,6,10,5,-3,-10,-12
2,-22,-24,11,12,-23,6,10,5,-3,-10,-12
2,-22,-24,11,12,-23,6,10,5,-3,-10,-12
2,-22,-24,11,11,-23,6,10,6,-3,-10,-12
2,-22,-24,12,11,-23,6,10,6,-3,-10,-12
2,-22,-24,12,11,-23,6,10,6,-3,-10,-12
2,-22,-24,11,11,-23,6,10,6,-3,-10,-11
2,-22,-24,11,11,-23,6,10,6,-3,-10,-11
2,-22,-24,11,11,-23,6,10,6,-3,-10,-11
2,-22,-24,11,11,-23,6,10,6,-3,-9,-11
2,-22,-24,11,11,-23,6,10,6,-3,-9,-12
2,-23,-24,11,11,-23,6,10,6,-4,-9,-12
2,-23,-24,12,11,-23,6,10,6,-4,-9,-11
3,-22,-24,11,11,-23,6,10,6,-4,-9,-11
3,-22,-24,11,11,-23,6,10,6,-4,-9,-11
3,-22,-24,11,11,-23,6,10,6,-4,-10,-11
2,-22,-24,12,11,-23,6,10,6,-4,-10,-11
2,-22,-24,12,12,-23,6,10,6,-3,-10,-11
2,-22,-24,11,12,-23,6,10,6,-3,-10,-11
2,-22,-24,11,12,-23,6,10,6,-3,-10,-11
2,-22,-24,11,12,-23,6,10,6,-3,-10,-10
2,-22,-24,11,12,-23,6,10,6,-3,-10,-10
2,-22,-24,11,12,-23,6,10,6,-3,-10,-10
2,-22,-24,11,12,-23,6,10,6,-4,-10,-11
2,-22,-24,11,12,-23,6,10,7,-4,-10,-11
2,-22,-24,11,12,-23,6,10,7,-4,-10,-11
3,-22,-24,11,12,-23,6,11,7,-4,-10,-11
3,-22,-24,11,12,-23,6,11,7,-4,-10,-11
2,-22,-24,11,12,-23,6,11,7,-4,-10,-11
2,-22,-24,11,12,-23,6,11,7,-4,-10,-11
3,-22,-24,11,12,-23,6,11,7,-4,-10,-11
3,-22,-24,10,12,-23,6,11,7,-4,-10,-11
3,-22,-24,10,12,-23,6,11,7,-4,-10,-11
3,-22,-24,10,12,-23,6,11,7,-4,-10,-11
3,-22,-24,10,12,-23,6,11,7,-4,-10,-11
3,-22,-24,10,12,-23,6,11,7,-4,-10,-11
3,-22,-24,10,12,-23,6,11,7,-4,-10,-11
2,-22,-24,11,12,-23,6,11,7,-4,-10,-11
2,-22,-24,11,12,-23,6,11,7,-4,-10,-11
2,-22,-24,11,12,-23,6,10,7,-4,-10,-11
2,-22,-24,11,12,-23,6,10,7,-4,-10,-11
3,-22,-24,11,12,-23,7,10,7,-4,-10,-11
3,-22,-24,10,12,-23,7,10,7,-4,-10,-11
3,-22,-24,10,12,-23,7,10,7,-4,-10,-11
3,-22,-24,10,12,-23,7,10,7,-4,-10,-11
3,-22,-24,10,12,-23,7,10,7,-4,-10,-11
3,-22,-24,10,12,-23,7,10,7,-4,-10,-11
3,-22,-24,10,12,-23,7,10,7,-4,-10,-11
3,-22,-24,10,12,-23,7,10,7,-4,-10,-11
3,-22,-24,10,12,-23,7,10,7,-4,-10,-11
2,-22,-23,10,11,-23,7,10,7,-4,-10,-11
2,-22,-23,10,11,-23,7,10,7,-4,-10,-11
2,-22,-23,10,11,-23,7,10,7,-4,-10,-11
2,-22,-23,10,11,-23,7,10,7,-4,-10,-11
2,-22,-23,10,11,-22,7,10,7,-4,-10,-11
2,-21,-22,10,11,-22,7,10,7,-4,-10,-11
2,-21,-22,10,11,-21,7,10,7,-4,-10,-11
2,-21,-22,10,11,-21,7,10,7,-4,-10,-11
2,-21,-22,9,11,-21,7,10,7,-4,-9,-11
2,-20,-22,9,11,-21,7,10,7,-4,-9,-11
2,-20,-22,9,11,-20,7,10,7,-4,-9,-11
2,-20,-22,9,11,-20,7,10,6,-4,-10,-11
1,-20,-22,10,11,-21,7,10,6,-4,-10,-11
2,-20,-22,10,11,-21,7,10,6,-4,-10,-11
2,-20,-22,9,11,-21,7,10,6,-3,-10,-11
2,-20,-22,9,11,-21,7,10,6,-3,-10,-11
2,-21,-22,9,11,-21,7,10,6,-3,-10,-11
2,-21,-22,9,11,-21,7,10,6,-3,-10,-11
2,-21,-22,9,11,-21,7,10,6,-3,-10,-11
2,-21,-22,10,11,-21,7,10,6,-3,-10,-11
2,-21,-22,10,11,-21,7,10,7,-3,-10,-11
2,-21,-22,10,12,-21,7,10,7,-3,-10,-11
2,-21,-22,10,11,-21,7,10,7,-3,-10,-11
2,-21,-22,10,11,-22,7,10,7,-3,-10,-11
2,-21,-22,10,11,-22,7,11,7,-3,-9,-11
2,-21,-22,10,11,-22,7,11,7,-3,-9,-11
2,-21,-22,10,11,-22,7,11,7,-3,-9,-11
2,-21,-22,10,11,-22,7,11,7,-3,-10,-11
2,-21,-22,10,11,-22,7,11,7,-3,-10,-11
2,-21,-22,10,11,-22,7,11,7,-3,-10,-11
2,-21,-22,10,11,-22,7,11,7,-3,-10,-11
2,-21,-22,10,11,-22,7,11,7,-3,-10,-11
2,-21,-22,9,11,-21,7,11,7,-3,-10,-11
3,-21,-22,9,11,-21,7,11,7,-3,-10,-11
3,-20,-22,9,11,-21,7,11,7,-3,-10,-11
3,-20,-22,9,11,-21,7,11,7,-3,-10,-11
2,-20,-22,9,11,-21,6,11,7,-3,-10,-11
2,-20,-22,10,11,-21,6,11,7,-3,-10,-11
3,-20,-22,9,11,-21,6,11,7,-3,-10,-11
3,-20,-22,9,11,-21,6,11,7,-3,-10,-11
3,-20,-22,9,11,-21,6,11,7,-3,-10,-11
3,-20,-22,9,11,-21,6,11,7,-3,-10,-11
3,-20,-22,9,11,-21,6,11,7,-3,-10,-11
3,-20,-22,9,11,-21,6,11,7,-3,-10,-11
3,-20,-22,9,11,-21,6,11,7,-3,-10,-11
3,-20,-22,9,11,-21,6,11,7,-3,-10,-11
3,-20,-22,9,11,-21,6,11,7,-3,-10,-11
3,-20,-22,9,11,-21,6,11,7,-3,-10,-11
3,-20,-22,9,11,-21,6,11,7,-3,-10,-11
3,-21,-23,9,11,-21,6,11,8,-3,-10,-11
3,-21,-23,9,11,-22,6,11,8,-3,-10,-11
2,-22,-23,10,11,-22,6,11,8,-3,-10,-11
2,-22,-23,10,11,-22,6,11,8,-3,-10,-11
2,-22,-23,10,11,-22,6,11,8,-2,-10,-11
2,-22,-23,10,11,-22,6,11,8,-2,-9,-11
2,-22,-23,10,11,-22,6,11,8,-2,-9,-11
2,-22,-23,10,11,-22,6,11,8,-2,-9,-11
2,-22,-23,10,11,-22,6,12,8,-2,-9,-11
2,-22,-23,10,11,-22,6,12,8,-2,-9,-11
2,-22,-23,10,12,-22,6,12,8,-2,-9,-11
2,-22,-23,10,12,-23,6,12,8,-2,-9,-11
2,-23,-23,10,12,-23,6,12,8,-2,-10,-11
2,-23,-23,10,12,-23,6,12,8,-2,-10,-11
2,-23,-23,11,12,-23,6,12,8,-2,-10,-11
1,-23,-23,11,12,-23,6,12,8,-2,-10,-11
1,-24,-24,12,12,-24,6,12,8,-2,-10,-11
1,-24,-24,12,12,-24,7,12,8,-2,-10,-11
1,-24,-24,12,12,-24,7,12,8,-2,-10,-11
1,-24,-24,11,12,-24,7,12,8,-2,-10,-11
1,-23,-24,11,12,-24,7,12,8,-2,-10,-11
1,-23,-24,10,12,-24,7,13,8,-2,-10,-11
1,-23,-24,10,12,-24,7,13,8,-2,-10,-11
1,-24,-24,11,12,-24,7,13,8,-3,-10,-11
1,-24,-24,11,12,-24,7,13,8,-3,-10,-11
1,-23,-24,11,12,-24,7,13,8,-3,-10,-10
1,-23,-24,11,12,-24,7,13,8,-3,-10,-10
1,-23,-24,11,12,-24,7,13,8,-2,-10,-10
1,-23,-24,11,12,-24,7,13,8,-2,-10,-11
1,-23,-24,11,12,-24,7,13,8,-2,-10,-11
1,-23,-24,11,12,-24,7,13,8,-2,-10,-11
2,-23,-24,10,12,-24,7,13,8,-2,-10,-11
2,-23,-24,10,12,-24,7,13,9,-2,-10,-11
2,-23,-25,10,12,-24,7,13,9,-2,-10,-11
2,-23,-25,10,12,-24,7,13,9,-2,-10,-11
2,-23,-25,10,12,-24,7,14,9,-2,-10,-11
2,-23,-25,10,13,-24,7,14,9,-2,-10,-11
2,-23,-25,10,13,-24,7,14,9,-1,-9,-11
2,-23,-24,9,13,-24,7,14,9,-1,-9,-11
3,-22,-24,9,13,-23,7,14,9,-1,-9,-11
3,-22,-23,9,13,-23,7,14,9,-1,-9,-10
3,-21,-23,9,12,-22,7,14,9,-1,-9,-10
3,-20,-22,8,12,-21,7,14,9,-1,-9,-10
3,-20,-22,8,12,-21,7,14,9,-1,-9,-10
3,-20,-21,8,11,-21,7,14,9,-1,-9,-10
3,-19,-21,8,11,-20,8,14,10,0,-9,-10
3,-19,-21,7,11,-20,8,15,10,0,-8,-9
3,-18,-21,7,11,-20,8,15,11,0,-8,-9
3,-18,-21,7,11,-19,8,15,11,0,-8,-9
3,-18,-21,7,11,-19,8,15,11,1,-8,-9
3,-17,-21,7,11,-19,8,15,11,1,-7,-9
3,-17,-21,7,11,-19,8,16,11,1,-7,-9
3,-17,-21,7,11,-19,8,16,11,0,-8,-9
3,-18,-21,7,11,-19,8,16,11,0,-8,-9
3,-18,-21,7,11,-20,8,16,11,0,-9,-10
3,-19,-21,7,11,-20,8,16,11,0,-9,-10
3,-19,-21,7,12,-20,8,16,11,0,-9,-10
3,-18,-21,6,12,-20,7,16,12,0,-8,-9
4,-17,-21,6,12,-20,7,16,12,0,-8,-9
5,-17,-21,5,13,-20,6,16,13,1,-8,-8
6,-17,-22,5,13,-20,5,16,13,1,-7,-8
7,-17,-23,4,14,-20,5,16,13,2,-7,-7
7,-17,-23,4,14,-20,4,16,13,2,-7,-7
8,-17,-23,4,15,-20,4,16,13,2,-7,-7
8,-17,-23,4,15,-20,4,16,13,2,-7,-7
8,-17,-23,4,15,-20,4,16,13,2,-7,-7
7,-17,-23,4,15,-20,4,17,13,2,-7,-7
7,-17,-24,5,15,-21,5,17,13,2,-8,-7
7,-18,-24,5,15,-21,5,17,13,1,-8,-7
7,-18,-24,5,15,-21,5,17,13,1,-8,-7
7,-18,-25,5,15,-22,5,16,12,1,-8,-7
7,-19,-25,6,15,-23,5,16,12,0,-9,-8
6,-20,-26,6,16,-24,5,15,11,0,-9,-8
7,-21,-27,6,16,-24,5,15,11,-1,-9,-9
7,-21,-28,6,17,-25,5,15,11,-1,-9,-9
7,-22,-28,7,17,-25,5,15,10,-2,-9,-9
6,-22,-28,7,17,-26,5,15,10,-2,-10,-10
6,-22,-28,8,17,-26,5,15,10,-2,-10,-10
5,-22,-27,9,16,-25,6,15,10,-2,-10,-10
5,-22,-26,9,15,-25,7,15,10,-2,-10,-10
4,-22,-25,9,14,-24,7,15,10,-2,-10,-10
4,-22,-25,9,13,-24,7,15,10,-2,-10,-11
3,-23,-25,10,13,-24,7,15,10,-2,-11,-11
3,-23,-25,10,13,-25,7,15,10,-2,-11,-11
2,-24,-26,11,13,-25,7,15,9,-2,-11,-11
2,-24,-26,11,13,-25,7,14,9,-3,-11,-11
2,-24,-26,11,13,-25,7,14,8,-3,-11,-11
2,-24,-26,11,13,-25,7,14,8,-3,-12,-11
2,-24,-26,11,13,-25,7,14,8,-3,-12,-11
2,-24,-26,11,13,-25,7,14,8,-3,-12,-11
2,-24,-26,11,13,-25,7,14,8,-3,-12,-12
2,-24,-26,11,13,-25,7,14,8,-3,-12,-12
2,-24,-26,11,13,-25,7,14,8,-3,-12,-12
2,-24,-26,11,13,-25,6,14,8,-3,-12,-12
2,-24,-26,11,13,-25,6,13,8,-3,-12,-12
2,-24,-26,11,13,-25,6,13,8,-3,-12,-12
2,-24,-26,11,13,-25,6,13,8,-3,-12,-12
2,-24,-26,11,13,-25,6,13,8,-3,-12,-12
3,-24,-26,10,14,-25,6,13,8,-3,-12,-12
3,-24,-26,10,14,-25,6,14,8,-3,-12,-12
3,-25,-26,11,14,-26,6,14,8,-3,-12,-12
2,-26,-27,11,14,-26,6,14,7,-3,-12,-12
2,-26,-26,11,14,-26,7,14,7,-3,-12,-12
2,-25,-26,11,14,-26,7,14,7,-3,-12,-12
2,-25,-26,12,14,-26,7,14,7,-3,-12,-12
2,-25,-26,12,14,-26,7,14,7,-3,-12,-12
1,-26,-27,12,14,-26,7,15,7,-3,-12,-13
1,-26,-27,12,14,-27,8,17,8,-3,-13,-13
1,-27,-27,12,14,-27,10,20,10,-3,-13,-14
1,-27,-26,13,13,-27,14,25,13,-3,-14,-15
0,-26,-25,13,12,-26,18,31,18,-2,-15,-16
0,-25,-24,13,11,-25,22,39,23,-1,-15,-16
1,-24,-24,11,11,-24,24,47,30,2,-13,-16
3,-21,-23,9,12,-23,26,55,38,7,-10,-14
5,-17,-22,6,13,-21,27,63,48,15,-5,-11
9,-13,-22,2,15,-18,27,74,61,24,2,-7
15,-8,-23,-3,18,-16,27,85,76,36,10,-1
22,-1,-23,-10,21,-12,25,94,92,50,21,7
29,7,-21,-18,25,-7,21,100,110,68,35,17
37,18,-18,-27,27,0,16,104,129,88,52,29
43,30,-12,-37,27,8,11,104,147,110,70,42
49,44,-4,-47,27,19,4,98,163,132,88,56
55,58,4,-56,25,31,-3,89,175,152,107,71
59,73,14,-66,22,44,-12,73,178,167,124,86
59,87,28,-73,16,58,-22,47,170,173,136,99
54,98,44,-76,5,71,-30,12,147,166,140,108
45,103,59,-74,-7,81,-36,-26,113,148,135,110
34,102,70,-68,-18,85,-39,-62,71,121,121,106
20,97,78,-59,-30,87,-43,-99,18,86,100,96
5,93,88,-49,-42,90,-48,-135,-39,47,76,84
-9,89,98,-40,-54,92,-54,-166,-90,14,54,71
-20,83,103,-31,-62,93,-60,-186,-127,-12,36,59
-27,77,104,-25,-66,90,-65,-198,-151,-30,21,50
-31,70,102,-20,-67,86,-70,-203,-163,-41,11,42
-32,63,97,-16,-65,80,-76,-204,-168,-49,3,35
-33,55,90,-12,-62,72,-82,-202,-168,-54,-2,29
-32,48,82,-9,-58,64,-88,-197,-165,-57,-7,23
-31,41,73,-6,-52,57,-91,-188,-160,-59,-12,18
-30,35,65,-3,-47,49,-92,-179,-153,-60,-15,12
-29,30,58,-1,-43,44,-91,-168,-145,-60,-18,8
-27,27,54,0,-40,40,-88,-156,-135,-58,-19,5
-25,24,51,1,-38,37,-83,-144,-125,-55,-19,2
-24,21,46,1,-35,34,-76,-131,-116,-51,-19,1
-22,19,42,1,-33,30,-68,-119,-106,-47,-19,0
-20,17,39,1,-30,27,-60,-106,-97,-43,-18,0
-19,15,36,1,-28,25,-52,-95,-88,-39,-17,-1
-18,14,33,2,-26,23,-44,-84,-79,-36,-16,-2
-18,13,31,2,-25,22,-37,-75,-72,-33,-16,-3
-17,13,30,2,-23,21,-32,-67,-65,-31,-15,-4
-16,12,29,2,-22,20,-28,-61,-59,-28,-14,-4
-15,11,27,2,-21,19,-24,-56,-55,-26,-13,-4
-14,10,25,2,-20,17,-22,-51,-50,-23,-12,-4
-13,9,24,2,-19,16,-19,-47,-46,-21,-11,-4
-12,8,22,1,-17,15,-17,-43,-43,-19,-10,-3
-11,8,20,1,-16,14,-15,-39,-39,-17,-9,-3
-11,8,19,1,-14,13,-14,-36,-37,-16,-9,-3
-10,7,17,1,-13,12,-13,-34,-35,-15,-8,-3
-9,7,17,1,-13,12,-12,-32,-32,-14,-8,-2
-9,7,16,0,-13,12,-11,-30,-30,-13,-7,-2
-8,7,16,0,-12,12,-10,-29,-28,-11,-7,-1
-8,7,16,0,-12,12,-10,-27,-26,-10,-6,-1
-8,7,15,0,-12,11,-9,-26,-25,-10,-6,-1
-8,7,15,0,-11,11,-9,-24,-24,-9,-5,-1
-7,8,15,0,-11,11,-8,-23,-23,-9,-5,0
-6,9,15,-1,-11,12,-7,-22,-22,-8,-4,0
-6,9,16,-1,-11,12,-7,-21,-21,-8,-4,0
-6,10,16,-1,-11,13,-7,-20,-20,-7,-4,0
-6,10,17,-2,-12,13,-6,-20,-19,-7,-4,0
-6,10,17,-2,-12,14,-6,-20,-19,-6,-4,0
-6,10,17,-3,-12,14,-5,-20,-18,-6,-3,0
-6,11,17,-3,-12,14,-5,-19,-18,-5,-3,0
-5,11,18,-3,-12,14,-4,-18,-17,-5,-3,0
-6,11,18,-3,-12,14,-4,-17,-17,-5,-3,0
-6,11,18,-2,-12,14,-4,-17,-17,-5,-3,0
-6,12,18,-2,-12,15,-4,-17,-17,-5,-2,1
-6,12,18,-2,-12,15,-4,-17,-16,-4,-2,1
-6,12,18,-3,-12,15,-4,-17,-16,-4,-2,1
-6,12,18,-3,-12,15,-4,-17,-15,-3,-1,1
-6,12,18,-3,-12,15,-4,-17,-15,-3,-1,1
-6,12,19,-3,-12,15,-4,-16,-15,-2,-1,1
-6,12,19,-3,-12,15,-4,-16,-14,-2,-1,1
-5,12,19,-3,-12,15,-4,-15,-14,-2,-1,2
-5,13,19,-4,-12,15,-3,-15,-13,-2,-1,2
-5,13,19,-4,-12,16,-3,-15,-13,-1,-1,2
-5,14,19,-4,-12,16,-2,-15,-13,-1,0,2
-5,14,19,-4,-12,16,-2,-15,-13,-1,0,2
-5,13,19,-4,-12,16,-2,-15,-13,-1,0,3
-5,13,19,-4,-12,16,-2,-14,-13,-1,0,3
-6,13,20,-4,-13,16,-2,-14,-13,-1,0,3
-7,13,20,-4,-13,16,-2,-14,-13,-1,0,3
-7,13,20,-3,-14,16,-3,-15,-13,-1,0,3
-7,14,21,-4,-14,17,-3,-15,-13,-1,1,3
-6,15,21,-5,-14,17,-3,-15,-13,0,1,4
-5,16,22,-5,-14,18,-3,-15,-13,0,2,4
-5,16,22,-6,-14,18,-3,-15,-13,0,2,5
-5,17,22,-6,-14,19,-3,-14,-13,0,2,5
-5,17,23,-6,-14,19,-2,-14,-13,0,2,6
-5,18,23,-7,-14,20,-2,-14,-13,0,3,6
-5,18,24,-7,-14,21,-2,-15,-13,0,3,6
-5,18,24,-7,-15,21,-2,-15,-12,0,3,6
-5,18,25,-7,-16,22,-2,-15,-12,1,3,6
-5,19,25,-7,-16,22,-2,-15,-13,1,3,6
-5,19,26,-7,-16,23,-2,-15,-13,1,3,6
-5,20,26,-8,-16,23,-2,-15,-13,2,4,6
-5,21,27,-8,-16,24,-2,-15,-13,2,4,7
-5,21,27,-8,-17,24,-2,-15,-13,2,4,7
-5,22,28,-8,-17,25,-2,-16,-13,2,4,8
-5,22,29,-9,-18,26,-2,-16,-13,2,5,8
-5,23,29,-9,-18,26,-2,-16,-13,2,5,9
-5,24,30,-10,-18,27,-2,-16,-14,2,5,9
-5,24,31,-10,-18,27,-2,-16,-14,2,6,9
-5,25,31,-10,-19,28,-3,-16,-14,2,6,9
-5,25,32,-10,-19,29,-3,-16,-15,2,6,10
-5,26,32,-10,-19,29,-4,-17,-15,2,6,10
-5,27,33,-11,-19,30,-4,-17,-15,2,6,11
-5,28,34,-11,-20,31,-4,-17,-15,2,6,11
-6,29,35,-12,-20,32,-4,-17,-15,2,7,11
-6,29,36,-12,-21,33,-4,-17,-16,2,7,11
-6,30,37,-12,-22,33,-4,-17,-16,2,8,11
-6,30,38,-13,-22,34,-4,-17,-16,3,8,12
-6,31,38,-13,-23,35,-4,-17,-16,3,8,12
-6,32,39,-13,-23,35,-4,-17,-17,3,8,13
-6,33,40,-13,-23,36,-4,-17,-17,3,9,13
-6,34,41,-13,-24,37,-4,-17,-17,3,9,14
-6,34,42,-14,-24,38,-4,-17,-17,3,10,14
-6,35,42,-14,-25,38,-4,-17,-17,3,11,15
-7,35,43,-14,-26,39,-5,-17,-18,3,11,15
-7,36,44,-15,-26,40,-5,-17,-18,4,12,16
-7,37,45,-16,-26,41,-5,-17,-18,4,13,16
-7,38,46,-16,-26,42,-5,-17,-18,5,13,17
-7,39,46,-16,-27,43,-6,-18,-18,5,13,18
-8,39,47,-16,-27,43,-6,-18,-18,6,14,18
-8,40,48,-16,-28,44,-6,-18,-18,6,15,19
-8,41,49,-16,-28,45,-6,-18,-18,6,15,19
-8,42,50,-17,-29,46,-6,-18,-19,6,16,20
-8,42,51,-17,-30,47,-6,-18,-19,7,16,20
-8,43,52,-18,-30,48,-6,-18,-19,7,17,21
-8,45,54,-19,-31,49,-6,-18,-19,8,17,21
-8,46,55,-19,-32,50,-6,-17,-19,8,18,22
-8,48,56,-20,-32,51,-6,-17,-19,9,19,23
-8,49,57,-20,-33,52,-6,-17,-19,9,20,24
-8,50,58,-21,-33,53,-6,-17,-19,9,20,24
-8,50,59,-21,-34,54,-6,-17,-19,9,21,25
-8,51,61,-22,-35,56,-6,-16,-19,10,21,25
-8,52,62,-22,-35,57,-6,-16,-19,10,22,26
-8,53,63,-23,-36,58,-6,-16,-19,11,22,27
-8,54,63,-23,-36,58,-6,-16,-19,12,23,28
-9,55,64,-23,-37,59,-6,-16,-19,13,24,29
-9,56,66,-24,-37,60,-6,-16,-19,13,25,30
-9,58,67,-24,-38,62,-6,-16,-19,14,26,31
-9,59,68,-25,-38,63,-6,-15,-19,14,27,32
-9,59,69,-26,-39,64,-6,-15,-19,15,27,32
-9,60,70,-26,-39,65,-5,-15,-19,15,28,32
-9,61,71,-27,-40,66,-5,-15,-19,16,29,33
-9,62,72,-27,-40,67,-5,-14,-19,16,29,34
-9,63,72,-28,-40,67,-5,-14,-19,17,30,34
-9,64,73,-28,-41,68,-4,-13,-19,17,30,35
-9,64,73,-28,-41,68,-4,-13,-19,17,31,35
-9,65,74,-28,-42,69,-4,-12,-18,17,31,35
-9,65,75,-29,-42,70,-3,-12,-18,18,32,35
-9,66,75,-29,-42,70,-3,-11,-18,18,32,35
-9,66,76,-29,-42,71,-3,-11,-18,19,32,35
-9,66,76,-29,-42,71,-3,-10,-18,19,32,35
-9,66,76,-29,-42,71,-2,-10,-17,19,32,35
-8,67,76,-30,-42,71,-2,-9,-17,19,32,36
-8,67,76,-30,-42,71,-1,-9,-17,19,32,36
-8,67,76,-30,-42,71,-1,-9,-17,19,32,36
-8,66,75,-30,-42,70,0,-9,-17,19,32,35
-8,65,75,-30,-42,70,0,-9,-16,19,32,35
-8,65,74,-30,-41,69,0,-9,-16,19,32,35
-8,64,73,-29,-41,69,0,-9,-16,19,32,35
-8,64,72,-29,-40,68,0,-9,-16,19,31,34
-8,63,71,-29,-40,67,1,-8,-16,19,31,34
-8,62,70,-28,-39,66,1,-8,-16,19,30,33
-7,61,69,-28,-38,65,2,-8,-15,18,30,32
-7,60,67,-27,-37,63,2,-8,-15,18,30,32
-7,58,66,-27,-36,62,3,-8,-14,18,29,31
-7,57,64,-26,-35,60,3,-7,-13,18,29,31
-6,56,62,-26,-34,59,3,-7,-12,17,29,30
-6,54,61,-25,-33,57,3,-7,-12,17,28,30
-5,53,59,-25,-32,56,3,-7,-11,16,27,29
-5,52,57,-24,-31,54,3,-7,-11,15,26,28
-5,50,55,-23,-30,52,3,-7,-10,15,26,26
-4,48,52,-22,-29,50,3,-7,-10,15,25,25
-4,46,50,-22,-27,48,3,-7,-9,14,25,24
-3,44,48,-21,-26,46,3,-6,-8,14,24,23
-2,43,45,-21,-24,43,3,-6,-7,13,23,22
-1,41,42,-21,-22,41,3,-5,-6,13,22,21
-1,39,40,-20,-21,39,3,-5,-5,13,21,20
0,37,37,-19,-19,37,2,-4,-4,12,20,19
0,35,35,-19,-17,34,2,-4,-3,11,19,18
1,33,32,-18,-15,32,2,-3,-2,11,18,16
1,30,29,-17,-14,29,2,-2,-1,10,17,15
1,27,26,-16,-12,27,2,-2,0,10,16,14
2,25,23,-15,-10,24,2,-1,1,9,15,13
3,23,20,-15,-8,22,2,0,2,9,14,12
4,22,17,-14,-7,20,2,1,3,8,13,11
5,20,15,-14,-5,18,2,2,4,8,12,10
6,19,12,-13,-4,15,1,3,5,7,11,9
6,16,10,-12,-2,13,1,4,6,7,10,7
6,14,7,-11,-1,10,0,6,8,6,9,6
6,11,5,-10,0,8,0,7,9,6,8,5
7,9,2,-9,2,6,0,8,11,6,7,4
7,7,0,-9,3,4,0,9,12,5,6,3
7,6,-2,-8,4,2,1,10,13,5,5,2
7,4,-4,-8,5,0,1,12,14,4,4,1
8,3,-5,-7,6,-1,2,13,15,4,3,0
8,1,-7,-7,8,-3,2,14,16,4,2,0
9,0,-9,-6,9,-5,2,15,17,4,1,-1
9,-3,-11,-4,9,-7,2,16,17,3,0,-2
9,-4,-12,-3,10,-8,2,17,18,3,0,-3
9,-5,-14,-3,11,-9,2,17,18,2,0,-4
10,-6,-15,-3,12,-10,2,18,18,2,-1,-4
10,-6,-16,-3,12,-11,2,19,18,1,-2,-5
10,-7,-17,-2,13,-12,2,20,18,1,-3,-5
10,-8,-17,-2,13,-13,2,20,18,0,-4,-6
10,-9,-18,-1,14,-14,3,21,19,0,-4,-7
10,-10,-19,-1,14,-15,3,21,19,0,-5,-8
9,-11,-20,0,14,-16,3,21,19,-1,-5,-8
9,-12,-20,0,14,-16,4,21,19,-1,-6,-8
9,-12,-21,0,14,-16,4,21,19,-2,-6,-8
9,-12,-21,0,15,-17,4,21,19,-2,-6,-9
9,-12,-21,0,15,-17,4,21,19,-2,-7,-9
8,-12,-21,0,15,-17,4,22,18,-3,-7,-10
8,-13,-21,0,15,-17,4,22,18,-3,-8,-10
8,-13,-21,0,15,-17,4,22,18,-3,-8,-10
8,-13,-21,1,15,-17,4,22,17,-4,-8,-11
8,-13,-21,1,14,-17,4,21,17,-4,-9,-11
8,-14,-21,2,14,-18,4,21,16,-4,-9,-11
7,-14,-21,2,14,-18,4,21,16,-4,-9,-11
7,-14,-21,3,14,-18,4,21,16,-5,-9,-12
6,-15,-21,3,13,-18,4,20,15,-5,-9,-12
6,-16,-21,4,13,-19,4,20,15,-6,-10,-13
5,-17,-21,4,13,-19,4,20,14,-6,-10,-13
5,-17,-21,5,13,-20,4,20,14,-7,-10,-14
4,-18,-21,5,12,-20,4,20,13,-7,-10,-14
4,-18,-22,5,12,-20,4,20,13,-8,-10,-14
3,-18,-22,6,12,-20,4,20,13,-8,-10,-14
3,-18,-22,6,12,-20,4,19,13,-8,-11,-14
3,-19,-22,7,12,-20,4,19,12,-8,-11,-14
3,-19,-22,6,12,-20,4,19,12,-9,-11,-14
4,-19,-22,6,12,-21,4,19,12,-9,-11,-14
4,-18,-22,6,12,-21,4,19,12,-9,-11,-14
4,-18,-22,6,12,-21,4,19,11,-9,-12,-14
4,-18,-22,6,13,-21,4,19,11,-9,-12,-14
4,-18,-22,6,13,-21,3,18,11,-9,-12,-14
4,-18,-22,6,13,-20,3,18,11,-9,-12,-14
4,-17,-22,5,13,-20,3,18,11,-9,-12,-14
4,-17,-22,5,13,-19,3,18,11,-9,-12,-14
4,-17,-21,5,13,-19,3,18,11,-9,-12,-14
5,-17,-21,5,13,-19,3,18,11,-9,-12,-14
4,-17,-21,5,13,-20,3,18,11,-9,-12,-14
4,-18,-22,5,13,-20,3,18,10,-10,-12,-15
4,-18,-22,5,13,-20,4,18,10,-10,-12,-15
4,-18,-22,5,13,-20,4,18,10,-10,-12,-15
4,-18,-22,5,13,-20,4,18,10,-10,-12,-15
4,-18,-22,6,13,-20,4,18,10,-10,-12,-15
4,-18,-22,6,13,-20,4,19,11,-10,-12,-15
4,-17,-22,5,13,-20,4,19,11,-10,-12,-15
5,-17,-22,5,13,-20,4,19,11,-10,-12,-15
5,-17,-22,5,13,-20,4,19,11,-10,-12,-15
5,-17,-22,4,13,-20,4,19,11,-10,-12,-15
5,-17,-22,4,14,-20,4,19,11,-10,-12,-15
5,-17,-22,5,14,-20,4,19,11,-10,-12,-14
4,-17,-22,5,13,-20,4,19,11,-10,-12,-14
4,-17,-22,5,13,-20,4,19,11,-10,-12,-14
4,-17,-22,5,13,-20,4,19,11,-10,-12,-14
4,-17,-22,5,13,-20,4,19,11,-10,-12,-14
4,-17,-21,5,13,-20,4,19,11,-10,-13,-14
4,-17,-21,5,12,-20,4,18,11,-10,-13,-14
4,-17,-21,5,12,-20,4,18,10,-10,-13,-14
4,-17,-21,5,12,-19,4,18,10,-10,-13,-14
4,-17,-21,5,12,-19,4,18,10,-10,-13,-14
5,-16,-21,5,12,-19,4,18,10,-10,-13,-14
5,-16,-21,5,12,-19,4,18,10,-10,-13,-14
5,-16,-21,5,12,-19,4,18,10,-10,-13,-15
4,-16,-21,5,12,-19,4,18,10,-10,-13,-15
4,-16,-21,5,12,-19,4,18,10,-10,-13,-15
4,-17,-21,5,12,-19,4,18,10,-10,-13,-15
4,-17,-21,5,12,-19,5,18,10,-10,-13,-14
4,-17,-21,5,12,-19,5,18,10,-10,-13,-14
4,-17,-21,5,12,-19,5,18,10,-10,-13,-14
4,-17,-21,5,12,-20,5,18,10,-10,-13,-14
4,-17,-21,5,13,-20,5,17,10,-10,-13,-14
4,-17,-21,5,13,-19,4,17,10,-11,-13,-14
4,-17,-21,5,13,-19,4,16,9,-11,-13,-14
4,-17,-21,5,13,-20,4,16,9,-11,-13,-14
4,-17,-21,5,13,-20,4,16,9,-11,-13,-14
4,-17,-21,6,12,-20,4,16,9,-11,-13,-13
4,-17,-21,6,12,-20,4,15,9,-11,-13,-13
4,-17,-21,6,12,-20,4,15,8,-12,-13,-13
4,-17,-21,6,12,-20,4,15,8,-12,-13,-13
4,-17,-21,6,12,-20,4,15,8,-12,-13,-13
4,-17,-21,6,12,-20,4,14,8,-12,-13,-13
4,-17,-21,6,12,-19,4,14,8,-12,-13,-13
4,-17,-21,6,12,-19,4,14,8,-11,-12,-13
4,-17,-21,6,12,-19,4,14,8,-11,-12,-13
4,-17,-21,6,12,-19,4,14,8,-11,-12,-13
4,-17,-21,6,12,-19,4,14,8,-11,-12,-13
4,-17,-21,6,12,-19,4,14,8,-11,-12,-13
4,-17,-21,6,12,-19,4,14,8,-10,-11,-13
4,-17,-21,6,12,-19,4,13,7,-10,-11,-13
3,-17,-21,6,12,-19,4,13,7,-10,-11,-13
3,-17,-21,6,12,-19,4,13,7,-10,-11,-13
4,-17,-21,6,12,-19,4,13,7,-10,-11,-13
4,-17,-21,6,12,-19,4,13,7,-10,-11,-13
4,-17,-21,6,12,-19,3,13,7,-10,-11,-13
4,-17,-21,6,12,-19,3,13,7,-10,-11,-13
3,-17,-21,6,12,-19,3,13,7,-10,-11,-13
3,-17,-21,6,12,-19,3,13,7,-10,-11,-13
3,-17,-21,5,12,-19,3,13,7,-9,-11,-12
3,-17,-20,5,12,-19,3,13,7,-9,-10,-12
4,-17,-20,5,12,-19,3,13,7,-8,-10,-12
4,-17,-20,5,12,-19,3,13,7,-8,-10,-12
4,-17,-20,5,12,-19,3,12,7,-8,-10,-12
4,-16,-20,5,12,-19,3,12,7,-8,-10,-12
4,-16,-20,5,12,-19,4,12,7,-8,-10,-12
4,-16,-20,5,12,-18,4,12,7,-8,-10,-12
3,-16,-20,5,11,-18,4,12,6,-8,-10,-12
2,-16,-19,6,11,-18,4,12,6,-8,-10,-12
2,-16,-19,6,10,-18,4,12,6,-8,-10,-12
2,-16,-19,6,10,-18,4,12,6,-8,-10,-12
2,-16,-19,6,10,-18,4,12,6,-8,-10,-11
3,-15,-19,5,10,-18,4,12,6,-8,-10,-11
3,-15,-19,5,10,-18,4,12,6,-7,-10,-11
3,-15,-19,5,10,-18,4,12,6,-7,-10,-11
3,-15,-19,5,10,-18,4,12,6,-7,-10,-11
3,-15,-18,5,10,-18,4,12,6,-6,-10,-11
3,-15,-18,5,10,-17,4,12,6,-6,-9,-11
3,-15,-18,5,10,-17,4,12,6,-6,-9,-11
3,-16,-18,5,10,-18,4,12,6,-6,-9,-11
3,-16,-19,5,10,-18,4,12,6,-6,-9,-11
3,-16,-19,5,10,-18,4,12,6,-6,-9,-11
3,-16,-19,5,10,-18,4,12,6,-6,-9,-11
2,-16,-19,6,10,-18,4,12,6,-7,-9,-11
2,-17,-19,6,10,-18,4,12,6,-7,-10,-11
2,-17,-19,6,10,-18,4,12,6,-7,-10,-11
2,-16,-19,6,10,-18,4,12,6,-7,-10,-11
2,-16,-19,6,10,-18,4,12,6,-7,-10,-11
2,-16,-18,6,10,-18,4,11,6,-7,-10,-12
2,-16,-18,6,10,-18,4,11,6,-7,-10,-12
2,-16,-18,6,10,-18,4,11,6,-6,-9,-11
2,-16,-18,6,10,-18,4,11,6,-6,-9,-11
1,-16,-18,6,10,-18,4,11,6,-6,-9,-11
1,-16,-18,6,10,-18,4,11,6,-6,-9,-11
2,-16,-18,6,10,-17,4,11,6,-6,-8,-10
2,-15,-18,6,10,-17,4,11,6,-6,-8,-10
2,-15,-18,6,9,-17,4,11,6,-6,-8,-10
1,-16,-18,7,9,-18,4,11,6,-7,-8,-10
1,-16,-18,7,9,-18,4,11,6,-7,-8,-10
1,-16,-17,7,9,-17,4,11,6,-7,-8,-10
1,-16,-17,7,9,-17,4,11,6,-7,-7,-10
1,-15,-17,6,9,-16,4,11,6,-7,-7,-10
1,-15,-17,6,9,-16,4,11,6,-7,-7,-10
1,-15,-16,7,8,-16,4,11,6,-7,-8,-10
1,-15,-16,7,8,-16,4,11,6,-7,-8,-10
1,-15,-16,7,8,-16,4,11,7,-7,-8,-10
1,-15,-16,7,8,-16,4,11,7,-7,-8,-10
1,-15,-16,7,8,-16,4,11,6,-7,-8,-10
1,-15,-16,6,8,-16,4,11,6,-7,-8,-10
1,-15,-16,6,9,-16,3,11,6,-7,-8,-10
1,-15,-16,6,9,-16,3,11,6,-7,-8,-9
1,-15,-16,6,9,-16,3,11,6,-7,-8,-9
1,-15,-16,6,9,-17,3,11,6,-7,-8,-9
1,-15,-16,6,9,-17,3,11,6,-7,-7,-9
1,-15,-17,6,9,-17,3,11,6,-7,-7,-9
1,-15,-17,6,9,-17,3,11,6,-7,-7,-8
1,-15,-17,6,9,-17,3,11,6,-7,-7,-8
1,-15,-17,6,9,-17,3,11,6,-7,-7,-8
1,-15,-17,6,9,-17,3,11,6,-7,-7,-8
1,-15,-17,6,9,-17,4,11,6,-7,-7,-8
1,-15,-17,6,9,-17,4,11,6,-7,-7,-8
1,-15,-17,6,9,-17,4,11,6,-7,-7,-8
1,-15,-17,6,9,-17,4,11,6,-7,-7,-8
1,-15,-17,6,9,-16,4,11,6,-7,-7,-8
1,-15,-17,6,9,-16,4,11,6,-7,-7,-8
1,-14,-16,6,9,-16,4,11,6,-6,-7,-8
1,-14,-16,6,8,-15,4,11,6,-6,-7,-8
0,-14,-15,6,8,-15,4,11,6,-5,-7,-8
0,-14,-15,6,8,-15,4,11,6,-5,-6,-8
0,-14,-15,6,8,-15,4,11,7,-4,-6,-7
0,-14,-15,6,8,-15,4,11,7,-4,-6,-7
0,-15,-15,6,8,-15,4,11,7,-4,-6,-7
0,-15,-15,6,8,-15,4,11,7,-4,-6,-7
0,-15,-15,6,8,-15,4,11,7,-4,-6,-7
0,-15,-15,7,8,-15,4,11,7,-4,-6,-7
0,-15,-15,7,7,-15,4,11,7,-4,-6,-7
0,-15,-14,7,7,-15,4,11,7,-4,-6,-7
0,-15,-14,7,7,-15,4,11,7,-4,-6,-7
0,-15,-14,7,7,-15,4,11,7,-4,-6,-7
-1,-15,-14,7,7,-15,4,11,7,-4,-6,-7
-1,-14,-14,7,7,-14,4,11,7,-4,-6,-7
0,-14,-14,6,7,-14,4,11,7,-4,-6,-6
0,-14,-14,6,7,-14,4,11,7,-4,-6,-6
0,-14,-14,6,6,-14,4,10,7,-4,-6,-6
-1,-14,-13,7,6,-14,4,10,7,-4,-6,-6
-1,-14,-13,7,6,-14,4,10,7,-3,-6,-6
-1,-14,-13,7,5,-14,4,10,7,-3,-6,-6
-1,-14,-13,7,5,-14,4,10,7,-3,-6,-6
-1,-14,-13,7,6,-14,4,10,7,-3,-6,-6
-1,-14,-13,7,6,-14,4,10,7,-3,-6,-7
-1,-14,-13,8,6,-14,4,10,7,-3,-6,-7
-1,-13,-12,7,6,-14,3,10,7,-3,-6,-7
0,-13,-12,7,6,-14,3,10,7,-2,-6,-6
0,-13,-12,6,6,-14,3,10,7,-2,-5,-6
0,-13,-12,6,6,-14,3,10,7,-2,-5,-5
0,-13,-13,6,6,-14,3,10,7,0,-5,-5
-1,-14,-13,7,6,-14,3,10,7,6,-5,-5
-1,-14,-13,7,6,-14,3,10,7,16,-5,-5
-1,-14,-13,7,6,-14,3,10,7,20,-5,-5
-1,-14,-13,7,6,-14,3,10,7,15,-5,-5
-1,-14,-13,7,6,-14,3,10,7,8,-5,-5
-1,-15,-13,7,6,-14,3,10,7,4,-5,-5
-1,-14,-13,7,6,-14,3,10,8,1,-4,-5
-1,-14,-13,6,6,-14,3,10,8,0,-4,-5
-1,-14,-12,7,6,-13,3,10,8,-1,-4,-5
-2,-14,-12,7,6,-13,3,10,8,-2,-4,-5
-2,-13,-12,7,6,-13,3,10,8,-3,-4,-5
-1,-13,-12,7,6,-13,3,10,8,-4,-4,-5
-1,-13,-12,7,6,-13,3,10,8,-4,-4,-5
-2,-13,-12,7,5,-13,3,10,8,-3,-3,-5
-2,-13,-12,7,5,-13,3,10,8,-3,-3,-5
-2,-13,-12,7,5,-13,3,10,8,-3,-3,-5
-1,-13,-12,7,5,-13,3,10,8,1,-3,-5
-1,-13,-12,7,5,-13,3,10,8,14,-3,-5
-1,-13,-12,7,5,-13,3,10,8,27,-3,-5
-1,-13,-13,7,6,-14,3,10,8,30,-3,-5
-1,-13,-13,7,6,-14,4,10,8,27,-2,-5
-2,-14,-12,7,6,-14,4,10,8,25,-2,-4
-2,-14,-12,7,6,-14,4,11,8,30,-2,-4
-1,-14,-13,7,6,-14,4,11,8,36,-2,-4
-1,-14,-13,7,6,-14,4,11,8,37,-2,-4
-1,-14,-13,7,6,-14,4,11,8,35,-2,-4
-1,-14,-13,7,6,-13,4,11,8,34,-2,-4
-1,-14,-13,7,6,-13,4,11,8,35,-2,-4
-1,-14,-13,7,6,-13,4,11,8,34,-1,-4
-1,-14,-13,7,6,-14,4,11,8,27,-1,-4
0,-14,-13,7,6,-14,4,11,8,17,-1,-4
0,-14,-13,7,6,-14,4,11,8,12,-1,-4
-1,-14,-14,7,6,-14,4,11,8,10,-1,-4
-1,-14,-14,7,6,-14,4,11,8,7,-1,-4
-1,-14,-14,7,6,-14,4,11,8,5,-1,-4
0,-14,-15,7,7,-14,4,11,8,5,-1,-4
0,-14,-15,6,7,-14,4,11,8,4,-1,-4
0,-14,-14,7,7,-14,3,10,8,3,-1,-4
0,-14,-14,7,7,-14,3,10,8,2,-1,-4
0,-13,-14,6,7,-14,3,10,8,1,-1,-4
0,-13,-14,6,7,-13,3,10,8,0,-1,-3
0,-12,-14,6,7,-13,3,10,8,-1,-1,-3
0,-12,-14,6,7,-13,3,9,8,-1,-1,-3
0,-13,-14,6,7,-13,3,9,8,-2,-1,-3
0,-13,-13,6,7,-13,3,9,9,-2,-1,-3
0,-13,-13,6,7,-13,3,10,9,-2,-1,-3
0,-13,-13,6,7,-13,3,10,9,-1,-1,-3
0,-14,-13,7,6,-14,3,10,9,-1,-1,-3
0,-14,-14,7,6,-14,3,10,9,-1,0,-2
0,-14,-14,7,7,-14,3,10,9,0,0,-2
0,-14,-14,7,7,-14,3,10,10,0,0,-2
0,-14,-14,7,7,-14,3,10,10,0,0,-2
0,-14,-14,7,7,-14,3,10,10,0,0,-2
0,-14,-14,7,7,-14,3,10,9,0,0,-2
0,-14,-14,7,7,-14,4,10,9,0,0,-2
0,-14,-14,7,7,-14,4,10,9,1,0,-2
0,-13,-14,7,7,-14,4,10,9,1,0,-2
0,-13,-14,7,7,-14,4,10,10,1,0,-2
-1,-14,-14,7,7,-14,4,10,10,1,1,-1
-1,-14,-14,7,7,-14,4,10,10,1,1,-1
-1,-14,-14,7,7,-14,4,10,10,2,1,-1
-1,-15,-14,8,6,-15,4,10,10,2,1,-1
-1,-15,-14,8,6,-15,4,10,10,2,2,0
0,-14,-14,7,7,-15,4,10,10,2,2,0
-1,-15,-14,7,7,-15,4,10,10,2,2,0
-1,-15,-14,8,6,-15,4,10,10,3,2,0
-1,-15,-14,8,6,-15,4,10,10,3,2,0
-1,-15,-15,8,7,-15,4,10,10,3,2,0
-1,-15,-15,8,7,-15,4,10,10,3,2,0
-1,-15,-15,8,7,-15,4,10,10,3,2,0
-1,-15,-15,8,7,-15,4,10,10,3,2,0
-1,-15,-15,8,7,-15,4,10,10,4,2,0
-1,-15,-15,8,7,-15,4,10,10,4,2,0
-1,-15,-15,8,7,-15,4,10,10,4,2,0
-1,-15,-15,8,7,-15,4,10,10,3,2,0
-1,-15,-15,8,7,-15,4,10,10,2,2,0
-1,-15,-15,8,7,-15,4,10,10,2,2,0
-1,-15,-15,8,7,-16,4,10,10,2,2,0
-1,-15,-15,8,7,-16,4,10,10,1,2,0
-1,-15,-15,8,7,-16,4,10,10,4,2,0
-1,-15,-15,8,7,-16,4,9,10,14,2,0
-1,-15,-15,8,7,-16,5,9,10,24,2,0
-1,-15,-15,7,7,-16,5,9,10,24,2,1
-1,-14,-15,7,7,-15,5,9,10,16,2,1
-1,-14,-15,7,7,-15,5,9,10,10,2,1
-1,-14,-15,7,7,-15,5,10,10,7,2,1
-1,-14,-15,7,7,-15,5,10,10,6,2,1
-1,-14,-15,7,7,-15,5,10,10,5,2,1
-1,-14,-15,7,7,-15,5,10,10,4,2,1
-1,-14,-15,8,7,-15,5,10,10,3,2,1
-2,-14,-14,8,7,-15,5,10,10,2,2,1
-2,-14,-14,8,7,-15,5,10,10,2,2,1
-2,-14,-14,8,7,-15,5,10,10,2,2,1
-2,-14,-14,8,7,-15,5,10,10,2,2,1
-2,-14,-14,8,6,-15,5,10,10,2,2,1
-2,-14,-14,8,6,-14,5,10,10,2,2,1
-2,-14,-14,8,6,-14,5,10,10,4,2,1
-2,-14,-14,8,6,-14,5,10,10,7,2,1
-2,-14,-14,8,6,-14,5,10,10,8,2,1
-2,-14,-14,8,6,-14,5,10,10,7,2,1
-2,-14,-14,8,6,-14,5,10,10,5,2,1
-2,-14,-14,8,6,-15,5,10,10,5,2,2
-2,-15,-14,9,6,-15,5,10,10,4,2,2
-2,-15,-14,9,6,-15,5,10,10,4,2,2
-2,-15,-14,9,6,-15,5,10,10,4,2,2
-2,-15,-14,9,6,-15,4,10,10,3,3,2
-2,-15,-14,9,6,-15,4,10,10,3,3,2
-2,-15,-14,8,6,-15,4,10,11,3,3,2
-2,-15,-14,8,6,-15,4,10,11,4,3,2
-2,-16,-14,9,6,-15,4,10,11,4,3,2
-2,-16,-14,9,6,-15,5,10,11,5,3,2
-2,-16,-14,9,6,-15,5,10,11,6,3,2
-2,-16,-14,9,6,-15,5,10,11,6,3,2
-2,-16,-15,9,6,-15,6,10,11,6,3,2
-2,-16,-15,9,6,-15,6,10,11,5,3,2
-2,-16,-15,9,6,-16,6,10,11,5,3,2
-2,-17,-15,9,6,-16,6,10,11,5,3,2
-2,-17,-15,9,6,-16,6,10,11,5,3,2
-2,-17,-15,9,7,-16,6,10,11,6,3,2
-2,-17,-15,9,7,-16,6,10,11,7,3,2
-2,-17,-15,9,7,-16,6,10,11,8,3,2
-2,-17,-15,10,7,-16,6,10,11,8,3,3
-2,-17,-15,10,7,-16,6,10,11,7,3,3
-2,-17,-15,10,7,-16,5,10,11,6,3,3
-2,-17,-15,10,7,-16,5,10,11,5,3,3
-2,-17,-15,10,7,-17,5,10,11,5,3,3
-2,-17,-15,9,7,-17,5,10,11,4,3,3
-2,-17,-15,9,7,-17,5,10,11,4,3,3
-2,-17,-16,9,7,-17,5,10,11,3,3,3
-2,-17,-16,9,7,-17,6,10,11,3,3,3
-2,-17,-16,9,7,-17,6,10,12,3,4,3
-2,-17,-16,9,7,-17,6,10,12,3,4,3
-2,-17,-16,10,7,-17,6,10,12,3,4,3
-3,-17,-15,10,6,-17,6,10,12,3,4,3
-3,-17,-15,10,6,-17,6,11,12,3,4,3
-3,-17,-14,10,6,-16,6,11,12,3,4,3
-3,-16,-14,10,6,-16,6,11,12,3,4,3
-3,-15,-14,9,6,-15,6,11,12,3,4,3
-3,-15,-14,9,6,-14,6,11,12,4,4,3
-2,-15,-13,9,5,-14,6,11,13,4,4,3
-2,-14,-13,8,5,-14,6,11,13,5,4,3
-2,-13,-12,7,5,-13,6,11,13,5,4,3
-2,-12,-10,7,5,-12,6,12,14,5,4,4
-1,-11,-10,6,5,-11,6,12,14,5,5,4
-1,-10,-9,6,5,-11,6,12,14,6,5,4
-1,-10,-9,6,4,-10,6,12,14,6,5,4
-1,-10,-9,6,4,-10,6,12,15,6,5,4
-1,-10,-9,6,3,-10,6,12,15,7,5,4
-2,-11,-9,7,3,-10,6,12,15,7,5,4
-2,-11,-9,6,4,-10,7,12,15,7,5,4
-1,-11,-9,6,4,-11,7,12,15,7,4,4
-1,-11,-10,6,5,-12,7,12,15,7,4,4
-1,-12,-11,7,5,-13,7,12,15,7,4,4
-1,-12,-12,7,5,-13,6,12,15,8,5,4
-1,-12,-12,7,5,-13,6,12,15,8,5,4
0,-11,-12,6,5,-12,5,12,16,8,6,5
1,-10,-12,5,6,-12,4,12,16,9,7,5
2,-10,-12,4,7,-12,3,12,16,9,7,6
2,-9,-12,3,8,-11,2,12,16,9,7,6
2,-9,-12,3,8,-11,2,13,16,9,8,6
2,-10,-12,3,8,-11,2,13,16,9,8,6
2,-10,-13,3,8,-12,2,13,16,9,7,6
2,-9,-13,3,8,-12,2,13,17,9,7,6
3,-9,-14,3,8,-12,2,13,17,9,7,6
3,-9,-14,3,8,-12,2,13,17,9,7,6
3,-10,-14,4,8,-13,2,13,16,8,6,6
2,-11,-14,4,8,-13,2,12,16,8,6,6
2,-12,-14,5,9,-14,2,12,15,7,5,6
2,-12,-15,5,9,-14,2,12,15,7,5,5
2,-13,-16,5,9,-15,2,12,14,6,5,5
2,-13,-16,5,9,-15,3,12,14,6,5,4
1,-14,-16,6,9,-16,3,11,13,5,5,4
1,-14,-16,7,9,-16,3,11,13,5,4,3
1,-14,-16,7,9,-16,3,10,13,4,4,3
0,-14,-15,7,8,-16,4,10,13,4,4,3
0,-14,-14,7,7,-15,4,10,13,4,4,3
0,-14,-14,8,7,-15,4,10,13,4,4,3
-1,-15,-13,8,6,-15,4,10,13,4,4,3
-2,-15,-13,9,6,-15,4,10,13,4,4,3
-2,-15,-13,9,5,-15,4,10,13,4,4,3
-2,-15,-13,9,5,-15,4,10,12,3,3,3
-2,-16,-14,10,5,-16,4,10,12,3,3,3
-2,-16,-14,10,6,-16,4,10,11,2,2,2
-3,-17,-15,10,6,-17,4,10,11,1,2,2
-3,-17,-15,10,6,-17,4,10,10,1,1,2
-3,-17,-15,10,6,-17,4,10,10,1,1,2
-3,-17,-15,10,6,-17,4,10,10,1,1,2
-3,-18,-15,10,6,-17,4,10,10,1,1,2
-3,-18,-15,10,6,-17,4,10,10,1,1,2
-3,-18,-15,10,6,-17,4,10,10,2,1,2
-4,-18,-15,11,6,-17,4,10,10,2,1,2
-4,-18,-15,11,6,-17,4,10,10,2,1,1
-4,-18,-15,11,6,-17,4,10,11,2,1,1
-3,-19,-15,11,6,-18,4,10,11,3,1,1
-3,-19,-15,11,6,-18,4,10,11,3,1,1
-3,-19,-15,11,6,-18,5,10,11,3,1,1
-4,-19,-15,12,6,-18,5,10,10,3,1,1
-4,-19,-16,12,6,-18,5,10,10,3,1,1
-4,-19,-16,12,6,-18,5,10,10,3,1,1
-3,-19,-16,11,6,-17,5,10,10,3,1,1
-3,-19,-16,11,6,-17,5,10,10,3,1,1
-3,-19,-16,11,6,-18,5,10,10,3,1,1
-3,-19,-16,11,6,-18,5,10,10,3,1,1
-3,-19,-17,11,7,-18,6,11,11,3,1,1
-3,-19,-17,11,7,-18,8,14,13,3,0,1
-3,-20,-17,12,7,-18,10,18,15,3,0,0
-4,-20,-17,12,6,-19,13,23,19,3,0,-1
-4,-20,-16,12,6,-18,17,29,23,4,-1,-2
-4,-19,-15,12,5,-18,21,36,29,6,0,-2
-3,-17,-15,10,5,-16,23,44,36,10,1,-1
-1,-14,-14,7,6,-14,24,51,45,16,5,1
2,-10,-13,4,7,-12,24,60,56,24,11,4
7,-6,-13,0,9,-10,24,70,70,34,18,9
13,0,-14,-6,13,-7,23,80,85,47,27,15
20,7,-13,-13,17,-3,20,88,101,62,40,23
27,16,-11,-21,19,2,16,92,119,80,55,35
33,27,-6,-30,20,10,11,94,137,102,73,47
39,41,0,-40,19,20,6,91,153,126,92,61
45,55,9,-50,18,32,-1,85,167,149,112,76
50,70,18,-60,16,44,-9,75,176,169,131,91
53,85,31,-69,10,58,-19,56,175,182,146,106
51,99,47,-75,1,73,-28,28,162,184,156,118
45,108,64,-76,-10,85,-35,-7,135,173,156,124
35,112,77,-73,-21,93,-40,-43,98,150,146,123
23,109,86,-65,-32,97,-43,-77,53,117,127,115
8,103,94,-55,-43,98,-47,-112,-2,77,102,102
-6,98,103,-45,-55,100,-52,-145,-60,36,76,88
-19,93,111,-37,-65,102,-57,-172,-107,2,52,75
-29,87,115,-29,-72,101,-62,-188,-140,-23,33,62
-35,81,115,-23,-75,97,-67,-197,-160,-40,19,52
-37,74,112,-18,-75,92,-72,-200,-171,-51,9,43
-38,67,106,-14,-72,86,-77,-200,-175,-58,2,36
-38,59,98,-10,-68,78,-83,-197,-174,-62,-3,30
-38,51,88,-7,-63,69,-88,-191,-170,-65,-8,25
-37,44,79,-4,-58,61,-91,-182,-164,-66,-13,19
-35,38,71,-1,-53,54,-91,-173,-156,-66,-16,15
-34,33,65,0,-49,49,-90,-163,-147,-65,-18,11
-32,31,61,1,-46,45,-86,-152,-137,-62,-19,9
-30,28,58,1,-44,42,-81,-140,-126,-57,-18,7
-28,27,55,1,-41,40,-74,-128,-116,-53,-17,6
-26,25,51,1,-39,37,-67,-116,-106,-48,-16,6
-25,24,48,1,-36,35,-60,-105,-96,-44,-14,6
-24,23,45,1,-34,33,-52,-94,-88,-40,-13,6
-23,22,42,1,-32,32,-45,-83,-80,-36,-11,6
-22,21,40,1,-31,30,-39,-74,-72,-33,-10,5
-21,20,38,1,-30,29,-34,-67,-66,-30,-9,5
-20,19,37,1,-29,27,-30,-61,-60,-27,-8,5
-19,18,36,1,-28,26,-27,-56,-55,-25,-7,5
-18,17,35,1,-27,25,-24,-52,-50,-22,-6,5
-17,16,33,0,-25,24,-22,-48,-46,-20,-4,5
-16,15,31,0,-24,23,-20,-45,-43,-18,-3,6
-16,14,29,0,-23,22,-19,-42,-40,-16,-2,6
-16,13,28,1,-22,20,-17,-39,-38,-15,-1,7
-16,13,27,1,-21,20,-16,-36,-35,-14,-1,7
-15,13,26,1,-21,19,-15,-34,-33,-13,-1,8
-14,13,26,1,-20,19,-14,-33,-31,-11,0,8
-13,13,26,0,-20,19,-13,-31,-29,-10,1,8
-13,13,26,0,-19,19,-13,-30,-27,-8,1,8
-12,13,25,0,-19,19,-12,-29,-26,-7,2,8
-12,14,25,-1,-18,19,-12,-27,-25,-6,2,9
-12,14,25,-1,-18,19,-11,-26,-24,-6,3,9
-12,15,25,-1,-18,19,-11,-24,-23,-5,3,9
-11,15,26,-2,-18,20,-11,-23,-22,-5,3,9
-11,15,26,-2,-19,20,-10,-23,-21,-4,3,9
-12,15,27,-2,-19,20,-10,-23,-20,-4,3,9
-12,15,27,-2,-19,20,-9,-23,-19,-4,3,9
-12,16,28,-2,-20,21,-9,-23,-19,-3,3,9
-12,16,28,-2,-20,21,-9,-22,-19,-3,3,9
-12,17,28,-2,-20,21,-8,-22,-19,-3,3,9
-12,17,28,-2,-20,21,-8,-21,-18,-3,3,9
-11,17,28,-2,-20,21,-8,-21,-17,-2,3,9
-11,17,28,-3,-20,22,-8,-21,-17,-2,3,9
-11,18,28,-3,-19,22,-8,-21,-16,-1,3,9
-11,18,28,-3,-19,22,-8,-21,-16,-1,3,9
-11,18,28,-3,-20,22,-8,-20,-16,-1,4,9
-11,18,28,-3,-20,22,-8,-20,-16,0,4,9
-11,18,28,-3,-20,22,-8,-20,-16,0,4,9
-11,18,28,-3,-20,23,-8,-20,-16,0,4,9
-11,18,28,-4,-20,23,-7,-20,-16,0,4,9
-11,19,28,-4,-20,23,-7,-20,-16,0,4,9
-11,19,29,-4,-20,23,-8,-20,-16,0,4,9
-11,19,29,-4,-20,23,-8,-20,-16,0,4,9
-11,20,30,-4,-20,24,-8,-20,-16,0,4,9
-11,20,30,-4,-20,24,-8,-20,-16,0,4,9
-11,21,30,-4,-20,25,-8,-20,-16,0,4,9
-10,21,30,-5,-20,25,-8,-20,-15,0,4,9
-9,22,30,-6,-20,25,-8,-20,-15,0,4,9
-9,22,30,-6,-20,26,-8,-20,-15,0,5,9
-10,22,31,-6,-20,26,-8,-20,-15,0,5,10
-10,22,31,-6,-20,26,-8,-20,-15,0,5,10
-10,22,31,-6,-20,26,-8,-20,-15,0,6,11
-10,22,31,-6,-20,26,-8,-20,-15,1,6,11
-10,23,32,-6,-21,27,-8,-20,-15,1,6,11
-10,23,32,-6,-21,27,-8,-20,-15,1,6,11
-10,23,32,-6,-21,27,-8,-20,-15,1,6,11
-10,23,33,-6,-22,27,-8,-20,-16,1,7,12
-10,24,33,-6,-22,28,-8,-20,-16,1,7,12
-9,25,34,-7,-22,28,-7,-20,-16,1,7,13
-9,25,34,-8,-22,29,-7,-20,-16,1,7,13
-9,26,34,-8,-22,29,-8,-20,-16,1,7,13
-9,26,34,-8,-22,30,-8,-20,-16,1,8,14
-9,27,35,-8,-22,30,-8,-20,-16,2,8,14
-9,27,35,-9,-22,31,-8,-20,-16,2,9,14
-9,28,36,-9,-22,31,-8,-20,-16,2,9,14
-9,28,37,-9,-23,32,-8,-20,-16,2,10,14
-9,29,37,-10,-23,32,-8,-20,-16,2,10,14
-9,29,38,-10,-24,33,-8,-20,-17,2,10,15
-9,30,39,-10,-24,33,-8,-20,-17,2,10,15
-9,31,39,-11,-24,34,-8,-20,-17,3,10,15
-9,32,40,-11,-25,35,-9,-21,-17,3,11,15
-9,32,40,-11,-25,36,-9,-21,-17,3,11,15
-9,33,41,-11,-26,36,-9,-21,-18,3,11,15
-9,33,42,-11,-26,37,-9,-22,-18,3,11,16
-9,34,43,-12,-26,37,-9,-22,-18,3,11,16
-9,34,44,-12,-26,38,-9,-22,-18,3,11,17
-10,35,45,-12,-27,39,-10,-22,-19,3,11,17
-10,35,46,-12,-28,40,-10,-22,-19,3,11,18
-10,37,47,-13,-28,41,-10,-22,-19,3,11,18
-10,38,47,-14,-28,42,-10,-22,-19,3,12,19
-10,39,48,-14,-29,42,-10,-22,-20,3,12,19
-10,39,48,-14,-30,43,-10,-23,-20,3,12,20
-11,39,49,-14,-30,43,-10,-23,-20,3,12,20
-11,40,50,-14,-31,44,-10,-23,-21,3,13,20
-11,41,51,-14,-31,45,-10,-23,-21,3,14,20
-11,41,52,-14,-31,46,-10,-23,-21,3,14,21
-11,42,53,-15,-32,47,-11,-23,-21,4,15,21
-11,42,53,-15,-32,47,-11,-23,-21,4,15,22
-11,43,54,-15,-33,48,-11,-23,-21,5,15,22
-11,44,55,-15,-34,48,-11,-23,-22,5,16,23
-11,45,55,-16,-34,49,-11,-23,-22,6,16,23
-11,46,56,-17,-34,50,-11,-23,-22,6,17,24
-11,47,57,-17,-34,51,-11,-23,-22,7,18,24
-11,48,59,-17,-35,52,-11,-23,-22,7,18,25
-12,49,60,-18,-36,54,-11,-23,-22,7,19,25
-12,49,61,-18,-36,55,-11,-23,-22,7,19,26
-12,50,62,-18,-37,55,-11,-23,-23,8,19,26
-12,52,63,-19,-37,56,-11,-23,-23,8,20,27
-12,53,65,-19,-38,58,-11,-22,-23,8,20,27
-12,54,66,-20,-39,59,-11,-22,-23,8,21,28
-12,55,67,-21,-39,60,-11,-22,-23,9,22,29
-12,56,68,-22,-40,61,-11,-22,-23,9,22,29
-12,57,69,-23,-40,62,-11,-22,-23,9,23,30
-12,58,70,-24,-40,64,-11,-22,-23,10,23,31
-12,60,71,-24,-41,65,-11,-22,-23,10,24,31
-12,61,72,-24,-42,66,-11,-22,-24,11,24,32
-12,61,73,-24,-43,67,-11,-22,-24,12,24,32
-12,62,74,-25,-43,67,-10,-22,-24,13,25,33
-12,64,75,-26,-44,68,-10,-22,-24,13,26,34
-12,65,76,-26,-44,69,-10,-21,-24,14,27,34
-13,65,76,-26,-44,70,-10,-21,-24,14,27,35
-13,66,77,-27,-45,71,-10,-20,-24,14,27,35
-13,66,78,-27,-45,72,-10,-20,-24,15,28,36
-13,67,79,-27,-45,72,-10,-19,-24,15,28,36
-13,68,80,-27,-46,73,-10,-19,-24,15,29,36
-13,68,80,-27,-46,73,-10,-19,-24,15,29,36
-13,69,81,-27,-47,73,-10,-19,-24,16,29,37
-13,69,81,-27,-47,74,-9,-18,-24,16,30,37
-13,70,82,-28,-48,75,-9,-18,-24,16,30,37
-13,71,83,-28,-48,76,-9,-17,-24,16,30,37
-13,71,83,-29,-48,76,-8,-17,-23,16,30,37
-13,71,83,-29,-48,76,-8,-17,-23,17,30,37
-13,71,83,-29,-48,76,-7,-16,-23,17,30,37
-13,71,83,-29,-48,76,-7,-16,-23,17,30,37
-13,70,83,-29,-48,75,-7,-16,-23,17,30,37
-13,70,82,-29,-47,75,-7,-16,-23,17,30,37
-12,70,81,-29,-47,74,-6,-15,-23,17,30,36
-12,69,80,-29,-46,74,-6,-15,-23,17,30,36
-12,69,79,-29,-45,73,-5,-15,-23,17,30,36
-12,68,78,-29,-45,73,-5,-15,-22,17,29,36
-11,67,77,-28,-44,72,-5,-15,-22,17,29,35
-11,66,76,-28,-43,71,-5,-15,-21,16,29,35
-11,65,75,-28,-42,69,-5,-15,-21,16,28,34
-10,64,74,-27,-42,68,-4,-15,-20,15,28,33
-10,63,72,-27,-41,66,-4,-15,-20,15,28,33
-10,61,70,-26,-40,65,-3,-15,-20,15,27,32
-10,59,68,-25,-39,63,-3,-15,-19,15,27,32
-10,58,66,-24,-38,62,-3,-15,-19,15,26,31
-10,56,64,-23,-37,60,-2,-15,-18,15,26,31
-9,55,62,-23,-35,58,-2,-15,-17,14,25,30
-9,53,60,-22,-34,56,-2,-15,-17,14,24,29
-8,51,58,-22,-32,53,-2,-15,-16,13,23,27
-8,49,55,-21,-31,51,-2,-15,-15,13,22,26
-7,47,53,-20,-30,49,-2,-14,-15,12,21,25
-6,45,50,-20,-29,47,-3,-14,-14,12,20,24
-5,43,47,-19,-26,44,-3,-13,-13,12,19,23
-5,41,44,-18,-24,42,-4,-13,-12,11,18,22
-4,39,41,-18,-22,39,-4,-12,-11,11,18,21
-3,37,39,-17,-20,37,-4,-12,-10,10,17,20
-3,35,36,-16,-19,34,-4,-11,-9,9,16,19
-2,33,34,-15,-18,32,-4,-11,-8,8,15,18
-2,31,31,-15,-17,30,-4,-10,-7,8,14,17
-1,29,29,-14,-15,28,-4,-9,-5,7,13,16
0,27,26,-14,-13,26,-4,-8,-4,7,12,15
0,25,23,-13,-11,23,-4,-7,-2,6,11,13
1,23,20,-12,-9,20,-4,-6,-1,6,10,12
1,21,18,-12,-7,18,-4,-4,0,6,9,11
2,19,15,-11,-5,15,-4,-3,2,5,8,10
2,16,12,-10,-4,13,-4,-2,3,5,7,9
2,14,10,-9,-3,11,-4,0,5,5,6,8
3,12,7,-8,-2,8,-4,0,6,5,5,7
4,10,5,-7,0,6,-4,2,7,4,4,6
5,9,2,-7,1,4,-3,3,8,4,3,5
5,7,0,-7,3,2,-3,4,9,4,2,4
5,6,-1,-6,4,0,-3,5,9,3,1,2
5,4,-3,-5,5,-1,-3,6,10,3,0,1
5,2,-4,-4,5,-2,-3,7,11,3,-1,0
5,1,-6,-3,6,-3,-3,8,12,2,-1,-1
6,0,-7,-3,6,-4,-3,9,12,2,-2,-2
6,0,-8,-3,7,-5,-3,10,13,2,-2,-3
6,-2,-9,-2,7,-6,-2,10,13,2,-3,-4
6,-3,-10,-1,8,-8,-2,11,14,2,-4,-4
6,-3,-11,-1,9,-9,-2,11,14,1,-4,-5
7,-3,-12,-1,9,-9,-2,12,15,1,-5,-5
7,-4,-12,-1,10,-10,-1,12,15,0,-5,-6
7,-5,-13,-1,10,-11,-1,13,15,0,-6,-6
6,-6,-14,0,10,-11,-1,13,15,-1,-6,-7
6,-6,-14,0,10,-12,-1,13,15,-1,-7,-7
6,-7,-15,0,10,-12,-1,13,15,-1,-7,-8
6,-8,-15,0,10,-13,0,14,15,-1,-8,-8
6,-8,-16,1,11,-14,0,14,14,-2,-8,-9
6,-9,-16,1,11,-14,0,14,14,-2,-8,-9
6,-9,-16,1,12,-14,0,14,14,-2,-8,-9
6,-9,-16,1,12,-14,0,14,14,-3,-8,-9
6,-9,-16,1,12,-15,0,14,14,-3,-9,-10
6,-10,-17,2,12,-15,0,14,13,-4,-9,-10
6,-10,-17,2,12,-16,0,14,13,-4,-10,-11
6,-10,-17,2,12,-16,0,14,13,-5,-10,-11
5,-10,-17,2,11,-16,0,14,12,-5,-10,-12
4,-11,-17,3,11,-16,0,14,12,-6,-10,-12
4,-11,-17,3,11,-16,0,14,11,-6,-10,-12
4,-11,-17,3,11,-16,0,14,11,-6,-11,-12
4,-11,-17,3,11,-16,0,14,11,-6,-11,-12
4,-11,-17,3,11,-16,0,14,11,-7,-12,-12
4,-11,-17,3,10,-16,0,14,10,-7,-12,-13
4,-11,-17,4,10,-16,1,13,10,-7,-13,-13
4,-11,-17,4,10,-16,1,13,10,-7,-13,-14
4,-11,-17,4,10,-16,1,13,10,-7,-13,-14
3,-11,-17,4,10,-16,1,13,10,-7,-13,-14
3,-11,-17,4,10,-16,1,13,10,-7,-13,-14
3,-11,-17,4,10,-16,1,13,10,-8,-14,-14
3,-11,-17,4,10,-16,1,13,10,-8,-14,-14
3,-11,-17,4,10,-16,1,13,10,-8,-15,-14
3,-11,-17,4,10,-16,1,13,10,-8,-15,-14
3,-11,-17,4,10,-16,1,13,10,-8,-15,-14
3,-12,-17,4,10,-16,1,13,9,-9,-15,-14
2,-12,-17,4,10,-16,1,13,9,-9,-15,-14
2,-12,-17,4,10,-16,1,13,9,-9,-15,-14
2,-12,-17,4,10,-16,2,13,9,-9,-15,-14
2,-12,-17,4,10,-16,2,13,9,-10,-15,-15
2,-12,-17,4,10,-16,2,13,9,-10,-15,-15
3,-12,-17,4,10,-16,2,13,9,-10,-15,-15
3,-12,-17,4,10,-16,2,14,9,-10,-15,-16
3,-12,-17,4,10,-16,2,14,9,-10,-15,-16
3,-13,-17,4,10,-17,2,14,9,-10,-15,-17
3,-13,-17,4,10,-17,2,14,9,-10,-15,-17
3,-13,-17,4,10,-17,2,14,9,-10,-15,-17
3,-13,-17,5,10,-17,2,14,8,-10,-16,-17
3,-13,-17,5,10,-17,2,14,8,-10,-16,-17
3,-13,-17,5,10,-17,2,14,8,-10,-16,-17
3,-13,-17,5,10,-17,2,14,8,-10,-16,-17
3,-13,-17,5,10,-17,2,14,8,-10,-17,-17
3,-13,-17,5,10,-17,2,14,8,-10,-17,-17
3,-13,-17,5,10,-17,2,14,8,-10,-17,-17
3,-13,-17,5,10,-17,2,14,8,-10,-17,-17
3,-13,-17,5,10,-17,2,14,8,-10,-17,-17
3,-13,-17,5,10,-17,2,14,8,-10,-18,-18
2,-14,-18,5,10,-17,2,14,8,-10,-18,-18
2,-14,-18,5,10,-18,2,14,8,-10,-18,-18
2,-14,-18,5,10,-18,2,14,8,-10,-18,-18
2,-14,-18,5,10,-18,2,14,8,-10,-18,-18
2,-14,-18,5,10,-18,2,14,8,-10,-18,-18
2,-14,-18,5,10,-18,2,14,8,-11,-18,-19
2,-14,-18,5,11,-18,2,14,8,-11,-18,-19
2,-14,-18,5,11,-18,2,14,8,-11,-18,-19
2,-14,-18,5,11,-18,2,13,7,-11,-19,-19
2,-14,-19,5,11,-18,2,13,7,-11,-19,-19
2,-14,-19,5,11,-18,2,13,6,-11,-19,-19
3,-14,-19,5,11,-18,2,13,6,-11,-19,-19
3,-14,-19,5,11,-18,2,13,6,-11,-19,-19
3,-14,-19,5,11,-18,2,12,6,-11,-19,-19
3,-14,-19,5,11,-18,2,12,5,-11,-19,-19
3,-15,-20,5,11,-18,2,12,5,-11,-19,-19
3,-15,-20,5,11,-18,2,12,5,-11,-19,-19
4,-14,-20,5,12,-18,2,12,5,-11,-19,-19
4,-14,-20,5,12,-19,2,12,5,-11,-19,-19
4,-14,-20,5,12,-19,2,12,5,-11,-19,-19
4,-14,-20,5,12,-19,2,12,5,-11,-19,-19
4,-14,-20,5,12,-19,2,12,5,-11,-19,-19
4,-15,-20,5,12,-19,2,12,5,-11,-19,-20
4,-15,-20,5,12,-19,2,12,5,-11,-19,-20
4,-15,-20,4,12,-19,2,12,5,-11,-19,-20
5,-14,-20,4,13,-19,2,11,5,-11,-19,-20
5,-14,-20,4,13,-19,2,11,5,-11,-19,-20
4,-13,-20,4,12,-18,2,11,5,-12,-19,-20
4,-13,-20,4,12,-18,2,11,5,-12,-19,-20
4,-13,-20,4,12,-18,2,11,5,-12,-19,-20
4,-13,-20,4,12,-18,2,11,5,-12,-19,-20
4,-14,-20,4,12,-18,2,11,5,-12,-19,-20
4,-14,-19,4,12,-18,2,11,5,-12,-19,-20
4,-14,-19,4,12,-18,2,10,5,-12,-19,-20
4,-14,-19,4,12,-18,2,10,5,-12,-19,-20
4,-13,-19,4,12,-18,2,10,5,-11,-19,-20
4,-13,-19,4,12,-18,2,10,5,-11,-19,-19
4,-13,-19,4,12,-18,2,10,5,-11,-19,-19
4,-13,-19,4,12,-17,2,10,5,-11,-19,-19
4,-13,-19,4,11,-17,2,10,5,-11,-19,-19
4,-13,-19,4,11,-17,1,10,4,-11,-19,-19
4,-13,-19,4,11,-17,1,9,4,-11,-19,-19
4,-13,-19,4,11,-17,1,9,4,-11,-19,-19
3,-13,-19,4,11,-17,1,9,4,-11,-19,-19
3,-13,-19,4,11,-17,1,9,4,-11,-19,-20
3,-13,-19,4,11,-17,1,9,4,-11,-20,-20
3,-13,-19,4,11,-17,1,9,4,-11,-20,-20
4,-13,-19,3,11,-17,2,9,4,-10,-20,-20
4,-13,-18,3,11,-17,2,9,4,-10,-20,-20
4,-13,-18,3,11,-17,2,9,4,-10,-20,-20
4,-13,-18,3,11,-17,2,8,4,-10,-20,-20
4,-13,-18,3,11,-17,2,8,4,-10,-20,-20
4,-12,-18,3,11,-17,2,8,4,-10,-20,-20
4,-12,-18,3,11,-17,2,8,4,-10,-19,-20
4,-12,-18,3,11,-17,2,8,4,-10,-19,-20
4,-12,-18,3,11,-17,2,8,4,-11,-19,-21
4,-12,-18,3,11,-17,2,8,4,-11,-19,-21
4,-12,-18,3,11,-17,2,8,4,-11,-19,-21
4,-12,-18,3,11,-17,2,8,4,-11,-19,-21
4,-12,-18,3,11,-17,2,8,4,-11,-19,-21
4,-12,-18,3,11,-17,2,8,4,-11,-19,-21
4,-12,-18,3,11,-17,2,8,4,-11,-19,-21
4,-12,-18,3,11,-17,2,8,4,-10,-19,-21
4,-12,-18,3,11,-17,2,8,4,-10,-19,-21
4,-12,-18,3,11,-17,2,8,4,-10,-19,-21
4,-12,-18,3,11,-17,3,8,4,-10,-19,-21
4,-12,-18,3,11,-17,3,8,4,-10,-19,-21
4,-13,-18,3,11,-17,3,8,4,-10,-19,-21
4,-13,-18,4,11,-17,3,8,4,-10,-19,-21
4,-13,-19,4,11,-18,3,8,4,-10,-19,-21
4,-13,-19,4,11,-18,3,8,4,-10,-19,-21
4,-13,-19,4,11,-18,3,8,4,-10,-19,-21
4,-14,-19,4,11,-18,3,8,4,-10,-19,-21
4,-14,-19,4,11,-18,3,8,4,-10,-19,-21
4,-14,-19,4,11,-18,3,8,4,-10,-19,-21
4,-14,-19,4,11,-18,3,8,4,-10,-19,-21
4,-14,-19,4,11,-18,2,8,4,-11,-19,-22
4,-14,-19,4,11,-18,2,8,4,-11,-19,-22
4,-13,-19,4,11,-18,2,8,4,-11,-20,-22
4,-13,-19,4,11,-18,2,8,4,-11,-20,-22
4,-14,-19,4,10,-18,2,7,4,-11,-20,-22
4,-14,-19,4,10,-18,2,7,4,-11,-20,-22
4,-13,-19,3,11,-17,2,7,4,-11,-20,-22
5,-13,-19,3,11,-17,2,7,4,-11,-20,-22
5,-13,-19,3,11,-17,2,7,4,-11,-19,-22
4,-13,-19,4,11,-17,2,7,4,-11,-19,-22
4,-14,-19,4,11,-17,2,7,4,-11,-19,-22
3,-14,-19,4,11,-18,3,7,4,-11,-19,-22
3,-14,-19,4,11,-18,3,7,5,-11,-19,-22
3,-14,-19,4,11,-18,3,7,5,-11,-19,-22
3,-14,-19,5,11,-18,3,7,5,-11,-19,-22
3,-14,-19,5,11,-18,3,7,4,-12,-19,-22
3,-14,-19,5,11,-18,3,7,4,-12,-19,-22
3,-14,-19,5,11,-18,3,7,4,-12,-19,-22
3,-14,-19,5,11,-18,3,7,4,-12,-19,-22
3,-14,-19,5,11,-18,3,7,4,-12,-19,-22
3,-14,-19,5,11,-18,3,7,4,-12,-19,-22
3,-14,-20,5,11,-18,3,7,4,-12,-19,-22
4,-14,-20,5,11,-18,3,7,4,-12,-19,-22
4,-15,-20,5,11,-18,3,7,4,-12,-19,-22
4,-15,-20,5,11,-18,3,7,4,-11,-19,-22
4,-15,-20,5,12,-19,3,7,4,-11,-19,-22
4,-15,-20,5,12,-19,3,7,4,-11,-19,-22
4,-15,-20,5,12,-19,3,7,4,-11,-19,-22
4,-15,-20,5,12,-19,3,7,4,-11,-19,-22
4,-15,-20,5,12,-18,3,7,4,-11,-19,-22
4,-15,-20,5,12,-18,3,7,4,-11,-19,-22
4,-14,-20,5,12,-18,3,7,4,-11,-19,-22
4,-14,-20,5,12,-18,3,7,4,-11,-19,-22
4,-14,-20,4,12,-18,3,7,4,-11,-19,-21
4,-14,-20,4,12,-18,3,7,4,-11,-19,-21
4,-14,-20,4,12,-18,3,7,4,-11,-19,-21
4,-14,-20,4,12,-18,3,7,4,-11,-19,-21
4,-14,-20,4,12,-18,3,7,4,-11,-19,-21
5,-14,-21,4,13,-18,3,7,4,-11,-19,-21
5,-14,-21,4,13,-18,3,7,4,-11,-19,-21
5,-14,-20,4,13,-18,3,7,4,-11,-19,-21
5,-13,-20,4,13,-18,3,7,4,-11,-19,-21
5,-13,-20,4,13,-18,3,7,4,-11,-19,-22
5,-13,-20,4,12,-18,3,7,4,-11,-19,-22
4,-13,-20,4,12,-17,3,7,4,-11,-19,-22
4,-13,-19,3,12,-17,3,7,4,-11,-19,-22
4,-12,-19,3,12,-16,3,7,4,-11,-19,-22
5,-12,-19,3,12,-16,3,7,4,-11,-19,-22
5,-12,-19,3,12,-16,3,7,4,-11,-19,-22
4,-13,-19,4,12,-17,3,7,4,-11,-19,-22
4,-14,-19,4,12,-17,3,7,4,-11,-19,-22
3,-14,-19,5,12,-17,3,7,4,-11,-19,-22
4,-14,-20,4,12,-17,3,7,4,-10,-19,-21
5,-14,-20,4,13,-17,3,7,4,-10,-19,-21
5,-14,-20,4,13,-17,3,7,4,-10,-19,-22
5,-14,-20,4,13,-17,3,7,4,-10,-19,-22
5,-14,-20,4,12,-17,3,7,4,-10,-19,-22
4,-14,-20,5,12,-17,3,7,4,-10,-19,-22
4,-14,-20,5,12,-17,3,7,4,-10,-19,-22
4,-14,-19,5,12,-17,3,7,4,-10,-19,-22
4,-14,-19,5,12,-17,3,7,4,-10,-19,-22
4,-14,-19,5,12,-17,3,7,4,-10,-19,-22
4,-14,-19,5,12,-17,3,7,4,-10,-19,-22
4,-13,-19,5,12,-17,3,7,4,-10,-19,-22
4,-13,-19,5,12,-17,3,7,4,-10,-19,-22
3,-13,-19,5,12,-17,3,7,4,-10,-19,-22
3,-13,-18,5,12,-16,3,7,4,-10,-19,-22
3,-13,-18,5,12,-16,3,7,4,-10,-19,-22
3,-13,-18,5,12,-16,3,7,3,-10,-20,-22
3,-13,-18,4,12,-16,3,7,3,-10,-20,-22
3,-13,-18,4,11,-16,3,7,3,-10,-20,-22
4,-12,-18,4,11,-16,3,7,3,-11,-19,-22
4,-12,-19,4,12,-16,3,7,3,-11,-19,-22
5,-12,-19,4,12,-16,3,7,3,-11,-19,-22
5,-12,-19,4,12,-16,3,7,3,-11,-19,-22
5,-12,-19,4,12,-16,3,7,3,-11,-19,-22
5,-12,-19,4,12,-16,3,7,3,-11,-19,-22
5,-12,-19,4,12,-16,3,7,3,-11,-19,-22
5,-12,-19,4,12,-16,3,7,3,-11,-19,-22
5,-12,-19,4,12,-16,3,7,3,-11,-19,-22
5,-12,-19,4,12,-16,3,7,4,-11,-19,-22
4,-12,-19,4,12,-16,3,7,4,-12,-19,-22
4,-13,-19,4,12,-17,3,7,4,-12,-19,-22
4,-13,-19,4,12,-17,3,7,4,-12,-19,-22
4,-13,-19,4,13,-17,3,7,4,-12,-18,-22
5,-13,-19,4,13,-17,3,7,4,-12,-18,-22
5,-13,-19,3,13,-17,3,7,4,-12,-19,-22
5,-12,-19,3,13,-17,3,7,4,-12,-19,-22
5,-12,-19,3,13,-17,3,7,4,-12,-19,-22
5,-12,-19,4,13,-17,3,7,4,-12,-19,-22
4,-13,-19,4,13,-17,3,7,4,-12,-19,-22
4,-13,-19,4,13,-17,3,7,4,-12,-19,-22
5,-13,-19,3,13,-16,3,7,4,-12,-19,-21
5,-12,-19,3,13,-16,3,7,4,-12,-19,-21
5,-12,-18,3,13,-16,3,7,4,-12,-19,-21
5,-12,-18,3,12,-16,3,8,4,-12,-18,-21
4,-12,-18,3,12,-16,3,8,4,-11,-18,-21
4,-12,-18,3,12,-16,3,8,4,-11,-18,-21
4,-12,-18,3,12,-16,3,8,4,-10,-18,-21
4,-12,-18,3,12,-16,3,8,4,-10,-18,-21
4,-12,-18,4,12,-16,3,8,4,-10,-18,-21
4,-13,-18,4,12,-16,3,8,4,-10,-18,-21
4,-13,-18,4,12,-16,3,8,4,-10,-18,-21
4,-13,-19,4,12,-16,3,8,3,-10,-18,-21
5,-13,-19,3,13,-16,3,8,3,-10,-18,-21
5,-12,-19,3,13,-16,3,8,3,-10,-18,-21
5,-12,-19,3,13,-16,3,8,4,-10,-18,-21
5,-12,-19,3,13,-16,3,8,4,-10,-18,-21
5,-12,-19,3,13,-16,3,9,4,-10,-18,-21
5,-12,-19,3,13,-16,3,9,4,-10,-18,-21
5,-12,-19,3,13,-16,3,9,4,-10,-18,-21
4,-13,-19,3,13,-17,3,9,4,-10,-18,-21
4,-13,-19,4,13,-17,3,9,4,-10,-18,-21
4,-14,-19,4,13,-17,3,9,4,-10,-18,-21
5,-14,-19,3,13,-17,3,9,4,-10,-18,-21
5,-14,-19,3,13,-17,3,9,4,-10,-18,-21
4,-14,-19,4,13,-17,3,9,4,-10,-18,-21
4,-14,-19,4,13,-17,3,9,4,-10,-18,-21
4,-14,-20,4,13,-17,3,9,4,-10,-18,-21
4,-14,-20,4,13,-17,3,9,4,-10,-18,-21
5,-14,-20,4,14,-17,4,9,4,-10,-18,-21
5,-14,-20,4,14,-17,4,9,4,-10,-18,-21
4,-14,-21,4,14,-18,4,9,4,-10,-18,-20
4,-15,-21,4,14,-18,3,9,4,-10,-18,-20
4,-15,-21,4,14,-18,3,9,4,-10,-18,-20
4,-15,-21,4,14,-18,3,9,4,-10,-18,-20
5,-14,-21,4,14,-18,3,9,4,-10,-18,-20
5,-14,-21,4,14,-18,3,9,4,-10,-18,-20
5,-14,-21,4,14,-18,3,9,4,-10,-18,-21
5,-14,-21,4,14,-18,3,9,4,-10,-18,-21
5,-14,-21,4,14,-18,3,9,4,-10,-18,-21
5,-14,-21,4,14,-18,3,9,4,-9,-18,-20
4,-14,-21,5,14,-18,3,9,4,-9,-18,-20
4,-14,-21,5,14,-18,3,9,4,-10,-18,-21
4,-15,-21,5,14,-18,3,9,4,-10,-18,-21
4,-15,-21,5,14,-18,3,9,4,-10,-19,-21
4,-15,-21,5,14,-18,3,9,4,-10,-19,-21
4,-15,-22,5,14,-18,3,9,4,-10,-19,-21
4,-15,-22,5,14,-19,4,9,4,-10,-19,-21
4,-15,-22,5,14,-19,4,9,4,-10,-19,-20
4,-15,-22,5,14,-19,4,9,4,-10,-19,-20
4,-15,-22,5,14,-19,4,9,4,-10,-19,-20
4,-15,-22,5,14,-19,4,9,4,-10,-19,-20
4,-15,-22,5,14,-19,4,9,4,-10,-18,-20
4,-15,-21,5,14,-18,4,9,4,-10,-18,-20
5,-15,-21,4,14,-18,4,10,4,-10,-17,-20
5,-15,-21,4,14,-18,4,10,4,-10,-17,-20
5,-15,-21,4,14,-18,3,10,4,-10,-17,-20
5,-15,-21,5,14,-18,3,9,4,-10,-17,-20
5,-15,-21,5,14,-18,3,9,4,-10,-17,-20
5,-14,-21,4,14,-18,3,9,4,-10,-17,-20
5,-15,-21,5,14,-18,3,9,4,-11,-18,-20
4,-15,-22,5,14,-19,3,9,4,-11,-18,-20
5,-15,-22,5,14,-19,3,9,4,-11,-18,-20
5,-15,-22,4,15,-19,3,9,4,-11,-18,-20
5,-15,-22,4,15,-19,3,9,4,-11,-18,-20
5,-15,-22,4,14,-19,3,9,4,-11,-18,-20
5,-15,-22,4,14,-19,3,9,4,-11,-18,-20
5,-15,-22,4,14,-19,3,9,4,-11,-18,-20
5,-15,-22,5,14,-19,3,9,4,-11,-18,-21
5,-15,-22,5,14,-19,3,9,4,-12,-18,-21
5,-15,-22,5,14,-18,3,9,4,-12,-18,-21
5,-14,-22,4,15,-18,3,9,3,-12,-18,-21
6,-14,-22,4,15,-18,3,9,3,-12,-19,-21
6,-14,-22,4,15,-18,3,9,3,-12,-19,-21
6,-14,-22,4,15,-17,3,9,3,-12,-19,-22
6,-14,-22,4,15,-17,3,9,3,-12,-19,-22
6,-14,-22,4,14,-17,3,9,3,-11,-19,-23
6,-14,-21,4,14,-17,3,9,3,-11,-19,-23
6,-14,-21,4,14,-17,3,9,3,-11,-19,-23
6,-14,-21,4,14,-17,3,9,3,-11,-19,-23
6,-14,-21,4,14,-17,3,10,3,-11,-19,-23
6,-14,-21,4,14,-17,3,10,3,-11,-19,-23
6,-14,-21,4,14,-17,3,10,3,-11,-19,-23
6,-14,-21,4,14,-17,3,10,3,-11,-19,-23
6,-14,-22,4,14,-17,3,10,3,-11,-19,-23
6,-14,-22,4,14,-17,3,10,3,-11,-19,-23
6,-14,-22,4,15,-17,3,10,3,-11,-19,-22
6,-14,-22,4,15,-18,3,10,3,-10,-19,-22
6,-14,-22,4,15,-18,3,10,3,-10,-19,-21
6,-14,-22,4,15,-18,3,10,3,-10,-19,-21
6,-14,-22,4,15,-18,3,10,3,-10,-19,-21
6,-14,-22,4,15,-18,3,10,3,-10,-19,-21
7,-14,-22,3,15,-18,3,10,3,-10,-19,-21
7,-14,-23,3,15,-18,3,10,3,-10,-19,-21
7,-14,-23,3,15,-18,4,10,3,-10,-19,-21
7,-14,-23,3,15,-18,4,11,3,-10,-19,-21
6,-15,-23,4,15,-18,4,11,3,-10,-19,-21
6,-15,-23,4,15,-18,4,11,3,-10,-18,-21
6,-15,-23,3,16,-18,4,11,3,-10,-18,-21
7,-15,-23,3,16,-18,4,11,2,-10,-18,-21
7,-15,-23,4,16,-19,4,11,2,-10,-18,-21
6,-16,-23,4,15,-19,4,11,3,-10,-18,-21
6,-16,-23,4,15,-19,4,11,3,-10,-18,-21
6,-15,-23,4,16,-19,4,11,3,-10,-18,-21
6,-15,-23,4,16,-19,4,11,3,-10,-18,-21
6,-16,-24,4,16,-19,4,11,3,-10,-18,-21
6,-16,-24,4,15,-19,4,11,3,-10,-18,-21
6,-16,-23,4,15,-19,4,11,3,-10,-18,-21
6,-16,-23,4,15,-19,4,11,3,-10,-18,-22
6,-16,-23,4,15,-19,4,12,3,-10,-18,-22
6,-16,-23,4,15,-19,4,12,4,-10,-18,-22
6,-16,-24,4,15,-19,4,12,4,-10,-18,-22
6,-16,-24,5,15,-20,4,12,4,-10,-18,-22
5,-17,-24,5,15,-20,4,12,4,-10,-18,-22
5,-17,-23,5,15,-20,4,12,4,-10,-18,-22
5,-17,-23,5,15,-20,4,12,4,-10,-18,-22
6,-16,-23,5,15,-20,4,12,4,-10,-18,-22
6,-16,-23,4,15,-20,4,12,4,-10,-18,-22
6,-16,-23,4,15,-20,4,12,4,-10,-18,-22
6,-16,-23,4,15,-19,4,12,4,-10,-18,-22
6,-16,-23,4,15,-19,4,12,4,-10,-18,-22
6,-16,-23,5,15,-19,4,12,4,-10,-18,-22
6,-16,-23,5,15,-20,4,12,4,-10,-18,-22
6,-16,-24,5,16,-20,4,12,4,-10,-18,-22
7,-16,-24,5,16,-20,4,12,4,-10,-18,-22
7,-16,-24,5,15,-20,4,12,4,-10,-18,-22
7,-16,-23,5,15,-19,4,12,4,-10,-18,-22
7,-15,-23,4,15,-19,5,13,5,-9,-17,-22
7,-14,-22,3,15,-18,5,13,5,-9,-17,-22
7,-13,-22,2,15,-17,5,13,6,-8,-16,-22
8,-12,-21,1,15,-17,5,13,6,-8,-16,-22
8,-11,-21,1,15,-16,5,13,6,-8,-16,-21
8,-11,-20,1,14,-16,5,13,6,-8,-16,-21
8,-11,-20,1,14,-15,5,13,6,-8,-16,-21
9,-10,-19,0,14,-15,5,13,6,-8,-16,-21
9,-10,-19,0,15,-14,5,13,6,-7,-16,-21
9,-9,-18,0,15,-14,5,14,7,-7,-16,-21
9,-8,-18,0,15,-13,6,14,7,-7,-16,-21
9,-8,-18,0,15,-13,6,14,7,-7,-16,-21
9,-9,-19,0,15,-14,6,14,7,-7,-17,-21
9,-9,-19,0,15,-14,6,14,7,-7,-17,-21
10,-9,-20,0,15,-14,6,14,7,-7,-17,-21
10,-8,-19,-1,15,-14,5,15,7,-7,-16,-21
10,-8,-19,-1,15,-13,5,15,8,-6,-16,-20
11,-8,-20,-2,16,-14,4,15,8,-6,-15,-20
12,-8,-21,-2,17,-14,3,15,8,-6,-15,-20
13,-7,-22,-3,18,-14,2,15,8,-5,-15,-19
14,-7,-22,-4,18,-14,2,15,8,-5,-15,-19
14,-7,-22,-4,19,-14,1,15,8,-5,-15,-19
14,-7,-22,-3,19,-14,1,15,8,-5,-15,-19
13,-8,-22,-3,19,-15,1,15,8,-5,-15,-19
13,-8,-22,-3,19,-15,1,15,8,-5,-15,-19
13,-8,-22,-3,19,-15,1,15,8,-5,-15,-19
13,-8,-22,-3,19,-15,2,15,8,-5,-15,-19
13,-8,-22,-3,19,-15,2,15,8,-5,-15,-19
13,-9,-23,-3,19,-15,3,15,8,-6,-16,-19
13,-9,-24,-2,19,-16,3,15,8,-6,-16,-20
13,-10,-24,-2,19,-17,3,14,7,-7,-17,-20
13,-11,-25,-1,19,-18,3,14,7,-7,-17,-20
13,-12,-26,-1,19,-18,3,14,7,-7,-17,-20
13,-12,-26,-1,20,-19,3,14,6,-8,-17,-21
13,-13,-27,-1,20,-19,3,14,6,-8,-18,-21
12,-13,-27,0,20,-20,3,14,5,-9,-18,-22
12,-13,-26,0,20,-20,3,14,5,-9,-18,-22
11,-13,-26,0,19,-19,4,14,5,-9,-18,-22
10,-13,-25,1,18,-19,4,14,5,-9,-18,-22
10,-14,-25,1,18,-19,5,14,5,-9,-18,-22
9,-14,-24,2,17,-19,5,13,5,-9,-18,-22
9,-15,-24,2,17,-19,5,13,5,-9,-18,-23
8,-15,-24,3,17,-19,5,13,5,-10,-19,-23
7,-16,-24,3,17,-20,5,12,4,-10,-19,-23
7,-16,-25,4,17,-20,4,12,4,-10,-20,-24
7,-17,-25,4,17,-21,4,11,3,-11,-20,-24
7,-17,-25,5,17,-21,4,11,3,-11,-21,-24
6,-18,-25,5,17,-21,4,11,3,-12,-21,-25
6,-18,-25,5,16,-21,4,11,3,-12,-21,-25
6,-18,-25,5,16,-22,4,11,3,-13,-21,-25
6,-19,-25,6,16,-22,4,11,3,-13,-21,-25
6,-19,-26,6,16,-22,4,11,3,-13,-21,-25
6,-19,-26,6,17,-23,3,11,2,-13,-21,-25
6,-20,-26,6,17,-23,3,11,2,-13,-21,-25
6,-20,-26,6,17,-23,3,11,2,-13,-21,-25
6,-20,-26,6,17,-23,3,11,2,-13,-21,-25
6,-20,-26,6,17,-23,3,11,2,-13,-21,-25
6,-20,-26,7,17,-23,3,11,2,-13,-20,-25
5,-21,-27,7,16,-24,3,11,2,-13,-20,-25
5,-21,-26,7,16,-23,3,11,2,-13,-20,-25
4,-20,-26,7,16,-23,3,11,2,-13,-20,-25
4,-20,-25,7,16,-23,4,11,2,-13,-20,-24
4,-20,-25,7,16,-23,4,11,2,-13,-20,-24
4,-21,-26,7,16,-23,4,11,2,-13,-20,-24
4,-21,-26,7,16,-24,4,12,2,-13,-20,-24
4,-22,-27,8,16,-24,5,13,3,-13,-21,-24
3,-23,-27,9,16,-25,7,16,5,-13,-21,-25
3,-24,-27,10,16,-25,10,21,7,-13,-22,-26
2,-24,-27,10,16,-25,14,27,11,-12,-22,-27
2,-23,-26,10,15,-24,18,34,16,-11,-22,-28
3,-22,-25,9,15,-23,21,42,22,-9,-21,-27
4,-20,-24,8,15,-22,23,49,30,-4,-19,-26
6,-16,-24,5,16,-20,23,57,39,2,-14,-24
10,-12,-24,0,17,-18,23,67,50,11,-8,-20
15,-8,-24,-4,20,-16,23,78,64,22,0,-15
21,-2,-24,-10,23,-13,22,88,80,35,10,-7
29,6,-23,-18,27,-9,19,95,97,52,23,2
36,15,-20,-26,29,-3,15,100,116,71,39,14
42,26,-15,-35,30,5,10,101,135,93,56,26
47,39,-8,-44,29,15,4,96,151,115,75,40
53,53,0,-54,28,26,-2,88,165,137,94,55
58,68,9,-64,25,39,-11,75,172,155,113,70
60,83,22,-73,20,52,-22,52,167,164,127,84
58,96,37,-78,10,66,-31,21,150,163,134,95
50,104,53,-78,-1,78,-38,-16,119,149,132,100
39,106,66,-73,-13,86,-43,-54,80,124,121,98
26,102,76,-64,-25,89,-47,-90,31,91,102,89
11,97,85,-54,-37,91,-52,-127,-27,51,77,77
-4,92,95,-44,-49,93,-58,-160,-82,13,53,64
-16,87,102,-36,-59,94,-64,-184,-125,-16,32,51
-25,81,105,-29,-64,93,-69,-198,-153,-37,16,40
-30,74,104,-23,-66,89,-74,-204,-169,-51,4,31
-32,67,99,-18,-65,84,-79,-206,-176,-60,-4,24
-32,60,93,-14,-62,76,-86,-205,-178,-66,-11,17
-32,52,84,-10,-57,68,-92,-201,-176,-70,-17,11
-31,44,75,-7,-52,59,-95,-193,-172,-72,-22,6
-30,37,66,-4,-47,52,-97,-184,-165,-74,-26,1
-29,32,59,-2,-43,46,-96,-174,-157,-73,-29,-3
-28,28,55,-1,-41,42,-94,-163,-148,-71,-30,-7
-26,26,51,0,-38,39,-89,-151,-138,-67,-31,-9
-25,23,48,0,-36,36,-82,-138,-127,-63,-31,-11
-23,21,44,0,-33,33,-75,-125,-117,-60,-30,-12
-21,19,41,0,-31,30,-67,-113,-108,-56,-29,-13
-20,17,37,0,-28,27,-58,-101,-99,-53,-28,-13
-19,15,34,1,-26,25,-50,-90,-90,-49,-27,-14
-19,14,32,1,-25,23,-43,-80,-82,-46,-27,-15
-18,14,30,1,-24,22,-38,-72,-75,-43,-26,-15
-18,13,29,2,-23,21,-34,-66,-70,-41,-25,-15
-17,12,28,2,-22,20,-31,-61,-65,-38,-24,-15
-16,11,27,2,-21,19,-28,-56,-60,-36,-23,-15
-15,10,25,2,-19,17,-25,-51,-56,-34,-22,-14
-15,8,23,2,-18,16,-23,-47,-52,-32,-20,-14
-14,7,20,3,-16,14,-21,-43,-49,-30,-19,-13
-14,6,18,3,-15,12,-19,-40,-46,-29,-19,-13
-13,5,17,2,-14,11,-18,-38,-44,-28,-18,-13
-12,5,16,2,-13,11,-17,-36,-42,-26,-18,-13
-11,5,16,1,-13,10,-16,-34,-40,-25,-17,-12
-10,5,16,1,-12,10,-15,-32,-38,-23,-16,-12
-10,5,15,1,-12,10,-14,-30,-36,-22,-15,-12
-9,6,15,1,-11,10,-13,-29,-34,-21,-14,-12
-9,6,14,1,-11,10,-12,-27,-33,-21,-14,-12
-8,6,14,0,-10,10,-11,-26,-32,-20,-13,-11
-8,6,14,0,-10,10,-11,-25,-31,-20,-13,-11
-8,6,14,0,-10,10,-10,-24,-30,-19,-13,-11
-8,6,14,0,-10,10,-10,-24,-29,-19,-12,-11
-8,6,14,0,-10,10,-10,-23,-29,-18,-12,-10
-8,6,14,0,-11,10,-10,-23,-28,-18,-11,-10
-8,7,15,0,-11,11,-10,-23,-28,-17,-11,-9
-8,7,15,0,-11,11,-9,-22,-27,-17,-11,-9
-8,8,16,0,-11,12,-9,-22,-27,-17,-11,-9
-8,8,16,0,-11,12,-8,-21,-26,-16,-11,-9
-8,8,16,0,-11,12,-8,-21,-26,-16,-10,-9
-8,8,16,-1,-11,12,-8,-21,-25,-15,-10,-9
-8,8,16,-1,-11,12,-8,-21,-25,-15,-9,-9
-8,9,17,-1,-11,13,-8,-21,-25,-15,-9,-8
-8,9,17,-1,-12,13,-8,-20,-25,-14,-9,-8
-8,10,17,-1,-12,13,-8,-20,-25,-14,-9,-7
-8,10,17,-1,-12,13,-8,-20,-25,-14,-9,-7
-8,10,17,-1,-12,13,-8,-20,-24,-14,-9,-7
-8,10,17,-2,-12,14,-8,-19,-24,-14,-8,-7
-8,11,18,-2,-12,14,-8,-19,-23,-13,-8,-6
-8,11,18,-2,-12,14,-8,-18,-23,-13,-8,-6
-8,11,18,-2,-12,14,-8,-18,-23,-13,-8,-6
-8,11,18,-2,-12,14,-8,-18,-23,-12,-7,-6
-8,11,18,-2,-12,14,-8,-18,-23,-12,-7,-6
-8,11,19,-2,-13,15,-8,-18,-23,-12,-7,-5
-8,11,20,-2,-13,15,-8,-18,-23,-12,-6,-5
-8,11,20,-2,-14,16,-8,-18,-23,-12,-6,-4
-8,12,21,-3,-14,17,-8,-18,-23,-12,-5,-4
