leadI,leadII,leadIII,leadaVR,leadaVL,leadaVF,leadV1,leadV2,leadV3,leadV4,leadV5,leadV6
1,-1,-2,0,1,-2,-5,1,-2,2,-4,0
4,-2,-5,0,4,-4,-11,5,-4,5,-10,0
9,1,-6,-5,7,-3,-14,8,-3,9,-12,1
15,8,-7,-11,11,0,-14,11,-2,13,-11,3
22,14,-7,-17,15,2,-14,13,0,16,-11,5
24,16,-8,-20,16,3,-14,14,0,17,-11,6
22,14,-8,-18,16,2,-15,14,0,17,-13,5
17,8,-8,-12,13,0,-17,13,-2,16,-15,3
11,3,-8,-7,11,-3,-18,11,-3,14,-16,2
9,0,-9,-4,10,-5,-19,11,-4,14,-17,1
11,1,-9,-6,11,-4,-18,11,-3,14,-16,2
16,6,-9,-11,13,-2,-17,13,-2,16,-14,3
21,12,-9,-16,15,0,-16,14,0,17,-12,5
25,15,-9,-20,17,2,-15,14,0,18,-11,5
24,15,-9,-19,17,2,-16,13,0,18,-11,5
20,10,-9,-15,15,0,-17,12,-1,17,-12,3
14,5,-8,-9,12,-1,-18,11,-2,16,-13,3
10,2,-7,-6,9,-2,-18,10,-2,16,-13,3
10,3,-6,-6,9,-2,-18,11,-1,16,-12,3
14,7,-6,-10,11,0,-17,12,0,17,-11,4
20,13,-6,-16,13,2,-15,13,1,18,-10,5
24,16,-7,-20,15,3,-15,14,3,20,-8,7
25,17,-7,-21,15,4,-15,14,3,20,-8,7
21,14,-7,-17,14,3,-15,13,2,20,-8,7
16,9,-8,-12,12,1,-16,11,1,18,-9,6
12,5,-7,-8,10,0,-17,10,0,18,-10,5
10,4,-5,-6,8,0,-17,10,0,18,-10,5
13,6,-6,-9,10,0,-17,10,1,18,-9,5
20,12,-7,-15,14,1,-16,10,2,19,-9,6
25,17,-7,-20,16,3,-15,11,3,21,-8,7
26,19,-5,-22,15,5,-14,12,4,22,-7,8
23,18,-4,-21,13,6,-14,12,5,22,-6,9
18,15,-3,-16,11,6,-15,11,4,22,-6,9
14,12,-3,-13,9,5,-16,10,4,22,-5,9
13,11,-2,-12,8,5,-16,10,4,22,-5,10
15,14,-1,-14,8,7,-17,10,5,23,-3,11
20,20,0,-20,10,9,-17,10,6,25,-1,12
25,26,1,-25,11,12,-18,9,7,28,2,15
28,29,2,-28,12,14,-19,9,8,30,5,17
28,30,2,-28,13,14,-20,8,9,32,7,19
25,27,1,-25,12,14,-21,6,8,33,10,21
22,24,1,-22,11,13,-23,4,8,34,13,23
21,22,1,-21,11,13,-25,3,8,36,16,25
22,22,0,-22,12,12,-26,3,9,39,20,27
27,24,-2,-26,16,11,-26,5,11,43,23,29
33,26,-5,-30,20,9,-25,7,13,46,26,30
37,27,-10,-32,24,7,-24,9,13,47,27,30
40,25,-15,-32,27,3,-25,9,12,46,26,30
41,20,-20,-30,30,-1,-26,10,11,44,25,29
39,14,-26,-26,33,-6,-27,10,10,43,25,28
39,8,-31,-23,36,-11,-28,11,9,41,24,27
41,5,-36,-23,39,-15,-29,12,8,41,23,26
45,5,-40,-25,43,-17,-30,13,8,41,23,25
51,7,-43,-29,47,-19,-30,16,9,40,20,22
54,7,-46,-31,50,-20,-29,21,10,39,14,17
55,6,-48,-31,51,-22,-28,27,13,37,6,9
53,0,-52,-27,52,-26,-26,34,16,34,-2,0
49,-7,-56,-20,53,-32,-23,42,21,32,-12,-9
44,-16,-60,-14,53,-38,-18,49,25,30,-21,-18
40,-23,-63,-8,53,-43,-9,55,28,26,-29,-27
39,-28,-65,-6,53,-46,0,58,28,20,-38,-34
39,-28,-66,-6,53,-47,8,61,27,13,-46,-41
39,-28,-66,-6,52,-47,13,63,26,6,-54,-47
38,-28,-66,-5,52,-48,17,64,24,-2,-62,-53
35,-30,-65,-2,50,-48,20,65,21,-10,-71,-59
27,-33,-60,3,43,-47,23,66,20,-17,-79,-63
17,-36,-53,10,35,-45,28,67,19,-24,-85,-67
9,-37,-46,14,28,-42,32,65,18,-31,-91,-70
4,-36,-39,16,22,-38,37,62,15,-39,-96,-72
1,-31,-32,14,17,-32,42,59,13,-44,-98,-72
0,-25,-24,12,12,-25,46,55,11,-48,-98,-71
-1,-20,-18,11,8,-19,49,51,9,-50,-97,-69
-4,-16,-12,11,4,-15,52,47,7,-52,-96,-68
-8,-15,-7,13,-1,-12,53,41,4,-53,-95,-66
-14,-15,-1,15,-6,-9,55,34,-1,-55,-94,-64
-18,-15,3,17,-10,-6,56,26,-7,-57,-92,-61
-20,-13,7,17,-13,-3,56,18,-13,-57,-88,-57
-19,-9,10,14,-14,0,57,12,-16,-55,-82,-52
-17,-4,14,10,-15,4,57,9,-16,-50,-75,-46
-13,1,16,5,-14,8,56,7,-15,-45,-68,-41
-9,6,16,2,-13,10,55,7,-14,-39,-62,-37
-8,7,16,0,-12,11,53,8,-12,-34,-57,-33
-8,7,16,1,-12,11,51,9,-10,-29,-53,-30
-8,6,15,1,-11,10,50,10,-9,-25,-49,-28
-7,6,14,0,-10,10,48,12,-8,-22,-45,-25
-6,8,15,-1,-10,11,48,13,-7,-19,-41,-21
-3,11,15,-5,-9,13,47,15,-5,-16,-37,-17
1,14,14,-8,-6,13,47,17,-4,-14,-34,-15
4,15,12,-10,-4,13,46,19,-3,-11,-31,-13
6,16,11,-11,-3,13,45,22,-1,-8,-29,-11
4,14,11,-9,-4,12,45,23,0,-6,-28,-10
2,13,11,-7,-4,12,45,24,1,-4,-26,-9
1,12,11,-6,-4,12,45,25,2,-3,-25,-8
1,14,13,-7,-5,13,46,25,3,-1,-23,-7
3,17,14,-10,-5,15,46,25,4,0,-21,-5
5,20,15,-13,-4,17,47,24,4,0,-19,-4
7,23,15,-15,-4,19,47,24,4,1,-18,-2
8,24,15,-16,-4,19,48,24,4,2,-17,-2
7,23,16,-15,-4,19,48,24,5,3,-17,-1
6,22,16,-14,-5,19,49,24,5,4,-16,-1
5,21,17,-13,-5,19,50,24,5,4,-16,0
4,21,17,-12,-5,19,52,24,6,5,-15,0
5,22,18,-14,-5,20,53,24,7,6,-13,2
6,25,19,-16,-6,21,55,25,9,8,-11,3
7,27,20,-17,-7,23,56,25,10,9,-9,4
8,28,21,-18,-7,24,57,25,10,9,-9,4
8,28,20,-18,-6,24,58,24,11,10,-9,4
8,27,20,-17,-6,23,58,22,11,10,-10,3
7,27,20,-16,-6,23,58,21,10,10,-10,3
7,26,21,-16,-7,23,58,19,10,10,-10,3
6,27,22,-16,-7,24,57,17,10,10,-10,3
7,29,22,-18,-7,25,56,14,9,9,-9,4
9,30,22,-19,-6,25,54,12,9,9,-9,4
10,32,22,-20,-6,26,51,10,9,10,-7,5
10,33,23,-21,-7,27,48,9,9,11,-6,6
11,34,24,-22,-7,28,45,8,9,12,-5,7
11,35,24,-23,-6,29,43,8,10,14,-4,8
12,36,25,-24,-6,30,41,8,11,15,-3,10
12,37,25,-25,-6,30,40,8,13,16,-1,11
14,39,25,-26,-5,31,40,9,14,17,0,12
16,41,25,-28,-4,32,39,9,15,18,1,12
17,42,25,-29,-4,33,39,9,15,18,1,12
18,43,25,-30,-4,33,39,10,16,19,2,13
17,43,26,-29,-4,33,39,10,17,20,3,14
17,42,26,-29,-4,33,39,10,17,21,4,14
18,42,25,-30,-3,33,38,10,18,21,4,14
18,42,25,-30,-3,33,38,10,18,22,4,14
18,43,25,-30,-3,33,39,11,19,22,4,14
19,43,24,-31,-2,33,39,11,20,22,5,15
20,43,24,-31,-2,32,39,11,20,22,5,15
19,43,25,-31,-3,33,39,11,21,22,5,15
18,43,25,-30,-3,33,38,12,21,22,5,16
18,42,24,-30,-3,33,38,12,21,22,5,16
18,42,24,-30,-3,33,37,12,21,23,5,16
18,42,24,-30,-3,33,37,12,22,23,6,16
19,43,23,-31,-2,33,37,12,22,23,6,16
21,44,23,-32,-1,33,37,12,22,23,7,17
22,45,23,-33,-1,33,37,12,22,24,7,17
22,45,23,-33,0,33,37,12,22,24,7,17
22,46,23,-33,0,33,37,12,22,24,7,17
21,45,24,-33,-1,34,37,12,23,24,8,17
21,45,24,-33,-1,34,36,11,23,24,8,17
22,45,23,-34,0,34,36,11,23,24,8,17
23,45,23,-34,0,34,36,11,23,24,8,17
23,46,24,-35,0,35,36,11,23,24,9,18
24,47,23,-35,0,35,35,11,23,24,9,18
24,47,23,-35,0,34,35,11,23,23,9,18
24,47,23,-35,0,34,34,11,23,23,9,18
24,46,22,-35,1,34,34,11,23,23,9,18
23,47,23,-36,0,34,34,11,23,23,9,18
23,47,24,-36,0,35,34,10,23,23,9,18
22,47,25,-35,-1,35,34,10,23,23,9,18
22,47,25,-35,-1,35,33,9,23,23,9,18
23,47,24,-35,-1,35,33,9,23,24,9,18
23,47,24,-35,0,35,33,9,24,24,10,18
23,48,24,-35,0,35,33,9,24,24,10,19
23,48,24,-36,0,35,33,9,24,24,10,18
24,48,24,-36,0,35,32,8,24,24,9,18
24,48,24,-37,0,36,32,8,24,24,9,18
24,48,25,-36,0,36,32,8,25,24,10,18
24,49,26,-36,-1,37,32,8,25,23,10,19
24,49,26,-37,0,37,31,7,25,23,10,19
25,50,26,-37,0,37,31,7,25,22,11,19
25,50,26,-38,0,38,31,7,25,22,11,20
25,51,27,-38,-1,39,31,7,25,22,12,20
25,52,27,-39,-1,39,31,7,25,22,12,20
25,52,27,-39,-1,39,30,6,25,22,12,20
26,52,26,-39,0,39,30,6,24,21,12,20
26,52,26,-39,0,39,30,5,24,21,12,21
27,52,26,-40,0,39,30,5,24,21,12,21
27,52,26,-39,0,39,29,4,24,21,12,20
26,52,26,-39,0,39,29,4,24,21,12,21
25,52,27,-38,-1,39,28,4,24,21,13,21
24,52,28,-38,-2,39,28,3,23,21,13,22
24,52,27,-38,-1,39,28,3,22,20,14,22
26,51,26,-39,0,38,27,2,20,19,14,21
27,52,25,-39,0,39,26,1,20,19,14,21
26,53,26,-39,0,40,25,1,20,19,14,23
26,53,28,-39,-1,41,25,1,20,19,15,24
25,54,29,-40,-1,41,25,0,20,18,14,24
26,54,29,-41,-1,41,24,-1,19,17,14,24
26,55,29,-41,-1,41,24,-2,19,17,14,24
26,55,30,-41,-2,42,24,-2,19,17,14,24
25,56,31,-41,-3,43,24,-3,18,17,15,25
25,56,31,-40,-2,43,23,-3,14,16,16,26
26,56,30,-40,-2,43,23,-4,9,16,16,26
26,56,30,-41,-2,43,22,-4,6,15,16,26
27,57,30,-42,-2,43,22,-5,4,15,16,27
28,57,30,-42,-1,43,21,-7,3,14,16,27
28,57,30,-43,-1,43,21,-8,2,14,16,27
27,57,30,-42,-2,43,20,-8,1,13,16,28
27,57,31,-42,-2,44,20,-9,0,13,16,28
27,57,31,-42,-2,44,20,-9,0,12,17,28
27,57,31,-43,-1,44,19,-10,-1,11,17,28
27,57,30,-43,0,44,18,-11,-2,10,17,28
28,57,30,-43,0,43,18,-12,-3,9,17,28
28,57,30,-43,0,43,17,-14,-4,8,17,28
28,57,30,-43,0,43,16,-15,-4,8,17,28
29,57,29,-43,0,43,16,-15,-5,7,17,28
30,57,28,-44,1,42,16,-16,-7,6,17,29
30,57,28,-44,1,42,16,-17,-8,6,17,29
30,57,28,-44,1,42,15,-18,-10,5,17,29
29,57,28,-43,0,43,15,-20,-11,4,17,29
29,57,28,-43,0,42,14,-21,-12,3,17,29
30,57,28,-44,1,42,13,-22,-13,2,16,29
30,57,27,-44,1,42,12,-24,-14,1,16,29
30,56,26,-44,2,41,12,-25,-15,0,15,29
30,56,26,-43,2,40,11,-26,-16,0,15,29
31,55,25,-43,3,40,11,-27,-17,-1,14,29
32,55,24,-44,4,39,10,-28,-19,-3,13,28
32,56,24,-44,4,39,10,-29,-20,-4,12,28
33,55,23,-44,5,39,9,-30,-21,-5,11,28
33,55,22,-44,5,38,8,-32,-22,-6,10,28
33,54,21,-44,6,38,8,-33,-23,-7,9,28
33,54,21,-44,6,37,8,-33,-24,-8,9,28
33,53,20,-44,7,37,7,-34,-26,-10,8,28
34,52,19,-44,8,36,6,-35,-27,-11,7,28
34,52,18,-44,8,35,6,-36,-28,-12,6,27
35,52,17,-44,9,35,6,-36,-29,-13,6,27
35,51,16,-43,10,33,6,-37,-30,-14,5,27
35,49,14,-43,11,32,5,-38,-31,-15,4,26
35,48,13,-43,11,31,5,-39,-32,-17,3,26
35,47,13,-42,11,30,5,-40,-33,-18,3,26
35,47,13,-42,11,30,5,-41,-33,-18,3,25
35,46,12,-41,11,29,5,-41,-34,-19,2,24
36,46,11,-41,13,28,4,-42,-35,-20,1,22
37,46,10,-41,14,27,3,-42,-36,-21,0,21
36,45,9,-41,14,27,3,-42,-36,-21,0,20
36,44,8,-40,14,26,3,-42,-36,-22,0,19
36,42,7,-40,15,25,3,-42,-37,-22,-1,17
36,41,5,-39,16,23,3,-42,-37,-23,-2,15
36,39,4,-39,16,21,3,-42,-38,-23,-2,14
36,39,3,-38,16,21,3,-42,-39,-24,-3,12
35,38,3,-37,16,20,4,-41,-40,-24,-3,11
35,38,3,-37,17,20,4,-41,-40,-24,-3,11
36,37,2,-37,18,19,4,-40,-41,-24,-4,10
36,37,1,-37,18,18,4,-40,-41,-25,-5,9
35,36,0,-36,18,18,4,-39,-41,-25,-5,9
35,35,0,-36,18,17,5,-39,-41,-25,-6,8
35,34,0,-35,17,16,5,-38,-41,-25,-6,7
34,33,0,-34,17,16,5,-38,-40,-24,-7,6
34,33,-1,-34,17,15,5,-37,-40,-24,-7,5
35,32,-2,-33,18,14,5,-36,-39,-24,-7,5
34,31,-3,-33,18,14,5,-35,-38,-23,-7,5
33,30,-3,-32,18,13,5,-34,-38,-23,-7,5
33,29,-4,-32,18,13,6,-33,-37,-22,-6,5
33,29,-4,-32,18,13,6,-32,-36,-21,-6,5
33,28,-4,-32,18,13,6,-31,-35,-21,-6,5
32,28,-4,-31,18,12,6,-30,-35,-20,-6,5
32,27,-4,-31,18,12,6,-29,-34,-20,-6,5
32,27,-5,-31,19,11,6,-28,-33,-20,-6,4
32,27,-5,-30,19,11,7,-27,-32,-19,-6,4
31,27,-4,-30,18,11,7,-26,-31,-19,-6,3
30,26,-5,-29,18,11,8,-24,-30,-18,-6,3
31,26,-5,-29,18,10,8,-22,-29,-17,-5,3
30,25,-5,-29,17,10,8,-21,-27,-16,-4,3
30,25,-5,-29,17,10,8,-20,-26,-15,-4,3
31,25,-6,-29,18,10,8,-19,-25,-14,-4,2
32,25,-6,-29,19,10,8,-18,-24,-13,-3,2
32,25,-7,-29,19,9,9,-17,-23,-12,-3,2
32,24,-7,-29,19,9,9,-16,-22,-11,-2,3
31,24,-6,-28,18,9,9,-14,-20,-10,-1,3
29,23,-5,-28,17,9,9,-13,-19,-9,-1,3
29,23,-5,-27,17,9,9,-12,-19,-9,-1,3
29,22,-6,-27,17,8,8,-12,-18,-8,-1,2
29,22,-6,-27,17,8,9,-11,-17,-7,0,2
29,22,-5,-26,17,8,9,-10,-16,-6,0,2
29,22,-6,-26,17,8,9,-9,-15,-6,-1,2
29,21,-6,-26,18,7,9,-8,-14,-5,-1,1
29,21,-7,-26,18,7,9,-7,-12,-4,0,1
29,20,-8,-26,18,6,9,-6,-11,-3,0,1
29,20,-8,-26,19,5,9,-5,-10,-2,0,1
29,20,-8,-26,18,6,9,-4,-10,-1,0,1
28,20,-7,-25,18,6,8,-4,-9,0,1,1
28,20,-7,-25,17,6,8,-3,-8,1,2,1
28,20,-8,-24,17,6,8,-2,-6,2,3,1
28,20,-8,-24,17,6,8,-1,-5,2,3,1
27,19,-8,-24,17,6,8,0,-5,3,3,1
27,19,-8,-23,17,5,8,0,-4,3,3,1
27,18,-8,-23,17,5,8,1,-3,4,3,1
26,18,-8,-23,17,5,8,1,-2,4,3,1
26,18,-7,-22,17,5,8,2,-1,5,4,1
26,17,-8,-22,17,4,7,2,-1,6,4,1
27,17,-9,-22,18,4,7,2,0,7,4,0
26,17,-9,-22,18,4,7,2,0,7,4,1
25,17,-8,-22,17,4,8,3,1,8,5,2
25,17,-7,-21,16,4,8,4,2,9,5,2
24,16,-7,-21,16,4,7,4,2,9,6,2
24,16,-8,-21,16,4,7,4,3,10,6,2
24,16,-8,-21,16,4,6,4,4,11,7,2
23,16,-7,-20,15,4,6,5,6,12,7,2
22,16,-7,-20,14,4,6,5,7,13,7,2
22,15,-7,-19,14,4,6,6,7,13,7,2
22,14,-8,-19,15,3,6,6,7,13,7,1
22,14,-8,-19,15,3,6,7,8,14,8,2
21,14,-7,-19,14,4,6,8,9,15,8,2
20,14,-6,-18,13,4,6,8,9,16,9,3
19,13,-5,-17,12,4,5,8,9,16,9,3
18,12,-5,-16,12,3,5,8,9,16,9,3
18,12,-6,-16,12,3,4,8,9,17,9,3
18,12,-6,-16,12,3,4,8,10,18,10,3
18,12,-6,-16,12,2,4,8,10,18,10,3
19,12,-7,-16,12,2,4,8,11,19,10,3
19,12,-7,-16,12,2,3,8,12,19,10,3
18,12,-6,-16,12,3,3,8,13,19,10,3
18,12,-5,-16,11,3,2,9,12,20,10,3
18,13,-5,-16,12,4,2,9,9,20,11,3
19,13,-5,-17,12,4,1,9,6,21,11,4
18,14,-4,-16,11,5,1,9,4,22,12,5
17,14,-3,-16,10,6,0,9,1,22,13,5
17,14,-3,-17,10,6,0,8,-1,22,13,5
17,15,-3,-17,10,7,-1,7,-3,22,13,6
17,15,-2,-17,9,7,-1,7,-5,22,13,5
17,14,-2,-16,9,6,-2,6,-6,22,13,5
17,14,-2,-16,9,6,-2,6,-7,22,13,5
16,14,-2,-16,9,6,-2,6,-8,22,13,5
16,14,-2,-16,8,6,-2,6,-8,22,14,5
15,14,-1,-16,8,6,-2,6,-9,22,14,6
15,14,-1,-15,8,6,-2,6,-9,22,14,5
15,13,-2,-15,8,5,-3,6,-10,21,13,5
15,13,-2,-15,8,5,-3,6,-11,21,13,4
15,13,-1,-15,7,6,-3,6,-12,21,13,4
15,13,-1,-15,7,6,-3,6,-12,21,13,4
14,13,-1,-15,7,6,-3,6,-12,21,13,4
13,13,0,-14,6,7,-3,7,-11,22,14,5
12,13,0,-14,6,7,-2,8,-11,22,14,5
12,14,1,-14,5,8,-2,9,-11,23,15,6
11,14,2,-13,4,8,-1,9,-11,23,15,6
10,13,2,-12,3,8,-1,9,-11,23,14,6
10,12,1,-12,4,7,-1,9,-12,23,14,6
9,11,2,-11,3,7,-1,9,-12,23,13,5
7,10,3,-9,2,7,-1,9,-13,23,13,5
6,9,3,-8,1,6,-1,8,-14,22,13,5
5,7,2,-7,1,4,-1,7,-15,20,11,3
5,7,1,-7,2,4,-1,6,-17,19,10,2
5,6,1,-6,1,4,-1,5,-18,19,9,2
4,6,1,-6,1,3,-1,5,-18,18,9,2
4,4,0,-5,1,2,-1,5,-18,18,9,1
4,3,-1,-5,2,1,-1,6,-18,18,8,1
4,3,-1,-4,2,1,-2,6,-18,18,8,0
4,3,-2,-4,2,0,-2,6,-18,17,8,0
4,2,-2,-3,2,0,-2,7,-19,17,8,0
4,2,-3,-4,3,0,-2,7,-19,18,8,0
4,2,-3,-4,3,0,-2,7,-19,18,8,1
5,2,-3,-4,3,0,-2,7,-19,17,8,1
4,1,-3,-4,3,0,-2,8,-19,17,8,1
4,1,-3,-4,3,0,-2,8,-19,17,8,1
4,1,-3,-4,3,0,-3,8,-20,17,8,1
4,1,-3,-3,3,0,-3,8,-20,17,8,1
4,1,-3,-3,3,-1,-3,8,-20,17,8,0
4,0,-3,-3,3,-1,-3,8,-21,17,8,0
4,0,-3,-3,3,-1,-3,8,-21,16,8,0
4,0,-4,-3,4,-1,-3,8,-21,16,8,0
4,0,-5,-3,4,-2,-3,8,-21,16,8,0
4,0,-5,-2,4,-2,-3,9,-21,16,8,0
4,0,-4,-2,4,-2,-3,9,-21,16,8,0
3,-1,-4,-1,4,-3,-3,9,-22,15,8,0
3,-1,-5,-1,4,-3,-3,9,-22,14,7,0
3,-2,-6,-1,4,-4,-4,9,-23,14,7,-1
3,-2,-6,-1,4,-4,-4,9,-23,14,7,-1
3,-2,-6,-1,4,-4,-4,9,-23,14,7,-1
3,-2,-6,-1,4,-4,-3,9,-22,14,7,-1
2,-3,-6,0,4,-4,-3,9,-22,13,6,-2
2,-3,-6,0,4,-5,-4,8,-23,13,6,-2
2,-4,-7,0,4,-5,-4,8,-23,13,6,-3
2,-4,-7,0,4,-6,-4,8,-23,13,6,-3
2,-5,-7,1,4,-6,-4,8,-23,13,6,-3
2,-5,-7,1,4,-6,-4,8,-23,13,7,-3
2,-5,-7,1,4,-6,-4,8,-23,13,7,-3
1,-5,-7,1,3,-6,-5,8,-24,13,7,-3
1,-5,-7,1,4,-6,-5,8,-24,13,7,-3
2,-5,-7,1,4,-6,-6,8,-24,12,7,-3
1,-5,-7,1,4,-6,-6,8,-24,12,7,-3
0,-6,-7,2,3,-6,-6,8,-24,12,7,-3
0,-6,-7,2,3,-6,-6,9,-24,12,7,-3
0,-6,-7,2,3,-6,-6,9,-24,12,7,-3
1,-6,-7,1,3,-6,-6,9,-24,12,6,-3
1,-6,-7,1,3,-6,-6,9,-24,12,6,-4
0,-6,-7,2,3,-7,-6,9,-24,12,6,-4
0,-7,-7,2,4,-7,-6,9,-23,12,6,-4
1,-7,-8,2,5,-8,-6,9,-23,11,6,-4
1,-7,-9,2,5,-8,-6,9,-23,11,6,-4
1,-8,-9,2,5,-8,-7,9,-23,11,6,-4
1,-8,-9,2,5,-8,-7,9,-23,11,6,-4
1,-8,-10,2,5,-9,-7,9,-22,11,6,-4
1,-8,-10,2,5,-9,-6,9,-22,11,7,-3
0,-9,-9,3,4,-9,-6,9,-22,11,7,-3
0,-9,-10,4,5,-10,-6,9,-22,11,7,-3
0,-9,-10,3,5,-10,-7,9,-21,11,7,-3
0,-9,-10,3,5,-9,-7,10,-21,11,7,-3
-1,-9,-9,4,4,-9,-7,10,-20,12,8,-2
-1,-9,-8,4,4,-9,-7,10,-20,12,8,-2
0,-9,-9,3,4,-9,-7,10,-20,11,7,-3
1,-9,-10,2,5,-9,-7,10,-20,11,7,-3
2,-8,-11,2,6,-9,-7,10,-20,11,6,-4
3,-8,-10,2,6,-9,-7,10,-20,11,6,-4
2,-8,-10,2,6,-8,-7,10,-20,10,6,-4
1,-8,-10,2,5,-9,-7,10,-20,10,5,-4
0,-9,-10,3,5,-9,-7,10,-20,9,5,-4
0,-9,-9,3,5,-9,-7,10,-20,9,5,-4
0,-9,-10,3,5,-10,-8,10,-20,9,6,-4
1,-9,-11,3,6,-10,-8,10,-20,9,6,-4
1,-9,-11,3,6,-10,-7,10,-19,9,6,-3
1,-9,-10,3,6,-9,-7,11,-19,10,7,-3
1,-9,-9,3,6,-9,-7,11,-19,10,7,-2
1,-9,-10,3,6,-10,-7,11,-19,10,7,-2
1,-9,-10,3,6,-10,-8,11,-19,10,7,-3
0,-9,-10,4,5,-10,-8,11,-19,9,7,-3
0,-9,-10,4,5,-10,-8,11,-19,9,7,-3
0,-9,-10,4,5,-10,-8,11,-19,9,7,-3
0,-9,-10,4,5,-10,-8,11,-19,9,7,-3
0,-9,-10,4,5,-10,-8,11,-19,9,7,-3
0,-10,-10,4,5,-10,-8,11,-19,9,7,-3
0,-10,-10,4,5,-10,-9,11,-20,9,6,-3
0,-10,-10,4,5,-10,-9,11,-20,9,6,-3
0,-9,-10,3,5,-9,-9,12,-20,9,7,-3
0,-9,-10,3,5,-9,-9,12,-20,9,7,-3
0,-10,-10,3,5,-10,-9,12,-20,9,6,-4
0,-10,-10,4,5,-10,-9,12,-20,9,6,-4
-1,-10,-9,4,4,-9,-9,13,-20,9,6,-4
-1,-10,-9,4,4,-10,-10,13,-20,8,5,-5
0,-10,-11,4,5,-10,-10,12,-21,8,5,-6
0,-10,-11,3,6,-11,-11,12,-21,7,5,-6
0,-10,-11,3,6,-10,-11,12,-21,7,5,-5
1,-9,-12,2,7,-10,-11,12,-21,7,5,-5
2,-9,-12,2,7,-10,-11,13,-21,8,5,-5
1,-9,-11,2,6,-10,-11,13,-20,8,5,-5
0,-9,-10,3,5,-9,-10,14,-20,8,5,-4
0,-9,-10,3,5,-9,-10,14,-20,8,5,-4
0,-9,-10,3,5,-9,-10,14,-20,7,5,-4
0,-9,-11,3,6,-10,-10,14,-21,7,5,-5
0,-10,-11,4,6,-10,-10,13,-21,7,5,-5
0,-10,-11,4,5,-10,-10,13,-21,7,5,-5
0,-10,-10,4,4,-10,-10,13,-21,7,5,-6
0,-10,-10,4,4,-10,-11,13,-22,6,5,-6
0,-10,-10,4,4,-10,-11,14,-22,6,5,-6
0,-10,-10,4,5,-10,-11,14,-21,7,5,-5
0,-11,-11,4,5,-11,-12,14,-21,6,5,-6
0,-11,-12,5,6,-11,-12,14,-21,6,5,-6
0,-11,-12,5,6,-12,-12,14,-21,6,5,-6
0,-11,-12,5,6,-12,-12,15,-21,7,5,-6
-1,-11,-12,5,6,-12,-13,15,-21,7,6,-6
0,-11,-12,5,6,-12,-13,15,-21,7,6,-6
0,-11,-12,4,6,-12,-14,15,-21,6,6,-6
0,-11,-11,4,6,-11,-13,15,-21,6,6,-6
-1,-11,-10,5,5,-11,-13,15,-20,6,5,-6
-1,-11,-10,5,5,-11,-13,15,-21,5,5,-6
0,-11,-10,4,6,-11,-13,15,-21,5,5,-7
-1,-11,-10,4,5,-10,-12,16,-20,6,5,-7
-2,-11,-9,5,4,-10,-12,16,-20,6,6,-6
-2,-11,-10,5,4,-10,-12,16,-20,6,6,-6
-2,-11,-10,5,4,-11,-12,16,-20,6,6,-7
-2,-11,-10,5,4,-11,-12,16,-20,6,6,-7
-2,-11,-10,5,5,-10,-12,16,-20,6,6,-7
-2,-11,-9,5,4,-10,-12,16,-20,6,6,-6
-2,-10,-9,5,4,-10,-12,16,-20,6,6,-6
-2,-10,-9,5,4,-10,-12,17,-20,6,6,-6
-1,-10,-10,5,5,-10,-13,17,-20,6,6,-6
-1,-10,-10,4,5,-10,-13,17,-20,6,6,-6
-1,-10,-10,4,5,-10,-13,17,-20,6,6,-6
-1,-10,-10,4,5,-10,-13,17,-20,6,6,-7
-2,-10,-9,5,4,-10,-13,17,-20,6,6,-7
-2,-10,-9,5,4,-10,-13,17,-20,6,6,-7
-2,-10,-9,5,4,-10,-13,17,-19,6,6,-7
-2,-10,-9,5,4,-10,-13,17,-19,6,6,-7
-2,-10,-9,5,4,-10,-13,17,-19,6,6,-7
-2,-10,-10,5,4,-10,-13,17,-19,6,6,-7
-1,-11,-10,5,4,-10,-13,16,-19,6,6,-7
-1,-11,-10,5,5,-10,-13,16,-19,6,6,-7
-1,-10,-10,4,5,-10,-13,16,-19,6,7,-7
-1,-10,-9,4,4,-10,-13,16,-19,6,7,-7
-1,-10,-9,4,4,-10,-13,17,-19,6,7,-7
-1,-10,-9,4,4,-10,-13,17,-19,6,7,-8
-1,-10,-9,4,4,-10,-13,17,-19,6,7,-8
-2,-10,-8,5,3,-9,-13,18,-18,6,7,-7
-3,-9,-6,5,2,-8,-13,18,-18,6,7,-7
-3,-9,-7,5,2,-8,-13,18,-18,5,7,-8
-2,-9,-7,5,2,-8,-14,17,-18,5,7,-8
-2,-9,-7,5,2,-8,-13,18,-18,5,7,-8
-3,-10,-7,5,2,-8,-13,18,-18,6,8,-7
-3,-10,-8,5,3,-9,-12,18,-18,6,9,-7
-2,-11,-9,5,4,-10,-12,18,-17,6,9,-7
-2,-11,-10,5,4,-11,-12,19,-17,6,9,-8
-1,-12,-11,5,5,-11,-12,19,-17,6,9,-8
-1,-12,-11,6,5,-12,-12,20,-16,6,9,-7
-1,-13,-12,6,5,-12,-12,21,-16,6,9,-7
-1,-12,-12,6,5,-12,-12,21,-16,6,9,-7
-1,-12,-12,6,5,-12,-12,22,-15,7,9,-7
-1,-12,-11,6,5,-11,-12,22,-15,7,10,-7
-1,-11,-10,6,4,-11,-12,22,-15,7,10,-7
-1,-11,-10,6,4,-11,-12,22,-16,7,10,-7
-2,-11,-10,6,4,-11,-11,22,-16,7,10,-6
-2,-12,-10,6,4,-11,-11,23,-16,7,10,-6
-2,-12,-10,6,4,-11,-11,23,-16,7,9,-6
-1,-12,-11,6,4,-11,-11,23,-16,6,9,-7
-1,-12,-11,6,5,-12,-11,23,-16,7,9,-7
-1,-12,-11,6,4,-12,-11,23,-16,7,9,-7
-2,-12,-11,6,4,-11,-11,24,-15,7,9,-6
-2,-12,-11,5,4,-11,-11,24,-15,7,10,-6
-1,-12,-11,5,5,-12,-11,24,-15,7,10,-6
0,-11,-12,4,6,-12,-11,24,-15,7,10,-6
1,-11,-12,4,7,-12,-11,24,-16,7,9,-7
1,-10,-12,3,7,-11,-11,24,-15,7,9,-7
1,-10,-11,4,6,-11,-11,24,-15,7,9,-7
0,-10,-10,4,5,-10,-11,25,-14,7,9,-7
-1,-10,-10,4,4,-10,-11,25,-14,7,9,-7
-1,-10,-10,4,4,-10,-11,25,-14,7,9,-7
-1,-10,-10,4,4,-10,-11,25,-14,8,9,-7
-1,-10,-9,5,4,-10,-11,25,-14,8,10,-7
-1,-10,-9,5,4,-10,-11,25,-14,8,10,-6
-1,-10,-10,5,5,-10,-11,25,-14,8,10,-6
0,-9,-10,4,5,-10,-11,25,-14,8,10,-6
0,-9,-10,4,5,-10,-11,25,-14,8,10,-6
0,-9,-10,4,5,-10,-11,25,-14,8,10,-6
0,-9,-9,4,5,-10,-11,25,-14,8,9,-6
0,-9,-9,4,4,-10,-11,25,-14,8,9,-6
0,-9,-10,4,4,-10,-11,25,-14,8,9,-6
0,-9,-10,4,5,-10,-11,25,-14,8,9,-7
0,-9,-10,4,5,-10,-11,25,-14,8,9,-7
0,-9,-9,4,4,-9,-11,26,-13,8,9,-7
-1,-9,-8,5,3,-8,-11,26,-13,8,10,-7
-1,-9,-8,5,3,-8,-12,26,-13,8,10,-7
-1,-9,-8,4,3,-8,-12,26,-14,7,10,-8
0,-8,-8,4,3,-9,-12,26,-14,7,10,-8
0,-8,-9,4,4,-9,-12,26,-14,7,10,-8
0,-9,-9,4,4,-9,-12,26,-14,7,10,-7
0,-9,-9,4,4,-9,-12,26,-14,7,10,-7
0,-9,-9,4,4,-9,-12,26,-14,7,10,-7
-1,-9,-9,4,4,-9,-12,26,-14,8,10,-7
0,-9,-9,4,4,-9,-12,27,-14,8,10,-7
0,-9,-9,4,4,-9,-12,27,-14,8,10,-7
0,-9,-9,4,4,-9,-12,27,-14,8,10,-7
-1,-9,-8,4,4,-9,-12,27,-14,8,10,-7
-1,-9,-8,4,4,-8,-12,27,-14,8,10,-7
-1,-9,-8,4,4,-8,-12,27,-14,8,10,-7
-1,-9,-9,4,4,-9,-12,28,-14,8,10,-7
-1,-9,-9,4,4,-9,-12,28,-14,8,10,-7
-1,-9,-9,4,4,-9,-12,27,-14,8,10,-6
-1,-9,-9,4,4,-9,-12,27,-14,8,10,-6
-1,-9,-8,4,3,-8,-13,27,-14,8,10,-6
-1,-9,-7,4,3,-8,-13,27,-14,8,10,-6
-1,-8,-7,4,3,-8,-13,28,-13,9,11,-6
0,-7,-8,3,4,-7,-13,28,-13,9,11,-5
0,-6,-7,2,4,-6,-14,28,-12,10,13,-4
0,-5,-5,2,3,-5,-14,29,-12,12,15,-2
0,-4,-5,2,3,-5,-14,29,-11,14,17,0
1,-3,-4,1,3,-4,-15,29,-10,16,20,2
2,-2,-4,0,3,-4,-16,28,-10,18,24,5
2,-1,-4,-1,3,-3,-16,28,-9,20,27,8
3,0,-4,-2,3,-2,-17,28,-8,23,31,10
6,0,-6,-3,5,-3,-18,29,-7,25,35,12
9,0,-10,-4,9,-5,-19,30,-5,28,37,12
11,-1,-13,-5,12,-7,-19,32,-5,29,39,12
13,-3,-16,-5,15,-9,-20,33,-5,30,39,12
15,-4,-20,-5,18,-12,-21,34,-6,30,40,12
17,-6,-24,-6,21,-15,-22,35,-6,30,40,13
19,-8,-28,-6,23,-18,-23,36,-6,30,41,13
20,-11,-31,-5,26,-21,-23,38,-7,29,40,12
23,-13,-36,-6,29,-24,-25,40,-7,29,40,10
27,-14,-40,-7,34,-26,-26,42,-7,29,39,8
29,-14,-44,-8,37,-29,-26,45,-6,28,35,4
30,-16,-46,-7,39,-31,-26,49,-5,26,29,-1
30,-19,-49,-6,40,-34,-24,54,-2,25,21,-8
30,-24,-54,-3,42,-39,-22,61,1,23,13,-16
30,-30,-59,0,45,-45,-19,70,6,22,6,-24
28,-35,-63,3,46,-49,-16,78,11,21,-1,-27
27,-40,-66,5,46,-53,-13,85,13,17,-9,-26
26,-43,-68,8,47,-55,-11,89,14,12,-17,-26
24,-45,-69,10,47,-57,-9,92,13,5,-25,-27
22,-47,-68,12,45,-57,-7,94,13,-1,-33,-29
17,-47,-64,14,41,-56,-5,96,12,-8,-40,-30
12,-47,-60,17,37,-54,-2,97,10,-15,-47,-33
8,-48,-56,19,33,-52,0,98,8,-23,-54,-36
4,-47,-51,20,28,-49,2,97,6,-30,-60,-40
-1,-45,-43,22,21,-44,5,96,4,-38,-66,-43
-7,-42,-34,24,14,-39,8,92,1,-46,-71,-46
-12,-39,-27,25,8,-33,10,87,-3,-52,-74,-47
-16,-36,-20,25,2,-28,12,81,-7,-57,-76,-47
-20,-33,-13,26,-3,-23,15,76,-10,-60,-76,-46
-24,-31,-6,27,-8,-18,17,71,-12,-61,-75,-44
-28,-28,0,28,-13,-14,19,66,-15,-62,-73,-42
-31,-26,6,28,-18,-10,21,60,-20,-63,-71,-40
-33,-23,11,27,-22,-6,22,53,-26,-65,-69,-38
-35,-20,15,27,-25,-2,22,47,-31,-64,-65,-36
-35,-16,19,26,-27,1,22,41,-34,-62,-60,-32
-35,-13,22,24,-28,5,21,38,-34,-57,-53,-27
-34,-10,23,22,-28,6,20,37,-33,-51,-46,-21
-32,-8,24,19,-27,8,18,36,-32,-46,-40,-16
-30,-6,24,17,-27,9,17,32,-30,-40,-34,-12
-28,-4,24,15,-26,9,16,26,-28,-35,-29,-9
-27,-3,24,14,-25,10,15,22,-25,-31,-24,-7
-26,-2,24,13,-25,11,14,18,-24,-27,-20,-5
-24,-1,24,12,-24,11,13,14,-23,-25,-17,-3
-23,0,23,11,-23,12,12,12,-23,-22,-14,-1
-22,1,23,10,-22,12,11,10,-22,-20,-11,1
-22,1,23,10,-22,12,10,9,-21,-19,-9,2
-22,0,22,10,-22,11,10,8,-21,-17,-8,3
-21,0,21,10,-21,11,10,7,-21,-16,-7,3
-21,0,21,10,-21,10,10,7,-20,-14,-5,3
-20,0,21,10,-21,10,9,7,-20,-13,-4,3
-20,0,21,9,-21,11,9,5,-19,-13,-4,3
-20,1,23,9,-22,12,10,4,-19,-12,-2,4
-22,2,25,9,-23,14,11,2,-19,-12,-1,6
-23,3,26,9,-24,15,11,0,-20,-11,0,7
-23,3,26,9,-24,15,12,-1,-21,-11,0,7
-23,3,26,9,-24,15,12,-2,-21,-10,1,8
-22,3,27,9,-24,15,12,-3,-21,-10,1,8
-22,4,27,8,-24,15,13,-3,-21,-9,2,8
-22,4,27,8,-25,16,14,-3,-20,-9,2,8
-23,5,28,8,-25,17,16,-4,-20,-8,2,8
-23,5,29,8,-26,18,17,-4,-19,-8,3,8
-23,5,29,8,-26,18,19,-5,-19,-7,4,8
-23,6,29,8,-26,18,20,-6,-19,-6,5,8
-23,6,29,8,-26,18,20,-8,-19,-6,5,8
-24,5,29,8,-26,17,21,-9,-19,-6,5,8
-24,5,29,9,-26,17,21,-10,-20,-5,5,9
-24,4,28,9,-25,16,21,-13,-21,-6,5,9
-23,4,28,9,-25,16,19,-16,-22,-6,5,9
-23,5,28,8,-25,16,17,-20,-23,-7,6,10
-22,6,28,7,-25,17,15,-22,-24,-7,6,10
-22,7,30,6,-25,18,12,-24,-24,-6,7,11
-22,8,30,5,-25,19,10,-25,-23,-5,8,12
-21,9,30,4,-25,19,7,-26,-23,-4,9,13
-20,10,30,3,-24,20,5,-26,-22,-4,10,13
-19,10,30,3,-24,20,4,-26,-21,-3,12,14
-18,11,30,2,-24,21,3,-26,-20,-2,13,15
-18,12,30,2,-24,21,3,-26,-19,-1,14,15
-17,13,30,1,-23,21,2,-26,-18,0,15,16
-16,13,30,0,-22,21,2,-26,-18,0,15,16
-16,14,31,0,-22,22,1,-26,-17,1,16,16
-16,15,31,0,-23,22,1,-26,-17,1,16,17
-16,15,31,0,-23,23,0,-26,-17,2,17,17
-16,15,32,0,-24,23,0,-27,-16,2,17,17
-16,15,32,0,-23,23,0,-27,-16,3,18,17
-15,15,31,-1,-22,22,0,-28,-16,3,18,17
-14,15,29,-1,-21,22,-1,-28,-16,3,18,17
-14,15,29,-1,-20,22,-1,-29,-16,3,18,17
-14,15,29,-1,-20,22,-1,-29,-15,4,18,18
-14,16,30,-1,-21,22,-1,-29,-15,4,18,18
-15,16,31,-1,-22,23,-1,-29,-15,5,18,18
-15,15,31,-1,-23,23,-1,-30,-15,5,19,18
-14,16,31,-1,-22,23,0,-31,-15,5,19,18
-14,16,30,-2,-22,23,0,-31,-15,5,20,18
-14,16,30,-2,-22,23,0,-32,-15,5,20,18
-14,16,30,-2,-22,23,0,-32,-15,5,20,18
-15,16,30,-1,-22,23,0,-33,-15,5,20,18
-14,15,30,-1,-22,23,0,-34,-16,5,20,18
-14,15,30,-1,-22,23,0,-35,-16,5,20,18
-14,15,30,-1,-22,23,0,-35,-15,5,21,19
-14,15,31,-1,-22,23,0,-36,-15,5,21,19
-14,16,31,-2,-22,23,0,-36,-16,5,21,19
-13,17,31,-2,-21,24,0,-37,-16,5,21,19
-13,18,32,-2,-22,24,0,-37,-16,5,22,19
-13,18,32,-3,-22,24,0,-37,-16,4,22,19
-12,19,31,-3,-21,24,0,-37,-16,4,21,19
-11,18,31,-4,-21,24,0,-37,-16,3,21,19
-11,18,30,-4,-20,24,0,-37,-16,3,21,19
-12,18,31,-4,-21,24,0,-37,-16,3,22,19
-13,18,32,-3,-22,24,1,-37,-15,3,22,20
-14,18,32,-3,-22,24,1,-37,-15,3,23,20
-14,18,32,-3,-22,24,0,-37,-15,2,23,20
-13,18,31,-3,-21,24,0,-38,-15,2,23,21
-12,19,31,-3,-21,25,1,-38,-15,2,23,21
-12,19,31,-3,-21,25,1,-38,-16,2,23,22
-12,19,31,-4,-21,25,1,-38,-16,2,22,22
-12,19,31,-4,-21,25,1,-39,-16,1,22,22
-12,20,32,-4,-21,26,1,-39,-16,1,23,23
-13,20,33,-4,-22,26,1,-39,-16,1,23,23
-12,20,33,-4,-22,26,1,-40,-16,1,23,24
-12,20,32,-5,-21,26,0,-40,-16,0,23,24
-11,21,32,-5,-21,26,0,-40,-16,0,23,24
-11,21,33,-5,-21,26,0,-40,-16,0,23,24
-11,21,33,-5,-21,27,0,-41,-17,0,23,24
-11,21,33,-5,-21,27,0,-41,-17,0,23,24
-11,21,34,-5,-22,27,0,-42,-17,0,23,24
-12,22,34,-6,-22,28,0,-42,-17,0,23,24
-12,22,34,-6,-22,28,0,-42,-17,0,23,24
-11,22,34,-7,-22,28,0,-42,-17,0,22,24
-11,23,33,-7,-22,28,0,-42,-17,0,22,25
-10,23,33,-7,-22,28,0,-42,-18,0,22,25
-10,23,34,-7,-22,29,0,-43,-18,0,21,25
-10,24,34,-7,-22,29,0,-43,-19,-1,20,25
-10,24,34,-7,-22,29,0,-44,-19,-2,19,25
-10,24,34,-8,-21,29,0,-45,-20,-2,19,25
-10,24,34,-8,-22,29,0,-45,-20,-3,18,25
-10,24,34,-7,-22,29,-1,-46,-21,-3,18,25
-10,24,34,-7,-22,29,-1,-46,-21,-4,18,25
-10,24,35,-7,-22,29,-1,-47,-22,-3,18,26
-10,24,35,-7,-22,30,-1,-47,-22,-3,18,27
-11,23,35,-7,-22,30,-1,-47,-23,-4,16,27
-11,23,35,-7,-22,29,-1,-48,-24,-5,14,28
-10,24,34,-8,-22,29,-2,-49,-24,-5,12,28
-9,24,34,-8,-21,29,-2,-50,-25,-6,11,28
-9,25,34,-8,-21,29,-2,-50,-25,-6,9,28
-9,25,34,-8,-21,29,-2,-50,-26,-6,8,28
-9,25,34,-8,-22,30,-2,-50,-27,-7,6,28
-9,25,34,-8,-21,29,-3,-51,-28,-8,4,28
-7,25,32,-9,-20,29,-3,-53,-30,-9,2,28
-7,25,32,-10,-20,29,-3,-54,-31,-9,1,28
-7,26,33,-10,-20,29,-4,-55,-31,-10,0,28
-6,26,33,-11,-19,30,-4,-55,-32,-10,-2,28
-6,26,32,-11,-19,30,-5,-56,-33,-11,-3,28
-6,26,33,-11,-19,30,-5,-57,-34,-12,-4,28
-6,27,33,-11,-19,30,-5,-58,-35,-13,-5,28
-6,27,33,-11,-19,30,-6,-59,-36,-14,-7,28
-7,26,33,-10,-20,30,-6,-60,-37,-14,-8,28
-7,26,32,-10,-19,30,-7,-61,-38,-15,-9,28
-6,26,32,-10,-18,29,-7,-62,-39,-16,-10,28
-5,26,31,-11,-18,29,-8,-63,-40,-17,-11,28
-5,25,30,-11,-17,28,-8,-64,-42,-17,-13,29
-5,25,30,-11,-17,28,-8,-65,-44,-18,-14,29
-5,25,31,-10,-18,28,-9,-66,-46,-19,-15,29
-5,25,30,-10,-17,27,-9,-67,-48,-21,-17,29
-4,24,28,-11,-15,26,-10,-69,-50,-22,-18,28
-3,24,27,-11,-15,26,-11,-70,-52,-23,-19,28
-4,24,28,-10,-15,26,-11,-71,-53,-24,-20,29
-4,24,28,-10,-16,26,-11,-72,-54,-25,-21,29
-4,23,27,-10,-16,26,-11,-73,-56,-26,-22,28
-3,23,26,-10,-14,24,-12,-74,-57,-28,-25,27
-2,22,24,-10,-13,23,-12,-75,-59,-29,-27,26
-1,22,24,-11,-12,23,-12,-76,-60,-30,-28,26
-1,22,23,-11,-12,23,-12,-77,-62,-31,-30,26
0,22,22,-11,-11,22,-13,-78,-63,-32,-33,26
0,21,20,-11,-10,21,-13,-79,-64,-33,-35,25
1,20,19,-11,-9,20,-13,-80,-65,-34,-36,24
1,19,18,-11,-8,19,-13,-81,-66,-35,-38,23
1,18,17,-11,-7,18,-14,-81,-67,-36,-39,22
0,18,17,-10,-7,17,-14,-82,-68,-37,-40,21
0,17,16,-9,-7,16,-14,-82,-69,-38,-42,20
1,16,14,-8,-6,15,-14,-82,-70,-40,-44,19
1,15,13,-8,-5,14,-15,-83,-71,-41,-47,18
1,14,12,-8,-4,13,-15,-84,-72,-42,-50,17
2,13,10,-8,-4,12,-15,-84,-73,-43,-52,16
2,11,9,-8,-3,11,-15,-85,-74,-44,-54,14
3,10,7,-8,-2,9,-16,-85,-75,-45,-56,12
3,10,7,-7,-1,8,-16,-85,-76,-45,-58,10
1,9,8,-6,-2,8,-15,-84,-76,-45,-58,9
0,8,8,-5,-3,8,-14,-83,-76,-45,-59,8
0,7,6,-4,-2,6,-14,-83,-77,-46,-60,7
1,6,5,-4,0,5,-15,-83,-77,-47,-61,5
2,5,3,-4,0,4,-15,-83,-78,-47,-61,4
2,5,3,-4,1,4,-15,-83,-78,-48,-60,3
2,5,3,-4,0,3,-15,-82,-78,-48,-60,2
2,4,2,-3,0,3,-15,-81,-78,-48,-59,1
2,3,1,-3,1,2,-14,-80,-78,-48,-59,0
1,2,0,-2,1,1,-14,-79,-77,-48,-59,-1
1,0,-1,-2,2,0,-13,-79,-77,-48,-60,-3
1,0,-1,-1,2,-1,-13,-78,-76,-47,-61,-3
0,-1,-1,-1,2,-1,-13,-76,-76,-47,-62,-4
0,-1,-2,-1,2,-1,-13,-76,-75,-47,-63,-4
0,-2,-3,0,3,-2,-13,-75,-75,-46,-64,-5
0,-2,-3,0,3,-2,-12,-73,-74,-45,-65,-5
0,-3,-4,0,3,-3,-12,-72,-74,-45,-65,-5
0,-3,-4,0,3,-3,-12,-71,-73,-44,-66,-5
0,-3,-4,0,3,-4,-11,-70,-72,-44,-67,-4
0,-4,-4,1,3,-4,-11,-69,-71,-43,-68,-4
0,-5,-5,1,3,-5,-10,-68,-70,-43,-69,-4
0,-6,-6,2,3,-6,-10,-67,-69,-42,-70,-4
0,-6,-6,2,3,-6,-10,-66,-68,-41,-71,-4
0,-6,-6,2,3,-6,-9,-64,-66,-40,-71,-4
0,-6,-6,2,3,-6,-9,-63,-64,-39,-71,-3
-1,-6,-5,2,2,-6,-8,-62,-62,-38,-71,-3
-1,-7,-6,3,2,-6,-8,-61,-61,-37,-71,-2
0,-7,-6,3,3,-6,-8,-60,-60,-37,-72,-2
0,-7,-6,2,4,-6,-8,-59,-58,-36,-72,-2
0,-7,-5,3,3,-6,-7,-57,-57,-35,-72,-2
-1,-7,-5,4,2,-6,-6,-55,-55,-33,-71,-1
-2,-8,-5,4,2,-7,-6,-54,-53,-32,-70,-1
-2,-7,-6,4,2,-7,-7,-53,-52,-32,-70,-2
-1,-7,-6,3,3,-7,-7,-52,-51,-31,-69,-2
-1,-7,-6,3,3,-7,-7,-51,-50,-30,-68,-2
-2,-7,-6,4,3,-7,-6,-50,-50,-30,-67,-1
-2,-8,-7,4,3,-7,-6,-49,-49,-29,-66,-1
-2,-9,-7,5,3,-7,-6,-48,-48,-28,-66,-1
-2,-9,-7,5,3,-7,-6,-46,-46,-27,-66,-1
-2,-9,-7,5,3,-7,-6,-45,-45,-27,-66,-1
-2,-9,-7,5,3,-7,-6,-43,-45,-26,-66,-1
-2,-8,-7,5,3,-7,-5,-42,-44,-25,-65,-2
-2,-8,-7,5,3,-7,-5,-42,-43,-25,-65,-2
-2,-8,-7,5,3,-7,-5,-41,-42,-25,-64,-2
-1,-8,-7,5,3,-7,-5,-40,-41,-24,-62,-2
-1,-8,-7,5,3,-8,-5,-39,-40,-24,-60,-2
-2,-8,-6,5,2,-8,-5,-37,-38,-23,-57,-2
-3,-9,-6,6,2,-8,-5,-36,-36,-22,-55,-3
-3,-9,-7,6,2,-8,-5,-36,-34,-21,-54,-3
-2,-10,-8,5,3,-9,-5,-35,-32,-21,-54,-4
-1,-10,-9,5,3,-10,-5,-35,-30,-20,-54,-4
-2,-10,-9,5,3,-10,-5,-34,-29,-20,-54,-4
-2,-10,-8,6,3,-9,-5,-34,-27,-19,-54,-4
-3,-11,-8,6,3,-9,-5,-33,-26,-18,-54,-4
-2,-11,-9,6,3,-10,-5,-33,-25,-17,-55,-4
0,-10,-10,5,5,-10,-5,-32,-24,-17,-55,-4
0,-10,-10,5,5,-10,-5,-31,-23,-16,-55,-4
0,-10,-10,5,5,-9,-4,-30,-22,-15,-55,-4
-2,-9,-8,5,3,-8,-3,-29,-21,-14,-55,-5
-3,-9,-7,6,2,-8,-3,-28,-20,-14,-54,-6
-2,-9,-8,5,3,-9,-3,-28,-19,-13,-52,-7
-1,-9,-8,5,3,-9,-4,-28,-19,-13,-48,-8
-2,-9,-7,5,2,-8,-3,-28,-17,-12,-44,-8
-2,-9,-7,6,2,-8,-3,-27,-16,-11,-39,-7
-2,-10,-8,5,3,-9,-3,-26,-16,-10,-35,-7
-1,-10,-9,5,4,-9,-3,-26,-16,-10,-32,-8
-1,-10,-10,5,4,-10,-4,-26,-16,-10,-30,-8
-1,-10,-10,5,5,-10,-4,-26,-15,-10,-28,-9
-1,-10,-10,5,4,-10,-4,-25,-15,-10,-26,-9
-1,-11,-11,6,4,-10,-4,-25,-14,-10,-24,-9
-1,-12,-11,6,4,-11,-4,-25,-14,-9,-22,-9
-1,-12,-11,6,4,-11,-4,-25,-13,-9,-20,-9
-1,-12,-10,6,4,-11,-4,-25,-13,-8,-18,-9
-1,-12,-10,6,4,-11,-4,-24,-12,-8,-17,-8
-2,-12,-9,6,4,-10,-4,-24,-12,-8,-15,-8
-2,-12,-9,7,3,-10,-3,-23,-11,-8,-14,-7
-2,-12,-10,7,3,-11,-3,-23,-11,-8,-14,-7
-2,-12,-11,7,4,-11,-3,-23,-11,-8,-13,-8
-2,-12,-11,7,4,-11,-3,-23,-11,-7,-12,-8
-2,-11,-10,7,4,-10,-3,-22,-11,-7,-11,-7
-2,-11,-9,7,4,-10,-4,-22,-10,-6,-10,-7
-2,-11,-10,7,4,-10,-4,-22,-10,-6,-9,-7
-1,-11,-10,6,4,-11,-4,-22,-10,-7,-8,-7
-1,-11,-10,6,4,-11,-4,-22,-9,-7,-7,-7
-2,-11,-10,6,4,-11,-4,-22,-8,-6,-6,-7
-2,-11,-10,7,3,-11,-3,-21,-8,-5,-5,-6
-2,-11,-10,7,3,-10,-3,-21,-7,-5,-4,-6
-1,-11,-10,6,3,-10,-3,-21,-7,-5,-3,-6
-1,-10,-9,6,3,-9,-2,-20,-6,-4,-2,-6
-1,-10,-9,6,3,-9,-2,-20,-6,-4,-1,-6
0,-9,-9,5,4,-9,-2,-19,-5,-3,0,-5
0,-9,-9,5,4,-9,-1,-19,-5,-3,0,-5
0,-8,-9,4,4,-8,-1,-19,-5,-3,0,-5
0,-8,-8,4,4,-8,-1,-19,-5,-3,1,-5
0,-7,-8,4,4,-7,-1,-19,-4,-2,1,-5
0,-7,-7,4,3,-7,-1,-19,-4,-2,2,-5
-1,-7,-7,4,3,-7,-1,-19,-4,-2,3,-5
0,-7,-7,4,3,-7,-1,-19,-4,-1,3,-5
0,-7,-7,4,3,-7,-1,-18,-3,-1,4,-4
-1,-7,-6,4,2,-6,-1,-18,-3,-1,5,-4
-1,-7,-6,4,2,-6,-1,-18,-3,-1,5,-4
-1,-7,-6,4,2,-6,-1,-18,-3,-1,5,-4
-1,-7,-5,4,2,-6,-1,-18,-2,0,5,-4
-1,-6,-5,4,1,-5,-1,-18,-2,0,5,-4
-1,-6,-4,4,1,-5,-1,-17,-1,0,6,-4
-1,-5,-4,3,1,-4,-1,-17,-1,0,7,-4
0,-4,-3,2,1,-3,-1,-18,0,1,8,-3
0,-3,-3,1,1,-2,-2,-18,0,1,8,-3
1,-2,-3,0,1,-2,-2,-19,0,1,8,-2
1,-1,-3,0,1,-1,-3,-19,0,1,9,-2
1,-1,-2,0,1,-1,-3,-20,0,1,9,-1
2,0,-2,0,1,0,-4,-21,0,1,9,-1
3,0,-2,-1,2,0,-4,-22,0,1,9,-1
3,0,-2,-2,2,0,-5,-22,0,1,9,-1
2,0,-1,-1,1,0,-5,-22,0,2,10,0
1,1,0,-1,0,1,-4,-22,0,2,11,0
0,1,1,0,-1,1,-4,-22,0,2,11,0
0,1,1,-1,-1,1,-5,-23,0,2,11,0
1,1,0,-1,0,1,-5,-23,0,2,11,0
2,1,0,-2,1,1,-5,-23,0,2,11,0
2,2,0,-2,1,1,-4,-23,0,2,11,1
2,2,0,-2,0,1,-4,-23,0,3,11,1
2,2,0,-2,1,1,-4,-23,0,3,12,1
3,2,-1,-3,1,1,-4,-23,0,2,12,1
3,2,-1,-3,2,1,-4,-23,-1,2,12,1
3,2,0,-3,1,2,-3,-23,-1,3,12,2
2,2,0,-2,1,2,-3,-22,0,4,12,2
2,2,1,-2,0,2,-2,-22,0,4,12,2
1,2,1,-1,0,2,-2,-22,0,4,12,2
0,2,1,-1,-1,2,-2,-22,0,4,12,2
0,2,2,-1,-1,2,-2,-22,0,4,12,2
-1,1,2,0,-2,2,-2,-22,0,4,12,2
-1,0,2,0,-2,1,-2,-23,0,3,11,1
-2,-1,2,1,-3,1,-1,-23,0,3,11,0
-3,-2,2,2,-3,0,-1,-24,0,2,9,0
-3,-2,1,3,-2,0,-1,-24,-1,1,8,-1
-4,-3,1,3,-3,0,-1,-24,-2,1,8,-1
-4,-3,1,3,-3,0,-1,-24,-2,1,7,-1
-4,-3,1,3,-3,0,-1,-24,-2,1,7,-1
-4,-3,1,3,-3,0,-1,-24,-2,0,6,-2
-3,-3,0,3,-2,-1,-1,-24,-2,0,6,-2
-3,-4,0,3,-2,-1,-1,-24,-2,0,6,-3
-3,-4,-1,4,-2,-2,-1,-24,-2,-1,6,-3
-4,-5,0,5,-2,-2,-1,-24,-1,-1,5,-4
-4,-5,-1,5,-2,-2,-1,-24,-1,-1,4,-4
-4,-5,-1,5,-1,-2,-1,-24,-1,-1,4,-4
-3,-5,-1,5,-1,-2,-1,-24,-1,0,4,-4
-3,-5,-2,5,-1,-3,-1,-24,-1,0,5,-4
-3,-6,-2,5,-1,-4,-1,-25,-1,0,5,-4
-3,-6,-2,5,0,-4,-1,-25,-1,0,5,-3
-3,-6,-2,5,0,-5,-1,-24,0,0,6,-3
-3,-7,-2,5,-1,-5,-1,-24,0,0,6,-3
-4,-7,-2,6,-1,-5,-1,-24,0,-1,6,-3
-5,-7,-3,7,-1,-5,-1,-24,0,-1,6,-4
-5,-8,-3,7,0,-6,-1,-24,0,-1,6,-4
-4,-9,-4,7,0,-6,-1,-25,-1,-2,6,-4
-4,-9,-5,6,0,-6,0,-25,-1,-2,5,-4
-4,-9,-5,6,0,-6,0,-25,-1,-2,5,-4
-3,-9,-5,6,0,-7,0,-25,-1,-2,5,-4
-3,-9,-6,6,1,-7,0,-25,-1,-2,4,-5
-3,-9,-6,6,1,-7,0,-25,-1,-3,3,-5
-4,-9,-6,6,1,-7,0,-24,-1,-2,3,-5
-4,-9,-5,7,0,-7,0,-24,-1,-2,3,-5
-4,-9,-5,7,0,-7,0,-24,-1,-2,2,-5
-4,-9,-5,7,0,-7,0,-24,-1,-3,2,-5
-3,-9,-6,7,1,-7,0,-23,-1,-3,2,-5
-3,-9,-6,7,1,-7,0,-23,-1,-3,1,-5
-3,-10,-6,7,1,-8,0,-23,-1,-3,1,-5
-3,-10,-6,7,1,-8,0,-23,-1,-3,0,-5
-3,-10,-7,7,1,-8,0,-23,-1,-3,-1,-5
-2,-10,-7,7,2,-9,0,-23,0,-3,-2,-6
-2,-10,-8,7,2,-9,0,-23,0,-3,-2,-6
-3,-10,-7,8,1,-8,0,-22,0,-2,-2,-5
-4,-10,-6,8,1,-8,0,-22,1,-2,-3,-5
-4,-11,-6,8,1,-8,0,-22,1,-3,-5,-5
-4,-11,-6,8,1,-8,-1,-22,1,-3,-9,-5
-4,-11,-6,8,1,-8,-1,-22,1,-3,-14,-5
-4,-11,-6,8,1,-8,-1,-22,1,-3,-20,-5
-4,-11,-6,8,0,-8,-1,-22,1,-3,-28,-5
-5,-11,-6,8,0,-8,-1,-22,1,-3,-38,-5
-5,-11,-6,9,1,-8,-1,-22,0,-3,-49,-6
-4,-11,-7,9,1,-8,-1,-22,0,-3,-59,-6
-4,-11,-7,8,1,-8,-1,-22,0,-3,-66,-6
-4,-11,-7,8,1,-8,-1,-21,0,-3,-68,-6
-4,-11,-7,8,1,-9,-1,-21,0,-3,-64,-6
-3,-11,-8,7,2,-9,-1,-20,0,-3,-58,-6
-4,-11,-7,7,1,-8,-1,-20,0,-2,-52,-6
-4,-11,-7,8,1,-8,-1,-19,0,-2,-47,-6
-4,-11,-7,8,1,-8,-1,-19,0,-2,-43,-6
-4,-11,-7,8,1,-8,-1,-18,0,-2,-39,-6
-3,-11,-8,8,2,-9,-1,-18,0,-3,-37,-6
-3,-11,-8,8,2,-9,-1,-18,-1,-3,-35,-6
-3,-11,-8,8,2,-9,-1,-18,-1,-3,-33,-6
-4,-11,-7,8,1,-9,-1,-17,0,-3,-30,-6
-5,-11,-7,9,0,-9,-1,-17,-1,-3,-28,-6
-5,-12,-7,9,0,-10,-2,-17,-1,-3,-27,-6
-6,-13,-7,10,0,-10,-1,-17,-1,-3,-25,-6
-6,-13,-7,10,0,-9,-1,-17,-1,-3,-24,-5
-5,-13,-7,10,0,-9,-1,-17,-1,-3,-23,-5
-5,-13,-7,10,1,-9,-1,-17,-1,-3,-22,-5
-4,-12,-7,10,1,-9,-1,-17,-1,-3,-22,-5
-4,-12,-7,9,1,-10,-1,-17,-1,-3,-21,-5
-5,-13,-7,9,1,-10,-1,-17,-1,-3,-21,-5
-5,-13,-7,9,1,-10,-1,-16,-1,-3,-20,-5
-5,-13,-8,9,1,-10,-1,-16,-2,-3,-20,-5
-4,-12,-8,8,2,-10,-1,-15,-2,-3,-19,-5
-3,-12,-8,8,2,-10,-1,-15,-2,-3,-19,-5
-3,-12,-8,8,2,-10,-1,-15,-2,-3,-18,-5
-3,-12,-9,8,2,-10,-1,-15,-3,-3,-18,-5
-4,-13,-9,9,2,-10,-1,-14,-3,-3,-18,-5
-4,-13,-8,9,2,-10,-1,-14,-3,-3,-17,-5
-4,-13,-8,9,2,-10,-1,-14,-4,-3,-16,-5
-4,-14,-9,9,2,-11,-1,-14,-4,-4,-16,-5
-5,-14,-9,9,2,-11,-1,-14,-4,-4,-15,-5
-6,-14,-8,10,1,-11,-1,-14,-3,-4,-15,-5
-6,-14,-8,11,0,-11,-1,-14,-3,-4,-15,-5
-6,-15,-8,11,1,-11,-1,-14,-4,-5,-15,-5
-5,-15,-9,11,1,-12,-1,-14,-4,-5,-15,-6
-6,-15,-8,11,1,-11,0,-13,-3,-5,-14,-5
-6,-15,-8,11,0,-11,0,-12,-3,-5,-14,-5
-5,-15,-10,11,2,-12,0,-12,-3,-5,-14,-5
-4,-15,-11,10,3,-12,-1,-12,-3,-6,-14,-5
-5,-14,-10,11,2,-12,-1,-12,-3,-6,-13,-5
-6,-14,-9,11,1,-11,-1,-11,-3,-6,-13,-4
-6,-15,-9,11,1,-12,-1,-11,-3,-6,-13,-5
-6,-16,-9,11,1,-12,-1,-11,-3,-6,-13,-5
-6,-16,-10,11,2,-13,-1,-11,-3,-5,-13,-5
-5,-16,-10,11,2,-13,-1,-11,-3,-5,-13,-5
-5,-16,-10,11,3,-13,-1,-11,-3,-6,-13,-5
-4,-16,-10,10,3,-13,-1,-11,-3,-6,-13,-5
-4,-16,-10,10,3,-13,-1,-10,-3,-6,-12,-5
-4,-15,-10,10,3,-12,-1,-10,-3,-6,-12,-5
-4,-15,-10,10,3,-12,-1,-10,-3,-6,-12,-5
-4,-15,-10,10,3,-12,-1,-9,-3,-6,-12,-5
-4,-15,-10,10,3,-12,-2,-9,-3,-6,-12,-5
-4,-15,-11,10,3,-12,-2,-8,-3,-6,-12,-5
-4,-15,-11,10,3,-13,-3,-8,-4,-6,-12,-6
-4,-15,-11,10,4,-13,-3,-8,-4,-6,-12,-6
-4,-15,-11,10,3,-12,-4,-8,-4,-6,-11,-5
-4,-14,-9,10,2,-11,-4,-7,-4,-6,-10,-5
-5,-15,-9,11,2,-11,-4,-7,-4,-6,-9,-5
-5,-15,-9,11,2,-12,-4,-8,-4,-6,-9,-5
-5,-16,-10,11,3,-13,-5,-8,-5,-6,-9,-5
-4,-16,-11,11,3,-13,-5,-8,-5,-6,-9,-5
-5,-16,-10,11,3,-12,-5,-8,-5,-6,-9,-5
-6,-16,-10,11,2,-12,-4,-8,-5,-6,-9,-5
-6,-16,-10,11,2,-13,-4,-8,-5,-6,-9,-5
-5,-16,-11,11,2,-13,-4,-8,-5,-7,-9,-5
-5,-16,-11,11,2,-13,-4,-7,-5,-6,-9,-5
-5,-16,-10,11,2,-13,-4,-7,-5,-6,-8,-5
-4,-16,-11,11,3,-13,-4,-7,-5,-6,-8,-5
-4,-16,-11,11,3,-13,-5,-7,-5,-6,-7,-5
-4,-15,-11,11,3,-13,-5,-7,-5,-6,-7,-5
-4,-15,-10,11,3,-13,-6,-7,-5,-6,-7,-5
-5,-16,-11,12,3,-13,-6,-7,-4,-6,-7,-5
-5,-17,-11,12,3,-14,-6,-6,-4,-6,-6,-4
-5,-16,-11,11,3,-14,-6,-6,-4,-6,-6,-4
-4,-16,-11,11,3,-13,-6,-6,-3,-6,-6,-4
-4,-16,-11,11,3,-13,-6,-6,-3,-6,-6,-4
-5,-16,-11,11,3,-13,-6,-6,-3,-6,-6,-4
-5,-16,-11,12,3,-13,-6,-6,-3,-6,-6,-4
-6,-16,-10,12,2,-13,-6,-6,-2,-6,-6,-4
-6,-16,-10,12,2,-12,-7,-6,-2,-6,-5,-4
-5,-15,-10,11,2,-12,-7,-6,-2,-6,-5,-4
-5,-15,-10,11,2,-12,-7,-6,-2,-6,-5,-4
-5,-15,-9,11,2,-12,-8,-6,-2,-6,-5,-4
-5,-16,-10,11,2,-12,-8,-6,-2,-6,-5,-4
-5,-16,-11,11,3,-13,-9,-6,-2,-6,-5,-4
-4,-16,-11,11,3,-13,-9,-5,-2,-6,-5,-4
-5,-15,-11,11,3,-13,-9,-5,-2,-6,-4,-4
-5,-15,-11,11,2,-13,-9,-5,-2,-6,-4,-4
-5,-16,-11,11,2,-13,-9,-5,-2,-6,-4,-4
-5,-15,-10,11,2,-12,-8,-4,-2,-6,-4,-3
-5,-15,-10,11,2,-12,-8,-4,-2,-5,-4,-3
-5,-15,-10,11,2,-12,-8,-3,-2,-5,-4,-3
-5,-15,-10,11,2,-12,-8,-3,-2,-5,-4,-3
-5,-15,-10,11,2,-12,-8,-3,-2,-5,-4,-4
-5,-15,-10,11,2,-12,-8,-3,-2,-5,-4,-4
-5,-15,-10,11,2,-12,-8,-3,-2,-5,-4,-4
-5,-15,-9,11,2,-12,-9,-2,-2,-5,-4,-3
-4,-15,-10,10,2,-12,-9,-2,-2,-6,-4,-3
-4,-15,-10,10,3,-12,-10,-2,-2,-6,-3,-3
-4,-15,-10,10,3,-13,-10,-2,-2,-6,-3,-3
-3,-15,-11,10,4,-13,-10,-2,-2,-6,-3,-3
-3,-15,-11,10,4,-12,-10,-1,-2,-6,-3,-3
-4,-14,-10,10,3,-12,-10,-1,-1,-6,-2,-2
-4,-14,-10,10,2,-12,-10,-1,-1,-6,-2,-2
-4,-14,-11,10,3,-12,-10,-1,-1,-6,-2,-3
-3,-14,-11,10,4,-13,-10,-1,-1,-6,-3,-3
-2,-14,-11,9,4,-13,-10,-1,-1,-6,-3,-3
-3,-14,-11,9,4,-13,-9,-1,-1,-6,-3,-3
-3,-14,-10,9,3,-12,-9,0,-1,-6,-3,-4
-4,-14,-9,10,2,-12,-8,0,0,-6,-2,-4
-5,-14,-9,10,1,-12,-8,0,0,-6,-2,-5
-6,-15,-9,11,1,-12,-8,0,0,-6,-2,-5
-5,-15,-10,11,2,-12,-8,1,-1,-6,-2,-6
-5,-15,-10,11,2,-12,-8,1,-1,-6,-1,-7
-4,-14,-9,10,2,-11,-8,2,0,-5,-1,-6
-3,-14,-10,9,3,-11,-8,2,0,-5,0,-6
-3,-14,-10,9,3,-11,-8,2,0,-5,0,-6
-3,-14,-10,9,3,-11,-8,1,0,-6,0,-6
-3,-14,-10,9,3,-12,-8,1,0,-6,0,-6
-4,-14,-10,9,3,-12,-8,1,0,-6,0,-6
-4,-14,-10,9,3,-12,-8,1,0,-6,0,-6
-4,-14,-10,10,3,-12,-8,2,0,-6,0,-6
-4,-15,-10,10,3,-12,-8,2,0,-6,0,-6
-5,-15,-10,11,2,-13,-9,2,0,-6,0,-6
-5,-16,-10,11,2,-13,-9,2,0,-6,1,-6
-5,-16,-10,11,2,-13,-9,2,0,-6,1,-6
-5,-15,-10,11,2,-12,-9,2,0,-6,2,-5
-5,-14,-10,10,2,-12,-9,3,1,-6,2,-5
-5,-14,-9,10,2,-11,-9,3,1,-6,3,-4
-5,-13,-9,9,2,-11,-9,3,2,-5,4,-4
-5,-13,-9,9,2,-11,-10,3,2,-4,5,-3
-4,-13,-8,9,2,-10,-11,3,3,-3,7,-2
-4,-12,-8,8,2,-10,-12,2,3,-2,9,0
-3,-11,-8,7,2,-9,-12,2,4,0,11,2
-3,-10,-7,6,2,-8,-13,2,4,2,13,4
-2,-9,-7,5,2,-7,-13,2,5,4,17,7
0,-8,-7,4,4,-7,-14,1,5,7,21,9
1,-7,-8,3,5,-7,-15,1,6,9,25,11
3,-8,-11,2,8,-9,-16,2,8,12,28,12
6,-9,-15,2,11,-11,-17,4,9,14,30,13
8,-10,-18,1,13,-14,-18,5,10,15,30,12
9,-12,-21,1,15,-16,-18,6,9,15,30,11
11,-14,-25,2,18,-19,-19,7,8,14,30,11
13,-17,-31,2,22,-23,-20,8,7,14,30,11
16,-20,-37,2,27,-28,-21,9,6,13,29,10
20,-22,-42,1,32,-32,-22,10,5,11,28,8
24,-23,-48,0,36,-36,-24,12,5,11,27,6
27,-25,-52,0,40,-39,-25,14,5,10,26,4
28,-27,-56,0,42,-42,-25,18,6,8,20,0
29,-30,-60,1,44,-45,-24,22,8,6,12,-8
28,-34,-62,3,45,-49,-22,29,11,4,4,-16
26,-40,-66,6,46,-53,-18,37,15,2,-4,-25
25,-47,-72,10,48,-59,-15,45,19,0,-13,-34
25,-52,-77,14,51,-65,-12,51,21,-4,-21,-43
23,-56,-79,17,51,-68,-10,56,22,-9,-29,-50
20,-59,-80,20,50,-70,-7,59,22,-15,-37,-56
18,-62,-80,22,49,-71,-5,61,21,-22,-46,-62
16,-63,-79,24,47,-71,-3,62,20,-29,-54,-67
12,-64,-76,26,44,-70,0,63,19,-35,-61,-71
7,-65,-72,28,39,-69,3,63,18,-41,-67,-75
2,-66,-68,31,35,-67,7,64,17,-46,-73,-79
-3,-65,-62,34,29,-64,10,63,16,-52,-78,-81
-9,-64,-54,37,23,-60,14,61,14,-58,-82,-83
-15,-63,-46,39,16,-55,17,57,12,-65,-86,-84
-20,-60,-39,41,9,-49,20,53,10,-69,-87,-84
-24,-58,-32,41,4,-45,23,49,9,-71,-88,-84
-28,-55,-26,41,-1,-40,26,46,8,-72,-87,-82
-31,-52,-20,41,-6,-36,29,43,7,-72,-86,-80
-35,-49,-14,41,-11,-31,31,38,5,-73,-84,-78
-37,-46,-8,41,-15,-27,32,31,0,-74,-81,-75
-39,-43,-3,41,-18,-23,32,24,-5,-74,-78,-72
-40,-39,1,40,-20,-19,32,17,-8,-73,-73,-67
-40,-35,5,38,-22,-15,31,12,-10,-70,-67,-62
-40,-32,7,36,-23,-11,30,9,-10,-65,-60,-57
-39,-29,10,34,-24,-8,29,8,-9,-60,-54,-51
-38,-26,12,32,-25,-6,28,8,-8,-54,-48,-46
-36,-24,13,30,-24,-5,26,8,-6,-49,-42,-42
-34,-22,12,28,-23,-5,25,9,-5,-44,-38,-39
-32,-20,12,26,-22,-4,23,10,-4,-41,-34,-36
-30,-19,11,25,-21,-4,21,11,-3,-39,-30,-33
-29,-17,12,23,-21,-3,20,12,-3,-36,-27,-30
-28,-16,12,22,-20,-2,19,13,-2,-34,-24,-28
-26,-14,12,20,-19,-1,18,15,-1,-32,-21,-26
-24,-12,11,18,-18,0,18,17,0,-29,-19,-23
-23,-11,11,16,-17,0,17,18,2,-26,-16,-21
-22,-10,11,15,-17,0,17,20,3,-23,-13,-19
-21,-9,12,15,-17,2,16,20,4,-21,-11,-18
-21,-7,14,14,-18,4,16,21,6,-20,-9,-16
-20,-5,16,13,-19,6,16,21,6,-19,-7,-14
-20,-3,18,12,-19,8,15,20,6,-18,-6,-12
-19,0,19,10,-19,9,15,19,6,-18,-4,-10
-19,1,20,9,-20,10,15,18,6,-17,-3,-9
-19,2,21,8,-20,11,16,17,6,-15,-2,-8
-20,3,22,8,-21,12,16,16,5,-14,-2,-7
-20,3,23,8,-22,12,17,15,5,-14,-1,-7
-20,3,24,7,-22,13,17,15,5,-13,-1,-6
-19,4,25,7,-22,15,19,16,7,-12,0,-5
-20,6,27,7,-24,17,21,17,8,-11,2,-4
-22,6,29,7,-25,18,23,18,9,-10,3,-3
-21,6,28,7,-24,17,24,17,9,-11,3,-3
-21,6,27,6,-23,16,24,15,9,-11,3,-3
-21,6,26,6,-23,16,24,13,8,-10,3,-3
-20,6,26,6,-23,16,25,12,8,-10,3,-3
-20,6,27,6,-23,16,25,10,7,-10,3,-3
-21,7,28,6,-25,18,24,8,7,-10,3,-2
-21,8,30,6,-26,19,24,6,6,-10,4,-1
-20,9,30,5,-25,20,22,4,6,-10,5,0
-19,10,29,4,-24,20,19,3,5,-10,5,0
-19,11,30,3,-24,21,17,2,6,-9,6,1
-19,12,31,3,-25,22,15,1,7,-8,8,2
-20,13,32,3,-26,23,13,1,8,-6,9,3
-20,13,33,2,-26,23,12,1,9,-5,10,3
-19,13,33,2,-26,23,10,1,9,-5,10,3
-19,13,32,2,-26,23,9,1,9,-5,10,3
-19,13,32,2,-26,23,9,1,9,-6,10,3
-20,12,32,3,-26,23,9,1,10,-5,10,3
-21,12,32,3,-26,23,9,0,10,-5,10,3
-21,12,33,4,-27,23,8,0,10,-5,10,2
-22,12,33,4,-27,22,8,0,10,-5,10,2
-21,11,32,4,-26,22,8,-1,10,-5,10,1
-20,11,31,4,-26,21,7,-2,10,-5,10,1
-20,11,31,4,-25,21,7,-2,10,-5,10,1
-19,11,30,4,-25,21,7,-2,10,-4,10,2
-19,11,30,4,-25,21,7,-2,10,-4,10,2
-18,11,30,3,-24,21,7,-2,10,-4,10,2
-18,11,29,3,-24,21,7,-2,10,-4,10,2
-18,11,29,3,-24,20,7,-2,10,-4,10,1
-18,12,29,3,-23,20,7,-3,10,-4,10,1
-18,12,30,2,-24,20,7,-3,11,-4,10,1
-18,12,30,3,-25,21,7,-4,11,-4,10,1
-18,12,31,3,-25,21,7,-4,11,-4,11,1
-18,11,30,4,-25,21,7,-4,11,-4,11,1
-17,10,28,4,-24,19,7,-4,11,-4,11,1
-18,9,28,4,-23,19,7,-4,11,-4,10,1
-18,9,28,4,-23,18,7,-4,11,-4,10,2
-19,9,28,4,-23,18,7,-4,11,-4,10,2
-19,8,28,5,-23,18,7,-4,10,-4,10,2
-19,8,28,5,-23,18,8,-5,10,-5,10,2
-18,9,28,5,-23,18,8,-5,10,-5,11,2
-18,9,28,4,-23,18,8,-5,10,-5,11,2
-18,9,28,4,-23,18,8,-5,10,-5,12,2
-18,9,28,4,-23,18,8,-5,10,-5,12,2
-18,9,28,4,-23,19,8,-5,9,-5,12,2
-18,9,28,4,-23,19,8,-5,9,-5,12,2
-17,9,28,4,-23,19,8,-5,9,-5,12,2
-18,9,28,4,-23,19,8,-4,9,-5,12,3
-19,9,30,5,-25,20,9,-4,9,-5,13,3
-20,9,30,5,-26,20,8,-5,9,-6,13,3
-19,10,30,5,-25,20,7,-5,9,-6,13,3
-18,11,30,4,-24,20,7,-5,9,-6,13,4
-18,11,30,3,-24,21,7,-5,10,-5,13,4
-19,11,30,4,-24,21,8,-5,10,-5,13,4
-19,11,30,4,-25,21,8,-5,10,-5,13,4
-19,11,30,4,-25,20,7,-6,9,-6,13,4
-18,11,30,4,-24,20,7,-6,9,-6,13,4
-18,11,30,3,-24,21,7,-6,9,-6,13,5
-18,11,31,3,-25,21,7,-6,10,-6,14,5
-18,11,30,3,-24,21,7,-6,10,-6,14,6
-18,12,30,3,-24,21,7,-6,10,-6,14,6
-18,12,30,3,-24,21,7,-6,11,-6,14,7
-18,12,31,3,-24,22,7,-6,11,-6,14,7
-17,12,31,2,-24,22,7,-6,11,-6,13,7
-17,12,30,2,-23,22,7,-7,11,-7,13,7
-17,12,31,2,-24,22,7,-7,11,-7,13,7
-18,12,32,3,-25,23,7,-7,12,-7,13,7
-19,13,33,3,-26,23,7,-7,12,-8,13,8
-18,13,32,2,-25,23,6,-8,11,-8,12,7
-17,13,31,2,-24,23,7,-9,11,-8,12,7
-18,13,32,2,-25,23,7,-9,12,-8,13,8
-20,13,33,3,-26,24,7,-9,12,-8,13,9
-20,13,33,3,-27,24,7,-10,12,-8,13,9
-20,13,34,3,-27,24,7,-11,11,-8,13,9
-20,13,34,3,-27,24,7,-11,11,-8,13,9
-20,14,35,3,-27,25,7,-12,11,-8,13,10
-19,14,35,2,-27,25,7,-12,10,-8,13,11
-19,15,34,2,-27,25,7,-13,10,-9,13,11
-18,15,34,1,-26,25,7,-15,10,-9,13,12
-17,16,34,0,-26,25,8,-16,10,-10,13,12
-17,16,34,0,-26,26,8,-17,9,-11,13,12
-17,17,34,0,-26,26,8,-19,9,-11,13,12
-17,17,34,0,-26,26,7,-20,8,-12,13,12
-16,17,34,0,-26,26,7,-21,8,-12,13,13
-17,17,34,0,-26,26,7,-22,7,-12,13,13
-16,18,34,-1,-26,27,7,-22,7,-13,13,14
-15,18,34,-2,-25,27,7,-23,6,-13,13,14
-15,19,34,-2,-24,27,7,-24,6,-14,13,14
-15,19,34,-2,-24,27,7,-25,6,-14,12,14
-14,19,34,-2,-24,26,7,-26,5,-15,12,14
-14,19,33,-3,-24,26,7,-27,5,-15,12,14
-14,19,33,-2,-24,26,7,-28,5,-16,12,15
-15,19,34,-2,-25,27,7,-28,4,-16,12,15
-15,19,34,-2,-25,27,6,-29,3,-17,12,16
-14,19,33,-2,-24,26,5,-31,2,-18,11,16
-14,19,32,-3,-24,26,4,-32,1,-19,11,16
-14,19,33,-3,-24,26,4,-33,0,-19,11,16
-14,19,34,-3,-24,27,3,-34,0,-20,11,16
-14,19,33,-3,-24,26,2,-35,-1,-21,10,16
-13,19,32,-3,-23,26,1,-36,-2,-22,10,16
-12,19,31,-3,-23,25,0,-38,-3,-23,9,16
-12,19,31,-3,-23,25,0,-39,-4,-24,8,16
-13,19,31,-3,-23,25,0,-40,-4,-24,8,16
-13,18,31,-3,-22,25,0,-41,-6,-25,8,16
-11,17,29,-3,-21,23,-1,-43,-7,-27,6,15
-10,17,28,-3,-19,23,-2,-44,-8,-28,5,15
-10,17,28,-3,-19,22,-2,-45,-9,-29,5,14
-10,17,27,-3,-19,22,-1,-46,-10,-29,4,14
-10,17,27,-3,-19,22,-1,-46,-11,-30,4,15
-9,17,26,-3,-18,22,-2,-47,-12,-31,4,15
-8,16,24,-4,-17,21,-3,-48,-14,-32,3,14
-8,16,24,-4,-16,20,-3,-49,-15,-33,2,14
-8,15,23,-3,-16,20,-4,-50,-16,-34,2,14
-8,13,22,-2,-15,18,-4,-51,-17,-35,1,14
-7,12,20,-2,-14,16,-5,-52,-18,-36,0,13
-7,11,19,-2,-14,15,-5,-53,-19,-38,-1,12
-7,10,18,-1,-13,14,-6,-54,-20,-39,-2,10
-6,10,16,-1,-12,13,-6,-55,-21,-40,-4,9
-6,9,15,-1,-11,13,-6,-55,-22,-41,-5,9
-6,8,14,0,-11,12,-6,-56,-22,-42,-6,8
-7,7,14,0,-11,11,-6,-56,-23,-43,-6,7
-8,5,14,1,-11,10,-7,-56,-23,-43,-7,7
-8,4,13,2,-11,9,-7,-57,-24,-44,-8,5
-8,4,12,2,-10,8,-7,-57,-25,-45,-8,4
-7,3,11,2,-9,7,-7,-57,-25,-46,-9,4
-8,2,11,2,-9,7,-6,-57,-25,-46,-9,3
-8,2,10,3,-10,6,-5,-57,-25,-46,-10,3
-8,1,9,4,-9,5,-5,-57,-26,-47,-11,2
-8,0,7,4,-8,4,-5,-57,-26,-47,-11,1
-7,-1,6,4,-6,2,-5,-57,-26,-48,-12,1
-6,-2,5,4,-5,1,-4,-56,-26,-48,-12,0
-6,-3,4,5,-5,0,-4,-55,-25,-49,-13,0
-7,-3,4,5,-5,0,-3,-55,-25,-49,-13,-1
-7,-4,4,5,-5,0,-3,-54,-25,-49,-14,-1
-7,-6,2,6,-5,-2,-3,-54,-25,-49,-14,-2
-7,-7,0,7,-4,-3,-3,-53,-25,-49,-15,-2
-7,-8,0,7,-4,-3,-2,-52,-24,-48,-15,-3
-7,-8,0,7,-4,-3,0,-50,-22,-47,-14,-3
-7,-9,-1,7,-3,-4,0,-49,-21,-47,-14,-3
-7,-9,-1,7,-3,-5,1,-48,-21,-47,-14,-4
-7,-9,-1,8,-2,-5,2,-47,-20,-46,-14,-4
-7,-9,-1,8,-2,-5,3,-46,-20,-46,-14,-4
-6,-9,-2,8,-2,-6,4,-46,-19,-45,-14,-4
-6,-9,-3,8,-1,-6,5,-45,-18,-45,-14,-4
-6,-9,-3,8,-1,-6,5,-43,-17,-44,-13,-4
-7,-10,-3,8,-1,-6,5,-42,-16,-43,-13,-4
-7,-11,-3,9,-1,-7,5,-41,-14,-42,-13,-5
-7,-12,-3,9,-1,-8,5,-40,-13,-42,-13,-5
-7,-12,-4,9,-1,-8,6,-39,-12,-41,-13,-5
-7,-12,-4,9,-1,-8,7,-38,-11,-40,-12,-5
-7,-12,-4,9,-1,-8,9,-37,-10,-39,-12,-5
-7,-12,-4,9,-1,-8,12,-36,-9,-38,-12,-6
-7,-12,-4,9,-1,-8,14,-34,-8,-38,-11,-6
-7,-12,-4,9,-1,-8,16,-33,-6,-37,-11,-5
-7,-13,-5,9,-1,-9,17,-32,-5,-36,-11,-5
-7,-13,-5,9,-1,-9,18,-30,-4,-35,-10,-5
-7,-14,-5,10,-1,-9,19,-29,-2,-34,-9,-4
-7,-14,-6,10,0,-10,20,-28,-1,-33,-9,-4
-7,-15,-7,10,0,-11,20,-27,-1,-32,-8,-4
-7,-15,-7,11,0,-11,21,-27,0,-31,-8,-4
-7,-15,-7,11,0,-11,21,-26,0,-31,-8,-4
-7,-15,-7,11,0,-11,21,-25,1,-30,-8,-4
-8,-15,-5,11,-1,-10,21,-24,3,-29,-7,-4
-9,-15,-5,11,-1,-10,21,-22,4,-28,-6,-4
-8,-15,-6,11,-1,-10,21,-21,5,-27,-6,-4
-8,-15,-6,11,0,-11,20,-21,6,-27,-6,-4
-7,-15,-7,10,0,-11,20,-20,7,-26,-6,-4
-7,-15,-7,10,0,-11,20,-19,7,-25,-5,-4
-6,-15,-8,10,1,-11,19,-19,8,-25,-5,-4
-6,-16,-9,10,1,-12,18,-19,8,-25,-6,-4
-5,-16,-10,10,2,-12,18,-18,9,-24,-6,-4
-5,-16,-10,10,2,-12,18,-17,11,-24,-5,-4
-6,-15,-9,10,1,-12,18,-16,12,-23,-5,-4
-7,-15,-8,10,0,-11,18,-15,13,-22,-4,-4
-8,-15,-7,11,-1,-11,18,-14,14,-21,-4,-4
-9,-15,-6,12,-2,-10,18,-14,15,-21,-3,-4
-10,-15,-6,12,-2,-10,18,-13,15,-20,-3,-5
-9,-15,-6,12,-1,-10,18,-13,16,-20,-3,-5
-9,-16,-7,12,-1,-11,18,-12,16,-20,-3,-5
-9,-17,-8,12,0,-12,18,-12,17,-19,-3,-5
-9,-18,-8,13,0,-12,18,-11,19,-18,-2,-5
-9,-18,-8,13,0,-13,17,-10,20,-17,-2,-5
-8,-18,-9,12,0,-13,17,-10,20,-17,-1,-5
-7,-18,-10,12,1,-14,16,-9,21,-16,-1,-5
-8,-18,-10,12,1,-14,16,-9,21,-16,0,-5
-8,-17,-9,12,1,-13,16,-8,22,-15,0,-5
-8,-17,-9,12,1,-13,16,-8,23,-15,0,-4
-7,-17,-10,11,2,-13,16,-7,23,-14,0,-4
-6,-17,-10,11,2,-14,17,-7,24,-14,0,-4
-7,-17,-9,11,1,-13,17,-6,25,-13,1,-4
-7,-17,-9,12,1,-13,18,-6,25,-12,1,-4
-7,-17,-9,12,1,-13,18,-5,26,-12,1,-4
-6,-17,-10,11,2,-13,19,-5,26,-12,1,-4
-6,-17,-10,11,2,-13,19,-5,26,-11,1,-4
-6,-17,-10,11,2,-13,19,-5,27,-11,2,-3
-7,-17,-10,12,1,-13,19,-5,28,-11,1,-3
-7,-17,-10,12,1,-13,19,-5,29,-11,1,-3
-6,-17,-11,12,2,-14,19,-5,31,-10,1,-3
-6,-17,-11,11,2,-14,20,-4,33,-10,2,-3
-6,-17,-11,11,2,-14,20,-3,34,-9,2,-2
-6,-17,-10,12,2,-13,20,-3,35,-8,3,-2
-7,-17,-9,12,1,-13,20,-2,35,-8,3,-1
-7,-17,-10,12,2,-14,20,-2,36,-8,3,-1
-6,-17,-11,12,3,-14,19,-2,36,-9,3,-2
-5,-17,-12,11,3,-14,19,-2,36,-8,3,-2
-6,-17,-11,11,3,-14,19,-1,36,-8,3,-2
-7,-17,-11,12,2,-14,19,-1,36,-7,3,-2
-8,-18,-10,12,1,-14,18,-1,36,-7,3,-2
-8,-18,-10,12,1,-14,18,-1,36,-7,3,-2
-7,-18,-11,12,2,-14,17,-1,36,-7,3,-2
-6,-18,-11,12,2,-14,17,0,37,-7,3,-2
-6,-18,-12,12,3,-14,17,0,37,-7,3,-2
-6,-18,-11,12,2,-14,17,0,37,-6,4,-1
-8,-18,-10,12,1,-14,17,1,37,-6,4,0
-9,-18,-9,12,0,-13,17,1,38,-5,5,0
-8,-18,-10,12,1,-14,17,1,38,-6,5,0
-6,-18,-11,12,2,-15,16,1,38,-6,4,0
-6,-17,-12,12,2,-15,16,1,38,-6,4,0
-7,-17,-11,12,2,-14,16,1,39,-6,4,0
-8,-17,-10,13,1,-14,16,2,39,-5,4,0
-8,-17,-9,13,0,-13,16,2,40,-5,4,0
-8,-17,-9,12,0,-13,16,3,40,-5,4,0
-7,-17,-10,12,1,-14,16,3,40,-5,4,-1
-6,-17,-11,12,2,-14,17,3,40,-5,4,-1
-7,-17,-10,12,1,-14,17,4,41,-4,5,0
-8,-17,-9,13,0,-13,17,4,41,-3,5,0
-8,-17,-9,12,0,-13,17,4,41,-4,5,0
-7,-17,-10,12,1,-13,16,4,41,-4,4,0
-8,-17,-9,12,0,-13,16,5,41,-4,4,0
-8,-17,-9,12,0,-13,16,5,41,-4,4,0
-8,-18,-10,12,0,-13,16,5,41,-4,4,0
-8,-18,-10,12,0,-14,17,5,40,-4,4,0
-8,-17,-10,12,0,-14,17,5,40,-3,5,0
-7,-17,-10,12,1,-14,16,5,40,-3,5,0
-7,-17,-10,12,1,-14,16,5,40,-3,5,0
-7,-17,-10,12,1,-14,16,5,40,-3,5,0
-9,-17,-8,13,0,-13,17,6,39,-2,6,0
-9,-17,-8,13,0,-13,17,6,38,-2,6,0
-9,-17,-8,13,0,-13,17,6,37,-2,5,0
-9,-17,-8,13,0,-13,16,6,36,-2,5,-1
-8,-16,-8,12,0,-13,16,6,35,-2,5,-1
-8,-16,-7,12,-1,-12,16,7,35,-2,5,0
-8,-16,-7,12,-1,-12,16,7,35,-1,5,0
-8,-16,-8,12,0,-12,16,7,35,-1,5,0
-7,-15,-8,11,0,-12,16,8,35,0,5,0
-7,-15,-8,11,0,-12,16,8,35,0,6,0
-7,-15,-8,10,0,-12,16,8,35,0,6,0
-8,-14,-7,10,0,-11,16,8,35,0,7,1
-8,-14,-6,11,-1,-11,16,8,35,0,8,2
-7,-14,-6,11,0,-11,15,8,34,0,7,2
-7,-13,-6,10,0,-11,15,8,34,0,7,2
-7,-13,-5,10,-1,-9,15,8,34,1,7,2
-8,-13,-4,10,-1,-9,16,8,34,1,7,2
-7,-13,-5,10,-1,-9,16,8,34,1,7,2
-7,-13,-6,9,0,-10,15,9,34,1,7,2
-7,-12,-6,9,-1,-10,15,9,35,1,7,2
-7,-12,-5,9,-1,-9,15,10,35,2,8,3
-7,-11,-4,8,-1,-8,15,10,35,2,8,3
-6,-10,-3,8,-1,-8,15,10,36,3,8,3
-6,-10,-3,8,-1,-7,14,10,36,4,9,3
-5,-9,-3,7,-1,-7,14,10,37,4,9,4
-6,-8,-2,7,-2,-6,13,10,37,5,10,4
-7,-8,-1,7,-3,-5,13,9,37,5,11,5
-6,-7,-1,6,-2,-5,12,8,36,4,10,5
-6,-6,-1,6,-2,-4,11,8,36,4,11,5
-6,-5,0,6,-3,-3,12,8,36,5,11,6
-7,-5,1,6,-3,-2,11,8,36,4,11,6
-6,-6,0,5,-3,-3,11,7,36,4,11,5
-6,-6,0,5,-3,-3,10,7,36,4,11,5
-6,-6,0,5,-3,-3,10,8,36,4,11,5
-6,-6,1,5,-3,-3,11,8,36,4,11,5
-6,-6,0,5,-3,-3,11,8,36,4,11,5
-5,-6,-1,5,-2,-4,11,8,35,3,11,5
-5,-6,-1,5,-2,-4,11,9,35,3,11,5
-6,-5,0,6,-3,-3,12,9,36,4,11,5
-7,-5,1,6,-3,-3,13,10,37,4,11,5
-7,-5,1,6,-3,-3,13,10,37,5,11,5
-6,-5,1,5,-3,-2,13,10,37,5,12,5
-6,-4,1,5,-3,-2,13,11,38,6,12,6
-7,-4,1,5,-4,-2,13,12,38,6,12,6
-7,-4,2,5,-4,-2,13,13,38,6,12,6
-7,-4,2,5,-4,-2,14,14,38,7,13,7
-7,-4,2,5,-4,-2,14,14,39,7,13,7
-7,-5,2,5,-4,-2,14,14,39,7,12,6
-7,-6,1,6,-4,-3,14,14,38,6,11,5
-7,-7,0,6,-3,-4,14,13,37,5,10,4
-8,-8,0,7,-4,-4,15,13,36,4,10,3
-9,-9,0,9,-5,-5,15,13,36,4,9,3
-11,-10,0,10,-6,-5,15,13,35,4,9,3
-11,-11,0,10,-6,-6,15,13,35,4,8,2
-10,-11,-1,10,-4,-7,14,12,34,3,7,1
-10,-11,-2,10,-3,-7,14,12,34,2,6,1
-10,-11,-1,11,-4,-6,14,12,34,2,6,1
-11,-11,0,11,-5,-6,14,12,34,2,7,1
-11,-12,0,11,-5,-6,14,12,34,2,7,1
-11,-12,-1,11,-5,-7,14,12,33,2,7,1
-10,-12,-2,11,-4,-7,14,12,33,2,7,1
-10,-12,-2,11,-4,-7,14,12,34,2,7,1
-10,-11,-2,10,-4,-7,14,12,33,2,6,1
-9,-11,-2,10,-3,-7,14,12,33,2,6,0
-10,-12,-2,10,-3,-8,14,12,33,2,6,0
-10,-13,-2,11,-3,-8,14,12,33,2,6,0
-10,-14,-3,11,-3,-8,14,12,33,2,6,0
-10,-14,-4,11,-2,-9,14,12,33,2,5,0
-10,-14,-5,11,-2,-10,14,12,33,1,5,0
-10,-14,-5,12,-2,-10,14,12,33,1,5,-1
-11,-15,-4,12,-3,-10,14,13,33,1,5,-1
-10,-15,-5,12,-2,-10,13,13,33,1,4,-1
-9,-15,-6,12,-1,-11,13,13,32,1,4,-1
-9,-15,-6,12,-1,-10,13,13,32,1,4,-1
-9,-15,-5,12,-1,-10,13,13,32,1,4,-1
-10,-16,-5,13,-2,-10,13,13,32,1,4,-1
-10,-16,-5,13,-2,-11,13,13,32,1,4,-1
-11,-16,-5,13,-2,-11,12,13,32,1,4,-1
-11,-16,-5,13,-2,-11,12,13,32,1,4,-1
-11,-16,-5,13,-2,-11,12,14,32,1,4,-2
-10,-16,-6,12,-1,-11,12,14,32,0,4,-2
-9,-16,-6,12,-1,-11,11,14,32,0,4,-2
-9,-15,-6,12,-1,-11,11,14,32,0,4,-2
-10,-15,-5,12,-1,-10,11,14,32,1,4,-2
-10,-15,-5,12,-2,-10,11,15,32,1,4,-2
-10,-15,-5,12,-2,-11,10,15,32,1,4,-2
-10,-15,-5,12,-2,-11,10,15,32,1,4,-2
-10,-15,-5,12,-1,-11,11,16,32,1,4,-2
-8,-15,-6,12,0,-11,11,16,32,2,4,-2
-7,-15,-7,11,0,-11,11,17,32,2,5,-2
-7,-15,-6,11,0,-10,10,17,32,2,5,-2
-8,-15,-6,11,0,-10,10,17,32,2,5,-2
-8,-15,-6,11,0,-11,10,17,32,2,5,-2
-8,-15,-6,11,0,-11,10,17,32,2,4,-2
-8,-15,-6,11,0,-11,10,17,32,2,4,-2
-9,-15,-6,12,-1,-11,10,17,32,2,4,-2
-9,-15,-7,12,0,-11,10,17,32,2,4,-2
-9,-16,-7,12,0,-12,10,17,32,2,4,-2
-9,-17,-8,12,0,-12,11,17,32,2,4,-2
-8,-17,-8,12,0,-12,11,17,32,3,4,-2
-8,-17,-8,12,0,-12,10,17,32,3,4,-2
-8,-17,-9,12,1,-12,10,17,31,3,4,-2
-7,-16,-9,12,1,-12,10,17,31,3,4,-2
-8,-16,-8,12,0,-12,10,18,32,3,4,-2
-9,-16,-7,13,0,-12,10,18,32,3,4,-2
-9,-16,-7,12,0,-12,10,17,31,3,4,-2
-8,-16,-7,11,0,-12,9,17,31,3,4,-3
-8,-16,-7,11,0,-12,9,18,31,3,4,-3
-8,-16,-8,12,0,-12,9,18,31,4,4,-3
-8,-17,-8,12,0,-12,9,18,31,4,4,-3
-9,-17,-8,13,0,-12,9,18,32,4,4,-3
-10,-17,-7,14,-1,-12,9,18,32,4,4,-3
-9,-17,-8,13,0,-12,9,18,31,4,3,-3
-8,-16,-8,12,0,-12,8,17,31,4,3,-3
-8,-16,-8,12,0,-12,8,17,31,4,3,-3
-8,-16,-8,12,0,-12,8,17,31,4,3,-2
-8,-16,-8,12,0,-12,8,17,31,4,3,-2
-8,-16,-9,12,0,-12,8,17,31,4,3,-2
-7,-16,-9,12,1,-12,8,17,31,4,3,-2
-7,-16,-9,12,2,-13,8,17,31,4,3,-2
-7,-17,-9,12,2,-13,9,17,31,4,3,-2
-7,-18,-10,13,2,-13,9,17,31,4,3,-2
-7,-18,-10,13,2,-14,8,16,30,4,3,-3
-7,-18,-10,13,2,-14,8,16,30,4,3,-3
-7,-17,-9,13,1,-13,8,17,31,4,3,-2
-8,-17,-8,13,0,-12,8,17,31,5,3,-2
-8,-17,-8,12,1,-13,7,16,31,4,2,-3
-7,-17,-9,12,2,-13,7,16,30,4,2,-3
-6,-17,-10,12,2,-14,7,16,30,4,2,-3
-6,-18,-11,12,3,-14,7,16,30,4,1,-4
-7,-18,-11,13,2,-15,7,16,30,4,1,-4
-7,-18,-11,13,2,-15,7,16,29,4,1,-5
-7,-19,-12,13,2,-15,6,16,29,4,1,-5
-7,-19,-12,13,2,-15,6,16,29,4,0,-6
-8,-19,-11,13,1,-15,6,16,29,4,0,-6
-8,-19,-11,14,1,-15,6,16,28,4,0,-6
-8,-19,-11,14,2,-15,6,16,28,4,0,-6
-8,-19,-10,14,2,-15,6,16,28,4,0,-6
-8,-19,-10,14,2,-15,5,16,28,5,0,-6
-8,-19,-11,14,2,-15,5,16,28,5,0,-6
-7,-19,-11,13,2,-15,5,16,28,5,0,-6
-7,-19,-12,13,2,-15,5,16,28,4,0,-7
-7,-19,-12,13,3,-16,5,16,28,4,-1,-7
-8,-19,-11,14,2,-16,5,16,28,5,-1,-7
-9,-20,-11,15,1,-16,5,16,27,5,-1,-7
-9,-20,-11,15,1,-16,5,16,27,5,-2,-7
-8,-19,-11,15,1,-15,4,16,27,5,-1,-7
-8,-19,-10,14,1,-15,4,16,27,5,-1,-7
-7,-19,-11,14,2,-15,3,16,26,5,-1,-6
-7,-19,-12,13,3,-15,3,16,26,5,-1,-6
-7,-19,-12,13,3,-15,3,16,26,5,0,-5
-7,-19,-12,13,3,-16,3,16,26,5,0,-5
-7,-19,-13,13,3,-16,3,16,26,5,0,-5
-6,-19,-13,13,3,-16,2,16,26,5,0,-5
-6,-19,-13,13,3,-16,2,16,26,5,0,-4
-7,-19,-12,13,3,-16,2,16,26,6,0,-4
-7,-19,-12,14,2,-16,2,16,26,6,0,-4
-7,-19,-11,14,2,-15,2,16,26,6,0,-4
-7,-19,-11,14,2,-15,2,16,26,6,-1,-4
-7,-19,-12,14,2,-16,1,16,26,6,-1,-5
-7,-19,-12,13,2,-16,1,16,26,6,-1,-5
-7,-19,-12,13,2,-16,1,16,26,6,-1,-5
-7,-19,-12,13,2,-16,1,16,26,6,-1,-5
-7,-20,-12,13,2,-16,1,16,26,6,-1,-5
-7,-20,-12,14,2,-16,1,15,26,6,-1,-5
-7,-20,-12,14,2,-16,0,15,26,5,-1,-5
-7,-20,-12,14,2,-16,0,15,25,5,-1,-5
-7,-19,-12,14,2,-16,0,15,25,5,-1,-4
-8,-19,-11,14,1,-15,0,15,25,5,-1,-4
-8,-19,-11,14,1,-15,0,14,25,5,-1,-5
-7,-19,-12,14,2,-16,0,14,25,5,-2,-5
-6,-19,-13,13,3,-16,0,13,25,5,-2,-5
-6,-20,-14,13,3,-17,0,13,26,5,-2,-5
-6,-20,-14,14,3,-17,1,13,26,6,-1,-5
-6,-21,-15,14,4,-17,0,13,26,6,-1,-5
-5,-21,-16,14,5,-18,0,13,26,5,-2,-6
-6,-21,-16,14,4,-18,0,12,26,5,-1,-6
-7,-21,-14,14,2,-17,1,12,26,6,-1,-5
-9,-20,-13,15,1,-16,1,13,26,6,0,-4
-9,-20,-12,15,1,-16,1,12,26,5,-1,-5
-8,-20,-13,14,2,-16,1,12,26,5,-1,-5
-6,-19,-13,13,3,-16,0,12,26,5,-1,-6
-6,-19,-13,13,3,-16,0,12,27,5,-1,-6
-6,-19,-13,13,3,-16,0,12,27,6,-1,-6
-6,-20,-13,13,3,-16,0,11,26,5,0,-6
-6,-20,-14,13,3,-17,0,11,26,5,0,-6
-7,-20,-13,14,2,-16,1,12,27,6,0,-5
-8,-20,-12,14,1,-16,1,12,27,6,0,-5
-8,-21,-12,14,1,-16,0,11,26,6,0,-5
-8,-21,-13,14,2,-16,0,11,26,6,-1,-6
-7,-21,-13,14,3,-16,0,11,26,6,-1,-6
-7,-21,-14,14,3,-17,0,11,27,6,-1,-6
-8,-21,-13,14,2,-16,0,11,27,6,0,-6
-9,-21,-12,15,1,-16,0,11,28,6,0,-5
-10,-21,-11,15,0,-16,0,11,28,5,0,-5
-9,-21,-12,15,1,-16,0,11,27,5,0,-5
-8,-20,-12,14,2,-16,-1,10,27,5,0,-5
-8,-20,-12,14,2,-15,-1,10,27,5,0,-5
-8,-19,-11,14,1,-15,-1,9,27,5,0,-5
-8,-19,-11,14,1,-14,-1,9,27,5,0,-4
-7,-18,-11,13,1,-14,-1,10,28,6,1,-4
-7,-18,-11,13,1,-14,-1,10,28,7,2,-3
-8,-18,-10,13,1,-14,-1,9,28,9,3,-2
-7,-18,-10,12,1,-14,-2,9,29,10,5,-1
-7,-16,-10,11,1,-13,-2,9,30,12,8,1
-6,-15,-9,11,1,-12,-3,9,30,14,11,3
-5,-14,-9,10,2,-11,-3,8,30,16,14,6
-4,-12,-8,8,2,-10,-4,8,31,18,18,9
-3,-11,-8,8,2,-10,-6,8,33,22,22,12
-1,-13,-11,7,5,-12,-8,8,33,24,26,13
1,-14,-16,7,8,-15,-9,9,34,26,28,14
3,-16,-19,7,11,-17,-9,11,35,27,30,15
4,-18,-23,7,13,-20,-10,12,35,27,30,14
6,-21,-27,7,16,-23,-10,13,34,26,29,14
7,-22,-30,7,18,-26,-11,13,33,26,29,14
10,-24,-35,7,22,-29,-12,14,33,25,29,13
13,-27,-41,7,27,-34,-14,15,32,24,28,11
17,-29,-47,7,32,-38,-16,17,31,24,27,9
20,-31,-52,7,36,-41,-18,18,31,23,26,8
22,-34,-56,6,39,-45,-19,21,31,22,21,4
22,-36,-59,7,40,-47,-18,26,32,19,14,-2
22,-39,-61,8,41,-50,-16,32,35,17,5,-9
22,-43,-66,10,43,-54,-13,40,40,15,-3,-18
22,-49,-72,13,46,-60,-10,49,44,13,-12,-27
21,-55,-77,17,48,-66,-8,55,47,10,-20,-36
19,-60,-80,20,49,-70,-6,59,48,6,-28,-44
17,-64,-81,23,49,-72,-4,63,48,0,-36,-51
15,-66,-81,26,48,-74,-2,65,47,-6,-45,-57
12,-69,-81,29,46,-75,0,67,46,-14,-54,-62
9,-70,-79,30,44,-74,2,68,44,-21,-61,-67
4,-70,-75,32,39,-72,5,70,43,-28,-68,-71
-1,-71,-70,35,34,-70,9,70,42,-34,-74,-74
-7,-71,-64,39,28,-68,12,70,41,-41,-79,-78
-13,-70,-57,41,22,-63,15,68,39,-49,-85,-81
-18,-68,-49,43,16,-58,17,64,36,-56,-89,-82
-23,-65,-42,44,10,-53,20,60,32,-61,-92,-82
-27,-62,-35,45,4,-48,23,55,30,-65,-92,-81
-30,-59,-28,45,0,-43,26,52,28,-66,-92,-79
-34,-56,-22,45,-6,-39,29,48,27,-67,-90,-77
-38,-54,-15,46,-11,-34,31,44,24,-68,-88,-75
-41,-51,-10,46,-16,-30,32,37,20,-69,-86,-73
-42,-48,-5,45,-18,-26,33,30,14,-70,-84,-71
-42,-44,-1,44,-20,-23,32,23,10,-69,-79,-67
-42,-41,2,42,-22,-20,31,18,8,-66,-73,-62
-42,-37,5,40,-23,-16,30,15,8,-61,-67,-57
-41,-33,7,38,-23,-13,30,14,9,-55,-60,-52
-40,-31,8,35,-24,-11,29,14,11,-50,-54,-47
-40,-29,10,34,-24,-9,28,14,13,-44,-48,-43
-38,-28,10,33,-24,-8,27,16,15,-40,-44,-40
-36,-28,8,32,-22,-9,25,17,16,-36,-40,-37
-34,-27,7,31,-20,-10,23,18,17,-33,-36,-35
-32,-26,7,30,-20,-9,22,19,17,-30,-32,-32
-32,-25,7,29,-20,-8,21,21,18,-27,-29,-30
-31,-24,7,28,-19,-8,20,22,19,-25,-26,-27
-30,-23,7,27,-18,-8,19,24,20,-23,-24,-25
-29,-22,6,25,-17,-8,18,26,22,-21,-21,-23
-28,-22,6,24,-17,-8,18,27,23,-19,-19,-21
-27,-22,5,24,-17,-8,17,28,23,-17,-18,-20
-27,-21,6,24,-17,-7,17,29,24,-15,-16,-19
-28,-19,8,24,-18,-5,18,29,25,-14,-14,-18
-28,-18,9,23,-19,-4,18,29,25,-13,-13,-17
-27,-17,9,22,-18,-4,17,28,25,-13,-12,-16
-26,-16,10,21,-18,-3,18,28,25,-12,-10,-14
-26,-15,11,20,-18,-2,19,28,25,-10,-9,-12
-25,-14,11,19,-19,-1,20,27,25,-10,-8,-11
-25,-12,12,18,-19,0,20,28,26,-9,-7,-11
-25,-11,14,18,-20,1,21,29,27,-8,-6,-10
-26,-10,16,18,-21,3,22,30,28,-8,-6,-10
-25,-9,16,17,-21,3,23,31,29,-7,-5,-10
-25,-8,17,17,-21,4,25,32,30,-6,-5,-10
-25,-8,18,17,-22,5,26,32,31,-5,-4,-8
-25,-7,18,16,-21,6,28,31,31,-5,-3,-7
-24,-7,18,15,-21,6,29,30,32,-4,-2,-6
-25,-6,19,15,-22,7,29,29,33,-2,-1,-5
-26,-5,21,16,-24,8,29,28,33,-2,0,-5
-27,-5,22,15,-25,9,28,25,32,-2,0,-5
-27,-4,23,15,-25,9,27,22,30,-2,1,-4
-26,-3,24,14,-25,10,25,19,29,-2,1,-4
-25,-2,23,13,-24,11,23,17,29,-2,2,-3
-24,-1,23,12,-23,11,20,15,29,-1,3,-2
-22,0,22,11,-22,11,17,14,29,0,4,-1
-21,1,22,10,-22,12,15,14,30,0,5,0
-20,2,23,9,-22,13,14,14,31,2,7,1
-20,3,23,8,-21,13,13,13,32,3,8,2
-19,4,23,7,-21,14,12,13,33,4,9,3
-18,6,23,6,-21,14,11,13,34,5,10,4
-17,7,24,5,-21,15,10,13,35,6,11,5
-17,8,25,4,-22,16,10,14,36,7,12,6
-16,9,26,3,-22,18,9,14,37,9,13,7
-16,10,27,2,-22,19,8,13,37,10,14,8
-15,12,28,1,-22,21,7,13,37,10,15,8
-14,14,28,0,-22,22,7,11,37,11,15,8
-14,14,29,0,-22,22,6,10,37,11,15,8
-14,15,29,0,-22,22,5,10,38,11,16,9
-15,14,30,0,-22,22,5,10,38,12,17,9
-16,14,30,0,-23,22,5,10,39,12,17,10
-16,15,31,0,-23,23,5,10,39,13,18,10
-16,16,32,0,-24,24,5,11,39,14,19,10
-16,17,33,0,-24,25,5,11,40,14,20,11
-16,17,33,-1,-24,25,5,11,40,14,21,11
-15,17,32,-1,-24,25,5,11,40,14,21,11
-15,17,32,-2,-23,25,5,11,40,14,21,11
-14,17,31,-2,-23,25,5,11,40,14,21,11
-14,17,32,-2,-23,25,5,11,40,14,21,11
-14,17,32,-2,-23,25,4,11,40,14,22,12
-13,18,32,-3,-23,25,4,11,40,15,22,12
-13,19,33,-3,-23,26,4,11,41,15,23,13
-14,20,34,-3,-24,27,4,12,41,16,24,14
-15,20,35,-3,-26,28,4,12,42,17,25,14
-16,20,37,-2,-27,29,4,12,43,17,25,14
-16,19,36,-2,-26,28,4,12,43,17,24,13
-15,20,35,-3,-25,28,4,11,42,16,24,13
-15,20,35,-3,-25,28,3,11,42,16,24,13
-15,20,34,-2,-25,27,2,10,41,15,24,12
-16,19,35,-1,-25,27,2,9,40,15,23,11
-17,18,35,-1,-26,27,3,8,39,14,22,10
-17,18,35,-1,-26,26,3,7,38,13,21,9
-16,17,34,-1,-26,26,2,6,37,12,21,9
-16,18,34,-1,-25,26,2,6,37,12,21,9
-16,18,35,-1,-25,26,3,6,38,12,21,9
-17,18,35,0,-26,26,3,6,38,12,21,10
-17,17,34,0,-26,26,3,5,38,12,21,10
-17,17,34,0,-26,25,2,5,38,12,21,10
-17,17,34,0,-26,25,2,5,38,12,21,10
-17,17,34,0,-26,25,2,5,38,11,21,10
-17,17,34,0,-26,25,2,4,38,11,21,10
-17,17,34,0,-26,25,2,4,38,11,21,10
-16,17,34,0,-26,25,2,4,37,11,21,10
-15,17,34,-1,-25,25,2,3,37,11,21,10
-15,17,33,-1,-25,26,1,3,37,10,21,10
-15,18,34,-1,-25,26,1,2,37,10,21,10
-16,18,34,-1,-25,26,1,2,36,10,21,10
-15,18,34,-2,-25,26,0,1,36,10,21,10
-15,18,33,-2,-24,25,0,1,36,10,21,11
-14,18,33,-2,-24,25,0,1,35,10,21,11
-14,18,33,-2,-24,26,0,0,35,10,21,11
-14,19,34,-2,-24,26,0,0,35,10,21,11
-14,19,34,-3,-24,26,0,0,35,9,21,11
-14,19,33,-3,-24,26,0,-1,35,9,20,11
-14,19,33,-3,-24,26,-1,-2,34,8,20,10
-14,19,33,-3,-24,27,-1,-2,34,8,20,10
-14,19,33,-3,-24,27,-1,-3,33,7,19,10
-14,20,34,-3,-24,28,-1,-3,33,7,19,10
-13,20,34,-4,-24,28,-1,-3,33,7,19,10
-13,21,34,-4,-24,28,-2,-4,32,6,18,10
-12,21,34,-5,-23,28,-2,-4,32,6,18,11
-12,21,34,-5,-23,28,-1,-4,31,6,19,12
-13,21,35,-4,-24,29,-1,-4,31,6,20,13
-13,21,35,-4,-25,29,-2,-5,31,6,20,13
-12,22,35,-5,-24,29,-2,-6,30,6,20,14
-11,24,35,-6,-23,30,-3,-7,30,5,20,14
-10,24,35,-7,-22,30,-3,-8,29,5,20,14
-9,25,35,-8,-22,30,-4,-9,29,4,20,15
-9,25,35,-8,-22,30,-4,-10,28,4,20,15
-9,25,34,-9,-22,30,-4,-10,28,3,20,16
-8,25,33,-9,-20,29,-5,-11,27,2,19,16
-7,25,32,-10,-19,29,-5,-12,25,1,19,15
-7,25,32,-10,-19,29,-6,-13,24,0,18,15
-7,25,32,-10,-19,29,-6,-14,23,0,18,15
-7,25,32,-10,-19,29,-6,-15,23,0,18,15
-7,25,33,-9,-20,30,-7,-16,22,-1,18,16
-7,25,33,-9,-20,30,-7,-16,22,-1,17,16
-8,25,33,-9,-20,30,-8,-17,21,-2,17,17
-7,25,32,-9,-20,29,-9,-19,20,-3,16,17
-7,25,32,-9,-19,29,-10,-20,18,-4,16,17
-7,26,32,-10,-19,29,-10,-21,17,-5,16,18
-6,25,31,-10,-19,29,-10,-22,16,-6,16,18
-5,25,30,-10,-18,28,-11,-23,14,-7,15,17
-4,24,29,-10,-17,28,-11,-23,12,-8,14,17
-4,24,29,-10,-17,27,-11,-24,11,-9,14,17
-4,24,30,-10,-17,27,-12,-24,10,-10,13,16
-5,24,30,-9,-18,28,-12,-25,9,-11,12,16
-4,24,29,-10,-17,27,-13,-27,7,-13,11,15
-3,24,27,-10,-16,26,-14,-29,5,-15,10,15
-3,24,26,-10,-15,26,-14,-29,4,-15,10,15
-2,23,25,-10,-14,25,-14,-30,3,-16,10,15
-1,23,24,-10,-13,25,-15,-31,2,-16,10,15
-1,22,23,-10,-12,24,-15,-32,1,-17,10,16
-1,21,22,-10,-12,22,-16,-33,0,-17,10,17
-1,20,21,-10,-11,21,-17,-34,-1,-18,9,17
0,20,20,-10,-10,20,-18,-35,-3,-20,8,18
0,19,18,-10,-9,20,-18,-37,-4,-22,7,17
0,18,18,-10,-9,19,-18,-38,-6,-23,6,17
-1,17,17,-8,-9,18,-18,-39,-7,-24,5,16
-1,15,16,-7,-9,17,-18,-39,-8,-25,4,15
0,14,15,-7,-8,15,-19,-40,-10,-26,3,14
0,13,14,-6,-8,14,-19,-40,-11,-27,2,13
-1,12,13,-6,-8,13,-19,-41,-12,-28,1,12
0,11,12,-6,-7,12,-19,-42,-13,-29,1,11
1,11,11,-6,-5,11,-18,-42,-14,-29,0,11
1,10,9,-6,-4,10,-18,-43,-15,-30,0,10
1,9,8,-6,-3,9,-19,-43,-16,-32,-1,9
2,8,7,-6,-2,8,-19,-44,-17,-33,-2,8
2,8,6,-6,-2,7,-19,-44,-17,-33,-2,7
1,7,5,-5,-2,7,-19,-44,-17,-32,-2,7
2,6,4,-5,-1,6,-18,-44,-17,-32,-2,6
3,5,3,-5,0,5,-18,-44,-18,-32,-3,6
3,5,2,-5,0,5,-18,-43,-18,-32,-3,5
3,5,2,-4,0,5,-18,-43,-18,-32,-4,4
3,4,1,-4,0,4,-18,-43,-18,-33,-5,3
4,3,0,-4,2,3,-18,-43,-19,-34,-6,1
5,3,-1,-4,3,2,-18,-43,-19,-34,-6,0
5,3,-1,-5,3,2,-17,-42,-18,-34,-6,0
6,4,-2,-5,4,2,-17,-41,-18,-33,-5,0
5,3,-2,-4,4,1,-16,-41,-17,-32,-5,0
4,2,-2,-4,4,1,-16,-40,-17,-32,-6,-1
5,2,-2,-5,4,1,-16,-40,-16,-32,-6,-1
6,2,-2,-5,4,1,-16,-39,-16,-32,-5,-1
5,1,-2,-4,4,1,-16,-38,-15,-31,-5,-1
5,1,-2,-4,4,0,-16,-37,-14,-31,-5,-2
5,1,-3,-4,4,0,-16,-36,-13,-31,-5,-2
5,0,-3,-3,4,0,-15,-35,-13,-30,-5,-2
5,0,-4,-3,4,-1,-15,-35,-12,-29,-5,-2
5,0,-4,-3,4,-2,-14,-34,-11,-27,-4,-2
6,0,-5,-3,5,-2,-14,-33,-10,-26,-3,-1
6,0,-5,-3,6,-3,-13,-31,-9,-25,-2,-1
6,-1,-6,-3,6,-3,-13,-30,-8,-24,-2,-1
6,-2,-7,-2,7,-3,-12,-29,-7,-24,-2,-1
6,-3,-7,-2,7,-4,-12,-28,-6,-23,-1,-1
5,-3,-7,-1,6,-4,-11,-27,-5,-22,-1,-1
4,-3,-7,-1,6,-4,-11,-26,-4,-22,0,-1
4,-3,-7,-1,6,-4,-11,-26,-4,-21,0,-1
5,-3,-8,-2,6,-5,-11,-25,-3,-20,1,-1
6,-2,-8,-3,7,-4,-10,-24,-2,-19,2,-1
6,-2,-8,-3,7,-4,-10,-22,0,-17,2,0
5,-2,-7,-3,6,-4,-9,-21,1,-17,2,-1
4,-2,-6,-2,6,-3,-9,-20,2,-16,2,-1
5,-1,-6,-3,6,-3,-9,-19,3,-15,3,0
6,0,-6,-4,7,-3,-9,-18,4,-14,4,0
6,0,-6,-4,6,-2,-8,-17,5,-13,4,1
6,-1,-6,-3,6,-3,-7,-16,6,-12,4,0
6,-2,-7,-3,6,-3,-7,-15,7,-11,4,0
7,-2,-8,-3,7,-4,-7,-14,8,-10,5,0
8,-3,-10,-3,9,-5,-7,-12,9,-9,5,0
7,-3,-10,-3,9,-6,-7,-11,10,-8,6,0
7,-2,-10,-3,9,-6,-6,-10,12,-7,7,1
7,-2,-10,-3,9,-6,-6,-10,13,-6,8,1
7,-3,-10,-3,9,-6,-6,-10,13,-6,8,1
7,-3,-10,-3,9,-6,-6,-9,14,-5,8,1
7,-3,-10,-3,9,-6,-7,-8,15,-4,9,1
7,-2,-10,-3,9,-5,-7,-8,16,-3,10,0
7,-2,-9,-3,9,-5,-7,-7,16,-2,10,0
7,-2,-9,-3,8,-5,-7,-6,17,-2,10,0
7,-2,-9,-3,8,-5,-7,-5,17,-1,10,-1
8,-2,-10,-3,9,-6,-7,-5,18,-1,9,-1
9,-3,-11,-3,10,-7,-8,-5,19,-1,9,-2
9,-2,-11,-3,10,-6,-8,-4,19,0,10,-2
8,-1,-10,-3,8,-5,-7,-3,21,1,11,-1
7,-1,-8,-3,7,-4,-6,-2,22,3,11,0
6,-1,-8,-3,7,-4,-5,-1,23,4,12,0
6,-2,-8,-3,8,-5,-6,-1,24,4,12,0
8,-2,-10,-4,10,-6,-7,-1,24,4,12,0
9,-2,-11,-4,11,-6,-7,-1,24,5,13,0
9,-1,-10,-4,10,-5,-7,0,24,5,13,1
8,-1,-9,-4,9,-5,-7,0,25,6,13,1
8,-2,-10,-4,9,-5,-7,0,25,6,13,1
8,-2,-10,-4,9,-5,-7,0,26,7,13,2
8,-3,-11,-4,9,-6,-7,0,26,7,13,2
8,-3,-11,-4,9,-6,-7,0,27,8,14,1
8,-3,-11,-3,9,-6,-7,0,28,9,14,2
9,-3,-12,-3,10,-6,-6,1,28,9,14,2
9,-3,-12,-3,10,-7,-7,1,29,9,14,2
8,-3,-11,-3,9,-7,-7,1,29,9,14,3
8,-3,-11,-3,9,-7,-7,1,29,9,14,3
8,-3,-12,-3,10,-7,-7,1,29,9,13,3
9,-4,-12,-3,10,-8,-7,2,30,10,13,3
9,-4,-13,-3,11,-8,-7,2,30,10,14,4
8,-4,-12,-3,10,-8,-7,2,31,11,14,5
7,-5,-12,-2,10,-8,-7,2,31,12,15,6
6,-5,-12,-1,9,-8,-8,3,31,13,16,7
5,-6,-11,0,9,-8,-8,3,32,13,17,7
5,-6,-11,0,8,-8,-8,3,32,13,17,7
5,-6,-11,0,8,-8,-8,3,32,13,16,7
6,-5,-11,0,9,-8,-8,3,32,12,15,7
6,-5,-11,-1,9,-8,-9,4,32,12,15,7
6,-5,-11,-1,9,-8,-9,4,32,13,15,7
7,-5,-11,-1,9,-8,-9,4,32,13,15,7
7,-5,-12,-1,10,-8,-9,3,31,13,15,7
8,-5,-12,-2,10,-8,-10,3,31,13,15,7
9,-4,-13,-3,11,-7,-10,3,31,14,16,7
9,-3,-13,-3,11,-7,-9,3,31,14,17,7
9,-2,-12,-4,11,-6,-9,3,31,15,17,8
9,-2,-11,-4,10,-6,-9,3,31,16,18,8
9,-1,-11,-4,10,-5,-9,3,31,16,17,8
10,-1,-11,-5,10,-5,-8,3,31,15,16,7
10,-1,-11,-5,11,-5,-8,3,30,15,16,7
11,0,-11,-6,11,-5,-7,3,30,15,16,7
11,0,-11,-6,10,-5,-7,4,31,15,16,7
10,0,-11,-5,10,-5,-7,4,31,16,17,7
10,-1,-11,-5,11,-6,-6,4,31,16,17,7
10,-1,-11,-5,10,-6,-6,4,31,16,17,8
9,-1,-10,-5,9,-5,-6,4,31,17,17,8
9,-1,-9,-4,9,-5,-5,4,31,17,18,9
9,-1,-10,-4,9,-5,-5,3,30,17,17,8
10,-1,-11,-5,10,-6,-6,2,30,16,17,8
10,-1,-11,-5,11,-6,-6,2,30,16,17,7
11,0,-11,-6,11,-6,-6,2,30,16,18,7
11,0,-11,-6,11,-6,-6,2,29,16,18,6
11,0,-11,-6,11,-6,-6,2,29,16,18,6
11,0,-10,-6,10,-5,-6,2,30,16,18,6
11,0,-9,-7,10,-4,-5,2,30,17,18,6
12,0,-11,-7,11,-5,-5,1,29,17,18,6
12,0,-12,-7,12,-5,-5,1,29,17,18,6
12,0,-11,-7,12,-5,-5,2,30,18,19,6
12,1,-11,-7,11,-5,-5,2,30,18,19,6
12,1,-11,-7,11,-5,-5,2,29,18,19,6
13,1,-11,-8,12,-5,-6,1,29,17,19,6
14,2,-11,-9,12,-4,-6,1,29,17,19,6
14,2,-10,-9,12,-3,-6,1,29,18,19,6
14,3,-10,-10,12,-3,-6,1,28,18,19,6
14,3,-10,-9,12,-3,-5,2,27,18,19,6
13,3,-10,-9,12,-3,-5,2,26,19,20,6
13,4,-9,-9,11,-2,-5,2,25,19,20,6
13,5,-9,-9,11,-2,-5,2,24,19,20,6
14,5,-9,-10,11,-2,-5,2,23,19,20,6
14,4,-10,-10,12,-3,-5,2,22,19,20,6
15,4,-11,-10,13,-3,-5,2,21,18,20,6
15,4,-11,-10,13,-3,-5,2,21,19,19,6
15,4,-11,-10,13,-3,-5,2,21,19,20,6
14,4,-10,-10,12,-2,-5,2,20,19,20,6
14,4,-10,-10,12,-2,-5,2,20,19,20,6
14,5,-10,-10,12,-2,-5,2,20,19,20,6
15,5,-10,-11,12,-2,-6,1,20,18,20,5
15,5,-10,-11,12,-2,-6,1,19,18,19,5
15,6,-9,-11,12,-1,-6,1,19,18,19,5
15,6,-9,-11,12,-1,-7,1,19,18,19,5
14,5,-9,-10,12,-2,-7,1,19,18,18,5
14,4,-9,-9,12,-3,-8,1,19,17,18,5
15,4,-9,-10,12,-3,-8,1,19,17,18,6
15,5,-9,-10,12,-2,-8,1,20,18,19,6
14,6,-9,-10,11,-2,-8,1,20,19,19,7
14,5,-9,-10,11,-2,-8,1,21,19,19,7
14,5,-10,-10,11,-3,-8,1,21,19,19,7
14,5,-9,-10,11,-2,-8,1,20,19,19,6
14,6,-9,-10,12,-1,-8,1,20,19,19,6
15,6,-8,-10,12,-1,-8,1,20,19,19,6
14,6,-7,-10,11,0,-8,1,20,19,19,6
13,6,-7,-9,9,0,-8,1,20,19,19,6
13,6,-7,-10,10,-1,-9,0,20,19,19,6
14,6,-8,-10,10,-1,-9,0,20,19,19,6
14,5,-9,-9,11,-1,-8,0,20,19,19,6
13,5,-8,-9,11,-1,-8,0,20,19,19,7
13,5,-8,-9,10,-1,-7,1,20,19,20,7
12,4,-8,-8,10,-1,-7,1,21,20,20,8
13,4,-8,-9,10,-1,-8,1,20,20,20,8
14,5,-8,-10,10,-1,-8,0,20,19,20,8
14,6,-7,-10,10,-1,-8,1,21,20,20,8
13,6,-6,-10,9,0,-8,2,21,20,21,9
12,7,-5,-9,8,0,-8,1,21,20,21,9
12,7,-5,-10,8,0,-8,0,21,20,21,9
12,7,-5,-10,9,0,-9,0,21,21,21,9
13,7,-5,-10,9,1,-9,0,20,20,21,9
13,7,-5,-10,9,1,-9,0,20,20,22,10
13,7,-4,-10,8,1,-8,0,20,20,22,10
13,8,-5,-10,8,1,-8,0,20,20,22,9
14,8,-5,-11,9,1,-8,0,20,20,21,9
15,9,-5,-12,10,1,-8,0,20,20,21,9
14,9,-4,-12,9,2,-8,0,20,21,22,9
13,10,-2,-12,7,3,-8,0,20,21,23,9
13,10,-1,-12,7,4,-9,0,20,22,23,10
13,11,-1,-13,7,5,-9,0,20,23,24,10
14,12,0,-13,7,6,-9,0,21,23,24,11
14,13,0,-14,7,6,-10,0,21,23,24,11
15,14,0,-14,7,7,-11,0,21,23,23,11
14,14,1,-14,6,8,-12,-1,21,23,23,12
13,14,2,-14,6,8,-13,-2,20,23,23,12
13,14,1,-14,6,8,-13,-3,19,22,22,12
14,14,1,-14,7,7,-14,-4,19,21,20,12
14,14,0,-14,7,7,-14,-4,19,21,20,12
14,14,0,-14,6,7,-14,-4,19,21,20,13
13,14,1,-14,5,8,-14,-4,19,22,21,13
13,14,1,-14,5,8,-13,-3,19,23,22,14
13,14,1,-13,5,7,-13,-3,19,23,22,14
12,13,1,-13,5,7,-13,-3,19,22,22,14
12,13,1,-13,4,8,-13,-3,19,22,21,14
11,13,1,-13,4,8,-13,-3,19,21,21,13
12,13,1,-13,5,7,-14,-3,18,21,20,13
12,13,1,-13,5,7,-14,-4,18,21,20,13
11,13,2,-12,4,8,-14,-3,18,21,20,14
10,13,3,-11,3,8,-13,-3,18,21,20,14
9,13,3,-11,2,8,-13,-3,18,22,20,14
9,13,4,-11,2,8,-13,-2,18,22,20,14
8,13,4,-11,1,8,-13,-2,19,22,20,15
8,13,4,-11,1,9,-13,-2,19,22,20,15
8,12,5,-10,1,9,-12,-3,19,22,19,15
8,11,4,-10,1,8,-12,-4,18,21,18,14
8,10,3,-9,2,7,-12,-5,16,19,17,13
7,10,3,-8,1,6,-12,-5,15,18,17,13
6,9,3,-7,1,6,-12,-5,15,18,16,12
5,8,3,-6,0,6,-12,-6,14,18,16,12
6,7,1,-6,1,4,-13,-6,14,17,15,11
6,6,0,-6,3,3,-13,-6,13,16,14,11
5,5,0,-5,2,3,-12,-6,13,16,14,11
4,5,0,-5,1,3,-12,-6,13,17,14,11
3,5,0,-5,1,3,-12,-6,13,17,15,11
3,5,1,-5,0,4,-12,-5,13,18,15,11
4,6,1,-5,0,4,-12,-5,12,17,15,10
5,6,0,-5,1,4,-13,-5,12,17,15,10
5,6,0,-5,1,4,-13,-5,12,17,15,9
5,6,1,-5,1,4,-13,-4,13,17,15,9
4,6,1,-5,1,4,-12,-4,13,17,15,9
5,5,0,-5,2,3,-12,-4,13,17,14,8
5,5,-1,-5,3,2,-12,-4,13,16,14,8
5,5,-1,-5,3,2,-12,-4,13,16,14,7
5,4,-1,-5,3,2,-13,-4,13,16,14,7
5,4,-1,-4,3,1,-13,-4,13,15,13,6
5,2,-2,-4,3,0,-13,-4,13,15,12,6
4,1,-3,-3,3,0,-13,-4,13,15,12,6
3,1,-2,-2,3,0,-13,-4,13,15,12,6
2,1,-1,-2,2,0,-13,-4,13,15,12,6
2,1,-1,-1,1,0,-14,-3,13,15,12,5
2,0,-2,-1,1,-1,-14,-3,12,14,11,4
2,0,-2,-1,2,-1,-14,-3,12,13,11,3
2,0,-2,-1,2,-1,-14,-3,12,13,12,3
2,0,-2,-1,2,-1,-15,-3,12,14,12,3
2,0,-2,-1,2,-1,-15,-3,12,14,12,3
2,0,-3,-1,3,-2,-16,-3,12,13,12,3
2,0,-3,-1,3,-2,-16,-3,12,13,11,2
2,-1,-3,0,2,-2,-16,-3,12,13,10,2
2,-2,-3,0,2,-2,-16,-3,12,13,10,2
2,-2,-4,0,3,-3,-16,-3,12,13,10,2
2,-2,-4,0,3,-3,-17,-3,12,13,10,2
2,-2,-4,0,2,-3,-17,-3,12,12,10,2
2,-1,-3,0,2,-2,-17,-3,12,13,10,2
1,-1,-3,0,2,-2,-17,-3,12,13,11,3
1,-1,-2,0,1,-2,-17,-3,12,13,11,2
1,-1,-3,0,2,-2,-18,-3,11,13,10,1
1,-2,-3,0,2,-3,-18,-3,11,12,10,1
0,-3,-4,1,1,-3,-17,-3,11,12,11,1
0,-3,-4,1,1,-3,-17,-3,11,12,10,2
0,-4,-5,2,2,-4,-18,-3,11,12,10,2
0,-4,-5,2,2,-4,-18,-3,10,12,9,2
0,-4,-5,2,2,-4,-18,-3,10,12,9,2
0,-4,-4,2,1,-3,-18,-3,10,12,9,2
0,-4,-5,1,2,-4,-19,-3,10,11,9,2
1,-4,-6,1,3,-5,-19,-4,10,11,9,2
1,-4,-6,1,3,-5,-19,-3,10,12,10,3
0,-4,-5,2,1,-4,-19,-3,11,12,10,3
-1,-5,-4,2,1,-4,-19,-3,11,12,10,3
0,-5,-6,2,2,-5,-19,-3,11,12,10,3
0,-5,-7,2,3,-6,-19,-3,11,11,10,3
0,-5,-6,2,3,-6,-19,-3,11,11,10,3
0,-5,-6,3,2,-6,-20,-3,11,11,10,3
0,-5,-6,3,2,-6,-20,-3,11,11,10,3
0,-5,-6,2,2,-6,-20,-3,11,11,9,3
0,-5,-6,2,2,-6,-20,-3,11,11,9,3
1,-5,-6,1,3,-6,-19,-3,11,11,9,3
1,-5,-7,1,3,-6,-18,-3,12,12,10,3
1,-6,-7,1,3,-6,-17,-2,12,13,10,4
0,-7,-7,2,3,-6,-15,-2,13,13,9,3
0,-7,-7,3,3,-7,-14,-2,13,12,9,3
0,-8,-7,4,3,-7,-14,-3,12,12,8,3
0,-8,-7,4,3,-7,-13,-3,12,12,8,3
0,-7,-7,4,2,-7,-13,-3,12,12,8,3
0,-7,-7,4,2,-7,-13,-3,12,12,8,2
0,-7,-7,4,2,-7,-13,-3,12,12,8,2
0,-7,-7,4,2,-7,-13,-3,12,12,9,2
0,-7,-7,4,2,-7,-12,-3,13,13,9,3
0,-7,-7,4,3,-7,-12,-3,13,14,9,3
0,-7,-8,3,3,-7,-12,-3,12,13,9,3
0,-7,-8,3,3,-7,-12,-4,12,12,8,2
1,-6,-8,3,3,-7,-12,-4,12,12,7,2
2,-6,-8,2,4,-7,-12,-3,12,11,7,2
2,-6,-9,2,4,-8,-12,-3,12,11,6,2
1,-7,-8,3,4,-7,-12,-2,12,12,7,3
0,-8,-7,4,2,-7,-11,-2,12,12,7,4
0,-8,-7,4,2,-7,-11,-2,12,12,7,4
0,-8,-8,4,3,-8,-11,-3,12,12,7,5
-1,-8,-7,5,2,-7,-10,-3,13,13,8,5
-2,-8,-6,5,1,-7,-9,-3,13,13,8,5
-1,-8,-7,5,2,-8,-9,-3,12,13,8,5
0,-8,-8,4,2,-8,-9,-3,12,12,8,4
0,-8,-8,4,3,-8,-9,-4,12,12,8,4
0,-8,-9,4,3,-8,-9,-4,12,12,7,4
1,-8,-10,4,4,-9,-10,-4,12,12,6,4
1,-8,-10,3,5,-9,-10,-4,12,12,5,4
1,-7,-9,3,4,-8,-10,-4,12,12,5,4
0,-6,-8,3,3,-7,-10,-3,12,12,6,5
0,-7,-8,3,4,-8,-10,-3,12,13,6,6
1,-8,-9,3,5,-8,-10,-3,11,13,6,6
1,-9,-10,3,5,-9,-10,-3,11,13,6,6
1,-9,-10,4,4,-9,-10,-3,11,13,6,6
1,-9,-10,4,4,-9,-10,-3,10,12,6,6
1,-9,-10,4,5,-9,-10,-3,10,12,6,6
1,-8,-10,4,5,-9,-10,-3,11,13,6,6
1,-8,-10,4,5,-9,-10,-3,11,13,6,6
1,-8,-10,4,5,-9,-10,-3,10,12,6,6
2,-8,-10,4,5,-9,-10,-3,10,12,5,5
2,-8,-10,3,5,-8,-10,-3,10,12,5,5
2,-8,-10,3,5,-8,-9,-3,10,12,5,6
2,-8,-10,3,5,-8,-9,-3,10,12,5,6
2,-8,-10,3,6,-9,-9,-3,10,12,5,6
2,-8,-10,3,6,-9,-9,-3,10,12,5,6
2,-8,-10,3,6,-9,-9,-3,10,12,4,6
2,-8,-11,3,6,-9,-9,-3,10,12,4,6
2,-8,-11,3,6,-9,-9,-3,10,12,4,6
2,-8,-10,3,6,-9,-9,-3,10,12,4,6
1,-8,-10,4,5,-8,-9,-3,11,13,4,7
0,-9,-9,5,4,-8,-8,-2,11,13,4,7
-1,-9,-9,5,4,-8,-9,-3,11,12,4,7
0,-9,-10,4,5,-9,-9,-4,10,11,4,6
0,-8,-10,4,5,-9,-9,-5,10,11,4,6
0,-9,-10,4,5,-9,-9,-5,10,11,5,7
0,-9,-10,4,5,-9,-9,-5,10,11,5,7
0,-9,-10,4,5,-9,-10,-5,10,12,5,7
0,-8,-9,4,4,-8,-10,-5,10,12,5,7
0,-7,-8,3,4,-8,-10,-5,11,13,6,8
1,-6,-8,2,4,-7,-11,-5,11,15,8,9
1,-5,-7,1,4,-6,-11,-5,12,17,11,11
2,-4,-7,0,5,-6,-12,-5,13,19,14,13
3,-3,-7,0,5,-5,-12,-6,14,21,17,16
5,-2,-7,-2,6,-4,-13,-6,14,23,21,20
6,-1,-8,-3,7,-4,-14,-5,15,26,24,23
6,-1,-8,-3,7,-4,-15,-4,17,30,29,26
7,-2,-11,-2,9,-6,-15,-3,18,33,32,27
10,-4,-15,-3,13,-9,-16,-3,19,35,34,27
12,-6,-19,-3,15,-12,-17,-2,20,36,35,27
13,-7,-21,-3,17,-14,-17,-1,19,36,36,27
14,-9,-24,-2,19,-16,-18,0,19,36,36,28
16,-12,-29,-2,22,-20,-18,0,18,35,37,28
19,-15,-35,-2,27,-24,-20,2,18,34,36,28
23,-17,-40,-2,31,-28,-22,3,17,34,36,27
26,-18,-44,-3,35,-31,-24,3,17,34,35,27
29,-18,-48,-4,38,-33,-25,5,17,33,32,24
29,-20,-50,-4,40,-35,-24,8,19,31,26,19
29,-22,-53,-3,41,-37,-23,12,22,31,20,13
29,-26,-55,-1,42,-40,-21,19,26,30,13,6
28,-31,-59,1,43,-45,-18,26,31,30,5,-2
28,-36,-64,4,46,-50,-16,33,35,28,-2,-11
28,-41,-69,6,48,-54,-15,39,37,26,-10,-18
26,-45,-71,9,49,-58,-13,43,39,21,-17,-24
24,-48,-72,12,48,-60,-11,46,39,15,-24,-30
21,-51,-72,15,47,-61,-9,48,39,8,-33,-36
18,-52,-71,17,45,-61,-6,49,37,0,-42,-42
15,-54,-69,20,43,-61,-3,50,35,-10,-51,-48
11,-55,-66,22,39,-61,0,51,33,-19,-59,-53
6,-55,-61,24,33,-58,3,51,30,-27,-67,-56
1,-54,-55,26,27,-54,7,50,27,-36,-73,-59
-5,-53,-48,29,21,-50,10,47,24,-46,-80,-62
-10,-51,-40,30,15,-45,12,43,20,-53,-84,-63
-15,-49,-34,32,9,-40,15,38,17,-59,-86,-64
-19,-47,-28,32,4,-36,17,33,14,-62,-87,-63
-23,-45,-22,33,0,-32,20,29,11,-63,-87,-62
-27,-42,-16,34,-5,-28,22,24,7,-65,-87,-61
-29,-38,-10,33,-10,-24,24,18,2,-68,-85,-59
-31,-35,-4,33,-14,-19,25,12,-3,-69,-83,-56
-32,-31,0,32,-17,-15,25,6,-7,-69,-79,-52
-32,-28,4,31,-18,-12,24,0,-10,-67,-74,-48
-32,-25,7,29,-19,-9,24,-3,-10,-62,-68,-43
-33,-22,9,27,-21,-6,23,-4,-9,-56,-61,-38
-31,-19,11,25,-21,-4,22,-4,-7,-50,-55,-34
-29,-17,11,23,-20,-3,21,-3,-5,-44,-49,-30
-27,-15,11,21,-19,-2,20,-2,-2,-38,-44,-26
-25,-14,11,19,-18,-2,19,0,0,-34,-39,-23
-23,-13,10,18,-17,-2,18,2,0,-30,-35,-20
-21,-12,9,17,-15,-1,16,3,1,-27,-31,-17
-19,-10,8,15,-14,0,14,4,2,-25,-28,-14
-18,-9,7,14,-13,0,13,5,3,-23,-25,-13
-17,-9,7,13,-12,0,13,6,4,-21,-23,-11
-17,-9,7,13,-12,0,12,8,6,-18,-21,-10
-17,-9,7,12,-12,0,12,9,7,-15,-19,-9
-16,-8,8,12,-12,0,12,10,8,-12,-17,-8
-16,-7,9,12,-13,1,12,12,9,-10,-15,-6
-16,-6,10,11,-13,2,12,12,10,-9,-14,-5
-16,-4,11,11,-14,4,12,12,11,-8,-12,-3
-16,-3,12,10,-14,5,13,12,11,-8,-10,-2
-15,-1,12,9,-14,6,13,11,10,-7,-9,-1
-14,0,12,7,-14,6,13,11,10,-6,-8,0
-14,0,14,6,-15,7,14,12,11,-4,-6,1
-14,1,15,6,-15,8,16,12,11,-3,-5,2
-14,1,15,7,-15,8,17,12,12,-2,-5,2
-15,1,16,7,-16,8,18,12,13,-2,-5,3
-15,1,16,8,-16,9,19,13,14,-1,-4,3
-15,1,16,7,-16,9,20,13,15,-1,-4,4
-16,2,17,7,-17,10,22,14,16,-1,-3,4
-17,3,19,7,-18,11,23,14,17,0,-3,5
-17,3,20,7,-18,11,24,13,17,1,-2,5
-17,3,19,6,-18,11,25,12,17,1,-2,6
-16,3,19,6,-18,11,24,10,16,1,-2,6
-16,4,20,6,-18,12,24,8,15,1,-2,6
-15,5,20,5,-18,13,23,6,14,0,-2,6
-14,5,19,4,-17,13,21,3,13,0,-2,6
-13,6,19,3,-16,13,18,1,13,0,-1,6
-14,7,20,3,-17,14,16,0,13,1,0,7
-14,8,22,2,-18,16,13,-1,13,2,0,8
-14,9,23,1,-19,17,11,-2,13,4,2,9
-13,11,23,0,-18,17,9,-3,14,5,3,10
-12,12,23,0,-18,18,7,-3,14,6,4,11
-11,13,24,-1,-18,18,6,-3,15,7,5,12
-10,14,24,-1,-17,19,4,-3,16,7,7,13
-9,15,24,-2,-17,20,3,-3,17,8,8,14
-9,15,24,-3,-16,20,3,-2,19,9,9,15
-9,15,24,-3,-16,20,2,-2,20,10,9,15
-8,15,24,-3,-16,20,2,-1,20,10,10,15
-8,16,25,-3,-16,20,3,-1,21,11,10,15
-8,17,25,-4,-17,21,3,0,21,11,10,16
-7,17,25,-4,-16,21,2,0,22,11,10,16
-6,18,24,-5,-16,21,2,-1,22,11,11,17
-6,18,24,-5,-16,21,2,-1,22,12,11,17
-6,18,24,-5,-15,21,1,-1,23,12,12,17
-6,18,24,-5,-15,21,1,-1,23,12,12,17
-6,18,24,-6,-15,22,1,-1,24,12,12,17
-6,18,24,-6,-15,22,1,-1,24,13,12,17
-6,18,24,-6,-15,22,1,-1,24,13,13,18
-7,18,25,-6,-16,22,1,-1,24,13,13,18
-7,18,25,-5,-17,22,1,-1,24,13,13,19
-6,18,24,-6,-16,22,1,-1,24,13,13,19
-6,19,25,-6,-16,23,2,-1,25,13,13,19
-6,21,27,-7,-17,24,2,-1,25,14,14,19
-6,22,28,-7,-17,26,2,-1,26,15,15,20
-6,22,29,-8,-18,26,2,0,26,16,16,21
-5,23,29,-8,-17,26,2,0,27,16,16,21
-4,23,28,-9,-17,26,1,0,27,16,16,21
-4,24,28,-9,-17,27,1,0,27,16,16,22
-4,24,29,-9,-17,27,2,0,28,17,17,22
-4,24,29,-10,-17,27,2,1,29,17,17,23
-4,25,29,-10,-17,28,2,1,29,17,17,23
-4,25,29,-10,-17,27,1,1,28,16,17,22
-4,25,29,-10,-17,27,1,1,28,15,17,22
-5,26,30,-11,-18,28,2,1,28,16,17,23
-5,26,30,-11,-18,28,3,2,29,17,18,23
-4,26,30,-11,-17,28,3,2,29,17,18,24
-4,26,30,-11,-17,29,3,2,30,18,18,24
-4,27,31,-11,-17,29,3,2,31,18,19,24
-4,28,31,-12,-17,30,2,2,31,18,19,24
-3,29,32,-13,-17,31,2,2,32,19,20,25
-3,31,33,-14,-18,32,1,2,32,20,21,26
-3,32,34,-15,-18,33,1,2,32,20,21,27
-2,34,35,-16,-18,34,0,1,32,20,22,27
-1,35,36,-17,-18,36,0,1,32,21,22,28
0,36,37,-18,-19,37,0,0,32,21,23,29
0,37,37,-18,-18,37,-1,0,32,20,23,29
0,36,36,-18,-18,37,-1,-1,31,19,22,29
0,36,36,-18,-18,37,-2,-2,31,19,22,29
0,37,37,-18,-18,37,-2,-2,30,19,22,29
-1,37,38,-18,-19,38,-2,-2,30,19,23,30
-1,38,40,-18,-21,39,-2,-2,30,19,23,30
-2,39,41,-18,-22,40,-2,-1,30,19,24,31
-2,40,42,-18,-22,41,-2,-1,31,20,24,31
-2,39,42,-18,-22,41,-2,-1,31,20,24,31
-2,39,41,-18,-21,41,-2,-1,30,20,24,32
-1,39,41,-18,-21,41,-2,-2,30,20,24,32
-1,39,40,-19,-20,40,-2,-2,30,20,24,32
0,40,40,-19,-20,40,-2,-2,30,19,24,33
0,40,40,-20,-20,41,-2,-1,30,19,24,33
0,41,42,-20,-21,42,-2,-1,31,20,25,34
0,42,44,-20,-22,43,-1,0,31,20,26,35
-1,43,45,-20,-23,44,-1,0,32,20,26,36
-1,42,44,-20,-23,43,-2,0,31,19,26,36
-1,41,43,-20,-22,42,-2,-1,30,18,25,36
-2,41,43,-20,-22,42,-2,-2,29,18,25,36
-2,41,43,-19,-22,42,-2,-3,28,16,25,36
-2,40,43,-19,-22,42,-2,-4,26,15,23,35
-2,40,43,-18,-23,42,-2,-5,25,13,22,34
-3,39,43,-18,-23,42,-2,-6,24,12,20,32
-3,39,43,-17,-23,41,-3,-7,23,10,19,31
-3,38,42,-17,-23,41,-3,-7,23,10,18,31
-4,38,42,-16,-23,40,-3,-8,22,9,18,31
-5,37,42,-15,-23,40,-4,-8,21,9,18,31
-6,35,41,-14,-23,39,-4,-9,20,8,18,31
-6,34,40,-13,-23,37,-5,-10,19,7,17,31
-6,33,40,-13,-23,37,-5,-11,18,6,17,31
-6,33,39,-13,-23,37,-5,-12,17,5,17,31
-5,33,39,-14,-22,36,-6,-13,16,3,16,31
-4,33,38,-14,-21,36,-6,-13,15,2,16,31
-4,34,38,-14,-21,36,-6,-14,15,2,16,31
-4,34,38,-14,-21,36,-6,-14,14,1,15,31
-3,33,37,-14,-20,35,-7,-15,14,1,15,31
-3,32,36,-14,-19,34,-7,-16,13,0,15,31
-3,32,35,-14,-19,34,-8,-17,11,-1,15,31
-2,32,35,-14,-19,34,-8,-19,10,-3,14,30
-1,33,34,-15,-18,34,-9,-20,8,-4,13,30
0,33,34,-16,-17,34,-9,-20,8,-5,13,30
0,33,34,-15,-17,33,-9,-21,7,-6,12,30
0,32,33,-15,-16,33,-10,-22,6,-7,11,29
0,32,32,-16,-15,32,-10,-23,5,-8,10,29
0,32,31,-16,-15,32,-11,-25,3,-10,10,29
0,31,30,-15,-15,31,-11,-27,2,-11,9,29
0,30,30,-15,-15,31,-12,-28,0,-13,9,29
1,30,30,-15,-14,31,-12,-29,0,-13,8,29
1,30,29,-15,-13,30,-13,-30,-1,-14,8,28
2,30,28,-15,-13,29,-13,-30,-2,-15,7,28
2,29,27,-15,-13,29,-13,-31,-3,-16,6,27
2,29,26,-15,-12,28,-14,-32,-4,-17,5,27
2,28,25,-15,-12,28,-14,-33,-5,-18,4,26
2,27,24,-15,-11,26,-14,-33,-6,-20,4,26
3,25,22,-14,-10,24,-14,-34,-7,-22,3,25
4,24,20,-14,-8,22,-15,-35,-9,-23,2,24
4,23,18,-13,-7,21,-15,-36,-10,-24,1,24
3,21,17,-13,-7,20,-15,-37,-11,-25,0,24
3,20,17,-12,-7,19,-15,-37,-12,-26,0,24
3,20,17,-11,-7,19,-15,-37,-12,-26,0,24
3,19,16,-11,-7,18,-15,-37,-12,-27,0,24
3,18,15,-10,-7,17,-15,-37,-13,-29,-1,23
3,17,14,-10,-6,16,-16,-38,-14,-30,-2,22
3,17,13,-10,-6,16,-16,-39,-15,-31,-4,21
3,17,13,-10,-6,15,-16,-39,-16,-32,-5,20
3,16,13,-10,-5,15,-16,-39,-16,-33,-6,19
3,15,12,-9,-4,14,-15,-38,-16,-34,-6,18
5,14,9,-9,-2,12,-15,-38,-16,-34,-6,18
6,13,7,-9,0,11,-15,-38,-16,-34,-6,17
6,12,6,-9,0,10,-15,-38,-15,-34,-6,17
6,12,6,-9,0,10,-15,-37,-15,-34,-6,17
6,11,5,-8,0,9,-15,-37,-15,-35,-6,17
6,10,4,-8,0,8,-14,-36,-15,-35,-6,16
5,10,5,-8,0,8,-14,-35,-15,-35,-6,16
5,10,5,-7,0,8,-14,-35,-15,-35,-7,15
5,10,4,-7,0,8,-14,-34,-14,-34,-8,14
5,9,3,-7,1,7,-13,-33,-14,-34,-8,13
5,8,2,-7,1,6,-13,-33,-13,-34,-9,12
5,7,1,-6,2,4,-13,-32,-13,-34,-9,12
6,6,0,-6,2,3,-13,-31,-12,-34,-9,12
6,5,0,-5,3,3,-12,-30,-11,-33,-9,12
7,5,-1,-5,3,2,-12,-29,-10,-33,-8,12
7,4,-2,-5,4,2,-11,-27,-9,-32,-8,13
6,4,-2,-5,4,2,-11,-26,-8,-31,-7,13
6,4,-2,-5,4,1,-11,-24,-7,-30,-7,13
6,3,-2,-4,4,1,-10,-23,-6,-29,-7,13
6,3,-2,-4,4,0,-10,-23,-5,-28,-7,13
6,3,-3,-5,4,0,-10,-22,-4,-28,-6,13
6,3,-3,-5,4,0,-10,-21,-3,-27,-5,13
5,3,-2,-4,4,0,-9,-20,-2,-26,-4,13
5,3,-2,-4,4,0,-9,-18,0,-25,-4,12
5,2,-3,-4,4,0,-8,-16,1,-24,-4,12
6,2,-4,-4,5,0,-8,-15,2,-23,-3,12
6,2,-4,-5,5,0,-7,-14,3,-22,-3,12
6,2,-3,-5,5,0,-7,-13,4,-22,-2,12
6,2,-3,-5,5,0,-7,-12,5,-21,-2,12
7,2,-4,-5,5,-1,-6,-11,6,-20,-1,13
7,1,-5,-5,6,-1,-6,-10,8,-19,-1,13
7,1,-4,-4,6,-1,-5,-8,10,-18,0,14
6,1,-4,-4,5,-1,-5,-7,12,-16,0,14
6,0,-5,-3,5,-2,-5,-5,13,-15,0,14
6,0,-6,-3,5,-2,-5,-4,14,-15,1,13
6,0,-5,-3,4,-2,-4,-3,15,-14,1,14
6,0,-5,-3,4,-2,-4,-2,16,-13,2,14
7,0,-6,-3,5,-2,-4,-1,17,-12,2,14
7,0,-7,-4,6,-2,-4,0,18,-12,2,14
7,0,-6,-4,6,-2,-3,1,19,-11,3,14
6,0,-6,-4,6,-2,-3,3,21,-10,3,14
6,0,-6,-4,6,-2,-3,4,22,-10,3,14
7,0,-7,-5,7,-2,-4,5,23,-10,3,14
8,0,-8,-5,8,-3,-3,6,24,-9,4,14
7,0,-7,-4,7,-2,-3,7,26,-8,5,15
6,0,-6,-3,6,-2,-2,8,27,-7,6,15
6,0,-6,-3,6,-2,-2,9,28,-6,6,15
6,0,-6,-3,6,-2,-2,9,29,-6,6,15
7,0,-7,-4,7,-2,-2,10,30,-6,6,15
8,0,-7,-4,7,-3,-2,11,28,-5,7,15
8,0,-7,-4,7,-3,-2,12,21,-4,7,15
8,-1,-8,-4,7,-4,-2,13,10,-3,7,15
7,-1,-8,-4,7,-4,-2,13,1,-3,7,15
6,-1,-7,-3,6,-3,-2,14,-5,-2,8,16
6,-1,-7,-3,6,-3,-2,14,-10,-1,9,16
7,-1,-8,-3,7,-4,-2,15,-14,0,9,17
7,-2,-8,-3,7,-4,-2,16,-17,0,9,17
6,-2,-7,-2,7,-3,-2,17,-19,0,9,17
6,-1,-7,-3,7,-3,-2,17,-21,1,9,16
7,-1,-8,-4,7,-3,-3,17,-22,1,9,16
7,-1,-8,-4,8,-3,-3,18,-23,2,9,15
7,-2,-9,-4,8,-4,-3,18,-24,2,9,15
7,-2,-10,-3,8,-5,-3,18,-25,2,9,16
7,-3,-9,-3,8,-5,-2,19,-26,3,9,16
7,-3,-10,-3,8,-5,-2,20,-26,4,9,16
8,-3,-11,-3,9,-6,-3,20,-27,4,9,16
9,-3,-12,-3,10,-6,-3,20,-28,5,10,17
9,-3,-12,-3,10,-6,-3,21,-28,5,10,17
8,-3,-11,-3,9,-6,-2,21,-28,6,10,17
8,-3,-11,-3,9,-6,-2,21,-28,6,11,17
7,-3,-10,-3,9,-6,-2,22,-28,7,11,17
7,-3,-10,-3,9,-6,-2,22,-29,8,11,17
7,-3,-10,-3,9,-6,-2,23,-29,8,11,17
7,-3,-9,-3,9,-6,-2,23,-30,8,11,17
7,-3,-9,-2,8,-6,-2,24,-30,8,11,17
7,-3,-9,-2,9,-6,-2,24,-30,8,11,17
7,-4,-11,-2,9,-7,-2,24,-30,8,11,17
7,-5,-12,-2,9,-7,-2,24,-30,8,11,18
7,-5,-12,-2,9,-7,-2,24,-31,8,11,18
8,-5,-13,-2,10,-8,-2,24,-31,9,12,18
9,-5,-14,-2,11,-8,-2,24,-31,9,12,18
9,-5,-14,-2,11,-9,-3,24,-32,10,12,18
9,-5,-14,-2,12,-9,-3,25,-32,10,12,18
9,-4,-13,-2,11,-8,-3,25,-32,10,12,18
8,-4,-11,-2,10,-7,-3,26,-32,10,13,19
7,-3,-10,-2,9,-6,-3,26,-32,11,13,19
6,-3,-10,-2,8,-6,-3,26,-32,11,13,19
6,-3,-10,-2,8,-6,-3,26,-32,10,13,18
6,-3,-10,-2,8,-6,-3,27,-33,10,12,18
6,-2,-9,-3,8,-5,-3,27,-33,11,12,18
6,-3,-9,-3,8,-5,-2,27,-33,11,12,19
7,-3,-10,-2,8,-6,-2,27,-33,11,12,19
7,-4,-11,-2,9,-7,-2,27,-33,11,12,19
8,-5,-11,-2,9,-7,-2,27,-33,11,12,19
8,-5,-12,-2,10,-7,-2,27,-34,11,12,19
9,-5,-12,-2,10,-8,-2,27,-34,11,12,19
9,-5,-13,-2,10,-8,-2,27,-34,11,12,19
8,-5,-13,-2,10,-8,-2,25,-34,12,12,19
8,-5,-13,-2,10,-8,-2,23,-34,12,12,19
8,-5,-12,-2,10,-8,-3,21,-35,11,12,19
7,-4,-11,-2,9,-7,-3,20,-34,12,12,20
7,-4,-11,-2,9,-6,-3,18,-34,12,12,20
7,-4,-11,-2,9,-6,-3,17,-34,12,12,19
8,-3,-11,-2,9,-6,-3,17,-34,12,12,19
8,-3,-11,-2,9,-6,-3,16,-34,13,12,20
8,-3,-11,-2,9,-6,-3,16,-34,13,13,20
8,-3,-10,-2,9,-6,-3,15,-34,13,13,21
7,-3,-10,-2,9,-5,-3,14,-34,13,12,21
7,-3,-10,-3,9,-5,-3,13,-34,13,12,21
8,-3,-11,-3,10,-6,-3,12,-34,13,12,21
9,-3,-12,-3,10,-7,-3,11,-35,13,12,21
9,-3,-12,-3,10,-7,-3,11,-35,13,12,21
9,-2,-11,-3,10,-6,-3,11,-35,13,12,21
8,-2,-10,-3,9,-5,-3,11,-34,13,13,22
8,-2,-10,-3,9,-5,-3,10,-34,13,13,22
9,-3,-11,-3,10,-6,-3,9,-35,13,12,23
9,-3,-11,-3,10,-6,-3,9,-35,13,12,23
8,-3,-11,-3,10,-6,-3,9,-34,13,12,23
7,-3,-10,-2,9,-6,-3,9,-34,13,12,23
7,-3,-10,-1,8,-6,-3,9,-34,13,12,23
7,-3,-10,-2,9,-6,-3,8,-34,13,12,23
8,-3,-10,-2,9,-6,-3,8,-34,13,11,23
7,-3,-10,-2,9,-6,-3,8,-34,13,12,23
6,-3,-9,-2,8,-6,-3,8,-34,13,12,23
6,-3,-10,-2,8,-6,-3,7,-34,13,12,23
7,-3,-11,-2,9,-7,-3,6,-34,12,12,23
8,-3,-11,-2,9,-7,-3,6,-34,12,11,23
7,-2,-10,-2,9,-6,-3,6,-34,12,11,23
7,-3,-10,-1,8,-6,-3,6,-34,12,11,23
7,-3,-10,-2,9,-7,-3,6,-34,12,11,23
8,-3,-11,-2,10,-7,-3,6,-34,12,11,23
8,-4,-12,-2,10,-8,-3,6,-34,12,11,23
8,-4,-12,-2,11,-8,-3,5,-34,12,11,23
8,-3,-12,-3,11,-8,-3,5,-34,12,11,24
9,-3,-12,-3,11,-7,-3,5,-34,12,12,24
9,-2,-11,-3,10,-7,-4,5,-34,12,13,25
8,-2,-10,-3,9,-6,-4,5,-34,12,12,25
7,-2,-9,-3,8,-5,-3,5,-34,12,12,24
6,-2,-8,-2,7,-5,-3,4,-33,12,12,24
6,-2,-8,-2,7,-5,-3,4,-33,12,12,24
6,-2,-8,-2,7,-5,-3,4,-33,12,12,24
7,-2,-9,-2,8,-5,-3,4,-33,11,11,24
7,-3,-9,-2,8,-6,-2,4,-32,11,11,24
6,-3,-9,-2,8,-6,-2,4,-32,11,11,24
6,-3,-9,-2,8,-6,-2,4,-32,11,11,24
7,-3,-10,-2,9,-6,-3,4,-33,11,11,24
8,-2,-11,-3,10,-7,-3,3,-33,11,11,24
8,-2,-10,-3,10,-6,-3,3,-32,11,11,24
8,-2,-10,-3,10,-6,-3,3,-32,11,11,24
8,-2,-10,-3,9,-6,-3,4,-32,11,11,24
7,-2,-10,-3,9,-6,-3,4,-31,11,11,24
7,-2,-10,-3,9,-6,-3,3,-31,11,10,24
7,-2,-10,-2,9,-6,-4,3,-32,10,9,24
7,-2,-10,-2,9,-6,-4,3,-32,10,9,24
8,-2,-11,-3,10,-7,-4,3,-32,10,9,24
9,-2,-12,-3,10,-7,-3,3,-31,10,9,24
8,-2,-11,-3,9,-7,-3,4,-31,10,9,25
7,-2,-10,-2,8,-7,-3,4,-30,11,10,25
7,-2,-10,-2,9,-7,-3,4,-30,11,10,25
7,-2,-10,-3,9,-7,-3,3,-30,10,10,25
7,-2,-10,-3,9,-7,-2,3,-30,10,10,25
7,-2,-10,-3,8,-6,-2,4,-30,11,10,26
6,-2,-9,-2,7,-6,-2,4,-29,11,10,26
6,-2,-9,-2,7,-6,-2,4,-29,11,10,26
7,-1,-9,-2,8,-6,-2,4,-30,11,9,26
7,0,-9,-3,8,-6,-2,4,-30,11,9,26
7,0,-9,-3,8,-6,-2,5,-30,11,9,26
7,-1,-10,-3,8,-6,-2,5,-30,10,9,26
7,-1,-9,-3,8,-6,-2,5,-30,10,9,26
7,-1,-9,-3,8,-5,-2,4,-30,10,9,26
7,-1,-9,-3,8,-6,-2,4,-30,10,9,26
7,-1,-9,-3,8,-6,-2,4,-29,11,9,26
7,0,-9,-3,8,-5,-2,4,-29,11,9,27
7,0,-8,-3,8,-5,-2,4,-29,11,9,27
8,0,-9,-4,8,-5,-2,4,-29,10,9,27
9,0,-9,-4,9,-5,-2,4,-28,11,9,27
8,0,-8,-4,8,-4,-1,4,-28,11,10,27
8,0,-8,-4,8,-4,-1,4,-28,11,10,28
9,0,-9,-5,9,-4,-2,5,-28,10,9,28
9,0,-9,-5,9,-5,-2,5,-28,10,9,27
10,0,-9,-5,10,-5,-2,5,-28,9,9,27
10,1,-9,-5,10,-5,-2,5,-28,9,9,28
9,1,-9,-5,9,-4,-2,5,-27,10,9,28
9,2,-8,-5,9,-3,-1,6,-27,10,10,29
9,2,-7,-5,8,-2,-1,6,-26,10,10,29
9,3,-6,-6,7,-2,-1,6,-26,11,10,30
8,3,-5,-6,7,-1,-1,6,-25,11,10,30
8,4,-5,-6,7,-1,-1,6,-25,12,10,31
9,4,-5,-7,7,-1,-1,6,-25,12,10,31
9,5,-5,-7,6,0,-1,6,-24,12,10,31
9,5,-4,-7,6,0,-1,6,-24,12,10,31
9,4,-5,-7,7,0,-1,6,-24,12,10,32
9,4,-5,-7,7,-1,-2,6,-24,12,10,32
9,4,-5,-7,7,-1,-1,6,-24,12,10,32
9,4,-6,-7,7,-1,-1,6,-24,12,10,32
10,4,-6,-7,8,-1,-1,6,-24,12,10,32
10,4,-6,-7,8,-1,0,7,-23,12,11,33
10,5,-5,-7,8,0,0,8,-22,13,12,34
9,5,-5,-7,7,0,0,8,-22,14,12,34
10,6,-4,-8,7,1,0,8,-21,14,12,34
10,8,-3,-9,6,2,-1,8,-21,15,13,35
10,10,-1,-10,5,4,-1,8,-20,15,13,35
11,11,0,-10,5,5,-2,8,-20,15,13,36
12,12,-1,-11,6,5,-2,7,-20,15,13,36
12,12,-1,-12,7,5,-3,6,-21,15,14,37
13,12,-2,-12,7,5,-3,5,-21,15,15,37
13,12,-2,-12,7,5,-4,5,-21,15,15,38
13,13,-1,-13,7,6,-4,4,-21,15,15,38
13,14,0,-13,6,7,-4,4,-21,15,15,39
13,14,1,-13,6,7,-3,4,-21,16,14,39
13,15,1,-13,6,7,-3,5,-21,17,15,39
13,15,1,-13,6,7,-3,5,-20,17,15,39
13,14,0,-13,7,6,-3,5,-20,16,15,39
12,14,0,-13,6,6,-3,5,-20,16,15,39
12,14,0,-13,6,6,-3,5,-20,16,16,40
12,14,0,-13,6,6,-3,5,-20,16,16,40
13,14,0,-13,6,6,-3,5,-20,17,16,40
13,14,0,-13,6,6,-3,5,-20,17,16,40
12,14,0,-12,6,6,-3,5,-20,17,16,40
11,14,1,-12,5,7,-3,5,-19,17,16,41
11,15,2,-13,4,8,-2,6,-18,17,17,41
11,16,3,-13,4,9,-2,7,-18,17,17,42
11,16,4,-14,3,10,-1,7,-17,18,17,42
10,16,5,-13,2,10,-1,7,-17,18,17,42
10,16,5,-13,2,10,-1,8,-17,18,17,41
10,15,4,-12,3,9,-1,8,-17,18,16,41
10,13,3,-11,4,7,-1,7,-18,17,15,40
10,12,2,-10,4,6,-1,7,-19,15,14,39
9,12,2,-10,4,6,-1,6,-19,15,14,39
7,11,3,-9,2,6,0,6,-19,15,13,39
7,11,3,-9,2,6,0,6,-19,14,13,39
7,10,2,-9,2,5,0,6,-19,14,13,39
7,10,1,-8,3,5,0,6,-19,14,13,39
7,9,1,-8,3,4,0,7,-19,14,13,40
8,9,0,-9,4,4,0,7,-19,14,13,40
9,9,0,-9,5,4,-1,6,-19,14,13,40
9,9,0,-9,4,4,-1,6,-18,14,13,40
8,9,1,-9,3,5,-1,7,-18,14,12,39
8,9,1,-8,3,5,-1,7,-18,14,12,39
8,9,0,-8,4,4,-1,7,-18,14,12,39
8,8,-1,-8,5,3,-1,7,-18,14,12,39
8,8,-1,-8,5,3,-1,7,-17,14,13,40
8,8,-1,-8,5,3,-1,7,-17,14,13,40
8,8,-1,-8,5,3,-1,8,-17,14,13,39
8,7,-2,-7,5,2,-1,8,-17,14,13,39
8,7,-2,-7,5,2,-1,9,-17,14,13,39
8,7,-2,-7,5,2,-1,9,-17,14,13,38
8,6,-3,-7,5,1,-1,9,-17,14,12,38
8,5,-4,-7,6,0,-1,9,-17,13,11,38
8,5,-5,-6,7,0,-1,9,-17,13,11,37
7,5,-4,-6,6,0,-1,10,-17,14,11,37
6,5,-3,-5,5,1,-1,10,-17,13,11,37
7,4,-4,-5,5,0,-1,9,-17,13,11,37
8,4,-5,-6,6,0,-2,9,-17,13,11,36
8,4,-5,-6,7,0,-2,9,-17,13,11,36
8,4,-4,-6,7,0,-2,9,-17,13,11,36
8,4,-4,-6,7,-1,-2,9,-17,13,11,36
8,4,-5,-6,7,-1,-2,9,-17,12,10,36
8,4,-5,-6,7,-1,-2,9,-16,12,10,35
7,4,-5,-5,6,-1,-3,9,-16,11,10,35
7,3,-5,-5,6,-1,-3,10,-16,11,10,35
8,3,-5,-5,7,-1,-2,10,-15,12,10,35
8,3,-5,-5,7,-1,-2,10,-15,12,10,35
8,3,-5,-6,7,-1,-2,10,-15,12,10,35
8,3,-5,-6,7,-1,-2,10,-15,12,10,35
8,4,-4,-6,6,-1,-2,10,-14,13,11,35
7,4,-4,-6,6,0,-2,10,-14,13,11,35
8,4,-4,-6,6,0,-2,10,-14,13,11,35
8,4,-5,-6,7,-1,-2,10,-14,12,10,34
9,4,-6,-6,7,-1,-2,11,-14,12,10,34
8,3,-6,-5,7,-1,-2,11,-13,12,10,34
8,3,-6,-5,7,-1,-2,11,-13,12,10,35
8,3,-6,-5,7,-2,-3,11,-14,12,10,35
9,3,-6,-5,7,-2,-3,11,-14,12,10,35
9,3,-7,-5,7,-2,-3,11,-14,12,11,35
9,3,-7,-5,7,-2,-3,11,-14,12,11,35
9,3,-7,-5,8,-2,-3,11,-14,12,11,34
9,3,-7,-6,8,-2,-3,11,-14,12,11,33
9,3,-6,-6,8,-2,-3,11,-15,12,11,33
8,3,-6,-6,7,-2,-3,11,-16,12,11,32
8,3,-6,-6,7,-2,-3,11,-17,12,10,32
9,3,-7,-6,8,-2,-3,11,-17,12,10,31
9,3,-7,-6,8,-2,-3,11,-18,12,10,31
9,2,-7,-5,8,-2,-2,11,-18,12,10,31
9,2,-8,-5,9,-3,-2,11,-19,12,10,31
10,2,-8,-5,9,-3,-2,10,-19,12,11,30
9,2,-8,-5,8,-3,-2,6,-19,13,11,30
9,2,-7,-5,8,-3,-2,1,-19,13,11,30
9,2,-7,-5,8,-3,-2,-2,-20,13,11,29
9,2,-7,-6,8,-3,-2,-5,-20,13,11,29
10,2,-8,-6,8,-3,-2,-8,-20,13,11,28
10,2,-8,-6,8,-3,-2,-9,-20,13,11,27
9,2,-7,-6,8,-2,-2,-10,-20,13,10,26
8,2,-7,-6,7,-2,-2,-11,-20,13,10,25
8,1,-8,-5,7,-3,-2,-12,-20,13,9,24
8,0,-8,-5,8,-4,-2,-12,-20,13,9,24
9,0,-9,-5,9,-5,-2,-12,-20,13,9,24
9,0,-10,-5,10,-5,-2,-12,-20,13,9,23
10,0,-10,-5,10,-5,-2,-12,-20,12,9,22
10,0,-10,-5,10,-5,-1,-12,-20,12,10,22
9,0,-9,-5,9,-4,-1,-12,-19,13,10,22
8,0,-8,-4,9,-4,-1,-12,-19,13,10,21
8,0,-8,-4,9,-4,-1,-12,-19,13,10,21
8,0,-8,-4,9,-4,-1,-12,-18,13,10,20
8,0,-8,-4,9,-4,-1,-11,-18,13,10,20
8,0,-8,-4,9,-4,0,-11,-17,13,10,20
8,0,-8,-4,9,-4,0,-11,-17,13,9,19
9,0,-9,-4,9,-4,-1,-11,-17,13,9,18
9,0,-9,-5,9,-4,-1,-12,-17,13,9,17
9,0,-9,-5,9,-4,-1,-12,-17,14,9,17
9,0,-9,-5,9,-4,-1,-12,-16,14,10,16
9,1,-8,-5,9,-3,-1,-11,-15,15,11,16
9,1,-7,-6,8,-3,-1,-11,-14,15,12,16
9,2,-7,-6,8,-2,-1,-11,-14,16,13,17
10,4,-6,-7,8,-1,-2,-11,-13,18,15,17
11,5,-5,-8,8,0,-2,-11,-12,20,18,19
12,5,-6,-9,9,0,-3,-11,-12,22,21,21
13,6,-7,-10,10,0,-4,-12,-12,24,24,23
14,7,-7,-11,11,0,-5,-13,-11,26,28,25
15,7,-9,-11,12,-1,-6,-13,-10,29,32,27
17,5,-12,-11,14,-3,-6,-12,-8,32,35,28
18,3,-16,-11,17,-6,-7,-10,-6,35,38,29
19,1,-18,-11,19,-9,-7,-8,-5,37,40,29
20,-1,-22,-10,21,-11,-7,-7,-5,36,39,28
22,-3,-26,-10,24,-14,-9,-7,-6,36,39,28
24,-5,-30,-10,27,-18,-10,-6,-6,35,39,27
27,-7,-36,-10,32,-21,-11,-5,-7,35,39,26
30,-9,-41,-10,35,-25,-12,-4,-7,34,39,26
33,-10,-44,-11,38,-27,-13,-3,-8,34,39,25
35,-11,-48,-12,41,-29,-14,-2,-8,33,37,22
37,-13,-51,-12,44,-32,-14,0,-7,31,32,17
37,-16,-54,-11,45,-35,-13,5,-5,30,25,9
37,-20,-57,-9,47,-38,-12,10,-2,29,17,0
37,-24,-62,-7,50,-43,-11,17,2,28,10,-8
37,-29,-66,-4,52,-47,-8,24,8,28,3,-16
34,-33,-68,-1,51,-50,-4,31,12,26,-2,-23
32,-37,-70,2,51,-53,-2,35,13,22,-10,-30
30,-41,-72,5,52,-57,0,38,13,15,-18,-37
28,-44,-73,7,51,-59,2,40,12,8,-27,-44
25,-46,-72,10,49,-59,3,42,11,0,-36,-51
21,-47,-70,12,46,-59,6,44,9,-7,-45,-58
18,-48,-68,15,43,-58,8,45,8,-15,-53,-63
14,-49,-65,17,40,-57,11,46,6,-23,-61,-68
9,-49,-59,19,35,-55,15,45,4,-32,-68,-72
4,-48,-53,22,29,-51,19,43,1,-41,-74,-75
-1,-47,-46,24,22,-46,22,40,-2,-49,-79,-77
-6,-45,-39,25,16,-41,24,36,-5,-55,-82,-78
-10,-42,-31,25,10,-36,27,32,-8,-58,-82,-78
-14,-38,-24,26,5,-31,29,28,-10,-60,-82,-77
-17,-35,-18,26,1,-27,31,24,-13,-62,-82,-77
-19,-32,-13,26,-3,-23,32,18,-17,-65,-81,-76
-22,-30,-8,26,-6,-19,33,12,-23,-68,-80,-74
-24,-28,-3,26,-10,-15,34,5,-28,-68,-77,-70
-26,-25,1,25,-13,-12,34,0,-32,-67,-72,-66
-25,-23,3,23,-14,-9,33,-5,-33,-63,-66,-62
-24,-19,5,21,-14,-7,32,-7,-33,-58,-59,-57
-24,-16,7,19,-15,-4,31,-7,-31,-52,-53,-53
-23,-13,9,18,-15,-2,30,-7,-29,-46,-47,-50
-21,-12,9,17,-15,-1,28,-5,-27,-40,-41,-47
-20,-11,9,16,-14,-1,27,-3,-25,-35,-36,-44
-19,-10,8,15,-14,-1,27,0,-23,-31,-32,-41
-18,-10,7,14,-12,-1,25,0,-22,-29,-29,-38
-16,-10,6,13,-11,-1,24,1,-22,-27,-26,-36
-15,-9,6,12,-11,-1,24,3,-21,-25,-23,-35
-15,-8,6,11,-10,-1,22,4,-20,-23,-21,-34
-13,-7,5,10,-9,-1,21,5,-19,-20,-20,-33
-12,-6,5,9,-8,-1,20,6,-18,-18,-18,-32
-11,-6,4,8,-7,-1,19,7,-17,-16,-17,-31
-10,-6,4,8,-7,0,19,8,-16,-14,-15,-30
-11,-5,6,8,-8,1,20,8,-14,-13,-13,-29
-11,-3,8,7,-10,3,20,8,-13,-12,-11,-28
-11,-2,9,6,-10,4,21,7,-13,-11,-10,-27
-11,-1,10,6,-10,4,21,7,-13,-10,-8,-26
-11,0,9,5,-10,4,22,7,-13,-9,-7,-26
-10,0,9,5,-10,4,22,7,-13,-8,-6,-25
-10,1,10,5,-10,5,23,7,-13,-7,-5,-24
-10,1,11,4,-10,6,24,8,-13,-6,-4,-24
-9,2,11,4,-10,6,25,8,-12,-5,-3,-23
-10,2,12,4,-10,7,27,9,-10,-5,-3,-23
-11,2,13,4,-12,7,28,9,-9,-5,-3,-22
-12,3,15,4,-13,8,29,9,-8,-4,-2,-22
-12,3,16,4,-14,9,30,9,-8,-4,-2,-21
-13,4,16,4,-14,10,31,8,-8,-3,-1,-21
-13,4,16,4,-14,10,31,7,-8,-3,-1,-21
-13,4,16,4,-14,10,31,5,-9,-3,-1,-21
-13,4,16,4,-14,10,31,3,-9,-3,-1,-22
-13,4,16,4,-14,10,30,1,-10,-3,-1,-22
-13,4,17,4,-14,10,28,-1,-11,-3,0,-21
-13,5,18,4,-15,11,26,-3,-11,-3,0,-21
-12,6,18,3,-15,12,23,-5,-12,-3,0,-21
-12,7,18,3,-15,12,20,-7,-12,-2,0,-20
-12,8,19,2,-15,13,17,-8,-11,-1,2,-19
-11,9,20,1,-15,14,15,-8,-11,0,3,-18
-10,9,19,0,-14,14,14,-9,-10,1,3,-18
-9,10,18,0,-14,14,13,-9,-9,1,4,-17
-9,10,19,0,-14,14,12,-9,-8,2,5,-17
-9,10,18,0,-14,14,11,-8,-7,3,7,-16
-9,10,18,0,-14,14,11,-7,-5,4,8,-15
-9,10,19,0,-14,14,11,-6,-4,5,8,-14
-9,11,20,0,-14,15,10,-6,-4,5,9,-14
-9,11,20,0,-15,15,9,-6,-4,6,9,-14
-9,11,20,0,-15,15,9,-6,-4,6,9,-14
-9,11,20,0,-15,15,9,-6,-4,7,9,-14
-9,11,20,0,-15,16,9,-6,-4,7,10,-14
-9,12,21,-1,-15,16,8,-6,-4,7,10,-14
-9,12,20,-1,-15,16,8,-6,-4,7,10,-14
-9,12,20,-1,-15,16,8,-6,-3,7,10,-14
-9,11,20,-1,-14,16,8,-6,-3,7,10,-14
-9,11,20,-1,-14,16,7,-6,-3,7,9,-14
-9,11,20,-1,-14,16,7,-6,-3,7,9,-14
-9,11,20,0,-14,16,7,-6,-2,8,10,-13
-9,11,20,0,-15,16,7,-6,-2,8,10,-13
-9,11,20,-1,-15,16,7,-7,-2,8,11,-13
-9,12,20,-1,-15,16,7,-7,-2,8,11,-12
-9,12,20,-2,-15,16,7,-7,-2,8,12,-12
-9,12,20,-2,-14,16,7,-6,-2,8,12,-12
-9,12,21,-2,-15,17,6,-6,-2,8,13,-12
-8,13,21,-2,-15,17,6,-6,-2,8,13,-12
-8,13,21,-3,-15,17,5,-6,-2,9,12,-12
-8,13,22,-2,-16,18,5,-6,-1,9,12,-13
-9,13,23,-2,-16,18,5,-6,-1,9,12,-13
-8,14,22,-3,-16,18,5,-6,-1,9,12,-14
-7,15,22,-4,-15,18,5,-6,0,9,12,-14
-7,16,23,-4,-15,19,5,-6,0,9,12,-13
-7,15,23,-4,-15,19,5,-6,0,9,12,-13
-8,15,23,-4,-15,19,4,-7,0,9,12,-13
-8,15,23,-4,-15,20,4,-7,0,9,12,-13
-9,16,24,-3,-16,20,4,-6,0,10,13,-12
-8,15,23,-3,-15,19,4,-6,0,10,13,-12
-8,15,22,-3,-14,18,4,-6,0,9,13,-12
-8,15,22,-3,-14,19,4,-6,0,9,13,-12
-8,16,23,-4,-15,19,4,-6,0,9,13,-12
-7,17,23,-4,-15,20,3,-6,0,8,13,-12
-7,17,24,-5,-15,21,3,-7,0,8,13,-12
-8,17,26,-4,-16,22,3,-7,0,8,14,-12
-9,17,27,-4,-17,22,3,-7,0,9,14,-12
-8,17,26,-4,-17,22,3,-7,0,8,14,-12
-7,17,25,-5,-16,21,3,-7,0,8,14,-11
-7,17,24,-5,-15,21,3,-7,0,8,14,-11
-7,18,25,-5,-16,22,3,-8,0,8,14,-11
-8,18,26,-5,-16,22,3,-8,0,8,14,-11
-8,18,26,-5,-17,22,3,-8,0,8,14,-11
-8,18,26,-5,-17,22,3,-8,-1,7,14,-11
-8,18,26,-5,-16,21,3,-8,-1,7,14,-11
-8,18,25,-5,-16,21,3,-8,-1,7,14,-11
-8,19,26,-5,-17,22,2,-8,0,7,14,-11
-8,19,26,-5,-17,23,2,-8,0,7,14,-10
-7,20,26,-6,-17,24,1,-8,0,7,14,-10
-6,20,26,-7,-16,24,1,-8,0,7,14,-9
-6,21,27,-7,-16,24,1,-8,0,7,14,-9
-6,22,29,-7,-17,25,1,-8,0,8,15,-8
-7,23,30,-7,-18,26,1,-8,0,8,15,-8
-6,23,30,-8,-18,27,1,-9,0,7,15,-8
-5,24,30,-9,-17,27,1,-9,-1,7,14,-7
-5,25,30,-9,-17,27,1,-9,-1,7,14,-7
-5,25,30,-10,-17,28,1,-10,-1,7,15,-6
-5,26,31,-10,-17,29,1,-10,-1,7,15,-5
-6,26,32,-10,-18,29,0,-11,-2,7,15,-5
-7,25,33,-9,-19,29,0,-12,-2,7,15,-4
-7,25,33,-9,-20,29,-1,-13,-3,6,15,-4
-7,26,33,-9,-20,29,-1,-13,-3,6,15,-4
-7,27,33,-9,-20,30,-1,-13,-3,6,15,-4
-7,27,33,-9,-20,30,-1,-13,-4,5,15,-4
-6,28,33,-10,-19,30,-2,-14,-5,5,15,-4
-6,28,33,-11,-19,31,-3,-15,-5,4,15,-4
-4,29,33,-12,-18,31,-4,-16,-6,4,15,-3
-4,30,34,-12,-18,32,-4,-17,-6,4,15,-3
-4,31,36,-13,-19,33,-4,-17,-6,4,16,-2
-4,32,37,-13,-20,34,-5,-18,-6,4,16,-1
-4,32,36,-14,-20,34,-6,-20,-7,4,16,0
-4,33,36,-14,-20,34,-8,-21,-8,3,16,0
-3,33,35,-15,-19,35,-9,-23,-9,2,15,0
-3,34,36,-15,-19,35,-10,-24,-11,1,15,0
-3,34,37,-15,-20,36,-10,-26,-12,0,15,1
-2,34,37,-16,-20,36,-11,-28,-13,-1,15,1
-1,35,37,-16,-19,36,-11,-30,-14,-2,14,1
-1,35,36,-17,-18,35,-11,-31,-15,-3,14,1
-1,35,36,-17,-18,36,-11,-32,-16,-4,14,1
-1,35,36,-17,-18,36,-11,-32,-16,-4,13,1
-1,35,36,-17,-18,36,-11,-33,-17,-4,13,1
-1,34,35,-16,-18,36,-12,-34,-18,-5,13,1
-1,33,35,-15,-18,35,-12,-35,-19,-6,13,1
-1,32,34,-15,-18,34,-12,-35,-20,-7,12,1
0,32,33,-15,-17,33,-13,-36,-22,-8,12,1
0,32,33,-16,-16,33,-14,-37,-23,-9,11,2
0,32,33,-16,-16,33,-15,-39,-24,-10,11,2
0,32,33,-16,-16,33,-15,-40,-25,-11,11,2
-1,32,33,-16,-16,33,-16,-41,-26,-12,11,2
-1,32,33,-15,-16,33,-16,-42,-27,-13,10,1
0,31,31,-15,-15,31,-17,-44,-28,-14,9,1
0,30,30,-14,-15,30,-17,-45,-29,-15,8,0
-1,29,30,-13,-15,30,-17,-46,-31,-17,7,0
-1,27,29,-12,-15,29,-17,-48,-33,-19,6,-2
-2,25,28,-12,-14,27,-17,-49,-34,-21,4,-3
-2,23,26,-11,-14,26,-17,-51,-36,-23,2,-5
-3,22,25,-10,-13,24,-18,-52,-37,-24,0,-7
-3,20,24,-9,-13,22,-18,-54,-39,-26,-1,-8
-3,19,22,-8,-12,21,-18,-55,-40,-27,-2,-9
-2,18,21,-8,-11,19,-18,-55,-42,-29,-4,-10
-2,16,19,-7,-10,18,-19,-56,-44,-31,-5,-11
-2,15,17,-6,-9,17,-19,-58,-46,-32,-7,-13
-2,14,17,-6,-9,16,-19,-59,-47,-33,-7,-14
-3,13,17,-5,-10,16,-19,-59,-47,-34,-7,-14
-4,12,16,-4,-9,15,-19,-59,-48,-35,-7,-15
-4,11,14,-3,-9,13,-19,-59,-48,-35,-7,-15
-4,9,13,-2,-8,12,-19,-59,-48,-36,-7,-16
-5,8,12,-2,-8,11,-19,-59,-49,-36,-7,-17
-4,7,11,-2,-7,10,-19,-59,-49,-37,-7,-18
-4,5,9,0,-6,8,-18,-58,-49,-37,-7,-18
-5,3,8,1,-6,6,-18,-58,-49,-37,-7,-19
-6,1,7,3,-6,5,-19,-59,-50,-38,-8,-20
-6,0,6,3,-6,4,-19,-59,-50,-39,-8,-21
-6,0,6,3,-5,3,-19,-58,-49,-38,-7,-21
-5,-1,4,3,-4,2,-18,-58,-48,-38,-7,-21
-5,-1,3,3,-4,1,-18,-57,-48,-37,-7,-21
-4,-1,2,3,-3,1,-18,-57,-48,-37,-7,-21
-4,-1,2,3,-2,0,-18,-56,-47,-36,-6,-21
-4,-2,1,3,-2,0,-17,-56,-46,-36,-6,-22
-5,-3,1,4,-2,0,-17,-55,-46,-36,-6,-22
-5,-5,0,5,-2,-2,-17,-55,-46,-37,-7,-24
-5,-6,-1,5,-2,-3,-17,-54,-45,-36,-7,-25
-6,-6,-1,6,-2,-3,-16,-53,-45,-36,-7,-25
-7,-6,0,6,-3,-3,-16,-51,-44,-35,-6,-25
-9,-7,0,7,-3,-3,-15,-50,-43,-34,-6,-25
-9,-9,0,8,-3,-4,-15,-50,-42,-33,-5,-24
-9,-10,-1,9,-3,-5,-15,-50,-42,-32,-5,-24
-10,-11,-1,10,-4,-5,-15,-49,-41,-32,-5,-25
-10,-12,-1,11,-4,-6,-14,-48,-40,-31,-5,-26
-10,-13,-2,12,-3,-7,-14,-47,-39,-31,-5,-26
-10,-14,-4,12,-2,-9,-14,-46,-38,-30,-5,-26
-9,-14,-5,12,-1,-10,-14,-45,-37,-29,-5,-26
-9,-15,-6,12,-1,-10,-13,-44,-36,-28,-4,-25
-9,-16,-6,13,-1,-11,-13,-43,-35,-27,-4,-25
-11,-17,-6,14,-2,-11,-13,-42,-34,-27,-3,-25
-13,-18,-5,16,-3,-11,-13,-41,-33,-26,-2,-25
-14,-19,-5,17,-4,-11,-12,-40,-32,-25,-1,-25
-15,-19,-5,17,-4,-11,-12,-39,-31,-24,-1,-24
-15,-20,-5,18,-5,-11,-11,-37,-30,-23,-1,-24
-16,-20,-5,18,-5,-12,-11,-37,-29,-23,-2,-25
-16,-20,-5,18,-5,-12,-11,-36,-28,-22,-2,-25
-15,-20,-5,18,-4,-12,-11,-35,-27,-21,-2,-25
-15,-20,-5,17,-4,-12,-11,-34,-27,-20,-2,-25
-15,-20,-5,17,-4,-12,-12,-34,-26,-19,-1,-25
-15,-21,-6,18,-4,-13,-12,-34,-26,-19,-1,-25
-15,-22,-6,19,-4,-13,-12,-33,-25,-18,-1,-26
-16,-23,-6,19,-5,-14,-12,-32,-24,-18,-1,-26
-17,-23,-6,20,-5,-14,-12,-31,-23,-17,0,-26
-17,-23,-5,20,-5,-14,-12,-30,-23,-17,1,-26
-18,-24,-6,21,-5,-15,-12,-29,-22,-16,2,-26
-18,-25,-7,21,-5,-16,-12,-29,-22,-16,2,-27
-19,-26,-7,22,-5,-16,-12,-28,-21,-15,4,-26
-20,-26,-7,23,-6,-16,-12,-27,-20,-14,5,-26
-20,-26,-6,24,-7,-16,-12,-27,-19,-14,6,-25
-20,-27,-6,24,-7,-16,-12,-26,-19,-13,7,-25
-21,-27,-6,24,-7,-16,-12,-26,-18,-13,8,-25
-21,-28,-7,25,-7,-17,-12,-25,-17,-12,8,-25
-21,-28,-8,25,-6,-18,-12,-24,-16,-11,8,-25
-21,-29,-9,25,-5,-18,-12,-24,-16,-11,8,-25
-21,-29,-9,25,-5,-18,-12,-24,-15,-10,8,-25
-20,-29,-10,25,-4,-19,-12,-23,-15,-10,8,-25
-21,-29,-9,25,-5,-19,-12,-22,-14,-9,9,-25
-22,-29,-8,25,-6,-18,-11,-21,-13,-8,9,-25
-22,-30,-8,26,-6,-19,-11,-21,-13,-7,9,-25
-21,-30,-9,25,-5,-19,-11,-20,-13,-7,9,-25
-20,-30,-9,25,-4,-19,-11,-20,-12,-7,10,-26
-20,-30,-10,25,-4,-19,-11,-20,-12,-6,10,-26
-21,-30,-10,25,-4,-19,-12,-20,-11,-6,10,-26
-21,-31,-10,26,-5,-20,-12,-20,-11,-6,9,-26
-21,-31,-10,26,-5,-20,-12,-20,-10,-5,9,-26
-21,-31,-10,26,-4,-20,-11,-19,-10,-5,10,-26
-21,-31,-10,26,-4,-20,-11,-19,-9,-4,10,-26
-20,-30,-10,25,-5,-19,-11,-18,-8,-4,10,-26
-20,-30,-10,25,-4,-19,-11,-17,-7,-3,11,-26
-20,-30,-11,25,-4,-20,-11,-16,-7,-3,11,-26
-20,-31,-11,25,-4,-20,-11,-16,-7,-2,11,-26
-21,-31,-11,26,-4,-20,-11,-16,-7,-2,11,-27
-20,-31,-11,25,-4,-20,-12,-16,-7,-1,11,-27
-20,-31,-11,25,-4,-20,-12,-16,-7,-1,10,-27
-20,-31,-11,25,-4,-20,-12,-16,-6,-1,10,-27
-21,-31,-10,25,-5,-20,-11,-15,-5,-1,11,-26
-22,-31,-9,26,-6,-20,-11,-14,-5,0,11,-26
-22,-32,-10,27,-6,-21,-12,-14,-5,0,11,-26
-22,-32,-11,27,-5,-21,-12,-14,-5,0,11,-26
-22,-32,-11,27,-5,-21,-12,-14,-4,0,11,-25
-22,-32,-10,27,-6,-21,-12,-14,-4,1,12,-25
-23,-32,-10,28,-6,-21,-12,-14,-3,1,12,-25
-23,-33,-10,28,-6,-21,-12,-14,-3,1,12,-25
-22,-33,-10,28,-5,-22,-12,-14,-3,2,12,-25
-22,-33,-11,27,-5,-22,-12,-14,-3,2,11,-25
-21,-33,-12,27,-4,-22,-12,-14,-3,2,11,-25
-21,-33,-12,27,-4,-22,-12,-13,-3,2,11,-25
-21,-33,-12,27,-3,-22,-12,-13,-2,2,11,-25
-21,-32,-12,27,-3,-22,-12,-13,-2,2,11,-24
-21,-32,-11,27,-4,-22,-11,-12,-1,3,11,-24
-21,-33,-11,27,-4,-23,-11,-12,-1,3,11,-23
-21,-32,-11,26,-4,-23,-12,-12,-1,3,10,-23
-21,-31,-11,26,-4,-22,-12,-12,-1,3,10,-23
-21,-31,-11,25,-4,-22,-12,-12,0,4,10,-22
-19,-31,-13,25,-2,-22,-12,-12,0,4,10,-19
-19,-31,-13,25,-2,-22,-12,-12,0,4,10,-16
-21,-31,-11,26,-4,-21,-11,-12,0,5,10,-12
-22,-31,-9,26,-6,-20,-11,-12,0,5,10,-8
-22,-30,-8,26,-6,-20,-11,-12,0,5,10,-5
-21,-29,-8,25,-6,-19,-11,-12,0,5,10,-2
-21,-29,-9,24,-5,-19,-11,-12,0,6,10,1
-21,-29,-9,24,-5,-19,-11,-12,0,6,10,4
-21,-30,-10,24,-5,-20,-11,-13,0,6,10,6
-20,-30,-11,24,-4,-20,-12,-13,0,6,9,7
-20,-30,-11,24,-4,-20,-12,-13,0,6,9,9
-20,-30,-11,24,-4,-20,-12,-13,0,6,10,11
-19,-30,-10,24,-4,-20,-12,-13,0,7,11,13
-18,-30,-11,23,-3,-20,-12,-13,0,7,11,15
-17,-29,-11,22,-2,-21,-12,-13,0,6,11,16
-17,-29,-11,22,-2,-20,-12,-13,0,6,11,18
-17,-28,-11,22,-2,-19,-12,-13,0,6,11,19
-17,-27,-10,21,-2,-18,-12,-13,0,7,11,21
-17,-26,-10,21,-2,-18,-11,-12,0,7,11,22
-17,-26,-10,21,-2,-18,-11,-12,-1,7,11,22
-17,-27,-10,22,-2,-19,-11,-13,-2,7,10,23
-17,-27,-10,22,-2,-19,-12,-13,-3,7,10,24
-17,-27,-10,22,-2,-19,-12,-13,-4,7,10,25
-17,-27,-10,21,-2,-19,-12,-13,-4,7,10,26
-17,-27,-10,21,-2,-18,-12,-13,-5,7,11,27
-16,-26,-10,20,-2,-18,-12,-14,-5,7,11,28
-16,-26,-11,20,-2,-18,-12,-14,-6,7,11,28
-16,-26,-11,20,-2,-18,-12,-15,-6,7,11,29
-15,-26,-11,20,-1,-18,-12,-15,-7,7,11,29
-14,-25,-11,19,-1,-18,-12,-14,-7,7,11,30
-14,-25,-11,19,0,-18,-12,-14,-7,7,11,31
-14,-25,-11,19,0,-18,-12,-14,-8,7,11,32
-14,-25,-10,19,-1,-17,-12,-14,-9,7,11,33
-15,-24,-10,19,-1,-17,-12,-14,-9,7,10,34
-14,-24,-10,19,-1,-17,-12,-13,-10,7,10,34
-14,-23,-10,18,-1,-17,-12,-13,-10,7,10,34
-14,-23,-10,18,-1,-17,-12,-13,-10,7,11,34
-13,-23,-10,18,-1,-16,-12,-13,-11,8,11,35
-13,-23,-9,18,-1,-16,-12,-13,-11,8,11,35
-13,-23,-10,18,0,-16,-13,-13,-12,7,11,35
-12,-22,-10,17,0,-16,-13,-13,-12,7,11,35
-12,-20,-10,16,0,-15,-13,-13,-13,7,11,36
-11,-20,-9,15,0,-14,-12,-13,-13,7,10,36
-11,-19,-9,15,0,-14,-12,-13,-14,8,10,36
-10,-19,-9,14,0,-14,-12,-12,-14,8,10,36
-10,-18,-9,14,0,-14,-12,-12,-15,8,10,36
-9,-18,-9,13,1,-14,-12,-12,-15,8,11,36
-9,-19,-9,14,1,-14,-11,-12,-15,8,11,36
-10,-19,-9,14,0,-14,-11,-12,-16,8,10,36
-10,-19,-9,14,0,-14,-11,-12,-16,8,10,36
-10,-19,-10,13,1,-14,-10,-11,-16,9,10,37
-8,-18,-10,12,1,-14,-11,-12,-16,9,10,37
-8,-18,-10,12,2,-14,-11,-12,-17,8,10,37
-8,-18,-10,12,2,-14,-11,-13,-17,8,10,37
-8,-18,-10,13,1,-14,-11,-13,-17,8,10,37
-8,-18,-9,13,1,-13,-11,-12,-17,9,10,37
-8,-17,-9,12,2,-13,-11,-12,-17,9,11,37
-8,-17,-9,12,2,-13,-10,-12,-17,10,11,37
-8,-16,-7,12,0,-11,-9,-12,-17,10,11,37
-9,-15,-6,12,0,-10,-9,-11,-17,10,11,37
-8,-15,-6,11,0,-10,-9,-12,-18,10,10,37
-8,-15,-7,11,0,-11,-9,-12,-18,10,10,36
-8,-15,-7,11,0,-11,-10,-13,-18,10,10,35
-7,-15,-7,10,1,-11,-10,-13,-18,10,10,34
-6,-15,-8,10,2,-11,-9,-13,-18,10,10,33
-6,-15,-8,9,2,-11,-9,-13,-19,10,10,33
-5,-14,-9,9,3,-11,-10,-13,-20,10,10,33
-4,-14,-9,8,3,-11,-10,-13,-20,10,10,32
-4,-13,-8,8,2,-11,-9,-12,-20,11,11,33
-6,-13,-7,9,1,-10,-8,-12,-19,12,12,34
-6,-13,-7,9,1,-10,-8,-12,-19,12,12,34
-5,-14,-8,9,2,-11,-9,-13,-20,11,12,33
-4,-14,-9,9,3,-12,-9,-13,-20,11,11,32
-4,-14,-10,8,3,-12,-9,-13,-20,11,11,31
-4,-13,-9,8,3,-11,-9,-13,-20,11,10,31
-5,-12,-7,8,2,-10,-9,-13,-20,11,10,30
-5,-12,-7,8,1,-9,-9,-13,-21,11,10,28
-5,-12,-7,7,1,-9,-10,-13,-21,11,9,27
-5,-13,-7,8,2,-10,-10,-13,-21,11,9,26
-5,-13,-8,8,2,-11,-10,-13,-21,11,9,25
-5,-13,-8,8,2,-10,-10,-13,-21,11,9,25
-4,-12,-8,7,2,-10,-10,-13,-21,11,9,24
-4,-11,-8,7,2,-9,-10,-13,-21,11,9,24
-3,-11,-8,6,3,-9,-10,-13,-21,11,9,24
-3,-11,-8,6,3,-10,-10,-13,-21,10,9,24
-3,-11,-9,6,3,-10,-10,-13,-21,10,9,23
-3,-12,-9,6,3,-10,-10,-13,-21,10,9,22
-4,-12,-9,7,2,-10,-10,-13,-22,10,8,21
-4,-12,-8,7,2,-10,-10,-13,-22,10,8,19
-3,-11,-8,6,2,-10,-10,-13,-23,10,8,18
-2,-11,-8,6,3,-9,-10,-13,-23,10,7,17
-2,-10,-8,6,3,-9,-9,-13,-23,10,7,14
-3,-10,-7,6,2,-8,-9,-13,-23,10,7,9
-4,-10,-6,7,1,-8,-9,-13,-23,10,7,5
-4,-10,-6,6,1,-8,-9,-13,-23,10,7,1
-3,-10,-7,6,2,-8,-9,-13,-23,11,7,-1
-2,-10,-8,5,3,-8,-9,-13,-23,11,7,-3
-2,-9,-8,5,3,-8,-9,-13,-22,12,7,-4
-3,-9,-7,6,2,-8,-8,-12,-22,12,7,-5
-3,-10,-6,6,2,-8,-8,-11,-22,11,7,-6
-3,-10,-7,5,3,-9,-9,-12,-22,11,7,-5
-2,-9,-7,5,3,-9,-9,-12,-23,11,7,-5
-1,-9,-8,4,3,-9,-9,-12,-23,12,7,-6
-1,-9,-8,4,3,-9,-8,-12,-23,13,7,-7
-1,-9,-9,4,4,-9,-8,-12,-23,13,7,-8
-1,-9,-9,4,4,-9,-8,-12,-24,12,6,-9
-2,-9,-8,4,3,-9,-8,-13,-24,12,6,-10
-2,-9,-7,4,3,-8,-9,-13,-24,12,5,-11
-2,-9,-7,5,3,-8,-9,-13,-24,12,5,-11
-3,-9,-6,6,2,-8,-8,-13,-24,12,6,-11
-4,-10,-6,7,1,-8,-8,-13,-23,12,6,-11
-4,-10,-6,7,1,-8,-9,-14,-24,12,6,-12
-3,-9,-6,6,1,-7,-9,-14,-24,11,6,-12
-3,-8,-6,5,1,-7,-8,-13,-24,11,6,-12
-2,-7,-6,4,2,-7,-8,-13,-24,12,6,-12
-2,-7,-6,4,2,-7,-8,-13,-24,12,6,-13
-2,-8,-6,4,2,-7,-8,-13,-24,12,6,-13
-3,-9,-6,5,2,-8,-8,-13,-23,12,6,-13
-2,-9,-8,5,3,-9,-8,-13,-23,12,5,-13
0,-9,-9,4,4,-9,-9,-13,-24,12,5,-14
-1,-8,-8,4,3,-8,-9,-14,-24,12,5,-14
-1,-8,-7,3,3,-7,-9,-14,-24,12,5,-15
0,-7,-7,3,3,-7,-9,-14,-24,12,5,-15
0,-6,-5,3,3,-6,-8,-13,-23,13,6,-14
-1,-6,-4,3,2,-5,-7,-12,-22,13,6,-14
-2,-6,-4,3,2,-5,-7,-12,-22,13,5,-15
-1,-6,-4,3,2,-5,-7,-13,-22,13,5,-16
-1,-5,-4,3,2,-4,-7,-12,-22,13,6,-15
-1,-4,-3,2,1,-3,-7,-12,-21,14,6,-15
-1,-4,-3,2,1,-3,-7,-12,-21,14,6,-14
-2,-4,-3,2,1,-3,-6,-12,-20,14,6,-14
-1,-4,-3,2,1,-3,-6,-12,-20,15,6,-14
0,-4,-4,1,2,-4,-6,-12,-19,15,7,-14
1,-4,-5,0,3,-4,-7,-12,-19,15,7,-14
1,-4,-5,0,4,-4,-7,-13,-19,15,7,-14
1,-4,-5,0,4,-4,-7,-13,-19,15,7,-14
1,-4,-5,0,3,-4,-7,-13,-19,15,7,-13
1,-3,-5,0,3,-4,-7,-13,-19,16,7,-13
1,-3,-4,0,2,-4,-7,-12,-19,16,7,-12
0,-2,-2,0,0,-3,-6,-11,-18,17,8,-12
0,-2,-2,0,0,-2,-5,-11,-18,17,8,-12
0,-2,-2,0,1,-2,-5,-11,-17,17,8,-12
1,-1,-3,0,2,-2,-6,-11,-17,17,8,-12
1,0,-2,-1,1,-1,-7,-11,-16,17,8,-12
2,1,0,-2,1,0,-8,-11,-16,18,9,-12
2,3,0,-3,1,1,-8,-11,-15,19,10,-12
2,4,1,-3,1,2,-8,-12,-15,19,10,-11
3,4,0,-4,1,2,-8,-12,-15,19,10,-11
4,5,0,-5,2,2,-9,-13,-15,18,10,-11
5,6,0,-6,2,3,-9,-14,-15,19,10,-11
5,7,1,-6,1,4,-9,-14,-15,19,10,-10
4,6,2,-6,1,4,-10,-14,-16,19,10,-10
3,6,3,-5,0,5,-10,-14,-16,19,10,-10
2,6,3,-4,0,5,-11,-14,-17,19,10,-10
3,6,2,-5,0,4,-12,-15,-17,19,10,-10
5,6,1,-6,1,4,-13,-16,-17,19,10,-10
4,6,1,-5,1,4,-13,-16,-17,19,10,-10
3,5,3,-4,0,4,-12,-15,-18,19,10,-9
3,6,3,-4,0,5,-12,-15,-18,19,10,-9
3,7,3,-5,0,5,-12,-15,-19,19,10,-10
4,7,3,-6,0,5,-12,-15,-19,19,10,-10
4,7,3,-6,1,5,-12,-15,-20,19,10,-10
4,8,2,-6,1,5,-13,-15,-20,19,10,-10
4,8,3,-7,1,5,-12,-15,-20,20,10,-9
4,8,3,-7,1,6,-11,-15,-19,21,11,-9
4,8,3,-7,1,6,-11,-15,-19,21,11,-9
5,9,4,-7,0,6,-11,-14,-19,21,12,-9
4,9,4,-7,0,6,-11,-14,-18,21,12,-10
3,8,5,-7,0,6,-10,-14,-18,21,11,-10
2,8,6,-6,-1,7,-10,-14,-18,21,11,-10
1,7,5,-4,-2,6,-10,-15,-19,20,11,-11
0,5,4,-3,-2,5,-10,-16,-20,19,10,-12
0,4,4,-2,-2,5,-10,-16,-21,19,9,-12
0,3,4,-2,-2,4,-10,-16,-22,18,9,-12
0,3,3,-1,-1,4,-10,-16,-22,18,8,-13
0,2,2,-1,-1,3,-10,-16,-23,17,7,-13
0,2,2,-1,0,2,-11,-17,-23,16,7,-14
0,2,1,-2,0,2,-11,-17,-23,16,7,-14
0,2,0,-2,0,1,-11,-17,-23,16,6,-14
0,1,1,-2,0,2,-11,-17,-23,16,6,-14
0,2,1,-2,0,2,-11,-17,-23,17,6,-14
1,2,1,-3,0,2,-11,-17,-23,17,6,-15
1,2,1,-2,0,2,-12,-17,-23,16,5,-16
0,2,1,-1,0,2,-12,-17,-23,16,5,-16
0,1,2,-1,-1,2,-11,-16,-23,17,6,-16
0,0,1,0,0,1,-10,-16,-22,17,6,-15
0,0,0,0,0,0,-10,-16,-22,17,6,-16
-1,0,0,0,0,0,-10,-16,-22,17,5,-16
-1,0,0,0,0,0,-10,-16,-23,16,5,-16
0,0,0,0,0,0,-10,-16,-23,16,5,-16
0,0,0,0,0,0,-10,-16,-23,16,5,-17
0,0,0,0,0,0,-10,-16,-23,16,5,-17
0,0,0,0,0,0,-10,-16,-23,17,6,-17
0,1,0,0,0,0,-10,-15,-22,17,6,-16
1,0,-1,-1,2,0,-10,-16,-23,16,5,-17
2,0,-3,-1,4,-1,-11,-16,-23,15,5,-17
2,0,-3,-2,3,-1,-11,-16,-24,15,4,-16
1,0,-3,-1,3,-1,-12,-16,-24,15,4,-16
0,-2,-3,0,2,-2,-12,-16,-23,16,4,-15
0,-2,-2,0,2,-2,-12,-16,-24,15,4,-15
0,-2,-2,0,2,-2,-11,-16,-24,15,4,-15
1,-1,-3,0,3,-2,-11,-16,-24,15,4,-15
2,-1,-4,-1,3,-2,-11,-16,-24,15,4,-14
2,-1,-5,-1,4,-2,-11,-17,-24,15,4,-14
2,-2,-5,-1,4,-3,-12,-17,-24,15,4,-14
1,-2,-5,-1,3,-2,-12,-17,-24,16,4,-14
2,-2,-4,-1,3,-2,-12,-17,-23,16,4,-14
3,-2,-5,-2,4,-3,-12,-17,-23,16,4,-15
4,-2,-5,-2,4,-3,-12,-17,-23,16,4,-14
3,-1,-4,-1,3,-3,-12,-17,-23,16,5,-14
3,-1,-3,-1,3,-2,-11,-16,-23,17,5,-14
2,0,-2,-1,2,-1,-11,-16,-23,17,5,-14
2,0,-3,-1,3,-1,-12,-16,-23,16,5,-14
3,0,-4,-2,4,-1,-12,-16,-23,17,6,-14
4,1,-3,-3,3,-1,-11,-16,-23,18,7,-13
4,1,-2,-3,3,0,-11,-16,-22,18,8,-12
4,1,-3,-3,3,-1,-11,-17,-22,18,8,-12
4,1,-3,-3,4,-1,-12,-18,-22,19,9,-11
4,2,-2,-3,3,0,-12,-17,-21,20,10,-9
4,3,-2,-4,3,0,-12,-16,-20,22,12,-7
5,4,-2,-5,4,1,-12,-16,-19,25,15,-5
5,4,-2,-6,4,2,-12,-16,-19,27,18,-3
7,5,-2,-7,5,2,-13,-17,-19,29,21,0
9,5,-4,-8,7,1,-14,-17,-18,31,24,2
12,6,-6,-10,9,0,-15,-17,-17,34,28,5
14,5,-8,-10,11,-1,-16,-15,-15,37,33,7
15,4,-11,-10,13,-3,-16,-14,-13,40,36,8
16,3,-14,-10,15,-5,-17,-13,-12,40,37,8
18,1,-18,-10,18,-9,-18,-12,-13,40,36,7
20,-1,-23,-10,21,-12,-20,-11,-14,39,36,7
22,-3,-27,-10,24,-15,-21,-11,-14,39,36,7
24,-6,-31,-9,27,-18,-21,-9,-15,38,36,6
26,-8,-35,-9,31,-21,-22,-7,-15,37,35,5
29,-9,-40,-10,35,-24,-23,-5,-14,38,35,4
32,-11,-44,-10,38,-28,-24,-3,-13,38,33,2
34,-14,-48,-9,41,-31,-24,0,-12,36,27,-3
34,-16,-51,-8,42,-33,-23,5,-9,33,19,-9
34,-20,-54,-7,44,-37,-22,11,-6,31,11,-17
34,-24,-59,-5,47,-41,-20,18,-2,30,3,-26
34,-29,-64,-3,49,-46,-17,25,2,28,-4,-34
34,-33,-67,-1,51,-50,-14,31,6,26,-12,-42
32,-37,-69,2,51,-53,-12,36,7,21,-19,-49
30,-40,-70,5,51,-55,-10,39,7,14,-27,-55
28,-44,-71,8,50,-57,-8,41,5,6,-35,-60
24,-47,-70,12,47,-58,-6,42,3,-2,-43,-64
18,-49,-68,15,43,-59,-3,42,0,-11,-52,-69
14,-51,-66,18,41,-59,-1,42,-4,-20,-61,-75
11,-51,-64,19,38,-58,0,41,-6,-29,-68,-79
7,-50,-58,20,33,-54,3,40,-9,-36,-74,-83
1,-48,-50,22,26,-49,7,38,-12,-44,-79,-85
-4,-48,-43,25,20,-45,10,34,-16,-53,-84,-88
-8,-46,-37,27,14,-41,12,28,-21,-59,-88,-89
-12,-43,-31,27,9,-36,14,23,-25,-64,-90,-89
-15,-40,-25,28,5,-32,17,19,-27,-66,-90,-89
-18,-37,-19,28,0,-28,19,14,-30,-67,-90,-88
-21,-35,-14,28,-3,-25,20,8,-34,-68,-89,-86
-24,-33,-9,28,-7,-21,21,1,-39,-70,-87,-84
-25,-30,-4,27,-11,-17,22,-5,-44,-70,-84,-80
-26,-27,0,26,-13,-13,22,-12,-47,-68,-79,-76
-27,-24,4,25,-15,-9,22,-16,-48,-64,-72,-71
-27,-20,7,24,-16,-6,21,-18,-47,-58,-66,-66
-27,-17,9,22,-17,-4,21,-18,-45,-52,-59,-61
-26,-14,11,20,-18,-1,21,-17,-42,-46,-53,-57
-25,-12,12,18,-18,0,20,-15,-39,-40,-47,-52
-22,-10,11,16,-16,0,19,-13,-36,-34,-41,-48
-19,-9,10,14,-14,0,17,-11,-34,-29,-37,-45
-16,-8,8,11,-12,0,16,-9,-33,-26,-34,-43
-13,-8,6,10,-9,0,14,-9,-33,-24,-31,-41
-12,-7,6,9,-8,0,14,-8,-32,-22,-28,-39
-12,-7,6,10,-8,0,13,-7,-31,-20,-26,-37
-12,-6,5,10,-8,0,13,-5,-30,-18,-24,-35
-12,-6,5,9,-8,0,12,-4,-29,-15,-22,-33
-12,-6,5,9,-8,0,12,-3,-27,-12,-20,-32
-12,-5,5,8,-8,0,12,-2,-26,-10,-18,-31
-10,-3,6,6,-8,2,12,-1,-25,-9,-16,-29
-10,-2,8,6,-9,4,12,-1,-24,-8,-15,-28
-10,-1,10,5,-10,5,13,-1,-24,-7,-13,-26
-10,0,10,5,-10,5,13,-2,-25,-7,-12,-25
-10,1,11,5,-10,6,13,-3,-25,-6,-11,-24
-10,2,12,4,-10,7,13,-4,-25,-5,-9,-24
-9,3,11,3,-10,7,13,-4,-25,-4,-9,-23
-7,5,11,1,-9,8,14,-4,-25,-4,-8,-23
-7,6,13,0,-10,10,17,-2,-23,-2,-6,-22
-8,7,15,0,-12,12,19,-1,-21,-1,-5,-20
-9,7,16,0,-13,12,20,-1,-21,0,-4,-20
-9,7,17,1,-13,12,21,-2,-21,0,-4,-20
-10,7,17,1,-13,12,22,-3,-20,0,-4,-20
-10,7,16,1,-13,12,22,-3,-20,0,-3,-19
-10,7,16,1,-12,11,23,-4,-20,1,-2,-19
-10,7,16,1,-12,11,23,-5,-21,1,-2,-18
-10,7,16,1,-12,11,23,-6,-22,1,-2,-18
-9,8,15,0,-12,12,22,-8,-22,0,-2,-18
-8,9,16,0,-12,13,21,-10,-23,0,-1,-17
-9,11,19,-1,-13,15,19,-13,-24,0,0,-16
-9,11,20,-1,-13,16,16,-15,-25,0,0,-16
-8,12,20,-2,-13,16,13,-16,-25,0,0,-16
-8,14,21,-3,-14,17,10,-16,-25,2,1,-15
-6,15,21,-4,-13,18,8,-16,-24,3,2,-14
-5,15,20,-5,-12,17,7,-16,-23,4,3,-14
-4,16,19,-5,-12,17,6,-16,-22,5,4,-13
-3,16,19,-6,-11,18,5,-15,-21,6,5,-12
-3,16,19,-6,-11,18,5,-14,-20,7,6,-11
-3,17,20,-6,-11,19,5,-14,-19,8,7,-10
-2,18,20,-7,-11,19,4,-13,-18,8,8,-10
-2,19,21,-8,-11,20,3,-13,-18,9,8,-10
-2,20,22,-9,-12,21,4,-13,-18,10,8,-9
-2,20,22,-9,-12,21,4,-12,-17,10,9,-8
-1,20,21,-9,-11,20,4,-12,-17,10,9,-8
0,19,20,-9,-10,20,4,-13,-17,11,9,-8
0,19,20,-10,-9,20,4,-13,-16,11,9,-8
0,19,20,-10,-10,20,4,-12,-16,11,10,-8
-1,19,22,-9,-11,21,5,-12,-15,12,11,-8
-2,19,22,-8,-12,20,4,-12,-15,12,11,-7
-2,20,21,-9,-11,20,4,-12,-15,12,11,-8
-2,20,21,-9,-11,20,4,-13,-15,12,11,-8
-2,20,22,-9,-12,21,4,-13,-15,12,11,-8
-1,20,22,-9,-11,21,4,-13,-15,12,11,-8
-1,20,21,-9,-11,21,4,-13,-15,12,10,-7
0,21,21,-9,-11,21,4,-13,-15,12,10,-7
-1,21,22,-9,-11,22,4,-13,-15,12,11,-7
-1,21,23,-9,-12,22,4,-12,-15,13,12,-6
-2,21,23,-9,-12,21,4,-12,-15,13,12,-6
-2,21,23,-10,-12,22,4,-12,-15,13,12,-6
-2,23,24,-10,-12,23,4,-12,-14,13,12,-6
-2,23,24,-10,-13,24,4,-12,-14,14,12,-6
-1,23,24,-10,-12,24,4,-13,-14,14,12,-6
0,23,23,-11,-11,23,4,-13,-14,13,12,-7
0,23,23,-11,-11,23,4,-12,-14,14,12,-6
-2,22,24,-10,-12,23,4,-11,-14,14,12,-6
-2,22,23,-9,-12,22,4,-12,-14,14,11,-6
-1,22,23,-10,-12,22,3,-12,-15,13,11,-6
-1,23,23,-10,-12,23,3,-13,-15,13,11,-7
0,24,23,-11,-11,23,3,-13,-15,13,11,-7
0,24,24,-11,-11,24,4,-13,-14,13,12,-6
0,24,25,-11,-12,24,4,-13,-14,14,12,-5
-1,24,26,-11,-13,25,4,-12,-14,14,12,-5
0,25,26,-12,-13,25,3,-12,-14,14,12,-5
0,25,25,-12,-12,25,3,-12,-14,14,12,-5
0,25,25,-12,-12,25,4,-12,-14,14,13,-5
0,25,26,-12,-12,26,5,-11,-13,15,13,-4
-1,26,26,-11,-13,26,5,-11,-13,14,13,-4
0,26,26,-12,-12,26,4,-12,-13,14,13,-5
0,26,26,-13,-12,26,3,-13,-14,13,13,-5
-1,26,27,-12,-13,26,3,-12,-14,13,13,-4
-2,25,28,-11,-15,27,4,-12,-13,14,13,-3
-3,25,28,-11,-15,27,3,-12,-14,13,13,-3
-2,25,27,-12,-14,26,2,-12,-14,12,12,-4
0,26,27,-13,-13,26,2,-12,-14,12,12,-4
0,27,28,-13,-14,28,3,-12,-14,12,13,-3
0,28,29,-13,-14,29,3,-11,-13,13,14,-2
0,29,29,-14,-14,29,3,-12,-14,13,14,-1
1,29,28,-15,-13,29,2,-12,-14,13,14,-1
2,30,28,-15,-13,29,2,-13,-15,12,13,-1
1,30,28,-15,-13,29,2,-13,-15,12,13,-1
0,29,28,-15,-14,29,2,-13,-15,12,13,-1
0,29,28,-15,-14,28,1,-13,-16,11,13,-1
0,30,29,-15,-14,29,1,-14,-16,11,14,0
0,31,30,-16,-15,31,1,-13,-16,12,14,0
0,32,31,-16,-15,31,1,-13,-16,12,15,0
1,32,30,-17,-14,31,1,-14,-16,12,15,1
1,31,30,-16,-14,31,1,-15,-17,12,15,1
0,31,30,-16,-14,31,1,-15,-17,12,15,2
0,32,30,-16,-14,31,0,-15,-18,11,14,2
1,32,30,-17,-14,31,0,-16,-18,11,14,1
1,32,30,-17,-14,32,0,-17,-19,10,13,1
0,32,31,-16,-15,32,0,-17,-20,10,13,1
0,32,32,-16,-16,32,0,-18,-20,9,13,2
0,33,32,-16,-16,32,-1,-19,-21,8,13,2
1,33,32,-17,-15,32,-1,-19,-21,8,13,2
2,34,31,-18,-14,32,-2,-19,-22,8,13,2
3,34,30,-18,-14,32,-2,-19,-22,7,13,3
3,35,31,-19,-14,33,-2,-20,-23,7,13,4
4,35,31,-19,-13,33,-2,-20,-24,6,13,4
4,36,31,-19,-13,33,-3,-21,-25,6,13,5
4,35,31,-19,-13,33,-3,-22,-25,6,13,6
3,35,31,-19,-13,32,-3,-23,-25,6,13,6
3,35,31,-19,-13,32,-4,-24,-25,5,12,6
4,35,31,-19,-13,33,-4,-25,-26,5,12,6
4,35,31,-19,-13,33,-4,-26,-26,4,12,7
4,35,30,-20,-12,33,-4,-26,-27,3,12,7
5,35,30,-20,-12,33,-5,-26,-28,2,12,7
5,35,30,-20,-12,33,-5,-26,-29,1,12,7
6,35,29,-20,-11,32,-6,-27,-30,0,11,7
7,35,28,-20,-10,31,-6,-28,-31,0,11,7
7,36,28,-21,-10,32,-7,-29,-32,-1,10,6
6,36,29,-21,-11,32,-7,-29,-33,-2,10,6
6,36,29,-21,-11,32,-7,-30,-34,-3,10,6
7,35,28,-21,-10,32,-7,-32,-35,-5,9,6
7,35,28,-21,-10,31,-7,-34,-36,-6,8,6
7,35,27,-21,-10,31,-7,-35,-37,-7,7,6
7,35,27,-21,-10,31,-7,-36,-38,-8,7,6
7,35,27,-21,-10,31,-8,-37,-39,-9,6,6
8,35,26,-21,-9,30,-8,-38,-41,-10,5,5
10,34,23,-22,-6,28,-9,-40,-42,-11,4,4
11,34,21,-22,-5,27,-9,-41,-44,-13,3,3
11,34,22,-23,-5,28,-9,-41,-44,-13,3,3
11,34,23,-22,-6,28,-9,-41,-44,-14,3,3
10,34,23,-22,-6,28,-9,-41,-45,-14,3,3
11,34,22,-22,-5,28,-9,-42,-46,-15,2,3
12,34,21,-22,-4,27,-9,-42,-47,-16,1,2
12,34,20,-23,-3,27,-9,-43,-49,-17,0,1
13,33,20,-23,-3,26,-9,-43,-49,-18,0,1
13,32,19,-22,-2,25,-9,-43,-50,-19,0,0
14,31,17,-22,-1,24,-9,-43,-51,-20,-1,0
13,30,16,-22,-1,23,-9,-44,-52,-21,-1,0
12,28,15,-20,-1,22,-9,-45,-53,-22,-2,-1
12,27,14,-20,0,20,-9,-45,-54,-23,-4,-2
13,26,13,-20,1,19,-10,-45,-55,-24,-5,-3
14,26,11,-20,2,19,-10,-45,-55,-24,-5,-3
15,26,10,-20,3,18,-10,-45,-55,-25,-6,-3
16,25,8,-20,4,17,-10,-44,-55,-25,-6,-4
16,25,8,-20,4,17,-10,-43,-55,-25,-6,-5
16,24,8,-20,4,17,-10,-43,-55,-25,-6,-5
15,24,9,-20,3,17,-10,-43,-55,-25,-7,-5
15,25,9,-20,3,17,-11,-42,-55,-25,-7,-6
15,25,10,-20,3,17,-10,-42,-54,-25,-7,-6
15,24,9,-19,3,17,-11,-41,-55,-26,-7,-6
14,24,9,-19,3,16,-11,-41,-55,-26,-8,-6
14,23,9,-18,2,16,-11,-41,-56,-26,-8,-7
13,22,9,-18,2,16,-11,-41,-56,-27,-9,-8
13,21,8,-18,2,15,-11,-41,-56,-27,-9,-9
13,21,8,-17,2,14,-11,-41,-56,-27,-9,-9
13,20,7,-17,3,14,-11,-40,-55,-26,-9,-9
13,20,6,-17,3,13,-11,-39,-55,-26,-9,-9
13,19,6,-16,4,12,-10,-38,-54,-25,-9,-9
13,18,5,-15,4,11,-10,-37,-53,-24,-9,-10
13,17,4,-14,4,10,-9,-36,-53,-24,-9,-10
13,16,3,-14,4,9,-9,-36,-52,-23,-8,-10
13,16,3,-14,5,9,-8,-35,-51,-22,-7,-10
13,16,2,-14,5,8,-8,-33,-50,-21,-7,-9
13,16,3,-14,5,9,-7,-31,-48,-20,-6,-9
13,17,3,-15,5,10,-6,-28,-47,-19,-6,-9
13,18,4,-15,4,11,-5,-26,-45,-18,-5,-9
12,18,6,-14,3,12,-4,-24,-44,-16,-5,-9
11,18,7,-14,2,12,-3,-23,-43,-15,-4,-8
10,18,7,-13,2,12,-3,-22,-42,-15,-4,-8
10,17,7,-13,2,12,-3,-22,-42,-14,-4,-9
9,15,6,-12,2,11,-3,-21,-41,-14,-4,-10
8,14,6,-11,1,10,-3,-20,-40,-13,-4,-10
7,13,6,-10,0,10,-2,-18,-39,-13,-4,-11
6,11,5,-8,0,8,-2,-17,-39,-13,-5,-12
5,9,4,-7,0,6,-1,-16,-39,-14,-6,-13
5,8,3,-6,0,5,-1,-16,-39,-14,-6,-14
4,7,2,-5,1,5,0,-16,-38,-13,-6,-14
3,6,2,-5,1,4,0,-15,-37,-12,-6,-14
3,5,2,-4,1,3,0,-14,-37,-11,-5,-14
3,4,0,-4,2,2,0,-14,-36,-11,-5,-15
4,3,-1,-4,3,1,0,-13,-35,-10,-5,-15
5,3,-1,-4,3,1,0,-11,-34,-10,-5,-15
4,2,-1,-3,2,0,0,-10,-33,-9,-5,-15
3,2,-1,-3,2,0,1,-9,-31,-8,-4,-14
3,2,0,-3,1,0,1,-8,-29,-7,-3,-14
