leadI,leadII,leadIII,leadaVR,leadaVL,leadaVF,leadV1,leadV2,leadV3,leadV4,leadV5,leadV6
5,0,-5,-2,5,-2,3,0,-8,-10,-8,-2
12,0,-12,-7,12,-6,9,-2,-24,-28,-23,-5
16,1,-14,-9,15,-6,13,-6,-36,-39,-32,-8
17,2,-14,-10,15,-6,16,-9,-44,-46,-37,-9
16,3,-13,-10,14,-5,18,-12,-49,-49,-39,-9
15,4,-10,-10,12,-3,19,-14,-51,-49,-39,-9
13,6,-6,-10,10,0,20,-16,-52,-47,-38,-9
11,9,-2,-10,7,3,20,-18,-51,-44,-36,-8
10,11,2,-10,4,6,20,-19,-49,-39,-32,-6
8,12,4,-10,2,8,20,-20,-47,-34,-28,-4
6,12,6,-9,0,9,19,-21,-45,-31,-25,-3
5,13,9,-9,-2,11,18,-21,-42,-28,-22,-1
4,16,11,-10,-3,13,17,-21,-39,-25,-19,0
5,19,13,-12,-4,16,16,-21,-34,-20,-15,3
6,21,15,-14,-4,18,13,-19,-28,-15,-10,6
7,23,16,-15,-4,19,11,-16,-21,-9,-6,8
7,25,18,-16,-5,21,11,-13,-14,-3,-1,11
7,26,19,-17,-6,23,10,-10,-6,3,4,14
9,29,20,-19,-5,25,9,-7,1,10,9,18
12,33,21,-22,-5,27,9,-4,8,16,15,21
13,35,22,-24,-5,29,8,-1,14,22,19,24
13,37,24,-25,-5,30,8,0,19,27,23,27
14,39,25,-27,-5,32,7,2,23,31,27,29
15,41,26,-28,-5,33,7,3,27,33,29,30
16,42,27,-29,-5,34,7,4,31,35,31,30
16,43,27,-29,-5,35,7,5,34,36,31,31
16,43,27,-29,-5,34,7,6,36,37,32,31
16,42,26,-29,-5,34,7,7,38,39,33,32
17,42,25,-30,-4,33,8,8,40,40,35,32
18,42,24,-30,-3,33,9,10,42,42,37,33
18,42,24,-30,-2,32,8,10,43,43,38,34
18,41,23,-30,-2,32,8,11,43,44,39,34
19,42,23,-30,-2,32,9,11,44,45,40,34
19,42,23,-30,-2,32,9,11,44,45,41,34
18,41,23,-29,-2,31,8,10,43,45,41,33
17,40,22,-29,-2,31,9,10,43,45,42,32
17,40,22,-28,-3,31,10,11,44,45,43,30
16,39,23,-27,-3,30,10,11,45,44,43,29
15,38,22,-27,-3,30,11,12,45,43,43,29
16,38,21,-27,-2,29,11,12,45,42,43,29
18,38,20,-28,-1,29,11,12,45,42,43,29
18,38,19,-28,-1,28,11,12,45,41,44,30
17,37,19,-27,-1,28,11,12,45,41,45,31
17,37,19,-27,-1,28,11,11,45,41,46,32
17,37,20,-27,-2,28,10,11,45,42,47,33
15,36,21,-25,-3,28,10,10,45,43,49,34
13,36,22,-25,-4,29,10,10,45,45,50,35
13,37,23,-25,-4,30,10,10,45,46,51,36
14,38,23,-26,-5,31,9,10,45,46,52,36
14,38,24,-26,-5,31,9,10,45,45,52,36
14,38,23,-26,-5,31,8,9,45,43,51,36
14,37,23,-25,-4,30,8,9,44,41,50,37
14,35,22,-24,-3,28,8,9,43,40,50,37
14,34,20,-24,-2,27,8,8,43,39,49,37
14,34,20,-24,-2,26,8,8,43,39,49,37
14,34,20,-24,-2,26,8,8,42,38,49,37
14,33,19,-23,-3,26,7,8,42,38,50,37
14,33,19,-23,-3,26,6,7,42,39,51,37
14,33,19,-23,-3,26,4,7,42,41,52,38
14,33,20,-23,-3,26,3,6,42,41,52,38
14,34,21,-23,-3,27,3,5,42,41,52,37
13,34,21,-24,-3,28,3,5,42,39,50,35
12,34,21,-23,-4,27,3,5,42,38,49,33
11,32,20,-22,-4,26,2,6,42,37,48,31
11,31,19,-21,-4,25,2,6,42,36,48,30
11,30,18,-20,-4,24,2,5,41,35,47,30
11,30,18,-20,-4,24,1,5,41,34,47,29
12,30,18,-20,-4,24,0,5,41,34,47,29
12,30,18,-20,-3,24,-1,5,41,35,48,29
12,30,18,-21,-3,24,-1,5,41,37,49,29
12,30,18,-21,-3,24,-2,4,41,39,51,28
12,31,19,-21,-4,24,-3,4,40,40,52,27
11,31,19,-21,-4,25,-4,4,40,39,52,26
11,31,20,-21,-5,25,-4,4,39,37,52,25
10,31,21,-20,-5,25,-4,4,39,36,51,23
10,30,20,-20,-5,25,-4,4,39,35,50,21
9,28,20,-18,-5,24,-4,4,38,33,49,19
8,27,19,-17,-5,23,-4,4,38,33,48,18
9,26,18,-17,-4,22,-3,4,38,32,48,18
10,27,18,-18,-3,22,-3,4,38,33,49,18
11,27,17,-18,-3,22,-3,4,38,33,49,18
10,26,16,-18,-2,21,-3,3,37,33,49,17
10,27,16,-18,-2,21,-4,3,37,34,50,17
11,28,17,-20,-3,22,-4,2,37,36,52,17
10,30,19,-20,-4,24,-5,1,37,37,53,16
10,31,21,-21,-5,26,-5,1,37,37,53,16
10,32,23,-21,-6,27,-5,1,36,36,52,15
9,31,23,-20,-6,26,-5,0,36,34,50,13
8,29,22,-18,-6,24,-5,0,35,33,48,10
7,27,21,-17,-6,23,-4,0,35,32,47,9
7,26,20,-17,-6,22,-3,0,35,31,46,8
8,26,19,-17,-6,22,-2,0,35,30,46,8
8,26,19,-18,-5,22,-1,0,35,30,46,8
8,26,18,-18,-5,21,-1,0,34,30,46,9
8,25,17,-17,-4,21,-1,1,34,30,46,9
9,25,16,-17,-4,20,-1,1,34,31,46,10
9,25,16,-17,-3,20,-2,0,34,31,46,10
10,26,16,-18,-3,21,-3,0,33,32,47,10
11,27,17,-19,-3,22,-4,0,33,34,48,10
11,29,18,-21,-4,24,-4,0,33,34,48,10
11,31,19,-21,-4,25,-4,0,33,32,46,9
11,30,19,-21,-4,24,-4,0,32,30,43,8
9,29,19,-19,-5,23,-4,0,32,28,41,6
9,27,18,-18,-5,23,-3,0,32,27,40,5
9,27,18,-18,-4,22,-3,0,32,26,39,4
10,27,17,-18,-4,22,-2,0,32,26,38,5
11,27,17,-19,-3,22,-2,0,32,25,38,5
10,26,16,-18,-3,21,-2,0,32,25,38,6
9,25,16,-17,-4,21,-3,0,31,25,38,6
9,26,17,-17,-4,21,-3,0,31,26,38,7
10,28,18,-19,-4,23,-4,0,32,27,40,8
11,31,19,-21,-4,25,-5,0,32,29,41,9
12,33,20,-23,-4,27,-6,-1,31,30,41,10
12,34,21,-23,-4,28,-7,-1,31,31,42,10
12,34,22,-22,-5,28,-7,-1,30,31,41,11
11,33,22,-22,-5,27,-7,-1,30,30,40,10
10,32,22,-21,-6,27,-7,-1,30,28,39,10
10,32,22,-21,-5,27,-7,-1,30,26,38,10
11,32,21,-22,-5,27,-7,-1,30,27,38,10
11,32,21,-22,-5,27,-7,0,31,28,38,12
11,32,21,-22,-4,26,-7,0,31,29,39,13
12,32,20,-22,-4,26,-8,0,31,30,39,14
12,32,20,-22,-4,26,-9,-1,31,30,39,15
12,32,21,-22,-4,26,-10,-1,31,32,40,16
13,34,21,-23,-4,27,-10,-1,32,34,42,18
14,36,23,-24,-4,29,-11,-1,33,37,44,20
14,38,24,-25,-5,31,-13,-3,32,40,47,21
15,40,25,-27,-5,32,-14,-3,32,41,48,21
14,41,27,-28,-6,33,-13,-3,33,41,48,21
13,41,28,-27,-7,34,-13,-2,34,41,47,21
13,40,28,-27,-7,34,-12,-1,35,41,46,21
12,39,27,-26,-7,33,-11,0,36,41,46,20
12,38,26,-25,-7,32,-11,0,38,42,46,20
13,37,25,-25,-6,31,-11,0,39,44,47,21
13,36,24,-25,-5,30,-10,1,40,45,47,22
13,36,22,-24,-4,29,-10,1,41,47,48,23
13,35,21,-24,-3,27,-9,2,42,49,49,24
14,34,20,-24,-3,26,-9,2,43,51,49,24
14,34,20,-24,-2,26,-10,2,44,53,50,24
14,34,20,-24,-2,26,-11,2,44,54,51,24
14,34,20,-23,-3,26,-11,3,44,55,51,24
14,35,21,-24,-3,28,-10,4,45,55,52,24
15,36,22,-25,-3,29,-10,5,46,56,52,24
14,35,22,-24,-4,29,-8,5,46,56,52,23
13,35,22,-24,-4,28,-7,5,46,54,51,22
12,34,23,-23,-5,28,-7,6,47,52,49,20
11,33,22,-23,-5,27,-6,7,47,51,47,17
11,31,21,-21,-4,26,-4,8,47,49,46,15
11,29,19,-20,-4,23,-3,9,47,48,46,15
11,27,17,-19,-3,21,-3,10,46,47,45,15
10,25,15,-17,-2,19,-4,9,46,46,45,16
10,23,13,-16,-1,18,-4,9,45,46,44,16
10,22,12,-16,-1,17,-4,8,44,45,44,16
9,22,12,-15,-1,17,-5,8,43,45,44,16
8,21,13,-15,-2,17,-5,7,42,47,45,16
9,23,14,-16,-2,18,-5,7,41,49,47,16
10,25,15,-17,-2,19,-5,7,40,49,47,17
10,25,15,-17,-3,19,-5,8,39,47,46,16
9,24,15,-16,-4,19,-4,8,39,44,44,15
9,24,15,-16,-3,19,-3,8,38,42,42,14
9,23,14,-16,-3,19,-3,9,38,42,42,12
8,21,14,-15,-3,18,-3,9,37,41,41,11
7,20,13,-14,-3,16,-3,9,36,40,41,11
8,19,11,-13,-2,14,-2,10,36,39,40,12
8,18,10,-13,-1,13,-2,10,36,39,40,13
7,16,10,-12,-1,12,-2,10,35,38,39,13
7,16,9,-12,-1,12,-2,9,34,38,39,14
8,16,8,-12,0,12,-3,9,34,38,39,14
8,16,8,-12,0,12,-4,9,34,39,40,14
7,16,9,-12,0,12,-5,8,34,40,41,14
6,16,9,-11,-1,12,-5,8,33,41,41,14
5,16,10,-10,-2,12,-5,8,33,40,41,14
6,16,10,-11,-2,13,-4,9,33,38,40,14
7,17,10,-11,-2,13,-4,9,33,37,40,13
7,16,9,-11,-2,13,-4,8,32,36,40,12
6,15,9,-10,-2,12,-4,8,31,35,39,11
6,15,10,-10,-2,13,-4,9,31,35,39,10
6,16,10,-10,-1,12,-4,10,32,34,38,9
6,15,9,-10,-1,11,-3,10,32,33,38,9
6,13,7,-10,0,9,-3,10,31,33,37,8
6,12,5,-9,0,8,-3,10,31,32,37,8
5,11,5,-8,0,7,-3,9,30,32,37,7
5,10,6,-8,-1,8,-4,9,30,33,37,7
5,10,7,-8,-1,8,-4,9,29,34,37,6
5,11,7,-8,-1,9,-5,9,29,35,38,6
5,11,8,-8,-2,9,-5,8,28,37,39,6
5,13,9,-8,-2,10,-4,9,28,38,39,5
5,14,9,-9,-3,11,-4,9,28,36,38,4
5,14,9,-9,-3,11,-4,10,28,33,36,2
5,14,9,-9,-3,11,-3,11,29,32,35,0
5,13,8,-9,-3,11,-2,12,29,31,35,0
4,11,8,-7,-3,10,-2,12,29,31,34,0
2,9,8,-5,-3,8,-1,13,30,30,33,0
2,8,7,-4,-3,7,-1,13,30,30,33,0
3,8,6,-5,-1,7,0,12,30,31,34,0
4,9,5,-6,0,6,0,12,29,31,34,1
5,9,4,-7,0,6,-1,12,29,32,34,1
6,9,4,-7,0,7,-2,12,28,33,34,2
6,10,5,-8,0,8,-2,11,28,36,36,3
6,12,7,-9,-1,9,-2,11,28,38,37,3
6,14,9,-9,-1,11,-2,11,28,37,37,3
5,14,10,-9,-3,12,-2,10,28,34,34,1
4,15,11,-8,-4,12,-2,10,28,31,31,0
3,14,11,-8,-4,12,-2,10,28,30,29,-2
3,13,9,-8,-3,10,-1,11,29,31,29,-3
3,12,8,-7,-3,10,-1,11,29,32,29,-4
3,10,7,-7,-3,9,0,11,29,32,28,-3
4,9,5,-7,-2,8,0,11,29,31,27,-3
4,8,4,-7,-1,7,1,10,29,30,27,-3
4,8,4,-6,0,6,0,10,29,30,27,-2
4,8,4,-6,0,6,0,10,29,30,27,-2
4,7,3,-5,0,5,0,10,29,30,27,-2
4,7,3,-5,0,5,-1,10,29,31,27,-2
5,9,3,-7,0,6,-2,10,29,32,29,-2
6,11,4,-8,0,8,-3,9,29,34,30,-1
5,12,7,-9,-1,9,-4,8,28,35,31,-1
4,13,9,-9,-2,11,-4,8,28,35,32,-1
3,14,11,-9,-3,12,-5,8,28,34,31,-1
3,15,12,-9,-4,12,-4,8,29,33,30,-1
3,14,11,-8,-4,12,-3,9,29,32,29,-2
2,12,10,-6,-4,10,-3,9,29,31,28,-2
3,11,9,-6,-3,10,-3,9,29,31,28,-2
4,11,8,-7,-3,9,-3,9,29,31,28,-2
4,10,7,-7,-2,8,-2,9,29,30,27,-2
2,7,5,-5,-1,6,-2,9,29,30,27,-2
1,4,4,-3,-1,4,-3,8,28,31,27,-2
1,4,3,-2,-1,3,-3,8,28,32,28,-2
3,5,3,-4,0,3,-4,9,28,33,28,-1
4,7,3,-5,0,4,-4,9,28,33,29,0
4,8,4,-5,0,6,-5,8,28,34,30,0
5,10,5,-7,-1,8,-5,8,28,35,32,1
6,13,7,-10,-1,10,-5,8,28,36,34,2
6,15,9,-11,-2,12,-5,8,28,35,33,1
5,15,11,-10,-3,13,-5,8,27,34,31,0
4,15,11,-9,-3,13,-4,8,27,32,30,-1
3,13,10,-8,-2,11,-3,9,27,31,29,-1
3,11,8,-7,-2,9,-3,9,28,31,29,-1
4,10,6,-7,-1,8,-2,9,28,30,29,-1
5,9,4,-7,0,7,-2,10,28,30,29,0
5,8,2,-6,0,5,-1,10,27,30,30,0
5,6,1,-6,1,4,-1,10,27,30,30,0
5,6,1,-6,1,4,0,10,27,31,31,2
5,7,2,-6,1,4,-1,9,26,32,32,3
5,7,3,-6,1,5,-2,9,26,33,33,3
6,9,3,-7,1,6,-4,8,25,34,34,4
6,10,4,-7,1,7,-5,8,25,35,34,5
4,10,6,-7,-1,8,-5,8,25,34,34,5
4,11,7,-7,-2,9,-5,8,24,33,34,4
4,11,7,-8,-2,9,-4,7,24,32,33,3
3,10,7,-7,-2,8,-4,8,24,30,33,3
2,10,7,-6,-2,8,-3,8,24,29,32,3
2,9,7,-5,-2,8,-3,8,24,28,31,3
2,9,7,-5,-2,8,-2,8,24,27,30,3
2,8,7,-5,-2,8,-2,8,24,27,30,5
2,7,7,-5,-2,7,-2,8,24,27,31,6
2,6,6,-4,-2,6,-2,8,24,28,31,7
2,6,5,-4,-1,5,-2,7,23,29,32,8
2,6,4,-5,-1,5,-3,7,23,28,32,8
3,6,4,-5,0,5,-4,6,23,29,31,8
3,7,4,-5,0,5,-5,6,23,30,32,8
3,7,4,-5,0,5,-6,6,22,31,32,8
4,8,4,-6,0,6,-7,5,21,31,33,8
5,9,5,-7,0,6,-8,4,20,30,32,8
4,9,6,-7,-1,7,-8,4,20,28,31,7
2,9,7,-6,-2,7,-7,4,20,28,29,6
2,9,7,-6,-3,8,-7,4,21,28,28,6
2,9,7,-6,-3,8,-6,4,21,27,27,5
2,9,6,-5,-2,7,-5,5,20,25,27,5
2,7,5,-4,-1,6,-5,5,20,24,26,5
0,5,4,-2,-1,4,-5,5,20,23,25,5
0,3,3,-1,0,3,-6,5,19,22,24,4
1,3,2,-2,0,2,-6,6,19,21,24,5
2,3,1,-2,0,1,-6,6,19,22,24,5
2,3,1,-2,0,1,-6,6,19,23,25,5
2,3,1,-3,0,2,-5,6,19,26,28,6
2,5,2,-4,0,4,-6,7,20,29,31,7
3,6,3,-5,0,5,-7,7,20,31,32,7
3,7,5,-5,0,6,-8,6,19,31,31,7
2,8,6,-5,-1,7,-8,6,19,28,28,6
1,7,7,-4,-2,7,-8,6,18,23,24,4
0,6,6,-4,-2,6,-7,6,18,21,22,2
0,5,6,-3,-2,6,-6,6,18,20,21,1
0,5,5,-3,-2,5,-6,7,18,21,21,1
1,5,5,-4,-2,5,-5,8,18,23,23,2
2,5,4,-4,-1,5,-4,8,18,23,25,4
1,4,4,-3,-1,4,-4,9,18,23,25,5
1,4,3,-3,0,4,-4,9,18,22,25,6
2,4,3,-3,0,4,-4,9,18,23,25,7
2,5,3,-4,0,4,-4,9,19,24,26,8
3,5,3,-5,0,4,-4,9,19,27,28,8
2,6,4,-5,0,4,-4,8,19,28,28,8
2,7,6,-5,-2,6,-5,8,19,28,29,7
2,9,7,-6,-3,8,-6,8,20,29,30,7
3,11,8,-7,-3,10,-6,8,20,29,30,6
3,12,9,-7,-3,11,-6,8,20,27,29,5
2,12,9,-7,-4,11,-6,7,20,25,27,3
2,12,9,-7,-4,11,-6,6,20,25,26,2
3,12,9,-8,-3,11,-6,7,20,26,26,2
4,11,7,-8,-2,10,-6,8,20,26,27,2
4,10,6,-7,-1,8,-5,9,20,26,27,2
4,8,5,-6,-1,6,-6,9,20,25,27,2
4,7,4,-6,0,5,-6,8,20,25,27,2
4,7,4,-6,0,5,-6,8,20,25,27,3
5,7,3,-6,1,5,-6,8,20,25,27,3
5,7,2,-6,1,5,-7,7,19,25,27,4
5,7,3,-6,0,5,-8,6,19,25,28,4
4,7,3,-6,0,6,-10,5,18,24,28,4
4,7,3,-6,0,5,-10,4,17,23,27,3
5,7,3,-6,0,5,-10,4,16,23,26,2
5,8,3,-7,0,6,-10,4,16,24,26,2
6,8,3,-7,0,6,-10,4,16,25,28,1
6,8,3,-6,1,5,-11,3,16,26,29,0
5,8,3,-6,1,5,-11,3,15,25,28,-1
5,8,3,-6,1,5,-10,3,15,23,26,-1
5,7,3,-6,1,5,-9,4,15,22,25,-1
4,6,2,-5,1,4,-9,4,15,22,25,-1
3,5,2,-4,1,3,-9,4,15,21,24,-2
3,4,1,-3,1,2,-9,4,15,20,24,-3
3,3,1,-2,1,1,-8,4,14,19,23,-3
3,2,0,-2,1,0,-9,4,14,19,23,-2
5,1,-2,-3,3,0,-9,3,14,20,24,-1
6,2,-3,-4,4,-1,-8,3,14,22,24,-1
6,2,-3,-4,4,-1,-9,3,13,23,24,0
5,2,-2,-4,3,0,-10,3,13,22,24,0
4,3,0,-4,2,0,-9,3,13,21,23,-1
3,3,0,-3,1,1,-9,3,13,21,23,-1
2,2,1,-2,1,1,-8,3,13,20,24,-1
1,2,2,-2,0,2,-8,3,13,19,25,0
0,2,3,-1,-1,2,-8,2,12,18,24,1
0,2,3,-1,-1,3,-7,2,11,17,22,1
0,3,3,-1,-1,3,-7,2,11,16,21,1
1,3,2,-2,0,2,-8,2,11,16,21,1
1,1,1,-1,0,1,-8,2,11,16,20,0
0,0,1,0,0,0,-7,2,11,17,20,0
0,0,0,0,0,0,-7,2,11,18,20,0
0,0,1,0,0,0,-7,2,11,20,22,1
0,0,1,0,0,1,-7,2,11,22,23,2
1,1,1,-1,0,1,-7,1,11,22,24,2
0,1,1,-1,0,1,-7,2,11,21,24,2
0,1,2,0,-1,1,-8,2,11,22,24,1
0,3,4,-1,-2,3,-8,1,11,22,24,1
0,3,5,-2,-2,4,-8,1,10,20,24,1
-1,2,5,-1,-2,3,-8,1,10,17,22,1
-1,0,3,0,-2,2,-7,1,10,15,21,0
-1,0,1,1,-1,0,-6,2,10,15,21,0
-1,-1,0,1,-1,0,-5,3,10,15,21,-1
0,0,0,0,0,0,-5,3,10,15,20,-1
0,0,0,0,0,0,-5,3,9,15,20,-1
-1,-1,0,1,0,0,-6,3,9,15,20,-1
-1,-1,0,1,0,0,-6,3,9,17,22,-1
0,0,1,0,0,0,-5,2,10,19,23,0
0,1,2,-1,0,2,-4,2,10,20,23,0
1,3,2,-2,0,3,-5,2,10,20,23,0
1,3,3,-2,-1,3,-6,2,10,20,22,-1
0,3,4,-1,-2,3,-7,1,9,18,22,-3
-2,1,4,0,-3,3,-7,1,9,16,21,-4
-3,0,4,1,-4,2,-7,1,9,16,20,-4
-3,0,4,1,-4,2,-7,1,9,17,21,-4
-1,2,5,-1,-3,4,-6,2,10,17,21,-4
0,4,5,-2,-3,5,-4,2,10,17,21,-3
0,4,5,-1,-3,4,-3,3,10,18,21,-3
-1,2,4,0,-3,3,-3,3,10,19,21,-2
-1,1,3,0,-3,2,-3,3,10,18,21,-3
-1,1,4,0,-2,2,-3,2,9,16,21,-3
-1,1,4,0,-2,3,-4,2,9,15,20,-4
-1,1,4,0,-2,3,-4,3,10,15,20,-4
0,1,3,0,-1,2,-4,3,10,16,20,-5
0,1,2,0,-1,1,-4,3,10,16,20,-5
0,1,2,0,-1,1,-4,3,10,17,20,-5
0,1,2,-1,-1,1,-4,2,9,17,20,-5
0,2,3,-1,-1,2,-5,1,8,16,20,-6
1,3,3,-2,-1,3,-4,1,8,15,20,-6
2,4,3,-3,0,3,-3,1,9,15,20,-6
2,4,3,-3,0,3,-3,1,10,16,20,-7
1,3,3,-2,-1,3,-3,1,10,16,19,-7
0,1,3,-1,-1,2,-3,1,10,15,19,-7
0,1,2,0,-1,2,-3,1,10,16,19,-7
0,1,2,-1,-1,2,-3,1,9,17,20,-6
0,2,3,-1,-2,3,-4,0,8,17,21,-5
0,5,5,-3,-2,5,-4,0,8,17,23,-4
1,8,8,-4,-3,8,-5,0,8,19,25,-3
0,10,12,-5,-6,11,-5,0,8,20,28,-1
-2,13,17,-5,-9,15,-5,-1,8,22,31,0
-2,16,19,-7,-11,18,-5,-1,8,26,34,2
-1,17,20,-8,-11,19,-4,-1,10,30,37,4
-2,17,19,-7,-11,18,-4,1,12,34,41,6
-2,16,19,-7,-11,18,-2,4,17,43,48,9
-1,16,18,-7,-9,17,-2,8,25,56,57,13
2,17,16,-10,-6,17,-3,11,34,74,69,18
6,21,15,-14,-3,18,-4,12,43,96,84,25
11,25,15,-18,-1,20,-5,14,53,120,101,33
16,29,14,-23,0,22,-8,14,63,143,116,41
20,33,14,-27,2,23,-12,15,72,164,130,47
23,34,11,-29,5,22,-15,16,80,180,139,51
26,32,6,-30,9,19,-18,17,86,187,140,51
30,29,0,-30,15,14,-19,19,91,187,136,49
32,24,-8,-29,20,8,-19,22,97,183,128,45
34,16,-17,-26,26,0,-16,27,104,176,116,37
35,7,-27,-21,31,-10,-12,33,111,164,100,26
35,0,-35,-17,34,-18,-8,39,118,151,82,15
34,-7,-40,-13,36,-25,-2,44,122,135,63,4
31,-14,-45,-8,37,-30,3,48,119,112,42,-7
28,-21,-48,-4,38,-35,7,47,107,85,22,-18
25,-27,-51,1,38,-39,11,43,85,54,2,-29
21,-33,-53,5,38,-43,12,37,57,21,-15,-38
17,-38,-54,10,37,-46,13,28,27,-10,-31,-47
12,-43,-54,15,34,-48,13,18,-2,-39,-45,-54
7,-45,-52,19,29,-49,12,9,-29,-63,-56,-59
4,-45,-48,20,25,-47,12,0,-49,-79,-63,-62
1,-44,-44,21,21,-44,13,-6,-64,-89,-69,-65
-1,-42,-40,22,18,-41,14,-11,-75,-95,-72,-66
-4,-41,-35,22,15,-38,13,-16,-84,-100,-73,-67
-9,-40,-30,24,11,-35,12,-20,-90,-103,-73,-68
-13,-39,-25,25,7,-32,12,-23,-92,-101,-70,-69
-15,-35,-19,25,3,-27,14,-24,-90,-97,-67,-68
-17,-30,-13,24,-1,-22,14,-26,-88,-94,-64,-68
-19,-28,-8,24,-5,-18,13,-28,-87,-90,-62,-66
-20,-27,-6,24,-8,-16,11,-29,-85,-85,-58,-65
-20,-26,-4,23,-9,-15,8,-29,-82,-79,-54,-63
-20,-24,-3,22,-9,-14,5,-30,-80,-73,-50,-61
-20,-22,-1,21,-9,-12,2,-32,-77,-69,-46,-59
-20,-20,0,20,-10,-10,0,-33,-75,-65,-41,-57
-20,-20,1,19,-10,-10,-2,-34,-72,-60,-37,-55
-19,-19,0,19,-10,-9,-2,-33,-67,-56,-34,-53
-17,-17,0,17,-9,-8,-3,-31,-62,-51,-30,-50
-15,-14,1,15,-9,-7,-3,-29,-55,-46,-27,-48
-14,-12,1,13,-8,-6,-3,-26,-48,-41,-24,-46
-13,-10,2,11,-8,-4,-3,-22,-41,-35,-20,-43
-12,-8,4,10,-8,-3,-3,-19,-35,-30,-17,-41
-11,-7,4,9,-7,-2,-4,-17,-29,-25,-13,-39
-11,-6,5,8,-7,-1,-5,-16,-24,-21,-10,-37
-10,-5,5,7,-7,0,-5,-15,-19,-16,-7,-35
-10,-4,6,7,-7,0,-4,-14,-15,-13,-5,-34
-9,-2,7,6,-8,1,-5,-13,-12,-11,-4,-33
-9,-1,7,5,-8,3,-5,-13,-9,-8,-2,-32
-8,0,8,4,-8,4,-6,-12,-6,-5,0,-31
-8,0,8,3,-8,4,-6,-10,-3,-3,1,-29
-8,0,8,3,-7,4,-5,-9,0,-1,2,-28
-7,-1,7,3,-6,3,-5,-7,1,0,2,-28
-5,0,6,3,-5,2,-4,-7,2,1,2,-28
-4,0,5,2,-4,2,-4,-6,3,1,3,-28
-4,-1,5,2,-4,2,-3,-6,4,2,3,-27
-4,-1,4,3,-4,1,-3,-5,4,2,3,-27
-4,-1,4,3,-4,1,-2,-4,5,2,3,-27
-4,-1,4,3,-4,1,-1,-3,5,2,3,-27
-3,0,4,2,-4,2,-2,-3,6,4,3,-27
-3,0,4,1,-4,2,-4,-3,7,5,5,-27
-2,1,5,0,-4,3,-4,-3,7,7,6,-26
-2,1,5,0,-4,3,-3,-3,6,9,7,-26
-2,1,5,0,-4,3,-3,-3,6,8,7,-26
-2,1,5,1,-3,3,-4,-3,6,6,6,-26
-3,0,5,1,-3,2,-4,-3,6,3,4,-25
-4,0,5,2,-4,2,-4,-3,6,2,4,-24
-4,-1,4,2,-4,1,-4,-2,7,3,5,-23
-4,0,4,2,-4,1,-4,-2,7,5,7,-22
-4,0,4,2,-4,2,-4,-2,8,5,7,-21
-4,0,4,2,-4,2,-3,-2,8,4,6,-20
-4,-1,4,3,-4,1,-4,-2,7,3,5,-19
-4,-1,4,3,-4,1,-4,-2,7,3,4,-18
-4,-1,4,3,-4,0,-4,-2,7,3,3,-18
-4,-1,4,3,-3,0,-5,-3,6,3,2,-18
-4,-1,3,2,-3,0,-5,-3,6,3,2,-17
-3,-1,3,2,-3,0,-5,-3,7,4,3,-16
-3,-1,2,2,-3,0,-5,-3,7,5,3,-16
-3,0,2,2,-3,1,-5,-3,7,6,3,-15
-3,0,3,2,-3,1,-5,-4,7,6,4,-15
-3,0,3,2,-3,1,-6,-4,7,6,4,-14
-3,0,3,2,-3,1,-6,-4,7,5,3,-14
-3,0,3,2,-3,1,-6,-4,7,5,3,-15
-3,0,4,2,-4,2,-6,-3,7,4,2,-15
-4,0,5,2,-4,2,-7,-3,7,4,2,-15
-4,0,5,2,-4,2,-8,-3,7,4,2,-15
-4,0,5,2,-4,2,-8,-3,8,4,2,-16
-4,-1,4,3,-4,1,-8,-2,8,4,1,-16
-4,-1,4,3,-4,1,-7,-2,7,4,1,-17
-4,-1,3,3,-4,0,-7,-3,7,4,1,-17
-3,-1,3,2,-4,0,-6,-3,7,5,1,-17
-3,-1,3,2,-4,0,-6,-2,7,5,2,-16
-4,-2,3,3,-3,0,-6,-2,7,4,2,-16
-3,-2,3,2,-3,0,-7,-2,7,4,3,-16
-2,-2,2,2,-2,0,-7,-2,7,4,3,-16
-3,-2,3,3,-3,0,-7,-2,6,4,2,-16
-5,-3,3,4,-4,0,-7,-2,6,3,1,-17
-4,-2,3,3,-3,0,-8,-2,6,3,1,-18
-3,-2,2,2,-3,0,-8,-2,6,3,0,-18
-4,-2,2,3,-3,0,-7,-1,6,3,0,-18
-4,-3,2,3,-3,-1,-7,-1,5,2,0,-18
-4,-3,2,4,-3,-1,-7,-1,5,1,0,-19
-4,-4,2,4,-3,-1,-7,-1,5,1,0,-19
-4,-4,2,4,-3,-1,-6,-1,5,1,0,-18
-4,-4,2,4,-3,-1,-6,-1,5,1,0,-18
-4,-3,1,3,-3,-1,-6,-2,4,2,0,-19
-4,-2,2,3,-3,0,-4,-2,4,3,0,-18
-4,-1,3,2,-3,1,-4,-2,4,3,1,-18
-3,-1,3,2,-3,1,-5,-2,4,2,0,-18
-3,-1,2,2,-2,0,-6,-3,4,0,0,-18
-3,-2,2,2,-2,0,-6,-3,3,-1,-1,-18
-4,-2,2,3,-3,0,-6,-3,3,-1,-2,-18
-5,-3,2,3,-3,0,-6,-3,3,-2,-2,-18
-6,-4,2,4,-4,-1,-6,-3,2,-2,-3,-19
-5,-4,2,4,-3,-1,-6,-4,2,-3,-3,-19
-5,-3,2,4,-3,-1,-6,-4,2,-3,-3,-18
-4,-2,3,3,-3,0,-6,-3,2,-3,-3,-18
-3,-1,3,2,-3,0,-5,-3,2,-3,-4,-17
-2,-1,2,2,-2,0,-5,-3,2,-4,-4,-17
-2,-1,2,2,-2,0,-5,-3,1,-4,-5,-17
-1,0,2,1,-2,0,-5,-3,1,-5,-5,-17
-1,0,2,1,-2,1,-5,-3,1,-5,-6,-16
-1,0,2,1,-2,1,-6,-3,1,-5,-6,-16
-1,0,2,0,-1,1,-6,-4,1,-6,-7,-15
0,1,2,0,-1,1,-7,-4,0,-6,-7,-15
0,1,3,0,-2,2,-8,-5,0,-7,-8,-14
-1,1,3,0,-2,2,-8,-5,0,-7,-9,-14
-1,1,3,0,-2,2,-8,-5,0,-8,-10,-14
-1,1,4,0,-2,2,-8,-6,0,-8,-10,-14
-1,1,4,0,-2,2,-9,-6,-1,-9,-11,-14
-1,1,4,0,-2,2,-10,-7,-1,-9,-11,-14
-1,1,4,0,-2,2,-11,-8,-1,-9,-12,-13
0,2,4,-1,-2,3,-11,-8,-1,-9,-12,-13
0,3,4,-2,-2,4,-11,-8,-1,-9,-12,-13
1,5,5,-3,-2,5,-10,-8,-1,-9,-12,-12
1,7,6,-5,-2,6,-10,-8,0,-8,-12,-12
1,7,6,-5,-2,7,-11,-8,0,-7,-12,-12
2,8,6,-6,-2,7,-11,-8,0,-7,-12,-11
2,8,7,-6,-2,8,-11,-8,0,-6,-11,-11
3,9,7,-6,-2,8,-11,-8,0,-6,-11,-11
2,9,8,-6,-2,8,-11,-9,0,-6,-11,-11
0,8,8,-5,-3,8,-12,-10,0,-6,-11,-11
0,7,9,-4,-4,8,-13,-10,0,-6,-10,-11
0,8,9,-5,-4,8,-14,-11,1,-5,-10,-10
2,10,9,-7,-3,9,-14,-11,1,-4,-9,-10
4,12,10,-8,-2,10,-13,-10,2,-2,-8,-9
4,13,10,-9,-2,11,-13,-10,2,-1,-7,-8
5,13,11,-9,-3,12,-13,-10,3,0,-6,-7
5,14,11,-10,-3,12,-14,-10,4,2,-5,-6
4,14,12,-10,-3,13,-15,-10,5,3,-4,-6
4,14,12,-9,-4,12,-16,-10,6,4,-3,-6
3,14,12,-9,-4,12,-17,-9,6,6,-2,-6
4,15,12,-10,-4,13,-17,-9,8,8,-1,-5
5,17,12,-11,-3,14,-16,-8,9,10,0,-4
6,17,12,-11,-2,14,-16,-7,10,11,1,-4
6,16,12,-10,-2,13,-17,-7,11,13,2,-4
5,15,12,-10,-3,13,-17,-7,12,14,2,-3
5,15,12,-10,-3,13,-16,-6,14,16,3,-3
5,16,12,-10,-3,13,-16,-4,15,17,3,-2
5,16,11,-11,-3,13,-16,-3,16,18,4,-2
5,16,11,-10,-3,13,-16,-3,17,19,4,-2
4,15,11,-10,-3,13,-16,-2,18,20,4,-2
5,14,10,-10,-3,12,-16,-2,19,21,3,-3
5,13,10,-10,-2,11,-15,-1,19,21,3,-3
6,13,9,-10,-2,11,-14,0,20,22,2,-3
6,13,9,-9,-1,10,-15,1,20,22,1,-3
5,11,8,-8,-1,9,-16,1,20,22,0,-3
4,10,7,-7,-1,8,-16,2,20,21,-1,-4
3,8,6,-6,-1,6,-16,2,20,21,-2,-4
3,8,5,-6,-1,6,-16,2,19,21,-3,-4
4,8,6,-6,-1,6,-16,3,19,21,-4,-3
4,9,6,-7,-1,7,-16,3,18,20,-5,-3
4,8,5,-7,-1,7,-16,4,18,20,-6,-3
4,7,4,-6,0,6,-15,4,17,19,-8,-2
3,5,3,-4,0,4,-16,3,16,17,-10,-2
1,3,3,-3,-1,3,-16,3,15,16,-12,-2
1,3,3,-3,0,3,-16,3,14,16,-14,-1
2,4,3,-4,0,4,-16,4,13,16,-14,0
2,5,3,-4,0,4,-15,4,13,15,-15,1
3,5,3,-5,0,4,-15,4,12,15,-16,2
3,4,2,-5,0,3,-15,4,12,14,-17,3
3,3,2,-4,0,2,-15,4,12,14,-18,4
3,2,1,-4,0,1,-14,4,12,14,-19,5
2,2,1,-3,0,1,-14,4,12,14,-20,7
2,1,1,-2,0,1,-14,4,11,13,-22,9
2,0,0,-2,1,0,-15,4,9,12,-23,10
2,0,-1,-2,1,0,-16,4,8,12,-24,11
2,0,-1,-2,1,0,-15,4,8,12,-25,13
2,0,-1,-1,1,0,-15,4,7,12,-25,14
2,-1,-1,-1,1,-1,-15,4,7,12,-26,15
2,-1,-1,-1,1,-1,-15,4,6,11,-26,16
2,-1,-2,-1,2,-2,-15,4,6,11,-26,18
2,-1,-2,-1,2,-2,-14,4,6,11,-27,19
2,-1,-3,-1,3,-2,-14,4,6,11,-28,20
2,-1,-3,-1,3,-2,-14,5,6,11,-28,22
2,-2,-3,0,3,-3,-14,5,7,11,-28,22
2,-2,-4,0,3,-3,-14,6,7,11,-28,23
2,-2,-4,0,3,-3,-14,6,7,11,-28,23
2,-2,-3,0,3,-3,-14,7,7,11,-28,24
3,-2,-3,0,3,-3,-14,7,6,10,-29,24
3,-2,-4,0,4,-3,-13,7,6,10,-29,24
2,-2,-3,0,3,-2,-13,8,5,10,-29,24
2,-1,-3,-1,3,-2,-12,8,5,10,-29,24
2,-1,-3,-1,3,-2,-12,8,4,10,-29,24
2,-2,-4,-1,3,-3,-12,8,4,10,-29,23
2,-2,-4,-1,3,-3,-12,9,4,10,-29,23
2,-2,-4,-1,3,-3,-11,9,4,10,-28,22
2,-2,-4,0,4,-3,-11,10,4,10,-28,21
2,-2,-4,0,4,-4,-10,10,4,10,-28,20
3,-2,-4,0,4,-4,-10,11,4,10,-28,20
2,-2,-4,0,4,-4,-10,11,4,10,-28,20
2,-3,-5,0,3,-4,-10,11,3,10,-28,20
2,-3,-5,0,3,-4,-10,11,3,10,-28,20
2,-3,-5,0,3,-4,-9,11,3,11,-28,20
2,-3,-5,0,3,-4,-9,12,3,11,-27,20
2,-3,-5,0,3,-4,-9,12,3,11,-27,20
2,-3,-5,0,3,-4,-9,12,3,11,-27,20
2,-3,-5,0,3,-4,-8,12,3,11,-27,19
2,-3,-5,0,3,-4,-8,11,3,11,-27,19
2,-3,-5,0,3,-4,-9,11,2,11,-27,18
2,-3,-5,0,3,-4,-9,11,2,11,-27,18
3,-3,-5,0,3,-4,-8,11,2,10,-27,17
3,-3,-5,0,3,-4,-8,11,2,10,-27,17
2,-3,-5,0,3,-4,-7,11,2,10,-27,16
2,-3,-5,0,3,-4,-8,10,2,10,-27,14
2,-3,-5,0,3,-4,-8,10,2,10,-27,13
2,-2,-4,0,3,-3,-7,10,2,10,-27,13
2,-2,-4,0,3,-3,-7,10,2,10,-27,12
2,-2,-4,0,3,-3,-6,10,2,10,-27,11
2,-2,-4,0,4,-3,-6,10,2,10,-27,10
2,-2,-4,-1,4,-3,-7,10,2,10,-27,9
2,-2,-4,-1,3,-3,-7,10,2,10,-26,9
2,-2,-5,-1,3,-3,-8,9,2,10,-26,8
2,-2,-5,-1,4,-4,-8,8,2,10,-26,7
3,-2,-5,-1,4,-3,-7,8,2,10,-26,6
4,-1,-5,-2,4,-3,-7,8,2,10,-25,6
4,-1,-5,-2,4,-3,-6,8,2,10,-25,5
3,-1,-5,-1,4,-3,-6,7,2,10,-25,4
3,-1,-5,-1,4,-3,-7,7,2,10,-24,3
3,-1,-4,-2,4,-3,-7,8,3,10,-24,3
4,0,-4,-2,4,-2,-7,8,3,10,-23,2
4,0,-4,-2,4,-2,-7,8,4,10,-23,2
4,0,-4,-2,4,-2,-7,8,5,11,-23,1
4,0,-4,-2,4,-3,-7,8,5,11,-22,0
4,0,-4,-2,4,-3,-7,8,5,11,-22,0
4,0,-4,-2,4,-3,-7,8,5,10,-22,-1
4,0,-4,-2,4,-3,-6,8,5,10,-22,-1
3,0,-4,-2,4,-3,-6,8,5,10,-21,-1
4,0,-4,-3,4,-2,-5,9,5,11,-21,-1
5,1,-4,-4,5,-2,-5,9,5,11,-20,-1
5,1,-4,-4,5,-2,-5,9,5,11,-19,-2
4,0,-4,-2,4,-2,-5,9,5,11,-19,-3
3,0,-4,-1,3,-2,-5,9,5,11,-19,-3
3,0,-4,-1,4,-2,-5,9,5,11,-19,-3
4,0,-4,-2,4,-2,-5,9,5,11,-18,-3
5,1,-4,-3,4,-2,-4,10,5,12,-17,-3
5,1,-4,-3,4,-2,-4,10,5,12,-17,-4
4,0,-4,-3,4,-2,-4,10,5,12,-16,-4
4,0,-4,-3,4,-2,-4,10,6,12,-16,-4
4,0,-4,-3,4,-2,-3,11,6,12,-15,-4
4,0,-4,-3,4,-2,-3,11,7,12,-15,-4
5,0,-4,-3,4,-2,-3,11,7,12,-14,-4
5,1,-4,-4,5,-2,-2,11,7,12,-14,-5
5,1,-4,-4,5,-2,-2,10,6,12,-14,-5
5,0,-4,-3,5,-2,-2,10,5,12,-14,-5
5,0,-4,-3,4,-3,-2,10,5,12,-13,-5
4,0,-4,-3,4,-3,-3,11,5,12,-13,-5
4,0,-4,-2,4,-3,-3,11,5,12,-13,-5
4,0,-4,-2,4,-3,-4,10,5,11,-13,-5
4,0,-5,-2,4,-3,-3,10,5,11,-12,-5
4,0,-4,-2,4,-2,-3,10,5,11,-12,-5
4,0,-4,-2,4,-2,-3,10,5,11,-12,-5
3,-1,-4,-1,3,-2,-3,9,4,10,-12,-5
3,-1,-4,-1,3,-2,-3,9,3,10,-12,-5
3,0,-4,-1,3,-2,-2,9,3,11,-11,-4
3,0,-4,-2,4,-2,-1,9,3,12,-11,-4
4,0,-4,-2,4,-2,-1,9,4,12,-11,-3
4,1,-4,-3,4,-2,-1,10,4,12,-11,-3
4,1,-4,-3,4,-2,-2,10,4,12,-11,-3
4,0,-4,-2,3,-2,-2,10,4,11,-11,-3
4,0,-4,-2,4,-2,-2,10,4,11,-10,-3
5,1,-4,-3,5,-2,-1,11,5,11,-10,-2
6,2,-4,-4,5,-1,-1,11,5,11,-10,-2
6,2,-4,-4,5,-2,-1,11,4,10,-10,-3
5,1,-5,-4,5,-2,-1,10,4,10,-10,-3
4,1,-4,-4,4,-2,-1,10,4,10,-10,-3
2,0,-3,-2,3,-2,-1,10,4,10,-10,-3
1,0,-3,-1,2,-2,-1,10,3,10,-9,-3
2,0,-3,-2,2,-1,-1,10,3,10,-8,-3
4,1,-3,-3,3,-1,0,10,3,10,-7,-3
5,2,-3,-4,4,-1,0,10,3,10,-6,-3
5,2,-3,-4,4,-1,0,10,3,10,-6,-3
4,1,-3,-3,3,-1,0,9,2,10,-6,-3
3,1,-3,-3,3,-1,0,9,2,9,-6,-4
2,1,-3,-3,2,-1,0,9,2,9,-6,-4
3,2,-2,-3,2,0,0,10,3,10,-6,-4
4,3,-2,-4,3,0,1,10,3,10,-5,-4
5,3,-2,-4,3,0,1,10,3,10,-5,-4
4,2,-2,-3,3,0,1,10,2,9,-5,-4
4,2,-1,-3,3,0,0,9,2,9,-5,-4
3,2,-1,-3,3,0,0,9,2,9,-4,-4
3,2,-1,-3,3,0,0,9,2,9,-4,-4
3,2,-1,-3,2,0,0,9,2,9,-4,-4
3,2,-1,-3,2,0,0,9,1,8,-4,-4
3,2,-1,-3,2,0,0,9,1,8,-4,-4
2,1,-1,-2,2,0,0,9,1,8,-4,-4
2,1,0,-2,1,0,0,9,1,8,-4,-4
3,2,0,-3,2,0,0,9,1,8,-4,-4
4,4,0,-4,2,1,0,9,2,8,-3,-4
4,6,0,-6,2,2,1,9,2,9,-2,-4
5,6,0,-7,2,3,1,9,3,9,-2,-4
4,6,0,-6,2,3,1,9,3,9,-2,-4
3,5,1,-5,1,3,1,9,3,9,-2,-4
3,5,2,-5,0,4,1,9,3,10,-1,-3
3,5,3,-4,0,4,1,9,3,10,-1,-3
3,5,3,-5,0,4,1,9,3,10,-1,-3
3,6,3,-5,0,4,1,9,3,10,-1,-3
3,6,3,-6,0,5,1,9,4,11,-1,-3
3,7,3,-6,0,5,1,9,4,11,-1,-3
3,7,3,-6,0,5,1,9,5,11,-1,-2
3,7,3,-6,0,5,1,9,6,12,0,-2
4,7,3,-6,0,5,1,9,7,12,0,-2
4,8,3,-6,0,5,1,9,7,12,0,-1
4,7,3,-6,0,4,0,8,6,12,0,-1
4,6,2,-5,1,3,0,8,5,11,0,-1
4,6,1,-5,2,3,-1,7,5,11,0,-1
4,5,0,-6,2,2,-1,7,4,11,0,-1
5,6,0,-6,3,2,-1,6,4,11,0,0
5,6,0,-6,3,2,-1,6,4,11,0,0
5,6,0,-6,3,2,-1,6,4,11,0,0
6,5,-1,-6,3,2,-1,6,3,11,0,0
6,5,-2,-6,4,1,-2,6,3,11,0,0
5,4,-2,-5,4,0,-3,6,2,10,0,0
5,3,-2,-5,4,0,-3,6,2,10,0,0
5,3,-2,-5,3,0,-3,6,1,9,0,0
4,3,-2,-5,3,0,-3,5,1,9,-1,0
4,2,-3,-4,4,0,-3,5,0,8,-2,0
5,2,-3,-5,4,0,-2,5,1,8,-3,1
6,3,-3,-5,4,0,-1,5,1,8,-3,1
5,3,-2,-5,4,0,-1,6,2,9,-3,2
5,2,-2,-4,3,0,0,6,2,9,-3,2
4,2,-2,-4,3,0,0,6,2,9,-3,2
4,1,-3,-4,3,0,0,6,2,9,-3,3
4,1,-3,-4,3,-1,0,6,2,8,-3,3
4,0,-4,-3,3,-2,0,6,2,8,-3,4
3,0,-4,-3,3,-2,1,6,1,8,-4,4
2,0,-3,-2,2,-2,1,5,1,7,-5,5
2,0,-3,-2,2,-1,0,5,0,7,-6,5
1,0,-2,-2,2,-1,0,4,0,7,-7,5
1,0,-2,-2,2,-1,0,4,0,7,-7,5
1,0,-2,-1,1,-1,0,4,0,6,-7,5
0,0,-2,-1,1,-1,0,3,0,5,-7,5
0,-1,-2,0,1,-2,0,2,0,4,-7,5
0,0,-1,0,1,-1,1,2,0,4,-7,6
0,0,0,0,0,-1,2,2,0,5,-7,7
0,0,0,0,0,0,2,2,0,5,-7,8
-1,-1,0,0,0,-1,2,2,0,5,-7,8
-1,-2,-1,0,0,-1,2,2,0,4,-7,8
-1,-2,-1,0,0,-1,2,3,0,4,-6,8
-1,-1,-1,0,0,-1,2,3,0,4,-6,8
-1,0,0,0,0,0,2,3,1,4,-5,9
-1,0,0,0,-1,0,2,4,1,4,-5,9
-1,-1,0,0,-1,-1,2,3,1,4,-5,9
-1,-1,0,0,-1,-1,2,3,1,5,-5,9
-2,-1,0,0,-1,0,3,3,1,5,-5,9
-2,-1,0,0,-1,0,3,3,1,6,-5,9
-2,-1,1,0,-1,0,3,3,2,6,-4,9
-2,0,1,0,-1,0,3,3,2,6,-4,9
-1,0,1,0,-1,0,4,3,2,6,-4,9
-1,0,1,0,-1,0,4,3,2,6,-4,9
-2,0,1,0,-1,0,3,3,2,6,-3,9
-2,0,1,0,-1,0,3,3,2,6,-3,9
-2,0,1,0,-1,0,4,3,2,6,-3,8
-2,0,1,0,-1,0,5,3,2,6,-3,7
-2,0,1,0,-1,0,5,3,2,6,-3,6
-2,0,1,0,-1,0,5,4,2,6,-3,5
-2,0,2,0,-2,1,6,4,3,6,-3,5
-2,1,2,0,-2,1,6,5,3,7,-2,4
-2,0,2,0,-2,1,5,4,2,7,-2,4
-2,0,2,0,-2,0,4,4,2,6,-2,3
-1,1,2,0,-2,1,5,4,2,6,-2,3
-1,1,2,0,-2,1,5,5,2,7,-1,3
-2,1,2,0,-2,1,5,5,2,7,-1,2
-2,1,2,0,-2,1,5,5,2,7,-1,1
-2,0,2,0,-2,1,5,5,2,7,-1,1
-2,0,2,0,-2,1,4,5,2,7,-1,0
-2,1,2,0,-2,1,4,5,3,7,-1,0
-2,1,3,0,-2,2,4,5,3,7,0,0
-2,1,3,0,-2,2,4,5,3,7,0,0
-2,1,3,0,-2,2,4,5,3,7,0,0
-2,2,3,0,-2,2,4,5,4,7,0,0
-2,2,3,0,-2,2,4,5,4,8,0,0
-1,2,3,-1,-2,2,4,5,4,8,0,0
-1,2,3,-1,-2,2,4,5,4,8,0,0
-1,2,3,-1,-2,2,4,5,4,8,0,0
-1,2,4,-1,-2,3,4,5,4,8,0,0
-1,3,4,-1,-2,3,4,5,4,8,0,0
-1,3,4,-1,-2,3,3,5,4,9,0,0
-1,3,4,-1,-3,3,3,5,4,9,0,0
-2,3,4,0,-4,3,3,5,4,9,0,0
-3,4,5,-1,-4,4,3,4,3,8,0,0
-3,6,7,-2,-5,6,2,3,2,8,1,0
-4,7,10,-2,-6,8,1,2,1,8,2,1
-5,8,13,-2,-8,10,0,0,0,9,3,3
-6,10,16,-2,-11,13,1,0,0,10,6,5
-6,13,19,-3,-12,16,1,0,0,13,10,7
-5,15,21,-5,-13,18,2,1,1,17,13,9
-5,16,21,-6,-13,19,2,2,4,22,18,11
-6,16,21,-5,-13,18,3,4,8,30,23,13
-5,16,20,-5,-13,18,3,7,16,42,31,16
-2,19,20,-8,-11,19,3,10,26,60,41,21
2,24,21,-13,-9,22,3,12,38,81,54,28
5,29,22,-18,-8,25,1,14,50,104,69,35
9,33,22,-22,-7,28,-2,15,61,128,85,43
14,38,22,-27,-4,30,-5,16,71,151,99,50
19,41,20,-30,0,30,-6,18,82,169,109,55
22,39,16,-30,3,26,-8,20,89,177,112,57
25,34,8,-29,8,20,-10,22,95,179,109,55
28,29,0,-29,14,13,-9,25,102,177,103,52
31,22,-10,-28,21,5,-5,30,110,171,93,46
32,14,-19,-24,26,-3,0,37,118,162,80,38
32,5,-28,-20,30,-11,3,43,122,148,65,29
31,-2,-34,-15,32,-18,7,46,120,131,49,20
30,-9,-39,-10,34,-25,11,47,113,109,32,10
26,-16,-42,-4,34,-30,13,45,97,82,14,0
21,-24,-45,1,33,-35,15,40,73,50,-5,-10
18,-30,-48,5,34,-40,17,32,43,15,-24,-19
16,-34,-51,8,34,-43,17,23,12,-17,-40,-26
12,-39,-52,12,32,-45,17,13,-17,-47,-54,-32
8,-41,-51,16,29,-46,16,3,-43,-70,-65,-36
3,-43,-48,19,25,-45,15,-5,-63,-87,-72,-39
-1,-44,-44,22,21,-44,14,-12,-78,-98,-77,-42
-4,-43,-39,23,17,-42,14,-18,-89,-105,-80,-44
-6,-41,-35,23,14,-39,14,-23,-96,-108,-80,-44
-9,-40,-30,24,11,-36,14,-26,-100,-108,-80,-45
-12,-38,-26,25,7,-33,15,-28,-100,-107,-79,-45
-16,-37,-21,25,3,-29,16,-29,-99,-104,-77,-45
-17,-35,-18,25,1,-26,17,-30,-97,-101,-74,-43
-18,-33,-16,24,0,-24,16,-31,-95,-97,-71,-41
-18,-31,-14,24,-2,-23,14,-32,-93,-92,-67,-39
-19,-29,-10,24,-4,-20,13,-32,-90,-87,-63,-36
-19,-26,-7,23,-5,-17,10,-33,-88,-82,-59,-34
-19,-24,-5,21,-6,-15,7,-34,-85,-77,-56,-32
-19,-21,-3,19,-7,-12,6,-34,-81,-71,-52,-29
-18,-19,-1,18,-7,-10,5,-32,-74,-65,-47,-27
-18,-17,0,16,-8,-8,4,-29,-66,-58,-43,-24
-17,-14,1,14,-9,-6,4,-26,-58,-51,-38,-20
-15,-11,3,13,-9,-4,5,-23,-50,-44,-33,-17
-14,-8,5,11,-10,-2,5,-20,-43,-38,-28,-14
-13,-5,7,9,-10,0,4,-17,-36,-32,-23,-11
-12,-1,10,7,-10,3,4,-14,-30,-26,-19,-9
-11,1,11,4,-10,5,4,-12,-24,-22,-16,-7
-10,3,12,3,-10,7,3,-10,-19,-18,-14,-5
-9,3,11,2,-10,7,3,-9,-15,-15,-12,-4
-8,4,11,1,-9,7,3,-8,-12,-12,-11,-2
-8,4,10,1,-9,7,3,-7,-8,-10,-9,0
-7,3,9,1,-8,6,4,-5,-5,-8,-7,0
-7,3,9,1,-8,6,5,-4,-3,-6,-6,1
-6,4,9,1,-7,6,5,-2,-1,-5,-5,1
-5,4,9,0,-7,6,6,-1,0,-4,-4,1
-5,4,9,0,-7,6,6,0,1,-3,-4,1
-5,4,8,0,-6,6,6,0,1,-2,-3,1
-5,3,7,0,-6,5,6,0,1,-2,-3,1
-4,3,7,0,-6,5,6,1,1,-1,-2,0
-4,4,7,0,-6,6,7,1,2,-1,-2,0
-3,5,7,-1,-5,6,7,2,3,0,-1,0
-3,5,7,-1,-5,6,8,2,3,0,-1,-1
-4,4,7,0,-5,6,8,3,4,0,0,-1
-3,4,7,-1,-5,6,9,3,4,0,0,-1
-2,4,7,-2,-4,6,10,4,5,1,0,-1
-3,4,7,-2,-4,6,10,4,5,1,0,-1
-3,4,7,-1,-5,5,9,4,5,1,0,-1
-4,4,6,-1,-5,5,10,4,5,1,1,0
-4,4,6,-1,-5,5,10,4,5,1,1,0
-4,4,7,0,-5,5,10,4,5,1,1,1
-4,4,7,0,-5,5,11,4,5,1,1,2
-4,4,7,0,-5,5,11,4,5,1,1,3
-4,4,7,0,-5,5,12,4,5,1,1,4
-3,4,7,0,-5,5,12,4,5,1,1,5
-3,4,7,-1,-5,5,12,4,5,2,1,6
-3,5,7,-1,-5,5,12,4,5,2,1,7
-3,5,7,-1,-5,5,12,4,5,2,0,8
-3,5,7,-1,-5,5,12,4,6,2,0,9
-3,5,7,-1,-5,5,11,4,6,2,0,10
-3,5,7,-1,-4,5,10,3,6,2,-1,11
-2,5,7,-1,-4,5,10,3,6,2,-2,11
-2,5,7,-1,-4,5,10,2,6,2,-2,11
-3,4,7,0,-5,5,9,1,5,2,-3,11
-5,3,7,0,-6,5,9,0,5,1,-3,11
-5,3,7,0,-6,5,8,0,4,1,-4,12
-4,3,6,0,-5,5,8,0,4,1,-4,12
-2,4,6,-1,-4,5,8,0,5,1,-4,12
-2,5,7,-1,-4,5,8,0,5,1,-5,13
-3,4,7,-1,-4,5,7,0,5,1,-5,13
-3,4,7,-1,-4,5,5,-1,5,1,-5,12
-2,4,6,-1,-4,5,4,-1,6,1,-5,12
-3,4,7,-1,-4,5,5,0,6,1,-5,12
-5,3,8,0,-5,5,5,0,6,1,-5,12
-5,3,8,0,-5,5,4,0,6,1,-5,12
-4,3,7,0,-5,4,3,0,6,0,-5,11
-3,4,6,-1,-4,4,3,0,6,0,-4,11
-2,4,6,-1,-4,4,2,0,6,0,-4,11
-2,4,6,-1,-4,5,2,0,6,0,-3,11
-3,4,6,0,-4,5,2,1,6,0,-3,11
-3,4,6,0,-4,5,2,1,6,0,-2,10
-3,4,6,0,-5,5,2,1,5,0,-2,10
-3,4,6,0,-5,5,2,1,5,0,-1,10
-4,4,6,0,-5,5,2,1,5,0,-1,10
-4,4,7,0,-6,5,2,1,5,0,0,9
-4,4,7,0,-5,5,2,1,4,0,0,9
-4,4,7,0,-5,5,2,1,4,0,0,8
-3,4,7,0,-4,5,2,1,4,0,1,8
-3,4,7,0,-4,5,2,1,4,0,1,8
-3,4,7,0,-4,5,3,1,3,0,2,8
-3,3,6,0,-4,5,3,1,3,0,2,8
-3,3,6,0,-4,4,3,1,3,0,2,7
-3,3,6,0,-4,4,3,1,3,0,2,7
-3,3,6,0,-4,4,3,1,3,0,3,6
-4,3,7,0,-4,4,4,1,4,0,3,6
-5,3,7,1,-5,5,4,1,4,0,3,6
-5,2,6,1,-5,4,3,1,4,0,3,5
-4,3,6,1,-5,4,3,0,4,-1,3,4
-4,4,7,0,-5,5,3,0,4,-1,3,3
-4,4,7,0,-5,5,4,0,4,-2,2,3
-4,3,7,0,-5,5,4,0,3,-2,1,2
-3,4,7,0,-4,5,4,0,3,-3,1,1
-3,5,8,-1,-4,6,4,-1,3,-3,0,1
-3,4,8,0,-5,6,4,-2,2,-3,0,1
-4,3,8,0,-5,6,3,-2,1,-4,0,0
-5,3,8,1,-5,5,3,-3,1,-5,-1,0
-5,3,8,1,-5,5,3,-3,1,-6,-1,0
-5,3,8,0,-5,6,3,-3,1,-6,-1,0
-5,3,9,0,-6,6,2,-3,0,-7,-2,0
-5,4,9,0,-6,6,2,-3,0,-7,-3,0
-5,5,10,0,-6,7,1,-3,0,-8,-3,0
-4,6,10,0,-6,7,1,-3,0,-8,-3,0
-5,6,10,0,-6,7,1,-3,0,-8,-3,1
-5,6,10,0,-6,8,0,-4,0,-9,-4,1
-4,7,10,-1,-6,9,0,-4,0,-9,-4,2
-3,9,11,-3,-6,10,0,-4,0,-9,-4,3
-4,9,12,-3,-7,11,0,-4,0,-9,-4,3
-5,9,13,-2,-9,11,-1,-4,0,-9,-5,4
-6,9,14,-2,-9,12,-1,-4,0,-10,-5,4
-5,10,14,-3,-9,12,-1,-4,0,-10,-5,4
-4,11,14,-4,-8,12,-2,-4,0,-10,-5,4
-3,12,15,-4,-8,13,-3,-4,0,-10,-5,5
-3,12,15,-5,-9,13,-3,-5,0,-10,-6,5
-4,11,15,-4,-9,14,-4,-5,0,-10,-6,6
-4,12,16,-5,-9,14,-4,-6,-1,-9,-6,6
-3,14,16,-7,-9,16,-4,-5,0,-9,-6,7
-1,16,17,-8,-8,17,-4,-5,0,-8,-5,8
-1,17,17,-8,-9,17,-4,-5,0,-7,-4,9
-2,16,18,-8,-9,17,-4,-5,0,-7,-4,9
-2,16,18,-7,-9,17,-4,-5,1,-7,-3,10
-1,16,18,-8,-9,18,-4,-5,1,-6,-2,11
-1,17,18,-8,-9,18,-4,-5,2,-4,-1,11
-1,17,19,-9,-9,19,-4,-6,2,-3,-1,12
-1,18,19,-9,-9,19,-5,-6,3,-2,0,13
-1,19,20,-9,-9,19,-5,-6,3,0,0,14
-1,19,20,-9,-10,20,-5,-6,3,0,1,15
-1,20,20,-9,-10,20,-6,-6,4,2,2,16
-1,20,21,-10,-10,20,-5,-5,6,4,3,17
0,21,21,-10,-10,21,-5,-4,8,6,4,18
0,21,21,-10,-10,21,-4,-4,9,8,5,18
-1,20,21,-10,-10,21,-4,-3,10,10,6,18
-1,20,21,-10,-10,21,-3,-3,12,11,6,19
-1,20,21,-10,-10,21,-3,-2,13,13,7,19
-1,19,20,-9,-10,20,-2,-1,14,14,7,19
-1,19,20,-9,-10,19,-2,-1,15,15,7,19
-1,19,20,-9,-9,19,-2,0,16,16,7,19
0,19,19,-10,-8,19,-1,0,17,17,8,19
0,19,19,-10,-8,19,-1,1,17,18,8,19
0,18,19,-9,-8,19,-1,1,18,18,7,18
0,18,18,-9,-8,19,0,2,18,18,7,18
1,19,18,-10,-7,19,0,3,18,18,8,18
1,18,17,-10,-6,18,1,4,18,18,8,17
1,18,17,-9,-6,18,1,4,18,18,8,17
0,17,16,-9,-6,17,1,4,17,17,7,16
0,16,16,-8,-6,16,2,4,17,17,7,15
0,15,15,-8,-6,15,3,5,17,17,7,15
1,15,14,-8,-6,15,3,5,16,16,6,14
0,14,14,-7,-6,14,3,5,16,16,6,13
-1,12,14,-6,-7,14,3,5,15,15,6,12
-1,11,13,-5,-6,13,2,5,14,15,6,12
-2,11,13,-4,-6,12,2,5,14,14,5,11
-2,10,13,-4,-6,12,2,5,14,14,5,10
-2,10,12,-4,-6,11,3,6,14,13,4,10
-2,10,12,-4,-6,11,3,6,14,13,4,10
-2,9,11,-4,-6,10,3,6,13,12,4,10
-2,9,11,-4,-6,9,2,6,13,12,4,10
-2,8,11,-3,-6,10,1,6,12,11,4,10
-2,8,11,-3,-6,10,1,6,11,11,4,10
-2,8,10,-3,-6,9,1,6,10,11,4,10
-3,7,10,-2,-6,9,1,7,10,11,3,10
-3,6,9,-1,-6,8,1,7,9,10,3,10
-3,5,9,-1,-5,7,1,7,9,9,2,10
-3,5,8,-1,-5,6,1,7,9,9,2,10
-3,5,9,-1,-5,6,1,7,9,9,2,10
-3,5,9,-1,-5,6,1,7,9,9,2,9
-3,5,9,-1,-5,6,2,7,9,9,3,10
-4,5,9,0,-5,6,2,8,10,9,3,10
-4,5,8,0,-5,6,1,7,9,8,3,10
-3,5,8,-1,-4,6,0,7,9,8,2,10
-3,5,8,-1,-4,6,1,7,8,8,2,10
-3,4,8,0,-5,6,1,7,8,8,2,10
-3,4,8,0,-5,6,1,7,8,8,2,10
-3,3,7,0,-5,6,0,7,8,8,2,10
-3,3,7,0,-5,5,0,7,7,7,2,10
-4,2,7,1,-5,5,0,7,7,7,2,10
-4,1,7,1,-5,5,0,7,7,7,2,9
-4,2,7,1,-4,5,0,8,7,7,2,9
-4,2,7,0,-4,5,1,8,7,7,2,9
-4,2,7,0,-4,5,0,8,7,7,2,8
-3,3,7,0,-4,5,0,9,8,7,2,8
-2,4,7,-1,-4,5,0,10,8,8,2,8
-2,4,6,-1,-3,5,0,10,8,8,2,8
-2,4,6,-1,-3,5,0,11,7,7,2,7
-2,3,6,-1,-3,4,1,11,7,7,1,7
-2,3,6,-1,-3,5,1,11,7,7,1,7
-2,3,6,-1,-3,5,1,11,7,7,1,7
-2,3,6,0,-4,5,1,11,7,7,1,6
-3,2,6,0,-4,5,1,11,6,6,1,5
-4,1,6,1,-4,4,1,10,5,6,1,4
-4,1,6,1,-4,4,1,11,5,7,2,4
-5,1,7,1,-5,4,2,12,6,7,2,4
-5,1,7,1,-5,4,3,12,6,7,2,3
-4,2,7,1,-4,4,3,12,7,7,2,3
-4,2,7,0,-4,5,3,12,7,7,2,4
-5,2,7,0,-5,5,4,12,7,7,2,4
-5,3,8,0,-6,6,4,12,8,7,2,5
-4,4,8,0,-5,6,5,12,8,7,2,5
-3,4,7,-1,-5,6,5,12,8,7,1,5
-3,4,7,-1,-5,6,6,12,8,7,1,5
-3,4,8,-1,-5,6,6,12,8,7,1,5
-3,4,8,-1,-5,6,6,12,8,7,1,4
-3,4,7,-1,-5,6,6,12,8,7,0,4
-3,4,7,-1,-5,6,7,12,8,7,0,4
-3,4,7,0,-5,6,8,12,7,6,0,3
-3,4,7,0,-5,6,8,12,7,6,0,3
-3,5,8,-1,-5,6,8,12,7,7,0,3
-2,5,8,-1,-5,6,7,12,7,7,0,3
-2,5,8,0,-5,6,7,12,7,7,0,3
-2,5,8,-1,-4,6,7,12,8,7,0,3
-2,5,8,-1,-4,6,8,12,8,7,0,3
-3,4,8,-1,-4,6,9,12,8,7,0,3
-3,4,8,0,-5,6,9,11,8,6,0,3
-3,4,8,0,-5,6,10,11,8,6,0,3
-3,4,8,0,-5,6,8,11,9,6,0,2
-3,4,8,0,-5,6,7,10,8,6,0,2
-3,4,8,0,-5,6,7,10,8,6,-1,2
-3,4,8,0,-5,7,7,10,9,6,-1,2
-3,5,8,0,-5,7,8,10,9,7,0,2
-3,5,8,0,-5,7,8,10,9,7,0,2
-3,5,8,0,-5,7,8,10,9,7,0,2
-3,5,8,0,-5,7,8,10,9,7,-1,3
-4,4,8,0,-6,7,7,10,9,7,-1,3
-4,4,9,0,-6,7,7,10,9,7,-1,3
-4,4,9,0,-6,7,7,10,9,7,-1,3
-3,4,8,0,-6,7,7,11,9,7,0,3
-3,4,8,0,-5,6,7,11,9,7,0,4
-3,4,8,0,-5,6,7,11,9,7,0,4
-4,3,8,0,-6,5,7,11,9,7,0,4
-4,3,8,1,-6,5,7,11,9,7,0,5
-3,4,8,0,-6,6,7,11,10,8,0,6
-2,5,7,0,-5,6,7,11,10,8,0,7
-3,5,7,0,-6,6,7,11,11,8,1,7
-3,4,8,0,-6,6,7,11,11,8,1,8
-4,4,8,0,-6,6,6,11,10,8,0,8
-4,4,8,0,-6,6,6,11,10,8,0,9
-5,3,8,1,-6,6,6,12,10,8,0,9
-4,4,8,0,-6,6,6,12,10,9,1,10
-4,4,8,0,-6,6,7,12,11,9,1,11
-5,3,8,1,-6,5,7,12,11,9,1,12
-5,2,8,2,-6,4,6,11,11,8,1,13
-5,2,8,2,-6,4,6,11,11,8,1,13
-3,3,7,0,-5,5,6,12,12,8,1,14
-3,4,7,0,-5,5,6,12,12,8,1,14
-4,2,7,1,-5,5,6,11,12,7,1,14
-5,2,7,1,-6,5,6,11,11,8,1,15
-4,3,7,0,-5,5,6,11,12,8,1,15
-4,3,7,0,-5,5,5,11,12,7,0,15
-5,1,7,2,-6,4,4,10,11,7,0,15
-5,1,7,2,-6,4,4,10,11,7,0,15
-5,2,8,2,-6,5,4,10,11,7,0,15
-5,3,8,1,-6,5,5,10,11,7,1,15
-5,3,8,1,-6,5,5,9,11,7,1,15
-5,3,7,1,-6,5,5,9,10,6,1,16
-5,2,7,1,-6,4,4,8,10,6,1,16
-5,2,7,1,-6,4,4,8,10,6,0,16
-5,1,7,1,-6,4,4,8,10,6,0,16
-5,1,7,2,-6,4,4,8,10,6,0,16
-5,2,7,1,-6,4,5,8,10,6,0,16
-5,2,7,1,-6,4,5,8,10,6,0,16
-5,2,6,1,-6,4,5,8,10,6,0,15
-5,1,6,1,-6,4,4,7,10,6,0,15
-5,1,6,2,-6,4,4,7,9,5,0,14
-5,1,6,1,-6,4,4,7,9,4,0,14
-5,1,7,1,-6,4,4,7,9,4,0,14
-6,0,7,2,-7,4,4,6,8,3,-1,13
-7,0,7,3,-7,3,3,6,8,3,-2,12
-7,0,6,3,-7,3,3,6,9,3,-2,12
-6,0,6,3,-6,3,3,6,9,3,-2,11
-7,-1,6,3,-7,3,3,5,9,3,-3,11
-9,-2,7,5,-8,3,3,5,8,2,-3,10
-10,-2,7,6,-9,3,3,5,8,2,-4,9
-9,-1,8,5,-8,3,3,5,8,1,-3,9
-7,0,7,3,-7,4,3,6,8,1,-3,9
-5,0,7,2,-6,4,2,6,7,1,-3,9
-5,1,7,1,-6,4,2,6,7,1,-3,9
-6,1,8,1,-6,5,3,6,8,1,-3,9
-5,2,8,0,-6,5,3,7,8,1,-3,9
-4,3,8,0,-6,6,3,8,8,1,-3,9
-4,3,7,0,-6,6,3,8,7,1,-3,9
-4,2,7,1,-6,5,3,8,7,0,-3,9
-4,2,7,1,-6,4,3,7,6,0,-3,8
-4,2,7,0,-6,5,3,8,6,0,-3,8
-4,3,8,0,-6,5,3,8,7,0,-3,9
-4,4,8,0,-7,6,3,8,7,1,-2,9
-5,4,9,0,-7,7,3,8,8,1,-1,9
-6,5,10,0,-8,7,3,8,8,1,-1,9
-6,5,11,0,-8,8,4,8,9,2,-1,10
-4,6,11,-1,-7,9,4,8,9,2,-1,10
-4,6,10,-1,-7,8,3,8,9,2,-1,10
-4,6,10,-1,-7,8,2,8,9,2,-1,10
-4,6,11,-2,-7,9,2,8,10,2,-1,11
-4,7,11,-2,-8,9,3,8,10,3,-1,11
-4,7,11,-2,-8,9,3,8,10,3,-1,10
-4,7,11,-2,-8,9,4,8,10,3,-1,10
-4,7,11,-2,-7,9,4,9,11,3,0,10
-2,8,11,-3,-7,9,4,9,11,4,0,10
-2,9,11,-4,-7,9,4,9,12,4,0,10
-2,8,11,-3,-7,9,4,9,12,4,0,10
-3,7,10,-2,-6,8,3,8,11,3,0,10
-3,6,9,-2,-6,7,3,7,10,2,0,10
-2,6,8,-2,-5,7,2,7,9,2,0,10
-2,6,7,-2,-5,7,1,6,9,1,0,10
-2,6,7,-2,-5,7,0,5,8,1,-1,9
-2,6,7,-2,-4,6,0,4,8,1,-1,9
-1,5,6,-2,-4,6,1,4,8,1,-1,10
-1,5,6,-2,-3,5,1,4,8,1,-1,10
-1,4,6,-2,-3,5,1,4,8,1,-1,10
0,4,5,-2,-3,4,1,4,7,0,-1,10
-1,4,5,-2,-3,4,1,4,7,0,-1,10
-1,4,5,-2,-3,5,1,4,7,0,-1,10
-1,5,5,-2,-3,5,1,4,8,0,-1,10
-1,4,5,-2,-3,5,2,4,8,0,-1,10
-1,4,5,-1,-3,4,4,5,8,0,-1,10
-1,4,5,-1,-3,4,4,5,8,0,-1,11
-2,4,6,-1,-4,5,4,5,8,0,-1,11
-2,4,6,-1,-4,5,4,5,8,0,-1,11
-2,3,5,0,-3,4,4,5,8,0,-1,11
-2,1,4,0,-3,3,4,5,7,-1,-1,11
-2,1,3,0,-3,2,4,5,7,-1,-1,11
-3,1,4,1,-3,2,4,4,7,-1,-1,11
-3,1,4,1,-4,2,4,4,6,-1,-2,11
-4,1,5,1,-5,3,4,3,6,-2,-2,11
-5,1,6,2,-6,3,5,2,5,-2,-2,11
-6,1,7,2,-7,4,6,2,5,-2,-3,11
-6,0,7,3,-7,4,6,1,4,-3,-3,12
-7,0,6,3,-7,3,6,1,3,-3,-4,12
-7,-1,6,4,-6,3,7,1,3,-3,-4,12
-7,-1,6,4,-6,2,7,2,3,-3,-4,12
-7,-1,6,4,-6,2,7,2,3,-4,-4,12
-7,-1,6,4,-6,2,7,1,3,-4,-4,12
-6,-1,6,3,-5,2,7,1,4,-4,-4,13
-5,-1,5,3,-5,2,7,2,4,-4,-4,13
-6,-1,6,4,-5,2,7,2,5,-4,-3,14
-6,-1,6,4,-6,3,7,2,5,-4,-3,14
-6,-1,6,4,-6,3,7,2,5,-4,-3,15
-7,-1,6,4,-6,3,8,3,5,-4,-2,15
-7,-1,7,4,-7,3,8,3,5,-4,-2,15
-8,-1,7,4,-7,3,8,3,4,-4,-2,15
-8,-1,6,4,-7,3,9,3,4,-4,-2,15
-8,-1,6,4,-7,3,10,3,4,-4,-1,15
-8,-1,6,5,-7,3,10,3,4,-4,-1,15
-9,-2,6,5,-8,2,9,3,4,-5,-1,15
-9,-2,6,5,-8,2,9,3,4,-5,-1,15
-9,-2,6,5,-8,2,9,3,4,-5,-1,15
-9,-3,7,6,-8,2,9,4,4,-5,-1,15
-9,-3,7,6,-8,2,10,4,4,-5,0,14
-9,-2,7,5,-8,2,11,4,4,-5,0,14
-8,-1,7,5,-8,2,12,4,4,-4,0,13
-8,-1,7,5,-8,3,13,5,4,-4,0,13
-8,0,7,5,-8,3,13,5,4,-3,0,13
-8,0,7,5,-8,4,12,6,4,-3,0,12
-9,-1,7,6,-8,3,12,6,4,-3,0,12
-10,-3,7,7,-9,2,11,5,3,-3,0,11
-11,-4,6,8,-9,1,10,5,3,-3,0,10
-11,-5,6,8,-9,1,10,4,3,-3,1,9
-10,-3,6,7,-8,1,10,4,3,-3,1,9
-9,-2,7,6,-8,2,11,4,4,-3,2,9
-10,-2,7,7,-9,2,11,4,3,-4,2,9
-10,-3,7,7,-9,2,11,3,3,-4,2,9
-10,-2,7,7,-9,3,11,4,3,-4,2,9
-9,-1,7,6,-8,3,11,4,3,-4,3,9
-9,-2,8,6,-9,3,9,4,2,-4,3,8
-10,-2,8,6,-9,3,8,3,2,-5,2,8
-10,-2,8,6,-9,3,9,3,2,-5,2,8
-10,-3,8,7,-9,2,9,3,2,-5,2,8
-12,-4,8,8,-10,2,9,3,2,-6,2,7
-12,-4,8,8,-10,2,9,2,2,-6,2,7
-11,-2,8,7,-9,3,9,2,2,-5,3,8
-10,-1,8,6,-9,3,9,2,3,-5,4,9
-9,-1,7,5,-8,3,10,2,3,-4,5,9
-8,-1,6,5,-8,3,10,2,3,-4,5,9
-9,-1,7,5,-8,2,10,2,2,-4,5,9
-10,-2,7,6,-9,2,9,1,2,-3,6,9
-11,-2,8,7,-10,2,9,0,1,-3,7,9
-11,-1,9,6,-10,3,9,0,1,-3,7,10
-11,0,11,6,-11,5,9,-1,0,-4,7,10
-12,1,13,6,-13,7,9,-2,0,-5,8,11
-13,2,15,6,-14,9,9,-3,-1,-4,9,14
-13,5,18,4,-15,12,9,-4,-1,-2,13,17
-12,8,20,2,-16,14,8,-5,0,1,17,19
-12,9,21,2,-17,15,7,-5,0,4,21,21
-12,9,22,2,-17,15,9,-3,1,9,25,23
-12,9,22,2,-17,15,10,-1,6,17,30,25
-12,10,22,1,-17,16,11,2,13,30,38,28
-11,11,22,0,-17,17,10,4,23,46,47,32
-9,14,22,-2,-16,18,9,6,34,64,57,37
-5,18,22,-5,-15,20,7,8,46,84,70,44
-1,22,23,-10,-13,23,5,10,59,105,84,50
3,27,24,-14,-11,25,3,11,71,125,97,56
7,29,22,-18,-8,25,0,13,83,142,107,61
11,28,17,-19,-3,22,-2,15,92,151,110,63
15,25,10,-20,3,17,-3,18,100,152,109,62
18,20,1,-19,9,11,-4,21,107,149,104,60
21,13,-8,-17,14,3,-3,26,115,142,95,55
22,5,-17,-14,19,-6,1,33,123,131,84,47
22,-2,-25,-10,23,-13,6,39,128,118,71,39
21,-9,-31,-6,25,-20,11,42,128,101,57,30
19,-16,-35,-1,27,-26,15,43,121,79,41,19
16,-23,-39,4,27,-31,17,42,107,54,24,8
13,-28,-41,8,27,-35,20,37,84,25,7,-2
10,-34,-44,13,27,-40,22,30,53,-7,-10,-10
5,-42,-47,18,27,-45,22,19,18,-39,-26,-18
1,-48,-49,23,25,-49,21,7,-16,-67,-39,-23
-1,-50,-49,26,23,-50,20,-4,-46,-90,-47,-27
-4,-51,-46,28,20,-49,20,-15,-70,-105,-53,-29
-8,-51,-42,30,16,-47,19,-25,-88,-116,-56,-31
-12,-50,-38,31,12,-45,17,-33,-101,-122,-58,-33
-15,-49,-33,32,8,-42,16,-40,-109,-124,-58,-34
-19,-48,-28,34,4,-38,15,-44,-113,-123,-56,-35
-23,-46,-23,35,0,-34,15,-47,-114,-121,-55,-35
-25,-44,-18,35,-4,-31,16,-48,-113,-120,-53,-36
-28,-42,-14,35,-7,-28,18,-48,-111,-118,-51,-36
-30,-41,-11,36,-10,-26,19,-48,-108,-114,-48,-34
-32,-41,-9,37,-12,-25,18,-48,-106,-110,-44,-32
-33,-41,-8,37,-13,-25,15,-49,-104,-106,-41,-30
-33,-40,-7,36,-13,-24,13,-50,-101,-102,-37,-27
-32,-37,-6,34,-13,-22,10,-50,-97,-96,-33,-24
-30,-34,-5,32,-12,-20,7,-49,-91,-90,-28,-20
-28,-31,-4,29,-12,-17,6,-46,-83,-82,-22,-16
-27,-27,-1,27,-13,-14,6,-43,-75,-73,-15,-12
-26,-23,2,25,-14,-10,5,-40,-68,-65,-9,-8
-24,-18,5,21,-15,-6,4,-36,-60,-58,-4,-5
-21,-13,8,18,-15,-2,4,-32,-53,-53,0,-3
-20,-9,10,15,-15,0,4,-30,-47,-48,2,-2
-19,-7,11,14,-15,2,3,-28,-41,-45,4,-1
-19,-6,12,13,-15,3,2,-26,-36,-41,6,-1
-18,-6,12,12,-15,3,2,-24,-31,-37,8,0
-18,-6,12,12,-15,3,2,-23,-27,-34,10,2
-17,-7,11,12,-14,2,3,-21,-23,-31,13,4
-17,-7,10,12,-14,2,3,-20,-20,-28,14,5
-15,-6,9,10,-12,2,3,-18,-17,-26,16,6
-13,-4,9,9,-11,2,3,-17,-14,-23,17,7
-12,-3,9,8,-11,3,2,-16,-12,-21,18,8
-12,-3,9,7,-11,3,2,-15,-10,-19,19,8
-12,-2,10,7,-11,4,2,-15,-9,-17,20,8
-12,-2,10,7,-11,4,3,-15,-9,-16,20,8
-12,-2,10,7,-11,4,3,-14,-8,-16,20,7
-13,-2,10,8,-11,4,4,-13,-8,-17,19,5
-13,-3,10,8,-12,4,6,-12,-8,-17,19,4
-13,-3,9,9,-11,3,6,-12,-7,-18,18,2
-13,-4,8,9,-11,2,6,-11,-7,-18,17,1
-12,-4,7,8,-10,1,7,-10,-6,-18,17,1
-11,-4,7,8,-9,1,8,-9,-6,-17,17,1
-11,-5,6,8,-9,0,8,-9,-5,-17,17,1
-11,-5,6,8,-8,0,7,-9,-5,-16,18,1
-10,-4,5,7,-8,1,7,-9,-4,-13,20,2
-10,-3,6,7,-8,1,8,-9,-4,-11,22,3
-10,-2,7,6,-9,2,9,-9,-4,-9,23,3
-11,-1,9,6,-10,3,8,-9,-4,-9,22,3
-11,-1,10,6,-11,4,8,-8,-4,-10,20,3
-11,-1,10,6,-11,4,9,-8,-4,-12,18,3
-11,-2,9,6,-10,3,9,-8,-4,-13,16,2
-11,-3,8,7,-10,2,9,-7,-4,-13,15,2
-12,-4,8,8,-10,2,10,-7,-4,-13,15,3
-12,-4,7,9,-10,1,11,-6,-4,-12,16,4
-11,-5,6,9,-9,1,11,-6,-4,-11,16,4
-10,-5,5,8,-8,0,11,-6,-3,-11,16,5
-10,-5,5,8,-8,0,12,-6,-3,-10,16,5
-11,-5,5,8,-8,0,11,-7,-2,-9,17,6
-11,-5,5,8,-8,0,8,-8,-3,-8,17,6
-11,-4,6,7,-8,0,7,-8,-3,-6,18,7
-11,-3,7,7,-9,2,6,-8,-3,-4,18,7
-11,-3,8,7,-9,2,6,-9,-3,-5,18,6
-12,-3,8,8,-10,3,6,-9,-3,-7,16,4
-12,-3,8,8,-10,3,6,-9,-3,-9,14,2
-12,-4,8,8,-10,2,6,-9,-3,-10,13,1
-12,-5,7,9,-10,1,6,-9,-2,-11,12,0
-13,-6,6,10,-10,0,6,-9,-2,-11,11,0
-12,-6,6,9,-9,0,6,-9,-2,-11,11,-1
-11,-6,5,8,-8,0,6,-8,-2,-11,11,-1
-10,-6,4,8,-7,-1,4,-9,-2,-11,10,-2
-10,-7,3,9,-7,-1,1,-9,-2,-11,10,-3
-10,-7,3,9,-7,-1,0,-10,-2,-10,12,-3
-10,-6,4,8,-7,-1,0,-9,-2,-7,14,-3
-10,-5,5,8,-7,0,0,-9,-2,-5,15,-3
-11,-4,6,8,-8,0,-1,-10,-3,-5,15,-5
-12,-4,7,8,-9,0,-2,-10,-4,-7,14,-6
-12,-4,7,9,-10,0,-2,-10,-4,-8,13,-8
-13,-5,7,9,-10,0,-2,-10,-5,-10,12,-9
-12,-6,7,9,-9,0,-1,-9,-5,-11,11,-9
-11,-6,6,9,-9,0,-1,-9,-4,-11,12,-10
-11,-6,5,9,-9,0,-2,-9,-4,-11,12,-10
-11,-7,4,10,-8,-1,-2,-9,-4,-11,13,-11
-11,-8,3,10,-7,-2,-1,-8,-3,-11,13,-12
-11,-8,3,10,-7,-2,-1,-8,-2,-11,14,-12
-11,-8,3,10,-7,-3,-1,-8,-2,-10,14,-12
-11,-8,3,10,-7,-3,-2,-8,-2,-10,15,-12
-11,-8,3,9,-7,-2,-3,-8,-2,-9,17,-12
-11,-6,5,8,-7,0,-3,-8,-2,-7,19,-11
-11,-5,6,8,-8,1,-3,-8,-2,-7,19,-12
-11,-4,7,8,-8,1,-3,-9,-3,-8,19,-14
-12,-5,7,9,-9,0,-2,-9,-3,-10,17,-16
-13,-7,6,10,-9,0,-1,-9,-4,-12,16,-17
-13,-7,5,10,-9,-1,-1,-8,-4,-13,16,-17
-11,-6,5,8,-8,-1,0,-8,-4,-13,16,-16
-10,-6,4,8,-7,-1,0,-8,-4,-14,16,-16
-10,-6,4,8,-7,-1,0,-8,-4,-14,15,-15
-11,-7,3,9,-7,-2,0,-8,-4,-15,15,-15
-12,-8,3,10,-7,-2,-2,-9,-4,-15,14,-15
-12,-9,2,11,-7,-3,-3,-10,-4,-15,14,-15
-11,-7,2,9,-6,-2,-3,-10,-4,-14,15,-14
-10,-5,3,8,-7,0,-3,-10,-4,-11,16,-13
-10,-4,5,7,-8,0,-3,-10,-5,-11,16,-13
-10,-4,6,7,-8,1,-4,-11,-5,-13,15,-14
-10,-4,6,7,-9,1,-5,-12,-6,-16,13,-15
-10,-4,7,7,-9,1,-4,-11,-6,-19,11,-15
-11,-3,7,7,-9,1,-3,-11,-6,-20,10,-15
-11,-3,7,7,-9,2,-3,-11,-6,-19,10,-14
-11,-4,7,7,-9,2,-3,-11,-6,-19,10,-13
-13,-6,7,9,-9,1,-4,-11,-6,-20,10,-13
-14,-7,6,10,-9,0,-5,-11,-7,-21,9,-13
-14,-7,6,10,-9,0,-5,-11,-7,-22,9,-13
-13,-6,6,9,-9,0,-6,-12,-7,-21,9,-12
-11,-5,5,8,-8,0,-6,-12,-7,-21,10,-11
-9,-3,5,6,-8,1,-7,-12,-7,-19,12,-10
-9,-1,7,5,-8,3,-7,-12,-7,-18,13,-9
-10,0,9,5,-9,5,-7,-12,-6,-16,14,-9
-10,1,10,4,-10,6,-8,-13,-6,-15,14,-9
-10,2,12,3,-10,7,-8,-13,-6,-16,13,-9
-10,2,13,3,-11,8,-8,-13,-6,-17,13,-9
-10,2,13,3,-11,8,-9,-13,-6,-18,12,-9
-10,1,12,4,-11,7,-9,-13,-6,-19,12,-9
-11,0,11,5,-11,6,-10,-13,-6,-19,12,-9
-11,0,11,5,-10,6,-9,-14,-6,-18,12,-8
-11,0,11,5,-10,6,-9,-14,-6,-18,12,-7
-11,0,11,5,-10,6,-10,-14,-5,-16,13,-5
-10,0,11,4,-10,6,-11,-14,-5,-14,14,-4
-9,1,11,3,-9,6,-12,-15,-5,-12,15,-3
-9,3,12,2,-10,7,-13,-15,-5,-10,17,-2
-8,5,14,1,-11,9,-13,-16,-4,-7,19,0
-8,7,15,0,-12,11,-14,-16,-3,-5,21,0
-8,8,16,0,-12,12,-14,-16,-2,-4,21,1
-6,10,16,-1,-11,13,-15,-16,-2,-5,20,0
-6,10,16,-1,-10,13,-15,-16,-1,-5,19,0
-7,8,16,-1,-10,12,-15,-16,-1,-4,18,0
-7,7,15,0,-10,11,-15,-15,0,-3,19,1
-7,6,13,0,-9,10,-14,-15,1,0,21,2
-7,5,13,0,-9,10,-14,-14,3,1,22,2
-7,5,13,1,-10,10,-14,-14,4,4,23,3
-7,6,13,0,-9,10,-14,-13,6,6,24,3
-5,6,12,0,-8,10,-14,-13,8,8,25,4
-5,7,12,-1,-8,10,-15,-12,9,11,26,4
-5,8,13,-1,-9,11,-15,-11,10,15,28,5
-5,8,14,-2,-9,12,-15,-11,10,16,28,5
-6,8,15,-2,-9,12,-15,-11,10,14,27,4
-7,8,15,-1,-10,12,-14,-10,11,13,25,3
-7,8,15,0,-10,12,-13,-9,12,12,24,1
-7,7,14,0,-10,10,-12,-8,12,11,23,0
-7,5,12,0,-9,8,-11,-8,12,11,22,0
-7,3,10,1,-8,7,-11,-7,12,10,21,-1
-8,1,9,2,-8,5,-11,-7,12,10,20,-1
-9,-1,8,4,-8,4,-10,-7,11,9,20,-2
-9,-2,7,5,-8,3,-10,-6,11,9,19,-2
-8,-2,6,5,-7,3,-9,-6,11,9,20,-3
-7,-1,5,4,-6,3,-9,-5,11,10,20,-3
-6,0,5,3,-6,3,-10,-6,10,10,21,-3
-7,0,6,3,-7,3,-10,-6,9,11,21,-4
-7,0,7,2,-7,4,-10,-6,8,10,21,-5
-8,0,8,3,-7,4,-9,-6,7,9,21,-5
-9,-1,8,4,-7,3,-9,-6,7,8,20,-6
-10,-2,8,6,-8,3,-9,-6,6,7,19,-8
-12,-4,7,8,-8,2,-9,-6,5,5,17,-9
-11,-5,6,8,-7,1,-8,-5,5,4,16,-9
-9,-3,5,6,-6,1,-6,-4,6,3,16,-9
-8,-3,4,6,-6,0,-4,-3,5,2,16,-8
-9,-5,3,7,-6,-1,-4,-3,5,1,15,-8
-9,-6,2,7,-5,-2,-3,-3,4,0,15,-8
-8,-7,1,7,-4,-3,-4,-3,4,0,15,-7
-8,-8,0,8,-3,-3,-5,-4,3,1,16,-7
-8,-7,1,8,-3,-3,-5,-4,3,2,17,-6
-8,-6,2,7,-4,-2,-5,-4,2,4,19,-6
-8,-5,3,7,-5,-1,-5,-4,2,6,21,-5
-8,-4,4,6,-6,0,-5,-5,1,5,21,-6
-9,-3,5,6,-6,0,-5,-5,1,3,19,-7
-9,-3,5,5,-6,0,-4,-4,0,1,17,-9
-8,-4,4,5,-5,0,-2,-3,1,0,15,-10
-8,-4,3,6,-5,0,-2,-3,1,0,15,-10
-9,-5,3,7,-5,-1,-2,-2,1,0,15,-11
-9,-7,1,8,-4,-2,-2,-2,1,0,15,-11
-9,-8,0,9,-4,-4,-2,-2,1,0,15,-11
-9,-9,0,9,-4,-5,-2,-2,0,0,15,-11
-9,-10,-1,9,-3,-6,-3,-2,0,0,15,-11
-9,-10,-1,10,-3,-7,-3,-2,0,2,16,-10
-10,-11,-1,10,-4,-6,-3,-2,0,4,17,-10
-10,-9,0,9,-4,-5,-3,-2,0,5,18,-9
-10,-7,1,8,-4,-3,-2,-2,0,5,19,-8
-9,-6,3,7,-5,-1,-2,-2,0,5,19,-8
-9,-5,3,7,-5,-1,-2,-1,0,3,18,-9
-9,-6,3,7,-5,-1,-3,-1,0,2,16,-11
-9,-6,2,8,-5,-2,-2,-1,0,1,15,-12
-9,-6,3,8,-5,-2,-1,0,0,1,15,-13
-10,-6,2,8,-5,-2,0,0,0,1,15,-14
-10,-8,1,9,-5,-3,0,0,0,0,15,-14
-9,-9,0,9,-4,-4,0,0,0,0,14,-15
-8,-10,-1,9,-3,-5,0,0,0,0,14,-15
-8,-10,-2,9,-2,-6,0,0,0,0,14,-15
-8,-10,-2,9,-3,-6,0,0,0,0,15,-15
-8,-10,-2,9,-3,-6,0,0,0,1,15,-14
-7,-10,-2,9,-3,-5,0,0,0,2,16,-13
-7,-9,-1,8,-3,-4,0,0,0,4,18,-12
-8,-7,1,7,-4,-3,0,0,0,6,19,-11
-8,-6,2,6,-4,-2,0,0,0,6,19,-10
-9,-6,3,7,-5,-1,-1,0,0,6,17,-10
-10,-6,3,8,-5,-1,-1,0,0,4,15,-11
-10,-7,2,8,-5,-2,0,0,0,2,14,-10
-10,-8,1,9,-5,-3,0,0,0,1,13,-10
-10,-9,1,9,-5,-4,1,0,0,0,13,-9
-10,-10,0,9,-5,-5,1,0,0,0,12,-10
-10,-10,0,9,-4,-5,1,0,0,0,12,-10
-9,-10,-1,9,-4,-5,1,0,0,0,12,-10
-9,-10,-1,9,-3,-5,1,0,0,1,12,-10
-8,-9,-1,8,-3,-5,0,-1,0,2,13,-10
-8,-8,0,8,-3,-4,0,-1,0,3,13,-10
-7,-6,0,6,-3,-3,0,-1,0,5,14,-9
-6,-5,0,6,-3,-2,-1,-1,0,6,15,-9
-7,-5,1,6,-4,-1,-1,-2,0,6,15,-10
-7,-3,3,5,-4,0,-1,-2,0,5,15,-10
-6,-3,3,4,-4,0,-2,-2,0,5,14,-11
-7,-4,3,5,-4,0,-3,-3,0,3,12,-12
-9,-6,3,7,-4,-2,-3,-3,0,1,11,-13
-9,-7,2,8,-4,-2,-2,-3,0,1,11,-13
-9,-7,2,8,-4,-3,-1,-2,1,2,11,-14
-9,-8,1,8,-3,-3,-1,-2,1,1,11,-15
-8,-8,0,8,-3,-4,-1,-2,1,1,11,-15
-9,-9,0,8,-3,-5,-1,-2,1,1,12,-14
-11,-9,0,9,-5,-5,-1,-2,1,2,13,-13
-10,-10,0,10,-4,-6,-1,-2,1,3,14,-13
-8,-8,0,8,-3,-5,-2,-3,0,6,17,-12
-6,-6,0,6,-2,-3,-3,-3,0,8,18,-11
-6,-4,2,5,-3,-2,-3,-3,0,8,18,-11
-7,-5,2,6,-4,-1,-3,-3,0,6,15,-11
-8,-6,2,8,-5,-2,-3,-2,0,4,14,-11
-10,-7,3,8,-6,-2,-3,-2,1,5,15,-11
-10,-6,4,8,-6,-1,-3,-1,1,7,18,-10
-9,-4,4,6,-6,0,-4,-1,1,8,19,-9
-8,-3,4,5,-5,0,-3,-1,1,7,18,-9
-8,-4,5,6,-5,0,-3,-1,1,5,16,-10
-10,-5,5,7,-5,0,-2,-1,0,4,15,-11
-10,-7,4,8,-6,-2,-2,0,0,3,14,-10
-10,-8,2,9,-5,-3,-1,0,0,3,14,-8
-10,-9,1,9,-5,-4,-1,0,0,3,15,-7
-9,-9,0,9,-4,-5,-1,0,0,3,16,-5
-8,-9,0,8,-3,-5,-1,0,0,4,17,-4
-8,-9,-1,8,-3,-5,-1,0,0,5,18,-4
-8,-9,0,8,-3,-5,-3,0,0,7,20,-3
-8,-7,0,7,-3,-3,-3,0,0,8,21,-3
-7,-5,1,5,-3,-1,-4,0,0,8,22,-3
-7,-3,3,5,-4,0,-4,0,0,8,22,-2
-9,-3,4,5,-5,0,-4,0,0,8,22,-2
-10,-4,4,6,-6,0,-4,-1,-1,7,21,-2
-11,-5,4,7,-6,0,-4,-1,-1,4,19,-2
-10,-5,4,7,-6,-1,-3,0,-1,3,19,-2
-9,-6,3,7,-5,-1,-2,1,-1,3,19,-1
-10,-8,2,8,-5,-2,-2,0,-1,4,19,0
-11,-9,1,10,-5,-3,-2,0,-1,4,19,0
-11,-9,1,10,-5,-4,-1,0,-2,4,19,0
-10,-9,0,9,-4,-4,-1,0,-2,4,19,0
-10,-8,0,9,-4,-4,-1,-1,-2,4,19,1
-10,-8,0,8,-4,-4,-1,-1,-2,4,18,1
-10,-8,1,8,-4,-4,-2,-1,-2,4,18,1
-10,-8,1,8,-5,-3,-3,-1,-3,5,19,1
-10,-7,3,8,-5,-2,-4,-1,-3,7,20,1
-10,-5,4,7,-6,0,-4,-2,-3,9,20,2
-9,-3,6,6,-6,1,-4,-2,-3,9,20,2
-10,-3,6,6,-6,1,-4,-1,-3,7,19,0
-10,-3,7,6,-7,1,-4,-1,-3,6,18,-1
-11,-3,7,7,-7,0,-3,-1,-3,4,18,-2
-11,-4,6,7,-7,0,-2,-1,-3,3,18,-1
-11,-6,5,7,-7,-1,-3,-1,-3,2,17,-1
-10,-7,3,8,-6,-2,-3,-1,-2,2,17,0
-10,-8,2,9,-6,-3,-2,-1,-2,1,16,0
-10,-9,1,9,-5,-4,-1,-1,-3,1,15,0
-10,-9,0,10,-5,-5,-1,-1,-3,0,14,0
-10,-9,0,9,-4,-5,-1,-2,-3,0,14,0
-9,-8,0,8,-4,-5,-2,-2,-3,1,14,1
-8,-8,0,8,-3,-4,-2,-2,-3,3,16,1
-8,-7,1,7,-4,-4,-3,-2,-3,6,17,2
-9,-7,2,7,-4,-3,-4,-3,-4,8,18,2
-9,-6,4,7,-6,-1,-4,-3,-4,8,18,1
-10,-4,5,7,-7,0,-5,-3,-4,6,17,0
-9,-3,6,6,-7,1,-5,-3,-4,4,15,-1
-9,-2,7,5,-7,1,-4,-2,-4,3,14,-1
-10,-3,7,6,-7,1,-4,-3,-4,2,13,-2
-11,-4,6,7,-8,0,-5,-3,-4,2,12,-2
-11,-4,6,7,-7,0,-5,-2,-4,2,12,-1
-11,-6,5,8,-7,0,-4,-2,-4,1,11,-1
-11,-7,3,9,-7,-1,-3,-2,-4,1,11,-1
-10,-8,2,9,-6,-2,-2,-1,-4,1,11,-1
-10,-8,0,9,-5,-3,-2,0,-3,1,12,0
-9,-8,0,9,-4,-4,-2,0,-3,1,12,0
-9,-8,0,8,-4,-4,-2,-1,-3,3,13,0
-9,-7,1,8,-4,-3,-3,-1,-3,5,14,0
-9,-5,2,7,-4,-2,-3,-1,-3,5,15,0
-8,-4,2,6,-4,-1,-4,-1,-3,6,15,0
-8,-3,4,5,-5,0,-4,-1,-3,7,16,0
-8,-3,5,5,-6,1,-4,0,-2,8,17,0
-9,-2,6,6,-7,1,-3,0,-1,7,16,0
-9,-1,7,5,-7,2,-3,0,-1,6,15,0
-8,0,7,4,-7,2,-3,0,0,6,15,0
-7,0,7,4,-6,3,-4,0,0,7,16,0
-7,1,7,4,-6,3,-3,0,0,7,16,1
-8,0,7,5,-6,2,-2,0,0,5,15,2
-8,-1,6,5,-6,2,-2,0,0,3,14,2
-8,-1,5,5,-5,1,-2,0,0,3,14,3
-7,-2,4,5,-4,0,-2,0,0,4,14,4
-7,-3,3,5,-5,0,-3,0,0,5,15,5
-8,-4,3,6,-5,0,-3,0,0,6,16,6
-8,-5,3,6,-5,-1,-4,0,0,7,16,6
-8,-5,3,6,-5,-1,-4,0,0,7,17,6
-8,-4,3,6,-4,-1,-5,-1,0,8,18,6
-7,-3,3,5,-4,-1,-6,-1,0,10,18,6
-5,-2,3,3,-3,0,-7,-2,0,9,18,6
-4,-1,3,2,-3,1,-8,-2,-1,7,16,6
-4,0,4,2,-4,1,-8,-3,-2,5,16,5
-4,0,4,2,-4,1,-8,-3,-3,5,16,4
-5,-1,3,3,-4,0,-8,-3,-3,5,16,3
-5,-3,3,4,-4,0,-8,-3,-4,5,15,3
-5,-3,2,4,-3,-1,-7,-3,-4,4,14,3
-4,-4,1,4,-2,-2,-7,-3,-4,3,13,3
-4,-5,0,4,-2,-2,-6,-3,-4,2,12,4
-5,-6,0,6,-2,-3,-5,-3,-3,2,12,3
-6,-6,0,6,-2,-3,-5,-3,-3,2,12,3
-5,-5,-1,5,-1,-3,-6,-3,-2,2,12,2
-3,-4,-1,4,0,-3,-6,-3,-2,2,12,2
-3,-4,-1,4,0,-3,-6,-2,-1,2,11,2
-3,-4,-1,4,0,-4,-5,-2,-1,2,11,1
-4,-7,-3,6,0,-6,-5,-2,-2,2,12,1
-5,-9,-3,7,0,-7,-5,-2,-2,3,12,0
-6,-9,-3,7,0,-6,-5,-2,-3,4,12,-1
-6,-8,-2,7,-1,-5,-5,-2,-3,3,12,-2
-6,-7,-1,6,-1,-4,-5,-2,-4,1,11,-2
-6,-7,-1,6,-1,-4,-5,-3,-4,1,11,-2
-7,-8,0,7,-2,-4,-4,-3,-4,1,11,-2
-8,-8,0,8,-3,-4,-4,-3,-4,0,10,-3
-9,-9,0,8,-3,-5,-4,-3,-4,-1,10,-4
-9,-9,0,9,-3,-5,-4,-3,-4,0,10,-4
-9,-9,0,9,-3,-5,-4,-3,-4,-1,10,-4
-9,-9,0,9,-3,-5,-3,-3,-4,-2,10,-3
-9,-10,0,9,-3,-6,-3,-3,-4,-1,10,-2
-10,-11,-1,10,-3,-6,-4,-3,-4,0,11,-1
-9,-11,-1,10,-3,-6,-5,-3,-4,1,12,-1
-8,-10,-1,9,-2,-6,-5,-2,-4,0,12,-1
-8,-9,0,8,-2,-5,-5,-3,-4,1,12,0
-8,-8,0,8,-2,-4,-5,-3,-4,2,13,0
-9,-8,0,8,-3,-4,-5,-3,-4,2,13,0
-9,-9,0,9,-3,-4,-5,-3,-4,0,12,0
-10,-8,1,9,-4,-4,-4,-3,-4,-2,11,-1
-10,-8,1,9,-4,-4,-4,-3,-4,-3,10,-2
-10,-9,1,9,-4,-4,-4,-2,-4,-2,10,-2
-9,-9,1,9,-4,-4,-4,-2,-3,-1,10,-1
-9,-8,1,8,-4,-4,-4,-2,-3,0,11,-1
-8,-8,1,8,-4,-4,-4,-2,-3,0,10,-1
-8,-8,0,8,-3,-5,-4,-2,-3,-1,10,-1
-8,-9,0,9,-3,-5,-4,-2,-3,-1,10,-2
-8,-10,-1,9,-2,-6,-4,-2,-3,-1,10,-2
-8,-9,-1,9,-2,-6,-4,-1,-3,0,11,-2
-9,-9,0,9,-3,-5,-4,-1,-2,3,13,-2
-10,-9,1,10,-5,-5,-4,-2,-2,6,15,-2
-10,-8,2,9,-5,-4,-4,-2,-2,5,15,-2
-9,-7,2,8,-5,-3,-4,-2,-2,3,14,-3
-9,-6,3,8,-5,-2,-4,-2,-2,0,12,-3
-10,-7,3,9,-6,-2,-5,-2,-2,-1,11,-4
-11,-8,2,10,-6,-3,-5,-2,-2,-1,11,-5
-11,-9,2,10,-5,-4,-5,-2,-2,-1,11,-5
-10,-8,2,9,-5,-3,-4,-1,-1,-1,10,-5
-10,-7,2,8,-5,-3,-3,-1,-1,-2,9,-5
-9,-7,2,8,-5,-2,-4,-1,-1,-2,9,-4
-9,-7,1,8,-4,-3,-4,-1,-1,-2,9,-4
-9,-8,0,8,-4,-3,-3,-1,-1,-2,10,-4
-9,-8,0,8,-4,-4,-4,-1,-1,-1,10,-4
-9,-8,0,8,-4,-4,-5,-2,-1,0,10,-4
-9,-7,0,8,-4,-3,-6,-2,-1,1,10,-4
-9,-8,1,9,-4,-3,-6,-2,-1,2,10,-5
-10,-9,1,10,-5,-4,-6,-2,-1,2,10,-5
-11,-10,1,11,-5,-5,-6,-2,-1,1,9,-6
-12,-11,1,11,-5,-5,-6,-2,-1,0,8,-7
-11,-9,2,10,-6,-4,-5,-1,-1,0,8,-7
-10,-8,3,9,-6,-3,-5,-1,0,0,8,-7
-9,-7,2,8,-5,-2,-4,0,0,0,9,-6
-8,-6,2,7,-5,-2,-4,0,0,0,9,-6
-8,-6,2,6,-4,-2,-4,0,0,0,8,-7
-8,-6,2,7,-4,-2,-4,0,0,-1,8,-7
-9,-6,2,8,-5,-2,-5,-1,0,0,9,-7
-10,-6,3,8,-5,-2,-5,-2,0,0,10,-7
-10,-5,4,7,-6,0,-6,-3,0,0,11,-7
-10,-3,6,6,-7,1,-6,-4,0,1,12,-6
-11,-1,9,5,-9,3,-7,-5,0,2,13,-4
-12,1,13,5,-11,6,-7,-5,0,5,16,-2
-12,3,16,4,-13,9,-7,-5,1,8,19,0
-12,5,19,3,-14,11,-6,-5,3,12,23,2
-12,6,19,3,-15,13,-6,-4,6,16,27,4
-12,7,19,2,-14,13,-5,-2,9,22,33,6
-11,7,18,2,-13,12,-5,0,15,33,40,9
-10,7,17,1,-12,12,-5,3,23,48,50,13
-7,8,16,-1,-11,12,-6,6,31,66,63,19
-3,11,16,-4,-9,13,-8,7,41,88,78,26
2,16,15,-9,-6,15,-10,8,51,111,94,35
8,22,15,-15,-3,17,-13,9,61,136,111,43
12,26,14,-19,0,19,-17,10,71,158,126,50
16,26,11,-21,3,18,-20,11,80,172,133,53
18,23,5,-21,7,14,-22,13,86,174,131,52
20,18,-2,-20,12,8,-22,15,90,170,123,47
22,11,-11,-17,18,0,-21,19,96,163,111,41
23,2,-20,-13,23,-9,-18,25,103,155,96,33
23,-6,-29,-9,27,-18,-13,32,110,144,80,23
24,-14,-36,-5,30,-25,-8,38,116,130,63,12
23,-20,-42,-1,33,-32,-3,43,117,113,45,0
21,-26,-46,3,34,-37,2,44,111,90,26,-10
17,-32,-49,8,34,-42,6,42,96,63,8,-20
12,-39,-52,13,34,-46,8,36,71,30,-11,-30
8,-45,-54,18,33,-50,10,29,41,-3,-30,-39
4,-49,-54,22,31,-53,11,20,10,-34,-46,-46
1,-52,-53,25,28,-53,10,10,-18,-61,-58,-52
-2,-53,-49,27,24,-52,9,1,-43,-82,-67,-55
-6,-53,-45,29,20,-50,9,-6,-61,-96,-72,-58
-10,-54,-42,31,16,-48,11,-13,-74,-105,-76,-60
-14,-53,-38,33,12,-46,11,-18,-84,-111,-78,-62
-18,-50,-33,33,8,-42,10,-24,-92,-114,-78,-63
-21,-48,-27,34,4,-37,11,-27,-96,-113,-77,-63
-25,-45,-21,34,0,-33,11,-29,-96,-110,-75,-63
-27,-43,-15,35,-5,-29,11,-30,-95,-106,-73,-62
-28,-40,-10,34,-8,-25,11,-31,-94,-103,-70,-61
-28,-37,-7,32,-10,-23,11,-32,-91,-99,-67,-58
-28,-35,-6,31,-11,-21,9,-33,-88,-95,-64,-55
-28,-34,-5,31,-11,-20,8,-33,-85,-91,-60,-52
-29,-32,-3,30,-12,-19,6,-34,-82,-86,-56,-49
-29,-31,-2,30,-12,-17,4,-35,-80,-81,-51,-46
-29,-29,-1,29,-12,-15,2,-36,-78,-76,-47,-43
-28,-28,0,28,-12,-14,0,-36,-75,-72,-44,-41
-26,-27,0,26,-12,-13,0,-34,-70,-67,-40,-39
-24,-25,0,24,-12,-12,0,-32,-64,-60,-36,-36
-23,-22,1,23,-12,-11,-1,-29,-57,-54,-31,-33
-22,-19,2,21,-12,-9,-2,-26,-50,-48,-27,-30
-21,-17,3,19,-12,-7,-2,-24,-43,-42,-24,-28
-21,-15,4,18,-12,-6,-3,-22,-37,-37,-21,-26
-20,-14,5,17,-12,-5,-3,-19,-32,-31,-17,-23
-19,-12,6,15,-12,-4,-3,-17,-27,-26,-13,-20
-17,-11,6,14,-11,-3,-3,-16,-23,-22,-11,-18
-15,-10,6,13,-11,-2,-3,-14,-19,-20,-10,-16
-14,-9,6,12,-11,-2,-2,-13,-16,-19,-9,-15
-14,-8,6,11,-10,-1,-2,-12,-13,-17,-8,-14
-13,-7,7,10,-10,0,-3,-11,-10,-15,-7,-13
-13,-6,7,10,-9,0,-3,-10,-8,-14,-7,-12
-13,-6,7,10,-9,0,-2,-9,-6,-13,-7,-12
-12,-6,7,9,-8,0,-1,-7,-5,-11,-6,-11
-11,-6,6,9,-8,-1,-1,-6,-4,-10,-6,-10
-9,-5,5,8,-7,-1,0,-5,-3,-9,-5,-10
-8,-5,5,7,-6,-1,0,-5,-3,-8,-4,-10
-9,-6,5,8,-6,-1,0,-4,-2,-7,-3,-10
-10,-6,5,8,-6,-1,-1,-4,-1,-7,-3,-11
-10,-5,5,8,-6,0,-1,-4,0,-6,-2,-11
-10,-5,5,8,-6,0,-1,-3,0,-6,-2,-12
-10,-5,5,8,-6,0,-1,-3,0,-5,-2,-12
-10,-6,5,8,-6,-1,0,-2,0,-5,-1,-12
-11,-6,5,8,-7,-1,0,-2,0,-4,-1,-12
-11,-7,5,9,-7,-1,0,-1,0,-4,-1,-12
-11,-7,4,9,-7,-1,0,-1,0,-3,-1,-12
-11,-7,4,9,-7,-1,0,-1,0,-3,-1,-12
-11,-7,5,9,-7,-1,0,-1,0,-3,0,-11
-12,-6,5,9,-8,-1,1,0,1,-2,0,-9
-11,-6,5,8,-7,0,1,0,1,-1,1,-8
-10,-6,5,8,-7,-1,0,-1,1,-1,1,-7
-10,-6,4,8,-6,-1,0,-1,1,-2,0,-7
-10,-7,4,8,-6,-2,-1,-1,0,-3,0,-7
-9,-6,4,8,-6,-2,0,-1,0,-3,0,-6
-8,-5,4,7,-5,-1,0,0,1,-3,0,-5
-8,-4,4,6,-5,0,0,0,1,-3,0,-4
-7,-3,4,5,-5,0,0,0,1,-3,-1,-4
-7,-3,4,5,-5,0,0,0,1,-3,-1,-4
-8,-4,4,5,-5,0,0,-1,1,-3,-2,-4
-8,-4,4,5,-5,0,-1,-1,0,-3,-2,-4
-7,-4,4,5,-5,0,-1,-1,0,-3,-2,-4
-7,-4,4,5,-5,0,-1,-1,0,-3,-2,-4
-7,-4,4,5,-5,0,0,-2,1,-3,-2,-5
-7,-4,4,5,-5,0,0,-2,1,-3,-3,-5
-7,-4,4,6,-5,0,-1,-2,0,-3,-3,-6
-7,-5,3,6,-5,-1,-2,-3,0,-3,-4,-6
-8,-5,3,7,-5,-1,-3,-3,0,-4,-4,-7
-8,-6,3,7,-6,-1,-3,-3,0,-4,-4,-7
-8,-5,3,6,-5,-1,-3,-2,0,-4,-4,-7
-7,-5,3,6,-5,0,-3,-2,0,-4,-4,-7
-7,-5,3,6,-5,0,-3,-2,0,-4,-4,-7
-7,-4,3,6,-5,0,-2,-1,0,-4,-4,-7
-6,-4,3,5,-4,0,-1,-1,1,-4,-4,-7
-6,-4,3,5,-4,0,-2,0,1,-4,-4,-7
-6,-4,3,5,-4,0,-3,0,1,-4,-4,-8
-6,-4,3,5,-4,-1,-2,0,1,-4,-4,-8
-7,-5,3,5,-4,-1,-1,0,1,-4,-5,-9
-7,-6,2,6,-4,-2,-2,-1,0,-4,-5,-10
-7,-6,2,6,-5,-2,-3,-1,0,-4,-5,-10
-7,-6,3,6,-5,-1,-3,-1,0,-4,-5,-11
-7,-5,3,6,-5,0,-3,-1,0,-5,-6,-12
-7,-5,3,6,-5,0,-3,-1,0,-5,-6,-12
-7,-5,3,6,-5,0,-3,-1,0,-5,-7,-13
-7,-5,3,6,-5,0,-3,-1,0,-5,-7,-13
-8,-6,3,7,-5,-1,-3,-1,0,-5,-7,-14
-8,-6,3,7,-5,-1,-3,-1,0,-6,-7,-15
-7,-6,3,6,-5,-1,-2,-1,0,-6,-8,-15
-6,-5,3,6,-4,-1,-1,-1,0,-7,-8,-16
-6,-4,3,5,-4,0,-1,-1,0,-7,-9,-16
-6,-4,3,5,-5,0,-1,-1,0,-8,-9,-17
-7,-4,3,6,-5,0,-2,-1,0,-8,-10,-17
-7,-4,3,6,-5,0,-2,-1,-1,-8,-11,-18
-7,-4,3,6,-5,0,-2,-2,-1,-8,-11,-19
-7,-5,3,6,-5,0,-2,-2,-1,-9,-12,-19
-7,-5,3,6,-5,0,-2,-2,-2,-9,-13,-20
-7,-5,4,6,-6,0,-2,-3,-2,-9,-14,-21
-7,-5,4,6,-6,0,-3,-3,-2,-10,-14,-21
-7,-4,4,6,-5,0,-3,-3,-2,-10,-15,-21
-5,-3,4,4,-5,1,-4,-3,-2,-10,-15,-21
-5,-2,4,3,-4,1,-4,-3,-2,-10,-16,-22
-5,-2,4,3,-4,1,-4,-4,-3,-10,-17,-22
-5,-2,4,3,-4,2,-4,-4,-3,-10,-18,-22
-5,-1,4,3,-4,2,-5,-4,-3,-11,-18,-22
-6,-1,5,3,-5,2,-6,-4,-3,-11,-19,-22
-7,-2,5,5,-6,2,-7,-5,-3,-12,-20,-22
-7,-3,4,5,-6,1,-7,-5,-3,-12,-21,-22
-6,-2,4,4,-5,2,-8,-5,-3,-12,-22,-21
-5,-1,5,3,-5,3,-8,-5,-4,-12,-22,-20
-5,-1,5,3,-6,3,-9,-6,-4,-12,-23,-20
-6,-2,5,4,-6,2,-10,-6,-5,-12,-23,-19
-6,-2,6,4,-6,3,-11,-7,-5,-13,-24,-18
-6,-1,6,4,-6,3,-12,-7,-5,-13,-25,-17
-6,0,6,3,-6,4,-13,-7,-5,-13,-25,-16
-5,0,7,2,-7,5,-13,-7,-5,-13,-26,-15
-6,1,8,2,-8,6,-14,-8,-5,-12,-26,-14
-6,2,9,2,-8,6,-16,-8,-5,-12,-26,-12
-6,2,9,1,-8,7,-17,-9,-5,-11,-27,-11
-4,3,9,0,-7,7,-18,-10,-5,-11,-27,-10
-4,4,9,0,-7,7,-19,-10,-5,-10,-27,-8
-4,5,10,0,-7,7,-19,-10,-5,-9,-27,-6
-4,5,10,-1,-7,7,-19,-10,-5,-9,-27,-4
-4,5,10,-1,-7,8,-20,-10,-5,-8,-28,-3
-4,6,11,-1,-7,8,-20,-10,-5,-8,-28,-1
-3,7,11,-1,-7,9,-21,-11,-6,-7,-28,1
-3,8,11,-2,-7,10,-21,-11,-6,-7,-28,3
-2,9,11,-3,-7,10,-21,-11,-5,-6,-28,6
-2,10,12,-4,-7,11,-21,-12,-5,-4,-27,8
-1,11,12,-4,-7,12,-21,-12,-4,-2,-27,11
-1,11,13,-5,-7,12,-21,-12,-3,0,-26,14
0,12,13,-6,-7,13,-22,-12,-3,1,-25,16
0,12,13,-6,-7,13,-23,-11,-2,2,-25,18
0,12,13,-6,-7,13,-23,-11,-1,4,-24,21
0,13,13,-7,-7,13,-23,-10,0,6,-23,23
0,14,13,-7,-7,14,-23,-10,1,8,-22,25
1,14,13,-7,-7,14,-23,-9,2,10,-21,27
1,14,13,-7,-6,14,-23,-9,3,12,-20,30
2,15,13,-8,-6,15,-23,-8,4,14,-19,32
3,15,13,-9,-5,15,-22,-7,5,16,-18,33
3,15,13,-9,-5,15,-22,-5,6,17,-18,35
3,15,13,-9,-5,14,-21,-4,7,18,-17,36
4,15,12,-9,-5,14,-20,-3,8,19,-17,37
4,15,12,-9,-5,14,-19,-2,9,20,-17,38
3,14,12,-8,-5,13,-19,-1,10,21,-17,39
3,14,11,-8,-5,13,-18,0,11,22,-17,39
3,13,11,-8,-5,13,-17,1,11,23,-17,40
3,12,11,-7,-5,12,-17,2,12,23,-17,40
2,11,10,-7,-5,11,-16,2,12,23,-17,40
2,10,10,-7,-5,11,-15,3,12,23,-17,40
2,10,9,-6,-4,10,-14,4,12,23,-17,40
2,9,8,-6,-4,9,-14,5,12,22,-18,40
2,9,7,-6,-3,9,-13,6,12,22,-18,40
3,10,7,-6,-2,9,-12,6,12,22,-19,40
2,9,7,-6,-2,8,-11,7,11,22,-19,39
2,8,6,-5,-2,8,-11,7,11,21,-20,38
2,7,6,-5,-2,7,-10,8,10,20,-20,37
1,6,5,-4,-2,7,-10,8,10,20,-20,36
1,5,5,-3,-2,6,-10,9,9,19,-20,35
1,5,4,-3,-1,5,-10,9,9,18,-21,34
2,5,3,-3,-1,4,-9,9,8,18,-21,34
2,5,3,-3,-1,4,-9,10,8,17,-21,33
2,5,3,-3,-1,4,-8,10,7,17,-21,32
2,4,2,-3,-1,4,-8,10,7,16,-21,31
2,3,2,-3,-1,3,-7,10,6,15,-21,30
2,2,1,-2,0,2,-6,10,6,15,-21,29
2,2,1,-2,0,2,-6,11,6,14,-21,27
1,1,0,-2,0,1,-6,11,5,14,-21,26
1,0,0,-1,0,1,-6,11,5,13,-22,25
1,0,0,-1,0,0,-6,11,4,13,-22,24
2,1,-1,-2,1,0,-6,11,4,12,-22,24
2,1,-1,-2,1,0,-5,11,4,12,-22,23
2,0,-1,-1,1,0,-5,11,3,11,-21,21
2,0,-1,-1,1,0,-5,11,3,10,-21,20
3,0,-1,-2,2,0,-5,11,3,9,-21,19
4,1,-1,-3,2,0,-5,11,2,9,-21,18
3,0,-2,-2,2,0,-5,11,2,8,-21,17
2,0,-2,-1,2,0,-5,11,1,8,-21,16
3,0,-2,-1,2,0,-5,11,1,8,-21,15
3,0,-2,-1,2,0,-5,11,1,8,-21,14
2,-1,-2,-1,2,-1,-5,10,1,7,-21,12
1,-1,-3,0,1,-1,-5,10,1,6,-21,11
2,-1,-3,-1,1,-1,-5,10,1,5,-21,9
2,-1,-3,-2,2,-1,-5,11,1,5,-20,8
3,0,-3,-2,2,-1,-5,12,1,4,-20,7
3,0,-3,-1,2,-1,-5,12,1,4,-20,6
3,-1,-3,-1,2,-1,-6,12,1,4,-20,5
3,-1,-4,-1,3,-1,-6,12,1,4,-20,4
4,0,-4,-2,3,-1,-5,13,2,4,-19,4
4,0,-4,-2,3,-1,-5,13,1,4,-18,3
4,0,-4,-2,3,-1,-5,13,0,3,-18,2
3,-1,-4,-2,3,-1,-5,13,0,2,-18,1
4,0,-3,-2,3,-1,-4,13,0,2,-18,0
4,0,-3,-2,3,-1,-4,13,0,2,-18,0
3,0,-3,-2,3,-1,-4,13,0,2,-17,0
3,0,-3,-1,3,-1,-4,12,0,2,-17,0
4,0,-3,-2,4,-1,-3,12,0,2,-16,0
5,0,-4,-3,4,-1,-2,13,0,3,-15,0
5,0,-4,-3,4,-1,-2,13,0,3,-15,0
5,0,-4,-3,4,-1,-2,13,0,3,-14,0
6,1,-4,-4,4,0,-2,13,0,3,-14,1
6,2,-4,-4,4,0,-2,13,0,3,-14,1
5,1,-4,-4,4,0,-2,12,0,3,-14,1
5,0,-4,-3,3,-1,-3,12,0,2,-14,1
5,0,-4,-3,3,-1,-3,12,0,2,-14,1
5,1,-4,-4,4,-1,-2,12,0,2,-13,1
6,1,-4,-4,4,0,-2,12,0,3,-13,1
6,1,-4,-4,4,0,-3,11,0,3,-13,0
5,1,-4,-4,4,0,-3,11,0,3,-13,0
6,1,-4,-4,4,0,-2,11,0,3,-13,0
7,2,-4,-5,5,0,-2,11,0,3,-13,0
8,3,-3,-6,5,1,-2,11,1,4,-13,0
8,4,-3,-7,6,1,-2,11,1,4,-12,0
8,4,-3,-7,6,1,-2,10,1,4,-12,0
7,3,-3,-6,5,0,-2,10,0,4,-12,0
8,3,-3,-6,6,0,-2,10,0,5,-12,0
9,4,-3,-7,6,1,-2,10,0,5,-12,0
10,5,-3,-8,6,2,-3,10,1,6,-12,0
9,5,-3,-7,6,2,-3,10,1,6,-12,-1
9,4,-3,-7,6,2,-3,9,1,6,-12,-1
8,4,-4,-6,6,1,-3,9,1,6,-12,-1
8,5,-4,-7,6,1,-3,9,2,6,-12,-1
9,5,-4,-7,6,1,-2,10,2,6,-11,-1
8,4,-3,-7,6,1,-2,10,2,6,-11,-1
8,4,-3,-7,6,1,-2,9,2,6,-11,-1
9,5,-3,-8,6,2,-2,9,2,7,-11,-1
11,7,-3,-10,7,2,-1,9,2,7,-10,-1
11,6,-3,-9,7,2,-1,9,2,7,-10,-1
10,6,-3,-8,6,2,-1,10,2,7,-10,-1
10,6,-3,-8,6,2,-1,10,3,8,-9,-1
11,7,-3,-9,7,3,-1,10,3,9,-9,0
11,7,-3,-10,7,3,-1,10,4,9,-8,0
11,7,-3,-9,7,2,0,10,4,9,-8,0
11,7,-3,-9,7,2,0,11,4,9,-8,0
11,7,-2,-9,6,3,0,11,4,9,-8,0
11,7,-2,-9,6,3,0,11,5,10,-7,0
11,7,-3,-9,7,3,0,11,5,10,-7,0
11,6,-3,-9,7,3,0,10,5,10,-7,0
10,6,-3,-8,7,2,-1,10,5,9,-7,0
9,5,-3,-8,6,1,-1,10,5,9,-7,0
9,5,-3,-8,6,1,0,10,5,9,-7,0
10,5,-3,-8,6,1,1,10,5,10,-7,0
10,6,-3,-8,6,1,1,10,5,10,-6,1
10,6,-3,-8,6,2,1,11,5,10,-6,2
10,6,-3,-8,6,2,1,11,5,10,-6,3
10,6,-3,-8,6,2,1,11,5,10,-6,3
11,7,-3,-9,7,2,1,11,6,11,-5,3
12,7,-3,-10,8,2,1,11,7,11,-5,3
11,7,-3,-9,8,2,1,11,7,11,-5,3
11,6,-3,-9,7,2,1,10,6,11,-5,2
11,6,-4,-9,7,1,2,10,6,11,-5,2
11,6,-4,-9,7,1,2,10,7,11,-4,2
11,6,-4,-9,7,1,2,10,7,11,-4,2
11,6,-4,-9,7,1,2,10,7,11,-4,2
10,5,-4,-8,7,1,2,10,7,10,-5,2
10,5,-4,-8,7,1,3,10,7,10,-5,2
10,5,-4,-8,7,1,3,9,7,10,-6,2
10,5,-4,-8,7,1,2,9,7,10,-6,2
10,5,-4,-8,8,1,2,9,7,10,-6,2
10,5,-4,-8,8,0,3,9,7,10,-6,2
10,5,-4,-8,8,1,4,9,7,10,-6,2
10,6,-4,-8,8,1,5,9,7,10,-6,2
10,6,-4,-8,8,1,4,9,7,10,-7,3
11,5,-5,-8,8,0,3,9,7,10,-7,3
11,6,-5,-8,9,0,3,9,7,10,-7,3
11,6,-4,-8,8,1,4,10,7,10,-7,4
11,6,-4,-8,8,1,4,10,7,10,-7,4
10,5,-4,-8,8,1,4,9,7,9,-7,4
10,5,-4,-8,8,1,4,9,6,9,-7,4
10,5,-4,-8,8,1,4,9,6,8,-7,4
10,5,-4,-8,8,1,4,9,6,8,-7,4
11,5,-4,-8,8,1,4,9,6,8,-8,4
11,5,-4,-8,8,1,4,9,5,8,-8,4
11,5,-4,-8,8,0,4,9,5,8,-8,4
11,5,-4,-8,8,0,4,9,5,8,-8,4
11,5,-4,-8,8,0,4,9,5,8,-8,4
11,5,-4,-8,8,0,4,9,5,7,-8,4
10,5,-4,-8,8,0,4,9,5,7,-8,3
10,5,-4,-8,8,0,4,9,5,7,-8,3
10,5,-4,-8,8,1,4,9,5,7,-8,3
10,5,-4,-8,8,1,4,9,4,7,-8,3
11,5,-4,-8,8,1,4,9,4,7,-8,3
11,5,-5,-8,8,1,4,8,4,7,-8,3
11,5,-5,-9,8,1,4,8,4,7,-8,3
11,5,-4,-9,8,1,4,8,4,7,-8,3
11,6,-4,-9,8,1,4,8,4,7,-8,3
11,6,-4,-9,8,1,4,8,4,7,-8,3
11,6,-4,-9,8,1,4,8,4,7,-9,3
11,6,-4,-9,8,1,4,8,4,7,-9,2
11,6,-4,-9,8,1,4,8,4,7,-10,2
11,6,-4,-9,8,1,4,7,4,6,-10,2
11,6,-4,-8,8,1,4,7,4,6,-10,2
10,6,-4,-8,8,1,4,7,4,6,-10,2
11,7,-4,-9,8,2,4,7,4,6,-10,2
13,9,-4,-10,9,2,4,7,5,7,-9,2
12,9,-3,-10,8,3,4,7,5,7,-9,2
11,9,-2,-10,7,3,4,7,6,8,-8,3
12,9,-2,-10,7,4,4,7,6,8,-8,3
12,10,-1,-11,7,4,4,7,7,8,-8,3
12,10,-1,-11,7,4,4,7,7,9,-8,3
13,10,-1,-11,7,5,4,7,8,9,-7,4
14,12,-1,-13,8,5,4,7,8,10,-6,4
15,13,-1,-14,9,6,4,7,9,10,-6,5
15,13,-1,-13,9,6,3,6,9,10,-6,5
14,12,-1,-13,9,5,3,6,9,10,-6,5
14,11,-1,-12,9,5,4,6,9,10,-6,5
14,11,-2,-12,9,6,4,7,10,11,-5,5
15,12,-2,-13,9,6,4,7,10,11,-5,5
15,11,-2,-13,8,6,4,7,10,11,-5,5
14,10,-2,-12,8,5,4,6,9,11,-5,5
14,9,-3,-11,9,4,2,5,8,10,-5,5
15,9,-4,-11,9,3,1,5,7,10,-5,5
15,9,-5,-11,10,3,1,4,7,10,-5,5
14,8,-5,-11,10,2,0,4,6,10,-5,5
15,9,-5,-11,10,2,0,3,6,9,-5,5
16,9,-5,-12,11,2,0,3,5,9,-5,5
16,9,-6,-12,12,2,0,2,5,9,-5,5
16,9,-6,-12,12,1,0,2,5,9,-5,5
16,8,-7,-12,12,1,0,2,5,9,-4,5
16,8,-7,-12,12,1,-1,2,5,9,-4,5
16,8,-8,-12,12,1,-1,2,5,8,-4,5
16,8,-8,-12,12,1,0,2,5,8,-4,5
17,8,-8,-12,12,1,0,3,5,8,-4,5
16,8,-8,-12,12,1,1,3,5,8,-4,4
16,8,-8,-11,12,1,1,3,5,8,-4,4
15,7,-8,-11,12,0,1,3,6,8,-4,4
15,6,-8,-10,12,0,1,3,6,8,-3,4
15,6,-8,-10,12,0,1,3,7,8,-2,4
16,7,-8,-11,12,0,1,4,7,8,-2,4
15,6,-8,-10,12,0,1,4,7,8,-2,4
14,5,-8,-9,12,-1,1,3,6,7,-3,3
14,5,-8,-9,12,-1,2,3,5,7,-3,3
13,5,-8,-9,11,-1,2,2,4,6,-3,3
12,5,-7,-8,10,0,2,2,4,6,-3,3
12,5,-7,-8,10,0,2,2,3,6,-4,3
11,5,-6,-8,9,0,1,2,3,5,-4,3
11,4,-6,-7,9,0,1,2,4,5,-4,3
11,4,-6,-7,9,0,2,2,4,5,-4,3
11,5,-5,-7,9,0,3,2,5,5,-4,3
11,5,-5,-8,9,0,3,2,5,5,-4,4
11,5,-5,-8,9,0,3,2,5,5,-4,4
11,4,-5,-7,9,0,2,2,4,5,-5,4
11,4,-5,-7,9,0,2,2,4,5,-5,4
11,4,-5,-7,9,0,2,2,4,4,-5,4
11,4,-6,-7,9,0,2,2,4,4,-5,5
12,5,-6,-8,10,0,3,2,4,4,-5,5
12,5,-6,-9,10,0,3,2,4,4,-5,6
11,5,-6,-8,9,0,2,2,4,4,-5,6
10,5,-6,-8,9,0,2,2,4,4,-5,6
9,4,-6,-7,8,0,2,1,4,4,-5,6
9,3,-5,-6,8,0,2,1,4,3,-5,6
8,2,-5,-5,7,0,2,1,4,3,-6,6
8,1,-5,-5,7,-1,3,2,4,3,-6,6
8,2,-5,-5,7,-1,3,2,4,3,-6,6
8,3,-5,-5,7,0,4,2,4,3,-6,6
8,3,-5,-5,7,0,4,2,4,3,-6,6
9,4,-5,-6,8,0,4,3,4,4,-5,6
10,5,-5,-7,9,0,4,4,5,4,-4,6
9,4,-5,-6,8,0,4,4,5,4,-4,6
8,3,-5,-5,8,0,4,3,5,4,-5,5
10,5,-4,-7,8,1,5,3,5,4,-4,6
11,7,-4,-9,9,2,5,4,5,5,-4,6
12,7,-4,-9,9,2,6,4,5,5,-3,6
11,7,-4,-9,8,2,6,4,5,5,-3,6
10,6,-4,-8,8,1,5,4,5,4,-3,5
10,6,-4,-8,8,1,5,4,5,4,-3,4
10,6,-4,-8,8,2,5,4,5,4,-3,4
10,6,-4,-8,8,2,5,4,5,4,-3,4
10,6,-4,-8,8,2,5,4,5,4,-3,3
10,5,-4,-8,7,2,4,4,4,4,-3,3
9,4,-4,-7,7,1,4,3,4,3,-3,2
9,4,-4,-6,7,1,4,3,4,3,-3,1
10,5,-4,-7,7,1,4,4,4,4,-3,1
10,5,-4,-7,8,1,4,4,4,4,-3,1
9,4,-4,-7,7,1,4,4,4,4,-3,1
10,5,-4,-7,7,1,4,4,5,4,-3,1
10,6,-4,-8,8,1,4,4,6,4,-2,1
10,5,-4,-8,8,1,4,4,6,4,-2,1
9,5,-4,-7,8,1,4,4,5,3,-2,1
9,5,-4,-7,7,1,3,4,5,3,-2,1
8,5,-3,-7,7,1,3,4,5,3,-2,2
8,5,-3,-7,7,1,3,3,5,3,-3,2
8,4,-4,-6,7,1,3,3,5,3,-3,2
8,4,-4,-6,6,0,3,4,5,3,-2,2
7,4,-3,-6,6,1,3,4,5,3,-2,3
7,5,-3,-6,6,2,3,3,5,3,-2,4
7,6,-1,-6,5,3,3,2,4,2,-2,5
6,7,0,-7,4,5,2,1,3,3,-1,7
6,10,3,-9,3,7,1,0,2,4,1,9
6,12,7,-10,1,10,1,0,2,6,4,11
6,14,10,-10,-1,13,1,-1,2,9,7,13
6,16,11,-11,-2,14,2,0,2,12,10,14
5,17,12,-11,-3,15,3,1,4,16,13,16
6,17,11,-11,-2,15,3,3,8,23,18,18
7,19,11,-13,-1,16,4,5,15,35,25,21
9,21,12,-15,0,17,4,9,24,51,36,26
12,24,12,-18,0,19,4,11,34,70,48,32
15,28,13,-21,2,20,2,13,45,92,62,39
19,32,13,-25,3,23,0,14,56,116,77,47
23,37,14,-29,5,25,-3,15,68,139,92,55
27,40,12,-33,8,26,-6,17,80,158,103,60
32,39,7,-35,13,23,-8,19,89,169,107,63
35,36,0,-35,18,18,-9,22,97,172,106,62
38,31,-7,-34,23,12,-9,26,104,170,100,59
39,24,-16,-32,28,4,-7,31,112,165,91,54
40,15,-25,-28,33,-4,-3,37,119,156,78,46
41,7,-34,-24,38,-13,2,43,124,143,63,36
41,-1,-42,-20,42,-21,6,46,124,126,47,26
40,-8,-47,-15,44,-27,11,48,118,105,29,15
38,-15,-51,-11,45,-32,15,46,106,81,12,6
34,-21,-54,-6,45,-37,17,42,85,51,-6,-3
30,-27,-56,-1,44,-41,18,35,56,17,-24,-12
25,-33,-58,3,43,-45,18,26,23,-16,-41,-20
22,-37,-59,7,42,-48,18,16,-8,-46,-55,-26
18,-39,-58,10,39,-48,17,5,-37,-71,-66,-31
14,-40,-55,13,35,-47,16,-4,-59,-89,-74,-35
11,-41,-52,15,31,-46,16,-12,-76,-101,-79,-38
8,-40,-48,16,28,-44,16,-19,-87,-108,-83,-40
6,-39,-44,17,25,-41,15,-24,-95,-112,-85,-41
3,-38,-40,17,22,-39,15,-27,-99,-113,-85,-42
-1,-37,-35,18,18,-35,15,-30,-101,-111,-84,-42
-5,-35,-30,20,14,-32,16,-31,-100,-109,-83,-42
-7,-34,-26,21,10,-29,16,-32,-99,-106,-80,-41
-8,-32,-24,21,8,-27,16,-33,-97,-101,-77,-40
-9,-31,-22,20,7,-26,15,-34,-95,-97,-74,-38
-9,-30,-20,20,6,-24,14,-35,-93,-93,-70,-35
-9,-27,-17,19,4,-22,12,-36,-90,-89,-66,-33
-9,-24,-14,17,3,-19,10,-36,-87,-84,-62,-30
-8,-20,-12,15,2,-16,8,-36,-82,-78,-57,-27
-8,-17,-10,13,2,-13,7,-34,-76,-71,-52,-25
-6,-14,-8,11,2,-11,6,-31,-69,-64,-47,-22
-5,-11,-6,9,1,-8,6,-28,-61,-57,-42,-19
-4,-9,-5,7,0,-6,5,-25,-53,-50,-37,-16
-3,-6,-4,5,0,-5,5,-22,-46,-44,-32,-13
-1,-4,-2,3,0,-3,5,-19,-39,-38,-28,-10
0,-1,0,1,0,0,5,-16,-32,-33,-25,-7
0,1,1,0,0,2,5,-14,-27,-28,-21,-5
0,3,2,-1,0,3,4,-12,-22,-24,-19,-4
1,4,3,-2,0,4,4,-10,-18,-21,-17,-3
1,4,3,-3,0,4,4,-9,-15,-18,-15,-1
1,4,3,-3,0,4,4,-9,-12,-16,-13,-1
2,4,2,-3,1,4,4,-8,-10,-14,-12,0
5,6,1,-5,2,4,4,-6,-8,-12,-10,0
6,7,1,-6,3,4,4,-4,-5,-10,-9,1
6,6,0,-6,3,4,5,-2,-3,-8,-8,2
6,6,0,-6,3,4,5,-1,-2,-8,-7,2
6,6,0,-6,3,4,6,0,-1,-7,-7,2
5,6,0,-6,3,4,6,0,-1,-7,-6,2
5,6,0,-5,3,4,6,0,0,-6,-6,1
5,6,0,-5,3,4,7,1,0,-6,-5,1
5,6,0,-6,3,4,8,1,0,-5,-5,1
6,6,0,-6,3,3,8,2,1,-5,-4,0
7,6,0,-7,3,3,8,2,1,-4,-3,0
7,6,0,-7,3,3,8,2,2,-4,-2,1
7,6,0,-6,3,3,8,3,2,-3,-2,1
6,6,0,-6,3,3,8,3,2,-3,-2,1
6,5,0,-5,3,3,8,3,2,-3,-2,2
7,6,0,-5,3,3,8,3,2,-3,-1,2
7,6,0,-6,3,4,9,4,3,-2,-1,3
7,6,0,-6,3,4,10,4,3,-2,-1,4
7,6,0,-6,3,4,10,5,3,-1,-1,5
7,6,0,-6,3,3,11,5,3,-1,-1,6
7,6,0,-6,3,3,11,5,3,-1,-1,8
7,6,0,-6,4,3,10,5,4,-1,-1,9
7,7,0,-7,4,4,10,5,4,0,-1,10
8,7,0,-7,4,4,11,5,4,0,-1,11
8,7,0,-7,4,4,11,5,4,0,-2,12
8,7,0,-7,4,4,12,5,4,0,-2,12
7,6,0,-7,4,3,11,4,4,0,-3,12
7,6,0,-6,4,3,9,4,4,0,-4,13
7,5,0,-6,4,3,9,3,4,0,-5,13
7,6,0,-6,4,3,9,3,4,0,-5,14
7,6,-1,-6,4,3,8,3,4,0,-6,14
7,5,-1,-5,4,3,8,2,4,0,-7,14
6,5,-1,-5,4,2,7,2,4,0,-8,14
6,5,-1,-5,4,2,7,2,4,0,-8,14
7,6,-1,-6,5,3,7,2,4,0,-9,14
8,6,-2,-7,5,3,6,1,4,0,-9,14
7,6,-1,-7,5,3,5,1,5,0,-9,15
7,6,-1,-7,4,3,5,1,5,0,-9,15
7,6,-1,-7,5,3,4,1,5,0,-9,15
7,6,-1,-6,5,3,3,1,5,0,-9,15
7,6,-1,-6,4,3,3,1,5,0,-9,15
6,5,-1,-5,4,3,2,1,5,0,-9,14
5,5,-1,-5,4,2,2,1,5,0,-9,14
5,4,-1,-5,4,2,2,1,5,0,-8,13
5,4,-1,-5,4,2,1,0,4,0,-8,13
4,4,-1,-4,4,2,0,0,4,0,-8,13
5,4,-1,-4,4,2,0,0,4,0,-7,13
6,6,-1,-5,4,2,0,1,4,0,-6,13
7,7,-1,-6,4,3,0,1,4,0,-5,14
7,6,-1,-6,3,3,0,2,4,1,-4,14
5,5,-1,-5,3,2,0,2,3,0,-4,13
5,4,-1,-5,3,2,0,2,3,0,-4,13
5,3,-1,-4,3,2,0,2,3,0,-4,13
5,4,-1,-5,4,2,0,2,3,0,-3,13
6,5,-1,-6,4,2,0,2,4,0,-2,13
7,6,-1,-7,4,3,0,2,4,0,-2,13
6,5,-1,-6,4,2,0,2,3,0,-2,13
5,4,-1,-4,3,2,0,2,3,0,-2,12
5,4,-1,-5,3,2,0,2,4,0,-1,12
6,6,-1,-7,4,3,1,3,4,0,0,12
8,8,0,-8,5,4,2,3,5,0,0,12
8,8,0,-8,5,4,2,3,5,0,0,11
8,7,0,-7,4,4,2,2,4,-1,0,10
7,7,0,-6,4,3,2,2,4,-2,0,10
6,6,0,-5,3,3,2,1,3,-3,-1,9
5,5,0,-5,3,2,2,1,3,-3,-1,9
4,5,0,-4,2,2,2,1,3,-3,-1,9
4,5,0,-4,2,2,2,0,2,-4,-1,8
5,6,0,-5,2,3,2,0,2,-4,-2,8
5,6,0,-5,3,3,2,0,2,-5,-2,8
5,7,0,-6,3,4,2,0,2,-6,-3,7
5,7,0,-6,3,4,2,0,2,-6,-3,7
5,7,0,-6,3,4,2,0,2,-7,-3,7
5,7,1,-6,3,5,3,0,2,-7,-3,7
5,8,2,-7,2,6,3,0,1,-8,-4,7
5,8,2,-7,2,6,2,-1,1,-9,-5,6
5,8,2,-7,2,6,2,-1,0,-10,-6,6
5,9,3,-7,1,6,2,-1,0,-10,-6,6
5,9,3,-7,1,7,2,-1,0,-11,-6,6
5,9,3,-7,1,7,2,-1,0,-11,-7,6
6,9,3,-7,1,7,1,-2,-1,-12,-7,5
7,10,4,-8,1,7,0,-2,-1,-12,-8,5
7,11,4,-8,1,8,0,-2,-1,-13,-8,5
6,12,5,-8,0,8,0,-2,-1,-13,-8,5
5,13,6,-8,0,9,0,-3,-1,-14,-9,6
6,13,7,-9,-1,10,0,-3,-1,-14,-9,6
6,14,8,-9,-1,10,-1,-3,-1,-14,-9,7
7,14,8,-10,0,11,-1,-3,-1,-14,-9,8
7,14,8,-10,0,11,-1,-3,-1,-14,-8,9
7,15,8,-11,0,11,-1,-3,0,-13,-8,10
8,16,8,-11,0,12,-2,-4,-1,-13,-7,10
8,17,9,-12,0,13,-2,-4,0,-12,-7,11
8,18,10,-13,0,14,-2,-4,0,-12,-6,12
9,19,10,-14,0,14,-3,-4,0,-11,-6,13
10,20,10,-14,0,15,-3,-4,0,-10,-5,14
9,20,11,-14,0,15,-4,-4,0,-10,-5,14
9,20,11,-15,0,15,-4,-4,0,-9,-4,15
10,21,12,-15,0,16,-4,-4,0,-9,-3,16
10,22,12,-16,0,17,-3,-4,0,-7,-2,17
11,23,12,-16,0,17,-3,-4,0,-6,0,18
11,24,12,-17,0,18,-3,-4,1,-4,0,19
11,24,12,-17,0,18,-4,-4,2,-2,1,20
11,24,13,-17,0,18,-4,-3,3,0,2,21
11,24,13,-17,0,18,-4,-2,5,1,3,22
12,25,13,-18,0,18,-4,-1,6,3,5,23
12,25,13,-19,0,19,-3,-1,7,5,6,24
12,26,14,-19,0,19,-3,0,9,7,7,25
13,26,14,-19,0,20,-3,0,10,9,8,25
13,26,14,-19,0,20,-2,1,11,11,9,26
13,26,13,-19,0,19,-1,2,13,13,10,26
12,25,13,-18,0,18,-1,3,14,14,10,26
12,24,13,-18,1,18,-1,4,15,14,11,26
12,24,12,-18,1,18,0,5,16,15,11,25
13,24,12,-18,1,18,0,6,17,16,11,25
13,24,11,-18,1,18,0,6,17,16,11,25
13,23,11,-18,1,17,0,7,17,17,11,24
13,23,10,-17,2,16,0,7,17,17,11,24
13,23,10,-18,2,16,1,7,18,18,11,23
14,22,9,-18,3,15,1,7,18,18,11,22
14,21,8,-17,3,14,1,7,18,17,11,21
14,20,8,-17,4,14,2,7,18,16,10,21
14,20,7,-16,4,13,2,7,17,16,10,21
13,19,7,-16,4,13,2,7,17,15,9,21
13,19,6,-15,4,12,2,7,17,15,9,21
12,18,6,-14,3,12,2,7,17,15,9,20
11,17,6,-13,3,11,2,7,16,14,8,19
11,16,5,-13,3,10,2,6,15,13,8,18
11,16,5,-13,3,10,4,6,15,12,8,18
11,16,5,-13,3,10,4,6,14,11,7,17
11,15,4,-12,3,9,3,6,13,11,7,17
10,14,3,-12,3,8,1,6,12,10,6,17
10,13,3,-11,4,7,0,6,12,9,5,17
10,12,2,-11,4,7,0,6,11,9,5,17
9,12,2,-10,3,7,0,6,11,8,4,17
9,11,2,-10,3,7,0,5,11,8,4,17
9,11,2,-10,3,7,0,5,11,8,4,17
9,11,2,-10,3,7,0,5,11,8,4,17
9,11,2,-10,3,6,0,5,10,7,3,17
9,10,2,-9,3,6,0,5,10,7,2,17
9,10,2,-9,3,6,0,5,10,6,2,17
10,11,2,-10,4,6,0,6,11,6,2,18
9,10,1,-9,4,5,0,6,10,6,2,18
8,9,1,-8,4,5,0,6,10,5,1,17
8,8,0,-7,4,4,0,6,9,4,1,17
7,8,0,-7,4,4,0,6,9,4,1,17
8,8,0,-8,4,4,1,6,8,4,1,17
9,9,0,-8,4,5,1,6,8,4,1,18
9,9,0,-8,4,5,1,7,8,3,1,18
8,9,0,-8,4,4,0,7,8,3,0,18
9,9,0,-8,4,4,0,7,8,3,0,18
9,9,0,-8,4,4,-1,7,8,3,1,18
9,9,0,-8,4,4,-1,7,7,3,1,18
8,9,0,-8,4,4,-1,7,7,3,1,18
8,8,0,-7,4,4,-1,7,6,2,1,18
8,8,0,-7,4,4,-1,7,6,2,0,18
7,7,0,-6,3,4,-1,7,6,1,0,17
6,7,0,-6,3,4,-1,8,6,1,0,17
6,7,0,-6,3,4,-1,8,6,1,0,16
7,7,0,-6,4,3,0,8,6,1,0,15
7,7,0,-7,4,3,0,9,5,1,1,15
7,7,0,-7,4,3,0,9,5,1,1,14
6,6,0,-6,3,3,0,9,5,1,1,13
6,6,0,-6,3,3,0,9,5,1,1,12
5,6,0,-5,3,3,0,9,5,1,1,11
5,6,0,-5,2,4,0,9,5,1,1,11
5,7,1,-6,2,4,0,9,4,1,1,10
6,7,1,-6,2,4,0,10,4,1,1,10
6,6,1,-5,2,4,1,10,4,1,1,9
5,5,0,-4,2,3,1,10,4,1,1,9
4,4,0,-3,2,2,1,10,4,1,1,8
4,5,0,-4,2,3,1,10,5,1,1,8
4,5,0,-4,1,3,1,10,5,1,1,8
3,5,0,-3,1,3,1,10,5,1,0,7
3,4,0,-2,1,2,1,9,4,1,0,7
3,4,0,-3,1,2,1,9,4,1,0,7
4,4,0,-3,2,2,2,9,4,1,0,7
4,5,0,-4,2,2,2,10,4,1,0,7
5,5,0,-5,2,3,3,10,4,2,0,7
5,5,0,-5,2,3,3,11,4,2,0,7
5,5,0,-4,2,3,4,11,4,2,0,7
4,4,0,-4,2,3,4,10,4,1,0,6
4,4,0,-3,2,3,4,10,4,1,0,5
3,4,0,-3,2,2,3,10,4,1,-1,4
3,4,0,-3,2,2,3,10,4,1,-1,4
3,4,0,-3,2,2,3,10,4,1,-1,4
3,4,0,-3,2,2,4,10,4,1,-1,4
3,4,0,-3,2,3,4,9,4,1,-1,4
3,4,0,-4,1,3,4,9,5,2,-1,3
3,4,0,-4,1,2,5,9,5,2,-1,3
3,4,0,-4,1,2,6,9,6,2,-1,2
3,3,0,-3,1,2,7,9,6,1,-1,2
2,3,0,-2,0,2,6,9,6,1,-1,2
2,3,0,-2,0,2,6,9,6,2,-1,2
3,5,0,-3,1,3,6,9,6,2,-1,2
3,5,0,-3,1,3,5,9,6,2,-1,2
2,4,0,-2,1,2,5,8,6,2,-1,2
2,4,0,-2,1,2,4,8,7,2,-1,2
3,4,0,-3,1,2,5,8,7,2,0,2
2,3,1,-2,0,2,5,8,7,3,0,2
1,3,1,-1,0,2,5,8,7,3,0,1
1,3,1,-1,0,2,5,8,7,3,0,1
1,3,1,-2,0,3,5,8,7,3,0,2
1,4,1,-2,0,3,5,8,7,3,0,2
2,4,1,-2,0,2,5,9,7,4,0,3
2,4,0,-2,0,2,5,9,7,4,0,3
2,4,0,-2,0,2,5,9,7,4,0,3
2,4,0,-2,0,2,5,9,8,4,0,3
2,4,0,-2,0,2,5,10,8,4,0,3
2,3,0,-2,0,2,5,10,8,5,1,3
1,3,1,-1,0,2,5,10,8,5,1,3
0,2,1,0,-1,2,5,10,8,5,1,3
-1,1,1,1,-1,1,5,10,8,4,0,3
-1,1,1,0,-1,1,5,10,8,4,0,3
0,2,1,0,0,1,6,10,9,4,0,3
1,2,1,-1,0,1,6,10,9,4,0,3
1,2,1,-1,0,1,6,10,9,4,0,3
1,2,0,-1,0,1,6,9,8,4,0,3
1,2,0,-1,0,1,5,9,8,4,0,3
0,2,0,-1,0,1,6,8,8,4,0,3
0,2,0,0,0,1,7,8,8,4,0,3
0,1,0,0,0,1,8,8,8,4,0,2
-1,1,1,0,-1,1,8,7,7,3,-1,1
-1,0,1,0,-1,1,7,7,7,3,-1,1
-1,0,1,0,-1,0,7,7,8,3,0,1
0,0,0,0,-1,0,8,8,8,4,0,1
-1,0,0,0,-1,1,8,8,8,4,-1,1
-2,0,1,1,-1,1,8,7,9,4,-1,1
-1,1,0,0,-1,1,9,7,9,4,-1,2
0,2,0,0,0,1,9,7,9,4,-1,2
1,2,0,-1,0,1,9,7,9,4,-1,3
1,1,0,-1,0,1,10,7,9,3,-1,3
0,1,0,0,0,0,10,7,9,3,-1,3
0,0,0,0,0,0,10,6,9,3,-1,3
0,0,0,0,0,0,10,6,9,3,-1,3
0,0,0,0,0,0,11,6,8,3,-1,3
0,0,0,0,0,0,10,5,8,3,-1,3
-1,0,0,1,0,0,10,5,8,3,-2,3
-1,0,0,1,0,0,10,4,8,2,-2,3
-1,0,0,1,0,0,11,4,8,2,-2,4
-1,0,0,0,0,0,11,4,8,2,-2,4
0,0,0,0,0,0,11,5,8,2,-2,5
0,1,0,0,0,0,12,5,9,3,-1,6
0,1,0,0,0,0,12,5,9,3,-1,6
0,1,0,0,0,0,12,5,8,3,-1,7
-1,0,0,0,0,0,10,5,8,2,-2,7
-1,0,0,1,0,0,9,5,8,2,-2,8
-1,-1,0,1,0,0,9,5,8,2,-2,8
-1,-1,0,1,0,-1,10,5,8,2,-3,8
-1,-1,0,1,0,-1,10,5,7,2,-3,8
-1,0,0,1,0,-1,9,5,7,2,-2,8
-1,0,0,1,0,-1,10,5,7,2,-2,9
-1,-1,0,1,0,-1,11,5,7,2,-2,9
-1,-1,0,1,0,-1,11,5,7,3,-2,10
-1,0,0,1,0,0,10,5,7,3,-2,10
0,0,0,0,0,0,10,5,7,3,-1,10
0,0,0,0,0,0,11,6,7,3,-1,10
0,1,0,0,0,0,11,6,7,4,-1,10
0,1,0,0,0,0,12,6,7,4,-1,10
0,1,0,0,0,0,12,6,7,4,-2,10
0,0,0,0,0,0,13,6,7,3,-2,10
0,0,0,0,0,0,14,6,7,2,-2,10
0,0,-1,0,0,0,14,7,8,3,-2,11
1,1,-1,0,1,0,14,7,8,3,-2,11
1,1,0,-1,0,1,13,7,8,3,-2,11
1,1,0,0,0,1,13,7,8,3,-2,12
1,1,0,0,0,1,12,7,8,3,-2,12
1,2,0,-1,0,1,12,7,8,4,-1,13
1,3,1,-1,0,2,11,7,8,4,-1,14
1,4,2,-2,0,3,11,6,9,4,-1,15
1,4,2,-2,0,4,10,6,9,4,-1,16
2,5,2,-3,0,4,10,6,10,5,0,17
1,5,2,-3,-1,4,9,6,10,5,0,18
1,5,3,-3,-1,4,9,6,11,6,0,18
2,5,3,-3,-1,4,8,6,11,6,0,18
2,5,3,-4,-1,4,7,6,11,6,0,18
2,5,3,-3,0,4,6,6,11,6,0,18
1,4,2,-3,0,4,5,6,11,6,0,18
1,4,2,-2,0,3,5,6,11,6,0,18
2,3,1,-2,0,3,4,5,10,5,-1,18
2,3,0,-2,1,2,3,4,10,5,-1,17
2,3,0,-2,1,2,2,4,9,5,-2,17
2,2,0,-2,1,1,2,3,9,5,-2,16
2,2,0,-2,1,1,1,3,8,5,-2,16
3,2,-1,-2,1,1,0,2,7,4,-2,16
3,2,-1,-2,1,1,0,2,6,4,-2,16
3,2,-1,-2,1,1,-1,1,6,3,-2,16
3,1,-2,-1,2,0,-1,1,5,3,-2,16
2,0,-3,-1,3,-1,-1,1,5,2,-2,16
2,-1,-4,-1,3,-2,-1,1,5,2,-2,15
3,0,-4,-1,3,-2,-1,1,5,2,-2,15
3,0,-3,-2,3,-2,-1,1,5,2,-2,14
3,0,-3,-2,3,-2,-1,1,5,2,-2,14
3,0,-3,-2,4,-2,-1,2,5,2,-2,14
3,0,-3,-1,3,-1,0,3,6,2,-1,14
2,-1,-3,0,3,-1,0,4,6,2,-1,14
2,-1,-3,0,3,-2,1,4,6,2,-1,14
2,-1,-4,0,3,-2,1,4,6,2,-1,14
1,-2,-4,0,2,-3,1,4,6,2,-1,14
0,-3,-4,2,2,-4,1,3,5,1,-1,13
-1,-5,-4,3,1,-5,1,3,4,1,-2,13
-1,-5,-4,3,1,-5,1,2,4,0,-2,12
-1,-4,-4,3,1,-4,1,2,3,0,-2,12
-2,-4,-3,3,1,-4,1,2,3,0,-2,12
-2,-4,-3,4,0,-4,1,2,2,0,-2,11
-2,-4,-2,4,0,-3,1,2,2,-1,-2,11
-2,-4,-2,4,0,-3,2,2,2,-1,-2,10
-2,-4,-2,4,0,-3,2,2,2,-1,-2,10
-3,-5,-2,4,0,-4,2,2,2,-1,-2,9
-4,-5,-1,5,-1,-4,3,2,2,-1,-2,9
-4,-5,-1,4,-1,-3,3,2,2,-1,-2,8
-4,-5,-1,4,0,-3,3,2,2,-1,-2,8
-4,-5,-1,5,-1,-4,1,1,1,-2,-2,7
-5,-6,-2,6,-1,-4,0,1,1,-2,-2,7
-5,-7,-2,7,-2,-5,0,1,1,-2,-2,6
-6,-8,-1,8,-2,-5,0,0,1,-2,-2,6
-6,-8,-1,8,-2,-4,1,0,1,-2,-1,5
-5,-7,-2,7,-1,-4,2,1,1,-2,-1,5
-4,-6,-2,6,-1,-4,2,1,1,-3,-1,5
-5,-7,-2,6,-1,-4,3,1,1,-3,-1,4
-6,-7,-1,6,-2,-4,4,1,1,-3,-1,4
-5,-6,-1,6,-2,-3,4,2,2,-3,0,4
-5,-5,-1,6,-2,-3,4,2,2,-3,0,4
-6,-6,-1,6,-2,-3,4,2,1,-4,-1,3
-7,-8,-1,8,-3,-4,5,2,1,-4,-1,3
-8,-9,-1,9,-3,-4,5,2,1,-4,-1,3
-8,-8,-1,8,-3,-4,5,2,1,-4,-1,3
-7,-7,-1,7,-3,-4,5,2,1,-3,0,3
-7,-7,0,7,-3,-4,5,2,1,-3,0,3
-8,-7,0,8,-3,-4,6,2,1,-3,0,3
-8,-8,0,8,-4,-4,6,2,1,-3,0,3
-8,-8,0,8,-4,-4,7,2,1,-3,0,3
-8,-8,0,8,-4,-3,7,2,1,-4,0,3
-8,-7,0,8,-3,-3,9,2,2,-4,0,2
-7,-7,0,7,-3,-3,10,2,2,-4,0,2
-7,-7,0,7,-3,-4,10,2,2,-5,0,2
-6,-7,0,7,-2,-4,10,2,2,-5,1,2
-5,-6,0,6,-2,-4,10,2,2,-5,2,3
-6,-7,0,7,-2,-4,11,2,1,-4,3,3
-6,-7,0,7,-3,-3,11,1,1,-4,3,4
-7,-6,0,7,-3,-3,12,1,1,-4,4,4
-7,-6,0,7,-3,-2,12,1,1,-4,4,4
-8,-6,0,7,-3,-3,11,1,1,-5,4,4
-9,-8,0,8,-4,-3,10,1,1,-6,4,4
-9,-8,0,9,-4,-4,9,1,1,-7,4,4
-9,-8,0,9,-4,-4,10,1,1,-7,5,5
-8,-8,0,8,-3,-4,10,1,1,-6,6,5
-7,-8,0,8,-3,-4,10,1,2,-6,6,6
-7,-8,0,8,-3,-4,11,1,2,-6,6,6
-8,-8,0,8,-3,-4,11,1,1,-6,6,7
-8,-8,0,8,-3,-3,11,0,1,-6,6,7
-8,-8,0,8,-3,-3,10,0,1,-6,7,7
-8,-8,0,8,-3,-3,11,0,1,-7,7,7
-8,-8,0,8,-3,-4,11,0,1,-7,7,7
-8,-8,0,9,-3,-4,11,0,1,-7,7,8
-8,-8,0,9,-4,-3,10,0,1,-7,8,8
-8,-8,1,8,-4,-2,10,-1,0,-6,10,9
-9,-6,2,8,-5,-1,9,-2,0,-6,12,11
-9,-4,4,7,-6,0,8,-4,-1,-6,14,13
-10,-2,7,6,-8,3,7,-6,-2,-5,17,15
-10,1,11,5,-10,6,7,-7,-2,-2,21,18
-10,3,14,4,-12,9,7,-7,-1,1,25,20
-11,4,15,4,-13,10,8,-7,-1,4,28,21
-12,4,16,4,-14,11,9,-5,1,9,32,22
-11,4,15,4,-13,10,10,-3,7,17,37,24
-10,4,14,3,-12,10,10,0,15,29,45,27
-8,5,13,1,-10,10,10,3,26,45,55,32
-4,8,12,-1,-8,10,8,5,38,64,67,38
0,11,12,-5,-6,12,5,6,51,87,82,46
3,15,12,-9,-4,14,2,7,64,112,97,54
7,19,12,-13,-2,16,-1,8,76,134,111,61
12,22,10,-16,0,17,-5,9,87,149,119,64
16,22,6,-18,5,14,-7,10,96,153,120,64
19,19,0,-19,10,10,-8,13,103,150,115,62
21,14,-7,-18,14,4,-7,17,110,144,108,57
22,7,-15,-15,19,-4,-4,22,118,135,97,50
23,-1,-24,-11,24,-13,1,29,126,121,83,42
23,-10,-33,-6,28,-21,6,35,129,105,68,33
22,-18,-39,-1,31,-29,10,38,126,86,52,23
20,-26,-45,3,32,-35,13,37,117,63,35,12
17,-33,-49,8,33,-41,14,34,100,37,19,2
13,-40,-53,14,34,-46,15,28,74,7,2,-7
8,-47,-56,19,33,-50,16,18,40,-24,-13,-15
4,-52,-56,24,31,-53,16,7,5,-52,-26,-22
0,-54,-54,27,28,-54,15,-5,-28,-76,-36,-26
-3,-54,-50,28,24,-52,13,-17,-56,-95,-44,-30
-7,-53,-46,30,20,-50,12,-27,-77,-109,-50,-33
-11,-54,-43,32,16,-49,12,-36,-92,-120,-55,-36
-15,-54,-39,34,12,-47,11,-43,-103,-127,-58,-38
-18,-54,-36,36,9,-45,11,-48,-110,-130,-59,-39
-21,-53,-33,37,6,-43,11,-52,-112,-130,-59,-40
-24,-52,-29,38,3,-40,11,-54,-112,-128,-57,-39
-27,-51,-25,39,0,-37,13,-54,-111,-124,-54,-38
-28,-50,-22,39,-2,-35,14,-54,-108,-119,-51,-35
-29,-49,-20,39,-3,-34,14,-54,-106,-114,-47,-33
-29,-48,-19,39,-5,-33,12,-55,-103,-109,-44,-31
-30,-46,-17,38,-6,-31,9,-56,-101,-104,-40,-29
-30,-43,-13,36,-8,-28,6,-57,-98,-98,-35,-26
-30,-39,-9,34,-9,-24,4,-57,-93,-91,-30,-23
-30,-35,-6,32,-11,-20,3,-55,-87,-84,-25,-19
-29,-32,-4,31,-12,-18,2,-52,-80,-78,-21,-16
-28,-30,-2,29,-12,-16,1,-48,-72,-73,-18,-15
-28,-29,-1,28,-13,-15,1,-44,-65,-67,-15,-14
-26,-27,0,27,-13,-14,1,-40,-57,-61,-12,-12
-24,-23,0,24,-12,-12,1,-36,-49,-55,-8,-9
-22,-21,1,22,-12,-10,0,-33,-42,-50,-4,-7
-21,-19,1,20,-11,-9,0,-31,-36,-45,-1,-5
-20,-18,1,19,-11,-8,0,-29,-31,-41,2,-2
-19,-16,2,18,-10,-7,0,-28,-27,-35,5,0
-18,-15,3,17,-10,-6,-1,-26,-23,-30,8,1
-18,-14,4,16,-10,-5,-1,-25,-20,-25,11,3
-17,-12,5,15,-11,-4,-1,-23,-18,-22,13,4
-16,-11,5,14,-11,-3,-1,-22,-16,-21,14,4
-15,-10,6,13,-10,-2,0,-20,-14,-21,14,3
-15,-8,6,12,-10,-2,1,-19,-11,-21,13,2
-14,-8,5,11,-10,-2,3,-17,-9,-20,13,1
-14,-10,4,12,-9,-3,4,-16,-8,-20,12,0
-14,-12,2,13,-8,-4,4,-16,-7,-20,12,-1
-14,-13,1,13,-8,-6,4,-15,-7,-20,12,-1
-14,-15,0,14,-7,-7,4,-15,-7,-19,12,-2
-14,-15,0,15,-7,-8,4,-14,-6,-19,12,-2
-13,-14,-1,14,-6,-8,4,-14,-6,-18,13,-3
-12,-13,-1,13,-6,-7,4,-13,-5,-16,15,-3
-12,-11,0,12,-6,-6,3,-13,-5,-13,17,-4
-12,-10,0,11,-6,-4,3,-13,-4,-10,18,-4
-12,-8,1,10,-6,-3,4,-12,-4,-10,18,-5
-11,-8,2,10,-5,-3,4,-12,-3,-11,17,-6
-11,-8,2,10,-5,-3,4,-12,-3,-13,15,-6
-12,-9,2,10,-6,-3,5,-12,-3,-14,14,-7
-13,-10,2,11,-7,-3,6,-11,-3,-15,13,-7
-13,-11,1,12,-7,-4,6,-10,-3,-15,13,-7
-14,-13,0,13,-7,-6,6,-10,-3,-15,12,-7
-14,-14,0,14,-6,-7,5,-9,-3,-15,12,-6
-14,-14,-1,14,-6,-7,6,-9,-3,-14,12,-5
-13,-14,-1,14,-5,-8,6,-9,-3,-13,12,-4
-13,-14,-2,14,-5,-8,5,-10,-3,-12,12,-3
-11,-13,-2,13,-5,-7,5,-11,-3,-11,12,-2
-11,-12,-1,11,-5,-6,4,-11,-3,-9,13,-1
-11,-11,0,10,-5,-5,4,-11,-3,-9,13,0
-11,-10,0,10,-5,-5,3,-11,-3,-10,12,0
-12,-10,0,10,-6,-4,3,-11,-3,-12,11,-1
-12,-10,1,11,-6,-4,3,-11,-3,-13,9,-2
-12,-11,1,12,-6,-5,3,-11,-3,-14,8,-3
-11,-11,0,12,-6,-5,3,-10,-3,-14,7,-3
-11,-11,0,12,-5,-6,4,-10,-3,-15,7,-3
-12,-13,0,13,-6,-7,4,-10,-3,-15,6,-3
-12,-14,-1,13,-6,-8,3,-10,-3,-16,5,-4
-12,-14,-2,13,-5,-9,2,-10,-3,-16,5,-4
-12,-15,-3,13,-4,-9,1,-10,-3,-15,5,-4
-12,-15,-3,13,-3,-9,0,-11,-3,-14,6,-4
-12,-14,-3,13,-4,-9,0,-12,-3,-12,7,-4
-12,-13,-1,13,-5,-7,-1,-12,-3,-11,8,-4
-12,-12,0,12,-5,-5,-2,-12,-3,-11,8,-4
-12,-11,1,11,-6,-4,-3,-12,-3,-11,8,-5
-12,-11,1,12,-7,-4,-3,-13,-3,-12,7,-6
-13,-12,1,13,-7,-5,-3,-13,-3,-14,6,-8
-14,-12,1,13,-7,-5,-3,-12,-3,-16,5,-9
-14,-13,0,14,-7,-6,-3,-12,-3,-17,4,-11
-15,-15,0,15,-7,-8,-3,-12,-3,-17,4,-12
-16,-17,-1,16,-7,-9,-4,-12,-4,-18,3,-13
-16,-18,-2,17,-7,-10,-4,-13,-4,-18,3,-13
-14,-17,-2,16,-6,-9,-3,-12,-3,-18,4,-13
-12,-15,-3,14,-4,-9,-3,-12,-3,-17,5,-12
-12,-15,-3,14,-4,-9,-3,-12,-3,-17,6,-13
-12,-15,-3,14,-4,-9,-4,-12,-3,-15,7,-13
-11,-12,-2,12,-5,-7,-4,-12,-3,-12,9,-13
-10,-10,0,10,-5,-5,-5,-12,-2,-9,12,-13
-10,-8,1,9,-6,-3,-5,-12,-2,-8,13,-13
-11,-8,3,9,-7,-2,-4,-12,-2,-11,12,-14
-12,-9,2,10,-7,-3,-4,-12,-3,-14,10,-16
-12,-11,1,11,-6,-4,-4,-13,-3,-16,9,-18
-12,-12,0,12,-6,-5,-4,-13,-3,-17,9,-18
-12,-12,0,12,-6,-6,-4,-12,-3,-17,9,-18
-12,-13,-1,12,-5,-6,-3,-12,-4,-17,9,-17
-12,-13,-2,13,-4,-7,-2,-13,-4,-17,9,-17
-12,-15,-3,13,-4,-8,-2,-13,-4,-17,9,-16
-12,-15,-4,13,-3,-9,-2,-13,-4,-17,9,-16
-11,-15,-4,13,-3,-9,-4,-14,-4,-17,9,-16
-11,-15,-3,13,-4,-8,-5,-14,-4,-15,10,-14
-11,-12,-1,12,-5,-6,-5,-14,-4,-13,13,-13
-11,-10,1,11,-5,-4,-5,-14,-4,-11,14,-13
-11,-8,2,10,-6,-3,-5,-15,-5,-12,14,-13
-12,-8,3,10,-7,-2,-4,-15,-6,-14,11,-15
-12,-8,3,10,-8,-2,-3,-14,-6,-17,8,-17
-12,-9,3,10,-8,-2,-2,-14,-6,-19,7,-19
-12,-9,2,10,-7,-3,-1,-13,-5,-19,7,-19
-12,-10,1,11,-6,-4,-2,-13,-5,-20,7,-17
-12,-11,1,12,-6,-5,-3,-13,-6,-20,7,-16
-12,-12,0,12,-6,-5,-3,-13,-6,-20,7,-15
-12,-12,-1,12,-5,-6,-4,-13,-6,-20,7,-14
-11,-12,-1,12,-4,-7,-4,-14,-6,-19,7,-13
-11,-12,-1,12,-4,-6,-5,-14,-6,-18,9,-13
-11,-11,0,11,-5,-5,-6,-15,-6,-16,10,-11
-11,-9,1,10,-6,-3,-6,-16,-6,-15,11,-10
-10,-7,3,9,-6,-1,-7,-16,-6,-15,11,-9
-10,-6,5,8,-7,0,-7,-15,-6,-15,11,-9
-10,-4,6,7,-8,2,-7,-15,-6,-15,11,-9
-10,-3,7,7,-8,2,-6,-15,-5,-15,11,-10
-9,-3,7,6,-8,2,-5,-15,-5,-16,10,-10
-9,-3,6,6,-8,2,-5,-15,-4,-17,9,-10
-10,-4,6,7,-8,1,-7,-15,-4,-17,9,-9
-10,-5,5,7,-8,1,-8,-14,-4,-17,9,-8
-10,-6,5,7,-7,0,-8,-14,-4,-16,9,-7
-9,-5,5,7,-7,0,-8,-15,-4,-15,10,-5
-8,-4,5,6,-6,1,-8,-15,-4,-13,11,-4
-8,-2,5,6,-6,1,-9,-16,-4,-11,12,-4
-7,-1,5,5,-6,2,-9,-16,-4,-10,14,-3
-7,0,6,4,-6,3,-10,-16,-4,-8,15,-2
-6,1,7,3,-6,4,-11,-16,-3,-6,17,-1
-7,2,8,3,-7,5,-11,-16,-3,-5,17,-1
-8,2,10,3,-8,6,-11,-16,-2,-5,17,-1
-8,2,10,3,-9,7,-11,-16,-1,-6,16,-1
-8,2,10,3,-9,7,-11,-16,-1,-6,16,-1
-8,2,10,2,-9,7,-11,-16,0,-4,17,-1
-7,3,9,2,-8,7,-12,-16,0,-2,18,0
-6,3,8,1,-7,7,-12,-15,1,-1,19,1
-5,3,8,1,-7,6,-12,-15,2,0,19,2
-5,3,8,1,-6,6,-11,-15,3,2,20,3
-4,4,8,0,-6,7,-11,-14,5,5,22,4
-3,5,8,-1,-6,7,-12,-14,7,9,24,5
-4,6,10,-1,-7,8,-13,-14,8,12,26,6
-4,6,11,-1,-8,9,-14,-14,9,13,27,5
-5,7,12,-1,-8,9,-14,-14,9,14,27,5
-6,7,12,0,-9,9,-13,-13,10,15,28,5
-7,6,12,0,-9,9,-13,-12,11,16,28,4
-7,6,12,0,-9,9,-12,-11,12,15,27,3
-5,6,11,0,-8,9,-11,-10,13,14,26,1
-4,6,10,-1,-7,8,-10,-9,15,14,25,0
-4,4,9,0,-7,7,-9,-8,15,14,25,0
-5,2,7,1,-6,5,-8,-7,15,14,24,0
-5,0,5,2,-5,2,-7,-7,15,14,23,0
-5,-2,3,4,-5,0,-7,-6,14,13,23,0
-6,-3,2,4,-5,0,-7,-6,14,14,23,1
-5,-2,3,4,-5,0,-6,-6,14,16,24,1
-4,0,4,3,-5,2,-7,-6,13,17,25,1
-4,0,5,2,-5,3,-9,-6,12,16,24,0
-5,0,5,2,-6,3,-9,-7,11,14,23,0
-6,0,6,3,-6,3,-8,-7,10,11,21,-2
-7,-2,5,4,-6,2,-7,-7,10,9,20,-4
-7,-3,4,5,-6,0,-6,-6,9,7,18,-5
-7,-4,3,6,-5,-1,-5,-5,9,6,18,-5
-6,-5,1,6,-4,-2,-4,-5,9,6,18,-4
-7,-6,0,7,-3,-3,-3,-5,8,6,18,-3
-7,-8,-1,8,-3,-4,-3,-5,8,5,18,-3
-7,-9,-2,8,-2,-5,-3,-5,7,4,18,-4
-6,-9,-2,7,-1,-5,-4,-4,6,3,18,-4
-6,-8,-2,7,-1,-5,-4,-4,5,3,19,-4
-6,-7,-1,7,-2,-4,-4,-5,5,4,19,-4
-6,-6,0,6,-3,-3,-4,-5,5,4,19,-3
-7,-5,2,6,-4,-1,-5,-5,4,4,20,-3
-7,-5,2,7,-4,-1,-7,-6,3,5,20,-4
-8,-7,1,8,-4,-2,-7,-6,2,5,20,-5
-8,-8,1,8,-4,-3,-7,-5,2,4,19,-7
-9,-9,0,9,-4,-4,-6,-5,2,2,18,-7
-9,-10,0,9,-4,-4,-5,-4,2,0,17,-7
-10,-10,0,10,-5,-5,-4,-4,2,0,17,-6
-10,-11,-1,11,-4,-6,-3,-4,1,0,17,-6
-9,-11,-2,10,-3,-6,-2,-4,1,0,17,-6
-9,-11,-2,10,-3,-7,-3,-4,1,0,17,-6
-9,-11,-3,10,-3,-7,-4,-4,1,-1,17,-6
-9,-12,-3,10,-3,-7,-5,-4,0,-1,18,-5
-9,-12,-2,10,-3,-7,-5,-4,0,0,20,-5
-9,-11,-2,10,-3,-6,-5,-4,0,1,21,-5
-9,-10,-1,10,-4,-6,-6,-4,0,2,22,-5
-10,-10,0,10,-5,-5,-6,-5,0,2,22,-6
-10,-9,1,9,-5,-4,-5,-5,0,1,21,-7
-9,-7,2,8,-5,-3,-4,-4,0,0,19,-8
-9,-8,2,9,-5,-3,-6,-4,0,-1,18,-9
-10,-9,1,10,-5,-4,-7,-3,-1,-1,18,-9
-10,-10,0,10,-5,-5,-5,-2,-1,-1,19,-9
-10,-11,0,10,-5,-5,-4,-2,-1,-1,19,-10
-9,-11,-2,10,-3,-7,-4,-2,-1,-2,18,-11
-9,-12,-3,11,-3,-8,-4,-2,-1,-2,18,-13
-9,-13,-4,11,-2,-9,-4,-1,-1,-2,17,-14
-9,-14,-5,12,-2,-9,-4,-1,-1,-2,17,-14
-8,-14,-5,11,-1,-9,-4,-1,-1,-1,19,-14
-8,-14,-5,11,-1,-9,-3,-1,-1,0,21,-13
-8,-12,-4,11,-2,-7,-4,-1,-1,2,23,-12
-8,-10,-2,10,-3,-5,-4,-1,-1,3,23,-12
-8,-8,0,8,-4,-3,-5,-1,-1,2,22,-12
-9,-7,2,8,-5,-2,-5,-1,-1,1,21,-13
-11,-8,2,9,-6,-2,-5,-1,-1,0,20,-14
-11,-9,1,10,-5,-3,-5,-1,-2,0,18,-15
-10,-10,0,10,-5,-4,-4,-1,-2,-1,18,-15
-10,-11,-1,11,-5,-5,-3,0,-2,-2,18,-14
-11,-13,-2,12,-5,-7,-3,0,-2,-3,17,-13
-12,-15,-2,13,-5,-8,-3,0,-2,-3,17,-14
-11,-15,-3,13,-4,-9,-3,0,-2,-3,16,-14
-10,-14,-3,12,-4,-9,-3,0,-2,-1,17,-14
-9,-12,-3,11,-3,-8,-2,0,-1,1,18,-13
-9,-12,-3,10,-3,-8,-2,0,-1,1,18,-13
-9,-12,-3,10,-3,-8,-3,0,-1,0,17,-14
-10,-12,-2,11,-4,-7,-5,-1,-1,0,17,-14
-10,-12,-1,11,-4,-6,-7,-2,-2,1,18,-14
-11,-11,0,11,-5,-5,-7,-3,-2,2,18,-14
-10,-10,1,10,-5,-4,-6,-3,-2,3,18,-14
-9,-8,1,8,-5,-3,-6,-3,-1,4,18,-15
-9,-7,1,8,-5,-2,-6,-3,0,3,17,-15
-10,-8,1,9,-6,-3,-5,-3,0,1,16,-16
-11,-9,1,10,-6,-3,-5,-2,0,0,15,-17
-10,-8,1,9,-5,-3,-4,-1,0,0,14,-18
-9,-8,1,9,-5,-3,-4,0,0,-1,14,-18
-9,-9,1,9,-4,-4,-4,0,0,-1,14,-18
-9,-11,0,10,-4,-5,-4,0,1,-1,15,-17
-9,-12,-1,11,-3,-6,-4,0,1,0,15,-16
-10,-14,-3,12,-3,-8,-4,-1,1,0,15,-16
-11,-15,-4,13,-3,-9,-4,-1,1,1,15,-16
-10,-14,-4,12,-3,-9,-5,-1,1,2,16,-15
-9,-11,-2,10,-3,-7,-5,-1,1,3,17,-14
-9,-10,-1,9,-3,-5,-5,-1,0,3,17,-13
-8,-9,-1,9,-3,-5,-6,-1,0,4,17,-14
-8,-9,0,9,-3,-4,-6,-1,1,5,17,-14
-9,-9,0,9,-4,-4,-6,-1,1,4,17,-14
-10,-9,1,10,-5,-4,-5,-1,1,2,15,-14
-10,-8,2,9,-6,-3,-5,0,1,2,15,-14
-9,-7,2,8,-6,-2,-4,0,2,3,15,-13
-9,-7,2,8,-5,-3,-3,0,2,3,15,-12
-9,-8,2,9,-5,-3,-3,0,2,2,15,-12
-9,-9,1,9,-5,-3,-2,1,2,2,16,-11
-9,-9,0,9,-4,-4,-2,1,1,1,16,-10
-8,-10,0,9,-3,-4,-1,1,1,1,16,-10
-7,-9,-1,8,-3,-4,-1,1,1,2,17,-9
-7,-9,-1,8,-3,-4,-2,1,1,4,18,-9
-8,-9,-1,9,-3,-5,-2,0,1,5,18,-9
-9,-10,-1,9,-4,-5,-2,0,1,6,18,-9
-9,-9,-1,9,-4,-5,-2,1,1,6,19,-9
-8,-8,0,8,-4,-4,-2,1,1,5,19,-9
-8,-7,1,7,-4,-2,-3,1,1,5,19,-9
-8,-6,2,7,-4,-1,-4,1,1,5,19,-9
-8,-6,3,7,-5,-1,-4,0,0,5,18,-9
-9,-6,3,7,-5,-1,-2,1,0,5,18,-9
-9,-6,3,8,-6,-1,0,1,1,5,18,-8
-10,-6,3,8,-6,-2,1,2,1,5,18,-8
-10,-8,1,9,-5,-3,1,2,0,3,17,-8
-10,-10,0,10,-5,-5,0,2,0,2,17,-6
-10,-11,0,10,-5,-5,0,2,0,2,18,-5
-10,-11,-1,10,-4,-6,0,2,0,2,17,-4
-9,-12,-2,11,-4,-7,-1,1,0,1,17,-4
-9,-12,-3,10,-3,-7,-1,1,0,3,17,-3
-8,-12,-3,10,-3,-7,-1,0,0,6,19,-2
-9,-11,-3,10,-3,-7,-1,0,0,9,20,-1
-9,-10,-1,9,-4,-6,-2,0,0,7,20,-1
-9,-9,0,9,-5,-4,-1,0,-1,3,19,-2
-10,-7,3,8,-6,-2,-1,0,-1,3,19,-2
-9,-5,4,7,-7,0,-1,0,-1,5,19,-2
-9,-4,4,7,-7,0,-1,0,-1,5,19,-2
-9,-6,3,8,-7,-1,-1,0,-1,3,17,-2
-10,-8,2,9,-6,-2,0,0,-1,1,16,-2
-10,-9,0,10,-5,-3,0,1,-1,0,16,-1
-10,-10,0,10,-5,-4,0,1,-1,1,16,-1
-10,-10,0,10,-4,-5,0,0,-1,1,16,-2
-9,-10,0,10,-4,-5,0,0,-1,2,16,-2
-8,-10,-1,9,-3,-5,0,0,-1,3,17,-1
-8,-10,-1,9,-3,-5,0,0,-1,4,18,0
-9,-9,0,9,-4,-5,1,0,-2,3,17,0
-9,-9,0,9,-4,-5,1,0,-2,3,16,1
-10,-8,0,9,-5,-4,0,0,-2,3,15,1
-10,-9,0,9,-5,-4,-2,-1,-2,3,15,0
-10,-9,0,9,-5,-4,-4,-2,-3,3,14,0
-10,-8,1,9,-6,-3,-3,-2,-2,3,14,0
-10,-8,2,9,-6,-3,-1,-1,-2,4,15,0
-10,-8,3,9,-6,-2,-1,-1,-2,6,17,0
-9,-7,3,8,-6,-2,-2,-1,-2,6,16,0
-9,-7,3,8,-6,-2,-3,-1,-2,4,15,-1
-9,-7,2,8,-6,-3,-4,-1,-2,3,14,-2
-10,-9,1,9,-5,-4,-3,-1,-2,2,14,-2
-10,-10,0,10,-5,-5,-2,-1,-2,1,13,-1
-10,-10,0,10,-5,-5,-2,0,-2,1,13,0
-10,-11,0,11,-4,-6,-2,0,-2,1,13,0
-9,-11,-1,11,-4,-7,-2,0,-2,0,13,1
-9,-11,-2,11,-3,-7,0,0,-2,0,14,1
-9,-11,-2,10,-3,-7,0,1,-1,2,15,2
-9,-10,-1,10,-3,-6,-1,0,-1,3,15,2
-9,-10,0,9,-4,-5,-3,0,-2,4,16,2
-9,-9,2,8,-5,-3,-4,-1,-2,6,17,3
-9,-7,3,8,-6,-1,-5,-1,-2,6,17,3
-9,-5,4,7,-7,0,-5,0,-1,4,16,4
-8,-4,5,6,-7,0,-4,0,-1,3,15,4
-8,-4,4,6,-6,0,-3,0,-1,3,15,4
-8,-4,4,6,-6,0,-3,0,0,4,15,5
-8,-5,3,7,-6,0,-3,0,0,4,15,6
-9,-6,2,7,-6,-1,-3,0,0,3,15,7
-8,-6,2,7,-5,-2,-3,0,1,3,15,8
-7,-6,1,6,-5,-2,-3,0,1,4,16,9
-8,-7,1,7,-5,-3,-3,0,1,5,17,9
-8,-7,1,8,-5,-3,-3,0,1,8,18,9
-7,-5,1,6,-4,-2,-4,0,1,10,19,9
-6,-3,2,5,-4,0,-5,0,2,11,19,9
-6,-2,3,4,-5,0,-5,0,2,9,18,9
-7,-2,3,4,-5,0,-6,0,2,7,17,9
-8,-3,3,5,-5,0,-6,-1,1,6,17,9
-8,-5,3,6,-5,-1,-7,-2,0,5,17,9
-8,-6,2,6,-5,-2,-6,-2,0,5,17,9
-6,-4,2,5,-4,-1,-6,-2,-1,6,18,9
-6,-3,3,4,-4,-1,-7,-2,-1,7,18,10
-6,-4,2,5,-4,-1,-8,-3,-2,6,16,8
-6,-5,0,6,-3,-2,-7,-3,-2,4,14,6
-5,-6,-1,6,-1,-3,-6,-2,-3,3,13,5
-6,-8,-3,7,0,-5,-7,-3,-3,3,13,4
-6,-10,-4,8,0,-7,-8,-3,-4,3,13,5
-5,-10,-4,7,0,-7,-9,-3,-3,4,14,6
-4,-9,-3,6,0,-6,-9,-3,-3,5,13,8
-4,-8,-3,6,0,-6,-9,-3,-3,3,12,7
-4,-8,-3,6,0,-6,-9,-4,-4,1,10,5
-5,-8,-3,7,-1,-6,-8,-4,-4,1,10,5
-6,-8,-3,7,-1,-5,-7,-3,-3,2,11,5
-5,-8,-3,6,-1,-5,-6,-3,-3,3,12,5
-5,-8,-3,5,0,-5,-7,-3,-2,3,12,5
-5,-8,-3,6,-1,-5,-8,-3,-3,2,11,4
-6,-9,-2,7,-1,-5,-8,-3,-3,0,11,3
-7,-10,-3,8,-2,-6,-7,-4,-4,0,11,1
-8,-12,-3,10,-2,-7,-8,-4,-4,1,11,1
-9,-11,-2,10,-3,-6,-7,-5,-5,0,11,1
-10,-10,0,10,-4,-5,-7,-5,-5,-1,9,2
-10,-10,0,10,-5,-5,-7,-5,-5,-1,7,1
-10,-11,0,11,-5,-6,-8,-5,-5,-1,6,1
-10,-11,-1,11,-5,-6,-8,-5,-5,0,6,1
-10,-12,-1,11,-5,-7,-7,-5,-6,0,7,1
-10,-12,-1,11,-5,-7,-7,-6,-6,0,8,0
-10,-11,-1,11,-5,-6,-8,-6,-6,-1,7,0
-10,-11,-1,11,-4,-6,-8,-6,-6,-1,7,-1
-10,-12,-2,11,-4,-7,-9,-6,-6,0,7,-1
-10,-12,-1,11,-4,-7,-9,-6,-6,1,8,-1
-10,-11,0,11,-5,-6,-9,-6,-6,2,8,-1
-10,-10,0,10,-6,-5,-9,-6,-6,1,7,-1
-10,-10,1,10,-6,-4,-9,-6,-6,-1,6,-2
-11,-10,2,10,-7,-4,-8,-6,-6,-4,5,-2
-11,-10,2,11,-7,-4,-8,-6,-5,-5,4,-2
-11,-10,1,11,-6,-5,-8,-5,-5,-4,5,-1
-11,-11,0,11,-5,-6,-8,-4,-4,-2,6,-1
-11,-12,-1,12,-5,-7,-8,-4,-4,0,7,-1
-12,-13,-1,12,-5,-7,-8,-4,-5,0,8,-1
-12,-13,-1,12,-6,-7,-8,-4,-5,-1,8,-1
-11,-11,0,11,-6,-6,-8,-4,-5,-1,8,-2
-11,-10,1,10,-6,-4,-8,-4,-5,-1,7,-3
-11,-10,2,11,-7,-4,-8,-4,-6,-2,6,-5
-12,-11,1,11,-7,-5,-8,-4,-6,-3,5,-7
-12,-12,1,12,-7,-5,-8,-4,-5,-2,5,-7
-12,-12,0,12,-6,-6,-8,-3,-5,-1,6,-7
-11,-12,-1,12,-5,-7,-7,-3,-5,-2,6,-6
-11,-12,0,11,-5,-6,-7,-2,-5,-3,7,-5
-11,-11,0,11,-6,-6,-7,-2,-4,-2,7,-5
-11,-11,0,11,-6,-6,-8,-2,-4,-1,8,-5
-11,-11,1,11,-6,-6,-8,-2,-3,0,8,-5
-12,-11,1,12,-6,-5,-8,-3,-3,0,8,-5
-13,-11,2,12,-7,-5,-8,-3,-4,-3,7,-6
-13,-10,2,12,-7,-4,-8,-3,-4,-4,6,-7
-12,-10,3,11,-7,-3,-8,-3,-4,-4,6,-7
-12,-10,3,11,-7,-3,-8,-3,-4,-2,7,-8
-12,-10,3,11,-7,-3,-8,-3,-4,-1,7,-8
-12,-10,3,11,-7,-3,-7,-2,-4,-1,6,-9
-12,-10,2,11,-7,-4,-7,-2,-4,-2,5,-10
-13,-11,1,12,-7,-5,-7,-2,-4,-4,5,-10
-13,-11,1,11,-6,-5,-7,-2,-4,-4,5,-11
-13,-11,1,11,-6,-5,-7,-2,-4,-2,5,-11
-13,-11,1,12,-6,-5,-8,-2,-4,-1,6,-11
-12,-10,1,11,-6,-4,-8,-1,-4,0,7,-10
-11,-9,2,10,-6,-4,-8,-1,-3,0,7,-10
-12,-9,2,11,-7,-4,-8,-1,-4,-1,6,-11
-13,-11,2,12,-7,-5,-8,-1,-4,-2,4,-12
-15,-13,2,14,-8,-6,-8,-2,-5,-4,3,-14
-16,-13,2,14,-8,-6,-8,-2,-6,-5,3,-15
-14,-12,2,13,-7,-6,-7,-1,-5,-4,3,-15
-12,-9,2,10,-6,-4,-6,0,-5,-2,4,-14
-10,-8,2,9,-6,-3,-6,0,-5,-2,5,-14
-11,-7,4,9,-7,-2,-8,-1,-5,-1,5,-14
-12,-5,6,9,-9,0,-9,-2,-6,-1,6,-15
-12,-4,8,8,-10,1,-9,-3,-7,-1,7,-15
-13,-2,11,7,-12,4,-10,-4,-7,0,9,-15
-14,0,14,7,-13,7,-10,-5,-6,5,13,-14
-14,2,17,6,-15,10,-10,-5,-5,10,18,-11
-14,4,18,5,-15,11,-10,-5,-3,13,22,-8
-13,5,19,4,-16,12,-8,-3,-1,16,26,-5
-13,5,19,3,-16,12,-7,0,3,23,32,-2
-11,6,19,2,-15,12,-7,2,10,37,41,0
-9,7,17,1,-13,12,-7,6,18,55,53,5
-6,8,16,-1,-11,12,-8,8,28,76,68,11
-3,11,15,-4,-9,13,-10,9,37,98,85,19
2,16,15,-9,-6,15,-13,10,47,122,103,28
7,21,14,-14,-3,18,-16,11,57,145,119,36
10,23,12,-17,-1,18,-20,12,65,163,130,41
13,21,8,-17,2,14,-23,13,72,171,131,42
16,17,1,-17,7,9,-24,15,77,171,126,40
19,13,-6,-17,13,3,-23,18,82,168,119,36
22,6,-16,-14,19,-4,-21,22,89,163,107,29
23,-2,-26,-10,25,-14,-17,28,96,154,92,19
23,-11,-34,-5,28,-22,-11,35,104,142,75,8
22,-18,-40,-1,31,-29,-6,40,109,127,58,-3
21,-24,-44,2,32,-34,-3,44,107,107,39,-14
18,-30,-48,6,33,-39,0,44,98,82,19,-26
14,-36,-50,11,32,-43,4,41,79,52,-1,-36
10,-42,-52,16,31,-47,6,34,52,19,-20,-46
5,-48,-53,21,30,-51,6,27,23,-12,-37,-55
0,-53,-53,26,27,-53,7,18,-6,-42,-51,-61
-4,-55,-51,30,24,-54,8,9,-33,-69,-63,-67
-7,-56,-48,32,20,-52,8,1,-55,-89,-72,-70
-10,-55,-44,34,16,-50,8,-6,-72,-101,-78,-73
-14,-55,-40,35,12,-48,8,-12,-84,-110,-82,-75
-18,-53,-34,36,8,-44,8,-18,-94,-116,-85,-77
-21,-51,-29,36,4,-41,8,-23,-100,-117,-85,-77
-23,-49,-25,36,1,-37,8,-25,-102,-115,-83,-77
-26,-46,-19,36,-3,-33,9,-26,-101,-111,-80,-75
-28,-42,-14,35,-7,-28,9,-28,-99,-107,-75,-73
-29,-39,-10,35,-10,-25,8,-29,-97,-104,-71,-71
-30,-38,-7,34,-12,-23,7,-30,-96,-101,-69,-69
-30,-37,-6,34,-13,-22,6,-31,-93,-97,-66,-68
-31,-36,-4,34,-14,-20,4,-31,-91,-92,-63,-65
-31,-34,-2,32,-14,-18,2,-33,-88,-85,-58,-62
-30,-31,0,30,-14,-16,0,-34,-86,-79,-53,-59
-29,-29,0,29,-14,-14,-1,-34,-82,-74,-49,-55
-28,-27,1,28,-14,-14,-2,-34,-78,-70,-45,-52
-27,-26,1,27,-14,-13,-3,-32,-73,-66,-41,-49
-26,-25,1,27,-14,-13,-4,-30,-67,-62,-38,-47
-25,-24,2,25,-14,-12,-5,-27,-60,-57,-35,-44
-23,-21,3,23,-13,-10,-5,-24,-53,-51,-32,-42
-22,-18,4,20,-13,-8,-6,-22,-46,-44,-28,-39
-21,-16,4,18,-12,-6,-6,-20,-40,-38,-26,-37
-20,-14,5,16,-12,-4,-6,-19,-35,-33,-23,-35
-19,-12,6,15,-13,-3,-6,-17,-30,-29,-20,-33
-19,-12,7,15,-14,-2,-6,-16,-26,-27,-19,-31
-19,-11,8,15,-14,-2,-6,-14,-22,-26,-17,-29
-18,-10,8,14,-14,-2,-6,-13,-19,-24,-16,-26
-16,-9,7,13,-12,-1,-6,-12,-16,-21,-14,-24
-15,-8,7,11,-11,-1,-5,-11,-13,-18,-12,-23
-15,-8,8,11,-11,0,-4,-10,-10,-15,-11,-22
-14,-7,7,10,-11,0,-4,-8,-8,-14,-11,-21
-14,-7,7,10,-10,0,-4,-7,-7,-12,-11,-20
-13,-7,6,10,-10,0,-4,-7,-6,-11,-10,-20
-13,-8,5,11,-9,-1,-4,-7,-5,-11,-10,-20
-13,-9,5,11,-9,-2,-4,-7,-5,-11,-11,-20
-13,-8,5,11,-9,-2,-4,-6,-4,-11,-11,-20
-13,-8,5,10,-9,-2,-4,-5,-3,-10,-10,-20
-13,-8,5,10,-9,-2,-4,-5,-3,-9,-10,-20
-13,-8,4,10,-9,-2,-4,-4,-3,-9,-10,-20
-12,-7,4,10,-8,-1,-3,-4,-2,-9,-10,-19
-11,-6,4,9,-7,-1,-3,-3,-2,-9,-9,-19
-11,-7,4,9,-7,-2,-3,-3,-2,-9,-9,-19
-11,-8,4,10,-8,-2,-2,-3,-2,-9,-9,-19
-11,-7,4,9,-8,-2,-2,-3,-2,-9,-9,-19
-11,-7,4,9,-7,-2,-2,-2,-1,-9,-9,-18
-12,-8,4,10,-7,-2,-2,-2,-1,-9,-9,-17
-13,-8,4,10,-7,-3,-2,-2,-1,-9,-9,-16
-13,-8,3,10,-7,-3,-2,-2,0,-8,-9,-15
-12,-8,3,10,-7,-2,-1,-2,0,-7,-8,-14
-11,-8,3,10,-7,-2,-1,-2,0,-7,-8,-12
-11,-8,3,10,-7,-2,-1,-2,0,-7,-9,-11
-11,-8,3,9,-7,-2,-2,-2,0,-7,-9,-11
-11,-8,2,9,-7,-2,-3,-2,0,-7,-10,-10
-11,-8,3,10,-7,-2,-3,-2,0,-7,-10,-10
-11,-7,3,9,-7,-2,-3,-2,0,-7,-10,-10
-10,-7,3,9,-7,-2,-4,-3,0,-7,-10,-10
-10,-8,3,9,-7,-2,-4,-3,0,-8,-11,-10
-11,-8,3,9,-7,-2,-4,-3,0,-8,-11,-10
-11,-9,3,9,-7,-3,-3,-3,0,-8,-11,-10
-11,-8,3,9,-7,-3,-3,-3,0,-8,-11,-10
-11,-8,4,9,-7,-2,-3,-3,0,-8,-11,-10
-12,-8,4,10,-8,-2,-3,-3,0,-8,-12,-11
-12,-9,3,10,-8,-3,-4,-4,0,-8,-12,-11
-12,-9,3,10,-8,-3,-6,-4,-1,-9,-13,-12
-12,-8,3,10,-8,-2,-6,-4,-1,-9,-13,-12
-12,-8,4,10,-8,-2,-6,-4,-2,-10,-13,-12
-12,-8,4,10,-8,-2,-6,-4,-2,-10,-13,-13
-12,-9,3,11,-8,-2,-6,-4,-2,-10,-13,-13
-11,-9,3,11,-8,-3,-6,-4,-3,-11,-13,-13
-11,-9,3,10,-8,-3,-5,-4,-3,-11,-13,-14
-11,-9,3,10,-8,-2,-5,-4,-3,-11,-13,-14
-11,-9,3,10,-8,-2,-5,-4,-3,-11,-13,-15
-11,-9,3,10,-7,-3,-6,-4,-3,-11,-14,-15
-11,-10,2,10,-7,-3,-6,-4,-3,-11,-14,-16
-11,-10,2,10,-7,-3,-5,-4,-3,-11,-15,-16
-11,-10,3,10,-7,-3,-5,-4,-3,-12,-15,-17
-11,-10,3,10,-8,-3,-5,-4,-3,-12,-16,-18
-12,-10,3,11,-8,-3,-5,-4,-4,-13,-16,-19
-12,-10,3,11,-8,-3,-5,-4,-4,-13,-17,-20
-11,-9,3,10,-7,-3,-4,-4,-4,-13,-17,-21
-11,-8,3,10,-7,-2,-4,-4,-4,-13,-17,-21
-11,-9,4,10,-7,-2,-4,-4,-4,-13,-18,-22
-12,-9,4,11,-8,-2,-4,-4,-5,-14,-18,-23
-12,-8,4,10,-8,-2,-5,-4,-5,-14,-19,-24
-12,-8,4,10,-8,-2,-5,-4,-5,-14,-19,-25
-11,-8,4,10,-8,-2,-5,-4,-5,-15,-20,-26
-10,-8,4,9,-8,-1,-5,-4,-5,-15,-20,-26
-10,-8,4,9,-8,-2,-5,-4,-5,-15,-21,-27
-10,-8,3,9,-7,-2,-6,-5,-6,-16,-22,-27
-10,-9,3,9,-7,-3,-6,-5,-6,-16,-22,-28
-10,-8,3,9,-7,-2,-6,-5,-6,-16,-23,-28
-10,-8,4,9,-7,-2,-5,-5,-5,-16,-23,-28
-10,-8,4,9,-7,-1,-5,-5,-5,-16,-23,-29
-11,-8,4,9,-7,-1,-6,-5,-6,-17,-24,-30
-11,-8,4,9,-8,0,-7,-5,-6,-17,-24,-30
-11,-7,4,9,-8,0,-7,-5,-6,-17,-25,-31
-11,-7,5,9,-8,0,-7,-5,-7,-18,-25,-31
-11,-7,5,10,-9,0,-8,-6,-7,-18,-26,-31
-12,-7,6,10,-9,0,-8,-6,-7,-18,-27,-31
-11,-6,6,9,-9,0,-9,-6,-7,-18,-28,-31
-10,-5,6,8,-8,0,-9,-6,-8,-18,-28,-31
-10,-5,6,8,-8,0,-11,-7,-8,-19,-29,-31
-10,-6,6,8,-8,0,-12,-7,-9,-19,-30,-31
-10,-5,6,7,-8,1,-12,-7,-8,-19,-30,-30
-9,-3,6,6,-8,1,-11,-6,-8,-19,-30,-29
-8,-2,6,5,-7,2,-11,-6,-7,-18,-30,-29
-8,-2,7,5,-7,2,-12,-7,-7,-18,-30,-28
-8,-2,8,5,-8,3,-12,-7,-7,-18,-31,-28
-9,-1,8,5,-8,4,-13,-7,-7,-18,-31,-27
-8,-1,8,5,-8,4,-14,-8,-8,-18,-31,-26
-8,0,8,4,-8,4,-14,-8,-8,-18,-31,-25
-7,0,8,4,-8,4,-15,-9,-8,-18,-32,-24
-7,0,8,4,-8,4,-15,-9,-8,-18,-32,-23
-6,1,9,3,-8,5,-16,-9,-8,-17,-32,-22
-7,2,10,3,-9,6,-16,-9,-8,-17,-32,-20
-6,3,10,2,-8,6,-17,-9,-8,-16,-33,-19
-5,4,10,1,-8,6,-17,-10,-8,-16,-33,-18
-5,4,10,0,-8,7,-18,-10,-7,-15,-33,-17
-5,4,10,0,-8,8,-18,-10,-7,-14,-33,-15
-4,5,10,0,-8,9,-18,-10,-6,-13,-32,-13
-4,6,11,0,-8,9,-19,-10,-6,-12,-32,-11
-5,5,11,0,-8,8,-19,-11,-6,-11,-32,-9
-5,5,11,0,-9,8,-19,-11,-6,-11,-33,-7
-5,6,12,-1,-9,9,-19,-11,-6,-10,-32,-5
-3,8,12,-3,-8,10,-20,-11,-6,-8,-31,-2
-2,9,12,-4,-7,11,-20,-11,-5,-6,-30,0
-2,9,12,-4,-7,11,-20,-11,-5,-5,-30,3
-2,9,12,-4,-7,11,-20,-10,-4,-3,-29,6
-1,10,12,-5,-7,11,-20,-10,-3,-1,-28,9
0,11,12,-6,-6,12,-20,-9,-2,1,-27,11
0,11,12,-6,-6,12,-20,-9,-1,3,-27,13
0,11,12,-6,-6,11,-21,-9,0,5,-26,15
0,11,12,-6,-6,11,-21,-9,0,7,-25,17
0,11,12,-6,-6,11,-20,-8,1,9,-24,20
0,12,12,-6,-6,12,-20,-7,3,11,-23,22
0,12,12,-6,-6,12,-19,-6,4,13,-22,24
0,12,12,-6,-6,12,-19,-5,6,14,-22,26
1,12,12,-6,-6,12,-19,-5,7,16,-22,27
1,12,11,-6,-6,12,-19,-4,8,17,-21,28
1,12,11,-6,-5,11,-18,-3,9,18,-21,29
2,12,10,-6,-5,11,-17,-1,10,19,-21,30
2,12,10,-7,-4,11,-16,0,10,19,-21,31
2,11,9,-7,-4,10,-16,1,11,19,-21,32
2,10,9,-6,-3,9,-16,1,11,19,-22,32
2,9,8,-5,-3,9,-15,2,11,19,-22,33
2,9,7,-5,-2,8,-14,2,11,19,-22,33
1,8,7,-4,-2,7,-14,3,11,19,-23,33
0,7,6,-4,-2,6,-13,3,10,18,-24,32
1,7,6,-4,-2,6,-12,4,10,18,-24,32
1,7,5,-5,-1,6,-11,5,10,17,-25,31
2,6,5,-5,-1,5,-10,6,10,17,-25,31
1,5,4,-4,-1,5,-10,6,9,17,-26,31
1,5,4,-3,-1,4,-10,7,9,17,-26,31
1,4,4,-3,-1,4,-9,7,9,16,-27,31
1,4,3,-3,-1,3,-9,7,8,15,-27,30
1,3,2,-2,0,2,-8,8,8,14,-28,29
1,3,1,-2,0,2,-8,8,7,13,-29,29
0,2,1,-1,0,1,-8,8,6,12,-30,28
0,1,0,-1,0,0,-7,8,5,11,-31,28
0,0,0,-1,0,0,-7,8,4,11,-31,27
2,1,0,-1,1,0,-6,8,4,11,-31,27
3,1,-1,-2,2,0,-5,8,4,10,-31,26
3,1,-1,-1,2,0,-5,8,3,10,-31,25
2,0,-1,0,2,-1,-6,8,2,9,-32,24
2,0,-1,0,2,-1,-6,8,2,8,-32,24
3,0,-2,-1,2,-1,-6,9,1,8,-32,23
3,0,-2,-1,2,-2,-5,9,1,7,-32,23
3,0,-3,-1,2,-2,-5,9,1,7,-32,22
3,-1,-3,0,3,-3,-5,9,1,6,-33,21
2,-2,-3,0,3,-3,-5,9,0,5,-33,20
2,-3,-3,0,3,-3,-5,9,0,5,-33,19
2,-3,-4,0,3,-3,-4,9,0,4,-33,18
3,-3,-4,0,4,-3,-4,9,0,4,-33,17
3,-2,-4,0,4,-3,-4,10,0,4,-32,17
4,0,-4,-2,4,-2,-4,10,0,4,-32,16
5,0,-4,-2,4,-2,-3,10,0,4,-32,16
4,-1,-4,-2,4,-3,-3,10,0,4,-32,14
4,-1,-5,-2,4,-3,-3,10,0,4,-31,13
4,-1,-5,-2,4,-3,-3,10,0,4,-31,12
4,-2,-5,-1,4,-3,-3,10,-1,3,-31,11
3,-3,-5,0,4,-4,-3,10,-1,3,-31,10
3,-3,-5,0,4,-4,-3,10,-2,2,-30,9
2,-3,-5,0,4,-4,-3,9,-2,2,-30,8
3,-2,-5,0,4,-4,-2,10,-2,2,-29,7
4,-2,-5,-1,5,-4,-2,11,-2,2,-28,6
5,-2,-6,-2,6,-4,-2,11,-2,2,-27,6
5,-2,-6,-2,6,-4,-2,12,-2,2,-26,5
5,-2,-6,-2,6,-4,-1,12,-2,2,-25,5
5,-2,-6,-2,6,-3,-1,12,-2,2,-25,4
5,-2,-6,-2,6,-3,-1,12,-2,3,-24,4
5,-2,-7,-1,6,-4,-1,12,-2,3,-24,4
5,-2,-7,-1,6,-4,0,13,-2,3,-23,4
5,-2,-7,-1,6,-4,0,13,-2,3,-22,4
5,-2,-7,-1,6,-5,0,13,-3,3,-21,4
5,-2,-7,-1,6,-5,-1,13,-3,3,-21,5
6,-2,-7,-1,6,-5,-1,13,-3,3,-20,5
6,-2,-7,-1,6,-5,0,13,-3,3,-20,5
6,-2,-7,-2,7,-5,0,13,-3,3,-19,5
6,-2,-7,-2,7,-5,0,13,-4,3,-19,4
6,-2,-7,-2,6,-5,0,13,-4,3,-18,4
6,-2,-6,-2,6,-4,0,13,-4,4,-18,4
6,-2,-6,-2,6,-4,0,13,-4,4,-18,3
6,-2,-6,-2,6,-4,0,13,-4,4,-18,2
6,-1,-6,-2,6,-4,0,13,-4,4,-18,1
6,-1,-6,-3,6,-3,-1,13,-3,4,-18,1
7,0,-6,-3,6,-3,-1,13,-2,5,-17,0
7,0,-6,-4,6,-2,-1,13,-2,5,-17,0
7,0,-6,-4,6,-2,-1,12,-2,5,-17,0
7,1,-6,-4,6,-2,-1,12,-2,6,-16,0
8,1,-6,-5,7,-2,-2,12,-2,6,-16,0
9,2,-6,-6,7,-1,-2,12,-2,7,-15,0
10,4,-5,-7,7,-1,-2,12,-2,8,-14,0
10,4,-5,-7,7,0,-3,12,-2,9,-13,0
9,4,-4,-7,6,0,-4,11,-1,9,-13,0
9,5,-3,-7,6,0,-4,10,-1,10,-12,0
10,7,-3,-9,6,2,-4,10,0,12,-10,0
11,9,-2,-10,7,3,-4,9,1,13,-9,1
12,10,-1,-11,7,4,-5,9,2,15,-7,2
12,12,0,-12,6,6,-6,8,3,17,-5,3
13,14,2,-13,5,8,-7,7,4,19,-2,5
13,16,4,-15,4,10,-9,5,5,21,0,6
14,19,6,-17,4,12,-10,3,5,24,2,8
15,22,8,-18,3,15,-11,1,6,26,5,10
15,25,11,-20,2,17,-13,-1,6,29,8,12
14,28,14,-21,0,21,-14,-3,6,32,11,15
14,30,18,-22,-2,24,-15,-5,7,35,14,18
13,34,22,-23,-5,28,-16,-7,8,39,18,20
13,38,26,-25,-7,32,-17,-8,9,42,22,23
13,42,31,-27,-9,36,-18,-10,10,46,26,26
13,46,35,-29,-11,40,-19,-11,12,50,29,29
12,50,39,-31,-13,44,-19,-12,14,54,33,32
12,55,44,-33,-16,49,-20,-13,17,59,37,36
11,60,49,-35,-19,55,-20,-14,21,65,42,40
11,65,55,-38,-22,60,-21,-15,26,71,47,44
11,70,61,-40,-25,65,-22,-15,30,78,52,47
10,75,66,-42,-28,70,-22,-15,36,85,57,51
10,79,71,-44,-31,75,-22,-14,41,91,62,53
8,84,76,-46,-34,79,-21,-13,47,97,66,56
7,88,80,-47,-37,84,-20,-12,53,102,70,59
7,92,84,-49,-39,88,-19,-10,58,107,73,61
6,95,88,-51,-41,91,-17,-8,63,111,75,62
5,97,92,-51,-44,95,-14,-6,69,116,78,64
4,100,97,-52,-47,99,-12,-3,75,121,81,66
4,105,101,-55,-49,103,-9,-1,82,127,85,68
3,108,105,-56,-51,107,-7,0,88,133,89,70
0,109,109,-55,-54,109,-5,1,93,138,92,71
-1,111,113,-55,-57,112,-4,1,96,144,96,73
-3,114,116,-55,-60,115,-3,-1,95,150,100,75
-4,118,121,-57,-62,119,-3,-7,89,156,105,78
-3,123,126,-60,-65,124,-6,-14,81,165,111,82
-1,130,132,-64,-67,131,-9,-23,73,176,120,87
0,138,139,-69,-70,138,-14,-32,64,187,129,93
1,145,145,-73,-72,145,-21,-43,53,198,139,99
1,151,151,-76,-74,150,-29,-53,42,207,147,104
2,157,155,-80,-76,155,-36,-62,31,215,154,108
2,162,159,-83,-78,160,-43,-70,22,223,161,113
3,167,164,-85,-80,165,-50,-78,14,230,168,117
3,172,169,-88,-83,170,-57,-87,4,237,174,121
4,179,175,-91,-86,177,-65,-96,-6,242,181,126
5,186,182,-96,-89,184,-72,-105,-17,247,187,131
5,193,189,-99,-92,191,-79,-114,-28,249,192,136
4,198,194,-101,-95,196,-86,-121,-40,246,193,138
4,199,195,-102,-95,197,-91,-127,-53,235,189,137
4,197,193,-101,-94,195,-94,-131,-68,216,181,134
4,190,186,-97,-91,188,-95,-133,-82,191,167,128
4,180,176,-92,-86,177,-94,-133,-96,159,149,120
4,166,163,-85,-80,164,-92,-131,-110,121,127,109
4,151,148,-77,-73,149,-89,-127,-121,83,105,98
4,136,133,-70,-65,134,-86,-121,-129,52,86,88
3,120,119,-62,-58,119,-83,-115,-133,28,70,78
3,106,104,-55,-50,105,-79,-107,-132,9,56,69
5,94,90,-49,-43,91,-73,-97,-127,-5,43,60
5,81,76,-43,-36,78,-66,-86,-120,-16,31,51
5,68,63,-36,-30,65,-58,-75,-112,-25,19,42
6,57,52,-31,-24,54,-50,-64,-101,-30,9,34
7,47,42,-27,-19,44,-42,-54,-90,-34,0,26
6,38,33,-22,-15,35,-35,-45,-80,-37,-7,18
4,29,26,-17,-12,28,-29,-37,-71,-38,-14,12
4,23,20,-14,-8,22,-24,-29,-63,-38,-18,7
5,19,14,-13,-4,17,-19,-21,-54,-36,-21,4
7,15,8,-12,0,12,-14,-14,-46,-34,-22,2
9,9,0,-9,4,5,-8,-6,-37,-32,-24,-1
9,2,-7,-5,7,-2,-3,0,-29,-29,-26,-4
9,-4,-12,-3,10,-7,1,6,-23,-28,-28,-7
10,-8,-16,-1,12,-11,3,9,-19,-27,-30,-9
10,-10,-19,0,14,-14,6,12,-16,-26,-30,-10
10,-12,-21,0,15,-16,8,15,-13,-25,-30,-11
10,-13,-23,1,16,-18,9,17,-12,-24,-30,-11
11,-13,-24,1,17,-19,9,18,-11,-24,-31,-12
12,-13,-25,1,18,-19,9,18,-10,-24,-31,-12
12,-14,-25,1,18,-20,10,19,-9,-24,-31,-12
11,-15,-26,2,18,-21,11,19,-8,-24,-31,-12
12,-16,-26,2,18,-22,12,20,-7,-23,-31,-12
12,-16,-27,1,19,-22,12,20,-6,-23,-31,-12
12,-16,-27,1,19,-22,12,21,-5,-23,-31,-13
12,-16,-28,1,20,-22,13,21,-4,-23,-31,-13
13,-15,-28,1,20,-22,13,22,-4,-23,-31,-14
13,-15,-28,1,20,-22,13,21,-4,-23,-31,-15
12,-16,-28,2,19,-22,12,21,-4,-23,-32,-15
12,-17,-29,2,20,-23,12,21,-4,-24,-32,-16
13,-18,-30,2,21,-24,12,21,-3,-24,-32,-16
12,-19,-30,3,21,-24,12,21,-3,-24,-32,-17
11,-20,-30,4,20,-25,12,20,-3,-24,-32,-18
11,-21,-31,4,21,-26,12,20,-3,-25,-33,-19
12,-21,-33,4,22,-27,12,19,-3,-25,-33,-19
13,-21,-34,3,23,-27,12,19,-3,-25,-33,-19
14,-21,-35,3,23,-28,11,19,-3,-25,-33,-19
14,-21,-35,3,24,-28,11,19,-3,-25,-33,-20
15,-21,-36,3,25,-29,10,19,-3,-26,-33,-20
15,-22,-36,3,25,-29,9,18,-3,-27,-34,-21
13,-24,-37,5,24,-30,8,17,-4,-28,-35,-22
12,-25,-37,6,25,-31,8,17,-5,-29,-35,-22
13,-25,-38,5,26,-31,9,18,-5,-30,-35,-22
15,-25,-39,4,27,-32,10,18,-5,-30,-35,-22
15,-26,-40,5,27,-33,10,18,-5,-31,-36,-22
14,-27,-41,6,27,-34,9,17,-6,-32,-37,-22
14,-28,-41,7,27,-35,10,17,-6,-33,-37,-22
14,-29,-42,7,27,-35,10,17,-6,-33,-37,-21
14,-29,-42,7,28,-36,11,17,-6,-34,-37,-21
13,-30,-43,8,28,-37,12,17,-6,-35,-38,-22
13,-31,-43,9,28,-37,12,18,-6,-36,-38,-22
13,-31,-44,8,28,-38,12,18,-6,-36,-38,-22
14,-31,-44,8,29,-38,12,19,-6,-37,-38,-22
15,-32,-45,8,29,-39,12,19,-6,-38,-39,-23
15,-34,-47,9,30,-40,13,19,-7,-39,-40,-23
15,-35,-48,10,30,-41,13,20,-7,-40,-40,-24
14,-36,-49,11,30,-42,14,20,-7,-41,-41,-24
12,-37,-49,12,30,-43,15,20,-8,-42,-41,-25
11,-38,-49,13,30,-44,15,19,-8,-43,-42,-25
11,-39,-49,14,30,-45,15,19,-9,-44,-43,-26
11,-40,-50,14,30,-46,16,20,-9,-45,-43,-27
11,-41,-51,15,31,-46,17,20,-9,-46,-44,-27
11,-42,-52,15,31,-47,18,21,-10,-47,-45,-28
11,-43,-54,16,32,-48,18,21,-10,-47,-46,-28
12,-44,-55,16,32,-49,19,22,-10,-48,-47,-29
12,-44,-56,16,33,-50,19,22,-10,-50,-48,-29
12,-45,-57,16,34,-52,19,23,-10,-51,-49,-30
12,-47,-58,17,35,-53,19,23,-10,-53,-50,-31
12,-48,-59,17,35,-54,20,24,-11,-54,-51,-32
12,-50,-61,18,36,-55,20,24,-11,-55,-53,-33
13,-51,-62,18,37,-57,21,25,-11,-55,-54,-34
13,-52,-64,19,38,-58,21,27,-11,-56,-55,-35
13,-53,-65,19,38,-59,22,28,-10,-57,-56,-35
13,-53,-66,20,39,-60,23,29,-10,-58,-57,-36
13,-54,-67,20,40,-61,24,30,-9,-59,-59,-37
14,-56,-69,20,41,-62,24,30,-9,-61,-60,-38
13,-58,-70,21,42,-64,25,31,-9,-62,-62,-39
13,-59,-72,23,42,-65,26,32,-9,-63,-63,-40
13,-61,-73,23,43,-67,27,33,-8,-64,-65,-41
14,-62,-75,24,44,-68,27,34,-8,-66,-66,-42
15,-63,-77,24,45,-70,27,35,-8,-67,-68,-43
15,-64,-79,24,46,-71,27,36,-8,-68,-69,-44
16,-65,-81,24,48,-73,28,37,-7,-70,-71,-45
16,-66,-82,24,48,-74,29,38,-7,-71,-72,-45
16,-68,-83,25,49,-75,29,39,-6,-72,-74,-46
16,-69,-85,26,50,-77,30,40,-6,-73,-75,-47
17,-71,-86,26,51,-78,31,41,-5,-74,-76,-47
17,-72,-87,27,52,-79,32,42,-5,-75,-77,-48
17,-73,-89,27,53,-80,32,43,-5,-76,-79,-49
17,-73,-90,27,53,-81,33,44,-5,-78,-80,-50
17,-74,-92,28,54,-83,33,44,-5,-79,-81,-50
18,-75,-93,28,55,-84,34,45,-5,-81,-82,-51
18,-76,-94,28,56,-85,35,46,-4,-82,-83,-51
18,-77,-96,29,57,-87,36,47,-3,-83,-84,-52
19,-78,-97,29,58,-88,36,48,-3,-83,-85,-52
19,-79,-98,29,58,-89,35,49,-2,-84,-86,-52
18,-81,-98,30,58,-90,36,50,-1,-85,-87,-52
18,-82,-99,31,58,-90,37,51,0,-85,-88,-52
18,-82,-99,32,58,-91,38,52,0,-86,-89,-52
18,-83,-100,32,58,-91,38,52,0,-87,-90,-53
18,-83,-100,32,58,-91,38,53,1,-88,-91,-53
17,-83,-100,32,58,-92,39,55,3,-88,-91,-52
17,-83,-100,32,58,-92,39,56,3,-88,-92,-52
17,-84,-100,33,58,-92,40,56,4,-88,-92,-52
17,-84,-100,33,58,-92,40,57,5,-88,-92,-51
17,-84,-99,33,57,-91,41,57,6,-88,-92,-51
16,-84,-98,33,57,-91,41,58,7,-88,-92,-50
16,-83,-98,33,56,-91,42,58,8,-88,-92,-49
15,-82,-97,33,56,-90,43,59,9,-88,-92,-49
15,-81,-96,33,55,-89,43,59,10,-87,-91,-48
14,-81,-95,33,54,-88,44,60,11,-86,-90,-47
14,-81,-94,33,54,-87,44,60,12,-85,-90,-47
13,-80,-93,33,53,-86,44,60,13,-84,-89,-46
13,-79,-91,32,52,-84,44,60,13,-83,-88,-45
13,-77,-89,32,50,-83,44,60,14,-81,-86,-44
13,-76,-87,31,49,-81,44,59,15,-79,-85,-43
12,-75,-85,31,47,-80,44,59,15,-77,-83,-42
11,-73,-82,31,46,-78,44,58,17,-75,-82,-42
10,-72,-80,30,44,-76,44,58,18,-73,-80,-41
9,-70,-78,29,43,-74,44,57,19,-71,-79,-40
9,-68,-76,29,42,-71,44,56,20,-68,-77,-39
9,-65,-73,28,40,-69,44,55,22,-65,-75,-38
9,-62,-70,27,39,-66,43,54,23,-62,-72,-36
9,-61,-68,26,38,-64,42,53,23,-59,-70,-35
8,-59,-66,25,36,-62,41,51,24,-56,-67,-34
7,-57,-63,25,34,-60,40,50,24,-53,-65,-33
6,-54,-60,23,33,-58,39,48,25,-50,-62,-32
6,-52,-58,22,32,-55,38,47,25,-47,-60,-31
6,-50,-55,21,30,-52,37,45,25,-44,-58,-30
5,-48,-52,21,28,-49,36,43,25,-41,-56,-29
5,-45,-49,20,26,-46,35,41,25,-38,-53,-28
5,-42,-46,18,25,-44,34,40,25,-34,-50,-27
5,-40,-43,17,23,-41,32,38,25,-31,-47,-25
4,-37,-40,16,22,-39,31,36,24,-28,-44,-24
4,-35,-38,14,20,-36,30,34,24,-26,-42,-24
4,-32,-35,13,19,-34,29,32,23,-23,-39,-23
3,-30,-32,12,17,-31,27,30,23,-21,-37,-22
3,-28,-30,12,16,-29,25,29,22,-19,-35,-21
3,-26,-27,11,15,-26,24,27,22,-16,-33,-20
3,-24,-25,10,13,-24,23,26,21,-14,-30,-19
2,-22,-23,10,12,-23,22,24,20,-12,-28,-18
2,-21,-22,9,11,-22,21,23,19,-11,-26,-17
1,-20,-20,8,10,-21,19,21,17,-9,-24,-17
2,-18,-19,6,10,-19,17,19,16,-8,-23,-16
3,-15,-16,5,9,-16,17,18,16,-6,-21,-14
2,-13,-14,5,8,-13,16,17,16,-4,-19,-13
1,-12,-12,5,6,-12,16,15,15,-3,-17,-13
2,-10,-10,4,6,-10,15,14,14,-2,-16,-12
4,-7,-9,1,6,-8,14,14,13,0,-14,-11
4,-5,-8,0,5,-7,13,13,12,0,-13,-10
4,-5,-7,0,5,-6,12,12,11,1,-12,-10
3,-4,-6,0,4,-5,12,11,11,1,-11,-10
2,-4,-5,0,3,-4,11,9,10,2,-10,-10
2,-3,-4,0,3,-3,9,8,9,2,-10,-9
3,-2,-4,-1,3,-2,9,7,8,3,-9,-8
5,0,-3,-2,4,-1,8,6,8,4,-7,-7
5,1,-3,-3,3,0,8,6,8,4,-6,-6
5,2,-2,-3,2,0,8,6,8,5,-5,-6
4,2,-1,-3,2,0,8,6,7,5,-5,-5
4,2,-1,-3,1,0,8,5,7,5,-4,-5
3,2,0,-3,1,0,8,5,6,5,-4,-5
2,2,0,-2,0,0,7,4,6,5,-4,-5
2,2,1,-2,0,1,8,4,5,6,-3,-5
3,3,1,-3,0,2,8,5,5,6,-2,-5
3,3,1,-4,0,2,8,4,5,6,-2,-5
3,3,1,-4,0,2,7,4,5,6,-2,-5
3,4,1,-4,0,2,7,4,4,6,-2,-5
3,4,1,-4,0,2,7,4,4,6,-2,-5
3,4,1,-4,0,2,6,4,4,6,-2,-4
4,5,1,-5,0,2,6,4,4,6,-2,-4
5,6,1,-6,1,3,6,4,4,7,-2,-4
6,6,1,-6,1,3,6,3,4,7,-2,-4
5,6,2,-6,1,4,6,3,4,6,-2,-4
5,6,3,-6,0,4,6,3,4,6,-2,-4
4,5,3,-5,0,3,7,3,4,6,-2,-3
3,5,2,-5,0,3,6,3,4,6,-2,-3
5,6,2,-6,1,3,5,3,4,6,-1,-3
5,6,1,-6,1,4,4,3,4,6,-1,-3
4,5,1,-5,1,3,4,3,3,6,-2,-3
3,4,1,-4,0,3,4,3,3,5,-2,-3
3,4,1,-4,0,3,4,3,3,5,-1,-3
3,4,1,-4,0,3,4,3,3,5,-1,-2
4,4,2,-5,0,3,4,3,3,6,0,-2
4,5,2,-5,0,3,4,3,3,6,0,-2
4,5,3,-5,0,4,4,4,4,6,0,-2
4,5,3,-5,0,4,4,4,4,6,0,-1
4,5,3,-5,0,4,4,4,4,6,0,-1
4,5,3,-4,0,4,4,4,4,6,0,0
3,5,3,-4,0,4,3,4,4,6,0,0
3,4,3,-4,-1,4,2,4,3,6,0,0
3,4,3,-4,-1,4,2,4,3,6,0,0
3,4,3,-4,-1,3,2,4,3,6,0,0
3,4,3,-4,0,3,2,4,3,6,1,0
3,4,2,-4,0,3,2,4,3,6,1,1
3,4,2,-4,0,3,2,4,3,6,1,2
3,4,2,-4,0,3,3,4,3,6,2,2
3,4,2,-4,0,3,3,4,2,6,2,2
4,4,2,-4,0,3,2,4,2,6,2,3
4,4,2,-4,0,3,2,4,2,6,3,3
4,4,2,-4,0,3,1,4,2,7,3,3
4,5,2,-5,0,3,1,4,2,7,3,4
4,5,2,-5,0,3,1,4,2,7,3,4
3,4,2,-4,0,3,1,5,2,7,3,5
3,4,2,-4,0,2,1,5,2,7,3,5
3,4,2,-3,0,2,1,5,2,7,3,5
3,4,2,-3,0,2,0,5,2,7,3,5
4,4,2,-4,0,2,0,5,2,6,3,5
4,5,2,-4,0,3,0,5,1,6,3,5
4,5,2,-5,0,3,0,5,1,6,3,5
4,5,1,-5,0,3,1,4,1,6,3,6
4,5,1,-5,0,3,1,4,1,6,3,6
4,5,1,-5,0,3,1,4,2,6,4,7
4,5,2,-5,0,3,1,4,2,6,4,7
3,4,2,-4,0,3,0,3,2,6,4,7
3,4,2,-4,0,2,0,3,2,6,4,7
3,3,1,-3,0,2,0,3,3,6,4,8
3,4,1,-4,0,2,0,3,3,6,4,8
4,4,1,-4,0,2,-1,3,2,6,3,7
4,5,2,-5,0,3,0,3,2,6,3,7
4,6,2,-5,-1,3,0,3,2,6,4,7
4,6,2,-5,-1,3,-1,3,2,6,4,7
4,5,2,-5,-1,3,-1,3,2,6,4,7
4,6,2,-5,0,3,0,3,2,5,3,7
4,6,3,-5,0,4,0,3,2,5,3,7
3,6,3,-4,-1,4,-1,2,2,5,3,7
3,5,3,-4,-1,4,0,2,2,5,3,7
3,5,3,-4,-1,3,0,2,2,5,3,7
3,5,2,-4,-1,3,0,2,2,5,2,6
3,5,2,-4,-1,3,0,1,1,5,2,6
4,5,2,-4,-1,3,-1,0,1,5,2,5
4,5,3,-4,-1,3,-2,0,1,5,2,4
4,6,3,-4,-1,4,-1,1,1,5,2,4
4,6,3,-5,-1,4,0,1,2,5,2,4
4,6,3,-5,-1,4,0,1,2,5,2,4
3,5,3,-4,-1,3,-1,1,1,4,1,4
2,5,3,-4,-1,3,-2,0,1,4,1,4
2,5,4,-4,-2,3,-2,0,1,4,1,4
2,5,4,-4,-2,4,-2,1,1,4,2,3
3,6,3,-5,-1,4,-1,1,1,4,2,3
4,6,3,-5,-1,4,-2,0,1,4,2,3
4,6,3,-5,-1,4,-2,0,1,4,2,3
3,5,3,-4,-1,4,-3,0,1,4,2,3
3,5,3,-4,-2,4,-3,0,1,4,2,3
2,5,3,-4,-2,5,-3,0,1,4,2,3
3,6,3,-4,-1,5,-3,0,1,4,2,2
3,6,3,-4,-1,5,-3,0,1,4,2,2
3,6,3,-4,-1,5,-3,0,1,4,2,2
3,7,3,-5,-1,5,-3,0,1,4,2,2
3,7,3,-5,-1,4,-3,0,1,4,2,1
3,6,3,-5,-1,4,-4,0,1,4,2,1
3,6,3,-4,-1,4,-4,0,1,5,2,1
2,5,3,-4,-1,4,-4,0,1,5,2,1
2,5,3,-4,-1,4,-4,0,1,4,2,1
2,5,3,-4,-1,4,-4,-1,1,4,2,1
2,5,3,-4,-1,4,-4,-1,1,4,2,1
2,4,3,-3,-2,4,-4,-1,1,4,2,1
2,4,4,-3,-3,4,-4,-1,1,4,2,1
1,5,4,-3,-3,4,-4,-1,1,4,1,1
1,5,4,-3,-3,4,-5,-1,0,4,1,1
2,5,4,-3,-2,4,-5,-1,0,3,1,1
2,5,3,-4,-2,4,-5,-1,0,3,1,1
3,5,3,-4,-1,4,-5,-1,0,4,2,1
3,6,3,-4,-1,5,-5,-1,0,4,1,1
3,6,3,-4,-1,5,-5,-2,1,4,1,1
3,6,3,-4,-1,5,-5,-2,1,4,1,1
2,5,3,-3,-2,4,-5,-2,1,4,1,1
1,5,3,-3,-2,4,-5,-2,1,4,1,1
1,5,4,-3,-3,5,-6,-1,1,3,1,1
1,5,4,-3,-3,5,-6,-1,1,3,1,1
1,5,4,-3,-3,5,-5,-1,1,3,1,1
1,5,4,-3,-3,5,-5,-1,1,3,1,1
1,4,4,-3,-3,5,-5,-1,0,3,1,1
1,4,4,-3,-3,5,-6,-1,0,3,1,1
1,4,3,-3,-3,4,-6,-1,0,3,1,1
1,4,3,-3,-3,4,-6,-1,0,3,1,2
0,4,3,-2,-3,4,-6,-1,0,3,1,2
0,4,3,-2,-3,4,-6,-1,0,2,1,2
0,4,3,-2,-3,4,-6,-1,0,2,1,2
0,4,3,-2,-3,4,-6,-1,0,2,1,2
0,4,3,-2,-3,4,-6,-1,0,2,1,2
0,4,3,-2,-3,4,-6,-1,1,3,1,2
1,5,3,-3,-2,5,-6,-1,1,3,1,3
1,5,3,-3,-2,4,-6,-1,1,3,1,3
0,4,3,-2,-2,3,-7,-2,1,3,1,2
0,3,3,-1,-3,3,-7,-2,1,2,0,2
0,3,4,-1,-3,3,-6,-1,1,2,1,2
0,4,4,-1,-3,4,-6,-1,1,3,1,2
0,4,4,-2,-2,4,-6,-1,1,3,1,2
0,3,4,-1,-3,4,-6,-1,1,3,1,2
-2,2,4,0,-4,3,-7,-2,1,2,0,1
-3,1,4,1,-4,3,-8,-2,0,2,0,1
-4,0,4,2,-5,2,-8,-2,0,1,0,0
-4,0,4,2,-5,2,-8,-2,0,1,0,0
-2,1,4,0,-4,2,-7,-1,1,2,0,1
0,3,4,-1,-3,3,-7,-1,1,2,0,1
0,4,4,-2,-2,4,-7,-1,1,2,0,2
1,4,4,-3,-2,4,-7,-1,1,2,0,2
0,4,4,-2,-2,4,-7,-1,1,2,0,2
0,4,4,-2,-2,4,-6,0,1,3,0,3
0,4,4,-2,-2,4,-6,0,1,3,0,3
0,4,4,-2,-2,4,-6,0,1,3,-1,3
1,5,4,-2,-2,4,-6,0,2,4,-1,3
1,5,4,-2,-2,4,-6,0,2,4,-1,3
0,4,4,-1,-2,3,-7,0,1,3,-2,3
0,3,3,-1,-2,3,-8,0,1,3,-2,3
0,3,3,-1,-2,3,-8,0,2,3,-2,3
0,3,3,-1,-2,4,-7,0,2,3,-2,3
-1,3,4,0,-3,4,-7,0,2,4,-2,3
-2,3,4,0,-3,4,-8,0,2,4,-2,3
-2,3,4,0,-3,4,-8,0,2,3,-3,3
-1,3,3,-1,-3,4,-8,0,2,3,-2,3
0,3,3,-1,-3,4,-7,0,2,3,-2,3
-1,2,3,0,-3,4,-7,-1,2,3,-3,3
-2,2,4,0,-3,4,-7,-1,2,3,-3,3
-1,3,4,-1,-3,4,-6,-1,2,3,-3,4
0,4,4,-1,-3,4,-5,0,3,3,-2,4
0,4,4,-1,-3,4,-5,0,3,3,-2,5
-1,3,4,0,-3,3,-6,0,3,3,-2,5
-1,2,4,0,-3,3,-7,-1,2,2,-3,5
-2,1,4,0,-3,3,-7,-1,3,2,-3,5
-3,1,5,1,-4,3,-7,-1,3,2,-3,5
-3,1,5,1,-4,3,-7,-1,3,2,-3,5
-2,1,4,0,-3,3,-7,-1,3,2,-3,5
-1,2,4,0,-3,3,-6,-1,3,2,-2,6
-1,3,4,-1,-3,4,-6,-1,4,3,-2,6
0,4,4,-1,-3,4,-5,-1,4,3,-1,7
0,4,4,-1,-3,4,-5,0,4,3,-1,7
0,4,4,-1,-2,4,-5,0,4,3,-1,7
0,3,4,-1,-2,4,-6,0,4,2,-2,7
-1,2,4,0,-3,4,-7,0,4,2,-2,7
-2,1,4,0,-3,3,-6,0,4,2,-2,6
-2,1,4,0,-3,3,-6,0,3,1,-2,6
-2,1,4,0,-3,3,-6,-1,3,1,-2,6
-2,1,3,0,-3,2,-5,-1,4,0,-2,6
-2,1,3,0,-3,2,-4,0,4,1,-2,6
-2,1,3,0,-3,2,-4,0,4,1,-2,6
-2,1,3,0,-3,2,-5,0,4,2,-2,7
-1,2,3,0,-3,3,-5,0,4,2,-2,7
0,2,3,0,-2,3,-5,0,4,2,-2,7
-1,2,3,0,-2,3,-5,0,4,2,-2,7
-1,2,3,0,-3,3,-5,0,4,2,-3,7
-1,2,3,0,-3,3,-6,0,4,2,-3,7
-1,2,3,0,-3,3,-6,0,5,2,-3,6
-1,2,3,0,-3,3,-5,1,5,2,-3,6
-1,2,3,0,-3,3,-4,1,5,2,-3,6
-1,2,4,0,-3,3,-4,0,5,2,-3,6
-1,2,4,-1,-3,3,-3,0,5,2,-3,6
0,3,4,-2,-3,4,-4,1,5,2,-3,7
0,3,4,-2,-2,4,-6,1,5,2,-3,7
-1,2,4,-1,-3,3,-6,1,5,1,-4,7
-1,1,3,0,-3,2,-5,1,5,1,-4,7
0,1,3,0,-2,2,-5,1,5,1,-4,7
0,2,3,-1,-2,2,-5,1,6,1,-5,7
0,2,3,-1,-2,2,-5,1,6,1,-5,7
0,2,3,0,-2,2,-5,1,6,1,-5,7
0,2,3,0,-2,2,-5,1,6,2,-5,8
0,2,3,-1,-2,3,-5,1,6,2,-5,8
0,2,3,-1,-2,3,-5,1,6,2,-5,7
0,2,3,-1,-2,3,-5,1,6,1,-5,7
-1,1,3,-1,-2,2,-5,1,6,1,-5,7
-1,1,3,0,-2,2,-6,1,5,0,-5,7
-1,1,3,0,-2,2,-7,1,5,0,-5,7
-1,1,3,0,-2,2,-7,1,5,0,-5,8
-1,2,3,0,-2,2,-7,1,5,0,-4,8
0,3,3,-1,-2,3,-6,1,5,1,-4,9
0,3,3,-1,-2,3,-6,1,5,1,-4,9
0,2,3,-1,-1,2,-6,1,5,1,-4,9
0,2,2,-1,-1,2,-6,1,5,1,-4,9
0,2,3,-1,-2,3,-6,2,5,1,-3,9
-1,2,4,0,-3,4,-5,2,6,1,-2,10
-1,2,4,-1,-3,4,-4,2,6,1,-2,10
0,3,4,-2,-2,3,-4,2,5,1,-3,9
0,3,3,-2,-1,3,-4,1,4,1,-3,9
0,2,4,-1,-2,3,-5,1,4,1,-3,9
-1,1,4,0,-3,3,-5,1,3,0,-3,8
-2,1,4,0,-3,3,-5,1,3,0,-3,8
-2,1,4,1,-3,3,-5,1,3,0,-3,7
-1,2,4,0,-3,3,-5,1,3,0,-3,7
0,3,4,-1,-2,3,-5,1,3,1,-3,7
0,2,3,-1,-2,3,-5,1,3,1,-3,7
-1,1,3,-1,-2,2,-5,1,2,0,-3,7
-1,1,3,-1,-2,2,-5,1,2,0,-3,6
-1,1,3,-1,-2,2,-5,1,2,0,-3,6
-1,1,3,0,-3,2,-5,1,2,0,-3,6
-2,1,3,0,-3,2,-4,1,2,0,-3,6
-2,1,3,0,-3,2,-4,1,2,0,-3,7
-1,1,3,0,-2,2,-3,1,2,0,-3,7
-1,2,3,-1,-2,2,-3,1,2,0,-3,7
0,2,3,-1,-2,2,-3,1,2,0,-3,7
0,1,3,-1,-2,2,-4,1,1,0,-3,7
-1,0,3,0,-2,2,-4,1,1,0,-3,7
-1,1,3,0,-2,2,-4,1,1,0,-3,7
-1,1,3,-1,-1,2,-3,1,1,0,-3,7
0,1,2,-1,-1,2,-3,1,1,0,-3,8
0,1,2,-1,-2,2,-3,1,1,0,-3,8
-1,1,2,0,-2,1,-3,1,0,0,-3,8
-1,0,2,0,-2,1,-3,2,0,0,-3,8
-2,0,3,0,-2,1,-3,2,1,0,-2,8
-2,0,3,0,-2,2,-4,2,1,0,-2,8
-2,0,3,0,-2,2,-4,2,1,0,-2,8
-2,0,3,0,-2,2,-3,2,1,0,-2,8
-2,0,3,0,-2,2,-3,1,1,0,-2,8
-2,0,3,0,-2,2,-3,1,1,0,-2,8
-2,0,3,0,-2,1,-4,1,0,0,-2,7
-2,0,3,0,-2,1,-4,1,0,0,-3,7
-2,0,2,0,-2,1,-4,1,0,0,-3,7
-1,0,2,0,-2,1,-5,1,0,0,-3,7
-2,0,3,1,-2,1,-4,1,0,0,-3,7
-2,0,3,1,-3,1,-4,1,0,0,-3,7
-2,0,3,1,-3,1,-3,1,0,0,-3,7
-2,0,2,1,-3,1,-3,1,0,0,-3,7
-2,0,2,1,-3,1,-3,1,0,0,-3,6
-2,0,2,0,-2,1,-3,1,0,0,-3,6
-1,0,2,0,-2,1,-3,2,0,0,-3,6
-2,0,2,0,-2,1,-4,2,0,0,-3,6
-3,-1,2,1,-3,0,-4,2,0,0,-3,6
-4,-2,2,3,-3,0,-4,2,0,0,-3,5
-5,-2,2,3,-4,0,-4,2,0,1,-3,5
-4,-1,3,2,-4,1,-3,2,0,1,-3,5
-3,-1,3,1,-4,1,-3,2,0,0,-3,5
-4,-2,2,2,-3,0,-3,1,0,-1,-4,5
-4,-2,2,2,-3,0,-3,1,0,-1,-4,5
-5,-2,3,2,-3,0,-3,1,0,-2,-4,6
-5,-2,3,2,-3,0,-3,0,0,-2,-4,6
-4,-2,2,2,-3,0,-3,0,0,-2,-4,6
-4,-2,2,3,-3,0,-3,0,0,-2,-4,6
-5,-2,2,3,-3,0,-3,0,0,-2,-4,5
-6,-3,2,3,-3,0,-3,0,0,-2,-5,5
-7,-4,2,4,-4,-1,-3,0,0,-2,-5,5
-6,-4,1,4,-3,-1,-3,0,0,-2,-5,5
-5,-3,1,3,-3,0,-2,0,1,-2,-5,6
-4,-2,1,2,-3,0,-2,0,1,-2,-5,6
-4,-2,1,2,-3,0,-2,0,1,-2,-5,6
-4,-2,1,2,-2,0,-2,0,1,-3,-5,6
-4,-2,1,2,-2,0,-2,0,1,-3,-5,6
-4,-3,1,3,-3,0,-2,-1,1,-3,-5,6
-5,-3,1,3,-3,0,-2,-1,1,-3,-5,6
-5,-3,1,3,-3,0,-2,-1,1,-3,-5,6
-5,-3,1,3,-3,0,-1,-1,1,-3,-5,6
-5,-2,2,3,-3,0,-1,0,2,-2,-4,7
-5,-2,3,3,-4,0,-1,0,2,-2,-4,7
-6,-2,3,4,-4,0,0,0,2,-2,-4,7
-6,-2,4,4,-5,1,0,0,2,-2,-3,8
-7,-2,4,4,-5,1,0,0,2,-1,-3,8
-7,-2,5,4,-5,1,0,0,2,-1,-3,8
-6,0,5,3,-5,2,0,0,2,-1,-2,8
-5,0,5,2,-5,2,0,0,3,0,-2,8
-5,0,5,2,-5,2,0,0,3,0,-1,9
-5,0,4,2,-5,1,0,1,3,0,-1,9
-4,0,4,2,-4,1,1,1,3,0,-1,9
-4,0,4,2,-4,1,1,2,4,0,0,10
-3,0,3,1,-3,1,1,2,4,1,0,11
-3,0,3,1,-3,1,1,2,3,1,0,11
-2,0,2,0,-2,1,0,2,3,1,0,11
-2,0,2,0,-1,0,1,2,2,0,0,10
-2,0,1,0,-1,0,0,1,2,0,0,10
-2,0,1,1,-1,0,0,0,1,0,0,9
-3,-1,1,2,-1,-1,-1,-1,0,-1,0,9
-3,-2,0,2,-1,-1,-1,-2,-1,-1,0,9
-2,-3,0,2,-1,-2,-1,-2,-2,-2,0,9
-2,-3,-1,2,0,-3,-1,-2,-2,-2,0,8
-2,-3,-2,2,0,-3,-1,-2,-2,-2,0,8
-1,-3,-2,1,1,-3,-1,-2,-2,-3,0,8
0,-2,-2,1,1,-3,0,-2,-1,-3,0,8
0,-2,-2,1,1,-3,0,-2,-1,-2,1,8
0,-1,-2,0,1,-2,1,-2,0,-2,1,8
0,-1,-2,0,1,-2,2,-2,0,-2,1,8
0,-1,-2,0,1,-2,2,-3,0,-3,1,7
0,-2,-2,1,1,-2,2,-3,0,-3,1,7
0,-2,-2,1,1,-2,3,-3,0,-3,1,6
-1,-3,-2,2,1,-3,3,-3,0,-3,2,6
-2,-3,-2,2,0,-3,3,-3,0,-3,2,6
-2,-4,-2,3,0,-4,3,-4,0,-4,2,6
-2,-4,-2,3,0,-4,3,-4,-1,-4,2,6
-2,-4,-2,3,0,-4,3,-5,-1,-5,2,5
-1,-4,-1,2,0,-3,4,-6,-2,-6,2,5
-2,-4,0,3,-1,-3,4,-6,-2,-6,2,5
-3,-4,0,3,-1,-2,3,-7,-2,-7,2,5
-4,-4,0,4,-2,-2,4,-7,-2,-7,2,5
-4,-4,0,4,-2,-3,5,-7,-2,-7,1,5
-5,-5,0,5,-2,-3,5,-8,-3,-8,1,5
-4,-5,-1,5,-2,-3,5,-9,-3,-9,1,5
-4,-5,-1,4,-1,-3,6,-9,-3,-9,1,5
-4,-6,-1,4,-1,-3,7,-9,-3,-9,1,6
-4,-6,-1,5,-2,-4,7,-9,-3,-9,2,6
-5,-7,-1,5,-2,-4,7,-9,-3,-9,2,7
-5,-6,-1,5,-2,-4,8,-8,-3,-8,3,8
-5,-6,-1,5,-2,-4,8,-8,-3,-8,4,8
-5,-6,-1,5,-2,-4,9,-8,-3,-8,4,8
-5,-6,0,5,-2,-3,9,-8,-3,-9,4,7
-5,-6,0,5,-2,-3,10,-8,-4,-10,4,6
-5,-6,0,5,-2,-3,10,-8,-4,-11,4,5
-5,-6,0,5,-2,-3,11,-8,-5,-11,4,5
-6,-6,0,5,-2,-3,11,-7,-5,-12,4,6
-6,-6,0,6,-2,-3,11,-7,-5,-12,4,6
-6,-6,0,6,-2,-4,12,-7,-5,-11,5,6
-5,-6,-1,5,-2,-4,12,-7,-5,-11,5,7
-5,-5,-1,5,-2,-3,12,-6,-5,-11,6,7
-5,-5,0,5,-2,-2,13,-6,-4,-10,8,8
-6,-6,1,6,-3,-2,13,-6,-4,-10,9,9
-7,-6,1,6,-4,-2,12,-6,-5,-10,9,8
-7,-6,1,6,-4,-2,12,-7,-6,-11,9,7
-7,-6,1,5,-4,-2,13,-7,-6,-12,9,7
-7,-6,1,5,-4,-2,13,-6,-6,-13,9,6
-7,-6,1,6,-4,-3,14,-6,-6,-14,8,6
-7,-7,0,6,-3,-3,14,-6,-5,-15,8,6
-7,-7,0,7,-3,-4,13,-6,-5,-15,9,6
-7,-7,0,7,-3,-4,14,-6,-5,-15,9,6
