leadI,leadII,leadIII,leadaVR,leadaVL,leadaVF,leadV1,leadV2,leadV3,leadV4,leadV5,leadV6
0,-1,-1,1,0,-1,-1,-1,-2,11,-4,-1
0,-3,-3,1,1,-3,-4,-4,-6,28,-10,-2
1,-3,-4,1,2,-4,-5,-5,-8,39,-13,-3
0,-4,-4,2,2,-4,-6,-6,-10,45,-15,-4
-1,-6,-5,4,2,-5,-7,-8,-11,47,-17,-5
-2,-8,-5,5,1,-6,-8,-9,-13,49,-19,-6
-2,-7,-5,5,1,-6,-9,-10,-13,50,-20,-6
-1,-7,-6,4,2,-6,-9,-10,-13,50,-20,-6
0,-7,-7,3,3,-7,-9,-11,-14,50,-21,-6
2,-6,-8,2,4,-7,-9,-11,-14,50,-21,-7
3,-5,-8,1,5,-7,-8,-10,-13,50,-20,-7
2,-6,-8,2,5,-7,-8,-10,-13,49,-20,-7
0,-8,-8,3,4,-8,-9,-11,-14,47,-21,-8
0,-8,-8,4,4,-8,-9,-12,-15,46,-22,-9
0,-7,-7,4,3,-7,-9,-12,-14,47,-22,-9
0,-4,-5,2,3,-5,-9,-12,-13,48,-21,-8
0,-3,-4,1,2,-3,-9,-12,-13,48,-20,-7
0,-2,-4,1,2,-3,-8,-12,-12,48,-20,-7
0,-2,-3,1,1,-3,-7,-11,-12,48,-19,-7
0,-2,-2,1,1,-3,-7,-11,-11,48,-19,-7
0,-2,-2,1,1,-3,-7,-12,-11,48,-19,-7
0,-3,-3,1,1,-3,-7,-12,-11,47,-19,-7
0,-3,-3,1,2,-3,-6,-12,-11,47,-18,-6
0,-4,-4,2,2,-4,-6,-12,-11,47,-18,-6
0,-5,-4,2,2,-4,-7,-13,-12,46,-19,-7
0,-6,-5,3,2,-5,-7,-13,-13,44,-19,-8
0,-7,-5,4,2,-6,-7,-13,-13,43,-20,-9
0,-6,-5,3,2,-6,-6,-13,-13,43,-20,-9
0,-6,-6,3,3,-6,-6,-13,-13,42,-20,-10
1,-7,-7,3,4,-7,-7,-14,-14,42,-21,-11
1,-8,-9,3,5,-8,-8,-15,-15,41,-22,-12
0,-10,-10,5,4,-9,-9,-16,-15,39,-23,-13
-1,-11,-10,6,4,-10,-10,-16,-16,38,-24,-14
0,-10,-9,5,4,-9,-9,-15,-16,37,-24,-15
1,-8,-9,4,4,-8,-8,-12,-16,37,-23,-14
1,-9,-9,4,5,-9,-9,-11,-16,37,-23,-14
1,-10,-10,4,5,-10,-9,-10,-16,36,-23,-14
0,-10,-10,5,5,-10,-9,-10,-16,36,-23,-14
0,-11,-10,5,5,-10,-9,-9,-15,36,-22,-13
0,-11,-10,5,5,-10,-8,-8,-14,37,-22,-13
0,-10,-9,4,5,-9,-8,-7,-14,37,-21,-13
0,-9,-9,4,5,-9,-7,-7,-14,37,-21,-13
0,-9,-9,5,5,-9,-7,-7,-14,36,-21,-13
0,-10,-9,5,5,-9,-7,-7,-14,36,-21,-13
0,-9,-9,4,5,-9,-6,-7,-14,36,-21,-13
1,-7,-8,3,5,-8,-5,-6,-13,36,-21,-12
1,-5,-6,1,4,-5,-3,-5,-12,37,-20,-11
1,-3,-4,0,3,-3,-2,-4,-11,38,-19,-10
0,-3,-3,0,2,-3,-2,-4,-11,37,-19,-10
-1,-5,-3,1,1,-3,-3,-5,-11,36,-19,-11
0,-6,-4,2,2,-4,-3,-6,-11,36,-19,-12
0,-6,-5,2,3,-5,-3,-6,-11,36,-19,-12
1,-6,-6,2,4,-6,-2,-5,-10,36,-19,-12
0,-6,-7,3,3,-6,-2,-5,-10,36,-19,-12
-1,-7,-6,4,2,-6,-3,-5,-10,35,-19,-12
-2,-7,-6,4,2,-6,-3,-5,-10,35,-19,-12
-3,-8,-5,5,1,-6,-2,-5,-10,35,-19,-12
-3,-8,-5,6,1,-6,-2,-5,-10,35,-19,-12
-2,-7,-5,5,1,-6,-2,-5,-9,35,-19,-12
0,-5,-5,3,2,-5,-1,-4,-7,36,-18,-11
0,-4,-4,2,2,-4,0,-3,-6,37,-17,-10
0,-4,-4,2,2,-4,0,-2,-6,37,-16,-10
0,-4,-5,2,2,-4,1,-2,-6,37,-16,-9
0,-4,-4,2,2,-4,1,-2,-6,38,-15,-9
0,-4,-4,2,2,-4,1,-2,-6,38,-15,-9
1,-4,-6,2,4,-5,0,-3,-6,37,-16,-9
3,-5,-7,1,5,-6,-1,-5,-8,35,-17,-10
4,-4,-8,1,6,-6,-2,-7,-9,34,-18,-11
3,-4,-7,1,5,-5,-3,-9,-11,32,-18,-12
3,-3,-5,1,4,-4,-4,-11,-11,32,-19,-12
3,-3,-6,0,5,-5,-5,-12,-11,31,-19,-13
5,-3,-8,-1,7,-5,-6,-13,-12,31,-19,-13
8,-3,-10,-2,9,-6,-6,-14,-13,29,-20,-14
9,-3,-12,-3,11,-7,-7,-14,-14,28,-21,-15
8,-4,-11,-2,9,-7,-6,-14,-14,28,-21,-14
3,-4,-7,1,5,-6,-6,-13,-14,28,-20,-13
-2,-5,-4,4,1,-5,-5,-13,-13,28,-19,-12
-3,-6,-4,5,0,-5,-5,-13,-13,28,-19,-11
-2,-6,-5,4,2,-6,-5,-13,-13,28,-19,-11
0,-6,-7,3,3,-6,-5,-12,-12,29,-18,-10
2,-5,-7,2,4,-6,-4,-12,-12,29,-17,-9
1,-5,-6,2,4,-5,-4,-12,-12,29,-17,-9
1,-6,-7,2,4,-6,-5,-13,-13,28,-18,-10
2,-6,-8,2,5,-7,-5,-13,-13,27,-19,-11
2,-7,-9,2,5,-8,-6,-13,-13,26,-19,-11
2,-7,-9,3,5,-9,-6,-13,-14,25,-20,-12
2,-7,-9,3,5,-9,-6,-13,-14,24,-21,-13
0,-8,-8,4,4,-9,-5,-12,-14,24,-21,-13
-1,-8,-7,5,3,-8,-4,-12,-14,24,-22,-14
0,-7,-6,4,3,-7,-4,-12,-13,24,-21,-13
-1,-6,-5,3,1,-6,-3,-12,-12,24,-21,-12
-2,-6,-4,4,0,-5,-3,-11,-12,24,-20,-12
-2,-6,-3,4,0,-5,-3,-11,-12,24,-20,-11
-2,-6,-3,4,0,-5,-2,-11,-12,23,-21,-12
-1,-6,-4,3,1,-5,-2,-11,-13,22,-21,-12
1,-5,-6,2,3,-5,-3,-12,-13,22,-22,-13
2,-4,-6,1,4,-5,-3,-12,-14,21,-22,-13
2,-5,-7,1,4,-6,-4,-12,-14,21,-22,-13
2,-6,-8,2,5,-7,-4,-12,-14,21,-22,-13
3,-7,-10,2,7,-9,-4,-13,-15,20,-23,-14
3,-8,-11,2,7,-9,-4,-14,-15,19,-24,-14
2,-7,-9,2,6,-8,-3,-13,-14,19,-24,-13
2,-7,-8,2,5,-8,-2,-12,-13,20,-23,-12
1,-7,-8,2,5,-7,-2,-11,-13,20,-22,-12
1,-7,-7,3,4,-7,-2,-11,-13,20,-22,-12
0,-7,-7,3,4,-7,-2,-11,-13,20,-23,-13
-1,-8,-6,4,3,-7,-2,-12,-13,20,-23,-13
-2,-9,-6,5,2,-7,-1,-12,-13,20,-23,-13
-2,-9,-7,6,2,-8,-1,-12,-13,20,-23,-13
-2,-9,-7,5,2,-8,-1,-12,-13,20,-23,-13
-1,-9,-7,5,3,-8,-1,-12,-13,19,-23,-13
-1,-9,-7,6,3,-8,-2,-13,-14,18,-24,-14
-1,-9,-7,6,2,-8,-1,-12,-14,18,-24,-14
-1,-8,-6,5,2,-7,-1,-12,-13,18,-24,-13
-1,-8,-7,5,3,-7,0,-12,-13,18,-24,-13
-1,-8,-7,5,3,-8,0,-12,-13,18,-24,-13
-3,-9,-6,6,2,-8,0,-12,-13,18,-24,-13
-4,-10,-6,7,1,-8,0,-12,-12,18,-24,-12
-5,-10,-5,7,0,-8,0,-12,-12,19,-24,-12
-4,-9,-5,7,0,-7,1,-11,-12,19,-23,-11
-3,-9,-6,6,1,-8,1,-10,-11,19,-23,-11
0,-10,-9,5,4,-9,1,-8,-11,19,-23,-12
1,-11,-13,5,7,-12,2,-6,-10,18,-24,-13
2,-13,-15,5,9,-14,3,-4,-9,18,-25,-14
1,-16,-17,7,9,-16,4,-1,-8,18,-25,-15
0,-17,-18,8,9,-17,5,1,-6,19,-26,-16
2,-16,-19,6,11,-18,7,6,-2,21,-25,-16
4,-14,-18,4,11,-16,11,14,5,25,-23,-15
3,-9,-13,2,8,-11,17,25,17,32,-18,-12
1,-3,-4,1,3,-4,26,40,32,44,-9,-5
-1,1,2,0,-1,1,36,56,48,57,1,4
-2,6,8,-2,-4,7,45,71,63,70,13,14
-1,13,14,-6,-7,13,50,84,78,86,29,28
1,22,20,-12,-8,21,53,93,91,104,49,48
5,34,28,-19,-11,31,52,96,101,125,74,73
8,47,39,-28,-14,43,47,93,108,147,103,103
13,65,53,-39,-19,58,38,80,111,171,135,137
17,85,69,-51,-25,77,26,59,108,193,168,173
20,106,87,-63,-32,96,12,30,100,212,199,207
21,122,101,-71,-39,112,-3,-2,87,228,226,238
21,130,109,-75,-43,120,-16,-32,74,243,251,265
20,130,110,-75,-44,120,-24,-53,65,256,268,283
17,125,107,-71,-45,116,-29,-64,59,265,276,290
14,118,105,-66,-45,111,-33,-72,53,266,274,286
11,113,102,-61,-46,107,-37,-79,46,261,263,274
8,104,97,-56,-44,100,-38,-80,42,254,248,254
6,91,86,-48,-40,88,-36,-76,38,237,217,218
2,76,74,-39,-35,75,-32,-74,26,199,162,162
-1,62,63,-30,-32,63,-29,-74,8,148,98,101
-3,50,53,-24,-27,52,-26,-73,-9,101,48,55
-4,41,44,-19,-23,43,-24,-73,-22,66,14,26
-4,35,38,-16,-21,37,-22,-72,-32,41,-6,8
-5,31,35,-14,-19,33,-21,-72,-40,24,-18,-1
-5,28,34,-12,-19,31,-19,-70,-44,14,-24,-6
-6,26,33,-10,-19,29,-18,-66,-43,10,-26,-8
-7,23,31,-7,-18,27,-16,-59,-38,11,-25,-8
-7,19,27,-5,-17,24,-14,-51,-33,13,-23,-8
-7,15,22,-4,-14,19,-11,-42,-27,15,-21,-7
-6,12,17,-3,-12,15,-7,-33,-22,17,-19,-7
-5,10,14,-2,-10,12,-3,-26,-16,20,-18,-6
-4,8,12,-2,-8,9,0,-20,-11,22,-16,-6
-3,5,8,-2,-5,6,2,-14,-6,24,-15,-5
-1,2,3,-1,-1,3,4,-9,-2,27,-14,-4
0,0,0,0,1,0,5,-5,0,28,-13,-4
1,-1,-2,0,2,-1,6,-3,2,28,-13,-4
2,-2,-3,0,2,-2,7,-1,3,28,-13,-4
2,-2,-3,0,3,-2,8,0,4,28,-13,-4
0,-3,-2,1,1,-2,9,1,4,28,-12,-4
-3,-4,-1,4,-1,-2,10,3,5,28,-12,-4
-5,-5,0,5,-2,-2,11,4,6,28,-12,-4
-5,-5,0,5,-1,-2,12,5,7,28,-12,-5
-3,-4,-1,3,0,-2,12,5,8,28,-12,-5
0,-2,-1,1,1,-1,13,6,9,28,-11,-4
1,-1,-1,0,2,-1,13,7,9,29,-11,-4
2,-1,-2,0,2,-1,13,8,9,28,-11,-4
3,-1,-3,-1,3,-1,13,8,10,28,-12,-5
4,-1,-4,-1,4,-2,14,9,10,27,-12,-5
3,-2,-6,-1,5,-4,14,9,11,27,-12,-5
1,-4,-6,1,4,-5,15,9,11,27,-12,-5
0,-6,-6,3,3,-6,15,9,11,27,-12,-5
-1,-7,-6,3,3,-6,15,9,12,28,-11,-5
0,-5,-4,2,2,-4,15,10,13,28,-11,-4
0,-4,-3,2,1,-3,16,11,13,29,-10,-3
-1,-4,-2,2,0,-3,16,11,14,29,-9,-3
-2,-4,-2,2,0,-3,17,12,14,29,-9,-2
-3,-4,-2,3,0,-3,17,12,14,30,-9,-2
-3,-6,-2,4,0,-4,17,12,15,30,-9,-2
-3,-7,-3,5,0,-5,16,12,15,29,-9,-2
-3,-8,-4,5,0,-5,16,12,15,29,-9,-2
-3,-9,-5,6,0,-6,16,12,15,29,-9,-2
-2,-9,-6,5,2,-7,16,13,16,29,-9,-2
-1,-8,-7,4,3,-7,16,13,16,29,-8,-1
-1,-7,-6,4,3,-6,16,14,17,30,-7,-1
-1,-7,-5,4,2,-6,17,15,18,30,-6,0
-2,-7,-5,4,2,-5,18,16,19,31,-5,0
-3,-7,-4,4,1,-5,19,17,20,31,-4,1
-3,-7,-4,5,1,-5,19,18,21,32,-4,2
-2,-7,-4,4,1,-5,19,18,21,32,-4,2
-2,-7,-5,4,2,-5,19,19,22,32,-4,2
-1,-7,-5,4,2,-5,19,19,22,32,-4,2
-1,-7,-5,4,2,-5,19,19,22,31,-4,1
-1,-7,-6,4,2,-6,19,19,22,31,-4,1
-1,-9,-8,4,3,-8,19,19,22,30,-5,0
0,-10,-10,5,5,-10,18,19,22,30,-5,0
0,-10,-12,4,6,-11,18,20,23,30,-4,0
2,-8,-11,2,6,-9,19,22,26,32,-2,2
2,-5,-8,1,5,-6,20,24,28,34,0,3
0,-4,-5,2,2,-4,21,25,29,35,0,4
0,-4,-3,2,1,-3,22,26,30,36,1,5
0,-4,-3,2,1,-3,23,26,30,37,1,5
0,-4,-3,2,1,-3,23,27,31,37,2,5
0,-3,-3,2,1,-3,24,28,33,38,3,5
0,-3,-4,1,2,-3,24,30,34,39,4,6
2,-3,-6,0,4,-4,23,31,35,40,5,7
2,-3,-7,0,5,-5,23,31,36,41,6,8
2,-3,-6,0,4,-4,23,32,37,42,7,9
2,-3,-5,0,3,-3,24,33,37,43,7,9
2,-2,-4,0,2,-2,24,34,38,44,8,10
1,-1,-2,0,1,-1,24,35,40,45,9,11
0,-1,-1,1,0,-1,25,36,41,46,10,12
-1,-2,-1,1,0,-1,26,38,43,47,11,13
0,-1,-3,0,1,-2,27,39,44,48,12,13
1,-2,-3,0,2,-2,27,39,44,49,12,13
0,-2,-3,1,1,-2,27,40,45,49,13,14
0,-2,-2,1,1,-1,27,41,46,50,14,14
0,-1,-3,1,1,-2,27,42,47,51,15,15
1,-1,-3,1,2,-2,27,43,48,52,16,15
2,-1,-3,0,2,-2,27,44,49,53,17,16
3,0,-3,-1,2,-1,28,46,51,54,17,16
3,1,-3,-2,1,0,29,47,52,55,18,16
2,0,-2,-1,1,0,29,47,53,56,18,16
1,0,-1,0,0,0,29,48,54,57,18,17
1,0,-1,0,0,0,29,48,55,57,19,17
1,0,-1,0,0,0,30,49,55,58,20,18
0,0,0,0,0,0,30,50,56,59,22,18
0,0,1,0,-1,1,30,51,57,60,23,19
-1,0,2,0,-2,1,30,52,59,61,25,20
0,1,1,-1,-1,1,30,53,60,62,26,21
2,2,0,-2,0,1,31,54,62,63,27,23
3,2,-1,-3,1,1,31,55,63,64,28,24
4,2,-2,-3,3,0,31,55,63,65,28,24
4,1,-3,-3,4,-1,31,56,64,66,29,25
5,2,-4,-3,5,-1,31,57,65,67,31,25
7,3,-4,-5,6,-1,31,57,66,68,32,26
7,2,-5,-4,6,-1,31,58,67,69,33,27
5,0,-4,-2,4,-2,31,58,67,69,33,27
2,-2,-4,0,3,-3,30,57,67,69,33,27
2,-2,-4,0,3,-3,30,57,67,69,33,27
4,1,-3,-2,3,-1,31,58,68,70,34,29
5,3,-2,-4,4,1,31,59,68,72,36,30
6,5,-2,-5,4,2,32,59,69,72,37,31
6,6,0,-6,3,3,32,59,69,73,39,33
4,7,4,-5,0,6,33,60,70,74,40,34
2,8,7,-5,-3,8,34,60,72,75,42,36
2,9,8,-6,-3,9,34,60,73,76,43,37
3,9,7,-6,-2,9,33,60,72,77,43,38
3,9,7,-6,-2,9,33,59,72,77,44,38
2,10,8,-6,-3,9,33,59,71,78,44,38
1,9,8,-5,-3,9,33,58,71,77,44,38
2,8,6,-5,-2,7,32,56,70,76,43,38
3,8,4,-5,-1,6,31,55,69,76,43,38
4,9,5,-6,-1,6,32,54,69,76,44,39
3,10,6,-6,-2,8,32,53,68,76,44,40
3,10,7,-6,-3,9,32,52,67,75,44,40
3,11,7,-7,-2,9,32,51,66,75,44,41
5,11,7,-8,-1,9,31,49,65,75,44,41
6,12,6,-9,0,9,30,48,64,74,44,41
7,12,5,-10,1,9,29,46,63,73,44,41
6,11,5,-9,0,8,28,44,61,72,43,40
5,10,5,-7,-1,8,27,42,59,70,42,39
3,7,5,-5,-2,6,27,40,57,68,40,38
2,6,4,-4,-1,5,26,38,55,66,38,36
3,7,4,-5,0,6,25,36,53,64,36,35
5,9,4,-7,0,7,25,35,51,63,35,35
4,10,5,-7,0,7,25,33,50,62,35,34
3,9,6,-6,-2,8,25,32,48,60,34,33
2,9,7,-5,-3,8,24,30,46,58,33,33
2,9,7,-5,-3,8,24,29,44,55,31,32
4,10,6,-7,-2,8,24,27,43,53,30,31
5,10,6,-8,-1,8,24,25,41,51,28,29
5,9,5,-7,0,8,23,23,38,48,25,27
4,8,4,-6,0,6,22,21,36,46,23,26
3,6,4,-5,0,5,21,19,33,43,21,24
2,5,3,-4,0,4,21,17,31,41,19,23
2,3,2,-3,0,2,20,15,29,38,17,21
2,2,0,-2,0,1,19,13,27,35,15,19
2,0,-1,-1,1,0,18,11,24,32,12,17
1,-1,-1,0,0,-1,17,9,21,28,10,15
0,-2,0,1,0,-1,17,8,19,26,8,13
0,-2,-1,1,0,-1,16,6,17,23,6,11
4,0,-3,-2,3,-1,16,5,15,22,4,9
6,2,-3,-4,5,0,15,4,14,20,3,7
5,3,-1,-4,3,1,16,4,13,19,2,6
1,2,1,-2,0,2,16,3,12,17,2,6
-2,0,3,0,-3,2,16,2,11,15,0,5
-3,-1,3,2,-3,2,16,1,10,13,-1,3
-3,-1,2,2,-3,1,16,0,8,11,-3,2
-3,-1,2,2,-2,1,16,-1,6,9,-4,1
-3,-1,3,2,-3,1,16,-1,6,9,-5,0
-4,-1,4,3,-4,1,16,-1,5,8,-6,0
-4,-1,4,2,-4,1,16,-1,5,7,-6,0
-3,-1,3,2,-3,1,16,-2,4,6,-7,-1
-2,-1,2,1,-2,0,16,-3,3,4,-8,-2
-1,-1,1,1,-1,0,16,-3,2,3,-9,-3
0,0,0,0,-1,0,16,-3,1,2,-9,-4
0,0,1,0,-1,1,16,-3,1,2,-10,-4
0,0,2,0,-1,1,16,-3,1,2,-10,-4
-1,0,2,0,-1,1,16,-4,0,1,-11,-4
-2,-1,1,2,-2,0,15,-4,0,0,-12,-5
-3,-2,1,2,-2,0,15,-4,0,0,-12,-5
-4,-1,3,2,-3,0,15,-4,0,0,-11,-5
-3,0,4,2,-4,2,16,-3,0,0,-11,-5
-1,1,3,0,-2,2,16,-3,1,0,-11,-5
0,1,1,0,-1,2,16,-4,0,0,-12,-6
-1,0,1,1,-1,0,15,-4,-1,0,-12,-7
-2,-2,0,2,-1,0,15,-4,-1,0,-13,-8
-2,-2,1,2,-2,0,15,-4,-1,0,-12,-8
-3,-2,2,3,-3,0,15,-4,-1,0,-12,-7
-5,-2,3,3,-4,0,14,-4,-1,0,-12,-7
-5,-3,3,4,-4,0,14,-4,-1,-1,-12,-8
-5,-3,2,4,-4,0,14,-4,-1,-1,-13,-8
-4,-3,1,4,-3,-1,13,-4,0,0,-13,-8
-3,-3,0,3,-2,-1,13,-4,0,0,-13,-8
-3,-2,0,3,-2,-1,13,-4,0,1,-13,-8
-3,-2,1,4,-2,-1,13,-4,0,2,-12,-8
-4,-3,0,4,-2,-1,13,-3,0,2,-12,-8
-2,-1,0,2,-1,-1,13,-3,1,3,-11,-7
0,0,0,0,0,0,13,-2,2,4,-10,-7
1,1,0,0,0,0,13,-2,2,4,-9,-6
-1,0,2,1,-2,1,14,-1,3,5,-8,-5
-5,-1,5,4,-5,2,14,-1,4,7,-7,-4
-7,-3,4,5,-5,1,14,-1,4,7,-7,-4
-5,-3,2,4,-3,0,14,-1,4,7,-7,-4
-3,-2,1,3,-2,0,13,-1,4,8,-7,-4
-2,-1,1,2,-1,0,13,-1,4,8,-7,-4
-1,-1,1,1,-2,0,13,-1,4,8,-7,-4
-1,0,2,1,-2,1,13,0,5,9,-6,-3
-2,0,3,1,-3,2,13,0,6,10,-5,-2
-3,-1,3,2,-3,1,13,0,6,10,-5,-2
-3,-2,2,3,-2,0,13,0,6,10,-5,-2
-3,-2,1,2,-2,0,13,1,6,11,-5,-2
-3,-2,0,2,-2,0,14,1,6,11,-5,-2
-3,-3,0,3,-2,-1,14,1,6,11,-5,-2
-4,-4,0,4,-2,-1,13,1,5,11,-5,-2
-2,-2,0,3,-2,-1,13,1,6,12,-4,-1
0,0,0,1,-1,0,13,2,6,12,-4,-1
0,0,0,0,-1,0,13,2,6,12,-4,-1
-1,0,0,1,-1,0,13,2,6,12,-4,-1
0,0,0,0,0,0,13,2,6,12,-4,-1
2,0,-1,-1,2,0,13,2,6,13,-4,-1
3,0,-2,-1,3,-1,13,2,6,13,-4,-1
1,-1,-2,0,2,-1,13,2,6,13,-4,-1
-1,-2,-1,2,0,-1,13,2,6,13,-4,-1
-3,-3,0,3,-2,-1,12,2,6,13,-4,-1
-3,-3,0,3,-2,-2,12,2,6,13,-4,-1
-3,-3,0,3,-1,-2,12,2,6,13,-4,0
-3,-3,0,3,-1,-1,12,3,6,13,-3,0
-3,-3,0,3,-2,-1,13,3,6,13,-3,0
-4,-4,0,4,-2,-2,13,3,6,13,-3,0
-4,-4,0,4,-2,-2,12,3,5,13,-4,0
-3,-3,0,3,-2,-1,12,2,5,13,-4,0
0,-1,0,1,-1,-1,12,2,5,12,-4,0
1,0,-1,0,0,-1,12,1,5,12,-5,0
2,0,-1,0,1,-1,12,1,4,11,-5,-1
2,0,-2,0,1,-1,11,1,3,10,-6,-1
2,-2,-3,0,2,-2,10,0,2,9,-7,-3
2,-2,-4,0,2,-3,10,-1,1,8,-9,-4
2,-1,-3,0,2,-2,10,-1,1,8,-9,-4
1,0,-1,0,1,0,10,0,2,9,-8,-3
0,0,0,0,0,0,11,0,3,10,-7,-2
-1,0,0,1,-1,0,10,0,2,9,-7,-2
-2,-1,0,2,-1,0,10,0,2,8,-8,-3
-1,-2,0,2,0,-1,10,-1,1,7,-8,-3
0,-2,-1,1,0,-1,10,-1,0,6,-9,-3
0,-2,-1,1,0,-1,10,-2,0,6,-9,-3
-2,-2,0,2,-1,0,10,-2,0,6,-9,-3
-2,-1,0,2,-2,0,9,-2,-1,6,-9,-3
-1,-1,0,1,-1,0,9,-2,-1,5,-10,-4
0,-1,-2,1,0,-1,8,-3,-2,4,-11,-6
0,-2,-2,1,1,-2,8,-3,-2,3,-12,-6
0,-2,-2,2,0,-2,8,-3,-2,3,-12,-6
-2,-3,0,3,-1,-1,9,-3,-2,3,-12,-6
-3,-3,0,3,-2,-1,8,-4,-3,2,-12,-7
-2,-3,-1,3,-1,-2,8,-4,-4,2,-13,-7
-1,-3,-2,2,0,-2,8,-4,-4,2,-13,-7
0,-2,-2,1,0,-2,8,-4,-4,2,-13,-7
1,-1,-3,0,1,-2,8,-4,-4,1,-13,-8
0,-2,-1,1,0,-2,8,-4,-4,1,-13,-8
-2,-2,0,3,-2,-1,8,-3,-4,1,-13,-8
-2,-1,1,2,-2,0,8,-3,-5,0,-13,-7
-1,-1,0,1,0,-1,7,-4,-5,0,-14,-7
0,-1,0,1,0,-1,6,-3,-6,0,-14,-7
0,0,0,0,0,0,7,-2,-6,0,-14,-7
-1,-1,0,2,0,-1,7,-2,-6,0,-14,-7
-2,-3,0,3,-1,-1,7,-3,-6,0,-14,-7
-2,-4,-1,4,0,-2,7,-3,-7,-1,-14,-7
-2,-4,-2,4,0,-3,7,-3,-7,-1,-15,-8
-2,-4,-2,4,0,-3,7,-3,-7,-1,-15,-8
-3,-3,0,3,-1,-1,7,-3,-7,-1,-15,-7
-3,-2,1,3,-2,0,7,-3,-7,0,-15,-7
-3,-3,0,3,-2,-1,6,-3,-8,-1,-15,-8
-3,-5,-1,4,-1,-3,4,-5,-10,-2,-17,-9
-4,-7,-3,5,0,-5,3,-6,-11,-4,-18,-11
-4,-7,-3,6,0,-5,3,-7,-12,-4,-19,-11
-3,-5,-2,4,0,-3,4,-6,-10,-3,-17,-10
-2,-2,0,2,0,-1,5,-4,-9,-2,-16,-8
0,0,0,1,0,0,5,-3,-9,-1,-15,-7
0,0,0,0,1,0,5,-3,-9,-1,-15,-7
0,-1,0,1,0,-1,5,-4,-10,-2,-16,-8
-1,-2,0,2,0,-2,4,-5,-11,-3,-17,-9
-1,-2,0,2,0,-2,4,-5,-11,-3,-17,-9
-1,-2,0,2,0,-1,4,-4,-11,-2,-17,-9
-2,-2,0,2,0,-1,4,-4,-11,-2,-17,-9
-2,-3,-1,2,0,-2,3,-5,-11,-3,-17,-9
-3,-5,-1,3,0,-3,3,-5,-12,-4,-18,-10
-2,-5,-2,3,0,-3,2,-6,-13,-4,-18,-11
-1,-4,-3,3,1,-4,2,-6,-13,-4,-18,-11
0,-4,-4,2,2,-4,2,-6,-13,-4,-19,-11
0,-5,-5,2,3,-5,2,-6,-14,-5,-19,-11
2,-4,-6,1,4,-5,2,-6,-14,-5,-20,-11
3,-4,-7,0,5,-5,2,-6,-14,-6,-20,-12
2,-4,-7,1,4,-5,2,-7,-15,-7,-20,-12
0,-5,-5,3,2,-5,2,-7,-15,-7,-19,-12
-2,-4,-2,3,0,-3,2,-6,-14,-6,-18,-11
-3,-3,0,3,-1,-1,2,-6,-14,-5,-18,-10
-2,-3,0,3,-1,-1,2,-6,-14,-5,-18,-10
-2,-4,-1,3,0,-2,1,-6,-14,-6,-19,-11
-3,-6,-2,4,-1,-3,1,-6,-15,-6,-19,-11
-4,-7,-2,5,-1,-4,1,-6,-15,-7,-19,-11
-3,-6,-3,4,0,-4,1,-6,-15,-8,-19,-11
0,-4,-4,2,2,-3,1,-7,-15,-8,-20,-12
0,-4,-4,1,2,-3,1,-7,-15,-9,-21,-12
1,-4,-4,1,3,-4,1,-8,-16,-9,-21,-13
2,-4,-4,1,3,-4,1,-8,-16,-10,-22,-13
1,-3,-3,1,2,-4,1,-7,-16,-9,-21,-13
-1,-3,-2,2,0,-3,2,-7,-16,-9,-20,-13
-1,-4,-2,2,0,-3,2,-6,-15,-9,-20,-12
-1,-4,-2,2,1,-3,2,-6,-15,-9,-19,-12
-2,-4,-2,3,0,-3,2,-5,-14,-9,-19,-11
-3,-3,0,4,-1,-2,3,-5,-13,-8,-18,-10
-2,-2,0,3,-1,-1,3,-4,-13,-7,-17,-9
-1,-2,-1,3,0,-2,3,-4,-12,-7,-17,-8
-1,-3,-1,3,0,-2,3,-4,-12,-7,-17,-8
-3,-4,-1,4,-1,-2,3,-4,-12,-7,-17,-8
-3,-4,-1,4,-1,-2,3,-3,-12,-7,-17,-8
-2,-4,-2,3,0,-2,3,-3,-12,-7,-17,-8
-1,-4,-3,3,1,-3,3,-3,-12,-8,-18,-9
0,-3,-4,2,2,-3,3,-3,-12,-8,-18,-9
1,-2,-3,1,2,-2,3,-3,-12,-8,-17,-8
2,-1,-2,0,2,-2,3,-3,-12,-7,-17,-8
2,-1,-2,0,2,-2,2,-4,-12,-8,-17,-8
2,-1,-3,0,3,-2,1,-5,-13,-9,-18,-8
4,0,-4,-1,4,-2,0,-7,-14,-10,-18,-8
4,0,-4,-2,4,-1,0,-8,-15,-10,-18,-8
3,1,-2,-2,2,0,0,-8,-15,-10,-18,-8
2,2,0,-1,1,1,0,-8,-15,-10,-17,-7
2,2,1,-1,0,1,-1,-8,-16,-11,-18,-7
1,2,1,-1,0,1,-1,-9,-17,-11,-18,-7
1,1,0,-1,0,0,-2,-9,-17,-12,-18,-7
1,0,0,-1,0,0,-2,-9,-17,-12,-18,-7
1,1,0,-1,0,1,-2,-9,-17,-12,-17,-7
1,1,0,0,0,0,-3,-10,-18,-12,-17,-7
0,-1,-2,1,1,-1,-3,-10,-18,-13,-18,-8
-2,-3,-2,3,0,-3,-4,-10,-18,-13,-18,-8
-1,-3,-2,3,0,-3,-3,-10,-18,-13,-18,-7
2,0,-3,0,2,-2,-3,-9,-17,-12,-17,-6
4,1,-3,-2,3,-1,-3,-9,-17,-13,-18,-7
4,1,-3,-1,3,-1,-3,-10,-18,-13,-18,-7
3,0,-2,-1,2,-1,-3,-10,-18,-13,-18,-8
3,1,-2,-1,2,0,-3,-9,-18,-13,-18,-8
3,1,-2,-2,2,0,-2,-9,-17,-13,-18,-7
2,0,-2,-1,1,0,-2,-9,-18,-14,-18,-8
1,-1,-3,1,1,-2,-3,-10,-19,-16,-20,-9
1,-3,-3,1,2,-3,-4,-11,-20,-17,-21,-10
1,-3,-3,1,2,-3,-4,-11,-20,-18,-22,-11
0,-3,-2,1,1,-2,-3,-11,-20,-18,-22,-11
0,-3,-2,1,1,-2,-3,-11,-20,-18,-22,-11
0,-3,-3,2,1,-3,-3,-11,-21,-18,-22,-12
0,-4,-4,2,1,-4,-3,-12,-21,-19,-22,-12
0,-5,-5,2,2,-4,-4,-13,-22,-19,-23,-13
1,-5,-6,2,3,-5,-4,-13,-22,-19,-23,-13
0,-6,-6,3,3,-5,-4,-13,-22,-20,-23,-13
0,-7,-7,4,3,-7,-4,-14,-23,-21,-24,-14
0,-8,-8,4,4,-8,-5,-15,-24,-21,-25,-14
0,-8,-8,4,3,-8,-5,-14,-24,-21,-25,-14
0,-8,-8,4,3,-7,-5,-14,-24,-21,-25,-14
-1,-8,-7,4,2,-7,-5,-14,-23,-20,-24,-14
-5,-9,-4,7,0,-7,-5,-14,-23,-20,-24,-14
-8,-10,-2,9,-3,-7,-5,-14,-23,-20,-24,-14
-9,-11,-2,10,-3,-7,-4,-14,-23,-21,-24,-15
-6,-9,-2,8,-2,-6,-4,-14,-23,-21,-24,-15
-2,-6,-3,4,0,-5,-4,-13,-22,-20,-24,-15
0,-4,-4,2,2,-5,-3,-13,-22,-21,-23,-15
2,-3,-4,1,3,-4,-3,-13,-22,-21,-23,-15
3,-2,-4,0,4,-3,-3,-13,-22,-21,-23,-15
3,-1,-4,-1,4,-3,-3,-13,-21,-20,-23,-14
1,-3,-4,1,3,-4,-3,-13,-21,-20,-23,-14
-1,-5,-5,4,1,-5,-4,-13,-22,-21,-24,-15
-2,-7,-5,5,1,-6,-4,-13,-22,-21,-24,-16
-2,-7,-5,5,1,-6,-4,-13,-22,-21,-24,-16
-2,-7,-4,5,1,-5,-4,-13,-22,-21,-23,-15
-2,-7,-3,5,0,-5,-4,-13,-22,-21,-23,-15
-1,-6,-3,4,1,-5,-4,-13,-22,-21,-23,-15
0,-6,-4,3,2,-5,-5,-13,-22,-21,-23,-15
-1,-5,-4,3,2,-5,-4,-13,-21,-20,-22,-14
-2,-6,-4,4,1,-5,-4,-12,-20,-20,-22,-13
-2,-7,-4,5,1,-5,-3,-11,-20,-20,-22,-13
0,-7,-7,4,4,-7,-3,-10,-20,-20,-22,-14
2,-8,-10,3,6,-8,-2,-8,-20,-20,-22,-15
4,-9,-12,2,8,-10,-2,-6,-19,-21,-22,-16
5,-9,-13,2,9,-11,-2,-3,-17,-21,-23,-17
4,-8,-12,2,8,-10,0,0,-15,-19,-22,-17
4,-7,-11,1,7,-9,1,5,-10,-17,-21,-16
3,-6,-10,1,6,-8,4,12,-4,-13,-19,-15
3,-4,-7,1,5,-6,10,21,5,-6,-15,-13
1,-2,-3,1,2,-3,17,34,17,3,-8,-8
0,0,0,1,0,0,24,49,32,14,0,-1
0,3,4,-1,-2,3,32,64,48,27,11,8
2,9,7,-6,-2,8,39,79,63,42,26,21
3,17,13,-11,-4,15,42,89,77,60,45,39
4,27,22,-16,-8,24,43,95,90,81,69,62
7,41,32,-24,-12,37,41,95,99,103,97,91
11,59,46,-34,-17,52,35,85,103,126,129,124
14,78,63,-45,-23,70,26,66,102,148,161,158
15,97,82,-55,-32,89,13,40,96,167,190,192
16,114,99,-64,-40,106,-1,7,84,183,217,222
15,121,108,-67,-46,114,-16,-24,69,195,240,248
12,119,108,-65,-48,114,-26,-48,56,205,257,266
10,113,103,-61,-47,109,-31,-62,48,214,267,276
10,109,98,-59,-44,104,-35,-69,43,218,269,277
9,106,96,-57,-43,101,-39,-76,37,216,263,268
7,100,92,-53,-42,96,-41,-79,32,210,250,250
5,87,82,-45,-38,85,-41,-77,27,195,221,216
1,72,71,-36,-34,72,-37,-75,18,161,168,161
-2,58,61,-27,-32,60,-34,-75,2,114,105,99
-4,47,52,-21,-29,50,-33,-76,-15,69,54,52
-6,38,45,-16,-27,42,-33,-76,-29,33,19,22
-9,32,41,-11,-25,37,-32,-76,-40,7,-3,3
-9,29,38,-10,-24,34,-31,-76,-47,-10,-16,-7
-8,29,37,-10,-22,33,-29,-73,-50,-20,-22,-11
-8,28,36,-10,-21,32,-27,-69,-50,-24,-23,-12
-7,27,33,-9,-19,30,-26,-64,-47,-25,-22,-12
-6,24,30,-8,-18,27,-25,-57,-43,-24,-21,-12
-6,19,25,-6,-16,22,-23,-49,-39,-24,-20,-12
-4,15,20,-5,-13,17,-20,-40,-34,-22,-18,-12
-1,13,14,-5,-8,14,-16,-32,-28,-20,-17,-12
0,11,10,-6,-5,11,-13,-25,-23,-17,-16,-11
2,9,6,-5,-1,7,-10,-19,-19,-15,-15,-11
3,5,2,-4,1,4,-7,-14,-15,-13,-14,-11
2,2,0,-2,2,1,-6,-9,-12,-12,-13,-10
1,0,-1,0,2,0,-5,-6,-10,-11,-12,-10
1,-2,-2,0,2,-1,-5,-5,-9,-11,-12,-11
1,-3,-3,1,2,-3,-5,-4,-8,-12,-12,-11
1,-3,-3,1,2,-2,-4,-2,-7,-11,-12,-11
1,-1,-3,0,2,-2,-3,0,-6,-10,-11,-10
2,-2,-5,0,3,-3,-2,1,-5,-10,-12,-10
1,-4,-7,2,4,-5,-2,1,-5,-10,-13,-11
0,-5,-7,3,4,-6,-2,2,-5,-10,-13,-11
-1,-6,-5,4,2,-5,-2,2,-5,-10,-13,-11
-2,-5,-3,4,0,-4,-2,3,-4,-9,-12,-10
-2,-4,-2,3,0,-3,-2,3,-3,-8,-11,-9
-1,-3,-3,2,0,-3,-2,4,-3,-8,-11,-9
0,-3,-3,2,1,-3,-1,4,-2,-8,-10,-8
0,-3,-4,1,2,-3,-1,5,-2,-8,-10,-8
1,-3,-5,1,3,-4,0,6,-2,-7,-10,-8
1,-3,-5,1,3,-4,0,6,-2,-7,-10,-8
1,-3,-6,1,3,-4,0,7,-2,-7,-10,-8
1,-3,-5,1,3,-4,0,7,-1,-7,-10,-8
0,-3,-4,2,1,-4,0,7,-1,-7,-10,-8
-1,-4,-3,3,0,-4,0,7,-1,-6,-10,-7
-1,-5,-4,3,1,-4,0,7,-1,-6,-10,-7
0,-6,-5,3,2,-5,0,8,0,-5,-9,-7
0,-6,-5,3,2,-5,0,8,0,-5,-9,-7
-1,-6,-5,4,2,-5,0,9,0,-4,-9,-7
0,-6,-6,4,3,-6,0,9,1,-4,-9,-7
1,-6,-7,3,4,-6,0,9,1,-4,-8,-7
3,-5,-8,1,5,-6,0,10,1,-3,-8,-6
3,-6,-8,1,5,-7,0,10,1,-3,-8,-6
1,-7,-8,3,5,-8,-1,10,1,-4,-8,-7
0,-8,-8,4,4,-8,-1,10,1,-4,-7,-6
-1,-7,-6,4,3,-6,0,12,3,-2,-6,-5
-1,-5,-4,3,3,-5,1,13,4,-1,-5,-3
0,-4,-5,2,3,-4,1,13,5,0,-4,-3
1,-4,-6,2,4,-5,0,13,5,0,-4,-3
1,-4,-6,2,4,-5,0,13,5,0,-4,-3
2,-4,-6,1,4,-5,0,14,5,0,-4,-2
3,-3,-6,0,4,-5,0,15,6,1,-4,-2
3,-3,-6,0,4,-4,0,16,7,1,-3,-1
2,-4,-5,1,3,-4,0,16,7,2,-3,0
2,-4,-6,1,4,-4,0,17,8,2,-2,0
3,-4,-7,1,5,-5,0,17,9,2,-2,0
4,-5,-8,1,6,-6,0,17,9,2,-2,0
3,-5,-8,1,6,-6,0,18,10,2,-1,0
3,-6,-9,2,6,-7,0,18,10,2,-1,0
4,-6,-10,1,7,-8,-1,18,10,2,-1,1
5,-5,-10,0,7,-7,-1,19,10,2,-1,1
4,-5,-9,0,7,-7,0,20,11,2,0,2
4,-4,-9,0,7,-6,0,21,12,3,1,3
4,-4,-8,0,6,-6,0,23,14,5,2,5
3,-4,-6,0,5,-5,1,24,15,6,4,7
3,-3,-5,0,4,-4,2,25,16,8,5,9
2,-3,-5,0,3,-3,2,26,17,9,6,10
2,-3,-5,0,3,-3,2,28,18,10,7,12
2,-4,-6,1,3,-4,2,28,19,10,7,12
1,-4,-6,2,3,-4,2,29,19,11,7,13
0,-4,-5,2,2,-4,2,30,20,11,8,13
0,-4,-5,2,2,-4,3,31,21,12,9,14
2,-3,-6,1,4,-4,3,32,22,13,10,14
4,-3,-7,0,6,-5,2,33,22,14,10,15
6,-3,-9,0,7,-6,2,34,23,15,11,15
6,-3,-9,-1,7,-5,3,35,24,16,12,16
7,-1,-9,-2,8,-4,4,37,25,17,13,17
9,0,-10,-3,9,-5,4,38,26,17,14,18
9,-1,-10,-3,9,-6,4,39,26,18,15,18
8,-2,-11,-3,9,-6,4,40,27,18,15,19
8,-3,-12,-2,10,-7,3,40,27,19,16,19
7,-4,-11,-1,10,-8,3,41,28,19,16,19
5,-4,-8,0,7,-6,4,43,30,21,18,21
4,-2,-6,0,5,-4,5,45,32,23,20,23
4,-1,-5,-1,4,-3,6,47,33,25,22,25
5,-1,-6,-1,5,-3,6,48,34,26,23,26
5,-1,-7,-1,5,-4,6,49,35,27,24,26
5,-2,-7,-1,5,-4,6,50,36,28,25,27
5,-2,-8,-2,6,-4,6,51,36,29,25,27
5,-3,-8,-1,7,-5,6,51,36,29,25,27
5,-5,-9,0,7,-6,5,52,37,30,26,28
5,-4,-8,0,6,-5,5,52,38,31,27,29
6,-2,-7,-2,6,-4,6,54,39,32,29,30
6,0,-6,-3,6,-2,6,56,41,34,31,32
6,1,-5,-3,5,-1,6,57,42,35,33,33
5,0,-4,-2,5,-2,6,58,42,36,34,34
4,0,-4,-2,5,-2,7,58,43,36,34,34
5,1,-4,-3,5,-1,7,58,43,37,34,35
6,1,-5,-4,6,-1,7,58,43,37,35,36
7,1,-5,-4,6,-1,6,58,42,37,35,36
7,2,-5,-5,6,-1,6,58,42,37,36,36
8,3,-5,-5,6,-1,5,58,42,37,36,37
8,3,-6,-6,6,-1,5,58,41,37,37,37
8,3,-6,-5,7,-1,5,57,41,37,37,38
7,2,-6,-4,6,-2,4,57,40,37,38,38
7,2,-5,-5,6,-1,4,56,40,37,38,39
8,4,-3,-6,5,1,4,56,40,37,39,40
9,5,-2,-7,5,2,5,56,40,38,40,41
10,6,-2,-8,6,3,4,55,40,37,41,42
10,7,-2,-8,6,2,3,54,38,37,41,42
9,7,-2,-8,6,2,3,53,38,37,41,42
9,7,-2,-7,5,2,2,52,37,37,41,42
7,6,-1,-6,4,2,2,51,36,36,41,42
6,5,0,-5,3,2,1,49,35,35,40,41
6,4,-1,-5,4,2,0,46,33,34,39,40
8,5,-2,-6,5,1,0,44,31,32,38,40
10,7,-3,-9,6,2,0,43,30,32,38,40
12,10,-2,-10,7,4,0,42,29,31,38,40
11,10,0,-10,6,5,-1,41,28,31,38,40
10,10,0,-10,5,5,-1,39,27,30,37,40
11,10,-1,-10,6,5,-2,37,25,29,37,39
11,10,-1,-10,6,5,-2,35,24,27,36,38
11,10,-1,-10,5,5,-2,32,22,26,35,38
9,9,0,-8,4,5,-2,30,21,24,34,37
6,8,1,-7,2,5,-3,28,19,23,33,36
5,8,2,-6,0,5,-3,27,18,21,32,35
5,8,3,-6,0,5,-4,26,16,19,30,34
5,7,2,-6,0,4,-5,24,14,16,28,32
5,5,1,-5,1,3,-6,22,11,14,26,30
6,5,0,-6,3,3,-6,19,9,11,23,29
7,6,0,-7,3,4,-6,18,8,10,22,28
7,7,0,-7,3,4,-6,16,7,8,20,27
6,6,0,-6,3,3,-6,14,5,6,18,25
6,5,0,-5,3,2,-6,12,3,3,15,22
5,5,0,-5,3,2,-7,10,2,1,14,21
4,4,0,-4,2,2,-7,8,0,-1,12,19
4,2,0,-3,2,1,-8,6,-1,-3,9,17
3,1,-1,-2,2,0,-9,4,-3,-6,7,16
3,0,-2,-2,3,0,-9,2,-5,-8,5,14
1,-1,-2,0,2,0,-10,0,-7,-10,4,13
0,-3,-2,1,1,-1,-10,-2,-9,-12,2,11
-1,-4,-2,2,0,-2,-11,-3,-11,-14,0,10
-1,-3,-2,2,0,-2,-11,-4,-11,-15,-1,9
0,-2,-1,1,0,-1,-11,-4,-11,-16,-2,8
1,0,-1,0,0,0,-10,-4,-11,-17,-2,7
2,0,-1,-1,1,0,-10,-5,-12,-18,-3,7
2,0,0,-1,1,0,-10,-6,-13,-19,-5,6
2,0,0,-1,1,0,-10,-7,-14,-21,-6,5
1,0,-1,0,1,0,-10,-8,-15,-23,-8,3
0,-2,-1,1,1,-1,-11,-9,-16,-25,-10,1
-2,-5,-2,4,0,-4,-12,-11,-18,-27,-12,-1
-4,-8,-3,7,0,-6,-13,-13,-20,-28,-14,-3
-4,-9,-4,7,0,-7,-13,-14,-21,-29,-15,-4
-1,-8,-6,5,2,-7,-14,-14,-21,-30,-16,-5
1,-7,-8,3,4,-8,-14,-15,-22,-31,-17,-6
2,-6,-8,2,5,-7,-14,-15,-22,-31,-18,-6
3,-4,-8,0,6,-6,-14,-15,-22,-32,-18,-6
3,-3,-8,0,6,-5,-13,-14,-22,-32,-18,-6
2,-3,-7,0,5,-5,-13,-14,-22,-34,-18,-6
3,-3,-7,0,5,-5,-13,-14,-22,-35,-18,-6
5,-3,-7,-1,6,-5,-13,-14,-22,-37,-18,-6
7,-2,-8,-2,7,-5,-13,-14,-22,-39,-18,-7
7,-3,-8,-2,7,-5,-13,-14,-22,-41,-18,-7
4,-4,-7,0,5,-5,-13,-14,-22,-41,-18,-7
2,-4,-6,1,3,-4,-13,-14,-22,-42,-18,-7
2,-4,-6,0,3,-4,-13,-14,-22,-42,-18,-6
1,-4,-5,0,3,-3,-13,-14,-21,-41,-17,-6
0,-4,-4,1,2,-3,-12,-13,-21,-41,-17,-6
-1,-5,-2,2,0,-3,-12,-13,-20,-40,-16,-5
-1,-5,-2,3,0,-3,-12,-12,-20,-40,-16,-5
0,-5,-3,3,1,-4,-13,-12,-20,-39,-16,-5
0,-5,-5,3,2,-5,-13,-13,-21,-39,-17,-6
0,-6,-5,4,2,-5,-13,-13,-21,-39,-17,-7
-3,-6,-3,5,0,-4,-13,-13,-20,-38,-16,-6
-4,-6,-2,5,-1,-4,-13,-12,-19,-37,-16,-5
-4,-6,-2,5,0,-4,-13,-12,-20,-36,-16,-5
-5,-7,-1,5,-1,-4,-13,-12,-20,-36,-15,-5
-5,-7,-1,5,-2,-4,-13,-12,-19,-35,-15,-5
-3,-6,-2,4,-1,-4,-13,-11,-19,-35,-15,-5
-2,-6,-3,4,0,-4,-14,-12,-20,-36,-15,-5
-2,-6,-4,5,0,-5,-14,-12,-20,-35,-15,-5
-5,-7,-2,6,-1,-4,-14,-11,-19,-34,-14,-5
-6,-7,-1,7,-2,-4,-14,-10,-18,-33,-14,-5
-4,-6,-2,5,0,-4,-14,-9,-18,-33,-14,-5
-1,-6,-4,3,2,-5,-15,-10,-19,-33,-14,-5
0,-6,-6,3,3,-6,-16,-10,-19,-33,-14,-6
1,-6,-6,2,3,-5,-15,-9,-18,-33,-13,-6
0,-5,-4,3,1,-4,-13,-8,-17,-32,-11,-5
-3,-5,-2,4,-1,-3,-12,-7,-16,-31,-11,-4
-3,-5,-2,4,-1,-3,-12,-7,-16,-31,-11,-5
-1,-4,-3,2,1,-3,-13,-7,-16,-31,-12,-5
0,-3,-4,0,3,-3,-13,-7,-15,-30,-11,-5
0,-3,-4,0,3,-3,-12,-6,-15,-30,-10,-4
-1,-5,-4,2,2,-4,-12,-6,-15,-30,-10,-4
-3,-7,-4,5,0,-5,-13,-6,-16,-31,-10,-4
-4,-9,-4,7,0,-6,-13,-6,-16,-33,-10,-5
-3,-9,-6,6,1,-7,-13,-6,-16,-35,-11,-5
-1,-9,-8,5,3,-8,-14,-7,-16,-37,-11,-6
1,-8,-10,2,6,-8,-14,-7,-16,-40,-11,-6
4,-6,-10,0,7,-8,-13,-6,-15,-42,-10,-6
5,-3,-9,-2,8,-6,-12,-5,-14,-44,-9,-5
5,-2,-7,-2,6,-5,-11,-4,-14,-45,-8,-4
2,-2,-4,0,3,-3,-11,-3,-13,-45,-7,-3
1,-1,-2,0,1,-2,-10,-3,-12,-47,-7,-2
1,-1,-3,0,2,-2,-10,-2,-12,-49,-7,-2
2,-2,-4,0,3,-3,-10,-2,-12,-51,-7,-3
1,-3,-5,1,3,-4,-10,-2,-12,-53,-7,-3
0,-4,-4,1,2,-4,-10,-2,-12,-55,-7,-3
0,-5,-4,1,3,-4,-10,-3,-12,-57,-8,-3
1,-5,-5,1,4,-5,-10,-3,-13,-60,-8,-4
1,-6,-6,2,4,-6,-10,-4,-14,-62,-9,-5
1,-6,-7,2,4,-6,-11,-5,-14,-63,-9,-5
2,-6,-7,2,5,-6,-10,-4,-14,-64,-9,-5
3,-5,-7,1,5,-5,-10,-4,-14,-65,-9,-5
2,-4,-7,0,5,-5,-10,-4,-14,-65,-9,-5
2,-5,-7,1,5,-6,-10,-5,-15,-66,-10,-5
2,-6,-8,1,5,-7,-11,-6,-16,-67,-11,-6
2,-7,-9,2,6,-8,-12,-6,-16,-67,-11,-7
3,-6,-8,1,6,-8,-12,-6,-16,-66,-11,-6
1,-5,-6,2,4,-6,-11,-6,-16,-65,-11,-6
-1,-5,-4,3,1,-5,-11,-5,-16,-64,-11,-5
-3,-6,-3,4,0,-5,-11,-5,-16,-63,-11,-5
-3,-6,-3,4,0,-5,-10,-5,-16,-62,-11,-5
-2,-5,-3,4,0,-5,-10,-5,-16,-61,-10,-4
-2,-5,-4,3,0,-4,-10,-5,-15,-60,-10,-4
-1,-5,-5,3,1,-5,-10,-6,-15,-59,-11,-4
0,-6,-6,3,3,-6,-10,-6,-16,-59,-12,-5
1,-7,-8,2,5,-7,-10,-7,-17,-59,-13,-6
2,-7,-9,2,6,-7,-10,-7,-18,-58,-14,-7
1,-7,-8,2,5,-7,-11,-7,-18,-58,-14,-7
0,-8,-7,4,3,-7,-11,-8,-18,-57,-15,-8
0,-9,-8,4,3,-8,-11,-9,-19,-57,-15,-8
1,-9,-10,3,5,-9,-12,-10,-20,-58,-16,-9
4,-9,-12,2,8,-10,-13,-11,-21,-58,-18,-10
4,-9,-13,2,9,-11,-13,-11,-21,-58,-19,-11
3,-9,-11,2,7,-10,-12,-11,-21,-57,-19,-11
0,-9,-9,4,5,-9,-12,-11,-22,-57,-19,-11
0,-10,-9,5,4,-10,-12,-12,-23,-57,-20,-12
0,-9,-9,5,4,-9,-12,-12,-23,-56,-19,-12
-1,-7,-7,4,2,-7,-11,-11,-22,-54,-18,-11
-2,-6,-6,5,1,-6,-10,-10,-21,-53,-17,-10
-1,-7,-7,4,3,-7,-10,-10,-21,-53,-18,-10
1,-8,-9,4,5,-8,-11,-11,-22,-53,-19,-11
1,-8,-10,3,5,-9,-12,-12,-22,-53,-20,-12
0,-9,-8,5,3,-8,-12,-12,-22,-53,-20,-12
-3,-9,-5,6,1,-7,-12,-12,-22,-52,-20,-12
-4,-8,-4,6,0,-6,-11,-12,-22,-52,-19,-11
-2,-6,-5,4,1,-6,-11,-12,-22,-51,-19,-11
0,-6,-6,3,3,-6,-12,-12,-22,-51,-19,-11
0,-7,-7,4,3,-7,-12,-12,-22,-51,-20,-11
-3,-9,-6,6,1,-7,-12,-12,-22,-50,-20,-11
-5,-10,-5,7,0,-7,-12,-12,-22,-50,-20,-11
-5,-10,-5,6,0,-7,-12,-12,-22,-49,-20,-11
-3,-8,-5,5,0,-6,-12,-12,-22,-49,-20,-11
-2,-8,-5,4,1,-6,-12,-12,-23,-49,-20,-12
-1,-7,-5,4,1,-6,-12,-12,-23,-49,-20,-12
-1,-5,-5,3,1,-5,-11,-12,-23,-49,-20,-11
0,-4,-6,2,2,-5,-11,-11,-23,-48,-20,-11
0,-4,-6,1,2,-4,-10,-11,-23,-48,-20,-11
0,-4,-5,1,2,-4,-10,-11,-23,-47,-20,-11
-1,-5,-5,2,2,-4,-11,-11,-23,-47,-20,-11
-1,-6,-5,2,2,-4,-11,-12,-24,-48,-20,-12
-1,-6,-5,2,2,-5,-12,-12,-24,-48,-21,-13
0,-6,-6,2,3,-5,-12,-13,-25,-49,-22,-14
0,-7,-7,2,4,-7,-13,-13,-25,-50,-23,-14
1,-7,-9,2,5,-8,-13,-14,-26,-50,-23,-15
1,-8,-10,3,6,-9,-14,-15,-27,-50,-24,-16
0,-9,-10,4,5,-10,-14,-15,-27,-50,-24,-16
-1,-9,-9,5,5,-10,-14,-15,-26,-50,-24,-15
-1,-9,-9,5,4,-10,-14,-15,-26,-50,-24,-15
-2,-9,-7,6,3,-9,-14,-14,-26,-49,-24,-14
-3,-9,-6,6,2,-8,-13,-13,-25,-49,-23,-14
-3,-9,-6,6,2,-8,-12,-13,-25,-49,-23,-14
-2,-9,-7,5,3,-9,-12,-13,-26,-49,-23,-14
-1,-8,-8,5,3,-8,-12,-13,-25,-49,-23,-13
-1,-8,-7,5,3,-7,-12,-13,-25,-48,-22,-13
0,-8,-8,4,4,-7,-13,-14,-25,-48,-22,-13
1,-8,-10,3,6,-8,-13,-14,-26,-49,-23,-13
2,-8,-11,2,7,-9,-14,-14,-26,-49,-24,-14
1,-9,-11,3,6,-9,-14,-15,-26,-50,-24,-15
0,-10,-10,4,4,-9,-13,-15,-26,-50,-24,-15
0,-10,-10,4,5,-10,-14,-15,-27,-50,-25,-15
1,-10,-12,4,7,-11,-14,-17,-28,-51,-26,-16
3,-10,-15,4,9,-12,-15,-17,-29,-52,-26,-17
4,-10,-15,4,10,-13,-15,-17,-29,-52,-26,-17
1,-12,-13,6,7,-12,-15,-17,-29,-52,-26,-17
-5,-14,-9,10,2,-12,-15,-17,-29,-51,-26,-17
-9,-15,-6,12,-1,-11,-15,-17,-28,-51,-26,-16
-8,-14,-6,11,-1,-10,-15,-17,-28,-51,-26,-16
-6,-11,-5,8,-1,-9,-14,-16,-28,-51,-26,-16
-6,-10,-5,7,-1,-8,-14,-16,-27,-51,-25,-15
-5,-8,-4,7,0,-7,-14,-15,-27,-50,-25,-14
-3,-7,-4,5,0,-6,-14,-15,-27,-50,-24,-14
0,-6,-5,4,2,-5,-14,-15,-27,-49,-24,-13
1,-6,-7,3,4,-6,-14,-15,-27,-49,-24,-14
2,-6,-8,2,5,-7,-14,-15,-26,-49,-24,-14
2,-6,-8,2,5,-7,-14,-15,-26,-48,-24,-14
1,-6,-7,2,4,-7,-14,-15,-26,-48,-24,-14
0,-6,-7,3,3,-7,-13,-15,-26,-48,-24,-14
0,-6,-7,3,3,-7,-13,-15,-26,-48,-24,-13
0,-7,-6,4,2,-7,-13,-15,-26,-48,-24,-13
-1,-7,-6,4,2,-7,-13,-15,-26,-48,-24,-13
-1,-8,-7,5,2,-8,-14,-15,-26,-48,-24,-14
-2,-10,-7,6,2,-9,-14,-15,-27,-49,-25,-15
-3,-11,-8,7,2,-9,-15,-16,-28,-50,-26,-16
-3,-11,-8,7,2,-9,-15,-17,-28,-50,-26,-17
-3,-10,-7,6,2,-9,-15,-17,-28,-50,-26,-17
-3,-9,-6,6,2,-8,-14,-16,-27,-49,-25,-16
-3,-7,-5,5,1,-6,-14,-15,-26,-48,-24,-15
-3,-6,-3,5,0,-5,-13,-14,-25,-47,-23,-14
-2,-5,-3,4,0,-4,-13,-14,-25,-47,-23,-14
-1,-5,-3,4,0,-4,-13,-13,-25,-46,-23,-14
0,-4,-5,2,2,-5,-13,-13,-25,-46,-23,-14
2,-4,-6,1,3,-6,-13,-13,-25,-46,-23,-14
3,-5,-8,1,5,-7,-13,-14,-25,-46,-23,-14
5,-6,-12,1,8,-9,-14,-15,-26,-47,-24,-15
6,-7,-14,0,10,-11,-14,-15,-26,-47,-25,-15
7,-7,-15,0,11,-11,-14,-15,-26,-47,-25,-15
6,-7,-14,1,10,-10,-14,-13,-25,-46,-24,-15
5,-6,-11,1,8,-8,-13,-12,-23,-45,-23,-14
3,-5,-8,1,5,-6,-12,-11,-22,-44,-22,-13
0,-5,-4,2,2,-4,-11,-10,-21,-43,-21,-12
-3,-5,-2,4,-1,-3,-11,-9,-20,-42,-21,-12
-4,-5,-1,4,-1,-3,-10,-9,-20,-42,-20,-12
-4,-5,-2,4,0,-4,-10,-8,-20,-41,-20,-11
-2,-5,-4,4,1,-4,-11,-8,-19,-40,-20,-11
0,-5,-6,3,3,-5,-11,-7,-19,-40,-20,-12
1,-7,-8,3,5,-7,-11,-7,-19,-41,-20,-12
3,-8,-11,3,7,-10,-11,-7,-19,-41,-21,-13
5,-8,-14,2,9,-11,-12,-7,-19,-42,-21,-14
5,-8,-14,2,9,-12,-12,-7,-20,-42,-21,-15
2,-7,-10,2,6,-10,-12,-8,-20,-41,-21,-14
-1,-7,-7,3,3,-7,-12,-8,-20,-41,-20,-13
-2,-7,-6,4,2,-7,-13,-10,-22,-42,-21,-13
-2,-7,-5,4,2,-6,-14,-12,-23,-43,-22,-13
-1,-6,-5,4,2,-6,-14,-13,-24,-43,-21,-13
-1,-5,-5,3,2,-5,-14,-13,-24,-43,-21,-13
-1,-6,-5,4,1,-6,-14,-13,-24,-43,-21,-13
-3,-9,-6,6,1,-7,-15,-14,-24,-44,-22,-14
-3,-10,-7,6,1,-9,-15,-14,-24,-44,-22,-14
-2,-10,-8,5,3,-9,-15,-14,-24,-44,-22,-15
0,-8,-9,4,4,-9,-15,-14,-24,-44,-22,-15
2,-7,-9,2,5,-8,-14,-13,-24,-44,-22,-14
2,-7,-9,2,5,-8,-14,-13,-24,-43,-21,-14
0,-9,-9,4,4,-9,-14,-13,-24,-44,-22,-14
-1,-11,-10,6,4,-11,-14,-14,-25,-45,-23,-15
-1,-12,-11,6,4,-11,-14,-15,-25,-45,-23,-16
0,-10,-10,4,5,-10,-13,-15,-24,-45,-23,-16
0,-8,-9,3,4,-8,-13,-15,-24,-44,-22,-15
0,-7,-7,3,3,-7,-12,-14,-23,-44,-22,-15
-1,-7,-6,4,2,-6,-12,-14,-23,-44,-22,-15
-2,-9,-7,5,2,-7,-13,-14,-24,-44,-22,-15
-2,-9,-7,6,2,-7,-13,-14,-24,-44,-22,-15
0,-8,-8,4,3,-7,-12,-14,-23,-44,-22,-15
1,-6,-7,3,4,-6,-11,-13,-22,-43,-22,-15
1,-6,-7,2,3,-6,-10,-13,-22,-43,-21,-15
0,-6,-7,3,3,-6,-10,-13,-22,-43,-21,-15
0,-7,-7,3,3,-6,-10,-13,-22,-44,-22,-15
0,-7,-8,4,3,-7,-10,-14,-23,-45,-22,-15
0,-7,-8,3,4,-7,-11,-14,-23,-45,-23,-16
2,-7,-9,3,5,-7,-11,-14,-23,-46,-23,-16
3,-7,-10,2,6,-8,-11,-15,-24,-46,-24,-17
3,-8,-11,3,7,-9,-12,-16,-24,-47,-25,-18
2,-10,-12,4,7,-11,-12,-17,-25,-47,-26,-19
1,-11,-13,5,7,-11,-13,-18,-25,-48,-27,-20
0,-12,-13,5,7,-12,-13,-18,-26,-49,-28,-22
0,-11,-12,5,6,-11,-13,-18,-26,-50,-28,-22
0,-10,-11,5,5,-10,-12,-17,-26,-50,-28,-22
-1,-9,-9,5,4,-9,-12,-17,-26,-49,-27,-22
-2,-8,-7,5,2,-8,-11,-16,-25,-48,-27,-21
-1,-8,-6,5,2,-7,-10,-15,-24,-48,-26,-20
0,-7,-7,4,3,-7,-10,-15,-24,-48,-26,-20
0,-7,-7,4,4,-7,-10,-15,-23,-47,-26,-20
-1,-9,-8,5,4,-9,-11,-16,-24,-47,-26,-20
-1,-11,-10,6,5,-10,-11,-16,-24,-48,-27,-21
-2,-11,-10,7,4,-11,-12,-16,-24,-48,-27,-21
-2,-12,-10,7,4,-11,-12,-16,-23,-48,-27,-21
-2,-12,-10,7,3,-11,-12,-16,-23,-48,-27,-21
-3,-11,-8,7,3,-10,-11,-15,-22,-47,-27,-21
-4,-12,-8,8,2,-10,-10,-14,-22,-47,-27,-21
-5,-12,-8,8,2,-10,-10,-14,-22,-46,-27,-21
-4,-11,-7,8,2,-10,-9,-14,-22,-46,-26,-21
-4,-11,-7,8,1,-10,-9,-14,-22,-46,-26,-21
-5,-13,-7,9,0,-10,-9,-15,-22,-46,-26,-22
-7,-14,-7,11,0,-11,-10,-15,-22,-47,-27,-22
-8,-15,-7,12,-1,-11,-10,-15,-22,-47,-27,-23
-8,-16,-7,12,0,-12,-9,-13,-21,-47,-27,-23
-6,-16,-9,11,1,-12,-8,-11,-20,-46,-27,-24
-2,-13,-10,8,4,-12,-7,-7,-17,-45,-27,-24
1,-11,-12,4,7,-11,-5,-3,-15,-44,-27,-24
2,-10,-12,3,7,-11,-3,1,-12,-43,-26,-25
2,-10,-12,4,7,-11,0,6,-8,-41,-25,-25
2,-9,-11,4,6,-10,2,12,-2,-38,-23,-24
0,-7,-7,3,3,-7,7,21,6,-32,-19,-21
-1,-4,-2,3,0,-3,13,33,18,-23,-14,-17
-3,-2,1,2,-2,0,21,47,31,-14,-7,-12
-3,1,5,1,-4,3,29,61,45,-2,1,-5
-4,5,9,-1,-6,7,35,74,59,10,12,4
-2,10,13,-4,-7,12,38,84,71,24,28,18
2,20,18,-11,-8,19,38,90,82,42,50,40
6,34,27,-20,-10,31,37,90,92,64,78,67
11,52,40,-31,-15,47,32,84,99,89,111,101
15,74,59,-44,-22,66,24,70,102,114,147,139
16,97,80,-56,-31,88,12,45,99,138,182,178
17,118,101,-67,-41,109,-2,14,90,158,213,213
18,133,115,-75,-48,124,-17,-19,77,175,242,244
18,138,120,-77,-50,129,-29,-48,64,189,265,270
17,136,119,-76,-51,127,-37,-67,56,200,281,286
16,132,115,-73,-50,123,-43,-79,49,205,285,289
15,126,109,-70,-47,117,-48,-88,41,202,278,280
15,117,101,-66,-43,109,-52,-94,34,196,265,263
15,104,88,-59,-36,96,-53,-93,29,186,244,236
11,88,76,-49,-31,82,-50,-90,22,160,201,190
3,72,68,-37,-31,70,-46,-88,8,115,137,127
-4,57,62,-26,-32,59,-42,-87,-8,65,76,70
-8,46,55,-19,-31,51,-38,-84,-21,26,33,32
-11,38,50,-14,-30,44,-34,-81,-31,-2,6,9
-12,33,44,-10,-28,38,-32,-80,-40,-24,-11,-5
-12,28,40,-8,-27,34,-31,-78,-46,-39,-21,-14
-12,25,36,-7,-25,31,-30,-74,-47,-46,-25,-18
-11,23,33,-6,-22,28,-28,-68,-44,-47,-25,-19
-8,20,28,-6,-18,24,-26,-60,-40,-46,-24,-19
-6,15,22,-4,-13,19,-24,-52,-34,-44,-23,-20
-5,10,16,-2,-10,13,-20,-43,-28,-42,-22,-19
-4,8,12,-2,-8,10,-16,-34,-22,-38,-19,-18
-4,7,10,-1,-7,9,-11,-26,-15,-34,-17,-17
-4,6,9,-1,-7,8,-7,-19,-10,-31,-15,-16
-3,4,6,0,-5,5,-4,-13,-6,-28,-13,-15
-4,1,3,1,-4,2,-2,-10,-3,-26,-13,-14
-4,-1,2,3,-3,0,-1,-7,-1,-26,-12,-14
-4,-2,0,3,-2,-1,-1,-6,0,-26,-12,-14
-4,-4,0,4,-2,-2,0,-4,1,-26,-13,-15
-4,-5,-1,5,-2,-2,0,-3,2,-26,-13,-15
-3,-5,-2,5,-1,-3,0,-2,2,-26,-14,-16
-2,-6,-5,4,0,-5,0,-1,2,-27,-14,-17
0,-6,-7,3,3,-6,1,-1,2,-27,-15,-17
1,-6,-9,2,5,-7,1,0,2,-27,-15,-18
1,-7,-9,3,5,-8,1,0,3,-27,-15,-18
-1,-8,-7,4,3,-7,1,0,3,-27,-15,-18
-3,-7,-4,5,1,-6,1,0,4,-26,-14,-17
-3,-6,-2,5,0,-4,2,2,5,-25,-13,-16
-3,-5,-2,4,0,-4,3,3,5,-24,-13,-15
-2,-5,-3,4,0,-5,4,3,6,-24,-13,-15
-2,-5,-4,4,1,-5,5,3,6,-24,-13,-16
-1,-5,-5,3,2,-6,5,3,5,-24,-13,-16
-2,-6,-5,4,2,-6,5,3,5,-24,-13,-17
-2,-6,-5,4,2,-6,5,4,6,-23,-13,-17
0,-6,-6,3,3,-6,5,4,6,-22,-13,-17
1,-6,-7,2,4,-6,5,4,6,-22,-14,-18
2,-6,-8,2,5,-7,4,4,6,-23,-14,-19
2,-7,-9,2,5,-8,4,4,6,-23,-14,-19
1,-8,-9,3,4,-8,4,4,7,-22,-14,-19
-3,-9,-6,5,1,-7,6,5,8,-21,-13,-18
-6,-9,-4,7,-1,-6,7,6,9,-19,-11,-17
-5,-9,-4,7,0,-6,8,7,10,-18,-10,-16
-4,-10,-6,7,1,-8,7,7,11,-18,-10,-16
-2,-10,-7,6,2,-9,7,8,11,-18,-10,-16
0,-8,-7,5,3,-8,7,9,12,-17,-9,-15
-1,-7,-5,4,2,-6,8,11,13,-16,-8,-14
-2,-6,-3,4,0,-5,9,11,14,-15,-7,-14
-2,-5,-3,4,0,-4,9,12,15,-14,-7,-14
0,-4,-6,2,3,-5,9,12,15,-14,-7,-14
4,-4,-9,0,6,-6,9,11,15,-15,-8,-14
4,-5,-10,0,7,-7,9,11,15,-15,-8,-15
3,-6,-8,2,6,-7,9,12,16,-14,-8,-14
1,-6,-7,3,4,-7,9,12,17,-13,-7,-13
0,-7,-7,4,4,-7,9,13,17,-12,-6,-13
0,-7,-7,4,3,-8,9,13,18,-12,-6,-13
-2,-8,-6,5,1,-8,10,14,18,-11,-6,-12
-4,-9,-5,6,0,-7,10,14,19,-11,-5,-12
-4,-8,-5,6,0,-7,10,15,20,-10,-5,-11
-2,-8,-5,5,1,-7,10,15,20,-9,-4,-11
-1,-8,-6,5,2,-7,11,16,21,-8,-3,-10
-1,-7,-5,5,2,-6,11,17,22,-7,-2,-9
-1,-6,-4,4,1,-5,12,19,23,-6,-1,-8
-1,-4,-3,3,1,-4,13,20,24,-5,0,-7
0,-4,-4,2,1,-4,13,20,25,-4,0,-8
0,-4,-5,2,2,-4,13,21,25,-3,0,-8
0,-4,-5,2,2,-4,14,22,27,-2,1,-7
0,-4,-5,2,2,-4,14,23,28,-1,2,-6
0,-4,-5,2,3,-5,15,23,29,0,3,-5
0,-5,-5,3,2,-5,15,24,30,1,4,-5
0,-6,-6,3,2,-5,15,24,30,2,4,-5
0,-5,-6,2,3,-5,15,25,31,3,5,-4
1,-4,-5,1,2,-4,16,27,33,5,6,-2
1,-3,-4,0,2,-3,17,29,35,7,8,-1
1,-4,-5,0,3,-4,17,30,36,8,9,0
2,-4,-6,1,4,-5,18,31,37,9,9,0
2,-5,-6,1,4,-6,18,31,38,10,10,0
1,-5,-6,2,4,-6,18,32,38,10,10,0
0,-4,-4,2,3,-5,18,33,39,12,12,0
0,-4,-3,2,2,-4,18,33,40,13,13,0
-1,-7,-5,4,2,-6,17,33,40,13,12,-1
-2,-10,-7,6,3,-9,17,33,40,13,12,-1
-2,-10,-8,6,3,-10,17,34,41,14,13,-1
0,-8,-8,5,4,-9,18,36,43,16,14,0
0,-6,-7,3,4,-7,18,38,44,18,16,1
2,-4,-7,1,5,-6,18,39,45,19,16,1
4,-3,-7,0,6,-5,18,39,46,20,17,2
2,-3,-5,0,4,-4,19,40,47,21,19,3
1,-3,-3,1,2,-3,20,42,49,23,20,5
0,-2,-2,0,1,-2,21,43,51,25,22,6
0,-1,-1,0,0,-1,21,45,52,26,23,7
0,-2,-1,1,0,-2,21,45,53,28,24,7
-1,-3,-2,2,0,-3,20,46,53,29,25,8
-2,-4,-2,2,0,-3,20,46,53,29,25,9
-2,-3,-1,2,0,-2,20,47,54,30,26,10
0,-1,0,1,0,-1,20,47,55,32,28,11
3,1,-1,-2,3,0,21,48,57,34,30,12
6,4,-2,-5,5,0,21,50,59,36,32,14
7,5,-2,-6,5,1,22,51,60,38,33,15
6,6,0,-6,3,2,22,52,61,39,35,16
4,5,1,-5,2,2,23,53,62,40,36,17
4,5,0,-4,1,2,22,53,63,41,36,17
4,5,0,-4,2,2,22,54,63,41,37,18
4,5,0,-4,1,2,22,54,63,42,37,19
4,4,0,-4,1,2,22,53,63,42,38,19
4,4,0,-4,2,2,22,53,63,43,38,20
3,4,2,-4,1,3,22,53,62,43,39,20
3,5,3,-4,0,4,22,53,62,44,40,21
3,6,4,-5,0,4,23,52,62,45,41,22
4,7,3,-5,0,5,22,52,61,45,41,22
5,7,2,-6,1,5,21,51,61,45,41,22
7,8,0,-7,3,4,20,50,60,45,41,22
8,8,0,-7,4,4,19,49,60,45,41,23
7,8,1,-7,3,4,20,49,60,46,42,24
5,8,3,-6,1,5,20,48,60,46,43,25
4,8,4,-6,0,5,20,48,59,46,43,25
4,9,5,-7,0,6,20,47,59,47,44,26
4,9,4,-7,0,5,19,46,58,46,43,25
3,7,3,-5,0,4,18,43,56,45,42,24
3,5,2,-3,0,3,18,41,55,44,41,24
3,5,2,-3,0,3,17,39,53,43,40,23
2,4,2,-2,0,3,17,37,51,41,40,23
2,5,3,-3,-1,4,16,36,50,41,40,23
4,6,2,-5,0,4,16,34,49,40,40,24
7,7,0,-7,2,3,15,33,47,39,39,24
6,7,0,-7,2,3,14,31,46,38,38,24
5,7,2,-6,0,4,14,30,45,38,38,24
5,8,3,-6,0,5,14,29,43,37,37,23
5,9,3,-6,1,6,14,28,42,36,37,23
4,8,4,-6,0,6,15,26,41,34,36,22
1,7,5,-4,-2,6,15,24,39,32,34,21
0,5,6,-2,-3,5,14,22,37,30,32,19
-1,4,5,-2,-3,5,14,20,34,27,30,17
-1,4,5,-1,-3,4,13,18,32,24,27,14
-1,3,4,-1,-3,3,13,16,29,21,24,12
-1,3,4,0,-2,3,12,14,26,18,22,10
-1,2,4,0,-2,2,12,12,23,16,20,9
0,2,3,0,-1,2,11,10,21,13,19,7
0,3,3,-1,-1,2,11,9,20,11,17,6
0,3,2,-1,-1,2,11,8,19,9,16,5
0,2,2,-1,-1,1,11,6,17,7,14,4
-1,1,2,0,-1,1,11,4,15,5,12,2
-1,2,3,0,-2,2,12,3,13,3,10,0
-2,2,4,0,-3,3,12,2,12,1,9,0
-1,3,4,0,-2,3,12,1,10,-1,7,-1
-1,2,3,0,-2,2,12,-1,7,-4,4,-3
-2,0,2,1,-1,1,11,-3,5,-7,2,-6
-1,-1,0,1,0,0,10,-4,3,-9,0,-8
0,0,0,0,0,-1,9,-5,2,-11,-1,-9
0,0,0,0,0,-1,9,-6,1,-12,-2,-10
0,0,-1,0,1,-1,9,-7,0,-13,-4,-12
0,-1,-1,0,1,-1,9,-8,-2,-15,-5,-13
-2,-1,0,1,0,-1,9,-9,-3,-16,-6,-13
-3,-2,1,2,-1,-1,9,-10,-4,-18,-7,-14
-3,-3,0,3,-1,-2,9,-11,-5,-19,-8,-16
-3,-5,-2,4,0,-4,9,-12,-6,-21,-9,-17
-3,-7,-4,4,0,-6,9,-12,-6,-21,-10,-18
-2,-7,-4,4,0,-6,9,-12,-6,-22,-11,-19
-3,-6,-3,4,0,-5,9,-12,-6,-22,-11,-19
-3,-6,-2,5,-1,-5,8,-12,-7,-22,-12,-19
-4,-7,-2,6,-1,-5,8,-12,-7,-23,-13,-19
-5,-6,0,6,-2,-3,9,-12,-7,-23,-12,-19
-6,-5,1,6,-3,-2,10,-11,-6,-22,-12,-19
-5,-5,0,6,-2,-3,10,-11,-7,-23,-12,-19
-4,-6,-1,5,-1,-4,10,-12,-7,-23,-13,-20
-3,-5,-2,4,-1,-4,9,-12,-7,-23,-13,-20
-3,-4,-1,4,-1,-3,10,-11,-7,-23,-12,-20
-3,-3,0,3,-2,-2,10,-11,-6,-22,-12,-20
-4,-3,1,4,-3,-1,11,-10,-6,-21,-11,-19
-5,-3,2,4,-3,-1,11,-10,-5,-20,-11,-18
-5,-3,2,4,-3,-1,11,-10,-5,-20,-11,-18
-5,-4,1,4,-3,-2,11,-10,-5,-20,-11,-19
-6,-5,1,5,-4,-2,11,-10,-5,-20,-11,-19
-6,-4,1,5,-4,-2,12,-9,-5,-20,-11,-19
-5,-3,1,4,-3,-2,12,-9,-5,-20,-11,-19
-4,-3,0,3,-2,-2,11,-9,-5,-20,-11,-19
-2,-3,-1,3,-1,-3,11,-9,-5,-20,-11,-19
-2,-3,0,2,0,-2,11,-9,-5,-19,-11,-19
-2,-2,0,2,-1,-1,11,-9,-4,-19,-10,-19
-3,-2,1,3,-2,-1,11,-8,-3,-18,-10,-19
-4,-2,1,3,-3,-1,11,-8,-3,-18,-10,-19
-5,-3,2,3,-3,-1,11,-8,-2,-17,-9,-19
-4,-2,2,3,-3,0,12,-8,-2,-17,-9,-19
-3,-1,2,2,-3,0,12,-8,-2,-16,-9,-19
-4,-1,3,2,-4,0,12,-8,-2,-16,-9,-19
-3,0,3,2,-3,0,12,-8,-2,-15,-9,-19
-2,0,2,1,-2,0,12,-7,-1,-15,-9,-19
-2,0,2,1,-2,0,12,-7,-1,-14,-8,-18
-2,0,2,1,-2,0,12,-6,0,-14,-8,-18
-3,-1,1,2,-2,0,11,-6,0,-14,-8,-17
-2,-3,0,2,-1,-2,10,-7,-1,-14,-8,-17
-1,-4,-2,2,0,-4,10,-7,-1,-14,-8,-17
-1,-4,-3,2,1,-4,10,-6,0,-14,-8,-16
-2,-5,-2,3,0,-4,10,-6,0,-13,-7,-16
-3,-5,-1,4,0,-4,10,-5,1,-12,-6,-15
-4,-5,0,4,-1,-4,11,-5,1,-12,-6,-15
-4,-4,0,4,-2,-3,12,-4,2,-11,-5,-15
-3,-3,0,3,-1,-2,12,-4,2,-10,-4,-14
-3,-3,0,3,-1,-2,12,-4,2,-11,-5,-14
-3,-4,0,3,-1,-2,12,-4,2,-11,-5,-15
-3,-4,0,3,-1,-2,12,-4,1,-11,-6,-15
-2,-4,-1,3,-1,-3,12,-3,1,-11,-6,-15
-2,-4,-2,3,0,-4,11,-3,0,-12,-7,-16
-1,-4,-2,2,1,-4,11,-3,0,-12,-7,-16
-1,-3,-1,2,0,-3,11,-3,1,-12,-7,-16
-2,-3,-1,3,0,-3,11,-3,1,-12,-7,-16
-3,-4,0,4,-1,-3,11,-3,0,-12,-7,-16
-3,-4,0,4,-1,-3,11,-3,0,-12,-7,-16
-3,-3,1,3,-2,-2,12,-3,1,-12,-7,-15
-3,-2,2,3,-2,0,12,-2,1,-11,-6,-13
-4,-1,3,3,-3,0,13,-1,2,-10,-5,-13
-4,-2,2,3,-2,0,13,-1,1,-11,-6,-13
-3,-2,1,3,-2,-1,13,-1,1,-12,-7,-14
-3,-3,0,3,-1,-2,13,-2,0,-12,-7,-15
-2,-4,-2,3,0,-4,12,-3,0,-13,-8,-16
-1,-5,-3,3,1,-5,12,-3,0,-14,-9,-16
-1,-5,-4,3,1,-5,12,-3,0,-14,-9,-16
-1,-5,-3,3,1,-4,12,-3,0,-14,-9,-16
-1,-4,-2,3,1,-3,12,-3,0,-14,-8,-15
-2,-3,0,3,0,-2,12,-3,0,-13,-8,-15
-3,-2,1,3,-1,-1,12,-3,0,-13,-8,-15
-4,-2,2,3,-2,0,13,-2,0,-12,-8,-14
-6,-3,2,4,-3,0,13,-2,-1,-12,-8,-14
-6,-4,2,5,-4,0,13,-3,-2,-13,-8,-15
-6,-5,1,5,-4,-1,13,-3,-2,-13,-9,-15
-6,-6,0,6,-4,-2,13,-4,-3,-14,-9,-15
-6,-8,-1,6,-3,-4,12,-4,-4,-15,-10,-16
-5,-8,-3,6,-2,-6,10,-5,-5,-16,-11,-17
-3,-8,-4,5,0,-6,9,-6,-6,-17,-12,-18
-2,-6,-4,4,0,-5,9,-6,-6,-18,-13,-18
-3,-6,-3,5,0,-5,9,-7,-7,-18,-13,-19
-4,-6,-3,5,-1,-4,9,-7,-7,-17,-13,-19
-3,-5,-2,4,-1,-4,9,-7,-7,-17,-13,-18
-3,-4,-2,3,-1,-3,10,-7,-7,-16,-13,-18
-2,-3,-1,2,-1,-3,10,-7,-7,-17,-13,-18
-2,-2,-1,2,-1,-2,9,-7,-8,-17,-13,-18
-1,-2,-1,1,0,-2,9,-7,-8,-17,-13,-18
0,-1,-2,0,1,-2,9,-7,-8,-17,-13,-18
1,-1,-2,0,1,-2,9,-7,-8,-16,-14,-18
0,-1,-1,0,0,-1,9,-7,-9,-16,-14,-18
-2,-1,0,1,-1,-1,9,-7,-9,-16,-15,-18
-3,-3,-1,3,-1,-2,8,-8,-10,-17,-15,-19
-3,-5,-3,4,-1,-4,7,-9,-11,-18,-16,-21
-3,-7,-4,5,0,-6,7,-10,-13,-18,-17,-22
-3,-7,-4,5,0,-6,7,-11,-13,-18,-18,-22
-3,-6,-3,5,-1,-5,7,-11,-13,-17,-17,-21
-3,-5,-2,5,-1,-4,7,-11,-13,-17,-17,-21
-4,-7,-3,6,-1,-5,6,-11,-13,-17,-18,-21
-4,-8,-4,7,0,-6,5,-12,-14,-18,-18,-22
-4,-7,-3,6,-1,-5,5,-11,-14,-17,-18,-22
-3,-5,-2,4,-1,-3,7,-10,-12,-15,-16,-20
-3,-3,-1,3,-1,-2,8,-10,-12,-15,-16,-20
-3,-4,-1,3,-1,-3,7,-11,-13,-15,-16,-20
-5,-5,-1,5,-1,-3,6,-11,-14,-15,-17,-21
-6,-7,-2,7,-2,-4,5,-12,-15,-16,-18,-22
-6,-9,-3,7,-1,-5,4,-13,-16,-17,-19,-23
-5,-9,-3,7,-1,-6,4,-14,-16,-17,-19,-23
-4,-9,-4,6,0,-6,4,-14,-16,-17,-19,-24
-2,-7,-4,4,0,-6,4,-13,-16,-17,-19,-23
-1,-4,-4,2,1,-4,5,-12,-15,-16,-18,-22
0,-2,-2,0,1,-3,6,-12,-14,-15,-17,-21
-1,-1,-1,0,0,-2,6,-12,-14,-15,-17,-21
-1,-2,-1,1,0,-1,5,-12,-15,-15,-17,-21
-1,-2,0,2,0,-1,5,-12,-15,-16,-17,-21
-1,-2,0,2,0,-1,5,-12,-15,-16,-17,-21
-1,-2,0,1,0,-1,5,-12,-15,-16,-17,-21
-1,-3,-2,1,0,-2,5,-13,-15,-16,-18,-22
-2,-4,-2,2,0,-3,4,-14,-16,-17,-18,-22
-4,-4,-1,4,-2,-3,4,-14,-16,-16,-18,-22
-6,-5,0,5,-4,-3,4,-13,-15,-16,-18,-21
-6,-5,0,5,-3,-3,4,-13,-16,-16,-18,-21
-5,-5,0,5,-2,-3,4,-13,-16,-16,-19,-22
-4,-5,-1,5,-1,-3,4,-13,-17,-17,-19,-22
-2,-4,-1,4,0,-3,4,-13,-16,-17,-19,-22
-3,-5,-1,4,-1,-3,4,-14,-16,-17,-20,-22
-4,-7,-2,5,-2,-5,3,-15,-17,-17,-21,-23
-4,-8,-4,6,-1,-6,2,-16,-18,-18,-21,-24
-3,-9,-6,5,1,-8,1,-17,-19,-19,-22,-25
-1,-8,-7,4,2,-8,1,-17,-20,-20,-22,-25
0,-7,-6,4,2,-6,1,-16,-19,-20,-21,-25
-2,-7,-5,5,1,-6,2,-16,-19,-20,-21,-25
-4,-9,-3,7,-1,-6,2,-16,-19,-20,-21,-25
-6,-9,-1,8,-3,-5,2,-16,-19,-20,-21,-24
-6,-7,0,7,-3,-4,4,-15,-18,-20,-20,-23
-4,-5,-1,4,-2,-3,4,-15,-18,-19,-20,-22
-2,-3,-2,2,0,-3,4,-14,-18,-19,-19,-22
-1,-3,-4,1,1,-4,4,-14,-18,-20,-19,-22
-1,-4,-4,2,1,-4,4,-14,-18,-20,-19,-22
-1,-5,-3,3,0,-4,4,-14,-18,-19,-19,-22
-1,-6,-4,4,1,-5,3,-14,-18,-20,-20,-22
-1,-7,-5,4,1,-6,3,-14,-19,-20,-21,-22
0,-6,-6,3,2,-6,2,-14,-19,-20,-21,-22
0,-6,-7,2,2,-7,2,-15,-19,-20,-21,-22
-2,-7,-5,4,0,-7,2,-15,-19,-20,-21,-22
-4,-6,-3,5,-1,-6,3,-14,-18,-19,-20,-21
-3,-5,-2,4,-1,-4,4,-13,-17,-18,-19,-20
-1,-3,-1,3,0,-3,4,-12,-16,-18,-18,-20
-1,-1,0,2,-1,-1,5,-10,-14,-17,-16,-18
-1,0,1,2,-2,0,6,-9,-13,-16,-15,-17
-1,-1,0,2,-2,0,6,-9,-13,-15,-15,-17
0,-1,0,0,0,-1,6,-9,-14,-15,-16,-17
1,0,-2,-1,1,-1,5,-10,-14,-16,-16,-17
1,0,-2,0,1,-2,4,-11,-15,-16,-17,-18
0,0,0,0,0,-1,3,-13,-16,-17,-18,-19
-1,0,1,1,-1,-1,2,-14,-17,-19,-18,-19
0,1,1,0,-1,0,1,-14,-17,-19,-18,-19
0,1,2,0,-1,1,1,-15,-18,-20,-18,-19
-1,1,2,0,-2,1,1,-15,-18,-20,-18,-19
0,1,1,0,-1,1,1,-15,-19,-20,-18,-18
2,1,0,-1,0,0,1,-16,-19,-20,-18,-18
3,1,-2,-2,2,-1,0,-16,-20,-20,-18,-18
4,1,-3,-2,3,-1,0,-16,-20,-21,-18,-19
5,1,-3,-3,4,-1,0,-17,-21,-21,-18,-19
5,2,-3,-3,4,-1,-1,-17,-21,-21,-18,-19
4,1,-3,-2,4,-1,-1,-16,-21,-21,-18,-18
2,1,-2,-1,2,-1,0,-16,-20,-21,-17,-18
0,0,-1,0,0,0,0,-16,-20,-20,-17,-17
-1,0,0,1,-1,0,0,-16,-20,-20,-17,-17
0,-1,-1,0,0,-1,0,-16,-20,-21,-17,-17
0,-1,-2,0,1,-2,-1,-16,-21,-21,-18,-18
1,-1,-2,0,2,-2,-1,-16,-20,-22,-18,-18
1,0,-2,0,2,-2,-1,-16,-20,-22,-18,-18
1,-1,-3,0,2,-2,-1,-16,-21,-23,-18,-19
0,-3,-3,2,2,-3,-1,-17,-22,-25,-19,-20
-1,-5,-4,4,1,-4,-1,-17,-23,-26,-20,-21
-2,-6,-4,4,0,-5,-1,-18,-23,-28,-21,-22
-3,-6,-2,4,-1,-4,-1,-18,-23,-29,-21,-22
-5,-5,0,5,-3,-2,0,-17,-23,-28,-21,-21
-6,-5,2,6,-4,-1,0,-17,-22,-28,-21,-21
-7,-5,2,7,-5,-1,0,-17,-23,-29,-21,-21
-7,-6,1,7,-4,-2,0,-18,-23,-29,-21,-22
-6,-6,0,7,-3,-3,0,-18,-24,-29,-22,-22
-6,-6,-1,7,-3,-3,-1,-18,-24,-30,-22,-22
-5,-5,0,5,-3,-2,-1,-18,-24,-30,-22,-22
-3,-4,-1,4,-2,-2,-1,-18,-24,-30,-22,-22
-2,-5,-2,4,0,-4,-1,-18,-24,-31,-23,-23
-2,-7,-5,4,1,-6,-2,-19,-25,-32,-25,-25
-2,-8,-6,5,2,-7,-2,-20,-26,-32,-25,-25
-2,-8,-6,4,2,-7,-2,-20,-26,-32,-25,-25
-1,-7,-7,4,3,-7,-2,-20,-26,-32,-25,-25
-1,-9,-8,5,3,-8,-2,-20,-26,-33,-26,-26
-3,-11,-8,7,2,-9,-3,-21,-27,-33,-26,-26
-5,-11,-6,8,0,-9,-2,-20,-26,-33,-26,-26
-5,-10,-4,7,0,-7,-1,-19,-26,-32,-25,-25
-3,-6,-3,4,0,-5,-1,-18,-24,-31,-23,-24
-1,-4,-2,3,1,-4,0,-18,-23,-31,-22,-23
-1,-4,-2,2,1,-4,0,-17,-23,-30,-22,-22
-1,-3,-2,2,1,-3,0,-17,-23,-30,-22,-22
-1,-3,-2,2,1,-3,0,-17,-23,-30,-22,-22
-1,-4,-3,2,1,-3,0,-17,-23,-30,-22,-22
-1,-4,-3,2,1,-3,0,-17,-24,-30,-22,-22
-1,-4,-2,3,1,-3,0,-17,-24,-31,-22,-22
-2,-4,-2,3,0,-3,0,-17,-24,-31,-22,-23
-3,-5,-2,4,0,-4,0,-18,-24,-31,-22,-23
-2,-6,-3,4,0,-5,-1,-18,-24,-31,-22,-23
0,-5,-4,2,2,-5,-1,-18,-24,-31,-22,-23
1,-4,-5,1,3,-4,-1,-18,-24,-30,-22,-23
1,-4,-5,1,3,-4,-1,-17,-23,-30,-22,-23
0,-5,-5,2,3,-5,0,-16,-23,-30,-22,-23
0,-7,-7,4,3,-7,0,-15,-23,-31,-22,-23
0,-10,-10,5,5,-9,0,-14,-23,-31,-23,-25
0,-11,-12,5,6,-11,1,-12,-23,-32,-23,-26
0,-12,-12,5,6,-12,2,-10,-21,-31,-23,-27
0,-12,-11,5,5,-11,3,-6,-19,-30,-23,-26
-1,-11,-10,6,4,-10,4,-2,-15,-27,-21,-25
-1,-10,-8,6,3,-9,7,5,-8,-23,-18,-24
-2,-7,-5,5,1,-6,12,15,1,-16,-14,-21
-2,-4,-1,4,-1,-2,19,27,14,-6,-7,-15
-3,0,3,2,-3,1,27,42,29,6,2,-8
-4,3,7,0,-5,5,36,59,45,19,13,1
-3,8,11,-2,-7,10,43,73,61,33,27,13
-2,14,16,-6,-9,15,46,84,75,50,45,29
1,23,22,-13,-10,23,47,90,87,70,68,52
6,37,31,-22,-12,34,45,90,96,92,95,79
10,54,44,-32,-16,49,39,81,101,115,125,111
12,72,60,-42,-23,66,30,63,101,137,156,145
12,92,80,-51,-34,86,18,38,96,157,186,178
11,109,99,-59,-44,104,4,8,86,174,213,209
10,119,109,-64,-50,114,-9,-22,73,187,236,235
8,118,110,-63,-51,113,-20,-47,60,197,253,252
7,111,105,-59,-49,108,-26,-61,52,206,263,262
8,106,98,-57,-45,102,-30,-69,47,211,266,262
9,103,94,-57,-42,99,-34,-75,41,209,260,253
10,99,89,-55,-39,94,-37,-78,35,204,247,236
10,89,79,-49,-35,85,-36,-77,31,189,218,202
7,76,69,-41,-31,73,-31,-74,22,155,165,147
1,63,62,-32,-30,62,-27,-74,6,107,103,87
-3,52,56,-24,-29,54,-26,-76,-11,61,53,42
-5,43,50,-18,-28,46,-25,-77,-27,24,18,13
-8,36,45,-13,-27,40,-25,-78,-39,-2,-3,-5
-10,30,41,-9,-26,35,-25,-79,-47,-20,-16,-15
-11,25,36,-6,-24,31,-25,-78,-53,-31,-24,-21
-10,21,31,-5,-20,27,-25,-76,-55,-37,-27,-23
-7,20,28,-6,-17,24,-25,-72,-53,-38,-26,-24
-6,20,26,-6,-15,23,-23,-65,-48,-37,-24,-23
-5,18,23,-6,-13,21,-21,-56,-42,-35,-21,-22
-3,16,19,-6,-11,18,-17,-47,-37,-33,-19,-21
-3,13,15,-5,-9,14,-13,-38,-31,-30,-17,-20
-3,10,12,-3,-8,11,-9,-31,-27,-28,-16,-19
-2,8,9,-3,-6,8,-6,-24,-22,-25,-15,-18
0,6,6,-3,-3,6,-3,-18,-17,-22,-13,-17
0,4,3,-2,-2,4,-1,-14,-13,-20,-11,-17
0,2,1,-1,-1,2,0,-11,-11,-19,-11,-17
0,0,0,0,0,0,0,-9,-9,-19,-10,-17
0,0,0,0,0,0,0,-8,-9,-19,-10,-16
-1,-1,0,0,0,-1,1,-6,-8,-18,-9,-16
-1,-1,0,1,-1,-1,2,-5,-7,-18,-9,-15
-2,-2,0,1,-1,-1,3,-3,-6,-18,-10,-15
-3,-3,0,2,-2,-1,3,-3,-6,-18,-10,-16
-3,-3,0,3,-2,-2,3,-2,-6,-18,-10,-16
-3,-2,0,3,-2,-1,3,-2,-5,-18,-10,-16
-2,-1,0,2,-1,0,3,-1,-4,-17,-9,-15
-1,-2,-1,2,0,-2,2,-1,-4,-18,-9,-15
0,-3,-3,2,1,-4,2,-1,-4,-18,-9,-15
0,-5,-4,2,1,-5,2,0,-4,-18,-10,-15
0,-6,-6,3,2,-6,2,0,-4,-18,-10,-16
0,-7,-8,3,4,-8,2,0,-4,-18,-10,-16
0,-7,-8,3,4,-8,2,0,-4,-18,-10,-15
0,-6,-7,3,4,-7,3,0,-3,-17,-9,-15
-1,-7,-6,4,2,-7,3,0,-3,-17,-9,-15
-3,-9,-5,6,1,-7,2,0,-3,-17,-9,-15
-4,-10,-5,7,1,-8,2,0,-3,-16,-9,-15
-3,-10,-6,7,1,-8,2,0,-3,-16,-9,-15
-2,-8,-6,5,2,-7,2,1,-2,-16,-8,-14
-1,-7,-6,4,2,-6,3,2,-1,-15,-7,-13
-2,-6,-5,4,1,-5,4,3,0,-14,-6,-13
-3,-6,-4,5,1,-5,4,4,0,-13,-6,-13
-2,-6,-5,4,1,-5,4,4,1,-13,-5,-12
0,-6,-6,3,3,-6,4,4,1,-13,-5,-12
0,-7,-8,3,4,-7,4,4,1,-14,-5,-12
1,-8,-10,3,5,-9,3,4,1,-14,-5,-12
1,-9,-10,4,5,-10,3,4,1,-14,-5,-12
0,-9,-9,4,4,-9,3,5,2,-14,-5,-11
0,-8,-7,4,3,-8,4,6,3,-13,-4,-11
0,-7,-7,3,4,-8,5,7,4,-12,-3,-10
0,-7,-7,3,4,-8,5,8,5,-12,-3,-10
0,-8,-8,4,4,-8,4,7,4,-12,-4,-11
0,-10,-9,5,4,-9,4,7,4,-12,-4,-11
1,-10,-10,4,5,-10,4,8,4,-11,-3,-11
3,-8,-11,1,7,-9,4,9,5,-10,-2,-10
5,-6,-12,0,8,-9,4,10,6,-10,-1,-9
6,-6,-13,0,9,-9,4,11,6,-10,-1,-9
7,-7,-13,0,10,-10,4,11,6,-9,-1,-9
6,-6,-12,0,9,-10,4,12,7,-8,0,-8
5,-5,-10,0,8,-8,5,14,9,-7,1,-7
3,-5,-8,1,6,-7,6,15,10,-6,2,-6
2,-5,-6,1,4,-6,6,16,12,-5,3,-5
0,-4,-4,2,2,-4,7,17,13,-4,4,-4
-1,-5,-3,3,1,-4,7,17,13,-3,4,-4
-2,-6,-4,3,1,-5,7,18,13,-3,4,-4
0,-5,-6,2,3,-6,7,18,13,-3,4,-5
2,-4,-7,1,5,-6,7,19,14,-3,5,-4
2,-4,-7,1,4,-5,7,20,15,-2,5,-4
0,-5,-7,2,3,-5,7,20,15,-2,6,-3
0,-5,-6,2,2,-5,7,21,17,-1,7,-2
0,-4,-5,1,2,-4,8,23,18,0,9,-1
0,-4,-4,1,2,-3,8,24,19,1,10,0
0,-4,-4,1,2,-4,9,25,20,2,10,0
0,-5,-5,2,2,-5,9,26,20,3,11,0
1,-5,-6,1,4,-5,9,27,21,4,11,0
2,-4,-6,1,4,-5,9,28,22,5,12,0
2,-4,-6,1,4,-5,9,29,23,6,13,1
1,-4,-6,1,4,-5,9,29,24,7,14,1
2,-3,-6,0,4,-5,9,30,25,7,14,2
3,-2,-6,0,5,-4,10,31,26,8,15,3
3,-2,-5,-1,5,-4,10,32,27,9,17,4
4,-2,-6,-1,5,-5,10,34,28,10,18,5
5,-2,-6,-1,6,-5,10,35,28,11,18,6
6,-2,-8,-1,7,-5,10,35,29,12,18,6
5,-3,-9,0,7,-6,10,36,29,12,18,5
4,-5,-10,0,7,-7,9,36,29,12,18,5
5,-5,-11,0,8,-8,9,36,30,12,18,4
7,-4,-12,-1,10,-8,9,37,31,13,19,5
6,-5,-10,0,9,-8,10,39,32,15,21,6
3,-5,-7,1,5,-6,11,41,34,17,23,8
1,-5,-5,2,3,-5,11,43,36,19,25,10
1,-4,-4,1,3,-4,12,45,37,20,26,12
3,-2,-5,0,4,-3,12,46,38,22,28,13
5,0,-5,-2,4,-2,13,47,39,24,30,15
5,1,-4,-3,4,-1,15,49,41,25,32,17
5,1,-4,-3,4,-1,15,50,42,26,33,18
5,1,-4,-3,5,-2,14,50,42,27,34,18
5,0,-5,-3,5,-3,13,50,42,27,34,17
6,0,-6,-4,6,-3,12,50,42,26,33,17
6,1,-5,-3,5,-2,12,50,42,26,33,17
3,1,-3,-2,3,0,12,50,42,27,34,18
2,1,-1,-2,1,0,12,51,42,28,35,19
3,1,-2,-3,3,0,11,51,42,28,36,19
6,2,-3,-5,5,0,11,51,42,28,37,19
7,4,-2,-6,5,1,11,51,43,28,38,20
5,5,0,-6,3,2,11,51,43,29,39,21
4,4,0,-5,2,2,11,51,42,29,39,21
4,4,0,-4,2,2,11,50,42,30,40,22
5,4,0,-4,2,2,11,50,42,30,40,23
5,5,0,-5,2,3,11,49,41,30,40,23
7,6,0,-6,3,3,11,48,41,30,40,23
8,7,0,-7,4,4,11,47,40,30,40,23
8,7,0,-8,5,3,10,46,39,29,40,23
9,7,-1,-8,6,2,9,44,37,28,40,23
9,6,-3,-7,7,1,8,42,36,26,39,22
9,5,-4,-7,7,0,7,40,34,25,38,22
9,6,-3,-7,6,1,7,39,34,25,39,23
7,7,0,-7,3,4,7,39,34,26,40,24
6,7,1,-7,3,4,7,37,33,25,39,24
6,6,0,-7,3,3,6,35,31,24,38,23
6,5,0,-6,3,2,5,33,29,22,37,22
5,5,0,-6,2,2,5,31,28,22,36,22
4,7,2,-6,1,4,5,31,27,21,36,22
5,8,4,-7,1,5,5,30,26,21,36,23
5,8,4,-6,1,5,5,28,25,20,35,22
4,7,4,-5,0,5,4,26,23,18,34,22
3,6,4,-4,0,5,4,24,21,17,33,21
2,6,4,-4,0,5,4,23,20,15,32,20
3,7,4,-5,0,6,4,21,19,14,30,19
4,6,3,-6,1,5,3,18,17,12,28,18
4,6,2,-6,1,4,2,16,14,9,25,16
4,5,1,-5,1,3,1,13,12,6,23,14
3,5,1,-4,1,3,0,11,10,4,21,13
2,4,1,-3,0,2,0,9,8,2,19,11
2,4,2,-2,0,3,0,8,6,0,18,10
0,3,4,-1,-2,4,-1,6,5,-1,17,9
-2,3,5,0,-3,4,-1,5,3,-2,15,8
0,4,5,-1,-2,4,-1,4,3,-3,13,7
1,5,4,-3,-1,4,-1,3,2,-5,12,5
2,4,3,-3,0,3,-1,1,0,-7,10,4
3,4,2,-3,0,3,-2,-1,-1,-9,8,2
3,4,1,-3,1,2,-2,-3,-3,-11,6,1
1,2,1,-1,0,2,-2,-4,-4,-12,5,0
1,1,1,0,0,1,-3,-5,-5,-14,3,-1
1,2,0,-1,1,1,-3,-6,-6,-16,1,-2
2,2,-1,-1,1,0,-3,-7,-8,-17,0,-4
2,0,-2,-1,2,-1,-3,-9,-9,-19,-2,-6
1,-1,-2,0,2,-2,-4,-10,-11,-21,-4,-7
0,-1,-1,0,0,-2,-4,-11,-11,-22,-5,-8
0,-1,0,1,0,-1,-3,-11,-12,-23,-6,-9
0,-1,0,1,0,0,-3,-12,-12,-24,-7,-10
0,-2,-1,2,0,-1,-3,-13,-14,-26,-9,-12
-1,-3,-2,2,1,-2,-4,-14,-15,-27,-10,-14
-1,-3,-3,2,1,-3,-4,-14,-15,-28,-11,-15
-1,-3,-3,2,1,-3,-5,-14,-16,-29,-12,-16
-1,-3,-2,2,0,-2,-5,-14,-16,-29,-12,-16
-2,-3,0,3,-1,-2,-4,-14,-17,-29,-12,-16
-3,-4,0,4,-1,-2,-4,-13,-17,-29,-12,-16
-4,-5,0,4,-1,-2,-4,-13,-16,-29,-12,-16
-3,-5,-1,4,-1,-2,-4,-12,-16,-28,-12,-16
-3,-5,-2,4,0,-3,-4,-12,-16,-29,-13,-17
-3,-6,-2,4,0,-3,-4,-13,-16,-29,-13,-17
-4,-6,-2,4,-1,-3,-4,-13,-16,-29,-14,-18
-4,-6,-1,4,-1,-3,-4,-13,-16,-29,-14,-18
-4,-6,-2,4,-1,-4,-4,-14,-16,-29,-14,-19
-4,-7,-2,5,0,-5,-4,-14,-17,-30,-15,-20
-5,-8,-1,7,-2,-5,-4,-14,-17,-30,-15,-20
-5,-6,0,6,-2,-4,-4,-13,-16,-29,-14,-20
-3,-4,0,4,-1,-2,-3,-12,-16,-28,-14,-19
-2,-2,0,2,-1,-2,-3,-12,-15,-28,-13,-19
-3,-3,0,3,-1,-2,-3,-13,-15,-28,-13,-19
-4,-4,0,3,-1,-3,-3,-13,-15,-28,-14,-20
-3,-5,-2,3,0,-4,-3,-13,-16,-28,-14,-21
-2,-6,-4,3,2,-5,-4,-14,-16,-29,-15,-22
0,-5,-6,2,4,-6,-4,-14,-17,-29,-15,-22
2,-4,-6,1,5,-5,-4,-13,-16,-28,-14,-21
2,-3,-5,1,4,-4,-4,-12,-15,-28,-13,-20
0,-4,-3,2,1,-4,-4,-11,-14,-27,-13,-19
-3,-4,-2,3,0,-3,-3,-10,-14,-26,-12,-18
-4,-4,0,3,-1,-2,-3,-9,-13,-25,-11,-17
-5,-4,0,3,-2,-1,-2,-9,-12,-24,-11,-17
-6,-4,1,4,-3,0,-1,-8,-12,-23,-10,-16
-5,-3,2,4,-3,0,-1,-8,-11,-23,-9,-16
-3,-3,0,3,-1,-1,-2,-8,-11,-23,-9,-16
-1,-4,-2,3,1,-2,-3,-8,-12,-24,-10,-16
0,-4,-4,2,3,-3,-4,-8,-12,-24,-10,-17
1,-4,-5,2,3,-4,-4,-8,-12,-24,-10,-16
1,-4,-6,1,3,-4,-4,-8,-12,-24,-10,-16
1,-5,-6,1,4,-5,-4,-8,-13,-24,-10,-16
0,-6,-7,2,4,-5,-4,-8,-13,-24,-10,-16
0,-5,-5,2,3,-5,-4,-7,-12,-24,-9,-16
0,-4,-4,2,2,-4,-3,-7,-12,-23,-9,-15
0,-4,-4,2,2,-4,-3,-6,-11,-23,-9,-15
-1,-5,-4,4,1,-4,-3,-6,-11,-23,-9,-15
-2,-6,-3,4,0,-4,-3,-6,-11,-24,-9,-15
-2,-6,-4,4,1,-4,-3,-6,-11,-24,-9,-15
-2,-6,-4,4,1,-4,-3,-6,-11,-24,-9,-15
-3,-5,-3,4,0,-4,-3,-5,-10,-23,-8,-15
-3,-5,-2,4,0,-4,-3,-5,-9,-23,-8,-14
-3,-5,-2,4,0,-4,-3,-5,-9,-23,-8,-14
-2,-5,-3,4,0,-4,-3,-5,-10,-23,-8,-14
-1,-5,-3,4,1,-5,-3,-5,-10,-24,-8,-14
-2,-6,-4,4,1,-5,-2,-5,-9,-23,-8,-14
-3,-7,-4,5,1,-6,-2,-5,-9,-23,-7,-14
-3,-8,-4,5,0,-6,-2,-5,-9,-23,-7,-14
-4,-8,-4,5,0,-6,-2,-5,-9,-24,-8,-14
-3,-9,-5,5,1,-7,-3,-5,-10,-25,-8,-15
-2,-10,-7,5,2,-8,-3,-6,-11,-26,-9,-16
-1,-10,-9,5,3,-9,-4,-6,-12,-27,-10,-17
1,-9,-10,4,4,-9,-4,-6,-12,-27,-10,-17
2,-8,-10,3,5,-8,-4,-6,-11,-27,-10,-16
1,-7,-8,3,4,-7,-4,-5,-11,-26,-9,-15
1,-6,-7,2,3,-6,-3,-4,-9,-25,-8,-14
2,-3,-6,0,3,-5,-3,-3,-8,-25,-7,-14
1,-2,-4,0,3,-4,-2,-3,-8,-25,-7,-13
-1,-3,-2,2,0,-3,-1,-3,-8,-25,-7,-13
-3,-4,-1,4,-1,-3,-1,-3,-9,-25,-8,-13
-4,-6,-2,5,-1,-4,-1,-4,-10,-26,-9,-14
-4,-8,-3,6,-1,-6,-2,-5,-11,-27,-10,-16
-4,-9,-5,7,0,-7,-3,-6,-12,-29,-11,-17
-3,-9,-7,6,2,-8,-4,-7,-13,-30,-12,-18
-1,-8,-7,4,3,-8,-4,-8,-13,-30,-13,-18
1,-5,-6,2,4,-6,-3,-7,-13,-30,-12,-17
1,-4,-5,1,4,-5,-2,-7,-12,-30,-12,-17
1,-4,-5,1,3,-5,-2,-7,-12,-30,-12,-17
0,-5,-5,2,3,-5,-2,-6,-13,-30,-13,-17
0,-5,-5,3,2,-5,-2,-6,-13,-31,-13,-17
0,-6,-6,3,3,-6,-2,-7,-14,-31,-14,-18
1,-6,-7,3,4,-6,-3,-8,-15,-32,-15,-18
2,-5,-7,2,4,-6,-3,-8,-15,-32,-15,-18
2,-4,-6,1,4,-5,-3,-8,-15,-32,-15,-18
2,-4,-6,1,4,-4,-3,-7,-14,-32,-15,-18
2,-4,-6,0,4,-4,-3,-7,-14,-32,-15,-18
2,-4,-6,0,4,-4,-3,-7,-14,-32,-15,-18
2,-4,-6,0,4,-4,-3,-8,-15,-32,-15,-18
1,-4,-5,1,4,-4,-3,-8,-15,-32,-15,-18
1,-5,-5,2,3,-4,-3,-8,-15,-32,-15,-17
0,-5,-5,2,3,-5,-3,-8,-15,-32,-15,-17
1,-5,-6,2,4,-6,-3,-9,-16,-33,-15,-18
2,-5,-7,2,5,-7,-3,-9,-16,-34,-16,-18
1,-6,-7,2,4,-7,-4,-10,-17,-34,-17,-19
0,-7,-8,4,3,-8,-4,-10,-18,-35,-18,-20
0,-7,-8,4,4,-8,-4,-11,-19,-36,-18,-20
0,-7,-8,3,4,-7,-4,-11,-18,-35,-18,-20
-1,-7,-6,4,2,-6,-3,-10,-18,-35,-18,-20
-5,-9,-4,6,0,-6,-3,-10,-18,-35,-18,-20
-7,-10,-3,8,-2,-6,-3,-11,-18,-35,-18,-20
-7,-10,-3,9,-2,-7,-3,-11,-19,-36,-19,-21
-6,-9,-3,8,-1,-6,-3,-11,-19,-36,-19,-21
-5,-8,-4,7,-1,-6,-3,-11,-19,-37,-19,-21
-4,-8,-5,6,0,-7,-4,-12,-20,-37,-19,-21
-3,-9,-6,6,1,-8,-5,-12,-20,-37,-20,-22
-3,-11,-7,7,1,-9,-5,-13,-21,-37,-20,-22
-3,-11,-8,7,2,-9,-6,-13,-21,-38,-21,-23
0,-10,-10,5,5,-10,-6,-14,-22,-38,-21,-23
2,-9,-11,3,6,-9,-6,-13,-21,-39,-21,-23
1,-7,-9,3,5,-8,-5,-12,-21,-38,-20,-22
0,-6,-6,3,3,-6,-5,-12,-20,-38,-20,-21
0,-6,-5,3,2,-5,-4,-12,-20,-37,-19,-21
-1,-6,-4,3,1,-5,-4,-12,-20,-37,-19,-21
-2,-6,-3,4,0,-5,-4,-12,-20,-37,-20,-21
-2,-7,-3,4,0,-5,-4,-12,-20,-37,-20,-21
-2,-7,-4,4,1,-5,-4,-13,-21,-38,-20,-21
-1,-6,-4,4,1,-5,-4,-13,-21,-38,-20,-21
-1,-5,-4,3,1,-4,-4,-12,-21,-38,-20,-21
-1,-5,-3,3,1,-4,-4,-13,-22,-39,-20,-21
-1,-6,-4,3,1,-5,-4,-14,-22,-40,-21,-22
-1,-6,-5,3,1,-6,-5,-14,-22,-40,-21,-23
-2,-6,-4,3,1,-5,-5,-13,-22,-40,-21,-22
-2,-5,-4,3,0,-5,-5,-12,-21,-39,-21,-22
-2,-5,-3,3,0,-4,-4,-12,-21,-39,-20,-22
-2,-5,-3,4,0,-4,-4,-12,-21,-39,-20,-22
-3,-6,-3,5,0,-5,-5,-13,-21,-39,-21,-22
-4,-7,-3,6,0,-5,-5,-13,-22,-40,-21,-23
-4,-8,-4,6,0,-6,-5,-13,-22,-40,-21,-23
-3,-8,-5,6,1,-7,-5,-13,-22,-40,-22,-23
-2,-9,-6,5,2,-7,-5,-14,-23,-41,-22,-23
-1,-9,-7,5,2,-8,-6,-14,-23,-41,-22,-23
-1,-8,-6,5,2,-7,-5,-14,-23,-41,-22,-23
0,-6,-6,4,2,-6,-5,-13,-22,-41,-21,-22
0,-6,-6,3,3,-6,-4,-13,-22,-41,-21,-22
-1,-7,-6,4,2,-6,-5,-14,-23,-41,-22,-23
-1,-9,-7,5,2,-8,-6,-15,-24,-42,-24,-24
0,-9,-9,5,4,-9,-7,-16,-24,-43,-24,-25
0,-9,-9,4,5,-9,-7,-16,-24,-43,-24,-25
0,-9,-9,5,4,-9,-7,-16,-24,-43,-25,-25
-1,-10,-9,6,4,-10,-7,-16,-24,-44,-25,-26
-1,-9,-8,6,3,-9,-6,-15,-24,-43,-24,-25
-2,-7,-5,5,1,-7,-5,-14,-23,-41,-22,-23
-3,-5,-2,5,0,-5,-4,-13,-22,-40,-21,-22
-4,-6,-2,5,0,-5,-4,-13,-22,-40,-21,-22
-4,-7,-3,5,0,-5,-5,-14,-23,-40,-22,-23
-4,-7,-3,5,0,-5,-5,-14,-22,-40,-22,-22
-3,-6,-2,4,-1,-4,-4,-13,-21,-39,-21,-21
-2,-5,-2,3,0,-4,-3,-12,-20,-38,-20,-21
-1,-5,-4,2,1,-5,-4,-12,-21,-39,-21,-22
0,-5,-6,2,3,-6,-5,-13,-22,-40,-23,-23
0,-6,-7,3,4,-7,-6,-14,-23,-41,-23,-24
-1,-7,-7,4,3,-7,-6,-14,-23,-41,-23,-24
-3,-8,-6,5,1,-7,-6,-14,-23,-40,-23,-23
-5,-10,-4,7,0,-7,-6,-14,-23,-40,-23,-23
-6,-10,-3,8,-1,-7,-6,-14,-23,-40,-22,-22
-5,-9,-3,8,-1,-6,-6,-14,-23,-40,-22,-22
-3,-8,-4,6,0,-6,-6,-14,-23,-40,-22,-22
-1,-8,-6,5,2,-7,-6,-14,-23,-40,-23,-23
-1,-9,-7,5,3,-8,-7,-15,-24,-41,-24,-24
-1,-8,-7,5,4,-8,-7,-15,-24,-41,-24,-24
0,-7,-7,4,4,-7,-7,-15,-25,-41,-24,-25
0,-6,-6,3,3,-6,-7,-15,-25,-41,-24,-25
0,-5,-4,3,2,-5,-6,-15,-24,-41,-24,-24
-1,-4,-2,3,1,-3,-6,-14,-22,-40,-23,-23
-3,-5,-1,4,0,-3,-5,-13,-22,-39,-22,-22
-5,-7,-2,6,-1,-5,-5,-13,-22,-39,-22,-22
-5,-8,-3,7,-1,-6,-5,-13,-22,-39,-22,-22
-3,-9,-5,6,1,-7,-5,-14,-22,-39,-22,-23
-2,-9,-7,6,2,-8,-5,-15,-23,-40,-23,-23
-2,-9,-8,6,3,-8,-5,-15,-23,-40,-23,-23
-3,-10,-8,7,2,-9,-5,-15,-23,-40,-23,-24
-4,-10,-7,7,2,-9,-6,-15,-23,-41,-23,-24
-2,-9,-7,5,2,-8,-6,-14,-22,-40,-23,-23
-1,-8,-7,5,3,-8,-5,-13,-22,-40,-22,-23
-1,-9,-7,5,3,-8,-5,-13,-22,-40,-22,-23
-1,-8,-7,4,3,-8,-5,-12,-21,-39,-22,-23
0,-6,-6,2,3,-6,-5,-11,-21,-38,-21,-22
0,-5,-6,1,3,-5,-4,-10,-20,-38,-21,-22
0,-4,-6,1,3,-5,-3,-10,-19,-37,-20,-21
0,-5,-6,2,2,-5,-3,-10,-18,-37,-20,-21
0,-5,-6,2,3,-6,-4,-10,-18,-37,-20,-20
1,-6,-7,2,4,-7,-4,-9,-18,-36,-20,-20
1,-7,-8,2,5,-7,-3,-8,-17,-36,-19,-20
1,-7,-7,3,4,-7,-3,-7,-16,-35,-18,-19
0,-8,-7,3,4,-7,-2,-7,-16,-34,-17,-18
0,-9,-8,4,3,-8,-2,-7,-16,-34,-18,-19
0,-9,-8,4,3,-8,-2,-7,-17,-35,-18,-19
-1,-9,-8,4,3,-8,-2,-7,-17,-35,-18,-19
-1,-8,-8,4,3,-7,-3,-7,-17,-35,-18,-19
0,-7,-8,3,4,-7,-4,-8,-17,-35,-18,-19
2,-5,-8,1,6,-6,-5,-9,-19,-36,-18,-19
4,-4,-8,0,6,-6,-6,-11,-20,-37,-19,-19
5,-4,-8,0,6,-6,-7,-12,-21,-38,-19,-19
4,-3,-7,0,5,-5,-7,-12,-21,-38,-19,-18
2,-3,-6,0,3,-4,-7,-13,-21,-38,-19,-18
0,-5,-5,2,1,-4,-7,-13,-21,-38,-19,-18
-2,-6,-4,4,0,-5,-8,-13,-21,-38,-19,-18
-3,-7,-4,5,0,-5,-8,-13,-21,-38,-19,-18
-3,-6,-4,4,0,-5,-8,-12,-21,-37,-19,-18
-2,-5,-3,3,0,-4,-7,-12,-20,-37,-18,-17
-1,-4,-2,3,0,-3,-7,-11,-20,-37,-18,-17
-1,-5,-3,3,0,-4,-8,-12,-21,-38,-19,-18
-1,-7,-6,4,1,-6,-9,-13,-23,-39,-20,-20
0,-8,-9,3,3,-8,-10,-14,-23,-40,-21,-21
3,-7,-11,1,6,-8,-10,-13,-23,-40,-21,-20
5,-4,-10,-1,7,-7,-9,-12,-21,-38,-19,-19
4,-5,-9,0,6,-7,-8,-11,-21,-37,-18,-18
2,-6,-9,2,6,-8,-9,-12,-21,-37,-19,-18
2,-8,-9,3,6,-9,-9,-12,-22,-38,-19,-19
2,-8,-9,3,6,-9,-9,-12,-22,-38,-19,-19
3,-7,-10,2,7,-9,-8,-12,-22,-38,-20,-20
4,-7,-11,1,7,-9,-8,-13,-22,-39,-21,-21
3,-7,-11,2,6,-10,-8,-13,-23,-39,-22,-22
1,-8,-10,3,5,-10,-8,-13,-23,-40,-22,-23
-3,-11,-8,7,2,-11,-9,-14,-24,-41,-23,-23
-9,-14,-6,11,-1,-11,-9,-14,-24,-42,-23,-24
-12,-16,-4,14,-3,-10,-9,-14,-24,-42,-24,-24
-11,-16,-4,14,-3,-10,-8,-14,-24,-42,-23,-24
-6,-12,-5,9,0,-8,-8,-13,-24,-41,-22,-22
-3,-9,-5,6,1,-7,-7,-13,-23,-40,-22,-22
-3,-8,-5,5,0,-6,-7,-13,-23,-40,-22,-22
-3,-7,-5,5,0,-6,-7,-13,-23,-40,-22,-22
-2,-8,-6,5,1,-7,-7,-13,-23,-40,-22,-22
-1,-9,-9,5,3,-9,-7,-13,-24,-41,-23,-23
0,-10,-10,5,4,-9,-8,-13,-24,-41,-23,-23
-1,-11,-10,6,5,-10,-8,-14,-24,-41,-24,-24
-1,-12,-11,7,5,-11,-8,-15,-25,-42,-25,-25
0,-13,-13,6,6,-13,-9,-15,-26,-43,-25,-25
1,-12,-13,5,7,-12,-9,-15,-25,-42,-24,-24
1,-11,-12,4,6,-11,-8,-14,-25,-41,-23,-23
0,-11,-11,5,5,-11,-8,-14,-24,-41,-23,-23
-1,-11,-10,6,4,-10,-8,-13,-23,-40,-22,-22
-3,-10,-7,6,2,-8,-7,-12,-22,-39,-21,-21
-4,-10,-6,7,1,-8,-7,-12,-21,-38,-21,-20
-5,-11,-6,8,1,-8,-6,-12,-22,-38,-21,-21
-5,-12,-6,9,1,-9,-6,-13,-22,-39,-22,-22
-5,-13,-8,9,1,-10,-7,-13,-23,-40,-22,-23
-3,-12,-9,7,2,-10,-7,-13,-23,-40,-22,-23
-2,-10,-8,6,3,-9,-6,-12,-22,-39,-22,-22
-3,-9,-7,6,2,-8,-6,-11,-21,-38,-21,-21
-3,-9,-7,6,2,-8,-6,-11,-21,-38,-21,-21
-3,-11,-9,7,4,-10,-7,-12,-21,-39,-22,-21
-1,-12,-11,7,6,-12,-7,-13,-22,-39,-23,-22
1,-13,-14,6,8,-14,-7,-13,-23,-40,-23,-23
2,-14,-17,6,9,-16,-7,-11,-23,-40,-24,-24
2,-15,-18,6,10,-16,-7,-9,-22,-40,-24,-24
0,-16,-17,8,8,-17,-6,-6,-20,-40,-24,-24
-3,-18,-16,10,6,-17,-5,-2,-18,-39,-24,-25
-4,-19,-16,11,6,-17,-3,1,-15,-38,-23,-24
-4,-19,-15,11,5,-17,-1,7,-11,-35,-22,-24
-6,-17,-11,11,2,-14,2,15,-4,-30,-19,-23
-6,-13,-6,10,0,-10,8,25,5,-23,-15,-20
-5,-8,-3,6,-1,-6,15,39,18,-14,-8,-15
-2,-3,-1,2,0,-2,23,54,33,-3,0,-8
1,2,0,-1,0,0,31,70,48,9,10,1
3,8,3,-5,0,5,37,84,62,23,24,13
3,15,10,-10,-3,12,40,94,75,40,43,31
4,25,19,-15,-7,22,40,98,86,60,67,55
7,41,32,-24,-11,36,37,96,95,83,96,84
14,61,46,-37,-15,54,31,85,100,107,130,119
20,82,63,-50,-21,72,21,65,99,129,164,156
21,102,81,-61,-30,92,7,37,93,149,195,191
20,119,99,-69,-39,109,-8,4,82,166,224,224
17,128,110,-72,-46,119,-22,-27,68,180,250,253
14,127,112,-71,-49,121,-32,-51,57,192,270,274
13,122,108,-68,-47,116,-39,-66,49,200,282,285
13,117,103,-65,-44,110,-44,-76,41,203,283,283
11,112,101,-62,-44,107,-48,-84,34,200,275,273
10,106,96,-58,-42,101,-49,-86,29,195,261,255
8,93,85,-50,-38,89,-47,-82,26,182,234,222
4,76,72,-39,-34,74,-44,-79,17,149,180,167
0,60,60,-29,-30,60,-41,-79,0,101,114,103
-3,47,50,-21,-27,49,-40,-79,-16,57,60,54
-5,39,44,-16,-25,41,-37,-77,-27,24,26,24
-7,33,40,-13,-23,36,-35,-74,-35,1,5,6
-9,29,38,-9,-23,33,-34,-73,-42,-17,-8,-4
-9,26,35,-7,-22,30,-32,-71,-47,-29,-16,-10
-8,23,31,-7,-19,27,-32,-67,-48,-35,-19,-13
-5,21,26,-7,-15,24,-31,-61,-46,-37,-20,-14
-4,19,22,-7,-13,21,-29,-53,-42,-37,-19,-14
-4,15,18,-5,-12,17,-26,-44,-37,-36,-19,-15
-2,11,13,-4,-9,12,-23,-35,-32,-35,-18,-15
0,9,9,-4,-5,8,-20,-28,-28,-33,-17,-15
0,7,7,-3,-4,7,-16,-20,-22,-30,-15,-14
-3,5,7,-1,-5,6,-12,-13,-17,-26,-13,-13
-4,2,5,1,-4,3,-9,-7,-12,-23,-11,-12
-5,-1,3,3,-3,0,-7,-3,-9,-21,-11,-12
-5,-3,1,5,-3,-1,-7,0,-7,-21,-11,-12
-5,-4,0,6,-3,-2,-7,1,-6,-21,-11,-12
-4,-4,-1,5,-3,-3,-6,2,-5,-20,-10,-11
-2,-3,-2,3,-1,-3,-6,4,-4,-20,-10,-11
0,-2,-3,1,1,-3,-5,5,-4,-20,-10,-11
2,-2,-5,1,3,-4,-5,6,-3,-20,-11,-11
2,-3,-5,1,4,-5,-5,6,-3,-21,-11,-12
1,-5,-6,2,4,-5,-5,7,-3,-21,-12,-13
0,-6,-7,3,4,-6,-5,7,-3,-22,-13,-14
0,-6,-6,3,3,-5,-5,7,-3,-22,-13,-14
0,-5,-5,3,3,-5,-5,8,-3,-22,-12,-14
0,-5,-6,3,3,-5,-5,8,-3,-22,-13,-14
0,-6,-7,3,4,-7,-6,8,-3,-23,-14,-15
0,-8,-8,4,4,-8,-6,9,-3,-22,-14,-15
0,-9,-9,5,4,-9,-5,9,-3,-22,-14,-15
-1,-9,-8,5,4,-9,-5,10,-2,-21,-13,-14
-3,-9,-6,6,2,-7,-4,11,-1,-20,-12,-13
-3,-8,-4,6,0,-6,-3,12,0,-19,-11,-12
-2,-6,-4,5,1,-5,-3,12,1,-18,-10,-12
-1,-6,-6,4,2,-6,-3,12,1,-18,-10,-12
-1,-7,-7,4,2,-7,-4,12,0,-19,-11,-13
0,-7,-7,3,3,-7,-3,13,1,-18,-10,-12
0,-5,-6,2,3,-6,-2,14,2,-16,-9,-11
0,-5,-5,3,2,-5,-2,15,3,-16,-8,-10
0,-5,-4,3,2,-5,-2,15,3,-16,-8,-10
0,-5,-5,2,3,-5,-2,15,3,-16,-8,-10
1,-5,-6,2,3,-6,-2,15,4,-16,-8,-9
0,-6,-7,3,3,-6,-2,15,4,-15,-8,-9
-1,-7,-6,3,2,-6,-2,16,4,-15,-7,-8
-1,-6,-5,3,1,-6,-2,16,5,-14,-6,-7
0,-5,-5,2,2,-5,-1,17,6,-13,-5,-6
1,-4,-5,1,2,-4,-1,18,7,-12,-4,-6
1,-5,-5,2,2,-5,-1,19,7,-12,-4,-6
0,-6,-6,3,2,-6,-1,19,7,-12,-4,-6
0,-7,-7,4,3,-7,-1,19,7,-13,-5,-6
2,-8,-9,4,5,-8,-2,18,7,-13,-5,-7
4,-8,-12,2,7,-9,-2,18,7,-13,-6,-7
5,-7,-12,1,8,-9,-2,19,7,-12,-5,-6
4,-6,-11,1,8,-9,-2,20,9,-11,-4,-5
2,-7,-10,2,6,-9,-1,21,10,-10,-3,-4
0,-7,-8,4,4,-8,-1,22,11,-9,-2,-3
-1,-8,-6,5,2,-8,0,23,12,-8,-1,-2
0,-7,-6,4,2,-7,0,24,13,-7,0,-1
0,-7,-7,3,3,-7,0,25,14,-7,0,-1
1,-7,-8,3,4,-7,0,25,13,-7,0,-1
2,-7,-9,3,5,-8,0,25,13,-7,0,-1
1,-7,-9,3,4,-7,0,25,14,-6,0,-1
0,-6,-7,4,2,-6,1,26,16,-5,1,0
0,-5,-6,3,2,-6,1,27,17,-4,2,0
1,-5,-6,2,3,-6,1,28,18,-4,2,0
1,-5,-6,3,3,-6,1,29,18,-3,3,1
0,-6,-6,3,2,-6,1,30,19,-2,4,2
0,-5,-5,3,2,-5,2,31,20,-1,5,3
0,-4,-4,3,1,-3,2,32,22,0,6,4
0,-2,-2,2,1,-1,3,34,23,1,8,5
1,-2,-3,1,2,-2,3,35,24,2,9,5
2,-3,-5,1,4,-3,3,35,24,2,9,5
5,-2,-7,0,6,-4,3,36,25,3,9,5
7,-2,-9,-2,8,-5,3,36,25,3,9,5
8,-2,-11,-2,9,-6,3,37,25,4,9,6
7,-3,-11,-2,9,-6,3,37,26,5,10,6
6,-3,-10,-1,8,-5,3,38,27,6,11,7
4,-4,-9,0,6,-5,3,39,28,7,12,7
2,-4,-8,1,5,-6,3,41,29,8,13,8
3,-5,-8,1,5,-6,3,42,30,9,14,8
4,-5,-10,0,7,-7,3,42,30,10,14,8
6,-4,-10,0,7,-7,3,43,31,11,15,9
6,-2,-7,-1,6,-4,5,45,33,13,17,10
6,0,-6,-2,5,-3,6,47,35,15,18,11
6,1,-6,-3,6,-2,6,48,36,16,19,12
7,1,-6,-4,6,-2,6,49,37,17,20,13
6,1,-6,-3,5,-2,6,51,38,18,22,14
5,0,-5,-2,4,-2,7,52,39,19,23,15
4,0,-4,-1,3,-1,7,53,40,20,24,17
3,0,-4,-1,3,-2,7,54,41,21,24,17
5,0,-5,-1,4,-2,7,55,41,21,25,18
6,0,-5,-2,5,-2,7,55,42,22,26,19
5,1,-4,-2,4,-1,7,56,43,24,27,20
5,2,-3,-3,4,0,8,57,44,25,29,21
6,4,-2,-5,4,1,8,58,45,26,30,22
6,5,-1,-6,4,2,8,59,46,27,32,23
6,5,-1,-6,3,2,8,59,47,28,33,24
6,4,-2,-5,3,0,8,59,46,28,33,24
4,2,-3,-3,3,0,7,59,46,28,32,24
3,0,-2,-2,3,0,7,58,46,28,32,24
3,1,-2,-2,3,0,7,58,46,29,33,24
4,2,-2,-3,3,1,7,58,46,29,34,25
5,3,-2,-4,4,1,7,58,46,29,34,26
5,4,-2,-5,4,1,6,58,46,30,35,26
7,5,-2,-6,5,2,6,58,46,30,36,27
8,7,-1,-7,5,2,6,58,47,31,37,28
7,7,0,-7,4,3,6,58,47,32,37,29
7,6,0,-6,3,3,6,57,46,32,37,30
7,6,-1,-6,4,2,5,56,45,31,38,30
8,5,-2,-6,5,1,5,55,44,31,38,30
9,6,-4,-7,6,1,4,53,43,30,38,30
10,7,-4,-8,7,2,3,52,43,30,38,30
9,7,-2,-8,5,3,3,51,43,30,38,31
6,7,1,-6,2,4,3,51,43,30,39,32
4,6,2,-4,0,4,3,50,42,30,38,32
4,5,1,-4,0,3,2,48,41,29,38,32
7,7,0,-6,3,3,2,46,40,29,38,32
11,9,-1,-10,6,4,2,45,39,29,38,33
13,10,-2,-11,7,4,1,43,37,28,38,32
13,10,-2,-11,7,4,0,41,36,27,37,31
12,10,-2,-11,6,4,0,38,34,26,37,31
11,10,-1,-10,5,5,0,36,33,25,36,31
9,10,0,-9,4,5,-1,34,32,24,35,30
8,9,1,-8,3,5,-1,32,30,23,34,30
6,8,1,-7,2,4,-2,30,29,21,33,30
6,7,1,-6,3,4,-2,27,27,20,32,28
7,7,0,-6,3,4,-3,25,25,18,30,27
6,6,0,-6,3,3,-3,23,23,16,29,26
4,5,1,-4,2,3,-3,21,22,15,28,26
3,5,2,-4,0,4,-3,20,21,14,27,25
5,6,0,-5,2,4,-4,19,19,12,26,24
9,8,-1,-8,5,3,-4,17,18,11,24,23
9,9,-1,-9,5,4,-4,15,17,9,23,22
7,8,0,-8,3,4,-4,14,16,8,21,21
5,6,1,-6,1,4,-4,11,14,6,19,19
3,5,2,-4,0,4,-5,9,12,3,17,17
2,3,1,-3,0,3,-5,6,10,1,15,15
1,2,0,-2,0,2,-6,4,8,-1,13,13
3,3,0,-4,2,1,-7,3,6,-2,11,12
5,3,-2,-5,3,1,-7,2,5,-4,10,11
5,2,-3,-4,4,0,-7,0,3,-6,8,9
5,1,-4,-3,4,-1,-8,-2,1,-8,6,7
4,0,-5,-2,4,-2,-8,-3,0,-10,4,6
4,-1,-5,-1,4,-3,-9,-5,-1,-12,2,4
3,-1,-4,-1,3,-2,-9,-6,-2,-13,1,3
1,-2,-3,1,2,-2,-10,-7,-4,-15,0,2
-2,-4,-2,3,0,-3,-10,-8,-5,-17,-2,1
-4,-6,-2,5,-1,-4,-10,-8,-6,-18,-3,0
-3,-5,-3,4,0,-4,-10,-9,-7,-19,-4,0
0,-4,-4,2,1,-4,-10,-9,-7,-20,-5,0
0,-4,-5,1,2,-5,-10,-10,-8,-21,-6,-2
1,-4,-6,1,4,-5,-10,-11,-9,-23,-8,-3
2,-3,-6,0,4,-4,-10,-11,-9,-23,-8,-4
1,-3,-4,0,2,-3,-9,-11,-9,-24,-9,-4
0,-3,-4,1,2,-3,-9,-12,-10,-24,-10,-5
2,-3,-5,0,3,-4,-9,-12,-10,-25,-11,-6
2,-3,-6,0,3,-4,-9,-12,-11,-25,-11,-7
1,-3,-5,1,2,-4,-9,-12,-10,-24,-11,-6
0,-4,-4,1,1,-4,-9,-12,-10,-24,-11,-6
-1,-5,-3,2,0,-4,-9,-12,-10,-25,-11,-7
-1,-6,-4,3,1,-5,-10,-13,-11,-26,-12,-7
0,-5,-6,2,3,-6,-10,-14,-12,-27,-12,-8
1,-5,-7,1,4,-6,-10,-14,-12,-27,-13,-9
2,-4,-7,1,4,-5,-10,-14,-12,-27,-13,-9
3,-3,-7,0,5,-5,-9,-13,-11,-27,-13,-9
5,-3,-8,-1,6,-5,-9,-14,-12,-27,-13,-9
6,-3,-9,-1,7,-6,-10,-14,-12,-28,-14,-10
5,-3,-9,0,7,-6,-10,-15,-13,-28,-15,-11
3,-4,-8,1,5,-7,-10,-15,-13,-28,-15,-11
2,-5,-8,1,5,-7,-10,-15,-14,-29,-16,-12
2,-6,-8,2,5,-8,-11,-16,-15,-29,-16,-13
1,-6,-8,2,4,-7,-11,-16,-15,-29,-17,-13
0,-5,-5,3,2,-5,-11,-15,-14,-28,-16,-13
-2,-3,-1,3,0,-2,-10,-13,-12,-27,-14,-11
-3,-2,1,3,-2,0,-9,-12,-10,-25,-12,-9
-4,-3,2,4,-3,0,-9,-11,-9,-24,-11,-8
-6,-6,0,6,-3,-2,-9,-11,-10,-24,-12,-9
-5,-7,-2,7,-2,-5,-10,-11,-10,-24,-12,-9
-4,-7,-4,6,0,-6,-9,-11,-9,-24,-12,-8
-2,-6,-5,5,0,-5,-9,-10,-9,-23,-11,-7
-2,-5,-4,4,0,-4,-8,-10,-8,-23,-10,-7
-2,-4,-3,3,0,-4,-8,-9,-7,-22,-10,-6
-2,-5,-3,3,0,-4,-8,-9,-7,-22,-9,-6
-2,-5,-3,3,0,-4,-8,-9,-7,-22,-9,-6
-1,-6,-4,3,1,-4,-8,-9,-8,-23,-9,-7
-1,-6,-5,3,1,-5,-8,-9,-8,-23,-10,-8
-1,-7,-5,4,1,-6,-9,-9,-8,-24,-11,-8
-2,-7,-6,4,1,-6,-9,-9,-8,-24,-11,-9
-1,-7,-6,4,2,-6,-9,-9,-8,-24,-11,-9
0,-6,-7,2,3,-6,-9,-9,-8,-24,-11,-9
2,-5,-8,1,5,-7,-9,-9,-8,-25,-10,-9
3,-5,-8,1,6,-7,-9,-8,-8,-25,-10,-8
4,-4,-8,0,6,-7,-9,-8,-7,-24,-9,-7
4,-3,-6,0,5,-5,-8,-6,-6,-23,-7,-5
3,-2,-5,0,3,-4,-7,-5,-5,-22,-6,-4
1,-3,-4,1,2,-4,-6,-5,-5,-22,-6,-4
1,-4,-5,2,3,-6,-7,-6,-5,-23,-6,-5
2,-5,-8,1,5,-8,-8,-7,-6,-24,-8,-6
6,-6,-12,0,9,-10,-8,-8,-6,-25,-9,-8
9,-5,-15,-2,12,-11,-9,-8,-7,-26,-10,-9
9,-5,-14,-2,12,-10,-9,-8,-7,-27,-10,-9
5,-5,-10,0,7,-8,-8,-7,-6,-26,-9,-8
2,-5,-7,2,4,-6,-8,-7,-6,-25,-9,-8
2,-6,-7,2,4,-6,-8,-7,-6,-26,-9,-8
2,-5,-8,1,5,-6,-8,-7,-6,-26,-10,-8
3,-5,-8,0,5,-6,-8,-7,-6,-26,-10,-8
3,-4,-8,0,6,-6,-7,-6,-6,-26,-9,-8
4,-3,-7,0,5,-5,-7,-6,-5,-26,-9,-8
4,-2,-6,-1,5,-4,-7,-6,-5,-26,-9,-8
4,-1,-6,-1,5,-3,-7,-6,-5,-26,-9,-8
4,-2,-6,0,4,-4,-7,-6,-5,-26,-9,-8
3,-3,-6,0,4,-5,-7,-6,-5,-26,-9,-8
3,-4,-7,0,4,-5,-7,-6,-6,-27,-9,-8
1,-5,-6,2,3,-6,-7,-6,-6,-27,-9,-8
0,-6,-6,3,2,-6,-7,-6,-6,-28,-9,-8
1,-5,-7,2,3,-6,-6,-5,-5,-28,-9,-8
2,-4,-7,1,4,-6,-6,-5,-5,-28,-9,-8
3,-4,-8,0,5,-7,-6,-5,-6,-28,-10,-9
4,-5,-9,0,6,-8,-7,-6,-7,-29,-11,-10
5,-5,-10,0,7,-8,-7,-7,-8,-30,-12,-10
4,-5,-10,0,6,-8,-7,-7,-9,-31,-12,-10
2,-6,-8,2,5,-7,-7,-7,-9,-31,-12,-10
-1,-9,-8,5,3,-8,-7,-7,-10,-32,-13,-11
-3,-11,-8,6,2,-10,-8,-8,-11,-33,-15,-13
-2,-11,-9,6,3,-10,-9,-9,-12,-34,-15,-13
0,-9,-9,4,4,-9,-9,-9,-11,-34,-15,-13
2,-7,-9,2,5,-8,-8,-9,-11,-34,-15,-13
3,-7,-10,1,6,-9,-8,-9,-11,-34,-15,-13
4,-7,-11,0,7,-9,-8,-9,-12,-34,-15,-13
6,-6,-12,0,8,-9,-8,-9,-12,-34,-15,-13
5,-5,-11,0,8,-8,-8,-9,-12,-34,-15,-12
2,-6,-9,1,5,-8,-8,-9,-12,-35,-16,-12
-2,-10,-8,5,2,-9,-8,-9,-13,-36,-16,-13
-5,-12,-8,8,1,-10,-8,-10,-14,-37,-17,-14
-4,-11,-8,8,1,-9,-8,-11,-14,-37,-18,-14
-1,-9,-8,5,3,-8,-7,-11,-14,-37,-18,-14
2,-6,-8,3,5,-8,-7,-11,-14,-37,-18,-13
5,-5,-10,0,7,-8,-8,-11,-14,-37,-18,-14
7,-4,-11,-1,9,-8,-8,-11,-14,-38,-18,-14
8,-4,-12,-1,10,-8,-8,-11,-14,-38,-18,-14
6,-5,-12,0,9,-9,-8,-11,-15,-38,-18,-14
4,-7,-11,2,7,-9,-8,-11,-15,-38,-18,-14
1,-7,-8,3,4,-8,-8,-10,-15,-38,-18,-14
-1,-7,-5,4,2,-6,-7,-10,-15,-38,-18,-14
0,-6,-5,4,1,-6,-7,-11,-15,-39,-18,-15
1,-5,-6,2,3,-6,-6,-11,-16,-39,-19,-15
2,-5,-7,2,4,-6,-6,-12,-16,-40,-19,-16
1,-6,-7,3,4,-6,-6,-12,-16,-40,-19,-16
0,-8,-8,4,4,-7,-7,-12,-16,-41,-20,-17
-1,-9,-9,5,4,-9,-8,-13,-17,-42,-22,-18
0,-10,-10,5,5,-10,-8,-13,-18,-43,-23,-19
2,-8,-11,3,6,-9,-8,-14,-19,-43,-23,-20
4,-5,-10,0,7,-8,-9,-14,-19,-43,-22,-19
5,-4,-8,0,6,-6,-9,-14,-19,-43,-22,-19
4,-4,-8,0,6,-7,-9,-15,-19,-44,-23,-19
5,-5,-10,1,7,-8,-9,-15,-20,-44,-23,-20
5,-7,-12,1,8,-9,-9,-15,-20,-45,-24,-20
6,-8,-14,1,9,-10,-9,-15,-20,-45,-24,-21
5,-8,-13,1,9,-10,-9,-15,-20,-45,-24,-20
3,-8,-11,2,7,-9,-8,-15,-20,-44,-23,-20
2,-9,-10,3,6,-10,-8,-15,-20,-45,-23,-20
2,-9,-10,3,6,-10,-8,-16,-20,-45,-23,-20
3,-8,-10,2,6,-10,-8,-15,-19,-44,-22,-19
2,-8,-10,3,6,-9,-7,-15,-18,-44,-22,-18
0,-9,-10,4,5,-9,-7,-14,-18,-43,-21,-18
0,-11,-10,5,5,-10,-7,-15,-18,-43,-21,-18
-1,-12,-11,7,5,-11,-7,-15,-19,-43,-21,-18
-2,-13,-11,8,4,-11,-7,-15,-19,-44,-21,-18
-3,-13,-10,8,3,-12,-8,-16,-19,-44,-22,-19
-2,-14,-11,8,4,-13,-9,-17,-20,-45,-23,-20
-1,-15,-13,8,6,-14,-10,-18,-22,-47,-25,-21
0,-14,-14,7,7,-14,-11,-19,-22,-47,-25,-22
1,-11,-13,5,6,-12,-9,-18,-21,-46,-24,-21
0,-9,-10,4,4,-9,-8,-16,-20,-44,-23,-20
0,-7,-8,3,4,-8,-7,-15,-19,-43,-22,-19
2,-6,-8,2,5,-7,-6,-15,-18,-43,-22,-18
3,-6,-8,1,5,-7,-6,-15,-18,-43,-22,-18
0,-8,-8,3,4,-8,-6,-16,-19,-43,-22,-19
-1,-9,-7,5,2,-8,-6,-16,-19,-44,-22,-19
-1,-9,-7,5,2,-8,-6,-16,-19,-44,-22,-19
0,-8,-8,4,3,-8,-6,-16,-19,-44,-22,-19
1,-8,-9,3,4,-8,-6,-16,-19,-44,-23,-20
1,-8,-9,3,5,-8,-6,-16,-19,-44,-24,-21
2,-8,-9,3,5,-8,-6,-16,-19,-44,-24,-21
2,-8,-9,3,5,-8,-6,-16,-19,-44,-24,-21
0,-9,-8,4,4,-9,-6,-17,-19,-45,-24,-21
-2,-11,-8,6,3,-10,-7,-17,-20,-45,-24,-21
-1,-11,-9,6,4,-11,-7,-17,-20,-45,-24,-21
0,-10,-10,5,5,-11,-7,-16,-19,-44,-24,-21
1,-9,-11,4,6,-10,-7,-16,-19,-44,-24,-21
1,-8,-10,3,5,-10,-7,-16,-20,-45,-24,-22
1,-7,-8,3,4,-9,-6,-16,-19,-45,-24,-22
2,-6,-8,2,5,-8,-6,-16,-18,-44,-24,-21
3,-6,-9,2,6,-8,-6,-15,-18,-44,-23,-20
4,-7,-11,2,7,-9,-6,-16,-19,-44,-23,-21
3,-8,-11,2,7,-10,-6,-16,-19,-44,-24,-21
0,-10,-10,4,5,-10,-5,-16,-19,-44,-24,-21
-1,-11,-10,6,4,-10,-5,-15,-19,-44,-24,-21
0,-11,-10,5,5,-11,-6,-15,-19,-44,-24,-21
1,-10,-11,4,6,-11,-5,-14,-18,-43,-23,-21
2,-9,-11,3,7,-11,-5,-14,-18,-43,-23,-21
5,-8,-12,2,8,-11,-5,-14,-17,-43,-23,-21
6,-8,-13,1,10,-11,-5,-14,-17,-43,-23,-21
7,-7,-14,0,11,-11,-5,-14,-17,-44,-23,-22
6,-7,-14,0,10,-10,-5,-14,-17,-43,-23,-22
5,-7,-12,1,8,-9,-5,-13,-16,-42,-23,-21
3,-7,-11,1,7,-9,-4,-12,-15,-41,-22,-21
1,-8,-10,3,6,-9,-4,-12,-15,-41,-22,-20
-1,-10,-9,5,4,-9,-3,-12,-15,-41,-22,-20
-3,-12,-9,7,3,-10,-3,-12,-15,-41,-22,-21
-3,-13,-10,8,3,-11,-3,-12,-14,-41,-21,-21
0,-10,-10,5,5,-10,-3,-11,-14,-40,-20,-20
3,-7,-9,2,6,-8,-3,-11,-13,-39,-20,-18
3,-5,-8,0,5,-6,-3,-12,-14,-39,-20,-18
3,-4,-8,0,5,-6,-4,-13,-15,-40,-21,-19
4,-4,-8,0,6,-6,-5,-15,-16,-41,-22,-20
5,-4,-8,0,6,-5,-5,-15,-16,-41,-22,-20
5,-4,-8,0,7,-5,-6,-16,-16,-41,-21,-20
5,-5,-9,0,7,-6,-6,-16,-17,-42,-22,-20
4,-7,-10,2,7,-8,-7,-17,-18,-43,-22,-21
4,-9,-12,2,9,-10,-8,-17,-19,-44,-23,-22
5,-8,-13,1,9,-10,-8,-17,-19,-44,-24,-23
6,-6,-12,0,9,-9,-8,-17,-19,-43,-24,-22
5,-6,-11,1,8,-9,-8,-17,-18,-43,-23,-22
2,-7,-9,3,5,-8,-8,-16,-18,-42,-22,-21
0,-7,-6,4,3,-7,-7,-16,-17,-41,-21,-19
0,-5,-5,3,3,-5,-6,-15,-17,-41,-20,-18
2,-3,-4,1,4,-4,-5,-15,-17,-40,-19,-17
3,-2,-3,0,4,-3,-5,-14,-16,-39,-18,-16
2,-3,-4,0,3,-4,-4,-13,-15,-38,-17,-15
1,-4,-6,1,4,-5,-4,-14,-16,-39,-18,-16
2,-6,-8,1,5,-7,-5,-15,-17,-40,-20,-18
2,-7,-11,2,6,-8,-6,-16,-18,-42,-22,-20
4,-9,-13,2,8,-11,-7,-17,-20,-44,-24,-22
5,-10,-15,2,10,-12,-7,-18,-21,-45,-25,-24
7,-9,-15,1,11,-11,-7,-18,-21,-45,-26,-24
8,-7,-14,0,11,-10,-7,-17,-20,-45,-25,-24
5,-7,-11,1,8,-9,-6,-16,-19,-44,-25,-23
2,-8,-9,2,5,-8,-5,-16,-19,-43,-24,-22
1,-8,-9,3,5,-8,-4,-16,-19,-43,-24,-22
0,-9,-9,4,4,-8,-4,-16,-19,-43,-24,-22
0,-9,-9,4,5,-8,-3,-17,-19,-44,-24,-23
1,-9,-9,4,5,-8,-3,-17,-20,-44,-24,-23
0,-9,-9,4,5,-8,-3,-18,-20,-44,-25,-24
0,-10,-8,5,4,-8,-3,-18,-20,-45,-25,-24
-1,-10,-8,6,4,-9,-3,-18,-20,-45,-26,-24
-1,-12,-9,7,4,-10,-4,-19,-21,-45,-27,-25
-3,-14,-10,9,3,-12,-5,-20,-22,-47,-28,-27
-4,-15,-10,10,3,-13,-5,-20,-23,-47,-28,-27
-3,-13,-10,8,3,-12,-5,-20,-22,-47,-28,-27
0,-11,-11,6,5,-11,-4,-20,-22,-47,-28,-26
1,-10,-11,5,6,-10,-4,-19,-22,-46,-28,-26
2,-10,-12,4,7,-11,-4,-19,-22,-46,-28,-26
2,-11,-13,4,8,-12,-4,-19,-22,-46,-28,-26
2,-11,-13,4,7,-12,-4,-19,-21,-45,-27,-26
1,-10,-12,4,6,-11,-3,-19,-21,-45,-27,-26
1,-10,-11,4,6,-11,-3,-19,-21,-45,-27,-26
3,-10,-13,3,8,-11,-4,-19,-21,-45,-27,-27
4,-11,-15,3,10,-13,-4,-20,-21,-46,-28,-27
2,-13,-14,5,8,-13,-4,-20,-21,-46,-28,-26
-1,-13,-11,7,5,-12,-3,-19,-20,-45,-27,-25
-4,-14,-9,8,3,-12,-3,-18,-20,-45,-26,-24
-5,-15,-8,9,1,-12,-3,-19,-20,-45,-26,-25
-4,-14,-10,8,3,-12,-2,-19,-20,-45,-26,-25
0,-11,-10,5,5,-10,-1,-18,-19,-43,-26,-25
0,-9,-9,4,4,-9,0,-17,-18,-42,-25,-24
-1,-10,-8,6,3,-9,0,-16,-18,-42,-25,-23
-1,-11,-9,6,4,-10,0,-15,-17,-42,-25,-23
0,-12,-12,6,6,-12,0,-13,-17,-42,-25,-24
1,-14,-15,6,8,-14,1,-11,-16,-42,-26,-24
0,-14,-15,7,8,-15,3,-8,-14,-41,-25,-24
1,-14,-15,6,8,-15,4,-5,-12,-39,-25,-25
3,-14,-17,5,9,-15,5,-1,-9,-38,-25,-26
5,-13,-18,4,11,-16,7,4,-4,-35,-24,-26
4,-12,-16,4,10,-14,11,12,3,-30,-22,-26
2,-9,-10,4,6,-10,18,23,15,-21,-16,-22
-3,-6,-2,5,0,-4,27,39,31,-9,-7,-14
-7,-1,6,4,-6,2,37,56,48,5,4,-4
-8,5,13,2,-10,9,46,72,65,20,19,8
-7,11,18,-1,-12,14,50,83,78,37,36,24
-5,19,23,-7,-13,21,51,90,90,56,58,44
-1,31,32,-15,-16,31,49,92,100,78,84,71
3,48,44,-25,-19,46,43,86,108,103,115,103
8,67,58,-37,-24,63,34,71,110,128,148,138
10,86,75,-48,-32,81,21,49,107,150,179,172
10,103,93,-56,-40,98,7,20,99,170,208,204
9,113,105,-61,-47,109,-7,-9,89,187,234,232
7,115,109,-61,-50,112,-17,-33,79,202,254,253
6,111,107,-58,-50,109,-22,-49,71,213,266,264
5,106,102,-56,-48,104,-26,-58,65,217,268,265
6,103,97,-54,-45,100,-30,-66,57,214,261,255
7,100,92,-53,-42,96,-34,-71,51,208,248,239
8,92,84,-49,-37,88,-34,-70,47,196,225,212
4,77,73,-40,-33,75,-32,-69,37,165,177,163
0,62,63,-30,-31,62,-28,-70,18,114,113,101
-5,50,56,-22,-30,52,-26,-72,-2,62,56,50
-9,40,50,-15,-29,44,-24,-73,-20,21,18,16
-11,32,46,-10,-28,39,-22,-73,-32,-7,-5,-3
-13,28,44,-7,-29,36,-21,-72,-41,-25,-18,-13
-16,26,42,-4,-29,34,-19,-72,-46,-36,-24,-18
-18,23,41,-1,-30,32,-18,-69,-47,-41,-26,-20
-20,20,39,1,-29,30,-17,-64,-44,-41,-26,-19
-20,16,36,2,-27,26,-15,-57,-39,-40,-24,-18
-18,13,31,3,-24,22,-13,-49,-34,-38,-21,-17
-15,11,26,2,-20,18,-10,-40,-28,-35,-19,-17
-11,9,21,1,-16,14,-6,-31,-23,-32,-17,-16
-10,6,16,2,-13,11,-3,-24,-18,-30,-16,-15
-9,3,12,3,-11,7,0,-19,-13,-28,-15,-15
-8,0,8,4,-8,4,3,-14,-9,-25,-14,-14
-6,-2,3,4,-5,0,5,-10,-6,-24,-14,-15
-5,-4,0,4,-3,-1,6,-8,-4,-23,-14,-16
-7,-4,2,5,-4,-1,8,-5,-2,-22,-13,-16
-9,-5,5,7,-7,0,9,-3,0,-22,-13,-16
-12,-6,6,9,-8,-1,9,-2,0,-22,-13,-16
-12,-7,5,10,-8,-1,10,-1,0,-23,-13,-17
-10,-7,3,9,-7,-2,10,0,1,-23,-14,-17
-8,-8,1,9,-5,-3,10,0,1,-23,-14,-17
-8,-8,0,9,-3,-4,10,0,2,-23,-14,-17
-9,-8,0,9,-4,-3,11,1,3,-22,-13,-16
-11,-8,3,10,-7,-2,12,2,4,-21,-12,-15
-11,-7,5,9,-8,-1,12,3,5,-20,-11,-14
-11,-6,5,8,-8,-1,13,4,6,-20,-11,-13
-11,-7,5,9,-8,-1,13,5,7,-19,-10,-12
-12,-9,3,10,-8,-3,14,5,7,-19,-10,-12
-12,-10,2,11,-7,-4,14,5,7,-20,-11,-12
-11,-10,1,12,-6,-4,14,5,7,-20,-11,-13
-11,-11,0,12,-6,-5,13,4,6,-21,-12,-14
-10,-11,-1,11,-4,-5,13,4,6,-21,-12,-15
-8,-10,-1,9,-3,-6,13,5,6,-20,-11,-14
-9,-10,0,9,-4,-5,14,6,7,-19,-10,-13
-11,-10,3,10,-7,-3,14,7,8,-18,-9,-12
-13,-9,4,11,-8,-3,15,7,9,-17,-9,-12
-11,-8,3,10,-7,-3,15,8,10,-16,-8,-11
-9,-7,1,8,-4,-3,15,9,11,-15,-8,-11
-7,-7,0,7,-3,-3,16,9,11,-14,-7,-10
-6,-8,-1,7,-2,-4,16,9,11,-14,-7,-10
-6,-8,-1,6,-2,-4,16,9,12,-14,-7,-10
-7,-7,0,6,-3,-4,16,9,13,-14,-7,-10
-7,-7,0,6,-4,-4,16,10,13,-14,-7,-10
-6,-6,0,5,-3,-4,16,10,13,-13,-7,-10
-6,-5,0,5,-3,-3,17,11,14,-13,-6,-9
-7,-6,0,7,-3,-3,17,12,15,-12,-6,-9
-7,-8,0,8,-3,-4,16,12,15,-12,-5,-9
-8,-8,1,9,-5,-3,17,13,16,-11,-4,-8
-8,-7,2,8,-5,-2,17,14,17,-10,-3,-7
-7,-7,2,8,-5,-3,17,14,17,-10,-3,-7
-6,-8,0,7,-4,-4,17,13,17,-10,-4,-8
-6,-8,-1,7,-3,-5,16,13,17,-10,-4,-8
-8,-9,0,8,-4,-5,17,14,18,-9,-4,-8
-9,-8,2,8,-6,-3,17,15,19,-8,-2,-7
-8,-6,3,7,-5,-1,18,17,20,-6,-1,-6
-6,-6,1,6,-3,-2,18,17,21,-5,0,-5
-6,-7,0,6,-3,-3,18,17,22,-5,0,-4
-6,-7,0,6,-3,-3,18,18,22,-4,0,-4
-5,-7,0,5,-3,-3,19,19,24,-3,1,-3
-5,-6,0,5,-3,-3,19,20,25,-2,1,-3
-5,-6,0,5,-3,-3,20,20,25,-2,1,-3
-5,-5,1,5,-3,-2,20,21,26,-1,2,-2
-5,-4,2,5,-3,0,20,21,27,0,3,-2
-6,-4,3,5,-4,0,20,22,28,1,4,-1
-7,-5,3,6,-4,0,20,22,29,3,5,0
-7,-5,3,6,-5,-1,21,23,30,4,6,1
-7,-5,3,6,-5,-1,21,24,30,5,7,1
-8,-6,2,7,-5,-2,21,24,31,5,7,2
-9,-6,2,8,-6,-2,20,25,32,6,8,2
-9,-6,2,7,-5,-2,21,27,33,7,9,3
-7,-4,2,6,-4,-1,22,28,34,9,9,3
-6,-3,2,5,-4,0,22,29,35,10,10,4
-5,-2,3,4,-3,0,23,30,37,12,12,5
-4,-1,3,3,-3,1,23,31,38,14,13,6
-3,0,3,1,-3,1,23,32,40,15,14,6
-3,0,3,1,-3,1,23,33,41,16,14,7
-3,0,2,1,-2,1,23,33,41,16,15,7
-2,0,1,1,-1,0,23,34,42,17,15,7
-1,0,0,1,0,0,22,34,42,17,16,7
-2,-1,0,2,0,0,23,35,43,19,17,8
-4,-3,2,4,-2,0,24,37,45,21,18,10
-6,-2,4,4,-4,0,25,38,47,23,20,12
-5,0,5,3,-5,2,26,40,49,25,22,14
-5,0,6,2,-5,2,26,41,50,26,23,14
-6,0,6,3,-6,2,25,41,50,26,23,14
-5,-1,5,3,-6,2,25,42,51,27,24,15
-4,0,4,2,-4,2,25,44,52,29,25,15
-3,0,5,2,-4,2,25,45,54,30,26,16
-5,0,6,3,-5,2,26,46,55,32,27,17
-5,0,6,3,-5,2,26,47,56,33,28,18
-5,0,5,3,-5,2,25,48,56,34,29,19
-4,-1,3,2,-4,1,24,48,57,35,30,20
-1,0,1,0,-2,0,24,48,57,36,31,20
3,2,0,-2,1,0,23,49,58,37,31,21
4,3,-1,-3,2,0,23,49,58,37,32,21
3,2,0,-2,2,0,24,50,59,38,33,22
2,2,1,-2,1,1,25,51,60,40,34,24
2,3,1,-2,0,1,25,52,61,42,35,25
2,3,1,-2,0,2,25,53,62,43,36,25
2,4,2,-3,0,3,25,53,62,44,37,26
2,6,4,-4,-1,5,26,54,63,45,38,27
1,7,6,-4,-3,6,26,54,63,45,39,28
0,8,7,-3,-4,7,26,55,64,46,40,29
0,8,8,-4,-4,7,26,55,64,47,41,30
0,8,8,-3,-4,7,25,55,64,48,42,31
-1,7,8,-2,-4,7,25,55,64,48,42,32
-1,6,8,-2,-4,7,25,54,63,49,43,32
0,6,7,-3,-4,7,24,54,63,49,43,33
1,7,7,-4,-3,7,23,53,62,49,43,33
3,8,6,-5,-2,7,23,52,61,49,43,33
3,7,6,-5,-2,7,22,51,60,49,43,33
2,6,6,-4,-2,6,22,50,59,48,42,33
1,6,6,-3,-3,6,21,49,58,48,42,33
0,7,7,-3,-3,7,21,48,57,49,43,34
-1,7,8,-2,-4,8,20,47,57,49,43,34
-2,6,8,-1,-5,7,19,46,55,49,42,34
-1,5,8,-1,-4,7,18,44,53,48,42,33
-1,5,7,-1,-4,6,17,42,52,47,41,33
-1,5,7,-1,-4,6,17,40,50,46,40,32
0,6,7,-2,-4,6,16,38,48,45,40,32
0,7,7,-3,-3,6,16,37,47,44,39,32
0,8,8,-3,-3,7,16,35,46,43,39,31
0,8,9,-3,-3,8,15,34,45,42,38,31
0,8,9,-3,-4,9,15,32,43,41,36,30
0,7,9,-3,-4,8,14,30,41,39,35,29
0,7,8,-3,-4,8,14,28,38,37,33,28
-1,6,8,-2,-4,7,13,26,36,36,32,27
-2,6,9,-2,-5,8,13,25,35,34,31,27
-2,7,10,-1,-6,8,13,23,33,32,29,25
-1,8,10,-3,-5,9,13,21,31,30,27,23
1,9,9,-5,-4,9,13,19,29,28,25,21
2,9,8,-5,-3,9,12,17,26,25,23,19
2,8,7,-4,-2,7,11,15,23,23,20,16
2,7,6,-4,-2,6,10,12,21,20,17,14
2,6,5,-4,-1,6,9,10,18,18,15,12
0,5,5,-2,-2,5,8,8,16,16,14,11
-2,3,6,0,-4,4,8,7,15,14,12,10
-3,1,5,2,-4,2,8,5,13,12,10,9
-4,0,4,3,-4,1,7,3,10,10,8,6
-5,-1,4,3,-4,1,6,1,8,8,6,5
-5,-1,5,3,-5,1,7,0,7,6,4,3
-6,0,5,3,-5,2,7,0,5,5,2,2
-5,0,5,3,-4,2,7,-1,3,3,1,1
-5,1,6,2,-4,2,7,-2,3,2,1,1
-5,2,6,2,-5,3,7,-2,2,1,0,1
-4,2,6,2,-4,3,7,-3,2,0,0,0
-3,1,5,1,-3,2,7,-4,1,0,-2,0
-3,0,3,2,-3,1,7,-5,0,-2,-3,-1
-5,-2,3,4,-3,0,7,-6,-2,-4,-5,-3
-6,-3,3,5,-4,-1,6,-7,-3,-5,-7,-4
-7,-4,3,6,-4,-1,6,-8,-4,-6,-8,-5
-7,-4,3,6,-5,-1,6,-9,-5,-7,-8,-6
-7,-3,3,5,-5,-1,6,-9,-6,-7,-9,-6
-6,-3,3,5,-5,-1,5,-9,-7,-8,-10,-7
-5,-3,2,4,-4,-1,5,-10,-8,-9,-11,-8
-5,-3,2,4,-4,-1,6,-10,-8,-9,-11,-9
-5,-4,2,5,-4,-1,6,-10,-9,-10,-12,-10
-5,-4,2,5,-4,-1,5,-11,-10,-11,-14,-11
-5,-3,3,5,-4,0,6,-11,-10,-11,-14,-11
-5,-2,4,4,-5,1,7,-10,-9,-10,-13,-10
-7,-2,5,5,-6,1,7,-10,-8,-9,-12,-9
-8,-2,6,6,-7,1,7,-10,-8,-9,-12,-9
-9,-3,6,6,-7,1,7,-10,-7,-8,-12,-9
-7,-3,4,6,-6,0,7,-10,-7,-8,-12,-9
-5,-3,3,5,-4,0,7,-10,-8,-9,-12,-10
-5,-4,2,5,-3,-1,6,-10,-8,-9,-13,-10
-5,-6,0,6,-2,-2,6,-10,-9,-10,-13,-11
-6,-7,0,7,-3,-3,6,-10,-9,-10,-14,-11
-7,-6,1,7,-3,-3,6,-10,-8,-9,-13,-10
-5,-4,0,5,-2,-2,6,-9,-7,-8,-13,-10
-2,-2,-1,3,0,-2,6,-9,-8,-8,-13,-10
-2,-3,-2,3,0,-3,5,-10,-8,-9,-13,-11
-5,-5,0,5,-2,-2,6,-9,-8,-8,-13,-10
-7,-5,3,6,-5,0,7,-8,-7,-7,-12,-9
-7,-3,5,5,-6,1,7,-6,-6,-5,-11,-8
-7,-3,4,5,-6,0,7,-6,-5,-5,-10,-8
-7,-4,3,5,-5,0,7,-6,-5,-5,-11,-8
-9,-6,3,7,-6,-2,6,-7,-6,-6,-11,-9
-12,-8,3,10,-7,-3,6,-8,-6,-6,-12,-9
-13,-9,3,11,-8,-3,5,-8,-6,-6,-12,-10
-10,-7,3,9,-7,-2,6,-7,-5,-5,-11,-9
-7,-4,3,6,-6,0,6,-6,-4,-3,-9,-8
-6,-3,4,5,-5,0,6,-5,-3,-3,-9,-7
-6,-3,4,5,-5,0,6,-5,-3,-3,-9,-7
-5,-2,3,4,-4,0,6,-5,-3,-3,-9,-6
-4,-2,3,4,-3,0,7,-4,-3,-2,-8,-6
-4,-2,2,4,-3,0,7,-4,-3,-2,-8,-6
-3,-3,1,4,-2,-1,7,-4,-3,-3,-8,-6
-1,-4,-2,3,0,-3,6,-4,-4,-3,-8,-7
2,-3,-5,2,3,-4,6,-4,-4,-4,-9,-7
4,-3,-7,0,5,-4,5,-5,-5,-4,-10,-8
5,-3,-7,0,6,-5,4,-5,-5,-4,-10,-8
2,-2,-4,0,3,-3,4,-4,-4,-4,-9,-6
-2,-1,1,2,-1,0,5,-3,-3,-2,-7,-4
-6,-1,5,3,-5,1,5,-2,-2,-1,-6,-3
-7,-2,5,5,-6,1,5,-3,-2,-2,-6,-3
-7,-4,4,6,-6,0,5,-3,-2,-2,-6,-4
-7,-4,3,6,-6,0,5,-2,-2,-2,-6,-4
-7,-4,3,6,-6,0,5,-2,-2,-2,-6,-4
-5,-3,3,4,-5,0,5,-2,-2,-2,-6,-4
-3,-2,3,3,-3,0,4,-2,-2,-2,-7,-4
-3,-2,2,3,-3,0,4,-2,-2,-3,-7,-4
-3,-2,2,3,-2,0,3,-3,-3,-3,-7,-4
-3,-2,2,3,-3,0,3,-3,-3,-3,-7,-4
-4,-2,3,4,-3,0,4,-3,-2,-3,-7,-4
-4,-2,2,3,-3,0,4,-3,-2,-3,-7,-4
-4,-2,2,4,-3,0,3,-3,-3,-4,-7,-4
-5,-3,2,5,-4,0,3,-3,-4,-5,-8,-5
-8,-5,3,7,-5,-1,2,-3,-5,-5,-9,-5
-10,-7,4,9,-7,-2,2,-3,-5,-6,-9,-5
-8,-5,3,7,-5,-1,2,-3,-5,-6,-9,-5
-3,-2,2,3,-2,-1,3,-3,-5,-6,-9,-5
-2,-1,1,2,-1,-1,3,-3,-5,-6,-9,-6
-2,-2,0,2,0,-1,2,-3,-6,-7,-9,-6
-1,-2,0,2,0,-1,2,-3,-6,-7,-9,-6
-1,-1,1,2,0,0,3,-3,-6,-7,-9,-6
-2,-1,2,2,-1,0,3,-3,-6,-7,-9,-5
-4,-2,3,3,-2,0,3,-3,-6,-8,-10,-6
-4,-2,3,4,-3,0,3,-3,-7,-8,-11,-7
-4,-2,2,4,-2,0,3,-4,-7,-9,-11,-8
-4,-3,1,4,-2,-1,2,-5,-9,-10,-12,-9
-3,-3,0,4,-1,-2,1,-5,-10,-11,-13,-9
-3,-4,0,4,-1,-2,1,-6,-10,-12,-14,-10
-5,-5,0,5,-2,-2,1,-6,-11,-12,-14,-10
-5,-4,1,5,-3,-1,1,-5,-10,-12,-14,-9
-3,-1,1,3,-2,0,2,-5,-10,-11,-13,-8
-1,0,1,1,-1,0,2,-4,-10,-12,-13,-8
-1,0,1,1,-1,0,2,-4,-11,-12,-13,-8
-1,0,1,1,-1,0,2,-5,-11,-13,-14,-9
-2,-1,1,2,-1,0,2,-5,-11,-13,-14,-9
-2,-1,2,2,-1,0,2,-5,-11,-13,-14,-9
-1,-1,1,2,0,0,2,-5,-12,-14,-15,-10
0,0,0,1,1,0,1,-6,-12,-14,-15,-10
0,-1,-1,1,1,-1,1,-6,-13,-15,-16,-11
-1,-1,-1,2,0,-1,0,-7,-14,-16,-16,-11
-1,-2,-1,2,0,-2,0,-7,-15,-16,-17,-12
-1,-3,-2,2,1,-3,0,-8,-16,-18,-19,-13
0,-3,-2,2,1,-3,-1,-9,-16,-18,-20,-14
-1,-3,-1,2,0,-2,0,-8,-16,-18,-19,-13
-2,-2,1,2,-1,0,0,-7,-15,-16,-18,-12
-2,-2,2,3,-2,0,1,-7,-15,-16,-17,-11
-2,-2,1,3,-1,-1,0,-7,-16,-16,-18,-11
-2,-3,0,3,0,-2,0,-8,-16,-17,-18,-12
-1,-4,-2,3,0,-3,0,-8,-17,-18,-18,-12
0,-5,-4,3,2,-4,0,-8,-18,-19,-19,-13
0,-6,-5,3,3,-5,0,-9,-19,-20,-21,-14
0,-6,-4,4,2,-5,-1,-9,-19,-20,-21,-15
-4,-6,-1,6,-1,-4,-1,-9,-18,-20,-20,-14
-8,-8,1,8,-4,-4,-1,-9,-18,-20,-21,-14
-11,-10,2,11,-6,-4,-1,-10,-19,-21,-21,-15
-12,-10,3,12,-7,-4,-1,-10,-19,-21,-21,-15
-11,-9,3,10,-6,-3,0,-10,-19,-20,-21,-14
-9,-7,2,8,-5,-2,0,-9,-18,-20,-20,-13
-8,-5,2,7,-4,-2,0,-9,-18,-20,-20,-12
-7,-5,2,6,-4,-1,0,-9,-18,-19,-19,-12
-5,-4,1,5,-2,-2,0,-9,-18,-19,-19,-12
-3,-4,-1,3,0,-2,0,-9,-18,-19,-20,-13
-3,-5,-1,4,0,-3,-1,-9,-19,-20,-20,-13
-5,-6,-1,6,-1,-3,-1,-10,-19,-20,-21,-14
-7,-8,-1,7,-2,-4,-2,-10,-20,-21,-22,-15
-8,-9,-1,8,-2,-5,-2,-11,-20,-21,-22,-15
-6,-8,-2,7,-1,-5,-2,-11,-21,-22,-23,-16
-2,-6,-3,5,0,-5,-2,-11,-21,-22,-22,-16
0,-5,-3,3,1,-4,-2,-11,-20,-21,-22,-15
0,-4,-3,2,1,-3,-1,-10,-19,-21,-21,-15
0,-3,-2,1,1,-3,-1,-10,-19,-20,-21,-14
-2,-4,-1,3,0,-3,0,-9,-19,-20,-21,-14
-5,-5,-1,5,-2,-3,0,-9,-19,-20,-21,-14
-7,-6,0,6,-3,-3,0,-9,-19,-20,-21,-14
-7,-6,0,7,-3,-2,0,-9,-18,-19,-20,-13
-6,-5,1,6,-3,-2,1,-8,-18,-19,-20,-13
-5,-5,1,5,-3,-2,1,-8,-18,-19,-20,-13
-5,-5,0,5,-2,-3,0,-9,-19,-19,-20,-13
-3,-5,-1,4,0,-4,0,-9,-19,-20,-21,-14
0,-4,-4,2,3,-4,-1,-9,-19,-20,-21,-15
3,-3,-6,0,5,-5,-1,-9,-19,-20,-21,-15
3,-3,-6,0,5,-4,0,-8,-19,-20,-21,-15
1,-2,-4,1,3,-3,0,-8,-18,-19,-20,-14
1,-2,-3,1,2,-3,1,-7,-17,-18,-20,-13
2,-1,-3,0,2,-2,1,-7,-17,-18,-20,-13
1,-2,-2,0,2,-2,1,-7,-17,-18,-19,-13
0,-3,-2,1,1,-2,1,-7,-16,-18,-19,-13
0,-4,-3,2,1,-3,1,-6,-16,-18,-19,-13
1,-5,-6,2,3,-5,0,-6,-17,-18,-20,-14
2,-5,-7,1,4,-5,0,-6,-17,-18,-20,-14
1,-4,-6,1,4,-5,0,-6,-17,-18,-20,-14
0,-4,-4,2,2,-4,0,-5,-17,-17,-20,-13
-2,-4,-2,3,0,-4,0,-6,-17,-18,-20,-13
-4,-5,-1,4,-2,-4,-1,-8,-18,-18,-21,-14
-5,-4,1,4,-3,-2,-1,-9,-19,-18,-20,-13
-6,-3,3,4,-4,0,-2,-10,-19,-18,-20,-13
-7,-3,4,5,-5,0,-2,-11,-20,-19,-20,-13
-7,-2,4,4,-5,1,-3,-12,-21,-19,-20,-13
-5,-1,3,2,-3,1,-3,-12,-20,-19,-20,-13
-2,0,1,1,-1,0,-3,-12,-21,-20,-20,-13
-1,-1,0,0,0,-1,-4,-13,-21,-20,-20,-12
0,-1,-1,0,0,-2,-4,-13,-21,-20,-20,-12
0,-2,-2,1,1,-3,-5,-13,-22,-21,-20,-12
0,-3,-3,1,1,-3,-5,-13,-22,-21,-20,-12
1,-3,-4,0,3,-4,-5,-14,-22,-21,-20,-12
2,-3,-6,0,4,-4,-5,-14,-22,-21,-20,-12
1,-4,-6,1,4,-4,-5,-14,-22,-21,-21,-12
0,-4,-4,2,2,-4,-5,-14,-22,-21,-21,-12
0,-4,-3,2,2,-4,-6,-14,-22,-21,-21,-12
0,-3,-3,1,2,-4,-6,-14,-22,-21,-20,-12
0,-3,-3,1,1,-4,-5,-13,-22,-20,-20,-12
0,-2,-2,1,1,-3,-5,-12,-21,-20,-19,-11
0,-2,-2,0,1,-2,-4,-12,-21,-20,-18,-10
0,-2,-3,0,2,-2,-4,-12,-21,-20,-19,-11
0,-3,-3,1,1,-3,-4,-13,-21,-20,-20,-12
-2,-5,-3,3,0,-4,-4,-13,-22,-21,-21,-13
-3,-7,-4,5,0,-6,-5,-14,-23,-23,-23,-14
-2,-9,-7,6,2,-9,-6,-15,-25,-25,-25,-16
0,-11,-11,6,4,-11,-7,-16,-26,-27,-26,-18
1,-11,-12,5,6,-12,-8,-17,-27,-28,-27,-19
0,-10,-10,5,5,-10,-7,-17,-27,-27,-27,-19
0,-8,-8,4,4,-8,-7,-17,-26,-26,-26,-18
0,-7,-7,3,4,-6,-6,-17,-25,-26,-26,-17
0,-7,-7,3,3,-6,-6,-17,-25,-26,-25,-17
0,-7,-7,3,4,-6,-6,-16,-25,-26,-25,-17
1,-7,-8,3,4,-7,-6,-16,-25,-26,-25,-18
1,-6,-8,3,4,-7,-6,-16,-25,-26,-25,-17
1,-6,-7,2,4,-7,-5,-15,-24,-26,-25,-17
0,-7,-6,3,3,-7,-5,-16,-25,-26,-25,-18
-1,-8,-7,5,3,-7,-5,-16,-25,-27,-26,-19
-2,-9,-7,5,3,-7,-5,-16,-25,-27,-26,-19
-2,-8,-6,5,2,-6,-5,-16,-25,-26,-26,-18
-3,-7,-5,5,1,-6,-4,-15,-24,-26,-26,-18
-3,-7,-5,5,0,-6,-4,-15,-24,-26,-26,-18
-2,-6,-4,4,0,-5,-4,-15,-24,-25,-25,-17
-2,-5,-3,4,0,-5,-4,-15,-23,-25,-25,-17
-2,-6,-3,4,0,-5,-4,-15,-23,-25,-25,-17
-1,-6,-4,4,1,-5,-4,-15,-23,-25,-25,-17
-1,-6,-4,3,1,-5,-4,-15,-23,-25,-24,-17
-3,-6,-3,4,0,-5,-4,-15,-23,-25,-24,-17
-4,-7,-3,5,0,-5,-5,-16,-23,-26,-25,-18
-5,-8,-4,6,0,-6,-5,-16,-24,-26,-25,-18
-3,-7,-4,5,0,-6,-5,-15,-23,-26,-25,-18
-2,-6,-4,4,1,-5,-4,-15,-23,-25,-25,-18
-1,-5,-3,4,1,-4,-4,-15,-22,-25,-24,-17
0,-5,-4,3,2,-4,-4,-15,-22,-25,-24,-17
0,-5,-6,2,3,-5,-5,-15,-23,-26,-25,-18
1,-6,-8,2,4,-6,-5,-16,-23,-27,-26,-19
2,-5,-9,1,5,-7,-5,-15,-23,-27,-26,-19
3,-4,-9,0,6,-7,-4,-14,-23,-26,-25,-18
2,-5,-8,1,5,-7,-2,-12,-22,-26,-25,-18
0,-8,-8,4,4,-9,-2,-10,-22,-26,-25,-19
0,-10,-10,5,5,-11,-1,-8,-21,-26,-26,-20
2,-11,-12,4,7,-12,-1,-5,-19,-26,-26,-21
3,-10,-12,4,8,-11,0,-2,-16,-25,-25,-21
3,-9,-12,3,8,-10,2,3,-11,-22,-23,-20
2,-8,-10,3,6,-8,6,11,-3,-16,-20,-19
1,-6,-7,2,4,-6,11,22,7,-9,-16,-16
2,-3,-6,0,4,-4,17,35,20,0,-9,-11
3,0,-3,-1,3,-1,25,51,35,12,0,-3
1,4,4,-2,-1,4,34,67,51,27,13,7
0,10,12,-5,-5,11,40,81,66,43,30,23
3,20,18,-12,-6,19,43,91,80,62,51,43
9,34,25,-21,-6,29,42,95,91,82,76,68
12,49,36,-30,-11,42,38,91,99,104,105,99
14,66,51,-40,-18,59,31,78,101,127,137,133
16,87,69,-52,-26,78,21,57,99,148,169,167
19,108,88,-63,-34,97,8,29,92,167,198,200
19,122,103,-70,-41,112,-6,-2,80,182,224,230
17,127,111,-72,-46,118,-17,-30,67,195,247,254
14,125,112,-70,-48,118,-24,-49,58,207,264,271
13,120,108,-67,-47,114,-28,-60,52,214,273,278
12,115,103,-63,-45,109,-33,-67,46,215,271,274
10,109,98,-59,-44,103,-37,-74,39,210,261,260
7,99,91,-53,-42,94,-39,-76,34,202,242,236
3,84,80,-43,-38,81,-37,-73,28,181,203,193
-1,68,70,-33,-35,68,-33,-73,15,140,142,132
-5,55,61,-25,-32,57,-32,-75,-2,92,81,76
-6,44,51,-18,-28,48,-31,-76,-19,50,36,37
-6,37,43,-15,-24,40,-31,-77,-32,19,7,12
-5,33,38,-13,-21,36,-30,-77,-41,-3,-10,-3
-5,31,35,-12,-20,33,-30,-77,-48,-18,-20,-10
-5,29,34,-11,-20,31,-29,-74,-51,-27,-24,-13
-6,28,33,-11,-19,30,-27,-69,-50,-29,-25,-14
-6,25,30,-9,-17,27,-26,-63,-46,-29,-24,-13
-7,20,27,-7,-16,23,-24,-55,-43,-29,-23,-13
-7,14,22,-4,-14,18,-22,-47,-39,-28,-22,-13
-6,9,17,-2,-11,13,-19,-39,-34,-26,-20,-13
-5,7,13,-1,-9,10,-15,-31,-28,-24,-18,-12
-4,6,11,-1,-8,9,-11,-23,-21,-20,-16,-10
-3,5,9,-1,-6,7,-7,-16,-16,-17,-14,-9
-3,3,5,0,-4,4,-5,-11,-12,-15,-13,-9
-2,0,2,0,-2,0,-4,-7,-10,-14,-13,-9
-1,-1,0,0,0,-2,-4,-6,-9,-14,-13,-10
1,-1,-2,0,2,-3,-4,-4,-8,-14,-13,-10
2,-2,-3,0,3,-3,-3,-3,-8,-14,-13,-10
1,-4,-4,1,3,-4,-3,-3,-8,-15,-14,-11
0,-6,-4,3,3,-5,-3,-2,-7,-16,-15,-12
-1,-7,-5,4,3,-6,-3,-2,-7,-16,-15,-12
0,-5,-6,2,4,-6,-2,0,-6,-15,-15,-12
2,-3,-6,0,5,-5,-1,1,-5,-14,-14,-11
3,-3,-8,-1,6,-5,-1,1,-5,-14,-14,-11
4,-4,-9,0,7,-7,-2,1,-5,-15,-15,-12
5,-4,-9,0,7,-7,-2,2,-5,-14,-15,-12
5,-4,-7,0,6,-5,-1,3,-3,-13,-14,-11
3,-3,-5,0,4,-4,0,4,-2,-12,-13,-10
1,-3,-3,1,2,-3,1,5,0,-10,-12,-9
0,-3,-2,1,1,-3,1,6,0,-10,-11,-8
-1,-3,-2,2,1,-3,1,6,0,-10,-11,-8
-2,-4,-3,3,1,-4,1,6,0,-10,-11,-8
-1,-5,-4,3,1,-5,1,6,0,-10,-11,-7
0,-5,-4,2,2,-5,1,6,0,-10,-11,-7
0,-4,-4,2,2,-4,1,7,0,-9,-11,-7
1,-4,-4,2,3,-4,1,7,1,-8,-10,-7
2,-5,-6,2,4,-6,1,7,1,-8,-10,-7
2,-6,-8,2,4,-7,1,7,1,-9,-11,-8
1,-6,-8,3,4,-7,1,7,1,-9,-11,-8
0,-7,-7,3,4,-7,1,8,1,-8,-11,-8
0,-7,-7,3,4,-7,1,8,2,-7,-10,-8
0,-7,-7,3,4,-7,2,8,2,-7,-10,-7
1,-7,-7,2,4,-7,2,9,2,-6,-9,-7
1,-7,-7,3,4,-7,1,9,2,-6,-9,-7
1,-7,-8,3,5,-8,1,9,2,-6,-9,-7
2,-8,-10,3,6,-9,1,9,2,-6,-9,-7
2,-8,-11,3,7,-9,1,9,3,-6,-9,-7
3,-7,-11,1,7,-9,1,10,4,-6,-8,-7
3,-7,-11,1,7,-9,1,10,4,-5,-8,-7
0,-8,-8,4,4,-9,1,11,5,-5,-7,-7
-3,-9,-6,6,1,-8,1,11,5,-5,-6,-6
-2,-8,-5,5,1,-7,2,12,6,-4,-5,-5
-1,-6,-4,4,2,-6,3,14,8,-2,-4,-4
0,-5,-5,3,3,-5,4,15,9,-1,-3,-3
0,-6,-7,3,4,-7,3,15,9,-1,-3,-3
1,-7,-9,2,6,-8,2,15,9,-2,-4,-3
4,-6,-11,0,8,-8,2,16,10,-1,-3,-3
5,-4,-11,0,8,-8,3,17,11,0,-1,-2
4,-5,-10,0,7,-8,3,18,12,1,0,-1
3,-6,-9,1,5,-8,3,18,12,1,0,-1
2,-6,-8,2,4,-7,4,19,13,2,0,0
1,-6,-7,3,3,-7,4,20,14,3,1,0
0,-7,-6,4,3,-7,5,21,15,4,2,1
-2,-8,-6,5,2,-7,5,21,15,4,2,1
-2,-8,-6,5,2,-7,5,22,16,5,3,1
0,-7,-7,3,4,-7,5,23,16,5,3,2
5,-5,-11,0,8,-8,5,23,17,5,4,2
9,-5,-14,-2,12,-10,4,23,17,5,3,1
10,-6,-15,-1,12,-10,4,24,17,5,3,0
8,-6,-14,0,11,-10,4,25,18,6,4,1
7,-5,-12,0,9,-9,5,27,20,8,6,3
4,-4,-9,0,6,-7,6,29,22,10,8,5
1,-5,-6,2,3,-6,7,30,23,12,10,7
0,-5,-5,2,2,-6,8,32,24,13,11,8
0,-5,-6,2,3,-6,8,32,25,14,12,9
3,-4,-7,0,5,-6,8,34,26,15,13,10
4,-3,-7,0,5,-5,8,35,28,17,14,11
4,-3,-7,0,5,-5,9,36,29,17,15,11
5,-4,-8,0,6,-6,8,37,29,18,15,11
5,-5,-9,0,7,-7,8,38,29,18,16,11
3,-6,-9,1,7,-7,8,39,30,18,16,12
3,-5,-9,1,6,-7,9,40,31,19,17,12
3,-6,-9,1,6,-7,9,41,32,20,18,13
3,-7,-9,2,6,-8,8,42,32,20,18,13
2,-7,-9,3,5,-8,8,43,33,21,19,14
2,-6,-8,2,5,-7,8,44,34,23,20,15
3,-4,-7,0,6,-6,9,46,35,25,22,17
5,-2,-7,-1,7,-5,9,48,36,26,24,18
6,0,-7,-3,7,-5,10,49,37,27,25,19
6,0,-7,-3,7,-5,10,50,38,27,26,20
6,-1,-7,-3,7,-5,10,51,39,28,27,21
5,-2,-7,-1,6,-5,10,51,40,29,28,22
4,-3,-7,0,5,-5,10,52,40,29,28,22
5,-3,-8,-1,7,-5,10,52,40,30,29,23
8,-2,-10,-3,9,-5,10,52,40,30,29,23
9,-1,-11,-3,11,-6,10,52,40,30,30,24
9,-1,-11,-4,11,-6,9,53,40,30,30,24
8,-1,-9,-4,9,-5,10,54,40,31,31,25
5,0,-5,-3,5,-3,10,55,41,33,33,27
4,1,-3,-3,4,-1,10,55,41,34,34,28
6,3,-4,-5,5,0,10,55,42,34,35,29
8,4,-4,-6,6,0,10,55,42,34,36,30
8,4,-5,-6,6,0,10,54,42,34,36,30
9,2,-7,-5,8,-2,9,54,41,34,36,30
9,2,-9,-5,9,-3,8,53,39,33,36,30
10,2,-9,-6,10,-3,8,52,39,33,36,30
12,3,-9,-8,11,-2,7,52,38,33,37,31
12,4,-8,-8,10,-2,7,51,38,33,37,31
10,5,-5,-8,8,0,8,51,38,33,38,32
8,5,-2,-7,5,1,8,51,38,34,39,34
8,6,-1,-7,4,2,9,51,38,34,40,35
7,6,-1,-6,4,2,8,49,37,33,40,35
7,5,-1,-6,4,2,7,47,36,32,40,34
7,5,-2,-6,4,1,6,45,34,32,39,34
6,4,-1,-5,4,1,6,44,33,31,39,34
4,3,-1,-3,2,0,5,42,31,30,38,33
3,1,-1,-2,2,0,4,40,30,28,37,33
4,1,-3,-3,4,-1,3,38,28,27,36,32
6,2,-4,-4,6,-1,2,36,26,26,35,31
9,5,-4,-7,7,0,2,35,26,25,35,32
10,7,-3,-8,7,2,3,34,25,25,36,32
9,8,-1,-8,5,3,3,32,25,25,36,32
7,7,0,-8,3,3,3,31,23,24,35,32
7,7,0,-7,3,3,2,28,22,22,34,31
6,6,-1,-7,4,2,2,26,20,20,32,30
7,5,-2,-6,5,1,1,23,18,18,30,28
7,5,-3,-6,5,0,0,21,16,16,28,26
6,4,-2,-5,4,0,0,19,14,15,26,25
6,5,-1,-5,3,2,0,18,13,13,24,24
5,6,0,-6,2,3,0,17,13,12,23,23
5,5,0,-5,2,2,0,15,11,11,22,21
5,4,-1,-5,3,1,-1,13,9,8,20,19
6,3,-4,-5,5,-1,-1,11,6,5,18,17
8,3,-6,-5,7,-2,-1,8,4,3,15,15
8,2,-7,-5,7,-2,-1,6,3,1,13,14
5,1,-5,-3,5,-2,-1,5,1,0,11,12
2,0,-3,0,2,-2,-1,4,0,-1,10,11
2,0,-2,0,2,-2,-2,3,0,-2,9,11
3,0,-3,-1,3,-2,-2,2,-1,-4,7,10
4,-1,-5,-1,4,-3,-3,0,-3,-6,5,8
3,-4,-6,0,5,-5,-4,-2,-6,-9,2,5
2,-5,-7,1,5,-6,-5,-5,-8,-12,0,2
2,-5,-7,1,5,-6,-5,-6,-10,-14,-1,1
2,-4,-7,1,5,-6,-5,-7,-11,-15,-3,0
1,-5,-6,2,4,-6,-5,-8,-12,-16,-4,-1
-1,-6,-5,4,2,-6,-5,-9,-12,-17,-5,-2
-1,-6,-4,4,2,-6,-5,-9,-12,-17,-6,-2
0,-5,-4,3,2,-6,-5,-9,-12,-18,-6,-3
-1,-6,-4,3,2,-6,-4,-10,-13,-19,-7,-4
-3,-7,-4,5,0,-6,-4,-11,-14,-21,-9,-6
-3,-8,-5,5,1,-6,-5,-12,-15,-22,-10,-7
-1,-7,-7,4,3,-6,-5,-13,-16,-23,-11,-8
0,-7,-9,4,4,-7,-5,-14,-17,-24,-13,-10
1,-8,-10,4,5,-9,-6,-14,-18,-25,-14,-11
0,-9,-9,4,4,-9,-6,-15,-18,-25,-14,-12
0,-9,-9,4,4,-9,-7,-15,-18,-25,-14,-12
1,-8,-8,3,4,-9,-7,-15,-18,-25,-14,-12
0,-7,-7,2,3,-7,-6,-14,-18,-25,-14,-11
-1,-6,-5,3,1,-6,-5,-14,-17,-25,-13,-11
-2,-6,-4,4,1,-6,-4,-14,-17,-25,-13,-11
-1,-6,-5,3,2,-6,-4,-15,-17,-25,-14,-11
0,-6,-6,2,3,-6,-4,-15,-17,-25,-14,-11
1,-5,-6,2,4,-6,-4,-15,-17,-25,-14,-11
0,-5,-5,3,3,-6,-4,-14,-17,-25,-14,-11
0,-5,-4,3,2,-6,-4,-14,-17,-24,-14,-11
-1,-6,-4,3,1,-6,-4,-14,-17,-25,-14,-12
-2,-6,-4,4,1,-6,-4,-14,-17,-25,-14,-13
-1,-6,-5,4,2,-6,-4,-14,-17,-25,-14,-13
0,-6,-6,3,3,-6,-4,-14,-17,-25,-14,-13
0,-6,-6,3,3,-6,-4,-14,-16,-24,-14,-13
1,-6,-6,3,3,-6,-3,-13,-16,-24,-13,-12
0,-7,-6,3,3,-6,-4,-13,-16,-24,-13,-12
1,-7,-6,3,4,-7,-4,-13,-16,-24,-13,-13
2,-6,-7,1,5,-7,-4,-13,-16,-24,-13,-13
4,-5,-9,0,7,-8,-4,-14,-16,-24,-13,-14
4,-6,-10,0,7,-8,-4,-14,-16,-24,-14,-14
2,-6,-8,1,6,-8,-4,-14,-15,-23,-13,-14
0,-6,-6,2,3,-6,-4,-12,-14,-22,-12,-13
-1,-6,-4,3,2,-5,-4,-11,-14,-21,-11,-12
-2,-7,-4,5,1,-5,-4,-11,-14,-22,-11,-12
-3,-8,-4,6,0,-6,-4,-11,-14,-22,-11,-12
-4,-8,-4,6,0,-7,-4,-11,-14,-22,-11,-12
-4,-8,-3,6,0,-6,-4,-11,-13,-22,-10,-12
-4,-7,-3,6,0,-5,-3,-10,-13,-21,-9,-11
-3,-7,-3,5,0,-5,-3,-10,-12,-20,-9,-11
-3,-8,-5,5,1,-6,-4,-10,-12,-20,-9,-11
-2,-8,-6,5,2,-7,-4,-10,-12,-20,-9,-11
0,-8,-8,4,4,-7,-4,-9,-12,-20,-8,-11
1,-8,-9,3,5,-8,-4,-9,-12,-20,-8,-11
2,-7,-9,2,5,-7,-4,-9,-12,-20,-8,-11
2,-6,-8,1,5,-7,-3,-8,-11,-19,-8,-10
2,-7,-8,2,4,-8,-3,-8,-11,-19,-8,-11
1,-7,-8,2,4,-8,-4,-8,-11,-19,-8,-11
2,-6,-9,2,5,-8,-4,-8,-11,-19,-8,-11
4,-6,-10,1,7,-9,-4,-8,-11,-20,-8,-12
4,-7,-12,1,8,-10,-5,-8,-12,-21,-9,-13
4,-9,-13,2,8,-11,-5,-9,-13,-22,-10,-14
1,-12,-13,5,7,-13,-6,-9,-13,-22,-10,-14
-1,-14,-12,7,5,-13,-6,-9,-13,-23,-11,-14
-2,-14,-11,8,4,-13,-6,-9,-13,-23,-10,-14
-1,-13,-12,7,5,-13,-6,-9,-13,-23,-10,-14
-1,-12,-11,6,5,-12,-6,-9,-13,-22,-10,-14
-2,-10,-9,6,4,-10,-5,-8,-11,-21,-9,-13
-1,-9,-8,5,3,-8,-4,-7,-10,-20,-8,-12
1,-7,-8,2,5,-8,-3,-6,-9,-20,-7,-11
4,-5,-9,0,7,-7,-3,-5,-9,-19,-7,-11
5,-4,-10,0,8,-7,-3,-5,-9,-19,-7,-11
5,-5,-10,0,8,-8,-3,-5,-9,-20,-8,-11
4,-5,-11,0,8,-8,-3,-5,-10,-20,-8,-12
3,-6,-11,1,8,-9,-4,-6,-10,-21,-9,-13
2,-7,-10,2,7,-9,-4,-7,-11,-22,-10,-13
1,-7,-9,3,5,-8,-4,-7,-11,-22,-9,-13
2,-6,-8,2,5,-8,-4,-6,-11,-22,-9,-13
4,-6,-10,0,6,-8,-3,-6,-11,-22,-9,-13
4,-6,-10,0,7,-8,-3,-6,-11,-22,-9,-13
2,-7,-9,2,5,-8,-3,-7,-11,-22,-9,-13
-1,-9,-8,5,3,-8,-3,-7,-11,-22,-10,-13
-3,-11,-8,7,2,-9,-3,-8,-12,-23,-10,-14
-2,-10,-8,6,3,-9,-3,-8,-12,-23,-10,-14
0,-8,-8,4,4,-9,-3,-7,-11,-23,-10,-14
2,-8,-9,3,5,-9,-3,-8,-12,-24,-11,-14
2,-9,-10,3,5,-10,-4,-9,-13,-25,-12,-15
1,-10,-10,4,5,-11,-4,-9,-14,-26,-13,-16
2,-9,-10,3,6,-10,-4,-9,-14,-26,-14,-16
3,-8,-10,2,7,-9,-3,-8,-13,-25,-13,-15
4,-6,-10,1,7,-8,-3,-8,-13,-25,-12,-14
4,-6,-10,1,8,-8,-3,-8,-13,-25,-13,-15
3,-7,-11,2,7,-9,-4,-8,-14,-26,-13,-15
2,-9,-11,3,6,-10,-5,-9,-15,-27,-14,-16
1,-10,-11,4,5,-10,-5,-10,-16,-28,-16,-17
1,-10,-11,4,6,-11,-5,-11,-16,-29,-16,-18
1,-10,-11,3,6,-10,-5,-11,-17,-29,-16,-18
0,-9,-9,3,5,-9,-5,-11,-17,-28,-16,-18
1,-8,-8,3,4,-9,-5,-11,-17,-28,-16,-18
1,-7,-8,3,4,-8,-5,-11,-17,-28,-17,-18
1,-7,-9,3,5,-9,-5,-11,-18,-29,-17,-19
2,-8,-10,3,5,-9,-5,-11,-18,-30,-18,-20
2,-9,-11,3,5,-10,-5,-12,-19,-30,-19,-21
1,-10,-10,4,5,-10,-5,-12,-20,-31,-19,-21
0,-10,-9,5,4,-10,-5,-12,-19,-30,-19,-21
-1,-11,-8,5,3,-9,-5,-12,-19,-30,-19,-20
-1,-11,-9,5,4,-10,-6,-12,-19,-30,-19,-20
0,-11,-10,5,6,-10,-7,-13,-20,-31,-19,-21
1,-11,-11,5,6,-11,-7,-13,-20,-31,-19,-21
0,-10,-11,5,5,-10,-7,-13,-20,-31,-19,-20
0,-9,-9,5,4,-9,-6,-12,-19,-30,-18,-19
0,-9,-9,5,3,-9,-5,-12,-19,-30,-18,-19
-1,-10,-8,6,3,-10,-5,-12,-19,-30,-18,-19
-2,-11,-8,7,3,-10,-5,-13,-19,-30,-18,-19
-1,-10,-8,6,4,-9,-5,-13,-19,-30,-18,-19
0,-9,-8,5,4,-9,-5,-13,-19,-30,-18,-20
0,-10,-9,6,4,-10,-5,-13,-20,-31,-19,-21
-1,-11,-10,6,4,-11,-6,-14,-21,-32,-20,-22
0,-12,-12,6,6,-13,-6,-15,-22,-33,-21,-23
1,-13,-13,5,7,-13,-7,-16,-23,-33,-21,-24
2,-12,-13,5,8,-13,-7,-16,-23,-33,-21,-24
1,-11,-12,5,7,-11,-6,-15,-22,-33,-21,-24
0,-12,-10,6,5,-11,-6,-15,-22,-32,-21,-24
-1,-12,-10,6,5,-11,-7,-16,-22,-32,-22,-24
1,-11,-12,5,6,-11,-7,-16,-23,-33,-22,-24
2,-10,-12,3,7,-11,-7,-16,-23,-33,-21,-24
2,-9,-11,3,6,-10,-7,-16,-23,-33,-21,-24
2,-9,-11,3,5,-10,-6,-15,-23,-33,-21,-24
2,-9,-11,3,6,-11,-6,-16,-23,-34,-21,-24
3,-9,-12,3,7,-11,-6,-16,-23,-34,-22,-24
3,-9,-11,3,7,-11,-6,-16,-23,-34,-21,-24
2,-9,-10,3,6,-10,-6,-15,-22,-33,-21,-23
0,-10,-9,4,5,-10,-6,-15,-22,-33,-21,-23
-1,-11,-9,5,4,-10,-6,-15,-22,-33,-21,-23
-2,-11,-9,6,3,-10,-7,-16,-22,-34,-21,-23
-2,-11,-9,6,3,-10,-7,-16,-22,-34,-21,-23
-1,-11,-10,5,4,-10,-6,-15,-22,-34,-20,-22
0,-10,-10,5,4,-10,-6,-15,-22,-34,-20,-22
1,-10,-10,4,5,-10,-6,-15,-22,-34,-20,-22
1,-11,-11,4,6,-11,-7,-15,-22,-34,-20,-22
1,-11,-11,5,6,-11,-7,-15,-21,-34,-20,-22
0,-11,-11,5,5,-11,-6,-15,-21,-33,-20,-22
0,-10,-11,5,5,-11,-6,-15,-21,-33,-20,-21
0,-10,-11,5,5,-11,-6,-15,-22,-34,-20,-22
0,-12,-12,6,5,-12,-6,-16,-23,-34,-20,-22
-1,-13,-11,7,4,-12,-7,-16,-23,-35,-21,-23
-3,-14,-10,8,3,-12,-7,-16,-23,-35,-21,-23
-3,-15,-10,9,3,-13,-7,-16,-23,-35,-21,-23
-3,-14,-10,9,3,-13,-7,-16,-23,-35,-21,-23
-2,-13,-10,8,4,-12,-7,-16,-23,-35,-21,-23
0,-12,-11,6,5,-12,-7,-17,-23,-35,-21,-23
1,-11,-12,5,6,-12,-6,-17,-23,-35,-21,-23
0,-12,-12,6,6,-12,-6,-17,-23,-35,-21,-23
0,-12,-12,7,5,-12,-6,-17,-23,-35,-21,-23
0,-12,-12,7,6,-12,-6,-17,-23,-35,-21,-23
0,-12,-12,7,6,-12,-6,-17,-23,-35,-21,-23
0,-12,-11,7,5,-12,-6,-17,-22,-35,-20,-23
0,-11,-10,6,5,-11,-6,-17,-22,-35,-20,-23
0,-10,-9,6,4,-10,-6,-17,-22,-35,-21,-23
-1,-10,-9,6,4,-9,-5,-17,-22,-34,-21,-23
-1,-10,-8,6,3,-9,-5,-16,-21,-34,-20,-23
-2,-11,-8,6,3,-10,-4,-16,-20,-34,-20,-23
-2,-12,-10,7,4,-11,-4,-16,-21,-34,-21,-24
-3,-14,-11,9,4,-13,-4,-16,-22,-35,-22,-25
-4,-16,-11,11,3,-14,-4,-16,-22,-35,-22,-26
-3,-16,-12,10,4,-14,-4,-16,-22,-35,-22,-26
1,-13,-13,6,7,-14,-4,-16,-21,-34,-22,-26
4,-11,-14,3,8,-13,-3,-15,-20,-34,-22,-26
3,-10,-13,4,7,-12,-3,-14,-19,-33,-21,-26
1,-9,-10,4,5,-10,-2,-13,-18,-32,-20,-25
1,-7,-8,3,4,-7,-1,-11,-16,-30,-19,-23
2,-5,-8,1,4,-6,-1,-10,-15,-30,-18,-23
4,-5,-9,0,6,-7,0,-10,-15,-30,-18,-22
5,-6,-11,0,8,-8,0,-9,-15,-29,-17,-22
3,-8,-10,2,6,-9,0,-9,-15,-29,-17,-22
0,-10,-9,5,4,-9,0,-8,-15,-29,-17,-22
0,-10,-9,5,4,-9,0,-8,-15,-29,-17,-21
1,-8,-9,3,5,-9,0,-8,-15,-29,-16,-21
2,-7,-8,2,5,-8,0,-9,-15,-28,-15,-20
1,-6,-7,2,4,-7,-1,-10,-15,-29,-15,-19
1,-7,-7,2,4,-7,-3,-12,-17,-30,-16,-20
0,-8,-8,4,4,-8,-4,-14,-19,-31,-17,-21
0,-9,-9,4,4,-10,-5,-16,-21,-33,-18,-22
2,-9,-11,3,6,-10,-6,-17,-22,-34,-19,-23
5,-8,-13,1,9,-11,-7,-18,-23,-35,-20,-24
5,-9,-14,1,10,-12,-8,-19,-23,-35,-21,-25
3,-9,-13,2,8,-12,-7,-18,-23,-35,-20,-24
1,-9,-11,4,6,-11,-7,-17,-22,-34,-20,-24
0,-10,-11,5,6,-11,-7,-17,-22,-34,-20,-24
1,-11,-12,5,6,-11,-7,-16,-22,-34,-19,-24
2,-10,-12,4,7,-11,-6,-16,-22,-33,-19,-23
3,-9,-13,3,8,-11,-6,-16,-21,-33,-18,-23
5,-9,-14,2,9,-11,-6,-16,-21,-33,-18,-23
5,-8,-14,1,9,-10,-6,-16,-21,-33,-18,-22
5,-7,-13,1,9,-10,-6,-16,-21,-33,-18,-22
5,-7,-13,1,9,-10,-6,-17,-22,-33,-18,-23
5,-7,-12,1,8,-10,-6,-17,-22,-33,-18,-23
3,-7,-10,1,6,-9,-5,-16,-21,-33,-18,-23
2,-7,-9,1,5,-8,-5,-16,-21,-33,-18,-23
1,-8,-9,3,4,-8,-5,-17,-22,-34,-19,-24
-1,-10,-8,5,3,-9,-5,-18,-23,-34,-19,-24
-4,-12,-8,7,1,-9,-5,-18,-23,-34,-20,-25
-6,-14,-8,10,0,-11,-5,-18,-23,-35,-21,-26
-7,-16,-9,11,0,-12,-5,-18,-24,-35,-22,-27
-5,-15,-10,10,1,-13,-5,-18,-24,-36,-23,-28
-2,-13,-11,8,3,-13,-5,-18,-24,-36,-23,-28
1,-11,-12,5,5,-12,-5,-19,-24,-36,-24,-29
3,-11,-13,4,7,-12,-6,-19,-24,-36,-24,-29
1,-12,-12,6,6,-13,-6,-20,-25,-37,-25,-30
-1,-14,-12,8,5,-13,-6,-20,-25,-37,-25,-30
-2,-16,-13,9,6,-14,-6,-21,-26,-38,-26,-31
-2,-16,-14,9,6,-15,-6,-21,-27,-38,-27,-31
-1,-16,-14,9,6,-15,-6,-21,-27,-38,-27,-31
-1,-14,-13,7,6,-14,-6,-20,-26,-38,-26,-30
-1,-13,-11,7,5,-13,-5,-20,-26,-37,-26,-29
-2,-13,-11,7,4,-13,-5,-20,-26,-37,-26,-29
-2,-13,-10,7,4,-13,-4,-19,-25,-36,-25,-28
-2,-12,-10,7,4,-11,-3,-18,-24,-35,-24,-27
-1,-12,-10,6,4,-10,-3,-18,-23,-34,-24,-27
0,-11,-11,6,5,-10,-3,-17,-23,-34,-24,-27
0,-11,-11,6,5,-10,-3,-17,-23,-34,-24,-27
-2,-11,-10,7,3,-10,-2,-17,-23,-34,-24,-28
-3,-13,-9,8,2,-11,-2,-17,-24,-35,-25,-28
-4,-14,-10,9,2,-12,-3,-18,-24,-35,-26,-29
-4,-15,-11,9,2,-13,-3,-18,-25,-36,-27,-30
-2,-14,-12,7,4,-13,-4,-18,-25,-36,-27,-30
1,-11,-12,5,6,-12,-4,-18,-24,-35,-27,-29
1,-11,-12,4,6,-11,-3,-18,-24,-35,-27,-29
0,-11,-11,5,6,-11,-3,-17,-23,-35,-27,-29
1,-11,-12,4,7,-11,-3,-17,-23,-35,-27,-30
3,-10,-14,3,9,-12,-3,-17,-23,-35,-28,-30
3,-11,-14,3,9,-12,-4,-17,-23,-35,-28,-30
0,-13,-12,5,6,-13,-4,-16,-22,-34,-27,-30
-3,-15,-11,8,4,-13,-3,-14,-21,-33,-26,-29
-4,-16,-11,9,3,-13,-2,-11,-20,-33,-26,-29
-4,-17,-12,10,4,-15,-1,-8,-19,-33,-26,-29
-4,-18,-14,11,5,-16,0,-5,-17,-33,-26,-30
-3,-18,-15,10,6,-16,0,-2,-15,-31,-26,-31
-1,-16,-15,9,7,-16,2,3,-12,-29,-26,-31
0,-14,-14,7,7,-14,6,10,-5,-25,-24,-30
0,-11,-11,5,5,-11,11,20,4,-19,-21,-29
0,-7,-6,4,3,-7,17,33,17,-10,-15,-25
0,-4,-3,2,2,-4,25,48,32,1,-7,-18
0,0,0,0,0,0,33,64,47,13,3,-9
0,5,6,-2,-2,5,40,78,62,28,17,3
1,13,12,-7,-5,13,43,88,75,45,36,22
6,25,19,-16,-6,22,43,93,86,65,61,46
11,41,30,-26,-9,35,41,92,94,87,91,76
14,59,44,-37,-15,52,35,83,99,111,124,111
16,79,63,-48,-23,71,26,64,100,135,159,148
17,100,83,-58,-32,91,13,37,95,156,192,185
18,118,101,-67,-41,110,-1,4,84,174,222,219
18,129,112,-73,-46,121,-15,-28,70,188,248,248
17,131,114,-74,-48,123,-26,-54,57,200,269,270
15,128,113,-71,-49,121,-32,-70,48,209,281,282
12,123,112,-68,-50,118,-37,-81,40,211,281,282
9,119,110,-64,-51,115,-42,-91,31,206,272,271
6,111,105,-59,-49,108,-44,-95,25,199,257,251
4,97,93,-51,-44,95,-44,-92,20,185,228,217
1,80,80,-41,-39,80,-41,-90,10,151,174,161
-3,64,69,-30,-36,67,-39,-89,-6,104,107,97
-7,51,59,-21,-33,55,-37,-87,-22,59,53,46
-8,40,50,-15,-30,45,-35,-84,-34,25,18,15
-9,33,43,-12,-26,38,-33,-81,-42,1,-4,-4
-9,29,38,-10,-24,33,-31,-78,-49,-16,-18,-15
-8,27,34,-9,-21,30,-29,-74,-53,-28,-25,-22
-8,25,32,-8,-19,28,-27,-69,-52,-32,-28,-24
-8,22,30,-6,-18,26,-25,-61,-48,-33,-27,-24
-7,19,27,-5,-17,23,-22,-52,-42,-32,-25,-23
-6,15,22,-4,-14,18,-19,-42,-35,-30,-23,-22
-5,11,17,-3,-11,14,-15,-33,-29,-28,-21,-21
-4,7,12,-1,-9,9,-11,-24,-23,-25,-19,-20
-4,4,8,0,-7,6,-8,-17,-18,-22,-17,-20
-3,1,4,0,-4,2,-5,-11,-13,-19,-16,-19
-2,-1,1,2,-1,0,-3,-5,-9,-17,-15,-19
-2,-3,0,3,0,-2,-1,-1,-6,-15,-14,-18
-3,-5,-1,5,0,-3,0,1,-4,-14,-14,-19
-3,-6,-3,6,0,-5,0,2,-3,-13,-14,-19
-2,-7,-4,6,1,-6,0,3,-3,-13,-14,-19
-2,-8,-5,6,1,-7,0,4,-3,-14,-14,-20
-2,-8,-6,5,2,-7,0,5,-3,-15,-15,-20
0,-8,-8,4,4,-8,0,6,-2,-16,-15,-21
2,-8,-10,3,6,-8,0,6,-2,-16,-16,-21
4,-8,-12,2,8,-9,0,6,-2,-16,-17,-22
4,-8,-12,2,9,-9,0,7,-2,-16,-17,-21
5,-6,-11,1,8,-8,1,9,0,-15,-16,-20
5,-5,-10,1,7,-8,2,10,0,-14,-15,-19
3,-6,-9,1,6,-8,3,10,1,-14,-15,-18
2,-6,-8,2,4,-8,3,11,2,-13,-14,-18
1,-7,-8,3,4,-8,4,11,2,-13,-14,-19
0,-8,-8,4,3,-8,4,11,2,-13,-15,-19
-1,-9,-9,5,3,-9,4,11,2,-13,-15,-19
0,-9,-10,5,4,-9,3,11,1,-13,-16,-20
1,-9,-10,4,5,-10,3,12,2,-13,-16,-20
1,-9,-9,4,5,-9,4,13,3,-12,-15,-19
1,-8,-9,4,5,-9,4,13,4,-11,-14,-18
1,-8,-9,4,5,-9,5,14,4,-10,-13,-18
1,-8,-9,4,4,-9,5,14,5,-9,-12,-17
0,-8,-8,4,3,-8,5,15,5,-8,-11,-17
-1,-8,-7,5,2,-8,6,15,6,-7,-10,-17
-1,-8,-7,5,3,-8,6,16,6,-7,-10,-17
-1,-8,-7,5,3,-8,6,16,7,-7,-10,-17
-1,-9,-7,5,2,-8,6,16,8,-6,-10,-17
0,-9,-9,5,3,-9,6,16,8,-7,-10,-18
0,-10,-11,5,5,-11,5,16,8,-7,-11,-18
0,-12,-12,6,5,-12,5,16,8,-7,-11,-19
-2,-13,-11,8,4,-12,5,17,8,-7,-10,-18
-6,-14,-9,10,1,-11,5,17,9,-6,-9,-17
-7,-14,-8,10,0,-11,5,18,10,-5,-8,-16
-5,-13,-8,9,1,-11,6,19,11,-4,-8,-15
-2,-10,-8,6,3,-10,6,19,12,-3,-7,-15
0,-9,-8,5,4,-9,7,20,13,-2,-7,-14
0,-8,-7,4,4,-8,7,21,15,-2,-6,-13
1,-6,-7,3,4,-6,8,22,16,-1,-4,-12
1,-6,-7,3,4,-6,8,23,17,0,-3,-11
0,-7,-7,4,3,-7,8,23,17,-1,-4,-12
0,-7,-8,4,4,-7,7,23,17,-1,-4,-11
2,-5,-8,2,5,-6,8,24,18,0,-3,-10
2,-4,-7,1,5,-6,9,25,19,1,-2,-9
0,-5,-6,3,3,-6,10,25,20,1,-1,-8
-1,-7,-6,4,3,-7,10,26,20,2,-1,-8
1,-7,-8,4,4,-8,9,26,20,2,-1,-9
4,-7,-12,2,7,-9,9,26,20,3,-1,-9
7,-7,-15,0,11,-10,8,26,20,2,-1,-9
10,-6,-17,-2,14,-11,8,26,20,2,-1,-10
11,-6,-18,-2,15,-12,8,26,21,2,-1,-10
8,-7,-15,0,12,-11,8,27,22,3,0,-9
3,-7,-10,2,7,-10,9,29,24,4,2,-7
2,-6,-8,2,5,-8,10,30,26,5,3,-6
2,-5,-7,2,4,-6,12,32,28,7,5,-4
2,-3,-5,1,3,-4,13,34,30,9,7,-3
2,-2,-5,1,3,-3,14,36,32,11,8,-2
2,-2,-5,0,4,-3,14,36,32,12,9,-1
2,-3,-7,1,5,-4,13,37,33,13,9,-1
3,-5,-8,1,6,-6,12,37,33,13,9,-1
4,-5,-9,0,7,-8,11,37,33,14,9,-1
6,-5,-10,0,8,-8,11,37,33,14,9,-2
6,-5,-11,0,8,-9,11,37,33,15,9,-2
3,-6,-10,1,6,-8,11,38,34,16,10,-2
0,-6,-7,3,3,-6,13,40,36,18,12,0
-1,-6,-4,4,1,-4,14,43,39,20,15,2
-2,-5,-2,4,0,-3,16,45,42,22,17,4
-1,-4,-2,3,0,-2,16,47,43,24,18,5
0,-3,-2,2,1,-3,16,47,43,25,18,5
0,-4,-3,2,1,-4,16,47,44,25,18,5
0,-5,-4,3,2,-5,15,47,44,26,19,5
1,-4,-5,1,3,-5,15,48,45,27,19,6
3,-2,-5,0,4,-3,15,49,46,28,21,6
3,-2,-5,0,4,-2,15,50,47,29,22,7
2,-2,-5,0,3,-2,14,50,48,29,22,7
3,-2,-5,0,3,-2,14,51,49,29,23,8
4,0,-4,-1,4,-2,15,53,51,31,25,10
3,1,-2,-2,2,0,16,54,53,32,27,12
2,1,0,-1,0,0,17,55,54,34,29,14
1,0,0,0,0,0,17,55,54,35,30,15
1,0,-1,0,1,-1,16,55,54,35,30,15
1,0,-1,0,1,0,16,56,55,36,31,15
2,1,-1,-2,2,1,16,57,57,38,33,17
4,4,-1,-3,2,2,16,58,58,40,35,19
5,5,0,-4,2,3,16,58,60,41,37,20
5,5,0,-4,2,2,16,58,60,41,37,21
5,5,0,-4,3,1,16,58,60,41,37,21
5,4,-1,-4,3,1,16,57,59,41,37,21
5,4,-1,-4,4,0,16,56,59,40,37,21
5,3,-2,-4,4,0,15,55,58,40,38,21
4,3,-2,-4,4,0,15,55,58,40,38,21
3,2,-1,-2,2,0,14,54,58,41,38,21
3,3,0,-2,2,1,13,53,58,41,39,21
5,6,0,-5,2,3,13,53,58,43,40,23
6,8,2,-6,2,4,13,53,58,44,40,24
6,8,2,-7,2,5,13,52,57,44,40,24
7,9,2,-8,3,5,13,50,57,44,40,24
8,10,2,-9,4,5,13,50,56,45,40,25
8,10,1,-9,4,5,12,49,56,45,41,25
8,9,0,-9,4,5,12,48,55,46,41,25
7,8,0,-8,4,4,11,47,54,45,41,26
7,7,0,-7,4,4,11,45,53,44,41,26
9,7,-2,-8,5,3,10,43,51,43,40,26
10,8,-2,-9,6,4,9,41,50,43,40,26
8,10,1,-8,4,6,9,40,50,44,41,28
5,10,5,-7,0,8,9,40,50,44,42,29
4,10,5,-6,0,7,8,39,49,43,42,29
6,9,2,-7,2,6,8,37,47,41,41,28
8,9,0,-8,4,4,7,35,45,39,40,27
6,8,1,-7,3,5,7,33,43,37,39,26
4,8,3,-6,1,5,7,30,41,35,37,25
4,7,3,-5,0,5,6,28,39,32,35,23
4,7,3,-5,1,5,6,26,37,30,33,22
4,6,2,-5,1,4,5,24,35,28,31,20
2,5,3,-3,0,4,4,22,33,26,29,19
2,4,2,-3,0,3,4,20,31,25,28,17
3,5,2,-4,1,3,4,19,29,23,26,16
3,5,2,-4,1,4,4,17,27,21,25,15
2,5,3,-4,0,4,4,15,26,19,23,14
0,5,5,-2,-2,4,4,14,24,17,22,13
-1,5,6,-2,-3,5,4,12,23,14,20,12
0,6,6,-3,-3,5,4,11,21,12,19,11
1,7,6,-3,-2,6,4,9,19,9,17,10
1,7,5,-3,-2,6,4,8,17,6,15,8
2,6,3,-3,0,5,4,6,15,4,13,6
3,4,1,-3,0,3,3,4,12,1,10,4
2,3,0,-2,0,2,2,1,9,-1,7,1
1,1,0,0,0,1,2,-1,7,-3,5,0
0,0,0,0,0,0,1,-2,6,-5,3,-1
0,1,0,0,0,0,1,-3,5,-6,2,-2
0,1,1,1,0,1,1,-4,4,-7,1,-3
-1,0,1,1,-1,1,1,-4,2,-9,0,-4
-2,0,1,1,-1,1,1,-5,1,-12,-2,-6
-2,0,1,2,-1,0,1,-7,-1,-15,-4,-7
-3,-1,0,2,-1,0,1,-8,-2,-17,-6,-9
-2,-1,0,2,-1,-1,1,-9,-3,-19,-7,-11
-1,0,0,1,0,-1,1,-9,-4,-21,-8,-12
0,1,0,0,0,0,1,-10,-4,-21,-9,-12
1,1,0,0,0,0,1,-10,-4,-21,-9,-12
0,0,-1,0,0,0,1,-10,-5,-21,-10,-13
0,-1,-1,1,0,-1,1,-11,-6,-22,-11,-14
-2,-1,0,2,-1,0,2,-11,-6,-22,-12,-15
-5,-2,1,4,-3,0,2,-11,-7,-22,-12,-15
-5,-2,1,4,-3,0,2,-11,-7,-22,-12,-15
-3,-1,1,2,-2,0,2,-11,-7,-22,-12,-15
-1,0,1,1,-1,1,2,-11,-7,-22,-12,-15
-1,0,1,1,-1,1,2,-10,-6,-22,-12,-14
-2,0,2,1,-2,1,2,-10,-6,-22,-12,-14
-3,0,2,2,-3,1,2,-9,-6,-22,-12,-14
-3,0,1,2,-2,0,3,-9,-6,-23,-12,-14
-2,0,1,1,-2,0,3,-9,-6,-23,-12,-15
-1,0,1,1,-2,1,3,-9,-6,-22,-12,-15
0,1,0,0,-1,1,3,-9,-6,-22,-12,-15
1,1,0,0,0,0,3,-9,-6,-22,-12,-15
1,0,0,0,0,0,3,-10,-6,-22,-13,-15
-1,-1,0,2,-1,-1,3,-10,-6,-23,-13,-16
-3,-3,-1,4,-1,-2,2,-11,-7,-24,-14,-17
-5,-6,-1,6,-2,-3,2,-11,-8,-24,-15,-18
-7,-6,0,6,-4,-2,2,-10,-7,-24,-14,-17
-5,-3,0,4,-3,-1,3,-9,-6,-23,-13,-16
-2,-2,0,2,-1,-1,3,-9,-5,-23,-13,-16
-2,-3,0,2,0,-2,3,-9,-5,-23,-13,-16
-2,-2,1,2,-1,-1,4,-8,-4,-22,-12,-15
-2,-1,1,1,-1,0,4,-7,-3,-20,-11,-15
-2,0,2,1,-1,0,4,-7,-3,-19,-11,-15
0,1,1,0,0,1,4,-6,-2,-18,-11,-15
1,2,0,-2,1,1,5,-6,-2,-17,-10,-14
1,2,0,-2,0,1,5,-5,-1,-17,-9,-14
-1,1,1,0,-1,1,5,-5,-1,-17,-9,-13
-2,0,1,1,-1,0,5,-5,-1,-17,-9,-13
-2,0,1,1,-1,0,5,-5,-1,-17,-9,-13
-2,-1,1,2,-1,0,4,-5,-1,-17,-9,-13
-2,-1,1,2,-1,0,4,-4,-1,-17,-8,-13
-2,0,2,1,-2,1,4,-4,0,-16,-8,-13
-4,0,3,2,-3,1,4,-4,0,-16,-8,-12
-5,0,4,3,-5,2,4,-4,0,-16,-8,-12
-7,-1,5,4,-6,2,4,-4,0,-15,-8,-12
-6,-1,5,4,-5,1,4,-4,0,-15,-8,-12
-4,0,4,2,-4,1,4,-3,1,-15,-7,-11
-2,1,3,1,-2,1,5,-3,1,-14,-7,-11
-2,1,2,1,-2,1,5,-2,1,-14,-7,-11
-2,0,2,1,-2,1,5,-2,1,-15,-7,-12
-2,0,1,1,-2,1,5,-3,0,-15,-7,-12
-2,0,1,0,-2,0,5,-3,0,-16,-7,-12
-2,1,1,0,-2,1,5,-2,1,-15,-7,-12
-2,0,2,1,-2,1,5,-2,1,-15,-7,-12
-2,0,1,1,-2,0,5,-2,0,-15,-8,-12
-2,-1,0,2,-1,-1,4,-2,0,-16,-9,-13
-2,-2,0,2,0,-1,4,-3,-1,-16,-9,-14
-3,-1,1,2,-1,0,4,-2,0,-15,-9,-14
-3,0,2,1,-2,1,5,-2,0,-15,-8,-14
-2,1,2,0,-2,1,5,-2,0,-15,-8,-14
-1,1,2,0,-2,1,5,-2,-1,-15,-9,-15
0,2,0,-1,0,1,4,-3,-2,-16,-10,-15
2,2,-1,-1,1,0,4,-3,-2,-17,-11,-16
1,1,0,-1,1,0,4,-3,-2,-18,-11,-16
2,1,-1,-1,1,0,4,-3,-2,-18,-11,-16
2,1,-1,-1,1,0,4,-3,-3,-18,-12,-16
0,0,0,0,0,0,4,-4,-3,-19,-12,-16
-2,-1,0,1,-1,0,4,-4,-3,-19,-11,-16
-2,0,1,1,-2,0,4,-3,-3,-19,-11,-15
-4,1,4,1,-4,3,5,-2,-3,-19,-10,-14
-5,2,6,1,-5,4,6,-2,-3,-19,-10,-13
-4,2,6,1,-5,5,6,-2,-4,-20,-10,-13
-3,2,6,1,-4,4,5,-2,-4,-21,-10,-13
-4,0,5,2,-4,2,4,-3,-5,-22,-11,-14
-3,0,3,1,-3,1,4,-3,-5,-22,-11,-14
-1,0,2,0,-1,1,3,-3,-6,-23,-12,-14
0,0,0,0,0,0,3,-4,-7,-24,-13,-15
1,0,-2,-1,1,-1,2,-5,-8,-25,-14,-17
2,0,-2,-1,2,-1,1,-6,-8,-26,-15,-17
2,2,0,-2,1,0,2,-5,-8,-26,-14,-17
0,2,1,-1,0,1,2,-5,-8,-27,-14,-16
0,2,2,0,-1,2,2,-5,-8,-27,-14,-16
0,2,2,-1,0,1,2,-5,-8,-27,-14,-17
2,1,0,-1,0,0,2,-5,-9,-27,-15,-17
2,1,-1,-1,1,0,2,-6,-9,-28,-15,-18
1,0,-1,0,1,0,1,-6,-10,-29,-16,-19
-1,0,0,1,-1,0,1,-7,-10,-29,-17,-19
-4,-1,2,2,-3,1,1,-7,-11,-30,-17,-19
-5,-1,3,3,-4,1,1,-7,-11,-30,-17,-18
-5,-2,3,4,-4,0,0,-7,-11,-30,-17,-18
-4,-2,2,4,-3,0,0,-7,-11,-30,-17,-18
-3,-1,2,3,-3,0,1,-7,-11,-30,-17,-18
-2,0,2,2,-3,1,1,-7,-11,-30,-17,-18
-3,-1,2,3,-3,1,0,-8,-12,-30,-17,-18
-3,-1,1,3,-3,0,0,-8,-13,-31,-17,-19
-2,0,1,2,-2,0,0,-8,-13,-31,-18,-19
-2,1,2,1,-2,1,0,-8,-13,-30,-18,-20
-2,1,2,1,-2,1,0,-8,-13,-30,-18,-20
-1,1,3,1,-2,2,0,-8,-13,-29,-18,-20
-1,1,3,0,-2,2,0,-8,-13,-29,-18,-20
-1,1,3,1,-2,2,0,-8,-13,-28,-18,-20
-1,0,2,1,-2,2,0,-8,-13,-28,-18,-21
0,0,1,0,0,1,0,-8,-14,-28,-18,-21
1,0,0,-1,1,0,0,-9,-14,-29,-19,-22
1,-1,-1,0,2,-1,0,-10,-15,-30,-20,-22
0,-2,-2,1,2,-2,-1,-11,-16,-32,-21,-23
0,-3,-2,2,2,-3,-1,-11,-17,-32,-21,-24
0,-3,-2,2,2,-3,-1,-12,-17,-33,-21,-24
0,-4,-3,2,2,-4,-2,-12,-18,-33,-22,-25
0,-4,-4,2,2,-5,-2,-13,-18,-34,-22,-25
1,-4,-5,1,3,-5,-2,-12,-18,-34,-22,-25
1,-3,-4,0,2,-4,-1,-12,-18,-34,-22,-24
0,-2,-2,1,0,-3,0,-11,-17,-33,-21,-24
-2,-3,-1,3,0,-3,0,-12,-17,-34,-21,-24
-4,-5,0,5,-1,-3,-1,-12,-18,-34,-21,-24
-6,-5,0,6,-2,-3,-1,-12,-18,-34,-21,-24
-5,-3,1,5,-2,-1,-1,-11,-17,-33,-21,-23
-4,-2,2,4,-2,0,-1,-11,-17,-33,-21,-23
-3,-1,2,3,-2,0,0,-10,-17,-33,-21,-23
-2,0,2,1,-2,0,0,-10,-16,-33,-21,-23
-1,0,1,0,-1,0,0,-10,-16,-33,-21,-23
-1,0,0,0,0,-1,0,-11,-17,-33,-21,-23
-1,-1,-1,1,0,-1,-1,-11,-18,-33,-21,-23
-2,-2,-1,2,0,-2,-1,-11,-18,-33,-21,-23
-3,-3,0,4,-1,-2,-1,-11,-18,-34,-21,-24
-6,-5,0,7,-3,-2,-1,-11,-18,-34,-22,-24
-7,-7,0,8,-4,-3,-1,-11,-18,-35,-22,-24
-6,-7,-1,7,-3,-3,-1,-11,-18,-35,-22,-24
-3,-3,0,3,-1,-2,0,-11,-17,-34,-22,-23
-2,0,0,1,-1,-1,0,-10,-17,-34,-21,-22
-2,-1,0,1,-1,-1,0,-10,-16,-33,-20,-22
-2,-1,0,1,0,-1,1,-10,-16,-33,-20,-21
-1,-2,-1,1,0,-2,1,-9,-16,-33,-20,-21
0,-2,-2,1,1,-2,1,-9,-16,-33,-20,-21
0,-1,-2,1,1,-1,1,-9,-15,-33,-20,-22
0,-1,-2,0,1,-1,1,-9,-15,-33,-20,-22
0,0,-2,0,1,-1,1,-9,-15,-33,-20,-22
1,0,-2,-1,1,-1,1,-9,-15,-33,-20,-21
1,0,-2,-1,2,-1,1,-9,-15,-33,-20,-21
1,0,-3,-1,2,-2,1,-9,-14,-33,-20,-21
0,-1,-3,0,2,-2,1,-8,-14,-32,-20,-21
1,0,-3,0,2,-1,1,-7,-13,-32,-19,-20
1,0,-3,0,2,-1,2,-7,-13,-31,-19,-19
0,-1,-3,1,1,-2,1,-7,-13,-31,-19,-19
-1,-2,-3,1,0,-2,1,-7,-13,-31,-19,-20
0,-2,-3,0,1,-2,1,-7,-13,-31,-19,-20
1,0,-2,-1,1,-1,1,-7,-12,-31,-19,-19
2,1,-2,-2,2,0,0,-8,-12,-31,-18,-19
4,3,-2,-3,2,0,0,-9,-13,-32,-19,-19
5,4,-1,-4,3,1,-1,-11,-14,-32,-19,-19
4,4,0,-4,1,2,-1,-11,-15,-31,-19,-19
2,4,2,-2,0,3,-1,-12,-15,-30,-18,-18
1,4,3,-2,-1,3,-1,-12,-15,-30,-18,-18
0,3,4,-1,-2,3,-1,-12,-15,-29,-18,-18
-1,2,3,0,-3,2,-2,-13,-16,-29,-18,-18
-1,1,2,0,-2,1,-3,-13,-16,-30,-19,-19
0,2,1,-1,0,1,-3,-13,-16,-30,-19,-18
2,1,-1,-1,1,0,-4,-13,-17,-30,-19,-18
1,0,-2,0,2,-1,-4,-14,-18,-30,-19,-18
0,-1,-1,0,1,-1,-4,-14,-18,-30,-19,-18
0,-1,-2,0,1,-1,-4,-14,-18,-31,-19,-18
1,-1,-3,0,2,-2,-5,-14,-18,-32,-19,-19
1,-1,-4,0,2,-3,-5,-14,-18,-33,-20,-19
1,-1,-3,0,2,-2,-5,-14,-18,-33,-20,-19
1,0,-2,0,1,-1,-4,-13,-17,-32,-20,-18
0,0,0,0,0,0,-4,-13,-17,-32,-20,-17
0,0,0,0,0,0,-4,-13,-17,-32,-20,-17
-1,0,1,1,-1,0,-4,-13,-18,-33,-21,-18
-2,-1,1,2,-1,-1,-4,-14,-19,-34,-22,-19
-3,-2,0,3,-2,-1,-4,-14,-20,-35,-24,-20
-2,-3,0,3,-1,-2,-4,-15,-20,-36,-25,-21
-1,-2,-1,2,0,-2,-4,-15,-20,-36,-25,-21
-1,-1,-1,1,0,-1,-4,-14,-20,-36,-24,-20
-1,-1,-1,1,0,-1,-4,-14,-20,-36,-24,-20
-1,-2,-1,1,0,-2,-4,-14,-20,-36,-25,-20
0,-2,-3,1,2,-3,-4,-15,-21,-37,-25,-21
3,-2,-5,0,4,-4,-4,-15,-21,-37,-26,-22
4,-3,-7,0,6,-5,-4,-16,-22,-38,-26,-23
4,-4,-8,0,6,-6,-5,-16,-23,-38,-27,-23
3,-4,-7,0,5,-5,-5,-16,-22,-37,-27,-22
0,-2,-4,1,2,-3,-4,-15,-22,-36,-26,-21
-1,-2,-2,2,0,-3,-4,-15,-22,-35,-26,-21
-2,-4,-2,3,0,-4,-4,-16,-22,-36,-26,-22
-2,-5,-2,3,0,-4,-4,-16,-22,-35,-26,-22
-1,-3,-2,2,0,-3,-3,-15,-22,-34,-25,-21
0,-2,-1,1,0,-2,-3,-14,-21,-33,-24,-20
-2,-2,0,2,-1,-2,-3,-14,-21,-33,-24,-20
-5,-4,1,5,-3,-2,-3,-14,-21,-33,-25,-20
-7,-5,1,6,-4,-2,-3,-14,-21,-33,-25,-20
-6,-6,0,6,-3,-3,-3,-14,-21,-33,-26,-20
-5,-6,-1,6,-2,-4,-3,-14,-22,-33,-26,-21
-2,-4,-1,3,0,-3,-3,-14,-22,-33,-26,-21
1,-2,-2,1,2,-3,-3,-14,-22,-33,-26,-21
1,-3,-4,0,3,-4,-4,-15,-22,-33,-27,-22
0,-5,-5,2,3,-6,-5,-16,-24,-34,-28,-23
-3,-8,-5,5,2,-7,-6,-16,-24,-35,-28,-24
-6,-8,-3,7,-1,-6,-5,-16,-24,-34,-28,-23
-8,-8,-1,8,-3,-4,-5,-16,-23,-34,-27,-22
-7,-6,0,6,-3,-3,-4,-15,-23,-33,-27,-22
-3,-4,-1,3,-1,-2,-4,-15,-22,-32,-26,-21
-1,-2,-1,1,0,-1,-4,-14,-22,-31,-25,-20
0,-1,-1,0,0,-1,-3,-14,-21,-30,-24,-20
0,-2,-1,0,0,-2,-3,-13,-21,-30,-24,-20
0,-3,-3,1,1,-3,-3,-12,-21,-30,-24,-20
1,-4,-6,1,3,-5,-3,-11,-21,-30,-25,-21
1,-7,-10,2,5,-8,-3,-10,-21,-31,-26,-23
0,-10,-12,4,6,-10,-3,-8,-20,-32,-27,-24
0,-12,-12,6,6,-12,-3,-5,-18,-31,-27,-25
-1,-12,-11,6,5,-11,-1,-1,-14,-28,-26,-24
-1,-10,-8,5,3,-9,2,6,-7,-23,-23,-22
-1,-5,-3,3,1,-5,8,16,2,-15,-17,-19
-1,0,1,1,-1,0,15,29,15,-5,-10,-13
-1,4,4,-1,-2,4,22,44,30,6,-1,-6
0,6,5,-2,-3,6,30,59,45,19,9,2
0,10,9,-5,-4,9,37,74,61,34,23,15
2,17,14,-10,-6,16,42,86,76,52,41,32
6,27,21,-17,-7,24,43,93,88,71,64,53
8,39,31,-23,-11,35,41,93,98,92,90,80
9,53,44,-31,-17,49,36,84,103,114,119,111
12,73,61,-42,-24,67,27,67,103,136,150,145
14,94,80,-53,-32,87,17,43,98,155,180,178
15,113,97,-64,-40,105,4,13,88,172,206,209
16,124,107,-70,-45,116,-9,-17,74,184,228,234
15,125,109,-70,-47,117,-19,-42,61,194,244,251
12,118,106,-66,-47,112,-25,-57,53,202,254,260
10,111,101,-61,-46,106,-29,-65,46,206,256,260
9,105,97,-57,-44,101,-34,-71,39,203,250,251
7,100,93,-53,-43,96,-37,-76,33,197,236,233
5,90,85,-47,-40,87,-37,-75,28,182,207,199
2,77,74,-39,-36,75,-34,-73,19,149,155,145
0,65,64,-32,-33,65,-30,-73,4,104,94,86
-5,55,58,-25,-32,57,-28,-74,-12,61,46,43
-8,47,55,-19,-31,51,-27,-74,-26,26,13,15
-11,40,51,-14,-31,46,-27,-74,-37,1,-7,-2
-12,35,49,-11,-30,42,-27,-74,-45,-16,-19,-12
-13,31,46,-9,-29,39,-27,-74,-50,-27,-26,-17
-13,29,43,-8,-28,37,-26,-71,-52,-33,-28,-19
-12,28,40,-8,-25,35,-26,-66,-49,-34,-28,-19
-10,26,34,-8,-22,30,-25,-60,-46,-33,-26,-18
-7,22,27,-8,-17,25,-24,-53,-42,-33,-25,-19
-5,17,21,-6,-13,19,-21,-46,-38,-32,-24,-19
-4,12,16,-5,-10,14,-18,-38,-33,-29,-22,-18
-4,9,13,-4,-8,11,-14,-30,-27,-26,-20,-16
-4,7,12,-2,-8,9,-10,-23,-21,-22,-18,-15
-5,3,10,0,-8,6,-8,-17,-16,-19,-17,-15
-7,-1,6,4,-7,2,-6,-12,-13,-18,-16,-15
-6,-3,2,4,-4,0,-6,-9,-11,-17,-16,-15
-2,-2,-1,2,0,-1,-5,-7,-10,-16,-15,-15
1,-1,-3,-1,2,-1,-5,-5,-9,-16,-15,-15
1,-1,-3,-1,2,-2,-4,-4,-8,-16,-15,-15
0,-3,-2,1,1,-3,-3,-3,-8,-16,-16,-15
-2,-5,-2,3,0,-4,-2,-2,-7,-15,-16,-15
-1,-4,-2,2,0,-3,-1,0,-6,-14,-15,-15
0,-3,-3,1,1,-3,0,0,-5,-14,-15,-14
-1,-2,-3,1,1,-2,0,1,-4,-13,-14,-13
-3,-3,-2,3,0,-2,0,2,-4,-13,-13,-12
-3,-3,-2,3,0,-2,0,2,-4,-12,-13,-12
-2,-4,-3,2,1,-3,0,2,-4,-12,-13,-12
0,-4,-5,2,2,-5,-1,2,-4,-12,-13,-12
2,-5,-7,1,4,-6,-1,3,-4,-12,-14,-12
3,-5,-8,0,5,-6,-1,3,-3,-12,-14,-12
1,-6,-7,2,4,-6,-1,3,-3,-11,-14,-12
0,-6,-5,3,3,-5,-1,4,-2,-10,-13,-12
-1,-6,-5,3,2,-5,-1,4,-2,-10,-12,-12
