leadI,leadII,leadIII,leadaVR,leadaVL,leadaVF,leadV1,leadV2,leadV3,leadV4,leadV5,leadV6
-1,-1,0,1,0,-1,1,0,0,-1,-5,0
-4,-4,0,4,-1,-2,2,0,-1,-2,-12,-1
-4,-5,-1,4,-1,-3,2,-1,-2,-2,-16,-2
-2,-5,-3,4,0,-4,0,-2,-3,-3,-18,-3
0,-4,-4,3,1,-4,0,-3,-4,-3,-18,-4
0,-4,-4,2,2,-4,1,-3,-3,-1,-16,-4
0,-4,-4,2,2,-4,2,-2,-2,0,-14,-4
0,-5,-4,3,2,-4,3,-1,-1,1,-11,-4
0,-5,-4,3,2,-5,3,-1,-1,2,-8,-4
-1,-5,-4,3,2,-5,2,-1,-1,2,-6,-4
-2,-5,-3,4,1,-4,2,-1,-2,2,-4,-4
-3,-5,-1,4,-1,-3,2,-1,-2,3,-3,-3
-4,-4,0,4,-2,-1,1,-1,-2,5,-1,-2
-3,-4,1,3,-2,-1,0,0,-2,5,0,-2
-2,-3,1,2,-1,0,0,-1,-2,6,0,-1
-1,-1,1,1,0,0,-2,-1,-2,6,1,-1
0,0,1,0,0,0,-2,-1,-2,5,2,0
-1,0,2,0,-1,1,-2,0,-2,6,3,0
-2,1,3,0,-2,2,-4,0,-1,7,5,1
-1,1,2,0,-2,2,-6,0,0,8,5,2
-1,0,1,0,-1,1,-7,0,0,6,4,1
-1,-1,0,1,0,0,-8,0,0,4,2,1
-1,-2,-1,2,0,-1,-8,0,1,3,2,1
0,-2,-2,1,1,-2,-8,0,1,2,2,1
0,-3,-2,2,1,-3,-8,0,1,2,2,1
-1,-3,-2,2,0,-3,-8,0,2,2,2,1
-1,-3,-1,2,0,-2,-7,1,3,2,3,1
0,-2,-2,1,1,-2,-6,1,3,2,3,1
3,-1,-4,0,3,-2,-6,1,2,2,3,1
3,0,-3,-1,3,-1,-6,1,2,2,4,2
2,1,0,-1,1,1,-6,2,3,3,6,3
0,2,2,-1,0,2,-5,2,4,2,6,4
0,1,1,0,0,1,-5,1,3,1,6,3
1,0,0,-1,1,0,-5,0,2,0,5,2
2,0,-2,-1,2,-1,-6,0,2,-1,4,1
2,0,-2,-1,2,-1,-5,0,2,-2,3,1
1,0,-1,0,1,0,-4,0,3,-2,2,2
1,-1,-2,0,1,-1,-4,1,3,-1,-2,2
1,-3,-3,1,2,-3,-3,1,3,-1,-7,2
1,-4,-4,1,2,-4,-3,2,3,0,-11,3
1,-4,-3,1,2,-4,-2,2,3,0,-14,3
2,-2,-3,0,2,-3,-1,2,3,0,-17,3
4,0,-3,-1,3,-2,-1,2,3,0,-20,3
6,2,-3,-3,4,-1,-1,2,4,0,-22,3
4,3,-1,-3,2,0,0,3,4,0,-23,3
0,2,2,0,-1,1,1,3,4,0,-24,4
-1,1,2,0,-2,1,0,2,4,-2,-25,3
1,1,0,-1,0,0,0,1,3,-4,-27,3
4,2,-1,-2,3,0,1,1,2,-5,-28,2
5,3,-1,-4,3,1,1,2,3,-4,-29,3
4,4,0,-3,2,2,1,2,4,-3,-29,4
1,3,1,-2,0,2,1,2,4,-2,-29,4
1,2,1,-1,0,1,0,2,2,-3,-30,4
2,1,-2,-2,2,0,0,1,2,-5,-31,3
4,0,-5,-2,4,-2,0,1,1,-7,-33,2
3,-1,-5,-1,3,-3,0,1,2,-7,-34,2
1,-1,-3,0,2,-2,1,1,2,-7,-34,2
0,-1,-2,0,1,-2,1,1,3,-6,-33,3
0,0,0,0,0,0,1,1,3,-5,-33,3
0,2,1,-1,0,1,2,1,4,-4,-32,4
1,3,1,-2,0,2,3,2,4,-3,-32,4
4,6,1,-5,1,4,5,2,5,-3,-32,5
5,9,2,-7,1,6,6,2,6,-2,-31,6
5,10,4,-7,0,7,7,3,7,-2,-30,7
5,9,4,-7,1,6,7,3,9,-2,-31,7
6,7,1,-6,2,4,7,3,10,-3,-31,6
7,6,-1,-6,4,2,7,4,12,-2,-31,6
7,6,-1,-6,4,2,8,4,13,0,-29,6
7,6,-1,-6,4,2,8,4,12,1,-27,7
6,6,0,-5,3,2,9,4,9,0,-27,6
5,5,0,-5,2,2,10,5,7,0,-26,6
6,6,0,-6,3,2,11,5,6,0,-25,6
8,7,-1,-7,4,3,11,5,6,-1,-25,6
10,9,0,-9,4,4,11,5,5,-2,-25,7
10,11,2,-10,3,6,11,5,4,-2,-25,7
7,12,6,-9,0,8,12,5,4,-1,-24,8
5,11,7,-8,-1,8,12,5,4,-1,-24,9
6,11,5,-8,0,7,11,5,4,-1,-25,9
8,11,3,-9,2,7,11,5,4,-1,-24,9
10,12,2,-11,3,7,10,5,4,0,-23,9
12,14,3,-12,4,8,10,4,3,-1,-22,10
12,15,4,-13,3,9,10,4,3,-1,-22,10
12,15,4,-13,3,9,9,4,3,-1,-22,10
12,14,4,-12,4,8,9,4,3,-1,-22,10
10,14,4,-11,3,8,8,4,3,-1,-21,10
8,14,5,-11,2,9,8,4,4,0,-20,10
9,14,5,-11,2,9,8,5,5,1,-19,11
9,15,5,-12,2,10,7,5,5,2,-19,11
9,15,5,-11,2,10,6,4,4,1,-20,10
9,14,5,-11,2,10,6,4,4,0,-20,10
12,14,2,-12,5,8,5,3,3,0,-22,9
13,12,-1,-12,7,5,5,2,2,-2,-26,8
11,10,-1,-10,5,4,5,1,1,-3,-28,7
9,9,0,-8,4,4,5,1,1,-4,-30,7
8,7,-1,-7,4,3,4,1,0,-5,-31,6
7,5,-2,-6,4,1,5,1,0,-5,-32,5
4,4,0,-4,2,1,6,2,0,-5,-32,5
3,3,1,-3,1,2,8,3,0,-5,-31,6
5,4,0,-4,3,1,8,2,0,-6,-31,6
7,5,-2,-5,5,1,7,1,-2,-7,-32,5
8,4,-3,-5,5,0,7,0,-3,-8,-33,4
8,4,-3,-5,5,0,7,0,-4,-9,-33,3
9,4,-4,-6,6,0,8,0,-4,-10,-34,3
9,4,-5,-6,7,-1,8,0,-5,-11,-34,3
8,5,-4,-6,6,0,9,1,-4,-11,-33,3
6,5,-2,-5,4,1,10,2,-4,-10,-33,4
6,4,-1,-5,4,1,10,2,-4,-11,-33,4
6,4,-2,-5,4,0,9,2,-4,-11,-34,3
5,4,-1,-4,3,0,9,2,-3,-9,-35,3
4,3,-1,-2,3,0,9,2,-3,-8,-34,3
5,2,-3,-3,4,-1,10,1,-3,-9,-34,3
6,2,-5,-3,6,-2,9,1,-4,-10,-35,2
6,0,-7,-3,7,-3,10,0,-5,-12,-36,1
5,0,-6,-2,6,-3,11,0,-5,-12,-35,1
4,-1,-5,-1,4,-3,12,1,-5,-12,-34,1
3,-1,-4,-1,3,-2,12,1,-4,-12,-32,1
4,0,-3,-1,3,-1,13,2,-4,-11,-30,2
5,1,-3,-3,4,-1,13,2,-5,-11,-27,2
6,0,-5,-3,5,-2,13,1,-6,-11,-26,1
5,0,-5,-2,5,-2,13,0,-6,-12,-25,1
5,0,-4,-2,5,-2,13,0,-5,-12,-24,0
6,1,-5,-4,6,-2,12,0,-4,-12,-23,0
7,2,-6,-5,6,-2,12,0,-4,-12,-22,0
6,3,-3,-4,4,0,13,0,-4,-11,-20,1
4,3,-1,-3,2,0,14,1,-4,-11,-19,2
4,2,-2,-3,3,0,14,1,-6,-11,-18,1
5,1,-5,-3,5,-2,14,1,-7,-12,-17,1
7,1,-6,-4,6,-3,14,1,-8,-13,-16,1
8,2,-7,-5,7,-2,15,1,-9,-13,-15,1
9,2,-7,-5,7,-2,15,1,-10,-14,-15,0
8,2,-6,-5,6,-2,15,1,-10,-14,-14,0
5,2,-3,-4,4,0,15,1,-10,-14,-12,0
3,2,-1,-3,2,0,16,1,-10,-12,-11,0
2,2,0,-2,0,1,17,1,-8,-10,-8,0
1,2,0,-1,0,1,18,3,-5,-7,-5,1
2,2,0,-2,1,1,19,6,-1,-3,-2,2
5,4,-1,-4,2,1,20,11,4,3,1,4
6,5,-1,-6,3,2,23,18,12,10,6,6
7,5,-2,-6,4,1,24,27,22,18,11,9
10,5,-5,-7,7,0,24,36,35,27,17,12
15,7,-7,-10,11,-1,24,44,47,38,23,16
20,9,-10,-14,15,-1,22,52,59,48,30,20
27,12,-14,-19,20,-1,21,59,71,58,37,24
34,16,-18,-25,26,-1,20,67,81,68,44,29
42,20,-23,-31,32,-1,18,72,90,76,50,34
48,25,-24,-36,36,0,12,74,95,83,57,40
52,30,-22,-40,37,3,4,69,95,86,63,46
58,33,-25,-45,42,4,-6,59,87,80,62,47
64,33,-31,-49,48,1,-16,44,72,67,55,44
65,31,-34,-48,50,-1,-23,25,50,48,43,37
58,26,-32,-42,46,-2,-28,0,22,25,30,29
50,20,-30,-35,40,-4,-33,-27,-10,-1,14,20
42,13,-29,-27,35,-7,-38,-53,-41,-28,-2,10
34,6,-28,-20,31,-11,-42,-72,-65,-52,-16,0
26,-1,-28,-12,27,-15,-44,-84,-81,-71,-27,-8
19,-9,-28,-5,24,-19,-43,-89,-89,-84,-37,-15
13,-15,-28,0,21,-22,-42,-88,-91,-91,-43,-20
9,-18,-27,5,18,-23,-39,-84,-88,-94,-46,-23
5,-19,-24,7,15,-23,-36,-78,-82,-94,-46,-25
3,-18,-22,8,12,-21,-32,-69,-74,-91,-44,-25
3,-16,-20,7,11,-18,-26,-60,-65,-86,-41,-24
3,-13,-17,5,9,-15,-20,-49,-54,-79,-37,-21
1,-10,-13,4,7,-11,-16,-39,-44,-72,-31,-18
0,-8,-8,4,3,-8,-13,-30,-34,-66,-26,-14
-2,-7,-5,5,1,-6,-12,-23,-27,-61,-22,-12
-1,-6,-4,4,1,-5,-11,-18,-21,-57,-19,-9
1,-4,-4,2,2,-4,-10,-13,-17,-54,-16,-7
2,-2,-3,0,2,-3,-9,-9,-13,-50,-12,-5
3,0,-3,-1,2,-1,-9,-6,-10,-47,-9,-3
4,2,-3,-2,3,-1,-9,-4,-8,-45,-7,-2
6,2,-4,-3,4,-1,-11,-3,-7,-43,-6,-1
8,3,-5,-5,6,-1,-11,0,-5,-41,-5,-1
8,3,-5,-5,6,-1,-12,1,-2,-38,-3,0
7,2,-5,-4,6,-1,-12,2,-1,-37,-2,0
5,1,-5,-3,6,-2,-13,3,-1,-38,-2,-1
6,1,-5,-4,6,-2,-13,3,-1,-38,-1,-1
7,2,-6,-5,7,-2,-12,3,0,-37,0,0
9,3,-7,-5,8,-2,-12,4,0,-35,1,0
9,3,-6,-5,7,-1,-12,5,0,-34,3,0
8,3,-5,-5,6,-1,-12,7,1,-34,4,1
7,3,-5,-4,6,-1,-12,8,1,-33,5,1
8,2,-6,-4,7,-2,-11,8,2,-33,7,2
7,2,-6,-4,7,-2,-10,8,2,-33,8,2
6,1,-6,-3,6,-2,-9,8,2,-33,9,2
7,2,-6,-4,7,-1,-8,8,2,-33,10,2
9,4,-6,-6,7,0,-6,9,2,-32,11,3
9,4,-5,-6,7,0,-4,9,2,-31,13,4
8,2,-6,-5,7,-1,-3,9,2,-31,14,4
8,1,-6,-4,7,-2,-2,9,1,-31,15,4
8,2,-7,-5,8,-2,-1,9,1,-30,16,4
10,2,-8,-5,9,-3,0,9,1,-30,17,4
10,2,-9,-6,10,-3,0,9,0,-30,18,3
10,2,-8,-6,10,-2,0,9,0,-30,19,3
10,2,-8,-6,9,-2,0,9,0,-30,21,3
10,2,-8,-6,9,-3,0,9,0,-29,22,3
12,3,-8,-7,10,-3,1,9,0,-28,24,3
14,5,-8,-9,11,-2,2,10,0,-28,25,3
13,5,-7,-9,10,-1,3,10,0,-27,26,4
10,5,-5,-7,8,0,3,11,0,-27,27,5
10,5,-5,-7,7,0,3,12,1,-26,28,5
11,4,-8,-7,10,-2,4,13,1,-27,28,5
13,2,-11,-7,12,-4,4,13,1,-27,28,4
13,2,-12,-7,13,-5,4,13,1,-26,29,4
13,2,-11,-7,12,-4,4,14,2,-26,29,4
11,3,-8,-6,10,-2,5,14,2,-26,29,5
10,3,-7,-6,9,-2,5,14,2,-26,29,5
10,3,-7,-6,9,-2,5,14,2,-27,28,5
11,4,-8,-7,9,-2,6,15,2,-27,28,5
12,5,-9,-8,10,-2,6,16,2,-27,28,5
12,6,-8,-8,10,-1,6,17,2,-27,28,6
12,6,-6,-9,9,0,7,18,2,-26,28,6
12,6,-6,-9,9,0,7,18,2,-26,27,6
13,6,-7,-9,10,0,8,19,2,-27,26,5
13,5,-8,-9,11,-1,8,19,2,-27,26,5
12,5,-7,-9,10,-1,9,21,3,-26,27,6
12,6,-6,-9,9,0,10,22,4,-24,28,7
12,8,-5,-10,8,2,11,23,5,-23,28,8
12,9,-4,-10,8,3,12,23,5,-22,28,8
11,8,-4,-9,7,2,12,23,5,-23,28,7
11,7,-5,-9,8,1,11,23,5,-24,27,7
13,7,-6,-10,9,1,11,23,6,-24,26,6
16,8,-7,-12,11,1,11,23,6,-24,26,6
17,9,-7,-13,12,1,11,24,7,-23,27,7
15,10,-6,-12,11,2,11,25,8,-21,28,8
15,11,-5,-13,10,3,12,27,9,-20,29,8
17,13,-5,-15,11,4,13,28,10,-20,30,8
19,14,-6,-16,12,4,14,28,10,-19,31,8
18,13,-6,-15,11,4,14,29,10,-19,32,8
15,12,-3,-13,8,5,15,29,10,-19,33,9
13,13,0,-12,6,7,15,30,11,-18,35,10
15,15,0,-14,7,7,14,31,12,-17,36,10
18,16,-2,-16,10,7,14,31,13,-16,36,10
19,16,-3,-17,11,6,14,32,15,-16,37,10
19,16,-4,-17,12,6,14,33,17,-16,38,10
21,17,-5,-19,13,6,14,34,19,-15,39,11
22,18,-4,-20,13,7,13,35,20,-14,40,12
22,19,-3,-20,12,7,12,36,21,-14,41,13
20,20,0,-20,10,9,11,37,23,-12,42,15
19,21,2,-20,9,11,9,38,24,-9,42,16
20,22,2,-21,10,12,7,38,24,-8,42,17
22,23,1,-22,11,12,6,38,23,-6,42,17
22,23,0,-22,11,12,6,39,23,-5,42,18
22,23,0,-22,11,12,6,40,24,-3,43,18
23,23,0,-23,12,12,5,40,24,-1,43,18
23,23,-1,-23,12,11,5,41,25,0,43,19
22,23,0,-22,11,11,6,42,26,1,44,19
20,23,2,-22,9,12,6,43,27,3,45,20
20,25,4,-23,8,14,7,44,29,5,47,21
21,27,6,-24,7,16,7,44,30,7,49,22
22,28,6,-25,8,17,7,44,30,9,50,23
25,28,2,-26,11,15,5,43,29,8,50,22
26,27,0,-26,13,14,4,42,27,7,49,21
27,27,0,-26,13,13,4,42,27,8,48,21
26,28,1,-26,12,14,5,43,27,9,48,22
25,29,3,-27,11,16,6,43,28,11,47,23
26,29,3,-28,12,16,5,43,29,12,46,24
27,28,1,-27,13,15,4,43,28,12,44,23
27,27,0,-27,14,14,3,42,27,12,43,23
27,29,0,-28,14,15,3,42,27,13,42,23
26,30,2,-28,12,17,3,42,27,15,42,24
24,30,5,-26,9,18,4,42,26,16,41,24
22,30,7,-25,7,18,3,41,24,16,39,23
23,28,5,-25,8,17,2,39,22,15,37,22
25,27,1,-26,12,14,0,36,18,13,34,19
28,25,-3,-26,16,11,-1,33,15,12,31,17
28,25,-3,-26,16,11,-2,32,13,11,29,16
25,26,0,-25,13,13,-2,33,13,12,29,17
21,25,3,-23,9,14,-2,33,13,13,27,18
20,24,3,-22,8,14,-3,31,12,12,24,17
19,23,2,-21,8,13,-4,30,11,11,22,17
18,23,3,-20,7,13,-5,29,10,11,20,16
17,22,4,-19,7,13,-5,28,8,10,19,15
17,22,4,-19,7,13,-6,26,6,9,18,14
18,23,4,-20,7,13,-6,24,4,8,17,14
19,23,3,-21,8,14,-6,23,3,7,17,14
18,21,3,-19,7,13,-6,22,2,5,16,13
17,19,2,-18,7,11,-7,20,0,4,14,12
17,19,1,-18,8,10,-7,18,-2,3,13,11
18,19,1,-19,8,10,-7,17,-3,2,12,10
17,20,2,-18,7,11,-7,16,-4,1,12,10
16,18,2,-17,7,10,-7,15,-5,0,10,9
14,17,2,-15,6,9,-7,15,-5,-1,9,9
13,16,2,-14,6,9,-7,14,-6,-2,7,8
13,15,0,-13,7,8,-7,14,-7,-3,6,7
13,14,0,-13,7,7,-7,13,-8,-4,6,6
12,14,1,-13,5,8,-6,13,-7,-4,6,6
10,14,4,-12,3,9,-4,14,-5,-4,7,6
10,15,5,-12,2,10,-3,14,-4,-4,8,6
11,15,4,-13,3,10,-4,13,-4,-4,8,6
13,15,2,-14,6,9,-5,11,-5,-5,7,5
14,14,0,-14,7,8,-6,10,-6,-6,6,4
15,14,-1,-14,8,7,-6,9,-7,-6,6,3
14,13,-1,-13,8,7,-5,8,-7,-7,6,3
12,13,0,-13,6,7,-5,8,-7,-7,6,3
12,13,0,-13,6,6,-5,7,-8,-8,6,3
13,14,1,-14,6,6,-4,8,-7,-8,6,3
14,15,1,-15,7,7,-2,9,-6,-7,6,4
15,15,1,-15,7,8,-1,9,-5,-7,7,4
15,16,1,-15,7,8,0,9,-5,-7,7,4
14,15,1,-14,6,8,0,9,-5,-8,6,4
13,15,2,-13,5,9,0,9,-5,-8,5,4
12,15,3,-13,4,9,1,9,-4,-8,5,4
11,15,3,-13,3,9,2,9,-4,-8,5,4
10,15,4,-12,2,9,2,9,-4,-8,4,4
10,15,5,-12,2,9,2,9,-4,-9,4,4
11,15,3,-13,4,9,1,9,-4,-9,4,4
13,15,2,-14,6,9,1,9,-4,-10,4,4
14,16,2,-15,6,10,1,9,-4,-10,4,5
13,16,3,-15,5,11,1,10,-4,-10,5,6
11,16,5,-14,3,11,1,10,-4,-9,6,6
10,15,4,-13,2,10,1,10,-4,-10,5,5
10,14,3,-13,3,9,1,9,-4,-11,4,4
10,13,2,-12,4,8,1,9,-4,-11,3,4
11,13,1,-13,5,7,1,9,-4,-12,2,3
12,14,1,-13,5,8,1,9,-4,-11,2,4
12,14,2,-13,5,9,1,9,-3,-11,2,4
12,15,3,-13,5,10,1,9,-3,-12,1,4
12,16,3,-14,5,10,1,9,-3,-12,0,4
11,16,4,-13,3,10,1,10,-3,-12,0,4
8,15,5,-12,1,10,2,10,-2,-11,0,4
8,14,4,-11,1,9,2,10,-2,-12,0,4
10,14,2,-12,3,8,3,10,-3,-12,0,4
14,14,0,-14,7,7,4,9,-3,-12,-1,3
16,14,-2,-15,9,7,5,9,-3,-12,-1,3
15,14,-1,-15,8,7,5,9,-3,-11,-1,3
12,13,1,-13,5,8,6,10,-2,-9,0,4
9,14,4,-11,2,9,7,10,-1,-7,0,4
9,14,4,-12,2,9,8,10,-1,-6,0,4
10,15,3,-13,3,8,7,10,-1,-6,-1,3
11,15,2,-13,4,8,7,10,-2,-6,-2,3
11,14,2,-13,4,8,7,10,-2,-6,-2,2
10,14,3,-12,3,9,6,10,-2,-6,-2,2
9,14,4,-11,2,9,4,10,-2,-5,-2,2
9,14,5,-11,2,10,2,10,-1,-5,-3,2
10,15,6,-12,2,10,1,9,-1,-6,-3,2
11,17,5,-14,3,11,0,9,0,-6,-3,2
12,18,5,-15,3,11,0,9,0,-5,-2,2
12,19,5,-15,3,11,-1,9,0,-5,-2,2
12,19,5,-15,3,11,-2,8,0,-6,-2,2
12,19,5,-15,4,11,-2,8,0,-7,-2,2
13,18,4,-15,4,11,-2,8,0,-8,-3,2
13,17,3,-15,5,10,-2,8,0,-8,-3,2
13,17,3,-15,4,10,-1,8,0,-8,-3,2
13,17,4,-15,4,10,-1,8,0,-8,-3,2
14,17,3,-16,5,9,-1,8,0,-8,-3,2
13,16,2,-14,5,9,-1,8,0,-8,-2,1
9,14,4,-12,2,9,0,9,1,-6,-1,2
7,14,6,-10,0,10,0,9,1,-4,0,2
7,14,6,-11,0,10,1,9,1,-3,1,2
9,15,6,-12,1,11,1,9,1,-3,2,2
11,16,5,-14,3,11,1,8,1,-4,3,2
12,17,5,-15,3,11,1,8,1,-4,3,1
11,16,6,-14,2,11,2,8,1,-4,4,1
10,16,6,-13,2,11,2,8,1,-4,5,0
10,16,5,-13,2,11,3,8,1,-4,7,0
10,16,6,-13,2,11,5,8,1,-3,9,1
9,16,7,-12,1,12,6,9,2,-3,10,2
9,15,6,-12,1,11,6,9,1,-3,11,2
9,14,4,-12,3,9,4,8,0,-5,11,1
9,13,4,-12,3,8,3,8,0,-5,12,2
7,14,8,-11,0,11,3,9,2,-4,14,3
5,15,11,-11,-2,13,3,10,3,-2,17,5
7,16,9,-12,-1,13,2,10,2,-2,18,5
10,16,5,-13,2,11,0,8,1,-3,17,3
12,16,2,-14,5,10,-1,7,0,-5,17,2
14,16,2,-15,6,9,0,7,-1,-5,17,1
16,18,2,-17,7,10,1,7,-1,-5,18,2
17,20,2,-19,7,11,2,8,0,-5,19,2
15,20,4,-18,5,13,4,8,0,-4,20,3
13,20,6,-17,3,13,4,8,0,-4,21,4
12,20,6,-17,3,13,3,8,0,-3,22,4
12,19,5,-16,4,13,2,9,0,-2,22,4
11,17,4,-15,4,11,2,9,0,-1,23,4
9,15,4,-12,3,10,2,9,0,-1,22,3
8,14,5,-11,1,10,2,10,0,-1,22,3
8,15,6,-12,1,10,3,10,0,0,22,3
8,15,7,-12,1,11,3,10,0,0,22,4
9,17,8,-13,0,12,3,10,1,0,22,4
11,20,8,-16,1,14,3,10,1,0,22,4
14,22,7,-18,3,15,3,10,1,0,22,4
15,24,6,-20,4,15,3,11,1,0,22,4
14,23,8,-18,3,15,3,12,2,1,23,4
10,21,10,-16,0,16,3,12,2,1,24,4
9,22,12,-16,-1,17,3,12,2,1,25,5
12,25,12,-18,0,18,4,13,2,1,26,6
14,27,12,-21,0,19,5,13,1,1,26,7
14,27,12,-21,0,20,4,13,0,0,25,6
12,25,13,-19,0,19,4,12,-1,0,23,6
11,24,12,-18,0,18,3,12,-2,0,22,6
13,25,11,-19,1,18,2,11,-3,0,20,6
14,27,11,-21,2,19,2,11,-4,-1,18,6
15,26,10,-21,2,18,1,10,-5,-2,16,6
16,26,8,-21,4,17,0,8,-7,-4,13,5
18,26,7,-22,5,16,-2,8,-7,-4,12,5
18,27,8,-23,4,18,-3,8,-7,-4,11,6
15,27,11,-21,2,19,-4,9,-6,-2,12,7
11,26,13,-19,-1,20,-6,10,-6,-1,12,8
10,25,14,-18,-1,20,-8,11,-6,-1,12,9
11,25,14,-18,-1,20,-9,12,-6,-2,12,9
11,25,14,-18,-1,20,-10,12,-5,-2,11,9
11,25,14,-18,-1,20,-11,12,-5,-3,11,9
13,24,12,-18,0,19,-13,11,-6,-4,9,8
15,24,9,-19,2,17,-14,10,-6,-5,8,8
16,24,8,-19,3,16,-14,9,-6,-6,7,8
16,24,8,-20,3,16,-13,9,-6,-7,6,8
14,25,11,-20,1,18,-11,10,-5,-6,6,9
11,25,13,-19,0,19,-9,10,-4,-6,6,9
10,24,14,-17,-2,19,-8,10,-5,-8,4,8
9,22,13,-16,-2,18,-7,10,-5,-9,3,8
9,19,10,-15,-1,15,-7,9,-5,-10,2,7
9,18,8,-14,0,13,-7,8,-5,-11,3,6
7,16,9,-12,-1,13,-6,8,-4,-11,4,5
4,15,10,-10,-3,13,-5,8,-4,-11,6,5
4,14,9,-9,-2,12,-3,8,-3,-12,7,5
6,13,6,-10,0,10,-3,7,-4,-13,7,4
8,12,3,-10,3,8,-3,6,-5,-14,7,3
9,11,2,-10,3,7,-2,6,-5,-14,7,2
7,10,3,-9,2,7,-1,6,-5,-14,8,2
6,10,4,-8,0,8,0,6,-5,-15,7,2
5,10,4,-8,0,8,0,5,-6,-17,6,1
6,10,4,-9,1,7,0,4,-7,-18,5,0
6,11,4,-10,1,8,0,4,-7,-18,4,0
6,11,4,-10,2,8,0,4,-6,-18,4,0
6,10,3,-9,2,7,0,4,-6,-18,4,0
6,9,3,-8,2,7,0,4,-5,-19,5,0
4,8,4,-7,0,6,0,4,-5,-19,6,0
2,7,4,-5,-1,6,-1,4,-6,-19,6,0
1,7,4,-4,-2,6,-1,4,-6,-19,6,0
1,7,4,-4,-2,6,-1,4,-6,-18,6,0
2,7,4,-4,-1,6,-2,4,-6,-18,6,0
2,7,5,-5,-1,6,-2,4,-6,-18,5,0
1,7,7,-5,-2,8,-1,5,-5,-17,6,0
0,8,9,-4,-4,9,-1,5,-4,-17,6,1
0,8,9,-4,-4,8,-2,5,-5,-17,5,0
1,8,7,-4,-3,7,-4,4,-5,-18,4,0
3,8,4,-5,-1,6,-5,4,-6,-19,2,-1
5,8,1,-6,1,5,-6,3,-6,-19,0,-2
6,7,0,-6,2,4,-7,3,-6,-20,0,-2
6,7,0,-6,2,4,-7,3,-6,-20,-1,-3
6,7,1,-6,2,4,-8,2,-7,-20,-1,-3
5,7,2,-6,1,5,-8,3,-6,-20,0,-2
1,6,5,-4,-2,6,-8,3,-6,-19,0,-1
-1,6,7,-3,-5,7,-8,4,-5,-19,0,0
0,8,7,-4,-4,7,-10,4,-5,-19,0,0
3,9,6,-6,-2,8,-13,4,-5,-20,0,0
3,9,6,-6,-2,8,-16,4,-5,-20,1,0
1,9,8,-5,-4,10,-18,5,-3,-18,2,2
-2,10,12,-4,-7,12,-18,6,-1,-17,4,3
-3,10,14,-4,-8,13,-19,7,0,-16,4,4
-2,10,13,-5,-7,11,-19,9,2,-15,3,4
1,10,9,-6,-4,9,-18,13,6,-12,4,4
4,10,6,-7,-1,8,-15,19,13,-7,6,5
7,12,4,-8,0,8,-11,27,23,0,11,7
9,13,3,-10,2,9,-7,37,35,9,17,11
12,15,2,-13,5,9,-5,47,47,20,23,15
16,17,0,-17,8,9,-4,55,59,31,30,20
20,19,-1,-20,11,9,-3,63,71,42,40,25
27,22,-4,-25,16,9,-3,71,83,52,50,30
36,26,-9,-31,23,9,-4,76,92,61,61,35
45,32,-13,-38,29,10,-9,77,97,69,71,41
53,38,-15,-45,34,12,-17,73,96,72,79,47
61,44,-18,-52,39,14,-26,63,90,69,83,50
66,45,-21,-55,43,13,-34,50,77,59,81,49
64,44,-21,-54,43,12,-40,33,59,43,75,45
57,40,-18,-49,38,11,-44,9,32,20,64,39
49,34,-16,-42,33,9,-49,-20,-2,-7,50,29
42,27,-16,-35,30,6,-55,-49,-37,-36,34,18
36,20,-17,-28,27,1,-60,-73,-66,-60,20,7
29,12,-17,-20,23,-2,-62,-87,-86,-78,8,-1
21,5,-17,-12,19,-6,-61,-94,-96,-90,0,-9
14,-2,-17,-4,15,-10,-58,-93,-98,-96,-7,-15
8,-8,-17,0,13,-12,-55,-88,-96,-97,-10,-19
4,-11,-16,3,10,-13,-50,-81,-89,-94,-10,-20
1,-11,-12,4,7,-11,-44,-71,-80,-89,-8,-20
0,-9,-8,4,4,-8,-37,-60,-70,-82,-5,-19
-3,-7,-4,5,0,-6,-30,-49,-59,-75,-3,-18
-6,-7,-1,7,-2,-4,-24,-39,-51,-69,-1,-16
-6,-6,0,7,-3,-3,-20,-31,-43,-63,0,-15
-7,-4,2,6,-4,-1,-16,-24,-36,-57,0,-13
-6,-1,4,4,-4,1,-13,-18,-31,-51,1,-11
-4,1,5,1,-4,3,-11,-13,-26,-47,2,-8
-2,3,5,0,-3,4,-9,-9,-22,-44,3,-7
0,3,4,-2,-1,4,-7,-6,-19,-42,3,-6
2,4,2,-3,0,3,-7,-4,-18,-40,4,-5
1,4,3,-2,-1,4,-5,-1,-16,-39,6,-4
-2,4,6,0,-5,5,-4,2,-13,-36,7,-2
-4,3,7,1,-7,5,-2,4,-10,-34,8,-1
-3,4,6,0,-5,5,-1,5,-8,-33,9,-1
-2,3,4,0,-3,3,-1,5,-7,-32,8,-2
-3,0,3,1,-3,1,-1,4,-7,-33,7,-3
-2,-1,2,1,-2,0,-1,4,-7,-34,6,-4
0,0,0,0,0,0,-1,3,-8,-35,6,-5
3,0,-1,-1,2,0,-1,4,-7,-35,6,-5
4,2,-1,-2,2,1,0,5,-6,-33,8,-3
4,3,-1,-2,2,1,1,5,-5,-31,9,-2
3,3,0,-2,1,2,1,6,-5,-28,10,-2
1,4,2,-2,0,3,2,6,-4,-24,10,-1
0,4,4,-1,-2,5,2,7,-4,-21,11,-1
0,5,5,-2,-2,5,3,7,-4,-20,11,0
0,4,5,-2,-2,5,3,7,-4,-19,10,-1
-1,4,6,0,-4,5,2,6,-4,-18,8,-1
-2,4,6,0,-5,5,2,6,-4,-17,7,-1
-2,4,6,0,-5,5,2,6,-4,-16,6,-1
-2,4,5,0,-4,5,2,7,-4,-14,6,-1
-1,4,5,-1,-3,5,2,7,-5,-13,6,-1
-1,5,5,-2,-3,5,2,7,-5,-12,5,-1
-1,5,6,-2,-3,6,1,7,-5,-12,5,-1
-1,4,5,-2,-3,6,1,7,-5,-12,4,-1
-1,4,5,-2,-3,5,0,7,-6,-13,4,-1
-1,4,4,-1,-3,5,0,7,-6,-13,3,-1
0,3,4,-1,-3,4,0,7,-7,-13,1,-2
-1,3,5,-1,-3,5,0,8,-6,-13,0,-2
-2,3,6,-1,-5,5,0,8,-5,-12,0,-1
-3,3,7,0,-6,6,-1,9,-5,-11,0,-1
-3,3,7,0,-5,5,-1,9,-4,-11,-1,-2
-2,3,6,-1,-4,5,-2,9,-4,-11,-2,-2
-1,4,5,-1,-3,5,-2,9,-3,-11,-1,-1
0,4,5,-2,-3,5,-2,9,-3,-11,-1,-1
0,4,4,-1,-3,5,-2,9,-2,-11,-1,-1
0,3,4,-1,-2,4,-2,9,-2,-11,-2,-2
1,3,3,-2,-1,3,-2,9,-1,-11,-3,-2
1,4,3,-3,0,4,-1,9,0,-9,-3,-1
0,5,4,-3,-2,4,0,10,1,-8,-3,-1
0,5,5,-3,-3,5,1,11,1,-6,-3,-1
0,6,6,-3,-3,6,2,12,1,-5,-3,0
0,6,6,-3,-2,6,3,12,1,-5,-3,0
1,6,5,-3,-2,6,4,12,2,-5,-3,0
1,7,6,-4,-2,6,5,13,3,-4,-2,0
1,7,6,-4,-2,7,6,13,4,-2,-1,1
1,7,6,-4,-2,7,6,14,4,-1,0,1
-1,5,7,-2,-3,6,7,14,4,-1,0,0
-2,5,7,-1,-4,6,8,15,5,0,0,1
-2,6,8,-2,-5,8,10,17,7,1,1,2
-1,8,9,-3,-5,9,11,18,8,2,3,3
0,9,10,-3,-6,9,11,18,9,3,4,4
0,10,10,-4,-6,10,12,18,9,4,4,4
-1,10,12,-4,-7,11,12,18,10,5,5,5
-2,10,13,-4,-8,12,13,19,11,6,6,5
-2,10,13,-4,-8,12,13,19,12,7,6,6
-3,9,13,-3,-8,11,14,20,12,8,6,6
-4,9,13,-2,-8,11,14,20,13,8,6,6
-1,10,11,-4,-6,11,15,20,14,9,6,6
1,11,10,-6,-4,11,16,20,14,10,6,6
3,11,9,-7,-3,10,16,19,15,10,5,6
4,11,7,-7,-2,9,16,18,15,11,4,5
6,11,6,-8,0,9,16,18,16,12,4,5
6,12,6,-8,0,9,17,18,16,13,6,6
7,14,7,-9,0,10,17,18,17,15,7,6
8,15,7,-11,0,11,17,18,17,16,8,7
9,16,7,-12,1,12,17,18,18,16,9,7
10,16,6,-13,2,11,17,18,18,16,10,7
10,16,6,-13,1,12,17,19,20,17,11,8
10,18,8,-14,0,14,17,20,21,19,13,10
11,20,10,-15,0,15,17,20,22,20,15,11
11,21,10,-15,0,16,16,20,23,20,16,12
10,22,12,-15,-1,17,16,21,23,21,17,13
9,23,15,-15,-2,19,16,22,25,22,19,14
8,25,16,-16,-3,21,17,23,26,24,21,15
9,25,16,-16,-3,21,16,24,26,24,22,16
10,25,14,-17,-2,20,15,24,28,25,23,17
12,25,13,-18,-1,20,14,24,31,25,23,17
13,26,13,-19,0,20,14,25,35,25,23,18
14,26,12,-19,0,19,13,24,37,25,23,18
12,23,11,-17,0,17,11,23,37,24,22,17
11,22,11,-16,0,17,9,22,38,24,22,17
11,23,12,-16,0,17,8,22,39,25,23,17
12,24,13,-17,0,19,8,22,40,25,24,18
12,25,14,-18,-1,20,8,23,41,25,25,19
13,26,13,-19,0,20,8,22,41,25,25,19
14,26,12,-19,0,19,8,21,41,24,25,18
15,26,11,-20,1,19,7,20,41,23,26,18
16,27,11,-21,2,19,7,20,41,23,27,18
17,27,10,-22,3,19,7,19,41,24,27,18
17,27,10,-22,3,19,7,19,41,24,27,18
17,27,10,-22,3,18,7,18,41,23,26,18
16,26,10,-21,3,18,7,17,40,22,25,18
16,26,10,-21,3,19,7,17,40,21,24,17
16,27,10,-21,2,19,7,16,40,20,24,17
15,25,10,-20,2,19,7,15,40,20,23,16
12,23,10,-17,1,17,7,14,39,19,23,16
12,21,10,-16,1,16,7,12,38,18,22,15
14,22,9,-18,2,16,7,10,36,16,21,13
15,22,8,-18,3,16,6,9,35,15,20,12
14,22,8,-17,3,15,6,8,34,13,19,11
12,20,9,-15,1,15,6,7,34,12,18,11
8,19,11,-13,-1,16,6,6,33,12,18,10
6,19,12,-12,-3,16,6,5,33,11,18,10
7,19,11,-12,-2,16,5,3,32,10,16,9
8,18,10,-12,0,14,4,1,30,8,15,8
8,17,9,-12,0,13,4,0,29,7,13,7
9,17,8,-13,0,13,4,-1,28,6,12,6
10,17,7,-14,2,12,3,-2,27,4,11,5
10,16,6,-13,2,11,2,-3,27,3,9,5
6,16,10,-11,-1,13,3,-2,28,3,9,5
3,16,12,-10,-5,14,4,-2,28,3,8,6
2,14,11,-8,-5,13,3,-4,26,2,6,4
2,12,9,-7,-3,11,1,-6,23,0,4,2
4,12,7,-8,-1,10,0,-7,21,-1,3,1
7,13,6,-10,0,10,0,-8,20,-2,3,1
6,13,7,-10,0,11,-1,-9,18,-2,2,0
2,13,10,-7,-4,12,-1,-9,17,-2,1,0
0,12,11,-6,-5,12,-1,-9,16,-3,1,0
2,12,9,-7,-3,10,-2,-10,15,-4,0,-1
4,12,7,-8,-1,9,-3,-11,14,-5,0,-1
4,12,7,-8,-1,10,-4,-11,13,-5,0,-1
2,11,9,-6,-3,11,-4,-12,13,-5,0,-1
2,11,10,-6,-3,11,-5,-12,13,-5,1,-1
2,11,10,-6,-3,11,-5,-12,13,-5,2,0
2,11,10,-6,-4,11,-6,-12,13,-5,2,-1
2,11,9,-5,-3,10,-7,-12,12,-6,1,-1
3,10,7,-6,-2,9,-8,-13,12,-7,0,-2
3,10,6,-6,-2,8,-9,-14,11,-7,-2,-3
2,9,6,-5,-2,8,-9,-14,11,-7,-3,-3
2,9,7,-5,-2,8,-9,-14,10,-7,-4,-4
2,9,7,-5,-2,8,-9,-14,9,-7,-5,-4
1,9,9,-5,-4,8,-9,-14,9,-7,-5,-4
0,9,10,-4,-5,9,-8,-14,9,-6,-6,-3
1,10,10,-5,-5,10,-8,-13,9,-5,-6,-3
2,11,9,-6,-4,10,-8,-12,9,-4,-6,-2
1,11,10,-6,-5,11,-8,-12,9,-4,-6,-2
1,11,10,-6,-5,11,-8,-12,8,-4,-6,-3
0,11,11,-6,-5,11,-9,-13,8,-4,-5,-3
0,11,11,-5,-6,11,-9,-13,8,-5,-5,-3
1,11,11,-6,-5,11,-9,-14,8,-5,-5,-3
2,11,10,-7,-4,11,-9,-14,7,-5,-5,-3
2,11,10,-6,-5,11,-9,-13,7,-5,-4,-3
0,11,12,-5,-6,11,-10,-13,7,-4,-4,-3
0,11,11,-5,-6,11,-11,-13,7,-5,-4,-4
2,11,10,-7,-4,10,-11,-13,7,-5,-4,-4
3,12,9,-8,-3,10,-12,-14,7,-5,-5,-4
4,12,8,-8,-2,10,-12,-14,5,-6,-5,-5
4,11,7,-8,-2,9,-13,-15,4,-6,-5,-5
4,11,8,-7,-2,10,-13,-15,3,-7,-5,-5
5,13,9,-9,-2,12,-12,-14,3,-7,-5,-5
6,16,10,-11,-2,13,-11,-14,3,-7,-5,-5
4,16,11,-10,-3,14,-11,-13,3,-7,-5,-5
0,14,13,-7,-6,14,-10,-13,3,-7,-4,-4
-2,12,14,-5,-7,13,-9,-12,3,-8,-3,-4
-1,11,12,-5,-6,12,-9,-13,3,-9,-4,-5
1,11,11,-6,-5,11,-9,-13,2,-10,-4,-5
1,11,11,-6,-5,11,-9,-13,2,-11,-4,-5
1,11,11,-6,-5,11,-8,-13,1,-11,-4,-5
1,11,11,-6,-5,11,-8,-14,1,-11,-5,-6
1,12,11,-7,-5,12,-8,-14,0,-11,-5,-6
2,14,12,-8,-4,13,-7,-13,0,-11,-4,-5
1,16,14,-9,-6,15,-6,-12,1,-10,-2,-4
-1,15,16,-7,-8,16,-5,-12,2,-9,-1,-4
-3,13,16,-5,-9,15,-5,-12,2,-9,-2,-4
-2,11,14,-4,-8,13,-6,-13,1,-10,-3,-4
-1,10,13,-4,-7,11,-7,-14,0,-11,-4,-4
0,11,13,-5,-7,11,-7,-14,-1,-11,-5,-4
0,12,14,-5,-7,12,-7,-14,-2,-12,-5,-4
0,13,14,-6,-6,13,-6,-14,-2,-13,-5,-4
1,13,13,-7,-5,13,-6,-14,-2,-15,-5,-4
1,13,12,-7,-5,13,-5,-14,-3,-16,-6,-4
0,13,12,-6,-6,13,-5,-13,-3,-17,-6,-4
0,13,12,-7,-6,13,-4,-13,-3,-17,-6,-4
1,13,12,-7,-6,13,-3,-12,-3,-17,-6,-4
1,13,11,-7,-5,12,-3,-12,-3,-17,-7,-5
2,12,10,-7,-4,11,-4,-13,-2,-17,-7,-5
2,12,10,-7,-4,11,-4,-13,-2,-16,-8,-6
2,12,10,-7,-4,11,-4,-13,-2,-15,-8,-6
1,12,11,-6,-5,11,-5,-13,-2,-14,-8,-6
0,11,12,-5,-6,12,-4,-12,-1,-12,-7,-5
0,12,12,-6,-7,13,-4,-12,-1,-11,-7,-5
0,12,13,-6,-7,13,-4,-12,0,-11,-6,-4
0,12,14,-6,-7,13,-4,-12,0,-10,-6,-4
0,11,13,-5,-7,12,-4,-12,-1,-11,-6,-4
-1,10,12,-4,-7,11,-5,-12,-3,-12,-6,-5
-1,10,12,-4,-7,10,-6,-13,-4,-12,-7,-6
-2,10,13,-4,-7,11,-6,-13,-4,-13,-7,-6
-2,11,13,-4,-8,12,-6,-13,-5,-13,-7,-7
-1,10,12,-5,-6,11,-6,-14,-5,-14,-8,-7
1,10,9,-6,-4,10,-6,-14,-6,-15,-9,-8
2,10,8,-6,-3,9,-6,-15,-6,-15,-10,-8
1,11,10,-6,-4,10,-5,-14,-4,-14,-10,-7
1,12,12,-6,-5,12,-4,-13,-3,-13,-10,-6
1,12,11,-7,-5,12,-5,-13,-4,-14,-11,-6
1,12,11,-7,-5,12,-6,-14,-5,-15,-12,-7
1,11,11,-6,-5,11,-6,-15,-5,-15,-13,-8
0,11,11,-6,-5,11,-6,-15,-4,-14,-13,-7
0,11,11,-5,-6,12,-6,-15,-3,-14,-13,-7
-1,11,12,-5,-7,12,-6,-15,-3,-14,-14,-7
-2,10,12,-4,-8,12,-7,-15,-3,-14,-14,-6
-3,10,14,-3,-9,12,-7,-15,-3,-14,-15,-6
-3,10,14,-3,-9,13,-7,-15,-3,-14,-16,-6
-1,10,13,-4,-7,12,-8,-15,-3,-14,-17,-6
0,10,12,-5,-6,12,-7,-14,-3,-14,-18,-5
-2,10,13,-4,-7,12,-7,-13,-3,-13,-18,-5
-3,9,13,-3,-8,12,-6,-13,-3,-13,-19,-4
-1,10,12,-4,-7,12,-6,-13,-3,-13,-20,-4
1,12,10,-6,-5,12,-6,-13,-2,-12,-20,-4
3,12,9,-7,-3,11,-6,-13,-2,-12,-21,-4
4,12,8,-8,-2,10,-6,-13,-2,-13,-22,-4
4,11,8,-8,-2,10,-6,-13,-3,-13,-23,-4
4,11,8,-8,-2,10,-7,-13,-3,-13,-24,-5
1,10,10,-6,-4,10,-6,-13,-3,-12,-24,-4
0,10,11,-5,-5,10,-6,-12,-2,-11,-23,-4
0,10,11,-5,-5,10,-5,-12,-2,-10,-23,-3
-1,9,10,-4,-5,9,-5,-12,-3,-10,-22,-3
0,8,8,-4,-4,9,-5,-12,-4,-10,-22,-3
2,10,8,-6,-3,9,-5,-12,-4,-9,-21,-3
4,12,8,-8,-2,10,-5,-11,-3,-9,-20,-3
4,13,9,-9,-3,11,-5,-11,-2,-8,-20,-3
1,13,12,-7,-6,13,-4,-10,-1,-7,-19,-2
0,13,14,-6,-8,14,-3,-9,0,-5,-18,-1
0,14,14,-7,-7,14,-3,-9,0,-4,-18,-1
1,15,14,-8,-6,15,-2,-9,0,-3,-18,0
1,15,15,-8,-6,15,-2,-9,0,-1,-18,0
0,15,15,-7,-7,16,-3,-9,0,2,-18,0
0,15,15,-7,-7,16,-3,-9,0,5,-18,0
1,15,15,-8,-7,16,-4,-10,-1,6,-18,0
2,15,13,-9,-5,15,-5,-10,-1,7,-18,0
3,15,12,-10,-4,14,-5,-11,-2,8,-18,0
4,17,13,-11,-4,15,-5,-11,-2,8,-18,0
4,18,14,-11,-4,16,-5,-11,-2,9,-17,1
5,19,15,-12,-4,17,-6,-11,-3,8,-16,1
5,20,15,-12,-5,17,-6,-11,-4,7,-15,1
5,20,15,-12,-5,18,-6,-10,-4,6,-14,2
6,20,15,-13,-5,18,-6,-10,-5,6,-12,2
5,19,14,-12,-4,17,-6,-10,-6,5,-11,2
4,17,13,-10,-5,15,-6,-10,-7,3,-10,2
2,15,13,-9,-5,14,-6,-11,-8,2,-9,2
2,14,13,-8,-5,14,-6,-12,-10,1,-9,2
2,14,13,-8,-5,14,-6,-12,-12,0,-8,1
2,16,15,-9,-6,15,-6,-12,-13,0,-7,2
1,17,16,-9,-8,16,-5,-11,-13,0,-5,3
1,16,16,-9,-8,16,-5,-11,-13,0,-5,2
3,16,14,-10,-6,15,-5,-12,-14,-2,-6,1
5,16,12,-10,-4,14,-6,-13,-15,-3,-6,0
4,15,12,-9,-4,13,-5,-13,-15,-3,-6,0
1,14,14,-7,-6,14,-4,-12,-14,-4,-5,0
-1,13,15,-6,-8,14,-3,-12,-14,-4,-5,1
0,13,14,-6,-7,13,-3,-12,-15,-6,-5,0
1,12,12,-6,-5,12,-3,-13,-16,-8,-4,-1
0,10,11,-5,-6,11,-3,-13,-16,-10,-4,-2
-2,7,10,-2,-6,9,-4,-13,-17,-11,-4,-3
-3,5,9,-1,-6,8,-4,-13,-17,-12,-4,-4
-4,4,9,0,-6,7,-3,-13,-17,-12,-3,-5
-3,4,7,-1,-5,6,-3,-14,-18,-13,-3,-6
-1,4,6,-2,-4,6,-3,-14,-19,-13,-3,-7
-1,4,7,-2,-4,6,-3,-14,-19,-13,-2,-7
-1,5,8,-1,-5,7,-2,-14,-18,-13,-1,-6
-2,5,8,-1,-6,7,-2,-13,-18,-13,0,-6
-3,4,8,0,-6,6,-2,-14,-18,-13,0,-6
-5,3,9,1,-8,6,-2,-14,-18,-13,1,-7
-6,4,10,1,-9,7,-1,-13,-17,-13,2,-6
-7,5,12,1,-9,8,-1,-13,-16,-13,1,-6
-7,5,12,1,-9,8,-2,-12,-16,-13,-1,-6
-7,5,11,1,-9,8,-2,-12,-17,-13,-4,-6
-7,4,11,1,-9,7,-3,-12,-17,-14,-5,-6
-6,3,9,2,-8,6,-3,-13,-18,-14,-7,-6
-4,2,7,1,-6,4,-4,-13,-18,-14,-8,-6
-3,2,5,0,-4,4,-4,-13,-18,-15,-9,-7
-4,3,7,0,-6,5,-4,-13,-18,-14,-9,-6
-6,3,9,1,-7,6,-3,-12,-17,-13,-8,-6
-7,2,9,2,-7,6,-4,-12,-18,-13,-9,-6
-7,0,7,3,-7,4,-5,-13,-19,-14,-10,-7
-7,-1,6,3,-6,2,-6,-13,-19,-14,-11,-8
-6,-1,4,3,-5,1,-6,-14,-19,-14,-12,-8
-5,-2,4,4,-5,1,-6,-13,-19,-14,-13,-8
-5,-2,4,4,-5,1,-6,-13,-18,-13,-13,-8
-5,-1,5,3,-5,2,-5,-12,-18,-13,-14,-8
-6,0,6,3,-6,3,-5,-12,-18,-12,-14,-8
-6,0,6,3,-6,3,-4,-12,-18,-12,-15,-8
-6,0,6,3,-6,3,-4,-12,-18,-12,-15,-8
-5,1,6,2,-6,3,-3,-12,-18,-12,-15,-8
-5,2,7,1,-6,5,-1,-11,-18,-11,-14,-7
-5,4,9,0,-7,7,0,-10,-18,-10,-13,-6
-5,5,11,0,-8,8,2,-9,-18,-8,-12,-5
-5,5,11,0,-8,8,4,-9,-18,-8,-12,-5
-5,4,11,0,-8,8,5,-8,-17,-7,-12,-5
-6,3,10,1,-7,7,6,-5,-15,-5,-11,-5
-6,3,9,1,-7,6,7,1,-10,0,-10,-4
-4,3,7,0,-5,5,9,9,-3,7,-7,-2
-1,4,5,-2,-3,5,11,18,6,14,-3,1
4,5,2,-5,1,4,12,27,16,23,1,4
11,7,-2,-9,7,3,11,35,26,32,6,8
17,10,-5,-13,11,3,10,42,37,41,12,12
23,14,-7,-18,15,3,10,50,49,51,19,18
29,19,-9,-24,19,4,9,56,59,60,26,23
36,25,-11,-31,24,6,4,59,66,68,33,30
45,32,-13,-39,29,8,-4,55,67,73,39,36
54,36,-17,-46,35,9,-16,45,59,71,41,38
61,39,-22,-51,41,8,-27,31,46,62,38,38
64,40,-23,-52,43,8,-34,14,28,49,31,35
59,39,-20,-49,39,9,-39,-8,4,31,21,30
50,34,-16,-42,33,9,-44,-37,-26,8,8,22
43,28,-14,-36,28,7,-49,-67,-59,-16,-5,13
36,21,-14,-29,25,3,-55,-93,-89,-38,-18,4
26,13,-12,-20,19,0,-58,-111,-110,-55,-28,-4
16,5,-10,-11,13,-2,-58,-119,-121,-66,-37,-10
10,-1,-10,-4,10,-5,-56,-119,-125,-72,-43,-16
5,-6,-11,0,8,-7,-53,-115,-123,-74,-47,-20
1,-9,-10,4,5,-8,-49,-107,-117,-73,-48,-23
-2,-10,-7,6,1,-8,-43,-97,-108,-69,-47,-24
-7,-11,-3,9,-2,-7,-37,-85,-98,-64,-43,-25
-11,-11,0,11,-6,-6,-30,-73,-87,-58,-39,-25
-15,-12,3,13,-9,-5,-25,-62,-76,-51,-35,-24
-16,-11,5,13,-10,-4,-20,-52,-68,-45,-30,-23
-15,-10,6,12,-10,-2,-16,-44,-61,-39,-25,-21
-15,-8,8,11,-11,0,-13,-37,-54,-34,-19,-18
-13,-5,8,9,-10,2,-11,-32,-49,-31,-15,-16
-9,-4,6,7,-8,2,-10,-29,-46,-29,-12,-15
-8,-3,6,6,-7,2,-9,-26,-42,-28,-10,-14
-11,-3,9,7,-10,3,-7,-23,-37,-25,-8,-13
-13,-1,12,7,-12,5,-5,-19,-33,-23,-5,-11
-13,0,13,6,-13,6,-3,-16,-30,-21,-4,-10
-12,0,12,6,-11,5,-2,-14,-27,-21,-3,-10
-10,-1,9,5,-10,5,-1,-12,-26,-21,-3,-10
-8,-1,7,5,-8,4,0,-12,-26,-21,-4,-10
-7,-1,6,4,-6,3,0,-12,-26,-21,-4,-10
-5,0,4,2,-5,3,1,-12,-25,-21,-5,-10
-3,0,3,1,-3,2,1,-12,-25,-21,-5,-10
-3,0,3,1,-3,2,1,-12,-24,-22,-6,-11
-5,0,4,1,-4,2,1,-11,-24,-22,-5,-11
-7,-1,6,3,-5,2,0,-10,-23,-22,-5,-11
-8,-1,6,4,-7,2,0,-10,-23,-21,-5,-11
-9,-1,7,5,-8,3,0,-9,-22,-21,-5,-10
-10,-2,8,6,-9,3,0,-9,-22,-22,-5,-10
-10,-3,7,6,-8,2,0,-10,-23,-22,-6,-10
-7,-3,5,5,-6,1,0,-10,-23,-22,-6,-11
-5,-3,3,4,-4,0,0,-10,-23,-22,-6,-11
-6,-2,4,4,-4,0,0,-9,-22,-22,-6,-11
-7,-2,6,4,-6,1,0,-7,-20,-21,-5,-10
-8,-2,6,5,-7,1,1,-6,-19,-20,-5,-9
-9,-3,5,6,-7,0,0,-7,-18,-21,-5,-9
-9,-4,5,7,-7,0,0,-7,-16,-21,-5,-9
-8,-4,4,7,-6,0,0,-7,-14,-22,-5,-9
-7,-4,3,6,-5,0,0,-7,-12,-23,-4,-9
-6,-3,3,5,-4,0,0,-7,-10,-23,-3,-9
-7,-3,4,5,-5,0,0,-7,-8,-23,-2,-9
-8,-3,5,5,-6,0,0,-6,-6,-23,-2,-9
-7,-3,4,4,-5,0,-1,-6,-6,-22,-2,-9
-5,-2,3,3,-4,0,-2,-6,-6,-22,-2,-10
-5,-3,2,4,-4,0,-2,-6,-6,-22,-2,-10
-7,-4,3,6,-5,0,-2,-6,-5,-22,-2,-10
-10,-4,5,7,-8,1,-2,-5,-4,-21,-2,-10
-9,-3,6,5,-8,2,-2,-5,-3,-20,-1,-9
-6,-2,4,3,-5,1,-2,-5,-3,-20,-2,-10
-5,-2,2,3,-3,-1,-3,-5,-3,-21,-4,-10
-5,-4,1,4,-3,-2,-3,-5,-3,-21,-6,-10
-6,-4,1,5,-3,-1,-3,-5,-3,-21,-6,-10
-6,-4,2,5,-4,0,-2,-4,-2,-21,-6,-9
-5,-3,3,4,-4,0,-1,-3,-2,-21,-6,-9
-4,-1,3,3,-4,1,0,-2,-1,-20,-6,-8
-4,-1,3,3,-3,1,0,-1,0,-20,-6,-8
-4,-1,2,3,-3,0,0,-2,0,-20,-6,-8
-4,-2,1,2,-2,-1,-1,-2,0,-20,-6,-9
-4,-1,2,2,-3,0,-1,-1,1,-20,-6,-8
-4,0,3,2,-3,1,-1,0,2,-19,-5,-7
-4,0,4,2,-4,1,-1,1,3,-18,-5,-7
-6,-1,4,4,-5,1,-1,1,3,-18,-6,-7
-6,-2,4,5,-5,1,-2,1,3,-18,-7,-7
-6,-3,3,4,-5,1,-3,1,3,-18,-8,-8
-5,-3,3,4,-4,0,-4,1,4,-17,-8,-9
-6,-2,4,4,-5,1,-4,2,5,-15,-8,-8
-6,-2,5,4,-6,2,-4,3,7,-13,-8,-8
-6,0,6,3,-6,2,-4,3,8,-11,-8,-7
-5,1,6,2,-6,3,-5,4,9,-10,-7,-7
-5,2,7,2,-6,4,-5,5,10,-9,-7,-6
-5,2,6,2,-5,4,-6,5,10,-9,-7,-6
-3,3,5,1,-4,3,-7,5,11,-10,-8,-7
-1,4,5,0,-3,4,-7,6,12,-9,-9,-7
0,4,5,-1,-2,4,-8,6,13,-9,-9,-6
0,4,5,-1,-2,4,-9,6,13,-9,-9,-6
0,4,4,-2,-2,4,-10,6,13,-10,-9,-6
1,4,3,-3,0,3,-10,6,13,-10,-9,-6
2,5,3,-3,0,4,-10,6,14,-9,-9,-6
-2,6,7,-1,-4,6,-8,8,16,-8,-8,-4
-6,6,11,0,-9,8,-7,9,18,-6,-7,-3
-5,6,11,-1,-8,8,-7,10,19,-5,-6,-3
-2,7,9,-2,-6,7,-7,11,20,-5,-6,-3
0,7,7,-3,-4,6,-8,11,20,-5,-6,-3
1,8,6,-5,-2,7,-8,12,20,-4,-5,-2
3,10,7,-6,-2,8,-7,13,21,-2,-3,-1
3,11,8,-7,-2,10,-7,14,23,0,-2,0
3,11,8,-7,-3,10,-7,15,23,2,-1,0
4,12,8,-8,-2,10,-7,15,23,3,-1,0
5,13,9,-9,-2,11,-7,17,23,5,0,1
5,14,9,-10,-2,11,-6,18,23,6,0,2
5,14,9,-10,-1,11,-7,18,22,6,-1,3
5,14,8,-10,-1,11,-7,18,21,7,-2,3
6,14,8,-10,-1,11,-7,19,20,9,-2,3
6,15,8,-10,-1,11,-7,19,19,10,-2,4
6,14,8,-9,-1,11,-7,18,19,11,-2,4
5,13,9,-8,-2,11,-7,18,19,12,-2,4
4,14,9,-8,-2,11,-7,18,19,13,-1,4
5,15,9,-9,-2,12,-7,19,19,15,0,5
5,15,9,-10,-2,12,-7,19,20,16,0,5
5,15,9,-10,-1,11,-7,19,20,17,0,5
9,16,7,-12,1,11,-7,19,20,17,1,6
13,18,5,-15,4,11,-7,18,19,17,1,6
14,18,4,-16,5,11,-7,17,17,17,1,6
13,18,4,-15,4,11,-6,17,16,18,1,6
11,17,5,-14,3,11,-6,17,16,19,1,7
11,17,5,-14,3,11,-6,16,15,19,1,7
12,17,4,-15,4,10,-6,15,14,19,0,6
11,15,3,-13,4,9,-7,13,13,19,-1,5
8,13,5,-10,2,9,-7,13,13,19,-2,5
6,12,6,-8,0,8,-7,12,11,19,-3,5
4,11,6,-7,0,8,-7,11,9,18,-4,5
3,10,6,-6,-1,8,-7,10,8,18,-5,4
3,9,5,-6,-1,7,-7,8,8,17,-7,2
5,8,3,-6,1,6,-8,6,9,16,-8,1
6,8,2,-7,2,5,-8,5,10,15,-9,0
5,8,2,-6,1,4,-8,4,9,14,-10,0
2,8,5,-4,-1,5,-7,4,9,14,-10,0
-1,7,8,-2,-4,6,-6,3,9,14,-11,0
-4,4,8,0,-5,5,-7,2,7,13,-12,-1
-4,2,6,1,-5,4,-7,0,5,12,-13,-3
-5,1,5,2,-5,3,-8,-1,3,11,-14,-3
-5,0,5,2,-5,2,-8,-2,2,11,-14,-4
-5,0,5,2,-5,2,-8,-3,1,10,-15,-4
-4,0,4,2,-4,1,-9,-5,1,9,-16,-5
-4,0,3,2,-3,1,-10,-6,0,8,-17,-6
-3,0,2,2,-2,0,-10,-7,0,8,-18,-6
-2,0,1,1,-1,0,-11,-8,0,7,-18,-6
-2,0,1,2,-1,0,-10,-9,-2,6,-17,-7
-4,-2,1,3,-2,0,-9,-10,-3,6,-16,-7
-5,-3,1,5,-3,-1,-9,-11,-5,5,-15,-7
-7,-5,1,6,-4,-3,-8,-12,-6,5,-14,-8
-8,-7,1,8,-5,-3,-7,-13,-7,4,-13,-8
-10,-8,2,9,-6,-3,-6,-14,-7,3,-12,-9
-11,-8,3,9,-7,-3,-6,-15,-7,2,-11,-10
-9,-6,3,8,-6,-2,-5,-15,-7,2,-10,-10
-7,-4,3,6,-5,0,-3,-14,-7,2,-8,-9
-6,-2,3,4,-4,0,-2,-14,-7,2,-8,-8
-6,-3,2,5,-4,0,-3,-15,-8,1,-8,-9
-6,-5,1,6,-4,-1,-3,-16,-8,0,-8,-10
-6,-5,1,6,-3,-1,-2,-16,-8,0,-8,-11
-8,-6,2,7,-4,-2,-2,-16,-8,0,-7,-11
-9,-7,3,8,-5,-2,-2,-16,-8,0,-7,-10
-10,-8,2,9,-5,-3,-2,-16,-8,-1,-7,-10
-11,-9,2,10,-6,-3,-2,-16,-8,-1,-7,-10
-13,-10,2,12,-7,-3,-2,-16,-8,-2,-7,-10
-14,-10,3,12,-8,-3,-2,-16,-8,-2,-7,-10
-13,-9,3,11,-7,-3,-2,-16,-7,-2,-7,-10
-11,-7,4,9,-7,-1,-1,-14,-6,-2,-6,-10
-10,-6,4,8,-7,-1,-1,-14,-5,-2,-5,-10
-11,-7,4,9,-7,-2,-2,-14,-6,-2,-6,-11
-13,-9,3,11,-8,-3,-3,-15,-6,-3,-6,-12
-13,-9,3,11,-8,-3,-4,-15,-6,-3,-6,-12
-11,-8,2,9,-6,-3,-4,-15,-6,-4,-6,-12
-9,-6,2,8,-5,-2,-4,-15,-6,-4,-5,-12
-9,-6,2,8,-5,-2,-4,-15,-6,-4,-5,-12
-9,-6,2,8,-5,-2,-4,-15,-6,-4,-5,-12
-9,-6,2,8,-5,-2,-4,-15,-6,-4,-5,-12
-10,-6,2,8,-6,-2,-5,-14,-5,-4,-5,-12
-12,-8,3,10,-7,-2,-5,-14,-5,-5,-6,-12
-13,-9,3,11,-7,-3,-6,-14,-5,-5,-6,-12
-12,-9,2,10,-6,-3,-6,-13,-5,-5,-6,-11
-9,-8,1,9,-5,-3,-6,-13,-4,-4,-6,-11
-9,-8,0,9,-4,-3,-7,-13,-5,-5,-6,-12
-8,-8,0,9,-4,-4,-8,-14,-6,-6,-7,-13
-8,-8,0,8,-4,-4,-8,-14,-7,-6,-7,-14
-8,-7,1,8,-5,-3,-8,-13,-6,-6,-6,-13
-11,-7,4,9,-7,-1,-7,-12,-5,-6,-4,-12
-11,-6,5,9,-8,-1,-7,-12,-5,-6,-4,-12
-9,-6,3,8,-6,-2,-8,-13,-5,-7,-4,-12
-9,-7,2,8,-5,-3,-9,-13,-5,-7,-4,-13
-10,-8,1,9,-5,-4,-9,-13,-6,-8,-5,-13
-9,-8,1,9,-5,-3,-9,-13,-6,-8,-5,-13
-10,-7,3,8,-6,-2,-9,-12,-5,-8,-4,-12
-13,-7,5,10,-8,-1,-8,-11,-4,-8,-3,-11
-15,-9,5,11,-9,-1,-9,-11,-5,-8,-4,-11
-14,-9,5,11,-9,-2,-9,-11,-5,-9,-4,-11
-12,-7,4,10,-8,-1,-10,-11,-4,-9,-4,-11
-11,-5,5,8,-8,0,-10,-10,-3,-9,-4,-11
-12,-5,6,9,-9,0,-10,-9,-3,-9,-4,-11
-14,-6,6,10,-10,0,-11,-9,-4,-9,-4,-12
-14,-7,6,11,-10,-1,-12,-10,-4,-10,-5,-13
-13,-7,5,11,-9,-1,-13,-10,-4,-10,-5,-13
-12,-8,3,10,-7,-2,-13,-10,-4,-11,-5,-13
-11,-8,4,9,-7,-2,-13,-10,-4,-11,-5,-13
-12,-7,5,9,-9,-1,-13,-9,-3,-11,-4,-12
-12,-6,6,9,-10,0,-14,-9,-2,-11,-4,-12
-11,-5,6,8,-9,0,-14,-9,-2,-11,-3,-12
-12,-6,6,9,-9,0,-14,-9,-2,-11,-3,-12
-15,-8,6,12,-10,-1,-14,-9,-3,-12,-3,-12
-14,-9,5,12,-9,-2,-14,-10,-4,-13,-4,-13
-11,-7,3,10,-6,-2,-14,-10,-4,-13,-5,-13
-8,-6,2,7,-5,-2,-13,-10,-4,-14,-4,-13
-10,-6,3,8,-6,-1,-12,-9,-3,-14,-4,-12
-12,-7,4,9,-9,-1,-11,-9,-3,-15,-3,-12
-13,-7,5,10,-9,-2,-11,-9,-2,-16,-3,-12
-13,-7,4,10,-8,-2,-10,-9,-2,-16,-4,-12
-12,-6,4,10,-7,-2,-9,-9,-1,-17,-4,-12
-11,-6,4,9,-7,-1,-9,-9,-1,-17,-4,-12
-8,-5,3,7,-5,-1,-8,-9,-2,-17,-4,-12
-6,-4,2,5,-4,-1,-8,-10,-2,-18,-4,-13
-8,-6,2,6,-5,-1,-7,-10,-3,-19,-4,-13
-10,-8,2,8,-6,-2,-7,-11,-4,-20,-4,-14
-11,-8,2,9,-6,-3,-7,-11,-4,-20,-3,-15
-14,-9,4,11,-9,-2,-6,-11,-4,-20,-3,-15
-17,-8,8,13,-12,0,-5,-11,-4,-20,-2,-14
-18,-7,10,13,-14,1,-4,-10,-4,-20,-2,-14
-17,-6,10,12,-14,1,-4,-10,-5,-20,-3,-14
-16,-7,9,12,-13,0,-4,-11,-7,-21,-3,-15
-15,-7,8,11,-12,0,-4,-11,-8,-21,-3,-15
-15,-5,9,10,-12,1,-3,-10,-8,-21,-2,-14
-14,-5,9,9,-12,1,-2,-10,-9,-21,-2,-14
-13,-5,8,9,-11,1,-2,-11,-10,-21,-2,-15
-10,-3,6,6,-8,1,-1,-11,-10,-22,-2,-15
-7,-1,5,4,-6,1,0,-10,-10,-22,-2,-15
-9,-3,5,6,-7,1,0,-11,-11,-23,-2,-16
-13,-5,6,9,-9,0,0,-11,-11,-23,-3,-16
-13,-5,7,9,-10,1,0,-11,-12,-24,-4,-16
-12,-4,7,8,-10,1,0,-11,-12,-24,-5,-16
-12,-4,7,8,-10,1,0,-12,-13,-25,-6,-16
-11,-4,6,8,-9,0,0,-13,-14,-26,-7,-17
-10,-4,5,8,-7,0,1,-13,-14,-26,-8,-18
-9,-3,5,7,-7,0,2,-13,-14,-27,-8,-17
-10,-4,5,7,-7,0,2,-13,-13,-27,-8,-17
-11,-4,7,8,-9,1,3,-12,-13,-27,-7,-16
-13,-3,10,8,-11,3,4,-11,-11,-26,-5,-15
-14,-2,12,8,-13,4,5,-10,-10,-25,-4,-14
-15,-3,12,9,-14,5,5,-10,-10,-25,-3,-13
-15,-3,12,9,-13,5,5,-10,-9,-25,-3,-13
-12,-1,10,7,-11,5,6,-11,-9,-26,-3,-13
-9,1,9,4,-9,5,6,-11,-9,-26,-3,-13
-9,1,10,4,-10,6,6,-11,-9,-26,-3,-13
-12,0,11,6,-11,6,6,-12,-9,-27,-4,-12
-12,0,11,6,-12,6,6,-12,-9,-27,-5,-12
-10,1,10,4,-10,6,5,-12,-8,-27,-6,-12
-8,2,9,2,-8,6,5,-12,-8,-27,-7,-12
-7,1,7,2,-7,4,4,-12,-8,-28,-9,-12
-8,1,7,3,-7,4,4,-12,-7,-28,-9,-13
-9,1,9,4,-9,4,4,-12,-6,-28,-8,-13
-9,1,9,5,-9,5,3,-11,-5,-28,-7,-13
-9,1,9,4,-9,5,3,-11,-5,-28,-6,-12
-10,1,11,4,-11,6,4,-10,-4,-29,-5,-12
-11,2,13,4,-12,8,4,-9,-3,-29,-3,-11
-9,5,13,2,-12,9,5,-8,-2,-30,-1,-10
-6,6,13,0,-10,9,4,-8,-2,-32,-1,-9
-6,6,12,0,-10,9,3,-9,-2,-33,-2,-9
-8,5,12,2,-11,9,2,-10,-3,-34,-4,-9
-9,4,12,3,-11,9,0,-10,-3,-35,-5,-9
-8,5,12,2,-10,9,0,-11,-4,-35,-6,-9
-6,6,11,0,-9,9,-1,-11,-4,-35,-7,-9
-5,6,11,0,-9,9,-1,-11,-5,-35,-7,-9
-5,7,11,-1,-8,9,-1,-11,-5,-35,-7,-9
-4,7,12,-1,-8,9,-1,-12,-5,-34,-7,-9
-4,8,12,-2,-8,9,-1,-12,-5,-32,-5,-9
-5,9,13,-1,-9,10,-1,-11,-4,-31,-5,-8
-7,7,14,0,-11,10,-1,-11,-4,-30,-4,-8
-9,6,15,2,-12,10,-2,-11,-4,-28,-4,-7
-8,8,15,0,-11,11,-2,-11,-4,-26,-4,-7
-8,8,15,0,-12,11,-2,-11,-4,-25,-5,-7
-9,4,13,2,-12,9,-4,-12,-5,-25,-7,-9
-7,2,9,2,-9,6,-6,-14,-7,-24,-9,-10
-4,1,6,1,-5,4,-7,-14,-8,-23,-10,-11
-4,0,5,2,-4,2,-8,-15,-8,-22,-12,-12
-5,0,4,3,-4,2,-8,-16,-9,-22,-13,-12
-5,0,4,3,-4,3,-8,-15,-8,-22,-13,-12
-6,1,6,3,-5,4,-8,-14,-7,-20,-13,-12
-8,1,7,3,-7,4,-8,-14,-6,-19,-13,-12
-8,0,7,4,-7,3,-8,-13,-6,-18,-13,-12
-8,-2,7,5,-7,2,-8,-13,-6,-17,-14,-13
-13,-6,8,10,-10,0,-8,-14,-6,-17,-15,-14
-18,-9,9,13,-13,0,-8,-14,-6,-16,-16,-14
-17,-8,9,13,-13,1,-7,-13,-6,-15,-16,-14
-16,-7,9,12,-12,1,-6,-13,-5,-14,-16,-14
-15,-7,7,11,-11,0,-6,-14,-6,-14,-16,-14
-13,-8,4,10,-8,-1,-7,-15,-7,-14,-17,-15
-12,-9,2,10,-7,-3,-7,-15,-8,-14,-17,-16
-13,-9,3,11,-8,-3,-7,-15,-8,-12,-16,-16
-14,-9,5,11,-9,-2,-6,-15,-7,-11,-14,-15
-15,-9,5,12,-10,-2,-5,-15,-7,-10,-13,-15
-15,-9,5,12,-9,-2,-5,-15,-7,-10,-13,-15
-14,-8,5,11,-9,-2,-4,-15,-7,-9,-13,-15
-14,-8,4,11,-9,-2,-4,-14,-7,-9,-13,-16
-15,-11,3,12,-8,-4,-5,-15,-8,-9,-14,-17
-14,-13,0,13,-7,-6,-6,-16,-9,-10,-15,-19
-13,-11,0,12,-6,-5,-5,-15,-9,-9,-14,-18
-13,-10,2,12,-8,-4,-3,-14,-8,-7,-13,-17
-15,-12,3,13,-9,-4,-3,-14,-11,-7,-13,-18
-15,-13,1,14,-8,-6,-4,-15,-14,-7,-14,-19
-14,-14,0,15,-7,-8,-5,-15,-17,-8,-15,-19
-15,-16,-1,16,-7,-8,-5,-16,-19,-8,-15,-19
-15,-16,-2,15,-7,-8,-5,-16,-20,-8,-14,-19
-13,-14,-2,13,-6,-8,-4,-15,-20,-7,-14,-19
-12,-13,-1,13,-6,-7,-4,-15,-21,-6,-13,-19
-14,-15,0,15,-7,-8,-4,-15,-23,-5,-13,-19
-14,-14,0,15,-7,-7,-3,-14,-23,-4,-13,-19
-13,-13,0,14,-7,-6,-3,-14,-23,-3,-12,-18
-15,-13,2,15,-8,-5,-3,-13,-23,-3,-11,-18
-17,-13,3,16,-10,-5,-3,-13,-23,-3,-11,-18
-17,-13,3,16,-9,-5,-4,-13,-23,-4,-12,-18
-16,-14,1,15,-8,-7,-4,-13,-23,-4,-13,-19
-16,-15,0,16,-8,-8,-4,-14,-22,-4,-13,-19
-15,-14,0,15,-8,-7,-3,-13,-19,-3,-13,-19
-15,-13,2,14,-9,-5,-2,-13,-17,-2,-11,-17
-17,-12,6,15,-11,-3,0,-11,-14,0,-10,-16
-20,-11,9,16,-13,-1,1,-9,-10,2,-8,-15
-19,-11,8,15,-12,-2,3,-6,-6,5,-7,-14
-16,-11,4,14,-9,-4,4,-1,-1,8,-6,-14
-15,-13,1,14,-8,-7,5,4,6,13,-4,-14
-14,-15,-2,15,-6,-9,6,12,15,19,-1,-12
-10,-14,-5,12,-2,-10,6,21,26,27,3,-10
-2,-11,-9,6,3,-10,6,30,39,37,9,-6
5,-7,-12,1,9,-10,5,38,51,47,16,-1
12,-3,-15,-4,14,-10,5,45,63,57,23,3
18,0,-18,-8,19,-10,3,52,73,65,29,8
26,4,-22,-15,24,-9,-1,55,79,72,35,13
36,11,-26,-23,31,-8,-9,53,82,77,41,19
47,18,-30,-32,38,-6,-19,45,79,78,45,24
55,23,-32,-38,43,-5,-29,34,69,72,45,26
57,24,-33,-40,45,-5,-37,18,54,60,40,25
54,22,-31,-38,43,-4,-43,-2,32,44,32,20
48,20,-27,-33,38,-4,-48,-29,2,22,20,13
42,17,-25,-29,34,-4,-52,-59,-30,-1,7,4
34,12,-23,-23,29,-5,-57,-86,-61,-24,-6,-4
24,4,-21,-14,23,-8,-60,-107,-86,-43,-18,-13
14,-4,-20,-4,17,-12,-62,-119,-101,-57,-29,-21
6,-13,-20,4,13,-16,-61,-123,-109,-65,-36,-28
0,-21,-21,10,10,-21,-59,-120,-109,-68,-41,-33
-6,-27,-20,16,7,-23,-55,-113,-104,-67,-42,-36
-12,-29,-15,20,2,-22,-48,-102,-95,-62,-40,-36
-17,-29,-11,23,-2,-20,-40,-89,-84,-55,-37,-36
-21,-29,-8,25,-6,-19,-32,-76,-72,-47,-34,-35
-23,-28,-6,26,-8,-17,-26,-64,-61,-41,-32,-34
-22,-27,-6,25,-8,-16,-21,-54,-52,-35,-30,-33
-20,-25,-7,23,-6,-16,-18,-47,-46,-31,-28,-32
-18,-24,-7,21,-5,-15,-16,-40,-40,-26,-25,-30
-18,-22,-4,20,-7,-13,-12,-34,-33,-20,-21,-28
-18,-20,-1,19,-9,-11,-9,-28,-28,-15,-16,-25
-18,-18,0,18,-9,-9,-7,-24,-24,-11,-14,-23
-17,-17,0,18,-9,-9,-5,-21,-21,-9,-12,-22
-18,-17,0,18,-9,-8,-4,-18,-19,-8,-11,-22
-19,-17,1,18,-10,-8,-3,-16,-17,-6,-11,-21
-20,-17,1,19,-11,-8,-2,-14,-15,-5,-11,-21
-20,-17,1,19,-11,-8,-2,-12,-14,-3,-10,-20
-18,-17,0,18,-10,-8,-1,-11,-12,-2,-10,-20
-16,-17,-1,17,-8,-9,-1,-10,-11,-1,-10,-20
-14,-17,-3,16,-5,-10,-1,-10,-10,-1,-10,-20
-11,-16,-5,14,-3,-10,-1,-9,-9,-1,-10,-20
-9,-15,-6,12,-1,-10,0,-9,-9,-1,-10,-20
-10,-15,-7,13,-1,-11,-1,-9,-8,-1,-11,-20
-12,-16,-6,14,-3,-11,-1,-8,-8,-1,-11,-20
-14,-17,-5,15,-4,-11,0,-7,-7,0,-10,-19
-15,-19,-5,17,-5,-12,0,-6,-6,0,-10,-19
-15,-19,-5,17,-5,-13,0,-6,-5,0,-10,-19
-14,-18,-4,16,-5,-12,0,-5,-5,0,-10,-19
-14,-17,-2,16,-6,-10,0,-4,-4,0,-10,-18
-14,-16,-1,16,-6,-9,1,-4,-3,0,-10,-18
-13,-16,-3,15,-4,-10,1,-3,-2,0,-10,-18
-12,-16,-6,14,-2,-11,1,-3,-1,0,-10,-18
-11,-16,-7,14,-1,-12,1,-3,0,0,-10,-17
-11,-17,-7,14,-2,-12,1,-2,0,0,-9,-17
-12,-18,-7,14,-2,-12,1,-2,1,0,-9,-17
-11,-19,-7,15,-2,-13,1,-2,2,0,-9,-17
-10,-19,-8,14,-1,-14,1,-1,2,0,-8,-16
-9,-19,-9,14,0,-14,1,-1,3,0,-8,-16
-11,-20,-9,16,0,-15,1,0,3,1,-8,-16
-15,-22,-7,18,-3,-14,2,0,3,1,-9,-15
-16,-22,-6,19,-5,-13,2,0,4,2,-9,-15
-15,-21,-7,18,-4,-14,2,1,5,2,-10,-15
-13,-22,-9,17,-2,-16,2,1,5,2,-11,-15
-11,-22,-11,17,0,-17,2,1,5,2,-12,-15
-10,-23,-13,17,1,-18,1,1,4,1,-13,-16
-10,-24,-13,17,1,-18,1,1,4,1,-13,-16
-12,-23,-10,18,0,-17,2,2,4,2,-12,-15
-14,-22,-8,18,-2,-15,3,3,5,3,-11,-14
-14,-22,-8,18,-2,-15,3,3,5,3,-12,-14
-13,-22,-9,18,-1,-16,3,3,6,3,-12,-14
-11,-21,-11,16,0,-17,3,3,7,3,-13,-14
-8,-21,-14,14,3,-18,3,3,8,3,-13,-14
-7,-21,-15,14,4,-18,4,3,9,3,-13,-14
-9,-23,-14,16,3,-18,4,3,10,3,-14,-14
-10,-23,-13,16,2,-18,4,3,11,4,-14,-14
-9,-22,-13,15,2,-17,4,3,11,4,-15,-14
-9,-21,-12,15,2,-17,4,3,12,5,-16,-13
-10,-21,-12,16,1,-17,4,4,13,6,-16,-13
-11,-21,-12,16,0,-17,5,5,14,7,-16,-12
-11,-22,-12,16,0,-17,5,6,15,7,-16,-12
-11,-23,-13,17,1,-18,6,6,15,8,-16,-11
-11,-24,-13,18,1,-18,6,7,16,8,-15,-11
-12,-23,-11,18,0,-17,6,8,17,8,-13,-10
-15,-22,-8,19,-3,-15,6,9,19,9,-11,-9
-15,-21,-7,18,-4,-14,7,10,21,10,-10,-9
-12,-21,-9,16,-1,-15,6,10,21,10,-9,-9
-8,-20,-13,14,2,-17,6,10,21,10,-9,-10
-6,-21,-15,13,4,-18,5,10,21,9,-10,-10
-7,-21,-15,14,4,-18,6,11,21,10,-9,-10
-8,-22,-13,16,2,-17,7,13,22,11,-7,-8
-8,-21,-12,15,2,-16,8,15,21,12,-6,-7
-7,-19,-12,13,3,-16,8,16,20,13,-6,-7
-5,-19,-13,12,4,-16,8,16,20,13,-6,-8
-5,-19,-14,12,4,-17,7,16,19,13,-6,-8
-7,-20,-14,13,3,-17,7,17,19,13,-6,-8
-8,-20,-12,14,1,-16,8,18,19,14,-5,-7
-8,-19,-11,14,1,-15,8,19,19,14,-5,-7
-5,-17,-11,12,3,-14,7,19,19,14,-5,-7
-3,-16,-12,10,4,-14,7,20,20,15,-4,-6
-3,-15,-11,9,4,-13,7,21,21,16,-3,-5
-3,-14,-10,8,3,-12,7,22,22,17,-2,-4
-2,-12,-10,7,4,-12,7,23,23,17,-2,-3
-1,-11,-10,5,4,-11,7,24,24,18,-1,-3
0,-10,-11,4,5,-11,8,24,26,18,-1,-2
2,-9,-12,3,7,-10,7,25,27,19,-1,-2
3,-7,-11,2,7,-9,7,25,28,20,-1,-1
4,-6,-10,1,7,-8,7,26,29,21,0,0
4,-6,-10,1,7,-8,7,27,30,23,1,0
3,-7,-11,1,7,-9,6,27,31,24,1,0
3,-7,-11,1,7,-9,6,27,32,25,2,1
4,-6,-11,0,7,-8,7,28,33,28,3,2
4,-5,-11,0,7,-8,7,29,33,32,3,2
5,-4,-10,0,7,-7,6,29,33,34,4,2
5,-4,-10,0,7,-7,6,29,33,36,4,2
6,-5,-11,0,9,-8,5,29,33,37,4,2
10,-5,-14,-2,12,-9,4,28,33,37,3,1
12,-3,-15,-4,14,-9,4,28,34,39,4,2
11,-2,-13,-3,12,-7,5,29,35,41,5,3
8,-2,-10,-2,9,-6,5,29,36,42,5,3
7,-1,-8,-2,8,-5,5,29,36,43,6,3
6,0,-7,-2,6,-4,5,29,37,44,6,4
5,-2,-7,-1,6,-5,4,28,36,44,5,3
4,-4,-9,0,7,-7,2,27,35,43,4,2
6,-5,-10,0,8,-7,1,26,34,43,4,2
8,-3,-10,-3,9,-6,1,25,34,43,4,3
8,-3,-11,-3,10,-6,0,24,33,43,3,2
6,-5,-11,-1,9,-8,-1,23,32,42,2,1
4,-7,-12,0,8,-9,-2,21,31,41,1,0
4,-6,-12,0,8,-9,-3,20,31,41,0,0
4,-6,-11,1,7,-9,-3,20,30,41,0,0
2,-7,-10,3,6,-9,-1,19,30,40,-1,0
0,-9,-10,4,4,-10,0,18,29,40,-1,-1
-1,-10,-9,6,3,-10,3,17,27,39,-2,-1
-3,-11,-9,7,3,-10,4,15,25,37,-4,-2
-3,-12,-9,7,3,-11,5,13,23,35,-5,-4
-1,-12,-10,7,5,-12,6,12,22,34,-5,-5
-1,-12,-11,6,6,-12,7,11,21,33,-4,-6
-1,-12,-12,6,6,-12,8,11,20,33,-4,-6
0,-13,-13,6,6,-13,9,10,19,32,-4,-7
0,-13,-13,6,6,-13,9,8,18,31,-5,-8
-1,-14,-12,7,6,-13,8,7,16,30,-6,-9
-2,-14,-12,8,5,-13,8,6,15,29,-7,-10
-3,-15,-11,9,4,-13,8,5,14,28,-8,-10
-5,-16,-11,10,4,-14,9,4,13,28,-9,-11
-6,-17,-11,11,3,-14,9,3,12,27,-10,-11
-7,-17,-11,12,2,-14,9,3,11,26,-11,-12
-6,-18,-12,12,3,-14,9,2,11,25,-12,-12
-5,-18,-13,12,4,-15,8,1,9,24,-14,-13
-5,-19,-14,12,4,-16,8,0,8,23,-15,-14
-4,-20,-15,12,5,-17,9,0,6,22,-15,-14
-2,-19,-17,10,7,-18,9,-1,5,22,-15,-15
0,-17,-17,8,8,-17,9,-1,4,21,-15,-16
-3,-18,-14,11,5,-16,10,-1,4,20,-16,-16
-10,-21,-12,16,1,-17,9,-2,2,19,-17,-16
-12,-23,-11,18,0,-17,9,-3,1,18,-18,-16
-12,-23,-10,18,-1,-17,10,-2,1,17,-19,-15
-13,-23,-10,18,-2,-16,11,-2,1,17,-19,-14
-13,-24,-10,18,-2,-17,12,-2,1,17,-19,-13
-12,-24,-11,18,-1,-17,12,-2,0,15,-20,-13
-10,-23,-12,16,1,-18,12,-3,-1,14,-21,-13
-7,-21,-14,14,3,-18,12,-3,-2,13,-22,-14
-6,-21,-15,13,4,-18,12,-4,-3,12,-23,-13
-7,-20,-14,14,3,-17,12,-3,-2,13,-22,-12
-8,-20,-12,14,2,-16,12,-3,-2,14,-22,-11
-8,-20,-12,14,1,-16,10,-3,-2,13,-22,-10
-9,-21,-11,15,0,-16,8,-3,-3,12,-24,-10
-12,-22,-10,17,-1,-16,7,-4,-4,11,-25,-10
-14,-23,-10,18,-2,-16,6,-4,-4,10,-26,-9
-14,-23,-9,18,-3,-16,6,-3,-4,10,-26,-9
-14,-22,-8,18,-3,-15,6,-3,-4,10,-26,-8
-13,-20,-8,17,-3,-14,6,-4,-5,10,-27,-8
-11,-19,-8,16,-1,-14,6,-4,-5,9,-27,-8
-11,-19,-8,15,-1,-14,6,-4,-6,8,-28,-8
-12,-19,-7,16,-2,-14,7,-3,-6,8,-28,-7
-12,-19,-6,15,-3,-13,7,-2,-5,8,-28,-7
-11,-18,-7,14,-2,-13,7,-2,-5,7,-28,-7
-8,-18,-10,13,1,-14,6,-3,-6,6,-28,-9
-7,-19,-12,13,2,-16,5,-4,-7,4,-29,-10
-9,-20,-12,15,1,-16,4,-5,-8,4,-28,-11
-11,-21,-10,16,0,-16,4,-5,-8,4,-27,-11
-12,-21,-10,16,-1,-16,4,-6,-8,3,-26,-11
-11,-20,-9,16,-1,-15,4,-6,-8,3,-25,-12
-12,-20,-9,16,-1,-15,4,-6,-8,3,-21,-12
-11,-21,-10,16,-1,-15,4,-6,-7,2,-14,-13
-11,-21,-10,16,-1,-15,4,-6,-6,3,-9,-13
-12,-21,-10,16,-1,-15,4,-6,-6,4,-6,-12
-12,-22,-11,17,0,-16,3,-6,-6,5,-5,-12
-11,-21,-11,16,0,-16,2,-7,-6,5,-4,-12
-12,-19,-8,16,-1,-14,2,-7,-5,7,-4,-11
-13,-17,-5,15,-4,-11,2,-6,-4,9,-3,-9
-13,-16,-4,15,-4,-11,2,-6,-4,10,-3,-8
-13,-16,-4,15,-4,-11,1,-6,-4,10,-3,-6
-13,-17,-4,15,-4,-11,0,-7,-5,11,-2,-4
-14,-18,-4,16,-4,-11,0,-8,-5,13,-2,-2
-14,-19,-5,16,-4,-12,0,-8,-5,16,-1,0
-14,-20,-5,17,-4,-12,-1,-8,-5,18,-1,2
-13,-20,-6,16,-3,-13,-1,-8,-6,19,-1,4
-12,-19,-7,15,-2,-13,-2,-8,-6,20,0,5
-12,-18,-6,15,-3,-12,-2,-8,-6,22,3,7
-12,-17,-5,14,-3,-11,-2,-8,-6,25,8,9
-11,-16,-5,14,-3,-11,-2,-8,-6,28,13,10
-12,-15,-3,14,-4,-9,-2,-8,-6,30,17,11
-12,-14,-1,13,-5,-7,-1,-7,-6,34,20,12
-12,-13,0,13,-6,-6,-1,-7,-5,37,22,14
-12,-13,-1,13,-6,-6,-2,-7,-5,39,24,16
-13,-14,-1,14,-6,-7,-4,-7,-5,42,24,18
-14,-15,0,15,-7,-8,-5,-7,-5,44,26,20
-15,-15,0,15,-7,-7,-5,-7,-4,46,28,23
-15,-15,0,15,-7,-7,-7,-7,-5,47,28,24
-13,-14,-1,13,-5,-8,-8,-8,-5,47,27,25
-10,-12,-2,11,-4,-7,-8,-9,-5,48,25,25
-10,-12,-2,11,-4,-7,-8,-9,-5,48,22,26
-11,-13,-2,12,-5,-7,-8,-10,-4,48,19,26
-12,-13,-1,13,-6,-7,-8,-10,-4,49,17,26
-13,-13,0,13,-6,-7,-8,-10,-4,49,15,26
-14,-14,-1,13,-6,-7,-9,-10,-4,49,14,25
-14,-14,-1,14,-6,-8,-9,-10,-5,49,13,25
-14,-14,-1,14,-6,-8,-9,-10,-6,48,11,24
-14,-14,0,14,-7,-7,-9,-10,-6,47,9,24
-15,-14,0,14,-8,-6,-8,-10,-6,47,7,23
-16,-14,1,15,-9,-6,-8,-9,-5,46,5,23
-17,-14,2,16,-10,-6,-7,-9,-5,46,3,22
-16,-14,2,15,-9,-6,-6,-9,-5,46,1,20
-13,-13,0,13,-6,-7,-7,-9,-6,46,0,18
-9,-14,-4,12,-2,-9,-7,-10,-7,45,-1,16
-8,-14,-6,11,-1,-10,-7,-11,-7,45,-1,14
-10,-15,-5,13,-3,-10,-5,-10,-6,46,0,13
-14,-16,-2,15,-7,-8,-4,-9,-4,47,1,12
-17,-16,0,17,-9,-7,-3,-9,-3,47,1,11
-18,-16,0,17,-9,-8,-4,-9,-4,46,0,9
-17,-17,-1,17,-8,-9,-5,-11,-5,45,-1,7
-15,-17,-2,16,-6,-9,-5,-11,-5,45,-1,6
-14,-16,-3,15,-5,-9,-5,-12,-4,46,0,5
-13,-15,-3,15,-5,-9,-5,-12,-4,46,1,4
-12,-15,-3,14,-4,-9,-5,-12,-5,45,1,4
-12,-14,-3,14,-4,-9,-5,-12,-5,44,2,3
-13,-15,-2,14,-5,-8,-5,-12,-5,44,1,2
-14,-15,-1,15,-6,-8,-5,-12,-5,43,1,1
-15,-15,-1,15,-6,-8,-5,-13,-5,41,1,0
-14,-15,-2,14,-5,-8,-5,-13,-4,40,2,0
-13,-15,-2,14,-5,-8,-5,-13,-4,40,4,0
-12,-14,-1,13,-5,-8,-5,-13,-3,40,7,0
-13,-13,0,14,-6,-7,-4,-13,-1,40,10,0
-13,-13,0,14,-7,-6,-4,-13,0,40,12,0
-14,-13,0,14,-7,-6,-4,-13,0,41,13,1
-13,-13,0,13,-7,-6,-4,-13,1,40,13,1
-11,-13,-2,11,-4,-7,-5,-13,1,38,13,1
-9,-13,-4,10,-2,-9,-5,-14,2,37,13,0
-10,-12,-3,11,-4,-8,-4,-14,3,36,15,1
-12,-11,0,12,-6,-6,-3,-14,5,36,18,1
-12,-10,2,11,-7,-4,-2,-14,6,35,20,1
-10,-9,1,9,-6,-4,-2,-14,6,34,21,0
-9,-8,1,9,-5,-4,-2,-14,6,33,23,0
-9,-7,2,8,-6,-3,-1,-13,6,32,24,0
-11,-6,4,8,-7,-1,-1,-13,6,31,25,0
-12,-6,5,9,-8,0,-1,-12,6,30,26,1
-12,-6,6,9,-9,0,0,-12,7,30,26,2
-12,-5,6,8,-8,0,0,-11,8,29,26,3
-10,-5,5,8,-8,0,0,-11,8,28,25,4
-9,-5,5,7,-7,-1,-1,-12,8,27,23,4
-10,-6,4,8,-7,-1,-2,-13,7,26,20,4
-10,-6,4,8,-7,-2,-3,-13,6,25,17,4
-8,-5,2,7,-5,-1,-3,-14,5,25,14,5
-6,-4,1,5,-3,-1,-4,-14,5,25,11,6
-6,-4,2,5,-4,-1,-4,-15,4,25,9,7
-8,-5,3,6,-6,-1,-5,-15,4,25,5,9
-10,-6,4,8,-7,-1,-5,-15,3,25,-8,11
-10,-7,4,8,-7,-2,-6,-16,3,25,-41,13
-10,-7,4,8,-7,-1,-6,-16,3,25,-93,16
-10,-6,4,8,-7,-1,-7,-15,4,24,-157,18
-9,-6,3,8,-6,-1,-8,-15,3,22,-236,19
-9,-7,2,8,-5,-2,-8,-15,3,20,-319,20
-8,-7,1,7,-4,-3,-9,-15,3,19,-377,21
-7,-6,1,6,-3,-3,-10,-16,3,20,-399,21
-6,-6,0,5,-3,-3,-11,-16,3,22,-396,22
-6,-7,0,6,-3,-3,-11,-17,3,23,-376,22
-7,-7,0,7,-4,-3,-11,-17,3,24,-351,22
-7,-8,-1,8,-3,-4,-11,-18,2,23,-327,21
-7,-9,-2,8,-2,-5,-12,-19,1,21,-305,19
-9,-10,-1,9,-3,-5,-12,-18,2,20,-284,19
-12,-10,1,11,-5,-5,-11,-18,2,18,-266,19
-13,-11,2,12,-6,-5,-11,-17,3,15,-253,20
-13,-12,2,12,-6,-6,-10,-17,3,13,-243,21
-12,-12,1,12,-6,-6,-10,-18,2,9,-234,22
-11,-12,0,11,-5,-7,-11,-19,2,6,-223,22
-10,-12,-1,11,-4,-7,-11,-19,1,3,-210,22
-10,-12,-2,11,-4,-7,-11,-19,1,2,-198,23
-10,-12,-2,11,-4,-7,-11,-19,1,1,-186,23
-10,-12,-2,11,-4,-7,-10,-19,1,0,-175,22
-11,-12,-1,11,-4,-7,-10,-19,1,0,-164,21
-11,-12,-1,11,-5,-7,-10,-19,2,0,-154,20
-12,-13,0,12,-6,-7,-10,-19,2,-1,-146,19
-14,-13,0,14,-7,-7,-10,-19,2,-1,-139,18
-16,-15,0,16,-8,-7,-10,-19,2,-1,-132,18
-16,-16,0,17,-8,-8,-9,-19,3,-1,-126,18
-15,-16,-2,16,-6,-9,-9,-18,4,0,-120,18
-14,-16,-3,15,-5,-9,-8,-18,4,0,-114,18
-14,-17,-3,15,-5,-10,-8,-18,3,0,-109,16
-14,-18,-4,15,-5,-11,-8,-18,2,-1,-103,15
-13,-19,-5,15,-4,-12,-7,-17,2,-1,-95,15
-11,-18,-6,14,-3,-12,-6,-17,2,0,-87,15
-11,-18,-7,15,-3,-13,-6,-17,2,1,-80,16
-14,-21,-7,18,-4,-14,-7,-18,2,1,-73,16
-17,-22,-6,19,-6,-14,-7,-18,2,2,-67,17
-17,-21,-4,19,-6,-12,-7,-18,3,3,-60,17
-17,-20,-4,18,-6,-12,-7,-18,3,3,-52,17
-17,-20,-3,19,-6,-12,-7,-18,3,2,-44,17
-17,-21,-3,19,-7,-12,-6,-18,3,1,-36,16
-17,-20,-2,19,-8,-11,-6,-18,3,1,-27,17
-16,-19,-2,18,-8,-10,-5,-17,3,1,-19,17
-14,-18,-3,16,-6,-10,-4,-17,2,1,-13,17
-12,-17,-5,15,-4,-12,-4,-17,1,0,-10,16
-11,-18,-8,15,-2,-13,-5,-18,0,0,-6,15
-11,-19,-8,15,-1,-14,-4,-18,1,0,-1,14
-13,-19,-6,15,-3,-13,-3,-17,2,1,6,15
-15,-19,-3,16,-6,-11,-2,-16,3,3,14,15
-18,-18,0,17,-9,-9,-1,-15,4,5,22,16
-20,-17,3,18,-11,-8,0,-15,4,7,29,17
-20,-17,3,18,-11,-7,0,-14,3,8,35,18
-18,-17,1,18,-9,-8,1,-14,3,8,38,18
-17,-17,0,17,-8,-8,2,-11,5,9,42,18
-18,-17,0,18,-8,-8,4,-6,9,12,49,19
-17,-18,-2,18,-6,-10,5,0,15,17,58,20
-14,-19,-5,16,-3,-12,6,7,23,23,67,21
-9,-18,-9,13,0,-14,7,17,33,29,79,22
-2,-16,-13,9,5,-15,8,27,44,37,92,25
4,-13,-17,4,11,-16,7,36,55,46,101,28
11,-11,-22,0,16,-16,5,43,65,54,109,32
19,-7,-26,-5,22,-16,4,51,75,62,124,37
27,-2,-29,-12,28,-15,2,57,84,70,142,42
35,3,-32,-19,34,-14,-2,59,89,76,158,47
44,9,-35,-27,40,-13,-11,52,87,77,168,51
52,13,-38,-33,45,-12,-22,39,77,71,170,53
54,16,-38,-35,46,-11,-32,23,62,60,170,53
52,17,-35,-35,44,-9,-38,3,41,44,162,49
46,16,-31,-31,39,-8,-41,-22,15,25,133,44
39,12,-28,-25,33,-8,-45,-51,-16,3,98,37
29,5,-25,-17,27,-9,-49,-80,-48,-17,97,28
18,-1,-20,-8,19,-10,-52,-101,-73,-33,141,20
8,-8,-16,0,12,-12,-52,-114,-88,-44,206,12
-2,-17,-15,9,6,-16,-51,-120,-97,-52,265,5
-11,-27,-15,18,2,-21,-49,-119,-99,-56,310,-1
-17,-32,-15,24,0,-25,-45,-114,-96,-57,340,-5
-21,-34,-13,28,-4,-24,-40,-105,-89,-54,357,-6
-24,-34,-10,29,-6,-23,-34,-94,-78,-50,367,-7
-25,-34,-10,30,-7,-23,-28,-82,-67,-44,368,-8
-24,-35,-11,30,-6,-23,-22,-70,-57,-39,358,-9
-23,-34,-12,29,-5,-23,-17,-61,-48,-34,346,-9
-22,-32,-11,28,-6,-22,-14,-53,-40,-29,347,-9
-22,-30,-8,26,-7,-19,-11,-46,-32,-23,363,-7
-22,-28,-6,25,-8,-17,-9,-39,-26,-18,385,-5
-23,-26,-3,25,-9,-15,-6,-33,-20,-13,404,-3
-23,-25,-2,24,-10,-14,-3,-27,-14,-9,420,-1
-22,-23,-1,23,-10,-12,0,-23,-10,-5,436,1
-20,-21,-1,21,-9,-11,1,-20,-7,-3,457,2
-18,-20,-2,19,-8,-11,3,-18,-5,-1,481,2
-17,-20,-2,19,-8,-11,3,-17,-4,0,506,1
-17,-20,-3,19,-8,-11,4,-15,-2,1,530,1
-17,-21,-3,19,-7,-12,4,-14,-1,3,551,0
-17,-21,-4,19,-7,-12,4,-13,0,4,568,0
-17,-22,-5,19,-6,-13,4,-13,0,5,577,0
-18,-21,-4,19,-7,-12,4,-12,1,5,582,0
-18,-21,-3,19,-7,-11,5,-11,2,6,583,0
-18,-21,-4,20,-7,-12,5,-10,2,7,585,-1
-18,-22,-4,20,-7,-13,5,-10,2,7,590,-1
-19,-22,-3,20,-8,-12,6,-10,2,8,597,-1
-19,-21,-1,19,-9,-11,6,-10,3,10,606,0
-18,-19,-1,17,-8,-11,7,-9,3,11,615,0
-16,-18,-2,16,-6,-11,7,-9,4,12,620,0
-14,-18,-3,15,-5,-11,7,-9,4,12,620,0
-14,-17,-4,15,-4,-11,8,-8,4,12,616,0
-15,-17,-3,16,-5,-10,9,-7,5,13,613,0
-16,-17,-1,17,-7,-9,10,-6,6,14,613,0
-16,-16,0,16,-8,-9,11,-6,7,15,617,0
-14,-16,-1,15,-6,-9,11,-6,7,17,621,0
-13,-17,-3,15,-5,-10,10,-7,6,18,624,-1
-13,-17,-4,15,-4,-11,9,-7,6,18,626,-1
-13,-17,-4,15,-4,-11,9,-7,5,18,625,-2
-13,-17,-4,15,-4,-11,9,-7,5,17,623,-2
-14,-17,-4,16,-5,-11,8,-7,5,17,622,-3
-14,-17,-4,15,-5,-11,6,-7,5,16,625,-3
-12,-17,-5,14,-3,-11,5,-7,5,16,633,-3
-12,-16,-4,14,-4,-11,5,-6,6,15,647,-3
-14,-17,-2,15,-6,-10,5,-4,6,14,668,-2
-16,-18,-2,16,-7,-10,4,-4,6,12,698,-2
-14,-18,-4,16,-5,-11,3,-4,6,10,730,-3
-12,-17,-6,14,-3,-12,2,-5,5,9,752,-3
-11,-17,-6,14,-2,-12,2,-5,6,8,762,-3
-12,-17,-5,15,-3,-12,2,-4,7,8,766,-2
-13,-17,-4,15,-4,-11,2,-4,7,8,769,-2
-14,-17,-4,15,-4,-11,2,-4,8,7,772,-1
-14,-17,-3,15,-5,-10,1,-4,8,6,776,-1
-14,-17,-3,15,-5,-10,2,-3,9,7,778,0
-14,-16,-2,15,-6,-9,2,-2,9,8,780,1
-14,-14,-1,14,-6,-7,2,-1,9,8,782,1
-14,-14,0,14,-7,-6,2,-1,9,7,782,1
-15,-14,0,15,-7,-7,1,-1,9,7,782,1
-14,-14,-1,15,-7,-7,1,-1,9,7,786,1
-13,-14,-1,14,-7,-7,1,-1,9,8,798,1
-13,-13,-1,13,-7,-7,1,0,9,9,822,1
-13,-13,0,13,-7,-7,2,0,9,10,849,0
-13,-13,0,13,-7,-7,2,1,9,11,867,-1
-13,-13,0,13,-6,-7,2,1,8,12,868,-3
-14,-14,-1,14,-6,-7,1,1,7,12,858,-5
-15,-15,-1,15,-6,-8,1,1,6,13,849,-6
-14,-15,-2,15,-6,-9,1,1,5,14,847,-7
-10,-14,-4,12,-3,-9,1,1,3,14,859,-7
-7,-13,-6,10,-1,-9,0,1,2,16,886,-7
-8,-12,-4,10,-2,-8,0,1,0,19,802,-6
-8,-11,-3,10,-2,-7,0,2,0,23,557,-4
-7,-9,-2,8,-2,-6,0,3,0,28,425,-2
-5,-6,0,5,-2,-4,0,5,0,32,324,1
-5,-4,0,4,-3,-2,0,6,0,36,485,4
-5,-4,1,4,-3,-2,-1,7,-1,38,479,5
-5,-4,0,4,-3,-2,-2,7,-3,39,-244,6
-5,-5,0,5,-3,-2,-3,7,-5,40,-380,7
-6,-5,1,5,-4,-2,-3,8,-6,42,-125,10
-6,-6,1,6,-3,-2,-3,9,-7,44,-409,12
-5,-6,-1,6,-2,-3,-4,9,-8,46,-122,13
-4,-6,-2,5,-1,-4,-5,9,-9,49,553,14
-4,-3,-1,4,-1,-2,-5,10,-9,51,664,16
-3,-1,0,2,-2,0,-4,12,-8,54,476,18
-3,0,1,1,-2,0,-4,13,-8,55,141,19
-3,0,1,1,-2,1,-4,13,-9,56,-255,20
-3,-1,1,1,-2,1,-5,14,-9,56,-663,21
-3,-2,1,2,-2,0,-5,14,-9,56,-1056,22
-4,-2,2,2,-2,0,-5,15,-8,56,-1421,23
-3,-1,2,2,-2,1,-4,16,-6,57,-914,24
-2,0,2,1,-2,1,-5,17,-5,57,125,24
-1,0,1,1,-1,0,-6,17,-5,57,655,24
-1,1,1,0,-1,1,-6,17,-5,57,894,24
0,3,2,-1,-1,3,-6,18,-6,58,967,24
0,4,3,-2,-1,4,-6,18,-6,58,950,24
2,4,1,-3,1,3,-6,18,-7,59,884,23
4,4,0,-4,3,2,-7,18,-9,59,799,21
6,4,-1,-5,4,2,-8,17,-10,58,796,20
6,5,-2,-6,4,2,-9,17,-11,59,956,20
5,5,-1,-5,3,2,-9,18,-11,59,1203,21
3,5,0,-5,1,3,-9,18,-12,59,634,21
3,6,1,-5,1,4,-9,17,-12,59,-356,20
4,7,2,-6,1,4,-10,17,-12,59,-709,20
5,8,2,-7,1,5,-10,17,-12,59,-806,21
6,9,3,-8,1,6,-10,17,-13,59,-956,21
5,9,4,-7,0,6,-10,17,-15,58,-1206,20
3,8,4,-5,-1,5,-10,16,-17,56,-1488,19
4,8,3,-6,0,5,-10,16,-19,54,-933,19
5,8,2,-7,1,5,-10,15,-21,52,130,19
5,8,1,-6,1,4,-11,14,-22,51,673,18
4,6,1,-5,1,4,-12,13,-24,50,915,17
2,4,1,-3,0,3,-13,12,-25,49,989,16
0,3,2,-2,0,3,-14,11,-26,47,973,15
0,2,2,-1,-1,2,-15,9,-29,45,911,14
0,1,0,-1,0,1,-16,7,-31,43,831,13
1,1,-1,-1,1,0,-17,5,-33,41,745,13
2,1,-2,-1,2,0,-17,4,-35,40,660,13
0,1,0,-1,0,0,-16,4,-35,39,580,13
0,1,1,-1,0,2,-16,3,-35,39,504,13
-1,1,2,0,-1,2,-16,2,-36,39,434,13
-2,0,2,1,-1,1,-18,1,-37,37,371,12
-3,-2,2,2,-2,1,-19,1,-39,35,315,11
-6,-3,3,4,-4,0,-19,0,-40,34,268,10
-7,-3,3,5,-4,0,-20,0,-41,33,228,10
-6,-3,2,5,-4,0,-21,-2,-42,31,195,9
-6,-3,1,4,-3,-1,-21,-3,-43,30,165,8
-7,-5,1,6,-3,-2,-22,-4,-44,28,137,7
-9,-7,1,8,-4,-3,-24,-5,-46,27,111,6
-10,-9,1,9,-4,-3,-25,-6,-46,27,87,5
-10,-9,1,9,-4,-4,-25,-7,-46,27,65,5
-10,-10,0,9,-4,-4,-25,-7,-47,26,51,4
-10,-10,0,10,-5,-5,-25,-8,-47,25,49,4
-10,-10,0,10,-5,-5,-25,-8,-47,25,-45,3
-9,-10,-2,9,-3,-5,-25,-9,-45,24,-280,2
-7,-9,-3,8,-2,-6,-25,-10,-43,24,-480,1
-7,-10,-3,9,-1,-6,-25,-10,-42,23,-555,0
-7,-12,-5,10,0,-8,-25,-11,-41,22,-567,-1
-7,-13,-6,10,0,-9,-25,-11,-40,22,-549,-2
-8,-13,-5,11,-1,-8,-24,-11,-38,23,-515,-1
-10,-13,-3,12,-4,-7,-22,-11,-37,25,-473,0
-12,-13,-1,12,-6,-7,-21,-10,-36,26,-428,0
-12,-13,-1,12,-6,-7,-20,-10,-35,26,-384,0
-13,-13,-2,13,-6,-8,-19,-10,-35,25,-344,0
-12,-14,-2,13,-5,-8,-18,-10,-35,25,-309,0
-11,-13,-3,12,-3,-8,-17,-10,-35,25,-280,-1
-9,-12,-3,10,-2,-8,-16,-10,-34,26,-253,-1
-9,-12,-3,10,-3,-8,-16,-11,-34,26,-223,-2
-11,-13,-2,11,-4,-8,-16,-12,-34,25,-264,-4
-11,-14,-3,12,-4,-9,-15,-12,-34,24,-493,-5
-10,-14,-4,12,-3,-9,-13,-12,-33,24,-884,-6
-10,-14,-5,12,-2,-10,-11,-12,-32,26,-1288,-6
-11,-16,-7,13,-1,-11,-10,-12,-32,26,-1567,-7
-13,-19,-7,16,-2,-13,-9,-13,-32,26,-1665,-7
-15,-20,-5,17,-4,-13,-7,-12,-31,26,-1649,-7
-14,-19,-5,16,-4,-12,-6,-10,-29,27,-1598,-7
-11,-17,-6,14,-2,-12,-6,-10,-29,27,-1559,-8
-9,-17,-8,13,-1,-12,-6,-11,-30,27,-1601,-8
-10,-18,-8,14,-1,-13,-6,-12,-30,27,-926,-8
-11,-17,-7,14,-2,-12,-7,-12,-30,28,-578,-8
-10,-15,-6,13,-2,-10,-8,-12,-30,29,-1037,-7
-10,-15,-5,12,-2,-10,-9,-12,-31,30,-1056,-8
-10,-15,-5,12,-2,-10,-10,-13,-31,29,-924,-9
-10,-15,-5,13,-2,-10,-10,-13,-31,29,-810,-9
-11,-16,-5,14,-3,-10,-11,-13,-31,29,-776,-10
-12,-16,-4,14,-4,-10,-11,-12,-31,29,-842,-10
-12,-15,-4,14,-4,-9,-11,-12,-31,29,-945,-10
-10,-15,-5,13,-3,-9,-12,-12,-30,30,-1007,-10
-10,-15,-5,13,-2,-10,-12,-12,-30,30,-1014,-10
-12,-16,-4,14,-3,-10,-12,-12,-30,30,-979,-10
-13,-16,-4,14,-4,-9,-13,-12,-30,29,-916,-11
-11,-16,-5,13,-2,-10,-14,-12,-30,27,-840,-12
-9,-16,-7,12,0,-11,-15,-12,-30,25,-762,-13
-8,-16,-8,12,0,-12,-15,-13,-30,23,-683,-15
-10,-16,-6,13,-2,-11,-15,-13,-28,22,-608,-15
-13,-15,-3,14,-4,-10,-16,-12,-26,21,-538,-15
-13,-14,-1,14,-6,-8,-16,-12,-25,20,-475,-14
-12,-13,-2,13,-5,-8,-16,-12,-24,17,-421,-14
-12,-15,-4,14,-3,-9,-16,-12,-25,14,-376,-15
-12,-16,-5,14,-3,-10,-15,-12,-25,13,-337,-15
-11,-17,-6,14,-3,-11,-14,-12,-24,13,-304,-15
-10,-17,-7,14,-2,-12,-14,-11,-24,12,-273,-15
-10,-18,-8,14,-1,-13,-15,-12,-24,12,-243,-15
-9,-17,-9,13,0,-13,-15,-12,-24,11,-217,-15
-9,-15,-8,12,0,-12,-14,-12,-23,11,-178,-13
-10,-14,-6,12,-1,-10,-13,-11,-22,11,-97,-12
-12,-14,-4,13,-3,-9,-13,-10,-21,11,23,-10
-12,-14,-2,13,-5,-7,-12,-9,-19,12,157,-9
-11,-13,-2,11,-4,-7,-11,-9,-19,12,285,-9
-9,-13,-4,10,-2,-8,-11,-9,-19,10,403,-10
-9,-13,-4,10,-2,-8,-11,-9,-19,9,535,-10
-10,-12,-3,11,-4,-7,-11,-9,-19,8,695,-9
-10,-12,-3,12,-4,-8,-11,-10,-19,7,873,-9
-10,-12,-3,12,-4,-8,-12,-10,-19,6,552,-9
-11,-12,-2,12,-4,-8,-12,-10,-18,6,157,-9
-10,-12,-3,11,-3,-8,-13,-10,-17,5,58,-9
-8,-12,-4,10,-2,-8,-13,-10,-17,5,-243,-10
-8,-13,-5,10,-1,-9,-12,-10,-16,4,-611,-10
-9,-13,-4,11,-2,-9,-11,-10,-15,5,-976,-11
-10,-13,-4,11,-2,-9,-10,-9,-14,6,-1325,-11
-10,-12,-4,11,-2,-9,-10,-9,-13,6,-812,-10
-10,-13,-4,12,-3,-9,-11,-9,-13,6,225,-10
-12,-14,-3,13,-4,-9,-11,-9,-14,5,750,-11
-13,-14,-2,13,-5,-8,-11,-9,-14,4,981,-11
-13,-15,-2,13,-5,-8,-12,-9,-15,3,1047,-10
-14,-15,-1,14,-6,-8,-13,-9,-15,2,1025,-10
-15,-16,0,15,-7,-8,-12,-9,-14,2,959,-11
-14,-16,-1,15,-6,-8,-12,-10,-14,1,877,-11
-11,-15,-4,13,-3,-10,-12,-10,-15,-1,789,-12
-10,-15,-5,12,-1,-10,-12,-11,-15,-3,704,-12
-10,-14,-4,12,-2,-9,-12,-10,-14,-4,645,-12
-11,-14,-3,12,-3,-8,-11,-10,-13,-6,612,-11
-12,-15,-2,13,-4,-8,-10,-9,-12,-8,578,-11
-13,-15,-2,14,-5,-9,-10,-9,-12,-10,539,-11
-12,-14,-2,13,-4,-9,-9,-9,-12,-11,520,-11
-11,-14,-3,12,-4,-9,-9,-9,-12,-12,535,-10
-10,-13,-4,12,-3,-9,-9,-9,-11,-13,568,-9
-8,-13,-5,11,-1,-9,-9,-9,-11,-15,594,-8
-8,-13,-6,10,0,-9,-9,-9,-10,-17,591,-7
-9,-13,-4,10,-1,-8,-9,-9,-9,-19,529,-6
-10,-13,-3,11,-3,-7,-9,-9,-7,-21,430,-5
-11,-13,-2,11,-4,-7,-9,-9,-7,-24,354,-4
-10,-14,-3,11,-3,-8,-9,-9,-6,-27,330,-4
-9,-13,-4,11,-2,-9,-8,-8,-5,-29,358,-4
-9,-13,-5,11,-2,-9,-7,-7,-4,-31,421,-3
-10,-13,-4,12,-3,-9,-6,-5,-2,-34,486,-2
-12,-14,-2,14,-5,-8,-6,-4,-1,-38,537,-1
-13,-14,-1,13,-6,-8,-6,-4,0,-45,596,0
-11,-13,-1,11,-4,-7,-6,-4,1,-52,682,1
-8,-11,-2,8,-2,-7,-5,-4,2,-58,792,2
-6,-9,-2,7,-1,-6,-5,-4,2,-63,910,3
-7,-9,-1,7,-2,-6,-5,-3,3,-67,1024,4
-11,-10,0,10,-5,-5,-4,-2,5,-70,1128,4
-13,-11,1,12,-7,-5,-3,-1,6,-72,1212,5
-13,-11,0,12,-6,-5,-2,-1,7,-73,1279,5
-11,-11,0,11,-5,-5,-2,-1,9,-74,1333,6
-9,-10,-1,9,-3,-5,-1,-1,10,-75,1371,7
-6,-8,-2,7,-1,-5,-1,0,11,-76,1405,7
-4,-7,-3,5,0,-5,0,0,12,-77,1451,8
-4,-7,-2,5,0,-5,0,0,13,-78,1488,10
-6,-7,-1,6,-2,-4,2,1,15,-78,1466,12
-8,-5,1,6,-4,-2,4,2,18,-77,1381,14
-8,-4,3,6,-5,-1,5,3,19,-76,1265,15
-6,-4,2,5,-4,-1,4,3,20,-75,1141,16
-4,-3,0,3,-2,-1,4,3,20,-75,1017,16
-3,-4,0,3,-1,-2,3,2,20,-76,898,16
-3,-4,-1,2,0,-2,2,2,20,-78,788,16
-2,-4,-2,2,0,-2,1,1,20,-80,689,15
-2,-3,-1,2,0,-2,1,0,21,-81,602,15
-3,-3,0,2,-1,-2,1,0,22,-80,528,16
-4,-2,0,3,-2,-1,1,0,23,-78,474,17
-5,-2,2,3,-3,0,1,1,24,-76,397,18
-4,-1,3,2,-3,1,0,1,25,-76,266,19
-3,-1,2,2,-3,1,0,1,25,-76,29,19
-4,-1,3,2,-3,1,0,1,25,-75,-383,19
-6,-2,3,3,-4,1,1,2,26,-74,-103,19
-5,-2,2,3,-4,0,2,1,27,-72,549,18
-3,-2,-1,2,-1,-1,1,0,27,-72,625,17
-1,-3,-3,2,1,-3,2,-1,27,-73,434,16
-3,-5,-4,3,1,-4,3,-1,28,-73,105,15
-5,-8,-4,6,0,-6,4,-1,28,-73,-279,15
-7,-10,-4,8,-1,-7,5,-1,28,-73,-675,14
-6,-11,-5,8,0,-7,6,-1,29,-72,-1058,14
-4,-9,-6,6,1,-7,7,0,30,-69,-578,14
-3,-8,-5,5,1,-6,8,0,30,-66,430,14
-4,-7,-4,6,0,-6,8,-1,30,-64,933,13
-5,-8,-4,7,0,-7,7,-1,29,-63,1149,12
-6,-11,-6,8,1,-9,7,-1,28,-63,1204,11
-7,-13,-6,10,0,-10,8,-2,27,-61,1174,10
-8,-14,-6,10,0,-10,8,-2,27,-59,1097,10
-9,-14,-3,11,-2,-8,9,-2,26,-57,1000,10
-12,-13,0,12,-5,-6,9,-3,26,-54,897,9
-12,-13,0,11,-6,-6,10,-3,26,-52,797,9
-8,-12,-3,9,-2,-8,10,-4,26,-50,705,8
-4,-12,-8,8,2,-10,9,-4,25,-49,624,7
-3,-13,-11,8,4,-12,8,-5,24,-48,552,6
-4,-15,-12,9,4,-13,9,-4,24,-46,489,6
-6,-16,-11,11,3,-13,9,-4,24,-44,432,6
-7,-17,-10,12,2,-14,9,-4,24,-43,378,6
-8,-17,-10,12,2,-13,9,-5,23,-43,331,5
-7,-16,-9,11,2,-13,8,-5,22,-42,288,4
-4,-15,-10,9,3,-12,8,-5,22,-42,251,4
-3,-13,-11,7,4,-12,8,-5,22,-41,221,4
-4,-13,-10,8,3,-11,10,-4,23,-39,200,5
-6,-15,-9,10,1,-12,10,-3,23,-38,182,5
-7,-17,-11,12,2,-14,9,-4,22,-39,107,4
-5,-18,-13,11,4,-15,8,-5,21,-40,-107,3
-5,-18,-12,11,4,-15,9,-5,21,-41,-438,4
-7,-18,-11,12,2,-14,9,-5,21,-42,-813,4
-8,-18,-10,12,1,-14,9,-5,21,-44,-1194,5
-8,-18,-10,13,1,-14,9,-6,21,-47,-726,5
-7,-18,-11,13,2,-15,9,-7,20,-51,264,5
-5,-17,-13,11,4,-15,9,-7,20,-54,779,5
-3,-15,-13,9,5,-14,9,-8,20,-57,1120,5
-3,-14,-11,9,4,-13,8,-8,19,-62,1437,6
-5,-15,-10,10,3,-12,8,-8,19,-67,907,7
-9,-17,-9,13,1,-13,9,-7,20,-72,-146,7
-10,-20,-10,15,0,-15,9,-7,20,-77,-686,7
-8,-21,-13,14,2,-17,9,-8,20,-82,-929,7
-7,-21,-14,13,3,-17,10,-8,20,-87,-1005,8
-7,-20,-12,13,2,-16,11,-7,20,-93,-991,8
-8,-19,-11,13,2,-15,13,-7,21,-98,-930,9
-7,-17,-11,12,2,-15,14,-5,23,-98,-849,10
-4,-16,-12,10,4,-14,16,-1,27,-94,-764,12
-3,-15,-13,9,5,-14,18,3,31,-90,-681,15
-2,-16,-13,9,6,-15,18,9,37,-85,-603,17
-1,-15,-14,8,6,-15,19,16,45,-78,-530,21
1,-14,-15,6,8,-14,20,27,56,-65,-462,27
5,-11,-17,3,11,-14,22,38,70,-48,-399,35
13,-8,-22,-2,18,-15,22,47,82,-31,-343,41
22,-6,-29,-8,26,-18,22,54,91,-15,-328,46
31,-4,-35,-14,33,-20,21,60,100,0,-252,51
41,1,-40,-21,40,-20,19,64,107,15,-26,57
49,7,-42,-28,46,-18,14,62,107,25,-75,63
56,13,-43,-35,49,-15,5,52,100,27,201,68
61,17,-44,-39,52,-14,-3,38,88,23,190,69
61,18,-44,-40,52,-13,-10,22,71,15,-464,66
56,17,-40,-37,48,-12,-14,0,49,3,-777,61
47,12,-36,-29,42,-12,-18,-26,20,-13,-985,53
36,4,-33,-20,34,-14,-21,-55,-12,-33,-1095,43
25,-3,-30,-11,28,-16,-23,-79,-41,-52,-1186,32
16,-10,-27,-3,22,-18,-25,-96,-62,-65,-1351,24
8,-18,-26,4,17,-21,-26,-105,-74,-73,-1474,17
2,-25,-27,11,15,-25,-26,-107,-80,-77,-1434,11
-3,-30,-27,16,12,-29,-26,-105,-80,-77,-1343,8
-8,-34,-26,21,9,-31,-25,-99,-76,-72,-1287,6
-11,-37,-25,24,7,-31,-22,-90,-69,-64,-1249,7
-14,-37,-23,26,4,-30,-18,-79,-60,-54,-1222,8
-18,-37,-19,28,0,-28,-13,-68,-49,-44,-1203,10
-19,-36,-17,27,-1,-26,-8,-59,-41,-35,-1189,12
-16,-33,-17,24,0,-25,-5,-52,-34,-27,-1176,14
-12,-29,-17,20,2,-23,-3,-45,-27,-18,-1165,17
-10,-26,-15,18,3,-21,-1,-38,-21,-10,-1151,20
-9,-23,-13,16,2,-18,2,-32,-15,-2,-1137,23
-7,-21,-13,14,3,-17,3,-27,-10,4,-1123,26
-6,-20,-13,14,3,-16,4,-23,-7,9,-1108,27
-8,-20,-12,14,2,-16,5,-20,-4,14,-1098,28
-9,-19,-11,14,1,-15,7,-17,-2,19,-1088,30
-7,-17,-10,12,2,-14,8,-15,0,23,-1077,31
-4,-15,-11,9,3,-13,8,-14,2,26,-1081,33
-4,-15,-11,9,3,-13,7,-13,4,28,-1125,34
-5,-15,-10,10,2,-13,7,-11,6,29,-1227,35
-5,-16,-11,11,2,-13,7,-10,7,29,-1375,36
-3,-16,-13,10,4,-14,7,-10,8,29,-1564,36
-2,-16,-14,10,6,-15,7,-10,9,30,-976,36
-1,-16,-14,9,6,-15,9,-8,11,31,43,37
-1,-15,-13,8,6,-14,9,-7,12,32,486,37
-1,-15,-14,7,7,-15,7,-7,11,31,601,36
0,-15,-15,7,8,-16,7,-7,11,30,529,36
1,-15,-17,6,9,-16,6,-7,11,29,348,36
3,-15,-18,6,10,-16,6,-7,10,29,95,36
4,-15,-18,6,11,-16,5,-7,10,30,-190,36
3,-15,-17,6,11,-16,6,-6,10,31,-445,36
2,-15,-16,7,10,-16,6,-6,11,31,-621,36
2,-14,-16,6,10,-16,6,-6,11,31,-720,36
3,-13,-16,4,10,-15,7,-5,11,31,-774,36
3,-12,-15,4,9,-14,7,-4,11,32,-801,37
2,-11,-13,4,8,-13,7,-3,12,31,-808,38
1,-10,-12,5,6,-12,7,-2,13,29,-806,38
0,-11,-11,6,6,-11,7,-2,15,29,-798,38
1,-11,-11,5,6,-11,7,-2,15,28,-786,37
2,-10,-12,5,7,-11,7,-2,15,28,-776,36
2,-10,-13,4,8,-11,7,-3,15,29,-767,36
4,-9,-14,2,10,-11,7,-2,16,31,-757,35
6,-9,-15,1,11,-12,8,-2,16,32,-747,35
4,-10,-15,2,10,-12,8,-1,16,32,-733,35
3,-10,-15,3,9,-13,7,-1,16,30,-717,35
4,-11,-15,3,10,-13,7,-1,16,29,-701,34
4,-11,-16,4,10,-13,7,-1,16,29,-685,35
4,-11,-16,4,10,-13,7,0,16,30,-671,35
4,-11,-15,4,10,-13,7,0,16,30,-636,34
3,-10,-14,4,8,-12,7,-1,16,30,-670,33
2,-9,-11,3,6,-11,7,-1,16,30,-841,33
1,-8,-9,3,5,-9,8,0,17,31,-1027,33
1,-6,-7,3,4,-7,9,1,19,34,-1171,34
2,-5,-8,2,5,-7,10,2,20,35,-1345,33
5,-5,-11,0,7,-8,10,2,20,36,-765,32
7,-5,-13,-1,10,-9,9,2,20,36,357,31
10,-4,-15,-2,12,-9,9,2,20,36,1045,30
13,-4,-17,-4,15,-10,8,2,20,35,1454,30
14,-4,-18,-5,16,-11,7,2,20,35,1698,29
13,-5,-18,-4,15,-11,7,3,20,35,1843,29
12,-4,-16,-4,13,-10,7,4,21,35,1935,28
11,-4,-15,-4,12,-9,7,4,21,34,1992,27
10,-4,-15,-3,12,-9,6,4,21,33,2029,25
10,-4,-15,-3,13,-10,6,4,21,33,2053,24
10,-4,-15,-3,13,-10,7,5,22,33,2067,24
10,-4,-14,-3,12,-9,8,6,22,33,2074,25
9,-4,-12,-2,11,-8,8,7,23,33,2080,25
9,-2,-11,-3,10,-7,9,8,24,33,2084,26
10,0,-10,-5,10,-6,10,9,24,34,2090,27
12,1,-11,-7,12,-5,9,9,24,34,2097,27
14,2,-12,-8,13,-5,8,9,24,33,2104,27
14,2,-12,-8,13,-5,8,9,24,33,2112,27
14,2,-11,-8,12,-4,8,10,25,34,1281,28
14,4,-9,-9,12,-3,9,11,25,35,-47,30
14,6,-8,-9,11,-1,10,13,26,35,-836,31
13,5,-8,-9,11,-1,10,14,26,36,-1302,31
14,5,-9,-9,12,-2,10,15,26,36,-747,31
16,5,-11,-10,13,-3,10,15,26,36,-412,32
16,5,-11,-11,14,-3,10,16,27,38,-913,33
16,5,-11,-11,14,-3,10,17,28,39,-883,34
17,6,-11,-12,14,-2,11,18,28,39,-455,35
19,7,-11,-13,15,-2,11,20,29,39,211,36
19,8,-10,-13,15,-1,11,21,30,39,76,37
18,10,-8,-14,13,0,12,22,31,39,-741,39
17,10,-6,-13,12,1,12,23,31,38,-1233,40
16,10,-6,-13,12,1,11,23,31,38,-1525,41
17,11,-7,-14,12,1,10,23,32,38,-1695,42
18,12,-7,-15,13,2,9,24,33,39,-1795,44
19,12,-7,-15,13,2,8,24,34,38,-1853,45
20,11,-9,-15,15,0,7,24,33,36,-1890,45
23,10,-13,-17,18,-1,5,24,32,35,-1912,44
26,11,-14,-19,20,-1,5,25,32,35,-1925,45
27,14,-13,-21,20,1,5,26,33,35,-1933,47
26,16,-10,-22,18,3,6,27,33,36,-1935,48
25,18,-7,-22,16,5,6,27,34,36,-1935,49
24,20,-5,-22,14,7,6,27,34,36,-1933,50
24,21,-4,-22,14,8,6,27,34,36,-1931,50
26,21,-5,-23,15,8,6,27,34,36,-1930,51
27,22,-5,-23,16,8,6,27,34,35,-1931,51
26,22,-4,-23,15,9,6,28,33,35,-1932,51
25,22,-4,-23,14,9,5,27,32,35,-1932,51
26,22,-5,-24,16,8,3,26,31,35,-1932,51
27,22,-6,-24,17,7,2,25,31,34,-1929,50
27,21,-5,-24,16,7,3,25,31,34,-1926,51
25,20,-5,-22,15,7,3,25,30,34,-1924,51
25,18,-7,-22,16,5,4,24,29,32,-1922,50
25,18,-8,-21,17,4,4,23,28,31,-1922,49
25,18,-8,-21,17,4,3,23,27,30,-1923,48
25,18,-8,-21,17,4,3,22,27,29,-1856,48
24,17,-8,-21,16,4,3,21,26,27,-1766,47
24,18,-6,-21,15,5,3,20,25,26,-1736,46
24,19,-5,-22,14,6,3,20,25,24,-1328,46
26,19,-7,-23,16,5,3,19,25,22,-447,45
27,18,-10,-23,19,3,3,17,23,19,23,44
26,16,-11,-21,19,2,3,15,22,18,-260,43
23,14,-11,-19,18,1,3,14,22,16,-16,42
22,12,-11,-17,17,1,2,13,21,14,653,42
21,12,-10,-17,16,1,3,13,20,12,761,41
21,12,-10,-17,16,1,3,12,20,11,574,41
22,11,-11,-16,16,0,2,10,19,9,243,40
22,10,-12,-16,17,-1,2,8,17,7,-145,39
22,9,-13,-15,18,-2,1,7,16,5,-545,38
22,9,-13,-15,18,-2,2,6,15,5,-931,38
20,8,-13,-14,17,-2,2,5,14,3,-1292,37
18,6,-13,-12,16,-3,2,3,12,1,-785,36
18,5,-13,-11,16,-4,1,2,10,0,251,34
17,4,-13,-10,16,-5,1,1,9,-1,780,34
15,3,-12,-9,14,-4,1,0,8,-1,1020,33
12,3,-9,-7,11,-4,2,0,8,-2,1097,33
11,3,-8,-7,9,-3,3,0,8,-3,1085,32
12,4,-8,-8,10,-3,3,0,8,-5,1027,31
13,5,-8,-8,11,-2,3,-1,8,-7,946,30
13,5,-9,-9,11,-2,4,-1,8,-8,858,29
15,5,-10,-9,13,-3,3,-2,7,-9,771,28
17,4,-13,-10,15,-5,2,-4,6,-12,689,26
18,3,-15,-10,16,-6,1,-5,5,-15,616,25
16,2,-14,-9,15,-6,2,-5,6,-17,550,24
13,2,-12,-7,12,-5,2,-5,6,-20,492,24
12,2,-10,-7,11,-4,2,-5,6,-22,441,23
12,3,-10,-8,11,-4,1,-6,5,-25,393,22
13,2,-10,-8,11,-4,1,-7,4,-27,350,21
12,1,-10,-6,11,-4,1,-7,4,-28,312,21
10,0,-10,-4,10,-5,1,-7,3,-28,279,21
10,0,-11,-4,10,-6,1,-8,2,-28,251,21
11,0,-12,-4,11,-6,0,-8,1,-29,228,20
13,0,-14,-6,14,-7,0,-9,0,-30,208,20
14,0,-14,-7,14,-7,0,-9,0,-30,191,20
12,0,-12,-6,11,-6,1,-9,1,-30,175,21
9,0,-9,-5,9,-4,2,-9,2,-30,159,22
10,1,-9,-6,9,-4,2,-9,3,-31,144,22
12,2,-10,-7,11,-4,1,-10,3,-33,131,21
15,3,-12,-8,13,-4,0,-10,2,-35,120,20
17,3,-14,-9,15,-5,0,-11,1,-38,113,19
18,4,-14,-10,16,-4,0,-11,1,-40,107,19
17,5,-12,-10,14,-3,0,-10,1,-41,103,20
14,5,-10,-9,12,-2,0,-10,0,-43,98,20
12,4,-8,-8,10,-2,-1,-10,0,-45,90,20
12,4,-8,-8,10,-2,-1,-10,0,-49,82,20
13,3,-9,-8,11,-2,-2,-10,0,-53,127,20
13,3,-10,-8,11,-3,-2,-10,0,-56,-52,20
11,3,-8,-7,9,-1,-2,-9,0,-60,-100,21
9,3,-5,-6,6,0,-1,-8,0,-64,142,21
8,3,-4,-5,5,0,-1,-8,0,-68,391,21
8,3,-5,-6,6,-1,-2,-9,0,-71,759,20
9,3,-6,-6,7,-2,-2,-9,-1,-75,1115,18
10,3,-7,-7,8,-2,-3,-10,-2,-78,1454,17
12,3,-8,-8,9,-3,-4,-11,-4,-82,932,16
13,3,-10,-8,11,-3,-5,-12,-5,-86,-116,15
14,4,-10,-8,11,-3,-4,-12,-6,-90,-702,14
12,4,-8,-8,10,-1,-3,-11,-6,-95,-840,14
12,4,-8,-8,10,-1,-2,-11,-6,-100,-530,12
14,4,-10,-9,12,-2,-2,-11,-6,-105,-404,10
15,4,-11,-10,12,-3,-1,-11,-7,-108,-383,6
12,3,-9,-8,10,-2,0,-11,-7,-110,-58,3
10,4,-6,-7,8,-1,1,-11,-6,-111,328,0
9,4,-6,-6,7,0,2,-10,-6,-110,314,-2
10,3,-7,-6,8,-1,2,-10,-6,-109,-299,-5
10,3,-7,-6,8,-1,2,-10,-6,-106,-507,-8
8,3,-5,-6,7,-1,2,-10,-6,-102,185,-10
7,3,-4,-5,5,0,3,-10,-6,-96,436,-12
6,3,-2,-5,4,0,4,-9,-5,-90,370,-14
5,4,-1,-5,4,1,5,-8,-5,-83,88,-16
6,5,-2,-6,4,1,5,-7,-5,-76,-371,-19
8,5,-4,-6,6,0,5,-8,-5,-71,-178,-23
10,5,-5,-7,8,0,6,-8,-5,-66,340,-25
11,6,-5,-7,8,0,7,-7,-4,-59,166,-27
9,5,-4,-6,6,1,7,-7,-3,-53,-476,-28
7,3,-3,-5,5,0,7,-6,-3,-47,-596,-28
7,2,-3,-5,5,0,7,-6,-3,-41,-432,-27
10,4,-5,-7,7,0,7,-6,-3,-37,-130,-26
13,7,-7,-10,10,0,7,-6,-3,-34,225,-25
15,8,-7,-12,11,1,7,-6,-3,-32,585,-24
15,9,-6,-11,10,1,6,-6,-3,-30,931,-23
13,8,-5,-10,9,1,6,-5,-3,-27,1266,-21
11,7,-4,-8,7,2,6,-5,-3,-24,753,-20
10,7,-3,-8,6,2,6,-5,-3,-21,-281,-19
9,6,-3,-8,5,2,6,-4,-2,-16,-801,-17
9,6,-3,-8,5,2,7,-4,-2,-12,-1026,-16
9,6,-4,-8,6,1,7,-3,-1,-8,-1088,-15
11,6,-5,-8,7,1,7,-3,-1,-5,-1066,-14
12,7,-5,-9,8,1,7,-3,0,-4,-1004,-14
12,8,-4,-9,7,2,7,-3,0,-2,-917,-13
12,8,-4,-9,7,2,8,-2,0,-1,-824,-12
12,8,-3,-9,7,2,8,-2,0,1,-744,-11
11,8,-3,-9,7,2,8,-2,0,2,-674,-10
11,8,-3,-10,7,2,7,-2,0,3,-610,-9
11,8,-3,-10,7,1,7,-1,0,4,-550,-8
8,7,-2,-8,5,2,8,0,0,6,-493,-7
5,6,0,-5,2,3,8,0,1,8,-438,-6
5,5,0,-4,1,3,7,0,1,9,-390,-6
7,5,-1,-5,3,2,6,0,0,11,-349,-6
9,6,-4,-7,6,1,6,0,0,13,-314,-6
10,6,-4,-7,6,1,6,1,0,16,-284,-6
8,6,-2,-7,5,2,6,1,1,20,-259,-5
7,7,-1,-7,4,3,7,2,2,23,-239,-5
7,8,0,-8,4,3,6,2,1,25,-222,-5
7,8,0,-7,3,3,6,2,1,27,-202,-4
6,8,1,-6,2,4,7,3,2,30,-175,-2
5,8,2,-6,1,4,7,4,2,32,-140,-1
7,8,1,-7,2,4,6,4,1,35,-105,-1
9,9,0,-9,4,5,5,3,1,37,-76,-2
10,10,0,-11,5,5,5,3,0,39,-56,-2
10,11,1,-11,4,5,5,3,0,41,-41,-3
9,11,1,-10,4,5,5,3,0,43,-30,-3
9,11,1,-10,4,5,5,3,0,44,-24,-3
10,11,1,-10,4,5,5,3,0,45,-24,-3
10,12,1,-10,4,6,6,3,0,47,-20,-2
11,13,1,-11,4,7,7,4,0,49,-9,-2
12,13,0,-12,5,7,8,5,0,51,0,-2
10,11,0,-11,4,6,8,5,0,53,7,-2
8,10,2,-10,2,6,9,6,0,56,12,-2
8,12,4,-10,1,8,11,7,2,59,17,-1
8,14,6,-11,1,10,11,7,3,61,19,0
7,15,7,-10,0,11,11,7,3,62,17,0
6,15,7,-9,0,11,11,6,3,62,15,-1
7,14,7,-10,0,11,10,6,3,62,17,-2
8,15,7,-11,0,11,11,6,4,62,23,-1
9,16,7,-12,0,12,11,6,5,64,33,0
9,16,7,-13,1,12,11,7,6,65,43,0
10,18,7,-14,1,13,11,7,7,65,49,-1
13,20,7,-16,3,13,10,6,7,64,51,-2
14,20,5,-17,4,12,8,5,6,63,52,-5
14,19,3,-16,5,10,6,3,4,61,54,-7
14,17,3,-15,5,10,5,3,4,61,59,-8
12,18,5,-14,3,11,5,4,4,62,65,-8
12,19,7,-15,1,13,5,4,5,63,70,-8
13,20,7,-16,2,14,5,4,5,63,74,-9
13,20,7,-16,2,14,4,4,5,62,75,-11
12,20,6,-16,3,13,4,4,5,61,74,-12
13,19,4,-16,5,11,3,4,5,60,74,-14
14,18,3,-15,5,10,3,4,5,59,74,-16
12,17,4,-14,4,10,3,4,6,58,75,-17
11,16,5,-13,2,11,3,5,6,58,77,-17
11,16,5,-13,2,11,3,5,6,58,80,-18
11,16,5,-13,2,10,4,5,6,57,82,-19
10,14,4,-12,2,8,4,5,5,56,84,-20
8,11,3,-9,2,7,4,5,5,55,87,-22
6,10,3,-8,1,6,4,5,5,54,91,-23
6,10,3,-7,1,7,5,5,5,53,91,-23
7,10,3,-8,1,7,5,6,5,52,89,-23
8,10,2,-8,2,6,5,7,4,50,88,-23
7,9,2,-7,1,5,6,7,4,49,87,-23
6,8,2,-7,1,4,6,7,4,47,86,-23
6,8,1,-7,2,4,7,7,3,46,83,-22
7,7,0,-7,3,3,7,7,2,44,77,-23
8,7,-1,-8,5,2,7,7,1,42,70,-24
9,7,-2,-8,6,2,8,7,1,39,65,-24
8,8,0,-7,5,3,9,8,2,38,61,-23
5,8,2,-6,2,5,10,8,2,37,58,-21
5,7,2,-6,1,4,10,8,2,35,56,-21
7,6,0,-6,4,2,9,6,0,33,53,-21
8,5,-2,-6,5,1,8,5,-1,31,50,-22
6,4,-2,-5,5,0,9,5,-1,30,47,-22
5,3,-2,-4,4,0,10,6,-1,29,42,-22
5,3,-2,-4,4,0,11,6,-1,30,37,-21
6,4,-2,-5,4,1,13,7,0,31,33,-20
7,4,-3,-5,5,0,14,8,0,31,28,-19
6,3,-3,-5,5,0,14,7,-1,31,23,-20
6,3,-3,-4,4,0,14,6,-1,30,19,-20
6,3,-3,-4,4,0,14,6,-1,30,16,-20
5,2,-4,-3,4,-1,15,6,-1,30,13,-20
5,2,-4,-3,4,-1,15,6,-1,30,10,-20
5,3,-4,-4,5,0,16,6,-1,31,7,-20
6,3,-3,-4,5,0,16,6,-1,31,4,-20
5,3,-2,-4,4,0,17,6,-1,31,2,-20
4,2,-1,-3,2,0,17,6,-1,31,2,-19
3,2,-1,-3,2,0,18,7,-1,31,3,-19
4,2,-1,-4,2,0,18,7,0,31,3,-19
4,3,0,-4,2,1,18,8,1,31,3,-18
4,4,0,-4,2,2,17,9,1,31,1,-18
2,4,1,-3,0,2,16,10,2,30,0,-18
0,3,2,-2,-1,2,14,10,1,29,-2,-18
1,3,1,-2,0,2,12,9,0,28,-4,-19
3,3,0,-3,1,1,11,8,0,27,-3,-19
3,4,0,-4,1,2,10,8,1,27,-1,-18
3,5,1,-4,0,3,11,9,3,28,2,-18
4,5,1,-4,0,3,11,11,4,29,6,-18
4,4,0,-4,2,2,12,14,6,30,10,-18
4,5,0,-5,2,2,13,19,11,33,15,-17
5,6,0,-5,2,3,15,27,19,39,21,-14
7,7,0,-7,3,3,17,36,28,47,28,-11
11,7,-4,-9,7,2,18,45,39,56,35,-8
17,9,-8,-13,12,1,18,54,50,66,42,-4
23,11,-11,-17,17,0,16,62,61,75,48,-1
30,14,-15,-22,22,0,14,70,72,84,53,3
37,17,-19,-27,28,-1,13,77,82,92,57,8
45,23,-22,-34,33,0,10,82,90,99,61,14
53,29,-25,-41,39,1,4,81,94,104,63,20
60,34,-26,-47,43,3,-5,74,91,103,62,25
63,36,-27,-49,45,3,-14,62,81,95,57,28
64,37,-28,-50,45,4,-22,46,66,82,47,26
63,37,-26,-50,43,6,-29,25,42,63,35,21
57,36,-22,-47,39,7,-35,-2,11,39,21,13
49,31,-19,-41,33,6,-40,-32,-24,12,7,4
40,24,-17,-33,28,4,-45,-58,-57,-13,-6,-4
31,16,-15,-24,22,0,-49,-77,-81,-33,-17,-13
22,8,-15,-15,18,-4,-50,-88,-96,-47,-23,-21
15,-1,-17,-7,16,-10,-49,-92,-104,-56,-26,-29
10,-8,-19,-1,15,-14,-47,-91,-107,-60,-25,-35
6,-12,-19,3,12,-16,-44,-85,-104,-58,-20,-38
3,-13,-16,5,10,-15,-39,-75,-97,-53,-12,-39
2,-13,-15,5,8,-14,-32,-63,-88,-46,-3,-39
1,-12,-13,5,7,-13,-25,-51,-78,-38,4,-37
-1,-10,-10,6,5,-10,-18,-40,-68,-30,10,-36
-4,-9,-6,7,1,-8,-12,-30,-60,-24,15,-34
-6,-8,-2,7,-2,-5,-8,-23,-53,-17,19,-33
-7,-6,0,7,-4,-3,-5,-16,-46,-11,24,-31
-7,-5,2,6,-4,-1,-3,-10,-38,-6,28,-28
-4,-4,1,4,-3,0,-1,-5,-31,-1,32,-26
-2,-2,1,2,-1,0,0,-1,-25,3,35,-24
0,0,1,0,-1,1,1,2,-20,6,36,-22
0,0,1,0,-1,1,3,4,-16,8,36,-21
-1,1,2,0,-1,1,4,6,-13,10,35,-20
-1,1,2,0,-1,1,4,7,-10,12,34,-20
0,1,2,0,-1,1,4,9,-8,13,33,-19
0,0,1,0,0,0,4,10,-7,14,32,-19
-1,-1,1,1,-1,0,4,10,-6,15,32,-19
-2,-1,1,1,-1,0,4,11,-5,15,31,-19
-1,0,0,0,-1,0,4,12,-4,16,31,-19
0,0,-1,0,0,0,5,13,-3,17,30,-18
1,0,-2,0,1,-1,5,13,-2,18,30,-18
0,1,0,0,0,0,5,14,-1,20,30,-17
0,1,1,0,-1,1,6,14,0,21,30,-17
-2,1,3,0,-2,1,6,15,0,22,29,-16
-2,0,3,0,-2,1,6,15,0,22,29,-16
0,1,2,-1,-1,2,6,16,1,23,30,-15
1,2,1,-2,0,2,6,16,2,23,31,-14
1,2,0,-1,0,1,6,17,3,23,31,-14
1,1,0,-1,0,0,6,17,3,23,32,-14
0,1,-1,0,0,0,5,16,2,22,34,-15
1,0,-1,0,1,0,4,16,2,22,36,-16
2,0,-2,-1,2,-1,3,15,1,21,39,-16
3,1,-3,-2,3,-1,3,14,1,21,44,-16
4,1,-3,-3,3,0,3,14,1,21,49,-16
4,2,-2,-3,3,0,3,14,2,21,56,-15
2,2,-1,-2,1,1,3,15,2,21,62,-14
1,2,0,-2,1,1,3,15,2,21,66,-14
2,2,-1,-2,1,0,3,15,2,20,69,-13
3,3,-2,-3,2,0,3,15,3,20,71,-13
3,3,-1,-4,2,1,3,15,3,20,75,-12
1,2,0,-3,0,2,4,16,3,20,78,-11
0,2,1,-1,-1,2,4,16,3,20,79,-11
0,1,1,-1,-1,2,3,16,3,21,78,-10
0,1,0,-1,0,1,3,16,3,21,78,-10
0,0,0,0,-1,1,3,16,3,21,79,-10
-3,1,3,1,-4,2,4,18,3,22,81,-9
-3,2,6,0,-5,4,5,19,4,24,84,-8
-1,3,6,-1,-4,5,5,20,5,24,87,-7
0,4,6,-2,-4,5,6,20,5,24,89,-7
0,5,6,-3,-4,5,6,20,5,24,91,-7
1,5,5,-4,-3,5,6,20,6,24,92,-7
1,6,4,-4,-2,5,6,21,6,24,93,-7
0,6,5,-3,-2,5,6,21,6,24,95,-7
1,6,4,-4,-1,5,6,21,6,23,97,-8
3,6,2,-5,0,4,6,21,6,22,99,-8
4,6,2,-6,1,4,6,21,6,22,100,-7
3,5,2,-5,0,4,6,22,6,21,99,-7
3,5,1,-4,0,3,6,22,6,20,97,-6
2,5,1,-4,0,3,6,22,6,19,97,-6
1,4,2,-3,-1,4,6,22,6,18,95,-6
0,4,3,-2,-1,4,6,23,7,18,94,-5
1,4,2,-2,-1,4,5,23,8,17,94,-5
3,5,1,-4,0,4,5,23,8,16,94,-5
7,8,1,-7,2,5,5,24,9,16,96,-5
9,10,1,-9,3,6,6,25,10,17,100,-3
9,12,3,-10,3,7,6,26,11,19,106,-2
8,12,3,-10,2,7,6,27,12,19,113,-2
8,12,3,-10,2,7,6,28,12,20,120,-1
9,13,3,-11,3,8,6,29,13,22,126,-1
10,14,4,-12,3,9,6,30,14,23,132,0
10,14,4,-12,3,9,6,31,15,25,136,0
11,14,3,-12,3,9,6,31,15,26,140,0
11,14,3,-12,4,9,6,32,16,27,146,1
10,15,4,-13,3,9,6,33,17,29,153,2
9,16,5,-13,2,10,6,34,19,30,161,3
8,16,7,-12,1,11,6,35,20,31,169,4
8,16,8,-12,0,12,6,35,22,31,176,4
8,16,8,-12,0,12,6,36,23,30,182,4
9,17,8,-13,0,12,6,36,24,30,186,5
9,18,8,-14,0,13,6,37,25,30,191,5
10,19,8,-14,0,13,6,37,26,30,195,6
10,19,8,-14,0,13,6,38,28,31,201,6
10,19,8,-15,1,14,5,39,30,32,210,7
13,21,7,-17,3,14,5,39,31,32,219,7
15,22,7,-19,4,14,4,40,32,32,227,7
16,23,7,-20,4,15,4,41,33,33,235,8
15,24,8,-19,3,16,4,42,34,34,243,9
14,24,9,-19,2,17,5,42,36,35,251,10
14,25,9,-19,2,17,4,42,36,36,251,10
14,24,9,-19,2,17,3,42,37,36,241,10
14,24,10,-19,2,17,3,42,37,36,225,10
15,25,9,-21,3,17,2,42,38,37,207,11
19,27,8,-23,5,17,2,43,39,37,189,11
21,27,6,-25,7,17,1,42,39,36,172,11
21,27,6,-24,7,16,0,42,39,35,154,11
19,26,6,-23,6,16,0,42,39,35,136,11
17,25,7,-21,4,16,-1,41,40,35,119,11
16,24,7,-20,3,16,-2,40,40,34,103,10
15,24,8,-20,2,16,-4,39,41,34,88,10
15,24,9,-20,2,16,-5,39,42,34,76,10
16,24,8,-20,3,16,-6,38,42,34,64,10
16,24,8,-20,4,16,-7,38,43,33,52,9
17,26,8,-21,4,16,-7,37,43,32,39,9
19,27,8,-23,4,17,-8,37,43,32,25,9
18,27,8,-22,3,17,-8,36,43,31,12,9
15,24,8,-19,2,15,-9,34,42,31,0,8
14,23,7,-18,2,14,-10,33,42,30,-10,7
14,22,8,-18,3,14,-11,31,41,29,-18,6
13,22,9,-17,2,14,-11,30,41,28,-25,6
12,20,9,-16,1,14,-11,28,40,27,-32,6
9,18,9,-14,0,13,-11,26,37,26,-39,5
8,17,9,-12,-1,12,-10,24,35,25,-47,4
8,16,8,-12,-1,12,-8,23,33,24,-55,4
7,16,8,-12,-1,12,-5,22,32,24,-61,4
9,17,7,-13,0,12,-4,20,31,23,-69,3
10,16,5,-13,2,10,-4,18,28,21,-78,1
11,14,3,-13,3,8,-4,15,26,19,-84,0
10,13,3,-12,3,8,-3,13,25,17,-87,-1
8,12,4,-10,2,8,-2,13,24,17,-87,-1
6,11,4,-9,0,7,-1,12,23,17,-85,-1
4,10,5,-7,-1,7,-1,11,22,16,-85,-1
3,9,5,-6,-2,7,-1,10,21,16,-86,-1
2,8,6,-5,-2,7,0,10,20,15,-88,-1
2,8,6,-5,-2,7,0,10,20,14,-88,-1
3,8,5,-6,-1,6,0,9,19,13,-86,0
3,8,5,-6,-1,6,0,8,18,12,-83,0
1,6,5,-4,-2,5,0,8,17,11,-81,1
0,5,5,-3,-3,5,0,7,15,10,-79,2
-1,5,5,-2,-3,4,-1,6,14,9,-77,2
0,5,5,-2,-3,4,-1,6,13,8,-75,2
1,6,4,-3,-2,4,-1,6,11,7,-74,2
1,6,4,-4,-1,4,-1,5,10,6,-71,2
1,6,5,-3,-2,4,-1,5,9,5,-66,3
0,5,5,-2,-2,4,-1,4,7,5,-61,3
-1,4,4,-1,-3,4,-1,4,6,5,-54,3
-2,3,5,0,-4,4,0,4,6,6,-46,4
-5,3,8,1,-7,5,0,4,6,7,-39,5
-7,3,10,2,-9,6,0,5,6,9,-34,5
-6,3,9,1,-8,6,0,4,5,11,-29,5
-3,2,5,0,-4,3,-1,3,4,12,-26,5
0,0,0,0,0,0,-3,2,2,13,-21,4
1,0,-2,0,1,-1,-3,2,2,15,-15,4
2,1,0,-1,1,0,-2,3,2,20,-8,6
1,3,2,-2,0,3,-1,4,2,26,-1,8
1,4,2,-3,-1,3,-1,4,1,30,5,8
1,4,2,-3,0,3,-2,3,0,33,11,8
2,4,1,-3,0,3,-3,2,0,36,17,7
2,4,1,-3,0,2,-3,2,-1,38,24,7
1,4,2,-2,-1,2,-2,3,-1,41,31,7
-1,3,4,-1,-3,3,-2,3,-1,44,37,8
-3,3,6,0,-5,4,-2,4,-1,47,40,8
-4,2,7,1,-5,4,-2,4,-2,49,40,8
-4,3,6,0,-5,4,-2,4,-3,51,39,8
-2,4,6,0,-3,4,-1,5,-3,53,37,8
-1,4,5,-1,-3,4,-1,5,-3,55,35,8
-1,4,5,0,-3,4,-2,5,-3,56,33,8
-2,3,5,0,-4,3,-2,5,-3,57,30,7
-3,2,5,1,-5,3,-2,6,-2,58,27,7
-3,2,5,0,-5,4,-1,6,-2,59,24,7
-3,3,5,0,-4,4,-1,6,-2,59,18,7
-2,3,5,0,-4,4,-2,5,-2,59,12,6
-3,3,5,0,-4,4,-2,5,-2,59,7,6
-4,2,6,1,-5,4,-1,6,-2,59,2,6
-5,2,7,2,-5,4,-1,6,-1,59,0,6
-6,2,7,2,-6,4,0,7,0,59,-2,6
-6,2,9,2,-7,5,0,8,0,59,-2,6
-7,2,9,2,-8,5,1,8,1,58,-3,6
-7,1,8,3,-7,4,1,7,0,56,-5,6
-7,0,7,3,-7,3,1,7,0,55,-7,5
-6,0,7,2,-6,3,1,7,0,54,-9,5
-5,1,6,2,-5,3,2,7,0,53,-10,5
-3,2,5,1,-4,3,2,7,0,52,-11,5
-1,4,5,-1,-3,4,3,8,0,52,-10,5
-1,3,5,0,-3,3,4,8,0,51,-8,4
-5,0,6,2,-5,3,4,7,0,51,-5,4
-8,-1,6,4,-7,2,5,7,0,51,-2,3
-6,0,6,3,-6,2,5,7,0,51,0,3
-3,1,5,0,-4,3,6,7,0,49,0,3
-1,3,5,-1,-3,4,6,7,0,47,1,3
-1,4,5,-1,-2,4,6,7,-1,45,0,3
-1,3,4,-1,-2,3,6,6,-2,43,-2,2
-1,2,3,0,-1,2,6,6,-2,40,-4,2
-1,2,3,0,-2,2,7,7,-2,39,-4,2
-1,2,3,0,-2,3,7,7,-2,38,-2,2
-2,2,4,0,-3,3,8,8,-1,36,-1,2
-2,2,5,0,-4,4,8,9,-1,35,0,2
-3,2,6,0,-5,4,9,9,0,34,0,2
-4,3,7,0,-5,4,9,9,0,32,0,2
-4,3,7,0,-5,4,9,9,0,31,2,2
-4,3,7,1,-5,4,8,9,0,29,5,2
-4,3,7,1,-5,4,8,10,1,28,8,2
-4,2,7,1,-6,4,8,9,1,26,10,2
-5,1,6,1,-6,4,8,9,0,25,9,1
-5,1,6,1,-5,3,8,9,0,24,7,1
-4,1,5,1,-5,3,8,9,0,24,6,1
-5,1,6,1,-6,3,8,9,0,24,5,1
-7,1,8,3,-8,4,7,10,1,24,4,1
-8,0,8,4,-8,4,7,10,1,24,4,1
-7,1,8,3,-7,4,6,10,1,24,3,1
-6,1,7,2,-6,4,5,10,1,24,5,1
-4,2,6,1,-5,4,5,10,1,24,6,1
-3,2,6,1,-4,4,4,10,1,24,6,1
-4,2,7,1,-5,4,4,10,0,25,5,1
-6,1,7,2,-7,4,3,10,0,25,4,1
-8,0,7,4,-7,3,3,10,0,24,0,1
-8,-1,6,4,-7,2,2,10,-1,24,-3,1
-7,0,6,4,-6,2,2,10,-1,23,-6,1
-7,0,6,4,-7,3,3,10,0,24,-8,2
-7,1,7,3,-7,4,3,10,1,24,-10,3
-6,2,7,2,-6,4,3,10,1,25,-13,4
-4,2,7,1,-6,4,3,10,1,25,-16,3
-3,2,5,0,-4,3,2,9,0,24,-19,3
-2,1,3,0,-3,2,2,8,-2,24,-23,2
-3,0,3,1,-3,1,1,7,-3,24,-26,2
-4,0,3,2,-4,1,1,7,-5,25,-28,2
-5,0,4,2,-5,2,2,7,-6,27,-28,2
-6,0,5,3,-6,3,2,7,-6,28,-28,2
-7,0,7,3,-7,4,3,8,-6,30,-27,3
-7,0,8,3,-8,4,4,8,-6,31,-26,4
-5,1,7,2,-7,4,4,8,-6,31,-25,4
-4,2,7,0,-6,5,5,9,-6,32,-25,5
-4,4,8,0,-6,6,6,9,-5,32,-25,5
-3,6,9,-1,-6,7,6,9,-5,32,-25,4
-4,6,9,-1,-6,7,7,9,-5,32,-25,4
-5,6,10,0,-7,7,7,9,-5,31,-25,3
-4,5,9,0,-6,6,7,9,-5,31,-25,3
-3,4,7,-1,-4,5,7,9,-5,31,-26,2
-4,3,7,0,-5,5,7,9,-5,31,-27,3
-7,3,10,1,-8,6,8,10,-4,32,-27,4
-7,4,11,1,-9,8,9,11,-3,32,-28,4
-5,6,11,0,-8,8,8,11,-3,32,-30,4
-4,6,10,-1,-8,8,8,10,-4,32,-34,4
-4,7,11,-1,-8,8,7,10,-4,32,-37,5
-4,7,11,-1,-7,8,6,9,-3,32,-38,5
-3,7,10,-2,-7,8,5,9,-3,32,-38,5
-3,7,10,-2,-7,8,4,8,-3,32,-37,5
-3,6,10,-1,-7,7,3,8,-3,32,-36,4
-3,6,9,-1,-6,7,2,6,-3,31,-36,3
-2,6,8,-2,-5,7,1,5,-4,30,-35,3
-1,8,9,-3,-5,8,2,5,-3,30,-35,3
0,10,10,-4,-5,9,2,5,-3,30,-34,3
0,11,11,-4,-6,10,3,6,-2,31,-34,4
-1,10,11,-3,-6,10,2,5,-2,31,-34,4
-1,8,9,-3,-5,8,1,4,-3,30,-36,3
0,7,7,-3,-3,7,0,4,-4,29,-38,2
1,7,6,-4,-2,7,0,4,-3,29,-38,2
0,8,8,-4,-3,8,1,5,-2,29,-38,3
-2,8,10,-2,-6,8,1,5,-2,29,-38,3
-4,6,10,0,-7,7,0,5,-2,29,-39,2
-3,4,7,0,-6,5,0,4,-3,28,-41,1
0,4,4,-1,-3,4,0,3,-4,27,-41,0
0,4,4,-2,-2,4,0,4,-4,27,-40,0
-1,3,5,0,-3,4,1,4,-5,27,-40,0
-3,2,5,1,-4,4,2,5,-5,27,-41,0
-4,1,6,1,-5,3,4,5,-5,27,-43,0
-4,0,5,2,-5,3,5,5,-5,27,-44,0
-4,-1,4,2,-4,1,4,5,-6,26,-45,-1
-5,-2,3,3,-4,0,4,4,-7,25,-45,-3
-6,-3,3,5,-5,0,4,5,-6,25,-45,-3
-7,-4,3,5,-5,0,5,5,-6,24,-44,-4
-7,-4,3,6,-5,0,5,5,-7,23,-45,-5
-7,-4,3,6,-5,0,4,4,-8,22,-45,-5
-8,-4,4,6,-6,0,4,4,-9,22,-43,-5
-10,-4,5,7,-7,0,4,4,-9,21,-41,-6
-11,-4,6,8,-8,0,4,4,-10,21,-40,-6
-10,-5,5,8,-8,0,3,4,-10,20,-39,-7
-8,-5,3,7,-6,-1,3,3,-11,20,-41,-7
-8,-5,3,7,-5,-1,3,3,-11,19,-42,-6
-11,-6,5,9,-8,-1,3,4,-11,19,-43,-5
-13,-7,6,10,-9,0,4,4,-11,19,-42,-5
-13,-7,6,10,-9,-1,4,5,-11,18,-42,-4
-14,-8,6,10,-10,-1,5,5,-12,18,-42,-4
-16,-9,6,12,-10,-2,4,5,-12,18,-43,-4
-15,-10,4,12,-9,-3,3,4,-13,17,-44,-5
-10,-9,0,10,-5,-4,3,3,-15,16,-45,-6
-6,-8,-1,8,-3,-4,2,3,-16,15,-46,-6
-6,-7,-1,7,-3,-4,3,4,-15,14,-46,-7
-7,-7,0,7,-4,-4,3,4,-13,13,-47,-7
-9,-8,2,9,-6,-3,3,4,-12,13,-47,-7
-11,-8,4,10,-7,-3,3,4,-11,12,-46,-7
-10,-8,3,9,-6,-3,3,3,-10,10,-47,-8
-6,-7,0,7,-3,-4,3,3,-10,9,-48,-8
-3,-6,-1,5,-1,-3,3,3,-9,8,-48,-8
-4,-5,0,5,-2,-2,4,4,-7,8,-48,-8
-5,-5,1,5,-3,-1,5,4,-6,8,-48,-7
-5,-5,0,5,-2,-2,5,4,-5,7,-50,-7
-6,-5,0,5,-3,-2,5,4,-5,6,-52,-7
-11,-7,4,8,-7,-1,6,5,-4,6,-52,-7
-15,-8,7,11,-11,0,7,5,-3,6,-52,-6
-16,-8,8,11,-12,0,7,5,-2,6,-52,-6
-15,-7,8,11,-12,0,8,5,-2,6,-52,-6
-15,-7,8,11,-12,1,9,6,-1,7,-50,-5
-15,-7,8,11,-11,1,10,9,1,8,-48,-5
-13,-6,7,9,-10,1,11,12,5,11,-46,-4
-10,-5,5,7,-7,0,12,18,11,15,-44,-4
-8,-4,4,6,-6,0,14,26,19,21,-41,-2
-7,-3,3,4,-5,0,15,35,30,28,-37,1
-2,-1,2,1,-2,0,16,45,42,38,-33,5
4,2,-2,-3,3,0,16,54,54,47,-29,9
12,5,-7,-8,9,0,14,61,66,56,-25,13
20,8,-11,-14,15,-1,13,68,77,64,-22,17
27,12,-15,-19,21,-1,11,75,87,72,-17,22
35,16,-18,-26,27,-1,6,77,93,78,-7,27
45,22,-22,-34,34,0,-2,74,94,81,1,32
54,29,-24,-41,40,1,-12,65,88,79,4,36
60,33,-26,-47,44,2,-22,52,77,72,2,37
60,34,-26,-47,43,3,-28,36,60,59,-6,35
54,31,-22,-43,38,4,-33,12,33,40,-19,30
48,27,-20,-37,34,3,-38,-17,-1,16,-34,22
42,22,-19,-32,31,2,-43,-48,-37,-9,-49,12
35,15,-19,-25,27,-1,-48,-74,-68,-32,-63,3
25,8,-17,-16,21,-4,-50,-91,-90,-49,-73,-5
15,0,-14,-7,15,-7,-50,-100,-102,-61,-79,-12
7,-7,-14,0,11,-11,-49,-101,-107,-68,-82,-18
1,-15,-16,6,9,-16,-46,-97,-105,-70,-83,-23
-4,-19,-15,11,6,-17,-40,-89,-99,-68,-79,-25
-8,-20,-12,14,2,-16,-33,-78,-89,-63,-74,-26
-10,-20,-9,15,-1,-14,-25,-66,-77,-57,-69,-25
-13,-19,-6,16,-3,-13,-16,-54,-66,-51,-65,-25
-15,-19,-3,17,-6,-11,-9,-43,-56,-44,-62,-24
-17,-18,0,17,-8,-9,-5,-35,-48,-38,-59,-23
-18,-16,2,16,-10,-7,-1,-27,-41,-33,-56,-21
-16,-13,3,14,-10,-5,2,-21,-33,-27,-54,-18
-15,-11,4,12,-9,-3,5,-15,-24,-22,-52,-16
-14,-10,4,11,-9,-3,8,-11,-18,-19,-50,-14
-13,-9,4,11,-8,-2,10,-8,-13,-17,-49,-13
-13,-9,4,10,-8,-2,11,-6,-10,-16,-48,-13
-12,-8,4,10,-8,-2,12,-4,-7,-15,-47,-12
-12,-8,4,10,-7,-2,12,-3,-5,-14,-46,-12
-12,-8,3,10,-7,-2,12,-1,-3,-13,-45,-11
-11,-7,4,9,-7,-2,12,1,-1,-12,-45,-10
-11,-7,4,9,-7,-1,12,2,1,-11,-45,-9
-11,-6,5,9,-8,-1,12,4,3,-10,-46,-8
-10,-6,5,8,-8,0,12,5,4,-10,-47,-7
-9,-4,5,7,-7,0,12,5,5,-10,-47,-6
-7,-4,4,6,-6,0,12,6,5,-10,-48,-6
-6,-4,2,5,-4,-1,11,6,5,-10,-49,-7
-6,-4,1,5,-4,-1,10,6,5,-11,-49,-7
-9,-5,3,7,-6,-1,10,7,5,-11,-48,-7
-12,-6,5,8,-8,0,11,8,7,-10,-47,-6
-12,-7,5,9,-8,-1,11,8,7,-11,-46,-6
-12,-7,5,9,-8,-1,11,7,7,-11,-45,-7
-12,-7,5,10,-9,-1,11,7,8,-11,-44,-7
-11,-7,5,9,-8,0,12,7,8,-11,-43,-6
-8,-6,4,7,-6,0,11,7,8,-11,-43,-6
-7,-5,3,6,-5,0,11,7,8,-10,-42,-6
-7,-5,3,5,-4,0,12,7,8,-10,-42,-6
-6,-4,2,4,-4,0,12,8,9,-10,-42,-6
-5,-4,2,3,-3,0,12,8,9,-10,-42,-6
-6,-3,3,4,-4,0,12,9,10,-10,-41,-6
-7,-3,4,5,-6,1,12,9,10,-10,-39,-5
-8,-3,5,5,-6,1,12,9,10,-10,-37,-5
-8,-4,4,6,-5,0,11,9,10,-10,-36,-6
-8,-4,4,6,-5,0,11,9,10,-10,-35,-6
-8,-3,4,6,-5,0,11,9,10,-10,-34,-6
-7,-3,4,5,-5,0,11,9,10,-10,-32,-6
-6,-3,3,5,-4,0,11,9,10,-10,-30,-6
-7,-3,3,5,-4,0,12,9,10,-10,-29,-6
-7,-4,3,6,-5,0,12,9,11,-10,-27,-6
-6,-4,2,5,-5,0,13,9,11,-10,-26,-6
-6,-4,2,5,-5,0,14,9,12,-10,-25,-6
-8,-4,4,6,-6,0,15,10,13,-9,-23,-6
-10,-5,5,7,-8,0,16,11,14,-9,-21,-5
-12,-5,6,8,-9,0,17,12,15,-8,-19,-5
-11,-5,5,7,-8,0,17,12,15,-7,-18,-5
-8,-4,4,5,-6,0,17,12,14,-7,-17,-5
-6,-3,3,4,-5,0,17,13,13,-6,-15,-5
-6,-3,4,4,-5,1,18,13,13,-6,-13,-4
-8,-4,5,5,-6,1,17,14,13,-6,-13,-4
-8,-4,5,6,-6,1,17,14,13,-7,-12,-5
-7,-3,4,5,-5,0,17,14,13,-7,-12,-5
-7,-3,4,5,-5,0,17,14,14,-7,-11,-5
-7,-4,4,6,-5,0,17,14,15,-7,-9,-5
-7,-4,3,5,-4,0,16,14,15,-8,-6,-6
-6,-4,2,5,-4,0,16,14,16,-8,-3,-6
-6,-3,3,4,-5,0,16,15,17,-8,0,-5
-7,-2,6,4,-6,2,17,16,19,-7,3,-4
-9,-1,8,5,-8,3,17,17,20,-5,5,-3
-11,-1,10,6,-10,3,18,18,20,-4,7,-2
-11,-1,10,6,-10,4,18,19,20,-4,9,-2
-7,0,7,3,-7,3,17,19,19,-4,10,-2
-1,0,1,0,-1,1,16,19,18,-5,10,-3
1,1,0,-1,0,1,16,19,19,-4,12,-2
-1,1,2,0,-2,2,16,20,20,-3,14,-1
-2,2,4,0,-3,4,17,21,21,-2,16,0
-2,3,5,-1,-3,4,16,22,22,-2,17,0
-2,4,6,-1,-4,5,16,22,22,-2,18,0
-3,5,7,-1,-4,6,16,23,24,-1,19,0
-2,6,8,-2,-4,7,16,24,25,-1,20,0
-2,7,8,-2,-5,8,17,25,27,0,21,1
-2,6,9,-2,-5,8,17,26,28,0,21,1
-2,6,8,-2,-5,7,17,27,29,1,21,1
0,6,7,-3,-3,7,16,27,30,1,21,1
1,7,6,-4,-2,7,15,27,31,1,21,2
2,9,7,-5,-2,7,14,28,31,2,21,2
2,10,8,-6,-2,8,14,29,32,3,21,3
3,11,7,-7,-1,8,13,29,32,3,21,3
6,12,6,-9,0,8,13,30,33,4,25,3
9,14,5,-12,2,10,13,31,34,6,30,4
10,16,6,-13,2,11,13,32,35,7,35,5
9,16,8,-12,0,12,12,32,35,7,39,6
6,15,9,-10,-1,12,12,33,35,8,42,7
6,15,9,-10,-2,12,11,33,36,8,45,8
9,17,8,-13,0,12,11,34,37,9,46,8
11,18,6,-14,2,12,11,34,38,9,48,8
10,18,7,-14,1,12,11,34,38,10,49,8
7,17,9,-12,0,13,12,34,38,11,50,9
6,16,10,-11,-2,13,13,34,38,11,51,9
6,15,10,-11,-2,13,13,34,38,11,52,8
7,15,9,-12,0,12,13,33,37,11,53,8
8,16,8,-13,0,12,14,34,38,11,55,9
10,18,8,-14,1,13,15,34,38,12,57,9
11,19,7,-15,2,13,16,34,38,12,58,10
12,19,7,-16,3,12,17,34,38,12,59,10
13,19,7,-16,3,13,18,34,38,12,60,10
13,20,7,-17,2,14,18,33,38,12,60,10
13,21,7,-17,2,14,18,32,38,12,60,10
13,20,7,-16,3,13,17,31,37,11,60,10
11,18,7,-15,2,13,18,30,37,11,59,10
9,18,8,-14,0,13,19,29,37,11,59,10
8,17,9,-13,0,13,19,28,37,11,58,10
8,17,9,-12,-1,12,18,27,35,10,56,9
8,16,8,-12,0,12,18,26,34,10,54,8
8,15,7,-11,0,11,17,25,33,12,53,8
8,14,7,-11,0,11,17,24,32,14,52,7
8,14,6,-11,1,10,16,22,32,14,51,7
11,14,4,-12,3,9,15,20,31,13,49,6
11,13,2,-12,4,8,15,19,30,11,48,4
8,11,3,-10,3,8,15,17,29,10,46,3
4,9,5,-7,0,7,15,16,28,9,44,3
1,8,7,-5,-2,7,15,15,26,8,43,2
0,7,7,-4,-3,7,15,14,24,6,42,1
0,7,7,-4,-3,7,15,13,23,5,41,1
1,7,6,-4,-2,6,15,12,22,4,40,0
2,7,6,-4,-1,6,15,11,21,3,40,0
0,6,6,-3,-2,6,16,9,19,1,39,-1
-1,5,6,-2,-3,6,16,8,18,0,38,-1
-1,4,6,-2,-3,5,15,6,16,-2,37,-2
-1,3,4,-1,-2,3,14,5,15,-6,34,-4
-2,1,2,0,-2,1,14,3,14,-9,31,-5
-2,0,2,1,-2,0,14,3,13,-11,29,-5
-2,0,1,1,-2,0,14,2,13,-11,28,-6
-1,1,1,0,-1,1,15,2,13,-8,27,-6
0,1,1,0,-1,1,15,2,13,-5,26,-6
0,0,1,0,0,0,15,2,12,-3,25,-6
0,0,0,0,0,0,15,1,12,-2,24,-7
-1,0,0,0,0,0,15,1,12,-2,25,-7
-1,0,0,0,0,0,16,0,11,-2,26,-8
-2,0,1,1,-1,0,16,0,11,-1,28,-8
-5,-2,2,3,-3,0,16,0,10,-1,29,-8
-4,-4,0,4,-2,-2,15,-1,8,-1,30,-9
-2,-5,-2,4,0,-3,13,-3,4,-2,30,-10
-2,-5,-2,4,0,-3,13,-3,2,-2,31,-10
-4,-5,0,4,-2,-2,14,-3,0,-1,32,-9
-6,-5,1,5,-3,-1,14,-3,0,-1,32,-9
-6,-4,2,4,-4,-1,14,-3,-1,-2,33,-9
-6,-3,2,4,-3,-1,14,-3,-1,-3,33,-9
-6,-3,3,5,-4,0,15,-3,-1,-5,33,-9
-9,-3,5,6,-7,1,16,-2,-1,-6,35,-8
-11,-3,7,7,-9,2,16,-1,-1,-6,36,-7
-9,-4,5,7,-8,1,15,-2,-1,-6,36,-8
-7,-4,3,6,-6,0,15,-2,-1,-6,36,-8
-6,-3,3,5,-5,0,15,-2,-1,-5,36,-8
-5,-4,2,4,-4,0,15,-3,0,-4,36,-7
-4,-4,0,4,-2,-1,14,-3,0,-4,36,-7
-4,-5,-1,4,-1,-3,14,-4,0,-3,36,-8
-4,-5,-1,4,-1,-3,13,-4,-1,-3,37,-8
-4,-5,-1,4,-1,-3,13,-5,-1,-2,38,-9
-3,-5,-1,4,-1,-3,13,-5,-2,-2,39,-9
-3,-4,-1,4,-1,-3,13,-5,-2,-1,40,-9
-5,-4,0,5,-2,-2,14,-4,-2,0,40,-8
-7,-4,3,6,-5,-1,14,-4,-2,0,41,-7
-10,-5,5,8,-7,-1,15,-3,-2,1,41,-7
-10,-5,4,8,-7,-1,15,-3,-3,1,41,-7
-8,-5,3,7,-5,-1,15,-3,-3,1,41,-7
-7,-4,3,6,-5,-1,15,-2,-3,2,42,-6
-7,-4,3,5,-4,-1,16,-2,-3,3,43,-6
-5,-4,2,4,-3,-1,15,-2,-4,2,42,-7
-4,-5,0,4,-2,-2,14,-4,-6,1,41,-9
-3,-5,0,4,-1,-3,13,-5,-7,0,40,-9
-5,-6,0,5,-2,-3,13,-5,-7,0,41,-9
-6,-5,1,5,-3,-2,13,-4,-7,0,42,-9
-5,-4,1,5,-3,-2,14,-4,-7,0,43,-8
-4,-4,1,4,-2,-2,13,-4,-7,0,44,-8
-4,-4,1,5,-3,-2,13,-4,-8,-1,44,-9
-6,-6,1,6,-4,-2,12,-5,-8,-1,44,-9
-7,-6,1,7,-4,-2,11,-5,-9,-1,44,-8
-7,-5,1,7,-4,-1,11,-5,-8,0,45,-7
-7,-4,2,6,-4,0,12,-4,-8,1,46,-7
-6,-4,2,5,-3,-1,11,-4,-8,1,46,-7
-5,-3,1,4,-3,-1,11,-4,-9,2,46,-7
-8,-4,3,6,-5,0,11,-4,-8,3,46,-7
-11,-6,5,8,-8,0,11,-4,-8,3,45,-7
-12,-7,5,9,-8,0,11,-4,-8,3,44,-7
-11,-6,5,8,-8,0,11,-4,-7,4,43,-7
-9,-4,5,7,-8,1,11,-3,-7,4,43,-6
-8,-4,5,6,-7,0,10,-3,-7,5,42,-6
-7,-4,3,6,-5,-1,9,-4,-7,4,40,-7
-6,-4,2,5,-4,-1,8,-4,-8,4,39,-7
-6,-3,3,5,-5,0,8,-4,-7,5,38,-7
-7,-3,4,5,-6,0,8,-3,-7,6,38,-7
-9,-3,5,6,-7,1,8,-3,-6,7,39,-7
-9,-3,5,6,-7,1,7,-3,-6,7,40,-7
-7,-3,3,5,-5,0,7,-3,-6,7,41,-8
-4,-3,1,4,-3,-1,6,-4,-7,7,42,-8
-4,-4,0,5,-2,-2,6,-4,-8,7,42,-9
-5,-5,0,5,-3,-2,6,-5,-8,8,42,-9
-7,-5,2,6,-4,-1,6,-5,-8,8,43,-9
-9,-5,3,7,-5,-1,6,-5,-8,8,43,-10
-8,-6,2,7,-5,-2,6,-6,-9,8,43,-10
-6,-6,0,6,-3,-3,6,-6,-9,7,43,-11
-4,-6,-1,6,-1,-3,6,-6,-9,7,43,-11
-4,-6,0,6,-2,-3,6,-6,-9,8,44,-10
-6,-5,1,6,-3,-1,7,-5,-8,9,45,-9
-6,-4,2,5,-4,-1,8,-5,-7,9,45,-9
-6,-4,3,5,-4,0,8,-5,-7,9,45,-9
-7,-4,3,5,-5,0,8,-5,-7,10,44,-9
-7,-4,3,5,-5,0,8,-5,-7,10,44,-9
-7,-4,3,5,-5,0,8,-5,-7,10,43,-9
-7,-4,3,6,-5,0,8,-5,-7,10,43,-9
-7,-4,2,7,-5,0,8,-5,-8,9,42,-10
-8,-5,3,8,-6,-1,8,-5,-8,9,42,-10
-10,-6,4,9,-7,-1,8,-5,-8,9,43,-10
-9,-6,3,8,-6,-2,8,-5,-9,8,43,-10
-7,-7,0,7,-4,-3,8,-6,-9,7,43,-10
-7,-7,0,7,-3,-4,8,-6,-9,6,43,-10
-9,-6,2,8,-5,-2,9,-6,-9,6,43,-9
-10,-5,5,8,-8,0,9,-6,-8,6,43,-8
-11,-5,7,9,-9,1,10,-5,-8,7,43,-7
-11,-5,8,9,-9,1,10,-5,-7,7,43,-7
-9,-4,6,7,-8,1,10,-6,-7,7,43,-7
-7,-3,5,6,-6,1,10,-6,-6,7,44,-7
-6,-1,5,4,-5,2,11,-5,-5,7,45,-7
-5,0,5,3,-5,2,11,-5,-4,7,46,-7
-6,0,6,3,-6,3,11,-5,-4,7,46,-7
-7,0,7,4,-7,3,11,-5,-4,7,47,-7
-7,0,7,4,-7,3,10,-5,-4,7,47,-7
-6,0,6,4,-6,3,10,-5,-5,7,47,-7
-4,0,5,3,-4,2,9,-6,-6,6,47,-8
-3,-1,3,3,-3,1,9,-6,-6,5,46,-9
-3,-1,3,2,-3,1,9,-6,-6,5,47,-9
-2,-1,3,1,-3,1,9,-6,-6,5,48,-9
-3,-1,3,2,-3,1,9,-6,-6,6,49,-9
-4,0,5,2,-5,2,10,-5,-5,7,50,-8
-5,0,6,2,-6,4,11,-4,-4,8,51,-7
-6,1,7,2,-6,4,12,-3,-4,8,52,-6
-5,1,7,2,-6,5,12,-3,-4,8,52,-6
-5,2,8,1,-6,5,12,-3,-3,9,52,-6
-5,2,9,1,-6,6,12,-3,-3,9,52,-5
-5,3,8,0,-6,6,12,-3,-3,9,53,-5
-3,4,7,-1,-4,5,10,-4,-3,9,53,-6
-1,4,5,-2,-3,5,9,-5,-4,8,53,-6
0,4,4,-2,-2,4,8,-6,-4,8,53,-7
0,4,4,-1,-2,4,8,-6,-3,8,53,-7
-1,5,6,-1,-4,6,8,-6,-3,9,54,-6
-3,7,9,-1,-6,8,9,-5,-2,10,55,-5
-4,8,11,-1,-7,9,9,-5,-2,10,55,-4
-3,8,10,-2,-6,9,8,-6,-2,9,54,-5
-1,8,8,-3,-4,8,6,-7,-3,9,53,-5
-1,7,8,-3,-4,7,6,-7,-3,9,52,-5
-2,7,8,-2,-5,8,6,-6,-2,10,52,-4
-2,7,8,-2,-5,7,6,-6,-2,10,52,-4
-1,6,7,-2,-4,7,5,-7,-2,9,51,-5
-3,5,8,0,-6,6,4,-7,-3,8,50,-5
-7,3,11,2,-9,6,4,-7,-2,6,50,-5
-10,2,12,4,-11,6,4,-6,-2,6,50,-5
-9,1,10,4,-9,5,4,-6,-2,5,49,-6
-5,1,6,2,-5,3,3,-7,-3,4,48,-7
-2,1,3,1,-1,1,3,-8,-3,3,47,-8
-1,1,2,1,-1,1,3,-8,-3,3,47,-8
-3,0,4,2,-3,2,4,-7,-3,4,47,-8
-6,0,6,3,-6,3,4,-7,-2,4,47,-8
-8,-1,7,4,-7,2,4,-7,-2,4,46,-8
-8,-2,5,5,-6,0,3,-7,-3,4,44,-9
-8,-4,3,6,-5,-1,2,-8,-3,4,43,-10
-9,-6,2,7,-5,-2,2,-8,-3,4,42,-11
-8,-6,2,7,-4,-3,2,-9,-4,4,41,-12
-7,-6,1,7,-4,-3,2,-9,-4,3,40,-13
-8,-7,1,8,-4,-3,2,-9,-4,2,40,-14
-8,-8,0,8,-4,-4,2,-9,-3,2,39,-15
-8,-9,0,8,-4,-5,2,-9,-3,2,39,-15
-9,-8,1,8,-5,-4,2,-8,-2,2,39,-15
-10,-6,3,8,-6,-2,3,-6,-1,3,39,-14
-9,-5,4,7,-6,-1,4,-5,0,3,40,-14
-8,-4,3,7,-5,-1,5,-5,1,3,40,-14
-9,-6,2,8,-6,-1,4,-6,1,3,39,-14
-10,-8,2,10,-7,-2,4,-6,2,3,39,-15
-10,-8,2,10,-6,-3,3,-7,3,2,38,-15
-9,-8,0,8,-4,-3,1,-7,4,2,37,-15
-8,-8,0,8,-4,-4,0,-8,5,2,37,-15
-11,-9,1,9,-6,-4,0,-8,6,2,37,-15
-13,-10,2,11,-7,-4,0,-8,8,2,37,-15
-12,-10,2,11,-7,-4,0,-8,9,2,38,-15
-12,-9,3,11,-7,-3,1,-8,10,3,39,-15
-12,-9,3,11,-8,-2,1,-7,11,3,40,-14
-10,-8,2,10,-6,-3,1,-7,11,3,40,-15
-8,-9,0,9,-4,-4,0,-8,10,3,39,-16
-8,-10,-1,10,-4,-5,0,-9,10,4,39,-16
-11,-10,1,11,-6,-5,0,-8,10,5,40,-16
-13,-10,2,11,-8,-4,0,-8,11,6,40,-15
-12,-10,2,11,-7,-4,0,-9,11,6,40,-15
-11,-10,1,11,-6,-5,0,-9,11,6,40,-15
-11,-10,0,11,-6,-5,0,-9,12,7,40,-15
-11,-11,1,12,-7,-5,0,-9,12,7,41,-15
-13,-11,2,12,-8,-4,1,-8,12,8,42,-14
-13,-10,3,12,-8,-3,2,-8,12,9,43,-14
-12,-8,4,10,-8,-2,3,-8,12,11,44,-13
-13,-7,6,10,-9,-1,3,-7,12,12,44,-13
-13,-7,6,10,-9,-1,4,-6,12,13,45,-14
-12,-7,4,10,-8,-2,4,-4,14,14,45,-14
-10,-7,3,10,-6,-3,5,0,18,17,46,-13
-8,-7,1,9,-4,-3,7,6,24,22,47,-12
-8,-6,1,8,-4,-3,9,14,33,29,46,-10
-5,-6,-1,6,-2,-4,9,23,43,36,45,-8
1,-4,-6,2,3,-6,8,32,53,44,46,-6
8,-2,-10,-3,9,-7,7,39,64,53,49,-2
13,1,-12,-7,13,-6,6,48,76,63,54,3
19,5,-14,-12,17,-5,5,56,88,72,60,8
28,10,-17,-18,23,-4,2,61,96,80,65,13
37,16,-21,-26,29,-3,-4,61,101,85,70,18
45,21,-23,-33,34,-1,-15,55,100,87,75,23
52,26,-25,-39,39,0,-27,44,92,84,76,27
57,30,-27,-43,42,1,-37,30,78,75,74,27
57,31,-26,-44,42,2,-44,11,59,61,67,25
51,29,-22,-41,37,3,-49,-13,33,42,57,20
43,25,-18,-34,31,3,-54,-43,1,20,43,12
34,18,-16,-26,25,0,-59,-73,-32,-4,28,2
25,10,-15,-17,20,-3,-64,-97,-59,-25,15,-6
16,3,-14,-9,15,-6,-66,-112,-78,-40,4,-15
9,-4,-13,-2,12,-9,-65,-119,-88,-51,-4,-22
4,-11,-14,3,10,-12,-62,-117,-90,-56,-8,-28
0,-15,-14,6,7,-14,-58,-111,-87,-56,-10,-32
-5,-18,-13,10,4,-15,-53,-102,-80,-53,-11,-33
-11,-20,-9,15,-1,-14,-46,-91,-70,-47,-10,-33
-17,-21,-4,19,-7,-13,-38,-78,-58,-40,-8,-32
-21,-22,-1,22,-10,-12,-31,-67,-48,-34,-7,-32
-23,-22,0,23,-12,-11,-25,-56,-39,-28,-5,-31
-24,-22,1,23,-12,-11,-21,-47,-31,-23,-2,-30
-24,-21,2,23,-13,-10,-17,-39,-24,-17,1,-28
-22,-19,3,20,-13,-8,-14,-33,-18,-13,4,-26
-19,-15,3,16,-12,-6,-11,-27,-12,-8,8,-24
-15,-11,3,13,-10,-4,-8,-22,-7,-5,10,-22
-14,-9,4,11,-10,-2,-6,-18,-3,-3,12,-20
-16,-8,7,12,-12,-1,-4,-15,0,-1,14,-19
-17,-8,8,13,-13,0,-3,-13,2,0,15,-19
-15,-8,6,12,-11,-1,-3,-12,4,0,15,-19
-13,-9,4,11,-8,-3,-3,-11,5,1,16,-20
-11,-9,2,10,-6,-4,-2,-9,7,2,17,-20
-9,-9,0,9,-5,-4,0,-8,9,3,18,-19
-9,-8,0,9,-5,-4,0,-6,10,3,19,-19
-10,-8,1,9,-6,-4,1,-5,11,4,19,-18
-11,-7,3,10,-7,-3,3,-4,12,4,20,-18
-11,-7,5,10,-7,-2,4,-4,12,4,20,-17
-10,-7,5,9,-7,-2,4,-4,12,4,20,-17
-10,-7,5,9,-7,-2,5,-3,12,3,20,-17
-12,-7,5,10,-8,-1,5,-3,13,3,20,-16
-13,-8,5,11,-9,-1,6,-2,13,3,20,-17
-13,-8,4,11,-8,-2,6,-2,13,2,19,-17
-12,-8,3,10,-7,-3,5,-2,14,1,18,-18
-11,-7,3,9,-7,-3,6,-2,15,0,18,-18
-10,-7,3,8,-6,-3,6,-2,16,1,18,-18
-9,-6,3,8,-6,-3,7,-1,16,1,18,-18
-10,-7,4,9,-7,-2,7,-1,17,1,18,-18
-14,-7,7,11,-11,-1,7,-1,17,2,19,-17
-17,-7,9,13,-13,0,7,0,18,2,19,-17
-17,-7,9,12,-13,0,7,0,18,1,19,-17
-14,-7,7,11,-10,0,6,0,19,0,19,-17
-11,-7,4,9,-7,-2,5,0,19,0,18,-18
-9,-7,3,8,-6,-2,5,0,19,0,17,-18
-10,-7,4,9,-7,-2,5,0,20,0,17,-18
-10,-6,6,9,-8,-1,5,0,20,0,17,-17
-11,-6,7,9,-9,0,5,0,21,1,17,-17
-13,-5,8,9,-11,0,5,0,21,2,17,-16
-12,-5,7,9,-10,0,5,0,20,1,17,-17
-10,-5,4,8,-7,-1,5,0,20,0,17,-18
-10,-6,2,8,-6,-2,5,0,20,0,17,-18
-10,-6,3,8,-6,-1,6,1,21,1,17,-17
-10,-5,4,8,-7,-1,7,2,21,2,18,-16
-11,-5,6,8,-8,0,7,2,21,3,19,-16
-13,-5,8,9,-9,0,8,2,21,4,19,-16
-14,-6,9,10,-11,0,8,2,22,5,20,-16
-15,-6,9,10,-11,0,9,3,22,6,20,-15
-14,-6,7,10,-10,0,9,3,21,6,20,-15
-12,-6,5,9,-9,-1,9,3,20,7,19,-16
-9,-5,4,8,-7,-1,9,3,19,8,19,-16
-7,-5,3,7,-5,-1,9,3,19,9,19,-16
-7,-5,4,7,-6,-1,9,3,19,11,20,-15
-8,-4,5,7,-7,0,9,4,20,12,20,-15
-9,-4,5,6,-7,0,9,3,20,13,20,-15
-8,-4,4,5,-6,0,8,3,20,13,19,-16
-8,-3,4,5,-5,0,9,4,20,14,20,-16
-8,-2,5,5,-7,1,10,6,21,16,21,-14
-10,-1,8,6,-9,3,11,8,23,19,23,-13
-10,-2,8,6,-9,3,11,9,23,20,24,-13
-8,-3,5,6,-7,2,9,9,22,19,23,-14
-6,-3,3,5,-5,0,8,8,20,18,21,-15
-6,-3,3,5,-5,0,7,8,19,18,20,-16
-8,-3,5,5,-7,1,7,9,20,19,21,-15
-10,-2,8,5,-9,3,8,10,21,21,22,-14
-10,-1,9,5,-10,4,8,11,21,22,24,-13
-8,0,8,4,-9,4,8,12,21,22,25,-12
-6,0,8,3,-7,4,8,12,20,23,26,-12
-5,1,7,3,-6,4,8,13,18,24,26,-12
-5,2,8,2,-6,5,8,13,16,24,27,-11
-4,3,8,1,-5,6,8,13,14,25,27,-11
-3,5,9,0,-5,7,9,14,13,26,28,-11
-3,7,9,-2,-5,7,9,16,11,27,29,-10
-2,7,9,-3,-5,8,9,17,10,28,30,-9
-2,8,9,-3,-5,8,9,18,8,29,32,-8
-2,8,10,-2,-6,9,9,19,4,29,33,-7
-2,7,10,-1,-6,9,9,20,0,30,34,-6
-2,7,10,-1,-6,8,9,21,-3,30,34,-6
-1,7,9,-2,-5,8,9,21,-7,31,34,-6
0,8,9,-3,-4,8,8,22,-10,31,34,-6
0,8,8,-4,-4,8,8,22,-13,32,34,-6
0,8,9,-4,-4,8,8,23,-15,34,35,-5
0,8,9,-4,-5,9,8,23,-16,36,37,-4
0,9,10,-4,-5,9,8,24,-17,38,38,-3
1,10,9,-5,-4,10,8,24,-18,39,39,-3
4,12,8,-7,-2,10,8,25,-19,39,40,-2
5,12,8,-8,-2,10,8,25,-21,39,40,-2
4,12,8,-7,-2,10,7,25,-23,39,40,-2
5,12,7,-8,-1,9,6,25,-25,39,40,-2
7,13,7,-10,0,10,6,25,-26,39,40,-1
8,16,9,-11,0,12,7,26,-26,40,41,0
7,17,11,-11,-2,14,8,27,-26,41,42,0
6,16,11,-11,-3,14,8,27,-27,40,43,1
6,16,11,-10,-2,14,7,27,-28,39,43,1
7,17,10,-11,-1,14,7,27,-30,38,43,1
8,17,10,-12,0,13,6,26,-31,37,43,1
8,17,9,-13,0,13,5,26,-32,36,42,1
8,16,8,-13,0,12,5,25,-33,34,42,1
7,16,9,-12,-1,13,5,25,-33,31,42,1
5,16,11,-11,-2,14,4,25,-33,29,43,1
4,16,11,-10,-3,14,4,25,-34,27,43,1
4,15,10,-9,-3,13,3,24,-35,25,43,0
6,14,8,-10,-1,11,3,23,-36,24,42,0
7,14,7,-10,0,10,3,22,-35,22,42,0
6,13,7,-10,0,10,3,21,-33,22,41,-1
6,12,6,-9,0,9,3,21,-32,21,41,-1
6,12,6,-9,0,9,3,20,-31,21,41,-2
5,11,7,-8,-1,9,3,19,-29,20,41,-2
3,10,8,-6,-2,9,3,18,-28,19,40,-3
1,9,8,-5,-3,8,3,16,-27,17,40,-3
1,8,7,-4,-3,7,3,15,-27,16,39,-4
1,7,6,-4,-2,6,3,13,-27,14,38,-5
1,6,6,-4,-2,6,3,12,-27,14,37,-6
1,7,7,-4,-3,7,4,12,-27,14,37,-6
-1,6,8,-3,-4,7,4,11,-26,14,37,-6
-3,5,8,-1,-5,7,4,10,-25,13,37,-7
-3,3,7,0,-5,5,3,9,-26,12,35,-9
-2,3,5,-1,-3,4,2,7,-27,11,34,-10
-1,3,4,-1,-3,4,1,5,-28,10,33,-11
-4,2,6,0,-5,5,1,5,-28,10,33,-11
-7,1,9,2,-8,6,1,5,-27,9,33,-11
-9,0,10,4,-9,6,1,4,-28,9,32,-11
-8,0,8,4,-8,5,1,3,-29,7,31,-12
-6,0,6,3,-6,3,0,2,-30,5,30,-13
-5,-1,4,3,-5,2,0,0,-31,4,28,-14
-6,-2,4,4,-5,1,1,0,-30,3,27,-15
-7,-3,4,5,-6,0,1,0,-30,3,27,-15
-6,-4,3,5,-5,0,1,-1,-30,3,26,-15
-6,-5,2,5,-4,-1,1,-1,-32,2,26,-16
-6,-6,1,6,-3,-2,0,-2,-33,2,25,-16
-6,-6,1,6,-3,-2,0,-3,-35,1,24,-17
-6,-6,0,6,-3,-3,-1,-4,-36,0,23,-17
-7,-6,1,6,-4,-2,-1,-4,-36,0,22,-17
-8,-4,4,6,-6,0,-1,-4,-35,0,23,-16
-8,-4,5,6,-6,0,0,-4,-35,0,24,-15
-6,-3,3,5,-5,0,-1,-4,-35,0,25,-16
-4,-3,1,4,-3,-1,-2,-6,-35,0,24,-17
-4,-4,1,4,-3,-1,-2,-6,-35,0,25,-17
-6,-3,3,5,-4,0,-1,-6,-35,0,26,-16
-9,-4,5,6,-7,0,0,-5,-34,1,28,-15
-11,-6,5,8,-8,0,1,-5,-34,0,28,-15
-11,-7,4,9,-7,-2,1,-6,-34,-1,28,-16
-8,-7,1,7,-5,-2,1,-6,-35,-3,28,-16
-6,-6,0,6,-3,-3,1,-7,-35,-3,28,-17
-6,-7,0,7,-3,-3,1,-7,-35,-4,28,-17
-8,-8,1,8,-4,-3,0,-7,-35,-4,28,-17
-9,-8,2,9,-5,-3,0,-7,-35,-3,28,-17
-10,-8,2,9,-6,-3,0,-8,-36,-3,29,-17
-10,-7,3,9,-6,-2,0,-8,-38,-4,29,-17
-9,-6,3,8,-6,-1,0,-9,-39,-5,29,-17
-8,-6,2,7,-5,-1,0,-10,-40,-5,29,-17
-8,-6,3,7,-5,-1,0,-9,-40,-5,29,-16
-9,-6,4,7,-7,0,0,-9,-39,-5,30,-16
-11,-5,6,8,-9,1,1,-8,-39,-5,30,-15
-12,-5,6,8,-9,1,1,-8,-39,-6,30,-15
-10,-5,4,7,-7,0,1,-9,-39,-7,29,-16
-9,-6,2,7,-5,-1,1,-9,-38,-8,29,-16
-7,-7,-1,7,-3,-3,1,-9,-37,-8,29,-17
-5,-8,-3,7,-1,-5,1,-9,-37,-8,29,-17
-6,-8,-2,8,-2,-5,2,-9,-36,-7,29,-17
-8,-9,0,9,-4,-4,3,-8,-36,-7,30,-16
-8,-8,1,9,-5,-3,4,-8,-35,-6,31,-16
-9,-8,3,8,-6,-2,4,-8,-35,-6,31,-15
-10,-8,3,9,-6,-3,3,-9,-36,-8,30,-15
-10,-9,2,9,-6,-3,2,-10,-36,-9,29,-16
-9,-9,1,8,-5,-4,2,-10,-36,-9,28,-16
-8,-9,0,8,-4,-4,2,-11,-36,-10,28,-17
-8,-9,0,9,-4,-4,2,-11,-35,-10,28,-17
-9,-9,1,9,-5,-4,3,-11,-35,-10,28,-17
-10,-9,2,10,-6,-3,3,-10,-34,-9,28,-16
-10,-8,2,10,-6,-3,3,-10,-33,-9,29,-15
-10,-8,2,10,-6,-3,4,-10,-32,-8,29,-15
-11,-8,2,10,-6,-3,4,-10,-32,-8,29,-15
-11,-9,2,10,-6,-3,4,-10,-31,-8,29,-15
-12,-9,2,11,-7,-3,4,-10,-31,-8,29,-15
-13,-9,4,12,-9,-2,4,-9,-30,-7,30,-14
-14,-8,6,11,-10,-1,4,-8,-29,-7,30,-14
-13,-8,6,11,-10,-1,4,-8,-29,-7,30,-14
-12,-8,6,10,-9,-1,3,-9,-29,-7,29,-14
-9,-7,3,8,-5,-2,2,-10,-30,-7,28,-15
-6,-7,0,6,-2,-3,2,-11,-30,-8,28,-15
-6,-7,-1,7,-2,-3,2,-11,-30,-9,28,-15
-10,-8,1,9,-5,-3,2,-11,-30,-9,28,-15
-12,-9,3,10,-7,-2,2,-11,-30,-9,28,-15
-13,-8,4,10,-8,-2,2,-11,-30,-9,28,-15
-11,-8,3,10,-8,-2,3,-11,-29,-9,28,-15
-10,-8,3,9,-7,-2,4,-11,-29,-9,28,-14
-10,-7,3,9,-6,-2,5,-11,-28,-9,28,-13
-9,-7,3,9,-6,-1,6,-11,-27,-9,28,-13
-9,-7,2,9,-5,-2,7,-11,-27,-10,28,-13
-8,-8,0,9,-4,-3,8,-11,-27,-10,27,-13
-9,-8,1,9,-5,-3,8,-11,-27,-10,27,-13
-10,-8,2,10,-6,-3,9,-11,-27,-10,28,-14
-10,-9,2,10,-6,-4,8,-11,-27,-10,29,-14
-9,-9,1,10,-5,-4,7,-11,-27,-10,29,-15
-9,-10,1,10,-4,-4,5,-11,-27,-10,29,-15
-9,-10,0,9,-4,-4,5,-11,-28,-10,29,-14
-9,-10,0,9,-4,-4,4,-11,-28,-10,30,-14
-8,-9,0,9,-4,-4,3,-12,-29,-10,30,-15
-8,-9,0,9,-4,-4,2,-12,-29,-10,30,-15
-9,-8,1,9,-5,-4,2,-11,-29,-9,31,-14
-10,-8,2,9,-5,-4,2,-11,-29,-9,32,-14
-10,-9,2,10,-6,-4,2,-11,-29,-9,32,-13
-11,-9,3,10,-7,-3,2,-11,-29,-9,33,-13
-12,-9,4,11,-8,-3,3,-10,-28,-8,34,-12
-11,-9,2,10,-6,-3,3,-10,-28,-8,35,-12
-8,-9,-1,9,-3,-5,2,-10,-29,-9,34,-12
-7,-11,-3,9,-2,-7,1,-11,-31,-10,33,-13
-10,-11,-1,11,-4,-6,1,-11,-31,-10,33,-12
-13,-11,2,12,-8,-4,1,-11,-31,-9,33,-12
-14,-10,4,12,-9,-3,1,-12,-32,-9,32,-12
-11,-9,2,9,-7,-3,0,-12,-32,-9,32,-12
-9,-8,1,9,-5,-4,0,-12,-32,-9,32,-12
-11,-10,2,11,-6,-4,1,-12,-32,-9,32,-11
-13,-11,2,12,-7,-4,1,-12,-32,-8,32,-10
-11,-9,2,11,-6,-4,1,-11,-31,-8,33,-10
-9,-8,1,9,-5,-3,1,-11,-31,-7,33,-9
-9,-8,1,8,-4,-3,1,-11,-30,-7,32,-9
-9,-8,1,8,-5,-3,0,-11,-30,-7,31,-9
-10,-9,2,9,-5,-4,0,-11,-30,-7,30,-9
-11,-10,2,11,-6,-4,-1,-12,-30,-6,30,-9
-12,-11,2,11,-6,-4,-2,-12,-29,-6,30,-9
-11,-10,1,11,-6,-4,-2,-12,-29,-5,30,-8
-10,-9,1,9,-5,-3,-1,-12,-28,-4,31,-7
-9,-7,2,8,-5,-2,0,-11,-27,-4,32,-6
-9,-7,2,8,-6,-2,0,-10,-26,-4,33,-6
-9,-6,3,7,-6,-1,0,-10,-25,-4,33,-5
-10,-5,5,7,-7,0,0,-9,-24,-3,34,-4
-10,-4,7,7,-8,2,0,-9,-22,-1,36,-3
-10,-3,8,6,-9,3,1,-8,-20,-1,37,-2
-11,-3,8,7,-9,3,2,-8,-17,-2,36,-2
-9,-3,6,6,-7,2,1,-9,-16,-3,35,-3
-5,-2,3,4,-4,1,0,-10,-15,-4,35,-4
-3,-1,2,3,-3,0,0,-10,-14,-3,35,-4
-4,-2,2,3,-4,0,0,-10,-13,-2,35,-3
-6,-3,4,5,-5,0,0,-9,-13,-1,36,-3
-7,-3,4,5,-5,0,0,-10,-14,-1,35,-3
-5,-2,4,4,-4,0,-1,-11,-14,-1,35,-3
-3,-2,3,3,-3,0,-1,-13,-14,-2,34,-3
-3,-2,3,2,-3,0,-2,-13,-14,-2,34,-3
-4,-2,3,3,-4,1,-2,-13,-14,-1,34,-2
-5,-2,4,3,-4,1,-2,-13,-14,0,35,-1
-4,-1,3,3,-4,1,-2,-12,-14,1,35,0
-4,0,3,2,-3,1,-3,-12,-13,1,35,0
-4,-1,2,2,-3,1,-4,-13,-13,1,35,0
-5,-2,3,4,-3,1,-5,-13,-13,1,35,0
-7,-4,4,5,-5,0,-5,-14,-13,1,35,0
-7,-4,4,5,-5,0,-5,-14,-13,1,36,0
-5,-4,1,4,-3,-1,-5,-14,-13,0,35,-1
-4,-5,0,5,-2,-2,-6,-15,-14,0,34,-2
-6,-7,0,6,-3,-3,-5,-15,-14,0,34,-3
-8,-7,1,8,-4,-3,-5,-15,-14,0,34,-3
-8,-7,1,8,-4,-3,-5,-15,-14,1,34,-4
-8,-7,1,8,-4,-3,-5,-15,-14,1,34,-4
-9,-8,1,8,-4,-3,-4,-15,-13,1,33,-5
-9,-9,0,9,-4,-3,-3,-15,-12,1,33,-6
-9,-10,-1,10,-4,-5,-2,-15,-11,1,32,-6
-10,-12,-2,11,-5,-6,-1,-15,-11,1,32,-7
-11,-14,-2,12,-5,-7,-1,-15,-11,1,31,-8
-12,-14,-2,13,-5,-8,-1,-16,-11,0,30,-9
-11,-14,-2,13,-5,-8,-1,-16,-12,-1,28,-10
-11,-15,-3,13,-4,-9,-2,-17,-12,-2,27,-11
-12,-17,-4,15,-4,-11,-2,-17,-12,-2,27,-11
-14,-18,-3,16,-5,-11,-2,-18,-12,-1,27,-11
-14,-17,-3,16,-6,-10,-2,-18,-12,0,27,-11
-12,-16,-4,14,-4,-10,-3,-18,-13,0,27,-11
-10,-15,-4,13,-3,-10,-3,-19,-14,0,26,-11
-10,-15,-4,13,-3,-10,-4,-18,-15,0,26,-11
-10,-15,-4,13,-3,-10,-4,-18,-16,0,27,-11
-10,-15,-4,13,-3,-10,-3,-17,-16,0,27,-11
-11,-16,-5,14,-3,-10,-3,-17,-15,0,27,-11
-12,-18,-5,15,-4,-11,-3,-17,-15,-1,27,-11
-13,-18,-4,16,-4,-11,-3,-18,-16,-1,27,-11
-13,-17,-4,15,-4,-11,-3,-18,-16,-1,27,-11
-13,-17,-3,15,-5,-10,-3,-18,-16,-1,28,-11
-15,-17,-2,16,-7,-10,-3,-18,-16,-1,28,-11
-16,-17,0,17,-8,-10,-2,-18,-16,-2,28,-11
-14,-16,-1,15,-6,-9,-2,-18,-16,-2,27,-11
-11,-16,-3,13,-3,-10,-2,-19,-17,-3,26,-11
-10,-16,-5,13,-2,-10,-3,-18,-17,-3,26,-10
-10,-16,-5,13,-2,-11,-2,-17,-16,-3,27,-9
-11,-17,-5,14,-3,-11,-2,-17,-16,-2,28,-9
-12,-19,-6,16,-4,-12,-1,-17,-16,-2,27,-10
-14,-21,-6,18,-5,-14,-1,-17,-17,-2,26,-11
-16,-23,-7,19,-5,-15,-1,-18,-17,-2,25,-11
-15,-22,-7,19,-4,-15,-1,-18,-17,-2,25,-12
-15,-21,-6,19,-5,-14,-1,-18,-16,0,26,-11
-16,-20,-4,18,-6,-12,0,-17,-15,1,27,-10
-15,-18,-3,17,-6,-11,1,-16,-14,2,27,-9
-14,-17,-3,16,-5,-10,2,-16,-13,3,28,-9
-14,-16,-2,15,-6,-9,2,-16,-12,4,28,-8
-14,-15,0,14,-7,-8,3,-14,-10,6,28,-8
-14,-16,-2,14,-6,-9,4,-13,-8,8,28,-8
-13,-17,-4,15,-4,-11,5,-10,-6,9,28,-8
-14,-18,-5,16,-4,-11,5,-5,-1,12,30,-7
-14,-18,-4,16,-4,-11,6,2,6,16,33,-5
-12,-18,-6,15,-2,-11,6,11,15,21,35,-3
-7,-17,-9,12,1,-12,6,21,25,27,38,-1
-1,-15,-13,8,6,-13,5,31,36,35,43,2
5,-12,-16,3,11,-13,4,40,46,43,49,7
12,-9,-20,-2,16,-14,3,48,56,51,56,12
20,-4,-24,-8,22,-14,1,55,64,57,62,17
31,1,-29,-16,30,-14,-2,59,70,63,67,22
40,6,-33,-23,37,-13,-9,56,69,64,70,27
48,10,-37,-28,43,-13,-20,45,62,60,70,29
54,14,-40,-33,47,-13,-29,31,50,51,67,30
55,15,-39,-35,47,-12,-35,14,34,38,61,28
49,14,-34,-31,42,-10,-39,-7,13,22,52,24
39,11,-26,-25,33,-8,-43,-34,-15,3,42,18
27,7,-20,-17,24,-7,-46,-62,-46,-18,29,11
17,2,-15,-10,16,-7,-50,-87,-75,-39,15,3
9,-3,-13,-3,11,-8,-54,-105,-97,-56,3,-5
3,-10,-13,3,8,-11,-57,-115,-110,-69,-7,-13
-3,-18,-14,10,6,-15,-57,-118,-116,-77,-15,-20
-9,-25,-15,17,3,-19,-55,-115,-116,-81,-21,-26
-15,-30,-13,23,-1,-21,-51,-107,-110,-81,-22,-29
-21,-33,-10,27,-6,-22,-47,-97,-100,-76,-21,-30
-25,-33,-9,29,-8,-22,-42,-86,-89,-70,-19,-30
-24,-32,-8,28,-8,-21,-37,-74,-78,-64,-17,-29
-22,-30,-9,26,-7,-21,-33,-64,-68,-57,-15,-28
-21,-30,-9,25,-6,-20,-31,-56,-59,-51,-12,-27
-20,-29,-8,25,-6,-19,-29,-49,-51,-45,-9,-26
-20,-27,-6,24,-7,-16,-26,-42,-43,-39,-4,-23
-20,-24,-3,22,-8,-13,-23,-36,-36,-32,0,-20
-19,-21,-1,20,-9,-11,-20,-30,-30,-26,4,-17
-18,-19,0,19,-9,-10,-18,-26,-26,-23,6,-16
-18,-18,-1,18,-8,-10,-17,-24,-23,-22,6,-15
-17,-19,-3,18,-7,-11,-16,-22,-21,-20,7,-15
-16,-19,-4,17,-6,-11,-16,-20,-19,-19,7,-14
-15,-19,-3,17,-6,-11,-15,-18,-17,-17,8,-14
-17,-19,-1,18,-8,-10,-13,-15,-14,-14,10,-13
-17,-19,0,19,-9,-9,-12,-14,-12,-13,11,-12
-15,-19,-2,17,-7,-10,-12,-13,-10,-13,10,-12
-13,-18,-4,16,-4,-11,-11,-13,-10,-13,9,-12
-12,-18,-4,15,-3,-11,-10,-13,-9,-12,9,-11
-12,-17,-4,15,-3,-11,-10,-13,-7,-10,10,-10
-13,-17,-4,15,-4,-11,-10,-12,-7,-9,10,-10
-12,-16,-4,14,-4,-10,-10,-12,-6,-9,9,-10
-11,-16,-4,13,-3,-10,-10,-12,-6,-10,8,-10
-10,-16,-5,13,-2,-10,-10,-12,-6,-10,7,-11
-9,-16,-5,13,-2,-10,-10,-12,-5,-10,7,-11
-9,-16,-6,13,-1,-11,-9,-11,-4,-10,7,-11
-10,-17,-6,14,-1,-11,-8,-10,-3,-10,7,-11
-10,-17,-7,14,-1,-12,-9,-10,-2,-9,7,-11
-10,-16,-7,13,-1,-11,-9,-10,-2,-9,7,-11
-10,-15,-6,12,-2,-10,-9,-9,-2,-8,8,-10
-9,-15,-5,12,-2,-10,-9,-9,-2,-7,8,-10
-9,-15,-5,12,-2,-10,-9,-8,-1,-6,9,-10
-10,-15,-4,12,-3,-9,-10,-8,-1,-6,9,-10
-11,-15,-3,13,-4,-8,-10,-8,-1,-6,9,-10
-12,-14,-2,13,-5,-8,-10,-8,-1,-6,9,-10
-12,-13,-1,13,-5,-7,-10,-8,-1,-6,10,-10
-11,-13,-2,12,-5,-7,-9,-9,-2,-7,9,-10
-10,-13,-3,11,-4,-8,-9,-9,-3,-8,8,-11
-9,-13,-3,11,-3,-8,-9,-9,-4,-9,8,-11
-10,-13,-3,11,-4,-7,-9,-9,-4,-9,7,-11
-11,-13,-1,12,-5,-6,-8,-8,-4,-8,8,-10
-12,-13,0,12,-6,-6,-8,-8,-3,-7,8,-10
-12,-13,0,13,-5,-7,-7,-7,-2,-7,8,-10
-12,-13,-1,13,-5,-7,-7,-6,-2,-7,8,-9
-11,-12,-1,11,-5,-6,-6,-5,-1,-6,8,-8
-9,-11,-2,10,-3,-7,-6,-5,-1,-6,7,-8
-7,-12,-5,10,-1,-9,-7,-5,-2,-6,5,-10
-7,-14,-7,11,0,-10,-7,-5,-3,-7,4,-11
-8,-15,-7,12,0,-11,-6,-5,-4,-7,3,-11
-8,-15,-7,11,0,-11,-5,-5,-4,-7,2,-11
-7,-14,-6,11,0,-10,-5,-5,-3,-6,1,-10
-7,-12,-5,10,0,-9,-5,-4,-2,-5,0,-10
-7,-11,-4,10,-1,-8,-4,-4,-2,-4,-1,-10
-7,-11,-4,10,-2,-8,-4,-3,-1,-4,-3,-10
-6,-10,-4,9,-1,-8,-3,-3,-1,-4,-5,-10
-6,-10,-4,9,-1,-8,-3,-3,-1,-4,-7,-9
-6,-11,-4,9,-2,-8,-3,-3,-1,-4,-8,-9
-8,-11,-3,10,-3,-7,-2,-2,0,-4,-8,-8
-8,-10,-2,9,-3,-6,-2,-2,0,-4,-9,-7
-7,-9,-3,8,-2,-6,-2,-2,0,-5,-10,-7
-5,-8,-3,7,-1,-6,-2,-2,0,-6,-11,-7
-6,-7,-1,7,-3,-4,-1,-1,0,-5,-11,-7
-8,-6,1,7,-5,-3,-1,0,1,-5,-12,-6
-8,-7,1,7,-5,-3,0,0,2,-5,-13,-6
-7,-7,0,7,-3,-4,0,1,2,-6,-15,-6
-5,-7,-2,6,-1,-4,0,2,2,-7,-16,-6
-5,-7,-2,7,-1,-5,0,3,2,-6,-16,-6
-5,-7,-2,7,-1,-5,0,4,2,-5,-16,-5
-6,-7,0,7,-2,-4,1,5,3,-4,-15,-4
-5,-5,0,6,-3,-3,2,6,4,-3,-15,-4
-3,-4,-1,4,-1,-3,2,7,4,-3,-15,-4
0,-3,-3,2,1,-4,1,7,4,-2,-15,-4
1,-3,-4,1,3,-4,0,7,4,-2,-14,-3
1,-3,-4,1,3,-3,0,7,5,-1,-13,-3
1,-2,-4,1,3,-3,0,8,6,-1,-12,-2
2,-2,-4,0,3,-2,0,8,7,0,-12,-2
1,-2,-3,0,3,-2,0,9,7,0,-12,-1
0,-3,-2,1,1,-2,0,9,7,0,-12,-1
-1,-3,-2,2,0,-2,1,10,7,1,-11,-1
0,-2,-2,1,0,-2,2,11,9,4,-10,0
0,-1,0,0,0,0,2,12,11,7,-8,2
0,0,0,0,0,1,2,14,12,8,-6,3
2,2,0,-1,1,1,2,14,13,9,-5,3
6,3,-2,-4,4,1,2,14,13,10,-5,4
8,4,-3,-6,5,1,1,15,14,11,-4,4
8,5,-2,-6,5,1,1,15,14,11,-4,4
6,6,0,-6,3,3,1,15,15,11,-4,4
4,6,2,-6,0,4,1,16,16,12,-3,5
2,6,3,-5,-1,5,1,17,17,15,-2,6
0,5,4,-3,-2,5,2,18,18,17,0,7
0,6,5,-3,-3,6,2,19,19,19,1,8
1,7,5,-4,-2,6,2,20,20,20,1,8
3,7,4,-4,-1,6,1,19,20,20,1,8
5,7,2,-5,1,4,0,19,19,21,1,8
7,6,-1,-6,3,2,-1,18,18,22,1,7
8,4,-3,-6,5,0,-2,17,17,22,1,7
8,4,-3,-7,6,0,-2,17,17,23,2,7
8,6,-1,-8,5,3,-1,17,18,24,2,8
8,9,1,-8,3,5,0,18,19,25,1,9
9,10,2,-9,4,6,-1,17,19,26,0,9
11,10,0,-10,6,5,-2,16,19,26,-2,8
12,10,-1,-10,7,4,-3,16,18,26,-3,7
9,8,0,-8,5,4,-2,15,18,26,-4,6
6,6,0,-5,2,3,-2,15,18,25,-5,5
5,5,0,-5,3,1,-2,13,17,24,-6,4
5,4,-2,-5,3,0,-2,12,16,24,-7,4
3,3,-1,-4,2,1,-2,11,15,23,-7,3
2,3,1,-3,0,2,-2,10,15,22,-8,3
2,4,2,-3,0,3,-2,9,14,21,-9,2
2,3,2,-3,0,2,-1,9,12,20,-10,1
1,2,1,-1,0,1,-1,8,11,19,-11,0
1,0,0,0,0,0,0,8,10,18,-12,0
0,0,0,0,0,-1,0,7,9,17,-12,0
-1,0,1,1,-1,0,0,6,8,18,-12,0
-3,0,3,1,-3,1,0,5,7,18,-12,0
-3,0,3,1,-3,1,0,4,6,17,-13,0
0,0,1,1,0,0,-2,2,3,15,-15,-2
1,-1,-1,1,1,-1,-2,0,1,12,-17,-4
0,-2,-2,2,1,-2,-1,0,0,11,-18,-6
-2,-4,-2,4,0,-4,0,-1,-1,10,-18,-7
-4,-6,-2,5,-1,-4,2,-1,-2,10,-18,-7
-5,-6,-2,6,-2,-4,4,-1,-2,10,-18,-8
-6,-7,-1,6,-2,-4,5,-2,-3,9,-17,-9
-7,-8,0,8,-3,-4,5,-3,-4,8,-17,-10
-8,-9,0,9,-4,-4,5,-4,-4,8,-16,-10
-7,-8,0,8,-4,-4,5,-4,-5,7,-15,-10
-6,-8,-1,8,-3,-4,6,-5,-6,7,-14,-11
-7,-8,-1,8,-3,-4,6,-6,-8,6,-15,-11
-8,-8,0,8,-4,-4,6,-7,-9,5,-15,-12
-10,-8,0,9,-5,-4,6,-8,-10,4,-16,-12
-9,-8,0,9,-4,-4,6,-8,-11,4,-16,-12
-8,-8,-1,8,-3,-5,6,-8,-11,4,-15,-12
-8,-9,-2,9,-3,-5,6,-8,-12,3,-15,-13
-8,-12,-3,10,-2,-7,5,-8,-13,2,-17,-14
-8,-14,-5,11,-1,-9,4,-8,-14,2,-17,-14
-9,-15,-5,13,-2,-10,3,-8,-14,3,-17,-14
-11,-15,-4,14,-4,-10,2,-8,-13,4,-16,-13
-12,-14,-2,13,-5,-8,2,-7,-12,4,-15,-12
-12,-12,-1,12,-5,-7,3,-7,-12,4,-16,-12
-10,-11,-1,11,-4,-7,3,-7,-13,3,-17,-12
-9,-11,-2,10,-3,-7,4,-7,-13,3,-17,-11
-9,-11,-2,10,-3,-7,4,-6,-12,3,-16,-11
-8,-11,-2,10,-3,-7,4,-6,-12,4,-15,-10
-8,-11,-3,10,-2,-7,3,-6,-12,4,-15,-10
-7,-12,-4,10,-1,-8,3,-7,-12,3,-15,-10
-7,-13,-6,10,0,-10,3,-7,-12,2,-16,-10
-7,-13,-7,10,0,-11,3,-7,-12,1,-16,-10
-7,-14,-7,11,0,-11,3,-7,-12,0,-17,-11
-9,-15,-5,12,-1,-10,3,-7,-11,-1,-18,-11
-10,-15,-4,13,-3,-9,3,-6,-11,-4,-18,-11
-11,-15,-2,13,-4,-9,3,-6,-11,-7,-18,-10
-12,-14,-1,13,-5,-8,4,-6,-10,-10,-17,-10
-13,-14,0,14,-7,-7,4,-7,-10,-12,-16,-9
-14,-13,0,14,-7,-7,4,-7,-9,-13,-15,-8
-13,-12,0,13,-6,-7,4,-8,-9,-14,-15,-7
-11,-11,0,11,-6,-6,4,-8,-9,-15,-14,-7
-10,-9,0,10,-5,-5,3,-8,-9,-15,-14,-6
-7,-9,-1,8,-3,-5,2,-8,-9,-16,-14,-6
-5,-9,-3,7,-1,-6,1,-8,-9,-16,-15,-7
-5,-10,-4,7,0,-6,1,-7,-9,-16,-15,-7
-5,-10,-4,7,0,-6,2,-7,-8,-16,-15,-6
-7,-10,-3,9,-2,-6,3,-6,-8,-15,-14,-5
-9,-12,-2,11,-3,-7,3,-6,-7,-15,-14,-5
-10,-13,-3,11,-3,-8,3,-6,-7,-15,-15,-6
-9,-13,-4,11,-2,-9,2,-6,-7,-16,-15,-6
-8,-13,-4,11,-1,-9,2,-7,-7,-16,-15,-6
-9,-13,-3,12,-2,-8,1,-7,-7,-15,-14,-5
-11,-12,0,12,-5,-6,2,-7,-7,-13,-13,-4
-11,-11,1,11,-6,-5,2,-7,-7,-13,-13,-4
-9,-10,0,10,-4,-5,1,-7,-9,-15,-14,-4
-7,-9,-2,8,-2,-6,1,-8,-9,-17,-15,-5
-6,-9,-4,8,0,-7,1,-7,-9,-16,-15,-5
-5,-9,-5,7,0,-7,1,-6,-8,-13,-14,-4
-4,-8,-5,7,0,-7,1,-5,-7,-11,-14,-3
-5,-10,-4,8,0,-7,1,-5,-8,-10,-14,-4
-8,-12,-3,11,-2,-8,1,-5,-9,-11,-16,-5
-10,-14,-2,12,-4,-8,2,-5,-9,-10,-17,-5
-12,-14,-1,13,-5,-8,3,-4,-9,-9,-16,-4
-13,-14,0,14,-6,-7,4,-3,-8,-7,-14,-2
-13,-12,0,13,-6,-6,4,-2,-8,-6,-13,-1
-11,-10,0,11,-5,-5,3,-2,-9,-5,-13,-1
-9,-9,0,9,-4,-5,2,-2,-9,-5,-13,-1
-7,-8,-2,8,-2,-5,2,-2,-10,-5,-13,-1
-5,-8,-3,7,-1,-5,2,-2,-10,-5,-13,-1
-5,-8,-3,7,-1,-5,4,-2,-9,-5,-13,-2
-4,-7,-2,6,-1,-4,5,-1,-7,-4,-13,-1
-4,-6,-2,5,0,-3,5,0,-6,-3,-12,-1
-3,-5,-2,4,0,-3,6,0,-6,-3,-12,-1
-6,-5,0,5,-2,-2,7,1,-5,-2,-12,-1
-8,-6,1,7,-5,-2,7,2,-5,-3,-12,-1
-8,-7,0,8,-4,-3,7,1,-6,-4,-14,-2
-7,-10,-3,9,-2,-6,6,0,-7,-6,-15,-4
-7,-12,-5,10,-1,-8,5,0,-8,-7,-16,-5
-6,-12,-6,10,0,-9,4,-1,-8,-7,-16,-6
-6,-12,-5,9,0,-9,4,0,-8,-7,-16,-6
-7,-11,-4,9,-1,-8,5,0,-7,-6,-15,-5
-7,-10,-3,9,-1,-7,5,2,-6,-6,-14,-3
-7,-9,-2,8,-1,-6,5,3,-5,-5,-13,-2
-5,-8,-3,7,0,-6,5,3,-5,-5,-13,-2
-5,-9,-4,7,0,-7,5,3,-6,-5,-12,-2
-4,-8,-4,6,1,-6,5,3,-6,-5,-12,-1
-2,-8,-5,5,2,-6,4,3,-6,-5,-12,-1
-3,-8,-5,6,1,-7,4,2,-7,-5,-13,-1
-5,-8,-4,6,0,-6,4,2,-7,-6,-14,-1
-4,-7,-4,5,0,-5,4,3,-8,-7,-14,-1
-1,-6,-5,4,1,-5,3,2,-8,-7,-14,-2
0,-6,-5,3,2,-5,3,2,-8,-7,-13,-2
-2,-6,-4,4,1,-5,3,2,-8,-7,-13,-2
-5,-7,-1,6,-2,-4,3,2,-7,-7,-12,-1
-8,-7,1,7,-4,-3,3,3,-6,-7,-11,-1
-7,-6,0,7,-4,-3,4,3,-4,-7,-11,-1
-5,-7,-2,6,-1,-4,4,3,-3,-7,-11,-1
-4,-8,-4,6,0,-6,3,3,-2,-8,-12,-1
-5,-10,-5,8,0,-7,3,3,-1,-8,-13,-2
-7,-11,-4,9,-1,-7,2,2,0,-9,-13,-2
-7,-10,-3,9,-2,-6,2,2,2,-9,-13,-2
-7,-8,-1,8,-3,-4,2,3,3,-9,-13,-2
-6,-5,0,6,-3,-2,3,3,4,-9,-12,-2
-4,-4,0,5,-2,-2,4,3,5,-9,-12,-2
-2,-3,-1,3,-1,-2,4,3,6,-10,-12,-1
-1,-2,-1,2,0,-1,5,3,6,-10,-12,-1
0,-2,-1,1,0,-1,5,4,6,-11,-11,-1
0,-3,-2,2,0,-2,5,4,7,-11,-10,0
0,-3,-2,2,1,-2,6,4,7,-11,-10,0
1,-2,-3,1,2,-2,6,4,7,-13,-10,0
1,-2,-3,1,2,-3,5,4,7,-14,-10,0
0,-2,-2,1,1,-2,5,4,7,-14,-10,0
-1,-1,0,1,-1,0,6,4,7,-14,-9,1
-1,1,2,0,-2,2,6,4,8,-14,-8,2
1,4,2,-2,0,3,6,4,8,-13,-7,3
4,5,1,-4,1,4,6,5,8,-13,-6,3
3,5,2,-4,0,4,6,5,8,-12,-5,4
0,4,4,-2,-2,4,6,5,8,-12,-5,5
-1,3,5,0,-3,4,6,4,8,-13,-5,5
0,3,4,0,-2,3,6,4,8,-14,-6,4
0,3,3,0,-2,3,5,4,9,-13,-6,4
0,3,4,-1,-2,4,5,4,9,-13,-6,5
0,5,6,-2,-3,5,5,4,9,-12,-5,5
0,6,7,-3,-4,7,4,3,9,-12,-5,5
1,7,6,-4,-3,7,4,2,9,-12,-6,4
4,7,3,-5,0,5,3,1,8,-12,-6,3
4,8,3,-6,1,5,2,1,8,-10,-5,4
2,7,5,-5,-1,6,1,1,9,-9,-4,5
2,7,5,-4,-2,6,0,1,10,-8,-4,6
3,6,4,-4,-1,5,-1,0,10,-9,-5,5
4,5,2,-4,0,4,-2,-1,10,-10,-6,4
5,4,0,-4,2,3,-1,-1,10,-11,-7,4
5,4,0,-4,2,2,0,0,11,-11,-7,4
5,4,0,-5,2,2,0,-1,11,-10,-7,4
6,4,-1,-5,3,2,0,-2,10,-10,-7,3
5,3,-1,-4,3,1,0,-2,10,-10,-8,3
4,3,-1,-4,3,0,1,-2,10,-10,-8,3
4,2,-1,-3,2,0,1,-2,10,-10,-8,3
4,1,-2,-2,2,0,1,-3,10,-10,-8,2
4,1,-2,-2,3,0,1,-3,8,-12,-9,1
3,0,-2,-1,3,0,2,-3,7,-13,-10,0
2,0,-1,-1,1,0,3,-3,6,-12,-9,0
1,0,0,0,1,0,3,-3,6,-12,-9,0
1,-1,-1,0,1,-1,3,-3,6,-12,-9,1
-1,-4,-1,2,0,-2,3,-3,5,-13,-9,1
-2,-5,-1,4,0,-3,3,-3,5,-15,-10,0
-2,-4,-1,4,0,-3,3,-3,5,-16,-10,0
-2,-4,0,4,-1,-2,4,-2,5,-15,-9,1
-2,-3,0,3,0,-2,4,-1,6,-14,-8,1
0,-3,-1,2,0,-2,4,-1,7,-14,-7,1
0,-3,-2,2,1,-3,3,-2,6,-14,-7,0
0,-3,-3,1,2,-3,2,-3,5,-16,-8,0
0,-3,-3,1,2,-3,3,-3,5,-16,-8,0
-1,-3,-2,1,1,-3,4,-2,5,-16,-8,0
-1,-3,-1,2,0,-3,4,-2,5,-16,-8,0
0,-4,-3,2,1,-3,3,-2,4,-16,-8,0
0,-3,-4,2,2,-4,2,-1,4,-16,-8,-1
0,-3,-4,1,2,-4,2,-1,4,-16,-8,-1
1,-3,-5,1,3,-4,2,-2,3,-17,-9,-1
1,-4,-6,2,4,-5,3,-2,2,-18,-10,-2
1,-5,-6,2,3,-5,4,-1,2,-18,-10,-1
1,-5,-5,2,3,-5,5,-1,3,-17,-9,0
0,-4,-4,2,3,-5,5,-1,3,-17,-8,0
0,-4,-3,2,1,-4,5,-1,3,-16,-8,0
0,-3,-3,1,1,-3,5,-1,3,-17,-8,0
2,-2,-4,0,3,-3,5,0,3,-16,-8,0
4,0,-5,-2,4,-2,6,0,3,-15,-7,1
3,-1,-4,0,3,-2,6,1,3,-15,-7,1
2,-2,-4,1,3,-3,7,0,2,-16,-8,1
3,-3,-6,0,4,-4,7,0,0,-18,-10,0
4,-3,-7,0,5,-5,7,0,0,-18,-10,0
4,-3,-6,-1,4,-4,8,1,0,-18,-9,1
3,-2,-5,-1,3,-3,10,2,1,-18,-9,2
3,-1,-4,-1,3,-3,10,2,1,-18,-9,2
2,-2,-4,0,2,-3,10,1,0,-18,-10,2
-1,-2,-1,2,0,-2,11,1,0,-18,-9,2
-3,0,2,2,-3,1,12,3,2,-16,-7,3
-3,2,5,1,-4,3,14,7,6,-13,-4,5
0,3,4,-1,-2,3,16,11,10,-9,-2,6
3,4,1,-3,0,2,18,18,17,-4,0,8
5,5,0,-5,2,2,20,26,25,1,3,10
7,5,-2,-6,4,1,22,36,36,10,7,13
12,6,-5,-9,8,0,23,46,48,20,13,16
18,7,-11,-13,15,-1,23,54,59,30,20,20
25,8,-16,-17,21,-3,23,62,69,39,27,24
32,11,-20,-21,27,-3,22,70,80,49,35,29
40,15,-23,-27,32,-3,20,76,89,57,43,35
49,22,-25,-35,37,-2,15,77,94,63,49,41
56,28,-27,-43,41,0,7,70,91,64,54,46
61,33,-28,-47,44,1,-3,59,81,58,53,48
64,35,-29,-49,46,2,-12,45,67,46,47,47
62,35,-27,-48,44,3,-18,26,47,31,38,43
56,33,-24,-44,40,4,-23,1,19,10,25,36
49,27,-22,-38,36,3,-27,-26,-12,-14,10,27
39,20,-20,-29,30,0,-30,-52,-43,-38,-5,18
29,11,-18,-20,23,-3,-33,-71,-67,-58,-18,8
22,4,-17,-13,19,-7,-35,-84,-83,-74,-30,0
17,-2,-19,-8,18,-11,-35,-90,-93,-85,-40,-7
13,-7,-20,-3,16,-13,-35,-89,-95,-90,-47,-13
8,-10,-19,1,13,-14,-33,-85,-92,-90,-50,-16
4,-12,-18,4,11,-15,-31,-78,-86,-87,-50,-18
1,-14,-17,7,9,-15,-27,-69,-77,-81,-48,-17
-1,-15,-14,8,7,-15,-21,-58,-66,-73,-43,-15
-3,-14,-11,9,4,-13,-14,-46,-55,-64,-38,-12
-4,-12,-8,8,2,-11,-9,-37,-45,-56,-34,-10
-3,-10,-6,7,1,-9,-7,-29,-38,-49,-30,-8
-3,-8,-4,5,0,-7,-5,-22,-30,-41,-26,-5
-4,-5,0,4,-1,-3,-3,-16,-24,-34,-21,-2
-3,-1,2,2,-2,0,-1,-11,-19,-29,-18,0
0,3,2,0,-1,3,-1,-7,-15,-26,-16,1
3,5,1,-3,1,3,0,-5,-13,-24,-15,2
5,5,0,-4,2,2,0,-3,-11,-22,-13,3
5,5,-1,-4,2,2,2,0,-8,-19,-12,4
6,5,-1,-5,3,1,5,3,-5,-17,-11,4
6,5,-2,-6,3,1,6,5,-4,-15,-10,5
7,6,-1,-6,3,2,6,6,-3,-13,-9,6
7,7,-1,-7,3,3,7,7,-2,-11,-9,6
8,7,-1,-7,4,3,7,8,-2,-10,-8,7
7,7,0,-6,3,3,8,9,-1,-8,-7,8
7,8,0,-7,3,4,9,10,0,-7,-6,8
9,9,0,-9,4,4,9,11,0,-6,-5,8
12,9,-2,-10,7,3,9,12,0,-6,-6,8
12,8,-4,-10,8,1,9,12,0,-6,-6,7
9,6,-3,-7,6,1,10,12,1,-6,-6,7
7,6,-2,-6,5,1,10,12,1,-5,-6,8
7,7,-1,-6,4,2,10,13,2,-5,-6,8
9,9,0,-8,5,3,10,13,2,-5,-6,8
11,10,-1,-10,6,4,10,13,3,-4,-6,7
11,10,-1,-11,6,4,11,13,3,-3,-6,7
11,9,-1,-10,6,4,12,13,3,0,-6,7
10,9,-1,-10,5,4,13,14,4,2,-5,8
11,9,-1,-10,6,4,13,15,4,4,-4,8
13,10,-2,-11,7,4,12,15,3,4,-4,8
13,10,-3,-11,7,4,13,15,3,4,-4,8
13,10,-2,-11,7,4,14,16,3,4,-4,9
14,11,-2,-12,7,4,14,16,3,4,-4,9
15,13,-2,-14,7,5,15,16,2,4,-4,10
16,13,-2,-15,8,5,15,17,2,4,-4,10
16,12,-3,-14,9,4,16,17,1,3,-4,10
16,12,-4,-14,9,3,16,17,1,3,-4,10
16,12,-4,-15,10,4,17,17,0,3,-4,10
16,13,-3,-14,9,5,18,18,0,3,-3,10
13,13,-1,-13,7,6,19,18,0,4,-2,10
12,13,1,-13,5,7,20,19,0,3,-1,11
13,14,1,-13,6,7,20,18,-1,2,-1,11
15,14,0,-14,7,6,20,18,-2,1,-1,11
16,13,-2,-14,8,4,20,18,-3,0,-2,11
16,13,-2,-14,9,4,20,19,-3,0,-2,11
15,13,-1,-14,8,5,21,20,-3,0,-2,11
14,13,0,-13,7,6,21,20,-4,1,-2,11
14,13,-1,-13,8,5,21,19,-5,0,-3,10
15,13,-2,-13,8,5,21,19,-6,1,-3,10
15,13,-2,-13,8,5,22,20,-6,1,-2,10
15,14,-1,-14,7,6,23,21,-6,1,-2,11
15,15,0,-15,7,7,23,22,-6,1,-2,12
15,16,1,-15,6,9,24,23,-6,2,-1,13
14,16,1,-15,6,9,23,24,-6,2,-1,13
15,16,0,-15,7,8,23,24,-5,2,-1,13
16,16,0,-16,8,8,23,25,-4,3,-1,13
18,18,-1,-18,9,9,23,25,-3,3,-1,13
21,19,-2,-20,11,9,22,26,-2,4,-1,13
23,20,-3,-21,12,9,22,26,0,4,0,14
21,20,-1,-20,10,9,23,27,1,4,0,14
19,19,0,-20,10,9,23,28,2,3,0,15
21,19,-2,-21,12,8,23,28,3,3,0,14
23,19,-3,-21,13,8,24,28,5,3,0,14
22,20,-2,-21,12,9,24,28,7,4,2,15
20,20,0,-20,10,10,25,29,9,5,3,15
19,21,1,-20,9,11,25,30,10,6,4,15
19,21,2,-20,9,11,25,31,12,6,4,15
19,21,3,-20,8,11,26,32,14,6,4,16
18,21,3,-20,7,12,27,34,16,6,5,17
19,21,2,-21,8,11,27,35,17,7,6,17
21,22,2,-22,9,11,27,36,18,7,7,18
22,24,2,-23,10,12,27,36,20,8,9,18
23,25,1,-24,11,13,27,37,21,9,10,19
24,25,1,-24,11,13,27,37,21,10,11,19
23,26,3,-25,10,14,28,38,22,10,12,20
24,28,4,-26,9,16,28,40,24,11,13,22
25,30,4,-28,10,17,28,40,25,11,14,22
25,29,4,-28,10,16,28,41,26,11,14,22
22,28,5,-25,8,16,28,42,28,11,15,23
21,28,6,-24,7,17,27,42,29,12,16,23
22,28,5,-25,8,16,26,42,30,12,16,23
23,28,4,-25,9,15,26,43,31,13,16,23
23,27,3,-24,10,14,25,43,32,13,16,23
25,27,2,-26,11,14,25,44,33,14,16,24
28,29,1,-29,13,15,24,44,34,15,16,25
29,32,2,-31,13,17,24,45,36,16,17,26
29,33,4,-31,11,18,24,46,37,17,18,27
27,33,6,-30,10,19,23,46,38,18,19,27
25,33,7,-28,8,20,23,46,39,18,19,27
