leadI,leadII,leadIII,leadaVR,leadaVL,leadaVF,leadV1,leadV2,leadV3,leadV4,leadV5,leadV6
-1,-1,0,1,0,0,3,1,0,1,0,0
-3,-3,0,3,-1,-1,8,2,0,3,-1,-1
-5,-4,0,4,-2,-2,11,3,0,4,-2,-1
-6,-4,2,5,-4,-1,13,4,1,4,-2,-1
-6,-2,3,4,-4,0,14,5,2,5,-2,-1
-5,-1,3,3,-4,1,15,5,2,5,-2,-1
-5,-2,4,4,-5,1,15,5,2,5,-2,-1
-7,-2,4,4,-6,1,16,6,3,6,-1,0
-8,-3,5,5,-7,1,17,6,4,7,0,1
-8,-4,3,6,-6,0,17,5,4,7,0,0
-7,-4,1,6,-4,-1,17,4,4,7,-1,0
-7,-5,1,6,-4,-2,16,3,3,6,-1,0
-7,-5,1,6,-4,-2,16,4,2,6,-1,-1
-6,-5,0,5,-3,-2,15,5,2,6,-1,0
-4,-5,-1,4,-2,-2,15,6,3,6,-1,0
-5,-6,-1,5,-2,-3,16,8,4,7,0,1
-6,-7,-1,6,-2,-3,16,10,4,8,0,1
-5,-6,-1,5,-2,-3,16,11,4,8,0,1
-5,-5,0,5,-2,-2,16,12,4,8,1,1
-7,-3,4,5,-5,0,16,12,4,9,1,2
-8,-3,6,6,-7,1,16,11,5,9,2,2
-9,-4,5,6,-7,0,16,11,5,10,2,2
-9,-4,5,6,-7,0,16,11,5,10,2,2
-7,-3,4,5,-6,1,16,12,6,11,3,2
-3,-1,2,2,-3,1,16,12,5,11,3,2
-1,0,1,0,-1,0,15,12,4,10,2,2
-1,0,0,1,0,0,14,12,4,10,2,3
-1,-1,0,1,0,0,14,13,4,11,3,4
0,0,1,0,-1,0,14,14,4,13,4,5
0,1,1,0,-1,1,14,14,5,13,5,5
-1,0,1,0,-1,1,14,14,5,14,5,5
-3,0,2,1,-2,1,14,15,6,14,6,5
-3,0,3,1,-3,1,15,16,7,14,6,6
-2,0,2,0,-2,1,15,17,7,14,6,6
0,0,1,0,-1,1,14,18,7,14,6,5
1,2,2,-1,0,2,13,18,7,14,6,5
2,3,1,-3,0,2,12,18,7,14,6,6
3,3,0,-3,1,2,12,17,8,14,7,6
3,2,0,-2,1,1,12,16,8,14,7,6
2,1,0,-2,1,0,11,15,8,15,7,6
3,3,0,-3,1,1,11,15,8,16,7,7
3,5,2,-4,1,3,11,15,8,17,8,8
4,6,3,-5,0,5,10,15,7,17,9,8
3,6,4,-5,0,5,9,16,7,17,9,8
2,5,4,-3,0,5,9,17,7,18,9,9
0,5,5,-2,-2,5,10,19,8,20,11,11
0,5,6,-2,-3,5,12,22,9,22,13,13
-1,4,5,-1,-3,4,12,22,10,22,14,13
-1,3,4,-1,-2,3,11,21,10,22,13,13
0,4,3,-2,-1,3,11,20,10,22,13,13
2,5,3,-4,0,4,10,19,11,22,13,13
4,7,3,-5,1,4,10,19,11,22,14,13
5,7,3,-6,1,5,9,19,10,23,14,13
6,8,2,-7,2,4,8,19,10,23,14,13
8,9,1,-8,3,5,8,19,9,23,15,13
8,10,1,-9,3,6,8,19,9,24,15,14
8,10,2,-9,3,6,8,20,9,24,16,15
8,10,1,-9,3,6,8,20,9,24,16,16
9,9,0,-9,4,5,8,21,9,24,16,16
10,9,-1,-9,6,4,7,20,8,24,16,16
11,9,-2,-10,7,3,7,20,8,24,16,16
10,9,0,-9,5,4,7,20,8,24,17,16
8,9,2,-8,3,6,7,20,8,25,17,17
8,10,2,-8,2,6,7,19,7,24,17,17
8,10,2,-9,3,6,6,17,6,23,16,16
9,10,0,-9,4,5,5,16,5,22,15,15
10,10,0,-9,5,4,5,15,5,22,15,15
9,10,0,-9,4,5,5,14,5,22,15,15
7,9,2,-7,2,5,6,14,5,22,16,16
3,7,4,-4,0,5,7,14,5,23,16,16
2,6,4,-4,0,5,7,13,6,23,16,16
5,8,3,-7,1,6,8,12,6,22,16,16
7,11,4,-9,2,8,8,11,6,22,15,16
7,14,7,-10,0,10,9,11,6,22,15,16
6,14,8,-9,-1,11,9,10,5,21,14,15
5,12,8,-8,-1,11,8,8,3,19,13,13
6,11,6,-8,0,9,8,6,2,17,11,12
7,10,3,-9,2,7,7,4,1,16,10,10
7,9,2,-8,2,6,7,4,0,15,9,10
5,8,2,-6,1,5,8,4,1,16,10,10
4,6,2,-5,1,4,9,4,1,16,11,11
3,4,1,-3,0,3,10,4,1,16,11,12
3,3,1,-3,0,2,11,4,1,16,11,12
3,3,1,-3,1,2,11,3,1,15,11,12
3,3,0,-3,1,2,12,3,1,15,10,12
3,3,0,-3,1,2,13,3,1,15,10,12
3,3,0,-3,1,2,13,3,1,14,9,11
3,2,-1,-2,2,1,13,2,0,13,8,10
2,2,-1,-2,1,0,13,1,0,12,6,8
1,2,1,-1,0,2,12,0,-1,11,5,6
-1,1,3,0,-2,2,12,0,-2,10,4,5
-1,0,1,0,-2,1,13,0,-2,9,4,5
0,-2,-1,1,0,-1,14,0,-2,9,4,5
1,-2,-3,0,2,-2,14,-1,-2,8,3,4
2,-2,-4,0,3,-3,14,-2,-3,7,2,3
0,-3,-4,1,2,-3,14,-2,-4,7,2,3
-1,-3,-1,2,0,-2,15,-1,-3,7,2,3
-1,-2,0,1,-1,-1,16,-1,-2,7,2,4
0,-2,0,0,0,-1,16,-2,-2,7,2,3
0,-2,-1,0,0,-1,16,-3,-3,6,0,2
-2,-2,0,1,-1,0,16,-3,-3,5,0,1
-3,-1,2,2,-2,1,16,-2,-2,6,1,2
-3,-1,2,2,-2,1,16,-3,-2,5,1,2
-4,-2,2,3,-3,0,16,-4,-3,4,0,1
-5,-2,2,3,-3,0,16,-4,-4,3,-1,1
-4,-2,2,2,-3,0,16,-4,-4,2,-1,0
-3,0,3,1,-3,1,16,-4,-4,2,-1,0
-4,0,4,1,-4,2,17,-3,-4,3,0,1
-6,0,6,3,-6,2,17,-2,-3,4,0,2
-8,-1,6,4,-6,2,17,-2,-2,5,0,2
-7,-3,4,5,-5,0,17,-1,-2,5,0,1
-6,-4,1,6,-4,-1,17,-1,-2,4,0,0
-5,-5,0,5,-2,-2,17,-1,-2,4,-1,0
-5,-6,-1,6,-2,-3,17,-1,-3,3,-1,0
-7,-7,0,7,-3,-4,17,-2,-3,2,-2,-1
-7,-6,0,7,-4,-3,17,-3,-4,2,-2,-1
-6,-5,1,6,-3,-2,17,-2,-4,2,-2,-1
-6,-4,1,5,-3,-1,18,-1,-3,2,-1,0
-6,-5,1,6,-3,-1,18,-1,-3,3,-1,0
-5,-4,2,5,-3,-1,18,-1,-3,3,-1,0
-4,-3,2,4,-2,0,17,-2,-3,2,-1,0
-4,-3,1,4,-2,-1,17,-3,-3,2,-1,0
-4,-5,0,5,-2,-2,18,-3,-3,1,-1,0
-3,-6,-2,5,0,-4,18,-3,-4,1,-1,0
-1,-6,-4,4,1,-5,18,-3,-4,0,-2,0
-3,-6,-3,5,0,-5,18,-3,-4,0,-2,0
-5,-5,0,5,-2,-2,19,-3,-4,1,-1,0
-6,-4,2,5,-4,0,19,-3,-4,1,-1,0
-6,-2,3,4,-4,0,18,-3,-4,0,-2,-1
-5,-2,3,3,-4,0,18,-3,-4,0,-2,-1
-6,-2,3,4,-5,0,19,-3,-4,0,-2,0
-10,-3,5,7,-7,1,20,-2,-3,1,-1,0
-12,-4,7,8,-9,1,21,0,-2,2,-1,0
-12,-4,7,8,-10,2,20,0,-2,2,-1,0
-10,-2,7,7,-9,2,19,0,-3,1,-2,-1
-8,-1,6,5,-7,2,19,0,-3,0,-3,-1
-7,-1,6,4,-6,2,19,0,-3,0,-3,-1
-7,-1,6,4,-7,3,19,0,-3,0,-2,-1
-7,-2,6,4,-6,2,19,-1,-2,1,-2,-1
-5,-2,3,3,-4,0,19,-2,-3,1,-2,-1
-2,-3,-1,2,-1,-2,19,-3,-3,0,-3,-1
-2,-4,-2,3,0,-3,19,-3,-3,1,-2,-1
-4,-6,-2,5,-1,-4,20,-3,-2,2,-1,0
-4,-7,-1,5,-1,-4,20,-3,-1,2,-1,0
-3,-5,-1,4,0,-3,19,-3,-1,2,-1,0
-2,-3,-1,2,0,-2,18,-2,-1,3,0,1
0,-1,0,0,0,-1,18,0,0,4,1,3
2,1,-1,-2,1,0,17,0,0,5,1,4
4,1,-3,-3,3,0,15,0,0,5,1,4
6,1,-5,-3,5,-1,14,0,-1,5,2,4
9,2,-6,-5,7,-2,13,0,-1,6,3,5
10,4,-6,-6,8,-1,12,1,0,7,4,7
10,5,-5,-7,8,0,12,2,2,10,7,10
10,7,-3,-8,7,1,12,2,3,12,9,13
12,8,-3,-10,8,1,10,2,4,14,11,15
15,11,-3,-13,9,3,8,1,4,16,13,17
18,16,-2,-17,10,6,6,0,4,17,14,18
21,20,-1,-20,10,9,4,0,5,19,17,21
22,25,2,-24,10,14,2,1,7,23,21,25
24,30,5,-27,9,18,0,2,10,27,26,30
26,35,8,-30,9,21,-1,4,13,33,32,35
29,40,10,-35,10,25,-2,6,17,39,38,41
33,46,13,-40,10,29,-4,9,22,45,44,47
35,53,18,-44,9,35,-5,13,27,52,51,53
37,61,24,-48,6,42,-6,18,33,59,57,59
38,69,30,-53,4,49,-7,24,40,66,65,66
39,76,36,-57,1,56,-7,31,47,75,73,74
38,83,44,-60,-3,64,-8,38,56,85,83,82
36,91,55,-63,-9,73,-8,44,65,95,93,92
35,100,65,-67,-14,82,-9,51,74,106,104,101
36,108,73,-72,-17,90,-9,57,83,116,113,110
37,116,80,-77,-21,98,-8,63,92,126,122,118
36,125,88,-80,-26,107,-8,69,102,136,131,126
32,134,100,-83,-34,117,-7,74,111,146,141,133
28,143,114,-85,-43,129,-5,78,121,155,150,141
23,151,127,-86,-51,139,-4,82,130,164,159,148
20,158,138,-88,-58,148,-2,86,139,173,167,155
17,165,149,-90,-65,157,0,91,148,181,175,161
12,170,159,-91,-73,165,1,94,157,189,182,167
7,175,169,-91,-80,172,3,97,165,196,188,172
3,181,177,-92,-86,179,4,99,172,202,194,176
0,187,186,-94,-92,186,4,100,179,208,199,181
-3,191,193,-94,-98,192,4,98,184,213,204,185
-5,194,199,-95,-101,196,4,93,187,218,209,188
-5,196,201,-95,-102,198,4,90,190,224,214,192
-5,197,203,-96,-103,200,4,88,193,230,220,197
-5,198,203,-96,-103,201,2,83,194,235,225,201
-2,198,201,-98,-101,200,0,75,193,240,230,205
0,198,199,-100,-99,199,-4,64,191,246,235,209
3,199,196,-101,-96,197,-9,52,188,253,242,215
8,201,192,-105,-92,196,-14,40,183,260,249,221
12,202,190,-107,-88,196,-19,28,178,267,255,227
14,203,188,-108,-86,195,-23,16,170,272,260,230
15,203,188,-109,-86,195,-27,2,161,275,264,232
14,204,191,-109,-88,197,-30,-11,150,277,265,233
12,206,195,-109,-91,200,-31,-24,139,276,265,233
11,207,196,-109,-92,201,-32,-36,126,272,262,231
9,202,192,-106,-92,197,-32,-46,111,263,255,225
5,192,186,-98,-91,189,-32,-55,94,248,242,214
-1,178,177,-88,-89,177,-31,-62,76,227,223,198
-6,162,167,-77,-87,164,-29,-69,58,201,199,178
-10,145,155,-67,-82,150,-26,-73,42,170,171,155
-11,126,138,-57,-74,132,-20,-74,28,136,138,128
-11,103,115,-45,-63,109,-14,-70,15,100,104,97
-12,78,91,-33,-51,84,-8,-62,4,69,72,69
-13,55,67,-21,-40,61,-3,-53,-3,43,46,45
-11,36,46,-12,-29,41,1,-45,-9,24,27,26
-9,21,29,-6,-20,25,5,-37,-13,10,13,13
-8,9,16,0,-13,13,8,-30,-15,0,3,4
-8,-1,7,4,-8,3,10,-23,-17,-6,-3,-2
-7,-7,0,7,-3,-4,12,-18,-17,-10,-7,-6
-4,-11,-6,8,1,-9,13,-14,-17,-13,-10,-8
-2,-14,-11,8,5,-13,13,-13,-18,-16,-13,-11
0,-16,-15,8,7,-16,13,-13,-19,-19,-16,-13
0,-18,-18,9,9,-19,13,-12,-20,-21,-19,-16
0,-20,-21,10,10,-21,13,-13,-21,-24,-21,-18
1,-21,-23,10,12,-22,12,-15,-23,-27,-24,-21
3,-21,-25,9,14,-23,12,-17,-24,-29,-26,-23
3,-21,-25,9,15,-23,13,-18,-25,-31,-28,-24
2,-21,-23,9,13,-22,14,-18,-25,-31,-28,-24
0,-22,-21,10,11,-22,16,-18,-25,-32,-28,-24
-3,-23,-20,12,8,-22,17,-18,-25,-32,-29,-24
-6,-24,-18,14,6,-21,17,-18,-25,-33,-29,-25
-7,-25,-19,15,6,-22,17,-17,-25,-34,-31,-26
-5,-27,-23,16,9,-25,17,-17,-26,-36,-32,-28
-3,-29,-26,16,12,-28,17,-16,-26,-37,-34,-29
-1,-29,-28,15,14,-29,18,-14,-26,-37,-34,-30
0,-29,-28,15,14,-28,19,-12,-26,-37,-34,-29
-2,-29,-26,16,12,-28,20,-11,-26,-38,-34,-30
-6,-31,-25,19,9,-29,20,-11,-26,-39,-35,-31
-9,-33,-24,21,7,-30,21,-11,-26,-39,-36,-32
-9,-33,-24,21,7,-29,23,-11,-25,-39,-36,-32
-8,-33,-25,21,8,-29,25,-10,-25,-38,-36,-32
-7,-33,-27,20,9,-30,25,-10,-25,-39,-36,-32
-5,-33,-29,20,11,-31,25,-10,-26,-40,-37,-33
-3,-35,-31,20,14,-33,24,-11,-27,-41,-38,-34
-2,-37,-34,20,15,-35,23,-12,-28,-42,-39,-35
-1,-37,-36,20,17,-37,24,-12,-29,-43,-39,-35
0,-37,-36,19,17,-37,24,-12,-29,-43,-39,-34
-2,-37,-35,20,15,-37,24,-12,-29,-43,-39,-35
-6,-38,-33,22,13,-36,24,-12,-29,-43,-39,-35
-8,-37,-29,23,10,-34,24,-11,-28,-43,-39,-34
-9,-36,-27,23,9,-32,24,-10,-27,-43,-39,-34
-8,-35,-27,22,9,-32,22,-10,-28,-44,-39,-35
-6,-36,-29,22,11,-32,20,-10,-29,-45,-40,-36
-5,-36,-30,21,12,-33,19,-11,-30,-45,-41,-37
-5,-35,-30,20,12,-33,18,-12,-30,-46,-41,-37
-4,-35,-30,19,12,-33,18,-13,-31,-47,-42,-38
-3,-34,-31,18,13,-33,17,-14,-32,-48,-43,-39
-3,-35,-33,19,15,-35,16,-14,-32,-49,-44,-40
-3,-38,-35,20,16,-37,15,-15,-33,-50,-45,-41
-2,-40,-38,22,17,-39,15,-16,-33,-50,-45,-41
-1,-42,-41,22,20,-42,14,-16,-34,-51,-46,-41
0,-44,-43,22,21,-43,14,-16,-34,-51,-46,-42
-3,-45,-43,24,20,-44,15,-15,-34,-51,-47,-42
-4,-46,-42,25,19,-44,15,-15,-34,-51,-47,-42
-3,-45,-43,25,20,-44,15,-15,-34,-52,-47,-42
-2,-45,-44,24,21,-45,14,-16,-35,-53,-48,-44
-1,-44,-43,24,21,-44,14,-16,-36,-55,-49,-45
-2,-44,-42,24,20,-43,14,-14,-37,-55,-50,-45
-3,-45,-42,25,19,-44,14,-13,-37,-55,-50,-45
-2,-46,-43,25,20,-45,14,-12,-37,-56,-50,-45
-2,-47,-45,24,21,-46,13,-11,-38,-56,-51,-46
-2,-48,-45,25,21,-47,13,-11,-39,-57,-52,-47
-2,-49,-46,25,22,-47,13,-12,-39,-59,-53,-48
-2,-49,-47,25,22,-47,13,-14,-40,-61,-55,-49
-1,-49,-48,25,24,-48,13,-15,-41,-63,-56,-50
0,-50,-51,26,25,-51,13,-15,-42,-64,-58,-52
0,-52,-53,26,26,-53,13,-15,-43,-66,-59,-53
-1,-53,-53,27,26,-53,13,-14,-44,-67,-60,-53
-1,-53,-53,27,26,-54,13,-14,-44,-68,-61,-54
0,-53,-53,27,26,-54,12,-14,-45,-69,-62,-55
-1,-54,-53,27,26,-54,12,-14,-46,-70,-63,-56
-2,-55,-53,29,26,-55,12,-15,-46,-70,-63,-56
-3,-56,-53,30,25,-55,13,-15,-47,-71,-64,-57
-4,-56,-53,31,24,-55,13,-15,-47,-72,-65,-57
-4,-57,-53,31,24,-56,12,-16,-49,-74,-66,-59
-2,-58,-56,30,27,-57,11,-18,-52,-77,-69,-61
1,-58,-59,29,30,-59,9,-20,-54,-79,-71,-63
2,-59,-61,28,31,-61,8,-21,-56,-81,-73,-64
3,-60,-63,29,33,-62,8,-21,-56,-82,-74,-65
3,-61,-64,29,33,-63,9,-20,-56,-83,-74,-65
2,-62,-65,30,33,-63,10,-18,-57,-83,-75,-66
2,-63,-66,31,33,-65,10,-18,-58,-84,-76,-67
2,-64,-67,31,34,-66,10,-18,-59,-86,-77,-68
2,-65,-68,32,35,-67,10,-19,-60,-87,-78,-69
1,-67,-69,33,35,-69,10,-20,-61,-88,-80,-70
0,-69,-69,34,35,-70,9,-21,-62,-90,-82,-72
2,-69,-70,33,36,-70,7,-23,-65,-93,-84,-74
5,-68,-73,31,39,-71,5,-24,-67,-95,-86,-75
6,-68,-74,31,39,-71,5,-24,-68,-96,-87,-76
4,-69,-74,32,39,-71,5,-23,-68,-97,-87,-76
3,-70,-74,34,38,-72,6,-22,-68,-97,-87,-76
3,-71,-75,34,39,-73,6,-22,-69,-98,-88,-76
5,-73,-79,34,42,-75,5,-22,-70,-100,-89,-77
7,-75,-82,34,44,-78,4,-22,-72,-101,-90,-78
8,-76,-85,34,46,-80,3,-23,-73,-103,-92,-80
9,-78,-86,34,47,-81,2,-24,-75,-105,-94,-81
9,-78,-87,34,47,-82,2,-24,-76,-107,-95,-82
8,-79,-87,35,47,-83,2,-24,-77,-108,-96,-82
6,-80,-87,37,46,-83,1,-25,-78,-109,-97,-83
5,-80,-86,38,46,-83,1,-26,-78,-111,-98,-84
4,-79,-84,37,45,-82,1,-26,-78,-111,-98,-84
6,-76,-83,35,45,-80,1,-25,-78,-111,-98,-83
7,-76,-84,34,46,-80,1,-24,-78,-112,-98,-84
7,-77,-85,34,46,-81,0,-24,-79,-112,-98,-84
7,-79,-85,36,46,-82,0,-24,-79,-112,-98,-84
6,-79,-85,36,45,-82,0,-23,-79,-112,-98,-84
7,-77,-84,35,45,-81,0,-24,-79,-112,-98,-84
8,-75,-84,33,46,-80,-1,-24,-79,-112,-98,-84
10,-74,-85,32,47,-80,-1,-23,-79,-112,-98,-83
9,-76,-86,33,47,-81,0,-23,-78,-112,-97,-82
7,-77,-85,35,46,-81,0,-23,-78,-112,-97,-81
9,-76,-85,33,47,-80,0,-23,-77,-111,-96,-81
11,-74,-85,31,48,-79,0,-23,-77,-111,-95,-80
11,-74,-85,31,48,-80,0,-24,-77,-111,-95,-80
9,-74,-83,32,46,-79,-1,-25,-76,-110,-94,-80
8,-72,-80,32,44,-76,0,-25,-75,-109,-93,-78
9,-69,-78,30,44,-74,-1,-25,-74,-108,-92,-77
10,-68,-79,29,45,-74,-2,-25,-73,-108,-91,-77
12,-66,-78,27,45,-73,-2,-24,-72,-107,-90,-76
10,-64,-75,27,43,-70,-1,-22,-70,-104,-88,-74
6,-62,-68,28,37,-65,0,-19,-67,-101,-85,-71
3,-60,-62,28,32,-61,1,-17,-64,-98,-82,-68
2,-57,-59,28,30,-58,2,-16,-62,-96,-79,-67
1,-55,-56,27,28,-55,1,-16,-60,-94,-77,-65
1,-52,-53,26,27,-53,1,-15,-58,-92,-75,-63
0,-51,-51,25,26,-51,1,-14,-57,-90,-74,-61
0,-49,-50,25,25,-50,0,-13,-55,-88,-72,-60
0,-47,-48,24,24,-48,0,-13,-53,-86,-70,-58
-1,-46,-46,24,22,-47,0,-14,-51,-84,-68,-56
-1,-45,-44,23,21,-45,0,-14,-49,-82,-66,-54
0,-42,-42,21,21,-43,-1,-14,-47,-80,-64,-52
1,-39,-39,19,20,-40,-1,-14,-46,-78,-61,-51
0,-36,-36,18,18,-36,-2,-13,-44,-75,-59,-49
0,-33,-33,17,17,-34,-2,-13,-42,-73,-57,-47
0,-31,-32,16,17,-32,-2,-13,-40,-71,-55,-45
1,-30,-32,15,16,-31,-3,-13,-38,-68,-53,-44
1,-30,-31,15,16,-31,-3,-12,-36,-66,-50,-42
1,-28,-30,13,16,-30,-4,-11,-34,-63,-48,-40
2,-26,-29,12,16,-28,-4,-9,-31,-60,-45,-38
3,-24,-28,11,15,-27,-4,-8,-29,-58,-43,-35
3,-22,-25,10,14,-24,-4,-7,-27,-55,-40,-33
2,-20,-22,9,12,-21,-4,-6,-25,-53,-38,-31
2,-18,-20,8,11,-19,-4,-7,-24,-52,-36,-30
2,-16,-18,7,10,-17,-5,-7,-23,-50,-35,-29
3,-15,-18,6,11,-17,-5,-8,-22,-48,-33,-28
4,-14,-18,5,11,-16,-5,-8,-21,-47,-32,-27
4,-12,-16,4,10,-15,-5,-8,-19,-45,-30,-25
4,-11,-15,3,9,-13,-4,-7,-17,-43,-27,-24
4,-10,-14,3,10,-12,-5,-7,-15,-42,-26,-22
4,-10,-14,3,9,-12,-6,-7,-14,-40,-24,-21
3,-10,-13,4,8,-11,-5,-6,-13,-38,-22,-19
2,-9,-11,4,6,-11,-4,-5,-11,-35,-20,-17
1,-8,-9,4,5,-9,-3,-5,-9,-33,-18,-15
1,-6,-7,3,4,-7,-3,-4,-8,-31,-16,-14
1,-5,-6,2,3,-5,-3,-4,-7,-30,-15,-13
2,-5,-6,1,4,-5,-4,-5,-6,-30,-15,-13
2,-4,-6,1,5,-5,-5,-5,-6,-29,-14,-13
3,-3,-6,0,5,-4,-6,-5,-6,-29,-14,-12
3,-2,-6,0,4,-3,-6,-4,-6,-28,-13,-11
3,-1,-5,0,4,-3,-6,-3,-6,-27,-12,-11
2,-1,-3,0,2,-2,-5,-2,-5,-26,-12,-10
1,-1,-1,0,1,-1,-4,-1,-4,-25,-11,-10
1,-1,-1,0,1,-1,-4,0,-3,-23,-10,-9
1,-2,-2,0,1,-2,-4,0,-2,-22,-8,-8
1,-2,-3,0,2,-2,-3,0,0,-20,-7,-7
1,-2,-3,1,2,-2,-3,0,0,-19,-5,-5
0,-2,-3,2,2,-2,-3,0,0,-19,-5,-5
1,-2,-4,1,2,-3,-3,-1,0,-19,-4,-5
2,-2,-5,0,4,-3,-4,-1,0,-19,-4,-5
3,-2,-5,0,4,-3,-4,-1,0,-18,-4,-5
2,-1,-3,0,2,-2,-3,-1,0,-18,-4,-5
2,-1,-2,0,2,-1,-3,-1,0,-18,-5,-5
2,-1,-2,0,2,-2,-3,-1,-1,-18,-5,-5
2,-1,-3,0,2,-2,-3,-1,0,-18,-4,-4
1,-2,-2,1,1,-2,-3,0,0,-17,-3,-3
0,-1,-2,1,1,-1,-3,1,1,-17,-3,-3
2,0,-1,0,1,0,-3,1,0,-17,-3,-3
4,1,-2,-2,3,-1,-4,0,0,-17,-3,-3
6,0,-5,-3,5,-3,-4,0,-1,-17,-4,-4
8,0,-8,-4,8,-5,-5,-1,-2,-18,-5,-5
8,-1,-8,-3,8,-5,-4,0,-1,-17,-4,-5
4,0,-4,-2,4,-2,-3,0,0,-16,-3,-4
2,1,-1,-1,2,0,-2,0,1,-16,-3,-3
2,2,0,-2,1,0,-2,0,0,-16,-3,-4
3,3,0,-3,2,1,-3,-1,0,-17,-4,-4
4,3,0,-4,2,2,-4,-1,-1,-18,-4,-5
3,3,0,-4,2,2,-5,-1,-1,-18,-4,-5
2,2,0,-3,1,1,-5,-1,-1,-18,-4,-5
2,1,0,-2,1,1,-4,0,-1,-17,-4,-5
3,1,-2,-2,2,0,-4,0,0,-17,-3,-4
4,1,-4,-2,4,-1,-4,0,0,-17,-3,-4
5,1,-4,-3,5,-1,-4,0,0,-17,-3,-4
6,1,-4,-3,5,-1,-4,0,0,-17,-3,-4
7,0,-5,-3,6,-2,-5,0,-1,-17,-3,-4
7,-1,-6,-3,7,-3,-5,0,-1,-17,-3,-5
6,0,-5,-3,5,-2,-5,1,0,-17,-3,-4
5,1,-3,-3,3,0,-4,2,0,-16,-2,-3
4,2,-2,-3,2,0,-3,2,1,-16,-1,-3
5,2,-3,-3,3,0,-3,2,1,-17,-2,-3
6,1,-5,-3,5,-1,-4,1,0,-17,-2,-3
8,1,-7,-4,7,-2,-4,0,0,-17,-2,-3
10,0,-10,-5,10,-4,-4,-1,0,-17,-2,-3
13,0,-13,-6,13,-6,-5,-2,-1,-18,-3,-4
15,-1,-15,-7,15,-8,-7,-4,-3,-20,-4,-6
15,0,-14,-7,14,-7,-7,-4,-4,-21,-4,-6
13,1,-12,-7,12,-5,-7,-4,-4,-21,-4,-6
10,2,-7,-6,9,-2,-7,-5,-3,-20,-4,-6
7,3,-3,-5,5,0,-7,-5,-2,-20,-4,-5
6,3,-1,-4,4,1,-6,-4,-1,-19,-3,-4
5,4,0,-4,3,2,-6,-3,0,-19,-3,-3
5,5,1,-5,2,3,-6,-3,0,-19,-2,-3
5,5,0,-5,2,3,-6,-3,0,-19,-2,-3
6,4,-1,-5,3,1,-6,-3,0,-19,-2,-3
7,3,-5,-5,6,-1,-6,-2,0,-19,-2,-3
8,2,-6,-5,7,-2,-7,-2,0,-20,-2,-3
7,1,-6,-4,6,-3,-7,-3,-1,-20,-2,-4
6,0,-7,-3,6,-4,-8,-3,-1,-20,-2,-4
7,0,-7,-3,7,-4,-8,-3,-1,-20,-2,-4
9,1,-8,-4,8,-4,-8,-3,-1,-20,-2,-4
9,2,-7,-5,8,-3,-8,-3,0,-19,-2,-3
8,3,-4,-5,5,0,-7,-2,0,-19,-1,-2
7,5,-2,-6,4,1,-7,-1,0,-18,-1,-2
7,5,-1,-6,3,2,-7,-1,0,-19,-1,-2
6,5,-1,-5,3,2,-8,-1,-1,-19,-1,-2
4,3,-1,-3,2,1,-8,-1,-1,-19,-1,-2
4,2,-1,-2,2,0,-8,-1,-1,-19,-1,-2
5,1,-3,-2,3,-1,-9,-2,-2,-20,-2,-3
6,1,-4,-3,5,-2,-10,-3,-3,-21,-3,-4
8,2,-5,-5,6,-2,-10,-4,-3,-22,-4,-4
9,3,-6,-6,7,-2,-10,-4,-4,-23,-4,-5
11,4,-6,-7,8,-1,-10,-5,-4,-23,-4,-5
12,5,-8,-8,10,-2,-10,-5,-4,-23,-4,-5
13,5,-8,-9,11,-2,-10,-5,-3,-22,-3,-5
11,4,-7,-7,9,-2,-9,-4,-2,-21,-2,-4
7,3,-4,-5,6,-1,-9,-3,-2,-21,-2,-3
5,2,-3,-3,4,-1,-8,-2,-1,-20,-1,-2
3,1,-2,-2,2,0,-8,-1,-1,-20,-1,-2
2,1,-1,-2,1,0,-8,-1,0,-20,-1,-2
3,2,-1,-3,2,1,-8,-1,-1,-20,-1,-2
4,3,0,-4,2,2,-9,-3,-2,-21,-2,-4
4,5,2,-5,0,3,-10,-4,-2,-22,-3,-5
4,6,3,-5,0,4,-10,-4,-2,-22,-3,-5
6,7,1,-6,2,4,-11,-6,-3,-22,-4,-5
8,6,-1,-7,4,2,-11,-7,-4,-23,-4,-5
8,4,-3,-6,5,0,-10,-7,-4,-23,-4,-5
9,3,-5,-6,6,-1,-10,-6,-3,-22,-3,-4
11,2,-8,-7,8,-3,-10,-6,-3,-22,-3,-4
12,1,-11,-7,11,-5,-10,-7,-3,-23,-4,-5
14,1,-13,-8,13,-6,-11,-7,-3,-23,-4,-5
15,4,-11,-9,13,-4,-11,-6,-3,-23,-3,-5
14,5,-9,-9,11,-2,-10,-6,-2,-22,-3,-5
12,4,-8,-7,10,-2,-10,-6,-3,-22,-3,-5
11,2,-8,-6,10,-3,-10,-6,-3,-22,-3,-5
9,1,-8,-4,8,-4,-10,-5,-3,-22,-3,-4
7,0,-6,-3,6,-3,-9,-5,-2,-21,-3,-4
6,1,-4,-3,5,-2,-9,-4,-1,-20,-2,-3
6,2,-4,-4,5,-2,-9,-4,-2,-21,-2,-4
7,3,-4,-5,5,-1,-9,-4,-2,-21,-2,-4
6,4,-1,-5,4,1,-10,-4,-2,-21,-2,-3
4,5,0,-4,2,2,-10,-3,-2,-21,-1,-3
6,5,0,-5,3,2,-9,-2,-2,-20,-1,-2
9,5,-3,-7,6,0,-9,-3,-2,-21,-2,-3
10,3,-7,-7,8,-2,-10,-4,-3,-22,-3,-4
10,0,-9,-5,9,-5,-11,-6,-4,-23,-4,-5
9,-1,-10,-4,9,-5,-12,-8,-5,-23,-4,-6
9,0,-9,-5,9,-4,-12,-8,-5,-23,-4,-6
10,2,-8,-6,9,-3,-12,-9,-5,-23,-4,-6
11,4,-7,-8,9,-1,-12,-9,-5,-23,-4,-6
11,5,-6,-8,8,0,-12,-7,-4,-23,-4,-6
10,5,-5,-7,7,0,-11,-5,-3,-22,-3,-5
8,4,-5,-6,6,0,-10,-4,-2,-21,-2,-4
8,3,-5,-5,6,-1,-10,-3,-2,-21,-2,-4
7,1,-6,-4,6,-2,-11,-3,-2,-21,-3,-4
7,1,-6,-4,6,-2,-11,-3,-2,-21,-3,-4
7,1,-6,-4,6,-2,-11,-3,-2,-21,-3,-4
7,1,-6,-4,7,-2,-11,-3,-2,-21,-3,-4
8,1,-8,-4,8,-3,-12,-4,-3,-21,-3,-5
10,1,-9,-5,9,-4,-13,-6,-4,-22,-4,-5
12,2,-11,-6,11,-4,-14,-7,-4,-23,-4,-6
13,3,-10,-8,11,-3,-14,-7,-4,-23,-4,-6
12,3,-8,-8,9,-2,-14,-7,-3,-23,-4,-5
11,3,-7,-7,8,-1,-13,-7,-2,-22,-4,-5
10,3,-6,-6,8,-1,-13,-7,-2,-22,-4,-5
8,3,-5,-6,7,-1,-13,-7,-2,-22,-4,-5
7,3,-5,-5,6,-1,-13,-7,-1,-21,-3,-4
7,2,-5,-4,6,-1,-13,-7,-2,-21,-3,-4
6,2,-4,-4,5,0,-14,-8,-2,-21,-3,-4
6,2,-4,-4,5,-1,-14,-9,-2,-21,-3,-4
8,1,-6,-4,6,-2,-14,-9,-2,-21,-3,-4
11,1,-8,-5,9,-4,-14,-9,-3,-21,-3,-4
13,1,-10,-7,11,-5,-15,-8,-3,-21,-3,-4
12,1,-11,-7,11,-5,-15,-8,-3,-21,-3,-5
11,1,-10,-6,11,-4,-15,-7,-3,-21,-3,-5
10,2,-8,-6,9,-3,-15,-6,-3,-21,-3,-5
9,2,-6,-6,8,-2,-15,-5,-3,-21,-3,-5
8,1,-6,-5,7,-3,-14,-5,-3,-21,-3,-4
8,0,-7,-4,8,-4,-14,-5,-3,-21,-3,-4
8,-1,-8,-4,8,-5,-14,-5,-3,-21,-3,-4
8,0,-7,-4,7,-3,-14,-5,-2,-20,-2,-4
7,0,-6,-3,6,-2,-13,-4,-1,-19,-1,-3
6,0,-6,-3,6,-2,-13,-4,-1,-19,-1,-2
6,0,-6,-3,6,-2,-13,-4,-1,-19,-1,-2
6,1,-5,-3,6,-2,-14,-4,-1,-19,-1,-3
6,2,-4,-4,6,-1,-14,-5,-2,-19,-2,-4
6,2,-4,-4,5,-1,-15,-5,-3,-20,-2,-5
6,2,-4,-4,5,-1,-16,-5,-3,-20,-2,-5
7,3,-4,-5,6,-1,-16,-5,-2,-20,-2,-4
8,4,-4,-5,6,0,-16,-4,-2,-19,-2,-4
8,4,-5,-5,7,-1,-16,-4,-2,-19,-2,-4
8,3,-5,-5,7,-2,-16,-5,-2,-20,-3,-5
8,2,-6,-5,7,-2,-17,-5,-3,-20,-4,-6
8,3,-5,-5,6,-1,-17,-5,-3,-20,-3,-6
7,4,-2,-5,5,0,-16,-5,-3,-20,-3,-6
7,5,-2,-6,5,1,-16,-6,-3,-21,-3,-6
8,5,-2,-6,5,1,-16,-6,-3,-21,-4,-6
9,6,-3,-7,6,1,-16,-6,-3,-21,-4,-6
11,5,-6,-7,8,-1,-17,-6,-3,-21,-4,-6
13,3,-10,-8,12,-4,-18,-8,-4,-22,-5,-7
15,2,-13,-8,14,-5,-18,-8,-4,-23,-5,-8
12,2,-11,-7,12,-4,-17,-8,-3,-22,-4,-7
8,1,-6,-4,7,-3,-16,-7,-2,-21,-3,-6
5,1,-4,-2,5,-2,-15,-7,-1,-20,-2,-5
5,0,-5,-2,5,-2,-15,-7,-1,-20,-2,-5
6,0,-6,-2,5,-2,-16,-7,-2,-21,-2,-5
8,1,-7,-4,7,-2,-17,-7,-3,-21,-2,-5
11,2,-9,-6,10,-3,-18,-7,-3,-21,-2,-5
12,1,-10,-6,11,-4,-18,-7,-4,-21,-3,-5
10,1,-9,-6,10,-4,-18,-7,-4,-21,-3,-5
10,2,-8,-6,9,-3,-17,-6,-4,-21,-2,-5
9,3,-6,-6,9,-2,-17,-5,-4,-20,-2,-5
8,3,-4,-6,7,0,-17,-5,-3,-20,-2,-5
6,4,-2,-5,4,1,-17,-5,-3,-19,-1,-5
4,4,0,-4,3,1,-16,-5,-3,-19,-1,-5
3,3,0,-3,2,1,-16,-5,-3,-19,-1,-4
3,2,-1,-3,2,0,-15,-5,-2,-19,-1,-4
3,2,-1,-3,2,0,-15,-5,-2,-19,-1,-4
3,1,-1,-3,2,0,-15,-5,-2,-19,-1,-4
2,1,-1,-2,2,0,-15,-4,-2,-19,-1,-4
2,1,-1,-1,1,0,-15,-3,-1,-18,0,-3
1,2,0,-1,0,1,-15,-1,-1,-18,0,-3
1,3,2,-1,0,2,-16,-1,-1,-18,0,-3
0,4,3,-2,-1,3,-17,-1,-1,-18,-1,-4
1,4,3,-2,-1,4,-17,-2,-1,-19,-1,-4
1,3,1,-2,0,2,-17,-2,-1,-18,-1,-4
2,1,-1,-2,2,0,-17,-3,-1,-18,0,-3
5,1,-4,-3,5,-1,-17,-3,-1,-18,0,-3
7,2,-5,-4,6,-2,-17,-4,-1,-18,-1,-3
7,3,-4,-4,6,-1,-18,-4,-1,-19,-1,-4
6,3,-2,-4,4,0,-18,-4,-1,-19,-1,-4
6,4,0,-5,3,2,-18,-4,0,-19,-1,-3
7,6,0,-6,3,3,-17,-4,0,-18,0,-3
8,6,0,-7,4,3,-16,-4,0,-18,0,-3
8,7,0,-7,4,3,-16,-5,0,-18,0,-3
7,8,0,-8,4,4,-16,-5,0,-18,0,-3
6,9,2,-8,2,6,-15,-5,1,-18,0,-2
5,10,4,-7,0,7,-14,-4,2,-17,1,-1
5,9,4,-7,0,6,-14,-4,3,-17,2,-1
7,9,2,-7,2,5,-14,-4,3,-17,2,-1
8,9,1,-8,3,4,-16,-4,2,-17,1,-1
8,9,1,-9,3,5,-17,-6,2,-17,1,-1
8,10,2,-9,3,6,-18,-7,2,-17,1,-1
6,10,4,-9,0,7,-18,-6,3,-16,2,0
5,11,6,-8,-1,8,-17,-5,4,-15,3,0
6,12,5,-9,0,8,-18,-4,4,-15,3,0
8,12,4,-10,2,8,-20,-4,3,-16,2,0
9,12,3,-10,2,7,-20,-4,2,-16,2,-1
10,12,2,-11,4,7,-21,-5,2,-17,1,-1
11,12,0,-11,5,6,-22,-6,1,-17,1,-1
11,11,0,-11,5,6,-22,-6,1,-17,1,-1
10,9,0,-9,5,4,-21,-5,2,-16,1,0
10,7,-1,-8,6,3,-21,-5,2,-15,2,0
11,7,-3,-9,7,2,-22,-4,1,-16,1,0
12,6,-5,-9,8,1,-23,-4,0,-16,1,0
12,6,-5,-9,8,1,-23,-4,0,-16,1,0
9,6,-2,-8,6,2,-22,-3,0,-15,2,0
7,6,-1,-7,4,3,-21,-2,1,-14,3,1
7,5,-2,-7,5,2,-21,-2,1,-14,3,2
8,5,-4,-7,6,1,-22,-3,0,-15,2,2
9,6,-3,-8,6,2,-22,-3,-1,-15,2,2
9,7,-2,-8,6,3,-23,-3,-1,-15,2,2
9,7,-1,-8,5,3,-23,-4,-2,-15,2,1
9,7,-1,-7,5,2,-23,-4,-2,-16,1,0
8,6,-2,-7,5,2,-23,-4,-2,-16,1,0
9,6,-2,-7,6,1,-23,-4,-2,-17,1,0
9,6,-3,-7,6,1,-23,-4,-2,-17,0,0
9,6,-2,-7,6,1,-22,-3,-1,-17,0,0
9,6,-2,-7,6,2,-20,-2,-1,-16,1,1
9,5,-4,-7,7,0,-20,-2,-1,-17,0,0
9,1,-8,-5,8,-3,-21,-4,-3,-19,-1,-1
9,-1,-10,-4,10,-6,-23,-7,-6,-21,-3,-3
10,0,-11,-5,10,-6,-23,-8,-7,-22,-4,-4
9,1,-9,-5,9,-4,-23,-7,-7,-22,-4,-4
5,1,-5,-4,5,-1,-22,-7,-6,-21,-3,-3
2,2,-1,-2,2,0,-21,-7,-5,-20,-2,-2
4,2,-1,-3,3,0,-21,-8,-6,-21,-3,-3
7,3,-4,-5,6,0,-21,-10,-7,-21,-4,-3
9,4,-6,-7,7,-1,-21,-10,-7,-21,-4,-3
8,3,-5,-6,6,-1,-19,-10,-7,-21,-4,-3
5,2,-4,-4,4,-1,-18,-10,-6,-21,-3,-2
1,0,-2,-1,2,-1,-17,-10,-5,-20,-3,-2
-2,-1,0,1,0,0,-16,-10,-5,-20,-3,-2
-3,-2,0,2,-1,0,-15,-10,-5,-20,-3,-2
-3,-2,0,2,-1,0,-15,-9,-4,-20,-3,-2
-3,-2,0,2,-1,0,-15,-9,-5,-21,-3,-3
-2,-1,1,1,-1,0,-15,-9,-5,-22,-4,-4
-1,0,1,0,-1,1,-14,-8,-5,-22,-4,-4
-1,0,1,0,-1,0,-13,-8,-5,-23,-5,-5
-1,-1,0,0,-1,0,-13,-9,-5,-23,-6,-5
-1,-3,-1,1,0,-2,-13,-9,-6,-24,-6,-6
-2,-4,-2,2,0,-3,-13,-9,-5,-24,-6,-6
-2,-5,-2,3,0,-4,-12,-8,-5,-23,-6,-5
-3,-6,-2,4,0,-4,-12,-7,-5,-22,-5,-5
-3,-6,-2,4,0,-4,-12,-6,-5,-22,-5,-4
-2,-5,-3,3,0,-4,-12,-5,-5,-22,-5,-5
-1,-4,-3,2,1,-3,-12,-5,-5,-22,-6,-6
0,-2,-2,1,1,-2,-13,-6,-6,-23,-6,-6
-1,0,0,1,0,-1,-14,-6,-6,-24,-7,-7
-3,-1,2,2,-2,0,-14,-5,-6,-24,-7,-7
-5,-2,3,3,-4,0,-14,-5,-6,-23,-6,-6
-6,-3,3,4,-3,0,-13,-5,-5,-23,-6,-6
-5,-4,1,5,-2,-1,-13,-5,-5,-22,-6,-6
-4,-5,-1,5,0,-3,-13,-5,-4,-22,-6,-6
-3,-6,-3,5,1,-5,-13,-5,-5,-22,-6,-6
-3,-6,-4,5,1,-5,-13,-5,-5,-22,-6,-6
-3,-6,-3,5,0,-5,-12,-5,-4,-22,-6,-5
-2,-6,-4,5,1,-5,-12,-4,-4,-22,-6,-5
-1,-6,-5,4,2,-6,-12,-5,-4,-23,-6,-6
0,-6,-5,3,2,-5,-13,-6,-5,-23,-7,-6
0,-6,-5,3,2,-5,-14,-8,-6,-24,-7,-7
0,-5,-5,3,3,-5,-15,-9,-6,-24,-7,-7
0,-5,-5,3,2,-5,-15,-10,-6,-24,-7,-7
-1,-4,-3,3,1,-4,-15,-10,-7,-24,-8,-7
-2,-3,-1,3,0,-3,-14,-10,-7,-24,-8,-7
-5,-4,1,4,-3,-2,-13,-9,-6,-23,-7,-7
-6,-4,2,5,-4,-2,-13,-9,-5,-23,-7,-6
-4,-4,1,4,-2,-2,-13,-9,-5,-23,-7,-6
-4,-4,0,4,-1,-2,-13,-9,-5,-23,-7,-7
-3,-4,0,3,0,-2,-14,-9,-6,-24,-7,-7
-2,-3,-1,2,0,-2,-14,-9,-6,-24,-7,-7
-3,-2,1,2,-1,-1,-14,-8,-6,-23,-7,-6
-8,-2,5,4,-6,1,-13,-7,-5,-23,-7,-6
-8,-2,6,5,-7,1,-13,-6,-5,-23,-6,-6
-7,-2,5,4,-6,1,-13,-5,-5,-23,-7,-6
-8,-2,6,5,-7,2,-13,-4,-5,-23,-7,-6
-9,-2,7,5,-8,2,-13,-3,-5,-23,-6,-6
-8,-3,5,6,-6,1,-13,-3,-5,-23,-6,-6
-7,-4,2,6,-5,-1,-13,-4,-5,-23,-7,-6
-6,-6,0,6,-3,-3,-13,-4,-5,-24,-7,-6
-4,-7,-4,6,0,-6,-14,-5,-5,-24,-7,-6
-3,-8,-5,6,1,-7,-13,-4,-5,-24,-6,-6
-3,-9,-5,6,1,-7,-12,-4,-5,-24,-6,-5
-3,-8,-4,5,1,-6,-13,-4,-5,-24,-7,-5
-3,-6,-3,4,0,-4,-13,-5,-5,-24,-6,-5
-2,-4,-2,3,0,-3,-13,-5,-5,-24,-6,-5
-1,-4,-3,3,1,-3,-14,-6,-5,-25,-6,-6
0,-4,-4,2,2,-3,-14,-7,-5,-25,-7,-7
-1,-4,-4,3,1,-4,-14,-7,-5,-25,-7,-7
-1,-5,-4,3,1,-4,-14,-6,-4,-24,-7,-6
0,-6,-5,3,2,-5,-14,-5,-4,-24,-7,-6
0,-7,-6,3,3,-6,-15,-5,-5,-25,-7,-7
-1,-7,-4,4,2,-5,-15,-5,-5,-25,-7,-7
-5,-7,-1,6,-1,-4,-14,-4,-4,-24,-7,-6
-7,-8,0,8,-3,-4,-13,-2,-3,-23,-6,-6
-8,-8,0,8,-3,-4,-13,0,-2,-23,-5,-5
-9,-9,0,9,-4,-4,-12,2,0,-22,-5,-5
-8,-8,-1,8,-4,-4,-13,3,0,-21,-4,-5
-3,-7,-4,5,0,-5,-14,4,0,-20,-3,-4
2,-4,-7,0,5,-6,-16,7,1,-16,0,-2
9,-1,-10,-4,10,-5,-19,11,3,-11,4,2
16,3,-13,-10,15,-4,-23,16,7,-3,11,8
25,7,-18,-16,22,-5,-27,21,13,6,20,15
36,12,-24,-24,30,-6,-30,28,20,18,31,25
48,18,-31,-33,39,-6,-34,36,27,31,43,35
61,23,-39,-42,50,-8,-38,42,33,44,55,46
72,27,-46,-49,59,-9,-42,46,36,54,65,55
80,33,-48,-56,64,-7,-46,47,36,63,74,63
88,39,-48,-63,68,-4,-49,44,32,70,82,71
93,45,-47,-69,70,-1,-52,35,25,74,87,77
95,50,-45,-73,70,3,-55,16,12,74,89,81
94,55,-40,-74,67,7,-60,-12,-7,69,87,83
87,56,-31,-72,60,12,-65,-47,-30,56,79,80
75,56,-20,-65,48,17,-69,-84,-55,39,68,75
59,54,-7,-56,34,22,-71,-118,-78,20,53,66
43,49,4,-46,20,26,-70,-145,-97,0,37,55
28,43,15,-36,7,29,-69,-164,-110,-19,21,43
15,37,22,-26,-3,29,-68,-176,-118,-35,7,31
6,28,22,-17,-7,25,-66,-178,-122,-49,-6,18
0,17,16,-9,-7,17,-62,-171,-122,-60,-19,5
-1,6,8,-3,-4,7,-59,-158,-119,-68,-28,-5
-1,-2,-1,1,0,-2,-57,-142,-112,-72,-34,-12
0,-8,-8,3,4,-8,-56,-125,-103,-72,-36,-16
2,-10,-12,3,7,-11,-54,-109,-92,-69,-35,-18
1,-10,-12,4,6,-11,-50,-93,-81,-65,-33,-18
-1,-9,-8,5,3,-9,-46,-78,-68,-60,-30,-17
-2,-6,-4,4,1,-5,-42,-65,-55,-53,-25,-15
-1,-2,-1,2,0,-2,-39,-53,-45,-47,-20,-12
-2,0,2,1,-2,0,-36,-43,-36,-41,-16,-10
-4,1,4,1,-5,2,-33,-34,-29,-37,-13,-8
-5,2,6,2,-6,3,-30,-27,-23,-34,-11,-7
-7,0,6,3,-7,3,-28,-22,-19,-32,-10,-6
-7,-1,5,4,-6,2,-27,-18,-16,-30,-9,-6
-7,-2,4,5,-6,1,-26,-14,-13,-29,-9,-6
-9,-4,5,7,-6,1,-25,-10,-10,-28,-8,-6
-9,-4,5,7,-7,0,-23,-7,-8,-27,-8,-6
-8,-3,4,5,-6,0,-22,-5,-6,-25,-7,-6
-7,-3,4,5,-6,0,-21,-3,-4,-24,-6,-6
-8,-3,5,5,-6,0,-21,-2,-4,-24,-6,-6
-7,-3,4,5,-5,0,-22,-2,-4,-25,-6,-7
-6,-4,2,5,-3,-1,-22,-2,-3,-25,-7,-7
-6,-4,1,5,-3,-1,-21,-1,-2,-25,-7,-7
-7,-5,1,6,-3,-1,-20,0,0,-24,-6,-6
-9,-6,2,7,-5,-2,-19,1,1,-23,-5,-5
-11,-6,4,8,-7,-1,-17,3,2,-21,-4,-4
-12,-6,5,9,-8,-1,-17,3,2,-21,-3,-4
-12,-6,5,9,-9,-1,-17,3,2,-21,-3,-4
-12,-7,4,9,-8,-2,-16,3,1,-21,-3,-4
-10,-7,2,8,-6,-2,-16,4,1,-21,-3,-4
-7,-6,0,7,-4,-2,-16,5,0,-22,-4,-5
-5,-5,-1,5,-2,-2,-17,5,0,-24,-6,-6
-3,-5,-1,4,-1,-3,-19,4,-1,-25,-7,-8
-3,-5,-1,4,-1,-3,-20,3,-1,-26,-8,-9
-4,-4,0,4,-1,-2,-20,3,-1,-26,-9,-10
-3,-3,0,3,-1,-2,-20,3,-1,-26,-9,-10
-3,-2,0,2,-1,-1,-20,3,-1,-26,-8,-9
-4,-2,1,3,-3,-1,-19,4,0,-25,-7,-8
-8,-4,3,6,-5,0,-17,5,1,-23,-6,-6
-12,-5,5,8,-8,0,-16,7,3,-22,-4,-4
-14,-6,7,10,-10,0,-15,8,4,-20,-3,-3
-14,-7,6,10,-10,0,-15,9,4,-20,-3,-3
-12,-8,4,10,-8,-1,-16,9,3,-20,-3,-4
-9,-7,2,8,-6,-2,-16,8,3,-20,-3,-5
-7,-4,2,5,-5,-1,-16,8,3,-20,-3,-5
-7,-2,4,4,-5,1,-16,8,2,-20,-4,-5
-7,-1,5,4,-6,2,-17,6,2,-20,-4,-5
-9,-2,5,5,-7,2,-17,6,2,-19,-4,-5
-10,-5,4,7,-8,0,-16,6,3,-19,-4,-5
-11,-7,3,8,-7,-1,-16,5,2,-19,-5,-6
-10,-7,2,8,-7,-1,-16,5,2,-19,-5,-6
-10,-6,3,8,-7,-1,-16,6,3,-19,-4,-6
-11,-5,4,8,-8,-1,-16,6,3,-18,-4,-5
-11,-6,5,9,-8,-1,-16,7,3,-18,-4,-6
-9,-5,4,7,-6,0,-16,7,3,-18,-5,-6
-7,-4,2,6,-4,-1,-17,7,2,-18,-5,-6
-5,-5,0,5,-3,-2,-18,7,2,-19,-6,-7
-5,-5,0,5,-2,-3,-19,7,2,-19,-6,-7
-5,-5,0,5,-3,-3,-19,7,2,-18,-6,-7
-7,-5,1,6,-4,-3,-18,8,3,-17,-5,-6
-8,-5,2,6,-5,-2,-17,9,4,-16,-4,-5
-9,-4,3,6,-6,-1,-17,9,4,-15,-4,-4
-9,-2,6,5,-7,1,-17,9,4,-15,-3,-4
-9,0,8,4,-8,4,-17,9,4,-15,-3,-4
-9,1,9,4,-9,6,-16,10,5,-15,-3,-4
-9,0,9,4,-9,5,-16,10,5,-15,-3,-4
-9,0,8,4,-9,5,-16,10,4,-15,-4,-5
-9,0,8,4,-9,4,-16,11,4,-15,-4,-5
-9,-1,7,5,-8,2,-16,12,5,-15,-4,-5
-11,-3,6,7,-9,1,-16,13,5,-15,-4,-5
-11,-4,6,7,-9,1,-16,14,6,-15,-3,-5
-10,-4,5,7,-8,0,-16,15,6,-14,-3,-4
-9,-5,4,7,-6,0,-16,15,6,-14,-3,-4
-9,-6,2,7,-5,-1,-16,15,6,-14,-3,-4
-8,-6,2,7,-5,-2,-16,15,6,-14,-3,-4
-8,-6,1,7,-5,-2,-17,15,6,-14,-3,-4
-7,-6,0,6,-5,-2,-17,15,6,-14,-3,-4
-6,-6,0,6,-4,-2,-17,15,6,-14,-3,-4
-5,-3,1,4,-4,-1,-17,15,7,-13,-2,-3
-5,-1,2,3,-4,0,-17,15,7,-13,-2,-3
-5,-1,3,3,-4,1,-18,13,6,-14,-2,-4
-5,-2,1,3,-2,0,-19,11,5,-15,-4,-6
-3,-2,0,3,-1,-1,-20,10,4,-16,-4,-7
-4,-1,2,3,-3,0,-20,10,4,-16,-3,-6
-6,-1,6,4,-6,2,-18,12,6,-14,-2,-5
-7,0,7,4,-8,3,-18,14,6,-13,-1,-4
-6,0,7,3,-7,3,-18,14,6,-14,-1,-4
-6,0,6,3,-6,3,-19,14,6,-14,-1,-5
-6,0,6,3,-6,4,-19,15,7,-14,-1,-4
-6,1,7,2,-6,5,-18,16,8,-13,0,-4
-5,2,6,2,-6,4,-19,16,8,-14,0,-4
-4,2,5,1,-5,3,-20,15,7,-15,-1,-4
-3,2,5,1,-4,3,-20,14,7,-15,-1,-4
-3,2,5,1,-5,3,-20,14,8,-15,0,-4
-4,1,5,1,-5,3,-19,16,9,-13,0,-2
-7,0,6,3,-7,2,-18,18,10,-12,2,-1
-9,-1,7,5,-8,2,-17,19,12,-10,3,0
-7,0,7,3,-7,3,-17,20,12,-10,4,0
-4,2,6,1,-5,4,-17,21,11,-9,4,0
-3,3,6,0,-5,4,-17,22,12,-9,5,0
-1,3,5,-1,-3,3,-18,22,13,-8,5,1
1,4,3,-2,-2,3,-18,23,14,-8,5,1
1,3,3,-2,-2,3,-18,23,14,-8,5,1
-1,3,4,-1,-3,3,-18,22,14,-9,5,0
-3,3,6,0,-4,4,-18,23,14,-9,5,0
-4,3,6,0,-4,5,-18,24,15,-8,6,1
-3,3,6,0,-4,5,-18,24,15,-7,6,1
-1,4,5,-1,-3,4,-19,25,15,-7,6,2
1,5,4,-3,-1,4,-19,25,15,-7,7,2
2,5,3,-3,-1,4,-18,26,15,-7,7,3
2,5,3,-3,-1,4,-18,27,15,-6,7,3
0,5,5,-3,-2,5,-18,28,15,-6,7,4
-1,5,6,-3,-3,6,-18,29,16,-5,8,4
0,5,5,-3,-2,5,-19,29,16,-5,8,4
0,5,4,-2,-2,5,-19,29,16,-4,9,4
-1,5,6,-1,-3,5,-18,30,17,-3,10,5
-2,6,8,-1,-4,6,-17,31,18,-1,11,7
-2,7,9,-2,-5,7,-16,31,18,-1,11,7
0,8,9,-3,-4,8,-16,30,18,-2,11,7
1,9,8,-5,-3,8,-16,30,17,-2,10,6
3,9,6,-6,-1,7,-15,29,17,-2,10,6
4,10,5,-7,0,7,-14,29,17,-2,11,6
3,10,6,-6,-1,7,-11,30,17,-1,12,7
2,10,7,-5,-2,8,-7,31,18,0,12,8
2,9,7,-5,-3,8,-5,30,18,0,13,8
3,9,7,-5,-2,7,-4,29,18,0,12,8
3,8,5,-5,-1,6,-3,29,18,0,12,8
4,8,4,-6,0,6,-3,29,17,0,12,8
3,8,4,-6,-1,6,-2,29,17,0,13,8
2,7,4,-6,-1,6,-2,29,17,1,13,9
4,8,3,-6,0,6,-2,29,18,1,14,9
4,8,3,-6,0,5,-2,29,18,1,14,10
3,7,3,-5,0,5,-2,29,18,1,14,10
4,7,2,-5,0,4,-3,29,17,1,14,10
5,7,1,-6,2,3,-3,29,17,0,13,10
6,7,1,-6,2,4,-3,28,16,0,13,9
5,7,2,-6,2,5,-4,28,16,0,13,9
5,7,2,-7,2,5,-5,27,15,0,12,9
7,7,0,-8,4,4,-6,26,15,0,12,8
9,8,-1,-9,5,4,-7,26,15,0,12,8
10,9,-1,-10,6,4,-7,26,15,0,12,8
11,10,-1,-10,7,4,-7,25,14,-1,12,8
13,11,-2,-11,7,4,-7,23,13,-1,11,8
14,10,-4,-12,9,3,-7,21,12,-2,10,7
13,9,-4,-11,9,2,-7,19,12,-2,10,7
9,8,-1,-9,5,3,-6,18,12,-1,11,9
6,9,2,-8,2,5,-5,18,13,0,13,10
7,10,3,-9,2,6,-6,18,13,0,13,10
9,12,3,-11,3,7,-6,17,12,0,12,9
9,13,3,-11,3,8,-7,16,11,-1,11,9
7,12,5,-9,1,9,-6,16,11,-2,11,9
3,10,7,-7,-1,8,-5,16,11,-1,11,9
3,8,5,-5,-1,7,-4,16,12,0,12,10
4,6,2,-5,1,4,-4,15,11,0,12,9
4,5,0,-5,2,3,-3,14,10,-1,11,8
4,4,0,-4,2,2,-3,14,9,-2,10,7
3,4,0,-3,1,2,-2,13,9,-2,10,7
2,4,2,-3,0,3,-2,12,9,-3,10,6
1,4,3,-2,0,3,-1,12,9,-3,9,6
2,5,2,-3,0,3,0,11,9,-3,9,6
2,5,2,-3,0,4,0,11,9,-3,9,6
1,4,2,-2,-1,4,0,10,9,-4,8,6
1,3,1,-2,0,2,-1,8,8,-5,7,5
3,3,-1,-3,2,1,-2,6,7,-6,6,4
2,3,0,-3,1,1,-1,6,7,-6,6,4
-1,3,4,-1,-3,3,0,6,8,-6,6,4
-4,3,7,0,-6,4,1,5,8,-6,7,4
-6,2,8,1,-7,4,1,4,7,-6,6,4
-6,1,8,1,-7,4,2,4,6,-6,6,4
-4,1,6,1,-5,4,3,3,6,-7,6,4
-4,1,5,1,-4,3,2,2,5,-7,5,3
-3,2,5,0,-4,3,2,2,5,-8,4,2
-2,3,5,0,-4,4,2,2,5,-8,4,2
-4,2,7,1,-6,4,2,2,4,-8,4,2
-6,1,8,3,-7,4,2,1,4,-9,3,2
-7,0,8,3,-8,4,3,1,3,-9,3,1
-6,2,8,2,-7,4,3,1,3,-9,3,1
-4,2,7,1,-5,4,4,2,3,-9,3,1
-5,1,7,2,-5,4,4,3,3,-10,3,1
-8,0,8,4,-7,4,4,3,3,-10,3,1
-9,-1,8,5,-8,3,4,4,4,-9,3,1
-9,-2,6,6,-8,2,5,4,4,-9,3,2
-8,-3,5,6,-7,0,5,4,4,-9,3,2
-7,-3,4,6,-6,0,6,4,5,-9,3,2
-6,-3,3,5,-5,0,7,3,5,-9,3,2
-5,-3,2,5,-4,-1,7,2,4,-10,3,1
-5,-3,2,4,-4,-1,7,1,4,-11,2,0
-3,-2,1,2,-3,0,6,0,3,-11,1,0
-2,-1,1,1,-2,0,7,0,2,-11,1,0
-3,-1,3,2,-3,1,7,1,3,-11,1,0
-4,0,5,2,-5,2,8,1,3,-10,2,0
-5,1,7,2,-7,3,8,2,3,-10,2,0
-6,1,7,2,-7,3,8,2,3,-10,1,0
-5,0,5,2,-5,2,7,1,3,-11,1,0
-5,0,4,3,-5,2,7,0,3,-11,1,0
-7,0,7,3,-7,4,9,0,5,-10,2,1
-8,0,8,4,-9,5,10,1,6,-9,3,2
-6,1,7,2,-7,5,11,1,6,-9,3,2
-3,2,5,0,-4,4,10,0,5,-9,3,2
-3,2,5,0,-4,4,9,0,3,-10,2,1
-5,1,6,2,-5,3,8,-1,2,-11,1,0
-5,0,5,3,-5,2,7,-2,1,-12,0,0
-5,0,5,2,-4,2,7,-2,1,-12,0,0
-5,0,6,2,-5,3,8,-2,2,-12,0,0
-7,0,8,3,-7,4,8,-2,3,-12,0,0
-8,0,9,4,-8,4,8,-2,3,-12,0,0
-8,0,9,4,-9,4,8,-1,4,-11,1,0
-7,1,8,3,-7,4,9,-1,4,-10,2,0
-5,1,6,2,-5,4,9,-1,4,-10,2,0
-5,1,5,2,-5,3,9,-1,4,-9,1,0
-7,0,7,4,-7,3,10,0,5,-9,2,0
-11,-1,9,6,-10,4,11,2,5,-8,3,1
-12,-1,11,7,-11,4,11,3,5,-7,3,2
-10,-1,9,5,-10,4,11,3,5,-8,3,2
-7,0,7,4,-8,3,10,3,4,-8,3,1
-6,0,6,3,-6,3,10,3,4,-8,3,1
-6,0,6,3,-6,3,10,4,4,-8,3,1
-6,0,7,3,-6,3,11,4,4,-7,3,1
-6,1,7,2,-6,4,11,5,5,-7,3,2
-6,2,8,2,-6,5,12,5,6,-6,3,2
-8,1,9,3,-8,5,12,5,6,-6,3,2
-8,1,9,3,-8,5,12,4,6,-7,3,2
-7,2,9,2,-8,5,12,3,6,-7,3,2
-6,1,8,2,-7,5,12,3,6,-6,4,2
-5,1,7,2,-6,4,13,2,6,-6,4,2
-5,0,6,3,-6,4,13,2,6,-5,4,2
-5,0,6,3,-6,4,13,2,5,-5,4,2
-6,0,7,3,-7,4,13,2,5,-5,4,2
-8,0,9,4,-9,4,13,3,6,-5,4,3
-10,0,10,4,-10,5,13,4,7,-5,5,3
-11,1,12,4,-11,6,14,5,8,-5,5,3
-11,1,13,4,-12,7,14,6,8,-5,5,2
-10,2,13,3,-11,7,13,5,7,-6,4,2
-9,3,13,3,-11,8,13,5,7,-6,4,1
-7,4,11,1,-9,7,13,5,7,-6,3,1
-4,4,8,0,-6,6,13,3,6,-7,3,0
-2,3,5,0,-4,4,12,2,5,-8,2,0
-2,3,5,0,-4,4,12,2,5,-8,2,0
-3,3,5,0,-5,4,13,2,5,-8,2,0
-3,3,6,0,-5,5,13,2,5,-8,2,0
-4,4,8,0,-6,6,13,2,5,-7,2,0
-5,4,10,0,-7,7,13,2,6,-7,2,0
-9,4,13,2,-11,8,13,3,7,-6,3,1
-13,4,17,4,-14,10,15,4,9,-5,4,3
-14,4,18,5,-15,11,16,5,9,-4,5,3
-13,4,17,4,-15,11,15,5,9,-4,5,3
-10,4,14,2,-12,10,14,5,8,-5,4,2
-7,5,12,0,-9,9,13,5,8,-6,4,1
-5,5,10,0,-8,8,13,4,7,-6,3,1
-5,5,11,0,-8,8,13,3,7,-6,3,1
-7,6,13,0,-10,9,14,4,8,-5,3,1
-10,6,17,1,-13,11,16,5,9,-4,4,2
-11,6,18,2,-14,12,17,6,10,-4,5,3
-12,6,19,3,-15,13,18,7,11,-3,5,4
-11,7,19,2,-15,13,18,7,11,-3,6,5
-9,8,18,1,-14,13,17,7,11,-3,7,5
-6,9,17,-1,-12,13,16,7,11,-3,7,5
-5,10,16,-2,-10,13,15,6,11,-3,6,5
-4,10,16,-2,-10,13,14,5,11,-3,6,5
-5,10,16,-2,-11,13,14,5,11,-3,6,5
-7,10,17,-1,-12,13,14,6,11,-2,6,5
-8,10,17,-1,-12,13,14,7,11,-2,7,5
-6,11,17,-2,-12,14,14,8,11,-2,7,5
-5,12,16,-3,-10,15,13,8,10,-3,7,5
-4,11,16,-3,-10,14,11,8,9,-4,6,4
-5,10,16,-3,-10,13,11,8,9,-4,5,4
-5,9,15,-2,-10,12,11,9,10,-3,5,4
-6,7,14,-1,-9,10,10,8,9,-4,5,4
-6,6,12,0,-8,8,9,7,8,-5,4,3
-5,4,10,0,-7,7,8,5,7,-6,3,2
-5,3,7,0,-6,5,8,4,6,-6,3,2
-4,2,5,0,-5,4,8,4,6,-6,3,3
-1,3,4,-1,-4,5,9,4,6,-6,3,3
0,4,3,-2,-2,4,10,4,6,-6,4,3
1,3,2,-2,-1,3,10,4,5,-6,4,3
2,2,1,-2,0,2,10,4,5,-6,4,3
2,2,0,-2,0,1,10,4,5,-5,4,4
2,3,1,-2,0,1,10,3,5,-5,4,4
1,4,2,-2,-1,3,9,2,4,-6,4,3
0,4,3,-2,-2,4,9,1,3,-7,3,2
0,5,4,-3,-2,5,9,0,2,-7,3,2
1,4,2,-3,-1,4,9,0,2,-8,2,1
2,2,0,-2,0,1,9,-1,1,-9,1,0
0,1,1,-1,0,1,10,-2,1,-9,1,0
-2,1,4,0,-3,2,11,-1,1,-9,1,0
-3,1,4,0,-4,2,12,-1,0,-9,1,0
-2,0,1,1,-2,0,13,-1,0,-10,1,0
-1,-2,-2,1,0,-2,13,0,-1,-11,0,0
-1,-4,-3,2,1,-3,14,1,-1,-11,0,0
-1,-4,-3,2,1,-3,14,1,-1,-11,0,-1
0,-2,-2,1,1,-2,14,0,-2,-11,0,-1
1,0,-1,0,1,-1,14,-1,-3,-12,0,-2
0,-1,0,1,0,-1,13,-3,-3,-13,-1,-3
-2,-2,0,2,-2,-1,14,-4,-3,-14,-2,-4
-4,-2,2,3,-3,0,15,-5,-2,-14,-2,-3
-7,-3,3,5,-5,0,16,-5,-2,-14,-2,-3
-9,-3,5,6,-6,0,17,-6,-2,-14,-2,-3
-10,-4,6,7,-7,1,18,-6,-2,-14,-2,-3
-12,-5,7,9,-9,1,18,-5,-1,-14,-2,-3
-13,-6,8,10,-10,1,19,-5,-1,-14,-2,-3
-13,-6,8,9,-10,1,20,-4,-1,-14,-2,-3
-12,-5,8,8,-10,1,21,-3,-1,-14,-1,-3
-12,-4,8,8,-10,1,21,-2,0,-14,-1,-3
-12,-4,7,8,-10,1,22,-2,0,-14,-2,-3
-12,-5,6,9,-9,0,22,-2,0,-14,-2,-4
-13,-6,7,9,-10,0,22,-1,0,-14,-2,-4
-15,-6,8,11,-11,0,22,-1,-1,-15,-2,-4
-18,-8,10,13,-14,1,21,-1,-2,-16,-3,-5
-19,-7,12,13,-15,2,21,-2,-2,-17,-4,-5
-16,-4,12,10,-14,3,22,-2,-2,-17,-4,-5
-12,-2,10,7,-10,3,22,-2,-3,-18,-4,-6
-10,-2,7,6,-8,2,22,-3,-3,-19,-5,-6
-10,-2,7,6,-8,1,22,-2,-3,-18,-5,-6
-12,-4,8,8,-10,1,22,-1,-3,-18,-4,-6
-15,-5,10,10,-13,2,23,0,-2,-17,-3,-4
-17,-7,11,12,-14,1,23,1,-2,-16,-2,-3
-17,-8,10,12,-13,0,23,0,-2,-17,-3,-4
-15,-7,8,11,-11,0,23,-1,-3,-18,-4,-6
-13,-6,7,9,-10,0,22,-2,-3,-19,-4,-6
-12,-4,8,8,-10,2,23,-2,-3,-18,-4,-6
-11,-3,8,7,-10,2,23,-2,-2,-18,-4,-5
-12,-4,7,8,-10,1,22,-2,-2,-18,-5,-6
-13,-6,7,9,-10,0,22,-2,-3,-18,-6,-6
-13,-6,7,9,-10,0,21,-3,-3,-19,-6,-7
-13,-6,7,9,-10,0,21,-3,-3,-19,-6,-7
-14,-6,8,10,-11,0,22,-3,-3,-20,-6,-7
-15,-7,8,11,-12,0,22,-3,-3,-20,-6,-7
-16,-8,9,12,-12,0,22,-3,-3,-19,-6,-6
-17,-8,10,13,-13,0,23,-2,-3,-19,-5,-6
-16,-8,8,12,-12,0,23,-2,-3,-19,-5,-6
-11,-8,4,10,-7,-2,21,-3,-4,-20,-6,-7
-8,-8,0,8,-4,-4,20,-4,-5,-21,-7,-8
-7,-8,0,8,-3,-4,20,-3,-5,-21,-7,-7
-9,-8,1,9,-5,-3,21,-3,-4,-21,-7,-7
-10,-7,3,9,-7,-2,21,-3,-4,-21,-7,-7
-11,-6,4,8,-7,-1,22,-3,-3,-21,-7,-7
-12,-6,5,9,-8,-1,22,-4,-3,-21,-6,-7
-14,-8,5,11,-9,-1,21,-5,-3,-21,-6,-7
-14,-9,4,12,-9,-2,21,-6,-3,-21,-6,-7
-13,-10,3,11,-7,-3,21,-5,-3,-20,-6,-6
-12,-10,2,11,-6,-3,21,-4,-2,-19,-5,-5
-10,-9,1,10,-6,-3,21,-4,-2,-19,-5,-5
-8,-8,0,8,-4,-3,20,-5,-3,-21,-7,-7
-5,-7,-2,6,-2,-4,18,-6,-4,-22,-8,-8
-4,-8,-4,6,0,-6,18,-6,-5,-23,-8,-9
-6,-9,-3,8,-1,-6,18,-5,-5,-23,-8,-8
-9,-10,-1,10,-4,-5,19,-4,-4,-22,-7,-7
-11,-10,1,11,-6,-4,20,-3,-3,-21,-6,-6
-14,-10,4,12,-9,-3,21,-2,-2,-20,-4,-5
-15,-10,6,12,-10,-2,22,-1,-1,-19,-4,-4
-16,-9,7,12,-11,-1,22,-1,-1,-19,-4,-4
-16,-9,7,12,-11,-1,22,0,-1,-19,-4,-4
-16,-9,7,12,-12,-1,22,0,-2,-20,-4,-5
-15,-8,7,11,-11,0,21,-1,-2,-21,-5,-6
-12,-6,6,9,-9,0,20,-2,-3,-21,-6,-6
-10,-5,5,8,-8,0,20,-2,-2,-21,-6,-6
-11,-5,7,8,-9,1,21,-2,-2,-21,-5,-5
-12,-6,7,9,-10,1,21,-2,-1,-21,-5,-5
-12,-6,7,9,-10,1,21,-1,-1,-20,-5,-5
-13,-6,8,10,-11,1,21,0,0,-20,-5,-5
-14,-7,7,11,-11,0,20,0,0,-21,-5,-5
-14,-9,5,12,-10,-2,19,0,-1,-22,-6,-7
-12,-10,2,11,-7,-3,19,1,-1,-23,-7,-8
-11,-10,2,10,-6,-3,19,4,0,-22,-6,-7
-11,-9,2,10,-6,-2,19,7,1,-20,-5,-6
-9,-8,1,8,-5,-2,19,11,2,-18,-4,-5
-5,-8,-2,6,-1,-4,17,14,3,-16,-1,-4
0,-7,-6,3,3,-6,14,18,6,-11,2,-1
8,-3,-11,-2,9,-6,12,23,11,-4,9,4
19,3,-17,-11,18,-6,8,30,17,5,17,12
31,9,-22,-20,26,-6,5,38,25,16,28,21
42,15,-27,-28,35,-6,1,45,32,28,39,30
55,21,-33,-38,45,-6,-3,50,37,40,49,40
68,28,-39,-48,54,-6,-8,53,40,50,59,49
79,35,-43,-57,61,-4,-12,52,40,59,67,57
82,41,-40,-62,61,1,-14,49,38,66,76,66
80,47,-33,-63,56,7,-15,39,32,71,82,73
78,51,-27,-64,52,12,-18,19,19,71,85,78
77,55,-21,-66,49,17,-24,-11,-1,65,82,78
72,59,-13,-65,43,22,-30,-49,-26,52,73,75
62,57,-4,-60,34,26,-35,-90,-54,34,60,68
49,52,3,-50,23,27,-39,-128,-80,13,44,58
35,45,10,-40,12,28,-38,-157,-100,-6,28,47
19,39,19,-29,0,29,-36,-178,-113,-24,14,37
5,31,25,-18,-10,29,-34,-188,-120,-38,2,27
-3,22,25,-9,-14,24,-30,-187,-122,-49,-9,16
-7,11,17,-1,-12,14,-26,-178,-121,-60,-20,4
-8,0,7,4,-8,3,-24,-164,-117,-68,-30,-6
-6,-8,-3,7,-1,-6,-22,-147,-111,-72,-36,-14
-1,-13,-11,7,5,-12,-22,-130,-103,-72,-39,-19
2,-15,-17,6,10,-17,-20,-113,-92,-70,-39,-21
5,-16,-20,6,13,-18,-17,-95,-79,-65,-37,-21
4,-13,-17,5,11,-15,-14,-79,-66,-59,-33,-19
1,-9,-10,4,5,-9,-10,-65,-53,-51,-27,-16
-2,-6,-3,4,0,-4,-6,-52,-42,-44,-22,-13
-6,-3,2,5,-5,0,-2,-41,-32,-38,-17,-10
-9,-2,7,5,-8,2,1,-32,-25,-33,-13,-8
-11,-1,9,6,-10,3,4,-24,-19,-31,-11,-7
-11,-2,9,7,-10,3,6,-17,-15,-29,-10,-6
-11,-4,7,7,-9,2,8,-11,-11,-27,-9,-6
-10,-5,4,8,-8,0,9,-7,-7,-26,-9,-6
-9,-6,2,8,-6,-1,10,-4,-5,-25,-9,-6
-7,-6,0,7,-4,-2,11,-2,-3,-24,-8,-6
-6,-7,-1,7,-3,-4,12,-1,-2,-23,-7,-6
-8,-7,0,8,-4,-4,13,1,0,-21,-6,-5
-10,-7,4,9,-7,-2,14,2,0,-20,-5,-5
-12,-6,8,9,-10,0,15,4,0,-19,-5,-4
-14,-4,11,9,-12,3,15,5,1,-19,-5,-4
-15,-4,12,10,-13,4,15,6,2,-19,-5,-4
-15,-4,11,10,-13,4,15,7,3,-19,-5,-4
-14,-4,9,10,-12,3,14,7,3,-20,-6,-5
-12,-4,7,8,-10,2,14,7,2,-20,-6,-5
-11,-4,6,7,-9,1,14,7,2,-20,-6,-5
-10,-4,6,6,-8,1,14,8,2,-20,-6,-5
-9,-4,5,6,-7,0,14,8,2,-21,-6,-5
-9,-4,5,6,-7,0,14,9,2,-21,-6,-5
-9,-5,4,7,-7,0,13,9,2,-21,-6,-5
-9,-5,4,7,-7,0,13,9,3,-20,-5,-5
-9,-5,4,7,-7,0,14,10,4,-20,-5,-4
-10,-5,4,8,-7,0,14,10,4,-19,-4,-4
-10,-5,4,8,-7,0,14,9,5,-19,-4,-4
-11,-5,6,8,-8,1,14,9,5,-19,-4,-4
-13,-5,9,9,-10,2,15,9,5,-19,-3,-4
-14,-5,11,9,-12,3,15,9,5,-19,-3,-4
-15,-4,11,9,-13,3,15,8,5,-19,-3,-4
-14,-3,11,9,-13,3,15,8,5,-18,-3,-4
-13,-3,9,8,-12,3,14,7,5,-19,-3,-4
-12,-3,8,8,-10,2,13,7,5,-19,-4,-5
-11,-5,6,8,-9,1,12,7,4,-20,-5,-5
-11,-6,5,8,-8,0,12,8,4,-19,-4,-5
-10,-5,5,7,-7,0,13,9,5,-18,-4,-4
-9,-5,4,7,-6,0,14,11,5,-18,-3,-4
-10,-6,4,8,-7,-1,15,13,6,-17,-3,-3
-13,-7,6,10,-9,0,15,14,6,-17,-2,-3
-15,-7,7,11,-11,0,15,14,7,-16,-2,-2
-12,-6,6,9,-10,0,15,14,7,-16,-2,-2
-9,-5,3,7,-7,0,14,13,7,-16,-2,-3
-7,-5,2,7,-5,-1,14,12,7,-16,-3,-3
-7,-6,1,7,-4,-2,13,12,7,-16,-3,-3
-7,-8,0,8,-4,-4,12,10,6,-17,-4,-4
-7,-9,0,8,-4,-5,10,9,4,-18,-5,-6
-8,-9,0,8,-5,-4,9,9,4,-18,-6,-6
-8,-8,0,8,-5,-4,9,10,4,-18,-6,-6
-6,-6,0,6,-4,-3,10,11,4,-17,-6,-6
-4,-4,0,4,-3,-2,10,12,5,-16,-6,-6
-2,-3,-1,3,-1,-3,10,12,5,-16,-6,-6
-1,-4,-2,3,0,-4,10,12,5,-16,-6,-6
-3,-4,0,4,-2,-2,11,12,5,-16,-5,-5
-5,-3,3,4,-5,0,11,13,6,-15,-5,-5
-6,-2,5,4,-6,1,11,13,6,-15,-5,-6
-8,-2,6,5,-8,2,11,13,6,-14,-5,-6
-10,-2,8,7,-9,2,11,14,8,-13,-4,-5
-11,-3,7,8,-9,1,12,15,9,-13,-4,-5
-10,-4,5,8,-7,0,12,15,9,-13,-4,-5
-9,-5,4,7,-6,-1,12,15,10,-12,-3,-4
-8,-5,2,7,-4,-2,11,15,9,-12,-3,-4
-7,-6,1,6,-3,-3,10,15,8,-12,-3,-5
-7,-7,0,7,-3,-4,10,15,8,-11,-3,-5
-7,-8,0,8,-4,-3,9,15,9,-11,-3,-5
-7,-7,1,7,-5,-2,10,15,10,-9,-3,-4
-7,-6,1,6,-4,-2,10,15,10,-8,-3,-3
-7,-6,1,6,-4,-2,10,16,10,-8,-3,-4
-8,-6,2,7,-5,-2,10,16,11,-8,-2,-3
-7,-4,4,6,-5,0,11,17,12,-7,-1,-2
-6,-2,5,4,-5,1,11,17,12,-6,0,-2
-5,-2,4,4,-5,1,10,16,11,-6,-1,-3
-4,-2,2,3,-4,0,9,16,10,-6,-2,-4
-4,-1,3,2,-4,1,10,18,11,-5,-1,-3
-4,0,3,2,-5,1,10,18,11,-4,-1,-3
-4,0,4,2,-5,1,9,18,11,-4,-1,-3
-3,0,3,1,-4,1,9,18,11,-4,-1,-3
-3,0,3,1,-3,1,9,19,12,-3,0,-3
-3,2,5,0,-3,3,9,20,13,-2,0,-2
-3,4,8,0,-5,5,9,21,14,0,1,-1
-5,4,10,0,-7,7,8,21,14,0,1,-1
-6,4,10,1,-8,7,7,21,14,0,1,-1
-6,2,9,2,-8,6,7,21,14,1,1,-1
-7,0,8,3,-8,4,8,23,16,3,3,0
-8,-1,8,5,-8,3,8,24,17,4,4,1
-7,-1,6,4,-6,2,7,24,17,4,4,1
-5,0,5,3,-4,2,7,25,17,5,4,1
-3,0,4,2,-3,2,7,26,17,6,5,1
-2,0,3,1,-2,2,6,27,18,7,5,2
0,2,2,0,-1,2,6,27,18,7,5,2
0,2,2,-1,-1,2,6,27,18,8,5,2
0,2,2,-1,-1,2,5,27,18,8,5,1
0,2,2,-1,-1,2,5,27,18,9,5,1
0,2,2,-1,-1,2,5,27,19,10,5,2
-1,1,2,0,-1,2,4,27,19,11,6,2
1,2,1,-1,0,2,4,27,19,12,6,2
5,3,0,-4,3,2,3,27,18,12,6,2
7,4,-1,-5,4,2,2,28,18,13,7,3
7,5,0,-6,3,3,2,29,19,14,8,4
5,6,2,-5,1,4,3,30,20,16,9,5
2,8,6,-4,-2,7,3,32,22,18,10,6
-1,8,9,-3,-5,8,4,33,23,19,11,7
-2,8,10,-3,-6,9,4,33,24,21,12,7
-2,8,10,-3,-5,9,4,33,24,22,12,7
0,8,9,-4,-4,9,3,33,24,22,12,7
1,8,7,-4,-3,8,3,32,24,23,12,7
3,9,6,-5,-2,8,2,31,24,23,12,6
5,10,5,-7,0,8,2,31,23,23,11,6
7,10,4,-8,1,7,1,31,23,24,12,6
7,9,2,-8,2,6,1,32,24,25,13,7
7,9,2,-8,3,5,2,33,24,27,14,8
7,9,2,-8,3,5,2,33,24,28,14,8
9,9,1,-9,4,5,2,34,24,29,14,8
10,10,1,-10,5,6,2,35,25,30,15,9
9,11,2,-10,4,7,2,36,26,31,16,10
8,11,4,-10,2,8,2,36,26,32,16,11
5,10,5,-8,0,8,2,36,26,33,16,11
3,10,6,-7,-1,8,1,35,26,34,16,11
4,11,6,-8,0,8,1,35,25,35,16,11
6,12,5,-9,1,8,0,35,25,36,16,11
7,12,5,-9,1,8,0,34,24,36,16,10
7,12,5,-9,1,8,0,34,23,37,16,10
9,12,4,-10,2,8,-1,33,22,37,16,10
10,11,2,-11,4,7,-1,32,22,37,15,9
11,11,1,-11,4,6,-2,32,21,38,15,9
10,12,1,-11,4,7,-2,31,22,38,15,9
10,12,2,-11,3,7,-2,29,21,39,15,9
9,13,4,-11,2,8,-2,28,21,39,15,9
8,13,5,-11,1,9,-2,26,20,40,15,9
10,13,4,-12,2,8,-3,24,18,40,14,9
11,12,2,-11,3,7,-3,22,18,41,14,8
11,11,1,-10,4,6,-3,22,18,42,14,8
11,10,0,-10,5,5,-2,23,19,42,14,8
11,10,-1,-10,6,4,-2,22,18,43,14,8
10,10,0,-10,5,5,-2,21,18,43,14,8
7,11,3,-9,2,7,-1,20,18,44,14,8
6,10,4,-9,1,7,-1,19,18,45,13,7
7,9,2,-8,2,6,0,18,18,45,13,7
6,7,1,-7,2,4,0,17,18,46,12,6
4,6,1,-5,1,4,1,17,18,47,12,7
3,5,1,-4,0,4,2,16,18,48,12,7
1,5,3,-3,-1,4,3,16,18,49,12,7
0,5,4,-2,-2,4,3,14,18,49,12,7
1,5,4,-3,-1,4,2,12,17,49,11,5
1,5,4,-4,-1,4,1,10,16,49,10,4
2,4,3,-4,-1,4,1,8,16,49,9,3
4,4,1,-5,1,3,1,6,14,48,8,2
7,5,-1,-6,4,2,0,5,13,48,6,0
7,6,-1,-7,4,2,0,5,11,47,5,0
5,6,1,-6,2,4,0,5,10,48,4,-1
2,7,4,-5,-1,6,1,5,11,49,5,0
0,7,7,-3,-4,7,2,6,12,51,6,0
-4,5,9,-1,-7,7,4,6,13,53,7,1
-6,3,9,0,-8,6,5,6,13,54,7,2
-7,2,9,2,-9,5,5,6,14,55,7,2
-6,1,8,2,-7,4,5,5,13,54,7,1
-2,0,3,1,-3,2,4,4,12,53,5,0
0,0,0,1,0,0,4,3,11,53,4,-1
-2,0,0,1,-1,0,5,2,11,54,4,-1
-4,-1,2,3,-4,1,6,2,11,56,5,-1
-6,-2,3,4,-5,0,6,2,11,57,5,-1
-5,-2,3,3,-4,0,6,2,12,58,5,-1
-3,-2,1,3,-2,-1,6,2,12,59,5,-1
-3,-3,0,3,-2,-2,7,1,11,59,5,-1
-3,-3,1,4,-2,-1,7,0,11,60,5,0
-4,-3,1,4,-3,-1,7,0,11,61,5,0
-5,-4,1,5,-3,-1,7,0,10,61,4,-1
-4,-3,0,3,-2,-1,5,-2,9,61,3,-2
-1,-2,0,1,0,-1,4,-3,8,61,2,-3
0,-1,0,0,0,-1,4,-3,8,61,2,-3
0,0,1,-1,0,1,5,-3,8,61,2,-3
-1,1,4,0,-2,3,6,-1,9,62,3,-2
-4,0,5,2,-5,3,6,0,10,63,3,-2
-6,-3,5,5,-6,1,6,0,11,63,3,-3
-7,-4,4,6,-6,0,6,0,11,63,3,-3
-9,-4,5,6,-7,1,6,-1,11,63,3,-3
-10,-4,6,6,-8,1,5,-1,10,63,2,-4
-10,-3,6,6,-8,1,5,-1,10,63,2,-4
-9,-3,7,5,-8,2,5,0,10,63,2,-4
-9,-2,8,5,-9,3,5,0,10,63,2,-4
-10,-2,9,6,-9,3,5,0,10,63,2,-4
-9,-4,6,6,-8,1,4,0,9,63,2,-4
-8,-5,3,6,-6,0,5,0,9,63,2,-4
-6,-4,1,5,-4,0,5,0,9,64,2,-4
-4,-2,1,3,-4,0,5,0,9,64,2,-4
-4,-2,2,3,-4,1,5,-1,9,64,2,-4
-5,-3,3,4,-4,0,5,-1,10,65,2,-4
-5,-4,2,5,-4,0,5,-1,10,65,3,-3
-4,-4,1,4,-2,0,6,-1,11,66,3,-3
-3,-4,-1,4,-1,-2,5,-1,10,65,2,-4
-2,-5,-3,4,0,-3,5,-2,9,65,1,-5
-1,-4,-3,3,0,-3,6,-1,9,65,2,-4
0,-3,-4,1,2,-3,5,-1,8,65,2,-4
1,-2,-4,0,2,-3,3,-2,7,65,1,-5
-2,-3,0,2,-1,-2,3,-2,8,65,2,-4
-6,-3,4,4,-5,0,4,-1,9,67,3,-2
-6,-1,5,3,-5,1,5,0,10,69,4,-1
-3,0,5,1,-4,2,5,0,10,69,4,-1
-3,0,4,1,-3,2,4,0,10,69,3,-2
-5,-1,4,3,-4,1,3,0,10,68,2,-3
-6,-1,4,4,-5,2,3,0,10,68,2,-3
-6,-1,4,3,-5,1,3,0,10,68,2,-3
-5,-1,3,3,-4,1,2,0,10,68,2,-4
-7,-2,5,4,-6,1,2,0,11,68,2,-4
-9,-2,7,6,-8,2,3,1,12,69,3,-3
-10,-3,7,6,-8,1,4,2,12,70,3,-3
-8,-3,5,6,-7,0,4,2,12,70,3,-3
-7,-2,5,5,-6,1,4,2,12,70,2,-3
-7,-1,6,4,-7,2,5,2,13,71,2,-2
-7,-1,6,3,-7,3,5,2,14,72,2,-2
-6,-1,4,3,-5,2,5,1,14,72,2,-2
-5,-2,2,3,-4,0,5,0,14,72,1,-2
-5,-2,3,4,-5,1,5,0,14,72,1,-2
-7,0,6,4,-7,3,5,0,14,73,0,-2
-8,1,9,4,-9,5,5,0,13,73,0,-2
-8,2,10,3,-9,6,5,1,13,73,0,-2
-8,2,9,3,-9,6,5,0,13,73,0,-2
-7,1,7,3,-7,4,5,0,13,73,0,-2
-5,0,5,2,-5,3,5,0,13,73,0,-2
-4,0,4,2,-4,2,5,1,13,74,0,-2
-3,0,3,2,-3,1,5,1,13,75,0,-1
-5,-1,3,4,-4,1,5,2,12,75,0,-1
-7,-3,4,6,-6,0,6,2,12,76,0,-1
-7,-3,3,6,-5,0,6,3,13,77,0,0
-5,-2,2,4,-3,0,6,3,14,78,1,0
-3,-1,1,2,-2,0,6,3,14,79,0,0
-2,-1,0,1,-1,0,5,4,13,79,0,0
-2,0,1,1,-2,0,5,4,13,79,0,0
-3,0,3,1,-3,1,4,4,12,79,-1,0
-3,1,5,1,-4,2,4,4,12,79,-1,-1
-5,3,8,1,-6,5,4,3,11,79,-1,-1
-5,4,10,1,-8,7,3,3,12,79,-1,-2
-4,5,10,0,-7,7,3,3,13,79,-2,-2
-2,5,7,-1,-4,6,3,2,13,79,-2,-2
2,4,2,-3,0,3,2,1,12,79,-3,-3
3,4,1,-3,0,2,2,1,13,79,-2,-2
0,4,5,-2,-3,4,4,3,14,80,-1,-1
-3,4,8,0,-6,5,5,4,16,81,0,0
-3,4,9,0,-6,6,6,4,17,82,1,1
-2,5,8,-1,-5,6,7,5,18,82,2,2
-1,5,8,-2,-5,6,7,5,18,82,2,3
-2,6,9,-2,-5,7,5,4,18,81,1,2
-2,7,10,-2,-6,8,4,4,18,81,1,2
-2,9,11,-3,-6,9,3,4,18,81,1,2
-3,9,12,-3,-7,10,3,4,19,81,1,3
-3,8,12,-2,-8,9,2,3,19,80,1,2
-4,7,11,-1,-8,8,1,2,18,79,1,2
-3,6,10,-1,-7,8,0,2,17,78,0,2
-3,5,9,-1,-6,8,0,2,17,78,1,2
-4,5,9,0,-6,7,0,2,17,78,1,3
-1,6,7,-2,-4,7,0,1,16,77,1,3
2,7,5,-4,-1,6,-1,0,15,76,0,2
2,8,5,-5,-1,6,-2,0,15,76,0,2
3,7,5,-5,-1,6,-2,1,15,76,0,2
4,7,4,-5,0,5,-2,2,15,76,0,2
3,7,3,-5,0,5,-2,2,14,75,0,1
3,6,2,-4,1,4,-3,1,14,74,-1,1
4,5,0,-4,2,3,-3,1,14,74,0,1
4,3,-1,-3,2,1,-3,1,14,74,0,2
3,1,-2,-2,3,0,-3,2,13,74,0,2
4,0,-3,-2,4,-2,-3,2,12,73,0,2
5,0,-4,-3,5,-2,-4,1,11,73,0,1
6,0,-5,-3,6,-3,-4,1,10,72,-1,1
7,1,-5,-4,6,-2,-4,2,9,71,-1,1
6,1,-4,-3,5,-1,-4,3,10,72,-1,1
4,1,-2,-3,3,0,-3,4,11,73,0,2
4,1,-2,-3,3,0,-2,5,11,73,1,3
4,1,-2,-3,3,0,-2,4,10,73,1,2
4,0,-3,-3,3,-1,-2,2,10,72,0,1
2,0,-2,-1,1,-1,-2,1,10,71,-1,1
0,-1,0,0,0,0,-1,1,10,70,-1,1
-2,-1,1,2,-1,0,0,1,10,70,-1,1
-3,-1,2,2,-2,0,0,1,9,69,-1,1
-3,0,3,1,-3,1,0,1,9,68,-2,1
-2,0,3,0,-2,1,0,1,8,67,-2,0
0,1,2,-1,-1,1,0,0,7,67,-3,0
2,1,0,-2,1,0,-1,-2,6,66,-3,0
3,0,-2,-2,3,-2,-1,-4,5,65,-4,-1
4,0,-3,-1,3,-3,-1,-5,3,64,-4,-1
3,-1,-4,-1,3,-3,0,-5,3,64,-4,-1
3,-1,-3,0,3,-3,0,-4,4,63,-4,-2
1,-2,-2,1,1,-3,0,-4,4,63,-4,-2
-1,-3,-1,2,0,-3,0,-4,5,62,-4,-2
-3,-3,0,3,-1,-2,1,-4,5,63,-3,-2
-4,-3,1,3,-2,-1,1,-4,5,63,-3,-2
-4,-3,0,3,-2,-1,1,-5,5,62,-4,-2
-3,-4,0,4,-1,-2,1,-4,6,61,-4,-3
-5,-5,0,5,-2,-3,2,-4,6,61,-4,-3
-6,-5,2,5,-4,-2,3,-4,6,61,-4,-4
-7,-4,3,5,-5,-2,4,-4,6,60,-4,-4
-7,-5,3,6,-5,-2,4,-4,6,60,-5,-4
-9,-7,3,8,-6,-2,5,-4,6,59,-5,-4
-12,-9,3,10,-7,-3,6,-4,6,59,-5,-4
-12,-9,2,10,-7,-3,7,-3,6,59,-5,-4
-9,-9,0,9,-4,-4,7,-3,6,58,-5,-4
-5,-9,-4,7,0,-6,6,-4,5,57,-6,-5
-3,-9,-6,6,1,-7,5,-5,4,56,-7,-6
-2,-9,-6,5,2,-8,5,-5,4,56,-7,-6
-2,-9,-6,5,2,-8,5,-5,4,56,-7,-6
-2,-8,-6,5,2,-7,5,-5,4,56,-7,-6
-4,-9,-4,6,0,-6,5,-5,4,55,-7,-6
-6,-9,-3,7,-1,-6,4,-5,4,55,-7,-6
-7,-9,-2,8,-2,-5,4,-5,5,55,-7,-6
-8,-9,-1,9,-4,-5,4,-5,5,55,-7,-7
-9,-9,0,9,-4,-5,4,-5,5,55,-7,-7
-7,-9,-1,8,-3,-5,4,-4,5,54,-7,-7
-5,-8,-2,6,-2,-5,3,-5,4,54,-8,-7
-5,-7,-1,5,-2,-5,3,-5,4,53,-8,-8
-7,-7,0,7,-3,-4,3,-5,4,53,-8,-7
-8,-8,0,8,-4,-4,3,-5,4,53,-7,-7
-8,-7,0,8,-4,-4,4,-5,5,53,-7,-7
-9,-7,1,8,-5,-3,4,-5,5,52,-7,-7
-11,-8,2,10,-6,-3,4,-5,5,52,-7,-6
-12,-9,3,10,-8,-3,4,-4,5,52,-7,-6
-12,-9,2,10,-7,-3,3,-4,5,52,-6,-5
-11,-9,2,9,-6,-3,3,-3,5,52,-6,-5
-11,-9,2,9,-7,-3,3,-3,6,53,-5,-4
-11,-9,3,9,-7,-3,3,-2,6,53,-5,-4
-11,-9,2,9,-6,-3,3,-3,6,52,-5,-4
-9,-10,-1,9,-4,-5,2,-4,5,50,-6,-5
-7,-9,-4,9,-2,-7,2,-5,4,50,-7,-6
-5,-8,-3,7,-1,-6,2,-5,3,49,-7,-6
-5,-7,-2,6,-1,-5,1,-6,3,48,-8,-7
-5,-7,-1,6,-2,-4,1,-7,2,48,-8,-7
-6,-8,-1,6,-2,-4,1,-7,2,48,-8,-7
-6,-9,-2,7,-2,-4,1,-7,3,48,-8,-6
-5,-9,-3,7,-2,-5,1,-7,3,47,-8,-6
-5,-9,-3,7,-2,-5,1,-6,3,47,-8,-6
-5,-8,-3,7,-2,-5,1,-5,3,47,-7,-6
-6,-9,-3,7,-2,-5,2,-4,4,47,-7,-6
-7,-10,-2,9,-3,-6,2,-3,5,47,-6,-6
-9,-10,0,9,-5,-5,2,-3,5,47,-6,-5
-10,-8,3,9,-7,-2,1,-3,5,47,-6,-5
-10,-7,4,7,-7,-1,0,-4,4,46,-6,-6
-9,-7,3,7,-6,-1,0,-4,4,46,-6,-6
-9,-7,2,8,-6,-2,0,-4,4,47,-5,-5
-8,-7,0,7,-5,-3,0,-3,5,48,-4,-4
-6,-5,0,6,-4,-3,1,-2,5,48,-3,-3
-5,-4,0,5,-3,-2,1,-1,5,48,-2,-3
-6,-5,0,5,-4,-2,0,-2,4,47,-3,-3
-8,-7,0,7,-5,-3,-1,-2,4,46,-4,-4
-9,-8,1,8,-6,-3,-1,-2,4,45,-4,-4
-10,-8,2,8,-6,-2,-1,-2,4,45,-4,-4
-10,-7,3,8,-7,-1,-1,-3,4,45,-4,-4
-12,-8,3,9,-8,-2,-1,-4,4,44,-5,-4
-12,-8,3,10,-8,-3,-2,-5,3,43,-5,-5
-11,-9,1,10,-7,-4,-2,-5,3,42,-6,-6
-8,-9,-1,10,-4,-5,-2,-5,3,42,-6,-7
-5,-10,-4,8,-1,-7,-2,-3,3,42,-6,-7
-1,-9,-6,6,2,-7,-3,-2,3,41,-7,-7
2,-8,-8,3,4,-7,-3,0,3,41,-7,-7
2,-6,-8,1,5,-7,-3,3,4,42,-6,-7
2,-6,-7,2,4,-7,-4,7,6,44,-3,-5
3,-5,-8,1,5,-7,-5,12,9,48,0,-2
8,-2,-11,-3,9,-7,-8,18,14,54,6,2
15,1,-14,-8,14,-7,-10,25,20,63,13,9
23,3,-20,-13,21,-7,-13,33,27,73,23,18
34,6,-27,-20,30,-10,-17,41,34,85,34,27
47,10,-35,-28,41,-12,-20,47,41,96,44,36
60,16,-42,-38,51,-12,-25,50,46,105,53,44
74,24,-49,-49,62,-12,-30,50,46,113,61,51
87,32,-54,-60,70,-11,-35,47,44,120,68,58
95,40,-55,-68,75,-8,-38,42,38,125,74,65
98,46,-51,-72,75,-3,-40,29,29,127,79,71
95,50,-44,-72,70,2,-44,6,14,125,80,75
86,51,-35,-68,60,8,-48,-27,-7,117,75,76
74,49,-24,-61,49,13,-53,-68,-33,103,66,72
61,46,-13,-54,37,17,-56,-109,-60,84,53,65
47,43,-3,-45,24,20,-58,-144,-83,63,38,55
32,40,7,-36,12,23,-58,-170,-101,44,23,45
19,37,16,-28,1,26,-55,-185,-111,29,10,35
8,31,21,-19,-6,25,-53,-190,-116,16,-1,25
-1,18,19,-8,-10,18,-50,-187,-118,4,-14,12
-4,4,8,0,-6,6,-47,-177,-117,-6,-25,0
-1,-8,-5,4,2,-5,-45,-162,-112,-12,-33,-9
1,-15,-15,7,8,-14,-42,-143,-103,-13,-36,-14
2,-19,-20,8,11,-18,-40,-124,-92,-12,-36,-17
3,-18,-21,7,12,-20,-38,-106,-80,-9,-35,-17
2,-16,-19,7,10,-18,-34,-89,-67,-5,-32,-17
0,-13,-13,7,6,-13,-30,-74,-54,1,-27,-14
-2,-9,-6,6,2,-8,-27,-62,-43,8,-23,-11
-3,-5,-1,4,-1,-2,-24,-52,-34,13,-19,-9
-3,-2,2,3,-3,1,-20,-43,-27,18,-16,-7
-4,-1,3,2,-3,2,-17,-34,-20,22,-13,-5
-5,-2,3,3,-4,2,-13,-25,-14,25,-10,-4
-7,-2,4,4,-6,2,-9,-16,-7,27,-7,-2
-8,-3,5,5,-7,1,-7,-9,-3,29,-6,-2
-6,-3,3,5,-5,0,-6,-5,0,29,-6,-3
-3,-4,0,4,-2,-2,-7,-3,1,28,-6,-4
-3,-5,-1,4,-1,-2,-7,-2,2,28,-6,-4
-4,-5,0,4,-2,-1,-7,-1,3,29,-6,-4
-4,-5,0,3,-2,0,-7,-1,3,30,-6,-4
-4,-5,0,3,-2,-1,-6,-1,4,29,-5,-4
-5,-5,1,3,-3,-1,-5,0,5,29,-5,-3
-8,-4,4,5,-6,0,-4,1,6,29,-4,-3
-10,-3,5,5,-8,1,-3,3,7,29,-4,-2
-8,-3,4,5,-7,0,-2,4,8,29,-4,-2
-7,-5,2,6,-5,-1,-2,4,8,29,-4,-2
-7,-7,-1,7,-3,-3,-2,4,8,29,-3,-2
-4,-8,-4,6,0,-5,-2,3,8,29,-3,-2
0,-8,-7,3,3,-6,-3,3,8,29,-4,-2
2,-6,-8,1,5,-6,-4,2,7,27,-5,-4
1,-5,-6,1,3,-5,-5,2,6,25,-5,-5
-1,-4,-2,2,0,-4,-6,2,6,25,-5,-5
-3,-4,-1,4,-2,-3,-6,3,7,25,-5,-4
-4,-5,-1,5,-2,-4,-5,3,7,25,-4,-3
-5,-6,-1,5,-2,-4,-5,4,8,26,-4,-2
-6,-6,-1,6,-2,-4,-4,5,8,26,-3,-2
-5,-7,-2,6,-1,-4,-4,5,8,26,-3,-2
-4,-7,-4,6,0,-5,-4,6,8,26,-4,-2
-4,-8,-4,6,0,-6,-4,6,8,25,-4,-2
-4,-8,-4,6,-1,-6,-4,6,8,25,-4,-2
-2,-7,-5,5,0,-7,-5,6,8,23,-4,-3
-1,-7,-6,5,2,-7,-6,5,7,22,-5,-3
0,-7,-7,4,3,-7,-7,4,7,22,-5,-3
1,-6,-7,2,5,-6,-6,4,7,22,-5,-3
1,-5,-5,1,3,-4,-5,4,7,22,-4,-3
-4,-5,0,4,-1,-2,-3,6,8,23,-3,-1
-8,-7,1,7,-5,-2,-2,7,8,24,-3,-1
-10,-8,2,9,-6,-3,-2,7,8,23,-3,-1
-9,-8,1,9,-5,-4,-3,7,9,22,-4,-1
-7,-7,0,7,-4,-3,-3,7,9,21,-4,-1
-6,-6,1,6,-3,-2,-3,8,9,21,-4,-1
-7,-6,1,6,-4,-2,-3,9,9,21,-4,-1
-7,-7,1,7,-3,-2,-2,10,10,21,-3,-1
-6,-7,0,7,-2,-3,-2,10,10,21,-3,0
-5,-7,-2,7,-1,-4,-2,10,10,20,-3,0
-5,-7,-2,7,-1,-4,-3,9,10,19,-4,-1
-4,-7,-2,6,0,-5,-4,8,9,18,-4,-2
-2,-6,-3,5,1,-5,-5,8,9,18,-4,-2
-2,-5,-2,4,1,-4,-5,9,10,18,-3,-1
-2,-4,-1,4,0,-3,-5,10,10,18,-3,0
-2,-5,-2,4,0,-3,-5,10,10,18,-3,-1
-2,-7,-4,4,1,-5,-6,9,8,16,-4,-2
-2,-7,-5,4,1,-5,-6,9,8,15,-5,-2
-1,-5,-4,3,1,-4,-6,10,8,16,-4,-2
-2,-4,-2,3,0,-3,-5,12,9,17,-3,-1
-2,-4,-1,3,0,-3,-5,12,9,17,-2,0
-1,-4,-3,2,1,-4,-6,12,9,16,-2,0
0,-4,-4,2,2,-4,-6,12,9,16,-2,0
0,-4,-4,2,2,-4,-6,12,9,16,-2,0
1,-4,-5,2,3,-5,-7,11,9,15,-3,-1
0,-4,-5,2,2,-4,-8,10,8,13,-4,-2
0,-5,-5,2,2,-4,-8,9,7,12,-4,-3
0,-4,-5,2,3,-4,-9,9,7,12,-4,-3
1,-4,-5,1,3,-4,-9,9,7,12,-4,-2
0,-4,-5,2,3,-5,-8,10,8,12,-3,-2
-2,-5,-3,3,1,-4,-8,11,9,12,-3,-1
-1,-4,-3,2,1,-4,-8,11,8,11,-3,-2
0,-2,-2,0,1,-2,-8,11,8,11,-4,-2
0,0,0,0,0,0,-7,13,9,11,-3,-2
0,0,0,0,0,0,-7,14,10,12,-2,-1
0,0,-1,0,0,-1,-7,14,9,12,-2,-1
0,-1,-1,0,0,-1,-8,13,9,11,-2,-1
-1,-1,0,0,0,-1,-8,13,9,11,-2,-1
-1,-2,0,1,0,-1,-8,13,9,11,-1,0
-2,-3,0,2,-1,-2,-9,14,9,11,-1,0
-3,-3,0,2,-2,-2,-8,15,10,12,0,1
-3,-3,0,3,-2,-1,-8,17,11,13,1,2
-3,-3,0,3,-2,-2,-7,18,12,13,1,3
-1,-3,-2,2,0,-3,-8,19,12,13,1,3
2,-2,-4,0,3,-3,-9,19,12,12,1,2
3,-1,-4,-1,3,-3,-9,19,12,13,2,3
1,0,-2,0,1,-1,-8,21,13,14,3,4
-1,-1,0,0,0,-1,-8,22,14,14,3,4
0,0,0,0,0,-1,-9,22,14,14,3,4
1,2,0,-2,0,0,-10,21,13,13,3,3
2,4,2,-3,0,3,-11,22,12,12,2,2
1,4,2,-2,-1,3,-11,23,12,12,3,3
2,3,0,-2,0,2,-11,24,13,12,3,3
3,2,-2,-2,2,0,-11,24,13,12,3,4
3,1,-2,-2,3,0,-11,25,14,13,3,4
2,1,-1,-1,2,0,-11,25,15,13,4,5
2,1,-1,-2,2,0,-11,25,15,13,5,6
4,1,-2,-3,3,0,-11,25,15,13,5,6
6,2,-3,-5,4,0,-12,25,16,13,5,6
7,2,-4,-5,5,0,-12,26,16,13,6,7
7,2,-5,-5,6,0,-12,27,16,14,6,8
7,2,-5,-4,6,-1,-13,28,16,14,7,8
7,3,-4,-5,6,0,-13,29,16,14,7,8
8,4,-4,-6,6,0,-14,29,15,14,7,8
8,5,-4,-6,6,0,-14,29,15,15,7,9
8,5,-3,-6,6,0,-15,30,16,15,8,9
8,5,-3,-6,6,1,-15,31,16,15,9,10
9,6,-3,-7,6,2,-15,31,16,15,10,10
10,7,-2,-9,6,3,-16,32,17,15,10,10
11,8,-2,-9,6,3,-16,32,18,16,11,11
10,7,-2,-8,6,3,-15,33,19,16,12,12
8,7,-2,-8,5,3,-15,33,19,17,12,13
8,7,-1,-8,5,3,-15,33,19,17,12,13
9,8,-1,-9,5,3,-16,33,19,17,12,14
9,8,0,-9,5,4,-16,33,19,17,13,14
8,8,0,-9,4,5,-17,33,19,17,13,14
9,8,0,-9,4,4,-17,33,19,17,13,13
11,9,-1,-10,5,4,-17,31,18,16,12,13
13,11,-1,-12,6,5,-18,30,17,16,12,12
15,13,-1,-14,7,5,-19,30,16,15,11,12
15,14,-1,-14,8,5,-20,29,16,14,11,12
14,13,-1,-14,8,5,-21,29,15,14,11,12
17,13,-4,-15,11,4,-22,28,15,13,11,11
20,12,-8,-17,14,2,-23,27,14,13,10,10
22,12,-10,-17,16,1,-23,27,14,13,10,10
20,11,-9,-16,14,1,-22,28,15,13,11,11
16,11,-6,-13,10,2,-20,29,16,15,13,13
12,11,-2,-11,7,3,-19,31,18,16,15,15
11,11,-1,-10,6,4,-19,31,18,16,15,16
12,10,-2,-11,7,3,-19,30,18,16,15,16
13,10,-4,-11,8,3,-20,29,17,15,14,15
14,10,-3,-12,8,3,-20,29,17,15,14,14
13,11,-1,-12,7,5,-20,28,16,15,14,14
12,11,0,-12,6,6,-20,27,15,14,14,14
12,11,-1,-12,6,5,-21,26,14,13,13,13
11,10,-1,-12,6,4,-21,25,14,12,13,13
11,10,-1,-11,6,4,-21,24,13,12,13,14
11,11,0,-11,6,4,-20,22,13,12,13,14
9,11,1,-10,4,6,-18,21,14,12,14,15
7,11,3,-9,2,7,-17,20,14,12,14,15
7,10,3,-9,2,7,-17,18,14,12,13,14
9,10,2,-9,4,6,-17,17,13,11,13,14
9,10,1,-9,4,6,-17,15,12,10,12,13
9,9,0,-9,5,4,-18,14,11,8,11,12
8,6,-2,-7,5,2,-18,12,10,7,10,11
8,5,-3,-6,6,0,-18,11,9,6,9,10
8,5,-3,-7,6,0,-18,11,8,5,9,10
7,4,-2,-6,5,1,-19,10,7,4,8,9
4,3,-1,-4,3,1,-19,10,6,3,8,8
2,1,0,-2,1,0,-18,10,6,3,7,8
0,0,0,0,0,0,-17,9,6,2,7,8
1,1,0,-1,1,0,-16,8,6,2,7,8
4,3,-1,-4,2,1,-15,7,7,1,7,8
5,3,-2,-4,3,0,-14,6,7,1,6,8
5,1,-3,-3,3,-1,-14,6,6,0,5,7
5,1,-3,-3,4,-2,-14,6,5,0,5,6
5,1,-3,-3,4,-2,-14,5,5,-1,4,5
4,1,-2,-2,3,-1,-14,5,5,-1,4,5
3,1,-1,-2,2,0,-13,4,5,-1,4,6
3,1,0,-2,1,0,-13,4,5,-1,4,6
1,1,0,-1,0,0,-13,3,4,-2,3,5
0,0,1,0,-2,1,-13,2,4,-3,2,4
0,0,2,0,-2,1,-13,3,3,-4,2,4
1,0,0,-1,0,0,-13,3,3,-4,1,3
1,0,0,-1,1,0,-13,3,2,-4,1,3
1,0,0,-1,1,0,-13,3,2,-5,1,3
2,1,0,-1,1,0,-12,3,2,-5,1,3
3,1,-1,-2,2,0,-13,1,1,-6,0,2
3,0,-3,-1,3,-2,-13,0,0,-8,-1,1
3,-4,-6,0,4,-5,-14,-3,-1,-10,-2,0
3,-5,-9,0,5,-7,-15,-4,-2,-11,-4,-1
4,-4,-9,-1,6,-6,-14,-4,-2,-11,-4,-1
4,-2,-7,-1,5,-4,-14,-3,-1,-10,-3,-1
3,-2,-5,0,4,-3,-13,-3,-1,-9,-2,0
2,-2,-4,0,3,-2,-13,-2,-1,-8,-2,0
1,-2,-3,0,1,-2,-13,-2,-1,-8,-2,0
0,-2,-3,0,1,-2,-13,-1,-1,-9,-2,0
0,-4,-4,1,1,-4,-13,-1,-1,-9,-3,0
0,-6,-6,2,2,-6,-13,-1,-1,-10,-3,0
0,-5,-6,2,2,-5,-12,-1,-1,-10,-3,0
0,-4,-4,1,1,-4,-12,0,0,-9,-2,1
0,-4,-3,2,1,-4,-11,0,0,-9,-1,1
-1,-4,-3,3,1,-4,-11,0,0,-9,-1,1
-2,-3,-1,3,0,-3,-11,0,0,-10,-1,1
-2,-1,1,2,-2,0,-10,0,0,-10,-1,1
-2,0,2,1,-3,1,-10,0,1,-10,-1,1
-1,0,1,0,-2,1,-10,0,1,-10,-1,1
-2,-1,0,1,-2,0,-10,0,1,-9,-1,1
-3,-4,0,3,-2,-2,-10,1,2,-9,0,1
-3,-5,-2,4,-1,-4,-11,0,1,-9,-1,1
0,-6,-5,3,2,-6,-12,0,0,-11,-2,0
2,-5,-8,2,5,-7,-13,-1,0,-12,-3,-1
4,-5,-10,1,7,-8,-14,-2,-1,-12,-4,-1
5,-5,-11,0,7,-8,-14,-3,-1,-13,-5,-2
3,-4,-8,0,4,-6,-14,-3,-1,-13,-5,-1
-2,-3,-1,2,-1,-3,-12,-2,0,-12,-3,0
-5,-3,2,3,-5,-1,-11,-2,1,-12,-3,0
-5,-2,3,3,-5,0,-11,-3,0,-12,-4,0
-5,-2,2,3,-4,0,-11,-2,0,-13,-4,0
-4,-2,1,3,-2,0,-11,-1,0,-13,-4,0
-3,-2,0,2,-1,0,-11,0,1,-12,-3,1
-3,-2,0,2,-2,0,-10,0,2,-12,-2,2
-3,-3,0,3,-2,-1,-10,1,2,-12,-2,2
-3,-4,0,3,-2,-2,-11,0,2,-12,-2,2
-2,-4,-1,3,-1,-3,-12,0,1,-12,-2,2
-2,-4,-1,2,-1,-2,-12,0,1,-12,-2,2
-3,-4,0,3,-1,-2,-11,1,2,-12,-2,3
-4,-4,0,4,-2,-2,-11,2,2,-11,-2,3
-5,-5,1,5,-3,-2,-11,3,2,-11,-2,3
-5,-5,1,5,-3,-2,-11,4,2,-11,-2,3
-5,-4,2,5,-4,-1,-11,4,3,-11,-1,3
-5,-2,4,4,-6,0,-11,4,3,-10,0,4
-4,-1,4,2,-5,1,-11,3,3,-10,0,4
0,0,1,0,-1,0,-11,2,3,-10,-1,3
2,0,-1,-2,1,0,-12,1,2,-11,-2,2
0,-2,-2,0,1,-2,-13,0,2,-12,-3,1
-2,-4,-2,3,0,-3,-13,0,1,-13,-3,1
-3,-3,-1,3,-1,-2,-12,0,2,-13,-3,1
-2,-2,0,2,-1,-1,-12,1,2,-12,-3,2
-1,-2,-1,1,0,-2,-12,1,2,-13,-3,1
0,-4,-3,1,1,-3,-13,1,1,-14,-4,0
0,-4,-3,0,1,-4,-13,1,0,-15,-5,0
0,-3,-2,0,1,-3,-14,2,0,-15,-5,0
-2,-2,0,1,-1,-1,-14,2,1,-14,-4,0
-3,-1,2,2,-2,0,-14,3,2,-14,-3,1
-2,0,2,1,-2,1,-13,4,3,-13,-3,2
-2,0,1,1,-1,1,-12,5,4,-12,-2,2
-2,0,1,1,-2,0,-12,5,4,-12,-2,3
-2,0,2,1,-3,0,-12,5,3,-12,-2,3
-2,0,1,1,-2,0,-12,4,3,-13,-2,3
-1,-1,0,1,-1,-1,-12,4,3,-13,-2,2
-1,-2,-1,1,0,-2,-12,3,3,-14,-3,2
-2,-3,-2,2,0,-3,-13,1,3,-14,-3,1
-1,-4,-3,2,1,-4,-13,0,2,-15,-3,1
1,-3,-4,1,2,-4,-14,-1,2,-16,-4,1
3,-1,-5,0,3,-4,-15,-2,2,-16,-5,0
2,-1,-3,-1,2,-3,-14,0,3,-15,-4,1
0,-1,-1,0,0,-1,-13,1,3,-14,-3,2
0,0,0,-1,0,0,-13,1,3,-14,-2,2
2,2,0,-3,0,0,-13,2,2,-14,-2,2
4,3,0,-4,2,1,-13,2,3,-14,-2,2
4,4,0,-4,2,2,-13,3,4,-14,-2,2
2,4,2,-3,0,3,-13,3,4,-14,-2,2
0,5,4,-3,-2,4,-12,4,5,-13,-1,3
-1,5,6,-2,-4,6,-11,5,6,-12,0,3
-2,5,8,-2,-5,6,-11,5,7,-12,0,3
-2,4,7,-2,-5,6,-11,4,7,-11,0,3
-1,4,7,-2,-4,6,-11,4,7,-11,0,4
-1,5,7,-3,-4,7,-11,4,7,-10,1,5
0,6,7,-3,-4,7,-11,5,8,-9,2,6
1,8,6,-4,-2,7,-11,4,8,-9,2,6
4,9,4,-6,0,7,-13,3,7,-11,0,4
6,9,3,-7,0,6,-16,1,6,-12,-1,3
4,7,3,-5,0,5,-17,0,5,-13,-1,2
2,6,4,-4,-2,5,-17,1,5,-12,-1,2
3,6,4,-5,-1,5,-17,2,5,-12,0,3
4,5,1,-6,1,4,-17,3,5,-12,0,4
4,4,0,-5,2,2,-17,4,6,-12,0,4
5,3,-2,-4,4,0,-18,3,6,-12,0,4
7,3,-4,-4,5,-1,-19,2,5,-12,0,4
8,3,-6,-5,7,-2,-20,1,4,-13,-1,3
9,3,-7,-6,7,-2,-20,0,4,-14,-2,2
10,2,-8,-7,9,-3,-21,0,3,-14,-2,1
12,2,-10,-7,11,-4,-22,0,2,-15,-2,1
11,2,-10,-7,10,-3,-21,0,2,-14,-2,2
9,2,-7,-6,8,-2,-20,1,2,-13,-1,3
9,3,-7,-6,8,-2,-20,1,2,-13,-1,3
10,2,-8,-5,9,-3,-21,1,1,-13,-1,3
8,0,-9,-3,8,-4,-21,0,1,-14,-1,3
7,0,-8,-3,7,-4,-21,0,0,-14,-1,3
9,2,-7,-5,7,-2,-21,0,0,-14,0,3
10,3,-7,-7,8,-1,-21,0,0,-14,0,3
10,3,-7,-6,8,-2,-21,0,-1,-14,-1,3
8,1,-7,-4,7,-2,-21,-1,-2,-15,-2,2
6,0,-6,-3,6,-3,-21,-1,-2,-16,-3,2
6,-1,-7,-2,7,-4,-21,-1,-3,-16,-3,1
7,-2,-9,-2,8,-5,-22,-2,-4,-17,-4,0
8,-2,-10,-2,8,-6,-22,-2,-5,-18,-5,0
7,-1,-9,-3,7,-5,-22,-2,-5,-18,-4,0
6,0,-7,-3,6,-4,-21,-1,-4,-18,-4,0
5,0,-6,-2,5,-3,-20,-1,-4,-17,-4,0
3,0,-4,-1,3,-2,-19,-2,-5,-17,-5,0
1,0,-2,-1,2,-1,-19,-2,-5,-17,-5,0
1,0,-2,0,1,-1,-18,-2,-4,-16,-4,1
0,-1,-2,0,1,-1,-17,-3,-4,-17,-5,0
0,-2,-3,1,1,-2,-17,-4,-4,-18,-5,0
0,-3,-4,1,2,-3,-17,-4,-4,-19,-6,-1
0,-4,-5,2,2,-4,-16,-4,-4,-19,-6,-1
-1,-5,-4,3,1,-4,-15,-3,-4,-18,-6,0
-3,-5,-2,4,-1,-3,-13,-3,-3,-18,-6,0
-3,-4,-1,3,-1,-2,-13,-3,-3,-18,-6,0
-1,-3,-3,2,1,-3,-14,-5,-4,-19,-7,-1
2,-4,-6,1,3,-4,-14,-6,-5,-20,-8,-2
3,-4,-7,1,5,-5,-14,-7,-5,-21,-9,-3
3,-3,-8,0,5,-5,-15,-9,-6,-21,-9,-4
3,-2,-6,0,4,-4,-14,-10,-6,-22,-10,-5
0,-3,-4,1,1,-3,-14,-11,-6,-22,-10,-5
-2,-4,-2,3,0,-3,-13,-11,-6,-22,-10,-5
-4,-6,-1,5,-2,-3,-12,-12,-6,-22,-10,-5
-5,-6,-1,5,-2,-4,-11,-12,-5,-21,-9,-4
-5,-7,-1,6,-2,-4,-10,-11,-5,-21,-9,-4
-6,-8,-2,7,-2,-5,-10,-10,-5,-21,-9,-4
-7,-9,-2,8,-2,-6,-9,-9,-5,-20,-9,-4
-7,-10,-3,8,-2,-7,-9,-8,-4,-20,-8,-4
-8,-11,-3,9,-2,-7,-9,-8,-5,-20,-8,-4
-7,-12,-5,9,-1,-9,-10,-8,-5,-20,-8,-4
-4,-12,-8,8,2,-10,-11,-8,-6,-21,-9,-4
-3,-13,-10,7,4,-11,-11,-9,-7,-21,-9,-5
-3,-12,-9,7,3,-10,-11,-9,-7,-21,-9,-5
-3,-10,-7,7,2,-8,-11,-8,-7,-21,-9,-5
-3,-8,-5,6,1,-6,-11,-9,-6,-21,-10,-5
-4,-7,-3,6,0,-4,-11,-9,-6,-21,-10,-4
-6,-6,1,6,-4,-2,-10,-9,-5,-21,-9,-4
-7,-5,2,6,-5,-1,-10,-8,-4,-20,-9,-4
-5,-5,0,5,-2,-3,-10,-9,-5,-21,-10,-4
-2,-6,-4,4,1,-5,-11,-10,-6,-22,-10,-5
-2,-7,-5,4,2,-7,-11,-10,-6,-22,-10,-5
-3,-7,-4,6,0,-7,-10,-10,-6,-21,-10,-5
-5,-8,-3,7,-1,-6,-10,-9,-5,-21,-10,-5
-6,-8,-1,7,-2,-6,-9,-10,-5,-21,-10,-5
-7,-7,0,7,-3,-5,-9,-11,-5,-21,-10,-5
-7,-7,0,7,-3,-4,-9,-12,-5,-21,-10,-5
-7,-7,-1,7,-2,-4,-9,-12,-5,-21,-10,-5
-5,-7,-2,6,-1,-4,-9,-12,-5,-21,-11,-6
-3,-6,-3,5,0,-4,-9,-12,-6,-21,-11,-6
-3,-6,-3,5,0,-4,-10,-12,-6,-22,-11,-7
-4,-7,-3,6,0,-5,-10,-12,-7,-22,-11,-7
-5,-9,-4,7,0,-7,-11,-12,-7,-22,-11,-7
-6,-11,-6,8,0,-8,-11,-12,-7,-22,-12,-6
-5,-11,-7,8,0,-9,-11,-12,-6,-22,-12,-6
-4,-11,-7,7,1,-9,-10,-12,-6,-21,-11,-6
-4,-11,-7,7,1,-9,-10,-13,-6,-20,-11,-6
-5,-10,-5,7,0,-8,-9,-13,-6,-19,-10,-5
-5,-9,-4,7,-1,-6,-8,-13,-6,-19,-10,-4
-5,-8,-2,7,-1,-5,-8,-12,-5,-19,-9,-4
-6,-8,-2,7,-2,-5,-8,-12,-5,-19,-9,-3
-5,-8,-3,7,-2,-5,-8,-11,-4,-18,-8,-3
-5,-8,-3,6,-2,-5,-7,-9,-4,-17,-8,-2
-6,-9,-3,7,-2,-6,-6,-8,-3,-17,-7,-2
-8,-10,-3,9,-3,-6,-7,-8,-4,-17,-8,-3
-10,-11,-1,10,-4,-6,-8,-9,-4,-17,-8,-3
-11,-10,0,10,-6,-5,-8,-9,-4,-17,-8,-3
-9,-10,-1,9,-4,-5,-9,-10,-4,-17,-9,-4
-7,-10,-3,8,-2,-7,-9,-10,-4,-18,-9,-4
-7,-10,-4,8,-2,-7,-9,-10,-4,-18,-10,-4
-6,-9,-3,8,-2,-7,-9,-8,-4,-17,-9,-4
-6,-8,-3,8,-2,-6,-8,-7,-3,-17,-9,-3
-7,-8,-2,8,-2,-5,-7,-6,-3,-17,-9,-3
-8,-9,-1,9,-3,-5,-7,-7,-3,-17,-9,-4
-9,-10,-1,10,-3,-6,-7,-8,-4,-18,-9,-4
-9,-10,-1,10,-3,-6,-7,-9,-4,-18,-9,-4
-7,-9,-1,8,-2,-5,-7,-10,-4,-18,-9,-4
-6,-7,-1,6,-2,-4,-7,-10,-4,-18,-10,-4
-6,-7,0,7,-3,-4,-7,-10,-4,-19,-10,-5
-6,-8,-1,7,-3,-5,-7,-8,-4,-19,-11,-5
-5,-8,-4,7,-1,-6,-7,-6,-4,-18,-10,-5
-4,-8,-5,6,0,-7,-7,-3,-3,-17,-9,-4
-4,-9,-5,6,0,-7,-6,0,-1,-15,-8,-3
-3,-10,-7,6,2,-8,-6,3,0,-12,-5,-1
0,-10,-10,5,6,-10,-8,5,1,-7,-1,2
7,-9,-15,1,11,-12,-11,9,4,0,4,7
16,-6,-22,-5,19,-14,-14,14,7,8,12,13
28,-1,-29,-13,28,-15,-18,20,12,18,22,22
40,5,-36,-22,38,-15,-23,26,17,28,32,31
51,10,-41,-30,46,-15,-29,32,22,39,41,40
62,17,-45,-40,54,-14,-35,37,27,50,51,49
74,27,-48,-51,62,-11,-39,41,31,60,62,58
84,35,-50,-60,67,-7,-41,42,33,70,71,68
88,40,-48,-64,68,-4,-42,39,31,76,78,75
88,44,-44,-66,66,-1,-44,30,25,77,82,80
87,47,-40,-67,63,3,-46,12,13,75,81,83
84,51,-34,-67,58,8,-47,-13,-2,67,77,83
75,53,-22,-63,49,15,-49,-48,-23,53,68,79
62,53,-9,-57,36,21,-53,-87,-48,35,54,71
49,52,2,-50,24,26,-55,-123,-70,15,39,61
34,50,15,-42,10,32,-54,-151,-88,-4,23,49
18,46,27,-33,-4,36,-52,-169,-100,-21,7,37
6,40,33,-23,-13,35,-48,-177,-108,-36,-6,25
-3,28,32,-13,-17,29,-43,-175,-111,-48,-18,13
-9,15,25,-3,-17,20,-39,-166,-112,-57,-29,1
-12,4,17,3,-15,11,-36,-154,-109,-63,-37,-8
-12,-2,10,7,-11,4,-35,-139,-104,-65,-41,-13
-11,-6,5,8,-8,0,-34,-121,-94,-62,-41,-15
-10,-7,2,8,-6,-2,-32,-104,-83,-57,-38,-15
-10,-8,1,9,-5,-3,-30,-88,-71,-52,-35,-14
-10,-7,3,8,-6,-2,-28,-74,-59,-46,-32,-13
-10,-4,5,7,-7,0,-26,-63,-48,-41,-28,-12
-10,-2,7,6,-8,2,-23,-53,-39,-35,-24,-10
-10,-2,8,6,-9,2,-19,-42,-31,-30,-19,-7
-10,-3,6,6,-8,1,-16,-33,-24,-26,-16,-5
-7,-3,3,5,-5,0,-13,-26,-20,-23,-14,-4
-6,-4,0,5,-3,-1,-11,-20,-15,-21,-13,-4
-6,-6,-1,6,-3,-3,-9,-14,-11,-19,-12,-4
-5,-8,-2,6,-1,-5,-8,-11,-9,-18,-12,-4
-4,-8,-3,5,0,-6,-8,-8,-7,-17,-11,-4
-3,-8,-4,5,0,-7,-8,-7,-6,-16,-11,-5
-2,-8,-6,4,1,-7,-8,-6,-6,-16,-11,-5
-2,-8,-5,4,1,-6,-7,-4,-5,-15,-11,-5
-4,-7,-2,5,-1,-4,-5,-2,-4,-14,-10,-4
-7,-6,1,6,-4,-2,-3,0,-2,-12,-8,-3
-8,-6,2,7,-5,-2,-3,0,-1,-12,-8,-3
-8,-6,1,7,-5,-2,-4,0,0,-13,-9,-3
-7,-6,1,7,-4,-3,-4,0,0,-13,-9,-4
-8,-7,1,8,-5,-3,-3,1,0,-13,-9,-4
-8,-6,1,7,-5,-2,-3,1,0,-13,-9,-4
-7,-6,0,6,-4,-2,-4,1,-1,-13,-9,-4
-7,-6,0,6,-4,-3,-3,2,-1,-13,-9,-4
-9,-7,0,7,-5,-3,-3,3,-1,-13,-9,-4
-12,-8,3,9,-7,-2,-2,4,0,-13,-9,-4
-13,-8,4,10,-9,-2,-1,5,0,-13,-9,-4
-12,-7,4,9,-9,-2,-1,5,0,-13,-9,-4
-10,-6,3,8,-7,-1,-1,5,0,-13,-10,-4
-7,-5,2,6,-5,-1,-2,4,0,-13,-10,-4
-4,-6,0,5,-2,-3,-2,4,0,-13,-10,-4
-4,-7,-2,5,-1,-4,-2,3,0,-14,-10,-5
-5,-7,-1,6,-2,-4,-2,4,0,-14,-10,-4
-7,-7,0,6,-3,-3,-1,3,0,-14,-10,-4
-7,-7,0,7,-3,-4,-2,3,0,-14,-10,-5
-6,-8,-1,7,-2,-4,-2,3,0,-13,-9,-5
-4,-7,-2,6,-1,-5,-2,4,1,-12,-9,-4
-2,-7,-4,5,0,-5,-2,4,1,-12,-9,-4
-2,-7,-4,5,0,-6,-2,5,1,-12,-9,-4
-3,-8,-4,6,0,-6,-2,5,0,-12,-9,-5
-3,-8,-5,6,0,-7,-2,5,0,-13,-9,-5
-4,-9,-5,6,0,-7,-2,5,0,-13,-9,-5
-3,-8,-5,5,1,-7,-2,6,0,-12,-9,-5
-2,-8,-6,5,1,-7,-2,6,0,-12,-9,-4
-1,-6,-5,4,2,-6,-3,5,0,-13,-9,-4
-1,-5,-4,3,1,-5,-3,5,0,-13,-10,-5
-2,-6,-4,4,0,-5,-3,5,0,-12,-10,-5
-3,-6,-3,4,-1,-4,-2,5,0,-12,-9,-5
-4,-5,-1,4,-2,-2,-1,5,0,-12,-9,-5
-5,-4,1,4,-4,-1,-1,5,0,-12,-9,-5
-6,-4,2,4,-5,0,-1,5,1,-11,-9,-5
-7,-5,2,5,-5,-1,-2,5,1,-11,-9,-5
-7,-6,0,6,-4,-3,-2,5,1,-11,-9,-5
-6,-7,0,6,-3,-4,-1,6,1,-11,-9,-5
-7,-7,0,7,-4,-4,-1,6,2,-10,-8,-5
-8,-8,0,7,-4,-3,-1,7,2,-10,-8,-4
-8,-7,0,7,-4,-3,-1,7,2,-10,-8,-4
-6,-7,-1,6,-3,-4,-1,7,1,-11,-8,-4
-5,-7,-3,6,-1,-5,-2,7,0,-12,-8,-5
-5,-6,-1,5,-1,-4,-2,6,0,-12,-9,-5
-5,-6,0,6,-2,-3,-2,7,0,-12,-9,-5
-6,-7,-1,7,-2,-4,-2,7,0,-12,-9,-5
-5,-9,-3,7,-1,-7,-2,8,0,-12,-9,-5
-4,-10,-6,7,0,-8,-2,8,1,-12,-8,-5
-4,-11,-6,7,1,-9,-2,8,1,-11,-8,-5
-5,-11,-5,7,0,-8,-2,8,1,-11,-9,-5
-6,-10,-3,7,-1,-7,-1,8,1,-11,-9,-5
-6,-8,-2,7,-1,-5,-1,8,2,-11,-8,-5
-4,-7,-2,5,0,-5,-1,7,2,-11,-8,-5
-2,-5,-3,4,1,-4,-1,7,1,-12,-9,-6
-1,-3,-2,2,0,-3,-1,7,0,-12,-9,-6
-2,-2,0,2,-2,0,-1,8,0,-12,-9,-6
-2,-1,1,1,-2,0,-1,8,0,-12,-8,-6
-2,-1,0,1,-2,0,-1,9,1,-11,-8,-5
-2,-2,0,1,-1,-1,-1,9,1,-10,-8,-5
-3,-3,0,3,-2,-1,-1,10,1,-10,-7,-4
-4,-4,0,4,-2,-1,-1,12,2,-9,-6,-3
-6,-5,0,6,-3,-2,-1,12,2,-8,-6,-3
-6,-6,0,7,-3,-3,-1,13,2,-7,-5,-2
-5,-6,0,5,-2,-3,-1,13,2,-6,-5,-2
-4,-5,0,4,-2,-2,-2,13,2,-6,-5,-2
-4,-3,1,3,-3,-1,-2,14,2,-6,-5,-2
-4,-1,3,2,-4,0,-2,15,3,-6,-4,-2
-2,-1,2,2,-2,0,-1,15,4,-5,-3,-1
0,-1,-1,2,0,-1,-2,14,4,-5,-3,-1
0,-2,-3,2,1,-2,-2,14,4,-5,-3,-1
1,-2,-3,2,2,-3,-2,14,4,-5,-3,-1
2,-2,-4,1,3,-3,-2,13,3,-5,-3,-1
2,-2,-5,0,3,-3,-3,12,3,-5,-4,-1
3,-3,-6,0,4,-4,-4,11,2,-6,-5,-2
4,-3,-7,0,5,-5,-5,11,2,-6,-5,-2
5,-2,-7,-1,6,-4,-4,12,3,-5,-3,0
4,0,-6,-1,5,-3,-3,13,4,-3,-1,1
3,0,-4,-1,4,-2,-2,14,5,-2,0,2
3,0,-3,-1,4,-1,-3,15,5,-2,0,2
3,0,-3,-1,3,-1,-3,15,5,-2,0,2
3,0,-3,-1,3,-1,-3,15,5,-1,0,2
3,0,-2,-2,3,0,-2,17,6,0,0,2
3,1,-2,-2,3,0,-2,18,7,0,1,3
3,2,-1,-2,2,0,-2,18,7,1,1,3
1,2,0,-1,0,2,-2,19,7,1,2,4
0,3,2,-1,-1,3,-2,20,8,2,3,4
2,4,1,-2,0,2,-3,20,7,2,2,4
4,4,0,-4,2,2,-5,20,6,1,2,4
5,3,-1,-4,3,1,-6,19,6,1,2,4
5,4,-1,-5,3,2,-6,20,6,2,2,4
6,4,-1,-5,3,2,-6,21,6,3,4,6
6,4,-2,-5,3,2,-5,21,7,3,4,7
6,4,-2,-5,4,1,-6,20,7,4,4,7
7,5,-2,-6,4,1,-7,19,6,4,4,6
8,6,-2,-7,5,2,-7,19,6,4,5,7
8,6,-1,-7,4,2,-7,20,7,6,6,8
9,7,-1,-8,4,3,-7,21,7,6,6,8
10,8,-1,-9,5,3,-7,21,6,6,6,8
10,8,-2,-9,6,3,-8,20,5,6,6,8
11,8,-3,-10,6,2,-10,18,4,5,6,8
11,8,-3,-10,6,2,-10,18,4,5,6,8
10,8,-2,-9,6,2,-9,19,5,6,7,9
9,8,-1,-9,5,3,-9,19,5,6,7,9
9,9,0,-9,4,4,-9,20,5,7,7,9
8,10,1,-9,3,5,-9,20,5,7,7,9
9,10,1,-9,3,5,-9,20,5,7,7,9
9,10,1,-9,3,6,-9,19,5,6,7,9
8,10,2,-8,2,6,-10,18,5,6,7,9
7,10,3,-8,2,7,-10,17,5,6,7,9
8,12,3,-10,2,7,-10,16,5,7,8,10
9,13,3,-11,3,7,-10,15,4,7,8,10
9,12,3,-11,3,7,-10,15,3,7,8,10
8,11,3,-9,3,6,-10,14,3,7,7,10
8,9,1,-8,4,4,-10,14,3,7,7,10
9,8,0,-8,5,3,-11,14,3,7,8,10
9,9,0,-9,5,4,-11,14,3,7,8,10
10,11,0,-10,5,5,-11,14,3,7,8,10
12,11,-1,-11,6,5,-11,14,2,7,8,10
13,11,-2,-12,7,4,-11,12,2,6,8,10
15,11,-4,-13,9,3,-11,11,1,5,7,9
14,9,-5,-11,9,2,-11,9,0,4,6,9
10,7,-3,-8,7,2,-10,8,0,4,6,8
6,5,0,-6,3,3,-9,7,0,4,6,9
4,5,1,-5,1,4,-9,7,0,4,6,9
5,6,1,-6,2,4,-9,7,0,4,5,8
7,8,0,-7,3,4,-9,7,0,4,5,8
8,8,0,-8,4,4,-9,6,0,3,4,7
8,7,-1,-8,5,3,-9,5,0,2,3,6
8,5,-2,-7,5,1,-10,4,-1,1,2,5
6,4,-1,-6,4,2,-9,3,-1,0,1,4
5,5,0,-5,2,3,-8,2,-1,0,1,4
4,5,1,-4,1,3,-7,2,-1,-1,1,4
1,3,2,-2,0,3,-6,2,0,-1,1,4
-1,2,3,0,-2,2,-5,2,0,-1,1,4
-3,1,4,1,-4,2,-5,2,-1,-1,1,4
-4,2,5,1,-5,3,-4,4,0,-1,1,4
-3,2,5,0,-4,3,-4,5,0,0,2,5
-1,3,4,0,-2,3,-4,4,0,-1,1,4
0,2,3,0,-1,3,-4,3,-1,-2,1,4
-1,2,3,0,-2,3,-4,3,-1,-2,1,3
-2,1,3,1,-2,2,-3,3,-1,-3,0,3
-3,1,3,1,-3,2,-3,2,-1,-4,0,2
-2,0,2,1,-2,1,-3,1,-2,-5,-2,0
-2,0,1,2,-2,0,-3,1,-2,-5,-2,0
-1,-1,0,1,-1,-1,-2,1,-1,-5,-2,0
0,0,0,1,0,0,-2,1,-1,-5,-2,0
-1,0,1,1,-1,0,-2,0,-2,-6,-2,0
-3,-1,2,2,-2,0,-1,0,-2,-6,-2,0
-3,-1,2,2,-2,0,-1,0,-2,-6,-2,0
-3,0,2,2,-2,0,-1,0,-2,-6,-3,0
-3,0,2,2,-2,0,-1,0,-3,-7,-4,0
-4,-1,2,2,-3,0,-1,0,-3,-7,-5,-1
-5,-2,2,3,-3,0,-1,0,-3,-8,-5,-2
-5,-3,2,4,-3,-1,-1,1,-3,-8,-6,-3
-5,-2,2,3,-3,0,0,1,-3,-9,-6,-3
-5,-1,4,2,-3,1,0,2,-3,-9,-5,-2
-4,0,4,2,-4,1,1,1,-3,-9,-5,-2
-4,-1,2,3,-3,0,1,0,-3,-9,-5,-2
-3,-2,0,3,-1,-2,0,0,-4,-10,-5,-2
-2,-3,-2,2,0,-3,-1,-1,-4,-10,-5,-3
-1,-2,-2,1,1,-2,-2,-2,-5,-11,-6,-4
0,-1,-2,0,1,-2,-2,-2,-5,-12,-7,-4
0,0,-1,0,0,0,-1,-1,-5,-11,-6,-4
-2,1,2,0,-2,2,0,0,-5,-10,-5,-3
-5,1,5,2,-5,3,0,0,-4,-10,-5,-3
-7,0,6,3,-6,3,0,0,-4,-11,-6,-3
-7,0,6,3,-6,2,1,0,-4,-11,-6,-3
-7,-2,5,4,-5,1,1,0,-3,-11,-6,-3
-9,-3,4,6,-6,0,1,-1,-3,-11,-6,-4
-10,-4,5,7,-7,0,1,-1,-2,-10,-5,-3
-9,-4,5,6,-7,0,2,-1,-2,-10,-5,-3
-8,-5,4,6,-6,0,1,-2,-2,-10,-5,-4
-7,-5,3,5,-4,0,1,-3,-3,-10,-6,-5
-6,-4,2,5,-3,0,0,-3,-4,-11,-6,-5
-5,-3,2,4,-3,0,1,-2,-4,-11,-6,-5
-3,-1,2,2,-3,0,1,-1,-3,-10,-6,-4
-2,-1,1,1,-2,0,1,0,-3,-11,-6,-4
-2,-2,0,2,-1,-1,1,0,-3,-11,-6,-4
-4,-4,0,4,-2,-2,1,0,-3,-10,-6,-3
-7,-5,1,5,-4,-1,3,1,-2,-9,-5,-2
-8,-5,2,6,-5,-1,4,1,-1,-9,-4,-2
-9,-6,2,7,-6,-1,4,2,-1,-8,-4,-2
-10,-5,4,8,-7,0,4,2,0,-8,-4,-1
-12,-4,6,8,-9,1,4,3,0,-7,-3,0
-12,-3,7,8,-10,2,4,3,0,-7,-3,0
-9,-2,6,6,-8,2,3,3,0,-7,-3,0
-6,-1,5,3,-6,2,1,3,-1,-7,-3,0
-6,0,7,3,-6,3,1,3,-1,-7,-3,-1
-8,1,9,4,-8,5,1,4,-2,-7,-3,-1
-9,1,10,4,-9,5,1,4,-2,-7,-3,-1
-9,0,8,4,-8,3,1,4,-2,-8,-4,-1
-8,-1,5,5,-7,1,1,4,-2,-8,-4,-1
-8,-2,5,5,-7,0,2,5,0,-7,-3,0
-8,-2,5,5,-7,1,3,5,0,-7,-3,0
-7,-2,4,5,-6,0,3,5,1,-7,-3,0
-7,-3,3,5,-5,0,3,5,1,-7,-3,-1
-7,-4,3,5,-4,-1,2,4,0,-8,-3,-1
-6,-3,3,5,-4,-1,2,3,0,-8,-3,-2
-6,-4,2,5,-4,-1,1,2,0,-8,-4,-2
-7,-4,1,5,-4,-1,1,2,0,-8,-4,-2
-7,-3,3,4,-4,0,1,3,0,-8,-4,-1
-5,-2,3,3,-4,0,1,3,0,-8,-3,-1
-4,-3,0,3,-2,-2,0,3,0,-9,-4,-2
-3,-4,-1,3,0,-3,0,3,-1,-9,-4,-2
-3,-3,0,3,-1,-2,1,4,0,-8,-3,-1
-3,-2,1,2,-2,-1,2,5,0,-7,-2,0
-3,-2,1,2,-2,0,2,5,0,-6,-2,0
-3,-2,1,3,-2,-1,1,5,0,-7,-3,0
-3,-2,1,3,-2,-1,1,6,0,-7,-2,0
-4,-2,2,3,-3,0,2,6,0,-7,-2,1
-5,-2,3,3,-4,0,3,7,1,-7,-2,0
-5,-1,3,3,-4,0,3,6,1,-7,-2,0
-5,0,4,2,-4,1,2,5,0,-8,-3,0
-6,0,6,2,-5,2,2,4,0,-8,-3,-1
-8,1,8,3,-7,4,2,4,0,-8,-3,-1
-8,1,9,4,-8,4,2,4,0,-8,-2,-1
-6,1,6,2,-6,3,2,4,0,-8,-2,-1
-3,2,4,0,-3,3,2,4,0,-8,-2,-1
-2,2,3,0,-2,3,2,4,0,-8,-3,-1
-3,2,4,0,-3,3,2,4,0,-9,-3,-2
-5,1,6,1,-5,4,2,5,0,-8,-3,-1
-6,0,6,2,-5,3,3,6,1,-7,-2,0
-6,0,6,3,-5,3,3,7,2,-6,-1,0
-5,1,6,2,-6,4,3,7,2,-6,-1,1
-6,2,8,2,-7,5,3,7,2,-6,0,2
-8,3,10,2,-9,7,4,8,3,-5,0,2
-9,4,12,2,-11,9,5,8,3,-5,0,3
-10,4,14,2,-11,9,5,8,4,-4,1,3
-10,4,15,2,-12,9,6,8,4,-4,1,3
-10,4,15,2,-12,9,6,8,5,-4,1,3
-10,4,15,2,-12,9,6,8,6,-4,1,3
-10,4,15,3,-12,9,6,8,6,-4,1,3
-9,5,14,2,-11,9,5,7,5,-4,1,3
-6,7,13,0,-9,10,5,6,5,-4,1,3
-4,8,12,-2,-8,10,5,6,4,-4,2,3
-4,7,12,-1,-8,9,4,6,4,-4,2,4
-5,5,11,0,-8,8,4,6,5,-4,2,4
-5,4,10,0,-7,7,3,5,4,-4,1,3
-5,4,9,0,-7,7,2,5,4,-4,1,3
-5,4,9,0,-7,7,2,5,4,-4,1,3
-5,5,10,0,-7,7,2,5,4,-4,2,4
-5,5,10,0,-7,7,2,5,4,-4,2,4
-4,4,8,0,-6,6,2,5,4,-4,2,3
-3,3,6,0,-4,4,1,5,4,-4,1,3
-1,4,4,-1,-3,4,0,5,3,-5,1,2
1,5,3,-3,-1,4,-1,5,2,-6,0,2
2,5,2,-4,0,4,-2,4,1,-7,0,1
1,5,3,-3,-1,4,-3,3,0,-8,-1,1
1,4,3,-3,-1,3,-3,2,-1,-9,-2,0
2,4,1,-3,0,3,-4,1,-2,-9,-2,0
3,4,1,-3,1,3,-4,1,-3,-9,-2,0
2,4,2,-3,0,4,-4,1,-2,-9,-2,0
1,5,3,-3,0,5,-3,1,-2,-9,-1,0
0,5,4,-3,-2,5,-2,2,-2,-9,-1,0
-1,4,5,-1,-3,5,-1,3,-2,-8,0,2
-1,4,5,-1,-3,4,-1,5,-1,-7,0,3
-1,3,3,0,-2,3,-1,5,-1,-8,0,2
-1,2,2,0,-2,2,-1,5,-2,-9,0,1
-1,1,2,1,-2,1,0,5,-2,-10,-1,0
-2,0,1,2,-2,0,0,4,-3,-11,-2,0
-3,-1,2,2,-2,1,1,3,-3,-11,-2,-1
-2,-1,2,2,-2,1,1,3,-3,-11,-2,0
-2,-2,0,2,-1,0,1,3,-4,-11,-2,0
-2,-4,-2,3,0,-2,0,2,-5,-12,-3,-1
-3,-4,-2,3,0,-3,1,1,-5,-12,-4,-1
-4,-3,-1,3,-1,-2,2,0,-5,-12,-4,-1
-3,-3,-1,3,-1,-1,2,0,-5,-13,-4,-1
-3,-3,-1,3,-1,-2,2,-2,-6,-14,-5,-2
-3,-4,-1,3,-1,-2,2,-3,-6,-15,-6,-3
-3,-4,-1,3,-1,-2,2,-5,-7,-16,-6,-3
-3,-4,-1,3,-1,-2,3,-5,-7,-16,-7,-4
-4,-3,0,3,-1,-1,4,-5,-6,-16,-7,-4
-5,-3,1,4,-3,0,6,-4,-6,-15,-6,-3
-7,-3,3,5,-5,0,8,-4,-5,-15,-6,-3
-8,-3,4,5,-6,0,9,-3,-5,-15,-6,-3
-8,-3,5,6,-7,0,10,-3,-5,-15,-6,-3
-10,-4,5,7,-8,0,11,-3,-4,-15,-6,-3
-12,-6,6,10,-9,0,11,-3,-4,-15,-6,-3
-13,-7,6,11,-9,0,12,-3,-4,-15,-6,-3
-12,-7,4,10,-8,-1,14,-3,-4,-15,-6,-3
-10,-8,1,9,-6,-2,14,-3,-5,-16,-6,-4
-7,-8,-1,8,-3,-5,14,-4,-6,-17,-8,-5
-5,-8,-3,7,-1,-6,14,-4,-6,-18,-9,-7
-5,-8,-3,7,-1,-6,14,-4,-6,-18,-10,-7
-5,-8,-2,7,-1,-6,14,-4,-6,-18,-10,-8
-4,-7,-3,6,-1,-5,15,-4,-5,-18,-10,-7
-5,-7,-2,6,-2,-4,15,-4,-5,-17,-9,-7
-6,-7,0,6,-3,-3,15,-4,-5,-17,-10,-7
-8,-8,0,8,-4,-4,15,-5,-6,-18,-11,-7
-10,-9,0,9,-5,-4,15,-5,-7,-19,-11,-8
-11,-9,2,10,-7,-3,16,-4,-6,-18,-10,-7
-13,-8,4,11,-8,-2,16,-2,-5,-18,-10,-6
-13,-7,5,10,-9,-1,16,-1,-6,-18,-10,-6
-12,-6,6,10,-9,0,16,-1,-6,-17,-10,-6
-13,-7,6,11,-9,-1,17,0,-5,-16,-9,-6
-13,-9,5,11,-9,-2,18,1,-5,-16,-8,-5
-13,-9,4,11,-9,-2,18,1,-5,-16,-8,-5
-14,-9,4,11,-9,-2,18,0,-5,-16,-8,-6
-16,-9,6,12,-11,-1,19,0,-4,-16,-8,-6
-17,-8,8,12,-13,0,19,0,-4,-15,-7,-5
-17,-7,8,12,-13,0,19,0,-5,-15,-7,-5
-14,-8,5,11,-10,-1,18,-2,-5,-16,-8,-6
-12,-8,3,11,-8,-2,18,-3,-5,-17,-9,-7
-11,-8,1,10,-7,-3,18,-4,-5,-17,-10,-8
-10,-9,0,10,-5,-5,18,-3,-5,-17,-10,-8
-9,-10,-2,10,-4,-6,18,-3,-5,-17,-9,-7
-9,-10,-2,9,-4,-6,18,-3,-5,-16,-9,-7
-7,-9,-3,8,-2,-6,19,-3,-5,-16,-9,-7
-6,-9,-3,7,-2,-6,19,-3,-5,-16,-9,-7
-7,-9,-2,8,-3,-6,20,-2,-4,-15,-9,-7
-8,-9,-1,8,-4,-5,19,-3,-5,-15,-9,-7
-9,-9,-1,9,-4,-5,18,-4,-5,-16,-10,-7
-10,-9,0,9,-5,-5,18,-6,-6,-16,-11,-8
-11,-9,1,10,-6,-4,18,-7,-6,-16,-11,-8
-11,-9,1,10,-7,-4,18,-8,-6,-16,-11,-8
-10,-9,0,10,-6,-5,18,-9,-7,-16,-11,-9
-9,-9,0,9,-4,-5,18,-9,-8,-16,-12,-9
-7,-8,-1,8,-3,-4,18,-9,-7,-16,-12,-9
-7,-7,0,8,-4,-3,18,-9,-7,-16,-12,-9
-10,-6,3,9,-7,-1,19,-8,-6,-16,-11,-8
-13,-6,6,10,-10,0,20,-6,-5,-15,-10,-7
-14,-6,7,10,-11,0,20,-5,-5,-14,-10,-7
-14,-6,8,10,-12,1,20,-4,-5,-13,-10,-7
-16,-6,9,10,-13,1,22,-1,-3,-12,-9,-5
-16,-6,9,10,-13,1,24,1,-1,-10,-7,-4
-14,-6,8,10,-11,0,24,2,-1,-9,-7,-3
-13,-7,5,10,-9,-1,23,1,-1,-9,-8,-4
-11,-7,3,10,-7,-2,22,-1,-3,-10,-9,-6
-9,-7,2,8,-5,-2,21,-2,-4,-11,-10,-7
-9,-6,2,8,-6,-2,22,-1,-4,-11,-10,-7
-10,-6,4,7,-7,-1,22,-1,-4,-11,-10,-7
-10,-6,3,7,-6,-1,22,-1,-4,-11,-10,-7
-10,-7,2,8,-6,-3,21,-2,-5,-11,-10,-8
-10,-9,1,10,-5,-4,20,-2,-5,-10,-10,-8
-10,-10,0,11,-4,-6,20,-2,-5,-10,-10,-8
-9,-10,0,11,-4,-6,21,-2,-5,-10,-10,-8
-11,-10,1,11,-6,-5,21,-2,-5,-10,-11,-8
-11,-10,1,10,-6,-5,21,-1,-4,-11,-11,-9
-9,-10,0,9,-4,-5,21,0,-4,-10,-11,-9
-8,-10,-1,8,-3,-6,22,2,-3,-9,-10,-9
-9,-10,-1,9,-4,-5,22,6,-1,-7,-9,-8
-9,-9,0,8,-4,-5,22,8,0,-5,-7,-6
-5,-7,-2,7,-1,-5,21,11,0,-1,-4,-3
-1,-6,-5,5,1,-6,19,14,2,5,2,2
4,-4,-8,1,5,-6,16,18,5,14,10,9
12,0,-13,-5,12,-6,13,23,10,24,20,17
24,3,-20,-13,22,-7,8,28,15,35,31,27
36,8,-28,-22,32,-9,3,35,20,47,42,37
48,13,-35,-31,41,-10,-1,42,27,60,54,48
60,20,-40,-40,50,-10,-5,48,34,73,66,59
71,27,-44,-49,57,-8,-8,52,37,83,77,68
78,35,-44,-56,61,-5,-11,51,37,91,85,76
83,41,-42,-61,62,0,-13,46,33,94,89,81
85,48,-37,-66,61,5,-15,35,25,93,91,85
82,54,-28,-68,56,13,-17,17,12,88,89,86
74,58,-16,-66,46,21,-18,-10,-5,77,82,84
62,59,-2,-61,32,29,-20,-45,-27,61,70,79
47,57,10,-53,18,34,-22,-82,-51,42,55,70
31,54,22,-43,4,38,-22,-115,-72,21,38,59
15,50,34,-32,-9,41,-20,-138,-87,2,22,47
1,45,42,-21,-21,43,-17,-152,-98,-14,8,35
-9,36,43,-12,-26,39,-15,-158,-106,-29,-7,21
-13,25,37,-4,-25,31,-13,-157,-110,-42,-21,6
-15,13,28,1,-21,21,-11,-149,-110,-51,-31,-6
-16,4,19,5,-17,12,-9,-137,-106,-55,-37,-14
-14,-1,12,6,-12,6,-8,-121,-99,-55,-39,-17
-9,-2,6,5,-7,1,-7,-105,-89,-51,-38,-18
-7,-3,2,4,-4,-1,-5,-89,-77,-47,-36,-19
-7,-4,1,6,-4,-2,-2,-74,-65,-41,-33,-18
-7,-5,1,6,-4,-3,0,-62,-54,-36,-29,-17
-7,-4,2,5,-5,-1,2,-51,-44,-31,-25,-16
-7,-1,5,4,-6,2,5,-42,-35,-25,-21,-14
-7,0,7,2,-7,3,8,-34,-28,-21,-18,-13
-7,-1,6,3,-7,3,10,-26,-23,-17,-16,-11
-8,-2,5,4,-7,1,13,-19,-18,-14,-14,-10
-10,-3,6,6,-9,1,16,-12,-12,-11,-12,-9
-13,-4,8,8,-10,1,19,-6,-8,-8,-11,-8
-13,-5,8,9,-11,1,20,-3,-5,-7,-10,-8
-12,-5,7,9,-10,0,20,-1,-3,-6,-9,-8
-11,-5,5,8,-8,0,19,-1,-2,-6,-9,-9
-10,-5,4,8,-7,0,19,0,-2,-6,-9,-9
-10,-4,5,7,-8,1,20,1,-2,-6,-9,-9
-12,-3,9,7,-11,3,21,3,-1,-5,-8,-8
-15,-2,13,9,-14,5,22,5,0,-4,-8,-8
-17,-3,13,10,-15,4,23,6,1,-4,-8,-8
-17,-4,12,11,-14,3,23,7,2,-4,-8,-8
-15,-5,10,10,-13,2,23,7,2,-3,-8,-8
-13,-5,7,9,-10,1,22,5,2,-3,-8,-9
-11,-5,5,8,-8,0,22,3,1,-3,-8,-9
-10,-5,5,7,-8,1,22,3,1,-3,-7,-9
-10,-5,5,7,-7,1,23,4,2,-3,-7,-8
-10,-6,4,8,-7,0,23,6,2,-2,-7,-8
-11,-7,4,9,-7,-2,24,7,3,-2,-7,-8
-11,-7,4,10,-8,-2,24,8,4,-2,-6,-8
-12,-7,5,10,-8,-2,24,9,5,-1,-6,-8
-12,-8,4,10,-8,-2,24,9,5,-1,-5,-8
-11,-8,2,10,-7,-2,24,10,5,-1,-5,-7
-11,-8,1,9,-6,-2,24,10,4,-1,-6,-7
-10,-8,1,9,-6,-2,23,9,3,-2,-6,-8
-10,-7,1,9,-6,-2,23,10,3,-2,-7,-8
-10,-7,3,9,-7,-2,23,10,3,-2,-7,-8
-11,-6,4,9,-8,-1,23,10,4,-2,-7,-9
-12,-6,6,9,-9,0,23,10,4,-2,-7,-10
-14,-6,8,10,-11,1,23,10,4,-2,-6,-10
-16,-6,9,11,-12,1,24,10,5,-1,-5,-9
-16,-7,8,11,-12,1,25,10,5,0,-4,-7
-15,-6,7,11,-11,1,26,11,6,1,-3,-6
-13,-5,7,9,-10,1,26,11,7,1,-2,-5
-12,-4,7,9,-10,2,25,12,6,1,-3,-6
-12,-5,7,9,-10,1,24,11,5,0,-4,-7
-12,-6,6,9,-9,0,23,11,5,-1,-5,-8
-12,-6,6,9,-9,0,23,11,5,-1,-5,-8
-13,-6,7,9,-10,0,23,12,6,0,-4,-8
-13,-7,6,9,-10,0,23,11,6,0,-3,-7
-13,-7,5,9,-9,0,23,11,5,0,-3,-7
-12,-6,5,8,-9,0,23,12,5,0,-3,-7
-11,-5,4,8,-8,0,23,12,5,0,-3,-7
-9,-5,3,7,-7,0,23,13,5,0,-4,-7
-9,-5,2,7,-6,-1,22,13,5,-1,-4,-7
-8,-6,2,7,-5,-2,22,13,5,-1,-5,-8
-7,-6,0,7,-4,-3,22,13,4,-2,-5,-9
-7,-6,0,7,-3,-3,21,13,4,-2,-5,-9
-8,-6,0,7,-4,-3,21,12,3,-2,-5,-9
-8,-7,0,8,-5,-3,20,11,3,-2,-5,-10
-8,-7,0,8,-5,-3,20,10,4,-2,-5,-10
-9,-8,0,9,-5,-4,21,9,4,-2,-5,-9
-9,-9,-1,9,-4,-5,21,9,5,-2,-4,-9
-7,-9,-2,8,-3,-5,21,9,5,-2,-5,-9
-4,-7,-3,6,-1,-5,20,8,4,-3,-5,-9
-3,-6,-3,5,0,-5,20,9,4,-3,-5,-10
-4,-5,-1,4,-1,-3,20,11,4,-2,-5,-9
-7,-4,2,5,-4,-1,21,13,5,-2,-4,-8
-10,-4,6,7,-8,1,22,15,5,-1,-3,-8
-12,-4,8,8,-11,2,22,16,5,-1,-3,-7
-12,-5,8,8,-10,1,21,16,5,-1,-3,-7
-11,-5,6,8,-9,0,21,16,5,-2,-3,-7
-8,-3,5,6,-7,0,20,16,5,-2,-3,-7
-6,-1,5,4,-5,1,21,15,5,-1,-2,-7
-5,-1,4,3,-4,1,21,15,6,-1,-1,-7
-7,-2,4,4,-5,1,21,15,6,-1,-1,-7
-9,-2,6,6,-7,1,21,15,6,-1,-1,-7
-9,-3,6,6,-8,2,21,15,6,-1,-1,-6
-8,-3,4,5,-6,0,21,15,6,-1,-1,-6
-6,-3,2,5,-5,0,21,15,6,-1,0,-6
-6,-3,3,5,-6,0,22,17,7,0,1,-5
-8,-4,4,7,-7,0,22,18,8,1,2,-4
-9,-5,4,8,-8,0,21,18,8,1,1,-4
-9,-4,4,7,-7,0,20,18,8,0,1,-4
-9,-4,4,7,-7,0,19,17,8,0,1,-4
-9,-4,4,6,-7,0,18,17,7,0,1,-4
-9,-4,5,6,-7,1,19,17,8,0,2,-4
-8,-2,6,5,-7,2,19,18,9,2,3,-2
-7,0,6,4,-7,3,20,20,10,3,4,-1
-8,0,7,5,-8,3,19,20,10,3,4,-1
-10,-2,7,6,-9,3,18,20,10,3,3,-2
-11,-4,6,7,-8,1,17,20,9,2,2,-3
-8,-3,4,5,-5,0,16,21,9,2,2,-4
-4,-1,2,2,-3,0,16,21,9,2,2,-4
-1,0,2,0,-1,1,15,21,9,2,2,-4
-1,1,2,0,-1,1,14,21,8,1,2,-4
-3,1,5,0,-4,3,14,22,8,2,3,-3
-4,2,7,1,-6,4,14,23,9,3,4,-2
-4,2,7,0,-6,4,14,23,10,4,5,-1
-3,3,7,0,-5,5,14,23,10,5,5,-1
-2,3,6,0,-3,5,14,23,11,6,6,0
-1,3,4,-1,-2,4,13,24,11,6,6,0
0,2,2,-1,0,2,13,25,11,6,7,0
0,0,1,0,0,1,13,26,12,7,8,0
-1,0,1,0,-2,1,13,26,12,7,8,1
-1,0,1,0,-1,1,12,26,12,7,9,1
1,1,-1,-1,0,1,10,25,12,7,9,1
4,2,-2,-3,2,1,10,24,11,7,9,2
5,3,-3,-4,4,1,10,24,11,7,9,2
6,3,-3,-4,4,1,9,23,11,7,9,2
6,4,-2,-5,4,1,9,23,11,7,9,2
5,4,-2,-5,3,1,8,23,11,7,10,2
5,4,-1,-5,2,1,8,24,11,8,10,3
5,5,0,-5,2,2,8,25,11,8,11,4
6,6,0,-6,2,3,7,26,11,9,11,5
6,6,0,-5,2,3,7,26,12,10,12,5
4,5,0,-4,1,3,7,27,12,10,13,6
5,6,0,-5,2,4,7,27,13,11,13,6
6,8,1,-7,2,5,7,28,13,11,14,7
7,9,2,-8,2,6,6,29,12,11,14,7
6,10,4,-8,0,7,6,29,12,11,14,7
5,11,5,-8,-1,8,5,28,11,11,14,7
7,12,5,-9,0,8,5,28,11,11,14,7
10,12,2,-11,3,7,4,27,11,10,13,6
12,12,0,-13,5,7,3,25,10,9,12,5
11,12,1,-12,5,7,3,25,10,9,12,5
8,13,5,-11,2,9,4,25,11,11,14,7
4,12,8,-8,-2,10,5,25,12,12,15,8
2,11,9,-7,-3,10,5,25,12,12,15,8
3,10,7,-7,-3,9,5,24,11,11,15,8
3,11,7,-7,-3,9,5,24,11,11,15,9
3,11,7,-7,-3,10,5,24,10,11,15,9
3,10,7,-6,-2,9,5,23,10,11,15,10
4,10,5,-7,-1,9,4,21,9,10,14,9
5,11,5,-8,0,9,3,19,7,8,13,7
5,12,6,-8,0,9,3,18,6,8,13,7
4,10,5,-7,0,8,3,17,6,7,12,7
3,7,4,-5,-1,5,3,16,6,7,12,7
1,5,4,-3,-2,4,4,16,6,7,12,8
1,5,4,-2,-2,4,4,16,6,8,12,8
0,5,5,-2,-3,5,5,17,7,9,13,8
0,6,5,-3,-3,6,6,16,7,9,14,9
2,7,4,-4,-1,5,6,14,6,8,13,8
3,7,3,-5,0,5,4,12,5,6,11,6
4,7,3,-6,1,5,3,10,4,5,10,4
5,7,3,-6,1,4,3,8,3,3,9,3
6,6,1,-6,2,3,3,7,3,2,8,2
3,4,1,-4,0,2,5,7,4,3,9,3
0,2,2,0,-2,2,7,7,5,3,9,3
-3,1,4,1,-4,3,7,7,5,3,9,3
-3,2,4,0,-4,4,6,6,4,1,8,2
-2,2,4,0,-3,3,6,6,4,0,7,1
-1,1,2,0,-1,2,6,6,4,0,6,1
-1,0,1,0,0,1,7,6,4,0,6,1
0,0,1,0,0,0,7,6,4,-1,6,0
0,0,0,0,0,0,7,5,3,-1,6,0
-1,-1,0,0,-1,0,7,5,2,-2,5,0
-1,-1,0,0,-1,0,7,4,1,-2,4,-1
-1,-1,0,0,0,0,7,3,0,-3,3,-2
0,0,0,0,0,0,7,2,0,-4,3,-2
0,0,0,0,0,0,7,1,0,-4,3,-3
-1,0,2,0,-1,1,7,1,0,-5,3,-3
-3,1,4,0,-3,3,8,1,0,-4,3,-2
-4,1,6,0,-5,4,9,1,1,-4,3,-2
-7,1,8,2,-8,5,10,1,3,-4,3,-2
-9,0,9,3,-9,5,10,1,3,-4,3,-2
-10,0,9,4,-10,5,11,2,4,-4,3,-2
-10,0,9,5,-10,5,11,2,4,-4,4,-2
-9,0,8,5,-9,4,11,2,4,-4,4,-2
-8,-2,6,5,-7,2,11,1,3,-5,3,-2
-7,-3,5,5,-7,1,10,1,2,-6,2,-3
-6,-1,6,3,-7,2,9,0,1,-7,2,-3
-5,0,5,2,-6,2,8,0,0,-8,1,-4
-5,0,4,2,-5,2,8,0,-1,-8,0,-5
-6,0,6,3,-6,3,8,0,-1,-8,0,-5
-8,0,8,3,-8,5,8,0,0,-8,0,-4
-8,0,8,4,-8,4,8,0,0,-7,1,-4
-9,-3,6,6,-7,1,9,1,1,-6,2,-3
-10,-6,5,7,-7,-1,10,1,1,-6,2,-3
-11,-5,6,7,-8,0,11,2,2,-6,3,-2
-11,-3,8,6,-9,2,11,2,2,-6,2,-2
-11,-2,8,6,-9,2,11,2,2,-7,2,-3
-11,-3,7,7,-9,2,10,1,1,-7,2,-3
-11,-4,6,8,-9,1,10,0,1,-8,2,-3
-10,-4,6,7,-9,1,10,0,1,-8,2,-3
-9,-3,5,6,-8,1,10,0,1,-7,2,-3
-7,-3,3,4,-6,0,10,0,0,-8,1,-4
-5,-3,1,4,-4,0,9,-1,-1,-9,0,-5
-5,-3,1,4,-4,-1,8,-2,-2,-10,0,-6
-5,-3,1,4,-4,0,8,-2,-2,-10,0,-6
-4,-2,1,3,-4,0,8,-1,-1,-9,0,-5
-5,-3,1,4,-4,0,9,-1,0,-9,1,-4
-6,-3,2,5,-5,0,9,0,0,-8,1,-4
-8,-3,5,6,-7,1,9,0,0,-8,1,-4
-11,-2,9,6,-10,3,9,0,0,-8,0,-4
-14,-2,12,7,-13,5,9,0,1,-8,0,-4
-15,-2,13,8,-14,5,9,1,2,-8,1,-4
-14,-3,11,8,-13,4,9,2,2,-8,1,-4
-14,-3,11,8,-12,4,9,2,3,-8,1,-4
-13,-2,11,8,-12,4,9,2,3,-8,2,-4
-13,-2,10,8,-12,4,9,1,3,-8,2,-4
-12,-2,10,8,-12,4,9,0,3,-8,2,-4
-11,0,11,6,-11,5,9,0,3,-8,2,-4
-9,0,10,4,-10,5,9,0,3,-8,1,-4
-9,0,8,4,-9,4,8,-1,3,-9,1,-5
-8,-2,6,4,-7,2,8,-1,2,-9,1,-5
-8,-2,4,5,-6,2,8,-1,2,-8,1,-4
-8,-3,4,6,-7,1,9,0,3,-8,2,-4
-10,-4,5,7,-8,1,9,0,3,-8,2,-4
-11,-5,5,8,-8,1,8,-1,2,-8,1,-4
-11,-5,5,8,-9,1,8,-2,2,-9,1,-4
-10,-4,6,7,-9,1,8,-1,3,-8,2,-4
-9,-3,6,6,-8,2,8,-1,3,-8,2,-3
-6,-1,5,3,-6,2,7,-1,2,-8,1,-4
-4,0,4,2,-5,2,6,-2,1,-9,0,-5
-6,0,6,3,-6,3,6,-1,1,-9,0,-5
-7,0,7,3,-8,5,6,0,2,-8,1,-4
-7,1,8,3,-8,5,7,1,3,-8,2,-4
-7,0,8,3,-8,5,7,1,2,-8,2,-4
-8,-1,7,4,-8,4,7,0,2,-8,2,-4
-7,-2,6,5,-7,2,7,0,3,-7,2,-3
-7,-3,4,5,-6,1,7,0,3,-7,2,-3
-7,-3,4,5,-6,0,7,0,4,-7,3,-2
-8,-4,4,6,-6,0,7,0,4,-6,3,-2
-9,-4,5,6,-7,1,7,0,5,-6,3,-2
-10,-4,6,7,-8,2,7,0,5,-6,3,-2
-10,-3,7,7,-9,2,7,1,5,-6,3,-2
-11,-3,8,7,-9,3,7,1,5,-6,3,-2
-11,-2,9,6,-10,4,7,1,5,-7,3,-2
-10,-2,8,5,-9,3,7,1,4,-7,3,-2
-8,-1,7,4,-8,3,7,1,4,-8,2,-2
-8,-1,7,4,-8,3,7,1,5,-8,2,-2
-8,0,7,4,-8,3,7,1,5,-8,2,-2
-7,-1,6,4,-7,2,6,1,5,-8,2,-2
-6,-2,5,4,-6,1,6,2,5,-8,3,-2
-6,-2,5,4,-6,1,7,3,6,-7,4,-1
-8,-1,7,5,-7,2,7,5,7,-6,5,0
-10,0,10,5,-10,4,8,6,7,-5,6,0
-9,1,11,4,-11,6,8,6,8,-4,6,1
-7,2,10,2,-9,6,7,5,7,-5,6,0
-6,3,9,1,-8,7,6,4,7,-6,5,0
-6,4,10,1,-9,8,6,4,7,-6,5,-1
-7,5,13,1,-10,9,6,4,8,-5,6,0
-8,6,15,1,-12,10,7,4,8,-5,7,0
-8,6,15,1,-12,11,7,4,8,-5,7,0
-6,7,14,0,-11,11,6,4,7,-5,6,0
-4,8,13,-2,-9,11,5,4,7,-5,6,0
-2,8,11,-2,-8,10,5,4,7,-5,6,0
-2,8,10,-2,-7,10,4,4,7,-5,6,0
-3,8,11,-1,-8,10,4,4,8,-5,6,1
-4,7,12,-1,-9,10,3,4,9,-4,7,1
-5,7,12,-1,-9,10,2,3,9,-4,7,0
-5,7,12,0,-9,9,1,3,8,-4,7,0
-6,6,12,0,-9,9,0,4,8,-4,7,1
-7,7,14,0,-11,11,0,5,8,-4,7,1
-10,8,18,1,-15,14,1,7,9,-3,7,2
-11,9,20,1,-16,15,1,8,9,-3,7,2
-10,9,19,0,-15,14,0,8,9,-4,7,1
-8,7,15,0,-12,11,-1,8,8,-4,6,0
-6,6,11,0,-8,8,-1,7,8,-5,6,0
-4,5,8,0,-6,6,-1,7,8,-5,6,0
-4,4,7,0,-5,5,-1,7,8,-4,7,1
-4,3,6,1,-5,4,-1,6,8,-4,7,1
-3,1,4,1,-4,3,-1,5,7,-4,7,1
-3,1,4,1,-4,3,-2,4,7,-4,6,1
-3,2,4,0,-4,3,-2,3,6,-4,6,1
-2,2,4,0,-3,3,-3,2,4,-5,5,0
0,2,2,-1,-1,2,-3,1,3,-6,4,0
1,3,1,-2,0,2,-4,1,2,-6,4,0
0,3,1,-1,0,2,-4,0,2,-6,4,0
0,2,2,-1,-1,2,-4,1,3,-6,4,0
-2,2,3,0,-3,2,-3,2,3,-6,4,1
-3,1,3,1,-4,2,-3,2,3,-6,4,1
-5,0,3,2,-4,1,-3,3,3,-7,3,1
-6,-1,4,3,-5,2,-2,3,3,-7,3,1
-5,0,4,3,-4,2,-1,3,3,-7,3,1
-5,-2,3,3,-3,1,-1,3,3,-7,3,0
-6,-3,2,5,-3,0,-1,2,1,-8,2,-1
-6,-4,2,5,-4,-1,-1,1,0,-9,1,-2
-7,-4,2,5,-5,-1,-1,0,0,-9,1,-2
-6,-4,2,5,-5,-1,-2,-1,-1,-10,0,-3
-5,-3,1,3,-3,-1,-3,-2,-2,-11,0,-3
-4,-2,2,3,-3,0,-2,-2,-3,-11,0,-3
-5,-1,4,3,-5,2,-2,-2,-3,-12,-1,-4
-8,-1,7,4,-8,3,-1,-2,-3,-12,-1,-4
-9,-1,8,5,-9,3,-1,-2,-2,-12,-1,-4
-7,-1,6,4,-7,2,-1,-3,-2,-12,-1,-4
-4,-1,3,3,-4,0,-1,-4,-4,-13,-2,-5
-3,-2,2,3,-3,0,-1,-4,-4,-14,-3,-6
-5,-1,3,3,-4,0,0,-3,-3,-13,-2,-4
-6,-1,5,3,-6,2,2,-2,-1,-12,-1,-3
-8,-3,6,5,-7,2,3,-2,0,-12,-1,-4
-11,-6,5,8,-8,0,3,-4,0,-13,-2,-5
-11,-8,3,9,-7,-2,2,-5,-1,-15,-4,-7
-10,-8,3,9,-6,-2,2,-6,-2,-16,-5,-8
-12,-9,3,10,-7,-3,2,-5,-2,-16,-5,-8
-13,-10,3,12,-8,-4,3,-3,-2,-15,-4,-8
-14,-10,3,12,-9,-4,4,-1,-1,-14,-3,-7
-13,-10,3,11,-9,-3,5,0,-1,-14,-3,-7
-12,-9,3,10,-8,-3,4,0,-1,-15,-4,-8
-12,-9,3,10,-8,-3,4,0,-1,-15,-4,-8
-12,-10,3,10,-8,-3,5,0,0,-15,-4,-8
-13,-10,3,11,-8,-3,5,0,0,-15,-4,-8
-15,-10,3,12,-9,-3,4,0,-1,-15,-4,-8
-17,-11,5,14,-11,-3,4,0,-1,-14,-4,-8
-17,-10,6,14,-12,-2,4,0,-1,-14,-4,-7
-15,-9,6,12,-12,-1,4,-1,-1,-14,-4,-7
-15,-7,8,11,-12,0,4,-1,-1,-14,-4,-6
-16,-7,9,11,-13,1,4,-1,-1,-14,-4,-6
-16,-8,8,11,-13,0,4,-2,-1,-14,-4,-7
-16,-9,7,12,-12,0,4,-2,-1,-14,-5,-7
-16,-9,6,11,-11,0,5,-1,-1,-14,-4,-7
-15,-7,6,10,-11,0,6,-1,0,-13,-3,-6
-13,-6,4,9,-9,-1,6,-2,0,-14,-4,-7
-9,-6,1,8,-6,-2,4,-4,-2,-15,-6,-8
-8,-7,0,8,-5,-3,3,-5,-3,-16,-7,-9
-9,-8,1,9,-5,-3,3,-5,-2,-16,-6,-9
-10,-8,1,9,-6,-3,4,-4,-2,-15,-6,-9
-10,-9,0,9,-5,-4,4,-4,-2,-15,-6,-9
-10,-10,0,10,-5,-5,4,-5,-3,-15,-6,-9
-11,-10,0,10,-6,-4,4,-4,-3,-15,-5,-8
-13,-10,2,11,-7,-4,4,-3,-3,-15,-5,-8
-12,-10,1,11,-7,-4,4,-2,-4,-16,-6,-8
-11,-10,0,10,-6,-4,4,-2,-4,-16,-6,-9
-11,-10,1,10,-6,-3,4,-2,-3,-16,-6,-8
-14,-9,5,11,-10,-1,5,0,-1,-14,-5,-7
-17,-9,9,12,-13,1,6,0,0,-13,-3,-6
-19,-8,10,13,-15,2,6,0,0,-13,-3,-6
-19,-8,11,13,-15,2,5,0,-1,-14,-4,-7
-18,-7,10,12,-14,2,4,0,-2,-16,-6,-8
-16,-5,10,10,-13,3,4,0,-2,-16,-7,-9
-14,-4,9,9,-12,3,4,1,-1,-16,-7,-9
-13,-5,8,9,-11,2,5,1,0,-15,-6,-8
-13,-6,7,10,-10,1,5,1,0,-15,-6,-8
-14,-7,7,10,-10,0,5,1,0,-15,-6,-8
-14,-6,8,10,-11,1,4,0,-1,-15,-6,-8
-14,-5,8,9,-11,2,4,0,-2,-16,-6,-8
-13,-4,7,8,-10,2,4,0,-2,-16,-6,-8
-13,-6,6,9,-10,0,4,0,-3,-15,-6,-8
-13,-7,5,10,-9,-1,4,0,-2,-15,-5,-7
-12,-8,3,10,-8,-2,4,0,-2,-15,-6,-7
-10,-9,2,9,-6,-3,4,-1,-2,-15,-6,-7
-8,-8,1,8,-5,-3,4,-1,-1,-15,-6,-7
-9,-8,2,8,-6,-2,5,0,0,-15,-5,-7
-11,-9,2,10,-7,-3,5,0,0,-14,-5,-6
-13,-11,2,12,-8,-4,5,0,0,-14,-5,-6
-15,-12,2,13,-8,-5,5,0,-1,-14,-5,-7
-13,-12,1,12,-7,-5,4,0,-1,-14,-6,-7
-11,-11,0,11,-6,-5,3,-1,-2,-15,-7,-8
-12,-10,2,11,-7,-4,3,-2,-2,-16,-7,-9
-13,-10,4,12,-9,-3,4,-2,-2,-16,-7,-9
-14,-10,4,12,-9,-3,4,-1,-2,-16,-7,-9
-13,-10,3,11,-8,-3,5,0,-2,-16,-7,-9
-12,-10,2,11,-7,-3,5,1,-1,-16,-7,-9
-12,-10,1,11,-6,-4,5,3,0,-15,-7,-9
-10,-11,-2,11,-3,-6,4,6,0,-15,-6,-8
-5,-12,-7,9,1,-9,3,8,1,-14,-6,-8
0,-12,-12,6,5,-12,2,10,2,-12,-4,-7
4,-11,-15,4,8,-12,0,14,5,-7,0,-3
8,-8,-16,0,11,-12,-1,20,10,0,7,3
16,-4,-20,-6,17,-12,-4,27,15,10,15,10
27,1,-26,-14,26,-12,-8,34,21,21,25,18
39,7,-32,-23,35,-12,-13,40,28,32,36,27
50,15,-35,-32,42,-10,-17,47,34,44,47,37
59,23,-35,-41,47,-6,-21,52,39,56,58,46
68,31,-37,-49,52,-3,-25,54,40,65,67,55
77,38,-39,-57,57,-1,-29,52,38,72,74,62
83,43,-40,-63,62,0,-32,45,32,77,80,69
87,47,-40,-68,64,3,-35,30,21,78,83,74
88,52,-35,-70,62,8,-39,5,4,74,83,76
81,55,-26,-69,55,14,-44,-29,-18,64,77,76
70,55,-15,-63,43,20,-48,-69,-43,50,68,72
54,51,-4,-53,29,24,-50,-108,-67,31,54,64
37,45,7,-41,14,26,-50,-141,-89,10,38,54
20,39,18,-30,0,29,-48,-164,-104,-9,22,44
6,34,27,-20,-11,30,-45,-178,-114,-25,8,33
-4,27,30,-11,-17,28,-42,-182,-120,-39,-4,21
-9,17,25,-4,-17,21,-40,-177,-122,-51,-17,8
-10,4,14,2,-12,10,-37,-166,-120,-62,-29,-5
-7,-6,1,5,-4,-1,-35,-150,-116,-68,-37,-14
-3,-12,-9,6,3,-9,-34,-133,-107,-69,-40,-20
-1,-14,-14,7,6,-13,-32,-115,-96,-66,-40,-22
0,-15,-14,7,6,-14,-30,-97,-84,-62,-38,-22
0,-13,-13,7,5,-13,-26,-80,-71,-56,-35,-21
-2,-10,-8,6,3,-10,-21,-66,-59,-50,-30,-18
-4,-6,-2,5,0,-5,-17,-53,-47,-43,-24,-15
-5,-3,2,3,-3,0,-14,-43,-37,-37,-20,-13
-6,-1,4,3,-5,2,-11,-35,-30,-32,-16,-11
-7,-1,5,3,-6,2,-9,-29,-24,-29,-14,-10
-6,-2,4,3,-5,1,-7,-23,-19,-27,-13,-10
-6,-3,2,4,-5,0,-5,-17,-15,-25,-12,-9
-8,-4,3,6,-6,-1,-3,-12,-11,-24,-11,-9
-10,-6,4,8,-8,-1,-2,-7,-7,-22,-10,-9
-11,-6,5,9,-8,-1,-1,-3,-5,-21,-9,-8
-11,-6,5,9,-8,-1,0,-1,-3,-19,-8,-8
-11,-6,5,9,-8,-1,1,0,-1,-18,-7,-7
-13,-7,5,9,-9,0,2,1,0,-18,-7,-7
-13,-6,5,8,-9,0,2,2,0,-18,-7,-7
-12,-6,5,7,-8,0,2,2,1,-18,-7,-7
-11,-5,5,7,-8,0,3,4,2,-18,-7,-7
-11,-5,5,7,-8,0,3,6,4,-18,-7,-7
-10,-5,5,7,-8,0,4,8,5,-17,-6,-7
-10,-4,6,7,-8,0,4,9,5,-17,-6,-7
-10,-4,6,7,-9,1,5,10,5,-17,-5,-7
-10,-3,6,6,-8,1,4,9,4,-17,-6,-8
-8,-3,5,5,-7,1,4,7,3,-18,-7,-9
-7,-3,3,5,-5,0,3,6,2,-19,-7,-9
-8,-4,3,6,-6,-1,3,6,2,-19,-7,-9
-10,-6,3,8,-7,-1,3,7,3,-19,-7,-9
-12,-7,4,10,-8,-2,3,8,3,-20,-8,-9
-11,-7,4,9,-8,-1,2,7,3,-20,-8,-10
-9,-6,2,7,-6,-2,2,7,3,-20,-9,-10
-7,-7,0,7,-4,-3,2,7,2,-20,-9,-10
-7,-8,-1,6,-2,-5,2,7,2,-19,-8,-10
-5,-7,-2,5,-1,-4,3,7,2,-19,-8,-9
-4,-4,0,3,-2,-2,3,8,3,-19,-7,-9
-3,-3,0,3,-2,-1,3,8,2,-19,-7,-9
-4,-4,-1,4,-2,-2,2,8,2,-20,-7,-9
-6,-6,-1,6,-3,-3,3,8,2,-19,-7,-9
-7,-7,0,7,-4,-3,3,9,3,-19,-6,-8
-7,-7,0,7,-4,-3,4,9,4,-18,-6,-8
-6,-6,0,6,-4,-3,4,9,3,-18,-6,-8
-7,-6,0,6,-4,-3,4,9,3,-18,-6,-8
-7,-7,0,7,-4,-4,4,10,3,-18,-6,-7
-7,-8,-1,8,-3,-5,4,10,3,-17,-6,-7
-6,-8,-3,7,-1,-6,4,10,3,-17,-6,-7
-5,-8,-4,7,0,-6,4,10,3,-18,-7,-8
-5,-8,-4,7,-1,-6,4,11,4,-18,-7,-9
-5,-7,-3,7,-1,-5,5,11,4,-17,-7,-8
-6,-7,-1,7,-2,-4,6,12,5,-16,-6,-7
-8,-7,0,7,-4,-3,6,13,5,-16,-5,-7
-9,-7,1,7,-5,-3,6,12,5,-16,-5,-7
-9,-6,2,7,-5,-2,5,11,6,-16,-6,-8
-9,-6,2,7,-6,-2,5,11,6,-17,-6,-8
-8,-5,2,6,-6,-1,5,11,6,-16,-6,-8
-6,-4,1,5,-5,-1,5,12,6,-16,-6,-8
-5,-4,0,4,-4,-1,4,11,6,-16,-6,-8
-5,-4,1,4,-4,-1,5,12,6,-16,-6,-8
-7,-4,3,5,-5,-1,5,13,7,-15,-5,-7
-8,-4,3,5,-6,-1,5,13,7,-15,-5,-7
-8,-4,3,5,-5,-1,4,11,7,-15,-6,-8
-8,-3,4,5,-6,0,3,11,6,-15,-6,-8
-8,-3,5,5,-7,1,4,12,7,-15,-6,-8
-9,-3,5,6,-8,1,4,13,7,-14,-5,-7
-9,-4,5,6,-7,0,5,15,7,-14,-5,-7
-9,-4,4,6,-7,0,5,16,7,-14,-5,-7
-9,-4,5,6,-7,0,5,16,7,-13,-5,-7
-10,-4,5,7,-7,0,6,17,8,-12,-4,-6
-10,-5,4,7,-6,-1,6,18,9,-12,-3,-5
-9,-5,2,7,-5,-2,5,17,9,-12,-3,-5
-8,-6,1,7,-5,-2,5,17,9,-11,-3,-5
-7,-6,0,7,-4,-3,4,17,9,-11,-3,-5
-6,-7,0,6,-3,-3,4,17,9,-11,-3,-6
-5,-7,-1,6,-3,-3,4,16,9,-11,-3,-5
-5,-6,-1,5,-2,-3,4,16,8,-11,-3,-5
-4,-6,-1,5,-2,-3,3,15,8,-11,-4,-6
-5,-6,0,5,-3,-2,3,15,8,-11,-4,-6
-6,-5,1,5,-4,-1,3,16,8,-10,-3,-6
-4,-4,1,5,-3,-1,3,17,9,-9,-2,-5
-3,-4,-1,4,-1,-2,3,18,9,-9,-2,-4
-1,-5,-3,4,0,-3,2,19,8,-9,-2,-5
0,-4,-5,2,2,-4,2,19,8,-9,-2,-5
0,-4,-4,2,2,-4,1,19,8,-9,-3,-5
-2,-4,-1,3,0,-3,1,19,8,-9,-2,-5
-4,-3,1,3,-2,-1,1,19,9,-9,-2,-5
-4,-2,3,2,-3,0,0,18,9,-9,-3,-6
-3,0,4,1,-3,2,-1,18,9,-9,-3,-6
-1,2,4,0,-2,3,-1,18,8,-9,-3,-6
1,3,2,-1,0,2,-2,17,8,-9,-3,-6
3,2,0,-2,1,1,-2,18,8,-9,-2,-6
2,2,0,-1,1,1,-1,19,9,-7,-1,-4
0,0,0,0,0,0,0,21,11,-6,0,-3
-2,-1,1,1,-2,0,1,22,12,-5,1,-2
-2,-1,1,1,-2,0,1,23,13,-4,1,-1
0,0,0,0,-1,1,0,24,13,-4,2,0
0,1,1,0,-1,2,0,25,14,-3,2,0
0,2,3,0,-2,3,0,25,14,-3,3,0
0,2,3,0,-2,3,0,25,14,-2,3,0
0,3,3,-1,-2,3,0,26,15,-2,4,0
0,3,4,-1,-2,4,0,28,16,-1,5,1
-1,3,5,-1,-3,5,0,30,17,0,6,2
0,4,5,-2,-3,5,-1,31,17,0,6,2
0,4,4,-2,-3,5,-1,32,17,1,6,3
0,4,4,-1,-3,5,-1,32,18,1,7,3
0,3,4,-1,-3,4,-1,32,18,2,7,4
0,4,4,-2,-3,4,-2,32,18,2,7,4
2,5,3,-3,-1,4,-4,31,18,2,7,3
4,4,0,-4,1,3,-4,31,17,2,7,3
7,5,-2,-6,5,2,-5,31,17,2,7,3
10,6,-4,-8,7,2,-5,30,17,2,7,3
10,6,-4,-8,7,2,-6,30,17,2,7,3
9,7,-2,-8,6,2,-6,30,17,2,7,4
10,8,-3,-9,7,2,-6,30,17,2,7,4
11,8,-3,-9,7,2,-6,31,17,2,8,5
9,8,-1,-8,4,3,-5,32,18,4,10,6
7,9,1,-8,2,5,-5,33,19,5,11,7
8,10,1,-9,3,6,-5,33,19,6,11,7
11,10,-1,-10,6,5,-6,33,18,6,11,7
13,9,-4,-10,8,3,-7,33,18,6,11,7
13,8,-5,-10,9,1,-7,32,18,6,11,7
13,9,-4,-10,8,2,-7,32,18,6,12,8
10,9,0,-9,5,4,-7,32,19,7,13,9
7,9,3,-8,2,6,-7,31,19,8,14,10
6,10,4,-8,0,7,-8,31,18,9,14,10
7,12,5,-10,1,9,-8,31,18,9,14,10
8,14,6,-11,1,10,-9,31,17,9,14,10
9,14,5,-12,2,10,-9,31,17,8,13,9
10,13,4,-12,3,8,-9,30,17,8,13,9
10,12,3,-11,3,7,-9,30,17,9,14,10
10,12,2,-11,4,6,-8,30,17,9,15,10
12,11,0,-11,6,5,-9,28,16,8,14,10
13,11,-2,-11,7,4,-11,26,15,7,13,9
13,11,-1,-11,7,5,-12,25,14,6,12,8
12,11,0,-12,6,6,-12,25,14,6,12,8
12,12,0,-12,6,6,-12,25,14,7,12,9
10,12,2,-11,4,7,-12,26,14,7,13,9
8,12,4,-10,2,8,-12,26,14,7,13,10
8,12,4,-10,2,8,-12,24,13,6,12,9
9,12,2,-11,4,7,-13,22,11,5,11,7
13,12,0,-12,7,6,-14,19,10,4,10,6
15,12,-2,-13,9,5,-13,18,9,4,9,6
13,11,-1,-12,7,5,-12,18,10,4,10,6
8,10,2,-9,3,6,-11,18,11,4,10,6
5,9,4,-7,0,7,-10,18,12,4,10,7
3,7,4,-6,0,6,-9,18,12,4,10,7
3,6,2,-4,0,4,-8,17,12,4,10,7
4,5,0,-4,2,2,-8,15,12,3,10,7
6,5,-2,-5,4,1,-8,13,11,3,9,6
7,5,-2,-5,4,1,-7,12,10,3,9,6
7,4,-2,-5,5,1,-7,11,9,2,8,6
6,3,-2,-4,4,1,-7,9,8,1,7,5
5,3,-1,-4,3,1,-7,7,7,0,6,3
4,3,0,-4,3,1,-8,6,6,-1,4,2
4,3,0,-3,2,1,-8,5,6,-1,4,1
2,3,1,-2,0,2,-7,4,6,-1,3,1
0,3,3,-1,-1,3,-7,4,6,-1,3,1
-1,2,3,0,-2,3,-7,3,6,-1,3,1
-1,1,2,0,-1,2,-7,2,6,-1,3,0
-1,0,1,0,-1,1,-7,1,5,-2,2,0
-1,0,1,0,0,1,-7,0,4,-3,1,-1
-1,0,1,0,-1,1,-7,0,4,-4,1,-1
-1,1,2,0,-1,1,-7,0,4,-4,1,-1
0,1,1,0,-1,1,-6,0,4,-4,1,-2
0,1,1,0,-1,1,-6,0,4,-4,1,-2
-1,0,1,0,-2,1,-5,1,4,-4,1,-2
-3,0,2,1,-3,1,-4,1,4,-4,1,-2
-3,0,2,1,-2,1,-4,0,3,-5,0,-2
-3,-1,1,2,-2,0,-5,0,2,-5,0,-3
-3,-2,1,2,-2,0,-4,0,2,-6,0,-3
-1,-2,0,1,0,0,-4,-1,2,-6,-1,-3
1,-2,-3,0,2,-2,-5,-2,1,-7,-2,-4
3,-3,-5,0,4,-3,-6,-3,0,-7,-2,-5
3,-2,-5,0,4,-3,-6,-4,0,-7,-2,-4
0,-1,-2,0,2,-1,-5,-3,1,-6,-2,-3
-3,-1,2,2,-2,0,-4,-2,2,-6,-1,-3
-6,-1,4,3,-4,1,-3,-1,3,-5,-1,-3
-5,-1,4,3,-4,1,-3,0,3,-5,-1,-3
-4,-1,3,2,-3,0,-3,0,3,-5,-1,-3
-3,-1,2,2,-3,0,-3,0,3,-5,-1,-3
-3,-1,3,2,-3,1,-3,0,2,-5,-1,-3
-2,0,3,1,-2,1,-4,-1,1,-6,-2,-4
-1,2,4,0,-2,3,-5,-2,0,-7,-3,-5
-2,4,7,0,-4,5,-5,-3,0,-7,-4,-6
-3,4,8,0,-5,6,-5,-3,0,-7,-4,-6
-3,2,6,0,-4,3,-5,-2,0,-7,-4,-6
-2,0,2,0,-2,1,-4,-2,0,-7,-4,-6
-1,-2,0,1,-1,0,-4,-2,0,-7,-3,-6
-1,-3,0,2,0,-1,-3,-3,0,-6,-3,-5
-2,-3,-1,3,0,-2,-3,-4,0,-6,-2,-5
-1,-4,-2,3,0,-3,-3,-5,0,-6,-2,-5
-1,-5,-3,3,1,-4,-2,-6,0,-6,-2,-5
-1,-5,-4,3,2,-5,-2,-5,1,-5,-2,-4
0,-5,-4,2,2,-5,-2,-5,0,-5,-2,-4
0,-5,-5,2,2,-5,-3,-6,0,-6,-3,-5
0,-4,-4,1,1,-4,-3,-7,-1,-6,-4,-6
-1,-3,-2,1,0,-2,-3,-6,-1,-6,-3,-6
-1,-2,-1,1,0,-1,-3,-6,0,-6,-3,-5
-2,-1,0,1,-1,0,-2,-4,0,-5,-2,-5
-3,-1,2,1,-2,0,-2,-3,1,-4,-2,-4
-4,-1,3,2,-3,1,-1,-2,1,-4,-1,-3
-5,-3,2,3,-4,0,-1,-2,1,-4,-1,-3
-6,-4,1,4,-4,-1,-2,-3,1,-4,-2,-4
-5,-5,0,4,-3,-1,-2,-3,0,-5,-2,-5
-4,-4,0,4,-2,-2,-2,-4,0,-5,-2,-5
-3,-3,0,3,-1,-1,-2,-4,0,-5,-3,-5
-1,-2,0,2,-1,0,-2,-4,0,-5,-3,-5
0,0,1,0,0,0,-2,-3,0,-5,-3,-5
0,0,2,0,-1,1,-2,-3,0,-5,-3,-5
-3,0,3,1,-3,2,-1,-2,1,-5,-2,-4
-6,-1,4,3,-5,2,0,-1,2,-4,-1,-3
-8,-2,6,4,-6,2,0,-1,2,-4,-1,-3
-9,-2,7,6,-8,3,0,0,3,-3,0,-2
-10,-2,8,6,-9,3,0,0,3,-3,0,-2
-7,-1,7,5,-7,3,0,0,3,-2,0,-2
-5,0,6,3,-5,3,0,1,4,-2,0,-2
-5,0,6,2,-5,3,0,1,4,-2,0,-2
-6,0,7,3,-6,4,1,2,4,-2,0,-2
-8,0,7,4,-7,4,1,2,4,-2,0,-2
-9,-2,6,5,-7,2,1,1,4,-3,0,-2
-8,-4,4,6,-6,1,1,0,4,-3,0,-2
-7,-3,4,5,-6,0,2,0,4,-2,0,-2
-6,-3,4,5,-5,1,1,-1,4,-2,0,-2
-6,-3,4,5,-5,1,1,-2,4,-2,0,-3
-8,-2,5,5,-6,1,1,-3,5,-1,0,-3
-8,-1,6,4,-7,2,0,-3,5,-1,0,-3
-7,0,6,3,-6,3,0,-3,4,-2,0,-3
-7,0,6,2,-6,3,0,-3,4,-2,-1,-3
-7,0,7,2,-7,4,0,-2,3,-2,-1,-3
-6,0,5,3,-6,3,0,-2,2,-2,-1,-3
-5,-2,3,3,-4,1,0,-2,2,-2,-2,-3
-4,-3,1,3,-2,0,0,-1,2,-2,-1,-3
-2,-3,-1,3,-1,-1,0,-1,2,-2,-1,-3
0,-2,-2,1,1,-2,0,0,2,-2,-2,-4
1,0,-2,-1,2,-1,-1,-1,1,-2,-2,-4
3,2,-1,-3,2,0,-2,-2,1,-3,-2,-5
4,3,-1,-5,3,1,-3,-2,1,-3,-3,-5
4,5,1,-5,1,3,-2,-2,1,-3,-2,-4
1,5,4,-3,-2,5,-1,-1,2,-2,-1,-3
-3,4,7,-1,-5,6,-1,0,3,0,0,-2
-4,4,8,0,-7,6,0,1,5,1,1,-1
-4,5,9,0,-6,7,2,2,6,2,2,0
-4,5,9,-1,-6,7,2,2,7,2,3,0
-6,4,11,0,-8,7,3,2,8,3,3,0
-7,5,13,0,-10,8,3,3,8,3,3,1
-7,6,15,0,-11,10,3,3,9,4,4,1
-6,7,14,-1,-10,10,2,3,8,3,3,1
-3,7,10,-2,-7,9,0,2,7,2,1,-1
0,6,6,-3,-3,6,-1,1,6,1,1,-2
0,5,5,-2,-3,5,-1,2,7,2,2,-1
-2,6,7,-2,-5,6,0,3,8,3,3,1
-4,6,11,-1,-7,8,0,4,10,5,5,2
-6,7,13,-1,-9,9,0,4,11,6,5,3
-5,8,14,-2,-10,11,0,4,10,6,5,3
-4,9,14,-3,-10,12,-1,4,9,6,5,3
-4,8,14,-2,-9,11,-2,4,8,6,5,3
-4,7,12,-1,-8,10,-3,4,7,5,4,2
-3,6,10,-1,-7,8,-3,3,7,5,4,2
-2,5,8,-1,-5,6,-4,2,7,5,4,1
-2,3,5,-1,-4,4,-5,1,8,5,4,1
0,2,3,-1,-2,2,-6,0,8,5,3,0
1,3,1,-3,0,2,-6,0,7,5,3,0
3,3,0,-4,1,2,-7,-1,7,4,2,0
5,4,0,-4,2,1,-7,-2,6,4,2,0
7,4,-2,-5,4,0,-8,-2,4,3,1,-1
6,3,-3,-4,4,0,-9,-2,3,2,0,-2
5,2,-2,-3,3,0,-10,-2,2,1,0,-2
4,4,0,-4,2,1,-11,-2,1,1,0,-2
3,5,2,-4,0,3,-10,-1,1,2,0,-1
2,5,3,-4,0,3,-9,-1,2,4,2,0
1,2,2,-2,0,2,-8,0,2,5,3,1
1,0,1,0,0,0,-7,0,2,5,3,1
2,0,0,0,0,0,-7,-1,2,4,2,0
3,0,-3,0,3,-2,-7,-2,1,2,1,0
5,0,-5,-1,5,-3,-7,-3,1,1,0,-1
6,0,-7,-2,7,-3,-8,-4,0,0,-1,-2
5,0,-6,-2,6,-3,-8,-4,-1,-1,-2,-3
4,0,-5,-2,5,-2,-7,-4,-1,-1,-2,-3
4,0,-4,-2,4,-2,-6,-5,-2,-1,-2,-3
3,0,-2,-1,2,-1,-6,-5,-2,-1,-2,-3
0,0,1,0,-1,0,-5,-4,-1,0,-1,-2
-2,1,3,1,-3,2,-4,-4,-1,0,-1,-2
-2,1,3,1,-3,3,-4,-5,-2,-1,-1,-2
-1,0,1,1,-1,1,-4,-6,-3,-1,-2,-2
-1,0,0,1,-1,0,-4,-7,-3,-2,-2,-3
-2,-1,0,2,-1,-1,-4,-8,-3,-2,-3,-4
-2,-2,1,2,-1,-1,-4,-8,-3,-2,-3,-4
-3,-3,0,2,-2,-2,-2,-7,-3,-2,-2,-3
-3,-4,0,3,-2,-2,-1,-7,-3,-2,-2,-3
-4,-5,1,4,-3,-2,-1,-7,-3,-2,-2,-3
-5,-4,2,4,-4,0,-1,-7,-3,-3,-3,-4
-4,-2,2,3,-3,1,-2,-8,-4,-4,-5,-5
-2,-3,0,2,-1,0,-1,-9,-4,-5,-6,-6
-1,-4,-3,2,0,-3,0,-9,-4,-5,-6,-6
-2,-5,-3,3,0,-4,0,-8,-4,-5,-5,-6
-4,-6,-2,5,-1,-4,1,-8,-4,-5,-5,-6
-6,-7,0,6,-3,-4,1,-9,-4,-5,-6,-7
-9,-8,2,7,-5,-3,1,-10,-4,-5,-6,-7
-12,-7,5,9,-8,-1,2,-10,-3,-5,-6,-7
-13,-7,7,10,-10,0,3,-9,-2,-4,-5,-6
-13,-7,6,10,-9,0,4,-9,-1,-4,-5,-6
-12,-7,5,10,-8,0,4,-8,-1,-4,-5,-6
-11,-7,4,10,-7,-2,4,-8,-1,-4,-5,-6
-9,-7,2,8,-5,-3,3,-8,-2,-5,-5,-6
-8,-6,2,7,-5,-3,2,-8,-4,-5,-6,-7
-8,-6,2,7,-5,-3,2,-8,-4,-6,-7,-8
-8,-6,2,7,-5,-3,1,-7,-4,-6,-7,-8
-8,-7,0,7,-4,-3,1,-6,-4,-6,-7,-8
-8,-8,0,8,-3,-3,2,-5,-3,-6,-6,-7
-7,-8,-1,7,-2,-4,2,-5,-3,-5,-6,-7
-4,-8,-4,6,0,-5,1,-6,-4,-6,-7,-8
-3,-8,-4,6,1,-6,0,-6,-5,-6,-8,-8
-5,-8,-1,7,-2,-4,1,-5,-3,-5,-7,-7
-7,-9,0,8,-3,-4,2,-5,-2,-4,-6,-7
-7,-10,-1,9,-3,-5,2,-5,-2,-5,-6,-7
-7,-10,-1,9,-2,-5,2,-6,-3,-5,-7,-8
-7,-8,-1,8,-2,-4,2,-7,-3,-5,-7,-8
-6,-5,0,6,-3,-2,2,-7,-3,-5,-7,-8
-7,-4,2,5,-4,0,2,-8,-3,-5,-7,-8
-7,-3,3,5,-5,0,2,-8,-3,-5,-7,-8
-7,-4,3,5,-5,-1,1,-9,-3,-5,-7,-8
-7,-7,1,7,-5,-3,1,-9,-4,-5,-7,-9
-8,-9,0,8,-4,-5,1,-9,-4,-6,-8,-9
-8,-10,-1,9,-4,-6,1,-9,-4,-6,-8,-9
-9,-11,-1,10,-5,-6,0,-8,-4,-6,-8,-9
-11,-10,1,11,-7,-4,1,-7,-4,-5,-7,-8
-12,-10,2,11,-8,-3,1,-6,-3,-4,-6,-7
-12,-10,1,11,-7,-4,1,-6,-3,-4,-6,-7
-12,-11,1,11,-7,-4,1,-5,-3,-4,-6,-7
-12,-11,2,11,-8,-4,1,-4,-3,-3,-6,-6
-11,-10,2,10,-7,-4,1,-4,-2,-3,-6,-6
-10,-9,1,9,-6,-4,1,-4,-1,-3,-6,-7
-9,-9,1,8,-6,-4,0,-5,-2,-3,-6,-7
-9,-8,2,8,-6,-3,0,-6,-3,-4,-7,-8
-10,-7,2,8,-6,-3,0,-7,-3,-4,-7,-8
-8,-6,2,7,-5,-2,0,-8,-4,-5,-8,-9
-5,-6,0,5,-2,-3,-2,-9,-5,-6,-9,-10
-3,-6,-2,4,0,-3,-2,-10,-5,-6,-10,-11
-5,-6,0,6,-2,-3,-1,-9,-4,-5,-9,-10
-9,-7,2,8,-5,-2,0,-7,-3,-4,-8,-8
-9,-6,4,8,-7,-1,2,-6,-2,-3,-6,-7
-9,-5,5,7,-7,-1,2,-5,-1,-2,-6,-7
-11,-6,5,8,-8,-1,1,-5,-1,-2,-6,-7
-12,-7,5,9,-8,-1,0,-5,-2,-2,-6,-7
-11,-6,5,9,-8,-1,0,-5,-2,-2,-6,-7
-11,-5,6,8,-8,0,0,-5,-2,-2,-6,-7
-11,-4,7,7,-9,1,-1,-6,-1,-2,-7,-7
-11,-4,7,7,-9,2,-1,-6,-1,-3,-7,-7
-10,-4,5,7,-8,0,-1,-7,-2,-3,-7,-7
-10,-7,2,8,-6,-3,-1,-7,-3,-3,-7,-7
-9,-9,-1,9,-4,-6,-1,-6,-3,-3,-7,-7
-8,-11,-4,9,-2,-8,-1,-6,-3,-3,-7,-7
-7,-12,-5,10,-1,-8,-1,-5,-3,-3,-7,-8
-7,-12,-4,10,-1,-7,0,-4,-2,-3,-7,-8
-7,-11,-4,9,-2,-6,0,-3,-2,-3,-7,-8
-7,-11,-3,9,-2,-6,0,-2,-2,-3,-7,-8
-7,-10,-2,9,-3,-6,0,1,-1,-2,-7,-7
-6,-9,-2,7,-2,-6,0,5,1,0,-5,-6
-3,-7,-4,5,0,-6,-1,10,3,4,-2,-4
1,-5,-6,2,4,-6,-3,15,7,9,2,-1
8,-3,-11,-3,10,-7,-6,21,12,16,9,4
18,0,-17,-9,18,-8,-9,29,18,25,17,12
29,3,-25,-16,27,-10,-14,36,24,35,27,20
43,9,-33,-26,38,-11,-18,43,31,47,37,29
56,16,-39,-36,47,-11,-22,49,37,58,47,39
67,23,-44,-45,55,-11,-26,52,39,68,57,48
77,29,-48,-53,62,-10,-31,51,40,77,65,56
84,36,-48,-60,66,-7,-34,47,38,84,73,63
85,42,-44,-64,65,-2,-36,38,32,88,79,70
85,47,-38,-66,62,4,-39,20,21,89,82,75
83,51,-32,-67,58,10,-44,-8,2,84,81,77
78,53,-24,-66,51,15,-50,-46,-22,73,75,75
69,53,-16,-61,42,19,-55,-88,-48,57,63,69
58,50,-8,-54,33,21,-59,-126,-74,37,48,61
44,46,1,-45,21,23,-59,-158,-95,16,31,50
28,40,12,-34,8,25,-58,-180,-111,-2,16,39
13,34,20,-24,-3,26,-56,-193,-121,-17,3,28
3,25,22,-15,-9,23,-52,-193,-123,-29,-8,18
-2,13,16,-6,-9,15,-47,-184,-122,-39,-18,7
-2,0,3,0,-2,3,-44,-171,-119,-47,-28,-4
1,-9,-9,4,5,-9,-43,-155,-113,-52,-35,-12
2,-16,-17,7,10,-16,-41,-137,-105,-53,-39,-18
2,-18,-21,8,11,-20,-39,-119,-94,-51,-39,-20
2,-18,-21,8,11,-21,-35,-101,-81,-47,-37,-20
2,-15,-18,6,10,-18,-31,-84,-68,-41,-32,-18
2,-11,-13,5,8,-13,-27,-70,-55,-34,-27,-16
1,-8,-8,4,6,-8,-24,-57,-45,-28,-22,-14
0,-5,-4,3,3,-4,-21,-47,-36,-23,-18,-11
-1,-3,0,2,0,-1,-17,-39,-29,-18,-15,-9
-2,-2,1,2,-1,0,-13,-30,-22,-14,-12,-7
-3,-2,0,2,-1,-1,-10,-23,-17,-11,-11,-6
-4,-3,1,3,-3,-2,-8,-17,-12,-9,-10,-6
-7,-3,3,5,-5,-1,-7,-12,-8,-8,-10,-6
-9,-2,5,5,-7,0,-6,-8,-5,-7,-9,-7
-8,-2,6,5,-7,1,-5,-5,-3,-6,-8,-7
-7,-2,5,4,-6,1,-4,-3,-2,-5,-6,-6
-6,-4,3,5,-4,0,-3,-3,-1,-4,-6,-6
-4,-4,1,4,-3,-1,-3,-3,-1,-4,-6,-6
-3,-4,0,3,-1,-2,-2,-2,-1,-4,-6,-6
-5,-4,0,4,-3,-2,0,-1,0,-4,-6,-5
-9,-5,3,6,-6,-2,0,0,1,-4,-6,-5
-12,-6,4,8,-8,-1,0,0,2,-4,-6,-5
-12,-6,4,8,-8,-1,0,1,3,-3,-6,-5
-10,-6,3,8,-6,-2,0,1,3,-3,-5,-5
-8,-7,0,7,-4,-3,0,1,3,-3,-5,-5
-5,-7,-1,6,-2,-3,0,2,2,-3,-5,-5
-5,-6,0,5,-2,-3,0,2,2,-3,-5,-5
-6,-6,1,5,-3,-3,0,2,2,-3,-6,-5
-6,-5,1,5,-4,-3,-1,2,3,-4,-7,-6
-6,-4,2,4,-4,-2,-1,2,3,-5,-8,-7
-6,-4,2,4,-4,-1,-2,2,3,-6,-8,-8
-7,-4,2,5,-4,-1,-2,3,3,-6,-8,-8
-8,-6,1,7,-4,-2,-2,3,3,-5,-7,-8
-8,-8,0,8,-4,-3,-3,2,3,-5,-7,-7
-7,-8,0,8,-3,-3,-3,2,3,-4,-6,-7
-6,-6,1,6,-3,-2,-2,2,4,-4,-6,-6
-7,-5,1,6,-4,-2,-1,2,4,-3,-5,-5
-9,-6,2,7,-4,-3,-1,2,4,-3,-5,-5
-8,-6,1,7,-3,-3,-2,2,4,-3,-5,-5
-7,-7,0,6,-2,-3,-2,3,4,-3,-5,-5
-7,-7,0,6,-2,-2,-2,3,4,-3,-5,-4
-7,-5,3,6,-4,0,-1,4,4,-2,-5,-4
-5,-3,4,4,-4,1,-1,5,4,-2,-5,-4
-3,-1,3,2,-2,0,-1,5,4,-2,-5,-5
-3,-3,0,3,-1,-2,-1,5,3,-2,-5,-5
-4,-6,-1,5,-1,-4,-1,5,3,-2,-5,-5
-4,-7,-3,5,0,-5,-1,5,3,-2,-5,-5
-2,-6,-4,3,1,-5,-2,5,3,-3,-6,-6
-1,-5,-3,3,1,-4,-2,5,3,-3,-6,-6
-2,-6,-2,3,0,-3,-2,5,3,-3,-6,-5
-2,-6,-2,4,0,-3,-2,5,3,-3,-6,-5
-3,-5,-1,4,-1,-3,-2,4,2,-4,-6,-6
-3,-4,-1,4,-1,-3,-2,4,3,-3,-6,-5
-3,-4,-1,3,-1,-3,-1,5,4,-2,-6,-5
-3,-5,-2,3,0,-4,-1,5,4,-2,-5,-4
-2,-7,-6,4,2,-6,-2,5,4,-2,-6,-5
-1,-9,-8,5,4,-8,-2,5,3,-2,-6,-5
-1,-9,-8,5,4,-8,-2,5,3,-1,-5,-5
-1,-8,-7,5,3,-7,-1,5,4,-1,-5,-5
0,-8,-7,5,3,-7,-2,5,4,-1,-6,-5
-1,-8,-7,5,3,-7,-2,4,5,-1,-6,-5
-3,-7,-5,6,1,-6,-3,5,6,0,-5,-5
-4,-6,-3,5,0,-5,-3,6,6,1,-5,-4
-4,-5,-1,5,-1,-3,-3,6,7,1,-4,-5
-4,-5,0,4,-2,-2,-3,6,7,1,-4,-5
-4,-5,0,4,-2,-2,-4,5,7,1,-4,-5
-4,-4,0,4,-2,-1,-4,5,7,1,-4,-5
-4,-4,1,5,-2,-1,-5,5,7,1,-4,-5
-5,-5,1,6,-2,-2,-5,6,7,2,-4,-5
-5,-6,0,6,-1,-3,-4,7,7,3,-4,-4
-3,-6,-2,5,0,-4,-4,8,7,4,-3,-4
-2,-7,-4,4,1,-5,-4,8,7,5,-3,-4
-3,-7,-3,5,0,-5,-4,9,7,5,-3,-3
-5,-7,-2,5,-1,-4,-4,10,8,6,-2,-3
-5,-6,-1,6,-2,-4,-3,11,8,7,-2,-2
-5,-6,0,6,-2,-4,-3,11,9,7,-1,-2
-5,-6,0,6,-2,-3,-4,11,9,7,-1,-2
-5,-5,0,5,-2,-3,-4,11,9,7,-2,-3
-4,-3,1,4,-2,-1,-5,11,8,7,-2,-3
-3,-2,1,2,-2,0,-5,11,8,7,-2,-4
-2,-2,0,2,-1,-1,-6,11,8,7,-3,-4
0,-2,-2,1,1,-2,-7,10,8,7,-4,-5
2,-3,-5,0,4,-4,-8,9,7,6,-4,-5
4,-3,-7,0,6,-5,-9,10,7,7,-5,-5
3,-3,-6,0,5,-5,-9,10,8,7,-4,-5
2,-2,-4,0,4,-3,-9,11,8,8,-3,-4
1,-2,-2,1,2,-2,-9,13,9,9,-2,-4
0,-1,-1,1,1,-1,-8,14,9,10,-1,-3
0,-1,-1,0,1,-1,-8,15,10,11,-1,-2
2,-1,-4,-1,3,-2,-8,16,11,12,0,-2
4,-1,-6,-2,6,-3,-9,16,11,12,0,-1
5,-1,-7,-2,6,-4,-8,16,12,13,0,-1
6,-1,-7,-2,6,-3,-8,16,12,13,0,-1
7,0,-7,-3,8,-3,-9,15,12,13,0,-1
8,0,-8,-4,8,-4,-9,15,12,13,0,-1
8,0,-7,-4,8,-3,-9,17,14,15,1,0
7,0,-6,-3,7,-3,-9,19,15,16,2,0
6,0,-6,-3,6,-3,-9,20,15,17,2,0
4,-1,-5,-2,5,-3,-9,20,15,18,2,1
4,0,-4,-2,4,-2,-9,21,15,19,3,2
6,2,-4,-4,5,-1,-10,21,15,19,3,2
8,4,-4,-6,7,0,-11,20,15,19,3,2
9,5,-4,-7,7,0,-12,21,15,20,4,3
9,4,-5,-7,7,0,-11,22,16,21,5,4
10,4,-5,-7,8,-1,-11,24,17,23,6,5
9,4,-4,-7,7,0,-11,25,17,23,7,5
7,4,-3,-6,5,0,-12,26,18,24,7,6
5,3,-1,-5,3,1,-12,27,19,25,8,7
4,4,0,-4,2,2,-11,28,20,26,9,8
3,4,1,-3,1,2,-11,29,20,27,10,8
3,5,2,-4,1,3,-11,30,21,28,10,9
6,8,2,-7,2,5,-12,31,21,29,11,10
9,10,2,-10,4,6,-13,31,21,30,11,9
11,11,0,-11,6,5,-14,31,20,29,10,8
13,11,-3,-12,8,4,-16,30,19,28,9,7
14,10,-4,-12,9,2,-17,28,17,27,8,6
15,9,-6,-12,10,1,-18,27,16,27,7,5
16,9,-7,-12,12,0,-19,27,16,27,8,6
16,9,-7,-12,12,0,-19,28,17,28,9,7
15,10,-5,-12,10,2,-19,28,18,28,10,8
13,11,-1,-12,8,5,-19,29,18,29,10,8
13,10,-2,-12,8,4,-19,29,19,30,11,9
14,9,-5,-12,10,2,-18,29,20,30,11,9
15,9,-7,-12,11,1,-18,28,21,31,12,10
15,10,-5,-12,10,2,-17,28,21,32,12,10
14,11,-3,-13,9,4,-17,28,21,32,13,11
15,12,-3,-13,9,4,-17,28,22,33,14,11
17,11,-5,-13,11,3,-18,28,22,33,14,12
18,9,-7,-13,12,1,-19,27,21,33,14,11
19,9,-9,-13,14,0,-19,26,20,33,13,11
20,10,-9,-15,14,0,-19,26,20,33,13,12
20,11,-9,-15,14,1,-19,26,20,33,13,12
19,12,-8,-15,13,1,-19,25,19,32,13,11
19,13,-7,-16,13,2,-20,24,18,32,12,11
19,13,-6,-16,13,3,-21,23,17,32,12,10
18,12,-6,-15,12,3,-21,22,16,31,12,10
17,10,-6,-13,11,2,-21,20,15,30,11,10
16,9,-6,-12,11,1,-21,19,15,30,11,9
18,9,-8,-13,13,0,-21,18,14,30,11,9
19,9,-10,-14,14,0,-21,18,14,30,11,9
17,8,-10,-13,13,-1,-20,17,15,31,12,10
15,7,-9,-11,11,-1,-19,16,15,31,12,10
13,7,-7,-10,10,0,-19,15,15,30,12,10
13,7,-6,-10,9,0,-19,14,14,30,11,10
13,7,-6,-10,10,0,-19,13,13,29,10,9
13,6,-7,-10,10,0,-20,11,12,27,9,8
13,6,-7,-9,10,-1,-20,10,11,26,8,7
12,6,-7,-9,10,0,-19,10,11,26,8,7
11,6,-5,-8,8,1,-18,10,12,27,8,8
9,6,-3,-8,6,2,-17,10,12,26,8,7
9,6,-4,-8,6,1,-16,9,11,25,7,6
10,5,-5,-8,7,0,-16,8,11,24,6,6
11,6,-6,-8,8,0,-16,7,10,23,6,5
11,7,-5,-9,8,1,-16,6,10,23,5,5
11,6,-5,-8,8,0,-17,5,9,23,5,4
8,4,-4,-6,6,0,-18,4,8,22,4,3
5,3,-2,-3,3,0,-18,2,7,20,3,2
4,3,-1,-4,2,1,-18,0,7,19,2,1
6,4,-2,-5,4,1,-18,-1,6,18,1,0
9,4,-5,-6,7,0,-18,-3,5,17,0,0
10,3,-7,-6,8,-2,-18,-3,5,17,0,0
7,1,-7,-4,7,-3,-17,-4,5,17,0,0
4,0,-5,-1,5,-3,-17,-4,5,16,0,0
1,-1,-3,0,3,-2,-17,-3,5,16,0,-1
1,0,-2,-1,3,-1,-16,-3,5,16,0,-1
3,2,-2,-3,3,0,-15,-2,6,16,0,-1
4,1,-3,-3,4,-1,-16,-2,5,15,-1,-1
4,0,-5,-2,4,-2,-17,-3,4,15,-1,-2
5,-1,-5,-2,5,-2,-17,-2,4,15,-1,-2
6,-1,-7,-2,6,-3,-16,-2,5,15,-1,-1
6,-1,-7,-2,6,-4,-15,-2,5,15,-1,-1
5,0,-6,-2,5,-3,-15,-3,5,14,-1,-1
4,0,-5,-1,4,-3,-15,-3,4,14,-1,-1
4,-1,-6,-1,5,-4,-16,-4,3,13,-1,-2
4,-3,-7,-1,6,-5,-17,-5,2,13,-2,-2
4,-3,-8,0,6,-5,-16,-6,2,13,-2,-2
5,-3,-8,0,6,-6,-16,-6,3,13,-2,-1
6,-4,-10,-1,8,-7,-16,-6,3,13,-2,-2
8,-5,-13,-1,10,-9,-17,-7,1,12,-3,-3
9,-5,-14,-2,12,-10,-18,-7,1,11,-4,-4
9,-5,-15,-2,12,-10,-18,-6,1,12,-4,-3
9,-5,-14,-2,11,-10,-17,-4,2,12,-3,-3
6,-5,-12,-1,9,-8,-17,-3,3,13,-2,-3
4,-4,-9,-1,6,-6,-17,-4,3,13,-2,-2
4,-2,-7,-1,5,-4,-17,-5,3,13,-2,-2
3,-2,-5,-1,3,-3,-17,-5,3,13,-2,-2
0,-2,-3,1,1,-3,-17,-5,3,13,-2,-2
-2,-3,-1,2,0,-3,-17,-5,3,12,-2,-2
-2,-3,-1,3,0,-2,-16,-5,3,12,-2,-2
-2,-3,-1,2,0,-2,-16,-5,3,12,-2,-2
0,-2,-2,0,1,-2,-17,-5,2,11,-2,-2
2,-1,-3,-1,2,-2,-18,-5,1,11,-3,-3
3,-2,-4,-1,3,-3,-18,-6,1,11,-3,-3
4,-3,-6,0,5,-5,-18,-6,0,10,-4,-4
3,-5,-8,0,5,-6,-18,-6,0,10,-4,-4
2,-5,-8,1,5,-6,-18,-6,0,10,-4,-4
1,-5,-7,1,4,-5,-17,-5,0,11,-3,-3
2,-3,-7,0,5,-5,-17,-5,1,11,-3,-3
4,-1,-6,-1,5,-4,-17,-5,1,11,-3,-3
3,-1,-5,-1,4,-3,-17,-5,2,11,-3,-3
2,-2,-4,0,3,-3,-16,-5,2,11,-3,-3
2,-3,-5,0,3,-4,-16,-5,2,11,-3,-2
1,-4,-5,1,2,-4,-16,-5,2,10,-3,-2
1,-4,-5,1,3,-4,-17,-5,2,10,-3,-2
2,-3,-6,0,4,-4,-17,-6,2,9,-3,-3
3,-1,-6,-1,5,-4,-18,-6,2,9,-3,-3
3,0,-5,-1,4,-3,-18,-6,2,9,-3,-3
2,0,-3,-1,3,-2,-18,-5,2,10,-2,-2
1,0,-2,0,2,-2,-17,-5,2,11,-2,-1
2,-1,-3,0,2,-2,-17,-6,2,10,-2,-1
3,-1,-4,-1,3,-3,-17,-7,1,10,-2,-2
3,0,-4,-1,4,-2,-17,-7,2,10,-2,-2
3,0,-4,-1,4,-2,-17,-7,2,9,-2,-2
3,0,-4,-1,4,-2,-17,-7,2,9,-2,-2
3,0,-4,-1,4,-2,-17,-6,2,10,-2,-2
2,-2,-5,0,4,-4,-17,-6,2,10,-2,-1
1,-3,-5,0,3,-5,-17,-5,2,10,-2,-1
1,-4,-5,1,3,-5,-18,-5,2,10,-2,-1
2,-3,-5,0,3,-4,-18,-5,2,10,-2,-1
3,-2,-4,0,3,-3,-18,-5,2,10,-2,-1
3,-1,-4,0,3,-2,-18,-5,2,9,-2,-2
3,0,-4,-1,3,-2,-18,-6,1,9,-3,-2
3,0,-3,-1,3,-2,-18,-6,1,8,-3,-3
4,0,-3,-2,4,-2,-19,-6,1,8,-3,-3
5,0,-5,-2,5,-4,-19,-6,1,8,-3,-3
7,-1,-8,-3,7,-5,-20,-7,1,7,-3,-3
6,0,-6,-2,6,-4,-20,-7,1,7,-3,-3
3,0,-2,-1,2,-1,-19,-7,2,8,-3,-2
1,1,0,-1,1,0,-19,-7,2,8,-2,-2
1,0,0,0,0,0,-18,-7,2,8,-2,-1
0,0,0,0,0,0,-18,-6,2,8,-1,-1
0,0,0,0,0,0,-18,-5,2,8,-2,-1
1,0,-2,0,2,-1,-19,-5,1,8,-2,-2
3,1,-2,-2,3,0,-18,-4,1,8,-2,-1
4,3,-2,-3,3,0,-18,-3,1,8,-2,-1
4,2,-3,-3,3,0,-19,-2,1,8,-2,-1
3,1,-3,-2,3,0,-19,-1,1,8,-2,-1
2,0,-3,-1,2,-1,-18,-1,2,9,-1,0
2,0,-4,0,3,-2,-18,-1,3,9,0,0
2,-1,-5,0,4,-3,-18,-2,2,9,0,0
2,0,-4,-1,3,-2,-17,-3,2,9,0,0
2,0,-2,-1,2,-1,-16,-3,3,10,0,0
0,0,-1,0,1,-1,-16,-3,3,10,0,0
-1,-2,0,1,-1,-1,-16,-3,3,10,0,0
0,-1,0,1,0,0,-16,-2,5,11,0,1
0,-1,-1,0,0,0,-16,-1,6,11,1,1
-1,-1,0,1,-1,0,-16,-1,6,11,1,2
-3,-2,1,2,-2,0,-16,-2,6,11,1,2
-1,0,1,0,0,1,-17,-2,6,11,1,2
3,2,0,-3,2,1,-17,-3,5,10,1,1
5,3,-2,-5,4,0,-17,-3,5,10,1,1
5,3,-1,-4,4,1,-17,-2,6,10,1,1
4,5,1,-4,2,3,-17,-1,7,11,1,2
3,7,3,-5,0,5,-18,-1,7,11,2,3
4,8,3,-5,0,5,-19,-1,7,11,2,3
3,7,3,-5,0,5,-20,-1,6,11,2,3
2,6,3,-4,0,5,-20,-1,6,10,2,3
2,6,4,-5,0,5,-20,-1,6,10,2,3
4,7,3,-6,1,5,-21,-2,6,10,2,2
5,7,2,-7,2,4,-22,-4,5,9,1,2
6,6,0,-7,3,3,-22,-4,4,8,0,1
7,6,-1,-7,4,3,-22,-4,4,8,0,1
9,7,-2,-7,5,2,-23,-4,4,8,0,1
11,7,-3,-8,7,2,-24,-5,3,7,0,1
11,6,-5,-8,8,1,-24,-5,2,6,-1,0
10,5,-5,-7,8,0,-24,-4,2,6,-1,0
8,4,-4,-6,6,0,-24,-3,1,6,0,0
6,3,-3,-5,4,0,-25,-3,1,6,0,0
7,3,-3,-5,5,0,-25,-3,0,6,0,1
9,3,-5,-6,7,-1,-25,-3,0,6,0,1
10,3,-7,-6,8,-2,-26,-4,-1,5,0,0
11,2,-9,-6,10,-3,-26,-5,-1,5,-1,0
13,2,-12,-7,12,-4,-27,-5,-2,5,-1,0
14,2,-11,-8,12,-4,-27,-4,-2,5,-1,1
12,3,-8,-8,10,-2,-26,-4,-1,5,0,2
10,3,-5,-7,7,-1,-26,-3,-1,5,0,2
7,4,-3,-6,5,0,-25,-3,0,5,0,3
5,4,0,-5,2,1,-25,-3,0,5,0,2
3,3,0,-3,1,1,-25,-4,-1,4,0,1
3,3,0,-3,2,1,-25,-6,-2,3,-1,0
4,3,-1,-2,3,0,-24,-6,-2,3,-2,0
4,2,-2,-2,4,0,-24,-7,-3,2,-2,-1
4,1,-2,-2,4,-1,-23,-7,-3,2,-3,-1
4,2,-2,-2,3,0,-22,-7,-4,1,-3,-1
6,2,-3,-4,5,-1,-22,-7,-4,0,-4,-2
10,1,-8,-6,9,-4,-22,-8,-5,0,-4,-3
11,0,-12,-5,12,-7,-22,-8,-6,-1,-5,-4
10,-1,-12,-4,11,-7,-21,-8,-6,-1,-5,-4
7,-1,-9,-2,8,-5,-21,-8,-5,-1,-5,-3
5,-3,-8,-1,6,-5,-20,-9,-5,-1,-5,-3
2,-5,-8,1,5,-6,-20,-9,-5,-1,-4,-3
0,-7,-8,3,4,-7,-18,-8,-4,-1,-4,-2
-2,-8,-6,4,2,-7,-17,-8,-4,-1,-3,-1
-3,-7,-4,4,0,-6,-16,-7,-3,0,-2,-1
-3,-5,-3,3,0,-4,-15,-7,-3,0,-2,-1
-2,-5,-3,3,0,-4,-15,-7,-4,-1,-3,-2
-3,-6,-4,5,0,-5,-15,-7,-5,-2,-4,-4
-3,-7,-4,5,1,-5,-14,-7,-5,-3,-5,-5
-3,-7,-4,5,0,-5,-14,-7,-5,-3,-5,-5
-3,-8,-3,6,0,-5,-13,-6,-5,-3,-5,-5
-3,-8,-4,6,0,-6,-13,-6,-5,-3,-5,-5
-4,-9,-4,6,0,-6,-13,-5,-4,-3,-5,-5
-5,-9,-3,7,-1,-6,-13,-5,-4,-3,-5,-5
-7,-9,-2,8,-2,-6,-12,-5,-4,-3,-5,-5
-9,-9,0,9,-4,-5,-11,-4,-3,-3,-5,-4
-9,-9,0,9,-4,-5,-10,-3,-3,-2,-5,-4
-8,-9,-2,9,-3,-6,-10,-4,-4,-3,-5,-4
-6,-9,-3,7,-1,-6,-11,-4,-5,-3,-6,-5
-4,-8,-4,6,0,-6,-12,-5,-5,-4,-6,-5
-3,-8,-4,5,1,-6,-13,-7,-6,-6,-7,-6
-1,-7,-5,4,2,-6,-13,-8,-7,-7,-9,-8
0,-6,-5,3,2,-6,-14,-9,-8,-8,-10,-9
0,-5,-5,3,2,-5,-14,-10,-8,-9,-10,-10
0,-5,-5,3,2,-5,-14,-9,-8,-9,-10,-11
-1,-5,-4,3,1,-5,-13,-8,-7,-8,-9,-10
-5,-5,0,5,-2,-3,-11,-6,-5,-6,-7,-8
-9,-6,2,8,-6,-2,-10,-4,-3,-4,-6,-7
-12,-8,3,10,-7,-3,-9,-4,-3,-4,-5,-6
-11,-10,1,11,-6,-5,-8,-4,-3,-4,-6,-6
-10,-11,-2,10,-4,-6,-8,-4,-3,-4,-6,-6
-9,-11,-2,10,-4,-6,-7,-4,-2,-3,-5,-6
-10,-10,-1,10,-5,-5,-7,-4,-2,-3,-5,-5
-10,-9,0,10,-6,-4,-8,-4,-2,-3,-5,-5
-10,-8,2,9,-6,-3,-8,-4,-2,-3,-5,-5
-10,-8,2,8,-6,-3,-8,-5,-2,-4,-5,-5
-9,-8,0,8,-4,-3,-8,-5,-3,-4,-5,-5
-8,-7,0,7,-4,-3,-8,-6,-4,-5,-5,-5
-7,-6,0,6,-4,-2,-10,-7,-5,-5,-6,-6
-7,-6,0,7,-4,-2,-11,-8,-6,-6,-7,-8
-7,-6,0,6,-3,-3,-12,-8,-6,-7,-8,-8
-6,-6,-1,6,-2,-3,-11,-6,-5,-6,-7,-8
-6,-7,-1,6,-2,-4,-11,-5,-4,-6,-7,-7
-6,-8,-1,7,-2,-5,-11,-4,-4,-6,-7,-8
-7,-10,-3,8,-2,-6,-11,-3,-5,-6,-7,-8
-6,-12,-6,8,0,-8,-11,-3,-5,-6,-7,-8
-5,-12,-8,8,1,-10,-11,-3,-6,-6,-8,-8
-6,-11,-6,8,0,-8,-10,-2,-5,-6,-7,-7
-7,-7,-1,7,-3,-4,-9,-1,-4,-5,-7,-6
-7,-6,1,7,-5,-2,-9,0,-4,-4,-6,-6
-9,-7,1,8,-5,-3,-9,0,-4,-4,-6,-6
-9,-9,0,9,-5,-4,-9,0,-4,-4,-6,-6
-7,-9,-2,8,-2,-5,-9,-1,-4,-5,-6,-6
-4,-8,-5,6,0,-6,-9,-2,-4,-6,-7,-7
-4,-9,-6,6,0,-7,-9,-3,-4,-6,-7,-8
-5,-9,-5,7,-1,-6,-10,-4,-4,-6,-7,-8
-6,-9,-3,7,-2,-6,-10,-5,-4,-6,-8,-8
-7,-9,-2,8,-3,-5,-10,-5,-5,-7,-8,-9
-7,-9,0,8,-4,-4,-10,-5,-5,-7,-8,-9
-8,-8,2,8,-5,-3,-10,-5,-5,-7,-8,-8
-10,-7,2,8,-6,-3,-9,-5,-4,-6,-7,-7
-10,-7,2,8,-6,-2,-8,-4,-3,-5,-5,-6
-10,-7,2,9,-6,-2,-7,-3,-2,-4,-4,-4
-11,-8,1,9,-6,-3,-7,-4,-2,-4,-5,-5
-8,-9,-1,9,-4,-5,-8,-5,-3,-5,-6,-6
-5,-10,-5,7,0,-7,-9,-6,-5,-7,-8,-7
-2,-10,-8,6,3,-9,-10,-6,-6,-8,-9,-9
0,-9,-9,5,4,-9,-11,-7,-7,-10,-10,-10
-1,-8,-6,4,3,-7,-11,-5,-7,-10,-10,-10
-3,-6,-2,4,0,-4,-10,-3,-5,-9,-9,-10
-5,-5,0,4,-2,-3,-9,0,-4,-7,-8,-9
-4,-5,0,4,-2,-3,-7,3,-2,-5,-7,-8
-2,-7,-5,4,1,-6,-7,7,-1,-3,-5,-7
1,-9,-10,4,5,-10,-8,10,0,-1,-3,-5
3,-8,-12,3,7,-10,-10,14,1,4,1,-1
8,-5,-13,-1,11,-9,-12,21,6,12,8,5
18,0,-18,-8,18,-9,-16,28,11,21,17,12
31,5,-26,-18,29,-10,-21,34,17,31,26,20
45,10,-35,-28,40,-12,-26,41,24,41,36,29
58,16,-42,-38,50,-12,-31,47,30,52,46,37
69,21,-47,-46,58,-12,-35,53,34,63,56,46
80,27,-52,-54,66,-12,-39,55,36,73,66,55
87,34,-53,-60,70,-10,-41,53,34,80,74,64
90,39,-51,-64,70,-6,-43,45,29,85,80,71
90,45,-45,-67,67,0,-45,29,20,85,82,76
86,50,-36,-68,61,7,-47,4,4,81,81,79
78,53,-24,-66,51,15,-50,-30,-16,71,76,78
66,53,-12,-60,39,21,-52,-70,-40,56,66,73
49,49,0,-50,24,25,-54,-109,-64,37,52,65
32,44,12,-39,10,28,-55,-141,-84,17,37,55
16,40,23,-28,-3,31,-52,-163,-99,0,22,44
4,34,29,-18,-13,31,-50,-177,-109,-17,7,32
-3,24,27,-10,-15,25,-48,-182,-116,-32,-7,19
-7,13,20,-3,-13,16,-45,-178,-118,-45,-21,5
-9,1,11,3,-10,7,-42,-168,-117,-55,-32,-7
-10,-7,3,7,-6,-1,-40,-153,-113,-60,-38,-16
-8,-12,-4,8,-2,-7,-39,-135,-105,-60,-41,-20
-6,-14,-9,9,1,-11,-38,-117,-95,-57,-40,-21
-4,-13,-10,9,2,-12,-36,-99,-83,-52,-38,-22
-3,-10,-8,8,2,-10,-32,-83,-70,-47,-35,-21
-3,-6,-4,6,1,-6,-29,-69,-57,-40,-30,-19
-3,-3,0,4,0,-2,-26,-57,-46,-34,-26,-16
-5,-1,4,3,-4,2,-22,-46,-37,-28,-21,-13
-7,0,8,3,-7,4,-18,-36,-29,-22,-16,-10
-9,0,9,3,-9,4,-16,-27,-24,-19,-13,-9
-8,-1,8,3,-8,3,-14,-19,-19,-17,-11,-8
-7,-1,7,4,-7,2,-11,-12,-15,-14,-10,-7
-7,-1,6,5,-7,2,-9,-6,-11,-12,-9,-7
-7,-2,5,6,-6,1,-8,-3,-8,-11,-8,-7
-6,-4,2,6,-3,-1,-7,-2,-6,-10,-8,-7
-5,-6,-1,6,-1,-3,-6,-1,-4,-9,-8,-7
-3,-7,-3,5,0,-4,-6,0,-4,-9,-8,-8
-2,-7,-3,4,0,-5,-6,0,-4,-9,-8,-8
-4,-6,-2,4,-1,-4,-5,1,-4,-9,-8,-8
-5,-5,1,5,-4,-2,-4,3,-2,-9,-8,-7
-7,-5,3,5,-5,-1,-3,4,-1,-9,-8,-7
-8,-4,4,6,-6,0,-3,5,0,-8,-7,-6
-9,-4,4,6,-6,0,-3,5,1,-8,-7,-6
-9,-5,3,6,-6,-1,-3,5,2,-7,-6,-6
-8,-5,2,6,-5,-1,-3,6,2,-7,-5,-5
-8,-5,3,6,-6,-1,-2,7,3,-6,-4,-4
-9,-5,4,7,-7,0,-1,8,3,-5,-3,-4
-9,-6,4,7,-8,-1,0,8,3,-5,-3,-4
-8,-7,1,7,-5,-3,-1,8,2,-6,-4,-5
-6,-8,-2,7,-2,-5,-2,7,2,-8,-6,-6
-5,-7,-3,7,-1,-6,-2,7,1,-9,-6,-7
-5,-6,-2,7,-1,-4,-2,7,1,-9,-6,-7
-5,-5,0,6,-2,-2,-2,7,1,-9,-6,-7
-5,-4,0,5,-2,-1,-2,7,1,-9,-6,-7
-5,-4,1,4,-3,-1,-2,7,1,-9,-6,-7
-6,-4,2,5,-5,0,-2,7,1,-9,-6,-7
-7,-4,3,6,-6,-1,-2,9,2,-8,-5,-6
-7,-6,1,7,-5,-3,-2,10,3,-8,-5,-6
-6,-7,0,7,-3,-4,-2,11,3,-8,-5,-6
-5,-6,-1,6,-1,-4,-1,11,3,-8,-5,-6
-6,-6,0,6,-2,-3,0,12,3,-8,-4,-5
-9,-7,2,8,-5,-1,1,12,4,-7,-4,-4
-10,-8,2,8,-5,-2,2,12,4,-7,-4,-4
-7,-8,0,7,-3,-3,3,12,4,-7,-4,-4
-5,-7,-1,6,-2,-4,3,12,4,-7,-4,-4
-5,-7,-2,7,-1,-4,4,12,4,-8,-4,-4
-7,-8,-1,8,-2,-5,4,11,3,-8,-5,-5
-8,-8,0,9,-4,-4,4,11,2,-9,-5,-5
-9,-7,2,9,-5,-2,4,10,2,-10,-5,-6
-9,-6,3,9,-6,-1,5,10,2,-10,-5,-6
-8,-6,2,7,-5,-1,6,10,2,-10,-5,-6
-6,-6,0,6,-3,-2,6,10,2,-10,-5,-7
-5,-6,0,5,-3,-2,6,10,2,-11,-6,-7
-5,-5,0,5,-2,-3,6,10,2,-11,-6,-7
-4,-4,-1,4,-1,-3,6,9,2,-12,-6,-7
-5,-4,0,4,-2,-2,5,9,2,-12,-6,-7
-4,-3,0,4,-2,-1,5,9,2,-12,-6,-7
-3,-3,-1,3,-1,-2,5,9,1,-12,-6,-7
-2,-4,-2,3,0,-2,5,9,1,-12,-6,-7
-3,-4,-1,4,-1,-2,6,9,1,-12,-6,-7
-6,-6,0,6,-3,-2,6,9,1,-12,-7,-8
-7,-8,-2,7,-3,-4,6,9,0,-12,-7,-8
-5,-8,-4,6,-1,-5,7,10,1,-12,-6,-7
-3,-6,-4,4,0,-5,8,11,1,-11,-6,-7
-2,-5,-2,3,0,-4,8,12,2,-11,-5,-6
-4,-6,-1,5,-2,-4,10,13,3,-10,-4,-5
-6,-7,0,6,-3,-4,12,14,4,-9,-3,-4
-7,-7,1,7,-5,-3,13,14,4,-7,-2,-3
-9,-6,3,8,-6,-1,14,14,5,-6,-1,-2
-9,-6,4,8,-7,-1,14,14,5,-6,-1,-2
-8,-6,3,7,-6,-1,14,15,5,-6,-1,-2
-6,-5,2,6,-4,-1,14,15,5,-6,-1,-2
-5,-4,0,5,-3,-2,14,15,5,-7,-1,-3
-4,-4,0,4,-2,-2,13,16,4,-7,-1,-3
-4,-5,0,4,-2,-2,13,16,4,-7,-2,-4
-5,-6,0,5,-3,-3,12,16,4,-8,-2,-4
-5,-6,-1,6,-2,-3,12,17,4,-8,-2,-4
-4,-5,-1,5,-1,-3,12,17,4,-8,-2,-4
-3,-3,0,3,-1,-2,12,18,4,-8,-2,-4
-3,-1,1,2,-2,0,12,18,3,-8,-3,-4
-3,-1,2,2,-2,0,11,17,3,-9,-3,-5
-3,-2,1,3,-2,-1,11,17,3,-9,-3,-5
-3,-3,0,3,-2,-2,12,17,3,-8,-2,-4
-2,-2,0,2,-2,-1,13,17,4,-8,-1,-3
-1,-2,-1,1,-1,-1,13,17,4,-8,-1,-2
0,-2,-2,1,0,-1,13,17,4,-8,-1,-2
0,-1,-2,0,0,-1,12,17,5,-8,-1,-2
0,0,-1,0,0,0,12,18,6,-7,-1,-2
0,1,0,0,0,0,12,18,6,-7,-1,-2
2,0,-1,-1,1,0,12,18,6,-7,-1,-3
3,0,-1,-1,2,0,12,19,6,-7,0,-2
1,1,0,-1,0,1,13,20,7,-6,1,-1
0,1,1,0,-1,2,12,21,7,-5,2,-1
0,2,2,-1,-2,2,12,22,8,-5,2,0
-1,2,3,-1,-3,3,12,23,9,-3,3,0
-2,2,4,0,-3,3,13,23,10,-2,4,1
-3,1,4,1,-3,2,12,23,10,-2,5,2
-3,1,3,1,-2,1,12,23,10,-2,5,2
-1,0,1,0,0,0,11,22,10,-2,4,2
2,0,-2,-1,2,-1,10,21,9,-3,4,2
6,1,-5,-3,5,-2,8,20,8,-3,3,1
8,2,-5,-4,6,-1,7,21,8,-3,4,2
7,3,-3,-5,4,1,8,22,8,-3,4,2
6,4,-1,-5,3,2,8,22,9,-2,4,2
5,4,0,-5,3,2,8,23,9,-2,4,3
6,5,0,-5,3,2,9,24,10,0,6,4
5,6,1,-5,2,3,10,25,11,0,7,5
3,5,3,-3,0,4,10,26,12,1,8,7
3,5,2,-4,0,4,10,28,13,2,9,8
7,5,0,-6,3,2,10,28,13,2,10,8
9,5,-2,-7,5,1,9,28,11,2,9,7
9,5,-2,-7,5,1,8,27,11,1,9,7
8,6,-1,-7,4,2,8,28,11,2,10,7
7,7,0,-7,3,3,9,28,12,2,10,8
8,8,0,-8,3,4,8,27,12,2,11,8
9,10,0,-9,4,4,8,27,12,2,11,8
11,10,-1,-10,5,4,7,27,12,2,11,8
12,10,-2,-11,6,3,7,27,12,2,11,8
11,11,-1,-11,5,5,7,27,12,3,11,9
9,11,2,-10,3,7,7,28,12,4,12,10
8,11,3,-10,3,7,6,29,12,5,12,11
9,10,2,-10,3,6,5,29,12,5,13,11
10,10,1,-10,5,5,5,29,11,5,13,11
12,10,-1,-11,7,4,4,29,11,5,13,11
14,10,-3,-11,9,3,4,29,11,5,13,11
15,10,-5,-12,10,2,3,28,10,4,13,11
15,9,-6,-11,11,1,3,27,10,4,12,10
15,9,-6,-11,10,1,2,26,10,3,12,10
16,10,-6,-13,11,2,2,26,10,3,11,10
19,12,-7,-15,13,2,2,25,10,3,11,10
19,12,-6,-16,13,3,2,25,9,4,12,10
17,12,-4,-15,10,4,2,25,9,4,13,11
13,13,0,-13,6,6,3,24,10,5,14,13
10,13,2,-11,4,7,4,24,11,6,16,14
10,13,2,-11,3,8,5,23,11,7,17,14
9,12,2,-11,3,7,5,23,10,7,17,15
8,11,2,-10,2,6,5,22,10,6,16,15
8,10,2,-10,2,6,5,21,10,6,16,14
9,10,1,-11,3,6,5,19,10,6,15,13
11,11,0,-12,5,6,5,18,9,5,14,12
11,10,-1,-11,6,4,5,16,8,3,13,11
11,8,-2,-9,6,2,4,15,7,1,11,10
11,7,-4,-9,7,1,4,14,6,0,11,10
12,7,-4,-9,8,2,4,14,6,0,11,10
10,7,-2,-8,6,2,4,14,7,1,11,10
6,7,0,-7,3,3,5,15,7,1,11,10
4,7,2,-6,1,4,6,15,8,2,12,11
3,7,3,-6,0,5,7,15,8,1,11,11
4,7,3,-5,0,5,8,13,7,0,10,11
6,7,1,-6,2,4,8,12,6,-1,9,9
7,7,0,-6,3,3,8,10,5,-2,8,8
7,7,0,-6,3,4,8,9,5,-3,7,6
8,7,-1,-7,4,3,8,8,4,-4,6,5
9,6,-3,-7,6,1,8,7,3,-5,5,3
10,4,-5,-7,7,-1,7,5,2,-6,3,1
9,3,-6,-6,7,-2,7,5,2,-6,3,1
8,3,-5,-5,6,-1,8,6,3,-6,3,2
5,2,-4,-3,4,-1,9,6,3,-6,3,2
3,1,-2,-1,2,0,10,6,3,-7,3,3
2,1,-1,-1,1,0,10,5,2,-8,3,3
1,0,0,-1,1,0,10,5,1,-8,3,2
0,0,0,0,0,-1,10,5,1,-8,3,2
-1,0,1,0,0,0,11,4,1,-8,2,2
-1,0,1,0,-1,0,11,3,0,-9,2,1
0,0,1,0,0,0,12,3,0,-9,1,1
0,0,0,0,0,0,13,3,1,-8,1,1
-1,-1,0,1,0,-1,14,3,2,-8,1,1
-1,-3,0,2,0,-2,15,3,2,-9,1,1
-1,-3,-2,2,0,-3,14,2,1,-10,0,0
0,-3,-3,1,1,-3,13,1,0,-11,0,0
0,-2,-2,0,1,-3,12,0,0,-12,-1,-1
0,-2,-2,0,1,-2,11,0,-1,-12,-1,-1
0,-2,-2,1,1,-2,11,0,-1,-12,-1,-1
-2,-2,-1,2,0,-2,12,1,0,-11,-1,-1
-3,-3,-1,4,-1,-2,13,1,0,-11,0,-1
-3,-4,-1,4,-1,-3,13,1,0,-11,0,-1
-1,-4,-3,3,1,-3,13,0,-1,-11,-1,-1
1,-3,-4,1,2,-4,12,0,-1,-12,-1,-2
2,-3,-5,0,3,-3,13,0,-1,-11,-1,-2
0,-3,-3,1,1,-3,14,0,0,-11,-1,-1
-2,-3,-1,3,-1,-2,14,0,0,-11,-1,-1
-2,-3,-1,3,-1,-2,13,0,-1,-12,-2,-2
-1,-2,-1,2,0,-2,13,0,-2,-13,-2,-3
-1,-1,0,2,0,-1,13,0,-2,-13,-2,-4
-2,-1,1,2,-2,0,13,0,-2,-13,-2,-3
-4,-1,3,2,-4,1,14,1,0,-11,0,-1
-6,-2,4,3,-5,1,15,2,0,-10,0,0
-6,-3,4,4,-5,1,14,1,0,-10,0,0
-4,-2,2,3,-3,0,13,1,0,-10,0,0
-1,-1,0,1,0,0,13,0,0,-11,-1,-1
0,-1,-1,1,0,-1,14,0,-1,-11,-1,-1
0,-1,-2,1,1,-1,14,0,-1,-12,-2,-1
1,-2,-3,1,2,-2,13,0,-2,-12,-2,-2
2,-2,-4,0,3,-3,13,0,-2,-12,-2,-2
2,-3,-5,0,3,-3,13,0,-1,-11,-2,-1
0,-4,-4,1,2,-3,14,0,-1,-11,-1,-1
-1,-3,-1,2,0,-2,15,1,0,-10,-1,-1
-2,-1,1,2,-2,0,15,2,1,-10,-1,-1
-3,0,2,2,-3,1,15,2,0,-11,-1,-1
-4,0,3,3,-4,1,14,2,0,-12,-2,-2
-6,0,5,4,-5,2,14,1,0,-12,-3,-2
-6,0,6,3,-6,3,15,1,0,-12,-3,-2
-4,0,5,1,-4,3,15,1,0,-12,-3,-3
-2,1,4,0,-3,3,14,0,-1,-12,-3,-3
-3,1,5,1,-4,3,15,0,0,-11,-2,-3
-5,0,5,2,-5,3,16,1,1,-10,0,-1
-5,0,5,3,-4,2,17,2,2,-9,0,0
-5,-1,3,3,-3,0,18,2,2,-8,0,0
-6,-4,2,5,-4,-1,18,2,2,-8,0,0
-7,-5,3,6,-5,-1,19,2,2,-7,0,1
-5,-3,2,4,-4,0,19,2,2,-7,0,1
-3,-2,1,2,-2,0,19,2,2,-8,0,0
-2,-3,0,2,-1,-2,18,2,1,-9,0,0
-1,-4,-2,3,0,-3,17,2,0,-10,-1,-1
-1,-4,-3,3,1,-3,16,2,0,-10,-1,-2
-1,-4,-2,3,0,-2,17,3,1,-9,-2,-2
-2,-2,0,2,-1,0,17,4,2,-8,-1,-2
-3,-1,2,2,-3,1,18,5,2,-7,-1,-1
-4,-1,4,2,-4,2,19,6,3,-7,0,-1
-5,0,6,2,-5,3,20,6,3,-6,0,-1
-4,0,6,2,-5,3,20,6,3,-7,0,-1
-3,0,4,1,-3,2,20,6,3,-7,-1,-1
-2,-1,1,2,-2,0,20,6,3,-7,-1,-1
-2,-2,0,2,-1,-1,19,6,3,-8,-1,-1
-2,-3,-1,2,-1,-2,19,6,3,-7,-1,-1
-4,-3,0,3,-3,-1,20,7,3,-7,-1,0
-6,-3,3,4,-5,0,20,7,3,-6,0,0
-7,-3,5,4,-6,1,20,7,4,-5,0,0
-6,-2,5,4,-6,1,20,7,4,-5,-1,0
-6,-2,6,4,-6,2,20,7,4,-5,-1,0
-7,-1,7,4,-7,3,21,7,4,-5,-1,0
-7,0,8,3,-7,4,21,6,4,-5,-1,0
-7,1,9,3,-8,4,21,6,4,-5,-1,0
-7,1,9,2,-8,5,21,6,4,-6,-1,-1
-5,1,7,2,-6,4,21,5,3,-6,-2,-1
-4,0,5,2,-4,2,22,5,2,-6,-3,-1
-3,-1,4,2,-3,1,23,5,2,-6,-3,-1
-2,0,3,1,-2,1,23,6,3,-6,-2,-1
-2,-1,2,1,-2,0,23,7,4,-5,-1,0
