leadI,leadII,leadIII,leadaVR,leadaVL,leadaVF,leadV1,leadV2,leadV3,leadV4,leadV5,leadV6
-3,0,4,1,-3,2,0,1,1,1,1,0
-8,1,10,2,-8,5,0,2,4,3,2,1
-10,2,13,3,-11,7,0,2,5,5,3,2
-12,3,15,3,-13,9,0,3,6,6,3,2
-13,3,16,4,-14,10,1,3,7,6,4,2
-14,3,17,4,-15,10,1,3,7,7,4,3
-14,3,18,5,-15,10,1,3,8,7,4,3
-15,3,18,5,-16,10,1,3,8,7,4,3
-15,3,18,6,-16,10,1,4,9,7,3,3
-16,3,18,6,-16,10,1,4,9,7,3,2
-16,2,18,6,-16,10,1,4,9,7,3,2
-16,2,18,6,-16,10,1,4,9,7,3,2
-15,2,18,6,-16,10,2,4,9,7,3,2
-15,2,18,6,-16,10,2,4,9,7,3,2
-15,2,18,6,-16,10,2,4,10,7,3,2
-15,2,17,6,-16,10,2,4,10,7,3,2
-15,2,17,6,-16,9,2,4,11,7,3,1
-16,1,17,6,-16,9,2,4,11,6,2,1
-16,1,17,6,-16,9,2,4,11,6,2,0
-16,1,17,6,-16,8,2,4,11,6,2,0
-16,1,17,6,-15,8,3,4,11,6,2,0
-16,1,17,7,-15,8,3,4,11,6,2,0
-16,0,16,7,-15,8,3,4,11,6,2,0
-16,0,16,7,-15,8,3,4,11,6,1,0
-16,0,15,7,-15,7,3,4,11,6,1,0
-16,0,15,8,-15,7,3,4,11,5,1,0
-16,0,15,8,-15,7,3,4,11,5,0,0
-16,0,15,8,-15,7,3,4,11,4,0,-1
-16,0,15,8,-15,7,3,4,10,4,0,-1
-16,-1,15,8,-14,6,3,4,10,3,0,-1
-16,-1,14,8,-14,6,3,4,10,3,0,-1
-16,-1,14,8,-14,6,3,4,10,3,0,-1
-16,-1,14,8,-14,6,3,4,10,2,-1,-1
-16,-1,14,8,-14,6,4,4,9,2,-1,-1
-16,-1,14,9,-14,6,4,4,9,2,-1,-2
-16,-2,14,9,-14,6,4,4,8,1,-1,-2
-16,-2,14,9,-14,5,4,4,8,1,-2,-2
-16,-2,13,9,-14,5,5,4,7,1,-2,-2
-16,-2,13,9,-14,5,5,4,7,1,-2,-2
-16,-3,13,9,-14,5,5,4,6,1,-2,-2
-16,-3,13,10,-14,5,5,4,6,0,-3,-2
-16,-3,13,10,-14,5,5,4,6,0,-3,-3
-16,-3,13,10,-14,5,5,4,5,0,-3,-3
-16,-3,13,10,-14,4,5,3,5,-1,-4,-4
-16,-3,12,10,-14,4,5,3,4,-1,-4,-4
-16,-4,12,10,-14,4,5,3,4,-1,-4,-4
-16,-4,12,10,-14,4,5,3,4,-1,-4,-4
-16,-5,12,10,-14,3,5,3,3,-1,-4,-4
-16,-5,12,10,-14,3,5,3,3,-2,-5,-4
-16,-5,12,10,-14,3,5,3,3,-2,-5,-4
-16,-5,12,10,-14,3,6,4,3,-2,-5,-4
-16,-5,12,10,-14,3,6,4,2,-3,-5,-5
-16,-5,12,10,-14,3,6,4,2,-3,-6,-5
-16,-5,11,10,-14,3,6,4,1,-4,-6,-5
-16,-5,11,10,-14,2,6,4,1,-4,-6,-5
-16,-6,11,10,-14,2,6,4,1,-4,-6,-6
-16,-6,11,10,-14,2,6,4,0,-4,-6,-6
-17,-6,11,11,-14,2,6,4,0,-5,-7,-6
-17,-6,10,11,-14,2,7,4,0,-5,-7,-6
-17,-6,10,11,-14,2,7,4,0,-5,-7,-6
-17,-6,10,11,-14,2,7,4,0,-5,-7,-7
-17,-6,10,11,-14,2,7,4,-1,-5,-7,-7
-17,-6,10,11,-14,2,7,4,-1,-5,-8,-7
-17,-7,10,11,-14,2,7,4,-2,-5,-8,-7
-17,-7,10,11,-14,2,7,4,-2,-5,-8,-7
-17,-7,10,11,-14,2,7,4,-2,-5,-8,-7
-17,-7,10,11,-14,2,7,4,-2,-5,-8,-7
-17,-7,10,12,-14,2,7,4,-2,-5,-8,-7
-17,-7,10,12,-14,2,7,4,-2,-6,-8,-8
-17,-7,10,12,-14,2,7,4,-3,-6,-9,-8
-17,-7,10,12,-13,1,7,4,-3,-6,-9,-8
-17,-7,10,12,-13,1,8,4,-4,-6,-9,-8
-17,-8,10,12,-13,1,8,4,-4,-7,-9,-8
-17,-8,10,12,-13,0,8,4,-5,-7,-9,-8
-17,-9,10,12,-13,0,8,4,-5,-8,-9,-9
-17,-9,9,12,-14,0,9,4,-5,-8,-10,-9
-17,-9,9,13,-14,0,9,4,-6,-8,-10,-9
-17,-9,8,13,-14,0,9,4,-6,-9,-10,-9
-17,-9,8,13,-14,0,9,4,-7,-9,-11,-9
-17,-10,8,13,-13,0,9,4,-7,-9,-11,-9
-17,-10,8,13,-13,-1,9,4,-7,-9,-11,-9
-18,-10,8,13,-13,-1,9,4,-7,-10,-11,-10
-18,-10,8,13,-13,-1,9,4,-8,-10,-11,-10
-18,-11,8,14,-13,-1,9,4,-8,-10,-11,-10
-18,-11,8,14,-13,-1,9,4,-8,-10,-11,-10
-18,-11,8,14,-13,-1,9,4,-8,-10,-11,-10
-18,-11,8,14,-13,-1,9,4,-8,-10,-11,-10
-18,-11,8,14,-13,-1,9,3,-9,-10,-11,-10
-18,-10,8,14,-13,-1,9,3,-9,-10,-11,-10
-18,-10,9,14,-14,-1,9,3,-9,-10,-11,-10
-18,-10,9,14,-14,-1,9,3,-9,-10,-11,-10
-18,-10,9,14,-14,-1,9,3,-9,-11,-11,-10
-18,-9,9,14,-14,0,9,2,-9,-11,-11,-10
-18,-9,9,14,-14,0,8,2,-9,-11,-11,-10
-18,-9,9,13,-14,0,8,2,-9,-11,-11,-10
-17,-8,9,13,-14,0,8,2,-10,-11,-11,-10
-17,-8,9,13,-14,0,8,2,-10,-11,-11,-10
-17,-8,9,13,-14,0,8,2,-11,-11,-11,-10
-17,-8,9,13,-13,0,8,2,-11,-11,-11,-10
-17,-9,9,13,-13,0,8,2,-11,-11,-11,-10
-17,-9,8,13,-13,-1,8,2,-11,-11,-12,-10
-16,-10,7,13,-12,-1,8,2,-11,-11,-12,-10
-16,-10,6,13,-12,-2,8,2,-11,-12,-12,-10
-16,-11,6,13,-11,-2,8,2,-11,-12,-12,-10
-16,-11,6,13,-11,-2,8,2,-11,-12,-12,-10
-16,-11,6,13,-11,-3,8,3,-11,-12,-12,-10
-16,-11,6,13,-11,-3,8,3,-10,-12,-12,-9
-16,-11,6,13,-11,-3,8,3,-10,-12,-12,-9
-16,-10,6,13,-11,-3,8,3,-9,-11,-12,-9
-16,-10,6,14,-11,-2,8,3,-9,-11,-12,-9
-16,-10,6,14,-12,-2,8,3,-9,-11,-12,-10
-16,-10,6,14,-12,-2,8,3,-9,-12,-12,-10
-17,-10,7,14,-12,-2,8,3,-9,-12,-12,-10
-17,-11,7,14,-12,-2,9,4,-9,-12,-12,-10
-17,-11,7,14,-12,-2,9,4,-9,-12,-12,-10
-17,-11,7,14,-12,-2,9,4,-9,-12,-12,-10
-17,-11,7,14,-12,-2,9,4,-9,-12,-12,-10
-17,-11,7,14,-12,-2,9,4,-9,-12,-12,-10
-17,-11,7,14,-13,-2,9,4,-9,-12,-12,-10
-17,-10,7,14,-13,-1,9,4,-9,-12,-12,-10
-17,-10,7,14,-13,-1,9,4,-9,-12,-12,-10
-17,-10,7,14,-13,-1,9,4,-9,-12,-12,-10
-17,-10,7,14,-13,-1,9,4,-9,-12,-12,-10
-17,-10,7,14,-13,-1,9,4,-8,-11,-12,-10
-17,-10,7,14,-12,-1,9,4,-8,-11,-12,-10
-17,-10,7,14,-12,-1,9,4,-8,-11,-12,-10
-17,-10,7,14,-12,-1,9,4,-7,-11,-12,-10
-16,-10,6,14,-12,-2,9,5,-6,-11,-12,-10
-16,-10,5,14,-11,-3,9,6,-5,-11,-12,-11
-15,-12,3,14,-10,-5,9,9,-2,-12,-13,-12
-14,-14,0,14,-8,-7,11,13,1,-13,-14,-14
-13,-17,-3,15,-5,-10,12,17,7,-14,-16,-16
-12,-18,-6,15,-3,-13,14,22,14,-14,-17,-18
-11,-19,-8,15,-2,-14,15,26,22,-14,-19,-20
-10,-19,-9,15,-1,-14,15,29,30,-13,-19,-21
-9,-18,-8,14,0,-13,15,31,40,-10,-18,-21
-7,-15,-7,12,0,-11,14,32,51,-5,-15,-20
-5,-10,-5,8,0,-7,12,32,64,2,-10,-17
-3,-3,0,3,-2,-1,8,29,75,12,-3,-11
0,6,7,-2,-4,7,3,24,84,25,7,-3
2,18,16,-9,-7,17,-2,16,90,40,20,7
5,30,25,-17,-10,28,-9,7,94,57,36,21
9,44,34,-26,-13,39,-18,-3,94,76,56,38
14,57,43,-35,-14,50,-27,-14,90,96,79,59
19,70,51,-44,-16,60,-36,-26,84,116,102,80
24,81,58,-52,-17,69,-44,-38,77,133,124,100
27,91,64,-58,-19,77,-51,-48,68,143,140,116
27,97,70,-62,-21,83,-55,-56,58,145,147,125
26,98,72,-62,-23,85,-56,-61,48,137,145,127
23,94,71,-59,-24,82,-54,-62,38,122,135,123
20,88,68,-54,-24,78,-51,-62,22,102,120,115
16,82,66,-49,-25,73,-48,-61,0,79,102,105
12,75,64,-43,-26,69,-44,-60,-22,57,83,94
8,69,61,-38,-27,64,-40,-57,-39,37,65,81
4,60,57,-31,-27,58,-34,-51,-50,21,48,67
0,49,50,-24,-25,49,-27,-43,-53,8,31,51
-4,37,41,-16,-23,39,-19,-34,-50,-1,18,37
-7,27,34,-9,-21,30,-12,-24,-44,-7,8,24
-10,18,28,-3,-20,23,-6,-16,-38,-11,0,14
-12,10,23,2,-19,17,-1,-10,-34,-15,-6,5
-15,4,19,6,-18,11,3,-4,-32,-19,-12,-2
-16,0,17,9,-17,7,7,1,-29,-21,-16,-8
-17,-3,15,11,-17,5,9,5,-25,-21,-19,-12
-18,-4,14,13,-16,4,12,9,-21,-21,-20,-14
-19,-6,14,13,-16,3,14,12,-19,-21,-21,-16
-19,-6,13,14,-17,3,15,14,-17,-21,-21,-17
-20,-6,13,14,-17,3,15,15,-16,-20,-21,-18
-20,-7,14,14,-18,3,15,15,-16,-20,-21,-18
-21,-7,14,14,-18,3,16,15,-16,-20,-21,-18
-21,-8,14,15,-18,2,17,15,-17,-20,-22,-19
-21,-8,14,15,-18,2,18,16,-17,-20,-22,-19
-21,-9,13,15,-18,1,19,17,-16,-20,-22,-20
-21,-9,12,15,-17,1,19,18,-16,-20,-22,-20
-21,-10,11,16,-17,1,20,18,-16,-20,-22,-20
-21,-11,10,16,-16,0,20,19,-16,-20,-22,-20
-20,-12,9,17,-15,-2,21,20,-15,-20,-22,-20
-20,-13,8,17,-14,-3,22,21,-14,-20,-22,-20
-20,-14,7,17,-14,-4,23,23,-14,-20,-22,-20
-20,-14,6,17,-13,-5,23,24,-13,-20,-22,-21
-20,-15,5,18,-13,-5,24,25,-13,-20,-22,-21
-20,-15,5,18,-13,-5,24,25,-13,-20,-22,-21
-19,-14,5,17,-13,-5,23,24,-13,-20,-22,-20
-19,-14,6,17,-13,-5,22,22,-13,-19,-21,-19
-18,-13,6,16,-12,-4,20,19,-13,-18,-20,-18
-17,-12,6,15,-12,-4,18,16,-13,-17,-18,-17
-17,-10,6,14,-12,-3,15,13,-12,-15,-17,-16
-16,-9,7,13,-12,-2,13,10,-11,-14,-15,-14
-15,-8,7,12,-12,-1,12,8,-11,-13,-14,-13
-14,-7,6,11,-11,-1,10,6,-10,-12,-13,-12
-13,-8,6,11,-10,-2,9,5,-10,-12,-12,-12
-13,-8,5,11,-9,-2,8,5,-10,-11,-11,-11
-12,-8,4,10,-8,-3,8,5,-9,-11,-11,-10
-12,-8,3,10,-8,-3,7,5,-8,-10,-10,-10
-11,-8,3,10,-8,-3,7,5,-7,-10,-9,-9
-11,-8,3,10,-7,-3,7,5,-7,-9,-9,-9
-10,-8,2,9,-7,-3,7,5,-6,-8,-8,-8
-10,-8,2,9,-6,-3,6,5,-6,-8,-8,-8
-9,-8,2,9,-6,-3,6,5,-5,-7,-8,-7
-9,-8,2,8,-6,-3,6,5,-5,-7,-7,-7
-9,-8,2,8,-6,-3,5,5,-5,-7,-7,-7
-8,-7,2,8,-6,-3,5,5,-4,-7,-7,-7
-8,-7,2,7,-6,-3,5,5,-4,-6,-6,-7
-8,-7,2,7,-6,-3,4,5,-4,-6,-6,-7
-8,-7,2,7,-6,-3,4,5,-4,-6,-5,-6
-7,-6,2,7,-5,-3,4,5,-4,-6,-5,-6
-7,-6,2,7,-5,-2,4,5,-3,-6,-5,-5
-7,-6,2,6,-5,-2,4,5,-3,-5,-5,-5
-7,-6,2,6,-5,-2,4,4,-3,-5,-4,-4
-7,-5,2,6,-5,-2,3,4,-3,-4,-4,-4
-7,-5,2,6,-5,-2,3,4,-3,-4,-4,-4
-7,-5,2,6,-5,-2,3,4,-2,-3,-3,-4
-7,-5,2,6,-5,-1,2,4,-2,-3,-3,-4
-6,-5,2,6,-4,-1,2,4,-1,-2,-2,-3
-6,-4,2,5,-4,-1,2,4,-1,-2,-2,-3
-5,-4,2,5,-4,-1,2,4,0,-2,-1,-2
-5,-3,2,4,-4,-1,2,3,0,-1,0,-2
-4,-3,2,4,-4,-1,1,3,0,-1,0,-1
-4,-3,2,4,-4,-1,1,3,0,0,1,-1
-4,-3,2,3,-4,-1,0,3,0,0,1,0
-4,-3,2,3,-4,0,0,3,0,0,2,0
-3,-2,2,3,-3,0,0,2,1,1,2,0
-3,-2,2,2,-3,0,0,2,1,1,3,1
-3,-1,2,2,-3,0,0,2,1,2,3,1
-2,-1,2,1,-3,0,0,2,1,2,4,2
-2,0,2,1,-3,0,0,2,1,3,4,2
-2,0,2,1,-3,0,-1,2,2,4,5,3
-1,0,2,0,-3,1,-1,1,2,4,6,3
-1,1,2,0,-3,1,-2,1,2,5,6,4
0,1,2,0,-3,2,-2,1,2,5,7,4
0,1,2,0,-2,2,-3,1,3,6,8,5
0,2,2,-1,-2,2,-3,1,3,6,8,5
0,2,2,-1,-2,2,-3,1,3,7,8,6
0,3,3,-1,-2,2,-3,1,3,7,9,6
0,3,3,-1,-2,2,-4,1,3,8,9,6
1,3,3,-1,-2,3,-4,1,3,8,9,6
1,4,3,-2,-2,3,-4,1,3,8,9,6
1,4,3,-2,-2,4,-5,0,3,8,9,7
1,4,3,-2,-2,4,-5,0,3,8,9,7
1,4,3,-3,-2,4,-5,0,4,8,9,7
1,4,3,-3,-2,4,-5,0,4,8,10,7
1,5,3,-3,-2,4,-5,0,4,8,10,7
1,5,3,-3,-2,4,-5,0,4,8,10,7
1,5,3,-3,-2,4,-5,0,4,8,10,7
2,5,3,-3,-2,4,-5,0,4,9,10,7
2,5,3,-3,-2,4,-5,0,4,9,10,7
2,5,3,-3,-2,4,-5,0,5,9,10,7
2,5,3,-3,-2,4,-5,0,5,9,9,7
2,5,4,-3,-2,4,-5,0,5,9,9,7
2,5,4,-3,-2,4,-5,1,5,9,9,7
1,5,4,-3,-2,4,-5,1,5,9,9,6
1,5,4,-3,-2,4,-5,1,5,9,9,6
1,5,4,-3,-2,4,-5,1,5,8,8,6
1,5,4,-3,-2,4,-5,1,5,8,8,6
1,5,4,-3,-2,4,-5,1,5,8,8,6
1,5,4,-3,-2,4,-4,1,5,8,8,6
1,5,4,-2,-2,4,-4,1,5,8,8,6
0,5,4,-2,-2,4,-4,1,5,8,7,6
0,5,4,-2,-2,4,-4,1,5,7,7,5
0,5,4,-1,-3,4,-4,2,5,7,6,5
0,4,4,-1,-3,4,-4,2,5,6,6,4
0,4,4,-1,-3,4,-3,2,5,6,6,4
0,4,4,-1,-3,4,-3,2,5,6,5,4
0,4,4,-1,-3,4,-3,2,5,6,5,3
-1,4,4,-1,-3,4,-2,2,4,6,5,3
-1,4,4,0,-4,4,-2,2,4,6,5,3
-1,4,4,0,-4,4,-2,2,4,6,5,3
-1,4,5,0,-4,4,-2,2,4,6,5,2
-2,3,5,0,-4,4,-2,2,4,5,4,2
-2,3,5,0,-4,4,-1,2,4,5,4,2
-2,3,5,0,-4,4,-1,2,4,5,4,2
-2,3,5,0,-4,4,-1,2,4,5,4,2
-2,3,5,0,-4,4,0,2,4,5,4,2
-2,3,5,0,-4,4,0,2,4,5,4,1
-2,3,5,1,-4,4,0,2,5,5,4,1
-2,3,5,1,-4,4,0,2,5,5,4,1
-2,2,5,1,-4,4,0,2,5,5,3,1
-2,2,5,1,-4,4,0,2,5,5,3,1
-3,2,5,1,-4,4,0,2,5,5,3,1
-3,1,5,1,-4,4,0,2,6,5,3,0
-3,1,5,1,-4,4,0,2,6,5,3,0
-3,1,4,1,-5,4,0,2,7,5,2,0
-3,1,4,1,-5,3,0,2,7,5,2,0
-3,1,4,2,-5,3,1,2,7,5,2,0
-3,0,3,2,-5,2,1,2,7,5,2,0
-3,0,3,2,-5,2,1,2,7,4,2,0
-4,0,3,2,-4,2,1,2,7,4,1,-1
-4,0,3,2,-4,2,1,2,7,4,1,-1
-4,0,3,2,-4,2,1,2,7,4,1,-1
-4,0,3,2,-4,2,1,2,7,4,1,-1
-4,0,3,2,-4,2,1,2,7,3,0,-1
-4,0,3,2,-4,1,1,2,7,3,0,-1
-4,-1,2,2,-4,1,1,2,7,2,0,-2
-4,-1,2,2,-4,1,1,2,7,2,0,-2
-4,-1,2,2,-4,1,1,2,7,1,0,-2
-4,-1,2,3,-3,1,1,2,7,1,-1,-2
-4,-2,2,3,-3,1,1,2,6,1,-1,-2
-4,-2,2,3,-3,0,1,2,6,1,-1,-2
-4,-2,1,3,-3,0,1,2,5,0,-2,-3
-4,-2,1,4,-3,0,1,2,5,0,-2,-3
-4,-2,1,4,-3,0,1,2,4,0,-2,-3
-4,-2,1,4,-3,0,1,2,4,-1,-2,-3
-4,-3,1,4,-3,0,2,2,4,-1,-2,-3
-4,-3,1,4,-3,-1,2,2,3,-1,-2,-4
-4,-4,1,4,-3,-1,2,2,3,-1,-3,-4
-4,-4,1,4,-3,-1,3,2,3,-2,-3,-4
-4,-4,0,4,-3,-1,3,2,2,-2,-3,-4
-5,-4,0,5,-3,-1,3,2,2,-2,-4,-5
-5,-4,0,5,-3,-1,3,2,2,-2,-4,-5
-5,-4,0,5,-3,-1,3,2,1,-3,-4,-5
-5,-5,0,5,-2,-1,3,2,1,-3,-4,-5
-5,-5,0,5,-2,-1,3,2,0,-4,-5,-5
-5,-5,0,5,-2,-2,3,2,0,-4,-5,-6
-5,-5,0,5,-2,-2,3,2,0,-4,-6,-6
-5,-5,0,5,-2,-2,3,2,0,-4,-6,-6
-5,-5,0,5,-2,-2,3,2,0,-4,-6,-6
-5,-5,0,5,-2,-2,3,2,-1,-4,-6,-6
-5,-5,0,5,-2,-2,3,2,-1,-5,-6,-6
-5,-5,0,6,-2,-2,3,2,-1,-5,-6,-6
-6,-6,0,6,-2,-2,3,2,-2,-6,-6,-7
-6,-6,0,6,-2,-2,3,2,-2,-6,-7,-7
-6,-6,0,6,-2,-2,4,2,-2,-6,-7,-7
-6,-6,-1,6,-2,-2,4,2,-2,-6,-7,-7
-6,-6,-1,6,-2,-2,4,2,-2,-7,-7,-8
-6,-6,-1,6,-2,-2,4,2,-2,-7,-7,-8
-6,-6,-1,6,-2,-2,4,2,-3,-7,-8,-8
-6,-7,-1,6,-2,-2,4,2,-3,-7,-8,-8
-6,-7,-1,6,-2,-2,5,2,-3,-7,-8,-8
-6,-7,-1,6,-2,-2,5,2,-4,-7,-8,-8
-6,-7,-1,6,-2,-2,5,2,-4,-7,-8,-8
-6,-7,-1,6,-2,-2,5,2,-4,-8,-8,-8
-6,-8,-1,7,-2,-2,5,2,-4,-8,-9,-8
-7,-8,-1,7,-3,-2,5,2,-4,-8,-9,-9
-7,-8,-1,7,-3,-2,5,2,-5,-8,-9,-9
-7,-8,-1,8,-3,-3,5,2,-5,-9,-9,-9
-7,-8,-1,8,-3,-3,5,2,-6,-9,-9,-9
-7,-8,-1,8,-3,-3,5,2,-6,-10,-9,-9
-8,-9,-1,8,-3,-3,5,2,-7,-10,-9,-9
-8,-9,-1,8,-3,-3,5,2,-7,-10,-10,-9
-8,-9,-1,8,-3,-4,6,2,-8,-10,-10,-10
-8,-9,-1,9,-3,-4,6,2,-8,-10,-10,-10
-8,-10,-1,9,-3,-4,6,2,-9,-11,-11,-10
-8,-10,-2,9,-3,-4,7,2,-9,-11,-11,-10
-8,-11,-2,10,-2,-5,7,2,-9,-12,-11,-10
-8,-11,-3,10,-2,-5,7,2,-10,-12,-11,-10
-8,-11,-3,10,-2,-6,7,2,-10,-12,-11,-10
-8,-11,-3,10,-2,-6,7,2,-10,-12,-11,-10
-8,-11,-3,10,-2,-6,7,2,-10,-12,-11,-11
-8,-11,-3,10,-2,-6,7,2,-10,-12,-12,-11
-8,-11,-3,10,-2,-6,7,2,-11,-13,-12,-11
-8,-11,-3,10,-2,-6,7,2,-11,-13,-12,-11
-9,-11,-3,10,-2,-6,7,2,-12,-13,-12,-11
-9,-11,-3,10,-2,-6,7,1,-12,-13,-12,-11
-9,-11,-3,10,-2,-5,7,1,-12,-13,-12,-11
-9,-11,-3,10,-2,-5,6,1,-12,-13,-12,-11
-9,-11,-2,10,-2,-5,6,1,-12,-13,-12,-11
-9,-10,-2,10,-2,-5,6,0,-12,-13,-12,-11
-9,-10,-1,9,-3,-5,6,0,-12,-13,-12,-11
-9,-9,-1,9,-3,-4,6,0,-12,-13,-12,-11
-9,-9,-1,9,-3,-4,6,0,-12,-13,-12,-11
-9,-9,-1,9,-3,-3,6,0,-12,-13,-12,-11
-9,-9,-1,9,-3,-3,6,0,-12,-13,-12,-11
-9,-9,-1,9,-3,-4,6,0,-13,-13,-12,-11
-9,-9,-1,9,-3,-4,6,0,-13,-13,-12,-11
-8,-9,-1,9,-3,-5,6,0,-13,-13,-12,-11
-8,-9,-2,9,-2,-5,6,0,-13,-14,-12,-11
-8,-10,-3,9,-2,-6,6,0,-13,-14,-12,-11
-8,-11,-3,10,-1,-6,6,1,-13,-14,-12,-11
-8,-11,-4,10,-1,-6,6,1,-13,-14,-12,-10
-8,-11,-4,10,-1,-6,6,1,-12,-14,-12,-10
-8,-11,-4,10,-1,-6,6,1,-12,-14,-12,-10
-8,-11,-4,10,-1,-6,6,1,-12,-14,-12,-10
-8,-11,-4,10,-1,-6,6,1,-12,-13,-12,-10
-8,-11,-4,10,-1,-6,6,1,-11,-13,-12,-10
-8,-11,-4,10,-2,-6,7,1,-11,-13,-12,-10
-8,-11,-4,10,-2,-6,7,1,-11,-13,-12,-10
-8,-12,-3,10,-2,-6,7,1,-11,-13,-12,-10
-8,-12,-3,10,-2,-6,7,2,-11,-13,-12,-11
-8,-12,-3,10,-2,-6,8,2,-11,-13,-12,-11
-9,-12,-3,10,-2,-6,8,2,-11,-13,-13,-11
-9,-12,-3,10,-2,-6,8,2,-11,-13,-13,-11
-9,-12,-3,10,-2,-6,8,2,-11,-13,-13,-11
-9,-12,-3,10,-2,-6,8,2,-11,-13,-13,-11
-9,-12,-3,10,-2,-6,8,2,-11,-13,-13,-11
-9,-12,-3,10,-2,-6,8,2,-11,-13,-13,-11
-9,-12,-3,10,-2,-6,8,2,-10,-13,-13,-11
-9,-12,-3,10,-2,-6,8,2,-10,-13,-13,-11
-9,-11,-2,10,-2,-6,8,2,-10,-13,-13,-11
-9,-11,-2,10,-2,-6,8,2,-10,-13,-12,-11
-9,-11,-2,10,-2,-5,8,2,-10,-13,-12,-11
-9,-11,-2,10,-2,-5,8,2,-10,-13,-12,-11
-9,-11,-3,10,-2,-5,8,2,-9,-13,-12,-11
-9,-11,-3,10,-2,-6,8,3,-8,-13,-12,-11
-8,-12,-5,10,0,-8,9,6,-5,-13,-13,-11
-7,-14,-8,11,1,-10,10,9,-1,-13,-14,-13
-6,-17,-11,11,3,-13,11,13,4,-14,-15,-15
-5,-19,-15,12,5,-16,12,18,11,-15,-16,-17
-4,-20,-17,12,7,-17,13,22,19,-15,-17,-19
-3,-20,-18,12,8,-18,14,25,28,-13,-17,-20
-2,-19,-18,11,8,-18,14,27,37,-10,-17,-20
-1,-17,-17,10,9,-16,14,29,48,-6,-15,-19
0,-13,-14,7,9,-13,12,29,60,0,-11,-17
2,-7,-10,2,8,-8,9,27,72,10,-4,-12
4,1,-4,-3,6,0,5,23,81,21,4,-5
6,12,4,-9,2,9,0,17,86,34,16,3
9,24,14,-17,-1,20,-7,8,89,49,30,15
12,38,24,-25,-5,32,-14,-1,89,67,47,30
16,51,34,-33,-8,43,-23,-12,84,87,68,49
21,65,43,-42,-10,55,-31,-24,76,107,90,70
25,77,51,-50,-12,65,-40,-35,67,126,112,90
28,88,58,-58,-14,74,-47,-45,57,140,131,108
30,97,65,-63,-16,82,-53,-54,46,147,144,122
30,102,70,-66,-19,87,-56,-61,35,145,147,128
29,100,70,-65,-20,86,-56,-63,26,134,141,127
26,95,68,-61,-20,82,-54,-64,14,116,129,121
23,88,64,-56,-20,77,-50,-63,-4,92,112,112
19,81,61,-50,-21,72,-47,-62,-25,67,93,101
15,74,58,-45,-21,67,-43,-60,-42,45,73,89
11,66,54,-39,-20,61,-38,-56,-54,25,55,75
7,56,48,-32,-19,53,-32,-49,-60,10,38,59
3,44,40,-24,-17,42,-25,-40,-58,-1,23,44
0,32,31,-17,-14,32,-17,-30,-52,-9,11,30
-2,22,23,-11,-12,23,-10,-21,-45,-13,3,18
-4,14,18,-5,-11,16,-5,-14,-39,-17,-4,9
-7,7,13,0,-10,10,0,-8,-35,-20,-10,0
-9,1,10,4,-9,6,4,-3,-32,-23,-15,-6
-10,-2,8,7,-8,3,7,1,-28,-24,-18,-10
-11,-4,6,8,-8,1,10,5,-24,-24,-20,-13
-12,-6,5,9,-8,0,12,8,-21,-24,-21,-16
-12,-7,5,10,-8,0,13,11,-20,-23,-22,-17
-13,-7,5,10,-8,0,14,12,-19,-23,-22,-18
-13,-7,5,10,-8,0,15,13,-18,-23,-22,-19
-14,-7,5,11,-8,0,15,13,-18,-23,-23,-19
-14,-8,5,11,-8,-1,16,14,-18,-23,-23,-19
-14,-9,5,12,-8,-1,17,15,-18,-23,-24,-20
-14,-10,4,12,-8,-2,18,16,-18,-23,-24,-20
-14,-11,3,13,-8,-3,19,17,-17,-23,-24,-21
-15,-11,3,13,-8,-3,19,17,-17,-23,-23,-21
-15,-12,2,13,-7,-4,20,18,-17,-23,-23,-21
-15,-13,0,14,-7,-5,20,19,-17,-23,-23,-21
-15,-14,-1,14,-6,-6,21,20,-16,-23,-23,-21
-14,-15,-2,15,-5,-7,22,21,-15,-23,-23,-21
-14,-17,-3,15,-4,-8,23,23,-15,-23,-23,-21
-14,-18,-4,16,-4,-9,24,24,-14,-23,-23,-21
-14,-18,-4,16,-4,-10,24,25,-14,-23,-23,-21
-14,-17,-4,15,-4,-10,24,25,-14,-23,-22,-21
-13,-16,-4,15,-4,-9,23,23,-14,-22,-21,-21
-13,-15,-3,14,-4,-9,21,21,-13,-21,-20,-20
-12,-14,-3,13,-4,-8,19,18,-13,-20,-19,-18
-12,-13,-2,12,-4,-7,17,14,-12,-19,-18,-17
-11,-12,-1,11,-4,-6,14,11,-12,-17,-16,-15
-10,-11,0,10,-4,-5,12,8,-11,-15,-15,-14
-9,-10,0,9,-3,-4,11,6,-11,-14,-14,-13
-8,-9,-1,9,-3,-4,9,5,-11,-14,-13,-12
-8,-9,-1,8,-2,-4,8,4,-11,-13,-12,-11
-7,-9,-2,8,-2,-5,8,4,-10,-13,-11,-11
-6,-9,-3,8,-1,-5,8,4,-8,-12,-11,-10
-6,-9,-4,8,0,-6,7,4,-7,-12,-10,-10
-6,-9,-4,8,0,-6,7,4,-7,-11,-9,-9
-5,-9,-4,7,0,-6,6,4,-6,-11,-8,-9
-5,-9,-4,7,1,-6,6,4,-6,-10,-8,-8
-5,-8,-4,6,1,-6,5,4,-6,-10,-8,-8
-4,-8,-4,6,1,-6,5,4,-6,-10,-7,-8
-4,-8,-4,6,1,-5,5,4,-5,-9,-7,-8
-4,-8,-4,6,1,-5,5,4,-5,-9,-6,-7
-4,-8,-5,6,1,-5,5,4,-5,-9,-6,-7
-4,-8,-5,6,1,-5,5,4,-5,-8,-6,-6
-4,-8,-5,6,1,-5,4,4,-5,-8,-6,-6
-3,-8,-5,6,1,-5,4,3,-4,-7,-6,-6
-3,-7,-5,6,1,-5,4,3,-4,-7,-6,-6
-3,-7,-5,5,1,-5,4,3,-4,-7,-5,-6
-3,-7,-5,5,1,-5,4,3,-4,-7,-5,-6
-2,-6,-5,5,2,-5,3,3,-4,-7,-5,-5
-2,-6,-5,4,2,-5,3,3,-4,-6,-4,-5
-2,-5,-5,4,2,-5,3,2,-4,-6,-4,-5
-2,-5,-5,3,2,-5,2,2,-3,-5,-3,-4
-1,-5,-5,3,2,-5,2,2,-3,-5,-3,-4
-1,-4,-5,3,3,-4,1,2,-3,-5,-2,-4
-1,-4,-5,3,3,-4,1,2,-3,-4,-2,-3
0,-4,-5,2,3,-4,1,1,-2,-4,-2,-3
0,-4,-5,2,3,-4,1,1,-2,-3,-1,-2
0,-3,-5,2,3,-3,1,1,-2,-3,-1,-2
0,-3,-5,1,3,-3,1,1,-2,-2,0,-1
0,-2,-5,1,3,-2,0,1,-1,-2,0,-1
0,-2,-4,1,3,-2,0,1,-1,-1,1,0
1,-1,-4,0,3,-2,0,1,-1,-1,1,0
1,-1,-4,0,4,-2,-1,1,0,0,2,0
2,-1,-4,0,4,-1,-1,0,0,0,2,1
2,0,-4,0,4,-1,-1,0,0,0,3,1
2,0,-4,-1,4,-1,-1,0,0,1,3,2
3,0,-4,-1,4,-1,-2,0,0,1,4,2
3,0,-4,-1,4,-1,-2,0,0,2,5,3
3,1,-3,-1,4,0,-3,0,0,2,5,3
3,1,-3,-2,4,0,-3,0,0,3,6,4
3,2,-3,-2,4,0,-3,0,0,3,6,4
3,2,-3,-2,4,0,-3,0,0,4,7,5
3,2,-3,-2,4,0,-3,0,0,4,7,5
3,2,-3,-2,4,1,-3,0,1,5,8,5
4,2,-3,-2,4,1,-3,0,1,5,8,6
4,3,-2,-3,4,1,-4,0,1,6,9,6
4,3,-2,-3,4,1,-4,0,1,6,9,6
4,3,-2,-4,4,1,-4,-1,1,6,9,7
4,3,-2,-4,4,2,-4,-1,2,6,9,7
4,3,-2,-4,4,2,-4,-1,2,6,9,7
4,3,-2,-4,4,2,-4,-1,2,7,9,7
4,3,-2,-4,4,2,-4,-1,2,7,9,7
5,3,-2,-4,4,2,-4,-1,2,7,9,7
5,3,-2,-4,4,2,-5,-1,2,7,9,7
5,3,-2,-4,4,2,-5,-1,2,7,9,7
5,3,-2,-4,4,2,-5,0,2,7,9,7
5,3,-2,-4,4,2,-5,0,2,7,9,7
5,3,-2,-4,3,2,-5,0,2,7,9,7
5,3,-2,-4,3,2,-4,0,2,7,9,7
5,3,-2,-4,3,2,-4,0,2,7,9,7
5,3,-2,-4,3,2,-4,0,2,7,9,7
4,4,-1,-4,3,2,-4,0,2,7,9,7
4,4,-1,-4,3,2,-4,0,3,7,9,6
4,4,-1,-4,3,2,-4,0,3,7,8,6
4,4,-1,-3,3,2,-4,0,3,7,8,6
4,4,-1,-3,3,2,-4,0,3,6,7,5
4,4,-1,-3,3,2,-4,0,3,6,7,5
4,4,-1,-3,2,2,-4,0,3,6,6,5
3,4,0,-3,2,2,-3,0,3,6,6,5
3,3,0,-3,2,2,-3,1,3,6,6,5
3,3,0,-3,2,2,-3,1,3,6,6,4
3,3,0,-3,2,2,-3,1,3,6,6,4
2,3,0,-3,2,2,-3,1,3,6,6,4
2,3,0,-2,2,2,-2,1,3,5,5,3
2,2,0,-2,2,1,-2,1,2,5,5,3
2,2,0,-2,1,1,-2,1,2,5,5,3
2,2,0,-1,1,1,-2,1,2,5,5,3
1,2,0,-1,1,1,-2,1,2,5,4,3
1,2,0,-1,1,1,-1,1,2,5,4,3
1,2,0,-1,1,1,-1,1,2,4,4,2
1,2,0,-1,1,1,-1,1,2,4,4,2
1,1,0,-1,1,1,-1,1,2,4,3,1
1,1,0,-1,1,1,-1,1,2,4,3,1
1,1,0,0,0,1,-1,1,2,4,3,1
1,1,0,0,0,1,-1,1,2,4,3,1
0,1,0,0,1,1,-1,1,2,4,3,1
0,1,0,0,1,1,-1,1,3,4,3,1
0,1,0,0,1,1,-1,1,3,4,3,1
0,1,0,0,1,1,0,1,3,4,3,1
0,0,0,0,0,1,0,1,4,4,2,1
0,0,0,0,0,1,0,1,4,3,2,1
0,0,0,0,0,1,0,1,4,3,2,0
-1,0,0,0,0,0,0,1,5,3,2,0
-1,0,0,1,0,0,0,1,5,3,2,0
-1,0,0,1,0,0,0,1,5,3,1,0
-1,0,-1,1,0,0,0,1,5,3,1,0
-1,0,-1,1,0,0,0,1,5,3,1,0
-1,-1,-1,1,0,0,0,1,6,2,0,-1
-1,-1,-1,1,0,0,0,1,6,2,0,-1
-1,-1,-1,1,0,-1,0,2,6,1,0,-1
-1,-1,-1,1,0,-1,1,2,6,1,0,-1
-1,-2,-2,2,0,-1,1,2,6,1,0,-1
-1,-2,-2,2,0,-1,1,2,5,1,0,-2
-1,-2,-2,2,0,-1,1,2,5,0,0,-2
-1,-2,-2,2,0,-2,1,2,5,0,0,-2
-1,-3,-2,2,0,-2,1,2,5,0,0,-2
-1,-3,-3,2,1,-2,1,2,4,0,-1,-2
-1,-3,-3,2,1,-2,1,2,4,0,-1,-2
-2,-3,-3,2,1,-2,1,2,4,-1,-1,-3
-2,-3,-3,2,1,-2,1,2,3,-1,-1,-3
-2,-3,-3,3,1,-3,1,2,3,-1,-1,-3
-2,-4,-3,3,1,-3,2,2,3,-1,-2,-3
-2,-4,-3,3,1,-3,2,2,2,-1,-2,-3
-2,-4,-3,3,1,-3,2,2,2,-2,-2,-3
-2,-4,-3,4,1,-3,2,2,2,-2,-3,-3
-2,-4,-3,4,1,-3,2,2,2,-3,-3,-4
-2,-5,-3,4,1,-3,2,2,1,-3,-3,-4
-2,-5,-3,4,1,-3,2,2,1,-4,-4,-4
-3,-5,-3,4,1,-3,2,2,1,-4,-4,-5
-3,-5,-3,4,1,-3,2,2,0,-4,-4,-5
-3,-5,-3,4,1,-3,2,2,0,-4,-4,-5
-3,-5,-4,4,1,-4,2,2,0,-5,-4,-5
-3,-5,-4,4,1,-4,3,2,-1,-5,-5,-5
-3,-5,-4,4,1,-4,3,2,-1,-5,-5,-5
-3,-6,-4,4,1,-4,3,2,-1,-6,-5,-6
-3,-6,-4,4,1,-4,3,2,-2,-6,-6,-6
-3,-6,-4,4,1,-4,3,2,-2,-7,-6,-6
-3,-6,-4,4,1,-4,3,2,-2,-7,-6,-6
-3,-6,-4,4,1,-4,3,2,-2,-7,-6,-6
-3,-6,-4,5,1,-4,3,2,-2,-7,-6,-7
-3,-6,-4,5,1,-4,3,2,-2,-7,-6,-7
-3,-6,-4,5,1,-4,3,2,-2,-7,-6,-7
-3,-7,-4,5,1,-4,3,2,-3,-7,-6,-7
-3,-7,-4,5,1,-4,3,2,-3,-7,-7,-7
-3,-7,-4,5,1,-4,3,2,-3,-7,-7,-7
-3,-7,-4,5,1,-4,4,2,-4,-8,-7,-7
-3,-7,-4,5,1,-4,4,2,-4,-8,-7,-7
-3,-7,-4,5,1,-5,4,2,-4,-8,-7,-7
-4,-7,-4,5,1,-5,4,2,-4,-8,-7,-8
-4,-7,-4,6,1,-5,4,2,-4,-8,-8,-8
-4,-8,-4,6,1,-5,4,2,-4,-8,-8,-8
-4,-8,-4,6,1,-5,4,2,-4,-9,-8,-8
-4,-8,-4,6,1,-5,4,2,-5,-9,-8,-8
-4,-8,-4,6,0,-5,4,2,-5,-9,-8,-8
-4,-8,-4,6,0,-5,5,2,-6,-9,-8,-8
-4,-8,-4,7,0,-5,5,2,-6,-9,-9,-8
-5,-9,-4,7,0,-5,6,2,-6,-10,-9,-8
-5,-9,-4,7,0,-5,6,2,-7,-10,-9,-8
-5,-10,-4,7,0,-6,6,2,-7,-10,-9,-9
-5,-10,-4,7,0,-6,6,2,-8,-11,-9,-9
-5,-10,-5,8,0,-7,6,2,-9,-11,-10,-9
-5,-10,-5,8,0,-7,6,2,-9,-12,-10,-10
-5,-11,-5,8,0,-8,6,2,-10,-12,-10,-10
-5,-11,-5,9,0,-8,6,2,-10,-12,-11,-10
-6,-11,-6,9,0,-8,6,2,-10,-12,-11,-10
-6,-11,-6,9,0,-8,6,2,-10,-12,-11,-10
-6,-12,-6,9,0,-8,6,2,-10,-12,-11,-10
-6,-12,-6,9,0,-8,6,2,-10,-12,-11,-10
-6,-12,-6,9,0,-8,6,2,-10,-12,-11,-10
-6,-12,-6,9,0,-8,6,2,-10,-12,-11,-10
-7,-12,-6,9,0,-8,6,1,-11,-13,-11,-10
-7,-12,-6,9,0,-8,6,1,-11,-13,-11,-10
-7,-12,-5,9,0,-8,6,1,-11,-13,-11,-10
-7,-12,-5,9,0,-8,6,1,-11,-13,-11,-10
-7,-12,-5,9,0,-7,6,1,-11,-13,-11,-10
-7,-11,-4,9,-1,-7,6,1,-12,-13,-11,-10
-7,-11,-4,9,-1,-6,6,0,-12,-13,-11,-10
-7,-10,-3,9,-1,-6,6,0,-12,-13,-11,-10
-7,-10,-3,9,-1,-6,6,0,-12,-13,-11,-10
-7,-10,-3,9,-1,-6,6,0,-12,-13,-11,-10
-7,-10,-3,9,-1,-6,6,0,-12,-13,-11,-10
-7,-10,-3,9,-1,-6,6,0,-13,-14,-11,-10
-7,-11,-4,9,0,-6,6,0,-13,-14,-12,-10
-7,-11,-4,9,0,-7,6,0,-14,-14,-12,-10
-7,-12,-5,9,0,-8,6,1,-14,-15,-12,-11
-7,-13,-6,9,1,-9,6,1,-14,-15,-12,-11
-7,-13,-7,10,1,-10,6,1,-14,-16,-13,-11
-7,-14,-8,10,1,-10,6,1,-14,-16,-13,-11
-6,-14,-8,10,1,-11,6,1,-14,-16,-13,-11
-6,-14,-8,11,2,-11,6,1,-14,-16,-13,-11
-6,-15,-9,11,2,-11,6,2,-14,-16,-13,-11
-6,-15,-9,11,2,-11,6,2,-14,-16,-13,-11
-5,-15,-10,11,3,-12,6,2,-14,-16,-13,-11
-5,-15,-10,11,3,-12,6,2,-13,-16,-13,-11
-5,-15,-10,11,3,-12,6,2,-13,-16,-13,-11
-5,-15,-10,11,3,-13,6,2,-13,-16,-13,-12
-5,-16,-10,11,3,-13,6,2,-13,-16,-13,-12
-5,-16,-10,11,3,-13,6,2,-13,-16,-13,-12
-6,-16,-10,11,3,-12,6,2,-13,-16,-13,-12
-6,-15,-10,11,3,-12,6,2,-13,-16,-13,-12
-6,-15,-10,11,3,-12,6,2,-13,-16,-13,-12
-5,-15,-9,10,3,-12,6,2,-13,-16,-13,-12
-4,-13,-9,9,3,-11,6,2,-12,-15,-13,-11
-4,-12,-8,8,3,-10,5,1,-11,-14,-12,-11
-3,-11,-7,8,3,-9,5,1,-10,-14,-12,-10
-3,-10,-7,7,2,-8,4,1,-10,-13,-11,-10
-3,-9,-6,7,2,-7,4,1,-9,-12,-11,-10
-3,-8,-5,6,1,-6,4,1,-9,-12,-10,-9
-3,-7,-4,6,1,-5,4,1,-8,-11,-9,-9
-3,-6,-3,5,0,-4,4,1,-7,-10,-9,-8
-2,-6,-3,4,0,-4,4,2,-6,-10,-8,-8
-2,-5,-3,4,1,-4,4,3,-4,-9,-8,-8
-1,-6,-5,3,2,-5,4,5,-1,-9,-8,-8
0,-7,-7,3,4,-6,5,8,3,-9,-9,-9
1,-9,-11,4,6,-9,6,13,8,-10,-10,-10
2,-10,-14,4,9,-11,8,17,14,-10,-11,-12
3,-11,-16,5,10,-13,9,21,22,-9,-12,-14
4,-12,-17,4,11,-14,9,25,31,-8,-12,-16
5,-11,-17,3,12,-14,9,27,41,-6,-12,-17
7,-9,-15,1,12,-12,9,29,52,-2,-10,-16
8,-5,-13,-1,11,-9,7,29,64,4,-6,-14
10,1,-9,-5,10,-3,5,28,76,13,0,-9
11,9,-2,-10,8,4,1,25,86,25,9,-3
13,20,6,-16,4,14,-4,19,92,38,20,6
14,32,17,-23,0,25,-10,11,95,53,33,17
17,45,28,-30,-4,37,-17,1,96,70,49,31
20,58,38,-39,-8,49,-25,-9,92,89,69,49
24,71,46,-47,-10,59,-34,-21,85,109,92,70
28,83,54,-56,-12,69,-42,-33,77,128,114,90
32,94,61,-63,-14,78,-49,-44,67,142,133,109
34,103,68,-68,-16,86,-55,-53,56,150,146,123
34,108,73,-71,-18,91,-59,-60,44,148,150,130
32,107,74,-69,-20,91,-59,-63,35,138,145,129
30,102,71,-65,-20,87,-57,-63,24,121,133,124
27,94,68,-60,-20,82,-53,-63,7,98,116,115
23,87,65,-54,-20,76,-49,-63,-13,74,97,103
19,80,62,-49,-21,71,-45,-61,-32,51,78,91
15,72,58,-43,-21,65,-41,-57,-45,31,60,77
11,62,52,-36,-20,58,-35,-51,-52,16,43,62
7,51,44,-29,-17,48,-27,-42,-52,4,28,47
3,39,35,-21,-15,38,-20,-31,-46,-3,16,33
0,29,28,-14,-14,29,-13,-22,-39,-7,7,22
-2,20,23,-8,-12,22,-7,-15,-34,-11,0,12
-4,12,18,-3,-11,15,-2,-8,-30,-14,-6,4
-6,6,14,0,-10,10,2,-3,-27,-18,-11,-3
-7,2,11,3,-9,7,5,1,-23,-19,-14,-8
-8,0,9,4,-8,5,8,5,-19,-19,-16,-11
-9,-1,8,5,-8,4,9,8,-16,-19,-17,-13
-10,-2,8,6,-8,3,11,11,-14,-18,-18,-14
-10,-2,8,6,-8,3,12,13,-13,-18,-18,-15
-11,-2,8,6,-9,3,12,14,-13,-18,-18,-16
-11,-2,8,7,-9,3,13,14,-13,-18,-19,-16
-12,-2,8,7,-9,3,13,14,-13,-18,-19,-17
-12,-3,8,8,-9,2,14,15,-13,-19,-20,-18
-12,-4,7,8,-8,2,15,16,-13,-19,-20,-19
-12,-5,6,9,-8,1,16,17,-13,-18,-20,-19
-12,-5,6,9,-8,0,17,18,-13,-18,-20,-19
-12,-6,5,9,-8,0,17,18,-13,-18,-20,-19
-12,-7,4,10,-7,-1,18,19,-12,-18,-20,-19
-11,-9,2,11,-6,-3,18,21,-11,-18,-20,-19
-11,-10,1,11,-5,-4,19,22,-10,-18,-20,-19
-11,-12,0,12,-4,-6,20,24,-10,-18,-20,-19
-11,-13,-1,12,-4,-7,21,25,-9,-18,-20,-19
-11,-13,-2,12,-4,-7,22,26,-9,-18,-20,-19
-11,-13,-2,12,-4,-6,22,26,-9,-17,-19,-18
-11,-12,-2,12,-4,-6,20,25,-9,-17,-18,-18
-10,-11,-1,11,-4,-5,18,22,-9,-16,-17,-17
-9,-10,-1,10,-4,-5,16,19,-9,-15,-16,-16
-9,-9,0,9,-4,-4,14,16,-8,-14,-14,-15
-8,-8,0,8,-4,-3,12,13,-8,-12,-13,-13
-7,-7,1,7,-3,-2,11,10,-7,-11,-11,-12
-6,-6,1,6,-3,-2,9,8,-7,-10,-10,-11
-5,-6,0,6,-2,-2,8,7,-7,-9,-9,-10
-4,-5,0,5,-1,-2,7,7,-6,-9,-9,-9
-4,-5,-1,5,0,-2,6,6,-6,-8,-8,-9
-3,-5,-2,5,0,-3,6,6,-5,-8,-8,-8
-3,-5,-2,5,0,-3,5,6,-4,-7,-7,-8
-2,-5,-3,5,0,-4,5,6,-3,-6,-7,-7
-2,-5,-3,4,1,-4,5,7,-2,-6,-6,-7
-2,-5,-3,4,1,-4,5,7,-2,-5,-5,-6
-1,-5,-3,3,2,-4,5,7,-2,-5,-5,-6
-1,-5,-4,3,2,-4,4,7,-2,-4,-5,-6
0,-5,-4,3,2,-4,4,7,-2,-4,-4,-6
0,-5,-4,3,2,-4,3,7,-2,-4,-4,-5
0,-5,-4,3,2,-4,3,7,-1,-4,-4,-5
0,-5,-4,3,2,-4,3,6,-1,-3,-3,-5
0,-5,-4,3,2,-4,3,6,0,-3,-3,-4
0,-5,-4,3,2,-4,3,6,0,-3,-2,-4
0,-4,-4,2,2,-4,3,5,0,-2,-2,-4
0,-4,-4,2,2,-4,2,5,0,-2,-2,-4
0,-4,-4,2,3,-4,2,5,0,-2,-2,-4
1,-4,-4,1,3,-4,1,5,0,-2,-2,-4
1,-4,-4,1,3,-4,1,5,0,-1,-1,-3
2,-3,-4,0,3,-3,1,5,0,-1,-1,-3
2,-3,-4,0,3,-3,1,4,0,-1,0,-2
2,-3,-4,0,3,-3,1,4,0,-1,0,-2
2,-2,-4,0,3,-3,1,4,0,0,0,-1
2,-2,-4,0,4,-3,1,4,0,0,1,-1
3,-2,-4,0,4,-3,0,4,0,0,1,0
3,-1,-4,0,4,-2,0,4,1,1,1,0
3,-1,-4,-1,4,-2,0,4,1,1,2,0
4,-1,-4,-1,4,-2,-1,4,2,2,2,0
4,-1,-4,-1,4,-2,-1,4,2,2,3,1
4,0,-4,-1,4,-1,-1,4,2,3,3,1
4,0,-4,-2,4,-1,-2,4,2,3,4,2
5,0,-4,-2,4,0,-2,3,2,4,4,2
5,1,-4,-3,4,0,-3,3,2,4,5,3
5,1,-4,-3,4,0,-3,3,2,5,5,3
6,2,-4,-4,5,0,-4,3,2,5,6,3
6,2,-3,-4,5,0,-4,3,3,6,6,4
6,2,-3,-4,5,0,-4,3,3,6,7,4
6,2,-3,-4,5,0,-4,2,3,7,7,5
6,3,-3,-5,5,1,-5,2,3,7,8,5
6,3,-3,-5,5,1,-5,2,4,7,8,6
7,3,-3,-6,5,2,-5,2,4,8,9,6
7,4,-3,-6,5,2,-6,2,4,8,9,7
8,4,-3,-6,5,2,-6,2,4,9,10,7
8,4,-3,-6,6,2,-7,2,4,9,10,7
8,4,-2,-7,6,2,-7,2,5,9,10,7
8,5,-2,-7,6,2,-7,2,5,9,11,8
8,5,-2,-7,6,2,-7,2,5,10,11,8
8,5,-2,-7,6,2,-7,2,5,10,11,8
8,6,-2,-7,6,2,-7,2,5,10,11,8
8,6,-2,-7,6,2,-7,2,5,10,11,8
8,6,-2,-7,6,2,-7,2,5,10,11,8
8,6,-2,-7,6,2,-7,2,5,10,11,8
8,6,-2,-7,6,2,-7,2,5,10,11,8
8,6,-2,-7,6,3,-7,2,5,10,11,8
8,6,-1,-7,5,3,-7,2,5,10,11,8
8,6,-1,-7,5,3,-7,2,5,10,11,8
8,6,-1,-7,5,3,-7,2,6,10,11,8
8,6,-1,-7,5,3,-7,2,6,10,11,8
8,6,0,-7,5,3,-7,2,6,10,11,8
8,6,0,-7,5,3,-7,2,6,10,11,8
8,6,0,-7,5,3,-7,2,6,10,10,8
8,6,0,-7,5,3,-7,2,6,10,10,7
8,6,0,-7,5,3,-7,2,6,10,9,7
7,6,0,-7,4,3,-6,2,6,10,9,6
7,6,0,-7,4,3,-6,2,6,10,8,6
7,6,0,-7,4,3,-6,2,6,10,8,6
7,6,0,-7,4,3,-6,2,6,9,8,6
7,6,0,-6,4,3,-6,3,6,9,8,6
6,6,0,-6,4,3,-6,3,6,8,8,5
6,6,0,-6,4,3,-6,3,5,8,8,5
5,6,0,-6,4,3,-5,3,5,8,8,4
5,5,0,-5,3,3,-5,3,5,8,7,4
5,5,0,-5,3,3,-5,3,5,8,7,4
5,5,0,-5,3,3,-5,3,5,8,7,4
4,5,0,-5,2,3,-4,3,5,7,6,3
4,5,0,-5,2,3,-4,3,5,7,6,3
4,5,0,-5,2,3,-4,3,5,7,6,3
4,4,0,-5,2,3,-4,3,5,7,5,3
4,4,0,-5,2,3,-4,3,5,7,5,3
4,4,0,-5,2,3,-3,3,5,7,5,2
4,4,0,-4,2,3,-3,3,5,7,5,2
4,4,0,-4,2,3,-3,3,5,7,4,2
4,4,0,-4,2,2,-3,3,5,7,4,2
4,4,0,-4,2,2,-3,3,5,7,4,2
4,4,0,-4,2,2,-3,3,6,6,4,1
4,4,0,-4,2,2,-3,3,6,6,4,1
3,4,0,-4,2,2,-3,3,6,6,4,1
3,4,0,-4,2,2,-3,3,7,5,4,1
3,3,0,-3,2,2,-3,3,7,5,4,1
3,3,0,-3,2,1,-3,3,8,5,4,0
3,3,0,-3,2,1,-2,3,8,5,3,0
3,3,0,-3,2,1,-2,3,8,5,3,0
3,3,0,-3,2,1,-2,3,8,5,3,0
3,3,0,-3,2,1,-2,3,8,5,3,0
3,2,0,-3,2,1,-2,3,8,5,3,0
3,2,-1,-3,2,1,-1,3,8,4,2,0
2,1,-1,-2,2,0,-1,3,8,4,2,-1
2,1,-1,-2,2,0,-1,3,8,4,2,-1
2,1,-1,-1,2,0,-1,3,8,4,2,-1
2,1,-1,-1,2,0,-1,3,8,4,1,-1
2,1,-1,-1,2,0,-1,3,8,4,1,-1
2,1,-1,-1,2,0,-1,3,8,4,1,-1
2,0,-1,-1,2,0,0,3,8,3,0,-1
1,0,-1,0,2,0,0,3,7,3,0,-1
1,0,-1,0,2,0,0,3,7,2,0,-2
1,0,-2,0,2,-1,0,3,7,2,0,-2
1,-1,-2,0,2,-1,0,3,7,2,0,-2
1,-1,-2,0,2,-1,0,3,6,1,-1,-3
1,-1,-2,0,2,-1,0,3,6,1,-1,-3
1,-1,-2,0,2,-2,0,3,5,0,-1,-3
1,-1,-2,0,2,-2,0,3,5,0,-1,-3
1,-1,-3,0,2,-2,0,3,5,0,-1,-4
1,-1,-3,0,2,-2,0,3,5,0,-2,-4
0,-2,-3,0,2,-2,1,3,4,0,-2,-4
0,-2,-3,1,2,-2,1,3,4,0,-2,-4
0,-2,-3,1,2,-2,1,3,4,0,-2,-4
0,-3,-3,1,2,-2,1,3,3,-1,-2,-4
0,-3,-3,1,2,-3,1,3,3,-1,-3,-4
0,-4,-3,2,2,-3,1,3,2,-2,-3,-4
0,-4,-3,2,2,-3,1,3,2,-2,-3,-4
0,-4,-3,2,2,-3,1,3,2,-3,-3,-5
0,-4,-3,2,2,-3,1,3,1,-3,-4,-5
0,-4,-3,2,2,-3,1,3,1,-3,-4,-5
0,-4,-3,2,2,-4,1,3,1,-3,-5,-5
0,-4,-4,2,2,-4,1,3,0,-3,-5,-5
0,-4,-4,2,2,-4,1,3,0,-4,-5,-6
0,-4,-4,2,2,-4,1,3,0,-4,-5,-6
0,-5,-4,2,2,-4,1,3,-1,-5,-6,-7
0,-5,-4,2,3,-4,2,3,-1,-5,-6,-7
0,-5,-4,2,3,-4,2,3,-1,-6,-6,-7
0,-5,-4,2,3,-4,2,3,-2,-6,-7,-7
0,-5,-4,2,3,-4,2,3,-2,-6,-7,-7
0,-5,-4,2,3,-4,2,3,-2,-6,-7,-7
0,-5,-4,2,3,-5,2,3,-2,-6,-7,-7
0,-5,-4,2,3,-5,2,3,-3,-6,-7,-8
0,-5,-4,2,3,-5,2,3,-3,-7,-7,-8
-1,-5,-4,2,3,-5,2,3,-3,-7,-7,-8
-1,-6,-4,2,2,-5,2,3,-3,-7,-7,-8
-1,-6,-4,2,2,-5,2,3,-4,-7,-7,-8
-1,-6,-4,3,2,-5,2,3,-4,-7,-8,-8
-1,-6,-4,3,2,-5,2,3,-4,-7,-8,-8
-1,-6,-4,3,2,-5,3,3,-4,-7,-8,-8
-2,-7,-4,4,2,-5,3,3,-5,-7,-8,-9
-2,-7,-4,4,2,-5,3,3,-5,-8,-8,-9
-2,-7,-4,4,2,-5,3,3,-5,-8,-8,-10
-2,-7,-4,4,2,-6,3,3,-6,-9,-9,-10
-2,-7,-4,4,2,-6,3,3,-6,-9,-9,-10
-2,-8,-4,5,2,-6,3,3,-7,-10,-9,-10
-2,-8,-5,5,2,-6,4,3,-7,-10,-10,-10
-3,-8,-5,5,2,-7,4,3,-8,-11,-10,-10
-3,-9,-5,6,2,-7,4,3,-8,-11,-10,-10
-3,-9,-5,6,2,-8,4,3,-9,-11,-10,-10
-3,-10,-5,6,2,-8,4,3,-9,-11,-10,-10
-3,-10,-6,6,2,-8,4,3,-9,-11,-10,-10
-3,-10,-6,6,2,-9,4,3,-9,-11,-10,-10
-3,-10,-7,6,2,-9,4,3,-10,-12,-11,-10
-3,-10,-7,6,2,-9,4,3,-10,-12,-11,-10
-3,-10,-7,6,2,-9,4,2,-10,-12,-12,-11
-3,-10,-7,7,2,-9,4,2,-11,-12,-12,-11
-3,-10,-6,7,2,-9,4,1,-11,-12,-12,-11
-3,-10,-6,7,2,-8,4,1,-11,-12,-12,-11
-3,-10,-5,7,2,-8,4,1,-11,-12,-12,-11
-3,-10,-5,7,1,-7,4,1,-11,-12,-12,-11
-4,-10,-5,7,1,-7,4,0,-12,-13,-12,-11
-4,-9,-5,7,1,-7,4,0,-12,-13,-12,-11
-4,-9,-4,7,1,-7,4,0,-12,-13,-12,-11
-4,-8,-4,7,1,-7,4,0,-12,-13,-12,-11
-4,-8,-4,7,1,-7,4,0,-12,-13,-12,-11
-4,-8,-4,7,1,-7,4,0,-12,-13,-12,-11
-4,-8,-4,7,1,-7,4,0,-12,-13,-12,-11
-4,-9,-4,7,1,-7,4,0,-13,-13,-12,-11
-4,-9,-4,7,1,-7,4,0,-13,-13,-12,-11
-4,-10,-5,7,1,-8,4,0,-13,-13,-12,-11
-4,-10,-6,7,2,-8,4,0,-13,-13,-13,-11
-4,-11,-7,7,2,-9,4,0,-13,-13,-13,-11
-3,-11,-7,7,3,-9,4,0,-12,-13,-12,-11
-3,-11,-7,7,3,-9,4,1,-12,-13,-12,-11
-3,-11,-7,7,3,-9,4,1,-12,-13,-12,-11
-3,-11,-7,7,3,-9,4,1,-12,-13,-12,-11
-3,-11,-7,7,3,-9,4,1,-12,-13,-12,-11
-3,-11,-7,7,3,-9,4,1,-11,-13,-12,-11
-3,-11,-7,7,3,-9,4,1,-11,-13,-12,-11
-3,-11,-7,8,2,-9,5,1,-11,-13,-12,-11
-4,-11,-7,8,2,-9,5,1,-10,-13,-12,-11
-4,-11,-7,8,2,-9,6,1,-10,-13,-12,-11
-4,-11,-6,8,2,-9,6,1,-10,-13,-12,-11
-5,-11,-6,9,2,-9,6,1,-10,-13,-13,-11
-5,-11,-6,9,2,-9,6,1,-10,-13,-13,-11
-5,-11,-6,9,2,-9,6,1,-10,-13,-13,-11
-5,-11,-6,9,2,-9,6,1,-10,-13,-13,-11
-5,-11,-6,9,2,-9,6,1,-10,-13,-13,-11
-5,-11,-6,8,2,-9,6,1,-10,-13,-13,-11
-4,-11,-6,8,2,-9,6,1,-10,-13,-13,-11
-4,-11,-6,8,2,-9,6,1,-10,-13,-13,-11
-4,-11,-6,8,2,-9,5,1,-10,-13,-12,-11
-4,-11,-6,8,2,-8,5,1,-10,-13,-12,-11
-4,-11,-6,8,2,-8,5,1,-10,-13,-12,-11
-4,-11,-6,8,1,-8,5,1,-10,-13,-12,-11
-4,-11,-6,8,1,-8,5,1,-9,-13,-12,-11
-4,-11,-6,8,2,-9,6,2,-8,-13,-12,-11
-4,-11,-8,8,3,-10,6,3,-6,-13,-13,-12
-3,-13,-10,9,4,-11,7,6,-3,-13,-13,-13
-2,-15,-13,9,6,-14,8,10,0,-14,-15,-14
-2,-17,-16,10,8,-17,10,15,6,-15,-16,-16
-1,-19,-19,10,9,-19,11,19,13,-15,-18,-18
0,-20,-20,10,11,-20,12,23,21,-15,-19,-20
1,-20,-21,10,12,-21,12,26,30,-13,-19,-21
3,-18,-21,8,12,-19,12,28,40,-10,-18,-21
4,-15,-20,6,13,-17,11,30,51,-5,-15,-20
6,-10,-17,2,13,-14,9,30,64,2,-10,-17
8,-3,-12,-2,11,-8,5,27,75,13,-2,-11
10,6,-5,-8,8,0,0,22,83,25,7,-3
12,17,4,-14,5,10,-5,14,89,40,20,7
15,30,14,-22,1,21,-12,5,92,56,36,21
19,43,23,-31,-1,33,-20,-5,92,75,56,38
24,56,32,-40,-2,44,-29,-17,87,96,79,59
29,69,39,-48,-4,54,-37,-29,80,115,102,80
34,81,46,-56,-5,63,-45,-40,72,131,123,99
37,90,52,-63,-6,71,-52,-50,63,141,138,115
37,96,58,-66,-9,77,-56,-59,52,142,144,124
36,97,61,-66,-12,79,-57,-63,42,133,141,125
33,93,60,-63,-13,76,-56,-64,32,118,131,121
30,86,57,-58,-13,72,-53,-64,17,98,116,113
26,80,54,-53,-14,67,-49,-64,-3,75,98,102
22,74,52,-47,-14,63,-46,-63,-24,53,80,91
18,67,49,-42,-15,58,-42,-60,-40,34,62,78
14,59,45,-36,-14,52,-36,-55,-50,19,45,64
9,49,38,-29,-13,43,-29,-47,-53,6,29,49
5,37,31,-21,-11,34,-22,-37,-50,-2,17,34
2,27,24,-14,-10,25,-15,-28,-44,-8,7,22
0,18,18,-8,-9,18,-9,-20,-38,-11,0,12
-2,10,13,-3,-8,11,-4,-13,-35,-15,-7,4
-4,4,9,1,-7,6,0,-7,-33,-19,-13,-3
-6,0,6,4,-6,3,4,-2,-30,-21,-17,-9
-7,-3,4,6,-5,0,7,2,-26,-22,-19,-12
-8,-5,3,7,-4,-1,9,5,-22,-22,-21,-15
-9,-6,3,8,-4,-2,10,8,-20,-21,-22,-17
-10,-7,3,8,-5,-2,11,10,-18,-21,-22,-18
-10,-7,3,8,-6,-2,12,11,-17,-21,-22,-18
-10,-7,4,9,-6,-2,13,12,-17,-21,-22,-19
-11,-7,4,9,-7,-2,13,12,-17,-21,-22,-19
-11,-8,4,10,-7,-2,14,13,-17,-21,-22,-20
-11,-8,3,11,-7,-3,15,13,-17,-21,-23,-20
-11,-9,2,11,-6,-4,16,14,-16,-20,-23,-21
-12,-10,2,11,-6,-4,17,15,-16,-20,-23,-21
-12,-11,1,12,-6,-5,18,15,-16,-20,-22,-21
-12,-12,0,12,-6,-6,18,16,-16,-20,-22,-21
-12,-13,-1,13,-5,-7,19,18,-16,-21,-22,-21
-12,-14,-2,13,-4,-8,20,19,-15,-21,-22,-21
-11,-15,-4,14,-3,-10,21,21,-14,-21,-22,-21
-11,-16,-5,14,-2,-11,21,22,-14,-21,-22,-21
-11,-16,-6,14,-2,-11,22,23,-14,-21,-22,-21
-10,-16,-6,14,-2,-11,23,23,-14,-21,-22,-21
-10,-16,-6,14,-2,-11,22,22,-14,-21,-22,-21
-9,-15,-5,13,-2,-10,20,20,-14,-20,-21,-20
-9,-14,-5,12,-2,-9,18,17,-13,-19,-20,-19
-8,-13,-4,11,-2,-9,16,14,-13,-18,-19,-18
-8,-12,-4,10,-2,-8,14,10,-12,-16,-17,-17
-7,-10,-3,9,-1,-7,12,7,-12,-15,-15,-15
-6,-9,-3,8,-1,-6,10,5,-11,-14,-14,-14
-5,-9,-3,8,0,-6,9,3,-11,-13,-13,-13
-5,-8,-4,7,0,-7,8,2,-11,-13,-13,-12
-4,-8,-5,7,1,-7,7,2,-10,-12,-12,-12
-3,-8,-6,7,1,-7,7,2,-9,-12,-12,-11
-3,-8,-6,7,2,-8,6,2,-8,-11,-11,-11
-2,-8,-7,6,2,-8,6,2,-8,-11,-10,-10
-2,-8,-7,6,3,-8,5,2,-7,-10,-9,-10
-1,-8,-7,6,3,-8,5,2,-7,-10,-9,-9
-1,-8,-7,5,3,-8,4,2,-6,-10,-8,-8
0,-8,-8,5,4,-8,4,2,-6,-9,-8,-8
0,-8,-8,5,4,-8,3,2,-6,-9,-7,-8
0,-8,-8,5,4,-8,3,1,-6,-9,-7,-8
0,-8,-8,5,4,-8,3,1,-5,-8,-7,-8
0,-7,-8,4,4,-8,2,1,-5,-8,-7,-8
0,-7,-8,4,4,-8,2,1,-5,-8,-7,-7
0,-7,-8,4,4,-8,2,1,-4,-7,-6,-7
0,-7,-8,3,4,-8,2,1,-4,-7,-6,-7
0,-7,-8,3,4,-8,2,1,-4,-7,-5,-6
1,-6,-8,3,4,-7,2,1,-4,-6,-5,-6
1,-6,-8,3,5,-7,2,1,-4,-6,-5,-6
1,-6,-8,3,5,-7,2,1,-4,-5,-5,-6
1,-5,-8,2,5,-7,1,1,-4,-5,-4,-5
2,-5,-8,2,5,-7,1,0,-4,-5,-4,-5
2,-5,-8,2,5,-7,1,0,-3,-5,-3,-4
2,-5,-8,2,5,-7,0,0,-3,-4,-3,-4
2,-4,-8,1,5,-6,0,0,-3,-4,-2,-4
2,-4,-7,1,5,-6,0,0,-2,-3,-2,-4
3,-4,-7,1,5,-6,0,0,-2,-3,-1,-3
3,-3,-7,0,5,-5,0,0,-1,-2,-1,-3
3,-3,-7,0,5,-5,0,0,-1,-2,0,-2
3,-3,-7,0,5,-5,-1,0,-1,-1,0,-2
4,-2,-7,0,6,-4,-1,0,-1,0,0,-1
4,-2,-7,-1,6,-4,-2,-1,0,0,1,0
5,-1,-7,-1,6,-4,-2,-1,0,0,2,0
5,-1,-7,-1,6,-4,-2,-1,0,1,2,0
5,0,-7,-1,6,-4,-3,-1,0,1,3,1
6,0,-7,-2,6,-4,-3,-1,0,2,3,1
6,0,-7,-2,6,-3,-3,-1,0,2,4,2
7,0,-7,-3,6,-3,-4,-1,0,3,4,2
7,1,-7,-3,6,-3,-4,-2,0,4,5,3
7,1,-7,-4,6,-3,-5,-2,0,4,5,3
7,2,-6,-4,7,-2,-5,-2,1,5,6,4
7,2,-6,-4,7,-2,-5,-2,1,5,6,4
8,2,-6,-4,7,-2,-5,-3,2,6,7,5
8,2,-6,-5,7,-2,-6,-3,2,6,7,5
8,3,-6,-5,7,-2,-6,-3,2,6,8,5
8,3,-6,-5,7,-1,-6,-3,2,7,8,5
8,4,-6,-5,7,-1,-6,-3,2,7,8,6
8,4,-6,-5,7,-1,-7,-3,2,7,9,6
8,4,-5,-5,7,-1,-7,-3,2,7,9,6
8,4,-5,-6,7,-1,-7,-3,3,7,9,6
8,5,-5,-6,7,0,-7,-3,3,7,9,6
8,5,-5,-6,7,0,-7,-3,3,7,9,6
8,5,-5,-6,7,0,-7,-3,3,8,9,6
8,5,-5,-6,7,0,-7,-3,3,8,9,6
8,5,-5,-6,7,0,-7,-3,3,8,9,6
8,5,-4,-6,7,0,-7,-3,4,8,9,6
8,5,-4,-6,7,0,-7,-3,4,8,9,6
8,5,-4,-6,7,0,-7,-3,4,8,9,6
8,5,-4,-6,7,0,-7,-3,4,8,9,6
8,5,-4,-6,7,0,-7,-3,4,8,9,6
8,5,-4,-6,7,0,-6,-3,4,8,9,6
8,5,-4,-6,7,0,-6,-3,4,8,9,6
8,5,-4,-6,6,0,-6,-2,4,8,8,5
7,5,-3,-6,6,0,-6,-2,4,8,8,5
7,5,-3,-6,6,0,-6,-2,4,8,7,5
7,5,-3,-6,6,0,-6,-2,4,7,7,5
7,5,-3,-5,5,0,-6,-2,4,7,7,5
7,5,-2,-5,5,0,-6,-2,4,7,6,5
7,5,-2,-5,5,0,-5,-2,4,7,6,4
7,5,-2,-5,5,0,-5,-2,4,7,6,4
6,4,-2,-5,4,0,-5,-2,4,6,5,3
6,4,-2,-5,4,0,-5,-2,4,6,5,3
6,4,-2,-5,4,0,-4,-2,3,6,4,3
6,4,-2,-5,4,0,-4,-2,3,6,4,2
5,4,-2,-4,4,0,-4,-2,3,5,4,2
5,4,-2,-4,4,0,-4,-2,3,5,4,2
4,4,-2,-4,4,0,-4,-2,3,5,4,2
4,4,-2,-4,4,0,-3,-2,3,5,4,2
4,4,-2,-4,4,0,-3,-2,3,5,4,1
4,4,-2,-3,4,0,-3,-2,3,5,3,1
4,4,-2,-3,4,0,-3,-2,3,5,3,1
4,3,-1,-3,3,0,-3,-2,3,5,3,1
4,3,-1,-3,3,0,-3,-2,3,4,3,1
3,3,-1,-3,3,0,-3,-2,4,4,3,1
3,3,-1,-3,3,0,-2,-2,4,4,3,0
3,3,-1,-3,3,0,-2,-2,5,4,3,0
3,3,-1,-3,3,0,-2,-1,5,4,2,0
3,3,-1,-2,3,0,-2,-1,5,4,2,0
3,2,-1,-2,3,0,-2,-1,6,4,2,0
3,2,-1,-2,3,0,-1,-1,6,4,2,0
2,2,-1,-2,3,0,-1,-1,6,4,2,0
2,2,-1,-2,3,0,-1,-1,6,4,2,0
2,2,-1,-2,3,0,-1,-1,6,4,1,-1
2,1,-1,-2,3,0,-1,-1,6,4,1,-1
2,1,-1,-2,3,0,-1,-1,7,4,1,-1
2,1,-1,-1,3,-1,-1,-1,7,3,1,-1
2,0,-2,-1,3,-1,-1,-1,7,3,1,-1
2,0,-2,-1,3,-1,-1,-1,7,3,1,-1
2,0,-2,-1,3,-1,0,0,7,3,1,-1
2,0,-2,-1,3,-1,0,0,7,3,0,-1
2,0,-2,0,3,-2,0,0,7,3,0,-2
2,0,-2,0,3,-2,0,0,7,2,0,-2
1,0,-2,0,3,-2,0,0,7,2,-1,-2
1,0,-2,0,3,-2,0,0,7,1,-1,-2
1,0,-3,0,3,-2,0,0,6,1,-1,-3
1,-1,-3,0,3,-2,0,0,6,1,-1,-3
1,-1,-3,0,3,-2,0,0,5,0,-2,-3
1,-1,-3,0,3,-2,0,0,5,0,-2,-3
1,-1,-3,0,3,-2,0,-1,5,0,-2,-3
1,-1,-3,0,3,-2,0,-1,5,0,-3,-4
1,-1,-3,0,3,-3,0,-1,4,-1,-3,-4
1,-1,-3,0,3,-3,0,-1,4,-1,-3,-4
1,-1,-4,0,3,-3,0,-1,3,-1,-3,-4
1,-1,-4,0,3,-3,0,-1,3,-2,-3,-4
1,-1,-4,0,3,-3,0,-1,2,-2,-3,-5
0,-2,-4,0,3,-3,0,-1,2,-3,-4,-5
0,-2,-4,0,3,-3,1,-1,2,-3,-4,-5
0,-3,-4,0,3,-4,1,-1,1,-3,-4,-6
0,-3,-4,1,3,-4,1,-1,1,-3,-5,-6
0,-3,-4,1,3,-4,1,-1,0,-4,-5,-6
0,-3,-4,1,3,-4,1,-1,0,-4,-6,-6
0,-3,-4,1,3,-4,1,-1,0,-5,-6,-7
0,-3,-4,2,2,-4,1,-1,-1,-5,-6,-7
-1,-3,-4,2,2,-4,1,-1,-1,-5,-6,-7
-1,-3,-3,2,2,-4,1,-1,-1,-6,-6,-7
-1,-3,-3,2,2,-4,1,-1,-1,-6,-7,-7
-1,-3,-3,2,2,-4,1,-1,-2,-6,-7,-8
-1,-3,-3,2,2,-4,1,0,-2,-6,-7,-8
-1,-3,-3,2,2,-4,1,0,-2,-6,-7,-8
-1,-3,-3,2,2,-4,1,0,-2,-7,-7,-8
-1,-3,-3,2,2,-4,2,0,-3,-7,-8,-8
-1,-3,-3,2,2,-4,2,0,-3,-7,-8,-8
-1,-3,-3,2,2,-4,2,0,-3,-7,-8,-8
-1,-4,-3,2,2,-4,2,0,-3,-7,-8,-8
-2,-4,-3,2,2,-4,2,0,-3,-8,-8,-8
-2,-4,-3,3,1,-4,3,0,-4,-8,-8,-8
-2,-5,-3,3,1,-4,3,0,-4,-8,-8,-8
-2,-5,-3,3,1,-5,3,0,-4,-8,-8,-8
-2,-5,-3,3,1,-5,3,0,-4,-8,-8,-8
-2,-5,-4,3,1,-5,3,0,-4,-8,-9,-8
-2,-5,-4,3,2,-5,3,0,-5,-8,-9,-8
-2,-5,-4,3,2,-5,3,0,-5,-8,-9,-8
-2,-6,-4,4,2,-5,3,0,-5,-9,-9,-9
-2,-6,-4,4,2,-5,3,0,-6,-9,-9,-9
-2,-7,-4,4,2,-6,3,0,-6,-9,-9,-9
-2,-7,-5,4,2,-6,3,0,-6,-9,-9,-9
-2,-7,-5,4,2,-7,3,0,-7,-9,-9,-9
-2,-8,-5,5,2,-7,3,0,-7,-10,-9,-10
-3,-8,-5,5,2,-7,4,0,-8,-10,-10,-10
-3,-9,-5,6,2,-7,4,0,-8,-10,-10,-10
-3,-9,-5,6,2,-7,5,0,-8,-11,-10,-10
-3,-9,-6,7,2,-8,5,0,-9,-11,-10,-10
-3,-10,-6,7,2,-9,5,0,-9,-11,-11,-10
-3,-10,-7,7,2,-10,5,0,-10,-11,-11,-10
-3,-11,-7,7,2,-10,5,0,-10,-12,-11,-10
-3,-11,-8,8,2,-10,5,0,-11,-12,-11,-10
-3,-12,-8,8,3,-10,5,0,-11,-12,-11,-10
-3,-12,-8,8,3,-10,6,0,-11,-12,-11,-10
-3,-12,-8,8,3,-10,6,0,-11,-12,-11,-10
-3,-12,-8,8,3,-10,6,0,-11,-12,-11,-10
-4,-12,-8,8,3,-10,6,0,-11,-12,-11,-10
-4,-12,-8,8,3,-10,6,0,-11,-12,-11,-10
-4,-12,-8,8,3,-10,6,0,-11,-12,-11,-10
-4,-12,-8,8,3,-10,5,0,-11,-12,-11,-10
-4,-12,-8,8,3,-10,5,-1,-12,-12,-11,-10
-4,-11,-7,8,2,-10,5,-1,-12,-12,-11,-10
-4,-11,-7,8,2,-9,5,-1,-12,-12,-11,-10
-4,-10,-6,7,2,-9,5,-1,-12,-12,-11,-10
-4,-10,-6,7,2,-8,5,-1,-12,-12,-11,-10
-4,-10,-6,7,2,-8,5,-1,-12,-12,-11,-10
-4,-10,-6,7,2,-8,5,-1,-12,-12,-11,-10
-4,-10,-6,7,2,-8,5,-2,-12,-12,-11,-10
-4,-10,-6,7,2,-8,5,-2,-13,-12,-11,-10
-3,-10,-7,7,2,-9,5,-2,-13,-12,-11,-10
-3,-10,-7,8,2,-9,5,-1,-13,-13,-11,-10
-4,-11,-8,8,3,-10,5,-1,-13,-13,-11,-10
-4,-11,-8,8,3,-10,5,-1,-13,-13,-12,-10
-4,-12,-9,8,3,-11,5,-1,-13,-13,-12,-10
-4,-12,-9,8,3,-11,5,-1,-12,-13,-12,-10
-3,-12,-9,8,4,-11,5,0,-12,-13,-12,-10
-3,-12,-9,8,4,-11,5,0,-12,-13,-12,-10
-3,-12,-9,8,4,-11,5,0,-12,-12,-11,-10
-3,-12,-9,8,4,-11,5,0,-11,-12,-11,-10
-3,-12,-9,8,4,-11,6,0,-11,-12,-11,-10
-3,-13,-9,9,4,-11,6,0,-10,-12,-11,-10
-4,-13,-9,9,4,-11,6,0,-10,-12,-11,-10
-4,-14,-10,9,3,-12,6,0,-10,-12,-11,-10
-4,-14,-10,9,3,-12,6,0,-10,-12,-11,-10
-4,-15,-10,9,3,-12,7,0,-10,-12,-12,-10
-4,-15,-10,9,3,-12,7,0,-10,-12,-12,-10
-4,-14,-10,9,3,-12,7,1,-10,-12,-12,-10
-4,-14,-10,9,3,-12,7,1,-10,-12,-12,-10
-4,-13,-10,9,3,-12,7,1,-10,-12,-12,-10
-4,-13,-9,9,3,-12,7,1,-10,-12,-12,-10
-4,-13,-9,9,3,-11,7,1,-10,-12,-12,-10
-4,-13,-9,9,3,-11,7,1,-10,-12,-12,-10
-4,-13,-9,9,3,-11,7,1,-10,-12,-12,-10
-4,-13,-8,9,3,-10,7,1,-10,-11,-12,-10
-4,-12,-8,9,3,-10,7,1,-10,-11,-12,-10
-4,-12,-8,9,3,-10,6,1,-10,-11,-12,-10
-4,-12,-8,9,3,-11,6,1,-9,-12,-12,-10
-4,-13,-9,9,3,-11,6,2,-8,-12,-12,-10
-3,-13,-10,9,4,-12,7,3,-6,-12,-12,-11
-2,-15,-13,9,5,-14,8,6,-3,-13,-12,-12
-1,-17,-16,9,7,-16,9,11,1,-14,-14,-14
0,-19,-19,10,9,-19,11,16,7,-15,-15,-16
0,-20,-21,10,11,-21,12,20,14,-15,-17,-18
1,-21,-23,10,13,-22,12,24,22,-15,-18,-20
2,-21,-23,9,13,-22,13,27,31,-13,-18,-21
4,-19,-22,8,13,-20,12,29,41,-9,-17,-21
6,-15,-20,5,13,-18,11,30,53,-3,-13,-19
8,-9,-17,1,13,-13,8,29,65,5,-7,-15
10,-1,-12,-4,11,-6,5,26,76,16,0,-9
12,8,-4,-10,8,2,0,20,85,29,11,0
14,19,4,-17,5,12,-6,12,91,44,25,11
17,31,13,-25,2,23,-13,3,94,61,42,26
22,44,22,-33,1,33,-22,-8,94,81,63,44
28,57,29,-42,0,44,-31,-20,90,102,87,65
33,70,37,-51,-1,54,-39,-32,84,120,110,85
37,81,44,-58,-2,62,-47,-43,77,135,130,104
39,90,50,-64,-4,70,-53,-53,68,142,143,119
39,95,55,-67,-7,75,-56,-60,57,140,146,126
37,94,56,-65,-8,75,-56,-63,47,129,141,125
35,88,54,-61,-9,72,-54,-64,36,112,129,119
31,82,52,-56,-9,67,-51,-64,18,91,113,110
26,75,50,-51,-10,62,-47,-64,-4,69,95,99
22,69,48,-45,-12,58,-43,-63,-25,49,77,88
17,63,45,-40,-13,54,-39,-59,-41,31,59,75
13,54,40,-33,-13,47,-33,-53,-49,16,43,61
9,43,33,-26,-11,38,-26,-44,-51,5,28,46
5,31,26,-19,-9,29,-19,-34,-47,-3,16,33
2,22,19,-12,-8,21,-12,-25,-41,-7,7,21
0,14,14,-7,-7,14,-7,-17,-35,-11,0,12
-2,7,10,-2,-6,8,-2,-11,-33,-15,-7,3
-5,1,6,2,-5,3,2,-6,-31,-19,-12,-4
-6,-3,4,5,-4,0,6,-1,-29,-21,-16,-9
-7,-5,2,7,-4,-1,8,3,-25,-21,-18,-12
-8,-7,1,8,-4,-2,10,6,-21,-21,-19,-14
-8,-7,1,8,-5,-3,12,9,-19,-20,-20,-16
-9,-8,2,9,-5,-3,12,11,-18,-20,-20,-17
-9,-8,2,9,-5,-3,13,11,-18,-19,-20,-17
-10,-7,3,9,-5,-3,13,11,-17,-19,-21,-17
-10,-8,3,10,-6,-3,14,11,-17,-19,-21,-18
-11,-8,3,10,-6,-3,15,12,-17,-20,-21,-19
-11,-9,2,11,-6,-3,16,13,-17,-20,-21,-19
-11,-9,2,11,-6,-3,17,14,-16,-20,-21,-19
-11,-10,2,11,-6,-4,17,15,-16,-19,-21,-19
-11,-11,1,11,-6,-5,18,15,-16,-19,-21,-19
-11,-12,0,12,-5,-6,18,16,-16,-20,-21,-20
-11,-13,-1,12,-4,-7,19,17,-16,-20,-21,-20
-11,-14,-3,13,-3,-9,20,19,-15,-20,-21,-20
-11,-15,-4,13,-3,-10,21,20,-14,-20,-21,-20
-11,-15,-4,13,-3,-10,22,22,-14,-20,-21,-20
-11,-16,-5,13,-2,-10,23,23,-14,-20,-21,-20
-10,-15,-5,13,-2,-10,23,23,-14,-20,-21,-20
-10,-15,-4,13,-2,-9,22,21,-14,-20,-21,-19
-9,-14,-4,12,-2,-8,20,19,-14,-19,-20,-19
-9,-13,-4,11,-2,-8,18,16,-14,-18,-19,-18
-8,-12,-3,10,-2,-7,16,12,-14,-17,-17,-17
-8,-11,-3,9,-2,-6,14,9,-13,-15,-16,-15
-7,-9,-2,8,-2,-6,12,6,-12,-14,-14,-14
-6,-8,-2,7,-2,-5,10,4,-11,-13,-13,-12
-5,-8,-2,7,-1,-5,8,2,-11,-12,-12,-11
-4,-7,-3,6,0,-5,7,2,-11,-12,-11,-11
-4,-7,-3,6,0,-5,7,1,-10,-12,-11,-10
-3,-7,-4,5,1,-5,6,1,-9,-11,-10,-10
-3,-7,-4,5,1,-5,6,1,-9,-11,-10,-9
-2,-7,-5,5,2,-5,5,1,-8,-10,-9,-9
-2,-7,-5,5,2,-5,5,1,-8,-10,-9,-9
-1,-7,-6,4,2,-5,4,2,-7,-9,-8,-8
-1,-7,-6,4,3,-6,4,2,-7,-9,-7,-8
0,-7,-6,4,3,-6,4,2,-6,-8,-7,-7
0,-7,-6,4,3,-6,4,2,-6,-8,-7,-7
0,-7,-7,4,3,-6,4,2,-5,-8,-7,-7
0,-7,-7,4,4,-6,4,2,-5,-7,-6,-6
0,-7,-7,4,4,-7,3,2,-5,-7,-6,-6
0,-7,-7,4,4,-7,3,2,-4,-6,-5,-6
0,-7,-7,4,4,-7,3,2,-4,-6,-5,-5
0,-7,-7,4,4,-7,3,2,-4,-6,-4,-5
0,-7,-7,4,5,-7,3,2,-3,-6,-4,-5
0,-7,-7,4,5,-7,3,2,-3,-5,-3,-4
0,-7,-7,4,5,-7,2,2,-3,-5,-3,-4
0,-7,-8,3,5,-7,2,2,-2,-4,-3,-4
1,-7,-8,3,5,-7,2,2,-2,-4,-2,-3
1,-7,-8,3,5,-7,2,2,-2,-3,-2,-3
1,-7,-8,3,5,-7,2,2,-1,-3,-1,-2
1,-7,-8,2,5,-7,2,2,-1,-2,0,-2
1,-6,-8,2,5,-7,2,2,0,-2,0,-1
1,-6,-8,2,5,-7,2,2,0,-1,0,-1
2,-5,-8,2,5,-6,1,2,0,-1,1,0
2,-5,-8,1,5,-6,1,2,0,0,1,0
3,-5,-8,1,5,-6,1,1,0,0,2,0
3,-4,-8,1,6,-6,0,1,0,0,2,1
3,-4,-8,0,6,-6,0,1,1,1,3,1
3,-4,-7,0,6,-6,0,1,1,1,3,2
3,-4,-7,0,6,-6,-1,1,2,2,4,3
4,-3,-8,0,6,-6,-1,1,2,3,5,3
5,-3,-8,-1,7,-5,-1,0,2,3,5,3
6,-2,-8,-1,7,-5,-2,0,2,4,6,3
6,-1,-8,-2,8,-4,-3,0,2,4,6,3
7,-1,-7,-2,8,-4,-3,0,2,5,7,4
7,0,-7,-3,8,-4,-4,-1,2,5,7,4
7,0,-7,-3,8,-4,-4,-1,2,6,8,5
7,0,-7,-4,8,-3,-5,-1,2,6,8,5
7,0,-7,-4,8,-3,-5,-1,2,7,9,6
8,1,-7,-4,8,-2,-6,-1,3,7,9,6
8,1,-6,-4,8,-2,-6,-1,3,8,10,7
8,2,-6,-5,8,-2,-6,-1,3,8,10,7
8,2,-6,-5,8,-1,-6,-1,3,8,10,7
8,2,-6,-5,8,-1,-6,-1,3,8,10,7
8,2,-6,-6,8,-1,-6,-1,3,8,10,7
8,2,-6,-6,8,-1,-6,-1,3,8,10,7
8,3,-6,-6,8,-1,-6,-1,4,8,10,7
8,3,-6,-7,8,0,-7,-1,4,8,10,7
9,3,-6,-7,8,0,-7,-1,4,8,10,7
9,3,-6,-7,8,0,-7,-1,4,8,11,7
9,3,-5,-7,8,0,-7,-1,5,8,11,7
9,3,-5,-7,8,0,-7,-1,5,9,11,7
9,3,-5,-7,8,0,-7,-1,5,9,11,7
9,3,-5,-7,8,0,-7,-1,5,9,11,7
9,4,-5,-7,8,0,-7,-1,5,9,11,7
9,4,-5,-7,8,0,-7,-1,5,9,10,7
9,4,-5,-7,8,0,-7,-1,5,9,10,7
9,4,-5,-7,7,0,-7,-1,5,9,10,7
9,4,-4,-7,7,0,-7,-1,5,9,10,7
8,4,-4,-7,7,0,-7,-1,5,8,9,7
8,4,-4,-7,7,0,-7,-1,5,8,9,6
8,4,-4,-7,7,0,-7,-1,5,8,8,6
8,4,-4,-7,7,0,-6,-1,5,8,8,6
7,4,-3,-7,6,0,-6,-1,5,7,8,6
7,4,-3,-6,6,0,-6,-1,5,7,7,5
7,4,-3,-6,6,0,-6,0,5,7,7,5
7,4,-3,-6,6,0,-5,0,5,7,7,5
7,3,-3,-5,6,0,-5,0,5,7,7,4
6,3,-3,-5,5,0,-5,0,4,7,6,4
6,3,-2,-5,5,0,-5,0,4,6,6,3
6,3,-2,-5,5,0,-5,0,4,6,5,3
5,3,-2,-5,4,0,-4,0,4,6,5,3
5,2,-2,-4,4,0,-4,0,4,6,5,3
5,2,-2,-4,4,0,-4,0,4,5,5,3
5,2,-2,-4,4,0,-4,0,4,5,4,3
5,2,-2,-4,4,0,-4,0,4,5,4,2
4,2,-2,-4,4,0,-4,0,4,5,4,2
4,2,-2,-3,4,0,-3,0,4,5,4,2
4,1,-2,-3,4,0,-3,0,4,5,4,2
4,1,-2,-3,4,0,-3,0,4,5,4,1
4,1,-2,-3,4,0,-3,0,4,5,4,1
4,1,-2,-3,4,0,-3,0,4,5,3,1
4,1,-2,-3,4,0,-3,0,5,5,3,1
3,1,-2,-3,4,0,-2,0,5,5,3,1
3,1,-2,-2,4,-1,-2,0,5,5,3,0
3,0,-2,-2,4,-1,-2,0,5,5,3,0
3,0,-2,-2,4,-1,-2,0,6,5,3,0
2,0,-2,-2,4,-1,-2,0,6,5,3,0
2,0,-2,-2,3,-1,-2,0,7,5,2,0
2,0,-2,-2,3,-1,-2,0,7,4,2,0
2,0,-2,-1,3,-1,-1,0,7,4,2,0
2,0,-2,-1,3,-1,-1,0,7,4,2,-1
2,0,-2,-1,3,-1,-1,0,7,4,1,-1
2,0,-2,-1,3,-1,-1,0,7,4,1,-1
2,-1,-2,0,3,-2,-1,0,7,4,1,-1
2,-1,-3,0,3,-2,-1,0,7,3,0,-1
1,-1,-3,0,3,-2,-1,1,7,3,0,-1
1,-1,-3,0,3,-3,-1,1,7,2,0,-1
1,-1,-3,0,3,-3,-1,1,7,2,0,-1
1,-1,-3,0,3,-3,-1,1,6,2,0,-1
1,-2,-3,0,3,-3,0,1,6,2,0,-2
1,-2,-3,0,3,-3,0,1,6,1,0,-2
1,-3,-4,0,3,-3,0,1,6,1,0,-2
1,-3,-4,0,3,-3,0,1,6,1,0,-2
1,-3,-4,0,3,-3,0,1,6,0,-1,-2
1,-3,-5,0,3,-3,0,1,5,0,-1,-3
1,-3,-5,0,3,-3,0,1,5,0,-2,-3
1,-3,-5,0,3,-3,0,1,4,-1,-2,-3
0,-3,-5,0,3,-3,0,1,4,-1,-2,-4
0,-4,-5,1,3,-4,0,1,3,-1,-3,-4
0,-4,-5,1,3,-4,0,1,3,-1,-3,-4
0,-4,-5,1,4,-4,0,1,3,-2,-3,-4
0,-4,-5,1,4,-5,0,1,3,-2,-3,-4
0,-4,-5,1,4,-5,1,1,2,-2,-3,-4
0,-4,-5,1,4,-5,1,1,2,-3,-4,-4
0,-5,-5,1,3,-5,1,1,1,-3,-4,-4
0,-5,-5,2,3,-5,1,1,1,-3,-4,-5
0,-5,-5,2,3,-5,1,1,0,-3,-4,-5
0,-5,-5,2,3,-5,1,1,0,-3,-4,-5
0,-6,-5,2,3,-5,1,1,0,-4,-4,-5
0,-6,-5,2,3,-5,2,1,0,-4,-5,-5
0,-6,-5,2,3,-5,2,1,0,-4,-5,-6
0,-6,-5,2,3,-5,2,1,-1,-4,-5,-6
0,-6,-5,2,3,-6,2,1,-1,-5,-6,-7
0,-6,-5,2,3,-6,2,1,-2,-5,-6,-7
0,-6,-5,2,3,-6,2,1,-2,-5,-6,-7
0,-6,-5,2,3,-6,2,1,-2,-5,-7,-7
0,-7,-5,3,3,-6,2,1,-2,-6,-7,-7
-1,-7,-5,3,3,-6,2,1,-2,-6,-7,-7
-1,-7,-5,3,3,-6,2,2,-3,-6,-7,-7
-1,-7,-5,3,3,-6,2,2,-3,-7,-7,-7
-1,-7,-5,3,3,-6,2,2,-3,-7,-7,-7
-1,-7,-5,3,3,-6,2,2,-3,-7,-7,-7
-1,-7,-5,3,3,-6,3,2,-3,-7,-8,-8
-1,-7,-5,3,3,-6,3,2,-3,-7,-8,-8
-1,-7,-5,4,3,-6,3,2,-4,-7,-8,-8
-2,-8,-5,4,3,-6,3,2,-4,-7,-8,-8
-2,-8,-5,4,3,-6,3,2,-4,-7,-8,-8
-2,-8,-6,4,3,-6,3,2,-5,-8,-8,-8
-2,-8,-6,4,3,-6,3,2,-5,-8,-8,-8
-2,-8,-6,4,3,-6,3,2,-6,-8,-8,-9
-2,-8,-6,4,3,-6,3,2,-6,-8,-9,-9
-2,-9,-6,4,3,-7,3,1,-7,-8,-9,-9
-2,-9,-6,4,3,-7,4,1,-7,-8,-10,-9
-2,-9,-6,4,2,-7,4,1,-7,-9,-10,-9
-2,-9,-6,4,2,-7,4,1,-8,-9,-10,-9
-2,-9,-6,5,2,-8,4,1,-8,-10,-10,-9
-2,-10,-6,5,2,-8,4,1,-9,-10,-10,-10
-3,-10,-6,6,2,-8,4,1,-9,-11,-11,-10
-3,-11,-6,6,2,-9,4,1,-10,-11,-11,-10
-3,-11,-6,6,2,-9,5,1,-10,-11,-12,-10
-3,-11,-7,6,2,-9,5,1,-10,-11,-12,-10
-3,-11,-7,6,2,-9,5,1,-10,-11,-12,-10
-3,-11,-7,6,2,-9,5,1,-10,-11,-12,-10
-3,-11,-7,6,2,-9,5,1,-10,-12,-12,-10
-3,-12,-7,6,2,-9,5,1,-11,-12,-12,-11
-3,-12,-7,6,2,-9,5,1,-11,-12,-12,-11
-3,-12,-7,6,2,-9,5,0,-12,-12,-12,-11
-3,-11,-6,6,2,-9,5,0,-12,-12,-12,-11
-3,-11,-6,6,1,-9,5,0,-12,-12,-12,-11
-4,-11,-6,6,1,-8,5,0,-12,-12,-12,-11
-4,-11,-6,6,1,-8,5,0,-12,-12,-12,-11
-4,-10,-5,6,1,-8,5,0,-12,-13,-12,-11
-4,-10,-5,6,1,-7,4,0,-12,-13,-12,-11
-4,-9,-4,6,0,-7,4,0,-12,-13,-12,-11
-4,-9,-4,6,0,-6,4,0,-12,-13,-12,-11
-4,-8,-4,6,0,-6,4,0,-12,-13,-12,-11
-4,-8,-4,6,0,-6,4,-1,-13,-13,-12,-11
-4,-8,-4,6,0,-6,4,-1,-13,-13,-12,-11
-4,-9,-4,6,0,-6,4,-1,-13,-13,-12,-11
-4,-9,-5,6,0,-7,4,-1,-13,-13,-13,-11
-4,-10,-6,6,1,-7,4,0,-13,-13,-13,-11
-4,-10,-6,6,1,-8,4,0,-13,-13,-13,-11
-4,-11,-7,6,1,-8,4,0,-13,-13,-13,-11
-3,-11,-7,6,2,-9,4,0,-13,-13,-13,-11
-3,-11,-7,6,2,-9,4,0,-13,-13,-13,-11
-3,-11,-7,6,2,-9,4,0,-13,-13,-13,-11
-3,-11,-8,6,2,-9,4,0,-13,-13,-13,-11
-3,-11,-8,6,2,-9,4,0,-13,-13,-13,-11
-3,-11,-8,6,2,-9,4,0,-12,-13,-13,-10
-3,-11,-8,7,2,-9,5,1,-12,-13,-13,-10
-3,-11,-8,7,2,-9,5,1,-11,-13,-13,-10
-3,-11,-7,7,2,-9,5,1,-11,-13,-13,-11
-3,-11,-7,7,2,-9,5,1,-11,-13,-13,-11
-4,-11,-7,7,1,-9,5,1,-11,-13,-13,-11
-4,-11,-7,7,1,-9,5,1,-11,-13,-13,-11
-4,-11,-7,7,1,-9,5,1,-11,-13,-13,-11
-4,-11,-7,7,1,-9,5,1,-11,-13,-13,-11
-4,-11,-7,7,1,-9,5,1,-11,-13,-13,-11
-4,-11,-7,7,1,-8,5,1,-11,-13,-13,-11
-4,-11,-7,7,1,-8,5,1,-11,-13,-13,-11
-4,-11,-7,7,1,-9,5,1,-11,-13,-13,-11
-4,-11,-7,7,1,-9,5,1,-11,-13,-13,-11
-4,-10,-7,7,1,-9,5,1,-11,-13,-13,-11
-4,-10,-7,7,1,-9,5,1,-11,-13,-13,-11
-4,-10,-7,7,1,-8,5,1,-10,-13,-13,-11
-4,-10,-6,7,1,-8,5,1,-10,-13,-13,-11
-4,-10,-6,7,1,-8,5,1,-9,-13,-13,-11
-4,-10,-7,7,1,-9,6,2,-8,-12,-13,-11
-3,-11,-8,7,2,-10,6,4,-6,-12,-13,-11
-3,-13,-11,8,4,-12,7,8,-3,-13,-14,-13
-2,-16,-14,8,5,-14,9,12,1,-14,-16,-15
0,-18,-17,9,8,-17,10,17,6,-15,-18,-17
0,-19,-20,9,10,-19,11,22,14,-16,-19,-19
1,-19,-21,9,11,-20,11,26,22,-15,-20,-21
2,-18,-21,8,12,-20,11,29,31,-13,-20,-22
4,-16,-20,6,12,-18,11,31,41,-9,-19,-22
5,-12,-19,3,12,-15,10,32,53,-3,-15,-20
7,-7,-15,0,11,-11,7,31,65,5,-9,-16
9,0,-10,-5,10,-4,3,27,77,16,0,-9
12,10,-2,-11,7,4,-1,21,85,29,11,0
15,21,6,-18,4,14,-8,13,92,45,25,12
19,34,15,-26,1,25,-15,3,95,62,42,27
24,47,23,-35,0,35,-24,-7,96,82,64,46
29,60,30,-44,0,45,-33,-19,92,103,87,67
34,72,37,-52,-1,55,-41,-31,87,121,110,88
38,82,44,-60,-3,63,-49,-42,80,135,130,106
41,90,50,-65,-4,70,-55,-52,71,142,142,120
40,94,54,-67,-6,74,-58,-59,61,139,145,126
38,93,54,-66,-8,74,-57,-62,52,128,139,125
35,88,52,-62,-8,70,-55,-63,40,110,127,118
31,81,50,-56,-9,66,-52,-63,21,89,110,109
27,75,48,-51,-10,62,-48,-63,-3,67,92,98
22,69,47,-46,-12,58,-44,-61,-25,47,74,87
17,62,44,-40,-13,53,-39,-58,-42,30,57,74
13,53,40,-33,-13,46,-33,-51,-50,15,40,60
9,42,33,-26,-11,37,-26,-42,-51,4,25,45
5,31,25,-19,-10,28,-19,-32,-47,-3,13,31
3,22,19,-12,-9,21,-12,-23,-40,-7,5,20
0,14,14,-7,-8,14,-7,-16,-35,-11,-2,10
-2,7,10,-2,-7,8,-2,-9,-32,-15,-9,2
-4,1,7,2,-6,4,2,-4,-31,-19,-14,-5
-6,-2,5,4,-6,1,5,0,-28,-21,-18,-10
-8,-4,4,6,-6,0,8,5,-25,-22,-20,-13
-9,-5,3,7,-6,-1,9,8,-22,-21,-21,-15
-9,-6,2,8,-6,-2,11,11,-20,-21,-21,-16
-10,-7,2,8,-6,-2,12,12,-19,-20,-22,-17
-10,-7,3,8,-7,-1,12,13,-18,-20,-22,-18
-10,-7,3,8,-7,-1,13,14,-17,-20,-22,-18
-11,-7,4,9,-8,-1,13,14,-17,-20,-22,-18
-11,-7,4,9,-8,-2,14,14,-17,-20,-22,-19
-12,-8,3,10,-8,-2,15,15,-17,-20,-22,-19
-12,-9,3,10,-8,-3,16,16,-16,-20,-22,-20
-12,-9,2,10,-7,-3,17,17,-16,-20,-22,-20
-12,-10,1,10,-7,-4,17,17,-16,-20,-22,-20
-11,-11,0,11,-6,-5,17,18,-16,-20,-22,-20
-11,-12,-1,11,-6,-6,18,20,-15,-20,-22,-20
-11,-13,-2,12,-5,-7,19,22,-14,-20,-22,-20
-11,-14,-3,12,-4,-8,20,23,-14,-20,-22,-20
-11,-15,-4,12,-4,-9,21,25,-14,-21,-22,-20
-11,-15,-4,12,-4,-9,22,26,-14,-21,-22,-21
-11,-15,-4,12,-3,-9,22,25,-14,-20,-22,-20
-10,-15,-4,12,-3,-9,20,23,-14,-20,-22,-20
-10,-14,-4,11,-3,-8,18,21,-14,-19,-21,-19
-9,-13,-4,11,-3,-8,16,18,-14,-18,-20,-18
-8,-12,-4,10,-2,-7,14,15,-13,-17,-18,-17
-7,-11,-4,9,-2,-7,12,12,-12,-15,-17,-15
-6,-10,-3,8,-2,-6,10,9,-12,-14,-15,-14
-5,-9,-3,7,-1,-6,9,7,-11,-13,-14,-13
-4,-9,-4,6,0,-6,7,5,-11,-12,-13,-12
-3,-9,-5,6,0,-6,6,4,-10,-12,-13,-11
-2,-9,-6,6,1,-7,6,4,-10,-12,-12,-11
-2,-9,-7,5,2,-7,5,4,-9,-11,-12,-10
-1,-9,-8,5,2,-8,5,4,-8,-11,-11,-10
-1,-9,-8,5,2,-8,4,4,-7,-10,-10,-9
0,-9,-8,5,3,-8,4,4,-7,-10,-10,-9
0,-9,-8,4,3,-8,3,4,-6,-9,-9,-8
0,-9,-8,4,4,-8,3,4,-6,-9,-9,-8
0,-8,-8,4,4,-8,2,4,-6,-9,-8,-8
1,-8,-9,4,4,-8,2,4,-6,-8,-8,-8
1,-8,-9,4,4,-8,2,4,-6,-8,-8,-8
1,-7,-9,4,4,-8,2,4,-6,-8,-8,-7
1,-7,-9,3,4,-8,2,4,-5,-8,-7,-7
1,-7,-9,3,4,-8,2,4,-5,-8,-7,-7
1,-7,-9,3,5,-8,2,4,-4,-7,-6,-6
1,-7,-9,2,5,-8,1,4,-4,-7,-6,-6
1,-7,-9,2,5,-8,1,4,-4,-6,-6,-6
2,-7,-9,2,5,-8,1,4,-4,-6,-6,-5
2,-7,-9,2,5,-8,1,4,-4,-6,-6,-5
2,-6,-9,1,5,-7,0,4,-4,-5,-5,-4
2,-6,-9,1,5,-7,0,4,-3,-5,-5,-4
2,-5,-9,1,5,-6,0,3,-3,-5,-4,-4
3,-5,-9,0,6,-6,0,3,-3,-5,-4,-4
3,-5,-8,0,6,-6,0,3,-3,-4,-3,-3
3,-4,-8,0,6,-6,0,3,-2,-4,-3,-3
3,-4,-8,0,6,-6,0,3,-2,-3,-2,-2
4,-4,-8,0,6,-5,-1,3,-2,-3,-2,-2
4,-4,-8,0,6,-5,-1,2,-1,-2,-1,-1
5,-3,-8,-1,6,-5,-2,2,-1,-2,-1,-1
5,-3,-8,-1,6,-5,-2,2,-1,-1,0,0
5,-3,-8,-2,7,-5,-2,2,-1,-1,0,0
5,-3,-8,-2,7,-5,-2,2,-1,-1,1,0
5,-3,-8,-2,7,-5,-2,2,-1,0,1,0
5,-2,-8,-2,7,-5,-3,1,0,0,2,1
6,-2,-8,-2,7,-5,-3,1,0,0,2,1
6,-2,-8,-2,7,-5,-3,1,0,1,2,2
6,-2,-8,-2,7,-5,-4,1,0,1,3,2
7,-1,-9,-2,8,-5,-4,1,0,2,3,3
7,-1,-9,-3,8,-5,-5,1,0,2,4,3
8,-1,-10,-3,9,-5,-5,1,0,3,5,4
9,0,-10,-4,9,-5,-6,1,1,3,5,4
9,0,-10,-4,10,-5,-7,1,1,4,6,5
10,0,-10,-5,10,-5,-7,1,2,4,6,5
10,0,-10,-5,10,-5,-7,0,2,5,6,6
10,0,-10,-5,10,-5,-7,0,2,5,7,6
10,0,-10,-5,10,-5,-7,0,2,6,7,6
10,0,-10,-5,11,-5,-8,0,3,6,8,6
11,0,-10,-6,11,-5,-8,0,3,6,8,6
11,1,-10,-6,11,-5,-8,0,3,7,9,7
11,2,-9,-7,11,-4,-9,0,4,7,9,7
12,3,-9,-7,10,-3,-9,0,4,8,10,8
12,4,-8,-8,10,-2,-10,0,5,8,10,8
12,4,-8,-8,10,-2,-10,0,6,9,10,8
12,5,-7,-8,10,-1,-11,0,6,9,10,9
12,6,-6,-9,9,0,-11,0,7,9,11,9
12,7,-5,-9,9,1,-11,0,7,10,11,9
12,8,-4,-10,8,2,-11,0,8,10,11,9
12,9,-3,-10,8,2,-11,0,8,11,12,9
12,9,-3,-11,8,3,-11,1,9,11,12,9
13,10,-3,-11,8,3,-10,1,10,12,12,9
13,11,-3,-11,8,4,-10,2,11,13,12,10
13,11,-3,-11,8,4,-10,2,11,13,13,10
13,11,-2,-11,8,4,-10,2,12,13,13,10
13,11,-2,-12,8,5,-10,2,12,13,13,10
13,12,-1,-12,8,5,-10,2,12,13,13,10
13,12,-1,-12,7,5,-9,2,12,13,13,10
12,12,0,-12,7,6,-9,2,12,13,13,10
12,12,0,-12,6,6,-9,2,12,13,13,10
12,12,0,-12,6,6,-9,2,12,13,13,10
12,12,0,-12,6,6,-9,2,12,13,13,10
11,12,1,-12,5,6,-8,2,12,13,12,9
10,12,1,-11,4,7,-8,2,12,13,12,9
9,12,2,-11,3,7,-7,2,12,12,11,8
8,12,3,-10,3,7,-7,2,12,12,10,8
7,11,3,-9,2,7,-6,2,12,11,9,7
6,11,4,-9,2,7,-6,2,11,11,9,6
6,10,4,-8,1,7,-5,2,11,11,8,6
5,10,4,-8,1,7,-5,2,11,11,8,5
5,9,4,-7,1,7,-5,2,10,10,7,5
5,9,4,-7,0,7,-4,2,10,10,7,5
4,8,4,-6,0,6,-4,2,10,9,6,4
4,8,4,-6,0,6,-4,2,10,9,6,4
4,7,4,-5,0,6,-4,2,10,9,6,4
4,7,3,-5,0,5,-4,2,10,9,6,4
3,6,3,-5,0,5,-3,2,10,9,6,4
3,6,3,-5,0,5,-3,2,10,8,5,3
3,6,3,-5,0,5,-3,2,10,8,5,3
3,6,3,-4,1,4,-3,1,10,8,5,3
3,6,3,-4,1,4,-3,1,10,8,5,2
3,6,3,-4,1,3,-3,1,10,8,4,2
3,5,2,-4,1,3,-2,1,10,8,4,2
3,5,2,-4,1,3,-2,1,11,8,4,2
3,4,2,-4,1,3,-2,1,11,8,4,2
3,4,1,-4,1,3,-2,1,11,8,4,2
3,4,1,-4,1,3,-1,1,11,8,3,1
3,4,1,-4,1,3,-1,1,11,7,3,1
3,4,1,-4,1,2,-1,1,11,7,3,1
3,4,0,-4,1,2,-1,2,11,6,3,0
3,4,0,-4,1,2,-1,2,11,6,2,0
3,3,0,-4,1,2,-1,2,11,5,2,0
3,3,0,-3,1,2,-1,2,11,5,1,0
3,3,0,-3,1,2,-1,2,11,5,1,0
3,2,0,-3,1,2,-1,2,11,4,1,0
3,2,0,-2,1,1,-1,2,11,4,1,0
2,2,0,-2,1,1,-1,2,10,4,0,-1
2,2,0,-2,1,0,-1,2,10,3,0,-1
2,2,0,-2,1,0,0,2,9,3,0,-1
2,1,0,-2,1,0,0,2,9,2,0,-1
2,1,0,-2,1,0,0,2,8,2,0,-1
2,1,0,-1,1,0,0,2,8,2,0,-1
2,0,0,-1,1,0,0,2,8,2,-1,-2
1,0,0,-1,1,0,0,2,7,1,-1,-2
1,0,0,-1,1,0,0,2,7,1,-1,-2
1,0,0,-1,1,0,0,2,6,0,-1,-2
1,0,0,-1,1,0,0,2,6,0,-2,-3
1,0,0,-1,1,0,0,2,6,0,-2,-3
1,0,-1,0,1,0,0,2,5,0,-3,-3
1,0,-1,0,1,0,0,2,5,0,-3,-3
1,0,-1,0,1,-1,0,2,4,-1,-3,-4
1,0,-1,0,1,-1,0,2,4,-1,-4,-4
1,0,-2,0,1,-1,0,2,3,-2,-4,-4
1,0,-2,0,1,-1,0,2,3,-2,-4,-5
1,-1,-2,0,1,-1,1,2,2,-2,-4,-5
1,-1,-2,0,1,-1,1,2,2,-3,-4,-5
1,-1,-2,0,1,-1,1,2,2,-3,-4,-5
1,-1,-2,0,1,-2,1,2,2,-3,-5,-5
0,-2,-2,0,1,-2,1,2,2,-3,-5,-5
0,-2,-2,0,1,-2,1,2,1,-4,-6,-5
0,-2,-2,0,1,-2,2,2,1,-4,-6,-6
0,-2,-2,1,1,-2,2,2,1,-4,-6,-6
0,-2,-2,1,1,-2,2,2,1,-4,-6,-6
0,-2,-2,1,1,-2,2,2,0,-4,-6,-6
0,-2,-2,1,1,-2,2,2,0,-4,-7,-6
0,-2,-2,1,1,-2,2,2,0,-4,-7,-6
0,-2,-2,1,1,-2,2,2,-1,-5,-7,-6
0,-2,-2,1,1,-2,2,2,-1,-5,-7,-6
0,-2,-2,1,1,-2,2,2,-1,-5,-7,-6
0,-2,-2,1,0,-2,2,2,-2,-5,-7,-7
0,-2,-2,1,0,-2,2,2,-2,-6,-7,-7
0,-2,-2,1,0,-2,2,2,-2,-6,-7,-7
0,-3,-2,1,0,-2,2,2,-2,-6,-7,-7
0,-3,-2,2,0,-3,2,2,-2,-6,-7,-7
-1,-3,-2,2,0,-3,3,2,-2,-6,-8,-7
-1,-3,-2,2,0,-3,3,2,-3,-6,-8,-7
-1,-3,-2,2,0,-3,3,2,-3,-7,-8,-7
-1,-3,-2,2,0,-3,3,2,-3,-7,-8,-7
-1,-3,-2,2,0,-3,3,2,-4,-8,-9,-8
-2,-3,-2,2,0,-3,3,2,-4,-8,-9,-8
-2,-4,-2,3,0,-3,3,2,-5,-8,-10,-8
-2,-4,-2,3,0,-3,3,2,-5,-8,-10,-9
-2,-5,-2,3,0,-3,3,2,-6,-9,-10,-9
-2,-5,-2,4,0,-4,4,2,-6,-9,-10,-9
-3,-6,-2,4,0,-4,4,2,-7,-10,-10,-9
-3,-6,-3,4,0,-5,4,2,-7,-10,-11,-9
-3,-6,-3,4,0,-5,4,2,-7,-10,-11,-9
-3,-6,-3,4,0,-5,4,2,-7,-10,-11,-9
-3,-6,-3,5,0,-5,4,2,-7,-10,-11,-9
-3,-6,-3,5,0,-5,4,2,-7,-10,-11,-10
-3,-6,-3,5,0,-6,4,2,-8,-10,-11,-10
-3,-6,-3,5,0,-6,4,1,-8,-10,-11,-10
-3,-7,-3,5,0,-6,4,0,-9,-11,-11,-10
-3,-7,-3,5,0,-6,4,0,-9,-11,-11,-10
-3,-7,-2,5,0,-5,4,0,-9,-11,-11,-10
-3,-6,-2,5,0,-5,4,0,-9,-10,-11,-10
-4,-6,-2,5,0,-5,4,0,-9,-10,-11,-10
-4,-6,-2,5,0,-4,4,0,-9,-11,-11,-10
-4,-6,-1,5,-1,-4,4,0,-9,-11,-11,-10
-4,-5,-1,5,-1,-3,4,0,-9,-11,-11,-10
-4,-5,0,5,-1,-3,4,0,-9,-11,-11,-10
-4,-4,0,5,-1,-3,4,0,-9,-11,-11,-10
-4,-4,0,5,-1,-3,4,0,-9,-11,-11,-10
-4,-4,0,5,-1,-3,4,0,-10,-11,-11,-9
-4,-5,0,5,-1,-3,4,0,-10,-11,-11,-9
-4,-5,-1,5,-1,-3,4,0,-10,-11,-11,-9
-4,-6,-1,5,0,-3,4,0,-10,-11,-11,-9
-4,-6,-2,5,0,-4,4,0,-10,-12,-11,-9
-4,-7,-3,5,0,-5,4,0,-10,-12,-11,-10
-3,-7,-3,5,1,-5,4,0,-10,-12,-11,-10
-3,-7,-4,5,1,-5,4,0,-10,-12,-11,-10
-3,-7,-4,5,1,-5,4,0,-10,-12,-11,-10
-3,-7,-4,5,1,-5,4,0,-10,-12,-11,-10
-3,-7,-4,5,1,-5,4,0,-9,-12,-11,-10
-3,-7,-4,5,1,-5,4,0,-9,-11,-11,-10
-3,-7,-4,5,0,-5,4,1,-8,-11,-11,-10
-3,-7,-4,6,0,-5,4,1,-8,-11,-11,-10
-4,-7,-4,6,0,-5,4,1,-8,-11,-11,-10
-4,-7,-3,6,0,-5,4,1,-8,-11,-11,-10
-4,-7,-3,6,0,-5,4,1,-8,-11,-11,-10
-4,-8,-3,7,0,-5,5,1,-8,-11,-11,-10
-4,-8,-3,7,0,-5,5,1,-8,-11,-11,-10
-4,-8,-3,7,0,-5,5,1,-8,-11,-11,-10
-4,-8,-3,7,0,-5,5,1,-8,-11,-11,-10
-4,-8,-3,7,0,-5,5,1,-8,-11,-11,-10
-4,-8,-3,6,0,-5,5,1,-8,-11,-11,-10
-4,-8,-3,6,0,-5,5,1,-8,-11,-11,-10
-4,-8,-3,6,0,-5,5,1,-8,-11,-11,-10
-4,-8,-3,6,0,-5,5,1,-8,-11,-11,-10
-4,-8,-3,6,0,-5,5,1,-8,-11,-11,-10
-4,-8,-3,6,0,-5,5,1,-8,-11,-11,-10
-4,-8,-2,6,0,-5,5,1,-8,-11,-11,-10
-4,-8,-2,6,0,-5,5,2,-7,-11,-11,-10
-4,-8,-3,6,0,-6,5,3,-6,-11,-11,-10
-4,-9,-4,7,0,-7,5,5,-4,-11,-11,-10
-4,-10,-6,7,2,-9,6,8,-1,-11,-12,-11
-3,-12,-10,8,4,-11,7,12,3,-12,-13,-13
-1,-14,-13,8,6,-14,9,17,9,-13,-14,-15
0,-16,-16,8,8,-16,10,21,16,-14,-16,-18
0,-17,-17,8,9,-17,11,25,25,-13,-17,-19
1,-17,-18,8,10,-17,11,28,33,-12,-17,-20
2,-15,-17,6,10,-16,11,30,43,-8,-16,-20
4,-12,-16,4,11,-14,10,31,54,-3,-13,-18
6,-7,-13,1,10,-10,8,30,67,5,-7,-15
8,0,-8,-3,9,-4,4,27,78,15,0,-9
10,9,-1,-9,6,4,0,22,86,28,10,-1
12,21,8,-16,3,14,-6,14,92,42,23,9
15,34,18,-24,0,26,-13,5,94,59,39,23
19,47,27,-33,-2,37,-21,-5,93,78,59,41
24,61,36,-42,-4,48,-30,-17,88,99,82,61
29,73,44,-51,-6,58,-39,-29,81,118,105,82
33,84,51,-58,-7,67,-47,-40,73,135,126,101
36,94,57,-65,-9,75,-53,-50,64,145,142,117
37,100,63,-68,-12,81,-57,-57,53,147,148,127
36,101,65,-68,-13,83,-58,-62,43,139,146,128
33,96,63,-65,-14,80,-57,-63,33,123,136,123
30,90,60,-60,-14,75,-54,-63,16,102,120,115
26,83,57,-54,-14,70,-50,-62,-6,78,102,105
22,76,55,-49,-15,65,-46,-61,-27,55,83,93
18,69,52,-43,-15,60,-42,-58,-43,35,64,81
14,61,46,-37,-15,53,-37,-53,-53,18,46,66
11,50,39,-30,-13,44,-30,-44,-56,4,30,50
7,38,31,-23,-11,34,-22,-34,-52,-4,17,35
4,28,24,-16,-9,25,-15,-25,-45,-10,7,23
1,19,18,-10,-8,18,-10,-17,-39,-13,0,13
-1,11,14,-4,-7,12,-4,-11,-35,-17,-7,4
-4,5,10,0,-7,7,0,-5,-32,-20,-13,-3
-6,1,7,3,-6,3,3,0,-29,-22,-17,-8
-7,-1,6,5,-6,1,6,4,-25,-23,-19,-12
-8,-3,5,6,-6,0,8,8,-21,-22,-21,-14
-9,-4,4,7,-6,0,10,11,-18,-22,-21,-16
-9,-5,4,8,-6,0,11,12,-17,-22,-22,-17
-10,-5,4,8,-6,0,12,13,-16,-22,-22,-18
-10,-6,5,8,-6,0,12,14,-16,-22,-22,-18
-10,-6,5,9,-7,0,13,14,-16,-22,-22,-19
-11,-7,5,9,-7,-1,14,14,-17,-22,-23,-19
-11,-7,4,10,-7,-2,15,16,-17,-22,-23,-20
-11,-8,3,10,-7,-3,16,17,-16,-22,-23,-20
-11,-8,3,10,-7,-3,16,18,-16,-22,-23,-20
-11,-9,2,11,-7,-4,17,18,-16,-22,-23,-20
-11,-10,1,11,-6,-5,17,19,-16,-22,-23,-20
-11,-12,0,11,-5,-6,18,20,-16,-22,-23,-20
-11,-13,0,12,-4,-7,19,22,-15,-22,-23,-20
-11,-14,-2,13,-3,-9,20,23,-14,-22,-22,-20
-11,-15,-3,13,-3,-10,21,25,-14,-22,-22,-20
-11,-16,-4,14,-3,-10,22,26,-13,-22,-22,-20
-11,-16,-4,14,-3,-10,22,26,-13,-22,-22,-20
-10,-15,-4,13,-3,-10,21,24,-13,-21,-21,-20
-10,-14,-4,12,-3,-9,20,22,-13,-21,-20,-19
-9,-13,-3,12,-2,-9,18,19,-13,-20,-19,-19
-9,-12,-3,11,-2,-8,15,16,-12,-18,-18,-17
-8,-11,-2,10,-2,-7,13,12,-12,-16,-16,-16
-7,-10,-2,9,-2,-6,11,9,-11,-15,-15,-14
-6,-9,-2,8,-1,-6,10,7,-10,-13,-13,-13
-6,-9,-2,7,-1,-6,8,5,-10,-13,-12,-12
-5,-8,-3,7,0,-6,8,5,-10,-12,-12,-11
-4,-8,-4,6,1,-7,7,4,-9,-12,-11,-10
-4,-8,-5,6,1,-7,7,4,-8,-12,-11,-10
-3,-8,-6,6,2,-7,6,4,-7,-11,-10,-10
-2,-8,-6,5,3,-8,6,4,-7,-11,-9,-9
-2,-8,-6,5,3,-8,5,4,-6,-10,-9,-9
-2,-8,-6,5,3,-8,5,4,-6,-10,-8,-8
-2,-8,-6,5,3,-8,4,4,-5,-10,-8,-8
-1,-8,-6,5,3,-8,4,4,-5,-9,-7,-8
-1,-8,-6,4,3,-8,4,4,-5,-9,-7,-8
0,-8,-6,4,3,-8,3,4,-5,-9,-7,-8
0,-8,-6,4,3,-8,3,4,-4,-9,-7,-7
0,-8,-6,4,3,-8,3,4,-4,-8,-7,-7
0,-8,-7,4,4,-8,3,4,-4,-8,-6,-7
0,-8,-7,4,4,-8,3,4,-4,-7,-6,-6
0,-7,-7,4,4,-8,3,4,-4,-7,-5,-6
0,-7,-7,4,4,-8,3,4,-3,-7,-5,-5
0,-7,-7,4,4,-8,3,4,-3,-6,-5,-5
1,-7,-7,4,4,-8,2,4,-3,-6,-5,-5
1,-7,-7,4,4,-8,2,3,-3,-6,-4,-5
1,-7,-7,3,5,-8,1,3,-2,-5,-4,-5
1,-7,-7,3,5,-8,1,3,-2,-5,-3,-4
1,-7,-7,3,5,-8,1,3,-2,-5,-3,-4
1,-6,-7,3,5,-8,1,3,-1,-4,-2,-4
1,-6,-7,3,5,-7,1,3,-1,-4,-2,-3
2,-5,-7,2,5,-7,1,3,-1,-3,-2,-3
2,-5,-7,2,5,-7,0,2,-1,-3,-1,-2
3,-5,-7,2,5,-7,0,2,-1,-2,-1,-2
3,-5,-7,2,5,-7,0,2,0,-2,0,-1
3,-4,-7,1,5,-6,0,2,0,-1,0,-1
3,-4,-6,1,5,-6,0,2,0,-1,1,0
3,-3,-6,1,5,-6,-1,2,0,0,2,0
4,-3,-6,0,6,-5,-1,2,0,0,2,0
4,-2,-6,0,6,-5,-2,1,0,0,3,1
5,-2,-6,0,6,-5,-2,1,1,1,3,1
5,-1,-6,-1,6,-5,-3,1,1,1,4,1
5,-1,-6,-1,6,-5,-3,0,1,2,4,2
5,0,-5,-2,6,-4,-4,0,1,2,5,2
5,0,-5,-2,6,-4,-4,0,1,3,5,3
6,0,-5,-2,7,-4,-4,0,1,3,6,3
6,0,-5,-2,7,-3,-4,0,1,3,6,4
6,1,-5,-2,7,-3,-4,0,1,4,7,4
6,1,-5,-3,7,-2,-5,0,1,4,7,5
7,2,-5,-3,7,-2,-5,0,2,5,8,5
7,2,-5,-4,7,-2,-6,0,2,5,8,5
7,2,-5,-4,7,-2,-6,0,2,5,8,5
7,2,-5,-4,7,-2,-6,0,2,6,8,5
8,2,-5,-4,7,-2,-6,0,2,6,9,5
8,2,-4,-4,7,-1,-6,0,3,6,9,5
8,2,-4,-4,7,-1,-6,0,3,6,9,6
8,3,-4,-4,7,-1,-6,0,3,6,9,6
8,3,-4,-5,7,-1,-6,0,3,6,9,6
8,3,-4,-5,7,-1,-6,0,3,6,9,6
7,3,-3,-5,7,-1,-6,0,3,6,9,6
7,3,-3,-5,7,-1,-6,0,3,6,9,6
7,3,-3,-5,7,-1,-6,0,3,6,9,6
7,3,-3,-5,7,-1,-6,0,3,6,9,6
7,3,-3,-4,7,0,-6,0,4,6,9,6
6,3,-3,-4,6,0,-6,0,4,6,9,6
6,3,-3,-4,6,0,-6,0,4,6,9,6
6,3,-3,-4,6,0,-6,0,4,6,9,6
6,3,-3,-4,6,0,-6,0,4,6,9,5
6,3,-3,-4,6,0,-6,0,4,6,8,5
6,3,-3,-4,5,0,-6,0,4,6,8,5
6,3,-3,-4,5,-1,-6,0,4,6,8,5
6,2,-3,-4,5,-1,-5,1,4,6,8,5
6,2,-3,-4,5,-1,-5,1,4,6,7,4
6,2,-3,-4,5,-1,-5,1,4,6,7,4
6,2,-3,-3,5,-1,-4,1,4,6,7,4
5,1,-3,-3,5,-1,-4,1,4,5,7,4
5,1,-3,-3,5,-1,-4,1,4,5,6,3
5,1,-3,-2,5,-1,-4,1,4,5,6,3
4,1,-2,-2,5,-1,-4,1,4,5,5,3
4,0,-2,-2,5,-1,-3,1,4,4,5,3
3,0,-2,-2,4,-1,-3,1,4,4,5,2
3,0,-2,-1,4,-2,-3,1,4,4,5,2
3,0,-2,-1,4,-2,-3,1,3,4,5,2
3,0,-2,-1,4,-2,-3,1,3,4,5,1
2,0,-2,-1,4,-2,-3,1,3,4,4,1
2,0,-2,-1,4,-2,-3,1,3,4,4,1
2,0,-2,-1,4,-2,-2,1,3,4,4,1
2,0,-2,-1,3,-2,-2,1,3,4,4,1
2,0,-2,-1,3,-2,-2,1,3,4,4,1
2,0,-2,-1,3,-2,-2,1,3,4,3,1
2,0,-2,-1,3,-2,-2,1,3,4,3,1
2,0,-2,0,3,-2,-1,1,4,4,3,1
1,0,-1,0,3,-2,-1,1,4,4,3,1
1,-1,-1,0,3,-2,-1,1,4,3,3,0
1,-1,-1,0,3,-2,-1,1,4,3,3,0
1,-1,-1,0,3,-2,-1,1,5,3,2,0
1,-1,-1,0,3,-2,-1,1,5,3,2,0
1,-2,-1,0,3,-2,-1,1,5,3,2,0
1,-2,-1,1,3,-3,0,1,6,3,2,0
1,-2,-1,1,3,-3,0,1,6,3,2,0
1,-2,-2,1,3,-3,0,1,6,3,2,0
1,-3,-2,1,3,-4,0,2,6,2,2,0
1,-3,-2,1,3,-4,0,2,6,2,1,-1
1,-3,-2,1,3,-4,0,2,6,2,1,-1
1,-3,-2,1,3,-4,0,2,6,2,0,-1
0,-3,-2,2,3,-4,0,2,6,1,0,-1
0,-4,-2,2,3,-4,1,2,6,1,0,-1
0,-4,-3,2,3,-4,1,2,6,1,0,-1
0,-4,-3,2,3,-4,1,2,6,1,0,-1
0,-4,-3,2,3,-5,1,2,6,1,0,-2
0,-5,-3,2,3,-5,1,2,6,0,0,-2
0,-5,-3,2,3,-6,1,2,5,0,0,-2
0,-5,-4,2,3,-6,1,2,5,0,-1,-2
0,-5,-4,2,3,-6,1,2,4,0,-1,-2
0,-5,-4,3,3,-6,1,2,4,0,-1,-3
0,-6,-4,3,3,-6,1,2,4,-1,-2,-3
0,-6,-4,3,3,-6,1,2,4,-1,-2,-3
0,-6,-4,4,3,-6,1,2,4,-1,-2,-3
0,-6,-5,4,3,-6,1,2,3,-1,-2,-4
0,-6,-5,4,3,-6,1,2,3,-2,-3,-4
0,-6,-5,4,3,-6,1,2,3,-2,-3,-4
-1,-6,-5,4,2,-6,2,2,2,-3,-3,-4
-1,-7,-5,4,2,-6,2,2,2,-3,-4,-4
-1,-7,-5,4,2,-6,2,2,1,-4,-4,-4
-1,-7,-5,4,2,-7,2,2,1,-4,-4,-4
-1,-7,-5,4,2,-7,2,2,0,-4,-5,-5
-1,-7,-5,4,2,-7,2,2,0,-4,-5,-5
-1,-7,-5,4,2,-7,2,2,0,-5,-5,-5
-1,-7,-5,4,2,-7,3,2,0,-5,-5,-6
-1,-7,-5,4,2,-7,3,2,-1,-6,-6,-6
-1,-7,-5,5,2,-7,3,2,-1,-6,-6,-6
-1,-8,-5,5,2,-7,3,2,-1,-6,-6,-6
-1,-8,-5,5,2,-7,3,2,-1,-7,-6,-7
-2,-8,-6,5,2,-7,3,2,-2,-7,-6,-7
-2,-8,-6,5,2,-7,3,2,-2,-7,-6,-7
-2,-8,-6,5,2,-7,3,2,-2,-7,-6,-7
-2,-9,-6,5,2,-8,3,2,-2,-7,-6,-7
-2,-9,-6,5,2,-8,3,2,-2,-8,-6,-7
-2,-9,-6,6,2,-8,3,2,-3,-8,-7,-7
-2,-9,-6,6,2,-8,3,3,-3,-8,-7,-7
-2,-9,-6,6,2,-8,3,3,-3,-8,-8,-7
-2,-9,-6,6,2,-8,3,3,-3,-8,-8,-7
-2,-9,-6,6,2,-8,3,3,-4,-8,-8,-7
-2,-9,-6,6,2,-8,3,3,-4,-8,-8,-8
-2,-9,-6,6,2,-8,3,3,-4,-9,-8,-8
-2,-9,-6,6,2,-8,3,3,-4,-9,-8,-8
-2,-9,-6,6,2,-8,3,3,-5,-9,-8,-8
-2,-9,-6,6,2,-8,3,3,-5,-9,-8,-8
-2,-9,-6,6,2,-9,3,3,-5,-9,-8,-8
-3,-9,-6,6,2,-9,4,3,-5,-9,-8,-8
-3,-9,-6,6,1,-9,4,3,-6,-10,-9,-8
-3,-9,-6,6,1,-9,4,3,-6,-10,-9,-9
-3,-10,-6,7,1,-9,4,3,-7,-11,-9,-9
-3,-10,-6,7,1,-9,4,3,-7,-11,-9,-9
-3,-10,-6,7,1,-9,4,3,-8,-11,-10,-9
-3,-10,-6,7,1,-9,4,3,-8,-11,-10,-9
-4,-10,-6,7,1,-9,5,3,-9,-12,-11,-9
-4,-10,-6,8,1,-9,5,3,-9,-12,-11,-9
-4,-11,-7,8,1,-10,5,3,-10,-13,-11,-9
-4,-11,-7,8,1,-10,5,3,-10,-13,-11,-10
-4,-12,-7,8,1,-10,5,3,-11,-13,-11,-10
-4,-12,-7,8,1,-11,5,3,-11,-13,-11,-11
-4,-12,-7,8,1,-11,5,3,-11,-13,-11,-11
-4,-13,-7,8,1,-11,5,3,-11,-14,-12,-11
-5,-13,-8,9,1,-11,5,3,-11,-14,-12,-11
-5,-13,-8,9,1,-11,5,2,-12,-14,-12,-11
-5,-13,-8,9,1,-11,5,2,-12,-14,-12,-11
-5,-13,-8,9,1,-10,5,1,-12,-14,-12,-11
-5,-13,-7,9,1,-10,5,1,-12,-14,-12,-11
-5,-12,-7,9,1,-10,5,1,-12,-14,-12,-11
-5,-12,-7,9,1,-10,5,1,-12,-14,-12,-11
-5,-12,-6,9,1,-10,5,1,-13,-14,-13,-11
-5,-12,-6,9,0,-10,5,1,-13,-15,-13,-11
-5,-11,-5,9,0,-9,5,0,-13,-15,-13,-11
-5,-11,-5,8,0,-9,5,0,-13,-15,-13,-11
-5,-10,-5,8,0,-9,5,0,-13,-15,-13,-11
-5,-10,-5,8,0,-9,5,0,-13,-15,-13,-11
-5,-10,-5,8,0,-8,5,0,-13,-15,-13,-11
-5,-10,-5,8,0,-8,5,0,-14,-15,-13,-11
-5,-10,-5,8,0,-8,5,0,-14,-15,-13,-11
-5,-10,-5,8,0,-9,5,0,-14,-15,-13,-11
-5,-10,-6,8,0,-9,5,0,-14,-15,-13,-11
-5,-11,-6,8,1,-9,5,0,-14,-15,-13,-11
-4,-11,-7,8,1,-10,5,0,-14,-15,-13,-11
-4,-11,-7,8,1,-10,5,0,-14,-15,-13,-11
-4,-12,-8,8,1,-10,5,0,-14,-15,-13,-11
-4,-12,-8,8,1,-11,5,1,-14,-15,-13,-11
-4,-12,-8,8,1,-11,5,1,-14,-15,-13,-11
-4,-12,-8,8,1,-11,5,1,-13,-15,-13,-11
-4,-12,-8,8,1,-11,5,1,-13,-15,-13,-11
-4,-12,-8,8,1,-11,5,1,-12,-15,-13,-11
-4,-12,-7,8,1,-11,6,1,-12,-15,-13,-11
-5,-12,-7,8,1,-11,6,1,-12,-15,-13,-11
-5,-12,-7,8,1,-11,6,1,-12,-15,-13,-11
-5,-12,-7,8,1,-11,6,1,-12,-15,-13,-11
-5,-12,-7,8,1,-11,6,1,-12,-15,-14,-12
-5,-12,-7,9,1,-11,6,1,-12,-15,-14,-12
-5,-12,-7,9,0,-11,6,1,-12,-15,-14,-12
-5,-12,-7,9,0,-11,6,1,-12,-15,-14,-12
-5,-12,-7,9,0,-10,6,1,-12,-15,-14,-12
-5,-12,-7,8,0,-10,6,1,-12,-15,-14,-12
-5,-12,-7,8,0,-10,6,1,-12,-15,-14,-12
-5,-12,-7,8,0,-10,6,1,-12,-15,-14,-12
-5,-12,-6,8,0,-9,6,1,-11,-14,-14,-12
-5,-11,-6,8,0,-9,6,1,-11,-14,-14,-12
-5,-11,-6,8,0,-9,6,1,-11,-14,-14,-12
-5,-11,-6,8,0,-9,6,2,-11,-14,-14,-12
-5,-11,-6,8,0,-9,6,2,-11,-14,-14,-12
-5,-11,-6,8,1,-9,6,3,-10,-14,-14,-12
-4,-11,-7,8,1,-10,7,4,-8,-14,-14,-12
-4,-13,-9,8,3,-12,7,7,-4,-14,-14,-13
-3,-15,-13,9,5,-15,8,11,0,-15,-15,-15
-2,-18,-16,9,7,-18,10,15,6,-15,-16,-17
-1,-20,-19,10,9,-20,11,19,14,-15,-17,-19
0,-21,-21,10,10,-21,12,23,23,-14,-18,-20
1,-20,-21,10,11,-22,12,25,32,-13,-18,-21
2,-19,-21,8,12,-21,12,27,42,-10,-17,-21
4,-16,-19,6,12,-18,11,28,53,-4,-14,-20
5,-11,-17,3,11,-14,9,28,65,3,-9,-16
7,-4,-12,-1,10,-8,6,25,76,14,-1,-11
8,5,-5,-7,7,0,1,20,83,26,8,-3
10,16,4,-13,3,9,-4,13,88,41,20,7
13,29,14,-21,0,21,-11,4,89,57,36,20
17,42,24,-29,-3,32,-19,-6,86,76,55,37
22,55,33,-38,-5,44,-28,-17,80,96,77,57
26,68,42,-46,-7,55,-36,-29,71,116,99,78
29,80,50,-54,-9,65,-44,-40,61,133,120,98
32,90,57,-61,-11,73,-51,-50,50,144,137,115
33,97,63,-65,-14,79,-56,-58,39,148,145,125
32,99,66,-66,-16,82,-57,-62,29,142,144,128
31,95,64,-63,-16,79,-56,-63,19,128,136,125
28,89,61,-58,-16,74,-53,-63,4,107,121,117
25,82,58,-53,-16,69,-50,-63,-15,82,103,107
21,75,55,-48,-16,64,-46,-61,-35,57,83,96
17,68,51,-42,-16,58,-41,-58,-50,35,65,83
13,59,45,-36,-15,51,-36,-52,-59,17,47,68
9,47,37,-28,-13,41,-29,-44,-61,4,31,53
5,35,29,-20,-11,31,-21,-34,-56,-5,18,38
2,23,21,-13,-9,21,-14,-24,-48,-10,8,25
0,14,14,-7,-7,13,-8,-16,-41,-14,0,14
-2,6,9,-2,-6,7,-2,-10,-36,-18,-6,5
-4,0,5,2,-5,2,2,-4,-33,-21,-12,-2
-6,-4,2,5,-4,-1,6,0,-30,-23,-17,-7
-7,-7,0,7,-4,-4,8,4,-26,-24,-19,-11
-8,-9,-1,8,-3,-5,10,8,-23,-23,-21,-14
-9,-10,-1,9,-3,-6,12,11,-20,-23,-22,-16
-10,-11,-2,10,-3,-7,13,13,-19,-23,-22,-18
-10,-11,-2,10,-4,-7,13,14,-18,-23,-23,-18
-10,-11,-1,10,-4,-7,14,14,-18,-23,-23,-19
-10,-12,-1,11,-5,-7,14,15,-18,-23,-24,-19
-11,-12,-1,11,-5,-8,15,15,-18,-24,-24,-20
-11,-13,-2,12,-4,-8,16,17,-18,-24,-24,-20
-11,-13,-3,12,-4,-9,17,18,-17,-24,-24,-21
-11,-14,-3,13,-4,-9,18,19,-17,-23,-24,-21
-11,-15,-4,13,-4,-10,18,19,-17,-23,-24,-21
-11,-16,-5,14,-3,-11,19,20,-17,-23,-24,-21
-11,-17,-6,14,-2,-12,20,21,-16,-23,-24,-21
-11,-18,-7,15,-1,-14,21,23,-15,-23,-24,-21
-11,-19,-9,15,-1,-15,22,24,-15,-23,-23,-21
-11,-20,-10,15,0,-16,22,25,-14,-23,-23,-21
-11,-21,-10,16,0,-17,23,26,-14,-23,-23,-21
-11,-21,-11,16,0,-17,24,27,-13,-23,-23,-21
-10,-20,-10,15,0,-16,23,26,-13,-22,-22,-21
-10,-19,-10,14,0,-15,21,24,-13,-21,-21,-20
-9,-18,-9,14,0,-14,19,21,-13,-20,-20,-19
-9,-17,-8,13,0,-13,17,17,-12,-19,-19,-17
-8,-15,-7,12,0,-12,15,13,-12,-17,-17,-16
-8,-14,-7,11,0,-11,13,10,-11,-16,-16,-14
-7,-13,-6,10,0,-11,11,7,-11,-14,-14,-13
-6,-12,-6,9,0,-10,10,6,-10,-13,-13,-12
-5,-11,-6,9,1,-10,9,5,-10,-13,-13,-11
-5,-11,-6,8,1,-10,8,5,-10,-12,-12,-11
-4,-11,-7,8,2,-10,7,5,-9,-12,-12,-11
-4,-11,-8,8,2,-11,7,5,-8,-11,-11,-10
-3,-11,-8,8,2,-11,6,5,-7,-10,-10,-10
-3,-11,-9,7,3,-11,6,5,-7,-10,-9,-9
-2,-11,-9,7,3,-11,6,5,-6,-9,-9,-9
-2,-11,-9,7,3,-11,5,5,-6,-9,-8,-8
-1,-11,-9,6,3,-11,5,5,-6,-9,-8,-8
-1,-10,-9,6,3,-11,5,5,-5,-9,-8,-8
-1,-10,-9,6,4,-11,5,5,-5,-9,-8,-7
-1,-10,-9,6,4,-11,5,5,-5,-8,-7,-7
-1,-10,-9,6,4,-11,4,4,-5,-8,-7,-6
-1,-10,-9,6,4,-11,4,4,-5,-7,-6,-6
-1,-9,-9,5,4,-10,4,4,-4,-7,-6,-5
0,-9,-9,5,4,-10,4,4,-4,-7,-5,-5
0,-9,-9,5,4,-10,4,4,-4,-7,-5,-5
0,-9,-9,5,4,-10,4,4,-4,-6,-5,-5
0,-9,-9,4,4,-10,3,4,-3,-6,-5,-5
0,-8,-9,4,4,-10,3,4,-3,-5,-4,-5
0,-8,-9,4,4,-9,2,4,-3,-5,-4,-5
0,-8,-9,4,4,-9,2,3,-2,-4,-3,-4
1,-8,-9,4,5,-9,2,3,-2,-4,-3,-4
1,-8,-8,4,5,-9,2,3,-2,-3,-2,-3
1,-8,-8,3,5,-9,2,3,-2,-3,-2,-3
1,-7,-8,3,5,-9,1,3,-1,-3,-2,-2
1,-7,-8,3,5,-9,1,3,-1,-2,-1,-2
2,-6,-8,3,5,-9,1,2,-1,-2,-1,-2
2,-6,-8,2,5,-8,0,2,-1,-1,0,-1
2,-5,-8,2,5,-8,0,2,-1,0,0,-1
2,-5,-8,2,5,-8,0,2,-1,0,1,0
3,-5,-8,1,5,-7,0,2,-1,0,1,0
3,-5,-7,1,5,-7,-1,2,0,1,2,0
3,-5,-7,1,6,-7,-1,2,0,1,2,1
4,-4,-7,0,6,-7,-1,2,0,2,3,1
4,-4,-7,0,6,-6,-2,1,1,2,3,2
4,-3,-7,0,6,-6,-2,1,1,3,4,2
4,-3,-7,-1,6,-6,-3,1,1,3,5,3
4,-2,-7,-1,6,-6,-3,1,1,4,5,3
5,-2,-7,-2,7,-5,-3,1,1,4,6,4
5,-1,-7,-2,7,-5,-3,1,1,4,7,4
5,-1,-6,-2,7,-5,-3,0,1,5,7,5
5,-1,-6,-3,7,-5,-4,0,1,5,7,5
6,0,-6,-3,7,-5,-4,0,2,6,8,5
6,0,-6,-3,7,-4,-4,0,2,6,8,6
6,0,-6,-3,7,-4,-4,0,2,7,8,6
6,0,-6,-3,7,-4,-4,0,2,7,9,6
7,0,-6,-3,7,-4,-4,0,2,7,9,7
7,0,-6,-3,7,-4,-4,0,2,7,9,7
7,0,-6,-3,7,-3,-5,0,3,7,9,7
7,0,-6,-3,7,-3,-5,0,3,7,9,7
7,0,-6,-3,7,-3,-5,0,3,8,9,7
7,0,-6,-3,7,-3,-5,0,3,8,9,7
7,0,-6,-3,7,-3,-5,0,3,8,9,7
7,1,-6,-4,7,-3,-5,0,3,8,9,7
7,1,-6,-4,7,-3,-5,0,3,8,9,7
7,1,-5,-4,7,-3,-5,0,3,8,9,7
7,1,-5,-4,7,-3,-5,0,3,8,9,7
7,1,-5,-4,7,-3,-5,0,4,8,9,7
6,1,-5,-4,6,-3,-5,0,4,8,9,7
6,1,-5,-4,6,-3,-5,0,4,8,9,7
6,1,-5,-3,6,-3,-5,0,4,8,9,7
6,1,-5,-3,6,-3,-5,0,4,8,8,7
6,1,-5,-3,6,-3,-4,1,4,8,8,7
6,1,-5,-3,6,-3,-4,1,4,8,8,6
6,1,-5,-3,6,-2,-4,1,4,8,8,6
5,0,-5,-3,6,-2,-4,1,4,8,7,5
5,0,-4,-2,6,-2,-4,1,4,8,7,5
5,0,-4,-2,5,-2,-4,1,4,7,7,5
5,0,-4,-2,5,-2,-3,1,4,7,7,5
4,0,-4,-2,5,-2,-3,1,4,7,6,5
4,0,-4,-1,5,-2,-3,1,4,7,6,4
4,0,-4,-1,4,-2,-3,1,4,6,6,4
4,0,-4,-1,4,-2,-3,1,4,6,6,4
3,0,-4,-1,4,-2,-3,1,4,6,5,3
3,0,-4,0,4,-2,-2,1,3,6,5,3
3,-1,-4,0,4,-3,-2,1,3,6,5,3
3,-1,-4,0,4,-3,-2,1,3,6,5,3
3,-1,-4,0,3,-3,-2,2,3,6,5,3
2,-1,-4,0,3,-3,-2,2,3,6,5,3
2,-1,-4,0,3,-3,-2,2,3,6,5,3
2,-1,-4,0,3,-3,-2,2,3,6,4,3
2,-1,-4,0,3,-3,-2,2,3,6,4,2
1,-1,-4,0,3,-3,-2,2,3,5,4,2
1,-2,-4,0,3,-3,-1,2,4,5,4,2
1,-2,-4,0,3,-3,-1,2,4,5,4,2
1,-2,-4,0,3,-3,-1,2,5,5,4,2
1,-3,-4,1,3,-4,0,2,5,5,4,1
1,-3,-4,1,3,-4,0,2,5,5,4,1
1,-3,-4,1,3,-4,0,2,5,5,3,1
1,-3,-4,1,3,-4,0,2,5,5,3,1
0,-3,-4,2,2,-4,0,2,6,5,3,1
0,-3,-4,2,2,-4,0,3,6,5,3,1
0,-3,-4,2,2,-4,0,3,7,5,3,1
0,-4,-4,2,2,-5,0,3,7,4,2,1
0,-4,-4,2,2,-5,0,3,7,4,2,1
0,-4,-4,2,2,-5,0,3,7,3,1,0
0,-4,-4,2,2,-5,0,3,7,3,1,0
0,-4,-4,2,2,-5,0,3,7,3,1,0
0,-4,-4,2,2,-5,0,3,7,3,1,0
0,-4,-4,2,2,-5,1,3,7,3,1,0
0,-4,-4,2,2,-5,1,3,7,3,1,0
0,-4,-4,2,2,-5,1,3,7,3,1,-1
0,-5,-4,2,2,-5,2,3,6,2,0,-1
0,-5,-4,2,2,-5,2,3,6,2,0,-1
0,-5,-4,2,2,-6,2,3,6,1,0,-1
0,-5,-5,3,2,-6,2,3,6,1,-1,-1
0,-6,-5,3,2,-6,2,3,6,1,-1,-2
0,-6,-5,3,2,-6,2,3,5,0,-1,-2
0,-6,-5,3,2,-6,2,3,5,0,-1,-2
0,-7,-5,3,2,-6,2,3,5,0,-1,-2
0,-7,-5,4,2,-7,2,3,4,0,-1,-2
-1,-7,-5,4,2,-7,2,3,4,-1,-2,-2
-1,-7,-5,4,2,-7,2,3,3,-1,-2,-2
-1,-7,-5,4,2,-8,2,3,3,-1,-3,-3
-1,-7,-5,5,2,-8,2,3,3,-1,-3,-3
-1,-7,-5,5,2,-8,2,3,3,-1,-3,-3
-1,-7,-5,5,2,-8,2,3,3,-2,-3,-3
-1,-7,-6,5,2,-8,2,3,2,-2,-3,-4
-1,-8,-6,5,2,-8,3,3,2,-3,-3,-4
-1,-8,-6,5,2,-8,3,3,2,-3,-4,-4
-1,-8,-6,5,3,-8,3,3,1,-4,-4,-4
-1,-8,-6,5,3,-8,3,3,1,-4,-5,-4
-1,-8,-6,6,3,-8,3,3,1,-4,-5,-4
-1,-9,-6,6,3,-8,3,3,0,-4,-5,-4
-1,-9,-6,6,3,-8,3,3,0,-4,-5,-4
-2,-9,-6,6,3,-8,3,3,0,-4,-5,-4
-2,-9,-6,6,3,-8,3,3,0,-5,-5,-5
-2,-9,-7,6,3,-9,3,3,-1,-5,-5,-5
-2,-9,-7,6,3,-9,3,3,-1,-5,-5,-5
-2,-9,-7,6,3,-9,3,3,-1,-5,-6,-5
-2,-9,-7,7,3,-9,3,3,-1,-5,-6,-5
-2,-9,-7,7,3,-9,3,3,-1,-5,-6,-6
-2,-9,-7,7,3,-10,4,3,-1,-5,-6,-6
-2,-10,-7,7,3,-10,4,3,-2,-6,-7,-6
-3,-10,-7,7,3,-10,4,3,-2,-6,-7,-6
-3,-10,-7,7,3,-10,4,3,-2,-7,-7,-7
-3,-10,-7,7,3,-10,4,3,-2,-7,-7,-7
-3,-10,-7,7,2,-10,4,3,-3,-7,-7,-7
-3,-10,-7,7,2,-10,4,3,-3,-7,-7,-7
-3,-10,-7,7,2,-10,4,3,-3,-7,-7,-7
-3,-10,-7,7,2,-10,4,3,-4,-7,-8,-7
-3,-10,-7,7,2,-10,4,3,-4,-7,-8,-7
-3,-10,-7,8,2,-9,4,3,-5,-8,-8,-7
-3,-11,-7,8,2,-9,4,3,-5,-8,-8,-7
-3,-11,-7,8,2,-9,4,3,-6,-9,-8,-7
-3,-11,-7,8,2,-10,4,3,-6,-9,-8,-7
-3,-11,-7,8,2,-10,4,3,-7,-9,-9,-8
-3,-11,-7,8,2,-10,5,3,-7,-9,-9,-8
-3,-11,-7,8,2,-10,5,3,-8,-10,-9,-8
-3,-12,-8,8,2,-11,5,3,-8,-10,-10,-9
-3,-12,-8,9,2,-11,5,3,-9,-10,-10,-9
-3,-13,-8,9,2,-11,5,3,-9,-11,-10,-10
-4,-13,-8,9,2,-11,5,3,-9,-11,-11,-10
-4,-14,-9,9,2,-12,5,3,-9,-12,-11,-10
-4,-14,-9,9,2,-12,6,3,-9,-12,-11,-10
-4,-14,-9,9,2,-12,6,3,-9,-12,-11,-10
-5,-14,-9,10,3,-12,6,2,-10,-12,-11,-10
-5,-14,-9,10,3,-12,6,2,-10,-12,-11,-10
-5,-14,-9,10,3,-12,6,2,-10,-12,-11,-10
-5,-14,-9,10,2,-12,6,2,-11,-12,-11,-10
-5,-14,-8,10,2,-12,6,1,-11,-12,-11,-10
-5,-14,-8,10,2,-12,6,1,-11,-12,-11,-10
-5,-14,-8,10,2,-11,6,1,-11,-12,-11,-10
-5,-13,-8,10,1,-11,6,1,-11,-12,-11,-10
-5,-13,-7,10,1,-11,6,1,-11,-13,-11,-10
-5,-13,-7,10,1,-10,5,0,-11,-13,-11,-10
-5,-12,-6,9,1,-10,5,0,-11,-13,-11,-10
-5,-12,-6,9,1,-9,5,0,-11,-13,-11,-10
-5,-12,-6,9,1,-9,5,0,-11,-13,-11,-10
-5,-12,-6,8,1,-9,5,0,-11,-13,-11,-10
-5,-12,-6,8,1,-9,5,0,-12,-13,-11,-10
-5,-12,-6,8,1,-9,5,0,-12,-13,-11,-10
-5,-12,-6,8,1,-10,5,0,-12,-13,-11,-10
-5,-12,-7,8,1,-10,5,0,-12,-13,-11,-10
-5,-12,-8,9,1,-11,5,1,-12,-13,-11,-10
-5,-13,-8,9,2,-11,5,1,-12,-13,-11,-10
-4,-13,-9,9,2,-12,5,1,-12,-13,-11,-9
-4,-13,-9,9,2,-12,5,1,-11,-13,-11,-9
-4,-13,-9,9,2,-12,5,1,-11,-13,-11,-9
-4,-13,-9,9,2,-12,5,1,-11,-13,-11,-9
-4,-13,-9,9,2,-12,5,1,-11,-13,-11,-9
-4,-13,-8,9,2,-12,5,1,-11,-13,-11,-9
-4,-13,-8,9,2,-11,5,1,-10,-12,-11,-9
-4,-13,-8,9,2,-11,5,2,-10,-12,-11,-10
-5,-13,-8,9,2,-11,5,2,-10,-12,-11,-10
-5,-13,-8,9,1,-11,6,2,-10,-12,-11,-10
-5,-13,-8,9,1,-11,6,2,-10,-12,-12,-10
-5,-14,-8,9,1,-11,6,2,-10,-13,-12,-10
-5,-14,-8,9,1,-11,6,2,-10,-13,-12,-10
-5,-14,-8,9,1,-11,6,2,-10,-13,-12,-10
-5,-13,-8,9,1,-11,6,2,-10,-13,-12,-10
-5,-13,-8,9,1,-11,6,2,-10,-13,-12,-10
-5,-13,-7,9,1,-11,6,2,-10,-13,-12,-10
-5,-13,-7,9,1,-11,6,2,-10,-13,-12,-10
-5,-13,-7,9,1,-11,6,2,-10,-13,-12,-10
-5,-13,-7,9,1,-11,6,2,-9,-13,-12,-10
-5,-13,-7,9,1,-10,6,2,-9,-12,-12,-10
-5,-13,-7,9,1,-10,6,2,-9,-12,-12,-10
-5,-13,-7,9,1,-10,6,2,-9,-12,-11,-10
-5,-13,-7,9,1,-10,6,2,-9,-12,-11,-10
-5,-13,-7,9,1,-11,6,3,-8,-12,-11,-10
-5,-14,-9,9,2,-12,7,5,-6,-12,-11,-10
-4,-16,-11,10,3,-14,7,7,-3,-12,-12,-11
-3,-18,-15,10,6,-17,8,11,1,-13,-13,-13
-2,-20,-18,11,8,-19,10,16,8,-14,-15,-15
-1,-22,-20,11,10,-21,11,20,16,-14,-16,-17
0,-23,-22,11,11,-23,12,24,24,-13,-16,-19
0,-22,-22,11,12,-23,13,27,33,-11,-16,-20
1,-20,-22,10,12,-21,12,29,43,-8,-15,-20
3,-17,-20,7,12,-19,11,30,54,-2,-12,-18
5,-12,-17,4,12,-15,9,30,66,5,-7,-14
7,-5,-11,-1,10,-8,6,27,77,16,1,-8
9,5,-4,-7,8,0,1,21,85,28,11,0
11,16,5,-14,4,10,-5,13,90,43,24,10
14,29,15,-22,0,21,-12,4,92,59,40,24
18,43,24,-30,-2,33,-20,-6,90,79,59,42
23,56,33,-39,-4,44,-29,-18,84,99,82,62
28,68,41,-47,-6,54,-37,-30,76,119,105,83
32,80,48,-55,-7,64,-45,-41,67,134,125,102
35,89,54,-62,-9,72,-52,-51,57,143,140,118
35,95,60,-65,-11,78,-56,-58,45,143,146,126
34,96,62,-65,-13,79,-57,-63,36,135,143,127
31,92,61,-62,-14,76,-56,-64,26,119,132,123
28,85,58,-57,-14,71,-53,-63,11,99,117,114
24,78,55,-51,-15,66,-49,-62,-9,75,99,104
20,72,53,-46,-16,62,-45,-61,-29,53,80,92
16,65,50,-40,-16,57,-41,-58,-44,33,62,80
12,56,45,-34,-15,50,-35,-52,-52,17,45,66
8,45,38,-27,-14,41,-28,-43,-54,4,30,51
4,33,29,-19,-12,31,-20,-34,-49,-4,17,36
1,23,22,-13,-10,22,-13,-24,-42,-9,8,24
-1,14,17,-7,-9,15,-7,-17,-36,-12,0,13
-3,7,12,-2,-8,9,-2,-10,-32,-16,-6,5
-5,1,8,2,-7,4,1,-5,-30,-20,-12,-2
-7,-3,5,5,-6,1,5,0,-27,-22,-16,-7
-8,-6,4,7,-6,-1,7,3,-24,-22,-18,-11
-9,-7,3,8,-6,-2,9,7,-20,-22,-20,-14
-10,-8,2,9,-6,-3,11,10,-18,-21,-20,-15
-10,-8,2,9,-6,-3,12,12,-16,-21,-21,-16
-11,-8,3,10,-7,-3,12,13,-15,-21,-21,-17
-11,-8,3,10,-7,-3,13,13,-15,-21,-21,-17
-12,-9,4,10,-8,-3,13,14,-15,-21,-21,-18
-12,-9,4,10,-8,-3,14,14,-15,-21,-22,-18
-12,-10,3,11,-7,-4,15,15,-15,-21,-22,-19
-12,-11,2,11,-7,-5,16,16,-15,-21,-22,-19
-12,-11,2,11,-7,-5,17,17,-15,-21,-22,-19
-12,-12,1,12,-6,-6,17,18,-15,-21,-22,-19
-12,-13,0,12,-6,-7,18,18,-15,-21,-22,-19
-12,-14,-1,13,-5,-8,19,19,-14,-21,-22,-19
-12,-15,-2,13,-4,-10,19,20,-14,-21,-22,-20
-12,-16,-3,14,-3,-11,20,22,-13,-21,-22,-20
-12,-17,-4,14,-3,-12,21,23,-13,-21,-22,-20
-12,-18,-5,14,-2,-12,22,25,-13,-21,-22,-20
-11,-18,-5,14,-2,-12,22,25,-12,-21,-22,-20
-11,-17,-5,14,-2,-11,21,23,-12,-21,-21,-19
-10,-15,-5,13,-2,-11,19,20,-12,-20,-20,-18
-10,-14,-4,12,-2,-10,17,18,-12,-19,-19,-17
-9,-13,-4,11,-2,-10,15,15,-11,-18,-18,-16
-9,-12,-3,10,-2,-9,13,11,-11,-16,-16,-15
-8,-11,-3,10,-2,-8,11,8,-10,-14,-15,-14
-7,-10,-3,9,-2,-7,10,6,-10,-13,-13,-12
-6,-10,-3,8,-1,-7,8,4,-10,-13,-12,-11
-5,-10,-3,7,0,-7,8,4,-10,-12,-12,-11
-5,-10,-4,7,0,-7,7,3,-9,-12,-11,-10
-4,-10,-5,7,1,-8,6,3,-8,-12,-11,-10
-4,-10,-5,7,1,-8,6,3,-7,-11,-10,-9
-3,-10,-6,7,2,-8,5,3,-7,-11,-9,-9
-3,-10,-6,6,2,-8,5,3,-6,-10,-8,-8
-2,-9,-6,6,2,-8,4,3,-6,-10,-8,-8
-2,-9,-6,6,3,-8,4,3,-5,-9,-7,-7
-1,-9,-6,5,3,-8,4,3,-5,-9,-7,-7
-1,-9,-6,5,3,-8,3,3,-5,-9,-7,-7
-1,-9,-6,5,3,-8,3,3,-5,-8,-7,-7
-1,-9,-6,5,3,-8,3,3,-4,-8,-7,-7
-1,-8,-7,5,3,-8,2,3,-4,-8,-7,-6
-1,-8,-7,4,3,-8,2,3,-4,-8,-6,-6
0,-8,-7,4,3,-8,2,2,-4,-7,-6,-6
0,-8,-7,4,4,-8,2,2,-4,-7,-5,-6
0,-8,-7,4,4,-8,2,2,-3,-7,-5,-5
1,-7,-7,3,4,-8,2,2,-3,-7,-5,-5
1,-7,-7,3,4,-8,1,2,-3,-6,-5,-5
1,-7,-7,3,4,-8,1,2,-3,-6,-5,-5
1,-6,-7,2,4,-8,1,2,-3,-5,-4,-4
2,-6,-7,2,4,-7,0,2,-3,-5,-4,-4
2,-5,-7,2,4,-7,0,2,-3,-4,-3,-3
2,-5,-7,2,5,-6,0,1,-2,-4,-3,-3
2,-5,-7,2,5,-6,0,1,-2,-4,-2,-3
2,-5,-7,1,5,-6,0,1,-1,-4,-2,-2
3,-4,-7,1,5,-6,-1,1,-1,-4,-1,-2
3,-4,-7,0,6,-6,-1,0,-1,-3,-1,-1
4,-3,-7,0,6,-6,-2,0,-1,-3,-1,-1
4,-3,-7,0,6,-6,-2,0,-1,-2,0,0
4,-3,-7,0,6,-6,-2,0,0,-2,0,0
5,-2,-7,-1,7,-6,-3,0,0,-1,1,0
5,-2,-7,-1,7,-5,-3,0,0,-1,1,0
6,-1,-7,-2,7,-5,-3,0,0,0,2,1
6,-1,-7,-2,7,-5,-4,0,0,0,2,1
7,-1,-7,-3,7,-5,-4,-1,0,0,3,2
7,0,-7,-3,8,-5,-5,-1,0,1,3,2
8,0,-7,-4,8,-4,-5,-1,0,2,4,3
8,0,-7,-4,8,-4,-5,-1,0,2,5,3
8,1,-7,-4,8,-4,-6,-2,1,3,5,3
9,1,-7,-4,8,-3,-6,-2,1,3,6,4
9,1,-7,-5,8,-3,-6,-2,1,3,6,4
9,2,-7,-5,8,-3,-6,-2,1,4,6,4
10,2,-7,-6,9,-3,-7,-2,1,4,6,5
10,2,-7,-6,9,-3,-7,-2,2,5,7,5
10,3,-7,-7,9,-2,-8,-2,2,5,7,5
10,3,-7,-7,9,-2,-8,-2,2,5,8,5
10,3,-7,-7,9,-2,-8,-2,2,5,8,5
10,3,-7,-7,9,-2,-8,-2,2,6,8,5
10,3,-7,-7,9,-2,-8,-2,2,6,8,6
11,3,-7,-7,9,-2,-8,-2,2,6,8,6
11,4,-7,-7,9,-1,-8,-2,3,6,8,6
11,4,-7,-7,9,-1,-8,-2,3,6,8,6
11,4,-6,-7,9,-1,-8,-2,3,6,8,6
11,4,-6,-7,9,-1,-8,-2,3,6,8,6
11,4,-6,-7,9,-1,-8,-2,3,6,8,6
11,4,-6,-7,9,-1,-8,-2,3,6,8,6
11,4,-6,-7,9,-1,-8,-2,3,6,8,6
11,4,-6,-7,9,-1,-8,-2,3,6,8,6
10,4,-6,-7,9,-1,-8,-2,3,6,8,6
10,4,-6,-7,9,-1,-8,-2,3,6,8,6
10,4,-6,-7,8,-1,-8,-2,3,6,8,5
10,4,-6,-7,8,-1,-8,-2,3,6,8,5
9,4,-5,-7,8,0,-8,-2,3,6,8,5
9,4,-5,-7,8,0,-7,-1,3,6,7,5
9,4,-5,-7,8,0,-7,-1,3,6,7,5
9,4,-5,-6,8,0,-7,-1,4,6,7,4
9,3,-5,-6,7,0,-7,-1,4,5,7,4
8,3,-5,-5,7,0,-6,-1,4,5,6,4
8,3,-5,-5,7,-1,-6,-1,4,5,6,4
8,3,-5,-5,7,-1,-6,-1,4,5,5,4
8,2,-4,-5,6,-1,-6,0,4,5,5,3
7,2,-4,-5,6,-1,-5,0,4,5,5,3
7,2,-4,-5,6,-1,-5,0,4,4,4,3
6,2,-4,-5,6,-1,-5,0,4,4,4,3
6,2,-4,-4,6,-1,-5,0,4,4,4,2
6,2,-4,-4,6,-1,-5,0,4,4,3,2
5,2,-4,-4,6,-1,-5,0,4,4,3,2
5,2,-4,-4,5,-1,-4,0,3,4,3,2
5,1,-4,-4,5,-1,-4,0,3,4,3,2
5,1,-4,-3,5,-1,-4,0,3,4,3,2
5,1,-4,-3,5,-1,-4,0,3,4,3,2
5,1,-4,-3,5,-1,-4,0,3,3,3,2
5,1,-4,-3,4,-1,-4,0,3,3,2,1
5,1,-4,-3,4,-1,-3,0,4,3,2,1
4,1,-3,-3,4,-1,-3,0,4,3,2,1
4,1,-3,-3,4,-1,-3,0,4,3,2,1
4,1,-3,-3,4,-1,-3,0,5,3,2,1
4,1,-3,-3,4,-1,-3,0,5,3,2,0
4,1,-3,-3,4,-1,-3,0,5,3,1,0
4,1,-3,-3,4,-1,-3,0,5,3,1,0
4,1,-3,-3,4,-1,-3,0,5,2,1,-1
4,1,-2,-2,4,-1,-3,0,5,2,1,-1
4,1,-2,-2,3,-1,-3,0,5,2,0,-1
4,1,-2,-2,3,-1,-3,0,6,2,0,-1
4,1,-2,-2,3,-1,-3,0,6,1,0,-2
3,1,-2,-2,3,-1,-3,0,6,1,0,-2
3,1,-2,-2,3,-1,-3,0,6,1,-1,-2
3,0,-2,-1,3,-1,-3,0,6,0,-1,-2
3,0,-2,-1,3,-1,-3,0,6,0,-1,-2
3,0,-2,-1,3,-1,-2,0,6,0,-1,-2
3,0,-3,-1,3,-1,-2,0,6,0,-2,-3
3,0,-3,-1,4,-1,-2,0,5,0,-2,-3
3,0,-3,-1,4,-1,-2,0,5,-1,-2,-4
3,0,-3,-1,4,-1,-2,0,4,-1,-2,-4
3,0,-3,-1,4,-1,-2,-1,4,-1,-3,-4
3,0,-3,-1,4,-1,-2,-1,4,-2,-3,-4
3,0,-3,-1,4,-1,-2,-1,4,-2,-3,-4
3,0,-3,-1,4,-1,-2,-1,4,-2,-3,-5
3,-1,-3,0,4,-1,-2,-1,3,-2,-4,-5
2,-1,-3,0,4,-2,-1,-1,3,-3,-4,-5
2,-2,-3,0,4,-2,-1,-1,3,-3,-4,-5
2,-2,-3,0,4,-2,-1,0,2,-3,-4,-5
2,-2,-4,0,4,-2,-1,0,2,-3,-5,-5
2,-2,-4,0,4,-3,-1,0,2,-4,-5,-5
2,-2,-5,0,4,-3,-1,0,2,-4,-5,-5
2,-2,-5,0,4,-3,0,0,1,-4,-5,-5
2,-2,-5,0,4,-3,0,0,1,-4,-5,-6
2,-2,-4,0,4,-3,0,0,1,-5,-6,-6
2,-3,-4,0,4,-3,0,0,0,-5,-6,-6
2,-3,-4,0,4,-3,0,0,0,-5,-6,-6
1,-3,-4,1,4,-3,0,0,0,-6,-6,-6
1,-4,-4,1,4,-3,0,0,0,-6,-7,-7
1,-4,-5,1,4,-3,0,0,-1,-6,-7,-7
1,-4,-5,1,4,-4,0,0,-1,-7,-7,-7
1,-4,-5,1,4,-4,1,0,-1,-7,-8,-7
1,-4,-5,2,4,-4,1,0,-2,-7,-8,-7
0,-4,-5,2,4,-4,1,0,-2,-7,-8,-7
0,-5,-5,2,4,-4,1,0,-2,-7,-8,-7
0,-5,-5,2,4,-4,1,0,-3,-8,-8,-7
0,-5,-5,2,4,-4,1,0,-3,-8,-8,-7
0,-5,-5,2,4,-4,1,1,-3,-8,-8,-7
0,-5,-5,2,4,-5,1,1,-3,-8,-8,-7
0,-5,-5,2,4,-5,2,1,-3,-8,-8,-8
0,-5,-5,2,4,-5,2,1,-3,-8,-8,-8
0,-5,-5,3,4,-5,2,1,-3,-8,-8,-8
0,-6,-5,3,4,-5,2,1,-4,-9,-9,-8
0,-6,-5,3,4,-5,2,1,-4,-9,-9,-9
0,-6,-5,3,4,-5,2,1,-4,-9,-9,-9
0,-6,-5,3,4,-5,2,1,-4,-9,-9,-9
0,-6,-5,3,4,-5,2,1,-5,-9,-9,-9
0,-6,-5,3,4,-5,2,1,-5,-9,-10,-9
-1,-7,-5,4,4,-6,2,1,-5,-9,-10,-9
-1,-7,-5,4,4,-6,2,1,-6,-10,-10,-9
-1,-7,-5,4,4,-6,2,1,-6,-10,-10,-9
-1,-7,-6,4,4,-6,2,1,-7,-10,-10,-9
-1,-8,-6,4,4,-7,3,1,-7,-11,-10,-9
-1,-8,-6,5,3,-7,3,1,-8,-12,-11,-9
-2,-9,-7,5,3,-8,3,1,-9,-12,-11,-10
-2,-10,-7,6,3,-8,4,1,-9,-13,-12,-10
-3,-11,-8,6,3,-9,4,1,-10,-13,-13,-11
-3,-11,-8,7,3,-9,5,1,-11,-14,-13,-11
-3,-12,-8,7,3,-10,5,1,-11,-14,-14,-12
-3,-12,-8,8,4,-10,5,1,-12,-15,-14,-12
-3,-13,-9,8,4,-11,5,1,-12,-15,-14,-12
-3,-13,-10,8,5,-11,5,1,-12,-16,-14,-12
-3,-14,-11,8,5,-12,5,1,-12,-16,-14,-12
-3,-15,-12,8,5,-13,5,1,-13,-16,-14,-12
-3,-15,-12,8,5,-13,5,1,-13,-16,-14,-12
-3,-15,-12,8,5,-13,5,1,-13,-16,-14,-12
-3,-15,-12,8,5,-13,5,0,-13,-16,-14,-12
-3,-15,-12,8,5,-13,4,0,-13,-16,-14,-12
-3,-14,-12,8,5,-13,4,0,-13,-16,-14,-12
-2,-14,-12,8,5,-12,4,0,-13,-16,-14,-12
-2,-14,-12,8,5,-12,4,0,-13,-16,-14,-12
-2,-13,-11,8,5,-12,4,0,-13,-15,-14,-12
-2,-12,-10,7,5,-11,3,0,-13,-15,-13,-11
-2,-11,-9,6,5,-9,2,-1,-12,-14,-13,-11
-1,-9,-8,5,5,-8,2,-1,-11,-13,-12,-10
-1,-8,-8,4,5,-8,1,-1,-11,-13,-12,-10
0,-7,-7,4,4,-7,1,-1,-11,-13,-12,-10
0,-7,-7,3,4,-7,0,-1,-11,-12,-11,-9
0,-6,-6,3,4,-6,0,-1,-11,-12,-11,-9
0,-6,-6,2,4,-6,0,-1,-10,-11,-10,-9
1,-5,-6,2,4,-5,1,-1,-10,-11,-10,-8
1,-5,-6,2,5,-5,1,0,-9,-11,-9,-8
2,-5,-6,1,5,-5,1,0,-8,-11,-9,-8
2,-4,-7,1,6,-5,1,1,-7,-10,-8,-7
3,-4,-7,0,6,-5,1,1,-7,-9,-8,-7
3,-4,-7,0,6,-5,1,1,-6,-9,-8,-6
3,-4,-7,0,6,-5,1,1,-6,-8,-8,-6
3,-4,-7,0,6,-5,1,1,-5,-8,-7,-6
3,-3,-6,0,6,-4,1,1,-5,-8,-7,-6
2,-3,-6,0,5,-4,1,1,-5,-8,-7,-6
2,-3,-5,0,5,-4,1,2,-4,-8,-7,-6
2,-3,-5,0,4,-3,1,2,-4,-8,-7,-6
1,-3,-4,0,4,-3,1,2,-4,-8,-7,-6
1,-3,-3,0,3,-2,2,2,-4,-8,-7,-6
0,-3,-2,1,2,-2,2,2,-4,-8,-7,-7
0,-3,-2,1,1,-2,2,2,-3,-8,-7,-7
-1,-3,-1,1,1,-2,2,2,-3,-8,-8,-8
-1,-3,-1,2,0,-2,3,2,-3,-8,-8,-8
-2,-3,-1,2,0,-2,3,2,-3,-8,-8,-8
-2,-3,-1,3,0,-2,3,2,-4,-8,-8,-8
-3,-3,0,3,0,-2,4,2,-4,-8,-9,-8
-3,-3,0,3,0,-2,4,1,-4,-8,-9,-8
-3,-3,0,3,0,-2,4,1,-4,-8,-9,-8
-3,-3,0,3,0,-2,4,1,-4,-8,-9,-8
-3,-3,0,3,0,-2,4,1,-4,-8,-9,-8
-3,-3,0,3,0,-2,4,1,-4,-8,-9,-9
-3,-4,0,3,0,-2,4,2,-4,-8,-9,-9
-3,-4,-1,3,0,-3,5,3,-3,-8,-9,-10
-3,-6,-3,4,1,-4,5,5,-1,-9,-10,-11
-2,-8,-6,4,3,-7,6,8,2,-10,-12,-12
-1,-10,-10,5,5,-10,7,13,7,-11,-13,-14
0,-12,-13,5,7,-12,8,18,14,-11,-15,-16
1,-13,-15,6,9,-14,9,22,22,-11,-16,-18
2,-13,-16,6,10,-14,10,26,30,-10,-16,-20
3,-12,-15,5,10,-13,10,29,39,-8,-16,-20
5,-9,-14,3,10,-11,9,30,50,-3,-14,-20
7,-5,-12,0,10,-9,8,30,62,3,-10,-17
9,1,-8,-4,9,-4,5,29,74,12,-3,-13
11,9,-2,-10,7,3,1,24,84,24,6,-5
13,20,6,-17,4,13,-4,17,91,37,18,4
16,32,16,-24,1,24,-11,9,95,53,33,17
20,45,25,-33,-1,36,-19,0,96,72,51,33
25,59,34,-42,-3,47,-28,-12,93,92,73,53
30,72,42,-50,-4,57,-37,-24,87,112,97,74
34,84,49,-58,-5,66,-45,-36,80,129,118,94
38,94,55,-65,-7,74,-52,-47,72,141,136,111
39,101,61,-70,-9,81,-57,-56,62,146,146,123
38,104,65,-71,-11,84,-59,-62,51,140,146,127
36,101,65,-69,-13,83,-58,-64,42,127,138,124
33,96,63,-64,-13,79,-56,-64,29,108,125,117
29,89,60,-59,-14,75,-53,-64,9,86,107,107
25,83,58,-54,-15,71,-49,-63,-13,63,89,96
21,77,56,-49,-17,67,-45,-62,-32,43,71,84
16,70,53,-43,-17,61,-40,-58,-45,26,53,71
12,60,47,-36,-16,53,-33,-50,-51,12,37,55
8,48,40,-28,-14,44,-26,-40,-50,2,23,40
5,37,32,-21,-12,35,-19,-30,-44,-4,12,27
2,28,26,-15,-11,28,-13,-22,-37,-8,4,17
0,20,21,-10,-10,21,-7,-14,-32,-11,-3,8
-3,14,17,-5,-9,16,-3,-8,-30,-15,-9,0
-5,9,14,-2,-8,12,1,-4,-28,-18,-14,-6
-6,5,12,0,-8,9,4,0,-25,-20,-17,-11
-7,3,11,2,-8,7,6,4,-21,-20,-19,-14
-8,2,10,3,-8,6,8,7,-18,-19,-20,-16
-8,1,9,3,-8,5,9,9,-17,-19,-20,-17
-9,1,10,3,-8,5,10,11,-16,-18,-20,-18
-9,1,10,4,-9,6,10,12,-15,-18,-20,-18
-10,0,11,4,-9,6,11,12,-15,-18,-20,-18
-10,0,11,5,-10,6,12,12,-15,-18,-21,-19
-11,-1,11,6,-10,5,13,13,-15,-18,-21,-19
-11,-2,10,6,-9,4,14,14,-14,-18,-21,-20
-11,-2,9,7,-9,4,15,15,-14,-18,-21,-20
-11,-3,9,7,-9,3,15,16,-14,-18,-21,-20
-11,-3,8,8,-9,2,16,16,-14,-18,-21,-20
-11,-4,6,8,-8,1,16,17,-14,-18,-21,-20
-11,-6,5,9,-7,0,17,19,-13,-18,-21,-20
-10,-7,4,9,-6,-1,18,20,-13,-18,-21,-20
-10,-8,3,9,-6,-2,19,22,-12,-18,-21,-20
-10,-9,2,9,-5,-3,20,23,-12,-19,-21,-20
-10,-9,2,9,-5,-3,20,23,-12,-19,-21,-20
-10,-8,2,9,-5,-3,20,23,-12,-19,-21,-20
-9,-7,3,8,-5,-2,18,21,-12,-18,-20,-20
-8,-6,3,7,-5,-1,16,18,-12,-17,-19,-19
-8,-5,3,7,-5,-1,14,15,-11,-16,-18,-18
-7,-4,4,6,-4,0,12,12,-11,-14,-16,-16
-6,-3,4,5,-4,0,10,9,-10,-13,-15,-15
-6,-2,4,4,-4,1,8,6,-9,-11,-13,-13
-5,-1,4,4,-3,1,7,4,-8,-10,-12,-12
-4,-1,3,3,-2,0,6,3,-8,-10,-11,-11
-3,-1,2,3,-1,0,5,2,-8,-10,-11,-11
-3,-1,1,3,0,0,4,2,-7,-9,-10,-10
-2,-1,0,3,0,-1,4,2,-7,-8,-10,-10
-2,-2,0,2,1,-1,3,2,-6,-7,-9,-9
-1,-2,0,2,1,-1,3,2,-5,-7,-8,-9
-1,-2,-1,2,1,-1,3,2,-5,-6,-8,-8
0,-2,-1,1,1,-1,2,2,-4,-6,-7,-8
0,-2,-2,1,2,-1,2,2,-4,-6,-6,-7
0,-2,-2,1,2,-1,2,2,-4,-6,-6,-7
0,-2,-2,1,3,-1,1,2,-4,-6,-6,-7
0,-2,-2,1,3,-1,1,2,-3,-5,-5,-6
0,-2,-2,1,3,-1,1,2,-3,-5,-5,-6
0,-2,-2,1,3,-2,1,2,-2,-5,-4,-6
1,-2,-2,1,3,-2,1,2,-2,-5,-4,-6
1,-2,-2,1,3,-2,0,2,-2,-5,-4,-5
1,-1,-2,0,3,-2,0,2,-2,-5,-4,-5
1,-1,-2,0,3,-2,0,2,-2,-4,-3,-5
2,-1,-2,0,3,-2,0,2,-2,-4,-3,-5
2,-1,-2,0,3,-1,0,2,-1,-4,-3,-4
2,-1,-2,0,3,-1,0,2,-1,-3,-3,-4
2,0,-2,0,3,-1,0,2,-1,-3,-2,-3
2,0,-2,-1,4,-1,0,2,-1,-2,-2,-3
3,0,-2,-1,4,-1,0,2,0,-2,-1,-2
3,0,-2,-1,4,-1,-1,2,0,-1,-1,-2
3,0,-2,-1,4,-1,-1,2,0,-1,0,-1
3,0,-2,-1,4,-1,-1,2,0,0,0,-1
3,0,-2,-2,4,-1,-1,2,0,0,0,-1
3,0,-2,-2,4,-1,-2,2,0,0,1,0
4,1,-2,-2,4,-1,-2,2,1,1,2,0
4,1,-2,-2,4,0,-2,1,1,1,2,0
4,1,-2,-2,5,0,-3,1,2,2,3,1
5,2,-2,-3,5,0,-3,1,2,2,3,1
5,2,-2,-3,5,0,-3,1,2,3,4,2
6,3,-2,-4,5,0,-3,1,2,3,5,2
6,3,-2,-4,5,0,-4,1,2,4,5,3
6,3,-2,-5,6,0,-4,1,3,5,6,3
6,3,-2,-5,6,0,-5,1,3,6,7,4
7,4,-2,-5,6,1,-5,0,4,6,8,4
7,4,-2,-5,6,1,-6,0,4,7,8,5
7,4,-2,-6,6,1,-6,0,4,7,9,5
7,5,-2,-6,6,1,-6,0,4,8,9,6
8,5,-2,-7,6,1,-7,0,4,8,9,6
8,6,-2,-7,6,1,-7,0,4,8,10,6
8,6,-2,-7,6,1,-7,0,5,9,10,6
8,6,-2,-7,6,2,-7,0,5,9,10,7
8,6,-2,-7,6,2,-7,0,6,10,11,7
8,6,-2,-7,6,2,-7,0,6,10,11,8
9,7,-2,-8,6,2,-7,0,6,10,11,8
9,7,-2,-8,6,2,-7,0,6,10,11,8
9,7,-2,-8,6,2,-7,0,6,10,11,8
9,7,-2,-8,6,3,-7,0,6,10,11,8
9,7,-1,-8,7,3,-7,0,6,11,11,8
9,7,-1,-8,7,3,-7,0,6,11,11,8
9,7,-1,-8,7,3,-7,0,6,11,11,8
9,7,-1,-8,6,3,-8,0,7,11,11,8
9,7,-1,-8,6,3,-8,0,7,11,11,8
9,7,-1,-8,6,3,-8,0,7,11,11,8
9,7,-1,-8,6,3,-8,0,7,11,11,8
9,7,-1,-8,6,3,-8,0,7,11,11,8
8,7,-1,-7,6,3,-7,0,7,11,11,8
8,7,-1,-7,6,3,-7,0,7,11,11,8
8,6,-1,-7,6,3,-7,0,8,11,11,8
8,6,-1,-7,6,3,-7,1,8,11,11,8
8,6,-1,-7,6,3,-6,1,8,11,10,7
7,6,-1,-7,6,2,-6,1,8,11,10,7
7,5,-1,-7,6,2,-6,1,8,10,10,7
7,5,-1,-6,6,2,-6,1,8,10,9,7
6,5,-1,-6,6,2,-5,1,8,10,9,7
6,4,-1,-5,6,1,-5,2,8,10,9,6
6,4,-2,-5,6,1,-4,2,8,10,8,6
5,3,-2,-4,6,1,-4,2,8,10,8,6
5,3,-2,-4,5,1,-4,2,8,10,8,5
5,3,-2,-4,5,1,-4,2,8,9,8,5
4,3,-2,-4,5,1,-4,2,8,9,7,5
4,3,-2,-4,5,1,-4,2,7,9,7,5
4,2,-2,-3,5,0,-4,2,7,9,7,5
4,2,-2,-3,5,0,-3,2,7,9,7,4
3,2,-1,-3,5,0,-3,2,7,9,7,4
3,2,-1,-2,4,0,-3,2,7,9,7,4
3,2,-1,-2,4,0,-3,2,7,9,6,4
2,1,-1,-2,4,0,-2,2,8,8,6,4
2,1,-1,-2,4,0,-2,2,8,8,6,4
2,1,-1,-1,4,0,-2,2,8,8,6,4
2,1,-1,-1,4,0,-2,2,8,8,6,4
2,1,-1,-1,4,0,-1,2,9,8,5,4
2,0,-1,-1,4,0,-1,3,9,8,5,3
1,0,-1,-1,4,0,-1,3,9,8,5,3
1,0,-1,-1,4,0,-1,3,9,8,5,3
1,0,-1,-1,3,0,-1,3,9,8,5,3
0,0,-1,-1,3,0,0,3,9,8,5,3
0,0,-1,0,3,-1,0,3,9,8,5,3
0,-1,-1,0,3,-1,0,3,9,8,4,2
0,-1,-1,0,3,-1,0,3,10,8,4,2
0,-1,-1,0,3,-1,1,3,10,7,4,2
0,-2,-1,0,3,-1,1,3,11,7,4,2
0,-2,-1,0,3,-1,1,3,11,7,4,2
0,-2,-1,1,3,-1,1,3,11,7,4,2
0,-2,-2,1,3,-1,1,3,11,6,4,2
0,-2,-2,1,3,-2,1,3,11,6,3,2
0,-2,-2,1,3,-2,1,3,11,6,3,2
0,-3,-2,1,3,-2,1,3,11,6,3,1
0,-3,-2,1,3,-3,1,3,11,6,2,1
0,-3,-3,1,3,-3,1,3,11,6,2,1
0,-3,-3,1,3,-3,2,3,10,5,2,0
0,-3,-3,2,3,-3,2,3,10,5,2,0
-1,-4,-3,2,3,-3,2,3,9,4,2,0
-1,-4,-3,2,3,-3,2,3,9,4,1,0
-1,-4,-3,2,3,-3,2,3,8,3,1,0
-1,-4,-3,2,3,-4,2,3,8,3,0,-1
-1,-4,-4,2,3,-4,2,3,8,2,0,-1
-1,-4,-4,2,3,-4,2,3,7,2,0,-2
-1,-4,-4,2,3,-4,2,3,7,1,0,-2
-1,-4,-5,2,3,-4,2,3,7,1,0,-2
-1,-5,-5,2,3,-4,2,3,6,1,-1,-2
-1,-5,-5,2,3,-5,2,3,6,0,-1,-2
0,-5,-5,2,3,-5,2,3,5,0,-2,-2
0,-5,-5,2,3,-5,2,3,4,0,-2,-3
0,-5,-5,2,3,-5,2,3,4,-1,-2,-3
0,-5,-5,2,3,-5,2,3,3,-1,-2,-3
0,-5,-5,2,3,-5,2,2,3,-1,-3,-3
0,-6,-5,2,3,-5,2,2,2,-2,-3,-4
0,-6,-5,2,3,-5,2,2,2,-2,-4,-4
0,-6,-5,2,3,-5,2,2,1,-2,-4,-5
0,-6,-5,3,3,-5,2,2,1,-3,-4,-5
0,-6,-5,3,3,-5,2,2,0,-3,-5,-6
0,-6,-5,3,3,-6,2,2,0,-3,-5,-6
0,-6,-5,3,3,-6,2,2,0,-4,-5,-6
0,-6,-5,3,3,-6,2,2,0,-4,-5,-6
0,-6,-5,3,3,-6,2,2,0,-4,-5,-6
-1,-6,-5,3,3,-6,2,2,-1,-4,-5,-6
-1,-6,-5,3,3,-6,2,2,-1,-5,-6,-7
-1,-6,-5,3,3,-6,2,2,-1,-5,-6,-7
-1,-6,-5,3,3,-6,2,2,-2,-6,-7,-7
-1,-6,-5,3,3,-6,2,2,-2,-6,-7,-7
-1,-7,-5,4,3,-6,2,2,-3,-6,-7,-7
-1,-7,-5,4,3,-6,2,2,-3,-6,-7,-7
-1,-7,-5,4,3,-6,3,2,-3,-6,-7,-7
-1,-7,-5,4,3,-6,3,2,-3,-6,-7,-8
-1,-7,-5,4,3,-6,3,2,-3,-7,-7,-8
-1,-7,-5,4,3,-7,3,2,-3,-7,-7,-8
-1,-7,-5,4,3,-7,3,2,-4,-7,-8,-8
-1,-8,-5,4,3,-7,3,2,-4,-7,-8,-8
-1,-8,-5,4,3,-7,3,2,-5,-8,-9,-8
-1,-8,-6,4,3,-7,3,2,-6,-8,-9,-8
-1,-8,-6,4,3,-7,3,2,-6,-8,-9,-9
-1,-8,-6,5,3,-7,3,2,-7,-8,-9,-9
-1,-9,-6,5,3,-8,4,2,-7,-9,-9,-9
-1,-9,-6,5,3,-8,4,2,-7,-9,-9,-9
-2,-10,-6,6,3,-8,4,1,-8,-10,-10,-10
-2,-10,-6,6,3,-9,4,1,-9,-10,-10,-10
-3,-11,-7,6,3,-9,4,1,-9,-11,-11,-10
-3,-11,-7,7,3,-10,4,1,-10,-11,-11,-10
-3,-12,-7,7,3,-10,4,1,-10,-11,-11,-10
-3,-12,-7,7,3,-10,4,1,-10,-11,-11,-11
-3,-12,-7,7,3,-10,4,1,-10,-11,-11,-11
-3,-12,-7,7,3,-10,4,1,-10,-11,-11,-11
-3,-12,-8,8,4,-10,4,1,-10,-12,-11,-11
-3,-13,-8,8,4,-10,4,1,-10,-12,-11,-11
-3,-13,-8,8,4,-10,4,1,-11,-12,-12,-11
-3,-13,-8,8,4,-10,4,1,-12,-12,-12,-11
-3,-13,-8,8,3,-10,4,0,-12,-12,-12,-11
-3,-12,-7,8,3,-10,4,0,-12,-12,-12,-11
-3,-12,-7,8,3,-9,4,0,-12,-12,-12,-11
-3,-12,-7,8,2,-9,4,0,-12,-12,-12,-11
-4,-11,-6,8,2,-9,4,0,-12,-12,-12,-11
-4,-11,-6,7,2,-8,4,0,-12,-12,-12,-11
-4,-11,-5,7,2,-8,4,0,-12,-12,-12,-10
-4,-10,-5,7,1,-8,4,0,-12,-12,-12,-10
-4,-10,-5,7,1,-8,4,0,-12,-12,-12,-10
-4,-10,-5,7,1,-8,4,-1,-13,-12,-12,-11
-4,-10,-5,7,1,-8,4,-1,-13,-12,-12,-11
-4,-10,-5,7,1,-8,4,-1,-13,-12,-12,-11
-4,-10,-5,7,2,-8,4,-1,-13,-13,-12,-11
-4,-11,-6,7,2,-8,4,-1,-13,-13,-13,-11
-4,-11,-6,7,2,-8,4,-1,-13,-13,-13,-11
-3,-11,-7,7,2,-9,4,-1,-13,-13,-13,-11
-3,-11,-7,7,2,-9,4,0,-13,-13,-13,-11
-3,-12,-8,7,3,-10,4,0,-13,-13,-13,-11
-3,-12,-8,7,3,-10,4,0,-13,-13,-13,-11
-3,-12,-8,7,3,-10,4,0,-13,-13,-13,-11
-3,-12,-8,7,3,-10,4,0,-12,-13,-13,-11
-3,-12,-8,7,3,-10,4,0,-12,-13,-13,-11
-3,-12,-7,7,2,-9,4,0,-11,-13,-13,-11
-3,-12,-7,7,2,-9,4,0,-11,-13,-13,-11
-3,-11,-7,7,2,-9,4,0,-12,-13,-13,-11
-3,-11,-6,7,1,-9,4,0,-12,-13,-13,-12
-3,-11,-6,8,1,-9,4,0,-12,-13,-13,-12
-4,-11,-6,8,1,-9,4,0,-12,-13,-14,-12
-4,-11,-5,8,1,-9,4,0,-12,-13,-14,-12
-4,-11,-5,8,1,-9,4,0,-12,-13,-14,-12
-4,-11,-5,8,1,-9,4,0,-12,-13,-14,-12
-4,-11,-5,8,1,-9,4,0,-12,-13,-14,-12
-4,-11,-5,7,1,-8,4,0,-12,-13,-14,-12
-4,-10,-5,7,1,-8,4,0,-12,-13,-14,-12
-4,-10,-5,7,1,-8,4,0,-12,-13,-14,-12
-4,-10,-5,7,1,-8,4,0,-12,-13,-14,-12
-4,-10,-5,7,1,-8,4,0,-11,-13,-14,-12
-4,-10,-5,7,1,-8,4,0,-11,-13,-14,-12
-4,-10,-5,7,1,-8,4,0,-11,-13,-14,-12
-4,-10,-5,7,1,-8,4,1,-10,-13,-14,-12
-4,-10,-5,7,1,-8,5,2,-9,-13,-14,-12
-4,-11,-6,7,1,-9,5,3,-8,-13,-14,-13
-3,-13,-8,8,3,-10,6,6,-5,-13,-15,-14
-2,-14,-12,8,5,-13,7,10,-1,-14,-16,-16
-1,-16,-15,8,7,-15,8,15,4,-15,-18,-18
0,-18,-18,9,9,-17,10,20,11,-16,-20,-20
1,-18,-19,9,10,-19,11,24,19,-15,-21,-22
2,-18,-19,8,11,-19,11,27,28,-14,-21,-23
3,-16,-19,6,11,-17,11,29,38,-11,-20,-23
5,-13,-17,4,11,-15,9,30,49,-5,-16,-21
7,-8,-14,0,11,-11,7,30,61,2,-11,-17
9,0,-9,-4,10,-4,4,27,73,13,-3,-11
11,9,-2,-10,7,3,-1,21,82,26,7,-3
14,20,6,-17,4,13,-7,14,89,41,20,8
17,32,15,-25,1,24,-14,5,93,58,37,22
22,45,24,-33,0,34,-22,-6,94,78,58,40
27,58,31,-42,-1,44,-31,-18,90,98,82,60
32,71,39,-51,-2,54,-40,-30,84,117,105,81
37,82,46,-58,-3,63,-48,-41,77,132,125,101
39,91,52,-64,-5,71,-54,-52,69,141,140,116
39,96,57,-67,-7,76,-58,-59,58,140,145,124
37,95,58,-66,-9,76,-58,-63,49,130,140,123
35,91,56,-63,-10,73,-56,-64,38,114,128,118
31,84,54,-58,-11,69,-53,-64,21,94,113,109
27,78,52,-52,-12,64,-49,-64,-1,71,94,99
23,72,50,-47,-13,61,-45,-63,-24,50,76,88
18,65,48,-41,-14,57,-41,-60,-41,32,59,75
14,57,44,-35,-14,50,-35,-54,-51,17,43,61
9,46,37,-28,-13,42,-28,-46,-53,5,27,46
6,35,30,-21,-11,32,-21,-35,-50,-2,14,32
3,25,23,-14,-10,24,-15,-26,-43,-7,5,20
0,17,17,-8,-9,17,-9,-18,-37,-11,-2,10
-2,10,13,-3,-8,11,-4,-12,-34,-15,-9,1
-3,5,9,0,-7,7,0,-7,-33,-20,-15,-6
-5,1,7,2,-6,4,3,-3,-31,-22,-19,-11
-6,-1,6,4,-6,2,5,1,-28,-23,-22,-15
-7,-3,5,5,-6,1,7,5,-25,-22,-23,-17
-8,-4,5,6,-6,0,9,8,-23,-21,-23,-18
-9,-4,5,7,-7,0,10,10,-21,-21,-24,-19
-9,-4,5,7,-7,0,11,11,-20,-20,-24,-20
-9,-4,6,7,-8,0,11,11,-20,-20,-24,-20
-10,-5,6,8,-8,0,12,11,-19,-20,-24,-21
-10,-5,6,9,-8,0,13,12,-19,-20,-24,-21
-11,-6,6,9,-8,0,14,13,-19,-20,-24,-21
-11,-7,6,9,-8,0,15,14,-18,-20,-24,-21
-12,-7,5,9,-8,0,15,15,-18,-20,-24,-21
-12,-8,4,9,-8,-1,16,15,-18,-20,-24,-21
-11,-9,3,10,-8,-2,16,16,-18,-20,-24,-21
-11,-10,1,11,-7,-4,17,18,-17,-20,-24,-21
-11,-12,0,11,-6,-5,18,19,-17,-21,-24,-22
-10,-13,-1,12,-5,-6,19,21,-16,-21,-24,-22
-10,-14,-2,12,-4,-7,20,22,-16,-21,-24,-22
-10,-14,-2,12,-4,-8,21,23,-16,-21,-24,-22
-10,-14,-2,12,-4,-8,21,23,-15,-21,-23,-22
-10,-13,-2,12,-4,-8,20,22,-15,-20,-23,-21
-9,-12,-2,11,-4,-7,18,19,-15,-19,-22,-21
-9,-11,-2,10,-4,-7,16,16,-15,-18,-21,-20
-8,-10,-1,9,-3,-6,14,13,-15,-17,-20,-18
-7,-9,-1,8,-3,-5,12,9,-14,-16,-18,-17
-7,-8,0,7,-3,-4,10,6,-13,-14,-17,-15
-6,-8,0,6,-3,-4,9,4,-12,-13,-15,-14
-5,-7,-1,6,-2,-4,8,2,-12,-12,-14,-13
-4,-7,-2,6,-1,-4,7,2,-12,-12,-13,-13
-3,-7,-3,6,0,-5,6,1,-11,-12,-13,-12
-3,-7,-3,6,0,-5,5,1,-11,-12,-12,-12
-2,-7,-4,5,1,-6,5,1,-10,-11,-12,-11
-2,-7,-4,5,1,-6,4,1,-9,-11,-11,-11
-2,-7,-5,4,1,-6,4,1,-8,-10,-10,-10
-1,-7,-5,4,1,-6,3,1,-8,-9,-10,-10
-1,-7,-5,4,2,-6,3,1,-7,-9,-9,-9
0,-7,-5,4,2,-6,2,1,-7,-9,-9,-9
0,-7,-5,4,3,-6,2,1,-7,-8,-9,-9
0,-6,-5,4,3,-6,2,1,-7,-8,-9,-9
0,-6,-5,4,3,-6,2,1,-7,-8,-8,-8
0,-6,-5,4,3,-6,2,1,-6,-8,-8,-8
0,-6,-5,3,3,-6,2,1,-6,-7,-7,-7
0,-6,-5,3,3,-6,2,1,-5,-7,-7,-7
1,-6,-5,2,3,-6,2,1,-5,-6,-6,-7
1,-6,-5,2,3,-6,1,1,-5,-6,-6,-7
1,-6,-5,2,3,-6,1,1,-5,-6,-6,-7
1,-6,-5,2,3,-6,0,1,-5,-6,-6,-6
1,-5,-5,2,3,-6,0,1,-4,-6,-6,-6
1,-5,-5,2,3,-5,0,1,-4,-6,-5,-6
2,-5,-5,1,3,-5,0,1,-4,-5,-5,-5
2,-4,-5,1,4,-5,0,1,-4,-5,-4,-5
2,-4,-5,0,4,-5,0,1,-4,-4,-4,-4
3,-4,-5,0,4,-5,-1,0,-4,-4,-3,-4
3,-4,-5,0,4,-4,-1,0,-3,-3,-3,-3
3,-3,-5,0,4,-4,-1,0,-3,-3,-2,-3
3,-3,-5,0,4,-4,-1,0,-2,-2,-2,-2
3,-2,-5,0,4,-4,-1,0,-2,-2,-1,-2
3,-2,-5,0,4,-4,-1,0,-2,-1,-1,-1
4,-1,-5,-1,5,-4,-2,0,-1,-1,0,-1
4,-1,-5,-1,5,-4,-2,0,-1,0,0,0
5,-1,-5,-2,5,-3,-3,0,-1,0,1,0
5,-1,-5,-2,5,-3,-3,0,0,1,1,0
5,0,-5,-3,5,-3,-4,0,0,1,2,1
5,0,-5,-3,5,-3,-4,-1,0,2,2,1
6,0,-5,-3,6,-3,-4,-1,0,2,3,2
6,1,-5,-3,6,-3,-5,-1,0,3,4,2
7,1,-5,-3,6,-2,-5,-1,0,3,5,3
7,1,-5,-4,7,-2,-6,-1,1,4,5,3
7,2,-4,-4,7,-2,-6,-1,1,4,6,4
8,2,-4,-5,7,-1,-6,-1,1,5,7,4
8,3,-4,-5,7,-1,-7,-1,2,5,7,4
8,3,-4,-5,7,-1,-7,-1,2,6,8,5
8,3,-4,-5,7,-1,-7,-2,2,6,8,5
8,3,-4,-5,7,-1,-7,-2,2,6,8,5
8,3,-4,-5,7,0,-7,-2,2,7,8,6
8,3,-4,-6,7,0,-7,-2,3,7,9,6
8,4,-4,-6,7,0,-7,-2,3,7,9,6
9,4,-3,-7,7,0,-8,-2,3,7,9,6
9,4,-3,-7,7,0,-8,-2,3,8,9,6
9,4,-3,-7,7,0,-8,-2,3,8,9,6
9,4,-3,-7,7,0,-8,-2,3,8,9,6
9,4,-3,-7,7,0,-8,-2,4,8,9,6
9,4,-3,-7,7,0,-9,-2,4,8,9,6
9,4,-3,-7,7,0,-9,-2,4,8,9,6
9,5,-2,-7,7,0,-9,-1,4,8,9,6
9,5,-2,-7,7,0,-8,-1,4,8,9,6
9,5,-2,-7,7,0,-8,-1,4,8,9,6
9,5,-2,-7,7,0,-8,-1,4,8,9,6
9,5,-2,-7,7,0,-8,-1,4,8,9,6
9,5,-2,-7,7,1,-8,-1,4,8,8,6
9,5,-2,-7,7,1,-8,-1,5,8,8,5
8,5,-2,-6,6,1,-8,-1,5,8,8,5
8,5,-2,-6,6,1,-7,-1,5,7,8,5
8,5,-2,-6,6,1,-7,-1,5,7,7,5
7,5,-2,-6,6,1,-7,-1,5,7,7,4
7,5,-2,-6,5,1,-6,-1,5,7,6,4
7,5,-2,-6,5,1,-6,-1,5,7,6,4
7,5,-2,-5,5,0,-6,-1,4,6,6,4
7,4,-2,-5,5,0,-6,0,4,6,5,3
6,4,-1,-4,5,0,-6,0,4,5,5,3
6,3,-1,-4,4,0,-6,0,4,5,5,3
6,3,-1,-4,4,0,-6,0,4,5,4,2
6,3,-1,-4,4,0,-5,0,4,5,4,2
5,3,-1,-4,4,0,-5,0,4,5,4,2
5,3,-1,-3,4,0,-5,0,4,5,4,2
5,3,-1,-3,4,0,-5,0,4,5,4,1
5,2,-1,-3,4,0,-5,0,4,5,4,1
5,2,-1,-3,4,0,-4,0,4,4,3,1
4,2,-1,-3,4,0,-4,0,4,4,3,1
4,2,-1,-3,4,0,-4,0,4,4,3,1
4,2,-1,-3,4,0,-4,0,4,4,2,1
4,2,-1,-2,4,0,-4,0,4,4,2,1
4,2,-1,-2,4,0,-4,0,4,4,2,1
4,2,-1,-2,4,0,-4,0,4,4,2,0
4,2,-1,-2,4,0,-4,0,5,4,2,0
3,2,-1,-2,4,0,-3,0,5,4,2,0
3,1,0,-2,3,0,-3,0,5,4,2,0
3,1,0,-2,3,0,-3,0,5,4,2,0
3,1,0,-2,3,0,-3,0,5,3,2,0
3,1,0,-1,3,0,-3,0,6,3,1,0
3,0,0,-1,3,0,-3,0,6,3,1,-1
3,0,0,-1,3,0,-2,0,6,3,1,-1
3,0,0,-1,3,0,-2,0,7,3,1,-1
3,0,-1,-1,3,0,-2,0,7,2,0,-1
3,0,-1,-1,3,-1,-2,0,7,2,0,-1
3,0,-1,-1,3,-1,-1,0,7,2,0,-1
3,0,-1,-1,3,-1,-1,0,7,2,-1,-2
3,0,-1,-1,3,-1,-1,0,7,2,-1,-2
3,-1,-2,0,3,-1,-1,0,7,2,-1,-2
3,-1,-2,0,3,-2,-1,0,7,1,-1,-2
2,-2,-2,0,3,-2,-1,0,7,1,-1,-2
2,-2,-2,0,3,-2,-1,0,6,0,-1,-2
2,-2,-2,0,3,-3,-1,0,6,0,-1,-2
2,-2,-3,0,3,-3,-1,0,6,0,-1,-2
2,-3,-3,0,3,-3,-1,0,5,0,-2,-3
2,-3,-3,0,3,-3,-1,0,5,0,-2,-3
2,-3,-3,0,3,-3,0,0,5,-1,-3,-3
2,-3,-3,0,3,-3,0,0,5,-1,-3,-3
2,-3,-3,0,3,-4,0,0,4,-2,-3,-4
2,-3,-3,1,3,-4,0,0,4,-2,-3,-4
2,-3,-3,1,3,-4,0,0,3,-2,-3,-4
2,-4,-3,2,3,-4,0,0,3,-3,-4,-4
2,-4,-3,2,3,-4,0,1,3,-3,-4,-4
1,-4,-4,2,3,-4,0,1,2,-3,-4,-4
1,-4,-4,2,3,-4,0,1,2,-3,-4,-5
1,-5,-4,2,3,-4,0,1,1,-3,-4,-5
1,-5,-4,2,4,-5,0,1,1,-3,-5,-5
1,-5,-4,2,4,-5,0,1,1,-4,-5,-5
1,-5,-4,2,4,-5,1,1,0,-4,-5,-5
1,-5,-4,2,4,-5,1,1,0,-5,-5,-6
1,-6,-4,2,4,-5,1,1,0,-5,-5,-6
1,-6,-4,2,4,-5,1,1,-1,-6,-6,-6
1,-6,-4,3,4,-5,1,1,-1,-6,-6,-7
0,-6,-4,3,3,-5,1,1,-2,-6,-6,-7
0,-6,-4,3,3,-5,1,1,-2,-6,-6,-7
0,-6,-4,3,3,-5,1,1,-2,-6,-6,-7
0,-6,-5,3,3,-5,1,1,-2,-7,-7,-7
0,-6,-5,3,3,-6,1,1,-3,-7,-7,-7
0,-6,-4,3,3,-6,1,1,-3,-7,-7,-7
0,-6,-4,3,3,-6,1,1,-3,-7,-8,-8
0,-6,-5,3,3,-6,1,1,-3,-7,-8,-8
0,-6,-5,3,3,-6,2,1,-3,-7,-8,-8
0,-6,-5,3,3,-6,2,1,-4,-7,-8,-8
0,-7,-5,3,3,-6,2,1,-4,-7,-8,-8
0,-7,-5,3,3,-6,2,1,-4,-8,-8,-8
-1,-7,-5,3,3,-6,2,1,-4,-8,-8,-8
-1,-7,-5,3,3,-6,2,1,-4,-8,-9,-8
-1,-7,-5,3,3,-6,2,1,-4,-8,-9,-8
-1,-7,-5,3,2,-6,2,1,-4,-8,-9,-8
-1,-7,-5,4,2,-6,2,1,-5,-9,-9,-9
-1,-7,-5,4,2,-6,3,1,-5,-9,-9,-9
-1,-7,-5,4,2,-6,3,1,-6,-9,-9,-9
-2,-7,-5,4,2,-6,3,1,-6,-9,-9,-9
-2,-7,-5,4,2,-6,3,1,-7,-9,-10,-9
-2,-7,-5,5,2,-6,3,1,-7,-10,-10,-9
-2,-8,-5,5,2,-6,3,1,-7,-10,-10,-10
-2,-8,-5,5,2,-6,3,1,-7,-10,-10,-10
-2,-9,-5,5,2,-7,3,1,-8,-10,-10,-10
-3,-9,-5,6,2,-7,3,1,-8,-10,-11,-10
-3,-10,-5,6,2,-8,4,1,-9,-11,-11,-10
-3,-10,-5,6,2,-8,4,1,-9,-11,-12,-10
-3,-10,-5,6,2,-8,4,1,-10,-12,-12,-11
-3,-10,-6,6,2,-8,4,1,-10,-12,-12,-11
-3,-10,-6,6,2,-8,4,1,-10,-12,-12,-11
-3,-10,-6,6,2,-8,4,1,-10,-12,-12,-11
-3,-11,-6,6,2,-8,4,1,-10,-12,-12,-11
-3,-11,-6,6,2,-8,4,1,-11,-12,-12,-11
-4,-11,-6,6,2,-8,4,1,-11,-12,-12,-11
-4,-11,-6,6,2,-8,4,0,-11,-13,-12,-11
-4,-11,-6,6,1,-8,4,0,-11,-13,-12,-11
-4,-10,-5,6,1,-8,4,0,-11,-13,-12,-11
-4,-10,-5,6,0,-7,4,0,-12,-13,-12,-11
-4,-10,-5,6,0,-7,4,0,-12,-13,-12,-11
-4,-10,-5,6,0,-7,4,0,-12,-13,-12,-11
-4,-9,-4,6,0,-6,4,0,-12,-13,-12,-11
-4,-9,-4,6,-1,-6,4,0,-12,-13,-12,-11
-4,-8,-4,6,-1,-6,4,0,-12,-13,-12,-11
-4,-8,-4,6,-1,-6,4,0,-12,-13,-12,-11
-4,-8,-4,6,-1,-6,4,0,-13,-13,-12,-11
-4,-9,-4,6,-1,-6,4,0,-13,-13,-13,-11
-4,-9,-4,6,0,-6,4,0,-14,-13,-13,-11
-4,-9,-4,6,0,-7,4,0,-14,-13,-13,-11
-4,-10,-5,6,0,-7,4,0,-13,-13,-13,-11
-4,-10,-6,6,1,-8,4,0,-13,-13,-13,-11
-4,-11,-6,6,1,-9,4,0,-13,-13,-13,-11
-3,-11,-6,6,1,-9,4,0,-13,-13,-13,-11
-3,-11,-6,7,1,-9,4,0,-13,-13,-13,-11
-3,-11,-6,7,1,-9,4,0,-13,-13,-13,-11
-3,-11,-6,7,1,-9,4,0,-13,-13,-13,-11
-3,-11,-6,7,1,-9,4,0,-13,-13,-13,-11
-3,-11,-6,7,1,-9,4,0,-12,-13,-13,-11
-3,-11,-6,7,1,-9,4,0,-12,-13,-13,-11
-3,-10,-6,7,1,-9,4,0,-11,-13,-13,-11
-4,-10,-6,7,1,-9,4,0,-11,-13,-13,-11
-4,-10,-6,7,1,-9,4,0,-11,-13,-13,-11
-4,-10,-6,7,1,-9,5,0,-11,-13,-13,-11
-4,-11,-6,7,1,-9,5,0,-12,-13,-13,-12
-5,-11,-6,7,0,-9,5,0,-12,-13,-13,-12
-5,-11,-6,7,0,-9,5,0,-12,-13,-13,-12
-5,-11,-6,7,0,-8,5,0,-12,-13,-13,-12
-5,-11,-5,7,0,-8,5,0,-12,-13,-13,-12
-5,-11,-5,7,0,-8,5,0,-12,-13,-13,-12
-5,-10,-5,7,0,-8,5,0,-12,-13,-13,-12
-4,-10,-5,7,0,-8,5,0,-11,-13,-13,-12
-4,-10,-5,7,0,-8,5,0,-11,-13,-13,-12
-4,-10,-5,7,0,-8,5,1,-11,-13,-13,-12
-4,-10,-5,7,0,-8,5,1,-11,-13,-13,-12
-4,-10,-5,7,0,-8,5,1,-10,-13,-13,-11
-4,-10,-5,7,1,-8,5,2,-10,-13,-13,-11
-4,-10,-6,7,1,-8,5,3,-9,-13,-13,-11
-4,-11,-8,7,2,-9,6,5,-7,-13,-13,-12
-3,-13,-10,7,4,-11,7,8,-4,-14,-14,-13
-1,-15,-14,8,6,-14,8,13,0,-15,-16,-15
0,-17,-17,8,8,-17,9,18,5,-16,-18,-18
0,-19,-19,9,9,-19,11,22,13,-16,-20,-20
1,-19,-20,9,10,-20,11,26,21,-16,-21,-22
2,-18,-20,8,11,-20,11,29,30,-14,-21,-23
4,-16,-20,6,11,-18,11,31,40,-10,-19,-22
6,-13,-18,4,11,-15,9,32,52,-4,-16,-20
8,-7,-15,0,11,-11,7,31,64,4,-10,-16
10,0,-10,-5,10,-4,3,28,75,15,-1,-10
12,10,-2,-11,7,3,-2,22,84,29,10,-1
14,21,6,-18,4,13,-8,14,91,44,24,11
18,34,15,-26,2,24,-15,4,95,62,42,26
23,47,23,-35,0,35,-24,-6,95,82,63,45
29,60,30,-44,0,45,-33,-19,91,102,87,66
34,72,37,-52,-1,55,-42,-31,86,120,110,87
38,82,44,-60,-2,63,-49,-42,79,135,130,105
40,90,50,-65,-4,70,-55,-52,70,142,142,119
40,94,54,-67,-7,74,-58,-59,60,139,145,125
38,93,55,-65,-8,74,-57,-62,50,127,139,123
35,88,54,-61,-9,70,-55,-63,38,110,126,117
31,81,51,-56,-10,66,-52,-63,18,88,110,108
26,75,49,-50,-11,62,-48,-63,-5,66,91,98
22,69,48,-45,-12,58,-44,-62,-27,46,74,86
17,62,45,-40,-13,54,-40,-58,-43,28,57,73
13,53,40,-33,-13,47,-34,-52,-51,14,40,59
9,42,33,-26,-11,38,-26,-42,-52,3,25,44
6,31,26,-18,-10,28,-19,-32,-48,-4,13,30
3,22,20,-12,-9,20,-13,-23,-41,-9,4,19
0,14,15,-6,-8,14,-7,-15,-36,-12,-3,9
-2,7,11,-1,-7,8,-2,-9,-34,-17,-9,1
-4,1,7,2,-7,4,2,-4,-32,-20,-15,-6
-6,-2,5,5,-6,1,5,0,-29,-22,-18,-11
-7,-4,4,6,-6,0,7,4,-25,-23,-20,-14
-8,-5,3,7,-6,-1,9,8,-22,-22,-21,-16
-9,-6,3,8,-6,-2,11,11,-21,-21,-22,-17
-10,-6,3,8,-6,-2,12,13,-19,-21,-22,-18
-10,-6,3,8,-7,-1,12,14,-18,-20,-22,-19
-11,-6,4,8,-7,-1,13,14,-18,-20,-22,-19
-11,-6,5,9,-8,-1,13,14,-18,-20,-23,-20
-12,-7,5,9,-8,-2,14,14,-18,-21,-23,-20
-12,-8,4,10,-8,-2,15,15,-17,-21,-23,-21
-12,-8,4,10,-8,-3,16,16,-17,-20,-23,-21
-12,-9,3,10,-7,-3,16,16,-16,-20,-23,-21
-12,-10,2,11,-7,-4,17,17,-16,-20,-23,-21
-12,-11,0,11,-6,-5,18,18,-16,-20,-23,-21
-11,-12,0,12,-5,-6,18,19,-16,-21,-23,-21
-11,-13,-1,12,-5,-7,19,21,-15,-21,-23,-21
-11,-14,-2,12,-4,-8,20,23,-14,-21,-23,-21
-11,-15,-3,12,-4,-9,21,24,-14,-21,-23,-21
-11,-15,-4,12,-4,-10,21,24,-14,-21,-23,-21
-11,-15,-4,12,-4,-9,21,24,-14,-21,-22,-21
-11,-14,-4,12,-3,-9,20,22,-14,-20,-22,-20
-10,-13,-4,11,-3,-8,19,19,-14,-19,-21,-20
-9,-12,-3,11,-3,-7,17,17,-14,-18,-20,-19
-8,-11,-3,10,-2,-7,15,14,-14,-17,-19,-17
-7,-10,-3,9,-2,-7,13,11,-13,-16,-18,-16
-6,-9,-3,8,-2,-6,11,8,-12,-14,-16,-15
-6,-8,-3,7,-2,-6,9,5,-11,-13,-14,-14
-5,-8,-3,6,-1,-6,8,4,-11,-13,-13,-13
-4,-8,-3,6,0,-6,7,3,-11,-12,-13,-12
-4,-8,-4,6,0,-6,6,3,-10,-12,-12,-12
-3,-8,-5,6,1,-6,6,3,-10,-12,-12,-11
-3,-8,-6,5,1,-7,5,3,-9,-11,-11,-11
-2,-8,-6,5,2,-7,5,3,-8,-11,-11,-10
-2,-8,-6,5,2,-7,4,3,-7,-10,-10,-10
-1,-8,-6,5,2,-7,4,3,-7,-10,-9,-9
-1,-8,-6,4,2,-7,3,3,-6,-10,-9,-9
-1,-8,-7,4,3,-7,3,3,-6,-9,-8,-8
0,-8,-7,4,3,-7,3,3,-6,-9,-8,-8
0,-8,-7,4,3,-7,3,3,-6,-9,-8,-8
0,-7,-7,4,3,-7,3,3,-6,-9,-8,-7
0,-7,-7,3,3,-7,3,3,-6,-8,-7,-7
0,-7,-7,3,3,-7,2,3,-5,-8,-7,-7
0,-7,-7,3,3,-7,2,3,-5,-7,-6,-7
0,-7,-7,3,4,-7,1,3,-5,-7,-6,-6
1,-7,-7,3,4,-7,1,3,-4,-7,-5,-6
1,-6,-7,3,4,-7,1,3,-4,-6,-5,-6
1,-6,-7,2,4,-7,1,2,-4,-6,-5,-6
1,-6,-7,2,4,-7,1,2,-3,-5,-5,-6
1,-5,-6,2,4,-7,1,2,-3,-5,-4,-5
1,-5,-6,2,4,-6,0,2,-3,-4,-4,-5
2,-5,-6,2,4,-6,0,2,-3,-4,-3,-4
2,-4,-6,1,4,-6,0,2,-2,-4,-3,-4
2,-4,-6,1,4,-5,0,1,-2,-4,-2,-3
2,-4,-6,1,4,-5,-1,1,-2,-3,-2,-3
2,-3,-6,0,4,-5,-1,1,-2,-3,-1,-3
2,-3,-6,0,4,-5,-1,1,-2,-2,-1,-2
3,-3,-6,0,4,-5,-2,1,-1,-1,-1,-2
4,-2,-6,-1,4,-5,-2,1,-1,0,0,-1
4,-2,-6,-1,4,-5,-2,1,0,0,0,-1
5,-1,-6,-1,4,-4,-2,0,0,1,1,0
5,-1,-6,-1,4,-4,-2,0,0,1,2,0
5,0,-5,-2,5,-4,-3,0,1,2,2,1
5,0,-5,-2,5,-3,-3,0,1,2,3,1
5,0,-5,-2,6,-3,-4,0,1,3,4,2
6,0,-5,-3,6,-3,-4,0,1,3,4,2
6,1,-5,-3,6,-2,-4,0,2,4,5,3
7,1,-5,-4,6,-2,-5,0,2,4,6,3
7,1,-5,-4,6,-2,-5,0,2,5,6,4
7,2,-5,-5,6,-2,-6,0,2,5,7,4
7,2,-5,-5,6,-2,-6,0,2,6,7,5
7,2,-5,-5,6,-1,-6,0,3,6,8,5
8,2,-5,-5,6,-1,-6,0,3,6,8,5
8,3,-5,-6,6,-1,-6,0,3,7,8,6
8,3,-5,-6,6,-1,-6,-1,4,7,9,6
8,3,-5,-6,6,-1,-6,-1,4,8,9,6
8,3,-4,-6,6,-1,-7,-1,4,8,9,6
9,3,-4,-6,6,-1,-7,-1,4,8,9,7
9,3,-4,-6,6,0,-7,-1,4,8,9,7
9,3,-4,-6,7,0,-8,-1,4,8,9,7
9,3,-4,-6,7,0,-8,-1,4,8,9,7
9,3,-4,-6,7,0,-8,-1,4,8,9,7
9,4,-4,-6,6,0,-8,-1,4,8,9,7
9,4,-4,-6,6,0,-8,-1,4,8,9,7
9,4,-3,-6,6,0,-8,-1,4,8,9,7
9,4,-3,-6,6,0,-8,-1,4,8,9,7
8,4,-3,-6,6,0,-8,-1,5,8,9,7
8,4,-3,-6,6,0,-8,-1,5,8,9,7
8,4,-3,-6,6,0,-8,0,5,8,9,7
8,4,-3,-6,6,0,-7,0,5,8,9,7
8,4,-3,-6,6,0,-7,0,5,8,8,6
8,4,-3,-6,6,0,-7,0,5,8,8,6
8,4,-3,-6,6,0,-7,0,5,8,7,6
7,4,-3,-6,5,0,-7,0,5,8,7,6
7,4,-3,-6,5,0,-7,0,5,8,7,5
7,4,-2,-5,5,0,-7,0,5,8,7,5
7,4,-2,-5,5,0,-6,0,5,7,7,5
6,3,-2,-5,5,0,-6,0,5,7,7,4
6,3,-2,-5,5,0,-6,0,5,7,6,4
6,3,-2,-5,4,0,-6,0,5,6,6,4
6,3,-2,-5,4,0,-5,0,4,6,5,3
5,3,-2,-5,4,0,-5,0,4,6,5,3
5,3,-2,-5,4,0,-5,0,4,6,5,3
5,3,-2,-4,4,0,-4,0,4,6,4,3
5,3,-2,-4,4,0,-4,0,4,6,4,2
5,3,-1,-4,3,0,-4,0,4,5,4,2
5,2,-1,-4,3,0,-4,0,4,5,4,2
4,2,-1,-4,3,0,-4,0,4,5,4,2
4,2,-1,-3,3,0,-3,0,4,5,3,2
4,2,-1,-3,3,0,-3,0,4,5,3,1
4,2,-1,-3,2,0,-3,0,4,5,3,1
4,2,-1,-3,2,0,-3,0,4,5,3,1
3,2,-1,-2,2,0,-2,1,4,5,3,1
3,2,-1,-2,2,0,-2,1,4,5,3,1
3,2,0,-2,2,0,-2,1,4,5,2,0
3,1,0,-2,2,0,-2,1,5,5,2,0
3,1,0,-2,2,-1,-2,1,5,4,2,0
3,0,0,-2,2,-1,-2,1,6,4,2,0
3,0,-1,-2,2,-1,-2,1,6,4,2,0
3,0,-1,-2,2,-1,-1,1,6,4,1,0
3,0,-1,-2,2,-1,-1,1,6,4,1,0
3,0,-1,-1,2,-1,-1,1,6,4,1,0
3,0,-1,-1,2,-1,-1,1,6,3,0,0
3,0,-1,-1,2,-1,-1,1,6,3,0,0
3,0,-1,-1,2,-1,-1,1,6,3,0,0
3,-1,-1,-1,2,-1,-1,1,7,3,0,0
2,-1,-1,0,2,-2,-1,1,7,2,0,-1
2,-1,-1,0,2,-2,-1,1,7,2,0,-1
2,-1,-2,0,2,-2,0,1,7,1,0,-1
2,-1,-2,0,2,-3,0,1,7,1,-1,-2
2,-1,-2,0,2,-3,0,1,7,1,-1,-2
2,-2,-2,0,2,-3,0,1,6,1,-2,-2
2,-2,-2,0,2,-3,0,1,6,1,-2,-2
2,-2,-2,0,2,-3,0,1,6,0,-2,-3
2,-2,-2,0,2,-3,0,1,6,0,-2,-3
2,-3,-2,0,2,-3,0,1,6,0,-2,-3
1,-3,-3,0,2,-3,0,1,5,0,-2,-3
1,-3,-3,0,2,-3,0,1,5,-1,-2,-3
1,-3,-3,0,2,-3,0,1,4,-1,-3,-3
1,-3,-3,1,2,-4,0,1,4,-2,-3,-3
1,-4,-3,1,2,-4,0,1,3,-2,-4,-4
1,-4,-3,2,2,-4,0,1,3,-2,-4,-4
1,-4,-3,2,2,-4,1,1,3,-3,-4,-4
1,-4,-3,2,2,-5,1,1,2,-3,-4,-4
0,-4,-3,2,2,-5,1,1,2,-3,-4,-5
0,-4,-4,2,2,-5,1,1,1,-3,-5,-5
0,-4,-4,2,2,-5,1,1,1,-3,-5,-5
0,-5,-4,2,2,-5,1,1,0,-4,-5,-5
0,-5,-4,3,2,-6,1,1,0,-4,-5,-5
0,-6,-4,3,2,-6,1,1,0,-5,-6,-5
0,-6,-4,3,2,-6,1,1,0,-5,-6,-6
0,-6,-4,3,2,-6,1,1,0,-5,-6,-6
0,-6,-4,3,2,-6,1,1,0,-6,-6,-6
0,-6,-4,3,2,-6,1,1,-1,-6,-7,-6
0,-6,-4,3,2,-6,1,1,-1,-6,-7,-6
0,-6,-4,3,2,-6,2,2,-2,-6,-7,-6
0,-6,-4,3,2,-6,2,2,-2,-6,-7,-7
0,-6,-5,3,2,-6,2,2,-2,-6,-7,-7
0,-6,-5,3,2,-7,2,2,-3,-7,-7,-7
0,-6,-5,3,2,-7,2,2,-3,-7,-7,-8
0,-6,-5,4,2,-7,2,2,-3,-8,-8,-8
-1,-7,-5,4,2,-7,2,2,-3,-8,-8,-8
-1,-7,-5,4,2,-7,2,2,-4,-8,-8,-8
-1,-7,-5,4,2,-7,2,2,-4,-8,-8,-8
-1,-7,-5,4,2,-7,2,2,-4,-8,-9,-8
-1,-7,-5,4,2,-7,2,2,-4,-8,-9,-8
-1,-7,-5,4,1,-7,2,2,-4,-9,-9,-8
-1,-8,-5,4,1,-7,2,2,-4,-9,-9,-9
-1,-8,-5,4,1,-7,2,2,-4,-9,-9,-9
-1,-8,-5,4,1,-7,2,2,-5,-9,-10,-9
-1,-8,-5,4,1,-7,3,2,-5,-9,-10,-9
-1,-8,-5,4,1,-7,3,2,-5,-9,-10,-9
-1,-8,-5,4,1,-7,3,2,-6,-10,-10,-9
-2,-9,-5,5,1,-7,3,2,-6,-10,-10,-9
-2,-9,-5,5,1,-7,3,2,-7,-10,-10,-9
-2,-9,-5,5,1,-8,3,2,-7,-10,-10,-9
-2,-9,-5,5,1,-8,3,2,-8,-10,-10,-9
-2,-9,-5,6,1,-8,3,2,-8,-11,-10,-9
-3,-9,-5,6,1,-8,3,2,-9,-11,-11,-10
-3,-10,-6,7,1,-9,3,2,-9,-12,-11,-10
-3,-10,-6,7,1,-9,3,2,-10,-12,-12,-10
-3,-11,-6,7,1,-9,4,2,-10,-12,-12,-10
-3,-11,-6,7,1,-9,4,2,-10,-13,-12,-11
-3,-11,-6,7,1,-10,4,2,-10,-13,-12,-11
-3,-11,-6,7,1,-10,4,2,-10,-13,-12,-11
-4,-11,-7,7,1,-10,4,2,-10,-13,-12,-11
-4,-11,-7,8,1,-10,4,2,-10,-13,-12,-11
-4,-12,-7,8,1,-10,5,2,-11,-13,-13,-11
-4,-12,-7,8,1,-10,5,1,-11,-14,-13,-11
-4,-12,-7,8,1,-10,5,1,-12,-14,-13,-11
-4,-12,-7,8,1,-10,5,0,-12,-14,-13,-11
-4,-12,-7,8,1,-10,5,0,-13,-14,-13,-11
-4,-12,-6,8,1,-10,5,0,-13,-14,-13,-11
-4,-12,-6,8,1,-10,5,0,-13,-14,-13,-11
-4,-11,-6,8,1,-10,5,0,-13,-14,-13,-11
-4,-11,-6,8,1,-9,4,0,-13,-14,-14,-11
-4,-10,-5,8,0,-9,4,0,-13,-14,-14,-11
-4,-10,-5,7,0,-8,4,0,-13,-14,-14,-11
-4,-9,-4,7,0,-8,4,0,-13,-14,-14,-11
-4,-9,-4,7,0,-7,4,0,-13,-14,-14,-11
-4,-9,-4,7,0,-7,4,0,-13,-14,-14,-11
-4,-9,-4,7,0,-7,4,0,-14,-14,-14,-11
-4,-10,-5,7,0,-8,4,0,-14,-15,-14,-11
-4,-10,-5,7,0,-8,4,0,-14,-15,-14,-11
-4,-11,-5,7,0,-9,4,0,-14,-15,-14,-11
-4,-11,-6,7,1,-9,4,0,-14,-15,-14,-11
-4,-12,-6,7,1,-9,4,0,-14,-15,-14,-11
-4,-12,-7,7,2,-10,4,0,-14,-15,-14,-11
-4,-12,-7,7,2,-10,4,0,-14,-15,-14,-11
-4,-12,-7,7,2,-10,4,0,-13,-15,-14,-11
-4,-12,-7,8,2,-10,4,1,-13,-15,-14,-11
-4,-12,-7,8,2,-10,4,1,-13,-15,-14,-11
-4,-12,-7,8,2,-10,5,1,-13,-15,-14,-11
-4,-12,-7,8,2,-10,5,1,-13,-15,-14,-11
-4,-12,-7,8,2,-10,5,1,-13,-15,-14,-11
-4,-12,-7,8,1,-10,5,1,-13,-15,-14,-11
-4,-12,-7,8,1,-10,5,1,-13,-15,-14,-11
-5,-12,-7,8,1,-10,5,1,-13,-15,-14,-12
-5,-12,-7,9,1,-10,5,1,-13,-15,-14,-12
-5,-12,-7,9,1,-10,5,1,-13,-15,-15,-12
-5,-12,-6,9,1,-10,5,1,-13,-15,-15,-12
-5,-12,-6,9,1,-10,5,1,-13,-15,-15,-12
-5,-12,-6,9,1,-10,5,1,-13,-15,-15,-12
-5,-12,-6,8,1,-10,5,1,-13,-15,-15,-12
-4,-11,-6,8,1,-10,5,1,-13,-15,-14,-12
-4,-11,-6,8,1,-10,5,1,-12,-15,-14,-12
-5,-11,-6,8,1,-10,5,1,-12,-15,-14,-12
-5,-11,-6,8,1,-9,5,1,-12,-14,-14,-11
-5,-11,-6,8,1,-9,5,1,-12,-14,-14,-11
-5,-11,-6,8,1,-9,5,1,-11,-14,-14,-11
-5,-11,-6,8,1,-9,5,2,-11,-14,-14,-11
-5,-12,-7,8,1,-10,5,3,-10,-14,-14,-12
-4,-13,-8,8,2,-11,6,5,-8,-14,-14,-12
-3,-14,-11,8,4,-13,7,8,-4,-15,-15,-14
-2,-17,-14,9,6,-16,8,12,0,-15,-16,-16
-1,-19,-17,9,8,-19,9,16,7,-16,-18,-18
0,-20,-20,10,9,-21,11,20,15,-16,-19,-20
0,-21,-21,10,11,-22,12,24,23,-15,-20,-21
1,-20,-22,9,12,-21,12,26,32,-13,-20,-22
3,-18,-21,8,12,-20,11,28,42,-9,-18,-21
4,-14,-19,5,12,-17,10,29,54,-3,-14,-19
6,-9,-15,1,11,-13,7,28,66,5,-8,-15
8,-1,-9,-3,9,-6,4,25,76,16,0,-9
10,9,-1,-9,6,3,-1,19,84,29,11,0
12,20,8,-16,3,13,-7,11,88,44,24,10
16,33,17,-25,0,25,-14,2,90,61,40,25
20,47,26,-33,-3,36,-23,-9,87,81,61,43
25,60,35,-42,-5,47,-32,-21,81,102,84,64
29,73,44,-51,-7,57,-40,-32,73,121,107,85
33,84,51,-59,-8,67,-48,-43,65,137,128,104
35,93,58,-65,-10,75,-54,-52,55,146,142,119
35,99,63,-67,-13,80,-58,-59,44,146,147,126
33,98,64,-66,-14,81,-58,-63,34,136,142,126
31,93,62,-62,-15,77,-56,-64,22,119,131,121
28,87,59,-57,-15,72,-53,-64,4,96,114,113
24,80,56,-52,-16,67,-49,-63,-18,71,95,102
20,73,54,-47,-16,62,-46,-62,-37,47,76,90
16,66,50,-41,-16,57,-41,-58,-52,28,58,77
12,56,44,-35,-15,50,-35,-51,-59,12,41,62
8,45,36,-27,-13,40,-28,-42,-59,0,25,46
5,33,28,-19,-11,30,-20,-32,-54,-7,13,32
2,22,20,-13,-9,21,-14,-23,-47,-12,3,20
0,14,15,-7,-8,14,-8,-16,-41,-16,-4,10
-2,7,10,-2,-7,8,-3,-9,-37,-20,-11,1
-5,1,7,2,-6,3,1,-4,-34,-23,-16,-5
-6,-2,5,4,-6,0,4,0,-30,-25,-20,-10
-8,-5,3,6,-5,-1,7,4,-26,-25,-22,-14
-9,-6,2,7,-5,-2,9,8,-23,-24,-23,-16
-9,-7,2,7,-5,-3,10,11,-21,-24,-24,-17
-10,-7,2,8,-5,-3,11,12,-20,-23,-24,-18
-10,-7,2,8,-6,-3,12,13,-19,-23,-24,-19
-10,-7,3,8,-6,-3,13,13,-19,-23,-24,-20
-10,-8,3,9,-6,-4,13,13,-20,-24,-25,-20
-11,-9,2,10,-6,-4,14,14,-20,-24,-25,-21
-11,-10,1,10,-6,-5,15,16,-20,-24,-26,-21
-11,-11,0,11,-6,-6,16,17,-19,-24,-26,-22
-11,-11,0,11,-5,-6,17,18,-19,-24,-25,-22
-11,-12,-1,11,-5,-7,17,18,-19,-24,-25,-22
-11,-13,-2,12,-4,-8,18,19,-19,-24,-25,-22
-11,-14,-3,12,-4,-10,19,21,-18,-24,-25,-22
-11,-15,-5,13,-3,-11,20,22,-17,-24,-25,-22
-11,-16,-6,13,-2,-12,20,23,-17,-24,-25,-22
-11,-17,-6,14,-2,-12,21,24,-16,-24,-25,-22
-11,-18,-7,14,-2,-13,22,25,-16,-24,-25,-22
-10,-17,-7,14,-2,-13,22,25,-15,-24,-24,-22
-10,-16,-6,13,-2,-12,21,24,-15,-23,-23,-21
-9,-15,-6,12,-2,-11,19,21,-15,-22,-22,-20
-9,-14,-5,11,-2,-10,17,18,-15,-21,-21,-19
-8,-13,-5,10,-2,-9,15,14,-14,-19,-20,-18
-8,-11,-4,9,-2,-8,13,10,-13,-17,-18,-16
-7,-10,-3,8,-2,-8,11,7,-13,-16,-17,-15
-6,-10,-3,8,-1,-7,9,5,-12,-15,-16,-14
-5,-9,-4,7,-1,-7,8,4,-12,-14,-15,-13
-4,-9,-4,7,0,-7,7,3,-12,-14,-14,-12
-4,-9,-5,6,0,-8,7,3,-12,-14,-13,-12
-3,-10,-6,6,1,-8,6,3,-11,-13,-13,-12
-3,-10,-7,6,1,-9,6,3,-10,-13,-12,-11
-3,-10,-8,6,2,-10,5,3,-10,-13,-12,-11
-3,-10,-8,6,2,-10,5,3,-9,-12,-12,-10
-2,-10,-8,6,2,-10,4,3,-9,-12,-11,-10
-2,-10,-8,6,3,-10,4,3,-9,-12,-11,-10
-1,-10,-9,6,3,-10,4,3,-9,-12,-11,-10
-1,-10,-9,6,3,-11,4,3,-9,-12,-11,-9
-1,-10,-10,6,4,-11,4,3,-9,-12,-10,-9
-1,-11,-10,6,4,-12,4,3,-8,-12,-10,-9
0,-11,-11,6,5,-12,4,3,-8,-11,-9,-8
0,-11,-11,6,5,-12,3,2,-8,-11,-9,-8
0,-11,-11,5,6,-12,3,2,-8,-10,-9,-7
1,-11,-11,5,6,-12,2,2,-8,-10,-8,-7
1,-11,-11,5,6,-12,2,2,-8,-9,-8,-7
1,-11,-12,5,6,-12,2,2,-7,-9,-7,-7
2,-10,-12,4,6,-12,1,2,-7,-9,-7,-7
2,-10,-12,4,6,-12,1,2,-6,-8,-7,-6
2,-10,-12,4,6,-12,1,2,-6,-8,-7,-6
2,-9,-11,3,6,-11,0,2,-5,-8,-6,-5
3,-8,-11,2,6,-10,0,1,-4,-7,-5,-4
3,-7,-10,1,6,-9,-1,1,-3,-5,-4,-3
4,-6,-10,0,7,-8,-1,1,-3,-4,-3,-3
4,-4,-9,0,7,-8,-2,0,-2,-4,-2,-2
4,-3,-8,0,6,-7,-2,0,-2,-3,-2,-2
5,-2,-7,-1,6,-6,-2,0,-1,-2,-1,-1
5,-1,-6,-2,6,-5,-3,0,0,-1,0,0
6,0,-5,-3,6,-4,-3,0,1,0,1,1
6,1,-5,-4,6,-3,-4,0,2,1,2,2
7,2,-4,-4,6,-2,-4,0,2,2,3,3
7,3,-4,-5,6,-1,-4,0,3,3,4,3
8,4,-4,-6,6,-1,-5,0,3,4,5,4
8,5,-4,-6,6,0,-5,0,4,5,6,5
9,6,-3,-7,6,0,-5,0,4,6,7,6
9,6,-3,-7,6,0,-5,0,5,7,8,6
10,7,-3,-8,6,1,-6,0,5,7,9,7
10,7,-2,-8,6,1,-6,0,6,8,10,8
10,8,-2,-9,6,2,-7,0,6,9,10,8
10,8,-1,-9,6,2,-7,-1,7,10,11,9
10,9,-1,-10,6,3,-8,-1,7,11,11,9
10,10,0,-10,6,3,-8,-1,8,12,12,9
10,11,1,-11,5,4,-8,-1,8,12,12,9
10,11,1,-11,5,4,-8,-1,8,12,12,9
9,11,2,-11,5,5,-8,-1,8,12,12,9
9,11,2,-11,4,5,-8,-1,8,12,12,9
9,11,2,-10,4,5,-8,-1,8,13,12,9
8,11,2,-10,4,5,-8,-1,8,13,12,9
8,11,3,-9,3,5,-8,-1,8,13,12,9
8,11,3,-9,3,5,-8,-1,8,12,12,9
7,11,3,-9,3,5,-8,-1,8,12,12,9
7,10,3,-9,3,5,-8,-1,8,12,12,9
7,10,3,-9,3,5,-8,-1,8,12,12,9
7,10,3,-8,3,5,-8,-1,8,12,12,9
7,10,3,-8,3,5,-8,-1,7,12,12,9
7,10,3,-8,3,5,-8,-1,7,12,12,9
7,10,3,-8,2,5,-8,-1,7,12,11,8
7,10,3,-8,2,5,-8,-1,7,12,11,8
7,10,2,-8,2,5,-8,-1,7,11,10,7
7,10,2,-8,2,5,-8,-1,7,11,10,7
7,10,2,-8,2,5,-7,-1,7,10,9,7
7,9,2,-8,2,5,-7,-1,7,10,9,7
6,9,2,-7,2,5,-7,-1,7,10,9,7
6,9,2,-7,2,5,-7,0,7,10,9,7
6,9,2,-7,2,5,-7,0,7,10,9,6
6,9,2,-7,2,5,-7,0,7,10,9,6
5,8,2,-7,2,5,-6,0,7,10,8,6
5,8,2,-7,2,5,-6,0,7,10,8,5
5,8,2,-6,2,5,-5,0,7,9,8,5
5,7,3,-6,2,4,-5,0,7,9,8,5
5,7,3,-6,1,4,-5,0,7,9,7,5
5,7,3,-6,1,4,-5,0,6,9,7,5
4,7,3,-6,1,4,-5,0,6,9,7,4
4,7,3,-6,1,4,-5,0,6,8,6,4
4,7,3,-5,0,4,-5,0,6,8,6,4
4,7,3,-5,0,4,-5,0,5,8,6,3
4,7,3,-5,0,4,-4,0,5,8,6,3
4,7,3,-5,0,4,-4,0,5,8,5,3
4,6,3,-5,0,4,-4,0,5,8,5,3
3,6,3,-5,0,4,-4,0,5,8,5,3
3,6,3,-4,0,4,-3,0,6,8,5,3
3,6,3,-4,0,4,-3,0,6,8,5,3
3,6,3,-4,0,4,-3,0,6,7,5,2
3,6,3,-4,0,4,-3,0,6,7,4,2
3,5,3,-4,0,4,-3,0,6,7,4,1
3,5,3,-4,0,4,-3,0,6,7,4,1
2,5,3,-4,0,3,-2,0,7,7,4,1
2,5,3,-3,0,3,-2,0,7,6,4,1
2,5,3,-3,0,3,-2,0,7,6,4,1
2,5,3,-3,0,3,-2,0,7,6,3,1
2,4,2,-3,0,3,-2,0,7,6,3,0
2,4,2,-3,0,3,-2,0,7,6,3,0
1,4,2,-3,0,3,-2,0,7,6,3,0
1,4,2,-2,0,3,-2,0,8,6,3,0
1,4,2,-2,0,3,-2,1,8,6,3,0
1,4,2,-2,0,2,-2,1,8,5,2,0
1,3,2,-2,0,2,-2,1,8,5,2,0
1,3,2,-2,0,2,-1,1,8,5,1,0
1,3,2,-2,0,2,-1,1,8,4,1,-1
1,2,1,-2,0,1,0,1,8,4,1,-1
1,2,1,-1,0,1,0,1,8,4,1,-1
1,2,1,-1,0,1,0,1,8,3,1,-1
0,2,1,-1,0,0,0,1,8,3,0,-1
0,2,1,-1,0,0,0,1,7,3,0,-2
0,2,1,-1,0,0,0,1,7,2,0,-2
0,1,1,-1,0,0,0,1,7,2,0,-2
0,1,1,-1,0,0,0,1,6,2,-1,-2
0,0,1,-1,0,0,0,1,6,1,-1,-2
0,0,0,-1,0,0,0,1,6,1,-1,-3
0,0,0,0,0,0,0,1,5,1,-2,-3
0,0,0,0,0,-1,0,1,5,1,-2,-3
0,0,0,0,0,-1,0,1,4,0,-2,-3
0,0,0,0,0,-1,0,1,4,0,-2,-3
0,0,0,0,0,-1,0,1,4,0,-2,-3
0,-1,0,1,0,-1,0,1,4,0,-2,-3
0,-1,0,1,0,-1,0,1,4,0,-3,-3
0,-1,0,1,0,-1,1,1,3,-1,-3,-3
0,-1,0,1,0,-1,1,1,3,-1,-3,-3
-1,-1,0,1,0,-1,1,1,3,-2,-3,-3
-1,-1,0,1,0,-2,1,2,2,-2,-3,-4
-1,-1,0,1,0,-2,1,2,2,-3,-3,-4
-1,-2,0,1,0,-2,1,2,1,-3,-4,-5
-1,-2,0,1,0,-2,1,2,1,-3,-4,-5
-1,-2,0,2,0,-2,2,2,1,-3,-4,-5
-1,-2,0,2,0,-2,2,2,0,-3,-5,-5
-1,-2,0,2,0,-2,2,2,0,-3,-5,-5
-1,-2,0,2,0,-2,2,2,0,-3,-5,-5
-1,-2,0,2,0,-2,2,2,0,-4,-5,-6
-1,-2,-1,2,0,-2,2,2,0,-4,-6,-6
-1,-2,-1,2,0,-2,2,2,0,-5,-6,-6
-1,-2,-1,2,0,-2,2,2,0,-5,-6,-6
-1,-2,-1,2,0,-2,2,2,0,-5,-6,-6
-1,-2,-1,2,0,-2,2,2,-1,-5,-6,-6
-1,-3,-1,2,0,-2,2,2,-1,-5,-7,-6
-2,-3,-1,2,0,-2,2,2,-1,-5,-7,-6
-2,-3,-1,3,0,-2,2,2,-1,-5,-7,-6
-2,-3,-1,3,0,-3,2,2,-2,-5,-7,-6
-2,-3,-1,3,0,-3,2,2,-2,-5,-7,-7
-2,-4,-1,3,0,-3,3,2,-2,-6,-7,-7
-2,-4,-1,3,0,-3,3,2,-2,-6,-7,-7
-2,-4,-1,3,0,-3,3,2,-2,-6,-7,-7
-2,-4,-1,3,0,-3,3,2,-3,-6,-7,-7
-2,-5,-1,3,0,-3,3,2,-3,-6,-8,-7
-2,-5,-1,3,0,-3,3,2,-3,-6,-8,-7
-3,-5,-2,3,0,-4,3,2,-4,-6,-8,-7
-3,-5,-2,3,0,-4,3,2,-4,-7,-8,-7
-3,-5,-2,3,0,-4,3,2,-5,-7,-9,-8
-3,-5,-2,3,0,-4,3,2,-5,-8,-9,-8
-3,-6,-2,4,0,-4,3,2,-6,-9,-9,-8
-4,-6,-2,4,0,-4,4,2,-6,-9,-10,-9
-4,-7,-2,5,0,-5,4,2,-7,-9,-10,-9
-4,-7,-2,5,0,-5,4,2,-7,-9,-10,-9
-4,-8,-2,5,0,-6,5,2,-8,-9,-10,-10
-4,-8,-3,5,0,-6,5,2,-8,-10,-10,-10
-4,-8,-3,5,0,-7,5,2,-8,-10,-10,-10
-4,-8,-4,5,0,-7,5,2,-8,-10,-10,-10
-4,-8,-4,5,0,-7,5,2,-8,-11,-10,-10
-4,-9,-4,6,0,-7,5,2,-9,-11,-11,-10
-4,-9,-4,6,0,-7,5,2,-9,-11,-11,-10
-4,-9,-4,6,0,-7,5,1,-9,-11,-11,-10
-5,-9,-4,6,0,-7,5,1,-9,-11,-11,-10
-5,-8,-3,6,0,-6,5,0,-10,-11,-11,-10
-5,-8,-3,6,0,-6,4,0,-10,-11,-11,-10
-5,-8,-3,6,0,-6,4,0,-10,-11,-11,-10
-5,-8,-3,6,0,-6,4,0,-10,-11,-11,-10
-5,-8,-3,6,0,-6,4,0,-10,-11,-11,-10
-5,-7,-2,5,0,-5,4,0,-10,-11,-11,-10
-5,-7,-2,5,0,-5,4,0,-10,-11,-11,-10
-5,-6,-1,5,-1,-4,4,0,-10,-11,-11,-10
-5,-6,-1,5,-1,-4,4,0,-10,-11,-11,-10
-5,-6,-1,5,-1,-4,4,-1,-10,-12,-11,-10
-5,-6,-1,5,-1,-4,4,-1,-10,-12,-11,-10
-5,-6,-1,5,-1,-5,4,-1,-11,-12,-11,-10
-5,-7,-2,5,0,-5,4,-1,-11,-12,-11,-10
-5,-7,-2,5,0,-5,4,-1,-11,-12,-11,-10
-5,-8,-3,5,0,-6,4,0,-11,-12,-11,-10
-5,-8,-3,5,0,-6,4,0,-11,-12,-11,-10
-4,-8,-4,5,0,-6,4,0,-11,-12,-11,-9
-4,-8,-4,6,0,-7,4,0,-11,-12,-11,-9
-4,-8,-4,6,1,-7,4,0,-11,-12,-11,-9
-4,-8,-4,6,1,-7,4,0,-11,-12,-11,-9
-4,-8,-4,6,1,-7,4,0,-10,-12,-11,-9
-4,-8,-4,6,1,-7,4,0,-10,-12,-11,-9
-4,-8,-4,6,1,-7,4,1,-9,-12,-11,-10
-4,-9,-4,6,1,-8,5,1,-9,-12,-11,-10
-4,-9,-4,6,0,-8,5,1,-9,-12,-11,-10
-5,-9,-4,6,0,-8,5,1,-9,-12,-11,-10
-5,-9,-4,6,0,-8,5,1,-9,-12,-11,-10
-5,-9,-4,6,0,-8,6,1,-9,-12,-11,-10
-5,-9,-4,7,0,-8,6,1,-9,-12,-11,-10
-5,-9,-4,7,0,-8,6,1,-9,-12,-11,-10
-5,-9,-4,7,0,-8,6,1,-9,-12,-11,-10
-5,-9,-4,7,0,-8,6,1,-9,-12,-11,-10
-5,-9,-4,7,0,-8,6,1,-9,-12,-11,-10
-5,-9,-4,7,0,-8,6,1,-9,-12,-11,-10
-5,-9,-4,7,0,-7,6,1,-9,-12,-11,-10
-5,-9,-3,7,0,-7,6,1,-9,-12,-11,-10
-5,-9,-3,6,0,-7,6,1,-9,-12,-11,-10
-5,-9,-3,6,0,-7,6,1,-9,-12,-11,-10
-5,-9,-3,6,0,-7,6,1,-8,-12,-11,-10
-5,-9,-4,6,0,-8,6,1,-7,-12,-11,-10
-5,-10,-5,7,0,-8,6,2,-6,-12,-11,-10
-4,-11,-6,7,1,-10,7,4,-3,-12,-11,-11
-4,-13,-9,7,3,-12,8,8,0,-12,-12,-12
-3,-15,-13,8,6,-14,9,12,6,-13,-14,-14
-1,-18,-16,8,8,-17,11,16,12,-13,-15,-16
0,-19,-19,9,9,-20,12,21,20,-13,-16,-18
1,-19,-20,9,11,-21,12,24,29,-12,-16,-19
2,-18,-20,8,11,-20,12,27,39,-9,-15,-20
3,-16,-19,6,11,-18,11,28,49,-5,-13,-19
4,-12,-17,4,11,-15,10,28,61,2,-9,-17
6,-6,-12,0,10,-10,7,27,73,11,-3,-12
8,2,-6,-5,8,-2,3,23,82,22,6,-5
10,13,3,-12,5,6,-2,17,88,35,17,3
13,25,13,-19,1,17,-8,9,91,51,30,15
16,38,23,-27,-2,29,-16,-1,91,68,48,30
20,51,32,-36,-5,40,-24,-12,86,88,68,49
24,65,40,-44,-7,51,-33,-24,78,108,91,69
28,77,48,-52,-9,62,-41,-36,69,126,113,90
32,88,56,-60,-11,71,-49,-46,60,140,131,108
34,97,63,-65,-13,79,-54,-55,49,147,143,122
33,101,68,-67,-16,84,-57,-61,38,145,146,128
32,100,68,-66,-17,83,-57,-64,29,134,141,127
29,94,65,-62,-17,79,-55,-64,17,116,129,121
26,87,61,-57,-17,73,-52,-64,-1,92,112,112
23,80,58,-52,-17,68,-48,-63,-22,68,92,101
19,74,56,-46,-18,64,-44,-61,-40,45,73,89
15,66,52,-40,-17,58,-39,-57,-52,26,56,75
11,56,45,-33,-16,50,-33,-50,-57,11,39,60
7,44,37,-26,-13,40,-25,-41,-56,0,24,45
4,32,28,-18,-11,29,-18,-30,-49,-7,12,31
2,22,21,-12,-9,20,-11,-21,-42,-12,4,19
0,13,15,-6,-8,13,-6,-14,-36,-15,-3,10
-3,6,10,-1,-7,7,-1,-8,-32,-19,-9,1
-6,1,7,2,-6,2,3,-3,-30,-22,-14,-5
