leadI,leadII,leadIII,leadaVR,leadaVL,leadaVF,leadV1,leadV2,leadV3,leadV4,leadV5,leadV6
-4,-1,2,2,-3,0,13,22,12,0,-5,-4
-9,-3,7,6,-8,2,33,57,32,-1,-12,-11
-12,-2,10,7,-11,3,43,77,45,0,-15,-14
-12,-1,11,6,-12,5,48,88,53,1,-17,-16
-12,0,12,6,-13,6,48,94,58,2,-17,-17
-12,1,13,5,-13,7,47,96,61,4,-17,-17
-12,2,15,4,-14,8,43,96,64,6,-15,-16
-12,4,16,4,-14,10,39,95,66,8,-13,-14
-12,6,18,3,-15,11,36,93,68,11,-11,-12
-10,8,19,1,-15,13,32,90,69,14,-8,-9
-8,10,19,-1,-14,14,28,86,69,16,-7,-8
-7,11,19,-2,-13,15,24,82,69,17,-5,-6
-7,12,19,-2,-13,15,20,78,69,19,-3,-4
-6,12,18,-3,-13,15,16,74,68,21,-1,-2
-4,13,18,-4,-11,15,12,70,67,22,1,-1
-3,13,17,-5,-11,15,8,65,66,24,3,1
-3,13,17,-5,-10,15,5,60,65,26,5,4
-2,14,16,-6,-9,15,2,55,63,28,8,6
-1,14,16,-6,-8,15,-1,50,62,30,10,9
0,15,16,-7,-8,15,-4,45,60,32,13,11
2,16,14,-9,-6,15,-7,40,57,33,15,13
6,17,12,-11,-3,14,-11,34,54,33,16,15
10,18,9,-14,0,13,-14,28,51,33,17,16
12,18,8,-15,2,13,-17,23,48,34,19,17
12,18,7,-15,2,13,-20,17,44,34,20,19
12,18,6,-15,3,12,-22,12,40,34,21,20
13,18,5,-16,4,11,-25,5,36,33,22,22
14,18,4,-16,5,10,-28,0,32,32,23,23
14,18,3,-16,5,10,-30,-6,27,31,24,24
15,17,1,-16,6,9,-33,-12,22,29,24,24
16,16,0,-16,8,8,-35,-17,17,27,23,24
17,15,-2,-16,9,7,-37,-22,13,25,23,24
17,15,-3,-16,9,6,-39,-27,9,24,23,25
17,14,-3,-15,10,5,-40,-31,5,22,23,25
17,14,-3,-15,10,5,-41,-35,2,21,23,26
18,14,-3,-15,11,5,-42,-39,-1,19,23,26
18,13,-4,-15,11,4,-43,-42,-5,18,22,26
18,13,-5,-15,11,3,-44,-46,-8,16,22,25
18,12,-6,-15,12,2,-45,-49,-12,13,21,25
18,11,-7,-15,13,1,-46,-52,-15,11,20,24
18,10,-8,-14,13,0,-46,-55,-18,9,19,23
17,9,-8,-13,12,0,-46,-57,-21,8,18,23
16,8,-8,-11,12,0,-47,-59,-23,6,17,22
15,6,-9,-11,12,-2,-47,-61,-25,5,16,22
15,5,-9,-10,13,-3,-47,-62,-27,4,15,21
15,5,-9,-10,12,-3,-47,-64,-29,2,14,21
14,4,-9,-9,12,-3,-47,-65,-31,1,14,20
12,3,-9,-8,11,-3,-47,-66,-33,0,13,19
10,2,-9,-6,9,-3,-47,-67,-34,-1,13,19
8,1,-8,-5,8,-3,-47,-67,-35,-2,12,19
9,0,-9,-4,9,-4,-47,-68,-36,-2,11,18
11,0,-11,-5,11,-5,-47,-70,-38,-4,10,17
12,0,-13,-6,13,-7,-47,-71,-39,-5,9,16
12,-1,-13,-5,13,-8,-47,-71,-40,-6,8,16
12,-2,-13,-5,12,-8,-47,-72,-41,-7,7,15
12,-2,-14,-5,13,-9,-47,-72,-42,-8,7,15
12,-3,-15,-5,13,-9,-47,-72,-43,-9,6,14
12,-3,-15,-4,13,-10,-47,-72,-44,-10,6,14
11,-4,-15,-3,13,-10,-46,-72,-44,-10,6,13
10,-5,-15,-2,12,-10,-46,-72,-44,-11,5,13
8,-5,-14,-1,11,-10,-45,-72,-45,-11,5,12
7,-6,-13,0,10,-10,-44,-71,-45,-11,4,12
6,-6,-13,0,9,-10,-43,-71,-44,-11,4,12
6,-6,-12,0,9,-9,-41,-70,-44,-12,4,12
6,-6,-12,0,9,-9,-40,-70,-45,-12,4,11
6,-7,-13,1,9,-10,-39,-69,-45,-13,3,11
5,-8,-13,2,9,-11,-38,-69,-45,-13,3,11
3,-9,-12,3,7,-11,-37,-68,-45,-13,3,11
2,-9,-11,4,6,-11,-36,-67,-45,-13,3,11
2,-9,-12,4,7,-11,-35,-67,-45,-14,2,10
3,-9,-13,4,8,-12,-34,-67,-46,-15,0,9
4,-10,-14,3,9,-13,-33,-67,-46,-15,0,8
5,-10,-15,3,10,-13,-32,-67,-47,-16,-1,7
6,-10,-16,2,11,-13,-30,-66,-47,-16,-1,7
6,-10,-15,2,10,-13,-28,-65,-46,-16,-1,7
6,-9,-14,2,9,-11,-26,-64,-45,-16,-1,7
5,-8,-12,2,8,-10,-23,-63,-45,-16,0,7
3,-7,-10,2,6,-9,-20,-62,-44,-16,0,8
2,-7,-9,2,5,-9,-18,-61,-43,-15,0,8
2,-7,-9,2,5,-9,-18,-61,-44,-16,-1,8
2,-7,-9,2,5,-8,-19,-61,-44,-16,-1,7
2,-6,-9,2,5,-8,-22,-62,-44,-16,-1,7
2,-6,-8,2,5,-7,-25,-62,-43,-16,0,8
3,-5,-8,1,5,-7,-28,-63,-43,-16,0,8
4,-4,-8,0,6,-7,-30,-63,-43,-16,0,9
4,-3,-7,0,6,-6,-31,-63,-43,-16,0,9
4,-1,-6,-1,5,-4,-31,-63,-42,-15,0,9
3,0,-4,-1,4,-3,-32,-62,-40,-14,1,10
2,0,-2,-1,3,-1,-33,-60,-39,-13,2,10
2,0,-1,-1,2,0,-34,-59,-37,-12,2,11
1,1,0,-1,0,0,-34,-58,-36,-11,3,11
0,0,0,0,0,0,-35,-57,-36,-10,3,11
1,0,0,0,0,-1,-35,-56,-35,-10,3,11
2,0,-2,-1,2,-1,-35,-56,-35,-11,2,10
2,0,-2,-1,2,-1,-35,-55,-34,-10,3,11
2,0,-1,-1,2,-1,-34,-54,-33,-9,3,11
2,0,-1,-1,2,-1,-34,-54,-32,-9,3,12
2,0,-2,-1,2,-1,-33,-53,-32,-9,4,12
2,0,-2,-1,2,-2,-33,-53,-32,-9,4,12
2,-1,-3,-1,2,-2,-32,-52,-32,-9,4,12
3,-1,-5,-1,3,-3,-31,-52,-32,-9,3,11
4,-2,-6,0,4,-5,-31,-51,-32,-9,2,10
3,-4,-7,0,5,-6,-31,-51,-32,-10,2,9
2,-5,-7,2,4,-7,-30,-51,-31,-10,1,9
1,-6,-7,3,4,-7,-30,-51,-31,-10,1,9
1,-6,-8,2,4,-7,-29,-50,-31,-10,1,8
2,-6,-8,2,5,-7,-29,-50,-31,-10,0,8
2,-7,-8,2,5,-8,-28,-50,-31,-10,0,8
2,-8,-9,2,5,-9,-28,-49,-31,-10,0,8
2,-8,-9,3,5,-10,-28,-49,-31,-10,0,7
2,-9,-10,3,5,-10,-28,-49,-30,-10,0,7
1,-9,-9,4,4,-10,-27,-48,-30,-10,0,8
0,-9,-9,4,4,-10,-26,-47,-29,-9,0,8
-1,-9,-8,5,3,-10,-25,-47,-29,-9,0,7
-2,-9,-7,5,2,-9,-25,-46,-28,-9,0,7
-3,-9,-6,6,1,-8,-24,-45,-28,-8,1,8
-4,-9,-5,7,0,-8,-24,-45,-27,-8,1,8
-3,-9,-6,6,1,-9,-23,-44,-27,-8,0,7
-1,-9,-8,5,3,-9,-23,-44,-27,-9,0,7
0,-8,-8,4,4,-9,-22,-43,-27,-8,0,7
0,-8,-8,4,4,-9,-21,-43,-26,-8,1,7
0,-8,-8,4,4,-9,-21,-43,-26,-8,1,7
0,-9,-8,4,4,-9,-21,-43,-26,-8,0,7
0,-9,-8,4,4,-9,-21,-43,-26,-8,0,6
-1,-9,-8,5,3,-9,-20,-42,-26,-8,0,6
-2,-9,-7,6,2,-9,-20,-42,-25,-8,0,6
-2,-9,-7,6,2,-9,-20,-41,-25,-8,0,6
-1,-9,-8,5,3,-9,-20,-42,-26,-9,0,6
0,-9,-9,5,5,-9,-20,-42,-27,-9,-1,5
0,-9,-9,5,5,-9,-19,-42,-27,-9,-1,5
0,-9,-9,5,4,-9,-19,-42,-27,-9,-1,5
0,-9,-9,5,4,-9,-19,-41,-27,-9,-1,5
-1,-10,-9,6,4,-10,-19,-41,-27,-9,-2,5
-3,-11,-8,7,2,-10,-19,-41,-27,-9,-2,5
-5,-11,-7,9,1,-10,-18,-41,-27,-9,-2,5
-5,-12,-7,10,0,-10,-18,-41,-27,-10,-2,5
-6,-14,-7,11,0,-11,-18,-41,-27,-10,-3,4
-5,-14,-8,10,1,-11,-18,-41,-27,-11,-3,4
-2,-14,-11,8,4,-12,-18,-41,-28,-11,-3,3
0,-13,-13,6,6,-12,-18,-41,-28,-12,-4,3
1,-13,-14,6,7,-13,-18,-40,-28,-12,-4,3
1,-13,-14,6,7,-13,-18,-40,-28,-12,-4,2
0,-13,-13,7,6,-14,-17,-40,-28,-12,-4,2
0,-13,-13,7,6,-14,-17,-39,-27,-12,-4,2
-1,-13,-12,7,5,-13,-16,-38,-27,-12,-4,3
-1,-13,-12,7,5,-13,-14,-37,-27,-12,-4,3
-1,-13,-12,7,5,-12,-14,-37,-27,-12,-4,3
0,-12,-12,6,6,-12,-13,-37,-27,-12,-5,2
0,-12,-12,6,6,-12,-11,-36,-27,-12,-5,2
1,-11,-12,5,7,-12,-8,-32,-25,-11,-5,1
1,-10,-12,4,7,-11,-3,-25,-22,-10,-5,1
1,-8,-10,3,6,-10,3,-17,-18,-8,-4,2
1,-6,-7,3,4,-8,12,-7,-13,-6,-3,2
0,-6,-5,3,2,-6,21,0,-9,-3,-1,3
-1,-5,-3,4,1,-5,28,3,-6,-2,-1,3
-2,-5,-1,4,0,-3,32,0,-5,0,0,3
-3,-4,0,3,-1,-2,32,-9,-5,1,1,4
-2,-2,1,2,-1,0,25,-24,-8,2,3,5
0,0,2,0,-1,1,11,-48,-13,3,5,8
3,4,1,-3,1,2,-9,-80,-21,4,8,11
8,8,0,-8,4,3,-34,-118,-32,5,12,15
13,13,0,-13,6,5,-62,-157,-43,7,16,20
18,17,0,-17,8,7,-89,-194,-54,9,21,26
22,20,-1,-21,11,8,-113,-231,-67,11,26,31
27,22,-3,-25,14,9,-138,-268,-82,12,30,36
33,26,-7,-29,19,9,-167,-305,-96,14,36,42
39,29,-10,-34,24,9,-197,-340,-109,17,43,49
46,34,-13,-40,29,9,-227,-372,-121,22,52,58
55,39,-15,-46,35,10,-254,-403,-133,26,61,68
63,45,-17,-53,40,12,-277,-433,-144,31,70,77
71,52,-18,-61,45,15,-296,-461,-155,37,80,87
78,58,-19,-68,48,18,-312,-487,-166,42,89,96
84,63,-20,-74,52,20,-325,-507,-176,47,98,105
90,66,-23,-78,56,21,-334,-523,-184,51,105,112
95,68,-26,-82,60,21,-341,-536,-192,54,110,118
100,70,-29,-85,64,20,-344,-546,-199,55,115,123
104,72,-31,-87,67,20,-344,-553,-207,56,119,127
106,73,-32,-89,69,20,-342,-558,-217,55,123,131
107,73,-33,-90,70,19,-339,-562,-230,54,126,135
108,74,-34,-91,71,18,-335,-564,-242,53,130,140
109,73,-36,-91,72,18,-330,-566,-255,51,133,143
110,72,-38,-91,73,16,-325,-566,-268,47,135,146
110,69,-41,-89,75,13,-320,-566,-283,41,136,149
110,66,-44,-87,76,11,-316,-565,-297,35,136,151
110,65,-45,-87,78,9,-312,-564,-310,27,136,152
111,64,-46,-87,78,8,-308,-564,-324,19,136,153
110,63,-47,-86,78,7,-304,-565,-337,9,135,154
109,61,-47,-85,77,6,-299,-564,-350,-2,133,155
106,60,-46,-83,75,6,-294,-560,-360,-13,131,155
102,58,-44,-81,72,6,-287,-554,-368,-23,129,155
98,56,-42,-77,70,6,-280,-546,-373,-32,128,156
95,53,-42,-74,68,5,-273,-537,-376,-41,125,155
94,50,-44,-72,69,3,-267,-526,-376,-49,123,153
93,47,-46,-70,69,0,-259,-512,-372,-53,121,152
92,44,-47,-68,70,-2,-251,-495,-363,-52,121,151
91,41,-49,-66,70,-5,-242,-476,-349,-48,121,150
89,37,-51,-63,70,-8,-233,-457,-333,-42,121,149
88,34,-53,-61,70,-10,-224,-437,-315,-34,122,149
87,31,-55,-59,71,-12,-215,-417,-296,-25,123,148
84,28,-56,-56,70,-14,-204,-396,-277,-17,124,146
82,25,-57,-53,69,-16,-194,-372,-256,-8,125,145
81,23,-58,-51,69,-18,-183,-346,-234,2,128,145
80,22,-58,-51,69,-18,-173,-319,-211,13,131,145
79,21,-57,-50,68,-18,-163,-292,-189,22,134,145
79,21,-58,-50,68,-19,-153,-266,-168,30,135,144
78,19,-59,-49,69,-20,-142,-241,-150,35,133,142
77,17,-60,-47,69,-22,-131,-218,-134,36,129,137
74,13,-61,-44,68,-24,-120,-196,-122,35,122,132
70,8,-62,-39,66,-27,-109,-176,-111,32,113,124
65,1,-63,-33,64,-31,-97,-156,-102,27,103,114
59,-5,-63,-27,61,-34,-85,-137,-94,21,92,104
54,-11,-65,-21,59,-38,-74,-119,-87,14,79,93
49,-17,-66,-15,57,-42,-63,-103,-81,6,66,81
44,-23,-67,-10,55,-46,-52,-88,-76,-2,51,68
38,-28,-67,-5,52,-48,-42,-74,-70,-10,37,55
32,-32,-64,0,48,-48,-33,-63,-65,-18,25,43
26,-34,-61,4,44,-48,-24,-52,-60,-24,13,33
22,-36,-58,7,40,-47,-16,-43,-56,-30,3,23
19,-37,-56,9,38,-47,-10,-35,-54,-35,-6,13
17,-38,-54,11,35,-46,-5,-29,-52,-40,-15,5
13,-38,-51,13,32,-45,-1,-22,-49,-43,-22,-2
9,-38,-47,14,27,-43,4,-15,-44,-44,-26,-7
4,-36,-41,15,22,-39,9,-9,-38,-43,-28,-11
0,-35,-35,17,17,-35,13,-3,-33,-41,-30,-13
-3,-34,-30,18,12,-32,18,1,-28,-40,-31,-16
-6,-32,-25,19,9,-29,22,6,-24,-38,-31,-19
-8,-31,-21,20,6,-27,26,10,-21,-37,-32,-21
-9,-30,-19,20,5,-26,30,13,-19,-37,-33,-24
-10,-29,-18,21,4,-25,33,16,-17,-36,-34,-25
-11,-29,-17,21,3,-24,35,19,-15,-36,-35,-26
-11,-28,-16,20,2,-23,38,22,-13,-35,-35,-27
-12,-27,-15,20,0,-21,40,24,-11,-35,-35,-27
-14,-26,-12,20,-1,-19,42,26,-9,-34,-35,-27
-15,-24,-8,20,-4,-17,43,28,-7,-32,-34,-27
-17,-22,-3,20,-7,-14,42,29,-5,-31,-33,-26
-19,-21,0,20,-9,-11,40,29,-4,-30,-32,-26
-19,-19,1,20,-10,-10,38,30,-3,-29,-32,-26
-19,-18,1,19,-10,-9,36,31,-2,-29,-32,-26
-19,-17,1,19,-10,-8,34,32,-1,-28,-31,-26
-18,-16,2,17,-10,-7,33,32,0,-28,-31,-25
-17,-14,2,16,-10,-6,33,33,2,-27,-31,-25
-17,-13,3,16,-10,-5,33,34,4,-27,-30,-25
-17,-13,5,15,-11,-4,33,35,5,-26,-30,-25
-17,-12,6,15,-11,-4,32,37,6,-25,-29,-25
-18,-12,6,15,-12,-3,32,40,7,-23,-28,-25
-18,-12,6,16,-13,-3,33,42,9,-22,-27,-24
-18,-12,6,16,-12,-3,33,44,10,-21,-27,-24
-17,-12,4,15,-11,-4,33,46,12,-20,-27,-24
-16,-12,3,15,-10,-4,34,48,13,-20,-27,-24
-16,-13,2,15,-9,-5,34,49,14,-20,-27,-24
-16,-13,1,15,-9,-6,35,51,15,-19,-27,-24
-15,-14,1,15,-8,-6,36,53,16,-19,-27,-24
-14,-14,0,15,-7,-8,37,55,17,-19,-27,-25
-14,-15,-1,14,-6,-9,38,57,17,-18,-27,-25
-14,-15,-1,15,-6,-9,39,60,18,-18,-27,-25
-15,-16,-1,16,-7,-9,40,62,20,-18,-27,-25
-16,-16,-1,16,-8,-9,42,64,21,-17,-27,-25
-16,-17,0,17,-8,-9,43,66,23,-17,-27,-25
-17,-17,0,17,-9,-9,45,67,24,-17,-28,-26
-17,-18,0,18,-9,-9,46,69,24,-17,-28,-26
-17,-18,0,18,-8,-10,48,71,24,-17,-29,-27
-17,-18,-1,18,-8,-10,49,74,25,-17,-29,-27
-18,-19,-1,19,-8,-10,51,77,26,-17,-30,-28
-18,-20,-1,20,-9,-10,52,79,27,-18,-30,-29
-19,-19,-1,20,-9,-10,54,82,28,-18,-31,-29
-19,-19,0,20,-9,-10,56,84,30,-18,-31,-30
-19,-19,0,20,-9,-10,57,86,31,-18,-32,-31
-19,-19,0,20,-9,-10,59,88,31,-18,-33,-32
-20,-20,0,20,-10,-10,60,90,32,-19,-34,-33
-20,-20,0,20,-10,-11,62,93,32,-19,-35,-34
-19,-20,-1,20,-9,-11,63,96,33,-19,-36,-35
-18,-20,-2,19,-8,-11,65,99,35,-19,-36,-36
-19,-20,-1,20,-9,-11,66,101,36,-19,-37,-36
-20,-21,0,21,-10,-11,68,104,38,-19,-37,-37
-22,-21,0,22,-12,-11,70,106,40,-19,-38,-37
-22,-22,1,22,-12,-11,72,108,41,-19,-39,-38
-22,-22,0,22,-11,-11,72,110,42,-20,-40,-40
-21,-21,0,21,-11,-11,73,112,43,-20,-41,-41
-22,-21,1,22,-12,-10,75,116,45,-19,-42,-41
-23,-22,2,23,-13,-10,77,120,47,-19,-42,-42
-24,-22,3,24,-14,-9,78,123,49,-19,-42,-42
-26,-22,4,25,-16,-9,80,127,52,-18,-42,-43
-27,-22,5,25,-17,-9,81,130,54,-18,-42,-43
-28,-23,5,25,-17,-9,82,132,56,-18,-43,-44
-28,-23,6,26,-17,-9,83,135,58,-18,-44,-45
-28,-23,6,26,-17,-9,84,138,60,-17,-44,-46
-29,-23,6,27,-17,-8,85,142,62,-16,-45,-47
-29,-23,6,27,-18,-8,87,146,64,-15,-45,-47
-29,-23,6,27,-18,-8,88,150,67,-14,-45,-47
-29,-23,7,27,-18,-8,89,153,70,-14,-45,-47
-30,-24,7,27,-19,-8,90,156,73,-13,-45,-48
-30,-24,7,27,-19,-8,91,158,76,-12,-45,-48
-30,-23,7,27,-19,-8,92,160,78,-10,-45,-49
-30,-23,7,27,-19,-7,93,162,81,-9,-45,-49
-30,-23,7,27,-19,-7,93,164,83,-7,-45,-49
-30,-23,7,26,-19,-7,93,167,87,-5,-44,-49
-29,-22,7,25,-18,-7,93,170,90,-3,-43,-49
-28,-21,7,24,-17,-7,92,172,93,-1,-42,-49
-27,-20,7,24,-17,-7,92,173,97,1,-41,-49
-27,-20,7,23,-18,-6,92,174,99,3,-40,-48
-27,-19,8,23,-18,-5,92,175,102,5,-38,-47
-25,-17,8,21,-17,-4,91,175,104,8,-36,-46
-23,-14,10,19,-17,-2,90,175,107,12,-33,-44
-23,-11,13,17,-18,1,90,176,110,17,-30,-42
-24,-9,15,16,-19,3,90,176,113,21,-27,-40
-23,-7,16,15,-19,4,89,175,115,23,-25,-38
-22,-6,17,14,-19,5,88,174,117,26,-23,-37
-22,-4,18,13,-20,7,87,172,119,29,-20,-35
-21,-1,20,11,-21,9,85,169,119,32,-17,-32
-18,1,20,9,-20,11,82,166,119,34,-14,-30
-16,3,20,6,-18,12,78,161,119,36,-12,-28
-14,5,20,4,-17,13,74,157,118,38,-9,-25
-13,7,21,3,-17,14,69,152,118,40,-7,-23
-12,9,22,2,-17,15,63,146,117,42,-4,-20
-10,11,22,0,-16,16,56,139,115,43,-2,-18
-8,13,22,-1,-15,17,50,133,113,45,0,-15
-7,15,23,-3,-16,19,45,127,111,46,3,-12
-6,17,23,-5,-16,20,41,121,108,48,6,-10
-5,18,23,-6,-15,21,37,115,105,49,8,-7
-5,19,24,-7,-15,22,33,109,102,50,10,-5
-5,20,25,-7,-15,22,29,103,99,50,12,-3
-3,20,24,-8,-13,21,24,97,95,50,13,-2
0,20,20,-10,-9,20,19,90,91,49,14,-1
3,20,17,-11,-7,19,14,83,86,48,15,0
4,20,16,-12,-6,18,11,77,82,47,16,2
5,20,15,-12,-5,18,8,71,78,46,17,3
6,19,13,-12,-4,16,6,65,73,44,17,4
6,17,12,-12,-3,15,3,60,68,42,17,5
6,16,11,-11,-3,13,1,54,63,40,17,5
6,15,10,-11,-2,12,-1,49,58,38,16,5
8,14,8,-10,0,10,-3,44,53,35,15,5
8,13,6,-10,1,9,-4,39,49,33,15,5
8,12,5,-9,1,8,-5,34,44,30,14,5
7,11,4,-9,1,7,-7,30,40,28,13,5
7,10,3,-9,1,6,-8,26,35,25,12,4
7,10,2,-9,2,6,-9,22,31,22,11,4
6,9,2,-8,2,5,-10,19,28,21,10,4
6,7,1,-7,2,4,-10,16,24,19,9,3
6,6,0,-6,3,3,-11,13,21,16,7,3
7,5,-2,-5,4,2,-12,10,18,14,6,2
7,3,-3,-4,5,0,-13,7,15,11,4,1
6,2,-4,-3,5,-1,-13,4,12,9,3,1
5,0,-5,-2,5,-2,-14,2,9,6,1,0
5,-1,-6,-2,5,-4,-14,0,6,4,0,-1
5,-2,-7,-1,5,-5,-14,-1,3,3,-1,-2
4,-3,-7,0,5,-6,-15,-3,1,1,-2,-3
3,-5,-7,1,4,-7,-15,-4,0,0,-3,-3
1,-6,-7,2,4,-7,-15,-5,-2,-1,-3,-4
0,-7,-6,3,3,-7,-15,-6,-3,-2,-4,-4
0,-7,-7,4,3,-8,-14,-7,-5,-4,-5,-5
0,-8,-8,4,4,-9,-14,-9,-6,-5,-6,-5
0,-9,-9,4,4,-10,-15,-10,-8,-7,-7,-6
0,-10,-10,5,5,-10,-15,-12,-10,-8,-8,-7
0,-11,-10,6,5,-11,-15,-13,-12,-10,-9,-8
-1,-12,-10,7,4,-11,-15,-13,-13,-11,-10,-9
-2,-13,-10,8,4,-12,-15,-14,-14,-13,-11,-9
-1,-14,-12,8,5,-13,-15,-15,-16,-14,-12,-10
-1,-16,-14,9,6,-15,-15,-16,-17,-16,-13,-11
-2,-17,-15,9,7,-16,-15,-17,-18,-17,-14,-12
-2,-18,-16,10,7,-17,-14,-17,-19,-18,-15,-13
-2,-19,-16,10,7,-18,-14,-17,-20,-18,-16,-13
-1,-19,-17,10,7,-18,-13,-17,-20,-19,-16,-13
-1,-19,-17,10,8,-18,-13,-17,-21,-19,-16,-14
0,-19,-18,10,8,-19,-13,-17,-21,-20,-17,-14
0,-19,-17,10,8,-18,-12,-17,-21,-20,-17,-14
-1,-18,-15,10,7,-17,-10,-15,-20,-19,-16,-14
-3,-17,-13,10,5,-15,-8,-14,-19,-18,-15,-13
-2,-16,-12,9,4,-14,-7,-13,-18,-17,-14,-12
-1,-15,-12,8,5,-14,-6,-13,-18,-17,-14,-12
-1,-14,-12,8,4,-13,-6,-13,-18,-16,-14,-12
-3,-14,-10,8,3,-12,-4,-13,-17,-16,-13,-12
-4,-14,-9,9,2,-12,-3,-12,-16,-15,-13,-12
-4,-14,-9,9,2,-12,-2,-12,-16,-15,-13,-12
-4,-13,-8,8,2,-11,0,-11,-15,-15,-13,-12
-4,-12,-7,8,2,-10,1,-10,-15,-14,-13,-12
-4,-10,-6,7,1,-8,4,-9,-14,-13,-12,-11
-4,-8,-4,6,0,-6,6,-8,-12,-12,-11,-11
-4,-7,-2,6,-1,-5,8,-7,-11,-12,-10,-10
-4,-5,-1,5,-1,-3,9,-6,-10,-11,-9,-10
-3,-3,0,3,-2,-1,10,-5,-9,-10,-8,-9
-2,-1,1,2,-2,0,9,-4,-8,-9,-7,-8
-1,0,2,0,-2,1,7,-5,-7,-8,-7,-7
-1,1,2,0,-2,2,6,-5,-7,-7,-7,-7
-1,2,3,0,-2,2,5,-5,-6,-7,-6,-7
0,2,3,-1,-2,3,4,-5,-6,-6,-6,-7
0,3,3,-2,-2,3,3,-5,-5,-6,-6,-6
0,4,5,-2,-2,4,2,-5,-5,-6,-5,-6
-1,4,6,-1,-3,5,2,-5,-4,-5,-5,-5
-1,5,7,-1,-4,6,2,-5,-3,-4,-4,-5
-1,5,8,-2,-4,6,1,-4,-2,-4,-4,-5
-1,6,8,-2,-4,7,0,-4,-2,-3,-4,-4
-1,6,8,-2,-5,7,0,-3,-1,-3,-4,-4
-1,6,8,-2,-4,7,0,-3,-1,-3,-4,-4
0,6,7,-2,-4,7,0,-3,-1,-3,-4,-5
0,6,7,-2,-3,6,-1,-3,-1,-3,-4,-5
0,6,6,-2,-3,6,-1,-2,0,-2,-4,-5
0,5,5,-3,-2,5,-2,-2,0,-2,-4,-5
1,5,3,-3,0,4,-2,-2,0,-3,-5,-5
2,4,1,-3,0,3,-3,-1,0,-3,-5,-6
2,3,1,-2,0,2,-3,-1,0,-3,-5,-6
2,2,0,-2,0,1,-4,-1,0,-3,-5,-6
2,1,-1,-1,1,0,-4,0,0,-3,-6,-6
2,0,-2,-1,2,-1,-4,0,0,-3,-6,-7
2,-1,-3,0,3,-2,-3,0,0,-3,-7,-7
1,-2,-3,0,3,-2,-3,1,0,-3,-7,-7
1,-2,-4,0,3,-3,-2,1,0,-3,-7,-7
1,-3,-4,1,2,-3,-1,2,0,-3,-7,-7
1,-4,-4,1,2,-4,0,2,0,-3,-7,-7
1,-5,-5,2,3,-5,0,2,0,-3,-8,-8
1,-6,-7,2,4,-6,0,2,0,-4,-8,-9
2,-6,-7,2,4,-7,1,2,0,-4,-9,-10
1,-7,-7,2,4,-7,1,2,0,-5,-9,-10
1,-7,-8,3,4,-8,2,2,-1,-5,-9,-10
1,-8,-9,3,5,-9,2,2,-1,-6,-10,-10
1,-8,-10,3,6,-10,1,1,-2,-6,-11,-11
1,-9,-11,3,6,-11,1,1,-2,-7,-11,-11
0,-10,-11,4,6,-11,1,1,-2,-7,-12,-11
0,-10,-11,4,6,-11,1,1,-2,-7,-12,-11
0,-10,-11,4,6,-11,1,1,-2,-7,-12,-11
0,-10,-10,5,5,-10,1,1,-2,-7,-12,-11
-1,-10,-9,5,4,-10,2,1,-2,-7,-11,-11
-1,-10,-9,5,4,-10,3,1,-2,-7,-11,-11
-1,-10,-10,5,5,-10,3,1,-3,-7,-11,-11
-1,-11,-10,6,5,-10,4,1,-3,-7,-11,-11
-1,-11,-10,7,4,-10,4,1,-3,-7,-11,-11
-1,-12,-10,7,4,-11,4,1,-3,-7,-11,-11
-1,-12,-11,7,5,-12,5,1,-4,-8,-12,-11
-1,-13,-11,8,5,-13,5,1,-4,-8,-12,-11
-3,-14,-11,9,4,-13,5,1,-4,-9,-12,-12
-3,-14,-11,9,4,-13,5,1,-5,-9,-12,-12
-2,-14,-12,9,4,-13,5,1,-5,-9,-13,-12
-3,-14,-11,9,4,-13,5,0,-6,-10,-13,-12
-3,-15,-11,10,4,-13,4,0,-6,-10,-13,-12
-3,-14,-11,9,4,-13,4,0,-6,-10,-13,-12
-1,-13,-12,8,5,-13,4,-1,-6,-10,-13,-12
-1,-12,-11,7,5,-12,4,0,-6,-10,-13,-12
-2,-11,-9,6,3,-10,4,0,-5,-8,-12,-11
-2,-10,-7,6,2,-9,4,0,-4,-8,-11,-10
-1,-9,-7,5,3,-9,4,0,-4,-8,-11,-10
0,-8,-8,3,5,-8,4,-1,-4,-8,-11,-10
1,-7,-9,3,5,-8,4,-1,-4,-8,-11,-10
1,-8,-9,3,5,-8,4,-2,-4,-8,-11,-10
0,-8,-9,4,4,-8,4,-2,-5,-9,-11,-10
0,-8,-9,4,4,-8,4,-2,-5,-9,-11,-10
0,-8,-8,5,3,-8,4,-2,-6,-9,-11,-10
-2,-9,-7,5,2,-8,4,-2,-6,-9,-11,-10
-3,-9,-6,6,1,-8,4,-2,-6,-9,-11,-10
-4,-9,-5,7,0,-7,4,-2,-6,-9,-11,-10
-5,-9,-4,7,0,-7,4,-2,-5,-9,-11,-10
-6,-9,-3,7,-2,-6,4,-1,-5,-8,-10,-9
-6,-9,-2,8,-2,-5,4,-1,-4,-7,-9,-9
-4,-8,-3,7,-1,-5,4,-1,-4,-7,-9,-9
-2,-7,-3,5,0,-5,4,-1,-4,-7,-9,-9
-2,-6,-3,5,0,-5,5,0,-4,-7,-9,-9
-3,-5,-2,4,0,-4,5,0,-3,-6,-9,-8
-2,-5,-2,3,0,-4,6,0,-3,-6,-9,-8
-1,-4,-3,2,0,-4,6,0,-3,-6,-9,-8
-1,-4,-3,2,1,-4,6,1,-3,-6,-8,-8
-1,-3,-2,2,1,-3,7,1,-2,-5,-8,-7
-1,-2,-1,2,0,-2,8,2,-2,-5,-7,-7
-1,-2,0,2,-1,-1,8,2,-1,-5,-7,-7
-2,-1,0,2,-2,-1,9,3,-1,-5,-7,-7
-2,-1,1,2,-2,0,10,3,0,-5,-7,-7
-2,0,1,1,-2,0,11,3,0,-5,-7,-7
-2,0,2,1,-2,1,13,3,0,-4,-7,-6
-3,1,4,1,-3,2,14,4,0,-3,-6,-6
-4,1,5,1,-4,3,15,4,1,-3,-6,-5
-4,2,6,1,-5,4,16,5,1,-3,-6,-5
-3,2,6,0,-5,5,16,5,1,-3,-6,-5
-3,2,6,0,-4,4,16,4,1,-3,-6,-5
-3,2,5,0,-4,4,14,4,0,-3,-6,-5
-3,2,4,0,-4,3,11,3,0,-3,-6,-5
-3,2,4,0,-4,3,7,2,0,-3,-6,-5
-2,3,4,0,-3,4,4,2,0,-3,-6,-5
-2,3,4,-1,-3,4,3,2,0,-3,-6,-5
-1,4,5,-1,-3,4,2,3,0,-3,-6,-5
-1,4,5,-1,-3,5,4,7,2,-3,-6,-5
-1,5,7,-1,-4,6,7,14,5,-2,-5,-5
-2,6,8,-1,-5,7,13,22,9,0,-4,-5
-2,6,9,-2,-5,7,19,31,13,2,-3,-4
-2,6,9,-2,-5,7,25,36,17,3,-3,-4
-2,6,7,-2,-4,6,29,35,18,4,-3,-4
-1,6,7,-2,-3,6,30,29,18,5,-2,-4
0,7,6,-2,-3,6,28,17,17,6,-1,-3
1,7,5,-4,-2,6,20,0,13,7,0,-2
3,8,4,-5,0,6,6,-26,8,9,2,0
7,10,3,-8,1,7,-13,-59,0,11,6,3
10,13,3,-12,3,9,-36,-96,-8,14,11,8
14,17,3,-15,5,10,-61,-133,-19,16,16,13
17,19,2,-18,7,11,-84,-169,-32,17,21,18
20,20,0,-20,10,10,-105,-204,-46,18,25,23
23,21,-3,-21,13,8,-128,-240,-62,18,29,28
28,21,-8,-24,18,6,-155,-277,-77,19,34,34
36,23,-13,-28,24,5,-185,-311,-92,20,39,40
45,25,-19,-34,31,3,-212,-344,-107,22,45,47
53,28,-24,-40,38,2,-236,-375,-122,24,52,54
60,32,-27,-46,43,3,-256,-404,-135,27,59,62
65,37,-28,-51,46,5,-274,-431,-147,31,68,70
70,42,-28,-57,49,7,-288,-455,-159,35,76,79
76,46,-30,-61,52,8,-299,-474,-170,39,83,86
82,49,-33,-65,57,8,-307,-489,-178,41,89,93
87,52,-35,-69,61,8,-313,-501,-185,43,94,99
91,55,-36,-73,63,9,-316,-510,-192,45,99,104
94,57,-36,-75,65,10,-315,-516,-200,46,104,109
96,58,-36,-77,66,11,-313,-521,-211,46,108,113
98,60,-38,-79,68,11,-311,-525,-223,45,111,118
100,61,-39,-80,69,10,-307,-527,-234,45,115,122
100,61,-40,-80,70,10,-303,-528,-245,44,118,126
100,60,-40,-80,70,9,-298,-528,-258,40,120,129
100,59,-42,-79,71,8,-293,-527,-271,35,121,132
101,57,-43,-79,72,6,-289,-526,-283,28,122,133
101,56,-44,-78,72,6,-285,-525,-295,21,123,135
100,56,-43,-78,71,6,-281,-525,-307,13,124,137
98,55,-43,-77,71,6,-278,-525,-319,3,123,138
96,54,-43,-75,70,5,-273,-524,-330,-6,121,138
94,53,-41,-73,68,5,-268,-520,-339,-15,119,139
91,52,-40,-71,66,5,-262,-514,-345,-24,117,139
89,50,-39,-69,64,5,-255,-506,-348,-33,115,139
86,47,-39,-66,62,4,-249,-495,-349,-41,113,138
83,44,-38,-63,60,3,-242,-483,-346,-46,112,137
80,42,-37,-61,58,2,-234,-467,-339,-47,112,137
77,39,-37,-59,57,1,-226,-449,-327,-44,112,136
76,37,-39,-57,57,-1,-217,-429,-312,-39,112,136
74,35,-39,-55,57,-2,-207,-409,-295,-32,114,136
73,34,-40,-53,56,-3,-197,-389,-278,-24,115,136
73,32,-41,-52,57,-5,-187,-369,-261,-17,116,135
73,30,-43,-51,58,-7,-177,-348,-243,-10,116,133
72,27,-44,-49,58,-8,-167,-324,-223,-3,117,132
71,26,-45,-49,58,-9,-156,-298,-202,6,120,132
71,25,-45,-48,58,-9,-146,-271,-180,15,122,132
70,25,-45,-48,57,-9,-137,-246,-160,24,124,133
69,24,-45,-47,57,-9,-127,-220,-141,31,125,132
68,23,-45,-45,56,-10,-116,-195,-124,36,124,130
65,20,-45,-42,55,-12,-105,-173,-110,37,120,127
63,16,-46,-39,54,-15,-95,-152,-98,35,114,121
60,11,-48,-35,54,-18,-84,-133,-88,31,105,114
56,5,-50,-30,53,-22,-72,-113,-78,27,95,104
52,-1,-52,-25,52,-26,-61,-94,-69,22,84,94
47,-7,-53,-20,50,-30,-50,-76,-62,16,72,83
43,-12,-54,-15,49,-33,-39,-59,-55,9,59,71
37,-16,-54,-10,45,-35,-28,-44,-49,2,46,59
30,-20,-52,-4,41,-36,-17,-30,-43,-4,33,47
25,-24,-50,0,37,-37,-8,-19,-38,-11,20,36
21,-26,-48,3,34,-38,0,-10,-34,-17,9,24
16,-28,-46,6,31,-37,6,-2,-30,-23,0,14
11,-30,-43,9,27,-37,12,5,-27,-27,-9,5
7,-32,-40,12,23,-36,17,12,-25,-31,-17,-3
2,-33,-35,15,18,-34,22,18,-21,-33,-24,-9
-3,-31,-28,17,12,-30,27,25,-16,-33,-27,-13
-8,-28,-21,18,6,-24,33,32,-9,-31,-28,-16
-12,-25,-13,19,0,-19,38,38,-3,-28,-28,-18
-14,-21,-7,18,-4,-14,43,44,2,-26,-27,-20
-15,-18,-3,17,-6,-10,47,48,6,-24,-27,-22
-16,-16,0,16,-8,-8,50,52,10,-23,-27,-24
-17,-15,2,16,-9,-7,53,56,13,-22,-28,-26
-18,-15,3,17,-11,-6,56,59,15,-21,-29,-28
-19,-14,5,17,-12,-5,58,62,16,-20,-30,-29
-21,-13,7,17,-14,-3,60,64,18,-20,-30,-29
-21,-11,9,17,-15,-1,60,65,19,-20,-30,-29
-21,-11,10,17,-15,0,58,65,20,-20,-30,-30
-22,-10,11,17,-16,0,55,65,20,-20,-31,-30
-23,-10,12,17,-17,1,53,65,21,-19,-31,-31
-23,-10,13,16,-17,1,51,66,22,-19,-31,-31
-22,-9,12,15,-17,1,49,67,23,-19,-31,-32
-22,-9,12,15,-17,1,48,68,24,-18,-31,-32
-23,-9,14,15,-19,2,47,70,25,-17,-31,-31
-25,-9,15,16,-20,2,47,72,27,-16,-30,-31
-25,-9,16,17,-20,3,47,73,28,-16,-30,-31
-24,-9,15,17,-20,2,47,74,28,-16,-30,-32
-24,-9,14,17,-19,2,48,75,29,-16,-30,-32
-23,-10,13,17,-18,1,49,78,30,-15,-30,-32
-23,-11,12,17,-18,0,50,80,31,-15,-30,-32
-22,-12,10,17,-17,0,51,82,31,-15,-31,-32
-22,-12,10,17,-16,-1,52,84,32,-15,-31,-33
-23,-13,10,18,-17,-1,54,86,34,-15,-31,-33
-25,-13,10,19,-17,-1,56,88,35,-14,-31,-33
-26,-14,11,20,-18,-1,58,90,36,-14,-31,-33
-27,-14,11,21,-19,-1,59,92,37,-13,-31,-33
-28,-16,12,22,-20,-2,61,94,38,-13,-31,-33
-29,-17,12,23,-21,-3,62,96,38,-13,-32,-33
-30,-19,11,24,-21,-4,63,97,39,-13,-32,-34
-30,-20,10,24,-20,-5,64,99,39,-13,-33,-35
-29,-21,8,25,-19,-6,65,100,39,-14,-34,-36
-29,-21,7,25,-18,-7,66,102,39,-15,-35,-37
-29,-21,7,25,-18,-7,67,104,40,-15,-35,-37
-28,-22,6,25,-17,-8,68,106,41,-16,-36,-38
-28,-22,6,25,-17,-8,69,108,41,-16,-36,-38
-29,-23,6,26,-17,-9,70,110,42,-16,-37,-39
-29,-24,5,27,-18,-9,71,112,42,-17,-38,-40
-30,-24,5,27,-18,-9,72,115,43,-17,-39,-40
-30,-24,6,27,-19,-9,74,118,45,-16,-39,-40
-31,-22,8,26,-20,-7,75,121,48,-15,-38,-40
-30,-20,10,25,-20,-6,77,124,51,-14,-38,-39
-30,-18,11,24,-21,-4,78,126,53,-13,-37,-39
-30,-17,13,24,-21,-3,80,129,55,-13,-37,-39
-31,-17,14,24,-22,-1,81,132,57,-12,-37,-39
-31,-16,16,24,-23,0,83,135,58,-12,-37,-39
-32,-16,16,24,-24,0,85,137,59,-11,-37,-39
-32,-16,17,24,-25,0,86,140,61,-11,-38,-40
-34,-16,18,25,-26,0,87,143,62,-11,-38,-41
-35,-16,19,26,-27,1,88,145,64,-12,-38,-42
-37,-16,19,26,-28,1,89,147,65,-12,-39,-43
-37,-17,20,27,-29,1,90,149,66,-13,-41,-45
-37,-17,20,27,-29,1,91,151,67,-13,-42,-46
-36,-16,20,26,-28,1,92,155,68,-13,-42,-47
-35,-15,20,25,-28,2,94,158,70,-13,-43,-47
-34,-14,20,24,-28,2,95,161,72,-13,-43,-48
-34,-14,21,24,-28,3,97,164,74,-12,-44,-48
-34,-13,21,24,-28,3,99,167,76,-12,-44,-49
-34,-13,21,24,-27,3,100,170,78,-12,-45,-51
-35,-13,21,24,-28,3,102,173,80,-12,-45,-52
-36,-14,22,25,-29,3,103,176,82,-12,-46,-53
-38,-14,24,25,-31,4,105,180,85,-11,-46,-53
-39,-14,26,26,-33,5,107,185,88,-10,-46,-53
-41,-14,28,27,-35,6,108,188,90,-9,-46,-53
-43,-14,29,28,-37,7,110,192,93,-8,-46,-54
-44,-15,29,29,-37,6,112,195,96,-7,-46,-54
-43,-15,27,29,-35,5,112,197,98,-7,-47,-55
-41,-15,26,29,-33,5,113,199,100,-7,-48,-57
-41,-15,25,28,-33,5,113,201,102,-7,-48,-58
-41,-15,25,29,-33,5,114,204,104,-6,-48,-58
-41,-16,25,29,-33,4,114,206,106,-6,-48,-59
-40,-16,24,28,-33,4,114,208,108,-5,-48,-59
-39,-16,24,27,-32,4,115,210,111,-3,-48,-60
-39,-15,24,27,-32,4,115,212,114,-2,-48,-60
-39,-15,25,27,-33,4,115,213,117,0,-46,-59
-39,-14,26,26,-33,5,115,215,120,3,-45,-58
-40,-13,27,26,-34,7,115,216,123,6,-43,-57
-41,-12,29,26,-35,8,115,216,126,9,-42,-56
-42,-11,31,26,-36,10,115,217,128,11,-40,-55
-42,-10,32,25,-37,11,114,217,130,14,-39,-53
-41,-9,32,25,-36,11,113,217,132,16,-37,-52
-39,-8,31,24,-36,11,112,216,134,18,-35,-51
-38,-7,31,23,-35,11,111,214,135,20,-33,-49
-36,-5,31,21,-34,12,110,212,137,23,-31,-48
-35,-3,31,19,-33,13,109,210,138,26,-29,-47
-34,-1,31,18,-33,14,107,207,138,29,-26,-44
-33,0,32,17,-33,16,105,204,138,32,-23,-42
-31,1,32,15,-32,17,102,200,138,34,-21,-39
-29,3,32,13,-31,18,98,196,137,35,-19,-37
-27,4,32,11,-30,18,94,191,136,37,-16,-34
-25,6,32,10,-29,18,89,185,134,39,-14,-32
-24,7,31,9,-28,19,84,178,132,40,-12,-30
-22,8,31,7,-27,19,78,171,129,42,-9,-28
-21,9,31,6,-27,20,71,163,126,43,-7,-26
-20,11,32,4,-26,21,65,155,123,44,-5,-23
-18,12,31,3,-25,22,58,148,119,44,-3,-20
-16,13,31,1,-24,23,53,140,116,45,-1,-18
-15,14,30,0,-23,23,48,133,112,45,1,-16
-14,15,30,0,-23,22,43,126,109,45,2,-14
-13,15,29,-1,-22,22,38,119,104,45,4,-12
-12,15,27,-1,-20,21,34,112,99,44,5,-11
-11,15,26,-2,-19,20,30,105,93,43,6,-9
-9,15,24,-2,-17,19,27,98,88,42,7,-8
-8,14,22,-2,-16,18,24,92,83,41,7,-7
-7,13,20,-2,-15,17,21,86,78,39,7,-6
-6,11,18,-2,-13,15,19,80,73,36,7,-5
-6,10,17,-1,-12,13,16,74,68,34,7,-5
-5,9,15,-1,-11,12,14,68,63,32,7,-5
-4,9,14,-2,-9,11,12,62,59,30,7,-5
-4,8,12,-1,-8,10,10,57,54,28,7,-5
-4,6,11,0,-8,8,9,51,49,26,6,-5
-4,5,9,0,-7,7,7,47,45,24,5,-5
-3,5,8,0,-6,6,6,43,41,21,4,-4
-2,4,7,0,-5,6,4,39,37,19,4,-4
-2,4,6,0,-5,5,3,36,34,17,3,-4
-3,3,6,0,-5,5,2,33,31,15,3,-4
-3,3,6,0,-5,4,1,30,28,14,2,-4
-3,3,5,0,-4,4,1,27,26,13,2,-5
-2,3,4,0,-3,4,0,25,23,12,1,-5
-2,3,4,0,-3,4,0,23,21,11,1,-5
-2,2,4,0,-3,3,0,21,20,10,1,-6
-1,2,4,0,-2,3,-1,19,18,9,0,-6
-1,1,3,0,-2,2,-2,18,16,7,0,-6
-2,1,4,1,-3,2,-2,16,15,6,0,-6
-3,1,4,1,-4,3,-2,15,14,5,0,-6
-4,1,5,1,-4,3,-2,14,13,5,-1,-6
-4,0,4,1,-4,2,-2,13,11,4,-2,-7
-4,0,3,2,-4,1,-3,11,9,2,-3,-7
-3,-1,3,2,-3,0,-3,10,7,1,-3,-8
-2,-1,2,2,-2,0,-3,9,6,0,-4,-8
-2,-1,1,2,-2,0,-4,8,5,-1,-4,-9
-2,-2,0,2,-2,0,-4,7,4,-2,-5,-9
-3,-2,0,3,-2,-1,-4,6,3,-3,-5,-10
-3,-2,0,3,-1,-1,-4,6,2,-3,-6,-10
-2,-3,0,3,-1,-1,-4,5,1,-4,-7,-11
-2,-3,-1,3,-1,-2,-4,5,0,-4,-7,-11
-3,-4,0,3,-1,-2,-4,5,0,-4,-7,-11
-3,-3,0,3,-2,-1,-4,5,0,-4,-7,-11
-4,-3,1,3,-3,-1,-3,5,0,-4,-7,-11
-6,-3,3,5,-5,0,-3,5,0,-4,-7,-11
-8,-4,3,6,-6,0,-2,5,0,-4,-7,-11
-8,-5,2,6,-6,-1,-2,5,0,-5,-8,-11
-8,-6,1,7,-5,-2,-2,5,-1,-6,-8,-12
-8,-7,0,8,-4,-3,-2,4,-2,-7,-9,-12
-8,-9,0,8,-4,-4,-2,4,-2,-8,-9,-13
-8,-9,-1,8,-3,-5,-1,4,-3,-9,-10,-13
-7,-9,-2,8,-3,-6,-1,4,-3,-10,-11,-14
-6,-9,-3,8,-2,-6,-1,4,-4,-11,-12,-14
-6,-10,-4,8,-2,-7,0,4,-4,-11,-13,-15
-7,-10,-4,9,-2,-7,0,4,-4,-11,-13,-15
-8,-11,-4,9,-2,-7,1,4,-4,-11,-13,-16
-8,-11,-3,10,-2,-7,2,5,-4,-11,-13,-16
-9,-12,-3,11,-3,-7,3,5,-4,-11,-13,-16
-11,-13,-2,12,-4,-7,4,6,-4,-11,-13,-16
-11,-14,-2,12,-5,-8,5,7,-4,-11,-14,-16
-11,-14,-2,12,-5,-8,5,7,-4,-11,-14,-17
-11,-14,-3,12,-4,-8,6,8,-4,-11,-15,-17
-11,-14,-4,12,-3,-9,6,8,-4,-12,-15,-18
-11,-14,-5,12,-3,-10,7,8,-3,-12,-16,-18
-10,-14,-5,12,-2,-10,8,8,-3,-12,-16,-18
-10,-14,-4,12,-3,-10,10,8,-3,-12,-16,-18
-11,-14,-3,13,-4,-9,12,9,-2,-12,-16,-18
-12,-14,-2,13,-5,-8,14,10,-2,-11,-16,-18
-13,-14,0,13,-7,-7,16,11,-1,-11,-16,-18
-14,-14,1,14,-8,-7,18,12,0,-10,-15,-17
-15,-14,1,14,-9,-7,20,12,0,-10,-15,-17
-14,-13,1,14,-8,-7,21,13,0,-10,-15,-17
-14,-13,0,14,-7,-7,23,13,0,-10,-15,-17
-14,-13,0,14,-7,-7,24,13,0,-10,-16,-18
-14,-14,0,14,-6,-8,24,13,0,-10,-16,-18
-13,-13,-1,13,-6,-8,21,12,0,-10,-16,-19
-11,-12,-1,12,-5,-7,18,12,0,-10,-16,-19
-11,-11,0,11,-5,-6,15,11,0,-10,-16,-18
-11,-11,1,11,-6,-5,13,11,1,-10,-15,-18
-12,-10,3,11,-8,-4,11,11,2,-9,-14,-17
-12,-8,4,10,-8,-2,10,11,3,-7,-12,-16
-10,-6,5,8,-7,0,8,11,4,-6,-11,-15
-10,-4,5,7,-7,0,7,11,4,-5,-10,-14
-9,-4,5,7,-7,1,6,11,5,-5,-10,-14
-8,-4,5,6,-7,0,5,12,5,-5,-10,-14
-8,-4,4,6,-6,0,4,12,5,-5,-10,-14
-7,-4,3,6,-6,-1,4,12,6,-4,-10,-14
-7,-5,2,6,-5,-1,4,12,6,-4,-10,-14
-7,-5,1,6,-4,-2,3,12,6,-4,-10,-14
-6,-6,0,6,-4,-2,3,13,6,-4,-10,-14
-7,-6,0,6,-4,-2,4,14,7,-3,-10,-14
-7,-6,1,6,-4,-2,4,15,8,-3,-9,-14
-7,-7,1,7,-5,-2,5,16,8,-2,-9,-14
-7,-7,0,7,-5,-3,5,16,9,-2,-9,-13
-7,-7,0,7,-5,-3,5,17,9,-2,-9,-13
-7,-7,1,7,-5,-3,6,17,10,-1,-8,-12
-7,-7,1,7,-5,-3,6,18,10,0,-7,-12
-7,-7,1,7,-5,-3,6,18,11,0,-7,-12
-7,-7,0,7,-4,-3,6,19,11,0,-7,-12
-6,-7,0,6,-3,-3,6,19,11,0,-7,-12
-6,-7,-1,6,-2,-4,6,20,11,0,-7,-12
-5,-6,0,6,-3,-3,7,20,11,1,-6,-11
-5,-5,0,5,-3,-3,7,21,12,1,-6,-11
-5,-5,0,5,-3,-2,7,21,12,1,-5,-11
-5,-5,0,5,-3,-2,7,21,12,1,-6,-11
-5,-5,0,5,-2,-3,8,21,12,0,-6,-11
-5,-5,0,5,-2,-3,8,21,12,1,-6,-10
-5,-5,0,5,-3,-2,9,21,13,1,-6,-10
-4,-4,0,4,-2,-2,10,22,13,2,-5,-10
-3,-4,-1,3,-1,-3,9,21,12,1,-6,-10
-3,-5,-1,4,-1,-3,9,20,12,1,-6,-10
-4,-5,0,5,-2,-3,9,20,11,1,-6,-10
-4,-6,0,5,-2,-3,8,19,11,0,-6,-10
-4,-6,-1,5,-1,-4,8,19,10,0,-7,-10
-3,-5,-1,4,-1,-4,8,18,10,0,-7,-10
-3,-5,-1,4,-1,-4,8,18,10,0,-7,-10
-4,-6,-1,5,-1,-4,8,18,10,0,-7,-10
-4,-6,-1,5,-2,-4,8,18,10,0,-7,-10
-4,-6,-1,5,-2,-4,8,18,10,-1,-7,-11
-4,-6,-2,5,-2,-4,8,17,9,-1,-8,-11
-5,-6,-1,6,-2,-4,8,17,9,-2,-8,-11
-5,-6,0,6,-2,-3,8,16,9,-2,-8,-11
-6,-6,0,6,-3,-3,8,16,9,-2,-8,-11
-8,-6,1,7,-4,-3,8,17,9,-2,-8,-11
-9,-7,2,8,-5,-2,8,17,9,-2,-8,-11
-9,-7,2,8,-5,-2,9,17,8,-2,-8,-12
-9,-7,1,8,-5,-3,9,16,8,-2,-9,-12
-10,-8,1,9,-6,-3,10,16,7,-2,-9,-12
-11,-8,3,10,-7,-2,10,16,7,-2,-9,-12
-12,-9,3,11,-8,-2,11,16,7,-3,-10,-12
-12,-9,3,11,-7,-3,11,16,6,-4,-10,-13
-11,-10,2,11,-6,-4,11,15,5,-5,-11,-14
-10,-10,1,10,-5,-4,11,15,5,-5,-11,-14
-9,-10,0,10,-5,-4,11,14,5,-5,-12,-15
-9,-9,0,9,-4,-4,11,14,4,-6,-12,-15
-9,-9,0,10,-4,-5,11,14,4,-6,-12,-15
-10,-10,0,11,-5,-5,12,14,4,-7,-12,-15
-12,-11,0,12,-6,-6,12,14,3,-7,-12,-15
-12,-13,0,13,-6,-6,12,14,2,-8,-13,-15
-13,-14,-1,14,-6,-7,12,14,1,-9,-14,-16
-13,-15,-1,14,-6,-8,12,14,1,-9,-14,-16
-14,-15,-1,15,-6,-8,12,14,1,-9,-14,-16
-14,-15,0,15,-7,-7,13,15,2,-8,-13,-16
-14,-14,0,14,-7,-7,14,16,2,-8,-13,-15
-12,-13,0,13,-7,-6,15,16,3,-8,-13,-15
-12,-12,1,12,-6,-6,15,16,3,-7,-13,-15
-12,-12,1,12,-6,-5,15,16,3,-7,-13,-15
-12,-11,1,12,-6,-5,15,16,3,-7,-13,-15
-12,-11,2,12,-7,-4,16,16,3,-7,-13,-15
-12,-10,2,12,-8,-4,17,16,3,-7,-13,-15
-12,-10,3,11,-8,-3,19,17,4,-7,-13,-15
-12,-9,4,11,-9,-2,22,22,6,-7,-13,-15
-13,-8,6,11,-10,0,28,29,9,-5,-12,-15
-14,-6,8,11,-12,1,36,37,14,-3,-11,-14
-14,-4,11,10,-13,3,44,46,18,-1,-10,-14
-14,-2,12,8,-13,5,51,52,22,1,-9,-14
-14,-1,13,8,-14,6,56,51,23,2,-8,-14
-14,0,14,7,-15,7,57,44,24,4,-7,-13
-14,1,15,6,-15,8,52,31,22,5,-6,-11
-12,3,15,4,-14,9,41,10,19,6,-4,-9
-9,5,15,2,-13,10,23,-19,12,7,-1,-6
-7,9,16,-1,-11,12,0,-56,3,9,2,-2
-3,13,17,-5,-10,14,-27,-95,-6,11,7,2
2,18,17,-10,-7,17,-53,-134,-17,14,13,7
7,23,16,-14,-4,19,-78,-171,-30,15,18,13
11,26,15,-18,-1,20,-101,-207,-44,16,22,18
16,28,12,-22,2,20,-126,-245,-59,17,28,25
23,30,7,-26,8,19,-156,-282,-75,19,34,31
32,32,1,-32,15,17,-187,-317,-90,21,40,39
40,34,-4,-37,22,15,-215,-350,-105,24,47,47
47,38,-8,-42,28,15,-239,-381,-119,27,55,55
54,43,-10,-48,32,16,-260,-409,-132,31,63,64
61,48,-12,-54,36,17,-277,-436,-144,35,72,73
68,54,-14,-60,40,19,-292,-459,-155,40,81,82
74,58,-16,-66,44,20,-302,-476,-164,44,89,90
80,61,-19,-70,49,21,-309,-490,-172,47,95,98
87,64,-23,-75,54,20,-315,-501,-180,48,100,103
92,65,-26,-78,59,20,-317,-510,-188,49,105,108
95,66,-28,-80,61,19,-316,-515,-198,50,109,112
96,67,-29,-81,62,19,-313,-519,-209,50,113,116
97,68,-28,-81,62,19,-309,-522,-221,50,117,121
97,68,-29,-82,63,19,-305,-523,-232,49,121,125
98,67,-31,-82,64,17,-300,-524,-244,46,123,129
98,65,-33,-81,65,16,-295,-523,-258,40,125,133
99,63,-37,-81,68,13,-290,-522,-271,34,125,135
101,61,-40,-81,71,11,-286,-521,-285,26,125,136
102,59,-43,-81,73,9,-282,-520,-298,18,124,137
102,58,-44,-79,73,7,-279,-520,-311,9,123,138
101,57,-44,-78,72,6,-274,-520,-324,-1,122,138
99,56,-43,-77,71,6,-269,-517,-334,-12,120,139
96,54,-42,-74,69,5,-264,-512,-342,-21,118,139
92,51,-41,-72,66,5,-258,-505,-347,-30,116,139
89,49,-40,-69,64,4,-252,-496,-349,-39,113,138
87,46,-40,-67,63,3,-245,-486,-349,-46,111,137
84,44,-40,-64,62,2,-238,-473,-346,-49,111,137
82,41,-41,-61,61,1,-230,-457,-337,-49,111,137
81,39,-41,-59,61,-1,-221,-438,-324,-45,112,137
80,37,-42,-58,61,-2,-212,-418,-307,-39,113,137
78,35,-42,-56,60,-4,-202,-398,-289,-31,115,136
75,32,-43,-54,59,-5,-193,-378,-271,-23,116,136
73,29,-44,-51,58,-7,-183,-358,-253,-16,117,134
72,26,-46,-50,59,-9,-173,-336,-234,-9,117,132
72,24,-47,-48,59,-10,-162,-311,-214,0,118,131
71,23,-48,-47,59,-11,-152,-285,-193,9,120,131
71,23,-47,-47,59,-12,-141,-258,-171,19,123,131
71,23,-47,-47,59,-12,-131,-231,-151,28,124,131
70,22,-47,-46,59,-13,-120,-205,-132,33,124,130
67,19,-48,-43,58,-14,-110,-181,-115,36,121,128
64,15,-48,-40,56,-16,-100,-159,-101,36,116,123
61,11,-50,-36,56,-19,-90,-139,-91,33,108,117
58,5,-52,-32,55,-23,-79,-120,-82,28,99,108
53,-2,-55,-26,54,-27,-67,-101,-74,23,88,98
49,-8,-57,-20,53,-32,-56,-82,-66,17,76,87
46,-14,-59,-15,53,-37,-46,-64,-59,10,62,75
42,-19,-60,-11,51,-40,-35,-48,-52,2,49,63
37,-23,-60,-7,49,-42,-25,-33,-46,-4,36,51
32,-26,-58,-2,45,-43,-16,-22,-40,-11,23,39
26,-29,-56,1,41,-42,-8,-12,-36,-18,11,27
19,-32,-52,6,35,-41,0,-3,-32,-23,0,17
13,-33,-47,10,30,-40,7,5,-28,-27,-8,8
8,-34,-43,13,25,-39,14,13,-24,-31,-16,0
4,-35,-39,15,21,-37,20,21,-20,-33,-23,-7
0,-35,-35,17,17,-35,25,28,-16,-34,-28,-13
-3,-33,-30,18,13,-32,29,35,-10,-34,-31,-17
-6,-31,-25,18,9,-28,34,41,-3,-32,-32,-19
-9,-28,-19,18,5,-23,38,46,2,-30,-32,-21
-11,-25,-14,18,1,-19,41,51,6,-27,-33,-24
-12,-22,-9,17,-1,-16,45,56,10,-25,-33,-26
-14,-20,-6,17,-3,-13,48,60,14,-23,-33,-27
-15,-19,-4,17,-5,-12,51,64,17,-21,-33,-29
-16,-18,-1,17,-7,-10,54,67,19,-20,-33,-30
-17,-16,1,17,-9,-8,57,71,22,-19,-32,-30
-19,-15,3,17,-11,-6,59,73,25,-18,-32,-31
-20,-14,5,17,-12,-4,62,75,27,-17,-32,-31
-20,-13,6,17,-13,-3,64,76,28,-17,-32,-31
-20,-12,8,17,-14,-2,66,76,29,-17,-32,-31
-22,-12,9,17,-16,-1,68,77,29,-17,-32,-31
-23,-12,10,18,-17,-1,70,79,30,-16,-32,-31
-22,-12,10,17,-17,-1,71,80,30,-16,-32,-32
-22,-11,10,17,-16,-1,70,81,31,-16,-33,-32
-21,-10,11,16,-16,0,69,82,32,-16,-33,-33
-21,-9,11,15,-16,0,66,82,33,-16,-33,-33
-20,-8,12,14,-16,1,63,81,33,-16,-33,-33
-20,-7,12,14,-16,2,61,81,34,-16,-33,-33
-20,-6,13,13,-17,3,59,81,34,-16,-33,-33
-20,-5,14,13,-17,4,58,82,34,-15,-33,-32
-19,-4,14,12,-17,5,57,83,35,-15,-32,-32
-19,-4,15,12,-17,5,57,85,36,-15,-32,-32
-20,-4,15,12,-18,6,56,86,37,-15,-32,-32
-20,-4,15,12,-18,6,56,88,38,-14,-32,-32
-20,-4,15,12,-18,6,56,89,39,-14,-32,-32
-19,-5,14,12,-17,5,56,90,40,-14,-32,-32
-19,-6,13,12,-16,4,56,91,40,-14,-33,-33
-18,-6,12,12,-16,3,56,93,41,-14,-33,-33
-17,-7,10,12,-14,2,57,96,42,-14,-33,-34
-15,-7,8,11,-12,0,58,98,42,-14,-34,-35
-15,-8,6,12,-11,-1,59,101,43,-14,-35,-36
-15,-10,5,12,-10,-2,61,103,44,-14,-35,-36
-16,-11,4,13,-10,-3,62,106,46,-14,-35,-36
-16,-11,4,13,-10,-3,63,108,47,-13,-35,-36
-16,-11,5,14,-11,-3,65,111,48,-13,-35,-36
-17,-12,5,15,-12,-3,67,113,49,-12,-35,-36
-19,-13,5,16,-12,-3,68,115,50,-12,-36,-36
-20,-15,5,17,-12,-4,69,117,50,-13,-37,-37
-20,-16,3,18,-12,-5,70,120,51,-13,-38,-38
-19,-17,2,18,-11,-7,72,122,52,-14,-39,-39
-19,-18,1,18,-10,-8,74,125,53,-14,-40,-40
-18,-18,0,18,-9,-9,75,127,54,-15,-41,-41
-18,-19,-1,18,-8,-10,76,129,55,-15,-42,-43
-17,-19,-1,18,-8,-10,77,132,56,-16,-43,-44
-17,-20,-2,19,-8,-11,79,135,58,-16,-44,-45
-18,-20,-2,19,-8,-11,80,138,59,-16,-45,-46
-18,-20,-1,20,-8,-11,82,141,61,-16,-45,-46
-19,-21,-1,20,-9,-11,83,144,62,-15,-46,-47
-21,-21,0,21,-10,-11,85,147,64,-15,-47,-47
-21,-22,0,21,-11,-11,86,149,65,-15,-48,-48
-21,-22,-1,21,-10,-11,87,152,66,-16,-49,-50
-21,-22,-1,22,-10,-11,88,154,68,-16,-50,-51
-22,-23,-1,23,-10,-11,90,157,69,-16,-50,-52
-22,-24,-2,23,-10,-12,91,160,70,-16,-51,-53
-22,-25,-3,23,-9,-13,93,164,72,-16,-52,-54
-22,-25,-3,23,-9,-14,94,167,74,-16,-52,-54
-22,-25,-2,23,-10,-13,96,171,77,-16,-53,-55
-23,-25,-2,24,-10,-13,97,173,79,-16,-53,-56
-24,-26,-2,24,-11,-13,98,176,80,-16,-54,-57
-24,-26,-2,25,-11,-13,98,178,82,-16,-55,-58
-25,-26,0,25,-12,-12,99,181,85,-15,-55,-59
-25,-25,1,25,-13,-11,100,185,88,-13,-55,-60
-25,-24,2,25,-14,-10,101,188,92,-12,-54,-60
-25,-23,3,24,-14,-10,102,191,95,-11,-54,-60
-25,-23,3,24,-14,-10,103,194,97,-11,-54,-60
-26,-23,3,24,-14,-10,104,197,100,-10,-54,-60
-26,-22,4,24,-15,-9,105,199,102,-9,-54,-60
-27,-22,5,24,-15,-8,105,201,104,-8,-54,-61
-27,-22,6,24,-16,-7,106,203,106,-6,-54,-62
-27,-22,6,24,-16,-7,106,205,109,-5,-54,-63
-27,-21,6,24,-16,-7,107,207,112,-4,-54,-63
-27,-20,7,23,-16,-6,107,209,115,-2,-54,-63
-26,-19,7,22,-17,-5,108,211,118,0,-53,-63
-26,-18,8,22,-17,-4,108,212,121,2,-51,-62
-26,-17,8,21,-17,-3,108,213,123,4,-50,-61
-25,-15,9,20,-17,-2,107,213,126,7,-48,-60
-25,-14,10,20,-18,-1,107,213,129,10,-46,-58
-25,-13,12,19,-18,0,106,214,131,13,-44,-57
-25,-12,13,19,-19,1,105,214,133,16,-42,-55
-24,-11,14,18,-19,1,103,213,135,18,-40,-54
-24,-9,14,17,-19,2,101,212,137,21,-37,-52
-24,-8,15,16,-19,3,99,211,138,23,-35,-50
-23,-7,14,15,-19,3,97,208,139,25,-33,-48
-20,-6,13,13,-17,4,94,205,139,27,-32,-47
-16,-4,12,10,-15,4,91,201,139,29,-30,-45
-14,-2,13,9,-14,6,88,198,139,32,-26,-43
-13,0,14,7,-14,7,86,195,139,35,-23,-40
-11,2,14,5,-13,8,83,191,139,37,-21,-38
-9,3,13,3,-11,8,80,187,137,39,-19,-36
-7,5,12,1,-10,9,77,182,136,40,-17,-33
-6,6,13,0,-9,10,75,176,135,41,-14,-31
-5,8,13,-1,-9,11,73,171,134,43,-12,-28
-3,10,14,-3,-8,12,70,165,132,45,-9,-25
-2,12,14,-4,-8,13,68,159,129,46,-6,-22
-1,14,15,-6,-8,15,66,153,126,48,-4,-20
0,16,16,-8,-7,16,64,147,123,48,-1,-17
2,17,15,-10,-6,16,61,141,119,49,0,-15
3,18,15,-11,-5,17,57,134,114,49,2,-14
3,19,15,-12,-6,18,54,127,110,48,3,-12
4,20,16,-12,-6,19,50,119,106,48,5,-10
5,21,15,-13,-5,19,47,112,101,46,5,-9
6,21,15,-14,-4,19,42,104,95,45,6,-7
7,22,15,-14,-4,19,37,96,90,43,6,-6
8,22,14,-15,-2,19,30,89,84,41,7,-5
9,22,13,-15,-1,18,24,82,78,38,6,-5
10,22,13,-15,-1,18,20,75,73,36,6,-4
10,22,12,-15,0,17,17,70,68,33,6,-4
10,21,11,-15,0,17,14,64,64,31,5,-4
11,21,10,-15,0,16,11,59,59,29,4,-4
12,20,8,-15,1,14,8,53,55,26,3,-5
12,19,7,-15,2,13,5,48,50,24,1,-6
12,18,5,-14,3,11,3,44,46,22,0,-6
12,16,3,-14,5,10,2,41,42,19,0,-6
12,15,2,-14,5,8,1,39,39,17,-1,-6
12,13,1,-13,6,7,1,37,36,16,-1,-6
11,10,0,-11,6,5,0,34,34,14,-1,-6
11,8,-2,-10,7,3,0,31,31,13,-3,-7
11,6,-4,-8,8,1,0,28,28,11,-4,-8
11,5,-6,-7,8,0,0,26,25,9,-5,-8
11,4,-7,-7,9,-1,0,24,23,7,-5,-8
11,3,-8,-7,10,-2,0,23,20,5,-6,-9
12,1,-10,-6,11,-4,0,22,18,4,-7,-9
12,0,-11,-5,12,-5,0,21,16,2,-8,-10
12,-1,-13,-4,12,-7,0,20,15,1,-9,-10
12,-3,-14,-3,13,-9,0,18,13,0,-10,-11
12,-5,-16,-3,13,-10,0,17,11,-2,-11,-11
12,-6,-17,-2,14,-11,0,15,9,-3,-12,-12
11,-7,-17,-2,14,-12,0,14,7,-4,-12,-12
11,-8,-18,-1,14,-12,0,13,5,-6,-13,-13
10,-9,-18,0,14,-13,-1,12,4,-8,-14,-14
8,-10,-18,1,13,-13,-1,12,2,-9,-15,-15
7,-10,-17,2,13,-13,-1,12,2,-10,-16,-15
7,-10,-17,1,13,-13,-1,11,1,-10,-17,-15
8,-10,-18,1,13,-13,-2,10,1,-10,-17,-15
8,-10,-17,1,13,-13,-2,9,0,-10,-17,-15
8,-10,-17,1,12,-13,-1,8,0,-10,-17,-15
8,-9,-16,0,12,-12,-1,8,0,-10,-17,-15
8,-8,-16,0,12,-12,-1,8,-1,-11,-17,-15
8,-8,-16,0,13,-11,-1,8,-1,-11,-17,-15
8,-8,-16,0,12,-11,-1,8,-1,-11,-17,-15
8,-8,-16,0,12,-11,0,8,-1,-11,-17,-15
8,-8,-16,0,12,-12,0,7,-1,-11,-17,-16
8,-9,-16,0,12,-12,0,7,-2,-12,-17,-16
7,-9,-15,1,11,-12,0,6,-2,-12,-17,-16
6,-9,-14,2,10,-12,0,6,-2,-12,-17,-15
5,-9,-13,2,9,-11,0,6,-2,-12,-17,-15
5,-9,-13,2,9,-11,0,6,-2,-12,-17,-15
5,-9,-14,2,10,-11,0,6,-2,-12,-17,-15
5,-10,-14,2,10,-11,0,6,-2,-12,-17,-15
5,-10,-14,2,9,-11,0,6,-2,-12,-17,-15
4,-10,-14,2,9,-11,0,6,-2,-12,-18,-15
4,-10,-13,2,9,-11,1,6,-2,-12,-18,-15
5,-10,-13,2,9,-11,1,6,-2,-12,-18,-15
5,-10,-13,2,10,-11,1,6,-2,-12,-18,-15
5,-10,-13,3,9,-11,1,6,-2,-12,-18,-15
4,-10,-12,3,8,-10,2,7,-1,-12,-18,-15
3,-10,-12,3,7,-10,3,7,-1,-11,-17,-14
1,-10,-11,3,6,-10,3,8,0,-10,-16,-14
1,-10,-11,3,6,-10,4,8,0,-10,-16,-13
2,-10,-12,3,7,-10,4,8,0,-10,-16,-13
3,-10,-13,3,8,-11,4,7,0,-10,-16,-14
3,-11,-14,3,8,-12,4,7,1,-10,-16,-14
3,-10,-14,3,8,-12,4,7,1,-10,-16,-14
3,-10,-14,3,9,-12,4,7,1,-10,-16,-14
4,-10,-14,3,9,-12,4,7,1,-10,-16,-14
4,-10,-15,2,10,-12,4,7,1,-10,-16,-14
5,-10,-15,2,10,-12,4,7,1,-10,-17,-14
5,-9,-15,1,10,-12,4,8,1,-10,-17,-15
5,-9,-14,2,9,-11,5,8,1,-10,-17,-15
4,-9,-13,2,9,-11,5,9,1,-10,-17,-15
4,-9,-13,3,9,-11,6,9,1,-10,-18,-15
4,-9,-13,3,9,-12,6,9,1,-10,-18,-16
4,-10,-14,3,9,-12,6,9,1,-10,-18,-16
4,-10,-14,3,9,-12,7,9,2,-10,-18,-16
3,-10,-13,3,8,-12,8,10,2,-10,-18,-16
3,-10,-12,3,7,-11,10,11,2,-10,-17,-16
3,-10,-12,3,7,-11,11,11,2,-10,-18,-16
3,-10,-12,3,7,-11,13,11,3,-10,-18,-16
2,-9,-12,3,7,-11,15,11,3,-9,-18,-16
2,-8,-11,3,7,-10,16,12,4,-9,-18,-16
2,-8,-10,2,7,-9,18,12,5,-9,-18,-17
1,-8,-9,2,5,-8,20,13,5,-9,-17,-17
0,-7,-7,3,3,-7,22,13,6,-8,-17,-17
-1,-7,-5,3,2,-6,23,14,6,-8,-16,-16
-1,-7,-4,4,1,-6,23,14,6,-8,-16,-16
-1,-6,-4,3,2,-6,21,14,7,-7,-16,-16
0,-5,-4,2,2,-6,19,14,7,-7,-16,-15
0,-4,-4,2,2,-5,16,14,7,-7,-16,-15
0,-4,-3,2,2,-4,14,14,7,-7,-16,-15
1,-4,-4,1,2,-4,11,13,6,-8,-17,-15
1,-3,-5,0,3,-4,9,12,6,-8,-16,-15
2,-3,-5,0,4,-4,6,11,6,-8,-16,-15
4,-2,-7,-2,5,-4,4,11,5,-8,-16,-15
6,-2,-8,-2,7,-5,3,11,5,-8,-17,-15
6,-2,-9,-2,7,-5,3,12,6,-8,-17,-15
6,-3,-9,-1,8,-6,4,12,6,-8,-16,-15
7,-3,-10,-1,8,-6,4,12,6,-8,-16,-15
7,-3,-11,-1,9,-7,4,12,7,-7,-16,-15
7,-3,-10,-1,8,-7,4,12,7,-7,-15,-14
7,-3,-10,-1,8,-7,5,13,8,-6,-14,-14
7,-4,-10,-1,8,-7,5,13,8,-6,-14,-14
7,-4,-11,-1,9,-7,5,13,8,-6,-14,-14
7,-5,-11,-1,9,-7,6,14,8,-6,-14,-13
7,-5,-11,-1,9,-7,6,14,8,-5,-14,-13
7,-5,-12,-1,9,-8,7,14,8,-5,-14,-13
8,-5,-14,-2,11,-9,7,14,8,-6,-15,-13
9,-6,-15,-2,12,-10,7,14,7,-6,-15,-13
9,-7,-16,-1,12,-11,7,14,7,-6,-15,-13
9,-8,-16,-1,13,-12,6,14,7,-7,-15,-14
9,-8,-16,-1,13,-12,6,14,6,-7,-15,-14
8,-7,-15,-1,12,-11,7,14,6,-7,-15,-14
8,-7,-15,-1,12,-11,7,14,6,-7,-15,-14
9,-7,-16,-1,13,-11,7,13,5,-8,-15,-14
10,-7,-17,-1,14,-11,7,13,5,-8,-16,-15
10,-7,-17,-1,14,-11,7,13,5,-8,-16,-15
9,-8,-17,0,14,-12,7,13,6,-8,-16,-15
10,-8,-17,0,14,-12,7,13,6,-8,-16,-14
10,-8,-17,0,13,-12,7,13,6,-8,-16,-14
9,-8,-16,0,12,-12,7,13,6,-8,-16,-14
8,-8,-16,0,12,-12,7,13,6,-8,-16,-14
8,-8,-16,0,12,-12,7,12,5,-8,-16,-14
8,-8,-16,0,12,-12,7,12,5,-8,-16,-14
8,-8,-16,0,12,-12,7,13,5,-8,-15,-13
7,-8,-15,0,11,-11,7,13,5,-8,-15,-13
7,-8,-14,0,11,-11,8,13,5,-7,-15,-13
7,-7,-14,0,11,-10,8,13,5,-7,-15,-13
7,-7,-14,0,11,-10,8,13,5,-8,-15,-13
7,-7,-14,0,11,-10,8,12,4,-8,-15,-13
6,-7,-14,0,11,-10,8,12,4,-9,-15,-13
7,-7,-14,0,11,-10,8,11,4,-9,-15,-13
7,-7,-14,0,11,-10,8,11,4,-9,-15,-14
6,-7,-13,0,10,-10,8,11,4,-9,-15,-14
5,-7,-12,1,9,-10,8,11,4,-9,-15,-14
5,-7,-12,1,8,-9,8,11,4,-9,-15,-14
5,-7,-11,1,8,-9,8,11,4,-9,-15,-14
5,-7,-12,1,9,-10,8,11,4,-10,-15,-14
5,-7,-12,1,9,-10,8,11,4,-10,-15,-14
5,-8,-13,1,9,-10,8,11,3,-10,-15,-14
5,-8,-13,1,10,-10,8,10,3,-10,-15,-14
5,-8,-13,2,10,-10,8,10,2,-11,-16,-14
5,-9,-13,2,10,-11,8,9,2,-11,-16,-14
5,-9,-14,2,10,-11,8,9,1,-12,-17,-15
5,-10,-14,2,10,-12,8,8,1,-12,-18,-15
4,-10,-15,3,10,-12,7,8,0,-13,-18,-16
3,-11,-15,3,9,-12,7,8,0,-13,-19,-16
3,-11,-14,4,9,-12,8,8,0,-13,-19,-16
2,-12,-13,5,8,-12,8,8,0,-13,-19,-16
1,-12,-13,5,7,-12,8,8,0,-13,-19,-16
1,-12,-13,5,7,-13,8,8,0,-13,-19,-17
1,-12,-13,6,7,-13,8,8,0,-14,-19,-17
0,-13,-13,6,7,-13,8,8,-1,-14,-19,-17
0,-13,-12,7,6,-12,9,8,0,-14,-19,-17
0,-12,-12,7,6,-12,9,9,0,-13,-19,-17
1,-12,-13,6,7,-12,10,9,0,-13,-19,-17
2,-12,-14,5,9,-13,10,9,0,-14,-20,-17
2,-13,-15,5,9,-14,11,9,-1,-15,-20,-17
2,-13,-15,6,9,-14,11,10,-1,-15,-20,-17
2,-14,-16,6,9,-15,12,11,-1,-15,-20,-17
2,-14,-17,6,10,-16,12,11,-1,-15,-20,-18
3,-15,-18,6,11,-16,12,11,-1,-15,-20,-18
2,-15,-18,6,10,-16,13,11,0,-14,-20,-18
1,-15,-16,7,9,-15,13,11,1,-13,-19,-17
1,-14,-15,7,8,-14,13,11,1,-13,-18,-16
1,-13,-13,6,8,-13,13,12,2,-12,-17,-16
1,-12,-12,6,7,-12,14,12,2,-12,-17,-15
1,-10,-11,5,7,-10,15,12,3,-12,-16,-15
1,-8,-9,4,6,-8,17,12,3,-11,-16,-15
1,-6,-8,3,5,-7,18,13,4,-10,-15,-15
0,-6,-6,3,3,-6,20,13,5,-10,-15,-15
-1,-5,-5,3,2,-5,22,15,6,-9,-15,-15
0,-5,-4,2,2,-5,25,19,8,-8,-14,-15
0,-4,-4,1,2,-4,30,25,10,-7,-14,-14
0,-3,-3,1,2,-3,36,33,14,-5,-13,-14
1,-2,-2,0,2,-2,41,39,17,-3,-12,-14
2,-1,-2,0,2,-1,43,42,20,-2,-11,-14
3,1,-1,-2,2,0,43,38,21,0,-10,-13
3,3,1,-3,1,2,41,30,21,1,-8,-12
2,5,3,-3,0,4,37,17,21,3,-6,-10
3,7,5,-5,-1,6,28,-1,19,7,-2,-7
6,10,5,-8,0,8,12,-26,14,10,1,-4
12,14,4,-13,4,9,-9,-59,6,12,5,0
17,18,3,-18,7,10,-34,-95,-2,15,9,5
21,23,3,-22,9,13,-60,-131,-13,18,15,10
25,27,2,-26,11,15,-85,-166,-24,20,20,16
29,30,1,-29,14,15,-107,-201,-37,22,25,22
33,32,-1,-32,17,15,-129,-237,-52,24,31,28
38,34,-4,-36,21,15,-155,-273,-66,27,37,35
45,35,-8,-40,26,14,-184,-307,-81,30,44,43
51,37,-13,-44,32,13,-211,-339,-95,33,51,50
58,40,-17,-49,37,12,-234,-369,-109,36,59,58
64,43,-20,-53,42,11,-254,-397,-123,40,67,66
70,48,-22,-59,46,13,-272,-424,-136,44,76,74
76,53,-23,-65,50,15,-287,-448,-148,48,84,83
82,58,-24,-70,53,16,-299,-468,-159,52,92,91
87,61,-25,-74,56,17,-307,-484,-168,56,99,98
92,63,-27,-78,60,18,-313,-495,-175,59,105,104
97,65,-30,-81,63,17,-316,-503,-184,61,110,109
100,66,-32,-83,66,17,-316,-509,-194,61,114,113
101,67,-33,-85,67,17,-313,-513,-206,61,118,117
103,68,-34,-86,68,17,-309,-516,-218,60,122,121
104,69,-35,-86,70,16,-305,-517,-230,59,125,125
105,68,-37,-86,71,15,-300,-517,-242,57,128,128
106,66,-39,-85,72,13,-294,-516,-255,53,129,131
105,64,-40,-84,73,11,-288,-513,-268,47,130,133
105,62,-42,-83,73,9,-283,-510,-282,39,130,135
103,60,-42,-82,72,9,-279,-508,-295,31,130,136
100,58,-40,-79,70,9,-274,-507,-308,21,130,137
96,56,-39,-77,68,8,-269,-507,-322,10,128,137
95,55,-40,-75,68,7,-265,-506,-335,-2,125,136
94,54,-41,-74,68,6,-260,-503,-345,-14,122,135
93,52,-42,-72,68,4,-255,-497,-352,-27,119,134
90,49,-42,-69,66,3,-249,-489,-357,-38,116,133
87,45,-41,-66,64,2,-242,-479,-358,-48,114,133
85,42,-42,-64,63,1,-235,-466,-356,-54,113,132
83,39,-43,-62,63,-1,-227,-450,-349,-56,112,131
80,35,-44,-58,62,-4,-218,-432,-338,-54,112,130
78,32,-45,-55,62,-7,-209,-412,-322,-49,113,129
76,30,-46,-53,61,-8,-199,-393,-304,-42,114,129
75,28,-46,-52,61,-9,-189,-373,-285,-34,116,129
74,26,-47,-50,61,-11,-179,-353,-266,-26,117,128
73,22,-50,-48,62,-13,-169,-331,-247,-18,117,128
73,18,-53,-46,63,-17,-159,-307,-227,-10,118,127
73,15,-56,-44,64,-20,-149,-281,-205,0,120,127
72,13,-57,-43,64,-22,-138,-254,-183,10,123,127
70,12,-58,-41,63,-23,-127,-227,-161,19,125,126
70,10,-60,-40,64,-25,-115,-201,-140,26,124,124
68,6,-62,-37,65,-28,-104,-176,-123,29,121,120
65,0,-65,-32,65,-32,-93,-153,-108,29,114,115
61,-7,-68,-27,65,-37,-82,-132,-95,27,106,108
58,-14,-72,-22,65,-43,-71,-111,-84,22,95,99
57,-21,-76,-18,66,-48,-59,-91,-74,18,83,89
54,-26,-79,-14,67,-52,-48,-73,-65,12,72,79
52,-29,-80,-11,66,-55,-38,-56,-58,6,59,68
48,-32,-80,-8,64,-56,-28,-41,-51,-1,46,57
43,-35,-78,-3,61,-57,-18,-28,-44,-8,33,46
37,-37,-75,1,56,-57,-10,-18,-39,-15,20,35
31,-39,-71,4,51,-55,-2,-9,-35,-22,9,25
26,-39,-66,6,46,-52,4,-2,-31,-28,-1,16
22,-40,-61,8,42,-50,10,5,-28,-32,-10,8
17,-40,-57,10,37,-48,15,12,-25,-35,-18,0
13,-39,-52,12,33,-46,20,18,-21,-38,-24,-6
10,-36,-47,13,28,-42,25,24,-17,-39,-28,-11
6,-34,-40,14,23,-38,30,31,-11,-38,-31,-16
2,-31,-34,14,18,-33,34,37,-5,-37,-32,-19
-1,-28,-27,14,14,-28,38,42,0,-35,-33,-21
-3,-26,-22,14,10,-24,40,46,5,-33,-33,-24
-4,-24,-19,14,8,-21,42,50,9,-31,-34,-26
-6,-23,-15,14,5,-19,45,54,11,-30,-34,-28
-10,-22,-11,16,0,-17,48,58,14,-29,-34,-30
-13,-21,-8,17,-3,-15,52,62,16,-27,-34,-31
-15,-20,-5,17,-5,-13,54,64,18,-26,-34,-32
-15,-19,-4,17,-6,-12,57,66,20,-26,-34,-33
-15,-18,-3,17,-6,-11,59,67,22,-26,-34,-33
-15,-18,-2,17,-6,-10,60,67,23,-25,-34,-33
-15,-17,-1,16,-7,-9,61,68,23,-25,-34,-33
-16,-17,0,16,-8,-8,63,70,24,-24,-34,-33
-17,-17,1,16,-9,-7,64,71,25,-24,-33,-33
-17,-16,2,16,-10,-7,66,73,25,-24,-34,-34
-17,-15,3,16,-10,-6,67,74,26,-24,-34,-34
-17,-13,3,15,-10,-5,67,75,27,-24,-34,-35
-18,-12,5,15,-11,-4,66,76,28,-23,-34,-34
-20,-12,8,16,-14,-2,64,77,30,-22,-33,-33
-22,-11,11,16,-16,0,62,78,32,-20,-32,-32
-21,-10,12,16,-16,1,60,79,33,-20,-32,-32
-20,-9,11,14,-15,1,58,80,33,-19,-31,-32
-18,-9,10,13,-14,1,56,81,33,-19,-31,-32
-16,-8,8,12,-12,0,54,83,34,-19,-31,-32
-16,-8,8,12,-12,0,54,84,35,-19,-31,-32
-17,-8,8,12,-12,0,54,85,36,-19,-32,-32
-18,-9,8,13,-13,-1,55,86,37,-19,-32,-33
-19,-10,8,14,-13,-1,55,87,37,-19,-33,-33
-19,-11,8,15,-13,-2,56,88,38,-20,-34,-34
-19,-12,7,15,-13,-2,56,90,38,-20,-35,-35
-20,-13,7,16,-14,-3,57,92,39,-20,-35,-35
-21,-14,7,17,-14,-3,59,95,40,-19,-35,-36
-20,-14,6,17,-13,-4,60,98,42,-19,-35,-36
-19,-15,4,17,-12,-6,62,101,43,-19,-36,-36
-20,-16,3,18,-11,-7,64,103,44,-19,-36,-37
-20,-16,3,18,-11,-7,65,105,46,-18,-36,-37
-19,-17,2,17,-10,-7,67,107,47,-18,-37,-38
-18,-17,1,18,-9,-8,68,110,48,-17,-37,-38
-20,-18,2,19,-11,-8,69,113,50,-17,-37,-38
-21,-18,3,20,-12,-8,71,117,51,-16,-37,-37
-22,-19,3,20,-12,-8,72,120,53,-17,-38,-38
-22,-19,3,20,-12,-9,73,122,54,-17,-38,-39
-23,-20,3,21,-13,-9,74,124,56,-17,-39,-39
-23,-20,3,21,-13,-9,75,126,57,-17,-39,-40
-22,-20,2,21,-12,-9,76,128,58,-17,-40,-41
-22,-20,1,21,-11,-9,76,131,59,-17,-41,-41
-22,-21,1,22,-11,-10,77,134,60,-17,-42,-42
-23,-23,0,23,-11,-11,78,137,61,-17,-43,-43
-23,-23,0,23,-11,-12,79,140,63,-18,-44,-44
-23,-24,0,24,-11,-12,81,143,64,-18,-44,-45
-24,-24,-1,24,-11,-13,82,145,66,-18,-45,-46
-24,-25,0,25,-12,-13,84,148,68,-18,-45,-46
-25,-25,0,25,-13,-13,85,150,70,-18,-46,-47
-26,-26,0,26,-13,-12,87,153,71,-18,-46,-47
-26,-26,1,26,-14,-12,88,156,73,-18,-47,-48
-26,-25,2,25,-13,-11,90,160,75,-17,-47,-48
-25,-22,3,23,-14,-10,92,164,78,-16,-47,-49
-26,-20,6,22,-16,-8,95,168,81,-14,-46,-49
-27,-19,8,22,-18,-6,97,172,85,-13,-45,-49
-29,-19,11,23,-20,-4,99,174,87,-13,-45,-49
-32,-18,14,25,-23,-3,101,176,89,-13,-46,-50
-34,-19,15,26,-25,-2,102,179,91,-12,-46,-51
-35,-19,16,27,-26,-2,104,183,94,-11,-46,-51
-36,-20,16,28,-26,-2,105,186,96,-11,-46,-52
-36,-20,15,28,-26,-3,107,189,98,-11,-47,-53
-36,-21,15,28,-25,-3,108,192,100,-11,-48,-54
-36,-21,15,28,-25,-3,109,195,102,-10,-49,-55
-35,-21,14,28,-24,-4,110,197,104,-10,-49,-56
-34,-20,13,27,-23,-4,110,199,106,-10,-50,-57
-33,-19,13,26,-23,-3,110,200,108,-10,-50,-57
-33,-19,14,25,-24,-2,111,203,111,-9,-50,-57
-34,-19,15,26,-25,-2,112,206,114,-7,-50,-57
-34,-19,16,27,-25,-1,113,210,117,-5,-50,-57
-35,-19,16,27,-26,-1,114,212,120,-4,-50,-58
-36,-19,17,27,-26,-1,114,213,123,-2,-49,-58
-36,-18,17,27,-27,-1,114,215,126,0,-48,-57
-36,-18,18,27,-27,0,114,216,129,2,-47,-56
-36,-17,19,26,-27,0,114,216,131,4,-46,-56
-35,-16,19,25,-27,0,114,216,133,6,-46,-55
-34,-15,19,24,-27,1,113,216,135,8,-45,-55
-34,-14,20,24,-27,2,112,217,137,10,-44,-54
-33,-13,20,23,-26,3,110,216,139,12,-42,-53
-33,-13,20,22,-26,3,108,215,141,14,-41,-52
-32,-11,21,21,-26,5,107,214,143,17,-38,-50
-32,-10,23,21,-27,6,106,213,145,20,-35,-48
-32,-8,24,20,-28,8,104,211,146,24,-33,-46
-32,-6,26,19,-29,9,103,208,146,26,-30,-44
-32,-4,28,18,-30,11,102,206,147,29,-28,-41
-32,-2,31,17,-31,13,101,204,148,32,-25,-38
-30,0,31,15,-30,15,99,201,148,34,-23,-36
-26,2,29,12,-27,15,96,196,146,36,-21,-34
-24,4,28,10,-26,16,93,191,145,37,-19,-33
-22,6,29,8,-25,17,91,186,144,39,-16,-30
-20,8,28,5,-24,18,87,180,142,41,-13,-28
-17,10,27,3,-22,18,83,173,139,42,-11,-26
-16,12,28,2,-22,19,79,167,137,44,-9,-23
-15,13,29,1,-22,20,73,160,134,45,-7,-21
-14,15,29,0,-21,21,66,153,130,46,-5,-18
-12,16,29,-2,-20,22,59,145,126,47,-3,-16
-11,17,29,-3,-20,23,52,137,122,47,-1,-14
-10,18,29,-4,-19,24,46,129,117,47,0,-12
-8,19,28,-5,-18,24,40,121,113,46,2,-10
-6,21,27,-7,-16,24,35,113,108,45,3,-8
-3,23,26,-10,-14,24,31,106,103,44,4,-7
-1,24,25,-11,-13,24,26,100,97,43,5,-5
0,23,24,-11,-12,23,22,93,92,41,5,-4
0,23,24,-11,-12,23,19,87,87,40,6,-3
-1,22,23,-11,-11,22,16,82,82,38,6,-3
-1,21,22,-10,-11,21,14,76,77,36,7,-2
-1,20,21,-10,-10,20,12,71,72,35,7,-1
0,18,19,-9,-10,18,11,65,67,33,7,0
0,16,17,-8,-9,16,9,60,62,30,6,0
0,14,15,-7,-8,14,8,56,57,28,5,0
0,12,13,-6,-7,12,7,52,52,25,4,0
1,10,10,-5,-4,10,5,48,47,22,3,-1
2,9,7,-5,-2,7,3,44,42,19,1,-2
2,7,5,-5,0,6,2,41,38,16,0,-2
2,6,3,-4,0,4,1,37,35,14,0,-3
1,4,2,-3,0,3,1,34,32,12,-1,-3
1,2,0,-2,1,1,0,30,28,9,-3,-4
2,1,-1,-2,2,0,-1,27,24,7,-4,-5
3,1,-2,-3,3,-1,-1,25,22,5,-4,-5
4,1,-2,-3,4,0,-1,24,20,4,-4,-5
4,2,-2,-3,3,0,-1,23,19,4,-5,-5
3,1,-1,-2,2,0,-2,21,17,2,-6,-5
1,0,-1,-1,1,0,-2,19,15,1,-7,-6
0,0,0,0,1,0,-2,17,14,0,-7,-6
1,0,-1,-1,1,0,-1,16,13,0,-7,-6
1,0,-1,-1,1,-1,-1,15,11,-1,-8,-7
1,0,-1,-1,1,-1,-1,14,9,-2,-9,-7
0,-1,-1,0,1,-1,-1,13,8,-3,-9,-7
0,-1,-1,1,0,-1,-1,13,7,-4,-10,-8
-1,-1,-1,1,0,-1,-1,12,6,-5,-10,-8
-1,-1,-1,1,0,-1,0,12,6,-6,-10,-8
-2,-2,0,2,-1,-1,0,12,5,-6,-10,-8
-2,-2,0,2,-1,-1,0,11,5,-6,-10,-8
-3,-3,0,3,-2,-1,0,11,4,-7,-11,-8
-4,-3,1,4,-3,-1,0,11,3,-7,-11,-8
-7,-4,3,6,-5,-1,1,11,3,-8,-11,-8
-9,-5,3,7,-6,-1,1,11,2,-8,-11,-8
-8,-6,2,7,-5,-2,1,11,1,-9,-12,-9
-6,-6,0,6,-3,-3,0,10,0,-10,-13,-10
-4,-6,-1,5,-1,-4,0,9,0,-11,-14,-11
-2,-6,-3,4,0,-4,0,9,0,-12,-14,-11
-1,-6,-4,4,1,-5,0,8,-1,-12,-15,-11
-1,-6,-4,3,2,-5,0,8,-2,-13,-15,-11
-1,-6,-4,3,2,-5,0,8,-2,-13,-15,-11
-1,-6,-4,3,2,-5,1,8,-2,-13,-15,-11
-1,-6,-4,4,1,-5,1,9,-2,-13,-15,-11
-3,-6,-3,5,0,-5,2,9,-2,-13,-15,-11
-5,-6,-2,6,-1,-5,3,10,-1,-13,-15,-11
-6,-6,0,6,-2,-4,4,11,-1,-13,-15,-11
-6,-7,0,7,-3,-4,4,11,-1,-13,-15,-11
-6,-7,0,7,-3,-4,5,11,-1,-13,-15,-11
-6,-7,0,6,-3,-4,5,11,-1,-13,-15,-11
-6,-6,0,5,-3,-3,6,12,-1,-13,-15,-11
-5,-5,0,5,-2,-3,6,12,-1,-13,-15,-11
-5,-5,0,5,-2,-3,7,12,-1,-13,-15,-11
-5,-5,0,5,-2,-3,8,12,-1,-13,-15,-11
-5,-4,0,5,-3,-2,10,13,0,-13,-15,-11
-6,-4,1,5,-4,-2,12,14,0,-12,-15,-11
-7,-4,3,5,-5,-1,14,14,1,-12,-15,-11
-7,-4,4,5,-6,0,16,15,1,-12,-15,-11
-8,-3,6,5,-7,1,18,16,2,-11,-14,-11
-8,-3,7,5,-7,2,19,16,2,-11,-14,-11
-8,-2,7,5,-7,2,20,16,2,-11,-14,-11
-9,-2,7,5,-8,2,21,16,2,-11,-14,-12
-9,-2,8,5,-8,2,21,16,3,-11,-14,-12
-9,-1,8,5,-8,3,19,16,3,-11,-14,-11
-8,0,9,4,-8,4,16,16,3,-10,-14,-11
-8,1,10,3,-9,5,14,16,4,-10,-13,-10
-9,2,12,3,-11,7,12,16,5,-9,-13,-10
-10,3,14,3,-12,8,10,16,5,-8,-12,-9
-10,3,14,3,-11,8,9,15,5,-8,-12,-9
-9,3,13,3,-11,8,7,15,5,-8,-12,-9
-9,4,13,3,-11,8,5,15,5,-8,-12,-9
-9,5,13,2,-11,9,4,15,6,-7,-11,-9
-8,5,13,2,-11,9,4,16,6,-7,-11,-9
-7,5,12,1,-10,8,3,16,6,-7,-11,-9
-6,4,10,1,-8,7,2,16,6,-7,-11,-9
-5,3,9,1,-7,6,1,16,6,-7,-11,-10
-5,2,8,1,-7,5,1,16,6,-7,-11,-10
-5,2,8,2,-6,4,0,16,6,-7,-11,-10
-5,1,7,2,-6,4,0,17,6,-7,-12,-10
-5,0,6,2,-5,3,0,17,7,-7,-12,-10
-5,0,6,2,-5,3,1,18,8,-7,-11,-10
-5,0,6,2,-6,3,1,18,8,-6,-11,-10
-6,0,7,3,-6,3,2,19,9,-6,-11,-10
-7,-1,7,4,-7,2,3,19,9,-5,-10,-9
-8,-1,7,4,-7,2,4,20,10,-5,-10,-9
-8,-1,6,4,-7,2,5,21,11,-4,-10,-8
-7,-2,5,4,-6,1,5,21,11,-4,-10,-8
-6,-2,3,4,-5,0,5,22,11,-4,-10,-9
-6,-3,3,5,-5,0,6,22,11,-4,-10,-9
-7,-4,3,6,-6,-1,6,22,11,-4,-10,-9
-8,-5,2,6,-5,-2,7,22,11,-4,-10,-10
-7,-5,2,6,-5,-2,7,23,11,-4,-10,-10
-7,-5,1,6,-4,-2,8,23,11,-4,-10,-10
-6,-5,0,5,-3,-3,8,22,11,-4,-10,-10
-5,-6,0,5,-2,-3,8,22,10,-4,-11,-10
-6,-6,0,6,-3,-2,8,22,11,-4,-10,-9
-6,-5,1,6,-4,-2,9,22,11,-4,-10,-8
-6,-5,1,6,-4,-2,9,22,11,-3,-10,-8
-6,-5,1,6,-4,-2,9,22,11,-3,-10,-8
-7,-6,2,6,-4,-2,9,22,11,-3,-10,-8
-8,-6,3,7,-5,-2,10,22,11,-3,-10,-8
-9,-6,4,7,-6,-1,10,22,11,-3,-9,-7
-10,-6,4,7,-6,-1,10,22,11,-3,-9,-7
-9,-7,3,7,-5,-2,10,21,10,-4,-10,-8
-9,-7,1,7,-4,-3,9,20,9,-5,-10,-9
-8,-7,1,7,-4,-3,9,20,9,-5,-11,-9
-8,-7,0,7,-4,-3,9,20,8,-6,-11,-9
-8,-8,0,7,-4,-4,9,19,8,-6,-12,-10
-8,-8,0,8,-4,-4,9,19,8,-6,-12,-10
-9,-9,1,9,-5,-4,9,19,7,-6,-13,-10
-10,-10,1,10,-5,-4,9,18,7,-7,-13,-10
-11,-10,1,10,-6,-4,9,18,6,-7,-13,-10
-11,-9,1,10,-6,-4,10,18,6,-7,-13,-9
-10,-9,1,10,-6,-4,10,18,6,-7,-13,-9
-10,-9,1,10,-6,-4,10,17,5,-8,-13,-10
-10,-9,0,10,-5,-4,10,17,4,-9,-14,-10
-9,-9,1,9,-5,-4,11,17,4,-9,-14,-10
-9,-8,1,8,-5,-4,11,17,4,-9,-14,-10
-10,-9,1,9,-5,-4,11,17,4,-9,-14,-11
-10,-9,1,9,-5,-4,11,17,4,-9,-14,-11
-10,-8,1,9,-5,-4,11,17,4,-9,-14,-11
-10,-8,2,9,-6,-4,12,17,4,-9,-14,-11
-10,-8,2,9,-6,-4,12,17,4,-9,-14,-11
-10,-9,1,9,-6,-4,11,16,3,-9,-14,-11
-10,-9,1,9,-5,-4,11,16,3,-10,-15,-12
-10,-10,0,9,-5,-4,10,15,2,-10,-16,-12
-11,-10,1,10,-6,-4,10,15,2,-10,-16,-12
-12,-9,3,10,-8,-3,10,15,2,-10,-15,-12
-12,-9,3,11,-8,-3,10,15,2,-10,-15,-12
-12,-9,3,11,-8,-3,10,15,2,-11,-15,-12
-12,-8,3,10,-8,-2,11,15,2,-11,-15,-12
-12,-8,3,10,-8,-2,11,15,2,-11,-15,-12
-11,-8,3,10,-7,-2,11,15,2,-11,-15,-12
-10,-8,1,10,-6,-3,11,15,2,-11,-16,-12
-9,-9,0,9,-5,-4,11,15,1,-12,-16,-12
-9,-9,-1,9,-4,-5,10,15,0,-12,-17,-12
-9,-10,-1,10,-4,-6,10,14,0,-13,-17,-13
-11,-11,0,11,-5,-6,10,14,0,-13,-16,-13
-12,-12,0,12,-6,-6,10,14,0,-13,-16,-13
-12,-12,0,12,-6,-6,11,15,0,-13,-16,-14
-13,-12,1,12,-7,-5,13,18,1,-13,-16,-14
-14,-11,2,12,-8,-4,18,24,3,-11,-16,-13
-15,-10,5,12,-10,-3,24,31,7,-9,-15,-13
-14,-8,7,11,-11,0,32,40,12,-7,-13,-12
-13,-5,8,9,-11,2,39,46,17,-5,-12,-11
-12,-3,10,7,-11,3,45,48,19,-3,-10,-11
-13,-1,12,6,-13,5,49,44,21,-1,-9,-10
-13,1,15,5,-14,8,50,35,21,0,-7,-9
-12,3,16,4,-14,10,46,21,19,2,-5,-7
-10,6,16,2,-13,11,36,0,15,5,-2,-5
-7,9,17,-1,-12,12,20,-28,9,8,1,-1
-4,13,18,-5,-11,15,-2,-62,1,11,5,4
0,20,20,-10,-10,19,-28,-98,-7,15,11,9
4,26,21,-15,-9,23,-55,-133,-17,19,17,15
7,30,22,-18,-8,26,-81,-168,-29,21,23,21
11,32,21,-22,-6,26,-106,-205,-43,23,29,27
17,34,17,-26,-1,26,-133,-242,-58,25,35,33
23,37,14,-30,4,25,-162,-278,-72,29,41,39
30,39,11,-35,9,25,-191,-311,-85,33,49,47
37,43,8,-40,15,25,-217,-343,-98,38,57,56
44,48,5,-46,20,26,-241,-373,-111,43,66,64
51,53,3,-52,24,27,-262,-402,-124,48,75,73
57,59,2,-58,27,30,-280,-429,-137,53,84,82
63,65,1,-64,31,32,-295,-452,-148,58,93,90
69,69,0,-69,34,34,-305,-470,-158,62,101,98
74,72,-1,-73,38,35,-313,-483,-165,66,108,105
78,74,-2,-76,40,35,-317,-493,-172,69,114,111
80,75,-3,-77,41,36,-317,-499,-180,71,119,116
83,76,-5,-80,44,35,-315,-504,-191,71,122,120
87,78,-8,-82,47,34,-312,-508,-203,71,125,123
90,79,-11,-84,50,34,-308,-510,-216,70,128,127
91,79,-13,-85,51,33,-304,-511,-229,68,132,131
92,77,-14,-85,53,31,-299,-511,-242,65,134,134
92,75,-16,-84,54,29,-293,-509,-256,59,136,137
91,72,-18,-82,54,27,-287,-506,-270,53,137,139
90,70,-19,-80,55,25,-282,-504,-283,45,137,141
90,68,-21,-79,55,23,-279,-503,-297,36,136,142
89,67,-22,-78,56,22,-275,-504,-312,25,135,143
88,66,-22,-77,55,21,-271,-504,-326,14,134,144
85,65,-21,-75,53,21,-266,-502,-337,2,132,144
82,63,-20,-73,51,21,-260,-497,-347,-10,130,144
80,60,-20,-70,50,20,-255,-490,-355,-23,128,144
77,57,-19,-67,48,19,-248,-481,-360,-34,125,143
73,53,-19,-63,46,17,-241,-470,-361,-43,122,142
71,50,-19,-60,45,16,-233,-457,-357,-48,121,142
69,48,-20,-58,44,14,-225,-441,-348,-48,120,141
66,45,-21,-55,44,11,-217,-424,-335,-45,120,140
63,42,-22,-52,43,9,-208,-405,-318,-39,121,139
61,40,-22,-51,42,8,-198,-386,-299,-30,123,139
60,37,-23,-49,42,6,-188,-366,-280,-21,125,138
60,34,-25,-47,43,4,-178,-346,-260,-13,126,137
59,31,-26,-45,43,2,-168,-323,-239,-3,127,136
58,29,-27,-43,43,1,-158,-299,-216,7,130,136
57,28,-28,-42,42,0,-148,-273,-192,18,132,137
55,27,-28,-41,41,0,-138,-247,-170,28,135,137
54,25,-28,-40,41,-1,-128,-221,-149,36,136,136
52,23,-30,-38,41,-3,-117,-197,-130,41,135,133
51,20,-31,-35,41,-6,-106,-174,-114,43,131,129
48,15,-33,-32,41,-9,-95,-152,-101,43,125,123
45,9,-35,-27,40,-13,-84,-131,-89,40,116,115
42,2,-39,-22,40,-18,-72,-111,-79,35,105,106
38,-5,-42,-16,40,-23,-61,-91,-71,29,93,95
34,-12,-46,-11,40,-28,-50,-73,-64,21,79,83
30,-18,-48,-6,39,-33,-40,-57,-58,12,65,71
23,-24,-47,0,35,-36,-28,-41,-52,3,51,58
15,-29,-45,7,29,-37,-17,-26,-46,-4,37,46
9,-33,-43,12,25,-38,-7,-14,-41,-12,24,35
7,-35,-42,14,24,-38,0,-5,-36,-19,12,24
5,-36,-40,16,22,-38,6,3,-32,-25,2,15
2,-36,-36,17,19,-36,12,10,-29,-29,-7,7
-1,-36,-32,19,15,-34,17,16,-26,-34,-15,-1
-6,-35,-28,20,11,-32,22,21,-23,-37,-22,-8
-11,-34,-22,23,5,-29,26,27,-18,-38,-27,-13
-16,-32,-17,24,0,-25,30,32,-13,-38,-29,-17
-18,-30,-12,24,-3,-21,33,37,-8,-36,-30,-20
-20,-28,-7,24,-7,-17,36,42,-3,-35,-31,-22
-23,-26,-2,25,-11,-14,39,46,1,-33,-32,-24
-26,-25,2,26,-14,-11,42,50,5,-31,-32,-26
-29,-25,6,27,-17,-9,45,54,8,-30,-33,-28
-30,-24,8,27,-19,-7,46,56,9,-29,-34,-30
-32,-23,10,27,-21,-6,48,59,10,-29,-34,-32
-33,-23,11,28,-22,-6,49,61,12,-29,-35,-33
-35,-22,12,28,-24,-5,50,62,13,-28,-35,-33
-36,-22,13,29,-25,-4,51,63,15,-28,-35,-34
-36,-21,15,29,-26,-3,52,64,16,-28,-35,-34
-37,-20,17,29,-27,-1,54,66,18,-27,-34,-33
-37,-19,19,28,-28,0,55,68,20,-26,-34,-33
-37,-18,21,27,-29,1,56,71,21,-24,-33,-33
-37,-16,22,26,-29,3,58,73,23,-23,-32,-32
-37,-14,22,25,-30,4,59,75,25,-22,-32,-32
-37,-13,22,25,-30,4,59,76,26,-22,-31,-32
-36,-13,23,24,-30,5,60,77,27,-22,-31,-32
-37,-12,24,24,-31,6,61,78,28,-21,-31,-32
-37,-12,26,24,-32,7,63,79,29,-20,-30,-31
-37,-12,27,24,-32,8,64,81,30,-20,-30,-32
-37,-12,27,24,-32,8,65,82,31,-19,-31,-32
-37,-11,27,24,-32,8,67,84,32,-19,-31,-33
-37,-9,27,23,-32,9,69,86,33,-18,-30,-32
-37,-8,28,22,-32,10,71,88,35,-17,-30,-32
-36,-7,29,22,-33,11,73,90,36,-17,-29,-31
-36,-6,29,21,-33,11,75,92,37,-16,-29,-31
-37,-7,30,22,-34,12,77,93,38,-16,-30,-32
-39,-8,32,23,-35,12,78,94,38,-16,-30,-32
-39,-8,33,24,-36,12,78,95,39,-16,-30,-32
-39,-7,32,23,-36,12,75,96,39,-16,-30,-33
-38,-7,32,23,-36,12,72,97,39,-16,-30,-33
-38,-7,31,23,-35,12,71,98,40,-16,-31,-34
-37,-7,30,23,-34,12,69,99,41,-17,-31,-35
-36,-6,30,22,-33,12,68,100,42,-17,-32,-35
-36,-5,31,21,-33,13,67,103,43,-16,-31,-34
-36,-5,32,21,-34,14,67,106,45,-15,-31,-34
-38,-5,33,21,-35,14,68,109,47,-14,-30,-33
-39,-6,33,22,-35,14,69,113,49,-13,-30,-33
-39,-7,32,23,-35,13,70,116,50,-13,-30,-34
-39,-8,31,24,-35,12,72,119,52,-13,-31,-34
-40,-9,31,25,-36,11,74,122,54,-12,-31,-34
-40,-10,30,25,-36,11,76,125,55,-12,-31,-35
-40,-11,29,26,-35,10,77,128,57,-12,-32,-35
-39,-12,27,26,-33,8,78,130,58,-12,-33,-36
-38,-12,25,25,-31,6,79,133,59,-12,-34,-37
-37,-13,24,25,-30,5,79,135,60,-12,-35,-38
-37,-13,24,25,-30,5,80,138,62,-12,-35,-39
-38,-13,25,26,-31,5,82,142,64,-12,-36,-39
-39,-14,25,26,-32,6,83,145,66,-12,-36,-39
-40,-14,25,27,-33,5,85,147,67,-12,-36,-40
-40,-15,25,27,-33,5,86,149,69,-12,-37,-41
-40,-16,24,28,-33,4,87,152,70,-11,-38,-41
-40,-16,24,28,-33,4,88,155,72,-11,-38,-42
-41,-16,25,29,-33,5,89,159,73,-11,-39,-42
-41,-17,25,29,-33,5,90,162,75,-11,-39,-43
-42,-18,25,30,-33,4,91,165,77,-11,-40,-44
-42,-18,25,30,-33,4,92,168,79,-11,-41,-45
-42,-18,25,29,-33,3,94,170,81,-11,-42,-46
-41,-17,24,29,-33,3,95,173,84,-11,-42,-47
-41,-17,24,29,-33,3,96,176,86,-10,-42,-47
-41,-17,25,29,-33,3,97,180,89,-9,-43,-48
-42,-17,25,30,-34,4,98,183,91,-9,-43,-48
-42,-17,26,30,-34,4,99,186,94,-8,-43,-49
-42,-17,26,30,-34,4,100,189,96,-7,-44,-50
-42,-17,26,30,-34,4,101,191,98,-7,-44,-52
-43,-17,26,30,-35,5,102,194,101,-6,-44,-53
-44,-17,28,31,-37,6,104,197,104,-4,-44,-53
-48,-17,31,33,-40,7,106,200,108,-2,-43,-52
-52,-18,36,35,-45,9,108,204,112,0,-42,-52
-55,-18,38,37,-47,10,109,207,116,2,-41,-51
-54,-17,38,36,-46,10,110,209,118,3,-40,-51
-51,-17,36,34,-44,10,109,211,120,5,-40,-52
-50,-16,35,33,-42,10,109,212,123,6,-40,-52
-49,-15,35,32,-42,11,109,214,126,8,-39,-52
-48,-14,35,31,-42,11,109,214,129,11,-38,-52
-46,-13,34,29,-40,11,108,214,131,13,-37,-52
-44,-12,33,28,-38,11,107,214,133,15,-37,-52
-42,-11,33,27,-37,11,106,214,135,17,-36,-51
-42,-10,33,26,-37,11,105,214,137,19,-34,-50
-42,-9,33,25,-37,11,104,214,138,21,-32,-49
-42,-8,34,25,-38,12,103,213,140,24,-30,-48
-42,-7,35,25,-39,14,102,211,142,27,-27,-46
-41,-6,36,24,-39,15,100,209,143,30,-25,-44
-40,-4,36,23,-39,16,98,206,144,32,-23,-43
-40,-3,37,22,-39,17,96,203,145,34,-21,-41
-39,-2,37,21,-38,17,93,200,145,36,-19,-39
-37,-1,37,19,-38,18,90,196,144,38,-17,-37
-36,0,37,18,-37,18,87,192,143,40,-15,-35
-35,1,37,17,-36,19,84,187,142,42,-12,-33
-33,3,37,15,-36,20,80,182,141,44,-9,-30
-32,4,37,14,-35,21,77,176,139,45,-7,-28
-31,5,37,13,-34,21,73,170,137,46,-5,-26
-30,6,38,12,-34,22,69,164,134,47,-3,-24
-30,8,38,11,-34,23,66,158,132,49,0,-21
-29,9,38,10,-33,23,63,152,129,50,1,-19
-27,10,38,8,-32,24,59,145,125,50,3,-17
-24,11,37,6,-31,24,55,138,121,50,5,-15
-22,12,36,4,-30,24,52,131,117,50,7,-13
-22,13,37,4,-30,25,50,125,113,50,10,-11
-25,14,40,5,-33,27,47,119,109,51,12,-8
-26,14,41,6,-34,28,45,113,104,50,13,-6
-25,13,40,5,-33,27,42,106,99,48,13,-5
-23,13,37,4,-30,25,38,98,93,46,12,-5
-21,13,35,3,-28,24,35,92,87,43,12,-4
-19,14,34,2,-26,24,33,86,82,42,13,-3
-17,15,34,1,-26,25,32,82,78,41,14,-2
-17,15,34,1,-26,25,30,77,73,39,14,-1
-17,15,33,1,-25,24,29,71,68,37,14,-1
-16,14,31,0,-24,23,27,66,63,34,13,-1
-15,14,30,0,-22,22,26,61,59,31,12,-1
-14,14,29,0,-21,22,26,57,54,28,11,-1
-14,14,28,0,-21,21,25,53,50,26,10,-2
-15,13,28,1,-21,21,25,50,47,25,9,-2
-15,13,29,1,-22,21,26,47,44,23,9,-2
-15,13,30,1,-23,22,26,45,41,22,9,-2
-15,13,30,1,-23,22,27,43,39,21,9,-2
-15,14,30,0,-23,22,27,41,37,20,9,-2
-15,14,30,0,-23,23,27,39,35,18,9,-1
-16,14,30,0,-23,23,27,37,33,17,8,-1
-16,13,30,1,-23,22,27,34,30,15,7,-2
-16,12,28,2,-22,20,25,31,26,13,6,-2
-16,10,27,3,-22,19,23,29,23,11,4,-3
-17,9,27,3,-22,18,20,26,21,10,3,-4
-17,9,26,3,-21,17,15,24,20,9,3,-4
-16,9,25,3,-20,17,11,21,18,7,2,-4
-15,9,25,2,-20,17,8,19,17,6,2,-5
-16,9,25,2,-20,18,6,17,15,5,2,-5
-16,10,26,2,-21,18,5,16,14,4,2,-4
-15,10,25,2,-20,18,3,15,13,4,2,-4
-14,11,25,1,-19,18,1,14,12,4,2,-4
-13,11,25,1,-19,18,0,14,11,4,2,-4
-13,11,25,1,-19,18,-1,13,11,4,2,-4
-13,10,24,1,-19,18,-1,12,10,3,1,-5
-13,10,24,1,-19,17,-1,12,10,2,1,-5
-15,9,24,2,-19,17,-1,12,9,2,1,-5
-16,8,24,3,-20,16,0,12,9,2,1,-5
-16,7,23,3,-19,16,0,12,9,1,1,-5
-14,7,21,3,-18,15,0,11,8,0,0,-5
-13,6,20,3,-17,14,1,11,7,0,0,-6
-13,5,19,3,-17,13,2,12,7,-1,0,-6
-13,5,19,4,-16,12,2,12,7,-1,0,-6
-13,4,18,4,-16,11,2,12,7,-1,-1,-7
-14,2,18,5,-16,10,2,12,6,-1,-1,-7
-15,1,18,6,-17,10,2,12,6,-1,-1,-7
-16,0,18,7,-17,9,2,12,6,-1,-1,-7
-15,0,17,7,-17,9,3,12,6,-1,-1,-7
-15,0,17,7,-16,9,3,12,5,-2,-2,-7
-14,0,16,7,-15,8,3,12,5,-2,-2,-8
-14,0,15,6,-15,7,4,12,5,-2,-3,-8
-12,1,14,5,-14,7,4,12,5,-2,-3,-8
-11,2,13,4,-13,8,4,12,5,-2,-3,-8
-10,3,13,3,-12,8,5,13,5,-2,-2,-7
-11,3,15,3,-13,9,6,13,6,-1,-2,-6
-14,3,17,5,-16,11,8,14,8,0,-1,-5
-17,3,20,7,-19,12,9,15,9,1,0,-4
-18,2,21,8,-20,12,9,16,9,1,0,-4
-18,2,20,8,-19,11,9,15,8,1,0,-4
-16,1,18,7,-17,9,8,14,7,0,-1,-5
-13,1,15,5,-14,8,7,14,6,-1,-2,-6
-11,1,13,4,-12,7,6,13,6,-1,-3,-7
-10,1,12,4,-11,7,6,13,6,-2,-3,-7
-10,0,12,4,-11,7,6,12,6,-2,-3,-8
-9,0,11,4,-10,6,6,12,5,-2,-4,-8
-8,1,10,4,-10,6,6,12,5,-2,-4,-8
-8,1,10,4,-10,6,6,12,5,-2,-4,-8
-9,0,10,4,-11,6,6,12,5,-2,-4,-8
-9,0,10,4,-11,6,6,12,5,-2,-4,-8
-10,0,10,5,-11,6,6,12,5,-2,-4,-8
-10,-1,10,5,-11,5,6,11,5,-2,-4,-8
-10,-1,10,6,-10,5,6,11,5,-2,-4,-8
-10,-1,9,6,-10,4,5,10,5,-2,-5,-8
-10,-1,8,6,-9,4,5,10,5,-2,-5,-9
-10,-1,8,6,-9,3,4,10,5,-2,-5,-9
-10,-2,8,6,-9,3,4,10,4,-2,-5,-9
-11,-2,8,6,-10,3,4,10,4,-3,-5,-9
-11,-2,8,6,-10,3,4,10,4,-3,-5,-9
-11,-2,8,6,-10,3,5,10,4,-3,-5,-9
-10,-2,8,6,-9,3,5,10,4,-3,-5,-10
-10,-3,7,6,-8,2,5,10,4,-3,-6,-10
-9,-3,7,6,-8,2,5,10,4,-4,-6,-10
-10,-3,7,6,-9,3,5,10,4,-3,-6,-10
-11,-3,8,7,-10,3,6,10,4,-3,-6,-10
-11,-3,9,7,-10,3,7,10,4,-3,-6,-10
-12,-3,9,7,-10,2,8,10,4,-3,-6,-10
-12,-3,9,8,-11,3,8,10,4,-3,-6,-10
-13,-3,10,8,-12,3,9,10,5,-3,-6,-10
-13,-3,10,8,-12,4,10,11,5,-3,-6,-10
-12,-2,10,7,-11,5,11,11,6,-2,-6,-10
-12,-2,10,7,-11,5,12,11,6,-2,-6,-10
-12,-2,10,8,-11,4,13,11,5,-3,-6,-10
-13,-3,10,9,-12,3,14,11,5,-3,-7,-11
-13,-3,10,8,-12,3,15,12,5,-3,-7,-11
-13,-2,11,7,-12,5,17,12,6,-3,-6,-10
-13,-1,12,7,-13,6,18,13,6,-2,-6,-10
-13,-1,12,6,-13,6,20,13,7,-2,-6,-10
-13,-1,12,6,-12,6,21,13,7,-2,-6,-10
-12,0,12,6,-12,7,23,14,7,-2,-5,-10
-12,0,13,5,-13,8,24,14,7,-1,-5,-9
-12,2,14,5,-13,9,24,14,8,-1,-5,-9
-10,3,14,3,-12,9,22,14,8,0,-5,-8
-9,5,14,2,-12,10,19,14,8,0,-4,-8
-8,7,15,0,-12,11,16,13,9,0,-3,-7
-7,9,17,-1,-12,13,14,12,9,1,-3,-6
-7,10,18,-2,-12,14,12,11,9,2,-2,-6
-8,11,19,-1,-13,16,10,10,9,2,-2,-5
-9,11,21,-1,-14,17,8,10,10,3,-1,-5
-9,12,21,-1,-15,17,7,9,10,3,-1,-4
-8,12,21,-1,-14,16,6,9,10,3,-1,-4
-8,12,20,-2,-14,16,5,10,10,3,0,-4
-7,12,18,-2,-13,15,5,10,10,3,0,-3
-6,11,17,-3,-12,14,5,11,10,3,0,-3
-6,10,16,-2,-11,13,4,11,10,3,0,-3
-6,9,15,-1,-11,12,4,12,10,3,0,-3
-7,8,15,-1,-11,12,4,12,11,4,0,-2
-7,7,15,0,-11,11,4,12,11,5,0,-2
-7,6,14,0,-10,10,4,12,11,4,0,-2
-7,5,12,0,-9,9,4,12,10,4,0,-2
-6,4,10,0,-8,7,4,12,9,3,0,-3
-6,3,9,1,-7,6,4,12,9,3,0,-3
-5,2,7,1,-6,5,4,13,9,3,0,-3
-4,2,6,0,-5,4,4,13,9,3,-1,-3
-2,2,5,0,-3,4,4,13,9,3,-1,-3
-1,2,4,-1,-2,3,5,13,9,3,-1,-3
0,2,4,-1,-2,3,5,13,9,3,-1,-3
0,1,3,-1,-1,2,5,13,9,2,-1,-3
0,1,2,-1,-1,2,5,13,8,2,-2,-4
-1,0,2,0,-1,1,6,13,8,2,-2,-4
-2,0,2,0,-2,1,6,13,8,2,-2,-4
-3,-1,2,1,-2,1,6,13,7,2,-2,-4
-3,-1,2,2,-3,1,6,12,7,2,-2,-4
-3,-1,2,2,-3,1,6,12,7,2,-2,-4
-4,-1,3,2,-3,1,7,12,7,2,-2,-4
-4,-1,3,2,-3,1,7,12,7,1,-2,-4
-4,-1,3,2,-3,0,7,12,6,1,-2,-4
-4,-2,2,2,-3,0,6,11,6,0,-2,-4
-4,-2,2,3,-3,0,6,11,5,0,-2,-4
-4,-3,1,4,-2,0,6,10,5,0,-3,-4
-3,-4,0,4,-1,-1,5,10,4,-1,-4,-4
-3,-5,-1,4,-1,-2,5,9,3,-2,-4,-5
-4,-6,-2,4,-1,-3,5,8,2,-2,-5,-5
-4,-6,-2,4,0,-4,5,8,2,-3,-5,-5
-3,-5,-2,3,0,-3,5,8,2,-3,-5,-5
-2,-4,-2,2,0,-3,5,8,2,-2,-5,-5
-2,-4,-2,2,0,-3,5,7,2,-2,-5,-5
-3,-5,-2,3,0,-3,4,7,1,-3,-6,-6
-3,-5,-2,4,0,-3,4,7,1,-3,-6,-6
-2,-5,-2,4,0,-3,4,6,1,-3,-6,-6
-2,-5,-2,4,0,-3,4,6,0,-4,-6,-6
-3,-6,-2,5,0,-3,4,5,0,-4,-6,-6
-5,-6,-1,6,-2,-3,4,5,0,-5,-6,-6
-5,-6,0,6,-3,-3,5,5,0,-4,-6,-6
-5,-4,1,5,-3,-1,6,6,0,-3,-5,-5
-5,-3,2,4,-4,0,7,7,1,-3,-5,-5
-5,-3,2,4,-4,0,7,7,0,-3,-5,-5
-5,-4,1,4,-3,-1,6,6,0,-4,-6,-6
-5,-4,1,4,-3,-1,5,5,0,-5,-6,-7
-4,-3,1,4,-3,0,6,6,0,-4,-6,-7
-5,-3,2,4,-4,0,6,6,0,-4,-6,-6
-6,-3,2,5,-5,0,6,6,0,-4,-6,-6
-7,-4,3,5,-5,0,6,6,0,-4,-6,-6
-7,-4,3,6,-6,0,7,6,0,-4,-6,-6
-7,-5,3,6,-5,0,7,6,0,-5,-6,-7
-7,-5,2,6,-5,-1,7,6,0,-6,-7,-8
-7,-6,2,6,-5,-1,7,5,-1,-6,-8,-8
-7,-6,1,7,-5,-2,8,6,-1,-6,-8,-8
-7,-6,1,7,-4,-2,9,6,-1,-6,-8,-8
-6,-6,0,6,-3,-2,9,7,-1,-6,-8,-9
-6,-7,0,7,-3,-3,9,7,-1,-6,-8,-9
-7,-7,0,7,-4,-3,9,7,-1,-6,-8,-9
-8,-6,1,8,-5,-2,10,7,0,-6,-8,-9
-9,-4,4,7,-6,0,11,8,1,-5,-7,-8
-7,-1,5,5,-6,2,12,9,2,-4,-6,-7
-6,0,6,3,-6,4,13,10,3,-3,-5,-6
-7,1,9,3,-8,5,14,11,4,-2,-4,-5
-9,2,11,3,-10,7,15,11,5,-1,-3,-5
-9,3,12,3,-11,8,16,10,5,0,-3,-4
-9,3,12,3,-11,8,17,10,5,0,-3,-4
-9,3,13,3,-11,8,18,10,5,0,-2,-4
-8,3,13,2,-11,9,19,10,5,0,-2,-4
-7,4,12,2,-10,9,19,9,5,-1,-3,-4
-7,4,12,2,-9,8,19,9,4,-1,-3,-5
-7,4,11,2,-9,8,19,9,4,-2,-4,-5
-6,4,11,1,-8,7,17,8,4,-2,-4,-5
-6,4,10,1,-8,7,13,7,3,-2,-4,-5
-6,4,11,1,-8,8,10,6,3,-2,-4,-5
-7,4,12,1,-9,8,8,6,3,-2,-3,-5
-7,4,12,2,-10,9,6,5,3,-2,-3,-5
-7,5,13,1,-10,9,5,5,4,-2,-3,-4
-6,6,13,0,-9,10,4,5,4,-1,-2,-4
-5,7,12,0,-8,10,3,5,4,-1,-2,-4
-4,7,10,0,-7,9,1,5,4,-1,-2,-4
-3,6,9,-1,-6,8,0,5,4,-1,-2,-4
-3,5,8,-1,-6,7,0,5,4,-1,-2,-4
-4,4,8,0,-6,6,0,5,4,-1,-2,-4
-5,3,7,1,-6,5,0,6,4,-1,-2,-4
-5,1,7,2,-6,4,0,6,4,-1,-2,-4
-6,0,7,3,-6,4,0,6,4,-1,-2,-3
-6,0,6,3,-6,3,1,7,4,0,-2,-3
-5,0,5,3,-5,3,1,8,4,0,-2,-3
-5,-1,3,3,-4,2,1,8,4,-1,-2,-3
-4,-1,2,3,-3,1,1,8,4,-1,-2,-4
-3,-2,0,3,-2,0,1,8,4,-1,-2,-4
-3,-2,0,3,-2,0,1,8,4,-1,-3,-4
-3,-2,0,3,-2,-1,1,7,3,-2,-3,-4
-3,-3,0,3,-2,-1,1,7,2,-2,-4,-5
-3,-4,-1,3,-1,-2,1,6,2,-3,-4,-5
-3,-5,-2,4,0,-3,0,6,1,-3,-4,-6
-3,-6,-2,4,0,-4,0,6,1,-4,-4,-6
-4,-6,-3,5,0,-4,0,6,1,-4,-4,-6
-5,-7,-3,6,-1,-4,0,6,1,-4,-4,-6
-6,-7,-3,6,-1,-4,0,5,1,-4,-4,-6
-6,-7,-3,6,-1,-4,0,5,0,-4,-5,-6
-7,-7,-2,7,-2,-4,0,5,0,-4,-5,-6
-9,-8,0,8,-4,-3,1,6,0,-3,-4,-5
-10,-8,0,9,-5,-3,1,6,0,-3,-4,-5
-9,-9,-1,9,-3,-5,0,5,0,-4,-5,-6
-7,-9,-3,9,-1,-6,0,4,-1,-5,-6,-7
-6,-9,-3,8,0,-6,0,4,-1,-5,-7,-7
-5,-8,-4,7,0,-6,0,4,-1,-5,-7,-7
-6,-9,-4,8,0,-6,0,4,-1,-5,-7,-7
-6,-9,-4,8,-1,-6,0,3,-2,-6,-7,-8
-7,-9,-4,8,-1,-6,0,3,-3,-6,-7,-8
-8,-10,-2,9,-2,-6,0,3,-3,-6,-7,-7
-9,-10,-1,10,-3,-6,0,3,-3,-6,-7,-7
-9,-11,-1,10,-3,-6,0,2,-3,-7,-7,-8
-8,-11,-3,9,-2,-6,0,2,-3,-7,-7,-8
-7,-11,-4,9,-1,-7,0,1,-3,-8,-8,-8
-7,-11,-5,9,0,-7,0,1,-4,-8,-8,-8
-7,-12,-5,9,0,-8,0,1,-4,-9,-8,-8
-7,-12,-5,9,0,-8,0,0,-5,-9,-9,-9
-7,-12,-5,10,0,-9,0,0,-6,-10,-9,-9
-8,-13,-6,11,0,-10,0,0,-7,-10,-10,-10
-9,-14,-6,12,-1,-10,0,0,-7,-11,-10,-10
-10,-14,-5,12,-2,-10,0,0,-6,-11,-10,-10
-11,-14,-5,12,-3,-9,1,0,-6,-11,-10,-10
-12,-14,-4,13,-4,-9,1,1,-6,-11,-10,-10
-13,-14,-2,13,-5,-8,2,1,-6,-11,-10,-10
-13,-13,-2,13,-5,-8,2,1,-6,-10,-10,-10
-11,-12,-2,12,-4,-8,1,1,-6,-10,-10,-10
-10,-11,-2,11,-4,-7,1,1,-6,-10,-10,-10
-10,-10,-1,10,-4,-6,2,1,-5,-9,-9,-10
-11,-10,0,10,-5,-5,2,1,-4,-9,-9,-10
-12,-10,1,11,-6,-4,3,1,-4,-9,-9,-10
-12,-9,1,11,-6,-3,3,1,-4,-9,-9,-10
-11,-9,1,10,-6,-3,3,1,-4,-9,-9,-10
-11,-9,1,10,-5,-4,3,1,-4,-9,-9,-10
-10,-9,1,10,-6,-4,3,1,-4,-9,-9,-10
-11,-9,1,10,-6,-4,3,1,-4,-8,-9,-10
-12,-9,2,11,-7,-3,4,2,-4,-8,-9,-10
-13,-9,3,11,-8,-3,4,2,-3,-8,-9,-10
-13,-9,3,11,-8,-2,4,3,-3,-8,-9,-9
-12,-8,4,10,-8,-1,5,3,-2,-7,-8,-9
-12,-7,4,10,-8,-1,5,4,-1,-7,-8,-9
-12,-6,5,9,-8,0,6,4,0,-6,-7,-9
-12,-6,6,9,-8,0,7,5,0,-6,-7,-8
-14,-6,8,10,-11,1,9,6,0,-5,-6,-8
-17,-5,11,11,-14,3,11,7,1,-4,-5,-7
-18,-4,13,11,-15,4,12,8,2,-3,-5,-6
-17,-3,13,10,-15,5,13,8,3,-3,-5,-6
-17,-3,13,10,-15,5,14,8,3,-3,-4,-6
-17,-3,13,10,-15,5,15,9,3,-3,-4,-6
-15,-2,12,9,-13,5,16,9,3,-3,-5,-6
-12,-1,11,7,-12,5,17,8,3,-3,-5,-7
-11,0,11,6,-11,5,18,8,3,-3,-6,-7
-11,0,11,6,-11,6,19,8,3,-3,-6,-7
-11,0,12,5,-12,6,18,8,3,-3,-6,-7
-11,1,13,5,-12,6,16,8,3,-3,-5,-7
-12,2,14,4,-13,8,13,8,4,-2,-5,-6
-13,3,16,5,-14,10,11,8,4,-1,-4,-5
-13,4,17,5,-14,11,9,8,5,-1,-3,-5
-11,5,16,3,-13,12,7,7,5,-1,-3,-5
-8,7,15,1,-11,12,5,7,5,-1,-2,-5
-6,8,15,0,-10,12,4,7,5,0,-2,-4
-5,8,14,-1,-10,11,3,7,5,0,-2,-4
-5,8,13,-1,-9,11,2,7,5,0,-2,-4
-5,8,13,-1,-9,10,1,8,5,0,-2,-4
-5,8,13,-1,-9,10,1,9,6,0,-2,-4
-6,7,13,0,-9,10,1,10,7,0,-1,-4
-5,6,11,0,-8,8,1,10,7,0,-2,-4
-4,5,9,0,-6,7,0,10,6,0,-2,-4
-3,4,8,0,-5,6,0,10,6,0,-2,-4
-3,3,7,0,-4,5,0,10,6,0,-2,-4
-2,2,5,0,-3,5,1,11,6,0,-2,-4
-2,2,4,0,-3,4,1,11,7,0,-2,-4
-3,2,4,1,-3,4,2,12,7,0,-2,-4
-4,1,4,2,-4,3,2,13,7,0,-2,-4
-5,1,5,2,-4,3,3,13,7,0,-2,-4
-4,0,4,2,-3,2,3,13,7,0,-2,-4
-2,0,1,1,-1,0,3,13,6,0,-3,-4
-1,0,0,1,0,0,3,13,6,-1,-3,-5
0,-1,-1,1,1,-1,3,13,6,-1,-3,-5
0,-1,-2,1,1,-1,2,12,5,-1,-4,-5
0,-2,-3,1,1,-2,2,12,5,-2,-4,-6
0,-2,-3,1,2,-2,2,11,5,-2,-5,-7
0,-2,-3,1,2,-3,2,11,4,-2,-5,-7
0,-2,-4,1,2,-3,1,11,4,-2,-5,-7
1,-3,-5,1,3,-4,1,11,4,-2,-6,-7
1,-4,-5,1,4,-5,1,11,4,-2,-5,-7
0,-4,-5,2,3,-4,2,12,4,-2,-5,-6
0,-4,-4,2,2,-4,2,12,4,-2,-5,-6
0,-4,-5,2,2,-5,2,12,4,-3,-5,-7
0,-5,-6,2,3,-5,2,12,4,-3,-6,-7
0,-5,-6,3,3,-6,2,12,4,-3,-6,-7
0,-5,-6,3,3,-6,2,11,3,-3,-7,-7
0,-6,-6,3,3,-6,2,11,3,-4,-7,-8
0,-7,-6,4,3,-7,2,11,3,-4,-7,-8
0,-8,-7,4,4,-8,2,10,2,-4,-7,-8
0,-8,-8,4,4,-9,1,10,2,-5,-8,-9
1,-8,-9,4,5,-9,0,9,1,-5,-8,-9
1,-8,-10,4,5,-9,0,9,1,-5,-8,-9
1,-8,-10,4,5,-9,0,9,1,-5,-8,-8
2,-7,-10,3,6,-8,1,9,1,-4,-8,-8
3,-7,-10,2,7,-8,1,9,1,-4,-8,-8
4,-6,-10,2,7,-8,1,10,1,-4,-8,-8
4,-6,-10,2,7,-8,1,10,1,-4,-8,-8
4,-6,-10,1,7,-8,1,10,1,-4,-7,-8
4,-5,-10,1,7,-7,2,11,2,-4,-7,-8
3,-5,-9,1,6,-7,3,12,3,-4,-7,-8
1,-5,-7,2,4,-6,4,12,3,-4,-7,-8
0,-6,-6,3,3,-6,5,13,3,-4,-7,-8
-1,-6,-5,4,2,-5,6,13,3,-4,-7,-9
-2,-6,-5,4,1,-5,6,13,3,-4,-7,-9
-4,-7,-3,5,0,-5,7,13,3,-4,-7,-10
-6,-8,-2,7,-1,-4,8,13,4,-4,-8,-10
-8,-8,0,8,-3,-4,8,13,4,-4,-8,-10
-10,-9,0,9,-4,-4,9,13,4,-5,-8,-11
-11,-9,1,10,-5,-3,10,13,4,-5,-8,-11
-11,-9,1,10,-5,-3,11,13,4,-5,-8,-11
-9,-9,0,9,-4,-4,11,13,3,-5,-9,-11
-7,-9,-2,8,-2,-4,11,12,3,-5,-9,-12
-7,-8,-1,8,-3,-4,12,13,3,-4,-9,-11
-8,-8,0,8,-4,-3,13,14,4,-4,-8,-11
-9,-8,1,8,-5,-3,13,14,4,-4,-9,-10
-8,-8,1,8,-4,-3,14,14,4,-4,-9,-11
-8,-7,0,8,-4,-3,14,14,4,-4,-10,-11
-9,-7,0,8,-4,-3,15,14,5,-4,-10,-11
-9,-7,1,8,-5,-3,16,14,5,-4,-10,-11
-10,-7,2,8,-6,-2,17,14,5,-4,-10,-11
-10,-6,3,8,-6,-1,18,14,5,-4,-9,-11
-10,-6,4,8,-6,0,19,14,5,-4,-9,-11
-10,-5,4,7,-7,0,20,14,5,-4,-9,-11
-10,-4,5,7,-7,0,21,14,5,-4,-9,-11
-10,-4,5,7,-8,0,22,14,5,-4,-8,-11
-11,-4,6,8,-9,1,22,14,5,-4,-8,-11
-11,-3,7,8,-9,2,21,14,5,-4,-8,-10
-10,-2,7,7,-9,2,19,13,5,-4,-8,-10
-10,-2,8,6,-8,3,16,12,5,-4,-8,-10
-10,-2,9,6,-9,3,13,11,5,-4,-8,-10
-11,-1,9,6,-9,4,11,11,5,-4,-8,-10
-10,0,9,5,-9,4,8,10,5,-4,-8,-10
-8,1,9,4,-8,4,6,9,4,-4,-8,-10
-8,2,9,3,-8,5,5,9,4,-4,-8,-10
-8,2,9,3,-8,5,3,8,4,-4,-8,-10
-7,1,8,3,-7,4,1,8,3,-4,-9,-11
-7,1,7,3,-7,4,0,7,3,-5,-9,-11
-6,0,6,3,-6,4,0,7,3,-6,-9,-11
-7,0,6,3,-6,3,0,7,3,-6,-9,-10
-7,0,6,4,-6,3,0,8,3,-6,-9,-10
-6,0,4,3,-5,2,-1,8,3,-6,-9,-10
-4,-1,2,2,-3,0,-1,8,2,-6,-9,-10
-3,-1,1,2,-2,0,0,8,2,-6,-9,-10
-4,-2,1,3,-2,-1,0,9,3,-6,-9,-10
-5,-4,0,4,-2,-2,0,9,3,-6,-9,-10
-5,-5,0,5,-2,-2,0,9,3,-6,-9,-10
-5,-5,0,5,-2,-2,1,10,3,-6,-9,-10
-5,-5,0,5,-2,-3,1,10,3,-6,-9,-10
-3,-5,-2,5,0,-3,0,9,2,-6,-9,-10
-2,-5,-3,4,0,-4,0,9,2,-6,-9,-10
-1,-4,-3,3,0,-3,1,10,3,-5,-9,-9
-1,-4,-3,3,0,-3,1,10,3,-5,-9,-9
-1,-5,-3,3,1,-4,1,10,2,-5,-9,-9
-1,-5,-3,3,1,-4,1,10,2,-6,-9,-9
-2,-6,-3,4,0,-4,1,10,2,-6,-9,-9
-3,-6,-3,4,0,-4,1,10,2,-6,-9,-9
-2,-6,-5,4,1,-5,1,10,1,-6,-10,-10
-2,-7,-6,5,2,-7,1,9,1,-7,-10,-10
-2,-8,-7,5,2,-7,1,8,0,-8,-11,-11
-2,-8,-7,5,2,-8,1,8,0,-8,-11,-11
-2,-8,-7,5,2,-8,1,8,0,-8,-11,-11
-1,-8,-8,4,3,-8,0,8,0,-8,-11,-11
-1,-8,-8,4,4,-9,0,8,0,-8,-11,-11
-1,-8,-8,4,4,-9,0,8,0,-8,-11,-11
-1,-9,-8,4,4,-9,0,9,0,-8,-11,-11
-1,-9,-8,5,4,-9,0,9,0,-8,-11,-11
-1,-9,-8,5,4,-9,0,9,0,-8,-11,-10
-2,-10,-8,6,3,-9,0,9,0,-8,-11,-10
-3,-11,-8,7,2,-9,0,9,0,-8,-11,-10
-4,-12,-8,8,1,-9,1,9,0,-8,-11,-10
-5,-12,-8,8,1,-9,1,9,0,-8,-11,-10
-4,-12,-8,8,1,-9,1,9,0,-8,-11,-10
-3,-12,-9,7,3,-10,0,8,0,-9,-12,-11
0,-12,-11,6,5,-11,0,8,-1,-9,-12,-11
2,-11,-13,5,7,-12,0,7,-1,-10,-13,-12
3,-11,-14,4,8,-12,0,7,-1,-10,-13,-12
3,-12,-15,4,9,-13,0,7,-1,-10,-13,-12
4,-11,-15,3,10,-13,0,7,-1,-10,-13,-12
5,-10,-15,2,10,-12,-1,7,-1,-10,-13,-12
5,-9,-15,2,10,-11,-1,7,-1,-10,-13,-12
5,-9,-14,2,10,-11,-1,7,-2,-10,-13,-12
5,-9,-15,2,10,-12,-2,7,-2,-10,-13,-12
6,-10,-15,2,10,-12,-1,7,-2,-10,-13,-12
7,-9,-16,2,11,-12,-1,7,-2,-10,-13,-12
7,-8,-15,1,11,-11,0,9,0,-9,-12,-12
7,-6,-14,0,10,-10,1,10,1,-8,-11,-11
7,-5,-13,-1,10,-9,3,12,2,-7,-11,-11
7,-4,-12,-1,9,-8,7,16,4,-6,-10,-11
5,-4,-11,0,8,-8,11,22,7,-6,-10,-11
4,-4,-9,0,7,-7,17,29,9,-5,-10,-11
3,-5,-8,1,5,-7,24,36,12,-4,-10,-12
1,-5,-6,2,4,-6,31,41,15,-2,-10,-12
-1,-5,-4,3,1,-4,38,41,17,0,-9,-12
-4,-4,0,4,-2,-2,43,36,19,1,-8,-11
-7,-3,4,4,-5,1,45,26,18,3,-6,-10
-8,-1,7,4,-7,3,42,11,16,4,-4,-8
-6,1,7,2,-6,4,33,-11,11,6,-2,-6
-1,5,6,-2,-3,5,18,-42,4,8,1,-3
4,10,5,-7,0,7,-2,-79,-5,9,5,1
8,15,6,-11,1,10,-25,-117,-15,11,10,5
13,20,6,-16,3,12,-49,-154,-26,13,14,11
18,23,5,-20,6,14,-71,-189,-38,15,19,16
22,26,3,-24,9,14,-92,-224,-52,15,23,20
27,28,1,-28,13,15,-117,-260,-66,17,28,26
33,31,-1,-32,17,15,-145,-295,-79,19,35,33
39,35,-4,-37,22,16,-175,-327,-92,23,43,42
46,41,-6,-43,27,17,-202,-358,-104,26,51,50
54,46,-8,-50,31,19,-227,-387,-116,30,59,59
61,52,-9,-56,35,21,-248,-414,-128,35,67,68
68,59,-9,-63,39,24,-267,-439,-140,39,75,77
75,65,-10,-70,42,27,-283,-460,-150,43,83,85
81,70,-11,-76,46,29,-294,-476,-158,47,91,92
87,75,-13,-81,50,31,-302,-487,-165,51,99,100
92,78,-14,-86,54,32,-307,-495,-170,55,105,106
96,81,-15,-89,56,33,-309,-501,-177,57,111,112
100,84,-16,-92,58,33,-309,-505,-185,58,115,116
102,85,-16,-94,60,33,-307,-508,-195,58,119,121
104,86,-17,-95,61,34,-304,-510,-206,58,123,125
106,87,-19,-96,62,34,-300,-511,-217,58,127,129
108,87,-21,-97,65,33,-296,-511,-229,56,130,133
109,85,-24,-97,67,31,-290,-508,-241,51,131,135
109,83,-27,-96,68,28,-284,-504,-252,46,132,138
109,81,-28,-95,69,26,-278,-500,-263,40,133,141
109,80,-29,-94,69,25,-273,-498,-274,33,134,143
108,79,-28,-93,68,25,-268,-496,-285,25,135,146
105,78,-26,-92,65,25,-263,-492,-294,17,135,148
103,77,-26,-90,64,25,-259,-488,-302,8,134,148
102,75,-27,-89,64,24,-254,-482,-309,0,132,148
101,73,-28,-87,64,22,-249,-474,-313,-9,130,147
99,70,-29,-85,64,21,-242,-464,-315,-17,128,147
98,68,-29,-83,64,19,-234,-452,-314,-23,127,147
96,66,-29,-81,63,18,-226,-438,-308,-25,127,148
95,65,-30,-80,63,17,-218,-421,-298,-23,128,148
94,63,-31,-79,63,15,-209,-403,-285,-19,128,147
93,59,-34,-76,63,12,-201,-384,-270,-13,129,147
92,55,-36,-74,63,9,-192,-365,-253,-6,130,146
91,51,-39,-72,64,6,-182,-346,-236,1,131,144
89,47,-41,-68,64,3,-172,-326,-219,8,131,143
85,41,-43,-63,64,-1,-162,-303,-200,15,131,141
82,36,-45,-59,64,-4,-153,-279,-181,22,132,140
82,35,-46,-58,64,-6,-142,-253,-160,31,134,141
82,35,-47,-59,65,-7,-131,-226,-140,40,136,141
83,34,-49,-59,66,-8,-121,-201,-122,46,137,141
82,31,-51,-57,66,-10,-111,-178,-107,49,134,138
80,27,-53,-54,66,-13,-101,-156,-94,49,130,134
78,22,-55,-50,66,-17,-90,-136,-83,46,123,128
73,15,-57,-44,66,-21,-79,-117,-74,42,114,121
69,8,-60,-39,65,-26,-67,-98,-66,36,103,111
67,2,-64,-35,66,-30,-56,-79,-59,30,91,100
64,-3,-67,-30,66,-35,-46,-62,-52,23,78,88
59,-9,-69,-25,64,-40,-36,-47,-46,15,64,75
53,-15,-69,-19,61,-43,-26,-32,-40,7,50,62
47,-21,-68,-13,57,-45,-15,-19,-35,0,37,49
41,-25,-67,-8,54,-46,-6,-7,-30,-7,24,38
36,-27,-64,-4,50,-45,3,3,-25,-13,13,28
32,-29,-61,-1,47,-45,10,11,-22,-18,2,18
29,-30,-59,1,44,-45,16,18,-20,-24,-7,8
24,-32,-56,4,40,-44,20,23,-17,-28,-16,0
18,-33,-52,7,35,-43,24,29,-14,-31,-22,-8
14,-33,-47,9,30,-41,28,35,-10,-32,-26,-13
11,-32,-43,10,26,-37,31,40,-4,-31,-29,-17
9,-29,-38,9,23,-33,35,46,0,-29,-29,-20
6,-27,-33,10,19,-29,38,51,5,-27,-29,-22
3,-25,-28,10,16,-26,42,55,9,-25,-30,-24
2,-22,-23,10,13,-22,46,61,14,-22,-29,-25
0,-19,-19,9,11,-19,49,65,18,-20,-29,-26
-2,-18,-16,10,7,-18,51,69,21,-18,-29,-27
-5,-17,-13,11,4,-16,53,72,23,-17,-29,-28
-6,-17,-12,11,2,-15,54,75,25,-17,-29,-29
-5,-15,-11,10,2,-13,56,77,27,-16,-28,-29
-5,-14,-10,10,1,-12,57,78,28,-16,-28,-29
-7,-15,-7,11,0,-11,59,79,29,-16,-28,-29
-9,-15,-5,12,-2,-10,61,80,30,-15,-28,-29
-10,-14,-3,12,-3,-9,63,81,30,-15,-28,-30
-11,-13,-2,11,-4,-8,64,83,31,-15,-29,-30
-11,-11,-1,11,-4,-7,66,84,32,-15,-29,-31
-10,-10,-1,10,-5,-6,67,86,34,-14,-29,-31
-10,-10,0,9,-5,-5,67,87,35,-14,-29,-31
-11,-9,0,9,-6,-4,68,87,35,-14,-29,-31
-11,-8,2,9,-7,-3,69,88,36,-14,-29,-31
-10,-7,4,8,-7,-1,68,89,37,-13,-28,-30
-10,-5,6,7,-8,0,66,90,38,-12,-28,-30
-10,-3,7,6,-8,1,65,91,38,-12,-28,-30
-10,-1,8,6,-9,2,64,92,39,-12,-28,-30
-10,-1,9,6,-9,3,63,93,40,-12,-28,-30
-11,-1,9,6,-10,3,62,94,40,-12,-29,-31
-11,-2,10,6,-11,4,61,94,40,-12,-29,-31
-12,-1,11,6,-11,5,60,94,40,-12,-29,-31
-12,-1,12,6,-12,6,60,95,40,-12,-30,-31
-13,-1,12,7,-12,6,60,95,40,-12,-30,-31
-14,-1,13,8,-13,5,60,95,40,-13,-31,-31
-15,-2,12,8,-13,4,60,97,40,-14,-31,-32
-16,-3,12,9,-14,4,61,99,41,-14,-32,-32
-18,-5,13,11,-15,4,61,101,42,-14,-32,-32
-19,-5,14,12,-17,4,63,103,43,-14,-32,-32
-19,-6,13,12,-16,4,64,105,43,-14,-32,-33
-17,-6,12,12,-14,2,65,106,44,-14,-33,-34
-16,-7,10,12,-13,1,66,108,44,-15,-34,-35
-16,-7,10,12,-12,1,67,109,44,-15,-35,-35
-16,-7,9,12,-12,0,67,111,45,-16,-35,-36
-15,-7,7,11,-11,0,67,113,45,-17,-36,-37
-14,-8,5,11,-9,-1,68,114,45,-18,-37,-38
-12,-8,4,10,-8,-2,69,116,45,-18,-38,-38
-11,-8,3,10,-7,-2,70,119,46,-18,-38,-38
-11,-8,3,10,-7,-3,72,121,47,-18,-38,-39
-11,-9,3,10,-7,-3,73,123,48,-18,-39,-39
-11,-9,2,10,-7,-3,74,125,49,-18,-39,-40
-12,-9,2,10,-7,-4,75,127,49,-19,-40,-42
-13,-10,2,11,-8,-4,76,130,50,-19,-41,-42
-13,-10,2,11,-8,-4,78,132,51,-19,-41,-43
-13,-10,2,12,-8,-4,79,135,52,-20,-41,-43
-14,-10,2,12,-9,-4,80,138,53,-20,-42,-44
-14,-11,3,12,-9,-3,82,140,54,-21,-42,-45
-16,-12,3,13,-10,-3,83,142,54,-21,-43,-46
-17,-13,4,15,-11,-4,85,144,55,-21,-43,-47
-19,-13,5,16,-11,-4,86,146,56,-21,-44,-48
-19,-13,5,16,-12,-4,87,149,57,-21,-45,-49
-19,-13,4,16,-12,-4,89,152,58,-21,-45,-50
-19,-13,4,16,-12,-4,90,155,60,-22,-45,-51
-18,-13,3,16,-12,-4,92,158,61,-22,-46,-52
-18,-14,3,16,-11,-4,94,161,63,-22,-46,-53
-19,-14,4,17,-12,-4,96,163,64,-22,-47,-54
-21,-15,5,18,-13,-4,98,166,65,-22,-48,-55
-22,-15,6,19,-14,-4,99,168,66,-22,-48,-56
-24,-16,7,21,-16,-4,101,170,68,-22,-49,-56
-27,-18,8,22,-18,-4,102,173,69,-22,-50,-57
-28,-19,9,23,-19,-4,104,176,71,-22,-50,-58
-29,-19,9,24,-19,-4,106,179,73,-22,-51,-58
-29,-19,10,24,-20,-4,108,183,75,-22,-51,-59
-30,-19,10,25,-21,-4,110,186,77,-22,-51,-59
-31,-20,11,25,-21,-4,111,188,79,-21,-52,-60
-32,-20,11,25,-22,-4,112,191,81,-21,-52,-61
-32,-20,11,26,-22,-4,113,193,83,-20,-53,-61
-33,-20,12,26,-23,-3,114,196,85,-19,-53,-61
-34,-20,13,27,-24,-3,115,198,87,-19,-53,-61
-34,-20,14,27,-24,-3,117,201,90,-18,-53,-61
-34,-19,14,26,-25,-2,118,204,93,-17,-53,-61
-34,-19,15,26,-25,-2,119,206,95,-15,-53,-61
-36,-19,17,27,-27,-1,120,208,98,-14,-52,-61
-38,-19,18,28,-28,-1,120,210,100,-12,-51,-60
-37,-19,17,27,-27,-1,120,210,102,-10,-51,-59
-34,-19,15,26,-25,-1,118,211,103,-9,-51,-59
-33,-19,14,25,-23,-2,117,211,105,-8,-50,-59
-33,-18,14,25,-23,-1,116,212,107,-7,-49,-58
-33,-18,15,25,-24,-1,115,212,109,-5,-48,-57
-32,-17,15,24,-24,-1,114,212,111,-3,-47,-57
-30,-16,15,23,-23,0,113,211,113,-1,-46,-56
-30,-15,16,22,-23,0,112,211,114,1,-44,-55
-30,-14,17,22,-23,1,110,210,116,3,-42,-53
-30,-12,17,21,-23,2,109,208,117,6,-40,-51
-29,-11,18,20,-23,3,107,207,118,8,-37,-49
-27,-9,18,18,-22,4,106,205,118,10,-35,-48
-26,-8,18,17,-22,5,104,202,119,11,-34,-46
-25,-7,19,16,-23,6,103,200,120,13,-32,-45
-25,-5,20,15,-23,7,101,197,120,16,-29,-43
-25,-3,21,14,-23,9,100,194,121,19,-26,-40
-23,-1,22,12,-23,10,99,190,121,21,-24,-38
-21,1,23,10,-22,12,97,186,121,24,-21,-35
-21,4,25,8,-23,14,95,182,120,26,-18,-32
-20,6,26,7,-23,16,92,178,120,29,-15,-29
-19,8,27,5,-23,18,88,173,119,30,-12,-27
-17,10,27,4,-22,19,84,167,117,31,-10,-25
-14,12,26,2,-21,19,80,160,115,33,-8,-23
-12,14,27,0,-20,20,76,154,113,34,-6,-21
-10,17,27,-3,-19,22,70,147,111,36,-3,-18
-8,19,28,-5,-19,23,64,140,109,38,0,-15
-7,21,27,-7,-18,24,57,134,106,39,2,-12
-4,24,27,-10,-16,26,51,127,103,40,4,-10
-1,27,27,-13,-14,27,45,120,100,41,6,-7
1,29,27,-15,-13,28,39,114,97,41,8,-6
2,29,27,-16,-12,28,34,108,94,41,9,-5
2,29,27,-16,-12,28,30,103,91,41,11,-3
2,29,26,-16,-11,28,27,98,88,41,12,-2
3,29,25,-16,-10,27,25,93,84,40,12,-2
4,28,23,-16,-9,25,22,88,80,39,13,-1
4,26,21,-15,-8,24,20,83,76,37,13,0
4,24,19,-14,-8,22,18,78,72,36,13,0
4,23,18,-14,-7,21,16,72,68,34,12,0
4,21,17,-13,-6,20,14,67,64,32,12,0
4,20,16,-13,-5,19,13,62,60,31,11,0
5,19,14,-13,-4,17,12,58,56,29,11,0
6,19,12,-13,-3,16,10,53,52,28,10,0
6,18,10,-13,-2,14,9,50,49,26,9,-1
7,17,9,-12,-1,13,8,47,46,25,9,-1
7,16,8,-11,-1,12,7,44,43,23,8,-1
6,13,7,-9,-1,10,6,41,40,21,7,-1
5,11,7,-9,0,9,5,38,37,19,6,-2
5,11,6,-9,0,9,5,36,35,18,6,-2
5,10,6,-9,0,8,5,34,33,17,5,-2
4,10,6,-8,0,8,5,32,31,17,5,-2
4,9,6,-7,-1,7,5,30,30,16,5,-2
3,9,5,-6,-1,7,4,28,28,15,5,-2
3,8,5,-5,-1,6,4,27,27,14,4,-3
3,7,4,-5,-1,6,4,26,25,13,4,-3
2,6,4,-4,-1,5,4,25,24,12,3,-3
2,5,4,-4,-1,5,4,24,22,11,2,-4
2,5,2,-4,0,4,4,23,21,10,2,-4
3,4,1,-4,1,3,4,22,19,9,1,-5
4,4,0,-5,3,2,4,21,18,9,1,-5
5,4,-1,-5,4,1,4,20,17,8,0,-5
5,3,-2,-4,4,1,4,20,16,8,0,-5
5,2,-2,-3,4,0,4,19,15,7,0,-5
6,1,-3,-3,4,0,4,18,14,6,-1,-6
6,2,-3,-4,4,0,4,18,13,5,-1,-6
6,1,-2,-3,4,0,5,18,13,5,-1,-6
4,0,-2,-2,3,-1,5,18,13,4,-1,-6
3,0,-2,-1,2,-1,5,18,13,4,-1,-6
1,0,-1,0,1,0,6,18,13,5,-1,-5
0,0,0,0,0,0,7,19,13,5,0,-4
1,0,-1,0,1,-1,7,18,12,5,-1,-5
3,0,-3,-1,3,-2,7,18,11,4,-2,-6
5,0,-4,-1,4,-2,7,17,11,3,-3,-6
5,-1,-5,-2,5,-3,7,17,10,3,-4,-7
5,-1,-6,-2,6,-3,7,17,10,2,-4,-7
4,-2,-6,-1,6,-4,7,17,9,2,-5,-8
2,-3,-6,0,4,-4,7,17,9,1,-5,-8
0,-4,-5,1,3,-4,8,18,9,1,-5,-7
-1,-5,-4,2,2,-4,8,18,9,1,-5,-7
-1,-5,-4,3,2,-5,8,18,8,0,-5,-7
-1,-6,-4,3,2,-5,8,18,8,0,-6,-7
0,-6,-5,3,2,-5,8,18,7,-1,-6,-7
1,-6,-6,3,3,-5,8,18,7,-1,-7,-8
2,-6,-8,2,5,-6,8,18,6,-2,-7,-8
2,-6,-9,2,6,-6,8,18,6,-2,-8,-9
3,-7,-9,2,6,-7,9,18,6,-3,-8,-9
3,-7,-9,2,6,-8,9,18,6,-4,-9,-10
3,-7,-9,2,6,-8,10,19,6,-4,-9,-10
2,-7,-9,3,6,-8,11,19,6,-4,-9,-10
2,-7,-9,3,6,-8,12,20,6,-5,-9,-11
1,-7,-8,3,5,-8,14,20,6,-5,-9,-12
0,-8,-7,4,4,-8,15,21,6,-5,-9,-12
-1,-8,-7,4,3,-7,17,21,7,-5,-10,-12
-1,-7,-6,4,2,-7,19,22,7,-5,-10,-13
-1,-7,-5,4,2,-6,21,23,8,-5,-10,-13
-2,-6,-3,4,0,-5,23,24,8,-4,-10,-13
-4,-6,-1,5,-2,-3,26,25,9,-4,-9,-13
-6,-5,2,5,-4,-1,28,25,10,-3,-9,-12
-7,-4,4,5,-6,0,30,26,11,-2,-8,-12
-6,-3,4,4,-5,1,31,26,11,-1,-8,-11
-5,-2,4,3,-4,1,30,26,11,-1,-8,-11
-3,-1,3,2,-3,1,26,24,11,-1,-8,-11
-2,0,2,1,-2,1,22,23,11,-1,-8,-11
0,2,2,0,-2,2,18,22,11,-1,-7,-10
1,3,3,-2,-1,3,15,20,11,-1,-7,-10
1,4,4,-3,-1,3,12,19,11,-1,-7,-10
1,5,5,-3,-1,4,10,19,11,0,-7,-9
1,6,5,-3,-2,5,9,18,11,0,-6,-9
0,6,6,-3,-2,6,7,18,12,0,-6,-8
0,6,6,-3,-3,7,6,19,13,1,-5,-8
-1,6,7,-2,-4,7,5,20,13,2,-4,-7
-2,6,7,-2,-4,7,5,21,14,3,-3,-7
-2,5,7,-1,-5,6,4,21,14,3,-2,-6
-2,5,7,-1,-4,6,4,22,15,4,-2,-6
-1,4,6,-1,-4,5,3,22,15,4,-2,-6
-1,4,6,-1,-3,5,3,22,15,4,-2,-6
0,4,5,-2,-2,4,3,22,15,4,-2,-6
0,4,4,-2,-1,4,3,22,15,4,-2,-6
1,3,2,-2,0,4,3,22,14,4,-3,-7
2,3,1,-2,0,3,3,21,14,3,-3,-7
2,2,1,-2,0,2,3,21,14,3,-4,-7
1,2,1,-2,0,1,4,20,14,3,-4,-7
1,2,1,-2,0,1,4,20,14,3,-4,-7
0,1,1,-1,0,1,4,20,13,2,-4,-7
0,0,1,0,0,0,4,19,13,2,-4,-7
0,-1,1,1,0,0,4,19,13,1,-5,-7
0,-1,0,1,0,0,4,19,12,1,-5,-7
-1,-2,0,1,0,-1,4,18,12,1,-6,-8
-1,-2,0,1,0,-1,4,18,12,1,-6,-8
-2,-3,0,2,-1,-1,4,17,11,0,-7,-8
-2,-3,0,2,-1,-1,4,17,11,0,-7,-9
-3,-3,0,3,-1,-1,4,17,11,0,-7,-9
-4,-4,1,4,-2,-1,4,17,11,0,-7,-8
-5,-4,1,5,-3,-1,5,17,10,0,-7,-8
-7,-6,1,6,-4,-2,5,16,10,0,-7,-8
-7,-6,1,6,-3,-2,5,16,9,0,-7,-8
-5,-6,0,6,-2,-3,5,15,9,-1,-7,-8
-3,-6,-2,5,0,-3,5,15,8,-1,-8,-8
-2,-6,-2,4,0,-3,5,14,8,-2,-8,-9
-1,-5,-2,2,1,-3,4,13,7,-3,-9,-9
0,-4,-2,2,1,-2,4,12,6,-3,-9,-10
-1,-5,-3,3,1,-4,4,12,6,-3,-9,-10
-1,-6,-5,4,2,-5,4,12,5,-3,-9,-10
-2,-7,-5,4,1,-6,3,11,5,-4,-9,-10
-2,-8,-4,5,1,-6,3,11,5,-4,-9,-10
-3,-8,-4,6,0,-6,3,11,5,-4,-10,-10
-4,-9,-4,7,0,-6,3,12,5,-4,-10,-10
-5,-9,-4,7,0,-6,3,12,5,-4,-10,-10
-5,-10,-5,7,0,-7,3,12,4,-5,-10,-10
-5,-10,-5,7,1,-8,3,11,4,-5,-10,-10
-4,-11,-6,7,1,-9,3,11,3,-5,-10,-10
-3,-11,-8,7,2,-9,2,10,3,-5,-11,-10
-2,-11,-9,6,3,-10,2,10,2,-5,-11,-10
-2,-11,-9,7,3,-10,2,10,3,-5,-10,-10
-5,-11,-6,8,0,-9,3,11,4,-4,-10,-9
-8,-12,-3,10,-2,-7,4,12,4,-3,-9,-8
-9,-11,-2,9,-3,-7,5,13,5,-3,-9,-8
-6,-10,-4,7,-1,-7,5,13,5,-3,-9,-8
-3,-10,-6,5,2,-8,5,12,4,-3,-10,-8
-1,-10,-8,5,4,-9,5,11,3,-4,-11,-9
-1,-11,-9,5,4,-10,5,11,2,-5,-11,-10
-1,-11,-10,6,4,-10,5,11,2,-5,-12,-10
0,-11,-11,6,5,-11,5,10,1,-6,-12,-11
0,-11,-12,5,6,-11,5,9,0,-8,-13,-12
0,-11,-12,6,6,-12,5,9,0,-9,-14,-13
-1,-12,-11,7,5,-12,7,8,-1,-9,-15,-13
-3,-13,-10,8,4,-11,9,8,-1,-9,-15,-13
-4,-13,-8,8,2,-10,11,9,0,-9,-15,-13
-4,-13,-7,8,1,-10,13,9,0,-9,-15,-14
-4,-12,-6,8,1,-9,14,9,0,-9,-15,-14
-4,-11,-6,8,0,-9,15,9,0,-9,-15,-14
-4,-10,-6,8,0,-8,16,9,0,-9,-15,-14
-3,-9,-6,6,1,-8,16,9,-1,-10,-16,-15
-2,-8,-5,5,1,-7,14,9,-1,-10,-16,-15
-3,-7,-4,5,0,-6,13,9,0,-9,-15,-14
-4,-6,-1,5,-1,-4,11,9,0,-9,-15,-14
-5,-5,0,5,-2,-2,10,9,0,-8,-14,-13
-5,-4,2,5,-3,-1,9,9,1,-8,-14,-13
-6,-3,2,5,-4,0,7,9,1,-8,-13,-12
-5,-1,3,4,-4,0,6,9,1,-7,-13,-11
-4,0,3,2,-4,1,4,9,2,-7,-12,-11
-3,0,3,2,-3,1,3,9,2,-7,-12,-11
-3,0,3,1,-3,1,2,9,2,-7,-12,-11
-2,0,4,1,-3,2,2,9,2,-7,-12,-10
-1,1,4,0,-3,2,1,9,2,-7,-11,-10
0,2,3,-1,-2,3,1,9,3,-6,-11,-10
0,3,3,-1,-1,3,1,10,4,-5,-10,-9
0,3,3,-1,-1,3,1,11,5,-4,-9,-8
1,4,3,-2,-1,3,1,13,6,-3,-8,-8
1,4,3,-2,-1,3,1,15,7,-2,-7,-7
0,4,4,-2,-1,4,2,16,8,-1,-7,-7
0,4,4,-1,-2,4,3,17,8,-1,-7,-7
0,4,4,-1,-2,4,3,17,9,0,-6,-7
0,3,4,-1,-1,3,3,16,9,0,-6,-7
0,2,3,0,-1,3,3,16,9,-1,-6,-7
-1,1,2,0,-1,2,3,16,9,-1,-7,-7
-2,0,2,1,-2,1,3,16,8,-1,-7,-7
-2,-1,1,2,-1,0,3,16,8,-1,-8,-7
-1,-1,0,2,0,0,3,16,8,-1,-8,-7
-1,-1,0,2,0,-1,4,16,8,-2,-8,-8
-1,-2,0,2,0,-1,4,16,8,-2,-8,-8
-2,-2,0,2,-1,-1,5,16,8,-2,-8,-8
-3,-2,1,3,-2,0,5,16,8,-2,-8,-8
-3,-1,2,3,-3,0,6,17,8,-1,-8,-7
-4,-1,2,3,-3,1,7,17,9,0,-7,-6
-4,-2,1,3,-3,0,7,17,8,-1,-8,-7
-3,-3,0,3,-1,-1,6,17,8,-1,-8,-7
-2,-3,0,2,0,-1,6,16,7,-2,-8,-8
-1,-3,-1,2,0,-2,6,16,7,-3,-9,-8
-1,-3,-3,2,1,-3,5,15,6,-4,-9,-9
-1,-4,-3,2,1,-4,5,14,5,-4,-10,-10
0,-3,-3,2,1,-4,5,14,5,-4,-10,-10
1,-3,-4,1,2,-4,5,15,5,-4,-10,-9
2,-3,-5,0,4,-4,5,15,5,-4,-10,-9
1,-3,-6,1,4,-5,5,14,5,-4,-10,-9
0,-4,-5,2,3,-5,6,14,5,-4,-10,-9
-1,-4,-4,3,2,-4,6,14,6,-3,-9,-9
-1,-3,-3,3,1,-4,7,15,6,-3,-9,-9
-2,-3,-2,4,0,-3,7,15,6,-3,-9,-9
-4,-4,-1,5,-1,-3,7,15,6,-3,-10,-9
-4,-5,-1,5,-1,-4,7,14,5,-4,-10,-9
-4,-6,-1,6,-1,-4,7,14,5,-4,-10,-9
-5,-6,-1,6,-1,-4,7,14,5,-4,-10,-10
-5,-6,-1,6,-1,-4,8,14,5,-4,-10,-10
-5,-5,0,6,-1,-3,8,15,6,-4,-10,-10
-5,-4,0,5,-2,-3,9,15,6,-4,-10,-10
-5,-4,0,5,-2,-3,9,15,6,-4,-10,-10
-5,-4,0,5,-2,-3,9,15,6,-4,-10,-10
-5,-5,0,5,-2,-3,9,15,6,-4,-10,-10
-4,-5,-1,4,-1,-3,9,15,6,-4,-10,-10
-3,-5,-1,4,-1,-3,9,15,6,-4,-10,-10
-4,-5,-1,4,-1,-2,9,15,6,-4,-10,-10
-4,-5,0,4,-2,-2,9,15,6,-4,-10,-10
-4,-5,0,4,-1,-2,9,15,5,-5,-10,-10
-4,-6,-1,4,0,-4,8,14,5,-5,-10,-10
-3,-6,-3,4,1,-5,8,14,4,-6,-11,-11
-3,-7,-4,5,1,-6,9,14,4,-6,-11,-11
-4,-7,-4,6,0,-6,9,15,4,-6,-11,-11
-5,-8,-3,7,-1,-5,10,15,4,-6,-11,-11
-6,-8,-2,7,-1,-5,10,15,4,-6,-12,-12
-7,-9,-2,8,-2,-5,10,15,4,-6,-12,-12
-7,-9,-2,8,-2,-5,10,15,4,-7,-12,-12
-7,-9,-2,8,-1,-6,11,15,4,-7,-12,-12
-6,-9,-3,8,-1,-6,11,15,4,-7,-13,-12
-7,-10,-3,9,-1,-6,12,15,4,-7,-13,-13
-8,-10,-2,9,-2,-6,12,15,4,-7,-13,-13
-8,-9,-1,9,-3,-5,13,15,4,-7,-13,-13
-9,-10,-1,9,-4,-5,14,15,4,-7,-14,-14
-10,-11,-1,10,-4,-6,15,15,3,-8,-15,-15
-11,-11,0,11,-5,-6,17,15,3,-8,-15,-15
-12,-11,1,12,-6,-5,18,15,3,-8,-15,-15
-12,-10,1,11,-6,-4,20,15,3,-8,-15,-15
-12,-10,2,11,-7,-4,21,15,3,-8,-15,-15
-13,-10,2,11,-7,-3,23,15,3,-9,-15,-15
-13,-10,3,11,-8,-3,24,15,3,-9,-15,-15
-13,-9,3,11,-8,-3,24,15,3,-9,-15,-15
-12,-9,4,11,-7,-3,22,14,2,-9,-15,-15
-12,-9,4,10,-7,-3,19,14,2,-9,-15,-15
-11,-8,4,10,-6,-2,16,14,3,-9,-15,-14
-10,-6,4,9,-6,-1,16,18,4,-8,-14,-14
-9,-5,4,7,-6,0,18,24,7,-7,-14,-14
-8,-2,5,6,-6,1,22,31,11,-5,-13,-14
-8,0,7,4,-7,4,28,40,16,-2,-11,-13
-8,2,10,3,-9,6,33,47,20,0,-10,-12
-9,4,13,3,-11,8,36,48,23,2,-8,-11
-9,5,15,2,-12,10,38,43,25,4,-6,-9
-10,7,17,2,-13,12,37,33,24,6,-5,-8
-9,8,18,1,-13,13,31,16,22,8,-3,-7
-8,9,17,0,-12,13,20,-8,16,9,-1,-4
-5,11,16,-2,-10,13,2,-42,8,11,2,-1
-1,13,14,-6,-7,14,-20,-81,-2,12,6,3
4,17,12,-11,-3,14,-45,-121,-15,13,11,8
10,20,9,-15,0,14,-70,-159,-28,14,15,13
15,22,7,-19,4,14,-92,-197,-43,15,19,18
20,23,4,-21,8,14,-114,-235,-59,15,24,24
25,24,0,-24,12,13,-140,-273,-75,15,29,29
30,26,-3,-28,17,12,-168,-309,-90,17,35,36
36,28,-8,-32,22,11,-196,-343,-105,19,42,44
42,31,-12,-37,27,10,-222,-375,-120,22,49,52
50,36,-15,-43,33,10,-244,-406,-134,24,57,60
58,41,-17,-50,38,12,-263,-434,-147,27,66,69
66,47,-18,-57,43,14,-280,-460,-160,31,74,77
72,52,-19,-62,46,16,-291,-480,-171,35,82,86
78,56,-20,-67,50,17,-299,-494,-180,38,89,94
83,59,-23,-71,54,18,-306,-506,-187,41,95,100
88,61,-26,-74,57,18,-310,-515,-195,42,99,105
90,63,-28,-76,59,18,-310,-521,-203,43,104,109
93,65,-29,-79,61,18,-309,-526,-214,43,108,114
96,67,-30,-81,63,18,-307,-530,-227,42,111,118
98,68,-30,-83,64,18,-304,-532,-239,40,115,123
99,68,-31,-83,65,17,-300,-533,-252,38,118,126
100,67,-33,-83,67,16,-295,-532,-265,33,119,129
101,65,-35,-83,68,14,-289,-530,-278,27,120,131
102,64,-37,-83,70,13,-283,-528,-290,20,121,133
101,64,-38,-83,70,13,-279,-525,-301,13,121,136
101,63,-39,-83,70,13,-275,-523,-312,5,122,138
101,62,-39,-82,70,12,-272,-522,-324,-4,121,139
99,61,-38,-80,69,11,-268,-520,-334,-14,119,139
97,59,-36,-78,67,11,-263,-514,-340,-23,118,140
94,58,-35,-75,65,11,-257,-506,-345,-31,116,140
90,56,-34,-73,63,11,-250,-496,-347,-39,115,140
86,54,-33,-70,60,11,-242,-484,-346,-45,113,139
82,51,-32,-67,57,10,-235,-471,-342,-49,113,139
80,48,-33,-64,56,8,-228,-456,-334,-50,113,139
79,46,-34,-63,57,6,-220,-438,-322,-48,113,139
79,43,-36,-61,58,3,-212,-419,-308,-43,113,138
79,41,-37,-60,59,1,-204,-400,-291,-37,114,137
77,38,-38,-57,58,0,-194,-379,-274,-29,115,136
74,35,-39,-54,57,-2,-184,-359,-257,-23,115,135
71,31,-40,-51,56,-4,-173,-337,-239,-16,115,133
69,27,-42,-48,56,-6,-163,-313,-220,-9,115,132
68,25,-43,-47,56,-7,-152,-287,-199,0,117,132
68,25,-43,-47,56,-8,-143,-261,-178,8,119,132
68,25,-43,-47,56,-8,-133,-236,-158,16,120,132
68,24,-43,-46,56,-9,-124,-211,-140,22,120,131
67,22,-44,-44,56,-11,-113,-187,-124,25,117,128
64,19,-45,-42,55,-13,-102,-165,-110,26,113,124
62,15,-46,-39,54,-15,-91,-145,-98,24,106,118
59,10,-49,-35,54,-19,-80,-126,-89,21,97,109
55,4,-51,-29,53,-23,-69,-107,-80,16,87,100
49,-2,-52,-23,51,-26,-58,-88,-71,11,76,89
44,-8,-53,-18,49,-30,-48,-70,-63,6,64,79
39,-14,-54,-12,47,-34,-38,-54,-57,-1,51,67
35,-20,-55,-7,46,-38,-28,-40,-51,-8,37,54
30,-25,-55,-2,43,-40,-18,-27,-45,-14,24,41
24,-28,-53,2,39,-41,-9,-15,-40,-21,12,29
19,-30,-51,6,35,-40,-1,-6,-36,-26,1,18
15,-32,-49,9,32,-40,6,2,-32,-30,-8,8
10,-34,-47,12,29,-40,11,10,-28,-33,-16,0
7,-36,-45,14,27,-40,16,16,-25,-37,-24,-9
4,-37,-42,16,24,-39,20,23,-21,-39,-30,-15
0,-35,-36,17,19,-35,24,30,-15,-38,-33,-19
-3,-32,-28,18,13,-30,30,38,-8,-35,-33,-21
-7,-28,-20,18,7,-24,36,45,-1,-32,-33,-23
-10,-24,-13,18,2,-18,41,51,5,-28,-32,-24
-13,-21,-8,17,-2,-14,46,56,10,-25,-31,-26
-16,-19,-4,18,-6,-11,49,61,14,-23,-31,-28
-19,-19,0,19,-10,-9,51,64,17,-21,-31,-30
-21,-18,2,20,-12,-7,53,67,19,-20,-32,-31
-23,-18,4,20,-13,-6,54,69,21,-20,-32,-32
-24,-17,7,21,-15,-5,56,71,22,-20,-32,-32
-26,-17,9,22,-17,-4,59,72,24,-19,-32,-33
-27,-16,11,22,-19,-3,61,73,25,-19,-32,-33
-26,-14,12,20,-19,0,63,74,27,-18,-32,-34
-25,-11,13,19,-19,1,65,75,28,-17,-32,-34
-25,-10,14,18,-20,2,66,76,29,-17,-32,-34
-26,-10,15,19,-20,3,66,78,29,-17,-32,-34
-26,-10,16,18,-21,3,67,80,30,-16,-31,-34
-26,-9,16,18,-21,4,68,82,32,-16,-31,-33
-25,-9,17,17,-20,4,70,83,33,-15,-31,-33
-25,-9,17,16,-20,4,71,83,33,-15,-31,-34
-25,-8,16,16,-20,4,71,83,33,-15,-31,-34
-25,-8,17,17,-21,5,71,83,34,-15,-31,-34
-26,-7,18,17,-22,6,68,84,34,-14,-31,-34
-26,-7,18,17,-22,6,65,84,35,-14,-30,-34
-25,-6,18,16,-22,6,62,84,35,-14,-30,-34
-24,-5,19,15,-21,7,59,85,35,-13,-30,-33
-24,-4,20,14,-22,8,58,86,36,-12,-29,-33
-24,-4,21,14,-22,9,57,87,38,-12,-29,-32
-23,-3,21,14,-22,9,56,88,39,-11,-28,-32
-23,-3,21,14,-22,9,56,89,40,-11,-28,-32
-24,-3,20,14,-22,9,56,91,41,-11,-28,-32
-24,-3,20,14,-22,8,56,92,41,-10,-28,-32
-23,-4,19,13,-21,7,56,94,42,-10,-28,-32
-23,-4,17,13,-20,6,57,96,42,-10,-28,-33
-22,-5,16,14,-19,5,58,98,43,-10,-28,-33
-21,-6,15,14,-18,4,59,100,44,-10,-29,-33
-21,-7,14,14,-17,4,60,102,45,-10,-29,-33
-20,-7,13,14,-17,3,62,104,46,-10,-30,-33
-20,-7,12,14,-16,3,63,106,47,-9,-30,-33
-20,-7,12,14,-16,2,64,108,49,-9,-30,-34
-20,-8,11,14,-15,2,65,111,50,-9,-30,-34
-20,-8,11,14,-15,2,66,113,50,-8,-30,-34
-21,-9,12,15,-16,2,67,116,52,-8,-30,-34
-23,-10,12,16,-17,2,68,118,53,-7,-30,-34
-23,-10,12,17,-17,1,70,121,54,-7,-31,-35
-23,-9,12,16,-17,1,71,123,55,-7,-31,-35
-23,-10,12,17,-17,1,73,125,56,-7,-31,-35
-24,-11,12,18,-18,1,74,127,57,-7,-32,-36
-25,-12,12,18,-18,1,75,129,58,-8,-33,-37
-24,-12,11,18,-17,0,75,131,58,-8,-34,-38
-24,-12,10,18,-17,0,76,134,59,-9,-35,-39
-24,-12,11,18,-17,0,77,137,61,-9,-36,-40
-24,-12,11,18,-17,0,79,140,62,-8,-36,-41
-24,-12,11,18,-17,0,81,142,64,-8,-37,-42
-25,-13,12,19,-19,0,82,145,65,-8,-37,-42
-27,-13,13,20,-20,0,84,148,67,-8,-37,-42
-28,-13,15,20,-22,1,85,151,69,-7,-37,-42
-30,-12,17,21,-23,2,87,154,71,-7,-37,-42
-31,-12,18,21,-24,3,88,158,72,-6,-38,-43
-32,-12,19,22,-25,3,89,161,74,-5,-38,-44
-31,-12,19,22,-25,3,90,163,76,-5,-38,-45
-30,-13,17,22,-24,2,91,164,77,-6,-40,-46
-30,-13,16,22,-23,2,92,166,78,-7,-41,-48
-31,-14,16,23,-24,1,94,168,79,-7,-41,-49
-33,-15,17,24,-24,1,95,171,81,-7,-42,-49
-33,-15,17,24,-24,1,95,174,82,-7,-42,-50
-32,-15,17,23,-24,1,96,177,84,-7,-43,-51
-32,-15,17,23,-24,1,97,180,86,-7,-43,-51
-34,-15,19,25,-26,2,99,183,88,-6,-43,-52
-37,-16,21,27,-29,2,101,186,91,-5,-43,-52
-38,-16,22,27,-30,3,102,189,94,-4,-43,-52
-38,-16,22,27,-30,3,103,192,96,-4,-43,-53
-37,-16,21,27,-29,3,103,194,97,-4,-44,-53
-37,-16,21,26,-29,2,103,196,99,-3,-44,-54
-37,-16,21,26,-29,2,104,198,101,-2,-44,-55
-37,-15,22,26,-29,3,104,200,104,-1,-43,-55
-37,-13,23,25,-30,4,106,204,108,1,-42,-55
-36,-12,25,24,-30,6,108,207,112,4,-41,-54
-36,-10,26,23,-31,7,109,209,115,6,-40,-54
-36,-9,27,23,-31,9,110,210,118,8,-39,-53
-36,-8,28,22,-32,10,110,211,120,10,-37,-52
-36,-7,28,22,-32,11,109,211,122,12,-36,-51
-37,-7,29,22,-33,11,108,211,123,14,-35,-51
-37,-7,30,22,-34,12,107,211,125,16,-34,-50
-37,-6,31,21,-34,13,106,211,127,18,-32,-49
-37,-6,32,21,-34,13,105,210,129,20,-31,-48
-37,-5,32,20,-34,14,104,209,130,22,-29,-47
-36,-4,32,20,-34,14,102,207,132,24,-27,-46
-35,-2,32,19,-33,15,100,205,133,27,-25,-43
-34,-1,32,18,-33,15,98,203,133,29,-22,-41
-33,0,32,16,-32,16,96,200,134,31,-20,-39
-30,1,32,15,-31,17,93,198,134,33,-18,-37
-28,2,31,13,-29,17,90,195,134,35,-17,-35
-27,2,30,12,-28,16,87,191,134,36,-15,-34
-25,3,29,11,-27,16,84,187,133,38,-13,-32
-24,4,28,10,-26,16,81,183,132,40,-11,-30
-23,5,28,9,-25,16,78,178,131,41,-9,-27
-22,6,28,8,-25,17,76,173,129,43,-6,-24
-21,7,28,7,-24,17,74,168,127,45,-3,-22
-19,9,28,5,-23,18,71,163,125,46,0,-19
-18,10,28,3,-23,19,69,158,124,48,1,-17
-16,12,29,2,-22,20,66,153,122,49,3,-15
-14,13,29,0,-21,21,64,147,119,49,5,-13
-13,15,29,-1,-20,22,62,141,117,50,7,-11
-12,17,29,-1,-20,23,60,135,114,50,9,-9
-12,18,30,-2,-20,23,58,129,110,50,10,-7
-10,19,29,-4,-19,24,55,122,106,50,12,-5
-7,21,27,-6,-17,24,53,116,101,49,13,-3
-4,22,26,-8,-15,24,50,110,96,48,13,-2
-3,22,26,-9,-15,24,47,104,92,47,13,-2
-3,22,26,-9,-15,24,44,98,87,45,13,-2
-3,22,25,-9,-14,23,40,91,83,43,13,-1
-3,22,24,-10,-13,23,35,85,78,40,13,-1
-2,22,24,-10,-13,22,30,78,72,38,13,0
-2,22,23,-10,-12,22,25,71,67,36,13,0
-2,22,23,-10,-12,22,20,65,62,34,12,1
-2,22,23,-10,-12,22,16,60,58,32,12,1
-2,21,23,-9,-12,22,14,56,55,30,11,1
-2,20,22,-9,-12,21,12,53,52,28,10,0
-2,19,21,-8,-11,19,10,49,49,26,9,0
-2,17,19,-8,-10,18,8,45,45,23,8,0
-2,16,17,-7,-9,16,6,41,41,21,7,-1
-3,14,16,-6,-9,15,5,39,38,20,6,-1
-3,12,15,-4,-9,14,4,37,35,19,5,-1
-3,10,13,-3,-8,12,3,35,32,17,4,-2
-2,8,12,-3,-7,10,3,34,30,16,3,-2
-2,7,10,-2,-7,9,2,33,28,14,2,-3
-3,6,9,-1,-6,7,2,31,26,12,1,-3
-3,5,8,0,-6,6,2,29,24,11,0,-4
-3,4,7,0,-5,5,2,28,23,9,0,-4
-4,2,6,1,-5,3,2,26,21,8,-1,-5
-4,1,5,2,-4,2,2,25,19,6,-1,-5
-4,0,4,3,-4,1,2,24,17,5,-2,-6
-4,-2,2,3,-3,0,2,23,15,3,-3,-7
-5,-3,2,4,-3,-1,2,22,14,2,-4,-8
-7,-5,2,6,-4,-2,3,22,13,1,-5,-9
-8,-6,2,7,-5,-2,3,21,13,0,-5,-9
-9,-7,1,8,-5,-3,2,20,12,0,-6,-10
-10,-9,0,9,-5,-4,2,19,10,-1,-7,-10
-11,-10,0,10,-5,-5,3,18,9,-2,-7,-10
-11,-11,0,11,-5,-5,3,18,8,-2,-7,-11
-10,-11,-1,11,-4,-6,3,18,7,-3,-8,-11
-8,-11,-2,11,-3,-6,3,17,7,-3,-8,-12
-7,-11,-3,10,-2,-6,3,17,6,-4,-9,-12
-7,-11,-3,10,-2,-6,4,17,6,-4,-9,-12
-8,-11,-3,10,-2,-6,4,16,5,-5,-9,-12
-9,-11,-3,10,-3,-6,4,16,5,-5,-9,-12
-7,-10,-3,9,-2,-6,5,17,5,-5,-9,-12
-7,-9,-3,8,-1,-6,6,17,5,-4,-9,-12
-7,-9,-2,9,-2,-6,7,18,5,-4,-8,-12
-8,-10,-1,9,-3,-6,7,18,6,-3,-8,-12
-8,-10,-1,9,-4,-5,8,19,6,-3,-8,-12
-9,-9,0,9,-4,-5,9,19,7,-3,-8,-12
-9,-8,0,9,-5,-4,9,20,7,-3,-8,-12
-9,-8,1,9,-6,-4,9,20,7,-3,-8,-12
-10,-8,2,10,-7,-3,10,20,7,-3,-8,-12
-11,-8,3,10,-7,-3,10,19,7,-3,-8,-12
-12,-8,3,11,-8,-3,10,18,6,-4,-9,-12
-12,-9,3,11,-8,-3,10,18,6,-4,-9,-12
-12,-10,3,11,-8,-4,10,17,5,-5,-10,-12
-13,-12,2,12,-8,-5,10,17,5,-5,-10,-12
-13,-12,2,13,-8,-5,10,17,5,-6,-11,-12
-13,-11,2,13,-8,-5,10,17,5,-6,-11,-12
-14,-11,3,13,-8,-5,10,17,5,-6,-11,-12
-15,-12,3,14,-9,-5,10,17,5,-6,-11,-13
-16,-12,3,14,-10,-5,10,16,4,-6,-11,-13
-15,-12,2,14,-9,-5,10,16,4,-6,-11,-13
-14,-12,1,14,-8,-5,10,16,4,-6,-11,-13
-14,-12,1,13,-8,-5,10,16,4,-6,-11,-13
-13,-12,1,13,-7,-5,10,16,4,-6,-11,-13
-13,-12,1,12,-7,-5,10,16,4,-6,-11,-13
-13,-13,1,13,-7,-6,9,15,4,-6,-12,-13
-13,-13,0,13,-7,-7,9,15,4,-7,-12,-14
-12,-13,0,13,-6,-7,8,14,4,-7,-12,-14
-12,-12,0,13,-5,-7,8,14,4,-7,-12,-14
-12,-12,0,13,-6,-6,8,14,4,-7,-12,-14
-13,-13,0,13,-6,-6,8,14,4,-7,-12,-14
-13,-13,0,13,-6,-6,8,14,4,-7,-12,-14
-13,-13,0,12,-6,-6,8,14,4,-7,-13,-14
-12,-12,0,12,-5,-6,8,14,4,-7,-13,-14
-11,-11,0,11,-5,-5,9,15,5,-6,-12,-14
-11,-10,1,11,-6,-4,10,16,6,-5,-11,-13
-12,-9,3,11,-8,-3,11,16,7,-5,-10,-13
-13,-9,4,11,-9,-2,12,17,7,-4,-10,-12
-13,-8,5,11,-10,-1,13,17,8,-4,-10,-12
-13,-8,5,10,-9,-1,14,18,8,-4,-10,-12
-11,-7,4,9,-8,-1,14,18,8,-4,-10,-12
-10,-7,3,9,-6,-2,15,17,7,-5,-11,-13
-10,-6,4,9,-7,-1,16,18,8,-4,-11,-14
-12,-6,6,9,-9,0,18,18,9,-3,-10,-13
-13,-5,8,9,-11,2,20,19,9,-3,-10,-13
-13,-4,9,8,-11,3,22,20,10,-2,-9,-13
-13,-3,10,7,-12,4,24,21,11,-2,-9,-12
-13,-2,11,7,-12,4,26,21,11,-1,-9,-12
-13,-2,11,7,-12,5,27,21,11,-1,-9,-12
-12,-1,11,7,-12,5,26,21,11,-1,-9,-12
-12,-1,11,6,-12,5,24,21,11,-1,-9,-12
-12,0,12,6,-13,6,21,20,11,-1,-8,-12
-12,0,12,6,-13,6,18,19,11,-2,-8,-12
-12,0,13,6,-13,7,16,18,10,-2,-9,-12
-12,1,14,6,-14,8,14,17,10,-2,-9,-12
-12,3,14,5,-14,9,12,17,10,-2,-8,-12
-11,4,14,4,-13,9,10,17,10,-1,-8,-11
-10,4,13,3,-12,9,9,17,10,-1,-8,-11
-10,4,13,3,-12,9,8,17,11,-1,-8,-11
-10,4,13,3,-12,9,7,18,11,-1,-8,-11
-9,3,12,3,-11,8,7,18,11,-1,-8,-11
-8,3,11,3,-9,7,6,18,11,-1,-8,-11
-7,2,9,2,-8,5,6,18,11,-1,-8,-11
-7,1,7,3,-7,4,6,18,11,-1,-8,-11
-7,0,7,4,-7,3,7,19,11,-1,-8,-11
-8,-1,6,5,-7,2,7,19,11,-1,-8,-11
-9,-3,5,6,-7,1,8,20,11,-1,-9,-11
-9,-5,4,7,-7,0,8,20,10,-2,-9,-12
-9,-6,3,8,-6,-1,9,20,10,-2,-10,-12
-8,-6,1,7,-5,-1,9,20,10,-3,-10,-12
-6,-6,0,6,-3,-2,10,20,10,-3,-10,-12
-6,-6,0,6,-3,-2,10,21,11,-2,-10,-11
-6,-6,0,6,-3,-2,10,21,11,-2,-9,-11
-5,-6,-1,5,-2,-3,10,22,11,-2,-9,-11
-4,-5,-2,5,-1,-3,10,22,11,-2,-9,-11
-4,-5,-1,4,-1,-3,10,23,12,-1,-8,-10
-4,-4,0,4,-2,-2,10,24,13,0,-7,-9
-3,-3,0,3,-2,-1,10,24,14,1,-6,-9
-3,-3,0,3,-1,0,9,24,14,1,-6,-9
-3,-2,1,3,-2,0,9,23,14,1,-6,-9
-4,-2,1,3,-3,0,10,23,14,1,-6,-9
-5,-2,2,4,-3,0,10,23,14,1,-6,-9
-6,-2,2,4,-4,0,11,23,13,1,-6,-9
-8,-3,4,5,-6,0,11,23,13,1,-6,-9
-9,-3,5,6,-7,1,12,23,13,1,-6,-8
-8,-4,4,6,-6,0,11,22,12,0,-7,-9
-6,-5,1,5,-4,-1,11,21,11,-1,-8,-10
-5,-5,0,5,-2,-2,10,21,10,-2,-8,-10
-5,-6,0,6,-2,-3,10,20,10,-2,-9,-10
-5,-6,0,6,-2,-3,11,20,10,-2,-9,-10
-5,-6,-1,6,-2,-3,11,20,10,-2,-9,-10
-4,-6,-1,5,-2,-3,11,20,10,-2,-9,-10
-4,-6,-1,5,-2,-3,11,20,10,-2,-9,-10
-4,-6,-1,5,-2,-3,11,20,10,-2,-9,-10
-5,-7,-1,6,-2,-3,11,20,9,-2,-9,-10
-6,-7,-1,6,-3,-3,11,20,9,-2,-9,-10
-7,-7,0,7,-4,-3,11,20,9,-2,-9,-10
-7,-7,0,8,-4,-4,12,20,9,-2,-9,-10
-7,-7,-1,8,-3,-4,11,19,8,-3,-10,-10
-6,-7,-1,7,-2,-5,11,19,8,-3,-10,-11
-6,-8,-2,7,-2,-5,11,19,7,-3,-10,-11
-6,-8,-2,7,-2,-5,11,19,7,-3,-10,-11
-6,-8,-2,7,-2,-5,11,18,7,-4,-10,-11
-6,-9,-2,7,-2,-5,11,18,6,-4,-11,-11
-6,-9,-2,7,-2,-6,11,18,6,-5,-11,-11
-7,-9,-2,8,-2,-6,11,18,6,-5,-11,-11
-7,-9,-2,8,-2,-6,12,19,6,-5,-11,-12
-7,-9,-2,8,-2,-6,13,22,7,-5,-11,-12
-8,-10,-1,8,-3,-6,17,27,10,-4,-11,-12
-9,-10,0,9,-4,-5,22,35,13,-3,-10,-11
-9,-10,0,9,-4,-5,28,43,17,-1,-10,-11
-9,-9,0,9,-4,-5,35,49,21,0,-10,-12
-9,-9,0,9,-4,-5,41,52,23,1,-10,-12
-9,-9,0,9,-4,-4,44,49,24,2,-9,-11
-8,-8,1,9,-4,-3,45,41,24,4,-7,-11
-7,-6,1,7,-4,-2,41,27,22,5,-6,-10
-5,-3,1,5,-3,-1,32,6,18,7,-3,-8
-3,-1,2,2,-2,0,17,-23,12,10,0,-4
0,2,2,-1,-1,2,-3,-59,4,12,4,0
4,7,2,-5,0,5,-27,-98,-6,14,8,4
8,11,2,-10,2,7,-53,-137,-18,15,13,9
12,15,2,-13,5,8,-76,-173,-31,17,18,15
16,17,1,-16,7,9,-98,-210,-45,18,23,21
20,20,0,-20,9,10,-123,-246,-59,19,29,27
25,22,-2,-24,13,10,-151,-282,-74,22,35,34
32,25,-7,-29,20,8,-180,-317,-88,24,42,41
41,28,-12,-35,27,7,-207,-350,-102,26,48,49
49,33,-16,-41,33,8,-230,-382,-117,29,55,57
57,39,-18,-48,38,10,-250,-412,-130,32,64,65
64,46,-18,-55,41,14,-267,-439,-143,36,73,75
70,53,-17,-61,43,18,-279,-461,-153,41,82,84
75,58,-17,-66,46,20,-288,-478,-162,44,90,92
81,62,-18,-71,49,21,-294,-492,-170,47,96,99
86,65,-20,-75,53,22,-298,-503,-178,49,101,104
89,67,-21,-78,55,22,-298,-511,-186,50,106,109
91,68,-22,-79,56,23,-296,-517,-196,50,109,113
92,69,-22,-80,57,23,-295,-522,-208,49,112,117
94,70,-24,-82,59,23,-295,-527,-221,47,115,121
96,71,-25,-83,60,22,-294,-531,-234,45,118,125
97,71,-27,-84,62,21,-293,-532,-247,41,120,128
98,70,-29,-84,63,20,-291,-532,-261,36,122,131
99,69,-31,-84,65,18,-287,-530,-273,30,123,133
100,68,-32,-84,66,18,-283,-528,-285,23,124,135
102,68,-33,-85,67,18,-280,-526,-296,17,124,137
102,69,-33,-85,67,18,-278,-526,-307,9,124,139
100,69,-32,-84,66,18,-275,-524,-318,0,124,141
98,68,-30,-82,64,18,-270,-520,-327,-8,123,143
94,66,-28,-80,62,18,-264,-514,-333,-17,123,144
92,64,-28,-78,60,17,-258,-506,-337,-26,121,144
89,62,-28,-75,59,16,-251,-495,-339,-33,119,143
87,59,-27,-73,57,16,-243,-482,-337,-39,118,143
85,57,-27,-71,56,15,-236,-467,-331,-41,118,143
83,54,-28,-68,56,13,-228,-450,-321,-40,118,143
81,51,-30,-66,55,10,-219,-431,-308,-36,118,142
79,48,-31,-64,55,8,-209,-410,-292,-29,120,142
77,45,-32,-62,55,6,-199,-389,-274,-21,122,142
76,43,-34,-60,55,3,-189,-368,-257,-14,123,141
76,40,-36,-58,56,1,-178,-346,-239,-8,123,140
75,36,-39,-56,57,-2,-168,-323,-221,-1,123,138
75,33,-42,-54,58,-4,-158,-297,-201,6,124,138
76,31,-44,-53,59,-6,-148,-270,-180,15,125,138
75,29,-46,-52,60,-8,-139,-244,-159,24,126,138
75,28,-47,-51,60,-10,-129,-217,-140,31,127,137
74,26,-48,-50,61,-11,-118,-192,-121,36,126,136
72,24,-48,-48,61,-13,-107,-168,-105,38,124,133
70,21,-49,-45,60,-15,-96,-146,-92,37,119,128
67,17,-50,-41,59,-17,-85,-126,-82,34,111,121
62,11,-51,-36,57,-20,-74,-106,-72,30,101,112
57,6,-51,-31,54,-22,-62,-87,-63,26,91,102
52,0,-51,-26,52,-25,-52,-69,-54,21,79,92
48,-4,-52,-21,50,-28,-41,-53,-48,15,66,80
42,-10,-52,-16,47,-32,-31,-38,-42,7,53,67
36,-16,-52,-10,44,-34,-21,-24,-37,0,40,54
30,-20,-50,-4,40,-36,-12,-13,-32,-7,27,42
24,-23,-47,0,35,-36,-3,-2,-28,-13,16,30
18,-26,-44,4,30,-35,3,6,-24,-19,5,20
12,-28,-41,8,26,-35,9,13,-21,-23,-4,10
8,-30,-39,11,23,-35,14,19,-18,-27,-13,1
5,-31,-36,13,20,-34,18,25,-15,-30,-20,-6
1,-31,-32,15,16,-32,23,31,-11,-30,-25,-12
-2,-30,-27,16,12,-29,27,38,-6,-29,-27,-16
-5,-28,-22,17,8,-26,31,43,-1,-28,-28,-19
-8,-27,-17,18,4,-23,35,48,3,-26,-28,-21
-12,-26,-12,19,0,-19,39,53,7,-24,-29,-23
-17,-25,-7,21,-5,-16,41,57,11,-22,-29,-25
-19,-24,-5,22,-7,-15,44,60,14,-21,-30,-27
-21,-24,-3,23,-9,-14,45,62,16,-20,-31,-29
-22,-24,-2,23,-10,-13,47,64,17,-20,-31,-30
-22,-23,0,23,-11,-12,48,67,19,-19,-32,-31
-23,-23,1,23,-12,-12,50,69,20,-19,-32,-31
-24,-23,2,24,-12,-11,51,70,21,-19,-32,-31
-24,-23,2,24,-13,-11,52,70,22,-19,-32,-32
-25,-23,3,24,-13,-11,52,71,22,-19,-33,-32
-26,-23,3,24,-14,-10,53,71,23,-19,-33,-32
-27,-23,4,25,-15,-10,53,72,23,-19,-33,-33
-26,-23,3,25,-15,-11,53,73,23,-19,-33,-33
-26,-23,3,25,-14,-11,54,74,24,-19,-34,-34
-26,-23,3,25,-14,-11,55,75,25,-19,-34,-34
-26,-23,3,25,-15,-10,56,75,25,-19,-34,-35
-27,-23,4,25,-15,-10,57,76,26,-20,-34,-35
-28,-24,5,26,-16,-9,57,76,26,-20,-34,-35
-28,-24,5,26,-17,-9,58,77,26,-19,-34,-35
-28,-24,4,26,-16,-10,58,78,26,-19,-35,-35
-27,-24,3,26,-15,-10,59,79,26,-19,-35,-36
-27,-24,3,26,-15,-11,60,80,27,-19,-36,-36
-28,-24,3,26,-16,-11,62,82,28,-19,-36,-36
-27,-23,3,26,-15,-11,63,83,29,-19,-36,-36
-25,-22,3,24,-14,-11,64,85,30,-19,-36,-36
-23,-21,2,22,-13,-10,66,86,31,-19,-36,-36
-23,-21,2,21,-13,-10,67,88,31,-18,-36,-37
-23,-20,3,21,-13,-9,69,89,32,-18,-36,-37
-24,-19,5,21,-14,-7,70,91,34,-17,-36,-37
-24,-17,7,21,-16,-5,73,94,36,-15,-35,-36
-25,-16,9,21,-17,-3,76,97,38,-14,-34,-35
-26,-15,11,21,-19,-1,79,99,40,-13,-34,-35
-27,-14,13,21,-20,0,81,101,41,-12,-33,-35
-28,-13,15,21,-21,0,83,102,42,-12,-33,-35
-29,-13,16,21,-22,1,85,104,43,-12,-33,-35
-30,-13,17,21,-23,1,85,105,44,-12,-33,-35
-30,-12,18,21,-24,2,84,107,45,-11,-33,-35
-29,-11,17,20,-23,3,81,109,46,-11,-33,-35
-27,-10,16,19,-22,3,79,110,47,-11,-34,-36
-25,-9,16,18,-21,4,78,112,48,-11,-34,-36
-24,-8,17,17,-21,4,77,114,50,-10,-34,-36
-23,-6,17,15,-20,5,77,117,52,-10,-34,-36
-22,-5,18,14,-20,6,76,119,54,-9,-33,-36
-22,-3,18,12,-20,6,76,122,56,-7,-33,-35
-21,-2,18,12,-20,7,76,126,58,-7,-32,-35
-21,-2,18,12,-19,7,76,129,59,-6,-33,-36
-21,-3,18,12,-19,7,77,132,61,-6,-33,-36
-23,-3,19,13,-21,8,79,136,64,-4,-32,-36
-24,-4,20,14,-22,8,81,140,66,-3,-32,-36
-25,-4,21,15,-23,8,83,143,69,-3,-32,-36
-26,-5,22,16,-24,8,85,147,71,-2,-32,-36
-26,-6,21,17,-24,7,86,149,72,-2,-33,-36
-24,-6,18,16,-21,5,86,151,73,-3,-34,-37
-22,-7,16,15,-19,4,87,154,74,-3,-35,-39
-21,-7,14,14,-17,3,88,157,75,-3,-35,-40
-21,-8,13,15,-17,2,89,160,77,-2,-36,-41
-21,-9,12,15,-16,1,90,163,79,-2,-37,-42
-20,-10,11,16,-15,0,91,166,81,-3,-38,-43
-20,-11,9,16,-15,-1,92,168,82,-3,-39,-45
-21,-12,9,16,-15,-2,93,171,84,-3,-39,-46
-22,-12,9,17,-16,-2,95,173,86,-3,-40,-46
-23,-12,10,18,-17,-1,96,176,88,-3,-40,-47
-24,-13,11,19,-17,-1,98,180,90,-2,-41,-47
-24,-13,11,20,-18,-1,99,183,92,-2,-41,-48
-25,-13,12,20,-20,0,101,187,95,-1,-42,-49
-26,-13,13,20,-20,0,102,189,97,-1,-42,-50
-26,-13,13,20,-20,0,103,191,100,-1,-43,-51
-27,-13,14,20,-21,0,103,194,102,0,-44,-52
-29,-13,15,21,-22,0,104,196,104,1,-44,-52
-30,-13,16,21,-22,1,105,199,107,3,-43,-52
-30,-12,17,21,-23,2,106,201,109,4,-43,-52
-30,-11,17,21,-23,2,106,204,112,6,-42,-51
-30,-11,18,21,-24,3,107,206,116,8,-41,-51
-29,-11,17,21,-24,3,107,208,118,10,-40,-51
-28,-12,16,21,-22,2,106,208,120,11,-40,-51
-27,-12,15,20,-21,1,105,208,122,12,-39,-51
-26,-11,15,19,-21,1,104,209,124,14,-38,-50
-26,-11,15,18,-20,1,103,209,126,16,-37,-50
-25,-10,15,17,-20,2,102,209,128,19,-36,-49
-24,-9,15,16,-19,2,100,209,129,21,-35,-49
-23,-8,15,16,-19,3,98,208,131,24,-33,-48
-22,-7,15,15,-19,3,96,207,133,26,-31,-46
-21,-6,14,14,-18,3,94,205,134,28,-29,-45
-20,-5,14,13,-17,4,92,203,135,30,-27,-43
-19,-4,15,12,-17,5,90,200,135,32,-25,-41
-18,-3,15,11,-17,5,88,197,135,34,-22,-39
-17,-2,15,11,-16,5,86,194,135,36,-20,-37
-16,-2,14,10,-15,4,83,190,134,37,-19,-36
-15,-2,12,10,-14,3,80,185,132,38,-18,-35
-13,-2,10,9,-12,3,76,181,131,39,-16,-33
-10,-1,9,7,-10,3,73,176,129,41,-14,-31
-8,1,9,4,-9,4,70,171,128,43,-11,-28
-7,2,9,3,-8,5,67,165,125,44,-9,-25
-5,2,7,2,-6,4,64,158,122,44,-7,-23
-3,3,6,1,-5,4,60,152,119,45,-6,-22
-2,4,6,1,-4,5,56,145,116,46,-4,-20
-2,5,7,0,-4,5,52,139,113,47,-2,-18
-1,6,7,-1,-4,6,48,133,111,47,0,-15
0,7,6,-3,-3,7,45,127,108,47,1,-13
2,7,5,-4,-1,6,41,120,103,47,2,-11
3,8,4,-5,0,6,38,113,99,46,3,-9
4,8,5,-6,0,6,36,106,94,45,5,-7
5,9,5,-6,0,7,34,100,90,45,6,-6
7,11,4,-8,1,7,32,94,85,44,7,-5
9,12,4,-9,2,8,30,88,81,42,7,-4
10,13,3,-11,3,8,29,83,77,40,8,-3
10,14,3,-12,4,8,28,77,73,38,8,-2
11,14,3,-12,4,8,27,72,68,36,9,-1
11,14,3,-12,3,8,27,67,64,34,9,0
11,14,4,-12,3,9,27,62,59,33,9,0
10,14,4,-12,3,9,26,57,55,31,8,0
10,14,4,-12,2,9,25,53,51,29,7,0
10,14,4,-12,2,9,23,49,48,27,6,0
9,14,5,-12,2,9,22,45,45,25,6,0
8,14,6,-11,1,9,19,42,42,22,5,0
9,14,5,-11,1,9,15,37,38,20,4,-1
10,14,3,-11,3,8,11,33,34,17,2,-1
11,13,2,-11,3,7,7,29,31,16,2,-2
11,13,2,-11,4,7,5,26,28,14,1,-2
12,13,1,-12,5,6,4,24,26,13,0,-3
13,13,0,-12,6,5,2,21,23,12,0,-3
12,12,0,-12,6,5,0,19,21,10,-1,-4
11,11,0,-11,6,5,-2,18,20,9,-2,-4
11,10,0,-10,5,4,-3,16,19,8,-2,-4
11,9,-2,-10,6,3,-4,15,17,7,-3,-4
12,8,-4,-10,7,2,-5,14,16,6,-3,-4
12,6,-5,-9,8,0,-5,13,14,5,-4,-4
11,5,-6,-8,8,-1,-5,13,13,4,-4,-5
11,4,-7,-8,9,-2,-5,12,12,3,-5,-5
11,3,-8,-7,9,-3,-5,12,11,2,-6,-6
11,2,-9,-6,9,-3,-5,12,10,1,-6,-6
10,1,-10,-5,9,-4,-5,12,10,1,-7,-6
10,0,-11,-5,10,-6,-5,11,9,0,-7,-6
11,-1,-12,-5,11,-7,-4,11,9,0,-8,-6
11,-1,-13,-5,12,-8,-4,11,8,0,-8,-6
11,-2,-14,-4,12,-9,-4,10,7,-1,-9,-7
11,-4,-15,-4,13,-10,-4,10,6,-2,-10,-7
11,-5,-15,-3,14,-11,-4,10,5,-3,-10,-8
11,-6,-16,-3,13,-11,-3,10,4,-4,-11,-9
10,-6,-16,-2,13,-12,-3,10,4,-5,-11,-9
9,-7,-16,-1,13,-12,-2,10,3,-6,-12,-10
9,-7,-16,-1,12,-12,-2,9,3,-6,-12,-10
8,-7,-15,0,11,-11,-1,9,3,-6,-12,-10
7,-7,-14,0,10,-11,0,9,3,-6,-12,-10
6,-8,-13,1,10,-11,0,9,2,-6,-12,-10
6,-8,-13,1,10,-11,0,8,2,-6,-12,-10
6,-8,-14,1,10,-11,0,8,2,-6,-12,-10
6,-8,-14,1,9,-11,1,8,2,-6,-12,-10
5,-8,-13,1,8,-10,2,8,2,-6,-12,-10
5,-8,-13,1,8,-10,2,8,1,-7,-12,-10
5,-8,-13,1,9,-11,2,7,1,-8,-13,-11
5,-8,-13,2,9,-11,2,7,0,-8,-14,-11
5,-9,-13,3,9,-11,2,7,0,-9,-15,-11
4,-10,-14,4,9,-12,3,7,0,-9,-15,-11
4,-10,-15,4,10,-13,3,6,-1,-9,-15,-11
4,-11,-16,4,10,-14,3,6,-1,-10,-16,-11
5,-12,-17,4,11,-15,3,5,-2,-10,-16,-12
5,-13,-18,4,11,-16,3,5,-2,-11,-16,-13
5,-14,-19,4,12,-17,3,5,-3,-11,-17,-13
4,-15,-19,5,11,-17,3,5,-3,-11,-18,-14
4,-15,-19,5,11,-17,3,5,-3,-11,-18,-14
4,-15,-18,5,11,-17,4,5,-3,-11,-18,-14
4,-14,-18,5,11,-17,4,5,-3,-11,-18,-14
4,-14,-19,4,11,-17,4,5,-3,-11,-18,-14
5,-14,-19,4,11,-17,3,5,-3,-11,-17,-14
5,-13,-18,3,11,-16,3,5,-2,-10,-17,-14
5,-11,-17,3,11,-14,3,5,-1,-10,-16,-13
4,-11,-15,3,10,-13,3,5,-1,-9,-16,-13
3,-11,-14,4,9,-13,3,5,-1,-9,-16,-13
2,-11,-14,4,8,-13,3,5,-1,-9,-16,-13
2,-11,-14,4,8,-13,3,5,0,-9,-15,-13
2,-11,-14,4,7,-13,4,5,0,-8,-15,-12
2,-11,-14,4,7,-13,4,5,0,-8,-15,-12
3,-12,-16,4,9,-14,3,4,0,-9,-15,-13
4,-12,-17,4,10,-15,3,4,-1,-9,-16,-13
5,-12,-18,4,11,-15,3,3,-1,-9,-16,-14
6,-12,-18,4,12,-16,3,3,-1,-9,-16,-14
6,-12,-18,4,12,-16,3,4,-1,-9,-16,-14
5,-12,-18,4,11,-16,3,4,-1,-9,-16,-14
5,-12,-17,4,11,-15,3,4,-1,-9,-16,-14
4,-12,-15,4,10,-14,3,5,0,-8,-15,-13
3,-12,-14,4,9,-14,4,5,0,-8,-15,-13
3,-11,-14,4,9,-13,4,6,0,-8,-14,-12
4,-10,-14,3,9,-12,4,6,1,-8,-14,-12
4,-10,-14,3,9,-12,4,6,1,-7,-14,-11
3,-10,-13,4,8,-12,5,6,2,-7,-13,-11
3,-10,-12,3,7,-11,5,6,2,-7,-13,-11
4,-9,-13,3,8,-11,4,6,2,-7,-13,-12
4,-9,-13,2,8,-11,4,6,2,-7,-13,-12
3,-9,-12,2,8,-11,5,7,3,-6,-13,-11
3,-8,-12,2,8,-10,5,7,4,-6,-13,-11
3,-8,-12,2,8,-10,5,7,4,-5,-13,-11
3,-8,-11,2,7,-9,5,8,4,-5,-12,-11
2,-9,-11,3,7,-9,5,8,4,-4,-12,-10
3,-9,-12,3,7,-10,5,7,4,-4,-12,-10
4,-8,-12,2,8,-10,5,7,4,-4,-12,-10
4,-7,-11,1,7,-9,6,8,5,-4,-11,-10
3,-7,-10,2,6,-9,7,9,6,-4,-11,-9
2,-7,-10,2,6,-9,7,9,5,-4,-11,-9
4,-8,-12,1,8,-11,6,9,4,-5,-12,-10
6,-8,-14,1,10,-12,6,8,3,-6,-13,-10
6,-8,-15,1,10,-12,7,8,3,-6,-14,-11
7,-8,-15,1,11,-12,8,8,4,-6,-14,-11
7,-8,-15,0,11,-12,8,8,4,-6,-14,-11
8,-8,-15,0,11,-12,9,8,4,-6,-14,-11
7,-8,-15,0,10,-11,9,8,4,-6,-13,-11
6,-8,-14,0,9,-11,10,9,4,-6,-13,-11
5,-7,-13,1,8,-10,11,9,4,-6,-13,-11
5,-7,-12,1,8,-10,13,9,4,-6,-13,-11
5,-6,-12,1,8,-9,14,9,4,-5,-13,-11
5,-5,-11,0,7,-8,16,9,4,-5,-13,-11
4,-4,-9,0,6,-8,17,9,4,-6,-13,-11
4,-4,-9,0,6,-7,19,9,4,-6,-14,-11
3,-4,-8,0,5,-7,20,9,4,-6,-14,-11
3,-4,-8,0,5,-7,20,9,3,-6,-14,-12
3,-5,-8,1,5,-7,18,8,2,-6,-14,-12
3,-5,-9,1,5,-7,14,7,1,-7,-15,-12
3,-5,-9,0,5,-7,11,6,1,-8,-15,-12
3,-4,-8,0,5,-6,9,5,1,-8,-14,-12
3,-4,-7,1,5,-6,7,5,1,-8,-14,-11
2,-4,-6,1,3,-5,6,5,1,-7,-13,-11
1,-3,-4,1,2,-4,5,5,2,-7,-12,-10
1,-3,-4,1,2,-3,3,5,2,-6,-12,-9
1,-3,-4,0,2,-3,2,5,1,-7,-12,-9
3,-3,-5,0,4,-4,1,4,1,-7,-12,-9
4,-3,-7,-1,5,-5,0,3,0,-8,-13,-10
6,-3,-9,-1,7,-6,0,3,0,-8,-13,-10
7,-4,-11,-1,9,-7,-1,3,0,-9,-13,-10
8,-5,-13,-1,11,-9,-2,3,-1,-9,-14,-11
10,-6,-16,-2,13,-11,-3,3,-1,-10,-14,-11
11,-7,-18,-2,15,-13,-4,2,-2,-10,-15,-12
11,-7,-19,-2,15,-13,-4,2,-2,-10,-15,-12
11,-7,-18,-2,14,-13,-3,3,-1,-10,-15,-12
11,-7,-17,-2,14,-12,-3,4,0,-9,-14,-11
10,-6,-16,-2,13,-11,-2,5,0,-8,-13,-10
9,-6,-14,-2,12,-10,-2,6,1,-7,-12,-9
9,-5,-14,-2,11,-9,-2,6,2,-6,-11,-9
9,-4,-14,-3,12,-9,-2,5,2,-7,-12,-9
10,-3,-14,-3,12,-9,-2,5,2,-7,-12,-9
9,-3,-13,-3,11,-8,-2,5,2,-7,-11,-8
9,-3,-12,-3,10,-8,-2,5,2,-7,-11,-8
8,-3,-11,-2,9,-8,-2,5,1,-7,-11,-8
6,-4,-10,-1,8,-8,-1,4,1,-7,-11,-8
6,-4,-10,0,8,-8,-1,3,0,-7,-11,-8
6,-5,-11,0,8,-8,-1,3,0,-7,-11,-8
6,-5,-11,0,8,-8,-1,2,-1,-7,-11,-8
7,-5,-11,-1,8,-8,-1,2,-1,-7,-11,-8
7,-5,-12,-1,9,-8,-1,2,-1,-8,-12,-9
8,-5,-12,-2,10,-8,-2,1,-1,-8,-12,-9
8,-4,-13,-2,10,-8,-2,1,-1,-9,-13,-9
7,-4,-12,-2,9,-8,-2,1,-1,-9,-13,-9
6,-5,-11,-1,8,-8,-1,1,-1,-10,-13,-9
5,-5,-11,0,8,-9,-1,1,-2,-10,-13,-9
6,-5,-12,-1,9,-9,-1,1,-2,-10,-14,-10
7,-5,-13,-1,10,-10,-1,1,-2,-10,-14,-10
6,-5,-12,-1,9,-9,-1,2,-2,-9,-13,-10
6,-6,-12,0,9,-9,-1,2,-2,-9,-13,-10
6,-6,-12,0,9,-9,-1,2,-2,-9,-13,-10
5,-6,-11,0,8,-9,0,2,-2,-9,-13,-10
4,-6,-10,0,7,-8,0,3,-1,-9,-13,-9
3,-6,-10,1,7,-8,0,3,-1,-9,-13,-9
3,-6,-10,1,7,-9,1,3,-1,-9,-13,-9
4,-6,-11,0,8,-9,1,3,-1,-9,-13,-9
5,-7,-12,0,9,-10,1,3,-1,-9,-13,-9
6,-7,-13,0,9,-10,1,3,-1,-9,-13,-9
7,-7,-14,0,10,-11,0,3,-2,-9,-13,-10
8,-7,-15,-1,11,-11,0,3,-2,-10,-13,-10
8,-6,-15,-1,11,-11,0,3,-2,-10,-13,-10
8,-6,-15,-1,11,-11,0,3,-2,-10,-13,-10
8,-6,-14,-1,11,-11,0,3,-2,-9,-13,-10
8,-6,-14,-1,10,-10,1,3,-1,-9,-13,-9
7,-5,-13,0,9,-9,1,3,-1,-9,-13,-9
5,-5,-11,0,8,-9,1,4,0,-9,-13,-9
4,-6,-11,1,7,-8,1,4,0,-9,-13,-9
4,-6,-11,1,7,-8,1,5,0,-9,-13,-9
4,-6,-11,1,7,-9,1,5,-1,-9,-13,-9
4,-7,-12,1,8,-9,2,5,-1,-9,-13,-10
5,-7,-13,1,8,-10,2,5,-1,-9,-13,-10
6,-7,-13,0,9,-10,2,5,-1,-9,-13,-10
5,-7,-13,1,9,-10,2,5,0,-8,-12,-10
3,-7,-11,2,7,-9,3,6,0,-7,-11,-9
2,-8,-10,3,6,-9,4,6,0,-7,-11,-9
1,-8,-10,3,6,-9,5,7,1,-7,-11,-9
1,-8,-10,3,6,-9,6,8,1,-7,-11,-9
2,-8,-10,3,6,-9,6,8,2,-7,-11,-9
4,-8,-11,2,8,-10,7,8,1,-7,-12,-9
6,-8,-13,1,9,-11,7,8,0,-8,-13,-10
6,-8,-14,1,10,-11,7,7,0,-9,-14,-11
5,-8,-13,2,9,-11,8,7,-1,-10,-14,-12
4,-8,-12,2,8,-10,8,7,-1,-10,-14,-12
4,-8,-12,2,8,-10,9,7,-1,-10,-14,-12
3,-9,-12,2,7,-10,9,6,-1,-10,-15,-12
2,-9,-11,2,7,-10,10,6,-1,-10,-15,-12
2,-8,-10,2,6,-9,12,6,0,-9,-14,-12
2,-8,-9,2,5,-8,14,7,0,-9,-14,-12
2,-8,-9,2,5,-8,16,7,0,-9,-15,-13
2,-8,-9,3,5,-8,17,7,0,-10,-15,-13
0,-9,-9,4,4,-8,18,7,0,-10,-15,-13
0,-9,-8,5,3,-8,18,7,0,-10,-15,-13
0,-9,-9,5,3,-9,16,7,-1,-10,-15,-13
0,-9,-10,4,5,-10,14,5,-2,-11,-15,-13
2,-9,-11,3,6,-10,11,4,-3,-12,-16,-13
3,-9,-12,3,7,-10,9,3,-3,-12,-16,-13
3,-8,-12,3,7,-10,7,2,-4,-12,-16,-13
3,-8,-11,3,7,-10,4,2,-4,-12,-16,-13
3,-7,-10,2,6,-8,3,2,-4,-11,-15,-13
3,-5,-8,1,6,-7,2,2,-2,-10,-14,-12
4,-3,-7,0,6,-5,0,3,-1,-8,-13,-11
4,-1,-6,-1,5,-4,-1,4,0,-7,-12,-11
4,0,-4,-2,5,-3,-1,4,1,-6,-10,-9
5,1,-3,-3,4,-1,-1,5,2,-5,-9,-8
5,1,-3,-3,4,-1,-1,5,2,-5,-9,-7
5,0,-4,-2,4,-2,-2,5,2,-6,-10,-7
5,0,-4,-2,4,-2,-2,5,2,-6,-10,-8
5,0,-4,-2,4,-2,-2,5,2,-6,-10,-8
5,0,-5,-3,4,-2,-2,5,1,-6,-10,-8
4,0,-5,-2,4,-2,-2,4,1,-7,-10,-9
3,-1,-5,-2,4,-2,-1,5,2,-6,-10,-9
3,-1,-4,-1,3,-2,-1,5,2,-6,-10,-8
2,0,-3,-1,3,-1,-1,5,2,-6,-10,-8
2,0,-2,-1,2,0,-1,6,2,-6,-10,-8
1,0,-1,-1,1,0,0,6,3,-5,-9,-7
0,-2,-2,0,1,-2,0,7,3,-4,-8,-6
1,-3,-5,1,3,-4,1,7,3,-4,-8,-6
4,-3,-7,0,5,-5,0,7,3,-5,-8,-7
5,-3,-9,-1,7,-6,0,7,2,-5,-9,-7
5,-4,-9,0,7,-6,0,7,2,-6,-9,-7
4,-5,-9,0,7,-7,0,7,2,-6,-10,-7
4,-6,-10,1,7,-7,1,7,2,-6,-10,-7
4,-6,-10,1,7,-8,1,7,2,-6,-10,-8
4,-7,-11,2,7,-8,1,7,1,-6,-10,-9
4,-8,-11,2,7,-9,1,7,1,-7,-11,-9
4,-8,-12,2,7,-10,1,6,0,-8,-11,-10
