leadI,leadII,leadIII,leadaVR,leadaVL,leadaVF,leadV1,leadV2,leadV3,leadV4,leadV5,leadV6
9,14,5,-11,1,10,-1,0,0,1,0,0
24,37,13,-30,5,25,-2,2,1,3,2,1
35,50,15,-42,10,32,-2,4,3,5,4,3
43,56,13,-49,15,34,0,6,5,7,6,6
47,58,10,-52,18,33,2,8,7,9,8,8
48,57,8,-52,20,32,4,9,8,10,9,10
47,56,8,-51,19,32,5,9,8,10,9,10
46,56,10,-50,18,33,5,8,7,9,8,9
45,57,12,-51,17,34,4,6,5,8,7,8
45,57,13,-50,16,35,4,6,5,7,6,7
44,55,11,-49,17,33,4,5,4,6,6,6
45,52,7,-48,19,29,5,5,4,6,6,7
45,48,2,-47,21,25,7,6,5,7,7,8
46,45,-1,-46,23,22,9,8,6,9,9,10
44,43,-1,-44,22,21,12,9,7,10,10,11
41,41,0,-41,20,20,14,10,8,9,10,11
39,40,1,-39,19,20,14,10,7,8,9,10
38,39,1,-38,18,20,15,9,7,8,8,9
39,38,0,-37,19,18,15,9,7,7,8,8
39,34,-5,-36,22,15,16,9,7,7,8,9
38,29,-9,-34,23,10,18,10,8,8,9,10
37,25,-13,-31,25,6,19,11,9,9,10,11
37,21,-16,-29,26,2,20,11,9,9,10,11
34,18,-17,-27,25,0,21,11,9,9,10,11
32,16,-16,-24,24,-1,21,10,9,9,10,11
30,15,-15,-23,23,0,22,10,9,9,10,11
30,14,-15,-22,22,-1,22,11,9,9,11,12
31,11,-20,-21,25,-4,23,12,9,9,11,12
32,7,-25,-19,28,-9,24,13,10,10,12,13
32,3,-29,-18,30,-12,26,14,12,12,13,15
32,0,-33,-16,32,-16,28,15,14,14,15,16
30,-4,-35,-13,33,-20,29,16,15,15,15,17
29,-7,-37,-11,33,-22,30,17,15,15,16,18
29,-9,-38,-10,34,-24,30,17,16,15,16,19
29,-10,-39,-9,34,-25,31,19,17,16,18,20
29,-13,-43,-7,36,-28,32,20,18,18,19,21
29,-19,-48,-5,39,-34,34,21,19,19,21,22
29,-25,-55,-2,42,-40,36,22,20,21,22,24
29,-31,-61,0,45,-46,38,24,22,22,24,26
29,-35,-65,3,46,-50,40,25,24,24,25,28
29,-39,-67,5,48,-54,41,27,25,25,27,30
29,-43,-71,7,50,-57,43,28,26,26,28,31
29,-47,-75,9,52,-62,44,29,28,28,30,32
29,-54,-83,12,56,-68,46,31,30,30,32,34
30,-62,-93,16,62,-77,49,34,33,33,35,37
31,-73,-106,21,68,-89,53,38,37,37,39,41
32,-87,-120,27,76,-103,58,43,42,42,44,46
32,-101,-134,33,83,-117,64,48,48,48,49,52
32,-111,-144,39,87,-127,68,53,52,52,53,56
32,-116,-148,42,89,-132,70,55,53,54,56,59
31,-117,-148,43,89,-133,71,55,54,55,57,59
30,-116,-145,44,87,-131,72,56,55,55,57,59
28,-116,-143,44,85,-129,72,55,56,55,58,59
26,-116,-141,45,83,-128,73,55,56,55,58,59
23,-115,-138,46,80,-127,73,55,57,56,58,59
20,-115,-136,46,77,-125,75,56,58,57,59,59
17,-114,-132,48,74,-124,76,59,60,58,61,60
15,-114,-129,49,72,-122,78,62,63,61,63,62
15,-113,-128,49,72,-121,79,68,67,65,66,64
17,-113,-129,49,73,-121,79,74,71,70,69,67
20,-114,-134,48,77,-124,79,82,76,77,73,71
25,-116,-141,46,83,-128,78,89,80,84,77,75
31,-118,-150,44,91,-134,76,94,82,90,80,79
39,-119,-160,40,100,-139,71,93,81,94,81,82
48,-119,-168,36,108,-144,63,86,77,94,81,85
55,-119,-175,32,115,-148,52,70,69,91,79,86
63,-118,-181,27,122,-150,41,50,58,86,77,88
70,-116,-185,23,128,-151,32,29,47,78,73,88
76,-116,-191,20,133,-153,25,10,35,69,68,87
83,-116,-199,16,141,-157,18,-7,23,59,63,85
92,-118,-211,13,151,-164,10,-26,9,48,55,83
103,-123,-226,10,164,-175,0,-46,-9,32,44,77
110,-128,-240,9,174,-185,-10,-68,-29,14,30,69
113,-133,-247,10,179,-191,-18,-89,-48,-5,17,60
112,-138,-251,13,181,-195,-23,-109,-65,-24,4,48
109,-145,-254,18,181,-199,-26,-124,-79,-43,-10,34
105,-155,-259,25,182,-207,-28,-134,-92,-62,-25,18
103,-165,-267,31,185,-216,-30,-142,-104,-78,-40,2
100,-175,-274,38,187,-224,-32,-145,-111,-89,-52,-10
97,-182,-280,43,187,-231,-31,-142,-114,-95,-59,-19
94,-188,-283,47,187,-236,-28,-134,-113,-97,-64,-25
90,-193,-284,52,186,-239,-23,-122,-109,-95,-67,-31
85,-198,-283,56,183,-241,-17,-108,-103,-92,-68,-35
79,-200,-280,60,179,-240,-10,-94,-96,-86,-67,-37
74,-200,-274,63,174,-237,-3,-80,-86,-78,-62,-35
68,-199,-265,65,166,-232,4,-65,-73,-66,-54,-29
60,-195,-254,67,157,-224,12,-50,-59,-52,-43,-21
53,-189,-242,68,147,-215,20,-35,-44,-39,-31,-12
46,-181,-228,68,137,-205,27,-21,-30,-25,-19,-3
40,-172,-214,66,127,-193,33,-7,-17,-12,-7,6
36,-163,-199,64,117,-181,38,5,-5,0,2,14
32,-155,-187,62,109,-171,42,15,5,8,10,19
28,-148,-176,61,102,-162,46,25,13,17,17,24
24,-143,-167,60,96,-155,51,34,21,24,23,28
21,-139,-160,59,91,-149,55,42,28,31,28,32
19,-136,-155,58,87,-145,59,48,34,37,33,36
18,-133,-152,57,85,-143,62,52,38,41,36,38
16,-131,-148,57,82,-140,64,56,41,44,39,40
13,-128,-142,57,77,-136,65,60,45,46,41,41
11,-125,-136,57,74,-131,66,63,47,48,43,42
10,-123,-132,56,71,-127,67,65,49,49,44,42
8,-121,-129,56,69,-125,68,67,50,51,44,42
8,-121,-129,56,69,-124,69,68,51,52,45,43
8,-120,-129,56,69,-124,70,69,52,53,46,44
9,-120,-129,56,69,-124,72,70,54,55,48,46
9,-119,-128,56,68,-124,73,72,55,56,49,47
7,-119,-126,56,66,-123,73,73,56,57,49,47
6,-117,-123,56,64,-120,73,73,56,57,49,46
6,-114,-119,54,63,-117,72,74,56,57,49,46
7,-111,-117,52,62,-114,72,74,56,57,49,45
9,-108,-117,50,63,-112,71,74,56,57,49,45
8,-106,-115,48,61,-110,71,74,56,57,49,45
7,-104,-112,48,59,-107,71,75,56,58,49,45
6,-102,-109,47,57,-105,71,75,57,58,49,45
4,-99,-104,47,54,-101,70,74,56,57,49,45
4,-95,-100,45,52,-98,69,73,55,56,48,44
5,-91,-97,43,51,-94,67,72,54,55,47,43
5,-87,-93,41,50,-90,66,72,54,55,46,42
6,-84,-91,39,49,-87,66,72,53,55,46,41
6,-83,-90,38,48,-86,65,72,53,55,45,41
6,-81,-88,37,48,-85,64,72,53,55,45,40
6,-79,-86,36,46,-83,64,72,53,55,45,40
4,-77,-81,36,43,-80,63,71,53,55,45,40
1,-75,-77,37,40,-77,62,70,52,55,44,39
1,-72,-73,36,38,-73,61,69,51,54,43,38
1,-68,-69,34,36,-69,60,69,51,53,43,37
1,-66,-67,32,35,-66,59,68,50,53,42,36
2,-64,-66,31,34,-65,58,68,49,52,41,36
3,-62,-64,30,33,-63,57,68,49,52,41,35
3,-61,-63,29,32,-62,56,68,48,51,40,35
2,-60,-61,29,31,-61,55,67,48,51,39,34
1,-57,-58,28,30,-58,54,67,47,50,38,33
2,-53,-55,26,29,-55,53,66,47,50,38,32
1,-50,-51,25,27,-51,52,66,46,49,38,31
0,-48,-48,24,24,-48,52,65,46,49,38,31
0,-46,-47,23,23,-46,51,65,46,49,37,31
1,-43,-45,21,22,-44,50,65,45,48,36,30
1,-41,-42,20,21,-42,49,64,44,48,35,30
0,-38,-39,19,20,-39,48,64,44,48,35,29
0,-36,-35,18,18,-36,47,64,43,47,35,29
-1,-33,-32,17,16,-33,46,64,43,47,35,28
-1,-30,-28,16,14,-30,45,64,43,47,34,27
-1,-27,-25,15,12,-26,44,64,42,47,33,26
-1,-24,-23,13,11,-23,43,64,42,46,32,25
-1,-22,-21,12,10,-22,42,64,41,46,31,24
-1,-20,-19,10,9,-20,42,64,41,46,31,24
0,-17,-18,8,8,-18,41,63,41,45,31,24
0,-14,-15,6,7,-15,39,63,40,45,30,22
0,-10,-11,5,6,-11,38,62,40,44,30,22
0,-7,-7,4,3,-7,37,62,40,44,30,21
-1,-3,-2,2,1,-2,36,62,39,44,29,20
-2,0,1,1,-1,1,34,61,38,43,28,19
-3,1,4,1,-3,3,33,60,37,42,26,17
-4,3,7,0,-6,5,31,60,36,40,25,15
-5,5,10,0,-8,8,30,59,35,39,23,14
-4,9,14,-2,-9,11,28,58,34,38,22,13
-4,14,18,-5,-11,15,27,57,33,37,21,11
-5,18,23,-6,-14,20,26,57,32,37,21,10
-6,22,28,-7,-16,25,25,57,32,37,20,10
-5,27,33,-10,-18,30,24,57,31,37,20,10
-5,31,36,-12,-20,33,23,57,31,36,19,9
-5,33,39,-13,-22,36,21,56,30,35,18,7
-6,36,42,-15,-24,38,19,55,29,35,16,6
-5,40,44,-17,-25,41,18,55,28,34,15,4
-5,43,48,-19,-27,45,16,54,28,34,14,3
-6,47,54,-20,-30,49,15,53,27,33,13,2
-8,50,59,-21,-33,54,14,53,26,33,12,1
-8,54,63,-23,-35,59,13,53,25,32,12,0
-9,58,67,-24,-37,63,13,53,25,32,11,0
-9,60,69,-25,-38,65,12,53,25,32,11,0
-7,63,70,-28,-38,66,10,53,25,31,10,0
-6,65,71,-29,-38,67,9,52,24,31,10,-1
-7,67,74,-30,-41,69,8,52,24,31,9,-2
-9,69,78,-30,-43,72,7,52,24,31,9,-2
-10,71,81,-31,-45,75,7,52,24,31,8,-3
-11,73,83,-31,-46,78,6,52,24,30,8,-3
-10,74,84,-32,-46,79,6,52,23,30,8,-3
-9,75,84,-32,-46,80,5,52,23,30,8,-4
-9,77,86,-33,-47,81,5,52,23,30,8,-4
-9,78,87,-34,-48,82,4,51,23,30,7,-5
-10,78,88,-34,-49,83,4,51,23,29,7,-5
-10,80,90,-35,-50,85,3,50,23,29,6,-6
-10,82,92,-36,-51,87,2,49,22,28,6,-6
-10,84,94,-37,-52,90,1,48,21,27,6,-7
-10,87,97,-38,-53,92,0,47,20,26,5,-7
-10,89,100,-39,-55,94,0,45,19,25,4,-8
-12,91,103,-39,-57,97,-1,43,18,24,3,-9
-13,93,106,-40,-59,99,-3,41,17,23,2,-10
-13,96,108,-41,-60,101,-4,40,16,22,1,-11
-13,98,111,-42,-62,104,-5,38,14,20,0,-12
-14,100,114,-43,-64,106,-7,35,12,18,0,-13
-15,101,116,-43,-66,109,-8,33,11,17,-1,-13
-16,103,120,-43,-68,112,-8,31,10,16,-1,-13
-14,105,121,-45,-67,114,-8,29,9,15,-1,-13
-13,106,121,-46,-67,114,-9,26,8,14,-2,-13
-14,106,121,-46,-67,113,-10,23,6,12,-3,-14
-15,106,121,-45,-68,113,-11,20,5,10,-4,-14
-17,106,123,-45,-69,114,-12,17,4,9,-5,-13
-17,106,123,-45,-70,114,-13,14,2,8,-5,-13
-15,106,122,-45,-68,114,-14,11,0,6,-6,-13
-14,106,121,-46,-68,114,-16,7,-2,3,-7,-14
-14,106,122,-45,-68,114,-16,4,-4,1,-7,-14
-15,105,121,-44,-68,114,-17,2,-5,0,-8,-14
-16,104,120,-43,-68,112,-17,0,-7,-2,-9,-15
-17,103,120,-42,-68,111,-17,-2,-8,-3,-9,-15
-18,102,120,-42,-69,111,-17,-4,-9,-5,-10,-15
-17,101,118,-42,-67,110,-18,-7,-11,-7,-11,-16
-16,101,117,-42,-67,109,-19,-10,-12,-8,-11,-16
-17,100,118,-41,-67,109,-19,-12,-13,-10,-12,-16
-17,100,117,-40,-67,109,-19,-14,-15,-11,-13,-16
-17,98,115,-40,-66,107,-20,-15,-16,-13,-14,-16
-17,96,113,-39,-65,104,-20,-17,-17,-14,-14,-16
-15,95,110,-40,-63,103,-20,-18,-18,-15,-15,-16
-15,95,109,-40,-62,102,-20,-19,-18,-15,-15,-16
-16,94,109,-39,-63,101,-20,-21,-18,-16,-15,-16
-16,92,108,-38,-62,100,-21,-23,-20,-17,-16,-16
-16,91,107,-37,-62,99,-22,-24,-21,-18,-17,-17
-16,89,106,-35,-61,97,-22,-26,-22,-20,-18,-18
-17,86,104,-33,-61,95,-22,-27,-23,-21,-18,-18
-18,84,103,-32,-61,94,-22,-27,-23,-21,-18,-17
-18,83,102,-32,-60,93,-21,-27,-22,-20,-17,-17
-18,82,101,-31,-60,92,-20,-27,-22,-20,-17,-16
-19,81,101,-30,-60,91,-20,-27,-23,-21,-18,-16
-20,80,99,-29,-59,89,-20,-28,-23,-21,-18,-17
-19,79,98,-29,-58,88,-21,-29,-24,-22,-18,-17
-18,79,97,-30,-57,88,-21,-29,-24,-22,-18,-17
-17,78,96,-30,-56,87,-21,-29,-24,-22,-18,-17
-16,77,94,-30,-55,85,-21,-29,-24,-22,-18,-17
-17,75,93,-29,-55,83,-21,-29,-24,-22,-18,-17
-17,75,92,-28,-55,83,-21,-29,-24,-22,-18,-17
-18,74,92,-28,-55,82,-21,-29,-24,-22,-18,-17
-19,74,92,-27,-55,82,-20,-29,-23,-22,-18,-17
-19,74,92,-27,-55,83,-20,-29,-23,-22,-18,-16
-18,74,92,-27,-55,83,-19,-29,-23,-22,-17,-16
-17,73,91,-27,-54,82,-19,-30,-23,-22,-17,-16
-17,72,91,-27,-54,82,-20,-30,-23,-22,-18,-17
-18,72,91,-27,-55,82,-20,-30,-24,-22,-18,-17
-18,72,91,-27,-55,81,-21,-30,-24,-22,-18,-17
-17,73,90,-28,-54,81,-20,-29,-23,-22,-18,-17
-16,73,89,-28,-52,80,-19,-29,-22,-21,-17,-16
-15,73,89,-28,-52,80,-19,-28,-21,-21,-17,-16
-15,73,89,-28,-52,81,-18,-28,-21,-21,-16,-16
-16,73,90,-28,-53,81,-18,-28,-20,-21,-16,-16
-16,73,90,-28,-53,81,-18,-27,-20,-21,-15,-15
-16,74,90,-28,-53,82,-17,-26,-19,-21,-15,-15
-15,74,90,-29,-53,82,-17,-26,-18,-20,-15,-14
-14,74,88,-30,-52,80,-17,-25,-18,-19,-14,-13
-15,72,87,-29,-51,79,-16,-24,-17,-18,-13,-12
-15,71,86,-28,-50,78,-15,-23,-15,-17,-13,-12
-15,69,85,-27,-49,77,-14,-22,-14,-17,-12,-11
-14,68,84,-26,-49,76,-14,-22,-14,-16,-12,-11
-14,68,83,-26,-48,75,-14,-21,-13,-16,-11,-11
-14,67,82,-26,-48,74,-14,-20,-13,-15,-10,-10
-14,65,79,-25,-47,72,-14,-19,-12,-14,-9,-9
-14,63,77,-24,-46,69,-13,-18,-11,-14,-8,-8
-16,60,75,-22,-46,67,-13,-18,-10,-13,-8,-8
-16,57,73,-20,-45,65,-12,-17,-9,-12,-7,-7
-16,55,72,-20,-44,63,-11,-15,-7,-11,-5,-6
-16,54,70,-18,-43,62,-10,-14,-6,-10,-4,-5
-16,52,69,-17,-42,60,-10,-13,-5,-9,-3,-4
-16,50,67,-16,-41,58,-10,-13,-4,-8,-2,-3
-15,49,64,-16,-39,56,-9,-12,-3,-7,0,-2
-15,47,62,-15,-38,54,-9,-12,-2,-6,0,0
-16,43,59,-14,-37,51,-9,-11,-1,-5,1,1
-16,39,56,-12,-36,47,-9,-11,0,-5,2,2
-16,34,51,-10,-33,42,-10,-11,0,-4,2,2
-15,30,46,-8,-31,38,-11,-12,0,-4,2,3
-14,28,42,-6,-28,35,-10,-11,0,-3,3,4
-13,25,38,-5,-26,32,-9,-10,1,-1,5,6
-13,21,34,-4,-24,27,-8,-10,2,-1,6,7
-14,16,30,-1,-22,23,-8,-10,2,-1,6,7
-15,11,27,1,-21,18,-7,-10,2,0,7,8
-15,7,23,3,-19,14,-5,-9,4,1,9,10
-14,3,18,5,-16,11,-3,-8,5,2,11,12
-15,0,15,7,-15,7,-1,-6,6,3,12,13
-16,-5,11,10,-13,3,1,-4,7,5,12,14
-16,-9,6,13,-11,-2,2,-4,7,5,12,15
-16,-15,1,16,-8,-7,3,-3,7,5,13,15
-18,-20,-2,20,-7,-12,5,-2,8,6,14,16
-18,-24,-6,21,-6,-15,6,-1,9,7,15,17
-20,-27,-8,23,-5,-18,8,-1,10,7,15,17
-21,-30,-9,25,-5,-20,10,0,11,8,16,17
-22,-33,-11,27,-5,-22,12,0,11,7,15,17
-23,-35,-12,29,-5,-23,13,-1,10,7,15,16
-25,-37,-12,31,-6,-24,13,-1,10,6,14,16
-27,-38,-12,33,-7,-25,13,-1,9,5,14,15
-27,-39,-12,34,-7,-26,13,-2,8,4,13,14
-27,-40,-13,35,-7,-27,12,-3,7,3,12,13
-28,-40,-13,34,-7,-27,11,-3,6,2,11,12
-28,-39,-11,33,-8,-25,11,-5,4,0,10,11
-27,-36,-8,31,-9,-22,9,-8,2,-1,8,9
-26,-32,-5,29,-10,-18,8,-10,0,-3,6,8
-26,-28,-2,27,-11,-15,7,-11,-2,-5,4,6
-28,-25,2,27,-14,-12,6,-12,-3,-7,3,5
-29,-22,6,26,-17,-8,5,-13,-3,-8,2,4
-29,-19,10,25,-19,-5,3,-15,-4,-9,1,3
-30,-17,13,23,-21,-3,2,-16,-6,-11,0,2
-31,-15,16,23,-23,0,1,-18,-7,-12,-1,1
-32,-13,19,22,-25,2,0,-19,-9,-13,-2,0
-32,-10,21,21,-26,5,0,-20,-10,-14,-3,-1
-32,-8,24,21,-27,7,-1,-21,-12,-15,-4,-2
-32,-6,26,20,-28,9,-2,-22,-13,-16,-5,-3
-32,-5,28,19,-30,11,-3,-23,-14,-17,-7,-4
-33,-3,30,18,-31,13,-4,-24,-14,-18,-8,-5
-34,-2,32,18,-33,15,-5,-25,-15,-19,-9,-6
-35,-1,34,17,-34,16,-6,-26,-17,-21,-10,-7
-35,0,36,17,-35,18,-7,-27,-18,-22,-11,-8
-36,2,38,17,-37,20,-7,-28,-19,-22,-11,-9
-36,5,40,15,-38,23,-7,-28,-20,-23,-11,-9
-34,7,41,13,-37,24,-8,-29,-20,-24,-12,-10
-33,9,42,12,-37,25,-9,-30,-21,-25,-12,-10
-33,11,44,11,-38,27,-9,-31,-21,-25,-13,-10
-34,12,45,11,-39,28,-9,-32,-21,-26,-13,-11
-35,11,46,12,-40,28,-10,-33,-21,-26,-14,-12
-35,10,46,12,-41,28,-10,-33,-22,-27,-15,-12
-35,11,47,12,-41,28,-10,-33,-22,-27,-15,-12
-36,12,49,12,-42,30,-10,-33,-22,-27,-14,-12
-38,13,51,12,-44,31,-9,-32,-21,-27,-14,-12
-39,14,53,12,-45,33,-8,-32,-20,-27,-14,-12
-40,15,56,12,-47,35,-6,-31,-19,-27,-13,-12
-42,16,58,13,-50,37,-5,-29,-16,-26,-11,-11
-43,16,60,13,-51,37,-3,-28,-14,-25,-10,-11
-44,16,60,14,-52,38,-2,-25,-12,-23,-8,-10
-45,16,61,14,-52,38,0,-21,-9,-20,-6,-8
-45,15,60,14,-52,38,0,-16,-4,-15,-2,-5
-42,15,57,13,-49,37,0,-8,1,-7,2,0
-38,15,53,11,-45,34,0,0,7,1,8,5
-33,14,47,9,-39,31,-1,7,12,10,13,11
-27,12,39,7,-33,26,-4,12,15,18,17,17
-20,10,30,5,-25,20,-9,11,15,24,21,23
-11,8,19,1,-15,13,-17,4,12,28,24,30
0,7,7,-3,-3,6,-26,-9,5,29,26,37
9,7,-3,-8,7,1,-35,-26,-4,28,27,43
18,6,-12,-12,15,-2,-43,-45,-15,24,26,47
24,5,-20,-14,22,-7,-50,-63,-26,17,23,48
30,3,-27,-16,29,-11,-57,-78,-38,9,19,49
37,1,-36,-19,37,-17,-64,-93,-52,-1,12,48
46,-3,-49,-21,48,-26,-73,-110,-70,-16,1,44
51,-8,-60,-21,56,-34,-82,-129,-90,-34,-11,36
53,-12,-66,-20,60,-39,-88,-149,-108,-55,-25,27
52,-18,-70,-16,61,-44,-92,-167,-124,-76,-40,13
49,-27,-76,-11,63,-51,-94,-180,-139,-98,-58,-6
47,-37,-84,-5,66,-60,-96,-189,-153,-117,-77,-27
44,-47,-91,1,68,-69,-99,-195,-164,-134,-94,-46
40,-56,-96,8,68,-76,-99,-196,-170,-146,-106,-61
38,-64,-101,13,69,-82,-97,-192,-172,-153,-114,-71
36,-71,-106,17,71,-89,-93,-183,-170,-156,-120,-78
33,-78,-111,23,72,-95,-86,-171,-165,-154,-123,-84
29,-86,-115,28,72,-101,-79,-158,-158,-150,-123,-87
24,-92,-117,34,71,-104,-71,-146,-149,-144,-121,-88
17,-98,-115,40,66,-106,-63,-134,-138,-134,-114,-85
8,-100,-109,46,59,-104,-54,-120,-124,-121,-104,-78
1,-100,-100,49,51,-100,-44,-104,-108,-107,-92,-70
-5,-96,-90,51,42,-93,-35,-89,-92,-92,-78,-59
-10,-89,-79,50,34,-85,-27,-74,-77,-78,-65,-48
-13,-82,-68,48,28,-76,-20,-60,-62,-64,-52,-39
-15,-75,-59,45,22,-67,-14,-48,-49,-52,-41,-30
-17,-69,-52,43,17,-60,-9,-37,-38,-41,-33,-24
-18,-64,-46,41,14,-54,-5,-28,-29,-32,-26,-19
-19,-60,-40,40,11,-49,-1,-19,-21,-25,-19,-15
-23,-57,-34,40,6,-45,3,-12,-14,-18,-14,-11
-25,-55,-29,40,2,-42,6,-7,-9,-14,-10,-9
-27,-53,-26,40,0,-40,8,-3,-5,-11,-7,-6
-28,-52,-23,40,-3,-38,10,0,-2,-8,-4,-4
-29,-50,-21,40,-4,-36,12,3,0,-5,-2,-3
-30,-48,-18,39,-5,-34,14,5,3,-3,0,-1
-31,-47,-16,39,-7,-31,15,8,5,-1,0,-1
-30,-45,-15,38,-7,-29,16,10,6,0,1,-1
-30,-43,-13,36,-7,-27,16,11,7,1,2,-1
-31,-41,-10,36,-9,-25,17,12,8,2,3,0
-32,-40,-8,36,-12,-24,17,13,9,2,3,0
-34,-39,-5,36,-14,-23,18,13,9,3,4,0
-34,-37,-2,35,-16,-20,18,14,10,4,4,0
-33,-34,0,34,-16,-18,18,14,10,4,4,0
-32,-31,1,32,-16,-15,17,14,10,4,4,0
-32,-29,3,31,-17,-13,16,14,10,5,3,-1
-33,-27,5,31,-19,-11,16,15,10,5,3,-1
-34,-26,8,30,-21,-9,16,15,10,5,3,-2
-35,-24,11,29,-23,-7,16,16,10,5,3,-2
-35,-21,14,28,-25,-4,16,16,10,5,3,-2
-36,-19,18,28,-27,-1,15,15,10,5,3,-2
-35,-16,20,26,-28,1,14,14,9,4,2,-3
-33,-12,20,23,-26,4,13,13,8,4,1,-4
-31,-8,22,20,-26,7,12,13,8,4,1,-4
-32,-6,25,19,-28,10,11,13,8,4,1,-5
-33,-4,29,18,-30,13,11,13,8,4,1,-5
-34,-2,33,17,-33,15,10,14,8,4,1,-5
-33,1,35,15,-34,18,10,14,8,4,1,-5
-32,5,38,13,-35,21,9,13,8,3,0,-6
-31,8,40,12,-36,24,8,13,7,3,0,-7
-31,11,42,10,-36,26,7,12,7,2,-1,-8
-30,13,43,9,-37,29,6,12,6,2,-2,-10
-31,15,46,8,-38,31,5,11,6,1,-3,-11
-32,17,50,7,-41,34,5,11,6,1,-4,-11
-32,20,53,6,-42,36,4,11,6,1,-4,-11
-31,23,55,4,-43,38,4,11,5,1,-4,-12
-32,26,59,3,-45,41,3,11,5,0,-5,-12
-32,29,63,2,-47,45,2,11,4,0,-6,-13
-31,33,65,0,-48,49,1,10,4,0,-7,-14
-31,37,67,-2,-48,52,0,10,3,0,-7,-15
-31,39,70,-4,-50,55,0,10,3,0,-8,-15
-31,42,73,-5,-52,57,-1,10,2,-1,-8,-16
-31,45,76,-7,-53,61,-2,10,2,-1,-8,-17
-29,50,79,-10,-54,64,-3,9,2,-2,-9,-17
-28,54,83,-13,-55,68,-4,8,1,-3,-10,-18
-28,58,87,-14,-56,72,-6,8,1,-3,-10,-19
-28,62,90,-16,-58,76,-7,7,0,-4,-12,-21
-29,65,94,-17,-61,80,-9,5,-1,-5,-13,-22
-30,69,99,-18,-64,84,-11,4,-2,-6,-14,-24
-30,72,103,-21,-66,88,-12,4,-3,-7,-15,-25
-29,77,107,-24,-68,92,-13,4,-3,-7,-16,-26
-30,80,111,-25,-70,95,-14,4,-4,-8,-17,-27
-31,83,115,-26,-73,98,-15,3,-5,-8,-18,-29
-32,86,118,-27,-75,101,-17,2,-6,-9,-19,-30
-31,90,121,-29,-76,105,-18,2,-6,-9,-20,-31
-30,93,123,-31,-76,108,-19,2,-7,-9,-21,-31
-31,95,126,-32,-78,111,-20,2,-7,-10,-21,-32
-31,98,130,-33,-80,114,-21,2,-7,-10,-22,-33
-31,101,133,-35,-82,117,-22,2,-7,-10,-22,-33
-32,103,137,-35,-84,119,-23,2,-7,-10,-22,-34
-33,105,139,-36,-85,121,-24,2,-7,-10,-22,-34
-34,107,142,-36,-87,124,-25,2,-7,-10,-23,-35
-36,109,144,-36,-89,126,-26,2,-7,-10,-24,-36
-36,110,146,-36,-90,128,-26,3,-7,-9,-24,-37
-35,112,147,-38,-91,129,-27,4,-6,-8,-24,-37
-35,112,147,-39,-91,130,-27,5,-6,-8,-24,-37
-34,113,147,-39,-91,131,-27,6,-5,-7,-24,-37
-34,114,149,-40,-91,132,-27,7,-4,-7,-23,-36
-34,114,149,-40,-91,132,-27,8,-3,-6,-23,-36
-33,115,149,-41,-91,131,-27,9,-2,-5,-22,-36
-32,115,149,-41,-90,132,-27,10,-1,-4,-21,-35
-32,116,149,-41,-91,132,-27,11,0,-3,-21,-35
-32,117,149,-42,-91,133,-27,12,0,-2,-20,-34
-31,118,149,-43,-90,134,-26,12,1,0,-19,-34
-30,119,149,-44,-90,134,-26,14,2,0,-19,-33
-30,119,149,-44,-90,134,-26,15,3,1,-19,-33
-31,118,149,-43,-90,133,-26,16,3,1,-18,-33
-32,118,151,-43,-91,134,-26,17,4,2,-18,-32
-34,118,153,-42,-93,135,-26,18,6,3,-17,-32
-34,118,153,-42,-93,135,-26,18,6,4,-17,-31
-32,118,151,-43,-91,135,-26,18,7,5,-16,-31
-31,118,149,-43,-90,134,-25,19,7,6,-16,-31
-31,117,148,-43,-89,133,-24,20,8,6,-15,-30
-30,117,147,-43,-88,132,-24,21,9,7,-14,-29
-29,118,147,-44,-87,132,-23,22,10,8,-12,-28
-28,117,146,-44,-87,131,-23,22,11,9,-12,-27
-28,116,145,-44,-86,130,-23,23,11,9,-11,-27
-28,116,145,-44,-86,130,-23,23,11,10,-11,-26
-28,115,144,-44,-86,130,-22,23,12,10,-11,-26
-28,115,143,-44,-85,129,-22,23,12,10,-10,-26
-28,114,142,-43,-85,129,-22,23,12,10,-10,-25
-29,112,141,-42,-84,127,-22,22,12,10,-9,-25
-29,111,140,-41,-84,126,-22,22,12,9,-9,-24
-28,111,139,-41,-84,125,-22,20,12,9,-8,-24
-27,112,139,-42,-83,125,-22,19,12,9,-8,-23
-27,112,140,-42,-83,125,-22,17,12,9,-8,-22
-27,112,140,-43,-83,125,-22,15,11,8,-8,-21
-27,112,139,-43,-83,125,-23,13,10,7,-8,-21
-28,111,139,-42,-84,126,-23,12,9,6,-8,-20
-29,111,140,-41,-85,126,-23,10,9,5,-7,-19
-28,111,139,-41,-84,125,-23,8,7,3,-8,-19
-28,110,138,-40,-83,124,-24,5,5,0,-8,-20
-27,110,137,-40,-82,123,-24,1,4,-2,-8,-20
-28,109,137,-40,-82,123,-25,-2,2,-4,-9,-20
-28,109,138,-40,-83,123,-26,-5,0,-6,-10,-20
-28,109,138,-40,-83,123,-26,-8,-1,-8,-11,-20
-29,108,137,-40,-83,123,-27,-10,-3,-10,-12,-20
-29,108,137,-40,-83,123,-28,-13,-5,-12,-13,-20
-28,107,136,-39,-82,122,-29,-16,-7,-14,-14,-21
-27,107,135,-39,-81,121,-29,-18,-9,-15,-15,-21
-27,107,135,-39,-81,121,-28,-20,-10,-17,-15,-20
-28,107,136,-39,-82,121,-29,-23,-11,-18,-15,-20
-28,107,136,-39,-82,121,-29,-27,-13,-21,-16,-21
-28,106,135,-39,-81,120,-30,-30,-15,-23,-17,-21
-28,105,133,-39,-80,119,-30,-31,-16,-25,-18,-21
-28,103,132,-38,-79,118,-31,-32,-18,-26,-18,-21
-29,103,131,-37,-79,117,-31,-33,-19,-27,-19,-21
-28,103,130,-37,-79,117,-31,-35,-20,-28,-19,-21
-27,102,129,-37,-78,116,-31,-37,-21,-29,-20,-21
-26,101,128,-37,-77,114,-31,-38,-22,-30,-21,-21
-26,100,127,-37,-76,113,-31,-39,-22,-31,-21,-21
-25,100,126,-37,-75,112,-31,-40,-23,-31,-21,-21
-24,99,123,-38,-74,111,-31,-40,-23,-32,-21,-21
-23,98,121,-38,-72,109,-31,-41,-24,-32,-22,-21
-23,98,120,-37,-71,109,-30,-41,-24,-33,-22,-21
-23,97,119,-37,-71,108,-30,-41,-24,-33,-22,-21
-22,95,117,-36,-69,106,-29,-41,-24,-33,-22,-21
-21,94,115,-36,-68,104,-29,-40,-24,-33,-21,-20
-21,92,114,-36,-67,103,-28,-40,-24,-33,-21,-20
-20,92,112,-36,-66,101,-28,-40,-24,-33,-21,-20
-19,91,110,-37,-64,100,-27,-40,-23,-33,-21,-19
-19,90,109,-36,-63,99,-26,-39,-22,-32,-19,-17
-19,89,107,-35,-62,98,-25,-39,-21,-31,-18,-16
-19,87,106,-33,-62,96,-25,-39,-21,-31,-18,-15
-19,85,104,-32,-61,94,-25,-39,-21,-31,-18,-15
-18,83,101,-32,-59,92,-25,-39,-21,-31,-18,-15
-17,81,99,-31,-58,90,-25,-39,-21,-31,-18,-16
-19,80,99,-30,-59,89,-24,-38,-20,-31,-18,-15
-20,80,100,-29,-60,89,-22,-37,-19,-30,-17,-15
-20,80,99,-30,-59,89,-22,-37,-19,-30,-17,-14
-18,80,98,-30,-57,89,-21,-37,-18,-30,-16,-14
-17,80,97,-31,-56,88,-21,-37,-18,-30,-16,-14
-16,79,96,-31,-56,88,-20,-36,-18,-29,-15,-13
-16,78,95,-31,-55,86,-20,-36,-17,-29,-15,-12
-16,76,94,-30,-55,85,-20,-36,-17,-29,-15,-12
-17,75,93,-29,-55,84,-20,-36,-17,-29,-15,-13
-18,74,92,-28,-55,83,-19,-36,-17,-29,-14,-13
-18,73,91,-27,-54,82,-19,-35,-16,-28,-14,-12
-18,71,89,-27,-53,80,-18,-34,-15,-27,-13,-12
-17,71,88,-27,-52,79,-17,-33,-14,-27,-13,-11
-17,70,87,-26,-52,79,-17,-32,-13,-26,-12,-11
-17,69,87,-25,-52,78,-16,-31,-12,-25,-12,-10
-17,68,86,-25,-51,77,-15,-29,-10,-24,-11,-9
-16,67,84,-25,-50,76,-15,-28,-9,-23,-10,-8
-16,66,83,-25,-49,74,-14,-27,-8,-22,-9,-7
-16,65,82,-24,-49,73,-13,-26,-7,-21,-8,-7
-16,64,80,-24,-47,72,-13,-25,-6,-20,-7,-6
-15,63,78,-24,-46,71,-12,-24,-5,-19,-6,-5
-14,62,77,-24,-45,70,-11,-23,-4,-17,-4,-4
-13,61,75,-24,-44,68,-10,-21,-3,-16,-3,-2
-12,60,73,-23,-43,66,-9,-20,-2,-15,-2,-1
-12,58,70,-23,-41,64,-8,-18,-2,-14,-1,0
-12,56,68,-22,-40,62,-7,-17,-1,-14,0,0
-12,55,66,-21,-39,61,-6,-16,0,-12,1,1
-10,55,64,-22,-37,60,-4,-14,3,-10,3,3
-8,55,62,-23,-35,59,-3,-11,5,-8,5,5
-5,54,60,-24,-32,57,-1,-9,7,-6,6,7
-4,53,58,-24,-31,56,-1,-8,8,-5,8,8
-4,51,56,-23,-30,53,0,-8,9,-4,9,9
-4,47,52,-21,-28,49,0,-8,9,-3,9,10
-4,44,48,-20,-26,45,0,-8,10,-2,10,11
-3,41,44,-20,-23,42,0,-9,10,-2,11,12
-1,39,40,-19,-20,39,-1,-9,11,-1,12,13
-1,36,36,-17,-18,36,-1,-9,11,0,13,14
-1,32,32,-15,-16,32,0,-8,12,0,15,16
0,28,27,-13,-13,28,0,-7,12,1,16,18
1,24,24,-12,-11,24,2,-5,13,3,18,20
2,21,20,-11,-9,20,5,-4,15,5,19,21
2,17,15,-9,-6,16,7,-2,16,6,21,22
2,12,9,-7,-3,10,10,-1,18,8,22,24
2,6,3,-4,0,4,12,0,19,9,23,25
2,0,-2,-1,2,-1,13,2,20,10,25,27
3,-4,-8,1,5,-6,16,4,22,12,27,28
3,-10,-14,4,8,-11,19,6,23,13,29,30
4,-16,-20,6,12,-17,22,9,25,15,31,33
3,-23,-26,10,14,-24,25,11,27,17,32,35
2,-31,-33,15,18,-32,28,13,29,19,34,36
2,-40,-42,19,22,-41,32,16,32,22,36,38
1,-49,-51,24,26,-50,36,19,35,25,38,41
0,-60,-61,30,30,-61,40,23,38,28,41,44
-1,-73,-73,37,36,-73,45,27,42,32,45,48
0,-88,-89,45,44,-88,51,33,47,36,50,53
1,-103,-105,52,53,-104,56,37,51,40,55,58
2,-116,-118,57,60,-117,60,41,54,44,58,61
3,-126,-129,62,66,-128,63,43,57,46,61,64
2,-135,-137,66,70,-136,65,45,58,48,62,65
1,-142,-144,70,73,-143,67,45,59,49,63,66
1,-147,-149,73,75,-149,68,46,60,49,64,66
0,-152,-153,76,76,-152,69,48,61,50,65,67
-1,-156,-155,79,77,-155,71,49,62,51,67,68
-2,-160,-157,81,77,-158,72,50,63,52,68,69
-2,-164,-161,84,79,-162,72,51,64,52,68,70
-2,-169,-166,86,82,-168,73,52,64,53,69,71
-2,-173,-171,87,85,-173,74,54,65,54,69,72
-1,-176,-174,88,87,-176,75,54,66,55,70,73
-2,-179,-177,90,88,-179,75,54,66,55,71,73
-3,-183,-180,93,88,-181,76,55,67,56,71,74
-3,-186,-182,95,89,-184,77,55,68,56,72,75
-2,-187,-185,96,91,-186,78,56,68,57,73,76
0,-188,-187,95,93,-187,79,57,69,58,74,77
0,-189,-188,95,94,-188,80,58,70,59,75,78
-1,-191,-190,97,94,-191,81,58,70,59,75,78
-3,-194,-191,99,94,-193,81,58,70,59,75,78
-4,-196,-192,99,94,-194,81,58,69,59,74,77
-4,-196,-193,100,95,-195,81,57,69,59,74,77
-4,-197,-193,100,95,-195,81,57,69,59,74,77
-4,-197,-193,101,95,-195,81,56,69,59,74,77
-4,-199,-194,103,95,-196,81,57,69,60,74,77
-5,-200,-194,104,95,-197,81,57,69,60,74,77
-6,-201,-194,104,94,-198,81,57,68,59,74,77
-6,-200,-194,103,94,-198,80,56,68,59,73,76
-5,-200,-194,103,94,-198,80,55,68,58,73,76
-7,-201,-193,104,93,-197,80,56,68,58,73,77
-9,-202,-193,106,92,-198,81,56,69,58,73,77
-11,-204,-193,108,91,-198,82,57,70,58,73,76
-13,-205,-192,110,89,-198,84,58,71,58,74,76
-14,-205,-190,110,88,-198,85,59,72,58,75,76
-16,-205,-188,111,86,-197,86,59,73,58,75,76
-20,-207,-186,113,83,-197,87,60,75,59,76,75
-23,-208,-184,115,81,-196,88,62,77,60,77,76
-24,-207,-183,115,80,-195,90,66,80,63,79,77
-22,-206,-184,115,80,-195,91,72,85,67,82,80
-19,-206,-186,113,83,-195,91,79,89,73,85,83
-16,-205,-188,112,85,-196,90,86,94,81,89,87
-12,-205,-192,110,89,-198,88,93,98,88,93,91
-6,-205,-198,107,96,-202,84,96,99,95,96,95
1,-206,-206,102,104,-207,77,95,98,101,98,100
9,-205,-215,97,112,-210,69,89,94,104,100,107
18,-204,-222,93,120,-213,60,78,88,106,102,113
25,-203,-228,89,127,-215,51,62,79,105,103,119
33,-202,-234,85,133,-217,42,44,68,100,101,121
40,-201,-240,81,140,-220,33,25,55,93,97,122
47,-200,-246,77,146,-222,25,7,42,84,93,122
55,-198,-252,72,153,-224,16,-10,27,74,87,122
62,-197,-258,67,161,-227,6,-29,9,59,78,119
68,-197,-264,64,167,-231,-3,-48,-11,41,65,112
70,-198,-268,64,169,-233,-10,-68,-30,20,51,102
68,-201,-270,67,169,-236,-14,-86,-46,-1,35,87
64,-208,-273,72,168,-240,-15,-99,-61,-22,17,67
60,-218,-278,79,169,-248,-16,-108,-76,-42,-2,46
56,-228,-284,86,170,-255,-19,-115,-88,-59,-19,27
53,-237,-288,92,170,-262,-20,-119,-96,-72,-32,13
50,-243,-293,96,171,-268,-20,-117,-99,-80,-42,2
47,-250,-296,101,171,-273,-17,-111,-98,-84,-49,-6
43,-255,-298,105,171,-277,-11,-101,-94,-84,-52,-12
40,-259,-299,109,170,-280,-4,-89,-88,-81,-54,-17
35,-262,-298,113,167,-280,2,-77,-79,-75,-52,-18
29,-264,-293,118,161,-279,10,-64,-68,-65,-46,-16
23,-264,-287,121,155,-275,18,-50,-55,-54,-38,-12
16,-262,-277,123,147,-269,25,-37,-42,-42,-28,-6
9,-257,-265,124,137,-261,32,-23,-28,-28,-17,1
3,-251,-254,123,128,-252,38,-10,-13,-15,-5,10
0,-244,-243,122,121,-244,44,3,1,-2,7,20
-4,-238,-234,121,115,-236,49,15,13,9,17,28
-7,-235,-227,121,110,-231,53,25,23,18,25,33
-11,-233,-221,122,106,-227,57,34,31,25,31,37
-13,-231,-216,122,102,-223,60,41,38,32,37,41
-16,-229,-211,123,98,-220,64,47,44,38,41,44
-17,-226,-207,122,95,-217,67,51,49,42,45,47
-18,-224,-204,121,92,-214,69,55,52,46,48,49
-21,-222,-199,121,89,-211,70,58,55,48,50,50
-24,-219,-194,121,85,-207,72,61,58,49,51,51
-26,-217,-190,121,83,-204,72,63,60,50,52,51
-27,-214,-187,121,81,-201,72,64,61,51,52,50
-27,-212,-184,120,79,-198,73,65,62,51,52,49
-27,-209,-181,119,77,-195,73,65,62,52,52,48
-27,-206,-178,117,76,-192,73,65,62,52,52,48
-27,-202,-174,115,74,-189,72,65,61,52,51,47
-28,-199,-170,114,71,-185,71,65,61,52,51,47
-29,-196,-167,113,69,-182,70,64,61,51,51,46
-30,-194,-163,112,67,-179,69,64,60,51,50,45
-32,-191,-159,112,64,-175,68,63,59,50,49,44
-33,-189,-156,111,62,-172,67,63,59,50,48,43
-32,-186,-153,110,60,-170,66,62,58,49,46,41
-33,-184,-150,109,58,-167,65,61,57,48,45,39
-34,-181,-146,108,56,-164,64,60,56,48,44,38
-35,-177,-141,107,53,-160,63,60,55,47,43,38
-35,-172,-136,104,51,-155,62,60,54,47,43,37
-34,-166,-132,101,50,-149,60,59,53,46,42,37
-34,-161,-126,98,47,-143,59,58,52,45,41,36
-35,-156,-121,96,44,-139,57,57,50,44,40,34
-35,-153,-117,95,41,-135,56,56,48,42,38,32
-36,-150,-113,94,38,-131,54,54,47,41,36,30
-36,-146,-108,92,36,-127,52,52,45,39,34,28
-37,-142,-103,90,33,-123,50,51,43,38,32,26
-39,-137,-97,89,28,-117,48,49,41,36,31,24
-41,-132,-90,87,25,-111,46,48,40,35,29,22
-42,-126,-84,85,21,-105,44,47,38,34,28,21
-43,-121,-78,82,18,-100,42,46,37,32,26,19
-43,-117,-73,80,16,-95,40,44,36,31,24,17
-44,-113,-68,79,12,-91,38,43,34,29,22,14
-46,-109,-63,78,9,-86,36,41,32,28,20,12
-45,-103,-57,75,6,-80,34,40,30,26,18,10
-46,-97,-51,72,2,-74,31,39,29,25,17,9
-47,-91,-43,70,-2,-68,29,38,27,23,16,7
-47,-85,-38,67,-4,-61,26,36,25,21,14,5
-46,-78,-32,63,-6,-55,24,34,24,19,12,2
-47,-73,-26,60,-9,-49,22,33,23,18,10,1
-47,-68,-21,58,-12,-44,20,31,21,16,8,-1
-47,-63,-16,56,-15,-39,18,29,19,14,5,-4
-48,-58,-9,53,-19,-34,15,27,17,12,3,-6
-48,-52,-2,51,-23,-27,13,25,15,10,0,-8
-49,-45,4,47,-27,-20,11,24,13,9,-1,-10
-49,-38,11,44,-30,-13,9,23,12,7,-2,-11
-49,-30,18,40,-33,-6,6,21,10,5,-4,-13
-49,-23,25,37,-37,1,4,19,8,3,-6,-16
-50,-17,32,34,-40,7,1,17,6,1,-8,-18
-49,-10,38,30,-43,14,0,15,4,0,-10,-20
-49,-4,45,27,-46,20,-3,14,2,-1,-13,-23
-49,2,51,24,-50,26,-6,11,0,-4,-16,-26
-49,10,60,20,-54,35,-10,9,-2,-6,-19,-29
-50,18,69,16,-59,44,-13,7,-4,-8,-21,-31
-51,27,79,13,-65,53,-15,5,-6,-10,-23,-33
-52,34,88,9,-70,61,-18,3,-8,-12,-25,-36
-52,42,95,5,-73,68,-21,1,-11,-15,-28,-40
-52,50,102,0,-77,76,-24,-1,-13,-17,-31,-43
-52,58,111,-3,-81,85,-27,-3,-15,-19,-34,-47
-52,67,120,-7,-86,94,-31,-5,-17,-21,-37,-50
-52,77,130,-12,-91,103,-34,-7,-20,-24,-39,-52
-51,87,139,-17,-94,113,-38,-10,-22,-26,-42,-55
-49,98,148,-23,-98,123,-41,-12,-25,-29,-44,-57
-50,107,157,-28,-103,132,-44,-15,-27,-31,-47,-60
-51,115,166,-31,-108,141,-47,-17,-29,-33,-50,-64
-51,123,175,-35,-113,150,-50,-19,-31,-35,-53,-67
-51,132,183,-40,-117,158,-53,-21,-34,-38,-55,-70
-49,142,191,-46,-120,167,-57,-23,-36,-40,-58,-73
-50,152,202,-50,-126,177,-59,-25,-38,-42,-60,-75
-50,162,214,-55,-132,187,-62,-26,-40,-44,-62,-77
-49,173,223,-61,-136,197,-65,-29,-43,-46,-65,-79
-48,182,232,-66,-140,207,-69,-32,-45,-48,-68,-82
-48,191,240,-71,-144,216,-72,-35,-47,-51,-70,-85
-48,200,249,-75,-148,224,-76,-37,-50,-53,-73,-88
-49,208,257,-79,-153,233,-78,-40,-52,-56,-76,-91
-48,218,266,-85,-157,241,-81,-41,-54,-58,-78,-93
-47,227,274,-90,-160,250,-84,-43,-57,-60,-81,-96
-47,236,284,-95,-165,260,-87,-45,-59,-62,-83,-99
-46,245,292,-99,-169,269,-89,-47,-61,-64,-85,-101
-46,253,300,-103,-173,276,-92,-49,-63,-66,-87,-103
-46,258,305,-105,-175,282,-94,-51,-65,-68,-89,-105
-46,263,310,-107,-177,286,-96,-53,-67,-70,-91,-107
-47,268,315,-110,-180,291,-97,-54,-68,-71,-92,-108
-46,273,319,-113,-182,296,-98,-55,-69,-72,-93,-108
-44,279,323,-117,-183,301,-99,-56,-69,-72,-93,-109
-42,286,329,-122,-185,307,-99,-56,-70,-73,-94,-109
-41,291,333,-125,-187,312,-100,-57,-71,-74,-95,-110
-41,294,335,-126,-188,315,-102,-59,-74,-75,-96,-111
-42,296,337,-126,-190,317,-104,-61,-75,-77,-97,-112
-42,297,339,-127,-190,318,-105,-63,-76,-78,-98,-113
-42,299,341,-128,-191,320,-106,-64,-77,-79,-98,-114
-41,301,342,-129,-192,321,-106,-66,-77,-80,-99,-114
-41,303,343,-130,-192,323,-107,-68,-79,-81,-100,-115
-41,305,345,-131,-193,325,-109,-70,-80,-83,-101,-116
-41,308,349,-133,-195,328,-110,-72,-82,-85,-102,-116
-41,311,353,-134,-196,332,-111,-75,-84,-86,-103,-116
-41,315,356,-137,-198,336,-113,-78,-86,-88,-104,-116
-39,319,359,-140,-198,339,-114,-81,-88,-91,-105,-118
-39,322,361,-141,-199,341,-116,-85,-90,-94,-107,-119
-40,324,364,-141,-202,344,-117,-88,-92,-97,-108,-121
-42,326,367,-142,-204,346,-118,-92,-94,-99,-109,-122
-42,328,370,-143,-206,349,-119,-95,-96,-101,-111,-122
-41,331,372,-145,-207,352,-120,-99,-98,-104,-112,-123
-40,332,373,-146,-207,353,-122,-102,-101,-106,-114,-123
-40,334,374,-146,-207,354,-123,-105,-103,-109,-115,-124
-40,334,375,-146,-207,355,-124,-107,-105,-111,-115,-124
-41,334,374,-146,-207,354,-124,-109,-106,-112,-116,-124
-42,333,374,-145,-208,354,-124,-111,-107,-113,-116,-124
-42,333,374,-145,-208,354,-125,-113,-108,-115,-117,-124
-42,332,374,-145,-208,353,-125,-116,-110,-117,-118,-124
-43,331,373,-144,-209,352,-126,-119,-111,-119,-118,-124
-43,331,373,-144,-208,352,-126,-122,-113,-121,-119,-125
-41,331,372,-144,-207,352,-127,-124,-115,-122,-120,-125
-40,331,371,-145,-206,351,-127,-126,-116,-123,-120,-125
-40,330,370,-144,-204,350,-126,-127,-116,-124,-119,-124
-39,328,368,-144,-203,348,-126,-127,-116,-125,-119,-124
-39,326,365,-143,-202,346,-126,-128,-117,-126,-120,-124
-39,324,363,-142,-201,343,-126,-129,-118,-127,-120,-124
-40,322,362,-141,-201,342,-126,-130,-119,-128,-121,-124
-43,318,361,-137,-202,339,-127,-133,-121,-129,-122,-124
-45,314,359,-134,-201,337,-127,-135,-122,-130,-122,-125
-42,314,357,-135,-199,336,-125,-135,-122,-129,-121,-123
-39,315,355,-137,-196,335,-124,-134,-121,-128,-120,-122
-38,314,353,-137,-195,333,-123,-134,-121,-128,-120,-122
-38,312,350,-137,-194,331,-123,-133,-120,-128,-120,-121
-36,311,348,-137,-192,329,-122,-132,-119,-127,-120,-121
-34,311,346,-138,-190,328,-121,-131,-118,-127,-119,-120
-33,310,344,-138,-189,327,-120,-131,-118,-126,-118,-120
-34,308,342,-137,-188,325,-120,-131,-118,-126,-118,-119
-35,305,340,-135,-187,322,-119,-131,-118,-126,-118,-119
-35,302,337,-133,-186,319,-119,-131,-118,-126,-118,-118
-35,299,334,-132,-185,317,-119,-130,-117,-126,-117,-117
-34,297,332,-131,-184,314,-118,-129,-116,-124,-115,-116
-35,295,329,-130,-183,311,-117,-128,-115,-123,-114,-115
-35,292,326,-128,-181,308,-116,-127,-114,-123,-114,-114
-35,289,323,-127,-179,306,-115,-126,-114,-122,-113,-113
-34,287,321,-126,-178,304,-114,-125,-113,-120,-113,-112
-33,285,319,-125,-176,302,-113,-124,-112,-119,-112,-111
-31,284,315,-125,-173,299,-112,-123,-111,-118,-111,-110
-30,281,312,-124,-171,296,-110,-122,-109,-117,-109,-109
-31,277,308,-122,-170,293,-109,-120,-108,-116,-108,-109
-32,273,305,-120,-169,289,-108,-119,-106,-115,-107,-108
-32,270,302,-119,-167,286,-107,-117,-105,-114,-106,-107
-31,268,298,-119,-165,283,-106,-116,-104,-113,-105,-106
-30,266,296,-118,-163,281,-104,-115,-103,-111,-103,-104
-30,263,294,-116,-161,279,-101,-113,-101,-109,-101,-102
-30,260,291,-115,-160,276,-99,-112,-99,-107,-99,-100
-29,257,286,-113,-158,272,-97,-110,-96,-105,-97,-97
-28,252,281,-111,-155,267,-95,-108,-94,-103,-94,-95
-28,248,276,-109,-153,262,-94,-105,-91,-101,-92,-92
-27,244,271,-108,-150,257,-92,-101,-89,-99,-90,-90
-26,240,266,-107,-147,253,-90,-99,-87,-96,-88,-88
-24,237,261,-106,-143,249,-89,-97,-85,-94,-87,-86
-23,234,256,-106,-140,245,-87,-95,-84,-93,-85,-84
-23,231,253,-104,-138,242,-85,-93,-82,-91,-82,-83
-23,226,250,-102,-136,238,-83,-92,-80,-89,-80,-81
-22,222,245,-100,-134,234,-82,-89,-77,-87,-78,-79
-21,219,240,-99,-131,230,-80,-87,-75,-85,-77,-78
-20,216,236,-98,-129,226,-79,-84,-73,-84,-75,-77
-21,213,234,-96,-128,223,-78,-82,-72,-82,-74,-75
-20,210,231,-95,-126,221,-77,-80,-70,-81,-72,-74
-19,208,228,-95,-123,218,-76,-79,-69,-79,-71,-72
-18,206,225,-94,-121,215,-74,-77,-67,-77,-69,-70
-17,204,222,-93,-119,213,-72,-74,-65,-75,-67,-68
-16,201,218,-92,-118,210,-71,-73,-63,-73,-65,-66
-15,197,213,-91,-115,206,-71,-72,-62,-72,-63,-65
-15,193,208,-89,-113,201,-70,-72,-61,-72,-63,-64
-16,188,205,-86,-112,197,-70,-71,-60,-71,-62,-63
-17,184,202,-83,-111,193,-70,-71,-60,-70,-61,-62
-17,182,199,-82,-108,190,-70,-71,-60,-69,-60,-61
-15,179,195,-82,-105,187,-70,-71,-59,-67,-59,-59
-15,176,191,-81,-103,184,-70,-71,-59,-66,-57,-57
-13,172,186,-79,-100,179,-69,-70,-58,-66,-56,-55
-12,168,180,-77,-97,174,-68,-69,-57,-65,-55,-54
-13,163,176,-75,-96,170,-66,-68,-56,-64,-54,-53
-13,159,172,-73,-94,166,-64,-68,-55,-64,-53,-52
-13,156,169,-72,-92,163,-63,-67,-54,-63,-53,-52
-14,152,166,-70,-91,159,-62,-66,-54,-62,-52,-51
-13,149,162,-68,-88,155,-61,-65,-53,-61,-51,-51
-12,146,158,-67,-85,152,-59,-63,-53,-60,-50,-50
-13,142,155,-64,-84,149,-57,-62,-52,-59,-49,-49
-14,137,152,-61,-83,145,-55,-60,-50,-58,-47,-47
-15,132,148,-58,-82,140,-53,-58,-49,-57,-46,-46
-16,127,143,-55,-80,135,-51,-56,-48,-56,-45,-45
-17,122,140,-52,-80,131,-49,-55,-47,-55,-44,-44
-19,119,138,-50,-79,128,-47,-55,-46,-55,-44,-43
-19,116,135,-49,-77,125,-45,-54,-46,-54,-44,-43
-19,112,131,-47,-75,122,-44,-54,-45,-54,-44,-43
-20,108,128,-44,-74,118,-43,-54,-45,-54,-43,-42
-20,104,124,-41,-72,114,-42,-53,-44,-54,-43,-42
-20,98,119,-39,-70,109,-41,-53,-44,-54,-42,-42
-22,93,115,-35,-69,105,-39,-52,-43,-53,-42,-41
-24,89,113,-32,-70,102,-37,-51,-42,-52,-41,-40
-24,85,110,-30,-69,98,-36,-50,-41,-51,-40,-39
-23,81,106,-29,-66,94,-36,-49,-41,-50,-39,-39
-22,78,102,-28,-63,90,-35,-48,-40,-49,-38,-38
-23,74,98,-25,-61,86,-34,-47,-39,-48,-37,-37
-24,69,93,-22,-59,81,-33,-46,-38,-48,-36,-36
-24,64,88,-20,-56,76,-31,-45,-37,-47,-35,-34
-24,59,83,-17,-54,71,-29,-44,-36,-46,-34,-33
-23,54,77,-15,-51,65,-28,-43,-34,-45,-33,-31
-24,49,73,-12,-49,61,-26,-41,-33,-43,-32,-30
-24,45,69,-10,-48,57,-25,-40,-31,-42,-30,-29
-24,42,66,-8,-46,54,-23,-38,-30,-40,-28,-27
-25,37,62,-5,-44,50,-22,-37,-28,-39,-26,-25
-26,31,57,-2,-42,45,-20,-36,-27,-38,-25,-24
-26,26,52,0,-39,39,-18,-34,-25,-36,-23,-23
-26,20,47,3,-37,34,-16,-33,-23,-35,-22,-22
-27,15,42,6,-35,28,-14,-31,-22,-33,-20,-20
-27,10,37,8,-33,24,-13,-30,-20,-31,-18,-17
-27,5,32,10,-31,19,-11,-28,-19,-30,-17,-15
-26,0,27,13,-27,13,-9,-26,-17,-28,-14,-13
-26,-5,22,15,-24,8,-7,-24,-14,-25,-12,-10
-27,-10,16,19,-22,2,-5,-22,-12,-23,-10,-8
-27,-16,10,21,-19,-3,-3,-20,-10,-21,-9,-6
-25,-21,3,23,-15,-9,-1,-18,-8,-19,-7,-5
-23,-27,-4,25,-10,-15,0,-16,-6,-17,-5,-3
-22,-33,-11,28,-6,-22,3,-14,-3,-15,-3,-1
-22,-37,-15,29,-4,-26,4,-13,-2,-13,-1,0
-23,-38,-15,30,-4,-27,4,-13,-2,-13,-1,1
-24,-38,-14,31,-5,-26,4,-13,-1,-13,-1,1
-26,-38,-12,32,-7,-25,5,-13,0,-12,0,2
-28,-38,-10,33,-8,-24,7,-11,1,-11,1,3
-31,-40,-9,35,-10,-24,9,-10,4,-10,2,3
-34,-42,-8,38,-12,-25,11,-8,6,-9,4,4
-35,-44,-9,39,-12,-26,13,-5,8,-7,6,5
-34,-45,-11,40,-12,-28,16,-2,11,-5,8,6
-33,-46,-13,40,-10,-29,18,2,14,-2,11,8
-33,-48,-15,41,-9,-32,20,7,19,3,15,12
-33,-51,-18,42,-7,-35,23,15,25,10,20,16
-31,-55,-24,43,-3,-40,25,24,31,18,26,22
-26,-59,-33,43,3,-46,27,33,38,27,32,27
-19,-64,-45,42,13,-55,27,41,43,35,36,32
-11,-70,-60,40,24,-65,25,45,45,42,40,37
0,-76,-76,38,37,-76,21,44,44,47,43,43
10,-81,-91,35,51,-86,15,39,41,50,46,50
20,-84,-105,32,63,-95,8,27,36,52,48,58
29,-87,-116,29,73,-102,0,12,28,50,49,64
37,-90,-128,26,82,-109,-7,-4,19,45,49,67
45,-94,-140,24,92,-116,-13,-20,10,38,47,69
53,-99,-152,23,102,-125,-18,-36,0,30,44,70
61,-104,-166,22,113,-135,-25,-53,-14,19,38,69
69,-110,-180,20,125,-145,-34,-72,-31,4,28,65
74,-116,-191,21,132,-153,-41,-92,-50,-15,15,58
73,-121,-195,24,134,-158,-45,-111,-67,-34,3,49
69,-128,-197,30,133,-162,-48,-127,-82,-54,-11,36
64,-137,-201,36,133,-169,-49,-140,-96,-74,-28,17
62,-148,-209,43,135,-178,-50,-149,-109,-92,-45,-2
60,-158,-218,49,138,-188,-53,-155,-119,-106,-60,-18
57,-168,-224,55,140,-196,-54,-157,-125,-117,-70,-30
53,-176,-230,61,141,-203,-52,-155,-128,-122,-77,-37
50,-183,-234,67,141,-208,-48,-148,-126,-123,-81,-42
47,-189,-237,71,141,-213,-42,-136,-120,-120,-82,-45
44,-194,-238,76,141,-216,-34,-122,-112,-113,-81,-47
40,-199,-238,80,139,-219,-26,-106,-101,-105,-76,-45
35,-202,-237,84,136,-219,-18,-90,-89,-93,-69,-41
29,-204,-233,87,131,-218,-9,-74,-75,-80,-58,-34
23,-203,-227,89,124,-214,0,-58,-60,-66,-47,-27
18,-200,-219,90,118,-209,8,-43,-44,-51,-35,-18
13,-195,-208,90,110,-201,16,-28,-29,-37,-22,-7
10,-188,-198,89,104,-193,22,-14,-15,-23,-10,2
8,-182,-191,87,100,-187,27,-2,-2,-11,0,10
7,-178,-185,86,96,-181,33,9,9,0,10,18
4,-176,-179,86,91,-177,38,20,19,9,19,25
0,-175,-176,87,88,-175,43,29,28,17,26,30
-2,-175,-174,88,85,-174,48,37,35,24,32,34
-3,-176,-173,88,84,-174,53,43,40,30,37,38
-5,-176,-172,90,83,-174,56,48,45,34,40,41
-7,-177,-171,92,81,-174,59,52,48,36,42,42
-8,-179,-170,93,80,-174,61,56,51,39,44,44
-8,-179,-171,94,81,-175,63,60,55,43,47,47
-8,-180,-171,94,81,-175,66,64,59,46,49,49
-8,-181,-173,95,82,-177,68,66,61,49,52,51
-8,-183,-175,95,83,-178,70,68,63,52,54,52
-9,-185,-176,96,83,-180,71,70,65,53,56,53
-11,-187,-176,98,82,-181,72,71,66,54,56,53
-13,-189,-176,100,81,-182,72,72,66,54,56,52
-14,-190,-176,102,80,-183,72,72,66,54,56,52
-15,-190,-175,103,80,-182,73,74,67,56,57,53
-16,-190,-174,103,79,-181,74,75,69,58,58,54
-15,-190,-175,103,80,-182,73,75,69,59,59,54
-15,-191,-176,103,80,-184,73,76,69,60,59,54
-16,-192,-176,103,79,-184,74,76,69,60,60,54
-17,-192,-175,104,78,-184,75,77,70,61,60,55
-17,-191,-174,103,78,-182,75,78,70,62,61,56
-16,-190,-174,102,78,-182,75,79,70,62,61,56
-15,-189,-173,102,79,-181,75,80,71,62,61,57
-15,-188,-172,102,79,-180,75,81,71,64,62,57
-15,-188,-172,102,79,-179,75,81,72,65,62,58
-16,-189,-173,103,78,-180,75,82,72,66,63,58
-17,-189,-173,103,78,-181,75,82,73,67,63,58
-17,-189,-173,102,77,-181,75,83,74,67,63,59
-16,-188,-172,101,77,-180,75,83,74,67,63,59
-16,-187,-171,101,77,-179,75,83,74,67,63,59
-17,-187,-169,102,76,-178,75,84,74,67,64,59
-19,-187,-167,103,74,-177,75,84,74,68,64,59
-20,-187,-167,104,73,-177,74,84,74,68,63,58
-20,-187,-167,104,73,-177,74,84,74,68,63,58
-20,-187,-168,104,73,-177,73,85,75,69,64,58
-20,-187,-168,104,73,-177,73,85,75,69,64,58
-21,-187,-167,104,72,-177,73,85,75,69,64,58
-21,-186,-166,104,71,-176,73,85,75,69,64,58
-21,-184,-164,103,71,-174,72,85,75,69,64,58
-21,-183,-162,103,70,-173,71,85,75,69,63,58
-23,-183,-160,103,68,-172,71,85,75,68,62,57
-24,-183,-159,103,67,-171,70,85,75,68,61,55
-24,-182,-158,103,67,-170,69,85,74,67,60,53
-25,-182,-157,104,65,-169,68,85,74,67,60,52
-26,-181,-156,104,64,-169,67,85,74,67,59,51
-26,-180,-155,103,64,-168,67,85,74,67,59,50
-26,-179,-153,102,62,-166,66,85,74,67,58,50
-26,-177,-151,101,62,-164,66,86,74,67,58,51
-25,-174,-149,100,62,-162,66,87,74,68,59,51
-24,-172,-148,98,61,-161,65,87,75,69,60,51
-25,-172,-147,98,60,-160,64,87,75,69,60,51
-26,-172,-146,99,59,-159,64,87,75,69,60,51
-27,-171,-145,99,58,-158,63,87,75,69,60,52
-28,-171,-143,99,56,-156,63,87,75,69,60,51
-29,-170,-141,99,55,-155,62,87,74,68,60,50
-30,-169,-139,99,54,-154,62,88,74,68,59,49
-31,-169,-138,99,53,-153,61,88,73,68,58,48
-31,-168,-137,99,52,-153,60,88,73,67,57,48
-30,-167,-136,98,52,-152,59,88,73,68,57,48
-30,-165,-134,98,52,-150,59,89,74,68,57,48
-30,-164,-133,97,51,-148,59,89,75,69,57,48
-30,-162,-132,96,51,-147,59,90,75,69,57,48
-29,-160,-131,95,50,-146,59,91,75,69,57,48
-30,-159,-129,94,49,-145,58,91,74,69,58,48
-31,-159,-128,95,48,-144,57,91,75,70,58,48
-32,-159,-126,95,47,-143,57,91,75,70,58,47
-31,-158,-126,94,47,-142,57,92,75,70,57,47
-29,-156,-126,93,48,-141,57,93,75,70,57,46
-29,-155,-126,92,48,-140,56,93,76,70,57,46
-30,-155,-125,92,46,-139,55,93,75,70,56,44
-32,-155,-124,93,45,-139,53,92,74,69,55,43
-33,-155,-121,94,43,-138,52,92,74,69,55,42
-35,-153,-118,94,41,-136,52,93,75,70,55,43
-36,-152,-116,94,40,-134,52,93,75,70,55,43
-36,-152,-115,95,39,-134,51,93,75,70,55,43
-37,-152,-114,95,38,-133,51,94,75,70,55,43
-38,-151,-113,94,37,-132,51,93,74,70,55,43
-38,-150,-112,94,36,-131,50,93,74,69,55,43
-38,-149,-111,94,35,-130,50,93,74,69,54,42
-38,-149,-110,93,35,-129,49,92,73,67,53,40
-40,-148,-108,93,34,-128,48,92,71,67,52,39
-42,-147,-105,94,32,-126,47,93,71,67,52,39
-41,-145,-104,93,32,-125,46,93,71,67,51,38
-40,-144,-104,92,32,-124,46,92,71,68,51,38
-41,-144,-103,93,30,-123,45,91,70,67,50,37
-43,-145,-102,94,29,-123,43,90,69,66,50,36
-44,-145,-102,94,28,-123,42,90,69,66,49,36
-43,-143,-101,93,28,-122,41,90,69,66,49,35
-43,-142,-99,92,27,-120,41,89,69,66,49,35
-44,-141,-97,92,26,-119,40,87,68,66,49,36
-45,-140,-95,92,25,-118,40,86,68,65,49,36
-45,-138,-93,91,24,-116,40,85,68,65,49,37
-45,-137,-92,91,23,-115,39,84,67,64,49,36
-46,-136,-90,90,22,-113,39,83,67,63,48,36
-45,-135,-89,90,21,-112,38,82,66,62,48,36
-44,-133,-88,89,21,-110,37,80,65,61,47,36
-44,-131,-86,87,21,-108,36,78,64,60,47,36
-43,-128,-84,86,20,-106,35,75,62,59,46,36
-43,-126,-82,85,19,-104,34,73,60,57,45,35
-44,-125,-80,84,18,-103,32,70,58,55,44,35
-45,-124,-78,85,16,-102,31,67,57,53,44,34
-46,-124,-78,85,16,-101,31,64,55,51,43,33
-46,-123,-77,84,15,-100,30,61,54,49,42,32
-47,-122,-75,84,14,-98,29,58,52,47,41,31
-47,-119,-72,83,12,-95,28,55,50,45,39,30
-47,-117,-69,82,10,-93,26,51,48,42,37,29
-47,-115,-68,81,10,-91,24,46,44,39,34,27
-46,-113,-66,80,10,-89,23,42,41,36,33,26
-46,-111,-64,78,9,-87,22,39,39,34,32,26
-46,-109,-63,77,8,-86,21,37,38,32,31,26
-46,-107,-61,77,7,-84,20,34,36,30,30,25
-47,-106,-59,77,6,-83,19,31,33,28,29,25
-48,-105,-58,76,4,-81,17,28,31,26,27,24
-47,-104,-57,76,4,-80,16,25,30,24,26,22
-47,-103,-55,75,4,-79,16,22,28,21,25,21
-46,-101,-54,74,3,-78,15,20,26,19,23,19
-46,-99,-53,73,3,-76,15,18,25,18,22,18
-45,-98,-52,72,4,-75,15,17,24,17,22,18
-44,-97,-52,71,4,-74,14,15,23,16,21,17
-44,-96,-51,70,3,-73,13,13,22,15,20,16
-44,-94,-50,69,2,-72,12,11,21,14,19,16
-43,-93,-50,68,3,-72,11,9,19,12,18,15
-41,-93,-51,67,4,-72,10,7,17,10,16,13
-41,-93,-51,67,5,-72,10,6,16,9,15,12
-41,-93,-51,67,5,-72,9,5,15,8,14,12
-42,-92,-49,67,4,-71,9,4,14,8,14,12
-42,-91,-48,67,3,-69,10,4,14,8,14,13
-42,-90,-48,65,3,-68,10,4,14,8,14,13
-40,-88,-48,63,4,-68,10,3,14,7,14,13
-38,-87,-48,62,5,-67,10,3,13,7,14,13
-38,-86,-48,62,5,-66,9,2,12,6,14,13
-37,-85,-48,61,5,-66,9,1,11,6,14,13
-36,-84,-48,60,6,-66,9,1,12,6,14,13
-36,-84,-48,60,6,-67,9,1,12,6,14,13
-35,-85,-49,60,6,-67,9,1,12,5,13,13
-34,-85,-51,59,8,-68,9,1,12,5,12,12
-32,-84,-52,58,10,-69,10,2,12,5,12,12
-32,-84,-52,58,10,-68,10,3,13,6,12,13
-32,-84,-52,58,10,-68,10,3,13,6,12,13
-31,-83,-52,57,10,-68,10,3,12,6,12,13
-30,-82,-52,56,10,-67,11,3,12,6,12,13
-29,-81,-51,55,11,-66,12,4,13,7,13,14
-28,-80,-53,54,12,-67,12,5,13,7,14,14
-25,-80,-55,53,14,-67,13,5,14,8,14,14
-24,-79,-55,52,15,-67,13,6,15,9,14,14
-24,-78,-53,51,14,-66,14,6,16,10,15,15
-23,-77,-53,50,15,-65,14,7,17,10,16,16
-21,-75,-53,48,16,-64,15,8,17,11,16,17
-20,-73,-53,46,16,-63,15,9,17,12,17,18
-18,-72,-53,44,17,-62,16,10,18,13,18,19
-16,-71,-54,43,19,-63,17,11,19,13,19,19
-16,-70,-54,43,19,-62,17,12,19,14,20,19
-16,-69,-53,42,19,-61,17,13,20,15,20,20
-14,-68,-53,41,19,-61,17,13,20,15,21,20
-11,-67,-54,39,21,-60,17,14,20,16,21,20
-8,-64,-54,36,23,-59,18,16,22,17,22,21
-6,-62,-54,34,24,-58,19,18,23,18,23,22
-4,-60,-54,32,25,-58,20,19,24,19,24,22
-2,-58,-55,30,26,-58,20,20,25,20,24,23
-2,-58,-56,30,27,-58,20,20,25,20,25,24
-1,-57,-55,29,27,-57,20,21,27,22,26,25
0,-55,-54,28,27,-55,22,24,29,24,28,26
3,-52,-54,25,28,-53,23,26,31,25,30,28
7,-48,-54,21,30,-51,24,27,32,27,32,30
11,-45,-55,17,32,-50,25,28,34,28,33,31
14,-42,-56,14,34,-49,25,28,34,29,33,32
18,-40,-57,11,37,-49,25,28,35,30,34,33
21,-38,-59,8,39,-49,25,29,36,31,36,35
23,-37,-60,7,41,-49,25,29,36,32,37,36
24,-37,-62,7,43,-50,24,29,37,32,38,36
26,-38,-64,6,45,-51,23,29,36,32,38,37
28,-39,-66,6,47,-52,22,28,36,32,37,37
28,-40,-67,6,47,-53,22,28,36,32,37,37
26,-41,-67,7,46,-54,22,27,36,32,37,37
24,-43,-66,9,45,-55,22,26,35,31,37,37
23,-43,-66,10,45,-55,22,26,34,30,36,36
22,-44,-66,10,44,-55,22,25,34,29,35,36
21,-45,-66,11,44,-55,22,24,33,29,35,36
21,-45,-66,12,44,-56,21,23,32,28,34,35
21,-46,-66,13,44,-56,21,23,31,27,33,34
21,-46,-66,13,44,-56,21,23,30,26,32,34
20,-47,-66,14,43,-57,22,23,30,25,31,32
18,-47,-65,14,41,-56,22,23,30,24,30,31
16,-47,-63,15,39,-55,23,23,30,24,29,30
14,-48,-62,17,37,-55,24,22,29,24,29,29
12,-49,-61,18,36,-55,24,21,28,22,27,28
12,-50,-61,19,36,-55,24,19,26,20,26,26
10,-50,-60,20,35,-55,24,18,26,19,25,26
8,-50,-59,21,34,-54,25,17,25,18,25,25
7,-51,-58,22,32,-54,25,16,24,17,24,24
5,-52,-58,23,32,-55,24,15,23,16,22,23
4,-54,-58,24,31,-56,23,14,22,15,21,21
3,-54,-58,25,31,-56,24,14,22,14,21,21
3,-55,-58,25,30,-56,24,15,22,14,21,21
1,-56,-57,27,29,-56,24,15,21,14,20,21
0,-57,-57,29,28,-56,24,14,20,13,19,20
0,-57,-57,29,28,-57,23,14,20,12,18,19
0,-57,-58,28,29,-57,23,13,19,12,17,19
0,-57,-59,29,29,-58,23,13,19,11,17,18
-1,-58,-58,30,28,-58,23,12,19,11,17,17
-2,-59,-58,31,28,-58,23,12,18,10,16,16
-3,-60,-58,31,28,-59,22,10,17,9,15,15
-3,-61,-58,32,27,-59,21,9,15,7,14,15
-3,-61,-59,32,27,-60,21,8,15,7,13,15
-3,-61,-58,33,27,-59,21,8,15,7,13,14
-4,-61,-57,33,26,-59,21,8,14,6,12,13
-4,-62,-57,34,26,-59,20,7,14,6,12,12
-5,-62,-56,34,25,-59,20,7,14,6,12,12
-6,-62,-56,34,25,-59,21,7,14,6,12,13
-7,-63,-56,35,24,-60,21,7,14,6,12,13
-7,-64,-56,35,24,-60,21,7,14,6,11,13
-7,-64,-57,36,24,-61,20,7,13,6,11,13
-6,-64,-57,36,25,-61,20,7,13,5,10,13
-6,-64,-57,36,25,-61,19,6,12,5,10,13
-7,-64,-57,37,25,-61,19,5,12,5,10,13
-9,-66,-57,38,24,-61,19,5,11,4,10,12
-10,-67,-57,38,23,-62,19,5,11,4,9,11
-10,-67,-57,39,23,-62,19,5,11,3,9,11
-11,-67,-56,39,22,-62,19,5,10,3,9,10
-11,-66,-55,39,22,-61,19,4,10,2,8,9
-11,-65,-54,39,21,-60,19,4,9,2,8,10
-12,-64,-52,39,20,-59,20,4,10,3,9,11
-13,-63,-50,39,18,-57,21,5,11,4,10,12
-15,-63,-48,40,16,-56,22,6,12,4,11,13
-18,-62,-45,41,13,-54,24,7,15,5,13,14
-20,-61,-42,41,11,-52,26,10,17,7,14,14
-21,-61,-39,41,9,-50,28,12,18,8,15,14
-23,-60,-37,41,7,-49,29,14,20,9,17,15
-23,-59,-36,41,6,-48,29,18,22,12,18,16
-21,-57,-36,39,7,-47,30,24,25,16,21,19
-17,-55,-37,36,10,-47,30,30,29,22,25,22
-13,-53,-40,33,14,-47,29,37,33,28,28,25
-7,-53,-45,30,19,-50,27,41,35,33,30,28
0,-52,-53,26,27,-53,22,42,35,37,31,31
9,-52,-62,21,36,-57,15,39,32,39,31,33
19,-51,-70,16,45,-61,5,28,25,38,29,35
27,-49,-77,11,52,-63,-5,12,17,35,28,38
35,-46,-82,6,58,-64,-15,-7,7,30,26,40
42,-44,-87,1,64,-66,-25,-28,-5,22,22,39
49,-43,-92,-2,70,-68,-33,-49,-19,11,16,37
57,-41,-99,-7,78,-70,-42,-68,-32,0,9,34
68,-40,-109,-13,88,-75,-52,-88,-48,-13,0,30
77,-43,-121,-16,99,-82,-62,-109,-68,-30,-12,23
82,-47,-131,-17,106,-88,-71,-130,-88,-48,-25,16
84,-50,-135,-16,109,-92,-76,-149,-105,-67,-37,7
82,-56,-138,-12,110,-97,-79,-166,-121,-86,-51,-6
78,-65,-142,-6,110,-104,-80,-178,-135,-105,-68,-23
73,-74,-147,1,110,-111,-82,-187,-148,-123,-84,-40
69,-82,-151,7,110,-117,-84,-193,-158,-137,-98,-55
67,-89,-156,12,112,-123,-86,-194,-164,-147,-108,-66
64,-96,-161,16,112,-128,-84,-189,-165,-151,-114,-74
61,-102,-163,21,112,-133,-80,-180,-163,-151,-118,-80
57,-108,-165,25,111,-137,-75,-168,-159,-148,-120,-85
52,-112,-165,30,109,-139,-68,-154,-153,-143,-120,-89
46,-114,-161,34,104,-138,-61,-141,-144,-136,-118,-89
40,-114,-154,37,98,-135,-53,-127,-133,-125,-112,-86
33,-112,-145,40,89,-129,-45,-112,-120,-113,-103,-80
27,-107,-133,40,80,-121,-37,-97,-106,-100,-92,-71
21,-99,-121,39,71,-110,-29,-82,-92,-86,-79,-62
15,-92,-108,38,61,-100,-22,-67,-77,-71,-66,-51
11,-85,-96,37,53,-91,-16,-52,-64,-58,-54,-41
7,-80,-87,36,47,-83,-11,-40,-52,-46,-44,-33
4,-75,-78,36,41,-77,-7,-30,-42,-37,-35,-27
0,-71,-71,36,36,-72,-2,-21,-34,-28,-28,-22
-3,-69,-65,36,31,-68,2,-12,-26,-21,-23,-19
-7,-68,-60,37,27,-65,6,-6,-20,-15,-18,-16
-8,-66,-57,37,24,-62,10,0,-14,-10,-14,-13
-9,-64,-55,37,22,-60,14,5,-10,-5,-11,-10
-11,-63,-53,37,21,-59,16,8,-7,-2,-8,-8
-12,-63,-51,38,19,-57,17,11,-4,0,-6,-6
-14,-62,-48,39,17,-56,18,15,-2,2,-5,-5
-16,-62,-46,40,15,-55,19,17,-1,4,-4,-5
-17,-62,-45,40,14,-54,20,19,0,5,-3,-5
-18,-62,-44,40,13,-54,20,20,1,5,-3,-5
-19,-62,-43,40,12,-54,21,20,2,6,-2,-5
-20,-61,-41,41,10,-52,22,22,3,7,-1,-4
-22,-61,-39,42,7,-50,23,23,4,8,0,-4
-24,-61,-38,43,6,-49,23,24,5,9,0,-3
-24,-60,-37,43,6,-49,23,25,5,10,0,-3
-24,-59,-35,42,6,-48,23,26,6,11,0,-3
-24,-58,-34,42,5,-47,23,26,6,11,0,-3
-24,-58,-33,42,4,-46,23,26,6,11,0,-3
-25,-58,-33,42,4,-46,23,26,7,12,1,-3
-25,-58,-33,42,3,-46,24,27,8,13,2,-2
-26,-59,-33,42,3,-46,24,28,8,13,2,-2
-27,-59,-33,43,2,-46,24,28,8,13,2,-2
-27,-58,-31,43,2,-45,24,28,9,14,3,-2
-27,-57,-31,42,2,-45,24,29,9,14,3,-2
-25,-57,-31,41,3,-44,24,29,9,15,4,-2
-25,-56,-30,41,3,-43,24,30,9,16,4,-1
-24,-55,-30,40,3,-43,25,31,10,16,5,-1
-24,-55,-30,40,3,-43,25,31,11,17,5,0
-24,-54,-31,40,3,-43,25,32,11,17,6,0
-24,-54,-31,39,3,-43,25,32,12,17,6,0
-24,-54,-31,40,3,-43,24,33,12,17,6,0
-26,-55,-30,41,2,-43,24,33,12,17,6,0
-25,-55,-30,40,2,-43,24,34,13,18,7,1
-24,-52,-28,38,2,-41,25,35,14,19,8,2
-25,-51,-26,38,0,-40,25,36,15,20,8,2
-25,-51,-26,38,0,-40,25,36,15,20,9,3
-24,-51,-27,38,0,-40,25,36,16,21,9,3
-24,-51,-27,37,1,-40,25,37,16,21,10,4
-23,-50,-27,37,1,-39,25,38,17,22,11,4
-22,-50,-27,36,3,-38,26,39,18,23,11,5
-21,-49,-28,35,4,-39,25,39,18,23,11,5
-21,-49,-27,35,3,-38,26,40,18,23,11,5
-21,-48,-26,35,2,-37,26,41,19,24,12,5
-21,-47,-26,34,2,-37,26,42,20,25,12,5
-20,-47,-27,33,3,-37,26,43,21,26,12,5
-20,-47,-28,34,3,-38,26,43,21,26,12,5
-21,-48,-28,34,3,-38,26,44,22,26,12,5
-21,-48,-27,34,3,-37,26,45,22,27,13,5
-21,-47,-27,34,3,-37,26,46,23,28,13,5
-21,-47,-26,34,2,-37,27,47,24,29,14,6
-21,-46,-25,34,2,-36,27,48,25,30,15,6
-20,-45,-25,33,2,-36,27,49,25,31,15,7
-20,-44,-25,32,2,-35,27,49,26,32,16,8
-19,-43,-25,32,3,-34,27,50,28,33,17,8
-18,-43,-25,31,3,-34,27,51,29,33,17,9
-18,-43,-26,31,4,-34,27,51,29,33,18,9
-18,-43,-26,31,4,-34,27,52,29,34,18,9
-18,-43,-26,31,4,-34,27,53,30,34,19,10
-18,-43,-25,30,4,-34,27,55,31,35,20,10
-17,-43,-25,30,4,-34,27,56,31,36,20,11
-17,-43,-26,30,4,-35,27,57,32,37,21,12
-17,-44,-26,30,4,-35,27,58,33,38,21,12
-16,-43,-26,30,5,-35,28,60,34,39,22,13
-15,-41,-26,28,5,-34,29,62,36,41,23,13
-16,-41,-26,28,5,-33,30,63,38,42,24,14
-16,-41,-26,28,5,-33,30,64,38,43,25,14
-15,-41,-26,28,5,-33,30,65,39,44,25,15
-15,-40,-26,27,5,-33,30,65,39,44,26,15
-14,-39,-26,26,6,-33,30,66,40,45,26,16
-13,-39,-27,26,7,-33,29,67,41,46,26,16
-13,-39,-27,26,7,-33,29,68,42,47,27,16
-13,-39,-26,26,6,-33,30,69,43,48,28,17
-13,-38,-26,26,6,-32,30,70,44,49,28,17
-13,-38,-25,26,5,-32,30,72,45,50,29,17
-14,-38,-23,26,4,-31,31,73,46,51,30,18
-14,-37,-23,26,4,-30,31,74,47,52,31,19
-14,-37,-23,25,5,-30,31,75,47,52,31,19
-13,-37,-24,25,6,-31,31,74,48,52,31,19
-12,-37,-25,25,6,-31,31,74,48,52,31,19
-13,-37,-24,25,5,-31,31,74,48,53,32,20
-14,-37,-23,25,4,-30,31,75,48,53,32,20
-13,-36,-23,25,5,-30,30,76,48,53,32,20
-12,-36,-23,24,6,-30,30,77,48,53,32,19
-11,-35,-23,23,6,-30,29,77,48,53,32,19
-12,-36,-23,24,6,-30,29,77,48,53,32,19
-13,-36,-22,24,5,-30,29,77,48,53,32,19
-13,-35,-22,24,4,-29,29,77,48,54,33,20
-13,-34,-21,23,3,-28,29,77,48,54,33,21
-13,-32,-20,23,2,-26,29,77,49,55,33,21
-13,-31,-18,22,2,-25,29,77,49,55,33,21
-13,-31,-18,22,2,-25,28,76,48,54,33,21
-12,-31,-18,22,3,-26,27,74,47,53,32,20
-13,-31,-18,22,2,-26,27,73,46,52,32,20
-14,-31,-17,22,1,-25,27,72,46,52,32,20
-14,-30,-16,22,1,-24,26,70,45,51,32,20
-15,-30,-16,22,0,-23,25,68,44,50,32,20
-15,-30,-15,23,0,-23,25,66,43,49,32,20
-15,-30,-14,23,-1,-22,24,64,42,47,31,20
-16,-29,-13,23,-1,-22,24,61,41,46,30,20
-17,-29,-11,23,-2,-21,23,58,40,45,30,20
-18,-29,-10,23,-3,-21,23,56,39,43,30,20
-18,-28,-10,23,-3,-20,22,53,38,42,29,20
-18,-28,-10,23,-3,-20,21,51,36,40,28,19
-18,-28,-11,23,-3,-19,20,48,34,38,27,19
-18,-28,-11,23,-3,-19,19,46,32,37,26,18
-18,-28,-10,24,-4,-19,18,43,31,35,25,17
-19,-29,-10,24,-4,-19,17,39,29,33,24,17
-19,-29,-9,24,-4,-19,16,36,27,30,22,16
-18,-28,-9,23,-4,-19,15,33,25,28,21,16
-18,-28,-9,23,-4,-19,15,30,24,27,21,16
-18,-28,-9,23,-4,-18,13,27,23,25,21,15
-18,-28,-9,23,-4,-19,12,24,20,23,19,15
-19,-29,-9,24,-4,-19,11,22,18,21,18,14
-20,-28,-8,24,-5,-18,10,20,17,19,17,14
-20,-27,-7,23,-5,-17,10,18,16,18,16,13
-20,-28,-8,23,-5,-18,10,15,14,16,15,12
-19,-28,-8,24,-5,-19,9,13,13,15,14,11
-20,-28,-7,24,-6,-18,9,12,12,14,14,11
-20,-27,-6,24,-6,-17,9,10,11,13,13,10
-21,-27,-6,24,-7,-17,9,9,10,12,12,10
-22,-28,-6,25,-7,-17,8,8,9,11,12,9
-21,-28,-7,24,-6,-17,7,6,8,9,11,9
-21,-27,-7,24,-6,-17,6,4,7,8,10,9
-22,-28,-7,25,-7,-17,6,3,6,7,9,8
-22,-28,-7,25,-7,-18,6,1,5,5,8,7
-21,-28,-7,25,-7,-18,5,0,4,4,7,7
-21,-27,-6,24,-7,-17,5,-1,3,3,7,7
-20,-26,-6,23,-7,-17,5,-1,2,3,6,7
-20,-27,-6,24,-7,-17,4,-2,2,2,6,7
-20,-27,-6,24,-6,-17,4,-2,1,1,6,6
-20,-27,-7,24,-6,-17,3,-3,0,1,5,6
-20,-27,-7,23,-6,-17,3,-4,0,1,5,6
-19,-26,-7,22,-5,-16,3,-5,0,0,5,6
-19,-25,-6,22,-5,-16,3,-6,0,0,4,5
-20,-26,-6,23,-6,-16,3,-6,0,0,4,5
-20,-26,-5,23,-7,-17,3,-6,0,0,3,4
-21,-26,-6,23,-7,-17,2,-6,-1,-1,3,4
-20,-26,-6,23,-7,-16,2,-6,-1,-1,3,4
-20,-25,-5,23,-7,-15,3,-5,0,-1,3,4
-20,-25,-5,23,-7,-15,3,-5,0,-1,3,4
-19,-25,-6,22,-6,-15,2,-6,-1,-1,3,3
-18,-24,-6,21,-6,-15,2,-6,-1,-2,2,3
-18,-24,-6,21,-6,-15,2,-7,-1,-2,2,3
-19,-25,-6,22,-6,-15,3,-7,0,-2,3,4
-20,-25,-5,22,-7,-15,3,-6,0,-1,3,5
-20,-25,-5,22,-7,-15,4,-6,0,-1,4,6
-19,-23,-4,21,-7,-14,4,-6,1,-1,4,6
-19,-22,-3,21,-7,-13,4,-6,1,-1,4,5
-20,-22,-3,21,-8,-13,4,-6,1,-1,4,5
-20,-22,-2,22,-8,-13,4,-5,1,-1,4,5
-19,-21,-1,21,-8,-13,4,-4,1,-1,4,5
-18,-20,-1,19,-7,-12,4,-3,2,-1,4,5
-18,-18,0,18,-8,-10,4,-3,2,-1,4,5
-18,-17,0,17,-8,-9,4,-3,2,-1,4,5
-17,-16,1,17,-8,-8,3,-3,2,0,4,5
-18,-15,2,17,-9,-7,3,-2,2,0,4,5
-19,-15,4,17,-11,-6,3,-2,3,0,5,6
-19,-15,4,17,-11,-6,3,-1,2,0,5,5
-17,-14,3,16,-10,-6,2,-1,2,0,4,5
-15,-13,3,14,-9,-6,1,-1,3,0,4,4
-16,-12,4,14,-9,-5,1,-1,3,0,4,4
-16,-12,5,14,-10,-4,1,-1,3,0,5,4
-17,-12,5,14,-10,-3,0,-2,3,0,5,4
-19,-12,5,15,-11,-3,0,-1,4,0,5,5
-19,-12,6,15,-12,-2,1,0,4,1,6,5
-19,-10,7,14,-13,-1,1,1,6,2,7,6
-18,-8,8,13,-13,0,1,2,7,3,8,7
-18,-8,8,13,-13,0,0,1,7,2,8,7
-17,-8,8,12,-12,0,-1,0,6,1,7,6
-16,-8,8,12,-12,0,-2,-1,5,0,6,6
-17,-9,8,13,-12,0,-3,-2,5,0,6,6
-16,-9,6,13,-11,-1,-5,-4,4,-1,6,6
-14,-9,5,12,-9,-2,-7,-6,3,-1,5,6
-15,-9,5,12,-10,-2,-8,-7,2,-2,4,6
-16,-10,6,13,-11,-2,-9,-7,1,-2,4,6
-17,-11,6,14,-11,-2,-9,-8,1,-3,4,5
-18,-12,6,15,-11,-3,-9,-10,0,-4,3,4
-20,-13,6,16,-13,-4,-9,-11,0,-5,2,4
-21,-14,7,17,-14,-4,-9,-11,0,-5,2,4
-20,-14,6,17,-13,-4,-8,-11,0,-5,2,4
-19,-14,5,16,-12,-4,-8,-11,-1,-6,2,3
-18,-14,4,16,-11,-5,-8,-12,-2,-7,1,2
-18,-14,4,16,-11,-5,-7,-12,-2,-8,0,1
-19,-14,4,16,-11,-5,-6,-12,-2,-8,0,0
-20,-14,4,17,-12,-5,-5,-12,-2,-8,0,0
-22,-15,5,18,-13,-5,-4,-11,-2,-8,-1,-1
-23,-16,7,19,-15,-5,-3,-11,-2,-9,-1,-1
-24,-16,7,19,-15,-5,-3,-12,-3,-10,-2,-2
-24,-17,6,20,-15,-6,-3,-12,-4,-11,-3,-2
-24,-19,5,21,-15,-7,-3,-13,-5,-12,-4,-3
-25,-20,5,22,-15,-7,-3,-14,-6,-13,-5,-4
-25,-20,5,23,-15,-8,-2,-14,-6,-13,-5,-4
-26,-20,5,23,-15,-8,-2,-15,-7,-14,-5,-4
-26,-20,5,23,-15,-8,-2,-15,-7,-14,-6,-5
-26,-21,5,24,-15,-9,-2,-15,-8,-15,-6,-5
-28,-22,6,25,-16,-9,-1,-15,-8,-15,-6,-4
-30,-23,7,26,-17,-9,-1,-15,-8,-16,-6,-4
-29,-23,6,26,-17,-9,-1,-16,-8,-17,-7,-4
-28,-23,5,26,-16,-9,-2,-17,-9,-17,-8,-4
-29,-23,6,26,-17,-8,-2,-17,-9,-18,-8,-4
-29,-23,7,26,-18,-8,-3,-18,-10,-18,-8,-5
-29,-22,7,25,-17,-7,-3,-19,-10,-19,-8,-5
-28,-20,7,24,-17,-7,-3,-19,-9,-19,-8,-5
-27,-20,7,23,-17,-7,-2,-19,-9,-19,-8,-5
-27,-21,7,24,-17,-8,-3,-20,-10,-20,-8,-5
-28,-21,7,24,-17,-8,-3,-20,-11,-20,-9,-6
-28,-21,8,24,-17,-7,-2,-20,-10,-20,-9,-6
-28,-20,8,24,-17,-6,-2,-20,-10,-20,-9,-6
-28,-20,9,24,-18,-5,-2,-20,-11,-21,-9,-7
-29,-19,10,24,-19,-4,-2,-20,-11,-21,-9,-7
-30,-19,10,24,-19,-4,-2,-20,-11,-20,-9,-7
-30,-19,10,24,-20,-4,-3,-20,-11,-21,-9,-7
-31,-20,10,25,-20,-5,-3,-21,-12,-22,-9,-8
-31,-20,11,26,-21,-5,-4,-22,-12,-23,-10,-8
-31,-18,11,25,-21,-4,-3,-22,-13,-23,-10,-8
-30,-18,11,24,-20,-3,-3,-22,-13,-23,-10,-8
-29,-18,10,24,-20,-4,-3,-22,-13,-23,-10,-8
-29,-18,10,24,-20,-4,-3,-22,-13,-23,-10,-8
-30,-18,11,25,-21,-4,-4,-23,-14,-23,-10,-8
-31,-18,12,25,-21,-3,-4,-24,-14,-23,-11,-8
-31,-17,13,24,-22,-3,-4,-24,-14,-23,-11,-8
-31,-16,14,24,-22,-2,-4,-24,-14,-23,-11,-8
-31,-16,15,24,-22,-2,-4,-24,-14,-23,-11,-8
-32,-15,16,24,-23,-1,-4,-23,-13,-23,-10,-8
-34,-15,18,25,-26,0,-3,-23,-13,-22,-9,-8
-36,-15,20,26,-28,2,-2,-22,-12,-22,-8,-7
-38,-15,22,27,-30,3,-1,-21,-10,-21,-7,-7
-40,-15,24,27,-32,3,1,-20,-7,-19,-6,-6
-41,-15,26,27,-33,5,3,-18,-5,-17,-4,-5
-41,-14,27,28,-34,6,4,-13,-3,-14,-2,-3
-41,-13,28,27,-35,7,6,-7,0,-10,1,-1
-39,-12,28,26,-33,8,6,-1,4,-5,4,2
-36,-10,26,23,-31,8,6,5,8,0,8,6
-32,-9,23,20,-27,7,4,12,12,7,11,9
-26,-8,18,16,-21,5,1,16,14,13,14,13
-16,-7,9,11,-12,1,-3,17,13,17,16,16
-5,-6,0,5,-2,-3,-11,13,10,20,16,20
5,-5,-9,0,7,-7,-20,2,4,20,16,23
14,-3,-16,-5,16,-10,-30,-13,-3,18,16,27
22,-1,-22,-11,23,-12,-39,-31,-13,13,14,30
29,1,-28,-15,29,-13,-48,-51,-24,5,11,30
37,2,-34,-20,36,-16,-56,-70,-37,-5,5,28
45,3,-42,-25,44,-19,-64,-88,-51,-16,-1,26
54,2,-52,-29,54,-25,-74,-107,-67,-29,-10,23
63,-1,-64,-31,64,-33,-83,-126,-87,-46,-23,16
69,-4,-74,-32,72,-40,-91,-147,-107,-65,-37,6
70,-8,-80,-31,75,-45,-95,-166,-124,-85,-51,-5
68,-15,-84,-26,76,-50,-97,-181,-139,-105,-65,-20
64,-25,-90,-20,78,-58,-97,-193,-153,-125,-83,-38
61,-36,-98,-13,80,-67,-100,-202,-166,-143,-100,-57
58,-46,-104,-6,81,-75,-103,-208,-177,-158,-114,-73
56,-54,-108,-1,82,-81,-104,-210,-183,-167,-125,-84
53,-60,-112,3,83,-86,-103,-205,-183,-171,-131,-91
50,-65,-114,8,82,-91,-98,-195,-180,-170,-134,-96
46,-71,-116,13,81,-95,-92,-183,-174,-167,-135,-100
41,-76,-117,18,79,-97,-85,-170,-167,-162,-135,-103
35,-78,-113,22,75,-96,-77,-157,-157,-154,-131,-103
27,-78,-106,25,67,-92,-69,-142,-144,-143,-123,-98
20,-76,-96,28,58,-86,-60,-127,-130,-130,-113,-92
13,-72,-84,29,49,-78,-51,-112,-116,-117,-102,-84
6,-65,-71,29,39,-69,-44,-97,-101,-102,-90,-75
1,-58,-59,28,30,-59,-37,-82,-85,-88,-78,-64
-1,-50,-49,26,24,-51,-32,-69,-72,-74,-66,-54
-3,-45,-41,25,19,-44,-27,-57,-60,-63,-56,-46
-8,-41,-33,25,13,-38,-22,-47,-49,-53,-47,-39
-12,-38,-26,25,8,-32,-18,-38,-40,-44,-39,-33
-14,-35,-20,24,3,-27,-13,-29,-32,-37,-32,-28
-17,-32,-15,24,0,-24,-9,-22,-26,-30,-27,-24
-19,-31,-11,24,-3,-22,-5,-16,-20,-25,-23,-21
-20,-30,-9,25,-5,-20,-2,-11,-16,-21,-19,-19
-21,-29,-7,25,-6,-19,0,-6,-12,-17,-17,-17
-23,-28,-6,26,-8,-18,2,-3,-9,-14,-15,-16
-24,-28,-4,27,-9,-17,4,0,-7,-12,-13,-15
-26,-28,-3,27,-11,-16,5,2,-5,-11,-12,-15
-27,-28,-2,28,-12,-15,6,3,-4,-10,-11,-14
-27,-28,0,28,-13,-15,7,4,-3,-9,-11,-14
-28,-28,0,28,-13,-15,8,6,-1,-7,-10,-13
-27,-28,0,28,-13,-15,9,7,0,-6,-9,-12
-27,-28,0,28,-12,-16,9,8,0,-5,-8,-12
-27,-28,0,28,-13,-15,9,8,1,-4,-8,-11
-29,-28,1,29,-14,-14,9,9,2,-4,-7,-11
-30,-28,1,29,-15,-13,9,10,2,-3,-7,-10
-30,-27,2,29,-15,-12,9,11,3,-2,-6,-9
-31,-26,4,28,-16,-11,11,12,4,-1,-4,-8
-31,-26,5,28,-17,-11,12,13,5,0,-3,-7
-32,-26,6,29,-18,-10,13,14,6,2,-3,-6
-32,-25,6,29,-19,-10,14,16,7,3,-2,-5
-30,-24,6,28,-17,-10,13,16,8,4,-1,-5
-28,-24,5,27,-16,-10,13,17,8,5,-1,-5
-29,-24,6,27,-17,-9,14,19,9,6,0,-4
-28,-24,5,26,-16,-9,14,19,10,6,0,-4
-26,-23,4,25,-14,-10,14,19,10,7,0,-5
-25,-23,2,24,-13,-10,13,19,10,7,0,-5
-25,-23,1,24,-12,-11,13,20,10,8,0,-4
-25,-24,1,25,-13,-11,13,21,11,9,0,-4
-25,-24,1,26,-13,-11,13,21,12,9,0,-3
-26,-24,2,26,-14,-11,13,21,11,10,0,-3
-26,-24,2,26,-14,-11,13,21,11,10,1,-3
-27,-24,3,26,-15,-10,14,22,12,11,1,-3
-26,-23,3,25,-15,-10,15,23,13,12,2,-3
-25,-23,2,24,-14,-11,14,24,12,12,2,-3
-24,-23,0,24,-12,-12,13,23,11,12,1,-4
-21,-24,-3,23,-9,-13,12,23,10,12,0,-4
-20,-25,-5,22,-7,-15,11,23,9,12,0,-5
-19,-25,-6,22,-6,-16,10,24,9,12,0,-5
-17,-25,-7,22,-5,-16,10,24,8,12,0,-6
-15,-25,-9,20,-2,-17,9,23,8,11,0,-7
-12,-24,-11,18,0,-18,8,22,7,11,-1,-7
-11,-25,-13,17,1,-19,8,21,7,11,-1,-8
-10,-25,-14,17,2,-20,7,21,6,11,-2,-9
-9,-25,-15,17,3,-20,6,22,6,11,-3,-10
-9,-24,-16,16,4,-20,6,23,6,12,-3,-10
-9,-23,-16,16,4,-20,5,24,6,13,-3,-10
-8,-24,-16,16,4,-20,5,24,6,13,-3,-10
-7,-23,-16,15,4,-20,5,25,6,13,-2,-9
-6,-21,-15,14,4,-18,5,26,7,14,-1,-8
-6,-19,-13,13,3,-16,6,27,8,15,0,-8
-6,-18,-11,12,2,-15,6,28,9,15,0,-8
-7,-18,-11,12,2,-14,6,29,10,16,0,-8
-7,-17,-10,12,1,-13,6,30,11,16,0,-8
-7,-16,-9,11,0,-12,6,30,11,16,0,-8
-8,-14,-7,11,-1,-11,6,31,12,17,0,-7
-8,-13,-5,10,-2,-9,6,32,13,17,1,-7
-8,-13,-5,10,-2,-9,5,33,14,18,1,-7
-8,-13,-5,11,-2,-9,5,34,15,18,2,-7
-9,-13,-3,11,-3,-8,6,35,16,19,3,-6
-9,-11,-2,10,-4,-6,6,36,17,21,4,-6
-10,-10,0,10,-5,-5,7,38,18,22,5,-5
-9,-9,0,10,-5,-4,7,38,19,23,6,-4
-8,-8,0,9,-4,-5,7,39,20,24,6,-4
-8,-9,0,9,-4,-5,7,40,20,24,6,-3
-10,-9,1,9,-5,-4,7,41,21,25,6,-3
-10,-8,2,9,-6,-3,7,42,22,26,6,-3
-11,-8,3,9,-7,-2,6,43,22,26,6,-3
-10,-7,4,9,-7,-1,6,44,23,27,7,-3
-9,-5,5,8,-6,0,6,45,24,28,8,-2
-8,-4,5,7,-6,0,6,46,25,30,8,-2
-8,-4,4,6,-5,0,6,47,25,31,8,-2
-8,-4,4,6,-5,0,6,47,26,32,9,-2
-8,-3,5,6,-6,0,6,48,27,33,9,-1
-8,-2,6,6,-7,1,7,50,28,34,10,0
-9,-2,7,6,-7,2,7,51,29,35,11,0
-9,-1,7,5,-8,2,7,52,29,35,11,0
-8,-1,7,5,-7,2,7,53,30,36,11,0
-8,-1,6,5,-7,2,8,53,30,37,12,1
-7,-1,6,4,-6,2,8,54,31,38,13,2
-7,0,6,4,-6,2,9,55,32,39,14,4
-6,0,7,3,-6,3,9,56,33,40,15,5
-6,0,7,3,-7,3,10,57,34,40,16,6
-6,0,7,2,-6,3,10,57,34,39,16,5
-4,1,6,2,-5,3,10,57,34,40,16,5
-3,2,5,1,-4,3,10,57,35,41,17,5
-3,2,5,0,-4,3,10,57,35,41,17,5
-3,3,6,0,-4,4,11,58,36,42,17,6
-2,4,7,0,-4,5,11,58,36,42,18,6
-2,4,7,-1,-4,5,10,58,36,42,18,6
-3,4,8,-1,-5,5,10,58,36,42,18,7
-2,5,8,-1,-5,6,10,58,36,42,19,8
-1,6,8,-2,-5,6,11,57,36,42,19,9
-1,6,8,-2,-5,7,11,56,36,42,20,10
0,6,7,-2,-4,6,11,55,36,42,20,10
0,6,6,-2,-3,6,10,54,35,41,19,10
0,7,6,-3,-3,7,10,52,34,40,19,10
0,9,8,-4,-4,8,10,51,34,40,20,11
0,9,9,-4,-5,9,10,49,34,39,21,11
0,9,9,-4,-4,9,9,46,32,37,20,11
0,9,8,-4,-4,8,7,43,31,35,19,10
0,9,9,-4,-4,9,7,41,30,33,18,10
0,9,10,-4,-5,9,6,38,29,32,17,10
-1,9,10,-4,-5,9,6,35,27,30,17,10
-1,8,9,-3,-5,9,5,32,26,28,16,10
-1,8,9,-3,-4,8,5,30,24,27,16,10
0,9,9,-4,-4,9,5,27,23,26,16,10
0,9,10,-4,-4,9,5,25,23,25,16,11
1,10,10,-5,-4,9,5,23,22,24,16,11
2,11,9,-6,-3,10,5,21,21,22,15,11
2,11,9,-6,-3,9,5,19,19,20,15,10
2,10,8,-6,-3,8,5,17,18,19,14,10
2,10,8,-6,-3,8,4,15,17,18,13,10
3,11,7,-7,-2,8,4,13,16,17,13,10
3,10,7,-6,-2,8,2,10,14,15,11,9
1,8,7,-4,-3,7,1,8,13,12,10,8
1,7,7,-4,-3,7,1,6,11,11,10,8
1,7,6,-4,-2,6,0,4,10,9,9,7
1,6,6,-3,-2,6,0,2,9,8,8,7
0,6,6,-3,-3,6,0,1,9,7,8,7
0,6,6,-3,-3,6,1,0,9,7,8,7
1,7,5,-4,-2,5,1,0,9,7,7,7
3,7,4,-5,0,5,1,0,8,7,7,7
4,8,3,-6,1,5,1,-1,8,6,7,6
5,7,1,-6,2,4,1,-1,7,6,7,6
5,7,1,-6,3,4,1,-2,7,6,7,6
6,7,1,-6,3,4,2,-2,8,6,7,7
7,7,0,-7,4,3,2,-2,8,6,7,8
8,6,-1,-6,5,2,2,-3,7,6,7,8
8,5,-3,-6,5,0,2,-3,7,6,6,8
8,4,-4,-6,6,0,2,-3,7,6,6,8
8,4,-3,-6,6,0,3,-3,7,6,6,8
9,5,-2,-7,6,1,3,-3,8,6,7,8
9,6,-2,-7,6,1,3,-3,8,6,7,8
9,5,-3,-7,6,1,4,-3,8,6,7,8
9,4,-4,-6,7,0,4,-4,8,6,7,8
10,5,-4,-7,7,0,4,-4,8,6,7,8
10,5,-5,-8,8,0,4,-3,9,7,7,9
10,5,-5,-8,8,0,5,-2,8,7,7,9
10,4,-5,-7,8,-1,5,-2,8,7,7,9
10,4,-6,-7,8,-1,5,-2,8,7,7,9
11,4,-6,-7,9,-1,5,-1,9,7,8,10
11,4,-7,-7,9,-1,5,-1,9,7,8,10
11,4,-7,-7,9,-1,5,0,10,8,8,10
10,4,-6,-7,8,-1,6,1,10,9,9,11
10,4,-6,-6,8,-1,7,1,11,10,9,11
10,3,-7,-6,8,-2,8,1,11,10,9,11
10,3,-7,-7,9,-2,8,1,10,10,9,11
12,5,-7,-8,10,-1,8,2,11,10,9,11
13,6,-8,-9,11,-1,8,3,12,11,10,12
13,6,-8,-9,11,-1,8,3,12,12,11,13
13,5,-8,-9,11,-1,7,3,12,12,11,13
12,5,-7,-8,10,-1,7,3,13,12,11,13
12,5,-6,-9,9,0,8,4,13,13,12,14
13,6,-6,-10,9,0,8,5,14,13,12,14
13,7,-6,-10,10,0,8,5,14,14,13,15
13,7,-6,-10,10,0,8,6,14,14,13,15
13,8,-5,-10,10,1,8,6,14,14,13,15
14,8,-5,-10,10,1,8,7,15,15,14,15
13,8,-5,-10,10,1,8,8,15,15,14,14
12,7,-5,-10,9,1,7,8,15,15,14,14
12,7,-5,-10,9,0,7,8,15,15,13,13
13,7,-6,-10,9,0,7,9,15,15,13,13
11,7,-5,-9,8,0,7,10,16,15,14,13
10,7,-3,-8,6,1,7,10,17,16,15,14
9,7,-1,-8,5,2,6,10,17,16,15,15
9,7,-1,-8,5,2,5,9,16,15,15,15
10,7,-2,-9,6,2,3,8,16,14,15,15
11,8,-2,-9,7,3,2,7,16,14,14,15
12,9,-3,-9,8,3,1,6,15,14,14,14
11,8,-4,-9,8,2,0,5,14,13,14,14
11,6,-5,-8,9,0,-2,3,13,13,13,13
10,5,-5,-8,8,0,-3,2,12,12,12,13
9,4,-4,-7,7,0,-4,1,11,11,11,13
8,4,-4,-6,7,0,-4,0,10,10,10,12
8,3,-4,-5,6,-1,-4,-1,10,9,10,12
9,3,-5,-5,7,-1,-4,-1,9,8,10,12
10,3,-6,-6,8,-2,-4,-2,9,8,9,12
9,3,-5,-6,7,-1,-3,-2,9,8,9,12
8,3,-4,-5,6,-1,-3,-1,9,8,9,12
7,2,-5,-5,6,-1,-2,-1,9,8,8,11
7,2,-6,-5,7,-2,-2,-2,8,7,8,10
7,1,-6,-5,7,-3,-1,-2,8,7,7,9
7,1,-6,-4,6,-3,0,-2,8,7,7,9
5,0,-6,-2,5,-3,0,-2,8,7,6,9
4,-1,-6,-1,5,-3,1,-2,7,6,6,9
3,-2,-6,0,5,-4,3,-2,7,6,6,8
1,-3,-5,1,3,-4,4,-1,7,6,6,8
0,-4,-5,2,2,-5,5,-2,7,5,5,7
0,-5,-5,2,2,-5,4,-3,5,4,3,6
0,-5,-6,2,3,-6,4,-4,4,3,2,5
-1,-6,-6,3,3,-6,4,-4,4,2,2,5
-2,-7,-6,5,2,-6,4,-4,4,2,2,5
-2,-8,-7,5,3,-7,4,-5,3,2,2,4
-2,-9,-8,6,3,-9,4,-5,3,1,1,4
-3,-10,-8,7,3,-10,4,-6,2,1,0,3
-4,-11,-8,8,2,-10,4,-6,2,0,0,3
-3,-11,-9,8,3,-10,4,-6,2,0,0,2
-2,-11,-9,7,3,-10,4,-6,2,0,0,2
-2,-11,-9,6,3,-10,4,-7,2,-1,0,2
-2,-12,-10,7,4,-11,3,-7,1,-1,-1,1
-3,-13,-11,8,4,-12,3,-7,0,-2,-1,1
-4,-14,-10,9,3,-12,3,-7,0,-2,-1,1
-5,-14,-9,10,2,-11,4,-7,0,-2,-1,1
-6,-13,-8,10,1,-11,4,-7,0,-2,-1,1
-6,-13,-7,10,1,-11,3,-7,-1,-3,-1,1
-6,-13,-7,10,1,-10,3,-8,-1,-3,-1,1
-6,-12,-6,9,0,-10,3,-8,-1,-3,-1,1
-7,-13,-5,10,0,-9,3,-9,-2,-3,-1,0
-9,-14,-4,11,-1,-9,3,-10,-3,-4,-2,0
-9,-14,-5,11,-1,-9,3,-11,-3,-5,-3,-1
-7,-14,-7,10,0,-10,3,-11,-3,-5,-3,-2
-7,-13,-7,10,0,-9,3,-10,-3,-5,-3,-2
-8,-13,-5,11,-1,-9,3,-10,-3,-5,-3,-1
-10,-13,-3,12,-3,-9,3,-10,-4,-5,-3,-1
-10,-13,-3,12,-2,-9,3,-11,-4,-6,-3,-1
-9,-13,-4,11,-2,-9,2,-11,-4,-6,-3,-1
-8,-12,-4,11,-1,-8,2,-11,-4,-6,-3,0
-8,-12,-4,10,-1,-8,2,-11,-4,-6,-3,0
-7,-11,-5,9,0,-8,2,-11,-5,-7,-4,-1
-6,-11,-6,9,0,-8,1,-12,-5,-7,-4,-2
-6,-10,-4,8,-1,-7,2,-12,-5,-7,-4,-1
-8,-9,-1,8,-3,-5,3,-12,-4,-7,-3,-1
-10,-8,1,9,-6,-3,5,-12,-3,-7,-2,0
-13,-8,4,10,-9,-2,6,-11,-1,-6,-1,0
-15,-7,8,11,-12,0,9,-8,1,-4,1,2
-17,-6,10,11,-14,2,11,-6,4,-2,3,4
-17,-5,11,11,-14,3,12,-3,6,-1,4,5
-17,-5,12,11,-14,3,13,-1,8,1,6,6
-17,-4,12,11,-14,4,13,3,11,4,8,8
-15,-2,12,9,-13,5,13,10,15,9,11,11
-11,-1,10,6,-10,4,12,17,19,15,15,14
-6,0,7,3,-6,3,11,23,22,20,17,16
0,1,2,0,-1,1,8,26,23,25,19,18
8,1,-5,-5,7,-2,3,26,22,29,20,21
18,2,-15,-10,16,-6,-4,19,18,30,20,24
26,3,-22,-15,24,-8,-14,6,11,28,19,27
33,6,-27,-19,30,-10,-24,-11,3,26,19,31
42,8,-34,-25,38,-12,-34,-30,-7,20,16,32
52,10,-41,-31,46,-15,-43,-51,-19,10,11,30
60,12,-47,-36,53,-17,-51,-71,-32,0,5,28
67,13,-54,-40,60,-20,-59,-89,-45,-10,-2,25
77,12,-65,-44,71,-26,-69,-108,-63,-25,-12,20
86,8,-78,-47,82,-34,-80,-129,-83,-43,-25,13
91,3,-87,-47,89,-41,-88,-149,-102,-62,-39,4
91,-1,-92,-44,91,-46,-92,-167,-118,-81,-52,-6
87,-8,-96,-39,91,-52,-94,-181,-132,-99,-66,-20
83,-18,-101,-32,92,-59,-94,-192,-146,-118,-82,-38
79,-29,-107,-25,93,-68,-96,-201,-159,-136,-98,-56
75,-38,-113,-19,94,-75,-99,-206,-168,-150,-112,-70
72,-45,-117,-14,95,-81,-100,-207,-173,-159,-121,-81
68,-51,-120,-8,94,-86,-97,-201,-173,-161,-126,-87
64,-58,-122,-2,93,-90,-92,-190,-170,-160,-129,-92
61,-64,-125,2,93,-94,-86,-177,-165,-156,-130,-95
57,-68,-126,5,92,-96,-80,-163,-157,-151,-130,-97
52,-69,-121,8,87,-95,-72,-149,-147,-143,-125,-96
44,-69,-113,11,79,-91,-64,-135,-136,-132,-117,-92
36,-67,-103,14,70,-85,-56,-120,-123,-120,-108,-86
29,-62,-91,15,60,-77,-49,-106,-109,-107,-97,-78
21,-57,-78,17,49,-67,-42,-91,-95,-93,-85,-69
15,-50,-65,17,40,-57,-35,-77,-81,-79,-73,-60
12,-43,-55,16,33,-49,-29,-63,-67,-66,-62,-51
9,-37,-47,15,28,-42,-24,-52,-56,-56,-53,-43
6,-32,-39,14,23,-36,-20,-42,-47,-47,-45,-37
2,-29,-31,13,17,-30,-16,-33,-38,-38,-38,-31
-2,-27,-24,14,11,-26,-11,-25,-30,-31,-32,-27
-5,-25,-19,14,7,-23,-7,-18,-24,-25,-27,-24
-6,-23,-16,14,4,-20,-4,-13,-19,-20,-23,-21
-7,-22,-14,14,3,-18,-1,-8,-15,-16,-20,-18
-9,-22,-12,16,1,-17,1,-4,-11,-13,-17,-15
-11,-22,-11,17,0,-16,3,-1,-9,-10,-15,-14
-12,-22,-10,17,-1,-16,5,1,-7,-9,-13,-13
-14,-22,-8,18,-2,-15,5,2,-5,-7,-12,-13
-16,-22,-6,19,-5,-14,6,4,-4,-6,-12,-13
-18,-22,-3,20,-7,-13,7,5,-3,-5,-11,-13
-19,-22,-2,20,-9,-12,8,7,-2,-4,-11,-13
-20,-22,-1,20,-10,-11,8,8,-1,-4,-10,-13
-21,-22,0,21,-11,-10,9,10,0,-3,-10,-13
-22,-21,1,22,-12,-9,9,10,0,-2,-9,-13
-22,-21,1,22,-12,-9,9,11,0,-2,-9,-12
-23,-20,2,22,-12,-8,9,11,1,-1,-8,-12
-24,-21,3,22,-13,-8,8,11,1,-1,-8,-13
-25,-21,4,23,-14,-9,8,11,1,-1,-8,-13
-26,-21,5,23,-16,-8,8,12,1,0,-8,-12
-28,-22,6,24,-17,-8,8,13,2,1,-8,-12
-29,-22,6,25,-18,-7,8,14,2,1,-7,-11
-30,-22,7,26,-19,-7,8,14,2,2,-7,-11
-31,-22,7,27,-19,-7,8,14,2,2,-7,-12
-31,-23,8,27,-19,-7,8,14,2,2,-7,-12
-34,-24,10,29,-21,-7,8,14,2,2,-7,-13
-36,-24,12,30,-24,-6,8,14,2,2,-7,-13
-36,-23,13,29,-24,-5,7,14,2,2,-8,-13
-36,-23,13,29,-24,-5,6,13,2,2,-9,-13
-39,-24,14,31,-26,-5,5,13,1,1,-10,-14
-41,-25,15,33,-28,-5,4,13,1,1,-11,-15
-42,-26,15,35,-28,-5,3,13,1,1,-11,-16
-43,-27,16,35,-29,-5,3,13,1,1,-11,-17
-43,-26,17,35,-30,-4,3,13,1,1,-12,-18
-43,-25,19,34,-31,-3,2,13,0,0,-12,-18
-44,-25,19,34,-31,-3,1,12,0,0,-13,-19
-44,-24,20,34,-32,-2,1,12,0,0,-13,-19
-45,-23,22,34,-34,0,1,13,0,0,-13,-18
-45,-22,23,34,-35,1,1,14,0,1,-12,-18
-45,-22,23,34,-34,1,1,15,1,2,-11,-18
-45,-22,23,34,-34,1,1,15,1,2,-11,-18
-44,-21,23,32,-33,1,0,15,1,2,-11,-18
-43,-19,23,30,-33,2,0,15,1,2,-11,-18
-41,-17,24,29,-32,3,0,14,1,2,-10,-17
-41,-16,25,28,-33,4,0,14,2,2,-10,-17
-42,-16,27,28,-35,6,0,15,2,3,-10,-17
-43,-15,29,29,-36,7,0,16,3,3,-10,-16
-43,-14,29,29,-37,7,0,18,3,4,-9,-16
-43,-13,30,29,-37,8,0,19,3,5,-8,-15
-42,-13,30,28,-36,8,0,20,3,5,-8,-15
-40,-11,29,26,-35,9,0,20,4,5,-8,-14
-40,-10,30,25,-35,9,0,21,5,6,-7,-14
-40,-10,31,25,-35,9,0,22,6,6,-7,-14
-40,-10,31,25,-35,10,0,23,6,6,-7,-14
-39,-9,30,24,-34,10,-1,24,7,6,-7,-15
-38,-8,30,23,-34,11,-1,24,7,7,-7,-15
-38,-8,30,24,-34,11,0,25,8,8,-7,-14
-39,-8,31,24,-35,12,1,27,10,9,-5,-13
-39,-6,32,23,-35,13,2,29,11,11,-4,-12
-38,-5,33,21,-35,14,2,30,12,12,-4,-12
-36,-3,34,19,-35,14,2,31,13,13,-3,-12
-35,-2,33,18,-34,15,1,32,13,13,-3,-12
-34,-1,33,17,-33,15,1,33,14,14,-2,-12
-32,0,32,15,-32,16,1,35,15,16,-1,-11
-31,2,33,14,-32,17,2,36,16,17,0,-9
-31,3,33,14,-32,18,2,37,17,18,0,-9
-29,4,33,12,-31,18,2,38,18,19,1,-8
-27,6,34,10,-30,19,3,39,19,20,1,-8
-26,7,34,9,-30,20,3,40,20,21,2,-7
-26,7,34,9,-29,20,4,41,20,22,3,-7
-24,9,33,7,-28,21,4,42,21,23,4,-6
-23,11,33,6,-28,23,4,44,22,24,5,-6
-23,12,34,5,-29,24,4,45,23,25,5,-5
-22,13,35,5,-29,24,4,47,24,26,6,-4
-20,14,34,3,-27,24,5,48,25,27,7,-3
-19,15,34,2,-26,24,5,49,26,28,7,-3
-18,16,34,1,-26,25,5,49,26,28,7,-3
-15,18,35,-1,-24,26,6,50,27,29,8,-3
-13,21,35,-4,-23,27,7,51,29,31,9,-2
-12,22,35,-5,-23,28,7,53,30,32,10,-1
-11,24,35,-7,-22,29,8,54,31,33,11,0
-9,26,35,-9,-22,30,8,55,32,34,12,1
-6,28,34,-11,-20,31,9,56,32,35,13,2
-3,31,35,-14,-19,32,10,58,34,37,14,3
-2,33,36,-15,-18,34,11,59,35,38,16,5
0,34,36,-17,-17,35,11,59,36,38,17,6
2,36,34,-19,-15,35,11,59,36,39,17,6
4,37,33,-20,-14,36,11,60,36,39,18,6
5,39,33,-22,-14,36,12,61,38,41,19,7
5,39,33,-22,-14,36,13,62,38,42,20,8
5,39,32,-22,-13,35,14,62,39,42,20,9
6,38,32,-22,-13,34,14,62,39,42,21,10
6,39,32,-23,-13,35,15,62,40,43,22,10
7,39,33,-24,-12,36,15,62,40,43,22,10
7,40,33,-24,-13,36,15,61,40,42,22,10
6,39,33,-23,-13,36,14,59,40,42,22,10
7,39,32,-22,-13,36,14,58,39,41,21,11
7,39,32,-23,-13,35,14,56,39,40,21,11
7,39,32,-23,-13,35,13,54,38,39,21,12
7,40,32,-23,-13,35,13,52,37,38,21,12
6,39,33,-23,-13,35,12,50,36,37,21,11
6,39,34,-23,-14,36,11,47,35,36,21,11
6,40,35,-23,-14,36,11,45,34,35,21,12
6,39,35,-23,-14,37,10,42,33,33,20,12
5,38,34,-22,-14,36,9,38,31,31,19,12
4,38,34,-21,-15,36,8,36,29,29,18,11
4,37,33,-21,-15,35,7,33,27,27,17,11
4,37,33,-20,-15,35,6,30,25,25,16,10
2,35,33,-19,-15,34,5,27,23,23,15,9
0,33,33,-17,-16,33,5,24,21,21,14,8
0,32,33,-16,-16,32,4,21,20,20,13,7
0,31,32,-15,-16,32,3,18,18,18,12,7
-1,30,32,-14,-17,31,2,15,16,16,11,6
-3,29,32,-13,-17,30,1,12,14,14,9,6
-4,28,32,-12,-18,30,1,10,12,12,8,5
-5,27,32,-10,-19,29,0,7,10,10,8,5
-6,26,32,-9,-19,28,-1,4,9,8,7,4
-6,25,32,-9,-19,28,-1,1,7,6,6,3
-6,25,32,-9,-19,28,-2,0,6,5,5,2
-7,24,32,-8,-20,28,-2,-1,5,4,4,2
-8,24,32,-8,-20,28,-3,-2,4,3,3,1
-8,23,32,-7,-20,27,-3,-3,3,2,2,0
-8,24,31,-8,-20,27,-3,-4,2,2,1,-1
-6,24,30,-8,-18,27,-3,-4,2,1,0,-2
-6,24,29,-8,-17,26,-4,-5,1,0,0,-2
-6,23,29,-8,-18,25,-4,-6,0,0,0,-2
-7,22,30,-7,-18,26,-4,-7,0,-1,0,-1
-6,22,30,-8,-18,26,-4,-9,-1,-1,-1,-1
-6,22,29,-8,-18,25,-5,-10,-2,-2,-2,-1
-5,21,27,-7,-17,24,-5,-11,-3,-3,-2,-1
-6,20,27,-7,-17,24,-5,-11,-3,-3,-2,0
-7,20,27,-6,-17,24,-5,-11,-3,-3,-2,0
-7,20,28,-6,-17,24,-5,-11,-4,-3,-2,0
-7,20,28,-7,-17,24,-5,-11,-4,-4,-2,0
-6,20,27,-7,-16,24,-5,-11,-5,-4,-3,-1
-6,20,27,-7,-16,23,-5,-12,-5,-5,-4,-2
-7,20,27,-6,-17,23,-4,-11,-5,-5,-4,-3
-7,20,27,-6,-17,23,-4,-11,-4,-4,-4,-4
-6,20,26,-7,-16,23,-4,-11,-4,-5,-4,-4
-6,20,26,-7,-16,23,-4,-12,-5,-5,-4,-4
-5,20,26,-7,-16,23,-4,-12,-5,-5,-4,-4
-4,21,25,-9,-15,23,-4,-12,-5,-5,-4,-3
-3,22,25,-10,-14,23,-4,-11,-5,-5,-4,-3
-4,21,25,-9,-14,22,-4,-11,-4,-4,-3,-2
-5,20,25,-7,-15,22,-3,-11,-4,-4,-3,-2
-6,20,26,-7,-16,23,-3,-10,-3,-4,-3,-1
-5,21,26,-8,-15,23,-2,-10,-2,-4,-2,0
-3,22,26,-9,-14,23,-2,-9,-2,-4,-2,0
-2,23,25,-10,-13,23,-2,-9,-2,-4,-2,0
-3,22,26,-9,-14,24,-1,-8,-1,-3,-1,0
-4,22,27,-9,-15,24,-1,-8,0,-3,-1,0
-4,22,27,-9,-14,24,-1,-7,0,-3,-1,0
-2,23,26,-11,-13,24,-1,-6,1,-2,0,0
-1,24,26,-11,-13,24,0,-6,1,-1,0,0
-2,24,26,-11,-13,24,0,-6,1,-1,0,0
-3,23,26,-10,-14,24,-1,-5,1,-1,0,0
-4,22,26,-9,-15,24,-1,-5,2,-1,1,1
-5,21,26,-9,-15,24,-1,-4,2,-1,1,1
-5,21,26,-9,-15,24,-1,-4,3,0,1,2
-3,23,26,-10,-14,24,-1,-4,3,0,2,2
-1,25,26,-12,-13,25,-1,-3,4,1,2,2
0,26,26,-13,-13,25,-1,-2,4,2,3,3
0,26,26,-13,-13,25,-1,0,5,3,4,3
0,26,26,-12,-13,25,-1,1,5,4,4,3
-1,25,26,-11,-14,25,-1,2,6,4,4,3
-3,24,27,-10,-14,25,-1,2,6,4,4,3
-4,24,28,-10,-15,26,-2,1,6,4,4,3
-5,24,29,-10,-16,26,-4,0,5,4,4,3
-6,24,29,-9,-17,26,-5,-1,4,3,3,3
-5,23,29,-9,-17,26,-7,-3,3,2,3,2
-4,24,28,-10,-16,26,-9,-4,2,2,2,2
-3,25,28,-10,-15,26,-10,-5,1,1,2,3
-2,25,27,-10,-15,25,-11,-7,0,1,1,3
-3,24,26,-10,-15,25,-12,-8,0,0,1,3
-3,24,26,-10,-15,25,-13,-9,0,0,1,2
-4,23,26,-9,-15,24,-13,-10,-1,-1,0,1
-5,22,27,-8,-16,24,-13,-11,-2,-2,0,0
-7,22,28,-7,-17,25,-13,-11,-3,-3,-1,-1
-7,21,29,-7,-18,25,-13,-11,-3,-4,-1,-1
-7,20,28,-6,-18,24,-13,-12,-4,-5,-2,-1
-8,19,28,-5,-18,23,-13,-12,-5,-5,-3,-1
-9,18,27,-4,-18,23,-13,-13,-6,-6,-3,-1
-9,17,26,-4,-18,22,-12,-13,-7,-7,-4,-2
-9,17,25,-3,-17,21,-12,-13,-7,-7,-5,-3
-11,15,26,-2,-18,21,-11,-13,-7,-8,-5,-4
-14,13,27,0,-20,20,-11,-13,-8,-8,-6,-5
-16,12,28,2,-21,20,-10,-14,-8,-9,-6,-5
-16,12,28,2,-22,20,-9,-14,-9,-10,-7,-5
-16,12,28,2,-22,20,-9,-14,-9,-10,-7,-5
-16,12,27,2,-22,20,-8,-14,-10,-10,-8,-6
-18,11,28,4,-23,19,-8,-15,-10,-11,-9,-7
-20,9,29,6,-25,19,-8,-16,-11,-13,-10,-9
-21,8,29,7,-25,18,-9,-17,-12,-14,-11,-10
-21,7,28,7,-24,17,-9,-18,-13,-15,-12,-11
-22,6,28,8,-25,17,-9,-18,-13,-15,-12,-11
-23,5,28,9,-26,17,-8,-18,-13,-15,-12,-11
-25,4,28,10,-26,16,-9,-19,-14,-16,-12,-11
-26,3,28,11,-27,15,-9,-19,-15,-16,-13,-11
-26,2,28,12,-27,15,-10,-19,-16,-17,-14,-12
-27,2,29,12,-28,15,-10,-20,-17,-18,-15,-13
-28,2,29,13,-28,15,-11,-21,-17,-19,-16,-14
-28,2,30,13,-29,15,-11,-22,-18,-19,-16,-15
-29,1,29,14,-29,15,-12,-24,-19,-21,-17,-15
-28,0,28,14,-28,14,-13,-25,-20,-22,-18,-16
-28,0,28,14,-28,13,-13,-26,-21,-23,-18,-17
-29,0,28,15,-29,14,-13,-26,-21,-23,-19,-17
-30,0,29,15,-30,14,-13,-26,-21,-23,-19,-17
-31,-1,30,16,-31,14,-13,-26,-21,-23,-19,-17
-32,-2,30,17,-31,14,-13,-26,-22,-23,-19,-18
-34,-2,31,18,-32,14,-13,-26,-22,-24,-19,-18
-35,-3,31,19,-33,14,-14,-27,-23,-24,-20,-19
-35,-3,31,19,-32,13,-14,-28,-24,-25,-21,-19
-36,-4,30,20,-33,13,-14,-28,-24,-26,-21,-19
-37,-5,31,21,-35,13,-14,-28,-24,-26,-21,-19
-39,-5,32,21,-36,13,-14,-28,-24,-26,-21,-19
-40,-6,33,22,-36,13,-14,-29,-25,-26,-22,-20
-41,-7,33,23,-37,13,-15,-29,-26,-27,-22,-21
-41,-7,34,24,-37,13,-16,-30,-26,-27,-23,-21
-41,-7,34,24,-37,13,-16,-30,-26,-27,-23,-21
-42,-7,34,25,-38,13,-16,-30,-26,-27,-23,-21
-44,-8,35,27,-39,13,-16,-30,-26,-28,-23,-22
-45,-9,35,28,-41,13,-16,-31,-26,-28,-24,-22
-47,-10,36,28,-42,13,-16,-32,-27,-29,-24,-23
-48,-10,37,29,-43,13,-16,-33,-27,-29,-24,-23
-50,-10,40,30,-46,15,-15,-32,-26,-29,-24,-23
-53,-10,43,31,-48,16,-14,-32,-26,-29,-23,-23
-55,-10,45,32,-50,17,-14,-31,-25,-29,-23,-24
-55,-8,46,32,-51,19,-13,-30,-23,-28,-22,-23
-56,-6,49,32,-53,22,-11,-27,-20,-26,-20,-21
-58,-6,51,33,-55,23,-10,-23,-17,-23,-18,-19
-59,-6,51,33,-56,23,-10,-19,-14,-20,-16,-18
-56,-5,50,31,-54,22,-10,-13,-10,-14,-13,-16
-52,-3,48,28,-51,22,-10,-6,-6,-8,-9,-12
-48,-2,46,25,-48,22,-11,0,-3,-1,-6,-8
-41,0,42,21,-42,21,-15,2,-1,3,-4,-5
-32,1,34,16,-33,18,-21,1,-3,6,-3,-2
-24,1,25,11,-24,14,-30,-6,-8,7,-3,1
-14,3,17,6,-16,10,-40,-19,-15,5,-4,4
-4,6,9,-1,-7,8,-50,-37,-24,1,-4,7
5,9,2,-7,0,5,-59,-57,-35,-5,-6,9
13,10,-3,-11,7,3,-67,-76,-47,-13,-11,8
19,11,-8,-15,13,1,-74,-95,-59,-23,-17,6
27,11,-16,-19,21,-2,-82,-113,-74,-35,-25,3
36,9,-27,-22,31,-9,-93,-133,-92,-50,-37,-3
44,6,-38,-25,41,-16,-102,-152,-112,-68,-51,-11
49,3,-47,-25,47,-22,-109,-171,-130,-87,-64,-20
51,-2,-53,-24,51,-28,-114,-190,-147,-106,-78,-32
49,-10,-60,-19,54,-35,-116,-204,-162,-125,-93,-47
48,-20,-68,-14,57,-44,-117,-215,-175,-144,-109,-65
47,-29,-75,-9,60,-52,-119,-223,-187,-160,-124,-82
43,-36,-79,-3,60,-58,-121,-227,-195,-173,-137,-95
40,-43,-83,2,61,-63,-121,-225,-199,-181,-146,-105
36,-50,-87,7,61,-68,-119,-219,-199,-184,-152,-113
32,-56,-90,12,61,-73,-113,-207,-195,-182,-155,-118
29,-62,-92,16,60,-77,-106,-193,-188,-178,-155,-122
26,-65,-93,20,59,-79,-98,-179,-180,-171,-153,-123
22,-66,-89,23,55,-78,-90,-165,-170,-162,-148,-121
16,-65,-81,24,48,-73,-82,-151,-158,-151,-140,-116
10,-60,-70,25,40,-65,-73,-137,-144,-138,-129,-108
2,-55,-57,26,30,-56,-65,-122,-129,-124,-118,-99
-4,-48,-43,27,19,-46,-57,-107,-114,-110,-105,-89
-11,-41,-31,27,10,-36,-50,-92,-99,-96,-92,-79
-15,-34,-20,25,2,-28,-44,-79,-86,-83,-80,-70
-16,-28,-12,23,-2,-20,-39,-66,-74,-71,-70,-61
-18,-23,-6,21,-7,-14,-33,-55,-64,-61,-60,-54
-19,-19,0,19,-11,-9,-28,-45,-55,-51,-53,-48
-22,-16,6,19,-14,-5,-23,-37,-48,-44,-47,-44
-25,-14,11,19,-18,-2,-20,-30,-42,-38,-42,-41
-28,-13,15,20,-21,1,-16,-25,-36,-33,-38,-38
-31,-12,19,21,-24,3,-13,-20,-31,-29,-34,-35
-32,-11,20,22,-26,4,-10,-16,-28,-25,-32,-33
-31,-10,20,21,-25,5,-8,-13,-25,-22,-29,-32
-30,-8,20,20,-25,6,-6,-9,-21,-19,-26,-29
-30,-8,21,19,-26,6,-3,-6,-19,-16,-24,-27
-30,-8,22,19,-26,7,-2,-3,-17,-14,-22,-25
-31,-7,23,19,-27,8,-1,-1,-16,-13,-21,-24
-30,-5,25,17,-27,10,0,0,-14,-11,-20,-23
-30,-4,26,17,-28,11,1,1,-13,-10,-19,-22
-31,-4,26,17,-28,11,1,2,-12,-9,-18,-22
-30,-4,25,17,-28,11,2,3,-11,-8,-17,-21
-29,-4,24,16,-27,11,3,5,-9,-7,-16,-20
-28,-3,24,15,-26,11,4,6,-8,-5,-14,-19
-27,-3,24,15,-25,11,5,8,-6,-3,-13,-17
-27,-2,24,14,-25,11,5,9,-4,-2,-12,-16
-26,-1,24,13,-25,11,6,9,-3,-1,-11,-15
-23,0,24,11,-23,12,7,10,-2,0,-11,-14
-21,2,23,9,-22,12,7,11,0,0,-10,-13
-19,3,22,8,-21,12,8,13,0,1,-9,-13
-19,3,22,9,-21,12,8,14,1,2,-7,-12
-20,2,22,9,-21,12,9,16,2,3,-6,-11
-19,2,22,9,-20,12,10,18,3,4,-5,-11
-18,3,21,8,-20,12,11,19,5,5,-4,-10
-17,4,21,6,-19,13,11,20,6,6,-3,-9
-15,6,21,4,-18,13,11,20,7,7,-3,-8
-13,7,20,3,-17,13,12,21,8,7,-2,-8
-13,8,20,3,-17,13,12,22,9,7,-1,-7
-13,7,21,3,-17,14,13,23,10,8,0,-7
-14,7,20,4,-17,14,14,25,11,9,0,-6
-13,6,19,3,-16,13,15,26,12,11,1,-5
-13,6,19,3,-16,13,15,26,13,12,2,-4
-14,5,19,4,-16,12,15,27,14,12,3,-3
-15,4,18,5,-17,11,15,27,14,12,3,-3
-16,2,18,7,-17,10,15,27,15,12,4,-2
-17,1,17,8,-17,9,16,27,15,13,4,-2
-17,0,17,9,-17,9,16,28,16,13,4,-2
-16,1,17,8,-17,9,15,29,16,14,5,-2
-16,1,17,8,-17,9,15,30,17,15,5,-1
-16,0,17,8,-17,8,15,31,18,16,6,-1
-16,0,17,8,-17,8,15,32,18,17,6,-1
-16,0,16,8,-16,8,15,33,19,17,6,-1
-17,-1,15,9,-17,7,15,33,19,17,6,-2
-19,-2,16,11,-18,7,15,34,19,18,6,-2
-20,-2,17,11,-19,7,16,36,20,19,7,-1
-20,-2,16,11,-18,7,16,37,20,20,7,-1
-20,-3,15,12,-18,6,15,37,20,20,7,-1
-19,-4,14,12,-17,5,14,37,20,20,7,-1
-18,-4,13,12,-16,5,14,38,20,20,7,-1
-19,-4,15,12,-17,6,14,39,21,22,8,0
-20,-3,16,12,-18,6,15,40,22,23,9,0
-20,-3,17,13,-18,6,15,40,22,23,9,1
-21,-3,17,13,-19,7,16,41,23,24,10,1
-21,-3,17,12,-19,7,16,41,24,25,11,2
-20,-3,16,12,-18,6,16,42,25,26,11,3
-18,-3,15,11,-17,6,16,43,25,27,12,3
-18,-3,14,11,-16,5,16,45,26,28,13,3
-19,-4,15,12,-17,5,16,47,27,29,13,3
-20,-4,15,12,-18,5,16,47,27,29,13,2
-21,-4,16,13,-18,5,16,48,28,30,13,3
-21,-4,16,13,-19,5,17,50,30,32,14,4
-20,-4,16,12,-18,5,17,51,30,32,15,4
-19,-5,14,12,-17,5,17,52,31,33,15,4
-18,-5,13,12,-16,5,17,53,31,34,15,4
-18,-5,13,12,-16,5,17,54,32,35,15,4
-19,-5,14,13,-16,5,17,55,33,36,16,5
-19,-5,15,13,-17,6,17,56,34,37,17,5
-20,-4,15,13,-17,6,17,57,34,38,17,6
-20,-4,16,12,-18,6,17,58,35,39,18,7
-18,-3,15,11,-17,6,18,60,36,40,19,8
-17,-3,14,10,-16,6,18,61,37,40,20,8
-16,-3,13,10,-15,6,18,62,38,41,21,9
-16,-3,14,10,-15,6,18,63,39,42,21,9
-18,-3,15,10,-16,6,19,64,40,43,22,10
-19,-3,16,11,-18,7,19,65,41,44,22,10
-20,-3,16,11,-18,7,20,67,42,45,23,10
-20,-4,16,12,-18,6,19,67,42,45,23,10
-20,-4,15,12,-18,5,18,68,42,45,23,10
-18,-5,13,12,-16,5,18,68,42,46,23,10
-18,-5,12,11,-15,4,18,69,43,46,23,10
-18,-4,13,11,-15,5,18,69,44,47,24,10
-18,-3,14,10,-16,6,19,69,44,48,24,11
-18,-2,14,10,-16,6,19,69,45,48,25,11
-17,-3,13,10,-15,5,19,69,45,48,25,11
-16,-3,12,10,-14,5,20,69,45,48,25,12
-17,-1,14,9,-15,6,20,69,45,49,26,13
-17,-1,15,9,-16,7,20,69,45,49,26,13
-16,-1,14,9,-15,6,20,69,45,49,26,13
-16,-2,13,9,-15,6,19,68,45,49,27,14
-16,-2,14,10,-15,6,19,68,45,48,27,14
-16,-1,15,9,-15,6,19,67,46,48,27,14
-14,0,15,8,-15,7,19,66,46,48,27,15
-15,0,15,8,-15,7,19,65,45,48,27,15
-16,0,16,9,-16,8,18,63,45,47,28,15
-16,0,16,8,-16,9,18,61,44,47,28,16
-15,1,16,7,-15,9,18,59,44,46,28,16
-14,1,15,7,-15,9,18,57,43,45,28,17
-13,1,15,7,-14,8,17,54,42,44,28,17
-13,1,15,7,-14,8,16,51,40,42,27,16
-15,1,16,7,-15,9,15,48,39,40,27,16
-17,1,18,8,-17,10,15,46,38,39,27,17
-18,1,19,8,-18,10,15,43,37,37,27,18
-17,2,19,8,-18,10,15,40,36,36,27,18
-16,2,18,7,-17,10,15,38,35,34,27,18
-16,1,17,7,-16,9,14,36,34,33,26,18
-14,1,16,6,-15,9,13,33,32,31,25,18
-13,1,15,6,-14,8,13,30,31,29,25,18
-14,1,15,6,-14,8,12,28,29,26,24,17
-15,0,14,7,-15,7,11,25,27,24,22,17
-16,-1,14,8,-15,7,11,23,26,22,21,16
-16,-1,15,9,-16,7,11,21,25,21,21,16
-15,0,14,8,-14,7,11,20,24,20,21,16
-12,0,12,6,-12,6,10,18,23,19,20,16
-12,0,11,6,-11,6,10,16,22,18,20,16
-13,-1,11,8,-12,5,10,14,21,16,19,16
-14,-2,11,9,-12,5,9,12,19,15,18,16
-13,-3,10,9,-12,4,8,10,18,13,17,15
-13,-3,9,8,-11,3,8,9,17,12,17,15
-13,-3,10,8,-11,3,9,8,17,12,17,15
-13,-3,10,9,-12,3,9,7,16,11,16,15
-13,-4,9,9,-11,2,9,6,15,11,16,15
-12,-5,8,9,-10,1,9,5,15,10,16,15
-11,-5,6,9,-8,1,9,4,14,9,16,15
-11,-5,6,9,-8,1,9,3,14,8,16,15
-12,-5,6,9,-9,0,9,2,13,8,15,15
-12,-6,5,9,-9,0,9,1,13,7,15,14
-13,-7,5,10,-9,-1,8,1,12,6,14,14
-13,-7,4,10,-8,-1,8,0,11,5,14,13
-12,-8,3,10,-8,-2,8,0,11,5,13,13
-12,-8,3,11,-8,-2,8,1,11,5,13,13
-12,-9,2,11,-8,-2,9,1,11,5,14,13
-12,-10,2,12,-7,-3,8,1,11,5,14,13
-12,-10,1,12,-7,-4,8,0,11,4,14,13
-12,-10,1,11,-7,-3,8,0,11,4,14,13
-12,-11,0,11,-7,-4,8,0,10,4,13,13
-13,-13,0,12,-6,-6,8,0,10,4,13,13
-14,-14,-1,13,-6,-6,8,-1,10,4,13,13
-13,-14,-1,13,-6,-6,8,-1,10,4,13,13
-13,-13,-1,13,-5,-6,9,0,10,4,13,14
-13,-13,-1,13,-5,-6,9,1,10,5,14,15
-13,-12,0,13,-5,-5,9,2,11,6,15,15
-13,-12,0,13,-6,-5,9,2,11,6,15,15
-13,-12,0,13,-7,-5,9,3,11,7,15,15
-13,-12,0,13,-7,-5,10,4,12,8,16,16
-11,-11,-1,11,-5,-5,10,4,12,8,16,16
-10,-10,-1,11,-5,-5,11,5,13,9,17,16
-11,-11,0,11,-5,-5,12,5,14,10,17,17
-11,-10,0,11,-6,-4,12,6,14,10,17,17
-11,-10,1,11,-6,-4,12,6,14,11,17,17
-11,-9,1,11,-6,-4,11,7,14,11,17,17
-11,-9,2,11,-7,-3,11,7,14,12,18,17
-11,-9,2,11,-7,-3,11,7,15,12,18,17
-11,-9,1,11,-7,-3,12,7,15,13,18,17
-10,-9,1,11,-6,-3,12,8,15,14,19,18
-10,-9,1,11,-6,-3,12,8,16,15,19,19
-9,-8,1,10,-5,-3,12,9,16,15,19,19
-8,-6,1,8,-4,-2,12,9,17,15,19,19
-8,-5,1,7,-5,-2,11,9,17,15,19,19
-8,-6,2,8,-5,-2,11,10,17,15,20,19
-9,-6,2,8,-6,-1,12,11,17,15,20,20
-8,-4,4,6,-7,0,12,12,18,16,21,21
-6,-1,5,4,-6,3,13,13,19,18,22,21
-4,1,5,2,-5,4,13,14,20,19,23,22
-4,1,6,1,-5,4,13,14,21,20,24,23
-4,1,6,1,-5,4,12,13,21,20,24,23
-4,1,5,2,-5,3,11,12,21,20,24,23
-5,0,5,2,-5,3,10,11,20,19,24,23
-5,0,4,3,-5,2,9,10,20,19,24,23
-4,0,3,2,-4,2,7,9,19,19,24,23
-2,0,2,2,-2,1,7,7,18,19,24,23
-1,0,1,1,-1,1,6,6,18,19,24,23
-1,0,1,1,-1,1,6,6,17,18,23,23
-2,0,2,1,-2,1,6,6,17,17,22,23
-2,1,3,1,-3,2,6,6,16,16,22,22
-3,1,4,1,-3,2,6,6,16,16,22,22
-4,1,4,1,-4,3,7,6,15,16,21,22
-3,1,3,1,-4,2,7,6,15,16,21,22
-1,2,2,0,-2,2,8,6,14,16,21,22
-1,2,3,0,-3,3,8,6,14,16,21,21
-3,0,3,2,-4,2,8,6,13,15,19,20
-4,-1,2,3,-4,1,8,5,12,14,18,19
-4,-1,3,3,-4,1,8,5,12,13,18,18
-5,-1,4,4,-5,1,9,5,12,13,18,18
-6,-1,5,4,-6,2,10,5,12,13,18,18
-8,-1,6,4,-7,2,12,5,12,12,17,18
-9,-1,7,5,-8,3,13,5,11,12,17,18
-10,-1,8,6,-9,4,13,4,11,11,17,18
-11,-1,8,7,-10,4,14,3,10,11,16,18
-11,-2,8,8,-10,3,14,2,10,10,15,18
-11,-2,8,7,-9,3,13,2,9,9,14,17
-10,-2,7,7,-9,3,13,1,8,8,13,16
-10,-4,6,7,-8,2,12,0,8,7,12,15
-11,-5,6,8,-8,1,12,0,7,6,12,14
-10,-4,6,8,-8,1,12,0,6,6,11,13
-9,-4,5,7,-7,1,12,-1,6,5,11,13
-10,-4,5,7,-7,1,12,-2,5,5,10,13
-12,-5,6,8,-9,1,12,-2,5,5,10,13
-13,-5,7,9,-10,1,12,-2,6,5,10,13
-13,-6,7,9,-10,1,11,-2,6,4,10,13
-14,-6,7,9,-11,1,11,-2,5,3,9,12
-14,-5,8,9,-11,2,11,-2,5,3,10,12
-14,-4,9,9,-12,3,12,-2,5,3,10,12
-14,-5,8,10,-12,2,12,-3,5,3,10,12
-13,-5,8,10,-11,2,12,-4,4,2,10,12
-13,-4,8,9,-11,2,12,-4,4,2,10,12
-13,-4,8,9,-11,2,11,-5,4,1,9,11
-14,-4,9,9,-11,2,11,-5,3,0,8,11
-16,-5,10,10,-13,3,11,-5,3,0,8,10
-17,-6,10,11,-14,2,10,-6,2,0,7,9
-15,-5,9,11,-12,2,10,-6,2,-1,7,9
-13,-3,8,9,-11,2,11,-5,2,0,8,9
-11,-2,8,8,-9,2,12,-4,3,0,9,11
-12,-3,8,8,-9,2,13,-3,4,1,9,11
-12,-3,8,8,-10,3,13,-4,4,0,9,11
-12,-3,9,8,-11,3,13,-4,4,0,8,11
-12,-2,11,7,-12,4,13,-5,4,1,9,12
-12,0,12,7,-12,5,14,-5,4,1,9,13
-12,1,13,6,-12,6,13,-6,3,0,9,12
-13,2,15,6,-14,8,13,-6,3,0,9,12
-16,2,17,7,-16,9,12,-5,2,0,9,12
-17,2,18,8,-18,9,12,-5,3,0,9,12
-18,2,19,8,-19,10,13,-5,3,0,9,12
-20,2,21,9,-21,12,14,-5,5,0,9,12
-22,3,25,9,-24,14,15,-3,7,0,11,12
-24,4,28,10,-27,16,16,-2,9,2,12,13
-24,5,30,9,-28,17,17,0,10,3,13,13
-24,6,31,9,-28,18,17,2,12,5,15,14
-23,8,31,8,-27,19,17,7,16,9,17,16
-22,10,31,6,-26,21,18,14,21,15,21,20
-18,13,30,3,-24,22,17,22,26,23,26,25
-12,15,27,-1,-20,21,15,27,30,31,31,30
-5,17,22,-6,-13,20,11,29,31,37,34,34
4,19,16,-12,-6,18,3,26,29,41,36,38
13,21,9,-17,2,15,-5,17,24,42,37,43
21,23,3,-23,9,14,-15,3,17,42,38,49
29,27,-1,-28,15,13,-25,-15,7,40,38,55
37,30,-7,-33,22,12,-35,-35,-4,35,36,57
44,32,-12,-37,28,10,-43,-55,-17,26,31,57
51,34,-18,-42,34,8,-51,-72,-30,17,26,56
61,35,-26,-48,44,5,-60,-89,-45,7,19,55
71,35,-35,-53,53,0,-69,-107,-62,-7,9,51
77,33,-44,-56,61,-5,-78,-125,-81,-24,-3,44
80,29,-51,-55,66,-11,-84,-145,-99,-44,-17,34
80,24,-56,-52,68,-16,-88,-162,-115,-65,-32,19
78,16,-62,-47,70,-23,-90,-175,-130,-86,-50,1
76,6,-71,-41,74,-32,-91,-183,-143,-105,-69,-19
74,-4,-79,-35,77,-41,-93,-188,-154,-122,-86,-38
72,-12,-85,-29,79,-49,-94,-188,-161,-134,-99,-53
69,-20,-89,-24,79,-55,-92,-184,-162,-141,-107,-63
65,-28,-92,-18,78,-60,-88,-175,-160,-143,-112,-70
61,-34,-95,-14,78,-64,-82,-164,-156,-142,-116,-76
58,-38,-97,-10,77,-67,-75,-152,-151,-139,-117,-80
53,-41,-95,-6,74,-67,-68,-140,-143,-133,-114,-80
45,-42,-88,-1,67,-65,-60,-127,-132,-124,-109,-78
37,-41,-79,2,58,-60,-52,-114,-120,-113,-101,-73
30,-37,-67,4,49,-53,-44,-101,-106,-101,-91,-67
24,-32,-55,4,39,-44,-36,-87,-92,-88,-80,-58
18,-26,-43,4,30,-34,-29,-73,-77,-74,-67,-49
12,-19,-31,3,22,-25,-24,-60,-63,-61,-55,-40
9,-13,-22,2,16,-17,-19,-49,-52,-50,-45,-33
6,-8,-15,2,11,-11,-15,-38,-42,-41,-37,-27
1,-5,-8,2,5,-6,-10,-29,-33,-32,-29,-22
-3,-3,-1,3,0,-2,-5,-21,-25,-24,-23,-17
-5,-1,3,3,-4,1,0,-14,-17,-17,-17,-13
-7,1,8,3,-8,4,3,-8,-11,-11,-13,-9
-8,2,12,3,-10,7,6,-3,-7,-7,-9,-6
-10,4,15,3,-12,9,8,1,-3,-4,-6,-4
-11,5,16,3,-14,11,10,5,-1,-1,-4,-3
-11,5,17,3,-14,12,11,8,1,0,-3,-3
-13,6,18,4,-16,13,13,11,3,2,-1,-1
-14,6,20,4,-17,13,15,13,5,4,0,0
-15,6,21,4,-18,13,17,14,7,6,1,0
-15,6,22,4,-19,14,18,15,8,7,2,0
-15,7,23,4,-20,15,18,16,9,8,3,1
-15,7,24,4,-20,16,18,16,10,9,4,1
-16,7,24,5,-20,16,17,16,10,9,4,1
-18,8,26,5,-21,17,17,17,10,9,5,2
-18,8,26,5,-22,17,17,18,10,10,6,2
-19,8,26,5,-22,17,18,19,11,10,6,2
-19,9,27,5,-23,17,19,19,12,11,6,2
-19,10,29,5,-24,19,20,20,13,12,6,3
-20,10,30,5,-24,20,20,21,14,13,7,3
-21,10,31,6,-25,20,20,21,14,13,7,2
-21,9,31,6,-26,20,19,21,13,13,6,1
-22,9,31,6,-26,20,19,20,13,12,6,1
-22,10,31,6,-26,20,18,21,13,13,6,2
-21,9,30,6,-25,20,18,21,13,13,6,2
-22,8,30,7,-25,19,18,21,13,13,6,1
-22,8,30,7,-26,20,18,21,13,13,6,1
-22,9,31,6,-26,20,17,21,13,13,6,0
-22,9,32,6,-27,21,17,21,13,13,6,0
-23,10,34,6,-28,22,16,22,13,14,6,0
-22,11,34,5,-28,23,16,23,13,14,6,0
-22,12,34,4,-28,23,16,23,14,14,6,0
-22,12,34,5,-28,23,16,23,14,15,6,0
-23,11,35,6,-29,23,16,24,14,15,6,0
-25,11,35,7,-30,23,16,25,15,16,6,0
-26,11,37,7,-31,24,16,26,15,16,6,1
-25,13,38,6,-32,25,16,26,16,16,7,1
-24,14,37,5,-31,26,17,27,16,16,7,2
-22,15,37,4,-29,26,17,27,17,17,8,3
-20,17,36,2,-28,27,17,28,17,18,9,4
-20,17,37,1,-28,27,17,28,17,18,9,3
-21,17,37,2,-29,27,16,28,17,18,8,3
-21,16,37,3,-29,27,16,28,17,18,9,3
-20,17,37,2,-28,27,17,29,18,19,10,3
-19,17,37,1,-28,27,17,29,18,20,10,3
-20,17,38,1,-29,28,16,30,18,20,10,3
-18,19,38,0,-28,29,16,32,19,21,11,4
-15,22,38,-4,-27,31,17,34,20,22,12,4
-15,23,38,-5,-27,31,17,35,21,23,12,4
-16,23,38,-4,-27,31,16,35,21,23,11,3
-15,22,37,-4,-26,30,16,35,21,23,11,3
-14,23,37,-4,-25,30,16,36,22,24,11,3
-13,24,37,-5,-25,31,17,37,23,25,12,3
-12,25,37,-6,-25,31,17,37,23,26,13,4
-10,25,37,-7,-24,31,17,37,24,26,13,4
-10,26,37,-8,-24,32,17,39,25,27,14,5
-10,26,36,-8,-23,31,17,40,25,28,14,6
-8,26,35,-9,-21,30,17,41,26,29,14,6
-7,26,34,-9,-20,30,18,43,27,31,16,7
-6,27,34,-10,-20,31,18,45,29,32,17,7
-4,29,33,-12,-19,32,19,46,30,34,18,8
-2,31,33,-14,-18,32,20,47,31,35,19,8
-1,32,32,-15,-16,32,20,48,32,36,19,9
0,32,31,-16,-15,31,20,49,33,37,20,10
1,32,30,-17,-14,31,20,50,33,38,20,11
2,32,29,-17,-13,30,20,51,34,39,21,12
4,31,27,-18,-11,29,20,52,35,40,21,12
5,30,24,-18,-10,28,19,53,35,41,22,11
6,30,24,-18,-9,27,19,54,36,42,23,12
6,30,24,-18,-9,28,20,56,38,43,24,13
8,31,23,-19,-8,27,21,57,38,44,25,13
10,31,21,-20,-5,26,20,58,38,45,24,12
11,30,19,-20,-4,25,20,58,38,45,24,12
11,30,19,-21,-4,24,20,59,39,46,25,12
13,31,18,-21,-3,24,20,60,39,47,25,13
13,31,17,-22,-2,24,20,62,40,48,26,13
14,30,16,-22,-2,24,21,63,41,48,26,14
16,31,15,-23,0,23,21,64,42,49,27,14
17,32,14,-24,1,23,22,64,43,50,28,15
18,32,14,-25,2,23,22,64,43,51,28,15
18,32,14,-25,2,23,22,65,44,51,28,15
18,32,14,-25,2,22,21,65,44,52,29,15
18,32,13,-26,2,22,21,66,45,52,29,15
20,33,13,-27,3,23,21,67,45,52,29,16
22,33,11,-28,5,23,21,68,45,53,30,16
24,33,9,-28,7,22,21,68,46,54,31,17
23,32,8,-28,7,21,21,69,46,54,31,16
21,30,8,-26,6,20,21,68,45,53,30,16
20,29,9,-24,6,19,21,67,45,53,30,16
19,28,9,-24,5,19,21,66,45,52,30,16
19,27,8,-23,5,18,21,66,45,52,30,16
19,27,8,-23,5,17,20,65,45,51,30,16
19,27,8,-23,5,17,20,64,45,51,30,17
18,27,8,-22,4,18,21,63,46,51,31,18
18,27,9,-22,4,19,21,63,46,51,32,19
17,28,10,-22,3,19,21,61,45,50,31,19
16,28,12,-22,2,20,20,59,44,50,31,20
16,29,13,-22,1,21,20,58,44,49,32,21
15,29,14,-22,1,21,20,56,44,48,32,21
15,29,14,-22,1,21,19,53,42,46,32,21
16,29,13,-22,1,21,18,49,40,44,31,20
17,29,12,-22,2,20,17,46,38,41,30,20
19,29,10,-23,4,20,15,42,36,39,28,19
20,28,8,-24,6,18,14,38,33,36,27,18
21,27,5,-24,8,17,12,34,30,33,25,17
21,26,4,-24,9,16,11,30,28,31,24,17
20,25,4,-23,8,15,9,27,26,28,23,16
19,24,5,-22,7,15,9,24,24,26,22,16
19,24,5,-22,7,15,8,21,22,23,21,16
20,25,5,-23,7,15,8,18,21,21,20,15
21,26,5,-23,7,15,7,15,19,19,19,15
19,25,5,-21,6,15,6,12,16,17,18,13
18,23,5,-20,6,14,5,9,14,15,16,12
17,22,4,-20,6,14,4,6,13,13,15,12
16,22,5,-19,6,14,4,4,11,12,14,12
15,21,5,-18,5,13,4,2,10,11,14,12
15,20,5,-18,5,13,3,1,9,10,13,12
15,20,5,-17,5,12,3,1,8,9,13,12
14,19,5,-16,5,12,3,0,7,8,13,12
12,18,5,-14,3,12,4,-1,7,7,12,12
12,18,6,-14,3,12,4,-2,6,6,12,12
13,19,5,-15,4,13,3,-4,5,5,12,12
14,18,4,-16,5,12,3,-6,3,3,11,12
13,16,2,-14,5,10,2,-7,2,1,9,11
12,14,1,-13,5,8,2,-8,0,0,8,10
13,13,0,-13,6,7,1,-9,0,-1,7,9
13,13,0,-12,6,6,1,-10,-1,-1,7,8
12,12,0,-11,6,6,0,-11,-1,-2,6,7
11,11,0,-10,5,5,0,-12,-2,-3,5,7
11,10,0,-10,5,5,0,-12,-2,-3,6,7
11,11,0,-11,5,6,1,-12,-2,-3,6,8
12,11,-1,-11,6,5,1,-12,-2,-3,6,8
12,10,-2,-11,7,4,1,-12,-2,-4,6,7
11,9,-2,-10,7,4,1,-13,-3,-4,5,6
9,7,-1,-8,6,3,1,-14,-3,-5,5,6
8,6,-1,-7,5,2,1,-14,-3,-5,5,6
7,6,-1,-6,5,2,1,-14,-3,-5,5,7
6,4,-1,-5,4,2,1,-14,-3,-5,5,7
4,2,-2,-3,3,1,1,-14,-3,-6,5,7
5,1,-3,-3,4,0,1,-15,-4,-6,5,7
8,2,-5,-5,6,-1,1,-15,-4,-6,5,8
12,4,-7,-8,9,-1,1,-14,-3,-5,5,8
16,6,-9,-10,12,-1,1,-14,-3,-5,6,8
19,7,-11,-13,15,-1,1,-14,-3,-5,6,8
18,7,-11,-12,14,-1,1,-14,-3,-5,6,8
13,5,-9,-9,11,-1,1,-13,-2,-5,6,9
11,4,-8,-7,9,-1,2,-13,-2,-5,6,9
12,4,-8,-8,10,-2,2,-12,-1,-5,6,9
14,4,-9,-9,12,-2,2,-12,-1,-5,6,8
14,4,-10,-9,13,-3,2,-11,-1,-4,7,8
14,3,-10,-9,13,-4,3,-10,0,-4,7,9
14,3,-10,-8,12,-4,3,-10,0,-3,8,9
13,3,-9,-8,11,-3,3,-10,0,-3,9,9
12,2,-9,-7,11,-3,3,-9,1,-3,9,9
13,3,-10,-8,11,-3,3,-9,1,-3,9,9
15,5,-10,-10,12,-2,3,-9,2,-2,9,9
16,7,-9,-11,13,-1,4,-7,3,-1,10,10
17,8,-9,-13,13,-1,5,-6,5,0,11,12
17,8,-8,-13,13,0,5,-5,6,1,12,13
14,8,-5,-11,10,1,6,-4,6,2,12,13
11,6,-4,-9,8,1,7,-4,7,2,13,14
11,6,-5,-8,8,0,7,-4,7,2,13,14
12,6,-6,-9,9,0,6,-4,7,2,13,14
13,8,-5,-10,9,1,7,-3,7,3,14,14
13,10,-4,-11,8,3,8,-1,9,4,16,15
12,11,-1,-12,6,4,8,0,10,5,17,16
11,11,0,-11,5,5,8,0,11,6,18,17
11,11,0,-11,5,6,7,0,10,6,18,17
12,11,-1,-11,6,5,5,-1,9,5,17,17
12,11,-1,-11,7,5,4,-2,9,5,16,17
12,11,-1,-11,6,5,3,-3,9,5,17,17
11,10,-2,-10,6,4,1,-4,8,5,16,18
12,9,-3,-11,8,3,0,-6,6,4,16,17
14,9,-5,-12,10,2,0,-6,5,3,15,16
16,9,-6,-12,11,1,-1,-7,5,3,14,16
17,9,-7,-13,12,1,-1,-8,4,2,14,15
18,10,-7,-14,13,1,0,-9,4,2,13,15
19,10,-8,-15,14,1,0,-9,3,1,13,15
20,10,-10,-15,15,1,-1,-9,3,0,12,14
21,9,-12,-15,16,0,-1,-9,2,0,11,14
22,8,-13,-15,17,-2,-1,-9,2,-1,11,13
22,8,-14,-14,18,-3,-1,-10,1,-2,10,12
22,7,-15,-14,18,-4,-1,-11,0,-3,9,10
22,6,-15,-13,19,-5,0,-11,0,-3,8,9
21,5,-16,-13,19,-5,0,-11,0,-3,8,9
20,5,-15,-12,18,-5,1,-11,0,-3,7,9
20,5,-15,-12,17,-4,2,-11,1,-3,7,9
21,6,-15,-13,18,-4,3,-11,1,-3,7,9
21,6,-15,-14,18,-4,4,-10,1,-3,7,9
21,6,-15,-13,18,-5,5,-10,1,-3,7,9
19,4,-14,-12,17,-5,6,-10,1,-3,8,9
18,3,-14,-10,16,-6,6,-11,1,-3,8,9
17,2,-15,-9,16,-6,6,-12,0,-4,7,9
15,0,-14,-8,14,-6,6,-12,0,-4,7,8
14,0,-13,-7,14,-6,6,-13,0,-5,6,8
15,0,-15,-7,15,-7,6,-13,-1,-5,6,7
16,0,-17,-8,17,-8,6,-13,-1,-6,5,7
16,0,-16,-8,17,-8,5,-14,-2,-7,4,6
15,-1,-16,-7,16,-9,4,-15,-3,-8,3,5
14,-2,-17,-6,16,-10,4,-16,-4,-9,3,5
15,-3,-19,-6,17,-11,3,-17,-4,-10,2,4
15,-3,-20,-6,17,-11,3,-18,-4,-10,2,4
14,-4,-20,-5,17,-12,3,-18,-5,-11,1,3
13,-5,-19,-4,16,-12,3,-18,-5,-11,1,3
12,-6,-18,-3,15,-12,3,-18,-5,-11,1,2
12,-7,-18,-2,15,-13,2,-19,-6,-11,0,2
12,-8,-20,-2,16,-14,1,-20,-7,-13,0,1
14,-7,-21,-3,17,-14,0,-21,-8,-14,-1,0
15,-7,-22,-4,18,-15,0,-22,-8,-14,-2,0
15,-7,-22,-4,19,-15,1,-22,-8,-14,-2,0
14,-7,-22,-3,18,-14,1,-22,-8,-14,-2,0
14,-7,-21,-3,18,-14,0,-22,-9,-15,-3,-1
14,-8,-22,-3,18,-14,0,-22,-9,-15,-3,-1
14,-9,-22,-2,18,-15,0,-23,-10,-16,-3,-1
14,-9,-23,-2,18,-16,0,-23,-10,-16,-3,-1
13,-10,-23,-2,18,-16,0,-23,-9,-16,-3,0
12,-11,-22,0,17,-16,0,-22,-9,-15,-3,0
10,-11,-21,1,16,-16,0,-22,-9,-15,-3,0
8,-11,-20,2,14,-15,0,-22,-9,-15,-3,0
6,-12,-18,3,13,-15,1,-22,-8,-15,-2,1
5,-12,-17,4,12,-15,1,-21,-8,-14,-2,1
3,-12,-16,4,10,-14,1,-21,-7,-13,-1,2
2,-11,-15,4,9,-13,2,-20,-7,-13,-1,2
2,-11,-14,4,9,-13,2,-21,-7,-14,-1,2
1,-12,-13,5,7,-12,2,-21,-7,-14,-1,2
0,-11,-11,6,6,-11,4,-21,-6,-14,0,1
-2,-10,-7,7,3,-9,6,-20,-4,-13,1,2
-6,-10,-3,8,-1,-7,8,-18,-2,-12,3,4
-9,-11,-1,9,-3,-6,9,-17,0,-10,5,5
-10,-10,0,10,-5,-5,10,-14,2,-8,7,6
-11,-9,1,9,-5,-4,11,-10,6,-4,10,8
-10,-9,0,9,-5,-4,12,-3,11,2,14,12
-6,-7,-1,6,-2,-4,11,4,17,10,19,17
0,-4,-5,2,3,-4,10,12,23,19,25,23
7,-1,-8,-3,8,-4,7,17,27,29,30,29
15,0,-13,-8,14,-6,1,17,27,36,35,35
23,1,-21,-12,22,-10,-6,11,23,39,37,40
30,1,-28,-16,29,-13,-16,-2,15,40,38,46
35,3,-32,-20,34,-14,-26,-20,6,40,40,53
42,7,-36,-25,39,-14,-36,-40,-5,37,40,60
51,11,-41,-31,46,-15,-45,-61,-18,32,38,63
60,13,-47,-37,54,-17,-53,-78,-31,25,35,65
70,15,-54,-42,62,-19,-61,-92,-44,18,30,66
79,15,-63,-47,71,-23,-70,-106,-59,8,22,65
86,13,-73,-49,79,-29,-79,-120,-76,-6,11,60
89,9,-81,-49,85,-35,-86,-137,-93,-23,0,53
88,3,-85,-46,87,-41,-92,-153,-108,-43,-14,41
85,-4,-90,-41,88,-47,-95,-165,-123,-63,-31,24
83,-14,-98,-34,91,-56,-98,-172,-136,-83,-51,3
82,-24,-107,-28,95,-66,-99,-176,-147,-100,-69,-17
80,-34,-114,-22,97,-74,-98,-177,-154,-114,-84,-34
77,-43,-119,-16,98,-81,-95,-173,-158,-125,-96,-48
73,-51,-123,-11,99,-87,-90,-166,-158,-131,-105,-60
69,-58,-127,-5,99,-93,-84,-157,-156,-134,-112,-69
64,-64,-129,0,97,-97,-77,-147,-151,-133,-115,-74
59,-68,-127,4,93,-97,-70,-137,-144,-129,-114,-77
53,-68,-122,7,88,-95,-63,-127,-134,-123,-109,-76
47,-66,-114,9,81,-90,-56,-117,-123,-114,-102,-72
40,-63,-104,11,72,-84,-48,-105,-111,-104,-93,-66
34,-59,-93,12,63,-76,-41,-94,-98,-93,-82,-60
27,-55,-81,13,54,-68,-34,-82,-85,-81,-72,-53
20,-49,-69,14,45,-59,-27,-70,-72,-69,-61,-45
16,-44,-59,13,37,-51,-22,-58,-60,-57,-50,-37
11,-39,-50,14,31,-45,-16,-47,-49,-47,-41,-30
8,-37,-44,15,26,-40,-11,-37,-39,-37,-33,-25
6,-35,-40,15,23,-37,-7,-28,-30,-29,-26,-20
4,-33,-36,14,20,-35,-2,-20,-23,-22,-21,-17
3,-32,-34,14,18,-33,1,-14,-18,-17,-16,-14
3,-31,-33,13,18,-32,3,-10,-14,-14,-14,-13
3,-30,-33,12,18,-31,5,-7,-12,-12,-12,-13
4,-29,-32,12,18,-30,6,-5,-10,-10,-11,-12
4,-27,-32,11,18,-29,7,-3,-7,-8,-9,-11
5,-26,-32,10,19,-29,9,0,-5,-6,-7,-10
7,-26,-33,9,20,-30,10,2,-3,-5,-6,-9
8,-26,-34,9,21,-30,10,4,-1,-4,-5,-9
8,-27,-34,10,20,-30,11,5,-1,-3,-5,-9
8,-28,-35,10,21,-31,11,5,-1,-3,-5,-9
10,-28,-36,9,23,-32,10,4,-1,-3,-6,-9
10,-28,-37,9,23,-32,10,4,-1,-3,-6,-10
10,-28,-37,9,24,-33,10,4,0,-3,-6,-10
12,-26,-38,7,25,-32,10,6,0,-1,-5,-10
14,-25,-38,5,26,-32,11,7,1,0,-5,-9
14,-25,-39,5,26,-32,11,7,2,0,-5,-9
15,-26,-41,5,27,-33,10,7,2,0,-5,-10
15,-26,-40,5,27,-33,10,9,2,0,-4,-10
15,-25,-39,4,27,-31,11,10,3,1,-3,-9
17,-23,-39,3,28,-31,11,11,3,1,-3,-9
18,-22,-40,2,29,-31,10,10,3,1,-3,-9
18,-21,-39,2,29,-30,10,10,3,1,-3,-9
15,-22,-37,4,26,-30,10,10,3,2,-3,-9
14,-22,-36,4,24,-29,10,11,4,2,-3,-8
14,-21,-35,3,23,-28,11,12,4,3,-3,-8
14,-20,-34,2,23,-27,11,13,5,4,-2,-7
14,-19,-33,2,23,-26,12,14,5,5,-2,-7
13,-19,-32,2,23,-26,12,15,6,5,-1,-7
13,-18,-32,2,23,-25,12,15,7,5,-1,-7
12,-17,-29,2,21,-23,13,17,8,6,0,-6
9,-16,-25,3,17,-20,14,19,9,8,1,-5
7,-16,-22,4,14,-18,14,20,10,9,2,-4
5,-16,-21,5,13,-18,14,20,11,10,2,-4
5,-16,-21,5,12,-18,14,20,11,10,2,-5
6,-14,-20,4,13,-17,13,20,11,10,1,-5
6,-13,-19,3,13,-15,13,20,11,10,1,-6
6,-11,-17,2,12,-14,13,20,11,10,2,-6
7,-10,-17,1,12,-13,13,20,11,10,1,-6
8,-9,-17,0,13,-13,11,20,10,10,0,-7
8,-9,-17,0,13,-13,11,20,10,10,0,-8
8,-8,-17,0,12,-12,11,21,11,10,0,-9
9,-7,-15,-1,11,-11,10,21,11,11,0,-9
10,-4,-14,-2,11,-9,9,21,10,11,0,-9
11,-2,-13,-3,12,-8,9,21,10,11,0,-9
11,-1,-12,-4,11,-7,9,21,11,11,0,-9
10,-1,-10,-4,10,-6,8,21,10,10,0,-9
10,0,-9,-5,10,-5,7,20,9,9,-1,-10
10,1,-8,-6,9,-4,6,20,9,9,-1,-11
10,2,-7,-7,9,-2,6,21,10,10,0,-10
10,4,-5,-8,8,0,6,23,11,12,0,-9
12,7,-4,-10,8,1,6,23,11,13,1,-9
13,9,-4,-11,8,3,6,24,11,13,1,-9
13,10,-2,-11,7,4,6,25,12,13,1,-10
11,11,1,-11,5,6,6,25,12,13,1,-10
10,12,3,-11,4,8,6,25,13,13,1,-10
10,14,6,-13,2,10,6,27,14,14,1,-9
11,16,7,-14,2,12,6,28,14,14,1,-9
12,18,6,-15,3,12,5,29,15,15,1,-10
13,19,6,-16,3,13,5,29,15,15,1,-10
13,20,8,-16,2,14,4,29,15,15,1,-11
12,23,11,-17,0,17,4,30,15,16,1,-11
12,27,16,-20,-1,22,4,31,16,17,2,-11
12,31,21,-22,-3,26,3,32,16,17,2,-11
11,34,24,-23,-5,29,1,32,15,16,0,-14
11,37,27,-24,-7,32,-1,30,13,14,-2,-16
11,42,31,-26,-9,36,-3,30,13,14,-3,-17
12,46,35,-29,-11,41,-4,30,12,14,-4,-18
13,52,38,-32,-12,45,-5,29,11,13,-5,-19
15,58,42,-36,-14,50,-6,29,11,13,-5,-19
15,63,49,-38,-17,56,-7,28,10,12,-6,-20
14,67,54,-40,-20,61,-9,28,10,12,-7,-21
14,72,59,-43,-22,65,-11,27,9,11,-8,-23
15,77,63,-46,-23,70,-13,26,7,9,-10,-25
19,82,64,-51,-22,73,-16,25,6,8,-12,-27
25,88,63,-57,-19,76,-18,23,4,6,-14,-29
32,94,62,-63,-15,78,-20,21,2,5,-15,-30
37,100,62,-68,-13,80,-22,19,1,4,-17,-32
39,104,65,-71,-14,84,-24,18,0,2,-18,-33
40,106,67,-72,-14,86,-26,16,-2,0,-20,-35
42,108,68,-75,-13,88,-29,15,-4,-1,-22,-38
45,112,68,-79,-12,90,-31,14,-5,-3,-24,-40
48,116,68,-83,-10,92,-32,14,-5,-3,-24,-40
50,119,69,-85,-10,94,-33,14,-5,-3,-25,-41
50,122,71,-86,-11,96,-33,13,-6,-3,-25,-41
51,125,74,-88,-12,99,-33,13,-6,-3,-25,-41
51,129,78,-89,-14,103,-33,13,-5,-3,-25,-40
50,132,82,-90,-16,107,-33,13,-5,-3,-24,-40
49,134,86,-91,-18,110,-33,13,-4,-3,-24,-39
48,136,90,-91,-21,114,-33,13,-3,-2,-23,-38
47,139,92,-92,-22,116,-32,14,-2,-1,-22,-37
48,140,92,-94,-22,117,-32,14,-2,-1,-21,-37
48,141,93,-94,-22,117,-33,12,-3,-2,-21,-37
46,142,95,-94,-24,119,-32,11,-3,-2,-20,-36
45,143,98,-94,-26,121,-32,10,-3,-2,-20,-34
44,144,101,-94,-28,122,-32,9,-3,-2,-19,-33
44,145,102,-94,-29,124,-32,7,-4,-3,-19,-33
43,145,104,-94,-30,125,-32,6,-4,-4,-19,-32
41,145,106,-93,-32,125,-32,4,-5,-5,-19,-32
38,144,107,-91,-34,126,-33,1,-7,-7,-20,-32
37,145,108,-90,-36,126,-33,-2,-8,-9,-20,-32
35,145,109,-90,-37,127,-34,-5,-9,-10,-20,-31
34,145,111,-89,-39,128,-34,-7,-10,-11,-20,-30
33,146,113,-89,-40,130,-34,-9,-11,-12,-20,-30
32,146,115,-88,-41,130,-35,-12,-13,-15,-21,-30
32,145,114,-88,-41,130,-36,-16,-15,-18,-23,-31
31,144,114,-87,-41,129,-37,-20,-17,-21,-24,-31
29,143,114,-86,-42,129,-37,-22,-18,-22,-24,-31
28,143,114,-85,-42,129,-37,-23,-19,-23,-24,-30
28,142,113,-85,-42,128,-37,-25,-21,-25,-25,-30
27,141,114,-84,-43,127,-39,-27,-23,-27,-27,-31
25,141,115,-83,-45,127,-39,-29,-24,-29,-28,-32
25,140,116,-82,-46,127,-39,-31,-26,-30,-28,-32
24,140,116,-82,-46,127,-39,-33,-27,-32,-29,-32
23,139,116,-81,-47,127,-39,-35,-28,-33,-29,-32
22,138,115,-80,-47,126,-40,-37,-29,-35,-30,-32
23,137,113,-80,-45,125,-40,-38,-30,-36,-31,-33
23,136,111,-80,-44,123,-40,-40,-31,-37,-31,-33
23,135,111,-79,-44,123,-40,-41,-32,-38,-32,-33
22,134,111,-78,-45,123,-40,-42,-33,-39,-32,-33
21,133,112,-77,-46,123,-40,-43,-34,-40,-33,-34
20,132,112,-76,-46,123,-41,-45,-35,-41,-34,-34
19,131,112,-75,-46,122,-41,-46,-36,-42,-34,-34
19,130,111,-75,-45,120,-41,-47,-37,-43,-35,-34
20,130,109,-75,-44,120,-41,-48,-37,-44,-35,-35
19,130,109,-74,-44,119,-40,-48,-37,-44,-35,-35
19,129,109,-74,-45,119,-40,-48,-38,-44,-35,-35
18,128,109,-73,-45,119,-40,-49,-38,-44,-36,-36
19,128,109,-73,-45,118,-40,-50,-39,-45,-36,-36
19,128,108,-73,-45,118,-40,-50,-39,-45,-36,-36
18,128,109,-73,-45,119,-40,-50,-39,-45,-36,-36
17,128,110,-73,-46,119,-40,-49,-39,-44,-35,-35
17,127,109,-72,-46,118,-40,-49,-39,-45,-36,-35
18,126,107,-72,-44,116,-40,-51,-40,-46,-37,-36
20,125,105,-72,-42,115,-41,-52,-41,-47,-38,-37
21,126,104,-73,-42,115,-41,-52,-41,-48,-39,-37
20,126,105,-73,-42,116,-41,-52,-41,-48,-39,-38
20,126,105,-73,-42,115,-41,-52,-41,-47,-39,-38
21,125,104,-72,-42,114,-41,-53,-42,-48,-39,-38
20,124,105,-71,-42,114,-42,-54,-43,-49,-40,-39
18,123,105,-70,-43,114,-42,-54,-43,-49,-41,-39
17,123,105,-70,-43,113,-42,-53,-43,-49,-41,-39
17,122,104,-69,-43,113,-41,-53,-43,-49,-40,-39
16,122,104,-68,-44,113,-41,-52,-43,-49,-40,-39
16,121,105,-68,-44,113,-40,-52,-43,-49,-40,-39
17,122,106,-69,-44,114,-40,-52,-43,-49,-40,-39
17,123,107,-70,-44,115,-41,-53,-42,-49,-39,-39
18,123,107,-70,-44,115,-41,-53,-42,-49,-39,-39
19,123,106,-71,-43,115,-41,-53,-42,-49,-39,-39
19,123,104,-71,-42,114,-42,-52,-42,-49,-40,-39
18,122,104,-70,-43,113,-42,-51,-41,-48,-39,-39
17,123,105,-70,-44,114,-41,-50,-40,-47,-38,-38
17,124,106,-70,-45,115,-40,-49,-39,-46,-37,-38
18,124,106,-71,-44,115,-40,-48,-39,-45,-37,-37
19,124,106,-72,-43,115,-41,-48,-39,-45,-37,-37
19,124,106,-71,-43,115,-41,-48,-39,-45,-37,-38
18,124,107,-71,-44,115,-41,-48,-39,-45,-37,-37
18,124,106,-71,-44,115,-40,-46,-38,-44,-36,-36
17,124,106,-71,-44,115,-40,-45,-37,-43,-35,-36
17,124,106,-70,-44,115,-40,-45,-36,-42,-35,-35
16,123,106,-69,-45,115,-40,-45,-36,-42,-35,-35
17,123,106,-69,-44,115,-40,-45,-36,-42,-35,-36
18,123,105,-70,-43,115,-40,-45,-36,-42,-34,-35
18,123,106,-70,-44,115,-39,-43,-35,-40,-33,-34
18,125,108,-71,-45,116,-39,-42,-34,-39,-32,-33
18,126,107,-72,-44,116,-39,-42,-33,-38,-32,-33
18,125,107,-71,-44,116,-39,-43,-33,-38,-31,-32
16,123,107,-70,-46,115,-40,-43,-33,-38,-31,-32
16,123,107,-69,-46,115,-41,-44,-34,-39,-32,-33
19,123,105,-71,-43,114,-44,-45,-36,-40,-34,-34
23,123,101,-72,-39,112,-46,-47,-37,-41,-35,-34
26,122,97,-73,-35,109,-49,-48,-39,-41,-36,-35
28,122,95,-74,-33,108,-50,-50,-40,-42,-36,-35
29,122,93,-75,-31,107,-51,-51,-40,-42,-36,-35
29,121,92,-75,-30,106,-51,-51,-41,-43,-37,-36
30,120,90,-75,-29,105,-51,-52,-41,-44,-38,-37
31,120,88,-76,-28,104,-51,-53,-42,-45,-39,-37
32,120,87,-76,-27,104,-51,-54,-42,-46,-39,-38
32,120,87,-76,-27,104,-51,-55,-43,-47,-40,-39
33,119,86,-76,-26,102,-51,-56,-45,-47,-41,-40
33,116,84,-74,-25,100,-51,-57,-46,-48,-42,-41
31,114,83,-72,-25,98,-51,-57,-47,-49,-43,-42
30,112,82,-71,-26,97,-50,-56,-48,-49,-44,-43
30,111,81,-70,-25,96,-49,-56,-48,-50,-44,-43
28,110,81,-69,-26,95,-48,-56,-47,-50,-44,-43
26,109,82,-68,-28,96,-47,-55,-47,-50,-44,-42
26,108,83,-67,-29,95,-46,-55,-47,-50,-44,-42
25,107,83,-66,-29,95,-45,-55,-47,-50,-44,-42
23,106,84,-64,-30,95,-44,-55,-47,-50,-44,-42
22,105,84,-63,-31,94,-44,-55,-47,-51,-44,-43
20,103,83,-61,-31,93,-43,-55,-47,-52,-45,-44
19,101,82,-60,-31,92,-43,-55,-47,-52,-45,-44
19,100,81,-60,-31,91,-43,-56,-48,-53,-46,-45
19,100,81,-60,-31,91,-43,-56,-48,-54,-47,-46
17,99,82,-58,-32,90,-43,-56,-49,-54,-47,-46
16,98,83,-57,-34,90,-42,-56,-49,-54,-47,-46
15,97,83,-56,-34,89,-41,-56,-49,-54,-47,-45
13,96,83,-55,-35,88,-41,-57,-49,-54,-47,-45
12,95,83,-53,-36,88,-40,-57,-49,-54,-46,-45
10,94,84,-52,-37,89,-40,-56,-48,-54,-46,-45
9,93,84,-51,-38,89,-39,-55,-48,-53,-45,-44
8,92,84,-51,-38,88,-39,-54,-47,-53,-45,-44
7,92,84,-50,-39,88,-38,-54,-47,-53,-45,-44
6,90,84,-48,-40,87,-38,-54,-47,-53,-45,-44
6,88,83,-47,-39,85,-39,-54,-48,-53,-46,-44
4,87,83,-46,-40,84,-38,-54,-48,-53,-46,-44
3,86,83,-45,-40,84,-37,-53,-47,-52,-45,-43
2,85,84,-43,-41,84,-36,-52,-46,-51,-44,-42
0,84,84,-41,-42,84,-36,-53,-46,-51,-44,-43
-2,82,84,-40,-43,83,-36,-53,-46,-52,-44,-43
-3,81,84,-39,-44,83,-36,-53,-46,-52,-44,-43
-2,81,83,-39,-43,82,-36,-53,-46,-52,-44,-43
0,81,82,-39,-42,82,-36,-54,-46,-52,-44,-43
-1,80,82,-39,-42,81,-36,-54,-46,-52,-44,-43
-2,78,81,-38,-42,80,-36,-54,-47,-52,-44,-43
-3,77,80,-37,-42,79,-36,-54,-47,-52,-44,-42
-4,76,80,-36,-43,78,-35,-53,-46,-52,-44,-42
-5,75,80,-35,-43,78,-35,-53,-45,-51,-43,-41
-6,73,79,-34,-43,77,-35,-53,-45,-51,-43,-40
-6,72,79,-33,-43,76,-35,-53,-45,-51,-43,-40
-6,71,78,-32,-43,75,-35,-54,-45,-51,-43,-40
-6,70,77,-32,-42,73,-35,-54,-45,-51,-43,-41
-6,70,76,-32,-41,72,-35,-53,-45,-51,-42,-40
-5,70,76,-32,-41,73,-33,-51,-43,-49,-40,-39
-6,71,77,-32,-42,73,-32,-50,-42,-48,-39,-38
-9,69,78,-30,-44,73,-30,-49,-41,-48,-38,-38
-11,67,79,-28,-45,73,-28,-48,-39,-47,-37,-37
-12,67,79,-27,-46,73,-26,-47,-36,-46,-35,-36
-13,67,80,-27,-46,74,-25,-45,-34,-45,-34,-35
-14,66,81,-26,-47,73,-23,-42,-32,-42,-32,-33
-16,65,81,-25,-48,73,-21,-38,-28,-38,-29,-31
-14,65,79,-26,-46,72,-20,-32,-24,-33,-26,-27
-9,65,75,-28,-42,70,-20,-25,-19,-27,-22,-23
-4,65,70,-31,-37,68,-22,-18,-15,-19,-18,-18
1,64,64,-33,-31,65,-25,-13,-12,-12,-15,-14
9,64,55,-37,-23,60,-30,-12,-12,-7,-12,-11
20,66,46,-43,-13,56,-36,-16,-14,-3,-10,-6
32,68,37,-50,-2,52,-44,-26,-19,-2,-8,-1
42,69,27,-56,7,48,-54,-42,-28,-4,-8,4
50,69,19,-60,15,44,-63,-61,-38,-9,-9,7
57,69,12,-63,22,40,-71,-80,-51,-17,-12,8
64,69,6,-67,29,38,-78,-98,-63,-26,-17,8
72,69,-2,-71,37,34,-85,-115,-76,-36,-23,7
81,67,-13,-75,47,28,-93,-131,-92,-48,-31,4
90,63,-26,-77,58,19,-102,-148,-110,-64,-44,-2
96,58,-38,-77,67,10,-110,-167,-129,-84,-58,-11
99,53,-47,-76,73,3,-115,-186,-146,-105,-72,-22
100,46,-54,-74,77,-4,-118,-200,-160,-124,-87,-37
100,36,-64,-69,82,-14,-119,-210,-174,-143,-104,-55
99,25,-74,-63,86,-24,-121,-217,-186,-159,-120,-74
98,15,-82,-57,89,-33,-123,-221,-194,-172,-134,-89
96,6,-88,-51,91,-40,-122,-219,-197,-180,-143,-100
93,0,-93,-46,92,-46,-119,-212,-196,-183,-149,-108
89,-8,-97,-41,93,-52,-114,-202,-193,-183,-152,-114
84,-16,-101,-34,92,-58,-107,-190,-187,-180,-154,-119
79,-22,-101,-29,90,-62,-99,-177,-179,-174,-152,-121
74,-24,-98,-25,86,-62,-91,-163,-168,-166,-147,-119
68,-25,-93,-22,80,-59,-83,-150,-157,-155,-140,-114
60,-25,-85,-18,72,-55,-75,-136,-144,-143,-130,-107
51,-23,-74,-14,62,-48,-67,-122,-130,-129,-119,-99
45,-19,-63,-13,53,-40,-59,-108,-115,-115,-106,-89
40,-13,-52,-13,46,-32,-52,-94,-100,-101,-93,-78
36,-6,-42,-15,39,-24,-45,-80,-85,-87,-80,-67
35,0,-35,-17,35,-18,-39,-68,-72,-75,-69,-59
33,2,-30,-17,32,-14,-34,-57,-61,-65,-60,-52
28,3,-24,-16,26,-10,-28,-46,-51,-55,-51,-46
22,4,-18,-13,20,-7,-22,-36,-42,-45,-43,-39
18,4,-14,-11,15,-5,-17,-28,-35,-38,-36,-34
15,4,-11,-10,13,-4,-14,-22,-29,-32,-32,-30
13,3,-10,-8,11,-3,-10,-16,-24,-28,-28,-27
12,3,-9,-7,10,-3,-7,-11,-20,-24,-24,-24
11,2,-8,-6,10,-3,-4,-7,-16,-20,-21,-21
10,1,-9,-5,10,-5,-2,-5,-13,-18,-19,-20
9,-1,-10,-4,10,-6,0,-2,-11,-15,-17,-19
7,-4,-10,-2,9,-7,2,1,-8,-12,-14,-17
6,-6,-11,0,8,-8,4,4,-5,-9,-12,-15
4,-8,-11,1,7,-9,6,6,-4,-7,-11,-13
3,-10,-12,3,7,-11,7,7,-2,-5,-9,-12
2,-13,-14,5,7,-13,9,9,0,-3,-7,-10
2,-14,-15,6,8,-15,10,11,2,-1,-5,-9
3,-15,-17,6,10,-17,12,13,4,0,-4,-7
4,-16,-20,7,12,-19,13,15,5,1,-2,-6
3,-19,-21,8,12,-20,14,17,7,3,-1,-5
1,-21,-22,9,11,-21,16,19,9,6,1,-3
2,-23,-24,10,12,-23,18,21,11,8,3,-1
2,-25,-27,11,14,-25,20,22,13,9,4,0
2,-28,-29,12,15,-28,21,23,14,10,6,2
1,-30,-31,14,16,-30,22,25,16,12,7,3
0,-32,-32,16,16,-32,24,27,18,14,9,5
0,-36,-35,18,17,-36,25,29,20,16,11,6
0,-40,-40,19,20,-40,26,32,21,19,13,7
2,-43,-45,20,24,-44,28,35,23,21,15,9
3,-46,-48,21,25,-47,30,37,26,24,17,12
2,-49,-50,22,26,-49,32,40,28,26,19,14
1,-51,-52,24,27,-52,33,41,29,28,21,16
1,-54,-56,26,29,-55,35,43,31,30,23,18
2,-58,-60,27,31,-59,37,45,34,32,25,20
2,-63,-65,30,33,-65,39,48,37,35,27,22
1,-69,-70,33,35,-71,42,51,40,38,30,24
0,-76,-75,37,37,-76,45,54,44,42,33,28
0,-82,-82,40,41,-83,48,57,46,45,36,30
2,-88,-90,42,45,-89,50,60,48,48,39,32
2,-93,-95,44,48,-94,52,64,50,50,41,35
1,-97,-99,47,50,-98,54,67,53,53,44,38
0,-101,-103,50,52,-102,55,69,55,55,46,40
1,-105,-106,52,54,-106,56,71,57,56,47,41
2,-108,-110,53,56,-109,57,72,58,57,49,42
3,-111,-114,54,58,-113,58,73,59,58,50,43
1,-116,-117,57,58,-116,58,74,60,59,50,44
0,-120,-120,59,59,-119,59,75,61,60,51,44
1,-122,-123,60,61,-122,60,76,62,62,52,46
1,-125,-127,62,63,-126,61,77,64,63,54,47
0,-130,-130,64,65,-130,62,79,66,65,56,49
1,-134,-135,67,67,-135,65,83,69,68,58,51
3,-140,-142,68,72,-141,68,86,72,71,62,54
5,-146,-151,71,77,-149,71,91,76,76,65,57
5,-154,-159,74,82,-157,75,95,80,80,69,61
6,-162,-167,78,86,-165,79,99,84,84,72,64
6,-168,-174,80,90,-170,81,102,87,87,75,67
6,-170,-176,82,91,-173,81,104,88,89,76,68
4,-171,-174,83,89,-172,81,104,89,89,76,68
0,-170,-169,85,84,-170,80,105,89,89,76,68
-1,-169,-167,85,82,-169,79,105,89,89,76,67
2,-168,-168,83,84,-168,78,104,89,88,76,66
4,-166,-168,81,85,-167,78,105,89,89,76,66
2,-164,-165,80,83,-164,78,106,90,90,76,67
1,-161,-161,80,80,-161,77,106,90,90,77,67
0,-159,-159,79,79,-159,76,106,90,90,76,67
1,-158,-158,78,80,-158,75,106,89,90,76,66
1,-156,-157,77,80,-157,75,107,89,90,76,66
1,-155,-156,77,79,-156,74,107,89,90,75,65
1,-154,-155,76,78,-155,74,107,90,90,75,65
3,-152,-155,75,79,-154,74,108,90,91,75,65
4,-151,-155,73,79,-153,74,109,91,92,76,66
4,-151,-154,73,79,-152,73,110,91,92,75,65
2,-149,-151,73,77,-149,71,110,91,92,74,63
2,-146,-147,72,75,-146,70,110,91,92,74,63
3,-142,-145,69,74,-143,70,110,92,92,75,64
4,-138,-142,68,73,-141,71,111,93,93,76,64
3,-136,-140,67,71,-139,71,111,93,93,76,64
2,-135,-137,66,70,-137,70,111,92,93,75,63
3,-132,-135,64,69,-134,68,111,91,92,74,62
3,-129,-133,62,68,-131,67,111,91,92,74,61
4,-126,-130,60,67,-128,66,111,90,92,73,60
4,-122,-126,59,66,-124,65,110,90,91,72,59
5,-118,-123,57,65,-121,63,109,89,90,71,58
4,-116,-120,56,63,-119,62,108,87,89,69,56
3,-114,-117,56,61,-116,61,107,86,88,68,55
3,-111,-114,54,59,-113,60,106,86,87,68,55
5,-107,-112,51,59,-110,59,106,85,87,68,55
7,-104,-110,48,58,-107,59,105,85,87,67,55
7,-101,-107,46,57,-104,58,105,85,87,67,55
7,-97,-105,45,56,-101,58,105,85,87,67,54
9,-94,-103,43,56,-98,57,105,85,87,66,54
9,-91,-100,41,54,-95,56,105,84,87,66,54
8,-89,-96,41,52,-93,55,104,84,86,66,54
8,-87,-95,40,51,-91,54,102,82,84,65,53
8,-86,-93,39,50,-90,52,100,81,83,64,52
7,-85,-91,38,48,-88,51,98,80,82,63,51
6,-82,-87,38,46,-85,50,96,79,81,63,51
6,-80,-85,37,45,-82,49,94,78,79,62,50
7,-76,-83,35,45,-79,48,91,76,77,61,49
8,-72,-80,33,44,-76,47,89,75,75,60,48
8,-69,-76,31,42,-73,46,87,74,74,59,48
8,-67,-74,30,41,-70,46,84,73,73,59,47
8,-65,-72,28,40,-68,44,81,72,71,58,47
9,-63,-71,26,40,-67,43,78,70,69,57,46
9,-61,-68,26,38,-65,42,76,68,67,56,46
7,-60,-65,26,36,-62,41,73,67,65,56,46
6,-57,-63,25,34,-60,40,70,65,63,55,45
8,-54,-62,23,35,-58,39,67,63,61,54,45
9,-53,-62,22,35,-57,37,64,60,59,52,44
10,-52,-62,21,36,-57,36,60,58,56,50,43
11,-51,-62,20,36,-57,34,57,55,54,49,42
10,-51,-60,20,35,-56,34,55,54,52,48,41
7,-51,-57,21,32,-54,33,52,52,50,47,41
6,-50,-55,21,31,-53,33,49,50,48,46,41
5,-49,-54,21,30,-52,32,46,48,46,45,40
5,-49,-53,22,29,-51,31,43,47,44,44,40
6,-48,-53,21,29,-51,30,40,45,42,42,39
7,-47,-55,20,31,-51,29,38,43,39,41,38
8,-46,-54,19,31,-50,28,36,41,38,40,38
8,-45,-52,19,29,-49,28,36,41,38,40,38
7,-45,-51,19,28,-48,28,35,40,37,39,38
6,-46,-51,19,29,-49,27,33,39,35,38,37
7,-46,-52,19,29,-49,27,30,38,34,37,36
7,-45,-52,18,30,-48,27,29,37,33,36,36
7,-45,-51,18,29,-47,27,28,36,32,36,35
5,-44,-49,19,27,-46,26,27,35,31,35,34
5,-43,-48,19,26,-45,26,25,33,30,33,33
5,-43,-47,19,26,-45,25,24,32,28,32,32
4,-44,-47,20,25,-45,24,23,31,27,32,32
2,-44,-46,21,24,-45,23,22,30,26,31,31
1,-45,-46,21,24,-45,23,20,29,25,30,30
0,-46,-45,22,23,-45,23,20,28,24,29,29
0,-45,-45,21,22,-45,23,19,28,24,29,29
2,-44,-45,20,23,-44,23,19,27,23,28,29
3,-44,-45,20,24,-44,23,18,26,22,28,28
4,-43,-45,19,24,-44,22,17,25,21,27,28
5,-42,-45,18,25,-44,22,17,25,21,26,27
4,-42,-44,18,24,-43,21,16,24,20,26,27
3,-42,-44,18,24,-43,21,15,24,20,25,26
3,-42,-44,18,24,-43,20,14,23,19,25,25
2,-41,-44,18,23,-42,19,12,22,18,24,25
2,-40,-42,18,22,-41,19,11,21,17,23,24
2,-39,-40,18,21,-40,19,12,20,17,23,24
2,-39,-39,18,21,-39,19,12,20,17,22,24
2,-39,-40,19,21,-39,18,12,19,16,22,23
3,-38,-41,17,22,-39,17,11,19,15,21,22
4,-36,-40,16,22,-38,17,11,19,15,21,22
2,-35,-37,16,20,-36,17,11,19,15,21,22
1,-34,-35,16,18,-35,17,11,18,14,20,21
0,-33,-33,16,17,-34,16,10,18,14,20,21
0,-32,-32,15,16,-32,16,9,17,13,19,20
1,-31,-31,15,16,-31,16,9,17,13,19,20
1,-30,-30,14,16,-30,16,9,17,13,19,20
1,-29,-29,14,15,-29,16,10,17,13,19,19
1,-28,-28,13,14,-28,16,10,17,13,19,19
1,-26,-27,12,14,-27,15,10,17,13,19,19
1,-24,-25,10,13,-25,15,10,18,13,19,20
0,-21,-22,10,11,-22,16,11,18,13,20,21
0,-20,-19,10,9,-20,15,11,18,13,21,21
1,-19,-19,9,9,-19,14,11,18,13,20,20
3,-18,-20,7,11,-19,13,10,17,12,20,19
4,-17,-21,6,12,-19,13,10,17,12,20,19
5,-16,-20,5,13,-18,13,10,17,13,20,19
4,-15,-18,5,11,-16,14,11,18,14,20,19
3,-13,-15,4,9,-13,14,13,19,15,21,20
2,-11,-12,4,7,-12,14,14,20,16,21,20
2,-10,-11,4,6,-11,13,15,20,15,20,20
2,-10,-11,4,6,-11,12,15,20,15,19,19
2,-9,-10,4,6,-10,12,15,20,15,19,19
1,-8,-9,3,5,-8,11,15,20,15,19,19
1,-6,-7,3,4,-6,11,15,20,15,19,19
2,-5,-6,1,4,-5,10,14,19,14,19,19
3,-3,-6,0,5,-4,8,12,18,13,18,18
4,-2,-5,-1,5,-3,6,10,17,12,18,18
4,-1,-4,-1,4,-3,4,8,16,11,17,17
3,0,-2,-1,2,-2,3,6,16,11,18,17
3,0,-1,-1,2,-1,2,5,15,11,18,18
2,0,-1,-1,1,-1,1,5,15,10,17,18
0,0,0,0,0,0,1,5,14,10,17,18
0,0,0,0,0,0,0,4,13,9,16,17
1,0,0,-1,1,0,0,3,12,8,15,16
1,0,0,-1,1,0,-1,2,11,7,14,15
1,1,1,-1,0,1,-1,2,10,7,13,15
1,1,2,-1,0,1,0,1,10,6,13,15
2,2,1,-2,0,1,0,0,9,5,12,14
3,2,1,-2,1,1,0,0,8,4,12,14
2,1,0,-2,1,1,1,0,7,4,11,13
1,0,0,-1,0,1,1,0,6,3,11,13
0,0,0,-1,0,0,2,0,6,3,10,12
0,0,1,0,0,0,2,-1,5,2,9,11
-2,0,3,1,-2,1,3,-1,5,2,9,10
-4,-1,4,2,-4,1,4,0,5,2,8,10
-5,-2,4,3,-5,0,4,0,5,1,7,9
-6,-3,4,5,-5,0,5,-1,4,0,6,8
-7,-4,4,5,-5,0,5,-1,4,-1,6,7
-6,-5,3,5,-4,-1,6,-2,3,-1,5,7
-7,-5,2,6,-4,-1,6,-2,3,-2,5,6
-7,-5,2,6,-5,-1,7,-2,2,-2,5,6
-6,-5,1,6,-4,-2,6,-3,1,-3,4,5
-5,-6,-1,5,-2,-3,6,-4,1,-4,3,4
-5,-6,-1,6,-2,-4,6,-4,1,-4,3,5
-5,-7,-1,6,-2,-4,6,-4,1,-4,3,5
-6,-8,-1,6,-2,-5,6,-4,1,-4,3,5
-7,-9,-1,7,-3,-5,6,-4,1,-5,3,5
-7,-8,0,7,-3,-4,6,-5,1,-5,3,5
-8,-8,1,8,-4,-3,7,-5,1,-4,4,6
-8,-8,2,8,-5,-3,7,-5,1,-4,5,6
-8,-8,1,8,-4,-3,7,-6,0,-5,4,6
-6,-8,0,8,-3,-4,7,-7,0,-6,3,6
-6,-8,-1,8,-3,-5,7,-7,0,-6,3,5
-6,-8,-1,8,-3,-5,7,-5,0,-6,3,5
-6,-8,-1,7,-2,-5,7,-4,0,-6,3,5
-6,-8,-1,7,-3,-5,7,-4,1,-5,3,5
-9,-9,1,9,-5,-4,8,-4,1,-5,3,5
-12,-9,2,11,-7,-3,8,-4,1,-5,3,5
-12,-10,2,11,-7,-4,7,-5,0,-6,2,4
-12,-10,1,11,-6,-4,7,-5,0,-6,2,4
-13,-11,2,12,-7,-4,7,-5,0,-6,2,5
-13,-11,3,12,-8,-4,7,-5,0,-6,2,5
-12,-11,2,11,-7,-4,7,-5,0,-7,2,4
-11,-11,1,11,-6,-5,7,-6,-1,-7,2,4
-9,-10,0,9,-5,-5,7,-6,-1,-7,2,4
-8,-9,0,8,-4,-4,7,-6,0,-6,2,5
-8,-8,0,8,-4,-4,7,-6,0,-6,2,5
-10,-9,1,9,-5,-4,7,-6,0,-6,3,6
-11,-9,2,10,-6,-4,8,-6,0,-6,3,6
-12,-9,2,11,-7,-4,8,-6,0,-6,3,6
-12,-10,2,11,-7,-5,8,-7,0,-6,3,6
-12,-10,2,11,-7,-5,8,-7,0,-6,3,6
-13,-11,3,11,-8,-4,9,-6,1,-5,4,7
-14,-10,5,12,-10,-3,11,-3,4,-3,6,8
-16,-9,7,13,-12,-1,13,-1,6,-1,8,9
-17,-8,10,13,-13,1,15,1,9,0,10,10
-18,-6,11,12,-15,2,17,3,11,2,12,11
-18,-6,12,12,-15,3,18,7,14,5,14,13
-18,-6,12,12,-15,3,19,13,18,10,17,16
-17,-5,12,11,-15,3,19,19,22,15,21,19
-14,-4,11,9,-13,3,19,26,26,21,25,23
-10,-4,7,7,-8,1,17,31,29,27,27,26
-4,-5,0,4,-2,-2,13,33,29,31,28,28
5,-5,-9,0,7,-7,6,31,27,34,28,31
16,-3,-18,-6,17,-11,-1,24,22,35,28,34
26,-1,-27,-13,27,-14,-11,11,15,34,28,38
35,0,-34,-18,35,-17,-20,-6,6,30,27,40
42,2,-40,-22,41,-19,-29,-26,-4,22,23,41
48,2,-46,-25,47,-22,-37,-45,-17,13,18,39
55,2,-52,-29,53,-24,-45,-63,-30,2,11,37
63,2,-60,-33,61,-29,-54,-82,-45,-11,3,34
71,0,-70,-36,70,-35,-64,-102,-65,-28,-9,28
76,-4,-79,-36,77,-41,-73,-122,-85,-47,-23,19
77,-8,-85,-35,81,-47,-79,-142,-103,-67,-36,9
76,-13,-89,-32,83,-51,-82,-160,-118,-86,-49,-3
72,-21,-93,-26,83,-57,-83,-174,-132,-106,-65,-20
68,-30,-98,-19,83,-64,-84,-185,-146,-124,-82,-38
66,-39,-105,-14,86,-72,-87,-193,-158,-140,-98,-54
65,-47,-111,-9,88,-79,-89,-198,-165,-152,-110,-67
62,-53,-116,-4,88,-85,-89,-197,-168,-158,-117,-76
59,-59,-118,0,88,-89,-86,-188,-167,-158,-121,-82
56,-64,-120,4,87,-92,-80,-175,-162,-155,-123,-87
53,-69,-122,8,87,-95,-73,-160,-155,-150,-123,-90
48,-72,-120,12,84,-96,-66,-146,-146,-142,-121,-90
42,-74,-116,15,79,-95,-59,-132,-136,-133,-115,-88
37,-73,-110,18,73,-91,-52,-119,-124,-121,-107,-82
29,-70,-99,20,64,-84,-44,-105,-110,-108,-96,-74
20,-66,-86,23,53,-76,-37,-90,-95,-95,-84,-65
13,-60,-73,23,43,-66,-30,-75,-81,-81,-72,-55
10,-52,-61,20,36,-57,-23,-61,-66,-67,-59,-45
9,-43,-52,17,30,-48,-18,-48,-53,-55,-48,-36
6,-37,-43,15,25,-40,-13,-37,-42,-44,-38,-29
3,-32,-35,14,19,-34,-7,-27,-32,-34,-29,-22
0,-30,-29,14,14,-29,-2,-18,-24,-25,-22,-17
-2,-28,-24,14,10,-26,1,-10,-17,-19,-17,-13
-6,-27,-20,15,6,-23,4,-4,-11,-14,-13,-11
-8,-26,-16,17,3,-21,8,0,-7,-10,-10,-9
-11,-25,-13,18,1,-19,10,5,-3,-6,-7,-7
-12,-24,-11,18,0,-18,13,8,0,-3,-5,-6
-13,-24,-10,18,-1,-17,14,12,2,-1,-3,-4
-13,-24,-10,18,-1,-17,15,14,4,0,-1,-3
-13,-24,-10,18,-1,-17,16,15,5,1,0,-2
-13,-24,-10,19,-1,-17,17,17,6,3,0,-1
-15,-25,-9,20,-3,-17,18,18,8,4,1,0
-17,-25,-7,21,-5,-16,19,19,9,5,2,1
-18,-24,-5,21,-6,-15,20,20,10,6,3,2
-18,-23,-5,20,-6,-14,21,21,12,7,5,3
-18,-23,-5,20,-6,-14,22,23,13,8,6,4
-17,-22,-5,20,-6,-13,22,25,14,10,7,5
-17,-22,-5,20,-6,-14,22,26,15,12,8,5
-17,-23,-5,20,-6,-14,22,26,15,12,8,5
-18,-24,-5,20,-7,-14,22,27,15,13,8,5
-19,-23,-4,21,-8,-13,23,27,15,13,9,5
