leadI,leadII,leadIII,leadaVR,leadaVL,leadaVF,leadV1,leadV2,leadV3,leadV4,leadV5,leadV6
2,5,3,-3,-1,4,-1,0,1,2,4,1
4,12,7,-8,-2,10,-3,2,2,6,11,3
6,14,7,-10,-1,11,-3,3,3,9,16,5
7,14,6,-11,0,10,-3,3,4,11,18,7
8,14,4,-11,1,9,-2,3,4,12,20,9
9,15,5,-12,1,10,-2,3,3,11,21,9
10,17,7,-13,1,12,-3,1,1,10,21,7
10,19,9,-14,0,14,-4,0,0,8,22,5
10,20,11,-15,0,15,-5,-1,-2,7,22,4
9,19,10,-14,0,15,-5,-1,-3,6,22,3
9,16,8,-13,0,12,-4,-1,-3,6,22,3
8,13,5,-11,1,9,-3,-1,-2,7,22,4
8,11,3,-10,2,7,-2,-1,-2,7,22,4
8,11,2,-10,2,7,-1,-1,-2,6,22,4
8,13,3,-11,2,8,-1,-2,-3,5,22,2
8,14,5,-11,2,10,-2,-3,-5,4,22,0
8,15,6,-12,1,11,-2,-3,-6,2,23,-1
8,15,6,-12,1,11,-2,-4,-6,2,23,-3
8,13,5,-11,1,10,-2,-4,-6,2,23,-3
8,10,3,-10,1,7,-1,-3,-6,2,23,-3
8,8,0,-9,2,5,0,-3,-5,3,23,-2
8,7,0,-8,3,4,1,-3,-4,4,23,-3
8,8,0,-9,3,4,1,-3,-4,3,23,-4
8,10,2,-9,2,6,1,-3,-5,2,23,-5
7,12,3,-9,2,7,1,-3,-6,2,23,-7
7,12,4,-9,2,8,1,-3,-6,2,23,-8
7,11,3,-9,2,7,0,-3,-6,1,24,-8
7,9,1,-8,2,5,0,-3,-6,1,24,-8
7,7,-1,-7,3,3,1,-3,-6,1,24,-8
7,6,-2,-7,3,2,1,-3,-6,2,24,-8
7,6,-1,-7,3,3,1,-3,-6,2,24,-8
7,8,0,-8,3,4,1,-3,-6,1,24,-9
7,9,1,-8,3,5,1,-3,-7,1,24,-10
7,9,1,-8,3,6,1,-3,-7,0,24,-11
7,9,1,-8,3,5,1,-3,-7,0,24,-11
7,7,0,-7,3,4,1,-2,-7,1,24,-11
7,5,-2,-7,3,2,2,-2,-7,1,24,-10
7,4,-3,-6,3,1,2,-2,-7,1,25,-10
7,3,-4,-6,4,0,2,-2,-6,2,25,-9
7,4,-3,-6,4,1,2,-2,-6,2,25,-7
6,5,-2,-6,3,2,2,-1,-6,2,25,-2
6,6,-1,-6,3,3,2,-1,-6,2,25,2
6,6,0,-6,3,3,2,-1,-6,2,25,6
6,5,-1,-6,4,2,2,-1,-6,2,25,10
7,4,-3,-6,4,0,2,-1,-6,2,25,14
7,3,-5,-6,5,0,2,-1,-6,2,25,17
7,2,-5,-6,5,-1,2,-1,-6,2,25,19
7,3,-5,-6,5,0,2,-1,-6,2,25,21
7,3,-4,-6,5,0,2,-1,-7,1,26,23
8,3,-4,-6,6,0,2,-1,-7,1,26,24
8,4,-4,-6,6,0,2,0,-7,0,26,25
7,4,-3,-5,5,0,3,0,-7,0,26,27
6,3,-4,-5,5,0,3,0,-7,0,26,28
5,2,-4,-4,4,0,3,0,-7,0,26,30
5,1,-5,-4,4,-1,4,0,-7,1,26,31
6,1,-5,-4,4,-1,4,0,-7,1,26,32
6,2,-4,-4,4,-1,4,0,-7,1,26,32
6,2,-4,-4,4,-1,4,0,-7,1,26,33
6,2,-4,-4,4,-1,4,0,-7,1,27,33
6,2,-4,-4,4,-1,4,0,-7,2,27,33
6,1,-5,-4,4,-1,4,0,-6,2,27,34
5,1,-5,-3,4,-2,4,1,-6,2,27,35
5,0,-5,-3,4,-2,4,1,-5,2,27,36
5,0,-5,-3,4,-2,5,1,-5,2,27,36
5,0,-5,-3,4,-2,5,1,-5,2,27,36
5,0,-5,-3,5,-2,4,1,-5,2,27,36
6,0,-6,-3,5,-2,4,1,-5,2,28,36
6,0,-6,-3,5,-2,4,1,-5,2,28,36
6,0,-7,-3,5,-2,4,1,-5,2,28,37
6,0,-7,-3,5,-3,4,1,-5,2,28,37
5,-1,-7,-2,5,-3,4,1,-5,2,45,38
4,-2,-7,-2,5,-3,4,1,-5,2,10,38
4,-2,-7,-1,5,-3,4,1,-5,2,-121,39
5,-1,-7,-2,5,-3,4,1,-5,2,156,39
6,-1,-7,-2,5,-3,4,1,-5,2,134,39
6,-1,-7,-2,5,-3,4,1,-5,2,36,39
6,-1,-7,-2,5,-3,4,1,-5,2,183,39
6,-1,-7,-2,6,-3,4,1,-5,2,-210,39
6,-1,-7,-2,6,-3,4,1,-5,1,33,40
6,-1,-8,-2,6,-4,4,1,-5,1,681,40
6,-2,-8,-2,6,-4,5,1,-5,1,777,40
5,-2,-8,-2,6,-4,5,1,-5,1,581,41
5,-2,-8,-1,6,-4,5,1,-5,1,242,42
5,-2,-8,-1,6,-4,5,1,-5,1,-156,42
4,-3,-8,0,6,-5,5,1,-5,1,-545,43
3,-5,-9,1,6,-7,5,2,-4,1,-962,43
4,-5,-9,0,5,-6,5,2,-4,0,-894,42
4,-4,-8,0,5,-6,6,2,-4,0,-474,41
3,-5,-8,1,5,-6,6,2,-4,0,26,42
3,-5,-8,1,5,-6,7,2,-4,0,730,42
3,-6,-9,1,5,-7,7,2,-4,0,1180,43
3,-6,-9,2,5,-7,7,2,-4,0,1346,43
2,-6,-9,2,5,-7,7,2,-4,0,1410,44
2,-6,-8,2,4,-7,7,2,-4,0,1088,45
2,-7,-9,2,5,-7,7,2,-3,0,864,46
3,-7,-10,2,5,-8,7,2,-3,0,1056,46
3,-7,-11,2,6,-8,7,2,-3,0,1278,46
2,-8,-11,2,6,-8,8,2,-3,0,739,47
2,-8,-11,3,6,-8,8,2,-3,0,-314,47
1,-8,-10,3,5,-8,8,2,-3,0,-844,47
1,-8,-10,3,5,-8,8,2,-3,0,-1074,48
1,-8,-10,3,5,-9,8,1,-3,0,-1138,48
1,-9,-11,4,6,-10,8,1,-3,0,-1112,48
1,-9,-11,4,6,-10,8,1,-3,-1,-1040,49
1,-10,-11,4,6,-10,8,1,-3,-1,-949,49
1,-10,-12,4,6,-10,8,1,-3,-2,-850,49
1,-11,-12,4,6,-10,8,1,-4,-2,-754,49
1,-11,-12,5,6,-10,8,1,-4,-2,-664,49
0,-11,-12,5,6,-10,8,1,-4,-2,-581,49
0,-11,-12,5,6,-10,8,1,-4,-2,-507,49
0,-11,-13,5,6,-11,8,1,-4,-2,-441,48
0,-12,-13,5,6,-12,8,0,-4,-3,-383,48
0,-12,-13,6,6,-12,8,0,-4,-3,-332,48
0,-12,-13,6,6,-12,8,0,-4,-3,-287,48
0,-13,-13,6,6,-12,8,0,-4,-3,-246,48
0,-13,-13,7,6,-13,8,0,-4,-3,-211,48
0,-13,-14,7,6,-13,8,0,-4,-4,-179,47
0,-13,-14,7,6,-13,8,0,-4,-4,-152,47
0,-13,-14,7,6,-13,8,0,-4,-4,-129,46
0,-14,-14,7,6,-13,8,0,-4,-4,-109,46
-1,-14,-14,7,6,-14,8,0,-4,-5,-92,45
0,-14,-14,7,7,-14,8,0,-4,-5,-76,43
0,-15,-15,7,7,-14,8,0,-4,-5,-62,42
0,-15,-16,7,8,-14,8,0,-4,-5,-49,41
0,-15,-16,7,8,-14,8,0,-4,-6,-38,40
0,-15,-16,7,7,-14,8,0,-4,-6,-28,40
-1,-15,-15,8,6,-14,8,0,-4,-6,-20,39
-1,-16,-15,8,6,-15,8,-1,-4,-6,-14,39
-1,-16,-15,8,6,-15,8,-1,-4,-7,-8,38
-1,-16,-15,8,6,-15,8,-1,-4,-7,-3,38
-1,-16,-15,8,7,-15,8,-1,-4,-7,-11,37
-1,-16,-15,8,7,-15,8,-1,-4,-7,21,36
0,-16,-16,8,7,-15,8,-1,-4,-7,127,36
0,-16,-16,8,7,-15,8,-1,-4,-7,111,35
0,-17,-16,9,7,-16,8,-1,-4,-7,-8,34
0,-17,-17,9,7,-17,8,-1,-4,-8,191,34
-1,-18,-17,9,7,-17,8,-1,-4,-8,-28,33
-1,-18,-16,9,7,-17,8,-1,-4,-9,-620,33
-1,-18,-16,9,6,-17,8,-1,-4,-9,-703,33
-1,-18,-16,9,6,-17,8,-1,-4,-9,-512,33
-1,-18,-16,9,6,-16,8,-1,-4,-9,-190,33
-1,-18,-16,9,6,-16,8,-1,-4,-9,189,32
-1,-18,-16,9,6,-16,8,-1,-4,-9,589,32
-2,-18,-16,10,6,-16,8,-1,-4,-9,990,32
-2,-18,-16,10,6,-16,8,-1,-4,-9,539,32
-2,-18,-16,10,6,-16,8,-1,-4,-9,-442,32
-2,-18,-16,10,6,-16,8,-1,-4,-9,-928,31
-2,-18,-16,10,6,-16,8,-1,-4,-10,-1141,31
-2,-18,-16,10,6,-16,8,-1,-4,-10,-1208,31
-2,-18,-16,10,6,-16,8,-1,-4,-10,-1190,31
-2,-18,-16,10,6,-16,8,-1,-4,-10,-1119,31
-3,-19,-16,11,6,-16,8,-1,-4,-10,-1014,31
-3,-19,-16,11,6,-17,8,-1,-4,-11,-891,31
-3,-19,-16,11,6,-17,8,-1,-4,-11,-767,30
-3,-20,-16,11,6,-17,8,-1,-4,-11,-658,30
-4,-20,-16,11,6,-17,8,-1,-4,-11,-574,29
-5,-21,-16,12,5,-17,9,-1,-4,-12,-513,29
-5,-21,-16,12,5,-17,9,-1,-4,-12,-467,28
-5,-21,-16,12,5,-18,9,-1,-4,-12,-422,28
-5,-21,-16,12,5,-18,8,-1,-4,-12,-370,27
-4,-21,-16,12,5,-18,8,-1,-4,-12,-308,26
-4,-21,-16,12,5,-18,8,-1,-4,-12,-243,25
-4,-21,-16,12,5,-18,8,-1,-3,-12,-188,24
-5,-21,-16,12,5,-18,8,-1,-3,-12,-152,24
-5,-21,-16,13,5,-18,8,-1,-3,-12,-136,24
-5,-21,-17,13,5,-18,8,-1,-3,-12,-133,24
-5,-22,-17,13,6,-18,8,-1,-3,-12,-131,23
-5,-22,-17,13,6,-18,9,-1,-3,-12,-119,22
-5,-22,-17,13,5,-18,9,-1,-3,-12,-94,21
-6,-22,-17,13,5,-18,9,-1,-3,-12,-58,20
-6,-23,-16,14,5,-18,9,-1,-3,-12,-24,20
-6,-23,-16,14,4,-18,9,-1,-3,-12,-4,19
-7,-23,-16,15,4,-18,9,-1,-3,-12,-2,19
-7,-24,-16,15,4,-19,9,-1,-3,-12,-13,18
-7,-24,-17,15,4,-19,9,-1,-3,-12,-27,18
-7,-24,-17,15,4,-19,9,-1,-3,-12,-32,17
-7,-24,-17,15,4,-19,9,-1,-3,-12,-22,17
-7,-24,-17,15,4,-19,9,-1,-3,-12,1,17
-7,-24,-17,15,4,-19,8,-1,-3,-13,27,16
-7,-24,-17,15,4,-19,8,-1,-3,-13,43,16
-6,-24,-17,15,5,-19,8,-1,-3,-13,44,15
-6,-24,-17,15,5,-19,8,-1,-3,-13,30,15
-7,-24,-17,15,4,-19,8,-1,-3,-13,10,15
-7,-24,-17,15,4,-19,8,-1,-3,-13,-2,15
-7,-25,-17,16,4,-19,8,-1,-3,-14,-2,14
-7,-25,-17,16,4,-20,8,-1,-3,-14,13,14
-7,-25,-17,16,4,-20,8,-1,-3,-14,37,14
-7,-25,-17,16,4,-20,8,-1,-3,-14,55,14
-8,-25,-17,17,4,-20,8,-1,-3,-14,59,14
-8,-25,-17,17,4,-20,8,-1,-3,-14,48,14
-9,-25,-17,17,4,-20,8,-1,-3,-14,27,14
-9,-25,-17,16,4,-20,7,-1,-3,-14,9,14
-9,-25,-17,16,4,-20,7,-1,-2,-14,3,14
-9,-25,-16,17,3,-19,7,0,-2,-14,13,14
-10,-25,-15,17,3,-19,7,0,-2,-14,34,14
-9,-25,-16,17,3,-19,7,-1,-2,-15,53,14
-9,-25,-16,17,4,-20,7,-1,-2,-15,61,14
-9,-25,-16,17,3,-20,7,-1,-2,-16,54,15
-10,-25,-16,18,3,-20,7,-1,-2,-16,35,15
-9,-26,-17,18,3,-20,7,-1,-2,-16,14,15
-9,-26,-17,18,4,-20,7,-1,-2,-16,4,14
-9,-27,-17,18,4,-20,7,-1,-2,-16,8,14
-9,-27,-17,18,4,-20,8,-1,-2,-16,26,14
-9,-27,-18,18,4,-21,8,-1,-2,-16,46,14
-9,-27,-18,18,4,-21,8,-1,-2,-16,58,14
-9,-26,-18,18,4,-21,8,-1,-2,-16,56,14
-9,-26,-18,18,4,-21,8,-1,-2,-16,40,14
-9,-26,-18,18,5,-21,8,-1,-2,-16,19,14
-9,-26,-18,18,5,-21,8,-1,-2,-16,5,14
-9,-26,-18,18,5,-21,7,-1,-2,-16,4,14
-9,-26,-18,18,5,-21,7,-1,-2,-16,18,14
-9,-26,-18,18,5,-21,7,-1,-2,-16,39,13
-9,-26,-17,18,4,-21,7,-1,-2,-16,54,13
-10,-26,-17,18,4,-20,7,-1,-2,-16,56,12
-10,-26,-16,18,3,-20,7,-1,-2,-16,44,12
-11,-26,-16,19,3,-20,7,-1,-2,-16,23,12
-11,-26,-16,19,2,-20,7,0,-2,-16,6,12
-11,-26,-16,18,3,-20,7,0,-2,-16,0,12
-10,-26,-16,18,3,-20,7,-1,-2,-16,9,11
-10,-26,-16,18,3,-20,7,-1,-2,-16,29,11
-10,-26,-16,18,3,-20,8,-1,-2,-16,47,11
-11,-26,-16,18,3,-20,8,0,-2,-16,54,11
-11,-26,-17,18,3,-20,8,0,-2,-16,47,11
-10,-26,-17,18,4,-21,8,0,-2,-16,29,11
-10,-26,-18,18,4,-21,8,0,-2,-16,10,11
-10,-26,-18,18,4,-21,8,0,-2,-16,0,11
-10,-27,-18,18,4,-21,8,0,-2,-16,4,11
-10,-27,-18,18,4,-21,8,0,-2,-16,22,12
-10,-27,-18,18,4,-21,8,0,-2,-16,42,12
-10,-27,-18,18,4,-22,7,-1,-2,-16,53,12
-10,-27,-18,18,4,-22,7,-1,-2,-16,51,12
-10,-27,-18,18,4,-22,7,-1,-2,-16,35,12
-10,-27,-18,19,4,-22,7,-1,-2,-16,16,13
-10,-27,-18,19,4,-22,8,-1,-2,-16,3,13
-10,-27,-18,19,4,-22,8,-1,-2,-15,3,13
-10,-27,-18,19,4,-22,8,-1,-1,-15,17,13
-11,-27,-18,19,4,-22,8,-1,-1,-15,38,13
-11,-27,-18,19,4,-22,8,-1,-1,-15,52,13
-11,-27,-18,19,4,-22,8,-1,-1,-15,54,13
-11,-27,-18,19,4,-22,8,-1,-1,-15,42,13
-11,-27,-18,19,4,-22,8,-1,-1,-15,22,13
-11,-27,-17,19,4,-22,8,-1,-1,-15,6,13
-11,-27,-17,19,4,-22,8,-1,-1,-16,1,13
-11,-28,-17,19,4,-22,8,-1,-1,-16,10,13
-11,-28,-17,19,3,-22,8,0,-1,-15,29,13
-11,-27,-17,19,3,-21,8,0,0,-15,47,13
-10,-26,-17,18,3,-21,8,0,0,-14,54,13
-10,-26,-16,18,3,-20,9,0,0,-14,47,14
-11,-26,-16,18,2,-20,9,1,1,-13,29,14
-11,-25,-15,18,2,-20,10,1,1,-13,12,14
-12,-25,-14,18,1,-19,10,2,2,-12,3,14
-12,-25,-13,18,1,-19,11,2,2,-12,7,14
-12,-25,-13,18,1,-19,11,2,2,-12,24,14
-11,-25,-14,18,1,-19,11,2,2,-12,42,14
-11,-25,-14,18,2,-19,11,2,1,-13,51,13
-11,-25,-15,18,2,-19,11,1,1,-13,49,13
-11,-25,-15,18,2,-19,11,1,1,-13,34,13
-11,-25,-15,17,2,-19,11,1,1,-13,16,13
-11,-25,-15,17,2,-19,11,1,1,-12,4,13
-11,-25,-15,17,2,-19,11,1,1,-12,4,13
-11,-25,-15,17,2,-19,11,1,1,-12,17,13
-11,-25,-15,17,2,-19,11,1,2,-11,35,13
-11,-24,-14,17,2,-18,11,2,2,-11,48,13
-11,-24,-14,17,1,-18,11,2,2,-11,50,13
-10,-24,-13,17,1,-17,11,2,2,-10,39,13
-10,-23,-13,16,1,-17,11,2,2,-10,21,13
-10,-23,-13,16,1,-17,11,1,3,-9,7,13
-10,-22,-12,16,1,-17,11,1,3,-9,3,13
-10,-22,-12,16,1,-17,10,0,3,-9,12,13
-11,-22,-12,16,1,-17,9,0,2,-9,30,13
-11,-22,-12,17,1,-17,8,-1,2,-9,45,13
-11,-22,-12,17,1,-17,8,-2,1,-9,51,13
-10,-22,-13,17,1,-17,7,-2,1,-10,44,13
-10,-22,-13,17,2,-17,7,-2,1,-10,27,13
-10,-23,-13,17,2,-17,7,-2,1,-10,11,13
-10,-23,-14,17,2,-17,7,-2,1,-10,3,13
-10,-23,-14,16,2,-18,7,-2,0,-11,7,12
-10,-23,-15,16,2,-18,7,-3,0,-11,23,12
-9,-24,-16,16,3,-19,7,-3,0,-12,40,12
-9,-24,-16,16,4,-19,7,-3,0,-12,49,12
-9,-24,-17,16,4,-20,6,-3,0,-12,47,12
-8,-25,-17,16,4,-20,6,-4,-1,-12,32,12
-8,-25,-18,16,5,-21,6,-4,-1,-12,15,12
-8,-25,-18,16,5,-21,6,-3,-1,-12,4,12
-7,-26,-19,16,5,-21,6,-3,-1,-12,3,11
-7,-26,-20,16,6,-22,6,-3,-1,-13,16,11
-6,-27,-21,16,7,-23,6,-3,-1,-13,34,10
-7,-27,-21,16,7,-23,6,-3,-1,-13,46,10
-7,-27,-20,17,6,-23,6,-3,-1,-13,48,11
-8,-27,-19,17,5,-22,7,-2,-1,-13,38,11
-9,-27,-18,17,5,-22,7,-2,-1,-12,21,12
-9,-27,-18,18,4,-22,8,-1,-1,-12,8,12
-10,-28,-18,18,4,-22,8,-1,-1,-12,4,12
-10,-28,-19,19,4,-23,8,-1,-1,-12,13,12
-10,-29,-19,19,4,-23,9,-1,-1,-12,30,12
-11,-29,-19,19,4,-23,9,-1,-1,-12,43,11
-11,-30,-20,20,4,-24,10,0,-2,-12,47,10
-11,-31,-20,21,4,-25,10,0,-2,-13,40,9
-11,-32,-22,21,5,-26,10,-1,-3,-13,23,8
-10,-33,-23,21,6,-27,10,-1,-3,-14,8,7
-10,-33,-23,21,6,-27,10,-1,-4,-14,1,7
-10,-33,-23,22,6,-27,10,-1,-4,-14,5,7
-11,-33,-23,22,6,-28,10,-1,-4,-14,20,7
-11,-34,-24,22,7,-28,10,-1,-5,-14,35,7
-11,-34,-25,22,7,-29,10,-1,-5,-14,43,6
-11,-35,-25,22,8,-29,10,-1,-5,-14,41,6
-11,-35,-25,22,8,-29,10,-1,-5,-14,27,5
-11,-35,-25,23,8,-29,10,-1,-5,-14,11,5
-11,-35,-25,23,8,-29,10,-1,-5,-14,2,5
-11,-34,-25,22,8,-29,10,-1,-5,-14,2,5
-10,-34,-25,22,8,-29,10,-1,-5,-14,14,5
-10,-34,-24,22,7,-28,10,-1,-5,-13,32,5
-10,-34,-24,22,7,-28,10,0,-5,-13,45,4
-10,-33,-24,21,7,-28,10,0,-5,-12,52,4
-10,-33,-24,21,7,-28,10,0,-5,-12,46,3
-10,-33,-23,21,6,-27,11,0,-5,-11,32,3
-10,-33,-23,21,6,-28,11,0,-5,-11,19,3
-10,-34,-24,22,6,-28,11,0,-5,-11,13,3
-11,-34,-23,22,6,-28,11,0,-5,-11,18,3
-12,-34,-23,22,5,-28,12,0,-5,-11,33,3
-12,-34,-22,22,5,-28,12,0,-5,-11,46,3
-12,-34,-23,22,6,-28,12,0,-5,-11,54,2
-11,-33,-24,21,6,-28,12,0,-5,-11,52,2
-11,-33,-24,22,6,-28,12,0,-5,-10,40,1
-11,-34,-24,22,6,-28,12,0,-4,-10,27,1
-11,-34,-25,22,7,-28,12,0,-4,-10,19,1
-10,-34,-25,22,7,-29,12,0,-4,-10,20,1
-10,-34,-25,21,7,-29,12,0,-4,-10,33,1
-10,-34,-25,21,7,-29,12,0,-4,-9,48,1
-9,-34,-25,21,7,-29,12,0,-4,-9,59,1
-9,-34,-25,21,7,-29,12,0,-4,-9,61,1
-10,-34,-24,21,7,-28,12,0,-4,-8,52,1
-10,-34,-24,21,7,-28,12,0,-4,-8,39,1
-10,-34,-24,21,7,-29,12,1,-4,-8,29,1
-10,-34,-25,21,7,-29,12,1,-4,-8,26,1
-10,-34,-25,21,8,-29,11,1,-4,-8,36,1
-9,-34,-25,21,8,-29,11,2,-3,-7,52,2
-7,-33,-25,20,9,-29,11,3,0,-5,66,3
-6,-31,-25,18,9,-28,11,6,4,-1,74,5
-5,-29,-24,17,9,-26,10,10,9,4,73,8
-4,-28,-25,15,10,-25,10,14,15,10,65,12
-1,-26,-25,13,11,-25,9,18,22,16,60,16
1,-23,-25,10,13,-24,8,22,29,24,62,22
5,-20,-25,7,14,-22,7,27,38,35,77,30
9,-17,-26,3,17,-21,7,34,51,48,104,40
13,-14,-27,0,20,-20,6,42,65,62,130,51
19,-11,-30,-5,24,-19,5,50,79,77,153,63
24,-7,-32,-9,28,-19,2,54,89,90,166,76
29,-3,-33,-13,31,-17,-1,52,94,100,168,89
33,1,-32,-18,32,-14,-5,43,91,104,167,101
35,6,-29,-21,32,-11,-10,27,77,99,166,110
34,10,-25,-23,29,-7,-13,5,54,87,166,112
31,13,-18,-23,24,-1,-15,-17,28,70,169,108
25,17,-8,-22,16,5,-13,-34,5,51,167,97
18,19,2,-19,7,11,-9,-47,-15,31,155,79
9,18,9,-14,0,14,-4,-58,-36,10,131,57
0,13,13,-7,-7,14,1,-65,-56,-13,94,33
-8,6,14,0,-11,11,6,-71,-76,-38,54,8
-14,0,13,7,-14,8,9,-77,-96,-63,20,-13
-19,-6,12,13,-15,4,11,-83,-114,-85,-2,-29
-23,-12,9,18,-16,0,13,-89,-128,-102,-7,-40
-25,-20,5,22,-15,-6,13,-92,-137,-114,-3,-48
-27,-28,0,27,-13,-13,13,-93,-143,-123,-1,-55
-28,-36,-7,31,-11,-20,13,-92,-146,-129,-4,-62
-30,-42,-12,36,-10,-26,14,-89,-145,-132,-14,-66
-32,-48,-16,40,-8,-31,16,-84,-142,-132,-28,-69
-34,-54,-21,43,-7,-36,18,-78,-138,-130,-39,-71
-35,-58,-24,47,-6,-41,19,-73,-132,-127,-43,-72
-36,-62,-27,49,-5,-44,20,-68,-126,-122,-37,-72
-36,-65,-29,51,-3,-47,20,-63,-118,-117,-21,-71
-34,-66,-31,50,-2,-48,18,-59,-110,-110,-6,-69
-32,-65,-33,48,0,-49,16,-54,-102,-102,4,-65
-30,-64,-34,46,1,-48,13,-49,-93,-93,7,-60
-27,-62,-34,44,3,-47,11,-44,-83,-83,1,-54
-25,-59,-34,41,4,-46,9,-38,-73,-74,-1,-48
-23,-55,-33,39,5,-44,7,-32,-63,-65,3,-42
-20,-51,-32,36,6,-41,7,-25,-54,-56,14,-37
-18,-47,-30,33,6,-38,7,-19,-45,-47,33,-32
-16,-44,-29,30,6,-36,8,-14,-37,-40,50,-27
-14,-42,-28,28,6,-34,9,-9,-29,-33,58,-23
-13,-40,-26,26,6,-32,10,-4,-22,-26,57,-19
-13,-38,-25,25,6,-31,11,0,-16,-20,46,-16
-12,-36,-25,24,6,-30,12,5,-10,-15,34,-14
-11,-35,-25,23,7,-29,13,8,-5,-11,28,-11
-9,-33,-25,21,8,-29,13,10,-1,-7,29,-9
-8,-32,-25,20,9,-28,14,12,2,-3,39,-8
-6,-32,-25,19,10,-28,14,13,5,0,52,-6
-5,-31,-25,18,10,-28,14,14,7,1,58,-5
-5,-31,-26,17,10,-28,14,15,9,3,57,-4
-4,-31,-26,17,10,-28,14,16,10,5,46,-2
-4,-31,-26,17,10,-28,14,17,12,6,31,-2
-4,-31,-26,17,11,-28,14,18,13,7,21,-1
-4,-30,-26,17,11,-28,14,18,14,8,18,-1
-4,-30,-26,17,11,-28,14,19,15,9,25,0
-3,-29,-26,16,11,-28,14,20,16,10,38,1
-3,-29,-26,16,11,-27,14,21,17,11,46,1
-3,-29,-26,15,11,-27,14,21,18,12,47,2
-3,-29,-26,15,11,-27,14,21,18,12,40,2
-3,-28,-26,15,11,-27,14,22,19,13,25,2
-3,-28,-26,15,11,-26,14,22,19,13,14,2
-3,-28,-26,15,11,-26,14,23,20,13,10,3
-3,-28,-25,15,11,-26,14,23,21,14,14,3
-2,-27,-25,15,11,-26,14,23,22,14,27,3
-2,-27,-25,14,11,-26,14,23,22,15,37,3
-2,-27,-25,14,11,-26,14,23,22,15,41,3
-2,-27,-25,14,11,-25,14,23,23,15,37,3
-2,-27,-25,14,11,-25,14,24,23,15,24,4
-1,-27,-25,14,11,-25,14,24,24,16,12,4
-1,-27,-25,14,12,-25,14,24,24,16,7,4
-1,-27,-25,14,12,-25,14,24,25,17,8,4
-1,-26,-25,14,12,-25,14,25,26,17,19,4
-1,-26,-25,14,11,-24,14,25,26,18,31,4
-2,-26,-24,14,11,-24,14,25,26,18,37,4
-2,-26,-24,14,11,-24,14,25,27,18,37,4
-1,-26,-25,14,11,-25,14,25,27,18,27,4
0,-26,-25,13,12,-25,14,26,28,18,14,4
0,-25,-25,13,12,-24,14,26,28,19,7,4
0,-25,-25,13,12,-24,14,26,29,19,6,4
0,-25,-25,13,12,-24,14,26,29,20,13,4
0,-25,-25,13,12,-24,14,26,30,20,26,4
0,-24,-25,12,12,-24,14,27,30,21,34,5
0,-24,-24,12,11,-23,14,27,31,21,36,5
0,-24,-24,12,11,-23,14,28,31,22,29,5
0,-24,-24,12,11,-23,14,28,32,22,17,5
0,-24,-24,12,11,-23,14,29,33,23,8,5
0,-24,-23,12,11,-23,14,29,33,23,5,5
1,-23,-23,11,12,-23,14,29,34,24,10,5
1,-23,-23,11,12,-23,14,29,34,24,22,6
1,-22,-23,10,12,-23,14,30,35,25,32,6
1,-22,-23,10,12,-23,13,30,36,25,36,6
1,-22,-23,10,12,-22,13,31,37,26,34,6
2,-22,-23,10,12,-22,13,31,37,26,23,6
2,-21,-22,10,12,-21,13,32,38,27,13,6
2,-21,-22,9,12,-21,12,32,38,27,8,6
3,-20,-22,9,12,-21,12,33,39,28,10,6
3,-20,-22,9,12,-21,12,33,40,28,20,6
3,-19,-22,8,12,-20,12,33,41,29,32,7
3,-19,-22,8,12,-20,11,33,41,30,38,7
4,-19,-23,8,13,-20,11,34,42,30,38,7
4,-19,-23,8,13,-20,11,35,43,31,29,8
4,-19,-23,7,13,-20,11,36,44,32,19,8
4,-19,-23,7,13,-20,11,36,46,33,13,9
4,-18,-22,7,13,-19,11,37,47,35,13,9
4,-18,-22,7,13,-19,11,38,48,36,20,10
5,-18,-22,6,13,-19,11,38,49,36,32,10
5,-17,-22,6,13,-19,11,39,50,37,39,11
6,-16,-22,5,13,-18,10,39,51,38,41,11
6,-16,-22,5,13,-18,10,40,52,39,35,12
6,-15,-22,4,13,-18,10,41,53,40,24,12
6,-15,-22,4,13,-17,10,41,54,41,17,13
7,-15,-22,4,13,-17,10,42,56,43,14,13
7,-14,-21,4,13,-17,10,43,57,44,19,14
7,-14,-21,3,13,-17,10,44,59,46,30,15
8,-13,-21,3,13,-16,9,44,60,47,39,16
8,-12,-20,2,13,-16,9,45,61,48,43,17
9,-12,-20,2,14,-15,8,46,62,49,40,18
9,-11,-20,1,14,-15,8,46,63,50,29,19
9,-10,-20,0,14,-14,8,47,65,52,21,20
10,-9,-20,0,14,-14,8,48,66,53,17,21
10,-8,-19,0,14,-13,8,48,68,55,18,22
10,-8,-19,-1,14,-12,7,49,69,56,28,23
11,-7,-18,-2,14,-11,7,49,70,57,39,24
11,-6,-17,-3,14,-10,7,49,71,58,44,25
11,-5,-16,-3,13,-9,7,50,72,60,43,26
11,-4,-15,-4,13,-8,6,50,72,61,35,26
13,-3,-16,-5,14,-8,6,50,73,61,24,26
14,-2,-16,-6,15,-8,5,50,73,62,19,27
14,-1,-16,-6,15,-7,5,50,74,63,18,27
14,0,-15,-7,14,-7,4,50,75,64,25,28
14,0,-15,-7,14,-6,4,49,75,65,36,29
15,1,-14,-8,14,-5,3,49,76,65,42,29
15,2,-14,-9,14,-5,3,49,76,66,43,30
16,2,-14,-9,14,-4,2,48,76,66,36,30
16,2,-13,-9,14,-4,2,48,76,66,25,31
16,3,-13,-9,14,-4,2,48,76,66,19,31
16,3,-12,-10,14,-3,1,47,76,67,17,32
16,4,-12,-10,14,-3,1,47,76,67,21,32
16,4,-12,-10,14,-3,1,46,76,67,32,33
16,5,-11,-10,13,-2,0,46,76,68,39,33
16,6,-10,-10,12,-1,0,45,75,67,41,33
16,6,-10,-11,12,-1,0,44,74,67,37,33
16,7,-9,-11,12,0,-1,43,73,66,27,33
16,7,-9,-11,12,0,-1,42,71,65,18,34
16,7,-9,-11,12,0,-2,41,70,64,14,34
16,7,-8,-11,12,0,-2,40,69,63,16,34
16,7,-8,-11,12,0,-2,39,68,63,25,34
16,7,-8,-11,12,0,-3,37,67,62,33,34
15,7,-8,-11,11,0,-3,36,65,60,36,33
15,7,-8,-11,11,0,-3,35,63,59,35,33
15,7,-8,-11,11,0,-4,33,61,57,26,32
14,7,-7,-10,10,1,-4,32,59,56,16,32
14,7,-7,-10,10,1,-4,31,58,55,11,32
13,6,-7,-10,9,1,-4,30,56,53,9,31
13,6,-7,-9,9,0,-4,28,53,51,15,30
12,5,-7,-8,9,0,-4,27,51,49,23,29
11,5,-7,-8,8,0,-4,25,49,47,27,27
11,4,-7,-7,8,0,-4,24,46,44,27,26
10,3,-7,-6,8,-1,-4,22,43,42,20,25
9,2,-7,-5,8,-1,-4,21,41,40,10,24
8,2,-7,-5,7,-1,-3,20,39,39,4,23
8,1,-7,-4,7,-2,-3,19,37,37,2,22
7,0,-7,-4,7,-2,-3,18,35,35,5,21
7,-1,-7,-3,7,-3,-3,16,32,33,14,19
7,-2,-8,-2,7,-3,-2,15,30,31,20,18
6,-2,-8,-2,6,-4,-2,14,27,29,21,16
5,-3,-8,-1,6,-4,-1,13,25,27,18,15
4,-4,-8,0,6,-5,-1,12,23,25,9,14
3,-5,-9,1,6,-6,-1,11,21,23,2,13
2,-6,-9,2,6,-7,-1,10,19,22,-1,12
1,-7,-9,3,5,-7,-1,9,18,20,0,11
1,-8,-9,3,5,-8,0,8,16,19,8,10
0,-8,-9,4,4,-8,0,8,15,17,16,9
0,-9,-9,4,4,-8,0,7,13,16,19,7
0,-9,-9,5,4,-8,1,7,12,14,18,6
0,-10,-10,5,5,-9,1,6,10,13,10,5
0,-11,-10,6,5,-10,1,6,8,12,3,4
-1,-12,-11,7,5,-10,1,5,7,11,0,3
-1,-12,-11,7,4,-11,2,5,7,10,0,3
-2,-13,-10,8,4,-11,2,5,6,10,6,2
-2,-14,-10,9,3,-11,2,5,6,9,15,2
-2,-14,-11,9,4,-11,2,4,5,8,19,1
-2,-14,-12,9,4,-12,2,4,3,6,19,0
-2,-14,-12,9,5,-12,2,3,2,5,14,0
-2,-14,-12,9,5,-12,2,3,1,4,6,-1
-3,-14,-12,9,4,-12,2,3,1,4,2,-1
-3,-15,-11,9,4,-12,2,3,0,4,1,-1
-3,-15,-11,9,3,-12,2,2,0,4,5,-2
-3,-15,-11,9,3,-12,2,2,0,3,14,-2
-3,-15,-11,9,4,-12,2,2,0,3,20,-2
-3,-15,-12,9,4,-13,2,2,0,2,22,-3
-3,-15,-12,9,4,-13,2,2,-1,2,20,-3
-4,-15,-12,10,4,-13,2,2,-1,2,12,-3
-4,-15,-12,10,4,-13,2,2,-1,2,7,-4
-4,-16,-12,10,4,-13,2,2,-1,2,5,-4
-4,-16,-12,10,4,-13,2,2,-1,2,7,-4
-4,-16,-12,10,4,-13,2,2,-1,2,15,-4
-4,-16,-12,10,4,-13,2,2,-2,2,21,-4
-4,-16,-12,10,4,-13,3,2,-2,1,23,-5
-4,-16,-12,11,4,-13,3,2,-2,1,21,-5
-4,-16,-12,11,4,-13,3,2,-2,1,14,-5
-4,-16,-12,11,4,-14,3,2,-2,1,7,-5
-4,-16,-12,11,4,-14,3,2,-2,1,4,-5
-4,-16,-12,11,4,-14,3,2,-2,1,4,-5
-4,-16,-12,11,4,-14,3,2,-2,1,9,-5
-4,-16,-12,11,4,-14,3,2,-2,1,16,-5
-4,-16,-12,11,4,-14,3,2,-3,0,19,-6
-5,-16,-12,11,4,-14,3,2,-3,0,20,-7
-5,-16,-11,11,4,-14,3,2,-3,0,15,-7
-5,-16,-11,10,4,-13,3,2,-3,0,8,-7
-4,-16,-11,10,4,-13,3,2,-3,0,5,-7
-4,-16,-11,11,3,-13,3,2,-3,0,4,-7
-4,-16,-11,11,3,-13,3,2,-3,0,8,-7
-4,-16,-11,11,3,-13,3,2,-3,1,15,-7
-4,-15,-11,10,3,-13,3,2,-3,1,19,-7
-4,-15,-11,10,3,-13,3,2,-3,1,20,-7
-5,-15,-11,10,3,-13,3,2,-2,1,18,-7
-5,-15,-11,10,3,-13,3,3,-2,1,11,-6
-5,-15,-11,10,3,-13,3,3,-1,1,7,-6
-5,-15,-11,10,3,-13,3,3,-1,1,5,-6
-5,-15,-11,10,3,-13,3,4,-1,1,6,-6
-5,-16,-11,10,3,-13,3,4,-1,1,13,-6
-6,-16,-12,11,3,-14,3,4,-1,1,18,-6
-6,-17,-12,11,3,-14,2,4,-1,1,19,-6
-6,-17,-12,11,3,-14,2,4,-1,1,18,-7
-6,-17,-12,11,3,-14,2,4,-1,1,12,-7
-5,-17,-12,11,3,-14,2,4,-1,1,7,-7
-5,-16,-12,10,3,-14,2,4,0,2,6,-7
-5,-16,-12,10,3,-13,2,4,0,2,6,-6
-5,-16,-12,10,3,-13,2,4,0,2,11,-6
-5,-16,-13,10,4,-14,2,4,0,2,17,-6
-4,-16,-13,9,4,-14,2,5,0,2,19,-6
-5,-16,-13,10,4,-13,2,5,1,2,20,-6
-5,-16,-12,10,4,-13,2,5,1,3,16,-6
-5,-16,-12,10,4,-14,2,5,1,3,10,-6
-4,-16,-13,10,5,-14,1,5,0,2,8,-7
-3,-16,-14,9,6,-15,1,5,0,2,7,-7
-3,-16,-14,9,6,-15,2,6,0,3,10,-7
-3,-16,-14,9,6,-15,2,6,0,3,16,-6
-3,-16,-14,9,6,-15,2,6,0,3,19,-6
-3,-16,-14,9,6,-14,2,6,1,3,20,-6
-3,-16,-13,9,5,-14,2,6,1,3,18,-6
-4,-16,-12,9,4,-13,2,6,2,3,12,-5
-4,-15,-12,9,4,-13,2,6,2,4,10,-5
-3,-15,-13,9,5,-13,1,6,2,4,9,-5
-3,-15,-13,9,5,-13,1,6,2,4,10,-5
-3,-15,-13,9,5,-13,1,6,2,4,16,-5
-3,-14,-13,9,5,-13,1,6,2,4,20,-5
-3,-14,-13,8,5,-13,1,6,2,4,22,-5
-3,-14,-13,8,5,-13,1,6,2,4,21,-5
-3,-14,-13,8,5,-13,1,6,2,5,15,-5
-3,-15,-13,8,5,-13,1,6,2,5,12,-5
-3,-15,-13,9,5,-13,1,6,2,5,10,-5
-3,-15,-13,9,5,-13,1,6,2,5,10,-5
-3,-15,-13,9,5,-13,1,6,2,5,15,-5
-3,-15,-13,9,5,-13,1,6,2,5,19,-5
-3,-14,-12,9,5,-13,1,7,2,5,21,-5
-3,-14,-12,8,5,-12,1,7,2,5,22,-5
-3,-13,-12,8,4,-12,0,7,2,4,18,-5
-3,-13,-12,8,4,-12,0,6,2,4,13,-5
-3,-13,-12,8,4,-12,0,6,2,4,11,-5
-3,-13,-12,8,4,-12,0,6,2,4,10,-5
-3,-13,-12,8,4,-12,0,6,2,5,13,-5
-3,-13,-12,8,4,-12,0,6,2,5,19,-5
-3,-13,-12,8,4,-12,0,6,2,5,21,-5
-3,-13,-12,8,4,-12,0,6,2,5,22,-5
-3,-13,-11,8,4,-12,0,6,2,5,20,-5
-3,-14,-11,8,4,-12,0,6,2,5,16,-5
-3,-14,-11,8,4,-12,0,6,1,5,14,-5
-3,-14,-11,8,4,-12,0,6,1,5,13,-5
-3,-14,-11,8,4,-12,0,6,1,5,14,-5
-3,-14,-11,8,4,-12,0,6,1,5,19,-5
-3,-14,-11,8,4,-12,0,6,1,5,23,-5
-3,-14,-11,8,4,-12,0,6,1,4,27,-6
-3,-14,-11,8,4,-12,0,6,1,4,31,-6
-3,-14,-11,8,4,-12,0,6,1,3,30,-6
-3,-14,-12,8,4,-12,-1,5,0,3,28,-6
-3,-14,-12,8,4,-12,-1,5,0,3,26,-6
-3,-14,-12,8,4,-12,-1,5,0,3,22,-6
-3,-14,-12,8,4,-13,-1,5,0,3,23,-6
-4,-14,-12,8,4,-13,-1,5,0,3,25,-6
-4,-14,-11,8,4,-12,-1,5,0,3,27,-6
-4,-14,-11,8,4,-12,-1,5,0,3,30,-6
-3,-14,-11,7,4,-12,-1,5,-1,2,29,-6
-3,-14,-12,7,4,-12,-1,4,-1,2,27,-7
-3,-14,-12,8,4,-12,-1,4,-1,2,26,-6
-3,-14,-12,8,4,-12,-1,4,-2,2,23,-6
-3,-13,-12,7,5,-12,-1,4,-2,2,23,-6
-3,-13,-12,7,5,-12,-1,4,-2,1,25,-6
-3,-13,-11,8,4,-12,-1,4,-2,1,26,-6
-4,-14,-11,8,4,-12,-1,4,-2,1,29,-6
-4,-14,-11,8,4,-12,-1,4,-3,0,29,-6
-3,-14,-12,8,4,-12,-1,4,-3,0,27,-6
-3,-14,-12,8,4,-12,-1,4,-3,0,26,-6
-3,-14,-12,8,4,-12,-1,4,-4,0,24,-6
-3,-13,-12,8,4,-12,-1,4,-4,0,23,-6
-3,-13,-12,7,4,-12,-1,4,-4,0,24,-7
-3,-13,-12,7,5,-12,-2,4,-5,-1,25,-7
-3,-13,-12,7,5,-12,-2,4,-5,-1,27,-7
-3,-13,-11,7,4,-12,-2,4,-6,-1,29,-7
-3,-13,-11,7,4,-12,-2,4,-6,-1,28,-6
-3,-13,-11,7,4,-12,-2,4,-6,-1,27,-6
-3,-14,-11,7,4,-12,-2,4,-6,-1,26,-6
-3,-14,-11,7,4,-12,-2,4,-6,-1,24,-6
-3,-14,-11,7,4,-12,-2,4,-6,-1,25,-6
-3,-14,-11,7,4,-13,-2,4,-6,-1,26,-6
-3,-14,-11,7,4,-13,-2,3,-6,-1,27,-7
-3,-14,-11,8,4,-13,-2,3,-6,-1,28,-7
-3,-14,-11,8,4,-13,-1,3,-6,-2,27,-7
-3,-14,-11,8,4,-13,-1,3,-7,-2,26,-7
-4,-14,-11,8,4,-12,-1,3,-7,-2,25,-7
-4,-14,-11,8,4,-12,-2,3,-7,-2,23,-7
-4,-14,-11,8,4,-13,-2,3,-8,-3,23,-7
-4,-14,-11,8,4,-13,-2,3,-8,-3,24,-7
-4,-14,-11,8,4,-13,-2,2,-8,-3,24,-7
-4,-14,-11,8,4,-13,-2,2,-8,-3,25,-7
-4,-14,-11,8,4,-13,-2,3,-8,-3,25,-7
-4,-14,-11,8,4,-13,-2,3,-8,-3,24,-7
-4,-14,-11,8,4,-13,-2,3,-8,-3,24,-8
-4,-14,-11,8,4,-13,-2,3,-8,-3,23,-8
-4,-14,-11,8,4,-13,-2,3,-8,-3,22,-8
-4,-14,-11,8,4,-13,-2,3,-8,-3,23,-8
-4,-14,-11,8,4,-13,-2,3,-8,-3,23,-8
-4,-14,-11,8,4,-13,-2,3,-8,-3,23,-8
-4,-14,-11,8,4,-13,-2,3,-9,-3,23,-8
-4,-14,-10,8,3,-12,-2,3,-9,-3,22,-8
-4,-14,-10,8,3,-12,-2,3,-9,-3,22,-8
-4,-14,-11,8,3,-13,-2,3,-9,-3,21,-8
-3,-14,-12,8,4,-13,-2,3,-9,-3,20,-8
-2,-14,-12,7,5,-13,-2,2,-9,-3,20,-8
-2,-14,-12,7,5,-13,-2,2,-9,-3,21,-8
-2,-14,-12,7,5,-13,-2,2,-9,-4,21,-9
-2,-14,-12,7,5,-13,-2,2,-10,-4,21,-9
-2,-13,-11,7,5,-13,-2,2,-10,-4,20,-9
-2,-13,-11,7,5,-13,-2,2,-10,-4,20,-9
-2,-13,-10,7,5,-13,-2,2,-10,-4,20,-9
-2,-12,-10,7,5,-13,-2,2,-10,-4,19,-9
-2,-12,-10,7,4,-13,-2,2,-10,-4,19,-9
-3,-13,-10,7,4,-12,-2,2,-9,-4,20,-9
-3,-13,-10,7,3,-12,-2,2,-9,-4,20,-9
-2,-13,-10,7,4,-12,-2,2,-9,-4,20,-9
-2,-13,-10,7,4,-12,-2,2,-9,-4,19,-9
-1,-13,-10,6,4,-12,-2,2,-9,-4,19,-9
-2,-12,-10,6,4,-12,-2,2,-9,-4,19,-9
-2,-12,-10,6,4,-11,-2,2,-9,-4,19,-9
-2,-12,-10,6,3,-11,-2,2,-8,-4,19,-9
-3,-12,-10,7,3,-12,-2,2,-8,-5,19,-9
-3,-12,-9,7,3,-12,-2,2,-8,-5,19,-9
-3,-12,-9,7,3,-11,-2,2,-8,-5,19,-9
-3,-12,-8,7,3,-11,-2,2,-8,-5,19,-9
-3,-12,-8,8,3,-11,-2,2,-8,-5,19,-9
-3,-12,-9,7,3,-11,-2,2,-9,-6,19,-9
-3,-12,-9,7,3,-11,-2,1,-9,-6,19,-9
-3,-12,-9,7,3,-11,-2,1,-9,-6,19,-9
-3,-12,-9,7,3,-11,-2,1,-9,-6,19,-9
-3,-12,-9,7,3,-11,-2,1,-9,-6,19,-9
-2,-12,-10,7,3,-11,-2,1,-9,-6,19,-10
-2,-12,-10,7,4,-11,-3,1,-9,-6,18,-10
-2,-12,-10,7,4,-11,-3,1,-9,-6,18,-10
-2,-12,-9,7,4,-11,-3,1,-9,-6,18,-10
-3,-12,-9,7,4,-11,-3,1,-9,-6,19,-10
-3,-12,-9,7,3,-11,-3,1,-9,-6,19,-10
-3,-12,-8,7,3,-10,-3,1,-9,-6,19,-10
-3,-11,-8,7,2,-10,-3,1,-9,-6,20,-10
-2,-11,-8,6,2,-10,-3,1,-9,-6,20,-10
-2,-11,-8,6,2,-10,-3,1,-9,-6,19,-10
-2,-11,-8,6,3,-10,-3,1,-9,-7,19,-10
-2,-11,-8,6,3,-10,-3,1,-9,-7,19,-10
-3,-11,-8,6,3,-10,-3,1,-9,-7,19,-10
-3,-11,-7,7,2,-9,-3,1,-9,-7,19,-10
-3,-11,-7,7,2,-9,-3,1,-9,-7,19,-10
-4,-11,-7,7,2,-9,-3,1,-9,-7,19,-10
-4,-11,-7,7,1,-9,-3,1,-9,-7,20,-10
-5,-11,-7,7,1,-9,-3,1,-9,-7,20,-10
-5,-11,-7,7,1,-9,-3,1,-9,-8,19,-10
-4,-11,-7,7,2,-9,-3,1,-9,-8,19,-10
-3,-11,-8,6,2,-9,-3,1,-8,-8,19,-10
-3,-11,-8,6,2,-9,-3,0,-8,-8,19,-10
-4,-11,-7,6,2,-9,-3,0,-8,-8,19,-10
-4,-11,-7,6,2,-9,-3,0,-8,-9,19,-10
-3,-11,-7,7,2,-10,-3,0,-9,-9,19,-11
-3,-11,-8,7,3,-10,-3,0,-9,-9,19,-11
-3,-11,-7,7,3,-9,-3,0,-9,-9,18,-11
-3,-11,-7,7,2,-9,-3,0,-9,-9,18,-11
-3,-10,-6,7,2,-9,-3,0,-9,-9,18,-11
-3,-10,-6,6,2,-9,-3,0,-9,-9,18,-11
-3,-10,-7,6,3,-9,-4,0,-9,-9,18,-11
-3,-10,-7,6,3,-9,-4,0,-9,-9,18,-11
-3,-10,-7,6,3,-9,-3,0,-9,-9,19,-11
-3,-10,-7,6,2,-9,-3,0,-9,-9,19,-11
-3,-10,-7,6,2,-8,-3,0,-9,-9,18,-11
-3,-10,-6,6,2,-8,-3,0,-8,-9,18,-11
-3,-10,-6,6,2,-8,-3,0,-8,-9,18,-11
-3,-10,-6,6,2,-8,-4,0,-8,-9,18,-10
-3,-9,-6,6,2,-8,-4,0,-8,-10,18,-10
-3,-9,-6,6,2,-8,-4,0,-8,-10,18,-11
-3,-9,-6,6,2,-8,-4,0,-8,-10,18,-11
-3,-9,-6,6,2,-8,-4,0,-8,-10,18,-11
-2,-9,-6,6,2,-8,-4,0,-8,-10,17,-11
-2,-9,-6,6,2,-8,-4,0,-8,-10,17,-11
-2,-9,-6,6,2,-8,-4,0,-8,-10,17,-11
-2,-9,-5,6,2,-7,-4,0,-9,-10,17,-11
-3,-9,-5,6,2,-7,-4,0,-9,-10,17,-11
-3,-9,-5,6,2,-7,-4,0,-9,-10,17,-11
-3,-8,-5,6,1,-7,-4,0,-9,-10,17,-11
-3,-8,-5,6,1,-7,-4,0,-9,-10,17,-11
-3,-8,-5,6,1,-7,-4,0,-9,-10,17,-11
-4,-9,-4,6,1,-7,-4,0,-8,-10,17,-11
-4,-9,-4,6,1,-7,-4,0,-8,-10,16,-11
-4,-9,-4,6,1,-7,-4,-1,-8,-10,16,-11
-4,-10,-4,7,1,-7,-4,-1,-8,-10,16,-12
-4,-10,-4,7,0,-7,-4,-1,-8,-10,16,-12
-4,-9,-4,7,0,-7,-3,0,-8,-10,16,-11
-4,-8,-3,6,0,-6,-3,0,-7,-9,17,-11
-4,-7,-3,6,0,-6,-3,0,-7,-9,17,-11
-3,-6,-3,5,0,-5,-3,0,-7,-9,17,-10
-3,-6,-2,4,0,-5,-3,0,-7,-8,17,-10
-3,-5,-2,4,0,-4,-3,0,-6,-8,17,-9
-3,-5,-1,3,-1,-4,-3,0,-6,-8,17,-9
-3,-4,-1,3,-1,-3,-2,0,-6,-8,17,-8
-4,-4,0,4,-2,-2,-2,0,-6,-8,17,-8
-4,-4,0,4,-2,-2,-2,0,-6,-8,17,-9
-4,-4,0,3,-1,-2,-2,0,-6,-8,17,-9
-4,-4,0,3,-1,-2,-2,0,-6,-8,16,-9
-4,-4,0,3,-1,-2,-2,0,-6,-7,16,-9
-4,-3,0,3,-1,-2,-2,0,-6,-7,16,-9
-3,-3,0,3,-1,-1,-2,0,-6,-7,16,-9
-3,-3,0,3,-1,-1,-2,0,-7,-7,16,-9
-4,-3,0,3,-2,-1,-2,0,-7,-7,16,-9
-4,-2,0,3,-2,-1,-1,0,-7,-7,16,-8
-4,-2,0,3,-2,-1,-1,0,-6,-7,16,-8
-4,-2,1,3,-2,-1,-1,0,-6,-7,16,-8
-4,-1,2,2,-3,0,-1,0,-6,-7,15,-8
-4,-1,3,2,-3,0,-1,0,-6,-7,15,-8
-4,0,3,2,-3,1,-1,0,-6,-6,15,-8
-4,0,4,2,-4,1,-2,0,-6,-6,15,-7
-4,0,4,2,-4,2,-3,0,-6,-6,16,-7
-4,1,4,1,-4,2,-4,-1,-6,-6,16,-7
-3,1,4,1,-4,2,-5,-2,-6,-6,16,-7
-3,1,4,1,-4,2,-6,-3,-6,-6,16,-7
-3,1,4,1,-4,2,-6,-4,-7,-7,15,-7
-3,1,4,1,-3,2,-6,-4,-7,-8,15,-8
-2,1,3,1,-3,1,-6,-4,-8,-8,15,-8
-2,1,3,1,-2,1,-7,-4,-8,-8,15,-8
-1,1,2,1,-2,1,-7,-4,-9,-9,14,-8
-1,0,2,0,-1,1,-7,-5,-9,-9,14,-9
-1,0,1,0,-1,0,-7,-5,-9,-9,14,-9
-1,0,0,0,-1,0,-8,-5,-9,-9,14,-9
-1,0,0,0,-1,0,-8,-5,-9,-9,14,-9
-1,0,0,0,0,0,-8,-5,-10,-10,13,-9
-1,-1,0,0,0,-1,-8,-5,-10,-10,12,-9
-1,-1,-1,0,0,-1,-8,-5,-10,-11,12,-10
0,-2,-1,0,0,-2,-8,-5,-10,-11,12,-10
0,-2,-1,0,0,-2,-8,-5,-10,-11,12,-10
0,-2,-1,0,0,-2,-8,-5,-10,-11,13,-10
0,-2,-1,1,0,-2,-8,-5,-9,-10,13,-10
-1,-2,-1,1,0,-2,-8,-5,-9,-10,14,-10
-1,-1,0,1,0,-1,-7,-4,-8,-10,14,-9
-2,-1,0,1,-1,-1,-6,-4,-8,-10,14,-9
-2,-1,1,2,-1,0,-6,-3,-8,-10,14,-9
-2,-2,1,2,-2,0,-5,-3,-8,-10,14,-9
-2,-3,0,3,-2,-1,-5,-4,-8,-10,14,-9
-3,-3,0,3,-2,-1,-5,-4,-9,-10,14,-10
-3,-4,0,4,-2,-2,-5,-4,-9,-11,14,-10
-4,-5,-1,4,-2,-3,-5,-4,-9,-11,14,-10
-4,-6,-1,5,-2,-4,-4,-3,-9,-11,13,-10
-5,-6,-1,5,-2,-4,-4,-3,-9,-12,13,-11
-5,-7,-2,5,-1,-5,-4,-4,-10,-12,12,-11
-4,-7,-3,5,-1,-5,-4,-4,-10,-13,12,-12
-5,-8,-3,6,-1,-6,-4,-4,-10,-13,12,-12
-5,-8,-3,6,-1,-6,-3,-4,-10,-13,12,-12
-5,-9,-3,7,-1,-7,-3,-4,-10,-13,12,-13
-5,-9,-4,7,0,-7,-3,-4,-10,-13,12,-13
-4,-9,-5,7,0,-8,-3,-4,-11,-14,11,-14
-4,-9,-5,7,0,-8,-3,-4,-11,-15,10,-14
-4,-9,-5,7,0,-8,-3,-5,-12,-15,10,-15
-4,-9,-5,7,0,-8,-4,-5,-12,-15,10,-15
-4,-9,-5,7,0,-8,-4,-5,-12,-15,10,-15
-4,-9,-5,7,0,-7,-4,-5,-12,-15,11,-15
-4,-9,-5,7,0,-7,-4,-5,-12,-15,11,-15
-4,-9,-5,6,0,-7,-4,-5,-12,-15,12,-14
-4,-9,-4,6,0,-7,-4,-5,-12,-15,12,-14
-4,-9,-4,6,0,-7,-4,-5,-12,-15,11,-14
-5,-9,-4,6,0,-7,-4,-5,-12,-15,11,-14
-5,-9,-4,6,0,-6,-4,-5,-11,-15,11,-14
-5,-9,-3,6,0,-6,-4,-4,-11,-14,11,-14
-5,-9,-3,6,0,-6,-4,-4,-11,-14,11,-14
-5,-9,-3,6,0,-6,-4,-4,-11,-14,11,-14
-5,-9,-3,6,0,-6,-4,-4,-11,-14,11,-14
-5,-8,-3,6,0,-6,-4,-3,-11,-14,10,-14
-5,-8,-2,6,0,-6,-3,-3,-11,-14,7,-14
-5,-8,-2,7,-1,-6,-3,-3,-10,-14,3,-14
-6,-8,-1,7,-2,-6,-3,-3,-10,-14,0,-14
-6,-8,-1,7,-2,-5,-3,-3,-9,-14,-3,-14
-5,-8,-2,6,-2,-5,-3,-3,-9,-14,-7,-14
-5,-8,-2,6,-1,-5,-3,-3,-9,-14,-10,-14
-5,-8,-3,6,0,-5,-3,-3,-9,-14,-12,-14
-5,-8,-3,6,0,-5,-3,-3,-9,-14,-14,-14
-5,-8,-3,6,0,-5,-3,-3,-10,-14,-17,-14
-5,-8,-3,6,0,-6,-3,-3,-10,-14,-19,-14
-5,-8,-3,6,0,-6,-3,-4,-10,-14,-20,-14
-5,-9,-3,6,0,-6,-3,-4,-10,-14,-22,-14
-5,-9,-3,6,0,-7,-3,-4,-10,-14,-23,-14
-5,-9,-3,6,0,-7,-3,-3,-9,-13,-23,-14
-4,-9,-4,5,0,-7,-3,-2,-8,-12,-23,-13
-2,-7,-4,4,1,-6,-3,0,-6,-9,-21,-11
-1,-5,-4,2,1,-5,-3,2,-1,-5,-19,-8
0,-3,-4,1,2,-4,-3,5,4,0,-16,-5
2,-2,-4,0,3,-3,-3,9,10,6,-12,-1
4,0,-4,-2,4,-2,-4,14,18,13,-6,3
6,2,-3,-4,5,-1,-5,18,26,21,2,9
9,5,-3,-7,6,0,-5,24,37,33,12,18
12,8,-4,-11,8,1,-6,32,50,46,24,28
17,11,-5,-15,11,2,-7,41,64,61,38,39
22,14,-7,-19,15,2,-9,47,77,75,52,51
28,18,-9,-24,19,3,-12,48,86,88,66,65
33,23,-9,-29,21,6,-15,43,88,97,79,78
36,29,-7,-33,22,10,-20,31,81,99,90,91
37,34,-3,-36,21,15,-25,10,62,92,96,100
36,39,2,-37,17,20,-29,-15,37,79,95,104
33,43,10,-38,12,26,-31,-38,11,62,87,101
28,47,18,-38,6,32,-31,-54,-11,44,71,91
22,49,28,-36,-2,38,-28,-68,-32,23,49,74
14,48,35,-32,-10,42,-24,-78,-54,0,21,52
5,43,39,-25,-16,41,-18,-86,-75,-26,-9,27
-3,36,40,-17,-21,38,-13,-93,-96,-52,-39,3
-10,29,40,-10,-25,34,-9,-99,-117,-78,-66,-19
-16,21,37,-3,-26,29,-7,-106,-135,-100,-87,-36
-18,12,31,2,-24,22,-7,-111,-148,-117,-102,-49
-19,2,23,8,-21,13,-7,-112,-157,-129,-114,-59
-21,-7,14,13,-17,3,-6,-111,-161,-138,-123,-67
-23,-16,7,19,-15,-5,-5,-107,-161,-143,-130,-74
-25,-24,1,24,-13,-12,-3,-102,-159,-144,-135,-78
-27,-31,-3,28,-11,-18,-1,-97,-155,-143,-138,-81
-28,-36,-8,32,-9,-22,0,-91,-149,-140,-139,-82
-29,-40,-11,35,-8,-26,1,-86,-142,-136,-138,-83
-30,-44,-13,37,-7,-29,1,-80,-135,-131,-137,-83
-31,-45,-14,38,-7,-30,0,-75,-128,-125,-133,-82
-31,-45,-14,37,-7,-30,-2,-71,-120,-117,-128,-79
-29,-44,-14,35,-6,-30,-4,-66,-111,-109,-122,-75
-27,-41,-14,33,-5,-29,-7,-61,-101,-100,-116,-69
-24,-38,-14,30,-4,-27,-9,-55,-91,-91,-110,-64
-21,-34,-14,27,-3,-25,-10,-49,-80,-81,-104,-58
-18,-30,-12,24,-2,-22,-10,-42,-70,-71,-97,-53
-15,-26,-10,21,-2,-18,-10,-35,-59,-62,-89,-47
-13,-22,-8,18,-2,-16,-9,-28,-50,-53,-82,-41
-12,-19,-7,16,-1,-14,-7,-22,-41,-44,-75,-36
-11,-17,-6,13,-1,-12,-6,-16,-33,-37,-69,-32
-10,-15,-6,11,-1,-11,-4,-11,-26,-30,-65,-28
-8,-13,-5,9,0,-10,-3,-6,-20,-25,-63,-25
-7,-11,-4,8,0,-9,-2,-2,-14,-21,-61,-22
-6,-10,-4,8,0,-8,-1,0,-10,-17,-58,-20
-5,-10,-4,7,0,-7,-1,2,-6,-13,-56,-18
-5,-9,-4,7,0,-7,0,4,-3,-10,-53,-17
-5,-8,-4,6,0,-6,0,5,-1,-8,-51,-15
-4,-8,-4,6,1,-6,0,6,0,-6,-50,-14
-4,-8,-4,5,1,-6,0,7,1,-5,-50,-13
-3,-8,-4,5,1,-6,0,7,2,-4,-50,-12
-3,-7,-4,4,1,-6,0,8,4,-3,-51,-11
-3,-7,-4,4,1,-6,0,9,5,-2,-51,-10
-3,-6,-3,4,1,-6,0,10,7,-1,-50,-9
-2,-6,-3,4,1,-5,0,11,8,0,-50,-8
-1,-6,-3,3,2,-5,0,11,9,1,-49,-8
-1,-6,-4,3,2,-6,0,12,10,2,-49,-7
-1,-6,-4,3,2,-6,1,12,10,2,-49,-7
-2,-6,-3,3,2,-5,1,13,10,3,-50,-6
-2,-6,-3,3,2,-5,1,13,11,3,-50,-6
-1,-6,-4,3,2,-5,1,13,11,3,-51,-6
0,-6,-5,2,3,-5,1,14,12,4,-51,-6
0,-5,-5,2,3,-5,1,14,13,5,-50,-6
0,-5,-5,1,3,-5,1,14,13,5,-50,-6
1,-4,-5,1,3,-5,1,14,14,6,-49,-6
1,-4,-5,1,3,-5,1,14,14,6,-50,-6
1,-4,-5,1,3,-5,1,15,14,6,-51,-6
0,-4,-5,1,3,-5,1,15,14,6,-52,-6
0,-4,-4,1,2,-5,1,15,15,6,-52,-5
0,-4,-4,1,2,-5,2,15,16,7,-52,-5
0,-4,-4,1,2,-4,2,15,16,7,-52,-5
0,-3,-4,1,2,-4,2,16,17,8,-52,-5
0,-3,-4,1,2,-4,2,16,18,9,-51,-5
0,-3,-4,1,3,-4,2,16,18,9,-51,-5
0,-3,-4,0,3,-4,2,16,18,10,-51,-5
1,-2,-3,0,3,-4,2,16,19,10,-51,-5
2,-2,-4,0,4,-4,2,16,19,10,-51,-5
2,-2,-4,0,4,-4,2,16,20,10,-51,-5
2,-2,-4,0,3,-4,2,17,20,10,-51,-4
2,-2,-4,0,3,-4,2,17,21,10,-50,-4
1,-2,-4,0,3,-4,2,17,22,11,-50,-4
1,-2,-4,0,3,-4,2,18,22,11,-49,-3
2,-2,-5,0,4,-4,2,18,22,12,-49,-3
2,-2,-4,0,4,-4,2,19,23,12,-49,-3
1,-2,-4,0,3,-4,2,19,23,12,-49,-3
1,-2,-4,-1,3,-4,1,19,24,13,-48,-3
2,-2,-4,-1,4,-3,1,19,24,13,-48,-2
2,-1,-4,-1,4,-3,1,19,25,14,-47,-2
2,-1,-4,-1,4,-2,1,20,26,15,-46,-2
2,0,-4,-1,4,-2,1,20,26,16,-45,-1
2,0,-4,-1,4,-2,1,21,27,16,-43,-1
2,0,-4,-2,4,-2,0,21,27,16,-41,-1
2,0,-4,-2,3,-2,0,22,28,17,-37,-1
2,0,-3,-2,3,-2,0,22,28,17,-33,0
2,0,-3,-2,3,-2,0,23,29,18,-29,0
2,0,-2,-2,3,-1,0,24,30,19,-25,0
2,0,-2,-2,3,-1,0,24,31,20,-22,0
2,0,-2,-2,3,-1,0,25,31,20,-20,1
3,1,-2,-2,3,-1,0,25,32,21,-17,1
3,1,-3,-3,3,-1,0,25,32,21,-16,1
4,2,-3,-3,4,-1,0,26,33,22,-14,1
4,2,-3,-4,4,-1,0,27,34,23,-12,2
5,2,-3,-4,4,-1,0,27,35,24,-10,2
6,2,-3,-4,5,-1,0,28,36,24,-8,2
6,3,-4,-5,5,-1,0,28,37,25,-6,2
6,3,-4,-5,5,-1,0,29,39,26,-4,2
6,3,-3,-5,5,0,0,30,40,27,-2,3
7,4,-3,-6,5,0,0,31,41,28,-1,4
7,4,-2,-6,5,0,0,32,42,30,0,4
7,5,-2,-7,5,1,0,33,44,31,1,5
7,6,-2,-8,5,1,0,34,45,32,3,6
7,7,-1,-8,5,2,0,35,46,34,4,6
7,7,-1,-8,5,2,0,35,48,35,6,7
8,8,0,-8,5,3,0,36,49,36,8,7
8,8,0,-9,5,3,0,36,51,37,9,8
9,9,0,-10,5,3,0,37,52,38,11,9
9,10,0,-10,5,4,-1,38,53,39,12,10
9,11,0,-11,4,4,-1,38,55,41,13,11
10,12,1,-11,4,5,-1,39,56,43,14,12
10,13,1,-12,5,6,-1,39,57,44,16,13
11,13,1,-13,5,6,-2,40,59,45,18,13
12,14,1,-13,5,7,-2,40,60,47,19,14
12,14,2,-14,5,7,-2,41,62,48,21,16
12,14,2,-14,5,8,-2,41,63,49,23,17
13,15,3,-15,5,9,-3,42,64,50,24,18
13,17,3,-16,5,9,-3,42,64,51,24,19
13,18,3,-16,5,10,-4,42,65,52,25,20
13,19,4,-17,5,10,-4,42,66,53,27,20
14,19,4,-18,6,11,-4,42,67,54,28,21
15,20,4,-18,6,11,-5,42,68,54,29,21
15,21,5,-19,6,12,-5,42,68,55,31,22
16,21,5,-19,6,13,-6,42,69,55,32,23
16,22,6,-20,5,13,-6,42,69,56,33,24
16,23,7,-20,5,14,-7,42,69,56,33,25
16,24,7,-21,5,15,-7,41,69,57,33,25
16,24,8,-21,4,15,-7,41,69,57,34,26
16,25,8,-21,4,16,-7,41,69,57,35,26
16,25,9,-21,4,16,-7,40,68,57,35,26
16,25,9,-21,3,17,-8,40,68,57,36,26
15,26,10,-21,3,17,-8,39,67,56,37,27
15,26,11,-22,2,18,-8,38,67,56,37,27
16,27,11,-22,2,19,-9,37,66,55,37,27
16,28,11,-23,3,19,-10,35,64,54,36,27
17,28,11,-23,3,19,-10,34,63,53,36,27
17,29,11,-24,3,19,-11,33,62,52,36,27
17,29,12,-24,3,19,-11,32,61,51,36,27
17,29,12,-24,3,19,-11,31,59,50,35,26
17,29,12,-24,3,19,-12,30,58,49,35,26
16,29,12,-24,2,19,-12,28,56,48,35,26
16,29,12,-23,2,19,-13,27,55,47,34,25
15,29,13,-23,1,20,-13,25,53,46,34,25
14,28,14,-22,0,20,-13,24,51,45,33,25
13,28,14,-22,0,20,-13,22,49,43,32,24
13,28,15,-22,0,20,-13,20,47,41,31,23
13,28,15,-21,0,20,-13,18,45,39,30,23
12,27,15,-21,0,20,-13,16,42,37,30,22
12,27,15,-20,-1,20,-13,14,40,35,29,21
11,26,15,-20,-1,20,-13,12,37,33,27,20
11,26,15,-19,-1,20,-13,10,34,31,25,19
10,25,15,-18,-2,20,-13,9,32,28,23,18
8,25,16,-17,-3,19,-13,8,30,26,22,17
7,24,16,-16,-4,19,-12,7,28,25,21,16
6,23,16,-16,-4,19,-12,5,25,23,20,15
6,22,16,-15,-4,18,-11,4,23,21,19,14
5,21,15,-15,-4,18,-11,2,20,19,18,12
5,21,15,-14,-4,17,-11,0,18,17,17,11
4,20,15,-14,-5,17,-11,-1,15,14,15,10
3,19,15,-13,-5,17,-10,-2,13,12,13,9
2,18,15,-12,-5,16,-10,-3,11,10,11,8
2,17,14,-11,-5,15,-10,-4,9,8,10,6
2,16,13,-10,-5,14,-10,-6,7,6,8,5
1,15,13,-10,-5,13,-9,-7,5,4,7,4
1,14,13,-9,-5,13,-9,-8,4,3,7,3
0,14,13,-9,-5,12,-8,-9,2,1,6,2
0,13,12,-8,-5,12,-8,-10,0,0,5,1
0,13,12,-8,-5,11,-8,-10,-1,-1,3,0
-1,12,12,-7,-5,11,-8,-11,-2,-2,2,0
-1,11,12,-6,-6,10,-7,-11,-3,-3,2,-1
-1,10,12,-6,-6,10,-7,-12,-3,-4,1,-2
-1,10,12,-5,-6,10,-7,-12,-4,-5,1,-2
-2,9,12,-5,-6,10,-6,-12,-5,-6,1,-3
-2,9,11,-4,-6,9,-6,-13,-6,-7,0,-4
-2,8,11,-4,-6,8,-6,-13,-7,-8,0,-5
-2,8,10,-3,-6,8,-6,-14,-8,-9,-1,-5
-3,8,10,-3,-6,8,-5,-14,-9,-9,-2,-5
-3,7,10,-3,-6,8,-5,-14,-9,-9,-2,-5
-3,7,9,-3,-5,7,-5,-14,-10,-10,-2,-6
-3,6,9,-3,-5,7,-5,-15,-10,-10,-2,-6
-4,6,9,-2,-6,7,-5,-15,-10,-11,-2,-6
-4,5,9,-2,-6,6,-5,-15,-11,-11,-2,-7
-4,5,9,-2,-6,6,-4,-15,-11,-11,-3,-7
-4,5,8,-2,-5,5,-4,-16,-12,-12,-4,-8
-3,5,8,-2,-5,5,-4,-16,-12,-12,-5,-8
-4,5,8,-2,-5,6,-4,-16,-12,-12,-5,-8
-4,5,9,-2,-5,6,-4,-16,-12,-12,-5,-8
-4,5,9,-2,-6,6,-4,-16,-12,-12,-5,-8
-4,5,9,-2,-6,6,-4,-16,-12,-12,-5,-8
-4,5,9,-2,-6,6,-4,-16,-13,-12,-5,-8
-4,5,9,-2,-6,6,-4,-16,-13,-12,-5,-8
-4,6,9,-2,-6,6,-4,-16,-13,-12,-5,-8
-4,6,9,-2,-6,7,-4,-16,-13,-12,-6,-8
-4,5,9,-2,-6,6,-4,-16,-13,-13,-6,-9
-4,5,9,-2,-6,6,-4,-16,-13,-13,-6,-9
-4,5,9,-2,-6,6,-4,-16,-13,-13,-6,-9
-4,5,9,-2,-6,6,-4,-16,-13,-13,-6,-9
-5,5,9,-1,-6,6,-4,-16,-13,-13,-7,-9
-5,5,9,-1,-6,6,-4,-16,-13,-13,-7,-9
-5,5,9,-1,-6,6,-4,-16,-13,-13,-7,-9
-5,5,9,-1,-6,6,-4,-16,-13,-13,-8,-9
-5,4,9,-1,-6,6,-3,-16,-13,-13,-9,-10
-5,4,9,-1,-6,5,-3,-16,-13,-13,-9,-10
-5,4,9,-1,-6,5,-3,-16,-13,-13,-9,-10
-5,4,9,-1,-6,5,-3,-15,-13,-13,-9,-11
-5,4,9,-1,-6,5,-3,-15,-13,-13,-8,-11
-5,4,9,-1,-6,5,-3,-15,-12,-12,-8,-10
-5,4,9,-1,-6,6,-3,-15,-12,-12,-7,-10
-5,5,9,-1,-6,6,-3,-15,-12,-12,-8,-10
-5,5,9,-1,-6,6,-3,-15,-12,-12,-9,-11
-5,5,9,-1,-6,6,-3,-14,-12,-12,-9,-11
-5,5,9,-1,-6,6,-3,-14,-12,-12,-9,-11
-5,5,9,-1,-6,6,-3,-14,-12,-12,-9,-11
-5,5,8,-1,-5,6,-3,-14,-12,-12,-9,-11
-4,5,8,-1,-5,6,-3,-14,-12,-12,-9,-12
-4,5,7,-1,-5,6,-3,-14,-12,-12,-9,-12
-4,5,7,-1,-5,6,-3,-14,-12,-12,-10,-12
-5,5,8,-1,-5,6,-3,-13,-11,-12,-10,-12
-5,5,8,0,-6,6,-2,-13,-11,-11,-10,-12
-5,5,9,0,-6,6,-2,-13,-11,-11,-10,-12
-5,5,8,0,-6,6,-2,-13,-11,-11,-10,-12
-5,4,8,-1,-5,6,-2,-13,-10,-11,-10,-12
-5,4,8,0,-5,6,-2,-13,-10,-11,-10,-12
-5,4,8,0,-5,6,-2,-12,-10,-10,-9,-12
-4,4,8,-1,-5,6,-2,-12,-10,-10,-9,-12
-4,5,8,-1,-5,7,-2,-12,-10,-10,-10,-12
-4,5,8,-2,-5,7,-2,-12,-9,-10,-10,-12
-4,5,8,-2,-5,6,-2,-12,-9,-10,-9,-12
-4,5,8,-2,-5,6,-2,-12,-8,-10,-9,-12
-4,5,8,-2,-5,6,-2,-12,-8,-10,-9,-12
-4,5,8,-1,-5,6,-2,-12,-8,-10,-8,-12
-4,5,8,-1,-6,7,-2,-11,-8,-9,-8,-12
-4,5,8,-1,-6,7,-2,-11,-8,-9,-7,-12
-4,5,7,-1,-5,6,-2,-11,-8,-9,-8,-12
-3,5,6,-1,-4,6,-2,-11,-8,-9,-8,-12
-3,5,6,-1,-4,5,-2,-11,-8,-9,-8,-12
-3,4,6,-1,-4,5,-2,-11,-8,-9,-8,-12
-4,4,7,-1,-4,5,-2,-11,-8,-9,-8,-12
-4,5,7,-1,-4,5,-2,-11,-7,-9,-8,-12
-4,5,7,-1,-4,5,-2,-11,-7,-9,-8,-12
-4,5,7,-1,-4,6,-2,-11,-7,-9,-8,-13
-4,5,7,-1,-4,6,-2,-11,-7,-9,-8,-13
-4,5,7,-1,-4,6,-2,-11,-7,-9,-8,-13
-4,5,7,-1,-4,6,-2,-11,-7,-8,-8,-13
-4,5,7,-1,-4,6,-2,-11,-7,-8,-8,-13
-4,5,7,-1,-4,6,-2,-11,-7,-8,-8,-13
-4,5,7,-1,-5,6,-2,-11,-7,-8,-8,-13
-4,5,7,-1,-5,6,-2,-11,-7,-8,-8,-13
-4,5,7,-1,-5,6,-2,-11,-7,-7,-8,-13
-4,5,7,-1,-5,6,-2,-11,-7,-7,-8,-13
-4,5,7,-1,-5,6,-2,-11,-7,-7,-9,-13
-3,5,7,-1,-5,6,-2,-11,-7,-7,-9,-13
-3,5,7,-1,-5,6,-2,-11,-7,-7,-8,-12
-3,5,7,-1,-5,6,-2,-11,-7,-7,-8,-12
-3,5,7,-1,-5,5,-2,-11,-6,-7,-8,-12
-3,5,7,-1,-5,5,-2,-11,-6,-7,-8,-11
-4,4,7,-1,-5,5,-2,-11,-6,-7,-8,-11
-4,4,7,0,-5,5,-2,-11,-6,-7,-7,-11
-5,4,7,0,-5,6,-2,-11,-7,-7,-8,-11
-5,4,7,0,-6,6,-2,-11,-7,-7,-8,-11
-5,4,7,0,-6,6,-3,-11,-7,-7,-8,-11
-4,5,7,-1,-5,6,-3,-11,-7,-8,-8,-11
-3,5,7,-1,-5,6,-3,-11,-7,-8,-9,-11
-4,5,7,-1,-5,6,-3,-11,-7,-8,-9,-11
-4,5,8,-1,-5,6,-3,-11,-7,-8,-9,-11
-4,5,8,-1,-5,6,-3,-11,-8,-8,-9,-11
-4,5,7,-1,-5,6,-3,-11,-8,-8,-9,-11
-4,5,7,-1,-5,6,-3,-11,-9,-9,-10,-12
-3,5,6,-1,-4,6,-3,-11,-9,-9,-10,-12
-3,5,6,-1,-4,6,-3,-11,-9,-9,-10,-12
-3,4,6,-1,-4,5,-3,-11,-9,-9,-10,-12
-3,4,6,-1,-4,5,-3,-12,-9,-9,-10,-12
-3,4,5,-1,-4,5,-3,-12,-9,-9,-10,-12
-2,4,4,-1,-3,5,-3,-12,-9,-10,-10,-12
-2,4,4,-1,-3,5,-3,-12,-10,-10,-10,-12
-2,4,4,-1,-3,5,-3,-12,-10,-10,-11,-12
-3,4,4,-1,-4,4,-3,-12,-10,-10,-11,-12
-3,3,4,0,-4,4,-3,-12,-10,-10,-11,-12
-4,3,4,0,-4,4,-3,-12,-10,-10,-11,-12
-4,4,5,0,-4,5,-3,-12,-10,-10,-11,-12
-4,4,5,0,-4,5,-3,-12,-10,-10,-11,-12
-4,4,5,0,-4,5,-3,-12,-10,-10,-11,-12
-4,4,6,0,-4,5,-3,-12,-11,-10,-11,-12
-3,4,6,0,-4,5,-3,-12,-11,-10,-11,-12
-3,4,6,0,-4,5,-3,-12,-11,-10,-11,-12
-3,4,6,0,-4,5,-3,-12,-11,-10,-11,-12
-4,4,6,0,-4,5,-3,-12,-11,-10,-11,-12
-4,4,6,0,-4,5,-3,-13,-11,-10,-11,-12
-4,4,6,0,-4,5,-3,-13,-11,-10,-11,-12
-4,3,5,0,-4,5,-3,-13,-11,-11,-11,-12
-4,3,5,0,-4,4,-3,-13,-11,-11,-11,-12
-4,3,5,0,-4,4,-3,-13,-11,-11,-11,-12
-3,3,5,0,-4,4,-3,-13,-11,-11,-12,-12
-3,3,5,0,-4,4,-3,-13,-11,-11,-12,-12
-3,3,5,0,-4,4,-3,-13,-11,-11,-12,-12
-3,3,5,0,-4,4,-3,-13,-11,-11,-12,-12
-3,3,5,0,-4,4,-3,-13,-11,-11,-12,-12
-3,3,5,0,-4,4,-3,-13,-11,-11,-12,-12
-3,3,5,-1,-4,4,-3,-13,-11,-11,-12,-12
-3,3,5,-1,-4,4,-3,-13,-11,-11,-12,-12
-3,3,5,0,-4,4,-3,-13,-11,-11,-13,-12
-4,3,5,0,-4,4,-3,-13,-11,-11,-13,-12
-4,3,6,0,-5,4,-3,-13,-11,-11,-12,-13
-4,4,6,0,-5,4,-3,-13,-12,-12,-12,-13
-3,4,5,0,-4,4,-4,-13,-12,-12,-13,-13
-3,3,5,0,-4,4,-4,-13,-12,-13,-13,-13
-3,3,5,0,-5,4,-4,-13,-12,-13,-13,-13
-4,3,5,0,-5,4,-4,-13,-12,-12,-13,-13
-4,3,5,0,-5,4,-4,-13,-12,-12,-13,-13
-3,3,5,0,-5,4,-4,-13,-12,-12,-13,-13
-3,3,4,0,-4,4,-4,-13,-12,-12,-12,-13
-3,3,5,0,-4,4,-3,-13,-12,-12,-12,-13
-4,3,5,0,-5,5,-3,-13,-12,-11,-11,-13
-4,3,6,0,-5,5,-3,-13,-12,-11,-11,-13
-4,2,6,0,-5,4,-3,-13,-12,-11,-11,-13
-4,2,5,0,-4,4,-3,-13,-12,-11,-11,-13
-3,3,5,0,-4,4,-3,-13,-12,-11,-11,-13
-3,3,5,0,-4,4,-3,-13,-12,-11,-12,-13
-3,2,5,0,-4,3,-3,-13,-12,-11,-13,-12
-3,2,5,0,-4,3,-3,-13,-12,-11,-13,-12
-3,2,5,0,-4,3,-3,-13,-12,-11,-13,-12
-3,2,4,0,-4,3,-3,-13,-12,-11,-13,-13
-3,1,4,0,-3,3,-3,-13,-12,-11,-12,-13
-3,1,4,0,-3,3,-3,-13,-12,-11,-12,-13
-3,2,4,0,-3,3,-3,-13,-12,-11,-13,-13
-4,2,4,0,-3,3,-3,-13,-12,-11,-14,-13
-4,2,5,0,-4,3,-3,-13,-12,-11,-14,-13
-4,2,5,0,-4,3,-3,-13,-12,-11,-14,-13
-4,3,5,0,-4,3,-3,-13,-12,-11,-14,-13
-3,3,5,0,-4,3,-3,-13,-12,-11,-14,-13
-4,3,5,0,-5,4,-3,-13,-12,-11,-14,-13
-4,3,6,0,-5,4,-3,-13,-12,-11,-14,-13
-4,3,6,0,-5,4,-3,-14,-12,-11,-14,-13
-3,3,6,0,-4,4,-3,-14,-12,-11,-14,-13
-3,3,6,0,-4,4,-3,-14,-12,-11,-15,-13
-2,3,5,0,-3,3,-4,-14,-12,-11,-15,-13
-2,2,4,0,-3,3,-4,-14,-12,-11,-15,-13
-2,2,4,0,-3,3,-4,-14,-12,-11,-15,-13
-2,2,4,0,-3,3,-4,-13,-12,-11,-15,-13
-2,1,3,0,-3,2,-4,-13,-12,-11,-14,-13
-2,1,3,0,-2,1,-4,-13,-12,-11,-14,-13
-2,1,3,0,-2,1,-4,-13,-12,-11,-14,-13
-2,1,3,0,-3,1,-3,-13,-12,-11,-14,-13
-2,1,4,0,-3,1,-3,-13,-12,-11,-14,-13
-2,1,4,1,-3,1,-3,-13,-12,-11,-14,-13
-2,1,4,1,-3,1,-3,-13,-12,-11,-14,-13
-2,1,3,1,-3,2,-3,-13,-12,-11,-14,-13
-2,1,3,1,-3,2,-3,-13,-12,-11,-14,-13
-2,1,3,1,-3,2,-3,-13,-12,-11,-13,-13
-2,1,3,1,-3,2,-3,-13,-12,-11,-13,-13
-2,1,3,1,-3,2,-3,-13,-12,-11,-13,-13
-2,1,3,1,-3,2,-3,-13,-12,-11,-13,-13
-2,1,3,1,-3,2,-3,-13,-12,-11,-13,-13
-2,1,3,1,-2,2,-3,-13,-12,-11,-13,-13
-2,1,3,0,-2,2,-3,-12,-12,-11,-12,-13
-2,1,4,0,-3,2,-3,-12,-12,-10,-12,-13
-3,1,4,1,-3,2,-3,-11,-11,-10,-11,-13
-3,1,4,1,-3,2,-3,-11,-11,-10,-11,-13
-3,1,3,1,-3,2,-3,-12,-11,-10,-12,-13
-2,1,2,0,-2,1,-3,-12,-11,-10,-13,-13
-2,1,2,0,-2,1,-3,-12,-11,-10,-13,-13
-1,1,2,0,-2,1,-3,-12,-11,-10,-13,-13
-1,1,2,0,-1,1,-3,-12,-11,-10,-13,-13
-1,1,2,0,-1,1,-3,-12,-11,-10,-13,-13
-1,1,2,0,-1,1,-3,-12,-11,-10,-13,-13
-1,1,2,0,-1,1,-3,-11,-11,-10,-13,-13
-1,1,2,0,-1,1,-3,-11,-11,-10,-13,-13
-2,1,2,0,-2,1,-3,-11,-11,-10,-13,-13
-2,1,2,1,-2,1,-3,-11,-11,-10,-13,-13
-2,1,2,1,-2,1,-3,-11,-11,-10,-13,-13
-2,1,2,1,-2,1,-3,-11,-11,-10,-13,-13
-2,1,2,1,-2,1,-3,-11,-11,-10,-14,-13
-2,1,2,1,-2,1,-3,-11,-11,-10,-14,-13
-2,1,2,1,-2,1,-3,-11,-11,-10,-14,-13
-2,1,2,0,-2,1,-3,-11,-11,-10,-14,-13
-2,1,2,0,-2,1,-3,-11,-11,-10,-15,-13
-2,1,2,0,-2,1,-3,-11,-11,-10,-15,-14
-2,1,2,0,-2,1,-3,-10,-11,-10,-15,-14
-2,1,2,0,-2,1,-3,-10,-11,-10,-15,-14
-2,1,2,0,-2,1,-3,-10,-11,-9,-15,-14
-2,1,2,1,-2,1,-3,-10,-11,-9,-15,-14
-2,1,2,1,-2,1,-3,-10,-11,-9,-15,-14
-2,0,2,1,-2,1,-3,-10,-11,-9,-16,-14
-2,0,2,2,-2,1,-3,-10,-11,-9,-16,-14
-2,0,2,2,-2,1,-3,-10,-11,-10,-17,-14
-2,0,2,2,-2,1,-3,-10,-11,-10,-17,-14
-2,0,2,2,-2,1,-3,-10,-11,-10,-17,-14
-2,0,2,2,-2,1,-3,-10,-11,-10,-17,-14
-2,0,2,2,-2,1,-3,-10,-11,-10,-17,-14
-2,0,2,2,-2,1,-3,-10,-11,-10,-17,-14
-3,0,3,2,-3,2,-2,-10,-11,-10,-17,-14
-4,0,4,2,-4,2,-2,-10,-11,-10,-17,-14
-4,0,5,2,-4,2,-2,-10,-11,-10,-17,-14
-4,0,4,2,-3,2,-2,-10,-12,-11,-17,-14
-3,0,2,1,-2,1,-3,-11,-12,-12,-18,-14
-2,0,2,1,-1,1,-3,-11,-12,-12,-18,-15
-3,0,2,1,-2,1,-3,-11,-12,-12,-18,-15
-3,0,3,1,-2,1,-3,-11,-12,-12,-18,-15
-2,0,3,1,-2,1,-3,-11,-12,-12,-18,-15
-2,0,3,1,-2,1,-3,-11,-12,-12,-18,-15
-2,0,2,0,-1,1,-3,-11,-12,-13,-19,-15
-2,0,2,0,-1,1,-3,-11,-12,-13,-19,-15
-2,0,2,1,-1,1,-3,-11,-12,-13,-18,-15
-2,0,2,1,-1,1,-3,-11,-12,-13,-18,-15
-3,0,2,2,-2,1,-3,-11,-12,-13,-18,-15
-3,0,2,2,-2,1,-3,-11,-12,-14,-18,-15
-3,0,2,2,-2,1,-3,-11,-12,-14,-20,-15
-2,0,2,2,-2,1,-3,-11,-12,-14,-23,-15
-2,0,2,2,-2,1,-3,-11,-12,-14,-26,-15
-2,0,2,2,-2,1,-3,-10,-12,-14,-29,-15
-2,0,2,1,-2,1,-3,-10,-12,-14,-30,-14
-2,0,3,1,-2,2,-3,-10,-12,-14,-32,-14
-2,1,3,1,-2,2,-2,-10,-12,-13,-33,-14
-2,1,4,1,-2,3,-2,-9,-12,-13,-34,-14
-3,2,4,1,-3,3,-2,-9,-11,-13,-35,-13
-3,2,5,1,-3,4,-1,-9,-11,-12,-36,-13
-3,3,6,1,-4,5,-1,-9,-10,-12,-37,-12
-4,3,7,0,-4,5,0,-9,-10,-11,-38,-12
-4,4,7,0,-5,6,0,-8,-10,-11,-39,-12
-4,4,7,0,-5,6,0,-8,-10,-11,-39,-11
-4,4,7,0,-4,6,0,-8,-10,-11,-40,-11
-4,4,7,0,-4,6,0,-8,-10,-11,-40,-11
-3,4,7,0,-4,6,0,-8,-10,-11,-41,-11
-3,4,6,0,-4,6,0,-8,-10,-11,-42,-11
-3,4,6,0,-5,6,0,-8,-10,-11,-43,-11
-3,4,6,0,-5,5,0,-8,-10,-11,-44,-11
-3,4,7,0,-5,6,0,-8,-10,-11,-45,-11
-3,4,7,0,-5,6,0,-8,-10,-11,-45,-11
-3,5,8,0,-5,6,0,-8,-10,-11,-45,-11
-3,5,8,0,-5,6,0,-8,-10,-11,-45,-11
-3,6,8,0,-5,6,0,-8,-10,-11,-46,-11
-3,6,8,0,-5,6,0,-8,-10,-11,-46,-11
-3,6,8,0,-5,7,0,-8,-9,-11,-46,-11
-3,6,8,-1,-5,7,0,-8,-9,-11,-47,-11
-3,6,8,-1,-5,7,-1,-8,-9,-11,-48,-10
-3,6,9,-1,-5,8,-1,-9,-9,-11,-48,-10
-3,7,9,-1,-5,8,-2,-10,-9,-11,-48,-10
-3,7,9,-1,-5,9,-3,-11,-10,-11,-48,-10
-3,7,9,-1,-6,9,-3,-11,-10,-11,-49,-10
-3,7,9,-1,-6,9,-4,-11,-11,-11,-49,-10
-3,7,9,-1,-6,9,-4,-11,-11,-11,-50,-10
-2,6,8,-1,-6,8,-4,-11,-11,-11,-51,-10
-2,6,8,-1,-6,8,-4,-11,-11,-12,-52,-10
-3,6,9,-1,-6,8,-4,-12,-12,-12,-53,-10
-3,6,9,-1,-6,8,-4,-12,-12,-13,-53,-10
-1,6,8,-2,-4,7,-5,-12,-13,-14,-54,-11
0,6,6,-2,-3,6,-6,-13,-14,-14,-55,-11
0,5,5,-2,-2,6,-6,-13,-14,-14,-56,-11
0,5,4,-2,-2,5,-6,-13,-14,-14,-56,-11
0,5,3,-2,-1,5,-7,-13,-14,-14,-56,-11
0,5,3,-2,-1,4,-7,-13,-14,-14,-57,-11
0,4,3,-2,-1,4,-7,-13,-14,-14,-58,-11
0,4,3,-2,-1,4,-7,-13,-14,-14,-58,-11
0,4,3,-1,-1,4,-7,-12,-14,-14,-58,-11
0,4,3,-1,-2,4,-7,-12,-13,-14,-57,-11
-1,4,4,0,-2,4,-6,-12,-13,-14,-57,-11
-2,4,4,0,-3,5,-6,-12,-13,-13,-56,-11
-2,4,5,0,-3,5,-5,-11,-13,-13,-56,-11
-2,4,6,0,-4,5,-5,-11,-13,-12,-57,-11
-2,3,6,0,-4,5,-4,-10,-13,-12,-57,-11
-2,3,5,0,-4,4,-4,-10,-13,-12,-58,-11
-2,2,5,0,-4,4,-4,-11,-13,-13,-58,-11
-3,1,4,1,-4,3,-4,-11,-13,-13,-58,-11
-3,1,3,1,-4,2,-3,-11,-13,-14,-58,-12
-3,0,3,2,-3,1,-3,-11,-13,-14,-58,-12
-3,0,2,2,-3,1,-3,-11,-14,-14,-59,-13
-3,-1,2,2,-2,0,-2,-11,-14,-15,-60,-13
-3,-1,1,2,-2,0,-2,-11,-15,-15,-61,-14
-3,-2,1,3,-2,0,-2,-11,-15,-16,-62,-14
-3,-2,1,3,-2,0,-2,-11,-15,-16,-62,-14
-3,-3,1,4,-2,-1,-2,-11,-15,-16,-63,-14
-3,-3,1,4,-2,-1,-2,-11,-16,-17,-63,-14
-3,-3,1,4,-2,-1,-2,-11,-16,-17,-63,-14
-4,-3,0,4,-2,-1,-2,-11,-17,-17,-63,-15
-4,-4,0,4,-2,-1,-2,-11,-17,-17,-63,-15
-5,-4,0,4,-2,-1,-2,-11,-17,-17,-64,-15
-5,-4,0,5,-2,-1,-1,-11,-17,-17,-64,-15
-6,-4,1,5,-3,-1,-1,-11,-16,-17,-63,-14
-7,-3,3,6,-5,-1,0,-10,-16,-16,-63,-14
-7,-3,3,6,-5,0,0,-10,-15,-16,-63,-14
-5,-3,1,5,-4,-1,-1,-11,-16,-17,-63,-14
-4,-3,0,5,-2,-1,-1,-11,-16,-17,-63,-14
-3,-3,0,4,-2,-1,-1,-11,-16,-17,-63,-15
-3,-3,0,4,-1,-1,-1,-11,-16,-17,-63,-15
-3,-3,0,4,-1,-1,-1,-11,-16,-17,-64,-15
-3,-3,0,4,-1,-1,-1,-11,-16,-17,-64,-15
-3,-3,0,4,-1,-1,-1,-11,-16,-17,-64,-15
-3,-3,0,4,-2,-1,-1,-10,-16,-17,-64,-15
-3,-2,0,3,-2,-1,-1,-10,-16,-17,-64,-15
-3,-2,1,3,-3,0,-1,-10,-16,-16,-63,-14
-4,-1,2,4,-3,0,-1,-10,-16,-16,-63,-14
-4,-1,3,4,-4,0,-1,-10,-16,-16,-64,-14
-4,-1,3,3,-4,0,-1,-10,-16,-16,-65,-14
-4,-1,3,3,-4,0,-1,-10,-16,-16,-65,-14
-4,-1,3,3,-4,0,-1,-10,-16,-16,-65,-14
-5,-2,2,4,-4,0,-1,-10,-16,-16,-66,-14
-5,-2,2,4,-4,0,-1,-10,-17,-16,-66,-14
-5,-2,2,4,-4,0,-1,-10,-17,-16,-66,-14
-5,-2,3,4,-4,0,-1,-10,-17,-16,-65,-14
-5,-2,3,4,-4,0,-1,-10,-17,-16,-65,-14
-5,-2,3,4,-4,0,-1,-10,-17,-16,-66,-14
-5,-2,2,4,-4,0,-1,-9,-17,-16,-66,-14
-5,-2,2,4,-3,0,-1,-9,-16,-16,-66,-14
-4,-2,1,4,-3,0,-1,-8,-15,-16,-65,-13
-4,-1,1,3,-3,0,-2,-6,-13,-14,-63,-12
-3,0,2,2,-2,1,-2,-4,-10,-10,-60,-10
-2,1,2,0,-2,2,-2,0,-4,-5,-56,-7
0,3,3,-1,-1,3,-2,4,2,1,-51,-4
2,5,3,-3,0,4,-2,9,9,7,-45,0
5,8,2,-5,1,5,-2,14,17,15,-39,5
8,10,2,-9,3,6,-3,21,27,25,-29,13
12,13,1,-12,5,7,-3,29,39,38,-18,22
16,17,0,-16,8,8,-4,38,54,53,-5,32
21,20,-2,-20,11,8,-5,46,68,67,9,42
27,23,-4,-24,15,9,-7,50,79,80,23,54
33,27,-6,-29,20,10,-10,46,83,89,37,66
39,32,-6,-35,23,12,-15,35,79,93,47,77
42,38,-4,-39,23,16,-21,13,63,88,53,86
42,43,0,-42,21,22,-27,-15,38,76,54,91
39,48,7,-43,16,28,-29,-42,12,61,49,90
35,52,16,-43,9,34,-29,-62,-10,44,37,83
28,55,27,-41,1,41,-27,-78,-31,26,19,70
19,56,36,-37,-8,45,-23,-90,-52,5,-3,52
10,52,41,-30,-15,46,-18,-99,-73,-18,-27,31
1,45,43,-23,-21,44,-13,-106,-95,-42,-53,9
-6,38,44,-15,-25,40,-10,-113,-116,-67,-78,-11
-12,30,42,-8,-27,35,-7,-121,-136,-90,-99,-28
-17,21,37,-1,-27,29,-6,-126,-151,-107,-115,-41
-20,11,31,5,-25,20,-6,-128,-161,-120,-126,-51
-22,0,23,12,-23,11,-5,-127,-166,-130,-134,-59
-23,-10,14,17,-19,2,-3,-124,-168,-136,-141,-67
-24,-18,6,22,-16,-6,-2,-120,-167,-140,-146,-72
-25,-25,1,26,-14,-12,0,-115,-164,-140,-149,-76
-27,-30,-3,29,-12,-17,0,-110,-159,-138,-150,-78
-28,-34,-6,31,-11,-20,1,-104,-153,-135,-151,-80
-29,-37,-8,34,-10,-23,1,-97,-145,-131,-150,-80
-29,-39,-9,35,-10,-24,0,-92,-138,-126,-148,-79
-29,-39,-10,34,-9,-24,-2,-87,-129,-119,-143,-77
-27,-37,-10,33,-8,-24,-4,-81,-120,-111,-136,-73
-26,-35,-10,31,-8,-23,-6,-75,-110,-102,-128,-68
-24,-33,-10,29,-7,-21,-7,-68,-99,-93,-120,-63
-22,-30,-9,26,-7,-19,-8,-60,-89,-83,-114,-58
-19,-25,-8,23,-6,-16,-8,-51,-78,-74,-106,-52
-16,-21,-6,20,-5,-13,-8,-43,-67,-65,-98,-47
-14,-17,-4,17,-5,-11,-7,-36,-57,-56,-89,-41
-12,-14,-3,15,-4,-9,-5,-30,-48,-48,-79,-36
-11,-12,-2,12,-4,-7,-3,-23,-40,-41,-70,-32
-10,-11,-1,10,-4,-6,-1,-17,-32,-34,-62,-29
-9,-9,-1,9,-4,-5,0,-11,-25,-29,-55,-26
-8,-8,0,8,-4,-4,1,-6,-20,-25,-50,-24
-8,-6,0,7,-3,-3,2,-3,-15,-21,-47,-21
-6,-5,0,6,-3,-3,3,0,-11,-18,-44,-19
-5,-4,0,5,-2,-3,3,2,-8,-15,-41,-17
-4,-4,-1,4,-1,-3,4,3,-6,-14,-38,-16
-3,-4,-1,4,-1,-3,4,4,-4,-12,-34,-15
-3,-4,-2,4,-1,-3,5,5,-3,-11,-31,-14
-3,-4,-2,4,-1,-3,5,6,-1,-9,-28,-13
-3,-4,-2,4,-1,-3,5,7,0,-8,-26,-13
-3,-4,-2,4,-1,-3,5,8,1,-7,-25,-12
-3,-4,-2,4,0,-4,5,9,2,-7,-24,-12
-2,-3,-3,4,0,-4,5,10,3,-6,-22,-11
-1,-3,-3,3,1,-3,5,11,4,-5,-19,-10
-1,-2,-2,3,1,-3,5,11,5,-4,-16,-10
-1,-3,-2,3,1,-3,5,12,6,-3,-13,-9
-1,-3,-3,3,1,-3,5,12,7,-2,-10,-9
0,-3,-3,2,1,-3,5,12,7,-2,-8,-9
0,-3,-4,2,2,-3,5,13,8,-1,-7,-9
0,-3,-4,2,2,-3,5,13,8,-1,-6,-9
0,-3,-4,2,2,-3,6,14,9,-1,-5,-9
1,-2,-4,2,2,-3,6,15,10,-1,-3,-9
0,-2,-3,2,1,-3,7,15,10,0,0,-9
0,-2,-3,2,1,-3,7,15,11,0,3,-8
-1,-2,-2,2,0,-3,7,16,11,1,6,-8
-2,-2,-1,3,0,-2,7,16,12,1,9,-7
-2,-2,-1,3,0,-2,7,17,13,2,9,-6
0,-1,-2,2,0,-2,7,17,13,2,9,-6
1,-1,-3,1,1,-2,7,17,14,2,9,-6
1,-1,-3,0,2,-2,7,17,14,2,10,-5
1,-1,-3,0,2,-2,7,17,15,2,11,-5
1,-1,-3,0,2,-2,6,17,15,2,13,-5
1,-1,-4,0,3,-3,6,17,15,3,14,-5
1,-1,-4,0,3,-3,6,17,16,3,16,-5
1,-1,-4,0,3,-3,6,17,17,4,16,-5
1,-1,-4,0,3,-3,6,18,17,4,16,-4
1,-1,-4,1,2,-2,7,19,18,5,16,-4
1,-1,-3,1,2,-2,7,19,19,5,16,-4
1,-1,-3,1,2,-2,7,20,20,6,17,-4
1,-1,-3,1,2,-2,7,20,21,6,17,-4
1,0,-3,0,2,-2,7,20,21,6,18,-4
1,0,-3,0,2,-2,7,20,22,7,19,-3
1,0,-3,0,2,-2,7,20,22,7,19,-3
1,0,-3,0,2,-2,7,21,23,8,19,-3
2,0,-3,0,2,-2,7,21,23,8,18,-3
2,0,-3,0,2,-1,7,22,24,8,17,-2
2,0,-2,0,2,-1,7,23,25,9,17,-2
2,0,-2,0,2,-1,6,23,26,9,18,-2
2,1,-2,-1,2,-1,6,24,26,10,18,-2
2,1,-2,-1,2,-1,5,24,26,10,19,-1
3,1,-2,-1,2,-1,5,25,27,11,19,-1
3,1,-2,-1,2,-1,5,25,28,12,19,0
3,1,-2,-1,2,-1,5,26,28,12,18,0
3,1,-3,-1,3,-1,5,26,29,13,18,0
4,2,-3,-2,3,-1,5,27,29,14,18,0
4,2,-3,-2,3,-1,5,28,30,15,18,0
4,2,-4,-2,3,-1,4,28,31,16,18,0
4,2,-4,-2,3,-1,4,29,32,16,18,1
5,2,-4,-2,3,-1,4,30,32,17,18,1
5,3,-4,-3,4,0,4,31,33,18,17,2
5,3,-4,-3,4,0,4,31,34,19,15,2
5,3,-4,-3,4,0,4,32,35,19,14,2
5,3,-3,-3,4,0,4,33,36,20,13,2
5,4,-3,-4,4,0,4,34,38,21,13,3
6,5,-3,-4,4,0,4,35,39,22,12,3
7,5,-3,-5,5,0,4,36,40,23,12,4
7,5,-3,-6,5,0,4,37,41,24,12,4
8,6,-3,-6,5,1,4,38,43,25,12,5
8,6,-2,-7,5,1,4,39,44,27,12,5
8,7,-2,-7,5,2,4,40,45,28,11,6
8,7,-2,-7,5,2,4,41,47,29,11,7
8,7,-2,-7,5,2,4,42,48,31,11,8
9,8,-2,-8,5,3,4,43,50,32,11,8
10,9,-2,-9,5,3,4,44,51,34,12,9
11,10,-2,-9,5,4,3,45,53,35,13,10
11,11,-2,-10,5,4,3,46,54,37,14,11
12,12,-1,-10,5,5,3,47,56,38,14,12
12,12,-1,-11,6,6,3,48,57,39,15,13
13,13,0,-12,6,6,3,48,59,41,16,14
13,14,0,-13,6,7,3,49,60,42,17,15
13,14,0,-14,6,7,3,50,62,44,18,16
13,15,0,-14,6,8,3,50,63,45,19,17
14,16,1,-14,6,8,3,51,64,46,20,18
14,17,1,-15,6,9,2,51,65,47,21,19
15,17,2,-15,6,9,2,52,65,47,22,19
15,18,3,-16,6,10,1,52,66,48,23,20
15,19,4,-16,5,11,1,53,68,49,24,21
15,20,4,-17,5,12,1,53,69,50,25,22
16,21,3,-17,6,12,0,53,69,51,25,23
17,21,3,-18,7,12,0,53,69,52,26,23
18,22,2,-19,8,12,0,53,69,52,27,23
18,22,3,-20,7,13,-1,53,69,53,28,24
18,23,3,-20,7,13,-1,53,69,53,29,24
19,24,3,-20,7,13,-2,52,69,53,31,24
20,24,3,-21,7,13,-2,51,69,53,33,24
20,25,3,-22,8,13,-3,51,69,53,36,25
20,25,3,-22,8,14,-3,51,68,53,38,26
20,26,4,-22,7,15,-4,50,68,53,41,26
20,26,5,-22,7,15,-4,50,67,53,43,27
19,26,5,-22,7,15,-4,49,67,53,46,27
19,26,6,-22,7,15,-5,48,66,52,47,27
19,27,6,-22,6,15,-5,47,65,52,48,27
19,27,6,-22,6,16,-5,46,64,52,49,27
19,27,7,-22,5,16,-5,45,63,51,49,27
18,27,7,-22,5,16,-5,44,61,50,50,28
18,27,7,-22,5,17,-6,43,60,50,50,28
18,27,7,-22,5,17,-6,41,58,49,51,28
18,27,8,-22,5,18,-6,40,56,47,51,27
17,27,8,-21,4,18,-6,38,55,46,52,27
17,27,8,-21,4,17,-6,37,53,45,51,26
16,27,9,-21,3,17,-6,35,51,43,50,26
15,26,9,-20,3,17,-6,33,49,42,49,25
15,26,9,-20,2,17,-6,31,47,40,49,25
15,25,9,-19,2,17,-7,29,44,39,48,24
14,25,9,-19,2,17,-7,27,42,37,48,23
13,24,9,-18,1,17,-7,25,39,35,47,22
12,24,9,-17,1,17,-7,23,37,33,46,22
12,23,9,-16,1,16,-7,22,34,31,45,21
11,22,9,-15,1,15,-7,20,31,29,43,19
10,21,9,-14,0,15,-7,18,29,27,41,18
9,20,9,-14,0,15,-7,16,26,26,39,17
8,19,10,-13,-1,15,-6,15,24,24,38,16
7,19,10,-13,-1,14,-6,14,22,23,37,15
7,18,9,-13,-1,14,-6,12,19,21,36,14
7,18,9,-12,-1,13,-5,10,17,19,36,13
6,17,9,-12,-1,13,-5,9,15,17,35,12
6,17,9,-11,-2,13,-4,7,13,16,33,11
5,16,9,-10,-2,12,-4,6,11,14,31,10
4,15,9,-9,-3,12,-3,5,9,13,30,9
3,14,9,-8,-3,11,-3,4,8,11,28,8
3,13,8,-7,-3,11,-3,3,6,10,27,7
2,12,8,-7,-3,10,-3,2,4,8,26,6
2,11,8,-6,-3,10,-2,1,2,7,25,5
1,10,8,-5,-4,9,-2,0,0,6,24,4
0,10,8,-4,-4,9,-1,-1,-1,5,23,4
0,9,7,-4,-3,8,-1,-2,-2,4,21,3
0,9,7,-4,-3,8,-1,-3,-3,3,19,2
0,8,6,-3,-3,7,-1,-3,-4,2,18,1
0,7,6,-3,-3,6,-1,-4,-5,1,18,1
-1,7,6,-2,-3,6,-1,-4,-5,0,17,0
-1,6,6,-2,-3,5,-1,-4,-6,0,17,0
-2,6,6,-1,-3,5,-1,-5,-7,-1,17,-1
-2,6,6,-1,-4,5,-1,-5,-8,-1,16,-1
-2,5,6,-1,-4,5,-1,-6,-9,-2,15,-2
-2,5,5,-1,-4,5,-1,-6,-10,-2,14,-2
-2,5,5,-1,-3,5,-1,-7,-10,-2,13,-3
-2,5,5,-1,-3,5,0,-7,-11,-3,13,-3
-3,4,6,0,-4,5,0,-7,-11,-3,12,-4
-3,4,6,0,-4,5,0,-7,-11,-3,12,-4
-3,4,6,0,-4,5,0,-7,-11,-3,13,-4
-4,4,6,0,-4,5,0,-7,-11,-3,13,-4
-4,4,6,0,-4,5,0,-7,-11,-3,13,-4
-4,4,6,0,-4,5,0,-7,-12,-3,13,-4
-4,4,6,0,-4,5,0,-7,-12,-3,12,-5
-4,4,6,0,-4,5,0,-7,-12,-3,12,-5
-4,4,6,0,-4,5,0,-7,-13,-4,12,-5
-4,4,6,0,-5,5,0,-7,-13,-4,12,-5
-4,4,6,0,-5,5,0,-7,-13,-4,13,-5
-4,4,6,0,-5,5,0,-7,-13,-4,13,-6
-4,4,5,0,-5,5,0,-7,-13,-5,12,-6
-4,4,5,0,-4,5,0,-7,-14,-5,12,-6
-4,4,5,0,-5,5,0,-7,-14,-5,12,-6
-4,4,6,1,-5,5,0,-7,-14,-5,13,-6
-4,4,6,1,-5,5,0,-7,-14,-5,13,-7
-3,4,5,1,-5,5,0,-7,-14,-5,13,-7
-3,3,5,0,-4,4,0,-7,-14,-5,14,-7
-3,3,5,0,-4,4,0,-7,-14,-5,14,-7
-3,3,5,0,-4,4,0,-7,-14,-5,14,-7
-3,3,5,0,-4,4,0,-7,-14,-5,14,-7
-4,3,5,1,-4,4,0,-7,-14,-5,14,-7
-4,2,5,1,-5,4,0,-7,-14,-5,15,-7
-4,2,5,1,-5,4,0,-6,-14,-5,15,-7
-4,2,5,1,-5,4,0,-6,-14,-5,15,-7
-4,2,5,1,-5,4,0,-6,-14,-5,16,-7
-4,3,5,1,-5,4,0,-6,-14,-4,16,-7
-4,3,5,1,-5,4,0,-6,-14,-4,17,-6
-3,3,4,1,-4,4,0,-6,-14,-4,17,-6
-3,2,4,1,-4,3,0,-6,-14,-4,17,-6
-4,2,5,1,-5,3,0,-5,-13,-3,17,-6
-5,2,6,1,-5,4,0,-5,-13,-3,17,-6
-5,2,6,1,-6,4,0,-4,-12,-2,18,-6
-5,2,6,1,-5,4,0,-4,-12,-2,18,-6
-4,2,5,1,-4,4,0,-4,-12,-2,18,-6
-3,2,4,1,-3,4,0,-4,-12,-2,18,-6
-3,2,4,1,-3,4,0,-4,-12,-2,18,-6
-3,3,4,1,-3,4,1,-4,-12,-2,17,-6
-3,3,4,1,-3,4,1,-4,-12,-2,17,-6
-3,3,4,0,-3,4,1,-4,-12,-2,17,-6
-3,3,4,0,-3,4,1,-4,-12,-2,17,-6
-3,3,4,0,-3,4,1,-4,-12,-1,17,-6
-3,3,4,0,-4,4,1,-4,-11,-1,18,-6
-3,3,5,0,-4,4,1,-4,-11,0,18,-6
-3,3,5,0,-4,4,1,-4,-11,0,18,-6
-3,3,5,0,-4,4,1,-3,-10,0,18,-6
-3,3,5,0,-4,4,1,-3,-10,0,18,-6
-3,3,5,0,-4,4,1,-3,-10,1,18,-6
-4,3,5,0,-4,4,1,-3,-10,1,18,-6
-4,3,5,1,-5,4,1,-3,-9,1,18,-6
-4,3,5,1,-5,4,1,-3,-9,1,18,-6
-4,3,5,0,-4,4,1,-2,-9,1,19,-6
-3,3,5,0,-4,4,1,-2,-9,1,19,-6
-3,3,6,0,-4,4,1,-2,-9,2,20,-6
-3,3,6,0,-4,4,1,-2,-9,2,20,-6
-3,3,5,0,-4,4,1,-2,-9,2,20,-6
-3,3,5,0,-4,4,1,-2,-8,2,21,-5
-3,3,5,0,-3,4,1,-2,-8,2,21,-5
-3,3,4,0,-3,4,1,-2,-8,2,21,-5
-3,3,4,0,-3,4,1,-2,-8,2,21,-5
-3,3,4,0,-3,4,1,-2,-8,2,22,-4
-3,2,4,0,-3,3,1,-2,-7,2,22,-4
-3,2,4,0,-3,3,1,-2,-7,1,22,-4
-3,2,4,0,-3,3,1,-2,-7,1,22,-4
-3,2,4,0,-3,3,1,-2,-7,1,22,-4
-3,2,5,0,-3,4,1,-2,-7,1,22,-4
-3,2,5,0,-3,4,1,-2,-7,1,22,-4
-3,2,5,0,-3,4,1,-2,-7,1,21,-4
-3,2,6,0,-4,4,1,-2,-7,1,21,-4
-3,2,6,0,-4,4,1,-2,-7,1,21,-4
-3,3,6,0,-4,4,1,-2,-8,0,20,-5
-2,3,6,0,-3,4,0,-3,-8,0,19,-5
-2,3,6,0,-3,4,0,-3,-8,0,18,-5
-2,3,6,0,-3,4,0,-3,-8,0,18,-5
-2,3,6,0,-3,4,0,-3,-8,0,17,-5
-3,4,6,0,-4,4,0,-3,-8,0,17,-5
-3,4,7,0,-4,5,0,-3,-8,0,18,-5
-4,4,7,0,-4,5,0,-3,-8,0,18,-5
-4,4,6,0,-4,5,0,-3,-8,0,18,-5
-4,4,6,0,-4,5,0,-3,-8,0,17,-5
-4,4,6,0,-4,5,0,-3,-8,0,17,-5
-3,4,6,0,-4,5,0,-3,-8,-1,17,-6
-3,4,6,0,-4,5,0,-3,-9,-1,17,-6
-3,4,6,0,-4,5,0,-3,-9,-1,17,-6
-3,4,6,0,-4,5,0,-3,-10,-2,17,-6
-3,4,6,0,-4,5,0,-3,-10,-2,18,-6
-3,4,6,0,-4,5,0,-3,-10,-2,18,-6
-3,4,6,0,-4,5,0,-3,-10,-2,18,-6
-4,3,6,0,-4,4,0,-4,-10,-2,18,-6
-4,3,6,0,-4,4,0,-4,-10,-2,19,-6
-4,2,6,0,-4,3,1,-4,-10,-2,19,-6
-4,2,5,0,-4,3,1,-3,-10,-2,20,-6
-4,1,5,0,-4,3,1,-3,-10,-2,20,-6
-4,1,5,0,-4,3,1,-3,-9,-2,21,-6
-4,1,5,0,-4,3,1,-3,-9,-2,22,-6
-4,1,5,0,-4,3,1,-3,-9,-2,22,-6
-4,1,5,1,-4,3,1,-3,-9,-2,23,-6
-4,1,5,1,-4,3,2,-3,-9,-2,23,-6
-4,1,5,1,-4,3,2,-3,-9,-2,24,-6
-4,1,5,1,-3,2,2,-4,-10,-2,24,-6
-3,1,4,1,-3,2,2,-4,-10,-2,24,-6
-3,1,4,1,-3,2,2,-4,-10,-2,24,-6
-3,1,4,1,-3,2,2,-4,-10,-2,25,-6
-4,1,4,1,-3,2,2,-4,-10,-2,25,-6
-4,0,4,1,-2,2,2,-4,-10,-3,25,-6
-3,0,3,1,-2,1,2,-4,-10,-3,25,-6
-3,0,2,1,-1,0,2,-4,-10,-3,25,-6
-3,-1,2,1,-1,0,3,-4,-10,-3,25,-6
-3,-1,2,1,-2,0,3,-4,-10,-3,25,-5
-3,-1,2,2,-2,0,3,-4,-10,-3,25,-5
-3,-1,2,2,-2,0,3,-4,-10,-3,26,-5
-3,-1,2,2,-2,0,3,-4,-10,-3,26,-5
-3,-1,2,2,-2,0,3,-4,-10,-3,26,-5
-3,-1,2,2,-2,0,3,-4,-10,-3,26,-5
-4,-1,2,2,-2,0,3,-4,-10,-3,27,-5
-4,-1,2,2,-2,0,3,-4,-10,-2,27,-4
-4,-1,2,2,-2,0,3,-4,-10,-2,27,-4
-4,-1,3,2,-2,0,3,-4,-10,-2,27,-3
-4,-1,3,2,-2,0,3,-4,-10,-2,28,-3
-4,-1,3,2,-2,0,3,-4,-10,-2,28,-3
-5,-1,3,2,-3,0,3,-4,-10,-2,28,-3
-6,-1,3,3,-4,0,3,-4,-10,-1,28,-3
-6,-2,3,3,-4,0,3,-4,-10,-1,28,-3
-5,-2,2,3,-3,0,3,-4,-10,-1,28,-4
-4,-2,1,2,-3,0,3,-4,-10,-1,28,-4
-4,-2,1,2,-2,0,3,-4,-10,-1,28,-4
-3,-2,1,2,-2,0,3,-4,-10,-1,28,-4
-2,-2,0,2,-1,-1,2,-4,-10,-1,27,-4
-2,-2,0,2,0,-1,2,-4,-10,-1,27,-4
-2,-2,0,2,0,-1,2,-4,-10,-1,26,-4
-2,-2,0,2,0,-1,2,-4,-10,-1,26,-4
-3,-2,0,2,-1,-1,2,-4,-10,0,26,-4
-3,-2,0,2,-1,-1,2,-4,-10,0,26,-4
-3,-2,1,2,-2,-1,2,-4,-10,0,26,-4
-4,-2,1,3,-2,-1,2,-4,-10,1,26,-4
-4,-2,1,3,-2,-1,2,-4,-10,1,26,-4
-4,-2,1,3,-2,-1,2,-4,-10,1,26,-4
-3,-2,1,2,-2,-1,2,-4,-10,1,26,-4
-3,-2,1,2,-2,-1,2,-4,-10,1,26,-4
-3,-2,1,2,-2,-1,2,-4,-10,1,26,-4
-3,-2,1,2,-2,-1,2,-4,-10,1,26,-4
-3,-2,1,2,-2,-1,2,-4,-10,1,26,-4
-3,-2,1,2,-2,-1,2,-4,-10,1,26,-4
-3,-2,1,2,-2,-1,2,-4,-10,1,26,-4
-4,-2,2,3,-3,-1,2,-4,-10,1,27,-3
-4,-2,2,3,-3,-1,2,-4,-10,1,26,-3
-4,-2,1,3,-2,-1,2,-4,-10,1,26,-3
-3,-2,1,3,-2,-1,2,-4,-10,1,26,-3
-4,-2,1,3,-2,-1,3,-4,-10,1,26,-3
-4,-2,1,3,-3,-1,3,-3,-10,1,26,-3
-4,-3,1,3,-3,-1,3,-3,-10,1,26,-3
-4,-3,0,3,-2,-2,3,-4,-10,0,26,-3
-3,-3,-1,3,-1,-2,2,-4,-10,0,26,-4
-3,-3,-1,3,-1,-2,2,-5,-10,0,26,-4
-3,-3,0,3,-1,-2,2,-5,-10,0,26,-4
-3,-3,0,3,-2,-1,2,-5,-10,0,26,-4
-3,-3,0,3,-2,-1,2,-5,-10,0,26,-4
-3,-3,0,3,-2,-1,2,-5,-10,0,27,-4
-3,-3,0,3,-2,-1,2,-5,-10,0,27,-4
-3,-3,0,3,-2,-1,2,-5,-10,0,27,-4
-3,-3,0,3,-2,-1,2,-4,-10,0,27,-4
-3,-3,0,3,-2,-1,2,-4,-10,0,27,-4
-3,-3,0,3,-2,-1,2,-4,-10,0,26,-4
-3,-3,0,3,-2,-1,2,-4,-10,0,26,-4
-3,-3,0,3,-2,-1,2,-4,-10,0,26,-4
-3,-3,0,3,-2,-1,2,-4,-10,0,26,-4
-3,-3,0,3,-2,-1,2,-4,-10,0,26,-4
-3,-3,0,3,-2,-2,2,-4,-10,0,26,-4
-4,-3,0,3,-2,-2,2,-4,-10,0,26,-4
-4,-3,0,3,-2,-2,2,-4,-10,0,26,-4
-4,-3,0,3,-2,-2,2,-4,-10,0,25,-4
-4,-3,0,3,-2,-2,2,-4,-10,0,25,-4
-4,-3,0,3,-2,-2,2,-4,-10,0,25,-4
-4,-3,0,3,-2,-2,2,-4,-10,0,25,-4
-4,-3,0,3,-2,-2,2,-4,-10,0,25,-4
-4,-3,0,3,-2,-2,2,-4,-10,0,25,-4
-4,-3,0,3,-2,-2,2,-4,-10,0,26,-4
-4,-3,0,3,-2,-2,2,-4,-10,0,26,-4
-4,-3,0,3,-1,-2,2,-4,-10,-1,25,-4
-4,-3,0,3,-1,-1,2,-4,-10,0,25,-4
-4,-3,1,3,-2,-1,2,-4,-9,0,25,-4
-4,-3,1,3,-2,-1,2,-4,-9,0,25,-4
-4,-3,1,3,-2,-1,2,-4,-9,0,25,-4
-3,-3,0,3,-2,-1,2,-4,-9,-1,24,-4
-3,-3,0,3,-2,-1,2,-4,-9,-1,24,-4
-4,-3,0,3,-2,-1,2,-4,-9,-1,24,-4
-4,-3,1,3,-3,-1,2,-4,-9,-1,24,-4
-4,-3,1,3,-3,-1,2,-4,-9,-1,24,-4
-4,-3,0,3,-2,-1,2,-4,-9,-1,24,-4
-3,-3,0,3,-1,-2,2,-4,-9,-1,24,-4
-3,-3,0,2,-1,-2,2,-4,-10,-1,24,-4
-2,-3,-1,2,0,-2,2,-4,-10,-1,23,-4
-2,-3,-1,2,0,-2,2,-4,-10,-1,23,-4
-2,-3,-1,2,0,-2,2,-4,-10,-1,23,-4
-2,-3,-1,2,0,-2,2,-4,-10,-1,23,-4
-2,-3,-1,2,0,-2,2,-4,-10,-2,23,-4
-2,-3,-1,2,0,-2,2,-4,-10,-2,22,-4
-2,-3,-1,2,0,-2,2,-4,-10,-2,22,-4
-2,-3,-1,2,0,-2,2,-4,-10,-2,22,-5
-2,-3,0,2,-1,-2,2,-4,-10,-2,22,-5
-2,-3,0,2,-1,-2,2,-4,-10,-2,22,-5
-2,-3,0,2,-1,-2,2,-4,-10,-2,22,-5
-3,-3,0,2,-1,-2,2,-4,-10,-2,22,-5
-3,-3,0,3,-1,-2,2,-4,-10,-2,22,-5
-3,-3,0,3,-1,-2,2,-4,-10,-2,22,-5
-3,-3,0,3,-1,-2,2,-4,-10,-2,21,-5
-3,-3,0,3,-1,-2,2,-4,-10,-3,21,-6
-3,-3,0,3,-2,-2,2,-4,-10,-3,21,-6
-3,-3,0,3,-2,-2,2,-4,-10,-3,21,-6
-4,-3,0,4,-2,-2,2,-4,-10,-3,21,-6
-4,-3,0,4,-2,-2,2,-4,-10,-3,21,-6
-3,-3,0,3,-1,-2,2,-4,-10,-3,21,-5
-3,-3,0,3,-1,-2,2,-4,-10,-3,21,-5
-3,-3,0,3,-1,-2,2,-4,-10,-3,21,-5
-3,-3,0,3,-1,-2,2,-4,-10,-3,21,-5
-3,-4,0,3,-1,-2,2,-4,-10,-3,21,-5
-3,-4,0,3,-1,-2,2,-4,-10,-3,21,-5
-3,-3,0,3,-1,-2,2,-4,-10,-3,21,-5
-3,-3,0,3,-1,-2,1,-4,-10,-3,21,-6
-3,-3,0,3,-1,-2,1,-4,-10,-3,21,-6
-3,-3,0,3,-2,-2,2,-4,-10,-3,21,-6
-3,-4,0,3,-2,-2,2,-4,-10,-4,21,-6
-3,-4,0,3,-2,-2,2,-4,-10,-4,21,-6
-3,-4,0,3,-2,-2,2,-4,-10,-4,21,-6
-3,-3,0,3,-2,-1,2,-4,-10,-4,21,-6
-3,-3,1,3,-2,-1,2,-3,-10,-4,22,-6
-4,-3,2,4,-3,0,2,-3,-10,-4,23,-6
-5,-3,2,4,-3,0,2,-3,-10,-4,24,-6
-5,-3,2,4,-3,0,2,-3,-10,-4,24,-6
-4,-3,0,3,-2,-1,2,-4,-10,-4,23,-7
-3,-3,0,3,-1,-2,2,-4,-10,-4,23,-7
-3,-3,-1,3,0,-2,2,-4,-10,-4,23,-7
-3,-4,-1,3,0,-3,2,-4,-10,-4,24,-7
-3,-4,-1,3,0,-3,2,-4,-10,-4,24,-6
-3,-3,-1,2,0,-3,2,-4,-10,-4,25,-6
-3,-3,-1,2,0,-3,2,-4,-10,-4,26,-6
-3,-3,-1,2,0,-3,2,-4,-10,-5,27,-6
-3,-3,-1,2,0,-2,2,-3,-10,-5,27,-6
-3,-3,0,2,0,-2,3,-3,-10,-4,27,-5
-3,-3,0,2,0,-2,3,-3,-10,-4,28,-5
-3,-3,0,2,-1,-2,3,-3,-9,-4,28,-5
-3,-3,0,2,-1,-1,3,-3,-9,-4,29,-5
-3,-3,0,2,-1,-1,3,-2,-9,-4,29,-5
-3,-2,1,2,-1,-1,3,-2,-9,-4,30,-5
-3,-2,1,2,-1,0,4,-2,-8,-3,31,-4
-3,-1,1,2,-1,0,4,-2,-8,-3,31,-4
-3,-1,2,2,-2,0,4,-2,-8,-2,31,-3
-4,0,3,2,-3,1,5,-2,-7,-2,32,-3
-4,0,4,2,-3,1,5,-2,-7,-1,32,-2
-4,0,4,1,-3,1,4,-2,-7,-1,31,-2
-4,0,4,1,-3,1,4,-1,-7,-2,31,-3
-4,0,4,1,-3,1,4,-1,-7,-2,31,-3
-4,0,4,1,-3,2,4,-1,-7,-2,31,-3
-3,1,4,1,-3,2,4,-1,-7,-2,30,-4
-3,1,4,1,-3,2,4,-1,-7,-2,30,-4
-2,1,4,1,-3,2,4,-1,-7,-2,29,-4
-2,1,4,0,-3,2,4,-1,-7,-2,29,-4
-2,1,4,0,-3,2,4,-1,-7,-2,28,-4
-3,1,4,0,-3,2,4,-1,-7,-2,28,-4
-3,1,4,0,-3,3,4,-1,-7,-2,28,-4
-3,1,5,0,-4,3,4,-1,-7,-2,28,-4
-3,2,6,0,-4,3,4,-1,-7,-1,27,-3
-3,3,6,0,-4,4,4,-1,-7,-1,26,-3
-3,3,7,-1,-4,4,4,-2,-7,-1,26,-3
-3,4,7,-1,-4,5,3,-3,-7,0,26,-2
-3,4,7,-1,-5,5,3,-3,-7,0,25,-2
-3,4,7,-1,-5,5,2,-4,-8,0,24,-2
-3,4,7,-1,-4,5,2,-5,-8,-1,23,-2
-3,4,7,-1,-4,5,1,-5,-9,-1,22,-2
-3,4,7,-1,-4,5,1,-5,-9,-1,21,-2
-3,4,7,-1,-4,5,0,-6,-9,-1,20,-3
-3,4,7,-1,-5,5,0,-6,-10,-2,19,-3
-3,4,7,-1,-5,5,0,-7,-10,-2,18,-4
-2,4,7,-1,-5,5,0,-7,-10,-3,17,-4
-2,4,6,-1,-4,5,-1,-7,-10,-3,16,-5
-1,4,5,-2,-3,5,-2,-7,-11,-4,15,-5
0,4,4,-2,-2,4,-3,-7,-11,-4,15,-5
0,3,3,-2,-2,4,-3,-7,-11,-4,14,-5
0,3,3,-2,-1,3,-4,-7,-11,-4,12,-5
0,3,3,-2,-1,3,-4,-8,-12,-5,11,-6
0,3,2,-2,-1,2,-4,-8,-12,-5,10,-6
0,2,2,-2,-1,2,-4,-8,-12,-5,9,-7
0,2,2,-2,-1,2,-4,-8,-12,-5,9,-7
0,2,2,-1,-1,2,-4,-8,-12,-6,9,-7
0,2,3,-1,-2,2,-4,-8,-12,-6,10,-6
0,2,4,0,-2,2,-3,-7,-12,-6,10,-6
-1,2,4,0,-3,3,-2,-7,-11,-5,10,-5
-1,2,5,0,-3,3,-2,-6,-11,-5,10,-5
-2,2,5,0,-4,3,-1,-6,-10,-5,10,-5
-2,2,5,0,-4,3,-1,-6,-10,-5,10,-5
-3,2,5,0,-4,3,-1,-6,-10,-5,9,-6
-3,1,5,1,-4,3,-1,-6,-10,-6,9,-6
-3,0,5,1,-4,2,-1,-6,-10,-6,9,-6
-3,-1,4,1,-4,1,0,-6,-11,-6,9,-7
-4,-2,3,2,-4,0,0,-7,-11,-6,8,-7
-4,-3,2,3,-4,0,0,-7,-12,-7,7,-8
-4,-3,2,3,-3,-1,0,-7,-12,-8,6,-8
-4,-4,1,4,-3,-1,0,-7,-13,-8,6,-8
-4,-4,1,4,-3,-1,0,-7,-13,-9,6,-8
-4,-4,1,4,-3,-1,0,-7,-13,-9,6,-9
-4,-4,1,4,-3,-1,0,-7,-13,-10,6,-9
-4,-4,1,4,-3,-2,0,-8,-14,-10,5,-9
-5,-4,1,4,-3,-2,0,-8,-14,-10,5,-10
-5,-5,1,5,-3,-2,0,-8,-14,-10,5,-10
-5,-5,1,5,-3,-2,0,-8,-14,-10,5,-10
-5,-5,1,5,-3,-2,0,-7,-14,-10,5,-10
-6,-5,1,5,-3,-2,1,-7,-14,-10,6,-10
-6,-5,1,5,-3,-2,1,-7,-14,-10,6,-10
-5,-5,1,5,-3,-2,1,-7,-14,-10,7,-10
-5,-5,0,5,-3,-2,1,-7,-14,-10,7,-10
-5,-5,0,5,-3,-2,1,-7,-14,-10,8,-10
-6,-5,1,6,-3,-2,1,-7,-14,-10,8,-10
-6,-5,1,6,-3,-2,1,-7,-14,-10,8,-10
-6,-6,1,6,-3,-2,1,-7,-14,-10,8,-10
-6,-6,0,6,-3,-3,1,-7,-14,-10,8,-10
-6,-6,0,6,-3,-2,1,-7,-13,-10,8,-10
-6,-6,1,6,-3,-2,1,-7,-13,-10,9,-9
-7,-6,1,6,-4,-2,1,-7,-13,-10,9,-9
-6,-5,1,6,-4,-2,1,-7,-13,-10,9,-9
-5,-5,0,5,-3,-2,1,-7,-13,-10,10,-9
-5,-6,0,6,-3,-3,1,-6,-13,-10,10,-9
-5,-6,0,6,-3,-3,1,-6,-13,-10,10,-9
-6,-7,0,7,-3,-3,1,-6,-12,-10,11,-8
-6,-7,0,7,-4,-3,1,-6,-12,-10,11,-8
-6,-7,0,7,-4,-3,1,-6,-12,-10,12,-8
-7,-7,0,7,-4,-3,2,-5,-12,-9,12,-8
-7,-7,0,7,-4,-3,2,-5,-12,-9,13,-8
-7,-7,0,7,-4,-3,2,-5,-12,-9,13,-8
-6,-7,0,7,-3,-4,2,-6,-12,-10,13,-8
-5,-7,-1,6,-2,-4,2,-6,-12,-10,13,-8
-4,-7,-2,6,-1,-4,2,-6,-12,-10,13,-8
-4,-8,-2,6,-1,-4,2,-5,-12,-10,14,-7
-3,-7,-2,5,-1,-4,2,-5,-11,-9,14,-7
-3,-6,-2,4,0,-4,1,-4,-9,-7,16,-6
-2,-4,-2,3,0,-3,1,-1,-5,-3,19,-4
0,-3,-2,1,0,-2,1,2,0,1,23,-1
1,-1,-2,0,1,-2,1,7,5,6,27,2
3,0,-2,-1,2,-1,1,11,12,12,32,6
5,1,-2,-3,4,0,0,16,19,19,39,12
8,3,-3,-6,6,0,0,22,29,29,49,19
12,6,-4,-9,8,1,0,30,41,41,60,28
17,9,-6,-13,12,1,-1,40,56,55,73,37
22,12,-9,-17,16,1,-2,48,70,70,88,48
28,15,-12,-21,20,1,-5,52,82,84,103,60
33,19,-14,-26,24,2,-9,49,87,93,117,73
38,23,-14,-30,26,4,-14,39,84,97,128,85
41,28,-12,-34,27,8,-19,21,70,93,134,94
41,33,-7,-37,24,13,-23,-5,47,82,134,98
39,38,0,-38,19,19,-25,-31,21,66,128,96
34,43,9,-38,12,26,-24,-51,-2,49,115,87
27,46,19,-37,3,33,-22,-67,-23,30,96,72
18,46,28,-32,-5,37,-17,-79,-43,10,74,53
9,42,33,-26,-12,38,-12,-88,-63,-11,50,32
1,36,36,-18,-17,36,-7,-94,-84,-34,25,10
-6,30,37,-11,-22,33,-3,-101,-104,-58,1,-9
-13,22,36,-4,-24,29,0,-108,-123,-79,-19,-25
-17,14,33,1,-25,23,0,-114,-139,-97,-34,-37
-20,6,27,7,-23,16,0,-117,-149,-110,-45,-47
-21,-3,19,12,-21,8,0,-118,-156,-120,-55,-56
-23,-12,12,18,-18,0,1,-116,-159,-127,-62,-63
-26,-20,7,23,-17,-7,2,-112,-159,-131,-67,-68
-28,-26,3,27,-16,-12,4,-107,-156,-132,-71,-71
-29,-31,0,30,-15,-16,5,-102,-152,-131,-73,-73
-30,-35,-3,33,-13,-20,6,-96,-146,-128,-74,-74
-31,-38,-5,35,-12,-22,7,-90,-139,-124,-74,-75
-31,-40,-7,36,-12,-24,6,-85,-132,-119,-72,-74
-32,-40,-7,36,-11,-24,5,-79,-123,-113,-69,-72
-31,-39,-7,35,-11,-23,3,-74,-114,-104,-64,-68
-29,-37,-8,33,-10,-23,0,-69,-105,-96,-58,-64
-26,-35,-8,30,-8,-22,-2,-63,-96,-87,-52,-59
-23,-31,-8,27,-7,-20,-4,-56,-86,-78,-47,-54
-21,-28,-6,24,-7,-18,-5,-48,-76,-69,-41,-48
-18,-24,-5,21,-6,-15,-5,-40,-66,-60,-35,-43
-16,-20,-3,18,-6,-12,-5,-33,-57,-52,-30,-38
-14,-17,-2,15,-5,-9,-3,-27,-48,-44,-24,-33
-13,-14,0,13,-5,-6,-1,-22,-40,-37,-19,-29
-12,-11,0,11,-5,-5,0,-16,-33,-30,-14,-25
-10,-9,1,10,-5,-4,1,-11,-26,-25,-10,-22
-9,-8,1,8,-5,-3,2,-6,-20,-20,-8,-19
-8,-7,1,7,-5,-3,2,-2,-15,-16,-7,-17
-7,-6,1,7,-4,-3,3,1,-11,-13,-5,-15
-7,-6,1,6,-4,-3,4,3,-8,-10,-3,-13
-6,-6,1,6,-3,-3,5,5,-5,-7,-1,-12
-6,-6,0,6,-3,-3,6,6,-2,-5,1,-11
-6,-6,0,6,-2,-3,6,7,-1,-3,4,-10
-5,-7,-1,6,-1,-4,5,8,0,-2,6,-9
-4,-7,-2,5,0,-5,5,9,2,-1,7,-9
-4,-7,-2,5,0,-5,5,10,3,0,8,-8
-4,-7,-2,5,0,-5,5,11,4,1,10,-7
-4,-7,-2,5,0,-4,6,12,6,2,12,-6
-4,-6,-2,5,0,-4,6,13,7,4,14,-5
-4,-6,-2,5,0,-3,6,13,8,5,16,-5
-3,-6,-2,5,0,-4,6,14,9,5,18,-5
-3,-6,-3,4,0,-4,6,14,10,6,20,-5
-2,-6,-3,4,0,-4,6,15,10,6,21,-5
-2,-6,-3,4,0,-4,6,15,10,6,21,-5
-2,-6,-4,4,1,-4,6,16,10,6,22,-5
-1,-5,-4,3,1,-4,6,16,11,6,23,-4
-1,-5,-4,3,2,-4,6,17,12,7,25,-4
-1,-5,-4,3,2,-5,6,17,13,7,26,-4
-1,-5,-4,3,2,-5,6,17,13,8,28,-3
-1,-5,-4,3,2,-5,6,17,14,9,29,-3
-1,-5,-4,3,2,-5,6,17,14,10,30,-3
-1,-5,-4,3,2,-5,6,17,15,10,31,-3
-1,-5,-4,3,2,-5,7,18,15,10,31,-3
-1,-5,-4,3,2,-5,7,18,16,10,32,-3
0,-5,-4,2,2,-5,7,18,16,10,33,-3
0,-5,-5,2,2,-5,7,18,17,10,33,-3
0,-5,-5,2,2,-5,7,18,17,11,34,-2
0,-5,-4,2,2,-5,7,18,18,11,35,-2
0,-5,-4,2,2,-4,7,19,18,11,36,-1
0,-5,-4,2,2,-4,7,19,19,11,36,-1
0,-5,-4,2,2,-4,7,19,19,11,36,-1
0,-4,-4,2,1,-4,7,19,20,12,36,-1
-1,-4,-3,2,1,-3,7,20,21,12,37,-1
0,-3,-3,1,1,-3,7,20,21,13,38,-1
1,-3,-4,1,2,-4,6,20,22,13,39,-1
2,-3,-5,0,3,-4,6,21,22,14,40,-1
2,-3,-5,0,4,-4,6,21,23,14,41,-1
3,-3,-5,0,4,-3,6,21,24,15,41,0
3,-2,-4,0,4,-3,6,22,24,15,42,0
3,-2,-4,0,3,-3,6,22,25,16,42,0
3,-2,-4,0,3,-3,6,23,25,16,43,0
3,-2,-4,0,3,-3,6,23,26,17,43,0
3,-2,-5,0,3,-4,6,23,27,17,43,0
2,-2,-5,0,3,-4,6,24,27,18,44,0
2,-3,-5,0,3,-4,6,24,28,18,44,1
3,-3,-5,0,4,-4,5,25,28,19,45,1
3,-3,-5,0,4,-4,5,25,29,19,45,1
3,-2,-5,0,4,-4,5,26,29,20,45,1
3,-2,-5,-1,4,-4,5,26,30,20,45,1
3,-2,-5,-1,4,-4,5,27,31,21,46,2
3,-1,-5,-1,4,-3,5,27,32,21,46,2
4,-1,-4,-2,4,-3,4,28,33,22,47,3
4,0,-4,-2,4,-2,4,28,33,23,48,3
4,0,-4,-2,4,-2,4,29,34,24,49,4
5,0,-4,-2,4,-1,4,29,35,25,49,4
5,1,-4,-2,4,-1,4,30,36,26,50,5
5,1,-4,-2,4,-1,4,31,38,27,50,5
5,1,-4,-3,5,-1,4,32,39,28,51,6
5,1,-4,-3,5,-1,3,32,40,29,52,6
6,1,-4,-3,5,-1,3,33,41,30,52,6
6,1,-4,-3,5,-1,3,34,42,32,53,6
6,2,-4,-4,5,-1,3,35,43,33,54,7
6,2,-4,-4,5,0,3,35,45,34,54,7
7,3,-4,-5,6,0,3,36,46,35,55,8
8,4,-4,-6,7,0,2,37,47,36,55,8
10,5,-4,-7,7,1,2,37,48,37,56,9
10,6,-4,-8,7,1,2,38,50,38,57,10
11,6,-3,-8,7,2,2,39,51,40,58,11
11,6,-3,-8,7,2,2,40,53,41,59,12
11,7,-3,-9,7,2,2,41,54,43,60,13
12,7,-3,-9,7,2,1,41,56,44,61,14
12,8,-3,-9,7,2,1,42,57,45,62,15
13,9,-3,-10,8,2,1,43,58,46,63,15
13,10,-4,-11,8,3,1,44,60,47,63,16
14,10,-4,-12,8,3,0,44,61,48,64,17
14,11,-3,-12,8,4,0,45,63,50,65,18
14,11,-3,-12,8,4,0,46,64,51,66,19
15,12,-3,-13,8,5,0,46,65,53,67,20
15,12,-3,-13,9,5,-1,46,66,54,68,21
16,13,-3,-14,9,5,-1,46,67,55,69,22
16,13,-2,-15,9,5,-1,46,67,55,70,23
16,14,-1,-15,9,6,-1,47,68,56,71,24
17,15,-1,-16,9,7,-1,47,69,57,72,25
17,16,0,-17,9,8,-2,47,69,58,73,26
17,17,0,-17,9,9,-2,47,70,59,73,27
17,17,0,-17,9,9,-3,47,70,60,74,27
17,18,0,-17,8,10,-3,47,70,60,75,28
17,19,1,-18,8,10,-3,46,70,60,75,28
18,20,1,-18,8,11,-4,46,70,60,75,29
18,20,1,-18,8,11,-4,45,70,60,74,29
18,20,1,-19,8,11,-5,44,70,60,74,29
19,20,1,-19,8,11,-5,44,70,60,75,29
19,20,1,-20,8,11,-6,43,69,60,75,30
19,20,1,-20,8,11,-6,43,69,60,75,30
19,20,1,-20,8,11,-6,42,68,60,75,30
19,20,1,-20,9,11,-6,41,67,59,75,30
19,21,1,-20,9,11,-6,40,66,59,75,30
19,21,1,-20,9,11,-6,39,66,58,75,31
19,21,1,-20,9,11,-7,38,65,58,75,31
19,21,1,-20,9,11,-7,36,64,57,75,31
19,21,1,-20,9,11,-7,35,63,56,74,31
19,21,1,-20,9,11,-7,34,61,55,74,31
18,20,1,-19,9,11,-7,33,60,54,73,30
18,20,1,-19,8,11,-8,31,58,53,72,30
18,20,2,-19,8,11,-8,30,56,51,71,29
17,20,2,-18,7,11,-8,28,54,50,70,29
16,20,3,-18,7,11,-8,27,52,49,69,28
16,20,3,-18,6,11,-8,25,50,47,68,28
15,19,3,-17,6,11,-8,24,48,46,67,27
15,19,3,-17,6,11,-8,22,46,44,66,27
14,18,3,-16,5,11,-8,21,43,43,65,26
13,18,3,-15,5,11,-8,19,41,41,64,25
13,17,3,-14,4,10,-8,18,39,39,63,24
12,16,3,-13,4,10,-7,16,36,38,61,23
11,15,3,-13,4,9,-7,14,34,36,59,22
10,14,3,-12,4,9,-6,13,32,34,58,21
9,13,3,-11,3,8,-6,11,30,33,57,20
8,12,3,-11,3,8,-5,10,28,31,55,19
8,11,2,-10,3,7,-5,8,25,29,54,18
8,10,2,-10,3,7,-5,7,23,27,53,16
8,10,1,-9,3,6,-5,6,21,25,51,15
7,9,1,-8,3,5,-5,4,19,23,49,14
6,8,1,-7,2,5,-4,3,17,22,47,13
5,7,1,-6,2,4,-4,2,16,20,46,12
5,6,0,-5,2,4,-3,1,14,19,45,11
4,5,0,-4,2,3,-3,1,13,17,44,10
4,4,0,-4,2,2,-3,0,11,16,43,9
3,3,-1,-3,2,1,-2,0,9,14,42,8
3,2,-1,-3,2,1,-2,-1,8,13,41,7
2,2,-1,-2,2,0,-1,-2,6,12,39,6
1,1,-1,-1,1,0,-1,-3,5,10,37,5
1,0,-1,0,1,0,0,-4,4,9,35,4
0,0,-2,0,1,-1,0,-4,3,8,34,4
0,-1,-2,0,1,-1,0,-4,3,7,34,3
0,-1,-2,1,0,-2,0,-4,2,7,34,3
0,-1,-2,1,1,-2,0,-5,1,6,34,2
0,-1,-2,1,1,-2,0,-5,0,6,33,2
0,-2,-2,1,1,-2,0,-5,0,5,33,2
-1,-2,-3,2,1,-2,1,-6,-1,5,32,1
0,-3,-3,2,1,-3,1,-6,-1,4,31,1
0,-3,-4,2,2,-3,1,-7,-1,4,31,1
0,-4,-4,2,2,-4,1,-7,-2,3,30,0
0,-4,-5,2,3,-4,1,-7,-2,2,30,0
0,-5,-5,2,3,-5,1,-7,-3,1,30,0
0,-5,-5,2,3,-5,1,-7,-3,1,30,-1
0,-5,-5,2,3,-5,1,-7,-4,1,30,-1
0,-5,-5,3,3,-5,1,-7,-4,1,29,-1
-1,-5,-4,3,2,-5,1,-7,-4,1,29,-2
-1,-5,-4,3,1,-4,1,-7,-4,1,29,-2
-2,-5,-3,3,1,-4,2,-7,-4,1,29,-2
-2,-5,-4,3,1,-4,2,-7,-4,1,29,-2
-1,-5,-4,3,1,-4,2,-8,-4,0,29,-3
-1,-5,-4,3,2,-4,2,-8,-5,0,29,-3
-1,-5,-4,3,2,-4,2,-8,-5,0,29,-3
-1,-5,-4,3,2,-4,2,-8,-5,0,28,-3
-1,-5,-5,3,2,-5,2,-8,-6,0,27,-3
0,-5,-5,3,3,-5,2,-8,-6,-1,26,-3
0,-5,-5,3,3,-5,2,-8,-6,-1,26,-3
-1,-5,-4,3,2,-5,2,-8,-6,-1,25,-3
-1,-5,-4,3,1,-4,2,-8,-6,-1,25,-3
-1,-5,-4,3,1,-4,2,-8,-6,-1,25,-2
-1,-5,-5,3,2,-5,2,-8,-6,-1,25,-2
0,-5,-5,3,2,-5,2,-8,-6,-1,24,-2
0,-5,-5,3,2,-5,2,-7,-6,-1,22,-2
0,-5,-6,3,2,-5,2,-7,-6,-1,21,-2
-1,-5,-6,3,2,-5,2,-7,-6,-1,21,-2
-1,-5,-5,3,1,-5,2,-7,-6,-1,20,-3
-2,-5,-5,3,1,-5,2,-7,-6,-1,20,-3
-2,-6,-5,3,2,-5,2,-7,-6,-1,19,-3
-1,-6,-5,3,2,-5,2,-6,-6,-1,18,-3
-1,-6,-5,3,2,-5,3,-6,-6,-1,17,-3
-1,-5,-4,3,2,-5,3,-6,-6,-1,14,-3
-1,-5,-4,3,2,-4,3,-6,-5,-1,12,-3
0,-4,-4,3,2,-4,3,-6,-5,-1,10,-3
0,-4,-4,3,1,-4,3,-6,-5,-1,9,-3
0,-4,-4,3,1,-4,3,-6,-5,-1,7,-3
-1,-4,-4,3,1,-4,3,-6,-5,-1,6,-3
-2,-4,-3,3,0,-3,3,-5,-5,-1,5,-3
-3,-4,-2,3,0,-3,3,-5,-4,0,4,-2
-3,-4,-2,3,0,-3,3,-5,-4,0,2,-2
-1,-4,-3,3,1,-4,3,-5,-4,0,0,-3
0,-4,-4,3,2,-4,3,-5,-4,0,-2,-3
0,-4,-5,3,2,-5,3,-4,-3,0,-3,-3
0,-4,-5,3,2,-5,3,-4,-3,0,-4,-3
0,-4,-5,2,2,-4,2,-4,-3,0,-4,-3
0,-4,-5,2,2,-4,2,-4,-3,0,-4,-3
0,-3,-4,2,2,-3,2,-4,-3,0,-4,-3
0,-3,-4,2,1,-3,2,-4,-3,0,-5,-3
-1,-3,-3,2,1,-2,2,-4,-3,0,-7,-3
-1,-3,-2,2,0,-2,2,-4,-2,0,-9,-2
-2,-3,-1,2,0,-1,2,-4,-2,1,-10,-2
-2,-3,-1,2,-1,-1,2,-4,-2,1,-11,-2
-1,-3,-1,2,0,-1,2,-4,-2,0,-13,-2
-1,-3,-2,2,0,-1,2,-4,-2,0,-14,-2
-1,-3,-1,2,0,-1,3,-4,-2,0,-15,-2
-1,-2,-1,2,-1,-1,3,-4,-2,0,-17,-2
-1,-2,-1,2,-1,-1,3,-4,-2,0,-20,-2
-1,-2,-1,2,-1,-1,3,-4,-2,0,-23,-2
-2,-2,0,2,-1,-1,3,-4,-2,0,-26,-2
-2,-2,0,2,-2,-1,3,-4,-2,0,-27,-2
-3,-2,0,2,-2,-1,3,-4,-2,0,-28,-2
-3,-2,0,2,-2,-1,2,-4,-2,0,-29,-2
-3,-2,1,2,-3,-1,2,-4,-2,0,-30,-1
-3,-2,1,2,-3,-1,2,-4,-2,0,-31,-1
-3,-2,1,2,-3,-1,2,-3,-2,0,-34,-1
-3,-2,1,2,-3,0,2,-3,-2,1,-36,0
-3,-2,1,2,-3,0,2,-3,-1,1,-38,0
-3,-2,1,2,-3,0,2,-3,-1,1,-40,0
-3,-2,1,2,-3,0,2,-3,-1,2,-40,0
-3,-2,1,2,-3,0,2,-3,-1,2,-41,0
-3,-2,1,3,-3,0,2,-3,-1,2,-41,0
-3,-2,1,3,-3,0,2,-2,-1,2,-42,0
-3,-2,1,3,-3,0,2,-2,-1,2,-43,0
-4,-2,1,3,-3,0,2,-2,-1,2,-45,0
-4,-2,1,3,-3,0,2,-2,-1,2,-47,0
-4,-2,1,3,-3,0,2,-2,-1,2,-47,0
-4,-2,1,3,-3,0,2,-2,-1,2,-47,0
-4,-2,1,3,-3,0,2,-2,-1,2,-47,0
-5,-3,1,4,-3,0,3,-2,-1,2,-47,0
-5,-3,1,4,-3,0,3,-2,-1,2,-47,0
-5,-3,1,4,-3,0,3,-2,0,2,-47,0
-5,-3,1,5,-3,0,4,-2,0,2,-47,0
-5,-4,1,5,-3,0,4,-2,0,2,-48,0
-5,-4,0,5,-3,-1,4,-2,0,2,-48,0
-5,-4,0,5,-3,-1,4,-2,0,2,-48,0
-5,-4,0,5,-4,-1,4,-2,0,2,-47,0
-5,-4,0,5,-4,-1,4,-2,0,2,-47,0
-4,-4,0,5,-3,-1,4,-2,-1,1,-46,0
-4,-4,-1,5,-2,-2,4,-2,-1,1,-45,0
-4,-4,-1,5,-2,-2,4,-2,-1,1,-45,0
-4,-4,-1,5,-3,-2,4,-2,-1,1,-45,0
-5,-4,0,5,-3,-2,4,-2,-1,1,-44,0
-5,-4,0,4,-3,-1,4,-2,-1,1,-43,0
-5,-4,0,4,-3,-1,4,-3,-1,1,-42,-1
-4,-4,0,4,-3,-1,4,-3,-2,1,-42,-1
-4,-4,0,4,-3,-1,4,-3,-2,0,-41,-1
-5,-4,0,5,-3,-1,4,-3,-2,0,-40,-1
-5,-4,0,5,-3,-1,4,-3,-2,0,-40,-1
-5,-3,1,5,-4,0,4,-3,-3,0,-40,-1
-5,-3,1,5,-4,0,4,-3,-3,0,-40,-1
-4,-4,0,4,-3,-1,4,-3,-4,0,-40,-1
-4,-4,0,4,-3,-1,4,-3,-4,0,-40,-2
-5,-4,0,5,-4,-1,4,-3,-4,0,-39,-2
-5,-4,1,5,-4,-1,4,-3,-4,0,-39,-2
-5,-4,0,5,-4,-1,4,-3,-4,0,-38,-2
-5,-4,0,5,-3,-1,4,-3,-4,0,-38,-2
-5,-4,0,5,-3,-1,5,-3,-4,0,-38,-2
-5,-5,-1,5,-3,-2,5,-3,-3,0,-38,-2
-5,-5,-1,5,-3,-2,6,-3,-3,0,-37,-2
-5,-6,-2,5,-2,-3,6,-3,-3,0,-36,-2
-5,-6,-2,5,-2,-3,6,-2,-3,0,-35,-2
-5,-6,-2,6,-2,-3,6,-2,-3,0,-34,-2
-5,-6,-2,6,-2,-3,6,-2,-3,0,-33,-1
-6,-6,-2,6,-2,-3,6,-2,-3,0,-32,-1
-5,-6,-2,6,-2,-3,6,-2,-3,0,-31,-1
-5,-6,-2,6,-2,-3,6,-2,-3,0,-30,-2
-4,-6,-2,5,-2,-3,6,-2,-4,0,-29,-2
-4,-5,-1,5,-2,-2,6,-2,-4,0,-28,-2
-4,-4,0,4,-3,-1,5,-3,-4,0,-27,-2
-5,-3,0,4,-3,0,5,-3,-5,0,-26,-3
-5,-3,1,4,-3,0,5,-3,-5,0,-26,-3
-4,-2,1,3,-3,0,4,-4,-5,-1,-26,-4
-4,-2,1,3,-3,0,4,-4,-6,-1,-27,-4
-3,-1,2,2,-3,1,4,-5,-6,-2,-28,-5
-3,-1,2,2,-4,1,4,-5,-6,-2,-29,-5
-4,0,3,2,-4,2,3,-5,-7,-3,-31,-6
-4,0,4,2,-5,3,3,-5,-7,-3,-33,-6
-5,0,5,2,-6,3,3,-4,-7,-3,-35,-6
-6,0,5,2,-6,4,3,-4,-7,-3,-38,-6
-6,0,4,2,-5,4,3,-5,-7,-3,-40,-6
-6,0,4,2,-5,3,3,-5,-7,-3,-43,-6
-6,0,4,2,-5,3,3,-5,-7,-3,-45,-6
-6,0,4,3,-6,3,3,-5,-7,-3,-48,-6
-6,-1,4,3,-6,3,3,-5,-7,-3,-50,-5
-6,-1,5,3,-6,3,3,-4,-7,-2,-52,-5
-6,0,5,3,-7,3,3,-4,-7,-2,-55,-5
-6,0,6,3,-7,3,3,-5,-7,-3,-57,-5
-7,0,6,3,-7,3,3,-5,-7,-3,-60,-5
-7,0,6,4,-7,3,3,-4,-7,-3,-63,-5
-8,-1,7,4,-8,3,3,-4,-6,-2,-65,-5
-9,-1,7,5,-8,3,3,-3,-6,-2,-68,-5
-9,-2,6,5,-8,2,3,-3,-6,-2,-71,-5
-9,-3,4,6,-8,1,3,-3,-6,-2,-72,-5
-9,-5,3,7,-7,0,4,-3,-6,-1,-73,-4
-9,-6,2,8,-7,-1,5,-2,-5,-1,-73,-3
-10,-7,2,9,-6,-2,5,-2,-5,0,-73,-3
-10,-8,1,9,-6,-3,5,-1,-4,0,-73,-2
-10,-8,1,9,-6,-3,5,-1,-4,0,-72,-2
-10,-7,1,9,-6,-3,5,-1,-4,0,-72,-2
-10,-7,1,9,-6,-3,5,-1,-3,0,-70,-2
-10,-8,0,9,-5,-3,5,-1,-3,0,-68,-2
-10,-8,0,9,-5,-4,5,-1,-3,0,-66,-2
-10,-9,-1,10,-5,-4,6,-1,-3,0,-64,-2
-10,-9,-1,10,-5,-5,6,-1,-3,1,-61,-2
-10,-10,-1,10,-5,-5,6,-1,-3,1,-59,-2
-10,-10,-1,10,-5,-5,7,-1,-2,1,-56,-2
-10,-10,-2,10,-4,-5,7,-1,-2,1,-54,-2
-9,-10,-2,9,-4,-5,7,-1,-2,1,-52,-2
-9,-10,-2,9,-4,-5,7,-1,-2,1,-50,-2
-10,-10,-1,9,-4,-4,7,0,-2,1,-47,-1
-9,-10,-1,9,-4,-4,7,0,-2,1,-44,-1
-8,-9,-1,9,-4,-4,7,-1,-3,0,-41,-1
-8,-8,-1,8,-3,-4,7,-1,-3,0,-39,-1
-8,-8,-1,8,-3,-4,7,-1,-3,0,-37,-1
-8,-8,-1,8,-4,-4,7,-1,-3,0,-36,-1
-7,-8,-1,8,-4,-4,7,-1,-3,0,-35,-1
-7,-8,-2,7,-3,-4,7,-1,-3,-1,-34,-1
-7,-8,-2,7,-3,-5,7,-1,-4,-1,-32,-2
-7,-8,-2,7,-3,-5,7,-1,-4,-1,-30,-2
-7,-7,-2,7,-2,-5,7,-1,-4,-2,-29,-2
-7,-7,-2,7,-2,-5,7,-1,-4,-2,-27,-2
-7,-7,-2,7,-2,-5,7,-1,-4,-2,-25,-2
-7,-7,-2,7,-2,-4,7,-1,-4,-2,-24,-2
-7,-7,-1,6,-3,-4,7,-1,-4,-2,-24,-2
-7,-6,-1,6,-3,-3,7,-1,-4,-3,-23,-2
-7,-6,-1,6,-3,-3,6,-1,-4,-3,-22,-3
-6,-6,-1,6,-3,-4,6,-1,-4,-4,-21,-3
-6,-6,-1,6,-3,-4,6,-1,-4,-4,-19,-3
-6,-6,-1,6,-3,-4,6,-1,-4,-4,-18,-3
-6,-7,-1,7,-3,-4,6,-1,-4,-4,-16,-3
-7,-7,-1,7,-3,-4,6,-1,-4,-4,-15,-3
-6,-7,-1,6,-3,-4,6,-1,-4,-4,-14,-3
-5,-7,-1,6,-2,-4,6,-1,-4,-4,-14,-3
-5,-7,-2,6,-2,-4,6,-1,-4,-4,-13,-3
-5,-7,-2,6,-2,-4,6,-1,-4,-4,-12,-2
-6,-6,-1,6,-2,-4,6,-1,-4,-4,-11,-2
-5,-6,-1,6,-2,-4,6,-1,-3,-4,-10,-1
-5,-6,-1,6,-2,-4,6,-1,-3,-4,-9,-1
-5,-6,-1,6,-1,-4,6,-1,-3,-5,-8,-1
-5,-6,-1,5,-1,-4,6,-1,-3,-5,-8,-2
-5,-6,-2,5,-1,-4,6,-1,-3,-5,-9,-2
-5,-6,-2,5,-1,-4,6,-1,-3,-6,-9,-3
-4,-6,-2,5,-1,-4,6,-2,-4,-6,-9,-3
-4,-5,-2,4,-1,-4,6,-2,-4,-7,-8,-3
-4,-5,-1,4,-1,-4,6,-2,-4,-7,-8,-3
-4,-5,-1,5,-1,-4,6,-2,-4,-7,-7,-3
-4,-5,-1,5,-1,-4,7,-2,-4,-7,-6,-3
-4,-5,-1,5,-1,-4,7,-2,-4,-7,-6,-3
-4,-6,-1,5,-1,-4,7,-2,-4,-7,-6,-4
-4,-6,-1,5,-1,-4,7,-2,-4,-7,-6,-4
-4,-5,-1,5,-1,-4,7,-2,-4,-7,-6,-4
-4,-5,-1,5,-1,-3,7,-2,-4,-7,-5,-4
-4,-5,-1,5,-1,-3,7,-2,-4,-7,-5,-4
-4,-5,-1,5,-1,-3,7,-2,-4,-8,-5,-4
-4,-5,-1,5,-1,-3,7,-2,-4,-8,-5,-4
-3,-5,-2,4,-1,-3,7,-2,-4,-8,-4,-4
-3,-4,-2,4,-1,-3,7,-2,-4,-8,-4,-4
-3,-4,-1,4,-1,-3,7,-2,-4,-8,-5,-4
-3,-4,-1,4,-1,-3,7,-2,-4,-8,-5,-4
-3,-4,-2,4,0,-3,7,-2,-4,-8,-5,-4
-3,-4,-2,4,0,-3,7,-2,-4,-9,-5,-4
-3,-4,-2,4,0,-3,7,-2,-4,-9,-5,-4
-3,-4,-1,4,0,-2,7,-2,-4,-10,-4,-4
-3,-4,-1,4,-1,-2,7,-2,-4,-10,-4,-4
-3,-4,0,4,-1,-2,7,-3,-5,-10,-5,-4
-3,-4,0,4,-1,-2,7,-3,-5,-10,-5,-4
-3,-4,0,3,-1,-2,7,-3,-5,-10,-5,-4
-3,-4,0,3,-1,-2,7,-3,-5,-10,-5,-4
-3,-4,0,3,-1,-1,7,-3,-5,-10,-5,-4
-3,-4,0,3,-1,-1,7,-3,-5,-10,-5,-4
-2,-4,-1,3,0,-1,6,-3,-5,-10,-4,-4
-2,-3,-1,2,0,-1,6,-3,-4,-10,-4,-4
-2,-3,0,2,-1,-1,6,-2,-4,-9,-4,-4
-2,-2,0,2,-1,0,7,-2,-4,-9,-5,-3
-2,-1,1,2,-1,0,7,-2,-4,-8,-5,-3
-3,-1,2,2,-2,0,8,-2,-4,-8,-5,-2
-3,0,2,2,-2,1,8,-2,-4,-8,-5,-2
-2,0,2,1,-2,1,8,-2,-3,-8,-6,-2
-2,0,3,0,-2,2,8,-2,-3,-8,-6,-2
-2,1,3,0,-3,2,8,-2,-2,-7,-6,-2
-2,1,4,0,-3,2,8,-2,-2,-7,-7,-2
-2,1,4,0,-4,2,8,-1,-2,-7,-7,-2
-2,1,4,0,-3,2,8,-1,-2,-7,-8,-2
-2,1,4,0,-3,2,8,-1,-2,-7,-8,-2
-2,1,4,0,-3,2,8,-1,-2,-7,-8,-2
-2,2,4,0,-3,2,8,-1,-2,-7,-9,-2
-2,2,4,0,-3,2,8,-1,-2,-7,-9,-2
-2,1,4,0,-3,2,8,-1,-2,-7,-9,-2
-2,1,4,0,-3,2,8,-1,-2,-7,-9,-1
-2,1,4,0,-3,2,8,-1,-2,-7,-9,-1
-2,1,4,0,-3,2,8,-1,-2,-7,-10,-1
-1,1,4,0,-3,2,8,-1,-2,-7,-10,-1
-1,2,4,0,-3,3,8,-1,-2,-7,-10,-1
-1,2,4,0,-3,3,8,-1,-2,-7,-10,0
-1,3,5,0,-4,4,8,-1,-1,-6,-9,0
-1,4,6,-1,-4,5,7,-1,-1,-6,-9,0
-1,4,6,-1,-4,5,7,-2,-2,-6,-9,0
-1,4,6,-1,-4,5,6,-3,-2,-6,-9,0
-1,3,5,-1,-4,5,5,-4,-3,-7,-10,-1
-1,3,5,-1,-4,4,4,-5,-3,-7,-11,-1
-1,3,5,-1,-3,4,3,-5,-4,-8,-11,-1
-1,3,5,-1,-3,4,3,-5,-4,-8,-11,-1
-1,3,4,-1,-3,4,2,-5,-4,-8,-11,-1
-1,3,4,-1,-3,3,2,-5,-5,-9,-11,-2
-1,2,3,-1,-3,3,2,-6,-5,-9,-11,-2
-1,2,3,-1,-2,3,2,-6,-6,-10,-11,-3
-1,2,3,-1,-2,3,2,-6,-6,-10,-12,-3
0,2,3,-1,-2,3,1,-6,-6,-11,-12,-3
0,2,3,-1,-2,2,1,-6,-7,-11,-12,-3
0,1,2,-1,-1,1,1,-7,-7,-11,-12,-4
0,1,1,-1,-1,1,1,-7,-8,-11,-12,-4
0,0,1,-1,0,0,1,-7,-8,-12,-11,-4
0,0,0,-1,0,0,1,-7,-7,-11,-10,-4
0,0,0,-1,0,0,1,-6,-7,-11,-9,-4
0,0,0,-1,0,0,1,-6,-6,-10,-8,-4
0,0,1,-1,-1,1,1,-5,-6,-10,-7,-3
-1,0,1,0,-1,1,2,-5,-5,-9,-7,-3
-1,0,2,0,-2,1,2,-4,-5,-9,-7,-3
-1,0,2,0,-2,1,3,-4,-5,-9,-7,-3
-2,0,2,0,-2,1,3,-4,-5,-9,-7,-3
-2,0,2,1,-2,1,3,-4,-5,-9,-6,-3
-2,0,1,1,-2,0,3,-4,-6,-10,-6,-3
-1,-1,0,1,-1,0,3,-4,-6,-10,-7,-4
-1,-1,0,1,0,-1,3,-4,-6,-11,-7,-4
-1,-2,-1,1,0,-2,3,-5,-7,-11,-8,-5
-1,-3,-2,1,0,-3,3,-5,-7,-11,-8,-5
-1,-4,-3,2,0,-3,3,-5,-8,-11,-8,-6
-1,-4,-3,2,1,-4,3,-5,-8,-12,-8,-6
-1,-5,-4,2,1,-4,3,-5,-8,-12,-8,-6
-1,-5,-4,3,1,-5,3,-5,-8,-13,-8,-7
-2,-6,-4,4,1,-5,3,-5,-8,-13,-9,-7
-2,-6,-4,4,1,-5,3,-5,-9,-14,-9,-8
-2,-6,-4,4,1,-5,3,-5,-9,-14,-10,-8
-2,-6,-4,4,1,-5,3,-5,-10,-14,-10,-8
-2,-6,-4,4,1,-5,3,-6,-10,-14,-10,-8
-2,-6,-4,4,1,-5,3,-6,-10,-14,-10,-8
-2,-6,-4,4,1,-5,3,-6,-10,-14,-10,-8
-2,-6,-4,4,1,-5,3,-6,-10,-14,-10,-8
-2,-6,-4,4,1,-5,3,-6,-10,-14,-10,-8
-2,-6,-4,4,1,-5,3,-6,-10,-14,-10,-8
-2,-6,-4,4,1,-5,4,-6,-10,-14,-10,-8
-2,-6,-4,4,1,-5,4,-6,-9,-14,-9,-8
-2,-7,-4,4,1,-6,5,-6,-9,-14,-9,-8
-2,-7,-4,4,1,-6,5,-6,-9,-13,-9,-8
-2,-6,-4,4,1,-5,5,-6,-9,-13,-9,-8
-2,-6,-4,4,1,-5,5,-5,-9,-13,-8,-8
-2,-6,-4,4,1,-5,5,-5,-9,-13,-8,-8
-2,-6,-4,4,1,-5,5,-5,-9,-13,-8,-8
-2,-7,-4,4,1,-5,5,-5,-9,-13,-8,-8
-2,-7,-4,4,1,-5,5,-5,-8,-13,-8,-8
-2,-7,-4,4,1,-5,5,-5,-8,-12,-7,-8
-2,-7,-4,4,1,-5,5,-5,-8,-12,-7,-8
-2,-7,-4,4,1,-5,5,-5,-8,-12,-7,-8
-2,-7,-4,4,1,-5,5,-5,-8,-12,-6,-8
-2,-7,-4,4,1,-5,5,-5,-8,-12,-6,-8
-2,-6,-4,4,1,-5,5,-5,-8,-12,-6,-8
-2,-6,-4,4,1,-5,5,-5,-8,-12,-6,-8
-2,-7,-4,4,1,-5,5,-5,-8,-12,-6,-8
-2,-7,-4,4,1,-6,5,-5,-8,-12,-6,-8
-2,-7,-4,4,1,-6,5,-5,-9,-13,-5,-8
-1,-6,-4,3,1,-6,5,-5,-9,-13,-5,-8
-1,-5,-4,3,1,-5,4,-5,-10,-14,-5,-9
0,-5,-4,2,2,-5,4,-5,-10,-14,-5,-9
0,-4,-4,2,2,-4,3,-5,-9,-14,-6,-9
0,-2,-3,1,2,-3,2,-5,-8,-13,-6,-9
1,0,-2,-1,2,-1,2,-3,-5,-10,-7,-7
3,1,-1,-3,2,0,1,-1,-1,-6,-6,-4
4,3,-1,-4,2,1,1,2,4,0,-3,0
6,4,-1,-6,4,1,1,6,10,5,0,4
8,6,-2,-7,5,1,0,10,17,12,4,10
9,7,-2,-9,6,2,0,15,25,21,11,17
11,9,-2,-11,7,3,0,22,36,33,21,26
15,12,-3,-14,10,4,-2,29,49,47,32,37
21,15,-6,-19,14,4,-4,36,63,61,44,48
28,19,-8,-24,18,5,-6,42,76,76,57,61
33,23,-9,-28,21,6,-9,43,84,88,71,75
37,28,-9,-33,23,9,-12,39,86,96,83,89
40,33,-7,-37,24,12,-16,29,78,96,91,100
41,37,-4,-39,23,16,-20,11,61,88,93,107
39,39,1,-40,20,20,-22,-10,36,73,87,108
34,42,8,-39,14,25,-23,-30,11,55,74,100
28,45,17,-37,6,31,-21,-46,-11,35,53,86
20,46,26,-34,-2,36,-17,-58,-32,14,27,66
11,44,33,-29,-10,38,-12,-67,-52,-8,-2,42
2,38,36,-21,-16,38,-6,-73,-72,-32,-32,17
-6,32,38,-14,-21,35,-1,-78,-92,-57,-61,-6
-13,25,37,-7,-24,31,2,-84,-111,-81,-86,-26
-18,18,35,-1,-26,26,4,-89,-128,-101,-105,-41
-21,11,32,4,-26,21,4,-94,-140,-116,-120,-52
-23,3,27,9,-25,14,4,-97,-148,-127,-131,-60
-24,-5,20,14,-22,6,4,-97,-152,-135,-142,-68
-26,-13,13,19,-20,0,5,-95,-154,-140,-149,-73
-27,-20,8,23,-18,-6,6,-91,-152,-142,-154,-77
-29,-26,3,27,-16,-12,8,-86,-148,-140,-156,-79
-30,-32,-1,30,-14,-17,10,-80,-143,-137,-157,-80
-31,-37,-4,33,-13,-21,12,-75,-136,-133,-157,-81
-32,-41,-7,36,-12,-24,13,-69,-129,-128,-156,-81
-32,-43,-9,37,-11,-26,12,-65,-122,-122,-154,-80
-31,-43,-11,36,-9,-27,10,-60,-114,-115,-150,-77
-29,-42,-12,34,-8,-27,8,-56,-105,-106,-145,-72
-27,-40,-13,32,-7,-27,5,-52,-96,-98,-139,-67
-26,-38,-13,30,-6,-26,3,-47,-86,-89,-132,-61
-24,-35,-12,28,-6,-24,1,-41,-77,-79,-124,-55
-21,-32,-11,26,-5,-22,0,-34,-67,-70,-116,-48
-19,-28,-10,23,-4,-19,0,-27,-57,-60,-109,-42
-16,-25,-8,20,-4,-16,0,-22,-48,-52,-102,-37
-15,-22,-7,18,-4,-14,0,-17,-40,-44,-96,-32
-13,-20,-6,16,-3,-13,1,-12,-33,-37,-91,-28
-12,-18,-6,14,-3,-12,3,-8,-26,-30,-86,-24
-12,-17,-5,13,-3,-11,4,-3,-20,-24,-81,-21
-11,-15,-4,12,-3,-10,5,1,-14,-19,-76,-17
-11,-14,-4,11,-3,-9,6,5,-9,-15,-72,-15
-10,-13,-4,11,-2,-8,7,7,-4,-11,-68,-13
-9,-12,-4,10,-2,-8,7,9,-1,-9,-65,-11
-8,-12,-4,9,-1,-7,7,9,0,-7,-63,-10
-7,-11,-4,9,-1,-7,7,10,2,-5,-62,-9
-7,-11,-4,8,-1,-7,7,10,3,-4,-61,-8
-7,-11,-4,8,-1,-7,7,11,5,-2,-59,-7
-6,-11,-4,7,-1,-7,7,12,6,-1,-57,-6
-5,-10,-5,7,0,-7,7,13,8,0,-54,-5
-4,-10,-6,7,1,-7,7,14,9,1,-51,-5
-4,-10,-6,7,1,-7,7,15,11,2,-48,-4
-4,-10,-6,7,1,-7,7,15,12,3,-47,-4
-4,-10,-6,7,1,-7,8,16,12,4,-45,-3
-4,-10,-6,7,1,-8,8,16,12,5,-44,-3
-4,-10,-7,7,1,-8,8,16,12,5,-42,-2
-4,-10,-7,7,1,-8,8,17,13,6,-40,-2
-4,-10,-7,7,1,-8,8,17,14,6,-37,-1
-4,-10,-6,7,1,-8,8,18,15,7,-34,-1
-3,-10,-6,6,1,-7,8,18,16,8,-31,0
-3,-9,-5,6,1,-7,8,18,16,8,-29,0
-2,-8,-5,5,1,-7,8,18,17,9,-28,0
-2,-8,-5,5,1,-7,8,18,17,9,-27,0
-2,-8,-6,4,1,-7,8,18,17,9,-25,0
-2,-8,-6,4,1,-7,8,19,17,9,-24,1
-2,-8,-6,4,2,-7,8,19,18,9,-22,1
-2,-8,-6,4,2,-7,8,19,19,10,-19,1
-2,-8,-7,4,2,-7,8,19,19,10,-17,1
-2,-8,-7,4,2,-7,8,20,20,11,-15,1
-2,-8,-6,4,2,-7,8,20,20,11,-14,1
-2,-8,-6,4,1,-7,8,20,21,11,-14,1
-1,-8,-6,4,2,-7,8,20,21,11,-13,1
-1,-8,-7,4,3,-8,8,20,22,12,-12,1
0,-9,-8,4,3,-8,8,21,22,12,-10,2
0,-9,-8,4,3,-8,8,21,23,13,-8,2
0,-8,-8,4,3,-8,8,22,24,13,-4,3
0,-8,-8,4,3,-8,8,22,25,14,-1,3
0,-7,-7,3,3,-7,8,22,25,14,0,3
0,-7,-8,3,4,-7,8,22,25,14,2,3
1,-7,-8,2,4,-7,8,22,26,15,4,3
1,-7,-9,2,5,-7,7,22,26,15,7,3
2,-6,-8,1,5,-7,7,22,26,15,11,3
3,-4,-8,0,5,-5,6,21,26,15,15,3
3,-3,-7,0,5,-4,6,21,27,15,18,3
3,-2,-6,-1,5,-4,5,21,27,15,20,3
4,-2,-6,-1,5,-3,5,21,27,15,21,3
4,-1,-5,-2,5,-2,5,21,28,15,20,3
4,0,-4,-3,4,-1,4,21,28,16,19,3
4,0,-4,-3,4,-1,4,21,28,16,19,3
4,1,-3,-3,4,0,4,21,29,16,18,3
4,1,-3,-3,4,0,4,22,29,17,18,3
4,2,-3,-3,4,0,4,22,30,18,19,3
4,2,-3,-3,4,0,4,23,31,19,19,3
4,1,-3,-3,4,0,3,23,32,19,18,3
4,1,-3,-3,3,0,3,24,33,20,17,3
4,2,-2,-3,3,1,3,24,33,21,15,3
3,3,0,-3,2,2,3,25,34,22,14,4
3,4,0,-4,1,3,3,26,35,23,14,5
4,5,0,-5,2,3,2,26,36,23,13,5
5,6,0,-6,3,3,1,26,36,24,13,4
6,6,0,-7,3,3,1,26,37,24,12,4
6,6,0,-7,3,3,0,27,38,25,12,4
7,7,0,-8,3,4,0,27,39,26,10,4
7,7,0,-8,3,4,0,28,40,26,8,5
8,8,0,-9,3,5,0,28,41,27,6,5
8,9,0,-9,3,5,0,29,42,28,5,6
8,10,1,-10,3,6,0,30,43,29,4,7
8,10,2,-10,2,7,0,31,45,30,4,8
8,11,3,-10,2,7,0,32,47,32,3,8
8,11,3,-11,2,8,0,33,48,34,2,9
8,11,3,-11,2,8,-1,33,49,35,0,10
8,11,3,-11,1,8,-1,34,50,36,-2,10
8,12,3,-11,1,8,-1,34,51,37,-5,11
8,12,3,-11,1,8,-1,35,53,38,-6,12
8,12,3,-11,1,8,-2,36,54,40,-7,13
8,12,4,-11,1,8,-2,38,56,41,-8,15
8,12,4,-11,1,8,-2,39,58,43,-8,16
8,12,4,-11,1,8,-2,40,60,45,-8,18
8,12,3,-11,2,8,-2,41,62,47,-8,19
8,12,3,-11,2,8,-2,41,63,49,-9,20
9,12,2,-11,2,8,-2,41,64,50,-10,21
9,12,2,-12,3,8,-2,42,65,51,-10,22
10,12,2,-12,3,8,-2,42,66,52,-9,23
10,12,2,-12,3,8,-2,43,67,53,-7,25
10,13,2,-13,3,8,-3,43,68,55,-5,26
10,13,2,-13,3,8,-3,44,69,56,-3,27
10,14,3,-13,3,9,-3,44,70,57,0,28
10,15,4,-14,2,10,-3,44,71,58,1,29
10,16,4,-14,2,10,-4,43,71,58,2,30
11,16,4,-15,3,11,-5,43,71,58,3,31
12,17,4,-15,3,11,-5,42,71,59,6,31
12,17,5,-15,3,11,-6,42,71,59,9,32
13,17,5,-16,3,11,-6,42,71,60,12,33
13,18,5,-16,3,12,-7,41,71,60,15,33
14,18,5,-17,3,12,-7,40,70,60,17,34
14,19,6,-17,3,12,-7,40,70,60,19,34
14,20,7,-18,3,13,-7,39,69,59,20,34
14,21,8,-18,3,14,-7,39,69,59,21,34
14,22,8,-19,3,15,-8,38,68,58,23,34
14,22,8,-19,3,16,-8,37,67,57,25,34
14,22,8,-19,3,16,-8,36,66,56,27,34
14,23,8,-19,2,16,-8,35,65,55,28,34
14,23,9,-19,1,16,-8,34,63,54,30,34
13,24,11,-19,0,17,-9,33,62,53,30,34
13,25,12,-19,0,18,-9,31,60,52,30,33
13,25,11,-20,0,18,-10,30,58,50,29,32
14,25,11,-20,1,18,-10,28,56,49,29,32
13,25,11,-20,0,18,-10,27,54,47,30,31
13,25,12,-20,0,18,-10,25,52,46,31,31
13,25,11,-20,0,18,-10,24,50,45,31,30
13,24,10,-19,0,17,-10,22,48,43,31,29
13,24,10,-19,0,16,-10,21,46,41,31,28
12,23,10,-18,0,16,-10,19,44,39,30,27
12,23,10,-18,0,16,-10,18,42,37,29,26
11,22,11,-17,0,16,-10,17,39,36,29,26
9,21,11,-16,-1,16,-10,15,37,34,28,25
8,21,12,-15,-2,16,-9,14,34,32,28,24
7,20,11,-15,-2,16,-9,12,32,30,27,23
7,20,11,-14,-2,16,-9,11,30,28,27,22
7,19,11,-13,-2,15,-9,9,28,26,26,20
7,18,11,-13,-2,14,-9,8,25,24,25,19
6,17,11,-12,-2,14,-9,7,23,22,23,17
6,16,10,-12,-2,14,-9,6,21,20,22,16
5,15,10,-11,-3,13,-8,5,19,18,21,14
4,15,10,-10,-3,13,-8,3,16,16,20,13
4,14,10,-10,-4,12,-7,2,14,14,20,12
3,13,9,-9,-4,12,-7,1,12,13,20,11
3,13,9,-9,-4,11,-6,0,11,11,20,10
3,12,9,-8,-4,11,-6,0,9,10,19,9
2,11,9,-7,-4,10,-6,-1,8,9,18,8
1,10,9,-6,-5,10,-5,-1,6,7,17,7
0,9,9,-5,-5,9,-5,-1,5,6,16,6
-1,8,9,-4,-5,9,-4,-2,3,5,16,5
-1,7,8,-4,-5,8,-4,-2,2,4,16,4
-1,7,7,-3,-5,8,-4,-3,1,2,16,3
0,6,6,-3,-4,7,-4,-4,0,1,15,2
0,6,5,-3,-4,6,-4,-4,-1,0,15,1
0,5,4,-3,-3,5,-3,-5,-2,-1,14,0
0,4,3,-3,-3,4,-3,-6,-3,-2,13,-1
0,4,3,-3,-2,4,-3,-6,-4,-2,13,-1
0,3,3,-2,-2,3,-3,-6,-4,-3,13,-1
0,3,3,-2,-2,3,-3,-6,-5,-4,13,-2
0,3,3,-1,-2,3,-3,-6,-5,-4,13,-2
-1,3,3,-1,-2,3,-3,-6,-6,-5,14,-2
-1,3,3,-1,-2,3,-3,-6,-6,-5,14,-2
-1,3,3,-1,-2,3,-3,-7,-7,-6,14,-3
-1,2,3,-1,-2,3,-3,-7,-7,-6,13,-3
-1,2,3,-1,-2,3,-3,-7,-8,-6,13,-4
-1,1,2,-1,-2,3,-3,-7,-8,-6,13,-4
-1,1,2,-1,-2,3,-3,-8,-9,-6,13,-4
-1,1,2,-1,-2,3,-3,-8,-9,-6,13,-4
-1,1,2,-1,-2,3,-3,-8,-9,-6,13,-4
-2,1,2,0,-3,2,-2,-8,-9,-7,14,-4
-2,1,2,0,-3,2,-2,-8,-9,-7,14,-4
-2,1,2,0,-2,2,-2,-8,-10,-8,13,-5
-2,1,2,0,-2,2,-2,-8,-10,-8,12,-5
-2,1,2,0,-2,2,-2,-8,-10,-8,12,-5
-2,1,2,0,-2,2,-2,-8,-10,-8,12,-5
-2,1,2,0,-3,2,-2,-8,-10,-8,12,-5
-1,1,1,0,-2,2,-2,-8,-10,-8,12,-5
0,1,1,-1,-1,2,-2,-8,-10,-8,12,-5
0,2,1,-2,-1,2,-2,-8,-10,-8,12,-5
0,2,1,-2,-1,2,-2,-8,-10,-8,11,-6
0,3,2,-2,-1,3,-2,-8,-10,-8,11,-6
0,3,2,-2,-1,3,-2,-8,-10,-8,11,-6
0,3,1,-2,0,2,-2,-8,-10,-8,10,-6
1,2,1,-2,0,2,-2,-8,-10,-8,10,-6
1,2,0,-2,0,2,-2,-8,-10,-8,10,-6
1,2,0,-2,0,2,-1,-7,-9,-8,10,-6
1,2,0,-2,0,2,-1,-7,-9,-8,10,-5
1,2,0,-2,0,2,-1,-7,-9,-8,9,-5
1,2,0,-2,0,2,-1,-7,-9,-8,8,-5
0,1,0,-1,0,1,-1,-7,-9,-7,8,-5
0,1,0,-1,0,1,-1,-6,-9,-7,7,-5
0,1,0,-1,0,1,-1,-6,-8,-7,7,-5
0,2,0,-1,0,2,-1,-6,-8,-7,7,-5
0,2,0,-1,0,2,-1,-6,-8,-7,7,-5
0,2,1,-1,-1,2,-1,-5,-7,-6,7,-5
0,2,1,-1,-1,3,-1,-5,-7,-6,7,-5
0,2,1,-1,-1,3,-1,-5,-7,-6,6,-5
0,2,1,-2,-1,3,-1,-5,-7,-6,5,-5
1,2,1,-2,0,3,-1,-5,-7,-6,4,-5
1,3,1,-2,0,3,-1,-5,-7,-6,4,-5
1,3,1,-2,0,3,-1,-5,-7,-6,4,-5
1,3,1,-2,0,3,-1,-5,-7,-6,4,-5
1,3,1,-2,0,3,-1,-5,-7,-6,4,-5
1,3,1,-2,0,3,-1,-5,-7,-6,4,-5
1,3,1,-2,0,3,-1,-5,-7,-6,4,-5
1,3,1,-2,0,3,-1,-5,-6,-6,3,-5
1,3,1,-3,0,3,-1,-5,-6,-6,2,-5
1,3,1,-3,0,3,-1,-5,-6,-6,2,-5
1,3,1,-3,0,3,-1,-5,-6,-5,2,-5
1,3,1,-3,0,3,-1,-4,-5,-5,2,-5
1,3,1,-3,0,3,-1,-4,-5,-5,3,-5
1,3,1,-3,0,3,-1,-3,-4,-4,3,-5
1,3,1,-3,0,3,-1,-3,-4,-4,3,-5
1,3,1,-3,0,3,-1,-3,-4,-4,2,-5
2,3,1,-3,0,3,-1,-3,-4,-4,1,-4
2,3,1,-3,0,3,-1,-3,-4,-4,1,-4
2,4,1,-3,0,3,-1,-3,-4,-4,1,-3
2,4,1,-3,0,3,-1,-3,-4,-4,1,-3
2,4,1,-3,0,3,-1,-3,-4,-4,1,-3
2,4,1,-3,0,3,-1,-3,-4,-4,2,-3
2,4,1,-3,0,3,-1,-3,-4,-4,2,-3
2,4,1,-3,0,3,-1,-3,-4,-4,2,-3
2,4,1,-3,0,3,-1,-3,-3,-4,2,-3
1,4,1,-3,0,3,-1,-3,-3,-3,2,-3
0,3,2,-3,-1,3,-1,-3,-3,-3,2,-3
0,3,2,-3,-1,3,-1,-3,-3,-3,2,-3
1,3,1,-3,0,3,-2,-3,-3,-4,2,-3
2,3,0,-4,0,2,-2,-3,-4,-4,2,-4
3,3,0,-4,1,2,-2,-3,-4,-4,2,-4
3,3,0,-4,1,3,-2,-3,-4,-4,1,-3
2,4,1,-4,1,3,-2,-3,-3,-4,1,-3
2,4,1,-4,0,4,-2,-3,-3,-4,1,-3
3,4,1,-4,0,4,-2,-3,-3,-4,1,-3
3,5,1,-5,1,3,-2,-3,-3,-4,0,-3
4,5,0,-5,1,3,-2,-3,-3,-4,0,-3
4,5,0,-4,1,3,-2,-3,-3,-3,1,-3
3,4,1,-4,1,3,-2,-3,-3,-3,1,-3
3,4,1,-4,0,3,-2,-3,-3,-3,1,-3
3,4,1,-4,0,3,-3,-4,-3,-3,0,-3
3,4,1,-4,0,3,-3,-4,-3,-3,0,-3
3,4,1,-4,1,3,-4,-4,-3,-3,0,-3
2,4,1,-4,1,3,-4,-4,-3,-3,0,-3
2,4,1,-3,0,3,-4,-4,-4,-3,-1,-3
2,4,1,-3,0,3,-4,-4,-4,-3,-1,-3
2,4,1,-3,0,3,-4,-4,-4,-4,-1,-3
2,4,1,-3,0,3,-4,-4,-5,-4,-1,-3
2,4,1,-3,0,3,-4,-4,-5,-4,-2,-4
2,4,0,-3,0,3,-4,-4,-5,-4,-3,-4
2,4,0,-3,0,3,-4,-4,-5,-4,-3,-4
2,4,0,-3,0,3,-4,-4,-5,-4,-3,-4
2,4,1,-3,0,3,-4,-4,-5,-4,-3,-4
2,4,1,-3,0,3,-4,-4,-5,-4,-3,-4
2,4,1,-3,0,3,-4,-4,-5,-4,-3,-4
2,4,1,-3,0,3,-4,-4,-5,-4,-3,-4
2,4,1,-3,0,3,-4,-4,-5,-4,-4,-4
2,4,1,-3,0,3,-4,-4,-5,-5,-4,-4
2,4,1,-3,0,3,-4,-4,-5,-5,-5,-4
2,4,1,-3,0,3,-4,-4,-6,-6,-5,-4
2,4,1,-3,0,3,-4,-5,-6,-6,-5,-5
2,4,1,-3,0,3,-4,-5,-6,-6,-6,-5
2,4,1,-3,0,2,-5,-5,-6,-6,-6,-5
2,3,0,-3,0,2,-5,-5,-7,-6,-6,-5
2,3,0,-3,1,2,-5,-5,-7,-6,-6,-5
2,4,0,-3,1,2,-5,-5,-7,-6,-7,-5
2,4,0,-3,1,2,-5,-5,-7,-7,-7,-5
2,4,0,-3,1,2,-5,-5,-7,-7,-7,-6
2,4,0,-3,1,2,-5,-5,-7,-7,-7,-6
2,4,0,-3,1,2,-5,-5,-8,-8,-7,-7
2,3,0,-2,0,2,-5,-5,-8,-8,-7,-7
2,3,0,-2,0,2,-5,-5,-8,-8,-7,-7
2,3,0,-2,0,2,-5,-5,-8,-8,-7,-7
1,4,1,-2,0,3,-5,-5,-8,-8,-7,-7
1,4,2,-2,0,3,-5,-5,-8,-8,-7,-7
0,4,2,-2,-1,3,-6,-6,-8,-8,-7,-7
0,4,2,-2,-1,3,-6,-6,-8,-8,-7,-7
0,4,2,-2,0,3,-6,-6,-8,-8,-7,-7
0,4,2,-2,0,3,-6,-6,-8,-8,-7,-7
0,4,2,-2,-1,3,-6,-6,-8,-8,-7,-6
0,4,2,-2,-1,3,-6,-6,-8,-8,-7,-6
0,4,1,-2,0,3,-7,-6,-8,-9,-8,-6
1,3,0,-2,1,2,-7,-7,-9,-9,-9,-7
1,3,0,-2,1,2,-7,-7,-9,-9,-9,-7
0,2,0,-1,0,2,-7,-6,-8,-9,-9,-6
0,2,0,-1,0,2,-7,-6,-8,-9,-9,-6
0,2,0,-1,0,2,-7,-7,-9,-9,-9,-7
0,2,0,-1,0,2,-7,-7,-9,-9,-9,-7
0,2,0,-1,0,2,-7,-7,-9,-9,-9,-7
0,2,0,-1,0,2,-7,-7,-9,-9,-10,-7
0,2,0,-1,0,2,-7,-7,-9,-9,-11,-7
0,2,0,-1,0,2,-7,-7,-9,-9,-12,-7
0,2,0,-1,0,2,-7,-7,-9,-9,-12,-7
0,2,0,-1,0,2,-7,-7,-9,-9,-12,-7
0,2,1,-1,0,2,-7,-7,-9,-9,-12,-7
0,2,1,0,0,2,-7,-7,-9,-8,-12,-7
0,1,1,0,0,2,-7,-7,-9,-8,-12,-7
0,1,1,0,0,2,-7,-7,-9,-8,-13,-6
-1,1,1,0,0,2,-7,-7,-9,-8,-14,-6
-1,1,1,0,0,1,-7,-7,-9,-8,-15,-6
-1,1,1,0,0,1,-7,-7,-8,-8,-15,-6
-1,1,0,0,0,1,-7,-7,-8,-8,-16,-6
-1,1,0,0,0,1,-7,-7,-8,-8,-16,-6
-1,0,0,0,0,1,-7,-6,-8,-8,-16,-6
-1,0,0,0,0,1,-7,-6,-8,-8,-16,-6
-1,0,0,0,0,1,-7,-6,-8,-8,-17,-6
-2,0,0,0,-1,1,-7,-6,-8,-8,-18,-6
-2,0,0,1,-1,1,-7,-6,-8,-8,-19,-6
-3,0,0,1,-2,1,-7,-6,-8,-8,-20,-6
-4,-1,1,2,-2,1,-7,-6,-8,-8,-20,-6
-4,-1,1,2,-2,0,-7,-6,-8,-7,-20,-6
-3,-1,0,2,-1,0,-7,-6,-8,-7,-20,-6
-2,-1,-1,1,0,-1,-7,-7,-9,-7,-21,-7
-2,-1,-1,1,0,-1,-7,-7,-8,-7,-21,-7
-2,-1,0,1,0,0,-7,-7,-8,-8,-21,-6
-2,-1,0,1,0,0,-7,-6,-8,-8,-22,-6
-2,-1,0,1,0,0,-7,-6,-8,-8,-22,-6
-1,-1,0,1,0,0,-7,-6,-8,-8,-22,-6
-1,-1,0,1,0,0,-7,-6,-8,-8,-22,-6
-1,-1,0,1,0,0,-7,-6,-8,-8,-22,-6
-2,-1,0,1,0,0,-7,-6,-8,-7,-21,-6
-2,-1,0,1,-1,0,-7,-6,-8,-7,-21,-6
-2,-1,0,1,-1,0,-7,-6,-8,-7,-21,-6
-2,-1,0,1,-1,0,-7,-6,-8,-7,-22,-6
-2,-1,0,2,-1,-1,-7,-6,-8,-7,-22,-6
-2,-1,-1,2,-1,-1,-7,-6,-8,-7,-22,-6
-2,-1,-1,2,0,-1,-7,-6,-8,-7,-22,-6
-2,-1,-1,2,0,-1,-7,-6,-8,-6,-22,-5
-3,-1,0,2,-1,0,-7,-6,-8,-6,-22,-5
-4,-1,1,2,-2,0,-6,-5,-7,-6,-22,-5
-4,-1,1,2,-2,0,-6,-5,-7,-6,-22,-5
-3,-2,0,2,-1,-1,-7,-6,-8,-7,-23,-6
-3,-2,0,2,0,-1,-7,-6,-8,-7,-24,-6
-3,-2,-1,2,0,-1,-7,-6,-8,-7,-24,-6
-3,-2,-1,3,0,-1,-7,-6,-8,-7,-24,-6
-2,-2,-1,2,0,-1,-7,-6,-8,-7,-23,-6
-2,-2,-1,2,0,-1,-8,-6,-8,-7,-23,-6
-1,-2,-2,1,0,-1,-8,-6,-8,-7,-23,-6
-1,-2,-2,1,0,-1,-8,-6,-8,-7,-22,-6
-1,-2,-2,1,0,-1,-8,-7,-8,-7,-22,-6
-1,-2,-2,1,0,-1,-8,-7,-8,-7,-22,-6
-1,-2,-2,1,0,-1,-8,-7,-8,-7,-22,-6
-1,-1,-1,1,0,-1,-8,-7,-8,-7,-22,-6
-1,-1,-1,1,0,-1,-8,-7,-8,-7,-22,-6
-1,-1,-1,1,0,-1,-8,-7,-8,-7,-22,-6
-1,-1,-1,1,0,-1,-8,-7,-8,-7,-22,-6
-1,-1,-1,1,0,-1,-8,-7,-8,-7,-21,-6
-1,-1,0,1,0,-1,-8,-7,-8,-7,-21,-6
-2,-1,0,1,0,0,-8,-7,-8,-7,-21,-6
-2,-1,0,1,0,0,-8,-7,-8,-7,-21,-6
-1,-1,0,1,0,0,-8,-7,-8,-7,-21,-6
-1,-1,-1,1,0,0,-8,-7,-8,-7,-21,-6
-1,-1,-1,1,0,0,-8,-7,-8,-7,-21,-6
-1,-1,-1,1,0,-1,-8,-7,-7,-7,-20,-6
-1,-1,-1,1,0,-1,-8,-7,-7,-7,-20,-6
-1,-1,-1,1,0,-1,-8,-7,-7,-7,-19,-6
-1,-2,-1,1,0,-1,-8,-7,-7,-7,-19,-6
-1,-2,-2,1,0,-2,-8,-7,-7,-7,-18,-6
-1,-3,-2,2,0,-2,-8,-7,-7,-7,-18,-6
-2,-3,-1,2,0,-2,-8,-7,-7,-7,-18,-6
-2,-3,-1,2,0,-2,-8,-7,-8,-7,-17,-6
-2,-3,-1,2,0,-2,-8,-7,-8,-7,-17,-6
-2,-2,-1,2,0,-2,-8,-7,-8,-7,-17,-6
-2,-2,-1,2,0,-2,-8,-7,-8,-8,-16,-6
-1,-2,-1,1,0,-1,-8,-7,-8,-8,-16,-6
-1,-1,-1,1,0,-1,-8,-7,-8,-8,-16,-7
-1,-1,-1,1,0,0,-8,-7,-8,-8,-15,-7
-1,-1,0,1,-1,0,-8,-7,-8,-8,-15,-7
-2,0,1,1,-2,1,-8,-7,-8,-8,-14,-6
-2,0,2,1,-2,1,-8,-7,-8,-8,-14,-6
-2,0,1,0,-2,1,-8,-7,-8,-8,-15,-6
-1,0,0,0,-1,1,-8,-8,-8,-8,-15,-7
0,0,0,0,0,0,-8,-8,-8,-8,-15,-7
0,0,0,0,0,0,-8,-8,-8,-8,-16,-7
0,0,0,0,0,0,-8,-8,-8,-8,-17,-7
0,0,0,0,0,0,-8,-8,-8,-8,-18,-7
0,-1,0,0,0,0,-8,-8,-9,-8,-18,-7
0,-1,-1,0,0,-1,-8,-8,-9,-8,-19,-7
-1,-1,-1,0,0,-1,-8,-8,-9,-8,-20,-7
-2,-1,-1,1,0,-1,-8,-8,-8,-8,-20,-7
-2,-1,-1,1,0,-1,-8,-7,-8,-8,-20,-7
-2,-1,-1,1,0,-1,-8,-7,-8,-8,-21,-7
-2,-2,-1,1,0,-1,-8,-7,-8,-8,-22,-7
-2,-2,-1,1,0,-1,-8,-7,-8,-8,-22,-7
-2,-2,-1,1,0,-1,-8,-7,-8,-8,-23,-7
-2,-2,0,1,0,-1,-8,-7,-8,-8,-23,-7
-3,-3,0,2,0,-1,-8,-7,-8,-8,-24,-7
-3,-3,-1,2,0,-1,-8,-7,-8,-7,-24,-7
-3,-3,-1,2,0,-2,-7,-7,-8,-7,-24,-7
-3,-3,-1,2,0,-2,-7,-7,-7,-6,-24,-6
-3,-3,-1,2,0,-2,-7,-7,-7,-6,-24,-6
-3,-3,-1,2,0,-2,-7,-7,-7,-6,-24,-6
-2,-3,-1,2,0,-2,-7,-7,-7,-6,-23,-6
-2,-3,-1,2,0,-2,-7,-7,-7,-6,-23,-6
-1,-2,-1,2,0,-1,-7,-6,-7,-6,-23,-6
-1,-2,-1,1,0,-1,-7,-6,-7,-6,-23,-6
-1,-1,0,1,0,0,-6,-5,-7,-6,-22,-6
-2,-1,0,1,0,0,-6,-5,-7,-6,-22,-6
-2,0,1,0,0,1,-6,-5,-7,-5,-22,-6
-2,0,2,0,-1,2,-6,-5,-6,-5,-21,-6
-2,1,3,0,-1,3,-5,-5,-6,-5,-21,-5
-2,1,3,0,-2,3,-5,-5,-5,-5,-20,-5
-2,1,4,0,-2,3,-5,-5,-5,-5,-19,-5
-2,1,4,0,-2,3,-5,-5,-5,-5,-19,-5
-2,1,4,0,-2,3,-5,-5,-5,-5,-18,-5
-2,1,3,0,-2,3,-5,-5,-5,-5,-18,-5
-2,1,4,0,-2,3,-5,-5,-5,-5,-18,-5
-2,2,4,-1,-2,3,-5,-5,-5,-5,-18,-5
-2,2,4,-1,-2,4,-5,-6,-5,-5,-18,-5
-1,2,4,-1,-2,4,-4,-6,-5,-5,-17,-5
-1,2,4,-1,-2,4,-4,-6,-5,-5,-17,-5
-1,3,4,-1,-2,4,-4,-5,-5,-5,-17,-5
-1,3,5,-1,-3,4,-3,-5,-5,-5,-16,-5
-1,4,5,-1,-3,5,-3,-5,-5,-5,-16,-5
-1,4,6,-1,-3,5,-3,-5,-5,-5,-15,-5
-2,4,6,-1,-3,5,-3,-5,-5,-4,-15,-5
-2,5,7,-1,-4,6,-4,-5,-5,-4,-14,-5
-2,5,7,-1,-4,6,-4,-5,-5,-4,-14,-4
-2,6,8,-1,-5,7,-5,-5,-5,-4,-13,-4
-2,6,8,-1,-5,7,-5,-6,-5,-4,-13,-4
-2,6,8,-2,-5,7,-6,-8,-5,-4,-12,-4
-2,6,8,-2,-5,7,-7,-9,-6,-4,-12,-4
-2,6,8,-2,-5,6,-8,-9,-6,-4,-13,-4
-2,5,7,-2,-4,6,-8,-9,-7,-5,-13,-4
-1,5,7,-2,-4,6,-9,-9,-7,-5,-14,-4
-1,4,6,-1,-4,5,-9,-9,-7,-5,-14,-4
-1,4,6,-1,-3,5,-9,-9,-8,-5,-13,-5
-1,4,5,-1,-3,5,-9,-10,-8,-6,-13,-5
-1,4,5,-2,-2,5,-9,-10,-9,-6,-13,-6
-1,4,4,-2,-2,4,-9,-11,-9,-7,-13,-6
-1,4,5,-2,-2,4,-9,-11,-9,-7,-12,-6
-1,4,5,-2,-2,4,-10,-11,-9,-7,-13,-6
0,4,4,-2,-2,4,-10,-11,-10,-8,-14,-6
1,3,3,-2,-1,3,-10,-11,-10,-8,-14,-7
1,3,2,-2,0,3,-10,-11,-11,-9,-14,-7
0,3,2,-1,0,3,-10,-11,-11,-9,-14,-7
0,3,2,-1,0,3,-10,-11,-10,-9,-13,-7
0,3,2,-2,0,3,-10,-11,-10,-9,-12,-7
0,3,2,-2,0,3,-10,-11,-10,-9,-12,-7
0,3,2,-2,0,3,-9,-10,-10,-8,-11,-7
0,3,3,-2,-1,3,-9,-10,-10,-8,-11,-7
-1,3,3,-2,-1,3,-8,-10,-9,-8,-11,-7
-1,3,4,-1,-2,3,-8,-9,-9,-8,-10,-7
-2,2,4,-1,-3,3,-7,-9,-9,-8,-9,-7
-1,2,4,0,-2,3,-7,-9,-9,-8,-9,-7
-1,1,3,0,-2,2,-7,-10,-10,-9,-9,-8
-1,0,2,0,-1,1,-7,-10,-10,-9,-8,-8
-2,-1,1,1,-1,0,-6,-10,-10,-9,-8,-8
-2,-2,1,1,-1,0,-6,-10,-10,-10,-8,-8
-2,-3,0,2,-1,0,-6,-10,-10,-10,-8,-9
-2,-3,-1,2,-1,-1,-6,-10,-10,-11,-8,-9
-2,-4,-1,2,0,-2,-6,-10,-11,-11,-8,-10
-2,-4,-1,3,0,-2,-6,-10,-11,-12,-8,-10
-3,-4,-1,3,-1,-2,-6,-10,-12,-12,-8,-10
-3,-5,-1,3,-1,-2,-6,-10,-12,-12,-8,-10
-3,-4,-1,3,-1,-2,-6,-10,-12,-12,-8,-10
-3,-4,0,3,-1,-2,-6,-10,-12,-13,-9,-10
-3,-4,0,3,-1,-2,-6,-10,-13,-13,-9,-11
-3,-4,-1,3,0,-2,-5,-10,-13,-14,-9,-11
-3,-4,-1,4,0,-3,-5,-10,-13,-14,-9,-11
-4,-5,-1,4,-1,-3,-5,-10,-13,-14,-9,-11
-4,-5,-1,5,-1,-3,-5,-10,-13,-14,-9,-11
-4,-5,-1,5,-1,-2,-5,-10,-13,-14,-8,-11
-4,-5,-1,4,-1,-2,-5,-10,-13,-14,-8,-11
-4,-4,0,4,-2,-2,-4,-10,-12,-14,-8,-11
-4,-4,0,4,-2,-2,-4,-10,-12,-14,-8,-11
-4,-4,0,4,-2,-2,-4,-10,-12,-14,-8,-11
-4,-5,-1,4,-1,-2,-4,-10,-12,-14,-8,-11
-3,-5,-1,4,-1,-3,-4,-10,-12,-14,-8,-11
-3,-5,-1,4,-1,-3,-4,-10,-12,-14,-8,-10
-3,-5,-1,4,0,-3,-4,-10,-12,-13,-7,-10
-3,-5,-2,4,0,-3,-4,-10,-12,-13,-7,-10
-3,-5,-2,4,0,-3,-4,-10,-12,-13,-7,-10
-3,-5,-2,4,0,-4,-4,-9,-12,-13,-7,-10
-3,-5,-2,4,0,-4,-4,-9,-12,-13,-7,-10
-3,-5,-2,4,0,-4,-4,-9,-12,-13,-7,-10
-3,-5,-1,4,0,-4,-3,-9,-12,-13,-7,-10
-4,-5,-1,4,-1,-3,-3,-9,-12,-13,-7,-10
-4,-5,-1,4,-1,-3,-3,-9,-12,-13,-7,-10
-4,-6,-2,5,-1,-4,-3,-9,-12,-13,-6,-10
-4,-6,-2,5,-1,-4,-3,-9,-12,-13,-6,-10
-4,-6,-2,5,-1,-4,-3,-9,-11,-13,-6,-10
-4,-6,-2,5,0,-4,-3,-9,-11,-13,-6,-10
-3,-6,-2,5,0,-4,-3,-9,-11,-13,-5,-10
-3,-6,-2,5,0,-4,-3,-9,-11,-13,-5,-9
-3,-6,-2,4,0,-4,-3,-8,-11,-13,-5,-9
-2,-6,-2,4,0,-4,-3,-8,-10,-13,-5,-9
-2,-5,-2,3,1,-4,-3,-7,-9,-11,-3,-8
-1,-4,-2,2,1,-3,-3,-6,-6,-9,-1,-7
0,-2,-2,1,1,-2,-4,-3,-2,-5,1,-4
1,0,-1,0,1,-1,-4,1,3,0,5,-1
2,1,-1,-1,2,0,-4,5,9,6,10,2
5,3,-1,-4,3,1,-4,10,16,13,16,7
7,5,-2,-6,5,2,-5,15,24,21,24,13
10,8,-2,-9,7,3,-6,21,34,32,34,21
14,11,-2,-13,9,4,-6,29,48,45,47,31
18,15,-3,-16,12,5,-6,37,62,60,61,41
24,18,-6,-21,15,6,-8,43,75,74,75,53
30,21,-8,-25,19,7,-10,45,84,87,90,65
35,26,-8,-30,21,9,-14,41,87,96,104,79
38,31,-6,-34,22,12,-18,29,81,99,115,91
40,37,-2,-38,22,17,-24,8,63,93,122,101
39,42,3,-41,19,22,-28,-18,37,81,123,106
37,47,11,-42,14,28,-31,-43,12,65,116,104
33,50,19,-41,8,34,-31,-61,-9,47,103,95
26,53,28,-39,0,40,-29,-75,-30,27,83,80
18,53,36,-35,-8,44,-25,-86,-52,5,57,59
9,48,40,-28,-15,44,-19,-95,-73,-20,29,36
0,41,42,-21,-20,41,-14,-101,-95,-46,1,12
-7,34,41,-13,-23,37,-10,-108,-116,-72,-24,-10
-13,26,39,-6,-24,32,-8,-114,-135,-95,-46,-28
-17,16,33,0,-24,25,-7,-119,-149,-113,-62,-41
-19,6,26,6,-22,16,-6,-121,-158,-126,-73,-51
-21,-4,18,12,-19,7,-6,-119,-162,-134,-81,-60
-22,-14,9,18,-16,-2,-5,-115,-163,-140,-88,-67
-24,-22,3,22,-14,-9,-3,-111,-161,-142,-93,-72
-26,-28,-2,26,-12,-15,-1,-105,-157,-141,-95,-75
-28,-34,-6,30,-10,-20,0,-100,-152,-139,-96,-77
-29,-38,-9,33,-9,-24,1,-94,-145,-135,-95,-78
-29,-41,-12,35,-8,-27,1,-88,-138,-131,-93,-78
-29,-44,-14,37,-7,-29,0,-83,-131,-125,-90,-78
-28,-44,-15,36,-6,-30,-2,-79,-122,-118,-85,-75
-27,-42,-15,34,-6,-29,-4,-74,-113,-109,-78,-70
-25,-40,-14,32,-5,-28,-7,-68,-103,-100,-71,-64
-23,-38,-14,30,-4,-26,-8,-61,-92,-90,-64,-59
-20,-34,-13,27,-3,-24,-9,-54,-82,-81,-57,-53
-18,-29,-11,24,-2,-21,-9,-46,-71,-71,-50,-48
-15,-25,-9,21,-1,-18,-8,-39,-61,-62,-43,-42
-14,-22,-7,18,-1,-15,-7,-32,-52,-53,-36,-37
-12,-19,-6,16,-1,-13,-5,-25,-43,-45,-29,-32
-11,-17,-5,14,-1,-12,-3,-19,-34,-37,-23,-28
-9,-15,-4,12,-1,-10,-1,-14,-27,-30,-18,-24
-7,-13,-4,10,0,-9,0,-9,-21,-25,-14,-21
-7,-12,-4,9,0,-8,0,-5,-16,-20,-11,-18
-6,-10,-3,8,0,-7,1,-2,-11,-16,-9,-16
-5,-9,-3,7,0,-6,1,0,-7,-14,-7,-15
-4,-9,-3,6,0,-5,2,2,-4,-11,-5,-13
-4,-8,-3,6,0,-5,2,4,-2,-9,-2,-12
-3,-8,-3,5,1,-5,3,5,0,-7,0,-10
-3,-7,-3,5,1,-5,3,5,1,-5,1,-9
-3,-7,-3,5,1,-5,3,6,2,-4,1,-9
-3,-7,-3,5,1,-5,3,7,4,-3,2,-8
-2,-7,-3,4,1,-5,3,8,5,-2,2,-8
-2,-6,-3,4,1,-5,3,9,6,-1,3,-7
-2,-6,-3,4,1,-5,3,10,7,0,4,-7
-2,-6,-3,4,1,-5,4,11,9,1,6,-6
-2,-6,-2,4,1,-4,4,12,10,2,7,-5
-2,-6,-2,4,1,-4,5,12,11,3,8,-4
-2,-6,-2,3,2,-4,5,12,11,3,8,-4
-1,-6,-3,3,2,-5,5,12,11,3,8,-4
0,-6,-4,3,2,-5,5,13,11,4,9,-4
0,-5,-4,3,2,-5,5,13,12,4,9,-4
0,-5,-4,3,2,-5,5,14,12,4,9,-4
0,-5,-4,3,2,-5,5,14,13,5,10,-4
0,-5,-4,3,2,-5,5,14,13,5,11,-3
0,-5,-4,2,2,-5,5,14,14,6,12,-3
0,-5,-4,2,2,-4,5,15,14,6,12,-3
0,-4,-3,2,2,-4,5,15,15,6,12,-2
0,-4,-3,2,2,-4,5,15,15,6,12,-2
0,-4,-3,2,2,-4,5,16,16,7,12,-2
0,-4,-3,2,2,-4,5,16,16,7,12,-2
0,-4,-3,2,2,-4,5,16,17,8,13,-2
0,-4,-3,2,2,-4,6,17,17,8,13,-1
0,-4,-3,2,2,-4,6,17,18,9,14,-1
0,-4,-3,2,2,-4,6,17,18,9,14,0
0,-4,-4,2,2,-4,6,17,19,9,13,0
0,-5,-4,2,2,-4,6,17,19,9,13,0
0,-5,-4,2,2,-4,6,18,20,10,13,0
0,-5,-4,2,2,-4,7,18,20,10,13,0
0,-5,-4,2,2,-4,7,19,21,10,13,0
0,-5,-3,2,2,-4,7,19,22,11,13,0
0,-5,-3,2,1,-3,7,19,23,12,14,1
0,-5,-3,2,1,-3,7,19,24,12,14,1
0,-4,-3,2,2,-4,7,19,24,12,13,1
0,-4,-4,2,2,-4,7,20,24,12,12,1
0,-4,-4,2,2,-5,7,20,25,12,12,2
1,-4,-4,1,3,-5,7,21,25,13,12,2
1,-4,-4,1,3,-5,6,21,26,13,12,2
2,-4,-5,0,3,-5,6,22,26,14,12,2
2,-4,-5,0,4,-5,5,22,27,14,12,2
2,-4,-5,0,4,-5,5,23,27,15,12,2
2,-4,-5,0,4,-5,5,23,28,16,12,2
2,-4,-5,0,4,-4,5,24,29,16,12,2
2,-3,-4,0,4,-4,5,25,30,17,12,3
2,-3,-4,0,3,-4,5,25,31,17,13,3
2,-3,-4,0,3,-4,5,26,31,18,13,3
2,-3,-4,0,3,-3,5,26,32,18,13,3
2,-3,-4,0,3,-3,5,27,33,19,14,4
2,-3,-4,-1,3,-3,5,28,34,19,14,4
3,-2,-4,-1,3,-3,5,28,35,20,14,4
3,-2,-4,-1,3,-3,5,29,36,21,14,4
3,-2,-4,-1,3,-3,5,30,37,22,14,5
3,-1,-3,-1,3,-2,5,30,38,23,15,5
3,-1,-3,-2,3,-2,5,31,39,23,15,5
4,0,-3,-2,3,-2,5,31,40,24,16,6
4,0,-3,-2,3,-2,5,32,41,24,17,6
5,0,-4,-3,4,-2,5,33,42,25,18,7
5,0,-4,-3,4,-2,5,34,44,27,18,7
6,0,-4,-4,5,-1,5,35,45,28,19,8
6,1,-3,-4,5,-1,5,36,46,30,20,8
6,1,-3,-5,5,0,5,37,48,31,21,9
6,2,-3,-5,5,0,5,38,49,32,22,10
7,3,-3,-6,5,0,5,38,51,33,23,10
7,3,-3,-6,5,1,5,39,52,34,24,11
7,4,-2,-6,5,1,5,40,54,35,25,12
7,5,-2,-7,5,2,5,41,55,37,26,13
8,5,-2,-7,5,2,5,42,57,38,27,14
8,6,-1,-7,5,2,4,43,58,40,27,15
9,6,-1,-8,5,2,4,44,60,41,29,16
9,7,0,-8,5,3,4,44,61,42,30,17
9,7,0,-9,5,3,4,45,62,43,31,18
10,8,0,-9,5,3,4,45,63,44,32,18
10,8,0,-10,5,4,3,46,64,45,34,19
10,9,0,-10,5,4,3,46,65,46,35,20
10,10,1,-11,4,5,3,47,67,47,35,21
10,11,2,-12,4,6,3,48,68,49,36,22
11,13,2,-13,5,7,3,48,69,50,38,23
12,14,2,-13,5,8,2,48,70,51,39,24
13,15,3,-14,4,8,2,48,70,51,41,25
13,15,4,-14,4,9,1,48,71,52,42,26
13,16,4,-15,4,10,1,48,71,53,43,27
14,17,4,-16,5,10,0,48,72,53,44,27
15,18,4,-17,5,11,0,48,72,54,44,28
15,19,4,-17,5,11,0,47,72,54,44,28
15,19,4,-18,5,12,-1,47,72,55,45,29
15,20,5,-18,4,12,-1,47,72,55,45,29
15,20,5,-18,4,13,-2,46,72,55,46,30
15,21,6,-18,4,13,-2,46,72,55,47,30
15,21,6,-18,4,13,-2,45,72,54,47,30
15,21,7,-18,4,13,-2,44,71,54,47,30
15,21,7,-18,4,14,-2,44,71,54,47,31
15,22,8,-19,4,14,-3,43,70,54,47,31
15,22,8,-19,4,14,-3,42,69,54,47,31
16,22,7,-20,4,14,-4,41,68,53,46,31
16,22,7,-20,4,14,-4,39,67,52,46,31
15,23,8,-20,4,14,-5,38,65,51,46,31
15,23,8,-19,3,15,-5,37,64,50,46,31
15,23,9,-19,3,15,-5,36,63,49,46,30
14,23,9,-19,2,16,-5,35,62,48,45,30
14,23,9,-19,2,16,-6,33,60,47,44,30
14,23,9,-19,2,16,-6,31,58,45,43,29
14,22,9,-19,2,16,-6,30,56,44,42,28
14,22,9,-19,2,16,-7,28,54,42,42,28
14,22,9,-19,2,16,-7,26,52,40,41,27
13,21,9,-18,1,15,-7,24,49,39,40,27
13,21,9,-17,1,15,-7,22,47,37,39,26
12,21,10,-17,1,15,-7,21,45,35,38,25
12,21,10,-16,1,16,-7,19,43,33,36,24
11,20,11,-16,0,16,-7,17,40,31,35,23
10,19,11,-15,0,15,-7,15,38,29,33,22
9,18,11,-14,0,14,-7,13,35,27,32,21
8,18,11,-14,-1,14,-7,12,32,25,31,20
8,17,11,-13,-1,14,-7,10,30,23,30,19
7,17,10,-12,-1,13,-7,9,27,21,28,18
7,16,10,-11,-1,13,-7,7,25,19,27,17
6,14,9,-10,-2,12,-6,6,23,17,26,15
6,13,9,-9,-2,11,-6,4,20,15,24,14
5,12,9,-8,-2,10,-5,3,18,13,22,13
4,11,9,-7,-2,9,-5,2,16,11,21,12
3,10,8,-7,-2,9,-4,0,14,10,20,11
2,10,8,-6,-2,9,-4,-1,12,8,19,10
2,9,7,-6,-2,8,-4,-2,10,6,17,9
1,8,7,-5,-2,8,-3,-3,8,4,17,8
1,7,8,-5,-3,7,-3,-4,7,3,16,7
0,7,8,-4,-4,7,-2,-5,5,2,14,6
0,6,8,-3,-4,7,-2,-5,4,1,13,5
0,6,7,-3,-4,6,-2,-6,2,0,11,4
0,5,7,-3,-4,6,-2,-7,1,-1,9,3
0,5,6,-2,-4,5,-1,-8,0,-2,9,3
-1,4,6,-2,-4,5,-1,-8,-1,-3,8,2
-1,3,5,-1,-3,4,-1,-9,-2,-4,7,1
-1,2,4,-1,-3,3,-1,-9,-3,-5,6,0
-1,1,4,0,-3,3,-1,-9,-4,-6,5,0
-2,1,4,0,-4,2,0,-10,-5,-6,4,0
-3,0,4,0,-4,2,0,-10,-6,-7,3,-1
-3,0,4,1,-4,1,0,-11,-6,-7,2,-1
-3,0,3,1,-3,1,0,-11,-7,-8,2,-2
-3,0,3,1,-3,1,0,-12,-7,-8,1,-2
-3,-1,3,1,-3,0,0,-12,-8,-9,1,-3
-3,-1,2,1,-3,0,0,-12,-8,-9,1,-3
-3,-2,2,1,-3,0,0,-12,-9,-10,0,-4
-3,-2,2,2,-3,0,0,-12,-9,-10,0,-4
-3,-2,3,2,-3,0,0,-12,-9,-10,-1,-4
-4,-2,3,2,-3,0,0,-12,-9,-10,-2,-4
-5,-3,3,3,-4,0,1,-12,-9,-10,-1,-4
-6,-3,4,4,-5,0,1,-12,-9,-10,-1,-4
-6,-3,4,4,-5,0,1,-13,-9,-11,0,-4
-5,-3,3,4,-5,0,1,-13,-10,-11,0,-4
-4,-3,2,4,-4,0,1,-13,-10,-12,0,-4
-4,-4,2,3,-3,-1,1,-13,-11,-12,-1,-4
-4,-4,2,3,-3,-1,1,-13,-11,-12,-1,-4
-4,-4,1,3,-3,-1,1,-13,-11,-12,-1,-4
-4,-4,1,3,-3,-1,1,-13,-11,-12,-1,-5
-4,-4,0,3,-3,-1,1,-13,-11,-11,-1,-5
-4,-4,0,3,-3,-1,1,-13,-11,-11,-1,-5
-4,-4,0,4,-3,-1,1,-13,-10,-11,0,-4
-4,-4,0,4,-3,-1,1,-13,-10,-10,0,-4
-4,-4,0,4,-3,-1,1,-13,-10,-10,0,-4
-4,-4,0,4,-3,-1,1,-13,-10,-10,0,-4
-4,-5,1,4,-3,-1,1,-12,-10,-10,0,-4
-4,-5,1,4,-3,-2,1,-12,-10,-10,0,-4
-4,-5,1,4,-3,-2,1,-12,-10,-10,0,-5
-4,-5,1,4,-3,-2,1,-12,-10,-10,0,-5
-4,-5,1,4,-3,-2,1,-12,-10,-10,0,-5
-4,-4,1,4,-3,-2,1,-12,-10,-10,0,-5
-4,-4,1,4,-3,-1,1,-12,-10,-10,0,-5
-5,-4,2,4,-3,-1,1,-12,-10,-10,0,-5
-5,-4,2,4,-3,-1,1,-12,-10,-10,0,-5
-5,-4,2,4,-3,-1,1,-11,-10,-9,0,-5
-4,-4,2,3,-3,-1,1,-11,-10,-9,0,-5
-4,-4,2,3,-3,-1,1,-11,-9,-9,0,-5
-5,-4,2,3,-4,-1,1,-11,-9,-9,0,-5
-5,-4,2,3,-4,-1,1,-11,-9,-9,0,-5
-4,-4,2,3,-3,-1,1,-11,-9,-9,0,-5
-4,-3,2,3,-3,-1,1,-11,-9,-9,0,-5
-4,-3,2,3,-3,-1,1,-11,-9,-9,0,-5
-4,-4,2,3,-3,-1,1,-11,-8,-9,0,-5
-4,-4,1,4,-3,-1,1,-11,-8,-9,0,-5
-4,-5,1,4,-3,-2,1,-11,-8,-8,0,-5
-4,-5,1,4,-3,-2,1,-11,-8,-8,0,-5
-5,-5,1,4,-3,-2,1,-10,-8,-8,0,-5
-5,-5,1,4,-3,-2,1,-10,-8,-8,0,-5
-5,-5,1,4,-3,-1,1,-10,-8,-8,0,-5
-5,-4,1,4,-3,-1,1,-10,-8,-7,0,-5
-5,-4,1,4,-3,-1,1,-10,-7,-7,0,-5
-5,-4,2,5,-4,-1,2,-9,-7,-6,1,-4
-5,-4,2,4,-4,-1,2,-9,-7,-6,1,-4
-4,-4,2,4,-3,-1,1,-9,-7,-6,0,-4
-3,-3,1,3,-3,-1,1,-9,-7,-6,0,-4
-3,-3,1,3,-3,-1,1,-9,-7,-6,0,-4
-3,-3,2,3,-3,0,1,-9,-7,-6,0,-4
-3,-3,2,3,-3,0,1,-9,-6,-6,0,-4
-3,-2,2,3,-3,0,1,-9,-6,-6,0,-4
-3,-2,2,3,-3,0,1,-9,-6,-5,1,-4
-3,-2,3,3,-3,0,1,-9,-6,-5,1,-4
-4,-2,4,3,-4,0,1,-9,-6,-4,1,-3
-4,-2,4,3,-4,1,1,-9,-6,-4,1,-3
-4,-2,3,3,-4,0,1,-9,-6,-4,1,-3
-4,-2,3,3,-4,0,1,-9,-6,-4,1,-3
-4,-2,4,3,-4,0,1,-9,-6,-4,1,-3
-4,-2,3,3,-4,0,1,-9,-6,-4,1,-4
-4,-2,3,3,-3,0,1,-9,-7,-5,0,-4
-3,-2,2,3,-3,-1,1,-9,-7,-5,0,-4
-3,-2,3,2,-3,0,1,-9,-7,-5,0,-4
-3,-2,3,2,-3,0,1,-9,-7,-5,0,-4
-3,-2,3,2,-3,0,1,-9,-6,-4,1,-4
-3,-1,4,2,-4,0,1,-9,-6,-4,1,-4
-4,-1,4,2,-4,1,1,-9,-6,-4,1,-4
-4,-1,4,2,-4,1,1,-9,-6,-4,1,-4
-3,-1,4,2,-4,0,1,-9,-6,-4,1,-4
-3,-1,3,2,-3,0,1,-9,-6,-4,1,-4
-3,-1,3,2,-3,0,1,-9,-6,-4,1,-3
-3,-1,3,2,-3,0,1,-9,-6,-4,1,-3
-3,-1,3,2,-3,0,1,-9,-6,-4,1,-3
-3,-1,3,2,-3,0,1,-9,-6,-4,1,-3
-3,-1,3,2,-3,1,1,-9,-6,-4,1,-3
-3,-1,3,2,-3,1,1,-9,-7,-4,1,-3
-3,-1,3,2,-3,1,1,-9,-7,-4,1,-3
-3,-1,3,2,-3,1,1,-9,-7,-4,1,-3
-3,-1,4,2,-4,1,1,-9,-7,-4,0,-3
-3,0,4,2,-4,1,1,-9,-7,-4,0,-3
-3,-1,5,2,-4,1,1,-9,-7,-4,0,-3
-4,-1,5,2,-4,1,1,-9,-7,-4,0,-3
-4,-1,4,2,-4,1,1,-9,-7,-4,0,-3
-4,-1,4,2,-4,1,1,-10,-7,-4,0,-4
-3,-1,4,2,-4,1,1,-10,-8,-5,-1,-4
-3,-1,4,2,-4,1,1,-11,-8,-5,-1,-4
-3,-2,4,2,-4,0,1,-11,-8,-6,-1,-4
-3,-2,4,2,-4,0,1,-11,-8,-6,-1,-4
-3,-2,4,2,-4,0,1,-11,-8,-6,-1,-4
-3,-2,3,2,-3,0,1,-11,-8,-6,-1,-4
-3,-2,3,2,-3,0,1,-11,-8,-6,-1,-4
-3,-2,3,3,-3,0,1,-11,-8,-6,-1,-4
-4,-3,3,3,-4,0,1,-11,-8,-6,-1,-4
-4,-3,3,3,-4,0,1,-11,-8,-6,-1,-3
-5,-3,3,3,-4,0,1,-11,-8,-6,-1,-3
-5,-3,3,3,-4,0,1,-11,-8,-6,-2,-3
-5,-3,3,3,-4,0,1,-11,-9,-6,-2,-3
-5,-3,3,3,-4,0,1,-11,-9,-6,-2,-3
-5,-3,3,3,-4,0,1,-11,-9,-6,-2,-4
-4,-3,2,3,-3,-1,1,-11,-9,-7,-3,-4
-3,-3,2,3,-3,-1,1,-11,-9,-7,-3,-4
-3,-3,2,3,-3,-1,1,-11,-9,-7,-4,-4
-3,-3,2,3,-3,-1,1,-11,-9,-7,-4,-4
-3,-3,2,3,-3,-1,1,-11,-10,-7,-4,-4
-3,-3,2,3,-3,-1,1,-11,-10,-7,-4,-4
-4,-3,3,3,-3,-1,1,-11,-10,-7,-3,-4
-4,-3,3,3,-4,-1,1,-11,-10,-7,-3,-4
-5,-3,3,3,-4,-1,1,-11,-10,-7,-3,-4
-4,-3,3,3,-4,-1,1,-11,-10,-7,-3,-4
-4,-3,2,3,-4,-1,1,-11,-10,-7,-4,-4
-3,-3,2,3,-4,-1,1,-11,-10,-7,-4,-4
-3,-3,2,3,-4,-1,1,-11,-11,-7,-4,-5
-3,-3,2,3,-4,-1,1,-11,-11,-8,-5,-5
-3,-3,2,3,-4,-1,1,-11,-11,-8,-5,-5
-3,-3,2,3,-4,-1,1,-11,-11,-8,-5,-5
-3,-3,2,3,-4,-1,1,-11,-11,-8,-5,-5
-4,-3,2,3,-4,-1,1,-11,-11,-8,-5,-5
-4,-3,2,3,-4,-1,1,-11,-11,-8,-5,-5
-4,-3,2,3,-4,-1,1,-11,-11,-8,-5,-5
-4,-3,2,3,-4,-1,2,-11,-11,-8,-5,-5
-4,-3,2,3,-4,-1,2,-11,-11,-8,-5,-5
-4,-3,2,3,-4,-1,2,-11,-11,-8,-5,-5
-4,-3,2,3,-4,-1,1,-11,-11,-8,-6,-5
-4,-3,2,3,-4,-1,1,-11,-11,-8,-6,-5
-4,-3,2,3,-4,-1,1,-11,-11,-8,-6,-5
-4,-3,2,3,-4,-1,1,-11,-11,-8,-7,-5
-4,-3,2,3,-4,-1,1,-11,-11,-8,-7,-5
-4,-3,2,3,-4,-1,1,-11,-11,-8,-6,-5
-4,-3,2,3,-4,-1,1,-11,-11,-8,-6,-5
-4,-3,2,3,-4,-1,2,-11,-11,-8,-6,-5
-3,-3,1,3,-3,-2,2,-11,-11,-8,-7,-5
-3,-3,1,3,-3,-2,2,-11,-11,-8,-7,-5
-3,-3,1,3,-3,-2,2,-11,-11,-8,-7,-5
-3,-3,1,3,-3,-2,2,-11,-11,-8,-7,-5
-3,-3,1,3,-3,-2,2,-11,-11,-9,-7,-5
-3,-3,1,3,-3,-2,2,-11,-11,-9,-7,-4
-4,-3,1,3,-3,-2,2,-11,-11,-9,-7,-4
-4,-3,1,3,-3,-2,2,-11,-11,-9,-7,-4
-4,-3,1,3,-3,-2,2,-11,-11,-9,-7,-4
-4,-3,1,3,-3,-2,2,-11,-11,-9,-7,-4
-4,-3,2,3,-3,-2,2,-11,-11,-9,-7,-4
-4,-3,2,3,-3,-2,2,-11,-11,-9,-7,-4
-4,-4,1,3,-3,-2,2,-11,-11,-9,-8,-4
-4,-4,1,4,-3,-2,2,-11,-11,-9,-8,-4
-4,-3,2,4,-4,-2,2,-11,-11,-9,-8,-4
-4,-3,2,4,-4,-1,2,-11,-11,-9,-8,-4
-5,-3,2,5,-5,-1,2,-11,-11,-8,-8,-4
-5,-3,2,5,-5,-1,2,-11,-11,-8,-7,-4
-5,-3,1,4,-4,-2,1,-11,-11,-8,-7,-5
-4,-3,1,4,-3,-2,1,-11,-11,-8,-7,-5
-4,-3,1,4,-3,-2,1,-11,-11,-9,-7,-5
-4,-3,1,3,-3,-2,1,-11,-11,-9,-7,-5
-3,-3,1,3,-3,-2,1,-11,-11,-9,-7,-5
-3,-3,1,3,-3,-2,1,-11,-11,-9,-7,-5
-3,-4,0,3,-2,-3,1,-11,-11,-9,-8,-5
-3,-4,0,3,-2,-3,1,-11,-11,-9,-8,-5
-3,-4,0,3,-2,-3,1,-11,-11,-9,-8,-5
-3,-4,0,3,-2,-3,1,-11,-11,-9,-7,-5
-4,-4,1,3,-3,-2,1,-11,-11,-9,-7,-4
-4,-4,1,3,-3,-2,1,-11,-11,-9,-8,-4
-4,-4,0,3,-3,-2,1,-11,-11,-9,-8,-4
-3,-4,0,3,-2,-3,1,-11,-11,-9,-8,-4
-4,-4,0,3,-2,-3,1,-11,-11,-9,-8,-4
-4,-4,1,3,-3,-2,1,-11,-11,-8,-8,-4
-5,-4,2,4,-4,-2,1,-11,-11,-8,-8,-3
-4,-4,1,4,-3,-2,1,-11,-11,-8,-8,-3
-4,-4,0,4,-3,-3,1,-11,-11,-9,-8,-3
-4,-4,0,4,-3,-3,1,-11,-11,-9,-8,-3
-4,-4,0,4,-3,-3,1,-11,-11,-9,-9,-3
-4,-4,0,4,-3,-3,1,-11,-11,-9,-9,-3
-4,-4,0,4,-2,-3,1,-11,-12,-9,-9,-4
-3,-4,0,4,-2,-3,1,-11,-12,-9,-10,-4
-3,-4,0,3,-2,-3,1,-11,-12,-9,-10,-4
-3,-4,0,3,-2,-3,1,-11,-12,-9,-10,-4
-4,-4,0,3,-2,-3,1,-11,-12,-9,-11,-4
-4,-4,0,3,-2,-3,1,-11,-12,-9,-11,-4
-4,-4,0,3,-2,-3,1,-11,-12,-9,-12,-4
-4,-4,0,3,-2,-3,1,-11,-12,-9,-12,-4
-4,-4,0,3,-2,-2,1,-11,-12,-9,-12,-4
-4,-3,0,3,-2,-2,1,-11,-12,-9,-12,-4
-4,-3,0,3,-2,-2,1,-11,-12,-9,-13,-4
-4,-3,0,3,-2,-2,1,-11,-12,-9,-13,-4
-4,-3,1,3,-2,-2,1,-11,-12,-9,-13,-4
-4,-3,1,3,-3,-2,1,-11,-11,-9,-13,-4
-4,-3,1,3,-3,-1,1,-11,-11,-9,-13,-4
-3,-2,1,3,-3,-1,1,-11,-11,-9,-13,-4
-3,-2,1,3,-2,-1,1,-11,-11,-9,-13,-4
-3,-2,1,3,-2,-1,1,-11,-11,-8,-13,-4
-3,-2,2,3,-2,-1,1,-11,-11,-8,-13,-4
-3,-2,2,3,-3,-1,1,-11,-11,-8,-13,-4
-4,-2,2,4,-3,-1,1,-11,-11,-8,-13,-4
-5,-2,2,4,-3,-1,1,-10,-11,-8,-13,-4
-5,-2,3,4,-4,-1,1,-10,-11,-8,-13,-4
-5,-2,3,4,-4,-1,1,-10,-11,-8,-13,-4
-4,-3,2,4,-3,-1,1,-11,-11,-9,-14,-4
-3,-3,1,4,-3,-2,0,-11,-12,-9,-14,-5
-3,-3,0,4,-3,-2,0,-11,-12,-9,-14,-5
-3,-3,0,3,-3,-2,0,-11,-12,-9,-14,-5
-3,-3,0,3,-2,-2,0,-11,-12,-9,-14,-5
-3,-3,0,3,-2,-2,0,-11,-12,-9,-14,-5
-3,-3,0,3,-2,-2,0,-11,-12,-9,-14,-5
-3,-3,1,3,-2,-2,0,-11,-12,-9,-14,-5
-3,-3,1,3,-2,-2,0,-11,-11,-9,-13,-5
-3,-3,1,3,-3,-2,0,-11,-11,-9,-13,-4
-3,-3,1,3,-3,-2,0,-11,-11,-9,-13,-4
-4,-3,1,3,-3,-2,0,-11,-11,-9,-13,-4
-4,-3,1,3,-3,-2,0,-11,-11,-9,-13,-4
-3,-2,1,3,-3,-2,0,-11,-11,-9,-13,-4
-3,-2,1,3,-2,-2,0,-10,-11,-9,-13,-4
-3,-2,1,3,-2,-1,0,-10,-11,-9,-13,-4
-3,-2,1,3,-2,-1,0,-10,-11,-9,-13,-4
-3,-3,1,3,-3,-1,0,-10,-11,-9,-13,-4
-4,-3,1,3,-3,-1,0,-10,-11,-9,-13,-4
-4,-3,1,3,-3,-1,0,-10,-11,-9,-13,-4
-4,-3,1,3,-3,-1,0,-10,-11,-9,-13,-4
-4,-3,1,3,-3,-1,0,-10,-11,-9,-13,-5
-4,-3,1,3,-3,-1,0,-10,-11,-9,-13,-5
-4,-3,1,3,-3,-1,0,-10,-11,-9,-13,-5
-4,-3,1,4,-3,-1,0,-10,-11,-9,-13,-5
-4,-3,1,4,-3,-2,0,-10,-11,-9,-13,-5
-3,-3,1,4,-2,-2,0,-10,-11,-9,-13,-5
-3,-3,1,4,-2,-2,0,-10,-11,-9,-13,-5
-3,-3,1,4,-2,-2,0,-10,-11,-9,-12,-5
-3,-3,1,3,-2,-2,0,-10,-11,-9,-12,-5
-3,-3,1,3,-3,-2,0,-10,-11,-9,-11,-5
-3,-3,1,3,-3,-2,1,-10,-11,-9,-11,-5
-3,-3,1,3,-3,-2,1,-10,-11,-9,-11,-5
-3,-3,1,3,-2,-2,1,-10,-11,-9,-11,-5
-3,-3,1,3,-3,-2,1,-10,-11,-9,-11,-5
-3,-2,1,3,-3,-1,1,-10,-11,-9,-10,-5
-3,-2,1,3,-3,-1,1,-10,-11,-9,-10,-5
-3,-2,2,3,-3,-1,1,-10,-11,-9,-10,-5
-3,-1,2,3,-3,-1,1,-10,-11,-9,-10,-5
-3,0,3,3,-4,0,1,-10,-11,-9,-9,-5
-3,0,4,3,-4,0,1,-9,-10,-8,-9,-4
-3,0,5,2,-4,1,1,-9,-10,-8,-9,-4
-3,1,5,2,-5,1,1,-9,-9,-7,-8,-4
-4,1,6,2,-5,2,2,-8,-9,-7,-8,-3
-4,2,7,2,-6,2,2,-8,-8,-6,-8,-3
-3,3,7,1,-6,3,2,-8,-8,-6,-8,-3
-3,3,7,1,-5,3,2,-8,-8,-6,-7,-3
-2,3,6,1,-5,3,2,-8,-8,-6,-7,-3
-2,3,6,1,-5,3,2,-8,-8,-6,-7,-3
-2,3,6,0,-4,3,2,-9,-8,-6,-7,-3
-2,3,5,0,-4,3,2,-9,-8,-6,-7,-3
-2,3,5,0,-4,3,2,-8,-8,-6,-6,-3
-2,3,5,0,-4,3,2,-8,-8,-6,-6,-3
-2,3,5,0,-4,3,2,-8,-8,-7,-7,-3
-2,3,5,0,-4,3,2,-8,-8,-7,-7,-3
-2,3,6,0,-4,3,2,-8,-8,-7,-6,-3
-2,3,7,0,-5,4,2,-8,-8,-7,-6,-3
-3,3,8,0,-6,4,2,-8,-8,-6,-6,-2
-3,4,8,0,-6,5,2,-8,-8,-6,-6,-2
-3,5,9,0,-6,5,2,-8,-8,-5,-5,-2
-3,6,9,-1,-6,6,2,-8,-8,-5,-5,-1
-3,6,10,-1,-6,6,1,-8,-8,-5,-5,-1
-3,6,10,-1,-7,7,0,-8,-8,-5,-5,-1
-3,6,10,-1,-7,7,-1,-9,-8,-5,-5,-1
-3,6,10,-1,-7,7,-1,-10,-9,-5,-5,-1
-3,6,10,-1,-7,7,-2,-10,-9,-6,-5,-1
-3,6,9,-1,-7,7,-2,-10,-9,-6,-5,-1
-2,6,9,-1,-7,6,-3,-10,-10,-7,-5,-1
-2,6,9,-1,-7,6,-3,-10,-10,-7,-6,-1
-2,5,8,-1,-6,5,-3,-11,-10,-8,-7,-1
-2,5,8,-1,-6,5,-3,-11,-11,-8,-7,-2
-2,5,7,-1,-5,5,-3,-11,-11,-9,-7,-2
-2,5,7,-1,-4,5,-3,-11,-11,-9,-8,-2
-1,5,6,-1,-4,5,-3,-11,-11,-9,-8,-2
-1,5,6,-1,-4,5,-4,-12,-11,-9,-8,-2
-1,5,6,-1,-4,4,-4,-12,-11,-9,-8,-2
0,5,5,-1,-4,4,-4,-12,-11,-9,-8,-3
0,4,5,-2,-3,4,-4,-12,-11,-9,-8,-3
0,4,4,-2,-3,3,-4,-12,-11,-9,-8,-3
0,3,4,-2,-3,2,-4,-11,-11,-9,-8,-3
0,3,3,-2,-3,2,-4,-11,-10,-9,-7,-3
0,3,3,-1,-3,2,-4,-11,-10,-9,-7,-3
-1,3,4,-1,-3,2,-3,-11,-10,-9,-7,-3
-2,3,5,0,-4,2,-3,-11,-10,-9,-7,-3
-3,3,6,0,-5,3,-2,-10,-10,-8,-7,-3
-4,3,7,0,-6,3,-1,-10,-10,-8,-7,-3
-4,2,7,1,-6,3,-1,-10,-10,-8,-7,-3
-4,2,6,1,-5,3,-1,-10,-10,-9,-7,-3
-4,1,5,1,-5,2,-1,-10,-11,-10,-8,-3
-4,0,4,2,-5,1,-1,-10,-11,-10,-8,-4
-4,0,3,2,-4,1,-1,-10,-11,-10,-9,-4
-3,-1,3,2,-4,0,-1,-11,-12,-11,-9,-4
-3,-2,2,3,-3,-1,-1,-11,-12,-11,-9,-5
-3,-3,1,3,-3,-1,-1,-11,-12,-12,-9,-5
-3,-3,1,3,-3,-2,0,-11,-13,-12,-9,-6
-3,-3,1,3,-3,-2,0,-11,-13,-12,-9,-6
-3,-4,1,3,-3,-2,0,-11,-13,-12,-9,-7
-4,-4,1,4,-3,-2,0,-11,-13,-13,-10,-7
-4,-4,1,4,-3,-2,0,-11,-13,-13,-10,-7
-5,-5,1,5,-3,-2,0,-11,-13,-13,-10,-7
-4,-5,0,5,-3,-2,0,-11,-14,-13,-10,-7
-4,-5,0,4,-3,-2,0,-12,-14,-13,-10,-7
-4,-5,0,4,-3,-2,0,-12,-14,-13,-10,-7
-4,-5,0,5,-3,-2,0,-12,-14,-13,-10,-7
-4,-5,0,5,-3,-2,0,-12,-15,-14,-10,-7
-3,-4,0,5,-2,-2,0,-12,-15,-14,-10,-7
-4,-4,0,5,-2,-2,0,-12,-14,-14,-10,-7
-4,-4,1,5,-3,-2,0,-12,-14,-13,-10,-7
-4,-4,1,5,-3,-2,0,-12,-14,-13,-10,-7
-5,-4,1,5,-3,-1,0,-12,-13,-13,-9,-7
-5,-4,1,5,-4,-1,0,-11,-13,-13,-9,-7
-5,-4,1,5,-4,-2,0,-11,-13,-13,-9,-7
-5,-4,1,5,-4,-2,0,-11,-13,-13,-8,-7
-5,-4,1,5,-4,-2,0,-11,-13,-13,-8,-7
-5,-4,1,5,-4,-2,0,-11,-13,-13,-8,-7
-5,-4,1,5,-4,-2,0,-11,-13,-13,-8,-7
-5,-4,1,5,-4,-2,1,-10,-13,-13,-8,-7
-5,-4,1,5,-4,-2,1,-10,-13,-13,-8,-7
-5,-4,1,5,-4,-2,1,-10,-13,-13,-8,-7
-5,-4,1,5,-4,-2,1,-10,-13,-13,-9,-7
-5,-4,1,5,-4,-2,1,-10,-13,-13,-8,-7
-5,-4,1,5,-4,-2,1,-10,-13,-13,-8,-7
-5,-4,1,5,-4,-2,1,-10,-13,-13,-8,-7
-5,-4,1,5,-4,-2,1,-10,-13,-13,-8,-7
-5,-4,1,5,-4,-2,1,-10,-13,-13,-8,-7
-5,-4,1,6,-4,-2,1,-10,-13,-13,-8,-7
-6,-4,2,6,-5,-1,1,-10,-13,-13,-8,-7
-6,-4,2,6,-5,-1,1,-10,-13,-13,-8,-7
-5,-4,2,6,-4,-1,1,-9,-12,-13,-8,-7
-5,-4,1,5,-4,-1,1,-8,-11,-12,-7,-7
-3,-3,1,4,-3,-1,1,-7,-9,-11,-5,-7
-2,-1,1,3,-2,-1,1,-4,-6,-8,-3,-5
-1,0,1,1,-2,0,1,-1,-1,-3,0,-3
0,2,2,0,-1,1,1,3,5,1,5,0
2,4,2,-2,0,2,1,8,11,7,10,5
5,7,2,-5,1,4,0,13,19,15,16,10
9,10,1,-9,3,5,0,20,28,24,25,17
14,13,0,-12,6,6,-1,28,41,36,36,25
18,15,-1,-16,9,6,-2,38,55,50,48,34
23,18,-3,-20,12,7,-3,46,70,64,61,45
29,21,-6,-24,17,7,-5,51,82,77,74,56
35,25,-8,-29,21,8,-8,49,88,87,87,68
40,30,-9,-34,23,10,-13,39,85,92,99,79
43,36,-7,-39,24,14,-18,19,71,89,106,89
44,41,-2,-42,22,19,-24,-9,47,79,107,94
42,46,5,-43,17,25,-28,-37,21,64,103,95
37,51,14,-43,11,32,-28,-59,-2,48,92,89
31,54,25,-42,2,39,-27,-76,-23,30,75,77
22,55,34,-38,-7,45,-23,-89,-44,10,53,59
13,52,41,-32,-15,46,-18,-99,-64,-12,29,39
3,46,44,-24,-21,44,-12,-107,-86,-36,4,18
-4,39,44,-17,-25,41,-8,-114,-107,-60,-19,-2
-11,31,42,-9,-27,36,-6,-121,-127,-82,-40,-19
-15,23,38,-3,-27,30,-5,-127,-144,-101,-56,-32
-17,13,31,2,-24,21,-4,-130,-155,-115,-68,-43
-19,3,23,9,-22,12,-3,-130,-161,-125,-77,-52
-21,-7,15,15,-19,4,-2,-127,-163,-132,-85,-60
-23,-15,8,20,-17,-4,0,-123,-163,-136,-91,-66
-25,-23,2,24,-15,-11,1,-118,-161,-137,-95,-70
-26,-29,-2,28,-13,-16,2,-112,-156,-135,-96,-72
-28,-33,-6,31,-11,-20,3,-106,-150,-132,-97,-74
-28,-37,-8,34,-10,-24,3,-100,-143,-128,-96,-74
-29,-39,-10,35,-10,-26,3,-94,-135,-123,-93,-74
-29,-39,-10,35,-9,-26,1,-89,-127,-117,-89,-71
-28,-38,-9,33,-9,-25,-1,-83,-118,-109,-83,-67
-26,-36,-9,31,-9,-24,-3,-77,-108,-100,-77,-63
-24,-33,-9,29,-8,-22,-5,-70,-97,-91,-71,-58
-21,-31,-9,26,-7,-21,-6,-62,-87,-82,-64,-52
-19,-27,-8,23,-6,-18,-6,-54,-76,-73,-57,-47
-16,-23,-6,20,-6,-16,-5,-46,-66,-64,-50,-41
-14,-19,-4,18,-6,-13,-4,-38,-56,-55,-43,-36
