leadI,leadII,leadIII,leadaVR,leadaVL,leadaVF,leadV1,leadV2,leadV3,leadV4,leadV5,leadV6
0,0,0,0,0,0,-1,4,-2,-3,-3,-1
1,0,-1,0,1,0,-2,12,-7,-9,-8,-3
2,0,-2,-1,2,-1,-4,16,-10,-13,-12,-4
3,0,-3,-2,3,-1,-5,18,-12,-15,-13,-4
4,0,-4,-2,4,-1,-5,19,-12,-15,-13,-3
5,0,-5,-2,5,-2,-5,20,-12,-15,-13,-2
6,0,-6,-3,6,-3,-5,20,-12,-14,-12,-1
7,0,-7,-3,7,-4,-5,21,-11,-14,-12,0
7,0,-7,-3,7,-4,-5,21,-11,-14,-11,0
6,0,-6,-2,6,-3,-5,22,-10,-14,-11,0
5,0,-5,-2,5,-3,-5,23,-10,-13,-10,0
6,0,-5,-3,6,-3,-4,24,-10,-12,-9,0
7,0,-6,-4,7,-3,-4,24,-10,-11,-9,0
7,1,-6,-4,7,-2,-3,24,-9,-11,-9,0
8,2,-6,-5,7,-2,-3,25,-9,-10,-9,1
8,4,-4,-6,6,0,-2,25,-8,-10,-9,1
8,6,-2,-7,5,1,-1,26,-7,-9,-8,2
7,6,-1,-6,4,1,0,27,-6,-8,-6,2
5,6,0,-6,3,2,1,27,-5,-7,-5,3
4,6,1,-6,1,3,2,28,-4,-6,-5,3
3,6,2,-6,0,4,2,29,-4,-5,-4,4
4,6,2,-6,1,4,3,30,-2,-4,-4,5
4,6,1,-5,1,4,5,31,0,-3,-3,6
4,6,1,-5,1,4,7,32,1,-1,-2,7
5,7,1,-6,1,4,8,32,1,-1,-1,7
7,8,0,-7,3,4,9,32,1,-1,-1,7
7,8,1,-7,2,4,9,33,2,0,-1,7
4,8,4,-6,-1,6,11,34,3,0,0,9
2,8,6,-5,-3,7,12,34,3,1,1,9
2,7,5,-5,-2,6,12,34,2,1,1,9
3,7,4,-6,-1,6,12,33,2,0,0,8
4,8,4,-6,0,6,12,33,2,0,0,8
4,9,6,-7,-1,8,12,33,2,0,0,7
4,12,8,-8,-1,10,11,33,2,0,0,7
5,14,8,-10,-1,10,10,33,2,1,0,8
6,13,6,-10,0,9,10,34,3,2,1,9
7,13,5,-11,1,8,10,35,5,4,3,11
6,13,6,-10,0,9,9,36,6,5,4,11
5,13,7,-9,-1,9,9,36,7,6,5,12
4,13,8,-9,-2,10,8,36,7,7,5,13
5,13,8,-10,-1,11,7,37,7,8,6,14
5,12,7,-9,0,10,7,37,8,9,6,15
6,11,5,-9,1,8,6,37,8,10,7,15
6,11,5,-9,1,8,5,37,7,10,7,15
6,12,5,-9,0,8,4,36,7,10,7,15
5,12,6,-9,0,9,3,36,7,9,7,15
6,12,6,-9,0,9,2,35,7,8,6,14
7,13,5,-10,1,9,1,34,5,6,5,13
7,14,7,-10,0,10,0,32,4,6,5,14
6,15,9,-11,-1,12,-1,30,4,6,6,15
7,17,10,-12,-1,14,-3,27,3,8,8,17
11,20,9,-16,1,14,-6,24,3,11,11,19
14,22,8,-18,3,15,-10,20,3,14,15,22
13,24,10,-19,1,16,-11,18,2,18,20,27
13,25,12,-19,1,18,-12,16,1,21,24,32
15,27,11,-21,2,18,-13,16,-1,22,28,36
19,27,8,-23,5,17,-13,18,-5,22,30,40
23,25,3,-24,10,14,-13,20,-9,23,34,44
27,24,-2,-25,14,11,-12,22,-11,24,39,50
31,25,-5,-27,18,10,-11,21,-13,26,44,57
36,27,-9,-31,23,9,-12,17,-14,27,50,65
43,29,-13,-36,28,8,-12,10,-17,28,55,72
48,32,-16,-40,32,8,-13,1,-18,31,61,80
52,36,-16,-45,34,10,-12,-8,-18,35,69,89
57,42,-15,-50,36,13,-13,-22,-18,42,79,101
61,47,-14,-54,38,16,-19,-41,-20,52,91,112
67,49,-18,-58,43,16,-29,-62,-24,61,101,122
74,46,-28,-59,51,9,-41,-83,-30,69,107,127
80,38,-43,-58,61,-3,-52,-101,-35,73,110,129
83,24,-59,-53,70,-18,-60,-113,-39,73,106,126
79,7,-72,-43,75,-33,-64,-120,-40,68,97,118
72,-8,-79,-32,75,-44,-67,-123,-38,63,86,107
63,-21,-84,-21,73,-52,-69,-123,-35,58,73,93
54,-32,-86,-11,70,-59,-71,-120,-29,55,60,79
45,-40,-85,-2,65,-62,-72,-114,-19,53,49,65
38,-45,-83,4,60,-64,-71,-104,-7,52,38,51
32,-51,-83,9,58,-67,-69,-89,5,50,28,38
28,-55,-83,14,55,-70,-65,-71,18,45,16,24
24,-57,-80,16,52,-69,-60,-56,28,40,5,12
19,-56,-74,17,47,-65,-55,-43,35,36,-1,4
17,-52,-68,17,42,-60,-51,-32,39,33,-6,0
16,-47,-62,15,39,-54,-45,-22,40,31,-8,-4
13,-42,-54,14,34,-48,-38,-13,40,30,-9,-6
7,-37,-44,14,26,-40,-29,-4,39,28,-9,-6
2,-31,-33,14,18,-33,-21,4,36,25,-10,-7
0,-26,-26,13,13,-26,-14,12,32,21,-11,-8
-2,-21,-20,11,9,-21,-7,20,28,17,-12,-9
-3,-17,-15,10,6,-16,-1,28,26,14,-12,-9
-4,-16,-12,10,4,-14,3,35,25,13,-12,-9
-4,-16,-11,10,3,-13,6,40,25,11,-12,-9
-5,-15,-9,10,2,-12,9,45,25,10,-12,-9
-5,-14,-8,10,1,-10,12,48,26,10,-12,-9
-5,-13,-7,9,1,-10,14,51,27,10,-12,-9
-5,-12,-7,9,0,-10,15,53,28,10,-12,-9
-6,-12,-6,9,0,-10,15,54,29,10,-12,-9
-7,-12,-4,9,-1,-9,15,54,29,10,-12,-9
-7,-11,-4,9,-1,-8,15,54,29,10,-12,-9
-7,-12,-5,9,-1,-8,16,54,29,12,-11,-8
-7,-14,-6,11,0,-10,17,54,30,13,-10,-8
-9,-15,-6,12,-1,-10,17,55,30,14,-9,-9
-10,-15,-5,12,-2,-10,18,56,31,14,-9,-9
-9,-15,-6,12,-2,-10,19,57,32,15,-8,-9
-8,-15,-7,11,0,-11,20,58,32,15,-8,-9
-7,-15,-8,11,0,-11,20,58,33,15,-8,-9
-6,-14,-8,10,1,-11,20,58,33,15,-8,-9
-6,-13,-7,9,1,-10,20,57,33,15,-8,-9
-6,-13,-6,9,0,-10,20,57,33,15,-8,-9
-6,-14,-7,10,0,-11,20,57,34,16,-8,-9
-6,-15,-8,10,1,-11,20,57,34,16,-8,-10
-5,-14,-7,10,1,-11,19,57,34,15,-8,-11
-6,-13,-6,9,0,-9,19,57,34,15,-9,-11
-7,-12,-4,9,-1,-8,19,58,34,15,-9,-11
-7,-11,-3,9,-1,-8,19,58,35,15,-9,-11
-7,-11,-3,9,-1,-8,19,58,35,15,-9,-11
-7,-11,-3,9,-1,-8,19,58,35,16,-9,-10
-7,-11,-3,9,-2,-7,19,58,35,16,-9,-10
-8,-9,-1,8,-3,-5,19,58,35,15,-9,-10
-7,-8,0,7,-3,-4,19,58,35,15,-9,-10
-7,-7,0,7,-3,-3,19,57,35,14,-9,-10
-7,-6,2,6,-4,-2,19,57,35,14,-9,-10
-7,-6,2,6,-5,-2,19,58,36,14,-9,-10
-7,-7,0,6,-4,-3,19,58,36,14,-9,-10
-7,-7,0,7,-4,-4,19,59,37,14,-9,-10
-8,-7,1,7,-5,-2,19,59,37,15,-9,-10
-8,-6,2,6,-5,-1,19,59,37,15,-9,-10
-7,-5,2,6,-5,-1,19,60,38,14,-9,-10
-6,-4,2,6,-4,-1,19,61,38,14,-9,-10
-5,-4,1,5,-3,-1,19,61,38,14,-8,-10
-4,-4,0,5,-2,-2,19,62,38,14,-8,-10
-6,-5,1,5,-3,-2,20,63,39,15,-7,-9
-9,-4,4,6,-6,0,21,64,40,16,-6,-8
-10,-3,6,6,-8,1,21,64,40,16,-6,-8
-9,-2,7,5,-8,3,20,63,40,16,-6,-8
-9,-1,8,5,-9,4,21,63,40,16,-6,-8
-9,-1,9,5,-9,4,21,64,40,16,-6,-8
-8,-1,7,5,-7,3,22,64,41,16,-5,-7
-6,-1,6,4,-5,2,22,64,41,16,-5,-7
-6,0,7,3,-6,3,23,65,42,17,-4,-6
-9,1,10,3,-9,6,24,66,43,18,-3,-5
-10,2,12,3,-11,7,24,67,43,18,-3,-4
-10,3,13,3,-12,8,24,67,43,18,-2,-4
-10,5,15,2,-12,10,25,68,43,18,-2,-3
-10,7,19,1,-14,13,25,68,43,18,-1,-3
-11,10,22,1,-16,16,26,69,43,18,0,-2
-11,12,24,0,-17,18,28,70,43,19,0,-1
-10,12,22,0,-16,17,29,71,43,19,1,0
-9,13,21,-2,-14,17,29,72,42,19,2,0
-9,15,23,-3,-16,19,29,72,41,19,2,0
-10,17,27,-4,-19,23,29,72,40,19,2,1
-11,19,30,-4,-21,25,30,72,40,19,4,3
-10,21,32,-5,-21,26,31,72,40,20,6,5
-9,22,32,-5,-20,26,31,72,39,21,7,6
-8,23,31,-6,-20,26,31,71,37,21,8,8
-8,23,31,-6,-19,26,31,70,36,20,9,9
-7,23,30,-7,-19,27,31,69,34,19,9,9
-6,24,31,-8,-19,28,30,68,32,19,9,10
-6,25,31,-9,-19,28,29,68,31,19,11,12
-6,25,31,-10,-19,28,28,67,30,19,12,13
-5,26,31,-10,-18,28,26,65,27,18,13,14
-4,27,32,-11,-18,29,23,63,24,18,14,15
-4,28,33,-12,-18,30,20,61,21,17,14,16
-3,30,32,-13,-17,31,17,58,18,16,14,17
-2,30,31,-13,-17,31,15,56,15,16,15,18
-2,30,31,-14,-17,31,13,54,13,15,16,20
-1,30,30,-14,-16,30,10,52,11,15,16,21
1,28,27,-14,-13,27,8,50,9,14,17,23
1,27,25,-14,-11,25,6,48,6,13,17,24
0,26,25,-13,-12,25,4,46,3,11,17,24
0,25,25,-12,-12,24,2,43,1,10,16,25
0,24,24,-11,-12,24,0,41,-1,9,16,25
0,24,23,-11,-11,23,-1,40,-4,8,16,26
0,24,23,-12,-11,23,-2,38,-6,7,15,25
1,24,23,-13,-10,23,-3,37,-8,6,15,25
3,25,22,-14,-9,23,-3,36,-9,5,14,24
4,26,22,-15,-9,24,-4,35,-11,4,13,23
5,26,21,-15,-8,24,-6,34,-14,2,12,22
6,26,20,-15,-7,23,-7,33,-15,1,11,21
4,24,20,-13,-8,22,-6,34,-14,1,12,22
1,21,21,-10,-10,21,-5,35,-14,2,12,23
0,21,21,-10,-10,21,-5,34,-15,1,12,22
1,20,19,-10,-9,20,-5,34,-16,0,11,21
1,19,18,-10,-8,19,-5,33,-17,0,10,21
1,18,17,-10,-8,18,-5,33,-17,-1,10,20
2,18,16,-10,-7,17,-6,33,-18,-1,9,19
4,16,13,-10,-4,14,-6,33,-18,-2,8,19
5,14,10,-9,-2,12,-6,33,-18,-3,8,18
4,13,10,-8,-3,11,-6,33,-18,-3,7,17
2,13,11,-7,-5,12,-7,33,-18,-3,7,16
1,12,11,-7,-5,12,-7,33,-18,-3,7,16
1,11,10,-6,-5,11,-7,33,-18,-2,7,15
1,9,8,-6,-4,9,-6,33,-17,-2,7,15
2,8,6,-5,-2,7,-6,33,-17,-2,6,14
2,7,4,-5,-1,6,-7,33,-17,-2,5,13
3,7,3,-5,0,5,-7,33,-17,-2,5,12
2,6,3,-4,0,5,-7,33,-16,-3,4,11
2,5,3,-4,-1,4,-7,33,-16,-3,3,10
1,4,2,-3,0,3,-7,33,-17,-4,3,9
1,2,0,-2,0,2,-7,33,-17,-4,2,9
1,2,0,-2,0,1,-7,34,-16,-4,2,8
0,1,0,-1,0,0,-6,34,-16,-4,2,8
0,0,0,-1,0,0,-6,35,-15,-4,1,7
1,0,-1,-1,0,0,-6,35,-15,-4,1,7
1,0,-1,-1,0,0,-6,35,-14,-4,0,6
1,0,-1,0,0,0,-6,35,-14,-4,0,5
1,-1,-2,0,1,-1,-6,36,-14,-4,0,5
0,-2,-2,0,1,-1,-6,36,-14,-4,-1,4
1,-2,-2,0,1,-2,-6,36,-14,-5,-2,3
0,-2,-2,0,1,-2,-7,35,-14,-5,-2,3
-1,-3,-2,2,0,-2,-7,35,-14,-5,-2,3
-1,-3,-2,2,0,-3,-6,35,-13,-5,-2,3
1,-3,-4,1,2,-4,-6,35,-13,-5,-2,3
1,-4,-5,1,3,-4,-6,35,-12,-4,-2,3
1,-3,-4,1,2,-4,-6,36,-12,-4,-2,2
2,-1,-3,-1,2,-2,-6,35,-12,-4,-2,1
2,-1,-3,-1,2,-2,-6,35,-12,-4,-3,1
1,-4,-4,1,2,-4,-6,36,-11,-3,-2,1
0,-5,-5,2,2,-5,-5,37,-10,-2,-2,1
-1,-5,-5,3,2,-5,-5,37,-9,-3,-2,1
0,-6,-6,3,3,-6,-5,38,-9,-3,-3,0
0,-6,-6,3,3,-6,-5,38,-9,-4,-3,0
0,-6,-6,3,3,-5,-5,38,-9,-4,-3,0
0,-6,-6,2,3,-5,-5,38,-9,-4,-3,0
0,-6,-6,2,3,-6,-5,39,-9,-4,-3,0
0,-6,-6,3,3,-6,-5,39,-9,-4,-3,0
0,-6,-5,3,2,-6,-5,39,-9,-4,-3,0
-1,-5,-4,3,1,-5,-5,39,-9,-4,-3,0
-1,-4,-3,2,1,-4,-5,38,-9,-5,-3,-1
0,-4,-4,2,2,-4,-5,38,-9,-5,-4,-1
0,-5,-4,2,2,-5,-4,39,-9,-5,-4,-1
0,-5,-3,2,2,-4,-4,39,-9,-5,-4,-2
0,-4,-4,2,2,-4,-5,39,-9,-5,-4,-2
1,-5,-6,2,4,-6,-5,39,-9,-5,-4,-1
2,-6,-8,1,6,-7,-6,39,-9,-5,-4,-1
3,-5,-9,0,7,-7,-6,39,-9,-6,-5,-2
2,-5,-8,1,5,-7,-5,39,-8,-5,-4,-1
0,-5,-6,3,3,-6,-4,41,-7,-4,-3,0
0,-5,-5,3,3,-5,-3,42,-7,-4,-3,0
0,-5,-4,3,3,-5,-3,42,-6,-4,-3,0
1,-4,-4,2,3,-4,-2,43,-5,-3,-3,0
2,-2,-4,0,4,-3,-1,44,-5,-3,-3,-1
2,-2,-4,0,3,-3,-1,44,-5,-4,-3,-1
1,-2,-3,0,2,-2,-1,45,-5,-4,-3,-2
1,0,-2,0,1,-1,-1,45,-5,-4,-3,-2
1,1,0,-1,1,0,0,45,-5,-4,-3,-2
0,3,1,-1,0,1,0,46,-4,-3,-3,-1
0,3,2,-1,0,2,1,48,-3,-2,-2,-1
0,3,3,-1,-1,3,2,49,-2,-1,-1,0
1,5,4,-3,-1,5,3,50,-1,-1,0,0
3,6,4,-4,0,5,3,51,-1,-1,0,0
5,6,2,-5,1,4,4,52,0,-1,0,0
3,7,3,-5,0,5,5,52,0,-1,0,0
0,8,9,-4,-4,8,7,53,0,-1,0,0
-3,8,11,-3,-7,9,9,54,1,0,1,1
-3,8,12,-3,-7,10,10,55,1,0,1,1
-2,8,12,-3,-7,10,11,55,1,0,0,0
-1,9,11,-4,-6,10,12,55,1,-1,0,0
-1,9,11,-4,-7,11,13,55,1,-1,0,0
-2,9,12,-4,-7,11,13,56,1,-2,-1,0
-1,9,11,-5,-6,11,14,56,0,-3,-1,-1
-1,11,12,-6,-6,12,14,55,-1,-4,-1,0
0,13,14,-7,-7,14,14,52,-1,-3,0,1
0,15,15,-8,-7,15,13,50,0,0,3,3
1,17,16,-9,-8,17,11,48,0,3,7,7
2,20,17,-10,-8,19,8,45,0,7,11,11
4,22,18,-12,-7,20,5,43,0,11,15,15
7,23,17,-15,-6,21,3,42,-1,14,19,19
10,24,15,-17,-3,20,2,42,-2,16,23,24
15,26,12,-21,1,19,1,41,-4,17,27,29
21,29,9,-25,5,19,0,38,-6,18,32,35
25,32,7,-28,9,19,-1,34,-8,19,37,41
29,34,6,-31,11,19,-1,28,-11,19,42,47
32,36,5,-34,14,20,-2,18,-18,18,46,53
36,40,4,-38,15,22,-7,2,-27,17,50,60
40,45,5,-43,17,25,-14,-20,-36,18,56,68
44,52,8,-48,17,30,-25,-50,-45,23,66,80
48,59,10,-54,18,35,-40,-84,-55,30,78,93
56,61,5,-58,25,33,-56,-116,-66,37,88,103
66,56,-9,-61,38,24,-73,-141,-76,42,94,109
75,45,-29,-60,52,8,-86,-154,-82,46,97,112
80,28,-50,-54,66,-11,-95,-155,-85,45,93,109
79,8,-70,-43,75,-31,-100,-148,-85,37,81,99
74,-10,-83,-32,78,-46,-101,-137,-80,28,66,85
68,-24,-91,-22,79,-57,-99,-120,-69,22,51,70
62,-34,-94,-14,78,-63,-95,-97,-52,20,39,58
53,-38,-90,-8,72,-64,-88,-71,-29,22,32,48
46,-38,-83,-4,65,-60,-80,-46,-6,26,26,38
39,-37,-76,-1,58,-56,-72,-22,13,27,18,27
33,-36,-69,1,52,-52,-63,-3,26,25,10,17
28,-35,-62,3,45,-49,-54,10,31,23,3,9
22,-33,-54,5,38,-44,-46,18,31,20,-1,3
17,-29,-45,6,30,-37,-36,26,30,17,-4,-1
11,-24,-35,6,22,-30,-27,35,28,12,-7,-5
5,-21,-26,7,15,-23,-19,43,25,7,-10,-9
1,-19,-20,8,11,-19,-11,51,23,2,-13,-12
-1,-19,-17,10,8,-18,-5,58,22,-1,-14,-14
-3,-20,-16,11,6,-17,0,64,21,-2,-15,-15
-5,-20,-14,12,4,-17,3,69,20,-3,-16,-17
-6,-19,-12,13,2,-16,4,72,19,-4,-16,-18
-7,-19,-10,13,1,-15,5,74,18,-3,-17,-18
-7,-19,-10,13,0,-14,6,75,19,-3,-17,-19
-7,-19,-11,13,1,-15,7,76,19,-2,-17,-19
-8,-20,-12,14,1,-16,8,77,20,-2,-17,-19
-9,-21,-12,14,2,-16,9,78,21,-3,-17,-20
-9,-21,-12,14,2,-16,10,79,21,-3,-18,-20
-8,-19,-10,13,1,-15,10,80,20,-3,-18,-21
-8,-17,-8,12,0,-13,10,80,20,-3,-18,-21
-8,-18,-8,13,0,-13,10,80,21,-3,-18,-21
-8,-20,-11,14,1,-15,11,81,21,-1,-17,-20
-8,-21,-12,15,1,-16,11,82,22,0,-16,-20
-8,-20,-11,14,1,-15,11,83,23,0,-16,-20
-7,-19,-11,13,2,-15,11,83,23,-1,-17,-21
-5,-19,-13,11,4,-16,10,83,23,-2,-18,-22
-4,-19,-14,11,5,-16,11,83,22,-2,-18,-22
-6,-19,-13,12,3,-16,12,85,24,-1,-17,-21
-7,-20,-11,13,1,-15,13,86,25,0,-16,-20
-7,-19,-10,13,1,-15,13,87,26,1,-16,-20
-6,-19,-11,13,2,-16,13,87,27,1,-16,-20
-6,-20,-12,13,2,-16,13,87,27,1,-16,-20
-7,-19,-11,13,2,-15,14,87,27,1,-16,-21
-7,-18,-10,12,1,-14,14,88,27,1,-16,-21
-7,-18,-10,13,1,-13,14,89,27,1,-16,-21
-8,-19,-10,14,1,-14,14,89,27,1,-16,-22
-9,-19,-9,15,0,-14,14,89,27,0,-17,-22
-10,-18,-7,15,-2,-12,14,89,27,1,-16,-22
-10,-17,-5,14,-3,-11,15,90,28,1,-16,-22
-10,-17,-6,13,-2,-11,15,90,28,1,-16,-23
-8,-15,-6,12,-1,-10,15,91,28,1,-17,-24
-9,-13,-4,11,-2,-8,16,92,28,1,-17,-24
-10,-13,-2,12,-4,-7,17,93,30,2,-16,-23
-10,-14,-4,13,-3,-8,18,95,31,2,-15,-22
-9,-15,-5,13,-2,-10,19,96,31,2,-15,-22
-10,-16,-5,13,-2,-10,19,96,31,2,-15,-22
-10,-17,-5,13,-3,-11,19,97,31,2,-15,-23
-10,-17,-5,13,-3,-11,19,97,32,2,-15,-23
-10,-16,-5,13,-3,-10,20,98,32,2,-15,-22
-11,-16,-4,14,-3,-10,20,100,33,2,-15,-22
-11,-15,-4,13,-3,-9,21,101,34,2,-15,-22
-11,-13,-2,12,-4,-7,21,101,34,1,-15,-23
-11,-12,-1,12,-5,-6,22,101,34,1,-15,-23
-12,-12,0,12,-6,-6,23,102,34,2,-15,-23
-12,-11,1,11,-6,-5,23,103,35,2,-15,-23
-11,-10,2,11,-7,-4,24,105,35,2,-15,-23
-11,-8,3,10,-7,-2,24,106,35,2,-15,-23
-12,-6,6,9,-9,0,25,108,35,2,-15,-23
-12,-5,7,9,-10,1,26,110,36,2,-15,-22
-13,-5,7,10,-10,1,28,114,38,4,-14,-20
-13,-5,8,10,-10,1,30,117,40,5,-13,-19
-14,-4,9,9,-12,2,32,119,41,5,-12,-19
-14,-3,12,9,-14,4,33,121,42,6,-11,-18
-15,-2,14,8,-15,6,35,123,42,7,-10,-17
-16,-1,15,8,-16,7,36,124,43,7,-9,-16
-16,0,17,8,-17,9,37,125,43,7,-9,-16
-17,1,19,8,-18,10,38,126,43,7,-9,-16
-17,2,19,7,-18,11,40,126,42,6,-9,-16
-17,3,20,7,-19,12,41,126,40,6,-9,-16
-17,4,22,6,-20,14,42,125,39,5,-9,-15
-18,7,26,5,-22,17,42,124,38,4,-9,-15
-18,10,28,4,-23,20,42,123,35,3,-9,-15
-17,11,29,3,-23,20,42,121,33,2,-8,-14
-16,11,28,3,-22,20,42,120,31,1,-8,-13
-16,10,27,4,-22,19,42,118,29,0,-7,-12
-16,11,28,3,-22,20,41,117,27,0,-6,-11
-15,12,28,2,-21,20,39,115,24,-1,-6,-10
-14,13,27,1,-20,20,38,114,22,-2,-5,-9
-14,13,27,0,-20,20,36,112,20,-2,-4,-7
-13,13,26,0,-19,19,33,111,18,-2,-3,-6
-11,13,24,0,-18,18,30,109,15,-2,-2,-4
-10,14,24,-1,-17,19,27,106,12,-3,-1,-2
-8,15,24,-3,-16,20,24,104,10,-3,0,-1
-7,17,24,-4,-15,21,21,102,8,-4,0,0
-5,18,24,-6,-14,21,18,101,6,-4,1,1
-5,18,23,-6,-13,20,16,100,4,-4,2,3
-4,17,22,-6,-13,19,14,98,2,-4,3,4
-4,17,21,-6,-13,19,12,96,0,-5,4,4
-3,17,21,-6,-13,19,10,94,-3,-7,4,5
-2,17,20,-7,-12,18,7,91,-7,-8,3,5
-1,16,19,-7,-11,18,5,89,-10,-10,3,5
-1,17,18,-7,-10,18,2,87,-12,-11,2,4
-1,16,18,-7,-10,17,1,86,-14,-12,2,4
0,15,16,-7,-9,16,0,86,-15,-13,2,4
1,14,14,-7,-7,14,0,86,-16,-13,2,4
2,14,12,-7,-6,13,0,85,-17,-13,2,4
2,13,12,-7,-5,12,-1,85,-18,-14,2,4
2,12,11,-7,-5,12,-2,84,-19,-14,2,4
1,12,11,-6,-5,12,-3,83,-20,-14,1,4
2,11,10,-6,-4,11,-4,82,-21,-14,1,4
2,10,7,-6,-2,9,-4,83,-20,-14,1,5
2,9,6,-5,-2,8,-4,83,-20,-14,1,5
2,9,6,-6,-2,8,-5,83,-20,-14,1,5
3,9,5,-6,-2,8,-5,83,-21,-15,0,4
3,8,5,-6,-2,7,-6,83,-21,-15,0,3
3,7,4,-5,-1,6,-6,82,-21,-15,0,2
3,5,2,-4,0,4,-7,82,-21,-15,-1,2
4,5,0,-4,2,2,-8,81,-22,-16,-2,1
5,4,0,-4,3,2,-9,80,-22,-16,-3,0
5,3,-2,-4,4,0,-9,80,-22,-17,-3,0
5,1,-4,-3,5,-2,-9,80,-21,-16,-3,0
2,-1,-4,-1,3,-3,-8,81,-20,-15,-3,0
1,-2,-3,0,2,-2,-7,82,-20,-15,-2,0
1,-3,-4,0,2,-3,-7,82,-19,-15,-3,0
1,-5,-5,1,3,-4,-7,82,-19,-14,-3,0
1,-6,-6,2,3,-5,-7,82,-19,-14,-3,-1
1,-7,-7,2,4,-7,-7,81,-19,-14,-4,-2
2,-8,-10,2,6,-9,-8,81,-19,-15,-4,-3
2,-9,-11,3,6,-9,-8,81,-18,-15,-5,-3
1,-9,-10,3,5,-9,-8,81,-18,-15,-5,-4
1,-9,-10,2,5,-9,-8,80,-19,-16,-6,-5
2,-10,-12,2,7,-10,-8,80,-19,-16,-7,-6
3,-10,-13,3,8,-11,-8,80,-18,-16,-8,-7
3,-10,-12,3,7,-11,-8,80,-17,-15,-8,-7
2,-10,-12,3,7,-11,-8,80,-17,-15,-8,-7
1,-10,-11,4,6,-11,-8,80,-17,-15,-8,-8
1,-10,-11,4,6,-11,-8,79,-17,-15,-8,-8
1,-10,-12,4,6,-11,-8,79,-17,-15,-8,-9
1,-10,-12,4,6,-11,-7,80,-16,-15,-8,-9
1,-11,-12,4,6,-11,-7,80,-16,-15,-8,-9
1,-11,-12,4,6,-11,-7,80,-16,-16,-9,-10
0,-11,-11,5,5,-11,-7,80,-15,-15,-9,-10
-1,-11,-10,5,4,-10,-7,81,-15,-15,-8,-9
0,-10,-10,4,5,-10,-7,81,-15,-15,-9,-10
2,-9,-11,3,6,-10,-8,80,-15,-16,-10,-11
1,-8,-9,3,5,-9,-8,80,-15,-17,-10,-11
0,-6,-6,3,3,-6,-8,80,-15,-17,-11,-12
-1,-5,-5,3,1,-5,-7,80,-15,-17,-11,-12
0,-7,-6,3,2,-6,-7,81,-15,-16,-11,-12
0,-9,-10,4,5,-9,-6,81,-14,-16,-10,-12
0,-11,-11,5,5,-11,-6,81,-14,-16,-10,-12
-1,-11,-10,6,4,-10,-6,82,-14,-16,-10,-12
-2,-11,-9,6,3,-10,-6,82,-14,-16,-10,-12
-2,-11,-8,6,2,-10,-6,82,-15,-16,-11,-13
-3,-11,-7,6,1,-9,-6,82,-15,-16,-11,-13
-3,-10,-5,6,0,-8,-5,82,-14,-16,-10,-12
-3,-8,-4,5,0,-7,-4,82,-14,-16,-10,-12
-3,-8,-4,5,0,-6,-4,82,-15,-17,-11,-13
-3,-7,-4,5,0,-5,-4,82,-15,-17,-11,-13
-3,-7,-4,5,0,-5,-3,82,-14,-17,-11,-12
-3,-8,-4,5,0,-6,-3,82,-14,-16,-10,-12
-4,-8,-4,6,0,-6,-3,82,-14,-17,-10,-13
-4,-7,-3,6,0,-5,-3,82,-14,-17,-10,-13
-4,-7,-2,6,-1,-5,-2,82,-14,-17,-10,-13
-4,-7,-2,6,-1,-4,-2,82,-14,-18,-10,-13
-2,-6,-2,5,0,-4,-2,82,-14,-18,-11,-13
0,-6,-4,3,2,-4,-2,81,-15,-19,-12,-14
-1,-5,-3,3,1,-4,-1,82,-14,-18,-11,-13
-3,-4,0,4,-2,-2,0,83,-13,-17,-10,-12
-5,-4,1,4,-3,-1,1,85,-13,-16,-9,-12
-5,-3,1,4,-3,-1,2,86,-12,-16,-9,-12
-5,-2,2,3,-4,0,3,86,-12,-16,-9,-12
-4,-1,3,3,-4,1,3,86,-12,-16,-9,-12
-4,-1,3,3,-4,1,4,87,-12,-15,-8,-12
-4,-1,3,3,-4,1,5,87,-11,-15,-8,-11
-5,0,5,2,-5,2,5,87,-10,-15,-8,-11
-5,2,7,1,-6,4,5,87,-10,-16,-8,-11
-3,3,6,0,-5,4,5,86,-11,-16,-8,-12
-2,2,4,0,-3,3,5,86,-12,-17,-9,-12
-3,2,4,0,-3,3,6,86,-11,-16,-8,-12
-4,2,6,1,-5,4,7,87,-11,-16,-7,-11
-5,3,8,1,-6,5,8,87,-11,-16,-7,-11
-5,5,10,0,-7,7,9,87,-12,-17,-8,-11
-5,6,12,0,-9,9,10,87,-12,-17,-8,-11
-6,7,13,0,-10,10,11,87,-11,-17,-8,-11
-7,7,15,0,-11,11,13,87,-11,-17,-7,-10
-8,7,16,0,-12,12,14,88,-10,-17,-7,-10
-9,7,17,0,-12,12,14,88,-11,-17,-8,-10
-8,7,16,0,-12,12,14,87,-11,-17,-8,-11
-8,7,16,0,-12,12,13,87,-12,-18,-8,-11
-8,7,16,0,-12,12,13,87,-12,-18,-8,-11
-7,7,15,0,-11,12,13,86,-12,-18,-8,-11
-7,8,15,-1,-11,12,12,86,-12,-18,-9,-12
-6,9,16,-2,-10,13,11,85,-12,-19,-9,-12
-5,9,14,-2,-9,12,10,85,-12,-19,-9,-11
-3,8,12,-2,-7,10,9,85,-12,-18,-8,-10
-2,8,10,-3,-5,9,9,86,-12,-17,-8,-9
-2,8,10,-3,-5,10,7,85,-12,-17,-7,-8
-1,11,12,-5,-6,12,5,83,-13,-17,-5,-7
1,14,13,-7,-6,13,2,79,-14,-15,-3,-5
2,15,13,-8,-5,14,-1,75,-14,-13,0,-2
2,15,13,-9,-5,14,-5,71,-14,-10,3,0
3,16,13,-11,-5,15,-9,66,-16,-8,6,3
5,18,12,-13,-3,15,-12,61,-20,-7,8,6
8,19,11,-14,-1,15,-14,59,-24,-7,9,8
11,19,7,-15,1,14,-15,59,-28,-8,11,11
14,18,3,-16,5,11,-16,59,-31,-8,13,15
19,19,-1,-19,10,9,-17,59,-34,-8,17,20
25,20,-5,-23,15,8,-18,57,-36,-7,22,26
31,22,-9,-27,20,6,-19,54,-37,-6,26,32
37,23,-14,-30,26,4,-20,48,-39,-5,31,39
44,25,-18,-35,31,4,-22,38,-43,-4,36,46
49,32,-17,-41,33,7,-25,23,-47,-1,42,54
54,41,-13,-48,34,14,-30,3,-49,5,52,64
59,48,-10,-54,35,19,-39,-22,-53,14,64,76
65,50,-14,-57,40,18,-50,-49,-58,22,73,86
73,46,-26,-59,50,10,-61,-74,-65,26,78,91
81,38,-43,-59,62,-3,-73,-92,-74,26,77,91
87,24,-62,-56,74,-19,-83,-102,-80,21,71,86
87,8,-79,-49,82,-34,-89,-103,-81,14,60,78
82,-7,-89,-38,85,-48,-92,-98,-79,7,48,67
73,-23,-96,-25,85,-59,-93,-90,-75,0,35,54
64,-37,-100,-13,82,-68,-92,-78,-66,-4,23,41
54,-47,-101,-3,78,-73,-90,-61,-52,-4,14,30
46,-53,-99,3,73,-76,-87,-41,-38,-5,6,18
41,-55,-96,7,69,-75,-83,-22,-25,-7,-4,5
36,-54,-90,8,63,-72,-78,-6,-12,-10,-13,-6
28,-51,-79,11,53,-65,-70,8,-1,-9,-18,-13
21,-48,-68,12,44,-58,-62,21,8,-6,-19,-16
16,-43,-57,13,37,-50,-54,29,13,-4,-18,-18
11,-38,-48,13,30,-43,-46,36,15,-2,-18,-19
7,-32,-38,12,23,-35,-38,42,14,-3,-18,-20
3,-26,-29,12,17,-28,-30,50,13,-5,-18,-21
-1,-22,-21,12,10,-21,-21,58,11,-7,-18,-22
-4,-19,-16,12,6,-17,-13,66,11,-8,-18,-23
-5,-17,-12,11,3,-14,-7,73,10,-10,-19,-24
-6,-15,-8,10,1,-12,-3,79,8,-12,-20,-25
-7,-14,-5,10,-1,-10,0,83,8,-13,-21,-25
-8,-14,-4,10,-2,-9,2,87,9,-13,-21,-26
-9,-13,-3,11,-2,-8,3,89,10,-13,-21,-26
-9,-11,-1,11,-3,-7,4,90,10,-13,-21,-27
-10,-11,-1,11,-4,-6,6,92,11,-13,-20,-27
-10,-12,-2,11,-3,-8,7,94,13,-12,-19,-26
-10,-13,-4,11,-2,-9,8,95,14,-11,-18,-26
-11,-14,-3,12,-4,-8,8,95,15,-10,-18,-26
-12,-13,-1,12,-5,-7,8,94,15,-9,-18,-26
-12,-12,1,11,-6,-5,9,93,16,-8,-18,-26
-12,-11,1,11,-7,-5,9,92,16,-7,-17,-26
-11,-11,0,11,-6,-5,10,91,17,-6,-17,-26
-10,-11,-1,11,-5,-6,9,90,18,-6,-17,-26
-8,-11,-3,10,-3,-7,9,88,18,-7,-17,-27
-7,-12,-5,10,-2,-8,9,86,19,-7,-17,-28
-9,-13,-3,11,-4,-8,11,85,20,-6,-16,-27
-13,-14,0,13,-7,-7,13,84,21,-4,-15,-26
-14,-14,1,14,-8,-6,13,82,22,-4,-15,-25
-13,-14,0,13,-6,-7,13,79,21,-5,-16,-26
-13,-14,0,13,-6,-7,12,75,21,-5,-16,-27
-13,-13,0,13,-6,-6,13,72,21,-5,-16,-28
-13,-12,0,13,-6,-5,13,69,21,-5,-16,-28
-13,-12,0,13,-6,-6,13,66,21,-6,-16,-28
-12,-12,0,12,-6,-5,14,63,21,-6,-16,-28
-12,-11,2,11,-7,-4,15,59,21,-7,-17,-29
-12,-11,3,11,-7,-3,15,56,21,-7,-17,-30
-12,-11,2,12,-7,-4,15,52,21,-7,-18,-30
-12,-12,0,12,-6,-5,15,48,22,-7,-18,-31
-12,-13,0,13,-7,-6,15,44,23,-7,-18,-31
-13,-12,1,13,-8,-4,15,40,23,-8,-18,-31
-13,-10,3,12,-9,-3,14,34,22,-8,-19,-31
-13,-9,4,12,-9,-2,13,26,22,-9,-20,-32
-12,-10,3,12,-8,-3,13,18,22,-9,-20,-32
-13,-10,2,12,-7,-4,14,9,23,-8,-19,-32
-14,-10,4,12,-8,-3,15,0,24,-8,-19,-31
-14,-11,4,12,-9,-3,15,-13,24,-8,-19,-31
-14,-11,4,12,-9,-3,16,-30,25,-8,-20,-32
-14,-11,3,13,-8,-3,17,-49,25,-8,-20,-32
-15,-12,3,13,-8,-4,18,-67,26,-8,-19,-31
-15,-12,3,14,-9,-4,19,-82,27,-7,-19,-30
-15,-12,3,14,-9,-4,19,-95,27,-7,-19,-29
-14,-12,2,13,-8,-4,20,-105,27,-7,-19,-29
-13,-12,2,12,-7,-4,20,-112,27,-7,-19,-29
-12,-11,2,12,-8,-4,21,-117,28,-6,-18,-29
-14,-10,5,12,-10,-2,22,-120,30,-5,-17,-29
-16,-9,7,13,-12,-1,24,-122,31,-4,-16,-28
-17,-8,9,13,-13,0,25,-124,32,-3,-16,-28
-17,-6,11,11,-14,2,25,-125,33,-2,-15,-27
-16,-3,13,10,-15,5,26,-126,34,-1,-15,-26
-16,-2,14,9,-15,6,27,-127,36,0,-13,-25
-16,-1,15,8,-15,7,28,-127,38,1,-12,-24
-15,1,16,7,-15,9,29,-127,39,2,-11,-23
-15,3,18,6,-16,10,29,-128,39,2,-11,-23
-14,4,19,5,-16,11,30,-128,40,2,-10,-22
-14,5,20,5,-17,12,31,-127,40,3,-8,-21
-15,6,21,5,-18,13,32,-127,40,3,-7,-20
-15,7,22,5,-18,14,34,-126,40,3,-6,-19
-15,8,24,4,-19,16,35,-126,40,3,-6,-17
-16,10,27,3,-21,18,36,-126,39,3,-5,-16
-17,11,29,3,-23,20,36,-127,38,3,-5,-16
-17,12,30,2,-24,22,36,-127,37,3,-4,-15
-17,13,31,1,-24,22,36,-128,35,3,-4,-15
-16,15,32,0,-24,23,36,-129,33,2,-3,-14
-15,17,33,0,-24,25,36,-130,31,2,-2,-13
-14,19,34,-2,-24,26,35,-131,29,2,-1,-12
-13,21,35,-3,-24,27,35,-132,28,1,-1,-11
-12,23,35,-4,-23,28,34,-133,27,1,0,-10
-11,23,35,-5,-22,28,33,-134,26,1,1,-8
-10,23,34,-6,-22,28,31,-134,24,1,2,-6
-9,24,35,-7,-22,29,29,-135,23,1,3,-5
-8,25,35,-8,-21,29,26,-136,21,2,5,-3
-6,27,35,-10,-20,30,24,-137,19,2,6,-2
-5,28,35,-11,-20,31,21,-138,17,2,7,0
-5,28,33,-10,-19,30,19,-139,15,2,8,1
-4,27,32,-11,-18,29,17,-141,13,2,9,2
-3,27,32,-12,-17,29,15,-143,11,1,10,3
-3,28,32,-12,-17,30,12,-145,9,0,10,4
-2,28,31,-13,-16,29,10,-147,7,0,10,4
-1,28,30,-13,-15,29,8,-148,6,0,11,5
0,28,29,-14,-14,28,6,-149,3,-1,11,6
1,28,28,-15,-13,28,3,-151,0,-3,10,6
2,28,27,-15,-12,28,1,-154,-3,-4,10,6
3,27,25,-15,-11,26,0,-155,-5,-5,10,6
4,27,23,-15,-9,24,0,-156,-6,-6,10,6
5,27,23,-16,-9,24,-1,-156,-6,-6,10,5
5,27,22,-16,-8,24,-2,-156,-8,-8,8,4
5,25,21,-15,-8,23,-3,-156,-9,-9,7,4
5,23,19,-14,-7,21,-3,-156,-10,-9,7,4
5,22,18,-14,-6,20,-4,-156,-11,-9,6,4
5,21,17,-13,-6,19,-5,-157,-12,-10,6,3
5,20,16,-13,-5,18,-6,-157,-13,-10,5,3
5,20,15,-13,-5,17,-6,-158,-13,-11,5,3
5,20,15,-13,-5,17,-7,-159,-14,-11,4,3
6,19,14,-12,-4,16,-7,-159,-14,-12,4,2
6,18,12,-12,-3,15,-8,-160,-14,-12,4,2
7,17,11,-12,-2,14,-8,-160,-15,-12,3,1
7,16,10,-11,-2,12,-9,-161,-15,-13,2,1
7,14,8,-10,-1,10,-9,-161,-16,-13,1,0
6,12,6,-9,0,8,-9,-161,-16,-14,0,0
5,10,5,-8,0,7,-10,-161,-16,-14,0,-1
5,10,5,-7,0,7,-10,-161,-17,-15,-2,-3
6,9,3,-7,1,6,-11,-162,-17,-16,-3,-4
7,8,1,-7,3,5,-12,-162,-18,-17,-4,-5
7,8,1,-7,2,5,-12,-162,-18,-18,-4,-6
5,8,2,-6,1,5,-12,-162,-18,-17,-4,-6
4,5,1,-5,1,4,-11,-161,-17,-17,-4,-6
3,4,0,-4,2,2,-11,-161,-17,-17,-4,-6
3,3,0,-3,2,1,-12,-161,-17,-17,-4,-7
2,1,-1,-2,2,0,-12,-161,-17,-16,-4,-7
2,0,-2,-1,2,-1,-11,-160,-16,-16,-4,-7
1,-1,-3,0,3,-2,-11,-160,-16,-17,-5,-7
2,-2,-3,0,3,-3,-11,-160,-17,-18,-6,-8
2,-2,-5,0,4,-4,-11,-160,-17,-18,-6,-9
3,-3,-6,0,5,-5,-11,-160,-17,-18,-7,-10
2,-3,-5,0,4,-5,-11,-160,-16,-18,-7,-10
1,-3,-4,0,3,-4,-11,-160,-16,-18,-7,-10
1,-2,-3,0,3,-3,-11,-160,-16,-19,-7,-11
2,-1,-3,-1,3,-3,-11,-160,-16,-19,-8,-11
3,-2,-5,0,5,-4,-11,-160,-16,-19,-9,-12
2,-5,-6,1,5,-6,-10,-159,-16,-18,-8,-12
1,-5,-6,2,4,-6,-10,-158,-15,-18,-8,-12
1,-5,-6,2,4,-6,-11,-158,-15,-18,-8,-12
2,-4,-6,1,4,-5,-11,-158,-16,-18,-8,-12
0,-3,-3,1,2,-4,-11,-158,-15,-17,-8,-12
-1,-1,0,1,0,-2,-10,-157,-14,-16,-7,-12
-2,-1,1,1,-1,0,-10,-156,-13,-16,-7,-12
-3,-1,2,2,-2,0,-10,-156,-12,-15,-7,-12
-4,-2,2,3,-3,0,-10,-155,-12,-15,-7,-12
-4,-3,1,3,-2,0,-9,-154,-11,-15,-7,-12
-3,-3,0,3,-2,0,-8,-153,-10,-14,-6,-11
-2,-3,0,3,-1,-1,-7,-151,-10,-14,-6,-11
-1,-3,-2,2,0,-2,-7,-150,-10,-14,-6,-11
0,-2,-2,1,1,-2,-6,-149,-10,-14,-6,-11
-1,-3,-1,2,0,-2,-5,-147,-10,-13,-6,-11
-2,-4,-2,3,0,-3,-4,-146,-9,-13,-6,-11
-1,-5,-3,3,1,-4,-4,-144,-8,-13,-6,-11
-1,-5,-2,3,0,-3,-3,-143,-8,-13,-6,-12
-2,-3,0,3,0,-1,-3,-142,-8,-13,-6,-12
-1,-1,1,2,-1,0,-3,-141,-8,-14,-7,-12
-1,0,1,1,-1,0,-3,-141,-8,-14,-7,-12
0,0,0,1,0,-1,-4,-141,-8,-14,-6,-11
0,-2,-1,1,0,-2,-4,-140,-8,-13,-6,-11
-1,-2,-1,1,0,-2,-4,-140,-8,-13,-6,-11
0,-1,0,0,0,-1,-4,-139,-8,-14,-7,-12
0,0,0,0,0,0,-4,-139,-8,-15,-9,-13
-1,0,1,0,-1,1,-4,-138,-8,-15,-10,-14
-2,0,2,1,-2,1,-3,-137,-8,-16,-11,-15
-3,-1,3,2,-3,1,-2,-136,-8,-16,-12,-16
-3,-1,3,2,-3,0,-1,-135,-9,-16,-12,-16
-3,0,3,2,-3,0,-1,-135,-9,-16,-12,-16
-4,0,4,2,-4,1,0,-134,-9,-16,-11,-15
-3,0,3,1,-3,1,0,-133,-10,-16,-10,-15
-1,0,3,0,-2,1,0,-133,-10,-16,-10,-15
-2,1,4,0,-3,3,0,-133,-9,-15,-9,-14
-4,2,7,1,-6,5,0,-131,-8,-14,-8,-13
-5,3,8,1,-7,5,2,-130,-8,-13,-7,-12
-5,3,8,1,-6,5,4,-129,-7,-13,-6,-12
-6,3,8,1,-7,5,7,-127,-7,-13,-6,-12
-6,3,9,2,-7,5,9,-126,-7,-13,-6,-12
-7,2,9,2,-8,6,11,-125,-8,-15,-7,-12
-7,3,10,2,-9,7,12,-126,-9,-15,-7,-12
-7,5,12,1,-10,9,12,-128,-10,-14,-5,-10
-7,7,14,0,-10,11,12,-130,-9,-11,-2,-7
-5,9,15,-2,-10,12,11,-132,-9,-7,1,-4
-3,11,15,-4,-9,13,10,-135,-9,-4,5,0
0,13,14,-6,-7,13,10,-137,-10,-1,8,3
2,14,12,-9,-4,13,9,-136,-11,2,12,8
5,16,11,-11,-2,13,8,-134,-11,4,16,12
9,19,9,-14,0,14,6,-131,-12,7,21,18
15,21,6,-18,4,14,4,-128,-10,12,28,26
21,23,2,-22,9,13,3,-126,-8,16,35,34
27,26,-1,-27,14,13,3,-126,-6,20,41,41
32,29,-3,-31,17,13,3,-128,-6,22,47,48
37,33,-4,-35,20,14,2,-135,-8,24,52,55
43,39,-3,-41,23,17,-1,-150,-12,26,59,63
50,50,0,-50,25,24,-10,-173,-16,32,69,73
55,58,2,-57,26,30,-22,-202,-22,41,81,86
61,59,-3,-60,32,28,-36,-232,-30,49,91,97
69,53,-17,-61,43,18,-52,-259,-41,54,96,103
76,43,-34,-60,55,5,-67,-280,-52,55,96,104
78,31,-48,-54,63,-8,-78,-290,-59,49,89,99
73,15,-59,-44,66,-22,-84,-291,-65,37,74,87
65,-3,-68,-31,67,-36,-86,-285,-67,22,56,71
57,-17,-74,-19,65,-46,-85,-275,-63,9,38,53
49,-27,-76,-10,62,-52,-83,-259,-55,1,23,38
41,-36,-78,-2,60,-57,-78,-240,-42,-1,12,25
34,-43,-78,4,57,-61,-72,-220,-27,-1,4,14
27,-46,-75,9,51,-60,-66,-200,-13,-1,-4,3
22,-45,-68,11,45,-56,-60,-183,-2,-2,-11,-6
18,-42,-61,11,39,-51,-55,-171,4,-1,-15,-11
15,-37,-52,11,33,-45,-49,-161,9,0,-16,-15
11,-33,-44,11,27,-39,-41,-150,12,1,-16,-17
7,-29,-36,11,21,-33,-32,-140,13,0,-16,-18
2,-26,-28,12,15,-28,-24,-130,12,-2,-17,-20
-1,-22,-21,12,10,-22,-16,-122,11,-4,-17,-21
-4,-19,-15,11,5,-17,-9,-114,11,-6,-17,-21
-7,-18,-12,12,2,-14,-4,-107,11,-6,-17,-21
-8,-17,-10,12,0,-13,-1,-102,11,-6,-17,-21
-8,-16,-8,12,0,-12,1,-98,11,-6,-17,-21
-9,-15,-6,12,-1,-11,2,-95,11,-6,-16,-21
-9,-15,-5,12,-2,-10,2,-94,11,-5,-16,-21
-10,-15,-5,13,-3,-10,2,-92,13,-4,-15,-20
-10,-15,-5,13,-3,-10,2,-91,14,-3,-14,-20
-10,-15,-6,12,-2,-10,2,-90,15,-3,-13,-20
-10,-16,-6,13,-2,-11,3,-89,15,-3,-13,-20
-11,-16,-4,13,-3,-10,4,-88,15,-3,-14,-21
-12,-16,-3,13,-4,-10,4,-87,15,-3,-14,-21
-11,-15,-3,13,-4,-10,4,-87,15,-3,-15,-21
-10,-15,-4,13,-3,-10,4,-86,15,-3,-15,-21
-9,-16,-6,12,-1,-12,5,-86,16,-3,-16,-21
-7,-16,-9,12,1,-13,5,-85,16,-3,-16,-22
-7,-16,-10,12,1,-13,6,-84,17,-2,-15,-22
-10,-17,-8,14,-1,-13,8,-83,18,-1,-14,-22
-11,-18,-7,14,-2,-12,9,-81,20,0,-14,-22
-11,-18,-7,15,-2,-12,9,-81,20,0,-14,-22
-12,-19,-6,15,-2,-13,10,-80,21,0,-14,-22
-12,-17,-5,14,-3,-12,9,-80,21,0,-14,-22
-11,-15,-3,13,-3,-10,9,-80,21,1,-13,-22
-10,-14,-3,12,-4,-9,9,-79,22,2,-12,-22
-11,-15,-3,13,-4,-9,9,-78,23,3,-11,-21
-12,-16,-4,14,-4,-10,8,-78,23,3,-11,-21
-11,-17,-5,14,-4,-11,8,-77,23,3,-11,-22
-11,-18,-6,14,-3,-12,9,-76,24,4,-11,-21
-11,-18,-6,15,-3,-12,10,-75,25,5,-10,-21
-10,-18,-6,14,-2,-12,11,-75,25,5,-11,-21
-10,-17,-5,14,-3,-12,12,-74,25,5,-11,-22
-11,-16,-4,14,-4,-10,12,-72,26,5,-11,-22
-12,-15,-2,14,-5,-9,12,-71,27,5,-11,-23
-13,-14,-1,14,-6,-8,13,-69,28,5,-11,-23
-13,-15,-1,14,-6,-8,13,-68,29,5,-11,-23
-14,-15,-1,14,-6,-8,13,-68,29,5,-11,-23
-15,-16,-1,15,-7,-9,13,-67,29,5,-12,-24
-15,-16,-1,15,-7,-9,14,-66,30,6,-12,-23
-15,-17,-2,16,-6,-10,15,-65,31,7,-12,-23
-15,-18,-3,16,-5,-11,17,-63,32,7,-11,-22
-16,-18,-3,17,-6,-11,18,-61,33,8,-11,-22
-16,-17,-1,16,-7,-9,19,-59,34,8,-10,-21
-16,-15,0,15,-7,-8,19,-57,34,8,-9,-21
-16,-14,1,14,-8,-7,19,-55,35,8,-9,-21
-16,-12,3,14,-9,-6,20,-54,35,9,-9,-20
-15,-11,4,13,-10,-4,20,-53,36,9,-8,-20
-15,-10,5,13,-10,-4,21,-51,37,10,-8,-19
-15,-11,4,13,-9,-4,21,-49,38,11,-8,-19
-13,-10,3,12,-8,-4,21,-48,38,11,-8,-19
-12,-8,3,10,-7,-3,22,-47,38,11,-8,-19
-14,-9,4,12,-9,-3,24,-44,40,12,-7,-18
-16,-10,5,14,-11,-3,27,-41,42,12,-6,-17
-17,-10,6,14,-12,-2,29,-39,43,12,-6,-17
-18,-9,8,14,-12,-1,30,-37,43,12,-6,-17
-18,-8,9,13,-13,0,30,-36,44,13,-5,-17
-18,-6,11,12,-14,1,31,-35,44,13,-5,-17
-19,-5,13,12,-16,3,31,-34,43,13,-5,-18
-19,-3,15,11,-17,5,32,-34,42,12,-5,-18
-19,-2,17,11,-18,7,32,-33,42,12,-6,-18
-19,0,19,9,-19,9,32,-33,41,11,-6,-18
-18,2,21,8,-20,11,32,-33,39,10,-7,-18
-20,4,23,8,-21,13,32,-33,38,9,-6,-18
-21,5,24,8,-22,14,33,-34,37,9,-6,-17
-20,6,25,7,-22,15,33,-34,35,8,-5,-16
-20,6,26,7,-23,15,34,-34,34,7,-5,-15
-20,7,27,7,-24,16,34,-35,32,6,-4,-13
-21,8,29,6,-25,18,35,-36,31,6,-3,-11
-19,9,28,5,-24,18,36,-37,29,6,-1,-9
-17,9,25,4,-21,17,36,-38,26,5,0,-7
-16,9,25,3,-21,17,35,-40,23,4,0,-6
-18,11,28,3,-23,19,35,-41,20,3,1,-4
-18,13,30,2,-24,21,34,-42,18,2,1,-4
-16,14,30,1,-23,21,32,-43,16,1,1,-3
-15,14,29,0,-22,22,31,-45,14,0,1,-3
-14,15,29,0,-22,22,29,-46,12,0,2,-1
-12,16,29,-1,-21,22,28,-47,11,0,3,0
-11,16,28,-2,-19,22,28,-48,9,0,5,2
-10,16,27,-3,-18,21,27,-49,7,1,7,4
-10,16,27,-3,-18,21,25,-51,5,1,8,5
-10,17,27,-3,-18,22,22,-53,2,0,8,6
-9,19,28,-4,-18,23,19,-54,0,0,9,7
-8,20,28,-6,-18,24,15,-57,-2,-1,8,7
-6,21,27,-7,-16,24,11,-59,-5,-2,8,8
-4,20,24,-7,-14,22,8,-61,-6,-2,9,8
-4,19,23,-6,-13,20,6,-63,-8,-3,9,9
-4,18,22,-6,-13,20,5,-64,-10,-5,9,9
-3,18,22,-7,-12,20,4,-65,-12,-6,9,9
-2,18,21,-7,-11,19,3,-66,-13,-7,8,9
-2,17,19,-7,-10,17,1,-68,-15,-8,8,9
-2,15,17,-6,-10,15,-2,-69,-16,-9,7,9
-3,13,15,-5,-9,13,-4,-71,-18,-9,7,9
-3,12,15,-4,-9,13,-6,-72,-19,-9,6,9
-2,12,14,-4,-8,12,-6,-73,-19,-10,6,8
-2,12,13,-4,-7,12,-6,-73,-20,-10,5,8
-2,12,13,-4,-7,11,-5,-74,-20,-10,5,8
-2,11,13,-4,-6,11,-5,-74,-21,-10,5,8
-1,10,11,-4,-5,9,-6,-75,-21,-10,5,7
0,9,9,-4,-4,8,-7,-76,-22,-10,5,7
0,7,8,-3,-4,7,-9,-77,-23,-9,5,6
0,7,7,-4,-3,7,-10,-78,-23,-9,4,6
1,8,7,-4,-3,7,-10,-78,-22,-9,3,6
1,7,7,-4,-3,7,-11,-79,-22,-10,2,5
0,5,5,-2,-2,5,-11,-79,-22,-10,2,4
0,3,4,0,-2,3,-11,-79,-22,-11,1,3
0,2,2,0,-1,2,-11,-79,-22,-11,0,2
1,2,1,-1,0,1,-12,-80,-21,-11,0,2
0,2,2,-1,-1,2,-12,-80,-21,-10,0,2
0,1,2,0,-1,1,-12,-80,-20,-9,0,2
0,1,1,0,-1,0,-13,-80,-20,-9,1,1
0,0,1,0,0,0,-13,-80,-20,-8,1,1
0,0,0,0,0,0,-13,-81,-20,-8,1,0
-1,-1,0,1,0,-1,-13,-81,-19,-8,0,0
-1,-2,0,2,0,-2,-13,-81,-19,-8,0,0
-2,-4,-1,3,0,-3,-13,-81,-19,-8,0,0
-2,-5,-2,3,0,-4,-13,-81,-18,-8,0,0
-2,-5,-3,3,0,-4,-13,-81,-18,-7,0,0
-2,-6,-4,4,0,-5,-12,-81,-17,-6,0,0
-3,-7,-4,5,0,-6,-12,-80,-16,-5,0,0
-3,-7,-3,5,0,-6,-11,-80,-15,-5,0,0
-3,-7,-3,5,0,-6,-11,-79,-14,-5,0,0
-3,-6,-2,5,0,-5,-11,-79,-14,-5,0,0
-1,-6,-5,4,2,-7,-11,-79,-14,-5,-1,-1
3,-8,-11,3,7,-10,-12,-79,-14,-5,-1,-2
3,-10,-13,3,8,-12,-12,-79,-14,-5,-2,-2
-1,-10,-9,6,4,-10,-11,-79,-13,-5,-2,-1
-4,-11,-6,8,1,-9,-10,-78,-13,-5,-2,-1
-4,-11,-5,8,1,-9,-10,-77,-13,-5,-2,-1
-3,-11,-7,7,2,-10,-10,-77,-13,-5,-3,-2
-2,-12,-8,7,3,-10,-9,-76,-12,-5,-3,-2
-3,-11,-7,7,2,-9,-8,-76,-12,-4,-2,-2
-4,-11,-6,8,1,-9,-7,-76,-11,-4,-2,-2
-5,-12,-6,8,1,-9,-7,-75,-11,-5,-2,-2
-5,-12,-6,9,0,-9,-6,-75,-11,-5,-2,-2
-6,-12,-6,9,0,-9,-6,-75,-11,-4,-2,-2
-5,-13,-7,9,1,-10,-7,-75,-11,-4,-1,-1
-4,-13,-8,9,2,-11,-7,-75,-10,-4,-1,-1
-4,-13,-8,8,2,-10,-7,-74,-10,-4,-1,-1
-4,-12,-8,8,2,-10,-7,-74,-10,-3,-1,-1
-5,-12,-7,9,1,-10,-6,-73,-9,-2,0,0
-6,-13,-7,9,0,-10,-5,-72,-9,-1,0,0
-6,-13,-7,9,1,-10,-5,-70,-9,-1,0,0
-6,-14,-8,10,1,-11,-5,-68,-9,-1,0,0
-8,-13,-6,10,0,-10,-5,-66,-10,-2,0,-1
-8,-11,-3,9,-1,-8,-5,-64,-10,-2,0,-2
-8,-11,-3,9,-1,-8,-4,-62,-10,-2,0,-1
-8,-13,-4,10,-1,-9,-3,-59,-9,-1,0,-1
-7,-13,-5,9,0,-9,-3,-57,-8,-1,0,-1
-5,-11,-5,8,1,-9,-3,-56,-7,-1,0,-1
-4,-10,-5,7,1,-8,-2,-54,-8,-2,0,-2
-4,-9,-4,7,0,-7,-2,-54,-9,-3,-1,-2
-5,-9,-4,7,-1,-7,-2,-53,-9,-3,-1,-3
-6,-9,-3,8,-1,-7,-2,-53,-9,-4,-2,-3
-6,-8,-3,7,-1,-6,-2,-52,-9,-4,-3,-3
-6,-7,-2,6,-1,-5,-2,-52,-9,-5,-3,-4
-6,-7,0,6,-2,-4,-2,-51,-9,-5,-4,-4
-6,-6,0,6,-3,-3,-1,-50,-9,-5,-4,-5
-6,-6,0,6,-3,-3,-1,-50,-9,-5,-4,-5
-7,-7,1,7,-4,-3,0,-49,-9,-4,-4,-5
-8,-7,1,7,-4,-3,0,-49,-8,-4,-4,-5
-8,-7,1,7,-4,-3,1,-48,-8,-4,-4,-4
-8,-7,1,7,-4,-3,2,-48,-8,-3,-3,-3
-8,-7,1,7,-4,-3,2,-47,-7,-3,-2,-2
-8,-7,1,8,-4,-3,2,-47,-8,-3,-2,-2
-8,-7,2,8,-5,-3,3,-46,-9,-3,-1,-1
-8,-7,1,8,-5,-3,4,-45,-9,-3,-1,-1
-8,-7,1,8,-5,-3,5,-45,-9,-4,-1,-1
-8,-7,2,7,-5,-3,6,-45,-9,-4,-1,-1
-7,-5,3,6,-5,-1,6,-46,-9,-4,0,0
-7,-2,5,5,-6,1,6,-48,-8,-1,2,2
-7,1,8,3,-7,4,5,-49,-6,3,5,5
-6,5,12,0,-8,8,4,-51,-4,8,10,9
-4,8,13,-1,-9,10,3,-53,-4,12,15,14
-3,9,13,-3,-8,11,2,-55,-5,16,20,19
0,10,12,-5,-6,11,1,-56,-7,17,24,23
4,12,9,-8,-3,11,1,-55,-9,18,27,27
9,14,5,-12,2,10,1,-54,-12,18,30,31
14,16,2,-15,6,9,1,-54,-15,19,34,37
20,17,-2,-19,11,8,0,-58,-17,19,38,44
25,19,-5,-22,16,7,0,-63,-21,19,43,51
28,19,-7,-24,19,6,1,-70,-23,21,49,59
30,21,-7,-26,19,7,2,-80,-25,25,57,69
34,27,-6,-31,20,10,1,-92,-26,31,67,80
40,35,-4,-38,22,15,-2,-107,-26,39,78,92
46,44,-2,-45,24,20,-9,-128,-28,50,91,105
52,48,-4,-50,28,21,-21,-153,-34,59,101,115
58,46,-12,-52,35,16,-34,-176,-42,63,105,120
63,37,-26,-51,45,6,-47,-197,-51,61,103,119
63,25,-38,-44,51,-6,-56,-211,-57,53,94,111
58,10,-48,-35,53,-18,-60,-217,-60,42,79,99
52,-3,-55,-25,53,-29,-63,-218,-58,34,64,84
43,-16,-59,-14,51,-38,-65,-214,-53,29,52,72
34,-26,-60,-4,47,-44,-66,-206,-43,28,43,60
27,-33,-60,3,44,-47,-66,-195,-31,27,32,46
21,-39,-60,9,41,-50,-64,-180,-17,24,20,31
15,-45,-60,15,38,-52,-60,-162,-2,22,8,17
11,-48,-59,18,36,-53,-55,-143,11,20,0,5
9,-47,-56,18,33,-51,-52,-127,21,20,-6,-1
8,-43,-50,17,29,-46,-48,-113,29,22,-7,-4
4,-37,-41,17,23,-40,-43,-101,33,25,-7,-5
0,-32,-31,16,16,-32,-37,-91,34,26,-6,-6
-2,-27,-24,15,11,-27,-29,-82,32,24,-5,-6
-5,-25,-20,15,7,-23,-21,-72,29,22,-5,-6
-8,-23,-15,16,3,-19,-14,-64,27,19,-5,-6
-11,-20,-9,16,-1,-15,-8,-55,24,17,-5,-7
-13,-18,-4,15,-4,-11,-3,-48,22,14,-6,-7
-14,-16,-1,14,-5,-9,0,-42,21,13,-6,-8
-14,-15,0,14,-6,-8,2,-37,21,12,-7,-9
-13,-14,0,14,-6,-8,4,-34,21,12,-7,-9
-13,-14,0,14,-6,-7,6,-32,22,12,-7,-10
-14,-14,0,14,-7,-7,7,-30,23,12,-7,-10
-14,-14,0,14,-7,-7,8,-29,23,12,-7,-11
-13,-15,-2,14,-5,-8,9,-27,23,12,-7,-10
-13,-15,-3,14,-5,-9,10,-25,24,14,-6,-9
-13,-15,-2,14,-5,-8,10,-24,24,15,-5,-8
-13,-15,-2,14,-5,-8,10,-24,24,15,-5,-8
-12,-14,-1,13,-5,-8,10,-24,25,15,-5,-8
-13,-14,0,13,-5,-7,10,-25,25,15,-5,-8
-14,-14,0,14,-7,-7,10,-25,26,15,-5,-9
-14,-15,0,15,-7,-7,10,-24,26,15,-5,-9
-14,-16,-1,15,-6,-9,10,-24,27,16,-5,-10
-14,-16,-1,15,-6,-9,10,-24,27,16,-5,-10
-14,-16,-1,15,-6,-9,10,-24,27,16,-5,-11
-14,-17,-2,15,-5,-10,11,-24,28,17,-5,-11
-13,-17,-4,15,-4,-11,11,-24,29,18,-4,-11
-12,-18,-5,15,-3,-12,12,-24,29,18,-4,-11
-13,-19,-5,16,-3,-13,12,-25,29,18,-4,-12
-13,-18,-4,16,-4,-12,13,-24,29,18,-4,-12
-12,-17,-4,15,-4,-11,13,-23,30,18,-4,-12
-13,-17,-4,14,-4,-11,13,-23,30,18,-5,-12
-13,-18,-5,15,-4,-12,13,-22,30,18,-5,-12
-12,-19,-6,16,-3,-13,13,-22,30,19,-5,-12
-12,-20,-7,17,-2,-14,13,-22,30,19,-5,-13
-13,-20,-6,17,-3,-14,13,-22,30,19,-5,-13
-13,-20,-6,16,-3,-14,13,-22,31,18,-5,-14
-12,-20,-7,15,-2,-14,13,-21,31,18,-6,-14
-10,-20,-9,15,0,-15,12,-21,31,17,-7,-15
-10,-19,-9,14,0,-15,12,-21,31,17,-6,-15
-11,-18,-7,15,-2,-13,13,-20,32,18,-6,-14
-13,-17,-4,15,-4,-11,14,-19,33,18,-5,-14
-14,-17,-3,15,-5,-10,15,-19,34,19,-5,-13
-14,-17,-2,16,-6,-10,15,-18,34,19,-4,-12
-15,-17,-1,16,-6,-10,16,-18,35,20,-4,-12
-14,-18,-3,16,-5,-11,17,-17,36,20,-3,-11
-13,-18,-5,15,-4,-12,18,-17,36,20,-3,-11
-13,-17,-3,15,-5,-10,18,-16,36,20,-3,-11
-15,-16,0,15,-7,-8,19,-14,37,21,-3,-10
-15,-15,0,15,-8,-7,20,-13,39,21,-2,-10
-14,-15,0,14,-7,-7,21,-11,40,21,-2,-10
-13,-14,0,14,-6,-6,21,-10,40,21,-3,-10
-14,-13,2,13,-8,-5,20,-9,40,20,-3,-11
-14,-11,5,13,-9,-4,20,-9,40,20,-4,-11
-14,-10,5,12,-9,-3,21,-7,40,20,-4,-11
-15,-11,4,13,-9,-4,21,-6,41,20,-4,-11
-16,-12,5,15,-10,-4,22,-5,41,20,-4,-11
-17,-10,7,15,-12,-2,22,-4,41,20,-4,-11
-17,-8,9,14,-13,0,23,-3,41,20,-4,-12
-17,-8,9,13,-13,0,23,-2,41,19,-4,-12
-17,-8,9,13,-13,0,24,-1,41,20,-4,-11
-18,-8,10,13,-13,0,25,0,41,20,-3,-10
-18,-8,11,13,-14,0,26,0,41,20,-2,-10
-18,-6,12,12,-15,2,26,1,41,20,-2,-9
-17,-4,13,11,-15,4,26,1,40,21,-1,-8
-17,-2,14,10,-15,5,26,1,39,20,0,-7
-16,0,15,9,-15,6,25,1,38,20,0,-7
-14,1,15,7,-14,7,25,0,38,20,1,-6
-14,3,18,6,-16,10,24,-1,36,20,1,-5
-14,6,22,4,-18,13,24,-2,35,19,2,-4
-14,7,22,3,-18,14,23,-3,34,19,4,-2
-13,7,21,3,-17,13,23,-3,33,20,6,0
-12,7,20,2,-16,13,23,-4,32,20,7,2
-11,9,20,1,-16,15,23,-6,30,20,8,3
-12,13,24,0,-17,18,22,-7,28,19,9,5
-12,15,26,-1,-18,21,21,-8,26,19,11,6
-10,15,25,-2,-17,20,21,-9,25,20,12,7
-7,15,23,-3,-15,19,21,-10,23,20,13,8
-6,17,25,-5,-16,21,20,-11,21,19,14,9
-6,21,29,-7,-17,25,18,-13,19,19,15,11
-5,24,31,-9,-18,27,17,-14,17,19,16,12
-5,24,30,-9,-17,27,17,-14,16,19,18,14
-5,24,29,-9,-16,26,18,-15,14,19,19,16
-5,23,28,-9,-16,25,18,-16,13,19,20,17
-5,23,28,-9,-16,25,18,-17,11,18,20,17
-6,23,29,-9,-17,26,18,-18,9,18,21,18
-6,23,30,-9,-18,27,19,-19,6,17,21,19
-5,24,30,-9,-17,27,18,-20,3,15,20,19
-3,25,29,-10,-16,27,18,-23,0,13,19,18
-3,26,29,-11,-16,28,18,-24,-2,12,19,19
-4,27,31,-11,-17,29,18,-25,-2,12,19,19
-5,26,32,-10,-18,29,19,-25,-2,12,20,20
-5,24,30,-10,-17,27,19,-26,-3,12,20,19
-5,22,28,-9,-16,25,19,-26,-4,11,19,18
-4,21,27,-9,-16,24,18,-27,-5,10,18,17
-4,21,26,-8,-15,23,18,-27,-6,9,18,17
-3,21,25,-9,-14,23,17,-27,-7,9,17,17
-2,21,25,-9,-13,23,15,-27,-7,9,17,17
-2,22,24,-9,-12,23,13,-29,-9,7,16,16
0,22,22,-10,-11,22,11,-30,-10,6,15,15
1,21,20,-11,-9,21,9,-30,-10,6,14,14
2,21,19,-11,-8,20,7,-31,-11,6,14,14
3,21,19,-12,-7,20,6,-31,-11,6,14,14
3,21,18,-12,-6,19,5,-31,-11,6,14,14
3,20,18,-12,-6,19,4,-32,-10,6,14,15
2,19,17,-10,-7,18,3,-32,-10,7,14,15
1,16,15,-9,-6,15,2,-32,-10,7,13,15
2,14,12,-8,-5,13,0,-33,-10,6,12,15
4,13,9,-9,-2,11,-2,-34,-11,5,11,14
6,12,6,-9,0,9,-4,-35,-12,4,10,13
4,11,7,-7,-1,9,-4,-36,-12,4,10,12
0,9,9,-5,-4,9,-4,-36,-11,4,10,12
-1,8,10,-3,-5,8,-4,-37,-12,4,9,11
0,8,9,-4,-4,8,-5,-39,-13,2,7,9
0,7,7,-4,-3,6,-6,-40,-14,1,6,8
0,5,5,-2,-2,4,-5,-40,-13,1,6,8
0,3,4,-2,-1,3,-5,-40,-13,1,5,8
0,3,3,-2,-1,3,-6,-41,-13,1,5,7
1,3,2,-2,0,3,-6,-41,-13,1,5,6
1,3,2,-2,0,2,-6,-42,-13,0,4,5
1,0,0,0,1,0,-6,-42,-14,0,4,5
0,-1,-1,0,1,-1,-6,-42,-14,0,3,4
0,-1,-1,0,1,-1,-6,-43,-15,-1,1,3
0,-1,0,1,0,0,-7,-44,-15,-1,1,2
-1,-1,0,1,0,0,-7,-44,-15,-2,0,1
-1,-1,0,1,0,0,-7,-45,-14,-2,0,1
-1,-1,-1,1,0,-1,-7,-45,-14,-2,0,0
0,-2,-2,2,0,-2,-7,-45,-14,-2,0,0
0,-3,-3,2,1,-3,-7,-45,-14,-2,0,0
0,-4,-3,2,1,-3,-7,-45,-13,-2,0,0
-1,-6,-4,3,1,-4,-7,-45,-13,-2,0,0
-2,-6,-3,4,0,-4,-7,-45,-13,-2,-1,-1
-2,-6,-3,4,0,-4,-7,-45,-13,-3,-1,-1
-1,-7,-4,4,1,-5,-7,-45,-14,-3,-1,-1
-1,-8,-5,5,1,-6,-6,-45,-13,-3,-1,-1
-2,-8,-5,5,1,-7,-6,-45,-13,-3,-1,-1
-2,-8,-5,5,1,-7,-6,-44,-13,-3,-2,-2
-3,-8,-5,5,0,-7,-6,-44,-13,-3,-2,-2
-2,-7,-4,5,0,-6,-7,-45,-14,-4,-3,-3
-2,-4,-2,3,0,-4,-8,-46,-15,-5,-4,-5
-1,-3,-2,3,0,-3,-8,-46,-15,-6,-5,-6
-2,-7,-5,5,1,-6,-7,-45,-14,-5,-4,-5
-4,-11,-7,8,1,-9,-5,-43,-12,-3,-3,-3
-4,-12,-7,9,1,-10,-5,-42,-11,-3,-2,-3
-5,-12,-6,9,0,-10,-5,-42,-11,-3,-2,-4
-5,-12,-6,9,0,-10,-5,-42,-11,-4,-3,-4
-6,-12,-5,9,0,-9,-4,-42,-11,-4,-3,-5
-5,-11,-5,9,0,-9,-4,-42,-11,-4,-3,-6
-5,-11,-6,8,1,-8,-4,-42,-11,-5,-4,-6
-4,-11,-6,8,1,-8,-4,-42,-11,-5,-4,-7
-4,-10,-6,8,1,-8,-4,-42,-11,-5,-5,-7
-4,-9,-5,7,0,-7,-4,-43,-12,-6,-5,-8
-4,-8,-4,6,0,-6,-5,-43,-13,-7,-6,-9
-4,-10,-6,7,1,-8,-4,-43,-13,-7,-6,-9
-4,-12,-8,8,2,-10,-3,-42,-13,-7,-6,-9
-5,-12,-8,8,2,-10,-2,-42,-13,-7,-6,-9
-5,-12,-8,8,2,-10,-1,-42,-13,-7,-6,-9
-5,-12,-7,9,1,-10,-1,-42,-13,-7,-7,-10
-7,-12,-5,10,-1,-9,-1,-42,-13,-7,-7,-10
-8,-11,-3,10,-3,-8,-1,-42,-13,-8,-7,-10
-8,-11,-3,10,-3,-8,-1,-42,-13,-8,-7,-10
-8,-10,-3,10,-2,-7,-1,-43,-13,-9,-8,-11
-7,-11,-3,10,-2,-7,-1,-43,-14,-10,-9,-11
-7,-12,-3,10,-2,-8,-1,-43,-13,-10,-8,-11
-8,-12,-3,10,-2,-8,0,-43,-13,-10,-8,-11
-7,-11,-3,9,-2,-7,-1,-43,-14,-10,-9,-11
-7,-10,-3,8,-2,-6,-1,-43,-14,-11,-9,-11
-7,-9,-2,8,-3,-5,-1,-43,-14,-11,-9,-11
-7,-8,-1,8,-3,-5,-1,-44,-15,-12,-9,-12
-6,-7,-1,7,-2,-4,-1,-44,-16,-12,-10,-12
-5,-7,-1,6,-1,-4,-1,-44,-16,-13,-10,-13
-4,-6,-1,5,-1,-4,-1,-44,-17,-13,-11,-13
-3,-6,-2,5,0,-4,-1,-45,-17,-14,-11,-13
-5,-6,0,6,-2,-3,-1,-45,-17,-14,-11,-12
-8,-5,3,7,-6,-1,0,-44,-16,-13,-10,-11
-8,-4,5,6,-7,0,0,-43,-16,-12,-9,-11
-7,-3,4,5,-6,0,0,-44,-16,-13,-9,-11
-6,-2,4,4,-5,0,0,-44,-17,-13,-9,-11
-5,0,5,3,-5,2,0,-44,-17,-13,-9,-11
-5,2,7,1,-5,5,0,-44,-16,-13,-9,-11
-4,3,7,1,-5,6,2,-43,-15,-13,-8,-10
-4,2,7,1,-5,5,3,-42,-14,-12,-7,-9
-4,3,7,0,-5,5,4,-42,-14,-11,-7,-8
-4,4,8,0,-6,6,4,-41,-14,-11,-6,-8
-4,5,9,0,-7,7,5,-40,-13,-10,-6,-8
-4,5,10,0,-7,8,6,-39,-12,-10,-5,-7
-6,5,12,0,-8,8,7,-38,-12,-9,-5,-6
-7,5,13,1,-9,9,8,-37,-11,-9,-4,-6
-6,6,12,0,-9,9,9,-37,-11,-9,-4,-5
-5,6,11,-1,-7,9,10,-38,-12,-9,-5,-6
-3,7,11,-2,-7,9,10,-38,-13,-10,-5,-6
-4,8,12,-2,-8,10,11,-38,-13,-9,-4,-5
-6,8,14,-1,-10,11,12,-38,-13,-9,-4,-5
-7,6,14,0,-11,10,12,-38,-12,-9,-4,-5
-8,4,12,2,-10,8,12,-38,-12,-9,-4,-5
-8,4,11,2,-9,7,12,-38,-12,-10,-4,-6
-8,4,12,1,-9,8,11,-39,-13,-11,-5,-6
-8,4,11,1,-9,8,11,-39,-14,-11,-5,-6
-7,3,10,1,-8,7,12,-39,-14,-11,-4,-6
-5,5,10,0,-7,8,11,-40,-15,-11,-3,-4
-3,8,11,-2,-7,10,9,-43,-15,-10,-1,-3
-1,9,11,-3,-6,10,7,-46,-15,-7,1,0
1,10,10,-5,-5,10,4,-49,-15,-4,5,3
2,12,11,-6,-4,11,0,-53,-15,0,9,7
2,14,11,-8,-4,12,-1,-55,-16,3,13,11
4,15,10,-9,-2,12,-2,-55,-16,6,17,15
7,16,8,-11,0,13,-2,-54,-18,7,21,19
12,17,5,-14,3,12,-2,-53,-20,8,24,24
18,18,0,-18,8,10,-4,-55,-22,10,29,29
24,20,-3,-21,14,8,-6,-59,-24,13,34,36
29,23,-6,-25,17,8,-7,-64,-27,15,39,43
34,24,-9,-28,21,7,-8,-72,-29,17,45,50
38,24,-14,-30,26,5,-9,-81,-31,20,51,58
43,27,-16,-34,30,5,-11,-95,-34,25,60,68
47,34,-13,-41,31,11,-18,-115,-36,32,70,80
52,44,-8,-48,31,18,-31,-142,-40,41,82,92
58,49,-8,-53,33,21,-46,-169,-46,50,93,102
66,47,-18,-56,42,15,-63,-194,-53,57,99,108
74,40,-34,-57,54,2,-79,-212,-60,61,102,111
81,27,-53,-54,68,-14,-92,-221,-64,61,99,109
83,10,-73,-46,78,-32,-100,-220,-65,56,91,103
78,-8,-86,-35,82,-47,-104,-214,-63,48,79,92
70,-23,-94,-23,82,-58,-105,-206,-58,38,64,78
61,-36,-98,-12,80,-66,-104,-193,-50,30,49,63
52,-46,-98,-3,76,-71,-101,-175,-37,26,37,49
46,-51,-97,3,72,-74,-96,-154,-23,24,26,36
41,-53,-94,7,68,-74,-90,-135,-8,23,17,24
36,-53,-89,9,62,-72,-83,-117,5,21,8,13
30,-53,-82,12,56,-68,-74,-101,17,18,0,3
22,-51,-73,14,48,-62,-64,-87,25,17,-5,-3
15,-46,-62,15,39,-54,-53,-77,29,16,-7,-6
9,-42,-51,16,31,-47,-44,-69,29,15,-9,-9
4,-38,-42,16,24,-40,-35,-62,26,13,-10,-12
1,-33,-34,16,18,-33,-26,-54,23,9,-12,-14
-2,-28,-26,16,12,-27,-18,-46,19,4,-14,-16
-6,-25,-19,16,7,-23,-10,-39,16,1,-15,-17
-8,-23,-14,16,3,-19,-4,-32,13,0,-15,-18
-11,-21,-10,16,0,-16,1,-25,12,-1,-15,-19
-12,-20,-7,16,-2,-14,4,-21,11,-2,-16,-19
-12,-20,-7,15,-2,-13,5,-18,11,-3,-17,-21
-12,-19,-6,15,-3,-12,6,-16,11,-4,-17,-22
-12,-19,-5,16,-3,-11,7,-13,12,-4,-18,-22
-12,-18,-5,16,-3,-11,8,-11,12,-5,-18,-23
-12,-17,-5,16,-3,-11,8,-9,13,-5,-18,-24
-12,-18,-6,16,-3,-12,8,-8,13,-5,-18,-24
-13,-19,-6,16,-3,-13,9,-6,14,-3,-17,-23
-14,-19,-5,16,-4,-13,10,-5,16,-2,-16,-22
-14,-19,-4,16,-5,-12,10,-5,17,-1,-15,-22
-15,-19,-4,17,-5,-12,10,-5,18,0,-15,-22
-14,-20,-5,17,-4,-13,10,-4,19,0,-15,-22
-12,-20,-8,17,-2,-14,11,-4,19,0,-15,-22
-11,-21,-10,17,0,-16,11,-3,19,0,-15,-22
-11,-22,-12,17,0,-17,12,-2,20,0,-14,-22
-11,-22,-11,17,0,-17,12,-1,21,1,-14,-22
-11,-21,-10,16,-1,-16,12,-1,21,1,-14,-23
-10,-21,-10,15,0,-15,12,-2,21,1,-14,-23
-9,-21,-11,15,1,-16,12,-2,21,1,-14,-24
-10,-21,-10,16,0,-15,13,-1,22,1,-14,-24
-13,-20,-7,17,-2,-13,15,0,23,2,-14,-23
-14,-20,-6,18,-3,-13,15,1,23,2,-14,-23
-14,-20,-6,17,-3,-13,15,1,23,2,-14,-24
-14,-20,-6,17,-4,-13,15,1,24,2,-14,-25
-13,-20,-7,17,-3,-14,15,1,24,2,-14,-25
-12,-20,-8,16,-2,-14,15,1,24,2,-14,-25
-12,-20,-8,16,-1,-14,16,2,24,2,-14,-25
-14,-20,-6,17,-3,-13,16,4,25,3,-14,-24
-15,-20,-5,18,-5,-13,17,7,26,3,-14,-24
-15,-21,-5,19,-5,-13,17,8,26,2,-14,-24
-15,-21,-6,18,-4,-14,17,9,26,2,-14,-24
-14,-20,-5,17,-4,-13,17,10,27,3,-14,-24
-14,-19,-4,17,-5,-12,17,10,28,3,-14,-24
-15,-20,-3,17,-5,-12,18,10,29,4,-13,-23
-16,-21,-3,18,-6,-12,19,11,30,4,-12,-22
-16,-20,-2,18,-6,-11,19,12,30,5,-12,-22
-15,-19,-3,17,-5,-11,20,13,30,4,-13,-22
-14,-18,-4,16,-5,-11,20,13,30,3,-13,-22
-13,-17,-3,16,-5,-10,20,14,30,3,-14,-22
-13,-16,-2,15,-5,-9,21,15,30,3,-14,-22
-14,-15,0,15,-6,-7,22,16,31,3,-13,-21
-15,-14,1,15,-7,-6,23,18,32,4,-13,-21
-16,-13,3,15,-9,-5,23,19,32,4,-13,-21
-17,-13,4,15,-10,-4,24,20,32,4,-13,-21
-16,-14,3,15,-10,-5,24,21,32,4,-13,-21
-16,-13,4,15,-10,-4,24,21,33,4,-13,-21
-16,-12,4,15,-10,-3,24,22,33,4,-13,-21
-16,-13,3,15,-10,-4,25,23,33,4,-12,-21
-17,-14,4,16,-10,-5,26,23,33,4,-12,-21
-17,-12,6,15,-11,-3,26,24,33,4,-12,-21
-18,-10,9,14,-13,0,27,25,33,4,-12,-21
-19,-8,11,14,-15,2,27,26,34,5,-12,-21
-20,-7,14,13,-16,4,28,26,35,5,-11,-20
-20,-5,16,13,-17,5,28,27,34,5,-11,-20
-19,-3,16,11,-17,7,29,28,34,5,-10,-19
-18,-1,17,9,-17,8,29,28,33,4,-10,-19
-18,0,18,9,-18,9,29,29,32,4,-10,-18
-18,2,20,8,-19,11,30,29,32,4,-9,-17
-17,4,22,7,-20,13,30,29,31,4,-8,-16
-16,6,23,5,-19,14,31,28,30,3,-7,-15
-15,8,24,4,-20,16,31,28,29,3,-6,-14
-16,9,26,4,-21,18,31,27,28,3,-5,-13
-17,10,29,4,-23,20,32,27,26,3,-4,-12
-18,12,31,3,-25,22,32,26,24,3,-3,-11
-18,14,33,2,-26,24,33,25,23,2,-2,-10
-17,18,35,0,-26,26,33,25,21,2,-2,-9
-16,20,36,-1,-26,28,33,24,19,2,-1,-8
-15,20,35,-2,-25,27,35,24,18,2,0,-6
-14,20,34,-3,-24,26,36,24,17,3,2,-5
-13,20,34,-4,-23,27,36,23,16,3,3,-3
-13,21,34,-4,-23,28,35,23,14,2,3,-2
-12,22,34,-5,-23,28,34,22,12,2,4,-1
-11,22,35,-5,-23,28,33,21,10,2,5,0
-11,23,35,-5,-23,29,31,20,8,2,6,0
-10,23,34,-5,-22,28,30,18,7,1,7,1
-8,23,31,-7,-19,27,28,17,5,1,8,3
-5,24,29,-9,-17,26,25,15,4,1,8,4
-5,25,30,-10,-17,27,23,14,3,1,9,5
-5,25,31,-10,-18,28,21,14,2,1,10,7
-5,25,31,-10,-17,28,19,13,1,1,11,8
-3,25,29,-10,-16,26,16,12,0,1,12,9
-2,24,27,-10,-15,25,14,11,-2,0,12,9
-2,25,26,-11,-14,25,11,9,-4,0,11,9
-1,26,26,-11,-14,26,9,8,-6,-1,11,9
0,26,25,-12,-12,25,7,6,-8,-2,10,9
1,24,23,-13,-10,24,5,4,-10,-3,9,8
2,22,21,-12,-9,22,3,3,-12,-4,8,8
1,21,20,-11,-9,21,2,2,-13,-5,8,8
1,20,19,-10,-8,19,1,1,-14,-6,7,7
2,19,17,-10,-7,18,0,0,-15,-6,7,7
2,17,16,-9,-7,16,0,0,-16,-6,7,7
1,16,15,-8,-7,15,-1,-1,-17,-7,6,6
0,14,14,-6,-7,14,-2,-2,-18,-7,6,6
0,13,14,-6,-7,14,-2,-2,-17,-7,5,6
0,12,13,-6,-6,13,-3,-3,-17,-8,5,6
2,12,11,-7,-4,11,-4,-3,-18,-8,4,5
4,11,8,-7,-1,9,-4,-4,-18,-8,3,4
5,9,5,-7,0,7,-5,-4,-18,-8,2,3
4,8,5,-6,0,6,-5,-5,-19,-9,1,2
2,6,5,-4,-1,5,-6,-6,-19,-9,1,1
1,4,3,-3,0,3,-6,-6,-19,-10,0,0
2,3,1,-2,1,2,-7,-6,-19,-10,0,0
3,2,0,-2,2,1,-7,-7,-19,-11,0,0
3,1,-2,-2,3,0,-7,-7,-20,-11,-1,-1
4,0,-4,-1,4,-2,-7,-8,-20,-11,-1,-1
5,-1,-5,-1,5,-3,-7,-8,-19,-11,-2,-1
5,-2,-6,-1,5,-4,-7,-8,-19,-11,-2,-2
4,-3,-7,0,5,-4,-8,-8,-19,-11,-2,-2
4,-3,-7,0,5,-4,-8,-9,-20,-12,-3,-3
3,-3,-6,0,5,-4,-9,-10,-20,-12,-4,-4
2,-3,-5,0,4,-3,-9,-10,-19,-12,-4,-5
2,-4,-5,1,4,-4,-8,-10,-19,-12,-4,-5
1,-5,-6,2,4,-5,-8,-10,-18,-11,-4,-5
1,-5,-6,2,4,-5,-9,-11,-18,-11,-4,-5
0,-4,-4,2,3,-4,-9,-12,-18,-11,-5,-6
0,-3,-2,2,1,-2,-10,-12,-18,-12,-6,-7
0,-3,-3,2,1,-3,-10,-13,-18,-11,-6,-7
1,-6,-7,2,4,-6,-9,-13,-17,-11,-6,-7
3,-7,-10,2,7,-8,-9,-13,-17,-11,-6,-7
2,-8,-10,2,6,-9,-9,-13,-17,-11,-6,-7
0,-7,-8,3,4,-8,-9,-13,-17,-11,-6,-7
0,-6,-6,3,3,-7,-10,-13,-17,-12,-6,-8
0,-6,-6,3,3,-7,-10,-14,-16,-12,-7,-8
0,-7,-7,3,4,-8,-9,-13,-15,-12,-6,-8
0,-8,-9,4,4,-9,-8,-12,-14,-11,-6,-7
0,-9,-9,5,4,-9,-7,-11,-13,-10,-5,-7
0,-8,-8,4,4,-8,-7,-11,-13,-10,-5,-7
0,-7,-7,4,4,-7,-6,-10,-13,-10,-6,-8
1,-7,-7,3,5,-7,-7,-11,-13,-11,-7,-8
0,-7,-7,3,5,-7,-7,-11,-14,-11,-7,-9
0,-7,-7,4,4,-7,-7,-11,-14,-11,-7,-9
0,-7,-6,3,3,-6,-7,-11,-14,-12,-8,-9
1,-7,-8,3,4,-7,-8,-11,-14,-12,-8,-10
3,-7,-10,2,6,-8,-8,-11,-14,-13,-9,-10
3,-8,-10,2,7,-8,-8,-10,-14,-13,-9,-10
1,-8,-9,4,5,-8,-6,-9,-14,-12,-8,-9
0,-10,-9,5,5,-9,-5,-8,-13,-11,-7,-9
0,-12,-10,6,5,-11,-5,-7,-12,-11,-6,-8
0,-12,-11,6,6,-12,-5,-7,-11,-11,-6,-8
0,-10,-10,4,5,-10,-5,-8,-12,-11,-7,-9
0,-8,-8,4,3,-8,-5,-8,-12,-12,-8,-10
-2,-8,-6,5,1,-7,-5,-7,-11,-11,-7,-9
-3,-10,-6,7,1,-7,-4,-6,-11,-10,-7,-9
-3,-10,-6,7,1,-7,-4,-6,-11,-11,-7,-9
-3,-8,-4,6,1,-6,-4,-6,-11,-11,-8,-10
-3,-6,-1,5,0,-4,-3,-6,-11,-12,-8,-10
-4,-6,0,5,-1,-3,-2,-5,-11,-11,-7,-10
-5,-7,-2,6,-1,-4,0,-4,-10,-10,-6,-9
-5,-7,-2,6,-1,-4,0,-3,-10,-10,-6,-8
-5,-6,-1,6,-2,-3,0,-3,-10,-10,-6,-8
-5,-5,0,5,-2,-2,0,-3,-10,-10,-6,-8
-4,-4,0,5,-2,-1,0,-3,-10,-10,-6,-8
-4,-3,1,4,-2,-1,0,-3,-10,-10,-7,-9
-4,-3,1,4,-3,0,-1,-4,-10,-11,-7,-9
-5,-3,2,5,-3,0,-1,-4,-11,-12,-8,-10
-6,-3,2,5,-4,0,0,-4,-11,-12,-8,-10
-6,-4,3,6,-5,0,0,-4,-11,-13,-9,-11
-7,-4,3,6,-5,0,1,-4,-12,-13,-9,-11
-8,-3,4,5,-6,1,1,-4,-13,-14,-10,-11
-8,-1,6,5,-7,3,2,-6,-16,-16,-11,-11
-7,0,8,4,-8,4,2,-9,-18,-16,-10,-10
-7,2,10,3,-8,6,2,-13,-19,-14,-7,-7
-7,3,11,2,-9,7,2,-16,-19,-12,-4,-4
-6,6,12,0,-9,9,1,-20,-19,-9,0,-1
-4,8,12,-2,-8,10,1,-23,-20,-6,3,3
-2,9,11,-4,-6,10,1,-24,-21,-3,7,7
1,11,10,-6,-4,10,2,-23,-22,-1,11,11
5,13,9,-9,-2,11,3,-21,-22,2,16,17
10,16,7,-13,2,12,4,-19,-21,6,22,24
16,20,5,-18,6,12,5,-18,-21,10,29,31
21,25,4,-23,9,14,7,-18,-20,13,35,38
26,29,3,-28,12,16,9,-20,-19,15,40,45
30,33,3,-32,13,18,9,-27,-21,16,44,51
33,39,5,-36,13,22,6,-40,-24,18,50,59
36,48,11,-42,12,30,0,-61,-28,23,59,69
41,58,16,-50,12,37,-10,-88,-33,32,71,81
49,65,15,-57,17,41,-23,-118,-40,40,82,92
58,65,7,-61,26,36,-38,-146,-49,47,89,100
65,58,-7,-61,36,25,-52,-168,-58,51,93,104
68,45,-23,-57,46,11,-64,-180,-63,50,91,102
67,28,-39,-47,52,-6,-71,-181,-66,42,80,94
60,8,-52,-34,56,-22,-75,-176,-66,30,65,80
52,-8,-60,-21,56,-34,-76,-165,-61,19,48,65
44,-21,-65,-11,54,-43,-74,-149,-53,12,33,49
38,-30,-67,-3,53,-49,-72,-128,-41,8,21,35
33,-37,-68,2,52,-52,-68,-107,-26,7,12,23
28,-39,-66,6,48,-53,-63,-86,-11,6,3,11
24,-38,-62,7,44,-50,-57,-67,2,5,-4,2
21,-36,-56,7,38,-46,-51,-53,11,5,-8,-4
17,-33,-49,8,32,-41,-45,-42,17,6,-10,-7
13,-29,-42,8,26,-35,-37,-33,20,7,-10,-9
9,-25,-34,8,21,-30,-30,-23,21,7,-11,-10
4,-23,-27,8,15,-24,-22,-14,20,5,-11,-12
0,-19,-19,9,10,-18,-16,-6,17,1,-13,-14
-3,-15,-11,8,5,-13,-11,0,14,-2,-14,-16
-5,-13,-7,9,2,-10,-6,6,13,-4,-15,-18
-5,-13,-7,9,1,-10,-2,12,13,-5,-16,-19
-4,-14,-9,9,2,-11,0,16,13,-5,-16,-19
-5,-14,-8,10,1,-11,2,18,14,-5,-16,-19
-7,-14,-5,10,-1,-9,3,20,15,-5,-16,-19
-8,-12,-3,10,-2,-7,3,20,15,-5,-17,-20
-7,-11,-3,9,-1,-7,3,21,15,-5,-17,-21
-7,-13,-5,10,0,-9,4,22,16,-4,-16,-21
-7,-14,-6,11,1,-11,6,23,16,-4,-16,-21
-7,-14,-6,11,0,-11,6,24,16,-4,-16,-21
-7,-14,-6,11,0,-11,7,24,16,-4,-16,-21
-7,-14,-7,10,0,-11,7,24,17,-4,-16,-21
-7,-15,-8,11,1,-12,8,25,18,-3,-16,-21
-5,-17,-11,11,3,-14,8,25,19,-2,-16,-22
-4,-18,-13,11,4,-15,7,25,19,-2,-17,-23
-6,-18,-11,12,3,-14,8,26,20,-1,-16,-23
-7,-18,-10,12,2,-13,9,27,21,0,-15,-22
-7,-17,-10,12,2,-13,9,28,21,0,-15,-23
-7,-18,-10,12,2,-14,9,28,21,-1,-15,-23
-7,-18,-10,12,1,-14,9,28,20,-1,-16,-24
-7,-17,-10,12,2,-14,9,28,20,-1,-16,-24
-6,-17,-11,11,3,-14,9,28,21,-1,-16,-24
-6,-17,-11,11,3,-14,9,28,21,-1,-16,-24
-6,-17,-10,12,2,-13,9,28,22,-1,-16,-24
-7,-17,-9,12,1,-13,10,28,22,-1,-16,-25
-7,-17,-9,13,1,-14,10,29,22,-1,-16,-25
-7,-17,-9,12,1,-14,11,29,22,-1,-16,-25
-6,-17,-10,12,2,-14,11,30,22,0,-16,-25
-7,-18,-10,13,1,-14,12,30,23,0,-16,-24
-9,-18,-9,14,0,-13,13,30,23,0,-16,-24
-10,-18,-8,14,-1,-12,13,30,23,0,-16,-25
-9,-19,-9,14,0,-13,14,30,24,0,-16,-25
-9,-20,-11,15,2,-15,14,31,24,0,-16,-26
-9,-21,-12,15,2,-16,15,32,25,0,-17,-26
-9,-20,-11,15,1,-16,15,32,26,0,-17,-26
-9,-19,-9,15,0,-15,16,33,26,0,-17,-26
-10,-19,-9,15,-1,-14,16,34,27,0,-17,-26
-10,-20,-9,15,-1,-15,17,34,27,1,-17,-26
-10,-21,-10,16,0,-16,18,35,28,1,-17,-27
-10,-21,-11,16,0,-16,19,36,28,1,-17,-27
-10,-21,-10,16,0,-15,20,36,28,1,-17,-27
-11,-21,-9,16,-1,-15,20,37,29,0,-17,-27
-11,-20,-8,16,-1,-14,20,37,29,0,-18,-27
-11,-19,-7,15,-2,-13,20,36,29,0,-18,-28
-12,-18,-6,15,-2,-12,21,36,29,-1,-18,-28
-13,-18,-5,16,-3,-11,23,37,29,-1,-18,-28
-13,-17,-4,16,-4,-10,24,37,29,-1,-18,-28
-14,-17,-3,16,-6,-9,24,38,29,-1,-19,-28
-15,-16,-1,16,-7,-7,25,38,29,-1,-19,-28
-16,-15,1,15,-8,-6,25,39,28,-2,-19,-28
-16,-14,3,15,-10,-5,25,39,28,-2,-19,-28
-17,-14,4,15,-11,-4,26,40,29,-1,-19,-28
-17,-13,5,15,-11,-3,27,41,29,-2,-19,-28
-15,-12,4,14,-10,-3,28,41,29,-2,-20,-28
-15,-12,4,14,-10,-3,29,41,29,-2,-20,-28
-16,-11,6,14,-11,-2,30,41,29,-2,-19,-27
-18,-8,10,13,-14,2,29,41,28,-3,-19,-27
-18,-5,14,12,-16,5,28,39,27,-4,-20,-27
-18,-4,15,11,-16,6,29,39,26,-4,-19,-26
-17,-3,14,10,-15,6,29,39,26,-4,-18,-25
-16,-2,14,9,-15,6,29,38,25,-5,-18,-25
-16,0,16,8,-16,7,28,36,23,-6,-17,-24
-16,2,19,7,-17,10,28,35,20,-7,-17,-24
-16,4,21,6,-18,13,27,33,18,-8,-17,-23
-15,5,21,5,-18,13,26,31,16,-8,-16,-22
-13,5,19,4,-16,13,26,30,15,-8,-14,-20
-12,6,19,3,-15,12,26,29,14,-8,-13,-19
-12,7,20,2,-16,14,25,27,11,-9,-12,-18
-12,9,22,1,-17,15,24,25,8,-10,-11,-16
-12,10,22,1,-17,16,24,24,5,-10,-9,-15
-12,11,24,1,-18,17,25,23,3,-10,-8,-13
-11,13,24,0,-18,18,25,22,2,-10,-7,-12
-9,15,24,-2,-17,19,24,20,0,-10,-6,-10
-9,16,25,-3,-17,20,24,19,0,-10,-5,-8
-9,18,27,-4,-17,22,24,18,-1,-9,-3,-6
-7,22,29,-7,-18,25,23,17,-2,-9,-2,-5
-6,25,31,-9,-18,27,23,15,-4,-10,-2,-3
-5,25,30,-9,-17,27,23,14,-5,-9,0,-2
-4,24,28,-9,-16,25,23,14,-6,-9,1,0
-3,24,27,-10,-15,25,22,13,-7,-9,1,0
-1,26,28,-11,-15,27,21,12,-9,-9,2,1
0,28,29,-13,-15,28,21,11,-10,-9,3,2
0,29,29,-14,-14,29,20,10,-10,-9,4,3
0,29,29,-14,-14,28,19,10,-11,-9,5,4
1,28,27,-15,-13,28,18,9,-11,-9,5,5
1,28,26,-14,-12,27,17,8,-12,-9,6,5
1,27,25,-14,-12,26,16,7,-13,-10,6,6
2,27,25,-14,-12,26,14,6,-15,-10,6,6
2,27,25,-14,-12,26,13,5,-16,-10,5,6
3,26,23,-14,-10,25,11,5,-17,-11,5,6
4,24,20,-14,-8,22,10,5,-17,-11,5,6
5,23,18,-14,-6,21,8,4,-17,-11,5,6
5,22,17,-14,-5,20,6,3,-18,-11,5,5
7,22,15,-15,-3,18,3,2,-18,-12,4,5
10,21,12,-16,0,16,0,1,-19,-12,3,5
9,20,11,-14,0,15,-2,1,-19,-12,4,5
7,18,11,-12,-2,14,-3,1,-19,-11,5,6
8,16,9,-11,0,12,-4,0,-19,-11,4,6
9,14,6,-11,2,10,-6,-1,-19,-11,3,5
9,13,4,-11,2,9,-6,-2,-19,-11,3,5
9,12,3,-11,3,8,-7,-2,-19,-11,2,4
9,11,2,-10,3,7,-7,-3,-19,-11,2,4
9,10,1,-10,4,6,-8,-3,-19,-12,1,3
11,9,0,-10,6,4,-9,-5,-20,-13,0,1
12,9,-2,-10,7,4,-10,-6,-21,-14,-1,0
10,9,0,-9,5,5,-10,-7,-22,-14,-2,-1
8,8,0,-8,4,5,-10,-7,-21,-14,-2,-1
7,6,-1,-7,5,2,-10,-8,-21,-13,-2,-1
7,4,-3,-6,5,1,-10,-8,-21,-13,-3,-1
8,4,-4,-6,6,0,-10,-8,-21,-13,-3,-1
8,3,-5,-5,6,-1,-10,-8,-21,-13,-3,-1
7,2,-4,-4,6,-2,-10,-8,-20,-13,-3,-1
8,1,-5,-4,6,-2,-10,-9,-20,-13,-3,-1
9,1,-6,-4,8,-2,-11,-9,-20,-13,-4,-2
10,1,-7,-5,9,-3,-11,-10,-20,-13,-4,-3
10,1,-8,-5,10,-3,-11,-10,-20,-13,-5,-4
10,1,-8,-5,10,-3,-11,-11,-20,-13,-5,-4
9,1,-8,-5,9,-3,-11,-10,-19,-13,-5,-4
8,1,-7,-5,8,-3,-11,-10,-19,-13,-5,-4
8,1,-7,-5,8,-3,-10,-9,-19,-13,-5,-4
7,0,-7,-4,8,-4,-10,-9,-18,-13,-5,-4
8,0,-8,-4,8,-4,-10,-8,-17,-13,-5,-4
9,0,-8,-4,9,-3,-10,-8,-17,-13,-5,-5
8,0,-8,-3,8,-4,-10,-8,-17,-13,-6,-5
8,-1,-9,-3,8,-5,-11,-9,-18,-14,-6,-6
8,-1,-10,-3,9,-5,-11,-9,-18,-14,-7,-7
7,-1,-10,-3,9,-6,-11,-9,-17,-14,-7,-7
7,-2,-10,-3,9,-6,-11,-9,-17,-13,-7,-7
8,-1,-9,-3,8,-5,-11,-9,-17,-14,-7,-7
9,0,-8,-4,9,-4,-11,-9,-18,-14,-8,-8
9,-1,-10,-4,10,-5,-11,-9,-17,-14,-8,-8
8,-2,-10,-2,10,-6,-10,-8,-16,-14,-7,-8
7,-3,-10,-1,9,-7,-9,-7,-15,-14,-7,-9
5,-4,-10,0,8,-7,-8,-7,-15,-14,-8,-9
5,-4,-9,0,7,-6,-9,-7,-16,-14,-8,-10
5,-4,-9,-1,7,-6,-9,-7,-16,-15,-9,-10
5,-4,-9,0,7,-7,-9,-7,-17,-15,-9,-11
5,-4,-9,0,7,-7,-9,-7,-17,-16,-10,-11
5,-4,-9,0,7,-6,-9,-8,-18,-17,-12,-13
5,-5,-9,0,7,-7,-8,-8,-19,-17,-12,-14
4,-7,-10,2,7,-9,-7,-7,-18,-17,-12,-14
4,-7,-11,2,7,-9,-7,-7,-17,-17,-12,-14
3,-7,-10,2,6,-9,-6,-7,-17,-17,-12,-15
1,-8,-9,3,5,-9,-5,-7,-17,-17,-12,-15
0,-8,-9,3,4,-9,-4,-7,-17,-18,-12,-15
0,-8,-8,3,4,-8,-4,-7,-18,-18,-13,-15
1,-6,-7,2,4,-7,-4,-7,-19,-19,-14,-16
1,-5,-6,2,3,-6,-4,-7,-20,-21,-15,-17
1,-5,-6,2,3,-6,-4,-7,-21,-22,-15,-17
1,-6,-7,3,4,-7,-3,-7,-21,-22,-15,-17
1,-7,-8,3,4,-7,-3,-8,-21,-22,-15,-17
0,-7,-8,3,4,-7,-3,-8,-21,-22,-15,-17
0,-8,-7,4,3,-7,-3,-9,-21,-22,-15,-17
-2,-8,-6,5,2,-7,-4,-10,-22,-22,-16,-17
-3,-8,-5,5,1,-6,-4,-10,-22,-23,-16,-17
-3,-8,-6,6,2,-7,-4,-11,-23,-24,-17,-18
0,-9,-8,5,4,-9,-4,-12,-24,-25,-18,-19
1,-10,-10,5,6,-10,-5,-14,-25,-26,-19,-20
-1,-9,-7,5,4,-8,-5,-14,-26,-27,-19,-20
-4,-9,-4,6,1,-7,-4,-14,-26,-27,-19,-20
-6,-9,-2,7,-1,-6,-4,-15,-26,-27,-19,-20
-7,-8,-1,7,-2,-5,-4,-15,-26,-28,-19,-20
-7,-8,-1,7,-2,-5,-4,-15,-27,-28,-19,-20
-6,-8,-1,7,-2,-5,-4,-15,-27,-28,-19,-20
-5,-7,-1,7,-2,-4,-3,-15,-28,-28,-19,-20
-4,-7,-2,6,-1,-4,-3,-15,-28,-28,-19,-20
-4,-6,-2,6,-1,-4,-2,-16,-28,-28,-19,-20
-4,-6,-1,5,-1,-4,-2,-16,-28,-29,-19,-20
-4,-6,-1,5,-1,-3,-2,-17,-29,-29,-20,-21
-4,-6,-3,4,0,-4,-2,-17,-29,-29,-20,-20
-3,-7,-5,4,1,-5,-1,-17,-29,-29,-19,-20
-3,-8,-6,5,2,-6,0,-17,-28,-28,-18,-19
-4,-8,-5,6,0,-6,1,-16,-27,-27,-17,-18
-4,-6,-2,5,-1,-3,1,-17,-27,-27,-17,-18
-4,-4,0,4,-2,-1,1,-17,-27,-28,-18,-18
-4,-3,1,3,-3,0,1,-17,-27,-28,-17,-18
-4,-2,2,3,-3,0,2,-18,-26,-27,-17,-18
-4,0,4,2,-4,2,2,-18,-26,-27,-17,-18
-4,1,6,2,-4,3,2,-18,-26,-27,-16,-17
-5,0,6,2,-5,3,3,-17,-26,-27,-15,-17
-5,1,7,2,-5,4,5,-16,-24,-25,-14,-15
-5,4,9,0,-6,7,6,-15,-22,-23,-12,-14
-4,8,12,-1,-8,10,7,-14,-21,-21,-11,-13
-3,12,14,-4,-9,13,7,-14,-21,-20,-11,-13
-2,14,15,-6,-8,14,8,-13,-19,-19,-11,-12
-1,13,13,-6,-7,13,9,-11,-17,-18,-9,-10
-1,12,12,-5,-7,12,10,-10,-16,-18,-8,-9
0,12,12,-5,-6,11,10,-10,-16,-18,-8,-9
0,11,12,-5,-6,12,10,-10,-16,-18,-8,-9
-1,11,12,-4,-6,12,9,-10,-17,-18,-8,-9
-1,11,12,-4,-6,12,8,-12,-17,-18,-7,-9
-1,12,13,-5,-7,13,6,-14,-18,-17,-6,-7
0,15,15,-7,-7,15,3,-17,-18,-15,-3,-4
1,17,15,-9,-7,16,0,-20,-17,-12,1,0
5,20,14,-12,-5,17,-4,-25,-18,-9,4,2
8,23,14,-15,-3,18,-9,-30,-21,-8,7,5
11,25,14,-18,-1,19,-14,-35,-23,-6,9,8
14,25,12,-19,1,18,-16,-37,-26,-5,12,11
17,24,7,-20,5,15,-17,-37,-28,-5,14,15
21,23,3,-22,10,13,-18,-35,-31,-4,17,19
27,24,-2,-26,15,11,-19,-33,-33,-4,20,23
33,25,-8,-29,21,9,-20,-33,-35,-4,24,28
40,26,-14,-33,27,6,-20,-35,-37,-3,28,34
48,28,-19,-37,33,4,-21,-40,-40,-2,32,40
55,31,-23,-42,39,3,-23,-48,-43,-1,37,47
60,32,-27,-45,43,2,-23,-58,-44,3,45,56
61,35,-26,-48,44,4,-24,-71,-42,12,56,68
64,41,-23,-52,44,8,-29,-89,-42,22,67,80
71,44,-27,-57,49,8,-39,-112,-46,29,75,87
79,42,-38,-61,59,2,-50,-135,-53,32,78,90
89,34,-56,-61,73,-11,-62,-156,-62,29,75,89
97,21,-76,-58,86,-28,-73,-171,-70,22,67,83
95,5,-89,-50,92,-42,-79,-178,-74,13,55,73
85,-8,-93,-38,89,-51,-82,-177,-72,5,42,62
74,-20,-93,-26,84,-57,-83,-171,-69,-2,30,50
63,-31,-94,-16,79,-63,-83,-160,-63,-6,19,37
54,-41,-96,-6,75,-68,-81,-146,-53,-7,10,25
46,-49,-96,2,71,-72,-78,-129,-41,-8,1,14
38,-54,-93,8,66,-73,-74,-110,-29,-10,-8,1
31,-55,-87,12,59,-71,-69,-94,-18,-13,-18,-10
27,-53,-79,13,53,-66,-64,-82,-10,-15,-25,-19
23,-48,-71,13,47,-60,-60,-72,-3,-13,-27,-23
19,-43,-62,12,41,-53,-54,-64,3,-10,-26,-24
15,-37,-51,11,33,-44,-47,-57,7,-6,-23,-23
10,-31,-41,11,26,-36,-39,-51,9,-4,-21,-23
5,-27,-33,11,20,-30,-30,-44,9,-3,-19,-22
2,-24,-27,10,15,-25,-22,-37,8,-4,-18,-22
0,-20,-21,9,11,-20,-14,-29,7,-5,-18,-23
0,-16,-16,8,8,-16,-8,-21,7,-6,-17,-23
-1,-13,-12,7,5,-13,-2,-13,7,-7,-17,-23
-2,-12,-9,7,3,-11,1,-6,7,-7,-17,-23
-4,-13,-8,9,2,-11,4,0,8,-7,-17,-23
-6,-14,-7,10,1,-10,6,3,9,-6,-16,-23
-6,-13,-6,10,0,-9,8,6,10,-6,-16,-24
-6,-13,-6,10,0,-9,9,7,11,-6,-16,-24
-7,-13,-6,10,0,-9,9,8,11,-5,-16,-24
-7,-12,-6,9,0,-9,9,9,12,-5,-16,-24
-6,-12,-6,9,0,-9,9,10,12,-5,-16,-24
-6,-12,-6,9,0,-9,9,11,13,-4,-15,-24
-6,-12,-6,9,0,-9,10,11,14,-3,-15,-24
-6,-12,-6,9,0,-9,10,11,14,-2,-15,-24
-5,-12,-7,9,0,-9,10,11,16,-2,-15,-24
-5,-12,-7,9,1,-9,10,11,17,-1,-15,-24
-6,-12,-7,9,0,-9,12,12,18,0,-14,-24
-7,-12,-6,9,0,-9,13,12,18,0,-14,-24
-7,-14,-6,10,0,-10,14,12,18,0,-13,-24
-8,-15,-7,11,0,-11,15,12,19,1,-13,-24
-7,-15,-8,11,0,-11,15,12,19,1,-13,-24
-7,-15,-8,11,0,-11,15,11,19,1,-14,-25
-7,-16,-9,11,1,-12,16,11,20,1,-14,-25
-7,-17,-10,12,2,-13,16,11,20,1,-14,-26
-7,-18,-11,12,2,-14,16,11,21,1,-14,-26
-6,-18,-11,12,2,-14,16,11,21,1,-14,-27
-5,-17,-12,11,3,-15,15,11,21,2,-14,-27
-4,-17,-12,11,4,-15,15,11,21,2,-14,-27
-6,-17,-10,11,2,-13,15,12,22,3,-14,-26
-8,-17,-8,12,0,-12,16,13,22,3,-14,-26
-7,-16,-7,12,0,-12,15,14,23,3,-14,-26
-7,-13,-5,10,-1,-10,14,14,23,2,-15,-27
-8,-12,-3,10,-2,-8,13,14,23,2,-15,-27
-9,-13,-4,11,-2,-9,14,14,23,3,-15,-27
-8,-15,-6,11,0,-11,14,14,24,3,-15,-26
-8,-15,-7,11,0,-11,15,14,24,3,-15,-27
-9,-15,-7,11,0,-11,15,15,24,3,-16,-27
-9,-15,-6,11,-1,-10,16,16,25,3,-15,-26
-9,-16,-6,12,-2,-11,17,17,25,4,-15,-26
-9,-15,-6,12,-2,-10,17,17,26,4,-15,-25
-9,-15,-6,12,-2,-10,18,17,26,4,-15,-25
-9,-16,-6,12,-1,-11,18,17,27,4,-15,-25
-9,-14,-5,11,-2,-9,19,17,27,4,-15,-25
-9,-12,-2,10,-3,-7,19,17,27,3,-16,-26
-10,-12,-2,10,-3,-7,20,18,27,3,-16,-27
-10,-14,-3,11,-3,-9,21,19,27,3,-16,-27
-10,-15,-3,12,-3,-10,22,20,28,4,-16,-27
-11,-14,-2,12,-4,-9,22,20,28,4,-16,-26
-12,-13,0,12,-5,-7,22,21,27,4,-16,-26
-13,-12,0,13,-6,-7,22,21,27,4,-15,-26
-13,-13,0,13,-6,-7,22,21,27,4,-15,-25
-12,-13,-1,12,-4,-7,21,21,27,3,-15,-26
-11,-12,-1,11,-4,-7,22,21,28,3,-15,-26
-14,-12,2,13,-7,-5,23,23,29,4,-14,-24
-16,-12,4,14,-10,-4,24,24,30,5,-13,-23
-16,-11,6,13,-11,-2,24,25,31,5,-13,-23
-16,-9,7,12,-12,-1,24,25,31,6,-12,-22
-15,-7,8,11,-12,0,25,26,32,7,-10,-20
-15,-5,9,10,-13,2,25,26,32,8,-8,-19
-15,-2,12,8,-14,5,26,27,33,9,-6,-17
-14,1,14,6,-14,8,26,27,33,10,-5,-15
-12,3,16,4,-14,10,26,27,33,11,-3,-14
-11,6,17,2,-14,12,26,27,33,12,-2,-12
-10,9,20,1,-15,15,26,27,33,13,0,-10
-10,12,23,0,-17,17,26,27,33,14,1,-8
-9,13,23,-1,-17,18,26,27,32,15,3,-6
-9,14,23,-2,-16,18,27,27,32,16,5,-4
-9,15,23,-2,-16,19,27,27,32,17,7,-2
-9,17,25,-3,-16,21,28,27,31,17,8,0
-8,19,26,-5,-17,23,29,27,31,18,10,1
-7,21,28,-7,-17,25,29,27,29,18,11,3
-5,24,29,-9,-17,27,29,26,28,17,11,4
-4,27,31,-12,-17,29,28,25,26,17,11,4
-2,29,31,-13,-17,30,27,24,24,16,12,5
-2,30,32,-14,-18,31,27,24,23,17,13,6
-3,31,34,-14,-19,33,27,23,22,17,15,8
-3,32,35,-14,-19,34,27,22,20,17,17,10
-3,33,36,-15,-19,35,27,21,19,17,18,11
-2,34,37,-16,-19,35,27,20,18,17,19,13
0,35,36,-17,-17,35,26,19,16,16,19,13
2,35,34,-19,-16,35,25,18,14,15,20,14
4,36,32,-20,-14,34,23,17,11,15,20,14
5,36,30,-20,-12,33,21,16,9,14,20,15
4,35,30,-20,-13,32,19,15,9,14,20,16
4,35,30,-19,-13,32,17,14,8,14,21,17
5,35,29,-20,-11,32,15,13,6,13,20,17
6,35,28,-21,-10,32,13,11,4,12,19,16
7,35,28,-21,-9,31,11,9,3,11,18,16
8,33,26,-21,-9,30,9,8,2,10,18,15
8,32,25,-20,-8,29,7,7,0,10,17,15
8,32,24,-20,-8,28,6,5,-1,9,16,14
8,32,23,-20,-8,28,4,4,-2,8,15,13
8,31,21,-20,-6,26,3,2,-4,7,14,12
9,30,20,-19,-5,25,1,1,-5,5,12,12
8,29,21,-19,-6,25,0,0,-7,3,11,11
7,28,21,-18,-6,25,-2,-1,-8,2,10,11
8,26,18,-17,-5,22,-3,-2,-8,1,9,10
8,23,15,-16,-4,19,-4,-3,-9,1,9,10
7,22,15,-14,-4,18,-3,-3,-9,1,9,10
7,23,15,-15,-4,19,-4,-4,-11,1,9,10
8,24,15,-16,-3,19,-4,-5,-12,0,9,10
9,22,12,-15,-1,17,-4,-6,-11,1,10,10
8,18,10,-13,0,14,-3,-6,-11,1,10,10
7,16,9,-12,0,13,-3,-7,-11,1,9,9
7,17,10,-12,-1,14,-5,-8,-12,0,8,8
7,18,11,-13,-1,14,-6,-9,-13,0,7,7
7,14,8,-11,0,11,-6,-8,-11,0,7,8
7,12,4,-10,1,8,-6,-8,-10,1,7,8
7,12,3,-10,2,8,-7,-9,-11,0,6,7
7,12,3,-11,2,8,-7,-10,-11,0,5,6
7,12,3,-11,2,8,-8,-12,-12,-1,4,4
7,12,4,-10,2,8,-9,-13,-13,-3,2,2
8,10,2,-10,3,6,-9,-14,-14,-5,0,0
10,8,-1,-9,5,4,-8,-15,-14,-5,0,0
9,6,-2,-8,5,2,-8,-15,-13,-5,0,0
6,6,0,-6,3,3,-7,-15,-12,-5,0,0
4,6,1,-5,1,4,-8,-16,-12,-5,-1,-2
5,7,1,-6,2,4,-9,-17,-13,-6,-3,-3
5,7,1,-6,2,4,-10,-18,-13,-6,-3,-4
4,7,2,-6,1,4,-9,-18,-13,-6,-3,-5
4,6,2,-5,1,4,-9,-18,-12,-5,-3,-5
4,6,2,-5,1,4,-9,-18,-12,-5,-2,-5
4,6,2,-5,1,4,-9,-19,-12,-5,-2,-5
4,5,1,-4,1,3,-8,-19,-12,-5,-2,-4
4,5,1,-4,2,3,-7,-19,-12,-4,-1,-4
4,5,0,-4,2,2,-7,-19,-11,-4,-1,-3
3,4,0,-4,1,2,-6,-19,-11,-3,0,-2
2,3,1,-3,0,2,-5,-18,-10,-3,0,-2
0,2,1,-2,0,2,-4,-18,-10,-3,0,-2
0,1,0,-1,1,1,-4,-18,-10,-3,0,-2
1,0,-1,-1,2,0,-5,-19,-11,-4,-1,-3
1,0,-1,-1,1,0,-6,-19,-12,-4,-2,-4
1,1,0,-1,0,1,-7,-19,-12,-5,-3,-5
2,1,-1,-2,1,0,-8,-19,-13,-5,-3,-6
3,-1,-3,-1,2,-2,-8,-19,-13,-5,-3,-6
1,-2,-3,0,2,-2,-8,-18,-12,-5,-3,-6
0,-2,-3,1,2,-2,-8,-18,-12,-6,-4,-6
1,-3,-4,1,3,-3,-8,-17,-12,-7,-5,-7
1,-3,-5,1,3,-4,-8,-17,-12,-7,-5,-7
0,-3,-4,1,3,-3,-7,-17,-12,-7,-6,-7
0,-3,-3,1,2,-3,-7,-18,-12,-7,-7,-8
0,-3,-3,1,1,-3,-6,-18,-12,-8,-7,-9
0,-3,-2,1,1,-2,-6,-19,-12,-8,-8,-9
0,-2,-2,0,1,-2,-6,-19,-12,-8,-8,-10
0,-2,-2,0,1,-1,-5,-19,-12,-8,-8,-10
1,-2,-2,0,1,-1,-5,-19,-12,-8,-8,-10
2,-1,-3,-1,3,-1,-5,-19,-13,-9,-8,-10
3,-1,-4,-1,3,-1,-5,-19,-13,-8,-8,-10
1,-1,-3,-1,2,-1,-5,-19,-12,-7,-7,-9
0,-2,-2,0,2,-1,-5,-18,-11,-6,-6,-8
1,-2,-3,0,2,-2,-5,-18,-10,-6,-5,-7
1,-2,-3,0,2,-3,-6,-19,-10,-6,-5,-7
1,-2,-3,0,2,-3,-6,-19,-10,-6,-5,-7
0,-3,-3,1,2,-3,-5,-18,-10,-6,-5,-7
0,-3,-3,1,2,-3,-3,-18,-9,-5,-5,-7
0,-3,-2,1,1,-2,-2,-17,-8,-5,-5,-7
-1,-1,0,0,0,0,-2,-16,-7,-6,-5,-7
-1,0,1,0,-1,1,-1,-15,-6,-6,-5,-7
-1,-1,0,0,-1,0,0,-14,-6,-7,-6,-7
-1,-2,0,1,0,-1,1,-13,-6,-7,-6,-7
-2,-3,0,2,0,-1,1,-13,-8,-8,-7,-8
-2,-1,1,1,-1,0,0,-17,-10,-8,-7,-8
-2,2,5,0,-3,4,-1,-21,-11,-8,-6,-7
-2,5,7,-2,-4,6,-1,-23,-10,-5,-3,-5
-1,7,9,-3,-4,8,0,-25,-9,0,2,0
0,11,10,-6,-4,10,-1,-28,-9,4,7,4
3,15,11,-10,-3,13,-1,-29,-9,8,12,10
8,18,9,-13,0,13,0,-28,-9,12,18,15
12,19,7,-16,2,13,2,-25,-8,16,24,22
16,22,5,-19,6,13,3,-23,-7,20,31,29
24,26,1,-26,12,14,3,-22,-6,23,37,36
31,30,-1,-31,17,15,4,-22,-6,26,43,43
33,32,-1,-34,18,16,6,-23,-3,30,50,51
35,35,0,-36,18,17,9,-25,-1,34,56,59
40,40,0,-41,20,20,9,-33,-2,37,62,67
45,47,2,-47,21,24,6,-49,-4,42,70,76
50,55,5,-53,22,30,-2,-73,-7,50,82,89
56,63,6,-60,24,35,-16,-103,-13,59,94,101
65,66,0,-65,32,34,-32,-132,-22,66,102,109
75,60,-14,-67,44,23,-48,-157,-30,72,107,115
81,49,-31,-65,56,9,-60,-174,-36,75,108,116
80,34,-45,-58,63,-5,-68,-181,-40,70,101,111
75,18,-57,-47,66,-19,-73,-180,-43,59,86,98
66,2,-64,-35,65,-31,-75,-175,-41,46,68,81
56,-10,-66,-24,61,-38,-74,-165,-36,36,51,64
49,-19,-69,-15,58,-44,-72,-151,-27,28,36,48
44,-26,-71,-9,57,-48,-70,-136,-16,24,24,34
37,-30,-68,-3,52,-48,-64,-118,-3,22,14,22
29,-31,-61,1,45,-46,-58,-99,10,20,5,11
24,-30,-54,2,40,-42,-53,-83,19,19,-1,3
21,-27,-48,2,35,-37,-47,-70,24,19,-4,-2
18,-23,-41,1,30,-32,-40,-59,27,19,-5,-4
14,-18,-33,2,23,-25,-32,-49,28,19,-5,-6
9,-15,-26,3,17,-20,-23,-39,27,17,-6,-7
5,-13,-19,3,11,-15,-16,-30,25,13,-7,-8
3,-10,-13,3,8,-11,-9,-22,24,10,-8,-9
1,-7,-8,2,5,-8,-3,-15,23,8,-8,-9
-1,-6,-4,2,2,-5,1,-10,22,7,-9,-10
-3,-4,0,3,0,-2,3,-6,21,5,-10,-12
-5,-3,1,3,-2,-1,3,-4,20,4,-11,-13
-6,-4,2,4,-3,-1,4,-3,20,4,-11,-13
-7,-5,1,6,-4,-2,6,-1,21,5,-11,-13
-7,-5,1,6,-5,-1,6,-1,21,5,-11,-13
-8,-5,2,6,-6,0,6,-1,21,6,-11,-14
-8,-5,3,6,-6,0,7,0,21,6,-12,-15
-8,-5,3,6,-6,0,7,1,22,6,-12,-15
-7,-5,2,6,-5,-1,7,2,22,7,-11,-15
-7,-5,3,5,-5,-1,7,2,23,7,-11,-15
-8,-4,4,5,-6,0,7,2,23,7,-11,-15
-8,-4,4,6,-7,0,7,1,23,8,-11,-16
-8,-5,3,6,-6,0,7,2,24,8,-11,-16
-7,-5,2,6,-5,-1,7,2,25,8,-11,-16
-7,-4,2,5,-5,0,7,3,25,8,-11,-16
-7,-3,3,5,-5,0,7,3,26,8,-11,-17
-6,-2,5,4,-5,1,6,3,25,7,-11,-17
-6,-2,5,4,-5,1,6,3,25,8,-11,-18
-7,-4,4,6,-6,0,7,4,27,9,-10,-17
-8,-5,4,7,-6,-1,8,5,28,10,-9,-16
-8,-5,3,6,-5,-1,9,6,28,11,-9,-16
-8,-5,3,6,-6,-1,10,6,28,11,-8,-16
-8,-5,3,7,-6,-1,10,7,28,11,-8,-15
-8,-6,2,7,-5,-2,10,7,28,11,-8,-15
-7,-6,1,7,-4,-3,10,7,29,11,-9,-16
-8,-6,1,7,-4,-2,11,8,29,11,-9,-16
-9,-6,3,7,-6,-1,11,8,29,11,-9,-16
-9,-4,5,6,-8,0,11,8,29,11,-9,-16
-9,-3,6,5,-8,1,11,9,30,11,-9,-17
-9,-3,7,5,-8,2,12,9,32,12,-9,-17
-9,-3,7,5,-8,2,12,10,33,12,-9,-17
-9,-3,7,5,-8,2,13,10,34,13,-9,-18
-9,-3,6,5,-8,2,14,11,35,13,-9,-18
-9,-4,6,6,-8,1,15,13,36,14,-8,-17
-9,-4,5,6,-7,1,16,14,36,14,-8,-17
-8,-4,5,6,-7,1,16,14,37,14,-9,-18
-9,-3,6,6,-7,1,17,14,37,14,-9,-18
-10,-4,6,7,-8,1,18,14,37,14,-9,-17
-11,-3,8,7,-10,2,19,15,38,14,-8,-16
-12,-2,10,7,-12,4,19,15,37,13,-9,-17
-13,-2,11,7,-12,4,19,15,37,13,-9,-16
-13,-5,8,8,-11,2,19,16,38,14,-8,-16
-11,-6,5,8,-8,0,19,17,38,14,-8,-16
-10,-6,4,8,-8,0,19,18,39,14,-9,-16
-12,-6,6,9,-9,0,20,19,40,14,-9,-17
-14,-7,7,10,-11,0,22,21,40,14,-9,-17
-14,-7,8,10,-11,1,23,22,40,14,-10,-18
-13,-6,8,9,-10,1,23,22,39,13,-11,-19
-10,-6,5,8,-7,0,23,23,38,11,-12,-20
-9,-8,2,8,-5,-3,23,24,39,11,-12,-20
-11,-9,3,10,-7,-3,24,25,40,13,-11,-18
-14,-8,7,11,-11,0,25,26,41,14,-10,-17
-15,-5,11,10,-13,2,25,27,41,14,-9,-17
-15,-4,12,9,-14,3,25,27,41,14,-9,-16
-15,-3,12,9,-14,4,26,28,41,13,-8,-16
-15,-2,13,8,-14,5,26,28,41,13,-8,-15
-15,0,15,7,-15,7,26,29,40,13,-7,-14
-15,1,17,6,-15,9,26,30,40,13,-6,-13
-15,3,18,5,-16,11,27,30,39,13,-6,-12
-16,4,20,5,-17,12,27,31,38,13,-5,-10
-16,4,20,5,-18,13,26,31,37,13,-4,-9
-15,5,20,4,-18,13,26,30,35,13,-3,-7
-14,6,21,3,-17,14,25,30,34,13,-2,-6
-13,8,22,2,-17,16,24,29,32,12,-1,-4
-13,11,23,0,-17,18,23,28,29,11,0,-3
-12,12,24,0,-17,19,21,28,27,10,1,-1
-11,13,23,0,-17,18,21,28,26,10,2,0
-10,14,23,-1,-16,18,20,28,24,10,3,1
-7,16,23,-4,-16,20,19,28,22,9,4,2
-6,20,25,-7,-16,23,19,28,20,9,5,4
-6,21,27,-8,-17,24,19,29,18,9,7,6
-6,20,26,-8,-17,24,21,31,17,10,9,9
-5,21,26,-9,-15,24,21,33,16,10,11,11
-4,23,26,-9,-15,25,21,35,13,10,12,12
-4,24,27,-10,-15,25,20,38,11,9,12,13
-3,25,28,-10,-15,26,19,41,9,8,13,14
-3,26,29,-11,-16,27,18,44,7,8,13,15
-2,26,28,-12,-15,27,17,47,6,7,14,16
0,27,27,-14,-14,27,16,50,4,7,14,17
1,28,27,-15,-13,28,14,52,3,6,14,17
2,28,26,-16,-12,28,13,55,1,6,15,18
3,29,26,-16,-11,28,13,57,0,6,16,20
3,30,26,-17,-11,28,13,59,-1,5,16,21
3,30,26,-17,-11,28,13,59,-2,5,16,21
4,30,26,-17,-11,28,13,59,-4,4,16,21
5,29,24,-17,-10,27,14,59,-5,4,16,21
5,28,23,-17,-10,26,14,60,-5,4,16,21
5,27,22,-16,-9,25,14,61,-6,4,16,20
4,26,21,-16,-9,24,14,61,-7,3,15,20
4,25,21,-15,-8,24,14,62,-7,3,15,20
4,26,21,-15,-8,24,14,62,-8,2,14,20
4,26,22,-15,-8,24,14,61,-8,2,14,19
4,25,20,-15,-8,23,13,61,-9,1,13,19
4,23,19,-14,-7,21,13,60,-9,1,13,18
4,21,17,-13,-6,19,12,59,-9,1,12,18
7,19,11,-14,-2,15,11,58,-10,0,12,17
10,17,7,-14,2,12,10,57,-11,0,11,17
9,16,7,-13,1,12,10,57,-10,1,11,17
6,15,9,-11,-1,12,10,58,-8,2,11,17
4,15,10,-9,-3,13,9,58,-8,3,12,17
5,15,10,-9,-3,12,7,57,-8,3,12,17
6,14,8,-10,-2,11,5,56,-9,2,11,17
5,12,7,-9,-1,10,4,55,-9,2,11,17
4,11,7,-7,-2,10,2,54,-9,3,11,17
3,10,7,-6,-2,9,0,53,-9,3,11,16
2,9,7,-6,-2,9,-1,52,-9,3,10,16
1,10,8,-6,-3,10,-3,50,-9,2,10,15
2,12,9,-7,-3,11,-5,48,-10,2,9,14
2,11,9,-7,-3,10,-7,46,-10,1,9,13
3,9,6,-6,-2,7,-8,45,-10,1,8,12
4,7,3,-5,0,5,-8,44,-10,1,8,12
5,6,2,-6,1,4,-9,43,-11,0,7,11
6,6,1,-6,2,4,-9,42,-11,0,6,10
3,6,4,-5,0,5,-8,42,-10,1,6,11
1,6,6,-4,-1,6,-8,42,-8,2,7,11
2,6,5,-4,-1,6,-8,42,-8,2,6,11
2,6,4,-4,0,5,-9,41,-9,1,5,10
2,5,4,-3,-1,4,-9,41,-9,0,4,8
1,5,4,-2,-2,4,-8,40,-10,0,4,7
0,4,4,-2,-3,4,-8,40,-10,0,3,7
0,4,4,-2,-3,4,-7,40,-11,0,3,6
0,3,4,-1,-3,4,-7,39,-11,0,2,6
-1,4,5,-1,-3,5,-7,39,-12,-1,1,5
-1,4,5,-1,-3,5,-7,38,-11,-1,1,4
-1,4,5,-1,-3,5,-7,38,-11,-1,0,4
-1,4,5,-1,-3,5,-8,37,-11,-2,0,3
-2,4,6,-1,-4,5,-8,36,-12,-2,0,3
-2,5,7,-1,-5,7,-9,35,-12,-3,-1,3
-2,5,7,-1,-5,7,-9,35,-12,-2,-1,3
-2,3,5,0,-4,4,-8,36,-11,-2,0,3
-1,1,3,0,-3,2,-8,36,-10,-2,0,3
-1,0,2,0,-2,1,-8,36,-10,-2,0,3
-1,0,2,0,-2,0,-8,36,-10,-2,0,4
-1,1,2,0,-2,1,-8,36,-11,-2,0,3
-1,2,3,0,-2,2,-9,35,-11,-3,-1,3
-2,2,4,0,-3,3,-9,35,-11,-3,-1,2
-3,1,4,1,-4,3,-8,35,-11,-3,-1,2
-4,1,5,1,-4,3,-8,35,-12,-4,-2,2
-4,1,5,1,-5,3,-8,34,-12,-4,-3,0
-4,2,6,0,-5,4,-8,34,-13,-5,-4,0
-4,2,6,0,-5,4,-8,34,-13,-5,-5,-1
-4,1,5,0,-4,3,-8,34,-14,-5,-5,-1
-4,0,3,2,-3,1,-8,34,-14,-5,-5,-1
-3,-2,1,2,-2,0,-8,34,-14,-6,-5,-1
-2,-2,0,2,-1,-1,-8,33,-14,-6,-5,-1
-3,-3,0,3,-1,-2,-7,33,-14,-6,-4,-1
-6,-4,2,4,-3,-1,-6,33,-13,-6,-4,0
-6,-4,2,5,-4,-1,-6,33,-14,-6,-4,0
-5,-5,0,4,-2,-3,-6,32,-14,-7,-5,-1
-4,-5,0,4,-2,-3,-6,31,-15,-8,-6,-1
-4,-4,1,4,-3,-1,-6,31,-16,-9,-7,-2
-4,-3,2,4,-4,0,-6,31,-16,-10,-7,-2
-4,-4,0,4,-3,-1,-5,31,-16,-10,-7,-2
-4,-5,0,4,-2,-2,-4,32,-15,-10,-7,-2
-5,-6,0,5,-2,-3,-4,32,-15,-10,-7,-2
-6,-6,0,5,-3,-3,-3,32,-15,-9,-7,-2
-6,-6,0,5,-3,-3,-3,33,-15,-9,-7,-2
-6,-6,0,5,-3,-3,-2,33,-15,-9,-7,-1
-6,-5,0,6,-3,-2,-2,33,-15,-9,-7,-1
-6,-4,1,6,-4,-1,-2,33,-15,-9,-7,-1
-6,-4,1,6,-4,-1,-2,33,-14,-8,-6,0
-5,-5,1,6,-4,-1,-2,33,-14,-8,-5,0
-5,-4,0,5,-3,-1,-2,33,-15,-9,-5,0
-3,-3,0,3,-3,-1,-3,32,-15,-9,-5,0
-2,-2,1,2,-2,0,-3,32,-15,-9,-5,0
-2,-1,1,2,-2,0,-3,33,-16,-9,-5,1
-3,-2,2,3,-3,0,-2,33,-16,-9,-5,1
-4,-3,1,4,-3,-1,-2,34,-15,-9,-5,1
-5,-4,1,5,-3,-1,-2,34,-15,-10,-5,1
-6,-3,2,5,-4,0,-2,33,-16,-11,-6,0
-5,-3,2,4,-4,0,-3,32,-18,-12,-7,-1
-2,-3,0,3,-1,-1,-4,31,-18,-12,-8,-1
-1,-4,-2,3,0,-2,-4,31,-17,-12,-8,-1
-4,-3,0,4,-2,-1,-3,32,-16,-11,-7,0
-5,-2,2,4,-4,0,-2,33,-15,-10,-6,1
-4,-1,2,3,-4,1,-2,33,-14,-9,-5,1
-3,-1,1,2,-2,0,-1,35,-13,-8,-4,2
-2,-1,0,2,-1,0,0,36,-13,-7,-3,2
-1,-1,1,2,-1,0,0,37,-12,-7,-3,3
-1,0,1,1,-1,0,1,37,-12,-6,-2,3
0,1,1,0,-1,1,1,37,-12,-6,-2,3
0,1,1,-1,-1,1,1,37,-12,-6,-2,3
0,0,0,-1,0,0,1,38,-11,-6,-2,3
0,-1,-1,0,0,-1,2,38,-10,-5,-2,3
1,-1,-2,0,1,-1,2,39,-10,-5,-2,3
1,-1,-2,0,1,-1,3,39,-10,-4,-2,3
1,0,0,0,0,0,3,39,-9,-4,-1,3
0,1,1,0,-1,1,4,39,-9,-4,-2,3
0,2,2,-1,-2,2,4,39,-10,-5,-2,3
-1,3,3,-1,-3,3,3,37,-11,-6,-2,3
-1,6,5,-2,-3,5,2,35,-12,-6,-1,4
0,9,8,-4,-4,9,1,32,-13,-4,0,6
0,13,12,-6,-5,12,0,29,-12,0,4,9
2,16,14,-9,-6,15,-1,27,-11,3,8,12
3,19,16,-12,-6,18,-3,24,-11,5,12,16
4,21,16,-13,-5,19,-4,20,-13,7,16,20
8,21,13,-14,-3,18,-4,17,-16,8,19,23
12,22,9,-16,1,16,-4,16,-20,8,21,26
15,22,7,-18,3,14,-3,18,-23,9,25,31
17,22,4,-19,6,13,-1,22,-25,11,29,37
22,22,0,-21,10,11,0,23,-26,12,34,43
27,22,-5,-24,16,9,0,22,-28,14,39,50
33,23,-9,-28,21,7,1,17,-30,16,45,57
38,25,-12,-32,25,7,1,10,-31,19,51,66
44,29,-14,-37,29,8,0,0,-32,23,59,75
49,37,-12,-43,31,12,-3,-13,-32,30,68,86
56,44,-11,-50,33,16,-8,-28,-32,40,80,97
63,47,-17,-55,40,14,-15,-43,-31,52,91,109
72,45,-28,-58,50,8,-26,-60,-34,60,99,116
81,40,-41,-60,62,0,-39,-78,-39,63,101,118
86,29,-57,-58,72,-13,-51,-92,-44,60,97,116
85,15,-70,-50,78,-26,-59,-102,-46,54,88,108
77,1,-75,-40,76,-36,-63,-107,-46,46,76,97
67,-9,-77,-29,72,-42,-67,-109,-44,39,63,84
58,-20,-78,-20,68,-48,-70,-106,-40,34,50,71
50,-29,-79,-10,65,-54,-72,-99,-32,31,39,58
43,-37,-80,-2,62,-59,-71,-89,-22,29,28,44
36,-44,-80,4,59,-62,-69,-75,-11,24,16,29
29,-48,-77,9,54,-63,-66,-59,0,18,3,15
23,-49,-72,13,48,-60,-61,-46,8,13,-8,2
18,-47,-64,14,41,-55,-57,-35,16,11,-14,-5
15,-42,-57,13,35,-49,-53,-25,22,12,-16,-8
12,-37,-49,12,30,-43,-48,-16,26,14,-15,-10
10,-33,-43,11,25,-38,-41,-8,28,17,-13,-10
7,-29,-36,11,21,-33,-34,0,27,18,-11,-9
4,-25,-29,11,16,-27,-26,7,24,18,-10,-9
1,-20,-21,10,11,-20,-19,15,23,16,-9,-9
-1,-16,-14,9,6,-15,-11,24,22,14,-9,-9
-4,-13,-9,9,2,-10,-5,32,20,12,-9,-9
-5,-11,-6,8,0,-8,-1,39,19,10,-9,-9
-6,-10,-4,8,-2,-6,2,44,18,8,-9,-9
-6,-9,-3,8,-2,-6,4,47,17,7,-10,-10
-5,-8,-4,7,0,-6,5,49,17,6,-11,-12
-5,-9,-5,8,0,-7,6,52,17,6,-12,-13
-7,-10,-3,9,-1,-7,8,55,19,7,-11,-12
-10,-10,0,10,-4,-5,9,57,21,8,-10,-12
-10,-9,1,10,-5,-4,10,59,21,8,-10,-12
-9,-9,1,9,-5,-4,10,59,21,8,-10,-12
-9,-9,0,9,-5,-4,10,59,21,9,-10,-12
-9,-10,0,9,-5,-5,10,58,22,9,-9,-12
-9,-11,-1,10,-4,-6,11,58,22,9,-10,-13
-9,-11,-2,10,-3,-6,11,57,21,9,-11,-14
-8,-11,-2,10,-3,-6,10,57,21,8,-12,-16
-8,-11,-2,10,-2,-6,10,57,21,8,-13,-17
-9,-10,-1,10,-4,-5,10,57,21,8,-13,-18
-12,-10,1,11,-7,-4,11,58,21,8,-12,-17
-13,-11,1,12,-7,-5,12,58,21,8,-12,-17
-12,-12,0,12,-6,-6,12,57,21,8,-12,-17
-11,-12,0,12,-6,-6,11,57,21,7,-12,-17
-11,-13,-2,12,-4,-7,11,57,21,7,-13,-18
-10,-15,-6,13,-1,-10,12,57,22,8,-12,-18
-9,-17,-8,13,0,-13,13,58,23,9,-11,-17
-10,-18,-8,14,-1,-13,13,58,24,9,-11,-17
-10,-18,-6,14,-2,-12,13,58,23,9,-11,-18
-10,-17,-5,14,-3,-11,13,58,23,8,-12,-18
-11,-17,-4,14,-3,-11,14,58,23,8,-12,-18
-11,-17,-4,14,-3,-11,14,58,23,8,-12,-18
-12,-17,-4,14,-3,-11,13,58,23,8,-12,-18
-13,-17,-4,15,-4,-10,13,58,24,8,-12,-18
-13,-17,-3,15,-5,-10,14,58,25,9,-12,-18
-14,-17,-3,15,-5,-9,15,59,26,9,-11,-17
-14,-16,-2,15,-6,-9,15,59,26,9,-11,-17
-13,-15,-2,14,-6,-9,15,59,27,9,-10,-16
-12,-15,-2,14,-5,-9,15,59,27,10,-10,-16
-12,-16,-2,14,-5,-9,16,60,28,10,-10,-15
-13,-15,-2,14,-5,-9,16,60,29,11,-9,-15
-13,-14,0,13,-6,-7,16,60,29,11,-9,-14
-13,-12,1,13,-6,-6,17,61,30,11,-9,-14
-12,-11,1,12,-7,-5,17,62,30,11,-9,-14
-12,-11,1,12,-7,-4,17,62,30,11,-9,-15
-13,-11,1,12,-7,-5,18,63,31,11,-9,-14
-13,-12,1,13,-8,-5,19,64,33,12,-8,-14
-13,-12,2,13,-8,-5,19,64,34,12,-7,-14
-13,-12,2,13,-8,-5,20,65,34,12,-7,-13
-14,-11,3,12,-8,-4,20,65,34,13,-6,-13
-14,-10,4,12,-9,-3,20,66,34,13,-6,-13
-15,-9,6,12,-10,-2,20,66,34,13,-7,-13
-14,-7,7,11,-11,0,20,67,35,12,-7,-13
-14,-6,7,10,-10,0,20,67,35,12,-7,-13
-14,-7,6,10,-10,0,20,68,36,12,-7,-12
-13,-7,5,10,-9,0,20,68,36,12,-6,-12
-13,-6,6,9,-10,0,21,69,36,13,-5,-11
-13,-5,8,9,-11,2,22,70,36,14,-4,-10
-13,-4,9,8,-11,2,21,70,36,14,-4,-9
-13,-3,10,8,-12,3,21,70,36,14,-3,-9
-13,-1,12,7,-12,5,21,69,35,14,-3,-8
-12,0,13,5,-12,7,20,69,34,13,-3,-8
-11,3,15,4,-13,9,20,68,33,13,-3,-8
-12,5,17,3,-14,11,20,68,33,13,-2,-7
-11,6,17,3,-14,12,20,67,32,13,0,-5
-10,7,17,2,-14,13,20,67,31,14,1,-4
-9,9,18,0,-14,14,20,66,30,14,2,-2
-8,10,17,-1,-13,14,20,66,29,14,4,-1
-6,11,17,-2,-12,14,19,65,28,14,5,0
-7,13,19,-3,-13,16,19,64,27,15,6,1
-8,15,23,-4,-15,19,20,64,26,16,8,3
-6,18,24,-5,-15,21,19,62,24,16,9,4
-4,20,25,-7,-15,22,17,60,21,15,9,5
-4,22,27,-8,-16,24,16,58,19,14,10,6
-6,22,28,-7,-17,25,16,58,18,15,12,9
-5,23,28,-8,-17,25,17,58,18,16,14,12
-3,24,27,-10,-15,26,17,57,17,16,16,13
-2,25,26,-11,-14,26,17,57,16,17,17,14
-2,26,26,-12,-14,27,17,56,15,17,18,15
-1,26,27,-13,-14,27,17,56,13,17,18,16
0,28,27,-14,-14,28,16,55,12,17,19,16
1,30,28,-15,-14,29,15,54,11,16,20,17
1,32,30,-17,-14,31,15,53,9,16,20,18
1,34,32,-17,-16,33,16,53,8,16,21,19
1,34,33,-18,-17,34,17,53,8,16,22,20
1,34,32,-18,-16,34,17,53,7,16,23,21
1,33,31,-17,-15,33,18,54,7,16,24,22
1,31,30,-16,-14,31,19,54,6,17,24,23
1,31,28,-16,-13,30,19,54,6,17,24,23
2,31,28,-16,-13,29,20,54,5,17,24,23
2,31,28,-16,-13,30,20,53,4,16,24,23
4,32,27,-17,-12,29,19,52,3,15,24,22
5,31,25,-17,-10,29,19,52,2,14,23,22
5,30,24,-17,-9,28,18,51,1,13,23,22
5,29,23,-17,-9,27,18,51,1,13,22,22
5,29,23,-17,-8,26,16,50,0,12,21,21
6,29,22,-18,-8,26,14,49,0,12,20,20
6,29,22,-18,-8,26,12,48,-1,11,20,20
7,29,21,-17,-8,25,11,47,-1,11,20,19
7,29,20,-17,-7,24,9,46,-2,11,19,19
7,28,19,-17,-6,23,7,44,-3,10,18,19
8,27,18,-17,-5,23,5,43,-4,8,17,17
8,26,16,-17,-4,22,3,41,-5,7,16,16
8,25,15,-17,-3,21,1,39,-6,6,15,15
8,24,15,-16,-3,20,0,38,-6,6,14,14
8,23,13,-15,-2,18,-2,36,-7,5,13,13
9,21,11,-15,-1,16,-4,34,-7,4,12,12
9,20,9,-14,0,14,-5,32,-8,3,10,11
9,18,8,-14,0,13,-6,31,-8,2,9,10
9,16,7,-13,0,12,-7,30,-8,1,9,9
8,15,6,-12,0,11,-7,29,-8,0,8,9
7,14,6,-11,0,11,-7,28,-8,0,7,8
7,13,6,-11,1,10,-8,27,-9,0,6,7
7,12,5,-10,1,9,-8,27,-9,0,6,6
7,10,4,-8,1,7,-8,26,-9,-1,6,6
6,10,4,-7,1,7,-8,25,-9,-1,5,6
6,10,4,-7,1,7,-8,24,-10,-2,4,5
6,9,3,-7,1,6,-8,23,-9,-2,3,5
4,7,3,-6,0,6,-8,23,-9,-2,3,4
3,6,3,-5,0,6,-8,22,-8,-2,2,4
3,6,3,-4,0,5,-8,21,-8,-2,2,4
3,5,1,-4,1,4,-8,21,-8,-2,1,3
4,5,0,-4,1,2,-8,21,-8,-2,1,2
4,3,-1,-3,2,0,-8,21,-8,-2,1,2
5,1,-4,-2,4,-2,-8,20,-8,-2,1,1
4,1,-3,-2,3,-1,-8,19,-9,-3,0,0
2,4,3,-3,-1,4,-9,17,-10,-5,-1,-1
0,6,7,-3,-4,7,-10,17,-10,-5,-2,-1
0,5,6,-2,-4,6,-9,18,-9,-5,-2,-1
0,3,4,-1,-3,4,-8,19,-9,-5,-2,-1
0,3,3,-1,-2,3,-8,19,-9,-5,-3,-1
0,4,2,-1,-1,3,-9,18,-10,-6,-4,-3
2,4,1,-2,0,2,-9,17,-11,-7,-5,-4
1,2,0,-1,0,1,-9,16,-10,-7,-5,-5
0,0,0,0,-1,1,-8,16,-9,-7,-5,-4
-1,-1,0,1,-1,0,-8,16,-10,-7,-5,-4
-1,-1,-1,1,0,0,-8,15,-10,-9,-6,-5
-1,-1,-1,1,0,-1,-9,14,-11,-10,-7,-6
-1,-1,-1,2,0,-2,-10,13,-11,-11,-7,-7
-1,-2,-1,2,-1,-2,-10,13,-11,-11,-7,-7
-2,-2,-1,2,-1,-2,-10,13,-11,-11,-7,-7
-1,-2,-1,2,-1,-2,-10,12,-12,-12,-8,-8
0,-3,-4,2,1,-3,-11,11,-13,-13,-9,-10
0,-5,-6,3,2,-5,-11,10,-14,-13,-10,-10
0,-5,-5,3,1,-4,-11,10,-14,-14,-10,-11
-1,-5,-4,3,0,-3,-11,10,-14,-14,-10,-11
-1,-5,-4,3,0,-4,-11,10,-14,-14,-10,-11
-2,-6,-4,4,0,-5,-10,11,-13,-14,-10,-11
-3,-6,-3,5,0,-5,-9,11,-13,-14,-9,-11
-5,-6,-1,5,-2,-4,-9,12,-12,-13,-9,-11
-5,-5,0,5,-3,-2,-9,12,-12,-13,-9,-11
-4,-4,1,4,-3,-1,-9,12,-12,-13,-9,-10
-4,-3,1,3,-3,0,-8,13,-11,-13,-9,-10
-4,-2,2,3,-4,0,-7,14,-10,-13,-9,-10
-5,-2,3,4,-5,1,-7,14,-10,-13,-9,-10
-5,-1,4,4,-5,1,-7,14,-10,-13,-9,-10
-5,-1,4,4,-5,1,-7,15,-10,-13,-9,-10
-6,-2,4,4,-5,0,-6,15,-9,-13,-8,-10
-6,-3,3,4,-4,0,-6,15,-9,-12,-8,-10
-6,-4,2,5,-4,-1,-6,15,-10,-13,-8,-11
-6,-4,2,5,-4,0,-6,14,-11,-14,-9,-11
-6,-4,2,5,-5,0,-6,13,-11,-15,-10,-12
-5,-3,2,4,-4,0,-6,12,-11,-15,-10,-12
-5,-4,1,4,-4,-1,-6,12,-11,-16,-10,-12
-5,-3,1,4,-3,-1,-6,12,-11,-16,-10,-12
-5,-2,2,3,-3,0,-5,12,-11,-16,-10,-12
-6,-2,3,4,-4,1,-5,12,-11,-15,-10,-11
-7,-1,5,4,-5,2,-4,12,-10,-15,-10,-11
-6,0,5,4,-5,2,-4,11,-11,-16,-10,-12
-5,0,5,3,-5,3,-4,11,-11,-17,-11,-12
-5,0,5,2,-6,3,-4,11,-12,-18,-11,-13
-5,0,6,2,-6,3,-4,10,-13,-19,-12,-13
-5,1,7,2,-7,4,-5,9,-14,-20,-13,-14
-5,2,7,2,-7,4,-5,8,-14,-20,-14,-15
-5,1,7,2,-6,3,-5,8,-15,-20,-14,-14
-5,1,6,3,-6,3,-5,9,-15,-20,-13,-14
-6,1,6,3,-6,3,-5,9,-16,-20,-13,-14
-5,1,6,3,-6,3,-5,8,-16,-20,-13,-14
-4,0,4,2,-4,2,-6,8,-16,-21,-13,-14
-3,0,3,2,-3,2,-7,8,-16,-21,-14,-15
-4,1,5,2,-5,3,-7,8,-16,-20,-13,-14
-5,2,7,2,-6,4,-6,9,-15,-20,-13,-13
-5,2,8,1,-6,5,-6,10,-15,-19,-12,-12
-5,3,9,1,-6,6,-5,10,-14,-19,-12,-12
-5,4,9,1,-6,6,-5,10,-14,-19,-11,-11
-5,5,9,0,-7,7,-4,10,-13,-19,-11,-11
-4,6,10,-1,-7,8,-4,11,-13,-19,-11,-11
-4,7,10,-1,-8,9,-3,11,-14,-19,-11,-11
-4,7,11,-1,-8,9,-3,10,-14,-19,-11,-11
-4,7,11,-2,-8,9,-3,9,-15,-19,-10,-11
-3,9,13,-3,-8,11,-3,6,-16,-19,-9,-9
-2,12,15,-5,-9,13,-4,3,-16,-18,-7,-7
-1,15,16,-7,-9,15,-5,0,-15,-15,-4,-4
0,18,18,-9,-9,18,-5,-2,-15,-12,0,0
3,20,17,-11,-7,19,-6,-5,-17,-10,3,2
7,21,14,-13,-4,18,-6,-7,-19,-8,5,6
8,22,15,-15,-4,19,-4,-7,-21,-7,8,9
8,23,15,-16,-4,20,-2,-5,-24,-6,11,13
11,24,13,-17,-1,19,-1,-4,-26,-6,15,18
16,25,10,-21,2,18,-1,-5,-28,-4,20,24
23,28,6,-25,8,17,0,-6,-30,-3,25,30
29,30,1,-30,14,16,0,-9,-31,-1,30,37
34,33,0,-33,17,16,0,-16,-34,0,35,43
37,35,-1,-36,19,17,-1,-28,-39,1,40,51
42,39,-3,-40,22,19,-6,-48,-44,5,49,62
48,47,-1,-47,24,23,-16,-75,-50,12,60,74
54,55,1,-54,26,28,-30,-107,-57,20,71,86
60,56,-3,-59,32,26,-46,-137,-65,27,79,94
69,50,-19,-60,44,15,-61,-160,-73,33,84,98
79,38,-41,-59,60,-1,-75,-175,-78,35,84,99
86,24,-62,-56,74,-19,-87,-179,-81,32,79,95
86,8,-78,-48,82,-34,-95,-176,-81,25,68,86
79,-9,-88,-35,84,-48,-100,-169,-79,17,55,74
69,-24,-93,-22,82,-58,-102,-159,-72,10,41,61
60,-35,-95,-12,78,-65,-101,-143,-60,7,30,48
53,-41,-95,-6,74,-68,-97,-121,-42,8,22,38
47,-44,-92,-1,70,-68,-91,-98,-21,11,16,28
42,-45,-86,1,64,-65,-84,-75,-2,13,9,19
36,-42,-78,3,57,-60,-75,-55,12,13,3,10
30,-36,-66,3,49,-51,-67,-39,22,12,-2,3
25,-30,-55,3,40,-43,-58,-28,26,12,-5,-1
19,-28,-47,5,33,-37,-49,-21,26,12,-6,-4
14,-25,-39,6,26,-32,-40,-13,25,11,-7,-6
8,-21,-30,7,19,-26,-31,-5,23,8,-9,-8
4,-17,-21,7,12,-20,-23,3,21,4,-10,-10
2,-13,-15,6,8,-15,-16,10,19,0,-12,-12
1,-11,-12,5,6,-11,-10,17,16,-4,-13,-14
-1,-9,-8,6,3,-8,-5,23,15,-5,-13,-14
-4,-8,-4,7,0,-6,-1,28,15,-5,-12,-14
-6,-8,-1,8,-2,-4,1,32,15,-4,-13,-14
-7,-8,-1,8,-3,-4,3,34,16,-4,-13,-14
-8,-9,-1,8,-3,-5,4,36,16,-3,-13,-14
-8,-10,-2,9,-2,-7,5,38,17,-3,-13,-14
-7,-11,-4,9,-2,-8,5,39,18,-4,-13,-15
-7,-11,-4,9,-2,-8,5,41,18,-4,-13,-15
-7,-11,-4,9,-2,-7,6,42,19,-3,-13,-16
-8,-11,-4,10,-2,-7,6,43,19,-2,-12,-16
-8,-11,-3,10,-2,-7,7,44,20,-1,-12,-16
-9,-11,-2,11,-3,-7,7,44,20,-1,-11,-16
-9,-11,-2,11,-3,-7,8,44,21,0,-11,-16
-9,-12,-3,11,-2,-8,8,45,22,0,-12,-17
-9,-13,-4,11,-2,-9,8,45,22,0,-12,-17
-10,-14,-4,11,-3,-9,8,46,23,0,-11,-17
-11,-14,-3,12,-3,-9,9,47,23,0,-11,-17
-12,-15,-3,13,-4,-9,10,48,24,1,-11,-17
-12,-16,-5,14,-3,-10,10,49,24,1,-11,-18
-11,-16,-6,14,-2,-11,10,48,24,1,-11,-18
-10,-16,-7,13,-1,-12,10,47,24,1,-11,-18
-9,-17,-8,13,0,-12,10,47,24,0,-12,-18
-10,-17,-7,13,-1,-12,10,47,24,0,-12,-18
-10,-16,-6,13,-2,-11,11,46,24,0,-13,-19
-11,-17,-6,13,-2,-12,11,46,23,-1,-13,-19
-11,-17,-7,13,-2,-12,11,46,23,-1,-14,-20
-10,-17,-7,13,-2,-12,12,45,23,-1,-14,-21
-10,-17,-7,14,-2,-12,12,45,23,-1,-14,-21
-9,-16,-7,13,-1,-12,12,45,22,-2,-15,-22
-8,-15,-8,12,0,-12,11,44,21,-3,-17,-24
-8,-15,-6,12,-1,-10,11,43,21,-4,-17,-25
-12,-15,-3,14,-4,-9,12,44,22,-4,-17,-24
-15,-18,-2,16,-6,-10,14,46,23,-3,-16,-23
-15,-20,-5,17,-5,-13,15,48,24,-2,-15,-23
-14,-21,-7,17,-3,-14,15,48,25,-2,-15,-23
-15,-21,-7,17,-4,-14,15,49,25,-2,-15,-23
-16,-20,-4,18,-5,-12,15,49,25,-2,-15,-23
-18,-21,-3,19,-7,-12,16,50,26,-2,-15,-23
-19,-22,-2,20,-8,-12,17,51,27,-1,-15,-22
-19,-21,-2,20,-8,-12,18,51,28,-1,-15,-22
-17,-19,-1,18,-8,-10,18,52,29,-1,-15,-22
-17,-17,0,17,-8,-9,19,52,29,-1,-15,-22
-17,-16,0,16,-9,-8,19,52,29,-1,-15,-22
-16,-15,1,15,-9,-7,20,54,30,-1,-14,-21
-16,-13,1,14,-9,-6,21,55,31,0,-14,-20
-16,-13,2,14,-9,-5,22,57,32,0,-14,-20
-16,-12,4,14,-10,-3,23,57,32,0,-14,-20
-16,-10,6,13,-11,-1,23,57,32,0,-14,-20
-17,-8,9,13,-13,0,23,57,32,0,-14,-21
-17,-7,10,13,-14,1,24,58,33,0,-14,-21
-18,-8,9,13,-14,0,25,59,33,0,-14,-20
-18,-9,8,14,-14,0,27,61,34,1,-13,-20
-18,-9,9,14,-14,0,28,62,34,1,-13,-20
-18,-8,9,13,-14,0,28,63,34,1,-13,-20
-17,-7,8,12,-13,0,28,64,34,1,-13,-20
-17,-7,9,12,-13,1,29,65,34,1,-13,-19
-18,-6,11,12,-14,2,30,66,34,1,-12,-19
-18,-5,13,12,-15,3,30,67,33,0,-12,-19
-18,-3,14,11,-16,5,30,66,32,0,-12,-19
-18,-1,16,9,-17,7,30,65,31,-1,-12,-19
-17,1,18,8,-17,9,30,63,30,-1,-12,-18
-17,1,17,8,-17,9,30,62,29,-1,-12,-17
-17,0,17,8,-18,9,30,61,28,-1,-10,-16
-17,1,19,8,-18,10,29,59,26,-2,-9,-14
-16,4,20,6,-18,12,28,57,24,-3,-9,-13
-16,6,22,5,-19,15,27,55,22,-3,-8,-12
-16,9,24,4,-20,17,26,53,20,-3,-7,-11
-15,10,25,3,-20,17,25,52,18,-4,-6,-10
-14,11,25,2,-20,18,25,50,16,-4,-5,-8
-13,13,26,1,-19,19,24,49,14,-4,-4,-7
-12,15,27,-1,-20,21,23,47,12,-4,-2,-5
-12,16,28,-2,-20,22,22,47,11,-4,0,-3
-10,17,27,-3,-18,22,21,46,10,-4,1,-1
-8,18,26,-5,-17,22,20,45,8,-4,2,0
-7,18,26,-5,-16,22,20,44,6,-4,3,1
-5,18,24,-6,-14,21,19,44,5,-3,5,2
-4,19,23,-6,-13,21,19,43,4,-3,6,4
-4,21,25,-7,-15,23,18,43,3,-3,7,5
-4,23,27,-8,-16,25,18,42,2,-3,7,6
-3,24,27,-10,-15,25,17,41,0,-4,8,7
-2,24,26,-11,-15,26,17,40,-1,-4,8,8
-1,24,26,-11,-14,26,17,39,-2,-4,9,9
-1,24,25,-11,-14,26,17,39,-3,-3,10,10
0,25,26,-12,-13,26,18,39,-3,-3,11,10
0,27,26,-13,-13,27,18,39,-3,-3,11,11
1,27,25,-14,-12,27,18,39,-4,-3,11,11
1,26,25,-13,-12,26,18,39,-4,-3,11,11
1,26,24,-13,-11,25,18,39,-4,-3,11,11
1,26,24,-13,-11,25,18,39,-4,-3,11,12
2,25,23,-13,-10,24,18,38,-5,-4,11,12
3,24,21,-13,-9,23,18,37,-6,-4,10,11
3,23,20,-12,-8,22,17,36,-7,-5,9,11
4,22,18,-12,-7,21,16,35,-9,-5,9,10
4,21,17,-12,-7,20,15,34,-9,-6,9,10
4,20,16,-12,-6,19,14,34,-9,-6,9,11
4,20,15,-12,-5,18,13,33,-8,-5,10,11
6,19,13,-12,-4,16,11,32,-8,-5,10,11
7,18,11,-12,-2,14,9,31,-8,-5,10,11
7,17,10,-12,-1,13,7,30,-8,-5,10,11
7,17,10,-11,-1,13,5,28,-9,-5,10,11
7,18,11,-12,-1,14,2,27,-9,-5,9,11
7,18,10,-13,-1,15,0,25,-11,-6,8,9
8,15,7,-11,0,11,-1,24,-11,-6,7,8
7,10,2,-9,2,7,-2,24,-11,-6,7,8
7,8,0,-7,3,4,-4,23,-11,-7,7,8
8,7,-1,-7,4,3,-6,21,-11,-7,6,7
8,6,-1,-7,4,3,-7,20,-12,-8,4,6
8,6,-1,-7,4,3,-8,18,-12,-9,3,5
8,6,-2,-7,5,2,-9,17,-13,-10,2,4
9,6,-4,-8,7,1,-10,15,-14,-11,1,2
8,5,-4,-7,6,1,-10,14,-14,-11,0,1
6,4,-2,-5,4,1,-9,14,-14,-10,1,2
4,2,-2,-3,3,0,-9,14,-13,-9,1,2
4,2,-2,-3,3,0,-10,13,-13,-9,0,2
4,2,-2,-3,2,0,-10,13,-13,-10,0,1
5,2,-3,-3,4,0,-11,12,-13,-10,0,0
7,0,-6,-3,6,-2,-11,12,-12,-10,-1,0
6,0,-6,-2,6,-2,-10,12,-12,-10,-1,0
4,0,-4,-1,5,-2,-10,12,-11,-9,-1,0
3,0,-4,-1,4,-2,-10,12,-12,-9,-1,0
3,0,-3,-1,4,-1,-10,11,-13,-10,-2,-1
4,2,-2,-2,3,0,-11,10,-13,-11,-3,-3
4,2,-1,-3,3,0,-11,10,-13,-11,-4,-3
4,0,-3,-2,4,-1,-10,10,-12,-10,-3,-3
4,-2,-5,0,5,-3,-9,11,-10,-9,-2,-2
3,-3,-6,0,5,-4,-9,11,-10,-9,-2,-1
3,-3,-6,0,6,-4,-9,11,-10,-10,-3,-1
3,-4,-7,0,6,-5,-9,10,-11,-11,-3,-2
3,-4,-7,1,6,-6,-9,10,-11,-11,-4,-3
3,-6,-8,2,5,-7,-10,10,-11,-11,-4,-3
2,-7,-8,2,5,-8,-10,10,-12,-11,-5,-4
1,-7,-8,3,4,-8,-10,9,-13,-12,-5,-4
1,-7,-7,3,3,-7,-10,9,-12,-12,-5,-5
1,-7,-8,2,4,-7,-10,8,-12,-13,-6,-6
2,-7,-9,2,6,-7,-11,7,-13,-14,-7,-7
2,-7,-9,2,6,-7,-11,6,-14,-15,-8,-8
1,-6,-7,2,5,-6,-11,5,-14,-15,-8,-8
0,-6,-6,2,4,-5,-11,5,-14,-16,-8,-9
0,-6,-5,3,3,-5,-11,5,-14,-16,-8,-9
0,-6,-4,3,2,-5,-11,4,-15,-16,-9,-10
0,-5,-4,3,2,-5,-11,4,-16,-17,-10,-10
-1,-6,-4,3,2,-5,-11,4,-16,-18,-11,-11
-2,-7,-5,5,2,-6,-11,4,-16,-18,-11,-11
-3,-9,-5,6,1,-6,-10,4,-16,-18,-11,-11
-4,-9,-5,6,1,-6,-10,3,-16,-19,-12,-12
-3,-8,-4,6,1,-6,-9,3,-16,-19,-12,-12
-3,-7,-3,5,0,-5,-9,3,-16,-19,-12,-13
-3,-6,-2,5,0,-5,-8,3,-16,-19,-12,-13
-3,-6,-1,5,-1,-4,-7,3,-16,-19,-11,-13
-4,-6,-1,5,-1,-4,-7,4,-15,-18,-11,-12
-5,-6,-1,6,-1,-4,-6,4,-15,-18,-11,-12
-6,-6,0,6,-2,-3,-6,4,-15,-18,-11,-11
-7,-5,1,6,-4,-2,-6,4,-15,-18,-11,-11
-7,-5,1,6,-4,-2,-6,4,-14,-18,-10,-11
-6,-5,2,6,-4,-2,-6,4,-14,-18,-10,-10
-6,-5,2,5,-4,-2,-6,4,-15,-18,-10,-10
-6,-5,1,6,-4,-2,-6,4,-15,-18,-10,-11
-7,-6,1,7,-4,-3,-5,5,-15,-18,-10,-11
-7,-6,1,7,-4,-3,-5,5,-15,-18,-10,-11
-6,-6,0,6,-4,-3,-4,5,-16,-19,-11,-12
-6,-6,1,6,-4,-2,-4,5,-16,-19,-11,-12
-6,-5,1,6,-4,-2,-3,5,-16,-19,-12,-13
-5,-5,0,5,-3,-3,-3,5,-17,-21,-13,-14
-3,-5,-1,4,-1,-4,-3,4,-18,-22,-13,-14
-3,-3,0,4,-1,-2,-3,2,-19,-23,-12,-13
-4,-2,2,3,-3,0,-3,-1,-19,-21,-10,-10
-4,0,4,2,-4,2,-3,-4,-18,-17,-6,-7
-2,4,6,-1,-4,5,-5,-8,-18,-13,-2,-3
1,10,9,-5,-4,9,-9,-13,-19,-9,1,0
3,13,9,-8,-4,11,-11,-17,-19,-6,5,4
5,14,9,-9,-2,12,-12,-18,-20,-4,9,7
9,16,7,-12,1,12,-12,-16,-22,-3,12,11
13,17,4,-14,5,10,-11,-11,-22,0,17,16
17,17,-1,-16,10,8,-10,-8,-22,3,23,24
23,18,-5,-20,14,7,-11,-7,-22,6,29,31
29,20,-8,-24,19,6,-11,-9,-23,8,35,38
35,22,-12,-28,23,5,-10,-13,-24,10,40,45
41,24,-16,-33,28,4,-9,-20,-24,13,46,53
46,29,-17,-38,31,6,-10,-31,-24,18,54,62
51,38,-13,-44,32,12,-13,-46,-23,26,64,73
55,46,-9,-50,32,18,-19,-65,-23,36,76,86
61,49,-12,-54,37,18,-29,-87,-26,44,86,95
69,46,-23,-57,46,12,-42,-111,-34,48,90,101
75,40,-36,-57,56,2,-55,-134,-44,47,89,101
77,29,-47,-53,62,-8,-65,-151,-53,38,79,93
72,17,-54,-45,63,-18,-69,-158,-58,25,64,80
62,5,-55,-34,58,-24,-69,-157,-58,14,48,66
50,-6,-55,-22,53,-30,-69,-151,-55,5,34,51
40,-17,-56,-11,48,-37,-68,-140,-48,0,21,37
31,-26,-57,-2,45,-41,-65,-126,-39,-4,9,23
25,-32,-56,4,41,-44,-61,-110,-29,-9,-3,8
19,-36,-55,9,38,-45,-56,-93,-19,-13,-14,-5
15,-37,-52,11,34,-45,-49,-77,-8,-15,-22,-15
12,-36,-47,12,30,-42,-42,-63,0,-14,-26,-21
10,-32,-41,11,25,-37,-36,-52,7,-10,-24,-22
7,-28,-35,11,20,-32,-30,-40,14,-4,-20,-20
5,-24,-29,10,17,-26,-23,-29,18,0,-17,-18
3,-19,-23,9,13,-21,-17,-19,18,0,-15,-17
1,-15,-17,7,10,-15,-11,-10,18,0,-14,-17
0,-11,-11,6,6,-10,-5,-2,17,0,-13,-16
-1,-7,-5,4,2,-5,0,7,17,-1,-13,-16
-2,-4,-2,3,0,-3,4,15,17,-3,-13,-16
-2,-5,-3,4,0,-4,8,22,18,-3,-13,-16
-2,-7,-4,4,0,-5,10,27,19,-2,-12,-15
-2,-7,-5,4,0,-5,11,29,20,-2,-12,-16
-2,-6,-4,4,0,-5,11,31,20,-2,-12,-16
-3,-6,-3,4,0,-4,11,31,21,-2,-11,-16
-3,-6,-2,5,0,-4,10,32,21,-2,-11,-16
-4,-6,-2,5,-1,-4,10,32,20,-1,-10,-16
-4,-6,-2,4,-1,-4,10,32,20,-1,-10,-16
-3,-5,-1,4,-1,-3,10,31,19,-1,-11,-16
-3,-5,-1,4,-1,-4,9,30,19,-1,-12,-17
-4,-6,-2,5,-2,-4,9,30,19,-2,-13,-18
-6,-8,-1,7,-2,-5,9,30,19,-2,-13,-19
-7,-9,-1,8,-3,-5,8,30,19,-2,-14,-20
-8,-10,-1,9,-3,-6,8,29,20,-2,-14,-20
-9,-10,-1,10,-3,-6,8,29,20,-2,-14,-21
-9,-10,-1,10,-3,-6,8,29,20,-2,-14,-21
-9,-10,-1,10,-4,-6,8,29,20,-2,-14,-22
-10,-11,-1,11,-4,-6,8,29,20,-2,-14,-22
-10,-13,-2,12,-4,-7,8,29,20,-1,-14,-22
-10,-13,-2,12,-4,-7,7,28,20,-1,-14,-22
-9,-12,-2,11,-3,-7,7,28,20,-1,-14,-23
-8,-12,-3,10,-2,-7,7,28,20,-2,-14,-23
-9,-12,-2,10,-3,-7,7,28,21,-1,-14,-22
-10,-11,-1,10,-4,-6,8,29,22,0,-13,-22
-10,-10,0,10,-5,-5,8,30,22,0,-13,-22
-10,-9,0,9,-5,-5,8,30,22,0,-14,-22
-9,-9,0,9,-5,-5,8,31,23,0,-13,-22
-9,-9,0,9,-5,-4,9,32,24,1,-13,-22
-8,-8,0,9,-4,-4,9,33,25,1,-13,-22
-8,-9,0,9,-4,-4,9,33,25,1,-13,-22
-9,-10,-1,9,-3,-5,10,33,25,1,-13,-22
-9,-11,-2,10,-3,-7,10,33,26,1,-13,-22
-9,-12,-2,10,-3,-8,10,34,26,1,-13,-22
-9,-12,-2,11,-3,-8,11,34,26,0,-14,-22
-9,-12,-1,11,-4,-7,11,34,26,0,-15,-22
-10,-11,-1,11,-4,-7,12,34,26,0,-15,-23
-10,-11,0,11,-5,-6,12,34,26,0,-16,-24
-11,-10,1,11,-6,-5,12,33,26,-1,-18,-26
-12,-10,2,11,-7,-4,12,33,26,-1,-18,-27
-12,-12,0,12,-6,-6,13,34,27,-1,-18,-27
-12,-14,-2,13,-5,-8,14,36,28,0,-17,-25
-12,-15,-3,13,-5,-10,15,37,29,1,-16,-24
-13,-16,-3,14,-5,-10,16,38,29,1,-15,-23
-14,-16,-2,15,-6,-10,16,39,30,1,-15,-23
-14,-15,-1,15,-6,-9,16,40,30,1,-14,-22
-14,-13,1,14,-7,-7,18,41,31,2,-13,-22
-14,-12,2,13,-8,-5,19,43,31,2,-13,-22
-14,-12,2,13,-8,-5,20,44,32,2,-13,-22
-14,-11,3,13,-8,-4,20,44,33,2,-13,-22
-14,-10,4,12,-9,-3,21,45,33,3,-13,-22
-15,-9,5,12,-10,-2,22,45,34,3,-12,-22
-16,-9,7,12,-12,-1,22,46,35,4,-12,-22
-17,-8,9,13,-13,0,23,47,35,4,-12,-22
-18,-8,10,13,-14,0,23,48,35,4,-11,-21
-17,-7,10,12,-14,1,23,49,35,4,-11,-20
-15,-5,10,10,-13,3,23,50,35,4,-11,-20
-14,-3,11,9,-13,4,23,50,34,3,-11,-19
-14,0,13,7,-14,6,22,50,33,3,-11,-19
-13,2,15,6,-14,8,22,49,31,2,-10,-18
-14,1,15,7,-15,8,22,49,30,3,-9,-17
-14,0,15,7,-15,7,22,49,30,4,-7,-15
-14,1,16,7,-15,8,22,48,29,5,-5,-13
-15,3,18,6,-16,10,21,46,27,4,-4,-12
-15,5,20,5,-18,12,21,44,25,4,-3,-11
-15,7,21,4,-18,14,20,42,23,4,-2,-9
-13,9,22,3,-18,15,19,40,21,4,-1,-7
-11,10,22,1,-17,16,18,38,18,3,0,-6
-8,11,20,-1,-15,15,16,36,15,2,0,-5
-6,12,19,-2,-13,15,14,34,12,2,1,-3
-7,13,22,-3,-15,17,13,33,11,2,2,-1
-8,14,23,-3,-15,18,12,32,9,3,3,0
-7,15,22,-4,-15,19,12,31,8,3,5,2
-7,16,23,-4,-15,20,12,31,7,3,6,4
-7,17,25,-5,-16,21,12,30,6,3,8,6
-7,19,26,-6,-17,23,12,29,4,2,9,7
-6,21,27,-7,-17,24,11,28,1,1,9,8
-5,23,28,-9,-17,25,10,26,-1,0,9,8
-4,25,29,-11,-17,27,8,25,-4,0,9,9
-3,26,29,-12,-16,27,7,24,-6,0,10,11
-2,26,28,-13,-15,27,7,23,-6,0,11,12
-1,26,27,-13,-14,27,7,23,-7,0,11,12
0,25,25,-13,-13,26,8,23,-7,0,12,13
0,23,24,-12,-12,24,8,24,-7,0,13,14
0,24,25,-12,-13,25,7,23,-8,-1,13,14
0,25,26,-12,-14,25,7,23,-9,-1,12,14
0,23,24,-12,-12,23,8,23,-9,-1,12,14
1,22,21,-12,-10,21,8,23,-9,0,12,14
1,23,21,-12,-9,21,8,23,-9,0,12,14
1,23,21,-12,-10,22,9,23,-9,0,12,14
0,23,22,-12,-11,23,11,23,-9,0,12,14
0,24,24,-12,-12,24,13,24,-9,0,13,14
0,24,24,-12,-13,24,14,24,-9,0,13,15
0,23,23,-12,-12,22,15,25,-9,0,14,16
1,21,21,-12,-10,20,16,25,-9,0,14,17
1,20,18,-11,-9,19,16,25,-9,0,14,17
1,18,16,-10,-8,17,16,25,-9,0,14,16
1,17,15,-10,-7,16,15,24,-9,0,13,15
2,17,14,-10,-6,16,14,23,-9,0,13,14
3,16,14,-10,-5,15,13,23,-9,0,12,13
2,16,14,-9,-6,15,12,22,-9,0,12,13
2,16,15,-9,-6,15,11,21,-9,0,11,12
3,16,14,-9,-6,15,9,20,-9,0,10,12
3,16,13,-10,-5,14,7,19,-8,0,10,11
3,14,11,-9,-4,13,5,19,-8,0,10,11
3,13,10,-8,-4,12,4,18,-7,0,10,10
2,12,10,-8,-4,11,3,18,-7,0,10,10
3,11,9,-8,-3,11,1,17,-7,0,9,9
3,11,9,-8,-3,11,0,15,-8,-1,8,9
3,11,9,-8,-3,10,-2,13,-9,-2,7,8
3,9,7,-7,-2,8,-3,12,-9,-2,7,8
3,8,5,-6,-1,6,-4,11,-9,-2,6,8
3,7,4,-5,0,5,-5,9,-10,-2,5,7
3,7,3,-5,0,5,-7,8,-11,-3,4,6
3,6,2,-5,0,4,-8,6,-12,-4,3,5
2,5,2,-3,0,4,-8,5,-13,-5,2,3
2,4,2,-3,0,4,-9,3,-14,-6,1,2
2,4,2,-3,0,3,-9,2,-14,-6,0,1
2,3,1,-2,0,2,-8,3,-13,-6,0,1
2,1,0,-1,0,0,-7,3,-13,-6,0,1
3,1,-1,-1,1,0,-8,2,-13,-7,-1,0
4,1,-3,-2,3,-1,-9,1,-14,-8,-2,-1
4,0,-3,-2,3,-2,-10,1,-13,-8,-2,-1
2,0,-2,-1,1,-1,-9,1,-12,-7,-2,-1
0,0,0,0,0,0,-10,0,-12,-7,-2,-1
0,0,0,0,0,0,-10,-1,-13,-7,-2,-2
2,0,-3,-1,2,-1,-11,-2,-14,-7,-3,-3
3,0,-4,-1,3,-2,-10,-2,-14,-7,-3,-3
1,-1,-2,0,1,-2,-8,-2,-13,-7,-2,-3
-1,-2,-1,2,0,-2,-7,-1,-12,-6,-2,-2
-2,-3,-2,2,0,-2,-7,-1,-12,-6,-1,-2
-2,-4,-3,3,0,-3,-6,-1,-12,-6,-1,-2
-2,-5,-3,3,0,-3,-6,-1,-12,-6,0,-1
-2,-6,-2,4,0,-3,-5,-1,-12,-6,0,-1
-3,-7,-2,5,0,-4,-5,-2,-11,-6,0,-1
-3,-7,-2,5,0,-4,-6,-3,-11,-6,0,-1
-3,-5,-2,4,0,-4,-7,-4,-12,-7,-1,-2
-3,-4,-2,4,-1,-3,-8,-4,-13,-7,-2,-3
-4,-5,-1,4,-1,-3,-8,-4,-13,-8,-3,-4
-4,-6,-2,5,-1,-4,-7,-4,-13,-8,-4,-5
-5,-8,-3,5,-1,-5,-7,-4,-12,-8,-4,-5
-5,-8,-2,6,-1,-5,-6,-4,-12,-8,-4,-5
-5,-8,-2,6,-1,-5,-6,-4,-12,-8,-4,-5
-5,-7,-2,6,-1,-5,-6,-5,-13,-8,-4,-5
-5,-7,-2,6,-1,-5,-6,-5,-13,-9,-4,-5
-5,-6,-1,5,-2,-4,-6,-6,-14,-10,-4,-6
-5,-4,0,4,-3,-2,-6,-7,-15,-11,-5,-6
-6,-3,2,4,-4,-1,-6,-8,-15,-11,-6,-7
-7,-3,3,5,-5,0,-6,-8,-14,-11,-6,-7
-6,-3,3,4,-5,0,-6,-9,-14,-11,-6,-7
-6,-3,3,4,-5,0,-6,-9,-15,-12,-7,-8
-7,-3,4,5,-6,1,-5,-10,-15,-12,-7,-8
-9,-3,6,6,-7,1,-4,-10,-14,-11,-7,-8
-10,-3,6,7,-8,1,-3,-9,-14,-11,-7,-8
-11,-4,6,7,-8,0,-2,-8,-13,-11,-6,-7
-11,-3,7,7,-9,1,-2,-8,-13,-11,-6,-7
-11,-1,9,6,-10,3,-2,-7,-13,-11,-6,-7
-11,-1,10,6,-11,4,-2,-7,-13,-11,-6,-7
-10,-1,8,6,-9,3,-1,-7,-13,-11,-6,-6
-10,-2,7,6,-8,2,-1,-7,-13,-11,-6,-6
-10,-1,8,6,-9,3,-2,-7,-14,-12,-7,-7
-10,1,10,5,-10,5,-3,-8,-15,-13,-8,-8
-10,1,11,5,-11,6,-3,-9,-16,-14,-8,-8
-10,0,11,5,-11,5,-3,-10,-16,-14,-8,-8
-10,0,10,5,-11,5,-2,-11,-16,-14,-8,-7
-11,0,10,5,-11,5,-2,-11,-16,-13,-8,-7
-12,-1,10,6,-11,5,-1,-10,-15,-13,-7,-7
-12,-1,11,6,-12,5,0,-10,-15,-13,-7,-7
-13,0,13,6,-13,7,0,-10,-15,-14,-7,-7
-13,0,14,7,-13,7,0,-10,-15,-14,-7,-6
-12,0,12,7,-12,6,1,-9,-15,-13,-6,-5
-11,-1,11,7,-11,4,2,-9,-15,-13,-6,-5
-11,0,11,6,-12,5,2,-10,-15,-13,-6,-5
-11,1,13,4,-13,7,1,-10,-16,-14,-7,-6
-10,2,12,3,-12,7,0,-11,-17,-15,-8,-6
-9,1,10,3,-10,6,0,-11,-17,-15,-9,-6
-9,0,8,4,-8,4,0,-12,-17,-15,-9,-6
-9,0,7,4,-8,3,0,-12,-17,-14,-8,-5
-9,-1,8,5,-8,3,1,-11,-16,-13,-8,-4
-10,-1,8,5,-9,3,1,-11,-15,-12,-7,-3
-10,-1,8,6,-9,3,1,-11,-14,-13,-7,-3
-10,-1,9,6,-10,3,2,-11,-14,-13,-7,-2
-11,-1,9,6,-10,4,2,-11,-13,-13,-7,-2
-11,-1,10,6,-11,4,3,-10,-13,-13,-7,-2
-10,1,10,4,-11,6,3,-10,-12,-12,-6,-1
-8,3,11,2,-10,7,3,-9,-12,-12,-6,-2
-7,5,11,1,-9,8,3,-9,-11,-12,-7,-2
-6,5,11,1,-9,8,4,-9,-11,-12,-6,-2
-8,4,13,2,-11,8,6,-7,-9,-10,-5,-1
-10,5,16,2,-13,10,7,-6,-8,-9,-4,0
-9,5,15,2,-12,11,8,-5,-6,-8,-3,0
-7,5,13,1,-10,10,8,-4,-5,-7,-3,0
-7,5,13,1,-10,10,9,-4,-4,-6,-2,1
-8,6,14,1,-11,11,10,-3,-3,-6,-2,1
-9,7,16,1,-13,12,11,-3,-2,-5,-1,2
-9,8,17,0,-13,12,12,-2,-2,-5,-1,2
-8,9,17,-1,-13,13,13,-2,-2,-4,0,2
-7,10,18,-1,-13,14,13,-2,-1,-4,0,2
-7,11,19,-2,-13,15,13,-1,-1,-4,0,2
-7,11,19,-2,-13,15,14,-1,-2,-5,0,2
-6,13,20,-3,-13,16,13,-3,-3,-5,0,2
-6,15,21,-4,-13,19,12,-6,-3,-4,1,3
-5,19,24,-6,-15,22,10,-9,-3,-2,3,5
-3,23,25,-9,-15,24,9,-11,-1,2,7,8
-1,24,25,-11,-13,24,7,-14,0,6,12,12
1,24,23,-12,-11,23,4,-17,-1,10,16,16
3,25,22,-14,-9,23,0,-21,-3,12,20,20
6,25,20,-15,-7,22,-2,-22,-5,14,24,25
9,24,16,-17,-3,20,-4,-21,-8,15,27,30
14,23,10,-18,1,17,-5,-18,-11,16,31,35
19,23,4,-21,7,14,-5,-16,-13,17,35,41
25,24,-2,-24,13,11,-6,-17,-14,19,41,48
31,25,-7,-27,19,9,-7,-20,-16,21,46,56
37,27,-10,-31,23,8,-8,-26,-18,23,52,63
42,29,-12,-36,27,8,-9,-35,-19,26,58,71
47,34,-12,-41,29,11,-11,-45,-20,31,67,81
51,41,-9,-46,30,16,-13,-58,-19,39,77,92
55,49,-7,-52,31,21,-19,-75,-20,49,89,103
63,53,-11,-58,37,21,-30,-95,-23,59,98,112
73,50,-23,-61,48,14,-42,-115,-28,66,104,118
81,43,-38,-62,59,2,-54,-134,-35,69,105,119
83,31,-53,-57,68,-11,-64,-148,-40,66,100,115
80,15,-64,-48,72,-24,-68,-156,-42,58,89,106
72,1,-70,-37,71,-35,-70,-158,-41,50,76,93
61,-11,-71,-25,66,-42,-71,-156,-37,44,63,79
50,-22,-72,-14,61,-47,-71,-151,-30,41,51,66
41,-33,-74,-4,57,-53,-71,-143,-20,38,39,52
33,-41,-75,4,54,-57,-69,-132,-9,36,28,38
26,-47,-74,10,51,-60,-66,-118,2,33,16,24
21,-49,-71,14,47,-60,-63,-103,12,27,3,10
16,-49,-65,16,41,-58,-58,-90,21,22,-6,0
12,-47,-59,17,35,-54,-53,-78,27,20,-11,-7
9,-44,-51,17,30,-48,-49,-68,31,19,-13,-11
6,-37,-42,16,23,-40,-44,-59,32,19,-14,-13
2,-30,-32,14,17,-31,-38,-51,30,18,-14,-14
-2,-27,-26,15,12,-26,-29,-42,29,18,-13,-14
-5,-25,-21,16,8,-23,-21,-33,27,17,-13,-13
-7,-21,-14,14,4,-17,-13,-24,24,14,-13,-13
-9,-15,-6,12,-1,-11,-7,-15,22,11,-13,-14
-10,-13,-2,11,-4,-8,-2,-7,20,9,-13,-14
-9,-12,-1,10,-4,-8,1,-1,18,7,-13,-14
-9,-11,-1,10,-4,-7,3,3,17,5,-14,-14
-11,-11,0,11,-5,-6,4,6,18,4,-15,-15
-11,-11,0,11,-5,-6,5,9,19,5,-15,-15
-10,-11,-1,11,-4,-6,6,11,20,5,-16,-16
-10,-10,-1,10,-4,-5,7,13,21,5,-15,-16
-12,-10,1,11,-7,-4,9,15,22,6,-14,-15
-13,-11,2,11,-8,-4,11,17,24,7,-13,-14
-12,-11,3,11,-8,-4,12,18,24,7,-12,-13
-13,-11,3,11,-8,-4,13,19,25,9,-11,-13
-14,-11,4,12,-9,-4,13,19,27,10,-10,-12
-16,-11,4,13,-10,-3,13,19,27,11,-9,-12
-17,-10,5,14,-11,-2,14,19,28,12,-9,-12
-17,-9,6,13,-11,-1,14,19,28,12,-10,-12
-16,-8,7,12,-11,-1,15,20,29,12,-9,-12
-15,-8,8,12,-12,0,16,21,30,14,-8,-11
-16,-7,10,11,-13,1,17,22,31,15,-7,-11
-16,-6,12,10,-14,2,17,22,31,15,-7,-11
-15,-5,11,9,-13,3,17,21,31,15,-7,-11
-14,-6,9,10,-11,1,18,22,32,16,-7,-11
-14,-7,7,11,-10,0,18,23,33,17,-6,-10
-14,-6,7,10,-10,0,18,23,34,17,-6,-10
-14,-6,7,9,-10,1,18,24,34,17,-6,-11
-14,-6,8,10,-11,0,18,25,35,17,-6,-11
-15,-7,9,11,-12,0,18,25,35,17,-6,-11
-16,-6,11,11,-14,2,18,26,35,16,-6,-11
-16,-5,12,11,-14,3,18,26,35,16,-7,-11
-16,-5,11,11,-13,2,18,26,36,16,-7,-11
-15,-5,10,11,-13,2,18,27,36,16,-7,-11
-16,-4,11,10,-13,3,18,28,36,15,-7,-11
-15,-3,12,9,-13,4,18,28,36,15,-8,-11
-15,-3,12,9,-13,4,18,28,37,15,-8,-11
-15,-3,11,9,-13,4,19,29,37,15,-8,-10
-14,-3,11,9,-13,4,18,28,37,14,-8,-10
-14,-3,11,8,-13,4,18,28,37,14,-9,-10
-14,-4,10,9,-12,3,18,28,37,15,-9,-10
-14,-4,10,10,-12,3,19,28,37,15,-8,-10
-14,-4,9,9,-11,3,19,29,38,15,-8,-9
-13,-3,9,9,-11,3,19,30,39,15,-7,-9
-14,-3,10,9,-12,3,19,31,38,15,-7,-9
-15,-3,12,9,-14,4,19,32,38,14,-7,-9
-15,-2,13,9,-14,5,19,33,38,14,-7,-10
-16,-2,14,9,-15,6,19,34,38,14,-7,-10
-17,-2,15,10,-16,6,19,35,38,14,-6,-9
-17,-2,14,10,-15,6,19,36,38,15,-6,-9
-17,-2,14,10,-15,5,19,37,38,15,-6,-9
-17,-2,14,10,-15,6,19,38,38,15,-6,-9
-17,-1,15,9,-16,7,19,39,38,15,-6,-9
-17,0,17,9,-17,8,20,40,39,15,-5,-9
-18,0,18,9,-18,9,20,41,40,16,-5,-8
-17,1,19,8,-18,10,21,42,41,16,-4,-8
-17,3,20,7,-19,11,21,43,41,16,-4,-8
-17,4,21,6,-19,13,21,44,41,16,-5,-8
-17,5,22,6,-19,13,22,44,41,16,-5,-8
-17,6,23,6,-20,14,23,46,41,16,-4,-8
-17,7,24,5,-20,15,24,47,41,16,-3,-7
-16,8,25,4,-21,16,24,47,41,16,-2,-6
-16,9,26,3,-21,17,24,47,40,16,-1,-5
-14,10,24,2,-20,17,24,47,39,16,-1,-4
-11,10,23,0,-18,16,24,46,38,15,-1,-3
-12,13,26,0,-19,19,24,46,37,15,0,-2
-16,16,33,0,-24,24,26,47,37,16,2,0
-18,19,38,0,-28,28,27,47,37,17,4,2
-18,22,40,-2,-29,31,27,47,36,17,6,3
-18,24,42,-3,-30,33,28,46,35,18,8,5
-18,24,44,-3,-31,34,29,46,34,19,9,7
-18,26,45,-4,-32,35,29,45,32,19,10,8
-17,28,46,-6,-32,37,27,42,29,18,11,9
-16,29,46,-7,-31,38,27,41,27,17,12,11
-15,29,45,-7,-30,37,27,40,26,18,14,13
-14,30,44,-8,-29,37,27,39,24,18,15,15
-12,31,43,-9,-27,37,26,37,22,17,16,15
-11,32,44,-10,-27,38,25,36,20,17,16,16
-10,32,44,-11,-27,38,24,35,19,17,17,17
-9,32,42,-11,-26,37,23,35,17,17,17,18
-9,32,42,-12,-26,37,21,34,15,16,18,19
-8,33,42,-13,-25,37,19,32,13,15,18,20
-6,34,40,-14,-24,37,16,30,11,14,19,20
-5,34,39,-15,-22,37,14,29,9,14,19,21
-4,35,39,-16,-21,37,11,27,7,13,19,21
-2,36,39,-17,-20,37,8,25,5,13,19,21
-1,36,38,-17,-19,37,6,24,3,12,19,21
0,36,36,-18,-18,36,3,23,1,11,19,21
0,34,34,-17,-17,35,1,21,-1,10,18,21
1,33,32,-17,-16,33,0,19,-3,8,16,20
1,32,31,-17,-15,32,-2,18,-5,6,15,20
1,31,30,-16,-14,31,-2,17,-7,5,15,19
1,29,29,-14,-14,29,-3,17,-9,5,14,19
0,27,28,-13,-13,28,-3,17,-10,4,13,18
0,26,27,-13,-13,27,-4,16,-11,3,12,17
0,26,27,-13,-13,27,-4,16,-11,2,12,16
0,26,27,-13,-13,27,-4,17,-12,2,11,16
0,25,24,-12,-12,25,-4,17,-12,2,11,16
1,23,22,-12,-10,23,-5,16,-13,1,10,15
1,23,21,-12,-10,22,-5,15,-13,0,9,15
2,22,20,-12,-9,21,-6,14,-14,0,8,14
1,21,19,-12,-9,20,-6,14,-14,0,8,13
1,20,19,-10,-9,19,-6,14,-14,0,7,12
1,19,19,-10,-9,19,-6,13,-15,-1,7,11
1,18,18,-9,-8,18,-7,13,-15,-1,6,11
0,17,17,-8,-8,17,-7,12,-15,-2,5,10
0,16,16,-8,-8,17,-7,12,-15,-2,5,10
0,16,16,-8,-8,16,-7,11,-15,-3,4,10
0,14,15,-7,-8,14,-7,11,-15,-3,4,9
-1,12,14,-6,-8,13,-7,10,-15,-3,4,9
-1,11,13,-5,-7,12,-7,9,-15,-4,3,8
-1,10,12,-5,-7,11,-7,8,-15,-4,2,7
-1,9,11,-4,-6,10,-8,8,-15,-5,1,6
0,9,10,-4,-6,9,-8,8,-15,-5,1,6
0,9,10,-5,-6,10,-8,7,-16,-5,0,5
-1,9,10,-5,-6,10,-8,7,-16,-6,0,5
-1,8,9,-4,-5,8,-7,8,-15,-5,0,5
-1,6,8,-3,-4,7,-7,8,-14,-5,0,5
-1,6,8,-2,-4,6,-7,8,-14,-5,0,4
-1,6,8,-2,-4,7,-6,8,-13,-4,0,3
-2,6,9,-2,-5,7,-6,9,-13,-4,0,3
-2,6,9,-2,-6,8,-5,9,-12,-3,0,3
-3,6,9,-2,-7,8,-5,9,-12,-3,0,3
-3,5,8,-1,-7,7,-5,9,-12,-3,0,3
-4,4,7,0,-6,6,-5,9,-12,-3,0,3
-3,4,8,0,-6,6,-5,9,-12,-3,0,2
-3,4,8,0,-6,6,-5,9,-12,-3,0,2
-4,4,9,0,-7,6,-5,9,-11,-3,0,2
-4,4,8,0,-6,6,-6,9,-12,-3,0,2
-2,4,6,0,-5,5,-7,8,-13,-4,-1,1
-3,3,6,0,-5,5,-7,8,-14,-4,-1,1
-4,3,7,1,-6,5,-6,9,-13,-3,0,2
-5,2,7,1,-6,5,-6,9,-12,-2,0,2
-5,2,7,1,-7,5,-6,10,-11,-2,0,2
-4,2,6,1,-6,4,-5,10,-11,-2,0,2
-2,2,5,0,-4,3,-5,9,-11,-2,-1,2
-3,2,6,0,-4,4,-5,9,-10,-2,-1,2
-5,2,8,1,-5,5,-5,9,-9,-2,-1,1
-4,2,6,0,-4,5,-4,10,-9,-2,-1,1
-3,2,4,0,-3,4,-4,10,-9,-2,-1,1
-4,2,5,0,-4,4,-3,10,-9,-2,-1,1
-5,2,7,0,-6,5,-3,10,-9,-2,-1,0
-5,2,7,1,-7,5,-2,10,-9,-3,-2,0
-5,0,6,2,-6,3,-2,10,-9,-3,-2,-1
-6,-2,4,3,-6,1,-1,10,-9,-3,-2,-1
-6,-3,4,4,-5,0,-1,10,-9,-3,-2,-1
-7,-5,3,5,-5,0,0,11,-9,-2,-2,0
-8,-5,2,6,-5,-1,0,11,-8,-2,-1,0
-8,-5,2,6,-6,-1,0,11,-8,-2,-1,0
-8,-4,4,6,-7,0,0,11,-8,-2,-2,0
-9,-3,6,6,-8,2,0,10,-8,-3,-2,-1
-8,-3,6,6,-8,1,0,10,-9,-3,-2,-2
-8,-3,6,6,-7,1,0,11,-9,-2,-2,-2
-8,-3,6,5,-7,1,0,12,-9,-2,-2,-2
-8,-2,6,5,-7,2,0,12,-8,-2,-2,-1
-8,-2,6,4,-7,2,0,12,-7,-2,-2,-1
-8,-1,6,4,-7,3,0,12,-7,-2,-2,-1
-8,0,7,4,-8,4,0,13,-7,-3,-2,-2
-7,0,7,4,-8,4,0,13,-7,-3,-2,-2
-7,0,7,4,-7,3,0,13,-8,-4,-4,-3
-7,-1,6,4,-7,3,0,13,-10,-6,-5,-4
-7,0,7,3,-7,3,0,11,-11,-6,-4,-4
-7,2,9,2,-8,6,-1,8,-12,-6,-3,-2
-6,5,12,0,-10,9,-2,5,-12,-4,0,0
-5,8,13,-1,-10,11,-4,1,-13,-1,2,2
-4,10,14,-3,-9,13,-5,-2,-13,1,6,5
-2,13,15,-5,-9,14,-6,-5,-14,3,9,9
0,15,15,-7,-8,15,-6,-6,-15,6,13,12
4,16,13,-10,-5,14,-6,-7,-17,8,17,16
9,18,10,-13,0,14,-5,-7,-18,11,22,22
13,21,8,-17,2,15,-4,-8,-17,15,28,30
16,26,10,-21,2,19,-1,-10,-17,18,35,37
17,30,13,-23,2,22,2,-15,-19,19,40,44
19,32,14,-25,2,24,5,-24,-23,19,45,50
21,36,15,-28,3,26,4,-38,-29,19,50,58
25,44,19,-34,3,31,-1,-58,-36,22,57,66
30,53,23,-42,3,38,-11,-86,-43,28,67,78
37,59,23,-48,7,41,-24,-116,-50,37,80,91
45,60,15,-53,15,38,-39,-143,-58,46,90,101
54,56,1,-55,26,29,-53,-165,-65,55,98,108
61,46,-15,-54,38,16,-65,-178,-69,61,102,112
63,30,-32,-47,47,0,-73,-181,-70,61,99,109
60,11,-48,-36,54,-18,-77,-177,-69,53,86,98
54,-5,-58,-25,55,-32,-77,-166,-64,42,70,83
46,-16,-62,-15,53,-40,-73,-148,-52,35,55,68
40,-23,-63,-9,51,-43,-69,-126,-36,31,43,55
36,-26,-62,-5,49,-44,-64,-103,-17,31,34,44
32,-27,-59,-2,45,-43,-58,-80,2,33,27,34
27,-26,-53,0,40,-39,-51,-56,20,32,18,23
24,-24,-48,0,36,-36,-45,-38,30,29,10,13
22,-21,-44,0,32,-32,-39,-26,34,26,3,6
17,-19,-36,0,26,-28,-33,-17,35,23,0,1
11,-16,-27,2,18,-22,-26,-7,34,20,-2,-1
5,-13,-18,3,11,-15,-19,1,32,16,-5,-4
1,-10,-11,3,6,-10,-13,8,29,11,-7,-6
-2,-9,-6,5,2,-7,-7,14,27,7,-9,-8
-5,-9,-3,7,-1,-6,-3,19,24,4,-10,-10
-7,-9,-1,8,-3,-4,0,23,22,2,-12,-12
-9,-8,0,9,-5,-4,2,25,19,0,-13,-13
-10,-8,1,10,-6,-4,3,26,18,0,-13,-14
-10,-8,1,10,-6,-4,3,27,17,0,-14,-15
-10,-9,1,10,-6,-5,3,27,18,0,-15,-16
-10,-11,0,10,-5,-6,4,28,18,0,-15,-16
-11,-11,0,10,-5,-5,4,28,18,-1,-15,-16
-12,-10,2,10,-7,-3,5,29,18,-2,-15,-17
-12,-10,3,10,-7,-2,5,29,17,-2,-16,-18
-12,-11,1,11,-6,-4,6,29,17,-2,-16,-18
-11,-12,0,11,-6,-5,7,30,18,-1,-15,-17
-12,-11,1,12,-7,-5,7,30,18,0,-15,-17
-12,-10,2,12,-8,-4,6,30,18,0,-15,-18
-12,-10,3,11,-8,-4,6,30,19,0,-15,-18
-12,-9,2,11,-7,-4,7,30,20,0,-15,-19
-11,-9,2,11,-7,-4,7,31,21,1,-15,-19
-11,-10,1,11,-6,-4,8,33,21,1,-15,-19
-11,-9,1,10,-6,-4,9,34,22,2,-14,-19
-11,-9,1,10,-6,-4,10,34,23,2,-14,-19
-12,-10,1,10,-7,-4,10,35,23,2,-13,-19
-12,-11,1,11,-7,-5,10,35,24,3,-13,-19
-12,-12,1,12,-7,-6,10,36,24,3,-13,-19
-13,-12,1,13,-8,-6,11,37,25,3,-13,-19
-14,-13,1,14,-8,-6,11,37,25,3,-13,-19
-15,-13,1,14,-8,-6,12,37,25,3,-13,-19
-15,-14,1,15,-8,-6,12,38,26,3,-13,-19
-14,-14,0,15,-7,-6,13,38,26,3,-13,-19
-13,-14,0,14,-6,-7,13,38,26,3,-13,-19
-13,-14,-1,14,-6,-8,14,38,26,4,-12,-19
-12,-14,-1,13,-6,-7,14,38,27,4,-12,-19
-12,-13,0,13,-7,-6,14,38,27,4,-12,-19
-13,-12,1,12,-7,-5,14,38,27,4,-13,-20
-13,-13,0,13,-7,-6,14,39,28,4,-13,-20
-14,-15,-1,14,-6,-8,15,40,29,5,-13,-20
-14,-17,-3,15,-5,-10,16,42,29,5,-12,-20
-14,-16,-3,15,-6,-9,17,43,29,4,-13,-20
-14,-13,0,14,-7,-6,17,43,29,4,-13,-21
-14,-11,2,13,-9,-4,18,44,30,4,-13,-21
-15,-12,2,13,-9,-5,18,45,30,4,-13,-21
-16,-15,1,15,-9,-6,19,46,31,4,-13,-21
-15,-15,1,15,-8,-6,20,47,32,5,-13,-21
-15,-14,1,15,-8,-6,20,48,32,5,-14,-21
-16,-15,1,15,-8,-6,20,49,33,5,-14,-21
-16,-14,1,15,-9,-6,21,50,33,5,-14,-21
-16,-13,2,15,-9,-5,22,51,34,5,-14,-21
-16,-13,2,14,-9,-6,23,53,34,5,-13,-21
-16,-14,2,15,-9,-6,24,54,35,5,-13,-21
-17,-14,3,15,-10,-5,25,55,35,5,-13,-21
-17,-14,4,15,-11,-4,26,55,35,5,-14,-21
-18,-14,4,15,-11,-4,27,56,35,4,-14,-21
-18,-14,5,15,-12,-3,27,56,35,4,-15,-22
-19,-13,6,15,-13,-2,28,57,34,3,-15,-22
-20,-12,8,16,-14,-1,29,57,34,3,-15,-22
-21,-11,10,16,-15,0,30,58,33,2,-15,-22
-21,-9,11,15,-16,1,30,58,32,1,-16,-23
-21,-8,13,14,-17,3,30,57,32,0,-16,-23
-21,-8,13,14,-17,3,31,57,32,0,-16,-23
-19,-8,11,13,-15,2,31,57,31,0,-16,-23
-15,-7,8,11,-12,0,29,56,29,-2,-18,-24
-15,-7,8,11,-11,1,28,54,26,-5,-18,-24
-19,-6,13,13,-16,3,29,54,25,-5,-17,-23
-23,-6,17,15,-20,5,30,54,24,-5,-16,-22
-23,-7,16,15,-20,5,31,53,23,-6,-15,-21
-23,-7,15,15,-19,4,31,52,21,-6,-14,-20
-22,-5,16,13,-19,5,30,51,18,-7,-14,-19
-21,-3,18,12,-19,7,29,49,15,-7,-14,-18
-20,-2,18,11,-19,8,28,47,13,-8,-13,-17
-19,0,19,10,-19,9,27,45,11,-9,-12,-15
-18,1,19,8,-18,10,26,44,9,-9,-11,-14
-17,3,21,7,-19,11,25,42,6,-10,-10,-13
-17,5,22,6,-19,13,25,40,4,-11,-9,-11
-16,6,22,5,-19,14,24,40,2,-10,-7,-9
-15,6,22,4,-18,14,24,39,0,-10,-6,-7
-14,7,21,3,-17,15,24,38,-1,-10,-5,-6
-13,8,22,2,-17,16,23,36,-3,-10,-4,-4
-13,9,23,2,-17,16,23,35,-6,-11,-3,-3
-12,9,23,1,-17,16,23,34,-7,-11,-2,-2
-12,10,23,1,-17,17,23,33,-9,-11,-1,0
-10,11,23,0,-17,18,22,31,-11,-12,-1,0
-9,12,23,-1,-16,18,21,30,-12,-12,0,1
-9,12,22,-1,-15,17,21,30,-13,-12,0,2
-9,11,22,-1,-15,17,21,29,-14,-12,1,3
-10,12,23,-1,-16,18,21,29,-15,-12,2,4
-9,12,22,-1,-15,18,20,28,-16,-12,2,4
-7,12,21,-2,-14,17,19,28,-17,-13,2,4
-6,13,20,-3,-13,17,18,27,-18,-13,2,4
-4,14,19,-4,-12,17,16,25,-19,-13,2,5
-3,14,17,-5,-10,15,15,25,-19,-13,2,5
-2,14,15,-6,-9,14,14,24,-19,-14,2,6
0,14,14,-7,-7,14,11,24,-19,-14,2,6
1,14,13,-7,-6,14,9,23,-19,-14,2,6
2,15,13,-8,-5,15,6,23,-19,-13,2,6
3,15,13,-9,-5,15,4,22,-20,-13,2,6
3,14,11,-9,-3,13,2,21,-20,-13,2,6
4,12,9,-8,-2,11,0,20,-20,-13,2,6
4,11,7,-7,-1,9,-2,19,-20,-13,2,6
3,10,7,-7,-1,8,-4,18,-21,-13,1,6
3,10,6,-6,-1,8,-6,17,-21,-14,1,5
3,9,6,-6,-1,7,-7,16,-21,-15,0,5
2,7,5,-5,-1,6,-8,15,-22,-15,0,5
3,6,3,-4,0,4,-9,14,-22,-15,0,4
3,4,1,-4,1,3,-10,13,-23,-15,-1,3
3,3,0,-3,1,1,-11,12,-23,-15,-2,3
3,2,-1,-3,2,0,-11,11,-23,-15,-2,2
5,2,-3,-4,4,0,-12,11,-23,-16,-3,1
5,1,-4,-3,4,-1,-12,10,-22,-16,-4,1
4,0,-4,-2,4,-1,-13,10,-22,-15,-4,1
3,0,-4,-1,4,-2,-13,10,-21,-15,-5,1
3,-1,-4,0,4,-2,-13,10,-21,-15,-5,1
2,-2,-4,0,4,-3,-12,10,-20,-14,-4,1
2,-2,-4,0,3,-3,-12,10,-19,-14,-4,1
1,-3,-4,1,3,-4,-12,11,-18,-13,-4,1
0,-4,-4,2,2,-4,-11,12,-16,-12,-3,1
-1,-3,-3,2,1,-3,-11,12,-16,-12,-3,1
-1,-1,-1,1,0,-1,-11,12,-16,-13,-4,0
-1,-1,-1,1,0,-1,-11,12,-16,-12,-4,0
0,-3,-3,2,2,-3,-11,13,-15,-11,-3,0
1,-5,-5,2,3,-5,-11,13,-14,-11,-3,0
2,-5,-6,1,4,-5,-11,13,-15,-11,-4,0
1,-5,-6,1,4,-5,-11,13,-14,-11,-4,0
0,-5,-4,2,2,-5,-10,14,-13,-10,-3,0
-1,-5,-4,2,2,-4,-10,14,-13,-10,-3,0
-1,-4,-4,2,2,-4,-10,14,-13,-10,-4,-1
0,-4,-4,1,3,-4,-10,15,-13,-10,-4,-1
1,-4,-5,1,3,-4,-10,15,-13,-10,-4,-2
1,-3,-4,1,3,-4,-10,14,-13,-11,-5,-3
0,-2,-1,1,1,-2,-11,14,-13,-12,-5,-4
-1,-2,0,1,0,-1,-10,14,-13,-12,-5,-4
-1,-3,-1,1,0,-2,-9,14,-12,-11,-5,-4
0,-5,-5,2,2,-5,-8,15,-12,-11,-5,-4
1,-6,-8,2,5,-7,-8,15,-12,-11,-5,-4
2,-6,-9,2,6,-8,-8,15,-13,-11,-6,-5
0,-6,-6,3,3,-6,-8,15,-13,-11,-7,-5
-2,-6,-3,4,0,-4,-7,16,-12,-11,-6,-4
-3,-7,-3,5,0,-5,-7,16,-12,-11,-6,-4
-4,-8,-4,6,0,-6,-6,16,-12,-11,-6,-4
-4,-8,-4,5,0,-6,-6,16,-12,-11,-6,-4
-3,-7,-5,5,1,-6,-6,16,-12,-12,-6,-5
-3,-7,-6,5,2,-6,-5,15,-13,-13,-7,-6
-3,-8,-5,5,1,-6,-5,15,-13,-13,-7,-6
-4,-9,-4,6,0,-6,-4,15,-13,-13,-7,-6
-5,-9,-3,7,-1,-5,-4,15,-13,-13,-7,-6
-5,-8,-2,6,-1,-5,-4,15,-13,-14,-8,-7
-4,-7,-1,5,-2,-4,-4,15,-14,-15,-8,-7
-4,-5,0,4,-2,-2,-4,14,-14,-15,-9,-8
-4,-5,0,4,-1,-2,-4,14,-14,-16,-9,-8
-5,-6,-1,5,-1,-3,-3,15,-14,-16,-9,-8
-6,-7,0,6,-2,-3,-3,16,-15,-16,-9,-8
-6,-5,2,6,-4,-2,-3,16,-15,-16,-10,-9
-7,-5,3,7,-6,-1,-3,15,-15,-16,-10,-9
-8,-6,3,7,-5,-2,-3,15,-15,-16,-11,-9
-7,-5,2,6,-4,-2,-2,15,-15,-17,-11,-9
-7,-5,2,6,-4,-1,-2,15,-15,-17,-11,-9
-9,-4,4,6,-6,0,-1,15,-15,-17,-11,-9
-9,-3,5,5,-6,0,0,15,-15,-17,-11,-9
-7,-3,4,5,-5,1,1,15,-15,-18,-11,-9
-7,-2,5,5,-6,1,1,16,-15,-18,-11,-9
-9,-2,7,6,-8,2,2,16,-15,-18,-10,-9
-9,-1,8,6,-8,3,2,16,-16,-19,-10,-9
-8,-1,7,5,-7,2,2,16,-17,-20,-11,-10
-8,-1,6,4,-6,2,1,15,-17,-20,-11,-10
-9,-1,7,4,-7,2,1,15,-17,-20,-11,-10
-9,-1,7,4,-7,2,1,15,-18,-20,-11,-10
-9,-1,8,4,-7,3,1,15,-18,-20,-12,-10
-8,0,8,4,-8,3,1,15,-18,-21,-12,-10
-8,0,9,4,-9,4,2,15,-18,-21,-12,-10
-9,0,10,4,-9,5,3,15,-18,-21,-12,-10
-10,0,11,5,-10,5,3,15,-17,-21,-12,-10
-11,0,10,5,-10,4,4,16,-18,-21,-12,-10
-11,-1,8,5,-9,4,5,17,-18,-21,-12,-10
-10,-1,7,5,-8,3,6,17,-18,-21,-12,-10
-8,0,8,4,-8,5,7,17,-19,-22,-12,-10
-8,1,9,3,-9,6,7,17,-19,-22,-12,-10
-9,0,10,4,-9,5,9,18,-18,-21,-11,-9
-9,0,10,5,-9,5,10,18,-18,-21,-11,-9
-9,0,10,4,-9,5,10,18,-18,-22,-11,-9
-8,1,10,3,-9,6,11,17,-19,-22,-12,-10
-7,1,8,2,-7,4,12,18,-19,-22,-11,-10
-6,-1,4,3,-5,1,13,19,-18,-21,-10,-9
-7,-2,4,4,-6,1,14,20,-16,-19,-9,-7
-9,-1,7,5,-8,3,14,20,-16,-19,-9,-7
-8,1,9,4,-9,5,13,20,-16,-20,-10,-8
-7,2,9,3,-9,6,11,19,-17,-21,-10,-8
-5,2,9,2,-8,6,10,19,-17,-21,-10,-8
-5,2,8,1,-7,5,9,19,-17,-21,-10,-8
-5,2,8,1,-6,5,8,19,-17,-20,-10,-8
-5,2,7,1,-6,5,7,19,-17,-20,-10,-7
-5,1,6,1,-5,4,5,19,-17,-19,-9,-7
-4,1,5,0,-4,3,3,19,-16,-19,-9,-7
-3,1,4,0,-3,2,1,19,-16,-19,-9,-7
-2,1,3,0,-3,2,0,19,-16,-19,-9,-7
-1,0,3,1,-2,1,-1,19,-17,-19,-9,-7
-1,0,2,0,-1,0,-2,19,-17,-19,-9,-7
0,0,2,0,-1,1,-3,19,-17,-19,-9,-7
0,1,2,0,-1,2,-4,18,-18,-19,-9,-7
0,2,2,-1,-1,2,-5,17,-18,-20,-9,-7
0,1,1,-1,0,1,-7,16,-19,-20,-9,-7
0,1,1,-1,0,1,-8,15,-19,-20,-10,-7
0,1,1,-1,0,1,-9,15,-20,-20,-10,-8
1,1,0,-1,0,0,-9,15,-21,-20,-11,-8
2,-1,-2,0,2,-2,-9,15,-20,-20,-10,-7
3,-2,-5,0,3,-4,-9,16,-20,-19,-10,-7
3,-2,-6,0,5,-4,-10,15,-20,-19,-10,-7
3,-2,-6,0,4,-4,-10,15,-20,-19,-9,-7
2,-3,-5,0,3,-4,-10,16,-19,-18,-9,-6
1,-2,-4,0,3,-3,-10,16,-18,-17,-8,-6
1,-2,-3,0,2,-3,-10,16,-18,-17,-8,-6
1,-1,-3,0,2,-2,-9,16,-18,-18,-8,-6
1,-1,-2,0,2,-1,-9,16,-19,-18,-9,-7
0,1,0,-1,0,1,-9,15,-20,-19,-8,-7
0,4,4,-2,-2,4,-10,13,-20,-18,-7,-6
0,6,6,-3,-3,6,-11,10,-20,-15,-5,-3
3,9,6,-6,-2,7,-13,8,-19,-11,-1,0
7,12,4,-9,1,8,-15,4,-18,-7,3,3
10,14,4,-12,2,9,-17,1,-18,-4,7,7
10,17,6,-13,1,12,-18,0,-18,-1,11,11
11,19,8,-15,1,14,-18,0,-19,1,15,15
13,18,5,-16,4,12,-17,3,-21,2,18,20
17,17,0,-17,9,9,-16,6,-23,3,22,25
23,17,-5,-20,14,7,-17,6,-26,4,25,30
29,19,-10,-24,19,5,-18,4,-28,5,29,35
34,21,-14,-27,24,4,-18,1,-30,6,34,42
39,22,-17,-30,28,2,-17,-4,-30,9,40,49
44,25,-19,-35,32,2,-17,-12,-31,12,47,58
50,31,-18,-40,34,6,-19,-24,-32,17,55,67
55,41,-14,-48,35,13,-24,-41,-34,24,66,78
62,51,-10,-57,36,20,-33,-63,-37,32,76,89
69,55,-14,-62,42,20,-46,-88,-43,39,84,97
77,51,-26,-64,52,12,-59,-111,-51,44,88,101
84,41,-44,-63,64,-1,-73,-131,-58,45,88,102
89,26,-63,-58,76,-18,-84,-144,-64,41,83,98
87,8,-78,-49,83,-35,-91,-149,-66,34,73,89
80,-8,-88,-37,84,-48,-97,-150,-65,26,61,78
70,-24,-93,-23,82,-59,-101,-148,-63,18,47,64
60,-38,-97,-11,79,-67,-102,-141,-57,11,33,50
52,-47,-98,-2,75,-72,-100,-130,-47,8,22,37
46,-53,-98,4,72,-75,-96,-114,-36,5,11,24
41,-56,-98,7,69,-76,-91,-96,-24,3,1,11
37,-57,-94,10,65,-75,-84,-80,-13,0,-9,0
30,-56,-87,12,58,-71,-75,-64,-2,-2,-16,-9
24,-52,-76,14,50,-64,-66,-49,7,-1,-18,-14
18,-47,-64,14,41,-56,-57,-38,13,1,-18,-17
12,-43,-54,15,33,-48,-48,-29,16,2,-18,-19
7,-38,-45,16,26,-41,-40,-21,15,1,-19,-20
2,-34,-35,16,18,-34,-31,-13,13,0,-19,-21
-3,-29,-26,16,11,-27,-22,-3,11,-3,-20,-22
-7,-25,-18,16,5,-21,-14,6,10,-5,-20,-22
-9,-22,-13,16,1,-18,-7,15,9,-7,-20,-22
-10,-21,-10,15,0,-16,-2,24,8,-8,-20,-23
-10,-20,-9,15,-1,-15,1,30,7,-10,-21,-24
-10,-19,-8,14,-1,-14,4,35,7,-11,-21,-25
-11,-18,-6,15,-2,-12,6,39,8,-11,-21,-25
-12,-17,-5,15,-3,-11,7,42,9,-11,-21,-25
-11,-16,-6,14,-2,-11,8,44,9,-12,-21,-25
-10,-16,-6,13,-2,-11,8,45,9,-12,-22,-26
-11,-16,-6,14,-2,-11,9,46,10,-11,-22,-26
-11,-16,-5,14,-3,-11,9,46,11,-11,-22,-27
-11,-15,-3,13,-4,-9,8,45,11,-11,-22,-27
-11,-14,-2,12,-4,-8,9,45,12,-11,-22,-28
-13,-15,-2,14,-5,-8,10,46,13,-10,-21,-27
-14,-16,-2,15,-5,-9,12,47,15,-8,-20,-26
-12,-15,-4,14,-3,-9,14,48,16,-8,-19,-26
-10,-15,-5,12,-2,-10,14,49,17,-7,-19,-26
-10,-14,-5,12,-3,-9,14,49,17,-7,-18,-25
-10,-13,-3,11,-4,-8,14,49,17,-6,-18,-25
-11,-12,-1,11,-5,-6,14,48,17,-6,-18,-25
-11,-12,0,11,-6,-6,14,48,17,-6,-18,-25
-11,-13,-1,12,-5,-7,15,48,18,-6,-18,-25
-11,-13,-1,12,-5,-7,15,48,18,-5,-18,-25
-11,-11,0,11,-5,-6,15,47,19,-5,-18,-25
-11,-12,-1,12,-5,-6,16,48,20,-5,-17,-25
-12,-14,-2,13,-5,-8,18,49,21,-4,-16,-24
-14,-14,0,14,-7,-7,19,50,23,-3,-15,-23
-14,-11,4,12,-9,-3,19,50,23,-3,-16,-24
-13,-9,6,11,-9,-2,20,51,23,-3,-16,-24
-14,-10,6,12,-10,-2,21,52,24,-2,-15,-24
-16,-11,5,14,-10,-3,23,53,26,0,-14,-23
-16,-11,5,14,-10,-3,24,54,27,0,-14,-23
-17,-10,6,14,-11,-2,25,54,27,0,-14,-23
-17,-10,7,14,-12,-1,27,55,28,0,-14,-22
-17,-12,5,14,-11,-3,28,55,29,0,-13,-21
-16,-13,4,14,-10,-5,29,55,30,1,-13,-20
-15,-13,3,14,-9,-5,30,55,31,1,-13,-20
-15,-13,3,14,-8,-5,30,55,31,1,-13,-20
-15,-13,2,14,-8,-5,30,55,31,2,-12,-20
-15,-13,2,14,-8,-5,29,55,31,2,-12,-19
-14,-12,3,13,-8,-5,29,55,31,2,-11,-19
-14,-11,3,13,-8,-4,28,55,32,3,-11,-19
-13,-10,3,12,-8,-4,27,54,32,3,-11,-18
-13,-10,3,12,-8,-4,26,53,32,3,-10,-18
-13,-10,3,11,-8,-4,24,52,32,3,-10,-17
-13,-10,3,11,-8,-4,22,49,32,3,-10,-17
-13,-10,3,11,-7,-4,20,46,32,2,-11,-17
-12,-8,4,10,-7,-2,18,43,31,2,-11,-18
-11,-6,5,9,-7,-1,16,41,30,1,-12,-19
-11,-6,5,9,-8,-1,15,39,29,1,-12,-19
-12,-8,5,10,-8,-2,15,38,29,0,-12,-19
-13,-9,4,10,-8,-3,14,37,28,0,-12,-19
-13,-9,5,10,-8,-2,13,36,26,-1,-12,-19
-13,-8,6,10,-9,-1,12,34,26,-2,-13,-20
-13,-8,6,10,-10,0,11,33,26,-2,-14,-21
-14,-8,6,11,-10,0,11,32,26,-2,-14,-21
-14,-8,6,11,-10,0,12,31,25,-2,-14,-20
-15,-7,7,11,-11,0,12,30,25,-2,-13,-20
-15,-7,7,11,-11,1,12,28,25,-2,-13,-19
-15,-6,9,10,-11,2,12,27,25,-2,-13,-19
-15,-4,11,10,-12,3,12,25,25,-2,-12,-18
-15,-3,13,9,-13,5,12,23,24,-2,-12,-18
-15,-1,14,8,-14,6,12,22,24,-2,-11,-17
-14,1,15,6,-14,8,12,20,23,-2,-10,-16
-13,3,16,5,-15,9,12,19,22,-2,-9,-14
-13,4,17,4,-15,10,12,16,21,-2,-8,-13
-12,5,17,3,-14,11,11,14,20,-2,-7,-12
-11,5,17,2,-13,11,11,12,18,-2,-6,-11
-11,5,17,2,-13,11,11,10,17,-1,-4,-9
-11,6,18,2,-13,12,11,8,15,-1,-3,-7
-11,7,18,1,-14,12,10,5,13,-1,-1,-5
-10,8,19,1,-14,13,9,2,11,-1,0,-4
-9,10,20,0,-15,15,7,0,9,-1,0,-3
-9,12,22,-1,-15,17,6,-3,7,-2,1,-3
-8,15,23,-3,-15,19,5,-6,5,-2,1,-3
-7,15,23,-4,-15,19,4,-9,3,-2,1,-2
-7,15,22,-4,-14,19,4,-11,2,-2,2,-1
-7,15,22,-4,-14,18,3,-13,1,-3,3,0
-6,14,21,-4,-13,18,3,-15,0,-3,4,1
-5,14,20,-4,-12,17,2,-17,-2,-4,4,2
-4,14,19,-5,-12,17,2,-19,-4,-4,5,2
-4,15,19,-5,-11,17,1,-21,-5,-4,5,3
-3,16,19,-6,-11,17,1,-24,-7,-4,6,4
-2,16,19,-7,-11,17,0,-26,-8,-5,6,5
-2,17,20,-7,-11,18,0,-28,-10,-6,6,5
-1,18,20,-8,-10,19,-1,-30,-11,-7,6,5
-2,18,21,-8,-11,19,-2,-32,-13,-8,6,5
-2,18,21,-8,-11,19,-3,-34,-14,-9,5,5
-1,19,19,-9,-10,19,-5,-37,-16,-11,3,4
-1,20,20,-9,-10,20,-5,-39,-17,-12,2,3
-3,20,23,-8,-13,22,-5,-40,-17,-12,2,3
-3,19,23,-8,-13,21,-4,-40,-17,-12,2,3
-1,18,19,-9,-10,19,-4,-42,-18,-13,2,2
1,17,16,-9,-7,16,-4,-43,-19,-14,1,1
1,14,13,-8,-6,13,-3,-43,-18,-13,1,1
0,12,13,-6,-6,12,-2,-42,-17,-12,2,2
-1,12,14,-5,-7,13,-2,-43,-17,-12,2,2
-2,13,15,-6,-8,14,-2,-44,-18,-13,1,1
-2,14,16,-6,-9,15,-3,-45,-19,-14,0,1
-2,13,15,-6,-9,14,-3,-45,-19,-14,0,1
-2,11,13,-5,-7,12,-3,-46,-19,-14,0,1
-1,9,10,-5,-5,10,-3,-46,-19,-14,0,1
-1,8,8,-4,-4,7,-3,-47,-19,-14,0,1
-1,7,8,-4,-3,7,-3,-47,-19,-14,0,1
-2,6,8,-3,-4,7,-3,-48,-19,-14,0,1
-2,4,6,-1,-4,5,-3,-48,-19,-14,0,1
-2,2,4,0,-2,3,-3,-48,-19,-14,-1,0
-1,2,3,0,-2,3,-3,-49,-20,-15,-2,-1
-1,2,4,-1,-2,3,-3,-50,-19,-15,-3,-2
-1,2,5,-1,-2,3,-2,-50,-19,-15,-4,-3
-1,3,5,-1,-2,3,-2,-50,-19,-15,-4,-3
0,3,5,-2,-2,3,-2,-51,-19,-15,-4,-4
0,4,5,-3,-1,4,-3,-52,-18,-16,-4,-4
0,4,5,-2,-2,5,-3,-52,-17,-16,-5,-4
0,3,4,-1,-2,4,-3,-52,-16,-15,-5,-4
0,3,2,-1,-1,3,-4,-52,-16,-15,-5,-4
0,2,2,-1,-1,2,-5,-52,-16,-15,-5,-4
0,1,1,-1,0,1,-5,-52,-16,-15,-5,-4
0,1,1,0,0,0,-4,-52,-15,-14,-5,-5
0,0,0,0,0,0,-4,-52,-15,-15,-6,-6
0,0,0,0,1,-1,-4,-53,-16,-15,-6,-6
0,-1,-1,0,1,-1,-3,-53,-16,-16,-7,-7
0,-2,-1,1,1,-1,-2,-53,-15,-15,-7,-7
0,-1,-1,0,1,-1,-1,-52,-14,-14,-6,-7
-1,-1,-1,1,0,-1,0,-51,-14,-14,-6,-7
-1,-1,0,1,0,-1,1,-51,-13,-14,-6,-7
0,0,0,0,0,-1,2,-50,-13,-14,-6,-7
0,0,0,0,0,0,3,-50,-13,-14,-6,-6
0,0,0,0,0,0,4,-49,-13,-13,-6,-6
0,0,1,0,-1,0,5,-48,-12,-13,-5,-5
-1,0,2,0,-1,1,6,-47,-11,-12,-4,-4
-1,1,3,0,-2,2,6,-47,-10,-11,-3,-4
-1,2,4,0,-2,3,6,-46,-9,-10,-3,-5
-2,2,5,0,-3,4,5,-46,-9,-10,-3,-5
-2,3,6,0,-3,4,5,-46,-8,-9,-3,-5
-2,4,7,-1,-4,5,5,-45,-7,-8,-2,-4
0,7,7,-4,-2,7,5,-45,-7,-8,-2,-4
3,8,6,-6,-1,7,4,-44,-6,-7,-2,-4
1,7,5,-5,-1,6,5,-43,-4,-6,-1,-3
0,5,5,-2,-2,5,6,-41,-3,-5,0,-2
0,4,5,-2,-1,5,7,-41,-3,-5,0,-2
0,5,4,-2,-1,5,7,-41,-3,-5,0,-2
2,5,3,-4,0,4,6,-41,-3,-6,-1,-3
4,4,1,-5,2,3,4,-41,-4,-6,-1,-3
4,3,0,-4,3,1,3,-41,-4,-5,0,-2
2,3,1,-3,1,2,2,-41,-3,-5,0,-2
1,3,2,-2,0,2,1,-40,-3,-6,0,-2
2,4,2,-3,1,2,0,-40,-4,-6,0,-2
3,4,1,-3,1,2,-1,-40,-4,-6,0,-2
3,4,0,-3,2,2,-3,-40,-4,-6,0,-2
4,4,0,-3,2,2,-4,-40,-4,-6,0,-2
4,4,1,-4,2,2,-5,-40,-5,-6,-1,-2
3,3,1,-4,1,2,-6,-40,-5,-6,-1,-2
3,3,1,-4,1,2,-7,-40,-5,-6,-2,-3
2,3,2,-3,0,2,-7,-40,-5,-7,-2,-3
3,5,3,-4,0,4,-8,-40,-5,-7,-2,-3
4,6,4,-5,0,5,-8,-40,-5,-7,-3,-3
4,4,1,-4,1,3,-7,-39,-4,-7,-2,-3
1,1,0,-1,1,1,-5,-37,-3,-5,0,-2
0,0,1,0,0,1,-5,-36,-2,-5,0,-2
1,1,1,-1,0,1,-5,-36,-2,-6,-1,-3
1,1,1,-1,0,1,-5,-36,-2,-6,-1,-3
1,0,0,0,0,0,-5,-35,-2,-6,-1,-3
1,-1,-1,0,1,-1,-4,-35,-3,-7,-2,-4
1,-2,-2,0,2,-2,-4,-36,-4,-8,-2,-4
0,-2,-2,1,1,-2,-5,-38,-7,-9,-2,-4
0,0,0,0,0,0,-6,-41,-9,-9,-1,-3
0,2,2,-1,0,3,-8,-44,-9,-7,1,-1
0,4,4,-3,-1,4,-9,-47,-9,-4,4,2
2,6,4,-5,0,5,-11,-50,-10,-1,7,5
4,8,4,-7,0,6,-13,-52,-11,0,10,9
8,10,2,-9,2,6,-14,-53,-12,2,13,12
12,11,-1,-11,6,5,-14,-51,-13,4,16,17
17,12,-4,-14,10,4,-14,-49,-14,7,21,22
21,15,-5,-18,13,5,-14,-47,-13,11,27,29
25,19,-5,-22,16,7,-14,-46,-12,15,34,35
29,22,-7,-26,18,7,-12,-44,-9,19,40,42
34,23,-10,-29,22,6,-10,-44,-8,23,47,50
38,27,-11,-33,24,7,-9,-49,-9,25,53,57
42,34,-8,-38,25,12,-10,-62,-11,27,59,65
47,42,-4,-45,25,18,-16,-83,-14,33,69,76
