leadI,leadII,leadIII,leadaVR,leadaVL,leadaVF,leadV1,leadV2,leadV3,leadV4,leadV5,leadV6
0,0,0,0,0,0,0,0,1,-1,7,0
1,0,-1,0,1,-1,1,1,4,-2,18,0
1,0,-1,-1,2,-1,2,1,6,-2,25,0
2,0,-2,-1,2,-1,3,0,6,-3,26,-1
3,0,-2,-2,3,-1,3,-2,4,-6,22,-3
4,0,-3,-2,3,-1,3,-3,3,-10,18,-4
3,-1,-3,-1,2,-2,3,-4,1,-14,14,-6
2,-2,-4,0,2,-3,3,-4,0,-15,14,-6
3,-1,-4,0,3,-3,4,-3,0,-14,19,-5
4,-1,-5,-1,4,-3,5,-2,2,-11,24,-4
4,-1,-5,-1,4,-4,5,-1,3,-9,28,-3
3,-1,-5,-1,4,-4,6,-1,3,-9,27,-3
3,-1,-5,-1,4,-3,6,-3,2,-11,23,-4
3,-2,-6,-1,4,-4,6,-4,0,-14,17,-6
3,-3,-7,0,5,-5,6,-6,-1,-17,12,-7
3,-2,-6,0,4,-4,7,-5,-2,-18,11,-8
3,-1,-5,-1,4,-3,8,-4,-1,-16,15,-7
3,-1,-5,0,4,-3,8,-2,0,-14,19,-5
3,-1,-6,0,4,-4,8,-2,1,-11,23,-4
4,-2,-7,-1,5,-4,7,-2,1,-10,23,-4
5,-3,-8,0,6,-5,6,-3,0,-11,19,-4
4,-3,-8,0,6,-5,6,-5,-1,-13,14,-4
4,-2,-7,0,5,-5,6,-6,-2,-15,9,-5
5,-1,-6,-2,5,-4,6,-6,-3,-16,6,-5
5,-1,-6,-2,6,-4,5,-6,-4,-15,6,-5
4,-2,-6,-1,5,-5,5,-5,-3,-14,9,-5
3,-3,-6,0,4,-5,5,-5,-3,-12,12,-5
2,-3,-5,0,3,-4,6,-5,-3,-11,13,-5
1,-2,-4,0,2,-3,6,-6,-3,-11,11,-5
1,-2,-4,0,2,-3,6,-7,-5,-12,6,-6
1,-2,-3,0,2,-3,5,-8,-6,-14,0,-6
2,0,-2,-1,2,-2,5,-9,-7,-15,-3,-6
3,1,-2,-2,2,-1,5,-9,-7,-14,-3,-6
3,2,-2,-2,2,0,5,-9,-7,-13,-1,-5
3,2,-1,-2,2,0,5,-9,-7,-12,1,-5
3,2,-1,-2,1,0,5,-10,-7,-10,2,-5
2,1,-1,-1,1,0,4,-10,-8,-9,1,-5
2,0,-1,-1,1,0,4,-11,-9,-10,-4,-5
3,0,-3,-1,3,-1,3,-13,-11,-12,-10,-6
4,1,-3,-2,4,-2,3,-14,-12,-13,-16,-6
3,1,-2,-2,3,-1,4,-14,-13,-13,-19,-5
4,1,-3,-3,3,-1,5,-13,-13,-12,-19,-5
6,1,-5,-4,5,-2,5,-13,-14,-11,-19,-6
7,0,-7,-3,6,-4,5,-14,-15,-10,-19,-6
7,-1,-8,-3,7,-5,5,-15,-18,-10,-22,-6
8,-2,-10,-3,9,-6,5,-19,-22,-12,-27,-6
9,-3,-13,-3,11,-8,5,-23,-26,-15,-35,-7
9,-5,-14,-2,12,-10,5,-27,-30,-18,-41,-7
7,-6,-13,0,10,-10,5,-30,-34,-20,-46,-6
5,-7,-12,0,9,-10,4,-33,-39,-21,-47,-4
8,-6,-14,-1,11,-10,3,-36,-43,-22,-46,-2
14,-3,-18,-6,16,-10,0,-38,-47,-22,-42,3
23,-1,-24,-11,24,-12,-2,-38,-50,-21,-37,12
34,2,-32,-18,33,-14,-6,-37,-52,-20,-33,23
45,6,-37,-25,41,-15,-9,-36,-56,-20,-30,36
53,11,-40,-32,47,-14,-13,-36,-61,-20,-27,49
60,17,-43,-39,52,-13,-16,-36,-65,-20,-23,62
67,23,-44,-46,56,-11,-20,-35,-69,-20,-18,75
72,30,-42,-51,57,-7,-22,-33,-71,-19,-13,86
71,37,-35,-54,52,0,-22,-28,-69,-16,-10,93
63,43,-20,-53,41,11,-17,-20,-61,-12,-12,92
49,50,1,-50,24,26,-9,-10,-50,-6,-19,86
33,60,27,-46,3,44,1,-1,-36,0,-32,75
15,70,55,-43,-20,63,11,9,-20,10,-47,61
-1,79,81,-39,-41,80,21,20,0,24,-60,47
-13,83,97,-35,-55,89,31,33,20,39,-70,32
-20,80,101,-30,-61,90,42,48,43,58,-76,16
-25,73,99,-24,-62,86,52,65,67,77,-81,0
-30,67,97,-18,-64,82,61,78,89,93,-86,-14
-33,63,96,-15,-65,80,68,88,107,106,-91,-24
-34,60,94,-13,-64,77,74,97,121,115,-97,-31
-35,55,91,-10,-63,73,77,106,133,121,-106,-37
-36,49,86,-6,-62,67,80,115,144,127,-114,-43
-38,42,80,-2,-60,61,82,123,154,131,-122,-49
-40,35,76,2,-59,55,87,129,161,131,-127,-54
-40,31,71,4,-57,51,92,135,168,131,-128,-58
-39,28,66,6,-54,47,96,139,173,131,-127,-59
-39,24,62,8,-51,43,99,143,178,131,-125,-58
-37,21,58,9,-48,40,102,145,183,132,-124,-55
-34,20,54,8,-44,37,104,143,183,130,-124,-52
-31,18,50,7,-40,34,104,136,179,125,-125,-49
-31,15,46,8,-38,30,103,127,171,119,-126,-46
-31,10,41,10,-36,25,102,116,162,113,-125,-45
-30,7,37,11,-34,22,100,99,152,109,-123,-43
-27,7,35,10,-32,21,99,77,141,104,-121,-42
-27,8,35,9,-31,21,97,52,130,98,-119,-40
-28,8,35,10,-31,21,96,28,118,90,-121,-40
-28,6,34,11,-31,20,93,5,106,79,-127,-40
-26,6,32,11,-29,18,91,-13,95,70,-133,-40
-24,6,30,9,-27,18,89,-25,86,64,-137,-39
-24,6,30,9,-27,17,87,-32,78,59,-137,-38
-24,5,29,10,-27,16,85,-38,70,56,-136,-37
-23,4,27,10,-26,15,83,-43,64,54,-134,-37
-21,5,25,8,-24,15,81,-47,56,51,-132,-36
-19,5,24,7,-22,15,79,-49,48,47,-131,-36
-18,5,23,7,-20,14,77,-51,40,43,-132,-35
-17,4,21,6,-18,13,75,-51,31,38,-135,-35
-15,4,19,6,-17,12,71,-52,22,34,-137,-35
-13,4,17,5,-15,11,67,-51,13,31,-138,-34
-12,3,15,4,-14,9,62,-49,7,31,-136,-32
-12,2,13,5,-13,8,58,-47,2,31,-133,-30
-10,1,12,4,-12,7,53,-45,-3,30,-131,-29
-8,2,11,3,-10,6,49,-44,-9,28,-130,-27
-7,2,9,3,-9,6,45,-43,-14,25,-131,-26
-5,2,7,2,-6,5,41,-42,-19,21,-135,-26
-4,2,6,2,-5,3,37,-41,-24,16,-137,-24
-5,0,4,2,-4,2,32,-39,-28,13,-138,-23
-3,-1,1,2,-2,0,26,-37,-33,10,-138,-22
-1,-3,-2,2,0,-3,21,-34,-35,8,-135,-21
0,-4,-5,2,3,-4,16,-32,-37,7,-132,-21
2,-6,-8,2,5,-6,11,-30,-37,6,-130,-20
3,-7,-10,2,6,-8,7,-28,-38,5,-129,-19
3,-8,-11,3,6,-9,4,-27,-38,4,-130,-18
3,-8,-12,2,7,-10,2,-27,-38,3,-131,-17
5,-8,-13,2,8,-11,0,-27,-39,2,-132,-17
4,-10,-14,2,9,-12,0,-27,-40,1,-134,-17
3,-10,-14,3,8,-12,1,-26,-41,1,-133,-18
4,-10,-14,3,9,-12,1,-26,-41,2,-132,-18
5,-10,-15,2,10,-12,2,-26,-41,2,-132,-19
6,-10,-16,2,11,-13,3,-26,-41,2,-132,-19
5,-11,-16,3,11,-13,3,-26,-41,2,-135,-20
4,-11,-15,4,10,-13,3,-25,-41,2,-139,-20
2,-11,-14,5,8,-13,4,-24,-41,2,-141,-20
1,-12,-14,6,7,-13,5,-23,-40,3,-143,-19
1,-13,-15,6,8,-15,5,-23,-40,4,-144,-19
3,-11,-16,4,9,-14,6,-22,-39,5,-143,-19
6,-9,-17,1,11,-13,6,-21,-38,7,-142,-18
7,-10,-17,1,12,-14,7,-21,-38,7,-142,-17
6,-11,-17,2,11,-14,7,-22,-38,8,-143,-17
4,-11,-15,3,9,-13,7,-22,-38,8,-143,-16
3,-11,-14,4,8,-12,7,-22,-37,9,-143,-14
3,-11,-14,3,9,-12,7,-22,-37,9,-142,-13
5,-11,-15,3,10,-13,6,-22,-37,9,-141,-12
6,-10,-16,2,11,-14,5,-22,-37,8,-139,-12
5,-10,-16,2,10,-13,4,-21,-37,9,-136,-11
5,-10,-15,2,10,-13,5,-20,-36,10,-133,-10
6,-8,-15,1,10,-12,5,-19,-35,11,-131,-10
7,-8,-15,0,11,-12,5,-20,-36,10,-131,-11
8,-8,-16,0,12,-12,4,-21,-37,9,-131,-12
8,-7,-16,0,12,-12,3,-21,-37,10,-131,-12
8,-7,-15,0,12,-11,3,-20,-37,11,-130,-12
7,-7,-15,0,11,-11,3,-19,-35,13,-128,-11
7,-6,-14,0,11,-10,3,-18,-34,15,-125,-10
7,-6,-14,0,11,-10,3,-18,-32,16,-124,-10
7,-6,-13,0,10,-9,3,-17,-31,18,-122,-10
6,-6,-12,0,9,-9,3,-16,-30,19,-121,-11
6,-6,-12,0,9,-9,2,-16,-29,19,-120,-11
6,-6,-12,0,9,-9,1,-16,-29,20,-119,-11
6,-6,-12,0,8,-9,0,-16,-28,20,-117,-12
4,-7,-11,1,7,-9,-1,-16,-28,21,-115,-12
3,-7,-10,2,6,-9,-3,-15,-27,21,-113,-13
3,-7,-11,2,6,-9,-4,-15,-27,21,-110,-13
4,-7,-11,2,7,-10,-5,-15,-26,22,-108,-12
4,-7,-11,2,8,-9,-5,-15,-25,23,-106,-12
4,-6,-10,1,7,-8,-5,-14,-24,23,-106,-11
3,-7,-10,2,6,-8,-5,-14,-24,24,-106,-11
2,-8,-10,3,6,-9,-5,-14,-24,24,-107,-12
3,-9,-12,3,7,-10,-6,-13,-24,24,-106,-12
4,-9,-14,2,9,-11,-7,-13,-24,24,-105,-12
6,-9,-15,2,10,-12,-8,-13,-24,24,-105,-12
7,-8,-15,1,11,-11,-9,-12,-24,24,-105,-12
7,-8,-15,1,12,-12,-10,-12,-24,23,-107,-13
6,-9,-15,1,11,-12,-10,-12,-24,23,-109,-13
5,-9,-15,1,11,-12,-9,-11,-24,23,-110,-12
5,-9,-16,1,10,-13,-9,-10,-24,23,-110,-12
5,-10,-16,1,10,-13,-9,-10,-25,22,-109,-12
7,-8,-16,0,11,-12,-9,-9,-25,23,-107,-11
8,-8,-16,0,11,-12,-10,-9,-25,23,-106,-11
7,-8,-16,0,11,-12,-12,-9,-26,22,-104,-11
5,-8,-15,1,10,-12,-13,-8,-26,22,-103,-11
4,-9,-14,2,9,-12,-13,-8,-26,22,-101,-11
5,-8,-14,1,10,-11,-13,-7,-26,23,-99,-11
6,-8,-14,1,10,-11,-13,-6,-26,23,-97,-11
6,-9,-15,1,10,-12,-13,-5,-26,23,-95,-11
6,-10,-16,2,10,-13,-13,-4,-25,23,-93,-11
6,-10,-17,2,11,-13,-14,-4,-25,23,-90,-11
7,-11,-18,2,12,-14,-15,-3,-25,23,-88,-11
8,-11,-20,2,14,-15,-16,-3,-26,23,-85,-10
8,-12,-20,2,14,-16,-18,-3,-26,23,-83,-10
8,-12,-21,2,15,-16,-20,-3,-27,22,-82,-10
10,-11,-22,0,16,-16,-22,-3,-28,22,-81,-9
11,-11,-22,0,17,-16,-23,-2,-28,21,-81,-9
10,-12,-22,1,16,-17,-25,-2,-29,21,-80,-8
7,-14,-22,3,14,-17,-26,-2,-29,20,-79,-8
6,-15,-21,3,14,-17,-26,-2,-29,20,-77,-7
7,-15,-22,3,14,-18,-28,-3,-30,19,-76,-7
7,-15,-22,4,14,-19,-29,-4,-31,18,-76,-7
9,-14,-22,2,15,-18,-30,-5,-31,18,-75,-6
12,-10,-22,-1,17,-16,-30,-4,-31,17,-75,-5
13,-8,-22,-2,17,-15,-30,-5,-32,16,-74,-5
11,-9,-22,-1,16,-16,-30,-5,-32,16,-73,-4
12,-9,-22,-1,17,-16,-29,-5,-32,16,-71,-3
12,-9,-22,-2,17,-15,-29,-6,-33,15,-70,-3
13,-8,-22,-2,18,-15,-29,-6,-33,14,-68,-2
13,-7,-21,-3,18,-14,-30,-6,-34,13,-67,-2
12,-6,-19,-3,17,-13,-29,-6,-34,13,-66,-1
12,-6,-18,-3,15,-12,-29,-6,-34,14,-64,0
12,-4,-17,-4,15,-10,-29,-5,-33,14,-63,1
13,-3,-16,-5,15,-9,-29,-5,-33,14,-62,1
13,-2,-16,-5,14,-9,-29,-5,-33,14,-61,2
12,-2,-14,-4,13,-8,-28,-4,-32,13,-59,2
11,-2,-13,-4,12,-8,-28,-4,-32,13,-58,3
11,-2,-13,-4,12,-8,-28,-3,-31,13,-57,3
12,-1,-13,-5,12,-7,-28,-3,-31,12,-56,3
12,-1,-13,-6,13,-7,-28,-3,-31,11,-55,3
11,-1,-12,-5,12,-6,-27,-2,-30,10,-54,3
10,0,-10,-6,10,-5,-26,-1,-29,11,-53,3
11,2,-9,-7,10,-3,-24,0,-27,12,-50,5
11,3,-8,-7,9,-2,-22,2,-25,14,-48,6
10,3,-8,-6,9,-2,-22,3,-23,14,-47,7
10,3,-7,-6,8,-1,-22,4,-22,15,-46,7
9,3,-5,-6,7,0,-21,5,-21,15,-45,8
8,2,-4,-5,6,0,-21,5,-20,15,-44,8
8,1,-5,-5,6,-1,-21,6,-20,15,-43,8
9,1,-6,-6,7,-2,-21,6,-19,14,-41,8
10,2,-6,-7,8,-2,-20,6,-18,14,-37,9
10,4,-6,-8,7,-1,-19,7,-17,14,-33,10
8,4,-4,-7,5,0,-18,8,-16,14,-31,11
6,4,-2,-5,4,1,-17,8,-15,14,-30,11
6,3,-3,-4,4,0,-17,8,-15,13,-30,11
6,3,-3,-4,4,0,-16,8,-14,13,-30,11
5,3,-2,-4,4,0,-16,8,-14,13,-31,11
5,3,-2,-3,3,0,-17,8,-14,13,-31,10
4,3,-2,-3,3,0,-17,7,-14,12,-31,10
5,3,-2,-4,3,0,-16,7,-14,13,-30,10
6,4,-2,-5,4,0,-16,7,-14,13,-29,10
8,5,-3,-6,5,1,-15,6,-14,13,-29,10
7,4,-2,-5,4,1,-14,5,-15,12,-28,10
6,4,-2,-4,4,1,-13,4,-15,12,-28,9
7,4,-2,-5,4,1,-13,4,-15,11,-27,9
6,5,-1,-5,3,2,-12,4,-14,11,-27,10
5,4,0,-5,3,2,-11,3,-15,10,-26,10
5,4,-1,-5,3,1,-12,2,-15,10,-25,10
6,5,-1,-6,3,2,-12,2,-15,10,-23,11
6,6,0,-6,3,3,-12,2,-15,10,-20,12
5,6,0,-5,2,3,-13,2,-15,9,-19,12
5,6,1,-5,1,4,-15,1,-15,8,-18,13
5,7,1,-5,1,4,-17,0,-16,8,-17,13
5,7,1,-6,2,4,-18,0,-17,7,-16,13
6,7,1,-7,3,4,-18,0,-17,7,-16,13
7,7,1,-7,3,4,-18,-1,-18,6,-16,12
5,6,1,-6,1,3,-18,-1,-18,5,-16,12
2,3,1,-3,0,2,-17,-2,-19,4,-16,11
0,1,1,-1,-1,1,-16,-2,-19,3,-16,11
0,1,0,0,-1,1,-15,-3,-20,2,-17,10
1,0,0,-1,0,0,-15,-3,-20,2,-17,10
2,1,-1,-2,1,0,-15,-3,-19,2,-16,11
4,4,0,-4,1,2,-15,-3,-19,1,-16,11
4,5,1,-5,0,3,-14,-4,-19,1,-15,12
2,5,3,-4,-1,4,-14,-4,-20,0,-15,12
1,5,4,-3,-2,5,-13,-4,-20,0,-14,12
1,5,4,-3,-2,5,-13,-4,-20,0,-14,12
1,5,4,-3,-2,5,-13,-4,-20,0,-14,11
1,4,4,-3,-2,5,-14,-4,-20,0,-13,11
2,5,4,-4,-1,5,-14,-4,-20,-2,-13,11
3,6,4,-5,0,5,-15,-5,-21,-4,-13,12
4,7,4,-6,0,6,-15,-5,-21,-6,-12,13
4,7,4,-6,0,5,-16,-6,-21,-7,-12,13
4,6,3,-5,0,4,-17,-6,-22,-9,-11,12
3,6,3,-5,0,4,-17,-6,-22,-9,-10,13
3,6,4,-5,0,5,-17,-5,-22,-10,-9,14
2,6,4,-4,-1,5,-17,-5,-22,-11,-9,15
2,5,4,-4,0,5,-17,-4,-22,-12,-8,16
1,4,3,-3,-1,4,-18,-4,-22,-13,-8,16
0,3,2,-2,-1,3,-19,-4,-22,-15,-8,17
2,3,1,-3,0,2,-20,-3,-23,-15,-8,17
5,4,0,-5,2,1,-21,-2,-23,-15,-8,18
7,5,-2,-6,4,1,-22,-1,-23,-15,-8,18
7,4,-4,-6,5,0,-23,0,-24,-16,-9,18
7,2,-5,-5,6,-2,-23,0,-25,-17,-10,17
4,0,-5,-2,5,-3,-24,0,-26,-17,-10,17
2,-1,-4,-1,3,-2,-23,0,-25,-16,-9,18
2,-1,-3,-1,3,-2,-23,1,-25,-15,-9,18
3,0,-4,-2,3,-2,-23,1,-25,-14,-9,17
3,-1,-4,-1,4,-2,-24,2,-26,-14,-9,17
2,-2,-4,0,3,-3,-24,2,-27,-14,-8,18
3,-1,-5,-1,4,-3,-25,2,-27,-14,-7,18
5,0,-5,-2,5,-2,-24,3,-27,-13,-6,18
5,0,-5,-2,5,-2,-23,4,-27,-12,-5,17
4,-1,-5,-2,5,-3,-22,4,-27,-12,-4,16
5,0,-6,-3,5,-3,-21,5,-27,-11,-3,16
6,0,-6,-3,6,-3,-20,5,-26,-11,-2,17
6,0,-6,-3,6,-3,-19,6,-26,-11,-2,17
7,0,-7,-4,7,-3,-17,7,-26,-11,-1,18
7,1,-6,-4,6,-2,-16,8,-25,-10,1,18
7,2,-5,-4,6,-1,-15,9,-25,-9,3,18
7,2,-6,-4,6,-1,-15,9,-24,-9,3,18
7,2,-6,-5,6,-1,-14,10,-24,-8,5,18
7,2,-5,-5,6,-1,-12,11,-23,-8,6,17
6,2,-4,-4,5,-1,-11,12,-23,-8,7,16
4,1,-3,-3,3,-1,-10,12,-22,-7,7,15
4,2,-2,-3,3,0,-10,12,-22,-6,7,15
5,4,-2,-4,3,1,-10,13,-22,-5,8,16
6,4,-2,-5,4,1,-11,13,-22,-5,9,16
7,4,-4,-5,5,0,-11,13,-22,-5,8,15
7,3,-5,-5,6,-1,-11,13,-22,-6,7,15
7,2,-6,-6,7,-1,-12,13,-22,-6,7,15
7,2,-5,-6,6,-1,-12,14,-21,-5,7,15
6,2,-3,-5,5,-1,-12,14,-21,-4,8,16
5,2,-3,-4,4,-1,-11,14,-21,-3,8,17
5,2,-3,-4,4,0,-10,14,-21,-2,8,16
6,3,-3,-4,4,0,-10,13,-22,-2,8,15
6,3,-3,-4,4,0,-11,13,-23,-2,8,15
5,3,-2,-4,3,0,-11,13,-22,-1,8,15
4,3,-1,-3,2,1,-10,14,-22,0,8,16
3,2,-1,-3,2,0,-10,14,-22,0,7,16
3,0,-3,-2,3,-1,-11,13,-22,1,5,16
3,0,-4,-2,4,-2,-11,12,-23,1,4,15
5,1,-4,-3,4,-2,-11,12,-23,1,4,15
6,3,-3,-5,5,0,-10,13,-23,3,5,16
8,6,-2,-7,5,2,-8,14,-22,5,6,17
8,8,0,-7,4,3,-8,15,-21,6,7,18
7,8,0,-7,4,4,-8,16,-20,6,7,18
7,8,0,-8,4,4,-8,16,-20,7,5,17
9,7,-2,-9,6,3,-8,15,-21,8,4,17
8,6,-3,-8,6,2,-8,15,-21,9,4,17
7,6,-2,-7,4,2,-8,15,-21,10,4,17
6,6,-1,-7,3,2,-8,15,-21,11,4,18
5,6,0,-6,3,3,-8,15,-21,11,3,18
5,5,-1,-5,3,2,-8,15,-22,11,3,18
7,5,-3,-6,5,0,-9,14,-23,10,3,18
9,4,-5,-7,7,-1,-10,12,-25,9,3,18
10,3,-7,-7,8,-2,-12,9,-29,8,3,18
10,1,-9,-6,9,-4,-13,5,-33,6,1,18
8,-1,-10,-4,9,-5,-14,1,-36,3,0,18
9,-3,-11,-3,10,-7,-14,-1,-39,1,0,19
12,-2,-13,-5,12,-7,-14,-4,-42,-1,0,20
16,0,-15,-9,16,-7,-15,-6,-46,-3,2,24
23,3,-19,-13,21,-8,-19,-7,-49,-2,8,32
31,4,-26,-17,28,-11,-24,-7,-51,-1,16,43
38,5,-33,-21,35,-14,-30,-7,-54,-1,25,55
44,6,-38,-25,41,-16,-35,-8,-58,-1,33,68
51,9,-42,-31,47,-16,-41,-9,-63,-3,41,80
59,14,-46,-37,52,-16,-46,-10,-66,-4,50,93
67,19,-48,-43,57,-14,-51,-10,-69,-4,58,107
71,26,-44,-48,57,-9,-54,-7,-69,-3,64,117
68,34,-33,-51,51,0,-52,-2,-64,0,69,122
58,43,-15,-50,37,14,-46,6,-55,6,69,120
44,52,8,-48,18,30,-39,15,-42,14,65,110
27,61,34,-45,-3,48,-30,24,-28,23,57,96
10,71,60,-41,-24,66,-20,34,-11,35,48,78
-4,80,84,-38,-44,82,-11,43,7,49,40,61
-15,82,98,-34,-57,90,-2,53,26,64,33,45
-23,77,101,-27,-62,89,5,64,45,79,25,28
-28,71,100,-21,-64,85,13,75,63,93,17,12
-32,68,100,-17,-66,84,19,84,77,104,11,0
-34,66,100,-15,-67,83,23,91,89,113,7,-8
-36,63,99,-13,-67,81,26,99,99,120,4,-12
-37,59,96,-12,-66,78,29,107,109,125,0,-16
-38,55,93,-9,-65,74,32,114,118,128,-5,-21
-40,49,89,-5,-65,69,35,120,124,129,-10,-25
-41,42,83,-1,-62,63,38,125,129,127,-15,-30
-38,39,78,0,-58,58,40,129,133,126,-18,-32
-37,37,73,0,-55,55,43,133,138,127,-18,-31
-36,33,69,2,-53,51,44,136,143,128,-16,-29
-35,29,63,3,-49,46,45,139,145,128,-15,-26
-32,26,57,2,-44,41,46,137,145,127,-13,-24
-28,24,52,1,-40,38,45,132,141,124,-11,-21
-26,22,47,1,-37,34,44,124,135,119,-10,-19
-24,18,42,2,-33,30,44,115,129,115,-9,-18
-23,15,38,3,-31,27,44,100,122,111,-9,-17
-24,13,37,5,-31,25,44,81,114,107,-8,-15
-25,11,36,6,-31,24,43,60,105,101,-9,-14
-24,10,35,6,-30,23,41,38,94,94,-11,-15
-22,11,34,5,-28,22,40,18,85,87,-14,-16
-22,10,32,5,-27,21,38,0,75,79,-16,-16
-22,8,30,7,-26,19,36,-12,66,72,-18,-16
-22,4,26,8,-24,15,35,-21,58,66,-19,-17
-20,3,23,8,-22,13,35,-27,52,62,-19,-16
-18,3,22,7,-21,12,34,-31,46,58,-19,-15
-17,4,21,6,-20,12,33,-35,38,54,-19,-15
-18,3,21,7,-20,12,32,-38,29,48,-20,-15
-18,3,21,7,-20,12,30,-39,21,44,-20,-14
-15,5,19,5,-17,12,29,-38,15,42,-18,-13
-11,7,18,2,-14,12,27,-37,9,40,-17,-12
-11,7,17,2,-14,12,25,-35,4,39,-16,-10
-12,6,17,3,-14,11,23,-33,1,37,-15,-9
-12,5,16,3,-14,11,22,-31,-2,37,-14,-7
-9,6,14,1,-12,10,20,-30,-7,36,-14,-6
-4,8,12,-2,-8,10,18,-28,-12,32,-14,-6
-1,9,10,-4,-6,10,16,-27,-17,30,-14,-5
-2,7,9,-2,-6,9,13,-26,-20,27,-14,-5
-3,5,8,-1,-6,7,10,-25,-24,24,-15,-5
-3,4,7,-1,-5,6,8,-23,-27,22,-15,-4
-1,4,5,-1,-3,4,5,-21,-30,19,-15,-3
0,2,2,-1,-1,3,2,-19,-34,17,-15,-3
0,1,0,-1,0,1,-2,-17,-36,15,-15,-2
2,0,-2,-1,2,0,-4,-14,-37,14,-14,-1
3,0,-5,-1,4,-2,-6,-12,-38,12,-14,-1
4,-1,-6,-2,5,-3,-7,-11,-39,11,-14,0
5,-1,-7,-2,6,-3,-7,-9,-39,10,-13,0
6,-2,-8,-2,7,-4,-7,-8,-39,9,-13,1
6,-3,-9,-2,7,-5,-8,-8,-39,9,-13,1
5,-3,-9,-2,7,-6,-8,-8,-39,9,-13,1
5,-4,-9,-1,7,-6,-8,-8,-39,8,-13,1
5,-4,-9,-1,7,-7,-8,-7,-39,8,-13,1
4,-4,-9,0,6,-6,-8,-7,-39,7,-13,1
3,-4,-8,0,6,-6,-9,-7,-40,6,-13,0
4,-5,-9,0,6,-7,-9,-7,-41,5,-14,0
5,-5,-9,0,7,-7,-9,-7,-42,4,-14,0
5,-5,-9,0,7,-7,-9,-7,-42,4,-13,0
4,-5,-9,0,7,-7,-9,-7,-42,3,-13,0
5,-5,-10,0,7,-7,-10,-7,-42,2,-13,0
5,-5,-11,0,8,-8,-11,-7,-43,1,-13,-1
6,-4,-12,0,8,-8,-12,-7,-43,0,-13,-1
6,-4,-12,0,8,-8,-12,-7,-43,0,-13,0
5,-4,-11,0,8,-7,-13,-7,-43,-1,-13,0
5,-4,-10,0,8,-7,-13,-6,-43,-2,-13,0
6,-4,-10,-1,9,-7,-13,-6,-43,-2,-12,0
8,-3,-11,-3,10,-7,-14,-6,-43,-2,-12,1
10,-1,-11,-5,11,-6,-14,-5,-42,-2,-11,2
9,0,-10,-5,10,-5,-14,-5,-41,-1,-10,3
7,-1,-9,-3,8,-5,-14,-5,-40,-2,-9,3
6,-2,-9,-1,7,-6,-15,-5,-41,-3,-10,3
6,-2,-9,-2,7,-5,-15,-5,-40,-4,-10,3
7,-2,-8,-3,7,-5,-15,-4,-40,-5,-9,3
6,-3,-8,-2,7,-5,-15,-3,-40,-5,-9,3
5,-4,-8,-1,6,-6,-15,-3,-40,-5,-8,4
5,-4,-8,-1,6,-6,-15,-3,-40,-6,-8,4
7,-4,-10,-2,8,-7,-16,-3,-40,-7,-8,4
6,-5,-11,-1,9,-8,-17,-4,-41,-8,-9,4
4,-6,-10,1,7,-8,-17,-3,-40,-9,-8,5
3,-5,-9,1,6,-7,-17,-3,-39,-9,-6,7
5,-3,-8,-1,7,-6,-17,-2,-39,-10,-5,8
6,-3,-8,-2,7,-6,-17,-2,-38,-10,-4,9
3,-5,-8,0,6,-7,-17,-2,-38,-10,-3,9
2,-7,-8,2,5,-8,-17,-2,-38,-10,-2,9
3,-6,-9,1,5,-8,-17,-1,-38,-10,-1,10
3,-5,-9,0,6,-7,-18,-1,-37,-10,0,11
4,-5,-10,0,6,-8,-18,0,-37,-10,1,12
5,-5,-11,0,8,-8,-18,0,-36,-10,3,14
5,-5,-11,0,8,-9,-19,0,-35,-10,5,15
6,-5,-11,0,8,-8,-19,0,-35,-11,6,15
5,-5,-11,0,8,-8,-20,0,-34,-11,8,16
4,-7,-12,0,8,-9,-20,0,-34,-11,9,17
4,-8,-12,1,9,-10,-21,0,-34,-11,10,17
5,-7,-12,0,9,-10,-21,1,-33,-11,11,18
4,-6,-12,0,8,-9,-20,3,-31,-11,13,20
3,-7,-11,1,7,-8,-19,4,-30,-11,16,21
1,-9,-12,3,6,-9,-19,4,-29,-12,18,21
2,-10,-14,4,8,-11,-20,3,-30,-14,19,20
5,-10,-16,2,11,-13,-20,2,-30,-16,20,20
5,-11,-16,2,11,-13,-20,3,-30,-17,23,20
3,-11,-14,3,9,-13,-20,3,-29,-17,25,20
3,-11,-15,3,10,-13,-20,4,-28,-17,26,20
5,-11,-17,2,11,-14,-20,4,-27,-17,28,20
7,-11,-18,2,12,-15,-20,4,-26,-17,30,21
6,-11,-18,2,11,-14,-21,5,-25,-18,32,21
5,-12,-17,3,11,-14,-22,5,-24,-19,33,22
5,-12,-18,3,11,-15,-23,6,-23,-20,35,23
6,-12,-18,3,12,-15,-25,6,-22,-21,36,23
5,-12,-18,3,12,-16,-26,7,-21,-21,38,23
5,-13,-18,3,12,-16,-27,9,-20,-22,40,24
5,-14,-19,4,13,-17,-30,10,-20,-24,41,24
5,-15,-21,5,13,-18,-32,11,-19,-25,43,23
6,-16,-23,5,14,-19,-34,12,-18,-26,44,23
8,-16,-24,4,16,-20,-36,13,-17,-27,45,24
9,-15,-25,3,17,-20,-36,15,-15,-27,47,24
10,-14,-25,2,17,-19,-37,16,-13,-28,48,25
11,-14,-25,1,18,-19,-38,18,-11,-29,48,25
12,-13,-25,0,19,-19,-39,19,-10,-31,48,25
14,-12,-25,-1,19,-19,-39,20,-9,-35,48,25
14,-12,-26,-1,20,-19,-40,20,-8,-38,48,26
13,-12,-26,0,19,-19,-41,20,-8,-41,49,26
12,-13,-26,0,19,-19,-42,20,-7,-45,50,26
11,-14,-25,1,18,-19,-43,21,-6,-47,52,25
10,-14,-25,1,18,-19,-43,22,-5,-49,54,25
11,-13,-25,1,18,-19,-44,22,-4,-51,57,26
13,-12,-25,0,19,-19,-44,22,-4,-53,59,26
14,-10,-24,-2,19,-18,-44,23,-3,-55,61,28
14,-8,-22,-3,18,-16,-43,24,-1,-56,64,29
15,-6,-21,-4,18,-14,-43,25,0,-58,66,31
15,-6,-21,-4,18,-13,-43,25,0,-60,68,31
13,-7,-20,-3,17,-13,-44,24,1,-63,69,31
12,-7,-19,-2,16,-13,-44,24,2,-64,70,31
12,-5,-19,-3,16,-12,-44,25,4,-65,71,31
12,-4,-18,-4,15,-11,-43,26,6,-65,73,32
12,-4,-17,-4,14,-10,-42,27,8,-65,76,32
12,-2,-15,-5,14,-9,-40,28,10,-65,79,33
14,0,-14,-7,14,-7,-39,29,12,-65,82,34
14,1,-13,-7,14,-6,-38,30,14,-64,86,34
12,0,-12,-6,13,-6,-39,30,15,-64,88,34
11,0,-12,-5,12,-6,-39,30,16,-64,91,34
12,0,-13,-6,13,-6,-39,30,17,-64,94,34
14,1,-13,-7,14,-6,-38,31,19,-63,97,34
15,2,-13,-8,14,-6,-37,32,21,-62,100,33
14,2,-12,-8,13,-5,-36,32,22,-61,103,33
13,2,-11,-8,12,-5,-36,32,23,-60,105,32
13,3,-11,-8,12,-4,-34,32,25,-59,107,31
14,4,-10,-9,12,-2,-33,33,27,-57,109,31
14,5,-9,-9,12,-1,-31,33,28,-56,110,32
13,5,-8,-9,11,0,-30,33,29,-55,110,31
12,4,-8,-8,10,-1,-29,32,30,-55,110,31
11,2,-8,-7,10,-3,-29,31,29,-56,110,30
11,1,-9,-6,10,-4,-29,30,29,-56,111,29
11,2,-8,-7,9,-3,-27,29,30,-55,112,29
10,2,-7,-6,8,-2,-26,29,31,-54,113,28
8,2,-6,-5,7,-2,-25,27,30,-54,112,27
7,1,-6,-4,7,-2,-24,26,30,-55,111,25
5,1,-5,-3,6,-1,-23,25,30,-54,111,25
5,1,-4,-3,5,-1,-21,24,30,-53,111,24
6,1,-5,-4,5,-1,-20,23,30,-53,110,24
6,1,-5,-4,5,-1,-20,22,29,-53,107,23
5,1,-4,-3,3,-1,-19,20,28,-54,105,22
4,2,-2,-3,2,0,-18,20,28,-53,103,22
6,4,-2,-4,3,0,-17,19,27,-53,102,23
7,5,-2,-6,5,1,-16,18,26,-53,100,23
8,6,-2,-6,5,2,-15,17,26,-53,99,23
8,6,-1,-7,5,3,-14,16,26,-52,99,23
6,6,0,-6,3,3,-13,15,26,-51,98,23
3,4,0,-4,1,3,-12,14,25,-51,97,22
2,3,1,-2,0,2,-11,13,24,-50,97,21
3,4,0,-3,1,2,-10,12,24,-49,98,21
4,5,0,-4,1,3,-10,10,23,-49,99,21
4,7,1,-5,1,4,-9,10,22,-49,99,21
4,7,2,-5,1,5,-8,9,22,-48,99,21
2,6,3,-4,0,4,-8,7,21,-47,97,20
1,5,3,-3,0,4,-7,6,20,-47,95,19
1,6,4,-4,0,5,-6,5,20,-46,93,18
1,6,4,-4,-1,5,-5,4,20,-46,90,17
1,7,5,-4,-1,6,-5,3,19,-46,86,16
1,7,5,-4,-1,6,-4,2,18,-46,82,15
0,6,6,-3,-2,6,-4,1,17,-46,77,15
0,7,7,-3,-3,7,-3,0,17,-45,74,14
0,7,7,-3,-3,7,-3,0,16,-45,72,14
0,7,7,-3,-3,7,-3,-1,15,-45,70,13
0,7,7,-3,-3,7,-3,-1,14,-46,70,13
0,7,7,-4,-3,7,-4,-2,14,-46,71,13
1,8,6,-4,-3,7,-4,-2,13,-46,71,12
2,8,6,-5,-2,7,-5,-3,13,-47,72,12
2,8,6,-5,-2,7,-5,-3,12,-47,71,11
2,8,6,-5,-2,7,-5,-3,11,-48,71,11
3,9,6,-6,-1,7,-5,-3,11,-48,70,11
3,9,6,-6,-1,7,-5,-3,11,-47,69,11
3,8,6,-6,-1,7,-4,-3,11,-46,69,11
4,10,5,-7,0,7,-3,-2,11,-45,68,11
5,11,5,-8,0,8,-2,-2,11,-45,67,11
3,9,6,-6,-1,7,-2,-2,12,-46,65,10
0,7,6,-4,-3,6,-3,-2,11,-47,64,9
0,6,6,-3,-3,6,-3,-3,10,-49,63,8
0,6,6,-3,-3,6,-2,-3,11,-50,64,8
2,7,6,-4,-2,6,-2,-3,11,-51,66,8
2,7,5,-4,-1,6,-2,-3,10,-52,68,7
2,7,4,-4,-1,5,-1,-3,10,-54,70,7
2,7,3,-5,0,5,-1,-3,9,-55,73,7
4,8,2,-6,1,5,-1,-4,10,-56,75,7
5,9,2,-7,1,5,-1,-4,10,-57,76,6
5,9,2,-7,1,5,-1,-5,10,-57,76,6
6,8,2,-7,1,5,-1,-5,9,-58,76,6
6,8,2,-7,2,5,-1,-5,9,-59,75,5
5,8,2,-6,1,5,-1,-5,9,-59,74,5
5,8,2,-6,1,5,-2,-6,9,-60,72,5
4,7,2,-5,1,5,-2,-6,9,-60,70,5
3,6,2,-4,0,4,-2,-6,9,-60,67,5
1,5,2,-3,0,3,-2,-7,8,-60,64,5
2,4,1,-3,0,2,-2,-7,8,-60,61,5
4,4,0,-4,2,2,-2,-7,8,-60,58,5
6,5,0,-5,3,2,-2,-7,8,-59,57,5
5,6,0,-5,3,3,-2,-7,8,-59,56,5
6,6,0,-6,3,3,-3,-8,7,-59,56,4
6,7,0,-6,3,3,-4,-9,7,-59,55,4
6,7,0,-6,2,3,-4,-10,7,-58,55,4
5,7,1,-6,2,4,-3,-9,8,-57,55,4
7,7,0,-7,3,4,-2,-9,8,-56,55,5
8,7,-1,-7,5,3,-3,-9,7,-56,54,4
9,4,-3,-6,6,1,-4,-10,5,-57,53,4
9,2,-5,-5,7,-1,-5,-12,3,-58,52,3
9,0,-8,-4,8,-3,-6,-14,0,-59,51,3
9,0,-9,-4,9,-4,-6,-17,-4,-60,50,3
9,0,-9,-3,8,-4,-6,-20,-6,-61,50,3
8,-1,-9,-3,8,-5,-6,-23,-10,-62,48,4
10,-2,-11,-4,10,-6,-8,-27,-14,-64,46,5
16,0,-15,-7,15,-7,-9,-30,-19,-66,46,7
23,2,-19,-13,21,-8,-11,-32,-23,-67,48,13
30,5,-24,-18,27,-9,-15,-31,-25,-66,54,23
35,6,-29,-21,32,-11,-21,-30,-28,-64,63,34
40,7,-33,-24,36,-12,-27,-30,-32,-62,72,48
47,12,-36,-30,41,-12,-32,-30,-36,-61,81,62
56,18,-39,-37,47,-11,-37,-30,-39,-60,91,76
64,24,-40,-44,51,-8,-41,-28,-41,-58,100,90
68,33,-36,-50,52,-1,-44,-26,-42,-57,107,103
69,41,-28,-55,48,7,-44,-21,-40,-55,110,110
62,49,-13,-55,37,18,-41,-14,-33,-52,109,110
49,57,8,-53,20,33,-33,-4,-21,-46,103,102
31,66,34,-49,-1,51,-24,6,-5,-38,94,88
14,76,61,-45,-23,69,-13,17,13,-26,83,71
1,85,84,-43,-42,84,-3,30,34,-12,73,54
-10,87,98,-38,-54,93,7,43,57,3,65,39
-20,81,101,-31,-61,92,17,59,82,21,58,22
-27,71,99,-22,-63,85,27,76,107,38,51,5
-32,64,98,-16,-65,81,35,89,129,53,45,-8
-36,61,98,-13,-66,80,42,100,149,66,42,-17
-38,59,97,-11,-67,78,47,110,165,76,40,-23
-38,55,93,-9,-65,74,51,119,179,84,37,-28
-37,50,87,-7,-62,68,55,127,192,89,31,-35
-38,44,82,-4,-60,63,59,133,203,92,25,-41
-38,40,78,-1,-58,58,64,139,211,92,20,-45
-38,35,73,1,-56,54,68,143,217,90,16,-49
-38,30,68,4,-54,49,70,145,221,89,14,-50
-38,24,63,7,-50,43,72,147,226,89,15,-50
-36,20,57,8,-47,39,74,147,228,90,18,-48
-36,17,53,9,-44,35,75,142,226,90,21,-45
-36,14,50,11,-43,32,76,135,221,87,24,-41
-35,13,47,11,-41,30,77,128,213,84,26,-37
-32,13,44,9,-38,28,77,114,204,79,28,-34
-29,12,42,8,-36,27,76,92,191,74,29,-32
-27,12,41,7,-34,27,75,65,176,67,29,-29
-27,12,41,7,-34,27,74,37,161,59,28,-28
-27,13,41,7,-34,27,73,12,146,50,26,-27
-27,13,40,7,-33,27,71,-9,133,42,24,-26
-26,13,39,7,-32,26,69,-24,121,34,22,-26
-26,11,37,8,-32,24,66,-34,111,27,20,-26
-26,9,35,8,-30,22,64,-42,102,22,19,-26
-24,8,32,7,-28,20,62,-47,95,18,19,-25
-22,8,31,7,-27,19,59,-51,87,15,19,-25
-21,8,29,6,-25,19,57,-54,78,11,19,-24
-19,9,28,5,-24,18,55,-54,69,6,19,-23
-18,8,26,5,-22,17,52,-54,61,2,19,-22
-16,7,23,4,-19,15,47,-53,54,0,20,-21
-14,7,20,3,-17,13,43,-51,48,-1,20,-20
-12,6,18,3,-16,12,39,-48,43,-1,20,-18
-11,5,16,3,-14,10,36,-46,39,-3,20,-17
-9,3,13,3,-12,8,32,-44,33,-6,19,-16
-9,2,12,3,-11,7,28,-42,26,-9,18,-15
-9,1,11,4,-10,6,25,-41,22,-11,18,-14
-8,2,10,3,-9,6,22,-39,18,-13,18,-12
-6,2,8,2,-7,6,20,-37,15,-15,19,-11
-3,3,6,0,-5,5,17,-34,13,-17,19,-9
-1,2,3,0,-2,3,14,-31,10,-18,20,-8
0,0,0,0,0,0,11,-28,8,-18,20,-8
1,-2,-3,0,1,-2,8,-25,6,-18,21,-7
2,-3,-5,0,3,-4,5,-23,4,-18,21,-7
3,-3,-7,0,5,-5,2,-21,3,-19,21,-6
4,-5,-9,0,6,-7,0,-20,2,-19,21,-6
2,-7,-10,2,6,-8,0,-19,2,-19,21,-5
1,-8,-9,3,5,-8,0,-18,2,-18,20,-4
2,-8,-10,3,6,-9,-1,-17,2,-18,19,-3
4,-7,-11,2,7,-9,-1,-16,2,-18,18,-3
5,-7,-11,1,8,-9,-1,-16,2,-18,17,-3
4,-7,-10,2,7,-9,-1,-16,2,-17,16,-3
3,-8,-11,3,7,-9,-1,-16,1,-17,15,-4
3,-10,-13,3,8,-11,-2,-17,0,-17,14,-4
5,-9,-15,2,10,-12,-2,-18,0,-17,13,-4
5,-9,-14,3,10,-12,-2,-18,0,-17,13,-4
3,-10,-13,4,8,-12,-2,-19,-1,-18,12,-4
3,-10,-14,3,8,-12,-2,-19,-1,-18,12,-3
5,-10,-15,2,9,-12,-2,-18,-1,-18,13,-3
5,-11,-16,3,10,-13,-3,-19,-2,-18,12,-3
6,-11,-17,3,11,-14,-3,-20,-4,-20,10,-4
6,-11,-17,2,11,-14,-4,-20,-6,-21,10,-4
6,-11,-17,2,11,-14,-4,-20,-6,-21,10,-4
6,-10,-17,2,11,-14,-4,-19,-5,-20,11,-3
6,-10,-17,2,11,-14,-4,-19,-5,-20,12,-2
5,-11,-17,3,11,-14,-4,-18,-5,-20,12,-2
4,-12,-16,4,10,-14,-4,-17,-5,-20,13,-2
5,-11,-16,3,10,-13,-4,-16,-4,-19,13,-2
6,-9,-15,2,10,-12,-2,-14,-3,-18,13,-1
6,-9,-14,1,10,-11,-1,-13,-3,-17,13,0
6,-9,-15,2,10,-12,-1,-13,-3,-16,11,-1
3,-12,-15,4,10,-14,-2,-13,-3,-16,7,-2
0,-16,-16,8,9,-16,-3,-14,-4,-16,3,-3
-1,-17,-16,9,8,-17,-3,-13,-4,-15,-1,-3
1,-16,-16,7,9,-16,-2,-12,-3,-14,-3,-3
5,-13,-17,4,11,-15,0,-11,-2,-12,-5,-2
7,-11,-17,2,12,-15,0,-10,-2,-11,-7,-2
5,-12,-17,4,10,-15,0,-10,-3,-11,-8,-3
2,-14,-16,6,9,-16,0,-10,-3,-10,-8,-3
1,-15,-17,7,9,-16,-1,-10,-4,-10,-8,-3
2,-15,-18,7,10,-16,-1,-10,-3,-9,-8,-3
3,-15,-19,7,11,-17,-1,-10,-2,-9,-8,-3
3,-16,-19,7,11,-17,-1,-9,-2,-9,-6,-3
3,-17,-19,7,11,-18,-1,-8,-2,-9,-5,-4
3,-18,-19,7,11,-19,-1,-8,-3,-10,-4,-5
3,-18,-20,7,12,-19,-1,-8,-3,-10,-3,-6
3,-18,-21,7,12,-19,-1,-7,-2,-9,-2,-7
2,-18,-20,7,11,-19,0,-6,-1,-9,-1,-6
1,-18,-19,8,10,-18,0,-5,-1,-9,-1,-6
0,-19,-18,9,9,-18,0,-5,-1,-9,-1,-6
-2,-19,-17,11,8,-18,0,-5,-1,-10,-2,-7
-1,-19,-18,10,8,-18,0,-5,-1,-10,-3,-8
0,-19,-18,10,9,-19,0,-4,-1,-10,-4,-8
0,-19,-18,9,9,-18,0,-4,-1,-11,-5,-9
0,-19,-18,9,9,-18,1,-3,-1,-11,-5,-9
0,-18,-18,9,9,-18,1,-3,-1,-11,-6,-9
1,-17,-19,8,10,-18,2,-3,0,-10,-6,-9
2,-17,-19,8,11,-19,2,-3,0,-10,-6,-9
2,-17,-20,8,12,-19,2,-2,0,-10,-5,-9
2,-18,-20,8,12,-19,2,-2,0,-10,-4,-9
2,-18,-20,8,11,-19,2,-2,-1,-10,-3,-9
1,-19,-19,9,10,-19,2,-2,-1,-10,-1,-9
0,-19,-19,9,10,-19,2,-1,-1,-10,1,-8
0,-19,-19,9,9,-19,2,-1,0,-10,3,-8
0,-18,-18,9,9,-19,2,0,0,-9,5,-7
0,-18,-18,9,9,-18,2,0,1,-8,6,-7
0,-18,-18,9,9,-18,1,0,1,-8,7,-6
0,-18,-18,9,9,-18,1,0,0,-9,7,-6
0,-18,-18,9,9,-18,1,0,1,-8,7,-6
2,-17,-18,7,10,-18,1,1,1,-8,8,-6
3,-16,-18,6,11,-17,1,1,2,-7,9,-6
1,-16,-17,8,9,-17,1,1,2,-7,9,-6
0,-17,-17,9,8,-17,0,0,1,-7,9,-6
-1,-17,-17,9,8,-17,0,0,1,-7,9,-6
0,-16,-16,9,8,-17,0,0,0,-7,9,-5
1,-15,-16,7,9,-16,-1,-1,0,-7,9,-5
3,-14,-17,6,10,-16,-2,-2,-1,-7,8,-5
2,-14,-16,6,9,-16,-4,-2,-2,-8,8,-5
2,-13,-15,6,8,-15,-5,-2,-2,-8,8,-5
4,-12,-16,4,9,-14,-6,-2,-3,-8,8,-5
4,-11,-16,3,10,-14,-7,-3,-4,-8,7,-5
2,-12,-14,4,8,-13,-7,-3,-5,-9,7,-5
1,-13,-14,6,8,-14,-8,-4,-5,-9,7,-5
1,-14,-15,6,9,-15,-9,-5,-6,-10,7,-4
2,-13,-16,5,9,-16,-9,-5,-7,-11,7,-4
3,-11,-15,4,9,-14,-8,-5,-7,-11,8,-2
3,-9,-13,3,8,-12,-8,-5,-6,-11,8,-1
4,-8,-12,2,8,-11,-8,-5,-6,-11,8,-1
6,-5,-12,0,9,-9,-7,-4,-6,-11,9,0
7,-4,-11,-1,9,-8,-7,-3,-6,-11,9,0
6,-4,-11,0,9,-8,-7,-3,-6,-12,9,0
5,-4,-10,0,8,-7,-8,-3,-7,-12,8,1
5,-3,-9,0,7,-6,-8,-3,-7,-12,7,1
4,-3,-8,-1,6,-5,-7,-2,-6,-12,7,1
4,-3,-7,0,5,-5,-7,-2,-6,-11,7,1
3,-4,-7,0,4,-5,-8,-2,-6,-11,6,1
4,-3,-7,0,5,-5,-8,-1,-5,-11,6,1
5,-2,-7,-1,5,-5,-8,-1,-5,-11,6,2
5,-1,-6,-2,6,-4,-7,0,-4,-11,7,3
6,0,-5,-3,6,-3,-7,1,-3,-10,7,3
5,0,-4,-2,5,-3,-7,1,-3,-10,6,3
3,0,-3,-1,3,-3,-7,1,-3,-11,6,2
1,-1,-2,0,1,-2,-6,1,-2,-11,6,2
0,-1,-1,1,1,-2,-5,1,-2,-11,5,1
1,-2,-2,1,1,-2,-5,1,-2,-11,3,0
2,-1,-2,0,2,-2,-5,1,-3,-11,2,0
2,0,-1,-1,2,-2,-4,1,-2,-11,2,0
2,0,-1,-1,2,-1,-3,1,-1,-11,2,0
1,0,0,-1,1,-1,-2,0,0,-11,1,0
0,0,0,0,0,0,-2,0,0,-10,1,0
0,0,1,0,0,0,-2,0,0,-10,1,-1
0,0,0,0,0,0,-2,0,0,-10,1,-1
0,0,0,0,0,0,-1,-1,0,-10,0,-1
-2,0,2,1,-2,0,0,-1,0,-10,0,-2
-3,-1,3,2,-3,0,0,-2,-1,-10,0,-2
-4,-2,2,3,-3,0,0,-4,-1,-11,-2,-3
-5,-3,2,5,-4,-1,0,-5,-2,-12,-4,-5
-6,-3,3,5,-4,-1,0,-6,-3,-13,-5,-5
-5,-2,3,4,-4,0,0,-6,-2,-13,-6,-5
-4,-1,2,3,-3,0,0,-6,-2,-13,-6,-5
-3,-1,2,3,-2,0,0,-7,-3,-14,-7,-5
-4,-2,2,3,-3,-1,0,-8,-4,-15,-8,-6
-4,-2,3,4,-4,-1,1,-8,-5,-16,-7,-6
-5,-3,3,4,-4,-1,1,-9,-5,-16,-7,-6
-4,-3,2,4,-3,-1,0,-9,-5,-16,-6,-6
-4,-3,1,4,-2,-2,0,-10,-5,-16,-5,-6
-4,-3,1,3,-2,-1,0,-10,-5,-16,-5,-6
-5,-3,2,4,-4,-1,0,-10,-5,-16,-5,-6
-7,-4,3,6,-5,0,0,-10,-6,-16,-5,-6
-8,-5,3,6,-5,-1,-1,-10,-7,-17,-6,-6
-6,-5,2,5,-4,-1,-2,-10,-7,-17,-6,-6
-5,-3,3,4,-4,-1,-1,-10,-7,-18,-6,-6
-6,-3,3,5,-4,0,-1,-10,-7,-18,-7,-6
-6,-3,2,5,-3,-1,-1,-10,-6,-18,-8,-7
-4,-2,1,3,-2,0,-1,-10,-6,-17,-9,-7
-4,-2,1,3,-3,0,-1,-9,-5,-17,-10,-7
-6,-3,2,4,-4,0,-1,-9,-5,-16,-10,-7
-7,-4,3,6,-5,0,-1,-10,-6,-16,-11,-7
-7,-4,3,6,-5,0,-2,-10,-7,-16,-11,-7
-7,-4,3,6,-5,-1,-2,-10,-7,-16,-11,-8
-7,-4,2,6,-4,-2,-2,-10,-7,-16,-11,-8
-8,-5,1,7,-5,-2,-3,-10,-7,-17,-11,-8
-9,-6,1,8,-5,-2,-3,-11,-8,-17,-10,-9
-8,-6,1,7,-5,-2,-4,-11,-8,-18,-9,-9
-6,-5,0,6,-3,-2,-4,-11,-9,-19,-9,-9
-4,-4,0,4,-2,-2,-4,-11,-10,-19,-8,-9
-3,-4,-1,4,-1,-3,-4,-11,-10,-19,-7,-8
-4,-5,-1,4,-1,-4,-4,-11,-10,-19,-7,-8
-4,-5,-1,5,-1,-3,-4,-11,-10,-19,-6,-8
-3,-3,-1,4,-1,-2,-3,-11,-9,-19,-6,-8
-3,-3,0,3,-1,-2,-3,-10,-9,-18,-5,-7
-5,-4,0,5,-3,-2,-3,-10,-9,-18,-6,-7
-7,-6,0,7,-4,-3,-3,-12,-9,-18,-6,-8
-7,-7,0,7,-4,-4,-4,-13,-10,-18,-7,-8
-7,-7,0,7,-4,-4,-4,-14,-11,-18,-7,-8
-7,-7,1,7,-4,-3,-4,-14,-11,-18,-6,-7
-7,-6,1,6,-4,-3,-4,-14,-11,-18,-6,-7
-4,-4,0,4,-3,-2,-5,-14,-11,-18,-6,-7
-2,-3,0,3,-1,-2,-5,-15,-11,-17,-6,-8
-3,-3,0,3,-1,-2,-4,-14,-11,-17,-5,-8
-4,-3,0,4,-2,-2,-3,-14,-10,-16,-3,-7
-5,-3,1,5,-3,-1,-2,-13,-10,-15,-1,-6
-5,-3,1,5,-4,-1,-1,-13,-9,-14,0,-6
-4,-3,0,4,-3,-1,-1,-13,-10,-15,1,-6
-4,-4,0,4,-2,-2,-2,-14,-11,-16,1,-7
-4,-4,0,5,-2,-2,-2,-13,-11,-16,1,-7
-4,-4,0,5,-2,-2,-1,-13,-11,-17,2,-7
-4,-5,0,5,-2,-2,-1,-13,-11,-18,3,-7
-5,-5,0,6,-3,-2,-1,-13,-11,-18,4,-7
-5,-5,0,5,-3,-2,-1,-12,-10,-17,5,-7
-4,-4,0,4,-2,-2,0,-12,-10,-17,6,-7
-4,-4,-1,4,-2,-2,0,-12,-10,-17,7,-7
-4,-5,-1,4,-1,-3,0,-12,-10,-17,7,-7
-3,-4,-1,4,-1,-3,0,-12,-9,-17,8,-7
-3,-4,-1,4,-1,-3,0,-12,-9,-17,8,-7
-4,-5,0,5,-2,-3,0,-12,-10,-17,8,-7
-3,-5,-1,4,-1,-3,0,-12,-10,-17,8,-7
-2,-4,-2,3,0,-3,0,-12,-10,-17,8,-7
-1,-5,-4,3,1,-4,0,-12,-11,-17,8,-8
-1,-5,-4,3,1,-4,0,-12,-11,-17,8,-8
-2,-5,-3,4,0,-4,0,-12,-11,-16,8,-8
-3,-5,-2,4,-1,-3,0,-12,-11,-16,9,-8
-2,-5,-2,4,0,-3,0,-12,-11,-16,10,-8
-2,-5,-3,4,0,-4,0,-12,-12,-16,10,-8
-2,-5,-3,4,0,-4,0,-12,-12,-16,11,-8
-2,-5,-3,4,0,-4,0,-11,-11,-15,11,-8
-2,-4,-3,3,0,-3,0,-11,-11,-14,12,-7
-3,-5,-2,4,0,-3,0,-11,-11,-14,12,-7
-4,-5,-2,4,0,-3,0,-11,-11,-14,12,-7
-3,-4,-1,4,0,-3,1,-11,-10,-13,13,-6
-2,-4,-2,3,0,-3,1,-10,-10,-14,13,-5
-2,-4,-2,3,0,-3,1,-10,-10,-14,13,-5
-1,-4,-2,2,0,-3,1,-10,-10,-13,12,-5
-1,-4,-3,2,1,-3,1,-11,-10,-13,12,-5
1,-4,-4,1,3,-4,1,-11,-10,-13,12,-6
2,-4,-5,1,4,-4,1,-11,-9,-12,13,-6
1,-4,-5,1,3,-4,1,-11,-9,-12,13,-7
0,-4,-4,2,2,-4,1,-11,-9,-12,14,-7
-1,-3,-2,2,0,-3,2,-10,-8,-12,14,-7
-2,-3,0,3,-1,-2,2,-10,-8,-12,15,-7
-4,-4,0,4,-2,-2,2,-10,-9,-13,15,-7
-5,-5,0,5,-2,-2,2,-10,-9,-14,16,-7
-5,-6,0,6,-2,-3,2,-10,-9,-14,16,-7
-4,-6,-1,5,-2,-3,2,-11,-9,-14,16,-7
-4,-5,-1,5,-1,-3,2,-11,-9,-14,16,-7
-4,-5,-1,5,-1,-3,1,-11,-8,-13,15,-8
-4,-6,-1,6,-2,-3,1,-12,-8,-13,15,-8
-5,-5,0,6,-2,-3,1,-12,-8,-13,15,-8
-3,-4,0,4,-1,-2,1,-11,-8,-13,15,-8
0,-1,-1,1,1,-1,2,-10,-7,-13,16,-7
1,-1,-1,1,1,-1,2,-9,-7,-12,16,-6
-2,-3,0,3,0,-1,2,-9,-7,-12,16,-7
-3,-4,-1,5,-1,-2,1,-10,-7,-12,16,-7
-4,-5,-1,5,-1,-2,1,-10,-8,-13,17,-7
-6,-7,-1,6,-2,-2,0,-10,-9,-14,17,-8
-7,-7,0,7,-2,-2,-1,-11,-10,-15,16,-8
-7,-8,0,7,-2,-3,-1,-12,-10,-15,16,-8
-6,-8,-1,7,-1,-4,-2,-12,-10,-15,16,-8
-4,-7,-2,6,0,-4,-2,-11,-10,-14,17,-8
-3,-7,-3,5,0,-5,-2,-11,-10,-14,17,-8
-5,-9,-3,7,0,-6,-3,-11,-10,-13,16,-8
-7,-10,-3,9,-1,-6,-4,-11,-10,-13,16,-9
-7,-10,-3,9,-1,-6,-5,-11,-10,-12,16,-9
-7,-10,-3,9,-1,-6,-6,-11,-10,-13,16,-9
-6,-10,-3,8,-1,-6,-7,-12,-11,-13,15,-9
-4,-8,-4,6,0,-6,-7,-12,-11,-13,15,-9
-2,-8,-5,6,1,-7,-8,-13,-12,-14,14,-9
-4,-10,-6,8,1,-8,-10,-14,-13,-14,13,-10
-5,-12,-6,9,0,-9,-10,-14,-13,-14,12,-11
-4,-11,-6,8,1,-9,-10,-14,-12,-14,12,-11
-2,-10,-7,6,3,-8,-10,-14,-12,-13,11,-11
0,-8,-8,4,4,-8,-9,-14,-12,-13,11,-10
0,-7,-8,3,4,-8,-8,-14,-12,-13,10,-10
-1,-8,-7,4,2,-8,-8,-14,-12,-13,9,-10
-3,-9,-6,6,0,-8,-7,-14,-12,-13,9,-10
-4,-9,-5,7,0,-7,-7,-14,-11,-12,9,-9
-3,-8,-5,6,0,-6,-6,-14,-11,-11,9,-9
-2,-7,-5,5,1,-5,-5,-13,-10,-11,9,-8
-1,-6,-5,4,1,-5,-4,-13,-10,-10,10,-8
-1,-7,-5,4,1,-5,-4,-13,-10,-10,10,-8
-1,-7,-5,4,1,-6,-4,-13,-9,-10,10,-8
0,-7,-6,4,2,-6,-4,-13,-9,-9,10,-8
-1,-7,-5,4,1,-5,-4,-12,-8,-9,10,-7
-1,-6,-4,4,1,-4,-3,-12,-8,-8,10,-7
0,-4,-3,3,1,-3,-3,-12,-8,-7,10,-6
-1,-4,-3,3,1,-3,-3,-12,-8,-7,10,-6
-2,-5,-3,4,0,-4,-3,-12,-8,-7,9,-6
-2,-6,-3,4,0,-4,-3,-12,-9,-8,9,-6
-2,-7,-4,4,1,-5,-3,-12,-9,-8,8,-6
-1,-8,-6,5,2,-7,-3,-12,-10,-9,7,-7
0,-9,-8,4,4,-8,-4,-13,-11,-9,7,-7
2,-9,-10,4,6,-9,-4,-14,-13,-10,7,-7
2,-10,-12,4,7,-11,-5,-17,-15,-11,7,-7
2,-11,-13,5,8,-12,-6,-20,-18,-13,6,-7
2,-12,-14,5,8,-13,-6,-23,-22,-16,6,-7
3,-12,-15,5,9,-14,-6,-26,-25,-18,7,-6
5,-12,-16,4,10,-14,-6,-29,-27,-20,7,-5
6,-12,-18,3,12,-15,-8,-32,-32,-23,7,-3
9,-12,-20,2,14,-16,-12,-36,-37,-26,8,0
15,-10,-25,-2,19,-17,-17,-37,-41,-27,13,6
23,-8,-31,-7,27,-19,-22,-37,-44,-26,21,17
31,-6,-37,-12,34,-21,-28,-37,-49,-27,30,29
41,-3,-43,-18,42,-22,-34,-37,-54,-28,38,41
51,2,-48,-26,50,-22,-39,-37,-58,-29,48,55
61,9,-51,-34,56,-20,-43,-37,-61,-29,57,69
66,15,-50,-40,58,-17,-47,-36,-63,-30,65,81
66,21,-44,-44,55,-11,-49,-34,-64,-30,71,91
61,28,-32,-45,46,-2,-48,-27,-59,-28,74,94
50,37,-13,-44,31,12,-41,-18,-49,-24,73,90
34,47,13,-40,10,30,-33,-8,-36,-17,68,82
16,56,40,-36,-12,49,-23,1,-21,-8,62,70
0,67,66,-33,-32,67,-13,13,-1,4,56,58
-11,75,87,-32,-49,81,-3,25,20,20,51,46
-21,76,97,-27,-59,87,7,38,42,37,47,32
-27,68,95,-20,-61,82,16,53,65,53,40,14
-31,59,90,-14,-61,75,24,69,89,69,34,-2
-34,53,87,-9,-61,71,32,83,111,84,30,-14
-39,48,87,-4,-63,68,38,94,128,96,27,-23
-40,44,84,-1,-62,64,41,103,142,105,23,-30
-39,39,78,0,-59,59,45,112,156,112,20,-36
-39,33,73,3,-56,53,49,121,168,117,16,-42
-41,27,69,7,-55,48,53,128,178,119,12,-47
-43,22,66,11,-54,43,57,132,185,118,7,-52
-42,17,61,13,-52,39,60,133,189,115,4,-55
-42,13,56,14,-50,35,63,134,193,114,3,-56
-43,10,54,17,-49,32,66,136,197,114,5,-55
-43,7,50,18,-47,28,68,136,200,114,7,-53
-41,4,46,19,-44,25,69,131,198,111,9,-51
-40,1,41,19,-41,21,69,123,191,107,11,-49
-39,-1,38,20,-39,18,69,113,183,101,13,-46
-38,-2,36,20,-37,17,69,100,174,96,14,-44
-37,-2,35,20,-37,17,68,80,163,90,15,-41
-37,-1,36,19,-37,17,67,57,150,84,16,-38
-36,-1,36,19,-37,17,65,32,137,75,16,-36
-36,-1,34,19,-36,16,63,9,124,65,14,-36
-35,-1,33,18,-34,16,60,-10,112,56,13,-36
-32,-1,31,16,-31,15,59,-24,103,49,13,-35
-31,0,29,15,-30,15,58,-33,95,43,14,-34
-29,-1,28,15,-29,14,56,-39,87,39,15,-33
-26,-1,25,14,-26,12,54,-45,80,34,15,-32
-24,-2,22,13,-23,10,52,-49,72,30,15,-32
-23,-3,21,13,-22,9,49,-52,62,25,15,-32
-24,-5,19,14,-22,7,45,-54,52,20,14,-32
-24,-6,17,15,-21,6,42,-55,44,15,14,-32
-23,-7,15,15,-19,5,39,-54,36,12,14,-31
-22,-7,14,14,-18,4,35,-53,28,9,14,-30
-20,-8,12,13,-16,3,32,-52,22,7,14,-29
-20,-8,11,14,-16,2,28,-51,18,7,14,-28
-19,-8,11,14,-15,1,24,-49,13,7,15,-26
-17,-6,10,13,-14,2,20,-47,8,6,16,-24
-15,-6,10,12,-13,2,15,-45,3,5,16,-22
-15,-6,8,11,-12,1,11,-43,0,3,15,-21
-14,-7,6,11,-10,0,7,-42,-4,1,14,-21
-13,-8,5,10,-9,-1,5,-41,-7,-1,12,-21
-12,-9,2,10,-7,-2,2,-39,-11,-3,11,-21
-11,-11,0,10,-5,-5,0,-37,-14,-4,10,-20
-9,-12,-4,10,-3,-8,-3,-35,-17,-6,8,-20
-8,-14,-7,11,-1,-11,-7,-33,-19,-7,7,-20
-6,-16,-10,12,1,-13,-9,-32,-20,-8,7,-19
-4,-16,-12,11,3,-14,-11,-30,-21,-8,7,-18
-3,-16,-13,10,4,-15,-12,-28,-21,-8,8,-18
-4,-18,-14,11,5,-16,-13,-27,-21,-8,8,-17
-4,-19,-15,11,6,-17,-14,-27,-21,-8,8,-18
-3,-18,-16,10,6,-16,-14,-27,-21,-7,9,-18
-2,-17,-15,9,7,-16,-13,-27,-20,-6,9,-18
-2,-17,-15,10,6,-16,-13,-27,-21,-6,10,-18
-2,-17,-16,10,7,-17,-13,-28,-21,-6,10,-18
0,-17,-17,9,8,-17,-14,-28,-22,-6,10,-18
0,-17,-17,8,8,-17,-14,-28,-23,-6,9,-18
-1,-16,-15,8,7,-16,-14,-26,-22,-6,9,-17
-2,-16,-13,8,5,-14,-12,-24,-20,-6,10,-16
-3,-15,-12,9,4,-13,-11,-23,-19,-6,11,-15
-3,-15,-12,9,4,-13,-11,-22,-19,-6,11,-15
-2,-14,-13,8,5,-13,-11,-21,-19,-6,12,-15
0,-14,-13,8,6,-14,-11,-21,-18,-6,13,-15
0,-14,-13,8,6,-14,-10,-20,-18,-5,13,-15
0,-14,-12,8,5,-13,-10,-18,-17,-5,14,-14
0,-14,-13,7,6,-13,-9,-17,-17,-5,14,-14
0,-14,-13,7,6,-13,-8,-16,-16,-5,13,-13
0,-14,-13,6,7,-13,-7,-15,-15,-3,11,-13
0,-13,-13,6,7,-13,-6,-14,-14,-1,8,-13
0,-13,-13,6,6,-12,-5,-14,-13,1,5,-12
0,-13,-12,7,6,-13,-5,-14,-13,1,2,-12
-1,-13,-12,7,6,-13,-6,-14,-14,2,0,-12
0,-13,-13,7,6,-13,-6,-13,-13,3,0,-11
2,-12,-14,5,8,-13,-5,-13,-13,4,0,-11
3,-12,-14,4,9,-13,-5,-13,-13,4,2,-10
3,-13,-15,4,9,-14,-6,-13,-13,4,3,-11
2,-14,-16,5,9,-15,-8,-13,-13,4,4,-11
1,-15,-15,7,8,-15,-8,-13,-13,4,5,-11
0,-15,-14,8,7,-15,-8,-12,-13,5,7,-10
1,-13,-14,6,7,-14,-8,-12,-13,6,8,-10
2,-12,-15,5,8,-13,-8,-11,-13,6,9,-9
3,-12,-15,5,9,-13,-8,-11,-13,6,10,-9
2,-12,-15,5,9,-13,-8,-11,-13,6,10,-9
2,-12,-14,5,9,-13,-8,-11,-13,6,10,-9
2,-12,-14,5,9,-13,-8,-11,-12,5,10,-9
2,-12,-15,5,9,-13,-8,-11,-12,5,9,-10
2,-13,-15,6,9,-14,-8,-11,-13,4,8,-11
2,-14,-16,6,9,-15,-8,-11,-13,3,7,-11
1,-14,-15,7,8,-15,-8,-11,-13,3,6,-12
0,-14,-14,6,7,-14,-7,-11,-13,3,6,-12
0,-13,-13,6,6,-13,-7,-10,-12,3,7,-11
0,-12,-11,5,6,-11,-6,-9,-11,3,8,-11
0,-11,-10,5,5,-11,-5,-8,-10,4,9,-10
-1,-12,-10,6,5,-11,-5,-8,-10,4,9,-10
-1,-12,-10,7,5,-11,-4,-7,-9,4,9,-10
0,-12,-11,6,5,-11,-4,-7,-9,5,9,-10
1,-11,-12,5,6,-11,-4,-6,-9,5,9,-10
2,-10,-12,5,7,-11,-4,-6,-9,6,9,-10
2,-10,-12,5,7,-11,-5,-5,-10,6,9,-10
2,-11,-13,5,8,-12,-5,-5,-10,5,9,-10
1,-13,-14,7,7,-14,-6,-5,-11,5,9,-11
0,-14,-14,8,7,-14,-6,-5,-11,4,10,-11
0,-14,-14,8,7,-14,-5,-5,-11,4,10,-10
0,-14,-13,8,7,-13,-5,-4,-11,5,11,-10
-1,-14,-12,8,6,-13,-5,-4,-11,5,11,-10
-2,-15,-12,9,5,-14,-5,-5,-12,4,11,-10
-2,-16,-13,9,6,-15,-5,-5,-13,3,10,-11
0,-16,-14,8,7,-15,-5,-5,-14,3,9,-11
1,-15,-15,7,8,-15,-4,-4,-14,3,9,-11
2,-13,-15,5,9,-14,-3,-4,-13,3,9,-10
2,-12,-14,5,8,-13,-3,-3,-13,4,10,-9
1,-12,-13,6,7,-13,-3,-3,-13,4,9,-9
1,-12,-14,5,8,-13,-3,-3,-13,4,8,-8
2,-11,-13,4,8,-12,-2,-3,-13,5,8,-8
2,-11,-13,4,7,-12,-3,-3,-14,5,7,-9
2,-12,-13,5,7,-12,-3,-3,-15,4,6,-9
2,-12,-13,5,7,-12,-3,-2,-15,4,5,-9
3,-11,-13,4,8,-11,-3,-2,-15,4,5,-9
3,-10,-13,4,8,-11,-2,-1,-15,4,5,-8
3,-12,-14,5,9,-13,-2,-2,-16,3,4,-9
3,-13,-16,6,10,-15,-2,-3,-17,3,3,-9
3,-13,-16,5,10,-15,-2,-3,-17,3,3,-9
3,-13,-16,5,9,-15,-1,-3,-17,3,3,-8
2,-13,-15,5,8,-14,-1,-3,-18,3,4,-7
0,-14,-14,7,7,-14,-2,-4,-19,2,4,-6
1,-14,-15,7,8,-14,-4,-4,-21,2,5,-5
2,-12,-14,5,8,-13,-5,-4,-22,1,5,-4
2,-10,-13,4,8,-11,-5,-4,-22,1,5,-3
3,-9,-12,3,8,-10,-5,-4,-23,0,5,-2
4,-8,-13,2,8,-10,-6,-4,-24,0,5,-1
4,-8,-13,2,8,-10,-7,-5,-25,0,4,-1
3,-9,-13,3,8,-11,-8,-5,-25,0,4,0
3,-10,-14,3,8,-11,-9,-5,-27,-1,4,0
4,-11,-16,3,10,-12,-10,-6,-29,-1,4,1
5,-11,-17,2,11,-13,-11,-7,-30,-2,3,1
6,-10,-16,2,11,-13,-12,-7,-31,-2,1,1
6,-9,-16,1,11,-13,-12,-8,-32,-3,0,1
7,-8,-15,0,11,-12,-12,-8,-33,-4,-1,1
8,-7,-15,0,11,-11,-12,-8,-33,-4,-2,1
7,-8,-14,0,11,-11,-12,-8,-33,-4,-4,1
6,-9,-15,0,11,-12,-11,-9,-33,-4,-5,1
7,-8,-15,0,11,-11,-10,-8,-33,-3,-6,1
6,-8,-14,0,10,-10,-9,-8,-33,-2,-7,1
6,-7,-13,0,10,-10,-8,-7,-32,-1,-9,1
7,-7,-14,0,10,-10,-7,-7,-32,-1,-10,0
7,-6,-13,-1,10,-10,-7,-7,-32,0,-11,0
6,-6,-12,0,8,-9,-6,-6,-31,0,-12,1
5,-6,-10,0,7,-8,-5,-5,-30,0,-14,1
5,-4,-9,0,7,-7,-4,-4,-29,1,-16,0
5,-2,-8,-1,7,-5,-2,-2,-28,3,-17,0
6,-1,-7,-2,7,-4,0,-1,-27,5,-18,0
7,0,-7,-3,7,-4,0,-1,-27,6,-20,-1
6,-1,-7,-2,7,-5,2,-1,-26,6,-22,-1
5,-3,-7,-1,6,-5,3,-1,-26,6,-25,-2
3,-3,-6,-1,5,-5,5,0,-26,6,-27,-2
3,-2,-5,-1,4,-4,8,0,-26,7,-29,-2
3,-3,-6,-1,4,-4,10,0,-26,7,-33,-3
2,-4,-6,0,4,-4,11,0,-27,6,-37,-5
1,-4,-5,1,3,-4,12,-1,-27,5,-40,-6
1,-3,-4,1,2,-3,14,-1,-27,5,-43,-7
3,-2,-4,0,3,-3,15,-1,-27,6,-45,-8
4,-1,-4,-1,4,-2,16,-2,-27,6,-48,-9
4,0,-4,-2,4,-2,17,-2,-27,7,-50,-9
4,0,-3,-2,4,-1,18,-2,-27,7,-53,-9
4,0,-2,-3,3,0,19,-2,-27,7,-57,-10
4,1,-2,-3,3,0,21,-2,-27,8,-61,-11
2,0,-1,-1,1,0,23,-3,-27,8,-65,-12
-1,-1,0,1,0,0,23,-4,-27,7,-68,-12
-3,-2,0,2,-2,0,23,-5,-28,7,-72,-13
-4,-2,1,3,-3,0,23,-6,-28,7,-75,-13
-4,-2,2,2,-3,0,23,-7,-28,6,-78,-13
-4,-2,3,2,-3,1,23,-7,-28,6,-80,-14
-4,-2,3,2,-3,1,23,-8,-29,5,-82,-15
-4,-2,2,2,-3,1,23,-9,-30,5,-84,-16
-4,-1,3,2,-4,1,23,-9,-30,5,-86,-17
-4,-1,3,2,-4,1,24,-10,-31,5,-86,-17
-3,-1,2,2,-3,1,24,-11,-31,5,-87,-17
-2,-1,1,2,-2,0,23,-12,-32,4,-89,-17
-2,-2,0,2,-1,0,23,-12,-33,3,-91,-18
-2,-2,0,2,-1,0,24,-12,-34,3,-92,-18
-2,-1,1,2,-1,0,24,-12,-34,2,-93,-18
-3,-1,1,2,-2,0,23,-13,-34,2,-94,-18
-2,-1,1,1,-2,1,23,-13,-34,1,-94,-18
-2,-1,1,1,-2,0,23,-13,-35,0,-95,-19
-3,-1,2,2,-3,0,23,-14,-35,-1,-95,-19
-4,-2,3,3,-4,0,24,-14,-35,-1,-94,-19
-4,-2,3,3,-4,0,25,-13,-35,-2,-93,-19
-4,-2,1,3,-3,0,25,-13,-35,-2,-93,-19
-4,-3,0,3,-2,-1,25,-13,-35,-3,-93,-19
-5,-5,0,4,-2,-2,24,-14,-36,-4,-93,-19
-5,-5,0,5,-3,-1,24,-13,-36,-3,-92,-19
-5,-3,1,4,-3,0,25,-12,-35,-3,-91,-17
-4,-3,1,4,-3,-1,25,-12,-34,-3,-90,-17
-4,-5,0,4,-2,-2,24,-12,-34,-4,-90,-17
-5,-5,0,5,-2,-2,23,-13,-34,-4,-90,-18
-6,-5,1,5,-4,-1,23,-12,-33,-4,-89,-17
-7,-6,1,6,-4,-2,22,-12,-33,-4,-88,-17
-6,-6,0,6,-3,-3,22,-12,-32,-4,-87,-17
-5,-6,-1,6,-2,-3,22,-12,-32,-4,-85,-16
-6,-7,-1,7,-3,-3,22,-11,-32,-4,-82,-15
-6,-7,-1,7,-2,-3,22,-11,-31,-4,-80,-15
-5,-7,-1,6,-1,-3,22,-10,-31,-4,-79,-14
-6,-7,-1,6,-1,-4,23,-10,-30,-5,-78,-14
-6,-8,-1,6,-2,-4,24,-10,-30,-5,-77,-14
-5,-8,-2,6,-1,-4,24,-9,-30,-6,-77,-14
-4,-7,-2,5,-1,-4,25,-9,-30,-5,-76,-14
-4,-5,-1,4,-1,-3,27,-7,-29,-3,-74,-13
-3,-4,-1,3,0,-2,28,-5,-28,-1,-72,-11
-3,-6,-2,4,0,-4,27,-5,-29,-1,-71,-11
-6,-9,-2,7,-1,-5,26,-6,-30,-1,-71,-12
-8,-10,-2,8,-2,-6,26,-7,-31,-1,-72,-12
-7,-9,-2,8,-2,-5,27,-6,-31,-1,-71,-11
-6,-8,-2,7,-1,-5,27,-6,-31,-1,-71,-11
-5,-8,-3,7,0,-5,26,-6,-31,-1,-72,-11
-5,-9,-4,8,0,-6,25,-7,-32,-2,-72,-11
-6,-10,-4,8,0,-6,24,-6,-32,-2,-71,-10
-5,-9,-4,7,0,-6,23,-5,-32,-1,-68,-9
-4,-9,-4,6,1,-7,21,-5,-32,0,-67,-9
-3,-10,-6,6,2,-8,19,-6,-34,-1,-67,-9
-3,-11,-7,7,2,-9,18,-7,-35,-1,-67,-9
-4,-12,-7,8,1,-9,16,-7,-35,-1,-67,-8
-4,-11,-7,7,1,-9,15,-7,-35,-1,-67,-8
-3,-11,-7,7,2,-9,13,-7,-36,-2,-67,-8
-3,-12,-8,8,2,-10,11,-8,-38,-3,-68,-8
-4,-13,-9,9,3,-11,10,-9,-39,-4,-68,-9
-4,-13,-9,9,3,-11,11,-9,-39,-4,-68,-8
-3,-13,-9,8,3,-11,11,-8,-39,-4,-69,-8
-2,-11,-9,6,3,-10,10,-8,-40,-4,-69,-8
-2,-12,-9,7,3,-11,10,-8,-41,-5,-70,-8
-3,-13,-10,8,3,-11,9,-8,-41,-6,-70,-8
-2,-13,-10,7,4,-11,9,-8,-41,-6,-69,-8
-1,-12,-11,7,5,-11,10,-7,-40,-6,-68,-7
-1,-13,-12,7,5,-12,10,-7,-40,-5,-67,-7
-1,-13,-11,7,5,-12,10,-7,-40,-5,-66,-7
1,-10,-11,5,6,-11,11,-6,-40,-5,-65,-6
3,-8,-11,3,7,-10,11,-5,-39,-4,-64,-6
1,-9,-11,4,6,-10,11,-6,-40,-5,-64,-6
-1,-12,-11,6,5,-11,10,-7,-41,-6,-64,-7
-2,-13,-11,7,4,-12,9,-8,-42,-7,-64,-7
-2,-12,-10,7,4,-11,9,-8,-41,-7,-64,-6
-1,-10,-9,5,4,-9,9,-7,-40,-6,-64,-5
0,-8,-8,4,4,-8,10,-7,-39,-5,-64,-5
-1,-7,-7,4,3,-7,10,-6,-39,-4,-64,-5
-2,-7,-6,4,2,-7,10,-6,-38,-3,-63,-4
-2,-7,-5,4,1,-6,10,-5,-36,-2,-63,-4
-2,-6,-4,3,1,-5,10,-4,-35,-2,-63,-3
-2,-5,-3,3,0,-4,10,-3,-34,-1,-62,-3
-2,-5,-3,4,0,-4,10,-3,-33,-1,-61,-3
-2,-5,-3,4,0,-4,9,-2,-33,0,-60,-3
-1,-5,-4,3,1,-5,9,-2,-32,0,-57,-2
0,-5,-5,3,2,-5,9,-2,-32,1,-53,-1
0,-6,-5,4,2,-6,8,-2,-31,1,-50,-1
-1,-6,-4,4,1,-5,9,-1,-30,1,-45,-1
-2,-6,-4,4,1,-5,9,0,-29,1,-41,0
-1,-5,-4,3,1,-5,9,0,-28,1,-38,0
-1,-5,-3,2,0,-4,8,0,-28,1,-36,1
-2,-4,-1,3,-1,-3,8,0,-28,1,-34,2
-2,-4,-1,3,-1,-2,7,0,-28,1,-35,1
-2,-4,-1,3,0,-3,5,0,-28,1,-36,1
-2,-4,-2,3,0,-3,5,0,-28,1,-37,0
-2,-5,-2,3,0,-4,5,0,-28,1,-38,0
-3,-5,-2,4,0,-4,6,0,-27,2,-38,0
-3,-6,-3,4,0,-4,7,1,-27,3,-38,0
-3,-6,-3,4,0,-5,7,1,-27,5,-38,1
-3,-6,-3,4,0,-5,7,0,-27,6,-37,1
-3,-6,-2,4,-1,-4,6,0,-26,6,-37,1
-2,-6,-3,4,0,-4,5,0,-27,4,-36,1
-2,-7,-4,5,0,-5,4,0,-28,3,-36,1
-3,-6,-4,5,0,-5,4,0,-28,4,-35,1
-2,-5,-3,4,0,-4,4,1,-27,5,-33,3
-1,-4,-3,3,1,-4,3,1,-28,5,-33,3
-1,-4,-4,3,1,-4,2,1,-28,5,-33,2
0,-5,-5,3,1,-5,2,1,-28,4,-34,1
0,-6,-6,3,2,-6,2,1,-28,4,-34,1
-1,-8,-6,4,1,-7,2,1,-28,5,-34,1
-3,-9,-6,6,0,-7,3,2,-28,5,-33,1
-3,-9,-6,6,0,-7,2,2,-28,6,-33,1
-3,-8,-5,5,0,-6,2,2,-28,7,-34,1
-1,-6,-5,3,1,-6,2,3,-28,8,-34,2
0,-5,-5,2,2,-6,2,3,-27,10,-33,2
0,-5,-6,3,2,-6,2,2,-28,10,-34,2
-1,-7,-6,4,1,-7,1,1,-29,9,-36,1
-2,-8,-6,5,0,-7,1,1,-29,10,-37,0
-2,-9,-6,5,1,-7,1,1,-29,10,-38,0
-3,-9,-6,6,1,-7,0,0,-30,9,-38,0
-2,-8,-6,5,1,-7,-3,0,-30,9,-39,1
0,-6,-7,3,2,-6,-4,0,-30,10,-39,1
2,-5,-8,2,4,-7,-4,0,-30,10,-40,1
1,-6,-8,3,4,-8,-5,0,-31,11,-41,1
0,-7,-7,3,3,-8,-6,0,-31,11,-42,1
0,-8,-8,4,3,-8,-6,1,-31,12,-43,1
-2,-11,-9,6,3,-10,-8,0,-32,11,-45,0
-2,-13,-10,7,3,-11,-9,0,-33,11,-46,0
-1,-13,-12,6,5,-11,-10,-2,-35,11,-47,0
1,-14,-15,6,7,-14,-11,-6,-39,9,-50,0
2,-15,-16,6,9,-16,-12,-10,-43,7,-54,-1
1,-15,-17,7,9,-17,-13,-14,-46,5,-57,-1
2,-16,-18,6,10,-18,-14,-17,-49,3,-59,-1
6,-15,-21,4,14,-18,-15,-19,-52,1,-61,1
11,-13,-24,0,18,-18,-17,-21,-56,0,-60,6
14,-13,-27,-1,20,-20,-21,-23,-59,-1,-57,14
19,-14,-32,-3,25,-22,-27,-24,-63,-1,-50,25
29,-11,-39,-9,33,-25,-34,-24,-67,-1,-42,37
41,-6,-46,-17,43,-26,-41,-26,-72,-2,-34,50
51,-1,-52,-24,51,-27,-48,-28,-77,-4,-27,62
60,3,-56,-31,57,-26,-53,-29,-82,-6,-19,74
67,9,-57,-38,61,-24,-57,-29,-85,-8,-11,86
71,16,-55,-43,62,-19,-59,-27,-84,-8,-3,97
70,23,-46,-47,57,-11,-57,-21,-79,-5,2,103
59,31,-28,-45,43,1,-51,-12,-69,0,4,102
42,39,-3,-40,22,18,-43,-2,-56,8,2,94
26,49,24,-37,0,37,-33,6,-42,17,-3,81
10,61,51,-35,-21,56,-24,15,-25,28,-9,65
-4,70,74,-33,-40,72,-15,25,-7,42,-16,49
-15,72,88,-29,-52,79,-6,36,12,57,-23,34
-22,68,91,-23,-57,79,2,49,32,72,-30,18
-27,62,90,-18,-59,75,10,61,52,87,-37,2
-31,58,90,-14,-61,74,17,72,70,100,-44,-9
-34,56,91,-11,-63,73,22,80,84,109,-49,-17
-37,53,91,-8,-64,72,26,89,95,116,-53,-22
-39,50,90,-5,-65,69,30,98,106,123,-56,-26
-41,46,87,-2,-64,66,33,106,116,129,-59,-30
-41,42,84,-1,-63,62,37,113,124,132,-63,-34
-42,38,79,1,-61,58,40,119,131,131,-67,-38
-42,33,74,3,-59,54,43,124,136,129,-71,-40
-42,29,70,6,-57,50,46,128,141,128,-72,-41
-41,25,66,8,-55,46,48,132,146,129,-70,-39
-39,20,60,9,-51,41,50,134,149,129,-68,-36
-37,17,54,10,-46,36,51,132,148,127,-65,-34
-36,15,51,10,-44,33,52,125,144,125,-61,-30
-35,14,48,10,-42,31,52,118,138,123,-57,-26
-33,13,46,10,-40,30,52,108,132,120,-55,-23
-32,13,45,9,-39,29,51,94,126,117,-53,-20
-29,13,43,8,-37,28,50,75,119,113,-52,-18
-29,12,41,9,-36,27,49,52,109,105,-54,-18
-29,10,40,10,-35,25,48,30,100,96,-58,-19
-28,9,38,10,-34,24,46,11,91,89,-61,-20
-27,7,35,9,-32,21,44,-6,81,83,-63,-20
-28,5,33,10,-30,19,43,-18,72,77,-64,-19
-27,4,31,10,-29,18,41,-27,64,72,-64,-18
-25,5,30,9,-28,17,40,-33,57,67,-64,-18
-23,5,29,9,-27,17,40,-38,51,63,-65,-18
-22,5,28,9,-26,16,39,-42,44,59,-66,-18
-22,5,27,9,-25,16,37,-44,36,54,-67,-18
-21,4,27,9,-24,15,35,-46,27,48,-67,-18
-21,4,26,9,-24,14,33,-46,19,44,-67,-18
-20,4,24,8,-23,14,31,-45,13,42,-66,-17
-19,4,22,7,-21,13,28,-44,6,40,-64,-16
-18,3,20,7,-19,11,24,-43,1,40,-61,-14
-17,2,19,7,-18,10,21,-41,-2,40,-59,-13
-15,2,18,6,-17,10,19,-39,-6,37,-57,-11
-15,1,17,7,-16,9,16,-38,-12,32,-57,-11
-15,0,15,7,-16,8,13,-37,-18,27,-57,-11
-14,0,14,6,-15,8,11,-36,-22,25,-56,-10
-12,2,13,4,-13,8,9,-33,-24,23,-54,-9
-10,2,12,3,-11,7,7,-30,-27,21,-53,-8
-9,1,10,3,-10,5,5,-27,-30,19,-52,-8
-8,0,6,3,-8,3,2,-25,-33,17,-51,-7
-6,-2,3,3,-5,0,-1,-22,-35,16,-49,-5
-4,-3,1,3,-4,0,-5,-20,-36,15,-48,-4
-3,-3,0,3,-2,-1,-8,-18,-37,14,-47,-3
0,-2,-1,2,0,-1,-10,-16,-38,13,-47,-3
1,-2,-3,1,1,-2,-11,-14,-38,12,-48,-3
0,-4,-3,2,1,-3,-11,-13,-38,12,-48,-3
-2,-6,-3,4,0,-4,-10,-13,-38,12,-49,-4
-3,-7,-3,5,-1,-4,-9,-12,-38,12,-49,-4
-3,-7,-3,5,0,-5,-9,-12,-39,12,-49,-4
-3,-7,-4,5,0,-5,-9,-13,-40,11,-50,-5
-4,-8,-3,6,0,-6,-9,-13,-41,11,-50,-5
-4,-9,-3,7,0,-6,-9,-13,-42,10,-51,-5
-3,-9,-5,6,1,-8,-10,-13,-43,9,-51,-5
-1,-9,-7,5,2,-8,-10,-13,-43,8,-52,-6
-1,-9,-7,5,3,-8,-9,-12,-43,8,-52,-6
-1,-9,-7,4,3,-8,-8,-12,-43,8,-52,-6
0,-9,-8,4,4,-8,-9,-11,-43,9,-51,-6
0,-8,-8,4,4,-8,-9,-10,-43,9,-49,-5
0,-7,-8,4,4,-8,-10,-10,-43,9,-48,-5
0,-7,-8,4,4,-8,-11,-10,-43,8,-47,-5
0,-8,-8,4,4,-8,-12,-9,-43,7,-46,-5
1,-8,-9,4,5,-9,-13,-9,-43,7,-45,-5
2,-7,-9,3,6,-8,-13,-8,-43,7,-44,-4
2,-7,-9,3,6,-8,-13,-8,-44,6,-43,-4
2,-8,-10,3,5,-9,-14,-7,-44,5,-42,-4
1,-8,-9,4,5,-8,-13,-6,-43,6,-41,-3
1,-8,-9,4,5,-8,-13,-6,-43,6,-39,-3
1,-9,-10,4,6,-10,-14,-7,-44,6,-39,-3
1,-10,-11,4,6,-11,-16,-8,-45,6,-38,-3
1,-10,-11,4,6,-11,-17,-8,-45,5,-38,-3
1,-10,-11,5,5,-11,-18,-8,-46,5,-37,-2
0,-11,-10,5,5,-11,-19,-8,-46,5,-37,-1
0,-11,-10,5,4,-10,-20,-8,-46,5,-36,-1
0,-10,-10,5,4,-10,-20,-8,-46,5,-35,-2
0,-11,-10,6,4,-10,-20,-9,-47,5,-34,-2
-1,-12,-10,7,4,-11,-21,-10,-48,5,-33,-2
0,-12,-11,6,6,-12,-23,-10,-49,5,-32,-2
4,-11,-14,4,9,-12,-24,-10,-50,5,-32,-1
5,-11,-15,3,10,-13,-26,-10,-50,5,-31,-1
4,-12,-16,4,9,-14,-27,-10,-51,4,-31,-2
1,-15,-16,7,8,-15,-29,-11,-53,3,-32,-2
0,-17,-17,8,8,-17,-30,-12,-55,1,-32,-3
1,-16,-18,8,9,-17,-31,-12,-56,1,-31,-3
1,-16,-17,8,9,-17,-31,-13,-57,0,-31,-4
0,-18,-17,10,8,-18,-32,-14,-57,0,-30,-5
0,-18,-17,9,9,-18,-31,-14,-57,1,-29,-5
2,-16,-18,7,10,-18,-30,-13,-56,1,-28,-5
2,-15,-17,7,10,-17,-30,-13,-56,1,-28,-5
1,-15,-16,7,8,-16,-30,-13,-56,1,-27,-5
1,-15,-15,7,8,-15,-30,-13,-56,2,-27,-5
1,-15,-16,7,8,-16,-29,-13,-56,3,-26,-5
1,-16,-17,7,9,-16,-29,-13,-55,3,-26,-6
1,-16,-17,8,9,-17,-29,-13,-55,3,-27,-6
2,-17,-18,8,10,-18,-29,-13,-55,3,-27,-7
3,-16,-18,7,11,-17,-29,-13,-55,4,-26,-6
3,-14,-17,6,10,-16,-29,-12,-54,6,-24,-6
4,-13,-17,4,11,-15,-30,-11,-53,6,-24,-6
6,-12,-18,3,12,-15,-30,-11,-53,5,-24,-6
5,-12,-18,4,11,-15,-30,-11,-52,4,-23,-5
1,-14,-17,7,8,-15,-29,-11,-52,4,-22,-4
0,-16,-16,8,7,-16,-28,-11,-52,5,-21,-3
0,-16,-16,8,7,-16,-27,-10,-51,5,-20,-2
0,-15,-15,8,7,-15,-27,-9,-51,6,-19,-2
1,-14,-15,7,8,-15,-26,-8,-50,6,-17,-2
2,-14,-16,6,9,-15,-26,-7,-49,7,-16,-2
3,-14,-17,5,10,-15,-25,-7,-49,7,-16,-2
4,-13,-17,4,10,-15,-24,-7,-48,7,-15,-1
3,-12,-15,4,9,-14,-23,-7,-48,7,-14,-1
3,-10,-14,3,8,-12,-23,-6,-47,8,-13,0
3,-9,-13,3,8,-12,-23,-6,-46,8,-13,0
3,-9,-13,3,8,-12,-23,-5,-45,9,-12,0
4,-9,-13,3,9,-12,-23,-5,-45,9,-12,0
4,-10,-14,3,9,-13,-24,-4,-44,9,-12,0
3,-10,-14,3,8,-13,-24,-4,-44,9,-12,0
3,-10,-14,3,8,-12,-24,-3,-44,9,-11,1
5,-9,-14,2,9,-12,-23,-3,-44,9,-10,1
6,-8,-14,0,9,-11,-23,-3,-44,9,-10,2
5,-7,-13,0,9,-10,-23,-2,-43,9,-9,2
4,-8,-12,2,8,-10,-23,-2,-43,9,-9,2
3,-9,-12,3,7,-11,-23,-2,-43,8,-9,2
3,-8,-11,3,7,-11,-23,-1,-42,9,-8,3
4,-7,-10,2,7,-9,-23,-1,-42,9,-7,4
5,-6,-11,1,8,-9,-24,-1,-42,8,-6,5
6,-5,-12,0,9,-9,-24,-1,-42,8,-5,6
6,-4,-12,0,9,-8,-24,-1,-42,8,-4,7
7,-3,-11,-1,8,-7,-23,0,-42,7,-4,7
6,-3,-10,-1,8,-7,-23,0,-41,6,-5,7
6,-2,-8,-1,7,-6,-22,0,-41,6,-5,7
7,0,-7,-3,6,-4,-21,0,-40,6,-3,8
7,0,-6,-3,6,-3,-19,0,-39,6,-3,8
5,0,-5,-2,5,-3,-19,0,-39,6,-3,8
4,-1,-5,-1,5,-3,-19,0,-38,6,-3,8
5,0,-6,-2,6,-3,-19,0,-37,6,-3,8
7,1,-7,-4,7,-2,-19,1,-36,6,-3,8
7,2,-5,-5,6,-1,-18,1,-36,6,-2,9
6,3,-2,-4,4,0,-17,2,-35,7,-1,9
6,5,0,-5,3,2,-17,2,-34,8,0,10
7,7,1,-6,3,3,-18,3,-33,8,0,10
7,6,1,-6,2,3,-18,3,-32,8,1,10
6,6,1,-6,2,4,-17,4,-30,9,2,11
7,8,1,-7,2,4,-15,6,-29,10,3,12
7,9,1,-8,3,5,-15,7,-28,10,3,12
8,8,0,-8,3,4,-15,7,-28,9,2,11
8,7,-1,-7,4,2,-17,7,-28,8,2,11
7,6,-1,-7,4,2,-17,7,-26,9,3,12
7,8,1,-7,3,3,-15,9,-25,10,5,13
7,8,2,-7,2,4,-14,9,-24,11,5,13
5,7,2,-6,1,5,-13,8,-24,10,4,12
3,7,3,-5,0,5,-12,8,-24,10,4,12
2,7,4,-5,-1,6,-12,8,-23,10,4,12
2,8,5,-5,-1,6,-12,8,-22,11,3,12
2,8,5,-6,-1,6,-11,9,-22,11,3,11
3,8,5,-6,-2,6,-10,9,-21,11,3,11
3,8,5,-5,-2,6,-9,8,-22,11,4,10
3,7,4,-5,-1,5,-9,7,-22,12,4,10
2,7,4,-4,-1,5,-9,6,-22,12,4,10
1,6,5,-3,-2,5,-9,5,-22,11,3,10
0,5,5,-2,-3,5,-9,5,-22,10,2,9
0,6,6,-3,-4,6,-8,5,-22,11,3,9
1,8,6,-5,-3,6,-7,5,-21,11,3,9
1,7,5,-4,-3,5,-7,4,-22,9,2,8
0,4,4,-1,-3,4,-8,3,-23,7,0,6
-1,3,4,-1,-3,4,-8,2,-24,6,0,4
0,4,4,-2,-2,4,-8,2,-23,6,0,4
0,5,3,-2,-2,4,-8,2,-22,6,1,5
0,4,3,-2,-2,3,-8,2,-22,6,2,5
0,3,2,-1,-2,2,-8,2,-22,6,2,5
-1,2,2,0,-3,2,-8,2,-23,5,3,5
-1,2,2,0,-3,2,-7,1,-23,5,3,5
-2,1,2,1,-3,1,-7,1,-24,4,2,5
-3,-1,2,2,-3,1,-8,0,-24,2,2,5
-5,-2,3,3,-4,0,-8,0,-24,1,2,5
-4,-1,3,3,-4,0,-8,-1,-24,0,2,6
-2,0,3,1,-3,1,-9,-1,-24,0,3,6
-1,2,3,0,-2,1,-10,-1,-24,-1,2,6
-1,3,3,-1,-2,2,-11,-1,-24,-2,2,6
-1,4,4,-1,-3,2,-11,-1,-24,-3,2,6
0,4,4,-1,-2,2,-12,-1,-24,-4,3,6
0,3,3,-1,-2,2,-12,-2,-25,-6,3,6
0,2,2,0,-1,1,-13,-2,-26,-8,3,6
0,2,1,0,-1,1,-14,-2,-26,-8,3,7
-1,1,2,0,-1,1,-14,-2,-26,-8,4,7
-2,0,2,1,-2,0,-14,-2,-26,-8,4,7
-2,0,1,1,-1,0,-15,-2,-26,-9,3,7
-1,0,0,1,-1,-1,-16,-3,-26,-9,3,7
-1,0,1,0,-1,0,-17,-3,-26,-9,3,7
-1,1,2,0,-2,0,-17,-3,-26,-9,4,8
0,2,2,-1,-2,1,-17,-3,-26,-9,5,9
0,2,2,-1,-1,1,-18,-3,-26,-9,6,10
1,2,1,-1,-1,1,-19,-3,-26,-9,7,11
1,2,1,-1,0,1,-20,-3,-26,-10,8,11
1,1,-1,-1,0,0,-22,-3,-27,-11,8,11
1,0,-2,-1,1,-1,-23,-4,-27,-11,8,10
1,0,-2,0,1,-2,-23,-3,-28,-11,9,11
2,-1,-4,0,2,-3,-23,-3,-28,-11,10,12
3,-3,-6,0,4,-5,-24,-4,-30,-12,10,12
4,-5,-9,1,6,-8,-24,-7,-33,-14,10,12
4,-7,-12,2,7,-10,-25,-11,-37,-18,9,12
4,-9,-13,2,8,-11,-24,-16,-41,-21,8,12
5,-9,-15,2,9,-12,-24,-19,-44,-23,8,13
6,-9,-16,1,10,-13,-23,-22,-47,-25,8,15
6,-10,-17,1,11,-14,-24,-25,-51,-28,8,17
8,-9,-18,0,12,-14,-25,-27,-55,-30,12,23
14,-7,-21,-3,17,-14,-28,-27,-57,-29,21,34
23,-4,-27,-9,24,-15,-32,-25,-59,-28,33,48
32,0,-33,-16,32,-16,-38,-25,-62,-28,45,63
42,5,-38,-23,40,-16,-44,-26,-65,-29,57,79
51,11,-41,-31,46,-15,-49,-26,-68,-29,67,94
58,17,-41,-38,49,-12,-54,-26,-70,-30,77,110
63,25,-38,-44,50,-7,-57,-24,-71,-30,86,124
63,33,-31,-48,47,0,-57,-20,-69,-30,91,132
58,40,-18,-48,38,10,-54,-13,-62,-28,92,131
45,47,2,-46,21,24,-46,-4,-51,-24,86,121
26,55,29,-40,-2,42,-36,8,-35,-17,76,104
7,64,57,-36,-25,61,-26,21,-15,-7,63,82
-7,74,81,-33,-44,77,-16,33,5,6,51,61
-17,76,94,-29,-56,85,-7,46,28,23,41,42
-25,72,96,-23,-61,83,2,60,51,40,33,24
-31,65,96,-17,-63,80,11,73,72,56,26,10
-36,60,96,-12,-66,78,19,82,90,68,22,0
-39,57,96,-9,-68,77,24,89,104,79,20,-6
-39,55,94,-7,-67,75,28,98,118,88,19,-10
-39,51,90,-6,-66,72,32,108,132,96,18,-13
-40,47,86,-4,-64,67,35,116,144,102,16,-16
-40,42,82,-1,-61,62,38,124,154,106,13,-19
-41,37,77,1,-60,57,41,131,163,107,10,-20
-41,32,73,5,-58,51,43,136,168,107,8,-21
-40,27,67,6,-54,46,45,140,173,109,10,-20
-37,24,61,6,-49,42,47,145,178,111,14,-16
-35,21,56,7,-46,38,49,149,182,111,19,-12
-34,17,51,8,-43,35,50,149,181,108,23,-9
-32,15,46,8,-40,31,51,147,178,103,28,-5
-30,13,43,8,-37,28,52,143,174,99,32,-2
-28,14,41,7,-35,27,53,133,168,96,36,1
-27,13,40,7,-34,26,53,113,159,91,39,4
-28,10,39,9,-35,24,51,86,146,83,40,5
-29,8,38,11,-35,23,49,58,131,73,40,5
-28,9,38,10,-34,23,47,31,116,62,40,6
-26,9,36,9,-32,23,45,8,103,52,40,7
-24,10,34,7,-29,22,43,-7,92,44,40,8
-23,8,31,7,-27,20,41,-17,84,38,39,8
-23,6,29,8,-26,18,39,-23,77,33,38,9
-23,5,28,8,-26,17,38,-28,70,28,37,10
-22,6,28,8,-25,17,37,-31,63,23,37,11
-20,7,27,7,-24,17,36,-32,56,18,38,12
-17,7,25,5,-21,16,34,-33,48,12,40,13
-16,6,22,5,-19,14,30,-33,41,6,42,14
-16,5,20,5,-18,13,26,-31,35,3,45,15
-16,4,18,6,-17,11,23,-29,31,1,48,17
-14,3,17,5,-16,10,20,-25,28,1,50,19
-12,3,15,4,-14,9,17,-22,24,1,52,21
-9,2,13,3,-12,7,14,-20,19,-1,52,21
-7,1,10,3,-9,5,10,-19,14,-3,51,21
-6,1,8,2,-7,5,7,-18,10,-6,51,22
-6,2,8,2,-7,5,5,-17,8,-8,51,24
-6,1,7,2,-7,4,2,-15,6,-11,51,25
-6,0,6,2,-6,3,-1,-13,4,-14,50,26
-4,0,3,1,-4,1,-5,-10,2,-17,49,26
-2,-1,0,1,-1,-1,-10,-7,1,-18,48,27
0,-3,-4,2,1,-4,-15,-5,1,-20,48,27
1,-5,-7,2,3,-6,-19,-3,0,-21,48,27
2,-6,-8,2,4,-7,-21,-2,0,-22,50,27
2,-6,-9,2,5,-7,-22,-1,1,-23,51,27
4,-6,-10,1,6,-7,-23,0,1,-24,53,26
5,-5,-10,0,7,-7,-23,0,3,-25,55,26
4,-5,-9,0,6,-7,-23,1,4,-25,57,26
2,-6,-8,2,5,-7,-23,2,5,-26,58,26
2,-7,-9,2,5,-8,-23,2,5,-28,58,25
2,-7,-9,3,6,-8,-23,2,5,-29,57,24
2,-8,-10,3,6,-8,-23,1,6,-30,57,23
1,-9,-10,4,5,-9,-23,1,6,-32,57,23
0,-9,-10,4,5,-9,-23,0,5,-34,56,22
1,-8,-10,3,5,-9,-23,-1,6,-36,55,22
2,-8,-10,3,6,-9,-23,-1,6,-38,55,21
2,-9,-11,3,6,-10,-23,-2,5,-41,54,19
2,-9,-11,3,7,-10,-22,-2,5,-43,53,18
3,-8,-11,3,7,-10,-21,-1,7,-44,53,18
3,-8,-12,2,7,-10,-21,-1,8,-45,53,18
4,-8,-13,2,8,-10,-21,-1,8,-47,53,18
3,-8,-12,2,7,-10,-21,0,8,-49,54,17
2,-8,-11,3,7,-10,-21,0,8,-52,55,17
2,-8,-11,3,6,-10,-22,0,9,-54,56,17
2,-9,-11,3,6,-11,-24,1,10,-55,58,16
2,-10,-12,3,7,-11,-24,2,11,-56,61,16
2,-10,-13,3,7,-12,-25,3,13,-56,64,16
1,-11,-13,4,7,-12,-25,4,13,-56,66,15
0,-12,-13,6,6,-12,-25,4,13,-57,68,14
0,-12,-14,6,7,-13,-25,5,13,-57,70,14
3,-10,-14,4,8,-13,-23,6,14,-56,71,15
5,-9,-15,2,9,-13,-22,6,15,-54,72,15
6,-9,-15,2,10,-13,-21,6,16,-52,71,15
5,-9,-14,2,9,-12,-21,6,17,-50,70,15
4,-10,-13,3,8,-12,-21,6,17,-50,68,14
3,-10,-13,3,8,-12,-21,6,17,-50,66,13
3,-9,-13,3,8,-11,-20,6,18,-49,65,12
4,-8,-12,2,8,-10,-19,6,19,-49,65,12
5,-7,-13,1,9,-9,-18,6,19,-50,65,11
4,-8,-13,1,8,-10,-19,5,19,-51,66,10
3,-9,-12,2,7,-10,-18,5,19,-52,68,9
3,-9,-12,2,7,-11,-18,4,19,-54,69,8
3,-10,-13,2,7,-11,-17,3,19,-55,70,7
3,-10,-13,3,7,-12,-17,2,18,-55,69,5
3,-10,-13,3,8,-12,-16,1,18,-55,69,5
3,-9,-13,2,8,-11,-15,1,19,-54,70,5
4,-8,-12,2,8,-10,-13,0,19,-54,70,5
4,-7,-12,1,8,-10,-12,-1,19,-54,70,5
4,-8,-13,1,8,-11,-12,-3,18,-54,71,4
5,-8,-14,1,9,-11,-12,-4,17,-53,72,4
4,-8,-13,1,8,-11,-12,-4,17,-52,73,5
3,-8,-11,2,6,-10,-11,-4,17,-51,74,5
1,-8,-10,3,5,-9,-11,-4,16,-50,74,5
1,-8,-9,3,4,-8,-11,-5,16,-49,74,6
2,-6,-8,2,4,-7,-11,-6,15,-48,73,7
4,-4,-9,0,6,-7,-11,-6,15,-48,72,7
7,-2,-10,-2,7,-7,-12,-7,14,-47,71,8
8,-1,-10,-4,8,-6,-13,-7,14,-47,70,8
9,0,-9,-4,8,-5,-13,-6,14,-47,69,8
8,0,-7,-4,7,-4,-13,-5,14,-46,70,9
7,1,-6,-4,6,-2,-13,-4,14,-46,71,10
7,1,-5,-4,5,-2,-13,-4,13,-46,72,9
5,0,-6,-3,5,-3,-14,-5,13,-47,72,8
4,-1,-6,-1,5,-4,-14,-5,12,-48,73,8
4,-2,-7,-1,5,-5,-15,-5,12,-48,75,7
5,-2,-8,-1,6,-5,-15,-5,12,-49,76,6
6,-2,-8,-1,7,-5,-15,-5,11,-49,78,6
6,-1,-8,-2,7,-4,-15,-5,11,-49,80,6
7,0,-8,-4,7,-3,-15,-4,11,-49,82,7
8,1,-8,-5,7,-3,-16,-5,11,-49,83,7
8,0,-8,-4,7,-3,-16,-5,11,-49,84,7
7,0,-8,-3,7,-4,-17,-6,11,-49,84,7
7,0,-7,-4,7,-3,-18,-6,10,-49,84,7
9,2,-6,-6,7,-2,-18,-5,10,-49,84,8
10,3,-7,-6,8,-2,-18,-5,10,-48,83,8
10,2,-8,-6,9,-3,-19,-6,10,-47,82,8
9,1,-8,-6,8,-3,-19,-6,10,-47,81,8
9,2,-7,-6,8,-2,-19,-6,10,-46,80,8
10,3,-7,-7,8,-2,-19,-5,10,-46,80,9
11,4,-7,-8,9,-2,-19,-5,10,-45,79,9
11,4,-7,-7,9,-2,-19,-5,10,-45,79,10
9,3,-7,-6,8,-2,-19,-4,10,-45,78,10
9,3,-7,-6,7,-1,-19,-4,10,-45,78,11
11,5,-7,-8,9,0,-18,-3,11,-44,77,11
14,7,-9,-10,11,-1,-18,-3,11,-44,76,11
14,6,-10,-10,11,-2,-18,-4,10,-44,75,11
12,5,-8,-9,10,-2,-18,-3,10,-44,74,12
11,5,-6,-9,8,0,-17,-2,11,-44,73,13
11,7,-4,-9,7,1,-16,-1,12,-43,73,14
12,8,-3,-10,7,2,-16,0,13,-42,72,15
11,8,-2,-10,7,3,-15,0,13,-41,72,15
10,8,-2,-10,6,4,-14,1,13,-41,71,14
10,8,-2,-10,6,4,-14,1,13,-41,71,14
10,9,-1,-10,6,4,-13,2,14,-40,70,14
9,11,0,-11,5,5,-11,3,16,-39,70,14
9,11,0,-11,4,6,-10,4,17,-39,69,14
9,10,0,-10,4,5,-10,5,17,-38,67,14
8,9,0,-9,4,4,-10,5,17,-38,64,13
7,9,1,-8,2,5,-10,5,17,-38,62,12
6,9,2,-8,1,6,-9,5,17,-37,61,12
6,11,3,-9,1,7,-9,6,18,-36,59,12
6,11,4,-9,0,8,-8,6,19,-36,57,11
5,10,4,-8,0,7,-8,6,18,-37,55,10
6,10,3,-8,1,6,-8,6,18,-36,53,9
7,10,3,-8,1,7,-6,6,19,-35,51,9
7,11,3,-9,1,7,-5,6,19,-34,50,8
8,11,4,-10,1,8,-5,6,19,-33,49,8
9,12,4,-11,1,8,-4,6,20,-32,48,8
9,13,4,-11,1,8,-4,6,20,-31,47,8
7,12,4,-10,1,8,-4,5,19,-32,44,7
6,11,4,-9,1,8,-3,4,18,-32,41,6
6,11,4,-8,1,7,-3,4,18,-32,38,5
6,10,4,-8,1,7,-2,3,17,-32,35,5
6,10,3,-8,1,6,-2,2,17,-32,32,4
5,10,4,-8,0,7,-1,2,16,-32,30,3
4,10,5,-7,-1,8,0,2,16,-31,29,3
4,10,6,-7,-1,8,0,2,15,-31,28,3
2,9,6,-6,-2,7,0,1,14,-32,28,2
0,8,7,-4,-3,7,0,0,13,-32,28,2
0,7,7,-3,-3,7,0,0,13,-33,27,2
2,8,6,-4,-2,7,0,0,12,-33,27,2
4,9,5,-6,-1,7,1,-1,12,-33,27,2
3,9,6,-6,-2,8,1,-2,11,-33,27,1
1,7,6,-4,-3,7,0,-3,9,-33,26,0
0,6,6,-3,-3,6,0,-4,9,-34,24,-1
0,5,5,-3,-2,5,0,-4,8,-34,23,-1
0,5,4,-3,-2,5,1,-4,8,-34,21,-1
1,6,4,-4,-1,6,1,-4,8,-33,20,-1
1,7,4,-4,-1,6,2,-4,8,-33,19,0
1,6,4,-3,-1,5,2,-4,8,-33,17,0
1,6,4,-3,-1,5,2,-5,8,-33,16,0
3,6,4,-4,0,4,2,-5,8,-33,15,0
4,6,3,-5,0,4,2,-5,8,-33,14,0
3,5,2,-4,0,3,2,-5,7,-33,13,-1
3,4,1,-4,0,3,1,-5,7,-33,13,-1
4,4,0,-4,1,3,1,-5,6,-33,13,-1
4,5,0,-4,1,3,0,-5,6,-33,13,-1
4,6,1,-5,1,4,0,-6,6,-33,13,-1
4,6,2,-4,0,4,0,-6,6,-32,13,-1
3,5,3,-3,0,3,1,-6,6,-32,12,-2
2,5,3,-3,0,3,2,-6,6,-32,11,-1
2,6,4,-4,-1,4,3,-6,7,-31,11,-1
1,5,4,-3,-1,4,3,-6,8,-30,11,-1
0,6,5,-3,-2,5,4,-6,8,-30,11,-1
1,7,5,-3,-1,6,4,-6,8,-30,12,-1
1,6,5,-3,-1,6,4,-6,8,-30,12,-1
-1,5,6,-1,-3,5,4,-6,9,-29,12,-1
-1,5,7,-1,-3,6,5,-6,9,-28,13,-1
0,6,7,-3,-3,6,5,-6,10,-27,13,-1
1,6,6,-3,-2,6,6,-5,10,-26,14,-1
1,6,5,-3,-2,5,7,-5,11,-25,15,0
1,7,6,-4,-2,6,9,-4,12,-23,16,0
1,7,6,-4,-2,7,10,-4,13,-22,18,0
1,8,7,-4,-2,7,10,-4,13,-22,19,0
0,7,7,-4,-2,7,10,-5,13,-23,19,0
0,6,6,-3,-2,6,10,-7,12,-23,19,-1
0,6,6,-3,-2,6,9,-8,12,-23,19,-2
1,7,6,-4,-2,6,10,-9,12,-22,19,-1
1,7,7,-4,-3,7,10,-9,12,-22,19,-1
0,7,7,-4,-3,7,10,-9,12,-23,19,0
0,7,7,-4,-3,7,9,-10,12,-23,19,0
0,7,7,-4,-3,7,8,-11,12,-23,19,0
1,8,6,-4,-2,7,7,-11,12,-23,19,0
2,9,6,-5,-1,7,6,-11,12,-23,19,0
3,9,7,-5,-2,8,6,-11,12,-23,20,0
2,8,7,-5,-3,7,5,-11,12,-23,20,0
1,7,7,-3,-3,6,3,-11,12,-23,20,0
1,6,5,-3,-2,5,2,-11,11,-24,19,-1
3,6,4,-4,0,5,2,-10,11,-24,19,-1
3,6,3,-5,1,4,1,-9,11,-24,19,-1
3,5,2,-4,1,4,1,-9,10,-25,19,-1
3,5,2,-4,1,3,0,-9,10,-25,19,-1
4,5,1,-4,1,3,0,-9,10,-25,18,-1
4,5,1,-4,1,3,-1,-9,9,-25,18,0
2,3,1,-2,0,2,-2,-9,9,-26,18,-1
2,2,0,-2,1,0,-3,-10,9,-26,18,-2
3,1,-1,-2,3,0,-3,-9,9,-26,18,-2
3,2,-2,-3,4,0,-2,-8,10,-25,18,-2
4,2,-2,-3,4,0,-2,-7,10,-23,19,-2
3,2,-2,-2,4,0,-2,-7,11,-22,19,-2
3,1,-1,-2,2,0,-2,-6,11,-21,19,-2
3,1,-2,-2,2,-1,-2,-6,11,-20,18,-2
5,0,-4,-2,4,-2,-2,-6,10,-20,18,-2
6,1,-5,-3,5,-2,-2,-6,10,-19,17,-2
7,2,-5,-4,6,-2,-2,-5,10,-19,17,-1
6,1,-5,-3,6,-2,-2,-6,9,-19,16,-2
4,-1,-5,-1,5,-3,-3,-6,8,-20,15,-3
2,-3,-5,0,4,-4,-3,-6,8,-20,14,-3
3,-2,-5,-1,5,-3,-3,-5,8,-19,14,-2
5,-1,-5,-2,5,-3,-2,-5,9,-18,15,-1
5,-1,-5,-1,5,-3,-2,-4,9,-18,16,-1
4,-2,-5,-1,4,-4,-1,-4,10,-17,16,-1
5,-1,-6,-2,5,-4,-1,-3,10,-17,17,-1
7,0,-8,-4,8,-4,-1,-3,10,-17,17,-1
8,0,-8,-4,9,-4,-1,-3,10,-17,17,-1
7,-2,-9,-3,8,-5,-2,-3,9,-18,16,-2
5,-4,-9,-1,8,-6,-2,-3,9,-19,16,-3
5,-4,-9,0,7,-6,-1,-2,9,-18,16,-2
5,-4,-9,0,7,-6,0,-1,10,-17,17,-2
5,-4,-10,0,7,-7,0,-1,10,-17,17,-1
5,-5,-10,0,7,-7,0,-1,10,-16,17,-1
4,-5,-10,0,7,-8,0,-1,9,-17,16,-1
4,-7,-11,1,7,-9,-1,-1,9,-17,16,-2
3,-7,-11,2,7,-10,-1,-1,8,-17,16,-2
4,-6,-10,1,7,-8,0,0,9,-16,16,-1
4,-5,-10,0,7,-7,1,0,9,-16,17,0
4,-5,-11,1,7,-8,1,0,9,-16,16,0
5,-5,-12,0,8,-8,1,0,9,-15,16,-1
6,-5,-12,0,9,-8,1,0,10,-15,16,-1
6,-5,-11,0,8,-8,1,0,10,-15,16,-1
5,-6,-11,1,8,-9,1,0,10,-15,16,-1
5,-7,-12,1,9,-10,1,0,9,-15,16,-1
6,-8,-13,1,9,-11,1,0,9,-15,15,-1
6,-8,-13,1,9,-11,1,-1,8,-15,15,-1
6,-8,-14,1,10,-11,0,-2,7,-15,14,-1
7,-8,-15,0,11,-11,1,-3,7,-14,13,-1
7,-7,-14,0,10,-11,1,-3,7,-13,13,-1
6,-8,-13,1,9,-11,1,-3,7,-13,13,-1
6,-8,-13,1,9,-11,1,-4,6,-13,12,-2
5,-8,-12,1,9,-10,2,-4,6,-13,12,-2
3,-8,-11,2,7,-10,2,-4,6,-13,12,-2
3,-8,-11,2,7,-9,3,-3,6,-13,12,-2
4,-6,-11,1,8,-8,4,-3,6,-12,12,-2
3,-5,-10,1,7,-7,5,-2,7,-12,12,-2
2,-5,-8,1,6,-7,5,-2,7,-12,12,-2
1,-6,-8,2,5,-7,5,-2,7,-12,12,-2
0,-6,-7,3,4,-7,4,-3,7,-13,11,-3
1,-6,-7,2,5,-6,4,-3,6,-13,11,-3
2,-5,-7,1,5,-6,4,-3,6,-12,11,-2
2,-5,-6,1,5,-6,4,-3,7,-12,10,-2
2,-6,-7,1,5,-7,4,-3,7,-12,9,-2
2,-6,-8,2,5,-7,4,-4,6,-12,8,-3
3,-5,-8,1,5,-7,4,-3,6,-11,8,-2
4,-4,-8,0,6,-6,4,-3,6,-11,7,-2
3,-4,-7,0,5,-6,4,-3,6,-12,7,-2
1,-4,-6,1,3,-5,4,-3,6,-12,7,-2
1,-4,-5,1,2,-4,4,-2,7,-11,7,-1
1,-3,-3,1,2,-3,5,-2,7,-10,8,-1
1,-2,-3,1,2,-2,5,-2,7,-10,8,-1
2,-2,-4,0,3,-3,5,-2,7,-11,8,-1
3,-2,-5,0,3,-3,5,-3,6,-11,8,-1
3,-1,-5,0,3,-3,4,-3,6,-11,8,-1
3,-1,-4,0,2,-2,4,-3,7,-10,9,0
2,-1,-3,0,2,-1,4,-4,7,-10,10,0
3,-1,-3,-1,2,-2,4,-4,7,-10,10,0
3,-1,-4,-1,3,-2,4,-5,6,-10,11,0
2,0,-3,0,2,-2,5,-5,6,-10,11,0
2,1,-2,-1,2,-1,5,-4,6,-9,12,0
3,1,-1,-1,2,0,6,-4,6,-8,12,1
3,1,-1,-1,2,0,6,-4,6,-8,12,0
3,0,-2,-1,2,-1,6,-4,6,-8,12,0
4,0,-3,-2,3,-1,6,-3,6,-8,12,0
6,0,-4,-3,4,-2,6,-3,6,-8,12,0
6,0,-6,-3,5,-3,5,-5,4,-9,12,1
6,-2,-7,-2,6,-4,4,-8,0,-11,11,0
5,-3,-9,0,7,-6,4,-12,-2,-13,10,0
6,-3,-9,0,7,-6,4,-14,-5,-14,10,0
6,-3,-9,-1,8,-6,4,-17,-7,-15,11,1
6,-4,-10,0,8,-7,3,-20,-11,-17,11,1
6,-5,-11,0,8,-8,2,-24,-15,-21,11,3
11,-3,-14,-4,12,-8,0,-27,-20,-23,13,8
19,0,-19,-9,19,-9,-3,-27,-24,-24,20,17
28,2,-25,-15,27,-11,-8,-27,-26,-24,29,28
37,5,-31,-21,34,-12,-14,-26,-29,-23,39,41
46,10,-35,-28,40,-12,-20,-27,-33,-23,49,54
54,15,-39,-35,46,-11,-27,-29,-38,-23,58,68
62,21,-41,-42,51,-10,-33,-29,-41,-23,67,81
67,27,-40,-47,53,-7,-38,-29,-44,-24,74,93
67,33,-34,-50,50,0,-40,-26,-44,-24,79,102
63,42,-20,-52,41,11,-39,-19,-38,-21,81,104
52,52,0,-52,26,26,-33,-9,-27,-15,79,100
37,61,25,-49,6,43,-25,0,-14,-9,72,90
20,69,50,-44,-15,60,-17,9,0,0,64,77
2,78,76,-40,-37,77,-8,19,18,11,55,63
-11,85,96,-37,-54,90,0,31,38,25,48,50
-20,85,104,-32,-63,94,9,43,60,41,42,35
-26,77,103,-25,-64,89,17,57,82,57,33,17
-29,69,99,-19,-64,84,25,71,104,72,25,0
-32,63,96,-15,-64,80,32,83,123,85,20,-12
-34,59,94,-12,-64,77,37,93,139,94,16,-20
-36,54,91,-9,-63,73,41,102,152,102,12,-27
-37,49,87,-6,-62,68,44,111,165,109,8,-32
-39,43,82,-3,-61,63,48,120,178,115,4,-38
-40,37,78,1,-59,57,52,126,187,117,0,-43
-42,31,74,5,-58,51,55,130,193,115,-6,-48
-42,27,70,8,-56,47,58,132,197,112,-10,-52
-40,24,64,9,-52,44,60,134,202,112,-10,-52
-38,20,59,10,-48,40,63,136,206,112,-8,-51
-36,16,53,10,-44,35,65,135,208,112,-6,-50
-35,13,47,11,-41,30,65,129,205,109,-3,-48
-35,10,44,11,-39,26,65,121,198,104,-1,-45
-34,8,41,12,-38,24,65,112,189,99,1,-41
-34,6,40,13,-38,22,65,98,179,94,3,-38
-34,4,39,15,-37,21,64,78,167,88,4,-36
-31,5,38,14,-35,21,62,54,155,81,5,-33
-29,7,37,12,-33,21,61,30,142,73,5,-31
-28,7,36,11,-31,21,60,7,129,64,3,-30
-27,6,34,11,-30,20,58,-11,117,56,0,-30
-26,5,32,10,-29,19,56,-24,106,48,-3,-30
-25,4,30,10,-28,17,54,-33,96,41,-7,-29
-24,3,28,10,-27,15,52,-40,88,36,-9,-29
-21,4,26,9,-24,15,51,-45,80,33,-11,-29
-19,4,23,8,-21,14,49,-48,72,29,-11,-28
-19,2,21,9,-20,12,47,-52,63,23,-12,-28
-18,0,19,10,-19,10,45,-54,54,18,-12,-28
-17,-1,16,9,-17,8,43,-54,46,13,-12,-28
-15,-1,13,8,-14,6,41,-54,38,10,-11,-27
-13,-2,11,7,-13,4,39,-53,31,8,-10,-25
-12,-2,10,7,-12,4,37,-51,25,8,-8,-23
-11,-1,10,6,-11,4,34,-49,22,8,-5,-21
-9,0,9,5,-10,4,31,-47,17,7,-4,-20
-7,0,7,4,-7,3,27,-46,11,5,-4,-19
-5,-1,4,4,-5,1,22,-45,6,3,-4,-19
-3,0,3,2,-3,1,19,-44,3,2,-5,-18
-2,0,2,1,-2,1,18,-42,0,1,-5,-16
-4,0,3,2,-3,1,16,-39,-2,0,-6,-15
-4,-1,1,2,-3,0,15,-36,-5,-2,-8,-15
-3,-3,0,2,-1,-2,13,-33,-7,-3,-10,-14
-3,-3,-1,3,-1,-2,11,-29,-9,-4,-11,-14
-2,-4,-2,3,0,-3,9,-26,-10,-5,-11,-13
-1,-5,-4,4,1,-5,6,-24,-11,-6,-11,-13
-1,-6,-5,4,2,-6,4,-23,-12,-7,-11,-12
-1,-7,-6,4,2,-7,3,-22,-12,-7,-11,-12
-1,-8,-7,5,3,-8,2,-22,-13,-8,-11,-12
0,-9,-8,5,3,-9,2,-21,-13,-8,-10,-12
-1,-10,-9,6,3,-10,2,-21,-13,-8,-9,-12
-1,-10,-9,6,3,-10,2,-21,-13,-8,-8,-12
0,-9,-9,5,4,-9,2,-21,-14,-8,-7,-12
0,-8,-9,4,5,-9,2,-21,-14,-8,-6,-12
0,-8,-9,4,5,-9,2,-21,-14,-8,-5,-11
0,-9,-9,4,5,-9,2,-21,-14,-9,-6,-11
1,-9,-10,4,5,-10,2,-21,-14,-9,-7,-11
1,-10,-11,4,6,-10,1,-20,-14,-9,-8,-11
1,-9,-11,4,6,-10,1,-20,-14,-9,-8,-10
1,-9,-11,4,6,-10,1,-19,-13,-9,-8,-10
2,-9,-11,4,6,-10,2,-19,-13,-9,-7,-10
2,-9,-11,4,6,-10,2,-18,-12,-9,-6,-10
1,-10,-11,4,6,-10,2,-18,-13,-8,-5,-10
1,-10,-11,5,6,-11,2,-17,-13,-8,-5,-10
0,-10,-10,6,5,-10,2,-16,-12,-8,-4,-10
0,-10,-10,5,5,-9,3,-15,-11,-6,-4,-10
1,-8,-10,4,5,-9,4,-15,-10,-4,-4,-9
3,-7,-11,2,7,-9,4,-14,-10,-3,-5,-10
4,-8,-12,2,8,-10,4,-14,-10,-3,-7,-10
3,-10,-13,3,8,-12,3,-14,-10,-2,-9,-11
1,-11,-13,5,7,-12,2,-14,-11,-2,-10,-11
-1,-12,-11,7,5,-12,2,-14,-11,-2,-11,-11
-1,-12,-11,7,4,-12,2,-14,-11,-1,-12,-11
0,-12,-12,6,5,-12,2,-14,-11,-1,-11,-11
1,-11,-12,5,6,-12,2,-13,-10,1,-10,-10
3,-10,-13,3,8,-11,2,-13,-9,3,-9,-10
4,-9,-13,3,8,-11,1,-12,-9,4,-9,-10
4,-10,-14,4,8,-12,1,-12,-9,4,-8,-10
3,-11,-14,5,8,-13,0,-12,-10,3,-8,-10
3,-11,-14,5,8,-13,0,-12,-10,3,-8,-10
2,-10,-13,4,7,-12,0,-11,-10,4,-6,-9
2,-10,-12,4,7,-11,0,-11,-9,4,-5,-9
2,-10,-12,4,7,-11,1,-10,-9,4,-5,-9
1,-11,-13,5,7,-12,1,-10,-10,3,-5,-10
1,-12,-14,6,7,-13,1,-10,-11,2,-5,-10
1,-12,-13,6,7,-13,2,-10,-10,2,-5,-10
0,-12,-11,7,5,-12,3,-9,-8,3,-4,-9
-1,-12,-11,7,5,-11,3,-8,-7,4,-3,-8
-1,-12,-11,7,5,-12,3,-8,-7,4,-3,-8
-1,-12,-12,7,6,-12,3,-8,-6,4,-3,-8
0,-12,-12,7,6,-11,4,-7,-6,4,-2,-8
0,-11,-12,6,6,-11,4,-6,-5,4,-1,-8
0,-11,-12,6,5,-12,4,-5,-5,4,-1,-8
0,-11,-12,6,6,-12,4,-5,-4,6,-1,-8
2,-10,-12,4,7,-11,4,-4,-3,7,-1,-7
4,-8,-12,2,8,-10,4,-4,-3,8,0,-6
5,-8,-12,1,8,-10,4,-4,-3,8,0,-6
4,-9,-13,2,8,-10,3,-4,-3,7,0,-6
3,-10,-13,3,8,-11,2,-5,-4,7,1,-6
2,-10,-13,4,7,-11,1,-5,-4,7,1,-6
1,-11,-13,4,7,-12,0,-6,-5,7,2,-7
1,-12,-13,5,7,-12,0,-6,-7,6,2,-7
0,-13,-14,6,7,-13,-1,-6,-8,5,2,-7
1,-13,-15,6,8,-14,-2,-6,-9,4,3,-7
3,-13,-16,5,10,-15,-2,-6,-9,4,3,-7
4,-13,-16,5,10,-15,-3,-6,-10,4,4,-6
3,-13,-16,5,9,-15,-3,-6,-10,4,4,-6
2,-14,-17,6,9,-15,-4,-6,-10,3,5,-6
3,-14,-17,6,10,-16,-5,-6,-11,3,5,-6
4,-13,-18,5,10,-16,-5,-6,-11,3,5,-6
5,-12,-18,4,11,-16,-6,-6,-12,2,5,-7
6,-12,-18,4,12,-15,-6,-5,-12,2,6,-7
5,-12,-17,4,11,-15,-6,-5,-13,1,6,-7
3,-14,-18,5,11,-16,-6,-5,-13,0,6,-7
2,-16,-18,7,10,-16,-7,-6,-13,0,7,-7
1,-17,-19,8,10,-17,-8,-6,-14,-1,7,-7
2,-16,-20,7,11,-17,-9,-7,-15,-2,7,-7
4,-15,-20,6,11,-17,-9,-7,-15,-3,8,-7
4,-13,-18,5,11,-16,-9,-6,-15,-2,8,-7
5,-13,-18,4,11,-16,-10,-6,-16,-2,9,-7
7,-13,-19,4,13,-17,-11,-7,-18,-3,9,-7
7,-12,-19,3,13,-16,-11,-7,-18,-3,9,-6
7,-11,-18,3,12,-15,-11,-7,-18,-3,10,-5
6,-11,-18,3,12,-14,-11,-7,-18,-4,10,-5
7,-11,-18,2,12,-14,-11,-7,-19,-4,9,-4
8,-11,-19,1,13,-15,-12,-7,-20,-5,9,-4
10,-10,-20,0,14,-15,-13,-7,-21,-5,9,-3
10,-10,-20,0,15,-15,-14,-7,-22,-5,9,-2
10,-10,-20,0,15,-15,-15,-7,-23,-6,9,-2
11,-9,-20,0,15,-14,-15,-8,-23,-6,9,0
12,-9,-20,-1,16,-14,-16,-8,-23,-6,8,0
12,-9,-21,-1,16,-15,-16,-9,-24,-7,8,0
12,-8,-21,-1,16,-15,-16,-9,-25,-7,8,1
11,-7,-19,-2,15,-13,-16,-9,-24,-6,9,3
9,-6,-16,-1,12,-11,-15,-8,-23,-6,10,3
8,-5,-14,0,10,-9,-14,-8,-23,-7,10,4
9,-3,-13,-2,11,-8,-14,-7,-23,-7,10,4
9,-3,-12,-2,10,-7,-13,-6,-22,-7,11,4
9,-3,-12,-2,10,-7,-13,-5,-21,-6,11,4
11,-2,-13,-3,11,-7,-13,-5,-21,-6,11,4
12,-1,-13,-5,12,-7,-13,-4,-20,-6,11,4
10,-1,-12,-4,11,-6,-13,-4,-20,-6,10,4
8,-1,-10,-3,9,-6,-13,-4,-19,-6,10,4
6,-1,-9,-2,8,-5,-13,-3,-19,-6,9,4
6,-2,-9,-1,8,-5,-13,-3,-18,-5,8,3
6,-2,-9,-1,8,-5,-13,-2,-17,-5,7,3
6,-1,-8,-2,7,-5,-12,-1,-15,-5,7,3
7,0,-8,-3,8,-4,-11,0,-14,-4,7,2
8,0,-9,-3,8,-4,-10,0,-13,-4,7,2
7,0,-8,-3,7,-4,-9,1,-12,-4,7,2
6,0,-7,-2,6,-4,-9,1,-12,-4,7,1
4,-1,-6,0,4,-4,-9,1,-13,-5,7,1
3,-2,-6,0,4,-5,-8,1,-12,-6,7,0
4,-1,-6,-1,5,-4,-7,1,-10,-4,7,0
7,0,-7,-3,7,-4,-6,1,-8,-2,7,0
7,0,-8,-3,8,-4,-6,1,-8,-3,7,0
6,-2,-7,-1,6,-4,-6,0,-8,-3,6,-1
3,-2,-5,0,4,-3,-5,1,-8,-3,6,-1
2,-1,-3,0,2,-2,-4,1,-7,-2,6,-1
1,-1,-3,0,2,-2,-3,0,-6,-1,5,-1
2,-1,-5,0,3,-3,-3,0,-6,-1,4,-2
3,-2,-5,0,3,-3,-3,0,-6,-1,3,-2
1,-3,-5,2,3,-4,-3,0,-6,-1,1,-2
0,-5,-5,3,2,-4,-3,-1,-7,-2,-1,-3
0,-4,-4,3,1,-3,-2,-1,-7,-2,-3,-3
0,-4,-3,2,1,-3,-1,-2,-7,-2,-4,-3
0,-4,-4,2,1,-3,-1,-2,-7,-2,-6,-3
0,-5,-4,2,1,-4,-1,-3,-7,-2,-7,-3
-1,-6,-4,4,0,-5,-1,-4,-7,-3,-7,-3
-2,-6,-4,4,0,-5,-1,-4,-7,-3,-8,-3
-1,-5,-3,4,0,-4,0,-4,-7,-3,-7,-3
-1,-4,-3,3,0,-3,0,-4,-7,-3,-7,-3
0,-4,-4,3,1,-3,1,-5,-7,-3,-6,-3
0,-4,-5,2,2,-4,1,-6,-7,-4,-6,-4
1,-4,-5,2,2,-5,1,-6,-8,-5,-7,-5
1,-4,-5,1,2,-5,2,-6,-8,-5,-7,-5
0,-3,-3,1,1,-3,2,-6,-8,-5,-7,-5
0,-2,-2,2,0,-2,3,-6,-8,-5,-7,-5
0,-2,-2,2,0,-2,3,-6,-8,-6,-7,-5
0,-2,-2,2,0,-2,3,-7,-8,-7,-8,-5
-1,-3,-2,2,0,-2,3,-7,-8,-8,-9,-6
-2,-3,0,3,-1,-1,4,-7,-8,-8,-9,-5
-3,-3,0,3,-2,0,5,-8,-8,-8,-9,-5
-2,-3,0,3,-2,-1,5,-8,-8,-9,-9,-6
-1,-2,-1,2,0,-1,4,-9,-9,-10,-10,-7
0,-2,-1,1,0,-1,5,-9,-9,-10,-11,-7
-2,-2,0,3,-2,0,5,-9,-8,-10,-11,-7
-4,-3,1,4,-3,0,5,-10,-9,-11,-11,-8
-4,-3,0,4,-2,-1,4,-11,-10,-12,-12,-8
-4,-3,0,3,-2,-1,4,-12,-10,-13,-12,-8
-3,-2,0,2,-2,0,3,-13,-11,-13,-12,-8
-2,-1,0,1,-2,0,2,-13,-11,-13,-12,-8
-1,-2,-1,1,0,-1,1,-13,-12,-14,-12,-9
0,-2,-3,1,1,-2,0,-14,-13,-16,-12,-9
0,-3,-3,2,1,-3,-2,-14,-13,-17,-12,-9
-2,-4,-2,3,0,-3,-3,-13,-14,-17,-11,-9
-3,-5,-2,4,-1,-3,-4,-13,-14,-18,-11,-9
-4,-5,-1,5,-2,-3,-5,-13,-14,-18,-12,-9
-3,-5,-2,4,-1,-3,-5,-13,-15,-19,-12,-9
-1,-4,-3,3,0,-3,-6,-13,-15,-20,-12,-9
0,-4,-4,3,1,-4,-7,-13,-16,-21,-13,-9
0,-4,-5,2,2,-4,-8,-13,-16,-21,-13,-9
0,-4,-5,2,2,-4,-8,-12,-16,-21,-12,-9
-1,-5,-5,3,1,-5,-9,-12,-16,-21,-13,-10
0,-6,-5,3,2,-5,-9,-12,-16,-21,-13,-10
0,-5,-6,2,2,-5,-9,-12,-16,-21,-13,-10
0,-6,-6,3,3,-6,-10,-12,-16,-22,-13,-11
0,-7,-6,4,2,-7,-10,-13,-17,-22,-13,-11
-1,-7,-6,4,2,-7,-10,-13,-17,-22,-13,-11
0,-6,-7,3,3,-7,-10,-12,-17,-22,-13,-11
0,-6,-7,3,3,-6,-10,-12,-17,-23,-13,-11
0,-5,-6,3,2,-6,-10,-12,-17,-23,-13,-12
0,-5,-6,3,2,-5,-10,-12,-17,-23,-13,-12
0,-5,-6,3,3,-5,-10,-12,-17,-23,-12,-11
1,-4,-6,2,3,-5,-10,-12,-17,-23,-11,-11
1,-5,-6,2,4,-5,-10,-12,-17,-24,-11,-11
1,-6,-7,2,4,-6,-11,-12,-18,-25,-11,-11
1,-6,-8,2,4,-6,-11,-12,-18,-26,-11,-11
1,-5,-8,2,4,-6,-11,-11,-18,-27,-10,-11
1,-5,-8,2,4,-6,-11,-11,-19,-28,-10,-11
1,-5,-8,2,5,-6,-11,-11,-19,-28,-10,-12
2,-5,-8,2,5,-7,-11,-11,-19,-28,-9,-12
2,-6,-8,2,5,-7,-11,-10,-19,-28,-9,-12
2,-7,-9,2,5,-8,-11,-10,-20,-29,-8,-12
2,-7,-9,2,5,-8,-12,-10,-20,-30,-8,-12
2,-7,-10,2,5,-8,-11,-9,-20,-30,-7,-12
2,-6,-9,1,5,-8,-10,-9,-19,-30,-6,-12
2,-6,-9,1,5,-7,-10,-8,-19,-30,-5,-12
4,-5,-11,0,7,-7,-9,-8,-19,-30,-5,-11
8,-3,-12,-2,9,-7,-9,-7,-19,-29,-4,-10
9,-1,-11,-3,10,-6,-9,-7,-19,-28,-3,-10
7,-2,-10,-2,8,-6,-9,-8,-19,-28,-4,-10
4,-4,-10,0,7,-7,-9,-8,-19,-28,-4,-10
3,-5,-10,1,6,-8,-8,-7,-19,-27,-3,-10
3,-5,-10,1,6,-8,-8,-6,-18,-26,-3,-9
3,-5,-10,0,6,-8,-8,-6,-18,-26,-3,-9
4,-5,-10,0,6,-7,-8,-6,-18,-26,-3,-10
4,-5,-10,0,7,-7,-7,-6,-18,-26,-3,-10
5,-4,-10,0,7,-7,-7,-6,-17,-25,-3,-9
4,-4,-8,0,6,-6,-6,-6,-17,-24,-3,-9
2,-4,-7,0,5,-5,-6,-7,-17,-24,-3,-9
2,-4,-7,0,5,-5,-6,-7,-17,-24,-3,-9
4,-4,-8,-1,6,-5,-6,-6,-16,-24,-3,-9
4,-4,-9,-1,6,-5,-5,-6,-16,-24,-3,-9
3,-5,-8,0,5,-6,-5,-7,-16,-24,-3,-9
2,-6,-9,1,5,-7,-5,-7,-16,-24,-3,-9
4,-6,-10,0,6,-8,-6,-8,-17,-25,-4,-10
5,-5,-10,0,7,-7,-5,-8,-16,-25,-3,-11
5,-3,-8,-1,6,-6,-4,-7,-15,-24,-2,-10
5,-2,-7,-1,5,-5,-4,-6,-15,-24,-1,-10
2,-3,-6,0,4,-5,-4,-6,-16,-25,0,-10
0,-5,-5,1,2,-5,-5,-6,-16,-25,0,-10
1,-5,-6,1,3,-5,-5,-6,-16,-26,0,-9
2,-5,-7,1,4,-5,-5,-7,-16,-26,1,-9
3,-5,-8,0,5,-6,-5,-7,-16,-26,1,-9
3,-5,-8,0,6,-6,-5,-7,-15,-26,1,-9
3,-5,-8,1,5,-7,-5,-7,-16,-26,2,-10
3,-5,-9,1,6,-7,-5,-7,-16,-27,3,-10
5,-5,-10,0,7,-8,-5,-7,-16,-27,5,-9
6,-6,-13,0,9,-9,-5,-8,-17,-27,6,-9
7,-7,-15,0,10,-10,-6,-10,-20,-29,7,-9
7,-8,-16,0,11,-12,-8,-14,-23,-31,8,-9
7,-10,-17,1,11,-13,-9,-17,-26,-33,8,-9
6,-12,-18,3,12,-15,-10,-21,-30,-36,8,-9
8,-13,-20,2,14,-17,-11,-24,-33,-39,8,-9
11,-12,-22,0,17,-18,-12,-27,-38,-41,9,-8
14,-11,-24,-2,19,-18,-14,-30,-42,-43,13,-4
17,-10,-26,-4,21,-19,-18,-31,-44,-43,20,3
23,-8,-31,-8,27,-20,-23,-30,-46,-42,29,15
33,-4,-38,-14,35,-21,-28,-30,-49,-41,40,28
42,-1,-43,-20,42,-21,-34,-30,-53,-41,49,42
50,3,-47,-26,48,-21,-39,-31,-57,-42,58,56
60,10,-49,-35,54,-19,-44,-31,-61,-42,68,70
69,19,-49,-44,59,-14,-48,-30,-63,-42,76,83
71,28,-43,-50,57,-7,-50,-27,-63,-42,83,92
66,36,-30,-51,48,2,-48,-20,-57,-40,85,96
53,43,-10,-49,32,16,-42,-11,-46,-34,82,91
36,51,14,-44,11,33,-33,0,-32,-27,77,82
18,60,41,-40,-12,52,-22,11,-15,-18,69,70
1,70,68,-36,-34,70,-11,23,5,-5,60,56
-11,78,89,-34,-50,84,-1,36,28,11,54,43
-19,79,98,-30,-59,88,9,50,52,29,48,28
-25,72,97,-24,-61,83,19,66,77,46,40,10
-31,63,94,-16,-63,77,27,80,100,62,33,-6
-38,56,93,-9,-66,74,34,92,120,75,28,-19
-43,50,92,-4,-68,71,40,101,136,84,24,-28
-44,46,89,-1,-67,68,44,110,151,93,22,-34
-45,41,85,1,-65,64,49,121,166,101,20,-39
-44,36,81,3,-63,59,54,129,178,106,16,-44
-44,32,77,5,-60,54,58,134,187,107,12,-48
-44,29,72,6,-58,50,61,138,193,106,8,-52
-43,25,68,8,-56,45,63,139,197,105,6,-55
-43,20,63,11,-54,41,65,141,201,105,6,-55
-42,16,57,12,-50,37,67,143,206,107,8,-54
-40,13,52,13,-47,33,68,143,208,107,12,-52
-39,10,48,14,-44,30,69,138,205,105,15,-49
-38,7,44,14,-41,26,68,129,198,101,17,-46
-34,5,39,13,-37,22,66,118,189,95,18,-43
-31,4,36,12,-34,20,65,101,178,90,18,-41
-30,4,35,12,-33,18,62,77,165,84,19,-39
-30,3,33,13,-32,17,60,50,151,77,18,-37
-29,2,31,13,-30,16,57,22,135,67,15,-37
-27,2,29,12,-28,16,55,-3,121,56,11,-37
-26,2,27,11,-27,15,53,-22,109,46,9,-36
-26,1,26,11,-27,15,52,-35,98,39,8,-34
-24,1,25,11,-25,13,50,-43,89,33,8,-33
-22,1,22,10,-23,12,48,-49,81,28,8,-33
-20,1,21,9,-21,10,46,-54,73,23,8,-34
-19,1,20,8,-19,9,44,-57,65,20,9,-34
-18,0,18,8,-18,9,43,-58,57,16,11,-33
-18,0,17,9,-17,8,42,-59,49,12,11,-32
-18,-1,16,9,-17,7,40,-59,40,8,12,-31
-17,-1,15,8,-16,7,38,-58,32,5,12,-29
-15,-1,14,7,-14,6,36,-57,26,4,13,-27
-14,-2,12,7,-13,5,33,-54,21,3,13,-25
-13,-2,10,7,-12,4,30,-52,16,3,12,-24
-10,-2,8,6,-9,2,27,-50,9,2,11,-23
-9,-3,5,6,-7,1,23,-49,3,0,10,-22
-7,-3,3,6,-6,0,21,-48,-1,-1,9,-21
-6,-3,1,5,-4,0,18,-46,-5,-2,8,-20
-4,-4,-1,4,-2,-2,15,-45,-10,-4,6,-19
-2,-4,-3,3,0,-3,13,-42,-14,-6,5,-18
0,-4,-5,1,2,-5,10,-38,-17,-7,4,-17
1,-6,-9,2,5,-8,7,-35,-20,-8,4,-16
2,-9,-11,3,6,-10,3,-32,-22,-8,3,-15
3,-10,-13,3,7,-11,0,-30,-23,-8,3,-14
4,-10,-14,3,8,-11,-2,-28,-23,-8,4,-13
5,-10,-15,2,9,-12,-3,-26,-23,-8,4,-12
5,-10,-15,2,9,-12,-4,-24,-23,-7,4,-11
5,-10,-15,2,9,-12,-3,-23,-22,-7,4,-10
4,-10,-14,2,9,-12,-3,-22,-22,-6,3,-10
3,-12,-14,4,8,-13,-2,-21,-22,-6,2,-10
2,-13,-15,5,8,-14,-2,-22,-23,-6,0,-11
2,-14,-15,6,8,-14,-1,-22,-23,-6,-1,-11
2,-14,-16,6,9,-15,0,-22,-24,-6,-4,-12
2,-15,-17,6,9,-15,2,-22,-25,-6,-6,-13
2,-15,-17,6,9,-15,3,-22,-25,-6,-7,-13
2,-15,-17,6,9,-15,4,-22,-26,-6,-9,-13
2,-14,-17,5,9,-15,4,-23,-26,-5,-11,-13
3,-14,-17,5,10,-15,5,-23,-26,-5,-12,-13
2,-14,-17,6,9,-15,7,-23,-26,-4,-14,-13
1,-15,-17,7,9,-16,8,-23,-26,-4,-17,-13
1,-16,-17,7,9,-16,8,-23,-27,-4,-20,-13
1,-16,-18,8,9,-17,9,-23,-28,-4,-23,-13
1,-17,-18,8,9,-17,10,-24,-28,-5,-25,-13
1,-17,-18,8,9,-17,11,-23,-29,-6,-27,-13
3,-16,-19,6,10,-17,11,-22,-29,-6,-28,-13
4,-15,-19,5,11,-17,11,-22,-29,-6,-29,-13
3,-15,-19,5,10,-17,11,-21,-29,-6,-29,-13
2,-15,-18,6,9,-17,12,-20,-29,-6,-30,-13
1,-16,-17,7,9,-17,13,-19,-29,-6,-30,-13
0,-17,-17,7,9,-17,13,-19,-29,-5,-31,-13
1,-16,-17,6,9,-16,14,-18,-29,-4,-31,-13
1,-16,-17,6,9,-16,14,-18,-29,-4,-32,-13
0,-17,-17,7,9,-17,15,-17,-29,-3,-34,-14
0,-17,-17,8,8,-17,17,-17,-29,-2,-36,-15
0,-17,-17,7,8,-17,18,-16,-29,-1,-39,-15
1,-16,-18,7,9,-17,20,-16,-30,0,-43,-15
2,-16,-18,7,10,-17,21,-16,-30,1,-46,-15
1,-17,-18,7,9,-17,21,-15,-30,2,-48,-15
1,-17,-17,7,9,-16,22,-15,-30,4,-49,-15
2,-15,-17,6,9,-16,23,-14,-30,6,-50,-14
2,-15,-16,6,9,-15,23,-13,-29,7,-50,-14
0,-16,-16,7,8,-16,23,-13,-30,8,-52,-13
-1,-17,-16,9,7,-17,23,-13,-30,8,-53,-13
-2,-19,-17,10,7,-18,23,-13,-31,9,-55,-13
-2,-19,-17,10,7,-18,23,-13,-32,9,-57,-14
-3,-19,-16,10,6,-17,23,-13,-32,9,-60,-14
-4,-20,-15,12,5,-18,23,-13,-33,9,-62,-15
-4,-20,-16,12,6,-18,24,-12,-32,10,-64,-15
-1,-19,-17,10,8,-18,25,-11,-31,11,-66,-15
1,-18,-19,8,10,-18,26,-11,-32,11,-69,-16
0,-18,-19,9,9,-18,26,-11,-32,11,-72,-17
-2,-18,-16,10,7,-17,27,-10,-32,12,-76,-16
-1,-16,-15,9,7,-16,27,-9,-32,13,-79,-15
1,-14,-16,6,9,-16,28,-9,-32,14,-83,-15
3,-14,-17,5,10,-15,29,-9,-32,14,-86,-15
1,-15,-16,6,9,-15,30,-9,-32,15,-89,-15
0,-15,-16,7,8,-15,31,-9,-32,15,-92,-16
0,-15,-16,8,8,-15,32,-9,-32,16,-95,-16
0,-15,-16,8,7,-15,32,-10,-33,16,-99,-17
0,-15,-16,7,7,-15,33,-10,-34,16,-101,-17
1,-14,-16,6,8,-15,33,-10,-34,16,-103,-17
1,-14,-16,6,8,-15,32,-11,-35,15,-106,-18
0,-16,-16,7,8,-16,30,-12,-37,14,-109,-19
1,-16,-16,7,8,-16,29,-14,-38,13,-111,-19
2,-14,-16,6,9,-15,28,-14,-39,14,-112,-19
3,-13,-16,5,9,-14,27,-14,-39,14,-113,-18
4,-13,-17,5,10,-14,26,-14,-39,14,-116,-19
3,-15,-19,6,11,-16,25,-14,-40,13,-119,-19
2,-16,-19,7,10,-18,25,-14,-41,12,-121,-20
2,-16,-19,7,10,-18,24,-13,-41,13,-122,-19
3,-16,-19,6,11,-18,23,-13,-41,13,-123,-19
3,-15,-19,6,11,-17,21,-13,-42,13,-125,-19
3,-15,-19,6,11,-17,19,-13,-42,14,-126,-19
4,-15,-19,5,11,-16,17,-12,-43,14,-126,-19
5,-14,-19,5,12,-16,16,-12,-43,14,-127,-18
6,-14,-20,4,13,-17,15,-12,-44,14,-129,-18
6,-15,-21,4,13,-17,15,-12,-44,13,-130,-18
5,-14,-20,4,12,-16,15,-11,-44,13,-130,-17
5,-13,-19,4,12,-16,14,-11,-44,13,-131,-16
4,-13,-18,4,12,-16,13,-11,-45,13,-130,-15
4,-14,-18,4,11,-16,12,-11,-46,13,-130,-15
5,-14,-18,3,12,-16,10,-11,-46,13,-129,-14
6,-13,-19,2,12,-15,9,-12,-47,13,-127,-14
8,-11,-19,1,13,-15,9,-12,-47,13,-125,-13
9,-11,-19,0,13,-15,8,-12,-47,13,-123,-12
9,-10,-19,0,14,-14,6,-12,-47,13,-121,-11
10,-9,-19,0,14,-14,5,-12,-47,13,-120,-10
10,-9,-19,-1,14,-13,4,-12,-48,13,-119,-10
10,-9,-19,0,14,-13,4,-13,-48,13,-118,-9
8,-10,-19,0,13,-14,3,-13,-48,13,-118,-9
7,-10,-18,1,12,-13,2,-12,-48,13,-117,-8
7,-9,-17,0,12,-12,2,-12,-47,13,-115,-7
7,-8,-15,0,11,-11,2,-12,-47,13,-113,-5
8,-6,-14,0,10,-10,1,-12,-47,14,-111,-4
9,-4,-13,-3,11,-9,1,-11,-46,14,-109,-3
10,-2,-13,-4,11,-8,1,-10,-46,15,-108,-1
9,-3,-12,-3,10,-7,0,-9,-45,15,-107,-1
8,-3,-12,-3,10,-7,0,-8,-45,15,-106,-1
8,-2,-10,-3,9,-6,0,-8,-44,16,-104,0
7,-2,-9,-2,8,-5,0,-7,-42,16,-102,0
6,-2,-9,-2,7,-5,0,-6,-41,16,-101,0
7,-2,-9,-2,7,-5,0,-6,-40,17,-99,0
7,-2,-9,-2,7,-5,0,-5,-39,17,-98,0
7,-2,-9,-2,7,-5,0,-5,-38,18,-97,0
6,-1,-8,-2,7,-5,0,-4,-37,19,-95,0
6,-1,-7,-2,6,-4,0,-3,-35,20,-93,0
5,-2,-7,-1,6,-5,0,-2,-34,20,-92,0
4,-3,-7,0,6,-6,0,-2,-33,19,-91,0
3,-4,-8,0,6,-6,0,-2,-33,19,-90,0
3,-4,-8,0,5,-6,0,-2,-32,19,-89,1
3,-3,-7,0,5,-5,0,-2,-31,19,-88,1
4,-3,-8,0,6,-5,-1,-2,-30,19,-87,1
4,-4,-9,0,7,-7,-2,-3,-31,18,-87,0
4,-6,-10,1,7,-8,-3,-3,-31,16,-87,-1
2,-7,-9,2,6,-8,-4,-3,-31,16,-86,-1
1,-7,-8,3,5,-8,-4,-4,-31,15,-85,-2
0,-6,-7,3,4,-7,-5,-4,-31,15,-85,-3
-1,-7,-7,4,3,-7,-4,-5,-31,14,-85,-4
-2,-9,-7,6,2,-8,-3,-6,-31,13,-86,-4
-3,-10,-7,6,2,-8,-2,-6,-31,12,-87,-5
-1,-10,-8,5,3,-9,-2,-7,-31,11,-86,-5
0,-9,-9,4,5,-9,-2,-7,-31,10,-85,-5
0,-9,-9,4,5,-9,-2,-8,-31,10,-84,-6
0,-9,-9,4,5,-9,-3,-8,-31,9,-82,-6
0,-10,-10,5,4,-10,-3,-8,-30,8,-81,-7
-1,-10,-10,5,4,-10,-3,-8,-30,7,-79,-7
-1,-10,-10,6,4,-10,-3,-8,-29,7,-78,-7
-1,-11,-11,6,4,-11,-3,-9,-29,6,-76,-7
-1,-11,-10,7,3,-11,-4,-10,-30,5,-75,-7
-3,-12,-9,8,2,-11,-5,-11,-30,4,-74,-8
-5,-14,-9,9,1,-11,-6,-11,-31,4,-74,-8
-5,-14,-9,10,1,-12,-7,-12,-31,3,-73,-9
-5,-14,-9,10,1,-12,-7,-12,-31,3,-73,-9
-4,-13,-9,9,1,-11,-7,-12,-31,3,-72,-9
-2,-11,-9,7,2,-10,-5,-12,-30,3,-70,-8
0,-8,-7,4,3,-8,-4,-12,-29,4,-67,-7
0,-7,-7,3,3,-7,-3,-12,-28,4,-66,-6
-1,-9,-8,5,3,-9,-4,-13,-29,2,-65,-6
-2,-11,-9,6,3,-10,-4,-14,-29,1,-65,-7
-1,-11,-9,6,3,-10,-3,-14,-29,1,-63,-7
-1,-10,-8,6,3,-9,-2,-14,-29,0,-61,-6
-2,-10,-7,6,2,-9,-2,-14,-30,0,-59,-6
-4,-11,-7,8,0,-9,-2,-15,-30,0,-57,-5
-6,-12,-7,9,0,-10,-3,-16,-30,0,-56,-5
-6,-11,-6,9,-1,-9,-2,-16,-30,-1,-54,-5
-6,-10,-5,8,-1,-8,-1,-16,-29,-2,-53,-4
-6,-10,-5,8,-1,-8,0,-16,-28,-3,-52,-4
-5,-9,-4,7,-1,-7,0,-15,-28,-3,-51,-3
-3,-8,-5,6,0,-7,-2,-15,-28,-3,-49,-2
-1,-8,-6,4,2,-7,-4,-15,-28,-3,-47,-1
0,-8,-8,3,4,-8,-7,-15,-28,-4,-47,-1
0,-8,-8,4,3,-8,-10,-15,-29,-5,-46,-1
-2,-9,-7,6,2,-8,-11,-15,-29,-5,-45,0
-3,-10,-7,6,2,-8,-12,-15,-29,-5,-44,0
-2,-10,-8,6,3,-9,-12,-14,-28,-4,-43,0
-2,-9,-7,5,3,-8,-12,-12,-27,-3,-42,1
-1,-8,-6,4,3,-7,-11,-10,-26,-2,-40,2
-1,-6,-5,4,2,-5,-11,-8,-25,0,-38,2
-2,-7,-4,4,1,-5,-11,-8,-26,0,-37,2
-3,-7,-4,5,1,-6,-10,-7,-26,0,-36,2
-3,-7,-5,5,2,-6,-10,-6,-25,1,-36,1
-2,-7,-6,4,2,-6,-9,-5,-25,1,-35,1
0,-5,-6,3,3,-5,-9,-4,-25,2,-35,1
2,-3,-6,0,4,-4,-8,-2,-24,4,-34,2
2,-3,-6,0,4,-5,-7,-1,-23,5,-33,3
2,-5,-7,2,5,-6,-6,0,-23,5,-32,3
2,-6,-8,2,5,-7,-6,0,-23,6,-30,3
2,-6,-8,2,5,-7,-5,1,-23,6,-27,4
2,-6,-8,2,5,-7,-5,1,-23,7,-24,5
1,-6,-7,2,4,-6,-4,1,-22,6,-20,6
1,-5,-7,2,4,-6,-3,1,-23,5,-17,7
2,-5,-7,2,5,-6,-4,1,-23,3,-15,6
2,-5,-7,2,4,-6,-4,2,-23,3,-12,6
1,-5,-6,2,4,-5,-4,3,-23,3,-9,6
2,-4,-5,1,4,-5,-4,3,-23,3,-7,6
3,-3,-5,1,4,-4,-5,3,-23,2,-6,6
3,-3,-5,0,4,-4,-5,3,-23,2,-6,5
3,-2,-5,0,3,-3,-5,3,-22,2,-7,5
1,-2,-3,1,2,-2,-6,3,-22,3,-8,5
0,-2,-1,2,0,-2,-6,3,-22,3,-9,5
-1,-2,-1,2,0,-2,-6,3,-23,2,-9,5
0,-2,-2,2,1,-2,-6,3,-23,2,-9,4
3,-1,-4,0,3,-2,-5,4,-23,2,-9,4
4,-1,-5,-1,4,-3,-5,4,-23,2,-8,4
3,-3,-5,0,4,-3,-6,3,-24,2,-7,4
1,-3,-4,2,2,-3,-6,3,-25,3,-6,5
0,-3,-3,2,1,-3,-7,3,-25,4,-5,5
0,-3,-3,2,1,-3,-8,3,-25,6,-5,5
0,-3,-3,2,2,-3,-8,3,-25,7,-6,4
0,-2,-3,1,2,-3,-8,3,-24,9,-7,4
1,-2,-4,1,2,-3,-8,4,-24,11,-9,3
2,-3,-5,1,3,-4,-8,4,-25,13,-12,3
1,-5,-6,2,3,-5,-8,3,-25,13,-14,2
1,-5,-6,2,3,-5,-9,3,-26,14,-17,1
1,-4,-5,1,3,-4,-8,4,-26,15,-19,2
1,-3,-5,1,3,-4,-8,4,-26,17,-20,2
2,-3,-6,1,4,-4,-8,4,-26,17,-21,2
2,-3,-6,0,4,-4,-9,4,-26,18,-22,3
1,-3,-4,0,3,-3,-10,4,-26,19,-22,4
1,-2,-3,1,2,-2,-9,4,-25,20,-23,5
2,-2,-3,0,2,-2,-9,5,-24,21,-23,5
3,-2,-4,0,3,-3,-9,5,-25,21,-23,4
3,-2,-5,0,4,-3,-9,5,-25,21,-23,4
3,-2,-5,0,4,-4,-9,5,-25,21,-22,4
2,-3,-6,0,4,-5,-10,5,-26,21,-21,4
0,-5,-5,2,3,-5,-10,5,-26,21,-21,4
-1,-5,-3,3,1,-4,-10,5,-26,21,-20,4
-1,-4,-2,3,1,-3,-9,5,-26,21,-20,4
-2,-6,-2,4,0,-4,-9,5,-25,21,-19,3
-3,-8,-3,6,0,-5,-9,5,-26,21,-19,3
-2,-7,-3,5,1,-5,-8,6,-25,22,-19,3
0,-4,-3,2,2,-3,-7,6,-25,23,-18,4
0,-2,-3,1,1,-2,-7,7,-25,23,-18,4
0,-2,-2,1,1,-2,-7,7,-25,22,-19,4
0,-3,-3,2,1,-3,-7,8,-25,21,-20,3
0,-5,-4,2,2,-4,-8,8,-25,21,-21,3
1,-5,-5,2,3,-5,-9,7,-25,21,-22,3
1,-5,-6,2,3,-6,-9,7,-25,20,-23,2
0,-6,-5,3,2,-6,-9,7,-25,20,-23,2
-1,-6,-5,4,1,-6,-9,7,-25,20,-24,2
-2,-5,-4,4,0,-5,-9,7,-25,20,-24,3
-2,-4,-3,3,0,-3,-10,7,-25,21,-24,3
-1,-3,-3,2,0,-3,-11,6,-25,21,-25,2
-2,-4,-3,2,0,-3,-11,6,-25,21,-26,2
-2,-4,-2,2,0,-3,-11,6,-24,22,-25,2
-1,-3,-1,2,0,-2,-10,6,-24,23,-24,2
-1,-3,0,2,0,-2,-10,5,-24,23,-25,1
-2,-3,0,2,-1,-2,-10,4,-25,22,-26,0
-2,-3,0,2,-1,-2,-9,4,-25,22,-26,-1
-1,-3,-1,2,0,-2,-8,3,-26,22,-27,0
-1,-3,-3,2,0,-3,-8,3,-26,22,-27,0
0,-3,-3,1,1,-3,-8,3,-26,23,-27,1
0,-2,-2,1,1,-2,-8,3,-26,23,-27,2
-1,-3,-2,2,0,-2,-7,2,-26,23,-27,2
-1,-4,-2,3,0,-2,-7,1,-27,22,-27,2
-1,-4,-1,3,-1,-2,-7,0,-28,21,-28,1
-2,-3,0,3,-2,-2,-6,0,-28,21,-28,1
-4,-4,0,4,-2,-2,-6,-1,-28,20,-29,0
-5,-5,0,5,-2,-3,-6,-2,-29,20,-30,0
-4,-4,0,4,-2,-2,-7,-3,-29,19,-31,-1
-3,-2,1,2,-2,-1,-8,-2,-29,20,-30,0
-2,-1,1,2,-2,0,-9,-3,-29,20,-31,0
-2,-2,0,2,-2,-1,-11,-4,-29,19,-32,-1
-1,-1,0,1,-1,-1,-11,-4,-29,19,-32,-1
0,0,1,1,-1,0,-10,-3,-29,20,-31,0
-1,0,1,1,-1,0,-10,-3,-29,20,-31,0
-1,0,1,1,-1,0,-11,-3,-29,20,-32,0
-1,0,0,1,-1,0,-12,-4,-30,20,-32,0
0,0,0,1,0,-1,-14,-4,-31,19,-32,0
0,-1,0,1,0,-1,-15,-4,-31,18,-31,0
-1,0,0,1,-1,0,-15,-4,-30,18,-30,0
-1,-1,0,1,-1,0,-16,-4,-30,18,-29,0
0,-1,-1,1,0,-1,-16,-4,-30,18,-28,1
1,-1,-1,0,0,-1,-17,-4,-30,18,-26,2
1,0,-1,0,1,-1,-17,-4,-29,19,-24,3
2,1,-1,0,1,0,-17,-3,-29,19,-23,4
1,1,0,-1,1,0,-17,-4,-29,18,-23,4
1,1,0,0,1,0,-18,-4,-30,18,-23,4
0,0,-1,0,0,0,-19,-5,-31,17,-24,3
0,-2,-1,2,0,-1,-20,-6,-32,16,-25,2
0,-4,-2,3,0,-2,-20,-7,-32,16,-25,2
0,-3,-2,2,1,-3,-20,-7,-32,16,-24,3
0,-2,-2,2,1,-2,-20,-7,-31,16,-23,3
0,-2,-1,2,0,-2,-20,-7,-31,16,-22,2
0,-1,-1,1,0,-1,-20,-7,-32,16,-21,2
0,1,0,0,0,0,-19,-6,-31,17,-19,2
0,2,1,-1,0,1,-17,-5,-30,18,-17,3
1,2,1,-2,0,2,-16,-5,-30,18,-16,4
2,3,1,-3,0,2,-16,-5,-30,18,-16,4
2,3,2,-3,0,3,-16,-5,-30,18,-16,4
2,3,2,-2,-1,3,-17,-5,-30,18,-16,5
0,2,2,0,-1,2,-17,-5,-30,17,-16,5
-2,0,2,2,-2,0,-17,-5,-31,16,-17,5
-1,-1,1,2,-1,0,-17,-6,-32,16,-17,4
0,0,0,0,0,0,-17,-5,-32,15,-17,4
1,0,0,0,0,0,-17,-5,-32,15,-17,4
0,-1,0,0,0,0,-16,-5,-32,14,-16,4
2,0,-1,0,1,0,-15,-5,-32,14,-15,4
3,0,-1,-1,2,0,-15,-6,-33,13,-15,4
2,0,-1,-1,2,0,-15,-6,-33,13,-15,4
2,1,0,-2,1,0,-15,-5,-33,13,-15,5
2,3,1,-3,1,2,-15,-5,-33,13,-14,5
2,3,1,-3,0,3,-15,-5,-33,12,-14,5
0,1,1,0,0,1,-15,-5,-33,11,-14,5
0,0,0,0,0,0,-15,-6,-33,11,-14,5
2,0,-1,-1,1,0,-15,-6,-33,10,-15,4
3,0,-2,-1,2,0,-15,-6,-33,9,-15,3
2,0,-2,-1,2,0,-14,-6,-32,9,-16,3
2,0,-2,-1,2,0,-12,-6,-32,9,-16,3
2,2,-1,-2,2,0,-11,-5,-32,9,-14,4
2,3,-1,-2,1,1,-11,-5,-32,9,-12,5
2,3,0,-2,0,2,-11,-5,-32,9,-11,6
1,3,1,-2,-1,3,-11,-5,-32,8,-11,7
0,3,2,-2,-1,3,-11,-4,-32,7,-12,6
1,3,2,-2,-1,2,-11,-4,-32,6,-13,6
2,3,0,-2,0,2,-10,-4,-32,6,-13,5
2,2,0,-1,1,1,-10,-4,-32,6,-13,4
1,1,-1,0,1,0,-10,-4,-32,6,-13,4
1,1,-1,0,1,0,-10,-3,-31,6,-12,5
1,1,-1,-1,1,0,-10,-3,-31,6,-12,6
2,0,-3,-1,3,-1,-11,-4,-33,5,-12,6
3,-1,-5,-1,4,-3,-12,-6,-36,4,-12,6
4,-3,-6,-1,5,-4,-13,-9,-40,2,-13,5
3,-5,-8,0,5,-6,-14,-13,-43,0,-15,5
3,-6,-9,1,7,-7,-14,-16,-46,-3,-15,5
6,-6,-12,0,9,-8,-14,-19,-49,-6,-15,6
8,-7,-16,0,12,-10,-16,-22,-53,-9,-15,7
12,-6,-19,-3,16,-12,-19,-24,-56,-11,-12,12
19,-4,-23,-8,21,-13,-23,-25,-59,-12,-5,21
26,-2,-28,-12,26,-15,-28,-26,-63,-13,3,32
33,-1,-33,-16,33,-17,-34,-27,-68,-14,12,45
42,2,-39,-22,40,-18,-40,-28,-72,-15,20,59
51,7,-44,-29,47,-18,-44,-29,-76,-15,28,72
58,12,-46,-35,52,-17,-49,-29,-78,-16,36,85
64,19,-45,-41,55,-13,-52,-28,-80,-17,43,97
66,25,-41,-45,54,-8,-54,-25,-79,-17,49,107
61,32,-30,-46,46,1,-51,-20,-74,-14,52,110
49,39,-10,-44,30,15,-45,-12,-65,-9,51,105
32,48,15,-41,8,32,-38,-3,-52,-1,47,96
16,59,43,-38,-14,52,-29,5,-36,9,41,82
0,71,71,-36,-35,71,-19,16,-18,21,33,67
-12,79,92,-33,-52,85,-9,28,0,36,26,51
-21,78,100,-28,-61,89,0,38,19,51,20,34
-26,72,99,-22,-63,86,8,50,38,65,13,17
-29,68,98,-19,-64,83,16,61,56,79,6,2
-32,67,99,-17,-66,83,22,71,72,91,1,-9
-35,64,100,-14,-68,82,26,78,84,98,-2,-16
-37,61,99,-12,-68,80,30,86,93,104,-5,-20
-37,57,96,-10,-66,76,34,95,103,109,-7,-24
-39,53,93,-8,-66,73,38,103,113,115,-10,-27
-41,49,91,-4,-65,70,42,110,121,117,-14,-30
-41,44,86,-2,-63,65,46,115,127,115,-19,-34
-40,40,81,0,-60,61,49,119,131,114,-21,-35
-40,38,78,1,-58,58,50,121,135,114,-19,-34
-39,36,74,2,-56,55,51,123,138,114,-18,-32
-37,31,68,3,-52,49,51,123,139,113,-17,-31
-34,27,61,4,-48,44,52,120,138,111,-17,-30
-32,24,56,4,-44,40,51,114,134,108,-15,-27
-31,21,53,4,-41,37,51,106,129,104,-13,-23
-31,19,51,6,-40,34,52,98,124,100,-11,-20
-30,17,48,7,-38,32,53,85,119,96,-10,-18
-27,17,45,6,-35,31,51,67,111,92,-9,-17
-25,16,43,5,-34,30,49,46,102,86,-9,-16
-24,16,41,4,-33,29,47,25,92,79,-9,-15
-20,18,39,1,-30,29,44,5,82,72,-10,-15
-16,19,36,-1,-26,27,41,-11,73,64,-12,-14
-15,18,33,-1,-24,25,39,-24,63,57,-14,-14
-14,16,30,-1,-22,23,38,-33,55,51,-17,-15
-14,14,28,0,-21,21,37,-40,48,46,-18,-16
-15,11,27,2,-21,19,35,-45,40,41,-19,-16
-16,9,26,3,-21,18,34,-50,32,36,-20,-17
-16,9,26,4,-21,18,32,-53,23,31,-20,-17
-17,9,27,4,-22,19,30,-54,15,28,-19,-16
-17,10,28,4,-23,19,28,-52,10,26,-18,-15
-17,9,26,4,-22,18,26,-50,5,25,-18,-14
-15,7,22,3,-19,15,24,-48,1,23,-19,-14
-12,6,19,3,-16,13,21,-47,-4,21,-19,-13
-11,6,17,3,-14,11,18,-45,-9,20,-18,-12
-9,7,17,2,-13,11,15,-44,-13,19,-16,-10
-7,8,16,0,-12,11,12,-42,-18,17,-15,-9
-6,8,15,0,-11,11,9,-40,-22,14,-15,-8
-5,9,15,-2,-10,12,8,-38,-25,12,-14,-6
-4,10,15,-3,-9,12,6,-35,-27,11,-13,-5
-4,9,14,-2,-8,11,4,-33,-30,8,-13,-4
-4,6,11,-1,-7,9,2,-31,-32,5,-13,-4
-2,4,7,-1,-4,6,0,-29,-35,2,-13,-4
0,3,3,-1,-1,3,-2,-27,-37,1,-13,-3
1,1,0,0,1,0,-5,-25,-39,0,-13,-3
0,-2,-3,1,1,-2,-8,-24,-41,-2,-14,-4
1,-4,-5,2,3,-4,-10,-22,-42,-3,-13,-3
2,-4,-6,1,4,-5,-11,-20,-42,-4,-13,-2
2,-4,-6,1,4,-5,-12,-19,-42,-4,-13,-2
1,-4,-6,1,4,-5,-12,-17,-42,-5,-14,-3
1,-4,-6,1,4,-5,-11,-16,-41,-5,-14,-3
1,-4,-6,1,3,-5,-11,-16,-41,-6,-14,-3
1,-4,-6,1,4,-5,-11,-16,-41,-7,-14,-3
2,-6,-8,2,5,-7,-11,-16,-42,-8,-14,-3
3,-7,-10,2,6,-8,-12,-15,-42,-8,-13,-2
4,-7,-11,1,7,-9,-11,-14,-42,-8,-12,-1
4,-7,-11,1,7,-9,-11,-13,-41,-8,-12,-1
4,-7,-10,1,7,-9,-11,-13,-41,-9,-12,-2
3,-7,-10,1,6,-9,-11,-13,-41,-9,-12,-2
4,-6,-10,0,7,-8,-11,-13,-41,-8,-12,-2
5,-5,-9,0,7,-7,-11,-13,-41,-8,-12,-2
4,-4,-8,0,6,-6,-11,-12,-41,-8,-11,-2
4,-4,-8,1,6,-6,-11,-12,-41,-8,-11,-1
4,-5,-10,0,7,-7,-12,-12,-41,-9,-10,-1
5,-5,-11,0,8,-8,-12,-12,-41,-9,-10,-1
4,-6,-10,1,7,-8,-12,-12,-41,-9,-10,-1
3,-7,-10,2,6,-8,-13,-12,-41,-9,-10,-1
2,-8,-11,3,6,-9,-13,-12,-41,-9,-10,-1
2,-9,-11,4,6,-10,-13,-12,-41,-9,-10,0
1,-11,-11,5,6,-11,-14,-12,-41,-9,-10,0
0,-11,-10,5,5,-11,-14,-11,-40,-9,-10,0
1,-10,-10,4,5,-10,-14,-10,-39,-9,-9,0
1,-9,-10,4,5,-9,-14,-10,-38,-9,-8,1
1,-9,-10,4,5,-10,-14,-9,-38,-8,-7,2
1,-9,-10,5,5,-10,-15,-9,-38,-8,-7,2
0,-9,-10,5,5,-10,-15,-9,-38,-8,-7,2
1,-9,-10,4,5,-9,-15,-9,-38,-8,-7,2
3,-8,-10,3,6,-9,-15,-9,-38,-8,-6,2
4,-8,-11,2,7,-9,-15,-9,-38,-7,-6,3
5,-7,-11,1,8,-9,-15,-8,-37,-6,-5,3
5,-6,-12,1,9,-9,-14,-8,-37,-6,-4,4
4,-7,-11,2,8,-9,-14,-7,-36,-6,-4,5
3,-8,-12,3,8,-11,-14,-6,-36,-6,-3,6
4,-9,-13,3,8,-11,-15,-6,-36,-6,-3,7
4,-9,-13,2,9,-11,-15,-6,-36,-5,-2,8
5,-8,-13,1,9,-11,-15,-5,-35,-4,0,9
6,-8,-14,1,10,-11,-14,-5,-34,-3,1,10
6,-8,-14,1,10,-11,-14,-5,-34,-3,2,11
6,-8,-14,1,10,-11,-14,-6,-34,-4,2,11
7,-8,-15,1,11,-12,-14,-6,-35,-4,3,11
8,-8,-16,0,12,-12,-15,-6,-35,-5,3,11
7,-8,-15,0,11,-11,-15,-5,-34,-4,5,11
5,-8,-14,1,9,-11,-14,-4,-33,-4,6,12
4,-9,-13,2,8,-11,-14,-4,-32,-3,8,12
5,-9,-14,2,9,-12,-14,-4,-32,-3,10,12
7,-8,-15,1,11,-12,-14,-3,-32,-3,12,12
7,-8,-15,1,11,-12,-14,-3,-31,-3,14,13
7,-8,-16,1,11,-12,-14,-3,-30,-4,15,14
7,-8,-16,1,11,-12,-15,-3,-30,-5,16,14
8,-7,-15,1,11,-12,-15,-2,-29,-4,18,14
7,-8,-15,1,11,-11,-15,-2,-28,-4,19,14
6,-9,-15,2,10,-11,-15,-2,-27,-4,20,15
5,-9,-14,2,9,-11,-14,-2,-26,-4,22,16
6,-8,-13,1,9,-10,-13,-1,-25,-4,24,17
7,-6,-13,0,10,-10,-12,-1,-24,-3,26,18
8,-5,-13,-1,11,-9,-11,-1,-23,-3,28,19
9,-3,-13,-2,11,-8,-11,0,-22,-2,29,20
9,-3,-13,-2,11,-8,-11,0,-21,-1,31,21
9,-3,-13,-2,11,-8,-11,1,-20,0,32,22
10,-3,-13,-3,11,-8,-11,1,-19,0,33,22
10,-3,-13,-3,12,-8,-10,1,-18,0,34,22
9,-4,-13,-2,11,-9,-10,1,-18,0,35,22
8,-5,-13,-1,11,-9,-10,1,-17,0,36,22
8,-4,-13,-1,11,-9,-10,1,-16,1,37,23
9,-3,-12,-3,11,-8,-9,1,-15,2,38,24
10,-2,-13,-4,12,-7,-10,1,-14,3,38,24
11,-2,-13,-5,12,-7,-11,1,-14,3,38,24
10,-2,-12,-5,11,-6,-11,2,-13,4,39,25
11,-1,-11,-5,11,-6,-11,2,-12,5,40,26
12,0,-12,-7,12,-6,-11,3,-12,6,42,26
12,0,-12,-6,13,-6,-13,3,-11,6,43,26
9,-2,-12,-3,11,-7,-15,3,-11,5,43,26
6,-5,-11,0,9,-8,-17,4,-11,3,43,26
7,-4,-12,-1,9,-8,-19,4,-11,0,43,27
10,-3,-13,-3,12,-8,-21,5,-11,-1,44,27
13,-1,-15,-5,14,-8,-22,6,-10,-2,46,28
14,0,-15,-7,15,-8,-22,6,-9,-3,48,28
15,0,-15,-7,15,-8,-23,7,-8,-5,50,28
14,-1,-15,-6,14,-8,-25,7,-7,-7,52,28
13,-1,-15,-5,14,-8,-26,7,-7,-9,55,29
13,-1,-15,-5,14,-8,-26,8,-6,-10,57,30
14,0,-15,-6,14,-7,-27,8,-5,-11,59,31
16,0,-15,-7,15,-7,-28,9,-4,-12,61,32
16,0,-16,-7,16,-8,-30,8,-4,-14,63,32
14,-1,-15,-6,15,-8,-30,8,-4,-16,64,32
12,-2,-13,-4,13,-8,-31,8,-4,-18,65,32
12,-2,-13,-4,13,-8,-32,9,-3,-20,66,32
13,0,-13,-5,13,-7,-33,9,-3,-22,66,33
13,1,-13,-7,13,-6,-34,10,-2,-24,67,33
14,3,-12,-8,13,-5,-35,11,-1,-25,67,33
13,3,-11,-8,12,-4,-36,12,0,-26,67,33
13,3,-11,-8,12,-3,-37,14,0,-28,68,33
15,3,-11,-9,13,-3,-38,15,2,-30,69,33
16,3,-12,-10,14,-3,-38,16,4,-31,70,33
16,4,-12,-10,14,-3,-38,16,5,-33,71,32
16,4,-11,-10,13,-3,-38,17,6,-34,72,32
14,4,-10,-10,12,-3,-38,18,8,-35,74,31
14,3,-10,-9,11,-3,-38,19,9,-37,75,31
13,3,-9,-9,11,-3,-38,20,10,-38,76,31
12,3,-8,-8,10,-2,-38,21,11,-39,77,31
12,3,-8,-8,10,-2,-38,21,12,-40,77,31
11,2,-9,-7,10,-3,-38,22,13,-41,77,30
11,1,-9,-6,10,-4,-37,22,13,-42,78,30
10,0,-9,-5,10,-4,-37,23,14,-44,79,30
10,0,-9,-6,10,-4,-36,23,16,-45,80,30
11,1,-9,-6,10,-4,-35,24,17,-45,82,29
10,0,-9,-5,10,-4,-34,24,18,-45,83,28
8,-1,-9,-4,9,-5,-34,24,18,-46,84,27
8,-1,-9,-3,9,-5,-33,24,18,-47,85,25
8,0,-9,-4,9,-4,-33,24,19,-48,86,24
10,0,-10,-5,10,-4,-32,23,19,-48,87,23
12,0,-12,-6,12,-5,-32,22,18,-50,87,22
11,0,-12,-5,11,-6,-32,21,17,-52,87,21
10,0,-11,-5,10,-6,-31,20,18,-54,86,20
9,0,-10,-4,9,-6,-29,20,18,-55,85,20
8,0,-9,-4,8,-5,-28,19,19,-55,83,19
7,0,-8,-3,8,-4,-27,19,20,-56,82,19
7,0,-8,-3,8,-4,-26,19,20,-58,81,19
7,-1,-8,-2,8,-4,-26,18,20,-60,81,19
7,-1,-8,-2,7,-4,-25,17,20,-61,82,19
8,0,-7,-3,7,-3,-24,17,20,-62,83,19
8,0,-7,-4,7,-3,-23,16,20,-63,85,19
8,0,-7,-4,7,-3,-23,15,19,-63,87,19
8,-1,-8,-3,7,-5,-23,14,17,-64,87,18
7,-3,-9,-1,7,-6,-24,12,17,-65,88,17
6,-3,-9,-1,7,-6,-23,11,17,-65,90,17
6,-2,-8,-1,7,-5,-22,11,18,-65,91,17
6,-1,-7,-2,6,-4,-22,10,18,-65,91,17
5,0,-6,-2,5,-3,-21,10,18,-65,91,17
6,0,-5,-3,5,-2,-21,10,19,-64,90,17
6,1,-5,-4,5,-2,-20,10,19,-63,87,16
6,1,-4,-4,4,-1,-20,10,19,-62,84,16
6,3,-3,-5,4,0,-19,10,19,-61,81,16
8,5,-3,-6,5,0,-19,9,19,-61,79,16
9,5,-3,-6,6,1,-18,9,18,-61,77,15
9,5,-4,-7,6,1,-18,8,17,-61,76,15
9,4,-5,-6,7,0,-18,8,16,-61,76,15
9,3,-6,-6,8,-1,-19,7,14,-63,74,15
9,3,-6,-6,8,-1,-19,6,14,-64,73,14
7,3,-3,-5,5,0,-17,6,14,-63,72,14
4,4,-1,-4,3,1,-16,5,14,-63,70,14
4,4,0,-4,2,2,-15,4,14,-63,68,13
4,4,0,-4,2,2,-14,4,13,-63,65,12
4,5,1,-4,2,3,-13,4,13,-62,63,11
4,6,1,-5,2,4,-12,4,13,-61,62,11
4,7,2,-5,1,4,-11,3,13,-61,60,11
4,7,2,-5,1,4,-10,3,12,-62,58,11
3,6,2,-4,1,4,-10,2,11,-62,56,10
0,4,2,-2,-1,3,-10,1,10,-62,54,9
0,3,2,-1,-1,2,-10,0,10,-62,52,8
2,4,2,-3,0,2,-9,0,10,-62,50,7
3,5,2,-4,1,3,-8,0,9,-63,50,7
2,5,2,-3,0,3,-7,-1,9,-63,49,7
2,5,3,-3,0,3,-6,-1,8,-64,50,6
2,6,3,-4,0,4,-5,-1,9,-64,52,7
3,7,3,-5,0,5,-4,-1,9,-64,54,7
4,8,3,-5,0,6,-3,-1,9,-65,55,7
3,8,4,-5,0,6,-2,-2,9,-65,56,7
3,8,5,-5,-1,7,-1,-2,9,-65,57,7
2,8,6,-5,-2,7,-1,-3,9,-65,57,7
1,7,6,-4,-2,6,0,-3,9,-65,56,7
1,7,7,-4,-2,7,0,-4,9,-65,56,7
1,8,7,-4,-2,7,0,-4,10,-65,55,7
2,9,6,-5,-2,8,0,-5,10,-64,53,6
4,10,6,-7,0,8,1,-5,10,-64,52,6
5,12,7,-8,0,9,2,-5,10,-64,50,7
4,12,9,-7,-2,10,3,-5,11,-62,48,7
1,10,10,-6,-3,10,3,-6,11,-61,45,7
0,9,10,-5,-4,10,3,-8,11,-61,42,6
0,10,11,-5,-5,11,3,-8,10,-60,40,6
0,10,11,-4,-6,11,4,-9,10,-60,39,6
-1,11,12,-4,-7,12,5,-10,9,-59,39,6
-1,12,12,-4,-7,12,5,-11,9,-59,40,6
0,13,12,-6,-7,12,5,-11,9,-59,41,7
2,15,12,-8,-5,13,4,-12,9,-59,41,7
4,15,12,-9,-4,13,4,-13,8,-59,42,7
5,15,11,-10,-3,12,3,-14,8,-58,42,7
5,15,10,-10,-3,13,2,-14,7,-58,42,7
3,14,11,-9,-4,13,1,-14,6,-58,42,7
1,13,11,-7,-5,13,0,-14,6,-58,42,6
1,13,10,-7,-4,12,-1,-14,5,-58,42,6
2,12,9,-7,-4,11,-1,-14,4,-58,42,6
2,12,9,-7,-3,10,-2,-14,4,-58,41,5
3,11,8,-7,-3,10,-3,-14,3,-57,40,5
3,11,8,-7,-2,10,-3,-14,3,-57,39,5
4,12,7,-8,-1,10,-3,-14,3,-56,39,4
5,12,7,-9,0,10,-3,-14,3,-56,39,4
5,12,6,-9,0,9,-3,-14,3,-55,39,4
4,10,6,-8,0,8,-3,-13,3,-54,39,3
3,9,5,-6,-1,7,-3,-13,3,-52,38,3
3,9,5,-6,-1,7,-3,-12,3,-51,38,3
3,9,5,-6,-1,7,-3,-11,3,-50,38,3
3,9,5,-6,-1,7,-3,-10,3,-48,38,3
4,10,6,-7,-1,8,-2,-9,4,-47,38,4
5,11,5,-7,-1,8,-2,-8,5,-46,38,4
6,11,4,-8,0,7,-2,-7,4,-46,37,4
8,10,1,-8,3,6,-2,-7,3,-46,37,4
9,9,-1,-8,4,4,-3,-9,1,-47,36,4
9,7,-3,-7,6,2,-3,-11,-1,-48,36,4
10,6,-4,-7,7,1,-4,-13,-4,-50,36,4
10,5,-4,-7,7,0,-4,-16,-8,-51,36,4
10,4,-6,-7,8,0,-6,-20,-11,-54,36,4
11,3,-8,-7,10,-2,-8,-24,-16,-57,36,4
13,3,-11,-8,12,-3,-12,-28,-21,-61,38,7
18,4,-15,-11,16,-5,-16,-30,-26,-62,43,14
27,7,-21,-17,24,-6,-21,-29,-29,-61,51,26
37,11,-26,-23,31,-7,-26,-27,-32,-59,62,40
44,14,-29,-29,37,-8,-31,-26,-34,-58,73,54
52,18,-34,-35,43,-8,-37,-26,-38,-57,83,69
62,24,-37,-43,50,-7,-42,-26,-41,-56,94,84
68,31,-37,-49,53,-3,-47,-25,-44,-56,105,97
69,38,-32,-53,51,3,-49,-23,-44,-56,112,108
66,46,-21,-56,44,12,-48,-16,-40,-53,116,113
57,54,-3,-55,31,25,-42,-6,-30,-48,115,110
44,64,20,-53,12,42,-32,5,-16,-41,108,100
28,72,45,-50,-8,58,-22,16,1,-32,97,85
11,79,69,-45,-29,74,-12,28,21,-20,84,67
-4,86,92,-41,-48,88,-3,40,42,-6,73,51
-15,88,104,-36,-59,95,7,53,65,10,65,35
-22,81,104,-29,-63,92,17,69,89,27,56,17
-28,73,101,-22,-64,87,26,84,113,43,48,1
-31,69,99,-18,-65,84,35,97,134,58,43,-11
-34,65,98,-14,-65,81,40,106,151,68,39,-19
-37,59,96,-10,-66,77,45,114,164,76,35,-25
-39,52,92,-6,-65,72,49,123,177,83,32,-31
-38,48,87,-5,-62,67,53,130,188,87,28,-37
-38,44,83,-3,-60,63,57,135,196,88,24,-42
-41,38,79,1,-59,58,60,137,201,86,21,-46
-43,32,75,5,-59,53,63,139,205,85,21,-48
-42,28,70,7,-56,49,66,142,211,86,23,-48
-39,25,64,7,-51,45,69,144,216,88,27,-46
-37,21,59,9,-48,40,71,143,217,88,31,-43
-37,17,55,9,-46,36,73,139,214,87,36,-40
-35,15,51,9,-43,33,73,131,207,83,41,-36
-32,13,47,8,-40,30,73,119,197,78,44,-33
-31,13,44,8,-38,28,72,100,185,72,46,-31
-31,13,43,8,-37,28,70,74,171,66,47,-29
-30,12,42,9,-36,27,68,46,156,59,47,-27
-29,12,41,9,-35,27,67,19,142,49,45,-26
-27,12,39,8,-33,26,65,-3,127,39,42,-26
-25,12,37,7,-31,25,63,-20,115,31,39,-25
-24,11,36,7,-30,23,62,-31,105,24,37,-24
-23,11,34,6,-28,22,60,-38,95,19,35,-24
-22,10,31,6,-26,20,58,-44,87,14,34,-24
-22,8,28,6,-25,18,57,-47,80,10,33,-24
-21,7,27,6,-23,17,56,-49,72,7,33,-24
-19,7,25,5,-22,16,55,-50,65,4,33,-23
-17,6,23,5,-20,14,53,-50,57,0,32,-23
-16,3,21,6,-18,11,50,-49,49,-3,32,-22
-16,2,19,7,-17,10,47,-47,42,-6,33,-21
-14,2,17,6,-16,9,44,-45,36,-7,33,-19
-12,2,15,5,-14,8,40,-42,32,-8,34,-18
-12,2,13,5,-13,7,37,-40,28,-8,34,-17
-12,0,12,6,-12,6,34,-37,23,-10,34,-16
-10,1,11,5,-11,6,32,-35,19,-10,34,-14
-7,3,10,2,-9,6,30,-33,17,-11,35,-12
-6,2,9,2,-8,5,28,-32,13,-12,34,-11
-5,1,7,2,-6,4,25,-30,10,-14,32,-11
-2,1,4,1,-3,2,23,-27,7,-16,32,-9
-1,0,2,0,-1,1,20,-23,4,-17,31,-8
-2,-1,0,2,-1,0,17,-20,3,-17,31,-8
-3,-3,-1,3,-1,-1,14,-17,1,-17,31,-7
-2,-3,-2,3,0,-2,11,-15,1,-16,31,-6
0,-4,-3,2,1,-3,10,-13,2,-15,31,-5
0,-4,-5,2,2,-4,9,-12,2,-15,31,-5
1,-5,-5,2,3,-5,8,-12,2,-14,31,-4
1,-5,-6,2,3,-5,8,-11,3,-13,32,-3
1,-4,-6,1,4,-5,8,-11,3,-13,31,-3
0,-5,-6,2,3,-5,8,-11,2,-14,30,-3
-1,-6,-6,3,3,-6,8,-11,2,-14,29,-4
0,-6,-7,3,4,-6,8,-12,2,-13,27,-5
1,-5,-7,2,5,-6,8,-13,2,-12,26,-5
1,-5,-7,2,5,-5,9,-14,1,-12,24,-5
1,-5,-6,2,4,-5,9,-15,0,-13,21,-5
1,-6,-7,2,4,-6,8,-17,0,-14,18,-6
1,-6,-7,2,4,-6,7,-18,-2,-14,15,-6
1,-6,-7,2,4,-6,7,-19,-2,-15,12,-6
1,-6,-8,2,4,-7,6,-19,-2,-15,10,-7
2,-6,-10,2,6,-8,5,-19,-3,-16,8,-7
5,-7,-12,1,9,-9,4,-19,-4,-18,6,-7
6,-7,-14,0,11,-10,3,-19,-5,-19,5,-7
6,-7,-13,0,10,-10,3,-17,-5,-19,6,-6
5,-7,-12,1,9,-10,2,-16,-4,-19,8,-6
4,-9,-12,2,8,-11,1,-16,-4,-19,9,-6
2,-11,-13,4,7,-12,0,-15,-5,-19,9,-7
1,-12,-13,5,7,-13,0,-15,-5,-19,9,-7
0,-13,-13,6,6,-13,-1,-14,-5,-18,9,-7
0,-14,-14,7,6,-13,-2,-14,-6,-18,8,-7
-1,-15,-14,8,6,-14,-3,-14,-6,-18,7,-8
0,-15,-14,8,7,-14,-3,-14,-7,-17,5,-7
1,-14,-15,6,8,-14,-3,-13,-6,-15,4,-6
3,-13,-15,5,9,-14,-3,-12,-6,-14,2,-6
4,-13,-16,4,10,-15,-3,-11,-6,-13,1,-6
4,-14,-17,4,11,-16,-3,-11,-5,-12,0,-6
4,-14,-18,5,11,-16,-3,-10,-5,-11,0,-6
5,-14,-18,4,11,-16,-3,-9,-4,-8,0,-6
5,-14,-19,4,12,-16,-3,-9,-3,-7,1,-6
5,-15,-19,5,12,-17,-3,-9,-3,-6,2,-6
4,-15,-19,6,12,-17,-4,-8,-3,-5,3,-6
4,-16,-20,6,12,-18,-4,-8,-3,-6,4,-6
5,-16,-20,6,13,-18,-5,-7,-3,-5,5,-6
5,-16,-20,5,12,-17,-5,-7,-3,-5,7,-6
3,-16,-18,6,11,-16,-5,-6,-3,-4,9,-6
2,-16,-17,6,10,-16,-4,-6,-3,-4,10,-6
3,-15,-17,6,10,-16,-4,-5,-3,-3,11,-5
3,-15,-18,6,11,-17,-5,-5,-3,-3,11,-5
3,-15,-18,6,11,-17,-5,-5,-3,-3,10,-5
3,-15,-18,6,11,-17,-5,-5,-3,-4,10,-5
3,-15,-18,6,11,-17,-6,-4,-2,-4,9,-5
4,-15,-19,5,12,-17,-7,-4,-2,-5,9,-6
5,-15,-20,5,13,-17,-7,-4,-3,-5,9,-6
5,-14,-20,4,13,-17,-7,-4,-3,-5,10,-6
5,-14,-20,3,13,-17,-7,-3,-3,-5,11,-6
4,-14,-19,4,12,-17,-7,-3,-3,-5,12,-7
3,-15,-19,5,12,-17,-7,-2,-3,-6,12,-7
5,-15,-20,4,13,-17,-6,-2,-3,-6,13,-6
5,-15,-20,5,13,-18,-6,-1,-3,-6,13,-6
4,-16,-20,6,12,-18,-5,-1,-3,-6,14,-6
5,-16,-21,6,13,-18,-5,0,-3,-6,15,-6
6,-16,-21,5,13,-18,-5,0,-3,-6,17,-5
6,-16,-21,5,14,-18,-4,1,-3,-5,19,-5
6,-17,-22,6,14,-20,-4,2,-3,-5,20,-5
5,-19,-23,7,14,-21,-4,2,-3,-5,21,-5
5,-18,-24,6,15,-21,-5,3,-3,-4,21,-5
7,-18,-25,5,16,-21,-5,3,-3,-5,21,-5
7,-18,-25,5,16,-21,-6,3,-3,-5,21,-6
6,-18,-25,6,16,-21,-6,3,-3,-5,21,-6
7,-18,-25,6,16,-22,-6,3,-3,-5,21,-6
7,-18,-25,6,16,-22,-6,3,-3,-6,21,-6
6,-18,-24,6,15,-21,-6,3,-3,-6,21,-6
5,-18,-23,6,14,-20,-6,3,-3,-6,21,-6
6,-16,-23,5,15,-19,-6,4,-3,-6,22,-6
8,-15,-23,3,16,-19,-6,4,-3,-5,22,-6
9,-14,-23,2,16,-18,-6,5,-3,-5,22,-6
9,-13,-22,2,15,-17,-6,5,-2,-5,22,-6
8,-13,-20,3,14,-16,-5,6,0,-4,22,-6
7,-13,-20,2,13,-16,-5,6,0,-3,22,-6
6,-12,-19,3,12,-15,-5,6,0,-3,22,-6
4,-13,-18,4,11,-15,-5,6,0,-3,22,-6
4,-13,-17,5,11,-15,-5,6,-1,-3,21,-5
4,-12,-17,4,11,-14,-6,6,-2,-4,21,-5
5,-11,-17,3,11,-14,-6,6,-2,-4,20,-5
6,-10,-16,2,11,-13,-6,6,-2,-4,20,-4
6,-10,-16,2,11,-13,-6,5,-3,-4,20,-4
5,-10,-15,2,10,-12,-6,5,-3,-5,20,-3
7,-8,-16,0,12,-12,-6,5,-2,-4,20,-3
9,-7,-16,-1,13,-11,-7,5,-2,-4,20,-3
8,-8,-16,0,12,-12,-7,5,-3,-5,19,-3
7,-8,-14,0,11,-11,-7,5,-3,-5,18,-2
7,-6,-12,-1,10,-9,-6,6,-2,-4,17,-1
8,-3,-11,-2,9,-7,-5,7,-1,-4,17,0
8,-3,-10,-2,9,-7,-5,7,-1,-4,16,0
7,-4,-10,-1,9,-7,-5,7,-1,-4,15,0
6,-4,-10,-1,8,-7,-5,7,-1,-5,14,0
7,-2,-9,-2,8,-5,-4,7,-1,-4,13,0
7,-1,-8,-3,8,-4,-3,8,0,-4,13,1
6,0,-7,-3,7,-3,-2,9,1,-3,12,2
6,1,-5,-4,5,-2,-2,9,1,-3,12,3
6,2,-4,-4,5,-1,-2,9,1,-3,11,2
5,2,-3,-3,4,0,-2,9,2,-3,11,2
5,3,-2,-4,3,1,-1,10,3,-2,11,3
5,4,-1,-5,3,2,0,10,4,-2,12,3
6,6,0,-6,3,3,0,10,5,-1,12,4
5,6,0,-5,2,4,1,10,6,0,13,4
3,5,1,-4,0,4,2,10,6,0,13,4
3,5,1,-4,0,4,2,9,5,-1,12,3
4,5,1,-4,1,4,2,8,5,-2,11,3
4,5,1,-4,0,4,3,8,5,-1,11,2
3,6,3,-4,0,5,3,8,6,-1,12,3
2,6,4,-3,-1,6,3,7,5,-1,12,3
2,5,3,-3,-1,5,2,5,4,-2,11,2
2,5,2,-4,0,4,0,3,2,-4,9,1
2,5,2,-4,0,4,0,2,1,-5,8,0
1,5,3,-4,-1,4,0,1,0,-5,7,0
1,5,3,-4,-1,5,0,1,0,-5,5,0
0,4,4,-3,-2,4,0,0,0,-6,3,0
0,3,4,-1,-3,4,-1,-1,-2,-7,1,-1
0,4,5,-2,-2,5,-1,-2,-2,-7,0,-1
2,6,4,-4,0,6,0,-2,-2,-7,0,-1
4,7,3,-5,0,5,-1,-3,-4,-8,-1,-2
2,6,4,-4,0,5,-2,-5,-6,-10,-2,-2
0,4,4,-3,-1,4,-3,-6,-7,-12,-3,-3
0,4,3,-2,-1,4,-4,-7,-8,-13,-3,-4
0,3,4,-2,-1,4,-4,-8,-8,-14,-3,-4
-1,2,4,-1,-2,3,-4,-8,-8,-14,-2,-5
-2,1,4,0,-2,3,-4,-9,-9,-14,-1,-5
-1,1,2,0,-1,2,-4,-9,-10,-14,-1,-6
0,2,1,-1,0,2,-5,-10,-11,-15,-1,-6
1,2,0,-1,1,1,-5,-10,-12,-15,-1,-6
1,2,0,-2,1,1,-5,-10,-13,-16,-2,-7
0,1,0,0,0,1,-6,-10,-14,-17,-3,-7
-1,0,1,1,-1,0,-6,-10,-14,-18,-3,-7
-1,0,1,0,-1,0,-6,-10,-14,-18,-4,-7
0,0,1,0,0,1,-6,-9,-14,-19,-4,-7
1,1,0,-2,1,1,-5,-9,-14,-19,-4,-7
3,2,0,-2,2,0,-5,-9,-14,-19,-4,-7
2,0,-1,-1,2,0,-6,-10,-15,-20,-4,-8
1,-1,-2,0,2,-2,-7,-11,-15,-21,-4,-8
1,-2,-2,0,1,-2,-6,-11,-15,-21,-3,-8
0,-2,-1,0,0,-1,-5,-9,-15,-21,-1,-7
-1,-3,-1,1,0,-2,-6,-9,-16,-22,0,-8
-2,-3,-1,2,0,-2,-6,-10,-16,-24,0,-9
-2,-3,0,2,-1,-1,-7,-10,-17,-24,0,-9
-2,-2,0,1,-1,-1,-7,-10,-17,-24,0,-9
0,-1,0,0,0,-1,-7,-10,-16,-24,1,-8
2,1,-1,-2,1,0,-6,-9,-16,-23,2,-7
3,1,-1,-2,2,0,-6,-9,-16,-23,3,-6
1,-1,-2,0,2,-1,-7,-9,-17,-24,3,-7
0,-3,-3,1,2,-2,-7,-9,-18,-25,3,-7
1,-3,-3,1,2,-3,-7,-9,-18,-25,3,-7
1,-3,-4,1,3,-3,-7,-9,-17,-25,3,-7
0,-4,-4,2,2,-4,-7,-10,-18,-25,3,-7
0,-5,-4,3,2,-4,-7,-10,-18,-25,3,-7
-1,-5,-5,3,2,-4,-7,-10,-18,-25,3,-7
-1,-5,-4,2,1,-4,-6,-10,-18,-25,3,-6
0,-4,-4,1,2,-3,-5,-9,-17,-24,4,-6
1,-4,-6,0,3,-4,-5,-9,-17,-24,5,-6
2,-5,-7,1,5,-6,-5,-10,-18,-25,5,-7
3,-5,-8,1,6,-7,-5,-10,-18,-25,5,-7
4,-4,-9,0,7,-7,-5,-9,-19,-25,5,-7
4,-4,-9,0,7,-6,-5,-9,-19,-25,6,-7
3,-5,-8,1,5,-6,-5,-9,-19,-25,7,-7
2,-3,-6,1,4,-4,-5,-8,-19,-24,8,-6
3,-1,-5,0,4,-3,-4,-8,-18,-23,9,-5
3,-1,-5,-1,4,-3,-4,-7,-17,-22,10,-4
3,-3,-5,0,4,-4,-4,-7,-17,-22,11,-4
3,-3,-6,0,5,-5,-4,-6,-16,-22,11,-4
3,-3,-6,0,5,-5,-4,-6,-16,-22,11,-4
2,-4,-6,1,4,-5,-4,-6,-16,-23,11,-5
0,-5,-5,2,2,-5,-4,-7,-17,-24,11,-6
-1,-5,-5,3,2,-5,-4,-7,-18,-25,11,-6
0,-4,-6,2,3,-5,-4,-7,-18,-26,11,-7
3,-3,-6,0,4,-5,-4,-7,-18,-27,11,-7
2,-4,-6,1,4,-5,-4,-7,-18,-27,11,-7
1,-5,-5,2,3,-5,-4,-7,-18,-27,11,-8
1,-5,-4,2,2,-4,-4,-7,-18,-27,11,-8
0,-4,-4,1,2,-3,-3,-7,-17,-26,11,-7
1,-3,-4,1,2,-3,-3,-6,-16,-25,12,-7
1,-3,-6,1,3,-4,-3,-6,-17,-25,11,-7
1,-4,-6,1,3,-5,-3,-6,-17,-25,11,-7
1,-4,-6,1,3,-5,-3,-6,-17,-25,11,-7
2,-3,-5,1,3,-4,-2,-6,-17,-25,11,-7
1,-2,-3,0,2,-2,-1,-5,-16,-23,13,-6
1,-1,-1,0,1,-1,0,-5,-15,-22,14,-5
0,-2,-2,1,1,-2,0,-5,-15,-22,14,-6
-1,-4,-3,2,1,-3,0,-6,-15,-21,13,-6
-1,-4,-3,3,1,-4,0,-7,-15,-21,13,-6
-1,-4,-3,3,0,-4,1,-6,-15,-20,13,-6
-1,-3,-3,2,0,-3,1,-6,-14,-19,13,-6
0,-3,-2,1,1,-3,2,-5,-14,-19,13,-5
0,-2,-2,1,1,-3,2,-5,-14,-19,13,-5
1,-1,-2,0,1,-2,2,-6,-14,-19,13,-5
1,-1,-1,0,1,-2,2,-6,-13,-19,13,-5
1,0,-2,0,1,-2,3,-5,-13,-19,13,-5
1,-1,-2,0,1,-2,3,-5,-14,-19,14,-5
1,-2,-3,0,2,-2,3,-6,-15,-20,14,-5
3,-2,-5,0,4,-3,3,-8,-16,-20,15,-5
4,-3,-7,0,6,-5,2,-11,-19,-21,15,-5
4,-4,-9,0,6,-7,1,-15,-22,-23,15,-5
5,-5,-10,0,7,-8,0,-18,-26,-26,15,-4
5,-6,-11,1,7,-9,-1,-22,-30,-30,15,-4
5,-7,-12,1,8,-10,-3,-26,-34,-33,15,-3
7,-6,-14,0,11,-10,-6,-29,-38,-35,17,0
13,-3,-18,-5,16,-10,-10,-31,-42,-36,23,7
23,1,-23,-12,23,-11,-15,-31,-44,-34,32,18
33,4,-29,-18,31,-12,-22,-30,-48,-33,43,31
41,7,-34,-24,38,-13,-29,-30,-52,-33,54,44
51,11,-39,-31,45,-14,-35,-31,-57,-33,64,58
61,16,-44,-39,52,-14,-42,-32,-61,-34,74,72
69,23,-45,-46,57,-11,-47,-31,-64,-34,84,85
71,31,-40,-50,55,-4,-51,-28,-65,-33,93,98
68,38,-29,-53,49,4,-51,-23,-62,-31,98,105
59,46,-14,-52,36,16,-47,-15,-53,-28,97,104
45,54,8,-49,18,31,-40,-4,-41,-22,93,96
28,62,33,-45,-2,48,-31,6,-25,-14,85,83
12,71,59,-42,-24,66,-21,18,-7,-3,76,68
-2,81,84,-39,-43,83,-11,31,14,11,68,55
-13,86,100,-36,-57,93,-1,43,36,26,61,41
-22,81,104,-30,-63,92,7,57,59,43,53,25
-27,72,99,-22,-63,85,15,73,83,59,45,7
-30,65,95,-17,-63,80,23,87,106,74,39,-6
-33,61,94,-14,-63,78,29,99,126,86,35,-16
-36,55,92,-9,-64,74,34,108,141,96,32,-23
-39,48,88,-5,-64,69,37,116,154,103,28,-30
-40,42,83,-1,-62,63,41,125,167,109,23,-37
-41,36,78,2,-60,57,44,132,177,112,19,-42
-41,32,73,4,-57,52,48,137,184,111,14,-47
-41,28,69,6,-55,48,52,140,189,110,11,-50
-41,24,64,8,-53,43,55,142,194,109,10,-51
-40,19,58,10,-49,38,57,144,199,109,10,-51
-39,13,52,12,-46,32,59,144,201,108,11,-50
-37,8,46,14,-41,27,60,140,200,106,13,-49
-34,6,41,14,-38,24,61,134,195,103,15,-47
-32,5,38,13,-35,22,61,126,188,99,16,-43
-30,4,36,12,-33,20,61,113,178,93,17,-41
-29,3,33,13,-31,18,60,92,166,87,18,-38
-28,3,32,12,-30,17,58,67,152,80,19,-35
-27,4,31,12,-30,17,57,40,138,72,19,-33
-26,4,29,11,-28,17,56,14,124,63,17,-32
-23,4,28,9,-26,16,54,-7,111,53,15,-31
-22,4,27,8,-24,16,53,-21,100,45,14,-30
-22,2,26,9,-24,14,51,-31,90,38,13,-30
-22,0,23,11,-23,11,49,-38,80,32,12,-31
-21,-1,20,11,-21,9,47,-44,72,27,12,-31
-18,-1,17,9,-18,8,46,-47,65,23,12,-30
-17,0,16,8,-17,7,45,-50,56,18,12,-29
-16,0,14,7,-15,6,43,-52,47,13,12,-29
-15,-3,12,8,-14,5,40,-53,38,8,11,-29
-15,-4,10,9,-13,3,38,-52,30,4,11,-29
-13,-5,9,8,-11,2,36,-50,23,2,12,-28
-12,-5,8,8,-11,2,34,-48,18,2,14,-25
-12,-5,7,8,-10,1,32,-45,15,3,16,-23
-9,-4,5,7,-7,0,29,-43,10,2,17,-21
-6,-3,3,4,-5,0,25,-42,4,0,18,-19
-4,-1,2,2,-3,0,22,-40,0,-2,19,-18
-3,-1,2,2,-3,0,19,-39,-3,-3,20,-16
-2,-2,1,2,-2,0,16,-38,-7,-5,20,-16
-2,-3,0,2,-1,-1,13,-35,-11,-7,21,-16
-1,-5,-2,3,0,-3,10,-33,-15,-9,22,-15
-1,-6,-4,4,0,-5,7,-30,-18,-11,22,-15
-2,-7,-4,5,0,-6,6,-25,-20,-12,23,-14
-1,-8,-5,5,1,-7,4,-22,-20,-12,23,-13
0,-10,-8,5,3,-10,1,-20,-21,-12,22,-13
0,-12,-11,6,5,-11,0,-19,-21,-12,21,-13
0,-13,-12,7,5,-12,-1,-18,-22,-12,20,-13
0,-14,-13,7,6,-12,-1,-18,-22,-12,19,-13
0,-14,-13,7,6,-13,-2,-17,-23,-13,19,-13
1,-13,-13,6,6,-12,-1,-17,-22,-12,18,-13
1,-12,-13,5,6,-12,-1,-16,-22,-11,17,-13
2,-12,-14,5,7,-13,-1,-16,-23,-11,16,-13
2,-12,-15,5,7,-13,-2,-16,-23,-11,15,-14
2,-12,-15,5,8,-14,-2,-16,-23,-11,15,-14
1,-13,-15,6,8,-14,-2,-16,-23,-11,14,-14
0,-14,-15,7,7,-14,-2,-17,-23,-11,14,-14
0,-15,-15,7,7,-14,-2,-17,-24,-12,13,-14
0,-16,-16,7,8,-15,-3,-18,-24,-13,11,-15
1,-15,-16,6,8,-15,-2,-18,-25,-13,10,-15
2,-14,-15,6,8,-15,-2,-17,-25,-12,9,-15
1,-14,-15,6,7,-15,-1,-17,-25,-12,8,-15
1,-14,-15,7,8,-15,-1,-17,-26,-13,7,-15
2,-14,-16,6,9,-15,-1,-17,-26,-14,8,-15
2,-14,-16,6,9,-15,-1,-16,-26,-14,9,-15
1,-15,-16,6,8,-15,-1,-15,-25,-15,11,-14
1,-16,-16,7,8,-16,-1,-14,-25,-15,12,-14
0,-17,-16,8,7,-16,-2,-13,-25,-15,13,-14
-1,-18,-16,9,6,-17,-2,-13,-25,-15,13,-15
-1,-18,-16,9,7,-17,-2,-13,-25,-15,13,-15
0,-17,-17,8,8,-16,-1,-12,-24,-14,13,-15
1,-16,-17,7,8,-16,0,-11,-23,-13,13,-14
0,-16,-16,8,8,-16,0,-10,-23,-11,12,-14
1,-14,-16,7,8,-15,0,-9,-22,-10,10,-14
2,-13,-16,5,9,-14,1,-9,-22,-8,8,-14
3,-14,-16,5,9,-15,1,-8,-21,-7,6,-14
2,-14,-16,6,9,-15,1,-8,-21,-7,4,-14
0,-15,-15,7,7,-15,2,-8,-21,-7,3,-14
-1,-16,-15,8,6,-16,1,-9,-21,-7,2,-14
-1,-16,-15,8,6,-15,1,-9,-21,-7,2,-15
0,-14,-14,7,7,-14,1,-8,-20,-6,4,-14
0,-13,-14,6,7,-14,2,-7,-19,-5,6,-13
0,-14,-14,7,7,-14,1,-8,-20,-5,7,-13
-2,-16,-14,8,6,-15,1,-8,-20,-5,8,-13
-4,-16,-12,10,4,-14,1,-8,-20,-5,10,-13
-4,-16,-11,10,4,-14,1,-8,-19,-4,11,-13
-2,-15,-12,9,4,-14,2,-8,-19,-4,11,-13
-1,-14,-13,8,5,-13,2,-7,-18,-4,12,-13
0,-13,-13,7,6,-13,3,-7,-18,-3,12,-13
1,-13,-14,6,7,-13,2,-7,-18,-3,12,-14
1,-13,-14,6,7,-14,2,-8,-18,-3,11,-14
1,-12,-14,5,7,-13,1,-8,-18,-3,11,-13
1,-11,-13,4,7,-12,1,-9,-18,-3,11,-13
1,-11,-13,4,7,-12,1,-8,-18,-3,11,-12
1,-11,-13,4,7,-12,1,-8,-17,-3,11,-11
0,-12,-13,5,7,-12,0,-7,-17,-3,11,-12
0,-13,-13,6,6,-13,-2,-8,-18,-4,9,-13
0,-13,-13,6,6,-13,-3,-7,-19,-4,9,-13
2,-12,-14,4,8,-13,-4,-6,-19,-3,10,-12
3,-12,-16,4,9,-14,-5,-6,-19,-3,10,-12
3,-14,-16,5,10,-15,-6,-6,-20,-4,10,-13
3,-14,-16,5,10,-16,-7,-6,-20,-4,10,-12
4,-13,-17,4,10,-16,-7,-5,-21,-5,11,-12
4,-14,-19,4,11,-17,-7,-5,-22,-6,11,-13
4,-16,-20,5,11,-18,-8,-5,-22,-7,12,-13
3,-17,-20,7,10,-18,-9,-5,-22,-7,13,-13
3,-16,-20,6,11,-18,-10,-4,-22,-7,14,-13
5,-15,-21,5,12,-18,-11,-4,-22,-7,15,-12
5,-16,-21,5,12,-18,-12,-4,-22,-7,16,-12
3,-16,-19,6,11,-18,-12,-4,-22,-7,16,-12
3,-15,-18,6,10,-17,-12,-3,-22,-7,17,-11
3,-14,-18,5,11,-16,-12,-3,-21,-6,18,-10
3,-15,-19,6,11,-16,-13,-3,-22,-7,17,-10
3,-16,-19,6,11,-17,-15,-3,-22,-7,17,-11
4,-16,-20,6,11,-17,-15,-3,-23,-8,16,-10
5,-15,-20,5,12,-17,-16,-3,-23,-8,16,-10
6,-14,-20,4,12,-16,-16,-2,-23,-8,16,-9
8,-12,-20,2,13,-16,-16,-2,-23,-8,16,-9
8,-11,-19,2,13,-15,-16,-1,-23,-8,16,-8
7,-12,-19,3,12,-16,-17,-1,-24,-9,16,-7
5,-14,-19,4,12,-16,-18,-2,-24,-9,16,-7
4,-15,-19,5,11,-17,-19,-2,-25,-10,16,-7
5,-15,-19,4,12,-17,-20,-2,-26,-11,17,-6
7,-13,-19,3,13,-16,-21,-2,-26,-11,18,-5
8,-12,-20,2,13,-16,-21,-2,-27,-11,19,-4
9,-11,-20,1,14,-16,-21,-3,-27,-11,20,-3
9,-11,-20,0,14,-15,-21,-3,-28,-11,21,-2
9,-10,-20,0,14,-15,-21,-4,-28,-11,21,-1
9,-10,-19,0,14,-14,-21,-4,-29,-12,20,0
8,-10,-19,1,13,-14,-22,-5,-30,-13,20,0
8,-10,-18,1,13,-14,-22,-5,-31,-13,20,0
9,-8,-17,0,13,-13,-22,-4,-30,-13,20,0
10,-5,-15,-2,12,-10,-21,-2,-29,-13,20,2
9,-5,-13,-2,10,-9,-20,-1,-28,-12,20,2
7,-5,-12,-1,9,-8,-20,-1,-28,-12,19,2
7,-5,-12,-1,9,-8,-19,0,-27,-12,18,2
8,-5,-13,-2,10,-8,-19,0,-27,-12,18,2
9,-4,-12,-2,10,-8,-18,1,-26,-11,17,2
7,-4,-11,-2,9,-7,-17,2,-25,-11,17,2
5,-5,-9,-1,7,-7,-16,4,-24,-10,17,3
6,-4,-9,-1,7,-6,-15,4,-23,-10,17,3
7,-3,-10,-2,8,-6,-14,5,-23,-10,17,3
6,-3,-9,-1,7,-6,-13,6,-22,-9,17,3
4,-3,-7,0,5,-5,-13,7,-21,-8,17,3
4,-3,-6,0,5,-4,-12,7,-20,-8,16,3
4,-2,-6,-1,5,-4,-12,7,-20,-8,15,3
4,-2,-6,-1,5,-4,-11,7,-19,-8,14,2
3,-2,-5,0,4,-3,-10,7,-19,-8,13,2
3,-3,-5,0,4,-3,-9,7,-18,-8,12,1
3,-3,-6,0,4,-4,-8,6,-18,-8,10,0
1,-4,-6,1,3,-4,-7,6,-18,-8,9,0
0,-5,-5,2,2,-4,-5,6,-18,-8,8,-1
-1,-5,-4,2,1,-4,-4,5,-18,-8,7,-1
0,-4,-4,1,2,-4,-2,5,-18,-8,6,-1
2,-2,-4,-1,3,-3,-1,5,-18,-7,6,0
4,0,-3,-2,3,-2,0,5,-17,-6,6,0
3,0,-2,-2,2,-1,0,5,-17,-6,5,0
0,-1,-2,0,0,-1,0,3,-18,-7,3,-1
-1,-2,-2,2,0,-2,0,2,-19,-8,1,-1
-1,-2,-2,2,0,-2,0,1,-19,-8,-1,-2
-1,-2,-2,2,0,-2,1,0,-20,-8,-3,-2
-2,-4,-2,2,0,-3,2,0,-21,-8,-5,-3
-1,-4,-2,2,0,-3,2,-1,-21,-8,-7,-3
0,-3,-2,1,0,-2,3,-2,-21,-8,-9,-3
0,-2,-1,0,1,-2,4,-2,-21,-7,-10,-3
0,-2,-1,1,0,-2,5,-3,-22,-7,-12,-4
-1,-3,-2,1,0,-2,5,-4,-24,-8,-14,-5
-1,-3,-3,2,0,-3,5,-5,-25,-8,-15,-5
-1,-3,-2,2,0,-2,6,-5,-25,-8,-16,-4
-2,-2,-1,2,-1,-2,6,-5,-26,-8,-17,-4
-2,-3,-1,2,0,-2,6,-6,-26,-8,-18,-5
-3,-4,-1,3,-1,-3,5,-6,-27,-9,-20,-6
-3,-5,-1,4,-1,-3,5,-6,-28,-9,-22,-7
-4,-5,-1,4,-1,-4,5,-7,-29,-9,-24,-7
-4,-5,-2,4,-1,-4,5,-8,-31,-9,-26,-8
-2,-5,-2,3,0,-4,6,-9,-32,-9,-28,-8
-1,-4,-3,3,0,-4,6,-9,-32,-9,-30,-9
-1,-4,-2,3,0,-3,7,-9,-33,-9,-32,-10
-2,-5,-1,4,-1,-3,8,-10,-33,-9,-35,-11
-4,-6,-1,5,-1,-3,8,-10,-34,-10,-39,-11
-4,-6,-1,5,-1,-3,9,-10,-35,-9,-41,-12
-4,-6,-1,4,-1,-3,10,-10,-36,-9,-44,-12
-4,-6,-2,4,-1,-4,11,-11,-37,-10,-47,-13
-4,-6,-2,4,-1,-4,11,-12,-38,-10,-51,-14
-4,-7,-3,5,0,-5,11,-12,-39,-11,-55,-15
-5,-8,-3,7,-1,-6,11,-13,-40,-11,-58,-15
-5,-8,-2,7,-2,-5,12,-12,-40,-11,-61,-15
-4,-6,-2,5,-1,-4,13,-12,-39,-10,-63,-14
-3,-5,-2,4,0,-3,13,-12,-39,-11,-65,-13
-5,-7,-1,6,-1,-4,13,-12,-40,-11,-67,-14
-8,-9,-1,8,-3,-5,12,-13,-41,-12,-70,-14
-8,-9,-1,8,-4,-5,13,-14,-41,-13,-72,-14
-5,-6,0,5,-2,-3,14,-12,-40,-12,-73,-13
-2,-2,0,2,-1,-1,15,-11,-40,-12,-73,-13
-1,-2,0,2,-1,-1,15,-12,-40,-12,-73,-13
-3,-3,0,3,-2,-1,16,-12,-40,-13,-74,-14
-4,-4,1,3,-2,0,16,-12,-40,-13,-75,-14
-4,-4,1,3,-2,0,17,-12,-40,-13,-76,-14
-4,-3,1,3,-2,0,17,-12,-40,-13,-77,-14
-4,-3,1,3,-2,-1,18,-12,-41,-13,-78,-14
-5,-3,1,4,-3,-1,19,-13,-41,-13,-79,-14
-6,-3,2,4,-4,0,20,-13,-42,-14,-80,-13
-6,-3,2,4,-4,0,20,-14,-43,-15,-81,-13
-4,-3,1,4,-3,-1,20,-15,-44,-16,-82,-13
-2,-2,0,2,-1,0,20,-15,-45,-16,-82,-13
-1,-1,0,1,0,0,21,-15,-44,-16,-82,-12
0,-1,0,1,0,0,21,-15,-44,-15,-81,-12
0,0,0,0,0,0,20,-15,-45,-15,-81,-13
1,1,0,-1,0,1,21,-14,-45,-15,-80,-13
1,1,1,-1,0,1,21,-14,-45,-15,-80,-12
0,0,1,0,-1,1,20,-14,-46,-15,-80,-13
0,0,0,0,0,0,19,-14,-47,-16,-81,-13
0,0,0,0,0,1,19,-14,-47,-16,-81,-12
0,0,1,0,0,1,19,-13,-48,-17,-81,-12
0,-1,0,0,0,0,18,-13,-48,-17,-81,-12
0,0,0,0,0,0,18,-13,-49,-17,-81,-12
1,1,0,-1,1,0,20,-12,-49,-17,-81,-11
1,1,0,-2,0,0,21,-11,-49,-17,-81,-11
1,1,0,-2,0,0,22,-12,-50,-17,-82,-11
1,1,0,-1,0,0,22,-12,-51,-18,-83,-12
1,0,0,0,0,0,22,-12,-52,-18,-84,-13
0,0,0,0,0,0,22,-12,-52,-19,-85,-13
0,-1,0,0,0,0,22,-12,-53,-20,-85,-14
0,-1,0,0,0,-1,22,-12,-53,-20,-86,-14
0,-1,0,0,0,-1,22,-12,-54,-21,-87,-14
-1,-1,0,1,0,0,23,-11,-54,-21,-87,-14
-2,-2,0,1,-1,-1,23,-11,-54,-21,-87,-13
-1,-4,-1,2,0,-2,24,-11,-55,-22,-88,-13
0,-4,-2,2,1,-3,24,-11,-55,-21,-88,-13
-1,-3,-1,2,0,-2,25,-11,-55,-21,-87,-12
-2,-3,-1,2,0,-2,25,-11,-55,-21,-86,-12
-1,-4,-2,2,1,-3,25,-11,-55,-21,-86,-11
0,-4,-3,2,2,-4,26,-11,-55,-21,-86,-11
0,-4,-3,2,2,-3,26,-11,-55,-22,-86,-11
0,-3,-3,1,1,-3,27,-11,-55,-22,-86,-11
0,-3,-2,1,1,-3,28,-10,-56,-22,-86,-11
0,-3,-2,1,1,-3,28,-10,-56,-22,-86,-11
0,-4,-2,2,1,-4,27,-10,-56,-22,-87,-11
-1,-5,-3,3,1,-5,27,-10,-56,-22,-88,-12
-2,-6,-4,4,1,-5,26,-10,-56,-22,-88,-12
-2,-6,-4,4,1,-5,26,-9,-55,-22,-87,-12
-2,-6,-4,4,1,-5,27,-8,-54,-21,-87,-12
-1,-7,-5,4,1,-6,27,-8,-54,-20,-86,-12
0,-7,-6,4,2,-6,27,-7,-54,-18,-84,-11
0,-7,-6,4,2,-6,28,-7,-53,-17,-83,-10
-2,-9,-7,5,2,-8,27,-7,-53,-18,-83,-11
-1,-10,-8,5,3,-9,27,-7,-53,-19,-83,-12
2,-8,-10,2,6,-8,27,-6,-52,-19,-82,-12
3,-7,-10,1,6,-8,28,-6,-52,-19,-80,-12
-1,-9,-8,5,3,-8,28,-6,-52,-18,-79,-12
-5,-10,-6,7,0,-8,27,-6,-52,-18,-78,-12
-5,-10,-6,7,0,-9,27,-6,-52,-18,-78,-11
-3,-10,-7,6,1,-9,26,-6,-52,-18,-77,-11
-2,-10,-7,6,2,-9,25,-6,-51,-18,-77,-11
-1,-9,-8,5,3,-9,25,-6,-51,-17,-77,-11
0,-9,-8,4,4,-8,25,-5,-50,-16,-76,-10
0,-9,-8,4,4,-8,25,-5,-50,-16,-75,-10
-2,-9,-7,5,2,-8,25,-4,-49,-16,-74,-10
-3,-9,-7,6,1,-8,25,-4,-49,-16,-74,-10
-3,-10,-8,6,2,-9,25,-4,-49,-16,-74,-10
-3,-11,-9,6,2,-10,24,-5,-49,-16,-74,-10
-4,-12,-9,8,2,-10,24,-5,-50,-16,-74,-11
-4,-12,-8,8,1,-10,23,-4,-50,-15,-74,-11
-4,-12,-8,8,1,-9,23,-4,-50,-14,-72,-10
-2,-11,-9,7,2,-9,22,-4,-50,-14,-72,-10
-1,-11,-10,6,4,-10,21,-4,-50,-14,-71,-10
0,-10,-11,5,5,-10,20,-4,-50,-14,-71,-10
0,-10,-11,5,5,-10,20,-4,-51,-13,-70,-10
0,-10,-10,4,5,-10,19,-3,-51,-12,-69,-10
0,-9,-9,4,5,-9,18,-3,-50,-11,-68,-9
0,-9,-9,4,4,-8,17,-3,-50,-11,-68,-8
0,-10,-9,5,4,-9,16,-4,-51,-11,-68,-9
0,-10,-9,5,5,-10,15,-4,-52,-11,-68,-9
0,-10,-10,5,4,-10,15,-4,-52,-11,-69,-9
-2,-12,-10,7,3,-11,15,-4,-52,-12,-70,-10
-3,-13,-11,8,4,-12,14,-4,-52,-11,-70,-10
-1,-13,-13,6,5,-13,14,-4,-53,-10,-69,-9
1,-12,-14,4,7,-13,13,-5,-54,-10,-68,-8
2,-12,-15,4,8,-14,12,-7,-57,-11,-69,-8
2,-15,-17,6,9,-16,10,-10,-60,-13,-70,-9
2,-17,-18,8,10,-18,10,-13,-63,-14,-70,-9
3,-17,-20,7,11,-19,9,-16,-66,-15,-69,-8
3,-17,-20,7,12,-19,8,-19,-69,-17,-69,-6
5,-17,-22,6,13,-19,5,-22,-73,-20,-68,-4
10,-16,-25,3,17,-20,2,-24,-77,-22,-66,0
17,-15,-31,-1,24,-22,-1,-24,-79,-21,-60,9
25,-13,-38,-6,32,-25,-6,-23,-81,-20,-51,21
35,-10,-44,-12,40,-27,-12,-23,-85,-20,-42,34
45,-6,-50,-19,48,-28,-18,-24,-90,-20,-33,48
54,0,-54,-27,54,-27,-23,-24,-93,-20,-23,62
61,7,-55,-34,58,-24,-28,-23,-95,-20,-14,75
66,14,-53,-39,59,-19,-33,-21,-97,-20,-7,87
68,22,-46,-45,56,-12,-35,-17,-95,-19,-1,96
63,31,-32,-47,47,0,-32,-10,-88,-14,1,98
49,38,-11,-44,30,14,-25,-1,-77,-8,0,92
32,46,14,-39,9,30,-16,7,-64,-1,-5,82
15,56,41,-36,-13,49,-6,17,-48,10,-11,70
0,67,68,-34,-34,67,4,28,-28,24,-18,56
-12,74,87,-31,-50,81,13,39,-8,40,-24,42
-22,74,96,-26,-59,85,22,50,12,56,-30,27
-29,68,97,-20,-63,82,30,64,33,73,-37,10
-34,63,96,-14,-66,80,38,76,53,88,-43,-3
-38,59,97,-10,-68,79,44,86,70,101,-47,-13
-40,57,97,-8,-69,77,47,93,81,109,-51,-20
-41,53,95,-6,-68,74,49,101,92,116,-55,-24
-42,48,91,-3,-67,70,51,110,103,122,-58,-28
-44,42,86,0,-66,64,53,117,111,126,-62,-33
-46,36,81,4,-65,59,54,122,118,126,-67,-38
-45,33,77,6,-63,55,56,127,123,124,-70,-42
-42,32,73,5,-59,52,58,131,128,123,-72,-43
-40,29,69,5,-55,48,59,133,132,124,-71,-43
-40,24,64,8,-52,44,59,136,136,125,-69,-41
-40,19,60,10,-50,39,60,137,139,124,-67,-38
-40,16,56,11,-48,36,60,134,137,122,-64,-35
-39,13,52,12,-46,33,59,126,131,118,-62,-32
-36,12,47,11,-42,29,58,117,123,113,-61,-30
-33,11,43,11,-39,26,58,103,116,109,-59,-28
-32,10,41,11,-37,25,57,85,108,105,-58,-26
-32,8,40,12,-36,24,56,64,98,100,-57,-24
-31,7,38,12,-34,22,55,42,88,93,-59,-24
-31,5,37,13,-33,21,53,20,78,85,-62,-25
-31,4,36,13,-33,20,52,2,69,79,-64,-25
-30,4,35,12,-32,19,51,-12,61,74,-66,-24
-28,5,33,11,-31,19,49,-22,53,70,-66,-23
-26,4,31,10,-29,17,47,-30,46,67,-67,-23
-25,3,28,11,-27,15,44,-36,38,63,-68,-23
-25,1,26,12,-26,13,41,-42,30,58,-68,-23
-25,0,25,12,-25,12,39,-46,21,53,-69,-23
-24,1,24,11,-24,12,37,-48,12,47,-69,-23
-22,2,24,9,-23,13,36,-48,5,43,-70,-22
-22,1,24,9,-22,12,34,-47,-1,41,-71,-21
-21,1,22,9,-21,11,31,-46,-8,38,-72,-20
-19,0,19,9,-19,10,27,-44,-14,37,-73,-19
-17,0,17,8,-17,9,23,-42,-18,37,-73,-17
-15,0,14,8,-15,7,19,-40,-23,35,-73,-15
-13,-1,11,7,-12,5,16,-39,-29,31,-74,-15
-12,-1,10,7,-11,4,14,-38,-35,27,-73,-14
-11,-1,9,6,-10,4,12,-36,-40,25,-72,-13
-11,-1,9,5,-10,4,10,-34,-44,22,-70,-12
-10,-2,8,5,-9,3,7,-32,-47,19,-69,-11
-8,-2,6,5,-7,1,4,-29,-51,17,-67,-11
-6,-3,2,4,-4,0,1,-27,-56,13,-67,-11
-4,-5,-1,5,-2,-3,-2,-26,-60,10,-66,-12
-4,-7,-3,6,-1,-5,-6,-23,-63,8,-65,-12
-4,-9,-5,7,0,-7,-8,-21,-64,7,-63,-11
-3,-9,-6,6,0,-8,-10,-18,-64,7,-61,-9
-2,-10,-7,5,2,-9,-11,-16,-64,7,-59,-8
-2,-11,-9,6,3,-10,-11,-15,-64,6,-58,-8
-2,-12,-10,7,3,-11,-12,-15,-65,6,-58,-9
-2,-13,-11,7,4,-12,-14,-15,-65,5,-58,-10
-1,-13,-11,8,5,-13,-14,-15,-66,3,-59,-12
-1,-13,-11,8,5,-12,-14,-15,-67,1,-60,-13
0,-12,-11,7,5,-12,-13,-15,-68,0,-61,-13
0,-12,-12,7,5,-13,-12,-15,-69,0,-62,-13
0,-13,-14,7,7,-14,-12,-16,-70,-1,-64,-13
0,-13,-13,6,7,-14,-12,-15,-70,-2,-64,-13
-1,-13,-12,6,5,-13,-11,-15,-70,-1,-64,-13
-1,-13,-11,7,5,-13,-10,-15,-70,-1,-64,-13
-2,-14,-12,8,5,-14,-10,-15,-71,-2,-64,-13
-2,-15,-13,9,5,-14,-11,-15,-72,-2,-64,-13
0,-15,-14,8,6,-14,-11,-15,-72,-2,-62,-12
1,-13,-14,6,7,-14,-11,-15,-72,-3,-61,-12
1,-12,-13,5,7,-13,-12,-14,-72,-3,-60,-12
-1,-13,-12,6,5,-13,-13,-14,-72,-4,-58,-11
-2,-14,-11,8,4,-13,-14,-14,-72,-4,-58,-11
-2,-14,-11,8,4,-13,-15,-14,-73,-4,-57,-11
0,-12,-11,6,5,-12,-15,-13,-73,-4,-56,-10
1,-11,-12,5,6,-11,-15,-13,-73,-4,-56,-10
1,-11,-12,5,6,-11,-15,-14,-73,-5,-56,-11
1,-11,-12,5,6,-11,-15,-14,-73,-5,-55,-11
