leadI,leadII,leadIII,leadaVR,leadaVL,leadaVF,leadV1,leadV2,leadV3,leadV4,leadV5,leadV6
0,0,0,0,0,0,1,0,0,-1,-1,-1
-1,-1,1,1,-1,0,4,0,0,-2,-3,-4
-2,-2,1,2,-2,-1,5,0,0,-4,-4,-6
-4,-3,1,3,-3,-1,6,-1,-1,-5,-5,-8
-4,-3,1,4,-3,-1,6,-1,-2,-6,-6,-9
-4,-3,1,4,-3,-1,7,-1,-2,-6,-6,-9
-5,-3,1,4,-3,-1,7,0,-2,-6,-6,-10
-5,-3,1,5,-4,-1,8,0,-2,-7,-7,-10
-5,-4,1,5,-3,-1,8,0,-2,-7,-7,-10
-5,-4,1,5,-3,-2,8,0,-2,-7,-7,-10
-4,-4,1,4,-3,-2,8,0,-1,-6,-7,-10
-4,-3,1,4,-3,-1,9,0,-1,-6,-6,-9
-4,-3,1,4,-3,-1,10,1,0,-5,-6,-9
-4,-3,1,4,-3,-1,11,1,0,-5,-6,-9
-4,-3,1,4,-2,-1,12,1,0,-5,-6,-9
-3,-3,1,3,-2,-1,12,2,0,-5,-6,-9
-4,-3,2,3,-3,0,13,2,0,-4,-6,-9
-5,-3,2,4,-4,0,13,3,0,-4,-5,-9
-5,-3,3,4,-4,0,13,3,0,-3,-5,-9
-5,-2,3,4,-4,0,14,4,1,-3,-5,-8
-5,-2,3,4,-4,0,14,4,1,-2,-5,-8
-5,-2,3,4,-5,1,13,3,1,-2,-5,-8
-5,-2,3,4,-5,1,12,3,1,-2,-5,-8
-4,-2,3,3,-4,1,11,3,1,-2,-5,-8
-4,-1,3,3,-4,1,10,2,1,-2,-5,-8
-4,-1,3,3,-4,0,8,1,1,-2,-5,-8
-4,-2,2,3,-3,0,6,1,0,-2,-5,-8
-4,-2,2,3,-3,0,6,0,0,-2,-5,-8
-5,-2,2,3,-4,0,6,0,0,-2,-5,-8
-6,-2,3,4,-5,1,6,0,1,-1,-5,-8
-6,-2,4,4,-5,1,6,1,2,-1,-4,-7
-5,-1,4,3,-5,1,6,1,3,0,-4,-7
-5,0,5,2,-5,2,6,1,3,0,-3,-6
-4,1,6,1,-5,3,5,0,4,0,-3,-6
-3,2,6,1,-5,3,5,0,4,0,-3,-6
-4,2,6,1,-5,4,4,0,4,0,-3,-6
-4,2,6,1,-5,4,4,0,4,0,-3,-5
-4,2,6,1,-5,4,3,0,4,1,-2,-5
-4,2,6,1,-5,4,3,-1,3,1,-2,-5
-4,2,6,1,-5,4,2,-1,3,0,-2,-5
-4,2,6,0,-5,4,2,-2,3,0,-2,-5
-3,3,6,0,-5,4,2,-2,3,0,-2,-5
-1,3,5,-1,-4,4,2,-3,3,0,-2,-5
0,3,4,-1,-3,4,2,-3,3,0,-2,-5
0,3,4,-1,-3,3,2,-3,2,0,-2,-5
-1,2,3,0,-3,3,2,-3,2,0,-2,-5
-1,2,3,0,-2,2,3,-3,3,0,-1,-4
0,3,3,-1,-2,3,4,-2,4,1,0,-3
0,3,3,-2,-1,3,4,-2,4,2,0,-3
0,3,2,-1,-1,2,5,-1,5,2,0,-3
0,2,2,-1,-1,2,5,-1,5,2,0,-3
0,1,3,0,-2,2,6,-1,5,2,0,-3
-2,0,3,1,-3,1,7,-1,5,1,-1,-3
-3,-1,2,2,-3,0,7,-1,4,0,-2,-4
-5,-3,1,4,-4,-1,7,-2,3,0,-3,-6
-6,-5,0,5,-4,-2,7,-3,3,-1,-4,-7
-6,-6,0,5,-3,-2,7,-3,2,-2,-4,-8
-6,-7,0,6,-3,-3,7,-4,2,-2,-5,-8
-7,-8,-1,7,-4,-4,7,-4,1,-3,-6,-9
-8,-9,-1,8,-4,-5,7,-5,0,-3,-6,-9
-7,-8,-1,7,-3,-4,8,-5,0,-3,-6,-9
-6,-7,-1,7,-2,-4,8,-5,0,-3,-6,-9
-6,-8,-2,7,-2,-4,9,-6,0,-4,-6,-9
-6,-8,-2,7,-2,-5,9,-6,0,-4,-7,-10
-6,-9,-2,8,-2,-6,9,-6,0,-4,-7,-10
-6,-9,-3,7,-2,-6,8,-7,0,-4,-7,-10
-5,-8,-3,7,-2,-6,8,-7,0,-4,-7,-10
-6,-8,-2,7,-2,-6,8,-7,0,-5,-7,-10
-6,-9,-2,8,-2,-6,8,-8,0,-5,-8,-10
-6,-9,-3,8,-2,-6,8,-8,0,-6,-8,-10
-6,-9,-3,8,-1,-6,7,-9,0,-6,-8,-10
-6,-9,-4,8,-1,-7,7,-10,0,-7,-8,-11
-6,-10,-4,8,-1,-7,7,-10,2,-7,-9,-11
-6,-10,-4,8,-1,-7,7,-11,6,-7,-9,-11
-6,-10,-4,8,-1,-7,6,-11,8,-7,-9,-11
-6,-10,-4,8,-1,-7,6,-11,6,-7,-9,-11
-6,-9,-4,8,-1,-6,6,-11,6,-7,-9,-11
-6,-9,-4,8,-1,-6,6,-11,11,-7,-9,-11
-6,-9,-4,7,-1,-6,7,-12,17,-7,-9,-11
-5,-8,-3,7,-1,-6,7,-12,19,-6,-9,-11
-6,-8,-3,7,-1,-6,7,-12,18,-6,-9,-11
-6,-8,-2,7,-1,-6,7,-12,22,-6,-9,-11
-6,-8,-2,7,-1,-6,7,-13,30,-6,-9,-11
-6,-9,-2,7,-1,-6,7,-13,38,-6,-9,-11
-7,-9,-2,8,-2,-6,7,-13,41,-6,-9,-11
-7,-10,-2,8,-2,-6,7,-13,39,-7,-9,-11
-7,-10,-2,8,-2,-6,7,-13,32,-7,-9,-11
-6,-9,-2,7,-2,-6,7,-13,27,-6,-8,-10
-5,-7,-2,6,-1,-5,7,-12,25,-6,-8,-9
-5,-7,-2,5,-1,-5,7,-13,24,-6,-8,-9
-5,-8,-2,6,-1,-5,7,-13,23,-6,-8,-9
-5,-8,-2,6,-1,-5,7,-13,23,-5,-8,-9
-4,-7,-2,5,0,-5,7,-13,23,-5,-7,-9
-4,-7,-3,5,0,-5,7,-13,22,-5,-7,-9
-4,-8,-3,6,0,-5,7,-13,21,-6,-8,-9
-4,-8,-4,6,0,-6,8,-12,21,-6,-8,-10
-5,-9,-4,7,0,-7,9,-10,21,-6,-8,-10
-5,-10,-4,8,0,-8,12,-6,22,-6,-9,-11
-5,-10,-5,8,1,-8,15,0,23,-6,-9,-12
-5,-11,-6,8,1,-9,19,10,27,-5,-10,-13
-5,-11,-6,8,1,-9,25,23,33,-3,-10,-13
-4,-9,-5,6,1,-8,31,39,43,1,-8,-13
-1,-6,-5,3,2,-6,35,55,57,8,-4,-10
3,-2,-6,0,4,-4,36,69,71,17,2,-6
8,3,-5,-6,6,-1,34,80,86,29,12,0
15,12,-3,-14,9,3,29,91,108,45,25,10
22,21,-1,-22,11,9,25,101,135,63,41,21
30,30,0,-30,15,15,18,107,156,81,58,34
39,41,1,-39,19,21,6,108,168,100,77,48
47,52,3,-49,22,28,-10,102,176,120,97,63
55,64,7,-60,24,35,-27,91,182,139,117,79
62,76,12,-69,25,44,-43,73,184,156,135,94
69,88,18,-78,25,53,-61,53,184,172,153,109
75,101,26,-88,25,63,-79,31,183,188,171,124
80,114,34,-97,24,74,-98,4,178,203,187,138
84,127,42,-105,22,84,-120,-29,167,213,200,150
86,138,51,-111,19,94,-142,-68,154,220,210,161
86,147,61,-115,14,104,-163,-109,139,222,217,169
83,154,71,-118,7,112,-182,-151,122,218,218,174
79,157,79,-117,0,117,-199,-192,101,205,213,174
73,155,82,-113,-4,117,-213,-227,70,184,200,169
67,145,78,-106,-5,110,-220,-250,30,157,181,159
63,130,67,-97,-1,97,-223,-262,-11,120,156,143
60,111,50,-85,5,80,-220,-268,-49,72,123,122
56,89,32,-71,12,60,-213,-266,-78,20,84,97
48,65,17,-55,15,41,-199,-256,-93,-22,47,69
38,44,6,-40,16,25,-181,-239,-98,-51,16,44
29,27,-2,-27,15,12,-160,-217,-96,-66,-6,23
23,14,-8,-18,15,2,-138,-193,-92,-71,-20,8
18,3,-14,-11,16,-6,-118,-169,-86,-71,-28,-2
14,-4,-17,-5,16,-11,-99,-147,-78,-69,-32,-9
10,-9,-19,-1,15,-15,-81,-126,-69,-65,-34,-14
8,-12,-20,2,15,-17,-66,-107,-59,-60,-35,-17
7,-14,-21,4,15,-18,-52,-90,-48,-55,-34,-18
7,-15,-22,5,14,-18,-41,-75,-39,-50,-33,-19
6,-16,-22,5,14,-19,-33,-63,-31,-46,-31,-20
5,-16,-21,5,13,-19,-25,-53,-24,-42,-30,-21
4,-15,-20,5,12,-19,-19,-44,-18,-39,-28,-20
3,-15,-17,6,10,-17,-12,-37,-12,-35,-26,-20
0,-15,-14,7,8,-16,-7,-30,-6,-31,-24,-19
-2,-14,-12,8,5,-14,-2,-24,-1,-28,-22,-18
-4,-14,-10,9,3,-13,1,-18,3,-26,-21,-17
-5,-14,-9,10,1,-12,4,-13,6,-23,-20,-16
-6,-15,-8,11,0,-12,6,-10,9,-22,-19,-16
-7,-16,-8,12,0,-12,7,-7,11,-21,-19,-17
-7,-15,-8,12,0,-12,9,-5,12,-20,-18,-17
-5,-14,-8,10,1,-12,10,-3,14,-18,-17,-16
-5,-13,-8,9,1,-11,12,-1,16,-17,-17,-16
-6,-13,-7,9,1,-11,13,0,17,-17,-17,-16
-7,-13,-7,9,1,-11,14,1,17,-17,-17,-16
-6,-13,-7,9,1,-11,14,2,18,-16,-17,-16
-5,-12,-8,9,2,-11,14,3,18,-16,-17,-16
-5,-12,-8,8,2,-11,14,4,19,-15,-17,-16
-4,-13,-8,8,2,-11,14,5,19,-15,-16,-16
-5,-13,-8,9,2,-11,14,5,19,-15,-16,-16
-6,-14,-8,10,1,-11,15,6,19,-15,-17,-16
-8,-15,-7,11,0,-12,15,6,19,-16,-17,-16
-9,-16,-7,12,0,-12,16,6,19,-16,-18,-17
-9,-15,-6,12,-1,-11,16,7,20,-15,-17,-17
-8,-15,-6,12,-1,-11,17,7,20,-15,-17,-17
-7,-14,-6,10,0,-10,17,8,20,-14,-16,-16
-5,-13,-6,9,0,-10,18,9,20,-14,-16,-16
-5,-12,-6,8,0,-10,18,10,20,-14,-16,-16
-5,-12,-6,8,0,-10,18,10,20,-14,-16,-16
-5,-12,-7,8,1,-10,18,11,21,-14,-16,-16
-5,-12,-7,8,1,-10,18,11,21,-14,-16,-16
-6,-13,-8,9,1,-11,18,11,21,-14,-16,-17
-7,-15,-8,10,1,-11,18,11,21,-14,-16,-17
-8,-16,-9,12,0,-12,18,11,21,-14,-17,-18
-8,-17,-9,12,0,-13,18,12,21,-13,-17,-18
-7,-16,-8,11,0,-12,19,13,21,-13,-16,-17
-6,-14,-8,9,1,-11,20,14,21,-12,-16,-17
-5,-13,-8,8,1,-11,21,15,22,-12,-16,-17
-4,-12,-8,8,1,-10,21,16,22,-12,-16,-17
-4,-12,-8,8,1,-10,22,16,23,-11,-15,-17
-5,-12,-8,8,1,-10,22,17,24,-11,-15,-17
-5,-13,-8,9,2,-11,23,17,25,-11,-15,-17
-5,-14,-8,9,2,-11,23,18,25,-11,-15,-17
-6,-14,-7,9,1,-10,24,19,26,-11,-15,-17
-6,-13,-6,9,0,-10,24,20,27,-11,-15,-17
-6,-13,-6,9,0,-10,24,22,28,-11,-16,-17
-6,-13,-7,9,0,-10,25,23,28,-10,-16,-17
-5,-13,-8,9,1,-10,26,24,29,-10,-16,-17
-5,-13,-8,9,1,-10,27,26,30,-9,-15,-17
-5,-13,-8,9,1,-10,27,27,31,-9,-15,-17
-5,-14,-8,9,1,-10,28,29,32,-9,-15,-17
-5,-14,-8,9,1,-11,28,31,34,-9,-16,-17
-5,-14,-9,9,1,-11,28,32,35,-9,-16,-18
-5,-15,-9,10,1,-12,28,34,35,-9,-17,-18
-5,-15,-9,10,1,-12,29,36,36,-9,-17,-19
-5,-14,-9,10,1,-12,31,39,38,-9,-17,-19
-5,-14,-9,10,1,-12,32,42,39,-8,-16,-19
-6,-14,-9,10,1,-11,33,44,41,-8,-16,-19
-6,-14,-9,10,1,-11,34,47,42,-8,-17,-19
-6,-15,-9,10,1,-11,35,50,43,-8,-17,-19
-7,-15,-8,11,0,-11,36,53,43,-8,-17,-19
-8,-16,-8,11,0,-11,36,56,44,-7,-17,-19
-8,-16,-8,12,0,-11,37,59,45,-7,-17,-19
-8,-16,-8,12,0,-11,39,62,47,-6,-17,-19
-9,-17,-8,12,-1,-12,40,66,51,-6,-17,-19
-9,-17,-8,12,0,-12,41,69,56,-5,-18,-19
-7,-16,-9,11,1,-12,43,73,60,-4,-18,-19
-5,-14,-9,9,2,-11,44,76,64,-3,-17,-19
-4,-13,-9,9,3,-10,46,79,67,-2,-17,-19
-4,-13,-9,9,3,-10,47,82,70,-1,-17,-19
-4,-12,-9,8,3,-10,47,85,72,0,-17,-19
-5,-12,-9,9,2,-10,48,87,75,0,-17,-18
-6,-13,-8,9,1,-10,49,89,77,2,-16,-18
-7,-13,-8,9,1,-10,50,91,79,3,-16,-17
-6,-13,-8,9,1,-9,51,92,81,4,-15,-17
-4,-12,-7,8,1,-9,51,93,83,5,-15,-17
-4,-11,-7,8,1,-9,51,94,84,6,-14,-17
-4,-11,-6,8,1,-9,50,94,85,7,-13,-16
-3,-10,-7,7,1,-9,50,93,85,8,-12,-16
-3,-9,-7,6,2,-8,49,93,85,9,-11,-15
-2,-8,-6,5,2,-7,48,92,85,10,-10,-14
-2,-8,-6,5,2,-6,47,91,85,11,-9,-13
-1,-7,-6,5,2,-6,47,88,84,11,-8,-12
-1,-7,-5,5,2,-5,46,85,83,12,-7,-11
-1,-7,-5,5,2,-5,44,82,82,12,-6,-11
0,-5,-5,3,2,-5,43,80,81,13,-5,-10
0,-4,-5,2,3,-4,41,77,79,13,-4,-9
1,-4,-5,1,3,-4,39,74,77,13,-3,-8
2,-3,-5,0,4,-4,36,70,74,13,-2,-7
2,-2,-5,0,4,-3,34,65,71,14,-1,-6
2,-2,-5,0,4,-3,33,61,68,14,0,-5
2,-2,-5,0,4,-3,32,57,65,14,0,-4
3,-2,-5,0,4,-3,30,52,62,13,1,-4
3,-2,-5,0,4,-3,28,47,59,12,1,-3
3,-1,-5,0,4,-3,26,43,55,12,2,-3
3,-1,-5,-1,4,-3,23,39,51,11,2,-2
3,-1,-5,-1,4,-2,22,35,48,10,2,-2
2,-1,-4,-1,3,-2,20,30,46,10,2,-2
2,-1,-5,-1,4,-2,18,26,42,8,2,-2
3,-1,-5,-1,4,-3,16,21,38,7,1,-2
4,-1,-6,-2,5,-3,15,17,34,5,1,-1
5,-1,-6,-2,5,-3,13,14,31,3,0,-1
4,-2,-6,-1,5,-4,11,11,28,2,0,-2
3,-3,-6,0,5,-4,9,8,26,1,0,-2
4,-3,-6,0,5,-4,8,6,24,0,-1,-3
5,-2,-6,-1,5,-4,8,4,22,0,-1,-3
5,-2,-6,-2,6,-4,8,2,20,0,-1,-3
5,-2,-6,-2,6,-4,8,1,18,-1,-1,-3
4,-2,-6,-1,5,-4,7,0,17,-2,-1,-2
3,-3,-6,0,5,-4,7,-2,16,-3,-1,-2
4,-3,-7,0,5,-5,6,-4,15,-3,-2,-3
4,-3,-8,0,6,-5,5,-5,14,-4,-3,-3
3,-4,-8,0,5,-6,4,-6,8,-5,-3,-4
3,-5,-8,1,5,-6,3,-7,-2,-5,-3,-4
4,-3,-8,-1,6,-5,3,-8,-5,-4,-3,-3
6,-2,-8,-3,7,-4,3,-8,0,-4,-2,-2
7,-2,-8,-3,7,-4,3,-9,4,-5,-3,-2
7,-2,-9,-3,7,-5,3,-9,5,-5,-3,-2
6,-2,-8,-2,7,-5,3,-10,6,-5,-3,-2
5,-2,-8,-1,6,-5,3,-10,7,-5,-3,-2
5,-3,-8,-1,6,-5,2,-10,7,-5,-3,-2
4,-4,-8,0,6,-6,1,-11,7,-5,-3,-3
4,-5,-9,0,6,-7,1,-12,7,-6,-4,-3
4,-5,-9,0,7,-7,0,-13,7,-6,-4,-3
4,-4,-9,0,7,-7,0,-13,7,-6,-4,-3
5,-3,-9,-1,7,-6,0,-13,7,-6,-3,-3
5,-2,-8,-1,7,-5,0,-13,8,-6,-3,-3
6,-2,-8,-1,7,-5,0,-14,7,-6,-3,-3
6,-2,-9,-2,7,-5,0,-14,7,-6,-3,-3
6,-2,-9,-2,7,-5,-1,-14,7,-6,-3,-3
6,-2,-8,-2,7,-5,-1,-14,7,-6,-3,-3
6,-2,-8,-2,7,-4,-1,-14,6,-6,-3,-3
5,-2,-7,-1,6,-4,-2,-15,6,-6,-3,-3
4,-2,-7,-1,5,-4,-3,-15,5,-6,-4,-3
4,-2,-7,-1,5,-4,-4,-16,4,-7,-4,-4
4,-2,-6,-1,5,-4,-5,-17,4,-7,-5,-4
3,-1,-5,-1,4,-3,-4,-17,4,-7,-5,-4
2,-1,-4,-1,3,-3,-4,-17,4,-7,-5,-4
2,-1,-3,0,3,-3,-4,-17,3,-8,-5,-4
2,0,-3,-1,3,-2,-5,-18,3,-8,-6,-4
2,0,-3,-1,3,-2,-5,-18,2,-8,-6,-5
2,0,-3,-1,2,-2,-6,-18,2,-8,-6,-5
1,0,-2,0,1,-2,-6,-18,2,-8,-6,-5
0,0,-2,0,1,-2,-6,-18,1,-8,-6,-6
0,0,-2,0,1,-2,-6,-18,1,-8,-7,-6
0,0,-2,0,1,-2,-6,-18,1,-9,-7,-6
1,0,-2,0,1,-1,-6,-17,1,-9,-7,-6
0,-1,-2,0,1,-1,-6,-17,0,-9,-7,-6
0,-1,-2,0,1,-1,-7,-17,0,-10,-8,-7
1,-1,-2,0,1,-1,-7,-17,0,-10,-8,-7
2,0,-2,-2,2,0,-6,-17,0,-9,-7,-7
3,1,-2,-3,2,0,-6,-16,1,-9,-7,-7
2,1,-1,-2,1,0,-5,-16,1,-9,-7,-7
1,0,-1,-1,0,0,-5,-16,1,-9,-7,-7
0,0,0,-1,0,1,-5,-15,1,-9,-7,-7
0,0,0,0,0,1,-5,-15,1,-9,-7,-7
0,0,0,0,0,1,-5,-15,1,-9,-7,-7
0,1,0,0,0,1,-5,-15,1,-9,-7,-7
0,1,1,-1,0,1,-5,-14,2,-9,-7,-7
0,1,1,-1,0,1,-4,-14,1,-9,-8,-7
0,1,0,-1,0,0,-4,-14,1,-10,-9,-8
0,1,0,-1,0,1,-4,-14,1,-10,-9,-8
0,2,0,-2,0,1,-4,-13,1,-10,-9,-8
0,1,0,-1,0,1,-3,-13,1,-10,-9,-8
0,1,0,0,0,2,-2,-12,2,-10,-9,-8
0,2,1,-2,0,3,-1,-11,4,-9,-8,-7
1,3,2,-2,0,3,0,-10,6,-9,-8,-7
0,3,2,-2,-1,3,0,-10,8,-8,-8,-7
0,3,3,-1,-2,3,1,-9,9,-8,-8,-7
0,3,3,-1,-2,3,1,-9,10,-8,-7,-7
-1,4,4,-2,-2,4,2,-8,12,-7,-7,-7
-1,4,4,-2,-3,4,2,-7,14,-7,-7,-7
-2,4,5,-2,-3,5,3,-6,16,-7,-7,-7
-2,4,5,-2,-3,5,3,-6,18,-7,-7,-7
-2,4,5,-2,-3,5,4,-5,19,-7,-7,-7
-2,4,5,-1,-3,5,4,-5,19,-7,-7,-8
-2,4,5,-1,-4,5,4,-6,19,-7,-7,-8
-2,4,5,-1,-4,5,3,-6,19,-6,-7,-8
-2,4,5,-1,-3,5,1,-6,18,-6,-7,-9
-2,4,4,-1,-3,4,0,-7,18,-6,-8,-9
-3,3,5,0,-4,4,-2,-8,17,-6,-8,-9
-4,3,5,0,-4,4,-4,-9,17,-6,-8,-9
-4,4,6,0,-4,5,-5,-9,17,-6,-8,-9
-4,4,6,0,-4,5,-6,-10,18,-6,-8,-10
-4,3,6,0,-5,5,-7,-10,18,-6,-8,-10
-3,4,7,0,-5,5,-6,-9,18,-6,-7,-9
-2,6,8,-1,-5,6,-6,-9,18,-5,-7,-8
-2,7,9,-2,-5,7,-6,-8,19,-5,-6,-8
-3,7,9,-2,-6,8,-7,-8,20,-4,-6,-8
-3,7,10,-2,-6,9,-7,-9,20,-4,-6,-8
-3,7,10,-2,-6,9,-8,-9,21,-4,-6,-8
-2,7,9,-2,-5,8,-9,-10,20,-5,-6,-8
-2,6,8,-2,-5,7,-10,-10,20,-5,-7,-8
-2,6,8,-2,-5,7,-11,-11,19,-5,-7,-8
-4,5,9,-1,-6,7,-12,-12,19,-5,-7,-7
-5,5,9,0,-7,7,-13,-12,19,-5,-7,-7
-4,6,9,-1,-6,7,-14,-13,20,-5,-7,-7
-2,6,8,-2,-5,7,-14,-13,21,-5,-7,-7
0,7,7,-3,-3,7,-14,-13,22,-5,-7,-7
1,7,6,-4,-2,7,-14,-13,22,-5,-7,-7
1,8,6,-5,-2,7,-14,-13,22,-5,-6,-7
2,8,6,-5,-2,7,-14,-12,23,-5,-6,-7
2,8,5,-5,-1,6,-13,-12,25,-5,-6,-7
2,8,5,-5,-1,6,-13,-12,26,-5,-6,-7
1,7,5,-5,-1,5,-13,-11,27,-5,-5,-7
0,5,5,-3,-2,5,-13,-11,27,-5,-5,-7
0,4,5,-2,-2,5,-12,-10,26,-5,-5,-7
-1,4,5,-2,-2,5,-11,-10,25,-5,-5,-7
-1,4,5,-1,-3,4,-10,-9,25,-5,-6,-7
-3,2,4,0,-3,3,-10,-9,23,-5,-7,-8
-4,1,4,2,-4,2,-10,-10,19,-6,-7,-8
-4,0,4,2,-4,1,-9,-10,16,-7,-7,-8
-5,-1,3,3,-4,0,-9,-11,14,-8,-8,-9
-5,-3,2,3,-4,-1,-9,-11,9,-8,-9,-10
-6,-4,1,4,-4,-1,-9,-11,4,-9,-9,-11
-6,-4,1,5,-4,-1,-9,-12,1,-9,-10,-11
-7,-5,2,6,-4,-1,-9,-12,2,-10,-10,-12
-8,-6,2,7,-5,-2,-9,-13,4,-10,-10,-12
-8,-6,1,7,-5,-3,-8,-13,7,-11,-11,-12
-8,-6,1,7,-5,-3,-8,-13,11,-11,-11,-12
-8,-6,1,7,-5,-3,-8,-13,14,-11,-11,-12
-8,-7,1,7,-5,-3,-8,-13,14,-11,-11,-12
-8,-7,1,7,-5,-3,-8,-13,12,-11,-11,-13
-9,-8,1,8,-5,-4,-8,-13,10,-12,-11,-13
-10,-9,0,9,-5,-4,-8,-13,8,-12,-11,-13
-10,-10,0,10,-5,-5,-8,-13,6,-13,-11,-13
-10,-10,0,10,-5,-5,-8,-13,6,-13,-11,-13
-8,-8,0,8,-4,-5,-8,-13,7,-12,-11,-13
-7,-7,0,7,-4,-4,-8,-13,8,-12,-11,-12
-7,-7,0,7,-4,-4,-8,-13,9,-12,-11,-12
-8,-7,0,7,-4,-3,-8,-13,9,-12,-10,-12
-8,-7,0,7,-4,-3,-8,-13,7,-12,-10,-12
-7,-7,0,7,-3,-3,-8,-13,6,-12,-10,-12
-7,-7,0,7,-3,-3,-8,-13,8,-12,-10,-12
-8,-7,1,8,-4,-3,-8,-13,10,-12,-10,-13
-8,-7,1,8,-4,-3,-8,-13,10,-12,-10,-13
-9,-7,2,8,-5,-3,-9,-13,8,-12,-10,-13
-9,-7,1,8,-5,-3,-9,-12,9,-12,-10,-13
-9,-8,1,8,-4,-4,-9,-12,12,-12,-10,-13
-9,-9,0,8,-4,-4,-9,-12,13,-12,-10,-12
-9,-9,0,8,-5,-4,-9,-12,17,-12,-10,-12
-8,-8,0,8,-4,-4,-9,-11,23,-12,-10,-12
-8,-9,0,8,-4,-5,-9,-11,25,-12,-10,-12
-9,-9,0,9,-4,-5,-9,-10,21,-12,-10,-12
-8,-8,0,8,-4,-5,-9,-10,17,-12,-10,-12
-7,-7,0,7,-4,-4,-8,-9,17,-12,-10,-12
-8,-7,0,8,-4,-4,-9,-8,19,-12,-11,-12
-10,-9,0,9,-5,-5,-10,-8,19,-12,-11,-12
-11,-10,0,10,-6,-5,-10,-8,17,-12,-10,-12
-11,-9,1,10,-6,-4,-10,-7,19,-12,-9,-12
-11,-8,1,9,-6,-4,-9,-6,18,-11,-9,-11
-11,-9,1,10,-6,-4,-7,-4,8,-11,-9,-11
-11,-10,1,11,-7,-5,-5,0,-6,-11,-9,-12
-11,-11,0,11,-6,-6,-2,5,-11,-11,-10,-13
-10,-11,-1,10,-5,-6,2,15,-4,-11,-11,-13
-10,-10,-1,10,-5,-6,9,29,9,-10,-11,-14
-9,-9,0,9,-4,-5,16,44,22,-6,-9,-13
-7,-7,0,6,-3,-4,22,61,34,0,-6,-11
-3,-3,0,3,-1,-2,24,77,46,8,0,-7
1,2,0,-2,0,1,21,89,55,19,9,-1
7,9,1,-8,2,5,16,100,64,34,20,7
14,18,3,-16,5,10,10,111,81,51,35,18
23,28,4,-25,8,16,2,119,99,70,51,30
33,39,5,-35,13,21,-10,122,111,88,69,44
43,50,6,-46,18,28,-28,120,120,107,89,59
53,62,8,-58,23,35,-46,111,128,126,108,74
63,75,10,-69,27,42,-64,97,135,143,126,88
72,87,14,-80,29,51,-82,79,141,158,144,102
78,99,20,-89,29,60,-102,59,146,173,160,116
82,110,27,-96,28,69,-122,35,147,187,175,128
85,121,35,-103,25,78,-144,5,144,198,188,140
87,132,44,-109,22,88,-166,-31,140,206,199,152
87,142,54,-114,16,98,-187,-71,131,210,207,161
84,150,64,-117,10,107,-206,-112,114,208,210,167
80,154,73,-118,4,113,-223,-154,89,199,207,169
76,154,77,-115,0,115,-237,-190,59,182,197,166
71,146,74,-109,-1,110,-245,-215,26,158,181,157
67,131,63,-99,2,97,-247,-230,-6,126,159,142
63,110,46,-86,8,78,-245,-239,-44,83,128,122
56,85,28,-71,13,57,-236,-242,-88,33,90,96
46,61,14,-54,16,37,-221,-236,-121,-11,52,68
36,41,4,-38,15,23,-200,-221,-138,-42,21,43
26,25,-1,-26,14,12,-176,-201,-146,-58,0,23
18,12,-6,-15,12,3,-153,-177,-138,-65,-14,8
11,1,-10,-6,11,-4,-131,-155,-121,-68,-23,-2
6,-7,-13,0,10,-10,-111,-134,-104,-68,-29,-9
2,-12,-14,4,8,-14,-94,-116,-90,-66,-32,-14
-1,-17,-16,9,7,-17,-79,-99,-78,-62,-33,-17
-3,-20,-17,12,6,-19,-66,-84,-67,-58,-34,-19
-4,-22,-17,13,6,-20,-56,-71,-57,-54,-33,-20
-3,-21,-17,12,7,-20,-46,-58,-49,-49,-32,-20
-2,-19,-17,10,7,-19,-37,-47,-42,-45,-29,-19
-2,-18,-16,9,7,-17,-29,-38,-38,-41,-27,-18
-3,-17,-14,9,5,-16,-21,-30,-40,-37,-24,-17
-5,-17,-11,10,3,-14,-15,-23,-44,-33,-22,-16
-7,-17,-9,11,1,-13,-11,-17,-46,-30,-21,-16
-9,-17,-7,12,-1,-12,-7,-12,-44,-28,-20,-15
-11,-16,-6,13,-2,-12,-4,-8,-39,-26,-19,-15
-11,-16,-4,13,-3,-11,-1,-4,-33,-24,-19,-15
-12,-15,-3,13,-4,-10,1,-1,-29,-23,-18,-15
-13,-15,-2,14,-5,-9,2,1,-23,-22,-18,-15
-14,-16,-2,14,-6,-9,4,3,-15,-22,-18,-15
-15,-16,-2,15,-7,-9,5,4,-7,-22,-18,-15
-15,-16,-1,15,-7,-8,6,5,-4,-21,-17,-15
-15,-14,-1,14,-7,-8,7,6,-4,-20,-16,-14
-14,-13,-1,13,-7,-7,8,7,-4,-19,-15,-13
-13,-13,-1,13,-7,-7,9,9,-3,-19,-15,-12
-13,-14,-2,13,-6,-9,10,11,-1,-18,-14,-12
-13,-15,-3,14,-5,-10,10,12,1,-18,-14,-12
-12,-16,-4,14,-4,-11,11,13,4,-18,-14,-12
-12,-16,-5,14,-3,-11,11,13,5,-18,-14,-13
-13,-16,-5,14,-4,-10,11,13,3,-18,-15,-13
-12,-16,-4,13,-4,-10,11,13,-2,-18,-15,-14
-12,-15,-4,13,-4,-10,11,13,-8,-18,-15,-14
-13,-15,-4,14,-5,-10,12,13,-10,-18,-15,-14
-15,-16,-3,15,-6,-10,12,14,-14,-18,-15,-14
-15,-17,-3,16,-6,-10,12,15,-20,-18,-16,-14
-15,-17,-3,15,-6,-10,12,16,-22,-17,-16,-13
-14,-16,-2,14,-6,-9,13,17,-18,-17,-15,-13
-14,-15,-2,14,-6,-9,13,18,-13,-16,-15,-12
-14,-14,-1,14,-7,-8,13,18,-8,-16,-15,-12
-14,-14,-1,14,-7,-8,13,17,-4,-16,-15,-12
-14,-15,-2,15,-6,-9,13,17,-4,-16,-16,-13
-14,-15,-2,15,-6,-9,14,18,-9,-17,-16,-13
-14,-16,-3,15,-5,-10,14,18,-12,-17,-16,-13
-14,-16,-3,15,-5,-10,15,19,-11,-17,-16,-13
-15,-16,-2,15,-6,-9,15,19,-12,-17,-16,-13
-15,-15,-1,15,-7,-8,15,20,-15,-17,-16,-13
-14,-14,-1,14,-7,-8,16,20,-18,-17,-16,-14
-14,-14,-1,14,-7,-8,17,21,-15,-16,-16,-14
-14,-15,-1,14,-6,-8,17,23,-10,-16,-16,-14
-14,-15,-1,14,-6,-8,18,24,-7,-16,-16,-14
-14,-15,-1,15,-7,-8,18,25,-8,-16,-16,-14
-15,-15,-1,15,-7,-8,19,26,-10,-16,-16,-13
-15,-15,-1,15,-6,-9,20,27,-13,-16,-16,-13
-15,-15,-2,15,-6,-9,20,28,-16,-15,-15,-12
-15,-15,-2,14,-6,-9,21,30,-17,-14,-15,-12
-14,-14,-2,14,-5,-9,21,31,-18,-14,-15,-12
-13,-14,-3,14,-5,-9,21,32,-18,-15,-15,-12
-13,-15,-3,14,-5,-9,21,34,-18,-15,-15,-12
-14,-16,-2,15,-5,-9,21,35,-18,-15,-16,-12
-15,-17,-2,16,-6,-9,22,37,-18,-15,-16,-13
-15,-16,-3,15,-6,-9,23,39,-17,-14,-16,-14
-13,-15,-3,14,-5,-9,24,42,-15,-14,-16,-14
-13,-15,-3,14,-5,-9,26,45,-13,-13,-16,-14
-14,-15,-2,14,-5,-9,27,48,-10,-13,-17,-14
-14,-15,-2,14,-5,-9,29,50,-9,-13,-17,-13
-14,-14,-2,14,-5,-9,30,53,-9,-13,-17,-13
-14,-15,-2,14,-5,-9,31,56,-10,-12,-17,-12
-14,-16,-2,15,-6,-9,32,59,-11,-12,-17,-12
-15,-17,-2,16,-6,-10,33,62,-10,-12,-18,-13
-15,-17,-2,16,-6,-10,33,64,-8,-12,-18,-14
-16,-17,-2,16,-6,-10,33,66,-6,-12,-18,-14
-17,-18,-1,17,-7,-10,33,68,-2,-12,-19,-15
-18,-18,-1,18,-8,-10,34,71,1,-12,-19,-16
-17,-17,-1,17,-8,-9,35,75,5,-12,-19,-16
-14,-14,-1,14,-6,-8,37,80,10,-11,-19,-15
-13,-13,-1,13,-5,-7,39,84,14,-10,-19,-15
-13,-13,-1,13,-5,-7,40,87,17,-9,-19,-16
-14,-14,-1,14,-6,-7,41,90,19,-8,-19,-16
-14,-14,-1,14,-6,-7,42,92,21,-7,-19,-16
-14,-15,-2,14,-6,-8,44,95,24,-6,-19,-15
-14,-15,-2,14,-6,-8,45,96,26,-4,-19,-15
-14,-16,-2,15,-6,-9,46,98,28,-3,-18,-14
-15,-16,-2,15,-6,-9,47,99,31,-2,-18,-14
-15,-16,-1,15,-6,-9,46,100,32,-1,-17,-13
-15,-15,-1,15,-6,-8,45,100,33,0,-16,-12
-15,-14,0,14,-6,-7,44,100,34,0,-16,-12
-14,-14,0,14,-6,-7,44,100,34,0,-15,-11
-13,-13,0,13,-6,-6,43,99,35,1,-14,-11
-12,-11,0,12,-6,-6,43,97,35,2,-13,-10
-12,-10,0,11,-6,-5,42,95,34,3,-12,-10
-11,-9,1,11,-6,-5,40,93,34,4,-11,-9
-11,-9,1,10,-5,-4,39,90,33,4,-11,-8
-11,-8,1,10,-5,-4,38,88,32,5,-10,-7
-11,-8,2,10,-6,-3,37,85,31,6,-8,-6
-11,-7,3,10,-6,-2,35,82,29,7,-6,-5
-10,-7,3,9,-6,-2,34,79,28,7,-5,-4
-9,-6,3,8,-6,-2,32,75,26,8,-4,-4
-9,-6,3,8,-6,-1,31,71,24,8,-3,-3
-9,-5,3,7,-6,-1,29,66,21,8,-2,-2
-9,-5,3,7,-6,-1,28,62,19,8,-2,-1
-9,-4,3,6,-6,-1,26,57,16,8,-1,-1
-8,-4,3,6,-5,-1,25,53,12,8,-1,0
-8,-4,3,6,-5,0,23,48,8,8,0,0
-7,-4,3,6,-5,0,22,44,4,8,0,0
-7,-4,3,6,-5,-1,20,40,1,7,0,1
-8,-4,3,7,-5,-1,19,36,-1,5,0,1
-8,-5,2,7,-5,-2,18,32,-4,3,0,2
-7,-5,1,6,-3,-2,17,28,-7,2,0,2
-6,-5,0,6,-2,-2,16,24,-10,1,0,2
-6,-5,0,6,-2,-2,14,20,-14,0,0,2
-6,-5,0,6,-3,-2,13,17,-17,0,0,2
-7,-5,0,6,-3,-2,12,14,-20,-1,0,2
-7,-5,0,6,-3,-2,11,11,-22,-2,0,2
-7,-6,0,6,-3,-2,10,8,-24,-3,0,2
-7,-6,0,7,-3,-3,10,6,-26,-4,-1,1
-7,-7,0,7,-3,-3,9,4,-28,-5,-2,1
-7,-7,-1,7,-3,-4,8,2,-31,-6,-3,0
-8,-8,-1,8,-3,-4,7,0,-33,-7,-3,0
-9,-9,-1,9,-4,-4,7,0,-34,-7,-4,0
-9,-8,-1,8,-4,-4,8,-1,-35,-7,-4,0
-8,-8,-1,8,-3,-5,8,-1,-35,-7,-4,0
-8,-9,-2,9,-3,-6,8,-2,-36,-7,-4,0
-8,-9,-2,9,-3,-6,8,-2,-38,-8,-4,0
-8,-9,-2,9,-3,-6,8,-3,-40,-8,-3,0
-7,-9,-2,9,-3,-6,8,-3,-42,-8,-3,0
-7,-9,-2,9,-3,-5,7,-4,-44,-8,-3,0
-7,-9,-1,9,-3,-5,7,-5,-46,-9,-4,0
-8,-9,-1,9,-3,-5,6,-6,-48,-9,-4,-1
-8,-10,-1,10,-3,-6,5,-7,-50,-10,-5,-1
-9,-9,-1,9,-4,-5,4,-8,-51,-10,-5,-1
-8,-8,0,8,-4,-4,4,-8,-51,-10,-5,-1
-8,-7,0,7,-4,-3,4,-8,-51,-10,-5,0
-8,-7,0,7,-4,-3,4,-8,-51,-9,-5,0
-9,-8,0,8,-5,-3,4,-8,-51,-9,-5,0
-9,-9,-1,8,-4,-4,4,-8,-51,-10,-5,0
-8,-10,-2,8,-2,-6,3,-8,-52,-10,-5,0
-7,-10,-3,8,-1,-7,3,-8,-52,-10,-5,-1
-7,-10,-3,9,-2,-7,3,-8,-52,-9,-5,-1
-7,-9,-3,9,-2,-6,2,-8,-52,-9,-5,0
-7,-9,-2,9,-3,-6,2,-8,-52,-9,-5,0
-8,-9,-2,9,-3,-6,2,-8,-52,-9,-5,-1
-8,-9,-1,9,-4,-6,2,-9,-52,-9,-5,-1
-8,-9,-1,9,-4,-6,2,-9,-52,-9,-4,0
-8,-8,-1,9,-4,-5,2,-9,-52,-8,-4,0
-9,-9,-1,9,-4,-5,2,-9,-52,-8,-4,0
-9,-10,-1,9,-4,-6,1,-9,-52,-9,-4,0
-9,-10,-2,9,-3,-6,1,-9,-52,-9,-4,0
-9,-10,-2,9,-3,-6,1,-9,-52,-9,-4,0
-8,-9,-2,8,-3,-6,1,-9,-52,-9,-4,0
-7,-8,-2,7,-2,-6,1,-9,-52,-9,-4,0
-6,-8,-3,7,-2,-6,1,-9,-52,-9,-4,0
-7,-9,-3,8,-2,-6,1,-9,-52,-9,-4,0
-8,-9,-3,9,-2,-6,1,-8,-52,-9,-5,0
-8,-10,-3,9,-2,-6,1,-8,-52,-9,-5,-1
-9,-11,-3,10,-3,-7,1,-8,-51,-9,-5,-1
-9,-11,-3,10,-3,-7,1,-7,-51,-9,-5,-1
-9,-11,-3,10,-3,-7,1,-7,-51,-9,-5,-1
-8,-11,-3,10,-3,-7,1,-6,-50,-9,-5,-1
-8,-11,-3,10,-3,-8,1,-6,-50,-9,-6,-1
-8,-11,-3,10,-3,-8,1,-6,-50,-9,-6,0
-8,-10,-2,10,-3,-7,2,-6,-50,-9,-5,0
-8,-9,-1,9,-3,-6,2,-6,-50,-8,-4,1
-8,-9,0,9,-3,-5,2,-5,-49,-8,-4,1
-8,-8,0,8,-3,-5,2,-5,-49,-8,-4,1
-8,-8,0,8,-3,-5,2,-6,-50,-8,-4,0
-8,-9,0,9,-4,-5,1,-6,-50,-8,-5,-1
-9,-10,0,10,-4,-5,1,-6,-50,-8,-6,-2
-10,-11,-1,11,-4,-6,2,-5,-50,-9,-6,-2
-10,-12,-2,11,-4,-7,2,-5,-50,-9,-7,-2
-10,-12,-2,11,-3,-8,3,-4,-50,-10,-7,-2
-10,-12,-2,11,-3,-8,3,-4,-50,-10,-7,-2
-10,-12,-2,11,-4,-7,4,-4,-49,-10,-7,-2
-11,-12,-1,11,-4,-7,4,-4,-49,-10,-7,-2
-11,-12,-2,12,-5,-8,5,-4,-48,-10,-7,-3
-11,-13,-3,12,-5,-9,5,-3,-48,-10,-8,-3
-10,-13,-3,12,-4,-9,6,-3,-48,-9,-8,-3
-9,-12,-3,11,-4,-8,7,-2,-47,-8,-7,-2
-9,-10,-2,10,-4,-7,7,-1,-46,-8,-6,-2
-9,-10,-2,10,-4,-6,8,-1,-46,-8,-6,-1
-9,-10,-2,10,-4,-6,8,0,-46,-8,-6,-1
-8,-9,-1,9,-4,-6,9,1,-46,-8,-6,-1
-8,-9,-1,9,-4,-5,10,1,-45,-7,-6,-1
-8,-8,0,9,-4,-5,10,2,-45,-7,-6,-1
-9,-8,0,9,-5,-4,11,2,-44,-6,-6,-1
-9,-8,1,9,-5,-4,11,2,-43,-5,-6,-1
-10,-8,1,9,-6,-3,11,3,-42,-4,-6,-1
-10,-8,2,9,-6,-3,12,3,-42,-4,-6,-1
-10,-7,2,9,-6,-3,13,4,-41,-3,-5,-1
-10,-7,2,9,-6,-3,13,4,-40,-3,-5,-1
-10,-7,2,9,-6,-3,13,4,-40,-3,-5,-1
-9,-7,2,8,-6,-3,13,4,-40,-3,-5,0
-9,-6,2,8,-6,-2,12,3,-40,-3,-4,0
-9,-6,3,8,-6,-2,11,3,-40,-2,-4,1
-10,-6,3,8,-7,-2,9,2,-40,-3,-5,1
-10,-7,2,9,-7,-3,8,1,-41,-3,-5,0
-10,-7,2,9,-6,-3,6,1,-41,-3,-5,0
-10,-7,2,9,-6,-3,6,1,-41,-3,-5,0
-10,-7,2,9,-7,-2,5,1,-41,-3,-5,-1
-9,-6,3,8,-7,-2,5,1,-40,-3,-5,-1
-9,-5,3,8,-7,-1,5,1,-40,-3,-5,0
-10,-5,4,8,-8,0,4,1,-39,-2,-5,0
-10,-4,5,8,-8,0,4,0,-38,-1,-4,0
-11,-4,6,8,-9,0,3,0,-38,0,-4,1
-11,-5,6,8,-9,0,2,-1,-39,-1,-4,1
-10,-5,5,7,-9,0,1,-1,-39,-1,-5,1
-8,-3,5,5,-8,1,1,-1,-39,-1,-4,2
-6,-1,5,4,-7,1,1,-1,-38,0,-3,2
-6,-1,4,4,-6,1,0,-2,-39,-1,-4,2
-6,-1,4,4,-6,0,0,-3,-40,-2,-4,1
-6,-1,4,3,-6,1,0,-3,-41,-2,-4,1
-6,0,4,2,-6,2,0,-4,-41,-2,-3,2
-5,0,4,2,-5,2,0,-4,-41,-2,-3,2
-4,0,3,1,-5,1,0,-4,-41,-2,-3,3
-4,0,3,1,-5,1,0,-4,-41,-2,-3,3
-4,0,4,1,-5,1,0,-4,-41,-2,-3,3
-4,0,3,1,-4,1,-1,-4,-40,-2,-2,3
-4,0,3,2,-4,0,-1,-4,-40,-2,-2,3
-5,-1,3,2,-4,0,-1,-3,-39,-2,-2,4
-5,-1,3,3,-4,0,0,-3,-39,-2,-1,4
-5,-1,3,3,-5,0,0,-3,-38,-1,-1,5
-5,-1,3,3,-5,1,1,-2,-38,-1,-1,5
-5,-1,3,4,-5,0,2,-2,-37,-1,-1,4
-7,-4,2,6,-5,-1,3,-2,-37,-1,-2,3
-8,-6,1,8,-5,-3,3,-2,-38,-3,-4,1
-8,-8,0,8,-4,-5,3,-3,-39,-4,-5,0
-7,-8,-1,9,-4,-6,3,-3,-40,-5,-6,-1
-7,-9,-2,9,-4,-6,3,-4,-41,-6,-7,-1
-8,-10,-2,10,-4,-7,3,-4,-41,-6,-7,-2
-9,-12,-3,11,-4,-8,3,-5,-41,-6,-7,-2
-10,-13,-3,13,-5,-9,3,-6,-41,-6,-7,-2
-12,-15,-3,14,-5,-10,3,-6,-42,-7,-7,-2
-11,-15,-3,13,-5,-10,3,-6,-42,-7,-7,-2
-10,-14,-3,12,-4,-9,3,-6,-42,-7,-7,-1
-9,-13,-3,11,-3,-9,4,-5,-41,-7,-7,-1
-9,-13,-3,11,-4,-9,4,-5,-41,-7,-7,-1
-10,-13,-3,11,-4,-9,4,-6,-41,-7,-7,-1
-9,-12,-3,11,-4,-8,4,-6,-41,-7,-7,-1
-8,-12,-3,10,-4,-8,4,-6,-41,-7,-7,-1
-8,-12,-3,10,-3,-8,4,-6,-41,-7,-6,-1
-8,-12,-3,10,-3,-8,4,-6,-41,-7,-6,-1
-9,-12,-3,11,-4,-8,3,-7,-41,-8,-7,-2
-9,-12,-3,11,-4,-8,3,-7,-42,-8,-7,-3
-9,-13,-4,11,-4,-9,3,-7,-42,-8,-8,-3
-9,-13,-5,11,-4,-9,3,-7,-42,-8,-9,-4
-9,-13,-5,11,-4,-10,3,-7,-42,-8,-9,-5
-10,-14,-4,11,-4,-10,3,-7,-42,-8,-9,-6
-10,-14,-4,11,-4,-10,3,-8,-42,-8,-9,-6
-10,-14,-3,11,-4,-10,3,-8,-42,-9,-9,-5
-10,-14,-3,11,-4,-9,2,-8,-42,-9,-9,-5
-10,-13,-3,11,-4,-8,2,-8,-42,-8,-8,-4
-10,-13,-3,12,-4,-8,1,-8,-42,-8,-8,-4
-10,-13,-3,12,-4,-9,1,-8,-42,-8,-8,-4
-10,-14,-4,12,-4,-9,1,-8,-41,-7,-8,-4
-10,-14,-4,12,-4,-9,1,-8,-41,-7,-8,-3
-9,-13,-4,11,-4,-9,1,-8,-41,-7,-8,-3
-9,-13,-4,10,-3,-9,2,-8,-40,-7,-7,-3
-8,-13,-4,10,-3,-10,2,-7,-40,-7,-7,-3
-8,-14,-5,10,-2,-10,3,-7,-40,-7,-7,-3
-8,-14,-5,10,-2,-10,3,-7,-40,-6,-7,-3
-8,-14,-5,10,-2,-10,3,-7,-39,-6,-7,-3
-8,-13,-5,10,-2,-10,3,-7,-39,-6,-7,-3
-8,-13,-4,10,-2,-9,3,-7,-39,-6,-7,-3
-8,-13,-4,10,-3,-9,3,-7,-39,-6,-7,-4
-8,-13,-4,10,-3,-9,3,-6,-39,-6,-7,-4
-9,-13,-4,10,-3,-9,4,-5,-39,-6,-7,-4
-9,-13,-3,10,-3,-9,6,-3,-38,-6,-7,-4
-9,-13,-3,10,-3,-9,8,0,-36,-5,-7,-5
-8,-14,-5,10,-2,-10,11,5,-34,-5,-8,-6
-7,-15,-7,10,0,-11,14,13,-29,-5,-10,-7
-6,-15,-9,10,0,-12,19,24,-22,-4,-10,-8
-5,-15,-9,9,1,-12,24,39,-13,0,-9,-7
-3,-12,-8,6,2,-10,28,55,0,6,-5,-5
0,-8,-7,2,3,-8,30,69,12,14,0,-1
4,-2,-7,-2,5,-5,28,77,23,23,9,5
11,4,-6,-8,7,-1,23,83,34,36,21,13
20,13,-6,-17,12,3,17,90,48,52,37,25
30,23,-6,-27,17,8,11,96,62,70,55,38
40,33,-5,-37,22,13,1,97,74,88,73,53
50,44,-4,-47,27,19,-13,90,81,106,93,68
59,56,-3,-58,31,25,-29,75,84,123,113,83
67,67,0,-68,33,32,-43,54,82,137,131,98
74,78,3,-77,35,40,-57,31,77,150,148,113
80,89,8,-85,35,48,-72,6,72,162,164,126
84,99,15,-92,34,56,-88,-19,66,173,179,138
85,109,24,-97,31,66,-105,-50,55,181,191,149
85,119,34,-102,26,76,-123,-86,40,186,200,159
83,129,47,-106,18,87,-140,-122,23,189,207,167
78,138,61,-108,8,99,-154,-157,3,187,209,173
71,144,74,-108,-2,108,-167,-192,-21,178,205,173
62,143,82,-104,-10,112,-179,-222,-49,161,192,168
54,134,81,-95,-13,107,-186,-241,-75,137,174,157
48,118,71,-84,-12,94,-189,-251,-101,106,149,142
43,99,56,-72,-7,77,-188,-255,-130,63,116,121
39,79,41,-59,-1,59,-183,-253,-157,14,76,96
32,59,28,-45,1,42,-171,-243,-175,-27,37,68
23,39,18,-30,2,27,-156,-227,-183,-55,6,41
13,22,11,-17,0,15,-139,-206,-181,-69,-15,21
5,8,5,-7,0,6,-122,-184,-173,-75,-28,6
0,-1,-1,0,0,-1,-104,-162,-162,-75,-35,-3
-2,-8,-5,4,0,-7,-88,-141,-149,-73,-38,-9
-3,-13,-9,7,1,-11,-74,-121,-136,-69,-40,-13
-3,-16,-12,9,3,-14,-61,-103,-123,-63,-39,-15
-3,-18,-14,10,4,-16,-50,-86,-111,-58,-38,-17
-3,-19,-14,11,4,-17,-41,-71,-101,-53,-37,-18
-4,-19,-14,11,5,-18,-33,-59,-92,-48,-35,-18
-4,-19,-14,11,4,-17,-26,-48,-84,-43,-33,-18
-4,-19,-13,11,4,-17,-19,-39,-77,-39,-30,-18
-5,-18,-13,11,3,-16,-13,-31,-71,-35,-28,-17
-5,-18,-12,11,2,-15,-8,-24,-65,-32,-26,-16
-7,-17,-10,12,1,-14,-3,-18,-59,-29,-24,-15
-8,-17,-8,12,-1,-13,0,-13,-54,-26,-22,-14
-10,-17,-6,13,-2,-12,2,-8,-50,-23,-21,-13
-10,-16,-5,12,-2,-12,4,-5,-47,-20,-20,-13
-9,-16,-5,11,-2,-11,7,-2,-45,-19,-19,-13
-9,-16,-5,11,-2,-11,9,0,-43,-18,-18,-13
-9,-16,-5,12,-2,-11,10,2,-42,-18,-18,-13
-10,-16,-4,13,-3,-11,10,3,-41,-18,-18,-13
-11,-16,-3,13,-4,-10,11,4,-41,-17,-17,-13
-12,-15,-3,13,-5,-10,11,5,-40,-16,-17,-12
-12,-14,-2,12,-5,-9,12,6,-39,-16,-17,-12
-12,-15,-3,13,-5,-10,13,7,-38,-15,-17,-11
-12,-16,-4,13,-5,-11,14,8,-37,-15,-17,-11
-11,-16,-4,12,-4,-11,15,9,-36,-14,-16,-11
-10,-15,-4,12,-3,-10,16,10,-35,-14,-15,-10
-10,-15,-4,12,-3,-10,16,11,-35,-14,-15,-10
-10,-15,-4,12,-3,-10,17,11,-35,-14,-15,-11
-10,-15,-4,12,-3,-10,17,12,-35,-14,-15,-11
-10,-15,-4,12,-4,-10,17,12,-35,-14,-16,-11
-10,-15,-4,12,-4,-10,17,12,-35,-14,-16,-11
-10,-15,-4,12,-4,-10,17,12,-34,-14,-16,-11
-10,-15,-4,12,-4,-10,17,13,-34,-14,-16,-11
-9,-15,-4,12,-3,-10,18,14,-33,-14,-15,-11
-10,-15,-4,12,-4,-10,18,15,-33,-14,-15,-11
-11,-16,-4,13,-4,-10,19,15,-33,-13,-15,-11
-11,-16,-4,13,-4,-10,19,16,-32,-13,-15,-11
-11,-15,-4,12,-4,-10,19,16,-32,-13,-15,-11
-11,-15,-4,12,-4,-10,19,17,-32,-13,-15,-11
-11,-15,-4,12,-3,-10,19,17,-32,-13,-15,-11
-10,-16,-5,12,-3,-10,19,18,-32,-13,-15,-11
-10,-16,-5,12,-3,-10,19,18,-31,-13,-15,-11
-10,-16,-5,13,-3,-10,20,19,-31,-13,-15,-11
-10,-16,-4,13,-3,-10,20,19,-31,-13,-15,-11
-10,-15,-4,12,-3,-10,20,20,-30,-13,-15,-11
-9,-15,-4,12,-3,-10,20,20,-30,-13,-16,-11
-9,-15,-5,12,-3,-10,20,21,-29,-13,-16,-11
-11,-16,-5,13,-3,-11,20,22,-29,-13,-17,-12
-13,-19,-5,16,-4,-13,20,23,-29,-14,-17,-13
-14,-20,-5,16,-5,-13,20,24,-29,-14,-17,-13
-12,-18,-5,14,-4,-12,21,25,-28,-13,-17,-12
-9,-16,-6,12,-2,-11,22,27,-26,-12,-16,-12
-7,-15,-6,10,-1,-11,23,28,-25,-12,-16,-12
-7,-15,-6,10,-1,-11,23,29,-24,-12,-16,-12
-8,-15,-6,11,-2,-11,23,30,-23,-12,-16,-12
-9,-15,-6,11,-2,-11,23,32,-22,-12,-16,-12
-10,-15,-6,12,-2,-11,24,33,-21,-11,-15,-11
-10,-15,-6,12,-3,-11,24,35,-20,-10,-15,-11
-10,-16,-5,12,-3,-11,25,37,-19,-10,-15,-11
-11,-16,-5,13,-4,-11,25,38,-18,-10,-16,-11
-11,-17,-5,13,-4,-11,25,40,-17,-10,-16,-11
-11,-17,-5,13,-4,-11,26,42,-16,-10,-16,-11
-11,-17,-5,13,-4,-11,26,44,-14,-10,-17,-12
-11,-17,-5,13,-4,-11,27,47,-13,-10,-17,-12
-11,-17,-6,13,-4,-11,28,50,-11,-9,-17,-12
-11,-17,-6,13,-3,-11,29,52,-9,-9,-17,-13
-11,-18,-7,14,-3,-12,29,55,-7,-9,-17,-13
-11,-18,-7,14,-3,-12,30,58,-5,-8,-17,-14
-11,-18,-7,14,-3,-12,30,60,-3,-8,-18,-14
-11,-18,-7,14,-3,-12,31,63,-1,-8,-18,-15
-11,-19,-7,15,-3,-13,32,66,1,-7,-19,-15
-12,-20,-7,16,-3,-13,32,70,4,-7,-19,-15
-13,-21,-7,17,-4,-14,33,73,7,-6,-19,-15
-13,-20,-6,16,-4,-13,34,77,10,-4,-19,-15
-11,-17,-6,13,-3,-11,36,81,14,-2,-18,-14
-8,-14,-5,10,-2,-10,38,85,18,0,-17,-13
-7,-13,-5,10,-2,-9,39,88,20,1,-16,-13
-8,-14,-5,10,-2,-9,40,90,22,2,-16,-13
-8,-14,-5,10,-2,-9,40,92,25,3,-15,-13
-8,-13,-4,10,-2,-9,40,94,27,5,-14,-12
-8,-13,-4,10,-2,-8,40,95,30,6,-13,-11
-8,-13,-4,10,-3,-8,40,96,32,7,-13,-11
-9,-13,-4,10,-3,-8,40,97,33,8,-12,-11
-9,-13,-4,10,-3,-8,40,97,33,9,-12,-10
-9,-12,-3,10,-4,-8,40,97,34,10,-11,-9
-9,-12,-3,10,-4,-7,39,96,34,10,-10,-9
-8,-11,-2,9,-3,-7,39,96,34,11,-9,-8
-7,-10,-2,8,-3,-6,38,94,34,11,-8,-7
-7,-9,-2,8,-3,-6,38,92,34,12,-7,-7
-6,-9,-2,7,-3,-5,37,90,34,13,-6,-6
-6,-8,-2,7,-3,-5,36,88,33,13,-5,-5
-6,-8,-2,6,-3,-5,35,85,32,14,-5,-5
-5,-8,-2,6,-2,-5,33,82,31,14,-4,-4
-5,-7,-2,6,-2,-4,32,78,29,14,-3,-4
-5,-6,-2,5,-2,-4,31,74,28,14,-2,-3
-4,-5,-1,5,-2,-3,29,70,26,14,-1,-2
-4,-5,-1,4,-2,-3,28,66,23,14,0,-2
-4,-5,0,4,-3,-2,27,62,21,14,0,-1
-4,-5,0,4,-3,-2,26,58,19,14,1,0
-4,-5,0,4,-3,-2,25,53,16,14,1,0
-4,-5,0,4,-3,-2,23,49,13,13,1,0
-4,-4,0,4,-3,-2,22,45,9,12,1,0
-4,-4,0,4,-3,-1,20,40,6,10,2,0
-3,-4,0,4,-2,-1,19,36,4,9,2,0
-3,-3,0,3,-2,-1,18,32,1,8,2,0
-3,-3,0,3,-2,-1,17,28,-1,7,2,0
-3,-3,-1,3,-1,-1,16,24,-4,5,1,0
-3,-4,-1,3,-1,-2,14,21,-6,4,1,0
-3,-5,-1,4,-2,-2,13,18,-9,2,0,0
-4,-6,-1,5,-2,-3,12,15,-11,1,-1,0
-6,-8,-1,7,-3,-4,10,12,-14,-1,-2,-1
-7,-9,-1,8,-4,-4,9,9,-15,-2,-2,-2
-6,-7,-1,6,-3,-3,10,8,-16,-2,-2,-1
-3,-4,-1,3,-2,-2,10,7,-16,-1,-1,-1
-3,-3,-1,2,-2,-1,10,6,-16,-2,-1,-1
-3,-3,-1,3,-2,-2,10,4,-17,-3,-2,-1
-4,-4,-1,4,-2,-2,9,2,-18,-4,-3,-2
-4,-4,-1,4,-2,-2,9,2,-18,-4,-3,-2
-4,-4,-1,4,-2,-2,8,1,-18,-5,-3,-2
-5,-5,-1,5,-2,-2,7,0,-19,-6,-4,-3
-5,-6,-1,5,-2,-3,7,-1,-19,-6,-5,-4
-5,-6,-1,5,-2,-4,6,-2,-20,-6,-5,-4
-4,-6,-1,4,-2,-4,6,-2,-20,-6,-5,-4
-4,-6,-1,4,-2,-4,6,-3,-20,-7,-5,-4
-4,-6,-1,4,-2,-4,6,-3,-19,-7,-5,-4
-4,-6,-1,4,-2,-4,6,-3,-19,-7,-5,-4
-4,-5,-1,4,-2,-3,6,-3,-19,-7,-5,-4
-4,-5,-1,4,-2,-3,6,-3,-19,-7,-6,-4
-4,-5,0,5,-2,-3,6,-4,-19,-7,-6,-4
-4,-5,0,5,-2,-3,6,-4,-19,-7,-6,-4
-5,-6,0,5,-2,-3,5,-5,-19,-8,-6,-4
-5,-6,0,5,-3,-3,5,-5,-18,-8,-6,-4
-6,-6,1,6,-3,-3,5,-5,-16,-8,-6,-4
-6,-6,1,6,-3,-3,5,-5,-16,-8,-6,-5
-6,-6,0,6,-3,-3,4,-5,-15,-9,-6,-5
-5,-6,0,5,-2,-3,4,-6,-15,-9,-6,-5
-5,-6,0,5,-2,-3,4,-6,-15,-9,-6,-5
-5,-7,0,6,-2,-3,4,-6,-14,-9,-6,-5
-5,-7,0,6,-2,-3,4,-7,-14,-9,-7,-5
-5,-7,-1,5,-2,-4,4,-7,-14,-9,-7,-6
-5,-7,-1,5,-2,-4,4,-7,-13,-9,-7,-6
-6,-7,-1,5,-2,-4,4,-8,-13,-9,-7,-6
-6,-7,-1,5,-2,-4,4,-8,-12,-9,-7,-6
-6,-7,0,6,-2,-4,4,-8,-11,-9,-7,-6
-6,-7,0,6,-2,-4,4,-8,-10,-9,-7,-6
-6,-7,0,6,-3,-4,4,-8,-9,-10,-7,-6
-6,-8,0,7,-3,-4,4,-8,-8,-10,-7,-6
-7,-8,0,8,-4,-4,4,-8,-7,-10,-7,-6
-8,-8,0,8,-4,-4,4,-9,-6,-11,-7,-6
-8,-8,0,8,-4,-4,4,-9,-5,-11,-7,-7
-7,-8,0,8,-4,-4,4,-9,-3,-12,-7,-7
-7,-8,0,8,-4,-4,4,-9,-2,-12,-8,-7
-7,-8,0,8,-4,-4,4,-9,1,-13,-8,-7
-6,-7,0,7,-3,-4,4,-9,6,-12,-8,-7
-5,-6,0,6,-3,-4,5,-9,10,-12,-7,-7
-4,-6,0,5,-2,-3,5,-9,11,-12,-7,-6
-5,-6,0,5,-3,-3,5,-9,10,-12,-7,-6
-5,-6,0,5,-3,-3,5,-9,9,-12,-7,-7
-6,-7,0,6,-3,-3,5,-9,8,-12,-8,-7
-6,-7,0,6,-3,-4,5,-9,7,-12,-8,-7
-6,-7,0,6,-3,-4,5,-9,6,-13,-9,-8
-7,-8,0,7,-3,-4,5,-9,6,-13,-9,-8
-8,-8,0,8,-4,-5,5,-9,5,-14,-9,-8
-8,-9,-1,8,-4,-5,5,-9,5,-14,-9,-9
-6,-8,-1,7,-3,-5,5,-8,5,-13,-9,-9
-5,-6,-1,6,-2,-4,6,-8,5,-13,-9,-8
-5,-6,0,5,-2,-3,6,-7,5,-13,-9,-8
-6,-6,0,6,-3,-3,7,-7,5,-13,-9,-8
-6,-6,0,6,-4,-3,7,-7,6,-13,-9,-8
-6,-6,0,5,-3,-3,8,-6,6,-13,-9,-8
-6,-6,0,5,-3,-3,9,-6,7,-12,-9,-8
-6,-6,0,5,-3,-3,9,-5,8,-12,-9,-8
-6,-6,1,5,-3,-2,9,-5,9,-12,-9,-8
-6,-6,1,5,-3,-2,10,-5,9,-12,-9,-8
-5,-5,1,5,-3,-2,10,-4,10,-11,-8,-7
-5,-4,2,4,-3,-1,11,-3,11,-10,-8,-7
-5,-4,2,4,-3,-1,11,-3,12,-10,-7,-7
-5,-4,2,4,-3,-1,12,-2,13,-9,-7,-7
-6,-4,2,4,-4,0,12,-2,14,-9,-7,-6
-6,-4,3,4,-4,0,12,-1,15,-8,-7,-6
-6,-4,3,5,-5,0,13,-1,16,-8,-7,-6
-6,-4,3,5,-5,0,13,-1,16,-7,-7,-6
-6,-4,3,6,-5,0,12,-1,17,-7,-7,-6
-6,-4,4,6,-5,0,12,-1,17,-6,-7,-6
-6,-3,4,5,-5,0,12,-1,17,-5,-6,-6
-6,-3,4,5,-5,0,11,-1,17,-5,-6,-6
-6,-2,3,4,-4,0,9,-1,17,-5,-6,-6
-5,-2,3,4,-4,0,8,-2,17,-5,-6,-6
-5,-2,3,4,-4,0,6,-3,17,-5,-6,-6
-5,-2,3,3,-4,0,5,-3,18,-5,-6,-6
-4,-2,3,3,-3,0,4,-3,18,-4,-6,-6
-4,-2,3,3,-3,0,4,-3,18,-4,-6,-6
-5,-2,3,3,-4,0,4,-3,18,-3,-6,-5
-5,-2,4,3,-4,1,4,-3,19,-3,-5,-5
-5,-1,4,2,-4,2,4,-2,19,-2,-4,-4
-5,0,5,2,-5,3,4,-2,20,-2,-4,-3
-5,1,6,2,-6,3,3,-2,20,-2,-3,-3
-6,1,7,2,-7,4,3,-2,20,-1,-3,-2
-6,1,7,2,-7,4,3,-2,20,-1,-2,-2
-5,1,6,1,-6,3,2,-3,20,-1,-2,-2
-4,1,5,1,-5,3,1,-4,20,-1,-3,-3
-5,0,5,2,-5,3,1,-4,19,-2,-3,-3
-6,0,6,2,-6,3,0,-4,19,-2,-3,-3
-5,0,5,2,-5,2,0,-5,19,-2,-4,-3
-4,0,4,1,-4,2,0,-6,18,-3,-4,-3
-2,1,3,0,-3,2,0,-6,18,-3,-4,-3
0,2,2,-1,-2,2,0,-6,18,-2,-3,-3
0,2,2,-2,-1,2,0,-6,18,-2,-3,-2
0,2,2,-2,-1,2,0,-6,18,-2,-2,-2
0,1,1,-1,-1,2,0,-6,18,-2,-2,-1
0,1,1,-1,-1,2,1,-5,19,-2,-2,-1
0,1,1,-1,-1,1,1,-4,19,-2,-2,-1
-1,1,1,0,-1,1,2,-4,19,-2,-2,-1
-1,0,1,0,-2,1,2,-3,19,-1,-2,-1
-3,-1,1,1,-2,0,3,-3,19,-1,-3,-2
-5,-4,1,4,-3,-1,4,-4,18,-2,-4,-3
-7,-7,0,6,-3,-3,3,-6,17,-4,-5,-5
-9,-9,0,8,-4,-4,3,-7,16,-5,-6,-6
-9,-10,-1,8,-4,-5,4,-7,15,-6,-7,-7
-7,-9,-2,7,-3,-5,4,-7,15,-6,-7,-7
-6,-8,-3,6,-2,-5,5,-7,15,-6,-7,-7
-6,-9,-3,6,-2,-6,5,-7,14,-6,-7,-7
-5,-9,-4,6,-1,-6,5,-8,14,-7,-7,-7
-5,-9,-4,6,-1,-6,5,-8,14,-7,-7,-7
-5,-10,-4,7,-1,-6,5,-9,13,-8,-8,-7
-6,-10,-4,8,-1,-6,6,-9,13,-8,-8,-7
-7,-11,-4,9,-1,-7,6,-10,12,-9,-9,-8
-8,-12,-4,9,-1,-7,6,-10,12,-10,-9,-8
-7,-12,-4,9,-1,-7,6,-11,12,-10,-9,-9
-7,-12,-3,9,-1,-7,6,-11,10,-11,-9,-9
-7,-12,-3,9,-2,-7,6,-11,5,-10,-9,-9
-7,-12,-4,9,-2,-7,6,-11,0,-10,-9,-9
-6,-11,-4,8,-1,-7,5,-12,-2,-10,-9,-9
-6,-11,-4,8,-1,-7,5,-12,-3,-10,-9,-9
-7,-11,-4,8,-1,-7,5,-12,-3,-10,-9,-9
-7,-11,-4,9,-1,-8,5,-12,-3,-10,-9,-9
-7,-11,-4,9,-1,-8,5,-12,-2,-10,-9,-9
-7,-11,-4,9,-1,-8,5,-13,0,-11,-9,-9
-7,-12,-4,9,-1,-8,5,-13,2,-11,-10,-10
-7,-12,-4,9,-1,-8,5,-14,5,-11,-10,-10
-7,-12,-4,10,-1,-8,4,-14,8,-11,-10,-10
-7,-12,-4,10,-1,-8,4,-15,9,-11,-10,-10
-7,-12,-4,9,-1,-8,4,-15,9,-12,-10,-10
-6,-12,-5,9,-1,-8,4,-15,9,-12,-10,-10
-6,-12,-5,9,-1,-8,4,-15,9,-12,-10,-10
-6,-12,-5,9,-1,-8,4,-15,8,-12,-10,-10
-6,-12,-5,9,-1,-8,4,-15,5,-11,-10,-10
-7,-11,-4,9,-1,-7,4,-15,1,-11,-9,-10
-7,-11,-4,9,-1,-7,4,-15,-1,-11,-9,-10
-7,-11,-5,9,-1,-8,4,-15,-3,-11,-10,-10
-7,-12,-5,9,0,-8,3,-15,-5,-11,-10,-10
-7,-12,-5,9,0,-8,3,-15,-6,-12,-10,-10
-8,-13,-5,9,-1,-8,3,-15,-7,-12,-10,-10
-8,-13,-5,9,-1,-8,3,-15,-8,-12,-10,-10
-7,-12,-5,9,-1,-8,3,-15,-8,-12,-10,-10
-6,-12,-5,8,0,-8,3,-15,-8,-12,-10,-10
-6,-12,-5,9,0,-8,3,-14,-8,-11,-10,-10
-6,-13,-5,9,0,-9,4,-13,-7,-11,-9,-10
-7,-13,-6,10,0,-9,6,-11,-6,-11,-9,-10
-6,-13,-7,9,0,-9,8,-7,-4,-11,-9,-10
-5,-13,-8,9,1,-9,12,0,-1,-11,-10,-11
-5,-13,-8,9,1,-10,17,10,4,-10,-10,-12
-5,-14,-8,9,1,-10,22,23,11,-9,-11,-13
-4,-13,-8,8,1,-10,28,38,22,-4,-9,-13
-1,-10,-8,5,3,-8,32,54,35,2,-5,-10
2,-5,-8,1,5,-6,33,69,49,12,1,-6
7,0,-7,-4,7,-3,30,79,64,24,11,1
13,7,-6,-11,9,1,25,89,80,39,24,10
20,16,-4,-19,12,6,20,100,98,58,40,21
28,26,-2,-27,14,12,13,107,115,77,57,34
37,36,-1,-37,18,18,1,109,128,96,76,48
47,48,1,-48,22,25,-15,104,139,117,96,63
56,61,5,-59,25,33,-32,93,145,136,116,79
64,74,10,-69,26,42,-48,76,147,153,134,94
70,86,16,-78,27,51,-66,55,147,169,151,108
75,98,23,-86,26,61,-85,32,146,184,168,122
79,110,30,-95,25,71,-104,6,143,197,183,135
81,121,39,-102,22,81,-125,-27,134,207,196,147
82,132,49,-107,16,91,-147,-66,121,214,206,158
80,141,60,-111,9,102,-167,-108,103,216,212,166
77,147,71,-113,2,110,-186,-150,79,211,213,170
72,151,79,-112,-3,116,-204,-192,49,198,208,171
67,149,83,-109,-8,117,-217,-227,16,177,195,166
61,141,81,-102,-9,111,-224,-250,-15,150,177,157
57,127,70,-93,-5,99,-226,-262,-47,114,152,142
55,107,52,-82,1,81,-224,-268,-82,67,119,121
50,84,34,-68,8,60,-215,-266,-114,15,81,95
42,60,18,-52,11,41,-201,-255,-136,-26,44,68
32,39,7,-36,11,25,-183,-238,-146,-54,14,43
23,22,0,-23,10,12,-162,-216,-145,-69,-7,22
15,8,-6,-12,10,1,-140,-192,-137,-74,-21,7
9,-2,-11,-4,10,-6,-120,-168,-126,-75,-29,-3
6,-10,-16,1,11,-12,-101,-147,-114,-73,-33,-11
3,-15,-18,5,10,-16,-83,-127,-101,-69,-36,-16
1,-19,-20,8,10,-18,-68,-108,-89,-65,-37,-19
1,-20,-21,9,10,-19,-54,-91,-77,-60,-36,-20
1,-21,-22,9,10,-20,-43,-77,-67,-55,-35,-21
1,-21,-22,9,11,-21,-34,-65,-59,-50,-34,-22
0,-21,-21,10,10,-21,-27,-55,-52,-47,-32,-22
-1,-21,-20,10,9,-20,-20,-46,-46,-43,-30,-21
-2,-21,-18,11,8,-19,-14,-39,-40,-39,-27,-20
-4,-21,-17,11,6,-18,-9,-32,-34,-36,-26,-19
-6,-21,-15,12,4,-17,-4,-27,-29,-33,-24,-19
-7,-20,-13,13,2,-16,0,-22,-25,-30,-23,-18
-7,-19,-11,12,1,-15,3,-17,-21,-28,-22,-18
-7,-19,-10,12,1,-14,6,-13,-18,-26,-21,-18
-8,-19,-10,13,0,-14,8,-10,-16,-24,-20,-18
-10,-20,-9,15,-1,-14,9,-7,-14,-23,-19,-18
-11,-20,-8,15,-2,-13,10,-6,-13,-22,-19,-17
-9,-18,-8,13,-1,-12,11,-4,-12,-22,-18,-17
-8,-16,-8,11,0,-11,12,-3,-10,-21,-18,-16
-7,-15,-8,10,0,-11,13,-2,-9,-20,-18,-16
-7,-16,-9,10,0,-11,14,-1,-9,-20,-18,-17
-7,-17,-9,12,0,-11,14,0,-8,-20,-18,-17
-8,-18,-9,13,0,-12,14,0,-8,-20,-18,-18
-9,-18,-8,13,0,-12,15,0,-8,-20,-18,-18
-10,-18,-8,13,-1,-12,15,1,-7,-19,-18,-18
-10,-17,-7,13,-1,-12,15,1,-6,-19,-18,-17
-10,-17,-7,13,-2,-12,16,2,-5,-19,-18,-17
-10,-17,-7,13,-2,-12,17,2,-4,-19,-18,-17
-9,-17,-7,13,-2,-12,17,2,-4,-19,-18,-17
-9,-18,-7,13,-2,-12,17,2,-4,-19,-18,-17
-10,-18,-7,13,-2,-12,17,3,-4,-19,-18,-17
-10,-18,-8,13,-1,-12,18,3,-4,-19,-18,-17
-10,-18,-8,14,-1,-12,18,4,-3,-19,-18,-18
-11,-18,-8,14,-1,-12,18,4,-3,-19,-18,-18
-10,-18,-8,13,-1,-12,18,5,-2,-19,-18,-18
-10,-18,-8,13,-1,-12,18,5,-2,-18,-18,-18
-10,-19,-8,14,-2,-12,19,5,-1,-18,-18,-18
-11,-19,-8,15,-2,-12,19,5,-1,-18,-18,-18
-11,-19,-8,15,-2,-12,19,6,-1,-18,-18,-18
-11,-19,-8,15,-2,-13,19,6,-1,-18,-18,-18
-11,-20,-8,16,-2,-13,19,7,0,-18,-18,-18
-11,-20,-8,15,-1,-13,19,8,0,-18,-19,-19
-10,-19,-8,14,-1,-13,20,9,0,-18,-19,-19
-10,-18,-7,14,-2,-12,21,10,1,-17,-18,-18
-10,-18,-6,14,-2,-11,21,10,2,-17,-18,-18
-11,-18,-7,15,-2,-11,21,11,2,-17,-18,-18
-11,-19,-7,15,-2,-12,21,12,3,-17,-18,-18
-11,-19,-7,15,-2,-12,22,13,3,-16,-18,-18
-11,-18,-7,15,-2,-12,23,15,4,-16,-18,-18
-11,-18,-8,14,-2,-12,23,16,5,-16,-18,-18
-10,-18,-8,14,-2,-12,23,17,5,-16,-18,-18
-10,-18,-8,14,-2,-13,24,18,6,-16,-18,-18
-10,-18,-8,14,-2,-12,24,20,7,-16,-18,-19
-10,-18,-8,14,-1,-12,25,21,8,-15,-18,-19
-9,-18,-8,14,-1,-12,26,23,9,-15,-18,-19
-9,-18,-8,14,-1,-12,27,24,10,-14,-18,-19
-9,-18,-8,14,-1,-12,28,26,11,-14,-18,-19
-9,-17,-8,13,-1,-12,28,28,12,-14,-18,-19
-9,-17,-8,13,-1,-12,29,30,14,-14,-18,-19
-9,-18,-8,13,-1,-13,29,32,15,-14,-18,-19
-9,-18,-8,13,-1,-13,30,34,17,-14,-18,-19
-9,-18,-8,13,0,-13,31,37,18,-14,-18,-19
-9,-17,-8,13,0,-12,32,39,20,-13,-18,-19
-9,-17,-8,13,0,-12,33,42,22,-12,-19,-19
-10,-18,-8,14,0,-13,34,45,24,-12,-19,-19
-10,-18,-8,14,-1,-13,35,48,25,-12,-19,-20
-11,-19,-9,15,-1,-13,35,51,27,-12,-19,-20
-11,-19,-9,15,-1,-13,36,54,29,-12,-19,-21
-11,-19,-9,15,-1,-13,38,57,32,-11,-19,-21
-10,-19,-9,15,-1,-13,40,61,35,-10,-19,-21
-10,-18,-9,14,0,-13,42,64,37,-10,-19,-21
-9,-18,-9,14,0,-13,43,68,40,-9,-20,-21
-9,-18,-9,14,0,-13,45,71,42,-8,-20,-21
-9,-18,-8,14,0,-12,46,74,45,-8,-19,-21
-9,-17,-8,13,0,-12,47,77,48,-7,-19,-20
-10,-16,-7,13,-1,-11,48,80,51,-5,-18,-20
-10,-17,-7,14,-1,-11,49,83,53,-4,-18,-20
-11,-17,-6,14,-2,-11,50,85,56,-3,-18,-20
-11,-17,-6,14,-2,-11,50,86,58,-2,-17,-19
-11,-17,-5,14,-3,-10,51,87,60,0,-17,-19
-12,-17,-5,15,-3,-10,51,88,61,0,-16,-18
-12,-17,-5,15,-4,-10,50,89,62,1,-16,-18
-12,-16,-5,14,-4,-10,50,89,63,2,-15,-18
-10,-14,-5,12,-3,-9,50,90,64,3,-13,-16
-8,-12,-4,11,-2,-8,50,89,65,5,-11,-15
-8,-12,-4,10,-2,-7,49,88,65,6,-10,-14
-8,-12,-4,10,-2,-7,49,86,65,7,-9,-14
-7,-11,-4,10,-2,-7,47,84,64,8,-8,-13
-6,-11,-4,9,-1,-7,46,81,63,8,-8,-13
-6,-10,-4,8,-1,-6,44,79,62,8,-7,-12
-5,-9,-3,8,-1,-6,43,76,61,8,-7,-12
-5,-9,-3,7,0,-5,41,73,59,8,-6,-11
-4,-8,-3,7,0,-5,39,69,57,9,-5,-10
-4,-8,-3,7,-1,-5,38,66,55,9,-4,-10
-4,-8,-3,7,-1,-5,36,61,52,9,-3,-9
-4,-8,-3,7,-1,-5,33,57,50,8,-3,-8
-4,-7,-3,6,-1,-4,31,52,47,8,-2,-7
-4,-7,-3,6,-1,-4,29,48,44,8,-2,-6
-4,-7,-3,6,-1,-4,27,44,41,8,-1,-6
-4,-6,-3,5,0,-4,26,40,38,8,0,-5
-2,-5,-3,4,0,-3,24,36,35,7,0,-4
-1,-4,-3,3,0,-3,22,32,32,6,0,-4
0,-4,-3,2,1,-3,20,27,28,5,1,-3
0,-4,-3,2,1,-3,19,23,25,4,1,-3
0,-4,-3,2,1,-3,17,20,22,3,1,-3
0,-4,-3,2,1,-3,16,16,19,2,0,-3
0,-4,-3,2,1,-3,15,13,17,1,0,-3
0,-4,-3,2,1,-3,13,10,14,0,0,-3
-1,-5,-3,3,1,-3,12,7,12,-1,0,-3
-1,-6,-3,4,1,-4,10,4,9,-2,-1,-4
-2,-7,-4,4,1,-4,9,2,7,-4,-1,-4
-2,-7,-4,4,1,-5,8,0,5,-5,-2,-4
-1,-7,-5,4,1,-5,7,-1,3,-5,-2,-4
-1,-7,-5,4,1,-5,7,-2,2,-6,-3,-4
-2,-7,-5,5,1,-5,6,-4,2,-6,-3,-4
-3,-8,-5,6,0,-6,6,-5,1,-7,-4,-5
-3,-8,-5,6,0,-6,5,-7,0,-7,-4,-5
-4,-9,-5,7,0,-6,4,-8,-1,-8,-4,-5
-3,-9,-5,6,1,-7,4,-9,-2,-9,-5,-6
-3,-9,-6,6,1,-7,4,-10,-3,-9,-5,-6
-3,-9,-6,6,1,-7,4,-10,-3,-9,-5,-6
-3,-9,-6,6,1,-7,4,-11,-4,-9,-5,-6
-3,-9,-6,6,1,-7,4,-11,-4,-9,-5,-6
-3,-9,-6,6,1,-7,4,-12,-5,-9,-5,-6
-3,-10,-6,6,1,-7,3,-12,-5,-9,-5,-6
-4,-10,-6,7,1,-7,3,-13,-5,-9,-5,-6
-4,-11,-5,7,0,-7,3,-13,-6,-10,-5,-6
-4,-11,-5,7,0,-7,3,-14,-6,-10,-6,-7
-4,-10,-5,7,0,-7,3,-14,-6,-10,-6,-7
-3,-9,-6,6,0,-7,3,-14,-6,-10,-5,-6
-2,-9,-6,6,1,-7,3,-14,-6,-10,-5,-6
-2,-9,-6,6,1,-7,3,-14,-6,-10,-5,-6
-2,-9,-6,6,1,-7,2,-14,-6,-10,-5,-6
-3,-9,-6,6,1,-7,2,-14,-6,-10,-5,-6
-3,-9,-6,6,1,-7,2,-15,-6,-10,-5,-6
-3,-9,-6,6,1,-7,2,-15,-7,-10,-5,-6
-3,-9,-6,7,1,-7,2,-15,-7,-10,-5,-6
-3,-10,-6,7,0,-7,1,-15,-7,-10,-5,-6
-3,-10,-5,7,0,-7,1,-15,-7,-10,-5,-6
-4,-10,-5,7,0,-7,1,-15,-7,-10,-5,-6
-3,-10,-5,7,1,-7,1,-15,-7,-10,-5,-6
-2,-9,-6,6,1,-7,1,-15,-7,-10,-5,-6
-2,-9,-6,5,2,-7,1,-15,-7,-10,-5,-6
-2,-9,-6,6,1,-7,1,-16,-7,-10,-5,-6
-3,-9,-6,6,1,-7,0,-16,-7,-10,-5,-6
-4,-9,-6,7,0,-7,0,-16,-7,-10,-5,-6
-4,-9,-6,7,0,-7,0,-16,-7,-10,-5,-6
-4,-10,-6,7,0,-7,0,-16,-7,-10,-5,-6
-4,-11,-7,8,0,-8,0,-16,-7,-10,-5,-7
-4,-11,-7,8,0,-8,0,-16,-7,-10,-5,-7
-5,-12,-6,8,0,-9,0,-16,-7,-10,-5,-7
-5,-12,-6,9,0,-9,0,-15,-7,-10,-5,-7
-5,-11,-6,8,0,-8,0,-15,-7,-10,-5,-6
-3,-10,-6,7,1,-7,1,-14,-6,-10,-5,-6
-2,-9,-6,6,1,-7,1,-14,-6,-10,-5,-6
-2,-9,-6,6,1,-7,1,-14,-6,-10,-5,-6
-2,-9,-6,6,0,-7,1,-14,-6,-10,-5,-6
-3,-9,-5,7,0,-7,2,-14,-6,-9,-5,-6
-4,-9,-5,7,0,-7,2,-13,-5,-9,-5,-6
-4,-9,-5,7,0,-7,3,-13,-5,-9,-5,-6
-3,-9,-5,7,0,-7,3,-13,-5,-10,-5,-6
-4,-10,-6,7,0,-8,3,-13,-5,-10,-6,-7
-4,-10,-6,7,0,-8,3,-13,-5,-10,-6,-8
-4,-9,-6,7,0,-8,4,-12,-4,-10,-6,-7
-3,-9,-6,6,0,-7,5,-12,-4,-10,-6,-7
-3,-9,-5,6,0,-7,5,-11,-4,-10,-6,-7
-3,-8,-5,6,0,-7,6,-10,-4,-9,-6,-7
-3,-8,-5,6,0,-6,6,-10,-3,-9,-5,-6
-3,-8,-5,6,0,-6,7,-9,-3,-9,-5,-6
-3,-8,-5,6,0,-6,8,-8,-2,-9,-5,-6
-4,-8,-5,6,0,-6,9,-7,-2,-9,-5,-6
-4,-7,-4,6,-1,-5,10,-7,-2,-8,-5,-6
-4,-7,-3,5,-1,-5,11,-6,-2,-8,-5,-6
-3,-7,-3,5,-1,-5,12,-6,-1,-8,-5,-6
-3,-6,-3,5,-1,-5,12,-5,-1,-8,-5,-6
-3,-6,-3,5,-1,-5,13,-5,0,-8,-5,-6
-3,-7,-3,5,-1,-5,13,-5,0,-7,-5,-6
-4,-7,-3,5,-1,-5,13,-4,0,-7,-5,-6
-4,-6,-3,5,-1,-4,13,-4,0,-7,-5,-6
-3,-6,-3,5,-1,-4,13,-4,0,-7,-5,-6
-3,-6,-2,5,-2,-4,13,-4,0,-7,-5,-6
-4,-6,-2,5,-2,-4,13,-4,0,-7,-5,-6
-4,-6,-1,5,-2,-3,12,-4,0,-7,-5,-6
-3,-5,-1,5,-2,-3,11,-4,0,-7,-5,-6
-2,-5,-1,4,-1,-3,9,-5,0,-7,-5,-6
-2,-5,-1,4,-1,-3,8,-5,0,-7,-5,-6
-2,-5,-1,4,-1,-3,7,-5,0,-6,-5,-6
-2,-4,-1,4,-1,-3,6,-5,0,-6,-5,-6
-3,-4,-1,4,-2,-3,6,-5,0,-6,-5,-6
-3,-4,0,4,-2,-2,6,-5,0,-6,-5,-6
-4,-4,0,4,-2,-2,5,-6,1,-5,-5,-5
-4,-4,1,4,-3,-1,5,-6,1,-5,-5,-5
-4,-3,1,4,-3,0,5,-6,2,-4,-4,-5
-4,-3,2,4,-3,0,4,-6,2,-4,-4,-5
-4,-3,2,4,-3,0,3,-7,2,-4,-4,-5
-4,-2,2,4,-3,0,3,-7,2,-4,-4,-5
-4,-2,2,3,-3,0,2,-8,1,-4,-4,-5
-4,-2,2,3,-3,0,1,-8,1,-5,-4,-5
-4,-2,2,3,-3,0,1,-9,0,-5,-4,-5
-3,-1,2,2,-3,1,0,-9,0,-5,-4,-5
-2,-1,1,2,-3,1,0,-9,0,-5,-4,-5
-2,-1,1,2,-2,0,0,-9,0,-5,-5,-5
-1,-1,0,1,-1,0,-1,-9,0,-5,-5,-5
0,-1,0,1,-1,0,-1,-10,0,-5,-5,-5
0,0,0,0,-1,0,-1,-10,0,-5,-5,-4
0,0,0,0,0,0,-1,-10,0,-5,-5,-4
1,0,0,0,0,0,0,-10,0,-5,-4,-4
1,1,0,-1,0,1,0,-9,0,-5,-4,-4
1,1,1,-1,0,1,0,-9,0,-5,-3,-3
0,1,1,0,0,1,0,-9,0,-5,-3,-4
-1,0,1,1,-1,1,1,-9,0,-5,-4,-4
-2,-1,1,2,-2,0,2,-9,0,-5,-4,-5
-3,-2,1,3,-2,0,2,-8,0,-6,-5,-6
-3,-2,1,3,-2,0,3,-8,0,-6,-6,-7
-3,-3,0,4,-2,-1,3,-8,0,-7,-7,-8
-4,-5,-1,5,-1,-3,3,-9,-1,-8,-8,-8
-4,-6,-2,6,-1,-4,4,-9,-1,-8,-8,-9
-5,-8,-3,6,-1,-5,4,-10,-2,-9,-9,-9
-5,-9,-3,8,-1,-6,4,-10,-2,-9,-9,-9
-6,-10,-4,9,-1,-7,4,-11,-3,-9,-9,-9
-5,-10,-4,8,0,-7,4,-11,-3,-9,-9,-9
-5,-10,-4,8,0,-7,4,-11,-3,-9,-9,-9
-6,-11,-4,9,-1,-7,4,-12,-3,-9,-9,-10
-6,-11,-4,9,-1,-8,4,-12,-4,-10,-10,-10
-6,-11,-4,9,-1,-8,4,-12,-4,-10,-10,-11
-6,-11,-4,9,-1,-7,4,-13,-5,-11,-10,-11
-5,-10,-5,8,-1,-7,3,-13,-5,-11,-10,-12
-4,-10,-5,8,0,-7,3,-13,-5,-12,-10,-12
-4,-10,-5,8,0,-7,2,-14,-6,-12,-11,-12
-5,-11,-5,8,-1,-7,2,-14,-6,-12,-11,-12
-5,-11,-5,8,-1,-7,2,-14,-5,-12,-11,-12
-5,-11,-5,8,0,-7,2,-14,-5,-12,-11,-12
-6,-11,-5,8,0,-8,2,-14,-5,-12,-11,-13
-6,-11,-5,9,-1,-8,3,-14,-5,-12,-11,-13
-6,-11,-4,9,-1,-7,3,-13,-5,-12,-11,-12
-6,-11,-4,9,-1,-7,3,-13,-5,-12,-11,-12
-6,-11,-4,9,-1,-7,3,-13,-6,-12,-11,-12
-5,-10,-4,8,-1,-7,3,-13,-6,-12,-11,-12
-5,-10,-4,8,-1,-7,3,-13,-5,-12,-11,-12
-6,-10,-4,8,-1,-7,3,-13,-5,-12,-11,-12
-6,-10,-5,9,-1,-7,3,-13,-5,-12,-11,-13
-6,-10,-5,8,-1,-7,3,-13,-5,-12,-11,-13
-5,-10,-5,8,-1,-7,3,-12,-5,-12,-11,-13
-5,-10,-5,8,-1,-7,3,-12,-5,-12,-11,-13
-5,-10,-5,8,-1,-7,3,-12,-5,-12,-11,-13
-5,-11,-5,8,-1,-7,3,-12,-5,-12,-11,-12
-6,-11,-5,8,-1,-7,3,-12,-5,-11,-10,-12
-6,-11,-5,8,0,-8,3,-12,-5,-11,-10,-12
-6,-11,-6,8,0,-8,3,-12,-5,-11,-10,-12
-6,-12,-6,9,0,-9,3,-12,-5,-10,-10,-12
-6,-12,-6,9,0,-9,3,-12,-5,-10,-10,-12
-5,-11,-6,8,0,-9,4,-11,-4,-10,-10,-12
-4,-10,-6,7,1,-8,4,-10,-4,-10,-9,-12
-3,-10,-7,7,1,-8,4,-10,-4,-10,-9,-12
-3,-10,-7,7,1,-8,5,-9,-4,-10,-10,-13
-3,-10,-7,7,1,-8,6,-7,-3,-10,-10,-13
-4,-11,-8,7,2,-9,9,-3,-2,-10,-11,-14
-4,-12,-9,8,2,-10,12,3,0,-9,-11,-14
-4,-13,-10,8,3,-11,17,13,4,-9,-12,-15
-4,-13,-10,8,3,-11,24,26,12,-7,-12,-16
-3,-11,-9,7,2,-10,31,41,22,-3,-11,-15
-2,-9,-7,5,2,-8,36,57,34,3,-7,-13
1,-5,-7,2,3,-6,37,72,48,12,-1,-9
6,0,-6,-3,5,-3,35,84,62,23,7,-2
12,7,-5,-10,8,1,30,95,77,37,19,6
19,16,-4,-18,11,6,24,106,94,54,34,17
28,26,-2,-27,15,12,16,115,111,73,51,30
38,38,0,-38,19,19,3,118,125,92,70,44
48,50,2,-49,22,26,-14,116,137,112,89,58
57,63,5,-60,25,34,-32,107,146,132,109,73
64,75,9,-70,27,42,-50,93,151,150,127,88
71,86,13,-79,28,50,-68,74,152,165,145,102
78,98,18,-88,29,58,-88,52,152,179,161,115
84,109,25,-96,29,67,-108,26,150,192,176,128
87,120,32,-104,27,76,-130,-5,144,203,190,141
88,131,42,-109,23,87,-153,-42,133,211,201,152
86,140,53,-113,16,97,-175,-83,118,215,208,161
83,146,63,-114,10,105,-195,-125,98,214,211,166
80,152,71,-116,4,112,-213,-166,72,205,208,168
78,153,75,-116,1,114,-226,-201,43,188,198,166
75,147,71,-111,1,109,-234,-225,13,163,183,157
72,132,60,-102,5,96,-236,-239,-18,131,160,143
69,112,43,-91,12,78,-233,-247,-54,87,130,124
64,89,25,-76,19,57,-224,-249,-89,36,93,99
54,65,10,-60,22,38,-209,-241,-116,-7,56,72
43,43,-1,-43,22,21,-189,-226,-130,-38,24,46
32,25,-8,-28,20,8,-167,-206,-133,-56,0,24
23,10,-13,-16,18,-2,-144,-183,-128,-65,-15,7
16,-1,-18,-8,17,-10,-122,-160,-119,-67,-25,-4
12,-9,-21,-1,16,-15,-102,-139,-109,-67,-31,-12
8,-14,-23,2,15,-18,-83,-120,-99,-65,-34,-17
6,-17,-24,5,14,-20,-67,-102,-88,-61,-35,-20
5,-19,-25,7,14,-22,-54,-86,-77,-56,-35,-22
4,-20,-25,8,14,-22,-42,-72,-68,-52,-34,-23
2,-21,-25,8,13,-22,-33,-60,-61,-48,-33,-24
1,-21,-24,9,12,-22,-26,-51,-54,-45,-32,-24
0,-21,-23,9,11,-22,-19,-43,-49,-42,-31,-24
0,-21,-21,9,10,-21,-12,-35,-43,-39,-28,-24
-1,-20,-19,9,8,-19,-5,-27,-37,-36,-26,-23
-2,-19,-17,10,6,-17,0,-21,-32,-33,-25,-22
-3,-18,-15,10,4,-15,4,-15,-27,-29,-24,-21
-4,-17,-13,11,3,-14,7,-10,-23,-26,-23,-20
-6,-18,-13,11,3,-14,9,-6,-20,-24,-22,-20
-7,-18,-12,12,2,-15,11,-4,-19,-23,-22,-20
-8,-19,-12,13,1,-15,13,-2,-17,-23,-21,-20
-8,-19,-11,13,1,-15,14,0,-16,-22,-20,-20
-8,-18,-10,13,1,-14,15,1,-14,-21,-19,-20
-8,-18,-10,13,0,-14,16,2,-13,-21,-19,-19
-8,-18,-9,13,0,-13,17,3,-12,-20,-18,-19
-8,-17,-9,12,0,-13,17,5,-11,-19,-18,-18
-7,-16,-9,12,0,-13,17,6,-11,-18,-18,-18
-8,-17,-9,12,0,-13,18,7,-10,-19,-18,-19
-8,-17,-8,12,0,-13,18,8,-10,-19,-19,-19
-8,-17,-9,12,0,-13,19,9,-10,-19,-19,-20
-8,-17,-10,12,1,-13,19,9,-9,-19,-19,-20
-8,-17,-10,12,1,-13,20,10,-9,-19,-19,-20
-9,-17,-9,13,0,-13,20,11,-8,-19,-19,-20
-10,-18,-8,13,-1,-13,21,11,-7,-19,-19,-20
-11,-18,-8,14,-2,-13,21,12,-7,-18,-19,-20
-11,-18,-8,14,-2,-13,21,12,-7,-18,-19,-20
-10,-17,-8,13,-1,-13,22,13,-7,-18,-18,-19
-9,-17,-9,13,-1,-13,22,13,-6,-17,-18,-19
-9,-17,-9,13,0,-14,22,14,-3,-17,-18,-19
-9,-18,-9,14,0,-14,22,14,0,-17,-18,-19
-9,-18,-10,14,0,-14,22,15,2,-17,-18,-19
-9,-18,-10,13,0,-14,22,15,4,-18,-18,-19
-9,-18,-10,13,0,-14,22,16,4,-18,-18,-19
-9,-18,-9,13,0,-14,22,16,5,-18,-19,-20
-9,-18,-9,13,0,-14,21,17,5,-18,-19,-20
-9,-17,-9,13,0,-13,22,17,6,-17,-18,-20
-8,-16,-9,12,0,-13,22,18,6,-17,-18,-20
-7,-15,-8,11,0,-12,23,19,5,-17,-17,-19
-7,-15,-8,11,0,-12,23,20,5,-16,-17,-19
-7,-15,-8,11,0,-12,23,21,5,-16,-17,-18
-8,-15,-8,12,0,-12,23,21,4,-16,-17,-18
-8,-16,-9,12,0,-13,24,22,4,-16,-17,-18
-8,-16,-9,12,0,-14,24,23,4,-16,-17,-18
-8,-17,-10,13,0,-14,24,24,5,-16,-17,-19
-8,-17,-10,13,0,-14,24,25,5,-16,-17,-19
-9,-18,-10,13,0,-14,24,26,5,-16,-18,-20
-9,-18,-9,14,0,-14,25,27,5,-16,-18,-20
-9,-17,-9,13,0,-13,25,29,5,-16,-18,-21
-8,-16,-9,12,0,-13,26,31,6,-16,-18,-21
-8,-16,-8,12,0,-12,27,33,7,-15,-18,-20
-8,-15,-8,12,0,-12,28,35,8,-15,-18,-20
-8,-16,-8,12,0,-12,28,37,8,-15,-18,-20
-8,-16,-8,12,0,-12,29,39,8,-15,-18,-20
-8,-16,-8,12,0,-12,30,41,8,-15,-18,-20
-8,-16,-9,12,0,-13,31,43,9,-15,-18,-20
-8,-16,-9,12,0,-13,31,45,10,-15,-19,-20
-8,-16,-8,12,0,-13,32,47,11,-15,-20,-21
-8,-16,-8,12,0,-13,32,50,12,-15,-20,-21
-8,-16,-8,11,0,-13,33,53,14,-14,-20,-20
-7,-16,-9,11,0,-13,35,56,15,-14,-20,-20
-8,-16,-9,12,0,-14,36,60,17,-14,-20,-21
-8,-17,-9,12,0,-14,37,64,20,-14,-20,-21
-9,-17,-9,13,0,-14,38,67,22,-14,-20,-21
-9,-18,-9,13,0,-14,39,70,24,-14,-20,-21
-9,-17,-9,13,0,-14,40,73,26,-13,-20,-21
-9,-17,-9,13,0,-14,41,76,28,-12,-20,-21
-9,-17,-9,13,0,-14,42,79,30,-11,-20,-21
-9,-17,-9,13,0,-14,43,82,32,-10,-20,-21
-9,-17,-9,13,0,-14,44,85,34,-10,-20,-22
-9,-17,-9,13,0,-14,45,88,36,-9,-20,-22
-9,-17,-8,13,-1,-13,45,91,39,-9,-20,-23
-9,-16,-7,13,-1,-12,46,93,41,-8,-20,-23
-9,-15,-6,12,-2,-11,46,94,43,-7,-20,-23
-9,-14,-5,12,-2,-11,46,96,45,-6,-20,-23
-9,-14,-5,12,-3,-11,46,97,47,-5,-20,-23
-9,-14,-4,12,-3,-10,47,99,49,-4,-20,-22
-9,-13,-4,11,-3,-10,47,100,50,-3,-19,-21
-8,-12,-4,10,-2,-9,47,100,51,-2,-17,-20
-8,-12,-4,10,-2,-9,47,99,52,-1,-16,-19
-9,-12,-4,11,-3,-9,46,98,52,0,-15,-18
-9,-12,-3,11,-3,-9,44,96,52,1,-14,-17
-9,-12,-3,11,-3,-9,43,94,52,2,-12,-16
-7,-11,-4,9,-2,-8,42,93,52,4,-11,-15
-6,-10,-4,8,-1,-8,41,91,51,5,-10,-14
-5,-9,-4,7,0,-7,40,88,50,6,-9,-13
-4,-7,-3,6,0,-6,39,85,49,6,-8,-12
-4,-6,-2,5,0,-5,37,82,46,6,-7,-11
-3,-5,-2,4,0,-4,34,77,44,6,-7,-11
-3,-4,-1,4,0,-4,31,73,41,6,-6,-10
-2,-3,-1,3,0,-3,29,68,39,6,-6,-10
-2,-3,-1,2,0,-3,28,64,38,6,-5,-9
-1,-2,-1,2,0,-3,27,60,36,6,-4,-8
-1,-2,-1,2,0,-3,25,56,33,6,-3,-7
-1,-2,-1,1,0,-3,24,51,30,6,-2,-6
0,-1,-1,1,0,-2,22,46,27,6,0,-5
0,-1,-1,0,1,-2,20,41,23,6,0,-4
0,-1,-2,0,1,-2,19,37,20,5,1,-4
0,-1,-2,0,1,-2,17,33,17,4,1,-4
1,-2,-3,0,2,-3,16,29,14,3,0,-4
1,-2,-4,0,2,-4,15,25,11,2,0,-4
1,-2,-4,0,2,-3,14,21,8,1,0,-4
1,-1,-3,0,1,-3,13,18,5,0,0,-4
1,-1,-2,0,1,-2,12,15,3,0,0,-4
1,-1,-3,0,1,-2,11,12,0,-1,0,-4
1,-2,-3,1,1,-3,10,9,-1,-2,0,-4
1,-2,-4,1,2,-3,9,7,-3,-3,0,-4
1,-2,-4,1,2,-3,8,5,-5,-4,-1,-4
0,-3,-4,1,1,-3,7,2,-7,-5,-2,-4
0,-3,-4,2,1,-4,6,0,-10,-6,-3,-4
-1,-3,-3,2,0,-4,5,-1,-12,-7,-4,-5
-1,-3,-3,2,0,-4,4,-3,-14,-8,-4,-6
-2,-3,-2,2,0,-4,3,-4,-15,-8,-5,-7
-2,-3,-2,2,0,-4,3,-5,-16,-8,-5,-7
-1,-3,-2,2,0,-4,2,-6,-16,-9,-5,-7
-1,-3,-2,2,0,-4,2,-6,-17,-10,-6,-8
-1,-3,-2,2,0,-4,2,-7,-17,-10,-6,-8
0,-3,-2,2,0,-3,2,-7,-18,-10,-6,-7
0,-2,-2,1,0,-3,3,-8,-18,-10,-6,-7
-1,-3,-3,2,0,-4,3,-8,-19,-10,-6,-7
-1,-4,-3,3,0,-4,3,-9,-19,-10,-6,-8
-1,-4,-3,3,1,-4,3,-9,-20,-10,-6,-7
0,-3,-3,2,1,-4,3,-9,-20,-9,-5,-7
0,-3,-3,2,1,-4,3,-9,-21,-9,-5,-6
0,-3,-3,2,0,-4,2,-9,-22,-9,-5,-6
-1,-3,-3,2,0,-3,2,-10,-23,-9,-5,-6
-1,-3,-3,2,0,-3,2,-10,-24,-9,-5,-6
-1,-3,-2,2,0,-3,2,-10,-25,-9,-5,-6
-1,-3,-2,2,0,-2,2,-10,-25,-9,-6,-6
-1,-2,-2,1,0,-2,2,-11,-25,-9,-6,-6
-1,-2,-2,1,0,-2,1,-11,-26,-9,-6,-6
-1,-2,-2,1,0,-2,1,-11,-25,-9,-6,-6
-1,-2,-2,1,0,-3,1,-11,-24,-10,-6,-7
-1,-3,-2,1,0,-3,1,-11,-23,-10,-6,-7
-1,-3,-2,2,0,-4,1,-11,-24,-10,-6,-7
-2,-4,-2,2,0,-4,0,-12,-26,-10,-6,-7
-2,-4,-2,3,0,-4,0,-12,-27,-10,-6,-7
-2,-4,-2,3,0,-4,-1,-13,-28,-10,-6,-7
-3,-5,-1,4,0,-4,-1,-13,-29,-10,-6,-7
-4,-5,-1,4,-1,-4,-1,-13,-29,-10,-6,-7
-3,-5,-1,3,0,-3,-1,-12,-28,-10,-6,-6
-1,-3,-1,2,0,-3,0,-11,-28,-9,-5,-6
0,-2,-1,1,0,-2,0,-11,-27,-8,-5,-5
1,-1,-1,0,1,-2,0,-10,-27,-8,-5,-5
1,-1,-1,0,1,-2,0,-10,-27,-8,-5,-5
1,-1,-2,0,1,-2,1,-9,-27,-8,-5,-5
1,-1,-2,0,1,-2,1,-9,-26,-9,-5,-5
1,-1,-2,0,1,-2,1,-9,-26,-9,-5,-5
0,-1,-1,0,1,-2,2,-9,-26,-9,-5,-5
0,-1,-1,1,0,-2,2,-9,-26,-9,-5,-5
-1,-1,-1,1,0,-2,1,-9,-26,-9,-5,-5
-1,-1,-1,1,0,-2,1,-9,-26,-10,-6,-6
-2,-2,-1,2,0,-2,2,-9,-26,-10,-7,-6
-2,-2,-1,2,0,-2,2,-9,-25,-10,-7,-6
-1,-2,-1,2,0,-2,2,-8,-25,-10,-7,-5
0,-2,-1,1,0,-2,2,-8,-25,-10,-6,-5
0,-1,-1,0,1,-2,2,-7,-26,-10,-7,-5
0,-2,-1,1,1,-2,2,-7,-27,-10,-7,-5
0,-2,-1,1,1,-2,2,-7,-27,-10,-7,-6
0,-2,-1,1,1,-2,3,-7,-26,-9,-7,-6
0,-2,-1,2,0,-3,3,-6,-25,-9,-8,-6
0,-2,-1,2,0,-3,4,-6,-25,-9,-8,-6
0,-2,-1,1,0,-3,5,-5,-24,-9,-8,-6
-1,-2,-1,1,0,-2,5,-5,-24,-9,-8,-5
-1,-2,-1,1,0,-2,5,-5,-25,-10,-8,-5
-1,-1,0,1,0,-2,6,-5,-26,-10,-8,-5
-1,-1,0,1,0,-1,6,-5,-26,-10,-8,-6
-1,-1,0,1,0,-1,6,-5,-25,-10,-8,-6
-1,0,0,1,0,-1,7,-4,-24,-9,-8,-6
-1,0,0,0,0,0,8,-3,-24,-8,-7,-5
-1,0,0,0,0,0,9,-2,-24,-7,-7,-5
-1,0,1,0,-1,0,10,-1,-23,-6,-6,-4
-2,0,2,0,-1,1,11,0,-23,-5,-6,-4
-2,1,2,0,-2,1,12,0,-22,-5,-5,-4
-2,1,2,0,-2,1,12,0,-21,-4,-5,-3
-1,0,2,0,-1,1,13,0,-21,-4,-5,-3
-1,0,1,1,-1,0,13,1,-21,-5,-5,-3
-1,0,1,1,-1,0,14,1,-22,-5,-5,-3
-1,0,1,1,-1,0,15,2,-22,-4,-5,-3
-1,0,1,1,-1,0,15,2,-22,-4,-5,-3
-1,0,1,1,-1,0,15,2,-22,-4,-5,-3
-1,0,1,1,-1,0,15,2,-22,-4,-6,-3
-1,0,2,1,-1,0,15,2,-22,-4,-6,-2
-1,0,2,0,-2,0,14,1,-22,-4,-6,-2
-2,1,3,0,-2,1,12,1,-22,-4,-6,-1
-2,1,4,0,-3,2,10,0,-22,-5,-7,-1
-2,2,4,0,-3,2,9,-1,-23,-5,-7,-1
-2,2,4,0,-3,2,7,-1,-23,-5,-7,-2
-2,2,4,0,-2,2,6,-1,-23,-5,-7,-2
-2,2,4,0,-2,2,6,-1,-23,-4,-6,-2
-2,2,4,0,-3,2,5,-1,-23,-4,-6,-1
-3,2,5,0,-4,2,5,-1,-23,-3,-6,0
-4,2,6,1,-5,3,5,-1,-23,-3,-6,1
-4,3,7,0,-5,4,5,-1,-22,-3,-5,2
-2,5,7,-1,-4,5,6,-1,-21,-2,-4,3
0,6,6,-3,-3,5,6,0,-21,-1,-3,4
0,6,6,-3,-2,5,5,-1,-21,-1,-3,4
0,5,5,-2,-2,4,5,-1,-21,-1,-2,4
0,5,5,-2,-2,4,4,-2,-21,-1,-2,4
0,6,6,-3,-2,5,3,-2,-22,-1,-2,4
0,6,6,-3,-2,5,2,-3,-22,-1,-2,4
0,7,6,-4,-2,6,2,-4,-23,-1,-3,4
0,7,6,-3,-3,6,1,-5,-23,-2,-3,5
0,6,6,-2,-3,5,0,-6,-24,-2,-4,5
-1,6,6,-2,-3,5,0,-7,-25,-3,-4,5
0,6,6,-2,-2,5,-1,-8,-26,-4,-4,5
2,7,5,-4,-1,6,-1,-7,-25,-4,-3,6
3,8,4,-6,0,6,0,-6,-24,-3,-3,7
4,8,4,-6,0,5,0,-5,-23,-2,-2,7
3,7,3,-5,1,5,1,-5,-23,-1,-2,8
3,7,3,-5,1,4,2,-4,-22,-1,-2,8
3,7,3,-5,1,4,2,-4,-22,-1,-2,9
2,6,3,-4,0,4,3,-4,-22,-1,-2,9
1,5,4,-3,-1,4,4,-4,-22,-2,-2,9
0,3,3,-1,-1,2,5,-5,-23,-3,-3,9
-1,1,2,0,-1,1,5,-5,-24,-4,-4,8
-2,0,2,1,-1,0,4,-6,-25,-4,-4,8
-2,-1,1,2,-1,0,4,-6,-25,-5,-5,7
-2,-1,1,2,-1,-1,4,-7,-25,-5,-5,7
-2,-2,0,2,0,-1,4,-7,-25,-5,-5,7
-3,-3,0,4,-1,-2,4,-7,-25,-5,-5,7
-4,-4,0,5,-1,-2,4,-7,-26,-6,-5,7
-4,-4,0,5,-1,-3,4,-7,-26,-7,-6,6
-4,-4,0,4,-1,-3,4,-7,-27,-7,-6,6
-3,-4,0,4,-1,-3,5,-7,-27,-8,-7,6
-3,-4,0,4,-1,-3,5,-7,-27,-8,-8,5
-3,-4,0,4,-1,-3,6,-7,-27,-8,-8,5
-3,-4,0,4,-1,-3,6,-8,-28,-8,-8,5
-4,-4,0,4,-1,-4,5,-8,-28,-8,-8,5
-4,-5,0,5,-1,-4,5,-8,-29,-9,-8,6
-4,-6,-1,5,-1,-4,5,-8,-29,-9,-8,7
-4,-6,-1,5,-1,-4,5,-9,-28,-8,-8,8
-4,-6,-1,5,-1,-4,5,-9,-28,-8,-7,8
-4,-7,-1,5,-1,-5,5,-9,-28,-8,-8,8
-5,-8,-2,6,-1,-6,5,-10,-28,-8,-9,7
-5,-9,-2,7,0,-6,4,-10,-29,-8,-9,6
-4,-8,-3,6,0,-6,4,-9,-29,-8,-9,6
-3,-6,-2,5,0,-5,4,-9,-29,-8,-9,6
-3,-5,-1,4,0,-3,4,-10,-29,-8,-8,7
-3,-4,0,4,0,-3,4,-10,-30,-8,-8,7
-3,-4,0,3,0,-2,3,-10,-30,-8,-8,8
-3,-4,0,3,0,-2,3,-10,-29,-8,-8,8
-3,-4,0,3,0,-2,4,-9,-29,-8,-8,9
-3,-4,0,3,0,-2,4,-9,-29,-8,-8,9
-4,-4,0,4,-1,-2,4,-9,-29,-8,-8,9
-4,-5,0,4,-1,-2,4,-9,-29,-8,-8,9
-4,-5,0,4,-1,-3,4,-9,-28,-8,-7,8
-3,-5,-1,4,0,-3,4,-8,-28,-7,-7,8
-3,-5,-1,4,0,-4,5,-8,-28,-7,-7,8
-4,-6,-2,5,0,-5,5,-8,-28,-7,-7,8
-4,-7,-2,6,0,-5,6,-8,-28,-7,-7,8
-4,-7,-2,6,0,-5,6,-8,-28,-7,-7,8
-4,-7,-2,6,0,-5,6,-8,-28,-6,-7,8
-4,-6,-2,5,0,-5,6,-9,-28,-7,-8,8
-3,-6,-3,5,1,-5,6,-9,-29,-7,-8,8
-3,-6,-3,4,1,-5,5,-8,-29,-8,-9,8
-2,-5,-2,4,0,-4,5,-7,-28,-8,-9,8
-2,-4,-2,3,0,-3,6,-6,-28,-7,-9,8
-2,-4,-2,3,0,-3,8,-3,-26,-7,-9,7
-2,-5,-2,4,1,-4,11,2,-24,-7,-10,7
-1,-6,-4,4,2,-5,15,10,-20,-6,-10,6
-1,-7,-4,4,2,-6,20,21,-13,-5,-10,6
-1,-6,-4,3,2,-5,26,36,-3,-1,-9,6
0,-4,-4,2,3,-4,31,52,9,5,-5,8
3,-1,-4,0,4,-3,33,67,22,13,0,12
8,3,-5,-5,7,-2,31,77,34,22,7,17
15,9,-5,-11,10,1,26,83,45,34,18,24
23,17,-4,-20,13,5,20,90,58,49,32,35
32,27,-4,-29,18,10,13,94,71,66,49,48
42,38,-4,-39,23,15,3,95,82,83,68,63
53,50,-3,-51,29,22,-10,89,90,102,88,79
64,62,-1,-62,33,30,-26,75,94,120,110,96
72,74,2,-72,35,37,-40,56,94,136,130,112
79,85,6,-81,37,44,-55,33,90,149,147,126
84,95,11,-89,37,52,-71,9,85,161,163,138
89,106,17,-97,37,60,-86,-16,79,172,177,150
93,117,24,-104,35,70,-102,-46,69,181,189,162
93,127,34,-109,30,80,-119,-81,55,186,200,172
89,137,47,-112,22,91,-136,-117,37,189,207,181
83,145,62,-113,11,103,-151,-153,17,188,210,187
75,150,76,-112,0,112,-165,-189,-7,179,206,189
66,150,85,-108,-8,117,-177,-220,-35,162,194,184
59,143,85,-101,-12,113,-184,-240,-62,139,175,173
53,128,74,-90,-10,100,-187,-251,-88,108,150,157
49,108,58,-78,-3,82,-187,-256,-117,64,117,136
44,85,40,-65,3,62,-182,-255,-145,15,76,110
36,63,26,-49,6,44,-172,-246,-165,-27,37,81
26,42,17,-34,5,29,-157,-231,-174,-55,5,55
16,26,11,-20,3,18,-141,-210,-172,-70,-16,35
8,13,6,-10,2,8,-123,-188,-165,-76,-29,20
3,3,1,-3,2,1,-106,-165,-154,-77,-37,9
0,-4,-3,2,3,-5,-91,-144,-142,-75,-41,2
-2,-10,-7,6,3,-9,-76,-125,-129,-72,-43,-2
-3,-14,-10,8,4,-13,-63,-107,-117,-67,-43,-5
-3,-16,-13,10,5,-15,-52,-90,-105,-61,-42,-5
-3,-16,-14,10,5,-16,-42,-75,-94,-55,-39,-5
-2,-15,-13,9,6,-15,-34,-62,-84,-49,-36,-4
-1,-13,-13,8,6,-14,-27,-51,-76,-44,-33,-3
0,-13,-12,7,6,-13,-20,-41,-68,-40,-31,-2
-1,-13,-12,7,5,-13,-14,-32,-61,-36,-28,-1
-1,-13,-11,7,4,-12,-9,-25,-55,-33,-26,0
-2,-12,-9,7,4,-11,-4,-20,-50,-29,-24,1
-2,-11,-8,7,3,-10,0,-14,-45,-26,-23,2
-3,-11,-7,7,2,-10,2,-10,-41,-24,-22,2
-5,-12,-6,8,1,-10,5,-6,-39,-22,-21,1
-6,-12,-6,9,0,-10,7,-3,-36,-20,-21,1
-8,-13,-5,11,-1,-10,8,-1,-35,-19,-20,0
-9,-14,-5,12,-1,-10,8,0,-34,-19,-20,0
-8,-13,-5,11,-2,-10,9,1,-33,-19,-20,0
-7,-10,-3,9,-2,-8,11,3,-31,-18,-20,1
-5,-8,-2,7,-2,-6,11,4,-30,-17,-19,3
-5,-8,-2,7,-2,-6,11,5,-30,-16,-18,4
-5,-9,-3,7,-1,-7,11,6,-29,-16,-17,4
-5,-9,-4,7,-1,-7,12,7,-27,-15,-17,4
-5,-10,-4,8,0,-8,12,9,-26,-15,-16,4
-6,-10,-4,8,0,-8,13,9,-26,-15,-16,4
-6,-10,-4,8,0,-8,13,10,-26,-15,-16,4
-6,-10,-4,8,0,-8,14,10,-26,-15,-17,4
-6,-10,-4,8,-1,-8,14,10,-25,-15,-17,4
-7,-11,-3,9,-1,-8,14,10,-25,-14,-17,4
-8,-12,-3,10,-2,-8,14,10,-25,-15,-17,4
-9,-13,-3,11,-3,-8,14,11,-25,-16,-18,3
-8,-12,-3,10,-2,-8,14,12,-25,-16,-18,3
-6,-10,-3,8,-1,-7,14,13,-24,-16,-18,4
-5,-9,-4,7,0,-7,15,14,-24,-15,-18,4
-5,-9,-4,7,0,-7,15,14,-23,-14,-17,4
-5,-9,-4,7,0,-7,15,15,-23,-14,-17,4
-5,-10,-4,8,0,-7,16,15,-23,-14,-16,4
-6,-10,-4,8,-1,-7,16,15,-23,-14,-16,4
-6,-11,-4,9,-1,-8,16,15,-22,-14,-16,4
-6,-11,-4,9,-1,-8,16,16,-22,-14,-16,4
-6,-11,-4,8,0,-8,17,17,-22,-14,-16,4
-6,-10,-4,8,-1,-8,17,18,-21,-14,-16,4
-6,-11,-4,9,-1,-8,17,18,-21,-14,-17,3
-6,-11,-5,9,-1,-9,17,19,-21,-14,-17,3
-6,-11,-5,9,-1,-9,18,19,-21,-14,-17,3
-6,-11,-5,9,-1,-9,18,20,-20,-14,-17,3
-6,-11,-5,9,0,-9,18,20,-19,-14,-17,3
-6,-12,-5,9,0,-9,18,21,-19,-14,-17,3
-6,-12,-5,9,0,-9,18,22,-18,-13,-18,3
-6,-11,-5,9,0,-9,19,23,-18,-13,-18,3
-6,-12,-5,9,0,-9,19,24,-18,-13,-18,2
-7,-12,-5,10,0,-10,19,25,-18,-14,-18,1
-7,-12,-5,10,-1,-9,19,26,-17,-14,-19,1
-7,-11,-5,9,-1,-9,19,27,-16,-13,-19,1
-6,-10,-5,9,-1,-8,20,28,-15,-13,-19,1
-6,-10,-5,8,0,-8,20,30,-13,-13,-18,1
-6,-10,-5,8,0,-8,20,32,-12,-13,-18,2
-6,-10,-4,8,-1,-8,20,33,-11,-13,-17,3
-6,-10,-4,8,-1,-8,20,35,-10,-12,-17,4
-6,-10,-4,8,-1,-8,21,38,-8,-11,-17,4
-7,-10,-4,9,-1,-8,22,40,-7,-11,-17,4
-7,-11,-4,9,-1,-8,23,43,-5,-10,-17,4
-6,-11,-5,9,-1,-8,24,45,-3,-10,-18,4
-6,-11,-5,9,-1,-8,25,48,-1,-10,-18,3
-7,-12,-6,9,-1,-9,26,50,0,-10,-19,2
-7,-12,-6,9,0,-9,26,53,1,-10,-19,2
-6,-12,-7,9,0,-10,27,56,3,-9,-19,1
-6,-12,-7,9,0,-10,28,60,6,-9,-19,1
-6,-13,-8,9,1,-10,29,63,8,-8,-19,1
-6,-13,-8,9,1,-10,30,66,11,-7,-19,1
-6,-13,-8,9,1,-11,31,70,15,-6,-19,2
-6,-13,-8,9,1,-11,32,73,18,-5,-19,2
-6,-13,-7,10,0,-11,32,76,20,-4,-19,2
-7,-13,-7,10,0,-11,33,79,23,-3,-18,1
-7,-13,-7,10,0,-11,33,83,25,-2,-18,1
-7,-14,-7,10,0,-11,34,86,28,-1,-18,1
-8,-14,-7,10,0,-11,35,88,30,0,-18,1
-7,-13,-7,10,0,-10,36,91,33,0,-18,1
-6,-12,-7,9,0,-10,36,92,35,2,-17,2
-6,-12,-6,9,0,-9,36,93,37,4,-16,3
-6,-11,-5,9,0,-9,37,94,39,6,-14,4
-6,-10,-5,8,0,-8,37,95,40,7,-13,5
-6,-10,-4,8,0,-7,37,95,40,8,-13,5
-6,-9,-4,8,0,-7,36,95,41,9,-12,6
-6,-9,-4,8,0,-6,36,95,41,9,-11,7
-5,-8,-3,7,0,-6,36,94,41,10,-10,7
-5,-7,-3,6,0,-5,35,92,41,11,-9,8
-4,-6,-3,5,0,-4,34,90,40,12,-7,9
-4,-6,-3,5,0,-4,33,88,39,12,-6,9
-3,-5,-2,4,0,-3,32,85,38,12,-5,10
-2,-3,-2,3,0,-2,32,83,37,13,-4,11
0,-1,-2,1,0,-2,31,81,36,14,-3,12
0,-1,-2,1,1,-1,30,78,34,14,-2,13
0,0,-2,0,1,-1,29,75,32,14,-1,14
0,0,-2,0,1,-1,29,71,30,14,0,14
0,0,-1,0,1,-1,28,67,27,14,0,15
0,-1,-1,0,1,-1,27,62,24,14,1,15
0,-1,-2,0,1,-1,25,57,21,14,1,16
0,-1,-2,0,1,-1,24,53,18,13,1,16
0,-1,-2,0,1,-1,23,49,15,12,1,17
0,-1,-2,0,1,-1,22,45,11,11,2,18
0,-1,-2,0,1,-1,21,41,8,10,2,18
0,-1,-2,0,1,-1,20,37,5,9,2,18
0,-2,-2,1,1,-2,18,32,1,8,2,18
0,-2,-2,1,1,-2,17,28,-2,7,2,18
0,-2,-2,1,1,-2,16,24,-5,6,2,18
0,-2,-2,1,1,-2,15,21,-7,5,2,18
0,-2,-2,1,1,-2,14,18,-10,3,1,18
0,-2,-2,1,1,-2,13,15,-13,1,0,18
0,-2,-2,1,1,-3,13,13,-15,0,0,17
-1,-3,-3,2,1,-3,12,11,-18,-1,-1,17
-1,-4,-3,3,1,-3,12,9,-20,-2,-1,16
0,-3,-3,2,1,-3,11,7,-21,-2,-1,16
0,-2,-3,1,2,-2,11,6,-22,-2,-1,16
0,-2,-3,1,2,-2,11,4,-23,-3,-2,16
0,-2,-3,1,1,-2,11,3,-24,-3,-2,16
0,-3,-3,1,1,-3,11,2,-25,-4,-2,16
0,-3,-3,1,1,-3,10,1,-27,-4,-2,16
-1,-3,-3,2,1,-3,10,1,-28,-5,-3,15
-1,-3,-2,2,0,-3,10,0,-28,-5,-3,15
-1,-3,-2,2,0,-3,10,0,-29,-6,-3,15
-1,-3,-2,3,0,-3,9,-1,-29,-6,-3,15
-2,-4,-2,3,0,-3,9,-1,-30,-6,-4,15
-2,-4,-2,4,0,-3,8,-2,-30,-7,-4,15
-2,-4,-2,4,0,-3,8,-2,-31,-7,-4,15
-2,-4,-2,3,0,-3,8,-2,-31,-7,-4,15
-2,-4,-2,3,0,-3,8,-2,-32,-7,-4,15
-2,-4,-2,3,0,-3,8,-3,-32,-7,-4,15
-2,-4,-3,3,0,-4,7,-3,-32,-7,-4,14
-2,-5,-3,3,1,-4,7,-4,-33,-7,-4,14
-2,-5,-3,3,1,-4,7,-4,-33,-7,-4,14
-2,-5,-3,3,1,-4,7,-4,-33,-7,-4,14
-2,-5,-3,3,1,-4,7,-4,-33,-7,-4,14
-2,-5,-3,3,1,-4,7,-4,-33,-7,-5,14
-2,-5,-3,3,1,-4,7,-5,-34,-7,-5,14
-2,-5,-3,3,1,-4,7,-5,-34,-7,-5,14
-2,-5,-3,3,1,-4,7,-5,-34,-7,-5,14
-2,-5,-3,3,0,-4,7,-5,-34,-7,-5,14
-2,-5,-3,3,0,-4,7,-5,-34,-7,-5,14
-2,-5,-3,3,0,-4,7,-5,-34,-7,-5,14
-2,-5,-3,3,0,-4,7,-5,-34,-7,-5,15
-2,-5,-3,3,0,-4,7,-5,-33,-7,-5,15
-2,-4,-3,3,0,-3,7,-5,-32,-7,-5,15
-2,-4,-2,2,0,-3,7,-5,-32,-7,-5,15
-2,-4,-2,3,0,-3,7,-5,-31,-7,-5,15
-3,-5,-2,3,0,-3,7,-5,-31,-7,-5,15
-3,-5,-3,4,0,-3,7,-5,-31,-7,-5,15
-3,-6,-3,4,0,-4,7,-5,-30,-8,-6,15
-2,-6,-4,4,0,-4,7,-5,-30,-8,-6,15
-2,-6,-4,4,1,-4,7,-5,-29,-8,-6,14
-2,-6,-4,4,1,-4,7,-5,-28,-8,-6,14
-3,-7,-4,5,0,-4,7,-6,-27,-8,-6,14
-3,-7,-4,5,0,-4,7,-6,-25,-8,-6,14
-3,-6,-3,4,0,-4,7,-5,-24,-8,-6,14
-3,-6,-3,4,0,-4,7,-5,-22,-8,-6,14
-3,-6,-3,4,0,-4,7,-5,-21,-9,-6,14
-3,-6,-3,4,0,-4,7,-5,-20,-9,-7,14
-3,-7,-3,5,0,-4,7,-5,-19,-9,-7,13
-4,-8,-3,5,0,-4,7,-5,-18,-9,-8,13
-3,-7,-3,4,0,-4,8,-4,-17,-9,-8,13
-2,-6,-3,3,1,-4,8,-4,-16,-9,-8,13
-2,-6,-3,4,0,-4,8,-4,-15,-10,-8,13
-3,-7,-4,4,0,-5,7,-4,-15,-10,-9,13
-3,-7,-4,4,0,-5,7,-3,-14,-10,-9,13
-3,-7,-3,4,0,-5,8,-3,-13,-10,-9,13
-3,-7,-3,4,0,-4,8,-2,-12,-9,-9,13
-4,-6,-2,5,0,-4,9,-2,-11,-9,-9,12
-4,-6,-2,5,-1,-4,9,-2,-10,-9,-9,12
-3,-6,-2,5,-1,-4,10,-1,-9,-9,-9,12
-3,-6,-2,4,0,-4,10,-1,-8,-9,-9,12
-2,-5,-2,4,0,-3,11,-1,-6,-9,-9,12
-2,-5,-2,4,0,-3,11,0,-5,-8,-8,12
-3,-5,-2,4,-1,-3,12,1,-3,-8,-8,12
-3,-5,-1,4,-1,-3,12,1,-2,-7,-7,12
-3,-5,-1,4,-1,-3,13,2,-2,-7,-7,12
-3,-5,-1,4,-1,-3,13,2,-1,-7,-7,11
-3,-5,-1,4,-1,-2,13,3,0,-6,-7,11
-3,-5,0,4,-1,-2,14,4,1,-6,-7,10
-3,-4,0,3,-1,-2,14,4,2,-6,-7,10
-3,-3,0,3,-1,-1,14,5,4,-6,-7,10
-2,-2,0,2,-1,-1,15,6,5,-5,-7,9
-2,-1,0,1,-1,0,15,6,6,-4,-6,9
-2,-1,1,1,-1,0,15,6,7,-4,-6,8
-2,-1,2,1,-2,0,15,6,7,-3,-6,7
-3,-1,2,2,-3,0,15,5,8,-3,-6,7
-3,-1,3,2,-3,0,13,5,8,-3,-6,7
-3,-1,2,2,-3,0,12,5,9,-3,-6,7
-3,-1,2,2,-3,0,10,4,9,-3,-6,7
-4,-2,2,2,-3,0,9,4,9,-3,-6,6
-5,-2,2,3,-4,0,8,3,10,-3,-6,5
-4,-1,2,2,-3,1,8,3,12,-2,-5,5
-3,0,3,1,-3,1,8,4,14,-2,-4,5
-3,0,4,0,-4,2,7,4,15,-1,-4,5
-3,1,5,0,-4,3,7,4,17,-1,-3,5
-3,2,5,-1,-4,4,6,4,20,0,-3,5
-2,2,5,-1,-4,4,6,4,22,0,-3,5
-2,2,5,-1,-4,4,5,3,23,0,-3,5
-3,2,6,0,-4,4,5,3,23,0,-3,5
-2,3,6,-1,-4,5,5,3,23,0,-2,5
-2,4,7,-1,-4,5,4,3,25,0,-2,5
-2,4,7,-1,-4,5,3,2,26,0,-2,5
-2,4,7,-1,-4,5,3,2,25,0,-2,4
-2,4,7,-1,-4,5,2,1,24,-1,-2,4
-1,5,7,-2,-4,6,2,1,24,-1,-2,3
-1,5,6,-2,-4,6,2,0,21,-1,-2,3
0,5,6,-2,-3,5,2,0,17,-1,-2,3
0,5,5,-2,-3,5,2,0,15,-1,-2,2
0,5,5,-3,-2,5,2,0,13,-2,-2,2
1,5,4,-3,-2,5,3,0,11,-2,-2,2
2,5,4,-3,-1,5,3,0,10,-1,-2,2
2,5,4,-3,-1,5,3,0,10,-1,-1,2
2,5,4,-4,-1,5,3,0,11,-1,-1,2
2,5,4,-4,-1,5,4,0,12,-1,-1,2
1,5,5,-3,-2,5,4,0,11,-1,-1,1
0,4,5,-2,-3,5,5,1,9,-1,-1,1
-1,3,5,0,-4,4,6,1,7,-1,-2,0
-3,1,5,1,-4,3,6,0,6,-3,-3,-1
-4,0,5,2,-5,3,6,0,4,-4,-4,-2
-4,-1,4,2,-5,2,6,-1,3,-5,-5,-3
-4,-1,4,2,-4,2,6,-1,2,-5,-5,-4
-4,-2,3,3,-4,1,6,-1,1,-6,-6,-4
-4,-2,3,3,-4,1,6,-2,1,-6,-6,-5
-5,-3,3,4,-4,0,6,-2,1,-7,-7,-6
-5,-3,3,4,-4,0,6,-2,1,-7,-7,-6
-6,-3,3,5,-4,0,6,-2,0,-7,-8,-7
-6,-4,3,5,-4,0,7,-3,0,-8,-8,-7
-6,-4,2,5,-4,-1,7,-3,0,-8,-9,-8
-5,-5,1,5,-3,-1,6,-4,-1,-8,-9,-8
-5,-5,1,5,-3,-1,6,-5,-1,-9,-9,-9
-5,-4,1,5,-3,-1,6,-6,-2,-9,-9,-9
-5,-4,1,5,-3,-1,6,-6,-2,-9,-9,-10
-5,-4,1,5,-3,-1,6,-6,-2,-9,-9,-10
-4,-3,1,4,-3,-1,5,-6,-2,-9,-9,-10
-4,-3,1,4,-3,0,5,-6,-2,-10,-9,-10
-4,-3,2,4,-4,0,5,-7,-2,-10,-9,-10
-5,-3,2,4,-4,0,5,-7,-2,-10,-10,-11
-5,-3,2,4,-4,0,5,-7,-2,-10,-10,-11
-5,-3,2,4,-4,0,5,-8,-2,-10,-10,-11
-5,-3,2,4,-4,-1,4,-8,-2,-10,-10,-11
-5,-3,2,4,-4,-1,4,-8,-1,-10,-10,-11
-5,-3,2,4,-4,-1,4,-8,-1,-10,-10,-11
-5,-4,1,5,-4,-1,4,-8,0,-10,-10,-11
-5,-4,1,5,-3,-2,4,-8,1,-10,-10,-12
-5,-4,1,4,-3,-2,4,-8,3,-10,-10,-12
-4,-3,1,4,-3,-1,4,-9,4,-10,-10,-13
-5,-3,1,4,-3,-1,4,-9,5,-10,-10,-13
-5,-3,1,4,-4,-1,4,-9,6,-10,-10,-13
-5,-3,1,4,-4,-1,4,-9,6,-10,-10,-13
-5,-4,1,4,-4,-1,4,-9,6,-10,-10,-13
-5,-4,1,4,-4,-1,4,-9,5,-10,-10,-13
-5,-4,1,4,-4,-1,4,-9,5,-10,-10,-13
-5,-4,1,4,-4,-1,4,-9,5,-10,-10,-13
-5,-4,1,5,-4,-1,4,-9,5,-10,-10,-13
-6,-5,1,5,-4,-2,3,-10,5,-10,-11,-13
-7,-6,1,7,-5,-2,3,-10,4,-10,-11,-14
-8,-7,1,8,-6,-3,2,-10,3,-11,-11,-14
-7,-6,1,7,-5,-2,3,-10,3,-10,-11,-14
-4,-4,0,4,-3,-1,4,-8,4,-10,-10,-14
-2,-2,0,2,-1,0,6,-6,5,-9,-10,-14
-1,-2,0,1,0,-1,8,-3,6,-9,-10,-14
-1,-3,-1,2,0,-2,10,1,8,-9,-11,-15
-1,-5,-2,3,0,-3,14,9,12,-9,-12,-17
-2,-5,-3,4,0,-4,19,20,19,-7,-13,-17
-2,-5,-3,4,0,-3,25,34,28,-4,-12,-17
-1,-3,-2,2,0,-2,31,50,40,1,-9,-16
2,0,-2,-1,1,-1,33,66,54,8,-4,-13
6,5,-1,-5,3,1,32,77,67,18,4,-8
12,11,-1,-11,5,5,28,86,82,32,15,0
19,19,0,-19,9,9,23,96,98,49,30,11
27,28,1,-27,12,15,16,104,115,67,47,23
35,39,3,-37,15,21,6,108,130,86,65,37
45,50,4,-47,19,27,-8,105,141,106,84,51
54,62,7,-58,23,35,-24,96,149,127,105,67
61,74,12,-68,24,43,-40,81,152,145,124,82
67,86,17,-77,25,52,-56,61,151,160,142,97
73,98,24,-85,24,61,-74,37,149,175,159,111
78,110,31,-94,23,71,-92,11,146,189,175,124
82,121,39,-101,21,81,-112,-19,139,201,189,136
83,132,48,-108,17,91,-134,-56,126,209,201,147
83,142,59,-112,11,101,-154,-95,110,214,209,157
79,150,71,-115,4,111,-173,-136,90,213,213,163
74,156,82,-115,-4,119,-191,-176,63,205,211,166
69,158,89,-114,-10,124,-205,-214,32,188,202,164
64,153,90,-109,-13,121,-215,-242,0,163,186,156
59,141,82,-100,-11,111,-220,-258,-31,131,164,143
56,123,67,-90,-6,95,-221,-267,-64,88,134,125
52,102,50,-77,1,76,-216,-269,-98,36,97,102
46,79,34,-62,6,57,-205,-262,-124,-11,58,75
37,58,21,-47,7,40,-188,-247,-139,-45,24,49
27,39,12,-33,7,26,-168,-227,-142,-66,-1,26
18,24,6,-21,6,15,-147,-203,-136,-75,-18,8
12,12,0,-12,6,6,-126,-179,-126,-77,-28,-4
8,3,-5,-6,6,-1,-107,-157,-114,-76,-34,-13
5,-4,-9,-1,7,-6,-90,-136,-102,-73,-37,-19
3,-8,-12,2,7,-9,-74,-118,-90,-69,-39,-24
2,-11,-14,4,7,-12,-61,-100,-78,-64,-39,-26
2,-13,-15,5,7,-13,-49,-85,-68,-59,-38,-27
2,-13,-16,6,8,-14,-40,-71,-59,-54,-36,-28
2,-14,-16,6,8,-15,-31,-60,-51,-50,-35,-28
1,-14,-15,6,8,-15,-24,-50,-44,-46,-33,-28
0,-14,-14,6,6,-14,-18,-42,-38,-43,-31,-28
-1,-13,-12,6,5,-12,-12,-35,-32,-39,-29,-27
-2,-11,-10,6,3,-10,-7,-29,-26,-35,-26,-26
-3,-10,-8,6,1,-9,-3,-23,-21,-32,-24,-25
-4,-10,-6,7,0,-7,0,-18,-16,-29,-23,-24
-5,-10,-5,7,-1,-7,3,-14,-13,-27,-23,-24
-6,-10,-4,7,-1,-7,5,-11,-11,-26,-22,-23
-6,-9,-4,7,-1,-7,7,-8,-9,-25,-21,-23
-6,-9,-4,7,-1,-6,8,-7,-7,-24,-20,-23
-7,-9,-4,8,-2,-6,9,-5,-5,-23,-20,-23
-7,-9,-4,8,-2,-6,10,-4,-3,-23,-20,-23
-7,-9,-3,8,-2,-5,11,-3,-2,-22,-20,-23
-7,-9,-3,8,-2,-5,11,-2,-2,-22,-20,-23
-7,-9,-3,8,-3,-5,12,-1,-1,-21,-20,-23
-7,-9,-3,8,-3,-5,12,0,-1,-21,-20,-23
-7,-9,-3,8,-3,-5,13,0,-1,-21,-20,-23
-7,-10,-3,8,-3,-5,14,1,-1,-21,-20,-23
-7,-10,-2,8,-3,-5,14,1,-1,-20,-20,-23
-7,-9,-2,8,-3,-5,15,2,0,-20,-19,-23
-8,-9,-1,8,-4,-4,15,2,0,-20,-18,-22
-8,-9,-1,9,-4,-5,16,3,0,-20,-19,-22
-8,-10,-2,9,-3,-5,15,3,0,-20,-19,-23
-7,-9,-3,8,-3,-6,15,3,0,-19,-19,-23
-7,-9,-2,8,-3,-6,16,4,1,-19,-19,-22
-7,-9,-2,8,-3,-6,16,4,1,-18,-19,-22
-7,-9,-2,8,-3,-6,16,4,0,-18,-19,-23
-8,-10,-2,9,-4,-6,16,4,0,-18,-19,-23
-9,-11,-2,10,-4,-6,16,4,0,-18,-19,-24
-9,-12,-2,11,-4,-7,16,4,0,-18,-19,-24
-8,-11,-2,10,-3,-6,16,5,0,-18,-19,-23
-6,-9,-2,8,-2,-5,17,6,1,-17,-18,-23
-5,-8,-2,6,-2,-5,17,8,1,-17,-18,-22
-5,-8,-2,6,-2,-5,18,9,2,-17,-18,-22
-6,-9,-2,7,-2,-5,18,9,2,-17,-18,-23
-6,-9,-2,7,-2,-5,18,9,3,-17,-18,-23
-6,-9,-2,7,-2,-5,18,10,3,-17,-17,-23
-6,-8,-2,7,-2,-5,18,10,3,-17,-17,-23
-6,-8,-2,7,-3,-5,18,11,4,-17,-17,-23
-6,-8,-2,8,-3,-5,18,12,4,-16,-18,-23
-6,-8,-2,8,-3,-6,19,13,5,-16,-18,-23
-6,-8,-2,7,-2,-5,20,14,5,-16,-18,-23
-6,-8,-2,7,-2,-5,20,15,6,-16,-18,-23
-6,-8,-2,7,-2,-5,20,16,6,-16,-18,-23
-6,-9,-2,7,-2,-5,21,17,7,-16,-18,-23
-6,-9,-2,7,-2,-5,21,18,8,-15,-18,-23
-6,-10,-2,7,-2,-6,22,19,8,-15,-18,-23
-6,-10,-2,8,-2,-6,22,20,9,-15,-18,-24
-7,-10,-2,8,-2,-6,22,22,10,-15,-19,-24
-7,-10,-2,8,-2,-6,23,24,11,-15,-19,-25
-7,-10,-3,8,-2,-6,23,26,12,-15,-19,-25
-7,-10,-3,8,-2,-6,24,27,13,-15,-19,-25
-7,-10,-3,8,-2,-6,25,30,14,-14,-19,-25
-7,-10,-3,9,-2,-6,26,32,16,-14,-19,-25
-8,-10,-3,9,-2,-6,27,35,18,-14,-19,-25
-8,-10,-3,9,-2,-7,28,37,20,-13,-19,-24
-8,-11,-3,10,-2,-7,30,40,21,-12,-19,-25
-9,-11,-3,10,-2,-7,31,42,23,-12,-19,-25
-9,-12,-3,10,-3,-8,32,45,24,-12,-19,-26
-10,-13,-3,11,-3,-8,32,48,26,-12,-19,-26
-10,-14,-3,11,-3,-8,33,51,29,-12,-19,-26
-10,-14,-3,12,-3,-8,34,54,31,-12,-20,-26
-9,-13,-3,11,-3,-8,36,57,34,-11,-20,-26
-7,-11,-3,9,-2,-7,39,62,37,-10,-20,-26
-6,-10,-3,8,-2,-6,41,66,40,-8,-19,-25
-7,-10,-3,9,-2,-6,42,69,42,-7,-19,-25
-7,-10,-3,9,-3,-6,43,72,44,-7,-19,-26
-7,-11,-3,9,-3,-6,44,74,47,-6,-19,-26
-7,-11,-3,9,-3,-6,45,77,50,-5,-19,-26
-7,-11,-2,9,-3,-6,46,79,53,-4,-18,-25
-8,-11,-2,9,-3,-6,47,82,55,-3,-17,-25
-8,-11,-2,9,-4,-6,47,83,57,-2,-17,-25
-9,-11,-1,10,-4,-6,48,85,59,0,-17,-25
-10,-10,-1,10,-5,-6,48,86,60,0,-16,-25
-10,-9,0,9,-5,-5,48,87,62,1,-16,-24
-10,-8,1,9,-6,-4,48,87,63,2,-15,-23
-9,-8,1,8,-6,-3,48,87,63,3,-14,-22
-8,-7,1,7,-5,-3,48,87,64,4,-13,-21
-7,-7,1,7,-5,-3,47,86,64,5,-12,-21
-6,-6,1,6,-5,-3,46,84,64,6,-11,-20
-6,-6,1,6,-4,-2,45,83,64,6,-10,-20
-6,-5,1,6,-4,-2,44,81,63,7,-9,-19
-5,-4,1,5,-4,-1,43,78,62,7,-9,-18
-4,-3,1,4,-3,-1,41,75,60,7,-8,-17
-4,-3,1,4,-3,-1,39,72,59,8,-7,-16
-4,-2,2,3,-4,0,38,68,57,8,-6,-15
-4,-2,2,3,-4,0,36,65,55,9,-5,-15
-4,-2,2,3,-4,0,34,61,53,9,-4,-14
-3,-1,2,3,-4,0,33,57,51,10,-3,-14
-3,-1,2,2,-4,0,31,53,48,10,-2,-13
-4,-1,2,3,-4,0,28,48,44,9,-2,-13
-4,-1,2,3,-4,0,26,43,41,8,-1,-12
-3,0,2,2,-3,0,24,38,37,8,0,-11
-3,0,2,1,-3,0,22,34,34,7,0,-10
-2,0,2,1,-3,1,21,30,31,6,0,-10
-1,0,2,0,-2,1,20,26,29,5,0,-9
0,2,2,-1,-2,2,18,23,26,5,0,-9
1,3,2,-2,-1,2,17,19,23,4,0,-8
2,4,2,-2,-1,2,15,15,20,3,0,-8
1,3,2,-2,-1,2,13,12,17,1,0,-8
1,2,1,-1,0,2,12,8,14,0,0,-8
1,1,1,-1,0,1,10,5,11,-1,-1,-8
1,1,1,0,0,1,9,2,9,-3,-2,-9
0,0,0,0,0,1,8,0,8,-4,-3,-10
-1,-1,0,1,-1,0,7,-2,7,-5,-3,-10
-2,-1,0,2,-1,0,7,-4,6,-6,-4,-11
-2,-1,1,2,-2,0,6,-6,5,-6,-4,-11
-1,0,1,1,-2,0,6,-7,3,-6,-4,-11
-1,0,0,1,-1,0,5,-9,2,-7,-4,-11
-1,0,0,1,-1,0,5,-10,0,-7,-4,-11
-1,0,0,1,-1,0,4,-11,0,-8,-4,-11
-1,0,0,1,-1,0,4,-12,-1,-8,-4,-11
-1,0,0,1,-1,0,4,-12,-1,-9,-4,-11
-1,-1,0,1,-1,0,4,-13,-2,-9,-5,-11
-1,-1,0,1,-1,0,4,-14,-2,-9,-5,-11
-2,-1,0,2,-1,0,3,-14,-3,-9,-6,-11
-2,-1,0,2,-1,-1,3,-15,-4,-10,-6,-11
-2,-1,0,2,-1,-1,3,-15,-5,-10,-6,-11
-2,-2,0,2,-1,-1,2,-15,-5,-10,-6,-12
-2,-2,0,2,-1,-1,2,-16,-6,-10,-6,-12
-2,-2,0,2,-1,0,2,-16,-6,-10,-6,-12
-2,-2,0,2,-1,0,2,-16,-6,-10,-6,-12
-2,-2,0,2,-1,-1,2,-16,-6,-10,-6,-12
-3,-2,0,2,-1,-1,1,-17,-6,-10,-6,-12
-3,-3,0,3,-2,-1,1,-18,-7,-11,-6,-12
-4,-3,0,4,-3,-1,1,-18,-7,-11,-6,-12
-4,-3,0,4,-3,-1,1,-18,-7,-11,-6,-12
-4,-3,0,4,-3,-1,1,-18,-7,-11,-5,-12
-3,-2,1,3,-2,0,1,-18,-7,-10,-5,-11
-3,-2,1,2,-2,0,1,-18,-7,-10,-5,-11
-2,-1,1,2,-2,0,1,-18,-7,-10,-5,-11
-2,-1,0,2,-1,0,0,-18,-7,-10,-5,-11
-1,-1,0,1,-1,0,0,-18,-7,-10,-5,-11
0,-1,0,1,0,0,0,-18,-7,-10,-5,-10
0,-1,0,1,0,0,0,-18,-7,-10,-5,-11
-1,-1,0,1,-1,0,0,-19,-8,-10,-5,-11
-1,-2,0,1,-1,0,0,-19,-8,-11,-6,-11
-1,-2,0,1,0,-1,0,-19,-8,-11,-6,-11
-1,-2,-1,1,0,-1,0,-19,-9,-11,-6,-11
-1,-2,-1,1,0,-1,0,-19,-9,-11,-6,-11
-1,-2,-1,1,0,-1,0,-19,-8,-10,-6,-11
-1,-2,-1,1,0,-1,0,-19,-8,-10,-6,-11
-1,-2,-1,1,0,-1,0,-18,-8,-10,-6,-11
-1,-2,-1,2,0,-1,0,-18,-8,-10,-6,-11
-1,-2,-1,2,0,-1,0,-17,-8,-10,-6,-11
-1,-3,-1,2,0,-1,0,-17,-8,-10,-6,-11
-1,-3,-1,2,-1,-1,0,-17,-8,-10,-6,-11
-1,-3,-1,2,-1,-1,0,-17,-8,-10,-6,-11
-2,-3,0,3,-1,-1,0,-17,-8,-10,-6,-11
-3,-3,0,3,-2,-1,1,-17,-8,-11,-6,-11
-3,-3,0,4,-2,-1,1,-17,-8,-11,-6,-11
-3,-3,0,4,-2,-1,1,-17,-8,-11,-7,-11
-3,-3,0,3,-2,-1,1,-17,-7,-11,-7,-11
-3,-3,0,3,-2,-2,1,-17,-7,-11,-7,-11
-3,-4,0,4,-2,-2,1,-16,-7,-11,-7,-11
-3,-4,0,4,-2,-2,2,-16,-7,-11,-7,-11
-3,-4,0,4,-2,-2,2,-15,-7,-11,-7,-11
-3,-4,0,4,-2,-2,3,-15,-7,-11,-7,-12
-3,-4,0,4,-1,-2,3,-15,-7,-11,-7,-12
-4,-5,-1,5,-1,-2,3,-14,-7,-11,-7,-12
-5,-5,0,5,-2,-3,4,-14,-7,-11,-7,-12
-6,-6,0,6,-3,-3,4,-14,-7,-12,-8,-13
-6,-7,0,7,-3,-3,5,-14,-7,-12,-8,-13
-5,-5,0,5,-3,-2,6,-12,-6,-11,-7,-12
-1,-1,0,2,-1,0,8,-11,-4,-10,-6,-11
1,1,0,0,0,1,10,-9,-3,-9,-6,-11
1,2,0,-1,0,1,11,-8,-3,-8,-6,-11
0,2,1,-1,-1,1,11,-8,-2,-8,-6,-11
0,2,1,0,-1,2,12,-7,-2,-7,-5,-11
0,2,2,0,-2,2,12,-7,-1,-7,-5,-10
0,2,2,-1,-1,2,12,-6,-1,-7,-5,-10
0,2,2,-1,-1,2,13,-5,0,-7,-5,-10
-1,1,2,0,-2,2,13,-5,0,-7,-5,-10
-2,0,2,1,-2,1,14,-4,0,-7,-5,-10
-2,0,2,1,-2,1,14,-4,0,-7,-5,-10
-1,0,2,1,-2,1,13,-5,0,-7,-5,-10
-1,0,2,1,-2,1,12,-5,0,-7,-5,-10
-1,0,2,1,-2,1,10,-6,0,-7,-5,-11
-2,0,2,1,-2,1,8,-6,0,-7,-5,-11
-2,0,2,1,-2,1,7,-6,0,-7,-5,-11
-2,0,2,1,-2,1,6,-7,0,-7,-5,-11
-2,0,2,1,-2,1,5,-8,0,-7,-5,-11
-2,0,2,1,-3,1,4,-8,0,-7,-5,-11
-2,0,3,1,-3,2,4,-8,0,-6,-5,-10
-2,0,4,1,-4,2,4,-8,0,-5,-5,-9
-2,1,4,0,-4,3,4,-7,0,-5,-4,-9
-1,2,5,0,-4,3,4,-7,1,-4,-4,-8
-1,2,5,0,-4,4,3,-8,1,-4,-4,-8
-1,2,5,0,-4,4,2,-8,0,-5,-4,-9
-1,2,5,0,-4,4,2,-9,0,-5,-4,-9
-1,2,5,0,-4,4,2,-9,0,-5,-3,-8
-1,3,5,0,-4,5,1,-9,0,-5,-3,-8
-1,3,5,0,-4,5,0,-10,0,-5,-3,-8
-1,3,5,0,-4,4,0,-11,-1,-5,-3,-8
-1,3,5,0,-4,4,0,-11,-1,-5,-3,-8
-1,3,5,0,-4,4,0,-11,-1,-5,-3,-8
-1,3,4,0,-3,4,0,-11,-1,-5,-3,-8
0,2,4,0,-3,3,0,-11,-2,-5,-3,-8
1,3,3,-1,-2,3,0,-11,-2,-5,-3,-7
2,4,3,-2,-1,4,0,-11,-1,-5,-3,-7
2,4,3,-3,-1,4,0,-11,-1,-5,-2,-7
3,4,3,-3,-1,4,0,-10,0,-4,-2,-7
3,4,2,-3,-1,4,0,-10,0,-4,-2,-7
3,4,2,-3,-1,4,1,-9,0,-4,-2,-6
2,4,3,-2,-1,4,1,-9,0,-3,-2,-6
1,3,3,-1,-2,3,2,-8,0,-3,-2,-6
-1,2,3,0,-3,2,3,-8,0,-3,-2,-6
-2,0,3,1,-3,1,3,-8,0,-4,-2,-7
-3,-1,2,3,-3,0,3,-9,-1,-5,-3,-8
-3,-3,1,3,-3,0,3,-10,-2,-6,-4,-9
-4,-4,0,4,-3,-2,3,-10,-2,-7,-5,-10
-4,-5,0,4,-3,-3,3,-11,-3,-8,-6,-11
-5,-6,0,5,-3,-3,3,-11,-3,-8,-7,-11
-5,-6,-1,5,-2,-4,3,-11,-4,-8,-7,-12
-5,-7,-1,6,-2,-4,3,-11,-4,-8,-7,-12
-6,-7,-1,6,-2,-4,3,-11,-5,-8,-8,-12
-7,-8,-1,7,-3,-5,4,-11,-5,-8,-8,-12
-7,-9,-1,8,-3,-5,4,-12,-5,-8,-8,-13
-7,-9,-2,8,-3,-5,4,-12,-5,-9,-8,-13
-6,-9,-3,8,-2,-5,4,-13,-5,-9,-8,-13
-6,-8,-3,8,-2,-5,4,-12,-5,-9,-8,-13
-6,-8,-3,8,-2,-5,4,-12,-5,-9,-8,-13
-5,-8,-3,8,-2,-6,3,-13,-6,-10,-9,-14
-5,-9,-3,8,-1,-6,3,-13,-6,-10,-9,-14
-5,-9,-4,8,-1,-6,2,-13,-7,-10,-9,-14
-6,-9,-4,8,-1,-6,2,-13,-7,-10,-9,-14
-6,-9,-4,8,-1,-6,2,-13,-7,-10,-9,-14
-6,-10,-4,8,-1,-7,3,-13,-7,-11,-9,-14
-6,-10,-4,8,-1,-7,3,-13,-7,-11,-9,-14
-6,-10,-3,8,-1,-7,3,-13,-7,-11,-9,-14
-6,-10,-3,7,-1,-7,3,-13,-7,-11,-9,-14
-5,-10,-4,7,-1,-7,3,-13,-7,-11,-9,-14
-5,-10,-4,7,0,-7,3,-13,-7,-11,-9,-14
-5,-10,-5,8,0,-7,3,-13,-7,-11,-9,-14
-6,-10,-5,8,-1,-7,2,-13,-7,-11,-9,-14
-6,-11,-4,9,-1,-7,2,-14,-8,-11,-9,-14
-6,-11,-4,9,-1,-7,1,-14,-8,-11,-9,-14
-6,-10,-4,9,-1,-7,1,-13,-8,-11,-9,-14
-5,-10,-4,8,-1,-7,1,-13,-7,-11,-9,-14
-5,-9,-4,8,-1,-7,2,-13,-7,-11,-9,-14
-4,-9,-4,7,-1,-6,2,-13,-7,-11,-9,-13
-4,-8,-4,7,-1,-6,2,-12,-6,-10,-9,-13
-4,-8,-4,6,-1,-5,2,-12,-6,-10,-9,-13
-3,-7,-4,6,0,-5,2,-11,-6,-10,-9,-13
-3,-7,-3,6,0,-5,2,-11,-6,-10,-9,-12
-3,-7,-3,6,0,-5,2,-11,-6,-9,-8,-12
-3,-6,-3,5,0,-5,2,-11,-6,-9,-8,-12
-3,-7,-3,5,0,-6,2,-11,-6,-9,-9,-12
-4,-8,-4,6,0,-6,2,-11,-6,-9,-9,-13
-4,-8,-4,7,0,-6,3,-10,-6,-9,-9,-13
-4,-8,-4,6,0,-6,5,-7,-5,-9,-9,-13
-4,-8,-4,6,0,-6,8,-3,-3,-9,-9,-13
-4,-9,-5,6,0,-7,11,3,0,-9,-10,-14
-4,-9,-6,6,0,-8,16,14,4,-8,-11,-15
-4,-9,-5,7,0,-7,22,28,12,-6,-10,-16
-4,-8,-3,6,0,-6,29,43,23,-1,-8,-15
-3,-5,-3,5,0,-4,34,60,37,5,-4,-12
1,-1,-2,1,2,-2,35,74,51,14,2,-8
7,5,-2,-5,5,0,32,86,65,26,11,-1
14,13,-2,-13,8,5,27,97,82,41,24,7
21,22,0,-21,10,10,21,107,99,58,39,18
29,31,1,-30,13,16,12,114,115,76,55,31
37,41,3,-39,16,22,-2,116,129,95,73,44
46,53,5,-49,20,29,-20,112,140,114,92,58
56,66,9,-60,23,37,-38,103,148,134,112,74
65,80,14,-71,25,47,-54,88,152,151,131,89
73,93,20,-82,26,56,-73,69,154,167,148,104
79,106,26,-92,26,66,-93,47,154,182,165,118
83,118,34,-100,24,75,-113,21,152,195,179,131
86,129,42,-107,22,85,-135,-12,144,205,192,142
87,139,51,-113,18,95,-159,-52,131,211,202,153
86,148,62,-116,11,105,-180,-95,113,214,209,161
83,155,72,-118,5,113,-199,-139,90,210,210,166
79,158,80,-118,-1,119,-217,-182,61,198,205,166
74,156,83,-115,-5,119,-229,-218,29,178,193,162
69,148,79,-108,-5,113,-237,-242,-3,151,175,152
65,133,67,-99,-1,99,-239,-255,-35,116,151,137
61,113,50,-87,5,81,-235,-261,-72,69,119,116
56,89,32,-73,11,61,-225,-260,-106,19,81,91
47,65,17,-56,14,41,-210,-250,-129,-22,45,64
37,43,7,-40,14,25,-189,-233,-139,-49,15,39
27,25,0,-25,13,12,-166,-211,-139,-64,-5,19
19,11,-6,-14,13,2,-143,-187,-131,-70,-19,4
13,1,-12,-7,13,-5,-121,-163,-121,-71,-27,-6
9,-6,-16,-1,13,-11,-102,-142,-109,-70,-32,-13
7,-11,-18,2,12,-14,-84,-122,-98,-67,-35,-18
5,-14,-20,4,12,-17,-69,-104,-86,-62,-36,-21
4,-16,-21,6,12,-19,-56,-88,-75,-58,-35,-23
4,-17,-21,7,12,-19,-45,-74,-66,-53,-34,-24
3,-18,-21,8,11,-20,-36,-63,-58,-49,-33,-25
2,-18,-20,9,11,-20,-28,-53,-51,-45,-32,-25
1,-17,-18,8,10,-19,-21,-45,-45,-41,-30,-24
0,-16,-16,8,8,-17,-15,-37,-39,-37,-27,-23
-1,-15,-14,8,6,-15,-9,-30,-33,-34,-25,-22
-3,-14,-11,9,4,-13,-5,-24,-28,-31,-24,-21
-5,-14,-9,10,2,-12,-2,-19,-23,-28,-23,-20
-6,-14,-8,11,0,-11,1,-15,-20,-26,-22,-20
-8,-15,-7,12,0,-11,4,-11,-17,-24,-21,-20
-9,-16,-6,13,-1,-11,6,-8,-16,-23,-21,-20
-10,-16,-6,13,-1,-11,8,-6,-14,-22,-20,-20
-9,-14,-6,12,-1,-10,10,-3,-13,-21,-19,-20
-7,-12,-6,10,-1,-9,11,-1,-11,-20,-18,-19
-7,-11,-5,10,-1,-8,13,0,-9,-19,-18,-19
-8,-11,-4,10,-2,-8,13,0,-8,-19,-18,-19
-7,-10,-4,10,-2,-7,14,1,-7,-19,-18,-19
-7,-10,-4,9,-1,-7,14,2,-7,-18,-18,-19
-7,-10,-4,9,-1,-8,15,3,-7,-18,-18,-19
-7,-11,-4,10,-1,-8,15,4,-6,-18,-18,-19
-8,-11,-4,10,-1,-8,16,5,-6,-18,-18,-19
-8,-12,-4,10,-2,-8,17,5,-5,-18,-18,-19
-9,-12,-4,11,-2,-8,17,5,-5,-18,-18,-19
-9,-12,-4,11,-3,-8,17,6,-4,-18,-18,-19
-9,-12,-4,11,-3,-8,17,6,-3,-18,-18,-19
-9,-12,-4,11,-3,-8,17,7,-3,-17,-18,-19
-9,-12,-3,11,-3,-8,18,7,-2,-17,-18,-19
-9,-13,-3,11,-3,-8,18,7,-2,-17,-18,-19
-9,-13,-4,11,-3,-9,18,7,-2,-17,-18,-19
-9,-13,-4,11,-3,-9,18,8,-1,-16,-18,-19
-9,-13,-4,11,-3,-9,19,8,0,-16,-17,-19
-10,-13,-4,11,-3,-9,19,9,0,-16,-17,-19
-10,-13,-4,11,-3,-9,19,10,1,-16,-17,-19
-9,-13,-4,11,-3,-9,19,11,1,-16,-17,-19
-9,-13,-4,11,-3,-9,19,11,2,-16,-17,-19
-9,-13,-4,11,-3,-9,20,11,2,-16,-17,-19
-9,-13,-5,11,-2,-9,20,11,3,-16,-17,-19
-9,-14,-5,11,-2,-10,20,12,3,-16,-18,-19
-9,-14,-5,11,-2,-10,21,13,4,-15,-18,-19
-9,-14,-5,11,-2,-10,21,14,5,-15,-18,-19
-9,-14,-5,11,-2,-10,21,14,5,-15,-18,-19
-9,-14,-5,11,-2,-10,22,15,5,-15,-18,-19
-9,-14,-5,12,-2,-10,23,16,5,-15,-18,-20
-10,-15,-5,12,-2,-10,23,17,5,-15,-18,-20
-10,-15,-5,12,-2,-10,23,18,5,-15,-18,-20
-10,-15,-5,12,-2,-10,24,19,5,-15,-18,-20
-10,-15,-5,12,-2,-10,24,21,5,-15,-18,-20
-10,-15,-5,12,-3,-10,25,22,6,-15,-18,-20
-10,-15,-5,12,-3,-10,25,24,7,-14,-18,-20
-10,-15,-5,12,-3,-10,26,26,8,-14,-18,-20
-10,-15,-5,12,-3,-10,27,27,9,-14,-18,-20
-10,-15,-5,12,-3,-10,27,29,10,-14,-18,-20
-10,-15,-5,12,-2,-10,28,30,11,-13,-18,-20
-9,-14,-5,11,-2,-10,29,32,12,-13,-18,-20
-9,-14,-5,11,-2,-10,30,35,14,-12,-18,-20
-9,-14,-5,11,-2,-10,31,37,15,-12,-18,-20
-9,-14,-6,11,-2,-10,32,40,17,-12,-18,-21
-9,-14,-6,11,-1,-11,33,42,18,-12,-18,-21
-9,-14,-6,11,-1,-11,34,44,20,-12,-18,-21
-9,-15,-6,12,-2,-11,35,47,21,-12,-18,-21
-10,-15,-5,12,-2,-10,37,49,23,-12,-18,-21
-10,-15,-5,12,-2,-10,38,52,24,-12,-19,-21
-10,-15,-6,12,-2,-11,39,55,26,-12,-19,-22
-10,-15,-6,12,-2,-11,41,59,29,-11,-19,-22
-10,-15,-6,12,-3,-11,42,62,31,-11,-19,-22
-10,-16,-6,13,-3,-11,44,66,34,-10,-19,-22
-10,-16,-5,13,-3,-11,45,69,36,-9,-19,-23
-11,-17,-5,14,-3,-11,46,72,39,-8,-20,-23
-11,-17,-5,14,-4,-11,47,75,41,-7,-20,-23
-12,-17,-4,14,-4,-10,48,78,43,-6,-19,-23
-12,-16,-4,14,-4,-10,50,81,46,-5,-19,-23
-12,-15,-4,13,-4,-10,51,84,49,-4,-19,-23
-12,-16,-4,14,-5,-10,51,86,51,-4,-19,-23
-12,-16,-4,13,-5,-10,52,88,53,-3,-18,-23
-11,-15,-4,12,-4,-9,53,90,56,-1,-17,-22
-10,-14,-3,11,-4,-8,53,91,58,0,-16,-21
-10,-13,-3,11,-4,-7,53,92,59,1,-15,-21
-9,-12,-3,11,-3,-7,53,93,60,2,-14,-20
-9,-11,-3,10,-3,-6,53,93,61,3,-14,-20
-9,-10,-2,10,-3,-6,53,93,61,3,-13,-19
-9,-10,-2,10,-4,-5,52,92,62,4,-12,-19
-8,-9,-1,9,-4,-5,52,91,62,5,-11,-18
-8,-9,-1,8,-4,-5,51,90,62,6,-10,-16
-7,-8,-1,7,-4,-4,49,88,62,7,-9,-15
-7,-7,0,7,-4,-4,48,85,62,8,-8,-14
-8,-6,0,7,-4,-3,46,83,61,9,-7,-13
-8,-6,1,6,-4,-3,45,80,59,9,-6,-13
-6,-5,0,5,-3,-3,43,77,58,10,-5,-12
-5,-5,0,4,-2,-2,41,73,56,10,-4,-12
-4,-4,0,4,-2,-2,39,69,54,11,-3,-11
-4,-4,0,3,-2,-2,37,65,52,11,-2,-10
-3,-3,0,3,-2,-2,35,61,49,11,-1,-9
-3,-3,0,3,-2,-2,33,56,46,11,-1,-8
-3,-3,0,2,-1,-2,31,51,43,10,0,-7
-2,-3,0,2,-1,-2,28,47,40,10,0,-7
-2,-3,0,2,-1,-2,26,42,37,9,0,-6
-1,-2,0,2,-1,-1,24,38,33,8,0,-6
-1,-2,0,1,-1,-1,23,34,30,7,0,-6
-1,-2,0,1,-1,-1,21,30,27,6,0,-6
-1,-2,0,1,-1,-1,19,26,24,5,0,-6
-1,-2,-1,1,0,-1,17,21,21,4,0,-6
-1,-2,-1,1,0,-1,15,17,18,3,0,-6
-1,-2,-1,1,0,-1,14,14,15,2,0,-6
-1,-2,-1,1,0,-1,13,11,13,1,0,-6
-1,-2,-1,0,0,-1,12,9,10,0,0,-6
0,-2,-1,0,0,-1,12,7,8,0,-1,-6
0,-3,-2,1,0,-2,11,5,6,-1,-1,-6
-1,-3,-2,1,0,-2,10,2,4,-2,-2,-6
-1,-4,-2,2,0,-3,9,0,3,-3,-2,-6
-1,-4,-2,2,0,-3,8,-2,2,-4,-2,-6
-1,-4,-2,2,0,-3,7,-3,1,-4,-2,-6
-1,-5,-3,2,0,-3,6,-5,0,-5,-3,-7
-1,-5,-3,2,1,-4,6,-5,0,-5,-3,-7
-1,-5,-3,2,1,-4,6,-6,0,-6,-4,-7
-2,-5,-3,3,0,-4,6,-7,-1,-6,-4,-7
-2,-5,-3,3,0,-4,5,-7,-2,-7,-4,-7
-1,-5,-3,3,0,-4,5,-8,-3,-7,-4,-7
-2,-5,-3,3,0,-4,5,-9,-3,-8,-4,-7
-2,-5,-3,3,0,-4,5,-10,-4,-8,-4,-7
-1,-4,-4,2,1,-4,5,-10,-4,-8,-4,-7
-1,-4,-4,2,1,-4,5,-10,-5,-8,-4,-7
-1,-4,-3,2,1,-4,5,-11,-5,-8,-4,-7
-1,-4,-3,2,1,-4,4,-11,-6,-8,-4,-7
-1,-4,-4,2,1,-4,4,-11,-6,-8,-5,-7
-1,-4,-4,2,1,-4,4,-11,-6,-8,-5,-7
-2,-4,-3,3,1,-4,4,-12,-6,-8,-5,-6
-1,-4,-4,2,1,-4,4,-12,-6,-8,-5,-6
0,-4,-4,2,2,-4,4,-13,-6,-8,-5,-6
0,-4,-4,1,2,-4,4,-13,-5,-8,-5,-6
1,-4,-4,1,2,-4,4,-13,-5,-7,-4,-5
0,-4,-4,1,2,-4,4,-13,-5,-7,-4,-5
0,-4,-4,1,1,-4,4,-13,-5,-7,-4,-5
0,-4,-4,1,2,-4,4,-13,-5,-7,-4,-5
0,-4,-4,1,2,-4,3,-13,-5,-7,-4,-5
0,-4,-4,1,2,-4,3,-13,-5,-7,-4,-5
1,-4,-4,1,2,-4,3,-13,-5,-7,-4,-5
1,-4,-4,1,2,-4,2,-13,-5,-7,-4,-5
1,-4,-4,0,2,-4,2,-13,-5,-7,-4,-5
1,-3,-4,0,2,-4,2,-13,-5,-7,-4,-5
1,-3,-4,0,2,-4,2,-13,-5,-7,-3,-5
1,-3,-4,0,2,-4,2,-13,-5,-7,-3,-5
1,-4,-4,1,2,-4,2,-13,-5,-7,-3,-5
0,-4,-4,1,2,-3,2,-13,-5,-7,-3,-5
0,-4,-4,1,2,-3,2,-13,-5,-7,-3,-5
0,-4,-4,1,2,-3,2,-13,-5,-7,-4,-5
0,-5,-4,2,2,-4,2,-13,-5,-7,-4,-5
0,-5,-4,2,2,-4,2,-13,-5,-7,-4,-5
0,-5,-4,2,2,-4,2,-13,-5,-8,-4,-5
-1,-5,-4,2,2,-4,2,-13,-5,-8,-4,-5
-1,-5,-5,2,2,-5,2,-12,-5,-9,-4,-5
0,-4,-5,2,2,-5,3,-12,-5,-8,-4,-5
0,-4,-5,1,2,-4,4,-12,-4,-8,-4,-5
0,-4,-5,1,2,-4,5,-12,-4,-8,-4,-5
0,-4,-4,2,2,-4,5,-12,-4,-8,-4,-5
0,-4,-4,2,2,-4,5,-12,-4,-8,-4,-5
0,-4,-5,2,2,-4,5,-11,-4,-8,-4,-5
0,-4,-5,1,2,-4,5,-11,-4,-8,-4,-5
0,-4,-5,1,2,-4,5,-10,-4,-8,-4,-5
0,-4,-4,2,2,-4,5,-9,-4,-8,-4,-5
0,-5,-4,2,1,-4,5,-9,-4,-8,-5,-5
-1,-5,-4,3,1,-5,6,-9,-4,-9,-5,-6
-1,-6,-4,3,1,-5,6,-9,-4,-9,-6,-6
-2,-6,-3,3,0,-5,6,-9,-4,-9,-6,-7
-2,-6,-3,4,0,-5,7,-8,-4,-9,-6,-7
-3,-6,-3,4,0,-5,7,-8,-4,-9,-6,-7
-3,-6,-3,4,0,-5,7,-8,-4,-9,-6,-7
-2,-5,-3,4,0,-5,8,-7,-3,-9,-6,-7
-1,-5,-3,3,1,-4,8,-6,-2,-9,-6,-7
-1,-4,-3,2,1,-4,9,-5,-2,-9,-6,-7
-1,-4,-3,2,0,-3,10,-5,-1,-8,-6,-7
0,-4,-3,2,0,-3,11,-4,-1,-8,-6,-7
0,-4,-3,2,1,-3,12,-4,0,-8,-6,-7
0,-3,-3,2,1,-3,13,-3,0,-8,-6,-7
0,-3,-2,2,1,-2,14,-3,0,-7,-6,-6
0,-2,-2,2,0,-2,14,-2,1,-7,-5,-6
0,-2,-2,2,0,-2,15,-2,1,-6,-5,-6
-1,-2,-2,2,0,-2,15,-1,1,-6,-5,-6
-1,-2,-1,2,0,-1,16,-1,2,-6,-5,-6
-1,-2,-1,1,0,-1,16,0,2,-5,-5,-6
0,-1,-1,1,0,-1,17,0,3,-5,-5,-6
0,-1,0,0,0,0,17,0,3,-5,-5,-6
-1,-1,0,0,0,0,17,0,3,-5,-5,-6
-1,-1,0,1,-1,0,16,0,3,-5,-5,-6
-1,-1,0,1,-1,0,15,0,3,-5,-5,-6
-1,-1,0,1,-1,0,13,-1,3,-5,-5,-6
-2,-2,0,2,-1,0,11,-2,2,-5,-5,-6
-2,-2,0,2,-1,-1,10,-3,2,-5,-6,-6
-2,-2,0,2,-1,-1,9,-4,2,-5,-6,-6
-2,-2,0,2,-1,0,8,-4,2,-5,-6,-6
-2,-1,1,2,-1,0,8,-4,2,-5,-5,-6
-1,0,1,1,-1,0,7,-4,2,-5,-5,-6
-1,0,1,1,-1,0,7,-4,3,-5,-5,-6
-2,0,2,1,-2,0,6,-4,3,-4,-4,-5
-2,0,3,1,-3,1,6,-4,3,-4,-4,-5
-2,1,3,0,-3,2,5,-4,3,-4,-3,-4
-2,2,4,0,-3,3,5,-5,3,-3,-3,-4
-1,2,4,0,-3,4,5,-5,3,-3,-3,-3
-1,3,4,0,-3,4,4,-5,3,-3,-3,-3
-1,3,4,0,-3,4,3,-6,3,-3,-3,-3
-1,3,4,0,-3,3,2,-6,3,-3,-3,-3
-1,3,3,0,-3,3,1,-7,3,-3,-3,-3
0,3,3,0,-2,3,1,-8,2,-4,-3,-3
0,3,2,-1,-1,3,1,-9,2,-4,-3,-3
1,3,1,-2,0,2,1,-9,2,-4,-3,-2
2,3,0,-3,0,2,0,-10,1,-5,-3,-2
2,3,0,-3,0,1,0,-10,1,-5,-3,-2
3,3,-1,-3,1,1,0,-10,1,-5,-3,-2
4,3,-1,-3,1,1,0,-9,1,-5,-3,-2
4,3,-1,-4,2,1,1,-9,2,-4,-2,-1
4,3,-1,-4,2,1,1,-8,2,-4,-2,-1
4,3,-1,-4,2,0,1,-8,2,-3,-2,-1
4,2,-1,-3,2,0,2,-8,3,-3,-2,-1
3,1,-1,-2,1,0,3,-7,3,-3,-2,-1
1,0,-1,-1,0,0,4,-7,3,-3,-2,-1
0,-1,-1,0,0,-1,4,-8,3,-4,-3,-2
-1,-2,-2,1,0,-2,4,-8,2,-5,-4,-3
-1,-4,-2,3,0,-3,4,-9,2,-5,-4,-4
-2,-5,-3,4,0,-4,4,-9,1,-6,-5,-5
-3,-7,-3,5,0,-5,5,-9,1,-6,-6,-5
-4,-8,-4,6,-1,-6,5,-9,1,-7,-7,-6
-4,-8,-4,6,-1,-6,5,-10,1,-7,-7,-6
-5,-9,-5,7,-1,-7,4,-10,0,-7,-7,-7
-5,-10,-5,7,-1,-7,4,-11,0,-8,-8,-7
-5,-10,-5,7,-1,-7,4,-11,-1,-9,-8,-7
-5,-10,-5,7,0,-7,4,-11,-1,-9,-8,-7
-4,-9,-5,6,0,-7,5,-11,-1,-9,-8,-7
-3,-8,-5,5,0,-6,5,-10,-1,-9,-8,-7
-2,-7,-5,5,0,-6,5,-10,-1,-9,-8,-7
-3,-7,-4,5,0,-5,5,-11,-1,-9,-8,-7
-3,-7,-5,5,0,-6,5,-11,-1,-9,-8,-7
-3,-7,-5,5,1,-6,5,-11,-1,-9,-8,-7
-3,-8,-5,5,1,-6,4,-11,-1,-9,-8,-8
-3,-8,-5,6,0,-7,4,-12,-1,-10,-8,-8
-3,-9,-5,7,0,-7,4,-12,-1,-10,-9,-9
-3,-9,-5,7,0,-7,3,-12,-1,-10,-9,-9
-3,-9,-5,7,0,-7,3,-12,-1,-10,-10,-9
-3,-9,-6,6,1,-7,3,-12,-1,-10,-10,-9
-3,-9,-6,6,1,-7,3,-12,0,-10,-10,-9
-3,-9,-6,6,0,-7,4,-12,0,-10,-10,-9
-3,-9,-6,6,0,-7,4,-12,0,-10,-10,-9
-3,-9,-6,6,1,-7,4,-12,0,-10,-10,-9
-3,-10,-6,6,1,-7,4,-12,0,-10,-9,-9
-3,-10,-6,7,1,-8,5,-11,0,-10,-9,-9
-3,-10,-6,7,1,-8,5,-11,0,-10,-9,-9
-3,-10,-6,7,1,-8,5,-11,0,-10,-9,-9
-3,-10,-6,7,1,-8,5,-11,1,-10,-9,-9
-3,-10,-6,7,1,-8,4,-11,1,-10,-9,-9
-3,-10,-7,7,1,-8,4,-11,1,-10,-9,-9
-3,-10,-7,7,1,-8,4,-11,1,-10,-9,-9
-3,-10,-7,7,1,-8,3,-11,1,-10,-9,-9
-3,-10,-6,7,1,-8,3,-11,1,-9,-9,-9
-3,-9,-6,6,0,-7,2,-11,1,-9,-9,-9
-3,-8,-5,6,0,-6,2,-11,1,-9,-9,-9
-3,-8,-4,5,0,-6,1,-11,1,-9,-9,-9
-3,-8,-4,6,0,-6,1,-11,1,-9,-9,-8
-4,-8,-4,6,0,-6,2,-10,2,-9,-9,-8
-4,-8,-4,7,0,-6,3,-9,2,-9,-9,-8
-3,-9,-5,6,0,-7,5,-6,3,-9,-9,-9
-3,-9,-5,6,0,-7,8,-2,5,-9,-9,-9
-3,-10,-6,6,1,-8,12,5,8,-9,-9,-10
-3,-11,-7,7,1,-9,17,15,13,-8,-10,-11
-3,-12,-8,7,2,-10,24,29,21,-6,-10,-12
-2,-10,-8,6,2,-9,31,45,32,-1,-8,-11
1,-6,-8,2,4,-7,36,62,45,5,-4,-8
6,-1,-8,-2,6,-5,37,76,59,15,3,-3
11,5,-7,-8,8,-1,33,87,72,26,12,4
18,12,-6,-15,11,3,28,98,87,41,25,13
25,20,-5,-23,15,8,22,108,104,58,40,24
33,29,-4,-32,18,13,13,115,120,76,56,36
43,40,-2,-42,22,19,-1,116,133,94,74,50
52,52,0,-53,26,26,-18,111,143,114,93,64
61,65,3,-63,29,34,-36,99,150,132,112,79
69,78,8,-73,30,43,-53,83,153,148,130,94
76,90,13,-83,31,51,-71,63,153,163,147,108
82,102,19,-92,31,60,-91,40,153,177,163,121
86,112,25,-99,30,69,-110,14,150,190,178,134
89,122,33,-105,28,78,-132,-19,143,199,190,145
89,132,42,-110,24,87,-154,-58,131,206,200,155
88,140,52,-114,18,96,-175,-98,115,209,207,163
85,147,63,-116,11,105,-194,-140,93,206,208,168
80,152,71,-116,4,112,-211,-181,66,195,203,169
76,151,74,-113,0,113,-224,-214,36,176,192,165
71,142,69,-107,0,106,-232,-235,6,151,175,155
68,126,57,-97,4,92,-234,-247,-24,116,151,140
64,106,41,-86,11,74,-231,-254,-60,70,118,120
59,83,24,-71,17,53,-221,-254,-94,20,81,94
49,60,10,-55,19,35,-205,-244,-117,-20,45,67
38,39,1,-39,19,20,-185,-227,-127,-46,16,43
28,22,-6,-25,17,8,-162,-205,-126,-60,-4,23
21,9,-12,-15,16,-1,-140,-182,-119,-65,-17,9
15,-1,-17,-7,15,-9,-119,-159,-110,-66,-25,-1
11,-9,-20,-1,15,-14,-99,-138,-99,-66,-30,-8
8,-14,-22,2,14,-18,-82,-119,-88,-63,-33,-13
6,-18,-23,5,14,-20,-66,-101,-77,-59,-33,-16
5,-19,-24,7,14,-21,-53,-85,-66,-54,-33,-17
4,-20,-24,8,14,-22,-42,-71,-56,-49,-32,-18
3,-20,-23,8,13,-21,-33,-59,-48,-45,-31,-19
3,-19,-22,7,13,-20,-25,-49,-42,-41,-29,-19
2,-17,-21,7,11,-19,-18,-41,-36,-38,-27,-19
1,-16,-19,7,9,-17,-11,-33,-30,-35,-25,-18
0,-16,-16,7,7,-16,-6,-26,-24,-32,-23,-17
-1,-16,-14,8,5,-15,-1,-20,-19,-29,-22,-16
-3,-16,-13,9,4,-14,3,-15,-14,-27,-21,-16
-4,-16,-12,9,3,-14,6,-11,-11,-24,-20,-15
-4,-15,-11,9,3,-13,9,-7,-8,-22,-19,-15
-4,-14,-11,9,2,-13,11,-5,-7,-20,-18,-15
-5,-14,-10,10,1,-12,12,-3,-6,-19,-18,-15
-6,-14,-9,10,0,-12,13,-1,-5,-19,-17,-14
-7,-14,-8,10,0,-11,14,0,-4,-18,-17,-14
-7,-15,-8,10,0,-11,14,1,-4,-18,-17,-14
-8,-15,-7,11,-1,-11,15,2,-4,-18,-17,-14
-8,-15,-7,11,-1,-11,16,4,-4,-18,-17,-15
-8,-14,-7,11,-1,-10,17,5,-3,-17,-17,-15
-8,-14,-7,11,-1,-10,17,6,-2,-17,-17,-15
-8,-13,-7,11,-2,-10,17,7,-1,-17,-17,-15
-8,-12,-5,10,-3,-8,18,7,0,-16,-17,-15
-7,-10,-4,9,-3,-7,19,8,0,-16,-16,-14
-7,-10,-4,8,-3,-7,19,9,0,-16,-16,-14
-6,-11,-4,8,-2,-7,19,9,0,-16,-17,-15
-6,-11,-4,8,-2,-7,19,9,1,-16,-17,-15
-7,-10,-3,8,-2,-7,19,9,1,-16,-17,-16
-7,-10,-3,8,-2,-7,19,9,0,-16,-17,-16
-6,-10,-4,8,-2,-7,19,10,0,-16,-17,-17
-6,-10,-5,8,-2,-7,19,10,2,-16,-18,-17
-7,-10,-4,8,-2,-7,19,11,4,-17,-18,-18
-8,-11,-4,8,-3,-7,20,11,6,-17,-19,-18
-8,-10,-3,8,-3,-7,20,12,8,-17,-19,-17
-7,-10,-3,7,-3,-6,21,13,8,-17,-18,-17
-7,-10,-3,8,-3,-6,21,14,6,-16,-18,-16
-7,-10,-3,8,-3,-6,21,14,5,-16,-18,-16
-8,-11,-4,9,-3,-7,21,15,6,-16,-18,-16
-8,-11,-4,9,-2,-7,22,15,8,-16,-18,-16
-7,-11,-5,9,-2,-7,22,16,10,-16,-17,-16
-7,-11,-5,8,-1,-7,22,17,11,-15,-17,-16
-8,-12,-4,9,-2,-7,22,18,11,-15,-17,-16
-8,-12,-4,9,-2,-7,22,19,12,-15,-17,-16
-8,-12,-4,9,-3,-7,22,20,12,-15,-17,-16
-8,-12,-4,9,-3,-8,23,21,12,-15,-17,-17
-8,-12,-4,9,-3,-8,23,22,12,-15,-17,-17
-8,-12,-4,9,-3,-8,23,23,12,-16,-18,-17
-8,-11,-4,9,-2,-8,24,24,11,-16,-18,-17
-8,-11,-4,8,-2,-7,24,25,11,-16,-18,-17
-8,-11,-3,8,-3,-7,25,27,11,-16,-18,-17
-8,-11,-3,8,-3,-7,26,28,11,-16,-18,-18
-8,-11,-3,8,-3,-7,26,30,11,-16,-18,-18
-8,-11,-3,8,-3,-7,27,31,12,-16,-19,-18
-8,-11,-3,9,-3,-7,27,33,12,-15,-19,-18
-9,-11,-3,9,-3,-7,28,34,13,-15,-19,-18
-9,-11,-3,9,-3,-7,28,36,14,-15,-19,-18
-8,-11,-4,9,-3,-7,29,38,15,-15,-19,-19
-8,-11,-4,9,-2,-7,30,41,15,-16,-19,-19
-8,-10,-4,8,-2,-7,31,43,16,-15,-19,-19
-8,-10,-3,8,-3,-6,31,46,17,-15,-19,-19
-8,-10,-3,8,-3,-6,31,48,17,-14,-20,-20
-9,-10,-2,8,-4,-6,31,51,18,-14,-20,-20
-9,-10,-2,8,-4,-6,33,54,20,-15,-21,-20
-9,-10,-2,8,-4,-6,35,58,23,-15,-21,-20
-9,-10,-2,8,-3,-6,36,61,25,-15,-21,-20
-8,-10,-3,8,-3,-6,37,65,27,-14,-20,-19
-8,-10,-3,8,-3,-6,38,68,29,-13,-20,-19
-9,-11,-2,9,-3,-6,39,72,31,-12,-19,-19
-9,-11,-3,9,-3,-6,40,75,33,-12,-19,-19
-8,-11,-3,9,-3,-7,41,78,35,-11,-19,-19
-8,-10,-3,8,-2,-7,42,81,38,-10,-19,-19
-8,-9,-3,8,-3,-6,44,85,41,-10,-20,-19
-8,-10,-3,9,-3,-6,45,87,43,-10,-20,-20
-9,-10,-2,9,-4,-6,46,90,45,-9,-21,-20
-8,-9,-2,9,-4,-5,47,92,48,-8,-20,-20
-8,-9,-2,8,-3,-5,47,95,50,-7,-20,-20
-7,-8,-2,7,-3,-5,47,96,52,-5,-19,-20
-8,-8,-1,7,-4,-5,47,97,54,-4,-18,-19
-8,-7,0,7,-4,-4,47,98,56,-3,-17,-19
-9,-7,0,7,-5,-4,47,98,57,-2,-16,-18
-9,-7,1,7,-5,-3,47,98,57,-2,-15,-18
-9,-6,1,7,-5,-3,46,98,58,-1,-15,-17
-9,-6,1,7,-5,-2,46,98,58,0,-14,-17
-8,-5,1,6,-5,-2,45,96,58,0,-14,-16
-7,-4,1,5,-5,-1,43,94,58,1,-13,-16
-6,-3,1,4,-4,-1,42,92,57,2,-12,-15
-5,-2,1,3,-4,-1,40,89,57,4,-11,-14
-4,-1,2,2,-3,0,39,87,56,5,-9,-12
-4,0,2,2,-3,0,38,84,55,6,-7,-11
-4,0,2,2,-3,1,36,81,54,6,-6,-10
-4,0,3,2,-3,1,35,77,52,6,-6,-9
-4,0,3,2,-4,2,33,72,49,6,-5,-8
-4,0,3,2,-4,2,30,68,46,6,-5,-8
-3,0,3,1,-3,2,28,63,44,6,-4,-7
-1,1,2,-1,-2,2,27,59,41,6,-3,-7
0,2,2,-2,-2,2,26,55,39,6,-2,-6
0,3,2,-2,-2,2,24,50,36,6,-2,-6
0,3,3,-2,-2,3,22,45,32,5,-1,-5
0,4,3,-2,-2,3,20,41,28,5,-1,-5
0,4,3,-2,-2,3,18,36,24,4,-1,-4
0,4,2,-2,-2,3,16,31,21,4,0,-4
1,4,2,-3,-1,3,14,27,18,3,0,-4
1,4,1,-3,-1,3,13,24,16,3,0,-3
1,4,1,-3,-1,3,13,21,14,2,0,-3
1,3,1,-3,-1,3,12,18,11,0,0,-3
1,3,1,-3,-1,2,11,14,7,-1,0,-3
1,3,0,-2,-1,2,10,11,4,-2,0,-3
1,3,0,-2,0,1,9,9,2,-3,-1,-3
1,2,0,-2,0,1,8,6,1,-3,-1,-4
0,2,0,-1,-1,1,7,4,0,-4,-2,-4
0,1,0,-1,-1,1,6,2,-2,-5,-3,-5
0,1,0,-1,-1,1,6,0,-3,-6,-4,-5
0,1,0,-1,-1,1,6,0,-4,-7,-4,-5
0,1,0,-1,-1,1,6,-1,-6,-8,-4,-5
0,1,0,0,-1,1,5,-3,-7,-8,-4,-5
-1,0,0,0,-2,0,5,-4,-8,-8,-4,-6
-2,0,0,1,-1,0,4,-5,-9,-8,-5,-6
-2,-1,0,1,-1,-1,4,-6,-10,-8,-5,-6
-2,-2,0,1,-1,-1,4,-6,-10,-9,-5,-6
-2,0,0,0,-1,0,4,-6,-11,-9,-5,-6
-1,1,0,0,-1,1,4,-7,-11,-9,-5,-5
0,2,0,-1,-1,1,3,-8,-12,-9,-5,-5
0,2,0,-1,-1,1,3,-8,-13,-10,-5,-5
0,1,-1,-1,0,0,3,-8,-13,-10,-5,-5
0,0,-1,-1,0,0,3,-8,-14,-9,-5,-5
0,0,-1,-1,0,0,3,-9,-14,-9,-5,-5
0,0,-1,-1,0,0,2,-9,-14,-9,-5,-5
-1,0,0,-1,-1,0,2,-10,-15,-9,-5,-6
-2,0,0,0,-1,0,1,-10,-15,-9,-6,-6
-2,0,0,0,-1,0,1,-10,-15,-9,-6,-7
-2,0,0,1,-1,0,1,-11,-16,-9,-6,-7
-1,0,0,0,-1,0,1,-11,-17,-9,-6,-7
-1,1,0,0,-1,0,1,-11,-19,-8,-5,-6
-1,0,0,0,-1,0,2,-11,-21,-9,-5,-6
-1,0,0,0,0,0,2,-11,-22,-9,-5,-7
-1,0,0,0,-1,0,2,-11,-23,-9,-5,-7
-1,0,0,0,-1,0,2,-11,-25,-9,-5,-7
-1,1,1,0,-2,1,2,-12,-26,-9,-5,-7
-1,1,1,0,-2,1,2,-12,-26,-9,-5,-7
-1,1,1,0,-2,1,2,-12,-26,-9,-5,-7
-1,1,1,0,-2,1,2,-12,-26,-9,-5,-7
-1,0,0,0,-2,0,2,-11,-26,-9,-5,-7
-2,0,0,0,-2,0,1,-11,-26,-9,-5,-7
-2,0,0,1,-2,0,1,-11,-26,-9,-5,-6
-2,-1,0,1,-2,-1,1,-12,-26,-9,-5,-6
-2,-2,-1,1,-2,-1,1,-12,-26,-9,-5,-6
-2,-1,-1,1,-1,-1,2,-11,-26,-8,-5,-6
-1,-1,-1,0,-1,-1,2,-10,-26,-8,-4,-5
-1,-1,-2,0,0,-1,2,-10,-26,-8,-4,-5
-1,-1,-1,0,0,-1,1,-10,-26,-8,-5,-6
-1,0,0,0,-1,0,1,-10,-26,-9,-5,-6
-1,0,0,0,-1,0,0,-10,-26,-9,-6,-6
-1,0,0,0,-1,0,0,-10,-26,-9,-6,-7
-1,1,0,0,-1,1,1,-10,-26,-9,-6,-7
-1,1,1,-1,-1,1,2,-9,-26,-8,-6,-7
-1,1,1,0,-2,1,3,-8,-26,-8,-6,-7
-1,1,1,0,-2,1,3,-8,-26,-8,-6,-8
-1,1,1,0,-2,1,3,-8,-27,-9,-7,-8
-1,1,1,0,-1,1,3,-8,-26,-9,-7,-8
-1,1,1,0,-1,1,4,-8,-26,-9,-7,-8
-1,0,1,0,-1,0,4,-7,-25,-8,-7,-9
-1,0,1,0,-1,0,5,-7,-25,-8,-7,-9
-2,0,1,1,-2,0,6,-6,-25,-8,-6,-8
-3,-1,1,1,-2,0,6,-6,-24,-8,-6,-8
-4,-2,1,2,-3,-1,6,-6,-24,-8,-6,-8
-4,-3,0,3,-3,-2,6,-5,-24,-8,-7,-8
-5,-4,0,4,-3,-2,6,-5,-24,-8,-7,-9
-4,-3,0,4,-2,-2,7,-4,-24,-8,-7,-9
-2,-2,0,2,-1,-1,8,-3,-23,-7,-7,-9
-1,-1,0,1,-1,-1,9,-2,-22,-7,-7,-8
-1,-1,0,1,-1,-1,9,-1,-22,-8,-8,-8
-2,0,0,1,-1,0,9,-1,-23,-8,-8,-8
-2,0,1,1,-1,0,9,-1,-23,-7,-7,-8
-2,1,1,0,-2,1,10,-1,-23,-6,-7,-8
-2,1,2,0,-2,2,10,-1,-22,-6,-6,-8
-2,1,2,0,-2,2,11,0,-21,-5,-6,-8
-2,1,3,0,-3,3,12,0,-21,-5,-6,-7
-3,1,4,0,-3,3,12,0,-21,-5,-6,-7
-3,2,4,0,-4,3,12,0,-22,-5,-6,-7
-3,2,4,0,-4,4,12,1,-22,-5,-6,-7
-2,3,4,0,-4,4,12,1,-21,-5,-6,-7
-2,3,4,0,-4,4,13,2,-21,-4,-6,-7
-2,2,4,0,-4,4,15,3,-21,-4,-6,-7
-2,2,4,1,-4,4,16,4,-20,-3,-6,-6
-2,2,4,1,-4,4,16,5,-20,-2,-5,-6
-2,2,5,1,-4,4,16,5,-20,-2,-5,-6
-3,2,5,1,-4,3,16,4,-20,-2,-5,-6
-3,2,4,1,-4,3,15,4,-20,-2,-5,-7
-3,2,4,0,-4,3,14,3,-21,-2,-5,-7
-2,2,4,0,-4,3,13,3,-21,-2,-6,-7
-2,3,4,0,-3,3,11,2,-22,-2,-6,-7
-2,3,5,0,-3,4,9,1,-23,-2,-6,-6
-1,4,5,-1,-4,5,7,0,-24,-2,-6,-6
-1,5,5,-1,-4,5,6,0,-24,-2,-6,-6
-1,5,5,-1,-4,5,6,0,-23,-1,-5,-6
-1,5,6,-1,-4,5,6,0,-23,-1,-5,-5
-1,5,6,-1,-4,6,6,0,-23,-1,-4,-4
-1,6,7,-1,-4,7,6,0,-23,0,-3,-3
-2,7,8,-1,-5,8,5,0,-23,0,-2,-2
-3,7,9,-1,-6,8,5,-1,-23,0,-2,-2
-3,7,9,-1,-7,8,4,-1,-23,0,-2,-2
-3,7,9,-1,-7,8,3,-2,-23,0,-2,-2
-1,8,9,-2,-6,8,2,-2,-23,-1,-2,-2
0,9,9,-3,-6,9,1,-3,-24,-1,-2,-2
0,9,9,-4,-6,9,0,-4,-25,-2,-2,-2
0,10,9,-4,-6,9,0,-5,-26,-2,-3,-2
0,10,10,-4,-6,10,0,-5,-26,-2,-4,-3
0,10,10,-5,-6,10,0,-5,-26,-1,-4,-3
0,10,9,-5,-5,10,0,-5,-26,-1,-4,-3
0,10,9,-5,-5,10,0,-5,-26,-1,-3,-3
1,10,8,-5,-5,10,0,-5,-26,-1,-3,-2
1,10,7,-5,-4,9,0,-5,-26,-1,-2,-2
1,9,6,-5,-4,8,0,-5,-25,-1,-2,-1
2,8,5,-5,-3,7,1,-5,-25,0,-1,-1
2,7,4,-5,-2,6,1,-4,-25,0,0,0
2,7,4,-4,-2,5,1,-4,-25,0,0,0
1,5,3,-3,-2,4,2,-4,-25,0,0,0
0,4,4,-1,-3,4,2,-4,-25,-1,-1,-1
-2,2,4,1,-4,3,2,-4,-26,-2,-2,-2
-3,1,4,2,-5,3,2,-5,-27,-3,-4,-3
-4,0,3,2,-5,1,2,-5,-28,-4,-5,-4
-5,-1,2,3,-5,0,1,-6,-28,-5,-6,-5
-4,-2,1,3,-4,0,2,-7,-29,-5,-6,-6
-3,-1,1,2,-3,0,3,-6,-28,-5,-6,-6
-1,0,1,0,-2,0,4,-6,-28,-4,-5,-6
-1,0,1,0,-2,0,4,-6,-27,-4,-5,-6
-1,-1,0,1,-2,0,4,-6,-27,-4,-5,-6
-2,-2,-1,2,-2,-1,4,-6,-28,-4,-5,-6
-3,-3,-1,3,-2,-2,5,-5,-28,-4,-5,-6
-3,-5,-2,4,-2,-3,5,-5,-28,-4,-5,-6
-4,-6,-2,5,-2,-4,5,-6,-28,-5,-5,-6
-5,-6,-2,5,-2,-4,5,-6,-29,-5,-6,-6
-5,-6,-2,5,-2,-4,5,-7,-30,-6,-6,-7
-5,-6,-1,5,-2,-4,5,-7,-31,-6,-7,-7
-5,-6,-1,6,-3,-3,5,-8,-31,-6,-7,-8
-5,-5,-1,6,-3,-3,5,-8,-31,-6,-7,-8
-5,-5,-1,6,-3,-3,5,-8,-31,-6,-7,-9
-5,-6,-2,5,-2,-3,5,-8,-30,-6,-7,-9
-5,-6,-2,5,-2,-4,5,-8,-30,-6,-7,-9
-5,-6,-1,5,-3,-4,5,-8,-30,-6,-8,-9
-6,-6,-1,5,-3,-4,4,-9,-31,-7,-8,-9
-6,-6,-1,6,-3,-4,4,-9,-31,-7,-9,-9
-6,-7,-1,6,-3,-4,4,-9,-31,-7,-9,-9
-6,-7,-1,6,-3,-4,4,-9,-31,-7,-8,-9
-6,-7,-2,7,-3,-5,3,-9,-31,-7,-8,-9
-6,-7,-2,7,-2,-5,3,-9,-31,-7,-8,-9
-6,-7,-2,6,-2,-5,3,-9,-31,-7,-7,-9
-5,-7,-3,5,-1,-5,3,-8,-31,-7,-7,-8
-4,-7,-3,5,-1,-5,3,-8,-30,-7,-6,-8
-5,-7,-2,5,-2,-5,3,-8,-30,-6,-6,-7
-4,-6,-2,5,-2,-4,3,-8,-30,-6,-5,-6
-3,-5,-2,4,-1,-4,3,-8,-30,-5,-5,-6
-2,-4,-2,3,-1,-3,3,-8,-29,-4,-4,-6
-2,-3,-1,3,-1,-3,3,-8,-29,-4,-4,-6
-2,-4,-1,3,-1,-3,3,-8,-30,-5,-5,-7
-3,-5,-2,4,-1,-3,3,-8,-30,-5,-6,-8
-3,-5,-2,4,-1,-4,3,-8,-31,-6,-7,-9
-4,-6,-2,5,-2,-4,3,-8,-31,-6,-7,-9
-4,-6,-2,5,-2,-4,3,-8,-31,-6,-8,-9
-4,-5,-1,5,-2,-3,4,-8,-31,-6,-8,-9
-4,-4,-1,4,-2,-3,5,-7,-30,-6,-8,-9
-4,-5,-2,4,-2,-3,6,-6,-29,-6,-8,-9
-4,-6,-2,5,-2,-4,8,-3,-28,-6,-8,-9
-4,-7,-3,5,-1,-5,11,2,-26,-6,-8,-9
-4,-9,-5,6,0,-6,15,9,-22,-6,-9,-10
-4,-9,-5,6,0,-7,20,20,-16,-4,-9,-11
-4,-8,-5,6,0,-7,25,34,-7,-1,-8,-11
-2,-6,-5,4,0,-6,30,50,4,4,-5,-9
1,-3,-6,1,2,-5,33,65,17,12,0,-6
7,1,-7,-4,6,-3,32,76,29,22,8,0
14,8,-7,-10,9,0,28,83,41,34,19,8
22,16,-7,-19,13,4,22,90,54,49,33,19
32,25,-7,-29,18,9,16,96,68,66,50,32
42,35,-7,-39,23,14,6,97,79,83,68,45
51,46,-6,-48,27,20,-7,92,86,100,87,60
60,57,-4,-57,30,26,-23,78,90,118,107,75
68,68,0,-67,33,33,-38,59,90,133,126,91
76,81,3,-77,35,41,-51,37,86,146,144,105
84,94,9,-88,37,50,-65,13,82,158,160,119
90,106,15,-97,36,60,-81,-11,77,170,175,132
92,115,23,-104,34,69,-96,-40,69,179,188,143
92,124,32,-109,29,78,-114,-74,55,185,198,153
89,133,44,-112,22,88,-131,-110,38,188,205,162
83,142,58,-113,12,100,-146,-146,18,188,208,167
75,148,72,-112,1,110,-161,-182,-5,180,205,169
67,149,82,-108,-8,115,-173,-214,-32,165,194,166
59,143,83,-101,-13,113,-180,-235,-58,143,178,157
53,129,75,-91,-12,102,-184,-247,-82,115,156,144
49,110,61,-80,-7,86,-185,-253,-110,75,125,124
44,89,44,-67,-1,67,-182,-253,-140,27,87,99
37,66,30,-51,2,48,-173,-246,-162,-17,47,70
26,45,19,-35,2,33,-159,-232,-173,-48,13,43
16,27,11,-21,1,20,-142,-213,-173,-65,-10,21
8,13,5,-10,1,9,-125,-191,-167,-72,-25,5
3,2,0,-3,1,1,-107,-168,-156,-74,-34,-6
0,-5,-5,2,1,-5,-91,-147,-144,-72,-39,-13
-2,-10,-8,5,1,-9,-77,-127,-132,-69,-41,-18
-3,-13,-11,7,2,-12,-63,-108,-119,-64,-41,-20
-3,-16,-13,9,3,-14,-52,-91,-108,-59,-40,-22
-3,-17,-14,10,4,-15,-42,-76,-97,-54,-38,-22
-4,-16,-13,10,3,-14,-34,-63,-88,-48,-36,-22
-4,-15,-11,10,3,-13,-27,-52,-79,-43,-33,-22
-3,-14,-11,9,3,-13,-21,-43,-72,-39,-30,-21
-2,-12,-10,7,3,-12,-16,-34,-66,-36,-28,-20
-2,-11,-10,6,3,-11,-10,-27,-59,-32,-26,-18
-3,-11,-9,6,1,-10,-5,-20,-53,-28,-24,-17
-4,-11,-8,7,0,-10,-1,-14,-48,-25,-22,-17
-5,-12,-8,8,0,-9,2,-9,-44,-22,-21,-16
-5,-12,-8,8,0,-10,5,-5,-40,-20,-19,-16
-5,-12,-8,9,0,-10,7,-2,-38,-18,-18,-16
-6,-12,-7,9,0,-10,8,0,-36,-16,-17,-15
-7,-12,-6,10,-1,-10,9,1,-34,-15,-17,-15
-7,-12,-5,10,-2,-9,10,3,-33,-15,-16,-15
-7,-12,-5,10,-3,-9,11,4,-32,-15,-16,-14
-7,-12,-4,10,-3,-8,12,4,-32,-15,-16,-15
-7,-12,-4,10,-2,-8,12,5,-31,-15,-17,-15
-7,-12,-5,10,-2,-8,12,5,-31,-15,-17,-16
-8,-13,-5,10,-2,-8,12,6,-30,-15,-17,-17
-8,-13,-5,11,-2,-9,13,7,-29,-14,-17,-18
-8,-12,-5,10,-2,-9,14,8,-27,-13,-17,-18
-7,-11,-4,9,-2,-8,14,9,-26,-13,-16,-17
-7,-10,-4,8,-2,-7,14,9,-26,-12,-15,-15
-7,-9,-3,8,-3,-7,14,10,-25,-12,-15,-14
-7,-10,-3,9,-3,-7,14,10,-25,-13,-15,-14
-8,-10,-3,9,-3,-7,14,10,-25,-13,-15,-14
-8,-10,-3,9,-3,-6,14,11,-25,-12,-15,-14
-7,-10,-3,9,-3,-6,15,12,-24,-12,-15,-14
-7,-11,-4,9,-3,-6,15,13,-24,-12,-15,-14
-8,-12,-4,10,-4,-7,16,13,-24,-13,-16,-15
-8,-12,-4,10,-3,-8,16,14,-23,-13,-17,-15
-7,-11,-4,9,-3,-8,17,14,-23,-13,-17,-14
-6,-10,-4,9,-3,-8,17,15,-23,-13,-17,-14
-6,-11,-4,9,-2,-8,17,15,-23,-13,-16,-14
-6,-11,-5,9,-2,-8,17,16,-23,-13,-16,-14
-6,-11,-5,9,-2,-8,17,16,-22,-12,-16,-14
-7,-11,-5,9,-2,-8,17,17,-22,-12,-16,-15
-7,-11,-4,9,-3,-8,18,17,-22,-12,-16,-15
-8,-12,-4,10,-3,-8,18,18,-22,-12,-16,-15
-8,-12,-3,10,-3,-8,18,18,-21,-12,-16,-15
-8,-11,-3,10,-3,-8,18,19,-21,-12,-16,-15
-8,-11,-3,9,-3,-7,18,19,-21,-12,-16,-15
-7,-10,-3,8,-3,-7,18,20,-21,-12,-16,-15
-7,-10,-4,9,-3,-7,19,21,-20,-11,-16,-15
-6,-11,-5,9,-2,-8,19,22,-19,-11,-16,-16
-6,-11,-5,9,-2,-8,19,23,-18,-11,-16,-16
-7,-12,-5,9,-2,-8,20,24,-18,-11,-16,-15
-7,-12,-5,10,-2,-8,20,25,-17,-11,-16,-15
-7,-12,-5,10,-2,-8,20,25,-17,-11,-17,-15
-7,-12,-5,10,-2,-8,20,26,-16,-11,-17,-15
-7,-12,-5,10,-2,-8,20,27,-15,-11,-17,-15
-8,-13,-5,10,-2,-9,20,29,-14,-11,-17,-16
-8,-13,-5,10,-2,-9,20,30,-13,-11,-17,-16
-9,-13,-5,10,-3,-9,20,32,-12,-10,-17,-16
-9,-12,-4,10,-3,-8,21,34,-11,-10,-17,-16
-8,-11,-3,9,-3,-7,22,36,-9,-9,-17,-16
-7,-10,-3,9,-3,-7,22,38,-8,-9,-17,-16
-7,-10,-3,9,-2,-7,23,41,-6,-9,-17,-16
-7,-11,-4,9,-2,-8,24,43,-4,-8,-17,-15
-7,-12,-5,9,-2,-8,25,46,-2,-8,-17,-15
-7,-13,-6,9,-2,-9,26,49,-1,-8,-17,-15
-7,-13,-6,9,-2,-9,27,52,0,-8,-17,-16
-7,-13,-6,10,-2,-9,27,55,2,-8,-18,-16
-7,-14,-7,10,-2,-10,28,57,4,-8,-18,-17
-7,-14,-7,11,-2,-11,28,60,7,-7,-19,-18
-7,-14,-7,11,-2,-11,29,64,10,-6,-19,-18
-8,-14,-6,11,-2,-10,29,67,13,-5,-19,-18
-8,-14,-6,11,-2,-10,30,70,15,-5,-19,-18
-9,-14,-5,11,-3,-9,30,74,18,-4,-19,-18
-8,-13,-4,10,-3,-8,31,77,21,-2,-18,-17
-8,-12,-4,9,-2,-8,32,81,24,0,-17,-17
-7,-11,-4,9,-2,-8,34,84,27,1,-17,-17
-7,-10,-5,9,-2,-8,34,86,29,2,-17,-17
-6,-10,-5,8,-2,-8,35,88,31,2,-17,-16
-6,-10,-4,8,-2,-7,35,90,33,3,-16,-16
-7,-10,-3,8,-3,-6,35,91,34,5,-16,-15
-7,-9,-2,8,-3,-6,35,92,36,7,-15,-15
-7,-9,-2,8,-3,-5,35,93,38,8,-14,-15
-6,-8,-2,7,-3,-5,35,93,39,10,-12,-14
-5,-7,-2,6,-2,-5,35,94,40,11,-11,-14
-4,-7,-2,6,-2,-5,35,94,40,11,-10,-13
-5,-7,-2,6,-2,-5,35,93,40,12,-9,-12
-5,-7,-2,5,-2,-5,35,91,39,12,-8,-11
-5,-7,-2,5,-3,-4,34,89,38,12,-8,-10
-5,-7,-2,6,-3,-4,33,86,37,12,-7,-9
-5,-7,-2,6,-3,-4,32,84,36,13,-7,-9
-5,-6,-2,5,-3,-4,32,82,35,14,-6,-8
-4,-5,-1,5,-3,-3,31,79,33,14,-5,-8
-4,-4,0,4,-3,-3,30,76,31,14,-4,-7
-3,-2,0,3,-3,-2,29,72,29,14,-2,-6
-2,-1,0,2,-2,-1,28,68,27,14,-1,-5
-2,-1,0,2,-2,-1,26,64,24,14,0,-5
-2,-1,0,2,-2,-1,25,60,22,14,0,-4
-2,-1,0,2,-1,-1,24,56,20,14,0,-3
0,-1,0,1,-1,0,23,52,17,14,1,-2
0,0,0,0,-1,0,22,47,13,13,1,-1
-1,-1,0,1,-1,0,21,43,9,12,1,-1
-1,-1,0,1,-1,0,19,38,5,11,1,-1
-1,-1,0,1,-1,-1,18,34,2,9,1,-1
-1,-1,-1,1,-1,-1,17,30,-1,7,1,-1
0,-1,-2,1,0,-1,16,26,-4,6,1,-1
0,-1,-1,1,0,-1,15,22,-7,5,0,-1
0,-1,0,1,0,-1,14,19,-11,4,0,-1
0,0,0,1,0,0,13,15,-14,3,-1,-2
0,0,0,1,-1,0,12,13,-16,2,-1,-2
-1,0,0,1,-2,0,12,11,-17,2,-1,-2
-2,0,0,2,-2,0,11,9,-19,1,-1,-2
-2,-1,0,2,-2,0,11,7,-21,0,-1,-2
-3,-1,0,2,-2,-1,10,5,-22,-1,-1,-2
-3,-2,0,3,-2,-1,10,3,-24,-2,-1,-2
-4,-4,-1,4,-2,-3,10,2,-25,-3,-2,-2
-4,-6,-1,5,-2,-4,10,1,-26,-3,-2,-2
-4,-6,-2,5,-1,-5,10,1,-27,-4,-2,-2
-3,-7,-4,5,0,-6,10,0,-28,-4,-3,-2
-3,-7,-5,5,0,-6,10,-1,-29,-5,-3,-3
-3,-7,-5,5,0,-6,10,-1,-30,-6,-4,-3
-3,-6,-5,5,0,-5,10,-2,-31,-6,-4,-3
-3,-6,-4,4,0,-5,10,-3,-31,-6,-4,-3
-2,-6,-3,4,0,-4,10,-4,-32,-6,-4,-3
-2,-6,-3,4,-1,-4,9,-4,-33,-6,-4,-3
-3,-6,-2,4,-1,-4,9,-5,-33,-6,-4,-4
-3,-6,-2,4,-2,-4,8,-5,-34,-7,-5,-4
-4,-6,-2,4,-2,-4,8,-6,-35,-7,-5,-4
-4,-6,-2,4,-2,-4,8,-6,-35,-7,-5,-4
-4,-6,-2,4,-2,-4,8,-7,-36,-7,-5,-4
-4,-5,-2,4,-2,-4,8,-7,-36,-7,-5,-4
-3,-5,-2,4,-2,-4,8,-7,-36,-7,-4,-3
-4,-5,-2,5,-2,-4,8,-7,-36,-7,-4,-3
-4,-6,-2,5,-2,-5,7,-7,-36,-7,-4,-3
-4,-6,-3,5,-1,-5,7,-7,-37,-7,-4,-3
-4,-6,-3,5,-1,-4,7,-7,-37,-7,-4,-3
-4,-6,-2,4,-2,-4,7,-7,-37,-7,-4,-3
-4,-5,-2,4,-2,-4,7,-7,-37,-7,-4,-3
-4,-5,-2,4,-2,-4,7,-8,-37,-7,-4,-3
-4,-6,-2,5,-2,-4,6,-8,-38,-7,-4,-3
-5,-6,-2,5,-2,-4,6,-9,-38,-7,-5,-3
-5,-7,-2,6,-3,-4,5,-9,-39,-8,-5,-3
-5,-8,-2,6,-3,-5,5,-9,-39,-8,-6,-4
-4,-7,-2,5,-2,-4,5,-9,-39,-8,-5,-4
-3,-5,-1,4,-2,-3,6,-9,-39,-8,-5,-3
-4,-5,-1,4,-2,-3,6,-9,-39,-8,-5,-3
-4,-5,-2,4,-2,-3,6,-9,-39,-8,-5,-3
-4,-4,-2,4,-2,-4,6,-9,-40,-8,-5,-3
-4,-4,-2,4,-2,-4,6,-9,-40,-8,-5,-3
-4,-4,-2,4,-2,-4,6,-9,-40,-8,-5,-3
-4,-5,-2,4,-2,-4,6,-9,-40,-8,-5,-3
-4,-6,-2,5,-2,-4,6,-9,-41,-8,-5,-3
-5,-7,-2,5,-2,-4,6,-9,-41,-9,-5,-4
-6,-7,-2,6,-2,-4,6,-9,-41,-9,-6,-4
-7,-8,-2,7,-3,-4,6,-9,-41,-10,-7,-4
-7,-8,-2,8,-3,-5,6,-9,-41,-10,-7,-4
-6,-7,-2,7,-3,-4,7,-8,-40,-9,-7,-4
-4,-6,-2,5,-2,-4,7,-8,-40,-9,-6,-3
-4,-6,-2,5,-2,-4,8,-8,-40,-9,-6,-3
-4,-7,-2,5,-1,-4,8,-8,-40,-9,-6,-3
-4,-7,-3,5,-1,-5,8,-8,-40,-9,-7,-3
-4,-7,-3,5,-1,-5,8,-7,-40,-9,-7,-4
-4,-7,-3,5,-1,-5,9,-7,-39,-9,-7,-4
-4,-6,-3,5,-1,-5,9,-6,-39,-9,-7,-4
-4,-6,-3,5,-1,-5,9,-6,-39,-9,-7,-4
-5,-7,-3,6,-2,-5,9,-5,-38,-9,-7,-4
-5,-7,-3,6,-2,-5,9,-5,-38,-9,-7,-4
-5,-8,-3,7,-2,-5,10,-4,-37,-9,-7,-4
-5,-8,-3,7,-2,-5,10,-4,-37,-9,-7,-4
-4,-7,-3,6,-1,-5,10,-4,-37,-9,-7,-4
-4,-7,-3,6,-1,-5,10,-4,-37,-8,-7,-4
-4,-7,-2,6,-2,-5,11,-3,-36,-8,-7,-4
-5,-7,-2,6,-2,-4,11,-3,-36,-7,-7,-4
-5,-7,-1,6,-3,-4,12,-2,-35,-7,-7,-4
-5,-6,-1,6,-3,-3,12,-1,-34,-7,-7,-4
-5,-6,-1,6,-3,-3,12,0,-32,-6,-7,-4
-5,-6,-1,5,-3,-3,13,0,-31,-6,-7,-4
-5,-6,-1,5,-3,-3,13,1,-29,-5,-7,-4
-5,-6,-1,5,-3,-3,14,2,-28,-5,-6,-4
-4,-5,-1,5,-3,-3,14,3,-27,-4,-6,-4
-3,-4,-1,4,-2,-2,15,4,-25,-3,-5,-3
-3,-3,0,3,-2,-2,16,5,-23,-3,-5,-3
-3,-3,0,3,-2,-1,16,6,-22,-2,-4,-3
-4,-3,0,3,-3,-1,17,6,-20,-1,-4,-2
-5,-3,1,4,-3,0,17,6,-19,-1,-4,-2
-5,-3,1,4,-4,0,16,6,-18,0,-4,-2
-5,-2,2,4,-4,0,15,6,-17,0,-4,-2
-4,-2,2,3,-3,0,14,6,-16,0,-4,-2
-4,-2,2,3,-3,0,13,6,-15,0,-4,-2
-5,-3,2,4,-3,0,12,5,-15,0,-4,-2
-5,-3,2,4,-3,0,10,5,-14,0,-4,-2
-5,-2,2,4,-3,0,9,4,-14,0,-4,-2
-5,-2,2,3,-4,0,8,4,-13,0,-3,-2
-5,-1,2,3,-4,1,8,4,-13,0,-3,-2
-4,-1,2,2,-4,1,7,4,-12,1,-3,-1
-4,0,3,2,-4,1,7,4,-10,1,-3,-1
-4,0,4,2,-5,2,6,4,-9,2,-2,0
-4,1,5,2,-5,3,6,4,-8,2,-2,0
-4,2,6,2,-6,4,5,4,-6,2,-2,0
-4,2,6,2,-6,4,5,4,-4,2,-2,0
-4,2,7,1,-6,5,5,3,-2,2,-1,0
-4,3,7,1,-6,5,4,3,-1,2,-1,0
-3,3,7,0,-6,5,4,2,0,2,-1,0
-3,3,7,0,-6,5,3,2,1,2,-1,0
-3,3,7,0,-6,5,2,1,1,2,-1,0
-3,3,7,0,-6,5,2,1,2,1,-1,0
-3,3,7,0,-5,5,2,0,2,1,-2,0
-2,3,6,0,-5,5,2,0,3,0,-2,0
-2,3,5,0,-4,4,2,0,4,0,-2,0
-1,3,5,0,-4,4,1,-1,4,0,-2,0
-1,4,5,-1,-4,4,1,-1,6,0,-2,0
-1,4,5,-1,-4,4,2,0,8,0,-2,0
-1,4,5,0,-4,4,2,0,9,0,-1,0
-1,4,5,0,-4,5,2,0,10,1,-1,0
-1,4,5,-1,-3,5,3,1,11,1,0,0
-1,4,5,-1,-3,5,4,1,11,1,0,0
-2,3,5,0,-4,4,5,2,11,1,0,0
-4,1,4,1,-5,3,6,2,12,1,-1,-1
-5,-1,3,3,-5,1,6,1,12,0,-2,-2
-6,-2,2,4,-5,0,6,1,11,-1,-3,-2
-6,-3,1,5,-5,0,6,0,10,-2,-4,-3
-7,-5,1,7,-5,-1,6,0,9,-3,-5,-4
-8,-7,0,8,-5,-2,6,-1,8,-4,-5,-5
-7,-7,0,7,-4,-3,7,-1,8,-4,-5,-5
-6,-6,0,6,-3,-3,8,-1,9,-4,-5,-5
-6,-6,0,6,-3,-3,8,-1,9,-5,-6,-6
-6,-7,-1,6,-3,-3,8,-1,9,-6,-7,-6
-7,-7,-1,7,-3,-3,8,-1,9,-6,-7,-7
-6,-7,-1,7,-3,-4,8,-1,9,-6,-7,-7
-6,-7,-2,7,-3,-4,8,-2,9,-6,-7,-7
-6,-7,-2,7,-3,-5,8,-2,9,-7,-7,-7
-7,-8,-2,8,-3,-5,8,-2,9,-7,-7,-7
-8,-9,-2,9,-4,-5,8,-3,9,-7,-7,-8
-7,-9,-2,8,-3,-5,8,-3,9,-7,-8,-8
-6,-9,-2,8,-3,-5,8,-3,9,-7,-8,-8
-6,-8,-2,7,-3,-5,8,-3,8,-7,-8,-8
-6,-8,-2,7,-3,-4,8,-3,8,-7,-8,-8
-6,-8,-2,7,-3,-4,8,-4,7,-8,-8,-8
-6,-7,-2,7,-3,-4,8,-4,5,-8,-8,-8
-6,-7,-2,7,-3,-4,8,-4,4,-8,-8,-8
-6,-7,-2,7,-3,-4,8,-5,5,-8,-8,-8
-6,-8,-3,7,-2,-4,7,-5,5,-8,-8,-8
-6,-8,-3,8,-2,-5,7,-5,5,-8,-8,-8
-7,-9,-2,8,-3,-5,7,-5,5,-8,-8,-8
-7,-9,-2,8,-3,-5,7,-5,4,-8,-8,-8
-7,-8,-2,8,-3,-5,7,-5,5,-8,-8,-8
-7,-8,-2,8,-3,-5,7,-5,5,-8,-8,-8
-7,-8,-2,8,-3,-5,7,-5,5,-8,-8,-8
-7,-8,-2,8,-3,-5,7,-5,3,-8,-7,-8
-7,-9,-2,8,-3,-5,7,-6,2,-8,-7,-8
-7,-9,-3,9,-3,-6,7,-6,2,-8,-8,-8
-7,-9,-3,9,-3,-6,7,-6,2,-7,-7,-8
-7,-9,-3,8,-3,-6,7,-6,3,-7,-7,-8
-7,-10,-3,8,-3,-6,6,-6,3,-7,-7,-9
-7,-10,-3,9,-3,-6,6,-6,3,-7,-7,-9
-7,-9,-3,9,-3,-6,6,-6,3,-8,-7,-8
-7,-9,-3,8,-2,-6,6,-6,3,-8,-7,-8
-6,-8,-3,8,-2,-6,6,-6,3,-7,-7,-8
-6,-8,-3,8,-2,-6,7,-6,3,-7,-7,-8
-5,-8,-3,7,-2,-6,7,-5,4,-6,-6,-8
-5,-8,-4,7,-1,-6,8,-3,4,-6,-6,-8
-5,-9,-5,7,-1,-7,10,-1,5,-6,-6,-9
-5,-9,-5,7,0,-7,12,2,7,-6,-7,-10
-5,-10,-6,8,0,-8,15,8,9,-6,-8,-11
-5,-11,-7,8,0,-9,19,18,14,-5,-9,-12
-5,-11,-6,8,0,-9,24,30,22,-3,-9,-13
-5,-10,-5,8,0,-8,30,45,33,0,-8,-12
-3,-8,-5,6,0,-6,35,62,46,7,-4,-10
0,-4,-5,2,2,-5,36,76,60,15,2,-6
6,1,-5,-3,5,-2,34,85,72,26,11,0
13,8,-4,-10,7,1,29,93,87,41,24,10
21,17,-3,-19,11,6,23,101,103,59,39,21
29,27,-2,-28,15,12,15,107,118,78,57,34
39,38,-2,-38,19,18,3,108,131,97,76,48
48,49,0,-48,23,25,-12,101,139,116,96,63
57,61,3,-58,26,32,-28,88,144,135,117,79
64,73,8,-67,27,40,-43,69,144,151,135,94
70,85,14,-76,27,49,-60,47,142,165,153,108
75,97,21,-85,27,58,-78,23,139,180,169,122
80,109,29,-93,25,68,-96,-4,134,193,184,135
82,120,37,-100,22,78,-115,-37,124,203,197,147
82,129,46,-105,17,88,-135,-75,110,209,207,157
79,137,58,-107,10,98,-154,-114,91,211,213,164
74,144,69,-108,1,107,-172,-154,69,207,214,169
67,148,80,-107,-7,114,-188,-193,40,195,209,169
61,148,86,-104,-12,116,-201,-226,9,175,196,165
58,143,84,-100,-13,112,-207,-247,-20,149,178,157
55,129,73,-92,-9,101,-210,-258,-49,115,154,142
52,110,57,-81,-2,83,-209,-264,-82,68,120,122
48,88,40,-68,3,64,-202,-262,-113,16,81,96
40,66,25,-52,6,45,-189,-252,-133,-27,43,68
29,45,15,-36,6,30,-172,-235,-142,-55,12,42
20,27,7,-23,6,17,-153,-213,-140,-70,-10,21
13,14,0,-12,6,6,-133,-189,-132,-76,-23,6
8,3,-5,-5,7,-2,-114,-166,-121,-76,-31,-4
5,-4,-10,0,7,-8,-96,-144,-108,-74,-36,-11
3,-10,-13,4,7,-12,-80,-124,-96,-70,-39,-16
2,-13,-16,6,8,-14,-66,-105,-83,-65,-39,-20
2,-15,-18,7,8,-16,-53,-88,-72,-60,-38,-21
1,-17,-19,8,8,-17,-42,-74,-61,-55,-37,-22
0,-17,-19,9,8,-18,-34,-61,-52,-50,-35,-23
0,-17,-18,9,8,-18,-26,-51,-45,-46,-33,-23
-1,-17,-16,9,7,-17,-20,-42,-38,-42,-31,-23
-2,-16,-14,9,5,-15,-14,-34,-32,-38,-29,-22
-3,-15,-12,9,3,-14,-8,-27,-26,-35,-27,-21
-4,-14,-10,9,1,-12,-4,-21,-21,-31,-25,-19
-5,-14,-8,10,0,-11,0,-16,-16,-28,-23,-19
-7,-13,-7,10,-1,-10,3,-12,-13,-25,-22,-18
-8,-13,-7,11,-1,-10,5,-8,-10,-23,-21,-18
-9,-14,-6,12,-2,-10,7,-5,-8,-22,-21,-18
-10,-15,-6,13,-2,-11,8,-3,-6,-22,-20,-19
-11,-15,-5,13,-3,-11,8,-2,-5,-21,-20,-19
-11,-15,-4,13,-4,-10,9,-1,-3,-21,-20,-19
-10,-15,-4,13,-4,-10,10,0,-2,-20,-19,-19
-10,-14,-4,12,-4,-9,11,1,-1,-20,-19,-18
-9,-13,-4,11,-3,-9,12,2,0,-19,-19,-18
-8,-12,-5,10,-2,-9,13,3,0,-19,-19,-18
-8,-11,-5,10,-1,-9,13,4,0,-19,-19,-18
-8,-11,-5,10,-1,-9,14,5,0,-19,-19,-18
-8,-11,-4,10,-1,-8,15,6,1,-19,-19,-18
-8,-12,-4,10,-2,-8,15,6,2,-18,-19,-17
-8,-12,-4,10,-2,-8,15,7,3,-18,-19,-17
-9,-13,-4,11,-3,-8,15,7,3,-18,-19,-17
-10,-13,-3,12,-4,-8,15,7,3,-18,-19,-17
-11,-13,-3,12,-5,-8,16,7,3,-18,-19,-18
-11,-13,-3,12,-4,-8,16,7,4,-18,-19,-18
-9,-12,-4,11,-3,-9,16,7,4,-17,-19,-18
-8,-12,-4,11,-2,-9,17,8,5,-17,-19,-18
-8,-12,-4,11,-2,-8,17,8,5,-17,-19,-18
-8,-12,-4,11,-3,-8,17,9,5,-17,-19,-18
-8,-11,-4,10,-3,-8,17,9,5,-17,-20,-18
-8,-11,-4,10,-3,-8,17,9,5,-17,-20,-18
-9,-12,-4,11,-3,-8,17,10,5,-17,-19,-18
-9,-12,-4,11,-3,-8,17,10,6,-17,-19,-18
-9,-12,-4,11,-3,-8,17,10,6,-16,-19,-18
-9,-12,-4,11,-3,-8,17,11,7,-16,-19,-18
-9,-12,-4,11,-3,-8,17,11,7,-15,-19,-18
-9,-12,-4,11,-3,-8,18,12,7,-15,-19,-18
-9,-12,-4,11,-3,-8,18,13,8,-15,-19,-18
-9,-12,-4,11,-3,-8,19,13,8,-15,-19,-18
-9,-12,-4,11,-3,-8,19,14,9,-15,-19,-18
-9,-12,-4,11,-2,-8,19,15,10,-16,-19,-18
-10,-12,-4,11,-2,-8,19,16,10,-16,-19,-19
-11,-14,-4,12,-3,-9,19,16,10,-16,-19,-19
-12,-15,-4,14,-3,-10,19,16,10,-16,-20,-20
-12,-16,-4,14,-4,-10,19,18,11,-16,-20,-20
-11,-15,-4,13,-3,-10,21,20,13,-15,-20,-19
-9,-13,-4,12,-3,-9,22,21,14,-15,-19,-19
-8,-11,-4,10,-3,-8,22,23,15,-14,-18,-18
-8,-10,-4,10,-2,-7,23,24,16,-14,-18,-18
-7,-10,-4,9,-2,-7,23,26,17,-14,-18,-18
-7,-10,-4,9,-1,-7,24,27,17,-13,-18,-18
-7,-10,-4,9,-1,-7,24,29,18,-13,-18,-18
-7,-10,-4,9,-1,-7,25,31,19,-13,-18,-18
-7,-11,-4,9,-1,-8,26,34,20,-13,-18,-19
-7,-11,-4,9,-1,-8,27,36,21,-13,-18,-19
-8,-12,-4,10,-2,-8,27,38,21,-13,-18,-19
-9,-12,-4,11,-3,-8,28,40,22,-12,-18,-19
-9,-12,-5,11,-3,-8,29,43,24,-12,-19,-19
-8,-12,-5,11,-2,-9,30,45,25,-12,-19,-19
-8,-12,-5,11,-2,-9,31,48,27,-11,-19,-19
-8,-12,-5,11,-2,-8,33,51,29,-11,-19,-19
-8,-12,-4,11,-2,-8,34,55,32,-10,-19,-19
-8,-13,-5,11,-2,-8,36,58,34,-10,-20,-19
-9,-13,-5,11,-2,-8,37,62,37,-10,-20,-20
-9,-13,-5,11,-2,-9,38,65,39,-9,-20,-20
-9,-13,-5,11,-2,-9,39,68,42,-8,-19,-20
-9,-13,-5,11,-2,-9,40,71,44,-7,-19,-20
-10,-13,-4,11,-3,-8,41,75,48,-5,-18,-20
-10,-12,-3,11,-3,-7,43,78,51,-4,-18,-20
-10,-12,-2,11,-3,-7,44,81,53,-3,-18,-20
-10,-12,-2,11,-3,-7,45,83,56,-3,-18,-20
-10,-12,-3,11,-3,-7,45,85,58,-2,-18,-20
-10,-12,-3,11,-3,-7,46,86,60,-1,-18,-20
-10,-11,-2,11,-3,-7,46,87,61,0,-17,-19
-10,-11,-2,11,-3,-6,46,88,63,1,-16,-19
-9,-10,-1,10,-3,-6,46,89,64,2,-15,-19
-9,-10,-1,9,-3,-5,46,89,65,3,-14,-18
-8,-9,-1,9,-4,-5,46,89,66,4,-14,-18
-8,-9,-1,9,-4,-5,46,89,67,5,-14,-18
-8,-8,-1,8,-4,-5,45,88,67,5,-13,-17
-8,-8,0,8,-4,-4,44,86,67,6,-12,-17
-9,-8,0,8,-5,-4,43,83,67,6,-11,-16
-9,-8,0,8,-5,-4,42,81,66,7,-10,-15
-8,-7,0,8,-4,-4,40,78,66,8,-8,-14
-6,-5,0,6,-4,-2,40,76,65,9,-7,-12
-4,-2,1,3,-3,0,39,74,64,10,-6,-11
-3,0,2,2,-3,1,38,71,62,10,-5,-10
-3,0,2,2,-3,1,37,67,60,11,-4,-10
-3,0,2,2,-3,1,35,62,57,11,-3,-9
-3,-1,2,2,-3,0,32,58,54,10,-2,-8
-3,-1,2,2,-2,0,30,53,51,10,-2,-7
-2,0,2,1,-2,0,28,49,49,10,-1,-6
-1,0,2,1,-2,1,27,44,46,9,0,-6
-2,1,2,1,-2,1,25,40,43,9,0,-5
-2,1,2,1,-3,1,23,36,40,8,0,-5
-2,1,2,1,-3,1,21,31,36,7,0,-5
-2,1,2,1,-2,1,19,27,32,6,0,-5
-1,1,2,0,-2,1,17,23,29,4,0,-5
-1,1,2,0,-1,1,15,19,26,3,0,-4
-1,1,2,0,-1,1,14,15,24,2,0,-4
-1,1,1,0,-1,1,12,11,22,0,-1,-5
-1,0,0,1,-1,0,11,8,19,-1,-2,-5
-1,0,0,1,-1,0,10,6,17,-2,-3,-6
-1,0,0,1,-1,0,9,3,14,-3,-3,-6
-1,0,0,1,-1,0,8,1,12,-4,-3,-6
-1,0,0,1,-1,0,8,-1,10,-5,-4,-6
-1,-1,0,1,-1,0,7,-3,8,-6,-4,-6
-1,-1,-1,2,-1,-1,6,-5,6,-7,-4,-7
-2,-2,-1,2,-1,-1,6,-6,4,-7,-5,-7
-2,-2,-1,2,-1,-2,5,-7,3,-8,-5,-7
-2,-3,-1,2,-1,-2,4,-8,1,-8,-6,-8
-2,-3,-1,2,-1,-2,4,-9,0,-9,-6,-8
-2,-3,-1,3,-1,-2,4,-10,0,-9,-6,-8
-3,-3,0,3,-1,-2,4,-11,-1,-9,-6,-8
-3,-3,0,3,-1,-2,4,-12,-2,-9,-6,-8
-2,-3,0,3,-1,-2,3,-12,-3,-9,-6,-8
-2,-3,-1,3,-1,-2,3,-13,-3,-9,-6,-8
-2,-4,-1,3,-1,-2,2,-14,-3,-10,-6,-8
-3,-5,-1,4,-1,-3,2,-14,-4,-10,-6,-8
-4,-5,-1,4,-2,-3,2,-15,-4,-10,-7,-9
-4,-5,-1,5,-2,-3,2,-15,-5,-11,-7,-9
-4,-4,-1,4,-2,-3,1,-15,-5,-11,-7,-9
-3,-3,-1,3,-2,-2,1,-15,-5,-11,-7,-8
-2,-3,-1,3,-2,-2,1,-15,-5,-11,-6,-8
-2,-3,0,3,-2,-1,1,-15,-5,-11,-6,-8
-2,-3,0,3,-2,-1,1,-15,-5,-11,-6,-8
-2,-2,-1,2,-1,-1,1,-15,-5,-10,-6,-7
-1,-2,-1,2,-1,-1,1,-15,-5,-10,-6,-7
-1,-2,-1,2,0,-1,1,-16,-5,-10,-5,-7
-1,-2,-1,2,0,-2,1,-16,-5,-10,-5,-7
-1,-3,-2,2,0,-2,1,-16,-6,-10,-6,-7
-1,-3,-2,2,0,-3,1,-16,-6,-10,-6,-7
-1,-3,-2,2,0,-3,0,-17,-6,-10,-6,-7
-1,-3,-2,2,0,-3,0,-17,-6,-10,-6,-7
-1,-3,-2,2,0,-3,0,-17,-6,-10,-6,-7
-1,-3,-2,2,0,-3,0,-17,-6,-10,-6,-7
-1,-3,-2,3,0,-3,0,-17,-6,-10,-6,-7
-2,-4,-2,3,0,-3,0,-17,-7,-10,-6,-8
-2,-4,-2,3,0,-3,0,-17,-7,-10,-6,-8
-2,-4,-3,3,0,-3,0,-17,-7,-10,-6,-8
-1,-4,-3,2,0,-3,0,-18,-7,-11,-6,-8
-1,-4,-3,2,0,-3,0,-18,-7,-11,-6,-8
-1,-4,-3,3,0,-3,0,-18,-7,-11,-6,-8
-2,-5,-3,3,0,-3,0,-18,-7,-11,-6,-8
-2,-5,-3,4,0,-3,0,-18,-8,-11,-7,-8
-3,-6,-2,4,-1,-3,0,-18,-8,-11,-7,-8
-4,-6,-2,5,-1,-3,0,-18,-8,-11,-7,-8
-5,-7,-2,5,-2,-3,0,-18,-8,-12,-7,-8
-5,-7,-2,6,-2,-4,0,-18,-8,-12,-7,-9
-5,-7,-2,6,-2,-4,1,-18,-8,-12,-8,-9
-4,-6,-2,5,-2,-4,1,-17,-7,-11,-7,-9
-3,-5,-2,4,-1,-3,2,-16,-7,-11,-7,-9
-3,-5,-2,4,-1,-3,2,-16,-6,-11,-7,-9
-2,-5,-3,4,-1,-4,2,-16,-6,-11,-7,-8
-2,-5,-3,3,0,-4,2,-16,-7,-11,-7,-8
-2,-5,-3,3,0,-4,2,-16,-7,-11,-7,-8
-2,-5,-3,4,0,-4,3,-16,-7,-11,-7,-9
-2,-5,-3,4,-1,-4,3,-16,-6,-11,-8,-9
-2,-5,-3,4,-1,-4,3,-15,-6,-11,-8,-9
-2,-5,-3,4,-1,-4,4,-15,-6,-11,-8,-9
-2,-5,-2,4,-1,-4,4,-14,-6,-11,-8,-9
-2,-5,-2,4,-1,-3,5,-14,-6,-11,-8,-9
-2,-5,-2,4,-1,-3,5,-13,-5,-11,-8,-9
-2,-4,-2,3,-1,-2,6,-13,-5,-11,-7,-8
-2,-3,-2,3,-1,-2,7,-12,-4,-10,-7,-8
-2,-3,-1,2,-1,-1,8,-11,-4,-10,-7,-8
-2,-3,-1,2,-1,-1,9,-10,-3,-10,-7,-8
-2,-3,-1,2,-1,-1,9,-10,-3,-10,-7,-8
-2,-3,-1,2,-2,-1,10,-9,-2,-10,-7,-8
-2,-3,0,2,-2,-1,10,-9,-2,-9,-7,-8
-2,-3,0,2,-2,-1,11,-8,-1,-9,-7,-8
-2,-2,0,3,-2,0,12,-7,-1,-9,-7,-8
-2,-2,1,3,-3,0,12,-6,0,-8,-6,-7
-2,-1,1,2,-3,0,13,-6,0,-7,-6,-7
-1,-1,1,2,-2,0,14,-5,1,-6,-6,-7
-1,-1,1,2,-2,0,14,-5,1,-6,-6,-7
-2,-2,1,2,-3,0,13,-6,1,-6,-6,-7
-2,-2,1,2,-3,0,12,-6,1,-6,-6,-7
-2,-2,1,2,-3,0,10,-7,1,-6,-6,-7
-2,-2,0,2,-2,0,7,-7,1,-6,-6,-7
-2,-2,0,2,-2,0,5,-8,0,-6,-6,-8
-2,-2,0,2,-2,-1,4,-8,0,-6,-6,-8
-2,-2,0,2,-2,-1,3,-9,0,-6,-6,-8
-2,-2,0,2,-2,0,3,-9,0,-6,-6,-8
-2,-1,0,2,-2,0,3,-9,0,-6,-6,-8
-2,0,1,1,-3,1,3,-9,1,-6,-5,-7
-2,0,2,1,-3,2,3,-9,1,-5,-5,-7
-2,1,3,1,-4,2,2,-9,1,-5,-5,-7
-2,1,4,1,-4,3,1,-9,1,-5,-5,-6
-2,1,4,1,-4,3,1,-10,1,-5,-5,-6
-3,1,4,1,-5,3,0,-10,1,-5,-5,-6
-4,1,5,2,-6,3,-1,-11,1,-5,-5,-6
-4,1,6,2,-6,3,-2,-12,0,-5,-5,-6
-3,1,5,1,-5,3,-2,-12,0,-6,-5,-6
0,3,4,0,-4,4,-2,-12,0,-5,-4,-5
1,4,4,-2,-3,4,-1,-12,0,-5,-3,-4
1,4,4,-2,-2,4,-2,-12,0,-5,-3,-4
2,4,3,-3,-2,4,-2,-12,0,-5,-3,-4
2,5,3,-3,-1,4,-2,-12,0,-5,-3,-4
3,5,2,-4,-1,4,-2,-12,0,-5,-3,-3
3,5,2,-4,-1,4,-2,-12,0,-5,-3,-3
4,5,2,-4,0,4,-1,-12,0,-5,-3,-3
4,5,1,-4,0,3,-1,-12,0,-5,-3,-3
4,5,1,-4,0,3,-1,-12,0,-5,-3,-3
3,4,1,-4,0,3,0,-11,0,-4,-3,-3
2,3,1,-3,-1,3,0,-11,1,-4,-3,-3
1,3,2,-2,-2,3,1,-10,1,-4,-3,-3
0,2,2,-1,-3,2,2,-10,1,-4,-3,-4
-1,0,2,0,-3,2,2,-10,1,-4,-3,-5
-2,-1,1,1,-3,1,2,-11,0,-5,-4,-6
-3,-3,0,2,-3,0,2,-12,-1,-6,-5,-7
-3,-4,0,3,-3,-1,2,-12,-2,-7,-6,-8
-4,-5,0,4,-3,-2,2,-13,-2,-8,-7,-8
-4,-5,-1,5,-3,-3,2,-13,-3,-9,-7,-9
-4,-6,-1,5,-3,-4,2,-13,-3,-9,-8,-9
-4,-7,-2,6,-3,-4,2,-14,-4,-9,-8,-10
-5,-7,-2,6,-3,-5,2,-14,-4,-10,-9,-10
-5,-8,-2,6,-3,-5,2,-15,-5,-10,-9,-11
-6,-9,-3,7,-3,-6,2,-15,-5,-10,-10,-11
-6,-9,-3,7,-3,-6,2,-15,-5,-10,-10,-11
-6,-9,-3,7,-3,-6,2,-15,-6,-10,-10,-11
-6,-9,-3,7,-3,-6,2,-15,-6,-11,-10,-11
-6,-9,-3,7,-3,-6,2,-15,-6,-11,-10,-11
-5,-9,-3,7,-2,-6,2,-15,-6,-11,-10,-12
-5,-9,-4,7,-2,-6,2,-15,-6,-11,-10,-12
-5,-9,-4,7,-2,-6,2,-15,-6,-11,-10,-12
-5,-9,-4,7,-2,-6,2,-15,-6,-11,-10,-12
-5,-9,-4,7,-2,-6,2,-15,-6,-12,-10,-12
-5,-9,-4,7,-1,-7,2,-15,-7,-12,-11,-12
-5,-10,-4,7,-1,-7,2,-15,-7,-12,-11,-12
-5,-10,-4,8,-2,-7,2,-15,-7,-12,-10,-12
-5,-9,-4,8,-2,-7,2,-15,-7,-12,-10,-12
-5,-9,-4,7,-2,-7,2,-15,-7,-12,-10,-12
-6,-9,-4,7,-2,-7,2,-15,-7,-12,-10,-12
-6,-10,-4,8,-3,-7,2,-15,-7,-12,-10,-12
-7,-10,-4,8,-3,-7,2,-15,-7,-12,-10,-12
-7,-11,-4,9,-3,-8,1,-15,-7,-12,-10,-12
-8,-12,-4,10,-3,-8,1,-15,-7,-12,-10,-13
-7,-11,-4,9,-3,-8,2,-15,-7,-12,-10,-13
-6,-10,-4,8,-3,-7,2,-15,-6,-12,-10,-12
-5,-8,-4,6,-2,-6,2,-14,-6,-11,-9,-12
-4,-8,-4,6,-2,-6,2,-14,-6,-11,-9,-12
-4,-7,-4,6,-2,-6,2,-14,-6,-11,-10,-12
-3,-7,-4,5,-1,-5,2,-14,-5,-11,-9,-11
-3,-6,-4,5,-1,-5,3,-14,-5,-11,-9,-11
-3,-7,-4,5,-1,-5,3,-13,-5,-11,-9,-11
-4,-7,-3,5,-1,-5,3,-13,-5,-10,-9,-11
-4,-7,-3,5,-1,-5,3,-13,-5,-10,-9,-11
-4,-7,-3,6,-1,-5,3,-13,-6,-10,-9,-11
-4,-8,-3,6,-2,-6,3,-13,-6,-11,-10,-12
-5,-9,-3,7,-2,-7,3,-12,-5,-11,-10,-12
-5,-10,-3,7,-2,-7,5,-10,-4,-11,-10,-12
-4,-10,-4,7,-2,-8,8,-5,-3,-11,-10,-13
