leadI,leadII,leadIII,leadaVR,leadaVL,leadaVF,leadV1,leadV2,leadV3,leadV4,leadV5,leadV6
4,1,-3,-2,4,-1,-4,-7,2,6,7,7
10,3,-8,-7,9,-2,-13,-23,2,13,16,19
14,3,-10,-9,12,-3,-21,-38,-4,11,15,23
15,0,-15,-7,15,-7,-25,-50,-12,1,3,18
14,-8,-22,-3,18,-15,-27,-58,-22,-13,-14,6
11,-17,-28,3,19,-22,-27,-67,-35,-29,-33,-6
6,-24,-31,9,18,-27,-27,-78,-54,-47,-51,-18
1,-30,-31,14,16,-30,-29,-92,-77,-66,-67,-29
-7,-35,-28,21,10,-31,-29,-107,-104,-86,-83,-40
-18,-41,-23,29,2,-31,-28,-121,-131,-106,-99,-51
-27,-45,-18,36,-4,-32,-27,-130,-151,-124,-112,-61
-34,-50,-15,41,-9,-32,-26,-130,-161,-135,-122,-69
-40,-53,-13,46,-13,-33,-24,-125,-163,-140,-127,-76
-44,-55,-11,49,-16,-33,-21,-116,-158,-140,-129,-80
-46,-55,-9,50,-18,-32,-18,-106,-150,-136,-126,-81
-47,-54,-6,50,-20,-30,-13,-93,-139,-129,-122,-81
-48,-52,-4,50,-21,-28,-8,-80,-127,-120,-116,-79
-49,-50,-1,49,-23,-26,-3,-66,-114,-111,-110,-77
-49,-49,0,49,-24,-24,1,-52,-102,-102,-103,-75
-49,-46,2,47,-25,-22,4,-39,-89,-93,-97,-72
-48,-44,4,46,-25,-20,8,-26,-77,-84,-90,-69
-46,-41,5,44,-25,-18,13,-14,-66,-75,-84,-66
-45,-39,5,42,-25,-16,17,-4,-57,-68,-79,-63
-44,-38,6,40,-25,-15,20,3,-49,-62,-74,-61
-43,-36,7,39,-25,-14,23,10,-42,-56,-70,-59
-43,-35,8,39,-26,-13,26,16,-36,-51,-66,-57
-43,-33,9,38,-26,-12,28,21,-31,-47,-63,-55
-43,-32,11,38,-27,-10,30,24,-27,-43,-60,-54
-43,-31,12,37,-28,-9,32,26,-24,-41,-58,-52
-43,-29,14,36,-28,-7,33,28,-21,-39,-55,-51
-42,-28,14,35,-28,-6,33,29,-19,-37,-53,-49
-41,-27,15,34,-29,-6,34,30,-17,-35,-51,-49
-41,-26,15,33,-29,-5,35,31,-15,-34,-50,-48
-41,-26,15,33,-28,-5,35,32,-14,-33,-48,-47
-41,-26,15,33,-28,-5,36,33,-13,-32,-48,-47
-41,-26,15,33,-28,-5,36,34,-12,-31,-47,-47
-41,-26,15,33,-28,-5,36,35,-11,-30,-46,-46
-41,-25,15,33,-28,-4,35,36,-11,-29,-45,-46
-40,-25,16,32,-28,-4,35,36,-10,-28,-44,-45
-40,-24,16,32,-28,-4,34,36,-9,-27,-43,-44
-40,-24,16,32,-27,-4,34,37,-8,-26,-42,-43
-40,-24,15,31,-27,-4,35,37,-7,-26,-41,-43
-40,-24,15,31,-27,-4,35,38,-7,-25,-41,-42
-40,-24,15,31,-27,-4,35,38,-6,-25,-41,-42
-40,-24,15,31,-27,-4,34,38,-5,-24,-40,-42
-39,-24,15,31,-27,-4,34,38,-4,-24,-40,-41
-39,-23,15,31,-27,-4,34,38,-3,-24,-39,-41
-39,-23,16,31,-27,-4,34,38,-3,-24,-39,-40
-39,-23,16,31,-27,-4,34,38,-3,-24,-38,-40
-39,-23,16,30,-27,-4,34,38,-2,-23,-38,-40
-39,-22,16,30,-27,-4,34,39,-2,-23,-37,-39
-38,-22,16,30,-27,-3,34,39,-1,-23,-37,-39
-38,-22,16,30,-27,-3,34,39,-1,-23,-37,-39
-38,-22,16,30,-26,-3,33,39,-1,-23,-37,-39
-38,-22,16,30,-26,-3,33,39,-1,-22,-36,-39
-38,-22,16,30,-26,-3,33,39,-1,-22,-36,-39
-38,-21,16,29,-27,-3,33,39,0,-21,-35,-39
-37,-21,16,29,-27,-3,33,39,0,-21,-35,-38
-37,-21,16,28,-27,-3,32,39,0,-21,-34,-38
-37,-20,16,28,-27,-2,32,39,0,-21,-34,-38
-37,-20,17,28,-27,-2,31,39,1,-20,-33,-38
-37,-20,17,28,-27,-1,31,39,1,-20,-33,-38
-37,-19,17,28,-27,-1,31,39,1,-19,-32,-38
-36,-19,17,27,-27,-1,31,39,1,-19,-32,-37
-36,-18,17,27,-27,-1,30,39,1,-18,-31,-37
-36,-18,17,27,-27,-1,30,39,1,-18,-31,-37
-36,-18,17,27,-27,-1,30,40,1,-17,-30,-36
-36,-18,17,27,-27,-1,30,40,1,-17,-30,-36
-36,-18,17,27,-27,-1,30,40,1,-16,-30,-36
-36,-19,17,27,-27,-1,30,41,1,-16,-30,-35
-36,-19,17,27,-26,-1,31,41,1,-16,-30,-35
-36,-19,16,27,-26,-1,32,42,1,-16,-30,-34
-36,-19,16,27,-26,-1,33,42,2,-16,-29,-34
-35,-19,16,27,-26,-1,33,43,2,-15,-29,-33
-35,-19,16,27,-25,-2,33,43,2,-15,-28,-32
-34,-19,15,27,-25,-2,33,43,2,-15,-28,-32
-34,-18,15,26,-25,-2,32,43,3,-14,-27,-32
-34,-18,15,26,-25,-2,32,44,3,-14,-26,-31
-34,-18,15,25,-25,-1,31,44,4,-13,-25,-31
-33,-17,15,25,-24,-1,30,44,4,-13,-25,-30
-33,-17,15,25,-24,-1,30,45,5,-13,-24,-30
-32,-17,15,24,-24,-1,30,45,5,-12,-24,-30
-32,-16,15,24,-24,-1,30,46,6,-12,-23,-30
-32,-16,15,24,-24,0,29,46,6,-11,-23,-29
-32,-15,15,23,-24,0,28,47,7,-11,-22,-29
-31,-15,15,23,-23,0,28,47,8,-10,-21,-29
-31,-15,15,22,-23,0,28,47,8,-10,-21,-28
-30,-14,15,22,-22,0,28,48,9,-9,-20,-28
-29,-14,15,21,-22,0,28,48,9,-9,-19,-27
-29,-14,15,21,-22,0,28,49,10,-8,-18,-27
-28,-13,15,21,-22,1,28,50,11,-7,-17,-26
-28,-13,14,21,-21,1,28,50,12,-7,-16,-26
-27,-12,14,20,-21,1,28,51,12,-6,-15,-25
-27,-12,13,19,-20,1,27,52,13,-5,-15,-25
-26,-12,13,19,-20,1,27,53,14,-5,-14,-24
-26,-12,13,18,-19,1,27,54,15,-4,-14,-23
-25,-11,13,18,-18,1,26,54,16,-3,-13,-22
-24,-11,12,17,-18,0,26,55,17,-3,-12,-22
-23,-10,12,16,-17,0,26,56,18,-2,-11,-21
-22,-10,12,16,-16,1,26,57,19,-2,-11,-20
-21,-9,11,15,-16,1,25,58,20,-1,-10,-20
-20,-9,11,15,-16,1,25,59,21,0,-10,-19
-20,-8,11,14,-16,1,24,60,22,0,-9,-18
-20,-8,11,14,-15,1,24,61,23,1,-8,-17
-19,-7,10,13,-14,1,23,62,24,2,-7,-16
-18,-7,10,12,-14,1,23,63,25,3,-6,-15
-17,-7,9,12,-13,1,23,64,26,4,-5,-14
-16,-6,9,11,-12,1,23,65,27,5,-4,-14
-15,-6,8,10,-11,2,22,66,28,6,-3,-13
-14,-5,8,9,-11,2,21,68,30,7,-2,-12
-13,-4,8,9,-11,3,20,69,31,8,-1,-11
-12,-4,8,8,-10,3,20,70,32,9,0,-10
-11,-3,7,7,-9,3,19,71,33,10,0,-10
-11,-2,7,6,-9,3,18,71,34,11,1,-9
-10,-2,7,6,-8,3,18,71,35,11,3,-8
-9,-2,7,5,-8,3,18,72,36,12,4,-7
-8,-1,7,4,-7,3,18,72,37,13,6,-6
-7,0,7,3,-7,3,18,73,38,14,7,-5
-6,1,6,3,-6,3,17,73,38,15,8,-4
-6,1,6,2,-6,4,17,73,39,16,9,-3
-5,2,6,1,-5,4,16,74,39,16,10,-2
-4,2,6,1,-5,4,16,74,40,17,10,-1
-4,3,6,0,-5,4,15,75,41,17,11,-1
-3,3,6,0,-4,4,15,75,41,17,11,0
-3,3,6,0,-4,4,14,75,41,18,11,0
-3,3,6,0,-4,4,14,75,42,18,12,1
-2,3,5,0,-4,4,14,75,42,19,12,2
-2,3,5,0,-3,4,14,75,42,19,12,2
-1,3,4,-1,-2,3,13,74,42,19,12,3
-1,3,4,-1,-2,3,13,74,42,19,12,3
0,3,3,-2,-1,3,12,73,42,18,12,3
0,4,3,-2,-1,4,12,72,41,18,13,4
0,4,4,-2,-2,4,11,72,41,18,13,4
-1,4,4,-2,-2,4,10,70,40,18,13,4
-1,4,4,-2,-2,4,9,69,39,18,13,4
-1,4,4,-1,-2,4,10,67,37,18,13,4
-1,4,4,-1,-2,4,10,66,36,17,13,4
-2,3,4,0,-3,4,11,64,34,16,12,3
-3,3,5,0,-4,4,12,62,32,15,12,2
-4,2,5,1,-5,3,12,60,30,14,11,1
-5,1,6,2,-6,3,12,57,28,13,10,0
-6,0,6,3,-6,3,12,55,26,12,9,-1
-7,0,6,4,-7,3,12,52,24,11,7,-3
-8,0,7,4,-8,3,12,49,22,9,5,-4
-10,-1,8,5,-9,3,13,46,19,8,4,-6
-12,-2,9,7,-10,3,14,43,17,7,2,-7
-14,-3,10,9,-11,2,15,41,15,5,0,-8
-15,-5,10,10,-12,2,16,38,13,4,0,-9
-16,-6,10,11,-13,1,17,36,11,2,-1,-10
-18,-8,10,12,-13,1,17,34,9,1,-2,-11
-19,-9,10,13,-14,0,17,31,6,0,-3,-12
-20,-9,11,14,-15,0,17,29,4,-1,-4,-13
-21,-9,11,14,-16,0,17,27,3,-2,-5,-14
-22,-10,11,15,-17,0,17,25,1,-3,-5,-15
-23,-11,11,16,-17,0,17,23,0,-4,-6,-17
-24,-11,12,17,-18,0,18,22,-2,-6,-7,-18
-25,-12,12,18,-18,0,18,20,-4,-7,-8,-20
-25,-12,13,18,-19,0,19,19,-5,-8,-9,-21
-26,-13,13,19,-19,0,19,17,-7,-9,-10,-22
-26,-13,12,19,-19,0,19,15,-9,-10,-11,-22
-26,-13,12,19,-19,0,19,14,-10,-11,-11,-23
-27,-14,13,20,-20,0,19,13,-11,-12,-11,-23
-28,-14,13,21,-21,-1,19,12,-12,-12,-12,-24
-29,-15,13,21,-21,-1,19,11,-13,-13,-12,-25
-29,-15,13,22,-21,-1,19,11,-13,-13,-13,-25
-30,-15,13,22,-21,-1,19,10,-14,-14,-13,-26
-30,-15,13,22,-21,-1,19,10,-14,-15,-14,-26
-29,-15,13,22,-21,-1,19,9,-15,-16,-14,-27
-29,-15,13,22,-21,-1,19,8,-15,-16,-15,-27
-29,-16,13,22,-21,-1,19,8,-16,-17,-16,-28
-30,-16,13,22,-21,-1,19,7,-16,-17,-16,-28
-30,-16,13,23,-21,-1,18,7,-16,-18,-17,-28
-30,-16,13,23,-21,-1,18,7,-17,-18,-17,-28
-30,-16,13,23,-21,-1,18,6,-17,-18,-17,-28
-30,-16,13,23,-21,-1,17,6,-17,-18,-17,-27
-30,-17,13,23,-21,-1,17,6,-17,-18,-16,-27
-31,-17,13,23,-21,-1,16,6,-17,-18,-16,-27
-31,-17,13,24,-21,-2,16,6,-18,-18,-17,-26
-31,-18,13,24,-21,-2,17,5,-18,-19,-17,-26
-31,-18,12,24,-21,-3,17,5,-18,-19,-17,-26
-31,-18,12,24,-21,-3,17,5,-18,-19,-17,-26
-31,-18,12,24,-21,-3,17,5,-18,-19,-17,-25
-31,-18,12,24,-20,-3,17,5,-18,-20,-17,-25
-30,-18,11,23,-20,-4,17,5,-18,-20,-18,-25
-30,-18,11,23,-20,-4,17,5,-18,-20,-18,-26
-30,-18,11,23,-20,-4,16,5,-18,-20,-18,-26
-30,-18,11,23,-20,-3,16,5,-18,-20,-18,-26
-30,-18,11,23,-20,-3,16,5,-18,-20,-18,-27
-30,-18,11,23,-20,-3,16,5,-18,-20,-18,-27
-31,-18,12,24,-21,-3,16,5,-17,-20,-18,-28
-31,-18,12,24,-21,-3,16,5,-17,-19,-18,-28
-31,-18,13,23,-21,-2,15,5,-17,-19,-18,-29
-31,-17,13,23,-21,-2,15,5,-17,-19,-18,-29
-31,-17,13,23,-21,-2,15,5,-17,-19,-18,-29
-31,-17,13,23,-21,-2,15,5,-17,-19,-18,-28
-31,-17,13,23,-21,-2,15,5,-17,-19,-18,-28
-31,-17,13,23,-21,-2,14,5,-17,-18,-17,-28
-31,-17,13,23,-21,-2,14,5,-17,-18,-17,-27
-31,-18,13,24,-21,-2,14,5,-17,-18,-16,-27
-31,-18,13,24,-21,-3,15,5,-17,-18,-16,-27
-31,-19,13,24,-22,-3,15,5,-17,-18,-16,-26
-31,-19,13,24,-22,-3,15,5,-17,-18,-16,-25
-31,-19,12,24,-22,-3,15,5,-17,-18,-16,-25
-31,-19,12,24,-21,-3,15,5,-16,-18,-16,-25
-30,-19,12,24,-21,-3,15,5,-16,-18,-15,-25
-31,-19,12,24,-21,-3,15,5,-16,-18,-15,-25
-31,-19,12,24,-21,-3,15,5,-16,-17,-15,-25
-31,-18,12,24,-21,-3,15,5,-16,-17,-15,-25
-31,-18,12,23,-21,-3,15,5,-16,-17,-15,-25
-31,-18,12,23,-21,-3,15,5,-16,-17,-15,-26
-31,-18,12,23,-21,-4,16,5,-16,-17,-15,-26
-31,-18,12,23,-21,-4,17,5,-16,-17,-15,-26
-30,-18,12,23,-21,-3,17,5,-16,-17,-15,-26
-29,-17,11,23,-20,-3,18,5,-16,-17,-15,-26
-28,-17,11,22,-20,-3,18,5,-15,-17,-15,-26
-28,-16,11,22,-19,-3,18,6,-15,-16,-15,-25
-27,-16,11,21,-19,-3,18,6,-14,-16,-15,-25
-26,-15,11,20,-19,-3,18,6,-14,-15,-14,-25
-25,-14,11,19,-18,-2,18,6,-14,-15,-14,-25
-24,-13,11,18,-17,-2,18,6,-14,-14,-13,-24
-23,-12,11,17,-17,-1,18,6,-14,-14,-12,-24
-22,-11,11,16,-16,0,18,7,-14,-13,-12,-23
-21,-10,11,15,-16,0,18,7,-14,-13,-11,-23
-21,-9,11,15,-16,1,18,7,-13,-13,-11,-22
-20,-9,11,14,-16,1,18,7,-13,-13,-11,-21
-19,-8,11,13,-16,1,18,7,-13,-13,-10,-21
-19,-8,12,13,-16,1,18,8,-12,-13,-10,-20
-18,-7,12,12,-15,1,18,8,-12,-12,-10,-20
-17,-6,12,11,-14,2,18,8,-12,-12,-10,-20
-17,-5,12,11,-14,2,18,8,-12,-12,-9,-20
-16,-4,11,10,-14,3,18,8,-12,-12,-9,-20
-15,-4,10,10,-13,3,18,8,-12,-12,-9,-21
-15,-4,10,9,-12,3,18,7,-13,-12,-9,-21
-15,-4,10,9,-12,3,18,7,-13,-12,-9,-21
-15,-4,10,9,-12,3,18,7,-12,-12,-9,-21
-14,-3,10,9,-12,3,18,7,-12,-11,-9,-20
-14,-3,10,8,-12,3,17,7,-12,-11,-10,-20
-14,-3,10,8,-12,3,17,7,-12,-11,-10,-20
-13,-3,10,8,-12,3,18,7,-12,-12,-10,-20
-13,-2,10,7,-11,3,18,7,-11,-12,-10,-20
-12,-2,10,7,-11,3,18,7,-11,-13,-10,-20
-12,-2,10,7,-10,3,18,7,-12,-13,-10,-20
-12,-2,10,7,-10,3,19,7,-12,-13,-10,-20
-12,-2,9,6,-10,3,19,7,-12,-13,-10,-20
-12,-2,9,6,-10,3,19,7,-12,-12,-10,-19
-12,-2,9,6,-10,3,19,7,-12,-12,-9,-19
-12,-2,9,6,-10,3,19,8,-12,-11,-9,-18
-11,-2,9,6,-10,3,19,8,-12,-11,-8,-18
-11,-2,9,6,-10,3,19,8,-12,-11,-7,-17
-11,-2,9,6,-10,3,18,8,-12,-11,-7,-17
-11,-1,10,6,-10,3,18,8,-12,-11,-6,-17
-11,-1,10,6,-10,3,18,8,-12,-11,-6,-17
-10,-1,9,6,-10,3,18,7,-13,-11,-7,-17
-10,-1,8,5,-9,3,18,7,-13,-11,-7,-17
-10,0,9,5,-9,3,18,7,-13,-11,-7,-17
-10,0,9,5,-10,4,17,7,-13,-11,-7,-17
-10,0,9,5,-10,4,17,7,-13,-12,-7,-17
-10,0,9,5,-9,4,16,7,-14,-12,-7,-17
-10,-1,9,5,-9,4,15,7,-13,-12,-7,-17
-10,-1,9,5,-9,4,15,7,-13,-11,-7,-17
-10,-1,9,5,-9,4,15,7,-12,-11,-8,-17
-10,0,9,4,-9,4,15,7,-12,-11,-8,-17
-10,0,9,4,-9,4,16,7,-12,-11,-9,-17
-10,0,9,5,-10,4,17,7,-11,-11,-9,-18
-10,0,9,5,-10,4,17,7,-11,-11,-9,-18
-10,0,9,5,-10,4,16,7,-12,-12,-9,-18
-10,0,10,5,-10,4,16,7,-12,-12,-10,-18
-10,1,10,5,-10,5,16,7,-12,-12,-10,-18
-10,1,10,4,-10,5,16,7,-12,-12,-10,-18
-9,1,10,4,-10,5,16,6,-12,-12,-9,-17
-9,1,10,4,-10,5,16,6,-12,-12,-9,-16
-9,1,10,4,-10,5,15,6,-12,-12,-9,-16
-9,1,11,4,-11,5,15,6,-11,-12,-9,-15
-9,1,11,4,-11,5,15,6,-11,-12,-9,-15
-9,1,10,4,-10,4,15,6,-12,-12,-9,-14
-10,1,10,4,-10,4,15,6,-12,-11,-9,-14
-10,1,10,4,-10,4,16,6,-12,-11,-9,-14
-10,1,11,4,-11,4,16,6,-12,-11,-9,-14
-10,1,11,4,-11,4,16,6,-12,-11,-9,-14
-10,1,10,4,-11,4,16,7,-12,-11,-10,-15
-10,1,10,4,-10,4,16,7,-12,-11,-10,-15
-10,1,10,4,-10,4,16,7,-11,-11,-10,-15
-10,0,10,5,-10,4,16,7,-11,-11,-10,-15
-10,0,9,5,-10,4,16,7,-11,-11,-10,-14
-10,1,9,4,-10,4,16,7,-11,-10,-10,-14
-10,1,10,4,-10,4,15,7,-11,-10,-10,-13
-10,1,10,4,-11,4,15,7,-12,-10,-10,-13
-10,1,11,4,-11,4,14,7,-12,-10,-10,-13
-10,1,11,4,-11,4,14,6,-12,-10,-9,-13
-10,1,11,4,-11,4,14,6,-11,-10,-9,-13
-10,1,11,4,-11,4,14,6,-11,-10,-10,-13
-9,1,10,4,-10,4,14,6,-11,-10,-10,-13
-9,1,10,4,-10,4,14,6,-11,-10,-10,-13
-9,1,9,4,-10,4,14,6,-11,-10,-10,-13
-9,1,9,4,-10,5,14,6,-11,-10,-10,-14
-9,1,10,4,-10,5,14,6,-11,-10,-10,-14
-9,2,11,4,-11,6,14,6,-11,-10,-10,-13
-9,2,11,4,-11,6,14,6,-11,-10,-10,-13
-9,2,11,4,-11,6,13,6,-12,-10,-10,-13
-9,2,11,4,-11,6,13,6,-12,-10,-10,-13
-9,2,11,4,-11,6,13,6,-12,-10,-10,-13
-9,2,11,4,-10,6,13,6,-12,-10,-9,-13
-9,2,11,4,-10,6,13,6,-12,-10,-9,-13
-8,2,11,4,-10,6,13,6,-12,-10,-9,-13
-8,2,10,4,-10,6,13,5,-12,-10,-9,-14
-8,2,10,4,-10,5,13,5,-12,-10,-9,-14
-9,2,10,4,-10,5,13,5,-12,-10,-9,-14
-9,2,10,4,-10,5,13,6,-12,-10,-9,-13
-9,2,10,4,-10,5,13,6,-11,-10,-9,-12
-9,2,10,4,-10,5,12,6,-11,-10,-9,-12
-9,1,10,4,-10,5,11,6,-11,-10,-9,-11
-9,1,10,4,-10,5,11,6,-11,-10,-9,-11
-9,1,10,4,-10,4,11,6,-11,-10,-9,-10
-9,1,9,4,-10,4,12,6,-11,-10,-9,-10
-9,1,9,4,-9,3,12,6,-11,-10,-9,-10
-9,1,9,4,-9,3,12,6,-12,-9,-8,-11
-9,1,9,4,-9,4,12,6,-12,-9,-8,-11
-9,1,9,4,-9,4,12,6,-12,-9,-8,-11
-8,1,10,4,-9,5,12,6,-12,-8,-8,-12
-8,2,10,4,-10,5,12,5,-12,-8,-7,-12
-8,2,10,4,-10,6,12,5,-12,-8,-7,-13
-8,3,10,3,-10,6,12,5,-12,-8,-7,-13
-8,3,10,3,-10,6,12,4,-12,-8,-7,-13
-7,3,10,3,-10,6,12,4,-12,-8,-7,-12
-7,3,10,2,-10,6,12,5,-12,-8,-7,-12
-7,3,10,2,-10,6,12,5,-12,-8,-7,-11
-6,4,10,1,-9,6,12,5,-11,-8,-7,-11
-6,4,10,1,-9,7,12,6,-11,-8,-7,-10
-5,5,10,0,-8,7,12,6,-10,-7,-7,-10
-4,5,10,0,-8,7,13,6,-10,-7,-6,-10
-4,6,10,0,-8,7,13,7,-9,-6,-6,-10
-5,6,11,0,-8,8,13,7,-9,-6,-6,-9
-5,6,11,0,-9,8,13,7,-8,-5,-6,-9
-5,6,12,0,-9,9,13,7,-8,-5,-6,-9
-5,7,12,-1,-9,9,14,7,-8,-5,-5,-9
-5,7,13,-1,-10,9,14,7,-8,-5,-4,-9
-6,7,14,-1,-11,10,15,7,-8,-5,-4,-8
-7,8,14,-1,-11,10,15,7,-8,-4,-3,-8
-6,8,14,-1,-11,11,14,8,-8,-4,-3,-7
-6,8,14,-1,-10,11,14,8,-7,-4,-3,-7
-5,8,13,-1,-10,10,13,8,-7,-4,-4,-8
-5,9,14,-1,-10,10,13,8,-7,-4,-4,-8
-5,9,14,-1,-10,11,14,8,-7,-4,-4,-8
-6,10,15,-1,-11,11,14,7,-7,-4,-4,-8
-6,10,16,-1,-11,12,13,6,-7,-4,-3,-7
-5,10,16,-2,-10,12,13,6,-7,-4,-3,-7
-4,11,15,-2,-10,12,12,6,-7,-4,-3,-6
-3,11,15,-3,-10,12,12,6,-8,-4,-3,-6
-3,11,15,-3,-10,13,11,5,-8,-4,-3,-6
-3,11,15,-3,-10,13,11,5,-9,-4,-3,-6
-4,11,15,-3,-10,12,10,4,-9,-4,-3,-6
-4,10,14,-3,-9,12,9,4,-9,-5,-3,-7
-4,10,14,-3,-9,11,8,3,-10,-5,-4,-7
-4,10,13,-3,-9,11,7,3,-10,-6,-5,-7
-3,10,13,-3,-8,11,7,3,-10,-6,-5,-7
-2,11,13,-4,-8,11,7,3,-10,-6,-5,-7
-1,11,13,-5,-7,11,7,3,-9,-6,-5,-6
0,11,12,-5,-6,11,7,3,-9,-5,-4,-6
0,11,12,-5,-6,11,6,3,-10,-5,-4,-6
0,11,10,-5,-5,11,6,3,-10,-5,-4,-6
1,10,9,-5,-4,10,5,3,-10,-6,-4,-6
1,9,8,-4,-3,9,5,3,-11,-6,-5,-7
0,8,7,-3,-3,7,5,3,-11,-7,-6,-8
0,7,7,-3,-3,6,6,3,-12,-8,-7,-8
-1,6,7,-2,-4,6,6,2,-12,-9,-8,-9
-2,6,8,-2,-4,6,7,2,-12,-9,-8,-9
-3,6,8,-1,-5,6,7,3,-11,-9,-8,-8
-3,6,9,-1,-6,7,7,3,-10,-8,-7,-7
-4,6,9,0,-6,7,7,3,-10,-7,-6,-6
-4,5,9,0,-7,7,8,3,-10,-7,-6,-6
-5,5,9,1,-7,6,9,3,-11,-8,-6,-6
-6,4,9,1,-7,6,10,2,-11,-8,-6,-6
-6,4,9,2,-7,6,10,2,-11,-8,-6,-7
-6,3,9,2,-7,5,9,2,-11,-8,-7,-8
-6,3,9,2,-7,5,9,2,-11,-8,-7,-9
-5,3,8,2,-7,5,9,1,-11,-8,-8,-10
-5,3,8,2,-7,5,10,1,-11,-8,-8,-11
-5,2,7,2,-7,4,12,1,-11,-8,-9,-12
-5,2,7,2,-6,4,14,1,-11,-9,-10,-12
-5,1,7,2,-6,4,15,1,-11,-10,-11,-12
-6,1,7,3,-6,3,17,1,-11,-11,-11,-12
-6,0,7,3,-6,3,18,1,-12,-11,-11,-12
-6,0,6,3,-6,3,18,1,-12,-11,-11,-12
-6,0,6,3,-6,3,19,1,-12,-11,-11,-12
-6,0,6,3,-7,3,19,1,-12,-11,-11,-11
-6,0,6,4,-7,3,20,1,-12,-11,-10,-10
-6,0,6,3,-7,3,20,1,-11,-11,-9,-9
-6,0,6,3,-7,3,21,1,-11,-11,-8,-9
-6,0,7,3,-7,3,21,1,-11,-11,-8,-10
-6,0,7,3,-7,3,21,1,-11,-10,-8,-10
-6,0,7,3,-7,3,22,1,-10,-10,-9,-11
-7,0,7,3,-7,3,22,1,-10,-10,-10,-11
-7,0,7,4,-8,3,22,1,-10,-11,-10,-11
-8,0,7,4,-8,3,23,1,-10,-11,-10,-11
-7,0,7,3,-8,3,23,1,-11,-11,-10,-11
-7,1,7,3,-8,3,23,1,-11,-11,-9,-11
-7,1,8,3,-8,3,24,2,-10,-11,-9,-11
-8,1,8,4,-8,4,24,2,-9,-11,-9,-11
-8,1,9,4,-9,4,25,4,-7,-9,-9,-11
-8,2,10,3,-9,5,27,7,-4,-7,-8,-11
-9,3,12,3,-10,7,30,10,-1,-4,-6,-11
-10,4,14,3,-12,8,32,15,4,0,-3,-9
-10,5,15,3,-13,9,34,22,11,5,0,-7
-9,5,15,2,-12,10,36,31,20,12,6,-4
-7,6,13,0,-10,9,38,39,28,18,12,0
-3,7,10,-1,-7,8,37,45,35,25,19,6
2,8,6,-5,-2,7,34,45,41,32,28,13
8,10,2,-9,3,6,29,40,45,39,38,21
16,13,-3,-14,9,5,23,29,47,45,49,30
24,15,-8,-19,16,4,14,17,46,50,58,41
32,18,-14,-25,22,2,5,3,44,54,67,52
39,21,-18,-30,28,1,-4,-10,40,56,74,62
45,25,-21,-35,32,2,-14,-26,34,54,76,69
49,28,-21,-38,34,3,-22,-42,24,49,74,73
50,28,-23,-39,36,2,-27,-56,13,40,64,69
50,23,-28,-36,39,-3,-29,-65,2,26,46,58
48,15,-33,-31,40,-9,-29,-73,-10,11,26,43
44,8,-34,-25,39,-13,-29,-82,-25,-4,8,30
37,3,-34,-19,35,-16,-28,-93,-45,-20,-8,19
29,-1,-30,-13,29,-16,-28,-106,-67,-38,-24,8
18,-5,-24,-6,20,-15,-27,-120,-92,-56,-38,-3
8,-8,-18,0,12,-14,-26,-131,-114,-72,-51,-12
1,-11,-13,5,6,-13,-24,-136,-128,-85,-62,-21
-5,-14,-9,10,1,-12,-21,-135,-135,-94,-70,-29
-10,-16,-7,14,-2,-12,-18,-130,-135,-100,-75,-35
-12,-18,-5,16,-4,-12,-16,-123,-132,-101,-78,-39
-14,-18,-4,17,-5,-12,-14,-114,-125,-99,-77,-39
-15,-18,-2,17,-6,-11,-10,-103,-116,-94,-73,-39
-17,-18,-1,18,-8,-10,-6,-92,-105,-87,-68,-37
-18,-18,-1,18,-9,-10,-2,-80,-95,-79,-63,-36
-18,-18,0,18,-9,-10,1,-69,-84,-72,-58,-34
-17,-16,0,17,-9,-9,5,-57,-74,-65,-53,-32
-15,-14,0,15,-8,-8,8,-46,-64,-57,-48,-29
-12,-13,0,13,-6,-7,10,-34,-54,-50,-42,-26
-11,-12,0,12,-6,-7,13,-24,-45,-43,-36,-24
-10,-11,0,11,-5,-6,15,-15,-37,-37,-31,-22
-10,-10,0,10,-5,-6,17,-7,-29,-32,-27,-20
-9,-9,0,9,-5,-5,19,-1,-23,-27,-24,-17
-9,-7,0,9,-5,-4,21,3,-18,-24,-21,-15
-8,-6,1,8,-5,-3,22,6,-15,-21,-18,-14
-8,-4,2,6,-5,-2,24,8,-13,-18,-16,-13
-6,-3,3,5,-5,0,25,9,-11,-16,-14,-12
-5,-1,4,3,-6,1,25,10,-9,-15,-13,-11
-5,0,5,3,-6,2,25,12,-7,-13,-12,-11
-5,0,6,2,-6,3,25,13,-4,-12,-11,-10
-5,1,6,2,-6,3,26,14,-2,-10,-11,-9
-5,1,6,2,-6,3,26,15,-1,-9,-10,-8
-6,1,7,2,-7,3,26,16,0,-7,-9,-7
-6,1,7,2,-7,3,26,17,0,-6,-8,-6
-5,1,7,2,-7,3,26,17,0,-5,-6,-6
-5,1,7,2,-7,3,26,17,1,-4,-5,-5
-4,1,7,2,-6,3,25,18,1,-4,-5,-5
-4,1,7,2,-6,3,25,18,2,-3,-4,-4
-4,1,6,2,-6,3,25,19,3,-3,-4,-4
-4,1,6,2,-5,3,25,19,3,-3,-4,-4
-3,2,5,1,-5,3,25,19,4,-3,-4,-4
-3,2,5,0,-5,3,25,19,4,-3,-5,-4
-3,3,5,0,-5,3,25,20,4,-3,-5,-4
-2,3,5,0,-5,3,24,20,4,-3,-5,-4
-2,3,5,0,-4,3,24,21,4,-3,-5,-4
-2,3,5,0,-4,3,24,21,4,-3,-4,-4
-2,3,5,0,-4,4,24,21,5,-3,-4,-4
-1,4,5,-1,-4,4,24,20,5,-3,-3,-4
-1,4,5,-1,-4,4,23,20,5,-2,-2,-4
-1,5,6,-1,-4,4,23,20,5,-1,-2,-4
-1,5,6,-1,-5,4,23,20,5,-1,-2,-4
-1,5,6,-1,-5,4,23,20,5,-1,-2,-4
-1,5,6,-1,-4,5,23,20,6,-1,-3,-4
-1,5,7,-1,-4,5,23,20,6,-1,-3,-4
-1,5,7,-1,-4,6,23,21,6,-1,-4,-4
-1,5,7,-1,-4,6,23,21,7,-1,-4,-4
-1,5,6,-1,-4,6,23,21,8,-1,-4,-4
-1,5,6,-1,-4,5,23,21,8,0,-3,-3
0,5,6,-1,-3,5,22,21,8,0,-3,-2
0,4,5,-2,-3,4,22,21,8,0,-3,-2
0,4,3,-2,-2,3,22,22,8,0,-3,-1
1,3,2,-2,-1,3,22,22,8,0,-3,-1
1,3,2,-2,-1,3,21,22,8,0,-2,-1
1,4,3,-2,-1,3,21,22,9,0,-2,-1
1,4,3,-3,-1,4,21,22,9,1,-1,-1
2,5,3,-3,-1,4,21,23,10,1,-2,-2
2,5,4,-3,-1,4,21,23,10,0,-2,-2
2,6,4,-3,-1,5,21,23,11,1,-2,-2
2,6,5,-3,-1,5,21,23,11,1,-1,-2
2,7,4,-4,0,5,20,23,11,2,-1,-2
3,6,4,-4,0,5,20,24,11,2,-1,-1
3,6,3,-3,0,4,19,24,12,1,-1,-1
3,6,3,-3,0,4,19,25,12,1,-1,-1
3,6,3,-3,0,4,18,25,13,1,-1,0
3,6,3,-3,0,4,18,25,13,1,0,0
3,6,3,-3,0,3,18,25,13,2,0,0
4,6,2,-4,0,3,18,26,14,2,0,0
4,6,2,-4,1,3,18,26,14,3,0,0
5,6,2,-4,1,4,18,26,15,3,0,0
5,7,2,-5,1,4,18,27,15,3,0,0
5,8,2,-5,1,5,18,27,16,4,0,1
5,8,2,-6,1,5,18,28,16,4,0,1
6,8,2,-6,1,5,18,29,17,4,0,2
6,8,2,-7,2,5,17,30,17,4,1,2
7,8,1,-7,2,5,17,30,18,5,2,3
7,8,1,-7,3,5,17,31,18,5,2,4
8,8,0,-7,4,4,17,31,18,6,3,5
8,8,0,-7,4,4,17,32,19,7,4,5
9,8,0,-7,4,3,17,33,20,7,4,5
9,8,-1,-8,5,3,17,34,21,8,5,6
10,8,-1,-8,5,3,16,34,22,8,5,6
10,9,-1,-9,5,3,16,35,23,8,6,7
10,9,-1,-9,6,3,15,36,24,9,7,7
11,9,-1,-9,6,3,15,36,24,9,7,8
12,9,-2,-10,7,3,14,37,25,10,8,8
13,10,-2,-11,7,3,14,38,27,11,9,9
14,11,-2,-12,8,3,14,39,28,12,9,9
14,12,-2,-13,8,4,14,40,29,13,10,9
15,12,-2,-13,8,4,13,41,30,14,10,9
16,13,-2,-14,9,4,12,42,32,15,11,10
16,13,-2,-14,9,4,11,43,33,16,12,10
17,13,-3,-14,10,4,10,44,33,16,13,11
18,14,-3,-15,10,4,10,45,34,17,14,12
19,14,-4,-16,11,5,10,46,35,18,15,13
19,14,-4,-16,11,5,10,47,36,18,16,14
20,15,-5,-17,12,5,10,48,37,19,17,16
20,15,-5,-18,12,5,9,49,39,20,18,17
21,16,-5,-18,12,5,9,50,40,21,18,18
22,16,-5,-19,13,5,9,51,42,22,19,19
23,17,-6,-20,14,5,8,52,43,23,20,20
24,17,-7,-20,15,5,5,53,44,24,21,22
25,17,-7,-21,16,5,1,54,46,24,22,23
26,17,-8,-21,16,5,-2,54,47,25,22,25
26,18,-8,-22,17,5,-4,55,47,25,23,26
27,18,-8,-22,17,5,-6,55,48,26,25,27
28,19,-8,-23,17,5,-7,56,48,27,26,28
28,20,-8,-24,18,5,-8,57,49,28,27,28
29,20,-9,-24,18,5,-9,57,50,28,28,29
30,21,-9,-25,19,5,-10,57,50,28,28,29
31,21,-9,-25,19,6,-11,58,50,28,28,29
31,21,-9,-26,19,6,-12,58,51,28,29,30
31,21,-9,-26,20,6,-13,58,51,28,29,30
31,22,-9,-26,20,6,-13,58,51,29,29,31
31,22,-9,-26,20,6,-13,58,51,29,29,31
31,22,-9,-26,20,6,-14,58,51,29,29,31
32,22,-10,-26,20,6,-15,58,51,29,29,31
32,23,-10,-27,20,6,-16,58,51,29,29,31
33,23,-10,-27,21,6,-17,57,50,29,29,30
33,23,-10,-27,21,6,-17,57,49,28,29,30
32,23,-9,-28,20,7,-17,56,48,28,28,30
32,23,-9,-28,20,7,-17,55,47,27,27,29
32,23,-9,-27,20,7,-17,53,46,26,27,29
31,23,-8,-27,20,7,-17,52,44,26,26,28
30,22,-8,-26,19,7,-17,51,43,25,26,28
29,22,-7,-25,18,7,-16,49,41,25,26,28
28,21,-7,-24,17,7,-15,48,39,24,26,28
27,21,-6,-23,16,7,-14,46,37,23,26,27
26,20,-6,-22,15,7,-13,44,36,22,25,27
24,19,-5,-21,14,7,-12,42,34,21,23,25
23,18,-5,-20,13,7,-12,40,32,19,21,23
22,18,-4,-19,13,7,-11,38,29,18,19,21
21,17,-3,-18,12,7,-11,36,27,16,17,19
19,16,-3,-17,11,7,-10,33,25,15,15,17
17,15,-2,-16,9,6,-10,31,22,13,14,15
15,14,-2,-14,8,6,-9,29,20,12,13,14
14,13,-2,-13,8,6,-9,27,18,11,11,12
13,12,-2,-12,7,6,-9,25,16,9,10,11
12,12,-1,-12,7,6,-9,22,14,8,8,10
11,11,-1,-11,6,6,-8,20,12,6,7,8
10,11,0,-10,5,6,-7,18,10,5,6,6
9,10,0,-9,3,6,-6,16,8,3,4,4
8,9,1,-8,2,6,-5,15,6,2,3,3
7,9,1,-8,2,6,-5,13,4,1,2,2
7,9,1,-7,2,6,-4,12,3,0,1,1
6,8,1,-7,2,5,-3,11,2,-1,0,1
6,8,1,-6,2,5,-2,9,1,-2,-1,0
6,7,1,-6,2,4,-2,8,0,-3,-2,0
6,7,1,-6,2,4,-2,7,0,-4,-3,-1
5,6,1,-5,1,4,-2,7,-1,-4,-3,-2
4,5,1,-4,0,3,-2,6,-2,-5,-4,-2
3,5,1,-3,0,3,-3,6,-3,-6,-4,-3
3,4,1,-3,0,3,-4,5,-4,-6,-5,-3
2,4,1,-2,0,3,-4,4,-5,-7,-5,-3
1,3,1,-2,0,3,-3,3,-5,-7,-5,-4
1,3,2,-2,-1,3,-2,3,-6,-8,-5,-4
1,3,2,-2,-1,3,-2,2,-6,-8,-5,-5
1,3,2,-2,0,3,-2,2,-6,-8,-6,-6
1,3,2,-2,0,3,-2,2,-6,-9,-8,-7
1,3,2,-2,-1,3,-2,2,-6,-9,-9,-8
0,3,2,-2,-1,3,-2,2,-6,-9,-9,-8
1,3,2,-2,0,3,-2,2,-6,-10,-9,-8
1,3,1,-2,0,2,-1,2,-6,-10,-9,-8
2,3,1,-2,0,2,-1,1,-6,-11,-10,-8
2,2,0,-2,0,1,0,1,-6,-11,-10,-7
2,2,0,-1,0,1,0,1,-6,-11,-10,-7
2,2,0,-1,0,1,0,1,-5,-11,-9,-7
2,2,0,-1,0,1,0,1,-5,-11,-9,-7
2,2,0,-1,0,1,0,1,-4,-11,-9,-7
2,1,0,-1,0,1,0,1,-4,-11,-9,-7
1,1,0,-1,0,1,0,1,-4,-11,-9,-7
1,1,0,0,0,1,0,1,-4,-11,-9,-7
0,1,1,0,-1,1,0,1,-4,-11,-10,-7
0,1,1,0,-1,1,-1,1,-4,-11,-10,-8
0,1,0,0,-1,1,-1,1,-4,-12,-11,-8
1,1,0,0,0,1,-1,1,-4,-12,-11,-8
1,1,0,0,0,1,0,1,-4,-12,-11,-8
1,1,1,0,0,2,0,1,-4,-12,-11,-8
1,2,1,0,0,2,0,1,-4,-12,-11,-8
1,2,0,0,0,1,0,1,-4,-12,-11,-8
1,1,0,0,0,1,0,1,-4,-12,-11,-8
1,1,0,0,0,0,0,1,-3,-12,-11,-8
1,0,0,0,0,0,0,2,-3,-12,-11,-8
1,0,0,0,0,0,0,2,-2,-12,-12,-8
1,0,0,0,0,0,0,2,-2,-12,-12,-8
1,0,0,0,1,0,0,2,-2,-13,-13,-7
1,0,0,0,1,0,0,2,-2,-13,-13,-7
1,0,0,0,1,0,0,3,-2,-13,-13,-7
1,0,0,0,1,0,0,3,-2,-13,-12,-8
1,0,0,0,1,0,1,3,-2,-12,-12,-8
1,0,0,0,1,0,1,3,-2,-12,-12,-8
1,0,-1,0,1,0,1,2,-2,-12,-12,-8
1,0,-1,0,1,0,1,2,-2,-12,-12,-8
1,0,0,0,1,0,2,2,-2,-12,-11,-8
1,0,0,0,1,0,2,3,-1,-12,-11,-8
1,0,0,0,1,0,1,3,-1,-12,-11,-8
1,0,0,0,1,0,1,3,-1,-12,-11,-9
1,0,0,-1,1,0,1,3,-1,-12,-11,-9
1,0,0,-1,1,0,1,3,0,-12,-12,-9
1,0,-1,-1,1,0,1,3,0,-12,-12,-8
1,0,-1,-1,1,0,1,3,0,-12,-12,-8
2,0,-1,-1,1,0,1,3,0,-12,-12,-8
2,0,-1,-1,1,0,1,3,0,-12,-11,-7
2,0,-1,-1,2,0,1,3,0,-12,-11,-7
2,0,-1,-1,2,0,1,3,0,-11,-11,-7
2,0,-1,-1,2,0,1,3,0,-11,-10,-6
2,0,-1,-1,2,0,1,3,0,-10,-9,-6
2,0,-1,-1,2,0,1,3,0,-10,-9,-6
2,0,-1,-1,2,0,1,3,0,-10,-9,-6
2,0,-1,-1,2,0,1,3,0,-10,-9,-6
2,0,-1,-1,1,0,1,3,0,-10,-10,-6
2,0,0,-1,1,1,0,3,0,-10,-10,-6
2,1,0,-1,1,1,0,3,0,-10,-10,-7
2,1,0,-1,1,1,0,3,0,-10,-10,-7
2,1,0,-1,1,1,0,2,0,-10,-10,-7
2,1,0,-1,1,1,0,2,0,-10,-10,-7
2,1,0,-2,2,1,-1,2,0,-10,-10,-7
2,1,0,-2,2,1,-1,2,0,-10,-10,-7
2,1,0,-2,2,1,-1,2,0,-10,-11,-7
2,1,0,-2,2,1,0,2,1,-10,-11,-6
2,1,0,-1,2,1,0,2,1,-10,-10,-6
2,1,0,-1,2,1,0,2,1,-10,-10,-6
2,1,0,-1,2,1,1,2,0,-10,-10,-6
2,1,0,0,1,1,1,1,0,-10,-10,-6
2,1,0,0,1,1,1,1,0,-10,-10,-6
2,1,0,0,1,1,1,1,0,-10,-10,-6
2,1,-1,0,1,1,1,1,0,-10,-11,-7
2,1,-1,0,1,1,1,1,0,-11,-11,-7
2,1,-1,-1,2,1,1,1,0,-11,-11,-8
2,1,-1,-1,2,1,1,1,0,-11,-11,-8
2,1,-1,-1,2,1,1,1,0,-11,-11,-8
2,1,-1,-1,2,1,1,1,0,-11,-12,-8
2,0,-1,-1,2,1,1,1,0,-11,-12,-8
2,0,-1,-1,1,1,0,0,0,-11,-12,-8
2,0,-1,-1,1,1,0,0,0,-11,-12,-7
2,1,-1,-1,1,1,0,0,0,-11,-12,-7
2,1,-1,-1,1,1,0,0,0,-11,-12,-7
2,1,0,-1,1,1,1,0,0,-11,-12,-7
2,1,0,-1,1,1,1,0,0,-11,-12,-7
2,0,0,-1,1,1,0,0,0,-11,-12,-7
1,0,0,-1,1,1,0,0,0,-11,-12,-7
1,0,0,-1,1,1,0,0,0,-11,-12,-7
1,0,0,0,1,1,0,0,0,-12,-12,-7
0,0,0,0,1,1,0,0,0,-12,-12,-7
0,0,0,0,1,1,0,0,-1,-12,-12,-7
1,0,0,0,1,1,0,0,-1,-12,-12,-7
1,0,0,0,1,1,0,0,-1,-12,-12,-7
0,0,0,0,0,1,0,0,-1,-12,-12,-7
0,0,0,0,0,1,0,0,-1,-12,-12,-7
0,0,0,0,0,1,0,0,-2,-12,-12,-7
0,0,0,0,0,1,0,0,-2,-12,-12,-7
0,0,0,0,0,1,0,0,-2,-12,-12,-7
0,0,0,1,0,1,0,0,-2,-12,-12,-7
0,0,0,1,0,1,0,0,-2,-12,-12,-8
0,0,0,1,0,1,0,-1,-2,-12,-12,-8
0,0,0,0,0,1,0,-1,-2,-12,-12,-8
0,0,1,0,0,2,1,-1,-2,-12,-13,-8
0,0,1,0,0,2,1,-1,-2,-12,-13,-9
0,0,1,0,0,1,2,-1,-2,-13,-13,-9
0,0,1,0,0,1,2,-1,-2,-13,-13,-10
0,0,1,1,0,1,2,-1,-2,-13,-13,-10
-1,0,2,1,-1,2,1,-1,-2,-13,-13,-9
-1,0,2,1,-1,2,1,-1,-2,-13,-13,-9
-1,0,2,1,-1,2,0,-1,-2,-13,-13,-9
0,0,1,1,0,1,0,-1,-2,-13,-14,-9
0,0,1,1,0,1,0,-1,-2,-13,-14,-9
0,0,1,1,0,1,0,-1,-2,-13,-14,-8
0,0,1,1,0,1,0,-1,-2,-13,-13,-8
0,0,1,1,0,1,1,-1,-2,-13,-13,-8
0,0,1,1,0,1,1,-1,-2,-13,-13,-8
0,0,1,1,0,1,2,-1,-2,-13,-13,-8
0,0,1,0,0,1,2,-1,-2,-13,-14,-8
0,1,1,0,0,2,2,-1,-2,-13,-14,-8
0,1,1,0,0,2,2,-1,-2,-13,-13,-9
0,1,1,0,0,2,2,-1,-2,-13,-13,-9
0,1,2,0,0,2,1,-1,-2,-14,-13,-9
0,1,2,0,-1,2,0,-1,-2,-14,-13,-10
0,1,2,0,-1,2,0,-2,-2,-14,-13,-10
0,0,2,0,-1,2,0,-2,-3,-14,-13,-10
0,0,2,0,-1,2,0,-2,-3,-14,-13,-9
0,0,2,0,-1,2,0,-2,-3,-14,-12,-9
0,0,2,0,-1,2,0,-2,-3,-14,-12,-8
0,0,2,0,-1,2,1,-2,-3,-14,-11,-8
0,0,2,0,-1,2,1,-2,-3,-14,-11,-7
0,0,2,0,-1,2,1,-2,-3,-14,-11,-7
0,0,2,0,-1,2,1,-2,-3,-14,-11,-7
0,0,2,0,-1,2,0,-2,-3,-14,-11,-7
0,0,2,0,-1,2,0,-2,-3,-14,-11,-7
0,0,2,0,-1,2,0,-2,-3,-14,-11,-7
0,0,2,0,-1,2,0,-2,-3,-14,-11,-7
0,0,2,0,-1,2,0,-2,-3,-15,-11,-8
0,0,2,0,-1,1,0,-2,-4,-15,-12,-8
0,0,2,0,-1,1,1,-2,-4,-16,-12,-9
0,0,2,0,-1,2,1,-2,-4,-15,-11,-9
-1,0,2,0,-2,2,1,-2,-4,-15,-11,-9
-1,0,2,0,-2,2,1,-2,-4,-15,-11,-9
-1,0,2,0,-2,2,0,-2,-4,-15,-11,-9
-1,0,2,0,-2,2,0,-2,-4,-15,-11,-9
-1,0,2,0,-2,2,0,-2,-4,-15,-11,-9
-1,0,2,0,-2,2,0,-2,-4,-15,-11,-9
-1,0,2,0,-2,2,0,-2,-4,-15,-11,-9
-1,0,2,0,-2,2,0,-2,-4,-15,-11,-9
-1,0,2,0,-2,2,0,-2,-4,-15,-11,-9
-1,1,2,0,-1,2,0,-2,-4,-15,-11,-9
0,1,2,0,-1,2,0,-2,-4,-15,-11,-9
0,1,2,0,-1,2,0,-2,-4,-15,-10,-9
0,1,3,0,-1,2,0,-2,-4,-15,-10,-9
0,1,3,0,-1,2,0,-2,-4,-15,-10,-9
0,2,3,0,-1,2,0,-2,-4,-15,-10,-9
0,2,3,0,-1,3,-1,-2,-3,-14,-10,-9
0,2,4,0,-2,3,-1,-2,-3,-14,-10,-9
0,2,4,-1,-2,3,-1,-1,-3,-13,-10,-9
0,2,4,-1,-2,4,-1,-1,-3,-13,-9,-9
0,3,4,-1,-2,4,0,0,-2,-13,-9,-9
0,3,5,-2,-2,5,0,0,-2,-13,-8,-9
0,4,6,-2,-3,5,1,0,-1,-13,-8,-8
0,5,6,-2,-3,6,1,0,-1,-13,-8,-8
0,5,6,-2,-3,6,1,0,-1,-13,-8,-7
0,6,6,-2,-3,6,0,0,-1,-12,-8,-7
0,6,7,-2,-3,6,-1,0,0,-12,-7,-7
0,6,8,-2,-4,7,0,0,0,-11,-7,-7
0,7,8,-2,-4,7,0,0,0,-11,-6,-7
0,7,9,-2,-4,8,1,0,0,-11,-6,-6
0,7,9,-2,-4,8,2,0,0,-11,-6,-6
0,8,9,-2,-4,9,1,0,0,-11,-6,-6
0,8,10,-3,-5,9,1,0,0,-11,-6,-6
0,9,11,-3,-5,10,0,-1,0,-11,-6,-6
0,9,11,-4,-5,10,0,-1,-1,-11,-6,-6
0,9,10,-4,-5,10,0,-2,-1,-11,-6,-6
0,9,10,-4,-4,10,0,-2,-2,-11,-5,-6
1,9,10,-4,-4,10,-1,-2,-2,-11,-5,-6
1,10,10,-4,-4,10,-2,-3,-2,-11,-5,-6
1,10,10,-4,-4,10,-2,-3,-2,-11,-5,-6
1,10,10,-5,-4,10,-3,-4,-3,-11,-5,-5
1,10,10,-5,-4,10,-3,-5,-4,-11,-5,-5
1,10,10,-5,-4,10,-3,-5,-4,-11,-6,-5
1,10,10,-5,-4,10,-4,-5,-4,-11,-6,-5
2,11,10,-6,-3,10,-5,-5,-4,-11,-6,-5
3,11,9,-7,-3,10,-6,-5,-4,-10,-6,-4
4,11,9,-7,-2,10,-7,-5,-4,-10,-6,-4
4,11,8,-7,-2,9,-7,-5,-4,-11,-6,-5
4,10,7,-6,-1,8,-7,-5,-4,-11,-7,-7
4,8,5,-6,0,7,-7,-5,-4,-12,-7,-9
4,7,4,-5,0,6,-7,-5,-4,-12,-7,-11
4,6,3,-5,1,5,-7,-5,-5,-13,-8,-13
4,5,2,-4,1,4,-7,-5,-5,-13,-8,-15
4,5,2,-4,1,4,-7,-5,-6,-14,-9,-17
3,4,2,-3,0,3,-7,-5,-6,-14,-10,-18
3,3,3,-3,0,3,-7,-4,-6,-14,-10,-18
2,3,3,-2,0,3,-6,-4,-6,-14,-10,-19
2,3,3,-2,0,3,-6,-4,-6,-14,-10,-19
1,3,4,-2,-1,3,-6,-4,-6,-14,-10,-19
0,2,4,-1,-1,3,-6,-4,-6,-14,-10,-20
0,2,4,0,-2,3,-5,-4,-6,-14,-10,-20
0,1,4,0,-2,2,-5,-4,-6,-14,-11,-21
0,1,3,0,-2,2,-4,-4,-6,-14,-11,-22
0,1,3,0,-2,1,-4,-4,-6,-14,-12,-23
0,0,2,1,-2,1,-4,-4,-6,-14,-12,-23
0,0,2,1,-1,1,-4,-4,-6,-15,-13,-23
0,0,2,2,-1,0,-4,-4,-6,-15,-13,-24
0,-1,2,2,-1,0,-4,-4,-5,-15,-13,-24
0,-1,2,2,-1,0,-4,-4,-5,-15,-13,-25
-1,-1,2,2,-1,0,-4,-4,-5,-15,-13,-25
-1,-1,2,2,-2,0,-4,-4,-6,-16,-13,-26
-1,-1,2,2,-2,0,-4,-4,-6,-16,-14,-26
-1,-1,2,2,-1,0,-4,-5,-7,-16,-14,-26
-1,-1,1,2,-1,0,-4,-5,-7,-16,-14,-26
-1,-1,1,2,-1,0,-4,-5,-7,-16,-14,-26
-2,-1,1,2,-1,0,-3,-5,-7,-16,-14,-26
-2,-1,2,2,-1,0,-3,-5,-7,-16,-14,-25
-2,-2,2,2,-1,0,-3,-5,-7,-16,-14,-25
-2,-2,2,3,-1,0,-3,-5,-7,-16,-14,-25
-2,-2,2,3,-2,0,-3,-5,-7,-15,-14,-25
-2,-2,2,3,-2,0,-3,-5,-7,-15,-14,-25
-2,-2,2,3,-2,0,-3,-4,-7,-15,-14,-25
-3,-2,2,3,-2,0,-3,-4,-6,-15,-13,-25
-3,-2,2,3,-2,0,-3,-4,-6,-15,-13,-25
-3,-2,2,3,-2,0,-3,-4,-6,-14,-13,-25
-3,-2,2,3,-2,0,-3,-4,-6,-14,-13,-25
-3,-1,3,3,-2,0,-3,-3,-5,-13,-13,-24
-3,-1,4,3,-3,1,-2,-2,-4,-12,-13,-24
-4,0,5,3,-4,2,-1,0,-2,-11,-12,-24
-5,0,8,3,-6,4,1,2,0,-8,-10,-23
-6,2,10,3,-8,6,3,6,5,-4,-8,-22
-6,3,11,2,-9,7,6,13,12,1,-4,-21
-6,5,12,1,-8,8,9,22,20,8,1,-18
-4,6,11,0,-7,8,11,30,29,16,7,-15
-1,7,9,-2,-4,8,11,36,37,23,14,-10
3,8,6,-5,-1,8,8,36,43,32,24,-2
9,10,2,-9,3,7,4,32,48,40,35,6
16,12,-2,-14,9,6,-2,23,49,47,46,16
24,14,-7,-19,16,4,-11,11,49,53,57,27
33,18,-13,-25,24,2,-21,-2,48,59,68,39
41,21,-18,-31,30,1,-31,-15,46,63,76,49
47,25,-21,-36,34,1,-41,-30,41,63,81,57
51,29,-21,-39,36,3,-48,-46,33,59,80,62
52,29,-22,-40,37,4,-53,-60,22,50,70,60
52,25,-26,-38,39,-1,-55,-70,11,37,50,51
51,17,-32,-33,41,-8,-55,-77,0,21,26,37
47,9,-36,-27,41,-14,-55,-85,-15,3,3,24
42,2,-38,-22,40,-18,-56,-96,-35,-15,-17,11
35,-3,-36,-16,36,-19,-56,-110,-59,-36,-36,-1
25,-7,-31,-9,29,-19,-56,-124,-86,-57,-53,-13
14,-12,-25,0,20,-19,-54,-136,-111,-77,-69,-24
3,-16,-19,7,11,-18,-52,-142,-128,-92,-81,-33
-4,-19,-14,13,5,-17,-50,-142,-135,-101,-90,-40
-6,-23,-15,15,4,-19,-49,-138,-138,-107,-97,-47
-6,-25,-17,16,5,-20,-47,-132,-136,-110,-101,-53
-7,-25,-16,17,4,-20,-44,-123,-129,-107,-100,-55
-9,-25,-14,18,3,-19,-40,-112,-120,-101,-97,-56
-10,-23,-12,17,2,-18,-36,-100,-108,-93,-93,-55
-10,-22,-10,17,1,-17,-32,-88,-96,-85,-87,-54
-10,-21,-9,16,0,-16,-28,-76,-85,-77,-82,-52
-10,-19,-8,15,0,-14,-24,-65,-73,-68,-76,-50
-8,-17,-8,14,0,-12,-21,-52,-62,-60,-70,-47
-7,-15,-7,12,0,-10,-17,-41,-52,-52,-64,-44
-6,-14,-6,11,0,-9,-14,-30,-43,-46,-60,-42
-5,-12,-5,9,0,-8,-10,-22,-35,-40,-56,-40
-4,-10,-5,8,0,-8,-7,-15,-27,-35,-53,-38
-4,-9,-4,7,0,-7,-5,-9,-20,-31,-49,-37
-4,-8,-3,6,0,-6,-3,-4,-14,-26,-46,-35
-4,-7,-2,6,0,-5,-1,-1,-10,-22,-43,-32
-4,-6,-1,5,-1,-4,-1,1,-7,-19,-40,-30
-3,-5,0,4,-1,-2,-1,3,-5,-17,-38,-29
-3,-3,0,3,-2,-1,-1,5,-3,-15,-37,-27
-3,-2,1,3,-2,0,0,6,-1,-14,-36,-27
-3,-2,1,3,-2,0,1,7,1,-13,-35,-26
-3,-2,2,3,-2,0,2,8,2,-12,-34,-26
-3,-1,2,3,-2,0,2,9,4,-11,-33,-25
-3,-1,2,2,-2,0,2,9,5,-10,-32,-25
-3,-1,3,2,-2,0,2,10,5,-9,-31,-24
-3,-1,3,2,-2,1,3,11,6,-8,-30,-24
-3,-1,3,2,-2,1,3,11,6,-8,-30,-24
-2,-1,3,2,-2,1,3,12,7,-7,-29,-23
-2,0,3,1,-2,1,3,12,8,-7,-28,-23
-2,0,3,1,-2,1,2,13,9,-7,-27,-22
-2,0,3,1,-2,1,2,13,10,-6,-26,-22
-2,0,3,1,-2,1,2,14,10,-5,-25,-22
-2,0,3,1,-2,1,1,14,10,-4,-23,-22
-2,0,3,1,-2,2,1,14,11,-3,-22,-22
-1,0,3,1,-2,2,2,14,11,-3,-21,-21
-1,1,3,1,-2,2,2,14,11,-3,-21,-21
-1,1,3,1,-2,2,2,14,11,-3,-21,-20
-1,1,3,1,-2,2,2,14,12,-3,-21,-20
-1,1,3,1,-2,2,2,14,12,-3,-20,-20
0,1,3,0,-2,2,3,15,13,-3,-20,-20
0,2,3,0,-2,2,3,15,13,-3,-20,-20
0,2,3,0,-2,2,2,15,13,-2,-19,-19
0,2,3,0,-2,3,2,16,13,-2,-19,-19
0,3,4,0,-2,3,2,16,14,-2,-18,-19
-1,3,4,0,-3,3,1,16,14,-2,-18,-19
0,3,3,0,-2,3,1,16,14,-2,-19,-19
0,3,3,-1,-2,3,1,16,14,-2,-19,-19
0,2,3,-1,-2,3,1,16,14,-1,-19,-19
0,2,3,-1,-2,3,1,16,15,-1,-19,-19
0,2,2,-1,-1,3,1,16,15,0,-18,-19
1,3,2,-2,-1,3,1,17,15,0,-18,-20
1,3,2,-2,-1,3,1,17,15,0,-18,-20
1,3,2,-1,-1,3,1,17,15,0,-18,-20
1,3,2,-1,-1,3,1,17,16,0,-18,-19
1,3,2,-1,-1,3,1,17,16,0,-17,-19
1,3,2,-1,0,3,1,17,17,0,-17,-18
1,3,2,-1,0,3,1,17,17,1,-16,-18
2,3,1,-1,0,3,1,18,17,1,-16,-18
2,3,1,-1,0,2,1,18,17,1,-16,-18
2,3,1,-1,0,2,0,18,17,1,-16,-18
2,3,1,-1,0,2,0,19,18,2,-16,-17
2,4,2,-1,0,2,0,19,18,2,-15,-17
2,4,2,-2,0,2,-1,20,19,3,-15,-17
3,4,2,-2,0,3,-1,20,19,3,-14,-17
3,4,2,-3,0,3,-2,21,20,3,-14,-17
3,4,2,-3,0,3,-2,21,20,3,-13,-16
3,4,2,-3,0,3,-2,22,21,4,-12,-16
4,4,2,-3,0,3,-1,22,21,4,-12,-16
4,4,1,-4,1,3,-1,23,21,4,-11,-15
5,5,1,-4,1,3,-1,23,21,5,-11,-15
5,5,1,-5,2,3,-1,24,22,5,-10,-15
6,6,1,-5,2,3,-1,24,22,6,-10,-14
6,6,0,-5,2,3,-1,25,23,6,-9,-14
6,6,0,-5,2,3,-1,25,23,7,-8,-13
7,6,0,-5,3,3,-1,26,24,7,-7,-13
7,6,0,-6,3,3,-1,26,24,8,-7,-12
7,6,0,-6,3,3,-1,27,25,8,-6,-12
7,6,0,-6,4,3,-1,27,25,8,-6,-11
8,7,0,-6,4,3,-1,28,26,9,-5,-11
8,7,0,-7,4,3,-1,29,26,9,-5,-10
9,8,0,-7,4,3,-1,30,27,10,-4,-9
10,8,0,-8,5,3,-1,31,28,10,-4,-9
10,9,0,-9,5,3,-2,32,29,11,-3,-8
11,9,0,-9,5,3,-2,33,30,11,-2,-7
11,9,0,-10,6,4,-2,34,31,12,-1,-7
12,10,0,-10,6,4,-3,35,32,12,0,-6
12,10,0,-11,7,4,-3,36,33,13,0,-5
13,11,0,-11,7,4,-3,37,34,14,1,-4
13,11,0,-12,7,4,-2,38,35,15,2,-4
14,12,-1,-12,8,4,-2,39,36,15,3,-3
15,12,-1,-13,9,4,-3,40,37,16,3,-2
16,13,-2,-14,9,5,-3,41,39,16,4,-2
17,13,-2,-14,10,5,-4,42,40,17,5,-1
17,14,-2,-15,10,5,-4,43,41,18,6,0
18,14,-2,-15,10,5,-5,44,42,20,7,0
19,15,-2,-16,11,5,-5,45,43,21,8,1
20,15,-3,-17,11,5,-5,46,44,23,8,2
21,16,-4,-17,12,5,-5,47,46,24,9,3
22,16,-4,-18,12,5,-5,48,47,25,11,5
22,17,-4,-18,13,6,-6,49,49,26,12,6
23,17,-4,-19,13,6,-6,50,50,27,14,7
24,18,-5,-20,14,6,-6,51,51,28,15,8
25,18,-5,-20,15,6,-7,52,52,30,16,9
25,18,-5,-21,15,6,-7,53,53,31,17,10
25,18,-5,-21,15,6,-8,53,54,32,17,11
26,19,-5,-21,15,6,-8,54,54,33,18,11
27,19,-5,-22,16,6,-9,54,55,34,19,12
27,20,-6,-22,16,7,-9,55,55,35,19,13
28,21,-6,-23,17,7,-10,55,56,36,20,13
28,21,-6,-24,17,7,-10,55,56,36,21,14
29,22,-6,-24,18,7,-11,55,56,37,22,15
30,22,-6,-25,18,7,-11,55,56,37,22,16
30,22,-7,-25,19,7,-12,55,56,38,22,17
31,22,-7,-26,19,7,-11,56,57,38,23,17
31,23,-7,-26,19,7,-11,56,57,38,23,18
31,23,-7,-27,19,7,-11,56,57,38,23,19
31,23,-8,-27,19,7,-12,55,57,38,23,19
31,23,-8,-27,19,7,-12,55,56,38,23,19
32,23,-8,-27,20,7,-12,54,56,38,24,20
32,23,-8,-27,20,7,-13,54,55,38,24,20
32,23,-7,-27,20,7,-13,53,54,37,23,19
32,23,-7,-27,20,7,-13,51,53,36,23,19
32,23,-7,-27,20,7,-13,50,52,36,23,19
31,22,-7,-26,20,7,-12,48,51,35,22,19
30,22,-7,-26,19,7,-11,47,49,35,22,18
29,22,-6,-25,18,8,-11,45,48,34,21,17
28,21,-5,-24,17,8,-10,44,46,33,20,15
27,21,-5,-23,16,8,-9,41,44,32,19,14
26,20,-5,-22,16,7,-9,39,42,30,17,12
25,19,-4,-21,15,7,-9,36,39,29,16,11
23,19,-4,-20,14,7,-9,34,37,27,14,10
21,18,-3,-19,13,7,-9,31,35,26,13,8
19,17,-2,-17,11,7,-9,29,32,25,11,7
18,16,-2,-16,10,7,-8,27,30,24,10,5
16,15,-1,-15,9,7,-8,25,28,22,8,4
15,14,-1,-14,8,6,-7,23,26,21,7,2
14,13,0,-13,7,6,-6,21,23,19,5,1
13,12,0,-11,6,6,-5,18,21,18,4,0
11,11,1,-10,5,6,-4,16,19,17,3,-1
10,11,1,-9,5,6,-3,13,16,15,2,-2
9,10,1,-8,4,6,-3,11,14,14,1,-3
8,9,2,-7,3,6,-3,10,12,13,0,-5
7,8,2,-6,2,5,-3,8,10,12,-1,-6
6,7,2,-5,2,5,-2,7,8,10,-2,-8
5,6,2,-5,1,4,-2,5,7,9,-3,-9
4,6,2,-4,1,4,-1,4,5,8,-4,-9
3,5,2,-4,1,4,-2,2,4,7,-5,-10
3,5,2,-3,1,4,-2,1,3,6,-6,-11
2,5,2,-3,0,4,-3,0,2,5,-6,-11
2,5,3,-2,0,4,-3,0,1,5,-7,-12
1,5,3,-2,-1,4,-2,-1,0,4,-7,-12
1,4,3,-1,-1,3,-2,-1,0,4,-8,-13
0,4,3,-1,-1,3,-1,-2,-1,3,-8,-14
0,3,3,0,-1,3,-1,-2,-2,3,-9,-14
0,2,3,0,-1,2,-1,-3,-3,2,-10,-15
0,2,3,0,-1,2,0,-4,-4,2,-10,-15
0,2,3,0,-1,2,0,-5,-4,1,-11,-16
0,2,3,0,-1,2,0,-5,-5,1,-11,-16
0,2,2,0,-1,2,0,-5,-5,0,-11,-16
0,2,2,0,-1,2,0,-5,-5,0,-11,-16
0,2,2,0,-1,2,-1,-5,-5,0,-11,-16
0,2,2,0,-1,2,-1,-5,-5,0,-12,-16
0,2,2,0,-1,2,-1,-5,-5,0,-12,-15
-1,2,2,1,-1,2,-1,-6,-6,-1,-13,-15
-1,1,2,1,-1,2,-1,-6,-6,-1,-13,-15
-1,1,2,1,-1,2,-2,-6,-6,-1,-13,-14
-2,0,2,2,-2,2,-2,-6,-6,-1,-13,-14
-2,0,2,2,-2,2,-2,-6,-6,-1,-13,-14
-2,0,2,2,-1,1,-2,-6,-7,-2,-13,-14
-2,0,2,2,-1,1,-2,-7,-7,-2,-13,-14
-2,0,2,2,-2,1,-1,-7,-7,-2,-13,-13
-3,0,3,3,-2,1,-1,-7,-7,-2,-13,-13
-3,0,2,3,-2,1,0,-6,-7,-2,-14,-13
-2,0,2,3,-2,1,0,-6,-7,-3,-14,-13
-2,0,2,3,-1,1,0,-6,-7,-3,-14,-13
-2,0,1,3,-1,1,0,-6,-7,-3,-13,-13
-2,0,1,3,-1,1,0,-6,-7,-4,-13,-13
-2,0,1,2,-1,1,0,-6,-7,-4,-13,-13
-2,0,1,2,-2,1,0,-6,-7,-4,-13,-13
-2,0,2,2,-2,1,0,-6,-7,-4,-13,-13
-2,0,1,2,-1,1,0,-6,-7,-4,-14,-13
-2,0,1,2,-1,1,1,-6,-8,-4,-14,-13
-2,0,1,2,-1,1,1,-6,-8,-4,-14,-13
-2,0,2,2,-1,1,2,-6,-8,-3,-14,-13
-2,0,2,2,-1,1,1,-6,-7,-3,-14,-13
-2,0,2,2,-2,1,1,-6,-7,-3,-14,-13
-3,0,3,2,-2,2,1,-6,-7,-3,-14,-13
-3,0,3,2,-3,2,1,-6,-7,-3,-14,-12
-3,0,3,2,-3,2,1,-6,-7,-3,-14,-12
-3,0,3,2,-3,2,1,-6,-7,-3,-13,-11
-3,0,3,2,-3,2,1,-6,-7,-3,-13,-11
-3,0,3,2,-3,2,1,-6,-7,-3,-13,-11
-3,0,3,2,-3,2,1,-6,-7,-3,-13,-11
-3,0,3,2,-3,2,2,-5,-6,-2,-13,-11
-3,0,3,2,-3,2,2,-5,-6,-2,-13,-10
-3,0,3,1,-3,2,1,-5,-6,-2,-13,-10
-3,0,3,1,-3,2,1,-5,-6,-2,-13,-10
-3,0,3,2,-3,2,1,-5,-6,-2,-13,-9
-3,0,3,2,-3,2,1,-5,-6,-2,-13,-9
-3,0,3,2,-3,2,1,-5,-6,-1,-12,-9
-3,0,3,2,-3,2,1,-4,-5,-1,-12,-8
-3,0,3,2,-3,2,1,-4,-5,-1,-11,-8
-3,0,3,2,-3,2,2,-4,-5,-1,-11,-7
-3,-1,3,2,-2,1,2,-4,-5,-1,-10,-7
-3,-1,3,3,-2,1,2,-4,-5,-1,-10,-7
-3,-1,3,3,-2,1,2,-4,-5,0,-9,-6
-3,-1,3,3,-2,2,1,-4,-5,0,-9,-6
-3,-1,3,3,-3,2,1,-4,-5,0,-9,-6
-3,-1,3,3,-3,2,1,-4,-5,0,-9,-6
-3,0,3,3,-3,2,1,-4,-5,0,-9,-6
-3,0,3,2,-3,2,1,-4,-5,0,-9,-6
-4,0,4,2,-3,3,1,-4,-5,1,-9,-6
-4,0,4,2,-3,3,2,-4,-5,1,-9,-6
-4,0,4,2,-3,3,2,-4,-5,1,-9,-6
-4,0,4,2,-4,3,3,-4,-5,1,-9,-6
-4,0,4,2,-4,3,3,-4,-5,1,-9,-6
-4,0,4,2,-4,3,3,-4,-5,1,-9,-6
-4,0,4,2,-4,3,3,-4,-5,1,-9,-6
-3,0,4,2,-3,3,3,-4,-5,1,-9,-6
-3,0,4,2,-3,3,2,-4,-5,1,-9,-5
-3,0,4,2,-3,3,2,-4,-6,1,-9,-5
-3,0,4,2,-3,3,2,-4,-6,1,-9,-4
-3,0,4,2,-4,3,2,-4,-6,1,-9,-4
-4,0,4,2,-4,3,2,-4,-6,1,-9,-3
-4,0,4,2,-4,3,1,-4,-6,1,-9,-3
-4,0,4,2,-3,3,1,-5,-6,1,-9,-3
-4,0,3,2,-3,3,1,-5,-6,0,-9,-3
-4,0,3,2,-4,3,1,-5,-6,0,-8,-3
-4,0,3,2,-4,3,1,-5,-6,0,-8,-2
-3,0,3,2,-3,3,1,-5,-7,0,-8,-2
-3,0,3,2,-3,2,1,-5,-7,0,-9,-2
-3,0,3,2,-4,2,1,-5,-7,0,-9,-2
-4,0,4,3,-4,3,1,-5,-7,0,-9,-2
-4,0,4,2,-4,3,1,-5,-8,0,-9,-3
-4,0,4,2,-4,3,1,-6,-8,-1,-10,-3
-3,0,4,2,-3,3,1,-6,-9,-1,-10,-3
-3,0,4,2,-3,3,1,-7,-9,-1,-10,-3
-3,0,4,2,-3,3,1,-7,-9,-1,-10,-3
-3,0,4,2,-3,3,1,-7,-9,-2,-10,-3
-3,0,4,2,-3,3,0,-7,-9,-2,-10,-3
-3,0,4,2,-3,3,0,-7,-9,-2,-11,-3
-3,0,4,2,-3,3,0,-7,-9,-2,-11,-3
-3,0,3,2,-3,3,0,-7,-9,-2,-11,-3
-3,0,3,2,-3,3,0,-7,-9,-2,-11,-4
-3,0,3,2,-3,3,0,-7,-9,-2,-11,-4
-3,0,4,2,-3,3,0,-8,-9,-2,-11,-4
-3,0,4,2,-3,2,-1,-8,-10,-2,-11,-4
-3,0,3,2,-3,2,-2,-8,-10,-2,-11,-4
-3,0,3,2,-3,2,-2,-8,-10,-2,-11,-4
-3,0,3,2,-3,2,-1,-8,-10,-2,-11,-4
-3,0,3,2,-3,2,-1,-8,-10,-2,-10,-4
-4,0,4,2,-3,2,0,-8,-10,-2,-10,-4
-4,0,4,2,-3,2,0,-8,-10,-2,-10,-4
-4,0,4,2,-3,2,-1,-8,-10,-2,-10,-4
-3,0,4,2,-3,3,-1,-9,-10,-2,-10,-4
-3,0,4,2,-3,3,-1,-9,-10,-2,-10,-4
-3,0,4,2,-3,3,-1,-9,-10,-2,-10,-4
-3,0,3,2,-3,3,-1,-9,-10,-2,-10,-4
-3,0,3,2,-3,3,-1,-9,-10,-2,-10,-4
-3,0,3,2,-4,3,-1,-9,-10,-2,-10,-4
-3,0,3,1,-4,3,-1,-9,-10,-2,-10,-4
-3,0,4,1,-4,3,-1,-9,-10,-2,-10,-4
-4,0,4,2,-4,3,0,-9,-10,-3,-10,-4
-4,-1,4,2,-4,3,0,-9,-10,-3,-10,-4
-4,-1,4,2,-4,2,0,-9,-10,-3,-10,-4
-4,-1,3,2,-4,2,-1,-9,-10,-3,-10,-4
-4,-1,3,2,-4,2,-1,-9,-10,-3,-10,-4
-4,-1,3,2,-4,2,-1,-9,-10,-3,-10,-3
-4,-1,3,2,-4,2,-1,-9,-10,-4,-10,-3
-4,-1,3,2,-4,2,-1,-9,-11,-4,-10,-3
-4,-1,3,2,-4,2,-1,-9,-11,-4,-10,-2
-4,-1,4,2,-3,2,-1,-9,-11,-4,-10,-2
-4,-1,4,2,-3,2,-1,-9,-10,-4,-10,-2
-4,-1,4,2,-3,2,-1,-9,-10,-4,-10,-2
-4,-1,4,2,-3,2,-1,-9,-10,-4,-10,-2
-4,-1,4,2,-3,2,0,-9,-10,-4,-10,-2
-4,-1,4,2,-3,2,0,-9,-10,-4,-10,-2
-4,-1,4,2,-3,2,0,-9,-11,-4,-10,-2
-4,-1,4,2,-3,2,0,-9,-11,-4,-10,-2
-4,-1,4,2,-3,2,0,-9,-11,-4,-10,-2
-4,-1,4,2,-3,2,0,-10,-11,-4,-10,-2
-4,-1,4,2,-3,2,1,-10,-11,-4,-10,-2
-4,-1,3,1,-3,2,2,-10,-11,-4,-10,-2
-4,-1,3,1,-3,2,3,-10,-11,-4,-10,-2
-4,-1,3,1,-3,2,3,-10,-11,-4,-10,-1
-4,-1,3,1,-3,2,4,-10,-11,-4,-10,-1
-4,-1,3,1,-3,2,5,-10,-11,-4,-10,-1
-4,-1,3,1,-3,2,8,-10,-11,-4,-10,-1
-4,-1,4,2,-3,2,11,-10,-11,-4,-10,-1
-4,-1,3,2,-3,2,14,-10,-10,-4,-10,-1
-4,-1,3,2,-3,2,16,-10,-10,-4,-9,-1
-4,-1,3,2,-3,2,17,-10,-10,-4,-9,-1
-5,-1,3,2,-3,2,18,-10,-10,-4,-9,0
-5,-1,4,2,-4,2,19,-10,-10,-4,-9,0
-5,-1,4,2,-4,2,20,-10,-10,-4,-9,0
-4,-1,3,2,-4,2,21,-10,-10,-4,-9,0
-4,-1,3,1,-3,2,22,-10,-10,-4,-9,0
-4,-1,3,1,-3,2,22,-10,-10,-4,-9,0
-4,-1,3,1,-3,2,23,-10,-10,-4,-9,0
-4,-1,3,1,-3,2,23,-10,-10,-4,-9,0
-5,-1,3,1,-4,2,23,-9,-10,-4,-9,0
-5,-1,4,2,-4,2,23,-9,-10,-4,-8,0
-5,-1,4,2,-5,2,23,-9,-10,-4,-8,0
-5,-1,4,2,-5,2,23,-9,-9,-4,-7,0
-5,-1,4,2,-5,2,23,-9,-9,-3,-7,0
-5,-1,4,2,-5,2,23,-9,-9,-3,-7,0
-5,-1,4,2,-5,3,24,-9,-8,-3,-7,0
-5,-1,4,2,-5,3,24,-9,-8,-3,-7,0
-5,-1,4,1,-5,3,24,-9,-7,-2,-7,0
-5,0,4,1,-5,4,24,-8,-7,-2,-6,1
-4,1,5,0,-5,4,25,-8,-6,-1,-6,1
-4,2,5,0,-5,5,25,-7,-6,0,-5,2
-4,2,6,0,-5,5,27,-6,-5,0,-5,2
-4,2,7,0,-5,6,28,-6,-5,1,-5,2
-4,2,7,0,-5,6,28,-6,-5,1,-5,2
-4,3,7,0,-5,6,28,-6,-5,1,-5,2
-4,3,8,-1,-6,7,28,-5,-4,1,-4,2
-5,4,9,-1,-7,7,28,-5,-4,1,-4,3
-5,4,10,-1,-7,8,28,-5,-3,2,-4,3
-5,5,10,-1,-7,9,28,-5,-3,2,-4,3
-5,5,10,-1,-8,9,29,-5,-3,2,-4,3
-5,5,10,-1,-8,9,29,-5,-3,2,-4,3
-5,6,11,-1,-8,10,29,-6,-3,2,-4,3
-6,6,11,-1,-8,10,29,-6,-3,2,-4,3
-6,7,12,-1,-9,11,29,-7,-3,1,-4,3
-5,7,12,-1,-9,11,29,-8,-3,1,-4,3
-5,7,12,-1,-9,11,29,-8,-3,1,-4,3
-5,7,12,-1,-9,11,28,-8,-3,1,-3,3
-5,7,12,-2,-8,11,28,-8,-3,1,-3,3
-4,7,11,-2,-8,10,27,-8,-3,1,-3,3
-4,7,11,-2,-7,10,26,-9,-4,1,-3,4
-4,7,11,-2,-7,10,25,-9,-4,1,-3,4
-4,7,11,-2,-8,10,24,-10,-5,1,-3,4
-4,7,11,-2,-8,10,24,-11,-6,0,-4,4
-4,7,11,-2,-8,10,24,-12,-6,0,-4,4
-4,7,11,-2,-8,10,24,-12,-6,0,-4,4
-4,8,11,-3,-8,11,23,-12,-6,0,-4,5
-3,8,11,-3,-7,11,23,-12,-6,0,-3,5
-2,8,10,-4,-6,11,22,-12,-6,0,-3,6
-1,7,9,-4,-5,10,22,-12,-6,0,-3,6
-1,6,8,-4,-5,9,22,-12,-7,0,-3,6
-1,5,7,-3,-4,8,22,-12,-7,0,-3,6
-1,4,6,-3,-4,7,21,-12,-8,-1,-3,5
-1,3,5,-2,-3,6,21,-12,-8,-1,-3,5
-2,3,5,-2,-3,5,21,-12,-9,-2,-4,4
-3,2,5,-1,-4,5,21,-12,-9,-2,-4,4
-4,2,6,0,-4,5,21,-12,-10,-3,-5,3
-5,1,6,1,-5,5,21,-12,-9,-3,-5,3
-5,1,7,1,-5,5,22,-12,-9,-2,-5,3
-6,1,7,1,-6,5,23,-11,-8,-2,-4,3
-6,1,7,1,-6,5,24,-11,-8,-2,-4,3
-6,1,7,2,-6,5,24,-11,-8,-2,-4,3
-7,0,7,2,-7,5,24,-11,-8,-2,-5,3
-7,-1,7,3,-7,4,24,-11,-9,-3,-5,3
-8,-1,7,3,-7,4,24,-11,-9,-3,-6,3
-8,-2,6,4,-7,4,24,-11,-9,-3,-6,3
-8,-2,6,4,-7,3,24,-11,-9,-3,-6,3
-8,-2,5,4,-7,3,24,-11,-9,-4,-6,2
-8,-2,5,4,-7,2,24,-11,-10,-4,-6,2
-9,-2,5,4,-7,2,24,-10,-10,-4,-6,1
-9,-3,5,4,-7,2,23,-9,-10,-5,-6,1
-9,-3,5,4,-7,2,23,-9,-10,-5,-6,1
-10,-3,5,5,-7,2,23,-9,-10,-5,-6,1
-10,-3,5,5,-7,2,23,-9,-10,-5,-6,0
-9,-3,5,5,-7,2,23,-9,-10,-5,-6,0
-9,-3,5,5,-6,2,22,-9,-11,-5,-7,0
-9,-3,5,5,-7,2,23,-9,-11,-5,-7,0
-9,-4,5,5,-7,2,23,-8,-11,-5,-7,0
-10,-4,5,5,-7,2,24,-8,-10,-5,-7,0
-10,-4,5,5,-8,2,25,-8,-10,-5,-6,0
-10,-4,6,5,-8,2,25,-8,-10,-5,-6,0
-10,-4,6,5,-8,2,26,-8,-10,-4,-6,0
-10,-4,6,5,-8,2,26,-7,-10,-4,-5,0
-10,-4,6,5,-8,2,26,-7,-10,-4,-5,0
-10,-4,6,5,-8,2,26,-7,-10,-4,-5,0
-10,-3,6,5,-8,2,26,-6,-10,-4,-4,0
-10,-3,6,5,-8,2,26,-6,-10,-4,-4,0
-10,-3,6,5,-8,2,26,-5,-9,-3,-4,0
-10,-3,6,5,-9,3,26,-5,-9,-3,-4,1
-11,-3,8,6,-10,4,27,-4,-7,-2,-3,1
-12,-2,10,6,-11,5,28,-2,-5,0,-2,1
-13,0,13,6,-13,7,29,0,-2,2,0,1
-14,1,16,5,-15,10,31,4,2,6,2,2
-14,3,18,4,-16,11,34,11,9,12,6,4
-13,5,18,3,-16,12,37,21,18,19,12,7
-11,6,17,1,-14,13,38,30,26,26,18,11
-7,7,14,-1,-11,12,38,34,33,33,26,16
-2,9,11,-4,-7,12,35,32,39,40,35,23
3,11,8,-8,-2,11,30,26,43,48,45,31
10,13,3,-13,4,9,24,16,45,55,55,40
19,16,-3,-18,11,7,16,3,45,60,65,49
28,18,-10,-24,19,5,6,-10,44,65,74,59
36,21,-15,-29,26,4,-4,-24,42,68,82,69
43,25,-19,-34,31,4,-14,-40,36,68,85,77
47,28,-21,-38,34,4,-23,-58,27,63,84,81
50,28,-23,-40,36,3,-29,-73,15,53,75,79
51,22,-29,-37,40,-2,-33,-84,3,38,57,69
49,13,-36,-32,42,-10,-34,-91,-9,21,36,55
46,4,-41,-26,43,-17,-34,-100,-25,2,16,41
41,-2,-43,-20,42,-21,-36,-112,-45,-17,-2,29
34,-8,-43,-13,38,-24,-38,-127,-70,-37,-20,17
25,-13,-39,-6,32,-25,-39,-143,-98,-59,-37,5
15,-18,-35,1,25,-26,-39,-156,-125,-79,-52,-6
6,-23,-31,7,19,-26,-38,-163,-144,-95,-65,-15
0,-27,-29,12,15,-27,-36,-161,-151,-104,-73,-23
-4,-30,-27,16,11,-28,-34,-154,-151,-107,-78,-28
-8,-32,-24,19,8,-27,-30,-144,-145,-106,-78,-32
-10,-32,-22,20,6,-26,-26,-133,-136,-101,-76,-33
-11,-31,-20,20,4,-24,-21,-119,-124,-93,-71,-32
-13,-29,-17,20,2,-22,-15,-105,-111,-84,-65,-30
-14,-28,-14,20,0,-20,-10,-91,-97,-74,-58,-28
-15,-26,-12,19,-1,-18,-5,-77,-84,-64,-52,-25
-14,-23,-10,17,-2,-16,-1,-63,-71,-54,-45,-22
-13,-20,-8,15,-2,-13,2,-49,-59,-45,-38,-18
-12,-17,-6,13,-3,-11,6,-37,-48,-38,-32,-16
-11,-15,-4,12,-3,-9,10,-28,-39,-31,-27,-14
-10,-13,-3,11,-3,-7,14,-20,-32,-25,-23,-12
-9,-12,-3,10,-3,-6,17,-13,-25,-19,-20,-10
-9,-11,-2,10,-3,-6,19,-8,-19,-14,-16,-9
-9,-10,-1,9,-3,-5,21,-4,-14,-10,-13,-7
-9,-9,0,8,-3,-4,22,-1,-10,-6,-10,-5
-9,-8,0,7,-3,-3,22,1,-8,-3,-8,-4
-9,-7,1,7,-4,-2,22,3,-5,-1,-6,-3
-9,-6,2,6,-4,-1,22,4,-3,0,-4,-2
-9,-5,3,6,-5,0,23,6,-2,1,-3,-1
-8,-4,3,5,-5,0,23,7,0,2,-3,-1
-8,-4,3,5,-5,0,24,7,1,3,-2,0
-8,-4,3,5,-5,0,24,8,2,4,-2,0
-8,-4,3,5,-6,0,24,9,3,5,-1,0
-8,-3,4,5,-6,1,24,9,4,6,0,1
-8,-3,4,4,-6,1,24,10,4,7,0,1
-7,-2,4,4,-6,2,24,10,5,7,1,2
-7,-2,4,4,-6,2,24,11,5,7,1,2
-7,-2,4,4,-6,2,24,11,6,8,2,2
-7,-2,4,4,-6,2,23,11,6,8,2,2
-7,-2,4,4,-6,2,23,12,7,9,3,3
-7,-2,4,3,-6,2,22,12,7,10,4,3
-7,-2,4,3,-6,2,22,13,7,11,4,4
-7,-1,4,2,-5,2,22,13,8,12,5,4
-6,-1,4,2,-5,2,22,13,8,12,5,4
-6,-1,4,2,-5,2,22,14,9,13,5,4
-7,-1,5,2,-5,2,22,14,9,13,5,5
-7,-1,5,2,-5,2,21,15,10,13,5,5
-7,-1,5,2,-5,2,20,15,10,13,6,5
-7,-1,5,2,-5,3,20,15,10,13,6,5
-7,-1,5,2,-6,3,20,15,11,14,6,5
-7,-1,5,2,-6,3,21,15,11,14,6,5
-7,-1,5,2,-6,3,21,15,11,14,6,5
-6,-1,5,2,-5,3,22,16,11,14,6,5
-6,0,5,2,-5,3,22,16,12,14,7,6
-6,0,5,2,-5,3,23,17,12,14,7,6
-7,0,5,2,-6,3,23,17,13,15,7,6
-7,0,5,2,-6,3,23,18,13,15,7,6
-7,0,5,2,-6,3,22,18,13,15,7,6
-7,0,5,2,-5,3,22,18,13,15,7,6
-7,0,5,2,-5,3,22,18,13,15,8,6
-7,0,5,2,-5,3,21,19,14,15,8,6
-6,0,6,2,-5,4,21,20,14,16,8,7
-6,0,6,2,-5,4,21,21,15,16,8,7
-6,0,6,2,-5,4,20,21,15,16,8,7
-5,0,5,1,-5,4,20,21,15,16,8,7
-4,1,5,0,-4,4,20,22,16,17,8,7
-4,1,5,0,-4,4,20,22,16,17,8,7
-4,1,5,0,-4,4,20,22,16,18,8,7
-4,1,5,0,-4,4,20,22,17,18,8,7
-4,1,4,0,-4,4,20,23,17,17,8,7
-3,1,4,0,-4,4,20,23,17,17,9,7
-3,1,4,0,-4,4,20,24,17,18,9,8
-3,1,4,0,-4,4,20,24,18,18,9,8
-3,1,4,0,-4,4,20,25,18,18,9,8
-3,2,4,-1,-4,4,21,25,19,19,10,8
-3,2,4,-1,-3,4,21,26,20,19,10,9
-3,2,4,-1,-3,4,21,26,20,19,10,9
-2,2,4,-1,-3,4,20,27,21,20,11,9
-2,3,4,-1,-3,4,20,28,21,20,11,10
-1,3,4,-1,-2,4,20,28,22,21,12,10
-1,3,4,-1,-2,4,20,29,22,21,13,11
-1,3,4,-2,-2,4,20,30,23,22,13,11
-1,3,4,-2,-2,4,20,31,23,22,14,11
-1,3,4,-2,-2,4,20,31,24,23,14,12
-1,3,4,-2,-2,4,20,32,25,23,15,12
0,4,4,-3,-2,5,20,32,25,24,15,12
0,5,4,-3,-1,5,19,33,26,24,16,12
1,5,3,-4,-1,5,19,34,26,25,16,12
2,6,3,-4,0,5,18,35,27,25,16,13
2,6,3,-5,0,5,18,36,27,25,17,13
2,6,3,-5,0,5,18,37,28,26,17,14
3,7,3,-6,0,5,18,38,28,26,18,14
3,7,3,-6,0,5,18,39,29,26,18,14
4,7,3,-6,0,6,18,40,30,27,19,15
4,8,3,-7,1,6,18,41,31,27,19,16
5,8,3,-7,1,6,17,42,31,28,20,16
5,8,3,-8,1,6,17,43,32,28,21,17
6,9,3,-8,2,6,17,45,33,29,22,17
6,9,2,-9,2,6,16,46,33,29,22,18
6,9,2,-9,3,6,16,47,34,30,23,18
7,9,2,-10,3,6,16,48,34,31,24,19
8,10,2,-11,4,7,16,49,35,32,25,20
9,11,2,-12,4,7,16,50,36,33,26,21
10,12,2,-12,4,8,16,52,37,34,27,22
11,13,1,-13,5,8,16,53,38,35,28,23
12,14,1,-14,6,8,15,54,39,35,29,23
13,14,1,-14,7,8,14,56,40,36,30,23
14,15,1,-15,7,8,13,57,41,37,31,23
15,15,0,-16,8,8,12,58,42,37,32,24
15,16,0,-17,8,8,12,59,43,38,33,25
16,16,0,-17,8,9,12,59,44,39,34,26
17,17,0,-18,9,9,12,60,45,40,35,27
18,18,0,-18,9,9,12,61,46,41,36,29
18,18,0,-19,10,9,12,62,47,42,37,30
19,18,0,-19,10,9,11,62,48,43,38,31
19,19,-1,-20,10,9,11,63,49,44,39,32
20,19,-1,-21,11,9,10,64,50,44,40,33
21,19,-2,-22,12,9,9,64,51,44,40,33
22,20,-3,-22,13,9,8,65,51,45,41,34
23,20,-3,-23,13,9,7,65,52,45,41,34
23,21,-3,-23,14,9,7,65,52,45,42,35
23,21,-3,-23,14,9,7,65,52,45,42,35
24,21,-3,-24,14,9,7,65,52,45,43,35
24,21,-3,-24,14,9,6,65,52,45,43,36
24,21,-3,-24,14,9,6,65,52,45,43,36
24,22,-3,-25,14,10,6,64,52,45,43,36
25,22,-3,-25,14,10,5,64,51,45,43,37
25,23,-3,-25,14,10,5,63,50,45,43,37
25,23,-3,-25,14,10,5,62,49,45,43,37
25,23,-3,-25,14,10,5,61,48,45,43,37
25,23,-3,-25,14,10,4,59,47,44,43,37
24,23,-2,-25,14,11,4,58,46,44,43,37
23,23,-2,-24,13,11,4,56,45,43,43,36
22,23,-1,-24,12,11,5,55,43,42,42,35
21,23,-1,-23,11,11,5,53,42,41,41,35
20,22,0,-22,11,11,6,51,40,40,41,34
19,21,0,-22,10,11,6,48,38,38,40,33
19,20,0,-21,10,10,7,46,36,36,38,32
17,19,0,-19,9,10,7,43,34,35,37,31
16,18,1,-18,8,10,8,41,31,33,35,29
14,17,1,-16,7,9,9,39,29,32,34,28
13,16,1,-15,6,9,10,36,27,30,32,26
12,15,1,-14,6,8,11,34,24,28,30,25
10,14,2,-13,5,8,11,32,22,26,29,23
9,13,2,-12,4,8,12,29,19,25,28,21
7,12,3,-11,3,8,12,26,17,23,26,20
6,11,4,-10,1,8,12,24,14,22,25,19
4,10,4,-9,0,8,13,21,12,20,23,18
3,9,5,-8,0,8,14,19,10,19,22,16
2,8,5,-7,0,7,14,17,8,17,20,15
1,7,5,-6,-1,7,15,15,6,16,19,13
0,7,5,-5,-1,6,16,13,4,14,18,12
0,6,6,-4,-2,6,16,11,3,13,17,11
-1,6,6,-3,-2,6,16,10,1,12,16,10
-1,5,5,-3,-2,5,17,8,-1,11,15,9
-2,4,5,-2,-3,5,17,6,-2,10,15,8
-3,3,5,-1,-3,5,18,5,-4,9,14,8
-4,2,5,0,-4,5,18,4,-5,8,13,7
-4,2,6,0,-5,5,19,3,-6,7,12,7
-5,2,6,0,-5,5,19,2,-7,6,12,6
-5,2,6,1,-5,5,19,1,-7,6,12,6
-6,1,7,1,-5,5,19,0,-8,5,12,6
-6,1,7,2,-5,5,19,0,-8,5,12,5
-6,1,6,2,-5,4,19,-1,-8,4,11,5
-6,0,6,2,-5,4,20,-1,-8,4,10,4
-7,0,5,2,-5,3,20,-1,-8,3,10,4
-7,-1,5,2,-5,3,20,-1,-8,2,9,3
-7,-1,5,3,-5,2,20,-1,-8,1,8,3
-7,-1,4,3,-5,2,20,-1,-8,1,8,3
-7,-1,4,3,-5,2,20,-1,-9,1,8,2
-7,-1,4,3,-5,2,20,-2,-9,1,8,2
-7,-1,4,3,-5,2,20,-2,-10,0,8,2
-7,-1,4,3,-5,2,20,-3,-11,0,8,2
-8,-1,4,3,-6,2,20,-3,-11,0,8,1
-8,-1,5,3,-6,2,21,-3,-11,0,7,1
-8,-1,5,3,-6,2,21,-3,-11,0,7,0
-8,-1,5,3,-6,2,21,-3,-10,0,7,0
-8,-1,4,3,-5,2,21,-3,-10,-1,6,0
-8,-1,4,3,-5,2,22,-3,-10,-1,6,0
-8,-1,5,3,-5,2,22,-3,-10,-1,6,0
-8,-1,5,3,-5,2,22,-3,-10,-1,6,0
-8,-2,4,3,-5,1,22,-3,-10,-1,6,0
-7,-2,4,3,-5,1,22,-4,-10,-1,6,0
-7,-2,4,2,-4,1,22,-4,-10,-2,6,0
-7,-2,4,2,-4,1,22,-4,-10,-2,6,0
-7,-2,4,3,-4,1,22,-4,-11,-2,7,0
-7,-2,4,3,-4,1,22,-4,-11,-2,7,0
-7,-2,4,3,-4,1,21,-4,-11,-2,7,-1
-7,-2,4,3,-4,1,21,-4,-11,-2,7,-1
-7,-2,4,3,-5,1,21,-4,-11,-2,7,-1
-8,-2,4,4,-5,1,21,-4,-11,-2,7,0
-8,-3,4,4,-5,0,22,-4,-12,-2,7,0
-8,-3,4,4,-5,0,22,-5,-12,-2,7,0
-8,-3,4,4,-5,0,22,-5,-12,-2,7,-1
-8,-3,4,4,-5,0,22,-5,-11,-2,7,-1
-8,-3,3,4,-4,0,22,-4,-11,-2,7,-1
-7,-3,3,4,-4,0,22,-4,-11,-2,7,-1
-7,-3,3,4,-4,0,22,-4,-11,-2,6,-1
-7,-3,3,4,-4,0,22,-4,-11,-2,6,-2
-7,-3,3,4,-4,0,21,-3,-11,-2,6,-2
-7,-3,3,4,-4,0,21,-3,-11,-2,6,-2
-7,-3,3,4,-4,0,22,-3,-12,-1,6,-2
-7,-3,3,4,-4,0,22,-3,-12,-1,6,-2
-8,-3,3,4,-4,0,22,-3,-13,-1,6,-2
-8,-3,3,4,-4,0,22,-3,-13,-1,6,-2
-7,-2,3,4,-4,0,23,-3,-13,-1,6,-2
-7,-2,3,4,-4,0,23,-3,-13,-1,6,-2
-7,-3,3,4,-5,0,23,-3,-13,-1,6,-2
-8,-3,3,5,-5,0,23,-3,-13,-1,6,-2
-8,-3,3,5,-5,0,23,-3,-13,0,6,-2
-9,-3,3,6,-5,0,23,-2,-13,0,6,-1
-9,-3,3,6,-5,0,23,-2,-13,0,7,-1
-8,-3,3,5,-5,0,22,-3,-13,0,7,-1
-8,-3,4,5,-5,0,22,-3,-13,0,7,-1
-8,-2,4,5,-5,0,22,-3,-13,0,7,-2
-8,-2,4,5,-5,0,23,-2,-13,0,7,-2
-9,-2,5,5,-6,0,23,-2,-13,0,6,-2
-9,-2,5,5,-6,0,23,-2,-13,0,6,-3
-9,-2,5,5,-6,0,23,-2,-12,0,5,-3
-9,-2,5,5,-6,0,23,-2,-12,0,5,-3
-9,-2,5,5,-6,0,23,-2,-12,0,5,-3
-9,-3,5,6,-6,0,23,-1,-12,0,5,-3
-9,-3,4,6,-6,0,23,-1,-12,0,5,-3
-8,-4,4,5,-5,0,23,-1,-12,0,5,-2
-8,-4,3,5,-5,-1,23,-1,-12,0,5,-2
-8,-4,3,5,-4,-1,23,-1,-12,0,6,-2
-8,-4,3,5,-4,-1,23,-1,-12,0,6,-2
-8,-4,3,5,-4,-1,23,-1,-12,0,6,-2
-8,-4,3,5,-4,-1,23,-1,-12,0,6,-2
-8,-4,3,5,-5,-1,23,-1,-12,0,6,-2
-8,-4,4,5,-5,0,23,-1,-12,0,6,-3
-8,-4,4,5,-5,0,22,-1,-12,0,7,-3
-8,-4,4,5,-5,0,22,-1,-12,0,7,-3
-8,-4,4,5,-6,0,22,-1,-12,0,8,-2
-8,-4,4,5,-6,0,22,-1,-12,0,8,-2
-8,-4,4,5,-6,-1,22,-1,-12,0,8,-1
-8,-4,3,5,-5,-1,22,-1,-12,0,8,-1
-8,-4,3,5,-5,-1,22,-2,-12,0,8,-1
-8,-4,3,5,-5,-1,22,-2,-12,0,8,-1
-8,-4,3,6,-5,-1,21,-2,-13,0,7,-1
-8,-4,3,6,-5,-1,20,-2,-13,0,7,-1
-8,-4,3,6,-4,-1,20,-2,-13,0,7,-1
-8,-4,3,6,-4,-1,19,-2,-13,0,7,-1
-8,-4,3,6,-4,-1,19,-2,-13,-1,7,-1
-8,-4,3,5,-4,-1,19,-2,-13,-1,7,-2
-8,-4,3,5,-4,-1,19,-3,-13,-2,6,-2
-8,-4,3,5,-5,0,19,-3,-13,-2,6,-3
-8,-4,3,5,-5,0,18,-3,-13,-2,6,-3
-8,-4,3,5,-5,0,18,-3,-13,-2,6,-3
-9,-4,4,6,-5,0,18,-3,-13,-2,6,-3
-9,-4,4,6,-5,0,18,-3,-13,-2,6,-3
-9,-4,4,6,-5,0,17,-4,-13,-2,6,-2
-9,-4,4,6,-5,0,17,-4,-13,-2,6,-2
-8,-4,4,6,-5,-1,17,-4,-13,-2,6,-2
-8,-4,3,6,-5,-1,17,-4,-13,-2,6,-2
-8,-4,3,6,-5,-1,17,-4,-13,-2,6,-2
-8,-5,3,6,-5,-1,17,-4,-13,-3,6,-2
-8,-5,3,7,-5,-1,17,-5,-13,-3,6,-2
-9,-5,3,7,-5,-1,17,-5,-13,-3,6,-2
-9,-5,3,7,-5,-1,16,-5,-13,-3,5,-2
-9,-5,3,7,-5,-1,16,-6,-13,-4,5,-2
-9,-5,3,7,-5,-1,16,-6,-14,-4,4,-2
-9,-5,3,7,-5,-1,16,-6,-14,-4,4,-2
-9,-5,3,7,-5,-1,16,-6,-13,-3,4,-2
-8,-5,3,6,-4,-1,16,-6,-13,-3,4,-2
-8,-5,2,6,-4,-1,15,-6,-13,-3,4,-2
-9,-5,2,7,-4,-1,15,-6,-13,-3,4,-1
-9,-5,2,7,-4,-1,15,-5,-13,-3,5,-1
-9,-6,2,7,-4,-2,15,-5,-12,-3,5,0
-9,-6,2,7,-4,-2,15,-6,-13,-4,5,0
-9,-6,2,7,-4,-2,14,-6,-14,-4,5,0
-9,-6,2,7,-4,-2,13,-6,-14,-5,5,0
-8,-6,2,7,-4,-1,12,-6,-14,-4,5,0
-8,-5,2,7,-4,-1,11,-6,-13,-4,5,0
-8,-5,2,7,-4,-1,11,-6,-13,-4,4,0
-9,-5,2,7,-4,-1,10,-6,-13,-4,4,0
-8,-5,2,7,-4,-1,10,-6,-13,-5,3,-1
-8,-4,3,6,-4,-1,10,-6,-13,-5,3,-1
-9,-5,3,6,-5,-1,10,-6,-13,-5,3,-1
-9,-5,3,7,-5,-1,9,-6,-14,-5,3,-2
-9,-6,3,7,-5,-1,8,-6,-14,-5,2,-2
-9,-6,2,7,-4,-2,8,-6,-14,-6,2,-3
-8,-6,2,7,-4,-2,10,-6,-14,-6,2,-3
-8,-6,2,7,-4,-2,12,-6,-14,-6,2,-3
-9,-6,2,7,-4,-2,13,-6,-14,-6,2,-2
-9,-6,2,7,-4,-2,14,-6,-14,-6,2,-2
-9,-6,2,7,-4,-2,14,-6,-13,-6,2,-1
-9,-6,1,7,-4,-2,15,-6,-13,-6,2,-1
-9,-6,1,7,-4,-2,15,-6,-13,-6,2,-1
-9,-6,1,7,-4,-2,15,-6,-14,-6,2,-1
-9,-6,1,7,-4,-2,15,-6,-14,-6,2,0
-9,-6,2,7,-4,-2,15,-6,-14,-5,3,0
-9,-6,2,7,-4,-2,14,-6,-14,-5,3,0
-9,-6,2,7,-4,-2,13,-6,-14,-5,3,0
-9,-6,2,8,-4,-2,12,-6,-14,-5,3,0
-9,-6,2,7,-5,-2,12,-6,-14,-5,3,0
-9,-5,2,7,-5,-1,12,-6,-14,-5,3,0
-9,-5,2,7,-5,-1,12,-6,-14,-5,2,0
-9,-6,2,7,-5,-1,12,-6,-14,-6,2,0
-9,-6,2,7,-5,-1,12,-6,-14,-6,1,0
-9,-6,2,7,-5,-1,12,-6,-14,-6,1,0
-9,-6,2,7,-5,-1,11,-6,-14,-7,1,0
-9,-6,2,7,-5,-1,11,-6,-14,-7,1,0
-9,-7,2,7,-5,-2,11,-6,-14,-7,1,0
-9,-7,2,8,-5,-2,10,-6,-14,-7,1,0
-9,-7,2,8,-5,-2,10,-6,-14,-7,1,0
-9,-7,2,8,-5,-2,9,-6,-14,-6,1,0
-9,-7,2,7,-5,-2,8,-6,-14,-6,1,0
-9,-7,2,7,-5,-1,8,-6,-14,-6,1,0
-9,-7,2,7,-5,-1,8,-6,-14,-6,1,0
-9,-6,2,7,-5,-1,8,-6,-14,-6,0,0
-9,-6,2,7,-5,-1,8,-6,-14,-7,0,0
-9,-5,3,7,-5,-1,7,-6,-14,-7,0,-1
-9,-5,3,7,-5,0,7,-5,-14,-7,0,-1
-9,-4,4,6,-5,0,7,-5,-13,-6,0,-2
-9,-3,4,6,-5,0,7,-4,-13,-6,0,-2
-9,-3,4,5,-5,1,8,-3,-12,-5,0,-2
-8,-2,4,5,-5,1,8,-2,-11,-4,1,-1
-8,-2,4,5,-5,2,8,-1,-11,-4,1,0
-7,-1,5,5,-5,2,8,0,-11,-4,2,0
-7,-1,5,4,-5,2,8,0,-11,-4,2,0
-7,-1,6,4,-6,3,9,0,-10,-4,2,1
-8,0,6,4,-6,3,9,0,-10,-4,2,2
-8,0,6,4,-6,4,9,0,-10,-4,2,3
-8,0,6,4,-7,4,8,0,-9,-3,2,3
-8,0,6,4,-7,4,8,0,-9,-3,2,4
-8,0,6,4,-7,4,8,1,-8,-3,2,4
-8,0,7,4,-7,4,8,1,-8,-3,3,4
-8,0,7,4,-7,4,7,1,-8,-2,3,4
-8,1,7,4,-7,4,6,1,-7,-2,4,4
-8,1,7,4,-6,4,5,0,-7,-1,4,4
-8,1,7,4,-6,4,4,0,-7,-2,4,4
-8,1,7,4,-6,4,3,0,-8,-2,4,4
-7,1,7,3,-6,4,2,0,-7,-2,4,4
-7,2,7,3,-6,4,1,0,-7,-2,4,4
-6,2,7,2,-6,4,1,0,-7,-2,4,4
-6,2,7,2,-6,4,0,-1,-8,-2,4,4
-7,2,8,2,-6,5,0,-1,-8,-3,4,3
-7,2,8,2,-7,5,-2,-2,-9,-3,4,3
-7,2,8,2,-7,5,-3,-3,-9,-4,3,2
-6,2,8,2,-6,6,-4,-3,-9,-4,3,2
-5,3,8,1,-6,6,-5,-3,-9,-4,2,2
-5,3,8,0,-5,6,-6,-3,-9,-4,2,3
-4,4,7,0,-5,6,-8,-3,-8,-4,2,4
-4,3,6,0,-4,5,-9,-3,-8,-4,2,4
-3,3,5,0,-3,4,-10,-3,-8,-5,2,4
-3,2,3,0,-2,3,-12,-3,-9,-5,1,3
-2,0,1,1,-1,1,-13,-3,-9,-6,1,2
-2,0,0,1,0,0,-13,-3,-10,-7,0,1
-3,-2,0,2,-1,0,-14,-4,-10,-8,0,0
-4,-3,0,3,-1,0,-14,-4,-10,-9,-1,0
-5,-3,0,4,-2,0,-14,-3,-10,-9,-1,0
-5,-3,1,4,-2,0,-14,-3,-10,-8,-1,0
-5,-3,2,4,-3,0,-14,-2,-9,-8,0,0
-5,-3,2,4,-3,0,-15,-2,-9,-7,0,0
-6,-3,2,4,-3,0,-15,-1,-8,-7,0,0
-6,-4,2,5,-3,0,-15,-1,-8,-7,0,0
-7,-5,2,5,-3,0,-15,-1,-8,-8,0,0
-7,-5,2,6,-4,0,-15,-1,-9,-8,-1,0
-8,-6,2,6,-4,0,-16,-1,-9,-8,-1,-1
-8,-6,2,7,-4,-1,-16,-2,-9,-8,-1,-1
-8,-7,1,7,-4,-2,-17,-2,-9,-9,-1,-2
-8,-7,0,8,-4,-2,-18,-2,-9,-9,-1,-2
-8,-8,0,8,-4,-3,-18,-2,-8,-8,-1,-2
-8,-8,0,8,-4,-3,-18,-2,-8,-8,-1,-2
-8,-8,0,8,-3,-3,-19,-2,-9,-9,-2,-3
-9,-8,0,9,-4,-3,-20,-2,-9,-9,-2,-3
-9,-8,0,9,-4,-3,-20,-2,-9,-10,-2,-3
-9,-8,-1,9,-4,-3,-21,-2,-9,-10,-2,-3
-9,-8,-1,9,-4,-4,-22,-2,-9,-11,-3,-4
-9,-8,-1,9,-4,-4,-23,-2,-9,-11,-3,-4
-9,-8,-1,9,-4,-4,-23,-2,-9,-11,-3,-4
-9,-8,-1,9,-4,-4,-22,-2,-9,-10,-3,-4
-9,-8,-1,9,-4,-4,-22,-1,-8,-10,-3,-4
-9,-9,-1,9,-4,-4,-22,-1,-8,-10,-3,-4
-9,-9,-1,9,-4,-4,-22,-1,-8,-10,-3,-5
-9,-9,-1,9,-4,-4,-23,-1,-8,-11,-3,-6
-9,-9,-1,9,-4,-4,-23,-1,-8,-11,-3,-6
-9,-9,-1,9,-4,-4,-23,-1,-8,-10,-3,-6
-9,-9,-1,9,-4,-4,-23,0,-8,-10,-3,-6
-9,-9,-1,9,-4,-4,-23,0,-8,-10,-3,-6
-8,-9,-1,9,-4,-4,-23,0,-8,-10,-2,-6
-8,-9,-1,9,-4,-4,-23,0,-7,-10,-2,-6
-8,-9,-1,9,-4,-4,-23,0,-6,-9,-1,-5
-9,-8,0,9,-4,-3,-23,2,-4,-8,-1,-5
-9,-7,2,8,-5,-2,-22,4,-1,-6,0,-5
-10,-5,4,8,-7,0,-20,7,1,-3,1,-4
-11,-4,6,7,-8,1,-18,11,5,0,3,-4
-11,-3,7,7,-9,3,-15,17,11,5,6,-2
-10,-2,7,6,-9,3,-13,26,19,11,11,0
-9,-1,6,5,-7,3,-12,35,27,18,17,3
-5,-1,3,3,-4,2,-13,40,35,24,24,7
0,0,0,0,0,1,-15,42,41,31,32,13
6,2,-4,-4,5,0,-20,37,46,38,42,21
13,4,-10,-9,12,-2,-27,28,47,44,51,30
22,6,-16,-14,19,-4,-35,15,46,49,60,40
30,8,-22,-19,26,-6,-45,2,44,53,69,51
38,11,-28,-25,32,-7,-55,-11,42,55,76,61
45,15,-31,-30,37,-7,-65,-26,36,54,80,68
49,19,-32,-34,40,-5,-73,-43,28,50,79,72
51,20,-33,-36,42,-5,-79,-57,17,41,70,70
52,15,-38,-34,45,-10,-81,-67,6,28,52,59
50,6,-44,-28,46,-18,-81,-75,-5,13,32,45
45,-1,-47,-22,46,-24,-81,-85,-20,-3,13,32
39,-8,-48,-15,43,-27,-81,-96,-39,-19,-3,20
31,-12,-45,-9,38,-27,-81,-110,-61,-36,-19,9
21,-15,-38,-3,30,-26,-81,-124,-86,-54,-33,-2
11,-18,-31,4,21,-24,-80,-137,-110,-71,-45,-12
2,-21,-26,10,14,-23,-78,-144,-126,-84,-56,-20
-4,-25,-22,14,9,-23,-76,-144,-134,-94,-64,-28
-9,-28,-20,18,5,-23,-74,-139,-135,-99,-70,-33
-12,-29,-18,21,3,-23,-72,-131,-132,-101,-73,-37
-14,-30,-17,22,1,-22,-69,-121,-125,-99,-72,-38
-16,-30,-15,23,0,-21,-65,-110,-116,-93,-68,-37
-17,-29,-13,23,-1,-20,-61,-98,-106,-86,-63,-37
-17,-28,-12,22,-2,-19,-57,-86,-95,-79,-58,-36
-17,-26,-11,22,-2,-18,-53,-75,-84,-71,-52,-35
-16,-25,-11,21,-2,-17,-49,-63,-72,-64,-47,-33
-14,-23,-11,19,-2,-16,-47,-51,-61,-56,-41,-31
-12,-22,-11,17,-1,-15,-44,-39,-51,-49,-37,-29
-10,-20,-11,15,0,-15,-42,-28,-42,-42,-32,-26
-9,-19,-11,14,0,-14,-39,-19,-34,-36,-28,-24
-9,-18,-11,14,1,-14,-36,-11,-26,-31,-24,-21
-8,-17,-10,13,1,-13,-34,-5,-19,-26,-19,-19
-8,-16,-10,12,1,-13,-32,0,-13,-21,-15,-16
-7,-15,-9,11,1,-12,-31,3,-9,-18,-13,-14
-7,-14,-8,10,1,-11,-31,6,-6,-16,-11,-13
-6,-13,-7,9,1,-9,-30,8,-4,-14,-9,-11
-5,-11,-6,8,0,-8,-30,9,-2,-12,-7,-10
-5,-10,-6,8,0,-7,-29,11,-1,-10,-5,-9
-5,-9,-5,7,0,-6,-29,12,1,-9,-4,-8
-5,-9,-5,7,0,-6,-28,13,2,-8,-3,-8
-4,-8,-4,7,0,-6,-28,13,3,-7,-2,-8
-4,-7,-4,6,0,-5,-28,14,4,-5,-1,-7
-4,-7,-4,6,0,-5,-29,15,5,-4,0,-6
-4,-7,-4,6,0,-4,-29,15,6,-3,0,-6
-4,-7,-3,6,0,-4,-29,16,7,-3,1,-5
-4,-7,-3,6,0,-4,-29,16,7,-3,1,-5
-4,-6,-4,6,0,-4,-29,16,8,-3,1,-5
-4,-6,-4,6,0,-4,-28,17,8,-3,1,-5
-4,-6,-4,6,0,-4,-28,17,9,-3,1,-5
-4,-7,-4,5,0,-5,-28,18,10,-2,1,-5
-4,-7,-4,5,0,-5,-28,18,10,-2,1,-5
-4,-7,-4,5,0,-5,-28,19,11,-1,2,-5
-3,-7,-4,5,1,-5,-27,19,11,-1,2,-5
-3,-7,-4,5,1,-5,-27,19,11,0,2,-5
-3,-6,-4,5,1,-5,-27,19,11,0,2,-5
-3,-6,-4,4,1,-4,-26,19,11,0,2,-5
-3,-6,-4,4,1,-4,-26,19,11,0,3,-5
-3,-5,-3,4,0,-3,-26,20,12,0,3,-5
-3,-5,-3,3,0,-3,-26,20,12,0,3,-5
-3,-4,-3,3,0,-2,-26,20,13,0,3,-5
-2,-3,-3,2,0,-2,-26,20,13,1,3,-5
-2,-3,-3,2,0,-2,-26,20,13,2,4,-5
-2,-3,-3,2,1,-2,-27,21,14,2,4,-4
-2,-3,-3,2,1,-2,-28,21,14,2,4,-3
-2,-3,-3,3,1,-2,-29,21,15,2,5,-3
-2,-3,-3,3,1,-2,-29,21,16,2,5,-2
-2,-3,-3,3,1,-2,-29,21,16,3,5,-2
-2,-4,-3,3,1,-2,-29,22,17,3,5,-2
-2,-4,-3,3,1,-3,-29,22,17,3,4,-2
-1,-4,-4,3,2,-4,-28,23,17,3,4,-2
-1,-5,-5,3,2,-4,-28,23,17,3,4,-3
-1,-5,-5,3,2,-4,-28,23,17,3,4,-3
-1,-5,-5,3,2,-4,-28,23,17,3,4,-3
-1,-5,-5,3,2,-4,-28,24,18,4,4,-3
-1,-4,-5,2,2,-4,-28,24,18,4,5,-4
0,-4,-5,2,2,-4,-28,24,18,4,5,-4
0,-3,-4,1,2,-3,-28,25,18,5,5,-4
0,-2,-4,1,2,-3,-29,25,19,5,5,-3
0,-2,-3,1,2,-2,-29,26,19,5,6,-3
0,-2,-3,1,2,-2,-29,26,20,5,6,-3
0,-2,-4,1,2,-2,-29,27,20,5,6,-3
1,-2,-4,0,3,-2,-29,28,20,5,5,-3
1,-2,-4,0,3,-2,-29,28,20,6,5,-2
0,-2,-4,1,2,-2,-29,29,21,6,5,-2
0,-2,-4,0,2,-2,-29,29,21,7,6,-1
1,-2,-4,0,2,-2,-29,30,21,7,6,0
1,-2,-5,0,3,-2,-29,30,22,8,7,0
2,-1,-5,0,4,-2,-29,31,23,9,7,0
2,-1,-5,0,4,-2,-29,32,24,10,8,1
2,-1,-5,0,4,-2,-29,33,25,10,8,1
3,-1,-6,0,5,-2,-29,34,25,10,8,0
3,-1,-6,-1,5,-2,-30,34,26,10,7,0
4,-1,-6,-1,5,-2,-30,35,26,10,7,0
4,0,-6,-2,5,-2,-30,35,27,10,7,0
4,0,-6,-2,6,-2,-30,36,27,11,8,0
4,0,-6,-2,6,-2,-30,37,28,11,8,1
5,0,-6,-3,6,-2,-31,38,28,11,8,1
6,1,-6,-3,7,-2,-31,39,29,11,8,2
7,1,-7,-4,7,-2,-31,39,29,12,9,2
7,2,-7,-4,8,-2,-31,40,30,12,10,3
7,2,-7,-4,7,-2,-31,40,30,13,11,4
8,2,-7,-5,7,-2,-31,41,31,14,11,4
8,2,-7,-6,8,-1,-31,42,32,14,12,5
9,3,-7,-6,8,-1,-32,44,34,15,13,5
10,4,-7,-7,9,-1,-32,45,35,16,13,6
10,4,-8,-7,10,-1,-33,45,36,16,13,6
11,4,-8,-7,10,-1,-33,46,37,16,13,7
11,5,-8,-7,11,-1,-33,47,38,17,14,8
12,5,-8,-8,11,-1,-33,48,39,17,15,9
13,6,-8,-9,11,-1,-33,48,39,18,15,10
14,6,-9,-10,12,-1,-33,49,40,19,16,10
15,6,-9,-11,12,-1,-33,50,42,19,16,10
16,7,-9,-11,13,-1,-33,51,43,20,17,11
16,7,-9,-12,13,-1,-33,53,45,21,18,11
16,8,-9,-12,13,0,-32,54,46,22,19,12
17,8,-10,-13,14,0,-32,55,47,23,20,13
18,9,-10,-14,15,0,-33,56,47,24,22,14
19,9,-10,-14,15,0,-34,57,48,25,23,15
19,10,-11,-15,16,0,-34,58,50,26,24,17
20,10,-11,-15,16,0,-35,59,51,27,25,18
21,11,-12,-16,17,0,-35,60,53,28,25,19
21,11,-12,-17,17,0,-36,61,54,28,25,19
22,12,-13,-17,18,0,-36,62,54,28,25,20
23,12,-13,-18,19,0,-36,62,55,28,25,20
24,13,-14,-18,20,0,-36,62,55,28,26,21
25,13,-14,-19,20,0,-37,63,55,29,26,23
26,13,-14,-19,20,0,-37,63,56,29,27,24
26,14,-14,-20,20,1,-38,63,57,30,28,26
27,14,-14,-20,21,1,-39,64,57,30,29,26
27,15,-15,-21,21,1,-40,64,58,31,29,27
28,15,-15,-21,22,1,-40,64,58,31,30,28
28,15,-15,-22,22,1,-40,64,58,32,31,28
28,15,-14,-22,22,1,-40,64,58,32,32,29
28,16,-14,-22,22,1,-40,64,58,32,32,29
29,16,-14,-23,22,1,-41,63,57,31,32,29
29,17,-14,-23,22,2,-41,61,57,31,32,29
29,17,-14,-23,21,2,-40,58,57,31,32,29
28,17,-13,-23,21,2,-39,55,56,31,31,28
28,17,-13,-22,21,2,-38,52,55,30,30,28
28,17,-13,-22,21,2,-36,50,54,29,29,27
28,16,-13,-22,21,2,-35,48,53,28,29,27
27,16,-13,-22,20,2,-33,46,52,28,28,26
26,15,-13,-21,20,2,-32,44,51,28,28,26
26,15,-13,-21,19,2,-31,41,49,27,27,26
25,14,-12,-20,19,2,-30,39,47,26,27,26
24,14,-12,-19,18,2,-28,36,45,25,26,25
22,13,-11,-18,17,2,-27,33,43,24,24,23
21,12,-10,-16,16,2,-26,31,41,23,23,21
19,12,-9,-15,15,2,-25,29,39,21,21,19
18,11,-8,-14,14,2,-24,26,36,20,19,18
16,10,-8,-13,13,2,-23,24,34,19,18,16
15,9,-7,-12,12,2,-22,21,32,17,16,14
14,8,-7,-11,11,1,-21,19,30,15,14,13
12,7,-6,-10,9,1,-20,16,28,13,12,11
11,7,-6,-9,8,1,-19,14,25,11,10,9
10,6,-5,-8,8,1,-18,12,23,10,8,8
8,6,-5,-7,7,1,-18,10,21,9,7,6
7,5,-4,-6,7,1,-17,8,19,8,5,4
6,4,-4,-5,6,0,-17,6,17,7,4,2
5,3,-4,-4,6,0,-17,5,16,6,3,1
5,3,-4,-3,5,0,-16,3,14,5,2,1
4,2,-4,-3,5,0,-15,1,13,3,1,0
3,2,-4,-2,4,0,-15,-1,11,2,0,0
2,1,-3,-2,3,0,-14,-2,9,0,-1,-1
1,0,-3,-1,3,0,-13,-3,7,0,-2,-1
0,0,-3,0,2,0,-13,-4,6,0,-3,-2
0,-1,-3,0,2,-1,-12,-5,5,-1,-3,-2
-1,-2,-3,1,1,-1,-12,-6,4,-2,-4,-2
-1,-2,-2,2,1,-1,-12,-7,3,-3,-5,-3
-2,-2,-2,2,1,-1,-12,-7,3,-4,-5,-4
-2,-2,-2,2,1,-1,-12,-8,2,-4,-6,-5
-2,-2,-3,2,1,-2,-12,-9,1,-5,-6,-5
-2,-2,-3,2,1,-2,-12,-10,1,-5,-6,-5
-2,-2,-3,2,1,-2,-12,-10,0,-6,-6,-5
-2,-2,-3,2,1,-2,-12,-11,0,-6,-7,-6
-2,-3,-4,2,1,-3,-12,-11,0,-6,-7,-6
-2,-3,-4,2,1,-3,-12,-11,0,-6,-8,-6
-2,-4,-3,2,1,-3,-12,-11,0,-6,-8,-6
-3,-4,-3,3,0,-3,-12,-11,-1,-7,-8,-7
-3,-4,-3,3,0,-3,-11,-11,-1,-7,-8,-7
-3,-4,-3,3,0,-3,-11,-12,-2,-8,-8,-8
-3,-4,-3,3,0,-3,-11,-12,-2,-8,-8,-8
-3,-4,-3,3,0,-3,-11,-12,-2,-8,-8,-9
-3,-4,-3,3,0,-3,-10,-12,-2,-8,-9,-9
-3,-4,-3,4,0,-3,-10,-12,-2,-8,-9,-9
-3,-4,-2,4,0,-3,-11,-12,-2,-8,-9,-9
-3,-4,-2,4,0,-3,-12,-13,-2,-8,-9,-9
-3,-4,-2,4,0,-3,-12,-13,-2,-9,-9,-9
-3,-4,-2,4,0,-3,-12,-13,-2,-9,-9,-9
-3,-4,-2,4,0,-3,-12,-13,-2,-9,-8,-9
-3,-4,-2,4,0,-3,-12,-13,-3,-9,-8,-9
-3,-3,-2,4,0,-2,-12,-13,-3,-9,-9,-9
-3,-3,-2,4,0,-2,-11,-13,-3,-9,-9,-9
-3,-3,-2,4,-1,-2,-10,-13,-3,-9,-9,-9
-3,-3,-2,4,-1,-2,-9,-13,-3,-9,-9,-9
-3,-3,-2,3,0,-2,-8,-13,-3,-9,-9,-9
-3,-4,-2,4,0,-3,-8,-13,-3,-9,-9,-10
-3,-4,-2,4,0,-3,-7,-13,-3,-9,-9,-10
-3,-5,-2,4,0,-3,-7,-13,-3,-9,-9,-10
-4,-5,-2,4,-1,-3,-7,-12,-2,-9,-9,-10
-4,-5,-2,4,-1,-3,-7,-12,-2,-9,-9,-10
-4,-5,-3,4,0,-4,-7,-12,-2,-9,-9,-10
-4,-5,-3,4,0,-4,-7,-12,-2,-9,-9,-9
-4,-5,-2,4,0,-4,-7,-12,-2,-9,-9,-9
-4,-5,-2,4,0,-4,-7,-12,-2,-9,-9,-9
-4,-5,-2,4,0,-4,-7,-12,-2,-9,-8,-9
-4,-5,-2,4,0,-3,-7,-11,-2,-9,-8,-9
-4,-5,-2,4,0,-3,-7,-11,-2,-8,-8,-9
-3,-5,-2,4,0,-3,-7,-11,-2,-8,-8,-9
-3,-5,-3,4,0,-4,-7,-11,-2,-8,-8,-9
-3,-5,-3,4,0,-4,-7,-11,-2,-8,-8,-9
-3,-5,-3,4,0,-4,-7,-11,-2,-8,-8,-9
-3,-5,-3,4,0,-4,-7,-11,-2,-8,-8,-9
-3,-5,-3,4,0,-3,-7,-11,-2,-8,-9,-10
-3,-5,-3,4,0,-3,-7,-10,-2,-8,-9,-10
-3,-5,-3,4,0,-3,-7,-10,-2,-8,-8,-10
-3,-5,-3,4,0,-3,-7,-10,-2,-8,-8,-10
-3,-5,-3,4,0,-3,-7,-10,-2,-8,-8,-10
-3,-4,-3,4,0,-3,-7,-10,-2,-8,-7,-9
-3,-4,-2,4,0,-3,-7,-10,-2,-7,-7,-9
-3,-4,-2,4,0,-3,-7,-10,-2,-7,-7,-9
-3,-4,-2,4,0,-3,-7,-10,-2,-8,-8,-9
-3,-4,-3,4,0,-3,-7,-10,-2,-8,-8,-9
-3,-5,-3,4,0,-3,-8,-10,-2,-8,-8,-9
-3,-5,-3,4,0,-3,-8,-10,-2,-8,-8,-9
-3,-5,-3,4,0,-3,-8,-10,-2,-8,-8,-8
-3,-5,-3,4,0,-3,-8,-10,-2,-8,-8,-8
-3,-5,-3,4,0,-3,-8,-10,-2,-8,-8,-8
-2,-5,-4,4,0,-3,-8,-10,-2,-8,-7,-9
-2,-5,-3,4,0,-3,-8,-11,-2,-8,-7,-9
-2,-5,-3,4,0,-3,-7,-11,-2,-8,-7,-9
-2,-5,-3,4,0,-3,-7,-10,-2,-8,-7,-9
-2,-5,-3,4,0,-3,-7,-10,-2,-8,-7,-9
-2,-4,-2,4,0,-3,-7,-10,-2,-8,-7,-10
-2,-4,-2,4,0,-3,-7,-10,-2,-8,-7,-10
-2,-4,-2,4,0,-3,-7,-10,-2,-8,-7,-10
-2,-4,-2,4,0,-3,-7,-10,-2,-8,-7,-10
-2,-4,-3,4,0,-3,-7,-10,-2,-8,-8,-9
-2,-4,-3,4,0,-3,-8,-10,-2,-8,-8,-9
-2,-4,-3,3,0,-3,-9,-10,-2,-8,-8,-9
-2,-4,-2,3,0,-3,-10,-10,-2,-8,-8,-9
-2,-4,-2,3,0,-3,-10,-11,-2,-8,-8,-9
-2,-4,-2,3,0,-3,-10,-11,-2,-8,-8,-9
-3,-4,-2,3,-1,-2,-10,-11,-3,-8,-8,-9
-3,-4,-1,3,-1,-2,-9,-11,-3,-8,-8,-9
-2,-4,-1,3,-1,-2,-9,-11,-3,-8,-8,-10
-2,-4,-1,3,-1,-2,-9,-11,-3,-8,-8,-10
-1,-4,-1,3,-1,-2,-9,-11,-3,-8,-8,-10
-1,-4,-2,3,-1,-2,-10,-11,-3,-8,-8,-10
-1,-4,-2,3,-1,-2,-10,-11,-4,-8,-8,-10
-1,-4,-2,3,-1,-2,-10,-11,-4,-8,-8,-10
-1,-3,-2,3,-1,-2,-10,-11,-4,-8,-8,-10
-1,-3,-2,2,-1,-2,-11,-11,-4,-8,-8,-10
-1,-3,-2,2,-1,-2,-12,-11,-4,-8,-8,-11
-1,-3,-2,2,-1,-2,-12,-11,-4,-8,-8,-11
-1,-3,-2,2,-1,-2,-12,-12,-4,-8,-8,-11
-2,-3,-2,2,-1,-2,-12,-12,-4,-8,-8,-11
-2,-3,-2,2,-1,-2,-12,-12,-4,-8,-9,-11
-2,-3,-2,2,-1,-2,-12,-12,-4,-8,-9,-11
-2,-3,-2,2,-1,-2,-12,-12,-4,-8,-9,-11
-2,-3,-1,2,-1,-2,-12,-12,-4,-8,-10,-12
-2,-3,-1,2,-1,-2,-12,-13,-4,-8,-10,-12
-2,-3,-1,2,-1,-2,-12,-13,-4,-8,-10,-12
-2,-3,-1,2,-1,-2,-12,-13,-4,-8,-9,-12
-2,-3,-1,2,-1,-2,-12,-13,-4,-8,-9,-12
-2,-3,-2,2,-1,-2,-12,-13,-4,-8,-10,-12
-2,-3,-2,2,-1,-2,-12,-13,-4,-9,-10,-12
-2,-3,-1,2,-1,-2,-12,-13,-4,-9,-10,-12
-2,-3,-1,2,-1,-2,-12,-13,-5,-9,-10,-12
-2,-3,-1,2,-1,-2,-12,-13,-5,-9,-10,-12
-1,-2,-1,2,0,-2,-12,-14,-4,-9,-10,-12
-1,-2,-1,2,0,-2,-12,-14,-4,-9,-10,-12
0,-2,-1,2,0,-2,-12,-14,-4,-9,-10,-12
-1,-2,-1,2,0,-2,-12,-14,-4,-9,-10,-12
-1,-2,-1,2,0,-2,-12,-14,-4,-9,-10,-12
-1,-2,-1,2,0,-2,-12,-15,-4,-9,-10,-13
-2,-2,-2,2,0,-2,-12,-15,-4,-9,-10,-13
-2,-2,-2,2,0,-2,-12,-15,-4,-9,-11,-13
-1,-2,-2,2,0,-2,-12,-15,-4,-9,-11,-13
-1,-2,-2,2,0,-2,-12,-15,-4,-8,-11,-13
0,-2,-2,2,0,-2,-11,-15,-5,-8,-11,-13
0,-2,-2,2,0,-2,-11,-15,-5,-9,-11,-13
-1,-2,-2,2,0,-2,-11,-15,-6,-9,-11,-13
-1,-2,-2,2,-1,-2,-12,-15,-6,-9,-11,-13
-1,-2,-2,2,-1,-2,-12,-15,-6,-9,-11,-13
-1,-2,-2,2,0,-2,-12,-15,-6,-9,-11,-13
-1,-2,-2,2,0,-2,-13,-15,-6,-9,-11,-13
-1,-2,-2,2,0,-2,-13,-15,-6,-9,-11,-13
-1,-2,-1,2,0,-2,-13,-15,-6,-9,-11,-13
-1,-3,-1,2,-1,-2,-13,-15,-6,-9,-11,-13
-1,-3,-2,2,-1,-2,-13,-15,-6,-9,-11,-13
-1,-3,-2,2,0,-3,-13,-15,-6,-9,-11,-13
-1,-3,-2,2,0,-3,-13,-15,-6,-8,-11,-13
-1,-3,-2,2,0,-2,-13,-15,-6,-8,-11,-13
-1,-3,-1,2,0,-2,-13,-15,-6,-8,-11,-13
-1,-3,-1,2,0,-2,-13,-15,-6,-8,-11,-13
-1,-3,-1,2,0,-2,-13,-15,-6,-7,-11,-13
0,-3,-1,1,0,-2,-12,-15,-6,-7,-11,-13
0,-3,-2,1,0,-2,-12,-15,-6,-7,-11,-13
0,-3,-2,1,0,-3,-12,-15,-6,-7,-11,-14
0,-3,-2,1,0,-3,-12,-15,-6,-7,-11,-14
0,-3,-2,2,0,-3,-11,-15,-6,-7,-11,-13
-1,-3,-2,2,0,-3,-11,-16,-6,-7,-11,-13
-1,-3,-2,2,0,-3,-11,-16,-6,-8,-11,-13
-1,-3,-2,2,0,-3,-12,-16,-6,-8,-11,-13
-1,-3,-1,2,-1,-2,-12,-15,-6,-8,-11,-13
-1,-3,-1,2,-1,-2,-13,-15,-6,-7,-10,-13
-1,-3,-1,2,-1,-2,-13,-15,-6,-7,-10,-13
-1,-3,-1,2,-1,-2,-13,-15,-6,-7,-11,-13
-1,-3,-1,2,-1,-2,-13,-15,-6,-8,-11,-13
-2,-3,-1,2,-1,-2,-13,-15,-6,-8,-11,-13
-2,-3,-1,2,-1,-2,-13,-15,-6,-8,-12,-13
-2,-3,-1,2,-1,-2,-12,-15,-6,-8,-12,-14
-1,-3,-1,2,0,-2,-12,-16,-7,-8,-12,-14
-1,-3,-2,2,0,-2,-12,-16,-7,-8,-12,-15
0,-3,-2,2,0,-2,-12,-16,-7,-8,-12,-15
0,-3,-1,2,0,-2,-12,-16,-7,-8,-12,-15
-1,-2,-1,2,-1,-2,-12,-16,-7,-8,-12,-15
-1,-2,-1,1,-1,-2,-12,-16,-7,-8,-12,-15
-1,-2,-1,1,-1,-2,-12,-16,-7,-8,-12,-15
-1,-2,0,1,-1,-1,-12,-16,-7,-8,-12,-15
-1,-2,0,1,-1,-1,-12,-16,-7,-8,-12,-15
-1,-1,0,1,-1,-1,-11,-16,-7,-8,-12,-14
-1,0,0,1,-1,0,-11,-15,-6,-7,-12,-14
0,0,1,0,-1,0,-11,-15,-6,-7,-11,-13
0,1,1,0,-1,0,-11,-14,-5,-6,-11,-13
0,1,2,0,-1,1,-10,-14,-5,-6,-10,-13
0,2,2,-1,-2,1,-10,-13,-5,-5,-9,-13
0,2,3,-1,-2,2,-10,-13,-4,-5,-8,-12
1,3,3,-2,-2,3,-10,-13,-4,-4,-8,-12
1,3,3,-2,-2,3,-10,-13,-4,-4,-7,-12
1,4,4,-2,-2,4,-10,-13,-4,-4,-7,-11
0,4,4,-2,-3,4,-10,-13,-4,-4,-7,-11
0,4,4,-2,-3,4,-10,-13,-4,-4,-7,-10
0,4,4,-2,-3,4,-10,-13,-4,-4,-7,-10
0,4,4,-2,-3,4,-10,-13,-4,-4,-7,-10
0,4,5,-2,-3,4,-10,-13,-4,-3,-7,-10
0,5,6,-2,-4,5,-10,-13,-4,-3,-7,-10
-1,6,7,-2,-4,6,-10,-14,-4,-3,-7,-10
-1,6,8,-2,-5,7,-10,-14,-4,-3,-7,-10
-1,6,8,-2,-5,7,-10,-15,-4,-3,-7,-10
-1,6,8,-2,-5,7,-10,-15,-4,-3,-7,-10
0,6,7,-2,-5,7,-11,-15,-4,-3,-7,-10
0,6,7,-2,-5,6,-13,-15,-4,-4,-7,-10
0,6,7,-2,-5,6,-14,-16,-5,-4,-8,-11
0,6,7,-2,-5,6,-14,-16,-5,-5,-8,-11
0,6,7,-2,-5,6,-14,-17,-6,-5,-9,-11
0,6,6,-2,-4,6,-14,-17,-6,-6,-9,-11
0,6,6,-2,-4,6,-15,-17,-6,-6,-9,-11
1,6,6,-3,-4,6,-15,-17,-6,-6,-9,-11
1,7,6,-3,-3,6,-16,-17,-6,-6,-8,-10
2,7,5,-4,-3,6,-16,-17,-6,-6,-8,-10
2,7,5,-4,-2,6,-16,-17,-7,-6,-8,-10
3,7,4,-4,-2,5,-16,-17,-7,-6,-8,-10
3,6,2,-4,-1,4,-17,-17,-7,-6,-8,-10
4,5,1,-4,0,3,-17,-17,-7,-7,-9,-11
4,4,0,-3,0,2,-18,-17,-7,-7,-9,-11
3,3,0,-3,0,1,-18,-17,-8,-8,-10,-12
3,2,0,-2,0,1,-17,-17,-8,-9,-10,-12
2,2,0,-1,0,1,-17,-17,-9,-9,-11,-12
0,1,1,0,-1,1,-17,-17,-9,-9,-11,-12
0,1,1,0,-1,1,-17,-16,-9,-9,-11,-12
0,1,1,0,-2,1,-16,-16,-9,-9,-11,-12
0,1,1,0,-2,1,-15,-16,-9,-9,-11,-13
0,1,2,0,-2,1,-14,-15,-8,-9,-11,-13
-1,0,2,0,-3,1,-14,-15,-8,-9,-11,-13
-1,0,2,1,-3,1,-15,-15,-9,-10,-12,-14
-2,-1,1,2,-3,0,-15,-15,-9,-10,-12,-15
-2,-1,1,2,-3,0,-14,-16,-10,-11,-12,-15
-3,-2,1,3,-3,0,-14,-16,-10,-11,-12,-16
-3,-2,1,3,-3,-1,-14,-16,-10,-11,-13,-16
-3,-3,1,3,-3,-1,-14,-16,-10,-11,-13,-16
-3,-3,1,3,-3,-1,-14,-15,-10,-11,-13,-16
-3,-3,1,3,-3,-1,-15,-15,-9,-11,-13,-16
-3,-3,1,3,-3,-1,-15,-15,-9,-11,-13,-16
-3,-4,1,3,-3,-1,-15,-15,-10,-11,-14,-16
-3,-4,1,3,-3,-1,-15,-15,-10,-11,-14,-16
-3,-4,1,4,-3,-1,-15,-16,-11,-12,-14,-16
-3,-4,1,4,-3,-1,-15,-16,-11,-12,-14,-16
-4,-4,1,4,-3,-1,-15,-16,-11,-12,-14,-16
-4,-4,1,4,-3,-1,-15,-16,-11,-12,-14,-16
-4,-4,1,4,-3,-2,-15,-16,-10,-12,-14,-16
-4,-4,0,4,-3,-2,-15,-15,-10,-12,-14,-16
-4,-4,0,4,-3,-2,-15,-15,-10,-12,-14,-16
-4,-4,0,4,-3,-2,-15,-15,-10,-12,-14,-16
-4,-4,0,4,-3,-2,-15,-15,-10,-12,-14,-16
-4,-4,0,4,-3,-2,-15,-14,-10,-11,-14,-16
-4,-4,0,5,-3,-2,-15,-14,-10,-11,-14,-16
-5,-4,1,5,-3,-2,-15,-14,-10,-11,-14,-15
-4,-4,1,5,-3,-2,-15,-13,-9,-11,-14,-15
-4,-4,1,5,-3,-1,-15,-13,-9,-10,-14,-15
-5,-4,2,5,-3,-1,-15,-13,-8,-10,-13,-15
-5,-4,2,5,-4,0,-15,-12,-8,-9,-13,-15
-6,-3,3,5,-5,0,-14,-11,-7,-8,-12,-15
-6,-2,5,5,-6,1,-13,-9,-5,-7,-11,-15
-7,-1,7,4,-7,3,-11,-6,-1,-4,-9,-14
-8,1,9,4,-9,5,-8,-1,3,0,-6,-13
-8,2,11,3,-10,6,-4,6,10,5,-2,-12
-7,3,11,3,-10,7,-2,15,19,12,2,-9
-5,4,10,1,-8,7,-1,23,28,19,9,-5
-1,5,7,-1,-5,6,-2,28,35,26,17,0
3,6,4,-5,0,5,-5,28,41,34,26,7
9,8,0,-9,5,4,-10,22,45,41,37,16
17,11,-5,-14,11,2,-17,12,46,48,47,25
25,13,-11,-19,18,1,-25,0,46,53,57,36
33,16,-16,-24,24,0,-33,-13,44,58,67,47
40,20,-20,-29,30,0,-43,-26,42,61,75,57
46,23,-22,-34,34,0,-52,-41,36,61,78,64
50,27,-23,-38,36,1,-60,-58,27,56,75,67
51,26,-24,-39,37,0,-65,-71,16,46,65,64
51,20,-30,-36,40,-5,-67,-80,5,32,46,53
48,12,-36,-30,42,-12,-66,-88,-7,15,25,39
44,4,-39,-24,41,-17,-65,-97,-24,-2,6,26
38,-1,-39,-18,38,-20,-65,-108,-44,-20,-11,14
30,-6,-36,-11,33,-21,-66,-122,-68,-40,-28,2
21,-10,-31,-5,25,-21,-65,-137,-94,-60,-45,-9
11,-15,-26,1,18,-21,-64,-148,-118,-78,-59,-20
4,-19,-22,7,13,-21,-62,-153,-133,-92,-70,-30
-2,-22,-20,11,9,-21,-60,-152,-139,-101,-77,-37
-6,-25,-18,15,6,-21,-58,-146,-140,-105,-82,-43
-9,-26,-17,18,3,-21,-56,-139,-136,-106,-84,-46
-10,-26,-15,19,2,-21,-54,-129,-128,-102,-83,-47
-12,-26,-13,19,0,-20,-51,-118,-118,-96,-79,-47
-13,-25,-11,19,-1,-18,-46,-106,-107,-88,-74,-46
-14,-23,-9,19,-2,-17,-42,-94,-95,-80,-68,-45
-14,-22,-8,18,-3,-16,-37,-81,-84,-71,-62,-43
-14,-21,-7,17,-4,-14,-34,-69,-73,-63,-56,-40
-13,-19,-6,16,-4,-13,-30,-57,-62,-55,-50,-37
-11,-17,-5,14,-3,-11,-27,-46,-52,-48,-45,-35
-9,-16,-5,12,-2,-11,-24,-37,-43,-42,-40,-32
-8,-14,-6,11,-1,-10,-21,-29,-35,-37,-36,-31
-6,-13,-6,10,0,-10,-19,-22,-28,-32,-33,-29
-6,-12,-5,9,0,-9,-16,-16,-22,-27,-29,-27
-6,-11,-5,9,0,-8,-15,-12,-17,-23,-26,-25
-5,-10,-4,8,-1,-7,-14,-8,-13,-19,-23,-24
-5,-9,-4,7,-1,-5,-13,-6,-10,-16,-20,-22
-5,-8,-3,7,-1,-4,-12,-4,-8,-15,-18,-20
-5,-7,-2,6,-2,-3,-12,-2,-6,-13,-17,-19
-5,-6,-1,6,-2,-2,-11,-1,-4,-12,-16,-19
-5,-5,0,5,-2,-2,-11,0,-3,-11,-15,-18
-5,-4,0,5,-2,-2,-11,0,-1,-9,-14,-18
-5,-4,1,4,-3,-2,-11,1,0,-8,-13,-17
-5,-3,1,4,-3,-1,-11,2,0,-7,-12,-17
-4,-3,1,4,-3,-1,-11,3,1,-6,-11,-16
-4,-3,1,4,-3,0,-11,3,1,-5,-10,-15
-4,-3,1,4,-3,0,-11,4,2,-5,-9,-15
-4,-2,1,4,-3,0,-11,4,2,-5,-9,-14
-4,-2,1,3,-3,0,-11,4,3,-5,-9,-14
-4,-2,1,3,-3,0,-11,5,3,-4,-9,-14
-4,-2,1,3,-3,0,-11,5,4,-4,-9,-14
-4,-2,1,3,-3,0,-11,6,4,-3,-8,-14
-4,-2,2,3,-3,0,-12,7,5,-3,-8,-13
-4,-2,2,3,-3,1,-13,7,5,-2,-7,-13
-4,-1,3,3,-3,1,-14,8,6,-2,-7,-13
-4,0,3,2,-3,1,-14,8,6,-2,-7,-13
-4,0,3,2,-3,1,-13,8,7,-2,-7,-13
-4,0,3,2,-3,1,-11,8,7,-1,-7,-12
-5,0,3,2,-3,1,-10,9,8,-1,-6,-12
-5,0,3,2,-4,1,-9,9,8,0,-6,-12
-4,0,3,2,-4,2,-8,9,9,0,-6,-12
-4,1,3,1,-3,2,-8,9,9,0,-5,-11
-4,1,4,1,-4,2,-7,10,9,0,-5,-11
-4,1,4,2,-4,2,-7,10,9,0,-5,-11
-4,1,4,2,-4,2,-8,10,9,0,-5,-11
-4,1,4,1,-4,3,-8,10,9,0,-5,-11
-4,1,4,1,-4,3,-9,11,10,0,-5,-11
-4,1,4,1,-4,3,-9,11,10,1,-4,-11
-4,1,4,1,-4,3,-9,11,10,1,-4,-11
-4,1,4,1,-4,3,-9,11,11,1,-4,-10
-3,1,4,1,-4,3,-9,12,11,2,-4,-10
-3,1,4,1,-4,3,-9,12,12,2,-3,-9
-3,1,4,1,-4,3,-9,12,12,2,-3,-9
-3,1,3,1,-3,3,-9,12,13,2,-3,-8
-3,1,3,1,-3,3,-9,12,13,2,-3,-8
-3,1,3,1,-3,3,-10,13,14,3,-3,-8
-3,1,3,1,-3,3,-10,13,14,3,-3,-8
-3,1,3,0,-3,3,-10,14,15,3,-2,-8
-2,1,3,0,-3,3,-10,14,15,3,-2,-7
-2,1,3,0,-2,3,-10,15,15,3,-2,-7
-2,2,3,0,-2,3,-10,15,15,4,-2,-6
-2,2,4,0,-2,3,-10,15,16,4,-1,-5
-2,3,4,0,-2,3,-10,16,16,5,-1,-5
-1,3,3,0,-2,3,-10,16,17,5,0,-4
-1,3,3,-1,-1,3,-10,17,17,6,0,-4
0,3,3,-1,-1,3,-10,17,18,6,0,-3
0,3,3,-1,-1,3,-11,18,18,6,0,-2
0,3,3,-1,-1,3,-11,18,19,7,0,-1
0,4,3,-1,-2,4,-12,19,19,7,1,-1
0,4,3,-2,-2,4,-12,19,19,8,1,0
0,5,3,-2,-2,5,-12,20,20,8,1,0
1,5,3,-3,-1,5,-12,21,20,9,1,1
1,6,3,-3,-1,5,-12,22,21,9,2,1
1,6,3,-3,-1,5,-12,23,21,10,2,2
2,6,3,-4,0,5,-13,23,22,10,3,2
2,6,3,-4,0,5,-14,24,22,11,3,3
3,6,3,-5,0,5,-14,25,23,11,4,3
3,6,3,-5,0,5,-14,25,23,11,4,4
4,6,3,-5,0,5,-14,26,24,12,5,4
4,6,2,-5,1,5,-13,26,24,12,5,5
4,7,2,-6,1,5,-11,27,25,13,6,5
5,7,2,-6,1,5,-7,28,26,13,6,6
5,8,2,-7,2,5,-3,29,27,14,7,7
6,8,1,-7,2,5,0,30,27,14,7,8
7,9,1,-8,3,5,2,31,28,14,8,8
8,9,1,-8,3,5,3,32,29,15,8,9
8,10,1,-9,4,6,4,33,30,15,9,10
9,10,0,-9,4,6,4,34,31,16,9,10
9,11,0,-10,5,6,5,35,32,17,10,11
10,11,0,-10,5,6,6,36,33,18,11,11
10,12,0,-11,5,7,6,37,35,19,12,12
11,12,0,-12,5,7,6,38,36,19,13,13
12,13,0,-13,7,7,7,39,37,20,14,14
13,13,-1,-14,7,7,7,40,38,20,15,15
14,14,0,-14,7,7,7,41,39,21,15,16
15,14,0,-14,8,7,7,42,40,22,16,17
15,15,0,-15,8,7,7,43,41,23,16,18
16,15,-1,-15,8,7,7,44,42,24,17,19
17,16,-1,-16,9,7,7,45,43,24,18,20
18,17,-2,-17,10,8,6,46,44,25,18,21
19,17,-2,-18,11,8,6,47,45,26,19,22
20,18,-2,-19,11,8,5,48,46,27,20,23
21,18,-2,-20,12,9,5,49,47,27,20,24
22,19,-2,-20,12,9,4,49,48,28,21,25
22,20,-2,-21,12,9,4,50,49,29,21,26
23,21,-2,-22,13,9,4,51,50,30,22,27
23,21,-2,-22,13,10,4,51,51,30,22,28
23,22,-2,-22,13,10,4,52,51,31,23,29
24,22,-3,-23,14,10,3,52,52,32,23,30
25,22,-3,-23,15,10,3,53,52,32,24,30
25,22,-4,-24,15,10,3,53,53,32,24,31
25,22,-4,-24,15,10,2,54,53,33,24,31
26,22,-4,-24,15,10,2,54,54,33,24,32
26,23,-4,-24,15,10,1,54,54,33,24,32
27,23,-4,-24,16,10,0,54,54,33,25,33
27,23,-4,-25,16,10,0,54,54,33,25,33
27,23,-4,-25,16,10,0,54,54,33,25,34
28,23,-5,-26,16,10,0,53,53,33,25,34
28,23,-5,-26,17,10,0,53,53,33,25,34
28,23,-5,-26,17,10,0,52,52,32,25,35
28,23,-5,-26,17,10,0,50,51,32,25,35
28,23,-5,-25,16,10,0,49,50,31,25,34
27,23,-5,-25,16,10,0,48,49,31,25,34
26,23,-4,-24,15,10,1,47,48,30,24,34
25,23,-3,-24,14,10,1,46,46,30,24,33
25,23,-2,-24,14,11,1,44,45,29,23,31
24,22,-2,-23,14,11,2,42,43,28,21,30
23,21,-2,-22,13,11,3,39,41,27,20,28
22,21,-1,-21,12,11,3,37,38,26,19,27
21,20,-1,-20,11,10,4,35,36,24,17,26
19,20,0,-19,10,10,4,33,34,23,16,25
18,19,0,-18,9,10,5,31,32,22,15,24
16,18,1,-17,8,10,6,29,30,20,14,22
14,17,1,-16,7,10,7,27,28,19,12,21
13,16,1,-15,6,10,8,24,26,18,11,19
12,15,2,-14,5,9,8,22,23,16,9,17
10,14,2,-12,4,9,8,19,21,15,7,15
9,13,3,-11,3,9,8,17,19,13,6,14
8,13,3,-10,3,9,9,15,16,12,4,12
7,12,4,-9,2,9,9,13,14,10,3,11
6,11,4,-8,1,9,9,11,12,9,2,9
5,10,4,-7,0,8,9,9,11,8,1,8
4,9,5,-6,0,8,9,8,9,7,0,7
3,9,5,-6,-1,8,9,6,8,6,0,6
2,8,5,-5,-1,7,9,4,6,5,-2,5
2,7,5,-5,-1,7,9,3,4,4,-3,4
1,7,5,-5,-1,7,9,2,3,3,-3,3
1,7,5,-4,-2,6,10,1,2,2,-4,3
0,6,5,-4,-2,6,11,0,1,1,-4,2
-1,5,5,-3,-2,6,12,-1,0,0,-5,1
-1,5,5,-2,-2,6,12,-2,0,0,-6,0
-1,4,5,-2,-2,6,12,-2,-1,-1,-7,0
-1,4,5,-2,-3,6,12,-3,-1,-1,-7,-1
-2,4,6,-1,-3,6,12,-3,-2,-2,-8,-1
-2,4,6,-1,-3,5,12,-4,-2,-2,-8,-1
-2,3,5,-1,-3,5,12,-4,-2,-2,-8,-1
-2,3,5,-1,-3,5,12,-4,-2,-3,-8,-1
-2,3,5,-1,-3,5,12,-4,-3,-3,-9,-1
-2,3,5,-1,-3,5,12,-4,-3,-3,-9,-1
-3,3,5,0,-3,5,13,-4,-3,-3,-9,-1
-3,2,5,0,-3,5,13,-5,-4,-3,-10,-1
-3,2,5,0,-3,5,12,-5,-4,-3,-10,-1
-3,2,5,0,-3,5,12,-6,-4,-4,-11,-2
-3,2,5,0,-3,5,12,-6,-4,-4,-11,-2
-3,2,5,0,-3,5,12,-6,-4,-4,-12,-2
-3,2,5,0,-3,5,12,-6,-4,-4,-12,-2
-4,2,5,0,-3,5,12,-6,-4,-5,-12,-3
-4,2,5,0,-3,5,12,-6,-5,-5,-13,-3
-3,2,5,0,-3,5,12,-6,-5,-5,-13,-3
-3,2,5,0,-3,4,12,-6,-5,-5,-14,-3
-3,1,5,0,-3,4,12,-6,-5,-5,-14,-3
-4,1,5,1,-4,4,12,-6,-5,-6,-14,-4
-4,0,5,1,-4,4,12,-6,-5,-6,-14,-4
-4,0,5,1,-4,4,12,-6,-5,-6,-13,-4
-4,0,5,1,-4,4,13,-6,-5,-6,-13,-4
-5,0,5,2,-4,4,13,-6,-5,-6,-13,-4
-5,0,5,2,-4,4,13,-6,-5,-6,-13,-5
-5,0,5,2,-4,3,13,-6,-5,-6,-13,-5
-5,0,5,2,-4,3,13,-5,-5,-6,-13,-5
-5,0,5,2,-5,4,13,-5,-4,-6,-12,-4
-5,0,5,2,-5,4,12,-5,-4,-6,-12,-4
-5,0,5,2,-4,3,12,-5,-4,-6,-12,-4
-5,0,4,2,-4,3,12,-5,-4,-6,-12,-4
-5,0,4,2,-4,3,12,-5,-4,-6,-12,-4
-5,0,4,2,-4,3,12,-5,-4,-6,-12,-4
-4,0,4,2,-4,3,12,-5,-4,-6,-12,-4
-5,0,4,2,-4,3,12,-5,-4,-6,-12,-4
-6,-1,5,2,-5,3,12,-5,-4,-5,-11,-4
-6,-1,5,3,-5,3,12,-5,-3,-5,-11,-4
-6,-1,5,3,-5,3,12,-5,-3,-5,-11,-4
-6,-1,5,3,-5,3,12,-5,-3,-4,-11,-4
-6,-1,5,3,-5,3,11,-5,-2,-4,-10,-4
-6,-1,5,3,-5,3,11,-4,-2,-4,-10,-3
-6,-1,5,3,-5,3,10,-4,-2,-4,-9,-3
-5,-1,5,2,-4,3,10,-4,-2,-4,-9,-3
-5,0,4,2,-4,3,10,-4,-2,-4,-9,-3
-5,0,5,2,-5,3,10,-4,-2,-4,-9,-2
-6,0,5,2,-5,3,10,-4,-2,-4,-9,-2
-6,0,5,2,-5,3,11,-4,-2,-4,-9,-1
-6,0,5,2,-5,3,11,-4,-2,-4,-8,-1
-6,0,5,2,-5,3,12,-3,-2,-4,-8,0
-5,0,5,2,-5,3,12,-3,-2,-4,-7,0
-5,0,5,2,-5,3,12,-3,-2,-4,-6,0
-5,0,5,2,-5,3,12,-4,-2,-3,-6,0
-5,0,5,2,-5,3,12,-4,-2,-3,-6,0
-5,0,5,2,-5,3,11,-4,-1,-3,-5,0
-5,0,5,2,-5,4,11,-4,-1,-3,-5,0
-5,0,5,2,-5,4,12,-4,-1,-3,-5,0
-5,0,5,2,-5,4,12,-4,-1,-4,-5,0
-5,0,5,2,-5,4,12,-4,-1,-4,-4,0
-6,0,6,2,-5,4,12,-4,0,-4,-4,0
-6,0,6,2,-6,4,12,-4,0,-3,-4,1
-6,0,6,2,-6,4,12,-4,0,-3,-4,1
-6,0,5,2,-6,4,12,-4,0,-3,-4,1
-6,0,5,2,-6,4,12,-4,0,-3,-4,1
-6,0,5,2,-6,4,12,-4,0,-3,-3,2
-6,0,5,2,-6,4,12,-4,0,-3,-3,2
-6,0,5,2,-6,4,11,-4,0,-3,-3,2
-6,-1,6,2,-6,4,11,-4,0,-3,-3,2
-6,-1,6,2,-6,4,11,-4,0,-3,-3,2
-6,-1,6,2,-6,4,11,-4,0,-3,-3,2
-6,-1,6,3,-6,4,11,-4,0,-3,-3,2
-6,0,6,3,-6,4,11,-4,-1,-3,-3,3
-6,0,6,2,-6,4,11,-4,-1,-3,-2,3
-6,0,6,2,-5,4,11,-5,-1,-3,-2,3
-5,0,6,2,-5,4,12,-5,-1,-3,-2,3
-5,0,6,2,-6,4,12,-5,-1,-3,-2,4
-6,0,6,2,-6,4,12,-5,-1,-3,-2,4
-6,0,6,2,-6,4,12,-5,-2,-3,-2,4
-6,0,5,2,-6,4,12,-5,-2,-3,-2,4
-6,0,5,2,-5,4,12,-5,-2,-3,-2,5
-6,0,5,2,-6,4,12,-5,-2,-3,-2,5
-6,0,5,2,-6,4,11,-5,-2,-3,-2,5
-6,0,5,2,-6,4,11,-6,-2,-4,-3,5
-6,0,6,2,-6,4,11,-6,-2,-4,-3,5
-6,0,6,2,-6,4,11,-6,-3,-4,-3,5
-7,0,7,3,-7,4,10,-6,-3,-4,-3,5
-7,0,7,3,-7,4,10,-6,-3,-4,-3,5
-6,0,6,3,-6,4,10,-6,-3,-4,-3,4
-6,0,6,3,-6,4,10,-6,-3,-4,-3,4
-6,0,7,3,-6,4,11,-7,-3,-4,-3,4
-6,0,7,3,-7,4,12,-7,-3,-4,-4,4
-6,0,7,3,-7,4,12,-8,-3,-4,-4,4
-6,0,6,3,-7,4,12,-8,-3,-4,-4,4
-6,0,6,3,-7,4,11,-8,-4,-4,-4,4
-6,0,6,3,-7,4,11,-8,-4,-4,-4,4
-7,0,6,3,-7,4,12,-8,-4,-4,-4,4
-7,0,6,3,-7,4,12,-8,-3,-4,-4,4
-7,0,6,3,-7,4,12,-8,-3,-4,-4,4
-6,0,6,2,-6,4,12,-8,-3,-4,-4,4
-6,0,6,2,-6,4,12,-8,-4,-4,-4,4
-6,0,6,2,-7,4,12,-8,-4,-4,-4,4
-6,0,6,3,-7,4,13,-8,-4,-4,-4,4
-7,0,6,3,-7,4,13,-8,-4,-4,-4,4
-7,0,6,4,-7,4,13,-9,-4,-4,-4,4
-7,0,6,4,-7,4,13,-9,-4,-4,-4,4
-7,0,6,4,-7,3,13,-9,-5,-4,-4,4
-7,0,6,4,-7,3,12,-9,-5,-5,-4,4
-7,0,6,4,-7,3,12,-9,-5,-5,-4,4
-7,0,6,3,-7,4,11,-9,-5,-5,-4,4
-7,0,6,3,-7,4,11,-9,-5,-5,-4,4
-7,0,6,3,-7,4,10,-9,-5,-5,-4,4
-7,0,6,3,-7,4,10,-10,-5,-4,-5,4
-7,0,6,3,-7,4,10,-10,-5,-4,-5,4
-7,0,6,3,-7,4,11,-10,-5,-4,-5,3
-7,0,6,3,-7,4,11,-10,-6,-4,-5,3
-7,0,6,3,-8,4,11,-10,-6,-4,-5,3
-7,0,6,3,-8,4,11,-10,-6,-4,-4,3
-7,0,6,3,-8,4,11,-10,-6,-3,-4,3
-7,-1,6,4,-8,4,11,-10,-6,-3,-4,3
-7,-1,6,4,-8,4,11,-10,-6,-3,-4,3
-7,0,6,4,-8,4,11,-10,-6,-3,-4,3
-7,0,6,4,-7,4,11,-10,-6,-3,-4,3
-7,0,7,4,-7,4,11,-10,-6,-3,-3,3
-7,0,7,4,-8,4,10,-10,-6,-3,-3,3
-7,0,7,3,-8,4,10,-10,-6,-4,-3,3
-7,0,7,3,-8,4,10,-10,-7,-4,-3,3
-7,0,7,3,-8,4,10,-10,-7,-4,-3,3
-7,0,7,3,-8,4,10,-10,-7,-4,-3,3
-7,0,7,3,-8,4,10,-10,-7,-4,-2,3
-8,0,7,4,-9,4,10,-10,-7,-4,-2,2
-8,0,7,4,-9,4,10,-10,-7,-4,-2,2
-8,0,7,4,-9,4,10,-10,-7,-4,-2,2
-8,0,7,4,-8,4,9,-10,-7,-4,-2,2
-7,0,7,4,-8,4,9,-10,-7,-4,-2,2
-7,0,7,4,-8,4,9,-10,-7,-4,-2,2
-6,0,6,4,-7,4,10,-10,-7,-4,-2,2
-7,0,6,4,-7,4,11,-10,-7,-4,-2,2
-8,-1,7,4,-8,4,11,-10,-7,-4,-2,2
-8,-1,7,5,-8,4,11,-10,-7,-4,-2,2
-8,-1,7,5,-8,4,10,-10,-7,-4,-2,2
-9,-1,7,5,-8,4,10,-10,-7,-4,-2,2
-9,-1,7,5,-9,4,10,-10,-7,-4,-2,2
-8,-1,6,4,-8,4,10,-10,-7,-4,-2,2
-8,-1,6,4,-8,3,10,-10,-7,-4,-2,2
-8,-1,6,4,-8,3,10,-10,-7,-4,-2,2
-8,-1,6,4,-8,4,10,-10,-7,-3,-2,2
-8,-1,7,4,-8,4,10,-10,-7,-3,-2,2
-8,-1,7,4,-8,4,10,-10,-7,-3,-2,2
-8,-1,7,4,-8,4,9,-10,-7,-3,-2,2
-8,0,7,4,-8,4,9,-10,-7,-3,-2,2
-8,0,7,4,-8,4,9,-10,-7,-3,-2,2
-7,0,6,4,-8,3,9,-10,-7,-3,-2,2
-7,-1,6,4,-7,3,10,-10,-7,-3,-2,1
-7,-1,6,4,-7,3,10,-10,-7,-3,-2,1
-7,-1,6,4,-7,4,11,-10,-7,-3,-2,1
-7,-1,7,4,-8,4,11,-10,-7,-3,-2,1
-7,0,7,4,-8,4,11,-9,-7,-3,-2,1
-7,0,8,4,-9,5,11,-9,-7,-2,-1,1
-7,1,8,3,-9,5,11,-8,-6,-2,-1,2
-7,2,9,3,-9,6,12,-8,-5,-1,0,2
-8,3,9,3,-10,7,12,-7,-4,-1,0,2
-8,3,10,3,-10,7,13,-7,-4,0,0,2
-8,3,10,3,-10,8,13,-6,-3,0,1,2
-8,4,11,2,-10,8,14,-6,-3,0,1,3
-7,4,11,2,-10,9,15,-6,-3,0,1,3
-7,5,11,1,-10,9,15,-6,-3,0,2,3
-6,5,11,1,-10,9,15,-6,-3,1,2,4
-6,6,12,0,-10,10,15,-6,-3,1,3,4
-7,6,12,0,-10,10,15,-6,-3,1,3,4
-6,6,12,0,-10,10,15,-6,-3,1,3,4
-6,7,12,0,-9,10,15,-6,-3,1,3,4
-6,7,12,0,-10,10,15,-7,-3,1,3,4
-6,7,12,0,-10,10,15,-7,-3,1,3,4
-6,7,13,0,-11,10,14,-8,-3,1,3,4
-6,7,13,-1,-11,10,14,-9,-3,1,3,4
-6,7,13,-1,-10,10,13,-9,-4,1,3,4
-6,7,12,-1,-10,10,13,-9,-4,1,3,4
-6,7,12,-1,-9,10,12,-9,-4,1,3,4
-6,8,12,-1,-9,10,10,-10,-5,1,3,4
-6,8,12,-1,-9,10,9,-10,-5,0,3,4
-5,8,12,-1,-9,10,9,-11,-6,0,2,4
-5,8,12,-1,-9,10,8,-12,-7,-1,2,4
-4,8,12,-1,-9,10,8,-13,-7,-1,1,4
-4,8,12,-1,-9,10,7,-13,-8,-2,1,4
-4,8,12,-1,-9,11,7,-13,-8,-2,2,4
-4,9,12,-2,-8,11,7,-13,-8,-1,2,4
-3,9,11,-3,-7,10,7,-13,-8,-1,3,4
-2,8,10,-3,-6,10,6,-13,-8,-1,3,4
-2,8,9,-2,-6,9,6,-13,-8,-2,3,4
-1,7,7,-2,-5,7,5,-13,-8,-2,2,4
-1,6,6,-2,-4,6,5,-13,-8,-3,2,4
-1,4,5,-2,-4,5,6,-13,-9,-4,2,4
-1,3,4,-1,-4,4,6,-13,-9,-4,1,3
-2,3,4,0,-4,4,7,-13,-10,-5,0,2
-3,2,4,0,-5,3,8,-13,-10,-5,0,1
-4,2,5,1,-5,3,9,-13,-10,-6,0,1
-4,2,5,1,-6,4,10,-13,-10,-6,0,1
-4,2,6,1,-6,4,10,-12,-9,-5,0,1
-5,1,6,1,-7,4,11,-12,-9,-5,0,1
-6,1,7,2,-8,4,11,-12,-9,-4,0,1
-7,0,7,2,-8,4,10,-13,-9,-5,0,1
-7,0,6,3,-8,4,9,-13,-10,-5,-1,0
-7,0,6,3,-7,3,9,-13,-10,-5,-1,0
-7,-1,6,4,-7,3,9,-13,-10,-6,-1,0
-8,-1,5,4,-7,2,9,-13,-10,-6,-1,0
-8,-2,5,5,-7,2,10,-13,-10,-6,-2,0
-8,-2,4,5,-7,1,10,-13,-10,-6,-2,0
-8,-2,4,5,-7,1,11,-13,-11,-6,-3,-1
-8,-2,4,6,-7,1,11,-13,-11,-7,-3,-1
-8,-3,4,6,-7,1,12,-13,-12,-7,-3,-1
-8,-3,4,6,-7,1,12,-13,-12,-7,-3,-1
-8,-3,4,6,-7,1,12,-13,-12,-8,-3,-1
-8,-3,4,6,-7,1,11,-13,-12,-8,-3,-2
-8,-3,4,6,-6,0,10,-13,-12,-8,-3,-2
-8,-3,4,6,-6,0,9,-13,-12,-8,-3,-2
-8,-3,4,6,-6,0,9,-13,-12,-8,-3,-2
-8,-3,4,6,-6,0,10,-13,-12,-8,-3,-2
-9,-4,4,6,-7,0,11,-13,-12,-8,-3,-2
-9,-4,5,7,-7,0,11,-13,-12,-8,-3,-2
-9,-4,5,7,-7,0,12,-12,-11,-8,-3,-2
-9,-4,5,7,-7,0,12,-12,-11,-8,-3,-2
-9,-4,5,7,-7,0,12,-12,-10,-7,-2,-2
-9,-4,5,7,-7,0,12,-12,-10,-7,-2,-2
-9,-4,4,7,-7,0,11,-12,-10,-7,-2,-2
-9,-4,4,7,-7,0,11,-12,-10,-7,-2,-2
-9,-4,4,7,-7,0,11,-12,-10,-7,-2,-2
-9,-4,5,7,-8,0,11,-11,-9,-6,-1,-2
-10,-3,5,7,-8,1,11,-11,-9,-6,0,-1
-10,-3,7,7,-9,2,13,-10,-8,-5,0,-1
-11,-1,9,7,-11,4,15,-8,-6,-2,1,-1
-12,0,12,6,-13,6,17,-6,-2,1,3,0
-13,2,15,6,-15,9,20,-1,3,5,6,1
-14,3,17,6,-16,11,23,7,11,11,10,3
-13,5,18,4,-16,12,26,18,20,18,16,6
-11,6,17,2,-14,12,27,25,28,24,23,10
-7,7,14,0,-11,11,26,28,34,31,30,15
-1,9,10,-3,-6,10,22,25,40,39,39,23
5,11,6,-8,-1,9,17,18,43,46,49,31
12,13,0,-12,5,7,10,7,44,52,59,40
20,15,-5,-17,13,5,1,-5,44,57,68,50
29,18,-11,-23,20,4,-8,-18,43,62,77,60
37,21,-17,-29,26,3,-17,-32,41,64,84,69
44,24,-20,-34,31,2,-26,-49,34,63,86,75
48,26,-22,-37,34,2,-35,-66,24,58,84,78
50,25,-25,-38,37,0,-41,-80,13,47,73,74
50,19,-32,-35,41,-6,-44,-90,1,31,54,64
49,10,-39,-29,43,-14,-45,-97,-12,13,33,50
45,2,-43,-23,44,-20,-45,-107,-29,-5,13,36
39,-5,-44,-17,41,-24,-47,-121,-50,-25,-5,24
31,-11,-42,-10,36,-26,-49,-136,-76,-46,-22,13
22,-16,-38,-2,29,-27,-48,-151,-105,-67,-38,1
12,-21,-33,5,22,-27,-47,-164,-131,-86,-53,-10
4,-25,-30,11,17,-28,-45,-169,-146,-100,-64,-19
-2,-29,-28,15,13,-29,-43,-166,-151,-108,-71,-26
-6,-31,-26,19,9,-29,-41,-158,-149,-110,-75,-30
-9,-32,-23,21,6,-28,-38,-147,-142,-107,-75,-33
-11,-32,-21,22,4,-26,-34,-135,-132,-101,-72,-34
-13,-31,-18,22,1,-24,-30,-121,-120,-93,-67,-33
-14,-29,-15,22,0,-22,-25,-106,-106,-83,-60,-31
-14,-27,-13,21,-1,-20,-19,-92,-93,-73,-53,-29
-14,-25,-11,20,-2,-18,-14,-78,-80,-64,-46,-26
-14,-22,-9,18,-2,-16,-8,-64,-68,-54,-39,-22
-13,-20,-7,16,-2,-14,-3,-51,-57,-46,-32,-19
-12,-18,-6,14,-3,-12,0,-40,-48,-39,-27,-17
-11,-16,-5,13,-3,-10,4,-31,-40,-33,-23,-15
-11,-15,-4,13,-4,-9,7,-23,-32,-27,-19,-13
-10,-13,-3,12,-4,-7,10,-17,-25,-22,-16,-11
-10,-12,-2,12,-5,-6,12,-12,-20,-18,-12,-9
-10,-11,-1,11,-5,-6,14,-8,-15,-14,-9,-8
-10,-9,0,10,-5,-5,16,-5,-12,-11,-7,-6
-10,-8,0,9,-5,-4,16,-3,-9,-9,-4,-5
-10,-7,1,8,-6,-2,17,-1,-7,-7,-3,-3
-10,-6,2,7,-6,-1,17,0,-6,-6,-2,-3
-9,-6,3,7,-6,0,17,1,-4,-5,-1,-2
-9,-6,4,7,-6,0,17,3,-2,-4,-1,-2
-9,-5,4,7,-6,0,17,4,-1,-3,0,-2
-9,-5,4,7,-6,0,17,5,0,-2,0,-2
-10,-5,4,7,-7,0,17,5,1,-1,1,-1
-10,-5,4,7,-7,0,17,6,1,-1,2,-1
-9,-5,4,7,-7,0,17,6,1,0,2,-1
-9,-4,4,6,-7,0,17,7,2,0,2,0
-9,-4,5,6,-7,1,17,8,3,0,3,0
-9,-4,5,6,-7,1,17,8,4,1,3,0
-9,-4,5,6,-7,1,17,9,5,1,3,0
-9,-4,5,6,-7,1,17,10,5,2,4,1
-9,-3,5,6,-7,1,18,11,6,2,5,1
-9,-3,5,6,-7,1,18,11,6,3,6,2
-9,-3,5,6,-7,1,18,12,6,3,6,2
-9,-3,5,6,-7,1,17,12,7,4,7,2
-9,-3,5,6,-7,1,17,12,7,4,7,2
-8,-3,5,6,-6,1,16,13,8,4,7,2
-8,-3,5,6,-6,1,16,14,8,4,7,2
-8,-3,5,6,-7,1,16,14,9,4,7,2
-8,-3,5,6,-7,1,16,15,9,4,7,3
-8,-3,5,6,-7,1,16,15,9,5,7,3
-8,-3,5,6,-7,1,15,15,9,5,8,3
-8,-2,5,6,-7,1,15,15,9,5,8,4
-8,-2,5,6,-7,1,15,15,9,5,8,4
-7,-2,5,5,-7,1,15,15,10,5,7,4
-7,-2,5,5,-6,1,16,15,10,5,7,4
-7,-2,5,5,-6,1,15,16,10,5,7,4
-7,-2,5,5,-6,1,15,16,11,6,7,4
-7,-2,5,5,-5,1,15,17,11,6,7,4
-7,-2,4,5,-5,1,16,17,11,7,7,4
-7,-2,4,5,-5,1,17,18,12,7,7,4
-7,-2,5,5,-5,1,18,18,12,7,7,4
-7,-2,5,5,-5,1,18,18,13,7,7,4
-7,-1,5,5,-5,1,18,19,13,8,8,4
-7,-1,5,5,-5,1,18,19,13,8,8,5
-6,-1,5,5,-5,1,18,20,13,8,8,5
-6,-1,5,4,-5,1,17,20,13,9,9,5
-5,-1,5,4,-5,2,17,21,14,9,9,5
-5,0,5,3,-5,2,17,21,14,9,10,6
-5,0,4,3,-5,2,17,22,14,9,10,6
-5,0,4,3,-4,2,17,22,14,9,10,6
-5,0,4,3,-4,2,17,22,14,9,10,7
-5,0,4,3,-4,1,17,23,15,9,10,7
-4,0,3,2,-4,1,17,23,15,10,10,7
-4,0,4,2,-4,2,17,24,16,10,11,7
-4,0,4,2,-4,2,17,25,16,11,11,7
-4,0,5,2,-4,2,16,25,17,11,11,7
-3,1,5,2,-4,3,16,26,17,12,11,7
-3,1,5,1,-3,3,15,26,18,12,11,7
-3,2,5,1,-3,3,15,27,18,12,11,7
-3,2,5,1,-3,3,15,27,18,12,12,7
-2,2,5,0,-3,3,15,28,19,12,12,7
-2,2,5,0,-3,3,15,29,19,12,13,7
-1,3,4,0,-2,3,15,30,20,13,13,8
0,3,4,-1,-2,3,15,30,20,13,14,8
0,4,4,-1,-2,4,15,31,21,14,14,8
0,4,4,-1,-1,4,15,31,21,14,15,9
0,4,4,-1,-1,4,15,32,22,15,15,9
0,4,4,-1,-1,4,15,33,23,15,16,9
1,4,4,-2,-1,4,15,34,24,16,16,10
1,5,4,-2,-1,4,15,36,25,16,17,10
2,5,4,-3,0,4,15,37,26,17,17,11
2,5,4,-3,0,4,15,38,27,18,18,12
3,5,3,-4,0,4,15,39,28,18,18,12
4,6,2,-4,1,4,15,40,29,18,19,13
4,6,2,-5,1,4,14,41,30,19,19,13
5,6,2,-5,2,4,14,42,31,19,20,14
5,7,2,-5,2,4,14,43,32,20,21,15
6,7,2,-6,3,4,12,45,34,21,22,16
7,8,1,-6,3,3,11,46,35,22,22,16
8,8,1,-7,4,3,11,47,36,22,23,17
9,9,1,-8,4,3,11,48,37,23,23,17
10,9,1,-9,4,4,11,49,38,23,24,18
10,10,1,-9,4,4,12,50,39,24,25,18
11,11,0,-10,5,5,12,51,40,25,26,19
12,11,0,-11,5,5,11,52,41,26,27,20
12,12,0,-11,6,5,11,54,42,27,28,21
13,12,0,-12,7,6,11,55,43,28,29,21
14,13,0,-13,7,6,11,56,44,29,30,22
14,14,0,-14,8,6,10,57,45,30,31,23
15,15,0,-15,9,6,9,58,46,31,32,24
16,16,-1,-16,9,6,8,59,47,32,33,24
17,16,-1,-17,10,7,7,60,48,32,34,25
18,17,-2,-17,11,7,6,60,49,33,35,25
20,17,-2,-18,11,7,6,61,50,33,36,26
21,18,-2,-19,12,7,6,62,51,34,36,27
21,18,-2,-19,12,7,6,62,52,35,37,28
22,19,-2,-20,13,7,5,63,53,35,37,29
22,19,-2,-20,13,7,5,63,53,36,38,30
23,20,-2,-21,13,8,4,64,54,36,39,31
23,20,-3,-21,13,8,4,64,54,36,39,32
24,20,-3,-22,14,8,3,64,54,36,40,33
24,20,-3,-22,14,8,3,64,54,37,40,34
25,21,-3,-22,15,8,3,64,54,37,41,34
26,21,-3,-23,15,8,2,64,55,37,41,35
27,21,-4,-23,16,8,2,64,54,37,41,35
26,21,-4,-23,16,8,1,63,54,37,41,36
26,21,-5,-23,16,8,1,63,54,37,41,36
26,21,-5,-23,16,8,1,62,54,37,41,36
26,21,-5,-23,16,8,1,61,53,37,41,36
26,21,-4,-23,16,8,1,60,53,37,42,37
25,21,-4,-23,16,8,1,59,52,36,42,37
25,20,-4,-23,16,7,1,58,50,36,41,36
25,20,-4,-22,15,7,2,56,49,35,41,35
24,20,-3,-22,15,7,2,54,47,35,40,34
23,20,-3,-21,14,8,2,52,46,34,40,33
22,19,-2,-21,14,8,2,50,44,33,39,31
21,19,-2,-20,13,7,2,47,42,31,38,30
20,18,-1,-19,12,7,3,45,40,30,36,28
18,17,-1,-18,11,7,3,42,38,28,34,26
17,16,0,-17,9,7,4,40,35,27,32,25
16,15,0,-15,8,7,5,38,33,25,30,24
14,14,0,-14,7,7,5,35,30,24,29,23
13,13,0,-13,7,7,5,33,28,22,27,21
12,12,1,-12,6,6,6,30,26,21,26,20
10,11,1,-11,5,6,6,27,24,20,25,19
8,10,2,-10,4,5,6,25,21,18,24,18
7,9,2,-8,3,5,6,23,19,17,23,17
5,8,2,-7,2,5,7,21,17,15,21,16
4,7,3,-6,1,5,7,19,15,14,19,15
3,6,3,-5,1,4,8,17,13,12,18,13
3,5,3,-4,0,4,8,14,11,11,17,12
2,5,3,-4,0,3,9,12,9,10,16,10
1,4,3,-3,0,3,9,10,7,9,15,9
0,3,4,-2,-1,3,9,8,6,8,14,8
-1,2,4,-1,-2,2,9,7,4,7,13,7
-2,1,4,0,-2,2,9,6,3,5,12,6
-3,0,4,1,-3,1,9,5,1,4,10,5
-4,0,4,2,-3,1,9,4,0,4,9,5
-4,0,4,2,-3,1,9,3,0,3,9,4
-4,0,4,2,-3,1,9,2,-1,3,9,4
-4,0,4,2,-3,1,9,1,-1,2,9,3
-4,0,4,3,-3,1,10,0,-2,1,8,2
-5,-1,4,3,-4,1,10,0,-3,0,8,1
-5,-1,4,3,-4,1,10,0,-4,0,7,0
-6,-1,4,3,-4,1,10,0,-5,-1,7,0
-6,-1,4,3,-4,1,10,0,-5,-1,6,0
-6,-1,4,4,-4,1,9,-1,-6,-2,6,0
-7,-2,5,4,-4,0,9,-1,-6,-2,5,0
-7,-2,5,4,-4,0,8,-1,-6,-2,5,-1
-7,-2,5,4,-4,0,8,-1,-6,-2,5,-1
-7,-2,5,5,-4,0,7,-1,-7,-2,5,-1
-7,-2,4,5,-4,0,7,-2,-7,-2,5,-1
-7,-3,4,5,-4,0,8,-2,-7,-2,5,-1
-7,-3,4,5,-4,0,8,-2,-7,-2,5,-1
-7,-3,4,5,-4,0,8,-2,-7,-2,5,-1
-7,-4,3,5,-3,-1,8,-2,-7,-2,5,-1
-7,-4,3,5,-3,-1,8,-2,-7,-2,5,-1
-7,-5,3,6,-3,-1,8,-2,-7,-3,5,-1
-7,-5,3,6,-3,-1,8,-2,-7,-3,5,-1
-7,-5,3,6,-4,-1,8,-2,-7,-3,5,-1
-8,-5,4,6,-5,-1,8,-2,-7,-3,5,-1
-8,-5,3,6,-5,-1,8,-2,-7,-3,4,-2
-8,-5,3,6,-4,-1,8,-2,-7,-3,4,-2
-8,-5,2,6,-4,-1,8,-2,-7,-3,4,-2
-8,-5,2,7,-4,-2,8,-2,-7,-3,4,-2
-8,-5,2,7,-4,-2,8,-2,-7,-3,4,-2
-8,-5,2,7,-4,-2,7,-2,-7,-3,4,-2
-7,-5,1,7,-3,-2,6,-2,-7,-3,4,-2
-7,-5,1,7,-3,-2,6,-2,-7,-3,5,-2
-7,-5,2,7,-4,-2,7,-2,-7,-3,5,-2
-7,-5,2,7,-4,-2,7,-3,-7,-3,5,-2
-7,-5,3,7,-4,-2,8,-3,-7,-3,5,-2
-7,-5,3,7,-4,-1,8,-3,-7,-3,5,-2
-8,-5,3,7,-4,-1,8,-3,-7,-3,5,-2
-8,-5,3,7,-4,-1,8,-3,-7,-3,5,-2
-8,-5,3,7,-5,-1,8,-4,-6,-3,4,-2
-8,-5,3,7,-5,-1,8,-4,-6,-3,4,-2
-8,-5,3,7,-5,-2,8,-4,-6,-3,3,-3
-8,-5,3,7,-5,-2,8,-4,-6,-3,3,-3
-8,-5,3,7,-5,-2,8,-4,-6,-3,3,-3
-8,-6,2,7,-5,-2,8,-4,-6,-3,3,-3
-8,-6,2,7,-4,-3,9,-4,-6,-3,3,-3
-8,-6,2,7,-4,-3,9,-4,-6,-3,3,-3
-9,-6,2,8,-5,-3,9,-4,-6,-3,3,-3
-9,-6,2,8,-5,-2,9,-4,-6,-3,4,-3
-8,-6,2,7,-4,-2,8,-4,-6,-2,4,-3
-8,-5,2,7,-4,-2,8,-4,-6,-2,4,-3
-8,-5,3,7,-5,-1,7,-4,-6,-2,4,-3
-9,-5,4,7,-6,-1,7,-4,-5,-2,4,-3
-9,-5,4,7,-6,-1,8,-4,-5,-2,4,-3
-8,-5,3,7,-5,-1,8,-4,-5,-2,4,-3
-8,-6,3,7,-5,-1,8,-4,-5,-2,4,-3
-8,-6,2,7,-4,-1,8,-4,-5,-2,4,-3
-8,-6,2,7,-4,-2,7,-4,-5,-2,4,-2
-8,-6,2,7,-4,-2,7,-3,-6,-2,4,-2
-8,-6,2,7,-4,-2,6,-3,-6,-2,4,-2
-8,-6,2,7,-4,-2,6,-3,-6,-1,4,-2
-9,-6,2,7,-4,-2,5,-3,-6,-1,4,-2
-9,-6,2,7,-4,-2,5,-3,-6,-1,4,-2
-9,-6,2,7,-5,-2,5,-3,-6,-1,4,-2
-9,-6,2,7,-5,-2,6,-3,-6,-1,4,-2
-9,-6,2,7,-5,-2,6,-3,-6,-1,4,-2
-9,-5,2,7,-5,-2,7,-3,-6,-2,4,-2
-9,-5,2,7,-5,-2,7,-3,-6,-2,4,-2
-9,-6,2,7,-5,-2,7,-3,-6,-1,4,-2
-8,-6,2,7,-4,-2,7,-3,-6,-1,4,-1
-8,-6,2,7,-4,-2,7,-3,-6,-1,4,-1
-8,-6,2,7,-4,-2,7,-3,-5,-1,4,-1
-8,-6,2,7,-4,-2,6,-3,-5,-1,4,-1
-8,-6,2,7,-4,-2,6,-3,-5,-1,4,-1
-8,-6,2,7,-4,-2,6,-3,-5,-1,4,-1
-9,-6,2,7,-4,-2,6,-3,-5,-1,4,-1
-9,-6,2,7,-4,-2,5,-3,-5,-1,4,-1
-9,-6,2,7,-4,-2,4,-3,-5,-1,4,-1
-9,-6,1,7,-4,-2,4,-3,-4,-1,4,-1
-8,-6,1,7,-4,-2,4,-3,-4,-1,4,-1
-9,-7,1,8,-4,-2,5,-3,-4,-1,4,-1
-9,-7,1,8,-4,-2,6,-3,-5,-1,4,-1
-9,-7,1,8,-4,-3,6,-3,-5,-1,3,-1
-9,-7,1,8,-4,-3,6,-4,-5,-1,3,-1
-9,-7,1,8,-4,-3,6,-4,-5,-1,3,-1
-9,-7,1,8,-4,-3,7,-4,-5,-1,3,-1
-9,-7,1,8,-4,-3,7,-4,-5,-1,3,-1
-9,-7,1,8,-4,-3,7,-4,-5,-1,2,-1
-9,-7,1,8,-4,-2,7,-4,-5,-1,2,-1
-9,-7,1,8,-4,-2,6,-4,-6,-1,2,-2
-8,-6,1,7,-4,-1,5,-4,-6,-1,2,-2
-9,-5,2,7,-5,-1,5,-4,-6,-1,2,-1
-9,-5,2,7,-5,-1,5,-4,-6,-1,2,-1
-9,-6,2,7,-5,-2,5,-4,-7,-1,2,-1
-8,-6,1,7,-4,-2,4,-4,-7,-1,2,-1
-8,-6,1,7,-3,-2,4,-4,-7,-1,1,-1
-8,-7,0,7,-3,-2,4,-4,-7,-1,1,-1
-8,-7,0,7,-4,-2,4,-4,-7,-1,1,-1
-9,-7,1,8,-4,-2,5,-4,-7,-1,1,-1
-9,-7,0,8,-4,-3,5,-4,-8,-2,1,-1
-9,-7,0,8,-4,-3,5,-4,-8,-2,0,-1
-9,-8,0,8,-3,-3,5,-4,-8,-2,0,-1
-9,-8,0,8,-3,-3,5,-4,-8,-2,1,-1
-9,-8,0,8,-3,-3,4,-5,-8,-2,1,-1
-9,-8,0,8,-3,-3,4,-5,-9,-2,1,-1
-9,-8,0,8,-3,-3,3,-5,-9,-3,1,-1
-9,-8,0,8,-3,-3,2,-5,-9,-3,1,-1
-9,-8,0,8,-3,-3,2,-5,-9,-3,1,-1
-9,-8,0,8,-3,-3,3,-5,-9,-2,1,0
-9,-8,0,8,-3,-3,3,-5,-9,-2,1,0
-9,-8,0,8,-3,-3,4,-5,-10,-3,0,-1
-9,-8,0,9,-3,-3,4,-5,-10,-3,0,-1
-9,-8,0,9,-4,-3,4,-5,-10,-2,0,-1
-9,-8,0,9,-4,-3,4,-5,-9,-2,0,-1
-9,-8,0,9,-4,-3,4,-5,-9,-2,0,-1
-9,-8,0,9,-4,-3,5,-5,-9,-3,0,-1
-9,-8,0,9,-4,-3,5,-5,-9,-3,0,-1
-9,-8,0,8,-4,-3,4,-5,-9,-3,0,-1
-9,-8,1,8,-4,-3,4,-5,-9,-3,-1,-1
-9,-8,1,8,-4,-3,4,-5,-9,-3,-1,-1
-9,-8,1,8,-4,-3,4,-6,-9,-3,-1,0
-9,-8,1,8,-4,-3,4,-6,-9,-3,-1,0
-9,-8,1,8,-4,-3,4,-6,-10,-3,-1,0
-9,-8,1,8,-4,-3,4,-6,-10,-3,-1,0
-9,-8,1,8,-4,-3,3,-6,-10,-3,-1,0
-9,-8,1,8,-4,-3,3,-6,-10,-3,-1,0
-9,-8,1,8,-4,-3,3,-6,-10,-3,-1,0
-9,-8,0,8,-4,-3,3,-6,-10,-3,-2,0
-9,-8,0,8,-4,-3,3,-6,-10,-3,-2,-1
-9,-8,0,8,-4,-3,4,-6,-10,-3,-2,-1
-9,-8,0,8,-4,-3,4,-6,-9,-2,-2,-1
-9,-8,0,8,-5,-3,5,-6,-9,-2,-2,-1
-9,-8,0,8,-5,-3,5,-6,-9,-2,-2,-1
-9,-9,0,8,-4,-4,5,-6,-9,-2,-2,-1
-9,-9,-1,8,-4,-4,5,-6,-9,-2,-2,0
-9,-9,-1,8,-4,-4,5,-6,-9,-2,-2,0
-9,-9,-1,8,-4,-4,6,-6,-8,-2,-2,0
-9,-9,-1,8,-3,-5,6,-5,-8,-2,-2,0
-9,-9,-1,9,-3,-5,6,-5,-8,-2,-2,0
-9,-9,-1,9,-4,-5,6,-5,-8,-2,-2,0
-9,-9,-1,9,-4,-5,5,-5,-9,-2,-2,0
-9,-9,-1,9,-4,-5,5,-5,-9,-2,-2,0
-9,-9,-1,9,-4,-4,5,-5,-9,-2,-2,0
-9,-9,-1,8,-4,-4,5,-5,-9,-2,-2,0
-9,-9,0,8,-4,-4,6,-5,-9,-2,-2,-1
-10,-9,0,9,-4,-4,6,-5,-9,-2,-2,-1
-10,-9,0,9,-4,-4,6,-5,-9,-2,-2,-1
-10,-8,0,9,-5,-3,5,-5,-9,-2,-2,-1
-10,-8,0,9,-5,-3,5,-5,-9,-2,-2,-1
-9,-8,0,9,-5,-3,6,-5,-9,-2,-2,-1
-9,-8,0,8,-5,-3,6,-5,-9,-2,-1,0
-10,-8,0,8,-5,-3,7,-5,-9,-2,-1,0
-10,-8,0,8,-5,-3,7,-5,-9,-2,-2,0
-10,-8,0,8,-4,-4,7,-5,-9,-2,-2,0
-9,-8,-1,8,-4,-4,7,-5,-9,-2,-2,0
-9,-8,-1,8,-4,-5,7,-5,-9,-2,-2,0
-9,-8,-1,8,-4,-5,6,-5,-9,-2,-2,-1
-9,-8,-1,8,-4,-5,6,-5,-8,-2,-2,-1
-9,-8,-1,8,-4,-5,6,-4,-8,-2,-2,-1
-9,-8,0,8,-4,-4,6,-4,-7,-2,-2,-1
-9,-8,0,8,-4,-4,7,-4,-7,-2,-2,-1
-8,-7,0,7,-4,-3,7,-3,-7,-2,-2,-1
-8,-6,0,7,-4,-3,8,-3,-6,-2,-2,-1
-8,-6,0,7,-4,-2,8,-2,-5,-2,-2,-1
-8,-5,1,7,-5,-2,9,-2,-5,-1,-2,0
-8,-5,2,7,-5,-1,10,-2,-4,-1,-2,0
-8,-4,2,6,-5,-1,10,-2,-4,-1,-2,0
-8,-4,3,6,-5,0,9,-2,-4,-1,-1,0
-8,-3,3,6,-6,0,9,-1,-4,0,0,0
-8,-3,4,5,-6,0,8,-1,-3,1,0,0
-8,-2,4,5,-6,0,8,-1,-3,1,2,1
-8,-2,4,5,-6,1,8,-1,-3,2,3,1
-7,-2,3,5,-6,1,8,-1,-3,2,3,1
-7,-1,3,5,-6,1,8,0,-2,1,3,1
-7,-1,4,4,-6,1,8,0,-2,1,3,2
-7,-1,4,4,-6,1,8,-1,-2,1,2,2
-7,-1,5,4,-7,1,8,-1,-3,1,2,2
-7,-1,5,4,-7,1,8,-2,-3,1,2,2
-7,-1,5,4,-6,1,7,-2,-4,1,2,2
-6,-1,5,4,-6,2,6,-2,-3,1,2,2
-6,0,5,3,-6,2,6,-2,-3,2,3,2
-6,0,5,3,-5,2,6,-3,-3,2,3,2
-6,0,5,3,-5,2,5,-3,-3,1,3,2
-6,0,5,3,-6,2,4,-3,-4,1,3,2
-6,-1,4,3,-6,1,3,-4,-5,1,3,1
-6,-1,4,3,-6,1,2,-4,-6,1,2,1
-6,-1,4,3,-6,1,2,-4,-6,1,2,1
-6,0,4,3,-6,2,2,-4,-6,1,2,2
-5,0,4,2,-5,2,2,-5,-6,1,2,2
-4,0,4,2,-5,2,1,-5,-6,1,2,3
-3,0,3,1,-4,2,1,-6,-7,1,2,3
-3,0,2,1,-4,1,1,-6,-7,1,2,3
-2,0,1,1,-3,0,0,-6,-7,0,1,3
-2,-1,0,1,-2,-1,-1,-5,-7,0,0,2
-2,-2,-1,1,-1,-2,-2,-5,-8,0,0,1
-2,-3,-2,2,0,-3,-2,-5,-8,-1,-1,0
-3,-4,-2,3,0,-4,0,-5,-8,-2,-2,0
-4,-5,-2,4,0,-4,1,-5,-8,-3,-2,-1
-4,-6,-2,5,0,-4,1,-5,-8,-3,-2,-2
-5,-6,-1,5,-1,-4,2,-4,-8,-3,-2,-2
-6,-6,0,5,-3,-3,2,-3,-7,-2,-1,-2
-6,-6,0,5,-3,-3,2,-2,-7,-2,-1,-3
-6,-6,0,5,-3,-3,2,-2,-7,-2,-1,-3
-7,-6,0,6,-3,-3,2,-3,-8,-2,-1,-4
-7,-7,0,6,-3,-4,2,-3,-8,-3,-2,-5
-8,-7,0,7,-3,-4,2,-3,-9,-4,-2,-5
-8,-7,0,7,-3,-4,2,-4,-10,-4,-2,-6
-8,-7,0,7,-3,-4,2,-4,-10,-4,-2,-6
-8,-8,0,8,-3,-4,2,-4,-10,-4,-2,-6
-8,-8,-1,8,-3,-5,2,-4,-10,-4,-3,-6
-8,-9,-2,8,-3,-5,2,-4,-10,-4,-4,-6
-8,-9,-2,8,-2,-6,2,-4,-10,-4,-5,-6
-8,-9,-3,8,-3,-6,1,-4,-10,-5,-5,-6
-8,-9,-3,9,-3,-7,1,-4,-10,-5,-6,-6
-8,-10,-3,9,-3,-7,0,-4,-10,-6,-6,-6
-8,-11,-3,9,-2,-7,0,-4,-11,-6,-6,-6
-8,-11,-4,10,-2,-8,0,-4,-11,-6,-6,-6
-8,-11,-4,10,-2,-8,0,-3,-11,-6,-6,-5
-8,-11,-4,10,-2,-8,0,-3,-11,-6,-6,-5
-8,-11,-3,10,-2,-8,0,-3,-11,-6,-6,-5
-9,-11,-3,10,-3,-8,0,-3,-10,-5,-5,-4
-9,-11,-3,10,-3,-8,0,-2,-9,-5,-5,-4
-8,-11,-3,9,-3,-8,0,-2,-8,-5,-5,-4
-8,-11,-3,9,-2,-8,1,-1,-8,-5,-6,-4
-9,-11,-3,9,-2,-8,1,-1,-9,-6,-7,-5
-9,-11,-3,10,-2,-8,2,-1,-9,-6,-7,-5
-9,-11,-4,10,-2,-8,2,-1,-9,-6,-7,-5
-9,-11,-4,10,-2,-8,2,-1,-9,-6,-7,-6
-9,-11,-4,10,-2,-8,3,-1,-9,-6,-6,-6
-9,-11,-4,10,-3,-8,3,-1,-9,-6,-6,-6
-9,-11,-3,10,-3,-8,3,-1,-9,-5,-6,-6
-9,-11,-2,10,-3,-7,4,0,-8,-4,-6,-6
-9,-10,-1,10,-4,-6,5,2,-6,-2,-5,-6
-10,-9,1,10,-6,-4,7,5,-3,0,-3,-5
-11,-7,3,9,-8,-2,10,8,0,3,-1,-5
-12,-6,5,9,-9,-1,12,14,6,8,2,-3
-11,-5,6,8,-9,0,15,22,13,13,6,-1
-10,-4,5,6,-8,0,17,31,21,19,12,1
-7,-4,2,5,-5,0,17,38,28,26,18,4
-2,-3,-1,2,-1,-1,16,42,35,32,25,9
3,-1,-5,-1,4,-3,12,40,40,39,34,17
10,0,-9,-5,10,-5,6,33,43,46,44,26
17,1,-16,-10,17,-7,-1,21,43,51,53,35
26,3,-23,-15,24,-10,-11,7,42,55,62,46
35,6,-29,-21,32,-12,-22,-6,40,58,70,56
43,9,-35,-26,39,-13,-32,-20,36,59,75,65
49,13,-37,-31,43,-12,-40,-36,29,57,77,71
52,15,-38,-34,45,-11,-46,-52,18,50,72,71
53,13,-41,-34,47,-14,-49,-64,6,38,58,64
52,7,-46,-29,48,-20,-50,-73,-5,23,38,51
48,-1,-49,-23,48,-25,-50,-82,-18,7,17,36
42,-7,-50,-17,46,-29,-49,-93,-35,-9,0,24
35,-12,-48,-11,41,-30,-49,-106,-56,-25,-16,13
26,-16,-42,-5,34,-29,-49,-120,-79,-42,-31,2
16,-18,-35,1,25,-27,-49,-134,-104,-60,-44,-8
7,-20,-29,6,17,-25,-48,-143,-124,-75,-56,-18
0,-23,-24,11,12,-24,-45,-146,-136,-87,-65,-26
-6,-26,-22,16,7,-25,-42,-144,-140,-94,-72,-33
-10,-29,-20,20,4,-25,-39,-137,-139,-98,-77,-37
-13,-31,-18,22,2,-25,-37,-129,-134,-97,-78,-39
-16,-31,-15,23,0,-23,-34,-119,-125,-93,-75,-40
-18,-30,-13,24,-2,-22,-30,-108,-115,-87,-71,-39
-18,-29,-12,24,-3,-21,-26,-96,-103,-79,-66,-37
-18,-29,-12,23,-3,-21,-22,-83,-92,-72,-61,-36
-17,-28,-12,23,-2,-20,-19,-71,-82,-64,-55,-34
-16,-27,-11,21,-2,-19,-15,-59,-72,-56,-49,-31
-15,-25,-11,19,-2,-18,-12,-48,-62,-49,-43,-29
-13,-23,-11,17,-1,-17,-8,-37,-53,-42,-38,-27
-11,-21,-11,16,0,-16,-5,-28,-44,-36,-33,-25
-10,-19,-10,14,0,-15,-3,-21,-36,-31,-30,-23
-9,-17,-9,13,0,-14,-1,-14,-29,-26,-26,-21
-8,-15,-8,12,0,-13,0,-9,-23,-21,-22,-19
-8,-14,-7,11,0,-11,1,-4,-18,-17,-19,-18
-7,-12,-6,10,0,-10,2,-1,-14,-13,-16,-16
-7,-11,-5,9,-1,-9,3,1,-11,-10,-14,-15
-7,-11,-5,9,-1,-8,4,2,-9,-9,-13,-13
-6,-10,-5,8,-1,-8,5,4,-7,-8,-12,-11
-5,-9,-5,7,-1,-7,5,5,-5,-7,-12,-10
-5,-9,-4,7,0,-7,5,6,-3,-6,-11,-10
-5,-9,-4,7,0,-7,5,7,-1,-5,-10,-9
-5,-9,-5,7,0,-7,5,8,0,-4,-9,-9
-6,-9,-4,7,0,-6,6,8,0,-3,-8,-8
-6,-8,-4,7,-1,-6,6,9,1,-2,-7,-8
-6,-8,-3,7,-1,-6,6,9,1,-1,-6,-8
-6,-8,-3,6,-1,-6,6,10,2,0,-6,-7
-5,-7,-3,6,-1,-5,6,10,3,0,-5,-7
-5,-7,-3,6,-1,-5,6,10,4,0,-5,-7
-5,-6,-3,6,-1,-5,5,11,4,0,-5,-7
-5,-6,-3,6,0,-5,5,11,5,0,-5,-8
-5,-6,-3,6,0,-5,5,12,5,1,-5,-8
-5,-6,-3,6,0,-5,5,12,6,1,-5,-8
-5,-6,-3,6,0,-5,4,12,6,1,-5,-8
-5,-6,-2,5,-1,-4,5,12,6,1,-5,-8
-5,-6,-2,5,-1,-4,6,13,7,2,-5,-8
-5,-6,-2,5,-1,-4,6,13,8,2,-5,-8
-5,-6,-2,5,-1,-4,7,13,8,2,-5,-8
-5,-6,-2,5,-1,-4,8,13,9,2,-5,-7
-5,-6,-2,5,-1,-4,8,13,9,2,-5,-7
-5,-5,-2,5,-1,-4,8,14,9,3,-4,-6
-5,-5,-2,5,-1,-4,8,15,10,3,-4,-6
-5,-5,-2,5,0,-4,8,15,10,3,-4,-5
-4,-5,-3,5,0,-5,7,15,11,3,-4,-5
-4,-6,-3,5,0,-5,6,15,11,3,-3,-5
-3,-6,-4,4,1,-5,6,16,11,3,-3,-5
-3,-6,-4,4,1,-5,6,16,12,4,-3,-5
-3,-6,-5,4,1,-6,6,16,12,4,-3,-5
-2,-6,-5,4,2,-6,6,16,13,4,-2,-5
-2,-5,-4,3,2,-5,5,17,13,5,-2,-5
-3,-5,-4,3,1,-5,5,17,14,5,-2,-4
-3,-5,-3,3,1,-4,4,17,14,5,-2,-4
-3,-5,-3,3,1,-4,4,17,14,5,-2,-4
-2,-5,-3,3,1,-4,3,17,14,5,-2,-4
-2,-5,-3,3,1,-4,3,17,14,5,-2,-4
-2,-4,-3,2,1,-4,2,17,14,5,-2,-4
-1,-3,-3,2,1,-3,2,17,14,5,-2,-4
-1,-3,-4,2,2,-3,2,17,14,6,-2,-4
-1,-3,-4,2,2,-3,2,17,14,6,-2,-5
-1,-3,-4,2,2,-3,1,18,14,6,-2,-5
-1,-3,-4,2,2,-3,1,18,15,6,-1,-5
-1,-3,-3,2,2,-3,1,19,16,7,-1,-4
-1,-3,-3,2,1,-3,1,19,16,7,-1,-4
-1,-3,-3,2,1,-4,1,20,17,7,-1,-4
-1,-3,-3,2,1,-4,1,20,17,7,-1,-4
0,-3,-4,1,2,-4,1,20,18,7,-1,-4
0,-2,-4,1,2,-4,1,20,18,7,-1,-4
0,-2,-4,1,2,-4,1,21,19,8,0,-4
0,-2,-4,0,3,-4,0,21,19,8,0,-3
1,-1,-4,0,3,-4,0,21,20,8,0,-3
1,-1,-4,0,3,-3,0,21,20,8,1,-2
2,0,-4,-1,3,-3,0,22,21,9,1,-2
2,0,-4,-1,4,-3,0,22,22,9,1,-2
2,0,-4,-1,4,-3,0,23,22,9,1,-1
2,0,-4,-1,4,-3,0,23,23,10,1,-1
2,0,-4,-1,4,-3,-1,24,23,10,2,0
3,0,-5,-2,4,-3,-2,24,23,10,2,0
3,0,-5,-2,4,-3,-2,25,24,11,2,0
4,0,-5,-2,5,-3,-3,25,25,11,3,0
4,0,-5,-3,5,-3,-3,26,26,11,3,0
5,1,-5,-3,6,-3,-3,26,26,12,3,0
5,2,-5,-4,6,-2,-4,27,27,12,4,0
6,3,-5,-5,6,-2,-5,27,27,13,4,1
7,3,-5,-5,6,-2,-5,28,28,13,5,1
7,4,-5,-6,6,-2,-6,29,29,14,6,2
8,4,-6,-6,7,-2,-6,30,31,15,6,2
9,4,-6,-7,8,-1,-6,31,32,15,7,3
9,4,-6,-7,8,-1,-6,32,32,16,7,4
10,4,-6,-7,9,-1,-7,33,33,16,8,5
11,5,-7,-8,9,-1,-8,34,34,17,9,6
12,5,-8,-9,10,-2,-9,35,36,17,10,8
13,5,-9,-9,11,-2,-9,36,37,18,11,9
13,5,-9,-10,11,-2,-9,37,38,18,11,9
14,5,-9,-10,12,-2,-9,38,39,19,12,10
14,6,-9,-11,12,-2,-9,40,40,21,13,11
15,6,-9,-11,13,-2,-9,41,42,22,14,12
16,7,-10,-12,13,-2,-8,43,43,23,15,13
17,7,-10,-13,14,-2,-8,44,44,23,15,14
18,8,-11,-14,15,-2,-8,45,45,24,16,15
19,9,-11,-15,15,-2,-9,45,46,24,17,16
20,10,-12,-16,16,-1,-9,46,47,24,17,17
21,10,-12,-17,17,-1,-10,47,48,25,18,18
22,11,-13,-17,17,-1,-10,47,49,26,19,19
23,11,-13,-17,18,-1,-11,48,50,27,20,20
23,12,-13,-18,18,-1,-11,49,51,28,22,21
24,13,-13,-18,18,0,-12,50,52,29,23,22
24,13,-13,-19,18,0,-12,50,52,29,24,23
25,14,-13,-20,19,0,-13,51,53,30,25,24
25,14,-13,-20,19,0,-13,51,54,30,25,24
26,14,-13,-21,20,0,-14,51,54,30,26,25
26,14,-13,-21,20,0,-15,51,54,30,26,25
27,15,-13,-21,21,0,-15,51,54,31,27,26
27,15,-13,-21,21,0,-15,52,54,31,27,26
28,15,-14,-22,21,0,-15,52,54,31,27,26
28,15,-14,-22,21,0,-16,52,54,31,27,26
28,15,-14,-22,22,0,-16,52,54,31,27,27
28,15,-14,-22,22,0,-16,52,54,31,27,28
28,15,-14,-22,22,0,-17,51,54,31,27,28
28,15,-14,-22,22,0,-17,51,54,31,27,29
28,15,-14,-22,22,0,-16,50,53,31,27,29
28,15,-14,-22,22,0,-16,50,53,31,27,29
28,15,-14,-22,22,0,-16,49,52,30,27,29
27,14,-14,-21,21,0,-16,48,51,30,26,28
26,14,-14,-20,20,0,-16,47,50,29,25,28
25,13,-13,-20,19,0,-16,45,48,28,24,27
24,13,-13,-19,18,0,-15,43,47,27,24,26
23,13,-12,-19,18,0,-15,41,45,27,23,24
22,12,-11,-18,17,0,-14,39,43,26,22,23
21,12,-11,-18,17,0,-14,38,42,25,21,21
20,12,-10,-17,16,0,-13,36,40,24,19,20
18,11,-10,-15,14,0,-11,34,38,22,17,18
16,10,-9,-14,13,0,-10,32,36,21,16,17
15,9,-8,-13,12,0,-9,29,33,19,14,15
14,8,-7,-12,11,0,-9,27,31,17,12,14
12,7,-7,-10,10,0,-9,25,28,16,10,12
11,6,-6,-9,9,-1,-9,22,26,15,9,10
10,5,-6,-8,8,-1,-8,20,25,14,7,8
9,4,-6,-7,8,-1,-7,18,23,12,6,7
8,3,-6,-6,7,-2,-7,16,20,11,5,5
6,2,-5,-5,6,-2,-6,14,18,9,3,4
5,2,-5,-4,5,-2,-6,12,16,8,2,3
4,1,-4,-3,4,-2,-5,10,14,7,1,2
3,1,-4,-2,3,-2,-5,9,12,6,0,1
3,0,-4,-2,3,-2,-5,7,11,4,-1,0
2,0,-3,-1,2,-2,-5,5,9,3,-2,-1
1,0,-3,0,2,-2,-5,4,8,2,-2,-2
0,-1,-2,0,1,-2,-5,3,7,1,-3,-2
0,-1,-2,0,1,-3,-5,2,6,0,-3,-3
-1,-2,-2,1,1,-3,-5,1,5,0,-4,-3
-1,-2,-2,1,0,-3,-5,0,4,0,-4,-3
-2,-3,-3,2,0,-3,-4,-1,3,-1,-5,-4
-2,-4,-3,2,0,-4,-4,-2,2,-2,-6,-5
-2,-4,-3,3,0,-4,-4,-2,2,-2,-7,-6
-2,-4,-3,3,0,-4,-4,-2,2,-2,-8,-6
-3,-4,-3,3,0,-4,-4,-2,2,-2,-8,-7
-3,-4,-3,3,0,-4,-4,-3,1,-2,-8,-7
-3,-4,-3,3,0,-4,-4,-3,1,-3,-8,-7
-2,-4,-4,3,0,-4,-4,-4,0,-3,-8,-7
-3,-5,-4,3,0,-4,-4,-4,0,-4,-8,-7
-3,-5,-3,3,0,-4,-4,-4,0,-4,-8,-7
-3,-5,-3,3,0,-4,-5,-5,0,-4,-7,-7
-3,-5,-3,3,0,-5,-5,-5,0,-4,-7,-7
-2,-6,-4,3,0,-5,-5,-5,0,-4,-6,-7
-2,-6,-4,4,1,-6,-5,-5,-1,-4,-6,-8
-3,-6,-4,4,1,-6,-4,-5,-1,-4,-5,-8
-3,-6,-4,4,0,-6,-3,-5,-1,-4,-5,-8
-3,-6,-4,4,0,-6,-2,-5,-1,-4,-5,-8
-4,-7,-4,4,0,-6,-2,-5,-1,-5,-5,-9
-4,-7,-4,5,0,-6,-2,-5,-1,-5,-6,-9
-4,-7,-5,5,0,-6,-2,-5,-1,-6,-6,-9
-4,-7,-5,5,0,-6,-2,-5,-1,-6,-6,-9
-4,-7,-5,5,0,-6,-2,-5,-1,-6,-5,-10
-4,-8,-5,6,0,-6,-2,-5,-1,-6,-5,-10
-4,-8,-5,6,0,-6,-2,-5,-1,-6,-5,-10
-4,-8,-5,5,0,-6,-2,-5,-1,-6,-4,-10
-4,-8,-5,5,0,-6,-2,-5,-1,-6,-3,-10
-4,-8,-5,5,0,-6,-2,-5,-1,-5,-3,-10
-4,-8,-5,5,0,-6,-2,-5,-1,-5,-2,-10
-4,-7,-5,5,0,-6,-2,-5,-1,-5,-2,-10
-4,-7,-5,5,0,-6,-2,-4,-1,-5,-2,-10
-4,-7,-5,5,0,-6,-2,-4,0,-5,-2,-10
-4,-7,-5,5,0,-6,-1,-4,0,-5,-2,-10
-3,-7,-5,5,0,-6,-1,-4,0,-5,-2,-10
-3,-7,-5,5,0,-6,-1,-4,0,-5,-2,-10
-3,-7,-5,5,0,-6,-1,-4,0,-5,-1,-9
-4,-7,-5,5,0,-6,-1,-3,0,-5,-1,-9
-4,-7,-5,5,0,-6,0,-3,0,-5,-1,-9
-4,-7,-5,5,0,-6,0,-3,0,-4,-1,-9
-4,-8,-5,5,0,-6,0,-3,0,-4,-1,-9
-4,-8,-5,6,0,-6,1,-3,1,-4,-1,-9
-4,-8,-5,6,0,-6,1,-3,1,-4,-1,-8
-4,-7,-5,5,0,-6,2,-3,2,-4,-1,-8
-4,-7,-5,5,0,-6,2,-3,2,-4,-1,-8
-4,-7,-5,5,0,-6,3,-3,2,-4,-1,-8
-4,-7,-5,5,0,-6,3,-3,1,-4,-1,-8
-4,-7,-5,5,0,-6,3,-3,1,-4,0,-8
-4,-7,-5,5,0,-6,3,-3,1,-4,0,-8
-3,-7,-5,5,0,-6,3,-3,1,-4,0,-8
-3,-7,-5,5,0,-6,3,-3,2,-3,0,-8
-3,-7,-5,5,0,-6,3,-3,2,-3,0,-8
-3,-7,-4,5,0,-6,3,-2,3,-3,0,-8
-3,-7,-4,5,-1,-6,3,-2,3,-3,0,-8
-4,-7,-4,5,-1,-5,4,-2,3,-3,0,-8
-4,-7,-4,5,-1,-5,4,-2,3,-3,0,-8
-4,-7,-4,5,-1,-5,4,-2,3,-3,0,-8
-4,-7,-4,5,-1,-5,4,-2,3,-3,0,-8
-4,-7,-4,5,-1,-5,4,-2,3,-3,0,-8
-4,-6,-4,5,-1,-5,4,-2,3,-3,0,-8
-4,-6,-4,5,-1,-5,4,-2,3,-3,0,-8
-3,-6,-4,4,-1,-5,3,-2,3,-3,0,-7
-3,-6,-4,4,-1,-5,3,-2,3,-2,0,-7
-3,-5,-4,4,-1,-5,3,-2,3,-2,0,-7
-3,-5,-4,4,-1,-5,3,-2,3,-2,0,-8
-3,-5,-4,4,-1,-5,3,-2,3,-2,0,-8
-3,-5,-4,4,-1,-5,3,-3,3,-2,0,-8
-3,-5,-4,4,-1,-5,4,-3,3,-2,1,-8
-4,-5,-4,4,-1,-5,4,-3,3,-2,1,-8
-4,-5,-4,4,-1,-5,5,-3,3,-2,1,-8
-3,-5,-4,4,-1,-5,5,-3,3,-2,1,-8
-3,-6,-4,4,-1,-5,4,-3,3,-2,1,-7
-3,-6,-4,4,-1,-5,4,-3,3,-2,1,-7
-4,-6,-4,4,-1,-5,4,-3,2,-2,1,-7
-4,-5,-3,4,-1,-4,4,-3,2,-2,1,-7
-4,-5,-3,4,-1,-4,4,-4,1,-2,1,-7
-4,-5,-3,4,-1,-4,5,-4,1,-2,1,-7
-4,-5,-3,4,-1,-4,5,-4,1,-2,1,-8
-4,-5,-3,4,-1,-4,4,-4,1,-2,1,-8
-3,-5,-3,4,-1,-4,3,-4,1,-2,1,-8
-3,-5,-3,4,-1,-4,3,-5,1,-2,0,-8
-3,-5,-3,4,-1,-4,3,-5,1,-3,0,-8
-3,-5,-3,4,-1,-4,4,-5,1,-3,0,-8
-3,-5,-4,3,0,-4,4,-5,1,-3,0,-8
-3,-5,-4,3,0,-4,3,-5,1,-3,0,-8
-3,-5,-4,3,0,-4,4,-5,0,-3,0,-8
-2,-5,-4,3,0,-4,4,-5,0,-3,0,-8
-2,-5,-4,3,0,-4,5,-5,0,-3,1,-8
-2,-5,-4,3,0,-4,4,-5,0,-3,1,-8
-3,-5,-4,3,0,-4,4,-6,0,-3,1,-8
-3,-5,-4,4,0,-4,4,-6,0,-3,1,-8
-3,-5,-3,4,-1,-4,4,-6,0,-3,1,-8
-3,-5,-3,4,-1,-4,4,-6,0,-3,1,-8
-3,-5,-3,4,-1,-4,4,-6,0,-4,1,-8
-3,-5,-3,4,-1,-4,3,-6,0,-4,1,-8
-3,-5,-3,4,-1,-5,3,-6,0,-4,1,-8
-3,-5,-3,4,-1,-5,3,-6,0,-4,1,-8
-4,-5,-3,4,-1,-5,3,-6,0,-4,1,-8
-3,-5,-3,4,-1,-5,3,-6,-1,-4,1,-8
-3,-4,-3,4,-1,-4,3,-6,-1,-4,1,-8
-3,-4,-3,4,-1,-4,3,-7,-1,-4,1,-7
-3,-4,-3,4,-1,-4,3,-7,-1,-4,1,-7
-3,-4,-3,4,-1,-4,3,-7,-1,-4,1,-7
-3,-4,-2,3,-1,-4,3,-7,-1,-4,1,-7
-3,-4,-2,3,-1,-4,3,-7,-1,-4,1,-7
-3,-4,-2,4,-2,-4,2,-7,-1,-4,1,-7
-3,-4,-2,4,-2,-4,2,-7,-2,-5,1,-7
-4,-4,-2,4,-2,-3,3,-7,-2,-5,1,-7
-4,-4,-2,4,-2,-3,3,-7,-2,-5,1,-7
-4,-4,-2,4,-2,-3,3,-7,-2,-5,1,-7
-4,-4,-2,4,-2,-3,3,-8,-2,-5,1,-8
-4,-4,-2,4,-2,-3,3,-8,-3,-5,1,-8
-3,-4,-2,4,-2,-3,3,-8,-3,-5,1,-8
-3,-4,-2,4,-2,-3,3,-8,-3,-5,1,-8
-2,-4,-2,3,-1,-3,3,-8,-3,-5,1,-8
-2,-4,-2,3,-1,-3,3,-8,-3,-5,1,-8
-2,-4,-2,3,-1,-3,3,-8,-3,-5,1,-8
-2,-4,-2,3,-1,-3,3,-8,-3,-6,1,-8
-2,-4,-2,3,-1,-3,2,-8,-3,-6,1,-8
-2,-4,-2,3,-1,-3,2,-8,-3,-6,1,-8
-2,-4,-2,3,-1,-3,2,-8,-3,-6,1,-8
-2,-4,-2,3,-1,-3,2,-8,-3,-6,1,-8
-2,-4,-2,3,-2,-3,2,-8,-3,-6,1,-8
-3,-4,-1,3,-2,-3,2,-8,-3,-6,1,-8
-3,-4,-1,3,-2,-3,1,-8,-3,-6,1,-8
-3,-4,-1,3,-2,-3,1,-8,-3,-6,0,-8
-3,-4,-1,3,-2,-3,1,-8,-3,-6,0,-8
-3,-4,-1,3,-2,-3,2,-8,-3,-6,0,-8
-3,-4,-1,3,-2,-3,2,-8,-3,-6,0,-8
-3,-4,-1,3,-2,-2,2,-8,-3,-6,0,-8
-3,-4,-1,3,-2,-2,3,-8,-3,-6,0,-8
-3,-4,-1,3,-2,-2,3,-8,-4,-6,-1,-8
-3,-4,-1,3,-2,-2,4,-8,-5,-6,-1,-8
-2,-4,-1,3,-2,-2,4,-8,-5,-6,-1,-8
-3,-4,0,3,-2,-2,4,-8,-6,-6,0,-8
-3,-4,0,3,-2,-2,4,-8,-6,-6,0,-7
-3,-4,0,3,-2,-2,4,-8,-6,-6,0,-7
-3,-4,0,3,-2,-2,3,-9,-7,-6,0,-7
-3,-4,0,3,-2,-2,2,-9,-7,-6,0,-7
-3,-4,0,3,-2,-2,2,-9,-7,-6,0,-7
-2,-3,0,3,-2,-2,2,-9,-8,-6,0,-7
-2,-3,0,3,-2,-2,3,-9,-8,-6,0,-7
-3,-4,0,4,-2,-2,4,-9,-8,-6,0,-8
-3,-4,-1,4,-2,-2,4,-9,-9,-6,0,-8
-3,-4,-1,3,-2,-2,4,-9,-9,-6,0,-8
-3,-4,-1,3,-2,-2,5,-9,-9,-6,0,-8
-3,-4,-1,3,-2,-2,5,-9,-9,-6,0,-8
-3,-4,-1,3,-2,-2,5,-9,-9,-6,0,-8
-3,-4,0,3,-2,-2,5,-9,-9,-6,0,-8
-3,-3,0,3,-2,-2,5,-9,-9,-6,0,-8
-3,-3,0,3,-2,-2,5,-9,-9,-7,0,-7
-3,-3,0,3,-2,-2,5,-9,-9,-7,0,-7
-3,-3,0,3,-2,-2,5,-9,-9,-7,0,-7
-2,-3,0,3,-1,-2,5,-9,-9,-7,0,-7
-2,-2,0,3,-1,-1,6,-8,-9,-7,0,-7
-2,-2,0,2,-1,-1,6,-8,-9,-7,0,-7
-2,-1,0,2,-1,0,6,-8,-8,-7,0,-6
-2,-1,0,2,-2,0,6,-7,-8,-6,0,-6
-2,0,1,2,-2,0,6,-7,-7,-6,1,-5
-2,0,1,2,-2,1,6,-6,-6,-5,1,-5
-2,0,2,1,-2,1,6,-6,-6,-5,1,-5
-2,0,2,1,-3,2,7,-6,-5,-5,2,-5
-2,1,3,1,-3,2,7,-6,-5,-5,2,-5
-2,1,4,1,-4,3,7,-6,-5,-5,2,-5
-2,2,4,1,-4,3,7,-5,-4,-4,2,-5
-2,2,4,0,-4,3,7,-5,-4,-4,2,-5
-2,3,5,0,-4,4,7,-5,-4,-3,2,-5
-2,3,5,0,-4,4,7,-5,-4,-3,2,-5
-2,3,5,0,-4,4,7,-6,-4,-3,2,-5
-2,3,5,0,-4,4,8,-6,-4,-3,2,-4
-1,4,6,-1,-4,5,8,-6,-4,-3,2,-4
-1,4,6,-1,-5,5,8,-6,-4,-3,2,-4
-1,5,7,-1,-5,6,8,-7,-5,-3,2,-4
-1,5,7,-1,-5,6,8,-8,-5,-3,2,-4
-1,6,8,-1,-5,6,8,-8,-5,-3,1,-4
-1,6,8,-1,-5,6,7,-8,-5,-3,1,-4
-1,6,8,-1,-5,7,7,-8,-5,-3,1,-4
-1,6,8,-2,-5,7,7,-8,-5,-3,1,-4
0,6,7,-2,-5,7,6,-9,-5,-3,1,-4
0,6,7,-2,-5,7,5,-9,-6,-3,1,-4
0,6,7,-2,-5,7,5,-10,-7,-4,1,-4
0,6,7,-2,-5,7,4,-11,-7,-5,0,-4
0,6,7,-2,-4,7,4,-12,-8,-5,0,-4
0,6,7,-2,-4,7,3,-12,-8,-5,0,-3
0,7,7,-3,-4,7,3,-12,-8,-5,0,-3
1,7,7,-3,-3,7,2,-12,-8,-5,1,-2
1,7,7,-4,-3,7,0,-12,-8,-5,1,-2
1,7,6,-4,-2,7,0,-12,-8,-5,1,-2
2,7,5,-4,-2,6,-1,-12,-9,-5,1,-2
2,6,4,-4,-1,4,-1,-12,-9,-5,0,-2
3,5,2,-4,0,3,-1,-12,-10,-6,0,-3
3,4,0,-4,1,2,-1,-12,-10,-6,0,-3
3,3,0,-3,1,1,-1,-12,-10,-7,0,-4
2,2,0,-2,1,1,-1,-12,-10,-7,-1,-4
2,1,0,-1,0,0,0,-12,-11,-8,-2,-5
1,0,0,0,0,0,0,-11,-11,-8,-2,-5
0,0,0,0,0,0,1,-11,-10,-8,-1,-4
0,0,1,0,-1,1,2,-11,-10,-8,-1,-4
0,0,1,0,-1,1,2,-11,-10,-7,0,-4
-1,0,1,0,-2,1,3,-11,-10,-7,0,-4
-1,0,1,1,-2,1,3,-11,-10,-7,-1,-4
-2,0,1,1,-2,1,3,-11,-10,-8,-1,-4
-2,-1,1,2,-2,0,3,-11,-11,-8,-2,-5
-2,-1,1,2,-2,0,2,-11,-11,-8,-2,-5
-2,-1,1,2,-2,0,2,-11,-11,-8,-2,-5
-2,-2,1,3,-2,0,1,-11,-11,-8,-3,-6
-3,-2,0,3,-2,-1,1,-11,-11,-8,-3,-6
-3,-2,0,3,-2,-1,2,-11,-11,-8,-4,-6
-3,-2,0,3,-2,-1,2,-11,-12,-8,-4,-7
-3,-2,0,3,-2,-1,3,-11,-12,-9,-5,-7
-3,-3,0,3,-2,-1,3,-11,-13,-9,-5,-8
-3,-3,0,3,-2,-1,3,-11,-13,-9,-5,-8
-3,-3,0,3,-2,-1,2,-12,-13,-10,-5,-9
-3,-3,0,3,-2,-2,2,-12,-13,-10,-6,-9
-3,-3,0,4,-2,-1,1,-12,-13,-10,-6,-9
-4,-3,0,4,-2,-1,1,-12,-13,-10,-6,-8
-4,-3,1,4,-2,-1,1,-11,-13,-10,-6,-8
-4,-3,1,4,-2,-1,1,-11,-13,-10,-6,-8
-4,-3,1,4,-2,-1,0,-11,-13,-10,-6,-8
-4,-3,1,4,-2,-1,0,-11,-13,-9,-6,-8
-4,-3,1,4,-2,-1,1,-10,-12,-9,-6,-7
-4,-3,1,4,-3,-1,2,-10,-12,-8,-6,-7
-4,-3,1,4,-3,-1,2,-10,-12,-8,-6,-7
-4,-3,0,4,-2,-1,2,-10,-12,-8,-6,-7
-4,-3,0,3,-2,-1,2,-10,-12,-8,-6,-7
-4,-3,0,3,-2,-1,1,-10,-12,-8,-6,-7
-4,-3,1,3,-2,-1,1,-10,-12,-8,-6,-7
-4,-2,1,4,-3,0,2,-9,-11,-8,-6,-7
-5,-2,2,4,-4,0,3,-8,-10,-7,-6,-7
-6,-2,4,4,-5,1,5,-6,-8,-6,-5,-7
-6,0,6,4,-7,3,7,-4,-5,-3,-4,-7
-7,1,9,3,-8,6,9,0,-1,1,-1,-6
-7,3,11,3,-9,7,12,7,6,7,3,-4
-6,5,11,2,-9,8,15,16,14,14,8,-2
-4,6,10,0,-7,8,16,24,23,21,14,1
-1,7,8,-1,-5,7,16,30,31,28,22,6
3,8,4,-5,-1,7,13,30,37,36,31,14
10,10,0,-9,4,6,8,25,41,43,41,23
17,12,-5,-14,10,4,0,15,42,50,51,32
26,14,-11,-20,18,2,-8,3,42,55,61,43
34,17,-17,-25,25,1,-18,-10,41,60,70,53
43,21,-21,-31,32,0,-27,-24,39,63,78,63
49,24,-24,-36,36,0,-35,-39,33,63,82,70
53,28,-25,-40,39,1,-43,-55,24,58,80,74
54,27,-27,-41,40,0,-48,-69,13,49,70,72
54,22,-32,-38,43,-5,-50,-79,2,34,53,62
52,13,-39,-32,45,-12,-51,-86,-10,18,32,48
49,6,-43,-27,45,-18,-51,-96,-26,1,12,34
44,0,-43,-21,43,-21,-52,-107,-46,-17,-5,23
36,-4,-41,-15,38,-23,-53,-121,-69,-36,-21,12
27,-9,-36,-8,31,-23,-53,-136,-96,-55,-37,0
17,-13,-31,-1,24,-22,-52,-149,-121,-74,-51,-10
9,-16,-26,5,17,-22,-50,-155,-138,-89,-63,-19
3,-20,-23,9,12,-22,-49,-155,-145,-98,-71,-27
-2,-23,-21,13,9,-22,-47,-149,-146,-103,-76,-33
-5,-25,-20,16,6,-22,-45,-141,-143,-104,-78,-36
-7,-25,-18,17,4,-21,-42,-131,-135,-101,-77,-38
-9,-25,-16,18,3,-20,-38,-119,-125,-95,-74,-38
-10,-24,-14,18,1,-19,-33,-107,-113,-86,-69,-37
-10,-23,-12,17,0,-17,-28,-94,-101,-77,-63,-36
-10,-22,-11,17,0,-16,-24,-82,-89,-69,-57,-34
-10,-20,-10,15,0,-15,-20,-69,-78,-60,-50,-31
-9,-17,-9,14,0,-13,-17,-57,-67,-52,-44,-28
-7,-15,-9,12,0,-11,-13,-45,-57,-45,-38,-25
-5,-14,-8,10,1,-10,-10,-35,-49,-39,-34,-23
-5,-12,-7,9,1,-9,-7,-27,-40,-33,-30,-21
-4,-11,-6,8,1,-9,-4,-20,-33,-27,-26,-19
-4,-9,-5,7,1,-8,-2,-14,-26,-22,-22,-17
-3,-8,-5,7,1,-7,0,-9,-21,-18,-19,-15
-3,-7,-4,6,0,-6,0,-6,-17,-14,-16,-13
-3,-6,-4,6,0,-5,0,-4,-15,-12,-14,-12
-3,-5,-3,5,0,-4,1,-2,-13,-10,-12,-10
-2,-4,-2,4,-1,-3,2,-1,-11,-9,-11,-9
-2,-3,-1,4,-1,-2,3,0,-9,-8,-10,-8
-2,-3,0,3,-1,-2,3,1,-7,-7,-9,-8
-2,-2,0,3,-1,-1,4,2,-6,-6,-9,-7
-2,-2,0,3,-1,-1,5,3,-4,-4,-8,-7
-2,-2,1,3,-1,-1,5,4,-3,-3,-7,-6
-1,-1,1,2,-1,0,6,5,-3,-2,-6,-6
-1,-1,1,2,-1,0,6,5,-2,-2,-5,-5
0,0,1,1,-1,0,6,6,-2,-1,-5,-4
0,0,1,1,-1,0,5,6,-1,-1,-4,-4
0,0,1,0,-1,0,5,7,0,-1,-4,-4
0,0,1,0,-1,1,5,7,0,0,-3,-4
0,0,1,0,-1,1,5,7,1,0,-3,-4
0,1,1,0,0,1,5,8,1,0,-2,-4
0,1,1,0,0,1,5,8,1,1,-2,-4
0,1,1,0,0,1,5,8,1,1,-2,-4
0,1,2,0,-1,1,4,8,1,1,-1,-3
1,2,2,0,-1,2,4,9,2,2,-1,-3
1,2,2,-1,-1,2,4,9,2,2,-1,-3
0,2,2,0,-1,2,4,9,3,2,-1,-3
0,2,2,0,-1,2,4,9,3,2,-1,-3
0,2,2,0,-1,2,4,9,3,2,-1,-2
0,2,2,0,-1,2,4,9,3,2,-1,-2
0,2,2,0,-1,2,4,10,4,3,-1,-2
0,2,2,0,-1,2,4,10,4,3,0,-2
0,2,2,0,-1,2,4,11,4,3,0,-2
0,2,2,0,-1,2,4,11,5,4,0,-1
0,2,2,0,-1,2,4,11,5,4,0,-1
0,2,2,0,-1,2,3,12,6,4,0,-1
0,2,2,0,-1,2,3,12,6,5,0,-1
0,2,2,0,-1,2,3,12,7,5,0,-1
0,2,2,0,-1,2,3,12,7,5,0,-1
0,2,1,0,-1,2,3,12,7,5,0,-1
0,2,1,0,-1,2,3,12,8,5,0,-1
1,2,1,-1,-1,2,4,13,8,5,0,-1
1,2,1,-1,0,2,3,13,8,5,0,-1
1,2,1,-1,0,2,3,14,8,5,0,-1
1,2,1,-1,0,2,2,14,8,6,0,-1
2,3,1,-1,0,2,2,14,8,6,0,-1
2,3,2,-1,0,2,2,14,8,7,1,0
2,3,2,-1,0,2,3,15,9,7,1,0
2,3,2,-1,0,3,3,15,10,8,1,0
2,3,2,-1,0,3,4,16,10,8,1,1
1,3,2,-1,0,2,4,16,11,8,1,1
1,3,2,-2,0,2,4,17,11,9,2,1
2,4,2,-2,0,3,4,17,12,9,2,1
2,4,2,-2,0,3,4,17,12,10,3,2
3,5,2,-3,0,3,4,17,12,10,3,2
3,5,2,-3,1,3,4,18,13,10,3,2
3,5,2,-4,1,3,4,18,13,10,4,3
3,5,2,-4,1,4,4,19,14,11,4,3
3,5,2,-4,0,4,4,19,14,11,5,4
3,6,2,-4,0,4,4,20,14,11,5,4
3,6,2,-5,1,4,4,20,15,12,5,4
4,7,2,-5,1,4,4,20,15,12,5,4
4,7,2,-5,1,4,4,21,16,13,6,5
4,7,2,-5,1,4,4,22,16,13,6,5
5,7,2,-5,2,4,4,22,17,14,6,6
6,7,2,-6,2,4,4,23,18,14,6,6
7,7,1,-6,3,4,5,24,19,15,6,6
7,8,1,-7,3,5,5,25,20,15,7,7
7,8,1,-7,3,5,5,26,21,15,7,7
7,9,1,-7,3,5,5,27,21,16,8,8
7,9,1,-7,3,5,4,27,22,16,8,8
8,10,1,-8,4,5,4,28,22,17,9,9
8,10,1,-8,4,5,4,29,23,17,9,10
8,10,1,-8,4,6,4,30,24,18,9,11
8,10,1,-9,4,6,4,31,25,19,10,11
9,11,0,-10,4,6,4,32,26,19,11,12
11,11,0,-11,5,5,4,33,27,20,11,12
12,12,-1,-12,6,5,4,34,28,20,12,13
13,12,-1,-12,7,6,4,35,29,21,13,13
13,13,-1,-13,7,6,4,36,31,22,14,14
14,13,-1,-13,8,6,4,37,32,23,15,15
14,13,-1,-13,8,6,3,38,33,23,15,16
15,14,-2,-14,9,6,3,39,33,24,16,17
16,14,-2,-15,9,6,3,40,34,24,17,18
17,15,-2,-15,9,6,3,41,35,25,18,19
17,15,-2,-16,10,7,3,42,36,25,19,20
18,16,-2,-17,10,7,3,43,38,26,20,21
18,17,-2,-17,10,8,2,44,39,27,21,22
19,17,-2,-18,11,8,2,44,40,28,22,23
19,18,-2,-18,11,8,1,45,41,29,23,23
20,18,-3,-19,12,8,0,46,42,30,24,24
22,19,-3,-20,13,8,0,47,43,31,25,25
23,20,-3,-21,14,8,0,48,44,31,25,26
24,20,-4,-22,15,8,-1,48,45,32,26,27
25,21,-4,-22,15,8,-1,49,46,32,27,28
25,21,-4,-22,15,8,-2,49,47,33,27,29
25,22,-4,-23,15,9,-2,50,47,33,28,30
25,22,-4,-23,15,9,-3,50,48,34,28,30
25,22,-4,-23,15,9,-4,51,49,34,29,31
26,22,-4,-23,15,9,-4,51,49,35,29,31
27,23,-4,-24,15,9,-4,51,49,35,29,32
28,23,-4,-24,16,9,-4,51,49,35,29,33
28,23,-5,-25,16,9,-4,51,49,35,30,33
29,24,-5,-25,16,9,-4,51,49,35,30,33
29,24,-5,-26,17,9,-5,51,49,35,31,34
29,24,-5,-26,17,9,-5,51,49,35,31,34
29,25,-5,-26,17,9,-5,51,48,35,31,34
29,25,-5,-26,17,9,-5,50,48,35,31,35
29,25,-5,-26,18,9,-5,49,47,35,31,35
29,25,-5,-26,17,10,-6,48,46,35,31,35
29,25,-4,-26,16,10,-6,47,46,35,31,35
28,25,-4,-26,16,10,-7,46,45,34,31,35
28,24,-4,-25,15,10,-7,45,44,33,30,35
27,24,-3,-25,15,10,-7,43,43,32,29,34
27,23,-3,-24,15,10,-7,42,41,31,28,33
26,23,-4,-23,15,10,-6,40,39,30,27,32
24,22,-3,-22,14,10,-6,37,37,29,25,31
23,22,-1,-21,12,10,-5,35,35,28,24,29
21,21,0,-20,11,10,-4,33,33,27,23,28
20,20,0,-19,10,9,-3,31,31,25,21,27
19,19,0,-18,9,9,-2,28,29,24,20,26
17,18,0,-17,8,9,-1,26,27,23,19,25
15,18,1,-16,7,9,0,24,25,22,17,23
14,17,2,-14,5,9,0,22,23,20,16,22
12,16,2,-13,4,9,0,20,20,19,14,20
11,15,3,-11,3,9,0,17,18,17,12,18
9,14,4,-10,2,9,0,15,15,16,11,17
8,13,4,-9,2,9,0,13,13,14,10,15
7,12,5,-9,1,9,1,11,11,13,8,14
6,11,5,-8,1,8,1,9,10,11,7,13
5,10,5,-7,0,8,1,7,8,10,5,12
4,10,5,-6,0,7,1,5,6,8,4,11
3,9,5,-5,-1,7,1,4,5,7,3,10
2,9,6,-4,-1,7,1,2,3,6,2,9
1,8,6,-3,-2,7,1,1,2,5,1,8
0,7,6,-3,-3,7,2,0,1,4,0,7
-1,7,7,-2,-4,6,2,-1,0,3,0,6
-1,6,7,-2,-4,6,2,-2,-1,3,-1,6
-2,6,7,-1,-4,6,3,-3,-2,2,-1,5
-2,5,7,-1,-4,5,3,-3,-3,2,-2,5
-3,5,7,0,-4,5,3,-4,-3,1,-3,4
-3,4,7,0,-4,5,2,-5,-4,1,-4,4
-4,4,7,0,-5,5,2,-5,-5,0,-4,4
-4,3,7,1,-5,5,3,-6,-5,0,-4,3
-4,3,7,1,-5,5,3,-6,-6,0,-5,3
-4,3,6,1,-5,4,3,-7,-6,0,-5,3
-4,3,6,1,-5,4,3,-7,-6,-1,-5,3
-4,3,6,1,-5,4,3,-7,-6,-1,-5,3
-4,3,6,2,-5,4,3,-7,-7,-2,-6,3
-4,2,6,2,-5,4,3,-7,-7,-2,-6,3
-5,2,6,2,-5,4,3,-7,-8,-2,-7,2
-4,2,6,2,-5,4,3,-7,-8,-2,-7,2
-4,2,6,2,-5,4,3,-8,-8,-2,-7,2
-4,2,6,2,-6,4,3,-8,-8,-2,-7,2
-5,1,6,2,-6,4,3,-8,-8,-3,-7,1
-5,1,6,3,-7,4,3,-8,-9,-3,-7,1
-5,1,6,3,-6,4,3,-8,-9,-3,-7,1
-5,1,6,3,-6,4,3,-8,-9,-3,-7,1
-6,1,7,3,-6,4,2,-8,-9,-3,-7,1
-6,1,7,3,-6,4,2,-8,-9,-3,-7,1
-5,1,7,2,-6,4,2,-8,-9,-3,-7,0
-5,1,6,2,-6,4,2,-8,-9,-3,-8,0
-5,1,6,2,-6,4,2,-8,-9,-3,-8,0
-5,1,6,3,-6,4,2,-8,-9,-3,-8,0
-6,1,6,3,-6,4,2,-8,-9,-4,-9,0
-5,1,6,2,-6,4,2,-8,-10,-4,-9,0
-5,1,6,2,-5,4,2,-8,-10,-4,-9,0
-5,1,6,3,-5,4,2,-8,-10,-4,-9,0
-5,0,6,3,-6,3,3,-8,-10,-4,-9,0
-5,0,6,3,-6,3,3,-8,-10,-4,-9,0
-5,0,6,4,-6,3,3,-8,-10,-4,-9,0
-6,0,6,4,-6,3,3,-8,-10,-4,-9,0
-6,0,6,4,-6,3,3,-8,-10,-4,-9,0
-6,0,6,4,-6,3,3,-8,-10,-4,-9,0
-6,0,6,4,-6,3,3,-8,-10,-4,-9,0
-6,0,6,4,-6,3,3,-8,-10,-4,-9,0
-6,0,6,4,-6,3,3,-8,-9,-4,-9,0
-6,0,6,3,-6,3,3,-8,-9,-4,-9,0
-6,0,6,3,-6,3,3,-8,-9,-4,-9,1
-6,0,6,3,-6,3,3,-7,-9,-4,-9,1
-6,1,6,3,-7,3,3,-7,-8,-4,-9,1
-6,1,6,3,-7,4,3,-7,-8,-4,-9,1
-6,1,7,4,-7,4,3,-7,-8,-4,-9,1
-6,1,7,4,-7,4,3,-7,-8,-3,-9,1
-6,1,7,4,-7,4,3,-7,-8,-3,-9,1
-6,1,7,4,-7,4,3,-6,-8,-3,-9,1
-6,1,7,4,-7,4,3,-6,-8,-3,-9,1
-6,1,7,4,-7,4,3,-5,-7,-2,-9,1
-6,1,7,4,-7,4,3,-5,-7,-2,-9,2
-6,1,7,4,-7,4,3,-4,-7,-2,-9,2
-6,1,7,4,-7,4,3,-4,-7,-2,-9,2
-6,1,7,4,-7,4,3,-4,-7,-2,-9,3
-6,1,7,3,-7,4,3,-4,-7,-2,-9,3
-6,1,7,3,-7,4,2,-3,-7,-2,-9,3
-6,1,7,3,-7,4,2,-3,-7,-2,-9,3
-6,1,7,3,-7,4,2,-3,-7,-2,-9,3
-6,1,7,3,-7,4,2,-3,-6,-2,-9,3
-6,1,7,3,-7,4,2,-3,-6,-1,-9,3
-6,1,7,3,-7,4,2,-3,-6,-1,-9,3
-6,1,7,3,-7,4,2,-3,-6,-1,-9,3
-6,1,8,3,-7,4,3,-3,-6,-1,-9,3
-6,1,8,3,-7,4,3,-3,-6,-1,-9,3
-6,1,8,3,-7,4,3,-3,-6,-1,-8,3
-6,1,8,3,-7,4,3,-3,-7,-1,-8,3
-6,1,8,3,-7,4,3,-2,-7,-1,-9,3
-6,1,8,3,-7,4,3,-2,-7,-1,-9,3
-7,1,8,3,-7,4,3,-2,-7,-1,-9,3
-7,1,8,3,-8,4,2,-2,-7,-1,-9,3
-7,0,8,3,-8,4,2,-2,-7,-1,-9,3
-7,0,8,3,-8,4,2,-2,-7,-1,-9,3
-7,0,8,3,-8,4,2,-2,-7,-1,-9,3
-6,0,8,3,-8,4,2,-2,-7,-1,-9,3
-6,1,7,3,-7,4,1,-2,-7,-1,-9,4
-5,1,7,3,-7,4,1,-2,-7,-1,-9,4
-5,1,7,3,-7,4,0,-2,-7,-1,-9,4
-5,1,7,3,-7,4,0,-2,-7,-1,-8,4
-5,1,7,3,-6,4,0,-2,-7,-1,-8,3
-5,1,7,3,-6,4,1,-2,-8,-1,-8,3
-5,1,7,3,-6,3,1,-3,-8,-1,-8,3
-6,0,7,3,-6,3,1,-3,-8,-1,-8,3
-6,0,7,3,-6,3,1,-3,-9,-2,-9,3
-6,0,7,3,-6,3,1,-3,-9,-2,-9,3
-6,0,8,3,-7,3,1,-3,-9,-2,-9,3
-6,0,8,3,-7,3,1,-3,-9,-2,-9,3
-6,0,8,3,-8,3,1,-3,-9,-2,-9,3
-7,0,8,3,-8,3,1,-3,-9,-2,-9,3
-7,0,7,3,-8,3,1,-3,-9,-2,-9,3
-7,0,7,3,-8,3,0,-3,-9,-2,-9,3
-7,0,7,3,-8,3,0,-3,-10,-2,-9,3
-7,0,7,3,-8,3,0,-3,-10,-2,-9,3
-7,0,7,3,-7,3,1,-3,-10,-2,-9,2
-7,0,7,3,-7,3,2,-3,-10,-3,-9,2
-7,0,8,3,-8,3,2,-4,-10,-3,-9,2
-7,0,8,3,-8,3,2,-4,-11,-3,-9,2
-7,0,8,3,-8,3,2,-4,-11,-3,-9,1
-7,0,8,3,-8,3,2,-4,-11,-3,-9,1
-7,0,8,3,-8,4,2,-4,-11,-3,-10,1
-7,0,9,3,-8,4,2,-4,-11,-3,-10,1
-7,0,9,3,-9,4,2,-4,-11,-3,-10,1
-7,0,9,3,-9,4,2,-4,-11,-4,-10,1
-8,0,9,3,-9,4,2,-5,-11,-4,-10,1
-8,0,9,4,-9,4,2,-5,-11,-3,-10,1
-9,0,10,4,-9,4,2,-4,-11,-3,-10,1
-8,0,9,4,-9,4,2,-4,-11,-3,-10,1
-7,0,8,3,-8,3,2,-4,-11,-3,-10,1
-7,0,8,3,-8,3,2,-4,-11,-3,-10,1
-7,0,8,3,-8,4,2,-4,-11,-3,-9,1
-7,0,8,3,-8,4,2,-4,-11,-3,-9,1
-7,0,8,3,-8,4,2,-4,-11,-3,-9,1
-7,0,8,3,-8,4,2,-5,-11,-3,-10,1
-7,0,8,3,-8,4,2,-5,-12,-3,-10,1
-7,0,8,3,-8,4,2,-5,-12,-3,-10,1
-7,0,8,3,-8,4,2,-5,-12,-3,-11,1
-7,0,8,3,-8,4,2,-5,-12,-3,-11,0
-7,0,8,4,-8,4,2,-5,-12,-3,-10,0
-7,0,8,4,-8,4,2,-5,-13,-3,-10,0
-7,0,8,4,-8,4,2,-5,-13,-3,-10,0
-7,0,8,4,-9,4,2,-5,-13,-3,-10,0
-8,0,8,4,-9,4,2,-5,-13,-3,-10,0
-8,0,8,4,-9,4,2,-5,-13,-3,-10,0
-8,0,8,4,-9,4,3,-5,-13,-3,-10,0
-7,0,9,4,-9,4,3,-5,-13,-3,-10,0
