leadI,leadII,leadIII,leadaVR,leadaVL,leadaVF,leadV1,leadV2,leadV3,leadV4,leadV5,leadV6
-1,0,1,0,-1,1,1,-2,-1,0,2,1
-1,4,5,-1,-4,5,1,-8,-4,-2,5,1
1,9,8,-5,-4,9,-1,-14,-8,-6,5,-1
4,13,8,-9,-2,11,-4,-19,-13,-9,2,-4
6,12,5,-9,0,9,-6,-23,-17,-10,0,-5
6,7,1,-7,2,4,-5,-24,-19,-9,0,-4
4,1,-2,-3,2,0,-2,-22,-18,-5,1,-1
1,-2,-3,0,1,-2,1,-19,-16,-2,5,3
-1,-2,0,1,-1,-1,3,-16,-13,0,9,5
-1,2,4,0,-3,3,2,-16,-11,0,10,5
1,9,8,-5,-4,8,-1,-18,-11,-3,9,3
4,14,9,-9,-3,12,-5,-21,-13,-7,6,0
6,14,7,-10,-1,11,-8,-24,-17,-9,2,-3
6,10,3,-8,1,7,-9,-26,-20,-10,0,-4
4,4,0,-4,2,2,-7,-26,-21,-8,0,-3
1,-1,-2,0,1,-1,-5,-24,-19,-6,1,-1
-1,-2,0,1,-1,-1,-2,-22,-17,-4,4,1
-2,1,4,0,-3,3,-2,-20,-15,-4,6,2
-1,8,9,-3,-5,8,-3,-21,-14,-6,7,2
1,13,11,-7,-5,12,-6,-23,-15,-8,5,0
4,16,10,-10,-3,13,-8,-25,-17,-9,3,-2
6,14,7,-10,0,11,-8,-26,-18,-8,2,-2
6,8,3,-7,1,6,-7,-25,-18,-6,2,0
3,2,0,-3,1,1,-4,-22,-16,-3,5,3
1,-1,-1,0,0,-1,-1,-19,-13,0,8,5
0,0,1,1,-1,0,0,-17,-11,0,10,6
0,3,4,-1,-2,3,-1,-17,-11,-1,10,5
1,7,6,-4,-2,6,-3,-19,-12,-4,8,2
3,9,6,-5,-1,7,-6,-22,-15,-6,5,-1
4,7,3,-5,0,5,-8,-25,-18,-8,2,-3
4,2,-2,-2,2,0,-8,-26,-20,-9,0,-3
2,-4,-5,1,2,-4,-6,-26,-21,-8,0,-2
0,-9,-7,5,2,-7,-4,-24,-20,-7,2,-1
-3,-10,-5,6,0,-8,-3,-23,-19,-6,3,0
-4,-7,-2,5,0,-5,-3,-23,-18,-7,3,0
-2,-1,1,2,-1,-1,-4,-24,-19,-9,2,-2
0,2,2,0,0,1,-6,-26,-20,-11,0,-5
1,2,0,-1,0,1,-7,-28,-22,-13,-2,-7
2,-1,-3,0,2,-2,-7,-29,-23,-13,-3,-7
1,-6,-6,2,3,-6,-6,-28,-23,-12,-3,-6
-1,-9,-7,5,3,-8,-4,-26,-22,-10,-2,-5
-2,-11,-7,6,2,-9,-3,-25,-21,-9,0,-4
-3,-9,-4,6,1,-6,-2,-24,-20,-9,1,-3
-2,-4,-1,3,0,-2,-3,-24,-20,-11,1,-4
0,0,0,1,0,0,-5,-26,-21,-12,-1,-6
0,2,0,0,1,0,-7,-28,-23,-14,-3,-8
1,0,-2,0,1,-1,-7,-29,-24,-14,-4,-8
1,-5,-5,2,2,-5,-7,-29,-24,-13,-4,-7
0,-9,-7,5,2,-8,-5,-28,-24,-12,-3,-6
-2,-12,-7,7,1,-10,-4,-26,-22,-11,-2,-5
-3,-11,-5,7,1,-9,-3,-25,-22,-10,0,-4
-3,-7,-3,5,1,-5,-3,-25,-21,-10,0,-4
-1,-3,-1,2,1,-2,-5,-26,-22,-11,0,-5
0,0,0,1,1,0,-6,-27,-23,-12,-2,-6
0,0,-2,0,1,-1,-7,-28,-24,-13,-3,-7
0,-4,-5,2,1,-4,-7,-29,-24,-13,-4,-7
0,-9,-7,4,2,-8,-6,-28,-24,-12,-3,-6
-1,-11,-8,6,2,-10,-5,-27,-23,-11,-2,-5
-2,-12,-7,7,2,-10,-4,-27,-22,-10,-1,-4
-3,-9,-5,6,2,-7,-4,-26,-22,-10,0,-4
-2,-5,-3,4,2,-5,-5,-26,-22,-11,0,-5
-1,-2,-2,3,1,-3,-6,-27,-22,-12,-1,-6
-1,-2,-3,2,1,-3,-7,-28,-23,-12,-2,-7
-1,-4,-5,2,1,-5,-7,-29,-24,-13,-3,-7
-1,-9,-7,4,1,-8,-7,-29,-24,-12,-3,-6
-2,-11,-7,6,1,-9,-6,-29,-24,-12,-2,-5
-2,-12,-7,7,1,-9,-6,-28,-23,-12,-1,-5
-2,-10,-5,7,1,-7,-5,-28,-23,-12,-1,-5
-2,-6,-3,5,1,-5,-6,-28,-23,-12,-1,-5
-1,-3,-2,3,1,-3,-6,-29,-24,-13,-2,-6
-1,-1,-2,2,1,-2,-6,-30,-24,-13,-3,-7
0,-2,-4,1,1,-3,-7,-31,-25,-14,-3,-7
0,-5,-5,2,1,-5,-7,-32,-25,-14,-4,-7
-2,-7,-4,4,0,-6,-6,-33,-26,-14,-3,-7
-3,-8,-3,5,-1,-5,-6,-35,-27,-15,-3,-7
-3,-6,0,4,-2,-3,-7,-39,-29,-15,-2,-6
-4,-1,4,3,-3,1,-8,-44,-33,-17,-2,-6
-4,2,6,1,-4,4,-9,-50,-37,-19,-3,-6
-4,3,7,1,-4,5,-9,-55,-40,-21,-4,-6
-4,2,5,1,-4,4,-8,-59,-43,-22,-4,-6
-4,-1,2,2,-4,0,-6,-61,-44,-22,-4,-6
-4,-5,0,4,-3,-2,-5,-61,-44,-20,-2,-4
-3,-6,-1,4,-2,-3,-6,-61,-42,-17,2,-1
-1,-6,-1,3,-1,-4,-8,-62,-40,-13,6,3
1,-3,-1,1,1,-2,-13,-62,-39,-9,11,8
4,1,-2,-2,3,-1,-18,-63,-38,-6,15,12
7,5,-2,-5,5,1,-25,-66,-38,-4,19,16
9,9,-2,-9,6,3,-32,-69,-38,-2,22,20
12,11,-2,-12,7,4,-39,-73,-39,-1,25,24
15,10,-4,-13,8,3,-46,-74,-39,0,27,26
17,7,-8,-13,11,0,-50,-73,-40,-1,26,26
19,4,-12,-13,15,-4,-52,-71,-41,-3,24,24
21,2,-16,-12,19,-7,-54,-70,-43,-7,19,20
22,0,-21,-12,22,-10,-56,-70,-49,-14,12,13
22,-2,-25,-9,24,-13,-58,-71,-56,-26,0,3
19,-6,-27,-6,24,-16,-59,-72,-62,-37,-11,-8
16,-12,-29,-2,23,-20,-59,-71,-66,-45,-21,-18
11,-18,-29,3,20,-24,-59,-69,-66,-49,-28,-25
6,-22,-27,7,16,-24,-57,-64,-62,-50,-33,-30
0,-24,-22,11,10,-23,-53,-57,-56,-48,-35,-34
-4,-23,-15,13,5,-19,-48,-48,-48,-45,-36,-37
-7,-18,-9,12,2,-14,-42,-39,-40,-41,-36,-38
-8,-13,-5,11,0,-9,-37,-29,-32,-36,-34,-37
-8,-9,-2,9,-2,-5,-33,-21,-25,-30,-31,-35
-8,-7,0,8,-3,-3,-30,-14,-18,-25,-27,-33
-7,-7,-1,7,-3,-4,-26,-8,-12,-20,-24,-30
-7,-8,-1,7,-3,-5,-21,-1,-6,-15,-20,-27
-6,-8,0,6,-3,-4,-16,5,0,-10,-17,-24
-5,-7,0,5,-3,-3,-12,11,5,-6,-13,-21
-5,-4,2,4,-3,0,-7,17,11,-1,-10,-18
-4,-1,2,3,-3,1,-2,23,16,3,-7,-16
-3,0,2,2,-2,2,1,28,21,6,-4,-14
-2,2,2,0,-1,2,5,33,25,10,-2,-12
0,1,0,0,0,0,7,37,28,12,0,-10
0,-1,-1,1,0,-2,9,39,30,14,1,-9
0,-3,-2,1,0,-3,11,40,32,16,3,-7
0,-5,-3,2,1,-5,12,41,34,18,5,-6
0,-6,-4,2,2,-5,14,43,35,19,5,-5
0,-5,-4,2,3,-5,16,45,36,20,6,-5
1,-5,-6,2,4,-6,17,47,37,21,6,-5
2,-5,-8,2,5,-7,18,49,38,22,6,-5
3,-7,-10,3,6,-9,19,51,39,22,7,-5
3,-10,-12,4,7,-11,19,52,39,23,7,-5
3,-12,-14,4,8,-13,20,53,39,23,8,-5
3,-13,-15,5,8,-14,21,53,40,24,8,-4
3,-14,-15,5,9,-15,22,53,40,24,8,-4
3,-13,-15,4,9,-14,23,54,40,25,8,-4
3,-12,-15,4,9,-14,24,55,40,25,9,-4
3,-12,-15,4,9,-14,24,56,40,25,9,-4
3,-12,-16,4,10,-15,25,57,40,25,9,-4
4,-13,-17,5,10,-16,25,57,40,25,9,-4
4,-15,-18,5,11,-17,26,58,40,25,9,-3
4,-16,-19,5,11,-17,26,58,41,26,9,-3
4,-16,-19,5,11,-18,27,59,41,26,10,-3
4,-15,-19,5,11,-17,27,59,42,26,10,-3
4,-14,-19,5,11,-17,28,60,42,26,10,-3
4,-14,-19,5,11,-17,28,61,42,26,10,-2
4,-14,-19,5,12,-17,28,61,42,27,10,-2
5,-15,-20,5,12,-18,28,62,43,27,10,-2
5,-16,-20,5,12,-18,29,62,43,28,10,-2
5,-16,-20,5,12,-18,29,63,44,28,10,-2
5,-17,-20,5,12,-18,29,64,45,28,10,-2
5,-16,-20,5,13,-18,29,65,46,29,10,-1
5,-15,-20,5,13,-18,30,66,46,30,10,-1
6,-15,-20,5,13,-18,30,67,47,30,11,-1
6,-14,-20,5,13,-18,31,68,48,31,11,0
7,-14,-20,5,13,-18,31,70,49,33,12,0
7,-14,-21,5,13,-18,31,71,51,34,12,0
7,-14,-21,4,14,-18,31,72,52,35,13,1
8,-14,-21,4,14,-18,31,73,53,35,13,1
8,-14,-22,4,15,-18,32,74,54,36,13,2
8,-14,-22,4,15,-18,32,76,55,36,14,2
8,-14,-22,4,15,-18,33,77,56,37,14,3
8,-14,-22,3,15,-18,33,78,57,38,15,3
9,-14,-23,3,15,-18,34,79,58,39,15,3
9,-14,-23,3,16,-18,34,80,59,40,16,3
9,-14,-23,3,16,-18,34,82,61,41,16,4
9,-14,-23,3,16,-18,34,83,62,41,17,4
9,-14,-23,3,16,-18,34,85,63,42,17,5
10,-13,-23,2,16,-18,35,86,64,43,18,5
10,-13,-23,2,16,-18,35,88,65,44,19,6
10,-13,-23,1,17,-18,36,89,66,45,20,6
11,-13,-24,1,17,-18,36,91,67,46,21,7
12,-13,-24,1,18,-18,36,92,69,47,22,8
12,-13,-24,1,18,-18,37,93,70,48,23,9
12,-13,-24,1,18,-18,37,95,71,49,23,9
12,-12,-24,0,18,-18,37,96,73,50,24,10
13,-12,-24,0,18,-18,38,97,74,51,24,10
13,-12,-24,0,18,-18,38,99,75,52,25,11
14,-12,-24,0,18,-18,38,100,76,53,26,11
14,-11,-24,-1,18,-17,39,101,77,54,26,12
15,-11,-24,-1,19,-17,39,102,78,55,27,12
15,-10,-24,-1,19,-17,40,103,79,56,27,13
15,-10,-24,-2,19,-16,40,104,80,57,28,13
15,-9,-24,-2,19,-16,40,105,81,58,29,14
15,-9,-24,-2,19,-16,40,106,82,59,30,15
15,-9,-24,-2,19,-16,41,107,83,60,31,16
15,-9,-24,-2,20,-16,41,108,84,61,31,17
16,-8,-24,-3,20,-16,41,109,85,61,32,17
16,-8,-24,-3,20,-16,41,109,86,62,32,18
16,-8,-24,-4,20,-16,41,110,87,62,33,18
16,-8,-24,-4,20,-15,41,110,88,63,33,18
16,-7,-23,-4,20,-14,41,111,88,63,34,19
16,-6,-22,-5,20,-13,42,111,89,64,35,19
16,-5,-21,-5,19,-13,42,111,89,65,35,20
17,-5,-21,-5,19,-12,42,112,90,65,36,21
17,-4,-21,-6,19,-12,42,113,90,66,37,21
17,-4,-21,-6,19,-12,42,113,91,66,37,22
17,-3,-20,-7,19,-11,43,113,91,67,38,22
18,-3,-20,-7,19,-11,43,114,92,67,39,23
18,-2,-20,-8,19,-11,43,114,92,68,39,24
18,-1,-19,-8,18,-10,43,115,92,68,40,25
18,0,-19,-8,18,-9,43,117,92,68,40,25
18,0,-18,-8,18,-8,43,119,92,69,41,26
18,0,-18,-8,18,-8,43,122,92,69,42,26
19,0,-17,-9,18,-8,43,124,92,69,43,27
19,1,-17,-10,18,-7,43,124,92,69,43,28
19,2,-16,-10,17,-6,43,123,92,69,44,28
19,3,-15,-11,17,-6,42,122,92,69,44,29
19,4,-15,-11,17,-5,42,121,91,69,45,30
19,5,-14,-12,16,-4,41,120,90,69,45,30
19,6,-13,-12,16,-3,41,120,89,69,46,31
19,7,-12,-12,15,-2,40,119,89,69,46,31
20,8,-11,-13,15,-1,40,116,88,69,47,32
20,8,-11,-14,15,0,40,113,88,68,47,32
20,9,-10,-15,15,0,39,111,87,68,47,33
20,10,-9,-15,14,1,38,109,86,67,48,33
20,10,-8,-15,14,1,37,106,85,67,48,34
20,11,-7,-15,14,2,36,104,84,66,48,35
20,12,-6,-16,14,3,36,102,82,66,48,35
20,13,-6,-16,13,3,35,99,81,65,48,36
20,13,-5,-16,12,4,34,96,80,64,48,36
19,14,-4,-16,11,5,33,93,78,63,48,36
19,14,-4,-17,11,5,32,90,77,62,48,37
19,15,-3,-17,11,6,32,88,75,62,48,37
19,16,-3,-18,11,7,31,85,74,61,48,37
19,16,-2,-18,11,7,29,83,72,60,48,37
19,17,-2,-18,10,8,28,80,70,59,48,37
19,17,-1,-18,10,8,27,78,68,58,47,37
18,18,0,-18,10,9,26,75,66,57,47,37
18,18,1,-18,9,10,25,72,64,56,47,37
17,19,2,-18,8,10,24,69,62,55,46,36
17,19,2,-18,8,11,23,66,60,54,46,36
17,20,3,-18,7,11,22,63,57,52,45,36
17,20,3,-18,7,12,21,60,55,51,44,35
17,20,4,-18,6,12,20,57,52,49,43,35
17,20,4,-18,6,12,19,54,49,47,42,34
16,20,4,-18,5,12,18,50,46,45,41,34
16,20,5,-18,5,13,17,47,43,43,40,33
15,20,6,-18,4,13,16,43,41,40,39,32
14,20,6,-17,4,13,15,40,38,38,37,31
13,20,7,-17,3,13,14,37,36,36,36,30
13,20,7,-17,3,14,13,34,33,34,34,28
12,20,7,-16,2,14,12,31,30,32,32,27
12,20,7,-16,2,14,11,28,27,29,31,25
12,20,8,-16,2,14,10,25,24,27,29,24
11,19,8,-15,1,14,10,22,21,24,27,23
11,19,8,-15,1,14,9,19,18,22,26,21
10,18,8,-14,0,14,8,16,15,20,24,20
10,18,8,-14,0,13,7,13,13,18,22,18
9,17,8,-13,0,13,6,10,10,16,21,17
8,16,8,-12,-1,13,5,7,7,14,19,15
7,15,8,-11,-1,12,4,5,4,12,17,14
6,14,8,-10,-1,12,4,2,2,10,15,12
6,14,8,-10,-1,11,3,0,0,8,14,11
6,13,8,-9,-1,11,3,-2,-2,6,12,10
5,12,8,-8,-1,10,2,-5,-4,4,11,8
4,11,7,-7,-2,10,2,-7,-6,2,9,7
4,10,7,-6,-2,9,1,-8,-8,0,7,5
3,10,7,-6,-2,9,0,-10,-10,-1,6,4
3,9,6,-6,-2,8,0,-12,-12,-3,4,3
2,9,6,-5,-2,8,-1,-14,-14,-5,3,2
1,8,6,-5,-3,7,-1,-16,-16,-6,1,1
1,7,6,-4,-3,7,-2,-18,-17,-7,0,0
0,6,5,-3,-3,6,-2,-19,-18,-8,-1,0
0,5,5,-3,-3,6,-3,-21,-20,-9,-2,-1
0,4,5,-2,-3,6,-3,-22,-21,-11,-3,-2
0,4,5,-2,-3,6,-4,-23,-22,-12,-4,-4
-1,4,5,-2,-4,5,-4,-24,-23,-13,-5,-4
-1,3,5,-1,-3,5,-5,-25,-25,-13,-6,-5
-1,3,4,-1,-3,4,-5,-26,-25,-14,-6,-5
-2,2,4,0,-3,4,-5,-27,-26,-15,-7,-6
-2,2,4,0,-3,4,-5,-28,-27,-15,-7,-7
-3,1,4,0,-3,4,-5,-29,-27,-16,-8,-7
-3,1,4,0,-3,3,-5,-29,-28,-17,-8,-8
-3,0,4,0,-3,3,-6,-30,-29,-18,-9,-8
-3,0,4,0,-3,3,-6,-30,-29,-19,-10,-9
-3,0,3,0,-3,2,-7,-31,-30,-19,-10,-9
-4,0,3,0,-4,2,-7,-31,-30,-20,-11,-9
-4,0,4,1,-4,2,-8,-32,-31,-20,-11,-10
-4,0,4,1,-4,2,-8,-33,-31,-21,-11,-10
-4,0,5,1,-4,2,-8,-34,-32,-22,-12,-11
-4,0,5,1,-4,2,-8,-35,-32,-23,-12,-11
-4,0,4,1,-4,2,-8,-36,-33,-24,-12,-11
-4,0,4,1,-4,2,-8,-37,-34,-25,-13,-12
-4,0,4,2,-5,2,-8,-38,-35,-25,-13,-12
-5,-1,4,3,-5,2,-8,-40,-37,-26,-14,-13
-6,-1,5,4,-5,2,-8,-43,-38,-27,-15,-13
-6,-2,5,4,-6,2,-8,-46,-40,-28,-16,-14
-7,-2,6,5,-6,2,-8,-50,-41,-29,-17,-14
-7,-2,6,5,-7,2,-8,-54,-42,-30,-18,-15
-8,-2,7,5,-8,2,-9,-57,-43,-31,-18,-15
-8,-2,8,5,-8,3,-10,-60,-45,-32,-19,-16
-9,-1,9,5,-9,3,-11,-63,-46,-33,-19,-16
-10,-1,10,5,-10,4,-13,-66,-48,-34,-20,-17
-10,0,10,5,-10,5,-15,-70,-49,-35,-20,-17
-11,0,11,5,-11,5,-17,-74,-51,-36,-20,-17
-11,0,11,5,-11,6,-18,-77,-52,-36,-20,-17
-10,0,11,5,-11,6,-20,-79,-52,-37,-20,-17
-10,0,11,5,-11,6,-21,-80,-53,-37,-20,-17
-10,0,11,4,-11,6,-23,-81,-53,-37,-20,-17
-10,0,11,4,-11,7,-25,-82,-53,-37,-20,-17
-9,0,11,4,-10,7,-28,-83,-54,-37,-20,-17
-9,0,11,4,-10,6,-30,-86,-55,-37,-21,-17
-9,0,11,4,-10,6,-33,-89,-57,-38,-21,-17
-9,0,11,4,-10,6,-37,-94,-59,-40,-22,-18
-9,0,12,4,-10,6,-42,-101,-63,-42,-24,-19
-10,0,12,5,-11,6,-47,-108,-68,-46,-26,-20
-11,1,13,5,-12,7,-52,-115,-73,-49,-28,-22
-12,2,15,5,-13,9,-57,-123,-78,-52,-30,-23
-12,4,18,4,-15,11,-62,-130,-82,-54,-30,-23
-12,8,21,2,-16,15,-67,-135,-84,-54,-29,-22
-12,13,26,0,-18,19,-72,-139,-84,-53,-27,-19
-11,18,31,-3,-20,25,-77,-142,-83,-50,-23,-15
-9,24,35,-7,-21,30,-83,-143,-81,-47,-19,-11
-7,30,38,-11,-22,34,-88,-142,-78,-43,-14,-6
-5,35,41,-15,-22,38,-93,-139,-73,-37,-9,-1
-2,41,44,-19,-22,42,-96,-135,-68,-31,-3,4
1,46,46,-23,-22,46,-100,-129,-61,-24,3,10
5,50,47,-27,-21,49,-104,-122,-53,-16,11,17
9,54,47,-31,-19,51,-107,-114,-44,-7,19,25
13,58,46,-35,-16,52,-110,-106,-35,2,27,33
16,60,45,-38,-14,53,-112,-97,-26,11,35,41
20,62,43,-41,-11,53,-113,-88,-17,19,43,48
23,63,41,-43,-9,52,-112,-80,-10,26,49,54
25,63,38,-44,-6,52,-111,-72,-4,32,55,59
28,63,36,-46,-4,51,-110,-65,1,37,61,64
30,64,34,-47,-2,50,-107,-58,7,43,66,69
33,63,32,-48,1,48,-104,-50,13,49,72,74
35,61,27,-48,4,45,-100,-41,20,55,77,78
38,58,21,-47,8,40,-95,-32,26,60,81,82
40,53,15,-46,13,34,-91,-23,32,65,84,84
41,49,8,-45,17,29,-86,-16,37,68,86,86
42,44,2,-44,20,24,-82,-9,41,70,87,87
43,39,-3,-41,23,19,-77,-3,44,71,87,87
43,33,-9,-38,25,14,-72,3,47,73,87,87
43,28,-13,-36,27,9,-67,9,50,75,87,86
42,24,-16,-33,29,5,-62,14,53,76,87,85
42,21,-19,-31,30,1,-57,17,54,77,86,84
41,17,-23,-29,32,-3,-53,19,54,76,84,82
40,12,-27,-26,33,-7,-50,20,54,75,82,79
39,8,-30,-24,34,-11,-47,22,54,74,79,77
39,5,-33,-22,35,-13,-45,23,54,73,77,74
38,3,-34,-20,35,-15,-43,24,54,72,76,72
38,1,-35,-19,36,-16,-40,25,54,72,75,71
37,-1,-36,-18,36,-18,-38,26,54,71,73,69
36,-2,-37,-16,36,-19,-36,27,53,69,70,66
35,-4,-37,-15,36,-20,-33,28,51,65,65,61
33,-5,-36,-13,35,-21,-30,29,50,61,59,55
31,-6,-36,-12,33,-21,-26,33,50,58,54,50
29,-7,-35,-11,32,-20,-21,39,52,57,51,46
27,-7,-33,-11,30,-19,-16,47,56,58,49,43
26,-7,-32,-10,29,-19,-11,56,61,60,48,41
24,-8,-30,-8,27,-18,-5,65,66,61,46,37
22,-8,-28,-7,25,-18,0,73,70,60,42,33
20,-8,-26,-5,23,-17,6,79,71,57,37,27
17,-9,-24,-3,21,-17,12,82,70,51,29,19
14,-10,-23,-2,18,-16,16,84,68,45,22,12
11,-11,-22,0,17,-16,19,85,65,40,16,7
10,-12,-21,1,15,-15,20,86,63,36,12,3
9,-13,-21,2,14,-16,21,86,62,33,9,0
8,-14,-21,3,14,-17,22,87,60,31,7,-1
8,-16,-21,4,14,-17,23,87,60,30,5,-3
7,-16,-21,4,14,-18,24,88,59,29,4,-4
7,-16,-21,5,14,-18,25,89,59,28,3,-5
7,-16,-22,5,14,-18,26,90,60,28,3,-6
7,-16,-22,5,14,-18,28,91,60,28,2,-6
6,-16,-21,5,14,-18,29,90,59,27,2,-7
6,-16,-20,5,13,-17,29,89,58,26,1,-7
5,-16,-19,6,12,-17,30,88,56,25,1,-7
4,-16,-18,6,11,-16,31,87,55,24,0,-8
4,-15,-17,6,10,-16,32,85,53,23,0,-9
3,-15,-16,6,9,-15,33,83,51,22,-2,-10
2,-16,-16,7,9,-15,33,81,49,20,-3,-12
1,-17,-17,8,9,-16,34,79,47,18,-5,-13
1,-17,-17,8,9,-16,34,77,45,16,-6,-14
0,-17,-17,9,8,-17,34,76,44,15,-7,-15
0,-18,-17,10,7,-17,35,76,43,14,-8,-15
-1,-19,-15,10,6,-16,36,75,42,14,-9,-16
-2,-19,-14,10,6,-16,37,75,41,14,-9,-16
-2,-18,-14,10,6,-15,38,74,41,14,-9,-16
-2,-18,-14,10,6,-15,39,74,41,14,-9,-17
-2,-18,-15,10,6,-15,39,74,41,14,-9,-17
-2,-18,-15,10,6,-15,40,74,41,13,-9,-17
-2,-18,-15,10,6,-15,41,75,40,13,-9,-17
-2,-18,-15,10,6,-15,42,75,40,13,-9,-17
-2,-18,-14,10,6,-15,42,76,40,14,-9,-17
-2,-18,-14,10,5,-15,43,77,40,14,-9,-17
-2,-18,-14,10,5,-15,44,78,40,14,-9,-17
-2,-18,-14,10,5,-15,44,78,40,14,-9,-17
-2,-18,-14,10,5,-15,45,79,39,14,-9,-17
-2,-18,-14,10,5,-15,46,79,39,14,-9,-17
-2,-18,-14,10,5,-15,47,80,40,14,-9,-17
-2,-18,-14,10,6,-16,47,81,40,14,-9,-17
-2,-18,-14,10,6,-16,48,81,40,14,-9,-17
-2,-18,-14,10,6,-16,49,82,40,14,-9,-17
-2,-18,-15,10,6,-16,50,83,40,14,-9,-17
-2,-18,-15,11,6,-17,51,84,40,14,-9,-17
-2,-19,-15,11,6,-17,52,84,40,14,-9,-17
-2,-19,-15,11,6,-17,52,85,40,13,-10,-17
-2,-19,-15,11,6,-17,53,85,40,13,-10,-18
-2,-19,-15,11,6,-17,53,85,40,13,-10,-18
-2,-19,-15,11,6,-17,54,85,39,13,-11,-19
-2,-19,-15,11,6,-17,55,86,39,13,-11,-19
-2,-19,-15,11,6,-17,56,86,39,13,-11,-19
-2,-19,-15,11,6,-17,57,86,39,13,-11,-19
-2,-19,-15,11,6,-17,57,87,39,13,-11,-19
-2,-19,-15,11,6,-17,58,87,39,13,-11,-19
-3,-19,-14,11,5,-17,58,87,39,12,-11,-19
-3,-19,-14,12,5,-16,59,87,39,12,-11,-19
-3,-19,-14,12,5,-16,59,87,39,12,-11,-19
-3,-19,-14,12,5,-16,60,86,38,12,-11,-19
-3,-19,-14,12,5,-16,60,86,38,12,-11,-19
-3,-19,-14,12,5,-16,61,86,37,12,-12,-20
-4,-19,-13,12,5,-15,61,85,37,12,-12,-20
-4,-19,-13,12,4,-15,61,85,37,11,-13,-20
-5,-19,-12,12,4,-15,61,84,37,11,-13,-20
-5,-19,-12,12,4,-14,61,83,36,11,-13,-21
-5,-19,-11,12,3,-14,61,82,36,11,-13,-21
-5,-18,-11,12,3,-14,62,82,35,10,-13,-21
-5,-17,-10,12,2,-13,62,81,34,10,-13,-21
-5,-17,-9,12,2,-12,62,80,34,10,-14,-21
-6,-16,-8,12,1,-12,61,79,33,10,-14,-21
-6,-16,-8,11,1,-11,61,77,33,10,-14,-21
-6,-15,-7,11,1,-11,60,76,32,10,-14,-21
-6,-15,-7,11,0,-10,60,74,32,10,-14,-21
-7,-15,-6,11,0,-10,59,73,31,10,-14,-21
-7,-14,-5,11,-1,-9,59,71,30,10,-14,-21
-8,-13,-4,11,-2,-8,58,69,29,9,-14,-21
-8,-12,-2,10,-3,-6,57,67,28,9,-14,-21
-8,-11,-1,10,-3,-5,56,65,27,8,-14,-21
-8,-10,0,9,-4,-4,55,63,26,8,-14,-21
-8,-10,0,9,-4,-3,54,61,25,8,-14,-21
-9,-9,1,9,-5,-3,53,58,24,7,-14,-21
-9,-8,2,8,-5,-2,51,56,23,7,-14,-21
-9,-7,3,8,-6,-1,50,53,22,6,-14,-21
-9,-6,4,7,-7,0,48,50,20,5,-14,-20
-9,-5,6,7,-8,1,46,47,18,5,-14,-20
-9,-3,7,7,-8,3,44,44,17,4,-14,-19
-9,-2,8,6,-9,4,42,41,15,4,-14,-19
-9,-1,10,5,-9,5,41,38,14,3,-14,-19
-9,0,11,5,-10,6,39,35,12,3,-13,-18
-9,0,12,4,-10,7,37,32,11,2,-13,-18
-9,1,12,4,-10,7,35,29,9,2,-12,-17
-9,2,13,3,-10,8,33,26,8,1,-12,-16
-9,3,13,3,-11,9,30,23,6,1,-11,-16
-8,4,14,2,-11,10,28,20,5,0,-11,-15
-8,5,15,1,-11,11,25,17,3,0,-11,-15
-8,6,16,1,-11,11,23,14,2,0,-11,-14
-8,7,17,0,-12,12,21,11,0,-1,-10,-13
-7,7,17,0,-12,13,19,8,-1,-1,-10,-12
-7,8,17,0,-12,13,18,6,-2,-1,-9,-11
-6,8,17,-1,-12,14,16,3,-4,-2,-8,-10
-6,9,17,-1,-12,14,13,1,-5,-2,-8,-9
-6,10,18,-2,-12,15,11,-1,-7,-3,-7,-8
-6,11,18,-2,-12,15,9,-4,-8,-3,-7,-8
-5,11,18,-3,-12,15,7,-6,-9,-3,-6,-7
-5,11,18,-3,-11,15,6,-8,-10,-3,-6,-7
-4,12,18,-3,-11,15,4,-10,-11,-4,-5,-6
-3,12,18,-3,-10,15,2,-11,-12,-4,-5,-6
-3,12,17,-3,-10,15,1,-13,-13,-5,-5,-5
-2,11,16,-3,-9,15,0,-14,-14,-5,-5,-5
-2,11,16,-3,-9,14,-1,-15,-15,-6,-5,-5
-2,11,15,-3,-9,14,-3,-17,-16,-6,-5,-4
-2,10,15,-3,-8,13,-4,-18,-17,-7,-5,-4
-1,10,14,-3,-8,13,-5,-20,-18,-7,-5,-4
-1,10,13,-3,-7,12,-6,-21,-19,-8,-5,-4
0,10,12,-3,-7,12,-7,-22,-20,-8,-5,-4
0,9,11,-3,-6,11,-8,-23,-21,-9,-5,-4
0,8,11,-3,-6,11,-8,-24,-22,-9,-5,-4
0,7,10,-3,-6,10,-9,-25,-23,-10,-5,-4
0,7,10,-2,-6,9,-9,-26,-23,-11,-5,-4
0,6,9,-2,-5,9,-10,-26,-24,-11,-5,-4
0,5,8,-2,-5,8,-10,-27,-24,-12,-5,-4
0,4,8,-1,-4,7,-10,-28,-25,-12,-6,-4
-1,4,8,-1,-4,6,-10,-28,-25,-13,-6,-5
-1,3,7,0,-4,6,-10,-29,-26,-13,-7,-5
-1,3,7,0,-3,5,-10,-29,-26,-14,-7,-5
-1,2,6,0,-3,5,-10,-30,-27,-15,-7,-5
-2,2,6,0,-4,5,-10,-30,-28,-15,-8,-6
-2,1,5,0,-4,5,-11,-30,-28,-16,-8,-6
-2,1,5,1,-4,4,-11,-31,-29,-17,-9,-7
-2,0,5,1,-4,4,-11,-32,-29,-17,-9,-7
-2,0,5,2,-4,4,-11,-32,-30,-18,-10,-8
-2,0,5,2,-4,3,-11,-33,-30,-18,-10,-8
-2,-1,4,2,-3,3,-11,-33,-30,-19,-10,-8
-2,-1,3,2,-3,3,-11,-33,-31,-19,-10,-8
-3,-1,3,3,-3,2,-11,-33,-31,-20,-10,-8
-3,-1,3,3,-3,2,-11,-33,-32,-20,-11,-9
-3,-2,3,3,-3,2,-11,-33,-32,-20,-11,-9
-3,-2,3,3,-3,2,-11,-33,-32,-21,-11,-9
-3,-2,3,3,-3,2,-11,-33,-32,-21,-11,-9
-3,-2,3,3,-4,2,-11,-33,-32,-21,-11,-9
-3,-2,3,3,-4,2,-11,-33,-32,-21,-11,-10
-3,-2,3,3,-4,2,-11,-34,-32,-22,-12,-10
-3,-2,3,3,-4,2,-11,-34,-32,-22,-12,-10
-3,-2,3,3,-4,2,-11,-34,-32,-23,-13,-10
-3,-2,3,3,-4,2,-11,-34,-32,-23,-13,-10
-4,-2,3,3,-4,2,-10,-34,-32,-23,-13,-10
-4,-2,3,3,-4,2,-10,-34,-32,-23,-13,-10
-4,-2,3,3,-4,2,-10,-34,-32,-23,-13,-10
-4,-2,3,3,-4,2,-11,-34,-32,-23,-13,-11
-4,-2,3,3,-4,2,-11,-35,-33,-23,-13,-11
-4,-2,3,3,-4,2,-11,-35,-33,-23,-13,-11
-4,-2,3,3,-4,2,-11,-35,-33,-23,-13,-11
-4,-2,3,3,-4,2,-11,-35,-33,-23,-13,-11
-4,-2,3,3,-4,2,-11,-35,-33,-23,-13,-11
-4,-2,3,3,-4,2,-11,-35,-33,-23,-13,-11
-4,-2,3,3,-4,2,-11,-36,-33,-23,-13,-11
-4,-2,3,3,-4,2,-11,-36,-33,-23,-13,-11
-4,-2,3,3,-3,1,-11,-36,-33,-23,-13,-11
-4,-2,3,3,-3,1,-11,-36,-33,-23,-13,-11
-4,-2,3,3,-3,1,-11,-36,-33,-23,-13,-11
-4,-2,3,3,-4,1,-10,-36,-33,-23,-13,-11
-4,-2,3,3,-4,1,-10,-36,-33,-23,-13,-11
-4,-2,3,3,-4,1,-10,-36,-33,-23,-13,-11
-4,-2,3,3,-4,1,-10,-36,-33,-23,-13,-11
-4,-2,3,3,-4,1,-11,-36,-33,-23,-13,-11
-4,-2,4,3,-4,1,-11,-36,-33,-23,-13,-11
-4,-2,4,3,-4,1,-11,-36,-33,-23,-13,-11
-4,-2,4,3,-4,1,-11,-36,-33,-23,-13,-11
-4,-2,4,3,-4,1,-11,-36,-33,-23,-13,-11
-4,-2,4,3,-3,1,-11,-36,-33,-23,-13,-11
-4,-2,4,3,-3,1,-11,-36,-33,-23,-13,-11
-4,-2,4,4,-3,1,-11,-36,-33,-23,-13,-11
-5,-3,4,4,-4,1,-11,-36,-33,-23,-13,-12
-5,-3,4,4,-4,1,-11,-37,-33,-23,-13,-12
-4,-3,4,3,-3,1,-11,-37,-33,-24,-13,-12
-4,-2,4,3,-3,1,-11,-37,-33,-24,-13,-12
-4,-2,4,3,-3,1,-11,-37,-33,-25,-13,-12
-4,-2,4,3,-3,1,-11,-37,-33,-25,-13,-12
-4,-2,4,3,-3,1,-11,-37,-33,-25,-13,-12
-4,-2,4,3,-4,1,-11,-37,-33,-25,-13,-12
-4,-2,4,3,-4,1,-11,-37,-33,-25,-13,-12
-3,-1,4,3,-4,1,-11,-37,-33,-25,-13,-12
-3,-1,4,3,-4,2,-11,-37,-33,-26,-13,-12
-4,-1,4,3,-4,2,-11,-37,-33,-26,-13,-12
-4,-1,4,3,-4,2,-11,-37,-33,-26,-13,-12
-4,-2,4,3,-4,2,-11,-37,-33,-26,-13,-12
-4,-2,4,3,-4,1,-11,-37,-33,-26,-13,-12
-4,-2,3,3,-3,1,-11,-37,-33,-26,-13,-12
-4,-2,3,3,-3,1,-11,-37,-33,-26,-13,-12
-4,-2,4,3,-4,1,-11,-37,-33,-26,-13,-12
-4,-2,4,3,-4,1,-11,-37,-33,-26,-13,-12
-4,-2,4,3,-4,1,-12,-37,-33,-26,-13,-12
-4,-2,3,3,-4,1,-12,-37,-33,-25,-13,-12
-4,-2,3,3,-4,1,-12,-37,-33,-25,-13,-12
-4,-2,3,3,-4,1,-12,-37,-33,-25,-13,-12
-4,-2,3,3,-4,1,-12,-37,-33,-25,-13,-11
-4,-2,3,3,-4,1,-12,-36,-33,-25,-13,-11
-4,-3,3,3,-4,0,-12,-36,-33,-25,-13,-11
-4,-3,3,4,-4,0,-12,-36,-33,-25,-13,-11
-5,-3,3,4,-4,0,-12,-36,-33,-25,-13,-11
-4,-3,3,4,-4,0,-12,-36,-33,-25,-13,-11
-4,-2,3,3,-3,0,-12,-36,-33,-25,-13,-11
-4,-2,3,3,-3,0,-12,-36,-33,-24,-13,-11
-4,-2,3,3,-3,0,-11,-36,-33,-24,-13,-11
-4,-2,3,3,-3,0,-11,-36,-32,-24,-13,-11
-4,-2,3,3,-3,0,-11,-36,-32,-24,-13,-11
-4,-2,3,3,-3,0,-11,-36,-32,-24,-13,-11
-4,-2,3,3,-3,0,-11,-35,-32,-24,-13,-11
-4,-3,3,4,-3,0,-11,-35,-32,-23,-13,-11
-4,-3,3,4,-3,0,-11,-35,-32,-23,-13,-11
-4,-3,3,4,-3,0,-11,-35,-32,-23,-13,-11
-4,-3,3,4,-3,0,-11,-35,-32,-23,-13,-11
-4,-3,3,4,-3,0,-11,-35,-32,-23,-13,-11
-4,-3,3,4,-3,0,-11,-35,-32,-23,-13,-11
-4,-3,3,4,-3,0,-11,-35,-32,-23,-13,-11
-4,-2,3,4,-3,0,-11,-35,-32,-23,-12,-11
-5,-2,3,4,-3,0,-11,-35,-31,-23,-12,-11
-5,-2,3,4,-3,0,-11,-35,-31,-23,-12,-11
-4,-2,3,4,-3,0,-11,-34,-31,-22,-12,-11
-4,-2,3,4,-3,0,-11,-34,-31,-22,-12,-11
-4,-2,3,4,-4,0,-11,-34,-31,-22,-12,-11
-4,-2,3,4,-4,0,-11,-34,-31,-22,-12,-11
-4,-2,3,4,-4,0,-11,-34,-31,-21,-12,-11
-4,-2,3,4,-4,0,-11,-34,-31,-21,-12,-11
-4,-2,3,4,-4,0,-11,-34,-31,-21,-12,-11
-4,-2,3,3,-4,0,-11,-34,-31,-21,-12,-11
-4,-2,3,3,-4,0,-11,-34,-31,-21,-12,-11
-4,-2,3,3,-4,0,-11,-34,-31,-21,-13,-11
-4,-3,3,4,-4,0,-12,-34,-31,-21,-13,-11
-4,-3,3,4,-4,0,-12,-34,-31,-21,-13,-11
-4,-3,3,4,-4,0,-12,-34,-31,-21,-13,-11
-4,-3,3,4,-4,0,-12,-34,-30,-21,-13,-11
-4,-3,3,3,-3,-1,-12,-34,-30,-21,-13,-11
-4,-3,3,3,-3,-1,-12,-34,-30,-21,-13,-11
-4,-2,3,3,-3,-1,-12,-33,-30,-21,-13,-11
-5,-2,3,3,-3,-1,-12,-33,-29,-22,-13,-11
-5,-2,3,3,-3,-1,-12,-33,-29,-22,-13,-11
-5,-2,3,3,-3,-1,-12,-33,-29,-21,-13,-11
-5,-2,3,3,-3,-1,-11,-33,-29,-21,-13,-11
-5,-2,3,3,-4,-1,-11,-33,-28,-21,-13,-11
-5,-3,3,3,-4,-1,-11,-33,-28,-21,-13,-11
-5,-3,3,3,-4,-1,-11,-33,-28,-21,-12,-11
-5,-3,3,4,-4,-1,-11,-33,-28,-21,-12,-11
-5,-3,2,4,-4,-1,-12,-33,-28,-21,-12,-11
-5,-3,2,4,-4,-1,-12,-33,-28,-21,-12,-10
-5,-3,2,4,-4,-1,-12,-33,-28,-21,-12,-10
-5,-3,2,4,-4,-1,-11,-33,-28,-21,-12,-10
-4,-3,2,4,-4,-1,-11,-33,-28,-21,-12,-10
-4,-3,2,4,-3,-1,-11,-33,-28,-21,-12,-10
-4,-3,2,4,-3,-1,-12,-33,-28,-21,-12,-10
-4,-3,2,4,-3,-1,-12,-33,-28,-21,-12,-10
-5,-3,2,4,-3,-1,-12,-33,-28,-21,-13,-10
-5,-3,2,4,-3,-1,-12,-33,-28,-21,-13,-10
-5,-3,2,4,-3,-1,-12,-33,-28,-21,-13,-10
-5,-3,2,4,-3,-1,-12,-33,-28,-21,-13,-10
-5,-3,2,4,-3,-1,-11,-33,-28,-21,-13,-10
-4,-3,2,3,-3,-1,-11,-33,-28,-21,-13,-10
-4,-3,2,3,-3,-1,-11,-33,-28,-20,-13,-10
-4,-3,2,3,-3,-1,-11,-32,-28,-20,-13,-10
-4,-3,2,3,-3,-1,-11,-32,-28,-20,-13,-10
-4,-3,2,3,-3,-1,-11,-32,-28,-20,-13,-10
-4,-2,2,3,-3,-1,-11,-32,-28,-20,-13,-10
-4,-2,2,3,-3,-1,-11,-32,-29,-20,-12,-10
-4,-2,2,4,-3,-2,-11,-33,-28,-20,-12,-10
-5,-3,2,4,-3,-2,-11,-33,-28,-20,-12,-10
-5,-3,2,4,-3,-2,-11,-33,-27,-20,-12,-10
-5,-3,2,4,-3,-2,-11,-33,-27,-20,-12,-10
-4,-3,2,4,-3,-1,-11,-33,-27,-20,-12,-10
-4,-2,2,4,-3,-1,-12,-33,-27,-20,-12,-10
-4,-2,2,3,-3,-1,-12,-33,-27,-20,-12,-10
-4,-2,2,3,-3,-1,-12,-33,-28,-20,-12,-10
-4,-2,2,3,-3,-1,-12,-33,-28,-20,-12,-10
-4,-2,2,3,-3,0,-12,-33,-28,-20,-13,-10
-4,-2,2,3,-3,0,-12,-33,-28,-20,-13,-10
-4,-2,2,3,-3,-1,-12,-33,-29,-20,-13,-10
-4,-2,2,3,-3,-1,-12,-33,-29,-20,-13,-10
-4,-2,2,3,-3,-1,-12,-33,-29,-20,-13,-10
-4,-3,2,3,-3,-1,-12,-33,-29,-20,-13,-11
-5,-3,2,3,-3,-1,-12,-33,-29,-20,-13,-11
-4,-2,2,3,-3,-1,-12,-33,-29,-20,-12,-11
-4,-2,2,3,-3,-1,-12,-33,-28,-20,-12,-11
-4,-2,2,3,-3,-1,-12,-33,-28,-19,-11,-11
-4,-2,2,3,-3,-1,-12,-33,-28,-19,-11,-11
-4,-2,2,3,-3,-2,-11,-33,-28,-19,-11,-11
-4,-2,2,3,-3,-2,-11,-33,-28,-19,-11,-10
-4,-2,2,3,-3,-1,-11,-33,-28,-19,-11,-10
-4,-2,2,3,-3,-1,-11,-33,-28,-19,-11,-10
-5,-2,2,3,-3,-1,-11,-33,-28,-19,-11,-10
-5,-3,2,3,-3,-1,-11,-33,-28,-19,-11,-10
-5,-3,2,3,-3,-1,-12,-33,-28,-20,-11,-10
-5,-3,2,3,-4,-1,-12,-33,-28,-20,-11,-10
-5,-3,2,3,-4,-1,-12,-33,-28,-20,-11,-10
-5,-3,2,3,-4,-1,-12,-33,-28,-20,-11,-10
-4,-2,2,3,-4,-1,-12,-33,-28,-20,-11,-10
-4,-2,2,3,-4,-1,-12,-33,-28,-20,-11,-10
-4,-2,2,3,-4,-1,-12,-33,-28,-20,-11,-10
-4,-2,2,3,-4,-1,-12,-33,-28,-20,-12,-10
-4,-2,2,3,-4,-1,-12,-33,-28,-20,-12,-10
-4,-2,2,3,-4,-1,-12,-33,-28,-20,-12,-10
-4,-2,2,3,-4,-1,-12,-33,-28,-19,-12,-10
-4,-2,2,3,-4,-1,-12,-33,-28,-19,-12,-10
-4,-2,2,3,-4,-1,-12,-33,-28,-19,-12,-10
-4,-3,2,3,-4,-1,-12,-33,-28,-19,-11,-10
-4,-3,2,3,-4,-1,-12,-34,-28,-19,-11,-10
-4,-3,2,3,-4,-1,-12,-34,-28,-19,-11,-10
-4,-2,2,3,-4,-1,-12,-34,-28,-19,-11,-10
-4,-2,2,3,-4,-1,-12,-34,-28,-19,-11,-10
-4,-2,2,3,-4,-1,-12,-34,-28,-19,-11,-10
-4,-2,2,3,-4,-1,-12,-33,-28,-19,-11,-10
-4,-2,2,3,-4,0,-11,-33,-28,-19,-11,-9
-4,-1,3,3,-4,0,-11,-33,-28,-18,-11,-9
-3,-1,3,2,-4,0,-11,-33,-27,-18,-11,-9
-3,0,3,1,-4,1,-11,-33,-27,-17,-10,-9
-3,1,4,0,-4,1,-10,-32,-26,-17,-10,-9
-3,2,4,0,-4,2,-10,-32,-25,-16,-9,-9
-3,2,5,0,-5,3,-10,-32,-24,-16,-9,-8
-3,3,6,0,-5,3,-10,-32,-23,-15,-9,-8
-3,3,6,0,-5,4,-9,-32,-23,-15,-9,-8
-3,3,6,0,-5,4,-9,-31,-22,-15,-9,-8
-3,3,6,0,-5,4,-9,-31,-23,-15,-9,-8
-4,3,6,0,-5,4,-8,-31,-23,-15,-8,-8
-4,3,6,0,-5,4,-8,-31,-24,-15,-8,-7
-4,3,6,0,-5,4,-8,-31,-24,-15,-8,-7
-4,3,6,0,-5,4,-8,-30,-24,-15,-8,-7
-4,3,6,0,-5,4,-8,-30,-24,-15,-8,-7
-4,4,6,0,-5,4,-7,-30,-24,-15,-8,-7
-3,4,6,0,-5,4,-7,-30,-24,-15,-8,-6
-3,4,6,-1,-5,4,-7,-30,-24,-15,-7,-6
-3,4,7,-1,-5,5,-7,-30,-24,-15,-7,-6
-3,5,7,-1,-5,5,-7,-29,-24,-15,-7,-6
-2,6,7,-2,-5,6,-7,-29,-24,-14,-6,-6
-2,6,8,-2,-5,6,-7,-29,-24,-14,-6,-6
-2,7,8,-3,-5,7,-8,-29,-24,-14,-6,-6
-1,7,8,-3,-5,7,-8,-29,-24,-13,-6,-6
-1,8,9,-4,-5,8,-9,-29,-24,-13,-6,-5
-1,8,9,-4,-5,8,-9,-29,-24,-13,-6,-5
-1,8,9,-4,-5,8,-10,-30,-24,-13,-6,-5
-2,7,9,-4,-5,7,-11,-31,-24,-13,-6,-5
-2,7,8,-4,-5,7,-11,-31,-24,-14,-6,-5
-2,7,8,-4,-5,7,-12,-32,-24,-14,-6,-5
-2,7,8,-4,-5,8,-12,-32,-25,-15,-6,-5
-2,8,9,-4,-6,8,-12,-33,-25,-15,-6,-5
-2,8,9,-4,-6,8,-12,-33,-25,-15,-5,-5
-3,8,10,-4,-7,9,-12,-33,-25,-15,-5,-4
-3,9,11,-4,-7,9,-12,-33,-24,-14,-5,-4
-2,9,12,-4,-7,9,-12,-33,-24,-14,-4,-3
-2,9,11,-4,-6,9,-12,-32,-24,-14,-4,-3
-2,9,11,-4,-6,9,-12,-32,-24,-14,-4,-3
-2,9,10,-4,-6,9,-12,-32,-24,-13,-4,-3
-2,8,9,-4,-6,8,-11,-31,-23,-13,-4,-3
-2,7,8,-3,-5,7,-11,-31,-23,-13,-4,-3
-2,5,7,-2,-5,5,-12,-30,-23,-13,-4,-3
-2,4,6,-2,-5,4,-12,-31,-23,-14,-5,-3
-3,3,5,-1,-4,3,-12,-31,-24,-15,-5,-4
-3,1,4,0,-4,2,-12,-32,-25,-16,-6,-6
-4,0,4,1,-4,1,-12,-33,-26,-18,-8,-7
-5,0,4,2,-4,1,-12,-34,-27,-19,-9,-8
-5,-1,3,2,-4,0,-12,-34,-28,-19,-9,-8
-5,-1,3,2,-4,0,-13,-35,-29,-20,-10,-9
-5,-2,2,2,-4,0,-13,-35,-29,-20,-10,-9
-5,-2,2,2,-4,-1,-13,-35,-29,-21,-11,-10
-5,-2,2,2,-4,-1,-13,-36,-30,-21,-11,-10
-5,-2,2,3,-4,-1,-13,-36,-30,-21,-11,-10
-5,-3,1,3,-4,-2,-13,-36,-30,-21,-11,-10
-5,-3,1,3,-4,-2,-13,-36,-30,-21,-11,-10
-5,-4,0,3,-4,-2,-13,-36,-30,-21,-12,-10
-5,-4,0,3,-4,-2,-13,-36,-30,-21,-12,-10
-5,-4,0,4,-4,-2,-13,-35,-30,-21,-12,-10
-5,-4,0,4,-4,-3,-13,-35,-30,-21,-12,-10
-5,-4,0,4,-4,-3,-13,-35,-30,-21,-12,-10
-5,-5,0,4,-3,-3,-13,-35,-30,-21,-12,-10
-5,-5,-1,4,-3,-3,-13,-36,-30,-21,-12,-10
-5,-5,-1,5,-3,-3,-13,-36,-31,-22,-12,-10
-5,-5,-1,5,-3,-3,-13,-36,-31,-22,-12,-10
-5,-5,-1,5,-3,-3,-13,-36,-31,-22,-12,-10
-5,-6,-1,5,-3,-3,-13,-36,-31,-21,-12,-10
-5,-6,-1,5,-3,-3,-13,-36,-31,-21,-12,-10
-5,-6,-1,5,-3,-3,-13,-37,-31,-20,-12,-10
-6,-6,-1,5,-3,-3,-13,-37,-31,-20,-12,-10
-5,-6,-1,5,-3,-3,-13,-37,-31,-20,-12,-10
-5,-6,-1,5,-3,-3,-13,-37,-31,-20,-12,-10
-5,-6,-1,5,-3,-3,-13,-37,-31,-20,-12,-10
-5,-6,-1,5,-3,-4,-13,-37,-31,-20,-12,-10
-5,-6,-1,5,-3,-4,-13,-37,-31,-20,-12,-10
-5,-6,-1,5,-3,-4,-13,-37,-31,-20,-12,-10
-5,-6,-1,5,-3,-4,-13,-37,-31,-20,-12,-10
-5,-6,-1,5,-2,-4,-13,-37,-31,-20,-12,-10
-5,-6,-1,5,-2,-4,-13,-38,-31,-20,-12,-10
-6,-7,-1,5,-2,-4,-13,-38,-31,-20,-11,-10
-6,-7,-1,5,-2,-4,-13,-38,-31,-20,-11,-10
-6,-7,-1,5,-2,-4,-13,-38,-31,-19,-11,-10
-6,-7,-1,5,-2,-4,-13,-38,-31,-19,-11,-10
-6,-6,-1,5,-2,-4,-13,-38,-31,-19,-11,-10
-6,-6,-1,5,-2,-4,-13,-38,-31,-19,-11,-10
-6,-6,-1,5,-2,-4,-13,-39,-31,-20,-12,-10
-6,-7,-1,5,-2,-4,-13,-39,-31,-20,-12,-10
-5,-7,-1,5,-2,-4,-13,-39,-32,-20,-12,-10
-5,-6,-1,5,-2,-4,-13,-39,-32,-19,-12,-10
-5,-6,-1,5,-2,-4,-13,-39,-32,-19,-12,-10
-5,-6,-1,5,-2,-4,-13,-39,-32,-19,-12,-10
-5,-6,-1,5,-2,-4,-13,-40,-33,-19,-12,-10
-5,-5,0,5,-3,-3,-13,-41,-33,-20,-13,-10
-6,-4,1,4,-4,-2,-13,-43,-34,-20,-13,-10
-6,-3,3,4,-5,0,-13,-47,-36,-21,-13,-10
-7,-2,5,4,-6,1,-14,-52,-39,-23,-13,-10
-8,-1,7,4,-8,2,-14,-57,-42,-24,-13,-10
-9,-1,8,4,-8,3,-14,-62,-45,-25,-13,-9
-9,-1,8,4,-8,3,-14,-65,-47,-26,-12,-9
-9,-1,7,4,-8,2,-13,-67,-49,-26,-12,-8
-8,-2,6,4,-7,1,-12,-69,-49,-26,-10,-6
-7,-2,4,4,-5,0,-12,-70,-48,-23,-7,-3
-5,-1,3,3,-4,0,-14,-71,-47,-20,-3,0
-3,-1,1,2,-2,0,-18,-72,-46,-17,1,4
0,0,0,0,0,0,-23,-73,-45,-13,5,8
2,1,0,-2,1,0,-28,-75,-45,-11,8,12
4,4,0,-5,2,2,-33,-79,-46,-9,11,16
7,9,1,-9,3,5,-40,-83,-47,-8,15,20
10,13,2,-13,4,7,-47,-86,-48,-8,17,24
14,14,0,-15,6,7,-53,-87,-49,-9,17,24
16,13,-3,-15,10,4,-57,-87,-51,-11,14,22
18,10,-7,-15,13,1,-60,-87,-55,-16,10,19
20,7,-12,-14,17,-3,-62,-88,-60,-22,4,13
20,3,-17,-12,19,-7,-64,-90,-67,-31,-5,4
18,-1,-19,-9,18,-10,-65,-91,-74,-42,-16,-6
14,-6,-20,-5,17,-13,-65,-91,-78,-51,-27,-16
10,-10,-20,-1,15,-15,-66,-88,-78,-56,-35,-24
5,-12,-18,2,12,-15,-65,-83,-75,-58,-40,-30
0,-12,-14,5,7,-13,-62,-75,-69,-57,-43,-35
-4,-13,-8,8,2,-11,-57,-66,-61,-54,-45,-39
-8,-13,-4,9,-1,-9,-50,-55,-53,-50,-44,-40
-10,-12,-1,10,-4,-7,-44,-45,-44,-44,-42,-40
-11,-10,1,9,-6,-5,-39,-35,-36,-38,-39,-38
-11,-7,3,8,-7,-2,-35,-27,-29,-33,-36,-36
-10,-5,4,7,-8,0,-31,-20,-22,-27,-32,-33
-9,-3,5,6,-7,0,-27,-12,-15,-22,-29,-31
-8,-3,5,5,-7,1,-23,-5,-9,-18,-25,-28
-7,-2,5,5,-7,1,-18,1,-3,-13,-22,-25
-6,-1,6,4,-6,2,-14,7,1,-9,-19,-23
-5,-1,6,3,-6,2,-9,13,6,-4,-15,-20
-4,0,5,2,-5,2,-4,20,12,0,-12,-18
-4,0,4,1,-4,2,-1,26,17,4,-10,-16
-3,0,3,1,-3,1,1,30,21,7,-8,-14
-2,0,2,0,-2,0,3,34,24,9,-6,-13
-2,0,1,0,-2,0,4,36,27,10,-4,-11
-1,-1,0,0,-1,0,5,37,28,12,-3,-10
-1,-2,-1,1,0,-1,7,39,29,13,-2,-9
-1,-4,-2,1,0,-3,9,40,30,14,-1,-9
-1,-5,-4,2,1,-4,11,42,31,15,-1,-9
0,-6,-6,2,2,-6,13,44,32,16,0,-9
0,-7,-8,3,3,-8,13,46,34,17,0,-9
0,-8,-9,3,4,-9,14,48,35,18,0,-8
1,-9,-11,3,5,-10,14,50,37,19,0,-8
1,-10,-12,3,6,-11,14,51,38,19,1,-7
2,-10,-12,3,7,-11,15,52,38,20,2,-7
2,-11,-13,3,7,-12,16,53,39,21,3,-6
2,-12,-14,3,8,-13,17,54,40,22,3,-6
2,-13,-15,4,8,-14,18,55,41,23,4,-6
2,-13,-16,4,9,-15,18,57,42,24,4,-5
3,-13,-16,4,9,-15,19,58,43,25,4,-5
3,-13,-17,4,10,-15,19,59,45,25,4,-4
4,-12,-17,4,10,-15,19,59,46,26,5,-4
4,-13,-17,4,10,-15,20,60,46,26,5,-4
4,-13,-17,4,10,-15,20,60,46,27,6,-4
4,-13,-17,4,10,-15,21,61,46,27,6,-4
4,-13,-17,4,10,-15,21,62,47,28,7,-3
4,-13,-17,4,11,-16,22,64,48,29,7,-3
4,-14,-18,4,11,-16,22,65,48,29,7,-3
3,-14,-18,5,11,-16,22,66,49,30,7,-3
3,-14,-18,5,11,-16,22,66,50,30,7,-2
4,-14,-19,5,11,-17,23,67,51,31,7,-2
4,-14,-19,5,11,-17,23,67,51,32,7,-2
4,-14,-19,4,11,-17,24,68,52,33,8,-2
5,-13,-19,4,12,-17,24,70,53,34,8,-1
5,-13,-19,3,12,-17,24,72,54,35,8,-1
6,-13,-20,3,13,-17,25,73,55,36,8,-1
6,-13,-20,3,13,-17,25,75,56,37,9,0
6,-14,-20,3,13,-17,25,76,58,37,9,0
6,-14,-20,3,13,-17,25,76,59,38,10,0
7,-13,-20,3,13,-17,26,77,59,39,10,1
8,-13,-20,2,14,-17,26,78,60,39,11,1
8,-13,-20,2,14,-17,27,79,61,40,12,2
8,-13,-21,2,14,-17,27,81,62,42,12,2
8,-13,-21,2,14,-17,28,83,63,43,13,3
8,-13,-22,2,14,-17,28,85,65,44,14,3
9,-13,-22,1,15,-18,29,86,66,45,14,4
9,-13,-22,1,15,-18,29,87,68,46,15,4
10,-13,-22,1,16,-18,29,88,69,47,15,4
10,-12,-23,1,16,-18,30,89,69,48,16,5
11,-12,-23,0,17,-18,30,91,70,49,17,5
11,-11,-23,0,17,-17,31,92,71,50,18,6
12,-11,-23,0,17,-17,31,94,73,51,19,6
12,-11,-23,0,17,-18,31,96,74,52,20,7
12,-11,-23,0,17,-18,32,97,76,53,20,7
12,-11,-23,-1,17,-18,32,98,77,54,21,8
12,-11,-23,-1,18,-18,32,99,78,55,22,8
13,-11,-23,-1,18,-17,33,100,79,56,23,9
13,-11,-23,-1,18,-17,33,101,80,57,23,9
14,-10,-23,-2,18,-17,34,102,81,58,24,10
14,-10,-24,-2,18,-17,34,104,82,59,25,11
15,-9,-24,-3,18,-17,34,106,84,60,26,12
15,-9,-24,-3,19,-17,35,107,85,61,26,13
16,-8,-24,-4,20,-17,35,108,86,62,27,13
16,-8,-24,-4,20,-17,35,108,87,63,28,14
16,-8,-24,-4,20,-17,36,109,88,63,28,14
17,-8,-24,-5,20,-16,36,109,88,64,29,14
18,-7,-24,-5,20,-16,37,110,89,65,30,15
18,-6,-24,-6,20,-15,37,111,90,65,31,16
18,-5,-23,-6,20,-15,37,112,90,66,32,16
18,-5,-23,-6,20,-14,37,113,91,67,32,17
18,-5,-23,-7,20,-14,37,114,92,67,33,17
19,-5,-23,-7,20,-14,37,115,93,68,34,18
19,-4,-23,-8,20,-14,37,115,93,68,34,18
19,-4,-23,-8,20,-13,38,115,93,69,35,19
19,-3,-22,-8,20,-13,38,116,94,70,36,20
19,-3,-22,-8,20,-12,39,116,94,71,37,21
19,-2,-22,-8,20,-12,39,117,95,72,38,22
20,-1,-22,-9,21,-12,39,117,95,73,38,23
20,-1,-21,-9,21,-11,39,117,96,74,39,23
20,0,-20,-10,20,-11,39,117,96,74,39,24
20,0,-20,-10,20,-10,39,117,97,75,40,24
21,0,-19,-11,20,-9,39,117,97,75,41,25
21,1,-19,-11,20,-9,39,117,97,76,42,26
21,2,-18,-12,20,-8,39,116,97,76,42,27
21,3,-18,-12,20,-7,39,116,97,76,43,28
21,4,-17,-13,19,-7,39,116,97,76,44,29
21,4,-16,-13,19,-6,39,115,97,76,44,30
21,5,-15,-14,18,-5,39,115,96,77,45,30
21,6,-14,-14,18,-4,38,114,96,77,45,30
21,7,-14,-14,18,-4,38,113,96,77,46,31
21,8,-13,-15,17,-3,37,112,95,77,46,32
21,8,-13,-15,17,-2,37,110,95,76,47,33
22,9,-13,-16,17,-2,37,109,95,76,47,33
22,10,-12,-16,17,-1,36,107,95,75,47,34
22,10,-11,-16,17,-1,36,106,95,75,48,34
22,11,-10,-17,16,0,35,104,93,74,48,35
22,11,-9,-17,16,1,35,102,92,74,48,35
22,12,-9,-17,15,1,34,100,90,73,48,35
22,12,-8,-17,15,2,33,98,89,72,48,35
22,13,-8,-18,14,3,32,96,88,71,48,35
22,14,-7,-18,14,4,32,94,87,70,48,35
21,15,-6,-18,13,5,31,92,86,69,47,35
21,16,-5,-18,13,5,30,89,84,68,47,36
21,16,-4,-19,12,6,29,87,83,67,47,36
21,17,-3,-19,12,7,28,84,81,66,46,36
20,17,-3,-19,11,7,27,82,79,65,46,36
20,17,-2,-19,11,7,26,79,78,63,45,36
20,17,-2,-19,11,8,25,76,76,62,45,36
20,18,-1,-20,10,8,24,73,74,60,44,36
20,19,0,-20,10,9,23,70,72,59,44,36
20,19,0,-20,9,9,22,67,69,57,44,36
19,19,0,-19,9,9,21,64,67,56,43,35
19,19,1,-19,8,10,19,61,65,54,42,35
18,20,2,-19,8,10,18,58,63,52,41,34
18,20,3,-19,7,11,17,54,60,49,39,33
17,20,3,-19,7,11,16,50,57,47,38,32
17,20,4,-19,6,12,15,47,54,44,37,31
16,20,4,-19,6,12,14,43,51,42,35,30
16,20,5,-18,5,12,13,40,48,40,34,29
15,20,5,-18,5,12,12,36,45,37,33,28
14,20,6,-17,4,12,11,33,42,35,31,27
13,20,7,-17,3,13,10,30,40,32,29,25
12,19,7,-16,3,13,9,26,37,29,27,24
12,18,7,-15,2,12,8,23,34,26,25,22
11,17,7,-14,2,12,7,19,31,23,23,21
10,16,7,-13,1,12,7,16,27,21,22,19
9,16,8,-13,0,12,6,13,24,18,20,18
9,16,8,-12,0,11,5,10,21,16,18,16
8,15,8,-12,0,11,5,7,19,13,16,14
7,14,8,-11,0,10,4,4,16,11,14,13
6,13,8,-10,0,10,3,1,14,8,12,11
5,12,8,-10,-1,10,2,-2,11,6,10,10
4,11,8,-9,-1,10,1,-5,7,4,8,9
4,11,8,-8,-2,9,1,-7,2,2,6,8
4,10,7,-8,-2,9,0,-10,0,0,5,7
3,9,7,-7,-2,8,0,-12,-3,-1,4,5
2,8,7,-6,-3,8,-1,-14,-5,-3,2,4
1,7,6,-5,-3,7,-1,-16,-6,-4,1,2
1,7,6,-4,-3,6,-2,-18,-7,-6,0,1
0,6,6,-4,-3,6,-3,-20,-8,-8,-2,0
0,6,6,-3,-3,6,-4,-22,-9,-10,-3,-1
0,5,6,-3,-3,5,-4,-24,-11,-12,-4,-2
-1,5,6,-2,-3,5,-5,-25,-13,-13,-5,-3
-1,4,5,-1,-3,4,-5,-27,-15,-14,-7,-4
-2,3,5,-1,-3,4,-5,-28,-17,-15,-8,-5
-2,3,5,0,-3,4,-6,-29,-17,-16,-9,-6
-2,2,5,0,-3,3,-6,-30,-18,-17,-10,-7
-3,1,5,0,-4,3,-7,-31,-21,-18,-11,-7
-4,1,5,1,-4,3,-7,-33,-23,-20,-12,-8
-4,0,5,1,-4,3,-7,-34,-25,-21,-13,-9
-4,0,5,1,-4,3,-7,-35,-26,-22,-13,-9
-4,0,5,1,-4,2,-7,-35,-27,-22,-14,-10
-4,0,5,2,-4,2,-7,-36,-27,-23,-14,-10
-4,0,5,2,-4,2,-7,-36,-27,-23,-14,-10
-4,0,5,2,-4,2,-8,-37,-27,-24,-15,-11
-4,0,5,2,-4,2,-8,-37,-27,-24,-15,-11
-4,0,5,2,-4,2,-8,-38,-28,-25,-15,-11
-4,0,5,2,-4,2,-8,-39,-30,-25,-16,-11
-5,0,5,2,-4,2,-8,-40,-31,-26,-16,-12
-5,0,5,2,-5,2,-8,-41,-32,-26,-16,-12
-6,-1,5,3,-5,1,-9,-43,-33,-27,-16,-13
-6,-1,5,3,-5,0,-9,-44,-35,-28,-17,-13
-6,-2,5,4,-5,0,-9,-46,-36,-29,-17,-14
-7,-2,5,4,-6,1,-9,-48,-38,-30,-18,-15
-7,-2,6,4,-6,1,-9,-51,-40,-31,-19,-15
-8,-2,6,4,-7,1,-9,-54,-42,-33,-20,-16
-9,-2,7,5,-8,2,-9,-58,-44,-34,-21,-17
-10,-2,8,6,-8,2,-9,-61,-46,-35,-21,-17
-10,-2,8,6,-9,2,-9,-65,-47,-35,-22,-18
-11,-2,8,6,-9,2,-10,-68,-48,-36,-22,-18
-11,-2,9,6,-10,2,-11,-71,-49,-37,-23,-18
-11,-2,10,6,-10,3,-12,-74,-51,-38,-23,-18
-11,-2,11,6,-11,4,-14,-78,-53,-39,-24,-19
-12,-1,11,6,-11,4,-16,-82,-55,-40,-25,-19
-12,-1,12,6,-12,5,-17,-85,-56,-41,-25,-20
-12,-1,12,6,-12,5,-19,-87,-56,-42,-26,-20
-12,0,13,5,-12,6,-20,-88,-57,-42,-26,-20
-11,0,13,4,-11,6,-22,-89,-57,-41,-25,-20
-11,0,12,5,-11,6,-24,-91,-57,-41,-25,-20
-12,0,13,5,-12,6,-27,-93,-58,-42,-26,-20
-12,0,13,5,-12,6,-29,-96,-59,-43,-26,-20
-12,0,13,5,-12,6,-33,-100,-61,-43,-26,-20
-12,0,13,5,-12,6,-37,-105,-64,-45,-26,-20
-13,0,13,6,-12,6,-41,-112,-68,-47,-27,-21
-13,0,13,6,-13,6,-46,-120,-72,-50,-29,-22
-14,0,14,6,-14,7,-50,-127,-76,-53,-31,-23
-14,1,16,6,-15,8,-55,-134,-80,-55,-32,-24
-14,4,19,5,-17,11,-59,-141,-82,-56,-32,-24
-14,8,23,3,-18,15,-64,-146,-84,-56,-31,-22
-14,13,28,0,-20,19,-69,-150,-84,-54,-28,-19
-13,18,32,-3,-22,24,-74,-153,-84,-52,-25,-15
-11,25,36,-7,-23,30,-80,-153,-82,-48,-20,-11
-9,31,40,-11,-23,35,-85,-152,-78,-43,-15,-6
-6,37,43,-16,-24,39,-90,-149,-74,-37,-10,0
-3,43,45,-20,-24,44,-93,-144,-68,-31,-4,5
0,48,47,-24,-23,47,-97,-138,-62,-24,3,11
5,52,47,-29,-21,49,-100,-130,-54,-16,11,19
9,56,47,-33,-19,51,-103,-122,-45,-7,19,27
13,59,47,-36,-16,52,-106,-113,-35,2,28,35
16,62,46,-40,-14,53,-108,-104,-26,11,36,42
20,64,45,-43,-11,54,-109,-95,-18,19,43,49
23,65,42,-45,-8,54,-109,-87,-11,26,48,54
27,66,40,-47,-6,53,-108,-80,-6,32,54,59
29,67,38,-48,-4,53,-106,-73,0,37,59,64
31,67,36,-49,-2,52,-103,-65,5,43,64,69
34,66,33,-50,0,50,-100,-57,10,48,69,73
36,64,28,-50,4,46,-96,-48,16,53,73,77
38,60,22,-50,9,41,-92,-38,22,58,76,81
41,56,16,-49,13,35,-88,-29,28,63,80,84
43,51,9,-48,17,30,-83,-21,33,66,82,86
44,46,3,-46,21,25,-79,-15,36,68,83,87
44,41,-2,-44,23,19,-74,-9,38,70,83,87
45,36,-8,-41,26,14,-69,-3,41,71,83,87
45,30,-13,-38,28,8,-64,2,44,71,83,87
44,25,-18,-35,31,3,-60,6,45,71,82,85
44,21,-22,-33,33,-1,-57,8,45,71,80,84
43,17,-25,-31,35,-5,-54,9,46,70,78,82
43,13,-29,-29,37,-8,-51,11,47,70,77,80
43,10,-32,-27,38,-11,-49,14,47,70,75,78
43,7,-34,-26,39,-13,-47,15,47,70,73,76
42,6,-36,-24,39,-14,-46,15,47,68,71,74
42,4,-37,-23,39,-16,-45,15,46,67,69,71
41,3,-38,-22,40,-17,-44,16,45,64,66,67
40,1,-38,-20,39,-18,-42,16,44,61,61,63
38,0,-37,-19,38,-19,-39,18,43,58,56,58
36,0,-36,-18,37,-19,-36,21,43,56,51,53
34,-1,-35,-17,35,-19,-31,26,45,55,48,49
32,-2,-34,-16,34,-18,-26,35,49,57,46,46
31,-2,-33,-15,32,-18,-20,45,55,60,46,44
30,-3,-32,-14,31,-17,-13,55,61,62,45,42
27,-3,-30,-12,29,-17,-7,65,67,63,43,39
24,-4,-27,-11,26,-16,-1,72,71,62,40,34
21,-4,-25,-9,24,-15,5,78,72,60,34,28
18,-4,-22,-7,21,-14,10,82,71,55,28,21
15,-5,-20,-6,18,-13,14,83,68,49,21,14
12,-7,-19,-3,16,-14,17,84,65,43,15,8
10,-10,-19,-1,15,-15,19,85,63,38,10,3
8,-12,-19,1,14,-16,21,86,61,35,7,0
7,-14,-20,3,14,-17,23,87,60,33,5,-1
6,-15,-20,4,13,-17,24,87,60,32,3,-3
5,-16,-20,5,13,-18,25,87,59,30,2,-5
4,-16,-20,5,13,-19,26,87,59,29,0,-7
4,-17,-20,5,13,-19,27,86,57,28,-1,-8
3,-17,-20,6,12,-19,27,85,55,26,-2,-9
2,-18,-20,6,12,-19,27,83,53,24,-4,-10
1,-18,-19,7,10,-19,28,80,50,22,-5,-11
0,-18,-18,8,9,-18,29,78,48,20,-7,-12
-1,-18,-17,9,8,-18,30,77,47,18,-8,-13
-2,-19,-18,10,8,-19,32,75,45,17,-10,-14
-2,-21,-18,10,8,-20,33,74,44,16,-11,-15
-2,-21,-19,10,8,-20,33,72,43,15,-12,-16
-3,-21,-19,10,8,-20,34,71,41,14,-13,-18
-3,-21,-18,10,8,-20,34,70,40,12,-14,-19
-3,-21,-18,11,7,-19,35,69,39,11,-14,-19
-4,-21,-17,12,7,-19,37,69,38,10,-15,-20
-4,-22,-17,12,6,-19,38,68,37,9,-16,-20
-4,-22,-17,12,6,-19,39,68,37,8,-16,-20
-4,-22,-17,12,6,-19,39,68,37,8,-16,-20
-4,-22,-17,11,7,-19,40,68,37,8,-16,-20
-4,-22,-17,11,7,-19,41,69,37,8,-16,-20
-4,-22,-17,12,7,-20,42,69,37,8,-16,-20
-4,-23,-18,12,7,-20,43,70,37,8,-16,-20
-4,-23,-18,12,7,-20,44,70,37,8,-16,-20
-4,-22,-18,12,7,-20,45,70,37,8,-16,-20
-4,-22,-17,12,7,-20,46,71,37,8,-16,-20
-4,-22,-17,12,7,-20,47,71,37,8,-17,-20
-4,-22,-17,12,7,-20,47,71,36,7,-18,-21
-4,-23,-17,12,7,-20,47,72,36,7,-19,-21
-4,-23,-17,12,7,-20,47,72,35,6,-19,-22
-4,-23,-17,12,7,-20,47,72,35,6,-19,-22
-4,-23,-17,12,7,-20,48,73,36,6,-19,-22
-4,-23,-17,12,7,-20,49,74,36,6,-19,-21
-4,-22,-17,12,7,-20,50,75,37,7,-18,-21
-4,-22,-17,12,7,-20,50,76,37,7,-18,-21
-4,-22,-17,11,7,-20,51,76,37,7,-19,-21
-4,-21,-17,11,7,-20,52,77,37,7,-19,-22
-3,-22,-18,11,8,-20,53,77,37,7,-19,-22
-3,-22,-18,12,8,-20,54,78,37,7,-19,-22
-3,-23,-19,12,8,-21,55,79,37,7,-19,-23
-3,-23,-19,12,8,-21,55,80,37,7,-20,-23
-3,-23,-18,12,8,-20,56,80,37,7,-20,-23
-3,-23,-18,12,8,-20,56,80,37,7,-20,-23
-3,-23,-18,13,8,-20,57,80,37,8,-19,-23
-3,-23,-18,13,8,-21,57,81,37,8,-19,-22
-3,-23,-18,13,8,-21,58,81,37,8,-19,-22
-4,-23,-18,13,8,-21,58,81,37,7,-20,-23
-4,-22,-17,13,7,-20,58,80,36,7,-20,-24
-4,-22,-16,13,7,-19,59,80,36,6,-20,-24
-5,-22,-15,13,6,-19,59,79,36,6,-21,-25
-5,-22,-15,13,6,-18,60,79,36,5,-21,-26
-5,-21,-15,13,6,-18,60,78,35,5,-22,-26
-5,-21,-15,13,5,-18,60,78,35,5,-22,-26
-6,-21,-14,13,5,-17,61,78,35,5,-21,-26
-6,-21,-13,13,4,-17,61,78,35,5,-21,-25
-6,-21,-13,13,4,-17,61,77,35,5,-21,-25
-6,-21,-12,13,4,-17,61,76,34,5,-20,-25
-6,-20,-12,13,3,-16,61,75,34,5,-20,-24
-6,-20,-11,13,3,-16,61,74,34,6,-20,-23
-6,-20,-11,13,3,-16,62,74,33,6,-20,-23
-7,-20,-11,13,2,-16,62,73,33,6,-21,-24
-7,-19,-11,13,2,-15,62,72,32,5,-21,-24
-7,-18,-9,12,1,-14,61,71,32,4,-22,-24
-7,-16,-8,11,1,-13,60,69,31,3,-22,-25
-8,-16,-6,11,0,-12,58,67,30,2,-23,-25
-8,-15,-5,11,0,-11,57,64,29,1,-23,-25
-9,-15,-4,11,-1,-10,57,62,27,0,-24,-26
-10,-15,-3,11,-2,-9,56,60,26,0,-24,-26
-10,-14,-2,11,-2,-8,55,58,26,0,-24,-26
-10,-12,0,10,-3,-6,54,56,25,1,-24,-25
-10,-10,1,9,-4,-5,53,54,25,1,-24,-25
-10,-9,2,9,-4,-3,51,52,24,1,-24,-24
-10,-8,2,8,-5,-3,50,49,22,0,-23,-23
-10,-8,3,8,-5,-2,49,46,21,0,-22,-22
-10,-8,3,9,-6,-2,48,43,20,0,-21,-21
-11,-7,4,9,-7,-1,47,40,18,0,-21,-21
-11,-6,5,8,-7,0,45,37,17,-1,-21,-21
-11,-5,6,8,-8,0,43,34,15,-2,-21,-21
-11,-4,7,7,-8,1,41,31,13,-3,-22,-21
-11,-3,8,7,-9,2,38,28,12,-4,-22,-20
-10,-2,9,6,-9,3,36,25,10,-5,-22,-20
-10,-1,10,6,-9,4,34,21,8,-6,-22,-20
-10,0,12,5,-10,6,32,18,6,-7,-23,-20
-10,1,13,4,-11,7,30,15,4,-8,-23,-20
-10,2,14,3,-11,8,27,12,3,-8,-22,-19
-9,4,15,2,-11,10,24,8,1,-9,-22,-18
-9,6,16,1,-12,11,22,5,0,-9,-21,-17
-9,7,17,1,-13,12,19,2,-1,-10,-21,-17
-9,8,18,0,-13,13,17,0,-2,-10,-20,-16
-8,8,18,0,-13,13,16,-2,-3,-10,-20,-15
-8,9,18,-1,-13,14,14,-5,-4,-10,-19,-14
-8,9,18,-1,-13,14,13,-7,-6,-10,-18,-13
-7,9,18,-1,-12,14,11,-10,-7,-10,-18,-12
-7,9,18,-1,-12,14,9,-12,-9,-11,-18,-12
-7,9,18,-1,-12,14,7,-15,-11,-12,-18,-12
-7,9,18,-1,-12,14,5,-17,-12,-13,-18,-12
-6,9,18,-1,-12,14,2,-18,-13,-14,-17,-11
-6,9,17,-2,-11,14,0,-20,-14,-14,-17,-10
-6,10,17,-2,-11,14,0,-22,-15,-14,-16,-9
-6,10,17,-2,-10,14,-1,-23,-15,-14,-16,-8
-5,9,15,-2,-9,13,-2,-24,-16,-14,-15,-8
-5,8,13,-2,-8,11,-3,-25,-17,-14,-15,-7
-4,7,12,-2,-7,10,-4,-26,-18,-14,-14,-6
-4,7,11,-2,-7,9,-5,-27,-19,-14,-14,-6
-3,6,11,-2,-6,9,-6,-28,-20,-15,-13,-6
-3,6,10,-1,-6,8,-6,-29,-21,-15,-13,-6
-3,6,10,-1,-6,8,-7,-30,-22,-15,-13,-5
-3,6,10,-1,-6,8,-7,-32,-23,-16,-14,-5
-3,5,10,-1,-6,8,-8,-33,-24,-16,-15,-6
-3,5,9,-1,-5,7,-9,-34,-25,-17,-15,-6
-4,4,9,0,-5,7,-10,-35,-26,-18,-16,-7
-4,4,9,0,-5,7,-12,-36,-27,-19,-16,-8
-4,4,9,0,-5,7,-13,-36,-28,-20,-17,-8
-4,4,9,0,-5,7,-13,-37,-28,-21,-17,-9
-4,3,8,0,-5,6,-12,-37,-28,-21,-17,-9
-4,2,7,1,-5,5,-12,-37,-28,-21,-17,-9
-4,1,6,1,-4,4,-11,-37,-29,-21,-17,-9
-4,1,6,1,-4,4,-11,-38,-29,-21,-18,-9
-4,1,6,1,-5,4,-12,-38,-30,-22,-18,-8
-4,1,6,1,-5,4,-12,-39,-30,-22,-18,-8
-4,0,5,2,-4,3,-13,-39,-31,-22,-18,-8
-4,0,4,2,-3,2,-13,-39,-31,-22,-18,-8
-4,-1,4,3,-4,2,-13,-39,-31,-22,-19,-9
-4,-2,4,3,-4,1,-13,-39,-31,-23,-19,-9
-4,-2,3,3,-4,1,-13,-40,-32,-23,-20,-10
-5,-2,3,3,-3,0,-12,-40,-32,-23,-20,-10
-5,-2,2,3,-3,0,-12,-40,-32,-23,-20,-10
-6,-2,2,4,-3,0,-12,-40,-32,-24,-20,-10
-6,-2,3,4,-3,0,-12,-40,-33,-24,-20,-11
-6,-2,4,4,-4,0,-12,-40,-34,-25,-21,-11
-6,-2,5,4,-4,1,-12,-41,-34,-25,-22,-12
-6,-2,5,4,-5,1,-12,-41,-34,-26,-22,-12
-6,-1,6,4,-5,2,-12,-41,-35,-26,-23,-13
-6,0,7,3,-6,3,-12,-41,-35,-27,-23,-13
-6,0,7,3,-6,4,-12,-41,-35,-27,-23,-13
-6,0,6,3,-5,3,-11,-41,-35,-27,-22,-13
-6,-2,5,4,-5,1,-11,-41,-35,-27,-22,-12
-6,-3,4,4,-5,0,-11,-41,-35,-27,-21,-11
-6,-4,3,5,-5,0,-11,-41,-34,-27,-21,-10
-7,-5,3,5,-4,-1,-10,-41,-34,-27,-21,-10
-7,-5,3,6,-4,-1,-10,-41,-33,-26,-21,-10
-7,-4,3,5,-4,-1,-10,-41,-33,-26,-20,-10
-6,-4,3,5,-4,0,-11,-41,-33,-26,-20,-10
-6,-4,3,4,-4,0,-11,-41,-34,-26,-21,-10
-6,-3,3,4,-4,0,-12,-41,-34,-26,-21,-11
-6,-3,4,4,-4,1,-12,-41,-34,-26,-21,-11
-6,-4,4,4,-4,0,-11,-41,-34,-26,-21,-11
-6,-4,3,5,-4,0,-11,-41,-34,-26,-21,-11
-6,-4,3,5,-4,0,-10,-41,-34,-26,-22,-11
-6,-4,4,5,-5,0,-10,-42,-34,-27,-22,-12
-7,-3,5,5,-5,1,-11,-42,-34,-27,-22,-12
-7,-2,6,4,-6,2,-11,-42,-34,-27,-22,-11
-7,-1,6,4,-6,3,-12,-42,-34,-27,-22,-11
-6,0,6,3,-6,3,-12,-42,-35,-28,-23,-12
-6,-1,5,3,-6,2,-11,-42,-35,-28,-23,-12
-7,-1,6,3,-6,2,-11,-42,-35,-28,-23,-12
-7,0,7,3,-7,3,-11,-43,-35,-28,-24,-12
-7,0,7,3,-7,3,-11,-43,-35,-28,-24,-13
-7,-1,7,3,-6,3,-11,-42,-35,-28,-24,-12
-7,-1,6,3,-6,2,-11,-42,-35,-28,-24,-12
-7,-2,5,4,-5,2,-11,-42,-35,-28,-24,-12
-7,-2,4,4,-5,1,-11,-42,-35,-28,-24,-12
-7,-2,4,4,-5,1,-11,-42,-35,-28,-23,-11
-7,-2,5,4,-5,1,-11,-42,-35,-27,-22,-11
-7,-2,5,5,-6,1,-11,-42,-35,-27,-22,-10
-7,-2,5,5,-6,1,-11,-42,-34,-27,-22,-10
-7,-2,5,4,-6,1,-12,-42,-34,-27,-22,-10
-7,-2,5,4,-6,1,-12,-42,-34,-27,-22,-10
-7,-2,5,4,-6,1,-12,-42,-34,-27,-22,-10
-7,-2,5,4,-6,1,-12,-42,-34,-27,-22,-10
-7,-2,5,4,-6,1,-12,-42,-34,-27,-23,-11
-7,-2,5,4,-5,1,-12,-42,-35,-28,-25,-13
-7,-2,5,4,-6,1,-12,-43,-35,-29,-26,-14
-7,-2,6,4,-6,2,-12,-43,-36,-29,-27,-14
-7,-2,6,4,-6,2,-12,-43,-36,-29,-27,-14
-8,-2,6,4,-6,2,-12,-43,-36,-30,-27,-14
-8,-2,6,4,-6,2,-12,-43,-36,-30,-27,-14
-7,-2,5,4,-6,2,-12,-43,-36,-29,-27,-13
-7,-2,5,4,-6,1,-12,-43,-35,-29,-25,-12
-7,-3,5,5,-6,1,-12,-43,-35,-28,-24,-10
-7,-3,5,5,-6,1,-12,-43,-34,-28,-23,-9
-7,-3,5,5,-6,1,-12,-42,-34,-27,-23,-8
-7,-2,5,4,-6,1,-12,-42,-34,-27,-23,-8
-7,-2,5,4,-6,2,-12,-43,-34,-27,-23,-9
-7,-2,5,4,-6,1,-12,-43,-34,-27,-23,-9
-7,-2,5,4,-6,1,-12,-43,-34,-27,-23,-9
-7,-2,5,4,-6,2,-12,-43,-34,-27,-24,-10
-8,-2,5,4,-6,2,-12,-43,-34,-28,-24,-10
-8,-2,5,5,-6,2,-12,-43,-35,-29,-25,-11
-8,-2,6,5,-6,2,-12,-43,-35,-29,-26,-12
-8,-1,6,4,-7,2,-12,-43,-35,-30,-27,-12
-8,-1,7,4,-7,3,-12,-43,-35,-30,-27,-13
-7,-1,6,4,-6,3,-12,-42,-35,-30,-28,-13
-7,-1,6,4,-6,2,-12,-42,-35,-29,-27,-13
-8,-1,7,4,-6,2,-13,-42,-35,-29,-27,-13
-8,-2,7,4,-7,2,-13,-42,-35,-28,-26,-12
-8,-2,6,4,-7,2,-13,-42,-35,-28,-25,-11
-7,-2,6,4,-7,1,-13,-42,-35,-27,-24,-10
-7,-2,6,4,-7,2,-13,-42,-35,-27,-23,-9
-7,-1,5,4,-6,2,-12,-42,-34,-27,-23,-8
-7,-2,4,5,-6,1,-12,-41,-34,-26,-22,-8
-7,-3,4,5,-6,1,-11,-41,-34,-26,-23,-9
-7,-2,4,5,-6,1,-11,-41,-34,-27,-23,-9
-7,-2,5,5,-6,1,-12,-41,-34,-27,-24,-10
-7,-2,5,5,-6,1,-12,-41,-34,-27,-24,-10
-8,-2,5,5,-6,2,-12,-41,-34,-28,-24,-10
-8,-2,6,5,-7,2,-12,-40,-34,-28,-24,-10
-7,-1,6,4,-6,2,-12,-40,-34,-28,-24,-10
-7,-1,6,4,-6,2,-11,-40,-33,-28,-24,-10
-8,-1,6,5,-6,2,-11,-40,-34,-28,-24,-10
-8,-1,6,4,-6,2,-11,-40,-34,-28,-24,-11
-7,0,7,3,-6,3,-12,-40,-34,-28,-24,-10
-7,0,7,3,-6,4,-13,-40,-34,-28,-24,-10
-7,0,8,3,-7,4,-13,-40,-35,-28,-24,-9
-7,-1,7,4,-7,3,-12,-40,-35,-28,-23,-8
-7,-1,6,5,-7,3,-12,-39,-34,-28,-22,-7
-7,-2,6,4,-6,2,-12,-39,-33,-27,-21,-7
-6,-2,5,4,-6,2,-12,-39,-33,-27,-20,-6
-6,-2,4,4,-5,1,-12,-39,-33,-27,-20,-6
-7,-1,5,4,-6,2,-12,-39,-33,-27,-20,-6
-7,0,5,3,-6,2,-12,-39,-33,-27,-20,-6
-7,-1,5,3,-6,2,-11,-39,-33,-27,-20,-7
-7,-2,5,4,-6,1,-11,-39,-33,-27,-20,-7
-8,-3,4,5,-5,0,-11,-39,-33,-28,-21,-8
-7,-3,4,4,-5,0,-12,-39,-34,-28,-22,-9
-7,-2,5,4,-6,1,-12,-40,-34,-29,-23,-10
-7,0,6,3,-6,3,-12,-40,-34,-29,-23,-10
-7,0,7,3,-7,4,-12,-40,-34,-29,-23,-10
-7,0,7,3,-7,3,-12,-40,-34,-28,-21,-9
-7,0,6,3,-6,3,-12,-40,-34,-27,-20,-7
-7,-1,5,3,-6,2,-12,-39,-33,-27,-19,-6
-7,-1,5,3,-6,2,-12,-39,-33,-27,-19,-6
-7,-1,5,3,-7,2,-12,-39,-34,-27,-19,-7
-7,-2,5,4,-7,2,-12,-39,-34,-27,-20,-7
-7,-3,4,5,-6,1,-11,-38,-33,-27,-20,-8
-7,-2,4,4,-5,1,-11,-38,-33,-27,-20,-8
-7,-1,5,4,-5,2,-11,-39,-33,-27,-20,-8
-7,-1,5,4,-6,2,-11,-39,-33,-27,-20,-8
-8,-1,5,4,-6,2,-12,-39,-33,-27,-20,-9
-8,-1,6,4,-6,2,-12,-39,-34,-28,-21,-9
-8,-1,6,4,-7,2,-12,-39,-34,-28,-22,-10
-8,-1,6,4,-7,2,-12,-39,-34,-28,-21,-9
-8,-1,6,4,-7,2,-12,-39,-34,-28,-21,-9
-8,-1,6,3,-7,2,-12,-39,-34,-27,-21,-9
-7,-1,6,3,-7,2,-12,-38,-34,-27,-21,-9
-7,-1,6,3,-7,2,-12,-38,-33,-26,-21,-8
-7,-1,6,3,-7,2,-12,-38,-33,-26,-20,-8
-7,-2,6,4,-7,2,-12,-38,-33,-25,-20,-7
-7,-2,6,4,-7,2,-12,-37,-33,-25,-19,-7
-7,-2,5,4,-7,1,-12,-37,-33,-25,-19,-6
-7,-2,5,4,-6,1,-12,-37,-32,-24,-18,-6
-7,-2,4,4,-6,0,-12,-37,-32,-24,-18,-6
-7,-2,4,4,-6,1,-12,-37,-33,-24,-18,-6
-8,-2,5,4,-6,1,-12,-37,-33,-25,-18,-6
-8,-2,5,4,-6,1,-12,-37,-33,-25,-18,-6
-8,-3,5,4,-5,1,-12,-37,-33,-25,-18,-7
-8,-3,5,4,-5,1,-12,-37,-33,-25,-18,-7
-8,-2,5,4,-6,1,-13,-37,-33,-26,-19,-8
-8,-2,6,4,-6,2,-13,-38,-33,-26,-19,-8
-8,-1,6,4,-7,2,-13,-38,-33,-26,-19,-8
-8,-1,6,4,-7,2,-13,-38,-34,-26,-20,-8
-8,-1,6,4,-7,2,-13,-38,-34,-27,-21,-9
-8,-1,7,4,-7,3,-13,-39,-34,-27,-21,-10
-7,-1,7,3,-7,3,-13,-39,-34,-27,-22,-10
-7,0,8,3,-7,4,-14,-39,-34,-27,-21,-10
-7,0,8,3,-7,4,-14,-39,-33,-27,-21,-9
-8,-1,7,3,-7,3,-14,-38,-33,-27,-20,-9
-8,-2,5,4,-6,1,-13,-38,-33,-26,-20,-8
-8,-3,4,5,-6,0,-13,-38,-32,-25,-19,-7
-8,-2,4,4,-6,1,-12,-38,-32,-25,-18,-6
-8,-2,5,4,-6,2,-12,-38,-31,-25,-18,-6
-8,-1,5,4,-6,2,-12,-37,-31,-25,-18,-6
-8,-2,5,4,-6,2,-12,-37,-31,-25,-18,-6
-8,-2,5,4,-6,1,-12,-37,-31,-25,-18,-6
-8,-1,5,4,-6,1,-12,-37,-31,-25,-18,-6
-8,-1,6,3,-6,2,-12,-37,-31,-25,-18,-6
-8,0,7,3,-7,3,-12,-37,-31,-25,-17,-6
-7,0,7,2,-7,4,-12,-37,-30,-24,-16,-5
-7,1,8,1,-8,5,-12,-36,-30,-23,-16,-4
-7,2,9,1,-8,6,-11,-36,-30,-24,-16,-4
-7,3,10,0,-8,6,-11,-36,-30,-24,-17,-5
-7,3,10,0,-8,7,-11,-36,-30,-25,-17,-5
-7,4,12,0,-9,8,-11,-36,-31,-25,-18,-6
-7,5,13,0,-9,9,-11,-36,-31,-25,-18,-6
-7,5,12,0,-9,9,-11,-35,-30,-25,-18,-6
-7,5,12,0,-9,8,-10,-35,-30,-25,-18,-6
-8,4,11,1,-9,8,-10,-35,-30,-24,-18,-6
-8,3,11,1,-9,7,-9,-35,-30,-24,-18,-5
-8,3,11,1,-9,7,-9,-35,-30,-24,-17,-4
-8,4,11,0,-9,7,-9,-35,-30,-24,-16,-4
-7,5,12,0,-9,8,-9,-35,-30,-24,-17,-4
-7,5,13,0,-9,9,-9,-35,-30,-24,-17,-5
-7,5,12,0,-9,8,-8,-34,-29,-24,-17,-5
-7,4,11,0,-9,8,-7,-33,-28,-23,-16,-4
-7,4,11,0,-9,8,-7,-33,-27,-23,-15,-3
-6,5,11,-1,-9,8,-7,-32,-27,-22,-14,-3
-5,6,11,-1,-8,9,-7,-32,-26,-21,-14,-2
-5,6,11,-2,-8,9,-8,-32,-26,-20,-13,-1
-5,7,12,-2,-8,10,-9,-32,-26,-20,-13,0
-5,8,13,-2,-9,10,-10,-33,-26,-21,-13,0
-5,9,14,-3,-9,11,-11,-34,-27,-22,-14,-1
-5,9,14,-3,-9,11,-13,-35,-28,-23,-15,-3
-5,10,15,-3,-9,12,-13,-36,-29,-24,-16,-3
-5,10,15,-3,-10,12,-13,-36,-29,-24,-16,-4
-6,10,15,-3,-10,12,-13,-36,-29,-24,-16,-4
-7,10,16,-3,-11,13,-13,-37,-29,-24,-17,-4
-7,10,16,-3,-11,13,-13,-37,-29,-23,-17,-4
-6,11,16,-3,-11,14,-13,-36,-29,-23,-15,-2
-6,11,17,-3,-11,14,-13,-36,-28,-22,-13,-1
-5,11,17,-4,-11,14,-13,-35,-28,-21,-12,0
-5,11,17,-4,-11,14,-13,-35,-27,-20,-12,0
-5,11,17,-4,-11,14,-13,-34,-27,-20,-12,0
-4,12,17,-5,-11,14,-13,-34,-27,-20,-12,0
-4,12,16,-5,-10,14,-13,-34,-27,-20,-12,0
-5,10,15,-3,-10,12,-12,-33,-27,-20,-12,0
-6,7,13,-1,-9,10,-11,-32,-27,-20,-13,0
-6,6,12,0,-9,9,-11,-32,-27,-20,-13,-1
-6,5,11,0,-8,8,-11,-32,-27,-20,-13,-1
-7,4,10,1,-8,7,-12,-33,-28,-21,-14,-2
-7,3,10,1,-8,7,-12,-35,-30,-23,-16,-4
-8,3,10,2,-8,7,-13,-36,-31,-24,-17,-5
-8,2,10,2,-9,6,-13,-37,-32,-26,-19,-7
-9,1,9,3,-9,5,-12,-37,-33,-27,-20,-8
-9,0,8,4,-9,4,-12,-37,-33,-27,-21,-8
-9,0,8,4,-9,4,-13,-38,-33,-28,-21,-8
-9,-1,7,4,-9,3,-13,-38,-33,-28,-22,-8
-9,-1,7,5,-8,3,-13,-38,-33,-28,-22,-8
-9,-2,6,5,-8,2,-13,-38,-33,-28,-21,-7
-8,-2,6,4,-7,2,-13,-38,-33,-27,-20,-7
-8,-2,6,4,-7,2,-13,-38,-33,-27,-19,-6
-8,-2,6,4,-7,2,-13,-38,-33,-27,-19,-6
-8,-3,5,4,-7,1,-13,-37,-33,-26,-19,-5
-8,-3,4,4,-6,0,-13,-37,-33,-26,-19,-5
-8,-3,5,5,-6,0,-13,-37,-34,-27,-20,-6
-9,-3,5,5,-6,1,-13,-38,-34,-27,-20,-6
-9,-3,5,5,-6,1,-12,-38,-34,-28,-21,-7
-9,-4,5,6,-6,0,-12,-38,-34,-29,-22,-8
-9,-4,4,6,-6,0,-12,-38,-34,-29,-23,-9
-9,-4,4,5,-6,0,-12,-38,-34,-29,-22,-8
-9,-3,4,5,-6,0,-12,-37,-34,-28,-21,-7
-9,-3,4,5,-6,0,-13,-37,-34,-28,-20,-7
-9,-2,5,5,-6,1,-13,-38,-34,-28,-20,-7
-9,-2,5,4,-6,1,-13,-38,-34,-28,-21,-7
-9,-2,5,5,-6,1,-13,-38,-34,-28,-21,-7
-9,-4,4,5,-6,0,-12,-37,-34,-28,-22,-7
-8,-5,3,6,-6,-1,-12,-36,-34,-28,-22,-7
-8,-5,3,6,-6,-1,-13,-37,-34,-28,-21,-7
-8,-5,3,6,-6,-1,-13,-37,-34,-28,-21,-7
-9,-5,3,6,-6,-1,-13,-37,-34,-28,-21,-7
-9,-5,3,6,-6,-1,-13,-37,-34,-28,-21,-7
-9,-4,3,6,-5,0,-13,-37,-34,-28,-21,-7
-9,-4,3,6,-5,0,-13,-37,-35,-28,-21,-8
-9,-4,4,6,-6,0,-13,-38,-35,-29,-22,-9
-8,-3,5,5,-6,0,-14,-38,-35,-28,-22,-9
-8,-3,4,5,-6,0,-13,-38,-35,-28,-22,-8
-8,-4,4,5,-6,0,-13,-38,-35,-28,-22,-8
-8,-4,3,5,-6,0,-13,-38,-35,-28,-22,-8
-8,-3,3,5,-6,0,-13,-38,-35,-28,-22,-8
-8,-3,4,5,-6,0,-14,-38,-35,-28,-22,-8
-8,-3,4,5,-6,0,-13,-38,-35,-27,-22,-7
-8,-4,4,5,-6,0,-13,-37,-34,-27,-21,-6
-8,-4,3,5,-6,-1,-12,-37,-34,-27,-20,-5
-8,-4,4,6,-6,-1,-12,-38,-35,-28,-21,-6
-9,-4,5,6,-7,0,-12,-38,-35,-29,-23,-9
-9,-3,7,5,-8,1,-13,-39,-36,-31,-25,-10
-10,-2,7,5,-8,2,-13,-40,-37,-31,-25,-11
-10,-2,7,5,-8,2,-13,-40,-37,-31,-25,-10
-10,-2,7,5,-8,2,-13,-41,-37,-30,-24,-9
-10,-2,7,5,-8,2,-13,-43,-38,-30,-22,-7
-10,-1,8,5,-8,2,-13,-47,-40,-31,-21,-6
-10,0,9,5,-9,3,-14,-52,-43,-32,-21,-5
-10,0,10,4,-10,4,-15,-57,-46,-33,-20,-4
-10,1,11,4,-10,5,-15,-61,-49,-34,-20,-3
-11,0,11,4,-11,5,-13,-64,-51,-34,-19,-3
-11,0,11,5,-11,4,-10,-65,-53,-35,-19,-3
-11,-1,10,5,-10,4,-9,-66,-53,-34,-18,-1
-9,0,10,4,-9,4,-10,-66,-52,-31,-16,1
-7,0,9,3,-8,4,-12,-67,-50,-28,-13,3
-5,2,8,1,-6,4,-17,-68,-49,-26,-11,6
-3,4,8,0,-5,5,-23,-71,-50,-24,-8,8
-1,5,7,-2,-4,5,-28,-74,-51,-22,-6,11
1,8,6,-5,-2,6,-34,-77,-51,-20,-2,16
4,11,7,-8,-1,8,-41,-79,-51,-18,2,21
6,12,6,-10,0,9,-47,-81,-51,-17,4,24
9,11,2,-11,3,6,-51,-80,-52,-18,3,23
12,9,-3,-11,7,2,-54,-79,-53,-20,0,21
14,5,-9,-10,11,-2,-56,-78,-55,-23,-5,17
14,0,-14,-8,14,-8,-57,-77,-60,-30,-12,10
13,-6,-19,-4,16,-13,-57,-77,-65,-40,-22,1
10,-12,-21,0,16,-17,-58,-77,-70,-48,-31,-8
6,-17,-23,4,14,-20,-58,-76,-72,-55,-39,-16
2,-21,-22,8,12,-22,-59,-74,-72,-59,-45,-23
-2,-21,-18,11,8,-20,-58,-71,-69,-60,-51,-29
-7,-20,-12,13,2,-17,-57,-65,-64,-60,-55,-34
-11,-17,-6,13,-2,-12,-53,-57,-57,-57,-56,-37
-13,-15,-2,13,-5,-9,-49,-48,-48,-52,-55,-38
-14,-13,0,13,-7,-7,-44,-39,-39,-46,-52,-37
-14,-11,3,12,-8,-4,-40,-31,-32,-41,-49,-34
-14,-9,6,11,-10,-2,-37,-25,-26,-36,-45,-32
-14,-7,7,10,-11,0,-33,-19,-20,-31,-42,-29
-13,-5,8,9,-10,1,-28,-13,-14,-26,-39,-26
-12,-3,8,7,-10,1,-23,-6,-8,-21,-35,-23
-11,-2,8,6,-10,2,-19,1,-3,-17,-32,-21
-10,0,9,4,-10,3,-15,7,3,-12,-29,-18
-9,0,9,3,-9,4,-11,14,8,-8,-25,-15
-8,1,9,3,-8,4,-7,20,14,-3,-21,-12
-7,1,9,2,-7,5,-3,25,19,1,-17,-9
-6,2,8,2,-7,5,0,30,23,4,-14,-6
-5,2,8,1,-6,5,2,32,25,6,-12,-4
-4,2,7,1,-5,4,4,34,27,8,-11,-2
-4,1,6,1,-5,3,5,36,28,9,-10,-1
-4,0,5,1,-4,2,7,38,30,10,-9,-1
-4,-1,3,2,-3,0,8,41,31,11,-9,-1
-3,-2,1,2,-2,-1,10,43,33,12,-8,0
-3,-4,-1,3,0,-3,11,46,34,13,-7,0
-2,-5,-3,3,1,-4,12,47,35,14,-7,0
-2,-7,-4,4,2,-6,13,48,35,14,-7,0
-2,-7,-5,4,2,-7,13,49,35,14,-7,0
-2,-7,-5,4,2,-7,14,49,36,15,-7,0
-1,-7,-6,4,2,-7,15,50,38,16,-5,1
-1,-8,-7,4,3,-8,16,52,40,18,-3,2
-1,-10,-9,5,4,-10,18,54,42,20,-2,3
0,-11,-10,5,5,-11,19,56,43,22,-1,4
0,-12,-11,5,6,-12,20,57,44,22,0,5
0,-12,-11,5,6,-12,20,58,45,23,0,5
0,-11,-11,5,6,-11,19,58,45,23,0,5
1,-10,-10,4,6,-10,19,58,46,24,0,5
1,-8,-9,3,5,-9,19,58,46,24,0,5
1,-8,-9,3,5,-9,20,59,46,23,-1,4
0,-8,-9,3,4,-9,21,60,46,23,-1,4
0,-9,-9,4,5,-10,21,61,47,24,-1,4
0,-9,-9,4,5,-10,21,61,48,25,-1,5
1,-9,-9,4,5,-10,21,62,49,26,0,6
1,-9,-10,4,6,-10,22,62,50,26,0,8
2,-10,-12,4,7,-11,23,63,50,27,1,8
2,-11,-12,4,7,-12,23,63,51,27,1,8
2,-10,-12,3,7,-12,24,64,51,27,1,8
2,-10,-12,3,8,-12,24,66,52,28,1,8
2,-11,-12,4,8,-12,25,67,53,29,2,9
2,-11,-13,4,8,-12,25,69,54,31,2,9
2,-11,-13,4,8,-12,25,70,56,32,3,9
3,-11,-13,4,8,-12,26,71,57,33,3,10
3,-11,-13,4,8,-12,26,72,57,33,4,10
3,-10,-13,3,8,-12,27,72,58,34,5,11
4,-9,-13,3,8,-11,27,73,59,35,6,12
4,-10,-13,3,9,-12,28,75,60,35,6,12
4,-10,-14,3,9,-12,28,76,61,36,6,12
5,-10,-14,2,9,-12,28,77,62,37,7,12
5,-9,-14,2,9,-12,29,78,63,39,7,12
5,-9,-13,2,9,-12,29,79,65,40,8,12
5,-9,-13,2,9,-12,30,80,66,40,8,13
5,-9,-14,2,9,-12,30,81,66,41,9,13
5,-9,-14,2,10,-12,30,82,67,42,10,14
6,-8,-14,1,10,-12,30,84,69,43,12,15
7,-8,-14,0,11,-11,30,86,70,45,13,16
7,-7,-14,0,11,-11,31,88,72,46,14,17
7,-7,-14,0,11,-11,31,89,73,47,15,17
7,-7,-14,0,11,-11,32,90,74,48,15,17
8,-7,-15,0,11,-11,32,91,75,49,15,17
8,-7,-15,0,11,-12,33,92,77,50,16,18
9,-7,-16,0,12,-12,33,94,78,51,17,19
9,-7,-16,-1,12,-12,33,95,79,53,18,20
10,-7,-16,-1,13,-12,33,97,81,54,19,20
10,-6,-16,-2,13,-11,33,98,82,55,20,21
10,-6,-15,-2,13,-11,33,99,83,56,21,21
10,-5,-15,-2,13,-11,34,100,85,57,23,22
11,-5,-15,-3,13,-10,34,101,86,58,24,23
11,-4,-15,-3,13,-10,34,101,86,58,24,23
11,-3,-14,-4,13,-9,34,102,87,59,24,24
11,-3,-14,-4,13,-9,34,102,87,59,24,24
12,-3,-14,-5,13,-9,35,103,88,60,25,24
12,-3,-15,-5,13,-9,36,104,89,62,26,24
12,-3,-15,-5,13,-9,37,105,90,63,26,25
12,-3,-15,-5,13,-9,37,106,91,63,27,25
12,-2,-15,-5,13,-8,37,107,91,64,27,26
12,-1,-14,-5,13,-8,37,107,91,64,28,26
12,0,-13,-6,12,-7,37,107,92,65,29,27
13,0,-12,-6,12,-6,37,107,92,66,30,28
13,1,-12,-7,12,-6,37,108,93,67,31,29
13,0,-12,-7,13,-7,37,109,94,68,32,30
13,0,-13,-7,13,-7,38,110,95,69,33,30
14,0,-14,-7,14,-7,38,110,95,70,34,31
14,0,-14,-8,14,-6,38,110,96,71,35,31
14,1,-13,-8,14,-6,38,110,96,71,36,31
14,2,-13,-9,13,-5,39,110,96,71,36,32
14,3,-12,-9,13,-4,39,110,96,72,37,33
15,3,-11,-9,13,-4,38,110,96,72,39,34
15,4,-10,-10,13,-3,38,110,96,73,40,35
15,4,-10,-10,12,-3,38,110,96,73,41,36
15,5,-9,-10,12,-2,38,109,96,73,42,36
15,6,-8,-11,12,-1,38,109,95,73,42,37
16,8,-8,-12,12,0,37,108,95,73,43,37
16,8,-8,-12,12,0,37,107,94,73,43,38
16,9,-7,-12,12,0,37,106,94,73,44,38
16,9,-7,-13,11,0,37,105,93,73,44,39
16,10,-6,-13,11,1,36,103,92,73,45,40
16,11,-5,-14,10,2,35,102,92,72,45,40
16,11,-5,-14,10,3,35,101,90,71,45,39
16,12,-4,-14,10,4,35,99,89,70,44,39
15,12,-3,-14,10,4,34,98,87,69,44,39
15,13,-3,-15,9,5,33,96,86,68,45,40
15,14,-2,-15,9,6,33,94,85,68,45,40
15,15,-1,-16,9,7,32,92,83,67,45,41
15,15,0,-16,8,7,32,91,82,66,45,40
15,15,0,-16,7,7,31,89,80,66,45,40
15,15,0,-16,7,8,30,87,79,65,45,40
15,16,1,-16,6,9,29,85,77,65,46,40
15,17,2,-16,6,10,29,82,76,64,46,40
15,18,3,-16,5,11,27,80,73,63,45,40
15,19,4,-16,5,11,26,77,71,61,45,39
15,19,5,-17,5,12,25,74,69,60,44,39
15,20,5,-17,5,12,25,72,67,58,44,39
14,20,6,-17,4,13,24,70,65,57,44,39
14,20,6,-17,3,13,23,67,62,56,44,39
14,21,7,-17,3,13,21,64,60,55,44,39
14,21,7,-17,3,14,20,61,58,54,44,39
13,21,7,-17,2,14,19,58,55,52,43,39
13,21,8,-16,2,14,18,55,52,50,42,38
13,21,8,-16,2,14,17,52,49,47,40,36
12,21,9,-16,2,14,17,48,45,44,37,34
12,21,10,-16,1,15,16,45,42,41,35,32
11,21,10,-16,0,15,16,42,39,39,34,31
10,20,10,-15,0,15,15,39,37,37,33,30
9,20,11,-15,-1,15,14,36,34,35,32,29
8,20,11,-15,-1,15,12,33,32,33,31,29
8,20,11,-15,-1,15,11,30,29,31,30,28
8,20,11,-15,-1,15,10,27,26,29,29,28
7,19,11,-14,-2,15,9,23,23,26,28,28
7,19,12,-14,-2,15,9,20,19,23,26,26
6,18,12,-13,-3,15,8,17,16,20,23,23
6,17,12,-12,-3,14,8,14,13,18,21,20
5,17,12,-11,-3,14,7,12,10,16,18,18
4,16,12,-11,-4,14,7,9,7,13,16,16
3,16,13,-10,-4,13,6,6,5,11,14,14
2,15,13,-9,-5,13,5,3,2,9,13,13
2,14,12,-8,-5,12,5,1,0,7,11,12
2,13,12,-7,-5,12,4,-1,-2,5,10,12
1,12,11,-7,-5,11,4,-3,-5,3,9,11
0,11,11,-6,-5,11,3,-5,-7,1,7,10
0,11,11,-6,-5,10,2,-7,-9,0,6,8
-1,10,11,-5,-5,10,1,-10,-11,-2,5,7
-1,10,11,-5,-5,9,1,-12,-13,-4,3,5
-1,9,10,-4,-5,9,0,-14,-15,-6,2,4
-1,8,10,-4,-5,9,0,-16,-17,-8,0,2
-2,8,10,-3,-6,9,-1,-18,-19,-10,-1,1
-3,7,10,-2,-6,8,-1,-19,-21,-11,-3,0
-3,6,9,-2,-6,7,-2,-21,-22,-13,-4,0
-4,5,9,-1,-6,7,-2,-22,-23,-13,-4,-1
-4,5,9,0,-6,6,-2,-23,-24,-14,-4,-1
-4,4,9,0,-6,6,-2,-24,-25,-15,-5,-2
-4,4,9,0,-6,5,-3,-25,-26,-16,-5,-2
-4,3,8,0,-6,4,-3,-26,-27,-17,-6,-3
-5,3,7,0,-6,4,-4,-27,-28,-18,-6,-3
-5,3,7,0,-6,4,-4,-28,-29,-19,-7,-4
-6,3,7,0,-6,4,-5,-29,-31,-20,-8,-5
-6,3,7,1,-6,4,-5,-30,-32,-21,-9,-6
-6,3,7,1,-6,4,-6,-30,-32,-21,-10,-7
-6,3,7,1,-6,4,-6,-31,-33,-22,-11,-7
-6,2,7,1,-6,4,-6,-31,-33,-22,-11,-8
-6,2,7,1,-6,3,-6,-32,-33,-23,-11,-8
-6,1,7,2,-6,3,-6,-32,-33,-23,-11,-7
-7,0,7,2,-7,2,-6,-33,-34,-23,-11,-7
-7,0,7,2,-7,2,-6,-33,-34,-23,-11,-7
-7,0,7,2,-7,2,-6,-34,-35,-23,-11,-7
-7,0,7,3,-7,2,-6,-35,-35,-24,-11,-8
-7,0,7,3,-7,2,-6,-36,-36,-24,-11,-8
-8,0,7,3,-7,2,-6,-36,-36,-25,-12,-9
-8,0,7,3,-7,2,-6,-37,-37,-26,-13,-10
-8,0,7,3,-7,2,-6,-39,-39,-27,-14,-10
-8,0,8,4,-8,2,-6,-40,-40,-28,-15,-11
-8,0,8,4,-8,2,-6,-43,-42,-29,-15,-11
-8,0,8,5,-8,2,-6,-46,-43,-30,-15,-11
-9,0,8,5,-8,2,-6,-50,-45,-31,-16,-11
-10,0,9,6,-9,3,-6,-54,-46,-32,-16,-11
-11,0,10,6,-10,3,-7,-58,-48,-33,-16,-12
-11,0,10,5,-11,4,-8,-61,-49,-34,-17,-13
-12,0,11,5,-11,5,-9,-65,-51,-35,-18,-14
-12,0,12,5,-12,6,-11,-68,-52,-36,-19,-14
-12,0,13,5,-12,6,-13,-72,-54,-36,-19,-15
-13,1,14,5,-13,7,-15,-75,-55,-37,-20,-15
-13,1,14,5,-13,7,-17,-77,-56,-37,-20,-15
-13,1,14,5,-13,7,-18,-78,-57,-38,-20,-15
-13,2,14,5,-13,7,-19,-79,-57,-38,-20,-15
-12,2,14,4,-13,7,-22,-80,-57,-38,-20,-15
-12,2,14,4,-13,7,-24,-82,-57,-39,-20,-15
-12,2,14,4,-13,7,-27,-84,-59,-39,-20,-15
-12,1,14,5,-13,7,-29,-86,-60,-40,-20,-15
-12,1,14,5,-13,7,-33,-90,-62,-42,-21,-16
-13,1,15,5,-14,7,-38,-96,-66,-44,-22,-17
-13,2,15,5,-14,7,-43,-102,-70,-46,-24,-18
-13,2,16,5,-14,8,-48,-109,-74,-49,-25,-19
-14,2,17,5,-15,9,-52,-117,-79,-53,-27,-21
-15,4,20,4,-17,11,-57,-124,-83,-55,-28,-21
-15,8,24,3,-19,15,-62,-130,-87,-57,-29,-21
-14,13,28,0,-21,20,-67,-135,-88,-56,-27,-20
-13,19,33,-3,-23,25,-72,-138,-88,-54,-24,-17
-12,25,37,-7,-24,31,-78,-139,-86,-50,-20,-12
-11,31,41,-10,-25,35,-82,-139,-82,-46,-15,-7
-8,36,43,-14,-25,39,-86,-136,-77,-40,-9,-1
-6,41,47,-18,-26,43,-90,-132,-72,-34,-2,5
-3,47,50,-22,-26,48,-93,-127,-65,-27,4,11
0,52,53,-26,-26,52,-96,-121,-58,-19,11,18
4,57,54,-31,-24,55,-99,-113,-49,-11,19,24
8,61,54,-34,-22,57,-103,-105,-40,-2,26,31
11,64,54,-37,-20,58,-105,-96,-31,6,34,39
14,66,53,-40,-18,59,-107,-87,-21,15,42,46
17,67,51,-42,-16,58,-107,-78,-12,23,50,53
20,68,48,-44,-13,57,-106,-70,-5,30,56,59
23,69,45,-46,-11,56,-105,-63,1,36,61,64
25,69,43,-47,-8,56,-102,-56,6,41,66,68
27,69,41,-48,-6,54,-98,-49,12,47,71,72
30,67,37,-48,-3,52,-94,-40,18,52,75,76
32,64,31,-48,1,47,-90,-31,25,58,79,80
34,59,24,-47,5,41,-85,-21,32,63,83,83
36,53,17,-46,10,35,-80,-11,38,68,87,87
38,48,10,-44,14,28,-75,-3,44,72,89,89
39,43,3,-42,18,22,-70,3,48,75,91,90
40,38,-2,-39,21,17,-65,10,51,77,91,90
41,33,-8,-37,24,12,-60,16,54,79,91,89
41,28,-12,-34,26,7,-56,21,56,80,91,88
40,23,-17,-32,28,2,-52,24,57,80,89,86
39,18,-21,-29,30,-3,-50,25,57,79,87,84
38,13,-25,-26,32,-7,-48,26,57,78,86,82
37,9,-29,-23,33,-11,-45,27,58,78,85,81
37,6,-31,-21,33,-13,-43,28,59,78,84,80
36,5,-32,-20,34,-14,-41,29,59,78,83,79
36,4,-32,-20,34,-14,-40,29,59,78,83,79
36,3,-32,-19,34,-15,-38,30,59,78,83,78
36,3,-32,-19,34,-15,-36,31,59,78,81,76
35,3,-31,-19,33,-15,-34,33,60,78,79,74
33,2,-30,-18,32,-15,-31,35,60,76,76,71
31,2,-29,-17,30,-14,-28,37,60,75,73,67
30,2,-28,-16,29,-14,-24,42,62,74,71,64
30,2,-28,-16,29,-13,-19,49,66,74,69,61
29,1,-27,-15,28,-13,-13,57,71,76,69,59
27,1,-26,-14,27,-13,-7,66,76,77,67,57
25,0,-25,-12,25,-13,-1,74,79,77,64,53
22,-1,-24,-10,23,-13,4,81,81,75,60,48
19,-3,-22,-8,21,-14,9,85,81,71,53,41
16,-5,-21,-5,18,-14,13,88,79,64,44,32
12,-7,-20,-3,16,-14,17,89,75,56,35,24
9,-9,-19,0,15,-14,20,89,71,49,28,17
7,-11,-19,1,14,-15,23,89,67,43,23,12
6,-13,-19,3,13,-16,25,89,65,39,20,8
5,-14,-19,4,12,-17,27,90,63,37,17,6
4,-15,-19,5,12,-17,29,91,62,35,15,3
3,-16,-19,5,12,-18,30,92,62,34,13,2
3,-17,-19,6,12,-18,32,92,62,34,12,1
2,-17,-20,6,11,-19,33,92,61,33,11,0
2,-17,-19,7,11,-19,34,91,60,31,10,-1
1,-17,-19,8,10,-19,34,89,57,29,9,-2
1,-17,-18,8,10,-19,35,87,55,26,7,-3
0,-18,-18,9,9,-19,36,85,52,24,6,-4
0,-18,-17,9,9,-19,37,83,50,22,5,-5
0,-18,-17,9,8,-19,38,81,48,21,4,-6
-1,-18,-17,10,8,-19,39,79,46,19,2,-7
-2,-18,-16,10,7,-19,39,77,44,18,1,-8
-2,-18,-16,10,7,-18,40,76,43,17,1,-9
-3,-18,-16,10,6,-18,40,76,42,16,0,-9
-3,-19,-15,11,6,-18,41,75,41,15,-1,-10
-4,-19,-15,11,5,-18,42,75,39,14,-2,-11
-4,-19,-15,11,5,-18,43,74,38,13,-3,-12
-4,-19,-15,11,6,-18,44,74,37,12,-3,-13
-4,-19,-15,11,6,-18,45,73,37,12,-3,-14
-4,-19,-15,11,6,-18,45,73,36,12,-3,-14
-4,-19,-15,11,6,-18,46,73,36,12,-3,-14
-4,-19,-15,11,6,-18,46,73,36,12,-3,-14
-4,-19,-15,11,5,-18,47,73,35,12,-4,-14
-4,-19,-15,11,5,-18,48,73,35,12,-4,-14
-4,-19,-15,11,6,-18,49,74,35,12,-4,-14
-4,-19,-15,11,6,-18,50,75,35,12,-4,-14
-3,-19,-15,11,6,-18,50,76,35,12,-4,-14
-3,-19,-16,11,6,-18,51,76,36,13,-4,-14
-3,-19,-16,11,6,-18,52,77,36,13,-4,-14
-3,-19,-16,11,6,-18,52,77,37,13,-4,-14
-3,-20,-16,11,6,-19,53,78,37,13,-3,-14
-3,-20,-17,11,7,-19,54,79,37,14,-3,-14
-2,-20,-17,11,7,-19,55,80,37,14,-2,-14
-3,-20,-17,11,7,-19,56,81,37,14,-2,-14
-3,-20,-17,11,7,-19,57,82,37,14,-2,-14
-3,-21,-17,11,7,-20,57,82,37,14,-2,-14
-3,-21,-17,11,7,-20,58,83,37,14,-2,-14
-3,-20,-17,11,7,-19,58,83,37,13,-2,-14
-3,-20,-17,11,7,-19,59,83,37,13,-2,-14
-3,-20,-17,12,7,-19,60,84,37,13,-2,-14
-3,-20,-17,12,7,-19,61,84,37,13,-2,-14
-3,-20,-16,12,7,-19,62,85,37,13,-3,-14
-3,-20,-16,12,7,-19,62,85,37,13,-3,-15
-3,-20,-16,12,7,-19,63,85,37,13,-3,-15
-3,-20,-16,12,7,-19,63,85,37,13,-3,-15
-3,-21,-16,12,6,-19,64,86,37,13,-3,-15
-3,-21,-16,12,6,-19,64,86,36,13,-3,-15
-3,-21,-16,12,6,-19,64,85,36,13,-4,-15
-3,-21,-16,12,6,-18,65,85,36,13,-4,-15
-4,-21,-16,12,6,-18,66,85,36,13,-4,-15
-4,-21,-15,12,6,-18,66,85,36,13,-3,-15
-4,-21,-14,12,5,-18,66,85,36,13,-3,-15
-5,-21,-14,12,5,-18,67,85,36,13,-3,-15
-5,-21,-14,13,4,-18,67,84,36,13,-3,-15
-5,-20,-14,13,4,-17,67,84,35,12,-3,-15
-5,-20,-13,12,4,-17,67,83,35,12,-3,-15
-5,-19,-13,12,4,-16,67,82,34,12,-3,-15
-5,-19,-12,12,4,-16,67,81,34,12,-3,-16
-5,-18,-12,12,4,-15,67,81,34,11,-3,-16
-6,-18,-11,12,3,-15,67,80,33,11,-4,-17
-6,-18,-10,12,2,-15,67,79,33,10,-4,-17
-6,-18,-10,12,2,-14,66,77,32,10,-4,-17
-7,-17,-9,12,1,-13,66,76,32,10,-5,-17
-7,-16,-8,12,1,-12,65,74,31,10,-5,-17
-7,-15,-7,11,0,-11,65,72,30,9,-5,-17
-8,-15,-6,11,0,-10,64,70,29,9,-5,-17
-8,-14,-5,11,-1,-10,63,68,28,8,-5,-17
-8,-14,-4,10,-1,-9,62,66,27,8,-5,-17
-8,-12,-3,10,-2,-8,61,64,26,7,-5,-17
-8,-11,-2,9,-3,-7,59,62,25,6,-5,-17
-9,-10,0,9,-4,-5,58,60,24,6,-6,-17
-9,-9,1,9,-5,-4,56,57,23,5,-6,-17
-9,-8,2,9,-5,-3,55,55,22,5,-6,-17
-9,-7,3,8,-6,-2,53,52,20,4,-6,-17
-9,-6,4,8,-7,-1,52,49,19,3,-6,-17
-9,-6,5,7,-7,-1,50,46,17,3,-6,-17
-9,-5,6,7,-8,0,49,43,16,2,-5,-16
-9,-4,7,7,-8,0,47,40,14,1,-5,-16
-10,-3,8,6,-9,2,45,37,13,0,-5,-16
-10,-1,10,6,-10,4,42,34,11,0,-6,-16
-10,0,11,5,-10,5,40,30,9,-1,-6,-16
-10,1,12,4,-10,6,37,27,8,-2,-6,-15
-10,2,13,3,-11,7,35,24,6,-3,-6,-15
-10,2,14,3,-11,8,34,21,4,-3,-6,-15
-10,3,14,3,-12,8,32,18,3,-4,-5,-14
-10,3,15,3,-12,9,30,16,1,-4,-4,-13
-9,4,15,2,-12,9,28,13,0,-4,-4,-12
-9,5,16,2,-12,10,25,10,-1,-4,-3,-11
-9,6,16,1,-12,11,23,7,-3,-5,-3,-10
-8,7,16,1,-12,11,20,4,-4,-5,-3,-10
-8,7,17,0,-12,11,18,2,-6,-6,-2,-10
-7,8,17,0,-12,12,16,0,-8,-7,-2,-9
-7,9,17,0,-12,12,14,-3,-9,-7,-1,-9
-7,9,17,-1,-12,12,12,-5,-10,-8,-1,-8
-7,9,17,-1,-12,13,10,-6,-11,-8,-1,-8
-7,9,17,-1,-12,13,8,-8,-12,-8,0,-7
-6,9,17,-1,-11,12,6,-10,-13,-8,0,-6
-6,9,16,-1,-11,12,4,-13,-14,-8,0,-5
-6,9,16,-1,-10,12,3,-15,-15,-8,1,-4
-5,8,15,-1,-10,12,2,-16,-16,-8,1,-4
-5,8,14,-1,-9,11,1,-17,-17,-9,1,-4
-4,7,13,-1,-9,11,0,-18,-18,-10,1,-4
-4,7,13,-1,-8,10,-1,-19,-19,-11,1,-4
-4,7,12,-1,-8,10,-2,-21,-20,-11,1,-4
-4,6,12,-1,-8,9,-4,-22,-21,-12,1,-4
-4,6,11,-1,-7,9,-5,-23,-22,-13,1,-4
-3,6,11,-1,-7,8,-5,-24,-23,-13,1,-4
-3,6,10,-1,-6,7,-6,-25,-24,-13,1,-4
-3,5,9,-1,-6,7,-6,-25,-24,-13,0,-4
-3,5,9,0,-5,6,-7,-26,-25,-14,0,-4
-3,3,8,0,-5,5,-7,-26,-26,-15,0,-4
-3,2,6,0,-4,4,-8,-27,-26,-16,0,-4
-2,2,6,0,-4,4,-8,-27,-27,-16,0,-4
-2,2,5,0,-4,3,-9,-28,-27,-16,0,-4
-2,1,5,1,-4,3,-9,-29,-28,-17,0,-5
-2,1,5,1,-4,2,-9,-30,-28,-17,-1,-5
-2,1,5,1,-4,2,-9,-30,-29,-17,-1,-5
-3,0,5,1,-4,2,-9,-31,-29,-18,-1,-5
-3,0,4,1,-3,1,-9,-31,-30,-18,-2,-5
-2,0,4,1,-3,1,-9,-31,-30,-19,-2,-6
-2,-1,3,1,-3,0,-9,-31,-31,-19,-2,-6
-2,-1,3,2,-3,0,-9,-32,-31,-19,-3,-7
-2,-1,3,2,-3,0,-9,-32,-32,-20,-3,-7
-2,-2,2,2,-3,0,-9,-32,-32,-20,-4,-8
-3,-2,2,3,-3,0,-9,-32,-32,-21,-4,-8
-3,-3,2,3,-3,0,-9,-32,-32,-21,-4,-8
-3,-3,2,3,-3,0,-9,-32,-32,-21,-4,-8
-3,-3,2,3,-3,0,-9,-33,-33,-21,-4,-8
-3,-3,2,3,-3,0,-9,-33,-33,-21,-4,-8
-3,-3,2,3,-3,0,-9,-33,-33,-22,-5,-9
-3,-3,2,3,-3,0,-9,-33,-34,-22,-5,-10
-4,-3,2,3,-3,-1,-9,-33,-34,-22,-5,-10
-4,-3,2,4,-3,-1,-9,-33,-34,-22,-5,-10
-4,-3,2,4,-3,-1,-9,-33,-34,-23,-5,-10
-4,-3,2,4,-3,-1,-9,-33,-34,-23,-5,-10
-4,-4,2,4,-3,-1,-9,-33,-34,-23,-5,-10
-4,-4,2,4,-3,-1,-9,-33,-34,-23,-5,-10
-4,-4,2,4,-3,-1,-9,-33,-34,-23,-5,-10
-4,-4,2,4,-3,-2,-9,-34,-34,-23,-5,-10
-4,-4,2,4,-3,-2,-9,-34,-34,-23,-6,-10
-4,-4,2,4,-3,-2,-9,-34,-34,-23,-6,-10
-4,-4,2,3,-3,-2,-9,-34,-34,-23,-6,-10
-4,-3,2,3,-3,-2,-9,-34,-34,-24,-6,-11
-5,-3,2,4,-4,-2,-9,-34,-35,-24,-6,-11
-5,-4,2,4,-4,-2,-9,-34,-35,-24,-6,-11
-5,-4,2,4,-4,-2,-9,-34,-35,-24,-6,-11
-4,-4,2,4,-4,-2,-9,-34,-35,-24,-6,-11
-4,-4,2,4,-4,-2,-9,-34,-35,-24,-6,-11
-4,-4,2,4,-3,-2,-9,-34,-35,-24,-6,-11
-5,-4,2,5,-3,-2,-9,-34,-35,-24,-7,-11
-5,-4,2,5,-3,-2,-9,-34,-35,-24,-7,-11
-5,-4,2,5,-3,-2,-9,-34,-35,-24,-7,-11
-4,-4,1,4,-3,-2,-9,-34,-35,-24,-7,-11
-4,-4,1,4,-3,-2,-9,-34,-35,-24,-7,-11
-4,-4,2,4,-3,-2,-8,-34,-35,-24,-7,-11
-5,-4,2,4,-3,-2,-8,-34,-35,-24,-7,-12
-5,-4,2,4,-3,-2,-8,-34,-35,-24,-7,-12
-5,-4,2,4,-3,-2,-8,-34,-35,-24,-7,-12
-5,-3,2,4,-3,-1,-9,-34,-35,-24,-7,-12
-5,-3,2,4,-3,-1,-9,-35,-35,-24,-7,-12
-5,-3,2,4,-3,-1,-9,-35,-35,-24,-7,-12
-5,-4,2,5,-3,-1,-9,-35,-35,-24,-7,-12
-5,-4,2,5,-3,-1,-9,-35,-35,-24,-7,-11
-5,-4,2,5,-3,-1,-9,-35,-35,-24,-7,-11
-5,-4,2,5,-3,-1,-9,-35,-35,-24,-7,-11
-5,-4,2,4,-4,-1,-9,-35,-35,-25,-7,-11
-5,-4,2,4,-4,-1,-9,-35,-35,-25,-7,-11
-5,-4,2,5,-4,-2,-9,-35,-36,-25,-8,-11
-6,-5,2,5,-4,-2,-9,-35,-36,-25,-8,-11
-5,-5,2,5,-4,-2,-9,-35,-35,-24,-7,-11
-5,-5,2,4,-4,-2,-8,-35,-35,-24,-7,-10
-5,-4,2,4,-4,-1,-8,-35,-35,-24,-7,-10
-5,-4,1,4,-4,-1,-9,-35,-35,-24,-7,-10
-5,-4,1,4,-3,-1,-9,-35,-35,-24,-7,-10
-4,-4,1,4,-3,-1,-9,-35,-35,-24,-7,-10
-4,-4,1,4,-3,-1,-9,-35,-35,-24,-7,-10
-4,-4,1,4,-3,-1,-9,-35,-35,-24,-7,-10
-4,-4,1,4,-3,-1,-9,-35,-35,-25,-7,-11
-4,-4,1,4,-3,-1,-9,-35,-35,-25,-7,-11
-4,-4,1,4,-3,-1,-9,-36,-35,-25,-8,-12
-4,-4,1,4,-3,-1,-9,-36,-35,-25,-8,-12
-4,-4,1,4,-3,-1,-9,-36,-35,-24,-8,-12
-4,-4,1,4,-4,-1,-9,-36,-35,-24,-8,-12
-4,-4,1,4,-4,-1,-9,-36,-35,-24,-8,-12
-4,-4,1,4,-4,-1,-9,-36,-35,-24,-8,-12
-4,-4,1,4,-4,-1,-9,-36,-35,-24,-8,-12
-4,-4,1,4,-4,-1,-9,-36,-35,-24,-8,-12
-5,-4,1,4,-4,-1,-9,-36,-35,-24,-8,-12
-5,-4,1,4,-4,-1,-9,-36,-35,-24,-8,-12
-5,-4,1,4,-4,-1,-9,-36,-35,-24,-8,-12
-5,-4,1,4,-4,-1,-9,-35,-35,-24,-8,-12
-5,-4,1,4,-4,-1,-9,-35,-35,-23,-8,-12
-5,-4,1,4,-4,-1,-9,-35,-35,-23,-8,-12
-5,-4,1,4,-4,-1,-9,-35,-35,-23,-8,-12
-5,-4,1,4,-4,-1,-9,-35,-35,-23,-8,-11
-5,-4,1,4,-4,-1,-10,-35,-35,-23,-8,-11
-5,-4,1,4,-4,-1,-10,-35,-34,-23,-8,-11
-4,-4,1,4,-4,-1,-10,-35,-34,-23,-8,-11
-4,-4,1,4,-4,-1,-10,-35,-34,-23,-8,-11
-4,-4,1,4,-4,-1,-10,-35,-34,-23,-8,-11
-4,-4,1,4,-4,-1,-10,-35,-34,-22,-8,-11
-4,-4,1,4,-4,-2,-10,-35,-34,-22,-8,-11
-4,-4,1,4,-4,-2,-10,-35,-34,-22,-7,-11
-4,-4,1,4,-4,-2,-10,-34,-34,-22,-7,-11
-4,-4,1,4,-4,-2,-10,-34,-33,-22,-7,-11
-4,-4,0,4,-4,-2,-10,-34,-33,-22,-7,-11
-4,-4,0,4,-4,-2,-10,-34,-33,-23,-7,-10
-4,-4,0,4,-4,-2,-10,-34,-33,-23,-6,-10
-4,-4,1,4,-4,-2,-10,-34,-33,-23,-6,-10
-4,-4,1,4,-4,-2,-10,-34,-33,-23,-6,-10
-4,-4,1,4,-4,-2,-10,-34,-33,-23,-6,-9
-4,-4,1,4,-4,-2,-10,-34,-32,-23,-6,-9
-4,-4,1,4,-4,-1,-10,-34,-32,-23,-6,-9
-4,-4,1,4,-4,-1,-10,-34,-32,-23,-6,-9
-4,-4,1,4,-4,-1,-10,-34,-32,-23,-6,-9
-4,-4,1,4,-4,-1,-10,-34,-32,-23,-6,-9
-4,-4,1,4,-4,-1,-10,-34,-32,-23,-6,-9
-4,-4,1,3,-4,-1,-10,-34,-32,-23,-6,-9
-4,-4,1,3,-4,-1,-10,-34,-32,-23,-6,-9
-4,-4,1,3,-4,-1,-10,-34,-32,-23,-6,-9
-5,-4,1,4,-4,-1,-10,-34,-31,-22,-5,-9
-5,-4,1,4,-4,-1,-10,-34,-31,-22,-5,-9
-4,-4,0,4,-3,-2,-10,-34,-31,-22,-5,-9
-4,-4,0,4,-3,-2,-10,-34,-31,-22,-5,-9
-4,-4,0,4,-3,-2,-10,-34,-31,-22,-5,-9
-4,-4,0,4,-3,-2,-10,-34,-31,-22,-5,-9
-4,-4,0,4,-3,-2,-10,-34,-31,-22,-5,-9
-4,-4,0,4,-3,-2,-10,-34,-31,-21,-5,-10
-4,-4,1,4,-3,-2,-10,-34,-31,-21,-5,-10
-4,-4,1,4,-3,-1,-10,-34,-31,-21,-5,-10
-4,-4,1,4,-3,-1,-10,-34,-31,-21,-6,-10
-4,-4,1,4,-3,-1,-10,-34,-31,-21,-6,-10
-4,-4,1,4,-4,-1,-10,-34,-31,-21,-6,-10
-4,-4,1,4,-4,-2,-10,-34,-31,-21,-6,-10
-4,-4,0,4,-4,-2,-10,-34,-31,-21,-6,-10
-4,-5,0,4,-4,-2,-10,-34,-31,-21,-6,-10
-4,-5,0,4,-3,-2,-10,-34,-31,-21,-6,-10
-4,-5,0,4,-3,-2,-10,-34,-31,-21,-6,-10
-4,-5,0,4,-3,-2,-10,-34,-31,-21,-6,-10
-4,-4,0,4,-3,-2,-10,-34,-31,-21,-6,-10
-4,-4,0,3,-3,-2,-10,-34,-30,-21,-6,-10
-4,-4,0,3,-3,-1,-10,-34,-30,-21,-6,-10
-4,-4,0,3,-4,-1,-11,-35,-30,-21,-6,-10
-4,-4,0,3,-4,-1,-11,-35,-31,-21,-6,-10
-4,-4,0,3,-4,-1,-11,-35,-31,-21,-6,-10
-4,-4,0,3,-4,-1,-11,-35,-31,-21,-6,-10
-4,-4,0,3,-4,-1,-11,-35,-31,-21,-6,-10
-4,-4,0,4,-4,-1,-11,-35,-31,-21,-6,-10
-4,-4,0,4,-4,-1,-11,-35,-31,-22,-6,-10
-4,-4,0,4,-4,-1,-11,-35,-31,-22,-6,-10
-4,-4,0,4,-4,-1,-11,-35,-31,-22,-6,-10
-4,-4,0,4,-4,-1,-11,-35,-31,-22,-6,-10
-4,-4,0,4,-4,-1,-11,-35,-31,-22,-6,-10
-4,-4,0,4,-4,-1,-11,-35,-31,-22,-6,-10
-4,-4,0,4,-4,-1,-11,-35,-31,-22,-6,-10
-4,-4,0,4,-4,-1,-11,-35,-31,-22,-6,-10
-4,-4,0,4,-4,-1,-11,-35,-31,-22,-6,-10
-4,-4,0,4,-4,-1,-11,-34,-30,-21,-6,-10
-4,-4,0,4,-4,-1,-11,-34,-30,-21,-6,-10
-4,-4,0,4,-4,-2,-11,-34,-30,-20,-6,-10
-4,-4,0,4,-4,-2,-10,-34,-30,-20,-6,-10
-4,-4,0,3,-4,-1,-10,-34,-30,-20,-6,-10
-4,-3,0,3,-4,-1,-10,-34,-30,-20,-6,-10
-4,-3,0,3,-4,-1,-10,-34,-30,-20,-6,-10
-4,-3,0,3,-4,-1,-10,-34,-30,-20,-6,-10
-4,-2,1,2,-4,0,-10,-34,-29,-20,-6,-9
-3,-1,2,1,-4,0,-10,-33,-29,-20,-5,-9
-3,0,2,0,-4,1,-10,-33,-29,-19,-5,-8
-3,0,3,0,-4,2,-10,-32,-28,-19,-5,-8
-3,1,3,0,-5,2,-9,-32,-28,-18,-4,-8
-3,1,4,0,-5,3,-9,-32,-28,-18,-4,-8
-3,1,4,0,-5,3,-9,-32,-28,-18,-4,-7
-3,1,4,0,-5,3,-9,-32,-27,-18,-4,-7
-3,1,4,0,-5,3,-9,-32,-27,-18,-4,-7
-3,1,5,0,-6,3,-9,-32,-27,-18,-4,-7
-4,1,5,0,-6,3,-8,-32,-27,-18,-4,-7
-4,1,5,0,-6,4,-8,-32,-27,-18,-4,-7
-4,2,5,0,-6,4,-8,-32,-27,-18,-4,-7
-4,2,5,0,-6,4,-7,-32,-27,-18,-3,-7
-4,2,5,0,-6,4,-7,-32,-27,-18,-3,-7
-4,2,5,0,-6,4,-7,-32,-27,-18,-2,-7
-3,2,5,0,-6,4,-7,-32,-27,-18,-2,-7
-3,3,5,-1,-6,4,-7,-31,-27,-17,-2,-6
-3,4,6,-1,-6,5,-7,-31,-26,-17,-1,-5
-3,5,7,-2,-6,6,-7,-31,-26,-16,-1,-5
-2,5,7,-2,-6,7,-7,-31,-26,-16,-1,-5
-2,6,7,-2,-6,7,-7,-31,-26,-16,-1,-5
-1,6,8,-3,-6,8,-8,-31,-26,-16,-1,-5
-1,7,8,-3,-6,8,-9,-31,-26,-16,-1,-5
-1,7,8,-3,-6,8,-9,-32,-26,-16,-1,-5
-1,7,8,-3,-6,8,-10,-32,-26,-16,-1,-5
-1,7,8,-3,-6,8,-10,-32,-26,-16,-1,-5
-1,7,8,-3,-6,8,-11,-33,-27,-17,-2,-5
-1,7,8,-3,-6,8,-11,-33,-27,-17,-2,-5
-1,7,8,-3,-6,8,-11,-33,-27,-17,-2,-5
-1,7,9,-3,-6,9,-11,-33,-27,-17,-2,-5
-1,8,10,-4,-7,10,-11,-33,-27,-17,-2,-5
-1,9,11,-4,-8,10,-11,-33,-27,-17,-1,-5
-1,9,12,-5,-8,11,-11,-33,-26,-16,-1,-4
-1,10,12,-5,-8,11,-11,-32,-26,-15,0,-4
-1,10,12,-5,-8,11,-11,-32,-25,-15,0,-4
-1,9,11,-5,-7,11,-11,-32,-25,-15,0,-3
-1,8,10,-4,-7,9,-11,-31,-25,-15,1,-3
-1,6,8,-3,-6,8,-11,-30,-25,-15,1,-3
-1,5,7,-2,-6,6,-11,-30,-25,-15,0,-4
-1,4,6,-1,-5,5,-11,-31,-26,-15,0,-5
-2,3,5,-1,-5,4,-11,-31,-26,-16,0,-5
-2,2,4,0,-4,3,-11,-32,-27,-17,-1,-6
-3,0,3,1,-4,2,-11,-33,-28,-18,-2,-7
-4,-1,3,2,-4,1,-11,-34,-29,-20,-3,-8
-4,-1,2,2,-4,1,-11,-34,-30,-21,-4,-8
-4,-2,2,2,-4,0,-11,-35,-30,-21,-5,-9
-4,-2,2,2,-4,0,-12,-35,-31,-21,-5,-9
-4,-2,1,3,-4,0,-12,-35,-31,-22,-6,-10
-4,-3,1,3,-4,-1,-12,-36,-32,-22,-6,-10
-4,-3,0,3,-4,-1,-12,-36,-32,-22,-7,-11
-4,-4,0,3,-4,-1,-12,-36,-32,-22,-7,-11
-4,-4,0,3,-4,-1,-12,-36,-32,-22,-7,-11
-4,-4,0,4,-4,-2,-12,-36,-32,-23,-8,-11
-5,-5,0,4,-4,-2,-12,-36,-33,-23,-8,-11
-5,-6,0,5,-4,-3,-12,-36,-33,-23,-8,-11
-5,-6,-1,5,-3,-3,-12,-36,-33,-23,-8,-11
-5,-5,-1,5,-3,-3,-12,-36,-33,-23,-8,-11
-5,-5,-1,5,-3,-3,-12,-36,-33,-23,-8,-11
-4,-5,-1,5,-3,-3,-12,-36,-33,-23,-8,-12
-4,-5,-1,5,-3,-3,-12,-36,-33,-23,-9,-12
-4,-5,-1,5,-3,-3,-12,-36,-33,-23,-9,-12
-4,-5,-1,5,-3,-3,-12,-36,-33,-23,-9,-12
-4,-6,-1,5,-3,-3,-12,-36,-33,-23,-8,-12
-5,-6,-1,5,-3,-3,-12,-36,-33,-23,-8,-12
-5,-6,-1,5,-3,-3,-12,-36,-33,-23,-8,-12
-4,-6,-2,5,-3,-3,-12,-36,-33,-23,-8,-12
-4,-6,-2,5,-2,-3,-12,-36,-33,-23,-8,-11
-4,-7,-2,5,-2,-3,-12,-36,-33,-23,-8,-11
-5,-7,-2,5,-2,-4,-12,-36,-33,-23,-8,-11
-5,-7,-2,5,-2,-4,-12,-36,-33,-23,-8,-11
-5,-7,-2,5,-2,-4,-12,-36,-33,-24,-8,-11
-5,-7,-2,5,-2,-4,-12,-36,-33,-24,-8,-11
-4,-6,-2,5,-2,-4,-12,-36,-33,-24,-8,-11
-4,-6,-2,5,-2,-4,-12,-36,-33,-24,-8,-11
-5,-7,-2,5,-2,-4,-12,-36,-33,-24,-8,-11
-5,-7,-2,6,-2,-4,-12,-36,-33,-24,-8,-11
-5,-7,-2,6,-2,-4,-12,-37,-33,-24,-9,-11
-5,-7,-2,6,-2,-4,-13,-37,-33,-24,-9,-11
-5,-7,-2,6,-2,-4,-13,-37,-34,-24,-9,-11
-5,-7,-2,6,-2,-4,-13,-37,-34,-25,-9,-11
-5,-7,-2,5,-2,-4,-13,-37,-34,-25,-9,-11
-4,-6,-2,5,-1,-4,-13,-37,-34,-25,-9,-11
-4,-7,-2,5,-1,-4,-13,-37,-34,-24,-9,-11
-5,-7,-2,5,-2,-4,-13,-37,-34,-24,-9,-11
-5,-7,-2,5,-2,-4,-13,-37,-34,-24,-9,-11
-5,-7,-3,5,-2,-4,-13,-37,-34,-24,-9,-11
-5,-7,-3,5,-2,-5,-13,-37,-34,-24,-8,-11
-5,-7,-3,5,-2,-5,-13,-37,-34,-24,-8,-11
-5,-7,-2,5,-2,-5,-13,-37,-34,-24,-8,-11
-5,-7,-2,5,-2,-4,-13,-38,-34,-24,-9,-11
-5,-6,-1,5,-3,-3,-13,-39,-35,-25,-9,-11
-6,-5,0,5,-4,-2,-13,-42,-36,-26,-9,-11
-7,-4,2,5,-5,0,-13,-46,-38,-27,-9,-12
-7,-3,3,4,-6,1,-14,-51,-41,-28,-10,-12
-8,-2,5,4,-7,2,-16,-57,-45,-30,-10,-12
-8,-2,6,4,-8,2,-16,-62,-48,-32,-10,-12
-9,-2,7,4,-8,2,-15,-65,-50,-33,-10,-11
-9,-2,6,4,-8,2,-13,-67,-52,-33,-10,-11
-9,-3,5,5,-7,1,-12,-69,-53,-33,-9,-10
-8,-3,4,4,-6,0,-12,-70,-52,-30,-6,-7
-6,-3,3,3,-5,0,-14,-70,-51,-27,-2,-3
-4,-2,2,2,-3,0,-18,-71,-49,-23,2,1
-1,-1,0,0,0,0,-23,-72,-48,-19,6,6
2,0,-1,-2,2,0,-29,-74,-47,-17,10,10
5,4,-1,-5,3,1,-34,-76,-47,-15,14,14
8,8,0,-9,4,4,-41,-80,-47,-13,17,18
10,13,2,-12,4,7,-48,-83,-48,-12,20,22
13,14,0,-14,6,7,-54,-83,-48,-12,21,23
15,13,-3,-15,9,5,-58,-82,-50,-13,20,22
18,11,-7,-15,12,2,-61,-82,-53,-16,17,19
19,7,-12,-14,15,-2,-64,-83,-58,-21,11,14
20,2,-17,-12,18,-7,-66,-84,-64,-30,2,6
18,-3,-20,-9,19,-11,-67,-85,-70,-40,-9,-4
15,-8,-21,-5,18,-14,-67,-85,-75,-50,-20,-14
11,-12,-22,0,16,-16,-67,-83,-76,-56,-29,-23
6,-14,-20,3,13,-17,-67,-78,-74,-59,-35,-30
0,-15,-16,7,8,-16,-64,-72,-68,-59,-39,-35
-4,-15,-11,9,2,-13,-58,-63,-61,-57,-41,-39
-8,-15,-7,11,-1,-11,-52,-53,-53,-53,-41,-41
-10,-14,-3,11,-4,-9,-46,-43,-45,-48,-39,-40
-10,-12,0,10,-5,-6,-41,-34,-37,-42,-36,-39
-11,-9,2,9,-7,-3,-37,-26,-29,-37,-33,-36
-11,-7,4,8,-8,-1,-33,-19,-22,-31,-30,-34
-10,-5,4,7,-8,0,-29,-11,-15,-26,-27,-32
-9,-4,4,6,-7,0,-24,-5,-9,-22,-24,-30
-9,-3,4,5,-7,0,-19,1,-4,-17,-21,-27
-8,-3,4,4,-7,1,-15,7,1,-13,-17,-24
-7,-2,5,3,-7,1,-10,13,6,-8,-13,-21
-6,-2,5,2,-6,1,-5,19,11,-4,-10,-18
-5,-1,4,2,-5,1,-2,25,16,0,-8,-16
-4,-1,3,1,-4,1,0,29,21,2,-6,-14
-4,-1,2,1,-3,1,2,33,24,4,-4,-13
-3,-1,1,1,-3,0,4,35,26,6,-3,-12
-3,-2,0,1,-2,0,6,36,27,8,-1,-11
-3,-4,0,1,-2,-2,8,37,28,9,0,-10
-2,-5,-2,2,-1,-3,10,39,29,10,0,-10
-2,-7,-4,2,0,-5,11,41,30,11,0,-9
-1,-8,-5,3,1,-6,13,43,31,12,1,-9
-1,-9,-7,4,2,-8,14,45,33,13,1,-8
0,-10,-9,4,3,-9,14,47,34,14,1,-8
0,-10,-10,5,4,-10,15,48,35,15,1,-8
0,-11,-11,5,4,-11,15,49,35,16,2,-7
0,-11,-12,5,5,-12,16,50,36,17,3,-7
0,-12,-13,4,6,-13,17,51,37,18,4,-6
1,-13,-14,5,7,-14,18,52,38,19,5,-6
1,-14,-15,5,8,-15,19,54,39,20,5,-5
1,-14,-15,5,8,-15,20,55,41,21,6,-5
1,-15,-16,6,8,-15,20,56,42,22,6,-5
1,-15,-16,6,8,-15,20,57,42,22,6,-5
1,-15,-16,6,8,-15,20,58,43,22,6,-5
1,-15,-16,6,8,-15,21,58,43,22,6,-4
2,-15,-17,5,9,-15,21,59,43,23,6,-4
2,-15,-17,5,9,-16,22,59,44,23,6,-4
2,-15,-18,5,10,-16,22,60,44,24,7,-4
2,-16,-18,5,10,-17,22,62,45,24,7,-4
2,-16,-18,5,10,-17,23,63,46,25,7,-4
2,-16,-18,5,10,-17,23,64,47,25,8,-3
2,-16,-19,5,10,-18,24,64,48,26,8,-3
2,-16,-19,5,10,-18,24,65,49,26,9,-3
2,-16,-19,6,10,-18,25,65,49,27,9,-2
2,-16,-19,6,11,-18,25,66,50,28,9,-2
3,-16,-19,6,11,-18,26,67,50,29,9,-1
3,-16,-20,6,11,-18,26,69,52,30,10,-1
4,-16,-21,6,12,-18,26,71,53,31,10,0
4,-16,-21,6,12,-18,26,72,55,32,11,0
4,-16,-21,5,12,-18,27,74,56,32,11,0
4,-16,-21,5,12,-18,27,74,57,33,12,0
5,-16,-22,4,13,-19,28,75,57,34,13,1
6,-16,-22,4,13,-19,28,76,58,35,14,2
6,-16,-22,5,14,-19,29,77,59,36,14,2
6,-16,-22,5,14,-19,29,79,61,38,14,3
6,-16,-23,4,14,-19,29,81,63,39,15,3
7,-16,-23,4,14,-19,29,83,64,40,15,4
7,-16,-23,4,14,-20,30,85,66,41,16,4
7,-16,-24,4,14,-20,30,86,67,41,16,5
7,-16,-24,4,14,-20,31,87,67,42,17,5
7,-15,-24,3,15,-20,31,88,68,43,18,6
8,-15,-24,3,15,-20,32,89,69,44,19,6
8,-15,-24,3,16,-20,32,91,71,46,20,7
9,-15,-24,3,16,-20,32,93,72,47,21,8
9,-15,-25,3,17,-20,32,95,74,48,22,8
9,-15,-25,2,17,-20,32,96,76,49,22,9
9,-14,-24,1,16,-19,33,97,77,49,23,9
10,-13,-24,1,16,-19,33,98,77,50,23,10
10,-14,-25,1,17,-20,33,99,78,52,24,10
11,-14,-26,1,18,-20,34,100,79,53,25,11
11,-14,-25,1,18,-19,34,102,80,54,26,12
11,-14,-25,1,18,-19,35,103,82,55,26,12
12,-14,-25,1,18,-19,35,105,83,56,27,13
12,-13,-25,0,18,-19,35,106,85,57,28,13
12,-13,-25,0,18,-19,36,107,86,58,28,14
12,-13,-25,0,18,-19,36,108,86,58,29,14
12,-13,-25,-1,18,-19,36,108,87,59,30,15
13,-12,-25,-1,18,-19,36,108,87,60,30,16
13,-12,-25,-1,18,-19,36,109,88,61,31,16
13,-11,-25,-1,18,-19,37,110,89,62,32,17
13,-11,-24,-2,18,-18,37,112,91,63,32,17
13,-11,-24,-2,18,-18,38,113,92,63,33,18
13,-10,-24,-2,18,-18,38,114,93,64,34,19
14,-9,-24,-2,18,-17,38,114,93,64,34,19
14,-8,-24,-3,19,-16,38,114,93,65,35,20
15,-8,-23,-4,19,-15,38,114,94,65,36,21
15,-7,-23,-5,19,-15,38,114,94,66,36,22
15,-7,-22,-5,18,-15,38,114,94,67,37,23
15,-7,-22,-5,18,-15,39,115,95,67,38,23
15,-6,-22,-5,18,-14,39,115,96,68,38,24
15,-6,-21,-5,18,-14,39,115,96,68,39,24
15,-5,-21,-6,18,-13,39,115,96,69,40,25
15,-4,-20,-6,18,-12,39,115,96,69,41,26
16,-3,-19,-7,17,-11,39,115,96,69,41,27
16,-2,-19,-7,17,-11,39,114,96,70,42,28
16,-2,-18,-7,17,-10,39,114,96,70,43,28
17,-1,-18,-8,16,-10,39,114,96,70,43,29
17,0,-17,-9,16,-9,39,113,96,70,44,30
17,0,-17,-9,16,-9,39,113,96,70,45,30
17,1,-16,-10,16,-8,38,112,96,70,45,31
17,1,-15,-10,16,-7,38,111,95,70,46,32
17,2,-14,-10,15,-6,38,110,95,70,47,33
17,3,-14,-10,15,-5,37,109,94,70,47,34
17,3,-13,-10,14,-5,37,107,93,70,48,34
17,4,-13,-11,14,-4,36,106,92,70,48,35
17,5,-12,-12,14,-4,36,104,91,69,48,35
17,6,-11,-12,13,-3,35,103,90,69,48,35
17,7,-10,-13,13,-2,34,101,89,68,48,36
17,8,-10,-13,13,-1,33,99,87,67,48,36
18,9,-9,-14,13,0,32,97,86,66,48,37
18,9,-8,-14,13,1,31,95,84,66,48,37
18,10,-7,-14,13,1,30,93,83,65,48,37
18,10,-7,-14,12,2,30,91,81,64,48,37
17,11,-6,-14,11,2,29,88,80,63,48,37
17,12,-5,-15,10,3,28,86,78,62,48,37
17,12,-4,-15,10,4,27,83,76,61,47,37
17,13,-3,-15,9,4,26,81,74,60,47,37
17,13,-2,-16,9,5,25,78,72,58,47,37
17,14,-2,-16,9,5,24,75,70,57,46,37
17,14,-1,-16,9,6,23,72,67,56,46,37
16,15,-1,-16,8,6,22,69,65,55,45,37
16,15,0,-16,8,7,21,67,63,53,45,37
15,15,0,-16,7,7,20,64,61,52,44,37
15,16,0,-16,7,8,19,61,58,50,43,36
15,16,1,-16,6,8,18,57,55,47,42,36
15,17,2,-16,6,9,16,54,52,45,41,35
15,17,2,-16,6,9,15,50,49,43,40,34
15,17,3,-16,5,9,14,47,46,41,39,33
14,16,3,-15,5,9,13,43,43,38,37,32
13,16,4,-15,4,10,12,40,40,36,36,31
12,16,4,-15,4,10,12,36,37,33,34,30
12,16,5,-15,3,10,11,32,34,31,33,29
11,16,5,-15,3,10,10,29,31,28,31,27
10,16,6,-14,2,10,9,26,28,26,29,26
10,15,6,-13,2,10,8,22,25,23,27,24
10,15,6,-13,1,10,7,19,22,21,26,23
9,14,6,-12,1,10,6,16,19,18,24,21
8,14,7,-12,0,10,5,12,16,16,22,20
7,13,7,-11,0,10,5,9,13,13,20,18
6,13,7,-11,-1,10,4,6,10,10,18,16
6,12,6,-10,-1,10,2,3,7,8,16,15
6,12,6,-9,-1,9,1,0,4,5,14,13
5,11,6,-8,-1,9,0,-2,1,3,12,12
4,10,6,-8,-1,8,0,-5,-1,1,10,10
4,9,6,-7,-1,7,0,-8,-4,-1,9,9
3,9,6,-7,-1,7,-1,-10,-6,-3,7,7
2,8,6,-6,-2,6,-1,-12,-8,-5,5,6
1,7,6,-5,-2,6,-2,-14,-10,-7,3,4
1,6,6,-4,-3,5,-3,-17,-13,-9,2,3
0,6,6,-4,-3,5,-4,-19,-15,-11,0,1
0,5,6,-3,-3,4,-5,-21,-17,-12,0,0
0,5,6,-3,-3,4,-5,-22,-19,-14,-1,0
0,4,5,-2,-3,3,-6,-24,-21,-15,-2,-1
-1,3,5,-2,-3,3,-6,-25,-22,-16,-3,-2
-1,3,5,-1,-3,3,-6,-27,-23,-17,-4,-3
-2,2,5,-1,-3,3,-7,-28,-24,-19,-6,-4
-2,2,5,-1,-3,3,-8,-29,-25,-20,-7,-5
-2,1,4,0,-3,2,-8,-30,-27,-22,-8,-6
-2,1,4,0,-3,2,-9,-31,-28,-23,-9,-6
-3,0,4,0,-3,1,-9,-32,-30,-23,-9,-7
-3,0,4,1,-4,1,-9,-33,-31,-24,-10,-8
-3,0,4,1,-4,1,-9,-34,-31,-24,-10,-9
-3,0,4,1,-4,1,-9,-35,-32,-25,-11,-9
-3,0,4,2,-4,1,-10,-36,-32,-25,-11,-9
-4,-1,4,2,-4,1,-10,-36,-33,-26,-12,-10
-4,-1,4,3,-4,1,-10,-37,-33,-26,-12,-10
-4,-2,3,3,-3,0,-10,-37,-34,-27,-13,-10
-4,-2,3,3,-3,0,-10,-38,-34,-27,-13,-11
-4,-2,3,3,-4,0,-11,-38,-35,-28,-13,-11
-5,-2,3,3,-4,0,-11,-39,-36,-28,-14,-11
-5,-2,3,3,-5,0,-11,-40,-36,-29,-14,-12
-5,-2,3,3,-5,0,-11,-41,-37,-29,-14,-12
-5,-2,3,3,-5,0,-11,-42,-37,-30,-15,-12
-5,-2,3,4,-5,0,-11,-43,-38,-31,-15,-13
-6,-3,3,4,-5,0,-11,-44,-39,-32,-16,-13
-6,-3,4,5,-5,0,-11,-46,-41,-32,-16,-14
-7,-3,4,5,-5,0,-11,-48,-42,-33,-17,-14
-7,-3,4,5,-6,0,-11,-52,-43,-34,-17,-15
-8,-4,5,6,-6,0,-11,-55,-45,-35,-18,-15
-8,-3,5,6,-7,0,-11,-59,-46,-36,-18,-16
-9,-3,6,6,-7,0,-12,-62,-47,-37,-19,-16
-9,-3,7,6,-8,1,-12,-65,-48,-38,-19,-17
-10,-3,7,6,-8,1,-13,-68,-49,-39,-20,-17
-10,-3,8,6,-9,2,-14,-72,-51,-40,-20,-18
-11,-2,9,6,-10,2,-16,-76,-53,-41,-21,-18
-12,-2,10,6,-11,3,-18,-80,-54,-42,-22,-18
-12,-2,10,6,-12,3,-20,-83,-55,-42,-22,-18
-12,-2,11,6,-12,3,-21,-85,-56,-42,-22,-18
-12,-1,11,6,-12,3,-23,-86,-56,-42,-22,-18
-11,-1,11,6,-11,4,-24,-87,-56,-42,-22,-18
-11,0,11,6,-11,4,-27,-88,-56,-42,-22,-18
-11,0,11,5,-11,5,-29,-89,-56,-43,-22,-18
-10,0,11,5,-11,5,-32,-91,-57,-44,-23,-18
-10,0,11,4,-11,5,-34,-94,-59,-44,-23,-18
-10,0,11,4,-11,5,-38,-99,-61,-45,-23,-18
-10,0,11,4,-11,5,-42,-105,-64,-47,-24,-18
-11,1,12,4,-12,6,-47,-111,-68,-50,-26,-19
-11,2,13,4,-13,7,-51,-118,-72,-53,-27,-21
-12,4,15,3,-14,9,-56,-125,-76,-55,-29,-22
-12,6,18,3,-16,11,-61,-132,-80,-57,-29,-22
-13,9,22,1,-17,15,-65,-138,-82,-58,-29,-21
-12,14,27,-1,-19,19,-70,-142,-83,-56,-26,-18
-11,19,32,-4,-21,25,-75,-145,-82,-53,-22,-14
-10,26,36,-9,-23,30,-80,-146,-80,-50,-18,-10
-8,32,40,-13,-24,35,-85,-146,-77,-45,-14,-5
-5,38,43,-16,-24,40,-89,-143,-73,-40,-9,0
-3,43,46,-20,-25,44,-93,-140,-68,-35,-3,6
0,48,48,-24,-24,47,-96,-135,-63,-28,2,11
3,52,49,-28,-23,50,-100,-129,-55,-21,9,18
7,57,50,-32,-22,53,-103,-121,-47,-12,17,25
11,61,50,-36,-20,55,-107,-113,-38,-3,26,33
15,64,50,-40,-17,56,-109,-105,-29,5,34,41
18,67,48,-43,-15,57,-110,-96,-20,14,42,48
21,68,47,-45,-12,57,-110,-87,-12,21,49,54
24,69,44,-47,-10,56,-109,-79,-6,27,55,60
27,69,42,-48,-7,55,-108,-72,-1,33,60,65
30,69,39,-49,-5,54,-105,-65,4,38,65,70
32,69,37,-50,-2,52,-102,-58,10,44,70,75
35,68,34,-51,0,50,-99,-49,17,49,75,79
37,66,29,-51,4,47,-95,-40,24,55,80,84
40,62,23,-51,9,42,-91,-30,30,60,84,88
42,59,17,-51,13,37,-87,-22,36,64,87,90
43,54,11,-50,16,32,-83,-15,40,67,89,91
44,49,5,-47,19,27,-79,-9,43,68,89,91
44,44,0,-44,22,21,-75,-4,45,69,89,91
44,38,-5,-41,24,16,-71,1,47,70,88,90
44,33,-10,-38,26,11,-67,5,49,70,87,88
43,28,-14,-36,28,6,-64,7,49,70,86,86
42,22,-19,-33,30,1,-61,9,48,68,84,84
42,18,-23,-31,32,-3,-58,10,48,67,82,82
41,14,-26,-28,33,-6,-55,12,49,67,80,79
40,11,-29,-26,34,-9,-52,15,50,67,78,78
39,9,-30,-24,35,-10,-49,17,51,67,77,76
39,8,-31,-24,35,-12,-46,18,52,68,77,76
39,6,-32,-23,35,-13,-44,20,53,68,77,75
38,4,-33,-22,36,-15,-42,23,53,68,75,73
37,3,-34,-21,36,-16,-39,25,54,67,72,70
36,1,-34,-20,35,-17,-35,28,54,65,68,65
35,0,-34,-18,35,-17,-31,32,54,63,64,60
33,-1,-34,-17,34,-18,-26,38,56,62,60,56
31,-2,-34,-15,33,-18,-21,46,60,63,58,53
30,-3,-33,-14,31,-18,-16,55,65,64,56,50
28,-3,-31,-12,29,-18,-10,63,70,65,54,46
25,-4,-30,-10,27,-18,-5,70,72,65,50,41
21,-6,-28,-8,24,-18,0,76,74,63,44,35
17,-8,-25,-5,21,-17,6,80,74,58,37,28
14,-9,-23,-3,18,-16,11,82,71,52,29,20
11,-10,-21,-1,16,-16,15,83,68,45,22,13
8,-11,-20,1,14,-16,17,84,65,39,16,7
6,-13,-20,3,13,-17,19,84,62,34,11,3
5,-14,-20,4,12,-18,21,85,60,31,8,0
5,-16,-20,5,12,-19,23,86,59,29,7,-2
4,-17,-20,6,12,-19,25,86,58,28,5,-3
4,-18,-21,6,12,-20,26,87,58,28,4,-4
3,-19,-21,7,12,-20,27,87,58,27,3,-5
2,-19,-21,7,12,-20,28,87,57,26,2,-7
2,-19,-21,8,12,-20,29,86,56,25,1,-8
1,-20,-21,8,11,-20,30,84,53,23,0,-10
0,-20,-20,9,10,-20,31,82,51,21,-2,-11
0,-21,-20,10,10,-20,32,80,49,19,-3,-12
-1,-21,-20,10,10,-20,33,78,47,17,-4,-13
-1,-21,-19,11,9,-21,34,76,45,16,-5,-14
-2,-21,-19,11,9,-21,35,74,43,15,-5,-15
-2,-21,-18,11,8,-21,35,73,42,15,-6,-15
-3,-22,-18,11,8,-21,36,73,42,14,-7,-16
-3,-22,-18,11,8,-21,36,72,41,13,-8,-16
-3,-22,-18,12,8,-21,37,72,39,12,-9,-17
-4,-22,-18,12,7,-21,38,71,38,11,-9,-18
-4,-22,-18,13,7,-21,39,70,37,10,-10,-18
-4,-22,-18,13,6,-20,40,70,36,10,-10,-18
-4,-22,-18,13,6,-20,41,70,36,10,-10,-18
-4,-22,-18,12,7,-20,42,70,36,11,-10,-18
-3,-22,-17,12,7,-20,42,71,36,11,-10,-18
-3,-22,-17,12,7,-20,42,71,36,10,-11,-18
-3,-22,-17,12,7,-20,43,71,36,10,-11,-19
-4,-22,-18,13,7,-21,43,71,36,9,-11,-19
-4,-22,-18,13,7,-21,44,72,36,9,-11,-19
-4,-23,-18,13,7,-21,45,72,36,9,-11,-19
-3,-23,-18,13,7,-21,46,73,36,9,-11,-19
-3,-23,-18,13,7,-21,47,73,36,10,-11,-19
-3,-23,-18,13,7,-21,47,74,36,10,-11,-19
-3,-23,-18,12,7,-21,48,75,36,10,-11,-19
-3,-23,-18,12,7,-21,48,77,36,11,-11,-19
-3,-23,-18,12,7,-21,49,78,37,11,-11,-19
-3,-23,-18,12,7,-21,50,79,37,11,-11,-18
-3,-23,-18,12,7,-21,51,80,37,11,-11,-18
-3,-23,-18,12,7,-21,52,80,37,11,-11,-18
-3,-23,-18,12,7,-21,53,81,37,11,-11,-18
-3,-23,-18,12,7,-21,54,81,37,11,-11,-18
-3,-23,-18,12,7,-21,54,82,37,11,-11,-19
-3,-23,-18,12,8,-21,55,83,37,11,-11,-19
-3,-23,-19,12,8,-21,55,83,37,11,-11,-19
-3,-23,-19,12,8,-22,56,84,37,11,-11,-19
-3,-23,-19,13,8,-22,57,84,37,11,-11,-19
-3,-23,-19,13,8,-22,58,84,37,12,-11,-19
-3,-23,-19,13,8,-22,59,84,38,12,-11,-19
-3,-23,-18,13,8,-22,59,85,38,12,-11,-19
-3,-23,-18,13,8,-21,60,85,38,12,-11,-19
-3,-23,-18,13,8,-21,60,85,38,12,-11,-19
-3,-22,-18,13,8,-21,61,85,38,12,-11,-19
-3,-22,-17,13,7,-20,61,85,38,12,-11,-19
-4,-22,-16,13,6,-20,62,85,38,12,-11,-20
-5,-22,-16,13,6,-20,62,85,37,12,-11,-20
-5,-22,-16,13,6,-20,63,85,37,12,-11,-20
-5,-21,-15,13,6,-19,63,85,37,12,-11,-20
-5,-21,-15,12,5,-19,63,84,37,12,-11,-20
-5,-21,-14,12,5,-19,63,83,37,11,-11,-20
-5,-21,-14,12,5,-18,63,82,37,11,-11,-20
-5,-20,-13,12,5,-18,63,81,36,10,-11,-20
-5,-20,-13,12,4,-17,63,80,36,10,-11,-20
-6,-20,-12,12,3,-17,63,80,35,9,-12,-20
-6,-19,-12,12,3,-16,63,79,35,9,-12,-20
-6,-19,-11,12,2,-16,62,77,34,8,-12,-20
-7,-18,-10,12,2,-15,62,76,34,8,-12,-20
-7,-18,-9,12,1,-15,61,74,33,7,-12,-20
-7,-17,-8,12,1,-14,61,73,32,7,-12,-20
-7,-17,-7,12,0,-13,60,71,31,7,-12,-20
-8,-16,-7,12,0,-12,59,69,31,7,-12,-20
-8,-15,-6,12,-1,-11,58,67,30,6,-12,-20
-9,-14,-4,11,-2,-10,57,65,29,6,-12,-20
-9,-13,-3,11,-2,-9,56,63,28,5,-12,-20
-9,-12,-2,10,-3,-8,55,61,27,5,-12,-20
-9,-11,-1,10,-3,-7,54,58,26,4,-12,-20
-9,-10,0,10,-4,-6,53,56,24,4,-12,-20
-9,-9,0,9,-4,-5,51,52,23,3,-12,-20
-9,-8,2,9,-5,-4,50,49,21,2,-12,-20
-9,-7,3,8,-6,-3,48,46,19,1,-12,-20
-9,-6,5,8,-7,-2,47,43,17,0,-13,-19
-10,-5,6,7,-8,0,45,40,16,0,-13,-19
-10,-4,8,7,-9,1,43,37,14,0,-13,-19
-10,-2,9,6,-9,2,41,34,13,-1,-13,-18
-10,-1,9,5,-9,3,39,30,11,-1,-13,-18
-10,0,10,5,-9,4,37,27,10,-2,-12,-17
-10,0,11,4,-10,4,35,23,8,-3,-12,-17
-10,1,12,4,-10,5,33,20,6,-4,-12,-16
-9,2,13,3,-11,6,31,17,4,-5,-12,-16
-9,3,14,3,-11,7,29,14,2,-5,-11,-15
-9,4,14,2,-11,8,26,11,1,-5,-11,-14
-9,5,15,1,-11,9,24,8,0,-5,-10,-13
-9,6,15,1,-12,9,21,5,-1,-5,-10,-13
-8,7,16,0,-12,10,19,2,-3,-6,-9,-12
-8,7,16,0,-12,10,16,0,-5,-6,-9,-11
-7,8,17,0,-12,11,14,-3,-6,-7,-8,-10
-7,8,17,-1,-12,11,13,-6,-7,-7,-8,-9
-6,9,17,-1,-11,12,11,-8,-9,-8,-7,-9
-6,9,17,-1,-11,12,9,-10,-10,-9,-7,-8
-6,9,17,-1,-11,12,7,-12,-11,-9,-7,-8
-6,10,17,-2,-11,12,5,-14,-12,-10,-7,-7
-5,10,17,-2,-11,12,3,-16,-13,-10,-7,-7
-5,9,17,-2,-11,12,1,-18,-15,-10,-7,-6
-5,9,16,-2,-10,11,0,-19,-16,-10,-6,-6
-4,9,15,-2,-10,11,0,-21,-17,-10,-6,-5
-4,9,15,-2,-9,10,-1,-22,-18,-11,-6,-5
-4,8,14,-2,-9,10,-3,-24,-19,-11,-5,-5
-4,8,14,-2,-8,9,-4,-25,-19,-12,-5,-4
-4,7,13,-2,-8,9,-5,-26,-20,-12,-5,-4
-3,7,13,-2,-7,9,-6,-27,-21,-12,-5,-4
-3,7,12,-2,-7,8,-7,-28,-22,-13,-5,-4
-3,6,11,-2,-6,7,-8,-29,-23,-13,-5,-4
-2,5,10,-1,-6,7,-8,-30,-24,-14,-5,-4
-2,5,9,-1,-5,6,-9,-31,-25,-14,-5,-4
-2,5,9,-1,-5,6,-9,-31,-25,-15,-5,-4
-2,4,8,-1,-5,5,-10,-32,-26,-16,-5,-4
-2,3,7,0,-5,4,-10,-32,-26,-16,-5,-4
-2,2,6,0,-5,4,-11,-32,-27,-17,-5,-4
-2,2,6,0,-5,3,-11,-33,-27,-17,-6,-4
-2,1,5,0,-4,3,-11,-34,-28,-18,-6,-5
-2,1,5,0,-4,2,-11,-34,-29,-18,-7,-5
-2,1,5,1,-4,2,-11,-35,-30,-18,-7,-5
-2,0,5,1,-4,1,-11,-35,-30,-19,-7,-5
-3,0,5,2,-4,1,-11,-35,-31,-19,-8,-5
-3,0,4,2,-4,0,-11,-35,-31,-20,-8,-6
-3,-1,4,2,-4,0,-11,-36,-31,-20,-9,-6
-3,-1,4,2,-4,0,-11,-36,-32,-20,-9,-7
-3,-2,4,2,-3,0,-11,-37,-32,-20,-9,-7
-3,-2,3,2,-3,0,-11,-37,-32,-20,-9,-7
-3,-2,3,2,-3,0,-11,-37,-33,-21,-9,-8
-4,-2,3,3,-3,0,-11,-37,-33,-21,-10,-8
-4,-3,3,3,-4,-1,-11,-37,-33,-21,-10,-8
-4,-3,3,3,-4,-1,-11,-37,-33,-21,-10,-8
-3,-3,3,3,-4,-1,-11,-37,-33,-21,-10,-8
-3,-3,3,3,-4,-1,-11,-38,-33,-21,-10,-8
-4,-3,3,3,-4,-1,-11,-38,-33,-21,-10,-8
-4,-3,3,3,-4,-1,-11,-38,-34,-21,-10,-8
-4,-3,3,3,-4,-1,-11,-38,-34,-21,-11,-8
-4,-3,3,3,-4,-1,-11,-38,-34,-21,-11,-8
-4,-3,3,4,-4,-1,-11,-38,-34,-21,-11,-8
-4,-3,3,4,-4,-1,-11,-38,-34,-21,-11,-8
-4,-3,3,4,-4,-1,-11,-39,-34,-22,-11,-9
-4,-3,4,4,-4,-1,-11,-39,-34,-22,-11,-9
-5,-3,4,4,-4,-1,-11,-40,-34,-22,-11,-10
-5,-3,4,4,-4,-1,-10,-40,-34,-22,-11,-10
-5,-3,4,4,-4,-1,-10,-40,-34,-22,-11,-10
-5,-3,4,4,-4,-1,-10,-40,-34,-22,-11,-10
-5,-3,4,4,-4,-1,-10,-40,-34,-23,-12,-10
-5,-3,4,4,-4,-1,-10,-40,-34,-23,-12,-10
-5,-3,4,4,-4,-1,-9,-40,-34,-23,-12,-10
-5,-3,4,4,-4,-1,-9,-40,-34,-24,-12,-10
-5,-3,4,4,-4,-1,-10,-40,-34,-24,-12,-10
-5,-3,4,4,-4,-1,-10,-40,-34,-24,-12,-10
-5,-3,4,4,-4,-1,-10,-40,-34,-24,-13,-10
-5,-3,4,4,-4,-1,-10,-40,-34,-24,-13,-10
-5,-3,4,4,-4,-1,-10,-40,-34,-24,-13,-10
-5,-3,3,4,-4,-1,-10,-40,-34,-24,-13,-10
-5,-3,3,4,-4,-1,-10,-40,-34,-24,-13,-10
-5,-3,3,4,-4,-1,-10,-40,-34,-24,-13,-11
-6,-3,3,4,-4,-1,-10,-40,-34,-24,-13,-11
-6,-3,3,4,-4,-1,-10,-40,-34,-24,-13,-11
-6,-3,3,4,-4,-1,-10,-40,-34,-24,-13,-11
-6,-3,3,4,-4,-1,-10,-40,-34,-24,-13,-11
-6,-3,3,4,-5,-1,-10,-40,-34,-24,-13,-11
-6,-3,3,4,-5,-1,-10,-40,-34,-24,-13,-11
-5,-3,3,4,-5,-1,-10,-40,-34,-24,-13,-11
-5,-3,3,4,-5,-1,-10,-40,-34,-24,-13,-11
-5,-3,4,4,-5,-1,-10,-40,-34,-24,-13,-11
-5,-3,4,4,-5,-1,-10,-40,-34,-24,-13,-11
-5,-3,3,4,-5,-1,-10,-40,-34,-24,-13,-11
-5,-3,3,3,-5,-1,-10,-40,-34,-24,-13,-11
-5,-3,3,3,-5,0,-10,-40,-34,-24,-14,-11
-5,-3,3,4,-5,0,-10,-40,-34,-24,-14,-11
-5,-3,3,4,-5,0,-10,-40,-34,-24,-14,-11
-5,-3,3,4,-5,0,-10,-40,-34,-23,-14,-11
-5,-3,3,4,-5,0,-10,-40,-34,-23,-14,-11
-5,-3,3,4,-4,0,-10,-40,-34,-23,-14,-11
-5,-3,3,3,-4,0,-10,-40,-34,-23,-14,-11
-5,-3,3,3,-4,0,-10,-40,-34,-23,-14,-11
-6,-3,3,4,-5,0,-10,-40,-34,-23,-14,-11
-6,-3,3,4,-5,0,-10,-40,-34,-23,-14,-11
-6,-3,3,4,-5,0,-10,-40,-34,-23,-14,-11
-6,-3,3,4,-5,0,-10,-41,-34,-23,-14,-11
-6,-3,3,4,-5,0,-10,-41,-34,-23,-14,-11
-5,-3,3,4,-4,0,-10,-41,-34,-23,-14,-11
-5,-3,3,4,-4,0,-10,-41,-34,-23,-14,-11
-5,-3,3,4,-4,0,-10,-41,-34,-23,-14,-11
-5,-3,3,4,-4,0,-10,-40,-34,-24,-14,-11
-5,-3,3,4,-4,0,-10,-40,-34,-24,-14,-11
-5,-3,2,4,-4,0,-10,-40,-34,-24,-14,-11
-5,-3,2,4,-4,0,-10,-40,-34,-23,-14,-11
-5,-3,2,4,-4,0,-10,-40,-34,-23,-14,-11
-5,-3,2,4,-4,0,-10,-40,-34,-23,-14,-11
-5,-3,2,4,-4,0,-10,-40,-34,-23,-14,-11
-5,-3,2,4,-4,0,-10,-40,-34,-23,-14,-11
-5,-3,2,4,-4,0,-10,-40,-34,-22,-15,-11
-5,-3,3,4,-4,0,-10,-40,-34,-22,-15,-11
-5,-3,3,4,-4,0,-10,-40,-34,-22,-15,-11
-5,-3,3,4,-4,0,-10,-40,-34,-22,-15,-11
-5,-3,3,4,-4,0,-10,-40,-34,-22,-14,-11
-5,-3,3,4,-4,0,-10,-39,-33,-22,-14,-11
-5,-4,3,4,-4,0,-10,-39,-33,-22,-14,-11
-5,-4,3,4,-4,0,-10,-39,-33,-22,-14,-11
-5,-3,2,4,-4,0,-10,-39,-33,-22,-14,-11
-5,-3,2,4,-4,0,-10,-39,-33,-22,-14,-11
-5,-3,2,4,-4,0,-10,-39,-33,-22,-14,-11
-5,-3,2,4,-4,0,-10,-39,-33,-21,-14,-11
-5,-3,2,4,-4,0,-10,-39,-33,-21,-13,-11
-5,-3,2,4,-4,0,-10,-39,-33,-21,-13,-11
-5,-3,2,4,-4,0,-10,-39,-33,-21,-13,-11
-5,-3,2,4,-4,0,-10,-39,-33,-21,-13,-11
-5,-3,2,4,-4,0,-10,-39,-33,-21,-13,-11
-5,-3,2,4,-4,0,-10,-38,-33,-21,-13,-11
-5,-3,2,4,-4,0,-10,-38,-33,-21,-13,-11
-5,-3,2,4,-4,0,-10,-38,-32,-21,-13,-11
-5,-3,2,4,-4,0,-10,-38,-32,-21,-13,-11
-5,-3,2,4,-4,0,-10,-38,-32,-21,-13,-11
-5,-3,2,4,-4,0,-10,-38,-32,-21,-13,-11
-5,-3,2,4,-4,0,-10,-38,-32,-20,-13,-10
-5,-3,2,4,-4,0,-10,-38,-32,-20,-12,-10
-5,-3,2,4,-4,0,-10,-38,-32,-20,-12,-10
-5,-3,2,4,-4,-1,-10,-38,-32,-20,-12,-10
-5,-3,2,4,-4,-1,-10,-37,-32,-20,-12,-10
-5,-3,1,4,-4,-1,-10,-37,-32,-20,-12,-10
-5,-3,1,4,-4,-1,-10,-37,-32,-20,-12,-10
-5,-3,1,4,-4,-1,-10,-37,-31,-20,-11,-10
-5,-3,1,4,-4,-1,-10,-37,-31,-19,-11,-10
-4,-3,1,4,-4,-1,-10,-37,-31,-19,-11,-10
-4,-3,1,4,-4,-1,-10,-37,-31,-19,-11,-10
-4,-3,1,4,-4,-1,-10,-37,-31,-19,-11,-10
-4,-3,1,4,-4,-1,-10,-37,-31,-19,-11,-10
-4,-3,1,4,-4,-1,-10,-37,-31,-19,-11,-10
-4,-3,1,4,-4,-1,-10,-37,-31,-19,-11,-10
-4,-3,1,4,-4,-1,-10,-37,-31,-19,-11,-10
-4,-3,1,4,-3,-1,-10,-37,-31,-19,-11,-10
-5,-3,1,4,-3,-1,-10,-37,-31,-19,-11,-10
-5,-3,1,4,-3,-1,-10,-37,-31,-19,-11,-9
-4,-3,1,4,-3,-1,-10,-37,-31,-18,-11,-9
-4,-3,1,4,-3,-1,-11,-37,-31,-18,-10,-9
-4,-3,1,4,-3,-1,-11,-37,-31,-18,-10,-9
-4,-4,1,4,-3,-1,-11,-37,-31,-18,-10,-9
-4,-4,1,4,-3,-1,-11,-37,-31,-18,-10,-9
-4,-3,1,4,-3,0,-11,-37,-31,-18,-10,-9
-4,-3,1,4,-3,0,-11,-37,-31,-18,-10,-9
-4,-3,1,4,-3,-1,-10,-37,-31,-18,-10,-9
-4,-3,1,4,-3,-1,-10,-37,-31,-18,-10,-9
-4,-3,1,4,-3,-1,-10,-37,-31,-18,-10,-9
-4,-4,1,4,-3,-1,-10,-37,-31,-18,-10,-9
-4,-4,1,4,-3,-1,-10,-37,-31,-18,-10,-9
-4,-3,1,4,-3,-1,-10,-36,-30,-18,-10,-9
-4,-3,1,3,-3,-1,-10,-36,-30,-18,-10,-9
-4,-3,1,3,-3,-1,-10,-37,-30,-18,-10,-9
-4,-3,0,3,-2,-1,-10,-37,-30,-18,-10,-9
-3,-3,0,3,-2,-1,-10,-37,-30,-18,-10,-9
-3,-3,0,3,-2,-1,-10,-37,-30,-18,-10,-9
-3,-3,0,3,-2,-1,-10,-37,-30,-18,-10,-9
-3,-3,0,3,-2,-1,-10,-37,-30,-18,-10,-9
-4,-3,1,3,-2,-1,-10,-37,-30,-18,-10,-9
-4,-3,1,3,-3,-1,-10,-37,-30,-18,-10,-9
-4,-3,1,3,-3,-1,-10,-37,-30,-18,-10,-9
-4,-3,1,3,-3,-1,-10,-37,-30,-18,-10,-9
-4,-3,1,3,-3,-1,-10,-37,-30,-18,-10,-9
-4,-3,1,3,-3,0,-10,-37,-30,-18,-10,-9
-4,-2,2,3,-3,0,-10,-37,-30,-18,-10,-9
-4,-2,2,3,-3,0,-10,-36,-30,-17,-9,-9
-4,-2,2,3,-3,0,-10,-36,-30,-17,-9,-8
-4,-1,2,3,-3,0,-10,-36,-29,-17,-9,-8
-4,-1,3,2,-3,1,-10,-36,-29,-16,-9,-8
-4,0,3,2,-3,1,-9,-36,-29,-16,-9,-8
-4,0,4,1,-3,2,-9,-35,-28,-15,-9,-7
-3,1,4,1,-4,3,-9,-35,-28,-14,-8,-7
-3,2,5,0,-4,3,-9,-34,-27,-14,-8,-7
-3,2,5,0,-4,4,-9,-35,-27,-14,-8,-7
-3,2,5,0,-4,4,-8,-35,-27,-14,-7,-7
-3,2,5,0,-4,4,-8,-34,-27,-13,-7,-7
-3,2,5,0,-4,5,-7,-35,-27,-13,-7,-7
-3,2,6,0,-5,5,-7,-35,-27,-14,-7,-7
-3,2,6,0,-5,5,-7,-35,-27,-14,-7,-7
-3,2,6,0,-5,5,-7,-35,-27,-14,-7,-7
-3,2,6,0,-5,5,-7,-35,-27,-14,-7,-7
-3,2,6,0,-5,5,-7,-35,-27,-14,-7,-7
-3,3,6,-1,-5,5,-7,-35,-27,-14,-7,-7
-3,3,6,-1,-5,5,-7,-35,-27,-14,-7,-7
-3,3,7,-1,-5,5,-7,-35,-26,-14,-7,-7
-3,4,7,-1,-5,6,-7,-34,-26,-14,-7,-7
-2,5,7,-1,-5,6,-7,-34,-25,-13,-7,-7
-2,6,8,-2,-5,7,-7,-34,-25,-13,-6,-6
-2,7,8,-2,-5,8,-7,-34,-24,-13,-6,-6
-2,7,9,-3,-5,8,-7,-34,-24,-13,-5,-6
-2,8,9,-3,-5,9,-7,-34,-24,-13,-5,-6
-2,8,9,-3,-5,9,-8,-34,-24,-13,-5,-6
-2,8,9,-3,-5,9,-8,-34,-24,-13,-5,-6
-2,8,9,-3,-5,9,-9,-35,-24,-13,-5,-6
-2,7,9,-3,-5,9,-9,-35,-25,-13,-5,-6
-2,7,9,-3,-5,8,-10,-36,-25,-13,-5,-6
-2,7,9,-3,-5,8,-10,-36,-26,-14,-5,-6
-1,7,9,-3,-5,9,-11,-37,-26,-14,-5,-6
-1,7,9,-3,-5,9,-11,-37,-26,-14,-5,-6
-1,7,9,-3,-5,9,-11,-37,-26,-14,-5,-5
-1,8,10,-3,-6,10,-11,-37,-26,-14,-5,-5
-1,9,11,-4,-6,11,-11,-36,-25,-14,-4,-4
-1,10,12,-4,-7,11,-11,-36,-25,-13,-4,-4
-1,10,11,-4,-7,11,-11,-35,-25,-13,-4,-4
-1,10,11,-4,-6,10,-11,-35,-25,-13,-3,-4
-1,9,10,-4,-6,10,-11,-34,-24,-13,-3,-4
-1,8,9,-3,-5,9,-11,-34,-24,-13,-3,-4
-2,6,8,-2,-5,7,-10,-33,-24,-13,-3,-4
-2,5,7,-1,-4,6,-10,-33,-24,-13,-3,-4
-2,3,6,0,-4,5,-10,-34,-25,-14,-4,-4
-2,2,5,0,-3,4,-10,-34,-25,-14,-5,-5
-3,1,4,1,-3,3,-10,-35,-26,-15,-6,-6
-3,0,4,2,-3,2,-11,-36,-28,-16,-7,-7
-4,0,4,2,-4,2,-11,-37,-29,-17,-8,-8
-4,0,4,2,-4,1,-11,-38,-30,-17,-8,-9
-5,-1,3,3,-4,0,-11,-38,-30,-18,-9,-9
-5,-2,3,3,-4,0,-11,-39,-31,-19,-9,-9
-5,-3,2,4,-4,0,-11,-39,-31,-19,-9,-9
-5,-3,2,4,-4,0,-11,-39,-31,-20,-10,-10
-5,-4,2,4,-3,-1,-11,-39,-32,-20,-10,-10
-5,-4,1,5,-3,-1,-11,-39,-32,-20,-11,-10
-5,-5,1,5,-3,-2,-11,-39,-32,-20,-11,-10
-5,-5,1,5,-3,-2,-11,-39,-32,-20,-11,-10
-5,-5,1,5,-3,-2,-11,-39,-32,-20,-11,-10
-5,-5,0,5,-2,-2,-11,-39,-32,-20,-11,-10
-5,-5,0,5,-2,-2,-11,-39,-32,-21,-11,-10
-6,-5,0,5,-3,-2,-11,-39,-32,-21,-11,-11
-6,-5,0,6,-3,-2,-12,-39,-32,-21,-12,-11
-6,-5,0,6,-3,-2,-12,-39,-32,-21,-12,-12
-5,-5,0,5,-2,-3,-11,-39,-32,-21,-12,-12
-5,-5,0,5,-2,-3,-11,-39,-32,-21,-12,-12
-5,-5,0,6,-2,-3,-11,-39,-32,-21,-12,-12
-5,-6,0,6,-2,-3,-11,-39,-32,-21,-12,-12
-5,-6,0,6,-2,-3,-11,-39,-32,-21,-12,-12
-5,-6,0,6,-2,-3,-11,-39,-32,-21,-12,-12
-5,-6,-1,6,-2,-3,-11,-39,-32,-22,-12,-12
-5,-6,-1,6,-2,-3,-11,-40,-32,-22,-12,-12
-5,-6,-1,6,-2,-3,-11,-40,-32,-22,-12,-12
-5,-6,-1,6,-2,-3,-11,-40,-32,-22,-12,-12
-5,-6,-1,6,-2,-3,-11,-40,-32,-22,-12,-12
-5,-6,-1,6,-2,-3,-11,-40,-32,-22,-12,-12
-5,-6,-1,6,-2,-3,-11,-40,-33,-22,-12,-12
-5,-6,0,6,-2,-3,-11,-40,-33,-22,-12,-13
-5,-6,0,6,-2,-3,-11,-40,-33,-22,-12,-13
-5,-6,0,6,-2,-3,-12,-40,-33,-22,-12,-13
-5,-6,0,6,-2,-3,-12,-40,-33,-22,-12,-12
-5,-6,0,6,-2,-3,-12,-41,-33,-22,-13,-12
-5,-6,-1,6,-2,-3,-12,-41,-33,-22,-13,-12
-5,-6,-1,6,-2,-3,-12,-41,-33,-22,-13,-12
-5,-6,-1,6,-2,-3,-12,-41,-33,-22,-13,-12
-5,-6,-1,6,-2,-3,-12,-41,-33,-22,-13,-12
-5,-6,-1,6,-2,-3,-12,-41,-33,-22,-13,-12
-5,-6,-1,6,-2,-3,-12,-41,-33,-22,-13,-12
-5,-6,-1,6,-2,-3,-12,-41,-34,-22,-13,-12
-5,-6,-1,6,-1,-3,-12,-41,-34,-22,-13,-12
-5,-6,-1,6,-1,-4,-13,-41,-34,-22,-13,-12
-5,-6,-1,6,-1,-4,-13,-41,-34,-22,-13,-12
-6,-6,0,6,-2,-4,-13,-42,-34,-22,-13,-12
-6,-6,0,6,-2,-4,-13,-42,-34,-22,-13,-12
-6,-6,0,6,-2,-4,-13,-42,-34,-22,-13,-12
-6,-6,0,6,-3,-3,-13,-44,-35,-23,-13,-12
-7,-5,2,5,-4,-1,-13,-46,-36,-23,-13,-12
-7,-4,4,5,-5,0,-13,-50,-38,-24,-13,-12
-8,-3,5,5,-7,1,-13,-56,-42,-26,-13,-12
-9,-2,7,6,-8,2,-14,-61,-45,-27,-13,-12
-9,-2,7,6,-8,2,-13,-66,-48,-28,-13,-11
-9,-2,7,6,-8,1,-12,-69,-50,-28,-13,-10
-9,-3,6,6,-8,0,-10,-70,-51,-29,-12,-10
-9,-4,5,6,-7,0,-10,-72,-52,-28,-11,-8
-7,-3,4,6,-6,0,-11,-73,-51,-26,-8,-5
-5,-3,3,5,-4,0,-13,-74,-50,-23,-3,-1
-3,-2,1,3,-2,0,-18,-75,-49,-19,1,3
0,0,0,0,0,0,-23,-76,-48,-16,5,7
3,2,0,-2,1,0,-28,-79,-48,-14,9,11
6,5,0,-5,3,2,-34,-82,-48,-12,12,15
9,10,1,-9,3,6,-41,-86,-48,-10,15,20
11,14,2,-13,4,8,-48,-89,-49,-10,17,23
14,15,0,-15,7,8,-54,-90,-50,-11,16,24
16,14,-3,-15,10,5,-58,-90,-53,-14,14,22
18,11,-8,-15,14,2,-61,-91,-58,-19,9,18
20,7,-12,-13,17,-2,-64,-92,-63,-26,3,12
20,3,-16,-11,18,-6,-66,-94,-70,-37,-7,3
17,0,-18,-8,18,-9,-67,-95,-76,-47,-18,-7
13,-5,-18,-4,16,-11,-67,-95,-79,-55,-28,-18
9,-8,-18,0,14,-13,-67,-92,-79,-60,-36,-26
4,-10,-15,3,10,-13,-66,-86,-75,-62,-41,-32
-1,-11,-11,7,5,-11,-62,-78,-69,-60,-44,-37
-7,-12,-5,10,0,-9,-56,-68,-61,-57,-45,-41
-10,-12,-1,11,-4,-7,-50,-57,-53,-53,-45,-42
-12,-11,1,12,-6,-5,-44,-47,-45,-47,-43,-41
-12,-9,4,11,-8,-3,-39,-38,-37,-41,-40,-39
-12,-7,6,10,-9,-1,-35,-30,-29,-35,-36,-37
-12,-5,6,9,-9,0,-31,-23,-22,-30,-33,-34
-11,-3,6,8,-8,1,-27,-15,-16,-25,-29,-32
-10,-2,6,7,-8,1,-23,-8,-10,-21,-26,-30
-9,-2,6,6,-8,2,-19,-2,-4,-16,-23,-27
-8,-1,7,5,-7,2,-14,4,1,-12,-20,-24
-7,0,7,4,-7,3,-9,10,6,-7,-16,-21
-6,0,7,3,-6,3,-5,17,11,-3,-13,-19
-5,0,5,3,-5,2,-1,23,17,1,-10,-17
-4,0,4,3,-4,1,1,28,21,5,-8,-15
-4,0,3,3,-3,1,3,31,24,7,-7,-14
-3,0,2,3,-3,0,4,33,26,9,-6,-13
-3,-1,1,3,-2,0,5,34,27,9,-5,-12
-3,-2,0,3,-1,-1,7,35,27,10,-4,-11
-3,-4,-1,3,0,-3,9,37,28,11,-3,-11
-2,-5,-3,4,0,-4,10,39,29,12,-3,-11
-2,-7,-5,4,2,-6,12,41,31,13,-2,-10
-1,-8,-7,5,3,-7,13,44,32,15,-2,-10
-1,-9,-8,5,4,-8,13,46,34,16,-2,-10
-1,-9,-9,5,4,-9,14,47,35,16,-1,-10
0,-10,-10,5,5,-10,14,48,35,17,-1,-9
0,-11,-11,5,5,-11,15,49,36,17,0,-9
0,-12,-11,6,6,-12,16,50,37,18,1,-8
0,-13,-12,6,6,-13,17,51,38,19,2,-8
0,-14,-13,7,7,-14,18,52,39,20,2,-7
1,-14,-15,7,7,-15,19,54,40,21,2,-7
1,-14,-16,7,8,-15,19,56,42,22,3,-7
1,-14,-16,7,8,-15,19,57,43,22,3,-7
1,-14,-16,7,8,-15,19,58,43,23,3,-6
1,-14,-16,7,8,-15,19,58,43,23,3,-6
1,-14,-16,7,8,-16,20,58,43,23,4,-6
1,-14,-16,7,9,-16,20,59,44,23,4,-6
2,-14,-16,7,9,-16,21,60,44,24,4,-6
2,-14,-16,6,9,-16,21,61,45,25,4,-6
2,-14,-17,6,10,-16,21,62,47,26,4,-6
2,-14,-17,6,10,-16,21,63,48,27,4,-6
2,-14,-17,6,10,-16,22,64,48,27,4,-6
2,-14,-17,6,10,-16,22,64,49,28,5,-5
2,-14,-17,6,10,-16,23,65,49,29,5,-5
3,-14,-17,6,11,-16,23,66,50,30,6,-4
3,-14,-17,6,11,-16,24,67,51,31,6,-4
3,-14,-17,6,11,-16,24,69,52,32,7,-4
3,-14,-18,6,11,-16,24,70,53,33,7,-4
3,-14,-18,6,11,-16,25,72,54,34,8,-3
4,-14,-18,5,11,-16,25,73,55,34,8,-3
4,-14,-19,5,12,-17,25,74,56,35,8,-2
4,-15,-19,6,12,-17,26,75,57,36,9,-2
4,-15,-20,6,13,-18,26,76,58,37,9,-1
5,-15,-20,6,13,-18,27,77,59,38,10,0
5,-15,-20,6,13,-18,27,79,60,39,11,0
5,-15,-20,5,13,-18,28,81,62,39,11,0
6,-15,-21,5,14,-18,28,82,63,40,12,0
6,-15,-21,4,14,-18,29,84,64,40,12,0
7,-14,-22,4,15,-18,29,85,65,41,13,1
7,-14,-21,3,15,-18,29,86,66,42,13,1
7,-14,-21,3,15,-17,30,87,67,43,14,1
8,-14,-21,3,14,-17,30,88,68,44,14,1
8,-13,-21,3,14,-17,30,90,69,45,15,1
9,-13,-21,3,15,-17,30,91,70,46,15,2
9,-12,-21,2,15,-17,30,93,71,47,16,3
10,-12,-22,1,15,-17,31,95,73,48,17,4
10,-13,-22,1,16,-18,31,96,74,49,18,5
10,-13,-23,1,17,-18,31,97,75,50,19,6
11,-13,-23,1,17,-18,31,98,76,51,20,6
11,-13,-23,1,17,-18,31,99,77,52,20,7
11,-13,-23,1,17,-17,31,101,78,53,21,8
11,-13,-24,1,18,-17,32,102,79,55,22,9
11,-13,-24,1,18,-18,32,104,81,56,23,9
11,-13,-24,1,18,-18,33,105,82,56,23,10
12,-12,-24,0,18,-18,33,106,83,57,24,10
12,-12,-23,0,18,-17,33,106,84,58,24,11
13,-11,-23,-1,18,-16,34,107,84,58,24,11
13,-10,-23,-1,18,-15,34,107,84,59,24,12
13,-9,-22,-1,18,-15,34,108,85,59,24,12
13,-9,-22,-1,17,-14,34,109,85,60,25,13
13,-8,-21,-2,17,-14,34,110,86,61,25,13
14,-7,-21,-2,17,-14,35,111,88,61,26,14
14,-7,-21,-2,17,-14,35,111,89,62,27,14
14,-7,-21,-3,18,-14,35,112,90,62,28,15
15,-6,-22,-3,18,-14,36,112,90,63,29,16
15,-6,-22,-4,18,-14,36,112,91,64,29,16
15,-6,-22,-4,18,-13,36,112,91,64,30,17
15,-6,-21,-4,18,-12,36,113,91,65,31,18
16,-5,-20,-5,18,-12,36,113,92,65,32,19
16,-4,-20,-5,18,-11,36,113,92,66,33,20
16,-3,-19,-5,18,-11,36,113,93,66,34,21
16,-2,-19,-6,18,-10,36,113,93,67,35,22
16,-2,-18,-6,17,-10,36,113,93,67,35,23
16,-1,-18,-7,17,-9,36,113,93,67,36,23
17,-1,-17,-7,17,-9,36,112,93,68,36,24
17,0,-17,-8,16,-8,36,112,93,68,37,24
17,1,-16,-8,16,-7,36,111,93,69,37,25
18,2,-15,-9,16,-6,36,111,93,69,38,26
18,3,-14,-9,16,-5,35,110,93,69,39,27
18,4,-13,-10,16,-4,35,109,92,69,39,28
18,5,-12,-11,15,-3,34,108,91,69,40,29
17,6,-11,-11,15,-2,33,106,90,69,40,29
17,6,-11,-12,14,-2,33,105,89,68,40,29
18,7,-10,-12,14,-1,33,104,89,68,41,30
19,8,-10,-13,14,-1,32,103,88,68,41,31
18,8,-10,-13,14,0,32,101,88,67,41,31
18,9,-9,-13,13,0,31,100,87,67,41,32
18,10,-8,-13,13,1,31,98,85,66,41,32
18,11,-7,-14,13,2,30,95,84,66,41,32
18,11,-6,-14,12,3,29,93,83,65,42,33
18,12,-6,-14,12,3,28,91,82,65,42,33
18,12,-6,-14,12,3,28,89,80,65,42,34
19,13,-5,-15,12,3,27,87,79,64,42,34
18,13,-5,-15,12,4,27,84,77,62,41,34
18,14,-4,-16,11,5,26,82,75,61,40,33
18,15,-3,-16,11,6,25,79,73,60,40,33
18,15,-2,-16,10,7,23,76,71,59,40,33
17,16,0,-16,9,8,22,73,69,57,40,33
17,17,0,-16,8,9,21,70,67,56,39,33
17,17,1,-16,8,9,21,67,65,55,39,33
17,18,1,-16,7,9,20,65,63,54,39,33
16,18,1,-16,7,10,18,62,60,52,39,34
16,18,2,-16,6,10,17,59,58,50,38,34
15,18,3,-16,6,11,16,55,55,48,37,33
15,18,3,-16,5,11,15,52,52,45,36,33
15,18,3,-16,5,11,14,48,49,43,34,32
15,18,4,-16,5,12,14,45,47,41,33,31
14,18,4,-16,4,12,13,41,44,39,32,29
14,18,5,-16,4,12,12,38,41,37,30,28
13,19,6,-16,3,13,11,34,37,34,29,27
13,19,7,-16,3,13,10,30,35,32,27,26
12,19,8,-15,2,14,8,27,32,29,26,25
11,19,8,-15,1,14,7,23,29,26,24,24
11,19,8,-14,1,14,6,19,25,24,22,22
10,18,8,-13,0,14,5,16,22,21,20,21
9,18,9,-13,0,14,5,12,19,19,18,19
8,18,9,-13,-1,14,4,9,16,17,16,17
8,17,9,-12,-1,13,3,6,13,14,13,15
7,16,9,-11,-1,13,2,4,10,12,11,13
6,15,9,-11,-1,12,2,1,7,9,9,12
5,14,9,-10,-1,12,1,-2,5,7,7,10
4,14,9,-9,-2,12,1,-5,2,4,6,9
4,13,9,-8,-2,11,0,-7,0,2,5,8
4,12,8,-7,-1,10,0,-10,-2,1,4,7
3,11,8,-6,-2,10,-1,-12,-4,0,2,6
2,10,8,-5,-3,9,-1,-15,-7,-2,1,5
1,9,8,-5,-3,9,-2,-17,-9,-4,0,4
0,8,7,-4,-3,8,-2,-19,-12,-6,-2,3
0,7,7,-3,-3,7,-3,-21,-14,-7,-4,2
0,6,7,-2,-3,7,-4,-23,-15,-9,-6,0
0,6,7,-2,-3,7,-5,-25,-17,-10,-7,-1
0,6,7,-2,-3,7,-6,-27,-19,-12,-9,-2
0,6,7,-2,-4,7,-7,-29,-20,-13,-10,-3
-1,5,6,-2,-4,6,-7,-30,-22,-14,-11,-4
-2,4,6,-1,-4,6,-7,-32,-23,-15,-13,-6
-3,3,6,0,-4,5,-7,-33,-25,-17,-15,-7
-3,3,6,0,-4,5,-8,-34,-25,-18,-15,-8
-3,4,7,0,-4,5,-9,-35,-27,-19,-16,-9
-3,4,7,0,-5,6,-10,-37,-28,-20,-16,-9
-4,4,8,0,-6,6,-10,-38,-29,-21,-17,-10
-4,3,7,1,-6,5,-10,-39,-31,-22,-18,-10
-4,3,7,1,-6,5,-10,-40,-32,-23,-19,-11
-4,3,7,1,-5,5,-10,-41,-32,-23,-20,-12
-4,2,7,1,-5,5,-10,-41,-33,-24,-21,-12
-4,2,6,1,-5,5,-11,-41,-33,-24,-21,-12
-4,1,6,2,-5,4,-11,-42,-33,-25,-21,-13
-5,1,6,2,-6,4,-11,-43,-34,-25,-22,-13
-6,0,6,2,-6,4,-11,-43,-35,-26,-22,-13
-6,0,5,3,-6,3,-11,-44,-36,-27,-22,-13
-6,-1,5,3,-6,3,-11,-44,-36,-27,-22,-12
-6,-1,5,3,-6,3,-12,-45,-37,-27,-22,-12
-6,-1,6,3,-6,3,-12,-46,-37,-28,-22,-12
-7,-1,7,4,-6,3,-11,-47,-37,-28,-23,-13
-7,-1,7,4,-6,3,-11,-48,-38,-29,-24,-14
-6,-1,6,4,-6,2,-11,-50,-40,-31,-25,-15
-6,-1,5,4,-6,2,-11,-52,-41,-33,-26,-17
-7,-2,5,5,-6,2,-11,-54,-43,-34,-27,-18
-8,-2,6,5,-7,2,-11,-58,-44,-35,-28,-19
-9,-1,8,5,-8,3,-11,-61,-46,-36,-29,-20
-10,-1,10,5,-10,4,-12,-65,-47,-37,-30,-21
-10,0,11,5,-10,5,-12,-68,-48,-37,-31,-21
-10,0,11,5,-11,6,-12,-70,-48,-38,-31,-20
-11,0,12,6,-11,6,-13,-73,-49,-38,-31,-20
-11,1,12,6,-12,6,-14,-76,-50,-39,-31,-20
-11,2,12,5,-12,6,-16,-80,-51,-39,-31,-20
-11,2,13,5,-12,7,-18,-83,-53,-40,-31,-20
-11,2,13,5,-12,7,-20,-86,-53,-40,-31,-19
-12,2,14,5,-13,7,-21,-87,-54,-40,-31,-19
-12,1,14,6,-13,7,-22,-88,-54,-40,-32,-19
-12,1,14,5,-13,7,-24,-89,-54,-40,-32,-19
-11,2,14,5,-13,8,-26,-90,-54,-40,-32,-19
-11,3,14,5,-13,8,-29,-92,-54,-40,-32,-19
-11,3,14,5,-13,8,-31,-94,-55,-41,-32,-18
-11,3,14,4,-12,8,-34,-98,-57,-42,-33,-18
-10,3,14,4,-12,8,-38,-103,-59,-44,-34,-19
-11,3,15,4,-13,9,-43,-109,-63,-47,-36,-20
-11,4,15,4,-13,10,-47,-115,-68,-50,-38,-22
-11,5,17,3,-14,11,-51,-122,-72,-53,-39,-23
-12,8,20,2,-16,14,-55,-129,-76,-55,-40,-23
-12,11,23,1,-17,17,-60,-135,-78,-56,-39,-23
-12,15,27,-1,-19,20,-64,-140,-79,-55,-37,-21
-11,20,32,-4,-21,25,-69,-142,-78,-52,-34,-18
-10,26,37,-7,-23,31,-74,-144,-76,-49,-30,-13
-9,32,41,-11,-24,36,-79,-144,-73,-44,-25,-8
-6,37,43,-15,-25,40,-84,-142,-70,-39,-19,-2
-3,42,45,-19,-24,43,-88,-139,-65,-33,-13,3
0,47,48,-23,-24,48,-92,-135,-60,-27,-8,9
2,53,51,-27,-24,52,-96,-130,-54,-21,-2,14
6,57,52,-31,-23,55,-100,-124,-46,-14,4,21
10,61,52,-35,-21,57,-103,-116,-38,-5,12,29
15,65,51,-39,-18,58,-107,-107,-28,4,21,38
19,68,50,-43,-15,59,-109,-98,-19,14,30,46
22,70,49,-45,-13,59,-110,-89,-11,22,38,54
24,70,46,-46,-10,58,-110,-81,-5,28,44,60
27,69,43,-47,-7,56,-108,-74,0,34,50,65
30,69,40,-48,-5,55,-106,-67,5,40,56,71
32,69,37,-49,-2,54,-103,-60,10,45,61,75
35,69,34,-50,1,52,-100,-53,16,49,65,79
38,67,29,-51,5,48,-97,-44,22,54,68,82
40,64,24,-51,8,44,-94,-35,28,58,72,85
42,61,19,-51,12,39,-91,-27,33,62,74,87
44,57,13,-50,15,35,-87,-20,38,66,76,89
45,53,7,-49,19,30,-82,-13,41,68,78,90
46,47,0,-46,22,24,-78,-8,44,69,77,89
46,41,-5,-43,26,18,-73,-3,46,69,75,86
46,35,-11,-39,28,12,-69,2,48,69,74,84
46,29,-15,-36,30,7,-66,5,49,69,72,82
45,24,-19,-34,32,3,-64,7,49,67,70,80
44,20,-22,-31,33,-1,-61,8,48,66,68,78
43,16,-26,-29,34,-5,-58,10,48,65,66,76
42,11,-29,-26,35,-9,-55,11,49,64,65,74
41,8,-32,-25,36,-11,-52,13,49,64,63,73
41,7,-34,-23,37,-12,-49,14,50,64,62,72
40,6,-34,-22,37,-13,-47,16,51,64,62,71
40,5,-34,-22,37,-14,-45,18,52,64,61,69
39,4,-34,-21,37,-14,-43,20,52,63,58,67
38,3,-34,-20,36,-15,-40,22,52,61,54,63
36,2,-34,-18,35,-15,-36,25,51,58,50,57
35,0,-34,-17,34,-16,-31,30,52,56,46,52
33,0,-33,-16,33,-16,-26,37,55,56,43,49
32,0,-32,-15,32,-16,-21,45,60,57,42,47
30,-2,-31,-13,30,-16,-15,53,64,58,41,44
27,-3,-30,-11,28,-16,-9,61,68,58,38,40
24,-5,-28,-9,26,-16,-3,68,71,56,34,35
21,-6,-26,-6,24,-16,3,73,72,53,28,29
16,-8,-24,-3,21,-16,8,76,71,47,21,21
12,-9,-22,0,18,-16,12,77,68,40,13,13
10,-11,-21,1,15,-16,16,77,64,34,7,7
8,-12,-19,2,14,-15,18,77,60,29,3,3
6,-13,-18,3,13,-15,19,77,58,25,0,0
5,-14,-18,4,12,-16,21,77,57,23,-3,-2
5,-14,-19,5,12,-16,22,78,56,21,-4,-4
4,-15,-19,6,12,-17,24,79,56,21,-5,-5
4,-16,-19,6,12,-17,25,80,56,21,-6,-6
3,-16,-19,7,11,-18,26,81,56,20,-7,-7
2,-17,-19,7,11,-18,27,80,55,19,-8,-8
2,-17,-20,8,11,-18,28,79,54,17,-10,-9
1,-18,-20,9,10,-19,28,76,52,15,-11,-10
0,-18,-19,9,9,-18,29,74,49,13,-13,-12
0,-17,-17,10,8,-17,30,71,47,11,-15,-13
-1,-17,-16,10,7,-17,32,69,45,9,-16,-14
-1,-18,-16,10,7,-17,33,68,43,7,-18,-15
-1,-18,-16,10,7,-17,34,67,42,6,-19,-16
-2,-18,-16,11,7,-17,35,67,41,5,-20,-16
-2,-19,-16,11,6,-17,35,66,41,5,-20,-16
-2,-19,-16,11,6,-18,36,66,41,4,-20,-16
-2,-20,-16,12,6,-18,37,65,40,4,-20,-16
-3,-20,-16,12,6,-18,38,64,39,3,-20,-16
-3,-19,-15,12,6,-17,38,63,38,3,-20,-16
-3,-19,-15,12,6,-17,39,64,38,3,-20,-16
-3,-19,-15,11,6,-17,40,64,38,3,-20,-17
-3,-19,-15,11,6,-17,40,65,38,3,-21,-17
-3,-18,-15,11,6,-17,41,65,38,3,-22,-18
-3,-18,-15,11,6,-17,41,65,37,2,-22,-18
-3,-18,-15,11,6,-17,42,65,37,2,-23,-18
-3,-18,-15,11,6,-17,43,66,37,2,-23,-17
-3,-18,-15,11,6,-17,44,66,37,2,-22,-17
-3,-19,-15,11,6,-17,45,67,37,2,-22,-17
-3,-19,-15,12,6,-17,46,68,37,2,-22,-17
-3,-20,-16,12,6,-18,47,68,37,2,-22,-16
-3,-20,-16,12,7,-18,47,69,37,3,-22,-16
-2,-19,-16,12,7,-18,48,70,37,3,-22,-15
-2,-19,-16,11,7,-18,48,71,37,3,-22,-15
-2,-19,-16,11,7,-17,49,71,37,3,-22,-16
-2,-19,-16,11,7,-17,50,72,37,4,-23,-16
-2,-19,-16,11,7,-17,51,73,37,4,-23,-16
-2,-19,-16,11,7,-17,52,73,37,5,-22,-16
-2,-19,-16,11,7,-17,53,74,37,5,-22,-16
-2,-19,-16,11,7,-17,54,74,37,5,-23,-17
-3,-19,-16,11,7,-17,55,75,37,4,-23,-17
-3,-19,-16,11,7,-18,55,75,36,4,-23,-18
-3,-20,-17,11,7,-18,56,76,36,4,-23,-18
-3,-20,-17,11,7,-18,56,76,36,4,-23,-18
-3,-20,-16,12,6,-18,57,76,35,4,-24,-19
-4,-19,-15,12,6,-17,57,76,35,3,-24,-19
-3,-19,-15,12,6,-17,57,76,34,3,-24,-19
-3,-19,-15,11,6,-17,58,76,34,3,-24,-19
-3,-19,-16,12,6,-18,59,77,35,4,-24,-19
-3,-20,-16,12,6,-18,60,77,35,4,-23,-19
-4,-20,-16,12,6,-18,61,77,35,4,-23,-19
-4,-20,-15,12,6,-18,61,77,35,4,-23,-19
-4,-20,-15,12,6,-17,62,77,35,3,-23,-20
-5,-19,-14,12,5,-16,62,76,35,3,-23,-20
-5,-18,-12,12,4,-15,62,76,35,3,-23,-19
-5,-17,-11,12,3,-14,62,75,34,3,-23,-19
-6,-16,-10,12,2,-14,62,74,34,2,-24,-19
-6,-16,-10,12,2,-13,62,73,33,2,-23,-19
-6,-16,-10,12,2,-13,62,73,33,3,-23,-19
-6,-16,-10,12,2,-13,62,72,33,3,-23,-19
-6,-16,-10,12,1,-13,62,72,33,3,-23,-18
-6,-16,-10,12,1,-13,62,71,33,3,-23,-18
-6,-16,-10,11,2,-13,62,70,32,3,-23,-18
-6,-15,-9,11,1,-12,61,69,31,3,-23,-18
-7,-15,-8,11,0,-11,61,66,31,3,-24,-18
-7,-13,-6,10,0,-9,60,64,30,2,-24,-19
-7,-12,-5,10,0,-8,60,63,28,1,-24,-19
-7,-12,-4,10,-1,-8,59,61,27,0,-25,-20
-8,-12,-4,10,-1,-7,58,60,26,0,-26,-20
-8,-11,-3,10,-2,-6,57,58,26,0,-26,-20
-8,-10,-1,9,-3,-5,55,56,25,0,-25,-19
-8,-9,0,9,-4,-4,54,54,24,0,-25,-19
-8,-8,0,8,-4,-3,53,51,23,-1,-25,-19
-8,-7,2,8,-5,-2,52,48,22,-1,-25,-18
-9,-6,3,8,-6,-1,50,45,21,-1,-24,-17
-10,-5,5,7,-7,0,49,42,20,-1,-24,-17
-10,-4,6,7,-8,2,47,40,18,-2,-24,-17
-10,-2,7,6,-8,3,45,37,17,-3,-24,-17
-10,-1,8,6,-9,4,43,35,16,-4,-24,-17
-10,-1,9,5,-9,4,41,32,14,-5,-24,-17
-10,0,10,5,-10,5,39,28,12,-6,-25,-17
-10,0,11,5,-11,6,38,25,10,-8,-26,-18
-10,1,12,4,-12,7,36,22,8,-8,-26,-17
-9,3,13,3,-12,8,33,19,7,-8,-25,-16
-9,4,14,3,-12,10,31,16,6,-8,-24,-14
-9,5,15,2,-13,11,29,14,5,-8,-23,-13
-9,7,16,0,-13,13,26,11,4,-8,-22,-12
-8,9,17,0,-13,13,24,9,2,-8,-21,-11
-8,9,17,0,-13,14,21,6,1,-8,-21,-11
-8,10,18,0,-13,14,19,3,0,-8,-20,-10
-7,10,18,-1,-13,14,18,0,-2,-9,-19,-9
-7,10,19,-1,-13,15,16,-3,-4,-10,-19,-8
-7,11,19,-1,-13,15,14,-5,-5,-11,-19,-8
-7,11,19,-2,-13,16,12,-7,-6,-11,-19,-8
-7,11,19,-2,-13,16,10,-9,-8,-12,-19,-8
-6,12,19,-2,-13,16,8,-11,-9,-13,-19,-8
-6,12,19,-2,-13,16,6,-14,-11,-14,-19,-8
-6,13,20,-2,-13,16,4,-16,-13,-14,-20,-8
-6,13,20,-3,-13,17,2,-18,-14,-15,-20,-7
-6,14,20,-4,-13,17,1,-20,-14,-15,-19,-6
-5,15,20,-4,-13,17,0,-22,-15,-15,-18,-5
-5,14,19,-4,-12,17,-1,-23,-15,-14,-17,-4
-4,13,18,-4,-11,16,-2,-23,-16,-14,-16,-3
-4,12,16,-3,-10,14,-4,-24,-16,-13,-15,-3
-4,12,16,-3,-10,14,-5,-25,-18,-14,-15,-3
-4,12,16,-4,-10,14,-6,-27,-19,-15,-16,-3
-4,12,16,-4,-10,14,-7,-29,-21,-16,-17,-4
-4,12,16,-4,-9,14,-7,-30,-22,-17,-18,-4
-4,11,16,-3,-9,14,-8,-31,-23,-19,-18,-4
-4,11,16,-3,-9,13,-8,-31,-24,-20,-18,-4
-3,10,15,-3,-9,12,-9,-32,-24,-20,-18,-4
-3,9,13,-2,-8,11,-9,-32,-24,-20,-17,-3
-3,8,11,-2,-7,9,-10,-32,-24,-20,-16,-3
-3,7,10,-2,-7,8,-10,-33,-25,-20,-16,-3
-3,6,9,-1,-6,7,-10,-34,-26,-20,-16,-3
-3,5,9,-1,-6,7,-11,-35,-27,-21,-17,-3
-3,5,8,0,-6,6,-11,-35,-27,-21,-17,-3
-3,5,8,0,-6,6,-12,-36,-28,-22,-18,-4
-3,5,9,0,-6,7,-12,-36,-28,-22,-18,-5
-3,5,9,0,-6,7,-12,-37,-29,-22,-19,-5
-3,5,9,0,-6,7,-12,-37,-29,-22,-19,-6
-3,4,8,0,-6,7,-12,-37,-30,-23,-19,-6
-4,3,8,1,-6,6,-12,-38,-31,-23,-20,-6
-4,2,7,1,-5,5,-12,-38,-32,-23,-20,-6
-3,2,7,1,-5,4,-12,-38,-32,-24,-20,-6
-3,2,7,1,-5,5,-12,-38,-32,-24,-20,-6
-3,2,7,1,-5,5,-12,-38,-33,-25,-21,-6
-3,2,7,1,-5,5,-12,-39,-34,-27,-22,-7
-3,2,7,1,-6,5,-12,-39,-34,-27,-22,-8
-3,2,7,1,-6,5,-12,-39,-35,-27,-22,-8
-3,1,6,1,-6,4,-11,-39,-34,-27,-22,-7
-4,0,5,2,-5,3,-11,-39,-34,-26,-21,-7
-4,0,5,3,-5,3,-12,-39,-34,-26,-22,-8
-5,0,6,3,-6,3,-12,-39,-34,-26,-23,-9
-5,1,7,3,-7,4,-12,-40,-34,-27,-24,-10
-5,1,8,3,-7,5,-12,-40,-34,-27,-25,-11
-5,2,8,2,-7,5,-12,-40,-34,-28,-25,-12
-5,2,8,2,-7,6,-12,-40,-35,-28,-25,-12
-5,2,9,2,-7,6,-12,-40,-35,-29,-26,-12
-5,2,8,2,-7,5,-12,-41,-36,-29,-26,-11
-5,1,8,2,-7,5,-12,-41,-36,-29,-25,-10
-5,1,7,2,-7,4,-12,-41,-36,-28,-25,-9
-5,1,7,2,-7,4,-12,-41,-35,-28,-25,-9
-5,0,7,3,-6,4,-11,-40,-35,-28,-24,-9
-5,0,6,4,-6,3,-11,-40,-34,-28,-24,-9
-6,-1,5,4,-6,3,-11,-40,-35,-28,-24,-9
-6,0,6,4,-6,3,-12,-41,-35,-28,-24,-9
-6,0,7,4,-7,4,-12,-41,-35,-28,-24,-9
-5,0,7,3,-7,4,-12,-41,-35,-28,-24,-9
-5,0,7,3,-6,4,-12,-41,-35,-28,-24,-9
-5,0,6,3,-6,4,-12,-41,-35,-28,-24,-9
-5,0,6,3,-6,4,-12,-41,-35,-28,-24,-9
-5,0,6,3,-6,4,-12,-41,-35,-28,-24,-10
-6,0,6,4,-6,4,-12,-41,-35,-28,-25,-11
-6,0,7,4,-7,4,-12,-41,-35,-28,-25,-11
-6,1,8,3,-7,5,-13,-42,-36,-29,-25,-11
-5,2,8,2,-7,5,-13,-42,-36,-28,-25,-11
-6,2,9,2,-8,5,-12,-42,-36,-28,-24,-10
-6,1,8,3,-8,5,-12,-41,-36,-28,-24,-9
-6,0,7,3,-7,4,-11,-41,-36,-28,-24,-9
-6,0,6,3,-6,3,-11,-41,-35,-27,-23,-8
-6,0,6,3,-6,3,-11,-41,-35,-27,-23,-8
-6,0,6,3,-6,3,-11,-41,-35,-26,-23,-8
-6,0,6,3,-6,3,-11,-41,-35,-26,-23,-8
-6,-1,5,3,-6,2,-10,-41,-35,-27,-23,-9
-6,-1,5,4,-6,2,-10,-41,-35,-27,-24,-9
-6,0,6,3,-7,3,-11,-42,-35,-27,-24,-9
-5,2,7,2,-7,4,-12,-42,-35,-27,-23,-9
-5,3,9,2,-8,6,-13,-42,-36,-27,-23,-9
-5,4,10,1,-8,7,-13,-42,-36,-27,-23,-9
-5,4,10,1,-8,7,-12,-42,-36,-27,-23,-9
-6,3,9,2,-8,6,-11,-42,-35,-27,-23,-9
-6,2,8,2,-8,5,-11,-41,-35,-27,-23,-9
-6,1,8,3,-8,4,-11,-41,-36,-28,-23,-10
-6,1,8,3,-8,4,-11,-41,-36,-28,-24,-10
-7,1,8,3,-8,4,-11,-41,-36,-28,-24,-10
-7,0,7,3,-7,4,-11,-41,-36,-28,-24,-10
-6,0,6,3,-7,3,-11,-40,-35,-28,-24,-10
-6,0,6,3,-6,3,-11,-40,-35,-27,-23,-9
-6,0,6,3,-6,3,-11,-41,-35,-27,-23,-9
-6,1,7,3,-7,3,-12,-41,-35,-27,-22,-8
-6,0,7,3,-7,3,-12,-41,-35,-27,-22,-8
-6,0,7,3,-7,3,-12,-41,-34,-26,-21,-7
-6,0,7,3,-7,4,-12,-41,-34,-25,-21,-6
-6,1,8,3,-7,5,-12,-41,-35,-26,-21,-7
-6,1,8,3,-8,5,-13,-42,-36,-27,-22,-8
-6,2,9,3,-8,6,-13,-42,-37,-28,-23,-9
-6,3,9,2,-8,6,-13,-42,-37,-28,-24,-9
-6,2,9,2,-8,6,-12,-41,-37,-28,-24,-10
-6,1,8,3,-8,5,-12,-41,-36,-28,-24,-10
-6,1,8,3,-7,4,-12,-41,-36,-27,-24,-10
-6,1,8,2,-7,4,-13,-41,-36,-27,-23,-10
-6,2,8,2,-8,5,-13,-41,-35,-27,-23,-10
-6,1,8,3,-7,4,-13,-40,-35,-27,-23,-10
-6,1,7,3,-7,4,-12,-40,-35,-27,-23,-10
-6,0,6,4,-7,3,-11,-40,-35,-27,-23,-9
-6,0,6,4,-7,3,-12,-40,-35,-27,-22,-8
-6,1,7,3,-7,4,-12,-41,-35,-27,-22,-7
-6,2,7,2,-7,4,-13,-41,-35,-26,-21,-6
-6,3,8,2,-8,5,-13,-41,-35,-26,-21,-6
-6,3,9,2,-8,5,-13,-41,-35,-26,-21,-6
-6,2,9,2,-8,5,-13,-41,-35,-26,-21,-6
-6,2,9,2,-8,5,-12,-41,-35,-26,-21,-6
-6,3,9,2,-8,6,-12,-41,-35,-26,-22,-7
-6,3,10,2,-8,6,-12,-40,-35,-26,-22,-7
-6,2,9,2,-8,6,-12,-40,-35,-27,-22,-8
-6,2,9,2,-8,5,-12,-40,-35,-27,-22,-8
-6,1,8,2,-8,5,-11,-40,-35,-27,-22,-8
-6,1,8,3,-8,4,-11,-39,-34,-26,-22,-8
-6,0,7,3,-7,4,-11,-39,-33,-26,-21,-7
-6,0,7,3,-7,3,-12,-38,-33,-25,-21,-6
-5,0,6,3,-6,2,-12,-38,-33,-25,-20,-5
-5,0,5,3,-6,2,-12,-38,-33,-25,-20,-5
-6,0,6,3,-6,2,-12,-38,-33,-25,-21,-5
-6,1,7,3,-7,3,-12,-38,-33,-25,-21,-6
-6,2,8,2,-8,5,-12,-38,-33,-25,-22,-6
-6,3,10,2,-9,6,-12,-38,-33,-26,-22,-7
-6,3,10,2,-9,6,-12,-38,-34,-26,-23,-7
-7,3,9,2,-9,6,-12,-38,-34,-26,-23,-7
-7,2,9,3,-9,5,-12,-38,-34,-26,-23,-7
-7,1,8,3,-8,5,-12,-39,-34,-26,-23,-7
-6,2,8,2,-8,5,-12,-39,-33,-26,-23,-7
-6,2,8,2,-8,5,-12,-38,-33,-25,-22,-6
-6,1,8,3,-7,4,-11,-37,-32,-25,-22,-5
-6,1,7,3,-7,4,-11,-37,-32,-25,-22,-6
-6,1,8,3,-7,4,-11,-37,-32,-25,-22,-6
-6,2,8,2,-8,5,-11,-37,-32,-25,-21,-6
-6,2,8,2,-8,4,-12,-37,-32,-24,-21,-6
-6,1,8,3,-8,4,-12,-37,-32,-24,-20,-5
-7,0,7,4,-8,3,-12,-37,-32,-25,-20,-5
-8,-1,7,5,-8,2,-12,-37,-33,-25,-21,-6
-8,-1,7,4,-8,3,-12,-37,-32,-26,-21,-6
-7,0,8,3,-8,4,-12,-37,-32,-26,-21,-6
-6,2,8,2,-8,5,-12,-37,-32,-26,-22,-6
-6,2,9,2,-8,6,-12,-37,-32,-26,-22,-7
-7,2,9,2,-8,6,-12,-37,-32,-26,-22,-7
-6,2,9,2,-8,5,-12,-37,-31,-26,-22,-6
-6,1,8,2,-7,5,-12,-37,-31,-25,-21,-5
-5,1,7,2,-6,4,-12,-36,-31,-25,-20,-4
-5,0,7,2,-6,4,-12,-37,-31,-24,-20,-4
-6,0,7,2,-6,4,-12,-37,-31,-24,-20,-4
-6,1,7,2,-7,4,-12,-37,-31,-24,-21,-4
-6,1,8,2,-7,5,-12,-37,-31,-24,-21,-5
-6,1,8,2,-8,5,-12,-37,-31,-25,-21,-5
-6,2,8,1,-8,6,-12,-37,-31,-25,-22,-5
-6,3,9,1,-9,6,-12,-37,-32,-25,-22,-5
