leadI,leadII,leadIII,leadaVR,leadaVL,leadaVF,leadV1,leadV2,leadV3,leadV4,leadV5,leadV6
4,1,-2,-2,3,0,-1,-1,1,-1,-2,-1
10,4,-5,-7,8,-1,-3,-3,3,-3,-5,-2
13,6,-6,-9,10,0,-4,-4,4,-4,-7,-3
14,7,-6,-11,11,0,-5,-4,5,-4,-8,-3
14,7,-6,-11,11,0,-5,-4,6,-4,-8,-3
14,7,-7,-11,11,0,-5,-3,8,-3,-7,-2
14,6,-7,-11,11,0,-4,-3,9,-2,-7,-2
13,6,-7,-10,10,0,-4,-2,10,-1,-6,-1
13,6,-6,-10,10,0,-4,-2,11,0,-6,-1
12,6,-6,-10,9,0,-4,-2,11,0,-6,-1
12,7,-5,-10,9,1,-4,-1,12,0,-6,-1
11,7,-4,-10,8,1,-4,-1,12,0,-6,-1
11,8,-3,-10,7,2,-4,0,12,1,-6,-1
10,8,-2,-9,6,2,-3,0,13,1,-6,-1
9,8,-2,-8,6,3,-3,0,13,2,-5,-1
8,8,-2,-8,5,3,-2,1,13,2,-4,-1
8,7,-1,-8,5,3,-2,1,13,2,-4,-1
7,7,0,-8,4,3,-2,0,13,2,-3,0
6,7,1,-7,3,4,-2,0,14,2,-3,0
5,7,3,-7,1,5,-2,1,14,3,-2,0
3,7,5,-6,-1,6,-1,1,14,4,-2,1
2,7,6,-6,-2,7,-1,2,14,5,-1,1
1,7,6,-5,-2,7,0,2,14,6,-1,2
1,7,6,-5,-2,7,0,2,14,7,0,2
0,7,6,-4,-3,7,0,3,15,7,0,2
0,7,7,-3,-4,7,1,3,15,8,0,2
-1,7,8,-3,-5,7,1,4,15,8,1,2
-2,6,9,-2,-5,7,1,4,15,8,1,2
-2,6,9,-2,-5,7,1,4,15,8,1,2
-2,6,8,-2,-5,7,1,4,14,8,1,2
-2,6,8,-2,-4,7,1,4,14,8,1,2
-2,6,7,-2,-4,7,1,5,13,8,1,2
-2,6,8,-1,-5,7,1,5,13,8,2,2
-3,6,8,-1,-5,7,1,5,13,8,2,2
-3,6,8,-1,-5,7,1,5,13,8,2,3
-3,6,9,-1,-5,7,1,5,12,7,2,3
-3,6,9,-1,-5,7,1,5,12,7,3,4
-4,6,9,-1,-6,7,1,5,11,6,3,4
-4,6,9,-1,-6,7,1,5,11,6,3,5
-4,5,9,-1,-6,7,1,5,11,6,3,5
-4,5,9,-1,-6,7,1,4,10,6,3,5
-4,5,9,-1,-6,7,1,4,10,6,3,5
-5,5,10,0,-7,7,1,4,10,6,3,5
-5,5,10,0,-7,7,1,4,10,7,3,5
-5,5,10,0,-7,7,1,4,10,7,3,5
-5,5,10,0,-7,7,1,5,10,8,3,4
-5,4,9,0,-7,7,1,5,10,8,3,4
-5,4,9,0,-7,7,1,5,10,8,3,4
-5,4,9,0,-7,7,1,5,10,8,3,4
-6,4,9,0,-7,7,1,5,9,8,3,4
-6,4,9,0,-7,7,1,5,9,8,4,4
-6,4,10,0,-7,7,1,5,9,8,4,4
-6,4,10,0,-7,7,1,5,8,8,4,4
-6,4,10,0,-7,7,1,5,8,8,4,5
-6,4,10,0,-7,7,1,5,8,8,4,5
-6,4,10,0,-7,7,1,5,8,8,4,5
-6,4,10,0,-7,7,0,5,8,8,4,5
-6,4,10,0,-7,7,0,5,8,8,4,5
-6,5,10,0,-7,7,0,5,8,8,5,5
-6,5,10,0,-7,8,-1,5,8,8,5,5
-5,6,9,-1,-7,8,-1,5,9,9,5,6
-4,6,9,-2,-6,8,-1,5,9,9,6,6
-4,7,10,-2,-7,9,-1,6,10,9,6,7
-4,7,11,-2,-7,10,-1,7,11,9,7,7
-3,8,11,-3,-7,10,-1,7,12,10,8,8
-3,8,10,-3,-6,9,-1,8,13,10,9,8
-3,7,9,-3,-6,8,-1,8,13,10,9,7
-3,7,8,-2,-5,7,-1,9,14,10,9,7
-2,6,8,-2,-5,7,-1,9,14,11,8,7
-2,6,7,-2,-4,6,-1,9,14,11,8,7
-1,5,6,-2,-3,6,-2,8,13,10,7,6
-1,4,5,-2,-3,5,-2,8,11,10,6,6
-1,3,3,-1,-2,3,-3,7,9,9,5,5
-1,1,2,0,-1,2,-3,6,7,8,4,5
-1,1,1,0,0,1,-3,5,6,7,4,4
0,1,0,-1,0,1,-4,5,6,7,5,4
1,2,0,-2,1,1,-4,4,5,7,5,4
1,2,0,-2,1,1,-4,4,5,7,5,4
2,2,0,-3,2,1,-4,4,4,7,5,4
3,2,0,-3,2,1,-4,4,4,7,5,4
3,2,-1,-3,2,0,-4,4,4,7,5,4
4,2,-1,-3,3,0,-4,4,4,7,5,3
4,1,-2,-3,3,-1,-4,4,3,6,4,3
5,0,-4,-3,4,-2,-4,4,2,5,4,2
5,0,-5,-3,5,-3,-4,4,1,4,3,2
4,-1,-6,-2,6,-4,-4,4,0,4,2,1
4,-2,-7,-1,6,-5,-4,4,0,3,2,1
5,-2,-8,-1,7,-5,-4,4,0,3,1,0
5,-2,-7,-2,7,-5,-4,4,0,3,1,0
5,-2,-6,-2,6,-4,-3,4,1,3,1,0
4,-1,-5,-2,5,-4,-3,3,1,3,2,0
3,-1,-4,-2,4,-3,-2,3,2,3,2,0
2,-1,-3,-1,3,-2,-1,3,2,4,2,1
1,0,-1,0,1,-1,0,3,3,4,3,1
0,0,0,0,0,0,1,3,4,5,3,1
-1,0,1,1,-2,0,1,3,4,5,4,1
-3,0,2,1,-3,1,2,4,5,6,4,1
-4,0,2,2,-3,1,2,4,5,6,4,1
-4,0,2,2,-3,1,2,4,5,5,4,1
-4,0,2,2,-3,1,2,4,5,5,4,1
-4,0,2,2,-3,1,2,4,5,5,4,1
-4,-1,2,2,-3,0,2,4,5,5,3,1
-4,-1,1,2,-3,0,2,4,5,5,3,1
-4,-1,1,2,-2,0,2,4,4,5,3,1
-4,-1,1,2,-2,0,2,4,4,5,3,1
-4,-1,1,2,-2,0,2,4,4,6,3,1
-4,-1,1,2,-2,0,2,4,4,6,3,1
-4,-1,1,2,-2,0,2,4,4,6,3,1
-4,-1,1,2,-2,0,2,4,5,6,3,1
-4,-1,2,2,-2,0,2,4,5,6,3,0
-4,-1,2,2,-3,0,2,4,5,6,4,0
-4,-1,2,2,-3,1,2,5,6,7,4,0
-4,-1,2,2,-3,1,2,5,6,7,5,1
-4,-1,2,2,-3,1,2,5,7,7,5,1
-4,-1,2,2,-3,1,3,5,7,7,5,1
-4,-1,2,2,-3,1,3,6,8,7,5,1
-4,-2,2,2,-3,0,4,7,9,8,5,1
-4,-3,1,3,-3,0,4,8,11,8,4,0
-4,-4,0,4,-2,-2,4,10,16,10,3,0
-3,-5,-1,3,-1,-3,4,12,21,12,3,-1
-2,-4,-2,2,0,-3,3,13,24,17,5,0
0,-2,-3,1,1,-2,2,13,27,25,9,1
3,0,-4,-2,3,-2,0,15,32,35,16,5
7,3,-5,-5,6,-1,-3,17,37,48,24,9
11,6,-6,-9,9,0,-7,18,41,63,33,13
16,9,-7,-13,12,1,-10,17,39,81,43,18
21,13,-8,-17,15,2,-15,13,27,101,55,25
27,18,-9,-23,19,4,-22,7,7,121,70,34
34,23,-11,-29,23,6,-29,-1,-23,138,85,43
40,26,-14,-34,28,6,-36,-11,-62,147,96,50
45,25,-20,-35,33,2,-41,-20,-105,146,101,54
48,20,-28,-34,39,-4,-45,-29,-146,133,99,53
49,11,-38,-30,44,-13,-48,-37,-184,110,89,48
48,1,-47,-25,48,-23,-49,-46,-220,76,75,41
45,-8,-54,-19,50,-31,-50,-56,-251,38,59,35
42,-16,-59,-13,51,-37,-51,-66,-278,-2,42,28
37,-24,-62,-6,50,-43,-50,-75,-298,-42,24,20
31,-32,-63,0,47,-47,-47,-81,-308,-78,6,11
24,-39,-64,7,44,-51,-42,-85,-308,-106,-13,1
17,-48,-65,15,41,-56,-35,-86,-298,-127,-34,-12
9,-58,-69,24,39,-63,-27,-82,-280,-141,-55,-29
2,-69,-73,33,38,-70,-19,-76,-256,-149,-74,-46
-2,-77,-75,39,37,-76,-12,-69,-229,-150,-87,-58
-5,-81,-76,43,35,-78,-6,-60,-201,-145,-94,-66
-7,-82,-74,44,33,-78,-2,-50,-174,-137,-95,-69
-10,-81,-70,45,30,-76,1,-41,-148,-125,-91,-69
-12,-77,-64,44,26,-71,4,-33,-124,-112,-85,-67
-15,-71,-56,43,21,-64,7,-27,-102,-98,-77,-62
-18,-64,-47,41,14,-55,9,-22,-83,-84,-68,-56
-21,-57,-37,39,8,-47,10,-19,-67,-71,-59,-50
-22,-51,-30,36,4,-40,12,-15,-54,-61,-52,-45
-22,-46,-24,34,1,-35,13,-12,-42,-52,-46,-41
-22,-42,-20,32,0,-31,13,-9,-32,-44,-41,-37
-22,-37,-15,29,-2,-26,13,-6,-24,-38,-36,-34
-21,-32,-11,26,-4,-22,12,-3,-17,-31,-31,-30
-21,-27,-7,23,-5,-17,12,-2,-11,-25,-26,-26
-20,-22,-4,20,-6,-13,11,-1,-7,-20,-21,-21
-18,-17,0,17,-8,-8,11,0,-2,-15,-16,-17
-17,-12,4,14,-9,-4,10,1,1,-11,-11,-12
-16,-9,7,12,-10,-1,10,2,5,-7,-6,-9
-16,-6,9,11,-12,1,9,4,9,-4,-3,-6
-16,-5,11,10,-13,3,9,6,12,-2,-2,-4
-16,-4,12,9,-14,4,9,7,14,-1,-1,-3
-16,-3,13,9,-15,5,10,8,16,0,0,-3
-16,-2,14,9,-15,6,10,9,16,0,0,-2
-16,-1,14,8,-15,7,10,9,17,2,0,-2
-16,0,15,8,-15,7,10,9,17,3,1,-1
-16,0,15,7,-15,7,10,9,18,4,1,0
-16,0,15,7,-15,7,10,9,19,5,2,0
-15,0,15,7,-15,7,10,9,19,5,2,0
-15,0,15,7,-15,7,10,10,20,6,2,0
-15,0,15,7,-15,7,10,10,20,6,2,0
-15,0,15,7,-15,8,10,11,21,6,2,0
-15,0,15,7,-15,8,10,11,21,7,3,0
-15,0,16,7,-15,8,10,11,22,7,4,0
-16,0,16,7,-16,8,10,11,22,8,5,0
-16,0,17,7,-16,9,10,11,23,8,5,0
-16,0,17,7,-17,9,10,11,24,8,6,0
-16,0,17,7,-17,9,11,11,24,8,6,0
-16,0,17,7,-17,9,11,11,25,8,6,0
-16,1,17,7,-16,9,11,11,25,8,6,0
-16,1,17,7,-16,9,11,11,25,8,6,0
-16,1,17,7,-16,9,11,12,25,8,6,0
-16,1,17,7,-16,9,11,12,25,8,7,0
-16,1,18,7,-17,9,11,13,25,8,7,1
-16,2,18,7,-17,10,11,13,26,9,7,1
-16,2,19,6,-17,10,11,13,26,9,7,1
-16,2,19,6,-17,10,11,13,27,10,7,1
-16,2,19,6,-17,10,11,13,27,10,6,1
-17,2,19,6,-17,10,11,13,28,11,6,2
-17,2,19,7,-18,10,11,13,28,11,6,2
-17,2,19,7,-18,10,11,13,28,11,7,2
-17,2,19,6,-17,10,11,13,28,11,8,2
-17,2,19,6,-18,11,11,14,29,11,8,3
-17,3,20,6,-18,11,11,14,29,11,9,3
-17,3,20,6,-18,12,11,14,29,11,9,3
-17,3,20,6,-18,12,11,14,29,11,9,4
-17,3,20,6,-18,12,11,14,29,11,9,4
-18,3,21,6,-19,12,11,14,29,11,9,4
-18,3,21,7,-19,11,11,14,29,11,9,4
-18,3,21,7,-19,11,11,14,29,10,8,3
-18,3,21,7,-19,12,11,14,29,10,8,3
-18,3,21,7,-19,12,11,14,28,10,8,3
-18,3,21,7,-19,12,11,13,28,9,8,2
-18,3,21,7,-19,12,11,13,27,9,8,2
-18,3,21,7,-20,12,11,13,27,8,8,2
-18,3,21,7,-19,12,11,13,27,8,8,2
-17,3,21,7,-19,12,10,13,27,7,8,2
-18,3,21,7,-19,12,10,13,26,7,8,2
-18,3,21,7,-20,12,10,13,26,6,8,3
-18,3,22,7,-20,12,10,12,25,6,8,3
-18,3,22,7,-20,12,10,12,25,6,8,4
-18,3,22,7,-20,13,10,12,24,6,8,4
-18,3,22,7,-20,13,10,12,23,7,7,4
-18,3,22,7,-20,12,10,11,22,7,7,3
-18,3,21,7,-19,12,10,11,21,7,6,3
-18,3,20,7,-19,11,10,10,20,7,6,2
-18,2,21,7,-19,11,10,10,19,7,6,2
-19,2,21,8,-20,12,10,10,18,6,6,2
-19,2,21,8,-20,12,10,9,17,5,6,2
-18,2,21,7,-20,12,9,9,16,4,6,2
-18,2,21,7,-20,12,9,9,15,3,7,2
-18,2,21,7,-20,12,8,8,14,3,7,3
-18,2,22,7,-20,12,8,8,13,2,8,3
-18,2,22,7,-20,12,8,7,13,2,8,4
-18,2,21,7,-20,11,8,6,12,2,7,4
-18,2,20,7,-19,11,8,6,11,1,6,4
-17,1,19,7,-19,10,8,5,10,0,6,4
-18,1,19,8,-19,10,8,5,8,0,6,4
-18,1,20,8,-19,11,8,4,7,-1,6,3
-17,1,20,8,-19,11,8,4,6,-1,6,3
-17,1,20,8,-18,10,7,4,6,-1,5,2
-18,1,20,8,-19,10,7,4,5,-1,5,2
-18,0,20,8,-19,10,7,4,5,-1,5,2
-18,0,19,8,-19,10,7,4,4,-1,5,2
-19,0,19,9,-18,9,7,4,3,-1,5,2
-19,-1,18,9,-18,9,7,4,2,-1,4,2
-18,-1,18,9,-18,9,7,4,1,-2,4,3
-18,-1,18,9,-18,9,7,3,1,-3,4,3
-18,-1,18,9,-18,9,7,3,0,-4,5,3
-18,-1,17,9,-17,9,6,2,0,-5,5,3
-18,-1,18,9,-17,9,6,2,-1,-6,6,4
-18,-1,18,9,-18,9,5,1,-2,-7,7,4
-18,0,18,9,-18,9,5,1,-2,-7,8,5
-18,0,18,9,-17,9,5,1,-3,-6,7,5
-18,0,17,9,-17,9,6,1,-3,-6,7,5
-18,-1,17,9,-17,9,6,1,-3,-5,6,4
-18,-1,16,9,-17,8,6,1,-3,-5,5,4
-18,-2,16,9,-16,8,6,1,-3,-5,4,4
-17,-2,15,9,-16,7,6,1,-4,-5,3,3
-17,-2,15,9,-16,7,6,1,-4,-5,3,3
-18,-3,15,9,-16,7,6,0,-4,-5,3,2
-17,-2,15,9,-16,7,6,0,-4,-5,3,2
-17,-1,16,8,-16,8,6,0,-4,-5,3,2
-16,0,17,8,-16,9,6,0,-5,-5,4,2
-16,1,18,7,-17,10,5,0,-5,-4,5,3
-15,2,19,6,-17,11,5,0,-4,-3,6,5
-15,3,19,6,-17,11,4,1,-3,-2,7,6
-14,4,19,5,-17,11,4,1,-2,-2,8,6
-14,4,19,5,-16,11,4,1,-1,-2,8,7
-13,4,19,4,-16,11,3,1,-1,-2,9,7
-13,4,18,4,-16,11,3,1,-1,-3,10,7
-13,3,17,4,-15,10,3,1,-1,-3,10,7
-13,3,16,4,-14,10,2,1,-2,-4,10,7
-13,2,16,4,-14,9,2,1,-3,-4,10,7
-13,2,15,4,-13,9,1,1,-4,-4,10,7
-13,1,15,4,-13,8,0,0,-4,-4,10,7
-12,1,14,4,-12,8,0,0,-5,-4,10,7
-12,2,14,4,-12,8,-1,-1,-5,-3,10,8
-11,2,14,4,-12,8,-1,-2,-6,-3,10,8
-11,2,14,4,-12,8,-1,-2,-6,-2,10,8
-11,2,14,4,-12,8,-1,-2,-6,-2,10,8
-10,2,12,3,-11,8,-1,-2,-7,-2,10,8
-9,1,11,3,-10,7,-1,-1,-7,-2,10,8
-8,1,10,3,-9,6,-2,0,-7,-2,9,7
-8,0,9,3,-8,4,-2,0,-7,-2,9,7
-7,-1,7,3,-7,3,-2,0,-7,-2,9,6
-7,-3,5,4,-5,1,-2,1,-8,-2,9,5
-6,-4,3,5,-4,-1,-2,1,-8,-3,9,5
-6,-5,1,5,-3,-2,-2,1,-9,-4,9,4
-6,-6,1,6,-3,-2,-2,1,-9,-5,9,4
-7,-6,1,6,-4,-1,-1,1,-10,-5,9,5
-7,-6,2,6,-4,-1,-1,1,-10,-5,8,5
-8,-6,2,6,-5,-1,0,1,-11,-5,8,5
-8,-6,3,6,-5,-1,0,1,-11,-5,7,5
-9,-6,3,7,-6,0,0,1,-10,-4,7,5
-10,-6,5,7,-7,0,1,1,-9,-3,7,5
-12,-6,6,8,-9,0,2,1,-9,-3,7,5
-14,-7,8,9,-10,1,3,1,-9,-4,7,4
-15,-7,9,10,-12,1,4,1,-8,-4,7,4
-16,-7,10,11,-13,1,5,1,-8,-4,7,4
-17,-8,10,11,-13,1,6,2,-7,-4,7,4
-17,-8,9,12,-12,1,6,2,-7,-5,7,3
-17,-9,9,12,-12,0,7,3,-7,-5,6,3
-17,-10,8,13,-12,0,7,3,-6,-5,5,2
-17,-11,8,13,-12,-1,7,4,-6,-5,4,2
-17,-11,7,14,-12,-1,7,4,-5,-5,4,1
-18,-11,7,14,-12,-2,8,4,-5,-5,3,1
-18,-11,7,14,-12,-2,8,4,-4,-5,3,1
-18,-11,7,14,-12,-2,8,4,-4,-5,4,1
-18,-11,7,14,-13,-1,8,4,-3,-5,4,1
-19,-11,8,15,-13,-1,8,4,-2,-6,5,1
-19,-11,8,15,-14,0,9,5,-1,-6,5,0
-19,-11,8,15,-14,0,9,5,0,-5,5,0
-19,-11,8,14,-14,0,9,6,0,-5,4,0
-19,-11,8,14,-14,0,9,6,1,-4,4,0
-18,-11,8,14,-14,0,9,6,2,-4,3,0
-18,-11,8,14,-13,0,9,6,4,-3,3,0
-18,-11,8,14,-13,0,9,7,5,-2,3,0
-18,-10,8,14,-13,0,9,7,7,-2,3,0
-18,-10,8,14,-13,0,9,7,8,-1,3,0
-18,-10,9,13,-13,0,9,8,10,-1,3,0
-18,-9,9,13,-13,0,9,9,11,0,4,0
-18,-9,10,13,-14,1,9,9,13,0,4,0
-19,-9,11,13,-15,1,10,10,14,1,4,0
-19,-8,12,13,-16,2,10,10,16,1,5,0
-19,-8,13,13,-16,2,10,11,18,1,5,0
-19,-7,13,13,-16,3,10,11,19,1,6,0
-19,-7,13,13,-16,3,10,12,21,2,6,0
-20,-7,13,13,-16,4,10,12,22,2,6,1
-20,-7,14,13,-17,4,10,13,24,3,6,1
-20,-7,14,12,-17,4,10,13,25,4,6,1
-19,-7,13,12,-16,4,10,14,27,4,6,1
-18,-7,13,12,-16,4,10,15,28,5,5,0
-18,-7,12,12,-15,3,10,16,31,7,4,-1
-17,-8,10,12,-13,1,11,19,37,9,3,-3
-16,-9,8,12,-12,-1,10,21,44,12,2,-4
-15,-10,6,12,-10,-2,10,23,51,18,4,-4
-13,-10,4,11,-8,-3,8,25,60,27,8,-2
-9,-9,1,8,-5,-3,6,28,70,40,15,0
-4,-7,0,5,-1,-3,3,30,77,57,24,4
0,-4,-2,1,1,-2,0,30,78,75,34,9
5,0,-2,-3,4,0,-5,27,71,97,46,15
10,6,-3,-9,7,2,-10,23,58,121,59,23
17,12,-3,-15,10,4,-17,17,37,144,74,32
23,18,-4,-21,14,6,-24,8,4,160,88,41
28,21,-6,-25,18,7,-31,-2,-38,167,98,48
32,21,-11,-27,22,5,-37,-13,-82,161,102,52
35,16,-18,-26,27,0,-40,-23,-122,142,98,52
35,7,-25,-21,30,-8,-41,-31,-160,110,86,47
31,-3,-32,-14,32,-17,-41,-41,-199,66,69,40
25,-14,-38,-6,32,-26,-40,-52,-236,17,50,33
17,-24,-40,2,29,-32,-37,-63,-267,-31,29,25
8,-33,-41,12,25,-38,-32,-71,-283,-73,5,14
-1,-43,-42,22,21,-43,-25,-74,-282,-105,-19,-1
-8,-53,-45,30,19,-49,-18,-72,-268,-126,-41,-17
-13,-61,-47,36,17,-54,-11,-65,-245,-137,-59,-32
-17,-67,-48,41,15,-57,-5,-58,-217,-140,-70,-44
-21,-70,-47,45,13,-58,0,-51,-190,-137,-76,-52
-23,-70,-44,46,11,-57,3,-45,-164,-129,-76,-54
-25,-67,-41,46,8,-54,5,-38,-137,-115,-71,-53
-26,-63,-36,44,5,-50,7,-30,-109,-99,-64,-51
-27,-58,-31,43,3,-45,10,-21,-84,-83,-57,-48
-27,-54,-27,41,0,-41,12,-14,-63,-68,-50,-45
-27,-51,-23,39,-1,-37,14,-8,-47,-56,-44,-41
-27,-47,-18,37,-4,-32,15,-4,-34,-46,-37,-38
-27,-43,-14,34,-6,-28,16,-1,-23,-38,-31,-34
-27,-39,-11,32,-7,-24,16,2,-13,-30,-26,-30
-26,-35,-8,30,-8,-21,16,4,-5,-23,-21,-26
-25,-31,-6,27,-9,-19,16,7,2,-16,-16,-22
-24,-27,-3,25,-9,-16,15,9,7,-11,-12,-19
-23,-23,0,23,-10,-12,15,11,12,-6,-8,-16
-22,-19,3,21,-12,-8,15,12,16,-1,-3,-12
-22,-16,6,19,-13,-4,15,13,19,2,1,-9
-21,-13,10,17,-15,0,15,14,22,5,4,-6
-21,-11,12,15,-16,1,15,14,24,7,7,-3
-21,-9,13,15,-17,2,15,15,26,8,9,-2
-21,-8,13,14,-17,2,15,15,27,9,9,-1
-21,-8,13,14,-17,2,15,16,27,10,9,-1
-22,-8,14,14,-17,2,15,17,28,10,8,-1
-22,-8,14,14,-17,3,14,17,28,11,8,-1
-22,-8,14,14,-17,3,14,16,28,11,8,-1
-22,-8,15,14,-17,4,14,16,27,11,9,-1
-22,-7,15,14,-18,4,14,16,27,11,9,0
-22,-7,16,14,-18,5,14,16,27,10,10,0
-22,-7,16,14,-18,5,14,16,27,10,10,0
-22,-7,16,14,-19,5,14,15,27,9,10,0
-22,-7,16,14,-19,5,14,15,27,9,10,0
-22,-7,16,14,-19,5,14,15,27,9,10,0
-22,-7,16,14,-19,5,14,16,27,9,10,0
-22,-6,17,14,-19,6,14,16,27,9,10,0
-22,-6,17,14,-19,6,14,16,28,9,10,1
-22,-6,17,14,-19,6,14,16,28,9,10,1
-22,-6,17,14,-19,6,14,16,29,9,10,1
-22,-6,17,14,-19,6,14,17,29,9,10,1
-22,-6,17,14,-19,6,14,17,29,10,10,1
-22,-6,17,14,-19,6,14,18,29,10,9,1
-22,-6,17,14,-19,6,14,18,30,11,9,1
-22,-6,17,14,-19,6,14,18,30,11,9,1
-22,-6,17,14,-19,6,14,18,30,11,9,1
-22,-5,17,14,-19,6,14,18,31,11,9,1
-22,-5,17,14,-19,6,14,18,31,11,9,1
-22,-5,17,14,-19,6,14,18,32,11,9,1
-21,-5,17,14,-19,6,14,18,32,11,9,1
-21,-5,17,14,-19,7,14,18,33,11,9,1
-21,-5,17,13,-19,7,14,19,33,12,9,1
-21,-5,17,13,-19,7,14,19,33,12,9,1
-21,-5,17,13,-19,7,14,19,33,12,10,1
-21,-5,17,13,-20,7,14,19,34,12,10,1
-21,-5,17,13,-20,7,14,19,34,12,10,1
-21,-5,17,13,-20,7,14,19,34,12,10,1
-21,-5,17,13,-20,7,13,19,35,12,10,1
-21,-5,18,13,-20,7,13,19,35,12,10,1
-21,-4,18,13,-20,8,13,19,35,12,10,1
-21,-4,18,12,-20,8,13,19,35,12,9,1
-21,-3,18,12,-20,8,13,19,35,12,9,1
-21,-3,19,12,-20,8,13,19,36,12,9,1
-22,-3,19,12,-20,8,13,19,36,12,9,1
-22,-3,19,12,-21,8,13,19,36,12,9,1
-22,-3,19,12,-21,9,13,19,36,12,9,1
-22,-3,20,12,-21,9,13,18,36,12,9,2
-22,-3,20,12,-21,10,13,18,36,12,9,2
-22,-3,20,12,-21,10,13,18,36,12,9,2
-22,-3,20,12,-21,10,13,18,35,12,9,2
-22,-2,20,12,-21,10,13,18,35,11,9,2
-22,-2,20,12,-21,10,13,18,35,11,9,2
-22,-2,20,12,-21,10,13,18,34,10,9,2
-22,-2,20,12,-21,10,12,18,33,10,8,2
-21,-2,20,12,-21,10,12,17,32,9,8,2
-21,-2,20,11,-21,10,11,17,32,9,8,2
-21,-2,20,11,-21,10,11,17,31,9,8,2
-21,-2,20,11,-21,10,11,16,30,9,8,2
-21,-2,20,11,-21,10,11,16,30,8,7,2
-21,-2,20,11,-21,10,11,15,29,8,7,2
-21,-2,20,11,-21,10,11,15,28,8,7,2
-21,-2,20,11,-21,10,11,14,27,7,7,2
-21,-2,20,11,-21,10,10,14,26,7,7,2
-21,-2,20,11,-21,10,10,13,26,6,7,2
-21,-2,20,11,-21,10,10,13,25,6,7,2
-21,-2,20,11,-20,9,10,13,24,5,7,2
-20,-2,19,11,-20,9,9,12,23,5,7,2
-20,-2,19,11,-20,9,9,12,22,5,7,3
-20,-2,19,11,-20,9,9,11,22,5,7,3
-20,-2,19,10,-19,9,9,11,21,4,7,3
-20,-2,19,10,-19,9,9,10,20,4,7,3
-19,-2,19,10,-19,9,9,10,19,3,7,4
-19,-2,18,10,-19,9,8,9,19,3,7,4
-19,-2,18,10,-19,9,8,9,18,2,7,4
-19,-1,18,10,-19,9,8,8,17,2,7,4
-19,-1,18,10,-19,9,8,8,17,2,7,4
-19,-1,18,10,-19,9,8,8,16,2,7,4
-19,-2,18,10,-19,9,8,8,16,2,7,4
-18,-2,17,10,-19,8,8,8,15,2,7,5
-18,-2,17,10,-18,8,7,7,15,2,7,5
-18,-2,17,10,-18,8,7,7,14,2,7,5
-18,-2,17,10,-18,8,7,7,14,2,7,5
-18,-2,16,10,-18,7,7,6,14,2,7,5
-18,-2,16,10,-18,7,7,6,14,2,6,5
-18,-2,16,10,-18,7,7,5,13,2,6,5
-18,-2,16,10,-18,7,7,5,13,2,6,5
-18,-2,16,10,-17,7,7,5,13,2,6,5
-17,-2,15,9,-17,7,7,5,12,2,6,5
-17,-2,15,9,-16,7,7,5,12,1,6,5
-17,-3,15,9,-16,6,6,5,12,1,6,5
-17,-3,14,10,-15,6,6,5,11,0,6,5
-16,-4,13,10,-15,5,6,5,11,0,6,5
-16,-4,13,10,-15,5,6,6,11,0,6,6
-16,-4,13,10,-15,5,6,6,12,1,6,6
-16,-4,13,10,-14,5,6,7,12,1,6,6
-16,-5,12,10,-14,5,6,7,12,1,6,6
-15,-5,12,10,-13,4,6,7,12,1,6,6
-15,-5,11,9,-13,4,6,7,12,1,6,6
-14,-4,11,9,-13,4,6,7,13,1,6,6
-14,-4,11,9,-13,4,6,7,13,1,6,6
-14,-4,11,9,-13,4,6,7,13,1,6,6
-13,-4,11,9,-12,4,6,7,13,1,6,6
-13,-4,10,9,-11,3,6,7,13,1,6,5
-13,-5,9,9,-11,2,6,7,12,1,6,5
-13,-6,8,9,-11,2,6,7,12,1,6,5
-13,-6,8,9,-11,1,6,7,12,2,6,5
-13,-6,8,9,-11,1,6,7,13,2,6,5
-13,-5,9,9,-11,2,6,7,13,3,7,6
-13,-4,10,9,-11,3,6,7,15,4,7,6
-13,-3,10,8,-11,4,5,7,16,5,8,7
-12,-1,11,7,-11,5,5,8,18,6,9,8
-12,0,11,6,-11,6,4,8,20,7,10,9
-11,0,11,5,-11,6,4,9,20,8,11,9
-11,0,11,5,-11,6,4,9,21,8,11,9
-11,0,11,5,-11,6,4,9,21,9,11,9
-11,0,12,5,-11,7,4,9,22,9,11,9
-11,0,12,5,-12,7,4,9,22,9,11,9
-11,0,12,5,-12,7,4,9,21,9,11,9
-11,0,12,5,-12,7,4,9,21,9,10,8
-11,0,11,5,-12,6,4,9,21,9,10,7
-11,0,11,5,-12,5,4,9,21,9,9,7
-11,-1,11,5,-12,5,4,9,22,9,9,7
-12,-1,11,6,-12,5,4,9,22,9,9,7
-12,-2,11,6,-11,4,4,9,22,9,8,7
-12,-2,11,7,-11,5,4,9,23,9,8,7
-13,-2,12,7,-12,5,5,9,24,9,8,7
-13,-2,12,7,-12,5,5,9,24,9,8,7
-14,-2,13,8,-13,5,6,9,25,9,8,7
-15,-2,13,8,-14,6,6,9,25,9,8,7
-16,-2,13,9,-15,6,6,9,25,9,8,7
-16,-3,14,9,-15,6,6,9,25,9,8,7
-16,-3,14,10,-15,6,6,9,25,9,8,7
-16,-4,13,10,-15,5,6,9,25,9,8,6
-16,-4,13,10,-14,5,6,9,25,9,7,6
-16,-4,12,10,-14,4,7,9,26,9,7,5
-16,-4,12,10,-14,4,7,9,26,9,7,5
-16,-4,12,10,-14,4,7,9,27,9,7,5
-16,-4,12,10,-14,4,7,9,27,9,7,5
-16,-4,12,10,-14,4,7,9,28,9,7,5
-15,-4,12,10,-14,4,7,9,28,9,7,5
-15,-4,12,9,-13,4,7,10,29,10,7,5
-14,-4,11,9,-13,4,7,10,29,10,6,5
-14,-4,11,9,-12,4,7,10,30,10,6,5
-14,-4,11,9,-12,4,7,10,30,10,6,5
-14,-4,11,9,-12,4,7,10,31,11,6,5
-14,-4,11,9,-12,4,7,11,31,11,6,5
-14,-3,11,9,-13,4,7,11,32,11,7,5
-14,-3,11,9,-13,4,7,11,32,12,7,5
-14,-3,12,8,-13,5,7,11,33,12,7,5
-14,-3,12,8,-13,5,7,11,33,13,7,5
-13,-3,12,7,-13,5,7,11,33,13,7,5
-13,-3,12,7,-12,5,7,11,34,13,7,5
-12,-2,12,6,-12,5,7,11,34,14,7,5
-12,-2,12,6,-12,5,7,11,34,14,7,5
-12,-2,12,6,-12,5,7,11,35,15,7,5
-12,-1,12,6,-12,5,7,11,35,15,7,5
-11,-1,12,5,-12,5,7,11,35,15,8,5
-11,-1,12,5,-11,5,6,11,35,15,8,5
-11,-1,12,5,-11,5,6,11,35,15,9,5
-11,-1,12,5,-11,5,6,12,35,16,9,5
-11,-1,11,5,-11,5,6,12,36,16,9,5
-11,-1,10,6,-10,4,7,14,37,17,8,5
-10,-3,7,6,-8,2,7,15,40,17,7,3
-9,-4,5,6,-6,0,7,17,43,18,6,2
-8,-5,3,5,-5,0,6,18,45,21,7,1
-6,-5,2,4,-3,-1,5,19,48,27,9,2
-4,-4,0,3,-1,-1,3,20,51,35,14,5
0,-2,-1,0,1,-1,1,21,56,47,20,9
4,0,-3,-3,3,-1,-2,21,58,61,28,13
9,3,-4,-7,6,0,-6,19,55,75,37,18
14,6,-5,-11,9,0,-10,16,46,92,47,23
19,11,-6,-16,13,3,-16,10,30,109,60,31
25,16,-7,-21,16,5,-23,1,3,124,74,39
31,20,-9,-26,20,5,-30,-9,-34,131,85,47
35,21,-13,-28,24,4,-35,-21,-77,130,92,51
38,18,-18,-28,28,0,-40,-32,-120,119,91,52
39,12,-26,-26,33,-6,-42,-42,-160,98,84,49
39,3,-34,-21,37,-15,-44,-52,-197,67,71,43
36,-7,-42,-15,39,-24,-45,-62,-234,28,53,35
32,-16,-47,-8,40,-32,-45,-73,-268,-12,35,28
26,-24,-50,-1,38,-37,-45,-84,-296,-53,17,21
19,-32,-50,6,34,-41,-42,-93,-314,-90,-2,13
10,-40,-49,14,30,-44,-37,-99,-320,-120,-21,2
3,-47,-50,22,27,-48,-31,-100,-312,-141,-40,-10
-2,-55,-52,28,26,-53,-25,-96,-293,-154,-57,-24
-5,-63,-56,34,25,-59,-19,-89,-269,-160,-73,-38
-8,-69,-58,38,25,-63,-13,-81,-242,-160,-84,-49
-11,-72,-59,41,24,-65,-9,-73,-214,-155,-89,-56
-13,-73,-58,43,22,-65,-5,-64,-187,-146,-90,-59
-14,-72,-56,43,21,-64,-2,-55,-160,-133,-87,-59
-15,-70,-53,42,19,-61,1,-45,-134,-118,-81,-57
-17,-66,-48,41,16,-56,4,-36,-109,-103,-73,-54
-18,-61,-42,40,12,-51,7,-28,-87,-88,-65,-50
-19,-56,-36,38,9,-45,9,-22,-69,-75,-58,-46
-19,-51,-31,35,6,-41,10,-18,-55,-65,-51,-41
-18,-46,-26,32,4,-36,10,-15,-43,-56,-45,-37
-18,-42,-23,29,3,-33,11,-11,-33,-48,-40,-34
-17,-39,-21,27,2,-30,11,-8,-23,-40,-35,-30
-17,-34,-17,25,1,-26,11,-5,-15,-33,-30,-26
-16,-29,-13,23,0,-21,10,-2,-8,-26,-24,-22
-15,-25,-10,20,-2,-17,10,0,-2,-20,-19,-18
-14,-20,-6,17,-3,-12,10,1,2,-14,-13,-13
-13,-15,-2,14,-5,-8,10,2,7,-9,-8,-9
-11,-11,1,11,-6,-4,9,3,11,-5,-4,-5
-10,-8,3,8,-7,-2,9,4,14,-2,-1,-2
-10,-6,5,7,-8,0,8,5,16,-1,1,0
-9,-5,6,6,-8,0,8,6,17,0,2,0
-9,-4,6,6,-8,1,8,7,18,1,2,0
-9,-4,7,6,-8,1,8,8,19,2,3,0
-9,-3,8,6,-8,2,8,8,19,4,3,1
-9,-3,8,5,-8,3,8,8,20,5,4,1
-9,-2,9,5,-9,4,8,8,20,5,4,2
-9,-2,9,5,-9,4,8,8,21,6,4,2
-9,-2,8,5,-8,3,8,8,21,6,4,2
-9,-2,8,5,-8,3,8,8,22,6,4,2
-8,-2,7,5,-7,3,8,9,22,6,4,2
-8,-2,7,5,-7,3,8,9,22,6,4,2
-8,-2,7,5,-7,3,8,9,22,6,4,2
-7,-2,7,5,-7,3,8,9,22,7,4,2
-7,-2,6,4,-7,2,8,9,23,7,4,2
-7,-2,6,4,-6,2,8,9,23,7,4,2
-7,-2,6,4,-6,2,8,9,24,7,4,2
-7,-2,6,4,-6,2,8,10,24,7,4,2
-7,-2,6,4,-6,2,8,10,25,7,4,2
-7,-2,6,4,-6,2,8,10,25,7,5,2
-7,-2,6,4,-6,2,8,10,25,8,5,2
-7,-2,6,4,-6,2,8,11,25,8,5,2
-7,-2,6,4,-6,2,8,11,26,8,5,2
-7,-2,6,4,-6,2,8,11,26,8,5,2
-7,-2,5,4,-5,2,8,11,26,8,5,2
-6,-2,5,4,-5,2,8,11,27,8,5,2
-6,-2,5,4,-5,1,9,11,27,8,5,2
-6,-2,5,4,-5,1,9,11,28,8,5,2
-5,-2,5,3,-5,1,8,11,28,8,5,2
-5,-2,4,3,-5,1,8,11,28,8,5,2
-5,-2,4,3,-5,1,8,11,28,8,5,2
-5,-2,5,3,-5,2,8,11,28,8,5,2
-5,-2,5,3,-5,2,8,12,29,8,5,2
-4,-2,5,3,-4,2,8,12,29,8,5,2
-4,-2,5,2,-4,2,8,12,29,8,5,2
-4,-1,5,2,-4,2,8,12,29,8,5,2
-4,-1,5,2,-4,2,8,12,29,8,5,2
-4,-1,5,2,-4,2,8,12,29,8,5,2
-3,-1,5,2,-4,2,8,12,29,8,5,1
-3,-1,5,2,-4,2,8,12,29,8,4,1
-3,0,5,1,-4,2,8,12,29,8,4,1
-3,0,5,1,-4,2,8,12,29,8,4,1
-3,0,5,1,-4,2,8,12,29,8,4,1
-3,0,5,1,-4,2,8,11,29,7,4,1
-3,0,5,1,-4,2,8,11,29,7,4,1
-3,0,5,1,-4,2,8,11,28,7,4,1
-3,0,5,1,-3,2,8,11,28,7,4,1
-3,0,5,1,-3,2,7,11,27,6,4,1
-3,0,5,1,-3,2,7,11,27,6,4,1
-3,0,5,1,-3,2,7,11,26,6,4,1
-3,0,5,1,-4,2,7,10,26,6,4,1
-2,0,5,1,-4,2,7,10,26,5,4,1
-2,0,5,1,-3,2,6,10,25,5,4,1
-2,0,5,1,-3,2,6,10,24,5,4,1
-2,0,5,1,-3,2,6,10,23,5,4,2
-2,0,5,1,-3,2,6,9,23,5,4,2
-2,0,4,1,-3,1,6,9,22,4,4,2
-1,0,3,1,-2,1,6,8,21,4,4,2
-1,0,3,1,-2,1,6,8,20,3,4,2
-1,0,3,1,-2,1,6,8,20,3,4,2
-1,0,3,1,-2,1,6,8,19,3,4,2
-1,0,3,0,-2,0,6,8,18,3,4,2
0,0,2,0,-1,0,6,7,17,3,4,2
0,0,2,0,-1,0,6,7,16,3,4,2
0,0,2,0,-1,0,6,6,15,2,4,2
0,0,2,0,-1,0,6,5,15,2,4,2
0,0,2,0,-1,0,5,5,14,2,4,2
0,0,1,0,-1,0,5,4,14,1,4,2
0,0,1,0,0,0,4,4,13,1,4,2
0,0,0,0,0,0,4,4,12,1,4,3
1,0,0,0,0,0,4,4,12,1,4,3
1,0,0,0,1,-1,3,3,11,1,4,3
1,-1,0,0,1,-1,3,3,11,1,4,3
1,-1,0,0,1,-1,3,3,10,1,4,3
1,-1,0,0,1,-1,3,3,10,0,4,3
1,-1,0,0,1,-1,3,3,9,0,4,3
1,-1,0,0,1,-1,3,3,9,0,4,3
2,-1,-1,0,2,-1,3,2,9,0,4,3
2,-1,-1,0,2,-1,3,2,8,0,4,3
2,-1,-1,0,2,-1,2,2,8,0,4,3
2,-1,-2,0,2,-1,2,2,7,0,4,3
3,-1,-2,0,3,-2,2,2,7,0,4,3
3,-1,-2,0,3,-2,2,1,6,0,4,3
3,-1,-2,0,3,-2,2,1,6,0,4,3
3,-1,-2,0,3,-2,2,0,6,-1,4,4
3,-1,-2,0,3,-2,2,0,6,-1,4,4
3,-1,-2,0,3,-2,2,0,6,-1,4,4
3,-1,-3,0,3,-2,2,0,5,-1,4,4
3,-2,-3,0,3,-3,2,0,5,-1,4,4
3,-2,-4,0,3,-3,2,0,4,-1,4,4
3,-2,-4,0,3,-3,2,0,4,-1,4,4
2,-2,-4,0,3,-3,2,0,4,-1,4,4
2,-2,-4,0,3,-3,2,0,4,-1,4,4
3,-2,-4,0,3,-3,2,0,4,-1,4,4
3,-2,-4,0,3,-3,2,0,4,-1,4,4
4,-2,-4,0,3,-3,2,0,4,-1,4,4
4,-2,-4,0,3,-3,2,0,4,-1,4,5
4,-2,-4,0,3,-3,2,0,4,-1,4,5
4,-2,-4,0,4,-3,1,0,4,0,4,5
4,-2,-4,0,4,-3,1,0,3,0,4,5
4,-2,-4,0,4,-3,1,0,3,0,5,5
4,-2,-4,0,4,-3,1,0,3,0,5,6
4,-2,-4,0,4,-3,1,0,3,0,5,6
4,-2,-4,0,4,-3,1,0,3,0,5,6
4,-2,-4,0,3,-3,1,0,3,1,5,6
4,-2,-4,0,3,-2,1,0,3,1,5,7
4,-2,-4,-1,3,-2,0,0,3,1,5,7
4,-2,-4,-1,4,-3,0,0,3,1,5,7
4,-2,-5,-1,4,-3,0,0,4,1,5,7
4,-2,-5,-1,4,-3,0,0,4,1,5,7
5,-2,-6,-1,4,-3,0,0,4,2,5,7
5,-2,-6,-1,4,-3,0,0,4,2,5,7
5,-2,-6,-1,4,-3,0,0,5,2,5,7
5,-2,-6,-1,5,-3,0,0,5,2,5,7
6,-2,-6,-1,5,-3,0,0,5,2,5,7
6,-2,-6,-1,5,-3,0,0,5,2,5,7
6,-2,-6,-1,5,-3,0,0,5,2,6,7
6,-2,-6,-1,5,-3,0,0,6,3,6,7
6,-2,-6,-1,5,-4,0,0,6,3,6,7
6,-2,-6,-1,5,-4,0,0,7,4,6,7
6,-2,-6,-1,5,-4,0,0,7,4,6,7
6,-2,-6,-1,5,-4,0,0,8,4,6,7
5,-3,-6,-1,5,-4,0,1,8,4,5,7
5,-3,-6,-1,5,-4,0,1,9,4,5,7
5,-3,-7,0,5,-5,0,1,9,4,5,6
5,-3,-7,0,5,-5,0,2,10,4,5,6
5,-3,-7,0,5,-5,0,2,10,4,5,6
5,-3,-7,0,5,-5,1,2,11,4,5,6
5,-3,-7,0,5,-5,1,2,11,4,5,6
5,-3,-7,0,5,-5,1,2,12,4,5,6
5,-3,-7,0,5,-5,1,3,12,4,5,6
5,-3,-7,0,5,-5,1,3,13,4,5,6
5,-3,-6,0,5,-5,1,3,14,4,4,6
4,-3,-6,0,5,-5,1,4,15,4,4,6
4,-3,-6,0,5,-5,2,4,16,4,4,6
4,-3,-6,0,4,-5,2,4,17,4,4,6
4,-3,-5,0,4,-4,2,4,18,4,4,6
4,-3,-5,0,4,-4,2,5,18,5,4,6
3,-3,-5,0,4,-4,2,5,19,5,4,6
3,-3,-5,0,4,-4,2,5,20,5,4,5
3,-3,-5,1,4,-4,2,5,21,5,4,5
3,-3,-5,1,4,-4,3,5,22,5,3,4
3,-3,-5,1,4,-4,3,5,23,5,3,4
3,-3,-5,1,3,-4,3,5,23,5,2,4
3,-3,-5,1,3,-4,3,6,24,5,2,4
3,-3,-5,1,3,-4,3,6,24,5,2,4
3,-3,-4,1,3,-4,3,7,25,6,2,4
2,-3,-4,1,2,-4,3,7,26,6,2,4
2,-3,-4,1,2,-4,3,7,27,7,2,4
2,-3,-4,1,2,-4,3,8,27,7,2,4
2,-3,-4,1,2,-4,3,8,28,7,2,4
2,-3,-4,1,2,-4,3,8,29,7,2,4
2,-3,-4,1,2,-4,3,8,29,7,2,4
2,-3,-4,1,2,-3,3,8,30,7,2,4
2,-2,-4,1,2,-3,3,8,30,8,2,4
2,-2,-3,1,2,-3,4,8,30,8,2,4
2,-2,-3,1,2,-3,4,8,30,8,2,4
2,-2,-2,1,2,-2,4,9,31,8,2,4
2,-2,-2,1,1,-2,4,9,31,8,2,4
2,-2,-2,1,1,-2,4,9,31,8,2,4
1,-2,-2,1,1,-2,4,9,31,8,3,5
1,-2,-2,1,1,-2,4,9,31,9,3,5
1,-2,-2,1,1,-2,4,9,31,9,3,5
1,-1,-2,1,1,-2,4,9,31,10,3,5
1,-1,-2,1,1,-2,4,9,31,10,3,5
2,-1,-2,1,1,-2,4,9,31,10,3,5
2,-1,-2,1,1,-2,4,9,31,11,3,5
2,-1,-2,1,2,-2,4,9,31,11,3,5
2,-1,-2,0,2,-2,4,9,31,11,4,5
2,-1,-2,0,2,-2,4,9,31,11,4,5
2,-1,-2,0,2,-2,4,9,31,11,4,6
1,-1,-2,0,2,-2,4,9,31,11,4,6
1,-1,-2,0,2,-2,4,9,30,11,4,6
1,-1,-2,0,2,-2,4,9,30,11,4,6
1,-2,-2,1,2,-2,4,9,30,11,5,6
1,-2,-2,1,1,-2,4,9,30,11,5,6
2,-2,-2,1,1,-2,4,9,29,11,5,6
2,-2,-2,1,2,-2,4,9,29,11,5,6
2,-2,-3,1,2,-2,4,9,28,11,5,6
2,-2,-3,1,2,-2,4,9,28,11,5,6
2,-2,-3,1,2,-2,4,9,27,11,6,6
2,-2,-3,1,2,-2,4,9,27,11,6,6
2,-2,-3,1,2,-2,4,9,27,11,6,6
2,-2,-3,1,2,-2,4,9,26,11,6,6
2,-2,-3,1,2,-2,4,9,26,11,6,7
2,-2,-3,1,2,-2,4,9,25,11,6,7
2,-2,-3,1,2,-2,4,9,25,12,7,7
2,-2,-3,0,3,-2,4,9,25,12,7,7
2,-2,-4,0,3,-2,4,8,24,12,7,7
2,-2,-4,0,3,-2,4,8,24,12,7,7
2,-3,-4,1,3,-2,4,8,24,12,7,7
2,-3,-4,1,3,-2,4,8,23,12,7,7
2,-3,-4,1,3,-3,4,8,23,12,7,7
2,-3,-4,1,3,-3,4,8,23,12,7,7
3,-3,-5,1,4,-3,4,8,22,12,7,7
3,-3,-5,1,4,-3,4,7,22,12,7,7
3,-3,-5,1,5,-3,4,7,21,12,7,7
3,-3,-6,1,5,-4,4,7,21,12,7,7
4,-3,-6,1,5,-4,4,7,21,12,7,7
4,-3,-6,1,5,-4,4,8,21,12,7,7
4,-3,-6,1,5,-4,4,8,20,12,7,7
4,-3,-6,1,4,-4,4,8,20,12,7,7
4,-3,-6,1,4,-4,4,8,20,12,7,8
4,-3,-6,1,4,-4,4,8,20,12,7,8
4,-3,-6,1,4,-5,4,8,20,12,7,8
4,-3,-6,1,4,-5,4,8,19,12,7,8
4,-3,-6,1,5,-5,4,7,19,12,7,8
4,-3,-6,1,5,-5,4,7,18,12,7,8
4,-3,-7,1,5,-5,4,7,18,12,7,8
4,-3,-7,1,5,-5,4,7,18,12,7,8
4,-3,-7,1,5,-5,4,7,18,12,7,8
4,-3,-7,1,5,-5,4,7,18,12,7,8
4,-3,-7,1,5,-5,4,7,18,12,7,8
4,-3,-6,1,4,-5,4,7,18,12,8,8
3,-3,-6,1,4,-5,4,7,18,12,8,8
3,-3,-6,1,4,-5,4,7,18,12,8,8
3,-3,-6,1,4,-4,4,7,18,12,8,8
3,-3,-6,1,4,-4,4,7,18,12,8,8
3,-3,-6,1,4,-4,4,7,18,12,8,8
3,-3,-6,1,4,-4,4,7,18,12,8,8
3,-3,-6,1,4,-4,4,7,17,12,8,8
3,-3,-6,1,4,-4,4,7,17,12,8,8
3,-3,-6,1,4,-4,4,7,17,12,8,8
3,-3,-6,1,4,-4,4,7,17,12,8,8
3,-3,-6,1,4,-4,4,7,17,12,8,8
3,-3,-6,1,4,-4,4,7,17,12,8,8
3,-3,-6,2,4,-4,4,7,17,12,8,8
3,-3,-6,2,4,-4,4,8,17,12,8,8
3,-3,-6,2,4,-4,4,8,17,13,8,8
3,-3,-6,2,4,-4,4,8,17,13,8,8
3,-3,-6,2,4,-4,4,8,17,13,8,8
3,-3,-6,2,4,-4,4,8,17,13,8,8
3,-3,-7,2,4,-5,5,9,17,13,8,8
3,-3,-7,2,5,-5,5,9,18,14,8,8
3,-3,-7,2,5,-5,5,10,19,14,8,8
3,-4,-8,2,6,-6,5,10,19,14,8,8
4,-5,-9,2,6,-7,5,10,19,13,7,7
4,-6,-10,2,7,-8,5,10,18,13,7,6
4,-6,-11,2,7,-8,4,9,17,12,6,6
4,-7,-11,2,8,-9,4,8,15,11,6,5
4,-7,-12,2,8,-9,4,7,14,11,5,5
5,-7,-12,2,8,-9,3,6,13,10,5,5
5,-7,-12,2,8,-9,2,5,12,10,5,5
5,-6,-11,2,8,-8,1,5,12,10,5,5
6,-5,-11,1,8,-8,1,5,13,11,6,6
6,-5,-11,1,9,-8,0,5,13,11,6,6
7,-4,-12,0,9,-8,0,6,14,12,7,7
7,-4,-12,0,10,-8,0,7,15,13,8,7
8,-5,-13,0,10,-8,0,8,15,13,8,7
9,-5,-14,0,11,-9,0,8,15,13,7,7
9,-6,-15,0,12,-10,0,9,15,13,7,6
9,-7,-16,0,12,-11,1,9,15,13,7,6
9,-7,-17,0,13,-12,1,9,15,12,7,6
9,-8,-17,0,13,-13,1,9,15,12,7,6
9,-8,-17,0,13,-13,1,9,14,12,7,6
8,-8,-17,1,12,-12,1,9,14,12,6,6
8,-8,-16,1,11,-12,1,9,13,12,6,6
8,-7,-15,1,11,-11,1,9,13,12,6,6
8,-7,-14,1,10,-11,1,8,13,12,7,7
6,-7,-13,2,9,-10,2,8,13,12,7,7
4,-7,-11,2,7,-9,3,7,13,12,7,8
3,-7,-10,3,6,-8,4,7,13,12,7,8
2,-7,-9,3,5,-8,5,7,14,13,8,8
2,-7,-9,3,5,-8,5,7,14,13,8,8
2,-6,-8,3,4,-7,5,6,14,13,8,9
2,-6,-8,3,4,-7,5,6,14,13,8,9
2,-6,-8,3,4,-7,5,7,15,13,8,9
2,-6,-8,3,5,-7,5,7,15,14,8,9
2,-6,-8,3,5,-7,5,7,15,14,8,9
2,-5,-8,2,5,-7,5,7,15,13,8,9
2,-5,-8,2,5,-6,5,7,15,13,8,9
2,-5,-7,2,5,-6,5,7,15,13,8,9
2,-5,-7,2,4,-6,5,7,15,14,8,9
2,-4,-6,2,4,-5,5,7,15,14,8,9
2,-4,-7,2,4,-5,5,7,15,14,8,9
2,-4,-7,2,4,-5,5,7,15,14,8,9
2,-4,-7,2,4,-5,5,7,15,14,8,9
2,-4,-7,2,4,-6,5,8,16,14,8,8
2,-5,-8,2,5,-6,5,9,17,14,8,8
2,-5,-8,2,5,-7,5,11,21,15,7,7
3,-5,-9,2,6,-7,5,13,26,16,7,6
4,-6,-10,2,7,-8,5,15,32,20,8,6
5,-5,-12,1,8,-9,4,16,36,26,11,7
8,-4,-13,0,10,-9,3,17,41,36,16,10
12,-1,-14,-4,13,-8,0,19,47,50,24,14
17,1,-16,-8,16,-8,-2,21,53,66,33,19
21,4,-16,-12,18,-7,-6,21,53,83,43,24
26,8,-17,-16,21,-5,-10,18,45,103,55,30
32,14,-17,-22,24,-2,-16,13,27,124,70,39
38,20,-19,-28,29,0,-24,4,-1,143,86,48
45,24,-21,-33,33,1,-31,-6,-39,156,100,57
50,25,-26,-36,38,0,-38,-17,-82,159,110,63
55,22,-34,-37,44,-6,-43,-28,-126,151,112,65
57,14,-44,-34,51,-15,-46,-37,-167,132,106,62
58,3,-55,-29,56,-26,-48,-47,-205,103,93,56
56,-7,-63,-23,59,-35,-50,-57,-237,67,78,49
53,-16,-68,-17,60,-42,-50,-66,-264,27,60,42
48,-24,-72,-11,60,-49,-50,-74,-285,-12,41,34
42,-33,-76,-4,59,-55,-48,-81,-299,-51,22,25
36,-41,-78,3,57,-60,-44,-85,-302,-84,1,15
29,-50,-79,11,54,-64,-38,-86,-296,-109,-19,2
21,-59,-81,20,51,-70,-31,-84,-282,-127,-39,-13
14,-70,-84,28,49,-77,-24,-80,-261,-138,-59,-30
8,-79,-87,35,48,-83,-16,-73,-235,-143,-75,-45
4,-85,-89,41,46,-87,-10,-64,-207,-142,-86,-56
0,-88,-89,44,45,-89,-4,-55,-180,-137,-90,-62
-2,-89,-87,46,42,-88,0,-46,-154,-128,-90,-64
-5,-87,-82,47,39,-85,3,-38,-130,-116,-86,-64
-7,-82,-75,46,34,-79,6,-31,-108,-103,-80,-61
-10,-76,-66,45,28,-71,9,-26,-88,-89,-73,-56
-13,-69,-56,42,21,-63,11,-22,-71,-76,-64,-50
-15,-62,-47,39,15,-55,13,-18,-57,-64,-56,-44
-16,-57,-41,37,12,-49,14,-15,-44,-55,-50,-39
-16,-52,-36,34,9,-44,14,-12,-33,-47,-44,-35
-16,-47,-31,32,8,-39,14,-9,-24,-40,-39,-32
-15,-41,-27,29,6,-35,14,-7,-17,-34,-34,-28
-14,-36,-23,26,5,-30,13,-5,-10,-28,-30,-25
-12,-31,-19,23,4,-25,12,-4,-5,-22,-26,-21
-11,-26,-16,20,2,-21,11,-2,-1,-16,-21,-16
-10,-21,-11,17,1,-16,11,-1,3,-11,-16,-12
-9,-16,-7,14,-1,-11,10,0,7,-7,-11,-8
-8,-13,-5,11,-2,-9,10,2,11,-4,-7,-4
-8,-11,-3,10,-2,-7,10,4,15,-1,-4,-1
-8,-8,-1,9,-3,-5,10,6,18,1,-2,1
-8,-6,1,8,-4,-3,10,6,20,2,-2,1
-7,-3,3,7,-5,0,10,7,20,3,-1,1
-7,-1,5,6,-6,1,9,7,21,4,-1,1
-7,0,6,5,-6,2,9,7,21,5,0,2
-7,0,6,4,-7,3,9,7,22,6,1,3
-7,0,7,4,-7,3,9,7,23,6,2,3
-7,0,7,4,-7,3,9,8,24,7,2,4
-7,0,6,4,-7,2,9,8,24,7,2,4
-7,0,6,4,-7,2,9,9,25,7,2,4
-7,0,7,4,-7,3,9,9,25,7,2,4
-7,2,8,3,-8,5,9,8,25,7,2,4
-7,3,10,2,-8,6,9,8,25,7,2,4
-7,4,10,2,-8,7,9,8,25,7,2,4
-7,5,11,1,-8,8,9,8,25,7,2,4
-7,5,11,1,-9,8,9,8,25,8,2,4
-7,5,11,1,-9,8,9,8,26,8,3,5
-7,4,11,2,-9,7,9,8,26,9,3,5
-7,4,11,2,-9,7,9,8,26,9,3,5
-7,4,12,2,-9,7,9,8,26,10,3,5
-7,4,12,2,-9,8,9,8,26,10,3,5
-7,5,12,1,-9,8,9,8,26,10,3,5
-7,6,13,1,-10,9,9,8,26,10,3,5
-7,7,14,0,-11,10,9,8,26,10,3,5
-7,8,15,0,-11,11,9,8,26,10,3,5
-7,8,16,0,-11,12,9,8,26,10,3,5
-7,9,16,0,-11,12,8,7,26,10,3,4
-7,10,17,-1,-12,13,8,7,26,9,3,4
-7,11,18,-1,-12,14,7,7,26,9,3,4
-7,11,18,-1,-13,14,6,7,26,9,3,4
-7,12,19,-1,-13,15,6,7,26,9,3,4
-7,13,20,-2,-14,16,6,6,26,8,2,3
-7,15,22,-3,-15,18,6,6,26,8,2,3
-7,16,23,-3,-15,19,5,5,25,7,1,2
-7,17,25,-4,-16,20,5,5,25,7,1,2
-7,18,26,-4,-16,21,5,5,25,7,1,1
-7,18,26,-5,-16,22,5,5,24,6,1,1
-8,19,27,-5,-17,22,4,4,24,6,0,1
-8,20,28,-6,-17,24,4,4,23,5,0,1
-8,22,29,-6,-18,25,3,3,22,4,0,0
-8,22,30,-6,-19,26,3,3,21,3,0,0
-8,23,31,-6,-19,26,3,2,21,2,-1,0
-7,24,31,-7,-19,27,2,2,20,0,-1,0
-7,24,31,-7,-19,27,2,1,19,0,-1,1
-8,25,32,-7,-20,28,2,1,19,-1,-1,1
-8,25,32,-7,-20,28,1,1,18,-1,-1,1
-8,25,32,-8,-20,28,1,1,17,-2,-1,1
-8,25,33,-8,-20,29,1,1,17,-2,-2,1
-7,26,33,-8,-20,29,1,0,16,-2,-2,1
-6,27,33,-9,-20,30,0,0,14,-3,-3,1
-5,27,32,-10,-19,30,0,-1,13,-4,-4,1
-5,28,32,-10,-19,30,-1,-1,12,-4,-5,1
-5,28,33,-10,-19,30,-1,-2,11,-5,-5,1
-5,28,33,-11,-18,30,-2,-2,11,-5,-5,1
-5,28,33,-11,-18,30,-2,-3,10,-5,-5,0
-5,28,33,-11,-18,30,-2,-3,9,-6,-6,0
-5,28,33,-11,-18,30,-2,-3,8,-7,-6,0
-5,29,33,-11,-18,31,-2,-3,7,-7,-7,-1
-5,29,33,-11,-19,31,-2,-3,6,-8,-7,-1
-5,29,33,-11,-19,31,-2,-4,5,-8,-7,-1
-5,29,32,-11,-19,31,-2,-4,4,-8,-7,-1
-5,28,32,-11,-19,30,-2,-4,3,-8,-7,-1
-5,27,31,-11,-18,29,-2,-4,3,-8,-7,-1
-4,27,31,-11,-18,28,-2,-5,2,-8,-8,-1
-4,27,31,-11,-17,29,-3,-5,1,-9,-8,-2
-4,28,31,-11,-17,29,-3,-5,0,-10,-9,-2
-4,28,30,-11,-16,29,-3,-5,-1,-10,-9,-2
-3,28,30,-11,-16,29,-4,-6,-2,-11,-9,-2
-3,28,30,-11,-16,29,-4,-6,-2,-11,-8,-2
-2,27,29,-11,-15,28,-4,-6,-3,-12,-8,-2
-2,27,29,-11,-15,28,-5,-6,-3,-12,-8,-2
-2,27,29,-12,-15,28,-5,-6,-3,-12,-8,-2
-2,27,29,-12,-14,28,-5,-6,-4,-12,-7,-1
-2,27,28,-12,-14,28,-5,-6,-4,-12,-7,-1
-2,27,28,-12,-14,28,-5,-6,-5,-12,-7,-1
-1,27,28,-12,-14,28,-5,-6,-5,-12,-7,-1
-1,27,28,-12,-14,28,-5,-6,-5,-12,-7,-1
0,27,27,-12,-14,27,-5,-6,-5,-12,-7,-1
0,27,27,-13,-14,27,-5,-6,-5,-12,-7,-1
0,28,27,-13,-14,28,-5,-6,-5,-11,-7,-2
0,28,27,-13,-13,28,-5,-6,-5,-11,-7,-2
0,27,26,-13,-13,27,-5,-6,-5,-11,-7,-2
0,27,25,-13,-12,26,-5,-6,-6,-11,-7,-2
0,26,25,-13,-12,25,-5,-7,-6,-11,-7,-2
1,26,24,-13,-11,25,-5,-7,-6,-11,-7,-2
1,26,24,-13,-11,25,-5,-7,-6,-10,-6,-3
1,26,24,-13,-11,25,-5,-7,-6,-10,-6,-3
1,25,23,-13,-10,24,-6,-7,-6,-10,-6,-3
1,25,22,-12,-10,24,-6,-7,-6,-9,-6,-3
1,25,22,-12,-10,23,-6,-7,-6,-9,-6,-3
0,25,23,-12,-10,23,-6,-7,-7,-9,-6,-2
0,24,23,-12,-10,23,-6,-7,-7,-10,-6,-2
1,24,23,-12,-10,23,-6,-7,-7,-10,-6,-2
2,23,21,-12,-9,22,-6,-7,-7,-9,-6,-2
2,23,21,-12,-9,22,-6,-7,-8,-9,-6,-2
2,23,20,-12,-8,21,-6,-7,-8,-10,-6,-2
2,22,19,-12,-8,21,-6,-7,-8,-10,-6,-2
2,22,19,-12,-7,21,-6,-7,-9,-11,-6,-2
2,22,19,-12,-7,21,-6,-8,-9,-11,-6,-2
2,22,19,-12,-7,20,-7,-8,-10,-11,-6,-2
2,22,19,-12,-7,20,-7,-8,-10,-12,-6,-2
2,21,18,-12,-7,20,-7,-8,-10,-12,-6,-2
2,21,18,-12,-7,20,-7,-8,-10,-12,-6,-2
2,21,18,-12,-7,20,-8,-8,-11,-12,-6,-2
3,21,17,-12,-6,19,-8,-8,-11,-12,-6,-2
3,21,16,-12,-6,19,-8,-8,-12,-12,-6,-2
3,21,16,-12,-5,18,-8,-8,-12,-12,-6,-2
4,21,16,-12,-5,18,-8,-8,-12,-12,-7,-1
4,21,16,-12,-5,18,-8,-8,-13,-12,-7,-1
4,21,16,-12,-5,18,-8,-8,-14,-12,-7,-1
5,21,15,-12,-5,17,-8,-8,-14,-12,-7,-1
5,21,15,-12,-5,17,-8,-8,-15,-12,-7,-1
5,21,15,-13,-5,18,-8,-9,-15,-12,-6,-1
5,22,16,-13,-5,18,-9,-9,-16,-12,-6,-1
4,21,16,-13,-5,18,-9,-9,-16,-12,-5,-1
4,21,15,-13,-5,18,-9,-9,-16,-12,-5,-1
5,21,15,-13,-5,18,-9,-9,-17,-12,-5,-1
5,21,15,-13,-4,18,-9,-9,-17,-12,-5,-1
5,20,14,-13,-4,17,-9,-9,-17,-12,-5,-1
5,19,13,-13,-3,17,-9,-9,-17,-12,-5,-1
5,19,13,-12,-3,16,-9,-9,-18,-13,-5,-1
4,19,14,-12,-4,16,-9,-9,-18,-13,-6,-1
4,19,14,-12,-4,16,-9,-9,-18,-14,-6,-1
5,19,13,-13,-3,16,-9,-10,-18,-14,-6,-1
5,19,13,-13,-3,16,-9,-10,-19,-14,-6,-1
6,19,13,-13,-2,16,-9,-10,-19,-13,-6,-1
6,19,12,-13,-2,16,-9,-10,-19,-13,-6,-1
6,19,12,-13,-2,16,-9,-9,-18,-12,-6,-1
6,19,12,-13,-2,15,-9,-9,-18,-11,-6,-1
7,19,11,-13,-2,15,-9,-8,-17,-10,-6,-1
7,19,11,-13,-1,14,-9,-8,-17,-10,-6,-2
7,19,11,-13,-1,14,-9,-8,-16,-10,-6,-2
7,18,11,-13,-1,14,-9,-7,-16,-10,-6,-2
6,18,11,-12,-1,14,-9,-7,-16,-10,-6,-2
6,18,11,-12,-2,14,-9,-7,-15,-10,-6,-2
6,18,11,-12,-2,14,-9,-7,-15,-11,-6,-2
6,18,11,-12,-2,15,-8,-7,-14,-11,-5,-2
6,18,12,-12,-2,15,-8,-7,-14,-11,-5,-1
5,18,12,-12,-3,15,-8,-7,-13,-11,-5,-1
5,18,11,-12,-2,15,-8,-7,-12,-11,-5,-1
5,18,11,-12,-2,15,-8,-7,-11,-11,-5,-1
5,18,11,-12,-2,15,-8,-7,-10,-11,-5,-1
5,17,11,-11,-2,15,-7,-7,-10,-11,-5,-1
6,18,11,-11,-2,15,-7,-7,-9,-10,-6,-1
6,18,11,-11,-2,15,-7,-7,-8,-10,-6,-2
5,18,12,-11,-3,15,-7,-6,-7,-10,-7,-3
4,18,13,-11,-4,15,-6,-6,-6,-10,-7,-3
4,17,13,-11,-4,15,-5,-6,-4,-10,-7,-3
4,17,13,-11,-4,15,-5,-6,-3,-10,-7,-4
4,18,13,-11,-4,15,-5,-5,-1,-10,-7,-4
3,18,14,-11,-5,16,-5,-5,0,-9,-7,-4
3,18,15,-11,-5,16,-5,-4,1,-9,-8,-4
3,18,15,-11,-6,17,-4,-4,2,-8,-8,-4
3,17,15,-11,-6,16,-4,-3,4,-7,-8,-4
2,17,14,-10,-6,16,-3,-3,6,-6,-8,-4
2,17,15,-10,-6,16,-3,-3,8,-5,-8,-4
1,17,15,-9,-6,16,-3,-3,9,-5,-8,-4
1,17,15,-9,-6,16,-3,-3,11,-4,-8,-4
1,17,15,-9,-6,16,-3,-2,12,-4,-8,-4
1,17,15,-9,-6,16,-2,-2,14,-4,-7,-4
1,17,16,-9,-7,16,-2,-1,15,-3,-7,-5
0,17,16,-9,-8,16,-2,-1,17,-3,-8,-5
0,17,17,-9,-8,16,-2,-1,18,-2,-8,-5
0,17,17,-9,-8,17,-2,0,20,-2,-8,-5
0,17,17,-9,-8,17,-1,0,21,-2,-8,-5
0,17,17,-9,-8,17,-1,0,23,-2,-8,-5
0,17,18,-9,-9,17,-1,1,24,-2,-7,-5
0,17,18,-9,-9,18,0,1,25,-2,-7,-4
0,17,19,-9,-9,18,0,1,26,-2,-6,-4
-1,18,19,-9,-10,18,0,1,28,-1,-6,-3
-1,18,19,-9,-10,19,0,2,29,-1,-6,-3
-1,19,20,-9,-10,19,0,2,31,0,-6,-2
-1,20,20,-9,-10,20,0,3,32,1,-6,-2
-1,20,21,-9,-11,20,0,3,33,2,-6,-2
-1,20,21,-9,-11,21,0,3,33,3,-6,-2
-1,20,21,-9,-11,21,1,3,34,3,-6,-2
-1,19,21,-9,-11,20,1,3,35,4,-6,-2
-2,19,21,-9,-11,20,1,3,36,4,-6,-2
-2,19,21,-8,-12,20,1,3,37,4,-6,-2
-2,19,21,-8,-12,20,1,3,37,4,-6,-2
-2,19,21,-8,-12,20,1,4,37,3,-6,-2
-3,19,21,-8,-12,20,1,4,37,4,-6,-2
-3,19,21,-8,-12,20,1,4,38,4,-5,-2
-3,19,21,-8,-12,20,1,4,38,4,-5,-2
-2,19,21,-8,-11,20,1,4,38,5,-5,-2
-2,19,21,-8,-11,20,1,4,38,5,-5,-2
-2,19,21,-8,-11,20,1,4,38,6,-5,-2
-2,19,21,-8,-11,20,1,4,39,6,-5,-1
-2,20,21,-8,-12,21,1,4,39,7,-5,-1
-2,20,21,-8,-12,21,1,4,39,7,-4,-1
-2,19,21,-8,-12,20,1,4,39,8,-4,-1
-2,19,20,-8,-12,20,1,4,39,8,-3,-1
-2,19,20,-9,-12,20,1,4,38,9,-3,-1
-2,19,20,-9,-11,20,1,4,38,9,-2,-1
-2,19,20,-9,-11,20,1,5,38,9,-2,-1
-2,18,20,-9,-11,19,1,5,38,9,-2,-1
-2,18,20,-8,-10,19,1,5,38,9,-2,-1
-1,18,19,-8,-10,18,1,5,38,9,-2,-1
-1,17,19,-8,-10,18,1,5,37,9,-1,0
-1,17,18,-8,-10,18,1,5,36,9,-1,0
-1,17,18,-8,-10,18,1,5,35,9,-1,0
-1,17,18,-8,-9,17,1,5,35,8,-1,0
-1,17,18,-8,-9,17,1,5,34,8,-1,0
0,17,17,-8,-9,17,0,5,33,7,0,0
0,16,17,-8,-8,16,0,5,33,7,0,0
0,16,16,-8,-8,16,0,4,32,7,0,0
1,16,15,-8,-7,15,0,4,32,7,1,0
1,16,15,-8,-7,15,0,4,32,8,1,0
0,16,16,-8,-7,15,0,5,31,8,1,0
0,16,16,-8,-7,15,0,5,30,9,1,0
0,16,16,-8,-7,15,0,5,29,9,1,1
0,16,15,-8,-7,15,0,5,29,9,1,1
0,15,15,-8,-7,15,0,5,28,9,1,1
0,15,14,-7,-7,14,0,5,27,8,1,1
1,15,14,-7,-6,14,0,5,27,8,1,1
1,14,13,-7,-6,13,0,5,27,9,1,1
1,14,13,-7,-6,13,0,5,26,9,1,0
1,14,12,-7,-5,13,0,5,26,10,1,0
2,14,12,-7,-5,13,-1,5,25,11,1,0
2,14,11,-7,-4,13,-1,5,25,11,1,0
2,14,11,-7,-4,12,-1,5,24,11,1,0
2,13,11,-7,-4,12,-1,5,23,10,1,0
2,13,11,-7,-4,12,-1,4,22,10,1,0
2,13,11,-7,-5,12,-2,4,21,9,1,0
2,14,12,-7,-5,13,-2,4,21,8,2,0
2,14,12,-8,-5,13,-2,4,20,7,2,0
2,15,12,-8,-5,14,-2,4,20,6,3,0
2,15,12,-8,-5,14,-2,4,19,6,3,0
2,15,12,-8,-5,14,-2,4,19,6,3,0
2,15,12,-8,-5,14,-2,4,18,6,3,0
2,15,12,-8,-5,14,-2,4,18,6,3,0
3,15,12,-8,-5,14,-2,4,17,6,2,0
3,15,12,-8,-4,14,-3,3,17,6,2,0
3,14,11,-8,-4,13,-3,3,17,6,1,0
3,14,11,-8,-5,13,-3,3,17,6,1,0
2,14,12,-8,-5,13,-3,3,17,6,1,0
2,14,12,-8,-5,13,-3,3,17,6,1,0
2,15,12,-8,-5,13,-3,3,16,6,1,0
2,15,13,-8,-5,13,-2,3,16,6,2,0
2,16,13,-8,-6,14,-2,3,16,6,2,0
2,16,14,-8,-6,15,-1,3,17,7,3,0
3,17,14,-9,-6,15,-1,3,17,8,4,0
3,18,14,-10,-6,16,-1,3,18,9,5,1
3,19,15,-11,-6,17,-1,4,19,11,6,2
3,20,16,-12,-7,18,-2,4,19,12,6,3
4,21,16,-12,-7,19,-2,4,20,13,6,4
4,21,16,-13,-6,18,-3,4,20,13,6,4
5,20,15,-12,-5,17,-3,4,19,12,6,4
5,19,14,-12,-4,16,-4,3,18,12,6,3
6,18,12,-11,-3,15,-4,3,17,11,6,3
6,18,11,-11,-3,14,-5,2,15,10,6,3
6,17,11,-11,-3,14,-6,2,14,9,6,3
6,17,10,-11,-2,14,-6,1,13,9,6,2
7,17,9,-11,-1,13,-7,1,13,9,6,2
8,16,8,-11,0,12,-7,2,13,9,6,2
8,15,6,-11,0,11,-8,2,13,9,6,2
9,14,4,-11,2,9,-8,3,13,9,6,2
10,13,2,-11,3,8,-8,3,13,8,5,1
11,12,1,-11,4,7,-8,3,12,7,5,1
10,11,0,-11,5,6,-8,3,12,6,4,0
10,10,-1,-10,5,5,-7,4,11,5,3,0
11,10,-1,-10,6,4,-7,4,11,4,3,0
11,9,-2,-10,6,4,-7,4,10,4,2,-1
11,9,-2,-10,6,3,-7,4,10,4,2,-1
11,8,-3,-10,7,3,-7,3,9,4,2,-2
11,8,-3,-9,7,3,-7,3,9,5,2,-2
11,9,-2,-9,6,3,-6,3,10,6,2,-2
10,9,-1,-9,5,4,-5,3,10,7,3,-2
8,9,0,-8,3,4,-4,3,10,7,3,-2
6,9,1,-7,2,5,-3,3,11,7,3,-1
5,9,3,-7,0,5,-2,3,11,7,3,-1
4,9,4,-6,0,6,-2,3,11,7,3,0
4,9,5,-6,-1,7,-2,3,11,6,3,0
3,9,6,-5,-2,7,-1,3,11,5,3,0
3,9,6,-5,-2,8,-1,3,11,5,3,0
2,9,6,-5,-2,8,0,3,11,5,3,0
2,8,6,-5,-2,7,0,3,11,5,3,0
2,8,6,-4,-2,7,0,4,11,6,3,0
1,7,6,-4,-3,7,0,4,11,6,3,0
1,7,6,-4,-3,7,0,4,11,7,3,0
1,7,6,-3,-3,7,0,4,12,8,4,0
1,7,6,-3,-3,7,0,4,12,9,4,0
1,7,6,-4,-3,7,0,4,12,9,4,0
2,7,5,-4,-3,6,0,4,12,9,4,0
2,7,4,-4,-2,6,0,4,12,8,3,-1
1,7,4,-4,-2,6,0,4,12,7,3,-1
1,7,5,-4,-2,6,0,4,12,5,3,-1
1,7,6,-4,-3,6,0,4,12,4,4,-1
1,7,6,-4,-3,6,0,4,12,4,4,0
1,8,7,-4,-3,7,0,4,12,5,5,0
1,8,7,-4,-3,7,0,4,12,6,5,0
1,8,7,-4,-3,7,0,4,12,7,5,0
1,7,7,-4,-3,7,0,4,13,8,5,0
1,7,6,-4,-2,6,1,5,14,9,4,0
1,6,4,-3,-1,5,1,7,17,9,3,-1
2,5,3,-3,-1,4,1,10,22,9,2,-3
3,5,2,-3,0,3,1,12,27,12,2,-3
4,6,1,-5,1,3,0,13,32,17,5,-3
7,7,1,-7,2,3,-1,14,36,25,10,0
10,9,0,-9,5,4,-4,15,42,37,17,3
14,11,-2,-12,8,4,-7,17,49,53,26,7
18,14,-3,-16,11,5,-10,18,53,69,34,12
22,17,-4,-20,14,6,-14,17,50,87,44,17
28,22,-5,-25,17,8,-19,14,39,107,55,24
34,27,-6,-31,21,10,-26,8,18,127,70,33
41,32,-8,-37,25,11,-33,0,-13,144,86,42
47,35,-11,-41,29,11,-39,-10,-54,152,98,49
52,34,-17,-43,34,9,-45,-21,-99,150,105,54
55,29,-26,-42,41,2,-49,-30,-143,138,103,53
57,20,-37,-38,47,-8,-51,-39,-183,114,94,48
56,9,-47,-32,51,-19,-53,-48,-219,80,79,41
53,0,-54,-26,53,-27,-54,-58,-251,40,62,33
49,-8,-59,-20,54,-34,-54,-69,-278,-1,44,26
44,-16,-61,-14,53,-39,-53,-78,-298,-42,26,18
38,-24,-62,-7,50,-43,-50,-85,-310,-78,7,9
30,-32,-62,1,46,-47,-45,-88,-310,-107,-12,-1
22,-41,-63,9,43,-52,-39,-88,-300,-128,-33,-14
15,-52,-67,18,41,-59,-31,-85,-282,-143,-55,-31
10,-62,-72,26,41,-67,-23,-79,-258,-151,-75,-49
5,-70,-76,33,40,-73,-16,-71,-231,-152,-89,-63
1,-75,-76,37,38,-76,-11,-63,-203,-149,-97,-72
-1,-77,-76,39,37,-77,-6,-54,-176,-142,-99,-76
-3,-76,-73,40,34,-75,-3,-45,-150,-131,-96,-77
-5,-72,-67,39,30,-70,0,-37,-125,-118,-89,-74
-8,-67,-59,38,25,-63,3,-30,-103,-103,-80,-68
-11,-60,-49,36,19,-54,6,-25,-83,-89,-70,-62
-13,-53,-40,34,13,-46,8,-21,-66,-76,-62,-56
-15,-47,-32,31,9,-39,9,-18,-52,-65,-54,-50
-15,-42,-27,29,6,-34,9,-15,-40,-57,-49,-46
-15,-37,-23,26,4,-30,9,-12,-31,-51,-44,-42
-14,-33,-18,24,3,-26,9,-9,-22,-44,-39,-38
-14,-28,-14,21,0,-22,9,-7,-16,-37,-34,-34
-14,-23,-10,19,-1,-17,8,-5,-10,-30,-29,-29
-12,-18,-6,16,-2,-12,8,-3,-5,-23,-23,-25
-11,-13,-3,13,-3,-8,8,-2,0,-17,-18,-20
-10,-9,0,10,-4,-4,8,-1,4,-12,-14,-16
-9,-5,3,7,-5,-1,7,0,8,-8,-11,-13
-8,-2,5,5,-6,1,7,2,12,-6,-8,-11
-7,0,7,3,-7,3,7,3,14,-4,-6,-9
-7,1,8,2,-7,5,7,4,16,-3,-5,-9
-7,2,9,2,-7,6,7,5,18,-2,-3,-8
-7,3,10,2,-8,7,7,6,19,-1,-1,-7
-7,4,11,1,-9,7,7,6,20,1,0,-6
-7,5,11,1,-9,8,7,7,21,2,1,-4
-6,5,12,0,-9,8,7,7,22,3,2,-4
-7,5,12,0,-10,9,7,8,22,4,1,-3
-7,5,12,0,-10,9,7,8,23,4,1,-3
-7,5,12,1,-10,9,7,8,23,4,0,-4
-8,5,13,1,-10,9,7,8,24,4,0,-4
-7,6,13,0,-10,9,7,8,24,5,1,-4
-7,6,13,0,-10,9,7,8,24,5,2,-4
-7,6,13,0,-10,9,7,8,25,6,3,-4
-7,6,14,0,-10,9,8,8,25,6,4,-4
-8,6,14,0,-11,10,8,8,25,6,4,-4
-8,6,14,0,-11,10,8,8,25,6,4,-4
-8,6,14,0,-11,10,8,9,25,5,4,-4
-8,7,15,0,-11,11,8,9,25,5,4,-4
-8,7,16,0,-12,11,7,9,25,5,4,-3
-9,7,16,0,-12,11,7,9,26,5,4,-3
-9,7,16,0,-12,11,7,9,26,5,4,-2
-9,7,16,0,-12,11,7,9,27,5,4,-2
-9,7,16,0,-12,11,7,9,27,6,4,-2
-9,8,16,0,-13,12,7,9,27,6,4,-2
-9,8,17,0,-13,12,7,9,27,6,4,-2
-9,8,17,0,-13,12,7,9,27,6,4,-2
-9,8,17,0,-13,12,7,9,27,7,4,-2
-9,8,17,0,-12,12,8,9,27,7,4,-2
-9,8,16,0,-12,12,8,10,28,8,4,-2
-9,8,16,0,-12,12,8,10,28,9,5,-2
-9,8,16,0,-11,12,8,10,27,9,5,-2
-9,8,15,0,-11,12,8,10,27,10,5,-2
-9,8,16,1,-12,12,8,10,27,10,5,-2
-10,8,16,1,-13,12,8,10,27,10,5,-2
-10,7,17,2,-13,12,8,10,26,9,5,-3
-10,7,17,2,-13,12,8,10,26,9,5,-3
-10,7,17,2,-13,12,8,10,26,8,5,-3
-10,7,17,1,-13,12,8,9,25,7,5,-3
-10,7,17,1,-13,12,8,9,24,5,5,-3
-10,7,17,1,-13,12,8,8,23,3,5,-3
-10,8,17,1,-13,12,7,8,23,2,5,-3
-10,8,17,0,-13,12,7,8,22,1,5,-3
-10,9,17,0,-13,12,7,8,22,1,4,-3
-10,9,17,0,-13,12,7,8,21,1,3,-3
-10,8,17,1,-13,13,7,8,20,1,2,-3
-10,8,17,1,-13,13,7,7,19,0,2,-3
-10,8,17,0,-13,13,7,7,18,0,2,-3
-9,9,17,0,-13,13,7,6,17,0,2,-3
-9,9,17,0,-13,13,7,6,16,1,3,-3
-9,9,17,0,-13,13,7,6,16,1,3,-3
-10,8,17,1,-13,13,7,6,15,1,4,-3
-10,8,17,1,-14,13,7,6,14,1,4,-3
-10,7,17,1,-14,13,7,5,13,0,4,-3
-10,7,17,1,-14,13,7,5,12,0,4,-3
-11,7,17,1,-14,12,7,4,10,0,3,-3
-11,7,17,2,-14,12,7,4,9,-2,3,-3
-11,7,16,2,-14,11,7,3,7,-3,2,-3
-10,7,16,2,-13,11,6,3,6,-5,2,-3
-10,7,15,2,-13,11,6,2,5,-6,2,-3
-10,7,15,2,-13,11,6,1,4,-7,2,-3
-10,7,15,2,-13,11,5,1,3,-8,2,-3
-10,7,15,2,-13,11,5,1,2,-9,2,-3
-10,6,15,2,-13,11,5,0,0,-9,3,-3
-10,6,15,2,-13,11,5,0,0,-9,2,-3
-10,5,15,2,-13,11,5,0,-1,-9,2,-2
-10,5,15,2,-13,11,5,0,-2,-9,1,-2
-10,5,15,2,-12,10,5,0,-2,-8,0,-2
-10,4,14,2,-12,10,5,0,-3,-8,0,-3
-10,4,14,2,-12,9,4,-1,-4,-9,0,-3
-10,4,13,2,-11,9,4,-1,-6,-10,0,-4
-9,4,13,2,-11,9,4,-2,-7,-11,0,-4
-9,4,13,2,-11,9,4,-2,-8,-11,0,-4
-10,4,13,2,-11,9,4,-2,-9,-11,1,-4
-9,4,12,2,-10,9,4,-2,-9,-11,1,-4
-9,4,12,2,-10,9,3,-2,-9,-11,1,-4
-9,4,12,2,-10,8,3,-2,-9,-11,1,-4
-9,4,12,2,-10,8,3,-2,-9,-12,1,-3
-9,4,12,2,-10,8,3,-2,-10,-12,1,-3
-9,3,12,2,-10,8,3,-2,-10,-13,1,-2
-9,3,11,2,-10,7,3,-2,-10,-13,1,-2
-8,3,11,2,-10,7,3,-2,-11,-13,1,-2
-8,3,10,2,-9,6,3,-2,-11,-13,1,-3
-8,2,9,2,-9,6,3,-3,-11,-13,0,-3
-8,2,9,2,-8,5,3,-3,-11,-12,0,-4
-8,2,9,2,-8,5,3,-3,-12,-12,0,-4
-8,1,9,2,-8,5,3,-3,-12,-11,-1,-4
-8,1,8,2,-8,5,3,-3,-12,-11,-1,-4
-8,1,8,3,-7,4,3,-3,-12,-11,-1,-5
-8,0,7,3,-7,4,3,-3,-12,-11,-1,-5
-8,0,7,3,-6,3,3,-3,-13,-11,0,-5
-8,0,6,3,-6,3,3,-3,-13,-12,0,-5
-8,0,6,3,-7,3,3,-3,-13,-12,0,-4
-8,0,6,4,-7,3,3,-3,-13,-13,0,-4
-8,-1,6,4,-7,2,3,-3,-13,-13,0,-4
-8,-1,6,4,-7,2,3,-3,-13,-13,0,-4
-7,-2,5,4,-7,2,3,-3,-14,-13,0,-4
-7,-2,5,4,-6,2,3,-3,-14,-13,-1,-5
-7,-2,4,4,-6,1,3,-3,-15,-13,-1,-5
-7,-2,3,4,-6,1,3,-3,-15,-14,-1,-6
-7,-2,3,4,-6,1,3,-3,-15,-14,-1,-6
-7,-3,3,4,-6,1,3,-3,-16,-15,-1,-6
-7,-3,3,4,-5,1,3,-4,-16,-15,-1,-6
-7,-3,3,4,-5,1,3,-4,-17,-15,0,-6
-8,-3,3,4,-5,0,3,-4,-17,-15,0,-5
-8,-3,3,5,-5,0,3,-4,-17,-15,0,-5
-8,-3,3,5,-5,0,3,-4,-18,-15,0,-5
-7,-3,2,5,-5,0,3,-4,-18,-16,0,-5
-7,-3,2,5,-5,0,3,-4,-19,-16,0,-5
-7,-3,1,5,-5,0,3,-4,-19,-15,0,-5
-7,-3,1,5,-5,-1,2,-4,-20,-15,0,-5
-7,-4,1,5,-4,-1,2,-4,-20,-15,0,-5
-6,-4,1,5,-4,-1,2,-4,-20,-15,0,-5
-6,-4,1,5,-4,-1,2,-4,-20,-15,0,-5
-6,-4,1,5,-4,-1,2,-4,-20,-15,0,-5
-6,-4,1,5,-4,-1,2,-5,-20,-15,0,-4
-6,-4,1,5,-4,-1,2,-5,-20,-14,0,-4
-6,-4,1,5,-4,-1,2,-5,-20,-14,0,-4
-6,-4,1,5,-4,-2,2,-5,-20,-14,0,-4
-6,-4,0,5,-4,-2,2,-5,-20,-13,0,-4
-6,-4,0,5,-4,-2,2,-5,-20,-13,0,-4
-6,-4,0,5,-3,-2,2,-5,-20,-12,0,-4
-6,-4,0,5,-3,-2,1,-5,-20,-12,0,-4
-6,-4,0,5,-3,-2,1,-5,-19,-12,0,-4
-6,-5,0,5,-3,-3,1,-5,-19,-12,0,-3
-6,-5,0,5,-3,-3,1,-5,-18,-12,0,-3
-6,-6,0,5,-3,-3,1,-4,-18,-12,0,-3
-5,-6,-1,5,-2,-3,1,-4,-18,-11,0,-3
-5,-7,-1,5,-2,-4,1,-4,-17,-11,0,-3
-5,-7,-1,5,-2,-4,1,-4,-17,-10,0,-3
-6,-7,-1,5,-2,-3,1,-4,-16,-10,0,-4
-6,-7,0,5,-3,-3,1,-3,-15,-10,0,-4
-7,-7,0,5,-3,-3,1,-3,-14,-10,0,-4
-7,-7,0,6,-4,-3,1,-3,-14,-10,0,-4
-7,-7,0,6,-4,-3,1,-3,-13,-10,0,-4
-7,-7,0,6,-4,-3,1,-3,-12,-10,0,-4
-7,-7,0,7,-4,-3,1,-3,-11,-10,0,-4
-7,-7,0,7,-4,-3,1,-2,-10,-10,0,-4
-7,-7,0,7,-4,-3,1,-2,-9,-9,0,-4
-7,-7,0,7,-4,-3,1,-1,-8,-9,0,-4
-7,-7,0,7,-4,-3,1,-1,-7,-8,0,-4
-7,-7,0,7,-3,-3,1,-1,-5,-8,0,-4
-7,-7,0,7,-3,-3,1,0,-4,-7,0,-4
-7,-7,0,7,-4,-3,1,0,-2,-7,0,-4
-8,-7,0,7,-4,-3,1,0,-1,-6,0,-4
-8,-7,1,7,-5,-2,2,0,0,-6,0,-4
-8,-7,2,7,-5,-2,2,1,1,-5,0,-4
-9,-7,2,7,-6,-1,2,1,3,-5,0,-4
-9,-7,3,7,-6,-1,2,2,4,-4,0,-4
-9,-7,3,7,-6,-1,2,2,6,-4,-1,-3
-9,-6,3,7,-6,-1,3,2,7,-3,-1,-3
-9,-6,3,7,-6,-1,3,2,9,-3,-1,-3
-9,-5,3,7,-6,0,3,2,10,-3,-1,-3
-9,-5,3,7,-6,0,3,3,12,-3,-1,-3
-9,-4,4,7,-7,0,3,3,13,-2,-1,-3
-9,-4,4,7,-7,1,3,4,15,-2,-1,-3
-9,-3,5,6,-7,1,3,4,16,-1,-1,-3
-9,-3,5,6,-7,1,3,5,17,-1,-1,-3
-9,-3,6,6,-8,2,3,5,19,0,-1,-2
-10,-3,6,6,-8,2,4,6,20,0,-1,-2
-10,-2,7,6,-9,3,4,6,22,0,0,-2
-10,-2,8,6,-9,3,4,6,23,1,0,-1
-10,-1,8,6,-9,3,4,6,24,1,0,-1
-10,-1,9,5,-9,4,4,7,25,2,0,-1
-10,0,9,5,-10,4,4,7,26,2,0,-1
-10,0,10,5,-10,5,4,7,27,3,0,0
-10,0,10,5,-10,5,4,7,28,3,0,0
-10,1,11,5,-10,6,4,7,29,4,0,0
-10,1,11,5,-10,6,4,7,30,4,0,0
-10,1,12,4,-10,7,4,7,31,4,0,0
-10,2,12,4,-11,7,4,7,32,5,0,0
-10,2,13,4,-11,8,4,7,32,5,0,0
-10,3,14,3,-12,9,3,7,33,6,0,0
-10,4,15,3,-12,10,3,7,33,6,0,0
-10,4,15,3,-13,10,3,7,34,6,0,0
-10,4,15,3,-13,10,3,8,34,6,1,1
-10,3,14,3,-12,9,3,8,35,7,1,1
-10,3,14,3,-12,9,3,8,35,7,1,1
-10,3,14,3,-13,9,4,8,36,8,2,2
-11,3,15,3,-13,10,4,9,36,8,2,2
-11,3,16,3,-14,10,4,9,36,9,3,3
-11,4,16,3,-13,10,4,9,36,9,3,3
-11,4,15,3,-13,10,4,9,36,10,3,3
-11,4,15,3,-13,10,4,9,36,10,3,3
-11,4,14,3,-13,10,4,9,36,11,3,3
-10,4,14,2,-12,10,4,9,36,11,3,3
-10,4,14,2,-12,10,4,9,36,11,3,3
-9,5,14,2,-12,10,4,9,35,11,3,3
-9,5,14,2,-12,10,3,9,35,11,3,3
-9,4,14,2,-12,10,3,9,35,11,3,3
-9,4,14,2,-12,10,3,8,34,11,3,3
-9,4,14,2,-12,10,3,8,34,11,3,3
-9,4,14,2,-12,10,3,8,33,11,3,3
-9,4,13,2,-12,9,3,8,33,11,3,3
-8,4,13,2,-11,9,3,8,32,11,3,3
-8,4,12,2,-11,8,3,8,32,11,4,3
-8,3,11,2,-10,7,2,8,32,11,4,3
-8,2,10,2,-9,7,2,8,31,11,4,3
-8,3,11,2,-9,7,1,7,30,11,4,3
-7,4,12,1,-9,8,1,7,29,11,4,2
-7,4,12,1,-9,9,1,7,28,11,4,2
-7,5,11,0,-9,9,1,7,28,11,4,2
-7,5,11,0,-9,9,1,7,27,11,4,2
-6,5,10,0,-9,8,1,7,27,11,4,2
-6,4,9,0,-8,8,1,7,26,11,4,2
-5,4,9,0,-8,7,1,7,26,11,4,2
-5,3,8,0,-8,7,1,7,26,11,4,2
-5,3,8,0,-8,6,1,7,25,11,4,2
-5,3,9,0,-8,7,1,6,25,11,4,2
-5,3,9,0,-8,7,1,6,24,11,4,2
-5,3,9,0,-8,7,1,6,24,11,4,3
-5,3,9,0,-8,7,1,6,23,11,4,3
-5,3,8,0,-7,7,1,6,23,11,4,3
-5,4,8,0,-7,7,0,6,22,11,4,3
-5,4,8,0,-7,7,0,5,22,11,5,3
-4,4,8,0,-6,6,0,5,21,11,5,3
-4,3,7,0,-6,6,0,5,21,11,5,3
-3,4,7,0,-6,6,0,5,21,11,5,3
-3,5,8,-1,-6,7,0,4,20,10,4,2
-3,5,8,-1,-6,7,0,4,20,10,4,2
-3,4,7,0,-6,6,0,5,20,11,5,3
-3,3,6,0,-6,5,0,5,20,11,5,3
-4,2,6,0,-6,5,0,5,20,11,6,4
-4,2,6,0,-7,5,0,5,19,11,6,4
-4,2,6,0,-7,5,0,5,19,11,6,4
-4,2,6,0,-6,4,0,5,19,11,6,4
-4,2,5,0,-5,4,0,5,19,11,6,4
-4,2,5,0,-5,4,0,5,18,11,6,4
-3,2,5,0,-5,4,0,5,18,11,5,4
-3,3,5,0,-5,5,0,4,17,10,5,4
-3,3,5,0,-5,5,0,4,17,10,6,4
-3,2,5,0,-5,4,0,4,17,11,6,4
-3,2,5,0,-5,4,0,4,17,11,7,4
-3,3,6,-1,-5,6,0,4,17,11,7,4
-3,6,9,-2,-6,8,0,4,18,12,7,4
-3,8,10,-3,-7,10,0,5,19,12,7,5
-2,9,11,-3,-7,11,0,5,20,13,8,6
-2,9,11,-4,-7,11,0,5,20,14,9,7
-2,10,12,-4,-7,12,0,5,21,15,9,8
-1,10,12,-5,-7,12,-1,5,21,15,9,8
-1,10,12,-5,-7,12,-1,5,20,15,9,8
-1,10,11,-5,-7,11,-2,4,19,15,9,8
0,9,10,-5,-6,11,-2,4,18,15,9,8
0,9,9,-5,-5,10,-3,3,17,14,9,7
0,10,10,-5,-5,11,-4,2,15,13,8,7
1,11,10,-6,-5,12,-5,1,14,12,8,6
1,11,9,-6,-4,11,-6,0,13,12,7,6
1,9,8,-5,-3,9,-7,0,13,12,7,6
1,8,6,-5,-3,8,-7,1,13,12,7,6
2,7,4,-5,-2,7,-7,1,13,12,7,6
3,6,2,-5,0,6,-6,2,13,12,7,5
3,5,1,-4,0,4,-6,3,13,12,7,5
3,3,0,-4,1,3,-5,4,13,12,7,5
3,2,-2,-3,2,1,-5,4,13,11,6,4
4,1,-3,-3,3,0,-5,5,13,11,6,4
4,0,-4,-2,3,-1,-5,5,13,10,5,3
4,0,-5,-2,4,-2,-5,5,12,10,5,3
5,0,-5,-2,4,-2,-5,4,12,9,4,3
5,0,-5,-2,4,-2,-5,4,11,9,4,3
5,0,-5,-2,4,-1,-4,4,11,9,5,3
5,0,-4,-2,4,-1,-4,4,12,10,5,3
4,0,-3,-2,3,0,-3,4,12,10,5,3
3,0,-3,-1,3,0,-2,4,12,10,5,3
2,-1,-2,-1,2,0,-2,4,12,11,6,4
1,-1,-1,0,0,0,-1,4,12,11,6,4
0,0,0,0,-1,1,0,4,12,11,6,4
-1,0,1,0,-2,1,0,4,12,11,6,4
-2,-1,2,1,-2,1,1,4,12,10,5,4
-3,-1,2,2,-3,1,1,4,13,10,5,4
-3,0,3,2,-3,2,1,4,13,9,4,3
-3,0,3,1,-3,2,1,4,13,9,4,3
-3,0,4,1,-3,3,1,4,13,9,4,3
-3,0,4,1,-3,3,1,4,13,9,4,3
-3,0,3,1,-3,2,2,5,13,9,4,3
-3,-1,2,1,-3,1,2,5,13,9,4,3
-3,-1,2,1,-3,1,2,5,13,10,4,3
-3,-1,2,1,-3,1,2,5,13,10,4,3
-3,-1,2,1,-3,1,2,5,13,10,4,3
-3,-1,2,1,-3,1,2,5,13,10,5,3
-2,-1,2,1,-3,1,2,5,13,10,5,3
-2,-1,2,1,-3,1,2,5,13,10,5,3
-2,0,2,1,-3,1,2,5,13,10,5,3
-2,0,2,1,-3,2,2,5,13,10,5,3
-2,0,2,0,-3,2,2,5,13,10,5,3
-1,0,2,0,-3,2,2,5,13,10,5,3
-1,0,2,0,-2,2,2,5,13,10,5,4
-1,0,1,1,-2,1,2,6,14,10,5,4
-1,-1,1,1,-1,1,2,7,16,11,5,3
-1,-2,0,1,0,0,2,8,19,11,4,2
0,-3,-2,1,0,-1,3,10,24,13,3,1
0,-2,-2,1,1,-1,3,12,29,16,4,1
1,-1,-3,0,1,-1,2,13,33,21,6,2
4,0,-4,-1,3,-1,1,14,37,30,11,4
7,1,-5,-4,5,-1,-1,16,43,42,17,8
12,3,-7,-8,9,-1,-4,18,49,56,25,12
16,6,-8,-12,12,0,-8,19,53,73,34,17
21,10,-9,-16,15,1,-12,18,50,91,45,22
26,14,-10,-20,17,3,-17,14,39,111,58,29
32,20,-11,-26,21,5,-23,9,19,133,73,38
38,25,-13,-31,25,7,-30,1,-11,150,89,47
43,28,-15,-35,29,7,-36,-9,-49,158,101,54
48,27,-21,-37,34,3,-42,-19,-90,157,106,58
51,21,-29,-36,40,-3,-46,-28,-131,144,104,57
53,12,-40,-32,46,-13,-48,-37,-168,119,95,53
52,1,-49,-27,50,-23,-50,-47,-204,84,80,46
50,-7,-56,-21,52,-31,-52,-57,-236,44,63,40
46,-15,-61,-15,53,-37,-52,-67,-263,3,45,33
41,-23,-64,-9,52,-43,-51,-76,-283,-37,27,26
35,-31,-65,-2,50,-48,-48,-82,-295,-73,7,17
28,-38,-66,5,47,-52,-43,-86,-295,-102,-12,6
21,-47,-67,13,44,-57,-37,-86,-287,-124,-32,-8
14,-57,-71,21,42,-63,-30,-82,-270,-139,-53,-25
8,-68,-76,29,41,-71,-22,-76,-247,-147,-72,-42
3,-76,-79,36,40,-77,-15,-68,-220,-149,-85,-56
0,-81,-80,40,38,-80,-9,-59,-193,-145,-92,-64
-3,-82,-78,43,36,-80,-5,-50,-166,-137,-93,-67
-6,-80,-74,43,34,-77,-1,-41,-141,-125,-91,-67
-8,-76,-68,43,30,-72,2,-34,-118,-111,-85,-65
-10,-71,-60,41,24,-65,5,-28,-96,-97,-77,-61
-13,-64,-50,39,18,-57,8,-24,-78,-83,-69,-56
-15,-57,-41,37,12,-49,9,-20,-63,-72,-61,-50
-16,-52,-35,34,8,-43,10,-17,-50,-62,-54,-45
-16,-48,-31,32,6,-39,11,-14,-38,-53,-48,-41
-17,-44,-26,30,3,-35,11,-10,-28,-46,-43,-37
-17,-39,-22,28,2,-30,11,-7,-20,-39,-38,-33
-16,-33,-17,25,0,-25,11,-5,-14,-33,-34,-29
-14,-28,-14,21,0,-21,10,-3,-8,-27,-29,-25
-12,-23,-10,18,-1,-16,10,-2,-4,-21,-24,-21
-11,-18,-7,15,-2,-12,9,-1,0,-16,-19,-16
-9,-13,-3,12,-4,-8,9,0,4,-12,-15,-12
-9,-9,0,9,-5,-4,8,2,8,-8,-10,-8
-9,-5,3,7,-7,0,8,3,12,-5,-7,-5
-9,-3,5,6,-8,1,8,4,15,-3,-5,-3
-9,-2,7,5,-8,3,8,5,17,-1,-4,-2
-8,-1,8,5,-8,4,8,6,18,0,-3,-1
-8,0,8,4,-8,4,8,6,19,1,-2,-1
-8,0,8,4,-8,4,8,6,19,2,-1,0
-8,0,9,4,-9,5,8,7,20,3,-1,1
-8,1,9,4,-9,5,8,7,21,3,0,1
-7,1,9,4,-9,6,8,7,21,3,0,2
-7,1,9,4,-9,6,8,7,22,3,0,2
-7,1,9,3,-9,6,8,8,22,3,0,2
-7,1,9,3,-9,6,8,8,23,4,0,2
-7,1,9,3,-9,6,8,8,23,4,0,2
-7,2,10,3,-9,7,8,8,24,5,0,2
-7,2,10,3,-9,7,8,8,24,5,0,3
-7,2,10,3,-10,7,8,8,24,6,1,3
-7,2,11,3,-10,8,8,8,25,6,1,3
-7,3,11,3,-10,8,8,8,25,6,1,3
-7,3,11,2,-10,8,8,8,25,6,1,3
-7,3,11,2,-10,8,8,8,25,6,1,3
-7,3,11,2,-10,8,8,8,25,6,1,3
-7,3,11,2,-10,8,8,9,26,7,1,3
-7,3,11,2,-10,8,8,9,26,7,1,3
-7,3,11,2,-10,8,8,9,26,7,1,3
-7,3,11,2,-10,8,8,9,26,7,1,3
-7,4,12,2,-10,8,8,9,27,7,1,3
-7,4,12,2,-10,9,8,9,27,7,2,3
-7,4,12,2,-10,9,8,9,27,7,2,3
-7,4,12,2,-10,9,8,9,27,7,2,3
-7,4,12,2,-10,9,8,9,27,7,2,4
-7,4,13,2,-10,9,8,9,27,7,2,4
-7,4,13,2,-11,9,8,9,28,8,2,4
-8,4,13,2,-11,9,8,9,28,8,2,4
-8,4,13,2,-11,9,8,9,28,8,2,4
-8,4,13,2,-11,10,8,9,28,8,2,4
-8,4,13,2,-11,10,8,9,28,8,2,4
-8,4,13,2,-11,10,8,9,28,8,2,4
-7,4,13,2,-11,10,8,9,28,7,2,4
-7,4,13,2,-11,10,8,9,28,7,2,4
-7,5,13,2,-11,10,8,9,27,7,2,4
-7,5,13,1,-11,10,8,8,27,7,2,4
-7,5,13,1,-10,10,8,8,26,7,2,3
-7,5,13,1,-10,10,8,8,26,6,2,3
-7,5,13,1,-10,10,8,8,25,6,2,3
-7,5,13,1,-10,10,8,8,25,6,2,3
-8,5,13,2,-10,10,8,8,24,6,2,3
-8,5,14,2,-11,10,8,8,24,5,2,3
-8,5,14,2,-11,10,7,8,23,5,1,3
-8,5,14,2,-11,10,7,7,22,4,1,3
-8,5,14,2,-11,10,7,7,21,3,1,3
-8,5,13,2,-11,9,7,6,20,2,1,3
-8,5,13,2,-11,9,7,6,19,2,0,3
-8,5,14,2,-11,9,7,5,18,1,0,3
-8,5,14,2,-12,9,7,5,17,1,0,3
-8,5,14,2,-12,9,7,5,17,1,0,3
-8,5,14,2,-11,9,7,4,16,0,0,3
-8,5,13,2,-11,8,7,4,14,0,0,3
-8,5,13,2,-10,8,7,3,13,-1,0,3
-8,4,13,2,-10,8,7,3,11,-2,0,3
-8,4,13,2,-10,8,6,2,10,-2,0,3
-8,4,13,2,-10,8,6,2,9,-2,0,3
-8,4,13,2,-10,8,6,2,9,-2,0,3
-8,4,13,2,-10,8,6,1,8,-3,0,3
-8,4,13,2,-10,8,6,1,7,-3,-1,3
-8,4,12,2,-10,8,6,0,6,-4,-1,3
-7,4,12,2,-9,7,6,0,4,-5,-2,3
-7,4,11,2,-9,7,6,0,2,-5,-2,3
-7,3,11,2,-9,7,5,-1,1,-6,-2,3
-7,3,11,2,-9,7,5,-2,0,-6,-2,3
-6,3,10,2,-8,7,5,-2,0,-7,-2,3
-6,3,10,2,-8,6,4,-2,-1,-7,-2,3
-6,3,9,2,-7,6,4,-2,-2,-8,-2,3
-6,3,9,2,-7,6,4,-3,-3,-8,-2,3
-6,3,9,2,-7,6,4,-3,-4,-9,-2,3
-6,2,9,2,-7,6,4,-3,-5,-9,-2,3
-6,2,9,2,-7,6,4,-3,-6,-9,-2,3
-5,2,8,2,-7,5,3,-3,-6,-9,-2,3
-5,2,8,2,-7,5,3,-3,-6,-9,-2,3
-5,2,8,2,-6,5,3,-4,-7,-10,-2,3
-5,2,7,2,-6,4,3,-4,-7,-10,-2,3
-4,2,6,2,-5,4,3,-4,-8,-10,-2,3
-4,1,6,2,-5,4,3,-4,-8,-10,-3,3
-4,1,6,2,-5,4,3,-5,-9,-11,-3,3
-4,1,5,2,-5,4,3,-5,-9,-11,-3,3
-3,1,5,2,-4,3,2,-5,-10,-11,-3,3
-3,1,4,2,-4,3,2,-5,-10,-11,-3,3
-3,0,4,2,-4,2,2,-5,-10,-11,-3,3
-3,0,3,2,-4,2,2,-5,-10,-11,-3,3
-3,0,3,2,-3,2,2,-5,-10,-11,-3,3
-2,0,2,2,-3,2,2,-5,-11,-12,-3,3
-2,0,2,2,-3,2,2,-5,-11,-12,-4,3
-2,0,2,2,-3,2,2,-5,-11,-12,-4,3
-2,0,3,2,-3,2,2,-5,-11,-12,-4,3
-2,0,2,2,-2,1,2,-5,-12,-12,-4,3
-2,-1,2,2,-2,1,2,-5,-12,-12,-4,3
-2,-1,1,2,-2,1,2,-6,-12,-12,-4,3
-1,-1,1,2,-1,1,2,-6,-13,-13,-5,3
-1,-1,0,2,-1,1,2,-6,-13,-13,-5,3
-1,-1,0,2,0,0,2,-6,-13,-14,-5,3
-1,-2,0,2,0,0,2,-6,-14,-14,-4,3
-1,-2,0,2,0,0,1,-6,-14,-14,-4,3
-1,-2,0,2,-1,0,1,-6,-15,-14,-4,3
-1,-2,0,2,-1,0,1,-6,-15,-14,-4,3
-1,-2,0,2,0,-1,1,-6,-15,-14,-4,3
-1,-2,-1,2,0,-1,1,-6,-16,-14,-4,3
-1,-2,-1,2,0,-1,1,-6,-16,-14,-4,3
0,-2,-2,2,0,-1,1,-6,-17,-14,-4,3
0,-2,-2,2,1,-1,0,-7,-17,-14,-4,3
0,-2,-2,1,1,-2,0,-7,-18,-14,-4,3
0,-2,-3,1,2,-2,0,-8,-18,-14,-4,3
0,-2,-3,1,2,-2,0,-8,-18,-14,-4,3
0,-2,-3,1,2,-2,0,-8,-18,-14,-4,3
0,-3,-3,1,2,-2,0,-8,-18,-14,-4,3
0,-3,-3,1,2,-2,0,-8,-18,-14,-4,3
0,-3,-3,1,2,-2,0,-8,-18,-14,-4,4
0,-3,-4,1,2,-2,0,-8,-18,-14,-4,4
0,-3,-4,1,2,-2,0,-8,-19,-14,-4,4
1,-3,-4,1,2,-3,0,-8,-19,-14,-4,4
1,-3,-5,1,2,-3,-1,-8,-19,-14,-4,4
2,-3,-5,1,3,-4,-1,-8,-19,-13,-4,4
2,-3,-5,1,3,-4,-1,-8,-19,-13,-4,4
2,-3,-5,1,3,-4,-1,-8,-19,-13,-4,4
2,-3,-5,1,3,-4,-1,-8,-19,-13,-4,4
2,-3,-5,1,3,-4,-1,-8,-19,-13,-4,4
2,-3,-5,1,3,-4,-1,-8,-19,-13,-3,3
2,-3,-5,1,3,-4,-1,-7,-19,-12,-3,3
2,-3,-5,1,3,-4,-1,-7,-18,-12,-3,3
2,-4,-6,1,4,-5,-1,-7,-18,-12,-3,3
2,-4,-6,1,4,-5,-1,-6,-17,-12,-3,3
2,-5,-6,1,4,-5,-1,-6,-16,-12,-3,3
2,-5,-6,1,4,-5,0,-6,-15,-12,-3,3
2,-5,-7,1,4,-5,0,-6,-15,-12,-3,3
2,-5,-7,1,4,-5,0,-6,-14,-11,-3,3
2,-5,-7,1,4,-5,0,-6,-14,-11,-3,3
2,-5,-7,1,4,-5,0,-5,-13,-10,-4,3
2,-5,-7,1,4,-5,0,-5,-12,-10,-4,3
2,-5,-7,1,4,-5,0,-5,-11,-10,-4,3
2,-5,-7,1,4,-5,0,-4,-10,-9,-4,3
2,-4,-6,1,4,-5,0,-4,-9,-9,-4,3
2,-4,-6,1,4,-5,0,-4,-8,-9,-4,3
2,-4,-6,1,4,-5,0,-4,-6,-8,-4,3
2,-4,-6,1,4,-5,0,-4,-5,-8,-4,3
2,-4,-6,1,5,-5,0,-3,-4,-7,-4,2
2,-4,-6,1,5,-5,0,-3,-3,-7,-4,2
2,-4,-6,1,4,-5,0,-2,-1,-6,-5,2
1,-4,-5,1,4,-5,0,-2,0,-6,-5,2
1,-4,-5,1,3,-5,0,-2,1,-6,-5,2
1,-4,-5,1,3,-5,0,-2,3,-6,-5,2
1,-4,-5,1,3,-5,1,-1,4,-5,-5,2
1,-4,-5,1,3,-4,1,-1,6,-5,-5,2
1,-4,-5,1,3,-4,1,0,7,-4,-5,2
1,-3,-4,1,3,-3,2,0,8,-4,-5,2
1,-3,-4,1,3,-3,2,0,10,-3,-4,2
1,-3,-4,1,3,-3,2,1,11,-3,-4,2
1,-3,-3,1,2,-3,2,1,13,-2,-4,2
0,-3,-3,1,2,-3,2,2,14,-2,-4,2
0,-2,-2,1,2,-2,2,2,16,-1,-4,2
0,-2,-2,0,2,-2,2,3,17,-1,-4,2
0,-1,-2,0,2,-1,2,3,18,0,-4,2
0,-1,-2,0,2,-1,2,3,19,0,-4,2
0,-1,-1,0,2,-1,2,3,20,0,-4,2
0,-1,-1,0,2,-1,2,4,22,1,-4,2
0,0,-1,0,1,-1,2,4,23,1,-4,2
0,0,0,0,1,0,2,5,25,2,-4,2
0,0,0,0,0,0,3,5,26,2,-4,2
0,0,0,0,0,0,3,6,27,3,-4,2
-1,0,1,0,-1,1,3,6,28,3,-4,2
-1,0,2,0,-1,1,4,7,29,4,-3,2
-1,0,2,0,-1,2,4,7,30,4,-3,2
-1,1,2,0,-1,2,4,7,31,5,-3,2
-1,1,2,0,-1,2,4,7,32,5,-3,2
-1,2,3,0,-1,2,4,7,32,6,-3,2
-1,2,3,0,-1,2,4,7,33,6,-3,2
0,2,3,-1,-1,2,4,7,33,7,-3,2
0,3,3,-1,-1,3,4,7,34,7,-2,2
0,3,3,-1,-1,3,4,7,34,8,-2,2
0,3,3,-1,-1,3,4,7,35,8,-2,2
0,3,4,-1,-2,4,4,8,35,8,-2,3
-1,3,5,-1,-2,4,4,8,36,8,-1,3
-1,4,5,-1,-3,5,4,8,36,8,-1,4
-1,4,5,-2,-3,5,4,9,36,8,-1,4
-1,4,5,-2,-3,5,3,9,36,8,-1,4
0,5,5,-3,-2,5,3,9,36,9,-1,4
0,5,5,-3,-2,5,3,9,36,9,-1,4
0,5,5,-3,-2,5,3,9,36,10,-1,4
1,5,5,-4,-1,5,2,9,36,10,-1,4
1,5,5,-4,-1,5,2,9,36,10,-1,4
1,5,5,-4,-1,5,2,8,36,10,-1,4
1,5,5,-4,-1,5,2,8,36,10,-1,4
1,6,5,-4,-1,5,2,8,36,10,-1,4
1,6,5,-4,-1,6,2,8,35,10,-1,4
1,6,5,-4,-2,6,2,8,35,10,0,4
1,6,5,-4,-2,6,2,8,34,10,0,4
0,6,6,-4,-2,7,2,8,34,10,0,4
0,6,6,-4,-2,7,2,8,34,10,0,4
0,6,5,-4,-2,6,2,8,34,10,0,4
1,6,5,-4,-1,6,2,8,33,10,0,4
1,6,5,-4,-1,5,2,8,32,10,0,4
1,6,5,-4,-1,5,2,8,32,10,0,4
1,6,4,-4,-1,5,2,8,31,10,0,4
2,6,4,-4,-1,5,1,8,31,10,0,4
2,6,4,-4,-1,5,1,8,30,10,0,4
2,6,4,-4,-1,5,1,8,30,10,1,4
2,6,4,-4,-1,5,1,8,29,10,1,4
2,6,4,-4,-1,5,1,8,29,10,1,4
2,6,4,-4,-1,5,1,8,28,10,1,4
2,6,4,-5,-1,5,1,7,28,10,1,4
2,6,4,-5,-1,5,1,7,27,10,1,4
2,6,4,-5,-1,5,1,7,27,10,1,4
2,6,3,-5,0,5,1,7,26,10,1,4
2,6,3,-5,0,4,1,7,26,10,1,4
2,6,3,-4,0,4,1,7,25,10,1,4
2,6,3,-4,0,4,1,7,25,10,1,4
2,6,3,-4,0,4,0,7,24,10,1,5
2,6,3,-4,0,4,0,7,24,10,1,5
2,6,3,-4,0,4,0,7,23,10,1,5
2,6,3,-4,0,4,0,7,23,10,2,5
2,6,3,-4,0,4,0,7,23,10,2,5
2,6,3,-4,0,4,0,7,22,10,2,5
2,6,2,-4,0,3,0,6,22,10,2,5
2,6,2,-4,0,3,0,6,21,10,2,5
2,6,2,-4,0,3,0,6,21,10,2,5
2,5,2,-4,0,3,0,6,20,10,2,5
2,5,2,-4,0,3,0,6,20,10,2,5
2,5,2,-4,0,3,0,6,20,10,2,5
3,5,2,-4,1,3,0,6,20,10,2,4
3,5,1,-4,1,3,0,6,19,9,2,4
3,5,1,-4,1,2,0,6,19,9,2,4
3,5,1,-4,1,2,0,6,19,9,1,4
3,5,1,-4,1,2,0,6,19,9,1,5
3,5,1,-4,1,2,0,6,18,9,1,5
3,6,1,-5,1,2,0,6,18,9,1,5
3,6,2,-5,1,3,0,6,18,9,1,5
3,6,2,-5,1,3,0,6,18,9,2,6
3,6,2,-5,1,4,0,6,18,10,2,6
3,7,3,-5,0,4,0,6,19,10,3,7
4,8,3,-6,0,5,0,6,20,11,3,7
4,10,4,-7,0,6,0,5,21,12,4,8
5,11,5,-8,0,7,0,5,21,13,5,8
5,12,6,-9,0,8,0,5,21,13,6,9
5,13,6,-9,0,9,0,5,21,13,7,9
5,13,6,-9,0,9,-1,5,21,13,7,10
5,12,6,-9,0,9,-1,5,21,13,7,10
5,12,6,-9,0,9,-2,5,19,13,6,9
6,11,5,-9,1,8,-3,4,18,12,6,9
6,11,4,-10,1,8,-4,3,17,12,6,9
6,11,4,-10,1,7,-5,2,16,12,6,9
7,11,3,-9,2,7,-5,2,16,12,6,9
7,10,1,-9,3,5,-5,2,15,11,5,9
8,9,0,-9,4,4,-5,2,15,11,5,8
10,9,-1,-10,6,3,-6,2,15,10,5,8
11,8,-3,-10,7,2,-6,3,14,10,5,8
11,7,-5,-9,8,1,-6,4,14,10,4,7
11,6,-6,-9,9,0,-6,4,14,10,4,6
11,4,-8,-8,10,-2,-6,5,14,9,3,5
11,3,-10,-8,11,-4,-6,5,13,9,2,4
11,2,-10,-7,11,-4,-5,5,13,8,2,4
11,1,-10,-7,11,-5,-5,5,12,8,1,4
12,1,-11,-7,12,-5,-5,5,12,8,1,3
12,1,-11,-8,12,-5,-5,5,11,8,1,3
13,2,-11,-8,12,-4,-5,5,11,8,1,3
12,2,-10,-8,11,-4,-4,5,11,8,2,4
11,2,-8,-7,10,-3,-4,4,11,8,2,4
9,2,-7,-6,9,-3,-3,4,11,8,2,4
8,2,-6,-6,8,-2,-2,3,11,8,2,4
7,2,-6,-5,7,-2,-1,3,12,8,2,4
7,2,-5,-5,7,-2,-1,3,12,8,1,4
6,2,-5,-4,6,-2,0,3,12,7,1,4
5,1,-4,-4,5,-2,0,3,12,7,1,3
5,1,-4,-3,5,-2,0,3,12,7,1,3
4,1,-4,-3,4,-2,1,3,12,7,0,3
4,1,-4,-3,4,-2,1,3,12,7,0,2
4,1,-4,-3,4,-2,1,3,12,7,0,2
3,1,-3,-3,4,-1,1,4,12,7,0,2
3,1,-3,-3,3,-1,1,4,12,7,0,2
3,0,-3,-3,3,-1,1,4,12,7,0,2
3,0,-3,-3,3,-1,1,4,12,7,0,2
2,0,-3,-2,3,-1,1,4,12,7,0,2
2,0,-2,-2,3,-1,1,4,12,7,0,2
2,0,-2,-2,3,-1,1,4,12,7,0,2
2,0,-2,-2,3,-1,1,4,12,7,0,2
2,0,-2,-2,3,-1,1,4,12,7,0,2
3,0,-3,-2,3,-1,1,4,12,7,0,2
3,1,-3,-2,3,-1,1,4,13,7,0,2
3,1,-3,-3,3,-1,1,4,13,7,0,2
3,1,-3,-3,3,-1,1,4,13,7,0,2
3,1,-3,-3,4,-1,1,4,13,7,0,2
4,1,-4,-3,4,-2,1,4,13,7,0,2
4,0,-4,-3,5,-2,1,5,14,8,0,1
5,0,-5,-2,6,-3,2,6,17,8,0,1
5,-1,-6,-2,7,-4,2,9,22,9,-1,0
6,-1,-7,-3,7,-4,2,11,27,12,-1,0
7,-1,-8,-4,8,-4,2,13,31,17,1,0
9,0,-9,-6,9,-4,0,14,36,26,5,3
12,2,-10,-8,12,-4,-2,16,42,37,12,6
17,5,-12,-12,15,-4,-5,18,48,51,20,11
21,8,-13,-15,18,-3,-8,19,51,67,29,15
26,11,-14,-19,21,-2,-12,18,49,85,38,20
31,15,-16,-24,24,-1,-18,14,37,105,51,26
38,20,-18,-30,29,0,-24,8,15,124,65,34
46,24,-22,-36,34,1,-32,0,-17,140,79,43
52,26,-26,-40,40,0,-39,-11,-58,148,91,50
57,25,-32,-42,45,-4,-44,-22,-102,146,97,54
61,20,-41,-41,52,-11,-48,-32,-145,133,95,53
62,11,-52,-37,58,-21,-51,-41,-185,108,86,49
61,1,-61,-32,62,-30,-53,-51,-221,75,72,42
59,-7,-67,-26,63,-38,-55,-62,-253,36,56,36
55,-16,-71,-20,63,-44,-55,-72,-279,-3,39,29
50,-24,-74,-14,62,-49,-54,-80,-298,-43,20,22
44,-31,-75,-7,60,-53,-51,-86,-308,-78,1,13
37,-39,-76,0,57,-57,-46,-90,-307,-106,-18,2
29,-47,-76,8,53,-62,-39,-90,-297,-127,-37,-10
21,-56,-79,16,51,-68,-32,-87,-279,-141,-57,-26
15,-66,-82,24,50,-75,-24,-81,-254,-149,-76,-43
10,-74,-85,31,48,-80,-17,-73,-226,-151,-89,-56
6,-79,-86,35,47,-83,-11,-64,-198,-147,-96,-64
3,-81,-84,37,45,-83,-6,-54,-171,-139,-98,-68
1,-80,-81,38,42,-80,-2,-45,-145,-128,-96,-69
-1,-76,-75,38,38,-76,1,-37,-121,-114,-90,-66
-4,-71,-68,37,32,-69,4,-31,-99,-99,-83,-62
-8,-65,-58,36,26,-61,7,-26,-80,-85,-74,-56
-10,-58,-49,33,20,-53,8,-22,-64,-73,-66,-50
-11,-52,-41,31,15,-47,10,-18,-50,-63,-58,-45
-12,-47,-36,29,12,-42,11,-15,-38,-55,-52,-40
-11,-43,-32,26,10,-38,11,-12,-28,-47,-46,-36
-11,-39,-28,23,9,-33,11,-9,-20,-41,-41,-33
-9,-34,-25,20,8,-29,11,-7,-14,-34,-37,-29
-8,-29,-21,17,7,-25,10,-5,-8,-28,-32,-25
-6,-23,-18,14,6,-21,9,-4,-4,-22,-27,-21
-5,-18,-14,11,5,-16,9,-3,0,-17,-22,-16
-4,-13,-9,8,3,-12,8,-1,5,-13,-18,-12
-4,-9,-6,5,2,-8,8,0,8,-9,-14,-8
-3,-6,-3,3,1,-5,7,1,12,-6,-11,-5
-3,-4,-1,2,0,-3,7,3,15,-4,-9,-3
-3,-3,0,1,0,-2,7,4,16,-3,-7,-2
-3,-2,0,1,0,-1,7,5,17,-1,-6,-1
-3,-2,1,0,-1,0,7,6,18,0,-5,-1
-2,-1,1,0,-1,0,7,6,18,0,-4,0
-2,0,2,0,-2,1,7,6,19,0,-3,1
-2,1,3,-1,-2,2,7,6,19,0,-2,1
-2,1,3,-1,-2,2,7,6,20,0,-1,2
-2,2,4,-1,-2,3,6,6,20,0,-1,3
-2,2,4,-1,-2,3,6,6,21,-1,-1,3
-2,2,5,-1,-2,3,6,6,21,0,-1,3
-2,2,5,-1,-3,4,6,6,22,0,-1,3
-2,3,5,-2,-3,4,6,6,22,1,-1,4
-2,3,5,-2,-3,5,6,6,22,1,-1,4
-2,4,6,-2,-4,5,6,6,23,2,-1,5
-2,4,6,-2,-4,5,6,7,23,2,-1,5
-2,4,6,-2,-4,5,6,7,24,2,-1,5
-2,4,6,-2,-4,5,6,7,24,2,-1,5
-2,4,6,-2,-4,5,6,7,24,2,-1,5
-2,4,6,-2,-4,5,6,7,24,3,-1,5
-2,4,6,-2,-4,5,6,7,24,3,-1,5
-2,5,6,-2,-4,5,6,7,24,3,-1,5
-2,5,6,-2,-4,5,6,7,24,3,-1,5
-2,5,6,-2,-4,5,6,7,25,3,-1,5
-2,5,7,-2,-4,5,6,8,25,3,-1,5
-2,5,7,-3,-4,5,6,8,26,3,-1,5
-1,5,7,-3,-4,5,6,8,26,3,-1,4
-1,5,7,-3,-3,6,6,8,26,4,-1,4
-1,5,7,-3,-3,6,6,8,26,4,0,4
-2,5,7,-3,-4,6,6,8,26,5,0,4
-2,5,7,-3,-4,6,6,8,27,6,0,4
-2,5,7,-3,-4,6,6,8,27,6,0,4
-2,5,7,-3,-4,6,6,8,27,6,0,4
-2,5,7,-3,-4,6,6,8,27,6,0,4
-2,5,7,-3,-4,6,6,8,28,6,0,4
-2,5,8,-3,-4,6,6,8,28,5,0,3
-2,5,8,-3,-4,6,6,8,28,5,0,3
-2,6,7,-3,-4,6,6,8,27,5,0,3
-1,6,7,-3,-4,6,6,8,27,4,-1,2
-1,6,7,-3,-4,6,5,8,26,3,-1,2
-1,6,7,-3,-4,6,5,8,26,2,-1,2
-1,6,7,-3,-4,6,5,8,25,2,-1,1
-1,6,7,-3,-4,6,5,7,25,1,-1,1
-1,7,8,-3,-4,7,5,7,24,1,-1,1
-1,7,8,-3,-4,7,5,7,24,1,-1,1
-1,7,8,-3,-4,8,5,7,23,1,-1,1
-1,7,8,-4,-4,8,5,7,23,2,-1,1
-1,7,8,-4,-4,8,5,6,22,2,-2,1
-1,7,8,-4,-5,8,5,6,22,2,-2,1
-1,7,8,-4,-5,8,5,6,21,2,-2,1
-1,7,8,-4,-5,8,5,6,21,1,-2,1
-1,7,8,-4,-5,8,5,5,20,1,-2,1
-2,6,9,-3,-5,7,5,5,19,0,-2,0
-2,6,9,-3,-5,7,5,5,17,0,-2,0
-2,6,8,-3,-5,7,4,4,16,0,-3,0
-2,6,8,-3,-5,7,4,4,14,0,-3,0
-2,6,7,-3,-5,6,4,3,13,-1,-3,0
-1,6,6,-3,-4,6,3,3,12,-2,-4,0
-1,6,6,-3,-4,5,3,2,11,-3,-4,-1
-1,5,6,-3,-3,5,3,2,10,-3,-4,-1
-1,5,6,-3,-3,5,3,1,9,-4,-4,-1
-1,5,6,-2,-4,5,3,1,8,-4,-4,-1
-2,5,6,-2,-4,5,3,0,7,-5,-4,-1
-2,4,6,-2,-4,5,3,0,6,-5,-4,-1
-2,4,6,-2,-5,5,3,0,5,-6,-4,-1
-2,4,5,-2,-4,5,3,0,4,-6,-4,-1
-2,4,5,-2,-4,5,2,0,3,-7,-4,-1
-2,3,5,-2,-3,4,2,-1,2,-7,-4,-1
-1,3,4,-2,-3,4,2,-2,1,-8,-4,-1
-1,3,4,-2,-2,3,1,-2,0,-8,-5,-1
0,3,3,-2,-1,3,1,-3,-1,-8,-5,-1
0,2,3,-2,-1,3,1,-3,-2,-9,-5,-1
0,2,3,-2,-1,3,1,-3,-3,-9,-5,-1
0,2,3,-2,-1,3,1,-3,-3,-9,-5,-1
0,2,3,-2,-1,3,1,-3,-4,-10,-5,-1
0,2,3,-2,-1,3,1,-4,-5,-10,-5,-1
0,2,3,-2,-1,2,0,-4,-6,-11,-5,-2
0,2,3,-2,-1,2,0,-5,-6,-12,-5,-2
0,2,2,-2,-1,2,0,-5,-7,-13,-5,-2
0,1,2,-2,0,1,0,-5,-7,-13,-5,-2
0,1,1,-2,0,1,0,-5,-8,-12,-5,-2
0,1,1,-2,0,1,0,-5,-8,-12,-6,-3
0,0,0,-2,0,1,0,-5,-9,-13,-6,-3
0,0,0,-1,0,1,0,-5,-9,-13,-6,-3
0,0,0,-1,0,0,0,-5,-10,-13,-6,-3
0,0,0,-1,0,0,0,-6,-10,-14,-6,-3
0,0,0,-1,0,0,0,-6,-11,-14,-6,-3
0,0,0,-1,0,0,0,-7,-11,-15,-6,-3
0,0,0,-2,0,0,0,-7,-12,-15,-6,-3
0,0,0,-1,0,0,0,-7,-12,-15,-6,-3
0,0,0,-1,0,0,0,-7,-12,-15,-6,-3
0,0,0,-1,1,-1,0,-7,-12,-14,-6,-3
0,-1,-1,-1,1,-1,0,-7,-12,-14,-6,-3
1,-1,-1,-1,2,-1,0,-7,-12,-14,-7,-3
1,-1,-2,-1,2,-2,0,-7,-13,-15,-7,-3
1,-1,-3,-1,2,-2,0,-7,-13,-15,-8,-3
1,-1,-3,-1,2,-2,-1,-7,-14,-16,-8,-3
1,-1,-4,-1,2,-2,-1,-7,-14,-17,-8,-3
1,-1,-4,-1,2,-2,-1,-8,-15,-17,-8,-3
1,-1,-4,-1,2,-2,-1,-8,-15,-17,-7,-2
1,-2,-4,-1,2,-2,-1,-8,-16,-17,-7,-2
1,-2,-4,-1,3,-3,-1,-8,-16,-16,-7,-2
2,-2,-5,-1,3,-3,-1,-8,-16,-16,-7,-2
2,-2,-5,-1,3,-3,-1,-8,-16,-15,-7,-2
2,-2,-5,-1,3,-3,-1,-8,-16,-15,-7,-2
3,-2,-5,-1,3,-3,-1,-8,-16,-15,-7,-3
3,-2,-6,-1,4,-4,-1,-8,-17,-15,-7,-3
4,-2,-6,-1,4,-4,-2,-8,-17,-15,-7,-3
4,-2,-6,-1,4,-4,-2,-8,-18,-16,-7,-3
4,-2,-6,-1,4,-4,-2,-8,-19,-17,-6,-3
4,-2,-6,-1,5,-4,-2,-8,-19,-17,-6,-3
4,-2,-6,-1,5,-4,-2,-8,-19,-17,-6,-3
4,-2,-6,-1,5,-4,-2,-8,-19,-17,-6,-3
4,-2,-6,-1,5,-4,-2,-8,-20,-16,-6,-3
4,-2,-7,-2,5,-5,-2,-8,-20,-16,-6,-3
5,-2,-7,-2,6,-5,-2,-8,-20,-16,-7,-3
5,-2,-8,-2,6,-5,-2,-8,-20,-16,-7,-2
5,-2,-8,-2,6,-5,-2,-8,-19,-16,-7,-2
5,-2,-8,-2,6,-5,-2,-8,-19,-15,-7,-2
5,-2,-9,-2,6,-6,-3,-8,-20,-15,-7,-2
6,-2,-10,-2,7,-6,-3,-8,-20,-14,-6,-2
6,-2,-10,-2,8,-6,-3,-8,-20,-14,-6,-2
6,-2,-10,-2,8,-6,-3,-8,-19,-14,-5,-2
6,-3,-9,-2,8,-6,-3,-8,-19,-14,-5,-2
5,-3,-9,-2,8,-6,-3,-8,-19,-15,-5,-2
5,-3,-10,-2,8,-7,-3,-8,-19,-15,-5,-2
5,-3,-10,-2,8,-7,-3,-7,-18,-15,-4,-2
5,-3,-10,-2,8,-7,-3,-7,-18,-14,-4,-2
5,-3,-9,-2,8,-7,-3,-6,-17,-14,-5,-2
5,-3,-9,-2,8,-7,-3,-6,-16,-14,-5,-2
5,-3,-9,-2,8,-7,-3,-6,-16,-13,-6,-2
5,-3,-10,-2,8,-7,-3,-6,-15,-13,-6,-2
6,-3,-10,-2,8,-7,-3,-6,-14,-12,-7,-2
6,-3,-11,-2,9,-7,-3,-5,-13,-12,-7,-3
6,-3,-11,-2,9,-7,-2,-5,-12,-12,-7,-3
6,-3,-11,-2,9,-7,-2,-5,-11,-11,-7,-4
6,-3,-11,-2,9,-7,-2,-4,-10,-11,-7,-4
6,-3,-11,-2,9,-7,-2,-4,-10,-10,-7,-4
6,-3,-11,-2,9,-7,-1,-3,-9,-10,-6,-4
6,-3,-10,-2,8,-7,-1,-3,-7,-10,-6,-4
5,-3,-10,-2,8,-7,-1,-2,-6,-10,-5,-4
5,-3,-10,-2,8,-7,-1,-2,-4,-9,-5,-4
5,-3,-10,-1,8,-8,-1,-2,-3,-9,-5,-4
5,-3,-10,-1,8,-8,-1,-2,-2,-8,-5,-4
5,-3,-10,-1,8,-8,-1,-1,0,-8,-6,-4
5,-3,-10,-1,8,-8,-1,-1,0,-8,-7,-4
5,-3,-10,-1,8,-8,-1,0,2,-7,-8,-5
5,-3,-10,-1,8,-8,0,0,3,-7,-8,-5
5,-3,-10,-1,8,-7,0,0,5,-7,-8,-5
5,-3,-9,-1,7,-7,0,0,6,-7,-8,-5
4,-3,-9,-1,7,-6,1,1,8,-7,-8,-5
4,-3,-8,-1,6,-6,1,1,9,-7,-7,-6
4,-3,-8,-1,6,-6,1,2,10,-7,-7,-6
4,-3,-7,-1,5,-6,1,2,11,-7,-7,-6
4,-3,-7,-1,5,-5,1,2,12,-7,-7,-6
4,-2,-6,-1,5,-5,1,2,14,-7,-7,-6
4,-2,-6,-1,5,-5,1,3,15,-6,-7,-6
4,-2,-6,-1,5,-5,1,3,17,-5,-6,-6
4,-2,-6,-1,5,-5,1,4,18,-4,-6,-6
3,-2,-6,-1,5,-5,1,4,20,-3,-7,-6
3,-2,-6,-1,4,-5,1,5,21,-3,-7,-6
2,-1,-5,-1,4,-4,2,5,22,-2,-7,-6
2,-1,-5,-1,3,-4,2,6,23,-1,-7,-5
2,-1,-4,-1,3,-3,2,6,24,-1,-7,-5
1,-1,-4,0,3,-3,2,6,25,0,-7,-5
1,-1,-3,0,3,-3,2,6,26,0,-7,-5
0,-1,-2,0,2,-2,2,7,27,1,-6,-5
-1,-1,-1,0,1,-2,2,7,28,2,-6,-4
-1,-1,0,0,0,-1,2,8,29,3,-5,-4
-2,-1,0,0,0,-1,2,8,30,3,-5,-4
-2,-1,0,0,-1,0,2,8,31,4,-4,-4
-2,-1,1,0,-1,0,2,9,31,5,-4,-4
-2,0,1,1,-1,0,2,9,32,5,-4,-4
-2,0,2,1,-2,0,2,9,32,5,-4,-3
-2,0,2,1,-2,0,2,9,33,5,-3,-3
-3,0,2,1,-2,1,2,9,33,5,-3,-2
-3,1,3,1,-2,1,2,10,34,6,-2,-2
-3,1,3,0,-2,2,2,10,34,6,-2,-2
-3,2,4,0,-2,2,2,10,34,6,-1,-2
-3,2,4,0,-2,2,2,10,34,6,-1,-2
-3,2,5,0,-3,3,2,10,34,6,-1,-2
-3,2,5,0,-3,3,2,10,34,6,-1,-2
-3,2,5,0,-4,3,2,10,34,7,-1,-2
-3,2,5,0,-4,3,2,10,34,7,-1,-1
-3,2,5,0,-4,3,2,10,34,7,-1,-1
-3,3,5,0,-4,4,2,10,35,7,-1,-1
-3,3,5,0,-4,4,2,10,35,8,-1,-1
-3,3,5,0,-4,4,2,11,35,8,-1,-1
-3,3,5,0,-4,4,2,11,34,9,-1,-1
-2,4,5,-1,-4,4,2,11,34,9,-1,-1
-2,4,5,-1,-4,4,2,11,34,9,0,-1
-2,4,6,-1,-4,5,2,11,34,9,0,-1
-2,4,6,-1,-4,5,2,11,34,9,0,-1
-1,4,5,-1,-3,4,2,11,33,9,0,-1
-1,4,5,-1,-3,4,2,11,32,9,0,-1
-1,4,5,-1,-3,4,2,11,32,9,1,-1
-1,4,5,-1,-3,4,2,10,31,9,1,-1
-2,4,6,-1,-3,4,2,10,31,8,2,0
-2,4,6,-1,-4,4,2,10,31,8,2,0
-2,4,6,-1,-4,4,2,10,30,8,3,0
-2,4,6,-1,-4,4,2,10,30,8,3,1
-2,4,6,-1,-4,5,2,10,29,8,3,1
-2,4,6,-1,-4,5,2,10,29,8,3,1
-2,4,6,-1,-4,5,2,10,29,9,3,1
-2,4,5,-1,-4,5,2,10,28,9,3,1
-2,4,5,-1,-4,4,2,10,28,10,3,1
-1,4,4,-1,-3,4,2,10,28,10,3,1
-1,4,4,-1,-3,4,2,10,27,10,3,1
-1,4,4,-1,-3,4,2,10,27,10,2,1
-1,4,4,-1,-3,4,2,10,26,10,2,1
-1,4,4,-1,-3,4,2,10,26,10,2,0
-1,4,4,-1,-3,4,2,9,25,10,2,0
-1,4,4,-1,-3,4,2,9,25,9,2,0
-1,4,4,-1,-2,4,2,9,24,8,2,0
-1,4,4,-2,-2,4,2,9,24,8,3,0
-1,4,4,-2,-3,4,2,9,23,8,3,1
-1,4,4,-2,-3,4,2,9,23,9,4,1
-1,4,4,-2,-3,4,2,9,23,9,4,1
-1,4,4,-2,-3,4,2,9,23,9,4,1
-1,4,4,-2,-3,4,2,9,22,8,4,1
-1,4,4,-1,-3,4,2,9,22,8,4,1
-1,4,4,-1,-3,4,2,9,22,9,4,1
0,4,4,-1,-2,4,2,9,22,9,3,1
0,4,3,-1,-1,3,2,9,22,10,3,1
0,4,2,-2,-1,3,2,9,22,10,3,1
0,4,2,-2,-1,3,2,9,21,9,3,1
0,4,2,-2,-1,3,2,9,20,9,4,1
0,4,2,-2,-1,3,2,9,20,8,4,1
0,4,3,-2,-1,3,2,9,20,8,4,1
0,4,3,-2,-2,3,2,9,20,8,5,2
0,5,4,-2,-2,4,2,9,20,8,5,2
-1,5,4,-2,-3,5,2,9,20,8,5,3
-1,5,5,-1,-3,5,2,9,20,9,6,3
-1,5,5,-1,-4,5,3,9,21,10,6,4
-1,5,5,-1,-4,5,3,9,21,11,6,4
-1,6,6,-2,-4,6,3,9,22,12,6,5
-1,7,6,-3,-4,7,3,9,23,12,6,5
0,8,7,-4,-4,8,2,9,23,13,7,5
0,9,7,-5,-4,9,2,9,24,13,7,5
1,10,8,-5,-4,9,1,9,24,13,8,6
1,11,8,-6,-4,10,1,9,24,13,8,6
1,11,8,-6,-4,10,0,9,23,12,8,6
1,10,8,-6,-4,9,0,9,22,12,8,6
1,10,8,-5,-4,9,-1,8,21,11,8,6
2,10,8,-6,-3,8,-2,7,20,11,8,6
2,11,7,-6,-3,8,-3,6,19,11,8,6
3,11,6,-6,-2,8,-3,6,19,11,8,6
3,10,5,-6,-2,7,-3,6,18,11,8,6
3,9,4,-5,-1,6,-3,6,18,11,7,6
3,8,2,-5,0,5,-4,6,18,11,7,6
4,7,1,-5,1,4,-4,6,17,10,7,5
5,7,-1,-5,3,3,-4,7,17,10,7,5
6,6,-2,-5,4,1,-4,8,17,10,7,4
7,4,-4,-5,5,0,-3,8,17,9,6,3
7,3,-5,-4,6,-1,-3,9,16,8,5,2
7,2,-6,-4,7,-2,-3,9,16,7,5,2
7,2,-7,-4,7,-3,-3,9,15,6,4,1
7,2,-7,-4,7,-3,-3,9,14,5,4,1
8,1,-8,-4,8,-3,-3,9,14,5,3,1
8,1,-8,-4,8,-3,-3,9,14,6,3,1
7,2,-7,-4,8,-2,-2,9,14,6,4,1
6,2,-5,-4,7,-2,-2,8,14,7,4,1
5,2,-4,-3,5,-1,-2,8,14,7,4,1
4,2,-3,-3,4,-1,-1,8,14,8,4,1
3,2,-3,-2,3,-1,0,8,15,8,4,1
2,2,-2,-2,2,-1,1,8,16,9,4,1
1,2,-1,-1,1,0,1,8,16,8,4,1
1,2,0,-1,1,0,2,8,16,7,4,1
0,2,0,0,0,1,2,8,16,7,4,1
0,2,0,0,0,1,2,8,16,6,4,1
0,1,1,0,0,1,2,8,16,6,3,1
-1,1,1,0,-1,1,3,8,16,6,3,1
-1,1,1,0,-1,1,3,8,16,6,3,1
-1,1,1,0,-1,1,3,8,16,6,3,1
-1,1,1,0,-1,1,4,8,16,7,3,1
-2,0,1,1,-1,1,4,9,16,8,3,1
-2,0,1,1,-1,1,5,9,16,8,3,1
-2,0,1,1,-1,1,5,9,16,9,3,0
-2,0,1,1,-1,1,5,9,16,9,3,0
-2,0,1,1,-1,1,5,9,16,9,3,0
-2,0,1,1,-1,1,5,9,16,8,3,0
-2,0,1,1,-1,1,5,9,16,8,4,0
-2,1,1,1,-1,1,4,9,16,7,5,0
-2,1,2,1,-2,1,4,9,16,7,6,0
-2,1,2,1,-2,1,4,9,16,7,6,1
-2,1,2,1,-2,1,4,9,16,7,6,1
-2,1,2,1,-2,1,4,9,17,8,5,1
-1,1,2,1,-1,1,4,9,17,8,4,1
-1,1,1,1,-1,0,4,10,19,9,3,0
-1,0,0,1,0,0,4,12,24,10,2,0
0,0,-2,1,1,-1,4,15,30,12,2,-1
1,0,-3,0,2,-1,4,17,35,16,4,0
3,2,-3,-2,3,-1,3,18,40,24,8,1
5,3,-4,-4,5,0,1,19,46,35,14,4
9,5,-5,-7,7,0,-2,21,53,49,22,8
14,8,-6,-10,10,0,-5,23,59,65,31,12
19,11,-7,-14,13,1,-9,23,59,82,40,17
24,16,-8,-19,16,3,-13,21,51,101,52,22
30,21,-9,-25,20,5,-20,15,34,122,66,30
38,27,-11,-32,25,7,-27,8,6,141,82,40
44,31,-14,-37,30,8,-34,-2,-31,153,96,48
49,31,-19,-40,35,6,-40,-12,-76,156,105,54
53,27,-27,-40,41,0,-44,-22,-122,147,106,55
55,18,-38,-37,47,-10,-47,-31,-164,127,99,51
55,7,-48,-31,52,-20,-48,-40,-202,97,85,44
53,-3,-56,-24,54,-29,-49,-50,-236,58,67,37
49,-11,-61,-18,55,-36,-50,-60,-265,17,48,30
45,-19,-65,-12,55,-42,-49,-69,-288,-24,29,23
38,-27,-66,-5,53,-47,-47,-77,-303,-63,10,14
31,-35,-67,2,49,-51,-43,-82,-307,-95,-9,4
23,-43,-67,10,46,-55,-37,-83,-301,-120,-28,-9
16,-53,-70,18,43,-61,-30,-82,-286,-139,-49,-24
9,-64,-74,27,42,-69,-22,-77,-264,-150,-69,-42
4,-73,-78,34,41,-76,-15,-70,-238,-155,-85,-57
0,-78,-79,38,40,-80,-9,-62,-211,-153,-94,-67
-2,-80,-79,41,38,-81,-4,-53,-183,-146,-98,-73
-4,-80,-76,42,36,-79,0,-44,-156,-135,-97,-74
-7,-78,-72,43,33,-75,3,-36,-131,-122,-92,-73
-9,-73,-65,42,28,-69,6,-29,-107,-108,-85,-69
-12,-67,-56,41,22,-62,8,-23,-87,-95,-76,-63
-15,-60,-46,38,16,-53,10,-19,-70,-82,-67,-57
-16,-53,-37,35,10,-45,12,-16,-55,-71,-59,-51
-17,-47,-30,33,7,-39,13,-13,-43,-61,-53,-47
-17,-43,-26,30,4,-35,13,-10,-32,-53,-47,-43
-17,-38,-22,27,3,-31,13,-7,-22,-45,-41,-39
-16,-33,-19,25,2,-27,13,-4,-14,-37,-36,-35
-15,-29,-15,22,0,-22,13,-2,-8,-30,-31,-31
-14,-24,-12,20,-1,-18,12,0,-2,-24,-25,-26
-13,-19,-8,17,-2,-13,12,1,2,-18,-20,-22
-12,-14,-3,14,-4,-8,11,2,6,-13,-16,-17
-10,-10,0,11,-5,-5,11,4,10,-10,-12,-13
-9,-7,3,8,-6,-2,10,5,14,-7,-8,-9
-9,-4,5,7,-7,0,10,7,17,-4,-5,-7
-9,-3,6,6,-7,1,10,8,19,-2,-3,-6
-9,-2,7,5,-8,2,10,9,21,0,-2,-5
-9,-1,7,5,-8,3,10,10,22,1,-1,-5
-9,-1,8,5,-8,3,10,10,23,2,0,-4
-9,0,9,5,-9,4,10,10,23,2,0,-4
-9,0,10,5,-9,4,10,10,24,3,0,-3
-9,0,10,5,-10,5,10,10,24,3,1,-3
-9,1,10,5,-10,5,10,11,25,3,1,-2
-9,1,10,5,-10,5,10,11,26,3,1,-2
-9,1,10,5,-9,5,10,11,27,3,1,-3
-9,1,10,5,-9,5,10,11,27,3,1,-3
-9,1,10,4,-9,5,10,11,27,3,1,-4
-9,2,10,4,-9,5,10,11,28,4,1,-4
-8,2,10,4,-9,5,10,11,28,5,1,-4
-8,2,10,4,-9,5,10,11,28,5,1,-4
-8,2,10,4,-9,6,10,11,28,6,1,-4
-8,2,10,4,-9,6,10,12,29,6,2,-4
-8,2,10,4,-9,6,10,12,30,7,2,-4
-8,1,10,4,-9,6,10,13,30,8,2,-4
-8,1,10,4,-9,6,10,13,31,8,2,-4
-8,1,10,4,-9,6,10,13,31,9,2,-4
-9,1,10,4,-9,6,11,13,31,9,2,-5
-9,1,10,4,-10,6,11,13,31,8,2,-5
-9,1,10,4,-10,6,11,13,31,7,2,-5
-9,1,10,4,-10,6,11,13,31,7,2,-6
-9,1,10,4,-10,6,11,13,31,7,2,-6
-9,1,10,4,-10,6,11,13,31,7,2,-6
-9,2,11,4,-10,6,11,13,31,7,2,-6
-9,2,11,4,-10,6,11,13,31,8,2,-5
-10,2,11,4,-11,6,11,13,32,8,2,-5
-10,2,11,4,-11,7,11,13,32,9,3,-5
-11,2,12,4,-11,7,11,13,32,9,3,-4
-11,2,12,4,-11,7,11,13,32,9,3,-4
-11,2,12,4,-11,7,11,13,32,9,3,-4
-11,2,12,4,-11,7,11,13,32,9,3,-4
-11,2,13,4,-11,7,11,13,32,9,3,-4
-11,2,13,4,-11,7,11,13,32,9,3,-4
-11,2,13,4,-11,7,11,13,31,8,3,-4
-11,2,13,4,-11,7,11,13,31,7,3,-4
-11,2,13,4,-12,7,11,13,30,7,3,-4
-11,2,13,4,-12,7,11,13,30,6,3,-4
-11,2,14,4,-12,8,11,13,29,6,3,-4
-11,2,14,4,-13,8,11,13,29,6,3,-4
-11,2,14,4,-13,8,11,12,28,6,3,-4
-12,2,14,4,-13,8,11,12,28,5,2,-4
-12,2,14,4,-13,9,11,12,27,5,2,-3
-12,3,15,5,-13,9,10,11,26,4,2,-3
-12,3,15,5,-13,9,10,11,25,3,1,-3
-12,3,15,5,-13,9,10,10,24,2,1,-3
-12,3,15,5,-13,9,9,10,23,2,1,-3
-12,3,15,5,-13,9,9,9,22,1,1,-3
-12,3,15,5,-13,9,9,9,21,0,1,-3
-12,3,15,5,-14,9,9,9,20,0,1,-2
-12,3,16,4,-14,10,9,8,19,-1,1,-2
-12,4,16,4,-14,10,9,8,18,-1,1,-2
-13,4,16,4,-14,10,9,7,17,-2,1,-2
-13,4,17,4,-14,10,8,7,16,-2,1,-1
-13,4,17,4,-14,10,8,6,14,-3,1,-1
-13,4,17,4,-14,10,8,6,13,-3,1,-1
-12,4,17,4,-14,10,8,5,12,-4,0,-1
-12,4,16,4,-14,10,8,5,11,-4,0,-1
-12,4,16,4,-14,10,7,4,10,-5,0,-1
-12,4,15,4,-13,10,7,4,9,-5,0,-1
-12,4,15,4,-13,10,7,3,8,-6,0,-1
-12,4,15,4,-13,9,7,3,7,-6,0,-1
-12,4,14,4,-13,9,6,3,5,-6,-1,-1
-11,4,14,4,-13,9,6,2,4,-6,-1,-1
-11,3,14,4,-13,9,6,2,3,-7,-1,-1
-11,3,14,4,-13,9,6,1,2,-7,-1,0
-11,3,14,4,-13,9,6,1,1,-7,-1,0
-11,3,14,4,-13,9,6,1,0,-8,-1,0
-11,3,14,4,-12,9,6,1,0,-8,-1,0
-11,3,13,4,-12,8,6,0,-1,-9,-1,0
-11,3,13,4,-12,8,6,0,-2,-9,0,0
-11,2,13,5,-12,8,6,0,-2,-9,0,0
-11,2,13,5,-12,8,6,0,-3,-10,0,0
-11,2,13,5,-12,8,5,0,-3,-10,0,0
-11,2,13,5,-12,8,5,0,-4,-10,0,0
-11,2,13,5,-12,8,5,0,-4,-10,0,0
-10,2,13,5,-11,8,5,-1,-5,-10,0,0
-10,2,12,4,-11,8,5,-1,-6,-11,0,0
-9,2,12,4,-10,7,5,-2,-6,-12,0,0
-9,2,11,4,-10,7,5,-2,-7,-12,-1,0
-8,2,11,4,-9,6,4,-2,-7,-12,-1,0
-8,2,10,4,-9,6,4,-2,-7,-12,-1,0
-8,2,10,4,-9,6,4,-2,-7,-12,-1,0
-9,2,10,4,-9,6,4,-2,-7,-12,-1,0
-9,2,10,4,-9,6,4,-2,-7,-12,-1,0
-9,2,10,4,-9,6,4,-2,-7,-12,-1,0
-9,1,10,4,-9,6,4,-2,-8,-12,-1,0
-9,1,10,4,-9,6,4,-2,-8,-13,-1,0
-9,1,10,4,-9,6,4,-2,-9,-13,-1,0
-9,0,10,4,-9,5,4,-2,-9,-13,-1,0
-8,0,9,4,-9,5,4,-2,-10,-13,-1,0
-8,0,9,4,-9,5,3,-3,-10,-13,-1,0
-8,0,8,4,-8,5,3,-3,-11,-13,-1,0
-7,0,8,4,-8,5,3,-3,-11,-14,-1,0
-7,0,7,4,-7,5,3,-3,-11,-14,-1,0
-7,0,7,4,-7,4,3,-3,-11,-14,-1,0
-7,0,7,4,-7,4,3,-3,-11,-14,-1,0
-7,0,7,4,-7,4,3,-4,-11,-14,-1,0
-7,0,7,4,-7,4,3,-4,-12,-14,-1,0
-7,0,7,4,-7,4,3,-4,-12,-14,-1,0
-7,0,7,4,-7,4,3,-4,-13,-14,-1,0
-7,0,7,4,-7,4,3,-4,-13,-14,-1,0
-7,0,7,4,-7,4,3,-4,-14,-14,-1,0
-7,0,6,4,-7,4,3,-4,-14,-14,-1,1
-7,0,6,4,-6,3,2,-4,-14,-14,-1,1
-6,0,5,4,-6,3,2,-4,-15,-14,-1,1
-6,0,5,4,-5,3,2,-5,-15,-14,-1,2
-5,0,5,4,-5,3,1,-5,-16,-14,-1,2
-5,0,5,4,-5,3,1,-5,-16,-14,-1,2
-5,0,5,4,-5,3,1,-5,-16,-14,-1,2
-5,0,5,4,-5,3,1,-5,-16,-14,-1,2
-5,0,5,4,-5,3,1,-5,-16,-14,-1,2
-5,0,5,4,-5,3,1,-5,-16,-14,-1,2
-5,0,5,4,-5,3,1,-5,-16,-14,-1,2
-5,0,5,4,-5,3,1,-5,-16,-13,-1,2
-5,0,5,4,-5,3,1,-5,-16,-13,-1,2
-5,0,4,4,-5,3,1,-5,-15,-12,-1,2
-4,0,4,3,-4,2,1,-5,-15,-12,0,2
-4,0,3,3,-4,2,1,-5,-15,-12,0,2
-4,0,3,3,-4,2,1,-5,-15,-12,0,2
-4,0,3,3,-4,2,1,-4,-15,-12,0,3
-4,0,3,3,-4,2,1,-4,-14,-11,0,3
-4,0,3,3,-4,2,1,-4,-14,-11,0,3
-4,0,3,3,-4,2,1,-4,-13,-11,0,3
-4,0,3,3,-4,2,1,-4,-13,-10,0,3
-4,0,3,3,-4,2,1,-4,-12,-10,0,3
-4,-1,2,3,-4,1,1,-4,-12,-10,0,3
-4,-1,2,3,-3,1,1,-4,-11,-10,0,2
-4,-1,2,3,-3,1,1,-4,-10,-9,0,2
-4,-1,2,3,-3,1,1,-3,-9,-9,0,2
-4,-1,2,3,-3,1,1,-3,-8,-8,0,2
-4,-1,2,3,-3,1,1,-2,-7,-8,0,2
-4,-1,2,3,-3,1,1,-2,-6,-8,0,2
-4,-1,2,3,-3,1,1,-2,-5,-8,0,2
-4,-1,2,3,-3,1,1,-2,-4,-7,0,2
-4,-1,2,3,-3,1,1,-1,-2,-7,0,2
-4,-1,3,3,-4,1,1,-1,-1,-6,0,2
-5,-1,3,3,-4,2,2,0,0,-6,0,2
-5,-1,4,3,-5,2,2,0,1,-5,0,1
-5,0,4,3,-5,2,2,0,2,-5,0,1
-5,0,4,3,-5,2,2,0,3,-5,0,1
-5,0,4,3,-5,2,2,0,4,-4,0,1
-5,0,4,3,-5,3,2,1,5,-4,0,1
-4,0,4,2,-5,3,2,1,7,-3,0,1
-4,0,4,2,-5,3,2,1,8,-3,0,1
-4,0,5,2,-5,3,2,2,10,-2,0,1
-4,1,5,2,-5,4,3,2,11,-2,0,1
-5,1,6,2,-6,4,3,3,13,-1,0,1
-5,1,7,2,-6,5,4,3,14,-1,0,1
-6,2,7,2,-7,5,4,4,16,0,0,1
-6,2,8,2,-7,5,4,4,17,0,0,1
-6,2,8,2,-7,5,4,5,18,0,0,1
-6,2,8,2,-7,5,4,5,19,1,0,1
-6,2,8,2,-7,6,4,5,21,1,0,1
-6,2,9,2,-7,6,4,6,22,2,0,1
-6,2,9,2,-7,6,4,6,23,2,0,1
-6,3,9,2,-7,6,4,7,24,3,0,1
-6,3,9,2,-7,6,4,7,25,3,0,1
-6,3,9,2,-7,6,4,7,26,4,0,1
-6,3,9,2,-7,6,4,7,27,4,0,1
-6,4,9,2,-8,7,4,7,28,5,0,1
-6,4,9,2,-8,7,4,7,29,5,0,1
-6,4,10,2,-8,7,4,8,30,6,0,1
-6,4,10,2,-8,8,5,8,31,6,0,1
-6,4,10,2,-8,8,5,9,32,7,1,1
-6,5,11,2,-8,8,5,9,33,7,1,1
-6,5,11,1,-8,8,5,10,34,8,1,1
-6,5,12,1,-8,9,5,10,35,8,1,2
-6,5,12,1,-9,9,5,10,35,9,1,2
-6,6,12,1,-9,9,5,10,36,9,1,2
-6,6,12,1,-9,9,5,10,36,9,1,2
-6,6,12,0,-9,9,5,10,37,10,1,2
-6,7,12,0,-9,9,5,10,37,10,2,2
-6,7,11,0,-8,9,4,10,37,10,2,2
-5,7,11,0,-8,9,4,10,37,10,2,2
-5,7,12,0,-8,10,4,10,37,10,2,2
-6,7,12,0,-9,10,4,10,37,11,2,2
-6,7,13,0,-9,10,4,10,37,11,3,2
-6,7,13,0,-9,10,4,10,37,11,3,2
-6,7,13,0,-9,10,4,10,37,11,3,2
-6,7,13,0,-9,10,4,10,37,11,3,3
-6,7,13,0,-9,10,4,11,37,12,3,3
-6,7,12,0,-8,10,4,11,37,12,3,3
-6,7,12,0,-8,10,4,11,37,12,3,3
-6,7,12,0,-8,10,4,11,36,12,3,3
-5,7,12,0,-8,10,4,11,36,12,3,3
-5,7,12,-1,-8,10,4,10,35,12,3,3
-5,7,12,-1,-8,10,4,10,35,12,3,4
-5,7,12,-1,-7,9,4,10,35,12,4,4
-5,7,11,-1,-7,9,4,10,34,12,4,4
-5,7,11,-1,-7,9,4,10,34,12,4,4
-4,7,11,-1,-7,9,4,10,33,12,4,4
-4,7,11,-1,-7,9,4,10,33,12,4,4
-4,7,10,-1,-7,9,4,10,32,12,4,4
-4,7,10,-1,-7,9,4,10,32,12,4,4
-4,7,10,-1,-7,9,4,10,31,12,5,4
-4,7,10,-1,-7,9,4,10,31,12,5,4
-4,7,10,-1,-7,9,4,10,30,12,5,4
-4,7,10,-1,-7,9,4,10,30,12,5,4
-4,7,10,-1,-7,9,3,10,30,12,5,4
-4,7,10,-1,-7,9,3,10,29,12,5,4
-4,7,10,-1,-7,9,3,9,29,12,5,4
-4,7,10,-1,-7,9,3,9,28,12,5,5
-4,7,10,-1,-7,9,3,9,27,12,5,5
-4,7,10,-1,-6,8,3,9,27,12,5,5
-4,7,9,-1,-6,8,3,9,26,12,5,5
-4,7,8,-1,-6,7,3,8,26,12,5,5
-3,6,8,-1,-6,7,3,8,26,12,5,5
-3,6,8,-1,-6,7,3,8,25,12,5,5
-3,6,8,-1,-6,7,3,8,25,12,5,5
-3,6,8,-1,-6,7,3,8,24,12,6,5
-3,6,8,-1,-6,7,3,8,24,12,6,5
-3,6,8,-1,-6,7,3,8,23,12,6,5
-3,6,8,-1,-5,7,3,8,23,12,6,5
-3,5,7,-1,-5,6,3,8,22,12,6,5
-3,5,7,-1,-5,6,3,8,22,11,6,5
-3,5,7,-1,-5,6,3,8,22,11,6,5
-3,5,7,-1,-5,6,2,8,22,11,6,5
-3,5,7,-1,-5,6,2,7,21,11,6,5
-3,5,7,-1,-5,6,2,7,21,11,5,5
-3,5,7,-1,-5,6,2,7,20,11,5,5
-3,6,7,-1,-5,7,2,7,20,11,5,5
-3,6,7,-1,-5,7,2,7,20,10,5,5
-3,6,7,-1,-5,7,2,7,20,10,5,5
-3,6,7,-1,-5,6,2,7,20,10,5,5
-3,6,7,-1,-5,6,2,7,19,10,5,5
-3,5,7,-1,-5,6,2,7,19,10,5,5
-3,5,7,-1,-5,6,2,7,19,10,5,5
-3,6,7,-1,-5,7,2,7,19,10,5,5
-3,6,8,-1,-5,7,2,7,19,10,6,6
-3,7,9,-1,-6,8,2,7,19,10,6,6
-3,7,9,-2,-6,8,2,7,19,10,6,6
-2,8,10,-3,-6,9,2,7,20,11,7,7
-2,9,11,-4,-6,10,2,7,20,12,7,8
-2,11,12,-5,-7,11,2,7,21,13,8,9
-1,12,12,-6,-7,12,1,7,21,13,8,9
0,13,13,-6,-6,13,1,7,22,14,9,10
0,14,12,-7,-6,13,0,6,22,14,9,10
1,14,11,-7,-5,12,0,6,21,14,9,10
1,13,11,-6,-5,12,-1,5,20,14,9,10
1,12,11,-6,-5,11,-1,5,19,13,9,10
0,12,10,-6,-5,11,-2,4,18,13,9,10
0,12,10,-6,-5,11,-2,3,17,12,9,10
0,12,10,-6,-5,11,-3,3,16,12,9,10
1,11,9,-6,-4,11,-3,3,16,12,9,9
1,11,7,-6,-3,10,-3,3,15,11,8,9
2,10,6,-6,-2,9,-4,3,15,11,8,8
4,10,4,-6,0,7,-4,3,15,11,8,8
5,9,2,-7,1,6,-4,3,15,11,8,8
5,8,0,-7,2,5,-4,4,15,11,7,7
6,6,-1,-6,3,3,-4,5,14,10,7,7
6,5,-2,-6,4,1,-4,5,14,10,6,6
7,3,-3,-5,5,0,-4,5,13,9,5,5
7,3,-4,-5,5,-1,-3,5,13,9,5,4
7,2,-5,-5,5,-1,-3,6,13,9,4,4
7,2,-5,-4,5,-1,-3,6,12,8,4,4
7,2,-5,-4,5,-1,-3,6,12,8,4,5
6,3,-4,-4,5,0,-3,6,13,8,5,5
5,3,-3,-4,4,0,-2,5,13,9,5,6
4,3,-2,-4,3,0,-1,5,13,9,5,6
3,3,-1,-3,2,1,0,5,13,8,5,6
2,3,0,-3,1,1,0,5,13,8,5,6
1,3,0,-2,0,2,0,5,13,8,5,6
1,2,1,-2,0,2,1,5,13,8,5,5
0,2,1,-1,-1,2,1,5,13,8,5,5
0,2,2,-1,-1,2,2,5,13,8,4,4
0,2,2,0,-2,2,2,5,13,8,4,4
-1,2,3,0,-2,2,3,5,13,8,4,4
-1,2,3,0,-3,2,3,6,13,8,4,4
-2,2,4,0,-3,2,3,6,13,8,4,4
-2,2,4,0,-3,2,4,6,13,8,4,4
-3,2,4,0,-3,2,4,6,13,8,4,4
-3,2,4,0,-4,2,4,6,13,8,4,4
-3,2,4,0,-4,2,4,6,13,8,4,4
-3,2,4,0,-4,2,4,6,13,8,4,4
-3,2,4,0,-4,2,4,6,13,8,4,5
-3,2,4,0,-4,2,4,6,13,8,4,5
-3,2,4,0,-4,2,4,6,13,8,4,5
-3,2,3,0,-4,2,4,6,13,8,4,5
-3,2,3,0,-3,2,4,6,13,8,4,5
-3,2,4,0,-3,3,4,6,14,9,4,5
-3,2,4,0,-4,3,4,6,14,9,4,5
-3,2,4,0,-4,3,4,6,14,9,4,5
-2,2,3,0,-3,2,4,6,14,8,4,5
-1,1,2,0,-2,2,4,6,14,8,4,5
-1,1,2,0,-1,1,4,7,16,8,4,4
-1,0,1,0,-1,0,5,9,19,9,3,3
-1,0,0,0,0,0,5,12,25,11,3,2
0,0,-1,0,0,0,5,13,30,14,3,2
1,0,-1,-1,1,0,4,14,34,20,6,3
4,1,-2,-3,3,0,2,16,39,29,11,6
8,4,-4,-6,6,0,0,18,45,42,18,9
13,7,-6,-10,9,0,-4,20,51,57,26,13
17,10,-8,-13,12,1,-7,20,52,74,35,17
22,13,-9,-17,15,2,-11,18,47,93,46,22
28,18,-10,-23,19,4,-17,14,33,115,60,29
34,23,-11,-29,23,6,-24,8,10,135,76,38
41,27,-14,-34,27,7,-31,-1,-23,150,91,47
46,28,-18,-37,32,5,-37,-11,-64,156,101,54
51,26,-24,-38,37,1,-42,-21,-107,151,105,57
54,20,-34,-36,44,-7,-46,-30,-148,135,100,55
54,10,-45,-32,49,-17,-48,-40,-186,108,89,50
53,0,-54,-26,53,-27,-50,-50,-221,71,74,44
50,-8,-59,-21,54,-34,-51,-61,-252,31,57,38
46,-16,-63,-15,54,-39,-51,-71,-277,-10,40,31
40,-24,-64,-8,52,-44,-49,-79,-295,-50,21,23
33,-31,-65,-1,49,-48,-46,-85,-302,-85,1,14
26,-38,-65,6,46,-52,-41,-87,-299,-112,-18,2
18,-47,-67,14,43,-57,-34,-86,-287,-132,-39,-12
12,-57,-71,23,42,-64,-27,-82,-268,-144,-59,-29
6,-67,-75,30,41,-71,-19,-75,-243,-150,-77,-45
1,-74,-77,36,39,-76,-12,-67,-216,-150,-89,-57
-2,-78,-77,39,37,-77,-7,-58,-188,-145,-94,-64
-4,-79,-75,41,35,-77,-2,-49,-161,-136,-94,-68
-6,-77,-71,41,32,-74,1,-41,-136,-124,-91,-67
-9,-73,-65,41,28,-69,4,-34,-112,-110,-85,-64
-12,-68,-56,40,22,-62,7,-28,-92,-95,-77,-59
-15,-61,-47,39,16,-54,10,-23,-74,-82,-69,-53
-17,-54,-38,36,10,-46,11,-19,-59,-70,-61,-47
-18,-49,-31,34,7,-40,12,-16,-46,-60,-54,-43
-18,-44,-27,31,4,-36,13,-13,-35,-52,-48,-39
-17,-40,-23,28,3,-31,13,-10,-26,-45,-43,-35
-16,-35,-19,25,2,-27,13,-7,-18,-39,-38,-32
-15,-30,-16,23,0,-22,13,-5,-11,-33,-34,-28
-14,-25,-12,20,-1,-18,12,-3,-6,-27,-29,-24
-13,-20,-8,17,-2,-13,11,-2,-1,-21,-24,-19
-12,-15,-4,14,-4,-9,10,0,2,-16,-19,-15
-11,-10,0,11,-5,-5,10,0,6,-11,-15,-10
-10,-7,2,8,-6,-1,9,2,10,-8,-11,-7
-9,-4,4,6,-7,1,9,3,13,-5,-8,-4
-9,-3,6,5,-7,2,9,4,16,-4,-6,-3
-8,-2,6,5,-7,3,9,5,17,-2,-5,-3
-8,-1,7,4,-8,4,9,6,18,-1,-5,-2
-8,0,8,4,-8,5,9,6,19,0,-4,-1
-8,1,9,3,-9,6,9,7,20,1,-3,0
-8,2,10,3,-9,6,9,7,20,2,-2,0
-9,2,11,3,-10,7,9,7,21,2,-2,0
-9,3,11,3,-10,7,9,7,22,2,-2,1
-9,3,12,3,-10,7,9,7,23,2,-2,1
-9,3,12,3,-10,7,9,7,23,2,-1,1
-8,3,12,3,-10,7,9,7,24,3,-1,1
-8,3,12,2,-10,7,9,7,24,3,-1,1
-7,3,11,2,-10,7,9,7,24,4,-1,1
-7,4,11,2,-9,7,9,8,24,4,-1,1
-7,4,11,2,-9,7,9,8,24,4,-1,1
-7,4,11,2,-9,7,9,8,24,4,0,1
-7,4,11,2,-9,7,9,8,25,4,0,1
-7,4,11,2,-9,7,9,8,25,4,0,1
-7,4,11,2,-9,7,9,8,26,4,0,1
-7,4,11,2,-9,8,9,8,26,5,0,1
-7,4,11,2,-9,8,9,9,26,5,0,1
-8,4,12,2,-10,9,9,9,26,5,0,1
-8,4,12,2,-10,9,9,9,26,5,0,1
-7,4,12,1,-10,9,9,9,27,5,0,1
-7,4,12,1,-10,9,9,9,27,5,0,2
-7,4,12,1,-10,9,9,9,27,6,1,2
-7,4,12,1,-10,9,9,9,27,6,1,2
-7,5,12,1,-10,9,9,9,28,6,1,2
-7,5,12,1,-10,9,9,9,28,6,1,2
-7,6,13,1,-10,9,9,9,28,6,1,2
-7,6,13,1,-10,9,9,9,28,6,1,2
-7,6,13,1,-10,9,9,9,28,6,1,2
-7,6,13,1,-10,9,9,9,28,6,1,2
-7,6,13,1,-10,10,9,9,28,6,1,2
-7,6,13,1,-10,10,9,9,28,6,1,2
-7,6,13,1,-10,10,9,9,28,6,1,2
-7,6,14,1,-10,10,9,9,28,6,1,2
-7,6,14,1,-11,11,9,9,28,6,1,2
-8,6,15,1,-11,11,9,9,28,6,1,2
-8,6,15,1,-12,11,9,9,28,6,1,2
-8,6,15,1,-12,11,9,9,28,6,1,2
-8,7,15,0,-12,11,8,8,27,6,1,2
-8,7,15,0,-12,11,8,8,27,6,1,2
-7,7,15,0,-12,11,8,8,26,5,1,2
-7,7,15,0,-11,11,8,8,26,5,1,2
-7,8,15,0,-11,11,8,8,25,5,0,2
-7,8,15,0,-11,12,7,7,24,4,0,2
-7,9,16,-1,-11,13,7,7,23,3,0,2
-7,10,17,-1,-12,14,7,6,22,3,0,2
-7,10,18,-1,-13,14,7,6,21,2,0,2
-7,10,18,-1,-13,14,7,6,21,2,0,2
-8,9,17,0,-13,13,7,6,20,2,0,2
-8,8,16,0,-12,12,7,6,20,2,0,2
-8,7,15,0,-12,11,7,5,19,1,0,2
-8,7,15,0,-11,11,7,5,18,1,0,2
-8,6,15,1,-11,10,7,5,17,1,0,3
-8,6,14,1,-11,10,7,4,16,0,0,3
-7,5,13,1,-10,10,7,4,15,0,-1,3
-7,5,13,1,-10,9,7,3,13,0,-1,3
-7,5,13,1,-10,9,7,3,12,-1,-1,3
-7,5,13,1,-10,9,6,2,11,-1,-1,3
-7,5,13,1,-10,9,6,2,10,-2,-1,3
-7,5,13,1,-10,9,6,1,9,-2,-1,3
-7,5,12,1,-9,9,6,1,7,-3,-2,3
-7,5,12,1,-9,9,5,0,6,-3,-2,3
-7,5,12,1,-9,8,5,0,5,-4,-2,3
-7,5,12,1,-9,8,5,0,4,-4,-2,3
-7,5,11,1,-9,8,5,-1,3,-5,-2,3
-6,5,11,1,-9,8,5,-1,2,-5,-2,3
-6,5,11,1,-9,8,5,-2,1,-6,-2,3
-6,5,12,1,-9,8,4,-2,0,-7,-2,3
-6,4,12,1,-9,8,4,-2,-1,-7,-2,3
-6,4,11,1,-9,7,4,-2,-2,-8,-2,3
-6,4,11,1,-9,7,4,-2,-3,-8,-3,3
-6,4,10,1,-8,7,4,-3,-3,-8,-3,3
-5,4,10,1,-8,7,4,-3,-4,-9,-3,3
-5,4,9,1,-7,7,4,-4,-4,-9,-3,3
-5,3,9,1,-7,6,4,-4,-5,-9,-3,3
-5,3,8,0,-7,6,4,-5,-6,-9,-3,3
-5,4,9,0,-7,7,3,-5,-7,-9,-3,3
-5,4,9,0,-7,7,3,-5,-8,-9,-3,3
-5,4,9,0,-7,7,3,-5,-8,-10,-3,3
-5,3,9,0,-7,6,3,-5,-9,-10,-3,3
-5,3,8,0,-7,6,3,-5,-9,-10,-3,3
-5,3,8,0,-7,6,2,-5,-9,-10,-3,3
-5,3,8,0,-7,6,2,-5,-9,-11,-3,3
-5,3,8,0,-6,6,2,-6,-10,-11,-3,3
-5,3,7,0,-6,5,2,-6,-10,-11,-3,3
-4,2,6,0,-5,5,2,-6,-10,-11,-3,3
-4,2,6,0,-5,4,2,-6,-10,-11,-3,3
-4,2,6,0,-5,4,2,-6,-11,-11,-3,3
-4,2,5,0,-5,4,2,-6,-11,-11,-3,3
-4,1,5,1,-4,4,2,-6,-11,-12,-4,3
-4,1,5,1,-4,4,2,-6,-12,-12,-4,3
-4,1,5,1,-4,3,2,-6,-12,-12,-4,3
-5,0,5,2,-5,3,2,-6,-12,-12,-4,3
-5,0,5,2,-5,2,2,-6,-12,-12,-4,3
-5,0,4,2,-5,2,2,-6,-12,-12,-4,3
-5,0,4,2,-5,2,2,-6,-12,-12,-4,3
-4,0,4,2,-4,2,2,-6,-13,-12,-4,3
-3,0,3,2,-3,1,1,-6,-14,-13,-4,3
-3,0,2,1,-2,1,1,-7,-14,-13,-4,3
-3,0,1,1,-2,1,1,-7,-15,-13,-4,3
-3,0,2,1,-2,1,1,-7,-15,-13,-4,3
-3,0,2,1,-2,1,1,-7,-15,-13,-4,3
-3,0,2,1,-2,1,1,-8,-15,-13,-4,3
-3,0,2,1,-2,1,0,-8,-15,-13,-4,3
-3,0,2,1,-2,1,0,-8,-15,-13,-4,3
-2,0,1,1,-2,1,0,-8,-16,-13,-4,3
-2,0,1,1,-2,1,0,-8,-16,-13,-4,3
-2,0,0,1,-1,0,0,-8,-16,-12,-3,3
-2,0,0,1,-1,0,0,-8,-17,-12,-3,3
-2,0,0,1,-1,0,0,-8,-17,-12,-3,3
-2,0,0,1,-1,0,0,-8,-17,-12,-3,3
-2,-1,0,1,-1,0,0,-7,-17,-12,-3,3
-2,-1,0,1,-1,0,0,-7,-17,-12,-3,3
-2,-1,0,1,-1,0,0,-7,-17,-11,-3,3
-2,-1,0,1,-1,0,0,-7,-17,-11,-3,4
-2,-1,0,1,-1,0,0,-7,-17,-11,-3,4
-1,-1,0,1,-1,0,0,-7,-17,-11,-3,4
-1,-1,0,1,0,0,0,-7,-17,-11,-3,4
0,-1,-1,1,0,-1,0,-7,-17,-11,-3,4
0,-1,-1,1,0,-1,0,-7,-17,-11,-3,4
0,-1,-1,1,0,-1,0,-7,-17,-11,-3,4
0,-1,-1,0,0,-1,0,-7,-16,-11,-3,4
0,-2,-1,0,0,-1,0,-7,-16,-11,-3,4
0,-2,-1,0,0,-1,0,-7,-15,-11,-3,4
0,-2,-1,1,0,-1,0,-6,-15,-10,-3,4
0,-2,-1,1,0,-1,0,-6,-14,-10,-3,4
-1,-2,-1,1,0,-1,0,-5,-14,-9,-3,4
-1,-2,-1,1,0,-1,0,-5,-13,-9,-3,4
0,-2,-2,1,0,-2,0,-5,-13,-9,-3,4
0,-2,-2,1,0,-2,0,-5,-12,-9,-3,4
0,-2,-2,1,0,-2,0,-5,-11,-9,-3,4
0,-2,-2,1,0,-2,0,-5,-10,-9,-3,4
0,-2,-2,1,0,-2,0,-4,-9,-9,-3,4
0,-2,-2,1,0,-2,0,-4,-8,-8,-3,4
0,-2,-1,1,0,-2,0,-3,-7,-8,-3,4
0,-2,-1,1,0,-2,0,-3,-6,-8,-3,4
0,-2,-1,1,0,-2,0,-3,-6,-7,-3,4
0,-2,-1,1,0,-1,0,-3,-5,-7,-3,4
0,-2,-1,1,0,-1,0,-3,-4,-7,-3,3
-1,-2,-1,1,0,-1,1,-2,-2,-6,-3,3
-1,-2,0,1,0,-1,1,-2,-1,-6,-3,3
-1,-1,0,1,0,0,1,-1,0,-5,-3,3
-1,-1,0,0,0,0,1,-1,2,-5,-3,3
-1,-1,0,0,-1,0,1,0,3,-4,-3,3
-2,-1,0,0,-1,0,1,0,4,-4,-4,3
-2,-1,0,0,-1,0,1,0,5,-3,-4,2
-2,-1,1,0,-1,0,2,0,6,-3,-4,2
-2,-1,1,0,-1,1,2,0,8,-3,-4,2
-2,0,1,0,-1,1,2,1,10,-2,-4,2
-2,0,1,0,-1,1,2,1,11,-2,-4,2
-2,0,2,0,-1,1,2,2,12,-1,-4,2
-2,0,2,0,-2,1,3,2,14,-1,-4,2
-2,0,3,0,-2,1,3,3,15,0,-4,2
-3,0,3,0,-3,2,3,3,16,0,-3,2
-3,0,3,0,-3,2,3,4,17,1,-3,2
-3,0,3,0,-3,2,3,4,19,1,-3,2
-3,1,3,0,-3,2,3,5,20,2,-3,2
-3,1,4,0,-3,3,3,5,21,2,-3,2
-3,1,4,0,-3,3,3,6,22,3,-3,2
-3,1,5,0,-4,3,3,6,23,3,-3,2
-3,2,5,0,-4,4,3,6,24,4,-3,2
-3,2,6,0,-4,4,3,6,25,4,-3,2
-3,2,6,0,-4,4,4,6,26,5,-3,2
-3,2,6,0,-4,4,4,6,27,5,-3,2
-3,3,7,0,-4,5,4,6,28,5,-3,2
-3,3,7,0,-4,5,4,7,29,6,-3,2
-3,3,7,0,-5,5,4,7,30,6,-3,2
-3,3,7,0,-5,5,4,7,30,6,-3,2
-3,3,7,-1,-5,5,4,8,31,7,-2,3
-3,4,7,-1,-5,6,4,8,32,7,-2,3
-3,4,8,-1,-6,6,4,8,32,8,-1,3
-3,4,8,-1,-7,6,4,8,32,8,-1,3
-3,5,9,-1,-7,6,4,9,33,9,-1,3
-3,5,9,-1,-7,7,4,9,33,9,-1,3
-3,5,9,-1,-7,7,4,9,34,9,-1,3
-3,5,9,-1,-7,7,4,9,34,10,-1,4
-3,5,9,-1,-7,7,4,9,35,10,-1,4
-3,5,9,-1,-7,7,4,9,35,10,-1,4
-3,5,9,-2,-7,7,4,9,35,10,0,4
-3,5,9,-2,-7,7,4,9,35,11,0,4
-3,5,9,-2,-7,7,4,9,35,11,0,4
-3,6,9,-2,-7,8,4,9,35,11,0,4
-3,6,9,-2,-7,8,4,9,35,11,0,4
-3,6,9,-2,-7,8,5,9,35,11,0,5
-3,6,9,-2,-7,8,5,9,35,11,0,5
-3,6,10,-2,-7,8,5,9,34,12,1,6
-3,6,10,-2,-7,8,5,10,34,12,1,6
-2,6,9,-2,-7,7,5,10,34,12,1,6
-2,6,9,-2,-7,7,5,10,33,12,1,6
-2,6,9,-2,-7,7,5,10,33,12,1,6
-2,6,9,-2,-7,8,5,10,32,12,1,6
-2,6,9,-2,-7,8,5,10,32,12,1,6
-2,6,9,-2,-7,8,5,10,31,12,1,6
-2,6,9,-2,-7,8,5,10,31,12,1,6
-2,6,9,-2,-7,7,5,10,31,12,1,6
-2,6,9,-2,-7,7,4,10,30,12,2,6
-2,6,9,-2,-7,7,4,9,30,13,2,6
-2,5,9,-2,-6,7,4,9,29,13,2,6
-2,5,8,-2,-6,7,4,9,29,12,2,6
-2,5,8,-2,-6,7,4,9,28,12,2,6
-2,5,8,-2,-5,7,4,9,28,12,2,6
-1,5,8,-2,-5,7,4,9,27,12,2,7
-1,5,8,-2,-5,6,4,9,27,12,2,7
-1,5,8,-2,-5,6,4,9,26,12,2,6
-1,5,7,-2,-5,6,4,9,26,12,2,6
-1,5,7,-2,-5,6,4,9,25,12,2,6
-1,5,7,-2,-5,6,4,9,25,12,2,6
-1,5,7,-2,-5,6,4,8,24,12,2,6
-1,5,7,-2,-5,6,4,8,24,12,2,6
-1,5,7,-2,-5,6,4,8,24,12,3,6
-1,5,7,-2,-5,6,4,8,23,12,3,6
-1,5,7,-2,-4,6,4,8,23,12,3,6
-1,5,7,-2,-4,6,4,8,22,12,3,6
-1,5,7,-2,-4,6,4,7,22,12,3,6
-1,5,7,-2,-4,6,4,7,22,11,3,6
-1,5,6,-2,-4,6,4,7,21,11,3,6
-1,5,6,-2,-4,6,4,7,21,11,3,6
-1,5,6,-2,-4,6,3,7,20,11,3,7
-1,5,6,-2,-4,6,3,7,20,10,3,7
-1,5,6,-2,-4,6,3,7,19,10,3,7
-1,5,7,-2,-4,6,3,7,19,10,4,7
-1,5,7,-2,-5,6,3,7,19,9,4,7
-1,6,8,-2,-5,7,3,6,18,9,4,8
-1,6,8,-2,-5,7,2,6,18,8,4,8
-1,6,8,-2,-5,7,2,6,17,8,4,8
-1,6,8,-2,-5,7,2,6,17,8,4,8
-1,6,8,-2,-5,7,2,6,17,8,4,8
-1,7,8,-2,-5,7,2,6,17,8,4,8
-1,7,8,-2,-5,7,2,5,17,8,4,8
0,8,8,-3,-5,7,1,5,17,8,5,9
0,8,9,-3,-5,8,1,5,17,8,5,9
0,9,9,-3,-5,9,1,5,17,8,5,10
0,10,10,-3,-6,10,1,5,18,9,6,11
0,11,11,-4,-6,11,1,5,18,10,6,12
0,12,12,-4,-6,12,1,5,19,11,7,13
0,13,13,-5,-6,14,1,5,20,12,8,13
0,14,14,-6,-7,15,1,6,20,12,9,14
0,15,14,-7,-7,15,0,6,21,13,9,14
0,15,13,-7,-7,14,0,6,21,13,9,14
1,14,13,-7,-7,14,-1,5,20,13,9,14
2,14,12,-7,-6,13,-2,5,19,13,8,14
3,13,11,-7,-5,12,-3,4,18,12,8,14
3,13,11,-7,-4,12,-3,3,17,12,7,14
3,13,11,-8,-4,12,-4,2,16,11,7,13
4,13,9,-8,-3,11,-4,2,15,10,6,13
4,12,8,-7,-2,10,-4,2,14,9,6,12
5,11,7,-7,-2,9,-4,2,14,9,6,11
5,10,5,-7,-1,8,-4,2,14,9,6,11
6,9,4,-7,0,6,-5,3,14,9,6,10
7,8,2,-7,1,5,-5,4,14,9,5,9
7,6,0,-6,2,3,-5,4,13,9,4,8
8,5,-1,-6,3,2,-5,5,13,9,4,7
8,3,-3,-5,4,0,-5,5,13,9,3,6
8,2,-4,-4,5,0,-5,5,12,9,3,6
8,2,-5,-4,6,-1,-5,5,12,9,2,5
9,2,-6,-4,7,-2,-5,5,11,8,2,5
9,2,-6,-5,7,-2,-5,5,11,8,2,5
9,2,-6,-5,7,-1,-5,5,11,8,2,5
8,2,-5,-5,6,-1,-4,5,11,9,2,5
6,2,-3,-4,4,0,-3,4,11,9,2,5
5,2,-2,-3,3,0,-3,4,11,9,2,5
4,2,-1,-2,2,0,-2,4,11,9,2,5
3,2,0,-2,1,1,-1,4,12,9,3,5
2,2,0,-1,0,1,-1,4,12,9,3,5
1,1,1,-1,0,1,0,4,12,9,3,5
0,1,1,0,-1,1,0,4,12,8,2,4
0,0,1,0,-1,1,1,5,12,8,2,4
0,0,1,0,-1,1,1,5,12,8,2,3
0,0,1,0,-1,1,2,5,12,7,2,3
0,0,1,0,-1,1,2,5,12,7,2,3
0,0,1,0,-1,1,2,5,12,7,2,3
0,0,1,0,-1,1,2,5,12,7,2,3
0,0,1,0,-1,1,2,5,12,7,2,3
0,0,1,0,-1,1,2,5,12,7,1,3
-1,0,1,0,-1,1,2,5,12,8,1,3
-1,0,1,0,-1,1,2,5,12,8,1,3
-1,0,1,1,-2,1,2,5,13,9,1,3
-1,0,1,1,-2,1,2,5,13,9,1,3
-1,0,1,1,-2,1,2,5,13,9,1,3
-1,0,1,0,-1,1,2,5,13,9,2,3
-1,0,1,0,-1,1,2,5,13,9,2,3
-1,0,1,0,-1,1,2,5,13,9,2,3
-1,0,1,0,-1,1,2,5,13,9,2,3
-1,0,1,0,-1,1,2,5,13,9,2,3
-1,0,1,0,-1,1,2,6,14,8,2,2
0,0,1,0,-1,0,2,7,15,8,2,2
0,0,0,0,-1,0,2,9,18,8,1,1
0,-1,0,1,0,0,3,11,23,9,1,0
0,-1,-1,0,0,-1,3,13,29,12,1,0
3,0,-3,-1,2,-1,2,14,33,18,4,1
6,1,-4,-3,4,-1,0,16,38,27,9,3
10,3,-6,-6,7,-1,-2,18,45,41,16,7
15,6,-7,-10,10,-1,-6,20,51,57,24,12
19,9,-9,-13,13,0,-9,20,53,75,33,16
23,12,-10,-17,16,0,-14,18,48,95,43,21
29,16,-12,-22,19,1,-19,14,34,116,56,27
36,21,-14,-28,24,3,-26,7,10,136,71,36
43,25,-17,-33,29,4,-34,-2,-24,150,86,44
49,26,-22,-37,35,3,-40,-12,-65,156,97,51
53,24,-29,-39,41,-1,-45,-22,-109,152,101,54
56,18,-38,-37,46,-9,-49,-31,-151,136,98,52
57,8,-48,-32,51,-20,-51,-41,-191,109,87,47
55,-1,-56,-26,55,-29,-53,-51,-227,72,73,41
52,-9,-62,-21,56,-36,-54,-62,-258,32,56,35
48,-17,-66,-15,56,-42,-54,-72,-283,-9,38,29
43,-25,-68,-8,55,-47,-52,-80,-300,-49,19,21
37,-33,-69,-1,52,-51,-49,-85,-307,-83,0,11
29,-40,-69,6,48,-54,-44,-88,-303,-110,-20,0
22,-49,-70,14,45,-59,-37,-87,-291,-129,-41,-14
15,-59,-74,23,43,-66,-29,-83,-271,-142,-61,-32
9,-69,-78,31,42,-73,-22,-76,-245,-148,-79,-49
4,-76,-80,36,41,-78,-15,-68,-218,-148,-91,-61
1,-80,-81,40,39,-81,-10,-59,-190,-143,-97,-69
-1,-81,-79,42,37,-80,-5,-49,-163,-134,-97,-72
-4,-80,-74,42,34,-77,0,-40,-138,-123,-93,-71
-7,-76,-68,42,30,-72,2,-33,-114,-110,-86,-68
-10,-71,-60,42,24,-65,5,-28,-93,-96,-78,-63
-14,-64,-49,40,17,-56,8,-23,-75,-83,-70,-57
-16,-56,-40,37,11,-48,9,-20,-60,-71,-62,-51
-16,-50,-34,34,8,-42,10,-17,-47,-61,-56,-47
-15,-45,-30,31,6,-38,11,-13,-36,-53,-50,-43
-15,-41,-26,29,4,-33,11,-10,-26,-45,-45,-39
-14,-37,-22,26,3,-29,11,-7,-18,-38,-41,-35
-13,-32,-18,23,2,-25,11,-4,-11,-32,-36,-31
-12,-27,-15,20,1,-20,10,-2,-5,-26,-31,-27
-11,-22,-10,17,0,-15,10,-1,-1,-20,-26,-23
-10,-16,-6,15,-2,-11,9,0,3,-15,-20,-18
-9,-12,-2,12,-4,-7,9,1,6,-11,-15,-14
-9,-8,1,10,-6,-3,8,2,10,-8,-11,-11
-8,-5,3,7,-7,-1,8,4,13,-5,-8,-8
-7,-3,4,6,-7,1,8,5,16,-4,-6,-7
-7,-2,5,5,-7,2,8,7,18,-2,-5,-6
-8,-2,6,5,-8,2,8,8,20,0,-4,-5
-8,-2,6,5,-8,3,8,8,21,1,-4,-5
-7,-1,7,5,-8,3,8,8,21,3,-3,-4
-7,-1,7,5,-8,3,8,8,22,4,-3,-3
-7,0,7,4,-8,3,8,8,22,4,-3,-2
-7,0,7,4,-8,3,8,8,23,4,-2,-2
-7,0,7,4,-8,3,8,9,23,3,-2,-2
-7,0,7,4,-8,3,8,9,24,3,-2,-3
-7,0,7,4,-8,4,8,9,24,3,-2,-3
-7,0,7,4,-8,4,9,9,24,3,-1,-3
-6,0,7,4,-8,4,9,9,24,4,-1,-3
-6,0,7,4,-8,4,9,9,25,4,0,-3
-6,0,7,4,-8,4,9,9,25,4,0,-3
-6,0,8,4,-8,4,9,9,25,5,0,-3
-6,0,8,4,-8,4,8,10,26,5,0,-3
-6,0,8,4,-8,4,8,10,26,5,0,-3
-6,1,8,4,-8,5,8,10,27,5,0,-3
-6,1,8,4,-8,5,8,10,27,5,0,-3
-7,1,9,4,-8,5,8,10,27,6,0,-3
-7,2,9,4,-9,6,8,10,27,6,0,-2
-7,2,9,3,-9,6,9,11,28,7,0,-2
-7,2,9,3,-9,6,9,11,28,7,1,-2
-7,2,9,3,-9,6,8,11,28,7,1,-2
-7,2,9,3,-9,6,8,11,28,7,1,-1
-7,2,9,3,-9,6,8,11,28,7,1,-1
-7,2,10,3,-9,6,8,11,29,7,1,-1
-7,3,10,3,-9,7,8,11,29,8,1,-1
-7,3,10,3,-9,7,8,11,29,8,1,-1
-7,3,10,3,-9,7,8,11,30,8,1,-1
-7,3,10,3,-9,7,8,11,30,9,1,-1
-7,3,10,3,-9,7,8,11,30,9,1,-1
-7,3,10,3,-9,7,8,11,30,9,1,-1
-7,3,10,3,-9,7,8,11,30,9,1,-2
-7,3,10,3,-9,7,8,11,30,9,1,-2
-7,3,10,3,-9,7,8,11,30,9,1,-2
-7,3,10,3,-9,7,8,11,30,8,1,-2
-7,3,10,3,-9,7,8,11,30,8,1,-2
-8,3,10,3,-9,7,8,11,29,7,1,-2
-8,3,10,3,-9,7,8,11,29,7,1,-2
-7,3,11,3,-10,8,8,11,28,6,1,-2
-7,3,11,3,-10,8,8,11,28,6,1,-2
-7,3,12,3,-10,8,8,10,27,5,1,-2
-7,3,12,3,-10,8,8,10,27,5,1,-2
-7,3,12,3,-10,8,8,10,27,5,1,-1
-7,3,12,3,-10,8,8,9,27,5,1,-1
-7,4,12,2,-10,8,8,9,26,4,1,-1
-7,4,12,2,-10,9,7,9,25,4,1,-1
-8,4,13,2,-10,9,7,8,24,3,1,-1
-8,4,13,2,-11,9,7,8,23,2,1,-1
-8,4,13,2,-11,9,6,7,22,1,1,-1
-8,5,13,2,-11,9,6,7,21,0,0,-1
-7,5,12,2,-10,9,6,6,20,0,0,-1
-6,5,12,1,-10,9,6,6,19,0,0,-1
-6,5,12,1,-10,9,6,6,18,0,0,-1
-7,5,12,1,-10,9,6,6,17,0,-1,-1
-7,5,12,1,-10,9,6,5,16,0,-1,-1
-7,5,12,1,-10,9,6,5,15,-1,-1,-1
-7,5,12,1,-10,9,6,4,14,-1,-1,-1
-7,5,12,1,-10,9,5,4,13,-3,-1,-1
-7,5,12,1,-10,9,5,3,11,-4,-1,-1
-7,5,12,1,-10,9,5,3,10,-6,0,-1
-7,5,12,1,-10,9,5,2,9,-7,0,-1
-7,5,12,1,-10,9,4,2,8,-7,0,-1
-7,5,12,1,-10,9,4,1,7,-7,0,-1
-7,5,12,1,-10,9,4,1,6,-6,0,-1
-7,5,12,2,-10,9,4,1,5,-6,0,0
-8,5,12,2,-10,8,4,0,4,-6,-1,0
-8,4,12,3,-10,8,4,0,3,-6,-1,0
-8,4,12,3,-10,7,4,0,2,-6,-2,0
-7,4,11,2,-9,7,3,-1,1,-6,-2,0
-7,4,11,2,-9,7,3,-1,0,-6,-2,-1
-6,4,10,2,-8,7,2,-1,0,-6,-2,-1
-6,4,10,2,-8,7,2,-1,-1,-6,-2,-2
-6,4,10,2,-8,7,2,-1,-1,-7,-2,-2
-6,4,9,2,-8,6,2,-1,-2,-8,-2,-2
-6,4,9,2,-7,6,2,-2,-3,-8,-2,-2
-5,4,9,2,-7,6,2,-2,-3,-9,-2,-2
-5,4,9,1,-7,6,2,-2,-4,-9,-2,-2
-5,3,9,2,-7,5,2,-3,-4,-10,-2,-2
-6,3,8,2,-7,5,2,-3,-5,-11,-2,-2
-6,2,8,3,-7,5,2,-3,-5,-11,-2,-2
-6,2,8,3,-7,5,2,-3,-6,-11,-2,-1
-6,2,7,3,-7,4,2,-3,-6,-11,-2,-1
-6,2,7,3,-6,4,2,-3,-7,-11,-2,-1
-6,1,7,3,-6,4,2,-3,-7,-11,-2,-1
-6,1,6,3,-6,3,2,-3,-8,-11,-2,-1
-6,1,6,3,-6,3,2,-4,-8,-11,-2,-1
-5,1,5,3,-5,3,2,-4,-8,-11,-2,-1
-5,1,5,3,-5,3,2,-4,-8,-11,-2,-1
-6,0,5,3,-5,3,2,-4,-9,-11,-2,-1
-6,0,5,3,-5,2,1,-4,-9,-12,-2,-1
-6,0,5,3,-5,2,1,-4,-9,-12,-2,-1
-5,0,5,3,-5,2,1,-4,-10,-12,-2,-1
-5,0,5,3,-5,1,1,-4,-10,-12,-2,-1
-5,0,5,3,-5,1,1,-4,-10,-13,-2,-1
-5,0,4,3,-5,1,1,-4,-11,-13,-2,-1
-5,-1,4,3,-5,1,1,-4,-11,-13,-3,-1
-5,-1,3,3,-4,1,0,-5,-12,-13,-3,-2
-5,-1,3,3,-4,0,0,-5,-12,-13,-3,-2
-5,-1,3,3,-4,0,0,-5,-13,-14,-3,-2
-4,-1,2,3,-3,0,0,-5,-13,-14,-3,-3
-4,-1,2,3,-3,0,0,-5,-13,-14,-3,-3
-3,-1,2,3,-3,0,0,-5,-13,-14,-3,-3
-3,-1,2,2,-2,0,0,-5,-13,-14,-3,-3
-2,-1,1,2,-2,0,0,-5,-13,-14,-3,-3
-2,-1,1,2,-1,0,0,-5,-14,-14,-3,-2
-2,-1,0,2,-1,0,-1,-5,-14,-14,-2,-2
-2,-1,0,2,-1,-1,-1,-5,-14,-14,-2,-1
-2,-1,0,2,-1,-1,-1,-5,-14,-13,-2,-1
-2,-1,0,2,-1,-1,-1,-5,-14,-12,-2,0
-2,-1,0,2,-1,-1,-1,-5,-14,-12,-2,0
-2,-1,0,2,-1,-1,-1,-6,-15,-12,-1,0
-2,-1,0,2,-1,-1,-1,-6,-15,-12,-1,0
-1,-1,0,2,-1,-1,-1,-6,-15,-12,-1,0
-1,-1,0,2,-1,-1,-1,-6,-15,-13,-1,0
-1,-1,0,2,-1,-1,-1,-6,-15,-13,-1,0
-1,-1,0,2,-1,-1,-1,-6,-15,-13,-1,0
-1,-1,0,2,-1,-1,-1,-6,-15,-14,-1,-1
0,-1,0,2,0,-1,-2,-6,-16,-14,-1,-1
0,-1,-1,1,0,-1,-2,-6,-16,-14,-1,-1
0,-1,-1,1,0,-1,-2,-6,-15,-14,-2,-1
0,-1,-2,1,1,-2,-2,-6,-15,-14,-2,-1
0,-2,-2,1,1,-2,-2,-6,-16,-14,-2,-1
0,-2,-3,1,1,-3,-2,-5,-15,-14,-2,-1
0,-2,-3,1,1,-3,-2,-5,-15,-14,-2,-1
0,-2,-2,1,1,-3,-1,-4,-14,-13,-2,-1
0,-2,-2,1,0,-3,-1,-4,-13,-12,-1,-1
-1,-2,-2,1,0,-3,-1,-4,-12,-11,-1,-1
-1,-2,-2,1,0,-3,0,-4,-12,-10,-1,-2
-1,-2,-2,1,0,-3,0,-3,-11,-9,-1,-2
-1,-2,-2,1,0,-3,0,-3,-10,-9,-1,-2
-1,-2,-2,1,0,-3,0,-2,-10,-9,-1,-2
-1,-3,-3,1,1,-3,0,-2,-9,-9,-1,-2
0,-3,-4,1,1,-4,0,-2,-8,-9,-2,-2
0,-3,-4,1,2,-4,0,-2,-7,-9,-2,-2
0,-4,-4,2,2,-4,0,-1,-7,-8,-2,-2
0,-4,-4,2,1,-4,0,-1,-6,-8,-2,-2
0,-3,-4,2,1,-4,0,-1,-6,-9,-2,-2
0,-3,-4,1,2,-4,0,-1,-5,-9,-1,-2
1,-2,-3,1,2,-3,0,-1,-4,-8,-1,-2
0,-2,-2,1,1,-3,0,0,-2,-7,0,-2
0,-2,-2,1,0,-2,1,0,0,-6,0,-2
0,-2,-2,1,0,-2,1,0,1,-4,0,-2
0,-2,-2,1,0,-2,1,1,2,-3,0,-2
0,-2,-2,1,0,-2,1,1,4,-3,0,-3
0,-2,-2,1,0,-2,1,1,5,-2,-1,-3
0,-2,-2,1,0,-2,1,2,6,-2,-1,-3
0,-2,-2,1,0,-2,1,2,8,-2,-2,-4
0,-2,-2,1,0,-2,1,2,9,-3,-3,-4
-1,-2,-2,1,0,-2,2,3,11,-3,-3,-5
-1,-2,-1,1,0,-2,2,3,12,-4,-3,-5
-1,-2,-1,1,0,-1,2,4,13,-4,-3,-5
-1,-1,0,1,-1,0,2,4,14,-5,-2,-5
-1,-1,0,1,-1,0,2,5,15,-4,-1,-5
-1,0,0,1,-1,0,2,5,17,-3,-1,-4
-1,0,1,1,-1,1,3,6,18,-1,0,-4
-1,0,1,0,-1,1,3,6,20,0,-1,-4
-1,0,1,0,-1,1,3,7,21,2,-1,-4
-1,0,1,0,-1,1,3,7,23,3,-2,-4
-1,0,1,1,-1,1,3,7,24,3,-2,-4
-2,0,1,1,-2,1,4,7,25,4,-3,-4
-2,0,1,1,-2,1,4,7,26,4,-3,-5
-3,0,2,1,-3,1,4,7,26,4,-3,-5
-3,0,2,1,-3,1,4,8,27,4,-2,-5
-3,0,3,1,-4,2,4,8,28,4,-1,-5
-3,0,4,1,-4,2,4,9,29,4,0,-5
-3,1,4,1,-4,2,4,9,30,4,0,-5
-3,1,4,1,-4,2,4,10,31,4,1,-4
-2,2,5,0,-4,3,4,10,31,4,1,-4
-2,2,5,0,-4,3,4,10,32,5,1,-4
-1,2,4,0,-4,3,4,10,33,5,1,-3
-1,2,4,0,-4,3,4,10,33,7,1,-3
-2,2,4,0,-4,3,4,10,34,8,1,-3
-2,2,4,0,-4,3,3,10,35,9,1,-3
-2,3,4,0,-4,4,3,11,36,10,1,-2
-2,3,5,0,-4,4,3,11,36,11,1,-2
-2,3,5,0,-4,4,3,11,37,11,1,-2
-2,3,5,-1,-4,4,3,11,37,11,1,-2
-1,3,5,-1,-4,4,3,11,37,11,1,-2
-1,3,5,-1,-4,4,3,11,37,11,1,-2
-2,3,5,-1,-4,4,3,11,37,11,1,-2
-2,4,6,-1,-5,5,3,12,37,11,2,-2
-2,4,7,-1,-5,5,3,12,37,11,2,-2
-2,4,7,-1,-5,5,3,12,37,11,3,-2
-2,4,7,-1,-5,5,3,12,37,11,3,-2
-2,4,7,-1,-5,6,3,12,37,12,3,-1
-2,5,7,-1,-5,6,3,12,37,12,3,-1
-2,5,7,-1,-5,6,3,12,36,12,3,-1
-1,4,6,-1,-4,5,3,12,36,12,3,-1
-1,4,6,-1,-4,5,3,12,36,11,3,-2
0,4,5,-2,-3,4,3,12,35,11,3,-2
0,4,5,-2,-3,4,3,12,35,12,3,-2
0,4,4,-2,-2,4,3,11,34,12,3,-2
0,3,4,-2,-2,4,2,11,33,11,3,-2
0,4,4,-2,-2,4,2,11,32,11,4,-2
0,4,4,-2,-2,4,2,11,32,11,4,-1
0,4,5,-2,-2,4,2,11,32,11,4,-1
0,4,5,-1,-2,4,2,11,32,12,4,0
0,4,5,-1,-2,4,2,11,31,12,4,0
0,4,5,-2,-2,5,2,11,31,12,4,0
0,4,4,-2,-2,5,2,11,31,12,4,0
1,4,4,-2,-1,4,2,11,30,12,4,0
1,4,3,-2,-1,4,2,11,30,12,4,0
1,4,3,-2,-1,4,2,11,29,12,4,0
1,4,3,-2,-1,3,2,11,29,12,4,0
1,3,3,-2,-1,3,2,11,28,12,4,0
1,3,3,-2,-1,3,2,10,28,12,4,0
0,3,3,-2,-1,3,2,10,27,12,5,0
0,3,3,-2,-2,3,2,10,27,12,6,0
0,4,3,-2,-2,3,2,10,27,12,7,0
0,4,3,-1,-2,3,2,10,26,12,7,0
0,3,3,-1,-2,3,2,10,26,12,6,0
0,3,3,-1,-2,3,1,10,25,11,6,0
1,3,2,-1,-1,3,1,10,25,10,5,0
1,3,2,-2,-1,3,1,10,25,10,4,0
1,3,2,-2,-1,3,1,10,24,10,3,0
0,3,2,-1,-1,3,1,10,24,10,3,-1
0,3,2,-1,-1,3,1,10,24,11,3,-1
0,3,2,-1,-1,2,1,10,24,12,3,-1
1,2,1,-1,0,1,1,10,24,13,3,-2
1,1,0,0,0,0,1,10,24,14,4,-2
2,1,0,0,1,0,1,10,23,14,4,-2
2,1,-1,0,1,0,1,10,23,13,4,-2
1,0,0,0,0,0,1,9,22,13,5,-2
1,0,0,0,0,0,1,9,21,12,5,-2
1,0,0,0,0,0,1,8,21,11,5,-2
1,0,0,0,0,0,1,8,20,11,6,-1
1,0,0,0,0,0,1,8,20,11,6,-1
1,1,0,0,0,0,1,9,20,11,6,-1
1,1,0,0,0,0,1,9,20,12,6,-1
1,2,0,0,0,1,1,9,21,13,6,0
1,2,1,0,0,1,1,9,21,13,6,0
1,2,1,-1,0,1,1,9,21,13,6,0
2,3,1,-2,0,2,2,9,21,13,7,0
2,3,2,-2,0,2,1,9,21,13,7,1
2,4,3,-2,-1,3,1,9,22,13,8,1
2,6,4,-3,-2,5,1,9,22,14,8,2
2,7,5,-3,-2,6,0,9,23,14,8,3
2,9,6,-4,-2,7,0,9,23,14,8,3
3,10,6,-5,-2,7,0,8,23,14,8,3
3,10,6,-6,-2,7,0,8,23,14,9,3
3,10,6,-6,-2,7,-1,8,22,15,10,3
3,9,5,-6,-2,7,-1,7,22,16,10,3
3,9,5,-6,-1,7,-2,7,21,16,10,3
4,9,4,-6,-1,7,-3,6,20,16,9,3
4,9,4,-6,-1,6,-4,6,19,15,9,3
5,8,2,-6,0,5,-5,5,18,14,9,3
5,7,1,-5,1,4,-5,5,18,13,8,2
6,6,0,-5,2,3,-5,5,17,12,8,2
7,6,-2,-5,4,2,-5,6,17,12,8,1
8,5,-3,-5,5,0,-5,6,17,11,8,1
9,4,-5,-5,6,0,-5,7,16,11,7,0
9,3,-6,-5,6,-2,-5,7,16,11,6,-1
9,1,-8,-4,7,-3,-5,8,15,11,5,-2
9,0,-9,-4,8,-4,-5,8,14,10,4,-3
9,0,-10,-3,9,-5,-4,8,14,10,4,-3
8,-1,-10,-3,9,-6,-4,8,14,10,3,-4
8,-2,-10,-3,9,-6,-4,8,14,10,3,-4
9,-1,-11,-3,10,-6,-4,8,14,10,4,-4
9,0,-10,-4,9,-5,-4,8,14,10,4,-3
8,0,-9,-4,8,-4,-3,7,14,9,5,-3
7,0,-7,-3,6,-4,-3,7,14,9,5,-2
6,1,-6,-3,5,-3,-2,7,14,9,5,-2
5,1,-4,-3,4,-2,-1,7,15,9,5,-1
4,1,-3,-2,3,-1,-1,7,15,10,5,-1
3,1,-2,-2,3,-1,0,7,15,10,5,-1
2,1,-2,-1,2,-1,0,7,15,10,5,-1
2,1,-2,-1,2,-1,1,8,15,11,4,-2
1,1,-2,0,1,-1,2,8,15,11,4,-2
1,0,-2,0,1,-1,2,8,15,11,3,-3
1,0,-2,0,1,-1,3,8,15,11,3,-3
1,0,-2,0,1,-1,3,8,15,11,3,-4
0,0,-2,0,1,-1,3,8,15,10,3,-4
0,0,-2,0,1,-1,3,8,15,10,3,-4
0,0,-2,0,1,-1,3,8,15,10,3,-4
0,0,-1,0,0,-1,3,8,15,10,3,-4
0,0,-1,0,0,-1,3,8,15,10,4,-4
0,0,-1,0,0,-1,3,8,15,10,4,-4
0,0,-1,1,0,-1,3,9,15,11,4,-4
0,0,-1,1,0,-1,3,9,15,11,4,-4
0,0,-2,1,0,-1,3,9,16,12,4,-4
0,0,-2,1,1,-2,3,9,16,13,4,-4
0,-1,-2,1,1,-2,4,9,17,13,4,-4
0,-1,-2,1,1,-2,4,9,17,13,4,-4
0,-2,-3,1,1,-2,4,9,17,13,3,-5
0,-2,-3,1,1,-3,4,9,17,13,3,-5
0,-3,-4,1,2,-3,4,9,18,14,3,-6
1,-3,-5,1,2,-4,4,11,20,14,3,-7
1,-4,-6,1,3,-5,5,13,25,15,3,-8
1,-4,-7,2,3,-6,5,15,31,17,3,-9
2,-4,-7,1,4,-6,4,17,37,22,5,-8
5,-3,-8,0,6,-6,3,18,42,30,9,-5
8,-1,-10,-3,8,-6,1,20,48,43,16,-2
13,1,-11,-6,11,-5,-1,22,57,58,24,3
17,4,-13,-10,15,-5,-5,23,63,76,33,8
22,7,-15,-14,18,-4,-9,23,62,96,43,12
27,12,-16,-19,21,-2,-14,20,53,117,55,18
33,18,-16,-25,24,0,-20,15,35,141,70,26
40,23,-17,-31,28,2,-27,8,7,162,86,36
46,26,-20,-36,33,3,-34,-1,-30,174,100,44
51,26,-25,-39,38,1,-40,-11,-74,177,108,49
55,22,-33,-38,44,-5,-44,-20,-117,168,108,49
57,13,-44,-35,50,-14,-47,-28,-156,146,100,45
56,3,-53,-29,54,-25,-49,-37,-192,112,86,38
53,-7,-60,-23,56,-33,-50,-47,-225,71,68,31
49,-15,-65,-16,56,-40,-50,-58,-254,27,50,25
44,-23,-68,-10,55,-46,-49,-67,-278,-18,31,18
37,-31,-69,-2,53,-50,-47,-74,-294,-60,11,10
29,-39,-69,5,49,-54,-42,-79,-299,-94,-8,0
21,-48,-70,14,46,-59,-36,-81,-293,-120,-28,-13
15,-59,-74,22,44,-66,-28,-79,-278,-138,-50,-30
9,-70,-80,30,44,-74,-21,-74,-257,-148,-70,-49
4,-78,-83,37,43,-81,-14,-66,-231,-151,-86,-64
1,-83,-84,42,42,-84,-8,-58,-203,-148,-94,-73
-2,-85,-83,44,40,-85,-3,-49,-176,-141,-97,-77
-4,-85,-80,45,37,-83,0,-40,-150,-130,-95,-78
-7,-82,-74,45,33,-78,4,-33,-125,-116,-89,-75
-10,-77,-67,44,28,-71,7,-26,-102,-102,-81,-71
-13,-70,-57,42,21,-63,9,-21,-83,-88,-72,-65
-15,-62,-48,39,15,-55,11,-18,-67,-75,-64,-59
-16,-55,-40,36,11,-48,12,-15,-53,-64,-57,-54
-16,-50,-34,33,8,-42,12,-12,-42,-56,-51,-49
-16,-45,-30,31,7,-38,12,-10,-32,-48,-45,-45
-15,-40,-25,28,5,-34,12,-7,-23,-42,-40,-41
-15,-35,-21,26,3,-28,12,-4,-15,-35,-35,-36
-14,-30,-16,23,1,-23,12,-2,-8,-29,-30,-31
-13,-25,-12,20,0,-18,12,0,-3,-23,-24,-27
-12,-20,-8,17,-2,-14,11,0,1,-17,-19,-22
-11,-15,-4,14,-4,-9,10,1,5,-12,-15,-18
-10,-10,0,11,-5,-6,10,2,9,-8,-11,-14
-10,-7,2,9,-6,-3,9,4,12,-4,-8,-11
-9,-5,4,7,-7,-1,9,5,16,-2,-6,-9
-9,-4,5,7,-7,0,9,7,18,0,-4,-8
-9,-3,5,6,-8,1,9,8,19,0,-3,-7
-9,-2,6,6,-8,2,9,9,20,1,-2,-6
-8,-1,6,5,-9,3,9,9,21,2,-2,-6
-8,0,7,5,-9,3,9,9,21,3,-1,-5
-8,0,7,4,-9,4,9,9,21,4,-1,-5
-8,1,8,4,-9,4,9,9,22,4,-1,-4
-8,1,8,4,-9,4,9,9,22,4,-1,-4
-7,1,8,4,-9,4,9,9,23,4,-1,-4
-7,1,8,4,-8,4,9,9,23,4,-1,-4
-7,1,8,4,-8,4,9,9,24,4,-1,-4
-7,1,8,4,-8,4,9,9,24,5,0,-4
-8,1,9,4,-8,5,9,9,24,5,0,-4
-8,2,9,4,-9,6,9,9,25,5,0,-3
-8,2,10,4,-9,6,9,9,25,5,1,-3
-8,2,10,4,-9,6,9,10,26,5,1,-3
-8,2,10,4,-9,6,9,10,26,5,1,-3
-8,2,10,4,-9,6,9,10,26,5,1,-2
-8,2,10,4,-9,6,9,10,26,6,1,-2
-8,2,10,4,-10,6,9,11,26,6,1,-2
-8,2,10,4,-10,6,9,11,27,7,1,-2
-8,2,11,4,-10,6,9,11,27,7,1,-2
-8,2,11,3,-10,6,9,11,27,7,1,-2
-7,2,11,3,-10,7,9,11,27,7,1,-2
-7,2,11,3,-10,7,9,11,27,7,1,-2
-7,2,11,3,-9,7,9,11,27,7,1,-1
-7,3,11,3,-9,7,9,11,28,7,1,-1
-7,3,11,3,-9,7,9,11,28,7,1,-1
-7,3,11,3,-9,7,9,11,28,7,1,-1
-7,3,11,3,-9,7,9,11,28,7,1,-1
-7,3,11,3,-10,7,8,11,28,7,1,0
-8,4,12,3,-10,8,8,11,28,7,2,0
-8,4,12,3,-11,8,8,11,28,7,2,0
-8,4,12,3,-11,8,8,11,28,7,2,0
-8,4,12,3,-11,8,8,11,28,7,2,0
-8,4,13,3,-11,8,8,11,28,7,2,0
-8,4,13,3,-11,8,8,11,28,7,2,0
-8,4,13,2,-11,8,8,11,28,7,2,0
-8,4,13,2,-11,9,8,10,28,6,2,0
-8,4,13,2,-11,9,8,10,27,6,2,0
-8,4,13,2,-11,9,8,9,27,6,2,0
-8,4,13,2,-11,9,8,9,26,5,2,0
-8,5,13,2,-11,9,8,9,26,5,1,0
-8,5,13,1,-11,9,8,9,25,5,1,0
-8,5,13,1,-11,10,8,9,25,4,1,0
-8,5,13,1,-11,10,8,8,24,4,1,0
-8,5,13,1,-11,10,8,8,23,3,1,0
-8,5,13,1,-11,10,8,8,22,3,1,0
-8,5,14,1,-11,10,8,8,22,3,1,1
-8,5,14,2,-12,10,8,8,21,2,1,1
-8,5,15,2,-12,10,8,8,20,2,0,1
-8,5,15,2,-12,10,7,7,19,1,0,1
-8,5,14,2,-12,10,7,7,18,1,0,1
-8,5,14,2,-11,10,7,6,17,0,-1,1
-8,5,13,2,-11,10,7,6,16,0,-1,1
-8,5,13,2,-11,10,7,5,14,0,-1,1
-8,5,13,2,-11,10,7,5,13,-1,-1,1
-8,5,13,2,-11,10,7,5,12,-1,-1,1
-8,5,13,2,-11,10,7,4,11,-2,-1,1
-8,5,13,2,-11,10,7,4,10,-2,-1,1
-8,5,13,2,-11,10,6,3,9,-3,-1,1
-8,5,13,2,-11,10,6,3,8,-3,-1,1
-8,5,13,2,-11,9,6,2,7,-4,-1,1
-8,5,13,2,-11,9,6,1,6,-4,-1,1
-8,5,13,2,-11,9,6,1,5,-5,-1,1
-8,4,12,2,-10,8,6,0,4,-5,-1,1
-8,4,12,2,-10,8,5,0,3,-6,-2,1
-8,4,12,2,-10,8,5,0,2,-6,-2,1
-8,4,12,2,-10,8,5,0,1,-7,-2,1
-8,4,12,2,-10,8,5,-1,0,-7,-2,1
-8,4,12,2,-10,8,4,-1,-1,-7,-2,1
-7,4,11,2,-10,8,4,-2,-2,-8,-2,1
-7,4,11,2,-9,8,4,-2,-3,-8,-2,1
-7,4,11,2,-9,8,4,-3,-4,-8,-2,1
-7,4,11,2,-9,8,4,-3,-4,-9,-2,1
-7,4,11,2,-9,8,4,-3,-5,-9,-2,1
-7,4,11,2,-9,8,4,-3,-5,-9,-2,1
-7,4,11,2,-9,7,4,-3,-6,-9,-2,1
-7,4,10,2,-9,7,4,-3,-6,-9,-2,1
-7,4,10,2,-8,6,4,-4,-7,-10,-3,1
-6,3,9,2,-7,6,4,-4,-8,-10,-3,1
-6,3,9,2,-7,6,4,-4,-9,-11,-3,1
-6,3,9,2,-7,6,3,-4,-9,-11,-3,1
-5,3,8,1,-7,5,3,-4,-9,-11,-3,1
-5,2,8,1,-7,5,3,-4,-9,-11,-3,1
-5,2,7,1,-7,5,3,-4,-10,-11,-3,1
-5,2,7,1,-7,5,3,-4,-10,-11,-3,1
-5,2,7,1,-7,5,3,-5,-11,-11,-3,1
-5,2,7,1,-6,4,3,-5,-11,-11,-3,1
-5,1,7,1,-6,4,3,-5,-11,-12,-3,1
-5,1,7,1,-6,4,3,-6,-12,-12,-3,1
-5,1,6,1,-6,4,3,-6,-12,-12,-3,1
-5,1,6,1,-5,3,2,-6,-12,-12,-3,1
-5,1,6,1,-5,3,2,-6,-12,-12,-3,1
-4,0,5,1,-4,3,2,-6,-13,-13,-3,1
-4,0,4,1,-4,3,2,-6,-13,-13,-3,1
-4,0,4,1,-4,2,2,-6,-14,-13,-3,1
-4,0,4,1,-4,2,2,-6,-14,-13,-3,1
-4,0,4,1,-4,2,2,-6,-15,-13,-3,1
-4,0,4,1,-4,2,2,-6,-15,-13,-3,1
-4,0,4,1,-4,2,2,-6,-15,-13,-3,1
-4,0,4,1,-4,1,2,-6,-15,-13,-3,1
-4,0,3,1,-4,1,2,-6,-15,-13,-3,1
-4,0,3,1,-4,1,1,-7,-16,-14,-3,1
-4,0,3,2,-4,1,1,-7,-16,-14,-3,1
-4,0,3,2,-4,1,1,-7,-17,-14,-3,1
-4,0,3,2,-3,1,1,-8,-17,-14,-3,1
-3,0,2,2,-3,0,1,-8,-17,-14,-3,2
-3,-1,2,2,-3,0,1,-8,-17,-14,-3,2
-3,-1,2,2,-3,0,1,-8,-17,-13,-3,2
-3,-1,2,2,-3,0,1,-8,-17,-13,-2,2
-3,-1,2,2,-3,0,1,-8,-17,-13,-2,2
-3,-1,1,2,-2,0,1,-8,-18,-13,-2,2
-2,-1,1,1,-2,0,1,-8,-18,-13,-2,2
-2,-1,1,1,-2,0,1,-8,-18,-13,-2,3
-2,-1,1,1,-2,0,1,-8,-18,-12,-2,3
-2,-1,0,1,-2,0,0,-8,-18,-12,-2,3
-2,-1,0,1,-1,-1,0,-8,-18,-12,-2,3
-2,-1,0,1,-1,-1,0,-8,-18,-12,-1,3
-1,-1,0,1,-1,-1,0,-8,-18,-12,-1,3
-1,-1,0,1,-1,-1,0,-8,-18,-12,-1,3
-1,-1,0,1,-1,-1,0,-8,-18,-12,-1,3
-1,-1,0,1,-1,-1,0,-7,-18,-11,-1,3
-1,-1,0,1,-1,-1,0,-7,-18,-11,-1,3
-1,-1,0,1,-1,-1,0,-7,-17,-11,-1,3
-1,-2,0,1,-1,-1,0,-7,-17,-11,-1,3
-1,-2,0,1,-1,-1,1,-7,-16,-11,-1,3
-1,-2,-1,1,0,-1,1,-7,-16,-10,-1,3
0,-2,-1,1,0,-1,1,-7,-15,-10,-1,3
0,-2,-1,1,0,-1,1,-6,-15,-9,-1,3
0,-2,-1,1,0,-2,1,-6,-14,-9,-1,3
0,-2,-1,1,0,-2,1,-6,-13,-9,-1,3
0,-2,-1,1,0,-2,1,-6,-12,-9,-1,3
0,-2,-1,1,0,-2,1,-5,-11,-9,-1,3
0,-2,-1,1,0,-2,1,-5,-10,-8,-1,3
-1,-2,0,1,0,-2,1,-4,-9,-8,-1,2
-1,-2,0,1,0,-2,1,-4,-8,-7,-1,2
-1,-2,0,1,-1,-2,1,-4,-7,-7,-1,2
-1,-2,0,1,-1,-2,1,-4,-6,-7,-1,2
-1,-2,0,1,-1,-2,1,-3,-5,-6,-1,2
-1,-2,0,1,-1,-2,1,-3,-4,-6,-1,2
-1,-2,0,1,-1,-2,1,-3,-3,-6,-1,2
-1,-2,0,1,-1,-2,1,-3,-2,-6,-1,1
-1,-2,0,0,0,-2,1,-2,-1,-5,-1,1
-1,-2,0,0,0,-2,2,-2,0,-5,-1,1
-1,-2,0,0,-1,-2,2,-1,2,-4,-1,1
-1,-2,0,0,-1,-2,2,0,3,-4,-1,1
-1,-1,0,0,-1,-2,2,0,5,-3,-1,1
-2,-1,0,0,-1,-1,2,0,6,-2,-1,1
-2,-1,1,0,-2,-1,2,1,8,-2,-1,1
-3,-1,1,0,-2,-1,3,1,9,-1,-1,1
-3,-1,1,0,-2,-1,3,1,11,-1,-1,1
-3,-1,1,0,-3,-1,3,2,12,0,-1,1
-3,-1,2,0,-3,0,3,2,14,0,-1,1
-3,-1,2,0,-3,0,3,3,15,0,-1,1
-2,-1,2,0,-2,0,3,3,16,1,-1,1
-2,0,2,0,-2,0,3,3,17,1,-1,1
-2,0,2,0,-2,0,3,3,18,2,-1,1
-2,0,2,0,-3,0,3,4,19,2,-1,1
-2,0,2,0,-3,0,3,4,21,3,-1,1
-2,0,2,0,-3,0,3,5,22,3,-1,1
-2,1,3,0,-3,1,4,5,23,4,-1,1
-2,1,3,0,-3,1,4,5,24,4,-1,1
-2,1,3,0,-3,2,4,6,25,5,-1,1
-2,1,4,0,-3,2,4,6,26,5,0,1
-2,1,4,0,-3,2,4,6,27,6,0,1
-2,2,5,0,-4,3,4,6,28,6,0,1
-2,2,5,0,-4,3,4,6,29,7,0,1
-3,2,6,0,-5,4,4,7,30,7,0,1
-3,2,6,0,-5,4,4,7,31,8,0,1
-3,3,6,0,-5,4,4,7,31,8,0,1
-3,3,6,0,-5,4,4,7,32,9,0,2
-3,3,6,0,-5,4,4,8,32,9,0,2
-3,3,7,0,-5,5,4,8,33,10,0,2
-3,4,7,0,-5,5,4,8,33,10,1,2
-3,4,7,0,-5,5,4,8,33,10,1,2
-3,4,7,-1,-5,5,4,8,34,10,1,2
-2,4,7,-1,-5,5,4,8,34,10,1,2
-2,4,7,-1,-5,5,4,8,34,10,1,2
-2,4,7,-1,-5,5,4,8,34,10,1,2
-1,5,7,-2,-5,5,4,8,34,10,1,2
-1,5,7,-2,-5,5,4,8,34,10,1,2
-1,5,7,-2,-5,6,4,8,34,10,1,3
-2,5,8,-2,-5,6,4,8,34,10,1,3
-2,5,8,-2,-6,7,4,8,34,11,2,3
-2,6,9,-2,-6,7,4,8,34,11,2,3
-3,6,9,-2,-6,7,4,8,34,11,2,3
-3,6,9,-2,-6,7,4,8,33,11,2,3
-2,6,9,-2,-6,7,4,8,33,11,3,3
-2,6,8,-2,-5,7,4,8,33,11,3,3
-1,6,8,-2,-5,7,4,8,32,11,3,3
-1,6,8,-2,-5,6,4,8,31,11,3,3
-1,6,7,-3,-4,6,3,8,31,11,2,3
0,6,7,-3,-3,5,3,7,30,11,2,3
0,6,7,-3,-3,5,3,7,30,11,2,3
0,6,7,-3,-4,5,3,7,30,11,2,3
0,6,7,-3,-4,5,3,7,30,11,3,3
0,6,7,-3,-4,5,3,7,29,11,3,3
0,6,7,-3,-4,5,3,7,29,11,3,4
-1,6,7,-2,-4,5,3,7,28,11,3,4
-1,6,7,-2,-4,5,3,7,28,11,3,4
-1,6,7,-2,-4,5,3,7,27,11,3,4
-1,5,7,-2,-4,5,3,7,27,11,3,4
-1,5,7,-2,-4,5,3,7,26,11,3,4
-1,5,7,-2,-4,5,3,7,26,11,3,4
-1,5,6,-2,-4,5,3,7,26,11,3,4
-1,5,6,-2,-4,5,3,7,25,11,3,5
0,5,6,-2,-3,5,3,7,25,11,3,5
0,5,5,-2,-3,5,2,7,24,11,3,5
0,5,5,-2,-2,4,2,7,23,11,3,5
0,5,4,-2,-2,4,2,7,23,11,3,4
0,5,4,-2,-2,4,2,7,22,11,3,4
0,5,4,-2,-3,4,2,7,22,11,3,4
0,5,4,-2,-3,4,2,6,22,10,3,4
0,4,4,-2,-3,4,2,6,21,10,3,4
0,4,4,-2,-3,4,2,6,21,10,4,4
0,4,4,-2,-3,4,2,6,20,10,4,4
0,4,4,-2,-3,4,2,6,20,10,4,4
0,4,4,-2,-3,4,2,6,20,10,4,4
0,4,5,-2,-3,4,2,6,20,10,4,4
0,4,5,-2,-3,4,2,6,19,10,4,4
0,4,5,-2,-3,4,2,6,19,10,4,4
0,4,4,-2,-2,4,2,6,19,10,4,4
0,4,4,-2,-2,4,2,6,19,10,4,4
0,4,4,-2,-2,4,2,6,19,10,4,4
0,4,4,-2,-2,4,2,6,18,10,4,4
0,4,4,-2,-2,4,2,6,18,10,4,4
0,4,4,-2,-2,4,1,6,17,10,4,4
0,4,4,-2,-2,4,1,6,17,10,4,4
0,4,4,-2,-2,4,1,5,17,10,4,4
0,4,4,-2,-2,4,1,5,17,10,4,4
0,4,4,-2,-2,4,1,5,17,10,4,4
0,4,4,-2,-2,4,1,5,17,10,5,5
0,4,4,-2,-2,5,1,5,17,10,5,5
0,5,5,-2,-2,5,1,5,17,10,5,5
0,6,6,-2,-3,6,1,5,17,11,6,6
0,7,7,-2,-4,8,1,6,18,12,7,7
0,8,9,-3,-4,9,1,6,19,13,8,8
1,10,10,-4,-5,10,1,6,20,14,8,9
1,11,10,-5,-5,11,1,6,20,14,9,9
1,12,11,-6,-5,11,0,6,21,14,9,9
1,12,11,-6,-5,11,0,6,20,14,9,9
2,12,10,-6,-4,11,0,5,20,14,9,9
2,11,9,-6,-3,10,-1,5,19,14,9,9
3,11,8,-7,-2,10,-2,4,17,13,8,9
4,11,7,-7,-1,9,-3,3,16,13,8,8
5,11,7,-8,-1,9,-4,3,15,13,8,8
5,11,7,-8,-1,9,-4,2,14,13,8,8
5,10,6,-7,-1,8,-4,2,14,12,8,8
5,9,5,-7,0,7,-4,2,14,12,7,8
5,9,4,-7,0,6,-4,2,14,12,7,8
6,8,2,-7,1,5,-4,3,14,12,7,8
7,8,0,-7,2,4,-4,4,14,12,7,7
8,7,-1,-7,4,2,-4,4,14,11,7,7
8,5,-3,-6,6,0,-4,5,14,11,6,6
9,3,-5,-6,6,-1,-4,5,13,10,5,5
9,2,-6,-6,7,-2,-4,5,13,10,5,4
9,1,-6,-5,7,-2,-4,5,12,9,4,4
9,1,-7,-5,7,-3,-4,5,12,9,4,4
9,1,-7,-5,7,-3,-4,5,11,9,4,4
9,1,-7,-5,7,-3,-3,5,11,9,4,4
9,2,-6,-5,7,-2,-3,5,11,9,5,4
8,2,-5,-5,6,-2,-2,5,11,9,5,4
6,1,-5,-4,5,-1,-2,4,11,9,5,4
5,1,-4,-3,4,-1,-1,4,11,9,5,4
4,2,-2,-3,2,0,0,4,12,9,5,5
3,2,-1,-2,1,0,0,4,12,9,5,5
2,1,0,-2,0,1,1,4,12,9,5,5
1,1,0,-1,-1,1,1,4,12,9,5,5
0,1,1,0,-1,1,2,5,12,9,5,5
0,1,2,0,-1,1,2,5,13,9,5,5
0,1,1,0,-1,1,3,5,13,9,4,5
0,0,1,0,-1,1,3,5,13,9,4,5
0,0,1,0,-1,1,3,5,13,9,4,4
0,0,2,0,-2,1,3,5,13,9,4,4
0,0,2,0,-2,1,3,5,13,9,4,4
0,0,2,0,-2,1,3,5,13,8,4,4
0,0,1,0,-2,1,3,5,12,8,4,4
0,0,1,0,-2,1,3,5,12,8,4,4
0,0,1,0,-2,1,3,5,12,8,4,4
0,0,1,0,-2,1,3,5,12,9,4,4
0,0,1,0,-2,1,3,5,12,9,4,4
-1,0,1,0,-2,1,3,5,13,9,4,4
-1,0,2,0,-3,2,3,6,13,10,4,5
-2,0,3,0,-3,2,3,6,13,10,4,5
-2,0,3,0,-3,2,3,6,13,10,4,5
-1,0,2,0,-3,1,3,6,14,10,4,5
-1,0,2,0,-2,1,3,6,14,10,4,4
0,0,1,0,-2,0,3,7,15,10,4,4
0,0,0,0,-1,0,3,8,18,11,3,3
0,-1,-1,0,0,-1,3,10,22,12,3,2
1,-2,-3,0,1,-2,3,12,28,14,3,2
3,-1,-4,-1,2,-2,2,14,32,18,4,2
5,0,-5,-2,4,-2,0,15,37,26,8,4
8,2,-5,-4,6,-2,-1,17,43,38,14,7
12,4,-6,-7,8,-1,-4,19,49,53,23,12
16,7,-8,-11,11,-1,-7,20,54,70,32,16
21,11,-9,-15,14,0,-10,20,53,88,42,21
26,15,-10,-20,18,1,-15,17,43,109,54,27
32,20,-12,-26,22,3,-22,11,25,131,69,35
39,25,-14,-33,26,5,-29,3,-4,149,85,44
46,28,-17,-37,31,5,-36,-7,-42,160,97,52
51,27,-23,-39,36,2,-42,-17,-84,161,104,57
54,22,-31,-38,42,-4,-46,-26,-126,150,104,58
56,14,-41,-35,48,-14,-49,-35,-166,127,97,54
55,4,-51,-30,52,-24,-51,-45,-203,94,83,48
53,-5,-58,-24,55,-31,-52,-56,-236,55,68,42
50,-13,-62,-19,55,-37,-53,-66,-264,13,51,36
45,-20,-65,-13,55,-43,-53,-75,-286,-27,32,29
40,-28,-67,-6,53,-47,-50,-82,-299,-65,13,20
33,-35,-67,1,50,-51,-46,-87,-301,-96,-7,10
25,-43,-68,9,46,-56,-39,-87,-293,-119,-27,-2
18,-53,-70,18,44,-62,-31,-85,-277,-135,-47,-18
11,-64,-74,27,42,-69,-23,-79,-255,-145,-66,-35
6,-72,-78,33,41,-75,-16,-71,-228,-148,-81,-50
2,-78,-80,37,40,-79,-11,-62,-201,-146,-90,-60
0,-80,-79,40,39,-80,-6,-53,-174,-139,-93,-65
-3,-80,-76,41,36,-78,-2,-44,-148,-129,-92,-67
-5,-78,-71,42,32,-74,1,-36,-124,-115,-87,-65
-8,-73,-64,41,27,-68,4,-30,-102,-101,-80,-61
-11,-67,-55,40,21,-61,7,-25,-82,-87,-72,-56
-13,-60,-46,38,15,-53,10,-21,-66,-74,-63,-50
-15,-54,-38,35,10,-46,11,-18,-53,-64,-55,-45
-16,-49,-32,33,7,-40,12,-14,-41,-55,-49,-40
-16,-44,-27,30,5,-36,12,-11,-31,-48,-44,-36
-15,-40,-23,27,3,-32,12,-8,-22,-41,-39,-33
-15,-35,-20,25,2,-27,12,-6,-15,-35,-34,-29
-14,-30,-16,22,1,-23,11,-4,-9,-28,-29,-24
-12,-25,-12,19,0,-18,11,-2,-4,-22,-24,-20
-11,-19,-8,16,-2,-14,10,-1,0,-16,-19,-15
-10,-14,-4,13,-3,-9,10,0,4,-12,-14,-11
-9,-10,-1,10,-5,-6,10,1,8,-8,-10,-7
-8,-7,1,8,-6,-3,9,3,11,-5,-7,-4
-8,-5,3,6,-6,0,9,4,15,-3,-5,-2
-8,-3,4,5,-7,1,9,6,17,-2,-4,-1
-8,-2,5,5,-7,2,9,6,19,0,-3,0
-8,-2,6,5,-8,2,9,7,20,1,-2,0
-8,-1,7,5,-8,3,9,8,20,2,-1,1
-8,0,8,5,-9,4,9,8,21,3,0,1
-8,0,9,4,-9,4,9,8,21,4,0,2
-8,1,9,4,-9,5,9,8,22,4,1,2
-8,1,9,4,-9,5,9,8,22,4,1,2
-8,0,9,4,-9,5,9,8,23,4,0,2
-7,0,9,4,-8,4,9,8,23,4,0,2
-7,0,8,4,-8,4,9,8,24,5,0,2
-6,0,8,4,-8,4,9,9,24,5,0,2
-6,1,9,4,-8,4,9,9,25,5,1,2
-7,1,9,4,-9,5,9,9,25,5,1,3
-7,1,9,3,-9,5,9,9,25,5,2,3
-6,1,9,3,-9,5,9,9,25,5,2,3
-6,1,9,3,-9,5,9,9,26,6,2,3
-7,1,9,3,-9,5,9,9,26,6,2,3
-7,1,9,3,-9,6,9,9,27,7,2,3
-7,1,10,3,-9,6,9,9,27,7,2,3
-7,1,10,3,-9,6,9,9,27,7,2,3
-7,1,10,3,-9,6,9,9,27,7,2,3
-7,2,10,3,-9,6,9,9,27,7,2,3
-7,2,10,3,-9,6,9,9,27,8,2,3
-7,2,10,2,-9,6,9,9,28,8,2,3
-6,2,10,2,-9,6,9,9,28,8,2,3
-6,2,10,2,-9,6,9,9,28,8,2,3
-6,2,10,2,-9,6,9,9,29,8,2,3
-6,3,10,2,-9,7,9,9,29,8,2,4
-6,3,10,2,-9,7,9,9,29,8,2,4
-6,3,10,2,-9,7,9,9,29,8,2,4
-7,3,10,2,-9,7,9,9,29,8,2,4
-7,3,11,2,-9,7,9,9,29,8,2,4
-7,3,11,2,-10,8,8,9,29,8,2,4
-7,3,12,2,-10,8,8,9,29,8,2,4
-7,4,12,1,-10,8,8,9,29,8,2,4
-7,4,11,1,-10,8,8,9,29,8,2,4
-6,4,11,1,-9,8,8,9,29,8,2,4
-7,4,12,1,-10,9,8,9,29,8,2,4
-7,4,12,1,-10,9,8,9,29,8,2,4
-7,4,13,1,-10,9,8,9,29,8,2,4
-7,4,13,1,-11,9,8,9,29,8,2,4
-8,4,13,1,-11,9,8,8,29,7,2,4
-8,4,13,1,-11,9,8,8,28,7,2,4
-8,4,13,1,-11,9,8,8,28,7,2,4
-7,4,13,1,-10,9,8,8,27,6,2,4
-7,4,13,1,-10,9,8,8,26,6,1,4
-7,4,13,1,-10,9,8,7,25,5,1,4
-7,4,13,1,-10,9,8,7,24,5,1,4
-8,4,13,1,-11,10,7,6,24,5,1,4
-8,5,13,1,-11,10,7,6,23,4,1,4
-7,5,13,1,-10,10,7,6,22,4,1,4
-8,5,14,1,-11,10,7,6,21,4,0,4
-8,5,14,1,-11,10,7,6,20,3,0,4
-8,5,14,1,-11,10,7,5,19,3,0,4
-8,5,14,1,-11,9,7,5,17,2,0,4
-8,5,13,1,-11,9,7,4,16,1,0,4
-8,5,13,1,-11,9,7,4,15,1,0,4
-7,5,13,1,-10,9,6,3,14,0,0,3
-7,5,12,1,-10,9,6,3,13,0,0,3
-7,5,12,1,-9,9,6,2,11,0,0,3
-7,5,12,1,-9,8,6,1,10,-1,-1,3
-7,5,11,1,-9,8,6,1,9,-1,-1,3
-7,5,11,1,-9,8,5,0,7,-2,-1,3
-7,5,11,1,-9,8,5,0,6,-2,-1,3
-7,4,11,1,-9,8,5,0,5,-3,-1,3
-7,4,11,1,-9,8,5,0,5,-3,-1,3
-7,4,11,1,-9,8,5,-1,4,-4,-1,3
-7,4,11,1,-9,8,5,-1,4,-4,-1,3
-7,4,11,1,-9,8,5,-1,3,-5,-1,3
-7,4,11,1,-9,7,5,-2,2,-5,-1,3
-7,4,11,1,-9,7,4,-2,1,-6,-1,3
-6,4,10,1,-8,7,4,-3,0,-6,-1,3
-6,4,10,1,-8,7,4,-3,-1,-7,-1,3
-6,4,9,1,-8,6,4,-3,-2,-7,-1,3
-6,3,9,1,-7,6,4,-3,-2,-7,-1,3
-5,3,9,1,-7,6,4,-3,-3,-7,-1,3
-5,3,8,1,-7,5,4,-4,-3,-7,-2,3
-5,3,8,1,-7,5,4,-4,-4,-8,-2,3
-5,3,8,1,-7,5,3,-4,-5,-8,-2,4
-5,3,8,0,-6,5,3,-5,-6,-8,-2,4
-5,2,7,0,-6,5,3,-5,-6,-9,-2,4
-5,2,7,0,-6,5,3,-5,-7,-9,-2,4
-5,2,7,0,-6,5,3,-5,-7,-10,-2,4
-4,2,6,0,-6,5,3,-5,-7,-10,-2,4
-4,2,6,0,-6,4,3,-5,-7,-10,-2,4
-4,2,6,0,-6,4,3,-5,-8,-10,-2,4
-4,1,6,0,-6,4,3,-5,-8,-10,-2,3
-4,1,6,0,-6,4,3,-5,-8,-10,-2,3
-4,1,6,0,-6,4,3,-5,-9,-10,-2,3
-4,1,6,0,-6,3,3,-5,-9,-10,-2,3
-4,1,6,0,-6,3,2,-5,-9,-11,-3,3
-4,1,5,0,-5,3,2,-5,-9,-11,-3,3
-4,1,5,0,-5,3,2,-6,-10,-11,-3,3
-4,1,4,0,-4,3,2,-6,-10,-11,-3,3
-4,0,4,0,-4,3,2,-6,-11,-11,-3,3
-4,0,4,0,-4,3,2,-6,-11,-11,-3,3
-4,0,4,0,-4,2,2,-6,-12,-12,-3,3
-4,0,4,0,-4,2,2,-7,-12,-12,-3,3
-3,0,4,0,-3,2,2,-7,-12,-12,-3,3
-3,0,3,0,-3,1,1,-7,-12,-12,-3,3
-3,0,3,0,-3,1,1,-7,-13,-12,-3,3
-3,0,3,0,-3,1,1,-7,-13,-12,-3,3
-3,0,3,0,-3,1,1,-8,-14,-12,-3,3
-2,0,2,0,-3,1,1,-8,-14,-12,-3,3
-2,0,2,0,-2,1,1,-8,-14,-12,-3,3
-2,0,2,0,-2,1,1,-8,-15,-12,-3,3
-2,0,1,0,-1,1,1,-8,-15,-12,-3,3
-1,0,1,0,-1,0,1,-8,-15,-12,-3,3
-1,0,1,0,-1,0,1,-8,-15,-12,-3,4
-1,0,1,0,-1,0,1,-8,-15,-12,-2,4
-1,0,0,0,-1,0,1,-8,-16,-12,-2,4
-1,0,0,0,-1,0,0,-8,-16,-12,-2,4
0,0,0,0,0,0,0,-8,-16,-12,-2,4
0,0,0,0,0,0,0,-8,-16,-12,-2,4
0,0,0,0,0,0,0,-8,-16,-12,-2,4
0,-1,-1,0,0,-1,0,-8,-16,-11,-2,4
0,-1,-1,0,0,-1,0,-8,-16,-11,-2,4
0,-1,-1,0,1,-1,0,-8,-16,-11,-2,4
0,-1,-2,0,1,-2,0,-8,-16,-11,-2,4
0,-1,-2,0,1,-2,0,-8,-16,-11,-2,4
0,-1,-2,0,1,-2,0,-7,-16,-11,-2,4
0,-2,-2,0,1,-2,0,-7,-16,-11,-2,4
0,-2,-2,0,1,-2,0,-7,-16,-10,-2,4
0,-2,-2,0,1,-2,0,-7,-15,-10,-2,4
0,-2,-2,0,1,-2,0,-7,-15,-10,-2,5
0,-2,-2,0,1,-2,0,-6,-15,-9,-2,5
0,-2,-2,0,1,-2,0,-6,-15,-9,-2,5
0,-2,-2,0,1,-2,0,-6,-14,-9,-2,5
0,-2,-3,0,1,-2,0,-6,-14,-9,-2,5
1,-2,-3,0,1,-2,0,-6,-13,-9,-2,5
1,-2,-3,0,1,-2,0,-6,-13,-9,-2,5
1,-2,-3,0,1,-2,0,-6,-12,-9,-2,5
1,-2,-3,0,1,-2,0,-5,-11,-9,-2,5
1,-2,-3,0,1,-2,0,-5,-10,-8,-2,5
1,-2,-3,0,1,-3,0,-5,-9,-8,-2,5
0,-2,-3,0,1,-3,0,-5,-8,-7,-2,5
0,-2,-2,0,1,-2,1,-5,-7,-7,-2,5
0,-2,-2,0,0,-2,1,-4,-6,-6,-2,5
0,-2,-2,0,0,-2,1,-3,-5,-6,-2,5
1,-2,-2,0,1,-2,1,-3,-5,-6,-2,4
1,-2,-3,0,1,-2,1,-3,-4,-6,-2,4
1,-2,-2,0,1,-2,1,-2,-3,-5,-2,4
0,-2,-2,0,1,-2,2,-2,-2,-5,-2,4
0,-2,-2,0,1,-2,2,-2,0,-5,-2,4
0,-2,-2,0,1,-2,2,-2,1,-4,-2,4
0,-2,-1,0,1,-2,2,-1,2,-4,-2,4
0,-2,-1,0,1,-1,2,-1,3,-4,-2,4
0,-2,-1,0,0,-1,2,-1,4,-3,-2,4
0,-2,-1,0,0,-1,2,0,5,-3,-2,4
0,-1,-1,0,0,-1,2,0,7,-3,-2,4
0,-1,-1,0,0,-1,2,0,8,-2,-2,4
0,-1,0,0,0,-1,2,0,10,-2,-2,4
0,-1,0,0,0,-1,2,1,11,-1,-2,4
0,-1,0,0,0,0,3,1,12,-1,-2,4
0,0,1,0,-1,0,3,2,13,0,-2,4
0,0,1,0,-1,0,3,2,14,0,-2,4
-1,0,2,0,-1,1,3,3,15,0,-2,4
-1,0,2,0,-2,1,3,3,17,0,-2,4
-1,0,2,0,-2,1,3,3,18,1,-1,4
-1,0,3,0,-2,2,3,3,19,1,-1,4
-1,1,4,0,-3,2,3,3,20,1,0,5
-1,2,5,0,-3,3,3,3,21,1,0,5
-1,2,5,-1,-3,3,3,3,22,1,0,5
-1,3,5,-1,-3,4,3,3,22,1,0,6
-1,3,6,-2,-3,4,3,4,23,2,0,6
-1,4,6,-2,-3,5,3,4,24,2,0,6
-1,4,7,-2,-3,5,3,4,25,3,0,7
-1,5,7,-2,-4,5,3,5,26,3,0,7
-1,5,7,-2,-4,6,3,5,27,3,0,7
-1,5,7,-2,-4,6,3,5,28,3,0,7
-1,5,8,-2,-4,6,3,5,28,3,0,7
-1,6,8,-2,-5,6,3,5,29,3,0,7
-2,6,9,-2,-5,7,3,6,29,3,0,7
-2,6,10,-2,-6,8,3,6,30,4,0,7
-1,7,10,-3,-6,8,3,6,30,4,0,7
-1,7,10,-3,-6,8,3,6,30,5,0,7
-1,8,10,-3,-6,8,3,6,31,5,0,7
-1,8,10,-4,-6,8,3,6,31,6,0,7
-1,8,10,-4,-6,8,3,6,31,6,0,7
-1,8,10,-4,-6,8,3,6,31,7,0,7
-1,8,10,-4,-5,8,3,6,31,7,0,7
0,8,9,-4,-5,8,2,6,31,7,0,7
0,8,9,-4,-4,8,2,6,31,8,0,7
0,8,8,-4,-4,8,2,6,31,8,0,7
0,8,8,-4,-4,8,2,6,31,9,0,6
0,7,8,-4,-4,8,2,6,31,9,0,6
-1,7,8,-3,-4,8,2,6,31,9,0,6
-1,7,8,-3,-4,7,2,6,31,9,0,6
-1,7,8,-3,-5,7,2,6,31,9,0,6
-1,6,8,-2,-5,7,2,6,30,9,0,6
-2,6,8,-2,-5,7,2,6,30,9,1,6
-2,5,8,-1,-5,7,1,6,30,10,1,6
-3,5,9,-1,-6,7,1,6,30,10,1,6
-3,5,9,-1,-6,7,1,6,30,10,2,6
