leadI,leadII,leadIII,leadaVR,leadaVL,leadaVF,leadV1,leadV2,leadV3,leadV4,leadV5,leadV6
0,0,0,0,0,0,-1,-3,-3,-2,-2,-1
2,0,-1,-1,2,0,-4,-10,-9,-7,-5,-5
4,0,-3,-2,3,-1,-8,-17,-14,-11,-8,-9
4,0,-4,-2,4,-2,-11,-22,-16,-14,-9,-11
4,0,-4,-2,4,-2,-12,-26,-17,-15,-10,-11
4,0,-4,-2,4,-2,-10,-26,-16,-15,-10,-11
3,0,-3,-2,3,-1,-5,-22,-14,-13,-9,-9
2,0,-2,-1,2,-1,0,-18,-12,-12,-8,-8
1,-2,-2,0,1,-2,2,-16,-12,-12,-8,-8
0,-4,-3,1,2,-3,2,-16,-13,-13,-10,-9
0,-5,-4,2,2,-4,0,-19,-14,-14,-11,-11
-1,-6,-4,4,2,-5,-2,-22,-16,-16,-12,-13
-2,-7,-5,5,2,-6,-3,-26,-17,-17,-13,-15
-2,-9,-6,6,2,-7,-3,-27,-17,-18,-14,-15
-3,-10,-6,7,2,-8,0,-24,-15,-16,-13,-15
-5,-10,-5,8,1,-8,3,-19,-13,-14,-12,-14
-6,-11,-5,8,0,-7,6,-15,-12,-12,-12,-13
-6,-12,-5,9,0,-8,6,-14,-12,-12,-12,-14
-7,-12,-4,9,-1,-8,4,-16,-14,-14,-13,-15
-6,-11,-3,9,-1,-7,1,-20,-15,-15,-14,-16
-6,-10,-3,8,-1,-6,-1,-24,-16,-16,-15,-17
-7,-11,-3,9,-1,-7,-1,-26,-16,-16,-15,-17
-7,-12,-4,9,-1,-8,0,-24,-15,-16,-15,-16
-7,-12,-4,9,-1,-8,3,-20,-14,-16,-15,-16
-7,-13,-5,10,0,-9,5,-16,-14,-15,-14,-15
-7,-12,-4,10,-1,-8,6,-14,-14,-15,-14,-15
-7,-12,-4,9,-1,-8,5,-14,-14,-16,-15,-16
-7,-11,-4,9,-1,-8,3,-18,-15,-16,-15,-16
-6,-11,-5,9,-1,-8,1,-22,-16,-17,-16,-17
-7,-11,-4,9,-1,-8,0,-25,-16,-18,-16,-17
-7,-11,-4,10,-2,-7,1,-24,-15,-17,-15,-16
-8,-12,-4,10,-2,-8,4,-20,-13,-15,-14,-15
-8,-12,-4,10,-1,-9,6,-16,-12,-15,-14,-15
-8,-12,-3,10,-2,-8,7,-13,-11,-15,-15,-16
-10,-11,-1,10,-4,-6,8,-10,-10,-15,-16,-17
-11,-11,0,11,-5,-6,8,-8,-8,-13,-17,-19
-11,-11,0,11,-5,-6,10,-4,-3,-10,-16,-20
-11,-11,0,11,-5,-5,13,3,6,-6,-15,-20
-10,-10,0,10,-4,-5,18,15,18,1,-11,-18
-8,-10,-1,9,-3,-6,25,28,31,11,-3,-14
-7,-9,-2,7,-2,-6,32,39,40,21,5,-9
-4,-7,-2,5,-1,-5,37,44,46,30,15,-3
-1,-4,-2,3,0,-4,37,42,46,36,26,4
1,-2,-3,0,2,-3,34,32,41,40,38,15
6,1,-4,-3,5,-2,28,18,35,46,55,29
11,6,-4,-8,7,0,22,6,30,53,74,47
18,13,-5,-15,11,4,16,-4,27,58,93,65
27,21,-6,-24,16,8,9,-14,24,64,114,85
38,31,-6,-35,22,12,-2,-25,20,70,136,106
50,43,-7,-46,28,18,-22,-38,15,76,161,131
63,54,-9,-58,36,22,-52,-54,10,82,184,156
76,63,-13,-70,45,25,-89,-71,7,85,202,178
90,70,-20,-80,55,25,-127,-87,4,84,213,194
101,74,-25,-88,63,24,-163,-104,-1,81,216,204
106,78,-28,-92,67,25,-190,-119,-11,74,211,207
107,78,-29,-92,68,24,-206,-132,-24,63,196,201
103,67,-36,-86,70,16,-209,-139,-38,48,173,184
94,48,-45,-72,70,1,-200,-141,-52,28,140,156
78,29,-49,-54,64,-10,-182,-142,-67,5,98,117
59,11,-48,-35,54,-19,-165,-147,-83,-20,51,70
41,-4,-46,-19,44,-25,-144,-148,-92,-42,10,31
25,-12,-38,-6,32,-25,-113,-134,-93,-56,-18,6
12,-14,-27,1,20,-21,-81,-111,-87,-61,-34,-7
4,-13,-17,5,11,-15,-58,-91,-76,-60,-40,-15
-1,-12,-10,6,4,-11,-43,-76,-64,-55,-40,-20
-5,-11,-5,7,0,-8,-31,-64,-52,-47,-36,-22
-7,-11,-3,9,-1,-8,-21,-53,-41,-40,-33,-22
-8,-13,-4,10,-1,-9,-13,-43,-31,-34,-30,-22
-8,-14,-5,11,-1,-10,-6,-35,-23,-29,-28,-22
-9,-14,-4,12,-2,-9,0,-28,-16,-24,-25,-21
-11,-14,-3,12,-4,-8,6,-20,-10,-19,-22,-20
-12,-14,-2,12,-5,-8,10,-14,-6,-15,-19,-19
-12,-14,-2,13,-5,-8,12,-11,-3,-13,-17,-18
-12,-15,-2,13,-5,-8,12,-10,-2,-12,-17,-19
-11,-14,-2,12,-4,-8,11,-11,-2,-12,-17,-19
-11,-13,-1,12,-5,-7,11,-10,-2,-11,-16,-18
-12,-13,-1,12,-5,-7,12,-9,-1,-10,-15,-17
-12,-12,0,12,-6,-6,13,-8,0,-9,-14,-16
-13,-12,0,12,-6,-6,15,-5,2,-7,-14,-16
-13,-12,0,12,-7,-6,16,-3,3,-7,-14,-16
-12,-12,0,12,-7,-6,16,-2,3,-6,-15,-16
-12,-11,0,11,-7,-5,15,-2,2,-6,-15,-17
-11,-12,0,11,-6,-6,14,-3,1,-6,-15,-18
-11,-12,-1,12,-6,-7,13,-4,1,-6,-15,-18
-12,-12,0,12,-6,-6,13,-4,2,-7,-16,-18
-12,-12,0,13,-7,-6,15,-3,3,-6,-16,-17
-13,-12,1,13,-7,-6,16,-2,3,-5,-15,-16
-13,-13,1,13,-7,-6,18,-1,4,-4,-14,-15
-13,-13,0,13,-7,-6,18,0,4,-5,-14,-14
-12,-13,0,13,-6,-6,17,0,3,-5,-14,-15
-12,-13,0,13,-6,-6,16,-1,3,-5,-14,-15
-12,-13,-1,12,-5,-6,15,-2,3,-5,-14,-16
-11,-12,-1,12,-5,-6,15,-2,3,-5,-14,-16
-11,-11,0,11,-5,-5,16,-2,3,-4,-15,-17
-11,-11,0,11,-5,-5,16,-1,3,-4,-14,-17
-11,-11,0,11,-6,-5,16,0,4,-3,-14,-17
-11,-10,1,10,-6,-4,17,1,5,-2,-13,-16
-12,-9,2,11,-6,-3,18,3,5,-1,-13,-15
-13,-10,3,12,-7,-3,18,3,5,0,-12,-14
-13,-10,3,12,-8,-3,16,2,5,0,-12,-14
-13,-9,4,11,-8,-2,16,0,5,-1,-13,-14
-12,-10,2,11,-7,-3,16,0,5,-2,-14,-14
-12,-11,1,12,-6,-5,17,0,5,-1,-14,-14
-12,-12,0,12,-6,-6,18,0,5,0,-13,-14
-13,-13,0,12,-6,-6,19,1,6,1,-12,-14
-13,-12,1,12,-7,-5,18,2,6,1,-12,-14
-13,-11,2,12,-7,-5,17,3,7,1,-12,-14
-13,-11,2,12,-6,-5,17,3,7,1,-12,-14
-12,-11,2,12,-7,-5,17,3,8,2,-12,-14
-13,-11,2,12,-7,-5,17,3,9,2,-12,-14
-13,-12,1,12,-7,-5,17,3,10,3,-12,-13
-14,-12,1,12,-7,-5,18,4,10,4,-11,-13
-14,-11,2,12,-8,-5,18,5,10,4,-11,-13
-14,-11,3,12,-8,-4,18,5,10,4,-11,-13
-14,-11,2,12,-8,-4,18,5,10,3,-11,-13
-13,-11,1,12,-7,-5,18,6,10,3,-12,-13
-13,-11,1,12,-7,-5,18,6,10,3,-12,-13
-13,-12,1,12,-7,-5,17,7,10,3,-12,-13
-13,-12,2,12,-7,-4,18,9,11,4,-12,-12
-13,-11,2,12,-7,-4,18,9,12,5,-12,-12
-12,-12,0,12,-6,-6,15,6,12,5,-12,-13
-12,-13,-1,12,-5,-7,13,3,12,5,-12,-14
-11,-12,-1,12,-5,-7,15,4,13,6,-11,-12
-11,-11,0,12,-6,-6,20,10,16,8,-10,-10
-12,-9,3,12,-8,-3,22,15,17,10,-8,-9
-13,-8,5,11,-9,-1,21,18,18,10,-8,-10
-13,-8,5,11,-9,-2,19,17,17,9,-9,-11
-13,-9,4,11,-9,-2,17,15,17,8,-10,-12
-14,-10,4,11,-9,-3,15,13,17,9,-10,-13
-14,-10,3,11,-8,-3,14,12,18,9,-10,-13
-13,-10,2,11,-7,-4,16,13,20,10,-9,-13
-13,-11,2,11,-7,-4,20,17,22,11,-9,-12
-13,-11,2,12,-7,-4,24,23,24,12,-9,-12
-13,-10,2,12,-7,-4,24,26,25,12,-9,-12
-12,-11,1,12,-6,-5,20,22,24,11,-10,-13
-12,-11,0,11,-6,-5,17,19,25,11,-9,-13
-12,-10,1,10,-6,-4,19,23,29,15,-7,-11
-12,-9,2,10,-7,-3,23,29,32,19,-5,-10
-12,-8,3,10,-7,-3,23,31,33,19,-5,-10
-12,-8,3,10,-7,-2,21,31,34,18,-6,-12
-11,-8,3,10,-7,-2,21,33,36,18,-6,-13
-11,-8,4,10,-8,-2,21,35,39,19,-5,-13
-12,-8,5,10,-8,-1,21,36,41,21,-3,-12
-13,-8,5,10,-9,-1,22,38,44,23,-2,-11
-12,-8,4,10,-8,-2,24,43,48,25,-2,-10
-12,-7,3,9,-8,-2,26,47,52,27,-1,-9
-11,-6,3,9,-8,-1,26,51,55,28,-1,-8
-11,-5,4,8,-8,0,27,55,58,30,0,-8
-11,-6,4,8,-8,0,26,57,60,31,2,-9
-11,-6,5,9,-8,0,25,58,63,32,2,-9
-12,-6,6,9,-8,0,25,61,66,34,3,-10
-11,-4,6,8,-8,1,26,65,71,36,4,-10
-11,-4,6,7,-8,1,28,70,75,40,6,-9
-11,-4,6,7,-8,1,29,75,80,44,8,-8
-11,-4,6,7,-9,1,29,79,84,46,10,-7
-10,-3,6,7,-9,1,30,82,87,48,11,-7
-10,-3,6,7,-8,1,30,85,90,49,11,-7
-10,-4,6,7,-8,1,31,88,93,49,12,-7
-10,-3,7,7,-8,2,31,90,97,51,13,-6
-10,-2,8,6,-9,3,31,92,100,54,15,-6
-10,-1,9,6,-9,4,32,94,103,57,17,-6
-10,-1,9,5,-9,4,32,97,105,59,18,-5
-9,1,10,4,-9,5,31,97,106,60,18,-5
-8,3,11,3,-9,6,29,96,107,60,19,-5
-8,2,10,3,-9,6,29,97,109,62,21,-4
-8,1,9,3,-8,5,33,103,112,66,24,-2
-8,1,10,3,-9,5,35,107,114,68,26,0
-8,2,11,3,-9,7,34,107,114,68,26,-1
-8,2,11,3,-10,7,31,104,113,67,26,-2
-7,2,10,3,-9,6,28,100,111,67,26,-3
-6,2,9,2,-7,5,24,95,109,66,26,-3
-5,3,8,2,-7,5,22,91,108,66,27,-3
-5,3,8,2,-7,5,22,88,107,67,28,-1
-6,3,9,2,-8,6,24,89,107,67,29,1
-7,3,10,2,-8,7,28,93,107,68,30,4
-7,4,10,2,-8,7,28,93,104,69,31,6
-7,4,11,2,-9,8,24,87,99,67,31,6
-7,5,12,2,-9,8,19,79,93,64,30,5
-7,5,11,2,-9,8,16,72,88,62,29,5
-6,4,10,2,-8,7,14,65,83,58,27,5
-6,4,9,2,-7,6,14,60,79,56,27,6
-6,4,10,1,-8,7,15,58,75,55,27,7
-5,6,11,0,-8,8,16,56,70,53,25,8
-4,7,10,-1,-7,9,15,52,65,49,22,7
-3,7,9,-2,-6,8,13,48,59,45,20,7
-2,7,9,-2,-5,8,10,41,52,41,19,6
-2,6,8,-1,-5,8,5,32,46,38,17,5
-3,5,8,0,-6,7,4,26,41,36,16,5
-4,4,8,0,-6,7,5,24,38,35,16,6
-4,4,8,0,-6,7,8,24,35,34,15,7
-4,3,7,0,-6,6,9,24,32,32,14,7
-4,1,6,1,-5,4,7,20,27,29,13,7
-4,0,5,2,-4,3,2,12,21,25,11,5
-4,0,4,2,-4,2,1,8,18,22,9,6
-4,-1,4,3,-4,2,2,6,16,21,9,7
-4,0,5,3,-4,2,2,4,12,19,7,6
-5,0,6,2,-5,3,1,0,9,16,5,4
-5,0,6,3,-5,3,1,0,7,15,4,3
-4,0,6,2,-5,3,1,-1,5,14,3,3
-4,1,6,2,-6,4,0,-4,2,11,2,2
-5,2,7,2,-7,5,0,-7,-1,10,1,1
-6,1,7,2,-7,5,0,-9,-2,9,0,2
-5,0,6,2,-6,4,-1,-11,-3,9,0,2
-5,0,4,3,-5,2,-3,-14,-5,7,-1,2
-4,0,3,2,-3,1,-4,-17,-6,6,-2,2
-3,0,2,2,-2,0,-2,-17,-7,5,-2,2
-3,-2,1,3,-1,-1,-1,-15,-8,4,-2,2
-3,-3,0,3,-1,-2,-1,-14,-10,3,-3,2
-3,-3,0,4,-2,-1,-2,-14,-11,2,-4,1
-3,-2,1,3,-2,0,-2,-14,-12,3,-4,1
-3,-2,1,3,-2,0,-3,-16,-12,3,-4,1
-3,-2,1,3,-2,0,-6,-19,-14,1,-5,0
-5,-2,2,3,-3,0,-8,-23,-16,0,-6,-2
-6,-2,3,4,-4,1,-8,-25,-16,-1,-6,-2
-7,-2,4,4,-5,0,-6,-24,-16,-1,-6,-2
-7,-4,3,4,-5,-1,-4,-22,-16,-1,-6,-1
-6,-4,2,4,-4,-1,-2,-20,-16,-1,-7,-1
-5,-3,2,4,-4,0,-2,-19,-16,-2,-7,-1
-5,-3,1,4,-3,-1,-2,-18,-16,-2,-7,-1
-4,-4,0,4,-2,-2,-4,-20,-17,-3,-7,-1
-5,-2,2,4,-3,0,-7,-24,-18,-4,-8,-3
-5,-1,4,3,-4,1,-8,-27,-19,-5,-8,-4
-5,-1,4,3,-4,1,-6,-26,-18,-5,-8,-4
-4,-2,2,3,-3,0,-4,-23,-18,-6,-9,-3
-3,-3,1,3,-2,-1,-3,-21,-18,-6,-9,-3
-3,-3,1,3,-2,-1,-2,-19,-18,-6,-9,-3
-3,-2,2,3,-3,0,-3,-21,-18,-6,-10,-4
-4,-1,4,3,-4,1,-5,-24,-20,-7,-11,-5
-4,-1,4,3,-4,1,-6,-26,-21,-8,-11,-6
-4,-3,2,4,-2,-1,-6,-26,-20,-7,-10,-6
-4,-5,0,5,-1,-3,-5,-25,-19,-7,-10,-6
-5,-4,1,5,-2,-2,-3,-22,-18,-6,-9,-6
-5,-3,1,4,-3,-1,-2,-20,-18,-6,-9,-6
-4,-3,1,4,-3,-1,-1,-18,-17,-6,-9,-7
-5,-2,3,4,-4,0,-1,-18,-17,-5,-8,-6
-6,-2,4,5,-5,1,-1,-19,-16,-6,-8,-6
-7,-3,4,5,-5,0,-3,-21,-16,-7,-8,-6
-6,-3,4,5,-4,0,-4,-22,-16,-7,-9,-6
-6,-2,4,4,-4,0,-4,-22,-16,-7,-9,-6
-5,-2,4,4,-5,0,-2,-20,-15,-7,-9,-6
-5,-2,3,4,-5,0,-1,-19,-15,-7,-9,-6
-5,-2,3,4,-5,0,-1,-18,-15,-8,-9,-6
-4,-1,3,3,-4,1,-1,-18,-15,-8,-10,-7
-3,0,3,2,-3,1,-2,-17,-15,-8,-10,-7
-3,-1,1,2,-2,0,-2,-18,-14,-8,-10,-7
-2,-2,0,2,-2,-1,-3,-19,-13,-7,-9,-7
-3,-2,1,2,-2,0,-4,-20,-13,-7,-9,-7
-4,-1,2,2,-3,0,-3,-19,-12,-7,-10,-7
-4,-1,2,2,-3,0,-1,-17,-11,-7,-10,-7
-4,-1,2,2,-3,0,-1,-15,-11,-7,-10,-8
-3,-1,2,2,-3,0,-1,-15,-11,-7,-10,-8
-3,-1,2,2,-3,0,0,-14,-10,-6,-9,-7
-5,-2,2,3,-4,0,0,-14,-9,-5,-8,-6
-5,-2,3,3,-4,1,-1,-15,-9,-5,-8,-6
-5,-1,4,3,-4,1,-2,-17,-8,-5,-8,-6
-6,-1,4,3,-5,1,-2,-17,-8,-5,-8,-6
-5,-1,3,3,-4,1,-1,-15,-7,-5,-8,-6
-4,-1,3,3,-4,1,0,-14,-7,-5,-8,-6
-4,0,3,2,-4,1,0,-12,-7,-5,-8,-6
-4,-1,3,3,-4,1,0,-11,-6,-5,-7,-6
-5,-3,2,4,-3,0,0,-12,-5,-4,-6,-5
-6,-3,2,5,-3,0,0,-13,-5,-4,-6,-5
-6,-2,4,4,-4,1,-2,-15,-5,-5,-7,-6
-5,-1,4,3,-4,1,-2,-15,-5,-5,-7,-6
-4,-1,3,3,-3,1,-2,-15,-5,-5,-7,-6
-4,-2,2,3,-3,0,-1,-13,-4,-5,-6,-5
-5,-2,3,3,-3,0,-1,-12,-4,-5,-6,-5
-5,-2,3,3,-4,0,-1,-11,-4,-5,-6,-5
-5,-2,3,3,-4,0,-1,-11,-4,-5,-6,-5
-6,-2,4,4,-4,0,-1,-12,-5,-6,-6,-5
-6,-2,4,4,-5,0,-1,-13,-5,-6,-6,-5
-5,-2,3,3,-4,0,-1,-14,-5,-7,-6,-5
-4,-2,2,3,-3,0,-1,-14,-5,-7,-6,-5
-4,-2,3,3,-3,0,-1,-13,-5,-7,-6,-5
-5,-1,4,3,-4,1,-1,-12,-5,-7,-6,-6
-4,-1,4,3,-4,1,-1,-12,-6,-8,-6,-6
-4,-1,3,2,-3,0,-1,-13,-6,-8,-6,-5
-4,-1,3,2,-3,1,0,-13,-6,-7,-6,-5
-5,0,4,2,-4,2,0,-14,-7,-7,-6,-5
-4,1,5,1,-4,3,0,-15,-7,-8,-6,-5
-4,1,5,1,-4,2,0,-15,-7,-8,-5,-5
-4,0,4,1,-4,2,1,-13,-6,-7,-5,-4
-4,2,5,1,-4,3,2,-12,-6,-6,-5,-4
-4,3,7,0,-5,4,2,-13,-6,-7,-5,-5
-4,3,6,0,-5,4,4,-12,-6,-7,-5,-5
-4,2,6,0,-4,3,5,-11,-5,-6,-5,-5
-4,2,6,0,-5,4,6,-12,-5,-7,-5,-5
-3,3,6,0,-4,4,7,-13,-6,-7,-5,-5
-3,2,5,0,-4,4,9,-13,-6,-7,-4,-4
-3,2,5,0,-4,3,11,-13,-6,-6,-4,-3
-4,3,7,0,-5,5,12,-13,-6,-6,-3,-3
-4,5,9,0,-6,7,12,-12,-6,-6,-4,-3
-4,7,10,-1,-6,8,11,-12,-6,-6,-4,-3
-3,6,9,-1,-5,8,10,-12,-6,-5,-4,-3
-3,6,8,-1,-5,7,9,-13,-6,-5,-3,-3
-3,7,9,-2,-5,8,6,-15,-6,-6,-3,-2
-4,7,11,-2,-7,9,3,-15,-6,-6,-3,-2
-4,6,10,-1,-7,8,1,-14,-6,-6,-3,-1
-3,5,8,-1,-6,7,0,-14,-5,-5,-3,0
-3,6,9,-1,-6,7,0,-14,-6,-6,-3,-1
-3,5,9,-1,-7,7,-1,-15,-7,-7,-4,-1
-4,4,9,0,-7,6,-4,-17,-7,-8,-4,-1
-4,3,8,1,-6,5,-6,-18,-8,-8,-3,-1
-3,3,7,0,-5,5,-8,-18,-8,-7,-3,-2
-1,3,6,-1,-3,5,-10,-19,-8,-8,-4,-2
0,5,6,-2,-3,5,-10,-20,-9,-9,-5,-3
0,6,6,-3,-3,6,-10,-20,-9,-9,-5,-3
-1,6,8,-3,-4,7,-10,-20,-9,-9,-5,-3
-2,7,10,-2,-6,9,-10,-21,-10,-9,-5,-4
-2,8,11,-2,-7,10,-11,-23,-12,-10,-6,-4
-1,9,11,-3,-6,10,-11,-24,-14,-10,-6,-4
-1,9,11,-4,-5,10,-12,-25,-15,-11,-7,-4
0,10,10,-4,-4,10,-14,-27,-16,-12,-7,-4
1,11,10,-5,-4,11,-16,-27,-17,-12,-7,-4
1,12,11,-6,-4,12,-15,-26,-16,-12,-7,-4
1,12,11,-6,-4,11,-15,-26,-15,-12,-7,-3
1,10,8,-6,-3,9,-15,-26,-15,-12,-7,-3
2,8,6,-5,-1,6,-14,-25,-15,-12,-7,-3
3,7,5,-5,0,5,-13,-24,-15,-12,-6,-3
3,7,4,-5,0,5,-13,-24,-15,-12,-6,-3
3,7,4,-5,0,5,-13,-25,-16,-12,-7,-3
3,5,2,-4,1,4,-12,-25,-16,-12,-7,-3
4,4,0,-3,2,2,-11,-25,-16,-13,-7,-2
4,3,0,-3,3,1,-11,-25,-16,-13,-8,-2
4,4,0,-4,3,1,-10,-25,-16,-14,-8,-3
4,3,-1,-4,3,1,-10,-24,-16,-14,-8,-4
3,2,-1,-3,3,0,-8,-23,-16,-13,-8,-4
2,1,0,-2,2,0,-7,-23,-15,-13,-8,-5
1,1,1,-1,1,1,-6,-24,-16,-14,-9,-6
0,1,2,0,0,2,-6,-25,-17,-15,-10,-7
-2,0,3,1,-2,2,-5,-25,-17,-15,-10,-7
-4,0,3,2,-3,1,-3,-24,-17,-15,-11,-7
-5,0,4,3,-4,1,-2,-23,-17,-15,-11,-8
-6,-1,4,4,-4,1,-2,-23,-17,-15,-12,-9
-6,-3,3,5,-4,0,-1,-23,-17,-15,-12,-9
-6,-5,2,6,-3,-2,-1,-24,-17,-16,-12,-10
-6,-6,2,6,-3,-2,-1,-25,-18,-17,-13,-11
-6,-5,2,6,-4,-1,-1,-25,-18,-18,-14,-11
-6,-5,2,6,-4,-1,0,-24,-18,-18,-14,-12
-6,-6,1,6,-3,-2,0,-23,-18,-17,-14,-12
-7,-6,0,7,-3,-3,0,-23,-18,-17,-14,-12
-7,-7,0,7,-3,-3,0,-24,-18,-18,-14,-12
-7,-7,0,7,-3,-3,0,-25,-17,-18,-14,-12
-7,-6,1,7,-4,-3,1,-24,-17,-17,-13,-11
-7,-6,1,7,-4,-3,1,-24,-17,-17,-13,-11
-7,-6,1,7,-4,-3,0,-25,-18,-18,-14,-12
-7,-6,1,7,-4,-3,-1,-26,-19,-18,-14,-12
-7,-6,1,7,-4,-3,-1,-27,-19,-18,-14,-12
-7,-7,1,7,-4,-3,0,-26,-18,-18,-13,-11
-7,-7,0,7,-4,-3,1,-24,-18,-18,-13,-11
-7,-7,0,7,-4,-3,0,-25,-18,-19,-14,-12
-7,-7,1,7,-4,-3,0,-25,-18,-19,-15,-13
-8,-7,2,8,-5,-3,1,-24,-18,-19,-15,-13
-8,-7,2,8,-5,-2,2,-22,-17,-20,-16,-14
-8,-7,2,7,-4,-3,2,-20,-15,-20,-17,-15
-9,-8,1,8,-4,-3,5,-16,-11,-18,-17,-16
-9,-8,2,8,-5,-3,9,-8,-4,-14,-16,-16
-9,-6,2,7,-5,-2,14,4,6,-8,-13,-16
-7,-4,2,6,-5,-1,18,15,17,-1,-9,-15
-5,-3,2,5,-4,-1,22,25,28,7,-2,-13
-5,-3,2,4,-4,-1,27,32,38,17,7,-7
-4,-3,2,3,-3,-1,31,36,44,27,19,0
-2,-1,1,1,-2,0,32,32,43,34,31,10
2,2,0,-2,0,1,29,22,36,39,44,22
7,8,0,-8,3,3,25,11,28,43,59,37
14,14,-1,-14,7,5,19,2,23,48,78,54
22,21,-1,-21,11,8,12,-8,18,53,97,72
30,29,-1,-29,16,13,3,-20,14,56,118,91
41,39,-2,-39,22,17,-11,-33,9,61,140,114
53,48,-5,-51,29,21,-32,-48,3,68,166,140
67,58,-9,-62,38,24,-63,-66,-2,73,189,166
81,66,-14,-74,47,26,-100,-84,-7,75,207,188
94,73,-20,-84,57,27,-136,-99,-11,74,217,204
104,80,-24,-92,64,28,-166,-112,-18,70,219,213
109,84,-25,-96,67,29,-189,-125,-30,63,211,214
109,80,-29,-94,69,26,-204,-138,-44,50,194,205
104,66,-38,-85,71,14,-208,-149,-60,32,167,185
93,47,-45,-70,69,1,-200,-157,-77,11,132,153
74,28,-46,-51,60,-9,-183,-159,-91,-11,88,111
54,11,-43,-33,49,-16,-159,-156,-101,-32,44,67
37,-1,-39,-18,38,-20,-133,-148,-107,-51,6,30
24,-9,-33,-7,29,-20,-106,-135,-107,-65,-22,4
13,-10,-24,-1,18,-16,-81,-117,-99,-71,-38,-11
5,-8,-13,2,9,-10,-61,-99,-86,-68,-43,-18
0,-7,-6,4,3,-6,-45,-82,-71,-61,-41,-21
-4,-7,-2,6,-1,-5,-31,-67,-57,-52,-37,-21
-7,-7,0,7,-3,-4,-20,-55,-45,-44,-32,-21
-8,-8,0,8,-4,-4,-13,-46,-36,-38,-29,-21
-8,-8,0,8,-4,-4,-8,-38,-29,-33,-26,-21
-9,-8,0,8,-4,-4,-3,-32,-23,-28,-23,-20
-9,-9,-1,9,-3,-5,1,-26,-18,-24,-21,-19
-9,-10,-2,10,-3,-6,4,-22,-14,-22,-20,-19
-8,-11,-2,10,-3,-6,5,-19,-12,-21,-20,-20
-7,-10,-2,9,-2,-6,6,-18,-11,-20,-19,-20
-6,-8,-1,7,-2,-5,7,-16,-9,-19,-19,-19
-7,-7,0,7,-3,-4,8,-13,-8,-17,-18,-18
-7,-8,-1,7,-3,-4,8,-13,-7,-15,-17,-18
-7,-8,-1,7,-3,-4,8,-12,-6,-14,-16,-18
-8,-7,0,7,-4,-2,10,-11,-6,-13,-17,-17
-10,-7,1,8,-6,-2,11,-10,-5,-13,-17,-17
-10,-8,1,9,-6,-2,11,-10,-5,-13,-17,-17
-10,-8,2,9,-7,-2,11,-10,-5,-13,-17,-18
-10,-7,3,8,-7,-2,12,-10,-5,-13,-17,-18
-10,-7,2,9,-6,-3,11,-11,-5,-13,-17,-19
-9,-8,0,9,-5,-4,10,-12,-5,-13,-17,-19
-9,-8,0,9,-5,-4,11,-11,-4,-12,-17,-18
-10,-8,1,9,-5,-3,12,-9,-2,-11,-16,-18
-9,-7,2,8,-6,-2,14,-8,-2,-10,-16,-17
-8,-6,2,7,-5,-1,13,-8,-3,-10,-16,-17
-8,-7,2,7,-5,-2,11,-9,-3,-10,-16,-17
-8,-7,1,7,-5,-3,12,-9,-2,-10,-15,-17
-7,-6,2,7,-5,-2,12,-9,-2,-9,-15,-16
-7,-4,3,6,-5,0,12,-9,-2,-9,-15,-16
-8,-4,4,6,-6,1,12,-9,-2,-9,-15,-16
-8,-4,4,6,-6,1,12,-9,-2,-9,-16,-16
-8,-5,4,7,-6,0,12,-9,-2,-9,-16,-16
-8,-6,2,7,-5,-2,13,-8,-2,-7,-15,-16
-8,-8,0,8,-5,-3,13,-8,-2,-6,-14,-16
-8,-9,0,8,-5,-4,13,-8,-1,-6,-13,-15
-8,-9,0,9,-4,-5,13,-8,-1,-6,-14,-15
-8,-8,0,9,-4,-4,13,-8,-1,-7,-14,-16
-9,-7,1,8,-5,-3,12,-8,-1,-7,-15,-16
-9,-6,3,8,-5,-1,12,-8,0,-7,-15,-16
-8,-6,2,7,-5,-1,13,-7,0,-6,-15,-16
-8,-6,2,7,-5,-1,14,-7,0,-5,-14,-16
-9,-6,3,7,-6,-1,14,-7,0,-5,-14,-16
-8,-6,3,7,-6,-1,14,-7,0,-5,-14,-16
-8,-6,2,7,-5,-2,14,-6,0,-5,-14,-16
-8,-7,1,7,-4,-3,13,-6,0,-5,-14,-16
-8,-7,1,8,-4,-3,12,-6,0,-5,-14,-16
-8,-6,2,7,-4,-2,12,-5,1,-4,-13,-16
-8,-6,3,7,-5,-1,13,-3,1,-3,-13,-15
-8,-6,2,7,-5,-2,13,-3,1,-3,-13,-15
-9,-8,1,9,-5,-3,12,-4,1,-3,-13,-15
-9,-8,1,9,-5,-4,12,-5,1,-2,-13,-15
-9,-7,2,8,-6,-3,13,-3,2,-2,-13,-15
-10,-7,2,8,-6,-3,13,-2,3,-1,-13,-14
-10,-7,2,9,-6,-3,13,-2,4,-1,-13,-15
-9,-6,3,8,-6,-2,13,-2,4,0,-13,-15
-7,-5,2,6,-5,-1,12,-2,5,0,-13,-15
-5,-5,0,5,-3,-2,12,-1,5,0,-13,-15
-5,-6,0,6,-3,-3,13,0,5,0,-13,-15
-6,-7,0,6,-4,-3,13,0,6,1,-13,-15
-7,-7,2,6,-5,-2,12,0,6,1,-13,-15
-8,-6,2,7,-5,-2,12,0,7,1,-12,-15
-8,-7,2,7,-5,-3,14,2,9,3,-11,-14
-9,-7,2,8,-5,-2,15,5,11,5,-10,-13
-9,-6,3,8,-6,-2,15,5,12,6,-10,-14
-10,-6,4,7,-7,-1,15,6,12,6,-9,-14
-10,-4,5,7,-7,0,14,7,13,6,-10,-15
-9,-4,5,7,-7,0,14,7,14,6,-10,-15
-8,-6,3,7,-5,-2,14,8,15,6,-10,-15
-8,-7,1,8,-4,-3,15,10,17,7,-9,-14
-8,-7,1,8,-4,-3,16,12,18,8,-8,-13
-8,-6,2,7,-5,-2,16,13,19,9,-8,-13
-7,-5,2,6,-5,-1,16,14,20,9,-8,-14
-7,-4,3,6,-5,0,16,15,22,9,-8,-14
-7,-4,2,5,-5,0,16,17,24,10,-8,-14
-6,-3,3,5,-5,0,16,19,26,11,-7,-14
-7,-4,3,5,-5,0,16,21,29,12,-7,-15
-7,-5,2,6,-5,-1,17,22,31,13,-6,-15
-7,-5,3,6,-5,-1,18,24,34,14,-6,-15
-8,-4,4,6,-6,0,19,27,37,16,-5,-14
-8,-4,4,6,-7,0,20,32,40,18,-4,-14
-8,-5,3,7,-6,0,20,35,43,20,-3,-14
-7,-5,2,6,-5,-1,20,37,46,22,-2,-13
-6,-4,1,6,-4,-1,21,41,49,24,-1,-13
-6,-4,1,6,-4,-1,21,44,52,25,0,-13
-8,-4,3,6,-5,-1,21,46,55,27,1,-13
-8,-4,4,6,-6,0,22,49,59,29,2,-13
-9,-3,5,6,-6,0,23,53,64,31,3,-13
-9,-3,6,6,-7,0,24,57,68,33,4,-12
-8,-2,5,5,-6,1,24,61,72,35,6,-12
-7,-2,5,5,-5,1,25,65,76,38,8,-12
-7,-2,5,5,-6,1,26,69,80,41,10,-11
-7,-2,5,5,-6,1,26,71,84,43,11,-10
-6,0,6,3,-6,2,25,72,87,44,12,-11
-5,2,7,2,-6,4,25,75,90,46,13,-11
-5,2,7,2,-6,4,27,79,94,49,15,-10
-5,2,7,2,-6,4,28,83,97,51,17,-9
-5,2,7,2,-6,4,28,85,99,54,19,-9
-5,3,9,1,-6,6,27,85,100,55,19,-9
-5,4,9,0,-7,7,25,84,101,56,20,-9
-5,4,9,0,-6,7,25,86,103,58,21,-8
-4,4,8,0,-6,6,27,89,105,59,23,-6
-4,5,8,-1,-6,7,27,90,106,60,25,-6
-3,7,10,-1,-6,8,25,89,106,61,25,-5
-3,7,11,-1,-6,9,23,88,107,61,26,-4
-3,7,10,-1,-6,8,24,88,108,63,28,-3
-3,6,9,-1,-5,8,24,88,109,64,29,-2
-2,5,8,-1,-4,7,23,87,108,63,30,-2
-3,5,8,-1,-5,7,22,84,106,63,30,-1
-4,5,9,-1,-6,7,21,83,104,62,31,0
-4,5,9,-1,-7,7,21,82,102,61,31,0
-4,5,9,-1,-7,7,20,79,99,60,30,0
-2,6,9,-1,-6,7,18,75,95,58,29,0
-1,8,10,-2,-5,8,17,71,91,56,29,0
-1,9,10,-3,-5,9,17,69,88,56,29,1
-1,8,10,-3,-5,9,17,66,84,54,28,2
-1,9,10,-3,-6,10,14,58,78,50,26,2
-1,10,11,-4,-7,11,12,50,72,46,25,1
-1,10,11,-4,-7,10,11,46,66,44,24,2
-1,9,9,-3,-6,9,11,44,61,41,24,4
-1,7,9,-2,-5,8,11,41,56,39,23,5
-1,7,9,-2,-5,8,9,36,51,35,21,5
-1,8,9,-2,-5,8,8,31,46,32,20,5
-1,8,9,-2,-5,8,8,27,41,30,18,5
-2,6,7,-2,-5,7,8,23,36,27,17,5
-2,4,6,-1,-4,5,6,18,32,24,15,5
-2,3,5,0,-4,4,5,14,28,22,14,4
-1,4,5,-1,-4,4,5,11,23,18,12,4
0,5,5,-2,-4,5,4,8,19,15,11,3
1,6,5,-3,-3,5,3,4,15,12,9,3
1,5,4,-2,-2,4,2,0,11,10,7,2
0,4,3,-1,-2,3,2,-3,8,8,5,1
-1,3,4,0,-2,3,1,-5,5,6,4,0
-1,3,5,0,-3,4,2,-5,3,5,3,0
-1,3,5,-1,-3,4,3,-5,1,3,2,0
-1,3,4,0,-3,3,1,-8,-1,0,1,0
-1,2,3,0,-2,1,0,-11,-3,-1,0,-1
-1,1,2,0,-1,0,0,-13,-5,-2,-1,-1
-1,1,2,0,-2,1,0,-14,-6,-3,-2,-1
-1,2,3,0,-2,2,0,-15,-8,-5,-3,-1
-1,1,2,0,-1,1,-1,-17,-10,-6,-4,-2
-1,0,0,1,0,0,-2,-20,-11,-7,-5,-3
0,-2,-1,1,1,-2,0,-19,-12,-7,-5,-3
-1,-3,-1,1,0,-2,0,-18,-13,-8,-5,-2
-2,-2,1,1,-1,-1,-1,-19,-14,-9,-5,-3
-2,-2,2,1,-2,0,-2,-22,-15,-10,-6,-3
-2,-2,1,2,-2,-1,-2,-24,-16,-11,-6,-3
-2,-2,0,2,-2,-1,-1,-23,-16,-10,-6,-2
-2,-2,0,3,-1,-1,0,-23,-16,-10,-6,-2
-2,-2,0,3,-1,0,-1,-24,-18,-11,-7,-3
-1,-2,0,2,-1,0,-2,-26,-19,-12,-8,-3
-1,-1,0,1,-1,0,-2,-26,-20,-13,-8,-4
-1,-1,1,1,-2,0,-2,-27,-20,-13,-9,-4
-3,-2,1,2,-2,0,-1,-27,-20,-13,-9,-4
-3,-3,0,3,-2,-1,-1,-27,-20,-14,-9,-5
-2,-4,-2,3,0,-3,-1,-27,-20,-14,-9,-5
-2,-4,-2,3,0,-3,-1,-27,-20,-14,-9,-5
-3,-3,0,3,-1,-2,-1,-27,-21,-15,-9,-6
-4,-3,2,4,-3,0,-1,-27,-21,-16,-10,-6
-5,-3,2,4,-4,0,-2,-27,-21,-17,-10,-7
-4,-2,2,3,-3,0,-3,-28,-22,-17,-11,-7
-3,-2,1,3,-2,0,-2,-28,-21,-16,-10,-6
-3,-2,1,3,-2,-1,-1,-28,-20,-15,-10,-6
-3,-3,1,4,-2,-1,-1,-27,-20,-15,-10,-6
-3,-3,0,4,-2,-1,-2,-27,-21,-17,-11,-7
-4,-4,0,4,-2,-1,-1,-27,-20,-17,-10,-7
-4,-4,1,5,-2,-2,0,-24,-19,-15,-9,-6
-4,-4,1,4,-3,-1,0,-23,-19,-15,-9,-6
-3,-3,1,3,-2,-1,-1,-26,-20,-17,-10,-7
-2,-4,0,3,-1,-3,0,-26,-20,-17,-9,-7
-2,-5,-1,3,-1,-3,0,-25,-19,-16,-9,-7
-2,-3,0,2,-1,-2,0,-25,-19,-17,-10,-8
-1,-1,0,2,-1,-1,0,-25,-19,-17,-10,-8
-2,-2,0,2,-1,-1,0,-25,-19,-18,-11,-8
-2,-3,-1,3,0,-3,0,-25,-19,-18,-11,-8
-2,-4,-2,3,0,-4,1,-24,-18,-17,-10,-8
-2,-4,-2,3,0,-4,2,-23,-17,-16,-10,-7
-2,-3,-2,2,0,-3,2,-22,-16,-16,-10,-7
-2,-3,-1,3,-1,-2,1,-23,-16,-16,-11,-7
-3,-4,-1,4,-1,-3,0,-24,-15,-16,-11,-8
-3,-4,-1,4,-1,-3,1,-23,-15,-16,-11,-8
-2,-2,0,2,-1,-1,2,-22,-15,-16,-11,-9
-1,-1,0,2,-1,-1,1,-22,-15,-16,-12,-9
-2,-2,0,3,-1,-2,1,-22,-15,-16,-11,-9
-3,-3,0,3,-2,-2,0,-23,-15,-16,-11,-9
-3,-3,0,3,-2,-2,1,-22,-14,-16,-11,-9
-3,-3,0,4,-2,-2,2,-22,-14,-15,-11,-9
-3,-3,0,4,-2,-2,2,-21,-14,-15,-11,-9
-3,-3,0,4,-2,-2,2,-21,-14,-15,-11,-9
-3,-3,0,4,-1,-2,1,-21,-13,-15,-11,-9
-2,-3,-1,3,-1,-2,1,-20,-13,-14,-11,-8
-2,-3,-1,3,-1,-3,1,-20,-12,-14,-10,-8
-3,-3,-1,4,-1,-3,2,-19,-11,-13,-9,-7
-3,-3,-1,4,-1,-3,2,-18,-10,-12,-9,-7
-3,-2,0,3,-2,-2,2,-18,-9,-12,-9,-7
-3,-2,0,3,-2,-2,1,-19,-9,-12,-10,-7
-3,-3,-2,3,-1,-3,1,-19,-9,-12,-9,-7
-3,-3,-2,4,-1,-3,2,-19,-8,-11,-8,-6
-4,-3,0,4,-2,-2,2,-18,-7,-10,-8,-5
-3,-3,-1,4,-1,-2,2,-18,-6,-9,-7,-5
-2,-4,-3,4,0,-4,2,-17,-6,-8,-6,-5
-2,-5,-4,4,0,-4,2,-18,-6,-9,-6,-5
-2,-4,-3,3,0,-3,1,-18,-6,-9,-6,-6
-2,-3,-1,3,-1,-2,1,-19,-6,-9,-6,-6
-3,-4,-2,4,-1,-3,1,-18,-5,-8,-6,-6
-2,-6,-4,5,0,-5,2,-17,-4,-7,-5,-5
-2,-5,-4,4,0,-5,2,-17,-4,-8,-6,-5
-1,-3,-2,3,0,-3,0,-19,-5,-9,-7,-6
0,-3,-2,2,1,-3,0,-21,-6,-10,-7,-6
-1,-4,-4,3,1,-5,0,-20,-6,-9,-7,-6
-1,-5,-4,3,1,-5,2,-19,-5,-8,-6,-5
-2,-4,-3,3,0,-4,1,-18,-5,-7,-6,-4
-2,-3,0,3,-2,-2,0,-19,-5,-7,-6,-4
-3,-2,1,3,-3,-1,0,-20,-5,-7,-5,-4
-3,-3,1,3,-3,-1,1,-18,-4,-6,-4,-3
-3,-3,0,3,-2,-1,2,-17,-3,-6,-4,-2
-2,-2,1,2,-2,-1,1,-18,-4,-8,-5,-3
-2,-1,1,1,-1,0,1,-20,-5,-8,-5,-4
-2,-1,1,1,-1,0,2,-19,-4,-7,-5,-3
-2,-1,1,2,-2,0,4,-17,-3,-6,-4,-3
-3,-2,1,2,-2,0,4,-18,-3,-6,-3,-2
-3,-1,2,2,-3,0,4,-20,-3,-6,-3,-2
-3,0,3,2,-3,1,5,-20,-3,-6,-3,-1
-3,0,4,2,-4,2,6,-19,-3,-5,-3,-1
-3,1,4,1,-4,2,7,-17,-2,-5,-2,0
-2,3,5,0,-4,3,8,-18,-2,-5,-2,0
-2,4,5,-1,-4,4,9,-18,-2,-5,-3,0
-2,4,6,-1,-5,5,11,-18,-2,-5,-3,0
-1,4,6,-1,-4,5,11,-18,-2,-5,-4,0
0,5,6,-2,-4,5,10,-18,-2,-5,-4,0
0,5,6,-2,-4,5,10,-18,-2,-5,-3,0
-1,6,8,-1,-5,7,10,-17,-2,-5,-3,-1
-2,8,10,-2,-6,9,8,-18,-2,-5,-3,-1
-3,9,12,-2,-7,10,5,-18,-1,-5,-3,-1
-3,9,12,-2,-8,10,3,-17,0,-4,-2,0
-3,8,12,-2,-8,10,1,-17,0,-4,-2,0
-3,8,11,-2,-8,9,0,-18,-1,-5,-2,0
-3,7,10,-2,-7,9,-2,-20,-2,-5,-2,0
-3,7,10,-2,-7,9,-3,-21,-2,-5,-2,0
-3,8,10,-2,-7,9,-4,-20,-2,-5,-2,1
-3,8,10,-2,-7,8,-5,-20,-2,-5,-3,1
-2,6,9,-2,-6,7,-8,-22,-3,-5,-3,1
-2,5,7,-1,-5,6,-9,-23,-3,-6,-2,1
-1,6,8,-2,-5,7,-10,-23,-3,-6,-2,2
-1,8,10,-3,-6,9,-10,-23,-3,-7,-3,1
-2,9,12,-3,-7,10,-10,-24,-4,-7,-3,1
-2,9,12,-3,-7,10,-10,-25,-5,-7,-3,1
-3,10,13,-3,-8,11,-11,-26,-6,-8,-3,1
-3,10,13,-3,-8,12,-11,-26,-6,-8,-4,0
-3,9,13,-3,-8,11,-12,-26,-6,-8,-5,0
-3,8,11,-2,-7,9,-13,-27,-7,-9,-5,0
-2,8,10,-3,-7,9,-14,-28,-7,-10,-5,1
-2,9,10,-4,-7,9,-15,-28,-7,-10,-5,1
0,10,10,-5,-6,9,-16,-27,-7,-10,-5,2
1,9,7,-5,-4,8,-16,-26,-7,-9,-4,2
2,7,5,-4,-2,7,-16,-26,-7,-9,-4,2
3,7,4,-5,-1,6,-16,-26,-7,-10,-5,2
4,7,4,-5,0,5,-15,-25,-6,-10,-5,2
4,6,2,-5,1,4,-14,-25,-6,-10,-5,2
4,5,1,-5,1,2,-15,-25,-6,-10,-4,2
4,4,0,-4,1,1,-15,-25,-6,-10,-4,2
3,3,0,-3,1,1,-14,-24,-6,-11,-4,3
2,2,0,-2,0,0,-13,-23,-6,-11,-4,3
1,1,0,-1,0,0,-11,-22,-6,-10,-4,3
0,1,0,0,0,0,-9,-20,-5,-10,-4,3
0,1,1,0,0,0,-9,-20,-5,-10,-5,3
-1,0,1,0,-1,0,-9,-20,-6,-11,-5,2
-2,0,2,1,-2,0,-8,-20,-6,-11,-6,1
-3,0,3,1,-3,0,-7,-18,-6,-11,-6,0
-3,-2,1,2,-3,-1,-5,-16,-6,-10,-7,0
-4,-4,0,4,-2,-3,-5,-16,-6,-11,-8,-2
-4,-6,-1,5,-2,-4,-5,-16,-7,-12,-9,-3
-5,-7,-2,6,-2,-5,-5,-16,-6,-12,-9,-4
-7,-7,-1,7,-3,-5,-4,-15,-5,-12,-9,-3
-8,-6,0,7,-4,-3,-3,-13,-5,-12,-9,-3
-8,-5,2,7,-6,-2,-2,-11,-5,-12,-9,-3
-9,-5,3,7,-6,-1,-3,-12,-7,-12,-9,-4
-9,-6,3,7,-6,-1,-4,-14,-8,-12,-9,-4
-9,-6,3,8,-6,-2,-4,-14,-9,-12,-9,-4
-9,-7,2,8,-6,-2,-2,-12,-8,-11,-9,-3
-9,-8,2,9,-6,-3,-1,-10,-8,-11,-9,-3
-8,-7,2,8,-5,-2,-1,-10,-8,-12,-9,-3
-8,-5,3,7,-6,-1,-3,-12,-9,-13,-10,-4
-9,-5,3,8,-6,-1,-4,-13,-9,-13,-10,-3
-9,-7,2,9,-6,-2,-3,-12,-7,-12,-9,-2
-9,-8,0,9,-5,-4,-1,-9,-6,-10,-8,-1
-8,-10,-2,9,-3,-6,0,-8,-5,-9,-8,-1
-8,-11,-3,9,-3,-7,-1,-9,-5,-9,-7,-1
-9,-10,-1,9,-4,-6,-1,-9,-5,-9,-8,-1
-10,-10,0,10,-5,-5,0,-8,-4,-9,-8,-2
-11,-11,-1,11,-5,-6,1,-6,-3,-9,-8,-2
-12,-12,0,12,-6,-6,2,-4,-2,-9,-9,-3
-12,-11,1,12,-7,-5,3,-1,0,-8,-10,-4
-12,-9,2,11,-8,-4,5,3,4,-7,-10,-5
-11,-8,3,10,-8,-3,8,10,11,-3,-10,-6
-10,-8,2,10,-7,-3,12,20,22,2,-7,-6
-9,-8,1,9,-6,-4,18,33,35,11,-2,-4
-9,-7,1,9,-5,-3,25,47,47,22,6,1
-8,-5,2,7,-5,-2,30,55,56,32,15,7
-6,-2,2,4,-4,0,30,54,58,38,23,13
-3,0,2,1,-2,1,28,46,54,43,34,21
1,3,1,-2,0,2,26,36,47,47,48,34
7,7,0,-7,3,3,24,27,41,53,65,50
13,12,0,-13,7,5,19,19,36,59,85,68
21,20,-1,-20,10,9,14,12,33,65,105,87
30,30,-1,-29,15,14,5,0,28,69,125,107
42,41,-2,-41,22,19,-13,-17,20,71,145,128
55,51,-5,-52,30,23,-39,-37,13,75,168,153
68,61,-8,-64,38,26,-71,-56,7,79,190,178
82,68,-13,-75,47,27,-107,-73,3,81,207,199
94,74,-20,-84,57,26,-141,-86,0,80,217,216
103,79,-24,-91,63,27,-171,-98,-6,77,218,224
106,82,-24,-95,65,29,-193,-109,-18,70,210,224
106,79,-27,-92,66,26,-206,-120,-32,57,192,214
101,64,-38,-82,69,13,-208,-130,-48,38,164,193
89,42,-48,-65,68,-2,-201,-138,-63,16,127,159
72,23,-49,-47,60,-13,-184,-142,-77,-6,83,117
53,8,-46,-30,49,-19,-160,-138,-85,-27,40,75
36,-3,-39,-16,37,-22,-133,-128,-88,-44,5,41
21,-9,-29,-6,25,-20,-105,-112,-85,-56,-20,18
9,-9,-19,0,14,-15,-78,-91,-75,-58,-32,5
2,-8,-10,3,6,-9,-56,-69,-59,-52,-35,0
-3,-7,-4,5,0,-6,-40,-51,-44,-43,-33,-2
-6,-7,-2,7,-2,-5,-29,-38,-31,-35,-30,-3
-8,-8,-1,8,-3,-5,-20,-28,-19,-28,-26,-3
-9,-8,0,9,-4,-5,-12,-18,-9,-22,-22,-3
-9,-9,0,9,-5,-5,-6,-10,-2,-17,-20,-2
-9,-9,0,9,-5,-5,-2,-4,2,-14,-18,-2
-10,-9,1,9,-5,-4,2,0,7,-10,-17,-2
-11,-10,1,11,-6,-5,5,5,11,-7,-14,-1
-12,-12,0,12,-7,-6,8,9,13,-5,-12,-1
-12,-12,0,13,-6,-6,9,11,15,-4,-12,0
-12,-11,0,12,-7,-6,14,18,17,-2,-11,1
-12,-9,2,11,-8,-4,18,24,19,0,-10,3
-12,-8,3,11,-8,-3,13,19,17,-2,-12,1
-13,-8,4,11,-9,-3,6,11,15,-4,-13,-1
-14,-9,5,12,-9,-3,8,12,17,-2,-11,0
-13,-8,5,11,-9,-2,14,18,20,0,-9,2
-12,-6,6,10,-9,-1,15,21,21,1,-10,2
-12,-6,6,10,-9,-1,12,20,19,0,-11,0
-13,-7,5,10,-10,-1,11,19,19,-2,-12,0
-13,-8,4,11,-9,-2,11,20,20,-2,-12,0
-12,-8,3,10,-7,-3,12,21,21,-1,-11,1
-11,-8,3,10,-7,-3,13,22,22,0,-10,2
-12,-8,4,9,-8,-2,13,23,23,2,-9,2
-12,-7,5,9,-9,-2,14,25,23,3,-8,3
-12,-8,4,9,-8,-2,15,27,24,3,-8,3
-12,-8,3,9,-8,-3,14,27,24,2,-8,3
-12,-8,3,10,-8,-3,11,25,23,1,-9,3
-12,-8,4,10,-9,-3,9,23,23,0,-9,3
-13,-8,4,11,-9,-3,8,23,23,0,-9,3
-13,-8,5,11,-9,-3,8,23,24,0,-8,4
-13,-7,5,11,-9,-2,8,24,25,1,-8,5
-12,-7,5,10,-8,-1,8,25,26,2,-8,5
-12,-6,5,9,-8,-1,8,26,26,1,-8,5
-12,-6,5,9,-8,-1,7,26,27,0,-10,4
-11,-6,5,8,-8,-1,7,26,27,0,-10,4
-11,-7,3,9,-7,-2,7,27,28,1,-9,5
-12,-10,2,11,-7,-5,6,27,29,2,-7,6
-12,-10,2,11,-8,-5,5,27,30,3,-7,7
-12,-9,4,11,-8,-3,5,28,30,3,-7,8
-12,-8,4,10,-8,-2,5,30,31,3,-7,8
-12,-7,4,10,-8,-1,5,32,31,3,-7,8
-12,-7,4,10,-8,-1,3,31,30,3,-8,8
-13,-7,4,10,-8,-1,1,30,30,3,-7,7
-13,-6,5,10,-9,-1,0,29,31,5,-6,7
-14,-7,6,11,-10,-1,0,29,31,5,-5,7
-14,-8,5,11,-10,-2,0,30,32,4,-6,8
-14,-8,6,11,-10,-2,0,32,33,3,-7,8
-14,-8,6,10,-10,-2,0,32,33,3,-7,8
-14,-8,5,10,-9,-2,0,32,34,3,-8,8
-13,-9,3,10,-7,-4,1,34,35,4,-8,9
-11,-10,1,10,-5,-5,2,36,36,4,-8,10
-10,-9,1,10,-5,-4,2,37,36,5,-7,11
-11,-8,3,10,-6,-3,1,36,36,5,-6,12
-11,-7,5,9,-8,-2,1,36,36,6,-6,12
-12,-7,5,9,-8,-1,2,37,37,7,-5,13
-12,-8,5,10,-9,-2,3,39,37,7,-5,14
-13,-9,4,11,-9,-3,3,39,38,7,-6,13
-14,-9,4,11,-9,-3,4,41,39,8,-6,13
-14,-8,4,11,-9,-3,6,44,40,9,-6,13
-14,-8,5,11,-9,-3,6,43,40,9,-6,13
-13,-7,5,10,-9,-3,5,42,40,9,-5,13
-12,-7,5,10,-9,-2,5,42,41,10,-5,13
-13,-6,6,9,-10,0,6,44,42,10,-4,14
-13,-7,7,10,-10,0,6,45,43,11,-5,14
-13,-8,6,10,-9,-1,7,47,44,11,-5,14
-13,-7,6,9,-9,-1,9,49,45,12,-6,15
-13,-6,6,9,-9,0,10,52,46,13,-6,16
-13,-6,6,10,-9,0,11,53,47,14,-5,17
-12,-6,5,10,-8,-1,12,55,48,16,-5,18
-11,-6,5,9,-8,-1,11,56,49,16,-5,18
-11,-7,4,9,-8,-2,11,56,50,15,-5,17
-12,-7,4,9,-8,-2,11,58,51,16,-5,17
-12,-6,5,9,-8,-1,13,62,53,17,-4,17
-12,-5,6,8,-9,0,13,65,54,18,-4,16
-11,-5,6,8,-9,0,13,66,55,19,-3,16
-12,-5,6,8,-9,0,14,69,58,20,-3,16
-12,-6,6,9,-9,0,15,73,62,21,-2,17
-13,-6,6,10,-10,-1,15,75,64,22,-2,18
-13,-7,5,10,-9,-1,14,76,65,23,-3,18
-12,-8,5,10,-9,-2,14,78,66,24,-2,18
-12,-8,4,10,-8,-2,15,82,68,26,-1,19
-13,-9,4,11,-8,-2,17,86,72,29,0,19
-14,-9,5,11,-8,-2,18,91,77,31,1,19
-13,-8,5,10,-8,-2,18,95,81,34,3,19
-13,-7,6,10,-9,-1,18,99,84,36,4,20
-13,-6,6,9,-9,-1,18,102,86,35,4,20
-12,-4,6,8,-9,0,17,104,88,35,3,19
-11,-3,8,7,-9,1,15,105,90,36,3,18
-10,-2,9,6,-9,2,16,109,93,39,5,19
-10,-2,9,6,-9,2,18,114,97,42,8,20
-10,-2,9,6,-9,3,18,118,101,43,9,20
-10,0,9,5,-10,4,19,122,104,44,10,21
-10,0,9,5,-9,4,20,126,108,46,11,21
-10,0,8,5,-9,3,20,129,111,48,12,21
-10,-1,8,6,-9,2,19,131,114,49,14,22
-10,-1,9,6,-9,2,20,134,117,51,15,23
-10,0,10,5,-9,4,21,137,119,52,17,23
-10,0,11,4,-10,5,21,138,121,54,19,24
-10,1,12,4,-10,6,23,140,123,55,20,24
-10,1,12,4,-10,6,25,143,124,56,20,25
-11,1,11,5,-10,5,24,143,125,56,19,24
-10,1,11,4,-9,5,22,142,124,56,20,24
-8,2,10,3,-9,5,21,141,125,58,21,24
-8,2,11,3,-9,6,21,141,125,59,23,25
-8,3,12,3,-10,7,22,140,125,60,24,26
-8,3,12,3,-10,7,23,140,125,61,25,28
-7,2,11,2,-9,6,23,141,125,62,26,29
-6,2,9,2,-7,5,22,138,123,62,27,29
-6,2,8,1,-6,5,19,133,120,61,27,29
-5,2,8,1,-6,5,19,130,118,60,28,30
-5,3,9,1,-6,6,19,128,115,59,27,31
-4,4,10,0,-7,7,18,124,111,57,27,32
-4,4,10,0,-7,6,16,119,107,55,26,32
-5,4,10,0,-7,6,16,115,102,52,24,32
-5,5,11,0,-8,7,17,112,98,50,23,32
-5,5,11,0,-8,7,17,108,94,49,23,32
-5,5,11,0,-8,7,17,103,90,48,23,33
-6,5,12,0,-9,8,17,99,85,47,23,34
-6,4,11,0,-8,7,16,94,80,44,22,34
-6,4,10,0,-7,6,14,88,74,39,19,33
-4,5,10,0,-6,6,12,82,68,35,16,32
-4,4,9,0,-6,6,11,76,62,32,15,32
-4,2,7,1,-5,4,10,72,57,30,14,32
-5,1,7,2,-5,3,10,69,53,29,14,32
-6,1,8,2,-6,4,11,65,50,28,14,33
-7,2,9,3,-7,4,10,61,46,26,13,33
-7,1,7,3,-6,3,10,57,42,23,12,32
-6,0,5,3,-5,1,10,53,38,20,10,32
-6,-1,5,3,-5,0,10,49,33,16,8,31
-6,-1,5,3,-5,1,9,45,29,14,7,31
-6,-1,5,3,-5,1,9,43,26,12,6,32
-6,0,5,3,-4,1,10,41,24,10,6,31
-5,0,4,3,-4,1,8,38,21,9,4,29
-5,-1,4,3,-4,0,7,35,18,7,2,28
-6,-1,4,3,-4,0,7,33,16,6,0,28
-7,-2,4,4,-4,0,8,32,15,5,0,29
-7,-3,2,4,-3,-1,8,31,13,4,0,30
-6,-4,1,4,-3,-2,8,29,11,2,-1,29
-6,-4,2,4,-3,-2,8,26,8,0,-2,28
-6,-4,2,4,-3,-1,7,24,6,0,-3,26
-6,-4,2,4,-4,-1,7,22,5,-1,-4,25
-6,-4,2,5,-4,-2,8,23,4,-2,-5,26
-7,-5,1,5,-4,-2,9,23,4,-2,-5,26
-7,-4,2,5,-4,-2,8,21,2,-2,-5,26
-6,-3,2,4,-4,-1,7,19,1,-2,-5,27
-7,-3,2,4,-4,-1,7,18,0,-3,-5,27
-8,-4,3,5,-4,-1,7,16,0,-4,-6,27
-8,-4,3,5,-4,0,8,16,-1,-4,-7,27
-7,-4,3,5,-4,0,9,17,0,-4,-7,26
-7,-4,3,6,-4,0,8,17,-1,-4,-8,25
-8,-4,3,6,-4,-1,8,17,-2,-5,-8,25
-8,-5,2,7,-4,-2,8,17,-2,-6,-8,25
-8,-6,1,7,-4,-2,8,16,-3,-7,-8,25
-8,-5,1,7,-4,-2,7,15,-3,-8,-9,25
-9,-5,2,7,-5,-2,7,14,-4,-8,-8,25
-9,-6,2,7,-5,-2,8,14,-4,-7,-7,25
-8,-6,1,7,-4,-2,9,15,-4,-8,-7,25
-9,-7,1,7,-5,-2,8,14,-4,-9,-9,24
-10,-8,1,8,-5,-3,8,13,-4,-9,-10,23
-9,-9,0,9,-4,-4,10,14,-4,-7,-10,22
-8,-9,-2,8,-2,-6,9,13,-5,-7,-10,22
-7,-9,-2,7,-2,-6,8,10,-6,-8,-10,21
-7,-8,0,7,-3,-4,9,10,-6,-7,-9,22
-7,-7,1,7,-4,-3,10,12,-5,-8,-9,23
-8,-7,1,7,-4,-3,11,12,-5,-9,-10,23
-7,-7,0,7,-4,-3,11,13,-5,-9,-9,23
-7,-7,0,7,-4,-3,12,15,-5,-9,-9,23
-8,-8,0,7,-4,-4,10,13,-5,-10,-10,22
-9,-8,1,8,-5,-4,9,11,-6,-11,-11,20
-9,-6,3,7,-6,-2,11,13,-5,-11,-12,20
-8,-5,3,6,-5,-1,13,15,-4,-10,-12,20
-8,-5,2,6,-4,-2,12,14,-4,-11,-12,19
-8,-5,3,6,-5,-1,11,13,-4,-11,-12,18
-8,-5,3,6,-5,0,12,13,-4,-10,-11,18
-7,-5,2,5,-4,-1,13,14,-4,-9,-10,19
-6,-5,1,5,-3,-2,13,15,-3,-8,-10,19
-8,-5,2,5,-5,-1,14,15,-3,-8,-10,18
-10,-5,4,6,-6,0,14,15,-2,-8,-11,18
-11,-6,4,7,-6,-1,15,16,-1,-8,-10,18
-11,-6,4,7,-6,-1,16,17,-1,-7,-10,18
-10,-6,4,7,-6,-1,15,17,-1,-7,-10,18
-10,-6,4,7,-6,0,14,16,-1,-8,-11,18
-10,-7,3,7,-6,-1,14,16,-1,-8,-11,19
-9,-7,2,7,-5,-2,15,17,0,-7,-11,19
-9,-6,2,7,-5,-2,15,18,0,-6,-10,19
-9,-4,4,6,-6,0,14,17,0,-5,-10,18
-9,-4,4,6,-6,0,14,17,0,-6,-10,18
-9,-4,4,6,-6,0,14,16,0,-7,-10,17
-9,-4,5,6,-6,0,14,17,0,-6,-10,16
-9,-5,4,7,-6,0,15,19,1,-4,-9,16
-9,-6,3,7,-6,-1,14,18,1,-4,-9,15
-9,-6,3,7,-6,-1,13,17,0,-4,-9,14
-10,-6,4,7,-7,-1,14,17,1,-4,-9,15
-10,-6,4,7,-7,-1,15,18,2,-4,-9,16
-9,-6,3,7,-6,-1,15,19,3,-4,-9,17
-8,-5,3,6,-5,-1,14,18,4,-4,-8,17
-8,-6,2,6,-4,-1,15,19,4,-3,-7,17
-8,-8,0,7,-3,-3,17,21,5,-2,-6,18
-8,-9,-1,8,-2,-5,17,21,5,-2,-6,19
-7,-8,-1,7,-3,-5,16,21,5,-2,-6,18
-8,-6,2,6,-5,-2,15,20,5,-1,-7,17
-8,-4,4,6,-6,0,15,20,5,-1,-7,17
-8,-4,4,6,-6,0,16,20,4,-2,-7,17
-8,-4,4,6,-6,0,16,20,4,-3,-8,16
-8,-4,4,5,-6,0,15,19,3,-3,-8,16
-8,-4,3,5,-5,-1,15,19,3,-2,-6,17
-8,-5,2,6,-5,-1,15,19,3,-1,-5,17
-8,-6,2,6,-5,-2,15,19,3,-2,-5,17
-8,-6,1,6,-5,-2,15,18,2,-2,-5,17
-7,-6,1,6,-4,-2,15,18,2,-2,-4,17
-8,-5,2,6,-5,-1,16,17,2,-2,-4,17
-8,-5,3,6,-5,0,15,16,1,-3,-5,16
-8,-4,4,6,-6,0,15,16,0,-4,-6,16
-8,-3,4,5,-6,1,16,17,0,-4,-7,17
-8,-3,4,5,-6,0,17,19,1,-4,-6,17
-8,-4,3,6,-6,0,17,18,0,-4,-6,17
-8,-3,4,5,-6,1,17,17,0,-4,-6,17
-7,-1,5,4,-5,2,19,18,0,-4,-5,17
-5,-1,4,3,-4,1,18,16,-1,-3,-4,17
-6,-2,4,3,-4,1,18,15,-1,-4,-4,17
-7,-2,5,4,-5,2,23,20,1,-2,-3,19
-7,-1,6,4,-6,3,26,22,2,0,-1,19
-8,-1,6,4,-7,2,23,18,0,-1,-1,18
-8,-2,5,5,-7,2,23,16,-1,-3,-2,16
-9,-2,7,5,-8,2,27,17,-1,-5,-3,16
-10,-1,9,5,-10,4,29,18,-1,-5,-2,17
-10,0,10,4,-10,5,29,19,-1,-4,-1,17
-9,0,9,4,-8,4,28,18,-2,-3,0,18
-8,0,8,4,-8,3,25,15,-3,-4,0,17
-8,0,8,4,-8,4,23,14,-3,-4,0,17
-9,1,9,3,-9,5,24,15,-3,-2,0,17
-8,2,10,3,-10,6,23,17,-2,-2,0,17
-8,4,11,2,-10,7,20,16,-3,-3,0,16
-7,5,12,1,-10,8,17,14,-4,-5,-1,15
-7,6,13,0,-10,9,16,13,-4,-5,-2,15
-7,6,13,0,-10,9,16,13,-4,-5,-2,16
-6,5,12,0,-9,8,15,13,-4,-4,-1,16
-6,4,10,0,-8,6,14,12,-5,-4,-1,16
-6,3,9,1,-7,5,12,10,-6,-5,-1,15
-6,3,8,1,-7,5,11,10,-7,-4,0,15
-5,2,7,1,-7,4,11,9,-8,-4,0,15
-4,3,7,0,-6,5,11,8,-9,-6,-1,15
-4,4,8,-1,-6,6,11,7,-10,-7,-1,15
-5,5,11,-1,-8,8,10,6,-11,-8,-1,15
-6,6,13,-1,-9,9,9,5,-12,-8,-2,15
-5,6,12,-1,-8,8,9,3,-13,-8,-3,14
-3,6,9,-2,-5,7,7,2,-15,-10,-4,13
0,8,7,-4,-3,7,4,0,-17,-12,-6,11
3,8,5,-6,-1,7,2,-1,-18,-13,-6,10
4,8,4,-6,0,6,3,0,-18,-13,-5,11
4,7,3,-6,0,5,4,2,-17,-12,-5,11
5,6,1,-6,2,4,2,0,-18,-13,-6,10
7,5,-1,-7,5,2,0,-2,-19,-14,-7,10
8,5,-3,-7,6,1,1,-2,-19,-14,-6,10
8,4,-4,-7,6,0,3,-1,-18,-12,-5,11
8,3,-5,-6,7,-1,5,0,-17,-11,-5,11
8,3,-6,-6,7,-1,6,0,-18,-12,-5,11
9,3,-6,-7,7,-1,6,0,-19,-13,-6,9
10,3,-6,-7,8,-1,5,-1,-20,-14,-6,8
11,3,-7,-8,9,-2,6,-2,-21,-15,-6,8
11,2,-9,-7,9,-3,8,-1,-20,-14,-6,8
10,0,-10,-5,9,-4,9,-1,-20,-13,-6,8
8,0,-9,-4,8,-4,10,-2,-20,-13,-7,7
6,0,-7,-3,7,-3,11,-2,-20,-13,-8,6
4,-1,-6,-2,5,-3,14,0,-19,-13,-8,6
3,-3,-5,0,4,-4,15,0,-19,-13,-7,6
2,-4,-5,0,3,-4,15,0,-20,-14,-6,5
1,-5,-5,2,3,-5,14,-2,-21,-14,-7,3
0,-6,-6,3,3,-6,15,-1,-21,-14,-8,2
0,-7,-7,3,4,-7,16,-1,-21,-15,-9,1
0,-7,-7,3,4,-7,16,-3,-22,-16,-11,0
0,-7,-7,3,4,-8,16,-3,-22,-16,-11,0
0,-8,-8,4,4,-9,18,-1,-21,-16,-12,0
0,-9,-9,4,4,-10,19,0,-21,-15,-12,0
-1,-10,-9,5,3,-10,19,1,-21,-14,-12,0
-2,-10,-8,6,3,-10,19,0,-21,-13,-10,0
-2,-11,-9,6,3,-10,19,-1,-21,-14,-10,0
-2,-10,-9,6,3,-10,19,-1,-22,-14,-10,0
-2,-9,-9,5,3,-9,18,-2,-22,-14,-10,0
-1,-9,-8,5,3,-8,17,-2,-22,-14,-11,-1
-1,-9,-9,5,4,-9,17,-2,-22,-14,-12,-1
-1,-10,-9,5,4,-9,18,-1,-22,-14,-12,-1
-1,-9,-8,4,4,-9,19,0,-22,-14,-11,-1
-1,-9,-8,4,3,-8,18,-1,-23,-13,-11,-1
-1,-9,-7,4,3,-8,18,-2,-23,-14,-12,-2
-1,-9,-8,5,3,-9,18,-3,-24,-16,-13,-3
-1,-10,-8,5,3,-9,18,-3,-24,-16,-14,-3
-2,-10,-8,6,3,-9,19,-2,-24,-17,-14,-4
-3,-10,-7,6,2,-8,20,-1,-24,-17,-16,-6
-3,-9,-6,6,1,-7,21,0,-22,-17,-17,-7
-2,-9,-7,6,2,-8,23,5,-19,-15,-17,-7
-1,-9,-8,6,3,-9,25,11,-13,-12,-16,-8
0,-8,-8,5,4,-9,29,22,-3,-6,-14,-7
0,-8,-8,5,4,-8,34,36,9,1,-9,-6
0,-7,-8,4,4,-8,40,49,23,11,-1,-3
0,-7,-8,3,4,-8,44,58,33,22,8,2
2,-7,-9,2,6,-8,48,61,39,32,20,8
4,-6,-10,0,7,-8,51,59,40,41,32,17
7,-4,-11,-2,9,-7,49,50,35,47,46,29
12,2,-10,-8,11,-4,44,36,26,53,63,44
18,9,-8,-14,13,0,40,25,20,59,82,62
26,16,-9,-21,17,3,34,15,16,65,103,82
35,22,-13,-29,24,4,25,3,10,68,123,102
46,31,-15,-39,30,8,12,-10,4,71,144,125
57,42,-14,-50,36,14,-7,-27,-2,77,168,151
69,54,-14,-62,42,20,-36,-45,-9,82,192,178
82,64,-17,-74,50,23,-70,-63,-15,83,210,200
94,71,-23,-83,59,23,-106,-79,-21,80,219,217
104,76,-28,-90,66,23,-137,-93,-30,75,219,225
108,80,-28,-94,68,26,-162,-106,-42,68,212,225
108,79,-29,-93,68,25,-179,-120,-57,56,194,216
103,67,-36,-85,69,15,-185,-132,-73,35,165,194
92,46,-45,-70,69,0,-179,-140,-90,12,128,160
76,25,-50,-51,63,-12,-163,-144,-104,-12,84,115
57,8,-49,-33,53,-20,-141,-142,-114,-34,39,68
39,-3,-43,-18,41,-23,-116,-134,-119,-53,1,29
24,-10,-35,-7,29,-23,-90,-121,-119,-67,-27,2
11,-13,-26,0,18,-20,-65,-103,-111,-72,-43,-12
4,-14,-19,5,11,-17,-43,-82,-97,-69,-46,-19
0,-13,-14,6,7,-14,-27,-64,-81,-61,-44,-20
-1,-12,-11,6,4,-11,-14,-49,-66,-53,-39,-20
-1,-11,-10,6,4,-10,-3,-34,-53,-45,-35,-18
-2,-12,-11,6,4,-11,5,-23,-44,-37,-31,-17
-2,-12,-11,7,4,-11,10,-16,-37,-31,-27,-17
-4,-11,-8,7,2,-9,13,-11,-31,-27,-24,-17
-5,-10,-6,7,0,-8,17,-7,-27,-24,-22,-17
-5,-12,-6,8,0,-9,21,-4,-23,-22,-21,-17
-6,-12,-6,9,0,-10,24,-1,-21,-19,-20,-17
-7,-11,-4,9,-2,-8,25,1,-18,-17,-18,-16
-7,-10,-2,8,-2,-6,26,3,-17,-16,-16,-16
-7,-8,-1,7,-3,-4,25,3,-16,-14,-14,-16
-7,-7,0,7,-4,-3,26,4,-15,-14,-15,-16
-7,-8,-1,7,-3,-4,28,6,-15,-13,-16,-15
-6,-8,-3,7,-2,-5,28,6,-14,-12,-16,-15
-5,-10,-5,7,0,-7,29,7,-13,-11,-14,-14
-5,-11,-7,8,1,-9,29,8,-12,-10,-13,-14
-5,-12,-7,8,1,-10,30,8,-12,-11,-12,-14
-5,-12,-6,8,0,-9,30,9,-11,-10,-13,-15
-6,-10,-4,7,-1,-7,30,9,-11,-10,-14,-16
-6,-8,-2,7,-2,-5,30,7,-12,-9,-15,-17
-7,-9,-2,7,-2,-5,29,6,-12,-10,-15,-17
-7,-9,-2,8,-2,-5,29,6,-13,-11,-15,-17
-7,-8,-1,7,-2,-5,29,7,-12,-11,-15,-16
-7,-8,-1,7,-2,-4,29,8,-12,-11,-15,-16
-6,-7,-1,6,-2,-4,30,8,-11,-10,-15,-16
-6,-7,-1,6,-2,-4,30,9,-11,-11,-16,-18
-6,-8,-1,6,-2,-4,29,9,-11,-11,-17,-19
-8,-9,-1,8,-3,-5,29,9,-10,-10,-17,-18
-8,-10,-1,9,-4,-5,30,10,-9,-7,-16,-18
-8,-9,0,8,-4,-5,30,11,-9,-6,-16,-17
-8,-8,0,8,-4,-5,30,12,-9,-6,-17,-18
-8,-8,0,8,-4,-5,29,11,-10,-6,-18,-19
-7,-7,0,7,-4,-4,27,9,-11,-7,-19,-19
-7,-6,0,6,-4,-4,27,8,-11,-7,-20,-20
-7,-7,0,7,-3,-4,26,7,-11,-6,-20,-20
-7,-8,-1,7,-3,-5,26,8,-10,-5,-19,-19
-7,-8,-1,7,-3,-5,26,9,-10,-5,-19,-19
-7,-6,0,7,-4,-3,26,9,-10,-5,-19,-20
-7,-6,1,7,-4,-3,26,9,-9,-3,-17,-19
-8,-7,1,7,-4,-3,26,9,-9,-2,-16,-19
-8,-7,1,8,-4,-3,25,8,-9,-3,-17,-19
-8,-8,0,8,-4,-4,25,8,-9,-4,-18,-20
-8,-7,0,7,-4,-4,26,10,-7,-3,-18,-20
-7,-6,1,6,-4,-3,25,11,-7,-3,-18,-20
-6,-6,0,6,-3,-4,23,9,-9,-4,-19,-22
-6,-6,-1,6,-3,-4,23,9,-9,-4,-20,-22
-6,-6,0,6,-3,-4,24,10,-8,-3,-20,-21
-6,-6,0,6,-4,-3,24,10,-7,-3,-20,-20
-6,-6,0,6,-4,-3,24,11,-7,-2,-20,-20
-6,-7,0,7,-3,-4,24,11,-6,-1,-19,-20
-7,-7,0,7,-4,-4,24,11,-6,0,-18,-21
-8,-7,0,7,-5,-3,23,11,-6,0,-17,-22
-8,-8,0,7,-5,-3,23,11,-5,0,-17,-22
-8,-8,1,7,-5,-3,24,12,-5,0,-17,-22
-8,-8,1,7,-5,-3,24,13,-4,1,-18,-22
-7,-8,0,7,-4,-3,24,14,-3,2,-17,-23
-7,-7,1,6,-4,-2,24,15,-3,3,-17,-24
-7,-6,2,6,-5,-1,23,15,-3,3,-18,-25
-7,-6,1,6,-5,-2,22,15,-3,2,-17,-25
-7,-7,0,6,-4,-3,22,15,-1,3,-16,-25
-7,-7,0,6,-4,-3,23,17,0,4,-14,-24
-7,-6,0,6,-4,-3,23,17,0,4,-15,-23
-6,-6,0,5,-3,-2,22,17,1,5,-17,-23
-5,-5,0,5,-3,-2,22,17,1,5,-17,-23
-5,-5,0,5,-3,-2,23,18,2,5,-17,-23
-6,-5,1,5,-3,-1,23,19,3,5,-17,-24
-7,-4,2,5,-4,0,22,19,3,5,-17,-25
-7,-3,2,5,-5,0,21,19,4,5,-17,-26
-7,-4,1,5,-4,-1,22,21,7,7,-16,-25
-7,-6,0,6,-4,-3,23,23,9,10,-14,-24
-7,-7,0,7,-4,-4,24,25,11,11,-14,-24
-8,-7,0,7,-4,-3,23,25,12,12,-13,-24
-8,-7,0,8,-5,-3,24,27,14,12,-13,-24
-8,-8,0,8,-5,-3,25,29,16,12,-13,-23
-6,-8,-1,7,-3,-4,24,30,18,11,-14,-24
-5,-7,-1,6,-2,-4,23,31,19,11,-14,-25
-5,-5,0,5,-3,-3,24,34,22,13,-13,-25
-6,-4,1,5,-4,-2,24,36,25,15,-12,-26
-6,-4,2,5,-4,-1,24,38,27,16,-11,-26
-6,-3,2,5,-5,-1,24,40,30,18,-10,-26
-6,-3,3,4,-5,0,24,42,33,20,-8,-26
-6,-3,2,4,-5,0,25,46,36,23,-7,-26
-6,-4,1,4,-4,-1,26,50,41,26,-4,-25
-6,-5,0,4,-3,-2,28,54,45,28,-3,-23
-6,-5,1,4,-3,-2,28,57,48,29,-3,-23
-6,-4,2,4,-4,-1,28,59,51,29,-4,-23
-5,-3,2,4,-4,-1,29,62,55,31,-4,-24
-5,-3,1,4,-3,-1,30,66,58,33,-3,-24
-4,-2,2,3,-3,0,30,69,61,34,-2,-24
-4,-1,2,2,-3,0,30,72,65,36,-1,-24
-4,-1,2,2,-3,0,30,76,69,40,1,-24
-4,-1,2,2,-3,0,30,79,74,44,4,-23
-4,0,3,2,-3,1,30,81,78,47,6,-23
-4,1,5,1,-4,3,31,83,81,50,8,-22
-4,2,6,1,-5,4,33,88,85,53,10,-20
-3,2,5,0,-4,4,34,92,87,55,12,-19
-2,2,5,0,-4,4,32,91,88,55,13,-20
-2,3,5,-1,-3,4,30,90,89,56,14,-20
-1,3,4,-1,-3,4,30,91,91,59,16,-19
-1,3,4,-1,-3,4,31,94,93,60,17,-18
-2,3,4,-1,-3,4,30,94,94,59,16,-18
-1,3,3,-1,-3,3,30,95,95,60,17,-17
-1,3,4,-1,-3,4,30,95,95,60,18,-16
-1,4,5,-1,-3,5,29,94,94,60,18,-16
-1,4,6,-1,-4,5,28,92,93,60,20,-15
-1,4,5,-1,-3,5,27,91,92,61,21,-13
-1,4,5,-2,-3,5,26,89,91,60,21,-13
0,5,5,-3,-3,5,24,87,89,60,21,-13
0,6,5,-4,-3,6,23,85,87,60,21,-13
1,7,5,-5,-2,6,22,83,84,59,21,-13
2,8,6,-6,-2,7,20,80,81,58,21,-13
3,9,6,-6,-1,7,19,76,77,56,21,-12
3,9,5,-6,-1,7,18,72,73,54,20,-11
3,8,5,-6,-1,7,16,67,68,51,19,-11
3,8,5,-6,-1,7,14,61,63,48,18,-10
2,8,6,-6,-2,7,14,57,58,45,17,-9
1,8,6,-6,-2,7,13,52,53,43,16,-9
1,8,7,-5,-3,7,12,47,47,41,15,-8
0,8,7,-4,-3,8,10,42,42,39,15,-8
0,7,7,-4,-3,7,10,38,36,35,13,-8
0,7,6,-4,-3,7,10,34,31,31,10,-8
0,7,6,-4,-3,7,10,30,26,28,8,-8
0,7,6,-4,-3,7,8,25,21,24,6,-9
0,7,5,-4,-3,6,6,19,16,20,4,-10
1,7,4,-5,-2,6,4,14,11,16,2,-11
2,7,3,-5,-1,6,4,11,8,13,0,-11
2,5,2,-4,0,4,4,9,5,11,0,-12
2,4,1,-4,0,3,3,6,1,9,-2,-13
2,5,1,-4,0,3,2,3,-2,7,-4,-14
3,5,1,-4,0,3,1,0,-5,5,-5,-15
2,5,1,-4,0,3,0,-3,-9,2,-7,-16
1,5,2,-3,-1,4,0,-6,-12,0,-8,-16
1,5,2,-3,0,4,0,-8,-14,-1,-9,-17
1,3,1,-2,0,3,0,-9,-15,-1,-9,-17
0,2,0,-1,0,2,0,-10,-17,-2,-10,-16
0,2,1,-1,0,2,0,-10,-18,-4,-11,-16
0,2,1,-2,0,2,0,-11,-20,-5,-11,-16
1,3,1,-2,0,2,-1,-14,-22,-5,-11,-17
1,3,0,-3,0,2,-2,-15,-24,-6,-12,-17
1,3,0,-2,0,2,-2,-15,-26,-9,-13,-17
0,1,-1,0,0,0,-2,-15,-27,-10,-14,-18
0,-1,-2,0,0,-1,-2,-17,-27,-11,-15,-19
0,0,-1,0,0,0,-3,-19,-28,-11,-16,-20
0,0,0,0,0,0,-3,-20,-29,-13,-17,-21
0,1,0,-1,0,0,-3,-21,-30,-14,-18,-21
0,2,0,-1,0,0,-3,-22,-31,-15,-19,-21
0,2,0,-1,0,1,-4,-23,-32,-16,-19,-21
0,1,0,-1,0,0,-4,-23,-33,-16,-19,-20
0,0,-1,0,0,0,-2,-22,-32,-16,-19,-20
0,0,0,-1,0,0,-2,-22,-33,-16,-20,-21
0,0,-1,-1,1,0,-3,-24,-34,-17,-20,-22
0,0,-1,-1,1,-1,-4,-25,-34,-17,-20,-23
0,0,-1,-1,1,0,-3,-25,-34,-16,-20,-23
0,1,0,-1,0,0,-2,-23,-33,-16,-20,-23
-1,1,1,0,-1,0,-1,-22,-33,-14,-20,-23
-1,0,0,0,-1,0,-2,-22,-33,-13,-19,-23
-1,0,0,0,-1,0,-3,-25,-34,-15,-20,-24
-1,0,0,0,0,0,-4,-26,-35,-16,-22,-24
-1,0,0,0,0,0,-2,-24,-34,-17,-22,-24
-1,0,-1,0,0,0,-1,-23,-33,-18,-21,-23
-1,-1,-1,0,0,-1,-2,-24,-34,-18,-21,-24
-1,-1,-1,0,0,-1,-2,-25,-34,-19,-21,-24
0,-1,-1,0,0,-2,-2,-25,-34,-19,-21,-24
0,-1,-2,0,1,-2,-2,-25,-34,-20,-22,-24
0,-1,-2,0,1,-1,-3,-25,-34,-19,-22,-25
0,0,-1,0,0,-1,-3,-26,-34,-19,-23,-25
-1,0,0,0,0,0,-3,-25,-33,-20,-23,-25
-1,0,0,0,-1,0,-4,-25,-33,-21,-23,-26
-1,0,0,0,-1,0,-4,-25,-33,-21,-23,-26
-2,0,1,0,-2,0,-3,-24,-32,-21,-23,-26
-1,0,1,0,-2,0,-3,-23,-31,-21,-23,-26
-1,0,0,0,-1,0,-3,-23,-31,-20,-23,-26
-2,-1,-1,1,-1,-1,-2,-23,-30,-20,-22,-26
-2,-2,-1,1,-1,-2,-1,-22,-30,-20,-22,-26
-2,-1,-1,1,-1,-1,-2,-23,-30,-20,-23,-27
-2,0,0,1,-1,0,-3,-23,-30,-20,-23,-27
-2,0,0,0,-1,0,-3,-23,-29,-20,-23,-27
-1,0,0,0,-1,0,-2,-22,-29,-20,-23,-27
-1,0,0,0,-1,0,-2,-20,-28,-21,-23,-27
0,0,0,0,0,-1,-2,-19,-28,-20,-23,-26
0,-1,-2,0,0,-2,-3,-20,-27,-20,-23,-26
0,-2,-2,0,0,-2,-3,-20,-27,-19,-23,-26
-1,-1,-1,0,0,-1,-2,-20,-26,-18,-22,-25
-1,-1,0,1,-1,-1,-2,-20,-25,-17,-22,-25
-2,0,1,1,-2,0,-1,-20,-24,-17,-22,-25
-2,0,2,1,-2,0,-1,-19,-24,-16,-22,-26
-2,0,1,1,-2,0,-1,-19,-24,-16,-21,-26
-2,-1,0,1,-1,-2,-2,-19,-24,-16,-21,-26
-2,-1,0,1,-1,-1,-3,-19,-24,-16,-21,-26
-2,0,1,0,-2,0,-3,-18,-23,-16,-21,-25
-1,0,1,0,-1,0,-2,-17,-22,-15,-20,-25
0,1,1,-1,-1,1,-3,-17,-22,-15,-20,-25
0,2,2,-1,-1,2,-3,-17,-22,-15,-19,-25
-1,2,4,-1,-2,3,-3,-17,-21,-14,-18,-25
-1,2,3,-1,-2,2,-3,-18,-21,-14,-18,-24
-1,1,2,-1,-2,1,-3,-18,-20,-14,-18,-24
-1,1,2,-1,-2,1,-2,-16,-20,-14,-18,-24
-1,2,3,-1,-2,2,-1,-15,-19,-14,-18,-24
-1,3,4,-2,-3,4,-2,-14,-19,-14,-18,-24
0,3,3,-2,-2,3,-3,-15,-19,-13,-18,-24
1,2,1,-2,0,2,-4,-15,-19,-13,-18,-23
1,1,0,-2,1,0,-4,-15,-18,-13,-18,-22
1,1,0,-2,1,0,-3,-15,-18,-12,-17,-22
0,1,0,-2,0,0,-3,-16,-18,-13,-17,-22
0,1,1,-1,-1,1,-3,-17,-19,-13,-16,-22
-1,1,2,-1,-1,2,-2,-16,-18,-12,-16,-21
0,2,2,-2,-1,2,-2,-15,-18,-11,-16,-21
0,3,2,-2,-1,3,-3,-15,-18,-12,-16,-22
0,3,2,-2,-1,3,-4,-15,-18,-12,-17,-22
0,3,3,-1,-2,3,-4,-15,-18,-12,-16,-22
-1,3,4,0,-3,4,-3,-14,-17,-12,-15,-21
-2,2,4,0,-3,4,-2,-14,-17,-12,-15,-22
-2,2,4,-1,-3,4,-3,-16,-18,-13,-15,-22
-2,2,5,-1,-3,4,-2,-15,-17,-12,-15,-21
-3,2,5,0,-4,4,0,-13,-17,-12,-15,-20
-2,2,4,0,-4,4,0,-14,-17,-12,-16,-20
-2,2,4,0,-4,4,0,-14,-16,-12,-15,-20
-1,3,4,-1,-3,5,1,-14,-16,-12,-15,-19
0,5,5,-2,-3,6,1,-14,-16,-12,-15,-19
0,6,6,-3,-3,6,1,-14,-17,-13,-15,-20
-1,6,7,-4,-4,7,1,-15,-17,-14,-16,-20
-2,7,9,-4,-6,9,3,-14,-17,-14,-16,-20
-2,7,10,-4,-6,9,4,-14,-17,-13,-15,-20
-2,7,10,-4,-6,9,6,-14,-16,-12,-14,-20
-2,8,11,-4,-6,9,7,-14,-16,-11,-14,-20
-2,8,11,-3,-7,10,8,-14,-16,-12,-14,-20
-2,9,12,-3,-7,10,8,-15,-16,-13,-14,-20
-2,10,13,-4,-7,11,9,-14,-16,-13,-14,-20
-3,11,14,-4,-7,12,9,-13,-16,-13,-14,-19
-3,10,13,-4,-8,12,9,-14,-16,-13,-15,-20
-3,11,13,-5,-7,12,7,-15,-16,-14,-15,-20
-2,12,13,-6,-7,12,5,-15,-16,-13,-15,-20
-2,12,14,-6,-8,13,2,-15,-17,-13,-14,-19
-3,11,15,-5,-9,13,0,-16,-17,-13,-14,-20
-4,11,16,-4,-10,13,-1,-17,-18,-13,-14,-20
-4,12,16,-4,-10,14,-1,-17,-17,-13,-14,-20
-3,13,16,-5,-9,14,-1,-16,-17,-13,-14,-20
-2,14,16,-6,-9,15,-4,-18,-19,-14,-15,-20
-2,14,16,-6,-9,15,-7,-21,-20,-14,-15,-20
-2,14,16,-6,-9,15,-7,-20,-19,-13,-14,-19
-2,13,16,-6,-9,15,-7,-18,-19,-12,-14,-18
-2,13,16,-5,-9,15,-9,-20,-20,-13,-14,-18
-2,13,16,-5,-9,15,-10,-22,-21,-14,-15,-19
-1,13,16,-6,-9,15,-10,-22,-22,-15,-15,-18
-1,12,15,-6,-8,14,-8,-21,-21,-14,-14,-18
-1,12,14,-6,-8,13,-8,-21,-22,-15,-15,-18
-1,12,14,-6,-7,13,-11,-25,-24,-17,-17,-20
-1,12,14,-6,-7,13,-12,-27,-25,-18,-18,-20
-1,13,15,-6,-8,14,-12,-27,-25,-17,-17,-19
-1,14,16,-6,-8,15,-13,-27,-26,-17,-17,-19
0,15,16,-7,-8,15,-14,-27,-27,-18,-17,-19
1,14,13,-7,-6,14,-14,-27,-27,-19,-16,-18
2,14,12,-8,-5,14,-14,-27,-27,-19,-15,-18
2,14,12,-8,-5,14,-13,-27,-27,-19,-16,-18
2,15,13,-9,-5,14,-12,-27,-26,-19,-16,-18
3,15,13,-10,-5,14,-11,-27,-26,-19,-17,-18
4,15,12,-10,-4,13,-11,-27,-26,-19,-18,-18
4,12,9,-9,-2,11,-11,-27,-26,-20,-18,-18
4,10,7,-8,-2,9,-10,-26,-26,-20,-18,-18
4,10,7,-8,-2,9,-10,-25,-26,-20,-18,-18
3,9,7,-7,-2,9,-9,-24,-26,-20,-18,-18
1,8,7,-5,-3,8,-7,-23,-25,-19,-17,-17
1,7,6,-5,-2,7,-5,-23,-25,-19,-16,-16
1,7,7,-5,-3,8,-4,-23,-25,-18,-16,-17
0,6,8,-4,-4,8,-4,-24,-25,-18,-16,-17
-2,4,8,-2,-5,7,-3,-23,-25,-18,-17,-18
-2,3,7,-1,-5,5,-3,-23,-25,-19,-18,-19
-4,1,6,0,-5,4,-2,-22,-26,-20,-18,-20
-5,0,6,2,-6,4,-1,-22,-26,-20,-19,-21
-7,0,7,3,-7,4,-1,-23,-26,-20,-19,-22
-8,0,8,4,-8,4,0,-24,-26,-20,-20,-22
-8,-1,7,4,-8,3,1,-23,-27,-21,-20,-23
-8,-2,7,4,-8,3,2,-23,-27,-21,-20,-23
-8,-2,8,4,-8,3,3,-21,-27,-20,-20,-22
-8,-1,8,4,-9,4,2,-20,-27,-20,-21,-22
-8,-1,8,4,-9,4,1,-21,-27,-20,-21,-22
-9,-2,8,5,-9,4,1,-21,-26,-20,-20,-22
-9,-1,9,5,-10,4,1,-20,-26,-20,-20,-22
-8,-1,9,4,-9,4,1,-21,-27,-21,-21,-22
-8,-1,8,4,-8,3,1,-22,-28,-21,-20,-22
-8,-3,7,5,-7,2,2,-21,-27,-21,-20,-22
-8,-3,6,5,-7,1,2,-21,-27,-20,-20,-22
-8,-3,7,5,-8,2,0,-23,-28,-21,-21,-23
-8,-2,7,5,-8,2,0,-24,-28,-22,-22,-23
-8,-2,7,5,-8,2,2,-22,-27,-21,-21,-22
-10,-2,8,6,-9,2,4,-19,-27,-21,-21,-22
-10,-2,9,6,-10,3,2,-20,-28,-21,-22,-23
-10,-1,9,5,-9,3,1,-21,-28,-22,-22,-23
-9,-2,8,5,-9,3,2,-20,-27,-22,-21,-23
-9,-2,8,5,-9,3,4,-18,-26,-22,-22,-24
-10,-2,9,6,-10,3,5,-15,-24,-22,-24,-25
-11,-2,10,6,-11,4,6,-12,-21,-21,-24,-26
-11,0,11,5,-12,5,10,-5,-15,-17,-23,-27
-11,0,11,5,-12,5,15,6,-4,-11,-20,-25
-10,0,10,5,-10,4,21,19,8,-2,-14,-23
-8,-1,8,4,-8,3,26,30,19,7,-7,-19
-6,0,7,3,-7,3,30,36,27,16,1,-14
-3,1,6,1,-5,4,33,38,32,25,12,-7
-1,4,6,-1,-4,5,34,35,31,32,24,1
1,8,8,-5,-4,8,32,26,24,38,38,14
5,14,9,-10,-2,11,28,16,18,44,55,29
12,20,8,-17,2,14,22,5,12,50,74,47
21,26,6,-24,7,16,16,-4,7,56,95,66
30,34,5,-32,12,19,8,-16,2,60,116,86
39,43,5,-41,17,24,-5,-30,-3,65,139,110
49,54,6,-52,22,30,-28,-47,-9,72,164,136
62,66,5,-64,28,35,-58,-65,-15,77,187,162
75,75,1,-75,36,38,-94,-82,-20,79,205,184
87,81,-5,-84,46,38,-130,-96,-24,79,215,200
98,86,-11,-92,54,38,-161,-109,-31,75,217,210
103,90,-12,-97,58,39,-184,-122,-42,68,210,210
103,88,-14,-96,59,37,-199,-134,-57,55,193,201
98,74,-22,-86,60,26,-204,-145,-73,36,166,179
85,53,-30,-69,58,11,-195,-152,-88,15,129,146
68,32,-34,-50,51,-1,-177,-155,-102,-8,85,102
50,15,-34,-33,41,-9,-154,-152,-112,-31,40,56
33,3,-28,-18,30,-13,-129,-144,-118,-51,1,18
18,-3,-21,-7,19,-12,-102,-130,-119,-66,-26,-7
7,-6,-13,0,10,-10,-76,-111,-112,-72,-42,-20
0,-6,-5,2,3,-6,-56,-93,-100,-71,-47,-27
-3,-4,0,4,-2,-2,-41,-77,-85,-64,-46,-29
-6,-4,4,5,-5,0,-28,-62,-71,-56,-42,-29
-7,-3,6,5,-7,1,-17,-50,-60,-49,-38,-29
-8,-2,7,5,-8,2,-10,-41,-53,-44,-36,-29
-9,-3,6,6,-8,2,-6,-34,-46,-40,-34,-30
-10,-3,6,6,-9,1,-2,-28,-40,-35,-31,-29
-10,-4,6,6,-8,1,2,-23,-36,-31,-28,-27
-10,-5,5,7,-7,0,6,-18,-32,-28,-26,-27
-10,-5,5,7,-8,0,8,-15,-30,-27,-25,-27
-11,-4,8,7,-9,2,8,-13,-29,-26,-24,-27
-12,-3,9,7,-11,3,8,-11,-27,-25,-24,-26
-12,-3,9,8,-11,3,9,-10,-26,-23,-23,-26
-13,-3,9,9,-12,3,9,-10,-26,-23,-22,-26
-13,-3,10,9,-12,3,10,-9,-25,-22,-21,-26
-13,-3,10,8,-12,3,11,-8,-25,-22,-21,-26
-12,-3,10,8,-12,3,11,-8,-25,-22,-22,-25
-12,-4,10,8,-11,2,12,-7,-25,-21,-22,-25
-12,-4,10,8,-11,2,12,-6,-25,-21,-22,-25
-11,-3,10,7,-11,3,12,-7,-26,-21,-22,-25
-11,-2,10,6,-11,4,12,-7,-25,-21,-22,-25
-11,-1,10,6,-11,4,13,-5,-24,-20,-21,-25
-11,-1,9,6,-11,4,13,-5,-24,-19,-21,-25
-11,-1,9,6,-10,4,13,-5,-24,-19,-21,-26
-11,-1,10,6,-11,4,14,-5,-23,-19,-21,-25
-12,-1,10,6,-11,4,15,-4,-23,-18,-21,-25
-12,-2,10,6,-11,4,15,-4,-23,-18,-21,-25
-12,-2,10,7,-11,4,15,-4,-23,-17,-21,-24
-12,-2,10,7,-11,4,15,-4,-22,-17,-21,-24
-12,-3,9,7,-11,3,15,-4,-22,-17,-21,-23
-12,-3,9,8,-11,3,15,-4,-22,-17,-21,-24
-12,-3,9,8,-11,3,13,-5,-22,-17,-20,-24
-12,-2,10,7,-11,3,13,-5,-21,-15,-19,-23
-12,-2,10,7,-11,4,15,-2,-20,-13,-18,-22
-12,-2,10,7,-11,4,16,-1,-20,-13,-18,-22
-12,-3,10,7,-11,4,14,-3,-21,-15,-20,-23
-12,-3,11,7,-11,4,13,-5,-22,-16,-21,-24
-13,-2,11,7,-12,4,14,-4,-21,-16,-20,-24
-13,-2,11,7,-12,4,15,-2,-20,-15,-20,-24
-14,-3,11,8,-12,4,15,-1,-19,-14,-19,-23
-14,-2,11,8,-13,4,14,-2,-19,-14,-20,-23
-13,-2,11,7,-12,4,13,-2,-19,-14,-20,-24
-12,-2,10,7,-11,4,13,-2,-19,-13,-19,-23
-13,-3,10,8,-11,3,14,-1,-19,-13,-19,-23
-13,-3,11,9,-12,4,14,-1,-19,-13,-19,-23
-13,-3,12,8,-13,4,15,0,-19,-12,-19,-23
-13,-2,12,8,-13,4,14,0,-18,-12,-19,-23
-13,-2,12,7,-12,4,13,0,-18,-12,-19,-23
-12,-1,11,7,-11,4,12,-1,-17,-12,-18,-22
-11,-1,11,6,-11,4,13,0,-16,-11,-18,-21
-12,-1,11,6,-12,5,13,1,-16,-11,-18,-21
-13,-1,12,7,-13,5,13,1,-17,-11,-18,-21
-13,-1,12,7,-13,5,13,1,-17,-11,-18,-22
-12,-1,12,6,-12,4,12,1,-18,-12,-19,-23
-13,-1,13,6,-13,5,11,1,-18,-12,-19,-24
-14,0,14,7,-14,6,11,1,-17,-11,-18,-24
-14,0,14,7,-14,6,12,2,-17,-11,-18,-24
-14,0,14,7,-14,6,12,2,-16,-10,-18,-23
-14,0,14,7,-14,6,13,3,-15,-10,-17,-23
-14,-1,13,7,-14,6,13,4,-14,-9,-17,-23
-14,-1,13,8,-14,5,13,4,-13,-9,-17,-23
-13,-2,12,8,-13,4,14,5,-12,-8,-17,-23
-13,-3,11,8,-12,3,15,8,-11,-7,-16,-22
-12,-2,11,8,-12,3,15,9,-11,-8,-17,-23
-13,-2,11,7,-12,4,13,9,-11,-8,-17,-23
-14,-2,12,8,-13,5,13,9,-10,-8,-17,-23
-14,-2,12,8,-13,5,13,10,-9,-8,-17,-23
-13,-1,13,7,-13,5,14,10,-9,-8,-17,-24
-13,0,14,7,-14,6,14,11,-8,-8,-17,-24
-14,0,14,7,-14,6,15,13,-6,-6,-16,-23
-14,-2,11,8,-13,4,16,15,-4,-5,-15,-22
-13,-3,10,8,-11,2,16,17,-3,-4,-15,-23
-13,-1,11,7,-11,4,17,19,-1,-3,-14,-23
-13,0,13,6,-12,6,18,21,0,-2,-13,-23
-13,0,14,6,-13,7,18,22,1,-1,-13,-23
-13,0,13,7,-13,6,18,24,3,0,-12,-23
-13,-1,13,7,-13,6,19,26,5,1,-11,-23
-13,0,14,7,-14,6,19,27,7,1,-11,-24
-14,1,16,7,-15,8,19,29,9,2,-11,-24
-15,2,18,6,-17,10,19,31,11,3,-11,-25
-15,3,19,6,-18,11,20,35,14,5,-10,-25
-16,3,19,6,-18,11,21,38,18,7,-9,-24
-16,2,18,6,-17,9,22,41,22,9,-7,-23
-15,2,17,6,-16,9,22,43,25,10,-6,-23
-15,3,18,6,-17,10,23,46,28,12,-5,-23
-15,4,20,5,-17,11,24,49,31,13,-4,-23
-15,5,20,5,-18,12,24,52,34,15,-4,-23
-16,5,21,5,-18,13,25,56,39,18,-2,-22
-17,4,21,6,-19,13,26,61,43,21,0,-22
-17,4,22,6,-19,13,26,64,47,23,1,-22
-17,5,22,6,-20,14,26,68,51,26,2,-21
-18,5,23,6,-20,14,27,71,55,29,4,-21
-17,4,22,6,-19,13,26,73,58,30,5,-21
-16,4,21,6,-18,12,24,74,61,31,5,-21
-15,6,22,5,-18,13,27,80,66,35,7,-19
-14,7,22,4,-18,14,30,86,70,39,10,-17
-14,8,22,3,-18,15,30,88,73,41,12,-17
-14,8,22,3,-18,15,28,89,74,43,13,-17
-14,8,23,3,-19,15,28,91,76,44,14,-16
-14,9,24,2,-19,16,28,92,77,46,16,-16
-15,9,24,2,-20,16,28,92,79,47,17,-16
-14,9,23,3,-19,16,28,92,80,48,18,-15
-13,10,24,2,-19,16,28,92,80,50,20,-14
-13,12,25,1,-19,18,28,93,81,51,21,-13
-13,13,26,0,-19,19,27,93,82,52,21,-13
-13,14,27,0,-20,20,26,93,82,52,22,-12
-14,13,26,0,-20,19,26,92,82,53,24,-11
-14,12,25,1,-19,18,26,92,82,54,26,-9
-13,13,25,0,-19,19,25,91,80,54,26,-8
-12,14,26,0,-19,19,23,86,77,53,26,-8
-12,13,25,0,-18,18,22,83,76,52,26,-7
-12,12,24,0,-18,18,23,83,74,52,26,-5
-11,13,24,0,-18,18,22,81,71,51,27,-5
-11,13,24,0,-18,18,20,76,67,49,26,-5
-11,13,24,0,-18,18,18,71,62,46,25,-5
-11,15,25,-2,-18,19,17,67,57,43,23,-5
-10,16,25,-3,-18,20,16,63,51,40,22,-5
-11,15,26,-3,-18,20,14,57,46,37,21,-5
-12,14,26,-2,-19,19,13,51,41,35,20,-5
-11,15,26,-2,-19,20,12,47,35,32,18,-5
-11,16,27,-3,-19,21,11,42,29,29,17,-5
-11,17,28,-3,-19,22,9,37,24,26,16,-5
-10,15,26,-2,-18,20,9,34,20,24,15,-4
-10,14,24,-2,-17,18,9,31,16,21,14,-3
-11,13,25,-1,-18,19,7,27,11,18,13,-4
-12,13,26,-1,-19,19,6,22,6,15,11,-4
-12,13,26,-1,-19,19,6,17,1,12,9,-4
-11,14,25,-1,-18,19,5,13,-2,9,7,-4
-10,13,24,-1,-17,18,3,9,-6,6,6,-5
-10,12,23,0,-17,17,2,6,-9,4,5,-5
-11,10,21,0,-16,15,3,6,-11,3,4,-4
-11,10,20,0,-16,14,3,5,-14,1,2,-4
-11,9,20,0,-15,14,1,2,-17,-1,0,-5
-10,9,19,0,-15,13,0,-2,-21,-4,-1,-6
-10,9,19,0,-15,13,1,-4,-23,-5,-1,-6
-11,8,20,1,-16,14,2,-5,-25,-6,-2,-6
-11,8,20,1,-16,14,1,-7,-28,-8,-2,-7
-11,8,20,1,-16,14,0,-9,-31,-9,-3,-8
-11,7,19,1,-15,13,-1,-11,-32,-11,-5,-9
-11,7,18,1,-14,12,-2,-12,-34,-13,-6,-9
-10,7,17,1,-13,11,-2,-13,-35,-14,-7,-9
-10,7,18,1,-14,12,-1,-14,-36,-14,-7,-9
-11,8,18,1,-14,12,-1,-15,-38,-15,-7,-9
-11,7,18,2,-15,12,-2,-16,-39,-16,-8,-10
-11,7,19,2,-15,12,-3,-18,-41,-17,-9,-11
-12,7,19,2,-16,13,-4,-19,-42,-19,-10,-12
-12,7,19,2,-15,13,-3,-19,-42,-19,-10,-12
-11,7,18,2,-14,12,-2,-18,-42,-19,-10,-11
-11,7,18,1,-14,13,-3,-18,-43,-21,-11,-11
-11,8,19,1,-14,13,-4,-20,-44,-21,-11,-12
-11,6,17,1,-13,12,-4,-21,-44,-21,-11,-11
-11,4,16,3,-13,10,-3,-21,-44,-22,-11,-11
-11,4,16,3,-13,10,-2,-21,-44,-23,-11,-11
-11,5,18,3,-14,11,-2,-21,-45,-23,-12,-12
-11,7,19,2,-15,12,-2,-21,-45,-23,-12,-12
-11,6,18,3,-14,12,-3,-21,-45,-24,-13,-12
-11,5,16,4,-13,10,-4,-22,-45,-24,-13,-13
-11,4,15,4,-13,9,-4,-23,-46,-25,-13,-13
-11,4,16,3,-13,10,-3,-23,-46,-25,-12,-13
-12,5,17,3,-14,11,-3,-22,-46,-24,-12,-13
-11,5,17,3,-14,11,-3,-23,-46,-25,-13,-13
-10,5,16,3,-13,10,-4,-24,-47,-26,-14,-13
-10,5,16,3,-13,9,-5,-24,-47,-26,-13,-13
-10,5,16,3,-13,9,-5,-24,-47,-25,-13,-13
-10,4,15,3,-13,9,-4,-23,-46,-25,-13,-13
-10,4,15,3,-13,9,-4,-22,-46,-25,-13,-13
-10,5,16,2,-13,10,-4,-22,-46,-25,-14,-14
-10,5,16,2,-13,11,-4,-23,-46,-26,-14,-15
-10,5,16,2,-13,10,-4,-24,-46,-26,-15,-15
-10,5,16,2,-13,10,-4,-24,-46,-26,-15,-16
-10,6,16,2,-13,11,-4,-23,-46,-26,-15,-16
-10,7,17,1,-13,12,-4,-22,-45,-26,-15,-16
-10,6,18,2,-14,12,-4,-21,-45,-26,-15,-16
-11,5,17,3,-14,11,-4,-21,-44,-25,-15,-16
-11,4,16,3,-14,10,-4,-21,-44,-25,-14,-16
-12,4,17,4,-14,10,-3,-21,-43,-24,-14,-16
-11,5,17,3,-14,11,-3,-21,-43,-24,-15,-17
-10,5,16,3,-13,10,-3,-21,-43,-24,-15,-17
-10,5,15,3,-12,10,-3,-20,-42,-23,-14,-17
-10,5,15,3,-12,10,-3,-19,-41,-22,-14,-16
-11,5,16,3,-13,11,-2,-18,-40,-22,-13,-16
-12,5,17,3,-14,11,-2,-18,-40,-21,-13,-15
-11,5,17,3,-14,11,-3,-18,-40,-22,-14,-16
-10,5,16,2,-13,11,-3,-19,-40,-23,-14,-16
-9,5,16,2,-12,10,-3,-19,-40,-23,-15,-16
-9,5,15,2,-12,10,-3,-18,-40,-23,-15,-16
-8,5,14,2,-11,9,-2,-17,-39,-22,-14,-15
-8,6,13,1,-11,9,-2,-17,-38,-22,-14,-16
-7,6,13,1,-10,9,-3,-18,-38,-23,-14,-16
-7,6,13,0,-10,9,-3,-17,-37,-22,-14,-16
-7,7,13,0,-10,9,-3,-17,-37,-21,-14,-16
-6,6,13,0,-10,9,-4,-17,-36,-21,-14,-17
-6,6,12,0,-9,9,-4,-17,-36,-21,-14,-17
-6,6,12,0,-9,9,-4,-17,-36,-21,-14,-16
-6,5,11,0,-9,8,-4,-16,-35,-20,-14,-15
-6,5,10,0,-8,8,-2,-14,-33,-18,-13,-14
-5,5,10,0,-8,8,-2,-13,-33,-18,-13,-15
-4,6,10,-1,-7,8,-5,-16,-34,-19,-13,-16
-2,6,9,-2,-6,8,-6,-17,-35,-19,-13,-16
-1,7,8,-3,-5,8,-6,-16,-34,-18,-13,-16
0,9,8,-4,-4,9,-6,-17,-34,-18,-14,-16
1,10,9,-5,-4,9,-7,-18,-34,-18,-14,-17
1,10,8,-5,-4,9,-6,-18,-34,-18,-14,-17
1,9,7,-4,-3,8,-6,-17,-33,-18,-14,-16
1,9,7,-5,-3,8,-6,-16,-32,-17,-13,-16
0,9,8,-5,-4,9,-6,-15,-32,-17,-13,-16
0,8,9,-4,-5,9,-6,-15,-32,-16,-13,-16
-1,7,8,-4,-4,8,-7,-16,-32,-16,-13,-16
0,8,8,-4,-4,8,-7,-16,-33,-17,-13,-15
0,8,8,-5,-3,8,-7,-15,-33,-17,-13,-15
0,7,7,-4,-3,7,-6,-14,-32,-16,-12,-15
0,6,7,-4,-3,6,-6,-14,-32,-15,-12,-14
0,7,7,-4,-4,7,-6,-15,-32,-16,-12,-14
0,9,9,-5,-5,9,-6,-16,-33,-16,-13,-14
0,10,10,-5,-5,10,-6,-15,-33,-16,-12,-14
0,10,10,-5,-5,9,-6,-15,-32,-16,-12,-14
1,10,10,-6,-5,10,-5,-15,-32,-16,-11,-13
1,11,11,-6,-5,11,-5,-15,-32,-15,-11,-13
0,12,12,-6,-6,11,-4,-15,-32,-15,-11,-13
0,11,12,-6,-6,11,-4,-15,-31,-14,-10,-12
0,11,12,-6,-6,11,-3,-14,-30,-14,-10,-12
0,12,12,-6,-6,12,-1,-14,-30,-14,-10,-11
0,12,13,-6,-6,12,0,-13,-30,-14,-10,-11
0,13,13,-6,-7,13,1,-12,-29,-13,-10,-10
0,13,13,-7,-6,13,2,-13,-29,-13,-9,-10
1,14,13,-8,-6,13,3,-14,-30,-14,-10,-11
2,15,13,-9,-6,13,4,-15,-31,-15,-10,-11
1,16,14,-9,-7,14,5,-14,-30,-15,-10,-11
0,16,15,-9,-8,15,7,-14,-30,-15,-10,-10
0,16,16,-8,-9,15,8,-13,-30,-14,-10,-10
0,16,16,-8,-9,15,8,-13,-29,-14,-10,-10
0,16,16,-9,-8,15,7,-13,-29,-15,-10,-10
0,18,17,-10,-8,17,5,-14,-29,-15,-10,-10
1,18,18,-10,-8,18,4,-14,-29,-15,-9,-9
0,17,18,-9,-8,17,2,-14,-29,-14,-9,-8
0,18,19,-9,-9,18,0,-15,-29,-14,-9,-8
-1,20,21,-10,-11,20,-2,-17,-30,-14,-9,-9
0,21,22,-10,-11,21,-4,-18,-31,-15,-10,-10
0,21,20,-11,-10,20,-8,-20,-32,-16,-10,-10
1,20,19,-11,-10,19,-10,-21,-32,-17,-11,-10
1,21,19,-11,-10,20,-10,-19,-32,-16,-10,-10
1,21,20,-11,-10,20,-12,-20,-33,-17,-10,-10
1,22,20,-11,-10,20,-15,-23,-34,-18,-11,-10
1,22,20,-11,-10,20,-13,-22,-33,-17,-10,-9
1,22,21,-11,-10,21,-11,-19,-33,-16,-10,-8
1,22,20,-11,-9,20,-14,-21,-34,-18,-11,-9
1,21,20,-11,-9,20,-16,-24,-35,-19,-12,-10
0,21,20,-10,-10,20,-16,-25,-35,-19,-12,-10
0,21,21,-10,-11,20,-15,-26,-36,-20,-12,-10
0,20,20,-10,-10,20,-16,-27,-36,-20,-12,-10
2,21,19,-12,-9,20,-17,-27,-36,-20,-13,-9
3,23,20,-13,-8,21,-17,-27,-37,-20,-13,-9
4,25,21,-14,-8,22,-17,-27,-37,-21,-13,-9
4,25,20,-15,-8,22,-18,-28,-37,-21,-13,-9
4,24,19,-15,-7,22,-17,-27,-37,-21,-13,-8
5,24,18,-15,-6,21,-17,-26,-36,-21,-12,-8
6,24,18,-15,-6,20,-17,-26,-36,-22,-12,-8
6,24,17,-15,-5,20,-16,-26,-36,-22,-12,-8
7,23,16,-14,-4,19,-15,-26,-35,-21,-12,-7
7,21,14,-14,-3,17,-14,-25,-35,-21,-12,-7
7,21,14,-15,-3,18,-14,-25,-35,-22,-12,-7
7,22,15,-15,-4,19,-14,-26,-36,-22,-12,-7
7,21,14,-14,-3,18,-13,-26,-35,-22,-11,-7
7,20,13,-13,-3,16,-12,-26,-34,-21,-10,-7
6,19,12,-12,-3,15,-11,-26,-33,-21,-10,-7
6,18,12,-11,-3,14,-9,-26,-33,-21,-10,-7
5,16,11,-10,-3,13,-7,-24,-32,-21,-10,-7
4,14,10,-8,-3,12,-6,-23,-32,-21,-10,-8
3,13,10,-8,-3,12,-6,-23,-32,-22,-11,-9
2,13,12,-7,-4,12,-6,-24,-33,-23,-12,-10
0,12,13,-6,-6,12,-6,-24,-33,-23,-12,-11
-1,12,13,-5,-6,12,-5,-25,-34,-23,-13,-12
-1,11,13,-5,-7,11,-5,-25,-33,-23,-13,-13
-2,10,13,-4,-7,11,-4,-24,-33,-22,-13,-13
-3,9,12,-3,-7,10,-3,-24,-32,-22,-13,-13
-3,9,12,-3,-8,10,-3,-24,-32,-23,-13,-13
-3,9,13,-3,-8,11,-3,-24,-32,-23,-14,-14
-3,9,13,-3,-8,11,-3,-24,-32,-23,-14,-14
-3,9,12,-3,-8,11,-4,-24,-32,-23,-14,-14
-2,10,12,-3,-7,11,-3,-24,-31,-23,-14,-14
-2,10,13,-4,-7,12,-2,-23,-31,-23,-14,-14
-2,10,13,-4,-8,12,-3,-24,-31,-23,-15,-14
-3,10,13,-4,-8,12,-3,-26,-31,-23,-15,-14
-3,10,13,-4,-8,11,-2,-25,-31,-23,-14,-14
-4,9,13,-3,-9,11,-1,-24,-31,-23,-14,-13
-4,8,12,-2,-9,10,-1,-24,-31,-23,-14,-13
-4,7,12,-2,-8,9,-2,-24,-31,-22,-14,-13
-3,7,11,-2,-7,9,-2,-23,-31,-22,-13,-13
-2,6,9,-2,-6,8,-1,-22,-30,-21,-13,-13
-2,7,9,-2,-6,8,-1,-22,-30,-21,-13,-13
-3,8,11,-3,-7,10,-1,-22,-30,-21,-14,-14
-4,9,13,-3,-9,11,0,-20,-28,-21,-14,-15
-4,10,14,-3,-9,11,2,-17,-26,-21,-15,-16
-3,10,13,-3,-8,11,4,-12,-22,-19,-15,-17
-3,10,13,-3,-8,11,7,-6,-16,-16,-15,-17
-2,11,13,-4,-8,12,11,3,-6,-11,-14,-17
-2,12,15,-4,-9,13,15,15,6,-3,-9,-16
-2,13,16,-5,-9,14,21,27,17,6,-2,-13
-1,14,16,-6,-9,15,25,33,26,16,6,-8
1,15,15,-8,-7,15,28,35,30,24,16,-1
4,16,13,-10,-5,14,28,31,29,31,28,8
8,19,12,-13,-2,15,27,23,23,35,42,20
13,24,12,-19,1,17,23,14,16,40,58,35
19,31,11,-25,4,20,18,4,11,45,77,52
26,37,11,-32,8,24,11,-6,7,50,97,71
35,46,10,-40,12,28,2,-17,3,55,117,90
46,55,9,-50,18,32,-13,-29,-1,60,139,112
58,66,8,-62,25,37,-38,-46,-6,66,163,136
72,77,6,-74,33,41,-70,-64,-10,72,187,162
86,85,0,-86,43,43,-105,-79,-13,75,205,184
99,92,-6,-96,53,43,-140,-92,-15,75,216,199
109,98,-10,-104,60,44,-171,-105,-21,72,218,208
113,102,-11,-108,62,46,-193,-117,-33,64,210,209
113,100,-13,-107,63,43,-208,-130,-48,51,192,199
109,86,-22,-98,66,32,-211,-140,-63,33,166,180
98,65,-32,-82,65,16,-203,-146,-79,13,130,148
81,45,-35,-63,58,5,-185,-150,-93,-9,88,108
62,28,-32,-45,47,-2,-163,-148,-104,-30,44,65
44,16,-26,-31,35,-5,-136,-140,-109,-48,7,29
29,10,-18,-20,23,-4,-108,-126,-110,-62,-19,4
17,8,-8,-13,13,0,-84,-109,-104,-69,-35,-11
9,9,0,-9,4,4,-64,-92,-91,-67,-40,-18
4,10,6,-7,-1,8,-47,-75,-76,-59,-38,-20
2,11,9,-7,-3,10,-35,-61,-62,-50,-34,-21
1,11,11,-6,-5,11,-25,-49,-51,-43,-31,-21
0,11,12,-5,-7,12,-17,-40,-41,-37,-27,-20
-2,11,14,-4,-8,12,-11,-32,-33,-32,-24,-18
-3,10,14,-3,-9,12,-5,-25,-26,-27,-21,-18
-4,10,14,-3,-9,12,-2,-21,-22,-23,-19,-18
-4,10,13,-2,-9,11,0,-19,-20,-22,-19,-18
-5,8,13,-2,-9,11,1,-16,-17,-21,-18,-17
-6,8,14,-1,-10,11,3,-13,-15,-19,-17,-17
-6,8,16,-1,-10,12,4,-11,-14,-18,-17,-17
-5,9,16,-2,-10,13,5,-9,-13,-18,-17,-17
-5,9,16,-2,-10,13,6,-8,-12,-17,-17,-16
-5,9,15,-2,-10,12,6,-8,-11,-17,-16,-16
-6,9,15,-1,-10,12,6,-9,-11,-17,-16,-15
-6,10,16,-1,-11,13,6,-9,-11,-16,-15,-15
-6,11,17,-2,-11,14,8,-8,-10,-14,-14,-14
-6,11,17,-2,-12,14,9,-6,-10,-13,-14,-14
-7,10,17,-2,-12,13,8,-6,-9,-12,-14,-14
-7,11,18,-2,-12,14,8,-5,-8,-12,-13,-14
-7,11,19,-2,-13,15,9,-3,-7,-11,-13,-14
-7,11,19,-1,-13,15,11,-1,-6,-11,-13,-14
-7,11,18,-1,-12,15,12,-1,-6,-11,-13,-13
-7,11,18,-2,-12,15,11,-2,-7,-12,-13,-13
-7,11,18,-3,-12,15,11,-3,-8,-12,-13,-13
-7,11,18,-3,-12,15,11,-3,-8,-12,-13,-12
-7,11,18,-3,-12,15,11,-2,-8,-12,-13,-12
-7,12,19,-3,-12,15,10,-3,-8,-12,-13,-13
-6,13,19,-3,-12,16,9,-4,-8,-12,-14,-13
-6,12,19,-3,-12,15,10,-4,-8,-12,-14,-13
-6,12,19,-2,-12,15,11,-4,-7,-11,-14,-14
-7,12,19,-2,-13,15,11,-4,-7,-10,-14,-14
-7,12,19,-2,-13,15,11,-4,-7,-10,-13,-14
-7,11,18,-2,-13,15,12,-3,-7,-10,-13,-14
-7,11,18,-2,-13,15,12,-3,-7,-10,-12,-14
-8,11,19,-2,-13,15,11,-4,-7,-10,-13,-14
-7,12,20,-3,-13,16,10,-4,-6,-11,-13,-14
-7,12,19,-3,-13,16,11,-3,-6,-10,-13,-13
-6,12,19,-4,-12,15,11,-2,-5,-9,-12,-13
-5,13,18,-4,-11,15,11,-2,-4,-9,-12,-13
-5,13,18,-5,-12,16,11,-1,-4,-8,-12,-13
-7,13,20,-4,-13,17,11,-1,-4,-8,-12,-12
-8,12,20,-3,-14,16,12,0,-3,-8,-11,-12
-7,12,19,-3,-13,15,12,1,-3,-8,-11,-12
-7,12,18,-3,-13,14,12,1,-2,-8,-11,-12
-6,13,18,-3,-12,15,12,1,-2,-7,-11,-12
-6,14,19,-4,-13,16,11,1,-2,-7,-11,-12
-7,16,22,-4,-15,19,11,0,-3,-8,-12,-12
-7,17,24,-4,-16,20,11,0,-3,-8,-12,-12
-7,15,23,-4,-15,19,11,1,-2,-7,-12,-12
-7,14,21,-4,-15,18,11,2,-2,-7,-12,-12
-7,14,22,-4,-15,18,10,2,-1,-7,-12,-12
-7,15,22,-4,-15,18,11,3,0,-7,-11,-12
-7,15,22,-4,-15,18,11,4,0,-6,-11,-11
-7,15,22,-4,-14,18,11,4,0,-6,-11,-11
-7,14,22,-4,-14,18,12,4,1,-5,-11,-11
-7,14,21,-3,-14,17,12,5,1,-5,-11,-11
-7,14,22,-3,-14,17,12,5,1,-5,-11,-11
-7,14,22,-4,-14,18,11,6,2,-5,-12,-12
-6,15,22,-4,-14,19,11,6,2,-5,-12,-12
-6,16,22,-5,-13,19,11,7,3,-5,-12,-12
-6,16,23,-5,-14,19,11,7,4,-4,-12,-12
-7,16,23,-5,-15,20,11,8,5,-4,-12,-12
-7,17,24,-5,-15,20,11,8,6,-4,-13,-13
-7,17,24,-5,-15,21,11,8,7,-4,-13,-13
-6,17,23,-6,-14,20,12,10,8,-3,-13,-13
-5,18,23,-6,-13,21,12,12,10,-3,-12,-13
-5,18,23,-6,-14,21,12,13,10,-3,-12,-14
-5,17,23,-6,-14,20,12,15,11,-3,-12,-14
-6,17,23,-5,-15,20,13,16,13,-2,-11,-13
-7,17,24,-5,-16,20,13,18,14,0,-10,-13
-7,16,24,-4,-16,20,14,19,16,1,-9,-13
-7,17,24,-5,-16,20,14,21,18,2,-8,-13
-7,18,25,-6,-16,21,14,22,19,3,-8,-13
-6,19,25,-6,-16,22,15,25,21,4,-7,-12
-7,18,25,-6,-16,22,16,28,23,6,-7,-11
-7,18,25,-5,-16,21,17,31,26,7,-6,-10
-6,17,24,-5,-15,21,17,32,28,8,-6,-11
-6,18,25,-6,-16,22,17,33,30,8,-6,-11
-7,20,28,-7,-17,24,18,36,32,9,-6,-11
-8,20,29,-6,-18,25,20,40,36,10,-5,-11
-8,20,28,-6,-18,25,20,44,38,12,-4,-10
-8,20,28,-6,-18,25,19,46,40,13,-3,-11
-7,20,28,-7,-17,24,18,49,43,14,-2,-11
-5,20,27,-8,-16,24,19,53,47,16,-1,-10
-4,21,26,-8,-16,24,20,57,51,18,0,-10
-4,21,26,-8,-16,24,20,60,54,21,2,-10
-5,22,27,-8,-16,25,21,63,57,23,3,-10
-5,23,28,-9,-17,26,22,68,61,25,3,-10
-5,24,29,-9,-17,27,22,71,64,25,2,-10
-4,25,30,-10,-17,28,21,73,67,25,2,-10
-4,26,30,-10,-17,28,22,77,71,28,4,-10
-4,25,30,-10,-17,28,23,80,75,31,7,-9
-5,25,30,-10,-17,28,23,82,79,35,10,-8
-5,25,30,-10,-18,28,24,85,82,37,12,-8
-5,26,31,-11,-18,29,25,88,86,39,13,-8
-5,26,31,-11,-18,29,25,91,89,41,13,-7
-4,28,32,-12,-18,30,24,92,91,42,14,-8
-4,29,33,-12,-18,31,23,93,92,44,15,-8
-4,29,33,-12,-18,31,24,95,93,45,16,-7
-4,29,33,-12,-18,32,25,97,95,46,18,-6
-3,30,34,-13,-18,32,24,97,96,47,19,-6
-2,31,34,-15,-18,33,23,96,97,49,20,-6
-2,32,34,-15,-18,33,22,95,98,50,21,-5
-2,32,33,-15,-17,33,22,94,98,50,22,-4
-1,32,33,-16,-17,33,21,93,97,49,22,-3
-1,32,32,-16,-16,33,21,91,96,49,23,-2
-1,32,33,-16,-16,33,20,90,94,50,24,-2
-2,33,35,-16,-17,34,18,87,92,49,24,-2
-2,33,35,-16,-17,34,16,84,89,47,23,-2
-1,34,35,-17,-17,35,14,80,86,46,23,-2
0,35,35,-18,-17,35,13,77,83,46,23,-1
0,34,34,-18,-17,35,13,74,80,45,23,0
0,33,33,-17,-16,34,13,71,77,43,23,0
0,33,32,-17,-16,33,11,66,72,40,22,1
1,33,32,-17,-15,33,9,61,67,38,21,1
1,34,33,-18,-15,34,7,56,61,35,21,2
1,35,34,-18,-16,35,5,51,55,32,20,3
1,36,35,-18,-16,35,4,45,50,30,19,3
1,35,34,-18,-16,35,2,40,45,28,18,3
2,34,32,-18,-15,33,1,35,39,26,17,3
2,28,26,-16,-12,27,1,31,36,24,16,4
2,18,16,-11,-7,17,3,30,34,24,16,7
2,8,6,-6,-2,7,6,30,33,25,19,10
1,0,-1,-1,1,0,7,29,32,26,21,13
1,-6,-6,2,4,-6,8,26,29,24,22,14
0,-10,-10,4,6,-10,8,22,25,21,22,15
0,-14,-15,6,8,-14,8,20,23,19,21,15
1,-18,-19,8,10,-18,9,18,21,18,20,16
1,-20,-22,9,12,-21,9,16,19,19,20,17
2,-22,-25,9,14,-23,8,13,16,17,18,17
3,-23,-27,10,15,-25,8,10,13,13,15,17
3,-24,-28,10,15,-26,8,8,11,11,13,16
3,-25,-29,11,16,-27,8,7,9,9,13,16
2,-27,-29,12,16,-28,8,5,8,9,13,16
2,-28,-30,12,16,-28,8,4,6,8,14,16
2,-28,-30,12,16,-29,8,2,4,7,14,16
1,-29,-31,13,16,-30,8,1,2,6,13,16
0,-30,-32,14,16,-31,8,0,1,6,12,16
1,-30,-32,14,17,-31,8,0,0,6,12,16
1,-30,-32,14,17,-31,8,-1,-1,4,12,16
2,-30,-33,14,18,-32,7,-2,-3,3,11,15
3,-31,-35,14,18,-33,7,-3,-4,2,11,15
3,-32,-35,14,19,-33,7,-4,-5,1,11,15
3,-32,-35,14,19,-33,7,-4,-5,1,11,15
2,-32,-35,14,18,-33,7,-4,-6,1,10,15
1,-32,-34,14,18,-33,7,-5,-7,0,9,14
2,-32,-34,14,18,-33,7,-7,-8,0,8,13
2,-31,-34,14,18,-33,7,-7,-8,0,8,13
2,-32,-34,15,18,-33,8,-7,-9,0,8,13
2,-32,-35,15,19,-34,8,-8,-9,0,8,12
2,-33,-36,15,19,-35,8,-9,-10,-1,7,12
2,-33,-36,15,18,-35,8,-8,-9,0,7,12
2,-34,-36,15,18,-35,8,-7,-9,0,8,12
2,-33,-35,15,19,-34,9,-7,-9,-1,7,12
2,-33,-35,15,19,-34,8,-8,-9,-1,6,11
1,-33,-34,15,19,-34,7,-10,-10,0,7,11
1,-33,-34,16,18,-34,7,-11,-10,-1,8,12
1,-34,-35,16,18,-34,8,-10,-9,-2,7,13
1,-33,-35,16,19,-34,8,-10,-10,-3,6,12
2,-33,-36,16,19,-35,7,-12,-11,-3,6,12
2,-34,-36,16,19,-35,8,-10,-11,-2,7,12
2,-34,-36,16,19,-35,10,-7,-9,-1,8,13
2,-34,-36,16,19,-35,9,-6,-9,-2,7,12
2,-35,-37,16,20,-36,8,-7,-9,-2,7,12
2,-36,-39,16,21,-37,8,-7,-9,-3,7,12
2,-35,-38,16,21,-37,9,-7,-9,-3,6,12
2,-34,-37,16,19,-36,9,-7,-9,-3,6,11
1,-34,-36,16,19,-35,8,-8,-9,-3,5,11
1,-35,-36,16,19,-36,8,-8,-9,-4,5,10
2,-35,-36,16,19,-36,9,-6,-9,-3,5,10
2,-34,-36,15,19,-35,9,-5,-7,-2,6,10
2,-34,-36,15,20,-35,9,-4,-6,-1,6,9
2,-34,-37,16,20,-36,9,-4,-6,0,6,9
2,-34,-37,16,20,-36,10,-4,-5,0,6,9
2,-34,-37,16,20,-36,10,-4,-5,0,6,9
3,-34,-37,15,20,-36,9,-4,-5,0,6,9
3,-34,-38,15,20,-37,9,-5,-5,0,7,9
3,-34,-37,15,20,-36,9,-5,-5,0,7,9
3,-33,-36,15,19,-35,9,-4,-4,0,7,8
2,-34,-36,16,20,-35,9,-4,-4,0,6,8
1,-36,-37,17,20,-36,9,-4,-3,0,6,9
1,-35,-37,16,19,-36,9,-4,-2,0,6,9
1,-34,-36,15,19,-35,10,-3,-2,1,7,9
1,-33,-35,15,19,-34,10,-3,-1,2,7,8
1,-33,-35,15,19,-35,10,-3,0,3,8,8
1,-34,-35,16,18,-35,10,-2,0,5,8,8
1,-33,-35,15,18,-34,10,-2,1,5,8,7
2,-33,-35,15,19,-34,9,-2,1,4,7,6
3,-32,-35,14,20,-34,9,-2,0,3,6,5
4,-32,-36,14,21,-34,9,-3,0,3,7,5
3,-32,-36,14,21,-34,9,-3,1,4,8,6
2,-32,-35,15,19,-34,10,-1,2,6,9,8
1,-32,-34,15,18,-33,10,-1,2,5,9,9
1,-32,-34,15,18,-34,9,-2,1,3,8,9
2,-32,-34,14,18,-33,8,-1,2,4,8,9
3,-31,-34,14,18,-33,8,0,2,4,9,9
3,-31,-34,14,18,-33,7,-1,2,4,9,9
3,-32,-34,15,18,-33,7,-1,2,4,9,8
2,-32,-34,15,18,-33,8,-1,3,5,10,9
3,-31,-34,14,18,-33,8,0,3,6,11,9
4,-30,-34,13,19,-32,7,0,2,5,11,8
4,-29,-34,12,20,-32,7,-1,2,4,10,8
4,-29,-34,12,19,-32,7,0,3,5,9,9
4,-29,-34,12,19,-31,7,0,4,6,10,9
3,-29,-33,13,18,-31,6,-1,4,6,10,9
3,-30,-33,13,18,-31,5,-1,3,5,10,9
2,-30,-32,13,18,-31,6,0,3,4,9,9
3,-29,-32,13,18,-31,6,0,3,4,9,9
3,-29,-32,12,18,-31,6,0,3,4,10,9
3,-29,-32,13,18,-31,6,-1,3,5,10,9
3,-30,-32,13,18,-31,6,-1,3,5,11,9
4,-29,-32,13,18,-30,6,-1,3,6,11,9
4,-28,-32,12,18,-30,6,-1,3,5,11,9
4,-28,-32,12,18,-30,6,-1,2,5,10,9
4,-28,-32,12,18,-29,6,-1,2,6,10,9
3,-27,-31,12,17,-29,6,-1,1,6,10,9
3,-27,-30,12,17,-29,6,-1,1,5,9,9
4,-27,-30,11,17,-29,7,0,2,5,8,10
4,-25,-29,11,16,-27,9,0,2,7,7,10
4,-24,-28,10,16,-26,10,0,3,8,7,10
4,-24,-28,10,16,-26,11,0,3,7,6,10
3,-24,-28,10,16,-26,12,0,3,7,5,11
3,-24,-27,10,15,-25,14,0,3,6,4,11
3,-22,-26,9,15,-24,15,0,2,6,2,11
4,-21,-25,8,15,-23,15,0,0,6,1,11
3,-21,-24,8,14,-23,15,0,-2,6,0,11
3,-20,-23,8,13,-22,14,-1,-4,6,-1,11
3,-19,-22,8,12,-21,13,-1,-5,6,-2,10
3,-19,-22,8,12,-21,13,-1,-6,7,-2,10
4,-18,-22,7,12,-20,11,-2,-6,8,-2,10
3,-17,-20,6,12,-18,8,-3,-7,7,-3,9
2,-16,-19,6,11,-17,5,-3,-7,6,-3,9
2,-16,-19,6,11,-17,4,-4,-8,6,-4,9
3,-17,-21,6,12,-19,3,-4,-8,5,-5,9
4,-18,-22,6,13,-20,2,-5,-9,4,-6,8
4,-18,-22,6,13,-20,0,-6,-10,3,-7,8
4,-17,-22,6,13,-20,-3,-6,-11,3,-8,8
4,-17,-22,6,13,-19,-4,-6,-11,3,-8,9
4,-17,-22,6,13,-20,-6,-6,-12,3,-8,9
4,-18,-23,6,14,-20,-6,-7,-12,3,-9,9
4,-18,-22,6,14,-20,-5,-7,-12,3,-9,10
4,-17,-21,5,13,-20,-6,-7,-12,2,-10,10
4,-16,-20,5,13,-19,-7,-9,-14,1,-11,9
5,-15,-19,4,12,-18,-8,-11,-15,0,-12,8
6,-14,-20,4,13,-17,-9,-12,-16,0,-13,8
7,-14,-21,3,14,-18,-9,-14,-17,0,-14,7
7,-14,-21,3,14,-18,-10,-15,-18,0,-14,7
6,-14,-20,3,13,-17,-11,-16,-19,0,-14,7
6,-13,-20,3,13,-17,-10,-15,-19,-1,-14,7
8,-13,-21,2,15,-18,-10,-14,-18,-1,-15,7
10,-13,-23,1,17,-19,-12,-15,-19,-2,-15,7
12,-13,-25,1,18,-19,-13,-16,-19,-2,-16,6
12,-13,-25,1,19,-19,-12,-15,-19,-3,-16,6
11,-13,-24,1,18,-19,-10,-14,-18,-2,-16,7
11,-14,-25,2,18,-19,-10,-14,-18,-2,-17,7
11,-15,-26,2,19,-21,-9,-14,-18,-2,-16,7
11,-16,-27,2,19,-22,-8,-14,-18,-2,-16,8
11,-17,-28,2,20,-23,-7,-13,-18,-2,-15,8
11,-18,-29,3,20,-24,-6,-13,-18,-2,-15,8
11,-18,-30,3,21,-24,-6,-13,-18,-2,-15,8
11,-19,-30,4,21,-25,-6,-13,-19,-2,-15,7
11,-20,-31,5,21,-25,-4,-13,-19,-3,-16,6
10,-21,-30,6,20,-26,-2,-12,-18,-3,-17,6
8,-21,-30,6,19,-26,-2,-12,-18,-3,-17,5
7,-22,-30,7,19,-26,-2,-13,-19,-4,-18,4
6,-24,-30,8,18,-27,-1,-13,-19,-5,-19,4
5,-25,-29,10,17,-27,0,-13,-18,-4,-19,3
3,-26,-28,12,16,-27,0,-12,-18,-4,-19,3
1,-27,-28,13,15,-27,0,-13,-19,-5,-20,2
1,-27,-28,13,15,-27,0,-13,-19,-5,-20,1
1,-26,-28,13,15,-27,1,-12,-19,-5,-20,1
1,-27,-28,13,15,-27,2,-11,-19,-5,-20,0
1,-28,-28,13,15,-28,1,-12,-20,-6,-21,0
0,-28,-28,13,15,-29,1,-13,-20,-7,-21,0
1,-29,-29,13,15,-29,2,-12,-19,-7,-21,0
1,-29,-30,14,16,-29,2,-12,-19,-6,-21,-1
1,-30,-31,14,16,-30,2,-12,-19,-6,-20,-1
0,-30,-31,15,16,-30,2,-12,-19,-5,-20,-1
0,-30,-30,15,16,-30,2,-12,-19,-5,-20,-1
0,-30,-30,15,16,-30,2,-12,-18,-5,-20,-1
1,-29,-30,14,16,-30,2,-12,-18,-5,-20,-1
1,-29,-31,14,16,-30,2,-12,-19,-6,-20,-2
1,-29,-30,14,16,-30,2,-13,-19,-7,-21,-2
0,-29,-29,14,15,-29,2,-13,-19,-8,-22,-2
-1,-29,-28,15,14,-29,2,-12,-19,-7,-21,-1
-1,-29,-28,15,13,-28,2,-11,-18,-7,-21,-1
-1,-29,-27,15,13,-27,2,-11,-18,-7,-21,-1
-1,-30,-28,16,14,-29,3,-9,-18,-7,-21,-2
-2,-31,-29,16,14,-30,5,-7,-16,-7,-21,-3
-3,-31,-28,17,12,-29,7,-4,-14,-6,-21,-4
-4,-31,-26,17,11,-28,9,1,-9,-4,-22,-6
-3,-31,-27,17,12,-28,13,11,0,0,-20,-6
-2,-31,-28,17,13,-29,18,24,12,8,-16,-5
-1,-31,-29,16,14,-30,23,37,25,18,-10,-2
0,-30,-30,15,16,-30,27,45,36,28,-1,2
2,-28,-30,13,17,-29,31,50,43,38,10,9
4,-25,-30,10,17,-28,34,49,45,46,22,19
7,-21,-29,7,18,-26,32,41,40,51,36,30
12,-17,-28,2,20,-23,29,30,33,56,52,44
18,-11,-29,-4,24,-20,24,19,26,62,70,61
26,-5,-31,-11,29,-18,17,8,20,66,89,79
35,2,-32,-19,34,-14,9,-4,15,70,108,98
44,12,-31,-28,39,-9,-1,-16,9,75,129,119
54,23,-31,-39,44,-4,-20,-32,2,80,153,144
67,34,-34,-50,51,0,-48,-51,-4,85,177,170
82,42,-40,-62,62,1,-81,-69,-9,87,196,193
97,49,-48,-73,73,0,-116,-83,-13,86,207,211
107,54,-53,-81,80,0,-150,-98,-20,81,210,221
112,60,-52,-86,82,4,-178,-113,-32,73,203,223
114,62,-51,-88,83,5,-198,-128,-47,61,188,216
113,54,-59,-83,86,-2,-206,-139,-63,44,164,199
104,35,-69,-69,87,-17,-202,-146,-79,23,130,170
88,13,-74,-50,82,-31,-187,-151,-95,-1,87,129
70,-5,-75,-32,73,-41,-166,-150,-106,-25,42,83
52,-19,-71,-16,62,-46,-141,-143,-112,-46,2,42
36,-27,-63,-5,49,-45,-115,-131,-115,-62,-28,13
23,-29,-53,2,38,-40,-90,-114,-110,-71,-47,-5
15,-29,-44,7,30,-36,-68,-95,-97,-69,-54,-14
10,-28,-38,9,25,-33,-49,-77,-82,-62,-54,-17
6,-27,-34,10,21,-31,-34,-60,-66,-53,-49,-17
4,-27,-31,11,19,-30,-23,-46,-53,-44,-44,-16
3,-27,-30,12,17,-29,-16,-36,-43,-36,-38,-15
2,-28,-30,13,16,-29,-10,-28,-36,-31,-34,-14
2,-28,-30,13,16,-29,-5,-22,-30,-28,-32,-14
2,-28,-30,13,16,-29,-1,-17,-26,-24,-31,-13
1,-28,-30,13,16,-29,2,-13,-22,-20,-29,-13
1,-29,-30,14,16,-29,4,-10,-20,-17,-27,-12
1,-29,-30,14,16,-29,6,-8,-18,-16,-26,-13
0,-28,-29,14,15,-29,6,-6,-17,-16,-26,-13
0,-28,-29,14,15,-28,7,-5,-16,-16,-26,-13
0,-28,-27,14,14,-27,8,-4,-14,-15,-25,-13
-1,-27,-25,14,12,-26,10,-3,-13,-14,-24,-12
-1,-26,-24,14,11,-25,11,-2,-12,-13,-24,-12
-1,-25,-24,14,11,-24,11,-2,-12,-13,-24,-11
-1,-25,-24,14,11,-24,11,-2,-12,-12,-23,-11
-1,-25,-24,14,11,-25,11,-1,-12,-12,-23,-11
-1,-25,-24,13,11,-25,12,-1,-12,-12,-22,-11
-2,-25,-23,13,11,-24,11,-2,-12,-12,-23,-12
-2,-25,-23,13,11,-24,10,-2,-11,-12,-23,-12
-1,-24,-23,13,12,-23,11,-1,-10,-11,-22,-12
0,-24,-23,12,12,-23,11,0,-10,-10,-21,-12
-1,-25,-24,13,11,-24,11,0,-10,-10,-21,-12
-1,-25,-24,13,11,-25,11,0,-10,-10,-22,-12
0,-24,-24,12,11,-24,11,0,-9,-10,-22,-12
-1,-24,-23,12,11,-23,11,0,-9,-10,-22,-12
-1,-24,-22,12,10,-23,10,0,-9,-9,-21,-12
-2,-24,-22,12,10,-23,10,1,-9,-8,-21,-12
-2,-23,-21,12,10,-22,11,1,-9,-8,-21,-12
-1,-23,-21,12,10,-22,11,1,-9,-8,-21,-12
-1,-23,-22,12,11,-23,11,1,-9,-8,-21,-12
-1,-23,-22,12,10,-23,11,0,-9,-8,-21,-13
-1,-22,-21,12,9,-22,11,0,-8,-7,-21,-13
-2,-22,-20,12,9,-21,11,1,-7,-6,-20,-12
-2,-21,-19,12,9,-21,11,2,-7,-5,-20,-12
-1,-20,-19,11,9,-20,10,1,-7,-5,-20,-12
0,-20,-20,10,10,-21,10,1,-7,-5,-20,-12
0,-21,-21,11,11,-22,11,1,-6,-6,-20,-12
-1,-21,-20,11,10,-21,11,2,-6,-6,-20,-12
-2,-21,-19,12,8,-20,11,1,-6,-6,-20,-12
-2,-21,-18,12,8,-19,12,2,-6,-6,-20,-12
-3,-21,-18,12,8,-19,12,3,-5,-5,-20,-11
-3,-20,-18,12,7,-19,12,3,-5,-5,-20,-11
-3,-19,-17,12,6,-18,12,4,-4,-5,-20,-11
-3,-19,-16,12,6,-18,12,4,-4,-5,-20,-11
-3,-20,-17,12,7,-18,12,4,-3,-4,-20,-11
-4,-21,-17,13,7,-19,13,5,-2,-3,-19,-11
-3,-20,-17,12,7,-18,12,4,-3,-3,-19,-11
-2,-20,-18,12,8,-19,11,4,-3,-3,-19,-11
-2,-20,-19,11,9,-19,11,5,-3,-2,-19,-11
-2,-20,-19,11,9,-19,12,6,-2,-2,-18,-10
-2,-20,-18,11,8,-19,12,7,-1,-1,-18,-10
-2,-19,-17,11,7,-19,11,7,-1,-1,-18,-11
-2,-19,-17,11,7,-19,11,7,-1,-1,-18,-11
-2,-19,-17,11,7,-18,11,8,0,0,-17,-10
-2,-19,-17,11,7,-18,11,9,1,1,-17,-10
-2,-19,-16,11,7,-17,11,9,2,1,-17,-11
-3,-19,-16,11,7,-17,12,11,3,1,-16,-11
-3,-20,-17,12,7,-18,13,13,4,1,-16,-10
-3,-20,-17,12,7,-19,13,13,5,1,-16,-10
-3,-20,-17,12,7,-18,12,13,5,1,-16,-10
-4,-20,-16,12,6,-18,12,14,6,2,-15,-9
-3,-20,-16,12,7,-18,12,15,6,3,-15,-9
-2,-19,-16,11,7,-17,11,16,7,3,-15,-10
-2,-18,-15,10,7,-16,11,16,7,3,-15,-10
-3,-17,-13,10,5,-15,11,17,9,3,-15,-10
-4,-17,-12,11,5,-15,12,19,10,4,-15,-10
-3,-17,-13,10,5,-15,12,20,11,4,-15,-10
-2,-17,-14,9,6,-15,12,21,13,4,-15,-11
-2,-17,-15,9,7,-16,13,23,14,5,-14,-11
-1,-17,-15,9,7,-16,12,23,16,6,-14,-11
-1,-18,-16,9,7,-17,12,23,17,7,-14,-11
-1,-19,-16,10,7,-17,13,26,19,8,-13,-10
-1,-18,-17,9,8,-17,14,29,21,8,-13,-10
-1,-18,-17,9,8,-17,14,31,23,9,-12,-10
-2,-19,-17,10,8,-18,15,33,25,10,-11,-10
-3,-21,-18,11,8,-20,16,36,28,12,-9,-9
-3,-21,-18,12,8,-19,17,38,31,13,-8,-8
-4,-19,-15,12,6,-17,17,41,34,15,-7,-8
-5,-18,-13,12,5,-15,18,43,37,17,-7,-8
-5,-17,-12,11,4,-14,19,46,40,19,-6,-8
-5,-16,-11,11,3,-14,19,49,42,20,-6,-8
-5,-15,-10,10,3,-13,20,52,45,21,-5,-8
-5,-15,-9,10,2,-12,20,55,48,22,-4,-8
-6,-15,-9,10,2,-12,21,59,52,24,-3,-8
-5,-15,-10,10,3,-12,21,62,56,26,-2,-8
-4,-15,-11,10,4,-13,21,64,60,28,0,-9
-2,-15,-12,9,5,-13,21,68,64,31,1,-8
-2,-14,-11,8,5,-12,22,72,68,33,2,-7
-4,-14,-9,9,3,-11,24,77,73,36,4,-6
-5,-12,-7,9,1,-9,24,80,77,38,5,-6
-5,-11,-6,8,0,-8,24,82,79,40,7,-6
-4,-10,-6,7,1,-8,24,85,82,42,8,-6
-3,-10,-6,7,2,-8,24,88,86,44,10,-6
-3,-9,-6,7,2,-8,24,90,88,45,12,-6
-2,-8,-6,6,2,-7,24,92,91,47,13,-6
-2,-7,-5,5,2,-6,24,94,93,49,14,-5
-2,-7,-5,5,2,-6,24,96,94,51,15,-5
-1,-7,-5,4,2,-6,25,97,96,52,16,-4
-1,-7,-5,4,2,-6,25,98,97,53,17,-4
-1,-7,-5,4,2,-6,25,98,98,54,19,-3
-1,-7,-5,4,2,-6,25,98,99,55,20,-1
0,-6,-5,4,3,-6,25,98,100,56,22,0
0,-5,-5,3,3,-5,24,98,100,57,23,0
0,-5,-4,2,2,-5,24,97,99,58,24,0
0,-4,-3,2,2,-4,23,97,99,58,25,1
0,-4,-3,2,1,-4,23,96,98,58,25,2
0,-3,-3,2,1,-3,22,93,96,58,25,2
0,-2,-2,1,1,-2,22,91,94,57,24,3
1,-1,-2,0,1,-1,21,88,91,55,23,3
1,0,-1,0,1,-1,18,83,87,53,22,3
1,0,-1,0,1,-1,17,80,83,52,21,4
2,0,-1,-1,2,-1,16,78,79,51,21,5
2,0,0,-1,1,0,15,74,75,48,19,6
1,1,1,-1,0,1,14,69,69,46,18,7
1,1,2,-1,0,1,14,64,64,44,18,7
1,0,1,-1,0,0,13,58,59,41,17,7
1,0,0,-1,1,0,11,53,53,36,15,6
1,0,-1,-1,2,-1,9,48,47,32,13,5
2,0,-2,-1,2,-1,8,44,42,29,12,5
2,0,-2,-1,2,-1,6,39,37,27,10,5
2,0,-1,-1,2,0,4,34,31,24,8,5
3,0,-1,-2,3,0,3,30,25,20,6,5
3,0,-2,-1,3,-1,3,27,21,16,5,5
3,-1,-3,-1,3,-2,2,23,17,12,3,4
2,-1,-3,-1,2,-2,2,18,13,9,2,3
2,-1,-4,0,2,-2,1,14,9,6,0,2
1,-3,-5,0,3,-4,1,11,5,4,-1,2
1,-4,-5,1,3,-5,0,9,2,2,-2,2
1,-4,-5,1,3,-5,0,6,0,0,-3,2
1,-4,-5,1,3,-5,0,4,-4,-1,-5,2
1,-4,-5,1,3,-5,0,1,-7,-4,-6,2
0,-4,-5,1,3,-5,0,-2,-10,-6,-8,1
0,-4,-5,2,3,-5,0,-4,-13,-9,-8,0
1,-5,-6,2,3,-6,0,-6,-14,-10,-9,0
1,-6,-7,2,4,-7,-1,-7,-16,-12,-9,0
1,-6,-7,2,4,-7,-2,-9,-18,-14,-11,-1
0,-7,-7,3,4,-7,-2,-9,-20,-15,-12,-2
0,-7,-6,3,3,-7,-2,-9,-21,-16,-12,-2
0,-8,-6,4,3,-7,-4,-11,-23,-18,-13,-3
-1,-8,-6,4,2,-7,-5,-13,-24,-19,-13,-3
-1,-8,-6,5,2,-6,-4,-15,-25,-21,-14,-4
-1,-7,-5,4,1,-5,-2,-14,-26,-23,-15,-4
0,-5,-5,3,1,-4,-2,-15,-28,-24,-16,-6
0,-5,-5,3,1,-4,-3,-16,-29,-26,-17,-7
0,-6,-5,3,2,-5,-4,-18,-30,-26,-17,-7
0,-7,-6,4,2,-7,-3,-18,-30,-26,-18,-7
0,-8,-7,4,3,-7,-3,-18,-31,-27,-18,-7
0,-8,-7,4,3,-7,-4,-18,-31,-28,-19,-8
0,-8,-7,4,3,-7,-4,-18,-31,-29,-18,-7
0,-8,-7,4,3,-8,-3,-18,-31,-30,-18,-7
0,-10,-9,5,4,-10,-2,-18,-31,-30,-17,-6
-1,-14,-12,7,5,-13,-1,-17,-30,-30,-16,-6
-2,-17,-14,9,6,-16,-1,-17,-30,-30,-16,-6
-2,-20,-17,10,8,-19,-1,-17,-30,-31,-15,-6
-1,-22,-20,11,9,-21,1,-15,-28,-30,-14,-5
0,-23,-21,11,11,-22,3,-14,-27,-31,-14,-5
1,-23,-22,11,12,-23,1,-16,-28,-33,-15,-6
0,-23,-23,11,12,-23,1,-16,-29,-33,-14,-6
0,-25,-23,12,11,-24,2,-15,-28,-32,-14,-5
-1,-26,-24,13,11,-25,2,-14,-28,-32,-14,-6
-2,-26,-24,14,11,-26,1,-14,-28,-33,-14,-7
-2,-26,-24,14,11,-26,1,-15,-28,-33,-14,-8
-2,-26,-24,14,11,-25,2,-14,-28,-33,-14,-8
-2,-26,-23,14,10,-25,3,-13,-28,-33,-14,-8
-2,-26,-23,14,10,-25,3,-14,-28,-33,-14,-8
-2,-26,-23,14,10,-25,3,-14,-28,-33,-15,-9
0,-27,-25,14,12,-26,2,-14,-28,-33,-15,-9
0,-27,-27,13,13,-27,2,-14,-28,-34,-16,-10
-1,-27,-26,14,12,-26,3,-13,-27,-33,-15,-10
-3,-28,-24,15,11,-26,4,-12,-26,-31,-14,-10
-2,-28,-25,15,11,-26,4,-12,-26,-30,-15,-10
0,-28,-26,14,13,-27,4,-12,-26,-30,-15,-11
0,-28,-26,14,13,-27,4,-12,-26,-31,-14,-10
0,-28,-26,14,13,-28,4,-12,-25,-32,-15,-10
0,-29,-27,15,13,-28,5,-11,-25,-32,-15,-10
-1,-28,-26,15,12,-27,5,-11,-24,-31,-14,-9
-1,-27,-24,14,11,-25,5,-10,-24,-29,-13,-9
-1,-25,-23,14,10,-24,4,-10,-24,-29,-13,-10
-1,-26,-24,14,11,-25,4,-10,-23,-29,-14,-10
-1,-27,-25,14,11,-26,4,-9,-23,-29,-14,-10
-1,-27,-25,14,11,-26,4,-8,-22,-29,-14,-9
-2,-26,-24,14,10,-25,4,-8,-21,-28,-14,-9
-1,-26,-24,14,11,-25,5,-7,-21,-28,-14,-9
-1,-26,-25,14,12,-25,4,-8,-21,-29,-14,-9
0,-26,-25,14,12,-25,4,-8,-21,-29,-14,-10
0,-26,-24,13,11,-24,4,-8,-21,-28,-14,-11
0,-25,-24,13,11,-24,5,-7,-20,-27,-13,-11
0,-26,-24,13,12,-25,5,-6,-20,-27,-13,-10
0,-26,-25,13,12,-26,5,-6,-19,-26,-13,-10
0,-26,-25,13,12,-26,4,-7,-19,-26,-13,-10
0,-26,-25,13,12,-26,3,-7,-18,-26,-13,-9
0,-25,-25,13,12,-25,3,-6,-18,-26,-13,-8
0,-26,-25,13,13,-26,4,-5,-17,-25,-12,-7
1,-26,-26,13,13,-26,4,-5,-17,-24,-12,-7
1,-26,-26,13,13,-26,3,-5,-17,-24,-12,-6
1,-26,-26,13,13,-26,3,-6,-17,-24,-12,-6
0,-26,-25,13,12,-26,3,-5,-17,-24,-11,-6
0,-26,-25,14,12,-26,4,-5,-16,-23,-11,-6
1,-26,-26,13,13,-26,4,-4,-16,-23,-10,-6
2,-25,-26,12,14,-25,3,-4,-16,-23,-10,-6
2,-24,-26,11,14,-25,2,-5,-16,-22,-10,-6
2,-25,-26,11,14,-25,2,-5,-15,-21,-9,-6
2,-25,-26,12,14,-25,3,-5,-15,-21,-8,-5
2,-24,-25,11,13,-24,3,-4,-15,-21,-9,-5
2,-23,-25,10,13,-24,3,-4,-15,-22,-10,-5
3,-23,-25,10,14,-24,3,-4,-15,-22,-10,-6
2,-23,-25,10,13,-24,2,-5,-15,-22,-10,-6
1,-23,-24,11,12,-23,2,-5,-15,-22,-10,-6
1,-23,-23,11,12,-23,3,-4,-15,-22,-10,-6
1,-22,-23,11,12,-22,3,-4,-15,-23,-11,-6
1,-22,-22,10,12,-22,1,-5,-16,-24,-12,-7
2,-22,-22,10,12,-22,1,-5,-17,-24,-11,-7
2,-21,-22,9,12,-22,1,-4,-17,-23,-10,-7
2,-20,-22,9,11,-21,2,-4,-16,-22,-9,-6
2,-20,-22,9,11,-21,2,-4,-16,-22,-9,-6
1,-21,-22,10,11,-21,3,-5,-16,-22,-9,-5
1,-21,-22,10,11,-21,5,-4,-15,-22,-10,-5
2,-21,-22,10,12,-21,5,-4,-15,-22,-10,-5
3,-21,-23,9,12,-21,5,-4,-15,-22,-9,-5
3,-20,-22,8,12,-21,6,-4,-15,-23,-9,-5
2,-19,-20,8,11,-20,6,-3,-15,-23,-9,-5
2,-18,-20,8,10,-19,7,-3,-15,-22,-9,-5
2,-18,-19,8,10,-19,8,-3,-15,-21,-9,-5
1,-17,-18,7,10,-17,10,-2,-15,-21,-9,-5
1,-16,-18,7,10,-16,12,-2,-14,-21,-8,-5
1,-16,-18,7,10,-16,14,-2,-14,-21,-8,-5
1,-16,-18,7,10,-16,15,-2,-14,-20,-8,-4
1,-17,-17,8,9,-17,14,-2,-14,-20,-7,-4
0,-16,-15,8,7,-16,13,-3,-14,-20,-7,-4
0,-14,-14,7,6,-14,13,-2,-15,-21,-7,-4
1,-14,-15,7,7,-15,13,-2,-15,-21,-8,-4
2,-15,-17,6,9,-16,11,-3,-15,-21,-8,-4
2,-14,-16,6,8,-15,8,-4,-15,-20,-7,-3
1,-13,-15,6,8,-14,6,-5,-15,-19,-7,-3
1,-11,-12,5,7,-12,5,-6,-15,-20,-7,-3
2,-9,-10,3,6,-10,4,-6,-16,-21,-9,-4
2,-8,-10,3,6,-9,2,-7,-17,-23,-10,-5
3,-9,-11,3,7,-10,0,-8,-18,-23,-10,-5
3,-9,-12,3,7,-10,-2,-9,-19,-23,-10,-5
3,-9,-12,3,7,-10,-4,-10,-19,-22,-10,-5
2,-9,-11,3,6,-10,-6,-11,-19,-23,-10,-6
1,-8,-9,3,5,-9,-6,-11,-20,-24,-10,-6
1,-8,-8,3,5,-8,-6,-12,-20,-24,-10,-5
2,-7,-8,2,5,-8,-6,-12,-21,-24,-10,-5
3,-6,-8,1,6,-7,-6,-12,-21,-24,-10,-5
3,-5,-7,0,5,-6,-6,-12,-22,-24,-11,-5
3,-5,-6,0,4,-6,-7,-14,-23,-24,-11,-5
3,-4,-6,0,4,-5,-8,-16,-24,-25,-12,-5
4,-4,-7,0,5,-5,-9,-16,-25,-25,-12,-5
5,-3,-7,-1,6,-5,-9,-16,-25,-25,-12,-5
6,-2,-8,-1,7,-5,-10,-17,-25,-25,-12,-5
7,-2,-8,-1,7,-5,-11,-18,-26,-26,-12,-5
7,-3,-9,-1,7,-5,-11,-18,-26,-26,-13,-5
7,-4,-11,-1,8,-7,-11,-18,-25,-26,-13,-5
8,-4,-12,-2,9,-8,-10,-17,-25,-26,-13,-4
9,-4,-13,-2,10,-9,-9,-17,-24,-26,-13,-4
9,-4,-13,-2,10,-8,-9,-16,-24,-26,-13,-4
9,-4,-12,-2,10,-8,-8,-16,-24,-25,-13,-4
9,-4,-13,-2,10,-8,-8,-16,-24,-25,-13,-4
10,-5,-14,-2,11,-9,-8,-16,-24,-26,-13,-4
9,-6,-15,-1,12,-10,-7,-16,-23,-26,-13,-4
9,-7,-15,-1,12,-11,-5,-14,-23,-25,-13,-3
8,-7,-15,-1,12,-11,-4,-14,-22,-24,-13,-3
8,-7,-14,0,11,-11,-4,-14,-23,-25,-13,-4
6,-8,-14,1,10,-11,-4,-14,-22,-24,-13,-4
5,-9,-14,3,9,-12,-1,-13,-21,-23,-13,-4
3,-11,-13,4,8,-12,0,-12,-21,-23,-14,-5
1,-12,-12,5,7,-12,0,-14,-23,-24,-15,-7
0,-12,-12,6,6,-12,0,-15,-24,-24,-16,-7
0,-13,-12,7,5,-12,1,-14,-23,-24,-16,-7
-2,-14,-12,8,4,-13,3,-13,-23,-23,-16,-7
-3,-16,-12,9,4,-14,3,-13,-23,-23,-16,-8
-3,-16,-13,10,5,-14,3,-13,-23,-23,-16,-8
-2,-17,-14,10,6,-15,4,-12,-23,-23,-16,-8
-1,-17,-15,10,6,-15,5,-11,-23,-22,-16,-8
-2,-17,-15,10,6,-15,6,-9,-22,-22,-16,-8
-2,-17,-14,10,6,-15,5,-9,-23,-22,-17,-9
-2,-16,-13,9,5,-15,2,-11,-24,-23,-17,-10
-2,-15,-13,9,5,-14,1,-14,-24,-24,-18,-10
-2,-16,-13,9,4,-14,1,-15,-24,-24,-18,-9
-4,-16,-12,10,3,-14,2,-15,-24,-23,-18,-8
-5,-15,-10,11,2,-13,4,-13,-23,-22,-17,-7
-5,-15,-9,11,2,-12,5,-12,-23,-22,-17,-7
-6,-16,-10,12,1,-13,5,-13,-23,-21,-17,-7
-5,-17,-11,12,2,-14,4,-13,-23,-21,-17,-7
-4,-16,-11,11,2,-14,5,-12,-23,-21,-17,-7
-4,-16,-12,10,3,-14,6,-11,-22,-21,-17,-7
-4,-17,-12,11,3,-15,7,-10,-21,-20,-17,-6
-5,-18,-12,12,2,-15,7,-9,-21,-20,-17,-7
-5,-18,-12,11,2,-14,7,-9,-21,-20,-18,-9
-4,-18,-12,11,3,-14,8,-8,-19,-21,-20,-10
-3,-17,-13,10,4,-14,11,-3,-15,-19,-20,-11
-3,-17,-13,10,4,-14,15,4,-8,-16,-20,-12
-3,-16,-12,10,4,-14,17,13,1,-11,-19,-12
-3,-15,-11,10,3,-13,22,26,14,-3,-14,-11
-3,-14,-10,9,3,-12,28,40,27,6,-7,-6
-2,-12,-10,7,3,-11,34,50,37,17,2,0
0,-11,-11,6,5,-11,37,52,42,27,13,6
3,-10,-13,3,7,-11,37,46,41,33,25,14
8,-7,-14,0,10,-10,35,36,35,38,38,26
13,-1,-14,-5,13,-7,30,24,28,43,54,40
19,4,-14,-11,16,-5,25,14,23,49,73,57
26,10,-16,-18,21,-3,20,5,20,55,93,76
34,17,-17,-25,25,0,12,-6,15,60,114,96
43,26,-16,-34,30,4,-1,-19,9,65,136,118
55,37,-16,-45,35,10,-22,-36,3,70,161,144
69,49,-18,-58,43,15,-52,-54,-3,75,184,170
83,59,-22,-71,52,18,-88,-73,-9,76,201,191
96,67,-27,-81,61,20,-125,-89,-13,75,211,208
105,72,-32,-88,68,21,-158,-103,-20,72,213,217
109,76,-32,-93,70,22,-183,-116,-31,65,206,219
110,75,-35,-92,72,20,-199,-128,-45,53,190,211
106,63,-43,-84,74,10,-203,-138,-60,35,165,192
96,44,-52,-70,74,-4,-195,-145,-75,14,129,161
80,24,-55,-51,67,-15,-178,-148,-89,-9,86,119
62,6,-55,-33,58,-24,-156,-146,-100,-32,40,74
44,-7,-51,-17,47,-29,-130,-138,-105,-52,2,36
28,-15,-44,-6,35,-29,-103,-125,-106,-66,-26,9
16,-17,-34,1,24,-25,-77,-106,-99,-72,-42,-6
9,-16,-26,4,17,-21,-56,-86,-86,-69,-47,-14
5,-15,-20,5,12,-17,-39,-68,-71,-62,-46,-16
2,-14,-16,6,9,-15,-25,-53,-57,-53,-42,-16
0,-14,-13,8,6,-14,-15,-41,-45,-46,-37,-16
-3,-16,-12,10,4,-14,-7,-31,-35,-39,-33,-16
-4,-17,-12,11,3,-14,0,-23,-28,-33,-29,-15
-5,-17,-11,11,3,-14,4,-17,-22,-28,-27,-15
-6,-17,-11,11,2,-13,7,-13,-18,-25,-25,-15
-6,-18,-11,12,2,-14,10,-8,-14,-23,-24,-14
-7,-20,-13,13,2,-16,13,-4,-11,-20,-22,-13
-7,-21,-13,14,2,-17,15,-2,-9,-18,-20,-12
-6,-19,-12,13,2,-16,15,-2,-8,-18,-19,-12
-6,-17,-10,12,1,-14,16,-1,-8,-17,-19,-12
-6,-16,-9,12,1,-13,17,0,-7,-16,-19,-12
-6,-16,-10,12,2,-13,18,1,-7,-15,-19,-12
-6,-17,-11,12,3,-14,18,1,-6,-15,-19,-12
-6,-17,-11,12,2,-14,18,1,-6,-14,-19,-12
-6,-17,-10,12,1,-13,19,3,-5,-14,-18,-11
-6,-17,-9,12,0,-13,20,4,-4,-14,-18,-11
-5,-17,-9,12,1,-13,19,3,-4,-14,-19,-11
-5,-16,-9,11,1,-13,19,3,-4,-14,-19,-12
-5,-16,-9,11,2,-13,19,3,-3,-14,-19,-12
-6,-15,-9,11,2,-12,19,2,-3,-13,-19,-12
-6,-15,-9,11,2,-12,19,2,-3,-12,-18,-12
-6,-15,-9,11,1,-12,19,2,-3,-11,-18,-12
-6,-14,-8,11,1,-11,20,4,-2,-10,-17,-11
-6,-15,-8,11,0,-11,20,5,-2,-10,-17,-11
-6,-15,-8,11,0,-12,20,5,-1,-9,-17,-11
-6,-15,-8,11,0,-12,20,5,-1,-9,-16,-11
-6,-14,-7,10,0,-11,21,5,-1,-9,-16,-11
-6,-13,-7,11,0,-10,22,4,-1,-9,-16,-11
-8,-14,-6,12,-1,-10,21,3,-1,-8,-15,-11
-8,-15,-7,12,-1,-10,21,4,0,-7,-15,-10
-7,-15,-8,12,0,-11,22,6,1,-6,-15,-10
-5,-16,-9,11,1,-12,21,6,1,-6,-15,-11
-5,-16,-9,11,1,-12,20,5,0,-6,-16,-11
-6,-15,-8,11,0,-12,20,5,1,-5,-15,-11
-6,-15,-8,11,0,-12,21,6,3,-4,-14,-10
-6,-15,-8,10,0,-12,21,5,4,-4,-14,-10
-6,-13,-6,10,0,-10,21,5,4,-4,-14,-10
-7,-13,-6,10,0,-10,21,5,4,-4,-14,-10
-7,-14,-6,11,0,-10,21,7,4,-4,-14,-10
-6,-14,-7,10,0,-10,22,9,4,-4,-14,-9
-6,-14,-7,10,1,-10,21,9,4,-4,-14,-10
-6,-14,-7,10,0,-10,20,9,4,-5,-14,-10
-7,-13,-6,10,-1,-9,20,9,4,-5,-14,-10
-8,-13,-5,11,-1,-9,20,9,5,-4,-13,-9
-8,-14,-6,12,-1,-10,20,9,5,-4,-13,-9
-8,-15,-6,12,-1,-11,20,9,6,-3,-13,-9
-8,-13,-5,11,-1,-9,21,10,6,-3,-13,-9
-7,-12,-4,10,-1,-8,20,10,6,-3,-13,-9
-6,-12,-5,10,-1,-9,19,10,6,-2,-13,-9
-5,-12,-6,9,0,-10,19,11,7,-1,-13,-9
-4,-12,-7,9,0,-10,19,11,8,-1,-13,-9
-5,-12,-7,9,0,-10,19,11,9,-1,-13,-9
-6,-12,-6,9,0,-10,19,11,9,-1,-13,-8
-6,-12,-6,9,0,-10,19,12,10,0,-13,-8
-7,-12,-5,9,-1,-9,19,12,10,0,-13,-8
-8,-11,-3,9,-2,-7,19,14,11,1,-12,-8
-7,-11,-4,9,-1,-7,19,14,12,1,-12,-8
-6,-12,-6,9,0,-8,18,14,12,2,-12,-8
-6,-12,-6,9,0,-9,18,15,13,2,-12,-7
-6,-12,-5,9,0,-9,18,16,14,2,-12,-7
-6,-11,-5,9,0,-9,18,17,15,2,-12,-7
-6,-12,-6,9,0,-10,19,18,16,3,-11,-7
-6,-13,-7,9,0,-11,19,19,17,3,-11,-7
-6,-13,-7,9,0,-10,19,19,18,3,-11,-7
-6,-13,-6,10,0,-10,19,20,19,4,-10,-6
-8,-13,-5,11,-1,-9,20,23,21,6,-9,-5
-8,-12,-3,11,-3,-8,21,26,23,7,-8,-5
-7,-12,-4,10,-2,-8,21,27,25,8,-8,-5
-6,-12,-4,9,-1,-8,20,28,26,8,-8,-6
-7,-11,-4,9,-1,-7,20,29,27,8,-8,-6
-8,-12,-3,9,-3,-7,20,30,28,9,-8,-6
-9,-11,-2,9,-4,-6,19,32,30,10,-7,-5
-8,-11,-2,8,-3,-6,19,34,31,10,-7,-5
-7,-10,-2,8,-3,-6,20,36,33,11,-7,-5
-7,-10,-2,8,-3,-6,21,38,36,12,-7,-5
-7,-11,-3,8,-2,-7,22,41,39,14,-5,-5
-6,-11,-4,8,-1,-7,22,43,41,16,-4,-5
-6,-11,-5,8,-1,-7,23,45,44,18,-4,-5
-6,-10,-4,8,-1,-7,23,48,47,19,-3,-5
-6,-9,-3,7,-2,-6,23,50,49,20,-3,-5
-6,-8,-2,7,-2,-5,23,54,53,22,-2,-4
-6,-8,-1,7,-3,-4,25,58,56,24,-1,-4
-6,-8,0,7,-3,-4,26,62,60,26,0,-3
-6,-8,0,7,-3,-4,25,65,63,29,2,-3
-7,-8,0,8,-3,-4,25,67,68,31,3,-2
-7,-8,0,7,-3,-4,27,71,72,33,4,-2
-6,-6,0,6,-2,-4,27,75,75,35,5,-2
-5,-5,0,5,-2,-3,27,77,78,37,5,-2
-5,-6,0,6,-3,-3,27,80,81,39,7,-2
-5,-7,-1,6,-3,-4,28,84,86,42,9,-1
-5,-7,0,6,-3,-4,29,88,90,44,11,0
-5,-5,1,5,-4,-1,29,92,94,47,12,0
-5,-3,2,4,-4,0,28,94,97,49,14,0
-5,-3,2,4,-4,0,28,96,101,51,15,1
-6,-3,2,4,-4,0,29,98,105,54,17,2
-7,-3,3,5,-5,0,30,100,108,57,19,3
-7,-3,4,5,-6,0,30,102,109,59,21,4
-6,-2,4,4,-6,0,30,104,110,60,22,4
-6,-2,5,4,-6,1,29,105,111,61,24,5
-7,-1,6,4,-7,2,28,106,113,63,25,6
-8,0,8,4,-8,3,28,107,114,64,26,7
-8,1,10,4,-9,5,28,108,115,65,27,8
-8,2,11,3,-9,6,28,108,115,66,28,9
-8,2,10,3,-9,6,27,107,115,67,29,10
-8,2,10,3,-9,5,26,104,113,66,30,11
-7,3,10,2,-8,6,25,102,112,66,30,11
-7,2,10,2,-9,5,25,101,111,66,31,12
-8,0,9,3,-9,4,24,99,109,66,31,13
-8,0,8,3,-8,3,22,96,107,65,31,13
-6,2,8,2,-8,4,21,93,104,64,31,14
-5,3,8,1,-7,5,20,90,100,62,30,15
-5,4,9,0,-7,6,19,85,95,59,29,15
-6,4,9,1,-8,6,18,79,90,57,28,16
-6,3,9,2,-8,5,18,76,86,56,28,18
-7,2,9,2,-8,5,18,73,81,54,28,19
-7,2,10,2,-8,6,16,68,76,50,26,19
-7,3,11,2,-9,8,13,63,70,47,24,18
-6,4,12,1,-9,8,12,58,65,43,22,18
-6,4,10,1,-8,7,11,53,59,40,21,17
-5,3,8,1,-6,5,9,48,54,37,20,17
-5,3,7,1,-5,4,10,45,50,35,20,18
-4,3,7,0,-5,5,10,42,45,32,18,19
-3,3,6,0,-4,4,8,36,40,28,16,18
-2,3,5,0,-3,4,5,30,34,24,13,17
-3,2,6,0,-4,4,5,26,31,22,12,18
-5,3,8,1,-7,5,6,25,28,20,11,18
-7,2,9,1,-8,5,5,22,24,18,9,18
-6,0,6,2,-6,3,3,16,20,14,7,16
-5,-1,4,2,-4,1,3,13,17,12,6,16
-4,-1,3,2,-4,1,4,12,15,10,5,17
-4,-1,3,2,-4,1,4,9,12,8,3,17
-3,-2,3,3,-3,0,3,7,10,7,2,17
-4,-3,2,3,-3,-1,3,5,8,6,2,18
-4,-3,2,4,-3,-1,3,3,7,6,2,18
-4,-3,2,4,-4,-1,3,2,5,5,2,18
-4,-2,2,3,-4,0,2,0,2,3,1,17
-4,-2,2,2,-4,0,1,-3,0,1,0,16
-5,-4,1,4,-4,-1,1,-5,-2,1,0,17
-6,-5,1,5,-4,-2,2,-5,-2,1,0,18
-6,-5,1,6,-4,-2,2,-6,-3,0,0,18
-6,-5,2,5,-4,-2,1,-9,-5,-1,0,17
-6,-5,2,5,-4,-2,0,-10,-5,-2,0,16
-7,-5,2,6,-4,-2,0,-10,-5,-2,0,16
-7,-5,2,6,-4,-1,1,-10,-6,-2,0,15
-8,-5,2,6,-5,-1,1,-12,-7,-4,-1,15
-8,-6,2,6,-5,-1,1,-13,-8,-4,-1,15
-7,-6,1,6,-4,-2,2,-13,-8,-4,-1,15
-6,-7,0,6,-3,-3,1,-13,-9,-4,-1,14
-5,-7,-1,6,-1,-4,1,-14,-9,-4,-2,13
-6,-7,-1,6,-2,-4,1,-13,-9,-4,-2,13
-7,-6,0,6,-3,-3,1,-13,-9,-5,-3,12
-7,-6,1,6,-4,-2,0,-14,-10,-6,-3,11
-7,-6,1,6,-4,-2,0,-16,-11,-7,-4,10
-6,-6,0,6,-4,-3,0,-17,-11,-7,-4,10
-5,-6,0,6,-3,-3,1,-17,-11,-6,-3,10
-6,-6,0,6,-4,-3,1,-17,-11,-6,-3,10
-6,-5,1,7,-5,-2,0,-17,-12,-7,-3,10
-7,-5,2,6,-5,-2,0,-17,-12,-7,-4,9
-7,-6,1,6,-5,-2,0,-17,-12,-7,-3,9
-8,-7,0,7,-4,-3,1,-17,-12,-6,-2,9
-8,-8,0,8,-4,-4,1,-17,-12,-6,-2,9
-9,-9,0,8,-5,-4,1,-17,-12,-6,-2,8
-8,-8,0,8,-5,-3,2,-17,-11,-5,-2,8
-7,-7,0,7,-4,-3,2,-17,-11,-5,-2,7
-6,-7,0,6,-3,-4,2,-17,-11,-6,-3,7
-6,-7,0,7,-3,-4,2,-16,-11,-7,-5,6
-7,-8,0,7,-3,-4,2,-15,-10,-7,-5,5
-7,-8,-1,7,-3,-4,1,-15,-10,-6,-5,5
-7,-9,-1,8,-3,-5,1,-16,-10,-6,-4,5
-7,-8,0,8,-4,-4,2,-15,-9,-6,-4,5
-8,-8,1,8,-5,-3,3,-15,-9,-6,-4,5
-8,-7,2,8,-6,-2,2,-15,-9,-6,-4,4
-8,-6,3,7,-6,-1,2,-16,-9,-6,-3,4
-7,-6,2,6,-5,-2,3,-16,-8,-5,-3,5
-7,-7,1,7,-4,-3,3,-15,-8,-6,-4,5
-7,-7,0,7,-3,-4,2,-15,-8,-7,-5,4
-7,-7,0,7,-3,-4,3,-14,-8,-7,-5,4
-6,-7,-1,7,-3,-4,4,-13,-7,-5,-4,4
-6,-8,-1,7,-3,-4,5,-12,-6,-4,-4,4
-6,-8,-1,7,-3,-5,5,-12,-5,-4,-4,3
-7,-9,-1,8,-3,-5,5,-13,-5,-5,-5,3
-7,-9,0,8,-4,-5,5,-13,-5,-5,-5,2
-7,-8,0,7,-4,-5,5,-12,-5,-4,-5,2
-7,-9,-1,7,-4,-5,5,-13,-5,-3,-4,2
-7,-9,-1,7,-3,-5,5,-13,-4,-2,-3,2
-7,-9,-1,7,-4,-5,6,-12,-4,-2,-2,3
-7,-7,0,7,-4,-3,6,-11,-4,-2,-3,3
-6,-6,1,6,-4,-2,6,-12,-4,-3,-4,2
-5,-6,0,6,-3,-2,6,-12,-4,-3,-4,2
-5,-6,0,6,-3,-2,7,-10,-2,-3,-4,2
-6,-6,0,6,-4,-2,7,-9,-1,-3,-4,2
-6,-6,0,6,-4,-3,6,-9,-1,-2,-3,1
-6,-6,0,6,-4,-3,6,-10,-1,-2,-3,1
-6,-7,0,6,-4,-4,6,-10,-1,0,-1,1
-6,-7,0,7,-4,-4,7,-8,0,0,0,2
-6,-7,0,7,-4,-4,8,-7,1,1,0,2
-6,-7,0,6,-3,-3,8,-7,1,1,-1,1
-6,-7,0,6,-3,-3,7,-8,1,1,-1,1
-7,-8,0,7,-3,-4,7,-8,1,2,0,2
-6,-7,0,7,-3,-4,8,-8,1,2,0,2
-5,-6,0,5,-2,-4,7,-8,1,2,0,2
-4,-6,-1,5,-2,-4,7,-9,0,1,0,2
-4,-6,-1,5,-1,-4,7,-8,0,1,0,2
-4,-7,-2,5,-1,-5,8,-7,0,1,0,2
-5,-7,-1,6,-2,-4,9,-7,0,1,0,2
-5,-6,0,5,-2,-3,10,-6,0,1,0,2
-5,-6,0,5,-2,-3,10,-5,0,0,-1,1
-5,-7,-1,5,-2,-4,9,-5,0,0,-2,0
-6,-7,0,6,-3,-4,8,-5,0,0,-2,0
-7,-6,1,6,-5,-3,8,-5,1,0,-1,1
-7,-6,2,6,-5,-2,9,-5,0,0,-1,1
-6,-6,0,5,-4,-3,9,-5,0,0,-1,1
-4,-7,-2,5,-1,-4,9,-5,0,0,0,2
-2,-7,-4,4,0,-5,9,-4,0,2,2,3
-1,-6,-4,3,1,-4,9,-4,0,2,2,3
-1,-5,-4,3,1,-4,9,-5,-1,2,2,3
-1,-6,-4,3,1,-4,9,-5,-1,1,1,2
-1,-5,-3,2,1,-3,10,-5,-1,1,1,2
-1,-4,-2,2,0,-2,12,-4,0,1,1,2
-1,-3,-1,1,0,-2,12,-4,0,1,1,1
-1,-2,0,1,-1,0,13,-5,0,1,1,1
-2,-1,1,1,-2,0,14,-4,0,2,1,0
-2,-1,1,1,-2,0,15,-4,0,2,1,0
-1,-2,0,1,0,-1,17,-4,0,2,2,1
-1,-3,-1,1,0,-2,18,-4,0,2,2,1
-1,-2,-1,1,0,-1,19,-5,0,2,2,1
-1,-1,0,0,0,0,20,-4,0,2,2,1
0,0,0,0,-1,0,21,-3,0,2,2,1
0,0,1,0,-1,1,21,-3,0,2,2,1
0,0,1,0,-1,1,18,-6,-2,1,1,0
0,2,2,-1,-1,2,15,-7,-2,1,1,0
1,3,3,-3,-1,3,14,-5,-1,2,2,1
1,4,3,-3,-1,4,11,-5,-1,2,1,1
1,4,3,-3,-1,4,9,-6,-2,1,1,1
1,3,2,-3,0,3,9,-6,-2,1,1,1
1,2,1,-2,0,2,8,-6,-2,2,1,0
1,2,2,-2,0,2,6,-7,-2,2,1,0
0,1,2,-1,-1,2,4,-8,-3,3,2,0
0,0,2,0,-1,1,4,-8,-2,3,3,1
0,0,2,-1,0,1,3,-7,-2,3,4,1
0,1,2,-1,-1,2,2,-9,-3,2,4,1
0,2,3,-1,-1,2,1,-10,-4,2,3,1
0,2,3,-1,-1,3,2,-10,-5,1,1,0
1,3,3,-2,-1,3,1,-11,-7,0,0,-1
1,3,3,-3,-1,3,0,-13,-8,0,0,-1
1,2,2,-2,-1,3,0,-14,-8,0,1,-1
1,2,2,-2,-1,2,0,-15,-9,0,1,-1
2,3,2,-3,0,3,-1,-15,-10,-1,1,-1
3,4,2,-4,0,3,-1,-15,-11,-2,0,-1
4,4,0,-5,1,2,-1,-15,-11,-2,0,-1
5,4,-1,-5,3,1,-2,-16,-11,-2,0,0
7,3,-2,-5,4,0,-3,-16,-11,-2,0,0
8,3,-3,-6,5,0,-4,-16,-11,-3,0,0
8,4,-3,-6,5,0,-5,-18,-12,-4,0,0
8,4,-3,-6,5,0,-4,-18,-11,-3,0,0
7,3,-3,-5,5,0,-1,-15,-10,-1,1,0
7,2,-4,-5,5,-1,0,-14,-11,-1,1,0
7,2,-5,-5,6,-1,-1,-16,-12,-3,0,0
7,1,-6,-5,6,-2,-1,-16,-12,-4,0,0
7,0,-6,-5,7,-2,0,-16,-12,-4,0,0
7,0,-7,-4,7,-3,1,-15,-12,-5,0,0
7,-1,-8,-3,8,-4,2,-14,-11,-5,0,0
6,-2,-8,-2,7,-5,4,-14,-11,-4,0,0
5,-2,-7,-1,6,-5,5,-14,-11,-4,-1,-1
4,-3,-7,0,5,-5,6,-14,-11,-4,-2,-2
3,-4,-7,0,5,-5,6,-14,-11,-4,-2,-3
2,-5,-8,2,4,-6,7,-13,-11,-3,-1,-3
1,-6,-7,3,3,-6,7,-13,-11,-3,-1,-3
-1,-7,-5,4,2,-6,7,-14,-11,-4,-2,-4
-2,-9,-6,6,2,-8,7,-15,-12,-5,-3,-5
-2,-10,-7,6,2,-9,8,-14,-11,-5,-3,-6
-3,-11,-6,7,1,-9,9,-14,-11,-5,-4,-6
-3,-11,-6,7,0,-8,8,-14,-12,-7,-5,-7
-4,-11,-5,7,0,-8,7,-15,-13,-7,-5,-8
-4,-11,-6,7,0,-8,7,-15,-12,-7,-5,-8
-4,-11,-6,7,0,-8,8,-14,-12,-6,-4,-8
-4,-11,-6,7,0,-8,8,-14,-12,-6,-4,-8
-4,-11,-6,7,0,-8,8,-14,-12,-6,-5,-9
-5,-12,-7,8,0,-9,8,-14,-12,-7,-6,-10
-5,-14,-7,9,1,-10,8,-14,-11,-7,-5,-9
-5,-14,-7,9,1,-10,8,-15,-12,-6,-5,-9
-4,-13,-8,8,2,-10,8,-15,-12,-6,-5,-8
-3,-13,-8,8,2,-11,8,-14,-12,-6,-5,-8
-4,-12,-7,8,1,-10,7,-15,-13,-7,-5,-9
-5,-11,-5,8,0,-8,6,-15,-13,-7,-6,-10
-5,-9,-4,7,0,-7,6,-15,-13,-7,-5,-10
-5,-9,-4,7,0,-7,6,-14,-12,-6,-5,-10
-5,-10,-4,8,0,-7,6,-13,-12,-7,-6,-10
-6,-11,-5,8,0,-7,7,-12,-11,-7,-7,-10
-5,-11,-6,8,0,-8,8,-10,-10,-6,-7,-11
-5,-12,-7,8,1,-9,10,-7,-7,-5,-7,-11
-5,-12,-7,9,0,-9,14,0,-2,-3,-7,-12
-6,-12,-6,9,0,-9,19,9,7,2,-5,-12
-6,-11,-5,8,0,-8,24,23,19,9,-1,-11
-5,-9,-4,7,0,-7,28,35,31,18,4,-10
-4,-7,-3,5,0,-5,33,44,41,27,11,-6
-1,-5,-3,3,0,-4,37,48,49,36,21,0
1,-4,-5,2,3,-5,39,47,52,45,34,8
4,-3,-7,0,6,-6,38,39,48,52,48,20
9,1,-8,-6,9,-4,35,27,41,57,64,35
16,8,-8,-13,12,0,30,15,34,63,81,51
23,16,-7,-20,16,3,24,3,28,68,100,68
31,22,-8,-28,20,6,15,-9,22,73,120,87
41,29,-11,-36,26,8,3,-24,16,77,141,108
53,38,-14,-46,33,12,-14,-40,9,81,163,132
67,50,-16,-59,41,17,-41,-59,1,83,184,157
81,60,-20,-71,51,20,-75,-77,-5,85,202,180
95,69,-25,-83,61,21,-111,-92,-10,84,214,198
105,75,-29,-91,68,23,-146,-107,-18,79,217,209
111,80,-30,-97,71,25,-174,-122,-30,71,209,212
113,81,-32,-98,73,24,-193,-136,-45,57,193,206
110,71,-39,-91,74,15,-202,-148,-61,40,169,188
101,51,-49,-76,75,1,-200,-156,-76,20,137,159
86,30,-55,-58,70,-12,-186,-160,-90,-2,96,120
67,12,-54,-40,60,-20,-165,-158,-101,-25,52,75
50,-1,-50,-24,50,-26,-140,-150,-107,-45,13,35
34,-9,-44,-13,40,-27,-113,-137,-108,-60,-16,7
22,-13,-36,-5,29,-25,-87,-120,-104,-67,-33,-11
13,-15,-28,0,21,-22,-66,-102,-92,-65,-39,-20
8,-14,-23,2,15,-19,-47,-83,-76,-57,-38,-23
5,-14,-19,4,12,-17,-32,-66,-62,-49,-34,-24
3,-14,-17,5,10,-16,-22,-53,-50,-42,-31,-25
2,-14,-16,6,9,-15,-14,-42,-40,-35,-28,-25
1,-14,-15,6,8,-14,-7,-33,-31,-29,-24,-23
0,-13,-14,6,7,-13,-1,-26,-24,-24,-21,-22
0,-13,-13,6,6,-13,2,-21,-20,-20,-18,-21
0,-13,-13,6,6,-13,6,-17,-16,-15,-15,-20
0,-13,-13,6,6,-13,8,-14,-13,-13,-14,-20
0,-13,-13,6,6,-13,9,-11,-11,-12,-13,-20
0,-13,-13,7,6,-13,10,-8,-9,-11,-12,-20
0,-13,-12,6,6,-13,11,-7,-8,-11,-11,-19
0,-12,-11,6,5,-11,12,-6,-7,-10,-11,-19
-1,-11,-8,5,4,-9,13,-6,-7,-9,-11,-19
-2,-10,-7,5,3,-8,13,-6,-6,-8,-11,-19
-2,-10,-7,6,3,-9,13,-5,-6,-6,-10,-19
-2,-12,-9,6,4,-10,14,-5,-5,-6,-9,-19
-2,-13,-10,7,5,-12,15,-4,-5,-6,-8,-19
-1,-13,-11,7,5,-12,15,-4,-5,-6,-8,-20
-1,-11,-9,6,4,-11,14,-5,-6,-7,-9,-20
-2,-11,-9,6,3,-10,14,-4,-5,-7,-9,-20
-2,-11,-9,7,3,-10,14,-3,-4,-5,-9,-20
-2,-11,-8,7,3,-10,14,-2,-3,-5,-9,-20
-2,-11,-8,6,3,-9,14,-2,-3,-5,-9,-20
-2,-11,-8,6,3,-9,15,-2,-3,-6,-9,-20
-3,-11,-7,6,2,-9,15,-2,-3,-5,-9,-20
-3,-11,-7,6,2,-9,15,-2,-3,-4,-9,-19
-1,-11,-9,6,4,-10,15,-1,-3,-4,-9,-19
-1,-12,-11,6,5,-11,15,-1,-3,-4,-9,-19
-1,-11,-10,6,4,-10,16,0,-2,-4,-8,-18
-2,-11,-8,7,2,-9,16,0,-2,-3,-8,-18
-2,-11,-8,7,2,-9,16,0,-2,-4,-8,-18
-2,-11,-8,7,2,-10,16,0,-2,-4,-8,-18
-2,-11,-8,7,3,-10,16,0,-2,-3,-8,-18
-1,-11,-8,6,3,-10,15,-1,-2,-3,-8,-19
-1,-9,-8,5,3,-9,13,-3,-3,-3,-7,-20
-1,-8,-6,4,2,-8,13,-2,-3,-3,-8,-21
-1,-8,-6,4,2,-7,13,-1,-3,-4,-9,-21
-1,-9,-7,5,3,-8,13,0,-2,-3,-8,-21
0,-10,-8,5,4,-9,13,0,0,-2,-8,-21
-1,-10,-8,5,3,-9,13,0,0,-1,-8,-21
-2,-11,-7,6,3,-9,14,0,0,-2,-8,-21
-2,-11,-8,6,3,-9,13,0,0,-2,-8,-22
-2,-11,-9,6,3,-10,13,1,0,-2,-8,-22
-2,-12,-9,6,3,-11,12,2,0,-2,-8,-22
-1,-11,-9,6,4,-11,11,2,1,-2,-8,-22
-1,-10,-9,5,4,-9,11,2,1,-2,-8,-22
0,-10,-8,5,3,-9,11,3,1,-1,-7,-21
0,-11,-9,5,4,-9,11,4,2,-1,-6,-20
0,-11,-9,5,4,-10,11,4,2,-1,-6,-20
0,-10,-9,5,4,-10,11,4,2,-1,-7,-20
0,-10,-9,5,4,-10,11,5,3,0,-8,-20
0,-10,-9,5,4,-10,11,5,3,0,-8,-20
0,-10,-9,5,5,-10,11,4,3,-1,-8,-21
-1,-10,-9,5,4,-10,11,5,3,-1,-8,-22
-1,-9,-7,5,3,-8,12,6,4,0,-7,-23
-1,-8,-6,4,3,-7,11,6,4,0,-7,-23
0,-7,-6,3,3,-6,10,5,4,0,-8,-23
0,-7,-6,3,3,-6,10,5,4,0,-8,-23
-1,-8,-5,4,2,-7,10,6,6,1,-7,-22
-2,-9,-6,5,2,-8,10,8,7,2,-6,-22
-2,-10,-7,5,3,-9,10,9,8,2,-6,-21
0,-9,-8,4,3,-8,11,9,9,2,-7,-22
0,-8,-7,4,3,-7,11,10,9,2,-7,-22
0,-8,-6,4,3,-7,11,10,9,2,-7,-22
-1,-10,-7,5,3,-9,11,11,10,3,-6,-22
-2,-11,-7,6,2,-9,11,13,11,3,-5,-21
-2,-10,-6,7,2,-9,11,16,13,4,-4,-21
-2,-10,-7,6,2,-9,12,17,14,5,-3,-21
-1,-9,-7,6,3,-8,11,18,15,4,-5,-22
-1,-8,-6,5,2,-7,12,19,17,5,-6,-23
0,-8,-7,5,3,-7,13,20,19,6,-5,-23
1,-8,-8,4,4,-8,12,21,20,6,-5,-24
2,-8,-9,4,5,-8,12,22,21,7,-4,-24
1,-8,-9,4,5,-8,13,25,24,9,-2,-24
1,-8,-9,4,5,-9,14,27,26,11,-1,-23
0,-9,-8,4,5,-9,13,28,28,11,-2,-23
0,-9,-8,4,4,-9,13,30,29,12,-2,-24
0,-9,-7,4,4,-8,14,32,32,13,-2,-24
-1,-8,-6,4,3,-7,15,35,35,16,0,-23
-1,-8,-5,4,2,-7,16,38,38,18,1,-23
-1,-8,-6,5,2,-7,17,41,42,19,2,-23
0,-8,-6,4,3,-7,18,45,45,20,2,-23
0,-7,-6,3,3,-7,18,48,48,21,2,-24
0,-6,-7,3,4,-7,17,49,50,21,2,-25
1,-6,-8,2,4,-7,18,52,54,23,2,-25
1,-6,-7,2,4,-7,20,58,58,27,4,-24
1,-6,-6,2,4,-6,21,62,62,30,7,-23
1,-6,-6,2,4,-6,20,64,66,32,8,-23
1,-5,-5,2,4,-5,21,66,70,34,9,-22
1,-5,-4,2,3,-5,22,71,74,38,11,-21
0,-5,-4,2,2,-4,22,76,77,40,12,-20
0,-5,-4,2,2,-4,22,79,81,42,14,-20
0,-4,-3,2,1,-4,23,82,85,45,16,-19
0,-3,-2,2,1,-3,25,86,88,48,18,-18
0,-2,-2,1,1,-2,24,87,91,51,20,-17
1,-2,-3,0,2,-2,23,87,93,51,21,-17
2,-1,-2,0,2,-1,24,90,96,52,23,-16
2,0,-1,-1,1,0,25,93,98,55,26,-15
2,0,0,-1,1,0,23,94,99,56,26,-15
1,1,1,-1,0,1,22,93,100,56,25,-16
1,2,1,-2,0,2,22,94,101,57,25,-16
1,2,1,-2,0,2,22,95,102,59,26,-15
1,3,2,-3,0,3,22,95,102,59,27,-15
1,4,3,-3,-1,4,21,95,101,59,27,-14
1,5,4,-3,-1,5,20,94,101,60,29,-13
1,5,5,-3,-1,5,20,93,100,60,30,-12
2,7,6,-4,-2,6,18,91,99,59,29,-12
2,8,7,-5,-2,7,17,89,97,58,27,-11
2,9,8,-6,-3,8,16,86,95,56,25,-11
2,11,9,-6,-3,10,14,83,92,55,24,-10
2,12,10,-7,-4,11,13,79,89,54,24,-10
2,13,10,-7,-4,12,13,76,86,54,24,-9
3,13,10,-7,-3,12,12,73,82,53,25,-9
3,13,11,-8,-4,12,11,69,77,51,24,-9
3,13,11,-8,-4,12,9,64,72,47,22,-9
3,13,11,-8,-4,12,7,59,67,44,21,-8
3,12,10,-8,-3,11,5,54,61,42,20,-8
4,13,10,-9,-3,11,4,49,56,39,19,-7
4,13,10,-9,-2,12,4,45,51,38,19,-6
4,13,8,-9,-1,11,3,41,47,36,18,-6
5,12,7,-9,0,10,1,36,42,33,15,-6
5,12,7,-9,0,10,0,30,36,29,13,-6
4,12,8,-9,-2,10,0,26,32,26,12,-6
4,12,8,-8,-2,10,-1,22,27,23,11,-5
5,11,7,-8,-2,9,-2,17,21,17,7,-6
4,11,7,-8,-2,8,-3,13,17,14,4,-7
4,11,7,-7,-2,8,-4,10,13,13,3,-8
4,10,6,-7,-1,8,-5,8,10,12,2,-8
3,10,6,-6,-1,8,-7,4,7,10,2,-8
3,9,6,-6,-1,8,-8,1,3,7,1,-8
3,9,6,-6,-1,7,-8,-1,0,5,0,-9
3,8,6,-6,-1,7,-9,-4,-2,3,-1,-9
3,8,6,-6,-1,7,-9,-6,-4,2,-2,-10
3,8,6,-6,-1,7,-9,-8,-6,1,-3,-10
3,9,7,-5,-2,8,-9,-10,-8,0,-4,-11
2,8,7,-5,-2,7,-10,-12,-10,-2,-5,-13
1,7,6,-4,-2,7,-10,-15,-12,-4,-8,-14
1,7,6,-4,-2,6,-10,-16,-13,-6,-10,-14
0,6,6,-4,-2,6,-9,-15,-13,-7,-11,-13
0,5,6,-3,-2,5,-9,-15,-14,-7,-10,-12
0,4,5,-3,-2,5,-11,-18,-17,-8,-10,-13
1,5,5,-3,-2,5,-12,-21,-19,-9,-10,-13
1,5,5,-3,-2,5,-12,-22,-21,-10,-11,-14
1,5,4,-3,-1,4,-12,-23,-22,-10,-12,-15
1,4,3,-2,0,3,-12,-24,-23,-11,-13,-15
2,3,2,-2,0,2,-12,-24,-23,-11,-13,-15
1,3,1,-2,0,2,-12,-24,-23,-11,-12,-14
1,2,2,-2,0,3,-11,-24,-24,-11,-11,-14
1,2,2,-2,0,3,-12,-24,-24,-12,-13,-14
1,2,2,-2,0,3,-12,-25,-25,-13,-14,-15
1,2,2,-2,0,3,-13,-26,-26,-14,-15,-14
0,3,3,-2,-1,3,-13,-26,-26,-14,-15,-14
0,4,4,-2,-1,4,-13,-26,-27,-15,-16,-15
0,5,4,-3,-1,5,-13,-26,-27,-17,-17,-16
0,4,4,-3,-1,5,-13,-26,-28,-18,-18,-17
0,3,4,-2,-1,4,-14,-27,-28,-18,-19,-19
0,2,4,-2,-2,4,-14,-27,-27,-17,-18,-19
0,2,4,-1,-2,3,-12,-26,-27,-17,-18,-19
1,2,2,-1,0,2,-11,-26,-28,-17,-18,-19
2,2,1,-1,1,1,-12,-27,-28,-18,-18,-19
1,2,1,-1,1,1,-12,-27,-28,-18,-18,-19
1,2,2,-1,0,2,-13,-27,-28,-17,-19,-19
0,1,2,-1,0,2,-13,-27,-28,-17,-20,-20
0,1,2,-1,0,2,-14,-27,-28,-19,-21,-21
1,2,2,-2,0,2,-14,-27,-28,-19,-21,-22
1,2,1,-2,0,2,-13,-27,-28,-19,-20,-21
1,1,1,-1,0,1,-13,-27,-28,-19,-20,-20
1,1,1,-1,1,1,-12,-26,-27,-19,-20,-20
1,1,1,-1,0,1,-12,-26,-27,-19,-20,-20
0,1,2,0,0,1,-12,-25,-26,-17,-18,-19
0,1,1,0,0,1,-11,-24,-26,-16,-18,-19
1,1,1,-1,0,1,-12,-24,-25,-16,-19,-20
1,1,1,-1,0,1,-12,-24,-25,-16,-19,-20
0,1,1,-1,0,2,-12,-23,-24,-15,-18,-20
0,1,2,-2,0,2,-11,-23,-24,-14,-19,-20
0,1,1,-1,0,1,-11,-23,-24,-16,-20,-21
1,0,0,0,1,0,-11,-23,-24,-17,-21,-21
1,-1,-1,0,2,-1,-10,-23,-23,-16,-20,-20
0,-1,-1,0,2,-1,-9,-22,-22,-15,-19,-19
0,-1,0,0,1,0,-10,-23,-22,-14,-20,-20
0,0,0,0,0,0,-11,-23,-22,-14,-20,-20
0,0,0,-1,1,0,-11,-22,-21,-14,-19,-20
1,0,0,-1,1,0,-10,-21,-20,-13,-17,-19
1,0,0,0,1,0,-11,-21,-20,-13,-17,-19
1,0,0,0,0,1,-12,-22,-20,-13,-18,-20
1,2,1,-1,0,2,-11,-21,-19,-12,-17,-20
1,2,1,-2,0,2,-11,-20,-19,-10,-17,-20
1,2,1,-2,0,1,-11,-21,-19,-11,-17,-20
0,1,1,-2,0,1,-12,-21,-18,-11,-17,-20
0,1,1,-1,0,1,-11,-19,-17,-10,-16,-19
0,1,1,-1,0,1,-10,-18,-17,-10,-17,-20
0,1,1,-1,0,1,-11,-18,-17,-11,-18,-20
0,1,1,-1,0,1,-13,-19,-18,-11,-19,-20
1,0,0,0,1,0,-13,-19,-17,-11,-18,-20
1,0,-1,0,1,0,-12,-18,-17,-10,-17,-19
1,0,-1,-1,2,0,-12,-18,-16,-10,-16,-19
2,0,-1,-2,2,0,-12,-18,-16,-9,-15,-19
3,1,-1,-2,3,0,-12,-17,-15,-8,-15,-18
4,2,-1,-3,3,0,-12,-17,-15,-8,-15,-18
4,2,0,-3,3,1,-14,-18,-15,-8,-14,-18
4,3,0,-3,2,1,-14,-18,-15,-8,-14,-18
3,3,1,-3,1,2,-11,-15,-14,-7,-14,-17
3,3,1,-3,1,2,-11,-14,-14,-5,-14,-17
3,4,1,-4,1,2,-13,-17,-16,-8,-15,-18
3,4,1,-4,1,2,-15,-20,-17,-11,-16,-19
2,3,1,-3,1,2,-14,-20,-16,-10,-17,-19
2,3,1,-2,1,2,-13,-18,-15,-9,-16,-18
3,3,1,-2,1,2,-13,-17,-16,-8,-16,-18
3,3,0,-2,2,1,-14,-18,-17,-9,-16,-17
3,3,1,-2,1,1,-14,-18,-17,-9,-15,-17
2,2,1,-2,1,1,-13,-18,-16,-8,-14,-16
1,2,1,-2,0,2,-12,-18,-15,-7,-13,-16
0,2,1,-2,0,2,-12,-18,-16,-8,-14,-17
1,1,0,-2,1,1,-13,-19,-17,-10,-15,-17
2,1,-1,-2,2,0,-12,-19,-17,-10,-15,-17
3,2,-1,-2,2,1,-11,-18,-17,-10,-15,-17
4,3,0,-3,2,2,-12,-18,-17,-10,-15,-17
4,3,0,-4,2,2,-12,-19,-17,-9,-15,-17
3,4,1,-4,1,3,-11,-18,-17,-8,-15,-16
3,5,2,-5,1,3,-9,-17,-17,-8,-14,-16
4,6,2,-6,1,4,-8,-17,-17,-9,-14,-17
4,7,3,-6,1,5,-7,-19,-18,-9,-14,-17
3,7,4,-6,0,6,-6,-20,-18,-9,-14,-17
3,8,6,-6,-1,7,-4,-19,-18,-9,-14,-17
3,9,7,-6,-1,8,-3,-18,-18,-9,-14,-18
3,9,7,-6,-1,8,-3,-18,-19,-9,-14,-18
3,10,8,-7,-1,9,-5,-20,-19,-9,-14,-19
3,10,7,-7,-1,9,-5,-20,-19,-9,-14,-18
4,10,6,-7,-1,9,-4,-18,-18,-8,-13,-17
4,11,7,-7,-1,9,-3,-17,-17,-9,-13,-16
4,11,7,-7,-2,10,-5,-18,-18,-9,-13,-15
4,11,8,-7,-2,10,-8,-20,-18,-9,-13,-14
4,12,8,-8,-2,10,-11,-21,-18,-9,-13,-13
4,12,8,-8,-2,11,-13,-21,-19,-8,-13,-13
4,12,8,-7,-2,10,-14,-22,-19,-7,-13,-13
3,11,8,-7,-2,10,-14,-22,-19,-7,-12,-13
3,12,9,-7,-2,10,-16,-22,-20,-7,-12,-13
3,14,11,-8,-3,12,-18,-24,-21,-7,-12,-13
4,14,11,-9,-3,12,-20,-26,-22,-8,-13,-14
5,14,10,-10,-2,12,-22,-27,-23,-10,-14,-14
7,14,8,-10,0,11,-23,-27,-23,-12,-15,-15
7,13,6,-10,1,10,-24,-28,-24,-13,-15,-15
7,12,5,-10,1,9,-24,-29,-24,-13,-16,-15
7,13,7,-10,0,10,-24,-30,-25,-13,-15,-14
6,14,8,-11,0,11,-24,-31,-25,-13,-15,-14
6,15,9,-11,-1,11,-24,-31,-26,-14,-17,-14
6,15,9,-10,-1,11,-24,-32,-27,-16,-18,-14
6,15,9,-10,-1,12,-25,-32,-28,-16,-18,-14
5,15,9,-10,-1,12,-26,-33,-28,-16,-17,-14
5,14,9,-10,-1,12,-26,-33,-28,-15,-16,-13
6,14,8,-10,-1,12,-27,-32,-27,-15,-15,-13
7,14,7,-10,0,11,-27,-31,-27,-15,-15,-12
9,14,6,-11,1,10,-27,-31,-27,-15,-15,-12
10,14,5,-12,2,10,-28,-32,-28,-16,-16,-13
10,14,5,-12,3,10,-27,-32,-28,-17,-17,-13
10,14,5,-12,3,10,-26,-31,-27,-16,-16,-13
10,14,4,-12,3,9,-25,-31,-27,-15,-16,-13
10,12,3,-11,4,8,-24,-30,-28,-16,-16,-13
10,11,0,-11,5,6,-24,-31,-29,-18,-18,-13
10,10,0,-10,6,4,-25,-32,-29,-19,-19,-14
10,9,0,-10,6,4,-25,-32,-29,-18,-18,-14
9,8,-1,-9,6,3,-23,-30,-27,-17,-18,-14
8,7,-1,-8,5,3,-21,-29,-27,-18,-19,-14
7,6,0,-6,4,3,-20,-30,-27,-18,-18,-14
5,6,0,-5,3,3,-18,-30,-26,-17,-18,-13
4,4,0,-4,3,2,-16,-28,-25,-16,-17,-13
2,2,0,-3,2,1,-15,-28,-25,-16,-17,-13
1,1,-1,-2,2,0,-16,-28,-26,-16,-18,-14
0,0,0,-1,1,0,-15,-29,-26,-17,-18,-15
0,1,1,0,0,1,-14,-28,-26,-17,-19,-16
0,1,1,0,0,1,-13,-28,-27,-18,-21,-17
0,1,1,0,0,1,-14,-30,-28,-18,-22,-18
0,0,0,0,0,0,-15,-32,-29,-19,-22,-18
-1,0,1,1,0,0,-14,-31,-28,-20,-22,-18
-2,-1,1,1,-1,0,-12,-29,-28,-19,-21,-17
-2,-1,0,2,0,-1,-13,-29,-28,-19,-21,-17
-2,-2,0,2,0,-1,-13,-29,-28,-18,-21,-17
-1,-1,0,1,0,-1,-13,-29,-28,-18,-21,-17
0,-1,0,1,1,-1,-13,-29,-28,-19,-22,-18
0,-1,0,1,1,-1,-13,-30,-28,-19,-22,-18
0,-1,0,1,0,0,-13,-30,-28,-19,-22,-18
0,0,0,0,0,0,-12,-30,-28,-19,-22,-18
0,-1,0,0,1,0,-12,-30,-28,-20,-22,-18
0,-1,0,0,0,0,-13,-31,-29,-20,-22,-18
-1,-1,1,1,0,0,-13,-32,-29,-20,-22,-18
-1,-1,0,1,0,0,-13,-31,-29,-19,-22,-18
0,-2,-1,2,0,-1,-12,-30,-29,-19,-22,-17
-1,-3,-1,2,0,-2,-12,-29,-28,-19,-22,-18
-2,-3,-1,2,0,-2,-11,-28,-27,-20,-22,-18
-2,-3,0,2,0,-1,-10,-26,-25,-19,-23,-19
-3,-3,0,2,-1,-1,-8,-23,-23,-19,-24,-21
-3,-2,0,2,-1,-1,-4,-18,-18,-18,-25,-22
-2,-2,0,2,-1,-1,0,-9,-10,-14,-24,-22
-1,-2,0,2,0,-1,4,2,0,-7,-20,-22
-1,-1,0,1,0,0,8,13,13,2,-13,-20
0,0,1,0,0,0,14,25,24,13,-3,-14
1,2,2,-1,0,1,19,31,32,24,7,-7
4,4,0,-4,2,2,21,30,34,32,19,2
8,5,-2,-7,6,1,19,23,30,38,32,13
13,9,-4,-11,9,2,15,12,23,43,48,28
18,14,-4,-16,11,5,12,4,17,50,67,45
25,20,-4,-23,14,9,8,-4,13,56,87,64
32,28,-3,-30,17,13,0,-15,8,60,107,83
41,36,-4,-38,22,16,-12,-29,2,64,128,104
52,46,-5,-49,28,20,-29,-43,-3,69,152,129
64,58,-6,-61,35,25,-56,-60,-9,76,177,156
77,69,-8,-73,43,30,-89,-78,-14,80,198,181
90,77,-12,-83,51,32,-125,-94,-18,80,212,201
100,83,-16,-91,58,34,-158,-108,-23,78,217,213
106,87,-18,-96,63,35,-186,-121,-33,71,213,216
108,87,-20,-97,64,34,-204,-133,-46,61,200,211
105,78,-27,-91,66,26,-211,-143,-61,46,177,195
96,59,-36,-77,66,11,-209,-152,-78,25,143,165
81,39,-42,-60,62,-2,-197,-158,-93,1,100,123
65,21,-43,-43,54,-11,-176,-158,-105,-21,54,76
49,7,-41,-28,45,-16,-151,-151,-113,-43,12,34
33,-2,-34,-16,34,-17,-126,-142,-117,-61,-21,3
19,-6,-25,-7,22,-14,-101,-128,-114,-73,-43,-15
9,-7,-15,-1,12,-10,-77,-108,-103,-74,-52,-24
3,-6,-9,1,6,-7,-58,-90,-88,-67,-52,-27
0,-5,-5,2,2,-5,-44,-75,-73,-59,-48,-28
-2,-4,-2,3,0,-3,-35,-63,-60,-51,-44,-28
-3,-4,-1,3,-1,-2,-27,-54,-50,-45,-40,-27
-4,-4,0,4,-1,-2,-19,-44,-41,-39,-37,-26
-4,-5,0,4,-1,-2,-13,-36,-34,-34,-34,-25
-4,-6,-1,5,-1,-3,-10,-31,-30,-31,-33,-26
-4,-7,-3,5,0,-4,-8,-29,-27,-29,-31,-26
-4,-7,-2,6,-1,-4,-6,-26,-25,-26,-29,-25
-5,-7,-1,6,-2,-3,-3,-23,-22,-24,-27,-24
-5,-6,-1,5,-1,-3,-2,-21,-21,-22,-26,-23
-4,-6,-1,5,-1,-3,-2,-20,-20,-20,-26,-23
-4,-4,0,5,-1,-2,-2,-19,-19,-20,-25,-22
-5,-3,1,4,-2,0,-1,-18,-18,-20,-25,-22
-5,-2,2,4,-4,1,0,-17,-17,-20,-25,-22
-5,-2,2,4,-4,1,0,-16,-17,-19,-25,-22
-5,-3,1,4,-3,0,1,-16,-17,-19,-25,-22
-5,-4,0,4,-3,-2,1,-16,-17,-19,-25,-22
-5,-5,1,4,-3,-2,0,-17,-17,-18,-24,-22
-6,-5,2,5,-4,-1,1,-15,-16,-17,-23,-21
-7,-4,4,5,-5,0,2,-14,-15,-17,-23,-20
-7,-4,4,5,-5,0,2,-14,-15,-17,-23,-20
-6,-4,3,5,-4,0,2,-14,-15,-16,-23,-20
-5,-4,2,5,-3,0,2,-14,-15,-16,-23,-20
-5,-4,1,5,-3,0,1,-15,-15,-16,-24,-21
-6,-4,1,5,-3,-1,0,-17,-15,-16,-24,-22
-6,-4,2,5,-3,-1,1,-16,-14,-15,-23,-21
-7,-4,3,5,-4,0,3,-13,-13,-14,-22,-20
-7,-4,4,6,-5,0,4,-10,-13,-14,-22,-20
-7,-6,3,7,-4,-1,4,-8,-13,-13,-21,-19
-7,-6,2,7,-4,-1,4,-8,-13,-13,-21,-19
-7,-5,2,6,-4,0,4,-7,-12,-13,-21,-19
-6,-4,2,5,-4,0,5,-7,-12,-13,-21,-19
-6,-4,2,5,-4,0,4,-8,-13,-13,-21,-20
-6,-3,3,4,-4,0,2,-9,-14,-13,-21,-21
-6,-3,3,4,-4,0,2,-10,-14,-13,-21,-21
-6,-3,3,5,-4,0,2,-9,-13,-12,-22,-21
-6,-3,4,5,-5,0,2,-10,-13,-13,-22,-21
-6,-3,3,5,-5,0,2,-10,-13,-13,-23,-21
-6,-3,3,5,-5,0,3,-10,-12,-13,-23,-21
-6,-2,3,4,-5,1,3,-10,-12,-13,-22,-20
-6,-2,4,4,-5,1,3,-9,-12,-12,-22,-20
-6,-3,3,5,-5,0,3,-9,-12,-12,-21,-20
-6,-4,2,5,-4,0,3,-9,-12,-11,-21,-20
-5,-4,2,5,-3,-1,3,-8,-12,-11,-21,-21
-5,-4,2,5,-3,-1,3,-8,-12,-11,-21,-21
-5,-4,3,5,-4,0,3,-7,-11,-11,-21,-21
-6,-4,3,6,-4,0,3,-7,-11,-11,-21,-20
-6,-4,3,6,-5,0,2,-7,-10,-10,-21,-20
-6,-3,3,5,-5,0,2,-8,-10,-10,-21,-20
-7,-4,3,5,-5,0,2,-8,-10,-10,-21,-20
-8,-5,3,6,-5,0,2,-7,-9,-10,-21,-20
-9,-5,4,7,-6,0,2,-6,-9,-9,-21,-19
-8,-5,4,6,-6,0,2,-6,-8,-9,-21,-19
-7,-4,3,6,-5,0,2,-5,-8,-9,-21,-19
-6,-4,3,6,-5,0,2,-5,-7,-9,-21,-19
-7,-4,3,6,-6,0,2,-5,-7,-9,-20,-19
-8,-4,3,6,-6,0,2,-4,-6,-8,-20,-19
-7,-4,3,5,-5,0,3,-3,-5,-8,-21,-19
-6,-3,3,4,-5,0,3,-2,-5,-8,-21,-19
-6,-3,3,4,-4,1,2,-2,-4,-8,-21,-20
-6,-3,3,4,-4,0,2,-2,-4,-8,-21,-20
-6,-3,3,5,-5,0,3,-1,-2,-7,-21,-19
-7,-3,4,6,-6,1,4,0,-1,-6,-20,-19
-7,-3,4,5,-5,0,3,0,0,-6,-20,-20
-7,-4,3,5,-5,0,3,1,0,-7,-20,-20
-7,-4,2,5,-5,-1,4,3,1,-6,-20,-20
-7,-4,2,5,-5,-1,4,5,3,-5,-20,-20
-6,-4,2,5,-4,-1,4,6,4,-5,-19,-20
-5,-3,2,4,-4,0,4,6,4,-4,-19,-20
-5,-2,2,3,-4,0,4,7,5,-4,-19,-20
-4,-2,3,3,-4,1,4,9,7,-3,-19,-20
-4,-2,3,3,-4,1,4,10,8,-3,-18,-20
-5,-3,3,4,-5,0,5,12,11,-2,-18,-20
-8,-3,5,5,-7,1,8,16,14,0,-17,-19
-9,-3,6,6,-8,2,9,18,16,1,-16,-19
-9,-3,6,5,-8,2,9,19,17,1,-16,-19
-7,-2,5,4,-6,1,10,22,19,3,-15,-19
-6,-2,5,4,-5,1,11,24,23,5,-14,-18
-6,-1,5,4,-5,2,11,26,26,6,-13,-19
-5,0,5,4,-5,2,11,27,28,7,-13,-19
-4,0,5,3,-5,2,12,30,30,8,-12,-19
-5,0,5,3,-5,2,13,34,34,10,-11,-19
-6,0,5,3,-6,2,13,38,38,11,-11,-19
-6,0,5,4,-6,2,14,41,41,13,-10,-18
-6,-1,5,4,-6,2,14,43,44,15,-9,-18
-6,0,5,3,-6,3,14,46,47,17,-8,-18
-5,0,6,3,-6,4,15,49,51,20,-6,-18
-5,1,7,3,-7,4,16,53,55,22,-5,-17
-5,1,7,2,-7,5,17,57,59,24,-3,-17
-5,1,7,2,-6,4,17,60,64,26,-2,-17
-4,1,6,1,-6,4,17,63,68,29,0,-16
-5,1,6,1,-6,4,19,68,73,33,2,-14
-5,1,7,1,-6,4,19,73,76,35,4,-13
-5,2,6,1,-6,4,18,75,79,37,5,-14
-4,2,6,0,-5,5,18,77,82,39,6,-14
-3,2,6,0,-5,5,19,81,85,41,8,-13
-3,3,7,0,-6,6,19,83,88,43,9,-13
-4,3,8,0,-6,6,19,84,90,44,10,-13
-3,4,7,0,-6,6,19,84,92,45,11,-12
-2,4,7,-1,-5,7,20,85,94,47,13,-11
-2,5,7,-1,-5,7,20,87,96,50,15,-9
-2,5,8,-1,-5,7,20,89,97,51,17,-8
-2,5,8,-1,-5,7,19,88,97,52,17,-7
-1,6,7,-2,-4,7,17,87,96,51,17,-7
0,6,7,-2,-4,7,17,85,95,51,17,-7
-1,7,10,-2,-6,9,17,84,95,50,18,-7
-2,8,11,-2,-8,10,18,84,94,51,19,-6
-2,6,9,-1,-7,9,18,83,93,51,19,-5
-2,5,7,-1,-5,7,15,79,90,50,19,-5
-1,6,8,-2,-5,8,12,74,87,48,19,-4
-1,7,8,-3,-5,9,12,71,85,48,20,-3
0,7,8,-3,-5,8,12,70,82,47,21,-1
0,7,9,-3,-5,8,12,68,79,46,21,0
-1,7,9,-3,-6,8,11,64,74,43,20,0
0,7,8,-3,-5,7,10,59,70,41,19,0
0,6,6,-3,-3,6,9,55,65,39,19,0
0,7,6,-3,-3,7,7,50,59,36,17,0
0,8,8,-4,-4,8,4,44,53,32,16,0
0,8,8,-4,-4,9,3,38,48,29,14,0
0,7,8,-4,-4,8,3,34,43,26,12,1
0,7,7,-3,-4,8,3,31,39,24,11,1
0,6,7,-3,-4,7,2,27,34,21,10,1
0,7,7,-3,-4,8,1,22,29,17,8,0
0,7,7,-3,-4,8,0,17,24,14,6,0
0,7,7,-3,-4,8,0,13,19,10,4,-1
0,7,6,-3,-3,7,-1,10,15,8,2,-1
0,7,6,-4,-3,7,-1,7,11,5,0,-2
0,7,6,-4,-3,7,-3,3,7,1,-1,-3
0,6,6,-3,-3,7,-5,-1,3,0,-2,-3
0,5,6,-2,-4,6,-5,-3,0,-2,-3,-3
0,5,6,-1,-4,5,-5,-5,-2,-4,-4,-3
-1,5,6,-1,-4,5,-5,-7,-4,-6,-5,-4
-1,5,6,-1,-4,5,-5,-10,-7,-8,-6,-4
-1,4,5,-1,-4,5,-5,-12,-10,-9,-7,-4
-1,4,5,-1,-4,5,-6,-14,-13,-11,-8,-5
-2,3,5,0,-4,5,-7,-17,-15,-13,-9,-6
-2,2,4,0,-4,4,-8,-18,-16,-14,-10,-6
-2,1,3,0,-3,3,-8,-19,-17,-15,-10,-6
-2,1,3,1,-3,2,-8,-21,-18,-16,-11,-6
-2,1,3,1,-3,3,-8,-22,-20,-17,-12,-7
-2,1,3,1,-3,3,-8,-23,-22,-18,-13,-7
-2,0,2,1,-2,2,-8,-23,-23,-18,-13,-7
-2,0,1,2,-2,1,-8,-24,-24,-19,-14,-7
-2,-1,1,2,-2,0,-8,-24,-24,-19,-14,-7
-2,-1,1,2,-2,0,-8,-24,-24,-20,-14,-7
-2,-1,2,2,-3,1,-8,-25,-25,-20,-14,-7
-2,0,3,1,-3,2,-8,-26,-25,-21,-15,-8
-2,0,2,1,-2,1,-9,-28,-26,-23,-16,-9
-1,-1,1,2,-1,0,-10,-29,-27,-24,-17,-10
-2,-1,1,2,-2,0,-9,-29,-28,-24,-17,-9
-2,0,3,2,-3,2,-8,-28,-28,-24,-17,-9
-2,0,4,1,-4,3,-9,-28,-28,-24,-17,-9
-2,0,3,2,-3,2,-10,-29,-29,-24,-17,-9
-2,-1,1,2,-3,1,-10,-29,-29,-24,-17,-9
-3,-2,1,3,-2,0,-9,-29,-29,-24,-17,-9
-3,-2,1,3,-2,0,-9,-29,-28,-24,-17,-9
-3,-2,1,3,-2,0,-8,-29,-28,-24,-18,-9
-3,-2,1,3,-2,0,-8,-29,-29,-25,-18,-9
-3,-1,1,3,-3,0,-10,-31,-30,-26,-19,-10
-3,-1,2,3,-3,1,-11,-32,-31,-26,-19,-11
-3,-1,2,2,-3,1,-10,-31,-30,-26,-19,-10
-3,0,3,2,-3,2,-8,-29,-29,-26,-19,-10
-3,0,3,2,-3,2,-9,-29,-30,-26,-19,-11
-3,-1,3,2,-3,1,-10,-31,-30,-27,-20,-11
-3,-1,3,2,-3,1,-10,-30,-29,-26,-19,-11
-4,-1,3,3,-3,1,-9,-29,-28,-25,-19,-10
-5,-2,2,4,-3,0,-9,-29,-28,-25,-19,-10
-4,-3,2,4,-3,0,-9,-30,-28,-25,-19,-10
-4,-2,2,3,-3,0,-8,-29,-28,-25,-19,-10
-4,-1,2,3,-4,1,-7,-28,-27,-25,-19,-10
-4,-1,3,2,-4,1,-7,-29,-27,-25,-19,-11
-3,0,3,2,-3,1,-8,-30,-27,-25,-20,-12
-3,0,3,2,-3,1,-8,-29,-27,-24,-19,-12
-3,0,3,2,-3,1,-7,-28,-26,-24,-19,-11
-4,0,3,2,-4,1,-7,-27,-25,-23,-19,-11
-5,0,4,3,-5,2,-7,-26,-25,-23,-19,-11
-5,0,5,3,-5,2,-8,-26,-25,-23,-19,-11
-4,-1,4,3,-4,1,-8,-27,-25,-23,-19,-11
-4,-2,3,3,-4,0,-8,-27,-24,-23,-19,-11
-4,-2,3,4,-4,0,-7,-26,-23,-22,-18,-10
-4,-2,2,4,-4,0,-7,-25,-23,-21,-18,-10
-5,-2,2,4,-4,0,-8,-26,-23,-21,-18,-11
-5,-2,3,4,-4,1,-8,-26,-23,-21,-18,-11
-5,-1,3,4,-5,1,-7,-24,-22,-20,-17,-11
-5,-1,3,4,-4,1,-5,-22,-20,-19,-17,-10
-5,-1,3,4,-4,1,-6,-23,-20,-19,-17,-9
-5,-1,3,4,-4,1,-6,-24,-20,-19,-17,-9
-5,-1,4,4,-4,1,-6,-24,-19,-18,-16,-9
-5,0,4,3,-5,2,-4,-23,-18,-17,-15,-8
-5,0,4,3,-4,1,-4,-23,-17,-17,-15,-8
-4,0,3,3,-4,1,-6,-24,-17,-17,-15,-9
-4,-1,2,3,-3,0,-6,-24,-16,-17,-15,-8
-4,-1,2,3,-3,0,-5,-22,-15,-16,-15,-7
-4,-1,3,3,-4,1,-5,-22,-15,-15,-15,-7
-5,-1,3,3,-4,1,-6,-22,-14,-15,-15,-7
-5,-2,3,4,-4,1,-5,-22,-14,-15,-14,-6
-5,-3,2,3,-3,0,-5,-22,-13,-14,-13,-6
-4,-2,1,3,-2,0,-5,-22,-13,-14,-12,-6
-3,-1,1,2,-2,0,-5,-21,-13,-13,-12,-6
-3,0,2,2,-2,0,-5,-20,-12,-13,-12,-6
-3,0,3,2,-3,1,-5,-21,-12,-13,-12,-6
-3,1,4,2,-4,2,-6,-22,-12,-14,-13,-6
-4,1,5,2,-5,3,-6,-21,-12,-13,-12,-5
-5,1,6,2,-5,3,-5,-18,-11,-12,-11,-5
-5,0,5,2,-5,3,-5,-18,-10,-12,-11,-5
-4,0,4,2,-4,2,-5,-19,-11,-12,-11,-5
-4,0,4,1,-4,2,-5,-19,-11,-12,-11,-5
-3,0,3,2,-3,2,-5,-19,-11,-12,-11,-4
-3,0,3,2,-3,2,-6,-20,-11,-12,-11,-4
-3,0,3,2,-3,1,-6,-20,-11,-12,-11,-4
-3,0,4,2,-4,2,-7,-21,-11,-12,-11,-5
-3,1,4,1,-4,2,-7,-20,-11,-12,-11,-5
-3,0,4,2,-3,2,-6,-20,-11,-11,-11,-5
-4,0,3,2,-3,1,-7,-21,-11,-11,-11,-5
-4,0,4,2,-4,2,-7,-21,-11,-12,-11,-5
-4,0,4,2,-4,2,-6,-20,-11,-11,-11,-5
-4,1,4,2,-4,2,-6,-20,-11,-11,-10,-4
-3,1,4,2,-3,2,-6,-20,-11,-11,-10,-4
-3,1,4,2,-4,2,-4,-18,-10,-10,-9,-3
-4,2,6,1,-5,4,-3,-17,-9,-10,-9,-2
-4,3,7,1,-5,4,-4,-19,-10,-11,-10,-3
-4,3,7,1,-6,5,-4,-21,-10,-10,-9,-3
-5,3,8,1,-6,5,-2,-20,-10,-10,-9,-2
-4,3,8,0,-6,6,-2,-21,-10,-10,-9,-3
-4,3,7,0,-5,6,-2,-22,-10,-10,-8,-3
-4,3,8,1,-6,6,0,-21,-9,-9,-7,-2
-4,4,9,0,-6,6,3,-19,-7,-8,-6,-1
-4,5,9,0,-6,7,4,-19,-7,-7,-6,-1
-3,6,10,-1,-6,8,4,-20,-7,-8,-7,-1
-3,6,10,-2,-6,8,4,-20,-8,-8,-7,-2
-3,7,10,-2,-6,9,3,-21,-8,-9,-8,-2
-3,7,11,-2,-7,9,1,-23,-8,-9,-8,-2
-4,8,12,-2,-8,10,0,-24,-8,-9,-8,-2
-4,10,13,-2,-9,12,-3,-24,-8,-8,-7,-1
-4,10,14,-3,-9,12,-5,-24,-8,-7,-7,-1
-4,9,13,-2,-8,11,-7,-24,-8,-7,-6,0
-4,8,12,-2,-8,10,-8,-25,-8,-8,-6,0
-4,8,12,-2,-8,10,-9,-26,-8,-8,-7,-1
-3,8,11,-2,-7,10,-11,-27,-9,-8,-7,-1
-3,8,11,-2,-6,10,-14,-28,-10,-8,-7,-1
-3,9,11,-2,-7,10,-18,-30,-11,-9,-7,-1
-3,10,12,-2,-8,11,-19,-31,-11,-10,-8,-1
-2,10,13,-3,-8,11,-19,-31,-10,-10,-8,-1
-1,10,12,-3,-7,11,-19,-31,-11,-10,-8,-1
-1,10,11,-3,-6,10,-19,-32,-11,-10,-8,0
-3,9,11,-3,-7,10,-19,-33,-11,-10,-8,0
-3,9,12,-3,-8,11,-19,-34,-12,-11,-9,0
-3,10,12,-3,-7,11,-21,-36,-13,-12,-9,0
-2,10,11,-4,-7,11,-22,-38,-14,-13,-9,0
-2,10,11,-4,-6,11,-23,-39,-15,-14,-9,0
-1,10,11,-4,-6,11,-23,-39,-15,-14,-9,0
-1,10,11,-4,-6,11,-23,-39,-15,-14,-9,0
-1,10,10,-4,-6,10,-24,-40,-15,-15,-10,0
0,10,10,-5,-5,10,-24,-41,-15,-15,-10,0
1,11,9,-6,-4,10,-24,-41,-14,-14,-9,0
2,11,8,-7,-3,9,-24,-42,-14,-14,-9,0
2,11,7,-7,-2,9,-24,-42,-14,-14,-9,0
2,10,7,-6,-2,8,-21,-40,-13,-14,-9,1
2,10,7,-6,-3,8,-18,-37,-13,-14,-9,2
2,10,8,-6,-3,9,-17,-37,-13,-15,-9,1
2,10,7,-6,-2,8,-17,-36,-14,-15,-10,1
3,9,6,-6,-1,7,-16,-35,-14,-15,-10,1
2,8,4,-5,-1,5,-16,-35,-14,-15,-10,1
2,6,3,-4,0,4,-17,-37,-14,-15,-10,1
2,5,2,-3,0,4,-17,-38,-14,-15,-10,0
1,5,3,-3,-1,4,-17,-38,-13,-15,-9,0
-1,5,5,-2,-3,5,-16,-38,-13,-14,-9,0
-2,3,5,0,-4,4,-15,-37,-12,-14,-9,0
-3,2,4,1,-4,3,-14,-38,-12,-15,-10,-1
-4,1,4,2,-4,2,-13,-38,-13,-16,-11,-3
-5,0,4,3,-5,1,-12,-37,-12,-16,-12,-3
-6,-1,3,4,-5,1,-10,-35,-12,-15,-12,-3
-7,-2,4,4,-5,1,-10,-35,-12,-15,-13,-4
-7,-2,4,5,-5,1,-11,-36,-13,-16,-14,-5
-7,-3,3,5,-5,0,-12,-36,-13,-17,-15,-6
-7,-3,2,6,-4,-1,-12,-36,-14,-18,-15,-7
-7,-3,3,6,-5,0,-12,-36,-14,-18,-15,-7
-8,-2,4,6,-6,0,-11,-35,-14,-18,-15,-7
-9,-3,4,6,-7,0,-11,-35,-14,-17,-15,-7
-9,-4,4,6,-7,0,-11,-35,-14,-17,-15,-6
-9,-4,4,6,-7,0,-10,-33,-13,-16,-15,-6
-9,-5,4,7,-6,0,-10,-32,-13,-16,-14,-6
-9,-6,3,7,-6,-1,-10,-32,-13,-16,-14,-6
-9,-5,3,7,-6,0,-10,-32,-13,-16,-14,-6
-9,-4,4,7,-7,0,-10,-31,-13,-16,-14,-5
-9,-4,4,7,-7,0,-10,-30,-13,-16,-14,-5
-8,-4,4,6,-6,0,-10,-30,-13,-17,-15,-6
-7,-4,3,6,-5,0,-9,-29,-13,-17,-15,-6
-7,-4,3,6,-5,0,-9,-29,-14,-17,-16,-6
-7,-4,3,6,-5,0,-9,-28,-14,-18,-16,-7
-8,-4,4,6,-5,0,-9,-26,-14,-18,-17,-8
-8,-4,4,7,-6,0,-8,-23,-12,-18,-17,-8
-9,-5,4,8,-6,0,-6,-18,-9,-17,-18,-9
-10,-5,4,8,-7,0,-4,-14,-5,-15,-18,-10
-11,-5,5,8,-8,0,-2,-7,1,-12,-18,-11
-10,-4,5,8,-8,0,3,4,11,-6,-16,-11
-10,-3,6,7,-8,1,8,16,23,1,-11,-9
-9,-2,6,6,-8,2,14,26,34,10,-4,-5
-6,-1,5,4,-6,2,18,34,42,20,5,0
-3,1,4,1,-4,2,21,37,46,29,16,7
-1,3,5,-1,-2,4,21,34,44,35,27,16
2,6,5,-4,-1,5,18,26,38,39,41,28
7,11,4,-9,1,7,14,18,32,44,58,43
14,18,3,-16,5,10,9,11,28,50,77,61
22,26,4,-23,8,15,2,4,25,56,97,80
31,34,3,-32,13,18,-8,-5,22,61,118,100
41,42,1,-41,20,21,-25,-17,18,66,141,122
53,52,0,-52,27,26,-50,-32,13,73,166,148
67,63,-3,-65,35,30,-82,-48,9,79,190,173
81,72,-8,-76,45,31,-119,-62,7,82,208,195
93,78,-15,-86,54,32,-155,-75,4,83,219,210
102,84,-18,-93,60,32,-185,-87,-2,81,222,219
106,86,-20,-96,63,33,-206,-98,-13,74,214,220
107,82,-25,-94,66,28,-219,-109,-28,60,197,210
102,67,-35,-85,68,16,-221,-118,-43,43,170,190
91,48,-42,-70,66,2,-212,-125,-60,22,134,158
74,29,-45,-52,59,-8,-194,-128,-75,-1,90,116
56,12,-43,-34,50,-16,-167,-124,-85,-22,46,73
39,0,-38,-20,39,-19,-139,-114,-91,-41,9,38
24,-5,-29,-9,27,-17,-113,-102,-91,-56,-18,13
11,-8,-20,-2,16,-14,-88,-85,-84,-63,-34,0
3,-9,-13,2,8,-11,-68,-68,-72,-61,-39,-7
-1,-9,-8,5,3,-9,-53,-52,-57,-54,-37,-9
-5,-9,-4,7,0,-7,-40,-37,-44,-45,-34,-10
-7,-9,-2,8,-2,-6,-30,-25,-33,-38,-30,-10
-9,-10,-1,9,-3,-6,-22,-16,-24,-32,-28,-11
-10,-10,0,10,-4,-6,-16,-9,-18,-27,-25,-10
-10,-11,0,11,-4,-6,-12,-2,-13,-23,-23,-10
-11,-11,0,12,-5,-6,-9,2,-9,-20,-20,-9
-12,-12,0,12,-6,-5,-6,6,-6,-17,-19,-9
-12,-11,1,12,-7,-5,-3,10,-4,-15,-18,-8
-11,-11,1,11,-6,-5,-2,12,-3,-13,-17,-8
-11,-10,1,11,-6,-5,-3,13,-3,-13,-17,-9
-12,-10,2,11,-7,-4,-2,13,-2,-13,-16,-8
-12,-9,4,11,-7,-3,0,14,-2,-12,-15,-7
-12,-9,4,11,-7,-2,1,16,-1,-12,-15,-7
