leadI,leadII,leadIII,leadaVR,leadaVL,leadaVF,leadV1,leadV2,leadV3,leadV4,leadV5,leadV6
8,44,34,-26,-12,39,-12,-9,-5,-1,3,1
18,97,78,-59,-28,88,-26,-21,-13,-1,8,6
18,108,89,-64,-35,99,-28,-24,-12,4,11,14
11,104,93,-58,-40,99,-24,-24,-4,15,15,19
2,94,91,-49,-43,93,-18,-22,5,24,17,19
-3,85,88,-42,-44,86,-13,-22,12,29,17,15
-4,83,86,-40,-44,85,-13,-23,13,30,17,9
-2,87,88,-44,-44,88,-16,-24,9,28,18,7
1,98,96,-50,-46,97,-21,-27,2,25,20,8
6,108,102,-58,-47,105,-26,-31,-5,22,21,13
8,113,104,-62,-47,109,-29,-33,-6,23,21,18
4,111,105,-59,-50,109,-26,-33,0,28,22,22
-3,104,106,-51,-53,105,-20,-32,10,36,22,23
-10,96,105,-44,-56,101,-15,-31,16,42,23,21
-12,92,103,-41,-56,98,-14,-31,17,43,23,16
-5,94,99,-46,-50,97,-16,-32,12,38,22,11
4,102,99,-54,-45,100,-21,-34,4,28,22,10
5,111,105,-59,-48,108,-24,-35,-1,22,24,12
2,116,112,-60,-54,114,-24,-36,-2,23,26,17
-2,114,114,-57,-58,115,-23,-36,1,30,27,22
-10,108,116,-50,-63,113,-19,-36,9,40,30,27
-19,100,117,-41,-67,110,-12,-34,18,48,32,29
-20,94,113,-38,-66,104,-8,-33,23,50,32,25
-13,93,105,-41,-58,100,-8,-33,22,45,29,19
-6,98,104,-47,-54,102,-11,-33,17,39,27,16
-3,107,110,-53,-55,108,-15,-33,11,34,27,16
-2,113,115,-56,-58,113,-17,-34,6,33,25,17
-5,113,117,-54,-61,115,-16,-35,6,35,25,19
-12,108,118,-49,-64,113,-13,-33,11,42,27,21
-17,100,116,-42,-65,109,-7,-32,18,47,26,20
-19,92,110,-38,-63,102,-3,-31,22,48,24,16
-18,88,105,-36,-60,97,-1,-31,22,46,24,12
-14,89,103,-39,-57,97,-1,-30,19,42,26,12
-7,98,105,-46,-55,101,-3,-29,13,36,27,14
-3,106,109,-52,-55,106,-7,-29,6,32,27,18
-5,109,114,-52,-58,110,-7,-30,3,33,27,22
-12,105,115,-47,-63,110,-2,-29,5,37,27,24
-19,95,112,-39,-64,104,4,-27,11,41,26,22
-23,85,106,-32,-63,96,7,-27,13,41,24,18
-24,79,101,-29,-62,91,7,-30,12,38,23,12
-19,78,98,-30,-58,89,6,-31,8,34,21,9
-11,84,97,-37,-54,90,3,-32,-1,25,19,8
-8,92,100,-42,-53,95,1,-33,-9,17,17,8
-10,95,105,-42,-56,98,1,-33,-10,15,16,11
-16,92,105,-38,-60,98,3,-30,-6,19,16,14
-23,82,102,-31,-61,93,7,-29,-1,23,15,14
-26,70,94,-23,-59,83,11,-29,2,26,12,11
-26,62,87,-19,-56,75,13,-29,2,27,11,6
-26,61,86,-19,-55,74,15,-28,0,27,13,4
-20,67,88,-24,-54,77,12,-30,-7,24,15,4
-13,77,89,-33,-50,82,8,-33,-15,19,16,4
-10,83,91,-37,-49,86,7,-33,-18,14,14,6
-14,81,93,-34,-52,85,9,-30,-20,10,10,7
-20,73,90,-26,-53,81,14,-28,-18,7,6,5
-24,61,83,-19,-52,73,19,-25,-12,9,3,2
-27,51,78,-14,-52,66,23,-21,-6,12,2,0
-28,47,75,-11,-51,62,26,-21,-6,14,2,-3
-20,49,72,-16,-46,61,24,-23,-11,12,3,-4
-12,56,69,-23,-41,62,19,-24,-18,10,3,-5
-11,61,71,-26,-40,66,17,-24,-23,7,3,-4
-14,63,75,-25,-43,68,17,-24,-26,5,4,-1
-17,61,74,-23,-44,67,17,-24,-27,4,4,0
-20,54,71,-18,-44,64,20,-23,-22,7,4,0
-23,46,69,-13,-45,59,24,-22,-17,10,4,0
-24,42,66,-10,-45,55,27,-21,-15,10,2,-4
-22,40,64,-10,-43,53,28,-21,-17,7,0,-6
-17,45,64,-15,-41,55,26,-21,-22,2,0,-6
-14,53,66,-21,-39,59,25,-20,-27,-2,-2,-5
-15,57,70,-22,-41,63,25,-19,-29,-4,-2,-2
-19,57,73,-20,-44,64,24,-18,-28,-4,-1,0
-25,53,73,-15,-47,63,27,-18,-25,-2,-1,0
-28,45,72,-10,-48,59,29,-18,-22,0,-2,-1
-29,39,67,-7,-47,54,31,-17,-20,2,-4,-4
-27,34,62,-5,-44,49,31,-17,-20,5,-4,-7
-23,33,59,-6,-42,46,30,-17,-21,4,-3,-8
-22,39,60,-9,-42,49,30,-15,-25,1,-3,-8
-21,43,62,-11,-41,52,29,-15,-28,-2,-4,-8
-21,44,62,-12,-41,53,28,-17,-29,-3,-5,-8
-23,42,61,-9,-41,51,30,-16,-27,-2,-6,-7
-25,35,58,-5,-41,47,31,-14,-22,0,-6,-6
-28,29,56,-2,-42,43,33,-13,-20,1,-5,-7
-30,25,54,0,-42,41,34,-13,-21,0,-5,-8
-26,25,53,0,-40,40,34,-12,-24,-4,-4,-8
-22,31,53,-6,-38,42,32,-12,-28,-8,-4,-7
-21,37,55,-8,-38,46,31,-13,-32,-11,-4,-6
-23,38,57,-8,-39,47,29,-14,-33,-12,-4,-5
-25,36,56,-6,-39,45,29,-14,-31,-10,-5,-5
-27,29,53,-2,-38,41,31,-13,-26,-4,-5,-5
-27,25,52,0,-38,39,32,-13,-22,0,-4,-5
-27,26,54,-1,-40,41,31,-13,-21,2,-4,-5
-27,27,56,-1,-41,42,31,-14,-21,2,-4,-5
-26,29,57,-3,-42,44,30,-15,-23,1,-4,-5
-23,34,56,-6,-40,45,27,-16,-27,-1,-2,-4
-22,36,56,-8,-39,46,26,-17,-30,-2,0,-2
-26,38,60,-7,-43,48,25,-19,-29,2,5,1
-29,40,65,-6,-46,52,24,-22,-26,11,13,7
-29,38,67,-5,-47,53,22,-26,-24,18,21,12
-30,40,70,-6,-49,55,20,-30,-25,21,27,17
-29,45,76,-9,-52,62,16,-36,-27,21,31,23
-27,54,83,-14,-55,69,12,-40,-29,20,34,29
-25,63,86,-20,-55,75,10,-40,-30,22,37,33
-25,67,89,-21,-57,78,9,-41,-30,26,40,36
-29,69,93,-20,-60,80,8,-43,-31,27,41,38
-33,69,98,-19,-64,82,7,-48,-34,25,41,38
-37,67,102,-15,-68,84,6,-51,-35,24,41,39
-34,61,96,-15,-65,79,7,-51,-35,20,37,35
-27,57,85,-16,-55,72,8,-50,-37,14,28,28
-25,49,76,-13,-50,63,11,-43,-37,8,16,17
-25,37,61,-7,-43,49,17,-36,-39,-6,-3,1
-24,25,46,0,-35,35,24,-29,-42,-20,-21,-14
-24,13,33,5,-28,23,30,-22,-43,-29,-35,-26
-23,0,19,10,-20,9,37,-15,-43,-35,-47,-37
-22,-16,4,18,-12,-5,42,-9,-42,-39,-55,-48
-19,-26,-8,20,-4,-17,43,-2,-42,-42,-58,-55
-16,-30,-14,21,0,-21,45,1,-44,-45,-60,-58
-14,-34,-18,23,2,-25,48,5,-44,-49,-64,-61
-12,-36,-23,23,5,-29,50,12,-42,-56,-69,-66
-11,-38,-29,24,9,-33,54,18,-40,-62,-74,-70
-11,-44,-35,27,12,-40,57,24,-35,-62,-78,-73
-10,-50,-43,29,16,-48,59,29,-27,-58,-79,-77
-7,-55,-51,30,22,-53,61,33,-17,-48,-76,-78
-6,-60,-55,32,24,-57,63,38,-7,-37,-75,-78
-6,-62,-55,32,24,-58,64,42,0,-31,-74,-79
-5,-60,-54,31,24,-56,64,44,6,-26,-71,-80
-4,-56,-52,29,24,-54,63,48,10,-22,-68,-80
0,-49,-52,24,26,-51,63,51,11,-22,-66,-80
3,-46,-52,21,27,-49,64,54,11,-25,-66,-79
0,-47,-51,23,26,-50,67,58,12,-28,-67,-78
-4,-52,-51,27,24,-52,71,63,17,-27,-67,-78
-5,-58,-54,31,25,-56,73,68,25,-21,-66,-77
-5,-61,-55,31,25,-58,74,71,29,-14,-62,-76
-4,-61,-56,31,27,-58,75,73,30,-11,-59,-74
-2,-61,-58,30,29,-58,75,74,28,-15,-58,-74
-1,-56,-55,27,28,-55,75,78,27,-22,-59,-74
-5,-52,-49,28,22,-50,78,82,29,-24,-60,-73
-6,-53,-51,29,22,-52,81,85,31,-23,-61,-74
-2,-57,-58,29,28,-58,82,87,32,-21,-60,-76
-2,-62,-62,30,30,-62,83,90,36,-18,-59,-76
-4,-67,-62,33,29,-64,85,94,40,-17,-58,-76
-6,-68,-62,35,29,-64,87,97,41,-20,-59,-75
-5,-69,-62,35,29,-64,89,98,39,-24,-61,-75
-4,-66,-62,34,29,-64,89,99,37,-25,-61,-75
-5,-63,-60,34,27,-61,91,99,34,-20,-57,-73
-8,-62,-56,35,25,-60,93,100,34,-14,-51,-70
-8,-60,-55,33,24,-58,94,101,33,-10,-46,-67
-5,-58,-55,31,25,-57,94,104,33,-11,-44,-65
-4,-59,-55,30,25,-57,96,109,35,-14,-43,-63
-6,-61,-55,32,25,-58,101,115,37,-19,-45,-62
-8,-65,-55,35,24,-59,106,120,39,-21,-47,-62
-8,-67,-58,36,25,-61,108,125,40,-20,-47,-62
-6,-67,-62,36,29,-64,110,128,38,-20,-47,-61
-4,-68,-66,35,31,-67,110,126,34,-20,-47,-62
-3,-67,-68,35,32,-68,109,124,32,-20,-47,-62
-5,-67,-66,35,30,-67,109,123,29,-20,-45,-61
-5,-68,-65,35,30,-67,110,122,28,-20,-44,-60
-4,-68,-65,34,30,-67,110,121,25,-22,-43,-60
-1,-67,-65,32,32,-66,109,118,22,-23,-43,-59
3,-65,-67,29,35,-65,106,115,20,-23,-43,-58
4,-61,-66,27,35,-64,105,115,20,-21,-42,-57
1,-62,-65,29,34,-63,105,113,21,-20,-41,-56
0,-63,-67,30,34,-65,103,110,21,-22,-42,-57
2,-63,-69,29,36,-67,97,106,22,-22,-42,-57
4,-62,-69,27,37,-65,88,101,25,-17,-39,-54
4,-61,-66,26,35,-63,80,97,29,-11,-34,-50
3,-57,-60,25,32,-59,73,92,30,-9,-30,-46
6,-52,-58,21,32,-55,65,84,27,-9,-27,-43
13,-44,-58,14,36,-52,57,77,24,-9,-26,-42
10,-36,-47,12,29,-42,52,72,26,-4,-21,-37
0,-32,-33,15,17,-33,50,70,31,4,-14,-30
0,-32,-34,15,17,-34,46,67,32,6,-11,-28
3,-34,-40,14,22,-37,41,64,31,5,-10,-28
3,-34,-39,14,20,-37,36,61,33,7,-8,-26
3,-33,-36,13,20,-35,32,58,33,8,-7,-24
4,-31,-36,12,21,-33,28,54,30,8,-7,-24
5,-28,-33,11,19,-30,25,49,26,6,-6,-23
3,-23,-27,9,16,-25,23,45,24,3,-5,-21
3,-19,-23,8,14,-21,23,44,23,1,-5,-20
3,-16,-21,5,13,-20,22,43,25,2,-4,-18
3,-16,-21,5,13,-19,20,41,27,5,-1,-16
1,-17,-20,5,11,-19,18,39,28,11,2,-12
1,-15,-18,5,10,-17,16,35,27,14,6,-10
0,-12,-12,4,7,-11,13,30,24,19,10,-7
0,-5,-5,2,2,-5,9,24,22,23,16,-2
2,1,0,-2,2,0,6,20,19,21,19,2
2,5,3,-3,0,4,4,18,17,18,20,4
-1,7,6,-3,-3,6,4,17,17,16,19,6
-2,7,6,-3,-3,6,4,17,17,15,19,7
-2,6,6,-4,-3,6,2,14,16,17,21,8
-1,6,6,-5,-3,6,0,12,16,19,22,9
-1,7,8,-5,-3,8,-1,10,15,18,23,10
-1,9,10,-5,-4,10,-3,7,13,17,23,11
-1,13,13,-6,-6,12,-4,4,12,16,24,13
-2,17,19,-7,-10,18,-4,2,11,20,27,16
-5,21,25,-8,-16,23,-4,1,12,26,32,20
-7,24,29,-9,-18,26,-6,-1,11,29,36,23
-5,25,29,-11,-18,27,-8,-4,9,29,36,24
-7,25,31,-11,-20,28,-10,-6,8,28,36,24
-11,25,34,-9,-23,30,-10,-7,8,28,36,26
-11,25,34,-8,-22,30,-11,-9,6,28,37,27
-9,26,34,-9,-21,30,-12,-12,5,29,39,28
-11,29,38,-9,-24,34,-13,-14,5,31,40,29
-11,32,42,-10,-26,37,-13,-15,5,33,41,31
-10,35,44,-12,-27,39,-13,-16,5,34,41,31
-11,37,47,-13,-29,42,-14,-16,5,35,41,32
-13,36,49,-13,-31,43,-15,-16,5,36,42,33
-14,36,50,-13,-32,43,-16,-17,5,36,43,33
-15,38,52,-13,-33,46,-17,-18,5,36,43,33
-15,40,55,-13,-35,48,-18,-21,5,36,43,33
-15,42,55,-14,-34,49,-19,-24,3,35,43,33
-15,44,58,-14,-36,51,-19,-25,4,37,44,34
-17,46,62,-15,-39,54,-19,-25,6,40,45,36
-20,47,66,-13,-43,56,-18,-23,8,42,47,37
-21,47,68,-13,-44,57,-18,-23,8,43,48,37
-20,47,66,-15,-43,56,-19,-24,7,43,47,37
-19,47,66,-15,-42,57,-19,-25,7,43,46,37
-19,48,67,-15,-43,58,-18,-25,8,43,46,37
-21,50,68,-15,-44,59,-18,-25,9,43,47,38
-22,51,72,-15,-47,62,-17,-25,11,45,48,39
-23,52,75,-16,-49,63,-16,-24,13,47,49,40
-25,52,76,-16,-51,64,-16,-24,15,49,50,41
-26,52,78,-15,-52,65,-15,-23,16,50,50,41
-26,52,78,-15,-52,65,-15,-22,16,50,50,42
-26,51,77,-14,-51,64,-14,-21,17,50,49,41
-26,51,76,-13,-51,64,-13,-21,17,49,48,41
-25,51,75,-13,-50,63,-13,-21,16,48,48,41
-25,52,75,-14,-50,63,-13,-21,16,48,48,41
-25,52,76,-14,-51,63,-12,-21,16,48,47,41
-27,51,77,-14,-51,63,-11,-21,16,48,46,40
-28,50,77,-13,-52,63,-9,-21,16,48,46,40
-30,49,79,-11,-54,64,-7,-19,16,47,46,41
-32,48,79,-10,-55,64,-6,-18,15,47,46,41
-30,47,77,-9,-53,62,-4,-18,13,44,44,39
-31,45,75,-8,-53,60,-3,-18,13,43,43,39
-33,44,76,-6,-54,60,-2,-17,13,42,43,39
-32,43,75,-6,-53,58,-3,-18,11,41,41,39
-31,42,73,-6,-52,57,-4,-20,9,39,39,38
-31,41,71,-6,-50,55,-4,-22,7,37,37,37
-30,39,68,-6,-48,53,-4,-22,5,34,36,36
-32,37,68,-4,-49,52,-3,-21,3,33,35,35
-35,35,69,-1,-51,52,-2,-20,2,32,34,35
-35,33,69,0,-51,51,0,-21,0,30,33,35
-33,32,65,0,-48,48,0,-22,-2,27,32,34
-31,31,62,0,-47,46,0,-22,-4,24,30,33
-33,29,62,1,-48,45,2,-21,-4,23,28,32
-34,27,59,2,-46,43,3,-21,-6,22,27,31
-33,25,57,2,-45,41,3,-21,-7,20,25,31
-33,23,55,3,-44,39,3,-20,-8,19,24,30
-34,22,55,4,-44,38,3,-20,-9,17,23,29
-35,21,56,6,-45,38,5,-20,-10,16,22,29
-35,20,55,7,-45,37,6,-19,-11,15,21,29
-33,19,51,7,-42,34,6,-19,-12,13,19,28
-32,17,49,7,-40,33,7,-18,-12,12,17,27
-34,16,48,8,-41,32,9,-17,-12,12,17,26
-34,14,47,8,-41,31,9,-17,-12,12,16,26
-33,14,46,7,-40,30,9,-16,-13,10,16,25
-34,14,47,8,-41,30,10,-15,-14,10,16,25
-34,13,47,9,-41,30,11,-15,-14,9,15,24
-31,12,44,9,-38,27,11,-15,-16,6,13,22
-30,11,41,9,-36,25,11,-16,-17,5,12,22
-32,11,43,10,-37,26,11,-15,-17,5,11,21
-35,10,44,11,-39,27,13,-14,-17,5,11,21
-35,9,42,11,-39,26,13,-14,-17,4,10,20
-33,8,40,11,-37,24,12,-15,-19,2,8,18
-33,6,39,11,-36,23,12,-15,-19,1,7,17
-34,5,40,13,-37,23,13,-15,-19,1,6,16
-35,5,42,14,-39,23,14,-14,-19,1,6,16
-37,5,42,15,-40,23,15,-13,-19,0,7,15
-37,5,42,15,-39,23,16,-13,-19,0,5,15
-36,4,40,15,-38,21,16,-13,-19,-1,3,13
-37,3,39,15,-38,21,16,-12,-19,-1,3,12
-39,3,40,15,-40,21,17,-11,-19,-1,3,12
-38,2,40,16,-39,21,17,-10,-19,-2,2,11
-36,1,38,16,-37,19,17,-10,-19,-2,1,10
-36,0,37,16,-36,18,18,-10,-19,-3,0,8
-35,0,35,17,-35,16,18,-10,-20,-6,-1,7
-36,0,35,17,-36,16,18,-10,-21,-7,-2,5
-40,0,40,19,-40,19,20,-8,-19,-6,-2,5
-39,-2,36,19,-38,17,20,-8,-19,-6,-2,4
-35,-4,30,18,-32,13,19,-8,-21,-7,-4,2
-38,-5,33,20,-35,14,20,-8,-21,-7,-4,2
-43,-5,37,23,-40,16,22,-5,-18,-6,-2,3
-43,-7,36,24,-40,14,23,-4,-17,-5,-2,3
-35,-8,26,21,-31,8,21,-7,-21,-10,-5,-1
-28,-6,21,16,-25,7,17,-10,-26,-14,-9,-4
-33,-3,30,17,-32,13,17,-10,-24,-12,-7,-2
-40,-3,38,20,-39,17,19,-9,-21,-8,-5,0
-40,-4,36,20,-38,16,19,-10,-21,-6,-3,1
-39,-4,34,20,-36,15,18,-12,-21,-6,-2,1
-38,-3,35,20,-36,16,17,-13,-22,-5,-1,2
-40,0,40,20,-40,19,16,-14,-21,-2,2,5
-40,3,43,18,-42,22,14,-17,-20,0,6,9
-38,7,44,15,-41,25,11,-20,-20,4,11,12
-37,10,46,12,-42,27,8,-23,-20,7,15,16
-38,13,50,11,-44,31,6,-26,-21,10,19,20
-38,17,56,9,-47,37,3,-29,-22,12,24,24
-38,21,60,7,-49,41,1,-33,-23,14,28,29
-38,25,64,6,-51,44,0,-36,-24,15,31,33
-38,29,68,5,-53,48,-2,-39,-26,16,34,36
-38,33,71,2,-54,51,-6,-44,-30,15,35,39
-39,37,75,1,-57,55,-8,-49,-34,15,36,41
-40,37,77,1,-59,56,-9,-50,-36,14,35,41
-41,33,73,2,-57,52,-7,-50,-36,12,28,36
-41,25,66,6,-53,45,-2,-45,-35,7,19,27
-41,12,54,12,-48,33,4,-37,-34,-1,4,13
-40,-1,40,19,-41,20,10,-29,-34,-13,-14,-3
-39,-12,28,25,-34,8,16,-23,-35,-24,-29,-17
-38,-22,16,29,-27,-3,21,-17,-37,-35,-42,-28
-35,-33,1,33,-18,-16,25,-11,-38,-44,-54,-39
-31,-44,-14,36,-8,-29,29,-4,-38,-51,-61,-47
-27,-53,-27,38,0,-40,32,2,-38,-55,-66,-54
-25,-61,-37,40,6,-49,35,7,-36,-57,-71,-60
-22,-68,-46,43,12,-57,39,13,-34,-59,-75,-66
-20,-74,-53,45,16,-64,42,19,-28,-60,-79,-72
-19,-77,-57,47,18,-67,46,26,-21,-58,-81,-75
-18,-80,-61,49,21,-70,48,32,-14,-55,-82,-78
-16,-82,-66,49,25,-74,50,37,-8,-52,-83,-80
-14,-82,-69,48,28,-76,50,40,-2,-46,-82,-81
-14,-83,-70,47,28,-77,51,44,4,-40,-80,-81
-14,-83,-70,47,28,-77,53,46,11,-33,-79,-81
-12,-83,-71,47,30,-77,54,50,16,-27,-77,-81
-9,-83,-74,45,32,-78,54,53,19,-26,-77,-81
-7,-83,-76,44,34,-80,54,55,20,-29,-79,-83
-7,-84,-77,45,34,-80,56,59,20,-33,-80,-85
-9,-84,-75,46,32,-80,59,63,22,-35,-80,-85
-10,-84,-76,46,33,-81,61,67,26,-34,-80,-85
-9,-84,-77,46,35,-82,63,70,29,-31,-79,-85
-10,-85,-77,46,34,-82,64,73,32,-29,-79,-85
-10,-86,-77,47,33,-82,66,77,35,-27,-78,-84
-9,-86,-77,47,33,-82,67,80,38,-26,-76,-84
-8,-86,-77,47,34,-82,67,81,39,-26,-75,-83
-9,-86,-76,47,33,-81,69,83,40,-27,-74,-83
-10,-86,-76,47,32,-81,71,86,42,-27,-73,-83
-10,-86,-76,47,32,-81,72,88,45,-25,-73,-83
-10,-85,-76,47,32,-81,74,91,47,-23,-72,-82
-11,-85,-75,47,31,-80,75,93,47,-22,-71,-81
-11,-85,-74,47,31,-80,76,95,47,-22,-71,-81
-11,-85,-74,47,31,-80,78,96,46,-22,-71,-81
-10,-85,-75,47,31,-80,80,97,46,-23,-71,-80
-11,-85,-74,47,30,-79,82,100,47,-23,-70,-79
-11,-85,-73,48,30,-79,83,102,48,-23,-69,-78
-11,-85,-75,47,32,-81,84,104,47,-25,-69,-78
-11,-85,-75,47,33,-81,87,109,48,-25,-69,-77
-11,-86,-76,48,33,-82,91,115,49,-24,-69,-76
-11,-88,-77,49,33,-83,94,120,51,-24,-69,-75
-11,-88,-77,49,33,-83,97,124,51,-24,-69,-74
-10,-89,-79,49,33,-84,98,126,50,-25,-68,-74
-10,-90,-80,49,34,-85,98,125,48,-27,-68,-74
-10,-90,-80,50,34,-86,98,125,46,-28,-68,-73
-10,-90,-80,50,34,-86,98,124,43,-29,-68,-72
-9,-90,-82,49,36,-87,100,126,41,-30,-67,-72
-7,-90,-84,48,38,-88,101,127,39,-30,-67,-72
-6,-90,-85,48,39,-88,101,126,37,-31,-67,-71
-6,-90,-85,48,39,-88,101,125,36,-31,-67,-69
-5,-90,-85,48,39,-88,99,123,35,-30,-66,-68
-4,-89,-85,46,39,-87,96,121,35,-30,-65,-67
-3,-87,-85,45,40,-86,94,119,36,-29,-63,-65
-1,-85,-84,43,40,-86,89,114,36,-28,-62,-64
-1,-81,-81,41,39,-83,83,108,35,-26,-60,-61
-1,-77,-77,39,38,-79,76,103,35,-23,-57,-58
-1,-74,-75,38,36,-75,69,97,35,-22,-55,-54
0,-71,-71,36,35,-71,64,93,36,-20,-52,-51
0,-67,-68,34,34,-67,58,89,36,-18,-49,-49
1,-64,-65,31,33,-65,52,84,37,-16,-46,-46
1,-60,-61,29,30,-62,47,79,38,-13,-43,-43
1,-57,-58,28,28,-59,41,73,39,-11,-40,-40
1,-54,-55,26,27,-56,35,68,39,-9,-37,-37
1,-51,-52,26,26,-54,30,64,38,-8,-34,-34
0,-49,-50,25,25,-50,27,61,38,-7,-33,-31
0,-46,-47,24,24,-47,23,56,37,-7,-31,-28
1,-44,-45,23,24,-45,20,52,36,-5,-28,-27
1,-43,-43,21,22,-43,18,48,35,-4,-25,-26
1,-40,-41,20,20,-41,16,45,33,-4,-23,-24
-1,-38,-36,19,17,-38,15,43,32,-4,-21,-22
-3,-35,-32,19,13,-35,14,39,30,-3,-20,-19
-2,-33,-31,17,13,-33,11,35,27,-4,-19,-15
-1,-29,-28,16,13,-30,8,31,25,-4,-17,-10
-3,-26,-23,15,10,-26,5,27,23,-2,-15,-6
-5,-23,-19,14,7,-22,4,24,23,-1,-11,-3
-5,-21,-16,13,6,-19,2,20,21,0,-9,-1
-4,-18,-15,11,6,-17,0,16,20,0,-7,1
-3,-15,-13,9,4,-15,-2,14,20,1,-5,4
-3,-12,-9,8,1,-12,-4,12,18,2,-2,7
-2,-8,-6,5,0,-9,-6,9,16,2,0,7
-3,-5,-2,4,-1,-4,-8,6,13,2,1,10
-7,-3,4,6,-6,0,-9,2,12,4,2,14
-10,-2,8,6,-9,2,-11,0,12,5,5,16
-11,0,10,6,-10,4,-12,-2,11,7,7,18
-11,1,13,4,-12,7,-14,-6,10,7,10,20
-11,3,14,3,-13,8,-15,-8,8,7,11,21
-10,6,16,2,-14,10,-17,-10,6,7,12,23
-10,10,19,0,-16,13,-19,-12,4,7,14,25
-10,13,22,-1,-17,16,-20,-14,3,8,15,27
-12,14,26,0,-20,19,-21,-16,1,8,16,29
-16,15,31,1,-24,22,-21,-18,1,10,17,31
-17,17,34,1,-26,25,-21,-19,2,11,19,32
-14,19,34,-2,-24,26,-23,-22,1,10,18,32
-14,20,35,-4,-25,27,-25,-25,1,11,19,32
-15,22,38,-3,-27,29,-26,-25,1,12,19,32
-16,24,39,-4,-29,30,-27,-27,1,12,19,32
-17,25,41,-4,-30,32,-27,-28,0,14,20,32
-17,27,43,-4,-31,34,-28,-30,0,15,21,33
-20,27,47,-3,-34,37,-28,-31,0,16,22,34
-24,27,52,-1,-38,40,-28,-31,2,17,23,34
-24,28,53,-2,-39,41,-29,-33,1,17,23,34
-22,29,51,-4,-37,40,-30,-35,0,16,22,33
-23,31,54,-4,-39,41,-30,-35,0,17,22,33
-24,32,56,-4,-41,43,-30,-36,2,18,22,34
-23,34,56,-5,-40,44,-30,-37,4,19,22,34
-22,35,56,-5,-40,45,-30,-37,3,20,22,34
-23,35,58,-5,-41,46,-30,-39,3,20,22,34
-25,35,59,-5,-43,47,-30,-40,3,20,22,34
-25,35,60,-5,-43,47,-30,-40,4,20,22,34
-26,36,62,-6,-44,49,-30,-42,5,20,22,34
-27,37,64,-6,-45,49,-30,-43,5,20,23,33
-29,37,66,-4,-48,50,-29,-43,6,22,23,33
-31,39,69,-4,-51,53,-29,-43,6,23,23,34
-32,40,71,-4,-52,55,-29,-43,7,25,23,34
-32,40,71,-4,-52,55,-27,-44,8,25,23,34
-31,39,70,-4,-52,55,-26,-45,9,25,20,33
-31,39,69,-4,-50,54,-26,-45,10,26,18,32
-32,38,69,-3,-51,54,-25,-45,10,27,17,33
-33,37,70,-1,-52,53,-24,-45,10,26,17,33
-34,37,70,-1,-53,53,-23,-45,10,25,16,32
-35,37,71,-1,-54,53,-22,-45,10,23,16,32
-36,37,73,0,-55,54,-21,-44,10,22,17,32
-38,37,74,1,-57,55,-19,-43,10,21,17,31
-38,35,73,2,-57,54,-17,-43,8,20,15,30
-38,33,71,2,-54,51,-15,-43,7,20,13,28
-38,31,70,3,-54,50,-14,-42,7,19,13,27
-37,29,67,4,-53,48,-14,-42,5,16,12,24
-35,28,63,3,-49,45,-15,-43,2,13,9,21
-35,27,62,4,-49,44,-15,-44,1,12,7,19
-36,25,61,6,-50,43,-14,-44,0,9,5,17
-36,24,60,6,-49,41,-13,-43,-2,4,1,16
-38,23,61,7,-51,42,-12,-43,-1,3,0,16
-40,22,62,9,-52,41,-11,-43,-1,6,-1,16
-39,20,58,9,-50,39,-11,-44,-3,5,-2,14
-37,17,54,9,-47,35,-10,-44,-4,2,-4,11
-37,15,52,11,-45,33,-9,-43,-5,0,-6,10
-37,13,51,12,-45,31,-7,-42,-6,-2,-7,9
-37,12,49,13,-45,30,-6,-41,-7,-3,-8,9
-37,11,48,13,-44,29,-6,-41,-7,-5,-11,9
-37,10,48,13,-43,28,-5,-41,-8,-7,-12,8
-39,9,48,15,-45,28,-4,-41,-10,-9,-13,7
-42,6,47,18,-45,26,-2,-39,-10,-9,-14,7
-41,4,45,18,-44,24,-1,-38,-10,-9,-13,7
-39,4,43,18,-41,23,0,-37,-10,-9,-13,6
-37,3,40,17,-39,22,0,-36,-10,-9,-14,4
-36,2,38,17,-37,19,0,-35,-10,-9,-15,3
-33,2,36,17,-36,18,0,-34,-12,-11,-17,2
-33,2,36,16,-36,18,1,-34,-12,-13,-19,1
-35,1,37,17,-38,18,2,-33,-11,-13,-18,2
-36,0,36,18,-37,17,3,-32,-12,-14,-19,1
-34,-1,33,17,-35,16,3,-32,-13,-16,-20,-1
-34,-2,32,18,-35,15,4,-31,-14,-18,-21,-2
-36,-2,33,19,-36,15,5,-31,-15,-20,-22,-2
-39,-3,34,21,-37,15,6,-30,-16,-22,-24,-3
-38,-5,33,22,-36,13,6,-30,-18,-23,-25,-4
-37,-6,31,22,-35,12,6,-30,-18,-23,-25,-5
-38,-6,32,23,-36,12,6,-29,-17,-22,-25,-6
-39,-6,32,23,-37,12,6,-29,-17,-23,-26,-8
-39,-7,32,24,-37,12,7,-29,-17,-23,-26,-8
-41,-8,33,24,-38,12,9,-27,-17,-21,-26,-7
-40,-8,32,24,-37,12,9,-27,-16,-22,-27,-7
-39,-9,30,25,-36,10,9,-27,-16,-25,-27,-7
-41,-10,30,26,-37,9,9,-26,-16,-26,-27,-6
-42,-10,31,27,-38,10,10,-26,-16,-25,-27,-6
-42,-10,30,27,-36,8,10,-26,-16,-25,-28,-7
-40,-12,27,27,-35,7,9,-26,-17,-25,-30,-10
-40,-13,27,27,-35,6,10,-24,-17,-25,-30,-10
-40,-13,27,27,-35,6,11,-24,-17,-25,-29,-10
-40,-14,26,27,-34,5,11,-24,-19,-27,-31,-11
-39,-14,24,27,-32,4,11,-24,-19,-28,-32,-12
-38,-15,22,27,-31,3,11,-24,-19,-29,-34,-12
-39,-16,22,28,-31,2,10,-24,-21,-30,-35,-13
-40,-17,22,29,-32,2,10,-24,-20,-30,-35,-13
-41,-17,23,29,-33,2,11,-22,-18,-29,-33,-12
-42,-17,24,30,-33,2,11,-22,-18,-28,-33,-12
-41,-18,23,30,-33,2,10,-23,-18,-29,-34,-13
-40,-17,23,29,-32,2,9,-24,-19,-30,-34,-12
-42,-15,26,29,-34,4,9,-24,-19,-29,-33,-10
-42,-15,27,29,-35,5,9,-25,-19,-29,-32,-8
-40,-15,24,28,-33,4,8,-26,-20,-29,-32,-8
-37,-13,23,26,-31,5,6,-28,-20,-27,-30,-7
-38,-10,27,25,-34,8,5,-30,-19,-24,-26,-3
-41,-7,33,25,-38,12,4,-31,-18,-20,-21,1
-42,-4,38,24,-41,17,2,-34,-18,-16,-15,5
-41,0,41,22,-42,20,0,-37,-19,-12,-9,8
-41,3,45,19,-44,24,-4,-40,-20,-10,-4,11
-44,7,52,19,-49,30,-5,-44,-20,-7,1,16
-45,12,57,17,-51,35,-8,-47,-22,-4,5,21
-45,16,60,15,-53,39,-10,-50,-24,-4,8,24
-45,20,63,13,-54,41,-12,-54,-25,-4,9,25
-41,23,64,10,-53,43,-16,-60,-29,-6,7,25
-39,26,65,7,-53,45,-20,-66,-33,-7,7,28
-41,26,67,8,-55,46,-20,-68,-36,-9,6,29
-43,23,67,11,-55,44,-18,-65,-38,-12,0,27
-45,16,62,15,-54,39,-14,-59,-37,-16,-8,19
-45,4,50,21,-48,28,-7,-52,-33,-22,-21,5
-43,-9,34,26,-39,13,-1,-45,-33,-32,-38,-9
-42,-21,20,32,-32,0,3,-40,-36,-45,-56,-22
-41,-32,8,37,-25,-12,8,-34,-39,-56,-69,-33
-39,-43,-5,41,-17,-25,13,-27,-40,-65,-78,-44
-35,-54,-19,45,-7,-38,17,-20,-41,-72,-85,-55
-31,-63,-32,47,0,-48,20,-13,-40,-77,-88,-63
-28,-69,-41,49,6,-56,23,-6,-38,-79,-92,-67
-27,-76,-49,52,10,-63,27,0,-34,-80,-97,-71
-26,-82,-56,54,14,-69,30,6,-29,-79,-101,-76
-24,-86,-62,56,18,-73,32,12,-22,-78,-104,-79
-23,-89,-67,57,21,-78,35,18,-16,-77,-107,-83
-21,-92,-72,57,25,-83,36,22,-9,-75,-109,-86
-19,-94,-76,56,28,-86,36,24,-2,-70,-107,-88
-18,-94,-77,56,30,-86,37,28,4,-62,-105,-89
-17,-93,-77,56,30,-86,37,32,11,-53,-102,-88
-16,-93,-77,56,30,-86,39,37,19,-45,-100,-86
-15,-93,-78,55,30,-85,41,42,23,-43,-98,-84
-15,-92,-77,55,30,-84,42,45,23,-46,-99,-83
-17,-94,-77,56,29,-85,44,46,21,-50,-100,-84
-16,-95,-79,56,31,-87,46,49,22,-53,-101,-86
-15,-96,-82,55,33,-90,48,53,25,-53,-100,-87
-16,-96,-81,56,32,-90,49,57,29,-51,-99,-88
-16,-95,-80,57,31,-89,51,61,32,-49,-98,-88
-15,-97,-82,57,33,-90,52,65,35,-48,-99,-88
-14,-98,-84,57,34,-90,53,68,38,-47,-99,-88
-13,-98,-85,56,35,-91,53,70,40,-45,-98,-89
-13,-97,-84,56,35,-91,53,71,41,-45,-97,-89
-14,-97,-83,55,34,-90,55,74,42,-46,-97,-88
-14,-97,-82,55,34,-90,56,76,44,-47,-97,-87
-15,-97,-82,56,34,-91,58,79,45,-47,-96,-86
-16,-97,-82,57,33,-91,60,83,47,-44,-95,-86
-15,-97,-83,57,33,-91,60,84,48,-42,-97,-85
-15,-97,-82,57,33,-90,61,85,48,-42,-97,-84
-16,-97,-80,57,31,-89,62,87,48,-43,-96,-82
-18,-97,-79,58,29,-89,64,89,49,-43,-94,-82
-19,-97,-79,59,29,-89,66,91,50,-42,-93,-83
-20,-98,-79,59,29,-89,68,93,51,-43,-92,-83
-19,-98,-80,59,30,-91,70,98,51,-43,-91,-83
-17,-100,-84,59,33,-93,74,104,51,-41,-90,-83
-16,-100,-85,59,34,-94,76,110,52,-41,-90,-83
-17,-101,-84,60,32,-94,79,115,53,-42,-89,-80
-19,-103,-84,61,32,-94,81,117,52,-43,-89,-78
-19,-104,-85,62,32,-95,81,117,49,-45,-89,-78
-19,-104,-85,62,32,-95,81,114,47,-46,-88,-76
-18,-104,-86,62,34,-96,82,113,44,-47,-88,-75
-16,-104,-89,61,36,-97,83,115,42,-48,-88,-76
-15,-104,-90,60,37,-97,85,117,40,-47,-88,-76
-15,-104,-90,60,37,-97,84,117,38,-46,-87,-75
-15,-104,-89,60,36,-97,82,115,37,-46,-86,-73
-15,-104,-89,60,36,-97,80,114,37,-44,-86,-71
-13,-103,-90,58,38,-97,78,111,37,-44,-86,-71
-11,-100,-90,56,38,-96,74,107,37,-44,-85,-69
-12,-98,-87,55,36,-93,68,101,38,-43,-84,-66
-13,-96,-82,54,33,-89,62,95,38,-41,-80,-65
-11,-92,-82,52,35,-88,55,89,38,-41,-78,-64
-6,-89,-83,48,38,-87,47,83,36,-42,-78,-62
-6,-85,-80,46,36,-84,41,79,36,-41,-76,-59
-6,-81,-76,44,34,-80,36,76,38,-38,-72,-55
-6,-79,-72,42,32,-76,31,70,38,-35,-69,-53
-6,-75,-69,40,31,-72,24,63,39,-33,-66,-50
-6,-72,-66,39,29,-70,19,58,41,-29,-64,-48
-7,-70,-63,39,27,-67,14,55,42,-27,-61,-46
-10,-69,-59,40,24,-65,11,52,41,-25,-59,-44
-12,-67,-55,40,21,-62,7,48,41,-24,-58,-42
-11,-64,-53,38,21,-60,2,45,40,-24,-56,-40
-9,-62,-53,36,21,-59,-1,42,39,-24,-53,-39
-10,-60,-50,35,19,-56,-3,38,38,-24,-51,-36
-12,-57,-46,35,16,-52,-4,35,37,-24,-50,-33
-13,-56,-43,35,13,-49,-4,34,37,-22,-48,-31
-12,-54,-42,34,15,-49,-6,31,34,-20,-46,-30
-9,-52,-42,31,16,-48,-9,26,29,-20,-44,-29
-9,-49,-40,30,15,-46,-12,21,25,-20,-43,-27
-11,-46,-34,29,11,-42,-15,19,24,-21,-40,-24
-14,-44,-30,29,7,-38,-17,15,26,-21,-37,-20
-15,-41,-27,28,5,-35,-19,12,27,-19,-35,-16
-16,-38,-23,27,3,-31,-20,10,26,-17,-32,-14
-17,-36,-19,27,0,-28,-22,7,23,-18,-30,-12
-17,-34,-16,27,-1,-25,-23,5,23,-17,-27,-9
-18,-32,-13,26,-3,-23,-25,3,24,-15,-25,-7
-18,-30,-11,25,-3,-22,-27,0,21,-15,-24,-7
-19,-28,-9,25,-5,-20,-29,-3,18,-16,-24,-5
-19,-25,-7,23,-7,-17,-32,-6,17,-14,-23,-2
-19,-23,-4,21,-8,-15,-35,-10,16,-12,-22,0
-19,-20,-1,20,-10,-11,-36,-12,15,-12,-20,3
-19,-17,2,19,-12,-8,-37,-16,12,-12,-17,5
-20,-15,5,19,-13,-6,-38,-18,10,-11,-14,8
-21,-13,9,19,-16,-3,-38,-18,11,-9,-11,11
-25,-11,14,19,-20,0,-38,-19,12,-5,-7,13
-28,-9,19,18,-23,3,-39,-21,11,-4,-6,13
-27,-7,20,17,-24,5,-42,-23,9,-5,-6,12
-26,-4,21,15,-24,7,-43,-26,8,-5,-6,12
-26,-2,23,14,-25,9,-44,-29,8,-4,-6,14
-28,-1,25,15,-27,12,-45,-30,8,-4,-6,16
-28,-1,27,15,-27,12,-46,-31,7,-4,-7,16
-27,0,27,14,-27,13,-47,-32,7,-5,-8,16
-28,1,29,14,-28,14,-48,-33,7,-4,-7,16
-30,3,33,14,-31,16,-49,-34,6,-3,-6,17
-33,4,36,14,-35,19,-49,-35,6,-1,-5,19
-33,6,38,13,-36,21,-51,-37,6,0,-5,19
-33,7,40,13,-37,22,-51,-39,5,-1,-5,18
-36,7,42,15,-39,24,-51,-40,5,-3,-3,18
-39,8,46,16,-42,26,-51,-41,6,-1,-2,19
-40,8,47,17,-44,27,-51,-41,8,2,-1,20
-40,9,49,16,-45,28,-50,-41,8,3,-1,20
-39,9,48,15,-44,28,-51,-43,7,2,-2,19
-37,10,48,14,-43,28,-51,-43,7,3,-4,18
-38,10,49,14,-44,29,-51,-43,9,5,-3,19
-41,10,51,15,-47,30,-52,-43,11,6,-3,20
-43,11,53,16,-49,31,-51,-42,11,5,-2,21
-44,12,56,16,-50,34,-50,-41,12,7,-2,21
-43,13,56,16,-50,34,-49,-41,15,9,-2,23
-44,12,56,17,-50,34,-48,-40,16,10,-2,23
-45,12,57,17,-52,34,-47,-40,17,9,-1,22
-45,12,57,17,-52,34,-48,-40,16,7,-2,21
-44,12,57,16,-52,34,-48,-41,16,5,-4,19
-46,12,59,16,-54,35,-47,-41,17,6,-5,19
-48,12,59,18,-54,35,-45,-39,19,9,-4,19
-46,12,57,17,-52,34,-45,-38,20,11,-4,18
-45,12,56,17,-51,34,-45,-39,18,12,-4,16
-46,11,56,18,-51,34,-43,-38,17,12,-5,14
-48,10,57,19,-53,33,-40,-36,18,13,-5,14
-49,10,59,20,-55,34,-39,-35,20,13,-5,16
-48,10,59,19,-54,34,-38,-34,19,11,-7,16
-46,8,55,18,-52,31,-38,-34,17,7,-9,15
-47,6,53,19,-50,28,-38,-33,17,5,-11,14
-47,5,52,20,-50,27,-37,-33,17,3,-11,14
-46,5,51,21,-50,27,-36,-34,15,1,-11,14
-46,5,51,21,-50,27,-36,-36,14,2,-11,13
-47,3,50,23,-50,26,-36,-37,12,2,-12,12
-49,1,50,24,-50,25,-35,-36,10,1,-13,10
-50,0,50,24,-50,24,-34,-35,8,0,-14,8
-50,-2,48,26,-50,23,-34,-36,6,-3,-16,7
-51,-4,47,28,-50,21,-33,-37,4,-6,-17,6
-52,-5,47,29,-51,20,-33,-37,4,-9,-19,6
-53,-6,46,31,-51,19,-31,-37,3,-12,-20,5
-53,-8,44,31,-49,17,-30,-36,1,-14,-22,4
-51,-10,40,31,-46,15,-28,-36,0,-15,-24,2
-51,-12,36,31,-44,12,-27,-36,-2,-16,-25,1
-51,-14,35,32,-43,10,-27,-34,-3,-16,-26,0
-51,-15,35,33,-44,10,-27,-34,-3,-17,-28,-2
-52,-17,35,33,-44,8,-26,-33,-3,-18,-31,-2
-52,-18,34,34,-43,7,-25,-32,-3,-18,-33,-2
-51,-18,32,34,-42,6,-24,-30,-3,-19,-33,-2
-49,-19,29,35,-39,4,-24,-30,-5,-20,-34,-3
-47,-20,25,35,-37,2,-23,-30,-6,-21,-35,-4
-46,-20,24,34,-35,1,-21,-29,-6,-22,-35,-4
-48,-21,25,35,-37,1,-19,-27,-6,-22,-35,-4
-50,-22,27,36,-39,2,-18,-26,-7,-23,-35,-4
-52,-24,27,38,-40,1,-18,-26,-7,-23,-35,-5
-49,-26,23,37,-37,-2,-18,-27,-8,-25,-36,-7
-46,-26,20,36,-33,-3,-19,-27,-9,-27,-37,-8
-46,-26,20,36,-33,-3,-19,-26,-10,-28,-37,-8
-50,-27,22,39,-37,-3,-17,-25,-9,-28,-37,-8
-52,-28,22,41,-38,-3,-15,-25,-9,-27,-38,-8
-53,-29,22,41,-38,-4,-15,-25,-10,-28,-38,-10
-52,-29,22,41,-38,-4,-15,-24,-10,-29,-38,-11
-52,-30,22,41,-37,-4,-15,-24,-10,-29,-38,-11
-52,-31,21,41,-37,-6,-14,-23,-10,-29,-38,-11
-52,-31,21,41,-37,-6,-14,-23,-10,-29,-39,-10
-52,-31,20,42,-36,-6,-14,-22,-10,-29,-39,-10
-53,-31,21,43,-38,-6,-14,-22,-11,-29,-39,-11
-55,-32,21,44,-38,-6,-13,-22,-11,-29,-39,-11
-57,-34,22,46,-40,-6,-11,-21,-11,-28,-39,-10
-59,-34,24,47,-42,-6,-10,-20,-10,-28,-40,-10
-53,-34,18,44,-36,-9,-12,-21,-12,-31,-43,-13
-46,-35,10,41,-29,-13,-14,-23,-15,-34,-47,-17
-47,-35,12,42,-30,-13,-13,-23,-15,-35,-47,-17
-51,-35,15,43,-33,-10,-11,-21,-14,-35,-45,-15
-52,-36,15,44,-34,-10,-11,-20,-14,-35,-45,-15
-52,-37,14,45,-34,-12,-10,-20,-14,-35,-45,-16
-53,-37,14,45,-34,-12,-10,-20,-13,-34,-45,-16
-53,-37,14,45,-33,-12,-10,-20,-13,-34,-45,-16
-52,-38,14,45,-33,-13,-9,-19,-13,-34,-45,-17
-52,-38,13,45,-32,-13,-9,-18,-13,-34,-46,-18
-51,-38,12,45,-31,-13,-10,-19,-14,-35,-46,-18
-50,-38,11,44,-30,-14,-11,-20,-16,-37,-46,-18
-50,-38,12,44,-31,-13,-11,-21,-17,-37,-46,-18
-52,-37,15,44,-33,-11,-12,-21,-17,-34,-44,-15
-53,-36,17,44,-35,-10,-12,-23,-17,-31,-42,-13
-51,-35,17,43,-34,-10,-14,-25,-17,-29,-39,-12
-50,-34,17,42,-34,-9,-15,-27,-18,-27,-37,-11
-50,-30,20,41,-35,-6,-17,-30,-18,-26,-34,-8
-51,-25,25,39,-38,-1,-19,-32,-17,-24,-29,-3
-53,-20,32,37,-43,5,-20,-34,-16,-20,-24,2
-54,-16,38,35,-46,10,-22,-36,-16,-16,-18,7
-53,-12,40,32,-46,14,-25,-40,-17,-14,-14,11
-51,-8,42,29,-46,16,-29,-45,-20,-12,-10,15
-51,-5,46,28,-49,20,-32,-49,-21,-10,-5,19
-52,-1,50,26,-51,24,-35,-53,-22,-8,-2,22
-53,2,55,25,-54,28,-37,-57,-24,-7,0,25
-54,7,61,24,-58,33,-39,-61,-26,-6,3,29
-55,12,68,22,-62,39,-41,-66,-30,-5,5,34
-55,15,71,21,-63,43,-42,-69,-34,-6,6,35
-55,14,70,21,-62,41,-42,-69,-36,-8,2,32
-54,8,63,22,-58,35,-40,-67,-37,-12,-5,25
-53,-2,50,27,-52,23,-35,-61,-38,-20,-19,11
-52,-16,34,33,-44,8,-28,-54,-39,-33,-37,-5
-52,-29,21,39,-37,-5,-23,-48,-41,-45,-53,-18
-53,-39,11,46,-32,-15,-16,-41,-43,-56,-65,-28
-53,-50,2,52,-28,-25,-10,-33,-43,-66,-75,-37
-50,-60,-10,56,-20,-36,-5,-25,-44,-76,-84,-46
-45,-70,-24,59,-10,-48,-3,-19,-43,-82,-91,-54
-40,-79,-38,60,-1,-59,-1,-13,-42,-86,-98,-61
-36,-87,-52,61,8,-70,3,-7,-38,-86,-103,-68
-34,-95,-63,63,14,-80,7,0,-33,-85,-107,-75
-33,-101,-70,66,18,-87,10,6,-27,-83,-110,-79
-33,-105,-73,69,20,-91,14,12,-20,-81,-112,-83
-33,-108,-75,70,21,-92,16,17,-14,-77,-113,-84
-31,-108,-77,70,23,-93,18,22,-7,-73,-112,-85
-28,-108,-79,70,25,-94,19,26,-1,-67,-111,-87
-29,-109,-79,70,25,-94,19,29,5,-60,-109,-87
-30,-109,-80,69,25,-95,20,32,11,-54,-106,-86
-26,-109,-84,66,29,-97,20,35,15,-52,-104,-86
-24,-109,-87,65,32,-99,20,37,15,-53,-104,-87
-25,-110,-86,67,30,-99,22,40,15,-55,-106,-88
-27,-112,-85,69,29,-99,25,45,17,-56,-106,-88
-26,-111,-85,69,29,-99,28,50,20,-56,-106,-89
-23,-111,-87,68,32,-99,30,55,25,-56,-106,-90
-21,-112,-90,67,34,-101,31,57,27,-57,-108,-92
-22,-114,-92,68,35,-104,32,60,29,-56,-109,-94
-23,-117,-94,71,35,-107,34,63,33,-53,-107,-94
-24,-119,-96,71,35,-108,36,66,35,-53,-106,-94
-24,-119,-96,71,35,-109,38,69,35,-54,-106,-94
-25,-119,-95,71,35,-108,39,71,35,-54,-106,-94
-24,-118,-95,71,35,-107,40,73,35,-54,-104,-94
-22,-117,-94,71,35,-106,41,76,36,-53,-102,-93
-23,-116,-92,70,34,-105,43,79,36,-52,-99,-92
-24,-115,-91,70,33,-104,45,81,36,-50,-98,-91
-24,-117,-93,70,34,-104,46,84,35,-50,-98,-91
-23,-117,-95,69,36,-106,49,86,35,-49,-98,-92
-24,-115,-93,69,34,-105,52,88,36,-49,-97,-92
-26,-115,-90,71,32,-104,55,90,37,-48,-96,-91
-28,-116,-89,73,30,-103,57,93,37,-48,-96,-90
-28,-117,-89,73,30,-104,59,98,39,-48,-96,-90
-26,-119,-92,73,32,-106,62,105,41,-48,-96,-90
-26,-120,-94,73,34,-107,66,112,42,-48,-96,-90
-27,-121,-95,73,33,-107,70,116,40,-48,-95,-90
-28,-123,-96,75,33,-109,74,118,38,-49,-92,-88
-29,-123,-96,76,33,-110,74,117,34,-51,-91,-87
-28,-123,-96,75,34,-110,73,114,31,-52,-91,-87
-25,-123,-98,74,36,-110,73,113,29,-52,-91,-88
-24,-122,-99,73,36,-110,74,115,26,-53,-92,-88
-22,-122,-99,73,37,-110,76,115,23,-54,-92,-86
-22,-122,-100,72,38,-111,76,115,21,-53,-90,-85
-21,-122,-101,71,39,-111,75,114,21,-50,-88,-85
-20,-122,-103,70,41,-112,74,111,21,-48,-86,-84
-18,-122,-105,69,43,-113,71,107,20,-48,-86,-84
-18,-120,-103,69,42,-112,68,104,20,-48,-85,-83
-19,-118,-99,69,40,-109,64,101,21,-46,-84,-81
-17,-115,-98,67,39,-107,58,95,21,-44,-82,-79
-10,-111,-99,61,43,-106,50,89,20,-40,-78,-76
-5,-106,-99,56,46,-103,42,84,20,-36,-74,-72
-7,-102,-94,55,42,-97,35,79,20,-34,-70,-69
-13,-97,-84,55,35,-91,31,73,19,-30,-64,-64
-17,-91,-75,54,29,-83,26,69,20,-26,-58,-59
-16,-87,-72,51,28,-79,21,65,21,-26,-55,-56
-14,-87,-73,50,30,-80,16,59,22,-27,-55,-55
-14,-87,-74,51,30,-80,12,55,22,-27,-55,-55
-13,-86,-73,49,29,-80,8,53,22,-26,-54,-55
-13,-84,-71,49,28,-78,3,49,22,-24,-52,-53
-14,-83,-70,48,27,-76,0,45,22,-21,-48,-52
-15,-81,-66,47,25,-73,-2,41,22,-19,-46,-49
-16,-77,-61,46,22,-69,-3,37,22,-17,-42,-45
-15,-73,-59,43,21,-66,-5,33,22,-15,-38,-41
-13,-69,-57,41,21,-64,-8,30,20,-12,-35,-39
-14,-66,-53,40,19,-60,-9,28,19,-8,-32,-36
-15,-64,-50,40,17,-57,-10,26,18,-6,-30,-34
-15,-62,-47,39,15,-55,-12,22,16,-6,-28,-32
-17,-60,-43,39,13,-52,-14,17,13,-4,-24,-30
-20,-58,-38,39,9,-48,-16,13,11,-3,-20,-27
-22,-56,-33,39,6,-44,-17,9,9,-1,-17,-24
-23,-51,-29,37,3,-39,-20,5,8,0,-13,-20
-22,-46,-25,34,2,-35,-22,0,5,2,-10,-16
-22,-41,-22,32,0,-32,-24,-4,2,1,-7,-13
-21,-36,-19,29,-1,-28,-27,-6,0,0,-4,-10
-20,-33,-15,27,-3,-24,-28,-7,-1,2,0,-6
-21,-32,-11,27,-5,-22,-28,-9,-1,3,2,-4
-23,-32,-9,27,-7,-21,-29,-13,-2,3,2,-4
-23,-32,-8,27,-8,-20,-30,-16,-2,4,3,-2
-23,-29,-5,26,-9,-17,-31,-18,-2,6,5,0
-26,-28,-2,26,-12,-14,-31,-20,-3,8,7,1
-28,-26,2,27,-16,-12,-31,-22,-6,9,10,2
-31,-22,7,27,-21,-7,-34,-25,-8,13,14,6
-33,-18,13,27,-24,-3,-38,-29,-10,15,17,8
-31,-14,16,24,-24,1,-39,-31,-12,17,19,10
-30,-12,17,21,-23,2,-39,-32,-12,17,20,10
-30,-12,17,20,-23,2,-39,-34,-11,16,19,9
-31,-11,19,20,-25,4,-39,-37,-12,17,20,10
-31,-8,21,19,-26,6,-40,-39,-13,18,23,12
-31,-3,26,16,-29,11,-40,-39,-12,21,27,16
-32,0,31,16,-32,15,-40,-39,-10,23,29,19
-34,0,32,16,-33,16,-42,-41,-11,23,30,20
-34,1,34,16,-34,17,-44,-43,-13,23,31,22
-37,1,39,18,-38,20,-44,-45,-13,26,34,24
-39,2,40,18,-40,21,-44,-45,-13,28,34,24
-35,2,37,16,-36,19,-43,-49,-14,26,33,23
-35,2,36,16,-36,19,-43,-51,-15,25,32,22
-37,3,38,17,-39,21,-43,-52,-12,28,32,23
-39,4,42,18,-41,23,-43,-52,-8,32,33,23
-39,4,43,18,-42,24,-43,-52,-7,35,34,22
-39,3,41,18,-40,22,-42,-52,-8,34,32,19
-39,2,41,18,-40,21,-41,-52,-10,32,30,16
-41,2,43,19,-42,21,-40,-50,-9,32,29,15
-45,2,45,21,-45,23,-37,-50,-7,33,31,16
-45,3,47,20,-46,25,-37,-54,-7,36,33,19
-42,7,48,17,-46,27,-38,-56,-6,38,36,22
-43,10,53,17,-49,31,-38,-56,-4,41,40,26
-47,11,57,18,-53,34,-37,-56,-2,43,43,28
-48,10,57,20,-53,33,-35,-56,-3,43,43,28
-48,10,58,20,-53,33,-34,-57,-5,44,44,28
-48,10,58,18,-53,33,-35,-59,-6,44,44,28
-48,10,58,18,-53,33,-36,-60,-4,43,43,28
-47,12,58,17,-53,35,-35,-58,-1,44,41,28
-47,13,60,16,-54,36,-33,-57,1,45,40,28
-49,12,61,19,-55,36,-31,-57,0,43,39,26
-48,10,58,19,-53,35,-31,-58,-3,43,40,25
-46,10,56,18,-51,33,-31,-56,-3,45,42,26
-46,11,57,18,-52,34,-30,-54,-2,45,42,26
-49,10,58,20,-54,34,-28,-54,-2,44,41,25
-50,9,58,20,-54,33,-25,-54,-3,44,40,24
-49,7,56,21,-54,31,-23,-54,-4,44,40,24
-50,6,56,22,-54,30,-22,-54,-4,42,40,23
-50,5,55,23,-54,30,-20,-53,-5,36,38,23
-50,4,54,24,-53,29,-18,-50,-7,31,37,22
-51,3,54,24,-53,29,-17,-49,-8,33,36,22
-53,2,54,26,-54,29,-17,-49,-8,37,37,22
-55,1,54,27,-54,28,-18,-49,-8,40,36,21
-54,0,52,27,-53,25,-18,-48,-8,40,34,19
-51,-2,47,27,-50,22,-18,-48,-8,36,32,17
-50,-6,43,27,-47,18,-16,-48,-8,33,28,14
-50,-9,39,29,-46,15,-14,-48,-8,32,26,13
-49,-12,36,31,-44,13,-13,-48,-10,32,26,12
-51,-12,37,32,-44,12,-12,-48,-15,30,27,12
-54,-12,40,34,-48,14,-12,-50,-21,25,28,13
-54,-11,43,33,-49,16,-13,-51,-25,21,28,14
-52,-10,41,31,-47,16,-13,-51,-26,19,26,13
-49,-11,37,31,-44,13,-10,-49,-26,17,22,11
-52,-14,36,33,-45,10,-7,-48,-25,16,22,11
-55,-17,37,36,-47,9,-5,-47,-24,16,23,12
-54,-19,34,37,-45,7,-4,-46,-24,17,23,11
-53,-22,28,37,-41,3,-4,-45,-24,19,23,9
-50,-24,24,37,-37,1,-4,-44,-26,19,21,7
-50,-25,24,38,-37,0,-2,-43,-28,16,19,5
-54,-26,28,41,-41,0,0,-41,-29,15,17,4
-55,-29,26,44,-41,-2,1,-40,-29,14,16,3
-49,-30,19,41,-35,-6,1,-40,-29,11,14,2
-42,-28,14,36,-29,-7,2,-38,-29,10,14,1
-42,-26,16,34,-30,-5,2,-37,-30,10,15,2
-48,-25,22,36,-36,-1,2,-37,-29,11,17,5
-50,-25,24,37,-37,0,2,-37,-29,11,18,6
-47,-26,20,37,-34,-2,2,-37,-31,8,16,6
-45,-26,18,36,-32,-3,2,-36,-32,5,15,6
-46,-26,19,36,-33,-3,3,-35,-31,6,15,6
-48,-28,19,39,-34,-5,3,-36,-32,9,16,7
-49,-32,17,41,-33,-7,4,-36,-33,9,16,6
-49,-33,16,41,-33,-8,6,-35,-34,6,16,4
-49,-34,15,42,-33,-9,8,-33,-35,1,13,2
-49,-36,11,43,-31,-12,8,-32,-35,-2,8,0
-48,-38,9,43,-29,-13,8,-31,-34,-2,6,-1
-48,-38,8,43,-28,-14,9,-30,-31,1,7,-1
-50,-40,8,45,-30,-16,10,-29,-29,4,7,-1
-52,-40,10,47,-32,-15,11,-29,-31,6,8,0
-54,-40,12,47,-34,-14,11,-29,-31,9,11,1
-54,-39,15,47,-35,-13,12,-29,-31,11,14,3
-54,-38,17,47,-37,-11,13,-28,-31,8,14,4
-53,-37,16,45,-35,-10,12,-29,-33,3,12,3
-48,-36,12,42,-31,-11,11,-30,-36,0,10,1
-47,-36,9,42,-28,-13,10,-30,-36,0,10,1
-49,-39,8,44,-28,-15,12,-28,-35,0,10,1
-50,-40,8,46,-29,-16,14,-25,-35,-1,9,1
-50,-40,8,46,-29,-16,15,-24,-34,-2,8,0
-47,-42,4,45,-26,-19,13,-26,-35,-1,6,-1
-45,-44,0,45,-23,-22,12,-26,-35,0,5,-1
-45,-44,1,45,-24,-21,13,-24,-33,1,5,0
-45,-44,2,45,-24,-21,13,-24,-33,0,5,0
-44,-43,0,45,-23,-21,12,-26,-35,-1,5,-1
-44,-41,2,44,-24,-19,12,-28,-35,1,7,0
-47,-41,5,45,-27,-18,12,-30,-35,4,10,1
-48,-40,7,45,-28,-16,11,-31,-35,5,14,2
-47,-39,8,44,-28,-16,11,-31,-34,6,16,3
-47,-38,9,43,-29,-15,10,-32,-34,4,17,5
-48,-35,12,42,-31,-11,10,-33,-33,4,19,8
-49,-32,16,41,-33,-7,9,-35,-31,8,23,14
-49,-27,21,38,-35,-2,7,-37,-31,15,30,21
-48,-21,26,36,-37,2,4,-39,-30,22,37,26
-48,-18,30,34,-39,6,0,-44,-33,25,42,30
-50,-13,36,33,-43,11,-2,-49,-35,29,46,34
-51,-7,43,30,-47,17,-4,-52,-35,32,51,38
-47,-3,43,25,-46,19,-7,-54,-35,33,53,42
-45,-2,41,24,-44,19,-10,-57,-37,30,54,43
-45,-2,42,24,-45,20,-11,-61,-40,27,54,45
-45,-1,44,23,-45,22,-13,-65,-43,28,53,45
-48,-1,46,25,-47,22,-12,-65,-42,30,51,44
-51,-5,45,29,-48,20,-8,-61,-39,29,46,39
-52,-11,39,33,-45,14,-3,-55,-38,22,35,30
-48,-22,25,36,-37,1,1,-49,-41,9,19,16
-44,-35,9,41,-28,-13,6,-44,-45,-5,2,0
-44,-47,-3,46,-22,-25,11,-40,-50,-17,-11,-12
-43,-57,-15,50,-15,-36,15,-34,-52,-28,-25,-22
-41,-67,-27,54,-7,-47,19,-27,-53,-37,-35,-31
-40,-75,-36,58,-2,-55,23,-21,-55,-42,-41,-36
-35,-81,-48,59,6,-64,26,-16,-57,-45,-44,-42
-28,-89,-62,60,17,-75,29,-10,-56,-46,-49,-49
-27,-95,-70,62,21,-83,32,-4,-51,-47,-53,-56
-27,-100,-74,65,23,-88,35,3,-45,-48,-57,-61
-26,-104,-78,65,25,-92,38,9,-40,-49,-62,-65
-22,-108,-86,65,30,-97,40,14,-35,-50,-66,-67
-19,-112,-93,65,36,-103,43,19,-29,-49,-67,-70
-19,-115,-97,67,38,-105,44,23,-22,-43,-66,-70
-14,-114,-101,65,44,-107,44,24,-17,-35,-64,-72
-10,-109,-101,60,46,-104,43,25,-11,-26,-61,-72
-15,-104,-90,60,37,-97,45,31,-2,-17,-55,-69
-23,-102,-80,63,28,-91,49,38,6,-11,-49,-65
-24,-105,-81,64,27,-93,51,43,10,-11,-48,-64
-16,-110,-93,63,37,-102,51,45,9,-17,-51,-67
-14,-112,-99,63,41,-105,53,48,10,-22,-53,-69
-16,-110,-95,64,38,-102,55,53,14,-20,-53,-68
-15,-110,-97,64,41,-103,57,56,17,-16,-51,-68
-11,-112,-102,63,45,-107,58,58,17,-12,-50,-68
-12,-114,-103,64,45,-108,59,60,19,-11,-48,-68
-13,-114,-101,64,44,-107,61,63,19,-15,-47,-68
-12,-111,-100,62,43,-106,62,66,20,-22,-48,-67
-12,-109,-97,61,41,-104,64,70,22,-23,-48,-65
-15,-110,-94,63,39,-103,66,75,26,-20,-46,-62
-15,-111,-96,63,39,-104,68,77,28,-15,-45,-61
-11,-109,-100,61,43,-104,68,77,30,-9,-42,-59
-9,-107,-100,59,45,-103,69,78,31,-4,-38,-58
-10,-107,-98,59,44,-102,70,82,31,-4,-36,-57
-10,-108,-98,60,43,-102,73,84,29,-10,-37,-58
-10,-110,-100,61,43,-105,75,86,27,-17,-40,-61
-9,-112,-102,61,45,-108,77,88,26,-20,-42,-63
-10,-112,-102,62,45,-108,80,91,27,-19,-42,-63
-13,-111,-99,62,42,-106,84,94,29,-16,-40,-61
-13,-110,-99,62,42,-104,85,97,30,-13,-38,-58
-12,-111,-100,63,43,-105,88,101,32,-12,-36,-57
-12,-111,-100,62,43,-105,91,105,33,-11,-35,-54
-11,-110,-100,61,43,-105,93,110,35,-11,-34,-52
-10,-112,-103,61,45,-107,95,114,35,-12,-34,-52
-8,-114,-106,62,48,-110,96,114,30,-14,-34,-53
-7,-112,-105,60,48,-109,95,112,25,-16,-33,-52
-6,-110,-105,58,49,-108,94,109,22,-17,-32,-50
-4,-108,-106,57,50,-108,94,109,20,-17,-31,-49
-5,-109,-105,58,49,-107,97,110,20,-17,-31,-47
-5,-111,-107,59,50,-108,99,108,18,-17,-31,-47
-3,-112,-109,58,52,-111,97,106,15,-17,-30,-47
0,-111,-111,56,54,-111,95,105,14,-17,-28,-47
1,-111,-111,55,55,-111,92,102,15,-18,-26,-46
0,-109,-109,55,54,-110,88,100,15,-19,-26,-46
-2,-107,-104,55,50,-106,86,97,17,-19,-26,-45
-2,-103,-102,52,49,-103,81,92,19,-16,-25,-43
2,-99,-102,48,52,-101,73,85,21,-11,-23,-41
5,-95,-101,45,52,-98,66,81,23,-4,-21,-38
5,-91,-97,43,50,-94,59,78,25,2,-16,-33
6,-86,-94,41,49,-90,53,72,25,6,-10,-29
5,-83,-91,39,47,-87,48,67,25,8,-7,-26
4,-80,-86,39,45,-83,43,64,26,9,-4,-24
2,-78,-82,38,42,-80,38,60,26,9,0,-21
2,-75,-78,36,39,-76,33,56,26,9,2,-19
2,-71,-75,34,38,-73,28,53,26,8,4,-16
4,-68,-74,32,38,-71,23,48,25,7,4,-14
6,-66,-74,30,39,-70,19,45,27,8,3,-13
8,-64,-74,28,40,-69,16,43,28,11,5,-11
10,-61,-72,25,40,-67,13,39,27,14,9,-9
8,-57,-66,24,36,-61,9,35,25,18,14,-6
6,-51,-58,23,32,-55,8,33,23,19,18,-3
6,-47,-54,20,31,-51,8,31,22,15,18,-3
7,-46,-54,20,31,-50,6,28,20,10,16,-2
5,-45,-52,20,29,-49,5,27,21,10,16,0
3,-45,-51,21,26,-48,4,25,22,15,19,4
3,-45,-51,21,26,-48,2,21,22,21,23,6
6,-44,-53,19,28,-48,0,17,20,24,27,7
7,-40,-49,16,27,-44,-2,14,18,26,32,11
9,-34,-43,13,25,-38,-5,11,16,25,34,13
8,-30,-39,11,23,-33,-7,9,14,22,34,15
4,-28,-34,12,19,-30,-8,7,14,20,35,17
1,-26,-30,13,15,-28,-8,6,14,19,36,20
0,-25,-27,12,13,-26,-9,4,14,21,37,22
1,-23,-26,10,13,-25,-11,1,14,24,38,24
4,-21,-26,8,13,-24,-13,-2,13,27,39,24
4,-19,-24,7,12,-21,-14,-5,12,30,42,26
1,-16,-18,8,9,-17,-16,-7,11,33,44,28
0,-12,-13,7,6,-13,-17,-9,10,34,47,30
0,-9,-9,5,5,-9,-18,-11,8,35,50,33
-1,-6,-5,3,2,-5,-20,-14,6,34,51,36
-2,-3,-2,2,0,-2,-21,-16,5,34,51,37
-2,0,0,1,-2,0,-22,-18,4,34,52,39
-4,1,3,1,-5,2,-23,-20,4,36,53,41
-5,3,6,1,-7,4,-23,-21,5,37,56,43
-5,5,8,0,-7,6,-25,-23,4,37,58,45
-4,7,11,-1,-8,9,-27,-24,4,39,59,45
-6,9,14,0,-11,11,-27,-24,4,41,62,47
-9,11,19,0,-14,15,-27,-25,4,42,63,49
-7,14,20,-3,-14,16,-28,-27,2,41,62,49
-7,15,20,-4,-14,17,-29,-29,2,41,62,50
-9,15,23,-3,-17,19,-29,-31,2,43,62,51
-9,16,24,-3,-18,20,-29,-32,2,44,63,51
-9,18,25,-4,-18,22,-30,-34,2,44,64,52
-9,20,27,-5,-19,24,-31,-34,3,45,64,53
-9,22,30,-5,-19,26,-31,-34,4,47,65,53
-11,23,33,-5,-22,28,-31,-35,4,48,66,54
-12,25,36,-5,-24,30,-31,-35,5,49,66,55
-12,25,36,-6,-25,31,-30,-35,5,49,66,55
-14,25,38,-6,-27,31,-30,-35,7,50,66,56
-15,26,39,-6,-28,31,-30,-35,8,51,66,57
-13,27,38,-7,-27,32,-30,-35,9,51,67,57
-13,27,39,-7,-27,33,-30,-34,10,52,67,57
-15,28,41,-5,-28,35,-28,-33,11,53,67,58
-17,29,45,-5,-31,37,-27,-33,13,55,68,59
-16,31,46,-7,-31,39,-28,-33,13,55,68,59
-15,31,45,-7,-31,39,-28,-32,13,55,67,59
-17,30,45,-7,-32,38,-26,-32,15,55,67,59
-19,29,46,-6,-33,38,-25,-30,16,55,67,59
-19,29,45,-5,-33,37,-23,-30,16,55,67,59
-19,29,45,-4,-33,37,-23,-30,16,54,67,60
-20,29,47,-4,-34,38,-22,-30,15,54,66,60
-19,29,47,-4,-32,37,-22,-30,14,53,65,59
-15,29,44,-6,-29,36,-22,-31,12,52,64,58
-15,29,44,-6,-29,36,-21,-30,12,51,64,58
-18,28,45,-4,-32,36,-18,-28,11,50,63,58
-20,26,45,-3,-34,35,-17,-27,11,49,62,58
-21,24,43,-1,-32,33,-16,-27,11,48,60,57
-21,22,40,-1,-31,31,-16,-28,10,46,59,57
-20,22,40,0,-30,31,-16,-29,8,45,58,57
-21,22,40,0,-31,31,-16,-29,6,43,57,56
-21,20,40,1,-31,30,-16,-29,4,42,56,56
-22,19,40,2,-31,29,-15,-29,3,39,55,55
-25,17,41,4,-33,29,-14,-29,1,38,54,55
-26,16,40,5,-33,28,-13,-30,0,36,52,53
-26,14,38,6,-32,26,-13,-31,-1,33,50,52
-24,12,34,6,-30,23,-12,-32,-3,30,48,51
-23,10,31,6,-28,21,-11,-31,-5,28,46,50
-24,9,31,7,-28,20,-10,-30,-6,27,45,49
-25,8,31,9,-28,19,-8,-29,-7,26,44,49
-24,6,30,10,-27,17,-8,-30,-8,24,42,48
-24,4,28,10,-26,16,-8,-30,-10,22,41,47
-24,3,27,11,-26,15,-8,-30,-11,20,40,46
-23,2,24,11,-24,13,-7,-30,-12,18,37,44
-23,0,21,11,-24,10,-6,-30,-12,17,36,43
-24,-1,20,12,-23,9,-5,-28,-13,16,35,42
-24,-2,19,12,-22,8,-4,-27,-13,16,34,42
-24,-3,19,13,-22,8,-2,-26,-13,16,34,42
-25,-3,21,14,-23,8,-1,-25,-13,15,34,41
-24,-3,19,13,-21,8,-1,-25,-15,14,32,39
-22,-4,17,13,-20,6,-1,-25,-16,12,30,38
-24,-6,17,15,-20,5,0,-25,-16,11,29,37
-25,-8,15,16,-20,3,0,-25,-16,10,29,36
-23,-9,12,16,-18,2,0,-25,-18,9,27,35
-21,-9,11,15,-16,1,-1,-25,-18,7,26,33
-22,-9,11,16,-16,0,0,-25,-18,7,26,32
-24,-10,12,17,-18,0,1,-24,-19,6,25,31
-24,-10,13,18,-18,0,1,-24,-20,5,25,30
-24,-11,12,18,-18,0,1,-24,-20,4,23,29
-25,-12,11,18,-19,0,1,-24,-20,3,22,27
-25,-13,10,18,-18,-1,1,-24,-20,3,21,26
-26,-14,10,19,-19,-2,3,-23,-20,3,21,25
-27,-14,11,20,-19,-2,3,-21,-20,3,20,25
-25,-14,8,20,-17,-3,3,-21,-20,2,19,23
-25,-14,8,20,-16,-3,4,-21,-20,2,19,21
-25,-14,9,21,-17,-3,5,-21,-20,1,18,21
-25,-15,8,21,-17,-4,5,-21,-20,0,17,19
-25,-16,7,21,-16,-5,5,-21,-21,0,15,18
-26,-18,6,22,-17,-6,6,-20,-21,-1,15,17
-27,-20,6,23,-17,-6,6,-20,-21,-1,14,16
-27,-20,6,23,-17,-6,7,-19,-21,-1,14,15
-28,-20,7,24,-17,-6,8,-17,-21,-1,14,15
-28,-20,7,25,-17,-7,9,-17,-21,-1,13,15
-25,-21,3,24,-14,-10,8,-18,-22,-2,12,13
-23,-22,0,24,-12,-12,7,-18,-23,-3,10,11
-26,-23,1,25,-14,-12,8,-17,-22,-3,10,10
-28,-24,2,26,-16,-11,9,-16,-21,-3,10,10
-29,-24,2,27,-17,-11,9,-16,-21,-3,10,10
-27,-24,1,25,-15,-11,7,-17,-23,-4,9,9
-26,-23,2,25,-14,-10,7,-18,-23,-4,10,9
-28,-21,5,25,-17,-7,7,-18,-22,-2,12,10
-26,-20,4,23,-15,-8,6,-20,-24,-2,13,10
-23,-19,1,22,-12,-10,5,-22,-25,-2,13,10
-23,-19,2,22,-13,-9,3,-24,-25,0,15,12
-26,-16,7,21,-17,-5,2,-26,-24,3,18,16
-27,-12,13,20,-21,0,1,-29,-23,8,24,20
-29,-9,19,18,-25,5,0,-30,-22,12,30,24
-29,-5,23,17,-26,9,-3,-33,-22,15,35,28
-26,0,24,13,-25,12,-6,-37,-23,17,38,31
-25,4,28,11,-26,16,-9,-41,-25,18,42,35
-28,9,34,9,-31,21,-11,-44,-26,21,46,40
-30,13,41,9,-36,27,-13,-45,-26,23,49,44
-31,17,46,7,-39,31,-14,-49,-29,24,50,48
-30,21,49,5,-41,35,-18,-55,-33,23,51,51
-29,23,51,3,-41,38,-20,-60,-37,21,51,52
-29,22,49,3,-40,36,-20,-61,-38,19,48,49
-29,17,43,6,-36,30,-18,-58,-38,15,41,43
-28,7,32,10,-30,20,-13,-52,-38,8,29,32
-27,-6,18,17,-23,5,-5,-44,-37,-1,12,16
-27,-19,5,23,-17,-8,1,-36,-38,-12,-5,1
-26,-30,-6,29,-11,-18,6,-31,-39,-23,-20,-11
-24,-41,-18,34,-4,-30,11,-25,-41,-33,-33,-22
-23,-53,-32,39,3,-43,16,-17,-41,-41,-43,-32
-20,-63,-45,41,12,-54,20,-9,-40,-46,-48,-40
-17,-70,-55,43,19,-62,22,-3,-39,-50,-52,-46
-16,-77,-64,46,24,-70,25,2,-37,-52,-57,-53
-13,-84,-74,48,30,-79,29,8,-34,-54,-61,-59
-8,-89,-83,49,37,-86,31,13,-29,-53,-65,-63
-6,-93,-88,50,40,-91,34,19,-23,-51,-68,-66
-5,-96,-92,52,42,-94,37,25,-16,-48,-69,-68
-4,-98,-95,52,44,-97,39,29,-9,-43,-69,-70
-5,-98,-94,52,44,-96,40,33,-3,-37,-68,-71
-5,-98,-93,52,44,-96,41,37,4,-31,-65,-71
-2,-97,-96,49,47,-97,41,39,9,-25,-64,-72
2,-97,-100,47,51,-98,41,42,13,-22,-63,-72
2,-97,-101,47,51,-98,42,45,15,-22,-62,-71
2,-96,-100,48,50,-98,44,48,15,-24,-63,-71
1,-96,-100,48,50,-98,46,51,16,-28,-65,-72
0,-98,-100,49,49,-99,49,55,19,-28,-65,-72
0,-99,-101,50,50,-100,51,59,23,-27,-65,-73
2,-99,-102,49,51,-100,52,62,25,-26,-64,-73
2,-99,-102,48,52,-100,53,65,27,-25,-63,-73
2,-99,-103,49,52,-101,54,68,30,-24,-62,-73
1,-99,-102,50,51,-101,56,72,33,-22,-60,-71
-2,-99,-98,52,47,-99,58,75,36,-20,-58,-69
-3,-98,-97,52,46,-98,59,77,37,-20,-58,-68
2,-98,-102,49,51,-101,59,77,38,-21,-59,-69
6,-98,-106,47,55,-103,60,79,39,-21,-59,-70
5,-99,-106,47,55,-102,61,82,41,-19,-57,-69
2,-98,-103,48,52,-100,63,84,42,-18,-56,-69
0,-98,-99,49,49,-98,64,87,42,-18,-54,-68
-2,-97,-97,50,47,-97,67,88,42,-18,-53,-67
-1,-97,-98,49,48,-97,68,90,42,-18,-53,-67
0,-96,-99,48,48,-98,70,93,42,-18,-54,-67
0,-96,-100,49,49,-98,72,94,43,-18,-54,-66
1,-97,-101,49,50,-99,74,97,43,-18,-54,-65
0,-98,-101,50,50,-100,77,103,45,-18,-53,-64
-2,-99,-99,51,48,-99,81,109,47,-18,-52,-63
-2,-99,-99,51,48,-99,83,114,48,-19,-52,-63
1,-100,-103,50,51,-102,84,116,46,-21,-53,-64
3,-101,-106,50,54,-104,85,117,44,-22,-53,-64
2,-101,-106,50,52,-104,85,116,42,-22,-53,-62
1,-101,-105,51,52,-104,86,115,39,-23,-52,-61
0,-101,-104,52,51,-103,88,117,38,-23,-52,-60
0,-103,-104,52,51,-103,90,119,36,-24,-52,-59
1,-103,-105,51,52,-103,92,120,34,-25,-51,-59
2,-102,-106,50,53,-103,91,119,32,-25,-51,-58
4,-101,-107,49,55,-104,89,117,30,-26,-51,-58
6,-100,-108,48,56,-104,86,115,29,-26,-50,-56
6,-98,-107,47,56,-103,83,112,29,-25,-48,-55
8,-97,-107,45,56,-103,79,108,29,-24,-47,-53
8,-95,-106,44,56,-101,75,103,30,-22,-45,-51
8,-91,-103,42,55,-98,68,96,31,-20,-43,-49
10,-87,-101,38,55,-94,61,90,31,-18,-41,-48
11,-83,-98,36,54,-90,54,85,31,-17,-38,-46
10,-79,-93,35,51,-86,48,81,31,-14,-35,-43
9,-76,-88,34,48,-82,43,77,32,-12,-31,-39
9,-73,-84,33,46,-79,37,71,33,-10,-27,-35
10,-70,-82,30,44,-76,31,65,33,-8,-25,-32
10,-67,-80,29,44,-74,26,60,33,-6,-22,-29
9,-64,-77,28,43,-71,22,57,34,-3,-19,-25
9,-61,-74,26,41,-68,17,53,34,-3,-17,-23
11,-59,-73,24,41,-65,12,48,33,-3,-16,-21
11,-56,-70,23,40,-62,8,44,31,-1,-14,-18
10,-54,-65,23,36,-59,6,41,30,-1,-10,-14
10,-51,-62,22,35,-56,4,37,29,-1,-8,-12
9,-49,-60,21,33,-54,3,34,27,0,-6,-8
7,-46,-57,20,31,-52,2,32,26,0,-4,-4
6,-44,-54,19,29,-49,0,29,25,1,-2,-2
7,-41,-52,17,29,-47,-2,25,23,1,-1,-1
8,-39,-51,15,29,-44,-5,19,19,0,0,0
9,-35,-48,13,28,-41,-8,15,16,0,1,2
7,-33,-42,13,23,-37,-10,12,16,2,4,5
3,-30,-35,13,17,-32,-11,10,16,5,8,9
0,-26,-28,14,13,-28,-12,9,16,7,11,13
1,-24,-27,12,13,-26,-14,6,14,7,13,16
4,-21,-28,9,15,-25,-16,2,13,7,14,18
4,-19,-26,8,15,-23,-18,0,11,8,17,20
2,-16,-22,7,12,-19,-20,-4,10,10,19,23
1,-14,-18,7,10,-16,-23,-8,8,10,19,24
0,-11,-14,7,6,-12,-25,-11,6,11,21,26
0,-9,-10,5,4,-9,-27,-13,4,11,22,28
0,-6,-7,4,2,-6,-28,-16,3,11,23,31
-1,-3,-3,3,0,-3,-29,-18,3,12,25,33
-2,-1,-1,3,-2,-1,-30,-20,3,13,27,34
-3,0,1,3,-2,0,-31,-22,2,14,28,35
-3,3,3,1,-4,3,-33,-24,1,14,28,35
-4,5,5,0,-5,6,-34,-27,-1,14,28,36
-4,7,9,0,-8,9,-36,-29,-3,14,29,38
-4,9,12,-2,-10,11,-37,-30,-3,15,31,39
-4,11,13,-3,-10,13,-38,-32,-3,15,33,40
-4,13,15,-4,-11,14,-39,-34,-4,15,35,41
-6,14,18,-3,-14,16,-39,-36,-3,15,36,43
-8,16,21,-3,-16,18,-39,-36,-3,17,37,44
-9,16,23,-3,-17,20,-40,-37,-3,18,37,44
-10,17,25,-3,-19,21,-41,-39,-4,20,37,43
-11,19,27,-3,-20,24,-42,-40,-4,21,37,43
-11,20,30,-4,-21,25,-42,-42,-4,21,37,43
-13,21,32,-4,-23,27,-43,-44,-6,21,37,43
-14,22,35,-3,-25,28,-43,-45,-6,21,36,42
-14,23,35,-4,-25,28,-44,-45,-5,21,36,41
-14,25,36,-4,-26,30,-44,-46,-3,23,36,40
-17,25,39,-3,-29,32,-44,-46,-1,25,35,41
-19,26,42,-2,-32,34,-43,-47,0,25,35,42
-18,27,42,-4,-31,34,-44,-49,-1,24,33,43
-16,27,41,-5,-29,34,-44,-50,0,24,32,42
-17,28,43,-5,-32,35,-43,-49,1,26,32,43
-18,28,45,-5,-33,37,-43,-49,2,26,32,43
-19,29,47,-4,-34,38,-42,-49,2,25,32,44
-21,29,48,-3,-36,38,-42,-49,4,26,33,44
-22,30,50,-3,-36,40,-42,-50,6,28,33,44
-22,31,50,-3,-36,41,-42,-50,8,31,33,44
-24,31,51,-3,-37,41,-41,-50,9,32,33,43
-24,31,52,-2,-38,41,-40,-51,9,32,33,41
-23,31,51,-3,-38,41,-39,-51,8,30,33,40
-22,31,50,-3,-37,40,-39,-51,7,28,31,40
-22,31,50,-3,-38,40,-37,-51,7,27,30,40
-23,30,51,-3,-38,40,-36,-51,7,26,29,39
-24,30,50,-2,-37,39,-35,-51,6,26,29,38
-24,29,50,-2,-37,39,-34,-50,6,26,28,37
-25,28,50,-1,-37,39,-33,-50,6,26,26,36
-25,27,48,0,-37,37,-31,-50,5,23,24,35
-25,24,46,1,-37,35,-31,-50,3,20,23,34
-26,23,46,3,-37,34,-30,-50,2,18,22,34
-26,22,46,3,-37,33,-29,-51,0,16,21,33
-27,21,46,4,-37,33,-29,-52,-1,15,19,31
-29,20,46,5,-38,33,-29,-53,-1,14,18,31
-30,18,46,6,-38,32,-28,-53,-2,13,16,29
-29,17,43,6,-36,30,-28,-53,-4,12,13,27
-29,16,41,7,-35,28,-28,-53,-6,11,12,25
-30,14,41,9,-36,27,-26,-53,-9,9,10,23
-32,12,41,11,-37,27,-25,-53,-12,5,7,22
-33,12,42,12,-38,27,-22,-51,-11,3,7,20
-33,10,41,12,-37,25,-21,-51,-10,3,6,17
-32,8,36,12,-33,21,-21,-53,-12,3,4,14
-30,5,31,12,-30,17,-21,-53,-14,1,1,13
-29,3,28,13,-28,15,-21,-53,-16,-2,0,13
-29,3,27,13,-28,15,-21,-52,-16,-4,-1,14
-29,3,29,14,-29,16,-19,-51,-16,-4,-1,15
-32,2,31,16,-31,16,-17,-50,-16,-4,0,15
-31,0,29,16,-30,14,-15,-48,-16,-4,-1,16
-30,-1,27,16,-28,12,-15,-48,-17,-5,-3,16
-31,-3,26,17,-28,11,-14,-48,-19,-8,-4,16
-31,-3,24,17,-28,9,-13,-47,-19,-11,-4,15
-31,-4,23,17,-27,9,-13,-46,-20,-13,-6,14
-30,-4,22,18,-26,9,-12,-46,-21,-16,-8,12
-29,-5,20,18,-26,8,-12,-46,-22,-16,-9,11
-29,-5,20,18,-26,7,-12,-46,-23,-16,-9,10
-29,-7,18,19,-24,5,-12,-47,-24,-16,-9,10
-27,-8,16,18,-22,3,-12,-48,-26,-18,-10,8
-27,-8,16,18,-21,3,-11,-48,-28,-18,-11,6
-29,-10,16,19,-22,2,-10,-46,-27,-17,-11,4
-32,-11,17,21,-25,2,-9,-45,-26,-16,-11,4
-33,-11,18,23,-26,3,-8,-45,-27,-16,-12,2
-33,-11,17,23,-26,2,-8,-44,-28,-19,-13,1
-33,-12,18,23,-26,2,-7,-44,-28,-21,-15,1
-33,-13,18,24,-26,2,-6,-44,-28,-22,-17,2
-32,-13,17,24,-25,1,-6,-43,-29,-22,-18,1
-31,-13,17,23,-24,1,-6,-43,-28,-22,-19,1
-32,-14,16,24,-24,0,-6,-42,-28,-21,-18,1
-32,-15,14,24,-23,-1,-6,-42,-30,-21,-18,0
-32,-16,13,25,-23,-2,-5,-42,-33,-22,-18,0
-34,-16,14,25,-24,-2,-5,-41,-32,-23,-18,0
-35,-17,14,27,-25,-2,-4,-41,-30,-24,-18,1
-35,-17,14,27,-25,-2,-3,-41,-30,-24,-19,1
-34,-17,14,27,-25,-2,-3,-41,-30,-25,-20,0
-34,-17,14,27,-25,-2,-3,-40,-30,-25,-20,0
-35,-18,14,27,-25,-2,-3,-38,-30,-25,-21,0
-36,-20,13,29,-25,-4,-3,-38,-29,-26,-22,0
-35,-21,11,29,-23,-5,-3,-39,-30,-28,-23,-1
-33,-21,9,28,-21,-6,-3,-39,-31,-30,-25,-2
-35,-21,11,29,-23,-6,-2,-38,-31,-30,-26,-2
-38,-21,13,31,-25,-4,-1,-37,-31,-29,-24,-2
-38,-21,15,31,-26,-4,-1,-38,-31,-29,-23,-2
-35,-20,12,29,-24,-5,-3,-40,-32,-29,-22,-2
-30,-20,8,26,-20,-6,-6,-43,-33,-29,-22,-1
-32,-20,11,27,-22,-4,-6,-42,-31,-27,-20,0
-36,-20,15,28,-26,-3,-6,-42,-31,-26,-17,1
-36,-18,15,28,-26,-2,-6,-42,-32,-26,-16,2
-36,-16,17,26,-27,0,-8,-45,-32,-22,-13,4
-35,-12,19,24,-27,2,-11,-49,-33,-18,-9,6
-35,-8,23,22,-29,7,-13,-52,-32,-13,-4,10
-35,-3,28,20,-31,12,-16,-56,-32,-10,0,16
-36,0,33,19,-35,16,-18,-59,-34,-8,4,21
-37,2,39,18,-39,21,-21,-62,-35,-6,10,24
-37,6,42,16,-40,24,-24,-66,-36,-4,14,27
-36,9,44,14,-40,26,-27,-69,-38,-4,16,33
-38,12,49,14,-43,30,-29,-71,-40,-3,18,39
-39,18,54,12,-46,34,-31,-76,-43,-3,19,42
-39,22,57,10,-48,39,-33,-81,-47,-4,21,43
-39,22,58,10,-49,40,-33,-82,-49,-6,20,42
-41,18,56,12,-49,37,-31,-81,-49,-8,15,38
-41,10,49,16,-45,29,-27,-75,-49,-14,4,29
-37,-2,34,20,-36,15,-21,-68,-49,-24,-12,13
-37,-16,20,27,-29,1,-15,-60,-50,-35,-30,-3
-38,-27,9,33,-24,-10,-9,-55,-53,-47,-47,-17
-37,-38,-4,38,-16,-22,-5,-48,-55,-58,-63,-31
-34,-50,-19,43,-7,-35,0,-41,-56,-66,-76,-44
-30,-60,-33,46,2,-47,4,-33,-56,-72,-84,-53
-26,-68,-45,48,10,-57,7,-27,-53,-75,-87,-59
-25,-75,-52,51,13,-63,11,-20,-49,-77,-89,-64
-24,-83,-60,54,17,-71,15,-13,-45,-79,-91,-68
-21,-88,-69,55,23,-79,17,-8,-41,-79,-94,-72
-18,-93,-75,57,27,-85,19,-3,-35,-77,-96,-75
-17,-97,-81,58,31,-90,21,3,-28,-75,-97,-77
-16,-99,-86,58,35,-94,23,8,-22,-72,-97,-77
-13,-99,-89,57,37,-95,25,12,-15,-68,-96,-77
-12,-98,-89,57,38,-94,25,15,-8,-62,-93,-76
-14,-99,-88,58,37,-93,26,19,-2,-52,-92,-75
-14,-100,-88,58,37,-94,26,24,4,-45,-89,-74
-11,-100,-90,56,40,-96,26,28,7,-43,-88,-76
-10,-100,-92,56,40,-97,27,29,8,-46,-90,-78
-11,-101,-92,57,40,-98,29,32,9,-51,-91,-79
-11,-102,-94,57,41,-99,31,37,11,-52,-92,-81
-12,-104,-94,59,41,-99,34,42,15,-50,-91,-80
-14,-104,-92,60,39,-98,38,48,19,-47,-88,-78
-15,-103,-91,60,38,-97,40,51,23,-44,-86,-76
-15,-105,-92,61,39,-98,41,55,27,-42,-85,-76
-13,-106,-95,60,41,-101,40,57,29,-43,-86,-77
-9,-106,-99,59,45,-104,40,57,28,-45,-86,-78
-7,-105,-100,57,46,-104,41,59,28,-47,-84,-80
-10,-105,-97,59,43,-102,43,62,31,-46,-82,-79
-11,-106,-97,59,42,-102,45,65,34,-46,-83,-77
-9,-106,-99,58,45,-103,45,67,35,-47,-86,-76
-7,-106,-101,58,46,-104,47,70,35,-44,-87,-76
-10,-108,-100,60,45,-104,48,73,36,-40,-87,-77
-12,-109,-100,62,44,-105,50,75,37,-40,-86,-76
-14,-110,-98,63,42,-105,54,78,39,-40,-84,-74
-15,-110,-98,64,41,-105,56,81,40,-41,-85,-74
-13,-110,-100,63,42,-106,57,82,40,-41,-85,-74
-11,-110,-102,62,44,-107,58,84,39,-42,-84,-74
-10,-111,-104,62,46,-108,60,89,40,-42,-83,-74
-10,-113,-106,63,47,-110,64,96,42,-41,-81,-72
-11,-113,-104,64,46,-109,67,102,46,-38,-79,-69
-12,-113,-104,64,46,-109,70,107,47,-38,-79,-69
-11,-115,-107,65,48,-111,72,107,43,-42,-80,-70
-11,-117,-108,65,48,-113,72,105,39,-43,-80,-72
-13,-117,-107,65,46,-113,71,104,38,-40,-78,-70
-13,-117,-107,66,46,-113,72,105,37,-39,-76,-68
-10,-118,-110,66,49,-115,74,107,35,-40,-74,-69
-8,-119,-113,65,52,-116,74,107,30,-43,-73,-69
-6,-119,-115,65,54,-117,73,106,28,-44,-73,-67
-7,-119,-114,65,54,-117,72,105,29,-43,-72,-64
-6,-119,-114,65,54,-117,71,105,29,-42,-72,-62
-4,-118,-116,62,56,-117,68,102,28,-42,-71,-59
-2,-116,-116,60,56,-117,64,98,28,-40,-69,-58
-3,-114,-113,59,54,-114,58,93,31,-38,-67,-55
-3,-112,-111,58,53,-112,52,85,32,-36,-66,-52
-1,-108,-110,57,53,-110,45,80,32,-35,-64,-50
-1,-105,-106,55,52,-106,38,77,33,-33,-61,-47
-2,-102,-102,55,50,-102,33,75,34,-29,-58,-43
-2,-99,-99,54,49,-99,28,71,35,-26,-55,-41
-1,-96,-97,51,48,-97,23,64,36,-25,-52,-39
-2,-94,-94,49,45,-95,17,57,36,-23,-49,-37
-7,-93,-88,50,40,-91,12,55,38,-20,-45,-33
-7,-92,-86,50,38,-90,7,51,38,-19,-41,-31
-3,-91,-89,49,42,-91,1,46,38,-19,-39,-29
0,-89,-91,47,44,-91,-2,43,37,-18,-38,-28
0,-87,-89,46,44,-89,-5,40,37,-15,-36,-25
0,-85,-88,45,44,-86,-7,37,36,-14,-35,-23
0,-84,-86,44,43,-86,-8,35,33,-14,-33,-20
-2,-82,-83,44,41,-83,-9,32,33,-12,-29,-17
-2,-81,-80,43,38,-81,-11,30,33,-12,-27,-15
-2,-79,-78,42,37,-80,-13,27,32,-13,-26,-13
-3,-78,-76,42,35,-78,-15,24,31,-12,-25,-11
-3,-76,-74,41,34,-75,-18,21,30,-10,-23,-8
-3,-74,-73,41,35,-74,-21,16,28,-10,-22,-5
-3,-72,-70,40,33,-71,-22,14,27,-8,-19,-2
-5,-69,-67,40,31,-68,-23,12,27,-5,-16,0
-6,-68,-64,39,29,-67,-24,10,27,-3,-14,3
-6,-66,-61,38,27,-64,-26,8,25,-3,-12,5
-6,-63,-59,36,26,-62,-28,5,25,-2,-9,8
-6,-61,-57,35,25,-60,-29,2,24,-1,-7,8
-5,-58,-55,33,25,-58,-32,-1,22,-1,-5,9
-5,-55,-52,33,23,-55,-34,-5,19,-1,-3,12
-8,-54,-47,33,19,-51,-34,-6,19,1,0,15
-11,-53,-43,34,16,-48,-34,-6,18,4,3,17
-12,-51,-41,34,14,-47,-35,-8,18,5,3,18
-12,-50,-39,32,14,-45,-38,-11,17,3,4,18
-12,-48,-37,31,12,-43,-40,-14,17,3,7,20
-12,-45,-34,31,10,-40,-42,-17,17,4,9,24
-15,-43,-30,31,7,-37,-42,-18,16,6,13,28
-20,-42,-24,33,1,-33,-42,-19,14,6,16,31
-21,-40,-21,33,-1,-31,-43,-21,12,6,18,34
-19,-38,-22,31,1,-30,-45,-23,12,7,17,35
-16,-37,-23,29,3,-31,-47,-26,11,7,16,35
-15,-37,-24,27,4,-31,-48,-28,10,7,16,35
-16,-36,-21,27,2,-29,-48,-29,11,10,18,36
-18,-34,-17,27,0,-27,-48,-29,11,13,19,36
-20,-32,-14,27,-3,-24,-48,-30,11,13,19,37
-20,-31,-13,27,-4,-22,-49,-31,10,13,20,38
-19,-30,-13,27,-3,-22,-50,-33,9,13,20,39
-21,-30,-11,28,-5,-21,-51,-34,9,14,20,39
-24,-30,-8,29,-8,-20,-51,-35,10,16,22,41
-26,-30,-6,29,-10,-18,-51,-35,11,19,22,41
-26,-29,-5,28,-10,-18,-52,-35,12,19,23,41
-26,-28,-4,28,-11,-16,-52,-36,12,20,24,42
-26,-26,-2,28,-12,-15,-52,-37,12,20,24,42
-28,-26,0,29,-14,-14,-51,-38,12,19,24,42
-30,-25,2,30,-16,-12,-51,-38,14,21,24,43
-29,-25,2,29,-16,-12,-51,-38,15,22,22,43
-27,-24,0,27,-15,-13,-51,-38,15,22,20,41
-27,-24,1,27,-15,-12,-51,-38,16,22,20,40
-29,-23,4,27,-16,-10,-50,-37,18,24,20,39
-31,-23,6,28,-19,-9,-48,-36,20,26,20,39
-33,-24,7,30,-20,-9,-47,-36,22,25,20,38
-34,-24,7,30,-21,-9,-47,-36,22,24,20,37
-35,-23,9,30,-22,-7,-47,-35,22,26,20,38
-36,-22,11,31,-24,-5,-45,-35,24,28,21,40
-37,-23,12,32,-25,-6,-44,-32,26,28,21,40
-38,-24,12,32,-25,-6,-42,-31,27,27,21,40
-37,-25,11,32,-25,-8,-42,-31,26,26,21,39
-36,-25,8,32,-22,-10,-42,-32,24,26,20,37
-34,-25,6,32,-21,-10,-42,-33,23,26,18,36
-34,-25,6,32,-20,-10,-41,-32,23,24,16,35
-33,-26,4,32,-19,-11,-40,-32,23,23,15,35
-32,-26,3,32,-19,-12,-40,-32,23,23,16,34
-34,-27,3,33,-20,-12,-38,-31,22,23,16,34
-36,-29,5,34,-21,-12,-35,-30,22,24,17,35
-38,-30,6,35,-22,-12,-33,-29,22,24,17,37
-38,-31,6,36,-22,-13,-31,-28,22,22,16,36
-40,-33,6,38,-24,-14,-31,-28,20,20,15,35
-42,-35,5,40,-24,-16,-32,-29,18,18,13,35
-39,-36,0,40,-20,-18,-34,-30,14,14,11,32
-37,-38,-3,40,-18,-20,-34,-31,12,11,10,28
-38,-40,-3,41,-18,-21,-33,-31,12,9,9,27
-38,-41,-5,41,-16,-24,-32,-32,12,9,6,26
-37,-42,-8,41,-14,-26,-31,-32,10,9,4,25
-36,-42,-8,41,-14,-26,-30,-32,8,7,2,24
-38,-44,-8,42,-15,-27,-28,-31,7,5,1,23
-39,-47,-10,45,-15,-29,-27,-30,5,3,1,22
-39,-50,-13,46,-13,-32,-27,-29,3,1,0,21
-39,-52,-15,47,-13,-33,-26,-29,2,1,-1,19
-40,-53,-14,48,-13,-34,-25,-28,3,2,-2,19
-40,-53,-15,48,-13,-35,-25,-28,2,0,-4,19
-38,-54,-18,48,-11,-37,-23,-27,2,-1,-7,17
-37,-56,-21,48,-8,-39,-21,-26,1,-2,-8,16
-36,-57,-23,48,-6,-41,-20,-25,0,-3,-9,14
-35,-58,-25,48,-5,-42,-20,-25,-1,-4,-9,13
-36,-58,-24,48,-5,-42,-19,-24,0,-4,-8,13
-36,-59,-25,50,-6,-42,-19,-23,0,-5,-8,13
-36,-61,-26,51,-6,-43,-19,-23,-1,-8,-10,12
-39,-62,-25,52,-8,-43,-17,-21,-2,-9,-11,12
-42,-63,-23,54,-10,-44,-16,-20,-2,-9,-11,11
-41,-64,-25,54,-8,-45,-14,-20,-2,-8,-11,11
-38,-64,-28,53,-6,-47,-15,-20,-3,-8,-12,11
-37,-64,-29,53,-5,-47,-15,-20,-4,-9,-13,10
-37,-64,-30,53,-3,-48,-15,-20,-5,-11,-15,9
-36,-65,-31,53,-2,-49,-15,-20,-6,-12,-14,9
-37,-67,-31,54,-4,-49,-14,-19,-5,-12,-13,10
-40,-67,-29,55,-6,-49,-13,-18,-5,-12,-13,10
-42,-68,-28,56,-8,-49,-12,-18,-5,-12,-13,10
-43,-68,-27,57,-8,-49,-11,-18,-5,-12,-13,10
-42,-68,-29,57,-7,-49,-11,-17,-5,-12,-13,10
-40,-68,-31,56,-5,-50,-11,-17,-6,-12,-14,10
-37,-68,-34,55,-1,-52,-11,-17,-7,-12,-15,8
-36,-69,-35,55,-1,-52,-11,-17,-7,-12,-15,8
-37,-69,-33,55,-3,-51,-11,-17,-7,-12,-15,9
-38,-69,-32,55,-4,-51,-10,-17,-7,-12,-15,9
-39,-69,-32,55,-4,-51,-10,-17,-7,-12,-15,8
-38,-70,-34,55,-3,-53,-10,-16,-8,-13,-14,7
-37,-70,-35,55,-1,-54,-10,-16,-9,-13,-14,7
-39,-70,-33,56,-3,-53,-9,-16,-9,-13,-14,7
-40,-70,-32,57,-4,-52,-9,-16,-9,-12,-14,7
-39,-70,-33,57,-2,-52,-9,-16,-10,-13,-14,7
-38,-70,-33,56,-2,-52,-9,-16,-10,-15,-15,7
-38,-71,-33,56,-3,-52,-9,-16,-11,-17,-16,6
-39,-71,-33,57,-4,-53,-9,-16,-11,-18,-16,6
-38,-71,-34,56,-3,-53,-9,-16,-12,-19,-16,6
-36,-71,-36,55,-1,-54,-10,-17,-13,-18,-16,6
-38,-69,-33,55,-3,-52,-10,-18,-13,-15,-14,8
-39,-67,-29,55,-5,-49,-10,-19,-12,-12,-12,10
-39,-65,-27,54,-6,-46,-12,-21,-12,-10,-10,11
-40,-64,-26,54,-7,-45,-12,-22,-13,-10,-8,12
-40,-64,-25,53,-7,-45,-12,-23,-13,-10,-7,14
-39,-61,-24,51,-8,-44,-14,-25,-13,-9,-4,16
-37,-57,-22,49,-8,-41,-17,-28,-13,-6,0,20
-37,-53,-18,47,-10,-37,-20,-32,-13,-2,6,24
-39,-49,-12,46,-14,-32,-23,-35,-13,3,12,29
-40,-45,-7,45,-17,-27,-25,-38,-14,6,17,33
-38,-41,-3,42,-18,-23,-28,-42,-17,7,21,37
-39,-37,1,40,-20,-18,-31,-47,-21,7,24,41
-40,-33,7,38,-24,-13,-32,-49,-22,8,28,46
-41,-29,11,36,-27,-9,-34,-53,-22,10,31,49
-42,-25,15,35,-30,-5,-37,-57,-23,12,34,53
-42,-21,20,33,-32,-1,-39,-61,-26,12,36,56
-41,-20,18,33,-31,-1,-41,-65,-30,9,34,56
-41,-24,15,35,-29,-5,-40,-65,-32,5,27,51
-44,-32,10,41,-28,-11,-36,-60,-31,0,17,43
-43,-45,-3,46,-21,-24,-30,-53,-31,-7,2,28
-42,-58,-18,51,-12,-38,-23,-46,-31,-16,-15,12
-42,-69,-29,57,-7,-49,-16,-38,-32,-27,-29,-1
-40,-81,-42,61,0,-62,-11,-33,-34,-39,-42,-13
-38,-93,-58,67,9,-76,-6,-27,-37,-52,-56,-25
-35,-104,-71,72,16,-88,-1,-18,-37,-62,-65,-34
-31,-112,-83,74,25,-98,2,-10,-36,-68,-71,-40
-27,-120,-94,75,32,-107,5,-4,-35,-70,-76,-48
-27,-128,-102,79,36,-116,9,1,-32,-70,-81,-54
-27,-136,-109,83,40,-123,13,8,-27,-66,-85,-59
-25,-141,-116,84,44,-129,17,16,-20,-63,-87,-64
-20,-143,-124,84,50,-135,19,20,-14,-61,-90,-68
-17,-145,-129,83,55,-138,19,23,-9,-59,-90,-71
-17,-145,-131,83,56,-138,20,27,-4,-56,-88,-71
-17,-145,-130,83,56,-138,20,29,1,-52,-87,-71
-16,-144,-130,82,56,-138,20,33,7,-48,-87,-72
-15,-144,-132,81,57,-139,21,38,13,-44,-86,-73
-11,-145,-135,80,60,-140,22,41,17,-40,-85,-74
-10,-145,-136,78,62,-141,24,43,18,-39,-85,-74
-10,-144,-135,79,61,-141,26,46,18,-40,-84,-75
-11,-144,-134,80,60,-140,27,50,19,-41,-84,-75
-14,-145,-132,81,58,-140,30,53,22,-41,-83,-75
-14,-145,-132,81,58,-139,33,58,27,-40,-81,-75
-14,-145,-133,81,58,-139,35,62,30,-39,-81,-74
-14,-147,-135,81,60,-141,36,67,33,-38,-82,-75
-13,-150,-138,83,61,-144,38,71,35,-37,-83,-76
-13,-152,-140,84,62,-146,39,72,36,-36,-82,-77
-12,-152,-141,83,64,-147,41,74,36,-35,-80,-77
-10,-151,-142,82,65,-147,42,76,36,-33,-79,-77
-12,-151,-140,82,63,-146,44,78,36,-32,-77,-76
-11,-149,-139,81,63,-144,46,80,37,-33,-76,-75
-9,-147,-140,80,64,-144,46,81,37,-35,-76,-75
-11,-147,-138,80,62,-143,47,84,36,-35,-76,-75
-14,-147,-135,82,59,-142,51,88,36,-34,-76,-75
-15,-148,-134,83,59,-142,54,92,38,-34,-75,-74
-13,-149,-137,82,61,-144,58,96,38,-37,-77,-75
-14,-150,-137,84,60,-144,61,100,39,-38,-78,-76
-16,-152,-137,85,60,-145,64,102,41,-35,-76,-76
-14,-154,-141,85,62,-148,66,105,42,-34,-75,-76
-13,-155,-143,85,64,-150,69,110,42,-32,-74,-75
-12,-155,-144,85,65,-150,71,116,43,-32,-73,-74
-10,-153,-145,83,67,-150,74,122,43,-31,-72,-73
-11,-152,-143,83,65,-148,77,123,41,-31,-72,-72
-13,-152,-140,84,63,-147,79,123,39,-30,-69,-70
-13,-151,-140,84,62,-146,78,121,36,-29,-67,-68
-9,-151,-143,82,65,-147,77,120,34,-30,-67,-67
-8,-151,-144,81,67,-148,79,121,32,-31,-67,-66
-10,-152,-143,82,66,-148,82,122,29,-32,-65,-64
-11,-153,-143,83,66,-148,82,121,25,-34,-65,-64
-10,-153,-145,83,67,-150,80,118,22,-36,-65,-65
-7,-153,-148,81,70,-152,78,115,20,-36,-65,-66
-3,-152,-150,79,73,-152,77,114,21,-35,-64,-66
-3,-152,-150,78,73,-152,74,113,23,-32,-63,-64
-3,-152,-150,78,73,-151,70,108,25,-31,-63,-65
-2,-150,-149,77,72,-150,64,101,25,-29,-63,-65
-3,-147,-146,76,70,-147,57,94,25,-26,-60,-62
-4,-143,-140,75,67,-142,49,89,25,-22,-56,-58
-5,-138,-135,73,64,-137,44,86,25,-18,-50,-54
-5,-134,-130,71,62,-133,40,83,26,-16,-45,-49
-4,-128,-125,68,60,-127,34,78,27,-12,-41,-45
-2,-122,-121,63,58,-122,27,73,29,-7,-36,-40
0,-118,-120,60,58,-119,21,67,29,-4,-32,-36
0,-117,-119,59,58,-118,16,62,29,-4,-30,-35
-2,-115,-116,60,55,-116,12,57,29,-2,-28,-33
-4,-113,-111,59,52,-113,9,53,29,0,-26,-31
-4,-109,-107,57,51,-109,5,49,28,2,-23,-29
-5,-105,-102,56,49,-105,1,44,26,4,-19,-25
-5,-102,-99,55,47,-101,-2,40,24,5,-15,-23
-5,-100,-96,54,45,-98,-3,37,23,5,-13,-21
-8,-98,-92,54,41,-95,-3,36,23,6,-10,-19
-10,-97,-88,54,38,-93,-3,34,24,6,-8,-17
-8,-96,-90,53,39,-94,-4,30,21,7,-6,-16
-7,-95,-90,51,40,-94,-6,24,17,9,-3,-13
-8,-92,-86,51,37,-89,-9,19,14,12,1,-9
-10,-87,-79,50,33,-84,-11,17,12,15,7,-4
-11,-83,-73,48,31,-79,-11,15,12,15,11,-1
-10,-79,-70,47,29,-75,-13,12,11,13,11,0
-12,-75,-64,45,26,-70,-14,10,13,15,12,3
-14,-73,-60,45,22,-67,-16,7,13,17,14,5
-13,-71,-60,43,22,-66,-19,3,10,19,15,7
-11,-70,-61,41,23,-66,-21,0,7,19,17,8
-10,-67,-59,39,23,-64,-24,-4,5,19,20,10
-12,-62,-53,38,20,-58,-27,-7,4,21,23,12
-13,-59,-47,38,16,-54,-29,-10,3,21,26,15
-15,-56,-42,37,14,-50,-30,-13,1,22,28,17
-17,-53,-36,37,9,-45,-28,-15,1,26,30,19
-18,-52,-34,37,6,-43,-28,-16,0,30,33,21
-19,-52,-34,37,6,-44,-30,-19,0,31,36,23
-20,-51,-33,36,4,-43,-30,-20,-1,31,39,25
-20,-49,-30,35,3,-41,-30,-22,-2,30,41,27
-20,-45,-27,33,1,-36,-33,-25,-4,30,42,29
-20,-41,-23,32,0,-33,-35,-28,-5,30,44,31
-20,-39,-20,32,-1,-30,-35,-30,-6,31,45,33
-22,-37,-16,32,-4,-27,-35,-32,-7,34,48,35
-24,-35,-12,31,-6,-24,-37,-32,-7,38,51,38
-23,-33,-11,29,-7,-22,-38,-33,-5,40,52,40
-23,-31,-10,27,-8,-20,-38,-35,-5,42,52,40
-25,-29,-7,27,-10,-19,-40,-36,-5,43,52,40
-26,-29,-6,27,-10,-18,-41,-39,-6,43,51,39
-25,-29,-6,27,-10,-18,-40,-41,-7,42,51,39
-24,-28,-5,27,-10,-17,-40,-43,-7,42,53,40
-25,-27,-3,27,-11,-15,-40,-44,-9,40,55,40
-27,-27,0,28,-14,-14,-40,-44,-8,39,55,40
-29,-28,0,30,-15,-15,-39,-44,-5,40,54,40
-32,-30,0,32,-17,-15,-37,-43,-3,41,52,39
-32,-30,0,32,-17,-16,-35,-43,-1,44,51,39
-33,-28,1,32,-18,-14,-34,-44,1,50,53,41
-34,-27,4,32,-20,-12,-35,-46,2,54,56,42
-32,-25,5,30,-20,-11,-36,-47,0,55,57,43
-31,-21,9,28,-20,-7,-38,-48,0,56,59,44
-34,-17,16,27,-26,-1,-37,-48,1,57,61,46
-36,-17,18,28,-28,0,-36,-49,1,58,62,47
-36,-17,16,27,-27,-1,-36,-51,0,57,62,46
-36,-17,17,27,-27,-1,-35,-51,0,56,62,45
-38,-17,19,28,-29,0,-33,-49,3,58,63,46
-41,-18,20,31,-32,0,-31,-47,6,57,61,46
-38,-18,18,29,-29,-1,-30,-47,6,55,59,46
-33,-17,15,27,-25,-2,-30,-47,6,55,59,46
-34,-17,16,27,-26,-1,-29,-47,6,56,61,47
-37,-18,18,29,-28,-1,-28,-46,5,56,63,48
-39,-19,18,30,-29,-1,-27,-46,4,53,63,46
-39,-20,17,29,-28,-2,-26,-46,4,52,60,45
-37,-20,15,29,-26,-4,-25,-45,6,52,57,43
-39,-21,15,31,-27,-4,-23,-44,7,52,55,41
-42,-25,15,35,-29,-5,-21,-43,6,53,53,40
-42,-27,13,37,-28,-7,-20,-42,7,55,52,38
-41,-28,11,36,-26,-8,-18,-42,8,60,54,38
-40,-28,12,35,-27,-8,-16,-41,8,63,55,39
-40,-27,12,35,-27,-8,-15,-41,6,63,57,39
-39,-26,12,33,-26,-8,-14,-41,3,60,57,39
-39,-26,12,33,-27,-8,-13,-41,0,53,56,39
-44,-26,16,36,-31,-6,-12,-40,-1,48,55,39
-47,-26,19,37,-34,-4,-11,-41,-1,46,54,39
-44,-27,15,36,-31,-6,-12,-42,-3,43,51,38
-43,-30,11,37,-28,-10,-12,-42,-5,40,48,37
-44,-33,9,40,-28,-12,-12,-44,-7,40,47,37
-44,-35,6,41,-26,-15,-13,-48,-12,41,47,35
-42,-34,5,40,-24,-15,-13,-50,-14,43,49,34
-41,-33,6,38,-24,-14,-13,-48,-16,40,50,34
-41,-35,3,39,-23,-17,-12,-48,-19,34,46,32
-43,-40,0,42,-23,-20,-10,-47,-20,31,43,30
-44,-42,0,44,-23,-22,-7,-45,-20,33,44,31
-43,-44,-2,44,-21,-23,-6,-45,-20,34,45,32
-42,-45,-4,44,-20,-25,-4,-43,-20,30,43,31
-42,-47,-7,45,-18,-27,-2,-40,-20,25,39,28
-44,-51,-9,48,-18,-30,-1,-38,-19,23,34,24
-47,-56,-11,52,-18,-34,0,-37,-19,22,32,22
-44,-58,-15,52,-15,-38,3,-37,-21,23,32,21
-39,-58,-20,49,-10,-41,4,-36,-23,26,33,21
-38,-57,-20,48,-10,-39,3,-36,-24,28,35,22
-42,-55,-15,49,-14,-35,3,-38,-27,28,36,23
-42,-53,-12,49,-16,-33,3,-38,-29,26,36,24
-41,-53,-13,48,-14,-34,3,-37,-31,22,34,24
-41,-53,-14,48,-14,-34,3,-36,-31,19,31,23
-39,-53,-15,47,-13,-34,3,-35,-31,16,29,23
-38,-53,-18,47,-11,-36,4,-35,-31,15,29,23
-40,-56,-19,49,-11,-38,5,-35,-31,18,30,23
-43,-61,-19,53,-12,-41,6,-35,-31,21,32,23
-43,-62,-20,54,-12,-41,7,-35,-33,20,32,23
-41,-60,-20,52,-10,-41,9,-34,-36,13,30,22
-41,-60,-21,51,-10,-42,10,-31,-36,6,26,20
-40,-62,-23,52,-9,-44,10,-31,-34,4,22,17
-39,-64,-26,52,-8,-46,11,-31,-32,6,21,17
-43,-65,-25,55,-10,-46,11,-31,-30,14,24,18
-46,-65,-22,56,-12,-44,13,-31,-32,21,28,19
-44,-65,-22,54,-11,-44,13,-30,-35,23,30,19
-43,-63,-21,54,-12,-42,13,-31,-38,19,32,20
-43,-60,-18,53,-14,-39,12,-32,-40,12,31,21
-43,-59,-16,53,-14,-38,12,-30,-38,7,29,23
-45,-60,-18,54,-14,-40,13,-27,-34,9,27,24
-43,-65,-24,55,-11,-45,14,-27,-33,13,26,23
-42,-69,-29,56,-8,-50,14,-29,-35,15,25,21
-44,-70,-30,58,-8,-51,13,-30,-38,15,25,19
-44,-71,-29,58,-8,-51,13,-31,-40,11,25,18
-42,-70,-30,57,-6,-51,14,-28,-38,6,23,17
-39,-71,-32,56,-4,-52,16,-27,-38,2,20,14
-38,-72,-33,56,-3,-53,16,-26,-38,2,18,13
-38,-71,-32,56,-3,-53,16,-26,-36,7,20,14
-39,-70,-32,56,-3,-52,15,-26,-35,12,23,15
-40,-69,-31,56,-5,-51,14,-26,-37,11,25,17
-40,-67,-30,55,-6,-49,16,-27,-40,5,24,17
-40,-66,-28,54,-7,-47,15,-28,-43,1,22,18
-41,-65,-26,54,-8,-46,14,-27,-40,3,23,19
-38,-66,-30,53,-5,-49,15,-27,-37,6,23,19
-32,-67,-37,51,2,-53,13,-30,-37,7,22,18
-36,-63,-29,51,-3,-47,12,-31,-37,11,24,20
-47,-59,-15,54,-16,-38,13,-31,-35,18,31,25
-47,-60,-15,54,-16,-39,11,-34,-36,22,36,28
-43,-60,-19,52,-12,-40,8,-39,-38,24,42,29
-41,-54,-15,48,-14,-35,8,-40,-38,29,48,34
-42,-49,-9,46,-17,-29,7,-41,-35,33,54,40
-42,-45,-4,45,-19,-25,4,-46,-37,34,57,44
-40,-40,-2,42,-19,-22,0,-50,-39,33,60,49
-39,-36,1,39,-20,-18,-4,-52,-39,33,62,54
-39,-32,5,37,-23,-14,-6,-54,-38,36,66,58
-41,-27,12,35,-27,-8,-7,-57,-40,39,70,61
-41,-22,17,33,-29,-3,-9,-63,-45,39,74,64
-38,-18,18,29,-29,-1,-11,-65,-47,38,74,65
-38,-21,15,30,-27,-3,-7,-64,-47,34,67,60
-37,-28,7,33,-23,-11,-4,-62,-47,28,56,51
-37,-38,-2,39,-18,-20,0,-57,-48,22,44,41
-38,-50,-13,45,-13,-32,6,-49,-48,14,30,28
-36,-63,-28,51,-5,-46,11,-42,-48,5,16,15
-36,-72,-37,55,-1,-56,16,-36,-49,-4,4,5
-35,-83,-50,60,6,-68,21,-28,-51,-17,-9,-7
-27,-95,-71,61,21,-84,25,-22,-54,-32,-23,-20
-22,-105,-85,64,31,-96,27,-16,-55,-40,-32,-29
-23,-113,-92,69,34,-103,30,-10,-54,-41,-36,-35
-21,-118,-99,70,38,-109,34,-5,-53,-39,-39,-40
-18,-120,-104,70,42,-114,37,1,-50,-37,-41,-43
-16,-123,-109,71,46,-118,39,7,-46,-35,-43,-45
-14,-126,-113,72,48,-120,42,12,-42,-35,-44,-48
-13,-129,-117,73,51,-124,43,17,-37,-37,-46,-51
-14,-134,-122,74,53,-128,44,20,-32,-37,-47,-54
-14,-136,-124,75,54,-131,46,24,-25,-32,-46,-54
-11,-134,-126,72,57,-131,48,28,-17,-27,-43,-53
-7,-132,-127,70,60,-130,49,32,-7,-20,-40,-51
-7,-132,-127,71,60,-130,52,38,3,-11,-37,-50
-5,-133,-129,71,61,-132,53,43,8,-5,-34,-49
-3,-132,-130,69,63,-132,52,45,8,-4,-34,-49
-4,-131,-129,68,62,-131,54,48,8,-4,-34,-50
-4,-133,-131,69,63,-132,58,53,11,-5,-35,-52
-3,-135,-135,69,65,-135,61,59,15,-5,-36,-56
-4,-137,-136,70,65,-137,63,64,18,-5,-37,-57
-4,-137,-136,71,66,-138,63,65,18,-3,-35,-56
-3,-136,-135,70,65,-137,63,65,19,-1,-31,-54
-2,-133,-132,69,64,-134,63,66,20,-1,-29,-50
0,-129,-131,67,65,-131,64,68,20,-3,-29,-48
0,-128,-129,66,64,-129,65,73,22,-6,-30,-46
-3,-129,-128,68,62,-129,67,78,26,-9,-31,-45
-4,-132,-131,68,62,-132,70,80,28,-10,-30,-45
-3,-135,-135,68,64,-135,74,83,29,-10,-28,-45
-2,-136,-136,68,66,-136,76,86,30,-8,-26,-45
-1,-136,-136,69,67,-137,76,87,32,-4,-24,-46
-1,-136,-136,69,67,-137,77,89,32,-4,-25,-47
-2,-136,-135,70,67,-136,79,91,31,-3,-26,-47
-2,-135,-135,70,66,-135,81,93,32,2,-24,-46
-1,-133,-134,68,66,-134,82,94,33,7,-20,-43
0,-131,-133,67,65,-132,84,96,33,7,-17,-41
0,-129,-131,66,64,-131,87,102,34,3,-17,-40
-2,-129,-130,66,64,-130,93,110,37,-2,-19,-38
-1,-130,-131,66,64,-131,97,115,40,-3,-20,-38
-1,-132,-132,67,64,-132,98,119,40,-1,-19,-36
-1,-133,-134,68,66,-134,99,120,39,0,-17,-35
0,-133,-136,68,68,-135,99,119,35,-3,-17,-36
2,-132,-137,67,69,-135,99,117,31,-7,-17,-36
2,-132,-137,66,69,-135,100,117,30,-8,-17,-35
1,-133,-137,66,69,-136,102,118,30,-3,-15,-34
3,-133,-138,66,70,-137,104,120,30,2,-14,-34
6,-133,-142,64,74,-138,103,117,27,3,-14,-35
8,-133,-144,64,76,-139,101,113,22,1,-13,-35
7,-133,-142,64,74,-138,99,110,19,-3,-12,-32
7,-130,-140,63,73,-135,95,106,18,-5,-11,-30
10,-128,-140,60,75,-134,90,102,18,-5,-9,-29
13,-125,-140,57,76,-133,85,100,22,-2,-8,-27
14,-122,-139,55,76,-131,80,97,26,2,-7,-26
16,-118,-137,52,76,-128,74,93,29,4,-6,-25
16,-116,-134,50,75,-126,67,89,30,5,-4,-22
16,-112,-130,49,73,-121,62,85,31,8,0,-19
16,-105,-124,46,70,-115,57,81,31,12,4,-15
16,-101,-119,44,68,-110,51,75,32,16,8,-10
16,-97,-115,41,66,-106,45,70,32,20,12,-7
17,-94,-114,39,66,-104,39,66,34,21,14,-4
19,-92,-113,37,66,-103,34,62,35,24,16,-3
20,-90,-112,36,66,-102,28,59,35,26,18,-2
19,-89,-110,36,64,-100,25,56,35,26,20,0
18,-86,-107,35,62,-97,23,53,34,26,22,2
20,-81,-103,32,62,-92,20,49,33,26,25,5
21,-77,-100,30,61,-89,17,45,33,27,28,8
21,-76,-98,29,60,-87,16,43,33,28,30,10
21,-75,-98,29,60,-86,15,42,33,29,31,11
21,-74,-97,28,59,-86,14,40,32,30,31,11
21,-72,-94,27,57,-84,12,37,30,29,32,12
20,-68,-90,25,55,-80,10,34,29,29,34,14
19,-65,-86,23,52,-76,8,30,28,31,36,17
19,-61,-82,22,50,-72,6,27,28,33,40,21
18,-59,-78,21,48,-68,4,24,27,34,42,25
17,-56,-75,20,46,-65,2,21,27,34,45,28
18,-54,-74,19,46,-63,1,19,25,36,47,30
18,-52,-73,18,46,-63,0,18,24,37,50,32
17,-50,-70,17,43,-60,-2,15,23,39,52,34
16,-46,-65,16,40,-56,-3,12,20,40,55,36
17,-42,-61,13,38,-52,-6,9,18,41,56,39
17,-37,-56,11,36,-47,-6,7,18,42,58,42
15,-33,-51,10,33,-42,-7,5,18,43,61,46
12,-31,-45,11,28,-38,-8,4,18,45,64,50
9,-28,-39,11,24,-34,-9,2,18,48,68,53
9,-27,-38,9,24,-33,-11,0,17,50,71,55
14,-25,-41,5,27,-34,-14,-4,15,50,71,55
17,-22,-41,3,29,-32,-16,-8,11,50,71,55
16,-18,-36,2,25,-27,-17,-10,10,50,72,58
13,-14,-29,2,21,-21,-17,-11,10,51,73,62
13,-11,-26,1,19,-18,-18,-13,9,51,75,64
13,-9,-24,0,19,-16,-20,-14,9,51,76,67
12,-7,-21,0,17,-14,-20,-15,9,53,78,68
10,-7,-19,0,15,-13,-21,-15,10,55,80,69
8,-7,-17,0,13,-13,-21,-17,10,57,81,70
8,-5,-16,-1,11,-11,-22,-18,9,58,81,71
8,-3,-13,-2,10,-9,-23,-19,9,58,81,72
8,-1,-10,-2,8,-5,-24,-20,10,58,81,73
9,1,-9,-3,8,-4,-24,-22,9,57,81,73
10,3,-9,-4,9,-3,-25,-24,8,57,81,75
9,4,-6,-4,8,-1,-26,-25,9,59,81,76
7,4,-5,-4,6,0,-26,-25,11,61,83,77
6,4,-4,-4,5,-1,-25,-25,12,63,83,78
6,4,-3,-4,4,-1,-25,-25,12,63,83,77
4,4,-1,-4,2,0,-25,-25,12,64,83,77
3,7,2,-4,0,4,-24,-25,13,65,84,79
3,9,5,-5,0,7,-24,-25,14,65,84,80
4,11,5,-5,0,7,-25,-25,15,65,84,80
4,11,6,-5,0,8,-24,-25,16,66,84,81
1,11,8,-5,-3,9,-23,-24,19,68,85,82
0,11,9,-4,-4,9,-22,-23,20,69,86,82
0,11,9,-4,-5,9,-22,-23,21,70,86,82
0,12,9,-5,-5,10,-22,-23,21,70,86,82
1,13,9,-6,-5,10,-22,-23,21,69,85,82
1,13,11,-5,-5,12,-20,-22,22,69,85,82
-1,13,13,-4,-7,13,-19,-21,23,69,85,82
-3,13,14,-2,-9,13,-18,-21,23,69,85,83
-3,12,13,-2,-8,12,-18,-21,23,69,84,82
-3,12,12,-3,-7,11,-17,-21,22,68,82,81
-3,11,12,-3,-6,10,-16,-21,22,67,81,81
-3,10,11,-2,-7,10,-15,-20,21,67,80,81
-3,9,10,-2,-7,9,-14,-20,20,65,79,80
-1,9,9,-2,-5,8,-12,-20,18,63,78,79
0,8,7,-2,-4,7,-11,-20,17,60,76,78
-1,7,6,-2,-4,6,-11,-20,16,59,75,77
-2,5,6,0,-4,5,-10,-20,16,58,73,77
-4,3,6,1,-4,4,-10,-21,14,56,72,76
-6,1,6,3,-6,3,-9,-22,13,55,71,75
-7,0,6,4,-6,2,-9,-21,12,54,70,74
-6,-1,4,4,-5,1,-9,-21,10,51,68,72
-6,-2,3,5,-5,0,-8,-21,8,49,66,71
-7,-3,2,7,-4,-1,-7,-22,6,46,64,70
-6,-4,0,7,-3,-3,-7,-23,3,43,62,69
-6,-6,-1,7,-3,-4,-6,-23,2,41,61,67
-8,-8,-1,10,-3,-6,-4,-21,1,40,59,66
-10,-12,-4,11,-2,-9,-3,-21,0,39,58,65
-9,-15,-8,12,0,-12,-1,-21,0,37,56,63
-9,-16,-9,13,0,-13,-1,-21,-1,36,55,62
-10,-16,-8,13,-1,-12,0,-20,-2,35,54,62
-9,-16,-8,14,-1,-12,0,-20,-3,33,53,60
-8,-18,-11,14,1,-15,1,-20,-5,30,51,58
-6,-20,-15,14,4,-18,1,-19,-7,28,49,55
-6,-21,-16,15,5,-19,3,-18,-6,28,47,55
-7,-22,-17,16,5,-21,4,-17,-6,28,46,53
-7,-24,-19,16,6,-22,5,-17,-6,28,46,52
-7,-25,-19,17,6,-22,6,-16,-6,27,45,51
-8,-25,-19,18,5,-23,6,-16,-6,26,44,50
-8,-26,-19,18,5,-23,7,-15,-7,25,44,49
-8,-26,-20,19,6,-23,8,-14,-8,23,43,47
-9,-27,-21,19,6,-25,8,-14,-9,22,41,46
-9,-28,-22,19,6,-26,8,-14,-9,21,40,45
-8,-29,-23,20,8,-27,8,-14,-10,20,38,43
-7,-31,-25,20,9,-29,9,-14,-10,20,37,42
-7,-32,-26,20,9,-30,9,-14,-10,19,36,40
-8,-33,-26,21,9,-30,9,-14,-11,18,35,39
-8,-34,-26,21,9,-31,9,-14,-11,17,35,38
-8,-34,-26,22,9,-31,10,-13,-11,17,35,37
-11,-33,-25,24,7,-30,11,-12,-11,16,34,37
-15,-34,-22,26,3,-29,13,-10,-10,17,34,37
-18,-35,-20,28,0,-28,14,-8,-9,18,34,38
-18,-36,-22,28,1,-29,15,-8,-9,18,33,36
-14,-38,-27,26,5,-32,14,-9,-10,16,31,34
-11,-39,-29,26,8,-34,13,-9,-11,15,30,33
-11,-39,-29,27,8,-34,14,-8,-10,15,30,32
-12,-40,-28,27,8,-34,15,-8,-10,15,30,32
-13,-40,-29,27,8,-35,15,-8,-11,13,29,31
-13,-40,-30,27,9,-36,15,-8,-12,12,28,30
-13,-41,-31,28,9,-37,16,-7,-12,12,27,29
-13,-42,-31,28,9,-38,16,-6,-12,12,26,28
-12,-43,-34,28,11,-39,16,-6,-12,12,25,26
-10,-45,-35,28,12,-40,16,-6,-12,11,24,26
-11,-45,-35,29,12,-40,17,-5,-12,11,24,26
-11,-45,-36,29,12,-41,17,-5,-12,10,24,25
-11,-45,-36,29,12,-41,17,-6,-12,9,24,25
-10,-44,-37,28,13,-41,15,-6,-14,8,23,24
-10,-44,-37,28,13,-41,15,-6,-14,8,22,24
-11,-44,-35,28,12,-40,15,-6,-15,9,23,24
-12,-43,-33,28,10,-39,15,-7,-15,10,24,26
-12,-42,-32,28,9,-38,15,-8,-14,12,26,26
-12,-41,-30,28,8,-36,15,-9,-14,13,28,28
-14,-39,-26,28,6,-33,14,-11,-14,16,32,31
-14,-35,-23,26,5,-30,12,-14,-13,19,36,35
-12,-32,-22,23,5,-27,8,-18,-14,21,40,39
-12,-28,-19,21,3,-23,5,-21,-13,25,44,43
-13,-24,-14,19,0,-19,3,-24,-13,28,48,47
-14,-20,-9,18,-3,-15,1,-27,-15,31,52,52
-15,-16,-3,17,-7,-10,0,-30,-16,33,57,56
-15,-12,1,15,-8,-6,-2,-33,-17,35,60,60
-13,-8,4,13,-9,-2,-5,-37,-19,36,63,63
-13,-4,7,10,-10,1,-8,-42,-23,35,65,65
-15,0,12,8,-13,6,-10,-47,-27,35,66,68
-16,1,15,8,-16,8,-12,-49,-29,34,66,69
-18,-1,14,10,-16,6,-11,-49,-30,31,61,65
-18,-8,7,13,-13,0,-7,-46,-30,27,51,57
-18,-20,-5,19,-7,-13,-1,-38,-29,19,37,43
-15,-34,-21,24,2,-28,6,-30,-30,7,19,26
-15,-46,-33,30,9,-40,12,-23,-31,-4,3,12
-15,-56,-43,37,14,-50,17,-17,-33,-14,-10,1
-11,-68,-59,41,24,-64,21,-12,-34,-25,-22,-10
-7,-79,-74,43,33,-77,25,-4,-35,-32,-30,-19
-6,-87,-83,47,38,-86,29,3,-32,-36,-35,-25
-6,-94,-91,50,42,-94,32,9,-30,-38,-40,-31
-4,-102,-100,53,47,-102,36,16,-28,-40,-45,-37
0,-109,-111,55,55,-110,39,21,-24,-40,-50,-44
4,-113,-120,55,62,-117,41,27,-19,-40,-53,-49
7,-116,-126,55,66,-121,44,33,-12,-37,-54,-52
8,-118,-128,56,68,-124,46,38,-5,-34,-54,-53
8,-119,-130,56,69,-125,47,41,1,-30,-53,-53
9,-118,-131,55,71,-125,47,44,7,-24,-53,-54
12,-119,-134,54,74,-127,47,46,12,-18,-53,-55
14,-119,-136,53,75,-129,48,49,18,-13,-51,-56
14,-119,-136,53,75,-128,50,53,21,-10,-50,-56
15,-120,-136,53,75,-128,51,57,22,-11,-50,-56
15,-121,-137,54,75,-128,53,60,22,-14,-50,-57
15,-121,-137,54,76,-129,55,62,24,-16,-51,-58
15,-121,-138,54,76,-129,57,66,27,-17,-51,-58
14,-121,-136,54,75,-128,59,71,31,-15,-50,-57
11,-121,-134,56,73,-128,60,75,34,-13,-49,-57
10,-123,-135,56,73,-129,62,77,37,-12,-49,-57
12,-123,-138,55,75,-131,63,80,40,-10,-48,-57
14,-123,-139,54,77,-131,63,82,42,-9,-47,-57
14,-122,-137,54,75,-130,64,85,42,-9,-45,-55
13,-121,-136,54,74,-129,66,87,44,-9,-43,-54
13,-121,-136,54,74,-129,67,89,46,-8,-42,-53
13,-121,-135,54,74,-128,69,92,48,-8,-42,-52
12,-121,-135,55,74,-128,70,93,49,-7,-42,-51
11,-122,-135,55,73,-129,72,95,49,-7,-43,-51
10,-123,-135,56,73,-129,73,97,49,-7,-43,-51
9,-123,-134,57,72,-129,75,99,49,-6,-42,-51
8,-123,-133,58,71,-128,78,101,50,-6,-42,-50
10,-123,-134,57,73,-129,79,103,49,-7,-41,-50
11,-123,-135,56,74,-130,80,104,48,-8,-41,-50
11,-123,-135,57,74,-130,82,108,49,-9,-41,-49
9,-124,-135,58,73,-130,86,114,51,-8,-40,-47
6,-125,-133,59,71,-130,90,120,53,-8,-40,-45
7,-126,-135,59,72,-131,93,124,54,-8,-40,-45
9,-127,-139,58,74,-133,94,127,52,-10,-40,-46
9,-128,-139,59,75,-135,95,127,49,-11,-39,-45
9,-129,-139,60,74,-134,95,126,46,-12,-38,-44
9,-129,-140,60,75,-135,95,125,43,-13,-37,-44
11,-129,-141,60,77,-136,96,126,41,-14,-37,-43
11,-128,-141,59,77,-135,98,128,40,-14,-37,-42
10,-128,-140,59,76,-135,99,128,39,-15,-37,-41
10,-129,-140,59,76,-135,98,127,39,-15,-37,-40
10,-128,-141,58,76,-135,97,126,38,-14,-35,-38
10,-126,-139,57,75,-133,95,124,37,-14,-34,-37
12,-125,-139,56,76,-132,91,121,37,-13,-33,-36
14,-123,-139,54,77,-132,87,116,37,-13,-33,-35
16,-120,-137,52,77,-130,81,108,35,-12,-31,-33
17,-117,-136,50,77,-127,73,102,34,-12,-29,-30
18,-113,-133,48,77,-124,66,97,36,-10,-27,-27
19,-109,-130,45,75,-120,59,93,37,-7,-25,-25
19,-106,-128,43,75,-117,53,89,38,-4,-22,-22
19,-102,-124,41,73,-114,48,84,38,0,-18,-20
18,-99,-119,40,69,-110,43,78,40,2,-14,-18
18,-96,-116,39,67,-106,37,73,41,4,-12,-16
18,-93,-112,38,65,-104,32,68,41,5,-10,-13
18,-91,-108,37,63,-100,26,64,41,5,-8,-10
17,-88,-107,36,62,-98,22,60,40,5,-6,-7
17,-86,-104,35,61,-96,18,56,39,6,-5,-5
17,-84,-103,33,61,-94,15,52,37,7,-3,-2
17,-82,-101,32,61,-92,14,49,35,8,-1,0
15,-79,-96,32,57,-88,13,47,33,8,1,4
14,-76,-92,31,54,-85,11,44,31,8,3,7
14,-74,-90,30,53,-83,9,40,30,9,5,9
14,-72,-86,29,51,-79,7,36,28,10,8,12
12,-69,-81,28,48,-76,5,32,27,11,11,16
10,-65,-77,27,45,-72,3,28,26,12,14,20
8,-62,-72,26,41,-68,1,24,25,13,16,23
8,-60,-71,25,41,-66,-1,21,23,13,18,26
10,-57,-70,23,41,-64,-3,18,22,14,19,27
9,-53,-65,21,38,-60,-5,15,21,16,21,29
8,-51,-61,21,36,-57,-7,12,19,16,22,31
8,-48,-57,21,34,-54,-9,9,17,16,24,32
8,-47,-55,20,32,-52,-11,5,14,16,25,34
8,-44,-53,19,32,-49,-14,1,13,16,26,37
7,-41,-50,17,30,-46,-16,-1,11,17,28,39
6,-38,-47,16,28,-43,-18,-4,10,17,31,41
6,-36,-45,15,27,-41,-19,-6,8,17,33,42
6,-33,-42,13,25,-38,-21,-8,6,18,35,43
5,-31,-38,13,22,-35,-22,-9,7,20,37,45
2,-28,-31,13,17,-31,-22,-10,8,22,40,47
0,-26,-26,13,13,-27,-22,-13,7,23,42,49
2,-23,-26,11,15,-26,-25,-16,4,22,42,50
4,-22,-26,9,16,-25,-27,-19,1,22,42,50
1,-21,-23,9,13,-22,-27,-21,1,24,43,52
-4,-19,-18,11,8,-19,-27,-22,1,26,45,54
-5,-17,-16,10,6,-16,-29,-23,0,25,45,54
-3,-15,-15,9,6,-15,-30,-24,0,24,45,54
-3,-14,-13,8,5,-14,-30,-26,0,24,45,54
-3,-12,-11,8,4,-12,-31,-28,0,23,45,54
-4,-11,-8,8,2,-10,-32,-31,-1,23,45,55
-4,-10,-7,8,2,-10,-33,-33,-1,24,44,57
-5,-10,-6,8,1,-9,-33,-34,-1,25,44,56
-8,-10,-3,8,-1,-7,-33,-34,-1,25,44,56
-9,-8,-1,8,-2,-5,-33,-36,-2,25,44,56
-9,-6,0,7,-3,-4,-34,-37,-1,26,44,57
-9,-5,1,7,-4,-2,-34,-38,0,28,43,58
-9,-3,4,7,-5,0,-34,-39,1,29,43,58
-10,-3,6,7,-7,1,-34,-40,1,29,43,57
-11,-3,7,7,-8,1,-34,-41,1,30,43,56
-13,-3,9,7,-9,3,-34,-41,3,32,43,55
-14,-2,10,7,-11,4,-34,-41,4,33,43,55
-15,0,12,7,-12,5,-34,-42,4,33,43,54
-16,1,14,7,-15,7,-34,-42,5,34,43,54
-17,1,15,7,-15,8,-34,-43,5,34,43,54
-17,1,16,7,-16,9,-33,-44,5,34,42,54
-17,2,18,7,-17,10,-33,-46,6,34,41,54
-18,2,20,8,-19,10,-32,-47,6,35,41,54
-21,2,22,9,-21,11,-30,-47,8,36,41,55
-21,1,22,9,-21,11,-29,-46,9,35,40,55
-21,1,22,9,-21,11,-28,-46,9,34,40,55
-22,2,22,10,-21,11,-28,-47,9,33,40,54
-20,0,19,10,-19,9,-28,-48,6,32,39,52
-20,0,18,10,-18,8,-28,-48,2,31,38,51
-20,0,19,10,-19,10,-26,-47,2,30,37,51
-21,0,20,10,-19,10,-25,-47,6,29,37,50
-22,-1,20,11,-19,8,-24,-47,7,30,36,48
-21,-2,18,11,-19,7,-22,-47,6,29,33,46
-22,-3,16,12,-18,6,-21,-46,4,27,31,45
-23,-4,16,13,-19,5,-20,-44,5,26,30,45
-25,-5,17,15,-21,5,-19,-44,5,26,30,44
-26,-6,17,16,-21,4,-19,-44,4,25,29,42
-26,-8,16,18,-20,3,-19,-45,1,23,27,42
-26,-10,13,18,-19,0,-18,-46,-2,20,25,42
-26,-12,12,19,-18,-1,-17,-45,-4,18,23,41
-26,-13,11,20,-18,-2,-17,-46,-3,16,22,40
-27,-14,10,20,-18,-2,-16,-46,-3,15,21,38
-27,-15,9,21,-16,-3,-15,-45,-5,14,21,37
-27,-17,7,22,-16,-5,-14,-45,-6,11,20,36
-28,-19,7,24,-17,-6,-13,-44,-7,10,19,35
-28,-21,5,25,-17,-8,-11,-43,-7,9,18,33
-27,-22,3,25,-15,-10,-10,-42,-9,8,17,31
-26,-24,0,25,-12,-12,-10,-42,-10,7,15,29
-26,-25,-1,25,-11,-14,-10,-42,-12,4,12,28
-26,-27,-2,26,-11,-15,-9,-42,-13,2,9,27
-26,-28,-4,26,-10,-17,-9,-41,-14,0,7,25
-24,-29,-7,26,-8,-18,-8,-39,-15,-1,7,23
-24,-30,-8,27,-8,-19,-7,-39,-14,-1,7,22
-25,-31,-8,28,-8,-20,-5,-38,-15,-1,6,21
-24,-32,-9,29,-7,-21,-3,-38,-17,-1,5,21
-24,-33,-9,29,-7,-22,-2,-36,-17,-1,6,22
-26,-33,-8,29,-7,-22,-2,-34,-15,-1,6,22
-25,-34,-10,29,-6,-23,-2,-34,-15,-2,5,20
-24,-35,-13,29,-5,-25,-2,-34,-17,-2,3,20
-25,-37,-14,30,-5,-26,-2,-33,-18,-3,3,21
-26,-37,-13,32,-6,-26,-1,-32,-18,-4,3,21
-25,-37,-14,32,-5,-26,-1,-32,-18,-6,2,21
-23,-37,-16,31,-3,-27,-1,-32,-19,-9,1,20
-23,-38,-16,31,-2,-29,0,-32,-20,-10,1,20
-25,-39,-15,32,-4,-28,1,-31,-20,-10,1,20
-25,-40,-16,32,-3,-29,2,-31,-20,-11,0,19
-26,-41,-18,32,-3,-31,2,-31,-20,-11,-1,18
-29,-41,-15,34,-6,-29,3,-30,-20,-10,-2,18
-30,-41,-13,34,-7,-28,4,-29,-20,-11,-3,17
-28,-43,-15,35,-6,-29,4,-29,-20,-13,-3,15
-28,-43,-16,35,-5,-31,4,-29,-21,-13,-3,13
-28,-43,-16,35,-5,-30,4,-28,-22,-13,-5,14
-30,-43,-14,36,-7,-29,5,-27,-23,-14,-7,15
-31,-43,-14,37,-7,-29,6,-26,-23,-14,-9,14
-30,-45,-17,37,-4,-32,6,-26,-23,-16,-11,12
-29,-46,-20,37,-3,-34,5,-27,-23,-17,-11,12
-31,-46,-18,38,-6,-33,5,-26,-21,-15,-10,12
-32,-47,-17,39,-7,-33,6,-24,-21,-15,-7,12
-31,-48,-19,39,-6,-34,6,-24,-23,-17,-6,11
-28,-49,-22,38,-2,-36,5,-25,-26,-20,-7,9
-26,-49,-24,37,0,-37,5,-25,-26,-20,-8,8
-26,-49,-24,37,0,-37,5,-25,-23,-18,-9,7
-27,-49,-23,38,-1,-36,5,-25,-22,-17,-8,6
-27,-49,-23,38,-1,-37,5,-25,-23,-17,-7,8
-26,-49,-25,37,0,-38,4,-27,-23,-19,-7,9
-26,-48,-24,37,0,-37,3,-27,-23,-18,-6,10
-28,-47,-20,37,-3,-35,3,-27,-23,-17,-4,10
-29,-46,-17,37,-5,-32,3,-27,-22,-17,-2,10
-29,-45,-16,37,-6,-31,3,-27,-22,-16,0,12
-30,-45,-15,37,-6,-30,3,-27,-23,-12,1,15
-29,-43,-15,36,-6,-29,0,-31,-23,-9,2,18
-29,-39,-12,34,-7,-27,-2,-36,-22,-5,6,21
-32,-35,-6,33,-12,-21,-3,-38,-21,0,11,26
-32,-31,-1,31,-14,-17,-6,-40,-21,2,14,30
-29,-26,1,27,-14,-13,-9,-44,-22,3,18,34
-27,-21,4,23,-14,-9,-12,-47,-23,5,24,39
-27,-17,8,22,-16,-5,-15,-51,-25,6,27,43
-28,-15,12,21,-19,-1,-18,-54,-27,7,29,46
-30,-12,17,21,-23,2,-20,-58,-30,8,32,49
-32,-8,23,21,-26,6,-22,-63,-33,8,35,53
-32,-3,27,18,-29,10,-24,-67,-37,6,36,56
-32,-2,28,17,-29,12,-25,-69,-40,3,32,54
-34,-4,27,20,-30,10,-23,-67,-41,0,26,49
-35,-13,19,24,-26,2,-19,-62,-39,-4,16,41
-32,-26,4,28,-17,-11,-14,-55,-38,-12,0,26
-29,-39,-11,34,-8,-26,-8,-48,-40,-24,-17,9
-30,-52,-23,40,-2,-38,-2,-42,-43,-34,-32,-4
-28,-62,-35,45,4,-50,2,-37,-45,-44,-45,-17
-25,-73,-50,49,13,-63,7,-31,-44,-53,-55,-28
-23,-84,-63,53,21,-74,12,-22,-43,-59,-62,-37
-21,-91,-73,56,27,-82,15,-15,-41,-64,-67,-43
-17,-98,-83,57,34,-90,17,-9,-40,-67,-71,-50
-15,-104,-91,58,39,-98,19,-3,-38,-69,-76,-55
-12,-110,-99,60,44,-104,23,3,-34,-71,-80,-59
-11,-115,-105,62,47,-110,26,9,-28,-69,-83,-61
-10,-119,-110,64,50,-115,29,16,-19,-67,-86,-63
-9,-120,-113,65,53,-118,30,20,-11,-63,-87,-66
-7,-121,-115,64,54,-119,31,24,-5,-57,-85,-66
-6,-121,-116,64,56,-119,31,26,0,-50,-83,-66
-5,-121,-117,63,56,-119,32,30,6,-44,-80,-65
-5,-120,-117,62,57,-119,33,35,12,-39,-77,-65
-3,-119,-117,61,57,-119,33,39,16,-38,-75,-65
-2,-119,-117,60,57,-119,35,42,16,-40,-76,-65
-2,-119,-117,60,57,-119,38,46,18,-40,-78,-67
-2,-120,-119,61,58,-120,41,50,21,-39,-78,-68
-4,-121,-120,63,59,-121,43,56,26,-38,-78,-67
-5,-122,-119,64,58,-121,45,60,28,-37,-78,-67
-6,-122,-118,64,57,-121,45,62,30,-37,-79,-68
-5,-123,-120,64,58,-122,46,64,32,-37,-79,-68
-4,-123,-122,63,60,-124,46,67,34,-37,-79,-68
-3,-123,-122,63,60,-124,46,68,37,-36,-78,-68
-5,-123,-120,64,57,-122,48,71,39,-36,-77,-68
-6,-123,-118,65,57,-121,50,73,42,-35,-76,-67
-4,-124,-121,64,59,-123,51,75,44,-34,-75,-67
-1,-124,-124,62,63,-124,52,77,45,-33,-74,-66
0,-124,-125,61,63,-125,52,79,45,-32,-73,-66
-2,-123,-123,62,61,-124,53,81,45,-31,-71,-65
-4,-123,-121,62,59,-123,55,84,45,-31,-69,-64
-5,-123,-120,62,58,-122,57,86,45,-30,-68,-62
-5,-123,-118,63,56,-122,59,89,45,-30,-69,-61
-5,-123,-119,64,57,-122,62,91,46,-31,-68,-61
-4,-123,-120,63,59,-122,63,93,46,-31,-66,-60
-3,-123,-121,62,60,-122,66,98,48,-31,-65,-59
-4,-124,-122,63,60,-123,69,105,50,-32,-67,-59
-6,-125,-120,65,57,-123,71,110,52,-32,-68,-59
-8,-125,-119,66,55,-123,74,115,52,-32,-69,-59
-8,-126,-120,66,56,-124,76,117,52,-32,-70,-59
-7,-127,-122,66,58,-125,76,116,50,-32,-69,-60
-6,-127,-123,65,58,-126,76,114,48,-32,-68,-60
-5,-127,-124,65,60,-127,77,114,45,-33,-69,-58
-1,-128,-128,65,63,-128,78,116,42,-34,-70,-58
0,-128,-129,64,65,-129,79,117,39,-36,-69,-59
0,-127,-129,64,65,-129,78,115,37,-36,-67,-59
1,-127,-129,63,65,-129,76,115,36,-36,-66,-58
2,-125,-129,60,65,-127,74,113,36,-35,-65,-56
3,-122,-128,58,66,-125,71,110,37,-34,-63,-54
3,-120,-125,58,64,-124,69,108,38,-32,-61,-52
1,-119,-122,58,62,-122,64,102,40,-30,-59,-50
3,-116,-121,56,62,-120,57,95,40,-29,-58,-46
5,-113,-120,54,63,-118,50,89,39,-28,-56,-44
4,-110,-115,52,60,-113,43,85,39,-25,-52,-44
5,-105,-112,50,59,-109,36,81,39,-21,-47,-43
7,-100,-110,46,59,-106,30,76,39,-19,-42,-40
5,-98,-105,45,55,-102,25,70,41,-16,-39,-35
2,-95,-100,46,51,-99,20,66,43,-14,-37,-31
3,-93,-98,43,51,-96,15,62,45,-12,-35,-29
6,-90,-98,41,52,-95,10,58,44,-12,-33,-27
6,-87,-95,40,50,-92,6,54,44,-11,-32,-24
5,-85,-91,40,48,-88,2,51,44,-9,-31,-22
4,-82,-88,40,46,-86,-1,47,42,-8,-28,-20
4,-80,-86,38,46,-83,-5,43,38,-8,-26,-16
6,-77,-84,35,46,-82,-7,39,37,-7,-24,-13
6,-75,-83,34,45,-81,-9,37,39,-7,-23,-11
4,-73,-80,33,43,-78,-9,35,40,-9,-23,-10
3,-71,-76,33,40,-74,-10,32,38,-9,-22,-8
2,-69,-72,33,37,-71,-12,29,34,-6,-19,-7
1,-66,-67,33,34,-67,-15,25,33,-4,-16,-4
0,-63,-64,32,32,-64,-18,21,32,-4,-14,-1
0,-59,-62,30,31,-61,-21,19,31,-4,-11,2
1,-56,-59,27,30,-58,-24,15,29,-3,-8,5
0,-53,-55,25,28,-55,-25,13,27,-3,-5,8
0,-51,-53,24,27,-53,-26,11,25,-1,-3,11
0,-49,-51,22,26,-51,-27,8,24,-1,-2,13
1,-46,-49,21,26,-49,-29,4,23,-3,0,14
1,-44,-46,21,24,-45,-31,2,22,-3,2,15
-1,-42,-41,22,20,-42,-33,0,22,0,4,17
-1,-39,-38,21,18,-39,-36,-3,22,2,6,18
-1,-36,-36,18,18,-37,-38,-6,19,4,7,20
0,-32,-34,16,17,-34,-39,-8,18,4,8,23
-2,-29,-30,15,14,-31,-39,-9,16,5,9,25
-5,-28,-25,16,10,-28,-40,-11,16,6,11,26
-7,-26,-20,16,7,-24,-40,-14,17,7,13,27
-8,-23,-15,16,4,-20,-41,-15,17,10,15,29
-10,-21,-10,16,0,-16,-43,-17,16,12,17,32
-12,-18,-6,16,-2,-12,-45,-19,15,14,19,32
-12,-16,-5,14,-3,-11,-47,-22,12,14,20,32
-11,-14,-5,11,-2,-10,-49,-24,11,13,20,35
-10,-11,-5,9,-2,-9,-50,-26,11,13,19,38
-10,-10,-4,9,-3,-8,-50,-26,11,13,19,40
-11,-9,-1,9,-6,-5,-50,-28,11,13,21,39
-10,-8,1,9,-6,-4,-50,-29,9,13,22,39
-9,-6,3,8,-6,-1,-52,-31,9,12,22,39
-10,-5,5,8,-7,0,-53,-33,8,12,22,39
-12,-4,7,8,-9,1,-54,-33,8,12,22,41
-14,-3,10,8,-12,3,-54,-34,8,12,23,42
-17,-2,13,8,-15,4,-54,-36,8,13,24,42
-20,-1,15,9,-17,6,-54,-38,8,14,24,42
-21,-2,17,10,-19,7,-54,-38,8,14,25,42
-21,-1,18,10,-19,7,-52,-38,10,16,25,42
-19,0,18,9,-18,8,-52,-38,12,18,24,42
-18,1,19,9,-18,10,-53,-39,12,20,23,41
-19,2,21,9,-20,11,-53,-39,12,22,24,40
-21,3,24,8,-22,13,-53,-39,12,22,24,42
-22,5,25,7,-23,14,-53,-39,13,22,24,43
-23,5,26,7,-25,15,-53,-38,14,23,24,43
-25,5,28,8,-26,15,-51,-37,17,25,25,43
-26,5,29,9,-28,16,-50,-37,18,27,25,43
-26,6,31,9,-29,17,-49,-37,19,27,25,43
-28,7,34,9,-30,20,-49,-37,20,29,25,44
-26,8,33,8,-29,20,-49,-36,20,28,24,43
-21,7,27,6,-23,17,-49,-36,20,26,22,40
-21,7,26,5,-23,17,-48,-36,20,25,21,39
-24,7,29,7,-26,18,-47,-34,20,25,21,39
-26,7,30,8,-28,18,-45,-33,21,25,19,37
-25,7,29,8,-27,17,-44,-34,20,23,18,35
-25,7,29,8,-26,17,-43,-34,19,22,16,34
-26,6,31,9,-28,18,-41,-33,19,22,16,34
-26,5,31,10,-28,18,-40,-32,19,22,16,34
-27,4,30,10,-28,17,-39,-32,18,20,16,34
-29,3,30,11,-29,17,-37,-30,18,19,16,34
-30,3,31,12,-30,17,-36,-29,18,19,16,34
-29,2,28,12,-29,15,-35,-29,17,19,16,32
-27,0,25,12,-26,12,-35,-31,15,18,14,30
-26,0,23,12,-25,10,-36,-32,13,16,13,28
-27,-1,24,14,-25,10,-36,-33,11,14,12,28
-27,-2,24,14,-25,10,-35,-33,10,12,11,28
-27,-3,23,14,-25,9,-35,-33,9,9,10,28
-28,-5,22,15,-24,8,-35,-33,6,8,8,28
-28,-6,21,16,-24,8,-34,-33,5,7,6,28
-30,-7,21,17,-25,7,-32,-31,5,7,4,28
-30,-9,19,19,-25,4,-31,-31,3,5,3,26
-29,-11,16,20,-22,1,-29,-31,1,3,2,23
-29,-13,15,20,-21,0,-28,-30,0,1,2,22
-29,-14,14,21,-21,-1,-27,-28,0,0,1,21
-29,-15,12,21,-21,-2,-26,-28,-2,-2,0,20
-30,-16,12,21,-21,-2,-26,-28,-3,-4,-2,20
-30,-17,12,22,-21,-2,-24,-26,-4,-4,-3,20
-30,-18,10,22,-19,-4,-23,-25,-3,-4,-4,19
-26,-19,5,21,-15,-7,-22,-25,-4,-5,-7,18
-24,-20,2,21,-13,-9,-22,-26,-6,-7,-8,16
-26,-21,2,23,-14,-10,-21,-25,-6,-8,-8,15
-26,-21,2,23,-14,-10,-20,-24,-7,-9,-8,14
-25,-21,2,22,-13,-10,-20,-23,-7,-9,-9,14
-25,-21,2,22,-13,-10,-20,-23,-7,-9,-9,14
-23,-21,1,22,-11,-10,-20,-23,-8,-8,-9,14
-24,-21,2,22,-12,-10,-19,-23,-8,-8,-9,14
-28,-22,4,25,-15,-10,-17,-22,-8,-8,-9,14
-29,-23,4,26,-16,-11,-16,-21,-8,-8,-9,13
-28,-25,2,26,-14,-12,-16,-21,-9,-10,-10,12
-26,-25,0,26,-13,-13,-17,-21,-11,-12,-10,12
-25,-25,-1,25,-12,-13,-17,-22,-12,-12,-10,12
-26,-25,0,25,-12,-13,-17,-22,-13,-13,-10,12
-27,-25,0,26,-13,-13,-16,-22,-14,-14,-10,12
-28,-25,1,26,-14,-12,-16,-21,-14,-15,-10,11
-29,-25,1,26,-15,-12,-15,-21,-15,-16,-10,11
-29,-25,2,26,-15,-12,-14,-20,-15,-15,-10,11
-29,-25,2,26,-16,-11,-13,-20,-14,-14,-10,12
-27,-25,1,26,-14,-12,-14,-21,-15,-15,-10,12
-27,-25,1,26,-14,-12,-14,-21,-15,-16,-11,11
-28,-26,2,27,-15,-12,-13,-20,-15,-16,-12,10
-28,-26,1,27,-15,-12,-13,-20,-17,-16,-12,10
-29,-26,1,27,-15,-12,-13,-20,-18,-15,-12,10
-29,-26,1,28,-15,-13,-13,-20,-19,-15,-12,10
-28,-27,0,28,-14,-14,-13,-20,-20,-17,-12,10
-26,-27,-3,26,-12,-16,-13,-21,-21,-19,-14,8
-25,-28,-3,26,-12,-16,-13,-20,-21,-20,-14,8
-28,-28,-1,28,-13,-16,-12,-19,-21,-21,-12,10
-29,-29,-1,28,-13,-16,-12,-19,-21,-20,-12,10
-29,-29,-2,28,-13,-17,-12,-19,-21,-20,-13,9
-27,-29,-3,28,-12,-17,-12,-19,-22,-22,-14,8
-26,-28,-4,27,-10,-16,-12,-19,-22,-22,-15,7
-27,-29,-4,28,-11,-16,-12,-20,-22,-20,-14,6
-28,-30,-3,29,-12,-16,-12,-21,-22,-20,-13,6
-29,-29,-3,29,-13,-16,-14,-23,-23,-20,-13,7
-29,-29,-2,29,-14,-16,-15,-25,-23,-19,-12,8
-28,-28,-1,28,-14,-16,-16,-27,-23,-18,-11,8
-27,-26,0,27,-14,-14,-17,-28,-24,-17,-8,10
-27,-22,4,25,-15,-10,-18,-31,-24,-15,-4,14
-28,-18,8,23,-18,-6,-19,-33,-23,-11,0,19
-29,-17,10,23,-20,-3,-21,-35,-21,-6,5,23
-29,-16,12,23,-22,-2,-23,-38,-22,-2,9,26
-29,-13,15,21,-23,1,-26,-42,-23,0,13,30
-29,-7,21,18,-26,6,-29,-46,-26,2,18,35
-30,-2,27,17,-30,12,-31,-50,-27,5,23,38
-32,2,33,15,-33,16,-33,-54,-29,7,26,41
-33,7,39,13,-36,22,-36,-59,-33,7,28,43
-34,12,45,11,-40,28,-38,-63,-36,5,29,46
-35,14,48,10,-42,31,-39,-65,-38,4,29,47
-37,11,46,12,-43,28,-37,-65,-39,3,25,45
-37,3,39,16,-39,21,-34,-62,-39,0,17,38
-33,-7,24,20,-30,8,-29,-56,-39,-6,4,25
-29,-21,7,25,-20,-7,-23,-48,-40,-19,-14,8
-29,-33,-6,30,-12,-20,-17,-42,-42,-33,-32,-7
-30,-43,-16,36,-8,-31,-11,-36,-44,-44,-46,-20
-30,-55,-26,43,-2,-41,-6,-29,-46,-53,-57,-31
-28,-65,-39,47,5,-53,0,-20,-46,-60,-65,-40
-24,-74,-51,49,12,-63,3,-13,-46,-66,-70,-47
-19,-83,-64,51,20,-73,5,-7,-45,-70,-77,-55
-17,-91,-75,53,27,-84,9,-2,-43,-74,-84,-62
-16,-99,-84,56,33,-92,13,3,-41,-74,-89,-69
-14,-104,-92,57,39,-98,15,9,-36,-73,-92,-75
-10,-106,-98,57,44,-103,17,15,-30,-71,-93,-77
-8,-107,-99,58,45,-104,20,20,-23,-66,-91,-77
-8,-106,-99,58,45,-104,22,25,-17,-61,-89,-77
-4,-105,-102,56,48,-104,21,28,-10,-55,-88,-76
-1,-106,-106,54,51,-106,22,31,-3,-49,-87,-77
-2,-109,-109,55,52,-110,24,35,4,-42,-86,-79
-1,-110,-110,55,53,-111,25,40,11,-37,-84,-79
-2,-109,-109,55,52,-110,26,42,13,-36,-83,-79
-3,-109,-107,56,51,-109,27,45,13,-38,-83,-80
-2,-108,-107,55,52,-109,30,48,13,-40,-83,-80
-2,-108,-108,55,53,-109,33,53,14,-40,-83,-81
-2,-110,-109,56,53,-109,35,57,17,-40,-83,-81
-1,-111,-111,56,53,-110,37,60,19,-40,-83,-82
-1,-112,-113,56,55,-113,39,63,20,-40,-83,-83
0,-113,-115,56,56,-114,41,67,22,-39,-81,-83
0,-112,-115,56,57,-114,41,69,23,-39,-78,-81
-1,-112,-113,56,55,-113,42,72,24,-40,-77,-80
-2,-111,-111,57,54,-112,44,75,26,-40,-76,-79
-1,-110,-110,56,54,-111,45,78,27,-38,-75,-78
-1,-112,-111,56,55,-111,47,81,30,-34,-73,-77
-1,-114,-113,57,55,-113,51,85,33,-32,-71,-76
0,-114,-115,57,56,-114,54,88,34,-30,-70,-75
0,-113,-114,57,55,-113,55,89,34,-28,-69,-74
-3,-112,-111,58,53,-112,56,90,34,-27,-69,-74
-5,-113,-110,59,52,-112,58,93,34,-27,-68,-75
-6,-114,-110,60,52,-113,61,96,34,-28,-68,-76
-6,-116,-111,61,52,-114,64,98,34,-29,-68,-75
-5,-116,-112,60,54,-114,67,103,35,-29,-67,-74
-4,-116,-113,60,54,-115,73,111,36,-29,-67,-73
-5,-118,-113,61,53,-116,78,117,38,-29,-67,-73
-6,-119,-114,62,53,-116,80,121,37,-29,-67,-73
-5,-119,-114,62,53,-117,82,123,34,-30,-67,-74
-5,-118,-114,62,53,-116,82,122,31,-31,-66,-73
-5,-117,-114,61,54,-116,82,120,29,-31,-64,-71
-5,-118,-114,61,54,-117,83,120,26,-32,-62,-70
-3,-118,-116,61,56,-118,84,120,23,-34,-61,-68
-2,-118,-117,60,58,-118,85,120,20,-33,-59,-68
-2,-117,-116,59,56,-116,85,118,17,-30,-56,-66
-2,-116,-115,59,55,-115,83,116,16,-28,-54,-64
-1,-116,-115,58,55,-115,82,115,16,-29,-54,-63
-1,-115,-114,57,55,-114,81,113,17,-29,-54,-62
-2,-113,-113,57,55,-113,78,111,17,-27,-53,-60
-1,-113,-112,57,55,-113,74,106,17,-25,-51,-59
1,-110,-113,54,57,-112,69,99,18,-23,-50,-59
3,-106,-110,51,56,-108,63,94,20,-20,-48,-57
2,-101,-104,49,52,-103,57,90,22,-16,-44,-54
2,-98,-102,47,51,-99,50,86,23,-12,-41,-51
1,-96,-99,47,49,-97,44,82,23,-11,-38,-47
0,-94,-95,46,47,-94,40,78,24,-9,-33,-43
0,-90,-92,45,45,-90,33,74,26,-5,-28,-39
0,-86,-88,43,44,-87,26,68,26,-1,-23,-36
2,-82,-85,41,43,-84,20,62,25,0,-21,-35
3,-79,-84,38,44,-82,15,57,24,0,-21,-34
4,-78,-83,36,43,-81,12,54,24,0,-19,-32
4,-77,-82,35,42,-79,9,50,23,0,-17,-31
3,-75,-79,35,41,-76,6,45,22,2,-16,-29
0,-74,-74,36,37,-74,5,41,21,3,-13,-26
-1,-71,-71,36,34,-71,4,39,21,6,-10,-23
2,-65,-69,32,35,-67,2,38,20,9,-5,-19
2,-62,-65,29,33,-63,1,35,18,12,-1,-16
-1,-60,-59,30,28,-60,-1,30,15,13,2,-14
-4,-58,-55,30,24,-57,-3,25,12,11,3,-11
-3,-55,-52,28,23,-54,-6,21,11,7,3,-10
-2,-52,-52,27,24,-52,-9,17,9,4,3,-8
-1,-50,-50,25,23,-49,-12,11,6,6,7,-5
-2,-46,-44,24,21,-45,-13,8,5,10,14,1
-3,-42,-40,23,18,-41,-14,6,6,14,19,6
-3,-40,-37,21,16,-39,-17,2,5,16,22,7
-2,-38,-36,20,16,-38,-18,0,3,17,24,8
-3,-36,-34,19,15,-35,-19,-2,2,18,25,10
-6,-35,-30,19,12,-33,-19,-5,1,19,27,11
-7,-35,-29,20,10,-31,-19,-8,1,19,27,12
-7,-34,-27,20,8,-30,-21,-10,0,20,28,13
-8,-31,-23,19,7,-27,-22,-13,-1,23,31,15
-10,-27,-18,19,3,-23,-24,-16,-3,26,33,17
-12,-24,-13,18,0,-18,-26,-20,-6,26,36,20
-10,-19,-10,15,0,-15,-30,-24,-10,26,39,22
-8,-14,-7,11,-1,-11,-33,-27,-13,24,40,25
-8,-9,-2,8,-4,-6,-34,-29,-14,24,41,28
-10,-6,2,7,-7,-2,-34,-31,-15,25,44,32
-13,-5,5,8,-10,0,-35,-34,-15,27,48,36
-13,-4,8,8,-12,3,-36,-35,-14,32,52,40
-13,-3,9,8,-12,3,-37,-36,-14,35,54,42
-13,-3,8,8,-11,3,-37,-37,-14,37,56,42
-13,-1,11,7,-13,5,-36,-36,-12,39,58,44
-16,0,15,7,-17,8,-36,-37,-13,38,58,44
-19,0,17,9,-19,8,-37,-39,-14,36,56,42
-21,0,19,10,-21,9,-37,-41,-13,35,53,39
-22,0,20,10,-22,10,-36,-41,-11,35,51,38
-20,0,19,10,-20,10,-36,-43,-9,36,50,38
-21,0,20,11,-21,10,-35,-44,-7,40,52,40
-27,-1,24,14,-26,12,-34,-44,-6,45,54,41
-28,0,26,15,-28,13,-35,-46,-8,48,56,42
-25,3,27,12,-27,14,-38,-48,-10,49,58,42
-28,6,32,11,-31,19,-39,-49,-11,51,61,45
-29,8,35,10,-32,21,-38,-51,-12,51,62,47
-25,10,32,7,-29,21,-38,-52,-13,47,61,47
-23,12,34,5,-30,23,-37,-52,-12,44,60,48
-27,12,38,7,-34,25,-35,-52,-11,43,61,48
-29,10,38,9,-35,24,-33,-54,-10,43,60,47
-30,8,37,11,-34,22,-33,-55,-10,45,59,46
-31,8,38,12,-36,21,-33,-55,-9,49,59,46
-31,9,38,11,-36,22,-33,-54,-5,53,61,47
-31,9,38,10,-36,23,-32,-54,-2,55,62,47
-33,9,40,11,-37,24,-31,-54,-1,55,61,47
-33,8,40,12,-37,24,-31,-56,-2,56,61,47
-31,8,39,11,-36,24,-31,-58,-3,58,61,48
-31,9,40,10,-36,25,-31,-58,-5,58,62,48
-32,9,42,12,-38,25,-30,-55,-6,56,62,47
-34,9,43,12,-39,25,-27,-54,-6,52,61,46
-35,9,44,12,-41,26,-25,-53,-5,51,61,46
-38,10,47,13,-44,28,-24,-53,-3,53,62,47
-40,9,48,15,-45,28,-23,-53,-1,57,63,48
-40,8,46,15,-44,28,-22,-52,-2,58,64,49
-39,8,45,14,-43,27,-22,-52,-4,56,63,48
-36,8,44,12,-40,26,-22,-51,-6,53,61,48
-34,8,41,12,-38,25,-20,-51,-7,49,59,47
-33,6,40,13,-37,23,-17,-49,-7,45,57,45
-35,5,40,14,-39,22,-14,-46,-7,44,55,42
-37,4,40,16,-40,21,-14,-47,-7,45,55,42
-37,3,39,16,-39,20,-16,-48,-9,46,55,42
-38,2,38,17,-39,20,-15,-47,-9,46,55,43
-40,0,38,19,-40,19,-14,-47,-10,43,53,42
-38,-3,34,20,-36,15,-14,-49,-12,41,50,39
-35,-4,30,18,-33,13,-14,-48,-12,43,50,39
-33,-5,28,18,-32,11,-14,-48,-12,44,50,39
-31,-5,25,17,-29,9,-14,-49,-15,42,48,37
-31,-5,24,18,-29,9,-14,-49,-17,35,44,33
-34,-8,24,22,-31,7,-11,-47,-20,31,40,29
-37,-14,21,25,-30,3,-9,-47,-22,31,38,27
-37,-19,18,27,-28,0,-8,-47,-23,30,38,26
-39,-20,18,29,-29,-1,-6,-45,-23,28,39,28
-39,-19,20,28,-30,0,-5,-43,-24,27,41,30
-38,-18,20,28,-30,0,-5,-43,-26,25,42,32
-42,-19,23,30,-33,1,-5,-44,-29,25,43,33
-44,-20,23,32,-35,1,-3,-44,-29,25,43,32
-40,-22,16,31,-29,-3,-2,-42,-29,24,39,29
-36,-25,10,30,-24,-7,-1,-40,-29,23,36,25
-36,-26,8,30,-23,-8,0,-39,-29,21,35,25
-34,-26,7,29,-22,-8,1,-39,-31,19,34,24
-32,-26,7,28,-21,-9,2,-37,-31,18,34,24
-34,-28,7,30,-21,-10,2,-36,-29,19,34,25
-34,-30,4,31,-20,-13,2,-36,-30,20,32,23
-34,-29,3,30,-20,-13,4,-36,-31,21,32,23
-34,-28,4,30,-20,-12,5,-34,-30,21,33,24
-33,-29,1,31,-19,-14,5,-33,-31,18,31,22
-31,-31,-1,30,-16,-16,5,-33,-31,15,27,19
-32,-33,-1,32,-17,-16,5,-31,-30,14,26,19
-35,-35,0,35,-19,-17,7,-30,-30,15,27,19
-37,-37,0,37,-19,-18,7,-29,-30,15,27,19
-36,-37,0,36,-19,-18,7,-28,-32,13,27,19
-35,-35,-1,35,-18,-19,8,-28,-33,13,27,19
-35,-35,-1,35,-18,-19,9,-28,-34,13,27,19
-36,-34,0,35,-19,-17,9,-30,-36,12,28,19
-35,-32,1,33,-19,-16,8,-31,-37,11,28,20
-33,-31,1,32,-19,-15,8,-30,-35,12,29,21
-35,-34,1,34,-19,-16,10,-27,-33,14,30,22
-37,-36,0,36,-19,-18,10,-26,-32,15,29,21
-35,-38,-2,36,-17,-20,10,-26,-33,13,27,19
-33,-39,-6,35,-14,-22,11,-25,-35,11,26,18
-33,-40,-7,36,-14,-24,11,-25,-36,9,26,17
-35,-42,-7,38,-15,-25,12,-25,-36,9,25,15
-35,-43,-8,39,-14,-26,13,-25,-36,7,22,13
-34,-43,-9,38,-13,-26,13,-24,-34,6,21,13
-33,-43,-9,37,-13,-26,13,-23,-33,8,21,14
-34,-43,-8,38,-14,-25,13,-23,-34,10,22,15
-34,-42,-7,37,-15,-24,12,-24,-33,13,24,17
-32,-40,-7,36,-13,-24,12,-25,-33,14,26,18
-29,-39,-10,34,-10,-25,11,-25,-34,11,27,18
-29,-41,-11,35,-9,-27,11,-24,-36,6,26,18
-32,-42,-11,37,-11,-27,13,-24,-37,3,24,15
-32,-42,-10,37,-12,-26,14,-24,-36,3,22,14
-32,-42,-10,36,-12,-26,13,-25,-35,7,23,13
-31,-41,-11,35,-11,-26,12,-26,-34,12,24,13
-30,-41,-11,34,-11,-26,10,-27,-34,16,27,15
-31,-39,-7,34,-13,-24,10,-28,-35,17,31,18
-32,-33,0,33,-17,-17,8,-32,-36,17,36,23
-34,-27,7,31,-22,-10,5,-35,-35,18,42,30
-35,-22,13,29,-25,-5,4,-37,-32,22,47,36
-33,-18,14,25,-25,-1,2,-37,-29,28,53,41
-33,-16,16,24,-26,0,1,-38,-27,35,58,45
-33,-16,16,23,-26,0,0,-41,-28,39,62,47
-31,-13,16,21,-25,2,-3,-46,-33,38,63,49
-30,-9,21,18,-27,6,-5,-50,-36,36,65,51
-31,-3,28,17,-31,12,-7,-52,-37,35,67,55
-32,3,35,14,-35,18,-9,-56,-38,37,71,60
-29,9,39,10,-35,23,-12,-60,-38,38,75,65
-29,9,38,10,-34,23,-13,-61,-39,40,75,65
-33,2,35,15,-35,18,-11,-60,-40,38,69,60
-34,-6,27,19,-31,10,-8,-56,-41,33,59,50
-29,-17,10,21,-21,-3,-2,-49,-42,21,41,33
-25,-30,-5,26,-11,-18,5,-41,-44,6,21,16
-25,-41,-16,32,-6,-29,10,-35,-46,-5,5,2
-22,-50,-27,36,1,-39,14,-31,-48,-14,-7,-8
-18,-61,-42,39,11,-52,18,-25,-48,-22,-16,-17
-15,-71,-56,43,18,-64,23,-17,-49,-30,-23,-24
-15,-80,-66,47,24,-73,26,-10,-51,-37,-27,-30
-15,-89,-74,51,28,-82,29,-4,-52,-40,-32,-36
-16,-94,-79,54,30,-86,33,2,-50,-40,-36,-41
-13,-96,-83,54,33,-90,37,8,-45,-40,-39,-45
-6,-99,-92,52,41,-96,37,12,-40,-42,-45,-51
0,-101,-100,51,48,-102,39,16,-34,-42,-48,-53
0,-105,-104,53,50,-105,42,23,-26,-36,-46,-53
0,-106,-104,54,51,-106,44,28,-17,-25,-42,-52
0,-104,-104,52,51,-105,46,30,-11,-15,-36,-51
1,-104,-105,50,52,-104,46,32,-6,-10,-34,-51
0,-105,-105,51,52,-105,47,37,0,-9,-34,-52
0,-105,-105,51,51,-105,48,43,5,-10,-36,-53
3,-103,-104,49,52,-104,50,47,9,-10,-37,-52
4,-101,-105,49,53,-104,51,50,11,-9,-37,-52
4,-104,-108,50,55,-107,53,52,14,-8,-38,-53
5,-107,-112,51,57,-110,55,59,21,-6,-38,-55
5,-108,-114,51,59,-112,59,65,26,-4,-38,-56
5,-110,-116,51,60,-113,60,67,25,-6,-38,-58
7,-110,-118,50,61,-114,60,68,22,-8,-37,-59
8,-109,-117,48,61,-113,61,70,22,-7,-33,-57
8,-107,-115,48,60,-111,62,72,24,-7,-30,-54
8,-106,-113,48,58,-110,64,75,25,-9,-30,-53
9,-106,-114,48,60,-110,65,77,26,-8,-30,-53
10,-106,-115,48,61,-111,66,79,30,-4,-30,-52
10,-106,-116,48,62,-111,69,82,33,-1,-28,-51
10,-105,-116,46,62,-110,71,85,34,-1,-27,-50
9,-105,-114,46,61,-109,73,87,33,-2,-27,-50
6,-105,-111,48,57,-108,74,88,32,-3,-26,-50
4,-105,-110,49,55,-108,75,89,31,-5,-26,-49
7,-103,-109,47,56,-107,77,92,31,-7,-26,-47
7,-101,-106,46,55,-104,81,96,33,-8,-24,-45
4,-100,-103,48,52,-102,85,101,36,-4,-21,-41
3,-101,-104,48,53,-103,87,103,38,0,-19,-40
5,-102,-108,48,56,-105,90,107,39,3,-17,-39
10,-103,-114,45,60,-108,92,111,39,4,-17,-39
13,-102,-116,43,63,-109,94,114,37,3,-17,-39
15,-102,-117,42,65,-110,94,116,35,-1,-17,-39
16,-103,-118,42,65,-111,95,117,34,-5,-19,-41
14,-103,-116,43,64,-110,97,117,33,-7,-20,-41
14,-102,-115,43,64,-109,98,118,33,-9,-21,-41
16,-103,-118,43,66,-111,98,119,32,-9,-23,-43
15,-106,-122,44,67,-114,100,119,30,-9,-24,-44
15,-108,-124,45,69,-116,101,117,26,-9,-23,-43
18,-106,-125,43,70,-116,100,115,23,-9,-21,-40
20,-103,-124,41,71,-114,96,112,20,-7,-16,-37
21,-99,-120,38,69,-110,92,108,19,-4,-12,-33
21,-95,-116,36,68,-107,90,105,19,-3,-8,-29
21,-94,-114,36,66,-105,87,103,21,-3,-7,-27
22,-92,-114,34,67,-103,82,100,25,-2,-8,-25
25,-89,-114,31,69,-102,76,96,29,2,-7,-24
27,-86,-113,29,69,-99,70,92,31,8,-5,-22
27,-81,-109,26,67,-95,63,87,31,11,-2,-20
28,-76,-104,23,65,-90,56,82,30,11,2,-18
29,-72,-102,21,64,-87,51,77,30,10,4,-16
30,-71,-101,20,64,-86,46,73,31,8,4,-15
30,-70,-99,19,63,-85,42,69,32,9,5,-13
29,-68,-96,19,61,-82,38,66,34,13,8,-10
29,-67,-95,18,60,-81,33,63,34,17,10,-9
30,-65,-95,17,60,-80,28,59,34,19,11,-8
29,-62,-92,15,58,-77,24,55,35,20,13,-6
29,-58,-87,13,56,-73,21,52,35,20,16,-3
29,-54,-85,11,55,-69,17,49,34,21,18,0
30,-51,-81,9,55,-66,15,46,34,23,21,2
30,-48,-78,8,54,-63,15,43,32,25,24,4
30,-45,-75,7,52,-60,14,41,31,26,26,7
29,-42,-70,5,49,-57,12,38,29,27,29,9
28,-39,-67,4,46,-53,10,34,28,27,31,11
27,-35,-62,3,42,-48,7,31,26,28,33,14
25,-31,-56,3,38,-44,5,29,26,30,36,17
25,-29,-55,1,38,-42,3,25,25,30,39,20
29,-26,-55,-2,41,-42,0,21,23,30,40,22
31,-22,-54,-6,42,-39,-2,17,21,31,43,25
30,-20,-50,-7,39,-36,-3,15,19,33,47,29
28,-16,-44,-7,35,-31,-4,13,19,35,50,32
25,-13,-38,-7,30,-26,-4,11,18,37,52,34
26,-9,-35,-9,29,-22,-6,8,17,37,53,37
29,-5,-35,-12,30,-21,-9,5,16,37,54,38
28,-3,-33,-13,29,-18,-12,2,14,37,56,41
25,-1,-28,-13,26,-15,-14,0,14,39,59,44
24,2,-24,-15,23,-11,-15,-2,12,41,62,46
25,5,-21,-16,22,-8,-16,-5,11,41,64,49
25,8,-17,-18,19,-4,-17,-7,10,43,67,52
23,11,-11,-18,15,0,-17,-8,10,44,68,54
21,13,-6,-17,11,4,-17,-10,9,45,69,57
19,16,-2,-17,9,6,-19,-12,8,46,70,59
19,18,0,-18,8,8,-20,-14,8,46,71,60
18,20,0,-20,8,10,-22,-16,7,47,71,61
18,21,2,-21,7,11,-24,-18,7,48,73,63
19,23,3,-23,7,13,-24,-19,6,49,74,64
20,25,4,-24,7,14,-25,-21,5,49,75,65
20,27,7,-25,5,16,-26,-22,5,49,75,66
18,28,10,-24,2,19,-26,-22,5,50,76,67
16,29,15,-23,-1,22,-26,-22,6,52,76,69
14,30,17,-23,-3,23,-27,-24,6,52,76,69
14,31,16,-24,-2,23,-28,-26,5,52,76,69
14,33,17,-25,-2,24,-29,-29,5,53,77,70
15,34,19,-25,-2,25,-29,-30,5,53,78,71
15,35,20,-26,-3,27,-29,-30,6,54,78,73
14,37,22,-26,-5,29,-29,-30,7,55,78,73
13,37,25,-26,-7,31,-29,-29,7,55,78,73
12,37,26,-26,-9,32,-29,-29,7,56,78,73
12,39,29,-26,-10,34,-29,-29,8,56,78,74
10,40,31,-26,-12,35,-29,-29,9,57,78,75
8,41,33,-25,-14,36,-28,-28,11,59,79,76
5,41,37,-24,-16,38,-27,-28,14,61,80,78
4,42,37,-24,-17,39,-26,-28,14,61,80,78
6,42,36,-26,-16,39,-27,-28,14,60,79,78
6,43,37,-26,-16,40,-27,-28,14,61,79,78
6,43,38,-26,-18,41,-26,-27,15,61,79,78
8,43,36,-27,-16,40,-26,-28,15,60,77,77
9,42,33,-27,-14,37,-26,-28,15,60,76,76
7,41,34,-25,-15,37,-24,-27,16,61,76,76
5,41,35,-24,-16,37,-23,-28,16,60,75,76
5,41,34,-24,-15,37,-22,-28,14,59,74,76
4,40,36,-24,-17,38,-21,-27,14,57,73,76
1,41,40,-22,-20,40,-19,-26,14,57,73,76
0,40,41,-21,-22,41,-17,-25,14,57,73,75
0,39,40,-20,-22,39,-16,-25,13,55,71,74
0,38,39,-20,-21,37,-15,-25,11,53,69,73
1,36,35,-20,-18,34,-16,-25,10,51,66,70
2,35,32,-20,-16,32,-15,-25,9,49,64,69
0,34,32,-19,-17,32,-15,-26,7,48,63,69
-1,33,32,-18,-17,32,-15,-27,5,46,62,68
-1,31,31,-16,-17,31,-15,-27,4,44,60,66
-1,30,31,-15,-17,31,-14,-27,2,42,59,65
-2,27,31,-13,-18,29,-13,-27,1,40,57,63
-4,26,31,-12,-19,28,-12,-27,0,38,55,62
-3,24,29,-12,-17,26,-12,-27,-2,36,53,60
-2,23,25,-12,-15,24,-11,-28,-4,33,51,58
-2,21,23,-11,-14,21,-9,-28,-5,32,49,57
-4,19,21,-9,-14,20,-8,-27,-7,30,48,56
-5,17,21,-7,-15,19,-6,-27,-8,29,47,55
-4,15,20,-6,-14,18,-5,-26,-9,27,45,53
-3,13,17,-6,-12,15,-4,-26,-10,25,44,50
-3,12,16,-6,-11,14,-4,-25,-11,23,42,48
-4,11,16,-5,-11,12,-4,-24,-12,22,40,47
-5,10,14,-4,-11,10,-2,-23,-12,21,39,45
-5,8,12,-2,-11,9,-1,-21,-12,21,38,44
-6,7,11,-1,-11,8,0,-21,-12,20,37,43
-5,5,9,-1,-9,6,1,-21,-13,18,36,42
-3,5,7,-1,-6,5,1,-21,-15,17,35,40
-2,3,6,-1,-5,4,1,-21,-15,16,33,38
-3,2,6,0,-5,4,1,-20,-15,16,32,36
-4,2,6,0,-6,3,2,-20,-15,15,31,35
-4,1,5,0,-7,2,3,-20,-16,14,30,33
-4,1,5,0,-6,2,4,-20,-16,13,29,33
-3,1,4,0,-6,1,5,-19,-16,12,28,32
-4,0,3,1,-6,0,5,-18,-17,12,28,31
-5,-2,3,2,-6,0,5,-18,-17,11,27,30
-4,-3,1,3,-4,-1,6,-18,-18,9,25,28
-3,-4,0,3,-3,-2,6,-18,-19,8,24,26
-3,-5,-1,3,-3,-4,6,-18,-19,7,23,25
-4,-5,-1,3,-3,-4,7,-17,-19,7,22,24
-4,-5,-2,3,-3,-4,7,-17,-19,7,22,24
-4,-5,-2,4,-3,-5,7,-16,-19,7,21,24
-6,-6,-1,5,-4,-5,8,-15,-19,7,22,24
-6,-7,-1,5,-4,-5,9,-14,-19,7,22,24
-6,-7,-1,6,-4,-5,9,-14,-19,7,21,23
-8,-8,0,7,-6,-5,11,-13,-18,7,21,23
-10,-9,0,8,-7,-5,12,-13,-18,7,21,22
-9,-10,-1,8,-6,-6,12,-13,-19,5,19,21
-7,-11,-3,8,-4,-8,12,-13,-19,4,18,20
-7,-11,-4,8,-3,-8,12,-13,-19,4,17,20
-7,-11,-4,8,-3,-8,13,-13,-20,4,17,19
-6,-12,-5,8,-2,-9,13,-12,-20,4,17,19
-7,-12,-5,8,-2,-9,13,-11,-20,4,17,18
-8,-14,-6,10,-2,-11,14,-11,-21,3,16,17
-7,-15,-8,10,-1,-12,14,-10,-21,2,15,16
-6,-15,-9,10,0,-13,14,-10,-21,2,15,15
-7,-15,-8,10,-1,-13,14,-10,-21,2,14,15
-7,-15,-8,10,-1,-13,14,-10,-21,2,14,15
-7,-15,-8,10,-1,-12,13,-11,-21,2,14,16
-7,-14,-7,10,-1,-11,12,-12,-21,3,15,16
-7,-13,-6,9,-1,-10,11,-13,-22,3,16,17
-7,-12,-4,8,-3,-9,11,-14,-22,4,17,18
-7,-11,-3,8,-4,-8,11,-15,-22,6,20,20
-8,-8,0,7,-6,-5,9,-17,-22,9,24,23
-7,-4,3,5,-7,-1,6,-20,-22,13,28,27
-7,0,7,3,-9,2,4,-23,-21,17,33,31
-7,4,11,1,-11,6,1,-26,-21,20,38,35
-6,7,14,-1,-12,10,-1,-30,-22,22,42,39
-6,11,18,-4,-13,14,-4,-34,-24,23,46,43
-7,15,24,-5,-17,19,-6,-37,-25,25,49,47
-9,19,29,-6,-20,23,-7,-40,-26,27,52,51
-9,22,33,-7,-22,27,-9,-44,-28,27,55,54
-8,27,37,-10,-24,31,-12,-49,-32,27,56,58
-8,31,40,-12,-26,35,-15,-53,-36,27,57,60
-10,31,41,-11,-27,35,-15,-55,-38,25,56,59
-10,27,37,-9,-25,31,-14,-53,-38,22,49,54
-9,18,27,-6,-19,23,-9,-48,-37,16,38,43
-8,5,14,0,-13,10,-2,-39,-36,6,22,28
-8,-9,0,7,-6,-4,5,-31,-36,-5,4,11
-9,-21,-11,14,-1,-16,11,-26,-38,-16,-10,-2
-11,-32,-19,21,2,-26,16,-19,-39,-25,-21,-13
-10,-43,-31,26,8,-38,22,-11,-39,-32,-31,-22
-2,-53,-49,27,21,-51,24,-5,-39,-39,-39,-31
4,-60,-64,27,32,-62,25,0,-40,-45,-46,-38
7,-66,-74,28,39,-71,28,5,-39,-48,-51,-44
8,-73,-82,31,43,-78,32,12,-35,-49,-55,-50
9,-79,-89,33,47,-84,36,18,-29,-48,-59,-54
11,-85,-95,35,51,-90,39,24,-23,-46,-61,-58
11,-88,-99,37,54,-94,42,30,-15,-43,-61,-60
12,-90,-101,38,54,-96,44,35,-8,-38,-60,-62
12,-90,-101,38,54,-96,45,38,-2,-32,-59,-61
15,-89,-104,37,57,-97,44,40,4,-27,-59,-61
18,-89,-108,34,61,-99,44,42,9,-22,-59,-61
19,-89,-109,33,62,-99,45,46,14,-19,-57,-61
19,-89,-108,33,62,-98,46,50,17,-18,-57,-60
19,-89,-108,34,62,-99,48,53,17,-20,-57,-60
19,-90,-109,34,62,-100,50,56,16,-24,-57,-61
19,-90,-109,34,62,-100,52,59,18,-24,-58,-62
19,-90,-109,35,62,-100,54,64,23,-22,-57,-62
18,-90,-109,35,62,-100,56,67,27,-20,-57,-61
20,-91,-111,35,64,-101,57,69,29,-20,-57,-61
21,-92,-113,35,65,-103,58,72,32,-18,-56,-61
20,-93,-113,36,65,-103,60,76,36,-17,-55,-61
19,-93,-112,36,65,-103,62,78,38,-17,-54,-60
19,-93,-111,36,63,-103,63,81,39,-17,-52,-60
19,-93,-110,36,62,-102,64,84,41,-16,-51,-60
18,-93,-110,35,62,-102,66,86,43,-14,-50,-58
17,-92,-108,36,60,-102,67,88,45,-13,-49,-57
15,-92,-107,37,59,-100,69,90,45,-13,-48,-55
15,-92,-108,37,60,-100,70,92,45,-14,-48,-56
18,-92,-110,36,62,-101,71,93,44,-15,-48,-56
19,-92,-110,36,63,-101,72,95,44,-15,-48,-56
18,-92,-110,36,62,-101,74,97,45,-14,-47,-56
18,-92,-110,36,61,-101,77,100,46,-14,-47,-56
17,-92,-108,36,61,-101,79,104,46,-14,-47,-54
16,-92,-108,36,61,-101,82,109,47,-13,-47,-52
16,-94,-109,36,61,-102,85,115,49,-13,-47,-52
16,-95,-110,38,62,-103,87,118,50,-14,-47,-51
15,-96,-110,40,61,-103,89,122,50,-15,-46,-51
11,-97,-109,43,59,-103,92,125,50,-15,-46,-50
9,-99,-107,44,57,-103,94,125,49,-16,-44,-49
12,-99,-110,43,60,-105,93,123,45,-18,-44,-49
16,-99,-114,40,63,-107,92,123,41,-20,-44,-49
18,-99,-117,38,65,-109,94,125,39,-21,-46,-48
18,-99,-116,39,65,-108,95,126,37,-21,-45,-46
18,-98,-115,39,65,-107,95,125,35,-21,-44,-44
20,-97,-116,38,67,-107,92,122,33,-23,-45,-43
21,-96,-117,37,68,-107,90,120,33,-24,-45,-42
21,-96,-116,37,67,-107,88,118,33,-22,-44,-41
22,-94,-115,35,67,-105,85,115,33,-20,-42,-40
22,-93,-114,34,66,-104,80,110,33,-18,-40,-38
24,-90,-113,31,66,-102,74,104,34,-16,-37,-37
26,-85,-111,28,67,-99,66,97,34,-15,-35,-35
27,-81,-108,25,66,-95,60,92,34,-13,-33,-33
25,-78,-102,25,63,-91,54,88,35,-11,-30,-29
23,-74,-97,25,59,-86,48,84,37,-8,-28,-24
24,-71,-94,23,58,-83,43,79,38,-5,-25,-20
27,-68,-93,20,59,-81,36,73,38,-3,-22,-19
28,-66,-92,18,58,-79,30,68,37,-2,-21,-18
28,-63,-90,16,58,-77,25,64,38,-1,-18,-16
28,-60,-87,15,55,-74,21,60,38,0,-15,-12
26,-58,-83,15,53,-71,17,55,37,1,-13,-9
26,-55,-79,14,51,-67,13,51,36,1,-10,-6
24,-52,-74,14,47,-63,11,49,36,3,-8,-3
21,-50,-69,14,43,-59,10,46,36,5,-7,-2
21,-48,-67,12,43,-58,8,43,34,5,-5,0
23,-46,-67,10,43,-57,6,40,33,5,-4,1
23,-44,-67,9,43,-56,4,36,30,4,-3,2
23,-41,-64,7,42,-53,2,32,28,2,-1,3
22,-37,-60,7,40,-50,0,27,25,2,0,6
22,-34,-56,6,37,-46,-3,22,22,2,3,8
22,-30,-50,5,35,-41,-5,19,21,4,6,12
21,-27,-45,4,32,-37,-7,16,20,5,9,15
20,-25,-43,3,30,-35,-8,14,20,5,11,17
20,-23,-42,1,29,-33,-10,11,20,8,14,18
19,-21,-39,0,27,-30,-12,9,19,11,16,20
18,-18,-37,-1,26,-28,-14,7,17,12,18,22
18,-16,-34,-2,24,-25,-17,2,13,11,19,24
16,-12,-29,-2,21,-21,-19,-2,11,11,20,26
12,-9,-20,0,15,-15,-20,-4,11,12,23,29
11,-7,-15,-1,12,-11,-21,-6,10,12,24,30
13,-6,-16,-3,13,-11,-23,-8,10,12,24,32
12,-4,-14,-5,11,-9,-24,-10,9,13,24,35
11,-2,-12,-5,10,-7,-25,-12,6,13,26,37
12,0,-12,-8,10,-6,-27,-15,4,12,27,37
12,3,-9,-9,9,-3,-29,-17,2,12,27,38
12,6,-6,-9,7,0,-31,-20,1,14,28,40
12,9,-2,-10,5,3,-32,-23,0,15,30,42
10,11,4,-10,1,8,-32,-25,0,15,32,45
6,12,8,-9,-2,10,-32,-25,0,15,33,46
6,12,9,-10,-3,11,-32,-27,-1,15,35,46
6,13,9,-11,-3,11,-33,-28,-2,15,36,45
4,14,11,-11,-5,12,-35,-29,-2,15,37,45
4,15,11,-11,-5,13,-36,-31,-2,15,36,45
7,17,10,-13,-3,13,-39,-35,-3,15,34,44
8,19,13,-13,-3,15,-41,-37,-4,16,33,45
5,21,18,-12,-7,19,-40,-37,-3,18,33,46
2,21,21,-11,-10,20,-40,-39,-3,18,31,45
2,21,22,-12,-11,21,-40,-39,-3,18,30,45
1,21,22,-12,-12,22,-40,-39,-3,18,29,44
1,23,23,-13,-12,23,-40,-39,-3,18,29,42
0,23,23,-13,-13,23,-39,-40,-3,17,29,41
-1,24,26,-12,-15,24,-39,-41,-2,17,28,41
-3,26,30,-12,-17,27,-39,-42,-1,18,27,41
-3,28,32,-12,-19,29,-40,-45,-1,19,27,43
-4,28,34,-13,-20,31,-40,-47,-1,19,26,43
-5,28,36,-12,-22,32,-40,-47,0,20,26,43
-7,28,37,-12,-24,33,-39,-47,2,22,29,43
-8,27,37,-11,-25,32,-39,-47,4,25,31,45
-9,27,37,-11,-25,32,-39,-48,5,26,33,45
-9,29,38,-11,-26,33,-39,-49,5,26,32,44
-8,30,39,-11,-25,33,-39,-50,4,24,31,43
-7,30,39,-11,-25,34,-38,-51,3,24,31,42
-10,30,42,-9,-28,35,-36,-50,4,26,31,42
-13,29,44,-8,-30,36,-35,-50,5,25,30,41
-12,28,42,-8,-29,35,-35,-50,6,25,29,40
-10,29,41,-10,-27,35,-35,-51,6,25,28,39
-12,29,41,-9,-28,34,-33,-50,5,25,28,39
-14,29,43,-8,-30,35,-31,-48,5,25,28,40
-14,29,44,-8,-30,35,-29,-48,6,23,28,40
-13,28,42,-8,-28,34,-29,-48,5,21,27,39
-12,27,40,-8,-27,33,-28,-48,3,19,25,37
-10,26,38,-8,-26,32,-28,-48,2,19,24,34
-10,24,36,-7,-24,30,-27,-46,2,18,22,33
-13,21,35,-5,-26,28,-26,-46,0,16,21,33
-15,19,36,-2,-28,28,-25,-47,-1,15,21,33
-17,18,36,-1,-28,26,-24,-47,-2,14,19,33
-17,17,35,0,-27,25,-23,-46,-3,12,17,31
-16,16,33,0,-26,23,-23,-47,-4,9,15,29
-16,14,32,0,-26,22,-23,-49,-6,6,13,28
-19,13,34,3,-28,22,-22,-48,-6,5,12,27
-20,11,33,4,-29,21,-20,-48,-6,3,10,27
-17,9,29,4,-25,18,-20,-48,-9,0,7,24
-13,7,22,2,-19,14,-20,-48,-13,-2,4,22
-11,6,18,2,-17,12,-20,-47,-16,-3,2,20
-14,4,19,4,-18,11,-18,-46,-16,-3,2,19
-16,3,21,5,-19,11,-17,-46,-15,-4,1,19
-17,3,21,5,-20,11,-16,-46,-14,-6,2,19
-18,2,21,7,-21,10,-16,-45,-14,-6,4,17
-19,0,21,9,-22,9,-14,-43,-14,-6,3,17
-18,-2,18,9,-20,7,-13,-42,-15,-7,1,17
-16,-4,14,9,-17,4,-13,-41,-16,-8,0,16
-16,-5,12,10,-16,2,-12,-40,-16,-10,-2,15
-16,-5,11,10,-15,2,-11,-39,-16,-11,-2,13
-16,-5,11,10,-15,1,-10,-39,-17,-11,-2,12
-16,-5,11,10,-15,1,-9,-38,-18,-12,-3,12
-17,-6,11,11,-16,1,-9,-37,-18,-13,-3,10
-18,-7,11,12,-16,0,-8,-37,-20,-15,-5,10
-18,-9,10,13,-15,0,-8,-36,-21,-16,-7,11
-16,-10,8,13,-14,-2,-8,-35,-22,-18,-8,10
-15,-11,5,13,-12,-3,-8,-35,-22,-18,-8,6
-15,-11,4,13,-11,-3,-8,-35,-23,-18,-9,4
-17,-12,6,14,-13,-3,-7,-35,-24,-18,-9,6
-19,-13,6,16,-14,-4,-6,-35,-24,-19,-10,8
-19,-14,5,16,-13,-5,-6,-34,-24,-20,-12,8
-17,-13,4,14,-11,-6,-6,-34,-24,-21,-12,7
-16,-13,4,14,-11,-6,-6,-34,-23,-20,-12,8
-18,-14,5,15,-13,-5,-5,-32,-21,-19,-12,8
-20,-16,5,17,-14,-5,-3,-30,-19,-18,-10,9
-22,-16,6,18,-15,-5,-3,-30,-19,-18,-10,8
-22,-16,6,18,-15,-5,-2,-29,-20,-19,-10,7
-22,-16,5,18,-14,-6,-2,-30,-21,-20,-11,5
-22,-17,5,19,-14,-7,-2,-31,-21,-20,-11,5
-22,-17,5,19,-15,-7,-2,-30,-21,-22,-11,5
-21,-18,3,19,-13,-8,-2,-29,-22,-23,-13,4
-21,-19,2,19,-13,-9,-1,-30,-23,-23,-14,3
-21,-20,2,20,-13,-9,-1,-30,-23,-23,-14,2
-21,-20,1,20,-12,-10,-1,-29,-24,-24,-16,2
-20,-20,0,20,-12,-10,-1,-29,-24,-26,-17,2
-20,-20,0,20,-11,-10,-1,-29,-24,-27,-17,2
-20,-21,0,20,-11,-11,0,-29,-24,-24,-17,1
-21,-22,0,21,-11,-12,0,-27,-24,-22,-15,0
-21,-23,-1,21,-11,-12,-1,-26,-24,-23,-16,0
-21,-23,-1,21,-11,-13,-1,-27,-24,-26,-17,1
-23,-23,0,22,-12,-12,-2,-27,-24,-27,-17,2
-24,-22,2,22,-14,-10,-2,-27,-22,-24,-14,4
-25,-21,3,22,-14,-9,-3,-29,-22,-23,-12,5
-24,-21,3,22,-14,-9,-4,-32,-24,-22,-11,5
-23,-19,4,20,-14,-8,-6,-34,-23,-20,-9,7
-22,-15,6,18,-15,-5,-8,-36,-23,-16,-4,10
-24,-11,13,17,-19,0,-10,-37,-23,-12,1,14
-27,-7,20,17,-24,5,-11,-39,-22,-7,6,19
-26,-3,22,14,-25,8,-14,-43,-23,-5,10,23
-21,0,22,10,-23,10,-18,-48,-25,-4,12,27
-20,5,26,7,-25,15,-20,-52,-25,-2,17,31
-23,10,32,6,-29,20,-21,-53,-24,1,22,35
-23,12,36,5,-31,23,-24,-56,-27,2,25,36
-23,15,38,4,-32,26,-27,-61,-32,1,26,39
-25,20,45,2,-36,32,-30,-65,-35,0,28,44
-26,24,51,0,-40,38,-32,-70,-37,0,30,48
-26,24,51,0,-40,38,-33,-72,-37,0,25,47
-24,20,45,1,-36,33,-32,-71,-38,-4,18,40
-22,13,35,3,-30,24,-27,-65,-38,-10,7,29
-23,1,23,10,-25,12,-19,-56,-36,-19,-9,14
-24,-13,10,17,-18,-1,-12,-49,-37,-30,-26,-2
-23,-25,-3,23,-10,-14,-7,-44,-41,-42,-41,-15
-23,-36,-14,28,-5,-25,-3,-37,-43,-52,-53,-25
-23,-47,-23,35,-1,-35,2,-29,-43,-60,-62,-33
-20,-58,-37,38,7,-48,7,-20,-42,-68,-69,-41
-13,-66,-52,38,18,-60,9,-15,-42,-73,-75,-48
-9,-73,-63,39,25,-68,11,-10,-40,-76,-80,-54
-7,-79,-72,41,31,-76,15,-4,-36,-77,-85,-60
-4,-84,-80,42,36,-82,18,1,-31,-75,-86,-65
-3,-88,-84,44,38,-86,21,7,-24,-70,-86,-69
-4,-91,-87,46,40,-90,23,14,-18,-67,-88,-71
-2,-94,-90,47,42,-92,25,19,-12,-64,-88,-73
0,-94,-93,46,45,-94,26,24,-4,-58,-87,-74
1,-93,-94,46,46,-94,27,27,4,-53,-86,-75
2,-93,-95,45,47,-95,27,30,11,-48,-86,-75
4,-93,-96,43,49,-95,27,33,17,-43,-86,-75
5,-92,-97,42,49,-95,28,36,20,-41,-84,-75
5,-93,-98,42,50,-95,28,39,20,-42,-86,-77
4,-94,-98,43,50,-96,30,42,19,-46,-89,-79
4,-95,-98,45,49,-97,32,46,20,-47,-90,-78
3,-95,-98,45,49,-97,35,51,24,-46,-88,-77
3,-96,-99,45,50,-98,37,54,26,-44,-87,-76
4,-97,-101,45,51,-99,37,57,29,-43,-86,-76
4,-97,-102,46,51,-100,39,60,33,-41,-84,-76
2,-97,-100,46,49,-99,40,64,37,-39,-82,-75
2,-97,-99,46,49,-98,41,66,39,-39,-81,-75
4,-97,-100,45,50,-99,43,69,40,-40,-82,-74
5,-96,-100,44,51,-98,44,71,41,-39,-81,-73
4,-95,-99,45,50,-97,45,73,43,-38,-80,-73
4,-95,-99,45,50,-97,47,76,46,-37,-80,-73
4,-95,-100,45,50,-98,48,79,47,-37,-79,-73
3,-96,-99,45,49,-98,50,80,46,-39,-79,-74
0,-96,-96,46,47,-97,52,82,46,-38,-78,-73
0,-95,-96,46,47,-96,53,83,45,-36,-78,-72
4,-94,-99,44,50,-97,53,85,45,-36,-78,-72
7,-94,-101,43,52,-98,54,87,46,-37,-77,-73
5,-95,-100,44,51,-98,56,92,48,-37,-75,-72
3,-96,-99,45,49,-98,61,97,50,-36,-74,-69
2,-97,-100,47,49,-99,65,103,51,-36,-75,-66
2,-97,-100,46,50,-99,67,108,53,-35,-75,-64
4,-96,-100,44,51,-99,69,112,53,-35,-74,-64
4,-98,-102,45,51,-101,70,113,51,-37,-74,-65
3,-101,-103,47,51,-102,70,111,47,-40,-75,-66
3,-99,-102,47,51,-101,70,110,43,-42,-75,-64
5,-98,-102,46,52,-101,71,112,42,-41,-73,-62
5,-98,-103,46,53,-101,73,114,41,-42,-73,-62
4,-98,-104,46,53,-102,75,114,38,-45,-74,-62
6,-97,-104,45,54,-102,73,113,36,-44,-71,-62
10,-96,-106,41,57,-102,71,112,36,-43,-69,-62
12,-95,-107,40,58,-102,69,110,36,-42,-68,-61
11,-95,-105,40,57,-100,66,107,36,-41,-66,-59
13,-92,-104,38,57,-98,63,104,36,-39,-64,-57
14,-89,-103,36,57,-97,57,98,36,-37,-62,-56
13,-87,-100,36,55,-94,50,91,38,-33,-59,-54
12,-82,-95,34,52,-90,44,87,39,-29,-58,-49
13,-77,-91,32,51,-86,38,84,40,-27,-56,-45
16,-73,-90,28,52,-83,32,79,40,-26,-54,-43
18,-72,-90,25,53,-81,25,73,39,-26,-53,-42
16,-71,-87,25,50,-79,19,66,39,-26,-51,-40
15,-67,-81,24,46,-75,13,60,42,-22,-47,-36
14,-63,-77,23,44,-71,8,56,44,-18,-43,-32
14,-61,-75,22,43,-69,4,53,43,-17,-40,-31
15,-59,-75,21,43,-67,0,50,41,-17,-38,-29
18,-55,-74,18,45,-65,-5,46,41,-17,-35,-28
19,-51,-72,15,44,-62,-9,43,40,-18,-31,-26
16,-49,-66,15,39,-59,-11,40,40,-17,-29,-24
13,-48,-61,15,36,-56,-13,35,39,-16,-26,-21
15,-46,-60,13,36,-54,-15,31,38,-16,-25,-19
17,-43,-59,12,36,-52,-16,29,36,-16,-26,-16
