leadI,leadII,leadIII,leadaVR,leadaVL,leadaVF,leadV1,leadV2,leadV3,leadV4,leadV5,leadV6
1,0,-1,0,1,-1,-13,2,-1,5,4,1
1,0,-2,0,1,-1,-34,5,-4,12,9,3
1,0,-1,-1,0,0,-46,6,-7,14,11,3
0,2,1,-1,-1,2,-53,5,-10,15,11,3
0,2,2,-1,-1,2,-56,5,-13,14,9,2
1,2,1,-1,0,1,-58,4,-16,13,7,1
1,1,0,-1,0,1,-59,3,-19,12,4,0
0,2,2,-1,-1,1,-60,1,-22,10,1,-1
-1,1,3,0,-2,2,-60,0,-25,8,-1,-3
-3,0,3,1,-3,1,-60,-1,-27,6,-5,-5
-4,-1,2,2,-3,0,-59,-2,-29,4,-7,-6
-5,-3,1,4,-3,-1,-57,-3,-30,2,-9,-6
-5,-4,1,5,-3,-1,-56,-4,-32,1,-11,-7
-5,-4,1,5,-3,-1,-56,-5,-34,0,-13,-8
-5,-4,1,5,-3,-1,-55,-6,-36,-1,-15,-10
-5,-5,0,5,-3,-2,-55,-7,-37,-2,-17,-11
-6,-7,-1,6,-2,-4,-54,-8,-38,-3,-18,-11
-5,-9,-4,6,0,-6,-54,-9,-39,-4,-19,-12
-5,-8,-3,6,0,-5,-54,-10,-40,-5,-21,-13
-5,-7,-1,5,-1,-4,-54,-11,-41,-6,-23,-14
-5,-6,0,5,-2,-3,-53,-12,-41,-7,-24,-14
-6,-6,0,6,-3,-3,-52,-12,-41,-7,-24,-14
-8,-7,0,8,-4,-3,-52,-11,-41,-7,-24,-14
-9,-9,0,9,-4,-4,-51,-11,-41,-7,-25,-15
-9,-11,-2,9,-3,-6,-51,-11,-42,-7,-26,-15
-9,-12,-4,10,-2,-7,-51,-11,-42,-7,-27,-16
-9,-11,-2,10,-3,-6,-51,-12,-42,-8,-28,-17
-10,-9,0,9,-5,-4,-51,-12,-43,-8,-29,-18
-10,-8,1,9,-6,-2,-50,-12,-43,-9,-30,-18
-9,-8,1,8,-5,-2,-50,-13,-44,-10,-31,-19
-8,-8,0,8,-4,-3,-50,-13,-44,-11,-31,-20
-7,-9,-1,8,-3,-4,-50,-13,-45,-11,-31,-21
-8,-10,-1,9,-3,-5,-50,-13,-45,-11,-31,-21
-9,-10,-1,9,-4,-5,-50,-13,-45,-11,-32,-21
-10,-10,0,9,-4,-5,-50,-13,-45,-11,-32,-22
-10,-10,0,9,-4,-5,-50,-13,-45,-11,-33,-22
-9,-10,0,9,-4,-5,-50,-13,-45,-11,-33,-23
-9,-10,-1,9,-4,-5,-49,-13,-45,-10,-32,-23
-9,-11,-1,10,-4,-6,-48,-13,-44,-10,-32,-22
-10,-11,0,10,-5,-5,-48,-12,-44,-10,-31,-22
-10,-9,2,10,-7,-3,-48,-13,-45,-10,-32,-23
-11,-7,4,9,-8,-2,-48,-13,-44,-10,-31,-23
-11,-7,4,9,-7,-1,-49,-13,-44,-9,-31,-23
-9,-6,2,8,-6,-2,-49,-13,-44,-9,-30,-23
-8,-7,0,8,-4,-3,-49,-12,-43,-9,-30,-23
-9,-9,0,9,-4,-5,-48,-11,-42,-8,-29,-22
-9,-11,-1,10,-4,-6,-47,-10,-41,-6,-27,-21
-9,-12,-2,10,-4,-7,-47,-10,-41,-5,-26,-20
-8,-12,-2,10,-3,-7,-48,-10,-41,-5,-26,-21
-8,-12,-2,10,-3,-7,-48,-10,-41,-5,-25,-21
-8,-12,-2,9,-3,-7,-48,-10,-41,-5,-25,-20
-8,-11,-3,9,-2,-7,-49,-10,-41,-4,-24,-20
-7,-10,-3,8,-2,-6,-50,-10,-41,-4,-23,-20
-7,-11,-4,9,-2,-7,-50,-10,-40,-3,-22,-19
-7,-11,-4,9,-2,-7,-51,-10,-40,-3,-21,-19
-7,-10,-2,8,-3,-6,-52,-10,-41,-4,-21,-19
-7,-7,0,7,-4,-3,-53,-10,-41,-4,-22,-20
-8,-6,2,6,-5,-2,-53,-10,-41,-4,-21,-20
-9,-7,1,7,-4,-3,-53,-9,-41,-3,-21,-20
-9,-8,0,8,-4,-4,-53,-9,-41,-3,-20,-19
-9,-8,-1,8,-4,-5,-54,-9,-41,-2,-20,-19
-9,-8,0,8,-4,-5,-54,-9,-41,-2,-19,-19
-8,-8,0,8,-4,-5,-55,-9,-41,-2,-19,-19
-8,-8,0,8,-3,-5,-56,-10,-41,-2,-19,-20
-7,-8,-1,7,-3,-5,-57,-11,-42,-4,-20,-21
-7,-8,0,7,-3,-4,-57,-11,-42,-4,-21,-21
-7,-7,0,6,-3,-4,-58,-11,-41,-4,-20,-21
-7,-8,0,6,-2,-5,-59,-11,-41,-4,-20,-21
-6,-8,-2,6,-1,-6,-59,-11,-41,-4,-21,-21
-6,-9,-2,7,-1,-6,-60,-12,-41,-4,-21,-21
-6,-9,-2,7,-2,-5,-60,-12,-42,-4,-21,-22
-6,-9,-1,7,-3,-5,-60,-13,-42,-4,-22,-22
-7,-9,0,8,-4,-4,-61,-13,-42,-4,-22,-22
-8,-8,1,8,-5,-4,-61,-13,-42,-4,-23,-22
-8,-8,1,7,-5,-3,-62,-13,-41,-4,-23,-23
-7,-8,0,7,-4,-4,-63,-13,-42,-4,-24,-23
-6,-8,-2,7,-3,-5,-64,-14,-42,-5,-25,-24
-6,-8,-2,7,-2,-5,-65,-14,-42,-4,-26,-24
-7,-9,-2,7,-2,-6,-65,-14,-41,-3,-26,-23
-7,-9,-3,7,-2,-6,-66,-14,-41,-3,-27,-23
-6,-10,-3,7,-2,-7,-67,-14,-42,-3,-28,-23
-6,-10,-4,7,-1,-7,-67,-15,-42,-3,-29,-23
-7,-10,-4,8,-1,-8,-67,-15,-41,-3,-29,-23
-8,-11,-4,9,-2,-8,-68,-15,-41,-2,-30,-23
-9,-11,-3,10,-3,-8,-68,-14,-41,-2,-31,-24
-9,-10,-1,9,-4,-6,-69,-15,-41,-3,-32,-25
-9,-9,0,9,-5,-5,-70,-16,-42,-3,-34,-26
-9,-10,-2,9,-4,-6,-71,-16,-42,-3,-34,-26
-8,-10,-3,8,-3,-6,-71,-16,-42,-2,-35,-25
-7,-9,-2,7,-3,-5,-71,-16,-42,-2,-35,-25
-7,-9,-2,7,-3,-5,-71,-15,-41,-2,-36,-25
-7,-10,-3,8,-2,-7,-71,-15,-41,-2,-37,-26
-7,-11,-4,8,-2,-7,-72,-16,-42,-2,-39,-27
-7,-11,-4,9,-1,-8,-72,-16,-41,-1,-40,-27
-6,-11,-5,8,-1,-8,-72,-16,-41,-1,-40,-28
-6,-10,-4,7,-1,-7,-73,-16,-40,0,-41,-28
-6,-9,-3,7,-2,-6,-73,-15,-40,1,-41,-28
-7,-8,0,7,-3,-5,-72,-15,-39,2,-41,-28
-8,-7,1,7,-4,-3,-71,-15,-39,3,-40,-27
-6,-5,2,5,-4,-2,-70,-14,-38,4,-39,-26
-4,-2,2,3,-3,0,-71,-13,-37,5,-38,-25
-2,0,3,1,-3,1,-71,-13,-36,6,-39,-24
-2,1,4,0,-4,2,-72,-13,-35,7,-38,-23
-2,1,3,0,-3,2,-72,-12,-34,9,-36,-21
-1,0,2,0,-2,1,-73,-11,-32,11,-35,-19
0,0,0,0,0,0,-73,-10,-31,13,-33,-17
1,0,-1,-1,1,0,-74,-10,-31,14,-32,-16
2,0,-2,-1,2,0,-76,-10,-31,14,-33,-16
2,0,0,-1,1,0,-77,-11,-32,14,-33,-16
1,1,1,-1,0,1,-78,-10,-31,15,-33,-15
1,2,1,-1,0,2,-79,-10,-30,16,-32,-14
2,2,0,-2,1,2,-79,-10,-29,16,-31,-13
2,2,0,-2,1,1,-80,-10,-30,15,-32,-13
1,1,0,-1,1,1,-80,-12,-31,14,-33,-14
1,0,0,-1,1,0,-81,-14,-33,13,-34,-15
1,0,-1,-1,1,0,-82,-15,-34,12,-35,-16
2,-1,-2,-1,2,-1,-82,-16,-35,12,-35,-17
2,-1,-3,0,2,-2,-81,-17,-35,13,-35,-17
0,-3,-3,1,2,-3,-80,-17,-35,13,-35,-16
0,-5,-4,2,2,-4,-79,-17,-35,13,-35,-16
-2,-5,-3,3,0,-4,-78,-17,-35,12,-36,-18
-4,-6,-1,4,-1,-3,-77,-17,-36,11,-37,-19
-5,-7,-1,5,-2,-4,-77,-17,-37,10,-38,-21
-6,-7,-1,6,-2,-4,-76,-18,-38,10,-39,-22
-7,-9,-1,7,-3,-5,-75,-18,-39,10,-40,-23
-8,-11,-3,9,-2,-7,-75,-18,-39,9,-40,-24
-9,-12,-3,10,-2,-8,-75,-19,-41,8,-42,-26
-10,-12,-2,11,-3,-7,-75,-20,-41,7,-43,-27
-11,-13,-2,11,-4,-7,-75,-20,-42,6,-43,-28
-11,-14,-2,12,-4,-8,-75,-21,-42,6,-43,-28
-11,-15,-3,12,-3,-9,-75,-21,-42,6,-43,-28
-11,-15,-4,12,-3,-9,-74,-21,-42,7,-43,-28
-11,-15,-3,12,-3,-9,-74,-21,-42,7,-42,-28
-10,-13,-3,11,-3,-8,-74,-21,-42,7,-42,-28
-9,-13,-4,11,-2,-9,-74,-21,-43,6,-43,-29
-9,-13,-5,11,-1,-9,-75,-21,-43,6,-43,-29
-9,-14,-5,11,-2,-9,-75,-20,-43,7,-42,-29
-10,-14,-4,11,-2,-9,-75,-20,-43,7,-42,-29
-10,-14,-4,12,-2,-9,-75,-20,-43,8,-41,-28
-10,-14,-4,11,-2,-9,-75,-20,-43,8,-40,-28
-9,-14,-4,11,-2,-9,-75,-20,-44,8,-40,-28
-9,-14,-4,11,-2,-9,-76,-20,-44,8,-40,-28
-9,-13,-4,11,-2,-9,-76,-20,-44,9,-40,-28
-10,-13,-3,11,-3,-9,-76,-20,-44,9,-39,-28
-10,-15,-5,12,-2,-10,-75,-19,-43,10,-38,-27
-9,-16,-6,12,-1,-11,-74,-19,-43,10,-36,-27
-10,-15,-5,12,-2,-10,-74,-18,-43,11,-36,-27
-10,-15,-4,12,-3,-9,-74,-18,-43,11,-35,-27
-11,-15,-4,12,-3,-9,-73,-18,-42,12,-34,-26
-11,-14,-3,12,-4,-8,-72,-18,-41,12,-33,-26
-10,-13,-3,11,-4,-8,-72,-18,-41,12,-33,-26
-7,-12,-4,10,-2,-8,-73,-17,-41,12,-32,-27
-5,-11,-5,8,0,-8,-72,-16,-40,13,-31,-27
-6,-11,-5,8,-1,-8,-71,-13,-38,15,-29,-26
-8,-11,-3,9,-2,-8,-69,-9,-34,18,-27,-25
-10,-11,-1,10,-4,-6,-67,-6,-30,20,-26,-27
-11,-9,1,10,-6,-5,-66,-4,-28,22,-26,-30
-12,-8,4,10,-8,-2,-65,-3,-28,23,-27,-33
-14,-7,7,10,-10,0,-64,-2,-26,25,-26,-34
-13,-6,7,10,-10,0,-63,0,-22,31,-21,-31
-10,-4,5,7,-7,0,-64,3,-17,39,-11,-24
-5,-1,4,3,-4,1,-68,3,-14,47,3,-11
2,4,2,-3,0,2,-73,4,-10,58,23,6
11,10,0,-11,5,4,-81,5,-3,72,48,27
21,18,-3,-19,11,6,-90,11,8,92,81,54
30,25,-5,-27,17,9,-97,21,24,114,116,82
41,33,-6,-37,23,13,-104,32,42,138,152,109
52,44,-7,-48,29,19,-110,46,66,168,193,138
62,57,-4,-59,33,27,-115,63,96,201,234,166
69,68,0,-68,35,34,-118,80,128,231,269,190
71,73,1,-72,35,38,-118,99,159,254,291,207
71,70,-1,-70,36,34,-116,116,186,265,290,212
68,58,-10,-63,39,23,-110,130,208,262,267,204
61,39,-21,-50,41,8,-101,138,218,244,219,176
47,18,-29,-33,37,-5,-88,137,211,210,152,125
28,-1,-28,-13,27,-14,-71,125,185,167,80,65
6,-15,-21,4,13,-17,-54,107,148,124,20,14
-11,-22,-11,16,0,-16,-39,91,115,90,-23,-26
-24,-26,-2,24,-10,-13,-27,81,90,67,-49,-57
-32,-26,5,29,-18,-10,-16,73,69,49,-65,-77
-38,-27,11,32,-24,-8,-8,66,47,32,-75,-89
-42,-29,14,36,-28,-8,0,62,28,18,-81,-95
-46,-33,14,39,-30,-10,8,58,13,8,-84,-97
-49,-38,12,43,-31,-13,16,53,-1,0,-86,-99
-51,-41,11,46,-32,-14,22,46,-14,-7,-88,-99
-53,-39,14,46,-34,-12,28,39,-26,-12,-89,-99
-53,-33,19,43,-36,-6,31,33,-34,-15,-88,-99
-53,-28,24,40,-38,-1,32,29,-38,-16,-86,-97
-52,-25,26,38,-38,1,30,24,-42,-15,-83,-94
-49,-23,25,36,-36,1,25,17,-46,-14,-79,-90
-46,-22,24,34,-34,1,17,10,-49,-12,-74,-86
-43,-19,25,32,-34,3,7,2,-52,-11,-70,-81
-41,-16,25,29,-33,5,-4,-7,-56,-11,-67,-78
-39,-13,26,27,-32,6,-16,-16,-59,-10,-65,-74
-37,-12,25,25,-31,7,-27,-24,-61,-9,-61,-70
-35,-11,23,23,-29,6,-38,-30,-63,-8,-58,-66
-32,-10,22,21,-27,6,-48,-34,-65,-8,-56,-63
-29,-9,20,19,-24,5,-58,-35,-65,-7,-53,-60
-25,-8,16,17,-20,3,-66,-34,-63,-4,-50,-56
-20,-10,11,16,-15,0,-73,-32,-59,-1,-46,-52
-18,-12,6,16,-12,-3,-77,-28,-55,2,-42,-49
-16,-14,2,16,-10,-6,-80,-24,-51,5,-39,-46
-15,-15,0,15,-7,-7,-83,-22,-48,7,-37,-44
-12,-14,-2,13,-5,-8,-85,-20,-47,8,-35,-43
-11,-15,-4,13,-3,-9,-87,-19,-46,9,-34,-42
-10,-16,-6,13,-2,-10,-89,-18,-45,9,-33,-41
-9,-16,-7,13,-1,-11,-91,-18,-45,10,-32,-40
-8,-17,-8,13,0,-12,-92,-17,-44,11,-31,-39
-8,-18,-9,13,0,-13,-92,-16,-43,12,-30,-39
-8,-19,-10,14,0,-14,-93,-16,-43,12,-30,-39
-8,-18,-9,14,0,-14,-94,-16,-43,12,-30,-39
-8,-17,-8,13,0,-12,-96,-17,-43,11,-31,-41
-8,-16,-8,12,0,-12,-96,-18,-43,11,-31,-41
-7,-17,-9,12,1,-13,-96,-17,-43,12,-31,-40
-7,-17,-10,12,2,-13,-97,-17,-42,12,-30,-40
-7,-17,-10,12,1,-13,-97,-16,-42,12,-30,-40
-7,-16,-8,12,0,-12,-98,-16,-42,13,-30,-40
-8,-16,-7,12,0,-11,-98,-16,-42,13,-30,-40
-8,-15,-6,12,-1,-11,-99,-16,-41,13,-30,-40
-8,-15,-6,12,-1,-11,-99,-15,-41,13,-30,-40
-8,-16,-7,12,0,-12,-99,-15,-41,13,-29,-40
-7,-16,-9,12,1,-13,-100,-15,-41,13,-30,-40
-7,-17,-10,12,2,-14,-101,-15,-41,12,-30,-41
-7,-16,-9,12,1,-13,-101,-15,-41,13,-30,-41
-6,-15,-9,11,1,-12,-102,-14,-41,13,-29,-41
-5,-16,-10,10,2,-13,-102,-14,-41,14,-29,-41
-4,-18,-12,11,3,-15,-102,-13,-40,14,-28,-40
-6,-19,-12,12,3,-15,-102,-13,-39,14,-28,-40
-8,-18,-10,13,1,-14,-102,-13,-38,14,-28,-40
-9,-18,-9,13,0,-13,-101,-12,-38,14,-28,-40
-9,-17,-8,13,0,-12,-101,-12,-37,15,-27,-40
-7,-15,-8,12,0,-12,-102,-11,-37,15,-27,-40
-5,-14,-9,11,1,-12,-103,-11,-38,15,-27,-40
-5,-14,-8,10,1,-11,-104,-12,-38,15,-27,-40
-6,-15,-8,11,0,-11,-104,-12,-38,15,-28,-40
-6,-17,-10,12,1,-13,-104,-11,-37,16,-27,-40
-7,-20,-13,13,2,-16,-104,-10,-36,17,-26,-39
-7,-21,-13,14,3,-18,-104,-9,-36,17,-25,-39
-8,-21,-12,15,2,-17,-104,-9,-35,17,-25,-39
-7,-19,-12,14,2,-16,-105,-8,-35,18,-25,-39
-6,-18,-11,13,2,-15,-105,-8,-35,18,-25,-39
-5,-19,-12,12,3,-16,-106,-7,-35,19,-24,-39
-5,-20,-14,12,4,-18,-106,-6,-34,20,-23,-38
-5,-21,-14,13,4,-18,-106,-6,-33,21,-23,-39
-6,-20,-14,12,3,-17,-107,-5,-33,21,-23,-39
-6,-20,-13,12,3,-17,-107,-5,-32,21,-22,-39
-6,-19,-13,12,4,-17,-107,-4,-31,21,-22,-39
-5,-19,-13,12,4,-16,-108,-4,-31,22,-21,-39
-5,-19,-14,12,4,-16,-108,-3,-30,23,-21,-39
-5,-20,-14,13,4,-17,-107,-2,-28,24,-20,-38
-6,-20,-14,13,4,-17,-107,-1,-26,25,-19,-38
-6,-19,-13,13,3,-16,-108,0,-25,26,-19,-39
-6,-20,-14,13,4,-17,-108,0,-24,26,-19,-39
-6,-22,-16,14,5,-19,-108,2,-23,28,-18,-39
-6,-22,-16,14,5,-19,-108,3,-21,29,-17,-39
-6,-21,-15,14,4,-18,-108,5,-20,30,-16,-38
-6,-20,-15,13,4,-18,-109,6,-19,31,-15,-38
-6,-21,-15,14,4,-18,-109,8,-17,33,-14,-38
-6,-21,-15,14,4,-19,-109,10,-14,35,-13,-38
-5,-21,-16,13,5,-19,-110,12,-11,37,-11,-37
-4,-21,-17,12,6,-19,-110,14,-9,40,-9,-37
-3,-21,-19,11,8,-20,-110,16,-6,42,-7,-36
-3,-22,-19,12,8,-21,-110,18,-4,44,-5,-36
-3,-22,-20,12,9,-21,-110,20,-1,46,-3,-35
-3,-23,-20,12,9,-22,-111,22,2,49,-1,-34
-3,-24,-21,13,9,-22,-111,24,5,51,1,-33
-3,-24,-21,14,9,-23,-112,26,7,53,3,-32
-2,-24,-21,13,10,-23,-113,28,10,56,5,-32
0,-22,-21,11,11,-21,-114,29,12,58,7,-31
0,-18,-19,9,10,-19,-115,31,14,60,10,-30
0,-17,-18,8,10,-18,-116,32,16,62,12,-29
1,-17,-19,8,10,-18,-117,33,18,64,14,-28
1,-18,-20,8,11,-19,-118,35,20,66,15,-26
3,-17,-21,7,12,-19,-118,36,22,67,17,-25
4,-17,-21,6,13,-19,-119,36,24,69,18,-23
5,-16,-21,5,13,-18,-120,36,25,70,20,-22
5,-15,-20,5,12,-17,-121,36,25,71,21,-22
5,-13,-18,4,12,-16,-122,36,26,72,21,-21
6,-11,-17,3,11,-14,-123,35,25,72,21,-21
6,-10,-16,2,11,-13,-124,34,25,73,22,-20
5,-10,-15,2,11,-13,-124,33,24,73,22,-19
5,-10,-14,2,10,-12,-125,32,23,73,22,-18
5,-8,-13,1,9,-10,-125,30,21,72,21,-17
6,-6,-12,0,9,-9,-126,29,20,71,20,-16
7,-6,-14,0,11,-9,-126,27,18,70,19,-16
8,-6,-15,0,12,-10,-127,25,16,69,17,-16
7,-5,-13,0,10,-8,-127,23,13,67,15,-16
5,-3,-8,0,7,-5,-127,20,10,65,13,-16
3,-2,-6,0,5,-3,-127,17,7,63,11,-16
3,-3,-6,0,4,-4,-127,15,5,62,9,-16
2,-5,-7,1,4,-6,-126,13,3,60,6,-17
3,-5,-8,1,5,-6,-125,11,0,57,3,-18
3,-5,-7,0,5,-6,-126,8,-3,54,0,-21
3,-4,-6,0,4,-6,-126,6,-6,52,-3,-23
3,-4,-6,0,4,-6,-125,5,-8,50,-5,-24
3,-4,-7,1,5,-6,-124,3,-10,49,-7,-25
1,-6,-8,2,5,-7,-124,1,-13,47,-10,-27
0,-8,-8,3,4,-8,-123,0,-15,45,-12,-28
-1,-8,-7,4,3,-7,-123,-2,-17,43,-14,-30
-1,-8,-6,4,2,-7,-122,-4,-18,42,-16,-31
-2,-9,-6,5,1,-7,-122,-5,-19,42,-17,-32
-3,-9,-6,6,1,-8,-121,-7,-20,41,-18,-33
-3,-10,-7,7,1,-9,-121,-7,-21,40,-19,-33
-3,-11,-8,7,2,-10,-121,-8,-22,39,-20,-34
-3,-12,-9,8,2,-11,-121,-8,-22,38,-21,-35
-4,-13,-9,8,2,-11,-121,-9,-23,38,-22,-36
-5,-13,-7,8,0,-10,-121,-9,-24,37,-23,-37
-6,-11,-4,8,-1,-7,-122,-10,-25,35,-25,-38
-7,-10,-3,8,-2,-6,-122,-11,-26,34,-26,-39
-6,-11,-5,8,-1,-7,-122,-11,-27,34,-27,-41
-5,-13,-8,9,1,-10,-122,-12,-27,33,-28,-42
-5,-14,-9,9,1,-11,-121,-12,-28,33,-28,-42
-6,-14,-8,10,1,-11,-122,-13,-28,33,-29,-43
-6,-14,-8,9,1,-11,-123,-13,-29,32,-30,-44
-6,-13,-8,9,1,-10,-123,-13,-29,32,-30,-44
-7,-13,-6,10,0,-10,-124,-13,-29,32,-31,-45
-8,-14,-5,11,-1,-10,-124,-13,-29,33,-31,-45
-8,-13,-4,11,-2,-9,-125,-14,-30,33,-32,-46
-9,-12,-3,11,-3,-8,-126,-14,-31,32,-34,-48
-9,-13,-3,11,-3,-8,-126,-14,-31,31,-35,-49
-9,-13,-4,11,-2,-9,-126,-14,-30,31,-35,-49
-7,-12,-4,9,-2,-8,-127,-14,-30,31,-35,-50
-6,-11,-4,8,-1,-8,-128,-14,-30,32,-35,-50
-6,-11,-3,8,-1,-7,-128,-14,-30,32,-35,-50
-7,-11,-3,9,-2,-7,-129,-14,-30,33,-35,-50
-7,-11,-3,9,-2,-7,-129,-13,-30,34,-35,-51
-7,-12,-4,10,-1,-8,-129,-12,-29,35,-34,-51
-7,-13,-5,10,-1,-9,-129,-11,-27,36,-33,-50
-7,-13,-6,10,-1,-9,-129,-10,-26,37,-33,-49
-8,-13,-5,10,-1,-9,-130,-11,-26,38,-33,-49
-8,-13,-5,10,-1,-9,-131,-11,-26,39,-33,-49
-7,-13,-6,10,0,-10,-132,-11,-26,39,-32,-49
-7,-13,-5,10,0,-10,-132,-11,-26,40,-31,-49
-9,-14,-5,12,-2,-10,-132,-9,-25,42,-30,-47
-10,-16,-6,13,-2,-11,-132,-8,-23,44,-28,-45
-8,-16,-8,12,0,-12,-133,-8,-23,45,-27,-44
-6,-17,-11,12,2,-14,-133,-8,-22,46,-26,-44
-6,-18,-12,12,3,-15,-134,-8,-22,47,-26,-44
-6,-18,-11,11,2,-14,-134,-8,-21,47,-25,-43
-6,-17,-10,11,2,-13,-135,-8,-21,48,-25,-43
-6,-15,-9,10,2,-12,-135,-8,-20,49,-25,-43
-6,-15,-9,10,2,-12,-136,-8,-20,50,-25,-42
-6,-17,-11,11,3,-14,-136,-8,-19,50,-25,-42
-6,-17,-12,11,3,-14,-137,-8,-19,51,-26,-43
-7,-16,-10,11,1,-12,-138,-9,-19,51,-26,-44
-8,-16,-8,11,0,-11,-138,-9,-19,52,-26,-45
-8,-16,-8,11,0,-12,-139,-9,-19,53,-26,-45
-6,-15,-8,11,1,-12,-140,-9,-19,53,-27,-46
-5,-15,-8,10,2,-12,-141,-9,-19,53,-27,-47
-6,-15,-8,11,1,-12,-141,-9,-18,54,-27,-46
-6,-15,-8,11,1,-12,-141,-9,-18,54,-26,-46
-5,-14,-9,10,2,-12,-142,-10,-19,54,-26,-46
-5,-13,-8,9,1,-11,-142,-10,-19,55,-25,-45
-5,-14,-9,9,1,-11,-142,-9,-18,57,-24,-43
-5,-16,-11,10,2,-14,-142,-8,-17,58,-23,-42
-6,-17,-11,11,2,-14,-142,-7,-17,59,-22,-42
-7,-18,-10,12,2,-14,-143,-7,-17,59,-23,-42
-7,-19,-11,12,2,-15,-143,-8,-18,58,-24,-43
-6,-19,-11,12,2,-15,-144,-9,-18,58,-24,-44
-7,-18,-10,12,1,-13,-144,-9,-18,59,-24,-44
-8,-16,-8,12,0,-12,-145,-9,-18,59,-24,-44
-8,-15,-7,12,-1,-11,-145,-10,-18,60,-23,-44
-8,-16,-8,12,0,-12,-146,-10,-19,60,-23,-44
-8,-18,-9,13,0,-14,-146,-10,-19,61,-23,-43
-7,-19,-10,13,1,-15,-146,-10,-18,61,-23,-43
-7,-18,-10,12,1,-15,-146,-10,-19,61,-24,-45
-7,-18,-11,12,2,-15,-146,-11,-19,61,-25,-46
-7,-20,-12,13,2,-16,-146,-11,-19,61,-25,-46
-8,-20,-12,14,2,-16,-147,-11,-19,62,-25,-46
-8,-18,-11,13,1,-14,-147,-12,-20,62,-25,-47
-8,-18,-10,13,1,-14,-147,-12,-20,63,-25,-47
-7,-18,-11,13,1,-15,-147,-12,-19,64,-25,-46
-7,-19,-11,13,1,-15,-147,-12,-19,64,-25,-46
-7,-18,-10,12,1,-14,-148,-12,-20,64,-26,-47
-7,-18,-9,12,0,-13,-149,-13,-21,63,-27,-48
-7,-18,-10,12,1,-14,-149,-13,-21,64,-27,-48
-6,-19,-12,12,2,-15,-150,-13,-21,64,-27,-48
-6,-19,-13,12,3,-16,-150,-13,-21,64,-27,-49
-7,-19,-12,13,2,-15,-151,-14,-22,64,-27,-49
-7,-19,-12,13,2,-15,-151,-13,-21,65,-26,-49
-7,-19,-12,13,1,-15,-151,-12,-20,67,-25,-48
-8,-19,-11,13,1,-15,-150,-10,-18,69,-23,-48
-8,-20,-12,13,1,-16,-149,-9,-17,71,-22,-48
-7,-20,-13,13,2,-16,-149,-8,-16,72,-21,-47
-5,-18,-12,12,3,-15,-150,-8,-15,73,-20,-47
-4,-17,-12,10,4,-14,-150,-7,-14,75,-18,-46
-3,-15,-12,9,4,-14,-150,-7,-13,76,-17,-46
-2,-13,-11,7,4,-12,-152,-7,-13,76,-16,-46
-1,-10,-9,6,4,-10,-154,-8,-13,77,-15,-45
-1,-9,-7,5,3,-9,-155,-8,-12,78,-14,-45
0,-7,-7,4,3,-8,-157,-8,-12,79,-14,-44
0,-6,-6,3,3,-7,-159,-8,-11,80,-13,-44
0,-6,-6,3,3,-6,-161,-9,-11,80,-14,-45
0,-5,-6,2,3,-5,-163,-9,-12,80,-14,-46
0,-4,-4,2,2,-4,-164,-9,-11,80,-14,-46
0,-4,-4,2,1,-4,-165,-8,-11,81,-13,-46
0,-5,-4,2,1,-4,-165,-8,-11,82,-12,-46
-1,-6,-4,3,1,-5,-166,-9,-11,82,-12,-47
-1,-7,-6,4,3,-7,-166,-10,-12,82,-13,-47
-1,-9,-8,5,4,-9,-167,-11,-13,82,-13,-47
-1,-10,-9,5,4,-10,-168,-13,-14,82,-13,-47
-1,-10,-9,5,4,-10,-169,-14,-16,81,-14,-48
-2,-10,-9,5,3,-10,-170,-15,-17,82,-13,-49
-2,-10,-8,5,3,-9,-169,-14,-16,83,-12,-49
-2,-10,-7,6,3,-9,-169,-14,-16,83,-13,-49
-2,-12,-8,7,3,-10,-170,-15,-17,82,-14,-50
-3,-14,-9,8,3,-11,-170,-15,-18,81,-15,-51
-5,-16,-10,10,2,-12,-169,-15,-18,81,-16,-52
-7,-17,-10,12,1,-13,-169,-15,-19,80,-16,-53
-7,-18,-10,12,2,-14,-169,-15,-19,80,-17,-55
-7,-18,-10,12,2,-14,-170,-16,-20,79,-19,-58
-8,-19,-9,14,0,-14,-170,-17,-22,77,-20,-60
-11,-22,-10,17,0,-16,-170,-18,-23,77,-21,-62
-11,-25,-14,18,1,-19,-171,-18,-23,77,-22,-63
-9,-26,-16,18,4,-21,-171,-18,-23,78,-22,-63
-9,-25,-15,17,3,-20,-172,-18,-22,78,-22,-62
-11,-23,-11,17,0,-18,-173,-18,-23,79,-22,-62
-12,-22,-10,17,-1,-16,-174,-19,-23,79,-22,-63
-12,-23,-11,17,-1,-17,-175,-19,-23,79,-23,-63
-12,-24,-12,18,0,-18,-175,-18,-23,80,-22,-64
-12,-24,-13,18,0,-18,-176,-18,-23,81,-22,-64
-13,-24,-12,18,0,-18,-177,-19,-23,80,-23,-65
-14,-25,-11,19,-1,-18,-178,-20,-24,80,-24,-65
-14,-25,-11,19,-1,-18,-179,-20,-24,80,-24,-65
-12,-23,-11,18,-1,-17,-180,-19,-23,81,-23,-64
-11,-22,-10,17,-1,-16,-180,-18,-22,83,-21,-63
-12,-22,-10,17,-1,-16,-181,-18,-22,84,-21,-63
-11,-23,-11,18,0,-17,-181,-18,-22,83,-22,-63
-11,-23,-12,17,0,-17,-182,-19,-23,83,-22,-64
-11,-22,-12,17,0,-16,-183,-19,-23,84,-23,-65
-11,-22,-11,17,0,-16,-184,-18,-22,84,-23,-65
-10,-22,-12,16,0,-16,-185,-18,-22,85,-24,-66
-10,-22,-12,16,0,-17,-186,-18,-22,86,-24,-66
-10,-22,-12,16,0,-18,-186,-17,-21,87,-23,-66
-11,-22,-11,17,0,-17,-187,-17,-20,89,-22,-65
-12,-23,-11,18,-1,-17,-187,-16,-18,91,-20,-64
-12,-24,-12,18,0,-18,-187,-14,-16,94,-18,-62
-12,-25,-13,19,0,-19,-187,-13,-15,95,-18,-62
-12,-25,-13,19,0,-19,-187,-13,-14,95,-19,-63
-12,-25,-13,19,0,-19,-187,-11,-12,97,-19,-65
-12,-25,-12,19,0,-18,-186,-8,-10,100,-19,-67
-12,-24,-12,18,0,-18,-185,-5,-7,103,-20,-69
-13,-24,-10,19,-2,-17,-184,-5,-6,105,-21,-70
-15,-23,-7,19,-3,-15,-184,-4,-4,107,-20,-70
-14,-20,-6,17,-3,-13,-185,-2,-1,112,-14,-66
-11,-17,-6,14,-2,-11,-189,0,2,119,-4,-58
-6,-13,-6,10,0,-9,-194,1,5,128,10,-45
0,-8,-8,4,4,-8,-201,2,9,140,30,-27
9,-3,-12,-3,10,-7,-207,6,18,157,56,-4
18,2,-15,-10,16,-7,-214,13,32,178,88,23
28,8,-19,-18,23,-6,-221,22,47,200,122,50
38,16,-21,-28,30,-2,-228,32,65,224,159,77
48,27,-20,-38,34,3,-234,46,89,255,201,106
56,38,-18,-47,37,10,-239,64,120,290,245,136
63,46,-17,-55,40,15,-242,83,153,323,283,163
68,50,-18,-59,43,16,-243,103,186,348,306,181
70,47,-24,-59,47,11,-241,121,216,361,307,187
69,35,-33,-52,51,0,-236,136,240,361,285,180
61,18,-43,-39,52,-13,-227,145,255,348,240,152
46,-1,-47,-23,46,-24,-215,145,253,318,174,100
26,-17,-43,-5,34,-30,-201,133,230,278,103,40
5,-28,-34,11,20,-31,-185,115,194,234,41,-11
-11,-35,-25,23,6,-30,-171,98,157,196,-6,-52
-24,-39,-16,32,-4,-28,-158,87,130,171,-35,-84
-35,-42,-8,38,-13,-25,-148,79,106,151,-53,-104
-41,-44,-3,42,-19,-24,-139,72,83,133,-64,-115
-44,-46,-1,45,-21,-24,-131,66,64,119,-70,-121
-47,-48,1,47,-24,-24,-125,60,48,108,-75,-125
-51,-49,2,50,-26,-24,-119,53,32,99,-79,-129
-54,-50,3,52,-28,-23,-114,45,18,91,-82,-132
-55,-50,5,53,-29,-22,-110,39,8,86,-83,-133
-55,-48,5,52,-29,-21,-108,35,1,85,-82,-133
-53,-47,5,50,-29,-21,-108,31,-2,86,-79,-131
-53,-46,7,50,-30,-20,-110,27,-5,88,-75,-126
-53,-43,11,48,-31,-16,-115,22,-9,89,-70,-121
-49,-37,13,43,-31,-13,-124,16,-13,91,-66,-115
-45,-33,12,39,-28,-11,-135,8,-17,92,-62,-110
-42,-31,11,36,-26,-10,-148,-1,-22,92,-58,-105
-40,-29,10,35,-25,-9,-161,-11,-26,92,-55,-100
-38,-27,10,32,-24,-8,-173,-19,-29,93,-53,-96
-36,-25,10,30,-23,-8,-185,-24,-31,94,-50,-91
-34,-24,9,29,-22,-8,-196,-27,-31,96,-46,-87
-31,-23,9,27,-20,-7,-206,-28,-31,97,-42,-83
-27,-22,6,25,-17,-8,-214,-27,-29,101,-37,-80
-23,-23,1,23,-12,-11,-221,-25,-26,105,-32,-77
-20,-24,-3,23,-8,-14,-225,-22,-23,109,-29,-75
-19,-26,-7,23,-6,-16,-228,-19,-20,111,-26,-73
-18,-29,-12,24,-3,-20,-231,-17,-18,114,-23,-71
-17,-32,-15,25,0,-23,-234,-16,-16,115,-21,-70
-16,-32,-16,24,0,-24,-236,-16,-16,117,-19,-69
-15,-32,-16,24,0,-24,-239,-16,-16,118,-17,-68
-14,-34,-19,24,2,-27,-242,-16,-16,120,-15,-67
-11,-35,-22,23,5,-29,-245,-16,-16,121,-13,-66
-10,-32,-21,22,5,-26,-248,-17,-17,121,-12,-66
-11,-29,-18,21,3,-23,-251,-18,-17,122,-12,-67
-13,-29,-17,22,1,-23,-252,-18,-17,122,-12,-67
-14,-30,-18,22,1,-24,-254,-17,-17,123,-11,-67
-13,-31,-19,22,2,-25,-256,-16,-17,124,-10,-67
-12,-31,-19,21,3,-26,-258,-16,-18,124,-10,-67
-12,-31,-18,21,2,-25,-258,-16,-18,125,-8,-67
-12,-30,-17,21,2,-24,-258,-16,-17,127,-6,-67
-11,-31,-18,21,3,-25,-257,-15,-16,128,-5,-66
-11,-31,-19,21,4,-25,-257,-15,-15,128,-4,-66
-12,-32,-20,22,4,-26,-256,-14,-15,130,-2,-66
-13,-34,-22,23,4,-28,-256,-14,-14,131,-1,-66
-13,-35,-23,24,5,-30,-255,-13,-14,132,0,-66
-13,-37,-25,25,5,-32,-255,-12,-14,132,0,-65
-13,-39,-26,26,6,-33,-254,-11,-13,133,1,-65
-12,-39,-26,25,6,-33,-255,-11,-13,133,2,-66
-11,-38,-25,24,6,-32,-256,-11,-13,134,3,-67
-11,-38,-25,24,6,-32,-256,-11,-13,134,3,-68
-10,-40,-30,25,9,-35,-256,-10,-12,135,4,-69
-10,-41,-31,26,10,-36,-256,-9,-12,135,4,-70
-12,-40,-28,26,8,-34,-257,-9,-12,136,4,-72
-11,-38,-27,25,8,-32,-258,-10,-12,135,3,-74
-10,-38,-27,24,8,-32,-259,-10,-13,134,3,-76
-11,-38,-26,24,7,-32,-259,-10,-13,134,3,-77
-11,-37,-24,24,6,-31,-260,-10,-13,134,3,-78
-11,-35,-23,23,6,-28,-262,-9,-13,135,3,-78
-11,-32,-21,22,5,-26,-263,-9,-12,135,4,-79
-11,-32,-20,22,5,-26,-264,-8,-12,136,4,-82
-11,-31,-20,22,5,-25,-265,-8,-12,136,3,-85
-12,-31,-20,22,4,-25,-266,-7,-12,137,3,-87
-12,-31,-18,22,3,-25,-267,-7,-13,137,3,-90
-13,-30,-16,21,2,-23,-269,-7,-13,138,3,-93
-12,-29,-16,21,2,-23,-270,-6,-12,139,4,-95
-12,-29,-16,21,2,-23,-271,-6,-10,140,5,-96
-12,-29,-17,21,2,-23,-271,-5,-10,142,6,-97
-11,-27,-17,20,2,-22,-272,-5,-9,142,7,-99
-11,-27,-16,19,2,-21,-273,-6,-9,143,7,-101
-11,-28,-17,20,2,-22,-274,-6,-9,144,7,-103
-10,-28,-17,20,2,-22,-274,-5,-9,145,8,-105
-10,-28,-16,19,2,-22,-275,-3,-8,146,8,-107
-10,-28,-17,19,3,-23,-274,-2,-6,147,9,-108
-10,-30,-19,20,4,-25,-274,0,-5,148,10,-108
-11,-31,-20,21,4,-25,-274,0,-5,149,11,-108
-11,-30,-19,21,3,-24,-273,1,-4,151,13,-109
-10,-29,-19,20,4,-24,-272,3,-2,154,14,-110
-10,-30,-21,21,5,-26,-270,5,0,156,15,-110
-10,-30,-20,21,5,-26,-270,6,2,156,14,-111
-9,-29,-19,20,5,-24,-270,7,3,156,15,-111
-9,-29,-20,19,5,-25,-270,8,4,159,18,-111
-9,-30,-21,20,6,-26,-271,9,5,162,22,-112
-9,-31,-22,20,6,-27,-273,9,5,165,24,-113
-8,-33,-25,21,8,-29,-274,10,6,168,27,-111
-8,-33,-26,21,8,-29,-275,13,9,171,31,-110
-7,-32,-25,20,8,-28,-277,14,12,173,33,-110
-6,-31,-25,19,9,-28,-279,16,14,175,36,-111
-6,-34,-28,20,11,-31,-281,18,18,179,41,-110
-5,-36,-31,21,13,-34,-282,19,22,183,44,-109
-5,-37,-31,21,13,-34,-284,20,25,186,46,-108
-5,-36,-30,21,12,-33,-287,20,27,189,49,-108
-5,-36,-30,21,12,-33,-289,21,29,191,53,-106
-5,-37,-31,21,12,-34,-291,23,33,193,56,-104
-4,-35,-31,20,13,-33,-293,24,38,197,58,-102
-1,-33,-32,17,15,-33,-296,25,42,200,61,-100
0,-33,-32,16,16,-33,-298,26,46,203,63,-97
-1,-32,-30,16,15,-31,-301,26,49,205,63,-95
-2,-30,-27,16,13,-29,-303,27,51,206,64,-93
-2,-28,-26,15,12,-27,-306,29,54,208,64,-90
-3,-27,-24,15,10,-26,-308,29,56,210,64,-87
-2,-24,-22,14,9,-23,-311,29,57,209,62,-86
0,-22,-22,12,10,-22,-314,27,57,209,60,-86
1,-24,-26,12,13,-25,-316,27,59,210,58,-86
1,-26,-28,13,14,-28,-318,26,60,211,57,-87
1,-26,-28,13,15,-27,-321,23,59,211,56,-89
1,-26,-27,12,15,-27,-322,21,59,210,56,-88
1,-26,-27,12,14,-26,-323,20,58,208,55,-88
1,-23,-25,10,13,-24,-324,18,56,206,52,-91
1,-21,-23,9,12,-22,-325,16,53,204,47,-92
1,-21,-23,10,12,-22,-325,16,52,203,43,-90
1,-23,-24,10,13,-23,-325,15,51,200,40,-89
2,-23,-25,11,13,-24,-325,13,49,196,36,-91
3,-23,-25,10,14,-24,-324,11,46,194,32,-93
3,-22,-25,10,14,-24,-323,9,45,195,26,-94
2,-22,-24,10,13,-24,-321,8,43,194,19,-95
1,-22,-23,10,12,-23,-320,6,39,192,12,-95
0,-23,-23,11,12,-23,-318,5,36,188,6,-98
-1,-25,-23,13,11,-24,-316,4,34,185,2,-99
-2,-27,-24,15,10,-25,-314,2,32,183,0,-99
-3,-26,-22,15,9,-24,-313,0,28,182,-2,-100
-4,-24,-20,14,7,-22,-312,-2,25,181,-7,-104
-4,-23,-18,14,6,-21,-311,-3,23,176,-13,-107
-5,-25,-18,15,6,-22,-309,-4,21,171,-20,-110
-7,-27,-19,17,6,-23,-307,-5,19,169,-23,-112
-8,-29,-21,18,6,-25,-305,-6,18,170,-24,-112
-7,-29,-22,18,6,-25,-304,-6,16,169,-26,-113
-6,-29,-22,18,7,-25,-303,-7,14,168,-29,-113
-8,-30,-23,19,7,-26,-301,-9,11,167,-35,-113
-10,-32,-22,22,6,-27,-300,-11,9,168,-40,-114
-11,-32,-21,22,5,-27,-298,-13,7,169,-43,-117
-12,-31,-19,21,4,-25,-296,-14,6,170,-42,-119
-12,-30,-18,21,4,-24,-294,-15,6,171,-41,-120
-11,-32,-21,22,5,-27,-290,-14,6,174,-41,-119
-11,-34,-24,23,6,-29,-288,-14,7,176,-44,-116
-11,-33,-21,22,4,-27,-287,-15,7,176,-48,-116
-11,-29,-17,20,2,-23,-286,-15,6,175,-50,-119
-12,-26,-13,19,0,-19,-285,-15,5,174,-50,-120
-13,-24,-10,19,-1,-17,-283,-15,2,172,-49,-121
-14,-20,-5,17,-4,-12,-281,-16,-1,170,-50,-125
-14,-16,-1,15,-6,-8,-281,-18,-5,171,-53,-130
-15,-15,0,15,-6,-8,-279,-18,-7,172,-53,-134
-15,-19,-3,17,-6,-11,-276,-18,-9,171,-52,-136
-15,-22,-7,19,-4,-15,-273,-18,-10,173,-52,-136
-14,-23,-9,18,-3,-16,-270,-18,-12,177,-54,-134
-14,-24,-10,19,-2,-17,-268,-18,-12,178,-56,-135
-14,-27,-12,20,-1,-19,-263,-16,-11,179,-58,-137
-14,-26,-12,19,-1,-19,-259,-16,-9,184,-58,-136
-14,-21,-7,17,-3,-14,-254,-16,-8,189,-57,-129
-15,-20,-5,17,-4,-12,-248,-16,-8,191,-57,-127
-15,-21,-5,18,-4,-13,-243,-17,-10,191,-59,-130
-14,-22,-7,18,-3,-15,-237,-17,-12,196,-59,-131
-14,-23,-8,18,-3,-16,-231,-17,-13,203,-58,-128
-15,-23,-7,19,-4,-15,-227,-18,-14,207,-59,-129
-16,-24,-8,20,-4,-16,-222,-18,-14,210,-58,-128
-15,-28,-12,21,-2,-19,-216,-17,-12,217,-53,-125
-14,-30,-15,22,0,-22,-209,-16,-11,225,-48,-123
-15,-29,-13,22,0,-21,-202,-16,-10,231,-45,-123
-16,-27,-10,21,-3,-19,-195,-16,-10,236,-44,-123
-15,-26,-11,21,-2,-19,-189,-15,-9,243,-40,-123
-13,-28,-15,21,1,-22,-183,-14,-5,249,-38,-123
-10,-28,-18,20,3,-23,-177,-13,-2,251,-41,-126
-10,-26,-17,18,3,-21,-171,-13,-1,253,-44,-128
-13,-24,-11,19,-1,-18,-165,-14,-2,255,-45,-126
-17,-23,-7,19,-4,-15,-157,-15,-3,255,-43,-123
-17,-24,-7,20,-4,-16,-150,-15,-1,260,-36,-120
-19,-26,-8,22,-5,-17,-145,-15,1,263,-32,-115
-21,-23,-3,22,-9,-13,-139,-15,4,263,-35,-106
-21,-16,3,19,-12,-6,-132,-13,6,263,-39,-100
-19,-16,1,18,-11,-7,-124,-11,9,260,-41,-96
-17,-26,-10,22,-4,-18,-115,-8,12,255,-36,-86
-17,-37,-20,26,1,-28,-106,-8,12,255,-26,-67
-15,-38,-23,26,4,-30,-97,-12,10,257,-19,-57
-11,-31,-20,21,4,-25,-90,-18,8,255,-14,-64
-11,-27,-16,19,3,-22,-79,-20,10,254,-2,-76
-14,-28,-15,21,1,-22,-64,-20,13,258,16,-90
-15,-28,-14,22,0,-21,-50,-22,14,264,32,-106
-13,-23,-9,18,-1,-16,-36,-24,17,269,45,-123
-13,-16,-4,14,-4,-10,-21,-25,22,269,55,-134
-14,-15,-1,15,-7,-8,-3,-23,27,267,62,-135
-16,-13,2,15,-9,-5,17,-22,30,263,62,-134
-17,-10,7,13,-11,-1,37,-25,28,257,58,-138
-16,-8,9,12,-12,0,58,-30,27,252,61,-148
-13,-9,5,11,-8,-2,82,-32,30,254,77,-154
-11,-8,3,10,-7,-2,109,-33,36,258,96,-154
-13,-6,7,10,-10,0,138,-34,42,255,105,-153
-13,-5,8,10,-11,1,167,-35,49,247,107,-148
-11,-8,3,10,-8,-2,193,-36,57,239,108,-141
-10,-9,1,9,-6,-4,215,-36,66,232,108,-136
-12,-10,2,10,-7,-4,234,-33,77,225,109,-131
-15,-12,4,13,-9,-4,253,-31,86,211,107,-127
-17,-15,2,15,-9,-7,271,-30,90,191,96,-125
-14,-15,-1,14,-6,-8,287,-31,91,170,82,-121
-11,-11,0,12,-5,-6,303,-32,93,146,74,-116
-13,-10,3,12,-8,-4,324,-35,94,119,70,-111
-15,-8,5,12,-10,-2,349,-39,93,95,70,-105
-15,-8,5,11,-10,-2,376,-41,96,76,73,-91
-16,-13,2,14,-8,-7,404,-41,100,57,75,-73
-16,-15,1,15,-8,-8,428,-43,103,39,73,-57
-16,-11,4,13,-10,-4,449,-46,104,17,69,-43
-15,-8,7,12,-11,-1,469,-49,105,-7,65,-31
-14,-3,10,9,-12,3,491,-52,106,-28,57,-27
-12,2,13,5,-12,7,514,-56,106,-41,47,-25
-9,0,8,5,-9,3,538,-58,111,-51,40,-22
-9,-4,3,7,-7,-1,562,-57,117,-63,40,-28
-11,-3,6,7,-9,1,591,-58,123,-75,45,-43
-11,-4,7,7,-9,1,627,-58,129,-81,53,-54
-11,-9,2,10,-6,-3,664,-57,136,-84,57,-59
-12,-12,0,12,-6,-6,697,-56,142,-91,55,-63
-13,-13,0,13,-6,-6,726,-55,147,-104,53,-62
-13,-13,0,13,-6,-6,752,-54,153,-114,57,-57
-13,-6,6,9,-9,0,774,-57,157,-119,61,-51
-12,4,15,4,-13,9,794,-61,159,-128,58,-43
-11,7,17,1,-14,12,814,-63,160,-142,49,-31
-8,4,13,1,-10,8,833,-61,163,-155,39,-22
-6,0,6,2,-5,2,846,-59,169,-168,32,-22
-4,-2,3,2,-4,0,854,-59,174,-182,29,-30
-5,2,7,0,-6,5,856,-63,174,-200,30,-38
-5,7,11,-1,-8,9,854,-66,174,-213,34,-39
-4,9,12,-2,-8,10,850,-67,175,-220,40,-35
-3,12,13,-4,-8,12,848,-68,177,-225,43,-31
-1,10,10,-4,-5,10,848,-69,178,-228,41,-26
0,6,6,-3,-3,5,850,-70,178,-232,40,-22
0,7,7,-4,-3,6,849,-72,176,-239,39,-22
2,16,14,-10,-5,15,846,-74,170,-248,36,-20
4,26,22,-15,-9,24,842,-77,162,-258,34,-17
1,26,24,-14,-11,25,839,-80,155,-263,35,-15
-3,21,23,-8,-12,22,837,-83,149,-266,36,-13
-6,19,24,-6,-14,21,836,-87,145,-272,32,-17
-7,23,29,-7,-18,26,834,-92,140,-280,26,-22
-8,25,32,-9,-20,28,835,-96,136,-288,22,-21
-9,22,31,-7,-20,26,841,-96,134,-293,24,-15
-13,18,31,-3,-22,25,849,-96,133,-298,22,-8
-17,18,35,-1,-26,26,857,-96,131,-310,12,-3
-19,17,37,0,-28,27,865,-96,130,-323,4,0
-20,16,36,2,-28,26,871,-96,129,-330,2,2
-19,16,35,1,-27,26,874,-98,128,-336,2,7
-18,18,36,0,-26,27,876,-100,126,-343,5,11
-15,19,34,-2,-24,26,875,-102,125,-344,13,15
-12,16,28,-2,-20,22,873,-103,126,-341,24,19
-12,14,27,-1,-20,21,871,-105,126,-341,32,18
-14,18,32,-2,-23,25,868,-108,125,-345,33,14
-15,23,39,-4,-27,31,865,-112,122,-353,29,10
-17,27,45,-5,-32,37,863,-115,119,-364,23,10
-19,30,49,-6,-34,40,861,-116,116,-372,20,13
-18,29,47,-5,-33,38,858,-118,113,-378,20,16
-17,27,44,-4,-31,35,852,-119,111,-381,22,17
-17,27,44,-5,-31,35,845,-121,109,-387,24,18
-18,29,47,-5,-33,37,839,-123,109,-395,25,20
-18,28,46,-5,-32,37,833,-123,110,-404,25,26
-14,25,40,-5,-27,32,828,-122,113,-412,27,33
-11,23,35,-6,-23,29,824,-123,115,-422,30,38
-9,25,34,-7,-22,30,821,-125,116,-435,29,41
-8,25,33,-9,-20,29,815,-128,116,-449,27,42
-8,24,32,-8,-20,28,808,-130,117,-459,26,44
-10,22,32,-6,-20,27,801,-129,120,-466,26,45
-10,22,33,-6,-21,27,794,-129,124,-472,27,44
-11,22,33,-6,-22,28,787,-129,126,-479,27,41
-10,21,31,-6,-21,26,780,-129,129,-483,28,39
-9,19,28,-5,-19,24,772,-129,133,-486,29,41
-9,17,26,-3,-18,22,764,-129,136,-487,30,43
-11,16,26,-2,-18,21,755,-129,139,-489,29,43
-11,18,29,-3,-20,23,746,-131,140,-492,27,41
-11,21,32,-5,-21,26,736,-131,142,-494,24,41
-11,24,35,-7,-22,29,727,-129,145,-497,21,41
-10,26,36,-8,-23,31,718,-128,147,-501,17,39
-9,27,36,-9,-23,31,708,-128,149,-505,13,38
-9,26,36,-8,-23,31,699,-128,150,-510,11,37
-9,26,35,-8,-22,30,689,-126,154,-511,14,41
-7,26,34,-9,-21,29,678,-122,160,-507,21,48
-5,26,32,-10,-19,29,665,-119,166,-500,33,60
-2,30,32,-13,-17,30,648,-119,170,-491,47,74
6,36,30,-21,-12,32,630,-118,175,-480,64,92
17,45,28,-31,-6,36,612,-115,184,-463,88,114
29,57,28,-43,0,42,594,-108,198,-442,118,139
40,68,28,-54,5,47,578,-98,215,-420,149,164
49,77,28,-63,9,52,565,-85,236,-394,184,189
56,86,30,-71,12,58,553,-68,265,-360,224,216
62,94,32,-78,15,63,542,-49,300,-321,263,244
66,100,33,-83,17,67,534,-30,339,-284,297,270
69,105,35,-88,18,70,528,-12,377,-257,317,289
70,108,38,-89,17,72,523,1,409,-244,317,295
66,104,38,-85,15,70,522,9,435,-244,299,289
56,90,34,-73,11,61,526,12,449,-261,259,264
38,69,31,-53,3,49,536,9,445,-298,195,218
16,48,33,-32,-8,40,547,-2,420,-348,121,161
-5,33,38,-14,-21,36,558,-18,383,-398,55,112
-23,24,46,0,-34,35,566,-31,348,-437,7,74
-37,18,55,9,-46,36,572,-39,320,-463,-25,46
-46,15,61,15,-54,38,576,-46,294,-480,-46,29
-50,14,64,18,-57,38,580,-53,269,-494,-59,21
-52,15,66,18,-59,40,583,-59,248,-505,-67,17
-53,17,71,17,-62,43,584,-66,228,-511,-70,15
-55,18,74,18,-64,46,584,-74,210,-516,-72,12
-56,18,75,19,-66,47,584,-79,196,-518,-73,10
-56,19,76,18,-66,48,582,-81,188,-517,-72,11
-56,23,79,16,-67,50,578,-84,182,-514,-70,13
-54,28,82,13,-68,54,570,-87,177,-510,-68,14
-52,33,85,9,-68,58,560,-93,173,-506,-64,16
-50,38,87,5,-68,62,546,-100,169,-502,-61,19
-47,42,89,2,-68,65,531,-108,165,-497,-59,21
-45,46,91,0,-68,69,513,-117,161,-493,-57,24
-43,50,93,-3,-68,72,495,-125,158,-490,-54,30
-41,53,94,-5,-67,73,477,-132,156,-487,-51,36
-39,55,94,-7,-66,74,459,-137,154,-483,-47,40
-37,56,93,-10,-64,74,443,-141,153,-479,-43,43
-34,56,90,-11,-61,72,430,-141,153,-471,-37,46
-30,57,87,-13,-58,71,417,-139,156,-462,-31,48
-24,59,83,-17,-53,71,405,-136,160,-453,-26,49
-19,61,81,-20,-50,71,395,-133,164,-446,-23,49
-18,63,81,-22,-49,72,387,-129,167,-442,-22,50
-18,64,83,-23,-50,74,381,-127,168,-440,-21,52
-18,64,83,-23,-50,73,374,-125,168,-435,-19,58
-17,63,80,-23,-48,71,367,-124,169,-429,-16,63
-15,63,78,-24,-46,70,360,-123,168,-427,-16,65
-14,66,79,-26,-46,72,355,-123,166,-427,-15,65
-13,68,81,-28,-46,75,350,-123,163,-426,-15,65
-12,68,80,-28,-45,74,346,-124,161,-424,-15,68
-10,66,77,-28,-43,72,343,-123,160,-423,-15,71
-9,64,73,-27,-41,69,339,-120,160,-422,-15,71
-10,61,72,-25,-42,67,334,-119,159,-420,-16,68
-12,62,74,-25,-43,69,328,-119,156,-418,-17,64
-12,66,78,-28,-45,72,322,-120,154,-415,-19,63
-11,71,82,-30,-46,76,318,-120,152,-413,-19,62
-11,73,84,-31,-47,78,315,-119,150,-411,-21,59
-10,72,81,-31,-45,76,312,-120,148,-408,-23,61
-7,71,78,-31,-42,74,310,-120,146,-406,-24,65
-7,71,78,-31,-42,74,306,-120,142,-407,-23,65
-9,72,82,-31,-45,76,303,-119,139,-407,-18,62
-10,72,83,-31,-47,77,299,-119,136,-406,-14,60
-8,71,81,-31,-45,76,294,-117,134,-401,-14,60
-9,69,78,-30,-44,73,291,-115,132,-396,-16,62
-10,68,79,-29,-44,73,287,-112,130,-396,-19,61
-9,70,80,-30,-44,74,282,-111,127,-397,-19,62
-9,72,82,-31,-45,76,277,-111,124,-394,-15,65
-9,77,86,-33,-47,81,273,-111,122,-390,-13,66
-7,81,88,-36,-48,84,269,-111,120,-389,-16,62
-7,83,90,-38,-48,86,265,-111,117,-388,-20,57
-7,83,90,-38,-48,87,261,-110,116,-385,-20,55
-8,82,91,-37,-49,87,256,-109,115,-384,-21,55
-9,82,92,-36,-51,87,253,-107,114,-383,-25,61
-9,82,91,-36,-50,87,252,-105,112,-380,-27,68
-8,81,89,-36,-48,85,249,-104,111,-377,-30,70
-8,80,88,-36,-48,84,244,-106,109,-376,-37,70
-8,81,89,-36,-48,85,238,-109,105,-377,-45,70
-8,82,90,-37,-49,86,234,-111,102,-379,-50,72
-6,80,87,-37,-46,84,233,-112,101,-382,-53,77
-3,76,80,-37,-41,78,233,-112,99,-382,-55,88
0,74,74,-37,-37,74,234,-112,98,-378,-57,100
1,74,73,-38,-36,74,233,-112,97,-375,-64,103
0,74,73,-37,-36,73,231,-111,97,-375,-68,99
0,72,73,-36,-36,72,229,-110,97,-373,-59,91
-2,70,72,-33,-36,70,226,-108,97,-368,-42,80
-2,68,71,-32,-36,69,223,-109,96,-359,-27,67
1,72,71,-36,-34,71,218,-111,95,-352,-23,52
4,77,73,-41,-34,75,212,-113,94,-345,-30,41
3,77,74,-40,-36,76,210,-115,94,-339,-40,33
1,77,76,-39,-37,77,210,-116,94,-339,-44,27
3,82,78,-42,-38,80,210,-117,92,-342,-37,22
5,83,77,-44,-36,80,211,-116,91,-341,-22,23
5,77,72,-41,-33,74,212,-111,95,-335,-8,34
4,75,71,-40,-33,72,210,-107,98,-329,-5,45
7,80,73,-43,-33,76,207,-107,98,-325,-10,51
10,80,70,-45,-29,75,205,-108,97,-324,-20,53
11,76,64,-44,-26,70,204,-109,96,-328,-42,52
10,65,54,-37,-22,60,206,-107,99,-333,-68,53
8,52,43,-30,-17,48,210,-100,104,-333,-74,59
6,48,42,-27,-17,45,214,-95,109,-328,-54,64
5,52,47,-28,-21,49,215,-95,111,-322,-25,67
3,56,53,-29,-25,54,215,-95,113,-317,-3,68
1,57,57,-28,-28,57,215,-93,117,-313,7,66
0,57,57,-28,-28,57,217,-90,121,-310,10,65
1,55,54,-27,-27,54,219,-86,126,-307,7,66
2,53,50,-27,-24,51,223,-83,130,-304,0,68
4,53,48,-28,-22,50,227,-80,134,-303,-10,72
6,57,49,-32,-22,53,229,-79,134,-303,-18,76
12,63,51,-37,-19,56,228,-80,132,-302,-22,76
17,66,49,-41,-16,57,227,-81,131,-298,-26,77
17,65,49,-41,-16,57,227,-79,134,-294,-27,79
11,61,50,-36,-19,56,231,-76,139,-289,-19,81
5,54,49,-29,-22,52,238,-72,142,-282,-1,86
3,51,48,-27,-22,50,246,-70,142,-279,12,90
4,53,48,-29,-21,51,254,-69,138,-281,13,90
6,56,49,-32,-21,53,266,-69,134,-281,8,89
8,58,49,-33,-20,53,283,-68,133,-282,3,91
12,59,47,-36,-17,53,303,-68,131,-285,2,92
17,62,46,-39,-14,53,325,-72,127,-287,-4,86
20,68,48,-44,-13,57,348,-77,123,-285,-14,74
22,75,53,-49,-15,64,371,-80,122,-281,-19,65
23,81,58,-53,-17,70,396,-85,121,-277,-15,65
22,85,61,-54,-19,74,423,-92,120,-274,-9,66
24,86,61,-55,-18,74,455,-96,119,-268,-3,65
27,84,56,-56,-15,70,488,-98,120,-262,-2,64
28,83,54,-55,-13,68,521,-100,121,-264,-11,66
25,85,60,-55,-17,72,553,-101,123,-269,-22,71
21,91,70,-56,-24,81,586,-103,127,-271,-23,77
17,97,80,-57,-31,88,623,-104,132,-272,-18,83
12,99,87,-56,-37,93,663,-104,139,-275,-15,81
9,101,92,-56,-41,97,706,-104,146,-277,-18,74
7,103,96,-56,-44,100,749,-107,152,-276,-20,71
6,105,98,-56,-45,101,792,-111,156,-280,-20,71
9,106,96,-57,-43,101,834,-115,160,-287,-19,72
12,105,92,-58,-40,98,875,-120,160,-292,-16,74
15,101,87,-57,-36,93,912,-122,160,-298,-16,74
18,100,82,-58,-32,91,945,-125,157,-308,-23,76
21,103,82,-62,-30,93,972,-131,149,-323,-30,78
23,109,86,-66,-31,97,993,-137,142,-337,-29,76
22,109,87,-66,-32,98,1011,-140,138,-345,-21,69
18,106,88,-62,-34,97,1026,-140,135,-349,-11,63
14,105,91,-59,-37,97,1039,-140,134,-351,-6,59
13,104,91,-57,-39,97,1051,-139,136,-352,-6,58
14,100,86,-56,-36,93,1063,-137,138,-353,-5,62
16,97,81,-56,-32,89,1075,-136,139,-356,-6,67
17,97,80,-58,-31,89,1083,-137,137,-362,-8,71
17,97,79,-58,-30,88,1090,-139,136,-367,-10,74
18,93,75,-57,-27,84,1097,-140,136,-370,-9,76
20,90,70,-56,-24,80,1103,-141,135,-373,-8,75
20,92,73,-56,-26,82,1110,-140,137,-374,-7,74
17,97,81,-57,-31,88,1120,-135,140,-373,-8,76
15,101,86,-58,-35,93,1130,-132,143,-372,-9,79
16,101,85,-58,-34,93,1136,-130,145,-370,-9,83
18,100,82,-59,-32,91,1139,-128,150,-369,-8,86
19,100,80,-60,-30,90,1144,-126,155,-369,-10,87
21,99,77,-60,-28,88,1151,-125,159,-371,-12,89
23,98,75,-61,-25,87,1160,-124,160,-374,-15,91
26,99,73,-63,-23,86,1171,-123,161,-376,-18,92
27,98,71,-63,-22,84,1184,-121,162,-375,-18,92
26,96,70,-61,-22,83,1197,-118,164,-372,-16,92
25,93,69,-59,-22,81,1205,-115,167,-371,-16,91
24,90,66,-57,-20,78,1209,-112,173,-368,-17,90
25,85,60,-55,-17,73,1212,-108,180,-362,-17,89
27,80,53,-54,-12,67,1213,-103,185,-354,-16,90
29,81,51,-56,-10,66,1208,-99,187,-346,-18,90
32,86,54,-60,-11,70,1199,-97,187,-341,-22,89
34,93,59,-63,-12,75,1186,-94,188,-335,-26,87
35,97,62,-65,-13,78,1170,-91,189,-328,-29,85
36,97,61,-66,-12,78,1150,-87,190,-319,-31,84
36,93,57,-64,-10,75,1129,-84,190,-309,-31,85
36,89,53,-62,-8,70,1105,-81,190,-298,-32,87
35,87,51,-61,-8,69,1078,-79,188,-289,-33,87
35,87,52,-61,-8,69,1048,-77,186,-282,-35,87
36,89,53,-62,-8,70,1017,-74,185,-275,-37,88
36,90,53,-63,-8,70,985,-71,185,-268,-38,88
36,89,53,-62,-8,70,956,-67,184,-261,-39,88
37,87,50,-61,-6,68,928,-64,182,-254,-39,89
37,85,47,-60,-5,66,900,-62,180,-247,-39,90
35,83,47,-59,-6,65,872,-59,178,-239,-39,92
34,84,49,-60,-7,66,842,-56,175,-231,-39,94
36,86,49,-62,-6,67,813,-55,172,-224,-40,96
38,85,47,-62,-4,66,785,-53,168,-217,-40,97
38,84,46,-61,-3,64,760,-52,163,-210,-40,100
38,84,46,-61,-3,65,738,-51,159,-204,-41,102
38,86,48,-61,-4,66,717,-50,154,-199,-43,103
38,86,48,-62,-4,67,696,-48,150,-194,-44,104
38,87,49,-62,-5,68,676,-46,146,-191,-46,106
37,88,51,-62,-7,70,657,-43,141,-187,-47,109
36,90,54,-63,-9,72,637,-41,136,-182,-49,111
37,93,56,-65,-9,73,616,-40,130,-179,-52,112
38,96,58,-67,-9,76,595,-39,125,-176,-55,114
38,99,61,-68,-11,79,576,-39,124,-172,-57,116
36,101,65,-68,-14,82,561,-38,123,-166,-58,120
36,102,66,-69,-14,84,547,-37,122,-161,-59,122
37,104,66,-70,-14,85,535,-37,119,-155,-60,123
37,107,70,-72,-16,89,522,-37,118,-150,-60,123
36,110,74,-73,-19,93,509,-37,118,-146,-62,122
36,112,77,-74,-20,94,496,-37,118,-143,-63,123
36,114,77,-74,-20,95,483,-36,120,-138,-62,125
36,115,78,-75,-20,96,471,-34,122,-133,-62,127
36,115,79,-76,-21,97,460,-33,125,-129,-63,127
35,115,80,-75,-22,98,450,-32,130,-124,-64,126
34,114,81,-74,-23,98,440,-31,134,-119,-63,124
34,116,82,-75,-24,100,429,-31,137,-115,-63,120
35,118,84,-77,-24,101,419,-32,140,-110,-62,118
36,121,85,-78,-24,103,408,-33,141,-106,-62,116
36,123,87,-80,-25,104,397,-35,141,-102,-62,114
36,124,87,-80,-25,105,387,-36,139,-99,-62,112
36,122,86,-79,-25,104,379,-35,138,-95,-61,111
36,119,84,-77,-24,101,373,-32,137,-89,-59,110
36,118,82,-77,-23,100,368,-28,135,-84,-57,108
36,118,83,-77,-24,101,361,-26,132,-80,-57,106
34,120,87,-77,-27,104,353,-25,128,-78,-57,104
31,121,90,-76,-29,105,344,-25,122,-75,-57,103
30,119,89,-75,-29,103,336,-24,117,-71,-56,102
32,118,86,-75,-27,101,327,-24,111,-68,-55,102
34,121,87,-77,-26,103,319,-24,105,-65,-54,101
35,125,89,-80,-26,107,312,-24,99,-64,-54,99
35,126,90,-80,-27,108,306,-23,92,-62,-55,97
35,124,90,-79,-28,107,300,-23,85,-61,-55,96
35,122,87,-78,-27,104,295,-21,80,-57,-54,98
35,119,83,-77,-24,100,290,-18,74,-53,-52,101
36,116,79,-76,-22,97,284,-15,68,-49,-50,103
36,116,79,-76,-21,97,278,-13,61,-47,-49,102
35,116,80,-75,-22,97,271,-11,55,-45,-48,101
34,114,79,-74,-22,96,266,-8,50,-42,-45,101
35,111,76,-73,-20,94,262,-4,47,-39,-42,102
36,111,75,-73,-20,93,256,-1,45,-35,-39,103
36,111,75,-73,-20,93,249,1,43,-32,-37,104
36,109,73,-72,-19,91,241,3,40,-28,-36,105
35,108,72,-71,-18,89,232,4,37,-26,-34,105
35,108,72,-71,-18,89,222,4,33,-24,-33,105
34,107,72,-70,-19,89,212,6,30,-22,-32,106
34,107,72,-70,-19,89,203,7,28,-20,-31,107
35,107,72,-71,-19,90,195,9,27,-17,-29,108
36,107,72,-72,-18,90,187,11,26,-15,-27,109
36,108,73,-72,-18,90,179,13,24,-13,-26,110
36,109,73,-73,-18,91,170,16,22,-11,-26,110
36,110,73,-73,-18,92,161,17,18,-10,-26,110
36,111,74,-74,-18,92,151,17,14,-9,-26,110
35,109,73,-72,-18,90,142,17,10,-9,-26,110
35,105,70,-70,-17,87,135,17,6,-9,-27,110
36,103,67,-69,-16,85,128,15,1,-10,-28,110
36,103,68,-70,-16,85,121,14,-2,-11,-29,108
36,105,70,-70,-17,87,115,13,-5,-11,-31,107
34,106,73,-70,-19,89,110,12,-7,-11,-31,107
32,106,74,-69,-21,90,104,11,-9,-10,-32,106
31,103,72,-67,-20,88,99,11,-12,-10,-32,106
30,100,70,-64,-20,85,93,12,-15,-9,-32,106
29,98,70,-63,-20,84,87,12,-19,-9,-33,105
28,97,69,-62,-20,83,81,13,-22,-10,-34,104
27,95,69,-61,-21,82,75,13,-26,-10,-36,103
25,93,69,-59,-22,81,68,14,-29,-11,-38,101
23,92,69,-58,-23,81,61,13,-32,-11,-40,100
22,92,70,-57,-24,82,54,13,-35,-12,-41,99
21,93,71,-57,-24,82,46,13,-38,-12,-41,99
22,93,72,-57,-25,82,39,12,-40,-12,-42,98
23,94,72,-58,-24,83,31,12,-42,-11,-42,98
25,94,70,-59,-23,82,25,11,-44,-10,-42,98
27,94,67,-59,-21,80,18,11,-45,-9,-43,99
28,94,66,-60,-19,80,10,11,-47,-8,-43,99
29,94,65,-61,-18,80,3,11,-48,-7,-44,99
29,94,65,-61,-18,79,-4,11,-49,-6,-45,99
29,91,62,-60,-16,77,-11,11,-50,-5,-45,100
29,89,61,-59,-15,75,-19,11,-52,-4,-46,100
28,89,63,-58,-17,76,-27,11,-53,-4,-47,101
26,91,66,-58,-20,78,-34,10,-54,-3,-48,101
24,93,70,-58,-23,81,-40,11,-55,-2,-48,102
22,95,73,-58,-25,84,-47,11,-54,0,-47,103
23,97,74,-59,-25,85,-54,11,-54,1,-48,103
25,98,73,-61,-23,85,-61,11,-55,2,-48,103
26,97,71,-61,-22,84,-68,11,-55,2,-49,103
27,96,69,-61,-21,82,-75,11,-56,3,-48,104
27,95,68,-60,-21,81,-82,12,-56,4,-48,105
26,94,69,-60,-21,81,-87,12,-57,5,-48,105
26,94,69,-60,-22,81,-92,12,-57,6,-48,106
25,92,69,-58,-22,80,-96,13,-57,7,-47,107
23,87,65,-54,-21,76,-99,17,-55,11,-44,109
22,75,53,-48,-16,64,-100,21,-50,17,-39,114
22,62,39,-41,-8,51,-102,27,-46,23,-34,119
22,51,29,-36,-3,40,-104,32,-42,28,-30,123
21,44,23,-32,-1,33,-107,36,-40,32,-28,124
19,41,22,-30,-2,31,-109,40,-38,35,-27,124
18,42,25,-30,-4,33,-111,42,-36,37,-28,123
16,44,28,-30,-7,36,-112,43,-36,39,-29,120
15,45,31,-30,-8,38,-114,44,-37,41,-30,118
15,46,32,-30,-9,40,-116,46,-36,46,-26,119
15,47,33,-31,-8,41,-119,49,-33,55,-17,125
17,50,33,-34,-7,42,-125,52,-29,66,-3,136
23,55,32,-39,-4,44,-134,53,-26,79,15,151
31,59,29,-45,1,44,-143,54,-21,95,38,170
40,64,25,-52,7,44,-151,60,-10,117,69,193
50,70,21,-59,13,45,-158,69,6,143,105,220
60,75,16,-67,21,46,-165,82,25,170,141,246
69,81,12,-74,28,47,-170,98,47,201,178,271
77,91,14,-83,31,53,-175,119,75,235,217,297
83,105,21,-94,31,64,-180,140,106,268,252,319
87,116,28,-102,30,72,-184,163,138,296,279,337
88,118,29,-103,30,74,-184,184,168,314,291,347
86,111,25,-99,30,68,-181,203,196,319,283,347
80,97,18,-88,30,57,-174,216,216,310,256,333
69,78,10,-73,29,44,-163,220,221,285,205,300
53,55,3,-53,24,29,-149,212,204,246,137,246
33,30,-1,-30,17,14,-131,196,169,201,72,193
14,11,-3,-11,9,4,-116,178,128,160,20,150
-1,3,4,-1,-2,4,-104,161,92,126,-17,113
-12,4,16,4,-14,10,-96,148,60,100,-42,83
-20,5,25,7,-23,16,-90,136,31,78,-59,64
-25,3,30,11,-29,16,-82,129,7,62,-68,53
-30,-1,31,16,-32,14,-72,125,-10,52,-71,49
-33,-7,28,21,-32,10,-64,121,-24,46,-72,47
-34,-11,24,23,-30,6,-57,114,-37,40,-73,45
-35,-11,24,23,-29,6,-53,108,-49,36,-73,44
-35,-10,24,23,-30,7,-51,103,-57,36,-72,44
-34,-10,23,22,-29,7,-50,99,-62,37,-67,47
-33,-11,21,22,-27,5,-53,93,-67,39,-62,51
-31,-11,20,21,-26,4,-60,85,-72,39,-58,55
-29,-9,21,19,-26,6,-68,75,-78,40,-54,59
-26,-4,23,15,-26,9,-79,63,-84,40,-51,62
-23,0,24,12,-25,12,-92,50,-90,40,-49,64
-21,0,23,11,-22,12,-104,41,-94,40,-46,68
-19,0,18,10,-19,9,-116,34,-97,41,-43,71
-17,-1,15,9,-16,7,-127,29,-99,42,-40,74
-14,-1,12,7,-13,6,-139,26,-100,42,-37,76
-10,-2,7,6,-9,3,-149,26,-99,44,-33,80
-6,-4,2,5,-5,0,-157,29,-97,46,-28,83
-2,-5,-2,5,-1,-4,-164,32,-94,50,-24,87
1,-7,-7,4,3,-7,-169,36,-91,54,-20,90
3,-8,-11,3,6,-9,-173,39,-89,57,-17,91
4,-8,-13,2,8,-10,-177,40,-88,58,-16,92
6,-9,-15,1,10,-11,-180,41,-87,60,-15,93
7,-10,-19,1,13,-14,-182,42,-87,61,-13,95
9,-11,-21,0,14,-15,-186,43,-87,60,-12,95
10,-11,-21,0,15,-16,-188,43,-88,60,-12,95
11,-13,-22,1,15,-17,-190,43,-87,61,-10,96
11,-15,-25,3,16,-20,-191,44,-87,63,-9,96
11,-17,-26,4,17,-22,-193,45,-87,65,-9,96
10,-16,-26,3,17,-21,-195,44,-87,65,-9,95
10,-14,-24,2,17,-19,-197,44,-89,64,-10,93
10,-13,-24,1,17,-19,-200,43,-90,63,-11,92
11,-14,-26,1,18,-19,-202,43,-90,63,-11,92
11,-15,-28,2,19,-21,-204,44,-89,64,-10,93
11,-17,-29,3,19,-23,-205,44,-89,65,-8,94
11,-18,-28,3,19,-23,-206,44,-89,66,-7,95
11,-16,-26,3,17,-21,-208,44,-90,66,-7,94
11,-14,-24,1,17,-19,-210,44,-91,67,-7,93
11,-13,-24,1,17,-18,-212,45,-92,67,-7,92
10,-14,-25,2,17,-19,-213,46,-92,67,-8,92
10,-15,-27,2,18,-20,-215,46,-92,67,-8,91
11,-17,-29,3,19,-23,-217,46,-92,67,-8,91
11,-20,-31,4,20,-25,-218,46,-92,67,-8,91
11,-21,-32,5,20,-26,-218,46,-93,68,-7,91
11,-22,-33,6,21,-27,-218,46,-93,70,-6,91
11,-22,-33,6,22,-28,-219,47,-93,71,-6,91
11,-21,-32,6,21,-26,-220,46,-94,70,-7,90
10,-19,-29,5,20,-24,-222,46,-95,69,-8,89
10,-19,-30,5,20,-24,-224,46,-95,69,-7,89
10,-22,-33,6,21,-27,-225,48,-95,70,-6,90
10,-24,-34,7,21,-29,-226,49,-94,70,-6,90
10,-23,-33,7,21,-28,-226,49,-95,70,-6,89
10,-22,-32,7,20,-27,-227,50,-95,69,-6,89
10,-23,-33,7,21,-28,-228,50,-95,69,-6,88
10,-25,-35,8,22,-30,-230,51,-95,70,-6,88
9,-25,-34,8,22,-29,-232,51,-95,70,-6,88
9,-24,-33,7,21,-28,-234,51,-95,70,-6,87
10,-24,-35,7,22,-29,-237,51,-95,70,-5,87
11,-25,-36,7,22,-30,-238,51,-96,70,-5,87
10,-24,-35,7,21,-29,-239,52,-96,70,-5,86
10,-24,-34,7,21,-29,-240,52,-97,70,-5,85
11,-27,-38,8,23,-32,-240,54,-97,71,-4,85
11,-29,-40,10,25,-34,-240,56,-96,73,-2,85
10,-29,-38,10,24,-33,-241,57,-96,74,-2,84
9,-28,-36,10,22,-32,-242,58,-96,73,-1,83
8,-28,-36,10,21,-32,-243,58,-96,73,-1,82
7,-28,-35,11,20,-32,-244,58,-96,73,-1,82
7,-28,-35,10,20,-31,-244,58,-97,73,-1,81
7,-27,-34,10,20,-31,-244,59,-98,72,-1,80
7,-27,-34,10,20,-30,-244,59,-98,72,-1,79
7,-26,-33,10,20,-30,-244,61,-97,73,0,78
7,-27,-34,10,20,-30,-244,63,-95,74,1,77
7,-28,-35,10,21,-31,-244,65,-94,75,2,76
7,-30,-37,11,22,-33,-245,66,-93,76,4,76
8,-33,-41,12,24,-37,-245,67,-91,77,5,75
9,-35,-44,13,26,-40,-245,69,-89,79,6,75
9,-32,-41,11,25,-37,-246,69,-88,79,6,73
9,-25,-34,8,21,-29,-248,69,-88,78,5,71
8,-21,-29,7,18,-25,-250,71,-88,78,4,68
8,-21,-28,7,17,-24,-251,73,-86,79,5,67
8,-22,-30,8,19,-26,-252,76,-85,81,7,67
9,-25,-34,9,21,-29,-253,79,-82,83,9,67
9,-27,-36,9,22,-31,-254,81,-80,85,11,67
10,-27,-37,8,22,-31,-255,83,-78,87,13,67
11,-26,-36,7,23,-31,-255,85,-75,89,15,67
11,-25,-36,7,23,-30,-255,87,-72,91,17,67
11,-26,-38,8,23,-32,-255,90,-68,93,19,68
11,-28,-40,9,25,-34,-255,93,-65,96,21,68
12,-28,-40,9,25,-34,-256,96,-62,98,23,68
12,-26,-40,7,25,-33,-258,98,-61,99,25,68
13,-26,-40,7,25,-33,-260,99,-59,100,26,68
13,-26,-39,6,25,-32,-261,100,-57,102,28,69
13,-24,-38,6,25,-31,-261,100,-55,103,30,70
14,-23,-36,5,24,-29,-262,100,-54,104,31,71
15,-22,-37,4,25,-29,-262,100,-53,105,31,71
16,-23,-39,4,27,-30,-263,100,-52,106,32,72
17,-21,-38,3,27,-30,-264,100,-53,106,32,72
18,-17,-36,1,26,-27,-266,98,-54,105,32,71
18,-15,-33,-1,25,-24,-268,97,-55,104,31,71
17,-15,-33,-1,25,-24,-269,96,-56,103,31,72
17,-17,-34,0,25,-25,-268,95,-57,103,32,74
17,-17,-34,0,25,-25,-268,94,-58,103,31,75
17,-17,-33,0,25,-25,-268,93,-59,102,31,75
17,-16,-33,0,25,-24,-267,91,-61,101,30,76
17,-16,-34,0,25,-25,-267,90,-63,100,30,77
17,-18,-35,1,26,-27,-266,87,-65,99,29,78
16,-18,-35,2,25,-27,-266,84,-69,98,28,78
16,-18,-35,1,25,-27,-266,81,-72,95,26,78
16,-18,-33,1,24,-25,-266,77,-76,92,24,77
15,-16,-30,0,22,-22,-267,74,-80,89,21,76
14,-13,-26,0,20,-19,-267,71,-84,85,18,75
14,-12,-25,0,19,-18,-266,68,-87,83,15,75
12,-12,-24,1,18,-18,-265,67,-89,81,13,74
11,-13,-24,2,17,-18,-264,65,-93,79,11,73
10,-12,-23,2,16,-18,-264,62,-96,76,9,72
10,-11,-22,1,15,-16,-264,59,-100,74,7,71
10,-12,-22,1,15,-16,-264,56,-102,71,5,70
9,-15,-24,3,16,-19,-263,54,-104,70,3,70
9,-19,-27,5,17,-22,-261,53,-105,69,2,70
8,-20,-28,6,17,-24,-260,53,-106,68,1,69
8,-20,-28,6,17,-24,-260,52,-107,66,0,68
8,-20,-28,6,17,-24,-260,52,-109,65,-1,66
8,-19,-28,5,17,-23,-260,51,-110,63,-2,65
8,-18,-27,5,17,-22,-260,50,-112,62,-3,64
7,-19,-26,6,16,-22,-260,50,-113,61,-4,63
6,-18,-25,6,15,-21,-260,49,-114,59,-5,62
5,-18,-23,6,14,-20,-260,47,-114,57,-7,60
5,-18,-22,7,13,-20,-260,47,-114,56,-7,60
4,-19,-22,8,13,-20,-259,46,-114,56,-8,59
4,-21,-23,9,13,-22,-257,47,-114,55,-8,59
4,-23,-27,10,15,-25,-256,47,-114,55,-7,59
6,-25,-31,10,17,-28,-255,47,-115,55,-8,59
6,-24,-31,9,18,-27,-256,47,-116,53,-9,58
4,-24,-29,10,16,-26,-255,46,-117,52,-9,57
2,-24,-27,11,14,-25,-254,46,-117,52,-10,56
2,-23,-25,11,13,-24,-253,45,-118,51,-10,55
3,-22,-25,10,14,-23,-253,44,-118,50,-11,54
4,-22,-25,9,14,-23,-252,44,-118,50,-11,53
4,-20,-24,9,13,-22,-252,44,-118,49,-11,52
4,-19,-23,8,13,-21,-252,44,-118,49,-11,51
4,-19,-23,8,13,-21,-251,44,-119,49,-10,51
2,-20,-23,9,12,-21,-251,44,-119,50,-10,51
2,-20,-23,9,12,-21,-251,44,-119,49,-10,50
2,-20,-23,9,13,-22,-251,43,-119,48,-10,49
2,-22,-24,10,13,-23,-250,43,-118,48,-9,49
2,-23,-25,11,13,-24,-250,44,-117,49,-8,49
2,-22,-24,10,13,-23,-249,44,-116,50,-7,49
2,-22,-24,10,13,-23,-249,45,-115,50,-6,49
1,-24,-24,11,13,-24,-248,45,-115,51,-5,49
0,-25,-25,12,12,-24,-247,45,-114,51,-4,49
0,-25,-25,12,12,-25,-247,45,-114,51,-4,48
0,-25,-25,12,13,-25,-246,45,-114,51,-3,48
1,-25,-26,12,13,-25,-246,45,-113,51,-3,48
1,-25,-26,12,13,-25,-245,45,-113,51,-2,48
2,-24,-26,11,14,-25,-245,45,-112,52,-1,48
3,-24,-27,11,15,-25,-245,46,-112,52,-1,48
3,-26,-28,12,15,-27,-244,46,-111,52,0,48
1,-27,-28,13,14,-27,-244,46,-111,52,1,48
0,-26,-27,13,13,-26,-243,46,-111,52,1,47
1,-27,-28,12,15,-27,-243,45,-111,52,1,46
2,-29,-31,13,17,-30,-242,45,-110,52,2,46
2,-31,-34,15,18,-33,-242,46,-109,53,3,47
2,-32,-33,15,18,-33,-241,46,-109,53,3,47
2,-29,-30,14,16,-29,-242,45,-109,52,2,46
2,-25,-27,12,14,-26,-243,44,-110,51,2,44
2,-23,-24,11,13,-24,-244,43,-110,50,1,43
1,-21,-23,10,12,-22,-244,43,-110,49,1,42
1,-21,-22,9,12,-21,-245,42,-110,48,0,41
1,-21,-23,9,12,-22,-245,42,-111,47,0,41
1,-21,-23,10,12,-22,-245,42,-111,47,0,42
0,-22,-23,11,12,-23,-245,42,-110,47,0,42
1,-23,-25,12,13,-24,-245,42,-110,47,0,41
2,-23,-26,11,14,-24,-246,42,-110,45,0,40
3,-22,-25,10,14,-23,-247,41,-110,44,-1,39
1,-21,-23,10,12,-22,-247,41,-111,43,-1,39
0,-22,-23,11,11,-23,-246,41,-110,44,-1,39
0,-24,-24,12,12,-24,-246,41,-110,43,-1,39
2,-23,-25,10,13,-24,-246,40,-110,42,-2,38
3,-22,-26,9,14,-24,-246,39,-111,41,-3,38
3,-24,-27,11,15,-25,-245,39,-110,41,-3,38
2,-27,-29,13,16,-28,-245,39,-110,41,-3,38
2,-27,-28,13,15,-27,-245,38,-110,40,-4,37
1,-26,-26,12,14,-26,-246,37,-110,39,-4,36
1,-25,-26,12,14,-25,-246,37,-110,39,-3,36
0,-25,-26,13,13,-25,-245,37,-109,39,-3,36
0,-25,-25,12,12,-25,-245,37,-109,39,-3,35
1,-23,-24,11,12,-23,-244,37,-110,38,-4,34
1,-22,-23,11,12,-23,-244,36,-111,36,-5,33
1,-23,-24,11,13,-24,-243,35,-111,36,-5,33
1,-24,-25,12,13,-25,-243,35,-111,36,-4,34
1,-25,-27,12,14,-26,-242,35,-111,36,-4,34
1,-27,-28,13,15,-27,-242,35,-110,36,-5,33
1,-27,-28,13,14,-27,-242,34,-110,36,-6,33
1,-25,-26,12,13,-25,-242,33,-110,35,-7,32
1,-24,-25,12,13,-24,-242,32,-110,34,-7,32
0,-24,-25,12,13,-24,-242,32,-110,33,-7,32
0,-25,-24,13,12,-24,-241,32,-110,33,-7,31
0,-25,-25,13,12,-25,-241,32,-110,33,-7,31
0,-28,-28,13,14,-28,-240,32,-110,33,-6,31
1,-29,-30,14,16,-30,-240,32,-110,32,-7,31
0,-27,-28,13,14,-28,-239,32,-110,30,-9,29
0,-24,-25,12,13,-25,-239,32,-111,29,-10,28
1,-23,-24,11,13,-24,-238,32,-110,29,-10,28
1,-23,-24,11,12,-23,-237,32,-110,30,-10,29
1,-21,-22,10,12,-21,-235,32,-109,31,-9,29
1,-20,-21,9,11,-20,-233,32,-107,31,-8,30
2,-19,-21,8,12,-20,-231,33,-106,31,-7,30
3,-18,-21,7,12,-20,-230,34,-105,32,-6,31
3,-17,-21,7,12,-19,-229,35,-104,32,-6,31
4,-17,-21,7,12,-19,-229,35,-103,32,-5,32
5,-17,-21,6,12,-19,-228,35,-102,33,-4,33
6,-15,-21,5,13,-18,-228,36,-101,34,-4,34
7,-14,-21,3,14,-17,-228,36,-100,35,-3,34
7,-13,-20,3,14,-17,-229,35,-100,35,-3,35
7,-13,-20,3,13,-16,-230,34,-100,35,-3,35
8,-11,-19,2,13,-15,-231,34,-99,34,-4,34
9,-10,-19,1,14,-14,-232,35,-99,34,-3,34
10,-11,-20,1,14,-15,-232,36,-98,34,-2,34
10,-12,-21,1,15,-16,-231,36,-97,34,-1,34
10,-13,-22,1,15,-17,-230,35,-99,33,-1,33
10,-12,-21,1,15,-16,-231,32,-102,31,-3,31
9,-11,-19,1,14,-15,-232,29,-105,30,-5,30
8,-10,-18,1,14,-14,-232,27,-106,29,-7,29
8,-11,-19,1,14,-14,-231,27,-107,29,-7,29
8,-12,-20,1,15,-15,-230,27,-107,28,-7,29
7,-13,-20,2,14,-16,-228,27,-107,28,-7,28
5,-15,-21,4,13,-17,-226,26,-107,27,-8,27
3,-18,-21,7,12,-19,-224,25,-109,26,-10,25
1,-19,-20,8,11,-18,-223,24,-110,25,-12,23
0,-19,-18,9,10,-18,-222,23,-111,25,-14,21
0,-19,-18,9,9,-18,-221,23,-112,24,-15,20
0,-19,-19,10,9,-18,-220,22,-113,23,-16,19
0,-20,-20,11,10,-20,-220,21,-114,21,-17,17
-1,-21,-20,12,9,-20,-220,21,-115,20,-19,16
-3,-22,-20,13,8,-20,-219,20,-116,19,-20,14
-4,-23,-19,14,7,-21,-218,20,-117,18,-22,14
-5,-24,-19,15,7,-21,-218,19,-118,17,-23,13
-5,-25,-19,15,7,-22,-217,19,-118,17,-23,13
-4,-24,-19,15,8,-22,-217,19,-118,17,-23,13
-4,-24,-19,14,8,-22,-217,19,-118,18,-23,13
-4,-24,-21,14,8,-22,-217,19,-118,18,-23,13
-4,-26,-23,15,9,-24,-217,20,-117,18,-22,14
-4,-28,-24,16,9,-25,-215,20,-117,18,-22,15
-3,-29,-26,16,10,-27,-214,21,-116,18,-21,16
-3,-29,-26,16,11,-28,-214,21,-116,19,-21,17
-3,-29,-26,16,11,-27,-213,21,-116,19,-21,18
-4,-29,-24,16,10,-26,-213,20,-117,19,-21,19
-5,-28,-23,17,9,-25,-212,20,-117,19,-22,19
-5,-27,-21,16,9,-24,-212,19,-118,18,-22,18
-4,-25,-20,15,8,-22,-212,18,-119,16,-23,18
-4,-24,-20,14,8,-21,-212,18,-120,16,-23,19
-4,-23,-20,14,7,-21,-211,18,-120,16,-23,19
-3,-22,-19,13,7,-20,-211,18,-120,15,-23,19
-3,-22,-18,13,7,-20,-211,18,-120,15,-23,19
-4,-26,-21,15,8,-23,-209,20,-118,17,-22,20
-5,-29,-23,17,9,-25,-207,23,-116,18,-20,21
-6,-29,-23,17,9,-25,-206,24,-115,19,-19,21
-6,-29,-22,17,8,-25,-205,24,-115,18,-19,22
-5,-27,-22,16,7,-24,-204,24,-114,18,-18,22
-5,-25,-21,15,7,-22,-204,24,-113,18,-18,22
-4,-24,-21,14,8,-22,-202,26,-110,19,-17,22
-4,-26,-22,15,9,-24,-200,29,-106,23,-14,22
-5,-27,-22,16,8,-24,-196,33,-101,28,-11,23
-8,-26,-18,17,5,-22,-192,37,-97,31,-9,23
-9,-22,-12,16,1,-17,-189,38,-94,35,-6,23
-9,-18,-8,14,0,-13,-188,40,-89,41,-1,25
-8,-15,-7,12,0,-11,-188,44,-83,49,8,31
-4,-11,-7,8,1,-9,-189,46,-77,59,22,41
1,-6,-8,3,4,-7,-193,47,-70,70,40,55
8,-1,-9,-3,9,-5,-198,49,-62,85,62,72
17,4,-13,-11,15,-4,-204,55,-48,104,90,93
29,12,-16,-21,23,-2,-210,64,-31,125,121,116
41,21,-19,-32,31,1,-215,76,-12,147,151,138
53,30,-22,-41,38,3,-219,93,12,172,183,159
63,38,-24,-50,44,6,-221,114,42,200,216,181
71,49,-22,-59,47,13,-222,137,74,226,245,199
75,58,-18,-66,47,20,-221,160,104,244,261,211
76,57,-20,-66,48,19,-216,182,129,249,258,213
75,47,-29,-61,52,9,-209,201,147,240,234,204
70,31,-39,-50,55,-4,-199,212,154,216,192,183
58,12,-45,-35,51,-16,-186,212,143,179,133,144
38,-6,-43,-16,40,-24,-169,197,115,138,70,94
15,-20,-36,3,25,-28,-152,173,79,100,19,49
-4,-29,-26,17,10,-28,-136,149,44,71,-14,16
-18,-35,-18,27,-1,-26,-121,133,19,52,-35,-11
-30,-38,-9,34,-10,-23,-108,122,-2,38,-48,-30
-38,-38,0,38,-19,-19,-96,112,-23,25,-55,-41
-44,-38,6,41,-25,-16,-84,105,-42,13,-60,-48
-48,-39,10,43,-29,-15,-73,100,-57,4,-63,-51
-50,-43,9,46,-30,-16,-63,94,-69,-2,-64,-53
-53,-46,8,50,-31,-18,-54,86,-81,-7,-64,-53
-56,-48,9,52,-33,-19,-46,79,-91,-12,-64,-52
-58,-48,9,54,-34,-19,-40,73,-97,-13,-62,-50
-58,-47,10,53,-34,-18,-36,68,-101,-12,-59,-48
-56,-44,11,50,-33,-16,-36,62,-103,-11,-56,-45
-54,-42,12,48,-32,-15,-39,54,-106,-10,-53,-42
-51,-39,12,45,-32,-13,-45,45,-110,-10,-49,-38
-48,-35,14,41,-32,-10,-52,35,-113,-10,-46,-35
-46,-29,17,38,-32,-6,-63,24,-117,-10,-43,-32
-43,-24,18,34,-32,-2,-75,14,-122,-10,-40,-28
-41,-21,18,31,-30,-1,-86,7,-125,-10,-38,-25
-38,-20,16,29,-27,-1,-96,1,-126,-10,-34,-22
-34,-21,12,28,-23,-4,-106,-1,-127,-9,-31,-18
-30,-22,7,26,-18,-7,-115,-2,-126,-8,-26,-14
-26,-23,3,25,-14,-10,-123,0,-124,-6,-22,-10
-21,-23,-1,22,-10,-12,-130,2,-121,-4,-19,-8
-17,-24,-5,21,-6,-14,-134,6,-118,-2,-17,-6
-14,-26,-11,20,-2,-18,-137,9,-115,-1,-16,-4
-12,-27,-15,20,1,-21,-140,11,-113,-1,-15,-3
-11,-29,-18,21,3,-23,-141,13,-111,0,-14,-2
-12,-31,-20,22,4,-25,-142,13,-110,0,-12,0
-11,-32,-21,21,6,-26,-143,13,-110,1,-11,0
-8,-31,-22,19,7,-26,-144,13,-109,1,-11,1
-7,-28,-20,18,6,-24,-145,13,-109,2,-11,1
-7,-27,-17,17,4,-21,-145,13,-108,2,-11,0
-8,-27,-17,18,4,-21,-145,13,-108,2,-12,0
-8,-28,-19,18,5,-23,-145,14,-108,2,-12,0
-7,-28,-21,18,7,-24,-145,14,-107,2,-13,-1
-6,-28,-23,17,8,-25,-145,14,-107,2,-13,-1
-7,-29,-22,18,8,-25,-144,14,-107,2,-14,0
-8,-28,-21,18,6,-24,-143,15,-106,2,-14,0
-7,-27,-20,17,6,-23,-142,15,-107,3,-14,0
-5,-27,-21,16,8,-24,-141,15,-107,3,-15,0
-3,-27,-23,16,9,-25,-140,15,-106,3,-15,0
-4,-26,-23,15,9,-24,-139,16,-105,4,-16,0
-5,-26,-21,15,9,-23,-139,16,-105,3,-16,-1
-5,-25,-21,15,8,-23,-138,16,-105,3,-17,-2
-5,-26,-22,15,8,-24,-138,16,-105,3,-17,-2
-5,-27,-22,16,8,-25,-137,16,-104,4,-17,-1
-6,-29,-23,18,8,-26,-135,17,-103,5,-17,0
-6,-32,-24,19,9,-28,-133,18,-102,7,-16,1
-6,-33,-25,20,9,-29,-132,18,-101,7,-15,2
-6,-32,-25,19,9,-29,-131,18,-101,8,-15,3
-6,-32,-26,19,10,-29,-130,18,-100,8,-15,4
-5,-32,-28,19,11,-30,-130,18,-100,9,-14,5
-4,-30,-27,17,11,-28,-130,18,-100,8,-15,4
-4,-28,-24,16,10,-26,-130,17,-100,8,-15,4
-4,-27,-23,17,9,-25,-129,18,-99,9,-15,4
-5,-29,-23,18,9,-26,-127,19,-98,9,-15,5
-5,-31,-24,19,9,-27,-126,20,-97,10,-15,5
-5,-31,-24,19,9,-28,-125,19,-97,10,-15,4
-5,-30,-24,18,9,-27,-124,19,-96,9,-16,4
-6,-28,-22,17,8,-25,-124,19,-96,9,-15,3
-6,-28,-23,17,8,-25,-123,21,-95,10,-14,3
-6,-29,-24,17,9,-26,-122,22,-95,10,-14,4
-6,-29,-24,18,10,-26,-121,23,-94,11,-13,4
-5,-30,-25,17,10,-27,-120,23,-92,12,-12,5
-2,-30,-27,16,12,-28,-119,24,-92,12,-12,5
-2,-30,-27,17,12,-28,-118,24,-91,12,-12,4
-4,-31,-26,18,10,-28,-117,26,-89,13,-12,5
-6,-32,-26,20,9,-29,-115,27,-87,13,-11,5
-7,-32,-26,20,9,-29,-115,28,-87,13,-11,5
-6,-31,-26,18,9,-28,-114,27,-87,12,-11,5
-6,-30,-25,17,9,-27,-114,28,-86,12,-11,5
-6,-30,-24,18,9,-27,-112,29,-85,13,-9,6
-5,-31,-25,18,10,-28,-111,31,-84,13,-8,6
-2,-32,-28,17,13,-29,-111,32,-84,14,-8,6
-1,-32,-30,17,14,-31,-110,33,-83,14,-7,5
-2,-32,-30,18,13,-31,-109,35,-81,15,-6,4
-3,-31,-28,18,12,-29,-108,36,-80,16,-6,3
-4,-31,-27,17,11,-29,-108,37,-78,16,-5,2
-5,-32,-28,18,11,-30,-107,38,-76,17,-4,2
-5,-35,-30,20,12,-32,-105,40,-74,19,-2,3
-4,-36,-32,20,14,-34,-104,42,-72,20,0,4
-3,-37,-33,20,15,-35,-103,44,-70,21,0,4
-3,-38,-34,21,16,-36,-102,47,-67,22,2,5
-2,-38,-35,20,16,-37,-102,49,-64,23,3,5
-1,-35,-34,18,16,-34,-102,51,-62,23,4,4
0,-30,-30,15,15,-30,-103,52,-60,24,4,3
0,-27,-28,13,14,-27,-104,53,-58,25,5,3
0,-27,-28,13,14,-27,-103,56,-55,27,6,3
1,-26,-27,13,14,-26,-103,58,-52,27,7,2
2,-25,-26,11,14,-25,-103,59,-50,26,7,1
3,-24,-27,11,15,-25,-103,61,-47,27,9,1
4,-24,-27,10,15,-25,-103,63,-45,28,10,1
5,-23,-28,10,16,-26,-103,65,-42,30,11,1
5,-23,-28,9,16,-25,-102,67,-40,32,13,2
4,-22,-27,9,15,-24,-102,68,-38,33,15,2
4,-23,-27,9,14,-24,-102,69,-36,34,16,3
4,-23,-26,9,15,-24,-102,70,-35,35,17,3
5,-22,-27,8,16,-24,-103,70,-34,35,18,4
7,-21,-27,7,17,-23,-103,70,-34,36,20,6
8,-19,-27,6,17,-23,-104,70,-33,37,21,7
9,-18,-27,5,18,-22,-104,70,-33,37,22,8
9,-17,-27,4,18,-22,-103,69,-33,37,22,9
9,-17,-26,4,17,-21,-102,68,-33,37,22,10
9,-16,-26,3,17,-21,-102,67,-33,37,22,10
11,-13,-24,1,18,-19,-102,65,-34,37,22,11
11,-11,-21,0,16,-16,-102,63,-35,37,22,11
10,-10,-19,0,14,-14,-102,61,-36,37,23,11
10,-9,-18,0,14,-14,-101,59,-37,37,23,12
10,-8,-18,-1,13,-13,-101,56,-38,36,22,12
9,-8,-18,0,13,-13,-100,54,-40,35,21,12
9,-9,-20,0,14,-14,-99,52,-42,35,20,12
10,-10,-21,0,15,-15,-97,50,-44,34,19,12
9,-10,-20,0,15,-15,-95,47,-46,33,17,12
8,-11,-19,1,14,-14,-93,44,-49,31,15,12
6,-11,-17,2,12,-13,-92,40,-52,29,13,11
5,-11,-16,3,11,-13,-91,37,-55,27,10,11
4,-12,-16,4,10,-13,-89,35,-56,25,8,10
2,-12,-15,5,8,-13,-87,34,-58,24,7,10
1,-12,-14,5,8,-12,-85,32,-60,23,6,9
2,-11,-14,5,8,-12,-84,29,-62,22,4,7
3,-11,-16,4,10,-13,-83,26,-64,20,1,6
4,-12,-17,4,10,-14,-81,24,-66,19,0,5
3,-13,-17,6,10,-15,-79,24,-67,18,-1,4
0,-15,-16,8,8,-16,-77,23,-68,17,-3,3
-1,-16,-15,9,7,-16,-76,22,-69,15,-5,2
-1,-16,-15,9,7,-16,-75,21,-70,14,-7,1
-1,-17,-16,9,7,-16,-73,20,-71,13,-8,1
-2,-17,-16,10,7,-16,-72,18,-72,12,-9,0
-2,-17,-15,9,6,-16,-72,17,-74,10,-10,-1
-3,-15,-14,9,6,-15,-71,16,-75,10,-11,-2
-4,-15,-12,9,5,-14,-70,16,-75,10,-12,-3
-3,-14,-11,9,4,-13,-69,15,-76,9,-12,-3
-1,-14,-12,8,5,-13,-68,15,-76,9,-13,-3
-1,-15,-13,8,6,-14,-67,15,-75,9,-13,-2
-2,-16,-13,9,5,-14,-65,16,-75,9,-12,-1
-3,-16,-13,10,5,-14,-64,15,-75,9,-12,-1
-3,-15,-12,9,4,-14,-63,15,-76,9,-12,-2
-4,-15,-12,10,4,-14,-63,14,-76,8,-13,-2
-4,-16,-12,10,4,-14,-62,14,-77,8,-13,-3
-5,-15,-10,10,2,-12,-61,13,-77,7,-14,-3
-5,-14,-9,10,1,-11,-60,13,-77,8,-13,-3
-4,-15,-10,10,3,-13,-59,13,-76,8,-12,-2
-3,-17,-13,10,4,-15,-57,13,-76,9,-12,-2
-3,-17,-14,10,5,-15,-56,14,-75,9,-11,-1
-3,-17,-14,10,6,-15,-55,14,-75,10,-10,-1
-3,-18,-15,10,6,-16,-54,15,-74,10,-10,0
-2,-18,-16,10,7,-17,-53,15,-73,10,-9,0
-2,-17,-14,10,6,-15,-52,15,-73,10,-9,0
-3,-15,-12,10,4,-14,-51,15,-73,10,-9,-1
-3,-15,-12,10,4,-14,-51,15,-73,10,-9,-1
-2,-16,-14,9,6,-15,-50,15,-72,10,-8,-1
-2,-16,-15,9,6,-15,-49,15,-72,10,-8,-1
-3,-17,-14,10,6,-15,-47,15,-72,10,-7,-1
-3,-16,-13,9,5,-14,-46,15,-72,11,-7,-1
-3,-15,-13,8,5,-14,-46,15,-72,11,-6,-1
-2,-15,-14,8,6,-14,-45,15,-71,11,-6,0
-2,-15,-13,9,6,-14,-44,15,-71,11,-6,0
-2,-15,-13,9,5,-14,-44,15,-71,11,-6,0
-2,-15,-13,9,5,-14,-43,14,-71,11,-6,0
-2,-17,-14,9,6,-15,-43,13,-70,11,-6,0
-2,-18,-15,10,6,-16,-42,13,-70,10,-6,0
-2,-18,-16,9,7,-16,-41,14,-70,10,-6,0
-1,-18,-16,9,7,-16,-40,14,-70,10,-7,0
-1,-19,-18,10,8,-18,-39,15,-69,11,-6,0
-2,-24,-21,13,9,-22,-38,17,-68,12,-6,0
-3,-27,-23,15,9,-25,-36,18,-68,12,-6,0
-4,-25,-21,15,8,-23,-36,17,-68,10,-7,-1
-4,-20,-15,12,5,-17,-37,16,-69,9,-8,-3
-2,-14,-12,8,5,-13,-39,14,-71,8,-9,-4
0,-11,-11,5,5,-10,-40,12,-72,7,-11,-6
0,-10,-11,4,6,-10,-39,11,-72,7,-11,-6
0,-11,-12,5,6,-11,-38,11,-72,7,-10,-5
0,-13,-13,6,6,-13,-37,11,-71,8,-10,-5
0,-14,-13,7,6,-14,-36,11,-71,8,-9,-4
-1,-15,-13,8,5,-14,-35,11,-70,8,-9,-4
-2,-15,-13,8,5,-14,-34,11,-70,8,-10,-4
-2,-15,-13,9,5,-14,-33,11,-70,8,-10,-4
-2,-16,-14,9,6,-15,-32,11,-70,8,-11,-3
-2,-17,-15,10,6,-16,-31,11,-70,8,-11,-3
-2,-16,-15,9,6,-15,-31,11,-70,7,-11,-4
-2,-15,-14,9,5,-14,-31,10,-70,6,-12,-5
-2,-15,-13,9,5,-14,-31,9,-70,6,-12,-5
-3,-15,-12,9,4,-14,-30,9,-69,6,-12,-5
-3,-14,-11,9,3,-13,-30,9,-69,6,-12,-5
-3,-14,-11,9,4,-13,-30,9,-68,6,-12,-5
-2,-14,-11,8,4,-13,-29,9,-68,6,-12,-5
-3,-15,-12,9,4,-14,-29,9,-67,7,-12,-5
-3,-17,-14,10,5,-15,-28,8,-67,7,-11,-4
-3,-17,-14,10,5,-15,-28,8,-67,6,-11,-5
-3,-17,-13,10,5,-15,-28,7,-68,4,-13,-5
-3,-17,-13,10,5,-15,-27,6,-68,3,-14,-6
-2,-18,-15,11,6,-17,-26,6,-67,3,-14,-6
-2,-20,-17,11,8,-19,-25,6,-67,3,-14,-5
-2,-20,-18,11,8,-20,-24,7,-67,3,-14,-5
-2,-20,-17,11,7,-19,-23,7,-67,4,-14,-5
-3,-19,-15,11,6,-17,-23,8,-67,4,-14,-5
-4,-18,-14,11,4,-15,-22,8,-66,4,-14,-5
-3,-18,-14,11,5,-15,-22,8,-66,4,-15,-6
-3,-19,-16,11,6,-17,-21,8,-66,3,-16,-6
-3,-19,-16,11,6,-17,-21,7,-67,2,-16,-7
-3,-18,-15,11,6,-16,-21,7,-67,2,-16,-7
-1,-16,-15,9,7,-16,-21,6,-67,2,-16,-8
0,-16,-15,9,7,-16,-21,5,-67,2,-16,-8
-1,-16,-14,9,6,-15,-19,5,-66,3,-16,-8
-2,-15,-12,9,4,-13,-19,5,-66,3,-15,-7
-2,-13,-9,8,3,-11,-19,5,-65,3,-15,-7
-1,-10,-8,7,3,-9,-20,5,-65,4,-14,-7
0,-8,-8,5,3,-8,-21,6,-63,5,-12,-5
1,-7,-8,4,4,-8,-20,8,-61,7,-10,-4
3,-7,-9,2,6,-9,-20,9,-60,9,-8,-2
5,-6,-11,0,7,-9,-21,9,-59,11,-6,-1
5,-5,-10,0,7,-8,-21,10,-58,12,-5,0
4,-6,-10,0,6,-7,-21,11,-56,13,-4,0
5,-6,-10,0,7,-7,-22,12,-55,14,-4,0
6,-4,-10,0,8,-6,-23,12,-55,14,-5,1
6,-4,-9,0,7,-6,-25,12,-56,14,-5,1
5,-4,-9,0,7,-6,-26,12,-56,14,-5,1
5,-3,-8,0,6,-5,-26,12,-55,14,-4,2
6,-2,-8,-1,6,-5,-27,13,-54,15,-3,3
6,-3,-9,-1,7,-5,-28,12,-54,16,-2,4
6,-5,-11,-1,8,-7,-28,11,-54,15,-3,4
7,-6,-12,0,9,-8,-28,9,-56,13,-4,2
7,-5,-11,-1,9,-7,-28,7,-58,12,-6,1
8,-3,-11,-2,10,-6,-28,5,-60,11,-6,0
9,-2,-11,-3,10,-6,-28,4,-61,10,-7,0
8,-1,-9,-3,8,-5,-27,3,-62,9,-7,-1
6,-1,-8,-2,6,-4,-25,3,-62,9,-7,-1
4,-5,-9,0,6,-7,-23,4,-62,9,-7,-1
2,-11,-13,4,6,-11,-20,4,-62,9,-7,-1
1,-15,-15,7,7,-14,-18,4,-62,9,-8,-2
0,-15,-13,8,6,-14,-17,3,-63,8,-8,-3
-2,-13,-9,8,3,-11,-17,2,-64,7,-9,-4
-3,-12,-8,8,3,-10,-17,1,-65,6,-10,-5
-3,-13,-9,9,3,-11,-16,1,-66,6,-11,-6
-4,-14,-10,10,3,-12,-16,1,-67,5,-12,-7
-5,-16,-11,11,3,-14,-16,0,-67,5,-13,-8
-5,-17,-12,11,3,-14,-16,0,-68,4,-13,-8
-5,-17,-12,10,2,-14,-17,0,-69,3,-14,-9
-5,-17,-12,11,2,-14,-17,0,-70,3,-15,-10
-4,-18,-13,12,3,-15,-17,0,-70,3,-15,-10
-4,-19,-14,12,4,-16,-17,0,-69,4,-15,-10
-5,-20,-15,13,4,-17,-16,1,-68,4,-15,-10
-6,-21,-15,14,4,-18,-16,1,-67,5,-15,-10
-6,-20,-14,13,4,-17,-16,1,-67,5,-15,-10
-5,-19,-13,12,4,-16,-17,1,-67,4,-16,-10
-5,-17,-12,11,3,-14,-17,0,-68,4,-16,-10
-5,-17,-11,11,3,-14,-17,0,-68,4,-16,-10
-6,-18,-12,12,3,-14,-17,0,-67,4,-15,-9
-6,-19,-13,12,3,-16,-17,1,-67,4,-15,-9
-5,-19,-14,12,4,-16,-17,2,-67,4,-16,-10
-5,-19,-14,12,4,-16,-18,2,-67,4,-16,-10
-5,-19,-15,12,5,-17,-18,2,-66,5,-15,-10
-4,-19,-15,12,5,-17,-18,2,-66,5,-15,-10
-4,-19,-15,11,5,-17,-18,2,-66,5,-15,-10
-4,-18,-14,11,4,-16,-17,2,-65,5,-14,-9
-4,-19,-14,11,4,-16,-16,3,-63,7,-12,-7
-4,-19,-13,11,4,-16,-15,4,-62,9,-10,-6
-4,-18,-13,11,4,-15,-15,4,-61,10,-9,-5
-4,-17,-12,11,4,-15,-15,3,-60,10,-8,-4
-4,-17,-12,11,4,-14,-15,4,-60,11,-7,-3
-4,-16,-12,10,4,-14,-14,6,-58,12,-6,-2
-5,-16,-11,10,3,-14,-13,9,-54,15,-4,-1
-6,-15,-9,11,2,-13,-12,14,-49,19,-2,-1
-7,-13,-6,10,0,-10,-10,17,-45,23,0,-2
-7,-12,-4,10,-1,-8,-8,20,-41,26,2,-3
-8,-11,-3,10,-2,-7,-6,23,-37,32,6,-2
-7,-11,-3,10,-2,-7,-5,27,-30,41,15,3
-5,-8,-3,7,-1,-6,-6,30,-24,50,26,10
0,-4,-4,2,2,-4,-9,31,-18,59,40,20
6,-1,-7,-2,6,-4,-13,32,-12,71,59,35
14,2,-11,-8,12,-4,-18,35,-3,85,82,54
25,10,-14,-18,19,-1,-25,40,10,103,110,75
36,20,-15,-28,26,2,-32,49,26,124,141,97
47,29,-16,-38,31,6,-37,63,46,147,173,120
57,39,-18,-48,37,10,-41,81,73,175,207,144
67,49,-18,-58,42,15,-44,102,103,203,240,167
74,57,-17,-66,45,20,-45,123,133,226,263,185
78,61,-18,-70,48,21,-43,144,159,237,270,194
80,55,-25,-68,53,15,-39,164,180,234,255,193
77,43,-35,-61,56,4,-32,179,194,219,222,180
71,27,-43,-49,57,-8,-23,185,196,192,173,153
57,11,-45,-34,51,-17,-10,177,179,155,111,108
37,-3,-39,-16,38,-21,4,157,146,116,51,56
14,-14,-28,0,21,-21,20,134,110,82,6,14
-4,-21,-17,13,7,-20,35,116,81,59,-23,-17
-19,-26,-8,22,-5,-17,48,106,61,44,-40,-42
-29,-27,1,28,-15,-13,60,98,43,32,-50,-58
-36,-28,8,31,-22,-10,70,90,23,19,-57,-68
-40,-31,10,35,-25,-11,79,85,7,8,-61,-74
-42,-33,10,38,-26,-12,89,81,-4,2,-61,-76
-44,-34,12,40,-28,-11,97,76,-16,-2,-60,-77
-46,-34,13,41,-30,-10,105,68,-28,-8,-61,-78
-48,-34,14,42,-31,-10,112,62,-38,-12,-62,-79
-50,-34,15,43,-32,-10,118,57,-44,-12,-59,-77
-51,-36,14,44,-32,-12,122,53,-46,-10,-54,-72
-50,-36,14,43,-32,-12,122,47,-50,-9,-50,-67
-48,-30,17,39,-32,-7,117,39,-55,-10,-47,-62
-45,-24,21,35,-33,-2,110,30,-60,-10,-44,-58
-42,-22,21,33,-32,0,100,22,-63,-9,-40,-53
-39,-21,19,31,-29,-1,89,14,-66,-8,-36,-47
-36,-20,16,29,-26,-1,78,6,-68,-8,-32,-41
-34,-18,15,27,-24,-2,67,0,-71,-8,-29,-35
-31,-17,13,25,-22,-2,56,-4,-73,-7,-26,-30
-28,-16,12,22,-20,-3,47,-8,-74,-7,-24,-27
-25,-14,11,19,-18,-2,38,-10,-74,-6,-21,-24
-21,-12,10,17,-16,-2,31,-9,-73,-5,-18,-21
-17,-14,4,16,-11,-5,26,-5,-69,-2,-14,-18
-13,-17,-3,16,-5,-10,22,-1,-65,0,-11,-16
-10,-19,-9,16,0,-14,19,2,-62,1,-9,-15
-9,-20,-12,15,2,-16,17,4,-60,1,-8,-14
-8,-19,-12,14,2,-16,15,4,-60,2,-8,-15
-7,-17,-10,12,2,-14,13,3,-60,2,-8,-15
-6,-14,-7,10,0,-11,11,1,-61,2,-7,-15
-7,-13,-4,10,-2,-8,11,0,-61,2,-6,-14
-7,-14,-5,11,-1,-9,11,0,-60,2,-5,-13
-5,-16,-9,11,2,-12,11,0,-59,3,-4,-12
-3,-15,-11,10,4,-13,11,0,-58,3,-4,-12
-3,-14,-11,9,4,-12,11,1,-58,3,-3,-11
-4,-14,-11,10,4,-13,13,2,-57,3,-3,-10
-4,-16,-12,10,4,-14,14,3,-57,4,-2,-9
-4,-17,-13,10,4,-15,15,3,-56,4,-1,-9
-4,-17,-13,10,4,-15,15,4,-56,4,-1,-8
-3,-18,-14,10,5,-16,15,4,-56,5,-1,-8
-3,-18,-15,10,6,-17,16,5,-55,5,0,-7
-3,-18,-15,10,6,-17,16,6,-53,6,1,-7
-3,-18,-16,10,7,-17,17,7,-52,6,2,-6
-3,-19,-16,11,7,-18,17,8,-51,7,2,-5
-5,-19,-14,11,5,-17,18,8,-51,7,3,-5
-5,-18,-13,11,4,-15,18,8,-51,7,3,-4
-4,-19,-14,11,5,-16,17,8,-51,7,3,-4
-3,-20,-16,11,6,-18,17,8,-50,6,3,-4
-3,-20,-17,11,7,-19,18,8,-50,7,3,-4
-3,-18,-16,11,7,-18,18,8,-50,7,3,-4
-3,-18,-16,11,7,-17,18,8,-49,7,3,-4
-2,-19,-18,11,8,-18,18,9,-48,8,5,-2
-1,-20,-19,11,9,-19,19,10,-47,8,6,-1
-1,-21,-20,11,9,-20,19,10,-47,8,6,-2
-1,-21,-19,11,9,-20,19,10,-47,7,5,-3
-2,-19,-17,11,8,-18,19,10,-47,7,5,-4
-2,-18,-15,11,7,-17,19,10,-46,8,6,-5
-2,-18,-15,11,6,-17,20,10,-45,9,7,-4
-3,-18,-15,11,6,-16,20,10,-44,9,8,-3
-2,-17,-14,10,5,-15,20,9,-44,9,9,-4
-1,-15,-13,8,6,-14,20,9,-44,8,10,-4
0,-14,-13,7,6,-14,19,9,-43,9,10,-3
0,-14,-13,7,6,-14,20,10,-43,9,10,-3
-1,-12,-11,6,5,-12,21,11,-42,9,10,-4
-1,-11,-10,6,4,-11,22,12,-41,9,10,-6
-1,-13,-12,7,5,-13,23,14,-40,10,12,-6
0,-15,-14,8,7,-15,24,15,-39,11,13,-5
0,-15,-15,8,7,-15,24,16,-38,11,14,-5
0,-14,-14,7,7,-14,25,16,-38,11,15,-5
-2,-14,-12,8,6,-13,25,16,-37,11,16,-4
-3,-15,-12,9,5,-13,26,17,-37,12,17,-4
-3,-15,-12,9,5,-14,26,17,-36,13,18,-3
-2,-15,-12,9,5,-14,27,18,-34,14,19,-2
0,-15,-14,8,7,-15,28,20,-32,16,21,-1
0,-16,-16,9,8,-16,29,21,-30,17,22,-2
0,-17,-17,9,9,-17,29,21,-29,16,21,-3
2,-18,-20,8,11,-19,30,22,-28,16,22,-4
2,-19,-23,9,12,-21,32,24,-26,18,24,-3
2,-21,-24,9,13,-22,34,27,-24,21,27,-1
2,-21,-24,9,13,-22,36,29,-22,22,29,0
3,-20,-23,9,13,-21,37,30,-20,23,30,1
3,-18,-21,8,13,-20,37,31,-17,24,32,2
3,-17,-19,7,11,-18,37,32,-15,25,33,3
2,-16,-18,7,10,-17,37,33,-13,26,35,3
3,-15,-18,6,10,-17,37,35,-10,27,36,2
4,-15,-18,5,11,-17,37,37,-8,28,37,2
4,-16,-20,6,12,-18,37,39,-5,30,38,2
4,-18,-22,7,13,-21,38,42,-1,33,41,3
5,-19,-24,7,14,-22,39,45,2,36,43,4
6,-19,-25,7,15,-22,40,47,6,38,46,5
6,-19,-25,6,16,-22,40,48,9,41,49,5
7,-17,-24,5,15,-20,40,50,13,43,51,6
7,-14,-22,4,15,-18,39,51,15,44,52,6
7,-12,-20,3,14,-16,39,53,17,45,54,7
8,-11,-18,2,14,-15,38,54,19,47,55,7
8,-10,-19,1,14,-15,37,55,21,48,57,8
9,-11,-20,1,15,-16,36,57,23,50,59,10
9,-12,-21,1,15,-16,36,58,26,52,62,12
10,-12,-21,1,16,-17,36,58,28,53,64,13
11,-10,-21,0,16,-16,35,57,28,53,64,13
12,-8,-20,-2,16,-14,35,56,28,52,64,13
12,-6,-18,-3,16,-13,35,56,27,51,64,13
13,-5,-18,-4,16,-12,35,56,28,52,65,15
14,-5,-19,-4,17,-12,36,56,28,53,66,17
14,-6,-19,-4,17,-13,37,55,28,53,67,18
13,-5,-17,-4,15,-11,37,53,26,52,67,18
13,-2,-15,-5,14,-9,37,51,24,51,67,18
13,0,-13,-7,14,-7,37,50,22,49,66,18
14,2,-11,-8,13,-5,38,48,19,47,64,18
13,3,-9,-9,12,-3,39,46,17,45,63,18
12,4,-8,-8,11,-2,41,45,15,44,61,18
12,4,-7,-8,10,-1,42,43,12,43,60,17
13,5,-7,-8,10,-1,43,41,8,40,57,16
13,4,-8,-8,10,-2,45,38,5,37,54,14
11,3,-7,-7,9,-2,47,36,3,34,51,13
9,3,-6,-6,8,-1,49,34,0,32,49,11
8,3,-5,-5,7,-1,51,31,-3,29,46,9
7,1,-5,-4,7,-2,52,29,-6,27,43,8
6,-2,-6,-1,7,-5,54,27,-8,25,41,7
4,-3,-5,0,6,-5,54,25,-10,24,38,5
3,-2,-3,0,4,-3,54,23,-13,21,36,3
2,-1,-2,0,3,-2,54,20,-16,18,33,0
3,-1,-3,0,3,-2,53,19,-19,14,30,-1
3,-2,-4,0,4,-3,53,18,-21,12,28,-3
3,-4,-6,1,5,-5,53,17,-22,11,27,-4
2,-4,-6,1,4,-6,53,17,-23,10,25,-5
2,-4,-5,1,4,-5,53,16,-24,9,23,-7
2,-5,-5,1,4,-6,53,16,-25,8,22,-8
1,-7,-6,3,4,-7,54,15,-26,8,22,-8
0,-8,-6,4,3,-8,54,14,-27,7,21,-9
0,-8,-7,4,3,-8,54,14,-28,6,20,-10
0,-8,-7,4,3,-8,54,13,-29,5,18,-11
-1,-8,-7,4,3,-8,54,13,-29,4,18,-11
-2,-8,-7,5,2,-8,54,12,-30,3,17,-12
-2,-8,-7,5,2,-8,54,11,-31,1,16,-13
-1,-9,-8,5,3,-9,54,11,-31,1,16,-13
-1,-11,-9,6,4,-10,55,11,-31,1,16,-13
-1,-10,-8,6,3,-9,55,11,-32,1,15,-13
0,-8,-6,5,3,-7,54,10,-32,0,14,-14
-1,-7,-5,4,2,-6,53,10,-32,0,13,-14
-2,-6,-4,4,1,-5,53,10,-32,0,13,-14
-1,-6,-5,3,1,-5,53,10,-31,0,13,-14
0,-7,-8,3,3,-7,54,11,-30,0,13,-14
1,-9,-9,3,5,-9,54,11,-29,0,14,-14
0,-9,-9,4,4,-9,54,11,-30,0,13,-15
0,-9,-8,5,4,-9,54,11,-30,0,13,-16
0,-9,-8,5,4,-8,54,11,-30,0,13,-15
-1,-10,-7,6,3,-8,54,11,-29,2,14,-15
-2,-11,-8,7,3,-9,54,12,-28,3,14,-15
-1,-11,-10,7,4,-11,53,12,-28,3,14,-15
0,-11,-11,6,5,-11,52,13,-28,2,14,-14
0,-9,-9,4,5,-10,51,13,-28,1,14,-14
0,-7,-6,3,4,-7,51,12,-29,1,14,-15
0,-5,-5,2,3,-5,50,12,-29,1,14,-15
0,-5,-4,2,3,-5,49,12,-28,1,14,-15
0,-4,-4,2,3,-4,49,12,-28,1,13,-15
0,-6,-6,3,3,-6,49,12,-29,1,11,-14
0,-9,-9,5,4,-9,49,13,-28,1,11,-13
0,-10,-10,6,5,-10,49,14,-28,2,11,-12
-1,-11,-10,6,5,-11,49,14,-27,2,12,-12
-1,-11,-9,6,4,-10,49,14,-28,3,13,-12
-1,-10,-8,6,4,-10,48,14,-29,3,12,-12
0,-10,-9,5,4,-10,47,14,-29,3,11,-12
0,-10,-10,5,6,-11,47,14,-29,2,11,-13
1,-10,-11,5,7,-11,47,13,-29,2,10,-13
1,-9,-11,5,6,-10,46,12,-30,2,10,-13
1,-7,-9,3,5,-8,43,9,-32,0,8,-14
2,-4,-7,1,5,-6,40,7,-33,-1,6,-15
2,-3,-5,1,4,-5,39,7,-33,-2,5,-15
1,-3,-4,1,3,-4,39,7,-33,-2,5,-15
1,-4,-4,2,3,-5,40,8,-33,-2,4,-15
1,-6,-6,3,4,-6,40,9,-32,-2,4,-14
1,-7,-8,3,4,-7,41,9,-32,-2,4,-14
0,-7,-8,3,4,-7,40,9,-32,-2,3,-15
0,-6,-6,3,3,-6,40,8,-33,-3,2,-16
0,-5,-5,3,2,-5,39,7,-34,-3,0,-17
0,-4,-5,2,2,-5,38,7,-34,-3,0,-17
0,-5,-5,2,3,-6,37,7,-34,-3,0,-17
0,-7,-7,3,4,-8,37,7,-34,-3,0,-16
0,-7,-7,4,4,-8,37,8,-34,-3,0,-16
0,-5,-6,3,3,-6,36,7,-35,-4,0,-17
0,-3,-4,2,2,-4,36,6,-36,-5,-1,-17
-1,-2,-2,2,1,-2,35,5,-37,-6,-3,-17
-2,-4,-3,3,1,-3,35,5,-37,-6,-3,-17
-1,-6,-5,4,2,-6,36,5,-37,-5,-3,-16
0,-7,-6,4,4,-7,36,5,-37,-5,-3,-16
0,-7,-7,4,4,-8,36,4,-38,-6,-4,-17
0,-8,-7,4,4,-8,36,4,-38,-6,-4,-17
0,-6,-5,3,3,-6,36,4,-38,-7,-4,-17
0,-5,-4,3,2,-5,36,3,-38,-7,-4,-16
0,-7,-7,4,4,-7,37,3,-38,-6,-4,-16
0,-9,-10,5,5,-9,38,3,-38,-7,-4,-16
0,-9,-9,5,5,-9,38,3,-39,-7,-5,-17
-1,-9,-8,5,4,-9,38,3,-39,-8,-6,-18
-2,-10,-8,6,4,-9,38,3,-39,-8,-6,-18
-1,-10,-8,5,4,-10,38,2,-40,-9,-7,-18
0,-8,-7,4,4,-8,38,2,-41,-10,-7,-18
0,-6,-6,3,3,-7,39,1,-41,-11,-8,-18
-1,-6,-5,4,3,-6,39,1,-42,-12,-8,-19
-1,-5,-4,4,2,-5,39,0,-42,-12,-8,-19
-1,-5,-4,4,2,-5,39,0,-43,-13,-8,-20
-1,-6,-5,4,2,-6,39,0,-43,-13,-8,-20
-1,-6,-5,4,2,-6,39,0,-42,-13,-8,-20
0,-7,-5,4,2,-7,40,0,-42,-13,-8,-20
0,-7,-6,3,3,-7,41,0,-42,-13,-8,-20
0,-5,-5,2,3,-6,42,0,-42,-13,-8,-20
0,-4,-5,2,2,-5,43,1,-41,-11,-6,-19
0,-4,-5,2,3,-4,44,2,-39,-10,-4,-17
1,-3,-5,1,3,-4,45,4,-37,-9,-3,-17
1,-1,-4,0,3,-2,45,4,-37,-9,-3,-17
2,0,-2,0,2,0,45,5,-36,-8,-2,-16
2,1,-1,-1,2,0,45,5,-36,-8,-1,-15
5,1,-2,-3,4,-1,45,4,-35,-7,0,-13
7,2,-3,-4,5,-1,44,4,-35,-5,1,-11
7,4,-2,-5,5,0,43,4,-34,-5,2,-10
7,6,0,-6,4,3,43,3,-35,-5,2,-10
7,7,0,-7,3,4,42,3,-35,-6,2,-10
7,6,-1,-6,4,2,42,3,-34,-5,3,-9
8,4,-3,-6,5,0,43,5,-32,-3,5,-6
7,3,-4,-5,5,-1,44,6,-31,-3,6,-4
7,4,-2,-5,4,0,44,5,-32,-4,6,-4
8,5,-1,-6,4,1,43,3,-34,-6,4,-6
8,5,-3,-6,5,0,43,1,-35,-7,3,-7
8,2,-5,-5,6,-1,44,0,-36,-8,3,-7
7,0,-6,-3,7,-3,45,0,-36,-8,3,-7
6,0,-6,-3,6,-3,45,0,-36,-8,3,-7
6,1,-5,-3,5,-2,46,-1,-37,-9,2,-9
5,1,-4,-3,5,-2,47,-3,-38,-11,0,-11
4,1,-2,-2,3,-1,47,-5,-40,-13,-2,-14
1,1,0,-1,1,0,48,-6,-42,-15,-4,-15
-1,0,1,1,-1,0,50,-6,-42,-15,-4,-16
-3,-1,1,3,-2,-1,51,-6,-43,-16,-5,-17
-4,-3,1,4,-2,-1,52,-6,-43,-16,-6,-18
-4,-5,-1,5,-1,-3,53,-6,-44,-17,-6,-19
-4,-7,-4,6,0,-5,53,-6,-44,-17,-6,-19
-4,-9,-5,6,0,-6,54,-7,-45,-19,-7,-20
-4,-9,-4,6,0,-6,54,-8,-46,-20,-8,-20
-5,-8,-3,6,-1,-5,54,-9,-47,-20,-8,-21
-5,-8,-2,6,-1,-5,54,-9,-46,-20,-8,-21
-5,-9,-4,7,0,-6,55,-9,-46,-19,-7,-21
-4,-11,-6,7,1,-9,56,-9,-45,-19,-7,-21
-4,-10,-7,7,1,-9,55,-9,-45,-19,-7,-21
-4,-9,-6,7,0,-7,55,-9,-46,-19,-7,-21
-4,-9,-6,7,0,-7,54,-8,-46,-19,-6,-21
-4,-11,-7,8,1,-9,55,-8,-45,-18,-6,-20
-5,-13,-8,9,1,-11,55,-7,-45,-18,-5,-19
-5,-14,-8,10,2,-12,56,-7,-44,-17,-5,-19
-5,-14,-7,10,1,-11,56,-7,-45,-17,-6,-19
-5,-12,-6,9,1,-9,56,-8,-46,-18,-6,-20
-4,-11,-7,8,2,-9,55,-9,-46,-18,-6,-21
-5,-12,-8,8,2,-9,55,-9,-46,-17,-6,-21
-5,-11,-6,8,1,-8,55,-9,-46,-17,-6,-21
-5,-9,-5,7,0,-7,55,-10,-46,-17,-7,-22
-4,-9,-4,6,0,-6,54,-10,-45,-17,-7,-22
-4,-9,-4,6,0,-7,54,-9,-44,-17,-6,-21
-3,-9,-4,6,0,-7,54,-8,-44,-16,-6,-21
-4,-8,-3,6,0,-7,54,-9,-43,-16,-6,-21
-4,-7,-2,6,-1,-5,53,-9,-43,-15,-6,-21
-5,-6,-2,6,-1,-4,52,-8,-42,-14,-5,-21
-5,-8,-3,7,-1,-5,52,-7,-39,-11,-3,-19
-5,-9,-5,7,-1,-6,52,-4,-37,-9,-1,-17
-5,-10,-5,7,0,-7,53,0,-33,-6,0,-17
-5,-9,-4,7,-1,-6,53,3,-29,-2,2,-17
-6,-7,-1,6,-2,-4,54,6,-23,2,4,-17
-7,-5,2,6,-4,-2,56,9,-18,7,6,-17
-8,-4,5,6,-6,0,58,13,-13,13,10,-16
-8,-1,7,5,-6,1,58,17,-6,21,19,-12
-5,1,6,2,-5,3,56,20,0,30,31,-4
0,5,4,-2,-1,4,52,22,5,40,46,8
8,10,2,-9,3,5,46,23,12,52,65,25
18,16,-2,-17,10,6,40,26,23,69,90,46
29,22,-6,-26,17,7,32,32,37,88,119,70
39,30,-8,-35,24,10,24,40,53,109,149,93
50,40,-9,-44,30,15,18,52,72,131,180,117
60,51,-9,-55,35,21,13,69,97,157,214,140
69,62,-7,-65,38,27,9,88,126,186,247,163
75,70,-6,-72,41,32,8,109,156,211,271,181
78,72,-7,-75,42,32,9,129,182,222,278,190
77,66,-11,-71,43,27,13,146,201,219,262,187
73,53,-19,-63,46,16,19,157,213,202,225,171
65,36,-28,-50,47,3,28,159,209,171,169,138
50,17,-32,-33,41,-7,41,150,187,129,102,88
28,0,-28,-14,29,-14,57,131,152,87,40,35
7,-13,-21,3,15,-17,73,111,117,54,-3,-5
-9,-22,-14,16,2,-18,88,97,92,33,-29,-35
-22,-25,-4,24,-9,-15,101,89,74,20,-44,-57
-31,-24,6,27,-19,-9,112,81,57,9,-54,-72
-38,-24,14,31,-26,-5,121,74,40,-3,-61,-81
-43,-26,18,35,-31,-5,131,69,24,-14,-65,-85
-47,-29,20,38,-33,-5,140,65,11,-21,-66,-86
-49,-30,19,40,-33,-5,149,59,-1,-28,-67,-87
-51,-32,18,42,-34,-7,157,51,-14,-34,-68,-87
-53,-34,17,43,-34,-8,164,46,-23,-37,-67,-86
-53,-34,18,43,-35,-8,170,41,-28,-37,-64,-84
-52,-31,19,41,-36,-6,172,37,-32,-37,-62,-82
-50,-28,21,39,-36,-4,170,32,-36,-37,-60,-79
-47,-26,22,37,-35,-3,165,25,-39,-36,-57,-75
-44,-24,22,35,-33,-2,158,17,-41,-34,-52,-70
-42,-19,24,31,-33,2,147,8,-44,-33,-49,-66
-40,-12,29,26,-34,8,134,-3,-50,-34,-47,-63
-37,-7,30,22,-33,12,120,-13,-54,-35,-45,-61
-34,-6,27,20,-30,10,109,-20,-57,-34,-42,-56
-32,-7,23,19,-27,7,98,-24,-58,-33,-38,-51
-29,-8,20,18,-25,5,88,-26,-58,-32,-35,-47
-26,-8,17,17,-22,3,79,-28,-57,-31,-32,-43
-21,-8,13,15,-18,1,70,-27,-56,-30,-29,-40
-17,-10,8,14,-12,-2,63,-24,-53,-28,-26,-37
-14,-12,3,14,-8,-5,58,-21,-50,-26,-23,-35
-12,-12,0,13,-6,-6,54,-19,-47,-24,-21,-33
-11,-12,-2,12,-4,-7,51,-17,-45,-22,-19,-32
-10,-12,-3,11,-3,-8,49,-15,-44,-21,-18,-30
-9,-12,-4,10,-2,-8,48,-14,-44,-21,-17,-29
-8,-13,-4,10,-2,-9,46,-13,-43,-20,-16,-28
-7,-13,-5,10,-1,-9,45,-12,-42,-19,-15,-26
-6,-13,-5,10,0,-10,45,-12,-41,-19,-14,-25
-6,-13,-7,10,1,-10,45,-11,-40,-18,-13,-24
-6,-14,-8,11,1,-11,44,-11,-39,-17,-13,-24
-5,-14,-9,10,2,-12,44,-10,-38,-17,-12,-24
-4,-12,-8,8,1,-10,42,-11,-39,-17,-13,-24
-5,-10,-5,7,0,-8,40,-11,-40,-18,-14,-25
-5,-11,-6,7,0,-9,39,-11,-40,-18,-14,-25
-4,-12,-8,7,2,-11,39,-11,-39,-18,-14,-24
-3,-13,-9,8,3,-12,39,-11,-38,-17,-13,-24
-3,-13,-9,8,3,-11,39,-11,-37,-17,-13,-23
-3,-13,-10,9,3,-11,38,-10,-37,-16,-12,-23
-3,-15,-11,9,4,-13,38,-10,-36,-16,-12,-22
-3,-16,-13,10,4,-14,38,-9,-35,-15,-11,-22
-3,-16,-13,10,4,-15,38,-8,-35,-15,-11,-21
-3,-16,-12,10,4,-15,38,-7,-34,-14,-10,-20
-4,-18,-13,10,5,-16,38,-7,-34,-14,-10,-20
-4,-21,-17,12,6,-19,39,-6,-32,-13,-9,-19
-4,-23,-19,14,8,-21,40,-5,-31,-12,-8,-18
-3,-21,-18,12,7,-19,39,-6,-31,-13,-8,-19
-3,-15,-13,9,5,-14,37,-7,-32,-14,-9,-20
-3,-11,-8,7,2,-9,36,-8,-33,-15,-10,-22
-3,-10,-7,6,2,-8,35,-8,-33,-16,-10,-22
-3,-10,-8,6,2,-9,35,-7,-32,-16,-10,-21
-3,-11,-7,7,2,-9,34,-7,-32,-16,-10,-21
-4,-10,-6,7,1,-9,34,-7,-32,-17,-10,-21
-3,-10,-6,6,2,-8,33,-8,-32,-18,-10,-22
-2,-10,-7,6,3,-9,33,-8,-32,-17,-10,-22
-1,-10,-8,6,3,-9,33,-8,-31,-17,-9,-22
-1,-9,-8,6,3,-9,33,-7,-30,-16,-9,-21
-1,-9,-8,6,3,-9,34,-6,-28,-15,-8,-21
-2,-11,-9,7,3,-10,34,-5,-28,-15,-7,-20
-2,-14,-11,8,4,-13,34,-5,-27,-14,-6,-20
-4,-16,-11,10,3,-14,35,-4,-25,-13,-5,-19
-5,-16,-10,10,2,-14,36,-3,-24,-13,-4,-18
-4,-15,-10,9,3,-13,35,-2,-24,-13,-4,-19
-1,-14,-12,8,5,-13,34,-2,-24,-13,-4,-19
0,-13,-12,7,6,-13,34,-1,-24,-13,-4,-19
-2,-13,-11,8,5,-12,34,0,-22,-12,-3,-19
-2,-13,-11,8,5,-12,34,0,-21,-11,-3,-18
-2,-14,-12,8,5,-13,34,0,-21,-11,-3,-19
-1,-13,-12,7,5,-13,33,0,-21,-11,-3,-20
-2,-13,-11,8,5,-13,33,0,-20,-11,-3,-20
-1,-14,-12,8,6,-14,34,1,-18,-9,-1,-19
-1,-14,-13,8,7,-14,34,3,-17,-8,0,-18
-1,-13,-12,8,6,-13,34,4,-16,-8,0,-18
-1,-13,-12,8,6,-13,34,6,-14,-7,1,-17
-1,-14,-13,8,6,-14,34,8,-12,-6,2,-17
-1,-15,-13,8,7,-14,34,9,-10,-5,2,-17
-1,-15,-13,8,7,-14,34,10,-9,-5,3,-17
0,-15,-14,8,7,-15,34,12,-7,-4,4,-17
0,-15,-15,7,8,-15,34,13,-6,-3,5,-16
0,-14,-14,7,7,-14,33,15,-4,-2,6,-16
-1,-14,-13,8,7,-14,33,17,-2,-1,7,-16
0,-16,-15,8,8,-15,33,19,0,0,9,-16
0,-17,-16,8,9,-16,33,22,4,2,10,-16
1,-17,-17,8,9,-17,32,24,7,4,12,-16
1,-17,-17,8,9,-16,31,26,9,6,13,-15
1,-14,-16,7,8,-15,30,27,11,7,13,-15
2,-12,-15,6,8,-13,29,29,13,8,14,-15
2,-10,-14,5,8,-12,29,31,16,10,15,-14
2,-10,-14,4,9,-12,29,33,20,12,18,-13
3,-11,-15,4,10,-13,29,36,23,14,20,-12
5,-11,-16,3,11,-13,28,37,25,15,21,-11
6,-10,-16,2,11,-13,27,38,26,16,23,-11
8,-10,-17,1,12,-14,26,39,29,18,24,-10
9,-10,-19,1,14,-15,26,40,30,19,25,-8
10,-8,-19,0,14,-14,25,40,31,19,26,-7
10,-7,-17,-1,14,-12,24,40,31,20,27,-6
10,-7,-18,-1,14,-13,24,41,33,21,28,-3
11,-8,-19,-1,16,-14,24,42,34,22,30,-1
11,-7,-18,-2,16,-13,23,42,34,23,31,0
11,-5,-16,-3,14,-10,22,41,34,23,31,0
12,-3,-15,-4,13,-9,22,40,34,23,32,1
12,-3,-15,-4,13,-9,22,39,33,23,32,2
12,-2,-14,-5,13,-8,22,38,32,23,32,3
12,-1,-13,-5,13,-7,22,36,31,23,32,4
12,0,-12,-6,13,-6,22,34,29,22,32,5
12,0,-11,-6,12,-5,22,33,27,22,31,5
11,0,-11,-6,12,-5,22,31,25,21,31,5
12,1,-10,-6,12,-5,21,28,22,19,29,5
12,3,-9,-7,11,-3,21,24,19,17,27,4
11,3,-8,-6,10,-2,21,22,17,15,26,4
10,3,-7,-6,9,-2,22,20,14,14,24,4
9,2,-7,-5,8,-2,24,18,12,13,23,4
8,2,-6,-5,8,-2,25,16,10,12,21,4
7,1,-6,-4,7,-2,25,14,8,11,20,3
7,1,-6,-4,6,-2,26,11,5,9,18,2
6,3,-3,-4,4,0,26,8,2,7,15,0
4,4,0,-3,2,2,26,5,-1,5,12,-2
3,3,0,-2,1,2,26,3,-3,3,9,-4
3,3,0,-2,1,1,26,1,-6,0,7,-5
3,2,-1,-1,2,0,26,-1,-9,-2,5,-7
3,2,-1,-1,2,0,26,-3,-10,-3,3,-8
2,2,0,-1,1,1,26,-4,-11,-4,2,-9
2,2,0,-1,0,2,26,-5,-12,-5,1,-10
0,2,1,0,0,2,27,-5,-13,-6,0,-10
0,0,0,0,-1,1,27,-5,-14,-7,0,-10
0,-1,-1,1,0,-1,27,-6,-15,-7,0,-10
0,-3,-3,2,0,-3,27,-7,-15,-7,-1,-10
-1,-4,-3,3,0,-3,27,-8,-16,-8,-2,-11
-2,-4,-2,3,0,-2,26,-9,-17,-9,-3,-12
-3,-4,-1,3,-1,-2,25,-10,-18,-9,-4,-13
-3,-5,-1,4,0,-3,24,-10,-18,-9,-5,-13
-3,-6,-2,4,0,-4,24,-10,-18,-9,-5,-13
-3,-6,-2,5,-1,-4,23,-10,-18,-9,-5,-13
-3,-4,-1,4,-2,-3,21,-10,-19,-10,-7,-15
-3,-3,0,4,-2,-2,20,-11,-20,-11,-8,-16
-2,-2,0,3,-2,-1,19,-11,-20,-11,-8,-16
-2,-2,0,2,-2,-1,19,-11,-19,-10,-8,-15
-2,-3,-1,3,0,-2,19,-10,-18,-10,-8,-15
-2,-5,-3,3,0,-4,19,-10,-18,-9,-7,-14
-2,-5,-3,3,0,-5,18,-9,-17,-9,-6,-14
-2,-5,-3,3,0,-4,17,-9,-17,-8,-6,-14
-1,-4,-2,3,0,-4,16,-9,-17,-8,-6,-15
-1,-4,-2,3,0,-3,15,-9,-17,-8,-6,-14
-2,-4,-2,4,0,-3,15,-9,-16,-6,-5,-13
-2,-4,-2,3,0,-3,14,-9,-15,-5,-4,-13
-1,-3,-1,2,0,-2,13,-9,-15,-5,-5,-13
-1,-3,-2,2,0,-2,12,-10,-15,-6,-5,-14
-1,-4,-3,2,0,-3,12,-9,-15,-6,-5,-13
-1,-5,-4,3,1,-5,11,-9,-14,-5,-4,-13
-1,-6,-5,3,1,-6,11,-8,-14,-4,-4,-13
0,-5,-4,3,1,-5,10,-8,-14,-4,-4,-13
-1,-5,-3,3,1,-4,10,-8,-13,-4,-4,-12
-2,-4,-1,3,0,-2,9,-7,-13,-3,-3,-12
-3,-3,0,3,-1,-1,8,-8,-13,-3,-4,-12
-3,-2,1,2,-2,0,7,-8,-13,-4,-4,-12
-2,-2,0,2,-1,-1,6,-9,-14,-4,-5,-12
0,-3,-2,2,0,-3,5,-10,-14,-4,-5,-12
0,-5,-4,3,1,-5,5,-10,-13,-3,-4,-12
0,-6,-6,4,2,-7,5,-9,-13,-2,-4,-11
0,-6,-5,3,2,-6,5,-9,-13,-2,-4,-12
0,-5,-4,3,2,-5,5,-9,-13,-3,-4,-12
0,-3,-3,2,2,-3,4,-9,-13,-3,-5,-12
-1,-2,-1,1,1,-2,4,-9,-13,-4,-5,-13
-1,-2,-1,2,0,-1,3,-9,-14,-4,-6,-13
-1,-3,-2,2,0,-2,3,-9,-14,-4,-6,-13
0,-3,-3,1,1,-3,2,-10,-14,-4,-6,-14
1,-2,-2,1,1,-2,1,-11,-15,-5,-7,-14
0,-2,-1,1,0,-2,0,-11,-16,-5,-7,-14
-1,-1,0,1,0,-1,0,-12,-16,-4,-7,-14
-1,-1,0,1,0,0,0,-12,-16,-4,-7,-14
-1,-2,0,2,0,-1,0,-13,-16,-4,-7,-13
-1,-3,-1,2,0,-2,0,-13,-15,-4,-6,-13
-1,-4,-3,3,0,-3,0,-13,-15,-3,-6,-12
-1,-5,-4,3,1,-4,0,-13,-15,-3,-6,-11
-1,-8,-6,4,2,-7,1,-12,-15,-3,-6,-11
-2,-12,-10,6,3,-11,1,-11,-14,-3,-5,-10
-3,-13,-11,8,3,-12,1,-11,-14,-3,-6,-10
-2,-9,-6,6,2,-8,-1,-13,-16,-4,-8,-11
-2,-4,-2,3,0,-3,-3,-15,-18,-6,-10,-13
-2,-2,0,3,0,-1,-4,-15,-19,-6,-10,-13
-3,-1,1,3,-1,0,-4,-15,-19,-6,-10,-13
-3,-1,1,2,-2,0,-5,-15,-19,-7,-10,-13
-3,-2,0,2,-2,-1,-5,-15,-19,-7,-10,-13
-3,-3,0,3,-2,-2,-5,-15,-19,-7,-10,-12
-3,-3,0,3,-1,-3,-5,-16,-19,-8,-10,-12
-2,-4,-2,3,0,-4,-5,-16,-19,-8,-10,-13
-2,-4,-2,3,0,-4,-6,-16,-19,-8,-11,-13
-2,-4,-2,3,0,-3,-6,-16,-19,-8,-11,-13
-2,-3,-1,2,0,-2,-7,-17,-20,-8,-11,-14
-2,-2,-1,2,0,-2,-8,-17,-21,-8,-12,-14
-3,-2,0,2,-2,-1,-9,-17,-21,-8,-12,-14
-3,-2,1,2,-3,-1,-9,-17,-22,-8,-12,-14
-3,-1,1,2,-3,-1,-10,-18,-22,-9,-12,-15
-3,-2,1,3,-3,-1,-10,-18,-22,-9,-12,-15
-3,-3,0,3,-2,-2,-10,-18,-22,-8,-12,-14
-3,-5,-1,4,-1,-3,-10,-18,-21,-8,-11,-14
-3,-6,-3,4,0,-4,-11,-17,-21,-8,-11,-13
-3,-5,-2,4,0,-4,-12,-18,-22,-8,-12,-13
-3,-4,-1,3,-1,-3,-12,-18,-22,-9,-12,-13
-2,-3,-1,3,-1,-2,-13,-18,-22,-9,-12,-14
-2,-2,0,2,-1,-2,-13,-18,-23,-10,-12,-14
-2,-1,0,1,-1,-1,-13,-18,-23,-9,-12,-15
-2,-2,0,2,0,-2,-13,-17,-22,-8,-11,-14
-2,-4,-2,2,0,-3,-12,-16,-20,-6,-9,-13
-2,-2,0,2,-1,-1,-11,-15,-19,-4,-7,-11
-1,1,2,0,-2,2,-12,-14,-18,-4,-6,-11
0,4,3,-2,-2,3,-13,-14,-18,-3,-6,-10
1,4,3,-2,-1,3,-13,-14,-17,-3,-5,-9
1,4,2,-2,0,2,-14,-14,-16,-2,-4,-8
1,5,3,-3,0,3,-15,-14,-15,-2,-3,-7
2,6,3,-4,0,4,-17,-14,-14,0,-2,-6
3,6,2,-5,0,4,-18,-13,-13,0,-1,-5
5,7,2,-6,1,4,-20,-13,-13,0,-1,-5
6,8,2,-7,2,4,-22,-13,-14,0,0,-5
6,8,1,-7,2,4,-23,-12,-13,0,0,-4
7,9,1,-7,2,4,-24,-11,-13,1,1,-3
8,10,1,-8,3,5,-26,-10,-13,1,1,-3
8,9,0,-8,3,4,-27,-11,-14,0,0,-3
7,7,-1,-6,4,3,-28,-12,-15,-1,0,-4
7,6,-2,-6,4,2,-29,-14,-17,-2,-1,-5
7,7,0,-7,3,4,-30,-17,-19,-3,-2,-6
6,9,2,-7,2,5,-32,-19,-21,-5,-3,-7
5,9,4,-7,0,7,-32,-20,-21,-5,-4,-8
3,9,6,-6,-1,7,-31,-20,-21,-5,-4,-8
2,9,6,-5,-2,7,-31,-20,-22,-6,-4,-8
1,7,5,-4,-2,6,-31,-20,-23,-7,-6,-10
0,6,4,-3,-3,5,-30,-20,-24,-8,-7,-12
0,4,4,-1,-3,4,-30,-21,-25,-9,-8,-14
-1,1,3,0,-3,2,-30,-21,-25,-10,-9,-15
-3,-1,3,2,-3,1,-30,-21,-26,-11,-9,-16
-5,-2,3,4,-4,0,-30,-22,-26,-11,-10,-16
-6,-3,4,5,-5,0,-30,-23,-27,-12,-11,-17
-6,-3,4,5,-5,0,-30,-24,-29,-14,-12,-18
-6,-3,3,4,-5,0,-30,-25,-30,-15,-13,-18
-4,-3,1,4,-3,-1,-31,-26,-31,-15,-14,-18
-4,-4,1,4,-3,-1,-32,-26,-31,-15,-14,-18
-5,-4,2,5,-4,-1,-32,-25,-30,-15,-14,-18
-6,-5,2,6,-4,-1,-33,-25,-30,-14,-14,-18
-6,-6,0,6,-2,-3,-33,-25,-30,-14,-14,-19
-6,-8,-2,7,-1,-5,-33,-25,-30,-14,-14,-19
-7,-10,-3,8,-1,-7,-33,-24,-30,-14,-13,-18
-7,-12,-5,9,0,-9,-32,-24,-29,-13,-13,-17
-6,-12,-5,9,0,-9,-32,-24,-29,-13,-13,-17
-7,-11,-4,9,-1,-8,-33,-24,-29,-13,-13,-17
-7,-10,-3,9,-2,-6,-33,-24,-30,-14,-13,-18
-7,-8,-1,7,-3,-4,-34,-25,-30,-15,-14,-19
-7,-5,1,6,-4,-2,-35,-25,-31,-16,-15,-20
-6,-2,3,4,-5,0,-37,-26,-31,-17,-16,-20
-5,0,5,2,-5,2,-37,-27,-32,-17,-16,-21
-5,0,6,2,-5,3,-37,-27,-32,-17,-16,-20
-5,0,6,2,-5,3,-37,-27,-32,-17,-16,-20
-5,-1,4,3,-4,1,-37,-26,-30,-16,-15,-19
-5,-3,1,4,-3,0,-37,-25,-29,-15,-14,-18
-5,-5,0,5,-3,-2,-36,-25,-28,-14,-13,-18
-4,-5,-1,5,-2,-2,-37,-24,-28,-13,-13,-17
-4,-5,-1,4,-2,-2,-37,-24,-27,-12,-12,-17
-5,-3,2,3,-3,0,-37,-24,-27,-12,-11,-16
-7,-2,5,4,-6,2,-36,-22,-26,-11,-10,-16
-7,-2,5,4,-6,1,-36,-19,-23,-9,-9,-16
-6,-2,5,4,-5,1,-35,-16,-19,-5,-7,-16
-7,0,6,3,-6,3,-34,-13,-14,-2,-6,-17
-8,0,7,4,-8,4,-32,-10,-11,1,-5,-18
-9,-1,7,5,-8,3,-31,-8,-7,5,-2,-18
-8,0,8,4,-9,4,-30,-5,-1,12,3,-15
-6,3,9,2,-8,6,-31,-1,4,20,13,-8
-2,8,10,-2,-6,9,-34,0,10,29,26,1
3,13,9,-8,-3,11,-39,1,16,40,43,15
12,20,7,-16,2,12,-46,3,25,54,64,33
24,27,3,-25,10,14,-54,8,38,73,91,55
35,35,0,-35,17,16,-61,18,55,94,122,79
45,42,-2,-44,24,19,-67,31,75,117,153,102
56,50,-5,-53,30,22,-71,48,100,143,185,126
67,60,-6,-64,37,27,-75,68,129,171,218,149
76,70,-5,-73,41,32,-77,90,160,197,246,169
80,77,-3,-78,42,37,-77,111,188,215,261,182
79,78,-1,-78,41,38,-74,131,212,219,256,184
75,70,-6,-72,41,31,-69,148,229,208,230,175
69,53,-16,-61,43,18,-60,157,234,184,186,153
56,33,-23,-45,40,5,-48,155,222,149,126,112
36,14,-22,-25,29,-4,-32,141,193,108,62,61
14,-1,-15,-6,14,-8,-15,119,157,72,12,16
-4,-12,-7,8,1,-10,1,99,125,45,-21,-17
-19,-18,0,18,-10,-9,15,85,101,27,-41,-43
-30,-20,8,25,-19,-6,27,76,81,14,-53,-61
-37,-22,14,30,-26,-4,38,67,61,1,-61,-71
-43,-25,18,34,-31,-4,47,60,43,-10,-66,-76
-47,-27,21,37,-34,-3,56,55,28,-19,-68,-78
-50,-27,23,39,-36,-2,63,49,15,-26,-70,-80
-51,-28,23,40,-37,-2,70,41,2,-32,-71,-80
-52,-29,23,41,-37,-3,77,34,-8,-36,-72,-79
-53,-29,24,41,-39,-2,83,28,-15,-38,-70,-77
-54,-27,26,41,-40,-1,87,24,-19,-37,-67,-74
-53,-24,28,39,-40,1,87,18,-22,-36,-63,-71
-51,-21,30,36,-40,4,82,11,-26,-36,-61,-68
-48,-18,31,32,-39,6,74,2,-29,-35,-58,-64
-45,-14,32,29,-39,9,65,-6,-32,-34,-54,-60
-42,-10,32,26,-38,11,54,-16,-36,-34,-51,-55
-38,-7,31,23,-36,12,42,-25,-39,-33,-48,-51
-36,-5,31,20,-34,13,30,-32,-42,-33,-45,-48
-34,-2,31,18,-32,14,19,-38,-45,-33,-42,-45
-31,-1,29,16,-29,14,8,-41,-46,-33,-39,-41
-26,-1,24,14,-25,12,-2,-42,-45,-32,-36,-38
-22,-2,19,12,-20,9,-10,-40,-43,-31,-33,-34
-18,-4,13,11,-15,4,-17,-36,-40,-28,-28,-30
-15,-8,7,12,-11,0,-22,-32,-36,-25,-24,-26
-13,-9,2,11,-8,-3,-26,-28,-33,-23,-21,-23
-11,-10,0,10,-5,-5,-28,-26,-31,-21,-20,-22
-10,-11,-3,10,-3,-7,-31,-25,-30,-21,-19,-21
-9,-12,-4,10,-2,-9,-32,-25,-30,-20,-18,-20
-8,-12,-5,10,-1,-9,-34,-24,-30,-20,-17,-19
-6,-10,-4,8,-1,-8,-36,-24,-30,-19,-16,-19
-5,-10,-5,8,0,-8,-37,-23,-29,-19,-15,-17
-5,-14,-9,9,1,-11,-36,-21,-27,-18,-13,-15
-4,-17,-13,11,4,-15,-36,-20,-26,-17,-12,-14
-3,-16,-13,10,4,-14,-37,-21,-26,-18,-13,-15
-3,-13,-9,8,2,-10,-39,-21,-27,-19,-14,-16
-4,-11,-6,8,1,-8,-40,-22,-27,-19,-14,-17
-5,-11,-6,8,0,-8,-40,-21,-27,-19,-14,-17
-5,-13,-7,9,1,-11,-41,-21,-26,-18,-14,-17
-4,-12,-8,9,2,-11,-42,-21,-26,-18,-14,-16
-3,-10,-6,7,1,-8,-43,-22,-26,-19,-14,-17
-4,-8,-4,6,0,-6,-43,-22,-26,-19,-14,-17
-4,-9,-4,6,0,-6,-43,-22,-25,-19,-13,-17
-4,-9,-5,6,1,-6,-43,-22,-25,-18,-13,-16
-3,-9,-5,6,1,-7,-43,-22,-25,-18,-13,-16
-4,-9,-5,7,1,-7,-43,-21,-24,-18,-12,-15
-4,-10,-6,7,2,-8,-43,-20,-24,-17,-12,-15
-2,-11,-9,7,4,-10,-44,-20,-24,-18,-12,-15
-1,-11,-10,6,4,-11,-44,-20,-23,-18,-13,-16
-2,-12,-10,7,4,-11,-44,-19,-22,-17,-12,-15
-1,-13,-12,7,5,-13,-43,-18,-21,-16,-11,-14
-1,-14,-13,7,6,-13,-43,-17,-20,-15,-11,-14
-2,-13,-11,7,4,-12,-43,-17,-20,-15,-11,-15
-3,-11,-7,6,2,-9,-44,-18,-21,-16,-11,-16
-3,-8,-4,5,1,-6,-46,-18,-21,-17,-12,-16
-4,-7,-3,5,0,-5,-46,-18,-21,-17,-12,-16
-4,-8,-4,6,0,-6,-46,-18,-20,-16,-11,-16
-4,-9,-5,6,0,-7,-45,-17,-19,-16,-11,-15
-4,-10,-7,6,1,-8,-45,-16,-19,-15,-10,-15
-3,-10,-8,6,2,-8,-45,-16,-18,-14,-10,-15
-2,-10,-8,6,3,-9,-45,-15,-17,-14,-10,-15
-2,-10,-9,6,3,-9,-45,-15,-17,-13,-10,-15
-2,-11,-9,7,4,-10,-45,-14,-16,-13,-9,-14
-2,-12,-11,8,4,-11,-44,-14,-15,-12,-8,-14
-2,-14,-12,8,5,-13,-44,-13,-14,-12,-7,-14
-2,-13,-12,8,5,-13,-44,-13,-13,-12,-7,-14
-2,-12,-10,7,4,-11,-44,-13,-12,-12,-6,-14
-1,-10,-9,5,3,-9,-44,-13,-12,-11,-6,-15
-1,-8,-7,4,3,-8,-44,-13,-12,-11,-7,-15
-2,-8,-6,4,3,-7,-44,-12,-11,-11,-6,-16
-3,-10,-7,5,3,-8,-44,-11,-10,-10,-6,-15
-2,-10,-8,6,3,-9,-45,-10,-9,-9,-5,-15
-1,-9,-7,5,3,-8,-45,-9,-8,-10,-5,-16
0,-7,-7,3,3,-7,-46,-9,-8,-10,-6,-16
0,-7,-8,3,3,-7,-46,-8,-7,-10,-6,-17
0,-8,-9,4,3,-8,-45,-7,-6,-9,-5,-16
-1,-10,-9,5,4,-9,-45,-5,-4,-8,-4,-16
-1,-11,-11,6,5,-10,-45,-3,-2,-8,-3,-15
-1,-13,-12,7,6,-12,-45,-1,0,-7,-2,-15
-1,-14,-13,7,7,-14,-45,0,1,-5,0,-14
0,-13,-13,7,6,-13,-45,1,2,-5,0,-14
0,-10,-10,5,5,-11,-46,2,3,-4,0,-15
0,-9,-8,4,4,-9,-46,3,5,-3,1,-15
0,-10,-10,5,4,-10,-46,6,7,-2,3,-14
0,-11,-11,6,5,-11,-45,8,9,0,4,-14
0,-12,-12,6,6,-12,-46,10,12,0,4,-15
1,-11,-13,5,7,-12,-46,12,15,2,5,-15
1,-11,-13,5,7,-13,-47,14,18,4,7,-14
1,-12,-14,6,8,-14,-47,17,21,6,9,-13
2,-13,-15,5,9,-15,-47,20,24,7,11,-12
4,-12,-16,3,9,-14,-48,22,26,8,13,-12
4,-12,-16,3,9,-14,-49,24,29,10,14,-11
4,-12,-17,4,10,-15,-50,26,32,12,16,-10
5,-11,-17,3,10,-14,-51,27,34,13,16,-10
6,-9,-15,1,10,-11,-53,28,35,14,17,-11
7,-7,-14,0,10,-10,-54,29,36,15,18,-10
8,-6,-14,-1,11,-10,-55,30,38,16,20,-9
9,-7,-16,-1,13,-12,-56,31,40,17,22,-8
9,-7,-17,-1,13,-13,-56,32,41,18,23,-6
9,-7,-16,-1,12,-12,-56,32,42,19,25,-5
9,-6,-16,-2,12,-11,-57,32,42,20,26,-3
10,-7,-17,-2,13,-12,-57,32,43,21,27,-1
11,-8,-19,-2,15,-13,-57,32,43,22,28,0
11,-7,-18,-2,15,-12,-57,32,42,22,29,1
10,-5,-16,-3,13,-10,-58,31,41,21,29,2
10,-2,-12,-4,12,-7,-59,29,40,20,28,2
11,1,-10,-6,11,-5,-60,27,38,19,28,3
12,3,-10,-7,11,-4,-61,25,35,18,27,3
13,4,-10,-8,12,-3,-61,22,32,17,26,3
12,3,-9,-8,11,-3,-61,21,30,16,26,4
12,3,-9,-7,11,-3,-61,19,28,15,25,5
13,4,-9,-8,11,-2,-61,16,26,14,24,5
12,5,-7,-8,10,-1,-61,14,23,12,23,5
11,5,-7,-7,8,-1,-60,11,21,11,22,6
10,4,-7,-6,8,-2,-58,9,18,10,21,6
9,4,-6,-5,7,-1,-57,6,15,8,19,6
8,5,-3,-6,5,0,-57,3,12,6,17,5
7,5,-2,-6,4,2,-56,0,9,4,15,4
6,5,-1,-6,3,3,-56,-1,6,2,12,3
6,5,0,-6,3,3,-56,-3,4,0,9,1
6,5,-1,-6,3,2,-56,-5,1,-2,7,0
5,5,0,-5,2,3,-55,-7,0,-4,5,-2
4,6,2,-5,0,4,-54,-9,-2,-6,3,-3
4,6,2,-5,0,4,-53,-11,-4,-7,2,-4
4,4,0,-4,2,1,-52,-12,-6,-8,1,-5
4,1,-3,-3,4,-1,-51,-13,-7,-9,0,-5
3,0,-4,-1,3,-1,-51,-13,-8,-10,-1,-6
2,0,-2,-1,2,0,-50,-14,-9,-12,-4,-8
1,0,-1,-1,1,0,-50,-15,-11,-13,-6,-9
1,0,-2,0,2,-1,-50,-16,-12,-14,-7,-10
1,-1,-3,0,2,-2,-50,-17,-13,-14,-7,-11
1,0,-1,0,1,-1,-50,-18,-14,-15,-8,-11
0,0,0,0,0,0,-50,-18,-14,-16,-9,-12
0,-1,0,0,0,-1,-50,-18,-15,-16,-9,-12
-1,-2,-1,1,0,-1,-50,-18,-15,-16,-9,-12
0,-3,-2,1,1,-2,-50,-18,-16,-16,-10,-12
0,-4,-3,2,2,-3,-50,-19,-16,-16,-10,-12
0,-4,-4,2,2,-4,-49,-19,-16,-16,-10,-12
0,-4,-3,2,2,-4,-49,-19,-16,-16,-10,-12
-1,-3,-1,2,0,-3,-48,-19,-16,-16,-10,-12
-1,-2,0,1,0,-2,-48,-19,-16,-15,-10,-12
0,-2,-1,1,0,-2,-48,-18,-15,-15,-10,-12
0,-2,0,1,0,-1,-47,-18,-15,-14,-10,-12
-1,-1,0,1,-1,0,-47,-18,-15,-14,-10,-12
-1,-1,1,1,-1,0,-47,-18,-15,-14,-10,-12
-2,-2,0,2,-1,0,-47,-18,-15,-14,-10,-12
-1,-3,-1,2,0,-2,-46,-18,-15,-13,-10,-12
-1,-3,-1,2,0,-2,-46,-18,-14,-13,-9,-12
0,-3,-2,1,0,-3,-46,-18,-14,-13,-9,-11
0,-3,-2,1,1,-3,-46,-17,-14,-13,-8,-11
0,-3,-2,1,1,-3,-45,-17,-13,-12,-8,-10
0,-4,-3,2,1,-4,-44,-16,-13,-11,-7,-10
0,-4,-4,2,2,-5,-44,-16,-12,-10,-7,-9
0,-5,-4,3,2,-5,-43,-16,-11,-10,-6,-9
0,-5,-4,3,2,-5,-43,-16,-11,-9,-6,-9
0,-5,-4,3,2,-5,-43,-15,-11,-9,-6,-9
0,-5,-4,3,1,-4,-43,-15,-11,-8,-6,-9
0,-4,-3,2,1,-4,-43,-15,-11,-8,-6,-9
0,-3,-3,2,1,-4,-43,-15,-11,-8,-6,-9
0,-3,-3,2,1,-3,-43,-16,-11,-8,-6,-9
0,-3,-3,2,1,-3,-43,-16,-10,-8,-5,-9
0,-3,-3,2,1,-3,-43,-16,-10,-8,-5,-9
0,-2,-2,1,1,-3,-43,-16,-11,-8,-5,-9
0,-1,-1,1,0,-1,-43,-15,-11,-8,-5,-9
-1,-2,-1,1,0,-1,-43,-15,-11,-7,-5,-8
-1,-5,-4,3,2,-4,-42,-15,-11,-7,-4,-8
0,-7,-7,4,4,-7,-42,-15,-11,-7,-4,-7
0,-7,-7,3,4,-7,-42,-15,-11,-8,-4,-8
0,-4,-5,2,3,-5,-42,-16,-11,-8,-4,-8
0,-2,-3,1,2,-3,-43,-16,-11,-8,-5,-9
0,-1,-2,0,1,-1,-43,-16,-12,-8,-5,-9
0,-1,-1,1,0,-1,-42,-16,-12,-8,-5,-9
-1,-1,0,1,-1,0,-42,-16,-12,-9,-6,-10
-1,-1,1,1,-1,0,-43,-17,-13,-10,-7,-10
-1,-1,0,1,0,0,-43,-18,-13,-10,-7,-11
0,-2,-1,1,0,-2,-43,-18,-13,-10,-7,-11
0,-2,-2,1,1,-2,-43,-18,-13,-10,-7,-10
0,-1,-1,0,0,-1,-43,-18,-14,-10,-7,-10
0,0,0,0,0,0,-42,-19,-14,-10,-7,-10
0,0,0,0,0,0,-42,-19,-14,-10,-7,-9
0,-2,-1,1,0,-1,-42,-19,-14,-10,-7,-9
-1,-4,-3,2,0,-3,-42,-19,-15,-10,-7,-9
0,-5,-5,3,1,-5,-42,-20,-16,-11,-7,-9
0,-6,-6,3,2,-6,-42,-19,-16,-11,-7,-9
-1,-7,-6,4,2,-7,-42,-19,-16,-10,-7,-9
-1,-6,-6,4,1,-6,-42,-19,-16,-10,-7,-9
-2,-5,-4,4,0,-5,-42,-19,-17,-10,-7,-10
-2,-5,-3,4,0,-4,-43,-20,-17,-11,-8,-10
-1,-6,-5,4,2,-5,-43,-20,-17,-11,-9,-10
-1,-7,-5,4,2,-6,-42,-20,-17,-11,-9,-10
-1,-6,-4,4,1,-5,-42,-20,-18,-12,-9,-10
-2,-3,-1,3,0,-2,-43,-21,-19,-13,-10,-11
-2,-2,0,2,-1,-1,-44,-22,-20,-14,-10,-12
-3,-3,-1,3,-1,-2,-43,-21,-19,-14,-10,-11
-1,-5,-4,3,1,-5,-43,-21,-19,-13,-10,-11
0,-7,-7,3,3,-7,-42,-21,-19,-13,-9,-10
0,-7,-6,4,3,-7,-42,-21,-19,-13,-9,-10
-1,-4,-3,3,1,-4,-43,-22,-20,-14,-10,-11
-1,-2,-1,1,0,-1,-43,-23,-21,-15,-11,-12
-1,-2,-1,1,0,-1,-44,-24,-21,-15,-11,-12
-1,-3,-2,2,0,-2,-43,-23,-21,-15,-11,-12
-1,-4,-3,2,0,-3,-43,-23,-20,-14,-10,-11
-1,-4,-2,2,0,-3,-43,-22,-20,-14,-10,-11
0,-1,-1,0,0,-1,-42,-22,-20,-13,-10,-11
0,0,0,0,0,0,-42,-21,-20,-13,-10,-11
0,2,1,-1,0,1,-41,-20,-19,-12,-10,-11
1,3,2,-2,0,3,-40,-19,-17,-11,-8,-9
2,4,2,-3,0,3,-39,-18,-16,-9,-6,-8
2,5,2,-4,0,3,-40,-18,-15,-9,-6,-8
3,5,2,-4,0,3,-40,-18,-14,-8,-5,-7
3,6,3,-5,0,4,-41,-17,-14,-8,-4,-6
5,8,3,-6,1,5,-42,-17,-13,-7,-3,-5
6,9,3,-7,2,5,-43,-16,-12,-6,-2,-4
6,9,3,-7,2,5,-44,-16,-12,-5,-1,-3
6,8,2,-7,2,4,-45,-16,-12,-5,-1,-2
6,7,1,-7,3,4,-46,-16,-12,-5,-1,-2
7,9,2,-8,3,5,-47,-15,-11,-5,-1,-2
7,10,3,-8,2,6,-47,-14,-10,-4,0,-1
7,9,3,-8,2,6,-48,-14,-10,-3,0,0
7,10,3,-9,2,6,-48,-16,-12,-4,0,-1
7,12,5,-10,1,8,-49,-19,-14,-6,-2,-2
7,13,6,-10,0,9,-50,-22,-16,-7,-4,-4
7,12,5,-9,1,8,-50,-23,-18,-9,-5,-4
7,11,4,-8,1,7,-50,-24,-19,-9,-6,-5
6,10,4,-7,0,7,-49,-24,-19,-10,-6,-5
5,9,3,-7,0,6,-48,-24,-19,-10,-6,-5
4,8,3,-6,0,6,-48,-24,-20,-11,-7,-6
2,6,2,-4,0,4,-47,-25,-21,-12,-9,-7
1,3,1,-1,0,2,-45,-25,-21,-13,-10,-8
0,0,0,0,0,0,-44,-25,-21,-13,-10,-8
-1,-1,0,1,0,-1,-42,-25,-22,-13,-11,-9
-2,-3,0,3,-1,-2,-41,-25,-22,-14,-11,-10
-4,-6,-2,5,-1,-4,-41,-25,-23,-14,-12,-11
-4,-7,-3,5,-1,-5,-41,-26,-24,-15,-13,-12
-4,-6,-2,4,-1,-4,-42,-28,-26,-17,-14,-13
-4,-5,-1,4,-1,-3,-43,-29,-27,-18,-15,-14
-4,-5,-1,4,-1,-3,-43,-29,-27,-18,-15,-15
-5,-4,0,4,-2,-2,-43,-29,-27,-18,-15,-15
-5,-4,0,4,-3,-1,-43,-29,-27,-18,-15,-15
-5,-4,1,5,-3,-1,-43,-29,-27,-18,-15,-15
-6,-5,1,5,-3,-1,-43,-29,-28,-18,-15,-15
-6,-6,0,6,-3,-3,-43,-29,-28,-17,-15,-15
-7,-9,-2,7,-2,-5,-43,-28,-27,-17,-15,-14
-6,-10,-4,7,0,-7,-43,-28,-26,-16,-14,-13
-5,-9,-5,7,0,-7,-43,-28,-26,-16,-14,-13
-4,-9,-5,7,0,-7,-43,-28,-26,-16,-14,-13
-4,-8,-4,6,0,-7,-44,-28,-26,-16,-14,-13
-4,-7,-3,6,0,-5,-44,-28,-27,-16,-14,-13
-3,-5,-1,5,-1,-4,-44,-28,-27,-16,-14,-13
-3,-5,-1,4,-1,-3,-44,-29,-27,-16,-14,-14
-3,-5,-1,4,-1,-3,-44,-29,-27,-16,-14,-14
-4,-5,-1,5,-1,-3,-44,-28,-27,-16,-14,-14
-5,-6,-1,5,-1,-3,-44,-27,-26,-15,-14,-13
-5,-6,-1,6,-1,-4,-43,-26,-25,-15,-13,-13
-5,-7,-1,6,-1,-4,-43,-26,-24,-14,-13,-13
-5,-7,-2,7,-1,-5,-43,-26,-24,-13,-12,-13
-5,-8,-2,7,-1,-6,-42,-25,-24,-13,-11,-12
-4,-8,-4,6,0,-6,-42,-24,-23,-12,-10,-12
-3,-9,-5,6,0,-7,-42,-22,-21,-11,-9,-11
-4,-8,-3,6,0,-5,-42,-21,-19,-10,-9,-11
-5,-6,0,6,-3,-2,-41,-19,-17,-8,-8,-12
-6,-3,2,5,-4,0,-41,-16,-13,-5,-7,-13
-6,-2,4,4,-5,1,-39,-13,-10,-2,-7,-13
-7,0,7,4,-7,3,-37,-10,-7,1,-6,-13
-8,1,9,4,-9,5,-35,-8,-3,5,-3,-12
-6,3,10,2,-8,6,-35,-5,2,12,3,-9
-3,5,10,-1,-7,7,-36,-3,8,20,13,-3
0,8,8,-4,-4,8,-39,-1,14,30,27,8
6,13,7,-9,-1,10,-44,0,21,43,46,23
14,19,5,-16,4,12,-50,2,32,59,69,42
25,26,1,-25,11,13,-58,8,46,78,97,64
38,34,-2,-36,19,15,-65,19,64,99,126,87
49,43,-5,-46,26,18,-71,33,84,122,156,109
58,52,-5,-55,31,23,-75,52,109,148,189,132
67,62,-5,-64,35,28,-78,74,141,178,222,154
74,70,-4,-72,39,33,-79,97,173,204,248,173
78,76,-3,-77,40,36,-77,119,202,220,260,184
79,75,-3,-77,41,36,-73,139,225,221,251,184
75,67,-8,-71,41,29,-67,154,239,208,221,172
67,52,-14,-59,41,18,-58,160,241,181,173,145
52,34,-17,-43,35,8,-45,155,224,143,112,101
31,17,-13,-24,23,1,-28,137,191,102,50,50
9,3,-6,-6,8,-1,-11,112,154,67,3,8
-10,-7,2,8,-6,-2,4,92,122,42,-26,-23
-25,-14,10,19,-17,-2,18,79,99,26,-44,-47
-35,-18,16,26,-25,-1,30,69,78,12,-55,-62
-41,-21,20,31,-30,-1,40,61,57,0,-62,-70
-46,-25,21,36,-33,-2,50,56,39,-12,-66,-74
-49,-28,22,39,-36,-3,60,52,25,-20,-68,-75
-52,-29,23,41,-37,-3,69,46,12,-26,-70,-76
-54,-30,24,42,-39,-3,77,38,0,-32,-70,-77
-55,-30,25,42,-40,-2,84,32,-8,-34,-69,-76
-55,-28,26,42,-41,-1,89,26,-14,-35,-67,-74
-54,-24,28,39,-42,1,91,21,-18,-34,-64,-72
-52,-19,32,36,-43,6,88,13,-22,-34,-61,-69
-50,-14,35,33,-43,9,82,5,-26,-34,-59,-65
-48,-11,37,30,-43,12,74,-3,-30,-33,-56,-61
-45,-7,38,27,-42,15,64,-12,-34,-33,-52,-57
-43,-4,39,24,-41,17,53,-21,-38,-32,-49,-53
-40,-2,37,21,-39,17,41,-30,-40,-32,-46,-49
-37,-1,35,19,-36,16,30,-37,-42,-32,-43,-46
-34,0,32,17,-33,16,19,-42,-44,-31,-40,-43
-29,1,30,14,-30,15,8,-44,-45,-31,-38,-40
-25,0,26,13,-25,13,-3,-44,-44,-30,-35,-36
-21,-3,19,12,-19,8,-11,-40,-42,-28,-31,-32
-17,-6,12,12,-14,3,-18,-35,-38,-25,-27,-28
-14,-7,7,11,-10,0,-24,-30,-35,-22,-24,-25
-10,-8,1,10,-6,-3,-28,-27,-33,-21,-22,-24
-8,-9,-1,9,-4,-5,-31,-25,-31,-20,-21,-23
-8,-10,-2,9,-3,-6,-33,-24,-29,-19,-19,-22
-8,-12,-3,10,-3,-7,-34,-23,-28,-18,-17,-20
-8,-12,-4,10,-2,-8,-36,-22,-27,-17,-16,-19
-6,-12,-5,9,0,-8,-38,-22,-27,-18,-16,-19
-4,-12,-7,9,1,-9,-39,-22,-28,-18,-16,-19
-4,-12,-7,9,1,-9,-41,-21,-28,-17,-16,-18
-5,-11,-5,8,0,-8,-42,-21,-28,-17,-15,-18
-5,-10,-5,8,0,-7,-43,-21,-28,-17,-15,-18
-5,-11,-5,8,0,-8,-44,-21,-27,-17,-15,-18
-4,-11,-6,7,1,-8,-45,-22,-27,-17,-15,-18
-4,-10,-7,7,1,-8,-46,-22,-27,-17,-15,-18
-4,-10,-6,7,1,-8,-47,-22,-27,-17,-15,-18
-4,-11,-6,8,1,-8,-48,-21,-27,-17,-14,-18
-4,-11,-7,8,1,-9,-48,-20,-26,-16,-13,-17
-4,-12,-7,8,1,-10,-48,-19,-25,-16,-13,-17
-4,-12,-8,8,2,-10,-48,-19,-25,-15,-13,-16
-4,-12,-9,8,2,-11,-49,-18,-25,-15,-13,-16
-4,-12,-9,8,3,-11,-49,-18,-25,-15,-13,-16
-4,-12,-9,8,3,-11,-49,-18,-25,-15,-13,-16
-3,-12,-9,8,3,-11,-50,-19,-25,-16,-13,-17
-3,-12,-9,8,3,-11,-50,-19,-25,-16,-13,-17
-2,-11,-8,7,3,-10,-51,-18,-25,-16,-13,-17
-2,-10,-7,7,2,-9,-51,-18,-25,-15,-13,-17
-2,-10,-7,6,2,-9,-51,-18,-24,-15,-13,-17
-2,-10,-8,7,2,-9,-52,-17,-24,-15,-13,-17
-3,-11,-9,7,2,-10,-52,-17,-24,-15,-12,-17
-3,-13,-9,8,2,-11,-51,-16,-23,-14,-12,-16
-4,-14,-10,9,3,-12,-51,-15,-23,-14,-11,-16
-3,-14,-10,9,3,-12,-52,-15,-22,-14,-11,-16
-2,-11,-9,7,3,-10,-53,-15,-22,-14,-11,-16
-2,-10,-7,6,2,-9,-54,-15,-22,-14,-12,-17
-3,-11,-8,7,3,-10,-53,-13,-21,-13,-10,-16
-2,-13,-10,8,4,-12,-52,-12,-20,-12,-10,-15
-2,-13,-11,7,4,-12,-52,-12,-19,-12,-10,-16
-2,-12,-10,7,4,-11,-52,-12,-19,-12,-10,-16
-2,-12,-10,7,4,-11,-52,-12,-19,-12,-10,-16
-2,-12,-10,7,4,-12,-52,-11,-18,-11,-9,-16
-2,-13,-11,7,5,-13,-52,-10,-17,-10,-9,-15
-2,-14,-12,8,5,-14,-52,-9,-16,-9,-8,-15
-2,-13,-12,8,4,-13,-52,-8,-15,-9,-8,-15
-2,-11,-9,7,3,-10,-53,-8,-15,-9,-8,-16
-2,-11,-9,7,3,-10,-53,-7,-14,-9,-7,-16
-2,-13,-11,8,4,-12,-52,-5,-13,-7,-6,-15
-3,-12,-9,7,3,-10,-52,-5,-12,-7,-6,-15
-3,-9,-6,6,1,-8,-53,-5,-12,-7,-7,-16
-3,-9,-6,6,2,-8,-53,-5,-12,-7,-6,-17
-2,-12,-10,7,4,-11,-53,-4,-10,-6,-5,-16
-1,-13,-11,7,5,-12,-53,-2,-8,-5,-4,-16
-2,-12,-10,8,3,-11,-53,-1,-7,-4,-4,-16
-3,-12,-9,8,3,-10,-53,0,-6,-4,-3,-16
-2,-12,-10,7,4,-10,-53,2,-5,-3,-2,-16
-1,-12,-10,7,4,-10,-53,3,-4,-2,-1,-16
-1,-11,-11,6,5,-10,-53,5,-2,-1,-1,-16
0,-12,-11,6,5,-11,-53,7,0,0,0,-15
0,-11,-11,6,5,-11,-53,9,2,1,1,-15
0,-11,-11,5,5,-10,-53,11,4,2,2,-15
1,-12,-13,5,6,-12,-53,14,7,4,3,-15
1,-14,-16,6,8,-15,-53,17,11,6,5,-14
1,-16,-17,7,9,-16,-53,21,14,9,7,-13
1,-15,-17,7,9,-16,-53,23,17,10,9,-13
1,-14,-16,6,9,-15,-53,25,19,12,10,-13
1,-13,-16,6,9,-14,-54,27,22,13,11,-12
2,-12,-16,5,9,-14,-54,29,25,15,13,-12
3,-11,-15,4,9,-13,-55,31,28,16,14,-11
4,-11,-15,3,9,-13,-55,34,31,18,16,-11
5,-11,-16,3,10,-13,-56,36,33,20,18,-10
5,-11,-16,3,10,-14,-56,38,36,22,20,-9
5,-11,-16,3,10,-14,-56,40,38,24,22,-7
5,-12,-17,3,11,-14,-56,43,41,26,25,-5
6,-12,-18,3,12,-15,-56,44,42,28,26,-4
7,-11,-18,2,13,-15,-57,44,43,28,27,-3
7,-10,-17,2,12,-14,-57,44,44,29,28,-2
8,-9,-17,1,12,-13,-58,45,45,29,29,-1
9,-7,-16,0,12,-11,-59,44,45,29,29,-1
10,-5,-15,-2,12,-10,-60,43,44,29,30,0
11,-3,-15,-3,12,-9,-61,42,44,29,30,0
11,-3,-15,-4,13,-9,-61,42,43,30,31,2
11,-3,-15,-4,13,-9,-61,41,43,29,31,3
11,-2,-14,-4,12,-8,-62,39,41,29,31,4
11,-2,-13,-4,12,-7,-62,37,40,29,31,5
12,-1,-13,-5,13,-7,-62,35,38,28,30,6
12,-1,-13,-5,13,-7,-62,32,35,27,30,6
12,0,-11,-5,12,-6,-63,29,32,25,29,7
12,0,-11,-5,11,-5,-63,26,29,23,27,7
11,1,-11,-5,10,-5,-63,23,26,22,26,7
11,2,-9,-6,10,-4,-63,20,22,20,25,7
10,4,-7,-7,9,-1,-63,17,19,17,22,6
10,5,-5,-7,8,0,-62,14,15,15,20,6
8,5,-4,-6,6,0,-61,11,12,13,18,5
7,5,-2,-5,5,1,-60,8,9,12,17,4
6,5,-2,-5,4,1,-59,5,5,9,14,3
6,4,-3,-5,4,1,-59,2,2,7,12,1
6,3,-3,-4,4,0,-58,0,0,5,10,0
4,2,-3,-3,3,0,-57,-1,-2,4,9,0
4,1,-3,-2,3,-1,-56,-3,-4,3,7,0
4,1,-3,-2,4,-1,-55,-5,-6,1,5,-1
4,0,-3,-2,4,-2,-54,-6,-7,0,4,-1
3,0,-3,-1,3,-2,-53,-7,-9,-1,3,-2
2,-1,-3,0,2,-2,-52,-9,-10,-2,2,-3
1,-2,-3,0,1,-3,-51,-10,-12,-3,1,-4
0,-4,-5,1,2,-4,-51,-11,-13,-3,0,-4
1,-4,-6,1,2,-5,-50,-12,-14,-4,-1,-5
1,-3,-4,1,2,-4,-50,-13,-15,-5,-2,-6
0,-1,-2,0,1,-2,-51,-14,-16,-6,-4,-7
0,-1,-1,0,0,-2,-50,-14,-17,-7,-5,-8
0,-1,0,0,0,-1,-49,-15,-18,-7,-6,-8
0,0,0,0,0,0,-49,-15,-19,-8,-7,-9
0,0,1,0,-1,1,-49,-16,-20,-9,-7,-9
0,0,1,0,-1,0,-48,-16,-20,-9,-8,-10
-1,-2,-2,1,0,-2,-48,-15,-20,-9,-7,-9
-1,-6,-6,3,2,-6,-47,-14,-19,-8,-7,-8
-1,-8,-8,4,3,-8,-46,-13,-18,-7,-7,-8
-1,-7,-6,4,2,-7,-46,-14,-18,-7,-7,-8
-2,-4,-2,3,0,-3,-46,-15,-19,-8,-8,-9
-2,-3,0,2,-1,-1,-45,-15,-19,-8,-8,-9
-1,-3,0,2,0,-2,-45,-16,-19,-8,-8,-9
0,-3,-2,1,1,-2,-45,-16,-20,-8,-9,-10
0,-3,-2,1,0,-2,-45,-15,-19,-8,-9,-10
-1,-3,-2,2,0,-2,-44,-15,-18,-8,-9,-10
-1,-3,-2,2,0,-3,-44,-15,-18,-7,-9,-10
-1,-3,-2,2,0,-3,-44,-15,-18,-7,-9,-10
0,-2,-1,1,0,-2,-43,-16,-19,-8,-10,-11
0,-2,-1,1,0,-2,-43,-16,-19,-8,-9,-10
0,-3,-2,1,1,-3,-42,-15,-18,-7,-8,-9
-1,-3,-2,2,0,-3,-41,-15,-17,-6,-7,-9
-2,-3,-1,3,-1,-2,-41,-15,-17,-6,-7,-8
-1,-3,-1,2,0,-2,-41,-15,-17,-6,-7,-8
-1,-2,-1,1,0,-2,-41,-16,-17,-6,-7,-8
-1,-1,0,1,0,-1,-41,-16,-17,-6,-7,-8
-1,-2,0,1,0,-1,-40,-16,-17,-6,-7,-8
-1,-3,-1,1,0,-2,-40,-16,-17,-6,-6,-8
-1,-3,-1,1,0,-1,-39,-16,-16,-5,-5,-8
-2,-2,0,1,-1,0,-39,-16,-16,-4,-5,-7
-1,-1,1,1,-1,0,-39,-16,-16,-4,-4,-7
0,-1,0,0,-1,0,-39,-17,-17,-4,-4,-8
0,-1,0,0,-1,0,-38,-17,-17,-4,-4,-8
0,-2,-1,1,0,-1,-38,-17,-17,-4,-4,-7
1,-3,-3,1,2,-3,-37,-17,-17,-4,-4,-7
1,-3,-4,0,2,-3,-36,-16,-17,-4,-5,-7
0,-3,-3,1,2,-3,-36,-16,-17,-4,-5,-7
0,-4,-4,2,2,-4,-35,-16,-17,-3,-4,-6
0,-6,-6,2,3,-6,-35,-16,-17,-3,-4,-6
0,-5,-6,2,3,-6,-35,-17,-17,-4,-4,-7
0,-2,-3,1,2,-2,-35,-18,-18,-5,-5,-8
0,1,0,-1,0,1,-35,-19,-19,-5,-6,-9
0,1,0,0,0,1,-35,-19,-19,-5,-6,-9
0,-1,-1,1,0,0,-34,-19,-19,-5,-6,-8
0,-2,-2,1,1,-1,-33,-19,-19,-5,-6,-8
0,-2,-2,1,1,-1,-33,-20,-19,-5,-6,-8
0,-2,-2,1,1,-1,-33,-20,-20,-5,-6,-8
0,-2,-2,1,1,-2,-33,-20,-20,-5,-6,-8
0,-2,-2,1,1,-2,-33,-21,-20,-5,-6,-8
0,-1,-2,1,1,-1,-32,-21,-20,-6,-7,-9
0,-1,-2,0,1,-2,-32,-22,-20,-6,-7,-9
0,-3,-3,1,2,-3,-32,-22,-20,-6,-7,-8
-1,-5,-4,3,2,-5,-30,-22,-20,-6,-7,-8
-1,-6,-5,4,2,-6,-29,-22,-20,-6,-6,-7
-1,-7,-6,4,2,-7,-28,-22,-20,-6,-6,-7
-1,-5,-5,3,2,-5,-28,-22,-21,-7,-7,-8
0,-2,-2,0,1,-2,-28,-23,-22,-8,-8,-9
0,1,0,0,0,0,-28,-24,-22,-9,-9,-9
0,1,1,0,0,1,-28,-25,-22,-9,-9,-10
-1,0,0,0,0,0,-28,-25,-23,-10,-10,-10
-1,-2,-1,1,0,-1,-27,-25,-24,-10,-10,-10
-1,-2,0,1,-1,-1,-27,-25,-24,-11,-10,-10
-1,-1,0,1,-1,-1,-26,-26,-25,-11,-10,-10
-1,-2,-1,1,0,-1,-25,-26,-25,-11,-10,-10
-1,-2,-2,2,0,-2,-24,-26,-25,-11,-9,-10
-1,-2,-2,2,0,-2,-23,-26,-25,-11,-9,-9
-1,-1,-1,1,0,-1,-23,-26,-25,-11,-9,-9
0,-1,-1,1,0,-1,-23,-26,-25,-11,-9,-10
0,-1,-1,1,0,-1,-23,-26,-25,-12,-10,-10
1,0,-1,0,1,-1,-23,-26,-25,-12,-10,-11
2,0,-1,0,1,-1,-22,-25,-24,-12,-9,-11
2,0,-1,0,1,-1,-20,-24,-23,-11,-8,-10
1,-1,-2,0,1,-1,-18,-23,-22,-10,-7,-8
1,-1,-2,0,1,-2,-16,-22,-20,-8,-5,-7
1,1,-1,-1,1,0,-15,-21,-19,-7,-4,-6
2,4,1,-2,0,2,-14,-21,-19,-6,-3,-5
2,5,2,-3,0,3,-14,-21,-18,-5,-3,-5
3,5,2,-3,0,3,-15,-21,-18,-5,-2,-4
5,4,0,-4,2,1,-15,-20,-17,-4,-1,-3
6,4,-2,-4,4,0,-16,-20,-16,-3,0,-2
7,6,-1,-6,4,2,-18,-20,-16,-3,0,-2
8,10,1,-9,3,6,-19,-21,-17,-4,-1,-2
8,12,3,-10,2,8,-20,-22,-18,-5,-1,-2
8,13,4,-11,2,9,-21,-21,-17,-4,-1,-1
9,13,4,-11,2,9,-21,-21,-17,-3,0,0
10,13,3,-11,3,8,-22,-20,-16,-3,0,0
9,11,1,-9,4,6,-22,-20,-16,-3,1,0
8,7,-1,-7,4,3,-21,-21,-18,-3,0,0
7,5,-2,-6,4,1,-22,-23,-20,-5,0,0
7,6,-1,-6,4,3,-22,-25,-21,-7,-2,-1
7,8,1,-7,3,5,-22,-27,-22,-8,-3,-2
6,8,1,-7,2,5,-22,-27,-23,-9,-4,-2
6,7,0,-6,3,4,-20,-27,-22,-9,-4,-3
5,6,0,-5,3,3,-19,-27,-23,-10,-4,-4
4,4,0,-4,2,2,-18,-27,-24,-11,-5,-5
2,1,-1,-1,2,0,-16,-27,-24,-11,-6,-6
0,-1,-2,1,1,-1,-15,-28,-25,-12,-6,-6
-1,-2,0,2,0,-1,-15,-29,-26,-13,-7,-7
-2,-1,0,2,-1,0,-14,-30,-27,-15,-9,-8
-3,-1,1,3,-2,0,-14,-31,-28,-16,-10,-10
-3,-2,1,3,-2,0,-13,-32,-29,-17,-12,-11
-4,-2,1,4,-3,0,-13,-33,-30,-18,-13,-13
-3,-2,1,3,-3,0,-13,-34,-31,-19,-14,-14
-4,-2,2,3,-3,0,-13,-34,-32,-20,-15,-15
-5,-3,2,4,-4,0,-12,-34,-32,-20,-14,-14
-5,-4,1,4,-4,-1,-12,-34,-31,-19,-13,-13
-6,-5,0,5,-3,-1,-11,-34,-30,-19,-13,-13
-5,-5,-1,5,-2,-2,-11,-34,-30,-19,-13,-12
-4,-6,-3,5,-1,-4,-11,-33,-30,-19,-13,-12
-3,-7,-4,5,0,-5,-11,-33,-30,-19,-13,-12
-3,-6,-3,5,0,-4,-11,-33,-30,-19,-13,-12
-3,-5,-1,5,-1,-3,-11,-33,-31,-19,-14,-13
-3,-4,-1,5,-2,-2,-11,-33,-31,-19,-14,-13
-3,-4,0,5,-2,-2,-11,-34,-31,-19,-14,-13
-4,-5,-1,5,-2,-3,-10,-33,-30,-19,-14,-12
-4,-7,-3,6,0,-5,-10,-32,-30,-19,-13,-12
-4,-7,-3,6,0,-5,-9,-32,-30,-19,-13,-12
-4,-6,-2,6,-1,-4,-9,-32,-30,-19,-13,-12
-5,-5,0,6,-2,-2,-9,-32,-30,-19,-13,-12
-4,-4,1,5,-2,-1,-9,-32,-30,-19,-13,-12
-4,-5,0,6,-1,-2,-9,-32,-30,-19,-13,-12
-4,-6,-2,6,-1,-4,-8,-30,-28,-18,-12,-11
-4,-6,-3,6,0,-5,-8,-29,-27,-17,-11,-10
-2,-6,-4,4,1,-5,-8,-30,-27,-17,-11,-11
-2,-6,-4,3,1,-5,-8,-30,-26,-17,-10,-10
-3,-6,-3,4,0,-4,-7,-29,-25,-16,-9,-9
-4,-6,-2,5,0,-4,-6,-28,-24,-14,-7,-9
-4,-6,-2,5,0,-5,-5,-26,-22,-12,-7,-9
-4,-4,0,5,-1,-3,-5,-23,-19,-10,-6,-9
-4,-1,3,3,-3,0,-4,-21,-16,-8,-6,-10
-6,1,6,3,-5,3,-2,-20,-13,-6,-5,-11
-7,0,7,3,-7,3,1,-18,-10,-2,-3,-11
-7,-1,5,4,-6,1,3,-15,-4,3,1,-9
-6,-3,2,4,-4,0,4,-10,3,12,10,-4
-3,0,2,2,-3,0,2,-7,9,21,22,4
2,7,4,-4,-1,5,-3,-6,15,31,36,15
10,16,6,-12,1,11,-10,-5,21,43,55,30
19,24,5,-21,7,15,-18,-2,32,60,79,49
30,32,2,-30,14,17,-26,6,49,81,107,71
41,41,0,-41,20,21,-33,17,67,102,135,92
52,50,-1,-51,27,24,-38,32,90,127,166,114
63,59,-3,-61,33,28,-41,53,120,156,200,136
71,68,-2,-70,37,33,-43,76,153,185,232,158
76,77,1,-76,37,39,-43,100,185,208,254,174
77,81,4,-78,36,42,-41,123,212,219,259,182
75,75,0,-74,37,38,-36,142,232,215,244,179
70,61,-9,-65,39,26,-28,154,243,197,209,163
60,44,-16,-52,38,14,-17,155,236,164,155,130
43,26,-16,-35,29,5,-2,141,209,121,90,81
21,11,-9,-16,15,1,15,116,171,80,33,33
0,0,2,0,-1,1,32,91,132,48,-7,-4
-18,-9,9,14,-14,0,48,73,102,26,-32,-31
-29,-14,15,23,-22,0,61,62,80,11,-47,-51
-37,-17,20,29,-29,1,73,53,59,-2,-57,-64
-43,-21,22,33,-33,1,83,45,39,-14,-63,-70
-48,-24,24,37,-36,1,92,41,23,-24,-67,-74
-51,-26,25,39,-38,0,102,36,11,-30,-68,-75
-53,-28,26,40,-39,0,110,28,-1,-37,-70,-75
-55,-27,28,41,-41,0,117,19,-13,-42,-71,-76
-56,-26,30,41,-42,2,122,13,-21,-45,-71,-75
-56,-25,31,41,-43,3,126,9,-24,-44,-67,-72
-55,-23,31,40,-43,4,127,5,-27,-42,-63,-69
-52,-20,32,38,-43,6,123,-2,-30,-41,-59,-65
-50,-16,34,34,-42,9,116,-10,-33,-40,-56,-61
-47,-12,35,30,-42,11,107,-19,-36,-40,-53,-57
-45,-9,36,27,-41,14,97,-28,-39,-39,-50,-53
-42,-5,37,23,-40,16,84,-37,-42,-39,-48,-50
-38,-2,36,21,-38,17,71,-44,-44,-39,-45,-47
-35,-1,35,19,-35,17,59,-49,-46,-39,-42,-44
-32,0,33,17,-33,16,47,-52,-47,-38,-40,-41
-29,0,30,16,-30,15,37,-51,-47,-37,-37,-37
-25,-1,24,15,-25,12,27,-49,-45,-36,-34,-32
-20,-3,17,13,-19,7,19,-46,-42,-34,-31,-29
-15,-5,10,11,-12,2,12,-43,-40,-33,-28,-27
-12,-7,4,10,-8,-2,8,-39,-36,-30,-25,-24
-10,-8,1,10,-5,-4,5,-35,-34,-28,-23,-22
-9,-8,1,9,-5,-4,2,-34,-33,-28,-22,-22
-8,-8,0,9,-3,-5,0,-32,-32,-28,-21,-21
-7,-11,-4,10,-1,-8,-1,-31,-31,-27,-20,-20
-6,-13,-6,11,0,-9,-2,-31,-31,-26,-19,-19
-6,-12,-5,10,0,-9,-3,-32,-31,-26,-19,-18
-6,-11,-4,9,-1,-7,-4,-32,-30,-25,-18,-17
-5,-10,-4,8,0,-7,-4,-31,-29,-24,-18,-17
-4,-11,-6,7,1,-8,-5,-31,-28,-24,-17,-17
-4,-12,-8,8,2,-10,-6,-30,-27,-24,-17,-17
-4,-12,-7,8,2,-9,-7,-29,-27,-24,-17,-17
-5,-12,-6,8,1,-9,-8,-28,-28,-25,-17,-17
-4,-12,-7,8,2,-9,-8,-28,-28,-25,-17,-17
-3,-12,-9,8,3,-10,-8,-27,-27,-24,-16,-16
-3,-13,-10,8,3,-11,-8,-27,-27,-23,-16,-16
-3,-13,-10,9,3,-11,-8,-27,-26,-23,-15,-16
-4,-14,-11,9,3,-12,-8,-26,-25,-23,-15,-16
-4,-14,-11,10,3,-12,-8,-26,-24,-22,-15,-16
-4,-13,-9,9,2,-11,-8,-26,-24,-22,-15,-16
-4,-11,-8,8,1,-10,-9,-26,-24,-22,-15,-16
-3,-11,-8,8,2,-9,-9,-26,-24,-22,-15,-16
-3,-11,-8,7,2,-9,-10,-26,-24,-21,-15,-16
-3,-10,-7,7,1,-8,-10,-26,-24,-21,-15,-17
-3,-8,-5,6,0,-6,-11,-26,-24,-22,-15,-17
-3,-8,-4,5,0,-5,-11,-26,-23,-22,-16,-17
-3,-9,-5,6,1,-6,-11,-25,-23,-21,-16,-17
-3,-11,-7,7,2,-9,-11,-24,-22,-21,-15,-17
-4,-12,-8,9,2,-10,-11,-23,-21,-20,-14,-16
-4,-13,-9,9,2,-11,-11,-22,-20,-20,-14,-16
-4,-13,-9,9,2,-11,-11,-22,-20,-19,-13,-16
-4,-12,-8,9,2,-10,-11,-22,-20,-19,-13,-16
-4,-11,-7,8,1,-9,-11,-22,-20,-19,-13,-17
-4,-11,-7,8,1,-9,-11,-21,-19,-19,-13,-17
-4,-10,-6,8,1,-8,-11,-20,-18,-18,-13,-17
-5,-11,-6,8,1,-8,-12,-20,-17,-18,-13,-17
-5,-11,-6,8,1,-8,-12,-19,-16,-17,-13,-16
-4,-11,-7,7,1,-8,-12,-18,-15,-17,-12,-16
-3,-9,-6,6,1,-7,-12,-18,-15,-17,-12,-16
-2,-8,-6,5,1,-7,-13,-17,-15,-16,-12,-16
-3,-9,-7,7,1,-8,-12,-16,-15,-15,-11,-16
-4,-11,-8,8,2,-10,-12,-15,-14,-14,-11,-15
-5,-12,-8,9,2,-10,-12,-14,-13,-14,-11,-15
-5,-12,-7,9,1,-10,-12,-14,-12,-13,-11,-15
-5,-12,-7,9,1,-9,-12,-13,-12,-13,-11,-15
-5,-11,-5,9,0,-8,-13,-13,-11,-13,-11,-16
-5,-9,-4,8,0,-6,-13,-12,-11,-13,-11,-16
-5,-9,-3,7,0,-6,-13,-11,-9,-12,-10,-16
-5,-10,-5,8,0,-7,-13,-9,-7,-10,-8,-15
-4,-11,-7,8,1,-9,-13,-7,-5,-9,-7,-15
-3,-11,-8,7,2,-9,-13,-6,-4,-9,-7,-15
-3,-12,-9,7,3,-10,-13,-5,-4,-9,-7,-15
-2,-12,-10,7,4,-11,-13,-3,-2,-8,-6,-15
-1,-13,-11,7,5,-11,-13,-2,-1,-8,-6,-14
-1,-13,-11,8,5,-12,-13,0,0,-7,-5,-14
-3,-14,-10,8,4,-12,-13,1,2,-6,-4,-14
-4,-14,-10,9,3,-12,-13,3,4,-4,-3,-13
-4,-15,-11,9,4,-13,-13,5,6,-2,-2,-13
-2,-15,-13,9,5,-14,-13,7,8,-1,-1,-13
-1,-15,-14,9,6,-14,-13,9,11,0,-1,-13
-1,-13,-12,8,5,-12,-14,11,12,1,0,-13
-1,-11,-10,7,4,-10,-15,13,14,1,0,-13
0,-11,-10,6,4,-10,-15,15,17,3,1,-13
0,-12,-11,6,6,-11,-16,18,20,4,3,-12
1,-13,-13,6,7,-13,-16,22,24,6,5,-11
1,-13,-14,6,8,-14,-16,25,28,8,7,-11
1,-13,-15,6,8,-14,-16,28,31,10,9,-11
2,-13,-15,5,9,-14,-16,31,34,11,11,-10
4,-12,-16,4,10,-13,-16,33,36,13,12,-8
4,-11,-15,4,10,-13,-17,34,37,14,13,-7
4,-11,-14,4,9,-12,-17,36,39,15,15,-6
3,-11,-14,4,8,-12,-18,37,41,17,17,-6
4,-9,-14,2,9,-12,-20,37,42,18,18,-6
6,-7,-14,1,10,-11,-21,37,43,18,19,-5
6,-7,-14,0,11,-11,-22,38,44,19,20,-4
7,-8,-16,0,12,-12,-22,38,45,20,21,-3
8,-9,-16,0,12,-12,-23,38,45,20,22,-1
7,-8,-15,0,11,-11,-24,38,44,20,22,0
7,-7,-14,0,11,-10,-24,37,44,20,23,0
8,-6,-14,-1,11,-9,-25,35,43,20,23,1
9,-3,-12,-3,10,-7,-26,33,41,20,22,1
9,0,-8,-5,9,-4,-27,31,39,19,22,1
9,3,-6,-6,8,-1,-28,29,38,18,22,2
10,5,-5,-7,8,0,-28,26,36,17,22,2
10,6,-5,-8,8,0,-29,24,34,17,22,3
10,6,-5,-7,8,1,-28,22,31,16,21,4
10,5,-5,-7,7,1,-28,20,29,15,21,5
9,4,-6,-6,7,0,-27,17,26,15,20,6
9,4,-5,-6,7,0,-27,14,23,14,18,6
8,6,-1,-7,5,2,-27,10,20,12,17,5
7,7,0,-7,3,3,-27,7,17,10,15,4
6,7,0,-6,3,3,-26,4,14,8,13,4
6,6,0,-5,3,3,-25,1,11,7,11,3
5,5,0,-4,2,3,-24,0,8,5,9,2
5,5,0,-4,2,3,-24,-2,6,4,7,1
4,4,0,-4,2,2,-23,-4,4,2,5,0
3,3,0,-3,2,2,-23,-7,2,1,3,-1
2,4,1,-4,1,3,-23,-9,0,0,1,-2
2,5,3,-4,0,4,-23,-12,-2,-2,-1,-4
2,4,2,-3,0,3,-23,-13,-3,-3,-3,-5
1,1,-1,-1,1,0,-22,-14,-4,-4,-3,-5
0,-2,-3,1,1,-2,-21,-14,-5,-4,-3,-6
-1,-3,-1,2,0,-1,-21,-14,-6,-5,-4,-7
-2,-1,1,1,-2,1,-21,-15,-8,-7,-6,-9
-2,0,2,1,-2,2,-21,-16,-9,-7,-8,-9
-2,0,2,0,-1,2,-22,-17,-9,-8,-9,-10
-2,1,3,0,-2,2,-22,-17,-10,-8,-9,-10
-2,1,3,0,-2,2,-21,-18,-10,-8,-10,-10
-2,1,3,0,-2,2,-21,-18,-11,-9,-10,-10
-2,1,3,0,-2,2,-21,-19,-12,-9,-11,-11
-2,1,3,0,-2,3,-21,-19,-12,-9,-11,-11
-2,1,2,0,-2,2,-21,-20,-13,-10,-12,-11
-1,0,1,1,-1,1,-20,-20,-13,-10,-12,-11
-2,0,1,1,-1,1,-20,-20,-13,-10,-12,-11
-3,0,2,1,-2,1,-20,-20,-13,-10,-13,-11
-3,0,3,1,-3,2,-20,-20,-13,-10,-13,-11
-3,1,3,1,-3,2,-20,-20,-13,-10,-14,-11
-3,0,3,1,-3,2,-20,-20,-13,-10,-14,-11
-4,-1,2,3,-3,1,-19,-19,-13,-9,-13,-10
-4,-3,0,4,-2,-1,-18,-18,-12,-8,-13,-10
-3,-3,0,4,-2,-2,-18,-17,-11,-8,-12,-9
-4,-2,1,3,-3,0,-18,-16,-11,-8,-12,-9
-3,0,2,2,-3,1,-19,-17,-11,-8,-13,-10
-2,0,0,1,-1,0,-19,-17,-11,-8,-13,-10
-2,-3,-2,3,0,-3,-18,-16,-10,-7,-12,-9
-2,-7,-4,5,1,-5,-17,-15,-9,-6,-11,-8
-2,-7,-4,5,1,-5,-17,-15,-9,-6,-11,-8
-3,-5,-2,4,0,-3,-18,-16,-10,-6,-11,-8
-4,-3,1,4,-2,0,-18,-17,-10,-7,-11,-9
-4,-1,2,3,-3,0,-18,-17,-10,-7,-11,-9
-4,0,3,3,-3,1,-19,-17,-10,-7,-11,-9
-4,1,4,2,-4,2,-19,-17,-10,-7,-11,-9
-4,3,6,1,-5,4,-20,-17,-10,-8,-11,-9
-3,5,8,0,-5,6,-20,-18,-11,-8,-11,-10
-3,4,6,0,-4,5,-20,-18,-11,-7,-11,-9
-3,-1,1,2,-2,0,-20,-17,-9,-6,-9,-8
-3,-7,-4,5,0,-5,-18,-15,-7,-4,-7,-6
-4,-10,-6,6,1,-7,-18,-15,-7,-3,-7,-5
-4,-7,-3,5,0,-4,-19,-15,-8,-5,-8,-6
-4,-2,1,3,-2,0,-20,-16,-9,-6,-9,-7
-4,0,3,2,-3,1,-20,-17,-9,-7,-9,-7
-4,0,3,2,-3,1,-20,-17,-9,-7,-8,-7
-4,0,3,2,-3,1,-20,-17,-9,-7,-8,-7
-4,0,3,2,-3,1,-20,-18,-9,-7,-8,-6
-3,0,2,2,-3,1,-19,-18,-9,-7,-8,-6
-2,0,2,1,-2,1,-20,-19,-10,-7,-9,-7
-2,1,2,0,-2,2,-20,-19,-11,-8,-10,-8
-2,0,2,1,-2,1,-20,-19,-11,-8,-10,-8
-3,0,1,1,-2,0,-19,-19,-11,-8,-9,-7
-3,0,2,1,-2,1,-19,-19,-11,-8,-9,-8
-3,1,3,1,-3,2,-19,-19,-11,-8,-9,-8
-3,1,3,1,-3,2,-19,-20,-11,-9,-9,-8
-2,1,2,1,-2,2,-19,-20,-12,-9,-9,-8
-2,1,2,0,-2,2,-19,-21,-12,-10,-10,-9
-2,2,2,0,-2,2,-20,-21,-13,-10,-10,-9
-3,1,2,1,-2,2,-19,-20,-13,-10,-10,-8
-3,1,2,1,-2,2,-18,-20,-13,-10,-10,-8
-2,1,2,1,-2,2,-18,-21,-13,-10,-10,-8
-2,0,1,1,-1,1,-17,-21,-13,-10,-10,-8
-2,-2,0,2,-1,-1,-17,-21,-14,-10,-10,-8
-2,-3,-1,2,0,-2,-17,-21,-14,-10,-10,-8
-3,-2,0,2,-1,-1,-17,-21,-14,-11,-10,-9
-4,-3,1,3,-2,-1,-16,-20,-14,-10,-9,-8
-4,-8,-4,6,0,-6,-15,-19,-13,-8,-7,-6
-2,-10,-9,6,3,-10,-15,-19,-13,-8,-7,-6
-1,-6,-6,4,3,-6,-15,-21,-14,-10,-8,-7
-2,-1,0,1,0,0,-16,-23,-15,-11,-10,-9
-3,1,4,1,-3,3,-16,-24,-16,-12,-10,-9
-4,0,5,2,-4,3,-15,-24,-16,-12,-10,-9
-4,-1,3,2,-4,1,-15,-23,-16,-12,-10,-9
-3,-2,1,2,-2,0,-14,-23,-16,-11,-10,-9
-2,-2,0,2,-1,-1,-14,-23,-16,-11,-10,-9
-2,-2,0,2,-1,-1,-14,-23,-16,-11,-10,-9
-1,0,0,1,-1,0,-13,-23,-16,-11,-9,-9
-1,1,2,0,-1,2,-12,-22,-15,-10,-9,-8
-1,3,4,-1,-2,4,-11,-21,-15,-9,-8,-8
0,6,7,-3,-3,6,-11,-21,-14,-9,-8,-8
1,8,8,-5,-3,8,-10,-21,-14,-8,-8,-7
2,9,8,-6,-3,9,-10,-20,-13,-7,-7,-7
1,10,9,-6,-4,10,-9,-19,-12,-6,-6,-5
0,10,9,-5,-5,10,-9,-19,-11,-5,-4,-4
1,10,8,-6,-4,9,-10,-18,-10,-3,-3,-3
3,10,6,-7,-2,9,-10,-18,-9,-2,-2,-2
4,11,6,-9,0,9,-11,-19,-8,-2,-2,-1
5,12,6,-9,0,9,-12,-20,-8,-2,-2,-1
6,12,6,-9,0,9,-13,-20,-8,-3,-2,-1
6,12,6,-9,0,9,-14,-19,-8,-2,-1,0
6,12,6,-10,0,9,-15,-18,-7,-1,-1,0
6,12,5,-10,0,9,-16,-17,-7,-1,0,1
7,12,4,-10,1,8,-16,-17,-7,-1,-1,1
7,12,3,-10,1,7,-16,-19,-8,-2,-2,0
8,11,2,-10,2,7,-16,-21,-9,-3,-3,0
8,10,1,-9,3,6,-16,-22,-10,-4,-3,0
7,9,2,-7,2,5,-15,-23,-11,-4,-4,0
6,8,3,-6,1,6,-15,-23,-12,-5,-4,-1
5,9,4,-6,0,6,-14,-24,-13,-5,-5,-2
4,9,5,-6,-1,7,-13,-24,-14,-6,-6,-3
2,7,5,-4,-2,6,-12,-25,-14,-6,-7,-3
0,4,3,-2,-2,4,-10,-25,-15,-7,-8,-4
-1,1,2,-1,-2,2,-8,-25,-14,-7,-8,-4
-2,-1,0,1,-2,0,-6,-25,-14,-7,-8,-4
-3,-3,0,2,-2,-1,-5,-25,-15,-8,-9,-5
-4,-3,1,3,-3,0,-5,-26,-17,-10,-11,-7
-5,-2,3,3,-4,1,-5,-27,-18,-11,-12,-9
-6,-2,3,4,-5,0,-5,-27,-19,-12,-13,-10
-6,-4,2,5,-5,0,-4,-27,-19,-12,-13,-10
-6,-3,2,4,-5,0,-4,-27,-20,-13,-14,-11
-6,-1,4,3,-6,2,-4,-28,-21,-14,-15,-12
-6,0,6,2,-6,4,-3,-29,-21,-14,-15,-12
-6,0,6,2,-5,4,-3,-29,-22,-14,-16,-12
-5,-1,4,2,-4,1,-2,-29,-22,-14,-16,-12
-5,-4,1,4,-3,-2,-2,-28,-21,-13,-15,-12
-5,-6,0,6,-2,-4,-1,-28,-20,-13,-14,-11
-5,-6,0,6,-3,-3,-2,-28,-21,-13,-15,-11
-6,-4,2,5,-4,-1,-2,-29,-21,-14,-15,-12
-6,-2,4,5,-5,1,-2,-30,-21,-14,-15,-12
-6,-2,4,4,-5,1,-2,-29,-21,-14,-15,-11
-6,-2,3,4,-4,0,-2,-29,-21,-14,-15,-12
-6,-1,5,3,-5,2,-2,-30,-22,-15,-16,-13
-6,0,6,3,-6,3,-3,-31,-23,-15,-16,-13
-5,0,6,2,-5,3,-3,-31,-23,-15,-16,-13
-5,1,5,1,-5,3,-3,-31,-24,-15,-16,-13
-5,1,5,2,-6,4,-3,-30,-24,-15,-16,-13
-6,0,4,3,-6,3,-2,-29,-23,-13,-15,-12
-6,0,4,3,-6,2,-1,-28,-21,-12,-14,-11
-6,0,4,3,-6,2,0,-28,-21,-12,-14,-11
-5,0,4,2,-5,2,0,-27,-20,-11,-13,-11
-5,0,5,2,-5,2,0,-26,-20,-11,-12,-11
-5,0,5,2,-5,2,0,-25,-19,-10,-11,-10
-5,0,4,2,-4,2,1,-24,-17,-9,-10,-10
-4,-1,3,2,-4,2,1,-21,-15,-7,-9,-9
-5,0,5,2,-5,3,3,-18,-10,-3,-7,-9
-6,2,7,2,-7,5,5,-14,-5,1,-5,-8
-7,3,10,2,-9,7,8,-11,-1,5,-3,-8
-8,4,13,2,-11,9,10,-9,2,9,0,-8
-9,6,15,1,-12,11,11,-7,7,15,5,-5
-7,9,16,-1,-11,12,11,-3,13,23,14,0
-3,12,15,-5,-9,13,9,0,19,33,27,9
3,15,12,-9,-5,14,4,1,27,44,43,21
10,20,10,-15,0,15,-1,3,36,59,64,38
19,26,7,-22,5,17,-7,9,50,78,89,58
30,34,4,-32,13,19,-14,18,68,99,117,80
42,41,0,-42,21,20,-20,30,87,121,146,102
53,49,-2,-52,28,23,-25,47,110,145,177,124
63,60,-2,-62,33,28,-29,68,139,173,208,145
71,72,1,-72,35,36,-32,91,170,199,236,164
76,82,5,-80,35,44,-32,113,199,218,252,176
78,85,6,-82,35,46,-29,135,221,222,249,179
76,78,1,-77,37,40,-23,153,237,211,225,172
70,62,-8,-66,39,27,-14,164,241,187,184,153
58,42,-15,-50,36,13,-1,163,228,152,126,116
38,23,-14,-31,26,5,13,147,198,111,64,66
14,9,-5,-13,10,2,30,121,160,73,12,21
-6,0,5,1,-5,2,46,95,124,45,-22,-12
-21,-6,13,13,-17,3,60,78,99,27,-42,-37
-32,-10,20,21,-26,4,73,68,81,16,-54,-55
-40,-15,24,27,-32,4,85,60,63,6,-60,-64
