leadI,leadII,leadIII,leadaVR,leadaVL,leadaVF,leadV1,leadV2,leadV3,leadV4,leadV5,leadV6
0,0,0,0,0,0,0,0,0,0,-1,-4
0,0,0,0,0,0,0,0,-1,-2,-2,-12
-1,-1,-1,1,0,-1,0,0,-1,-3,-3,-16
-2,-2,-1,2,0,-1,0,0,-2,-4,-4,-19
-2,-3,-1,3,0,-2,1,0,-2,-4,-5,-21
-2,-4,-1,4,0,-2,2,1,-2,-4,-6,-23
-2,-4,-2,4,0,-3,2,1,-2,-4,-6,-24
-2,-4,-2,4,0,-3,3,1,-2,-4,-7,-25
-2,-5,-2,4,0,-3,3,1,-2,-5,-7,-26
-3,-5,-2,4,-1,-4,3,1,-3,-5,-8,-26
-4,-6,-2,5,-1,-4,3,1,-3,-6,-8,-27
-4,-7,-3,6,-1,-5,3,1,-3,-6,-8,-27
-4,-7,-3,6,-1,-5,3,1,-3,-6,-8,-27
-4,-7,-3,6,-1,-5,3,1,-3,-6,-8,-26
-4,-7,-3,6,-1,-5,3,1,-3,-7,-9,-26
-6,-9,-3,7,-2,-5,3,1,-3,-7,-9,-27
-6,-9,-3,8,-2,-6,3,1,-4,-8,-9,-27
-6,-9,-3,7,-2,-5,4,1,-4,-8,-9,-27
-6,-8,-3,7,-2,-5,4,1,-3,-8,-9,-27
-5,-8,-3,7,-2,-5,4,1,-3,-8,-9,-27
-5,-8,-3,7,-2,-5,4,1,-3,-8,-9,-27
-4,-8,-3,7,-1,-5,4,1,-3,-8,-9,-27
-4,-8,-3,6,-1,-5,4,1,-3,-8,-9,-27
-4,-8,-3,6,-1,-5,4,1,-3,-8,-9,-27
-4,-8,-3,6,-1,-5,4,1,-3,-8,-9,-26
-5,-8,-3,6,-1,-5,4,1,-3,-8,-9,-26
-5,-9,-4,7,-1,-6,4,1,-3,-8,-9,-26
-6,-9,-4,7,-1,-6,4,1,-3,-8,-9,-26
-6,-9,-4,8,-1,-6,4,1,-3,-8,-9,-26
-6,-9,-4,8,-1,-6,4,1,-3,-8,-9,-26
-6,-9,-4,8,-1,-6,4,1,-3,-8,-9,-26
-6,-9,-4,8,-1,-6,4,1,-3,-8,-9,-25
-6,-9,-4,8,-1,-6,4,1,-3,-8,-9,-25
-6,-9,-4,8,-1,-6,4,1,-3,-8,-9,-26
-5,-9,-4,7,-1,-6,4,1,-3,-8,-9,-26
-5,-8,-4,7,-1,-6,4,1,-3,-8,-9,-25
-5,-8,-4,7,0,-6,5,2,-3,-8,-9,-25
-5,-9,-5,7,0,-7,5,2,-3,-8,-9,-25
-5,-11,-6,8,0,-8,5,3,-2,-7,-10,-26
-5,-12,-6,8,0,-8,5,4,0,-6,-10,-26
-5,-12,-6,9,0,-9,5,5,2,-3,-9,-26
-5,-11,-6,8,0,-8,4,6,6,1,-6,-25
-5,-10,-5,7,0,-7,4,6,11,7,-2,-23
-4,-8,-4,6,0,-6,2,5,17,15,3,-21
-2,-5,-3,3,0,-4,0,3,22,23,10,-16
0,-2,-2,0,1,-2,-3,0,21,29,18,-10
4,1,-2,-2,2,0,-8,-4,15,34,27,-2
8,5,-2,-6,4,2,-13,-10,4,35,38,7
12,10,-1,-11,6,5,-20,-19,-12,33,49,20
17,16,-1,-16,9,8,-28,-28,-30,29,62,34
23,23,0,-23,11,12,-36,-39,-50,23,75,50
29,31,1,-30,13,16,-45,-51,-73,13,87,66
35,39,3,-37,16,22,-54,-64,-96,2,100,83
42,48,6,-45,17,28,-60,-73,-116,-7,114,102
48,55,7,-51,20,32,-65,-79,-134,-15,127,120
53,58,5,-56,23,33,-68,-83,-151,-23,136,135
57,58,1,-57,27,31,-72,-87,-167,-34,136,145
58,54,-3,-56,30,26,-75,-93,-185,-51,124,152
57,49,-8,-53,32,21,-78,-101,-202,-71,103,154
55,43,-12,-49,34,16,-83,-111,-218,-93,79,153
51,38,-13,-45,32,13,-87,-121,-230,-114,53,147
45,36,-9,-40,27,14,-89,-131,-236,-136,26,137
36,33,-4,-34,20,15,-89,-138,-237,-156,-1,121
28,29,1,-28,13,16,-87,-141,-232,-172,-28,101
19,25,6,-22,6,16,-83,-141,-222,-181,-50,80
11,22,11,-17,0,17,-77,-136,-209,-182,-64,61
4,19,15,-12,-5,18,-71,-129,-194,-176,-71,45
-1,17,19,-8,-10,19,-64,-121,-177,-166,-73,31
-7,15,23,-4,-15,19,-57,-111,-158,-153,-71,20
-12,12,24,0,-18,18,-49,-98,-138,-136,-67,10
-15,6,22,4,-19,15,-39,-83,-116,-117,-61,2
-17,1,18,8,-18,10,-29,-67,-94,-97,-54,-3
-18,-4,15,11,-17,6,-20,-52,-74,-79,-46,-6
-19,-8,11,14,-16,2,-13,-39,-57,-64,-40,-8
-19,-11,8,15,-14,0,-7,-29,-42,-51,-33,-8
-18,-12,5,15,-13,-2,-2,-20,-30,-39,-27,-8
-17,-14,3,16,-11,-4,1,-12,-20,-29,-22,-6
-16,-15,1,16,-9,-6,3,-7,-12,-22,-19,-2
-15,-15,0,16,-7,-7,5,-3,-7,-16,-17,0
-14,-15,-1,15,-7,-7,6,0,-3,-12,-15,2
-14,-15,-1,14,-7,-7,7,2,0,-9,-14,3
-14,-15,-1,14,-7,-7,7,3,2,-7,-13,3
-14,-16,-1,14,-7,-8,8,4,4,-6,-13,6
-13,-15,-2,14,-7,-8,9,5,6,-4,-12,12
-13,-15,-2,13,-6,-8,10,7,7,-3,-12,18
-12,-15,-3,13,-5,-8,11,8,8,-2,-12,19
-12,-16,-3,14,-5,-8,11,9,9,-2,-12,16
-12,-16,-4,14,-5,-9,11,10,10,-1,-12,13
-13,-16,-4,15,-5,-9,11,10,10,-1,-12,9
-13,-16,-4,15,-6,-9,11,10,11,0,-12,5
-13,-16,-3,15,-6,-9,11,10,11,0,-12,0
-14,-17,-3,15,-6,-9,11,10,12,0,-12,-4
-14,-17,-3,16,-6,-9,11,10,12,0,-12,-7
-15,-17,-3,16,-6,-9,12,10,12,0,-12,-11
-15,-17,-3,16,-6,-9,12,11,12,1,-12,-13
-15,-17,-3,16,-6,-9,12,11,12,1,-12,-15
-14,-17,-3,16,-6,-9,12,11,12,1,-12,-17
-14,-17,-3,15,-6,-9,12,11,13,1,-12,-19
-13,-17,-3,15,-6,-9,12,11,13,1,-12,-19
-13,-16,-3,14,-6,-9,12,11,13,1,-12,-19
-12,-16,-3,14,-5,-9,12,11,14,2,-11,-19
-13,-15,-3,14,-5,-8,12,11,14,2,-11,-20
-14,-15,-2,15,-6,-8,12,11,14,2,-10,-20
-14,-16,-2,15,-6,-8,12,11,14,3,-10,-20
-13,-16,-3,15,-6,-8,12,11,14,3,-10,-19
-13,-16,-3,14,-6,-8,11,11,14,3,-10,-18
-13,-16,-2,14,-6,-8,11,11,14,3,-10,-18
-12,-16,-2,14,-6,-8,11,11,14,3,-10,-18
-12,-16,-3,14,-6,-8,11,11,14,3,-10,-19
-12,-16,-3,14,-6,-8,10,11,14,3,-10,-20
-13,-16,-3,14,-6,-8,10,11,14,3,-10,-21
-13,-16,-3,14,-6,-8,10,11,14,3,-10,-20
-14,-16,-3,15,-6,-8,10,11,14,3,-10,-20
-15,-17,-2,15,-7,-8,10,10,14,3,-10,-20
-14,-16,-2,15,-7,-8,10,11,14,3,-10,-20
-14,-16,-2,15,-7,-8,10,11,15,3,-10,-20
-13,-15,-2,14,-7,-8,10,11,15,4,-10,-20
-13,-15,-2,14,-7,-8,10,11,15,4,-10,-22
-13,-15,-2,14,-7,-8,10,11,15,4,-10,-23
-13,-15,-2,14,-7,-8,10,11,15,4,-10,-23
-13,-15,-2,14,-7,-7,10,11,15,5,-10,-23
-13,-15,-2,14,-7,-7,10,11,15,5,-9,-23
-13,-15,-1,14,-7,-7,9,11,15,5,-9,-23
-13,-14,-1,14,-7,-7,9,11,16,5,-9,-23
-13,-14,-1,14,-7,-7,9,11,16,6,-9,-23
-13,-14,-1,14,-7,-7,9,11,16,6,-9,-23
-13,-15,-1,14,-6,-7,9,11,16,7,-9,-22
-13,-15,-1,14,-6,-7,9,11,16,7,-9,-22
-13,-14,-1,14,-6,-7,9,12,17,7,-8,-21
-13,-13,-1,13,-6,-7,9,12,17,8,-8,-20
-12,-13,-1,12,-6,-7,9,12,18,8,-8,-19
-13,-14,-1,13,-7,-7,9,12,18,9,-8,-19
-13,-14,-1,13,-7,-7,9,12,18,9,-8,-19
-13,-14,-1,14,-7,-7,9,12,18,9,-8,-19
-13,-14,-1,14,-7,-7,9,12,19,10,-7,-20
-13,-14,-1,13,-6,-7,9,13,19,10,-7,-20
-12,-13,-1,13,-6,-6,9,13,20,11,-7,-21
-12,-13,-1,12,-6,-6,9,13,20,11,-6,-21
-13,-13,-1,13,-6,-6,9,13,21,12,-6,-22
-14,-15,-1,15,-7,-7,9,13,21,12,-6,-23
-15,-16,-1,15,-7,-7,9,13,21,12,-6,-23
-15,-15,-1,15,-7,-7,9,13,21,12,-6,-22
-15,-15,0,15,-8,-7,9,14,22,13,-5,-21
-15,-15,0,15,-8,-7,8,14,22,13,-5,-19
-15,-15,0,15,-8,-7,8,14,22,14,-5,-18
-15,-15,0,15,-8,-7,8,14,23,15,-5,-17
-14,-14,0,14,-8,-7,8,14,24,16,-4,-16
-13,-13,0,13,-7,-6,8,15,25,17,-3,-15
-12,-13,-1,12,-6,-6,9,16,26,18,-2,-14
-12,-12,0,12,-6,-6,9,16,26,19,-2,-14
-12,-12,0,12,-6,-6,9,17,27,20,-1,-13
-12,-12,0,12,-6,-6,9,17,27,21,-1,-12
-13,-12,0,12,-6,-6,9,18,28,21,-1,-11
-13,-13,0,13,-7,-6,9,18,28,22,-1,-11
-13,-13,0,13,-7,-6,9,18,29,22,-1,-11
-13,-13,0,13,-7,-6,9,18,30,24,0,-10
-13,-13,0,13,-7,-5,9,19,32,25,0,-10
-13,-12,1,13,-7,-5,9,20,33,27,2,-11
-13,-12,1,12,-7,-4,9,21,35,29,3,-11
-12,-11,1,11,-6,-4,9,22,36,30,4,-10
-11,-11,0,11,-5,-4,9,22,36,31,4,-10
-10,-11,0,11,-5,-4,9,22,37,33,5,-9
-11,-11,0,11,-6,-4,9,23,38,34,5,-9
-11,-11,0,11,-6,-4,8,24,40,36,6,-10
-11,-10,0,10,-6,-4,8,25,42,38,8,-11
-10,-10,0,10,-5,-4,8,26,44,41,9,-10
-10,-10,0,9,-5,-4,8,27,45,44,11,-9
-10,-10,0,10,-5,-4,8,28,47,46,12,-9
-10,-9,1,10,-5,-3,9,29,48,49,14,-9
-9,-8,1,9,-5,-3,9,30,50,51,16,-9
-8,-7,1,8,-5,-2,10,32,53,54,17,-8
-7,-6,1,7,-5,-2,10,33,55,58,19,-7
-7,-5,1,6,-5,-1,10,35,58,61,22,-5
-7,-5,1,6,-4,-1,10,36,60,65,24,-3
-6,-5,1,6,-4,-1,9,38,63,69,27,-2
-5,-4,1,4,-3,-1,9,39,65,73,29,-2
-4,-3,1,4,-3,0,9,41,68,77,31,-2
-5,-3,1,4,-3,0,9,42,70,80,34,-1
-5,-3,1,4,-3,0,9,43,72,84,36,0
-4,-1,2,2,-3,0,9,44,75,88,38,2
-2,0,2,1,-2,2,9,46,78,92,41,3
-1,1,3,0,-2,3,9,48,81,96,44,5
0,3,3,-1,-1,4,9,49,83,100,47,6
0,4,3,-2,-1,4,9,50,86,103,50,8
0,4,4,-2,-1,5,9,51,87,106,52,10
0,5,4,-2,-1,5,9,51,89,108,54,11
1,6,4,-3,-1,6,8,52,90,110,56,13
2,8,4,-5,-1,7,8,52,91,112,58,14
3,9,5,-6,-1,8,7,53,93,114,60,16
4,10,5,-7,-1,9,7,53,94,116,62,17
3,11,6,-7,-2,9,6,53,94,116,64,18
3,11,7,-7,-3,10,6,53,94,117,65,19
3,12,8,-7,-3,11,5,52,93,116,65,20
3,12,9,-7,-3,12,5,51,92,115,65,21
3,13,9,-8,-3,12,4,49,90,113,65,22
4,13,9,-8,-3,13,4,47,88,110,64,23
4,14,9,-9,-3,13,3,45,85,107,64,24
4,15,10,-9,-3,13,2,43,83,104,63,25
5,16,10,-10,-3,14,2,42,80,100,61,26
5,17,11,-10,-3,14,1,40,76,95,59,26
5,17,11,-11,-3,15,1,38,72,90,57,27
5,18,12,-11,-4,16,1,35,68,85,55,27
4,17,12,-11,-4,16,0,32,63,79,51,26
4,16,12,-10,-5,15,0,29,59,72,48,24
3,15,12,-9,-5,15,-1,25,54,66,44,23
2,14,12,-8,-5,14,-2,22,49,60,41,21
1,13,12,-7,-5,13,-2,20,44,54,37,20
1,12,11,-6,-5,12,-3,18,40,48,34,18
1,11,10,-5,-5,12,-3,16,36,43,30,16
1,10,9,-5,-4,11,-3,14,32,37,26,15
0,8,8,-4,-4,10,-3,11,28,32,23,13
-1,7,8,-2,-5,9,-3,9,24,27,19,11
-2,5,7,-1,-5,8,-3,7,20,22,16,9
-2,3,6,0,-4,6,-4,5,16,18,12,6
-2,1,5,0,-4,5,-4,4,13,13,9,4
-2,0,4,1,-3,4,-4,3,11,10,7,2
-2,0,4,1,-3,3,-3,2,9,8,4,1
-2,0,3,1,-3,3,-3,2,8,5,2,0
-2,0,3,1,-3,2,-2,1,6,3,0,-1
-2,0,2,2,-3,1,-2,0,4,0,-1,-1
-2,-1,1,2,-3,1,-2,0,3,-1,-2,-1
-2,-2,1,2,-3,1,-2,0,1,-3,-3,-2
-3,-3,0,3,-3,0,-2,-1,0,-5,-5,-3
-5,-5,0,5,-3,-1,-2,-1,-1,-6,-6,-5
-7,-7,0,7,-3,-2,-2,-2,-2,-8,-7,-6
-8,-8,0,8,-4,-3,-2,-2,-3,-9,-8,-7
-8,-8,0,8,-4,-3,-2,-3,-4,-9,-8,-8
-7,-8,-1,8,-4,-3,-2,-3,-5,-10,-9,-8
-7,-8,-2,8,-3,-3,-2,-4,-5,-11,-10,-8
-7,-8,-2,8,-3,-3,-2,-4,-6,-11,-10,-8
-7,-8,-2,8,-3,-3,-2,-4,-6,-12,-10,-8
-7,-8,-1,8,-3,-3,-1,-4,-6,-12,-10,-8
-6,-7,-1,7,-3,-3,-1,-4,-6,-12,-10,-9
-6,-7,-1,7,-2,-3,-1,-3,-6,-12,-10,-9
-6,-7,-1,7,-2,-3,-1,-3,-7,-12,-11,-10
-6,-8,-2,7,-3,-4,-1,-4,-7,-12,-11,-10
-7,-9,-2,8,-3,-4,-1,-4,-7,-13,-11,-10
-8,-10,-2,9,-4,-5,-1,-4,-7,-13,-11,-11
-8,-10,-2,9,-4,-5,-1,-4,-7,-14,-11,-11
-8,-10,-2,9,-4,-5,-1,-4,-8,-14,-11,-11
-8,-10,-2,9,-4,-5,-1,-5,-8,-14,-11,-11
-8,-10,-2,9,-4,-5,-1,-5,-8,-14,-12,-11
-8,-10,-2,9,-4,-5,-1,-5,-8,-14,-12,-12
-8,-10,-2,9,-3,-5,-1,-5,-8,-14,-12,-12
-8,-9,-2,8,-3,-5,-1,-5,-8,-15,-12,-11
-8,-9,-2,8,-3,-5,-1,-5,-8,-15,-12,-11
-8,-9,-2,8,-3,-4,-1,-5,-8,-15,-12,-11
-8,-9,-2,9,-3,-4,-1,-5,-8,-15,-12,-11
-7,-9,-2,8,-3,-4,-1,-5,-8,-15,-12,-12
-7,-8,-2,8,-2,-4,-1,-5,-8,-15,-12,-12
-7,-8,-2,8,-2,-4,-1,-5,-8,-15,-12,-11
-8,-9,-2,8,-3,-5,-1,-5,-8,-15,-13,-11
-8,-9,-2,8,-3,-5,-1,-5,-8,-16,-13,-11
-8,-9,-2,8,-3,-5,-1,-5,-8,-16,-13,-10
-8,-9,-2,8,-3,-5,-1,-5,-8,-16,-13,-10
-8,-9,-2,8,-3,-5,-1,-5,-8,-16,-13,-11
-8,-9,-2,8,-3,-5,-1,-6,-8,-15,-13,-11
-8,-9,-2,8,-3,-5,-1,-6,-8,-15,-13,-11
-8,-9,-2,8,-3,-5,-1,-5,-8,-15,-13,-11
-8,-9,-2,8,-3,-5,-1,-5,-8,-15,-13,-11
-8,-9,-2,8,-3,-5,-1,-5,-8,-15,-13,-11
-8,-9,-2,8,-3,-5,-1,-5,-8,-15,-13,-10
-8,-9,-2,8,-3,-5,0,-5,-8,-15,-13,-10
-8,-9,-2,8,-3,-5,0,-5,-8,-15,-13,-10
-8,-8,-2,8,-3,-4,0,-5,-8,-15,-13,-10
-9,-9,-1,9,-4,-4,0,-5,-7,-15,-13,-10
-10,-9,-1,9,-4,-4,0,-4,-7,-15,-13,-10
-10,-10,-1,9,-4,-4,0,-4,-7,-15,-13,-11
-10,-10,-1,9,-4,-4,0,-4,-7,-15,-14,-11
-10,-10,-1,9,-4,-5,0,-4,-7,-15,-14,-12
-10,-10,-1,9,-4,-5,0,-4,-6,-15,-14,-13
-9,-10,-1,9,-4,-5,0,-4,-6,-15,-14,-12
-9,-10,-1,9,-4,-5,0,-3,-6,-14,-14,-12
-9,-10,-1,9,-4,-5,0,-3,-5,-14,-13,-12
-10,-10,0,9,-5,-5,0,-3,-5,-13,-13,-12
-10,-10,0,9,-5,-5,0,-3,-5,-14,-13,-13
-9,-10,-1,9,-4,-5,0,-3,-5,-14,-14,-14
-8,-10,-1,8,-4,-5,0,-3,-5,-14,-14,-15
-8,-10,-1,8,-4,-5,0,-3,-5,-14,-14,-15
-8,-9,-1,8,-4,-5,0,-3,-5,-14,-14,-15
-8,-9,-1,8,-4,-5,0,-3,-5,-14,-14,-15
-8,-8,-2,8,-4,-5,0,-3,-4,-13,-13,-16
-8,-8,-2,8,-4,-5,1,-2,-4,-13,-13,-16
-8,-9,-2,9,-4,-5,1,-2,-4,-13,-13,-17
-9,-9,-2,9,-5,-5,1,-2,-4,-13,-14,-17
-9,-9,-2,9,-5,-5,1,-2,-3,-13,-14,-17
-8,-8,-2,8,-4,-5,1,-1,-3,-12,-13,-17
-7,-7,-2,7,-4,-4,2,-1,-2,-12,-13,-17
-7,-7,-2,7,-4,-4,2,-1,-2,-11,-12,-17
-8,-8,-2,8,-4,-4,2,-1,-2,-11,-12,-17
-9,-8,-1,8,-5,-5,2,-1,-2,-11,-12,-16
-9,-8,-1,8,-5,-5,2,-1,-2,-11,-12,-16
-8,-7,-1,7,-4,-4,2,0,-1,-10,-12,-15
-7,-6,-1,7,-4,-4,2,0,-1,-10,-12,-15
-6,-6,-1,6,-4,-3,2,0,0,-9,-12,-15
-6,-6,-1,6,-4,-3,2,0,0,-9,-11,-15
-7,-6,-1,7,-4,-4,2,0,0,-9,-11,-15
-8,-7,-1,8,-5,-4,2,0,0,-9,-11,-15
-7,-7,-1,7,-4,-4,2,0,0,-9,-11,-15
-6,-6,-2,6,-3,-4,2,0,0,-9,-11,-14
-6,-6,-2,5,-3,-4,2,0,0,-9,-11,-14
-6,-6,-2,6,-3,-4,2,0,0,-9,-11,-14
-7,-7,-2,6,-3,-4,2,0,0,-9,-11,-14
-6,-6,-2,6,-3,-4,2,0,0,-9,-11,-13
-6,-6,-2,6,-3,-4,2,0,0,-9,-11,-13
-6,-7,-2,7,-3,-4,2,0,0,-9,-11,-13
-6,-6,-2,6,-3,-4,2,0,0,-8,-10,-13
-5,-6,-2,6,-3,-4,2,1,0,-8,-10,-13
-5,-6,-2,5,-2,-4,2,1,0,-8,-10,-14
-5,-6,-2,5,-2,-5,2,0,0,-8,-10,-15
-5,-6,-2,5,-2,-5,2,0,0,-8,-10,-15
-5,-5,-2,5,-2,-5,2,0,0,-8,-10,-15
-4,-5,-2,5,-2,-4,2,0,0,-8,-10,-15
-4,-5,-2,5,-2,-4,2,0,0,-8,-10,-15
-4,-5,-2,5,-2,-4,2,0,0,-8,-9,-14
-4,-5,-2,5,-2,-4,2,0,0,-8,-9,-13
-4,-4,-2,4,-2,-3,2,0,0,-8,-9,-11
-4,-4,-2,4,-2,-3,2,0,0,-8,-9,-10
-4,-4,-2,4,-2,-3,2,0,0,-8,-9,-10
-4,-4,-1,4,-2,-2,2,0,0,-8,-9,-10
-4,-3,-1,4,-2,-2,2,0,0,-8,-9,-10
-4,-3,-1,4,-2,-2,1,0,0,-8,-9,-11
-4,-3,-1,4,-2,-2,1,0,0,-8,-8,-11
-3,-3,0,4,-2,-1,1,0,0,-8,-8,-10
-2,-1,0,2,-2,0,1,0,1,-7,-8,-10
-1,1,1,0,-2,1,2,0,1,-6,-8,-11
-1,2,2,0,-2,2,2,0,2,-5,-7,-11
-2,2,3,0,-3,2,2,0,3,-5,-7,-11
-3,2,4,0,-4,3,3,0,3,-5,-6,-10
-4,2,4,1,-5,3,3,0,4,-5,-6,-10
-3,2,4,0,-4,3,3,0,4,-5,-6,-11
-2,2,4,0,-4,3,4,1,4,-5,-6,-11
-1,3,4,-1,-3,3,4,1,5,-4,-6,-10
-1,3,4,-1,-3,3,4,2,5,-4,-5,-10
-1,3,4,-1,-3,3,4,2,6,-4,-5,-10
-1,4,4,-1,-3,4,4,1,6,-4,-5,-10
-1,5,4,-2,-3,4,3,1,6,-4,-4,-9
0,5,4,-2,-2,5,2,1,6,-4,-4,-9
1,6,4,-3,-2,5,1,1,6,-3,-4,-8
1,6,4,-3,-1,5,-1,0,5,-3,-4,-6
1,5,3,-3,-1,5,-3,-1,4,-4,-4,-5
1,4,3,-2,-1,4,-5,-2,3,-4,-4,-3
0,3,2,-1,-1,2,-6,-3,1,-5,-4,-1
1,2,0,-1,0,1,-7,-4,0,-6,-5,0
1,2,-1,-1,1,0,-8,-5,-1,-6,-5,0
2,2,-1,-2,1,0,-8,-5,-2,-7,-5,0
2,2,-1,-2,1,0,-9,-6,-2,-7,-5,-1
3,2,0,-2,1,1,-9,-6,-3,-7,-5,-1
3,3,0,-3,2,1,-10,-6,-3,-8,-5,0
4,3,-1,-3,2,1,-10,-7,-4,-8,-5,0
4,3,-1,-4,2,1,-10,-7,-4,-8,-5,0
4,3,-1,-4,2,0,-11,-7,-5,-8,-5,0
5,4,-2,-4,3,0,-11,-7,-5,-8,-5,0
6,4,-3,-5,4,0,-10,-7,-5,-8,-5,0
6,4,-3,-5,4,0,-10,-7,-5,-9,-6,0
5,3,-4,-4,4,0,-9,-7,-6,-10,-7,-2
5,2,-4,-3,4,-1,-9,-8,-6,-11,-7,-3
4,1,-4,-2,4,-1,-9,-8,-7,-11,-8,-5
4,1,-4,-2,3,-1,-9,-8,-7,-11,-8,-6
4,1,-4,-2,3,-1,-8,-7,-6,-11,-8,-5
5,2,-4,-3,4,-1,-7,-7,-6,-10,-7,-4
5,3,-4,-4,4,0,-6,-6,-5,-10,-7,-2
5,3,-3,-4,3,0,-5,-5,-4,-9,-6,-1
4,2,-3,-4,3,0,-4,-4,-4,-8,-6,-1
3,2,-2,-3,2,0,-3,-3,-3,-8,-6,-2
2,2,-2,-2,1,0,-2,-2,-3,-8,-6,-2
1,1,-1,-1,0,1,-1,-2,-2,-8,-6,-2
0,0,0,0,0,0,-1,-2,-2,-8,-6,-3
-1,0,0,0,-1,0,0,-2,-3,-9,-7,-4
-2,-1,-1,1,-1,-1,0,-3,-3,-10,-8,-5
-3,-3,-1,3,-1,-2,0,-3,-4,-10,-9,-6
-4,-3,-1,4,-2,-2,1,-3,-4,-11,-10,-7
-3,-3,-1,4,-2,-2,2,-2,-4,-11,-10,-7
-3,-3,-2,4,-1,-2,2,-2,-4,-11,-10,-7
-3,-3,-2,4,-1,-2,3,-2,-4,-11,-10,-7
-3,-3,-2,4,-1,-2,3,-1,-4,-11,-10,-7
-3,-4,-2,4,-1,-2,3,-1,-4,-11,-10,-6
-3,-4,-2,4,-1,-2,3,-1,-4,-11,-10,-6
-4,-5,-2,4,-2,-3,3,-1,-4,-12,-11,-6
-4,-5,-2,5,-2,-3,3,-1,-4,-12,-11,-5
-4,-5,-2,5,-2,-3,3,-1,-5,-12,-11,-5
-4,-5,-2,5,-1,-3,3,-1,-5,-12,-11,-5
-3,-4,-2,4,-1,-3,4,-1,-5,-12,-11,-5
-3,-5,-2,4,-1,-3,4,-1,-5,-12,-11,-6
-4,-5,-2,4,-1,-3,4,-1,-5,-12,-11,-7
-4,-6,-2,5,-1,-3,4,-1,-5,-12,-11,-8
-5,-6,-2,5,-1,-3,4,-1,-5,-12,-11,-8
-5,-6,-2,5,-2,-3,4,-1,-5,-12,-11,-8
-5,-6,-2,5,-2,-3,4,-1,-5,-12,-11,-9
-5,-6,-2,5,-2,-4,4,-1,-5,-12,-11,-9
-5,-6,-2,5,-2,-4,4,-1,-5,-12,-11,-9
-5,-6,-2,6,-2,-4,4,-1,-5,-12,-11,-9
-6,-6,-1,6,-2,-4,4,-1,-5,-12,-11,-9
-6,-6,-2,6,-2,-4,4,-1,-5,-12,-11,-8
-5,-6,-3,5,-1,-4,4,-1,-5,-12,-11,-8
-3,-5,-4,5,0,-4,4,-1,-5,-13,-11,-8
-3,-5,-4,4,0,-4,4,-1,-5,-13,-11,-6
-3,-5,-3,4,0,-4,4,-1,-4,-12,-11,-5
-4,-5,-3,5,-1,-4,4,-1,-4,-12,-11,-4
-5,-6,-2,5,-1,-4,4,-1,-4,-12,-11,-4
-5,-6,-2,5,-1,-4,3,-1,-4,-12,-11,-5
-5,-7,-3,5,-1,-5,3,-1,-4,-12,-11,-6
-5,-7,-3,5,-1,-5,4,0,-4,-12,-11,-7
-4,-7,-4,5,0,-5,5,1,-3,-11,-11,-7
-3,-7,-4,5,0,-5,5,3,-1,-10,-11,-8
-3,-8,-5,5,1,-6,5,4,0,-8,-11,-9
-3,-8,-5,6,1,-7,5,4,3,-5,-10,-9
-3,-7,-4,5,1,-6,5,4,6,-1,-7,-8
-2,-6,-4,4,1,-5,3,3,12,5,-3,-6
-1,-3,-3,2,1,-3,1,2,18,13,3,-3
0,0,-2,0,1,0,-1,0,21,21,10,2
3,3,-1,-3,2,1,-4,-3,19,27,19,10
6,7,-1,-7,3,3,-9,-8,11,31,29,19
11,12,-1,-12,5,5,-15,-15,-1,31,40,30
17,17,-1,-17,9,8,-22,-24,-19,28,52,43
23,22,-1,-23,12,10,-30,-33,-38,23,65,57
29,29,0,-29,14,14,-39,-45,-59,15,77,73
35,37,1,-36,16,19,-48,-58,-82,4,89,90
41,46,3,-44,18,25,-56,-69,-104,-6,103,108
48,55,5,-52,20,31,-62,-77,-123,-14,118,126
54,61,4,-58,24,33,-66,-82,-140,-22,129,142
59,63,1,-61,28,33,-70,-85,-156,-32,135,154
62,61,-3,-62,32,29,-73,-90,-173,-45,129,159
63,55,-8,-59,35,24,-75,-97,-191,-64,113,158
62,49,-13,-56,38,18,-79,-105,-208,-85,91,152
60,44,-16,-52,38,14,-84,-115,-222,-106,66,144
55,40,-16,-48,35,12,-87,-125,-232,-127,41,132
47,37,-12,-42,29,12,-89,-135,-237,-148,14,117
38,33,-7,-35,22,13,-89,-142,-236,-166,-13,99
29,29,-2,-29,15,14,-86,-143,-229,-179,-38,79
21,26,4,-24,8,15,-82,-141,-218,-185,-56,60
13,23,10,-18,1,16,-76,-136,-204,-183,-67,43
6,21,15,-14,-4,17,-69,-128,-188,-176,-72,28
1,20,19,-11,-10,19,-62,-119,-170,-164,-73,15
-4,19,22,-8,-14,20,-54,-108,-151,-149,-70,3
-8,15,22,-4,-16,19,-45,-94,-129,-131,-64,-7
-11,9,19,0,-16,15,-35,-78,-107,-111,-58,-15
-13,3,15,4,-15,10,-25,-62,-85,-92,-51,-21
-14,-1,12,7,-14,5,-17,-48,-66,-75,-44,-23
-15,-5,9,10,-13,1,-11,-36,-50,-60,-37,-23
-14,-7,7,11,-11,-1,-5,-26,-37,-47,-31,-21
-13,-8,5,11,-9,-2,0,-17,-25,-36,-26,-19
-11,-9,2,10,-7,-3,3,-10,-16,-28,-21,-18
-11,-10,0,10,-6,-4,5,-5,-9,-21,-18,-16
-10,-10,0,10,-6,-5,6,-1,-4,-16,-15,-15
-10,-11,-1,10,-5,-6,7,0,0,-12,-14,-14
-10,-11,-1,10,-5,-6,8,2,2,-10,-13,-13
-10,-10,-1,9,-5,-6,8,3,4,-8,-12,-13
-9,-9,0,8,-4,-5,10,5,6,-6,-12,-12
-7,-7,0,7,-3,-5,11,7,8,-4,-11,-11
-6,-7,-1,7,-2,-5,12,8,9,-3,-11,-11
-7,-8,-2,8,-3,-5,12,9,10,-3,-11,-11
-8,-9,-2,9,-3,-6,13,9,11,-2,-11,-11
-8,-10,-3,9,-3,-6,13,9,11,-2,-11,-11
-8,-10,-3,10,-3,-6,12,9,12,-2,-11,-11
-9,-11,-2,10,-4,-6,12,9,12,-1,-11,-11
-10,-11,-1,11,-5,-6,12,9,13,-1,-11,-11
-10,-11,-1,10,-5,-7,12,9,13,0,-11,-11
-9,-11,-2,10,-4,-7,12,9,13,0,-11,-11
-8,-11,-3,10,-4,-7,12,10,13,0,-11,-11
-8,-11,-3,10,-4,-7,12,10,14,0,-11,-11
-8,-11,-3,9,-4,-7,12,11,14,1,-11,-10
-8,-10,-3,8,-3,-6,12,11,14,1,-10,-10
-7,-10,-3,8,-3,-6,12,11,14,1,-10,-9
-7,-9,-3,8,-3,-6,12,11,14,1,-10,-9
-8,-9,-2,8,-4,-6,12,11,14,1,-10,-9
-8,-9,-2,8,-4,-6,12,11,15,1,-10,-9
-8,-9,-2,8,-4,-6,12,11,15,1,-10,-9
-8,-9,-2,8,-4,-6,12,11,15,2,-10,-8
-8,-9,-2,8,-4,-6,12,11,15,2,-10,-8
-8,-9,-2,9,-4,-6,12,11,15,2,-10,-9
-8,-9,-2,9,-4,-6,12,11,15,2,-10,-10
-8,-9,-2,9,-4,-6,12,11,15,2,-10,-11
-8,-9,-1,9,-4,-5,12,11,15,2,-10,-11
-8,-9,-1,9,-4,-5,12,11,15,2,-10,-12
-7,-9,-1,8,-4,-5,12,11,16,2,-10,-12
-7,-8,-1,8,-4,-4,12,11,16,3,-9,-11
-7,-7,-1,7,-4,-4,12,12,17,3,-9,-11
-7,-7,-1,7,-4,-4,12,12,17,3,-9,-11
-7,-7,-1,7,-4,-4,12,12,17,3,-9,-11
-7,-8,-1,8,-4,-5,12,11,17,3,-9,-11
-7,-8,-1,8,-4,-5,12,11,17,3,-9,-11
-7,-8,-1,8,-4,-5,12,11,17,4,-9,-11
-7,-7,-1,7,-4,-4,12,11,17,4,-9,-12
-7,-7,-1,7,-4,-4,12,11,17,4,-9,-12
-7,-7,-1,7,-4,-4,12,11,17,4,-9,-12
-8,-8,-1,8,-5,-5,11,11,17,4,-9,-12
-8,-8,-1,8,-5,-4,11,12,17,5,-8,-11
-7,-7,-1,7,-4,-3,12,12,18,6,-8,-11
-5,-5,-1,5,-3,-3,12,12,19,6,-7,-10
-4,-5,-1,5,-3,-3,12,12,19,7,-7,-9
-4,-5,-1,5,-3,-3,12,12,19,7,-7,-8
-5,-5,0,5,-4,-3,12,12,19,7,-7,-8
-6,-6,0,6,-4,-3,12,12,19,7,-7,-8
-6,-6,0,6,-4,-3,12,12,19,7,-7,-8
-6,-5,0,6,-4,-3,12,12,19,7,-7,-8
-6,-5,0,6,-4,-3,12,12,20,8,-7,-8
-6,-6,0,6,-4,-3,12,12,20,8,-7,-8
-7,-6,0,6,-4,-3,12,12,20,8,-7,-8
-7,-6,0,6,-4,-3,12,12,21,9,-6,-8
-7,-6,0,6,-4,-3,12,13,21,9,-6,-8
-7,-6,0,6,-4,-3,12,13,22,10,-6,-7
-7,-6,0,6,-4,-3,12,14,22,11,-6,-6
-7,-6,0,6,-4,-3,12,14,23,11,-6,-6
-7,-6,0,6,-4,-3,11,14,23,11,-6,-5
-7,-6,0,6,-4,-3,11,14,23,12,-5,-5
-6,-5,0,6,-4,-3,12,14,24,12,-5,-4
-6,-5,0,5,-3,-2,12,15,24,13,-4,-4
-5,-5,0,5,-3,-2,12,15,25,14,-4,-3
-5,-5,0,5,-3,-2,12,16,25,15,-4,-3
-5,-5,0,5,-3,-2,12,16,26,15,-4,-3
-6,-5,0,6,-3,-2,12,16,26,16,-3,-3
-6,-5,0,6,-4,-2,12,16,27,17,-2,-2
-6,-5,0,5,-4,-1,12,17,28,18,-2,-2
-6,-5,0,5,-3,-2,12,17,28,18,-1,-3
-5,-5,0,5,-3,-2,12,17,29,19,-1,-3
-5,-4,0,5,-3,-2,12,17,30,20,-1,-3
-4,-4,0,4,-3,-1,12,18,31,21,0,-3
-4,-4,0,4,-3,-1,12,18,31,22,0,-3
-4,-4,0,4,-3,-1,12,19,32,23,0,-3
-4,-3,0,4,-3,-1,12,19,33,24,1,-3
-3,-3,0,3,-3,-1,13,20,34,25,2,-2
-3,-2,0,3,-3,-1,13,21,35,27,3,-2
-3,-2,0,3,-3,-1,13,21,36,28,4,-2
-3,-2,0,3,-3,-1,13,22,37,30,4,-2
-3,-2,0,3,-3,-1,13,22,38,31,5,-2
-3,-2,0,2,-3,-1,13,23,40,33,6,-3
-3,-2,0,2,-3,-1,13,23,41,34,7,-3
-3,-2,0,3,-3,0,12,24,42,36,8,-3
-3,-2,0,3,-3,0,12,25,43,38,9,-3
-3,-2,0,3,-2,0,12,26,45,40,10,-2
-4,-2,0,3,-2,0,12,26,46,42,11,-2
-4,-2,0,3,-3,0,12,27,47,44,12,-2
-3,-1,0,3,-3,0,12,28,49,47,13,-1
-2,0,0,2,-2,0,12,29,51,50,15,0
-1,0,0,1,-2,0,12,31,54,53,17,2
-1,1,1,0,-1,1,12,32,56,56,19,3
0,2,1,-1,-1,2,13,34,59,60,22,4
1,4,1,-2,0,3,13,36,61,64,25,5
2,5,1,-3,0,3,13,38,64,68,27,6
2,5,1,-4,0,4,14,39,67,71,29,6
3,6,2,-5,0,4,14,41,69,75,32,7
3,7,2,-6,0,5,14,42,72,79,34,9
4,7,2,-6,0,5,14,43,74,83,36,10
4,7,2,-6,0,5,13,44,76,86,39,12
5,8,2,-7,1,5,13,46,79,90,41,13
5,8,2,-7,1,5,12,47,81,93,44,15
5,9,3,-8,0,6,12,49,84,97,46,16
5,10,3,-8,0,6,12,50,86,101,49,17
5,10,4,-8,0,7,12,50,88,104,51,18
6,12,4,-9,0,8,12,51,90,107,53,19
8,14,4,-11,1,9,12,52,91,110,56,20
10,15,4,-13,2,10,11,53,93,112,58,22
10,16,5,-14,2,11,11,53,94,114,60,24
10,17,5,-14,1,11,10,53,95,115,62,26
10,17,6,-14,1,12,10,53,95,116,64,27
10,18,6,-15,1,13,9,53,95,116,65,29
10,19,7,-15,1,13,9,53,95,116,65,30
10,20,7,-15,1,14,8,52,95,116,66,31
10,20,8,-15,0,14,8,51,93,114,66,32
10,21,8,-16,0,15,7,50,91,112,66,34
11,22,9,-16,0,15,6,48,89,110,66,35
11,23,10,-17,0,16,6,46,86,106,65,35
12,23,10,-18,0,17,6,44,83,102,63,36
12,24,11,-18,0,17,5,42,80,98,61,36
11,24,11,-18,0,17,5,39,77,93,59,36
11,23,11,-17,-1,17,4,36,73,88,56,35
11,23,11,-17,-1,17,3,33,69,82,53,35
11,23,11,-17,-1,17,3,30,64,77,50,34
10,23,11,-16,-1,17,2,27,60,71,48,33
9,22,11,-15,-2,17,2,25,55,65,45,32
7,21,12,-14,-3,17,1,22,50,59,41,31
7,20,11,-13,-3,16,1,20,46,53,38,29
7,19,10,-13,-3,15,0,17,41,47,34,27
7,17,8,-12,-2,13,0,15,37,41,29,24
7,16,7,-11,-1,12,-1,12,32,36,25,23
7,15,6,-11,0,11,-1,10,28,31,22,21
6,14,6,-10,0,10,-1,8,24,26,19,20
6,12,5,-9,0,9,-1,7,21,21,16,18
7,12,4,-9,0,8,0,6,18,17,13,16
7,11,4,-9,0,8,0,5,16,14,11,14
5,9,3,-7,0,7,0,4,13,10,8,12
4,7,2,-5,0,5,0,2,11,7,5,8
3,6,1,-4,0,4,0,1,9,5,2,4
3,5,1,-4,0,4,0,1,7,2,0,3
2,4,1,-3,0,3,0,0,5,0,-1,2
1,3,1,-2,-1,2,0,0,3,-2,-2,0
0,1,0,-1,-1,1,0,-1,2,-4,-3,-2
0,1,0,-1,-1,0,0,-2,1,-5,-4,-4
0,1,0,-1,-1,0,1,-2,0,-6,-5,-4
0,1,-1,-1,0,0,1,-2,0,-7,-6,-5
0,1,-1,-1,0,0,1,-2,0,-8,-7,-5
1,1,-1,-1,0,0,1,-2,-1,-8,-7,-6
1,0,-1,0,0,0,1,-2,-1,-9,-8,-6
0,0,-1,0,0,0,1,-2,-2,-10,-8,-7
0,-1,-1,0,0,-1,1,-2,-3,-10,-9,-6
0,-1,-2,0,0,-1,2,-2,-4,-11,-9,-5
0,-1,-2,0,0,-1,2,-2,-4,-12,-9,-5
0,-1,-2,0,0,-1,2,-2,-4,-12,-9,-4
0,-1,-2,0,0,-1,2,-2,-4,-12,-9,-5
0,-1,-2,1,0,-1,2,-3,-4,-12,-10,-6
0,-1,-2,1,0,-1,2,-3,-4,-12,-10,-6
0,-1,-2,0,0,-1,2,-3,-4,-12,-10,-7
0,-1,-2,0,0,-1,2,-3,-5,-12,-10,-7
0,-1,-2,0,0,-1,2,-3,-5,-13,-10,-8
-1,-2,-2,1,0,-1,2,-3,-5,-13,-10,-8
-1,-2,-2,2,0,-2,2,-3,-6,-13,-10,-8
-2,-3,-2,2,0,-2,2,-4,-6,-14,-10,-8
-2,-3,-2,2,0,-2,2,-4,-6,-14,-10,-9
-2,-3,-2,2,0,-2,2,-4,-6,-14,-11,-9
-2,-3,-2,2,0,-2,2,-4,-6,-14,-11,-9
-1,-2,-2,2,0,-2,2,-4,-6,-14,-11,-9
-1,-2,-2,1,0,-2,2,-4,-6,-14,-11,-9
-1,-2,-2,1,0,-2,2,-4,-6,-14,-11,-9
-1,-2,-2,2,0,-2,2,-4,-6,-14,-11,-9
-1,-2,-2,2,0,-2,2,-4,-6,-14,-11,-8
-1,-3,-2,3,-1,-2,2,-4,-6,-14,-11,-7
-2,-3,-2,3,-1,-2,2,-4,-6,-14,-11,-5
-2,-3,-2,3,-1,-2,2,-4,-6,-14,-11,-4
-2,-3,-2,3,-1,-2,2,-4,-6,-14,-11,-4
-2,-3,-2,3,-1,-2,2,-4,-6,-14,-11,-4
-2,-3,-2,3,-1,-2,2,-4,-6,-14,-11,-4
-2,-4,-2,3,-1,-3,2,-4,-6,-14,-11,-4
-2,-4,-2,3,-1,-3,2,-4,-6,-14,-11,-5
-2,-4,-2,4,-1,-3,2,-4,-6,-14,-11,-6
-2,-4,-2,4,-1,-3,2,-4,-6,-14,-12,-6
-2,-4,-2,4,-1,-3,2,-4,-6,-14,-12,-6
-2,-4,-2,3,-1,-2,2,-4,-6,-14,-12,-6
-2,-4,-2,3,-1,-2,2,-4,-5,-14,-12,-6
-2,-4,-2,4,-1,-2,2,-4,-5,-14,-12,-6
-3,-4,-2,4,-1,-2,2,-4,-5,-14,-12,-6
-2,-4,-2,3,-1,-2,3,-4,-4,-14,-12,-6
-2,-3,-1,3,-1,-2,3,-4,-4,-14,-12,-6
-2,-3,-1,3,-2,-2,3,-4,-4,-14,-12,-6
-2,-3,-1,3,-2,-2,3,-3,-4,-14,-12,-6
-3,-3,0,3,-2,-2,4,-3,-4,-13,-12,-6
-3,-3,0,3,-2,-2,4,-3,-3,-12,-12,-6
-2,-2,0,2,-1,-1,4,-3,-3,-12,-12,-7
-1,-2,-1,2,0,-1,4,-3,-3,-12,-12,-7
-1,-3,-2,2,0,-2,4,-3,-3,-12,-12,-8
-2,-3,-1,3,-1,-2,4,-3,-3,-12,-12,-8
-2,-3,-1,3,-1,-2,4,-3,-3,-12,-12,-9
-2,-3,-1,3,-1,-2,3,-3,-2,-12,-12,-9
-2,-3,-1,3,-1,-2,3,-3,-2,-12,-13,-10
-3,-4,-1,3,-1,-3,3,-3,-2,-12,-13,-10
-3,-4,-1,4,-2,-3,3,-3,-2,-12,-13,-11
-3,-4,-1,4,-2,-3,3,-3,-2,-12,-13,-11
-3,-4,-1,4,-2,-2,3,-3,-1,-11,-13,-10
-3,-4,-1,4,-2,-2,3,-2,-1,-11,-13,-10
-3,-4,-1,4,-2,-2,3,-2,-1,-11,-13,-9
-3,-3,-1,3,-2,-2,3,-2,-1,-11,-13,-9
-2,-3,-1,2,-1,-2,3,-1,0,-10,-12,-9
-2,-2,-1,2,-1,-2,3,-1,0,-10,-12,-9
-3,-2,0,2,-2,-2,3,-1,0,-10,-12,-10
-4,-3,0,3,-2,-2,3,-1,0,-10,-12,-10
-4,-4,0,4,-2,-2,3,-1,0,-10,-12,-11
-4,-3,0,4,-2,-2,3,-1,0,-9,-12,-11
-3,-3,0,3,-1,-2,3,-1,0,-9,-12,-11
-3,-2,0,3,-1,-2,3,-1,1,-9,-12,-11
-3,-2,0,3,-2,-2,3,-1,1,-9,-12,-11
-3,-3,0,3,-2,-2,3,-1,1,-9,-12,-11
-3,-3,0,3,-2,-2,3,-1,1,-9,-12,-11
-3,-2,0,2,-2,-1,3,0,1,-9,-11,-10
-2,-2,0,2,-2,-1,3,0,1,-8,-11,-10
-2,-2,0,2,-2,-1,3,0,1,-8,-11,-10
-3,-2,0,3,-2,-1,3,0,1,-8,-11,-10
-3,-2,0,3,-2,-1,3,0,1,-8,-11,-10
-3,-3,0,4,-2,-1,3,0,1,-8,-11,-10
-4,-3,0,4,-2,-2,3,0,1,-8,-11,-10
-4,-4,0,4,-2,-2,3,0,1,-8,-11,-10
-3,-4,0,4,-2,-2,3,0,1,-8,-11,-10
-3,-3,0,3,-2,-2,3,0,1,-8,-11,-10
-3,-3,0,3,-2,-1,3,0,1,-8,-11,-10
-3,-3,0,3,-2,-1,3,0,1,-8,-11,-10
-4,-3,0,4,-2,-1,3,0,1,-8,-11,-10
-4,-3,0,4,-2,-1,3,0,1,-8,-11,-10
-4,-3,0,4,-2,-1,3,0,1,-8,-11,-10
-4,-3,0,4,-2,-1,3,0,1,-8,-10,-10
-3,-3,0,3,-2,-1,3,0,1,-8,-10,-9
-3,-2,0,3,-2,-1,3,0,1,-8,-10,-9
-3,-2,0,3,-2,-1,3,0,1,-8,-10,-9
-3,-2,0,3,-2,-1,3,0,1,-8,-10,-10
-3,-2,0,3,-2,-1,3,0,1,-8,-10,-11
-3,-2,0,3,-2,-1,3,0,1,-8,-10,-13
-3,-3,0,3,-2,-1,3,0,1,-8,-10,-14
-3,-3,0,3,-2,-1,3,-1,0,-8,-10,-14
-4,-3,0,3,-2,-1,2,-1,0,-8,-10,-15
-4,-2,0,3,-2,-1,2,-1,0,-8,-10,-15
-3,-2,1,3,-2,0,2,-1,0,-8,-10,-15
-3,-1,1,3,-2,0,2,-1,0,-8,-10,-15
-2,-1,1,2,-2,0,2,-1,1,-8,-10,-14
-2,0,2,1,-2,1,2,-1,1,-8,-10,-14
-1,1,2,0,-2,2,2,-1,2,-7,-9,-13
-1,2,3,0,-3,3,2,-1,2,-7,-9,-13
-1,2,3,-1,-3,3,2,-1,3,-6,-8,-13
-2,3,4,-1,-4,4,2,-1,3,-6,-8,-13
-2,3,4,0,-4,4,3,-1,4,-6,-8,-13
-2,2,5,0,-4,4,3,-1,4,-6,-8,-13
-2,2,5,0,-4,4,4,-1,4,-6,-8,-13
-2,3,6,0,-5,5,5,0,5,-5,-7,-13
-2,3,6,0,-5,5,5,0,6,-5,-7,-13
-3,4,7,0,-5,5,6,0,6,-4,-7,-13
-2,4,7,-1,-5,5,5,0,7,-4,-7,-13
0,5,6,-2,-3,5,4,0,7,-4,-7,-13
0,5,5,-2,-3,5,3,0,6,-4,-7,-12
1,5,5,-3,-2,5,2,-1,6,-4,-6,-12
1,6,4,-3,-2,5,0,-1,6,-4,-6,-11
2,6,4,-3,-1,5,-1,-2,5,-4,-6,-11
3,6,3,-3,-1,5,-3,-3,4,-4,-6,-10
2,5,2,-3,0,4,-5,-4,2,-4,-6,-10
2,4,1,-2,0,2,-6,-5,1,-5,-7,-10
2,2,0,-1,0,1,-7,-5,0,-6,-7,-10
1,1,0,-1,0,1,-8,-6,-1,-7,-7,-10
1,1,0,-1,0,1,-9,-7,-2,-7,-7,-10
2,2,0,-2,1,1,-9,-7,-2,-7,-7,-10
4,3,-1,-3,2,1,-9,-7,-3,-8,-7,-10
5,4,-1,-4,2,1,-10,-8,-3,-8,-7,-10
6,4,-2,-5,3,1,-10,-8,-4,-9,-7,-10
6,4,-2,-5,3,1,-10,-8,-4,-9,-7,-10
6,3,-2,-5,3,1,-10,-9,-5,-9,-7,-10
5,2,-3,-4,3,0,-10,-9,-5,-9,-7,-10
5,2,-3,-4,4,0,-10,-9,-5,-9,-8,-10
5,2,-4,-4,4,-1,-9,-9,-5,-9,-8,-10
5,1,-4,-3,4,-1,-9,-9,-6,-10,-8,-10
5,1,-5,-3,4,-2,-9,-10,-7,-11,-9,-11
4,0,-5,-2,4,-2,-9,-10,-7,-12,-9,-11
4,0,-4,-2,3,-2,-8,-10,-7,-12,-9,-12
4,0,-4,-2,3,-2,-8,-9,-6,-11,-9,-12
3,1,-3,-2,3,-1,-7,-8,-6,-11,-9,-11
3,1,-2,-2,2,-1,-5,-7,-5,-10,-8,-11
3,2,-2,-2,2,0,-4,-6,-4,-9,-7,-10
3,2,-1,-2,2,0,-3,-5,-3,-8,-6,-10
3,2,-1,-2,2,0,-2,-4,-3,-8,-6,-11
2,2,-1,-2,1,0,-2,-4,-2,-8,-6,-11
1,1,0,-1,0,0,-1,-4,-2,-8,-6,-12
0,0,0,0,-1,0,-1,-4,-2,-8,-7,-13
-1,-1,0,0,-1,0,0,-4,-2,-8,-8,-13
-1,-1,0,1,-1,-1,0,-3,-2,-9,-9,-14
-2,-2,-1,1,-1,-1,1,-3,-3,-9,-10,-15
-3,-3,-1,2,-1,-2,1,-3,-3,-10,-10,-16
-3,-4,-1,3,-2,-2,2,-3,-3,-10,-10,-16
-4,-4,-1,4,-2,-2,2,-3,-3,-11,-11,-17
-4,-5,-1,4,-2,-3,3,-3,-3,-11,-11,-17
-4,-5,-1,4,-2,-3,3,-3,-3,-11,-11,-18
-4,-5,-1,4,-2,-3,3,-3,-3,-11,-11,-18
-5,-6,-1,5,-2,-4,3,-3,-3,-12,-11,-18
-6,-7,-1,6,-3,-4,3,-3,-4,-12,-12,-19
-6,-7,-1,7,-3,-4,3,-3,-4,-12,-12,-19
-6,-6,-1,6,-3,-4,3,-3,-4,-12,-12,-18
-5,-6,-2,6,-2,-4,3,-3,-4,-12,-12,-18
-6,-7,-2,6,-2,-4,3,-3,-4,-12,-12,-18
-6,-7,-2,7,-2,-5,3,-3,-4,-12,-12,-18
-6,-7,-2,7,-2,-5,3,-3,-4,-12,-12,-18
-6,-7,-2,6,-2,-5,3,-3,-4,-12,-12,-18
-5,-6,-2,6,-1,-5,3,-3,-4,-12,-12,-18
-5,-6,-2,6,-1,-5,3,-3,-4,-12,-12,-18
-5,-7,-2,6,-1,-5,3,-3,-4,-12,-13,-18
-5,-7,-2,6,-1,-5,3,-3,-4,-12,-13,-18
-5,-6,-2,6,-1,-4,3,-3,-4,-12,-13,-18
-5,-6,-2,5,-1,-4,3,-3,-4,-12,-13,-18
-4,-5,-2,5,-1,-4,3,-3,-4,-12,-13,-18
-5,-6,-2,5,-1,-4,3,-3,-4,-12,-13,-18
-5,-6,-2,6,-1,-4,3,-3,-4,-12,-13,-18
-6,-6,-1,6,-2,-4,3,-3,-4,-12,-13,-17
-6,-7,-1,7,-2,-4,3,-2,-4,-12,-13,-17
-7,-7,-1,8,-3,-4,3,-2,-4,-12,-13,-17
-7,-8,-1,8,-3,-5,2,-3,-5,-12,-13,-18
-6,-8,-2,8,-2,-5,2,-3,-5,-12,-13,-18
-6,-8,-3,7,-1,-6,2,-3,-5,-12,-13,-18
-6,-8,-3,7,-1,-6,2,-2,-5,-12,-13,-18
-7,-9,-3,8,-1,-6,3,-1,-4,-12,-13,-19
-7,-10,-4,8,-1,-7,3,0,-3,-12,-14,-19
-6,-11,-5,8,0,-8,4,1,-2,-11,-14,-19
-4,-10,-5,7,0,-8,4,2,0,-8,-13,-18
-3,-9,-5,6,1,-7,4,3,3,-4,-11,-18
-3,-7,-4,5,1,-6,4,3,7,0,-8,-18
-2,-5,-3,3,1,-4,3,2,13,7,-4,-16
-1,-2,-2,1,1,-2,1,1,19,15,2,-13
1,0,-1,-1,1,0,-1,-1,23,22,9,-8
3,3,-1,-3,1,1,-5,-4,21,28,18,-1
7,7,0,-7,3,3,-10,-10,12,31,27,7
12,11,0,-11,5,5,-16,-18,-1,30,38,17
17,16,-1,-16,9,7,-23,-27,-19,26,49,29
22,21,-1,-21,12,9,-32,-38,-39,21,60,43
28,28,0,-28,15,13,-40,-50,-60,13,73,59
35,36,1,-35,17,18,-49,-62,-82,2,85,76
41,44,2,-42,19,24,-57,-73,-104,-7,99,94
47,52,3,-49,22,28,-63,-81,-123,-16,112,112
53,57,2,-55,25,30,-67,-86,-141,-24,123,128
59,58,-1,-58,30,29,-71,-89,-157,-34,127,139
63,57,-5,-60,34,26,-73,-94,-174,-47,122,144
64,53,-10,-58,38,21,-76,-102,-192,-66,105,141
63,46,-16,-54,40,15,-80,-111,-210,-88,83,135
60,41,-19,-50,40,11,-85,-120,-225,-109,58,126
55,37,-19,-45,37,9,-88,-131,-234,-131,33,114
48,34,-15,-40,31,10,-90,-141,-238,-151,7,99
40,31,-9,-35,24,11,-90,-147,-236,-168,-18,82
30,28,-3,-28,16,12,-87,-148,-229,-180,-42,62
21,24,3,-22,9,13,-82,-146,-217,-185,-59,43
12,21,9,-16,2,14,-76,-140,-203,-183,-69,26
5,18,14,-11,-4,15,-69,-133,-187,-175,-74,12
-1,17,18,-8,-9,17,-62,-124,-169,-163,-74,0
-6,15,21,-4,-13,18,-54,-112,-149,-148,-70,-11
-11,11,21,0,-16,17,-45,-98,-128,-129,-65,-21
-14,6,18,3,-16,12,-35,-81,-106,-110,-59,-29
-15,1,15,7,-16,7,-25,-64,-84,-91,-51,-34
-16,-3,12,10,-14,4,-17,-50,-65,-73,-44,-36
-16,-6,10,11,-13,1,-10,-37,-49,-59,-37,-37
-15,-7,8,12,-11,0,-5,-27,-35,-46,-31,-36
-14,-9,5,12,-9,-2,0,-18,-24,-35,-26,-34
-14,-10,3,12,-8,-3,2,-12,-15,-27,-22,-32
-14,-11,1,13,-7,-5,4,-7,-9,-21,-19,-30
-13,-12,0,13,-6,-6,6,-3,-4,-17,-17,-28
-13,-12,0,13,-6,-6,6,-1,-1,-14,-15,-26
-12,-12,0,13,-6,-6,7,1,1,-11,-14,-25
-11,-11,0,12,-6,-6,8,2,4,-9,-14,-24
-11,-11,0,12,-6,-6,9,3,6,-7,-13,-24
-11,-12,0,12,-6,-6,10,5,7,-6,-13,-23
-11,-12,-1,12,-5,-6,11,6,9,-5,-13,-23
-11,-12,-2,12,-5,-7,12,7,10,-5,-13,-22
-11,-12,-2,12,-4,-7,12,8,11,-4,-12,-22
-10,-12,-2,11,-4,-7,12,8,11,-3,-12,-21
-10,-12,-2,11,-4,-7,12,8,12,-3,-13,-21
-10,-13,-2,12,-4,-8,12,9,12,-2,-13,-21
-11,-13,-2,12,-4,-8,12,9,13,-2,-13,-21
-11,-13,-1,13,-5,-8,12,9,13,-1,-13,-21
-12,-13,-1,13,-5,-8,13,10,14,-1,-13,-21
-12,-13,-1,14,-5,-8,13,10,14,-1,-13,-21
-11,-13,-2,13,-4,-8,13,10,14,-1,-13,-21
-10,-13,-3,13,-3,-8,13,10,14,0,-12,-21
-10,-13,-2,13,-4,-7,13,10,14,0,-12,-21
-10,-13,-2,12,-4,-7,13,10,15,0,-12,-21
-10,-13,-2,12,-4,-7,12,10,15,0,-12,-21
-10,-12,-2,12,-4,-7,12,10,15,0,-12,-21
-10,-12,-2,12,-4,-7,12,10,15,1,-12,-20
-10,-12,-2,12,-4,-7,12,10,15,1,-12,-20
-10,-12,-2,12,-4,-7,12,10,15,1,-12,-20
-10,-12,-2,12,-4,-7,12,10,15,1,-12,-20
-10,-12,-1,12,-5,-7,12,10,15,1,-12,-20
-11,-12,-1,12,-5,-7,12,10,16,1,-12,-20
-10,-11,-1,12,-5,-6,12,11,16,1,-11,-19
-9,-11,-1,11,-4,-6,12,11,17,2,-11,-19
-9,-10,-1,10,-4,-6,12,11,17,2,-11,-19
-9,-11,-1,10,-4,-5,12,11,17,2,-11,-19
-10,-11,-1,11,-4,-5,12,11,17,2,-11,-19
-10,-11,-1,11,-4,-5,12,11,17,2,-11,-19
-10,-12,-1,12,-4,-6,12,11,17,2,-11,-20
-11,-12,-1,12,-5,-6,12,10,17,2,-11,-20
-11,-12,-1,12,-5,-6,12,10,17,2,-11,-20
-11,-11,-1,12,-5,-6,12,10,17,3,-11,-20
-10,-11,-1,11,-5,-5,12,10,17,3,-10,-19
-11,-11,-1,12,-5,-6,11,10,17,3,-10,-19
-11,-12,-1,12,-6,-6,11,10,17,3,-11,-19
-11,-12,-1,12,-6,-6,11,10,17,3,-11,-19
-11,-12,0,12,-6,-6,11,10,17,3,-11,-19
-11,-11,0,12,-6,-6,11,10,18,4,-10,-19
-10,-10,0,11,-6,-5,11,11,18,4,-10,-18
-9,-10,0,10,-5,-5,11,11,18,5,-9,-18
-9,-9,0,10,-5,-5,11,11,18,5,-9,-18
-9,-9,0,10,-5,-5,11,11,18,5,-9,-18
-9,-9,0,10,-5,-4,11,11,19,5,-9,-18
-9,-10,0,10,-5,-4,11,11,19,5,-9,-19
-10,-10,0,10,-5,-4,11,11,19,5,-9,-19
-10,-10,0,10,-5,-4,11,11,20,6,-8,-19
-9,-9,0,10,-5,-3,11,11,20,6,-8,-19
-9,-9,1,10,-5,-3,11,11,20,7,-9,-19
-10,-9,1,10,-6,-3,11,11,20,7,-9,-19
-10,-9,1,10,-6,-3,11,12,20,7,-9,-19
-10,-9,0,10,-6,-3,11,12,21,8,-8,-19
-10,-9,0,10,-6,-3,11,13,21,9,-8,-19
-9,-9,0,9,-6,-3,11,13,22,9,-7,-19
-9,-9,0,9,-6,-3,11,13,22,10,-7,-19
-10,-9,0,10,-6,-3,11,13,22,10,-7,-19
-10,-10,0,10,-6,-4,11,13,23,11,-6,-19
-11,-10,0,10,-6,-4,11,14,23,11,-6,-19
-10,-9,0,10,-6,-4,11,14,24,12,-6,-19
-10,-9,0,10,-5,-5,11,14,24,12,-6,-19
-9,-10,-1,10,-5,-5,11,14,24,12,-6,-19
-9,-10,-1,10,-5,-5,11,15,24,13,-5,-19
-9,-10,-1,10,-5,-5,11,15,25,14,-5,-19
-9,-11,-1,10,-5,-6,11,15,25,14,-5,-19
-10,-11,0,10,-5,-6,11,15,26,15,-5,-19
-11,-11,0,11,-6,-5,11,16,27,16,-4,-19
-10,-9,0,10,-6,-4,11,17,28,17,-3,-18
-9,-8,0,9,-5,-4,11,17,29,18,-3,-18
-8,-8,0,9,-5,-4,11,18,29,19,-2,-18
-8,-7,0,8,-5,-4,11,18,30,20,-1,-17
-8,-7,0,8,-5,-3,11,19,31,21,0,-17
-8,-7,0,8,-5,-3,11,19,32,22,0,-17
-8,-7,0,8,-5,-3,11,19,32,23,0,-17
-8,-7,0,8,-5,-3,11,20,33,24,1,-17
-8,-7,0,8,-5,-3,11,20,34,26,1,-17
-8,-7,0,8,-5,-3,11,21,35,27,2,-17
-8,-7,0,8,-5,-3,11,22,36,28,2,-16
-8,-7,0,8,-5,-3,11,23,38,30,3,-15
-8,-7,0,8,-5,-3,11,24,39,31,4,-14
-8,-7,0,8,-5,-3,11,25,40,33,5,-13
-7,-6,0,7,-5,-3,11,26,41,35,7,-12
-7,-6,0,7,-5,-3,11,27,43,37,8,-12
-7,-6,0,7,-5,-3,11,28,44,39,9,-11
-7,-6,0,7,-5,-3,10,28,46,41,10,-11
-7,-6,0,7,-5,-3,11,29,47,44,11,-11
-6,-5,0,6,-5,-2,11,31,50,47,13,-10
-6,-5,0,6,-4,-2,11,32,52,50,14,-10
-6,-4,0,6,-4,-2,12,34,54,52,16,-9
-5,-3,0,5,-4,-1,12,35,56,56,18,-8
-4,-2,0,4,-3,-1,12,37,59,59,20,-7
-2,-1,0,3,-3,0,12,38,61,63,23,-6
-1,0,0,2,-3,0,12,40,64,67,25,-4
-1,0,1,1,-3,1,12,42,66,70,27,-3
-2,0,1,1,-3,1,11,43,68,74,29,-3
-2,0,1,1,-3,1,11,44,70,77,32,-2
-1,1,1,1,-2,1,11,46,73,81,34,-1
0,2,1,0,-2,2,11,47,75,85,37,0
0,2,1,-1,-2,2,11,49,78,88,39,2
0,3,2,-1,-2,3,11,50,80,92,42,4
1,3,2,-2,-2,3,11,52,82,95,44,5
2,4,2,-3,-1,4,11,53,84,98,47,7
2,5,3,-3,-1,4,10,54,86,101,49,9
2,6,3,-4,-1,5,10,54,87,103,51,11
2,7,3,-4,-2,5,9,55,89,105,53,13
3,8,4,-5,-2,6,9,55,90,107,55,15
4,9,4,-6,-2,6,8,56,90,109,57,17
5,10,5,-7,-1,7,8,56,91,110,59,19
7,12,5,-9,-1,9,8,56,91,110,60,21
8,13,5,-10,0,10,7,56,91,110,61,23
9,14,6,-11,0,11,7,55,91,110,62,24
9,15,6,-11,0,11,6,54,90,109,62,25
9,16,7,-11,0,12,6,53,88,107,62,26
8,16,8,-11,0,12,5,51,86,105,61,27
8,16,8,-12,-1,12,5,49,84,101,61,27
8,17,9,-12,-1,13,4,46,81,97,60,28
8,17,9,-12,-2,13,3,44,77,93,58,28
7,17,9,-12,-2,13,3,41,73,88,56,28
7,17,10,-12,-3,14,2,38,70,83,53,28
7,17,10,-12,-3,14,2,36,66,78,51,28
7,17,10,-12,-3,14,1,33,62,73,48,27
7,17,10,-12,-3,14,1,30,58,68,45,26
6,16,9,-11,-3,13,1,27,53,62,42,25
5,15,9,-10,-3,13,0,24,48,56,39,24
5,13,9,-9,-3,12,0,21,43,50,35,22
5,12,8,-9,-3,11,0,18,38,44,31,20
5,10,6,-8,-2,9,-1,15,34,38,27,18
4,9,5,-7,-2,8,-1,13,30,33,24,15
4,8,5,-6,-2,7,-1,11,26,28,20,13
3,7,4,-5,-2,6,-1,9,23,24,17,11
3,6,3,-4,-2,5,-1,7,19,19,14,9
2,5,3,-3,-2,4,-1,5,16,15,11,7
2,4,3,-2,-2,3,-1,4,13,11,8,5
1,3,2,-1,-2,3,-1,3,10,8,6,3
0,1,2,0,-2,2,0,2,8,5,3,1
-1,0,1,0,-2,1,0,1,6,2,1,0
-2,-1,1,2,-3,0,0,0,4,0,-1,-2
-4,-3,1,3,-3,0,0,-1,3,-2,-2,-3
-5,-5,0,4,-4,-1,0,-1,1,-3,-3,-5
-5,-5,0,4,-3,-1,0,-2,0,-5,-4,-6
-4,-5,0,4,-3,-1,0,-2,0,-6,-5,-6
-4,-5,0,3,-3,-1,0,-2,-1,-7,-6,-7
-4,-5,0,3,-2,-2,0,-2,-2,-9,-7,-7
-4,-6,-1,4,-2,-3,0,-2,-2,-10,-8,-7
-4,-6,-2,4,-2,-3,0,-2,-3,-11,-9,-8
-4,-7,-3,5,-2,-4,1,-2,-3,-11,-10,-9
-4,-7,-3,5,-2,-5,1,-3,-4,-12,-10,-10
-4,-8,-4,6,-2,-5,1,-3,-4,-12,-10,-10
-4,-8,-4,6,-2,-5,1,-4,-5,-13,-10,-11
-5,-8,-4,7,-2,-5,1,-4,-6,-13,-10,-12
-5,-8,-4,7,-2,-5,1,-5,-6,-14,-11,-13
-5,-8,-4,7,-2,-6,1,-5,-6,-14,-11,-13
-5,-8,-4,7,-2,-6,1,-5,-6,-14,-11,-13
-5,-8,-4,7,-2,-5,1,-5,-6,-14,-11,-13
-4,-8,-4,6,-2,-5,1,-5,-7,-14,-11,-14
-4,-8,-4,6,-1,-5,1,-5,-7,-14,-12,-14
-4,-9,-4,6,-1,-6,1,-5,-7,-15,-12,-14
-5,-10,-4,7,-2,-6,1,-6,-7,-15,-12,-14
-6,-10,-4,8,-2,-6,1,-6,-8,-15,-12,-14
-7,-11,-4,9,-3,-6,1,-6,-8,-16,-12,-14
-6,-11,-4,9,-3,-6,1,-6,-8,-16,-12,-14
-5,-10,-4,8,-3,-6,1,-6,-8,-15,-12,-14
-5,-9,-4,8,-3,-6,1,-6,-8,-15,-12,-14
-5,-10,-4,8,-3,-6,1,-6,-8,-15,-12,-14
-6,-10,-4,8,-3,-6,1,-6,-8,-15,-12,-14
-6,-10,-4,8,-2,-6,1,-6,-8,-15,-12,-14
-6,-10,-4,8,-2,-6,1,-6,-8,-15,-12,-14
-6,-10,-4,8,-2,-6,1,-6,-8,-15,-12,-14
-6,-10,-4,8,-2,-6,1,-6,-8,-15,-12,-15
-6,-10,-3,8,-2,-6,1,-6,-8,-15,-12,-16
-7,-11,-3,9,-3,-7,1,-6,-8,-16,-13,-17
-7,-11,-4,9,-3,-7,1,-6,-8,-16,-13,-18
-7,-11,-4,9,-3,-7,1,-6,-8,-16,-13,-18
-7,-11,-4,9,-2,-7,1,-6,-8,-16,-13,-18
-7,-11,-4,9,-2,-7,1,-6,-8,-16,-13,-18
-7,-12,-4,10,-2,-8,1,-6,-8,-16,-14,-18
-7,-12,-5,10,-2,-8,2,-5,-7,-16,-14,-18
-7,-12,-5,10,-2,-8,2,-5,-7,-16,-14,-18
-7,-12,-5,10,-2,-8,2,-5,-7,-15,-13,-17
-7,-12,-5,10,-2,-8,2,-5,-7,-15,-13,-17
-7,-12,-5,10,-2,-8,2,-5,-7,-15,-13,-17
-7,-12,-5,10,-2,-8,2,-5,-7,-15,-13,-18
-8,-12,-5,10,-3,-8,2,-5,-7,-15,-13,-18
-7,-11,-5,10,-3,-7,2,-5,-7,-15,-13,-19
-7,-11,-4,9,-3,-7,2,-5,-6,-15,-13,-19
-7,-11,-4,9,-3,-7,2,-5,-6,-15,-13,-20
-7,-11,-4,9,-3,-7,2,-5,-6,-15,-13,-20
-8,-12,-4,10,-4,-7,2,-4,-6,-15,-14,-21
-10,-13,-4,12,-5,-7,2,-4,-6,-15,-14,-22
-10,-13,-3,12,-5,-7,2,-4,-5,-14,-13,-22
-9,-12,-4,11,-4,-7,2,-4,-4,-14,-13,-22
-8,-12,-4,11,-3,-8,2,-4,-5,-14,-14,-22
-8,-12,-4,11,-3,-8,2,-4,-5,-14,-14,-22
-8,-12,-4,10,-3,-7,2,-4,-5,-14,-14,-22
-7,-11,-3,10,-3,-7,2,-4,-5,-14,-14,-22
-8,-11,-3,10,-3,-7,2,-4,-5,-14,-14,-22
-9,-12,-3,11,-4,-7,2,-3,-5,-14,-14,-22
-9,-13,-3,12,-4,-8,2,-3,-4,-14,-14,-22
-9,-13,-3,12,-4,-8,2,-2,-4,-13,-14,-21
-9,-13,-3,12,-4,-7,2,-2,-4,-13,-13,-21
-9,-13,-3,12,-4,-7,2,-3,-4,-13,-13,-21
-9,-13,-4,11,-4,-7,2,-3,-4,-13,-13,-21
-8,-12,-4,11,-3,-7,3,-2,-3,-12,-13,-21
-7,-12,-4,10,-3,-7,3,-2,-3,-12,-13,-21
-7,-11,-4,10,-3,-7,3,-2,-3,-12,-13,-21
-7,-11,-4,9,-3,-7,3,-2,-3,-12,-13,-22
-7,-11,-4,9,-3,-7,2,-2,-3,-12,-13,-22
-7,-11,-3,9,-3,-7,2,-2,-3,-12,-13,-22
-8,-11,-2,10,-4,-6,2,-2,-3,-12,-13,-22
-9,-11,-1,11,-5,-6,2,-2,-2,-12,-13,-22
-9,-11,-1,11,-5,-6,2,-2,-2,-11,-13,-22
-8,-11,-1,10,-4,-6,3,-1,-2,-11,-12,-21
-8,-11,-2,10,-4,-6,3,-1,-2,-10,-12,-21
-8,-12,-2,11,-4,-7,2,-2,-2,-11,-12,-22
-9,-13,-3,12,-4,-8,2,-2,-2,-11,-12,-22
-9,-13,-3,12,-4,-8,3,-1,-2,-11,-12,-22
-9,-13,-3,12,-4,-7,3,-1,-2,-10,-12,-22
-9,-12,-3,11,-4,-7,3,-1,-2,-10,-12,-22
-8,-12,-3,11,-3,-7,3,-1,-2,-10,-12,-22
-8,-11,-3,10,-3,-6,2,-1,-2,-10,-12,-22
-8,-11,-2,10,-3,-6,2,-1,-1,-9,-12,-22
-7,-11,-2,10,-3,-6,2,-1,-1,-9,-12,-22
-7,-11,-2,10,-3,-6,2,-1,-1,-9,-12,-22
-7,-11,-2,10,-3,-6,2,-1,-1,-9,-11,-22
-7,-11,-2,10,-3,-6,2,-1,-1,-9,-11,-22
-7,-11,-2,10,-3,-6,2,-1,-1,-10,-11,-23
-8,-11,-2,11,-3,-6,2,-1,-1,-10,-11,-23
-8,-11,-2,11,-3,-6,2,-1,-1,-9,-11,-23
-8,-11,-2,10,-3,-6,2,-1,-1,-9,-11,-22
-7,-11,-2,10,-3,-6,2,-1,-1,-9,-11,-22
-7,-11,-2,10,-3,-7,2,-1,-2,-10,-11,-21
-7,-11,-2,10,-3,-7,3,-1,-2,-10,-11,-21
-7,-10,-2,10,-3,-7,3,-1,-2,-10,-11,-21
-7,-10,-2,10,-3,-7,2,-1,-2,-10,-11,-20
-7,-10,-2,10,-3,-7,2,-1,-2,-10,-11,-20
-7,-10,-2,10,-3,-6,1,-1,-2,-10,-11,-20
-7,-10,-2,9,-3,-6,1,-1,-2,-10,-12,-20
-7,-10,-2,9,-3,-5,1,-1,-2,-10,-12,-20
-7,-9,-1,9,-4,-5,1,-1,-2,-10,-11,-20
-8,-9,0,9,-5,-4,1,-1,-2,-9,-11,-20
-7,-8,0,8,-5,-3,2,-1,-1,-9,-10,-20
-6,-8,0,8,-4,-3,2,-1,-1,-9,-10,-20
-5,-7,-1,7,-3,-3,2,-1,-1,-9,-10,-20
-5,-7,0,7,-3,-3,2,-1,0,-9,-9,-19
-6,-6,0,7,-3,-2,2,-1,0,-8,-9,-19
-6,-5,1,6,-4,-1,2,-1,0,-8,-9,-19
-5,-4,1,5,-4,-1,2,-1,1,-7,-9,-19
-5,-4,1,5,-4,-1,3,-1,1,-7,-9,-19
-5,-3,1,5,-4,0,3,-1,1,-7,-8,-19
-5,-3,2,5,-4,0,4,-1,2,-7,-8,-18
-5,-3,3,5,-5,0,4,0,2,-7,-8,-18
-5,-3,3,5,-5,1,5,0,3,-7,-7,-18
-5,-3,4,5,-5,1,5,0,3,-6,-7,-18
-5,-2,4,5,-5,1,5,0,4,-6,-7,-18
-4,-2,4,4,-5,1,5,0,4,-6,-7,-18
-4,-1,4,3,-5,2,4,0,4,-6,-7,-18
-3,-1,4,3,-5,2,3,0,4,-6,-7,-18
-3,0,4,2,-5,2,1,-1,4,-6,-6,-18
-3,0,4,2,-4,2,-1,-2,3,-6,-7,-18
-2,-1,3,2,-3,1,-3,-4,2,-6,-7,-18
-2,-2,1,2,-2,0,-5,-5,1,-7,-7,-17
-3,-3,0,3,-2,-2,-6,-5,0,-7,-7,-17
-4,-5,-1,5,-2,-3,-7,-6,-2,-8,-7,-18
-4,-7,-2,6,-2,-4,-8,-6,-3,-9,-7,-18
-4,-7,-2,6,-2,-4,-9,-7,-4,-9,-7,-19
-3,-5,-2,5,-1,-4,-9,-7,-5,-9,-7,-18
0,-3,-2,2,0,-3,-9,-7,-4,-9,-7,-17
1,-1,-3,0,1,-2,-9,-8,-4,-9,-7,-16
2,-1,-3,0,2,-2,-9,-8,-5,-9,-7,-15
2,-1,-3,0,2,-2,-9,-8,-5,-9,-7,-15
3,-1,-4,0,3,-3,-9,-8,-6,-9,-7,-15
4,-1,-5,-1,4,-3,-9,-8,-6,-9,-7,-15
5,-1,-6,-1,5,-4,-9,-8,-6,-10,-7,-15
5,-2,-7,0,5,-4,-9,-8,-6,-10,-7,-15
4,-3,-7,0,5,-5,-9,-8,-7,-10,-7,-16
3,-4,-7,1,5,-5,-9,-9,-7,-11,-8,-17
3,-4,-6,1,4,-5,-8,-9,-8,-12,-8,-18
2,-4,-5,1,3,-5,-8,-10,-8,-12,-9,-18
2,-4,-5,1,2,-5,-7,-10,-8,-12,-9,-18
2,-4,-5,1,2,-5,-6,-9,-8,-12,-9,-17
2,-3,-4,1,2,-4,-5,-7,-7,-11,-8,-17
2,-3,-4,1,2,-3,-4,-5,-6,-10,-8,-16
2,-3,-3,1,1,-3,-2,-4,-5,-10,-7,-16
0,-4,-3,2,0,-3,-1,-3,-5,-10,-7,-17
-1,-5,-3,4,0,-4,-1,-3,-4,-10,-7,-18
-3,-7,-3,6,-1,-5,0,-4,-4,-10,-7,-19
-4,-7,-3,6,-1,-5,0,-4,-4,-10,-8,-19
-5,-8,-3,7,-2,-5,0,-4,-4,-10,-9,-20
-6,-8,-2,8,-2,-5,1,-4,-5,-11,-9,-21
-6,-9,-3,8,-2,-6,1,-4,-5,-11,-10,-22
-5,-9,-3,8,-2,-6,2,-4,-5,-12,-10,-22
-5,-9,-4,8,-1,-6,2,-3,-5,-12,-10,-22
-6,-10,-4,9,-1,-7,2,-3,-6,-13,-11,-22
-7,-11,-4,9,-2,-7,3,-3,-6,-13,-11,-23
-7,-11,-3,9,-2,-8,3,-3,-6,-13,-11,-23
-6,-11,-4,9,-1,-8,4,-3,-6,-13,-11,-24
-6,-11,-4,9,-1,-8,4,-3,-6,-13,-11,-24
-6,-12,-4,10,-1,-8,3,-3,-6,-14,-12,-25
-7,-12,-4,11,-2,-8,3,-3,-6,-14,-12,-25
-7,-12,-4,11,-2,-8,4,-3,-6,-14,-12,-26
-7,-11,-3,10,-2,-7,4,-3,-6,-14,-12,-26
-7,-11,-3,10,-2,-7,4,-3,-6,-13,-12,-26
-7,-10,-3,9,-2,-7,4,-3,-6,-13,-12,-26
-7,-10,-3,9,-2,-7,4,-3,-6,-13,-12,-27
-7,-11,-3,9,-2,-7,4,-3,-6,-13,-12,-27
-7,-11,-3,9,-2,-7,4,-3,-6,-13,-12,-26
-7,-11,-3,9,-2,-7,4,-3,-6,-13,-12,-26
-7,-11,-4,9,-2,-8,4,-3,-6,-13,-12,-25
-7,-12,-4,9,-2,-8,4,-3,-6,-13,-12,-25
-6,-12,-4,9,-2,-8,4,-3,-6,-13,-11,-25
-6,-11,-4,9,-2,-8,4,-3,-6,-13,-11,-25
-6,-11,-4,9,-2,-8,4,-3,-6,-13,-11,-26
-6,-11,-4,9,-2,-8,4,-3,-7,-13,-11,-26
-6,-11,-4,9,-2,-8,5,-3,-7,-13,-11,-26
-6,-11,-4,9,-2,-8,5,-3,-7,-13,-11,-26
-6,-12,-5,9,-2,-8,4,-3,-7,-13,-11,-26
-7,-12,-5,10,-2,-8,4,-3,-7,-13,-11,-27
-7,-13,-4,10,-3,-8,4,-3,-7,-13,-11,-28
-7,-12,-4,10,-3,-8,4,-3,-6,-13,-11,-29
-7,-11,-4,9,-2,-7,4,-3,-6,-12,-10,-29
-6,-11,-4,9,-2,-7,5,-2,-6,-12,-10,-29
-6,-11,-4,9,-2,-7,5,-2,-5,-12,-10,-30
-6,-11,-4,9,-2,-7,6,-1,-5,-12,-11,-30
-6,-11,-4,8,-1,-7,6,0,-3,-11,-12,-31
-5,-10,-5,7,-1,-7,6,2,-1,-9,-11,-31
-5,-10,-5,7,0,-7,6,2,1,-6,-10,-31
-4,-10,-5,7,0,-7,6,2,5,-2,-8,-31
-4,-9,-5,6,0,-7,5,2,10,4,-5,-29
-2,-8,-5,5,0,-6,3,1,17,11,0,-26
0,-6,-5,3,1,-5,1,0,23,19,7,-21
2,-3,-5,0,3,-4,-2,-1,23,26,16,-14
5,0,-5,-3,4,-2,-6,-5,16,31,26,-5
10,4,-6,-8,7,-1,-12,-12,4,32,37,4
16,9,-7,-13,11,0,-20,-21,-12,30,48,16
23,15,-7,-19,14,3,-28,-32,-30,26,59,30
30,22,-7,-26,18,7,-37,-44,-50,21,72,45
37,31,-6,-33,20,12,-46,-57,-71,14,85,62
44,40,-5,-41,23,17,-55,-70,-92,6,98,80
51,47,-4,-49,26,22,-61,-79,-111,-1,112,98
56,52,-5,-54,29,24,-65,-85,-128,-9,123,114
61,55,-6,-58,32,24,-68,-88,-144,-18,128,124
64,54,-9,-59,36,22,-70,-91,-161,-31,122,127
65,51,-13,-58,38,19,-71,-98,-179,-49,107,124
64,46,-17,-55,40,14,-74,-107,-197,-71,86,117
62,41,-19,-51,39,11,-78,-117,-213,-93,63,108
55,37,-18,-45,35,10,-82,-128,-225,-115,39,96
46,32,-14,-38,28,10,-85,-139,-232,-136,14,81
35,28,-8,-31,20,10,-86,-146,-232,-155,-12,62
26,24,-2,-25,13,11,-84,-148,-226,-169,-36,41
18,22,4,-20,6,13,-79,-145,-214,-175,-53,22
11,20,10,-15,0,14,-73,-140,-200,-173,-64,5
4,18,15,-11,-6,16,-66,-132,-184,-167,-69,-9
-1,17,20,-7,-11,18,-58,-122,-167,-156,-69,-21
-7,15,23,-3,-16,19,-50,-110,-147,-141,-67,-31
-12,11,23,1,-19,17,-40,-95,-126,-124,-62,-39
-15,5,20,5,-19,12,-31,-78,-104,-105,-55,-46
-16,-1,15,9,-17,7,-22,-62,-84,-87,-48,-51
-16,-5,12,10,-15,3,-15,-48,-65,-71,-41,-53
-15,-7,9,11,-13,1,-8,-36,-49,-56,-35,-53
-14,-8,7,12,-11,-1,-3,-25,-35,-44,-29,-52
-13,-9,5,12,-10,-2,1,-17,-25,-34,-24,-51
-12,-10,3,12,-8,-4,4,-11,-17,-27,-20,-48
-11,-11,0,11,-7,-5,7,-6,-11,-20,-17,-46
-10,-11,-1,11,-6,-5,9,-2,-6,-15,-14,-44
-9,-11,-1,10,-5,-6,10,1,-3,-11,-12,-43
-9,-11,-1,10,-5,-6,10,2,0,-9,-12,-42
-9,-12,-1,11,-4,-7,11,4,2,-8,-11,-42
-9,-12,-2,11,-4,-7,12,5,4,-7,-11,-42
-9,-12,-2,11,-4,-8,13,6,5,-6,-11,-42
-10,-13,-2,12,-4,-8,13,6,6,-6,-12,-42
-9,-13,-3,12,-3,-8,14,7,7,-5,-12,-42
-9,-13,-4,12,-3,-9,14,8,7,-5,-12,-42
-9,-14,-5,12,-3,-9,14,9,8,-4,-12,-43
-9,-14,-5,12,-3,-9,14,9,8,-3,-11,-43
-8,-14,-4,11,-3,-9,14,10,9,-2,-11,-42
-8,-13,-4,11,-3,-9,14,10,10,-2,-10,-42
-8,-13,-3,11,-3,-9,14,10,10,-2,-10,-41
-8,-13,-3,11,-3,-9,14,10,10,-2,-10,-41
-8,-13,-3,11,-3,-8,14,11,10,-1,-10,-40
-8,-13,-4,11,-3,-8,14,11,11,-1,-10,-40
-8,-13,-4,11,-3,-8,14,11,11,0,-10,-40
-8,-13,-4,11,-3,-8,14,11,11,0,-10,-40
-8,-13,-4,11,-3,-8,14,11,11,0,-10,-40
-8,-12,-4,10,-3,-8,14,11,11,0,-10,-40
-7,-11,-4,9,-2,-8,14,11,11,0,-10,-40
-6,-11,-4,9,-2,-8,14,11,12,1,-9,-40
-6,-11,-4,9,-2,-8,14,11,12,1,-9,-40
-7,-12,-4,10,-2,-8,14,11,12,0,-10,-40
-7,-12,-4,10,-2,-8,14,11,12,0,-10,-41
-7,-12,-4,10,-2,-8,14,12,12,1,-10,-41
-7,-11,-3,10,-2,-7,14,12,12,2,-9,-40
-8,-11,-3,10,-3,-7,14,12,12,2,-9,-40
-8,-11,-3,10,-3,-7,13,11,12,2,-9,-40
-8,-11,-2,10,-3,-7,13,11,12,1,-9,-40
-8,-11,-2,10,-3,-7,14,11,13,1,-9,-40
-7,-11,-2,9,-3,-7,14,11,13,1,-9,-40
-7,-11,-2,9,-3,-7,14,11,13,2,-9,-40
-7,-11,-3,9,-2,-7,14,11,13,2,-9,-40
-7,-11,-3,10,-2,-7,14,11,13,2,-9,-40
-7,-11,-3,10,-2,-7,14,11,13,2,-9,-40
-7,-11,-3,10,-3,-7,13,11,13,3,-9,-40
-7,-11,-3,9,-2,-7,13,12,14,3,-8,-40
-6,-10,-3,9,-2,-7,14,12,14,4,-8,-40
-6,-10,-3,8,-2,-7,14,12,14,4,-8,-40
-6,-10,-2,8,-2,-6,14,12,14,5,-8,-41
-6,-9,-1,8,-2,-6,13,12,14,5,-8,-41
-6,-9,-1,8,-2,-5,13,12,14,4,-8,-41
-6,-8,0,8,-3,-5,13,12,14,4,-8,-41
-7,-8,0,8,-3,-5,13,13,15,5,-8,-41
-7,-8,-1,8,-3,-5,13,13,15,5,-8,-41
-6,-8,-2,7,-2,-6,13,12,15,5,-8,-41
-6,-8,-2,7,-1,-6,13,12,15,5,-8,-41
-6,-8,-2,7,-1,-6,13,13,15,6,-8,-41
-6,-8,-2,7,-2,-6,13,13,15,6,-8,-41
-6,-9,-2,7,-2,-6,13,13,16,6,-8,-41
-5,-9,-3,7,-1,-7,13,13,16,7,-7,-41
-5,-9,-3,7,-1,-7,13,13,16,7,-7,-40
-5,-8,-3,7,-1,-6,13,13,17,8,-6,-40
-5,-8,-3,7,-1,-6,13,13,17,9,-5,-40
-5,-8,-3,7,-1,-6,13,14,17,10,-5,-40
-5,-8,-2,7,-1,-6,13,14,18,10,-4,-40
-5,-8,-2,7,-2,-6,13,14,18,10,-4,-40
-5,-8,-1,7,-2,-6,13,15,18,10,-4,-41
-6,-9,-1,7,-2,-6,13,15,18,10,-5,-41
-6,-8,-1,7,-2,-6,13,15,18,11,-4,-41
-5,-7,-1,7,-2,-5,13,15,19,12,-3,-41
-5,-6,-1,6,-2,-4,13,16,20,13,-3,-41
-5,-6,-1,5,-2,-4,13,16,20,14,-3,-41
-5,-6,-1,5,-2,-4,13,16,21,14,-3,-41
-5,-7,-1,5,-1,-5,13,16,21,15,-2,-41
-5,-7,-1,5,-1,-5,13,17,22,15,-1,-40
-4,-6,-1,5,-2,-4,13,17,22,16,0,-40
-4,-5,-1,4,-2,-4,13,17,23,17,0,-41
-4,-5,-1,4,-2,-4,13,17,23,17,-1,-41
-4,-6,-1,5,-1,-4,13,17,23,18,-1,-41
-4,-6,-2,5,-1,-4,13,18,24,19,-1,-40
-3,-6,-2,4,-1,-4,14,19,25,20,-1,-40
-3,-5,-1,4,-1,-4,14,19,26,20,0,-39
-2,-5,-1,3,-1,-4,14,20,27,21,1,-39
-1,-4,-1,3,0,-4,14,20,28,23,2,-38
-2,-5,-2,4,0,-4,13,20,28,23,2,-38
-4,-7,-2,5,-1,-5,13,20,28,24,2,-38
-5,-7,-2,6,-1,-5,13,21,29,24,3,-39
-5,-7,-2,6,-1,-5,13,22,30,26,4,-39
-4,-7,-2,5,-1,-5,12,22,31,28,5,-38
-4,-6,-2,5,-1,-5,12,22,32,30,6,-39
-4,-6,-1,5,-2,-5,11,22,33,31,6,-39
-3,-5,-1,4,-1,-4,12,23,35,33,7,-38
-2,-3,-1,3,-1,-3,12,25,37,36,9,-37
0,-1,-1,1,0,-1,13,26,39,39,11,-36
0,0,0,0,0,0,13,28,40,41,13,-35
1,0,0,0,0,0,14,29,42,43,14,-35
2,0,-1,0,0,0,14,31,44,45,15,-34
1,0,-1,0,0,-1,14,32,45,48,17,-33
1,-1,-1,0,1,-2,14,32,47,50,18,-33
2,-1,-1,0,1,-2,14,33,48,53,20,-32
3,0,-1,-1,2,-1,14,35,50,56,22,-31
4,1,-1,-2,3,0,14,37,53,60,24,-30
4,2,-1,-2,2,0,14,39,56,63,27,-29
3,2,-1,-2,2,0,14,41,58,67,29,-28
4,2,-1,-2,2,0,14,42,60,70,31,-27
5,3,-1,-4,3,0,13,43,62,74,33,-26
7,5,-1,-6,3,1,13,44,64,78,36,-25
8,6,-1,-7,4,2,12,46,66,81,38,-24
8,6,-1,-8,4,2,12,47,68,84,40,-22
9,7,-1,-8,5,2,12,48,71,88,43,-20
10,8,-2,-9,5,2,12,50,74,91,46,-18
11,9,-2,-10,6,3,11,52,76,95,49,-16
11,10,-1,-10,6,4,11,53,78,98,51,-14
12,11,0,-11,6,5,11,54,80,101,53,-12
12,12,0,-12,6,6,11,55,81,104,55,-11
13,13,1,-13,6,6,10,55,82,106,57,-10
14,14,1,-14,6,7,10,56,83,107,59,-8
14,15,1,-15,6,8,10,56,84,109,61,-7
14,16,2,-15,5,9,10,56,85,110,63,-5
15,18,3,-16,5,10,9,56,85,111,65,-3
15,19,4,-17,5,11,8,56,85,112,67,-2
16,20,5,-17,5,12,8,55,85,112,67,-1
16,21,5,-18,5,12,7,54,84,111,67,0
17,22,5,-19,5,13,7,53,82,109,67,0
17,22,5,-19,5,13,7,51,80,106,66,0
17,22,5,-20,5,13,6,49,78,102,65,1
17,23,6,-20,5,14,5,47,75,98,64,1
17,23,7,-20,5,14,4,45,72,94,62,2
16,23,7,-20,5,14,3,43,69,89,61,2
16,23,8,-19,4,15,3,41,65,85,59,1
16,23,8,-19,4,15,3,38,61,80,56,0
15,23,8,-19,3,15,3,35,57,74,52,-2
15,23,8,-19,3,15,3,32,52,68,48,-3
14,22,8,-18,3,14,2,29,48,62,45,-4
14,20,8,-17,3,14,2,26,43,56,42,-5
13,19,7,-16,3,13,2,23,39,50,39,-7
13,19,7,-16,3,13,1,20,35,45,36,-9
12,18,6,-15,3,12,1,18,32,40,32,-11
12,18,5,-15,3,11,1,16,28,36,29,-14
12,16,4,-14,4,10,1,14,23,30,24,-16
11,14,3,-12,4,8,1,11,19,25,20,-19
10,12,2,-11,4,7,1,9,15,20,16,-21
10,11,2,-10,4,6,1,7,12,16,14,-23
9,9,1,-9,4,5,1,6,9,13,11,-25
8,8,1,-8,4,4,1,5,7,9,9,-27
7,6,0,-6,4,2,1,4,5,6,6,-29
6,4,-1,-5,3,1,1,3,3,3,3,-31
5,3,-1,-4,3,0,1,2,1,1,1,-33
6,3,-2,-4,3,0,2,2,0,0,0,-35
6,3,-2,-4,3,0,3,1,-1,-1,-1,-37
6,2,-3,-4,4,-1,3,0,-3,-3,-2,-39
6,1,-3,-3,4,-1,3,0,-4,-5,-4,-40
5,1,-3,-3,4,-1,3,-1,-5,-7,-5,-41
5,1,-3,-3,4,-1,3,-1,-6,-8,-5,-42
5,0,-3,-2,4,-2,3,-1,-7,-9,-6,-43
3,0,-3,-1,3,-2,3,-1,-8,-10,-7,-44
3,-1,-3,0,3,-3,3,-2,-8,-10,-7,-45
3,-1,-3,0,4,-3,4,-2,-9,-11,-8,-47
3,0,-3,-1,4,-2,4,-2,-10,-12,-8,-49
3,0,-3,-1,4,-2,4,-2,-10,-12,-8,-49
3,0,-2,-1,3,-2,4,-2,-10,-12,-8,-50
3,0,-2,-1,3,-2,4,-2,-10,-12,-8,-50
3,0,-3,-1,3,-2,4,-2,-11,-13,-9,-51
4,0,-4,-1,4,-2,4,-3,-11,-14,-10,-51
3,0,-4,-1,4,-2,4,-3,-11,-14,-11,-52
3,-1,-4,0,4,-2,4,-3,-11,-14,-11,-53
3,-1,-4,0,4,-2,4,-3,-11,-14,-11,-54
4,-1,-5,-1,4,-2,4,-3,-12,-14,-11,-54
4,-1,-5,-1,4,-3,4,-3,-12,-15,-11,-55
3,-2,-5,0,4,-3,4,-3,-12,-15,-11,-57
2,-2,-5,0,4,-4,4,-3,-12,-16,-11,-57
3,-2,-4,0,4,-3,4,-3,-12,-16,-11,-57
3,-1,-4,-1,4,-2,4,-3,-12,-15,-11,-56
4,0,-3,-1,4,-2,4,-3,-12,-15,-11,-55
3,-1,-3,-1,4,-3,4,-3,-13,-15,-11,-54
3,-2,-4,0,4,-4,4,-3,-13,-16,-11,-52
3,-3,-5,0,4,-4,4,-3,-13,-16,-11,-51
3,-4,-5,1,4,-5,4,-3,-13,-16,-11,-50
3,-4,-6,1,5,-5,4,-3,-12,-16,-11,-46
3,-3,-6,0,5,-5,5,-3,-12,-15,-11,-39
4,-2,-6,0,5,-4,5,-3,-12,-15,-11,-31
4,-2,-5,-1,5,-4,5,-3,-12,-15,-11,-22
3,-2,-5,0,4,-3,5,-3,-13,-16,-11,-12
3,-2,-4,0,4,-3,5,-3,-13,-16,-11,1
3,-2,-4,0,4,-3,5,-3,-13,-16,-11,16
2,-3,-4,0,4,-3,5,-3,-13,-16,-11,31
2,-3,-4,0,4,-3,4,-3,-13,-16,-11,43
2,-3,-4,0,4,-3,4,-3,-13,-16,-11,50
1,-3,-4,1,4,-4,4,-3,-13,-15,-12,56
1,-3,-4,1,4,-4,4,-3,-13,-15,-13,58
2,-2,-4,0,4,-3,5,-3,-12,-15,-13,53
3,-1,-4,0,4,-3,5,-2,-12,-15,-12,49
3,-1,-5,-1,5,-3,5,-2,-12,-15,-12,49
3,-2,-5,0,5,-4,5,-2,-12,-15,-12,52
3,-2,-6,0,5,-5,5,-1,-11,-14,-12,61
4,-2,-6,0,5,-5,5,-1,-11,-14,-12,75
4,-2,-6,0,5,-4,5,-1,-10,-14,-12,83
3,-2,-5,0,4,-4,5,-1,-10,-14,-12,88
1,-3,-5,1,4,-4,5,-1,-10,-14,-12,92
1,-4,-5,2,3,-4,5,-1,-10,-14,-12,91
2,-3,-5,1,3,-4,6,-1,-10,-13,-11,91
2,-2,-4,0,3,-3,6,-1,-9,-13,-11,91
2,-1,-4,0,3,-3,6,-1,-9,-13,-11,85
2,-1,-3,0,3,-3,6,-1,-9,-13,-11,76
2,-2,-3,0,3,-3,6,-1,-8,-13,-12,72
2,-2,-4,0,3,-4,6,-1,-8,-13,-12,67
2,-3,-4,1,3,-4,6,-1,-8,-13,-12,62
2,-3,-4,1,3,-4,6,-1,-8,-12,-12,64
2,-3,-4,0,3,-4,7,-1,-8,-12,-11,66
3,-3,-5,0,3,-4,6,0,-8,-11,-11,70
3,-2,-5,0,3,-4,6,0,-7,-11,-11,79
3,-2,-5,-1,4,-4,6,0,-7,-10,-11,83
3,-1,-5,-1,4,-4,7,0,-7,-10,-10,77
4,-1,-5,-1,5,-3,7,0,-6,-9,-10,74
3,-2,-4,-1,4,-3,7,0,-6,-9,-9,79
2,-3,-4,0,3,-3,7,0,-6,-9,-9,78
0,-3,-3,1,2,-3,7,0,-6,-9,-9,62
1,-2,-3,1,2,-3,7,0,-6,-8,-9,43
2,-2,-3,0,3,-3,7,0,-6,-8,-9,36
3,-1,-4,0,4,-3,6,0,-6,-8,-9,38
3,-1,-4,0,4,-3,6,0,-6,-8,-9,35
3,-1,-4,0,4,-3,6,0,-6,-8,-9,20
3,-1,-4,0,4,-3,6,0,-6,-8,-9,1
2,-2,-4,0,4,-3,6,0,-6,-8,-9,-13
2,-2,-4,0,4,-3,6,0,-6,-8,-9,-22
2,-1,-3,0,4,-3,6,0,-5,-8,-8,-25
2,-1,-3,-1,4,-2,6,1,-5,-7,-8,-31
2,-1,-3,-1,4,-2,6,1,-5,-7,-8,-44
2,-1,-3,-1,4,-2,6,1,-5,-7,-8,-52
2,-1,-3,-1,4,-3,6,1,-5,-7,-8,-48
3,-1,-4,-1,4,-3,6,1,-5,-7,-8,-41
4,-1,-4,-1,4,-3,7,1,-5,-7,-8,-41
4,-1,-5,-1,5,-3,7,1,-5,-7,-8,-50
3,-1,-5,-1,5,-3,7,1,-5,-7,-8,-59
3,-2,-5,0,5,-3,7,1,-5,-7,-8,-65
2,-2,-5,0,4,-3,6,1,-5,-7,-8,-69
2,-2,-4,0,4,-3,6,1,-5,-7,-8,-71
2,-2,-4,0,3,-3,6,1,-5,-7,-8,-73
2,-1,-4,0,3,-3,6,0,-6,-8,-8,-73
2,-1,-4,0,3,-3,6,0,-6,-8,-8,-73
3,0,-4,-1,3,-2,6,0,-6,-8,-7,-71
3,0,-3,-1,4,-1,6,0,-6,-8,-7,-62
3,0,-3,-2,4,-1,6,0,-6,-8,-7,-51
3,0,-3,-2,4,-1,6,0,-6,-8,-7,-43
3,0,-3,-2,4,-1,6,0,-6,-8,-7,-35
3,0,-3,-2,4,-1,6,0,-5,-7,-6,-28
4,1,-2,-3,4,-1,6,0,-5,-7,-6,-26
4,2,-2,-3,3,0,5,0,-5,-7,-6,-28
4,2,-2,-2,3,0,5,0,-6,-7,-6,-31
4,2,-2,-2,3,0,5,0,-6,-7,-7,-34
4,2,-1,-2,3,0,5,0,-6,-7,-7,-36
4,3,-1,-3,3,1,5,0,-5,-7,-6,-38
4,4,0,-3,3,2,5,0,-5,-7,-6,-42
4,4,0,-4,2,2,5,0,-4,-7,-6,-45
4,5,1,-4,2,3,5,0,-4,-6,-6,-47
4,5,1,-4,2,3,5,0,-4,-6,-6,-49
4,6,1,-4,2,3,5,0,-3,-6,-6,-50
4,6,2,-4,2,3,5,0,-3,-6,-6,-52
4,6,2,-4,1,4,5,0,-2,-6,-5,-53
4,6,3,-5,1,4,6,1,-2,-6,-5,-53
4,7,3,-6,1,5,7,1,-1,-5,-5,-54
4,7,3,-6,1,5,7,1,0,-5,-4,-54
4,7,3,-6,1,5,7,1,0,-5,-4,-53
4,7,3,-6,1,5,7,1,0,-5,-4,-53
4,7,3,-6,1,5,5,1,0,-4,-4,-52
5,7,3,-6,1,5,4,0,0,-4,-3,-52
5,7,2,-6,1,5,2,0,0,-4,-3,-52
6,8,2,-6,2,5,0,-1,-1,-4,-3,-50
6,8,1,-6,2,4,-2,-2,-2,-5,-3,-49
6,7,0,-6,3,3,-3,-3,-3,-6,-3,-47
6,5,-1,-6,4,2,-4,-3,-5,-7,-4,-39
6,4,-2,-5,5,1,-5,-4,-6,-7,-5,-24
6,4,-2,-5,5,1,-6,-4,-7,-8,-5,-8
6,5,-1,-5,4,1,-7,-5,-8,-8,-5,7
6,5,-1,-6,4,2,-7,-5,-8,-8,-5,21
7,6,-1,-7,5,2,-8,-5,-8,-8,-5,26
9,7,-2,-8,6,2,-8,-5,-9,-8,-5,26
11,7,-3,-9,7,1,-8,-6,-10,-9,-5,28
11,7,-3,-9,8,1,-9,-6,-10,-9,-5,29
12,7,-4,-9,8,1,-8,-7,-11,-9,-5,23
12,7,-4,-9,9,1,-8,-7,-11,-9,-5,12
12,7,-5,-9,9,1,-8,-7,-11,-9,-5,15
12,7,-5,-10,9,1,-8,-7,-11,-10,-6,35
12,6,-5,-9,9,0,-8,-7,-11,-10,-6,46
11,5,-6,-9,9,0,-8,-7,-12,-11,-6,46
11,5,-6,-9,9,0,-7,-7,-12,-11,-6,50
11,5,-6,-9,9,0,-6,-7,-12,-11,-6,63
11,5,-5,-8,8,0,-5,-6,-12,-11,-6,77
10,5,-5,-8,7,0,-5,-6,-12,-11,-6,86
9,5,-4,-7,7,0,-4,-5,-11,-10,-6,88
8,5,-4,-7,6,0,-4,-4,-10,-10,-5,82
7,4,-3,-6,6,0,-3,-4,-9,-9,-5,72
7,4,-3,-6,5,0,-2,-3,-8,-9,-5,59
6,4,-2,-5,5,0,-1,-2,-7,-8,-5,46
6,4,-2,-5,4,0,0,-1,-7,-8,-5,39
5,3,-2,-4,4,0,0,-1,-7,-8,-5,37
4,2,-2,-3,3,0,1,-1,-7,-8,-6,31
3,1,-2,-2,3,0,1,-1,-7,-9,-6,23
3,1,-2,-2,2,0,1,-1,-8,-10,-7,19
2,0,-2,-1,2,-1,1,-2,-8,-11,-8,16
1,-1,-2,0,2,-1,2,-2,-9,-11,-8,10
1,-1,-3,0,2,-2,3,-1,-9,-12,-9,4
1,-1,-3,0,3,-2,3,-1,-9,-12,-9,0
1,-1,-3,0,3,-2,4,-1,-9,-12,-10,-6
1,-1,-3,0,2,-2,4,0,-9,-12,-10,-13
1,-1,-3,0,2,-2,4,0,-9,-12,-10,-15
1,-1,-3,0,2,-2,4,0,-8,-12,-10,-9
0,-2,-3,0,1,-2,4,0,-8,-12,-10,0
-1,-3,-2,1,1,-2,4,0,-8,-12,-10,9
-2,-3,-2,2,0,-2,4,0,-9,-12,-10,16
-3,-4,-2,3,0,-2,4,0,-9,-12,-10,20
-3,-4,-2,3,0,-2,4,0,-9,-12,-10,21
-2,-4,-2,3,0,-2,4,0,-9,-12,-10,19
-2,-4,-2,3,0,-3,4,0,-9,-12,-10,16
-2,-4,-2,3,0,-3,4,0,-9,-12,-10,13
-2,-3,-2,2,0,-3,4,0,-9,-12,-10,13
-2,-3,-2,2,0,-3,4,0,-9,-12,-10,11
-1,-3,-2,2,1,-2,4,0,-9,-12,-9,6
-1,-3,-2,2,1,-2,5,0,-9,-12,-9,0
-1,-3,-2,1,1,-2,5,0,-9,-11,-9,-1
-1,-3,-2,1,0,-2,5,0,-8,-11,-9,7
-1,-2,-2,1,0,-2,5,0,-8,-11,-9,22
0,-2,-2,1,0,-2,5,0,-7,-11,-9,32
0,-2,-2,1,0,-2,5,0,-7,-11,-9,34
-1,-2,-2,2,0,-2,5,0,-7,-11,-9,35
-1,-2,-2,2,0,-2,5,0,-7,-11,-9,38
-1,-2,-2,1,0,-1,5,0,-7,-11,-9,41
-1,-2,-2,1,0,-1,5,0,-7,-11,-9,42
-1,-2,-2,1,0,-1,5,0,-7,-11,-8,36
-1,-2,-1,2,0,-1,5,1,-7,-11,-8,29
-2,-3,-1,3,-1,-1,5,1,-7,-11,-9,30
-3,-4,-2,3,-1,-2,5,2,-7,-11,-9,34
-2,-5,-3,3,0,-3,5,2,-6,-10,-10,33
-1,-5,-4,3,1,-4,5,3,-5,-8,-10,38
-1,-5,-5,3,2,-5,5,4,-2,-5,-9,55
-1,-5,-4,2,2,-4,5,4,1,-1,-6,78
0,-3,-3,1,2,-3,4,3,6,4,-3,97
1,-1,-3,0,2,-2,2,2,13,12,2,111
2,1,-2,-2,2,0,0,1,19,20,9,131
5,4,-2,-4,3,1,-3,0,19,27,18,149
9,8,-2,-8,5,3,-7,-4,13,31,28,147
14,12,-2,-13,8,5,-12,-11,1,32,39,122
19,17,-3,-18,11,7,-19,-20,-15,30,51,97
25,22,-3,-24,14,9,-27,-30,-34,25,64,91
32,30,-1,-31,17,14,-36,-41,-54,19,77,88
38,39,0,-38,19,19,-46,-54,-75,10,90,77
44,48,3,-46,20,26,-54,-66,-96,0,104,68
50,56,5,-53,22,31,-61,-75,-114,-7,118,64
55,62,6,-59,24,35,-65,-81,-132,-16,130,88
60,65,4,-63,28,35,-67,-84,-148,-26,136,157
63,65,1,-64,31,33,-68,-88,-165,-38,132,246
63,60,-2,-62,34,29,-70,-93,-182,-56,117,334
62,54,-7,-58,35,23,-73,-101,-199,-77,95,412
59,49,-10,-54,35,19,-77,-110,-214,-99,71,451
53,44,-9,-49,32,17,-81,-120,-226,-121,45,434
45,41,-4,-43,25,18,-84,-130,-233,-142,18,380
36,37,1,-36,18,19,-84,-137,-234,-161,-9,320
27,33,6,-30,11,20,-81,-139,-228,-175,-35,268
19,30,11,-25,4,21,-77,-137,-217,-181,-55,221
11,27,16,-19,-2,22,-72,-133,-203,-180,-67,190
4,25,21,-14,-8,22,-66,-126,-188,-173,-73,184
-1,23,25,-10,-13,23,-59,-117,-171,-162,-74,186
-5,21,27,-7,-16,24,-52,-106,-152,-148,-71,169
-9,18,27,-3,-18,23,-44,-92,-131,-131,-66,118
-12,12,24,0,-18,18,-34,-77,-110,-112,-60,57
-14,6,20,4,-17,13,-25,-61,-89,-93,-52,13
-14,2,16,7,-16,9,-16,-47,-70,-75,-44,8
-14,0,13,8,-14,6,-9,-35,-53,-59,-37,63
-13,-2,10,8,-11,3,-4,-25,-39,-46,-30,130
-12,-4,8,8,-9,1,0,-17,-28,-36,-25,153
-11,-5,6,8,-8,0,2,-10,-19,-28,-20,146
-10,-6,4,8,-7,-1,4,-4,-12,-22,-17,110
-10,-7,2,8,-6,-2,6,0,-7,-17,-15,39
-9,-8,1,8,-5,-3,7,2,-4,-13,-14,-27
-9,-8,1,8,-5,-3,8,3,-1,-10,-12,-66
-9,-8,1,8,-5,-3,9,4,1,-8,-11,-89
-9,-7,1,8,-5,-3,10,5,3,-7,-11,-103
-8,-7,1,7,-4,-3,10,6,5,-5,-10,-111
-7,-7,1,7,-4,-3,11,8,6,-4,-10,-117
-7,-7,1,7,-4,-3,11,9,7,-4,-10,-121
-8,-8,0,8,-4,-4,11,10,8,-3,-10,-123
-8,-9,0,9,-4,-4,11,10,8,-3,-10,-122
-8,-9,0,9,-4,-4,12,10,8,-2,-10,-120
-8,-8,0,9,-4,-4,12,10,9,-2,-10,-116
-8,-8,0,8,-4,-4,12,10,9,-1,-10,-112
-8,-8,0,8,-4,-4,12,10,10,-1,-10,-111
-8,-8,0,9,-4,-5,12,10,10,-1,-10,-110
-8,-9,0,9,-4,-5,12,11,10,-1,-10,-112
-8,-9,0,9,-4,-5,12,11,10,-1,-10,-115
-8,-9,0,9,-4,-5,12,11,10,0,-10,-117
-8,-9,0,9,-4,-5,12,11,11,0,-10,-118
-8,-9,0,9,-4,-5,12,11,11,0,-10,-119
-9,-9,0,9,-5,-4,12,11,12,1,-10,-119
-9,-9,1,8,-5,-4,12,12,12,1,-9,-118
-8,-8,0,8,-4,-4,12,12,12,1,-9,-117
-7,-7,0,7,-3,-4,12,12,12,1,-9,-116
-7,-7,0,7,-3,-4,12,12,12,1,-9,-115
-7,-7,0,7,-3,-4,12,12,12,2,-9,-114
-7,-7,0,7,-3,-3,12,12,12,2,-9,-112
-7,-7,0,7,-3,-3,12,12,12,2,-9,-111
-7,-7,0,7,-3,-3,12,12,12,2,-9,-111
-8,-7,0,7,-4,-4,12,12,13,2,-9,-111
-8,-8,0,8,-4,-4,11,12,13,2,-9,-111
-8,-8,0,8,-4,-4,11,12,13,3,-9,-110
-8,-7,0,8,-5,-4,11,12,13,3,-9,-108
-8,-7,1,8,-5,-3,11,12,13,3,-9,-106
-9,-8,1,8,-5,-4,11,11,14,3,-9,-106
-8,-7,1,8,-5,-4,11,11,14,3,-9,-105
-7,-7,1,7,-4,-3,11,11,14,3,-9,-105
-7,-7,1,6,-4,-3,11,11,14,3,-9,-106
-7,-7,0,6,-4,-3,11,11,14,3,-9,-108
-7,-7,0,6,-4,-3,11,12,14,3,-8,-110
-7,-7,1,7,-4,-3,11,12,15,4,-8,-112
-8,-7,1,7,-5,-3,11,12,15,4,-8,-113
-8,-7,1,7,-5,-3,11,12,15,4,-8,-114
-8,-7,1,7,-5,-3,11,12,15,4,-8,-115
-8,-7,1,7,-5,-3,10,12,15,4,-8,-115
-7,-6,1,7,-5,-3,10,12,16,5,-7,-116
-8,-6,2,7,-5,-2,11,13,16,6,-7,-117
-9,-6,2,7,-6,-2,10,13,16,6,-7,-112
-10,-7,2,8,-6,-3,10,12,16,6,-7,-97
-10,-8,2,8,-6,-3,10,12,16,6,-7,-79
-9,-8,2,8,-6,-3,10,12,16,6,-7,-69
-9,-8,2,8,-6,-3,10,12,17,7,-7,-65
-9,-8,2,8,-6,-3,10,12,17,7,-7,-66
-9,-8,2,8,-6,-3,10,13,17,7,-7,-72
-10,-8,2,9,-6,-3,10,13,17,8,-6,-80
-10,-8,2,9,-6,-3,10,13,17,8,-6,-90
-9,-8,2,9,-6,-3,10,14,18,8,-6,-100
-9,-8,2,9,-6,-3,10,14,18,9,-6,-108
-9,-8,2,9,-6,-3,10,14,19,9,-5,-115
-9,-8,2,9,-6,-3,10,14,19,10,-5,-119
-9,-7,2,8,-6,-3,10,14,20,10,-5,-121
-8,-7,2,8,-6,-3,10,14,20,11,-5,-122
-8,-7,2,7,-5,-3,10,14,20,11,-4,-122
-8,-6,2,7,-5,-2,10,14,20,12,-4,-121
-7,-6,2,7,-5,-2,10,15,21,12,-3,-121
-7,-6,2,6,-5,-2,10,15,22,13,-3,-121
-7,-6,2,6,-5,-2,10,15,22,13,-2,-121
-7,-6,2,6,-6,-2,10,15,23,14,-2,-121
-7,-6,2,6,-6,-2,10,15,23,15,-2,-122
-7,-6,1,6,-5,-2,10,16,24,15,-2,-122
-7,-6,1,7,-5,-2,10,16,24,16,-1,-122
-7,-6,1,7,-5,-2,10,17,25,17,-1,-123
-8,-6,2,7,-6,-2,10,17,25,18,0,-123
-8,-6,2,7,-6,-2,10,17,26,19,0,-123
-8,-6,2,7,-6,-2,10,17,27,20,0,-123
-9,-7,2,8,-6,-2,9,17,28,21,1,-123
-8,-6,1,7,-6,-2,9,17,28,22,1,-123
-6,-5,1,6,-5,-2,10,18,29,23,2,-123
-6,-5,1,6,-5,-1,10,19,30,24,3,-123
-6,-4,2,6,-5,-1,10,19,31,25,4,-122
-6,-4,2,5,-5,-1,10,20,32,27,5,-121
-6,-3,2,5,-5,-1,10,21,34,29,6,-120
-5,-3,2,4,-5,-1,10,21,35,30,7,-119
-5,-3,2,4,-5,0,10,22,36,32,8,-117
-5,-4,2,5,-5,0,10,22,37,34,9,-111
-6,-4,2,5,-5,0,10,23,38,35,10,-102
-6,-4,2,5,-6,0,10,24,40,37,11,-93
-6,-3,3,5,-6,0,10,25,41,40,12,-84
-6,-3,3,5,-6,0,10,26,43,42,14,-72
-5,-2,3,4,-6,0,10,27,45,45,15,-58
-5,-2,3,4,-5,0,10,28,47,48,17,-47
-4,-2,2,4,-5,0,10,29,49,51,19,-38
-3,-2,2,3,-4,1,10,30,51,54,20,-23
-3,-2,3,3,-4,1,10,31,53,56,22,0
-3,-1,3,2,-4,1,9,32,55,60,24,24
-3,0,3,2,-4,1,9,34,57,63,27,39
-2,0,3,1,-4,1,8,35,60,67,29,48
-2,0,3,1,-4,1,8,37,62,71,32,68
-1,1,3,0,-3,2,8,38,65,75,34,110
0,2,3,0,-2,2,8,39,67,79,37,157
1,3,3,-1,-2,3,8,41,70,83,40,181
1,4,3,-2,-2,4,8,42,72,86,42,179
1,5,3,-2,-2,5,8,43,75,90,45,164
1,5,3,-3,-2,5,8,44,77,93,47,144
2,6,4,-3,-2,6,8,45,79,97,50,124
2,7,4,-4,-2,6,8,47,81,100,52,113
3,7,4,-5,-2,6,8,48,83,103,55,116
3,8,5,-6,-2,7,7,48,85,106,57,131
4,10,5,-7,-2,8,7,49,86,108,59,140
5,11,6,-8,-2,9,6,49,87,110,61,135
5,12,6,-9,-2,10,6,49,88,112,63,121
6,14,7,-10,-2,11,6,49,89,113,65,106
6,15,7,-10,-1,11,5,49,90,113,67,93
6,15,8,-11,-1,12,4,49,89,113,68,87
6,16,9,-11,-2,12,4,48,89,113,68,87
6,16,9,-11,-2,13,3,48,88,112,68,89
7,17,10,-11,-2,13,2,47,87,110,68,88
7,17,11,-12,-2,14,2,45,85,108,67,85
7,18,11,-12,-3,15,1,43,83,104,66,84
7,18,12,-12,-3,16,1,41,80,100,65,86
6,19,12,-12,-4,16,0,39,77,95,63,91
6,19,12,-13,-4,16,0,37,73,91,60,97
7,20,13,-13,-4,17,0,34,69,86,58,98
6,19,13,-13,-5,17,-1,32,65,80,55,96
6,19,13,-12,-5,17,-1,29,61,75,52,94
6,19,13,-12,-5,17,-2,26,56,69,49,93
5,18,13,-12,-5,16,-2,24,52,63,45,96
4,17,13,-11,-5,16,-3,21,47,56,42,106
4,16,12,-10,-5,15,-3,18,42,50,38,113
3,15,12,-10,-5,14,-3,15,38,44,34,112
3,14,11,-9,-5,13,-3,13,34,38,30,106
3,13,10,-8,-5,12,-3,11,30,33,26,98
2,11,9,-7,-5,11,-3,9,26,29,23,88
1,10,9,-6,-5,10,-3,7,22,24,19,78
1,9,8,-5,-5,9,-3,6,19,19,16,73
0,8,8,-4,-5,8,-3,5,16,15,13,72
0,7,7,-3,-5,7,-3,4,13,11,10,74
0,6,6,-2,-4,6,-3,2,10,7,7,73
0,4,5,-1,-4,5,-3,1,8,4,4,67
-1,3,4,0,-4,4,-3,0,6,2,2,65
-1,1,3,0,-4,3,-2,0,4,0,0,64
-1,0,2,0,-3,2,-2,0,2,-2,-1,59
-2,-1,1,1,-3,1,-2,-1,1,-4,-3,53
-3,-2,1,2,-4,0,-2,-2,-1,-7,-4,46
-4,-2,1,3,-4,0,-2,-3,-2,-8,-5,39
-4,-3,1,3,-4,0,-2,-3,-3,-9,-6,32
-4,-3,0,3,-4,0,-2,-3,-4,-10,-7,25
-4,-3,0,3,-4,-1,-2,-3,-4,-11,-8,14
-4,-4,0,4,-4,-1,-2,-3,-5,-11,-9,3
-4,-4,0,4,-4,-1,-2,-3,-5,-12,-9,-4
-4,-4,0,4,-4,-1,-1,-3,-5,-13,-10,-8
-4,-4,0,4,-4,-1,-1,-3,-6,-14,-10,-12
-4,-4,0,4,-3,-1,-1,-3,-6,-14,-10,-12
-4,-4,0,4,-3,-1,-1,-4,-7,-15,-10,-7
-4,-4,0,4,-3,-1,-1,-4,-7,-15,-10,-2
-4,-4,0,4,-3,-2,-1,-4,-7,-15,-11,0
-4,-5,0,5,-3,-2,-1,-4,-7,-15,-11,3
-5,-5,0,5,-3,-2,-1,-4,-8,-16,-12,10
-6,-6,0,6,-3,-3,-1,-5,-8,-16,-12,17
-6,-7,0,6,-4,-3,-1,-5,-9,-17,-12,19
-6,-7,0,6,-4,-3,-1,-6,-9,-17,-12,22
-6,-7,-1,6,-4,-3,-1,-6,-9,-17,-12,28
-6,-7,-1,6,-4,-3,-1,-6,-9,-17,-12,31
-6,-7,-1,6,-4,-3,-1,-6,-9,-17,-13,32
-6,-7,-1,6,-4,-3,-1,-6,-9,-17,-13,34
-5,-7,-1,6,-3,-3,-1,-6,-9,-17,-13,36
-5,-6,-1,5,-3,-3,-1,-6,-9,-17,-13,32
-4,-6,-1,5,-3,-3,-1,-6,-9,-17,-13,27
-4,-6,-1,5,-3,-3,-1,-6,-9,-18,-13,25
-4,-6,-1,5,-3,-3,-1,-6,-9,-18,-13,23
-5,-7,-1,6,-3,-3,-1,-6,-9,-18,-13,23
-5,-7,-1,6,-3,-3,-1,-6,-10,-18,-13,26
-6,-8,-1,7,-3,-3,-1,-6,-10,-18,-13,32
-6,-8,-1,7,-3,-3,-1,-7,-10,-19,-14,35
-6,-7,-1,7,-3,-3,-1,-7,-10,-19,-14,31
-6,-7,-1,7,-3,-3,-1,-7,-10,-19,-14,26
-6,-7,-2,7,-3,-4,-1,-7,-10,-19,-14,24
-6,-7,-2,7,-3,-4,-1,-7,-10,-19,-14,23
-6,-8,-2,7,-4,-4,-1,-7,-10,-19,-14,24
-6,-8,-2,7,-4,-4,-1,-7,-10,-19,-14,26
-6,-8,-2,7,-4,-4,-1,-7,-9,-19,-14,22
-6,-8,-2,7,-4,-4,-1,-7,-9,-19,-15,18
-6,-8,-2,7,-4,-4,-1,-7,-9,-19,-15,16
-6,-8,-2,7,-4,-4,-1,-7,-9,-19,-15,15
-6,-8,-1,7,-4,-4,-1,-6,-8,-18,-15,15
-6,-7,-1,7,-4,-3,-1,-6,-8,-18,-15,19
-6,-7,-1,7,-4,-3,-1,-6,-8,-18,-15,23
-6,-8,-1,7,-4,-3,-1,-6,-8,-18,-15,27
-6,-8,-1,7,-4,-3,-1,-6,-8,-18,-15,36
-6,-8,-1,7,-4,-3,0,-5,-8,-18,-15,47
-6,-8,-1,7,-4,-3,0,-5,-8,-17,-15,54
-6,-8,-1,7,-4,-3,0,-5,-8,-17,-15,58
-6,-7,-1,7,-4,-3,0,-5,-8,-17,-15,60
-6,-7,-1,7,-4,-3,0,-5,-7,-17,-15,61
-6,-7,-1,7,-4,-3,0,-5,-7,-17,-15,73
-6,-7,-1,7,-4,-3,0,-5,-7,-17,-15,92
-6,-8,-1,7,-4,-3,0,-5,-7,-17,-15,102
-6,-8,-1,7,-3,-4,0,-5,-6,-16,-15,101
-6,-8,-1,7,-3,-4,0,-5,-5,-16,-14,93
-7,-8,-1,7,-4,-4,0,-4,-5,-15,-14,83
-7,-8,-1,7,-4,-4,0,-4,-5,-15,-14,78
-6,-9,-2,7,-3,-5,0,-4,-5,-15,-14,82
-6,-9,-2,7,-3,-5,0,-4,-5,-15,-14,93
-6,-8,-2,7,-3,-4,0,-4,-5,-15,-14,98
-6,-8,-2,7,-3,-4,0,-4,-4,-14,-14,88
-6,-8,-2,7,-3,-4,0,-4,-4,-14,-14,75
-6,-8,-2,7,-3,-4,0,-4,-4,-13,-14,70
-6,-8,-2,7,-3,-4,0,-4,-4,-13,-14,70
-6,-8,-2,7,-3,-4,0,-4,-4,-13,-13,71
-6,-8,-2,7,-3,-4,0,-3,-4,-13,-13,71
-6,-8,-2,7,-3,-4,0,-3,-4,-13,-13,70
-6,-8,-2,7,-3,-4,0,-3,-3,-12,-13,74
-6,-8,-2,7,-3,-4,0,-3,-3,-12,-12,80
-5,-8,-2,7,-3,-3,0,-3,-3,-12,-12,78
-5,-8,-2,7,-3,-3,0,-3,-3,-12,-12,75
-5,-8,-2,7,-3,-3,0,-2,-3,-12,-12,76
-5,-8,-2,7,-3,-3,0,-2,-2,-11,-12,78
-5,-8,-2,7,-3,-3,0,-2,-2,-11,-12,82
-5,-8,-2,7,-3,-4,0,-2,-2,-11,-12,89
-5,-8,-2,7,-2,-4,0,-2,-2,-11,-12,92
-5,-8,-2,7,-2,-4,0,-2,-2,-11,-12,88
-6,-8,-2,7,-2,-4,0,-2,-2,-11,-12,86
-6,-9,-2,8,-2,-4,0,-2,-2,-11,-12,90
-6,-9,-2,8,-2,-4,0,-2,-2,-11,-12,91
-6,-9,-2,8,-3,-4,0,-2,-2,-11,-12,92
-6,-9,-2,7,-3,-4,0,-2,-2,-10,-12,96
-5,-8,-2,7,-2,-4,0,-2,-2,-10,-12,96
-5,-8,-2,7,-2,-5,0,-2,-2,-10,-12,90
-5,-8,-3,7,-2,-5,0,-2,-2,-10,-12,86
-5,-8,-3,7,-2,-5,0,-2,-2,-10,-12,81
-5,-8,-3,7,-2,-5,0,-2,-2,-10,-12,77
-5,-8,-2,7,-2,-5,0,-2,-2,-10,-11,77
-5,-8,-2,6,-2,-5,0,-2,-2,-10,-11,76
-5,-8,-3,6,-2,-5,-1,-2,-2,-10,-11,76
-5,-8,-3,7,-2,-5,-1,-2,-2,-11,-11,76
-5,-8,-2,7,-2,-5,-1,-2,-2,-11,-11,72
-5,-8,-2,7,-2,-4,-1,-2,-2,-10,-11,67
-5,-8,-2,6,-1,-4,-1,-2,-2,-10,-11,67
-5,-8,-2,6,-1,-4,-1,-2,-2,-10,-11,67
-5,-8,-2,6,-2,-4,-1,-2,-2,-10,-11,63
-5,-7,-2,6,-2,-4,-1,-2,-2,-10,-11,57
-5,-7,-2,6,-2,-4,-1,-2,-2,-10,-11,53
-5,-6,-2,5,-2,-3,-1,-2,-2,-10,-11,51
-5,-5,-1,5,-2,-3,-1,-2,-2,-10,-10,50
-5,-5,0,5,-3,-2,-1,-2,-1,-10,-10,51
-5,-5,0,5,-3,-2,-1,-2,-1,-10,-10,48
-5,-5,1,5,-3,-1,-1,-2,-1,-9,-10,38
-5,-4,1,5,-3,-1,-1,-2,0,-9,-10,27
-5,-4,2,5,-3,0,-1,-2,0,-9,-10,24
-6,-4,2,5,-4,0,-1,-2,0,-9,-10,26
-6,-4,3,5,-4,0,0,-2,1,-9,-10,31
-6,-3,3,5,-5,1,0,-2,1,-8,-10,39
-6,-3,3,5,-5,1,0,-2,2,-8,-9,47
-6,-2,3,4,-5,1,1,-2,2,-8,-9,46
-5,-2,3,4,-5,2,1,-2,3,-8,-9,41
-5,-1,3,4,-5,2,1,-2,3,-8,-9,35
-5,-1,3,3,-4,2,0,-2,3,-7,-8,26
-4,-1,3,3,-4,2,0,-2,3,-7,-8,19
-4,-1,3,3,-4,2,-1,-2,3,-7,-8,17
-3,-1,3,2,-3,2,-3,-2,3,-7,-7,19
-3,-1,2,2,-3,1,-5,-3,2,-7,-7,23
-3,-1,2,2,-3,1,-7,-5,1,-7,-7,29
-3,-1,2,2,-2,1,-8,-6,0,-7,-7,33
-3,-2,0,2,-1,0,-9,-7,-1,-8,-8,32
-2,-3,-2,2,0,-2,-10,-8,-3,-9,-8,31
-1,-4,-3,3,0,-3,-11,-8,-4,-10,-9,35
-1,-4,-3,3,0,-3,-12,-8,-5,-11,-9,37
-1,-4,-3,2,0,-3,-13,-9,-5,-11,-9,33
0,-3,-3,2,0,-3,-13,-9,-5,-11,-9,28
0,-2,-3,2,1,-3,-14,-10,-6,-11,-9,27
1,-1,-3,1,1,-2,-14,-10,-6,-11,-9,29
2,-1,-3,0,2,-2,-14,-10,-7,-11,-9,31
2,-1,-3,0,2,-2,-14,-10,-7,-11,-9,33
3,-1,-4,0,3,-2,-14,-10,-8,-11,-9,32
3,-1,-4,-1,3,-2,-13,-10,-8,-12,-9,33
3,-1,-5,-1,4,-3,-13,-10,-9,-12,-9,37
2,-2,-5,0,4,-3,-13,-10,-9,-13,-10,38
2,-3,-6,0,4,-4,-13,-10,-9,-13,-10,36
3,-3,-6,0,4,-4,-12,-10,-9,-14,-10,32
3,-3,-6,0,4,-4,-12,-10,-9,-14,-10,28
2,-3,-5,0,4,-4,-11,-10,-9,-14,-10,24
1,-3,-5,1,3,-4,-10,-9,-9,-14,-10,23
1,-3,-4,1,3,-3,-9,-8,-8,-13,-10,22
0,-3,-4,1,2,-3,-8,-7,-7,-12,-9,20
0,-3,-4,1,2,-3,-7,-6,-6,-11,-9,21
0,-3,-3,1,1,-3,-6,-5,-6,-11,-9,20
-1,-4,-2,2,0,-3,-5,-5,-5,-10,-9,18
-2,-4,-2,3,0,-3,-5,-5,-5,-10,-9,16
-3,-4,-2,4,-1,-3,-4,-5,-5,-11,-9,14
-4,-5,-2,4,-1,-3,-4,-4,-5,-11,-9,11
-5,-6,-2,5,-1,-3,-3,-4,-6,-12,-10,16
-5,-7,-2,6,-1,-4,-3,-4,-6,-13,-11,24
-6,-8,-2,7,-1,-4,-2,-4,-7,-14,-12,30
-6,-9,-2,8,-2,-5,-2,-4,-7,-14,-12,30
-7,-9,-2,9,-2,-5,-1,-4,-7,-14,-13,28
-7,-10,-2,9,-2,-6,-1,-4,-7,-14,-13,28
-7,-10,-3,9,-2,-6,-1,-4,-7,-14,-13,31
-7,-10,-3,9,-2,-7,-1,-4,-7,-15,-13,34
-7,-10,-4,9,-2,-7,0,-4,-7,-15,-14,40
-8,-11,-4,9,-2,-7,0,-4,-7,-15,-14,45
-8,-11,-4,10,-2,-7,0,-4,-7,-15,-14,42
-8,-11,-4,10,-2,-7,0,-4,-7,-15,-14,37
-8,-11,-4,10,-2,-7,0,-4,-7,-15,-14,36
-8,-11,-4,10,-2,-7,0,-4,-7,-15,-14,36
-8,-11,-4,10,-2,-7,0,-3,-7,-15,-14,38
-8,-11,-3,9,-2,-7,0,-3,-7,-15,-14,38
-8,-11,-3,9,-2,-7,0,-3,-7,-15,-14,37
-8,-11,-3,9,-2,-7,0,-3,-7,-15,-14,37
-7,-11,-3,9,-2,-7,0,-3,-7,-15,-14,34
-7,-11,-3,9,-2,-7,0,-3,-7,-15,-14,31
-7,-11,-3,9,-2,-7,0,-3,-8,-15,-14,32
-7,-11,-3,9,-2,-7,0,-3,-8,-15,-14,32
-7,-11,-3,9,-2,-7,0,-3,-8,-15,-14,29
-8,-11,-3,9,-2,-7,0,-3,-8,-15,-14,28
-8,-11,-3,9,-2,-7,0,-3,-7,-15,-14,28
-7,-11,-3,9,-1,-7,0,-3,-7,-15,-14,24
-7,-11,-3,9,-1,-7,0,-3,-7,-15,-14,14
-7,-11,-3,9,-1,-7,0,-3,-7,-15,-14,6
-8,-11,-3,10,-2,-7,0,-3,-7,-15,-14,2
-7,-11,-3,10,-2,-7,0,-3,-7,-15,-14,1
-7,-10,-3,9,-1,-7,0,-3,-7,-14,-13,0
-7,-10,-3,9,-1,-7,0,-3,-7,-14,-13,1
-7,-10,-3,9,-2,-7,0,-3,-7,-14,-13,4
-7,-11,-4,9,-1,-8,1,-2,-7,-14,-14,5
-7,-12,-5,9,0,-8,1,-1,-6,-14,-15,2
-7,-12,-5,9,0,-9,2,0,-4,-13,-15,-1
-7,-12,-5,9,0,-9,2,2,-2,-10,-14,-2
-5,-12,-6,8,1,-9,2,3,0,-7,-12,-2
-4,-11,-7,7,2,-9,1,2,4,-2,-9,-1
-3,-9,-6,6,2,-8,0,1,9,4,-5,2
-2,-7,-5,4,1,-6,-2,0,15,11,0,9
0,-4,-4,2,2,-4,-5,-2,18,19,7,18
2,0,-4,-1,3,-2,-8,-5,16,25,16,26
6,3,-3,-5,4,0,-12,-9,9,29,27,34
10,8,-3,-9,6,2,-18,-16,-4,29,38,43
15,12,-3,-14,8,5,-25,-25,-21,26,50,53
21,19,-2,-20,11,8,-33,-35,-40,21,62,63
28,27,0,-27,14,13,-42,-46,-61,13,75,76
34,35,2,-34,15,18,-50,-59,-84,2,88,89
39,44,4,-42,17,24,-58,-70,-106,-8,102,103
45,52,6,-49,19,29,-65,-78,-125,-17,116,120
51,57,6,-54,22,32,-69,-83,-142,-25,128,137
56,59,3,-58,26,31,-72,-86,-158,-33,134,152
60,58,-1,-59,30,29,-75,-90,-174,-46,130,158
61,54,-6,-58,34,24,-77,-97,-192,-64,115,156
61,48,-12,-54,36,18,-81,-105,-210,-85,92,153
58,42,-15,-50,37,13,-86,-115,-225,-107,67,151
53,37,-15,-46,34,11,-90,-125,-235,-129,41,144
46,34,-12,-40,29,11,-92,-135,-239,-149,13,131
38,31,-7,-35,22,12,-91,-141,-238,-168,-14,111
30,28,-2,-30,16,13,-88,-142,-231,-181,-39,88
23,26,3,-24,9,15,-83,-140,-219,-187,-58,67
15,24,8,-19,3,16,-77,-135,-205,-185,-69,51
8,21,13,-14,-2,17,-70,-127,-190,-178,-74,36
1,19,19,-10,-8,19,-63,-119,-173,-167,-75,23
-4,18,23,-7,-13,20,-56,-109,-154,-152,-73,11
-7,15,23,-4,-15,18,-47,-96,-133,-134,-68,0
-9,10,20,-1,-15,15,-37,-80,-110,-115,-61,-6
-10,5,15,2,-13,10,-27,-63,-88,-95,-53,-7
-11,0,12,5,-12,6,-19,-48,-69,-77,-45,-6
-12,-3,9,7,-11,3,-12,-36,-52,-62,-38,-4
-11,-5,6,8,-9,1,-6,-25,-38,-49,-32,-5
-9,-5,4,8,-6,0,-1,-16,-27,-37,-26,-3
-7,-6,2,7,-4,-2,1,-10,-18,-28,-22,2
-7,-8,0,8,-3,-3,3,-5,-11,-22,-19,6
-7,-9,-1,8,-2,-4,5,-1,-5,-17,-17,8
-7,-9,-2,8,-2,-5,6,1,-1,-14,-15,9
-7,-9,-2,8,-2,-5,7,2,1,-11,-14,8
-6,-9,-3,7,-2,-5,8,4,4,-9,-13,9
-6,-8,-3,7,-1,-5,9,5,5,-7,-12,11
-6,-9,-2,7,-1,-5,9,6,7,-6,-12,14
-6,-9,-2,7,-1,-5,10,7,8,-5,-12,18
-6,-9,-3,7,0,-5,11,8,9,-4,-12,19
-5,-9,-3,7,0,-6,11,9,10,-3,-12,19
-5,-9,-3,6,0,-6,12,10,10,-2,-12,20
-4,-8,-3,5,0,-5,12,10,11,-1,-12,23
-3,-6,-3,4,0,-5,12,11,12,0,-11,25
-2,-6,-3,3,0,-4,12,11,13,0,-11,27
-2,-6,-4,3,1,-4,12,12,14,0,-11,28
-2,-6,-4,3,1,-4,12,12,14,0,-11,26
-2,-6,-3,4,1,-4,12,12,14,0,-11,21
-2,-7,-3,4,1,-5,12,12,14,0,-11,18
-2,-7,-3,4,1,-5,12,12,14,0,-11,18
-2,-7,-3,4,1,-5,12,12,14,0,-11,18
-2,-6,-3,4,1,-5,12,12,15,1,-11,17
-2,-6,-3,3,1,-4,12,12,15,1,-11,17
-2,-5,-3,3,1,-4,12,12,15,1,-11,16
-2,-5,-2,4,0,-4,12,12,15,1,-11,15
-3,-6,-2,4,0,-4,12,13,15,2,-10,14
-3,-5,-2,4,0,-3,12,13,16,2,-10,12
-1,-5,-2,3,1,-3,12,13,16,2,-10,11
-1,-5,-3,2,1,-3,12,13,16,2,-10,9
-1,-5,-3,3,1,-3,12,13,16,2,-10,8
-2,-6,-3,3,0,-3,12,13,16,2,-10,6
-2,-5,-3,3,0,-3,12,13,16,2,-10,5
-1,-4,-3,3,1,-3,12,13,16,3,-10,5
-1,-4,-3,2,1,-3,12,13,16,3,-10,6
-1,-4,-2,2,1,-3,12,12,16,3,-10,7
0,-4,-2,2,1,-3,12,13,16,4,-9,12
0,-2,-2,1,1,-2,12,14,16,4,-8,18
2,-1,-2,0,2,-1,13,14,17,5,-8,23
2,0,-1,-1,2,0,13,14,18,6,-8,25
1,0,-1,0,1,0,13,14,18,6,-8,23
1,0,-1,0,1,-1,13,14,18,6,-8,21
2,0,-1,-1,2,-1,13,14,18,6,-8,19
2,0,-1,-1,2,-1,13,14,18,6,-8,17
1,-1,-1,0,2,-1,13,14,18,6,-8,13
1,-1,-1,0,2,-1,13,14,18,7,-7,8
2,0,-1,-1,2,-1,13,14,19,7,-7,6
2,0,-1,-1,1,-1,13,14,19,7,-7,4
1,0,-1,0,1,-1,12,14,19,7,-7,3
1,0,-1,0,1,-1,12,14,19,7,-7,0
2,0,-1,-1,1,-1,12,14,19,8,-7,-7
2,0,-1,-1,2,-1,12,15,20,8,-6,-15
3,0,-1,-1,2,-1,12,15,20,9,-6,-17
3,0,-1,-2,2,0,12,15,20,9,-6,-13
3,1,-1,-2,2,0,12,15,20,10,-6,-9
3,2,-1,-3,2,1,12,15,21,10,-5,-9
4,2,-1,-3,2,1,12,16,22,11,-5,-11
4,3,-1,-4,3,1,13,16,23,11,-4,-10
5,4,-1,-4,3,1,13,17,23,12,-4,-7
4,3,-1,-4,3,1,13,17,23,12,-4,-6
4,3,-1,-4,3,1,13,17,23,12,-4,-5
5,4,-1,-4,3,1,13,18,24,13,-3,-3
5,4,-1,-5,3,1,13,18,24,13,-3,-1
5,3,-1,-4,3,1,13,18,25,14,-3,0
5,3,-1,-4,3,1,13,18,25,14,-3,-1
5,4,-1,-5,3,1,13,18,26,15,-2,-2
6,4,-1,-5,3,1,14,18,26,15,-2,-1
6,4,-1,-5,3,1,13,18,27,16,-2,1
5,3,-1,-4,3,1,13,18,27,16,-2,2
4,3,0,-4,2,1,14,19,27,17,-1,2
5,4,0,-5,3,2,14,19,28,19,0,0
6,6,0,-6,3,3,14,20,29,20,0,-4
6,6,0,-6,3,3,14,20,30,20,0,-9
6,5,0,-5,3,2,14,20,30,20,1,-11
5,4,0,-4,2,2,14,21,30,21,1,-10
5,4,0,-5,2,2,14,21,31,22,1,-9
6,5,0,-6,3,2,14,22,32,23,2,-9
7,6,0,-7,3,3,14,22,33,25,3,-8
8,7,0,-7,3,3,14,23,34,26,3,-5
8,7,0,-7,3,3,14,23,35,27,4,-3
8,6,0,-6,3,2,14,23,35,28,4,-1
7,5,0,-5,2,2,14,23,36,28,4,0
7,5,0,-5,2,2,14,24,37,29,5,0
8,6,0,-7,3,2,15,25,38,31,7,1
9,7,0,-8,4,3,15,26,40,33,8,1
9,8,0,-9,4,4,15,27,42,35,9,3
9,8,0,-9,4,4,14,27,43,37,10,6
9,8,0,-9,4,4,14,28,44,39,10,9
8,8,0,-9,4,4,14,29,45,41,11,11
8,8,0,-8,3,4,15,30,46,43,12,13
8,8,0,-9,3,4,15,31,48,45,14,15
10,9,0,-10,5,4,15,32,50,47,16,17
12,10,-1,-12,7,4,15,34,53,50,18,19
14,11,-1,-13,7,5,15,35,55,53,19,21
14,12,-1,-13,7,5,15,36,57,56,21,24
14,12,-1,-13,7,5,14,36,59,59,22,28
13,12,-1,-13,6,5,14,37,61,62,24,31
13,13,-1,-13,7,5,14,38,63,65,26,32
14,13,0,-14,7,6,15,40,65,69,28,32
15,14,0,-15,8,6,15,42,68,73,31,33
15,15,0,-15,8,7,15,44,71,77,33,34
16,15,0,-15,8,7,15,45,74,81,36,35
16,16,0,-16,8,7,15,47,76,85,38,36
16,16,0,-17,8,8,15,48,78,89,41,37
17,17,0,-17,8,8,15,49,81,93,43,37
17,18,0,-18,8,9,15,50,83,96,46,38
18,19,0,-19,8,9,15,52,85,100,49,40
19,20,1,-20,8,10,14,53,88,103,52,43
20,21,1,-21,8,11,14,54,90,107,54,47
20,22,2,-21,8,11,13,55,92,110,57,48
20,22,2,-22,8,12,13,56,93,113,59,48
21,23,3,-23,8,13,13,56,95,115,61,49
21,24,3,-23,8,14,12,56,96,117,62,48
22,26,4,-24,8,15,12,56,96,118,64,42
23,27,4,-25,8,16,12,56,97,119,65,38
23,28,5,-26,8,16,11,56,97,119,67,37
23,28,5,-26,8,17,11,56,97,119,68,36
24,29,6,-26,8,17,10,55,96,119,69,36
25,30,6,-28,8,18,10,54,96,118,69,41
25,31,7,-28,8,19,9,53,94,116,69,48
25,31,7,-28,7,19,9,50,92,113,68,57
24,32,7,-28,7,19,8,48,88,109,67,64
24,32,8,-28,7,20,7,46,85,105,65,69
25,33,8,-29,7,20,6,44,81,100,63,70
25,33,9,-29,7,21,5,41,78,95,61,70
24,33,9,-29,7,21,5,39,74,90,58,70
24,33,10,-28,7,21,4,36,70,85,56,71
23,32,10,-28,6,21,4,34,66,80,53,72
23,32,9,-28,6,21,3,31,61,74,50,71
23,32,9,-27,6,20,2,27,56,67,46,70
23,31,9,-27,6,19,2,24,51,61,42,69
23,31,8,-27,6,19,2,22,46,55,39,67
22,29,7,-26,7,18,1,20,42,49,35,65
21,27,6,-24,7,17,1,18,38,44,31,63
20,25,6,-23,7,15,0,15,34,38,28,61
20,24,5,-22,7,14,0,13,30,33,24,59
20,23,4,-21,7,13,0,11,26,29,21,57
19,22,3,-21,7,12,0,9,22,24,18,57
19,21,3,-20,7,12,0,8,19,19,15,57
18,20,2,-20,7,11,0,7,16,15,12,55
18,19,1,-19,8,10,0,6,13,12,9,53
17,17,1,-18,8,9,0,5,11,9,7,52
17,16,0,-17,8,8,0,4,10,7,5,50
16,14,-1,-15,8,6,0,3,8,5,3,48
15,13,-1,-14,8,5,0,3,7,3,1,45
14,13,-1,-14,8,5,1,2,5,1,0,43
13,12,-1,-13,7,5,1,2,4,0,-1,41
13,12,-1,-13,7,5,1,1,2,-3,-3,40
13,11,-2,-13,8,4,1,1,0,-5,-4,38
13,10,-3,-12,8,3,2,0,0,-6,-5,33
13,10,-3,-12,8,3,2,0,-1,-7,-6,28
13,9,-4,-11,8,2,2,0,-1,-7,-6,26
13,9,-4,-11,8,2,2,0,-2,-8,-7,25
13,8,-5,-11,9,1,2,-1,-2,-9,-7,24
13,8,-4,-11,9,2,2,-1,-3,-9,-8,23
13,8,-4,-11,8,2,2,-1,-3,-10,-8,23
12,8,-4,-11,8,2,2,-1,-3,-11,-9,23
12,8,-4,-10,7,2,2,-1,-3,-11,-9,23
12,7,-4,-10,7,2,2,-1,-4,-11,-9,24
11,7,-4,-9,7,1,2,-1,-4,-11,-9,24
11,7,-4,-9,7,1,2,-1,-4,-11,-9,24
11,7,-4,-9,7,1,2,-1,-5,-11,-9,24
11,7,-4,-9,7,1,1,-1,-5,-12,-9,25
11,6,-4,-9,7,1,1,-2,-5,-12,-9,27
11,6,-4,-9,7,1,1,-2,-5,-12,-9,29
11,7,-4,-9,7,1,1,-2,-5,-12,-9,30
11,7,-4,-9,8,1,2,-2,-5,-12,-9,30
12,8,-4,-10,8,1,2,-2,-5,-12,-9,30
12,8,-4,-10,8,1,2,-2,-5,-12,-9,28
11,7,-4,-9,8,1,2,-2,-6,-13,-10,26
11,6,-4,-9,8,1,1,-3,-6,-13,-10,25
11,6,-4,-9,8,0,1,-3,-6,-13,-10,24
11,5,-5,-8,8,0,1,-3,-6,-13,-10,23
10,5,-5,-8,8,0,1,-3,-6,-13,-11,22
10,5,-5,-8,8,0,1,-3,-6,-13,-11,21
10,5,-4,-8,7,0,1,-3,-6,-13,-11,20
10,5,-4,-7,7,0,1,-3,-6,-13,-11,19
9,5,-4,-7,6,0,1,-3,-6,-13,-11,19
10,6,-4,-8,7,1,2,-3,-6,-13,-11,19
11,7,-4,-9,7,1,2,-2,-5,-13,-10,19
12,8,-4,-10,7,1,2,-2,-5,-13,-10,18
12,8,-4,-10,7,2,2,-2,-5,-13,-10,16
12,8,-4,-10,7,2,3,-2,-5,-13,-10,16
11,7,-4,-9,7,1,3,-2,-5,-13,-10,15
10,6,-4,-8,7,1,3,-2,-5,-13,-11,13
9,5,-4,-7,6,0,2,-2,-5,-13,-11,12
8,5,-4,-7,6,0,2,-2,-5,-13,-11,11
9,5,-4,-7,6,0,2,-2,-5,-13,-11,10
9,6,-4,-7,7,0,2,-2,-4,-13,-11,9
9,5,-4,-7,7,0,2,-2,-4,-13,-11,7
8,4,-4,-6,6,0,2,-2,-4,-13,-12,5
7,3,-4,-6,5,0,2,-2,-4,-13,-12,6
8,4,-4,-6,6,0,2,-2,-4,-13,-12,10
9,5,-4,-7,6,0,3,-1,-3,-12,-11,14
9,4,-4,-7,6,0,3,-1,-3,-12,-11,15
9,4,-4,-6,6,0,3,-1,-3,-12,-11,15
9,4,-4,-6,6,0,3,-1,-3,-12,-12,17
9,4,-4,-7,6,0,3,-1,-3,-12,-12,21
9,4,-3,-7,6,0,3,-1,-3,-12,-12,24
8,4,-3,-7,5,0,3,-1,-3,-12,-12,24
8,4,-3,-7,5,0,3,0,-2,-11,-11,23
8,4,-3,-7,6,0,3,0,-2,-11,-11,20
8,4,-4,-7,6,0,3,0,-2,-11,-11,18
7,4,-3,-6,6,0,3,0,-1,-11,-11,17
6,3,-2,-5,5,0,3,0,-1,-11,-11,17
6,3,-2,-5,5,0,3,0,-1,-11,-11,18
7,3,-4,-6,6,0,3,0,-1,-11,-11,17
8,4,-5,-7,6,0,3,0,-1,-10,-11,15
9,5,-4,-7,6,0,4,0,0,-10,-11,13
9,5,-4,-7,6,0,4,1,0,-10,-11,11
9,5,-4,-7,6,0,4,1,0,-9,-11,11
9,5,-4,-7,6,0,4,1,0,-9,-11,11
9,5,-4,-7,6,0,4,1,0,-9,-11,11
8,5,-4,-7,6,0,4,1,0,-9,-11,10
8,5,-3,-7,6,0,4,1,0,-8,-11,11
8,5,-3,-7,6,0,4,1,0,-8,-10,11
8,5,-3,-7,6,0,4,1,0,-8,-10,11
8,4,-3,-6,6,0,4,1,0,-8,-10,11
7,4,-3,-6,6,0,4,1,0,-8,-10,10
7,4,-3,-6,6,0,4,1,1,-8,-10,11
7,4,-3,-6,5,0,4,1,1,-7,-10,12
7,4,-3,-5,5,0,4,1,1,-7,-10,15
7,4,-3,-5,5,0,4,1,1,-7,-10,17
7,4,-3,-5,5,0,4,1,1,-7,-9,19
7,4,-3,-6,5,0,4,2,2,-6,-9,20
7,4,-3,-5,5,0,4,2,2,-6,-9,21
6,4,-3,-5,4,0,4,2,2,-6,-9,21
7,4,-3,-5,5,0,4,2,2,-6,-9,21
8,5,-3,-6,6,0,5,2,2,-6,-8,21
8,5,-3,-7,6,0,5,2,2,-6,-8,21
8,4,-3,-6,6,0,5,2,2,-6,-8,21
7,4,-3,-6,5,0,5,2,2,-6,-8,21
6,3,-3,-5,5,-1,4,2,2,-6,-8,21
6,3,-3,-4,5,-1,4,2,2,-6,-8,20
6,2,-3,-4,5,-1,4,1,2,-6,-8,18
6,2,-3,-4,5,-1,4,1,1,-7,-8,17
6,2,-3,-4,5,-1,4,1,1,-7,-8,16
6,2,-3,-4,5,-1,4,1,1,-7,-8,15
7,3,-3,-5,5,-1,4,1,1,-7,-8,15
7,3,-3,-5,5,-1,4,1,1,-7,-8,14
7,3,-3,-5,5,-1,4,1,1,-7,-8,14
7,3,-3,-5,5,-1,4,1,1,-7,-8,15
6,3,-3,-5,5,-1,4,1,1,-7,-8,15
6,3,-3,-5,5,-1,4,1,1,-7,-8,16
7,3,-3,-5,5,0,4,1,1,-6,-8,19
7,4,-3,-6,5,0,3,1,1,-6,-8,22
7,4,-2,-6,4,0,3,0,1,-6,-8,23
7,4,-2,-6,4,0,3,0,1,-6,-8,22
7,5,-2,-6,4,1,3,0,1,-6,-8,20
8,6,-2,-7,4,2,3,1,2,-5,-7,20
9,8,-1,-8,5,3,3,1,3,-5,-7,20
9,9,0,-9,5,4,3,1,3,-5,-6,19
9,10,0,-10,5,5,3,1,4,-5,-6,18
9,10,1,-10,5,5,4,1,4,-5,-6,16
8,10,1,-9,4,5,4,1,5,-5,-6,16
7,9,2,-8,3,5,4,1,5,-5,-6,18
7,9,2,-8,2,5,5,1,5,-4,-6,21
7,10,2,-8,2,6,5,1,6,-4,-6,22
7,10,2,-8,2,6,5,2,7,-3,-5,23
7,10,2,-9,2,6,5,2,7,-3,-5,23
7,10,2,-9,2,6,5,2,7,-3,-5,22
8,11,3,-10,3,6,5,1,7,-3,-4,22
8,11,3,-10,3,6,4,1,7,-3,-4,21
8,11,3,-10,3,6,3,1,7,-3,-4,19
8,11,3,-10,3,6,1,0,7,-3,-4,19
9,11,2,-10,4,6,-1,-1,6,-3,-4,19
11,11,0,-11,5,5,-3,-2,4,-3,-4,19
11,10,0,-11,6,4,-5,-3,3,-4,-5,19
9,8,-1,-9,6,3,-6,-4,1,-5,-5,19
9,6,-2,-8,6,2,-6,-5,0,-6,-6,20
9,6,-2,-7,6,1,-7,-5,-1,-6,-6,21
10,6,-3,-8,6,1,-8,-6,-2,-7,-6,22
12,8,-3,-10,7,2,-9,-6,-2,-7,-6,23
13,9,-3,-11,8,2,-10,-7,-2,-7,-6,24
13,10,-3,-12,8,3,-10,-7,-3,-7,-6,25
14,11,-3,-13,9,3,-10,-7,-3,-7,-5,27
16,12,-4,-14,10,3,-10,-7,-3,-7,-5,28
17,12,-4,-14,11,3,-10,-7,-4,-7,-5,28
17,12,-5,-14,11,3,-10,-7,-4,-8,-5,28
17,11,-5,-14,11,2,-9,-7,-4,-8,-5,29
17,10,-6,-14,11,2,-9,-7,-4,-9,-5,29
16,10,-6,-14,11,1,-9,-7,-5,-9,-6,29
16,10,-6,-13,11,1,-8,-8,-5,-10,-7,29
15,9,-6,-12,11,1,-8,-8,-6,-10,-8,29
14,9,-6,-11,10,1,-7,-8,-6,-10,-8,29
14,8,-5,-11,10,1,-7,-8,-5,-10,-8,29
13,8,-5,-11,9,1,-6,-7,-5,-10,-7,29
13,8,-4,-11,9,1,-5,-6,-4,-9,-6,27
12,8,-4,-11,8,1,-4,-5,-3,-8,-6,25
11,8,-3,-10,7,1,-3,-3,-2,-8,-6,23
10,7,-3,-9,6,2,-2,-2,-2,-7,-6,19
9,7,-2,-9,5,2,-1,-2,-1,-7,-6,16
9,7,-2,-8,5,2,-1,-2,-1,-7,-6,15
8,7,-1,-8,5,2,0,-2,-1,-7,-6,15
8,6,-1,-7,5,2,1,-2,-1,-8,-6,14
7,5,-1,-6,4,1,1,-2,-1,-9,-7,13
6,3,-1,-5,4,1,2,-2,-2,-9,-8,13
5,2,-1,-4,4,0,2,-2,-2,-10,-9,16
4,1,-2,-3,4,0,2,-2,-2,-10,-10,18
4,1,-2,-3,4,-1,3,-2,-2,-10,-10,17
4,1,-3,-3,4,-1,3,-2,-3,-10,-10,16
3,0,-3,-2,3,-2,3,-2,-3,-10,-10,16
2,0,-3,-1,3,-2,3,-2,-4,-11,-10,17
2,0,-3,-1,3,-2,3,-2,-4,-11,-11,18
2,-1,-3,0,3,-2,3,-2,-4,-11,-11,19
1,-2,-3,0,3,-3,3,-2,-4,-12,-11,19
1,-2,-3,0,3,-3,3,-2,-4,-12,-11,19
3,-1,-3,-1,4,-2,4,-1,-3,-11,-11,19
4,1,-3,-3,4,-1,4,-1,-3,-11,-11,19
4,2,-3,-3,4,-1,4,0,-3,-11,-11,18
3,1,-3,-2,3,-1,4,0,-3,-11,-11,16
2,0,-3,-1,3,-2,4,-1,-4,-11,-11,14
2,-1,-3,0,3,-2,4,-1,-4,-11,-11,14
1,-2,-3,0,3,-3,4,-1,-4,-12,-11,14
0,-3,-3,1,2,-3,3,-1,-4,-12,-12,15
0,-3,-3,1,2,-3,3,-2,-4,-13,-12,14
1,-3,-3,1,2,-3,3,-2,-4,-13,-12,13
1,-2,-3,0,2,-3,3,-2,-4,-13,-12,12
1,-2,-3,1,2,-3,3,-2,-4,-13,-12,12
0,-2,-3,1,2,-3,3,-2,-4,-13,-12,11
0,-2,-3,1,2,-3,3,-2,-4,-12,-12,10
1,-2,-3,0,2,-3,4,-1,-4,-12,-11,9
2,-1,-3,0,2,-2,4,-1,-3,-11,-11,9
2,0,-2,-1,2,-1,5,0,-2,-10,-10,9
2,1,-1,-2,2,-1,5,0,-2,-10,-10,9
3,1,-2,-2,2,-1,5,0,-2,-10,-10,9
3,1,-3,-3,3,-1,4,0,-2,-11,-11,8
3,0,-3,-2,4,-2,4,0,-2,-11,-11,7
2,-1,-4,-1,4,-2,4,0,-2,-11,-11,6
2,-2,-4,0,4,-3,5,1,-1,-10,-11,4
2,-2,-5,0,4,-4,5,2,0,-9,-11,1
2,-3,-5,0,4,-4,5,3,2,-7,-11,0
2,-3,-5,0,4,-5,4,3,5,-3,-9,0
2,-2,-5,0,3,-4,4,2,9,1,-6,1
3,0,-4,-1,3,-3,3,1,15,9,-1,3
6,4,-3,-5,4,0,1,0,21,18,5,7
9,8,-2,-9,6,2,-1,-1,23,25,14,13
12,11,-1,-12,7,4,-5,-5,19,30,23,19
15,14,-1,-15,8,5,-11,-11,8,31,33,26
19,17,-1,-18,10,7,-18,-20,-7,29,43,36
24,22,-1,-23,13,10,-25,-29,-25,25,54,47
30,29,-1,-30,16,13,-33,-39,-44,19,66,60
36,37,0,-37,18,18,-42,-51,-65,10,79,76
43,46,2,-44,20,23,-51,-64,-88,0,92,94
49,55,4,-52,22,29,-58,-74,-109,-10,106,113
55,62,5,-59,25,33,-64,-80,-127,-18,119,131
62,66,4,-64,29,34,-67,-84,-143,-27,129,147
67,67,0,-67,33,33,-70,-88,-160,-37,132,157
70,64,-5,-67,37,28,-73,-94,-177,-53,122,158
71,58,-12,-65,41,22,-77,-102,-196,-73,103,152
70,52,-18,-61,44,16,-81,-110,-213,-94,79,143
67,47,-20,-57,43,13,-85,-119,-226,-115,55,133
62,44,-18,-53,39,12,-87,-129,-233,-136,29,122
54,42,-13,-47,33,13,-88,-137,-235,-155,3,108
45,39,-7,-42,26,14,-87,-142,-231,-170,-22,90
36,35,-2,-36,19,15,-84,-143,-223,-181,-45,71
27,31,3,-29,12,16,-79,-140,-211,-184,-61,52
19,28,9,-24,5,17,-73,-134,-197,-180,-70,36
11,25,14,-19,-1,18,-66,-126,-181,-171,-74,21
4,24,19,-14,-7,20,-59,-117,-163,-159,-73,9
0,22,22,-11,-11,21,-51,-105,-143,-143,-69,-2
-5,17,21,-6,-13,19,-42,-90,-121,-124,-63,-13
-8,11,18,-2,-13,15,-32,-74,-98,-104,-56,-24
-9,6,15,1,-12,10,-22,-58,-77,-85,-48,-31
-10,1,12,4,-11,6,-14,-45,-59,-68,-41,-36
-10,-1,9,5,-10,3,-8,-33,-44,-54,-35,-38
-9,-2,7,5,-8,1,-2,-24,-31,-42,-29,-38
-8,-3,4,5,-6,0,1,-16,-21,-32,-24,-35
-7,-4,2,5,-5,-1,4,-9,-13,-24,-20,-33
-6,-4,0,5,-4,-2,5,-4,-6,-19,-17,-31
-5,-4,0,5,-3,-2,7,-1,-1,-14,-14,-30
-4,-4,-1,4,-2,-2,8,1,2,-11,-13,-30
-3,-4,-1,3,-2,-2,8,2,4,-9,-12,-30
-3,-4,-1,3,-1,-2,9,4,6,-7,-11,-30
-3,-4,-1,3,-1,-2,10,5,7,-6,-11,-31
-3,-4,-1,4,-1,-3,11,6,8,-5,-11,-34
-4,-5,-1,5,-1,-3,11,7,10,-4,-11,-36
-4,-6,-2,5,-1,-4,12,8,11,-3,-11,-38
-4,-5,-2,5,-1,-4,12,9,12,-2,-11,-38
-4,-5,-2,5,-1,-4,12,9,13,-1,-10,-38
-4,-5,-2,5,-1,-4,12,9,14,0,-10,-38
-5,-5,-1,5,-2,-4,12,9,14,0,-10,-38
-5,-5,-1,5,-2,-4,12,10,14,0,-10,-38
-5,-5,0,5,-2,-3,13,10,14,0,-10,-37
-4,-5,-1,5,-1,-3,13,11,15,0,-10,-35
-2,-5,-2,3,0,-3,13,11,15,1,-10,-34
-1,-4,-2,2,0,-3,13,12,16,1,-10,-33
-1,-4,-2,2,0,-3,13,12,16,2,-10,-32
-1,-4,-2,2,0,-3,13,12,16,2,-10,-32
-1,-4,-3,3,0,-4,13,12,16,2,-10,-32
-1,-4,-3,3,0,-4,13,12,16,2,-10,-32
-2,-3,-2,2,0,-3,13,13,17,3,-9,-31
-2,-3,-1,2,0,-3,13,13,17,3,-9,-30
-3,-3,-1,3,-1,-2,13,12,17,3,-9,-28
-4,-4,0,4,-1,-2,13,12,17,3,-10,-27
-4,-5,0,4,-2,-2,12,12,17,3,-10,-26
-4,-4,0,4,-1,-2,12,12,17,3,-10,-24
-3,-4,0,3,-1,-2,12,12,17,3,-10,-23
-4,-4,-1,4,-1,-3,12,12,17,3,-10,-22
-4,-5,-1,5,-1,-3,11,11,17,3,-11,-21
-4,-5,-1,5,-1,-3,11,11,17,3,-11,-21
-4,-5,-1,5,-1,-3,11,11,17,3,-10,-21
-4,-5,-1,4,-1,-3,12,11,18,3,-10,-20
-3,-4,-1,3,-1,-2,12,12,18,4,-9,-19
-2,-3,-1,3,-1,-2,12,12,18,4,-9,-19
-3,-3,-1,4,-1,-2,12,12,18,5,-9,-21
-3,-3,-1,4,-1,-2,12,12,18,5,-9,-23
-3,-3,-1,3,-1,-2,12,12,18,5,-9,-24
-3,-3,-1,3,-1,-2,12,12,19,5,-9,-24
-3,-3,-1,3,-1,-2,12,12,19,5,-9,-23
-4,-4,0,4,-1,-2,12,12,19,5,-9,-22
-4,-4,0,4,-2,-2,12,12,19,5,-9,-23
-4,-4,0,4,-1,-2,12,13,19,6,-9,-23
-3,-3,0,3,-1,-1,12,13,20,6,-8,-22
-2,-2,0,2,0,-1,12,13,20,7,-8,-21
-3,-3,0,2,-1,-2,12,13,21,7,-8,-20
-4,-3,0,3,-1,-2,12,13,21,7,-8,-19
-4,-3,0,3,-2,-2,12,14,21,7,-8,-19
-4,-3,0,3,-2,-2,12,14,21,7,-7,-17
-4,-4,0,3,-1,-2,12,14,21,7,-7,-13
-4,-4,0,3,-1,-2,12,14,21,8,-7,-11
-4,-4,0,3,-1,-2,12,14,21,8,-7,-11
-4,-4,0,3,-1,-2,12,14,22,9,-7,-12
-4,-4,0,3,-1,-2,12,14,22,9,-7,-14
-3,-3,0,3,-1,-2,12,14,22,10,-7,-15
-3,-3,0,2,-1,-2,12,14,22,10,-7,-18
-3,-3,0,3,-1,-2,12,14,22,10,-7,-21
-4,-4,0,3,-1,-2,11,14,22,10,-7,-23
-4,-4,0,4,-2,-2,11,14,22,11,-7,-25
-4,-4,0,4,-2,-2,11,14,23,11,-6,-26
-3,-4,0,3,-1,-1,11,15,24,12,-6,-26
-2,-3,0,2,0,-1,12,16,25,13,-5,-25
-1,-2,0,1,0,-1,12,16,25,14,-5,-24
-1,-1,0,1,0,-1,12,17,26,14,-4,-23
-2,-1,0,1,0,-1,12,17,26,15,-4,-22
-2,-1,0,1,0,0,12,17,26,15,-4,-20
-2,-1,0,2,0,0,12,17,27,16,-3,-17
-3,-1,0,2,-1,0,12,17,27,17,-3,-14
-3,-1,1,2,-1,0,12,17,28,17,-2,-13
-4,-2,1,3,-2,0,12,17,28,18,-2,-13
-4,-2,1,3,-2,-1,11,17,29,18,-2,-13
-4,-3,0,3,-1,-1,11,18,29,19,-2,-14
-3,-3,0,3,-1,-1,11,18,30,19,-2,-15
-3,-3,0,2,0,-1,11,19,31,20,-2,-15
-3,-3,0,2,0,-1,11,19,31,21,-1,-14
-3,-3,0,3,0,-2,11,19,32,22,-1,-13
-2,-3,0,3,0,-2,11,20,33,24,0,-13
-1,-1,0,1,0,-1,12,21,34,25,1,-11
0,0,0,0,0,0,12,22,36,27,2,-9
0,0,0,0,0,0,12,22,37,28,4,-7
-2,0,1,1,-1,0,12,23,38,29,5,-5
-3,-1,1,2,-2,0,11,23,38,31,5,-4
-3,-1,1,2,-1,0,11,24,39,32,6,-5
-2,-1,1,2,-1,0,11,24,40,34,6,-8
-2,-1,1,2,-1,0,11,25,41,35,7,-8
-2,-1,0,2,0,-1,11,26,43,37,7,-5
-2,-1,0,2,0,-1,12,27,45,39,9,0
-1,0,0,1,0,0,12,29,47,41,11,5
-1,0,0,0,0,0,12,30,49,44,13,9
0,0,0,0,0,0,12,31,50,46,14,11
0,1,0,-1,0,1,12,32,52,49,16,10
1,2,0,-2,0,1,12,34,54,53,17,10
2,3,1,-3,1,2,13,35,56,56,19,10
3,4,1,-4,1,2,13,36,59,60,21,12
3,4,1,-4,1,2,13,38,61,63,23,15
3,4,1,-3,1,2,12,39,63,66,25,17
2,3,1,-3,1,2,12,41,65,69,27,19
3,4,1,-3,1,2,12,42,67,72,30,21
4,5,1,-4,2,2,12,44,69,76,32,24
4,6,1,-5,2,3,12,45,72,80,35,26
5,7,2,-6,2,4,12,47,75,84,37,27
6,9,2,-7,2,5,12,48,78,88,40,27
7,10,2,-9,3,5,12,50,80,92,43,27
8,11,2,-10,4,6,12,51,82,95,45,29
9,11,2,-10,4,6,11,52,84,98,48,30
9,12,2,-10,4,7,11,53,86,100,50,33
10,13,3,-11,4,8,11,54,87,103,52,38
10,14,3,-12,4,9,11,55,89,105,55,44
10,15,4,-13,3,10,10,55,90,108,57,47
10,16,5,-13,3,10,10,56,91,110,58,49
11,17,5,-14,3,11,9,56,92,111,60,50
12,18,6,-15,4,12,8,56,92,111,61,51
12,19,6,-15,4,12,8,55,92,112,62,53
11,19,7,-15,3,12,7,55,92,111,63,56
12,20,7,-16,3,13,7,54,91,111,63,58
13,22,7,-18,4,14,7,53,91,110,64,60
14,23,7,-19,4,15,7,52,89,108,64,60
14,23,8,-19,4,15,6,50,87,105,63,61
14,23,8,-18,4,15,5,48,84,102,62,61
13,22,8,-18,3,15,4,45,80,97,60,61
13,22,9,-18,3,15,4,43,77,93,59,59
13,23,9,-18,3,16,3,40,74,89,57,56
12,23,10,-18,2,16,3,38,70,84,54,52
12,23,11,-18,1,17,2,35,66,78,52,49
12,23,11,-18,1,17,2,32,62,73,49,48
12,23,10,-18,1,16,1,29,57,67,45,46
11,21,10,-16,1,15,0,25,52,61,41,43
10,20,10,-15,1,15,0,22,47,55,38,41
10,19,9,-15,1,14,0,19,43,49,35,38
9,18,8,-14,1,12,0,17,38,43,31,36
9,17,7,-14,2,11,0,15,34,38,28,34
9,16,6,-13,2,10,0,13,31,34,24,32
9,15,6,-12,2,10,0,11,27,29,21,31
9,14,5,-12,2,9,0,9,24,25,18,30
9,14,5,-11,3,8,0,7,20,20,15,30
8,12,4,-10,2,7,0,5,17,16,12,29
7,11,3,-8,2,6,0,4,14,12,10,27
6,10,2,-8,2,5,0,3,11,8,7,24
6,9,2,-7,2,5,0,2,9,5,5,20
5,9,1,-7,2,4,0,1,7,3,3,15
5,8,1,-7,2,4,0,1,6,0,1,11
5,7,0,-6,2,3,0,0,4,-1,-1,11
4,5,0,-4,2,2,0,0,2,-3,-3,11
3,3,0,-3,2,1,0,-1,1,-5,-4,11
3,2,-1,-3,3,0,0,-1,0,-6,-5,10
3,1,-2,-2,3,0,0,-2,-1,-8,-6,9
2,1,-2,-1,3,-1,1,-2,-1,-9,-7,9
2,0,-3,-1,3,-1,1,-2,-2,-9,-7,9
2,0,-3,-1,3,-1,1,-2,-2,-10,-8,10
2,0,-2,-1,2,-1,1,-3,-3,-10,-8,11
1,-1,-2,0,2,-1,1,-3,-4,-11,-9,12
1,-1,-2,0,2,-1,1,-4,-4,-12,-10,13
1,-1,-2,0,2,-1,1,-4,-5,-12,-10,12
2,0,-2,0,2,-1,1,-4,-5,-13,-10,10
2,0,-2,0,2,-1,1,-4,-5,-13,-10,9
1,-1,-3,0,2,-2,1,-5,-5,-14,-10,10
0,-2,-3,0,2,-2,1,-5,-6,-14,-10,11
1,-1,-3,0,3,-2,1,-4,-6,-14,-10,11
2,-1,-3,0,3,-2,1,-4,-6,-14,-10,10
2,0,-3,0,3,-2,1,-5,-6,-14,-10,8
2,0,-3,0,3,-2,1,-5,-6,-14,-10,4
2,0,-2,0,2,-2,1,-5,-6,-14,-10,0
2,0,-2,0,2,-1,1,-5,-6,-14,-10,-3
2,0,-2,-1,2,-1,1,-5,-6,-14,-10,-5
2,0,-2,-1,2,0,1,-5,-6,-14,-11,-6
2,0,-2,0,2,0,1,-5,-6,-15,-11,-4
0,-2,-2,1,1,-1,1,-6,-7,-16,-12,-2
0,-3,-2,2,1,-2,1,-6,-7,-16,-12,-1
0,-2,-3,1,2,-2,1,-5,-7,-16,-12,2
1,-1,-3,0,2,-2,2,-5,-6,-15,-11,5
1,-1,-3,0,2,-2,2,-5,-6,-15,-11,6
1,-2,-4,0,2,-3,1,-5,-7,-15,-12,5
1,-3,-5,1,3,-5,1,-6,-7,-16,-12,3
2,-3,-5,1,3,-5,1,-5,-7,-16,-12,1
2,-3,-5,1,3,-4,1,-5,-7,-15,-11,0
2,-2,-4,1,3,-4,1,-5,-7,-15,-11,0
2,-2,-4,0,3,-3,1,-5,-7,-15,-11,-2
1,-2,-4,0,3,-3,1,-5,-7,-16,-12,-4
1,-2,-3,0,2,-3,2,-5,-6,-15,-12,-4
1,-1,-3,0,2,-3,2,-5,-6,-15,-11,-3
1,-1,-2,0,2,-2,2,-5,-6,-15,-11,-1
1,-1,-2,0,2,-2,2,-5,-6,-15,-11,0
1,-1,-2,0,2,-2,2,-5,-5,-15,-12,1
1,-1,-2,0,2,-2,2,-5,-5,-15,-12,2
1,-1,-2,0,2,-2,2,-5,-5,-15,-12,3
0,-2,-3,1,2,-3,2,-5,-5,-15,-12,3
1,-2,-3,1,2,-3,2,-4,-5,-14,-12,3
1,-2,-4,0,2,-3,3,-4,-4,-14,-12,4
1,-2,-4,0,2,-3,3,-4,-4,-13,-12,4
1,-3,-4,0,2,-3,3,-4,-4,-13,-12,4
1,-3,-4,0,2,-3,3,-4,-4,-13,-12,3
1,-2,-4,0,2,-3,3,-4,-4,-13,-12,2
1,-2,-3,1,2,-3,3,-4,-4,-13,-12,2
1,-2,-3,1,2,-3,3,-4,-4,-13,-12,2
1,-2,-2,1,1,-2,3,-4,-4,-13,-12,3
0,-2,-2,1,1,-2,3,-4,-4,-14,-13,4
-1,-3,-3,2,0,-3,3,-4,-4,-14,-13,7
-1,-4,-3,3,0,-3,3,-3,-4,-14,-13,10
-1,-3,-3,2,1,-3,3,-3,-3,-14,-13,12
0,-3,-3,1,1,-3,3,-2,-3,-13,-12,14
0,-2,-3,1,1,-3,3,-2,-3,-13,-12,15
1,-2,-3,0,1,-3,3,-2,-2,-13,-12,16
1,-1,-3,0,1,-2,3,-2,-2,-13,-12,17
1,-1,-3,0,2,-2,3,-1,-2,-12,-12,18
1,-1,-3,0,2,-2,4,-1,-1,-12,-12,19
1,-1,-3,0,2,-2,4,-1,-1,-11,-12,18
0,-1,-3,0,1,-2,4,-1,-1,-11,-12,16
1,-2,-3,0,2,-2,4,-1,-1,-11,-12,15
1,-1,-4,0,2,-2,4,0,-1,-11,-11,14
2,-1,-4,0,2,-2,4,0,-1,-11,-11,12
1,-1,-3,0,2,-2,4,-1,-1,-11,-11,11
1,-1,-3,0,1,-2,4,-1,-1,-11,-11,10
1,-1,-3,0,1,-2,4,-1,-1,-11,-11,9
0,-1,-3,0,1,-2,4,-1,-1,-11,-12,8
0,-1,-3,0,1,-2,4,-1,-1,-11,-12,8
0,-1,-3,0,1,-2,4,-1,-1,-11,-12,9
0,-1,-3,0,1,-2,4,-1,0,-11,-12,10
0,-2,-3,1,1,-2,3,-1,0,-10,-12,11
0,-2,-3,1,1,-3,3,-1,0,-10,-12,11
0,-3,-3,1,1,-3,3,-1,0,-10,-11,10
0,-3,-2,1,0,-2,3,-1,0,-9,-11,9
-1,-3,-2,1,0,-2,3,-1,0,-9,-11,9
0,-2,-2,1,0,-1,3,-1,0,-9,-11,8
0,-1,-2,0,0,-1,3,0,0,-9,-11,6
0,-1,-1,0,0,0,4,0,0,-9,-10,4
-1,0,0,0,0,0,4,0,0,-8,-10,2
0,0,-1,0,0,0,5,0,1,-8,-10,2
1,0,-2,0,1,-1,5,0,0,-8,-10,1
2,0,-3,0,2,-2,4,0,0,-9,-10,1
2,-1,-4,0,2,-2,4,0,0,-9,-11,1
3,-1,-4,0,2,-2,4,0,0,-9,-11,1
2,-2,-3,0,2,-2,4,0,-1,-9,-11,2
0,-3,-3,1,1,-2,3,0,-1,-9,-11,3
0,-2,-3,1,1,-2,3,0,-1,-9,-11,5
1,-1,-3,0,1,-2,4,0,0,-8,-10,6
1,-1,-2,0,1,-1,4,0,0,-8,-10,8
1,0,-2,0,1,-1,4,0,0,-8,-10,9
1,0,-2,0,1,-1,4,0,0,-8,-10,9
1,0,-2,0,1,-1,4,0,0,-8,-10,9
1,0,-2,0,1,-1,4,0,0,-8,-10,10
1,0,-2,0,1,-1,4,0,0,-8,-10,11
2,0,-2,-1,1,-1,4,0,0,-8,-10,11
2,0,-3,-1,1,-1,4,0,0,-8,-10,12
2,0,-3,-1,1,-1,4,0,-1,-8,-10,12
2,0,-2,-1,1,-1,4,0,-1,-8,-10,11
2,1,-2,-1,1,0,4,0,0,-8,-9,11
3,2,-1,-2,1,0,4,0,0,-8,-9,9
3,3,0,-3,1,1,4,0,0,-7,-8,8
3,4,0,-3,1,2,4,0,1,-7,-8,8
2,4,1,-3,0,3,3,0,1,-7,-8,8
1,4,2,-2,-1,3,3,0,1,-7,-8,9
1,4,2,-2,-1,3,4,0,2,-6,-8,9
1,4,2,-2,-2,4,4,0,2,-6,-8,8
1,4,3,-2,-2,4,5,0,3,-6,-8,8
1,5,3,-3,-2,4,6,0,3,-5,-7,8
2,5,3,-3,-2,4,7,0,4,-5,-7,8
3,6,3,-4,-1,5,8,1,5,-5,-6,9
4,8,3,-6,-1,6,8,1,6,-5,-6,10
4,8,3,-7,0,7,8,2,6,-4,-5,11
4,8,3,-6,0,6,8,2,6,-4,-5,11
4,7,3,-5,0,6,6,1,6,-4,-5,10
4,7,3,-5,0,5,5,1,5,-4,-5,10
3,6,3,-4,0,5,2,0,5,-4,-6,11
3,6,3,-4,0,5,0,-1,4,-5,-6,9
3,5,2,-4,0,4,-2,-3,3,-5,-6,7
3,5,1,-4,0,4,-4,-4,2,-5,-6,5
4,5,0,-4,1,3,-4,-4,1,-6,-6,6
5,5,0,-4,1,3,-5,-4,0,-6,-6,8
6,6,0,-5,2,3,-5,-4,-1,-6,-6,11
7,7,0,-7,3,4,-6,-4,-1,-6,-5,14
8,7,0,-8,4,4,-6,-5,-2,-6,-5,15
9,8,-1,-9,5,3,-7,-5,-2,-6,-5,16
10,8,-2,-9,6,3,-7,-6,-3,-7,-6,17
10,8,-3,-9,6,2,-8,-6,-3,-7,-6,18
10,8,-3,-9,6,2,-8,-7,-4,-8,-6,19
10,7,-3,-9,6,2,-8,-7,-4,-8,-6,20
10,7,-3,-8,6,1,-8,-7,-4,-8,-6,20
10,7,-3,-9,6,1,-7,-7,-5,-8,-6,20
10,7,-3,-9,7,1,-6,-7,-5,-8,-6,19
11,7,-4,-9,7,1,-6,-7,-5,-9,-7,18
11,6,-5,-9,8,0,-6,-7,-6,-9,-7,16
11,6,-5,-9,8,0,-6,-8,-7,-10,-8,14
10,6,-5,-8,7,1,-5,-8,-7,-10,-8,11
9,6,-4,-7,6,1,-5,-8,-7,-10,-8,9
8,6,-3,-7,5,1,-4,-7,-7,-10,-8,8
8,6,-3,-7,5,1,-3,-6,-6,-9,-7,9
8,6,-2,-7,5,1,-2,-5,-5,-8,-7,10
7,5,-2,-6,5,1,-1,-4,-4,-8,-7,10
6,4,-2,-5,4,1,0,-3,-3,-8,-7,10
5,3,-2,-4,3,1,0,-3,-3,-8,-7,11
4,3,-1,-4,2,1,1,-2,-2,-8,-6,11
3,3,-1,-3,2,1,2,-2,-2,-8,-6,10
3,2,-1,-3,2,0,2,-2,-2,-8,-7,9
3,1,-2,-2,2,0,3,-2,-3,-8,-8,8
2,0,-2,-1,1,-1,3,-2,-3,-9,-9,8
1,-1,-2,0,1,-1,4,-2,-4,-10,-9,8
0,-2,-2,1,0,-1,4,-2,-4,-10,-10,8
0,-2,-2,1,0,-1,4,-2,-4,-10,-10,9
0,-1,-2,0,0,-1,5,-2,-4,-10,-10,9
0,-1,-2,0,0,-2,5,-2,-4,-10,-10,9
0,-2,-2,1,0,-2,5,-2,-4,-11,-11,9
0,-2,-2,1,0,-2,5,-2,-5,-11,-11,8
0,-2,-2,1,0,-2,6,-2,-5,-10,-11,8
0,-2,-2,1,0,-2,6,-2,-5,-11,-11,9
-1,-3,-3,2,0,-2,5,-2,-5,-12,-12,11
-2,-4,-3,3,0,-3,5,-2,-6,-12,-12,12
-3,-5,-3,4,0,-4,5,-2,-6,-12,-12,13
-2,-4,-3,3,0,-4,5,-2,-6,-11,-11,13
-1,-4,-3,3,0,-4,5,-2,-6,-11,-11,10
-1,-3,-3,2,0,-3,5,-2,-6,-11,-11,6
0,-3,-3,2,1,-3,6,-2,-5,-11,-12,2
0,-3,-3,2,1,-2,6,-2,-5,-11,-12,0
-1,-4,-3,2,0,-2,6,-2,-6,-11,-12,-2
-1,-4,-3,3,0,-2,6,-2,-6,-11,-12,-3
-1,-3,-3,2,0,-2,6,-1,-5,-11,-11,-4
0,-2,-3,1,1,-1,7,-1,-5,-10,-11,-5
1,-1,-3,0,1,-1,7,-1,-5,-10,-11,-6
0,-2,-3,1,0,-2,6,-1,-5,-11,-11,-5
0,-2,-3,2,0,-2,6,-2,-5,-11,-12,-2
0,-2,-3,2,0,-2,6,-2,-5,-11,-11,2
0,-2,-2,1,0,-2,6,-1,-5,-10,-11,5
0,-2,-2,1,0,-1,6,-1,-5,-10,-10,8
-1,-2,-1,1,0,-1,6,-1,-5,-10,-10,9
-1,-3,-1,2,-1,-1,6,-1,-5,-10,-11,9
-1,-4,-2,2,-1,-2,5,-1,-5,-11,-11,8
-2,-4,-3,3,-1,-3,6,-1,-5,-11,-11,6
-2,-5,-4,3,0,-4,6,0,-5,-11,-11,6
-1,-5,-5,2,0,-4,7,1,-4,-10,-11,7
0,-4,-6,2,2,-4,7,2,-3,-9,-11,8
1,-4,-7,1,3,-5,7,3,-1,-7,-10,7
1,-4,-6,1,3,-4,7,3,2,-4,-9,5
0,-4,-5,1,1,-3,7,3,6,1,-6,3
1,-2,-3,0,0,-1,6,3,13,7,-2,4
3,1,-2,-3,1,0,3,2,20,15,3,8
6,5,-2,-6,3,1,1,1,25,23,10,13
9,8,-2,-9,5,3,-2,-1,23,29,19,20
12,10,-3,-11,7,4,-7,-6,14,32,29,29
16,13,-4,-15,10,5,-13,-15,0,32,39,41
22,17,-5,-19,13,6,-21,-25,-17,29,50,55
29,23,-6,-26,17,9,-30,-35,-36,25,63,71
38,32,-6,-35,21,13,-39,-47,-55,20,76,89
46,42,-5,-44,24,19,-48,-60,-76,12,90,106
53,51,-3,-52,27,25,-55,-72,-95,5,104,124
59,59,-1,-59,29,29,-60,-80,-114,-2,117,141
63,63,-2,-63,31,30,-64,-85,-131,-11,125,153
67,63,-5,-65,35,29,-67,-89,-149,-21,127,160
68,61,-8,-65,37,27,-69,-93,-167,-36,119,162
68,56,-11,-62,39,23,-72,-100,-186,-56,101,159
66,51,-15,-59,40,18,-75,-109,-203,-78,79,155
64,46,-17,-55,39,15,-80,-120,-217,-99,56,146
58,42,-15,-50,35,14,-83,-131,-227,-121,33,134
48,39,-10,-44,28,14,-85,-141,-232,-141,7,117
37,35,-4,-36,20,15,-84,-147,-230,-159,-19,97
29,32,0,-30,13,16,-81,-147,-223,-172,-42,76
21,29,5,-25,7,17,-77,-144,-211,-176,-58,56
14,27,11,-20,0,19,-71,-138,-196,-173,-67,40
8,25,16,-17,-5,21,-64,-129,-180,-164,-70,27
3,24,21,-14,-10,23,-56,-118,-161,-152,-69,15
-2,22,24,-10,-14,23,-47,-105,-141,-136,-66,0
-6,17,23,-6,-16,21,-38,-90,-119,-118,-60,-18
-10,11,20,-1,-16,16,-28,-73,-98,-100,-54,-31
-12,6,16,3,-15,11,-19,-58,-78,-82,-47,-36
-12,2,13,5,-14,7,-11,-44,-61,-67,-40,-35
-12,-1,10,6,-12,4,-5,-33,-46,-53,-34,-32
-11,-3,7,7,-10,2,0,-23,-33,-41,-28,-28
-9,-4,5,7,-8,0,3,-15,-22,-31,-23,-24
-8,-4,3,6,-6,0,6,-8,-14,-24,-19,-21
-7,-5,2,5,-5,-1,8,-4,-8,-18,-16,-19
-6,-5,1,5,-4,-1,10,-1,-4,-14,-14,-16
-6,-4,0,4,-4,-2,11,1,-1,-11,-12,-13
-5,-4,0,4,-3,-2,11,2,1,-9,-12,-12
-5,-5,0,5,-3,-3,12,4,3,-7,-12,-12
-5,-5,-1,6,-3,-3,12,5,4,-6,-12,-13
-6,-6,-1,6,-3,-4,13,7,6,-5,-12,-13
-6,-7,-2,7,-3,-4,14,8,7,-5,-12,-12
-7,-8,-3,7,-2,-5,15,9,8,-4,-12,-11
-6,-8,-3,7,-2,-6,15,9,8,-3,-12,-12
-6,-8,-3,6,-2,-5,15,9,9,-2,-11,-13
-6,-7,-3,6,-2,-5,15,9,9,-1,-11,-14
-6,-6,-3,6,-2,-5,15,9,10,-1,-10,-14
-6,-6,-3,6,-2,-5,15,10,10,-1,-10,-13
-5,-7,-3,6,-2,-5,15,10,10,-1,-10,-11
-5,-7,-3,6,-2,-4,15,11,11,0,-11,-8
-4,-6,-3,5,-1,-4,15,11,12,0,-10,-6
-4,-6,-3,5,-1,-4,15,12,12,0,-10,-6
-5,-7,-2,6,-2,-4,15,12,12,0,-10,-5
-6,-7,-2,7,-3,-4,15,12,12,1,-10,-5
-6,-6,-2,6,-2,-3,15,12,12,1,-10,-3
-4,-6,-3,5,-1,-3,15,12,12,1,-10,-1
-3,-6,-4,4,-1,-4,15,12,13,1,-10,1
-3,-6,-4,4,0,-4,15,12,13,1,-10,3
-3,-6,-4,4,0,-4,16,12,14,1,-10,5
-3,-6,-4,4,0,-4,16,12,14,1,-10,7
-3,-5,-4,4,0,-4,16,12,14,1,-10,9
-3,-5,-4,4,0,-4,16,12,14,1,-9,10
-4,-6,-3,4,-1,-4,16,12,14,1,-9,10
-5,-6,-3,5,-1,-4,15,12,14,2,-9,10
-5,-6,-3,5,-1,-4,15,12,14,2,-9,11
-5,-6,-3,5,-1,-4,14,12,14,2,-9,12
-4,-6,-2,5,-2,-4,14,12,14,2,-9,13
-4,-6,-2,5,-2,-4,14,12,14,2,-9,14
-4,-6,-2,5,-2,-4,14,12,14,2,-9,13
-5,-6,-2,5,-2,-4,14,12,14,2,-10,11
-5,-6,-2,5,-2,-4,14,12,14,2,-10,9
-4,-5,-2,5,-2,-3,14,12,14,2,-9,10
-4,-5,-2,4,-2,-3,14,12,14,2,-9,10
-5,-5,-2,5,-2,-3,14,12,14,2,-9,8
-5,-6,-2,5,-2,-4,14,12,14,3,-9,5
-5,-6,-2,5,-2,-3,14,12,15,4,-8,2
-5,-6,-1,5,-2,-3,14,13,15,4,-8,1
-5,-6,-1,5,-2,-3,14,13,15,4,-8,-1
-5,-5,-1,5,-2,-3,14,13,15,4,-8,-3
-4,-4,-1,4,-2,-3,14,13,15,4,-8,-3
-4,-4,-2,3,-1,-3,14,13,16,5,-8,-4
-4,-4,-2,3,-1,-3,14,13,16,5,-7,-4
-4,-4,-2,4,-1,-3,14,13,16,5,-7,-3
-4,-5,-2,4,-1,-3,14,13,16,5,-7,0
-4,-5,-2,4,-1,-3,14,13,16,6,-7,1
-4,-5,-2,4,-1,-3,13,13,16,6,-7,-1
-4,-5,-2,5,-1,-3,13,13,16,7,-7,-3
-5,-6,-2,6,-2,-3,13,14,16,7,-7,-3
-6,-7,-2,6,-2,-4,13,14,16,7,-7,-1
-6,-6,-2,6,-2,-4,13,14,16,7,-6,0
-5,-6,-2,5,-2,-3,13,14,17,8,-6,0
-4,-5,-2,4,-1,-3,13,14,17,8,-5,1
-3,-4,-2,4,-1,-2,13,15,18,9,-5,4
-3,-3,-2,3,-1,-2,13,15,18,9,-5,7
-3,-3,-2,3,-1,-2,13,16,18,10,-5,8
-3,-4,-2,4,-1,-2,13,16,19,10,-5,7
-4,-4,-1,4,-1,-2,13,16,19,11,-4,6
-4,-4,-1,4,-1,-2,13,16,20,12,-4,6
-4,-4,-1,4,-1,-2,13,16,20,12,-5,5
-4,-4,-1,4,-2,-2,13,16,20,12,-5,4
-4,-4,-1,4,-2,-2,13,16,20,13,-4,2
-3,-2,-1,3,-2,-2,13,17,21,14,-4,2
-2,-2,-1,2,-1,-1,13,17,22,15,-3,2
-3,-3,-1,3,-1,-2,13,17,22,15,-3,3
-4,-5,-1,4,-2,-3,12,17,22,15,-3,3
-5,-5,0,5,-2,-3,12,18,23,16,-2,3
-5,-5,0,5,-2,-2,13,18,24,18,-1,5
-5,-5,0,4,-2,-2,13,18,25,19,-1,6
-3,-4,-1,3,-1,-2,13,19,25,19,0,6
-2,-3,-2,2,0,-2,13,19,26,20,0,7
-1,-2,-2,2,0,-2,13,20,27,21,1,9
-1,-2,-2,2,0,-2,13,21,28,22,1,11
-1,-3,-2,2,0,-2,13,21,29,23,2,13
-1,-3,-2,2,0,-2,13,22,29,24,2,15
-1,-2,-2,1,0,-2,13,22,30,25,3,16
0,-2,-2,1,0,-2,13,23,31,27,4,17
-1,-3,-2,2,0,-2,13,23,32,28,5,15
-1,-3,-2,2,0,-2,13,23,33,30,6,14
-1,-2,-2,2,0,-1,13,24,34,32,7,13
-1,-1,-1,1,0,-1,13,25,36,34,8,14
1,0,-1,0,0,0,13,27,37,36,9,14
2,1,-1,-1,1,0,13,28,39,38,10,14
0,0,-1,0,0,0,12,28,40,40,11,14
-1,-1,0,1,-1,0,12,28,41,42,12,13
-1,0,0,1,-1,0,13,30,43,44,13,14
0,1,0,0,0,1,13,31,45,48,15,16
1,1,0,-1,1,1,13,32,47,51,17,19
1,1,-1,-1,1,0,12,33,48,53,19,22
1,0,-1,-1,1,0,12,34,50,55,20,25
2,1,-1,-1,2,0,12,36,52,59,22,27
3,2,-2,-3,3,0,12,38,55,62,25,29
5,3,-2,-4,3,1,12,40,57,66,27,30
5,4,-2,-4,3,1,12,41,59,69,30,32
5,4,-2,-4,3,1,12,43,61,73,32,33
4,3,-2,-4,2,1,12,44,63,76,35,36
4,3,-2,-3,3,0,12,45,65,80,37,39
6,4,-2,-5,4,1,11,46,68,83,40,42
8,6,-2,-7,5,2,11,47,70,87,42,45
9,8,-2,-8,6,3,11,49,73,91,45,47
10,9,-1,-9,6,4,11,51,75,94,48,49
10,11,0,-10,5,5,10,52,77,98,51,50
11,12,0,-11,5,6,10,53,79,100,54,51
11,13,0,-12,5,7,10,53,80,102,56,52
12,14,1,-13,5,8,9,54,81,104,57,53
13,15,1,-14,5,9,9,54,82,106,59,56
13,17,2,-15,5,10,9,55,83,108,61,59
13,18,4,-16,5,11,9,55,84,109,62,61
14,20,4,-17,5,12,8,56,84,110,64,63
15,20,4,-17,5,12,7,55,84,110,65,65
15,20,4,-17,5,13,7,54,83,110,66,67
15,20,4,-17,5,13,6,53,82,108,66,69
15,21,5,-18,5,14,6,52,81,107,66,70
15,21,5,-19,5,14,5,50,79,104,65,69
16,22,6,-20,5,14,5,48,77,100,64,69
15,22,6,-20,4,14,4,46,74,96,63,70
15,23,7,-19,4,14,3,44,70,92,62,71
15,23,7,-19,4,15,3,41,67,87,60,72
15,23,8,-19,4,15,2,38,63,82,57,72
14,22,8,-18,3,15,1,36,59,77,53,71
14,22,8,-18,3,16,1,33,55,72,50,70
13,22,8,-18,2,16,1,30,51,67,47,70
13,22,8,-17,2,16,1,26,47,60,43,69
12,21,8,-16,2,15,1,23,42,54,39,68
11,20,7,-15,2,14,0,21,38,48,35,67
9,17,7,-13,1,13,0,19,33,42,32,65
7,15,7,-11,0,12,0,17,29,38,29,63
7,15,6,-10,0,11,0,15,25,33,26,62
8,14,5,-11,1,10,0,13,21,28,22,60
8,13,3,-10,2,9,0,10,17,23,19,57
7,11,2,-9,2,7,0,8,14,18,15,54
6,9,2,-8,2,6,0,6,11,14,12,52
5,8,1,-7,2,5,0,5,9,10,9,50
6,8,1,-7,3,5,0,5,7,8,7,48
6,7,1,-7,3,4,0,4,5,6,5,45
5,6,0,-5,2,4,0,3,3,3,3,43
4,5,0,-4,2,3,1,2,1,1,1,42
3,4,0,-3,2,3,1,1,0,0,0,41
3,4,-1,-3,2,2,2,0,-1,-2,-2,41
3,2,-1,-2,2,1,2,0,-3,-5,-4,40
2,1,-2,-1,2,0,2,0,-4,-7,-5,38
1,0,-2,0,2,-1,2,0,-6,-9,-7,37
1,-1,-3,0,2,-1,2,-1,-7,-10,-7,37
1,-1,-3,0,2,-2,2,-1,-8,-11,-8,37
1,-1,-4,0,2,-2,2,-1,-8,-12,-9,37
1,-2,-4,1,2,-2,3,-2,-9,-12,-10,37
0,-2,-4,1,2,-2,3,-2,-9,-13,-10,37
0,-2,-4,1,2,-3,3,-3,-10,-13,-10,36
0,-2,-4,1,2,-3,3,-3,-10,-13,-10,36
0,-2,-3,1,2,-3,3,-3,-10,-14,-10,35
0,-2,-3,1,2,-2,3,-3,-10,-14,-10,32
0,-3,-3,2,1,-3,3,-3,-10,-15,-10,30
-1,-4,-4,3,1,-3,2,-3,-11,-15,-11,32
0,-3,-4,2,1,-3,2,-4,-11,-15,-11,35
0,-2,-4,1,2,-2,3,-4,-11,-15,-11,37
1,-2,-4,1,2,-3,3,-4,-12,-16,-11,37
0,-3,-5,2,2,-4,3,-4,-12,-16,-11,35
0,-5,-5,3,1,-5,3,-4,-12,-16,-12,35
-2,-6,-5,4,1,-5,3,-4,-12,-17,-12,36
-2,-6,-4,4,1,-5,3,-4,-12,-17,-13,35
-2,-5,-4,4,1,-4,3,-4,-12,-17,-13,35
-1,-4,-3,2,1,-3,3,-4,-12,-16,-13,36
0,-3,-3,2,1,-3,3,-4,-13,-16,-13,36
0,-3,-3,1,1,-3,3,-4,-13,-16,-13,35
0,-3,-3,1,1,-3,3,-4,-12,-16,-13,35
0,-3,-3,1,1,-3,3,-4,-12,-16,-12,32
0,-3,-3,2,1,-3,3,-4,-12,-15,-12,29
-1,-4,-3,2,1,-3,3,-4,-12,-16,-12,28
-1,-4,-3,2,1,-3,3,-4,-12,-17,-12,29
0,-4,-4,2,2,-3,3,-4,-12,-17,-13,29
0,-4,-4,2,2,-4,3,-4,-12,-17,-13,27
0,-5,-5,2,2,-4,3,-4,-12,-17,-13,25
-1,-5,-4,3,1,-4,3,-4,-12,-16,-13,24
-2,-5,-4,3,1,-4,4,-4,-12,-16,-13,23
-2,-5,-4,3,1,-4,4,-4,-12,-17,-13,21
-2,-5,-4,4,1,-5,3,-4,-13,-17,-14,21
-3,-6,-4,5,0,-5,3,-4,-13,-17,-15,22
-4,-5,-3,5,0,-4,3,-4,-13,-17,-15,23
-4,-5,-3,5,0,-3,3,-4,-13,-17,-15,24
-4,-6,-3,5,0,-3,3,-4,-13,-17,-15,25
-3,-6,-4,5,0,-4,3,-4,-12,-17,-15,28
-2,-5,-4,4,1,-4,4,-3,-12,-17,-15,32
-1,-5,-4,3,2,-4,5,-2,-11,-16,-14,36
-1,-4,-4,3,2,-4,5,-2,-10,-15,-13,39
-1,-5,-5,3,2,-4,5,-2,-10,-15,-12,41
0,-5,-5,3,2,-5,5,-2,-10,-15,-12,41
0,-5,-5,3,2,-5,4,-2,-10,-15,-13,43
-1,-4,-4,3,1,-4,4,-2,-10,-15,-13,45
-1,-4,-4,3,1,-4,4,-2,-10,-15,-13,45
-1,-4,-4,3,1,-4,4,-2,-10,-14,-13,45
-1,-4,-4,3,1,-4,4,-2,-10,-14,-13,44
-1,-4,-4,3,1,-4,5,-2,-9,-14,-13,43
-1,-4,-4,3,2,-4,5,-2,-9,-14,-13,42
-1,-4,-4,3,1,-4,5,-1,-9,-14,-13,40
-2,-5,-4,3,1,-4,5,-1,-8,-13,-13,37
-2,-5,-4,3,1,-4,5,-1,-8,-13,-13,33
-2,-5,-4,3,1,-4,5,-1,-8,-12,-13,31
-2,-5,-4,3,1,-4,5,-1,-8,-12,-13,32
-3,-6,-4,4,0,-4,5,-1,-8,-12,-14,33
-3,-6,-4,4,0,-5,5,-1,-8,-12,-14,33
-3,-7,-4,4,1,-5,5,-1,-8,-12,-13,33
-3,-7,-5,5,1,-5,5,-1,-8,-11,-12,31
-3,-7,-5,5,1,-5,5,-1,-7,-11,-11,31
-3,-6,-4,4,1,-5,5,-1,-7,-10,-11,34
-3,-5,-4,4,0,-4,5,-1,-7,-10,-11,38
-3,-5,-3,4,0,-4,4,-1,-7,-10,-11,40
-3,-4,-2,4,0,-4,4,-1,-7,-10,-11,42
-3,-4,-2,3,0,-4,4,-1,-7,-10,-11,45
-3,-5,-2,3,0,-4,4,0,-7,-10,-12,45
-3,-5,-2,3,0,-4,5,0,-7,-10,-12,43
-3,-5,-2,3,0,-4,4,0,-7,-9,-11,42
-3,-6,-3,4,0,-4,4,0,-6,-9,-11,40
-2,-6,-3,4,0,-4,4,0,-6,-9,-11,39
-2,-5,-4,3,1,-5,5,0,-6,-8,-10,41
-1,-5,-4,3,1,-5,5,0,-6,-8,-10,43
-1,-5,-4,2,2,-4,5,0,-6,-8,-9,46
0,-4,-4,2,2,-4,5,0,-6,-8,-9,53
0,-3,-3,1,1,-3,5,0,-6,-8,-9,59
0,-3,-3,1,1,-3,5,0,-6,-8,-9,60
0,-3,-3,1,1,-3,5,0,-6,-9,-10,60
-1,-4,-3,2,1,-3,5,0,-6,-9,-10,59
-1,-5,-3,2,1,-4,5,0,-6,-8,-10,59
-1,-5,-4,2,1,-4,5,1,-6,-8,-10,61
-1,-5,-4,2,1,-4,5,1,-6,-8,-9,61
-1,-6,-3,3,1,-4,5,0,-6,-8,-9,62
-2,-6,-3,4,0,-4,4,0,-6,-8,-9,64
-2,-5,-3,4,0,-4,4,0,-6,-8,-8,63
-2,-4,-3,3,0,-3,4,0,-6,-8,-8,60
-3,-4,-2,3,0,-3,4,0,-6,-8,-8,56
-3,-5,-2,4,0,-3,4,0,-7,-9,-8,49
-3,-5,-2,4,0,-4,4,0,-7,-9,-8,42
-2,-5,-2,3,1,-4,4,0,-7,-9,-8,37
0,-4,-2,2,1,-3,5,0,-7,-9,-8,34
0,-3,-3,2,1,-3,5,0,-7,-9,-8,31
0,-3,-3,2,1,-3,5,0,-7,-9,-8,29
0,-3,-3,2,1,-3,5,0,-7,-9,-8,30
-1,-3,-3,2,1,-3,4,0,-7,-9,-8,32
-1,-3,-2,2,1,-3,4,0,-6,-8,-8,36
-1,-1,-1,1,0,-2,4,0,-6,-8,-8,43
0,0,0,0,0,0,4,0,-6,-8,-8,45
-1,0,1,0,0,0,4,0,-6,-7,-7,43
-1,0,2,0,-1,1,4,0,-5,-7,-7,42
-2,0,3,1,-3,1,4,0,-5,-6,-6,42
-3,0,3,1,-3,2,4,0,-4,-6,-6,42
-2,0,3,0,-2,2,5,0,-4,-6,-6,43
0,1,2,-1,-1,2,5,0,-4,-7,-6,44
0,2,3,-1,-1,2,6,0,-4,-7,-6,47
-1,1,3,0,-2,2,6,0,-4,-7,-6,48
-2,0,3,0,-3,2,6,0,-4,-7,-7,44
-3,0,3,0,-3,2,7,0,-3,-6,-7,39
-2,1,3,0,-3,2,7,0,-3,-6,-6,38
-1,3,3,-1,-3,3,7,0,-2,-5,-5,37
0,4,3,-2,-2,4,6,1,-2,-5,-5,34
0,5,4,-3,-2,4,5,1,-1,-5,-4,30
1,5,4,-3,-2,4,4,0,-2,-5,-4,25
1,5,4,-3,-2,4,2,0,-2,-5,-4,22
1,5,3,-3,-1,4,0,-1,-3,-5,-4,20
2,5,2,-4,0,4,-1,-2,-4,-5,-4,16
3,4,1,-5,1,3,-3,-3,-5,-6,-4,11
3,3,0,-4,1,1,-4,-3,-6,-6,-5,5
4,3,-1,-4,2,1,-4,-4,-7,-7,-5,2
4,3,-1,-4,2,1,-5,-4,-8,-7,-6,1
4,3,-1,-4,2,1,-6,-5,-9,-8,-6,-1
4,4,-1,-4,2,1,-6,-5,-9,-8,-6,-7
4,4,-1,-4,3,1,-7,-5,-9,-8,-6,-14
4,3,-2,-4,3,0,-7,-6,-10,-8,-6,-16
5,3,-2,-4,3,0,-7,-6,-10,-9,-6,-11
7,4,-3,-5,4,0,-7,-6,-11,-9,-5,-6
8,5,-3,-6,5,0,-7,-6,-11,-9,-5,-3
8,5,-3,-7,6,0,-7,-6,-12,-9,-5,-2
8,4,-4,-6,6,0,-7,-6,-12,-9,-5,-1
8,4,-4,-6,6,0,-6,-6,-12,-9,-6,-2
7,3,-4,-5,6,0,-6,-6,-12,-10,-6,-8
7,3,-4,-5,6,0,-6,-6,-12,-10,-6,-12
7,3,-4,-5,5,0,-6,-6,-12,-11,-6,-12
6,2,-4,-4,5,0,-5,-7,-13,-12,-7,-13
4,1,-4,-3,4,-1,-4,-6,-13,-12,-7,-17
3,1,-4,-2,3,-1,-3,-6,-13,-11,-7,-22
3,0,-4,-2,3,-1,-3,-5,-12,-10,-7,-28
3,0,-4,-2,3,-1,-2,-4,-12,-10,-7,-33
2,0,-3,-1,2,-1,-1,-3,-11,-10,-7,-38
2,0,-3,-1,2,-1,0,-2,-10,-9,-7,-48
1,0,-2,-1,1,-1,1,-2,-9,-9,-7,-59
1,0,-2,-1,1,0,1,-1,-9,-9,-7,-59
0,0,-1,0,0,0,2,-1,-9,-10,-7,-48
0,0,-1,0,0,0,2,-1,-9,-10,-8,-32
-1,-1,-1,1,0,-1,3,-2,-10,-11,-8,-18
-2,-2,-1,2,-1,-1,3,-2,-10,-11,-9,-5
-2,-2,-1,2,-1,-1,4,-2,-10,-11,-9,4
-2,-2,-1,2,-1,-2,4,-2,-10,-12,-9,9
-3,-3,-1,3,-1,-2,5,-1,-10,-12,-10,12
-3,-4,-2,4,-1,-3,5,-1,-10,-12,-10,15
-3,-5,-2,4,-1,-4,5,-1,-10,-12,-10,17
-3,-5,-3,5,0,-4,5,-1,-10,-12,-11,18
-4,-6,-3,5,0,-4,5,-1,-10,-12,-11,20
-4,-7,-4,5,0,-4,5,-1,-11,-13,-11,23
-5,-7,-4,6,-1,-5,4,-1,-11,-13,-12,28
-5,-8,-4,6,-1,-5,4,-1,-12,-14,-12,33
-5,-7,-4,5,0,-5,4,-1,-12,-14,-12,34
-3,-6,-4,4,0,-4,5,0,-11,-13,-11,26
-3,-5,-3,3,0,-3,5,0,-10,-13,-11,9
-3,-4,-1,4,-1,-3,6,0,-10,-12,-10,-11
-4,-4,-1,4,-2,-2,6,0,-10,-12,-10,-19
-2,-4,-2,3,-1,-2,6,0,-10,-13,-10,-10
-1,-4,-3,2,0,-3,6,0,-10,-13,-10,-2
-2,-5,-4,3,0,-3,6,0,-11,-13,-11,-3
-3,-6,-4,5,0,-4,5,0,-11,-14,-11,-11
-4,-7,-4,6,-1,-5,5,-1,-11,-14,-12,-19
-4,-7,-4,6,-1,-5,5,-1,-11,-14,-12,-26
-4,-7,-4,5,-1,-5,5,-1,-11,-14,-11,-31
-3,-6,-4,5,-1,-4,5,-1,-11,-14,-11,-32
-4,-6,-3,5,-1,-4,5,-1,-11,-14,-11,-34
-4,-6,-3,5,-1,-4,5,-1,-11,-14,-11,-38
-3,-5,-3,5,-1,-4,5,0,-10,-13,-11,-40
-3,-5,-3,4,-1,-3,5,0,-10,-13,-10,-41
-3,-5,-3,4,0,-3,5,0,-9,-12,-10,-47
-3,-6,-3,4,0,-4,5,0,-9,-12,-9,-56
-2,-6,-4,4,0,-4,5,0,-9,-12,-9,-70
-2,-6,-4,4,0,-4,5,0,-9,-12,-9,-88
-2,-6,-4,4,0,-4,6,1,-9,-13,-10,-103
-2,-6,-5,4,0,-5,6,2,-9,-12,-11,-112
-2,-6,-5,4,1,-5,7,4,-7,-10,-11,-115
-2,-6,-5,4,1,-5,7,5,-5,-8,-10,-114
-2,-6,-5,4,1,-5,6,5,-3,-5,-9,-109
-2,-6,-5,4,1,-5,5,4,1,0,-6,-101
-1,-5,-4,3,1,-4,4,3,7,6,-2,-96
0,-3,-4,1,2,-3,2,2,14,13,3,-94
2,-1,-4,0,2,-2,0,1,18,21,11,-93
5,1,-4,-3,3,0,-4,0,16,27,21,-89
9,5,-4,-7,5,1,-8,-5,8,31,32,-82
14,10,-4,-12,8,4,-14,-12,-5,31,43,-69
20,16,-4,-19,12,7,-22,-22,-22,29,56,-49
27,23,-4,-25,15,10,-30,-32,-41,24,70,-26
33,31,-2,-33,17,15,-39,-44,-61,17,83,-4
40,40,0,-41,19,20,-48,-57,-82,8,97,16
46,49,2,-48,21,26,-56,-68,-102,0,112,35
52,57,3,-54,22,30,-62,-76,-119,-7,126,51
56,61,3,-59,25,33,-65,-81,-136,-15,135,65
60,62,2,-61,28,32,-67,-84,-152,-25,137,78
61,60,-1,-61,30,30,-69,-88,-169,-40,128,87
61,56,-4,-58,32,26,-70,-94,-187,-59,109,90
59,50,-8,-55,33,21,-73,-102,-203,-80,86,91
56,46,-9,-51,32,19,-77,-112,-217,-102,61,87
49,42,-7,-45,27,18,-81,-123,-228,-125,34,73
39,37,-3,-38,20,17,-83,-133,-233,-147,6,50
29,33,2,-31,12,18,-82,-138,-231,-165,-22,26
21,30,8,-25,6,19,-79,-137,-223,-176,-46,3
13,28,13,-20,0,21,-74,-134,-211,-179,-62,-18
6,25,18,-15,-6,22,-69,-129,-197,-175,-72,-38
0,22,22,-10,-11,22,-62,-121,-181,-167,-76,-53
-4,21,26,-7,-15,23,-54,-110,-162,-155,-74,-63
-8,19,27,-5,-18,23,-46,-98,-142,-139,-70,-69
-11,14,24,-1,-18,20,-37,-83,-121,-120,-64,-71
-14,7,20,3,-18,14,-28,-67,-99,-101,-56,-65
-15,2,16,7,-17,9,-19,-52,-79,-82,-48,-61
-16,-1,13,9,-15,6,-12,-39,-61,-66,-41,-53
-15,-3,10,9,-13,4,-6,-28,-47,-52,-34,-11
-13,-4,8,9,-11,2,-1,-19,-34,-41,-28,50
-12,-5,5,8,-9,1,2,-12,-24,-32,-23,98
-11,-6,3,8,-8,0,5,-6,-16,-25,-19,135
-11,-7,2,8,-7,-1,7,-2,-10,-19,-16,152
-9,-8,0,8,-6,-3,8,1,-6,-15,-14,145
-7,-7,-1,7,-4,-3,9,3,-3,-12,-13,129
-7,-7,-2,7,-4,-4,10,5,-1,-10,-13,107
-9,-9,-1,9,-5,-5,10,6,0,-8,-13,71
-10,-10,-1,10,-5,-5,11,7,2,-7,-13,35
-10,-10,-1,10,-5,-5,11,8,3,-6,-12,7
-9,-10,-2,10,-4,-5,12,9,5,-5,-12,-9
-8,-9,-2,9,-3,-5,12,10,6,-5,-11,-12
-8,-9,-3,8,-3,-5,12,10,7,-4,-11,-7
-8,-10,-3,9,-4,-6,12,11,7,-3,-11,2
-9,-10,-2,9,-4,-6,12,11,8,-2,-10,7
-9,-9,-2,9,-4,-5,13,11,8,-1,-10,9
-8,-9,-2,8,-4,-5,13,12,9,-1,-10,13
-7,-8,-2,8,-3,-5,13,12,9,-1,-10,23
-7,-8,-2,8,-3,-5,13,12,10,-1,-10,38
-7,-8,-2,8,-3,-5,13,12,10,-1,-10,47
-7,-9,-2,8,-3,-5,13,12,11,0,-10,44
-7,-9,-3,8,-3,-5,13,12,11,0,-10,28
-7,-9,-3,8,-3,-5,13,12,11,0,-10,-1
-7,-8,-2,8,-3,-5,13,12,11,0,-10,-33
-7,-8,-2,8,-3,-5,13,12,11,0,-10,-57
-7,-8,-3,8,-3,-5,13,13,12,0,-10,-73
-7,-8,-3,8,-3,-5,14,13,12,1,-10,-84
-7,-9,-3,8,-3,-5,13,13,12,1,-10,-91
-8,-10,-3,9,-3,-6,13,13,12,1,-10,-95
-9,-10,-3,9,-4,-6,13,12,12,1,-10,-96
-8,-9,-3,9,-3,-6,13,12,12,1,-9,-94
-7,-8,-2,7,-3,-5,13,13,13,2,-8,-89
-6,-6,-2,6,-2,-5,14,13,13,2,-8,-84
-5,-6,-2,6,-2,-5,14,13,13,2,-8,-84
-6,-7,-2,7,-3,-5,13,12,13,2,-8,-86
-6,-8,-2,7,-3,-5,13,12,13,2,-9,-84
-7,-8,-2,8,-3,-5,13,13,13,2,-9,-81
-8,-9,-2,8,-3,-5,13,13,13,2,-9,-80
-8,-8,-1,8,-4,-4,13,13,13,2,-8,-82
-8,-8,-1,8,-4,-4,13,13,13,3,-8,-83
-8,-8,-1,8,-4,-4,12,12,13,3,-8,-82
-7,-8,-1,8,-4,-5,12,12,13,3,-8,-81
-7,-8,-1,8,-4,-5,12,12,13,3,-8,-81
-8,-8,-1,8,-4,-5,12,12,14,3,-8,-82
-7,-7,-1,7,-4,-5,12,12,14,3,-8,-81
-6,-7,-1,6,-3,-5,12,12,14,3,-8,-74
-6,-7,-1,6,-3,-5,12,12,15,4,-7,-63
-6,-7,-1,6,-3,-5,12,12,15,4,-7,-43
-6,-7,-1,6,-4,-4,12,12,15,4,-7,-10
-6,-7,-1,6,-4,-4,12,13,15,5,-7,30
-6,-7,-1,6,-4,-4,12,13,15,5,-7,69
-6,-6,0,6,-4,-4,12,13,15,6,-7,100
-6,-6,-1,6,-4,-4,12,13,16,6,-7,122
-6,-5,-1,5,-3,-3,12,13,16,6,-7,134
-6,-5,-1,5,-3,-3,12,13,17,7,-6,140
-6,-5,-1,5,-3,-3,12,13,17,7,-6,145
-6,-5,-1,6,-3,-3,12,13,17,8,-6,147
-6,-6,-1,6,-3,-3,12,13,17,8,-6,148
-7,-6,0,7,-4,-3,12,14,17,8,-5,146
-8,-6,0,7,-5,-3,12,14,18,9,-5,145
-8,-6,0,7,-5,-3,12,14,18,9,-4,140
-7,-6,0,6,-4,-3,12,14,18,9,-4,99
-7,-6,0,6,-4,-3,11,14,18,9,-4,23
-7,-7,0,6,-4,-3,11,14,19,9,-4,-41
-6,-6,0,6,-4,-3,11,14,19,10,-4,-78
-5,-5,0,5,-3,-3,12,14,20,10,-4,-99
-5,-4,0,4,-3,-2,12,15,20,11,-3,-112
-4,-4,-1,4,-3,-2,12,15,21,12,-3,-119
-5,-4,-1,4,-3,-2,12,15,21,12,-3,-123
-6,-5,0,5,-3,-2,12,15,22,13,-2,-125
-6,-5,0,6,-4,-2,12,15,22,13,-2,-126
-7,-6,0,6,-5,-2,12,15,23,14,-2,-127
-7,-6,0,7,-5,-3,11,15,23,14,-2,-127
-7,-6,0,6,-4,-3,11,16,24,15,-1,-129
-6,-5,0,6,-4,-3,11,16,24,16,-1,-120
-6,-4,0,5,-4,-3,11,17,25,17,0,-69
-5,-4,0,5,-4,-3,11,17,25,18,0,2
-6,-5,0,5,-4,-3,11,17,26,19,0,47
-6,-5,0,5,-4,-2,11,17,26,20,1,67
-6,-4,0,5,-4,-2,11,18,27,21,1,78
-6,-5,1,6,-4,-2,11,18,28,22,2,80
-7,-5,1,6,-5,-2,10,18,28,23,2,80
-8,-6,0,7,-5,-2,10,19,29,24,3,83
-7,-5,0,6,-5,-2,10,19,30,25,3,85
-6,-4,0,5,-5,-2,10,20,32,27,4,83
-5,-3,0,4,-4,-1,10,20,33,29,5,76
-4,-2,0,3,-4,-1,10,21,35,31,7,66
-2,-1,0,2,-3,0,10,22,36,33,8,52
-1,0,0,0,-2,0,11,23,38,35,10,30
-1,0,0,0,-2,1,11,24,39,37,12,9
-1,0,0,0,-2,1,11,25,40,39,13,0
-2,0,0,0,-2,1,11,25,41,41,13,0
-1,0,0,0,-2,1,11,26,43,43,14,4
-1,0,0,0,-2,1,11,27,45,46,16,3
-1,0,0,0,-2,0,11,28,47,49,17,-7
-2,0,0,1,-2,0,10,29,49,51,19,-22
-2,-1,0,1,-2,0,10,30,51,54,21,-32
-2,0,0,0,-2,0,10,31,53,57,23,-36
0,1,0,-1,-1,1,10,33,55,61,26,-39
1,3,0,-2,0,1,10,34,57,65,28,-45
2,4,0,-3,0,1,10,36,60,68,30,-51
2,4,0,-3,0,1,10,37,62,72,33,-56
2,4,1,-3,-1,2,10,38,65,76,35,-59
2,4,1,-3,-1,2,10,40,68,80,38,-57
3,5,1,-4,0,3,10,41,70,84,41,-55
4,7,1,-6,0,4,9,43,73,87,44,-52
6,9,1,-8,1,4,9,44,75,91,47,-46
7,10,1,-8,1,5,9,45,77,94,49,-41
7,10,2,-8,1,5,8,46,79,97,51,-37
6,10,2,-8,0,5,8,47,80,100,53,-31
6,10,3,-8,0,6,7,47,82,103,55,-18
7,11,3,-9,0,6,7,48,84,106,58,-3
8,13,4,-10,1,8,7,49,86,108,60,11
8,14,5,-11,1,9,6,49,87,110,63,21
8,15,6,-12,0,10,6,50,88,111,65,37
8,16,7,-12,0,11,5,50,88,112,66,83
9,18,7,-13,0,12,5,50,89,113,67,158
10,19,8,-15,0,13,5,50,89,113,68,222
10,20,9,-15,0,14,5,49,88,112,69,253
11,21,9,-16,0,15,4,48,87,111,69,266
12,21,9,-16,0,15,3,46,85,108,68,277
12,22,9,-17,0,16,2,44,83,105,67,287
12,22,10,-17,0,16,2,43,80,102,66,291
12,23,11,-17,0,17,2,41,78,98,65,286
11,23,11,-17,-1,17,1,38,74,93,62,277
11,23,11,-17,-1,17,1,36,70,88,59,271
10,23,12,-16,-1,17,0,33,66,83,56,274
10,22,12,-16,-1,17,0,30,62,77,53,271
8,21,12,-15,-2,16,0,28,58,72,50,252
7,20,12,-14,-3,16,-1,25,53,66,47,232
6,19,12,-13,-3,16,-1,23,49,60,44,211
6,19,12,-12,-4,16,-1,20,44,54,40,170
6,19,11,-12,-4,16,-1,18,40,48,36,119
7,18,11,-12,-3,15,-1,15,36,43,32,97
7,17,10,-12,-3,14,-1,13,32,37,28,110
6,16,9,-11,-3,13,-1,10,28,32,24,115
6,15,9,-10,-3,12,-1,8,24,28,21,98
5,14,8,-10,-3,11,-1,7,21,23,18,74
4,12,7,-8,-3,10,-1,5,18,19,15,48
3,10,7,-7,-3,9,-1,4,15,14,12,25
2,9,6,-6,-3,8,-1,3,12,10,9,14
2,7,6,-4,-3,7,-1,2,9,7,6,6
0,6,5,-3,-3,6,-1,1,7,4,4,-5
0,5,5,-2,-3,5,-1,0,5,1,1,-16
0,4,4,-2,-3,4,-1,0,4,0,0,-22
0,4,3,-2,-3,4,0,-1,2,-2,-1,-30
0,3,2,-1,-3,3,0,-1,1,-4,-3,-45
-1,2,2,0,-3,2,0,-2,0,-6,-4,-60
-1,1,1,0,-3,1,0,-2,-1,-7,-5,-63
-1,1,1,0,-3,1,0,-2,-2,-9,-6,-55
0,1,1,0,-2,1,0,-2,-2,-9,-7,-45
-1,0,1,0,-2,0,0,-3,-3,-10,-8,-38
-1,0,1,1,-3,0,0,-3,-3,-11,-9,-38
-2,-1,0,2,-3,0,0,-3,-4,-12,-9,-42
-2,-1,0,2,-3,-1,0,-3,-4,-12,-9,-46
-2,-1,0,2,-3,-1,0,-3,-5,-13,-9,-44
-2,-1,0,2,-3,-1,0,-3,-5,-13,-10,-38
-3,-2,0,2,-3,-1,0,-4,-6,-14,-10,-27
-4,-2,0,3,-3,-2,0,-4,-6,-15,-11,-7
-3,-2,0,2,-3,-2,1,-4,-7,-15,-11,11
-2,-1,0,1,-2,-1,1,-4,-7,-15,-11,20
-2,-1,0,1,-2,-1,1,-4,-7,-15,-11,24
-3,-2,0,2,-3,-1,1,-5,-7,-15,-11,29
-4,-2,0,3,-3,-1,1,-5,-7,-15,-11,26
-4,-3,0,4,-3,-2,1,-5,-7,-15,-11,8
-5,-3,0,4,-3,-2,1,-5,-8,-16,-12,-17
-5,-4,0,4,-3,-2,1,-5,-8,-16,-12,-29
-4,-3,0,4,-3,-2,1,-5,-8,-16,-12,-25
-4,-4,0,4,-3,-3,1,-5,-8,-16,-12,-21
-4,-4,-1,4,-3,-3,1,-5,-8,-16,-13,-22
-4,-4,-1,4,-3,-3,1,-5,-8,-16,-13,-25
-3,-3,-1,3,-3,-2,1,-5,-8,-16,-13,-28
-3,-3,-1,3,-3,-2,2,-5,-8,-16,-13,-30
-3,-3,-1,3,-3,-2,2,-5,-8,-16,-13,-29
-3,-3,-1,3,-2,-2,2,-5,-8,-16,-13,-26
-3,-3,-1,3,-2,-2,2,-5,-8,-16,-13,-21
-3,-3,-1,3,-2,-2,2,-5,-8,-16,-13,-16
-3,-4,-1,3,-2,-2,2,-5,-8,-16,-13,-12
-4,-4,-1,3,-3,-2,2,-5,-8,-16,-13,-14
-5,-5,0,4,-3,-2,2,-5,-8,-16,-13,-21
-5,-5,0,5,-3,-3,2,-5,-8,-16,-13,-25
-5,-5,-1,4,-3,-3,2,-5,-8,-16,-13,-29
-4,-5,-2,4,-2,-3,2,-5,-8,-16,-13,-35
-4,-5,-1,4,-2,-3,2,-5,-8,-16,-13,-41
-4,-5,-1,4,-2,-3,2,-5,-8,-16,-13,-46
-4,-4,-1,4,-2,-3,2,-5,-8,-16,-13,-52
-4,-4,-1,3,-2,-3,2,-5,-8,-16,-14,-56
-4,-4,-1,4,-2,-3,1,-5,-8,-16,-14,-58
-5,-5,-1,5,-3,-4,1,-5,-8,-16,-14,-59
-5,-6,-1,5,-3,-4,1,-5,-8,-16,-14,-59
-5,-6,-1,5,-3,-4,1,-4,-7,-16,-14,-61
-5,-5,-1,5,-3,-3,1,-4,-7,-16,-14,-68
-5,-5,-1,5,-3,-3,2,-4,-6,-16,-14,-78
-5,-5,-1,5,-2,-3,2,-4,-6,-15,-14,-85
-4,-4,-1,4,-2,-3,2,-4,-6,-15,-14,-89
-3,-4,-1,3,-2,-2,2,-3,-6,-14,-14,-91
-3,-4,-1,3,-2,-2,2,-3,-6,-14,-14,-91
-4,-4,-1,4,-2,-3,2,-3,-5,-14,-14,-92
-5,-5,-1,5,-3,-3,2,-3,-5,-14,-14,-93
-6,-6,-1,5,-3,-3,2,-3,-5,-14,-14,-94
-6,-6,-1,5,-3,-3,2,-3,-4,-14,-13,-95
-5,-5,-1,5,-3,-3,2,-3,-4,-13,-13,-95
-4,-5,-1,4,-2,-3,2,-3,-3,-13,-13,-94
-3,-4,-1,3,-2,-3,2,-3,-3,-13,-13,-93
-3,-4,-1,3,-1,-3,2,-3,-3,-12,-13,-92
-3,-3,-1,3,-1,-3,2,-3,-3,-12,-13,-91
-3,-3,-1,3,-1,-3,2,-3,-3,-12,-12,-91
-4,-3,-1,3,-1,-3,2,-3,-3,-12,-12,-91
-4,-4,-1,4,-1,-3,2,-2,-3,-12,-12,-92
-4,-4,-1,4,-1,-3,2,-2,-2,-12,-12,-92
-4,-5,-1,4,-2,-3,2,-2,-2,-12,-12,-91
-4,-5,-1,4,-2,-3,2,-2,-2,-11,-12,-91
-4,-6,-1,4,-2,-3,2,-2,-1,-11,-12,-90
-4,-5,-1,4,-2,-3,2,-2,-1,-10,-12,-89
-3,-4,-1,3,-1,-3,2,-1,0,-9,-11,-88
-2,-4,-1,3,-1,-3,2,-1,0,-9,-10,-88
-3,-4,-1,3,-1,-3,2,-1,0,-9,-10,-88
-3,-4,-1,4,-1,-3,2,-1,0,-9,-10,-88
-3,-5,-1,4,-1,-3,2,-1,0,-9,-10,-87
-3,-5,-1,4,-1,-3,2,-1,0,-9,-10,-87
-3,-4,-1,3,-1,-3,2,-1,0,-8,-10,-86
-3,-4,-1,3,-1,-3,2,-1,0,-8,-10,-86
-4,-5,-1,4,-2,-3,2,-2,0,-8,-10,-86
-5,-6,-1,5,-2,-4,1,-2,0,-8,-10,-86
-5,-6,-1,5,-2,-4,1,-1,0,-8,-10,-86
-4,-4,-1,4,-2,-2,2,-1,0,-8,-9,-85
-3,-3,-1,3,-1,-2,2,0,1,-7,-9,-84
-3,-4,-2,3,-1,-2,2,0,0,-8,-9,-84
-3,-5,-2,3,-1,-3,1,-1,0,-8,-10,-84
-3,-5,-2,3,-1,-3,1,-1,0,-8,-10,-83
-3,-4,-2,3,-1,-3,1,-1,0,-8,-9,-82
-3,-4,-2,3,-1,-3,1,-1,1,-7,-9,-82
-2,-3,-2,2,-1,-2,1,-1,1,-7,-9,-81
-2,-3,-2,2,-1,-2,1,-1,1,-7,-9,-81
-2,-3,-2,2,-1,-2,1,-1,1,-7,-9,-80
-2,-3,-2,2,-1,-2,1,-1,1,-7,-9,-80
-3,-4,-1,3,-2,-2,1,-1,1,-7,-9,-80
-4,-4,0,4,-2,-2,1,-1,1,-7,-9,-79
-4,-4,-1,4,-2,-2,1,-1,0,-7,-9,-79
-3,-4,-2,3,-1,-3,1,-1,0,-7,-9,-79
-2,-4,-2,2,0,-2,1,-1,0,-7,-9,-79
-1,-3,-2,2,0,-2,1,-1,0,-7,-9,-78
-1,-3,-2,1,0,-1,1,-1,0,-7,-9,-78
-2,-3,-2,2,0,-1,1,-1,0,-8,-9,-77
-2,-3,-1,2,-1,-1,1,-1,0,-8,-9,-77
-2,-3,-1,1,-1,-1,1,-1,0,-7,-8,-76
-2,-2,0,1,-1,0,1,-1,0,-7,-8,-76
-2,-1,0,1,-1,0,1,-1,1,-7,-8,-75
-2,-1,0,1,-2,0,1,-2,1,-7,-8,-75
-3,-1,1,1,-3,0,1,-2,1,-7,-8,-75
-3,0,2,1,-3,1,1,-2,1,-7,-8,-75
-2,1,3,0,-3,2,2,-2,2,-7,-7,-74
-2,2,3,0,-3,3,2,-2,3,-6,-7,-74
-2,2,4,0,-4,3,2,-2,3,-6,-7,-73
-2,2,4,0,-4,3,2,-2,3,-6,-7,-73
-2,3,5,-1,-4,4,3,-2,4,-6,-6,-72
-1,4,5,-1,-4,4,4,-1,4,-5,-6,-72
-1,4,5,-2,-4,5,4,-1,5,-5,-6,-71
-1,4,5,-2,-4,5,4,-1,5,-4,-6,-71
-1,4,5,-2,-4,5,4,-1,6,-4,-6,-70
-1,5,5,-2,-4,5,3,-1,6,-4,-5,-70
0,6,5,-3,-3,5,2,-1,6,-4,-5,-69
0,6,4,-4,-3,5,0,-1,5,-3,-5,-68
0,6,4,-4,-2,5,-2,-2,5,-3,-5,-67
1,6,3,-4,-2,4,-4,-4,4,-4,-5,-65
1,5,2,-3,-1,4,-5,-5,2,-4,-5,-64
1,3,1,-2,-1,2,-6,-6,0,-5,-6,-62
1,2,0,-2,0,1,-7,-6,-1,-6,-6,-60
2,2,0,-2,0,1,-7,-7,-2,-7,-6,-57
3,3,-1,-3,1,2,-8,-7,-2,-7,-6,-55
3,4,-1,-4,1,2,-9,-8,-3,-7,-6,-52
3,4,-1,-4,1,2,-10,-8,-3,-8,-6,-50
3,4,-1,-4,1,2,-11,-9,-4,-8,-6,-49
3,4,-1,-4,1,2,-11,-9,-4,-8,-6,-49
3,4,-1,-4,1,2,-11,-9,-5,-9,-6,-50
4,4,-1,-4,2,2,-11,-9,-5,-9,-6,-51
6,4,-2,-5,3,2,-11,-9,-5,-9,-6,-52
6,3,-2,-5,3,1,-11,-9,-6,-9,-7,-53
6,2,-3,-5,3,1,-11,-9,-6,-10,-7,-54
5,2,-3,-4,3,0,-10,-9,-6,-10,-8,-55
5,1,-3,-4,3,0,-10,-9,-6,-11,-8,-56
5,1,-3,-4,3,0,-9,-9,-6,-11,-8,-57
5,1,-3,-4,3,0,-9,-9,-6,-11,-8,-57
5,1,-3,-4,3,0,-8,-9,-6,-11,-8,-57
4,1,-3,-3,3,0,-7,-9,-6,-11,-8,-57
3,1,-3,-3,2,0,-6,-8,-6,-11,-8,-57
3,1,-2,-3,1,0,-5,-7,-5,-10,-8,-57
3,1,-2,-3,1,0,-5,-6,-4,-10,-7,-57
2,0,-1,-2,1,0,-4,-5,-4,-9,-7,-57
0,0,-1,-1,0,0,-3,-5,-3,-9,-7,-58
0,0,0,0,0,0,-2,-4,-3,-8,-7,-58
0,0,0,-1,0,1,-1,-4,-2,-8,-7,-58
1,1,0,-2,0,1,0,-4,-2,-8,-7,-58
1,0,0,-1,0,0,1,-4,-3,-9,-7,-59
0,-1,0,0,-1,0,1,-4,-3,-9,-8,-60
-1,-2,0,1,-2,0,2,-4,-3,-10,-9,-60
-3,-2,0,2,-2,0,3,-3,-3,-10,-9,-61
-3,-3,0,3,-3,0,3,-3,-3,-10,-10,-61
-4,-4,-1,3,-2,-2,3,-3,-4,-10,-11,-62
-4,-5,-2,4,-2,-3,3,-3,-4,-11,-12,-63
-4,-6,-2,4,-2,-3,3,-3,-5,-12,-12,-63
-4,-6,-2,5,-2,-4,3,-3,-5,-12,-12,-63
-5,-6,-2,5,-2,-4,3,-3,-5,-12,-12,-63
-4,-6,-3,5,-2,-4,3,-3,-5,-12,-12,-63
-4,-6,-3,5,-1,-3,3,-3,-5,-12,-12,-63
-4,-6,-3,5,-1,-3,3,-3,-5,-12,-12,-63
-4,-6,-3,5,-1,-3,3,-3,-5,-12,-12,-63
-4,-6,-2,5,-1,-3,3,-3,-4,-12,-12,-63
-4,-6,-2,5,-1,-3,3,-3,-4,-12,-12,-63
-5,-6,-2,5,-1,-4,3,-3,-4,-12,-12,-62
-5,-7,-3,6,-1,-4,3,-3,-4,-12,-12,-62
-5,-7,-3,6,-2,-5,2,-3,-5,-12,-12,-62
-5,-7,-3,6,-1,-5,2,-3,-5,-12,-12,-62
-4,-7,-3,5,-1,-4,3,-3,-5,-12,-12,-61
-3,-6,-3,5,-1,-4,3,-2,-5,-12,-12,-61
-3,-6,-3,5,-1,-4,3,-2,-5,-12,-12,-61
-3,-6,-3,5,-1,-4,3,-2,-5,-12,-12,-61
-3,-6,-3,5,-1,-4,3,-2,-4,-12,-12,-61
-3,-6,-3,5,-1,-4,3,-2,-4,-12,-12,-60
-3,-6,-3,5,-1,-4,3,-2,-4,-12,-12,-60
-4,-6,-3,5,-1,-4,3,-2,-4,-12,-12,-60
-4,-6,-3,5,-1,-4,3,-2,-4,-12,-12,-60
-5,-7,-3,6,-1,-4,3,-2,-4,-12,-12,-60
-5,-7,-2,7,-2,-4,3,-3,-4,-12,-12,-59
-5,-7,-2,7,-2,-4,3,-3,-4,-12,-12,-59
-5,-7,-2,6,-2,-4,3,-2,-4,-12,-12,-59
-4,-7,-3,6,-1,-4,3,-1,-4,-12,-12,-59
-4,-7,-3,5,-1,-5,4,0,-3,-12,-12,-59
-3,-8,-4,6,0,-5,4,1,-1,-11,-12,-59
-3,-9,-5,6,0,-6,4,2,0,-9,-12,-59
-3,-9,-6,6,0,-7,4,3,3,-5,-10,-59
-2,-8,-6,5,0,-6,4,3,6,-1,-8,-59
-2,-6,-5,5,0,-5,3,2,11,5,-4,-57
-2,-4,-4,4,0,-3,0,0,17,13,1,-54
0,-2,-3,2,1,-1,-2,-1,20,21,9,-49
2,1,-2,-1,2,0,-6,-4,19,27,18,-42
6,6,-1,-6,3,3,-10,-8,12,30,28,-34
12,11,-1,-11,5,6,-15,-16,0,31,39,-23
17,16,-1,-17,8,8,-22,-25,-17,29,51,-10
22,22,-1,-22,11,11,-30,-35,-37,24,63,3
28,29,0,-28,13,15,-39,-46,-57,16,76,19
34,38,3,-35,14,20,-47,-58,-80,6,89,36
40,47,5,-43,16,26,-55,-69,-103,-4,103,54
46,55,7,-50,18,32,-62,-78,-122,-13,117,72
52,61,7,-56,21,35,-66,-83,-139,-22,130,88
57,63,5,-60,24,35,-70,-86,-155,-31,137,100
60,61,0,-61,28,32,-73,-91,-172,-43,133,106
61,57,-4,-59,32,27,-75,-97,-190,-61,118,105
61,51,-10,-56,34,21,-79,-105,-207,-82,96,99
59,46,-14,-53,35,17,-83,-114,-222,-103,71,91
55,42,-14,-48,33,15,-87,-124,-232,-125,45,80
47,38,-9,-42,27,15,-89,-133,-237,-146,17,65
38,34,-4,-35,20,16,-89,-140,-236,-164,-10,48
30,31,0,-30,13,16,-87,-142,-230,-179,-36,28
22,27,4,-24,7,16,-83,-141,-220,-186,-56,8
14,23,9,-18,1,17,-77,-137,-207,-186,-69,-10
6,21,14,-13,-5,18,-70,-130,-191,-179,-75,-25
0,20,19,-10,-10,20,-63,-121,-174,-168,-76,-37
-4,19,22,-7,-14,21,-56,-110,-154,-154,-74,-48
-8,15,23,-3,-16,19,-47,-97,-133,-136,-69,-58
-10,10,20,0,-16,15,-37,-81,-111,-116,-62,-66
-12,4,16,4,-15,10,-27,-65,-89,-96,-54,-71
-14,-1,13,7,-15,6,-19,-51,-69,-79,-47,-74
-15,-5,10,10,-14,3,-11,-38,-53,-64,-40,-75
-15,-7,7,11,-12,1,-5,-28,-39,-51,-33,-74
-13,-8,4,11,-9,-1,0,-19,-27,-39,-27,-73
-11,-9,2,10,-7,-2,3,-12,-17,-29,-22,-70
-10,-9,0,10,-6,-3,5,-6,-10,-22,-19,-68
-9,-9,-1,10,-5,-4,6,-2,-5,-17,-16,-66
-8,-9,-1,10,-4,-5,7,0,-1,-14,-15,-64
-8,-10,-2,10,-4,-5,7,1,1,-11,-14,-63
-9,-10,-2,10,-4,-5,8,2,3,-10,-13,-63
-8,-10,-2,9,-4,-5,9,3,5,-8,-13,-62
-8,-10,-2,9,-4,-5,10,5,7,-7,-12,-62
-8,-10,-2,9,-4,-6,11,6,9,-5,-12,-61
-8,-11,-3,9,-4,-6,11,8,10,-4,-12,-61
-8,-11,-3,9,-4,-6,12,9,11,-3,-12,-60
-9,-12,-3,10,-4,-6,12,9,11,-3,-12,-60
-9,-12,-3,10,-4,-7,11,9,11,-2,-12,-59
-9,-12,-3,10,-4,-7,11,9,12,-2,-12,-59
-9,-11,-3,10,-4,-6,11,9,12,-1,-12,-58
-9,-11,-3,10,-4,-6,11,9,13,-1,-12,-58
-9,-12,-3,10,-4,-7,12,9,13,-1,-12,-58
-9,-12,-4,10,-4,-7,12,10,13,-1,-12,-58
-8,-11,-4,10,-3,-7,12,10,14,0,-12,-57
-7,-11,-3,9,-3,-7,13,11,14,0,-11,-56
-7,-10,-3,9,-3,-6,13,11,15,0,-11,-56
-7,-10,-3,9,-3,-6,13,11,15,0,-11,-55
-8,-11,-2,9,-3,-6,12,10,15,0,-11,-55
-8,-11,-2,9,-3,-6,12,10,15,0,-11,-55
-7,-10,-2,9,-3,-5,12,11,16,0,-11,-55
-7,-9,-2,8,-3,-5,12,11,16,1,-11,-54
-8,-10,-2,9,-3,-6,12,11,15,1,-11,-54
-8,-10,-2,9,-3,-6,12,11,15,1,-11,-54
-8,-10,-2,9,-3,-6,12,11,15,1,-11,-53
-7,-10,-2,9,-3,-6,12,11,16,1,-11,-53
-7,-10,-2,9,-3,-6,12,11,16,1,-11,-53
-8,-10,-2,9,-3,-5,12,11,16,1,-11,-53
-8,-10,-2,9,-3,-5,12,11,16,2,-10,-52
-8,-10,-2,9,-4,-5,12,11,16,2,-10,-52
-7,-10,-2,9,-4,-5,12,11,16,2,-10,-51
-7,-9,-2,9,-4,-5,12,11,16,2,-10,-51
-7,-9,-2,8,-4,-5,12,11,16,2,-10,-51
-7,-8,-1,8,-4,-4,12,11,16,2,-10,-50
-6,-8,-1,7,-3,-4,12,11,17,3,-9,-50
-6,-7,-1,7,-3,-4,12,11,17,3,-9,-50
-7,-7,-1,7,-4,-4,12,11,18,4,-8,-49
-8,-8,0,8,-4,-4,12,11,18,4,-8,-49
-8,-8,-1,8,-4,-4,12,11,18,4,-8,-49
-7,-8,-1,8,-4,-4,12,11,17,3,-8,-49
-6,-8,-1,8,-3,-4,12,12,17,3,-8,-49
-7,-8,-1,8,-4,-4,12,12,17,4,-8,-49
-7,-8,-1,8,-4,-4,11,12,17,4,-8,-49
-7,-8,-1,8,-4,-4,11,12,18,4,-8,-49
-7,-8,-1,7,-4,-4,11,12,18,4,-8,-48
-7,-8,-1,7,-4,-4,11,12,19,5,-8,-48
-7,-7,-1,7,-4,-4,11,12,19,5,-8,-47
-7,-7,-1,7,-4,-3,11,12,19,6,-8,-47
-7,-8,-1,7,-4,-4,11,12,19,6,-8,-47
-7,-8,-1,8,-4,-4,11,12,19,6,-8,-47
-7,-8,-2,8,-4,-5,11,12,19,6,-8,-46
-6,-8,-2,7,-3,-5,11,12,20,7,-7,-46
-6,-8,-2,7,-3,-5,11,12,20,7,-7,-46
-6,-7,-1,6,-3,-4,11,12,20,8,-6,-46
