leadI,leadII,leadIII,leadaVR,leadaVL,leadaVF,leadV1,leadV2,leadV3,leadV4,leadV5,leadV6
2,2,0,-2,1,0,-1,-1,1,49,-1,2
6,4,-1,-5,4,1,-4,-4,2,125,-2,5
8,5,-3,-7,5,1,-5,-6,2,166,-4,6
10,6,-4,-8,7,0,-6,-7,2,190,-5,6
11,5,-6,-9,8,0,-7,-8,3,203,-5,7
8,5,-3,-7,5,0,-5,-7,4,209,-4,9
0,4,5,-3,-2,4,-2,-4,6,210,-1,12
-3,5,9,-1,-6,6,0,-2,8,205,0,13
0,6,7,-3,-3,6,0,-3,8,196,0,13
2,7,5,-5,-1,5,-1,-4,7,185,-1,12
3,7,4,-6,0,5,-2,-4,6,175,-2,11
6,8,2,-7,2,5,-3,-5,5,165,-3,10
8,9,1,-9,4,5,-4,-6,4,156,-4,8
10,10,1,-10,4,5,-4,-7,3,148,-4,8
9,11,3,-10,3,7,-4,-7,3,142,-3,10
9,11,3,-10,3,7,-4,-7,3,137,-2,11
9,11,3,-10,3,6,-4,-7,2,130,-1,12
8,11,4,-9,2,7,-4,-7,2,121,0,13
6,12,7,-9,0,9,-4,-7,2,107,0,14
5,14,9,-9,-2,12,-4,-7,2,90,0,15
4,16,11,-10,-3,14,-5,-7,2,73,2,16
3,17,14,-9,-5,15,-4,-5,5,62,6,19
2,17,15,-9,-6,16,-4,-1,9,55,13,23
6,18,13,-12,-3,15,-5,4,16,49,22,28
12,20,8,-16,2,14,-6,13,25,43,35,36
17,20,4,-18,6,12,-8,26,40,41,51,46
20,21,2,-20,9,11,-9,39,58,42,71,58
21,22,2,-22,10,12,-9,47,70,42,91,72
20,24,4,-22,8,14,-9,43,70,35,107,84
20,24,5,-22,8,14,-10,31,57,20,117,91
24,24,1,-24,12,12,-12,12,38,-2,121,93
27,23,-3,-25,16,9,-15,-10,15,-29,118,91
26,20,-5,-23,16,6,-15,-32,-10,-63,105,83
23,16,-7,-20,15,4,-14,-55,-39,-106,79,70
20,13,-8,-17,14,2,-12,-76,-68,-153,47,52
20,11,-9,-16,15,1,-9,-92,-91,-196,17,34
19,10,-9,-14,14,1,-8,-106,-110,-232,-7,19
16,8,-8,-12,13,0,-8,-120,-125,-264,-28,4
13,6,-6,-9,10,0,-9,-130,-136,-292,-48,-9
8,4,-3,-6,6,0,-8,-136,-143,-319,-66,-22
2,2,0,-2,2,0,-7,-138,-148,-346,-82,-33
0,-2,-3,0,2,-2,-8,-138,-152,-369,-92,-41
0,-6,-7,2,4,-7,-9,-138,-153,-386,-98,-45
1,-11,-12,4,7,-11,-11,-136,-150,-396,-99,-45
1,-14,-15,5,9,-14,-13,-131,-143,-399,-95,-43
1,-15,-16,6,9,-15,-14,-123,-130,-396,-88,-38
1,-14,-14,6,8,-14,-15,-113,-116,-388,-79,-33
1,-11,-11,4,7,-11,-16,-102,-101,-377,-68,-26
4,-6,-9,1,7,-8,-17,-90,-85,-368,-57,-18
7,0,-7,-3,8,-4,-17,-78,-71,-361,-46,-12
9,4,-5,-7,8,-1,-18,-66,-59,-356,-38,-9
9,6,-4,-9,7,1,-18,-55,-48,-353,-30,-6
10,7,-3,-10,6,2,-17,-44,-39,-352,-25,-3
10,8,-2,-10,7,3,-16,-35,-32,-355,-22,-2
11,9,-2,-11,7,4,-15,-28,-27,-357,-20,0
13,10,-2,-11,8,4,-15,-23,-23,-360,-18,2
15,12,-2,-13,9,4,-16,-20,-19,-362,-16,4
16,13,-3,-14,10,4,-15,-16,-15,-364,-13,5
15,13,-2,-14,9,5,-13,-13,-12,-369,-10,4
15,12,-2,-14,9,5,-13,-11,-10,-375,-9,4
16,13,-3,-16,10,5,-12,-10,-10,-380,-9,4
17,14,-3,-17,11,5,-12,-9,-9,-386,-11,4
17,13,-3,-16,11,5,-12,-8,-9,-392,-12,3
15,10,-3,-13,10,3,-11,-7,-8,-398,-11,4
11,9,-1,-10,7,4,-10,-6,-6,-402,-8,9
11,9,-1,-10,7,4,-8,-5,-5,-407,-6,13
13,9,-4,-11,9,3,-9,-6,-6,-414,-5,15
14,8,-6,-12,11,1,-9,-6,-6,-421,-5,16
13,7,-5,-11,9,1,-9,-6,-6,-426,-3,17
12,7,-5,-10,9,1,-10,-5,-6,-428,-2,17
13,8,-6,-11,10,1,-10,-5,-6,-428,-2,16
14,9,-4,-12,10,2,-10,-5,-6,-428,-3,15
13,10,-2,-12,9,3,-10,-4,-5,-429,-3,14
14,10,-2,-12,9,3,-10,-5,-6,-434,-5,13
15,11,-4,-13,10,3,-11,-5,-7,-439,-6,12
16,11,-5,-14,11,3,-10,-5,-7,-445,-6,12
14,11,-3,-12,9,3,-9,-4,-7,-450,-6,12
12,9,-3,-10,8,2,-8,-3,-6,-455,-6,12
12,8,-4,-10,9,1,-8,-3,-6,-460,-5,12
12,7,-4,-9,9,0,-8,-3,-6,-466,-5,12
12,6,-5,-9,10,0,-8,-3,-7,-472,-5,11
14,7,-6,-11,11,0,-8,-3,-7,-478,-5,12
15,7,-7,-11,12,0,-8,-3,-7,-484,-4,12
14,6,-7,-10,11,0,-8,-4,-8,-489,-4,13
13,6,-7,-10,11,0,-9,-4,-8,-493,-4,13
13,7,-7,-10,10,0,-9,-3,-8,-497,-4,13
12,7,-6,-10,10,0,-9,-2,-8,-500,-3,13
11,6,-5,-9,9,0,-7,-1,-7,-502,-3,14
11,6,-5,-8,9,0,-7,0,-7,-503,-2,14
12,5,-6,-8,10,0,-7,0,-7,-504,-2,14
13,5,-7,-9,10,-1,-7,0,-7,-507,-2,14
14,5,-7,-9,11,-1,-7,0,-7,-511,-2,14
14,6,-7,-10,10,0,-7,0,-7,-515,-3,13
13,7,-6,-10,10,0,-7,1,-7,-515,-3,13
13,7,-6,-10,10,0,-7,1,-7,-513,-2,13
13,7,-6,-10,10,0,-7,2,-7,-512,-2,13
12,6,-6,-9,10,0,-6,3,-7,-514,-1,14
12,6,-5,-9,9,0,-6,3,-7,-517,-1,14
11,5,-5,-8,9,0,-6,4,-6,-522,-1,14
11,5,-5,-8,8,0,-6,4,-6,-526,0,14
10,6,-4,-8,7,0,-5,5,-5,-530,0,15
8,6,-2,-8,5,1,-3,7,-4,-534,1,15
6,6,0,-7,3,2,-2,8,-3,-538,2,15
4,6,2,-6,1,3,-1,10,-2,-542,3,16
3,6,3,-5,1,4,-1,11,-2,-544,4,17
6,6,0,-6,4,2,-2,11,-3,-546,3,17
9,5,-3,-7,7,1,-2,10,-3,-548,3,17
8,5,-3,-6,6,1,-1,10,-3,-550,2,16
7,5,-2,-6,5,1,-1,11,-3,-552,3,16
8,7,-1,-7,5,2,0,12,-2,-553,3,16
12,8,-3,-10,8,1,-2,11,-3,-556,2,15
14,7,-6,-10,10,0,-4,10,-4,-560,1,14
13,6,-6,-9,10,0,-5,10,-5,-562,0,14
12,7,-4,-9,9,1,-4,12,-4,-562,1,16
12,8,-4,-9,8,1,-4,13,-3,-562,2,17
10,8,-3,-9,7,2,-4,13,-3,-562,1,16
8,8,0,-8,5,3,-4,14,-3,-562,0,15
6,9,2,-8,2,5,-3,15,-2,-562,1,14
4,10,5,-7,0,6,-1,17,0,-561,2,14
1,10,8,-6,-3,8,0,19,1,-561,3,16
4,10,6,-7,0,7,-1,20,0,-562,3,17
7,10,3,-9,2,6,-2,20,0,-563,3,17
0,9,9,-5,-4,9,-1,23,2,-561,6,20
-7,9,16,0,-11,13,0,27,5,-558,8,22
-1,9,10,-3,-5,9,-3,25,4,-560,6,21
10,9,-1,-9,5,4,-8,22,0,-563,3,18
13,9,-3,-11,8,2,-9,22,0,-564,3,19
12,9,-1,-10,7,3,-9,24,1,-563,4,20
12,9,-1,-11,7,3,-10,26,1,-563,4,20
14,9,-2,-12,8,3,-10,27,1,-563,4,20
12,9,-1,-11,7,3,-10,28,2,-562,4,20
9,9,1,-9,4,5,-8,30,3,-562,5,21
7,10,3,-8,2,6,-7,32,5,-561,6,21
6,10,3,-8,2,6,-7,32,5,-561,6,20
7,10,2,-9,3,6,-7,32,5,-561,6,20
10,11,1,-11,5,6,-7,33,4,-561,6,20
11,13,3,-13,5,7,-6,34,4,-562,6,21
6,13,9,-11,0,11,-5,35,4,-562,5,22
0,13,13,-7,-6,13,-5,36,5,-561,6,24
0,13,13,-7,-6,13,-5,36,5,-561,7,25
2,14,11,-8,-4,12,-4,36,4,-562,7,25
1,13,11,-7,-5,12,-4,35,3,-562,8,26
-1,13,12,-6,-6,12,-3,35,2,-561,8,28
3,13,8,-9,-2,10,-4,33,0,-562,7,28
11,13,2,-13,5,7,-6,31,-3,-565,4,26
14,12,-1,-14,8,5,-7,29,-6,-568,3,23
12,11,0,-12,7,5,-6,28,-7,-568,3,22
10,12,2,-11,5,6,-5,28,-8,-567,4,20
10,12,1,-10,4,6,-5,26,-9,-567,4,19
11,11,0,-10,5,6,-6,24,-11,-568,3,18
10,11,0,-10,5,5,-6,22,-12,-568,2,19
10,11,1,-10,4,5,-6,21,-13,-568,2,21
9,10,1,-10,4,5,-6,19,-15,-569,2,23
9,10,1,-10,4,5,-6,18,-16,-570,2,23
9,10,2,-10,4,6,-6,16,-18,-571,2,21
9,10,2,-10,4,6,-6,15,-19,-571,2,19
9,10,1,-10,4,6,-6,15,-20,-571,3,19
8,10,2,-9,3,7,-6,14,-21,-570,4,20
7,11,3,-9,2,7,-6,14,-21,-570,4,22
6,10,4,-8,1,7,-6,13,-21,-569,4,22
6,9,3,-7,1,5,-7,11,-22,-569,3,20
6,8,3,-7,1,5,-7,10,-24,-568,3,19
6,8,3,-7,1,5,-7,10,-24,-567,3,19
5,9,5,-6,0,7,-6,9,-24,-565,4,20
4,9,5,-6,0,7,-5,8,-25,-564,4,22
4,8,5,-6,0,7,-5,8,-25,-563,4,23
5,8,4,-6,1,6,-5,7,-26,-561,4,23
5,8,3,-6,1,6,-6,7,-26,-560,4,23
3,7,4,-5,0,6,-6,7,-26,-557,5,22
1,7,5,-4,-2,6,-5,7,-26,-555,5,21
2,7,6,-5,-2,6,-4,7,-26,-554,5,20
2,7,6,-5,-2,6,-5,6,-26,-552,5,19
0,6,7,-3,-3,6,-5,5,-27,-550,5,19
-1,5,7,-2,-4,7,-5,5,-27,-547,5,19
-1,5,7,-2,-4,7,-5,4,-28,-545,4,19
-2,5,8,-2,-5,7,-5,4,-29,-543,3,19
-4,6,10,-1,-7,8,-5,5,-29,-540,3,19
-5,6,11,-1,-8,9,-5,5,-29,-537,3,19
-4,6,11,-2,-7,8,-6,4,-30,-535,2,18
-3,7,10,-2,-6,8,-6,3,-30,-532,3,19
-4,7,12,-1,-8,10,-5,4,-30,-528,4,20
-7,7,15,0,-10,11,-3,5,-30,-523,6,22
-7,7,15,0,-11,11,-3,5,-29,-520,7,22
-5,7,13,-1,-9,10,-4,4,-29,-518,6,21
-7,7,14,0,-10,10,-3,5,-29,-515,6,21
-8,6,15,0,-11,11,-2,5,-30,-514,6,21
-5,6,12,0,-9,9,-3,5,-31,-513,5,20
-2,6,9,-2,-5,8,-3,4,-31,-511,5,20
1,6,6,-4,-2,7,-4,4,-31,-509,5,20
0,5,7,-3,-4,7,-3,4,-31,-507,5,21
-5,4,11,0,-8,8,-2,6,-30,-503,6,21
-3,4,8,0,-6,6,-3,5,-31,-503,4,20
1,4,3,-3,-1,4,-4,4,-32,-503,2,18
-2,5,7,-1,-5,5,-3,5,-31,-501,3,19
-4,5,10,0,-7,7,-1,7,-30,-499,5,20
0,5,5,-3,-2,5,-2,6,-31,-499,4,18
3,5,2,-4,1,3,-3,5,-32,-500,3,17
2,4,3,-4,0,4,-2,5,-32,-499,3,16
0,5,6,-2,-2,6,-2,6,-32,-497,3,18
-8,5,14,1,-10,10,0,8,-31,-493,5,21
-12,5,17,3,-14,11,2,9,-31,-490,6,23
-5,5,10,0,-8,8,0,7,-34,-491,3,20
-2,5,7,-2,-5,6,-1,6,-35,-490,2,18
-8,5,13,1,-10,8,1,8,-31,-485,5,21
-11,5,16,2,-13,10,4,9,-29,-481,7,24
-9,5,15,2,-12,10,3,8,-30,-479,7,24
-9,5,16,2,-12,10,2,8,-31,-477,6,24
-11,5,18,3,-14,11,2,8,-31,-475,7,24
-12,5,19,3,-15,12,2,9,-30,-472,7,24
-14,6,21,4,-17,13,3,9,-29,-468,8,25
-20,6,27,6,-23,16,5,11,-26,-464,10,26
-16,6,23,4,-19,14,3,9,-28,-463,8,24
-2,6,10,-2,-6,8,-1,4,-32,-466,3,20
4,6,3,-5,0,5,-3,1,-34,-466,1,17
4,6,3,-4,0,4,-3,1,-34,-464,1,17
2,5,3,-3,0,4,-3,1,-34,-462,1,18
1,4,4,-3,-1,4,-4,2,-34,-460,2,19
-1,4,6,-2,-3,5,-5,3,-32,-457,3,20
-3,4,8,-1,-5,6,-5,4,-31,-454,5,22
-7,4,12,1,-9,8,-5,5,-29,-450,7,24
-11,4,16,2,-13,10,-3,7,-27,-445,10,27
-7,6,13,0,-10,10,-4,7,-28,-442,10,26
0,5,5,-3,-2,6,-7,5,-31,-441,8,24
1,3,1,-2,0,3,-9,4,-32,-438,8,24
-1,2,3,0,-2,3,-8,5,-31,-433,9,25
-5,3,9,1,-7,6,-6,7,-30,-427,11,28
-3,4,8,-1,-5,6,-5,6,-31,-424,9,27
5,5,1,-6,1,3,-7,4,-32,-422,7,25
7,6,0,-7,3,3,-8,4,-30,-415,7,25
5,7,4,-6,0,6,-8,8,-25,-404,11,27
1,8,8,-5,-3,8,-7,16,-17,-388,16,31
1,8,8,-4,-3,8,-7,26,-5,-367,24,35
4,9,6,-6,-1,7,-8,38,10,-342,36,40
5,9,5,-7,0,7,-7,47,24,-316,51,48
5,9,5,-7,0,7,-7,47,28,-297,63,57
6,9,4,-8,1,6,-7,36,18,-288,72,63
8,10,3,-9,2,6,-7,18,0,-283,79,68
8,11,4,-10,2,7,-7,-4,-23,-281,85,71
9,13,4,-11,2,8,-7,-28,-50,-282,89,73
9,14,5,-11,2,9,-7,-54,-79,-288,89,73
8,13,5,-10,2,8,-7,-79,-109,-301,78,69
7,10,3,-8,2,6,-7,-104,-140,-323,54,58
5,5,0,-6,3,3,-7,-127,-169,-349,23,41
3,0,-1,-2,2,0,-7,-145,-193,-372,-6,24
0,-5,-5,2,2,-5,-7,-155,-209,-389,-32,9
-2,-12,-9,7,3,-11,-6,-160,-219,-403,-55,-5
-7,-19,-11,12,1,-15,-3,-159,-221,-413,-75,-18
-15,-23,-6,19,-5,-15,0,-154,-215,-416,-88,-27
-21,-25,-3,23,-9,-15,0,-146,-204,-412,-95,-31
-20,-27,-7,24,-7,-17,-3,-138,-191,-403,-96,-33
-15,-28,-13,21,-1,-21,-7,-128,-175,-389,-92,-33
-11,-28,-17,19,3,-23,-10,-114,-156,-369,-84,-31
-13,-27,-12,20,0,-19,-9,-95,-134,-344,-71,-25
-17,-23,-4,20,-6,-13,-7,-74,-111,-317,-56,-15
-13,-19,-4,16,-5,-11,-7,-56,-92,-293,-44,-9
-8,-17,-6,12,-1,-11,-8,-43,-76,-273,-33,-3
-8,-14,-4,11,-2,-9,-7,-30,-62,-253,-23,3
-10,-10,0,10,-5,-5,-5,-18,-49,-235,-14,9
-17,-8,9,12,-13,1,-2,-7,-37,-219,-4,14
-25,-6,19,15,-21,6,2,2,-25,-205,3,17
-21,-6,17,13,-18,5,4,6,-20,-197,5,16
-10,-7,5,8,-7,-1,1,5,-19,-194,2,13
-5,-8,-2,6,-1,-4,-1,5,-19,-190,1,13
-11,-8,4,9,-8,-1,2,9,-15,-182,3,17
-19,-7,12,13,-16,3,4,13,-12,-174,6,20
-12,-7,5,9,-9,0,2,11,-14,-172,4,18
-2,-7,-4,4,1,-5,0,8,-17,-171,1,15
-1,-7,-6,4,3,-6,-1,8,-17,-169,0,16
-3,-7,-5,5,1,-6,0,8,-16,-165,1,17
-6,-7,-2,7,-2,-4,1,10,-13,-160,3,21
-8,-7,0,8,-4,-3,2,12,-10,-155,6,23
-8,-8,0,8,-5,-3,3,13,-9,-151,7,23
-9,-9,0,9,-5,-4,3,13,-10,-149,8,22
-9,-9,0,9,-5,-4,2,13,-10,-146,8,19
-9,-9,-1,9,-4,-4,2,13,-10,-144,7,15
-9,-10,-1,9,-4,-5,1,12,-10,-142,7,14
-9,-10,-2,9,-3,-5,1,12,-9,-139,6,14
-9,-10,-2,9,-3,-5,1,12,-9,-137,5,16
-9,-11,-1,10,-4,-5,1,12,-8,-134,5,18
-11,-11,0,11,-6,-5,2,13,-8,-132,5,20
-13,-12,2,13,-8,-5,3,14,-7,-129,6,22
-12,-13,0,12,-7,-6,3,14,-7,-126,5,22
-9,-13,-3,11,-3,-8,2,13,-8,-125,4,21
-8,-13,-5,11,-2,-9,3,13,-8,-123,4,20
-8,-14,-5,11,-1,-9,3,14,-6,-120,5,20
-9,-14,-5,12,-1,-9,4,15,-5,-118,5,20
-10,-15,-4,12,-2,-9,4,15,-5,-114,5,21
-10,-14,-3,12,-4,-8,5,16,-4,-110,6,21
-11,-14,-1,12,-5,-7,6,18,-3,-106,7,22
-14,-14,1,14,-8,-6,6,19,-3,-103,8,23
-22,-14,9,19,-16,-2,10,22,-1,-99,10,25
-28,-14,14,22,-21,0,13,24,1,-96,12,27
-22,-14,7,18,-14,-3,11,22,1,-97,10,25
-19,-14,4,16,-11,-4,11,22,0,-96,9,24
-25,-14,11,20,-18,-1,14,25,3,-92,12,27
-27,-15,12,21,-19,-1,14,26,4,-90,13,27
-24,-16,10,20,-17,-3,13,25,4,-88,13,26
-20,-16,6,18,-13,-5,12,24,4,-88,12,25
-15,-16,0,16,-8,-8,11,23,3,-88,10,24
-18,-16,2,17,-10,-7,11,23,2,-87,11,24
-29,-16,13,23,-21,-1,15,27,5,-82,14,28
-33,-16,18,25,-25,1,16,29,5,-79,16,30
-23,-16,7,19,-15,-4,13,25,2,-81,12,27
-15,-16,0,16,-8,-8,10,23,1,-81,10,24
-22,-16,6,19,-14,-5,11,25,5,-77,12,26
-24,-17,9,21,-17,-4,12,25,6,-75,13,26
-19,-16,4,18,-12,-6,10,24,5,-76,11,25
-17,-15,2,17,-10,-6,10,24,5,-76,10,25
-19,-15,4,17,-11,-5,11,24,6,-74,10,26
-26,-15,11,21,-18,-1,12,27,8,-71,13,29
-30,-15,15,22,-22,0,13,29,10,-68,14,31
-24,-14,10,19,-17,-2,11,28,9,-68,13,29
-19,-14,6,16,-12,-3,10,28,7,-68,12,27
-18,-14,5,16,-12,-4,9,28,6,-67,12,26
-19,-14,6,17,-13,-4,8,28,8,-65,12,26
-20,-15,6,18,-13,-4,8,29,9,-64,12,25
-18,-14,4,17,-11,-5,6,30,9,-63,11,25
-19,-14,5,16,-12,-4,6,32,11,-60,12,27
-23,-13,10,18,-16,-1,8,34,13,-56,14,29
-27,-14,13,20,-20,0,9,36,15,-52,16,30
-29,-15,15,22,-22,0,8,38,16,-48,18,31
-30,-15,16,23,-23,0,8,40,16,-46,18,31
-32,-15,18,24,-25,2,10,42,19,-42,20,32
-32,-13,20,24,-26,3,12,44,22,-39,21,33
-28,-13,15,22,-22,1,10,44,20,-39,19,32
-22,-15,8,19,-16,-3,7,42,18,-39,17,30
-19,-15,4,18,-12,-5,6,42,17,-39,16,30
-23,-14,9,19,-16,-2,7,45,20,-35,18,31
-27,-13,14,20,-21,0,9,48,23,-30,20,32
-24,-13,12,18,-18,0,10,48,22,-29,21,31
-19,-11,9,15,-14,0,10,49,21,-27,21,32
-17,-10,8,13,-13,0,10,50,22,-25,22,33
-20,-10,11,15,-16,1,10,51,24,-23,22,34
-22,-10,12,17,-17,1,11,51,26,-21,23,34
-21,-9,11,16,-16,1,11,51,27,-20,23,34
-19,-9,10,15,-14,0,10,51,26,-18,22,34
-19,-9,10,14,-14,0,9,52,25,-16,22,35
-19,-9,11,15,-15,0,10,52,25,-13,22,35
-20,-10,11,15,-15,1,11,52,23,-12,23,35
-20,-10,12,15,-16,1,12,53,22,-10,24,36
-21,-10,12,16,-17,1,12,53,23,-8,24,37
-19,-9,10,15,-15,1,11,52,24,-6,24,37
-18,-8,10,13,-14,1,10,51,25,-2,25,38
-20,-7,12,14,-15,2,11,52,27,2,26,41
-21,-7,13,14,-16,3,12,51,27,5,27,42
-21,-8,14,14,-17,3,12,50,26,9,27,41
-22,-8,15,15,-18,3,12,50,26,13,27,41
-25,-9,17,17,-21,4,12,49,25,18,27,41
-27,-10,17,18,-22,3,12,48,24,22,26,40
-27,-11,17,19,-22,3,12,46,23,26,26,39
-26,-10,17,18,-22,3,13,45,23,31,26,40
-23,-9,15,17,-19,3,11,43,21,35,25,40
-20,-9,12,15,-16,1,8,40,18,40,24,39
-19,-9,11,15,-15,1,7,38,15,46,24,40
-27,-8,20,18,-23,5,12,39,18,56,27,44
-40,-9,32,24,-35,11,17,41,21,67,30,48
-36,-11,26,23,-31,7,14,36,18,72,26,46
-26,-12,13,19,-19,0,9,30,11,74,21,40
-26,-12,13,20,-19,0,9,28,10,81,20,39
-29,-12,17,21,-23,2,10,28,12,90,21,40
-28,-11,17,21,-22,3,10,27,12,97,21,39
-28,-11,17,20,-22,3,10,26,12,104,20,38
-36,-12,24,24,-29,6,13,27,14,113,21,38
-42,-14,29,28,-35,7,14,27,16,121,21,38
-38,-16,22,27,-29,2,12,23,14,125,17,36
-31,-16,15,24,-22,-1,10,20,11,130,14,34
-27,-16,11,22,-19,-2,8,18,10,137,12,32
-27,-15,11,22,-18,-2,7,17,9,145,12,31
-31,-16,15,24,-22,0,8,17,9,154,13,31
-32,-16,16,24,-23,0,8,17,9,162,13,31
-32,-16,17,24,-24,0,8,16,9,171,13,31
-34,-16,19,25,-26,1,9,17,10,180,14,30
-33,-16,17,24,-25,0,9,16,10,188,13,28
-30,-16,14,23,-22,-1,9,15,10,197,12,28
-31,-16,15,24,-23,0,9,15,10,209,13,29
-31,-16,15,24,-23,0,9,15,11,223,13,30
-30,-16,14,23,-22,0,8,14,11,239,13,31
-31,-16,15,24,-22,0,8,14,11,257,13,31
-32,-17,15,24,-23,-1,8,14,12,276,13,30
-33,-17,16,25,-24,-1,9,14,13,297,13,28
-34,-17,18,25,-26,0,10,15,14,317,13,27
-35,-16,19,25,-27,1,12,16,16,336,14,28
-34,-14,20,24,-27,2,12,17,17,354,14,29
-32,-13,19,23,-25,2,12,17,17,370,13,29
-31,-13,18,22,-24,2,12,17,17,383,12,28
-32,-13,20,23,-26,3,12,17,16,394,12,29
-32,-13,19,23,-25,3,12,17,15,402,12,30
-28,-12,17,20,-22,2,11,17,14,407,11,30
-29,-13,17,20,-23,1,12,17,14,412,11,30
-32,-14,19,22,-25,2,13,18,17,417,11,29
-33,-14,19,23,-26,2,14,18,19,420,11,28
-30,-13,17,22,-24,2,14,17,20,421,10,27
-29,-13,16,22,-22,2,13,17,19,423,10,26
-31,-13,19,23,-24,3,14,17,19,425,11,26
-37,-13,24,25,-30,6,15,19,20,428,12,26
-39,-13,27,26,-33,7,16,20,22,431,12,27
-35,-12,23,23,-28,5,15,18,20,432,11,26
-30,-11,19,21,-24,4,14,17,19,432,9,26
-30,-10,20,20,-25,5,15,17,20,435,10,27
-32,-10,22,21,-27,6,16,17,21,437,10,27
-33,-11,23,23,-28,7,16,17,21,439,10,27
-33,-10,23,22,-28,7,14,16,21,441,10,27
-29,-9,21,20,-25,6,13,15,20,443,10,26
-28,-8,20,19,-24,6,12,14,20,447,9,26
-31,-9,22,20,-26,6,12,14,21,452,9,26
-33,-9,24,21,-29,7,13,14,23,458,10,26
-36,-9,26,22,-31,8,14,14,25,467,11,27
-38,-9,30,23,-34,10,15,15,26,481,13,28
-39,-7,32,23,-35,13,14,16,28,500,16,30
-36,-5,32,21,-34,14,12,16,30,520,21,32
-33,-2,32,18,-33,15,10,19,34,544,28,35
-31,1,32,15,-32,17,8,26,44,572,39,42
-30,3,33,13,-31,18,7,36,59,604,55,51
-28,4,33,12,-30,18,6,47,77,640,75,63
-25,6,31,9,-28,18,4,61,97,678,96,76
-20,8,29,6,-24,18,1,71,113,711,116,87
-15,10,26,2,-20,18,0,72,118,737,132,96
-11,11,24,0,-18,18,-1,63,112,753,144,103
-11,12,25,0,-18,19,-1,48,99,761,151,110
-13,13,27,0,-20,20,-1,28,79,761,152,115
-15,13,28,0,-21,21,0,4,50,748,143,115
-18,13,30,2,-24,21,1,-21,16,723,120,109
-20,11,31,4,-25,21,3,-48,-20,691,88,96
-20,10,29,5,-24,19,3,-75,-55,656,52,77
-22,7,29,8,-25,18,4,-99,-86,625,20,56
-24,2,27,11,-25,15,4,-119,-111,597,-10,34
-24,-3,22,14,-23,9,4,-133,-133,571,-39,11
-27,-10,18,19,-22,4,5,-141,-147,551,-63,-8
-30,-16,15,23,-22,-1,5,-146,-156,537,-81,-23
-33,-21,13,27,-22,-5,5,-148,-159,529,-92,-33
-35,-25,10,30,-21,-8,5,-148,-156,528,-98,-35
-35,-29,6,32,-20,-11,4,-142,-147,535,-99,-33
-37,-31,7,34,-21,-12,3,-132,-132,549,-94,-29
-41,-30,12,36,-26,-9,2,-117,-112,570,-84,-25
-42,-27,16,35,-29,-5,2,-99,-90,593,-71,-20
-38,-23,16,30,-26,-3,0,-81,-70,615,-60,-16
-32,-18,15,25,-23,-1,-2,-64,-52,636,-48,-10
-29,-13,16,21,-22,1,-2,-48,-35,656,-37,-4
-27,-8,18,18,-22,4,-1,-34,-20,675,-27,3
-25,-4,21,16,-22,8,1,-21,-7,692,-19,9
-27,-3,23,16,-24,10,2,-12,2,705,-13,13
-27,-5,23,17,-25,9,2,-6,8,714,-11,14
-27,-5,23,17,-25,9,3,-2,12,722,-9,15
-30,-5,27,17,-28,11,4,2,17,730,-6,17
-32,-4,29,17,-30,13,5,6,21,739,-3,19
-28,-2,27,15,-27,12,4,7,24,745,-2,19
-24,0,25,12,-24,12,4,7,25,750,-2,18
-22,0,23,11,-23,11,3,8,26,754,-2,17
-22,0,23,12,-22,11,4,9,27,756,-2,17
-24,0,24,13,-24,12,5,10,28,758,-1,18
-26,-1,26,14,-26,13,6,10,28,760,0,19
-26,-1,26,14,-26,13,6,11,29,764,1,20
-25,-1,25,13,-25,12,6,12,30,767,2,21
-26,-2,25,13,-25,12,6,12,31,770,3,22
-27,-3,25,15,-26,11,5,13,32,773,4,24
-29,-3,26,16,-27,12,6,13,33,776,5,27
-28,-2,26,15,-26,12,7,13,33,778,5,29
-25,-2,24,14,-24,11,7,12,33,780,5,30
-23,-2,21,13,-22,9,6,11,32,782,5,30
-23,-3,20,13,-21,8,5,11,32,792,5,30
-25,-3,22,14,-23,9,6,11,32,818,5,31
-27,-3,25,14,-26,10,6,12,33,855,5,30
-27,-2,26,14,-26,12,6,12,34,887,6,29
-26,-1,26,13,-25,12,6,12,34,909,6,28
-25,0,25,12,-25,13,5,12,34,925,5,28
-25,0,26,13,-25,13,5,12,34,938,4,26
-28,-1,27,15,-27,13,5,12,35,951,3,23
-29,-2,27,16,-28,13,5,12,35,962,3,19
-29,-3,26,16,-27,12,5,13,35,973,3,18
-26,-3,24,14,-25,11,4,13,35,984,2,18
-24,-3,22,13,-23,10,4,13,35,995,0,19
-25,-3,22,14,-24,10,4,13,35,1004,0,22
-26,-4,23,15,-25,10,5,14,36,1013,0,24
-27,-4,24,16,-26,11,6,15,37,1020,0,25
-27,-3,24,16,-25,11,7,15,37,1025,0,24
-25,-2,22,14,-23,10,6,14,37,1030,-1,24
-22,-2,20,12,-20,9,5,13,36,1033,-2,24
-20,-2,18,10,-19,9,4,13,36,1038,-3,24
-22,-1,21,11,-21,11,5,14,38,1045,-1,25
-27,-1,28,13,-27,14,7,17,40,1053,1,27
-30,0,30,14,-30,15,8,18,42,1057,3,28
-28,0,29,14,-28,14,8,18,42,1056,3,28
-24,0,25,13,-24,12,6,18,41,1048,2,27
-19,0,19,11,-18,9,5,17,40,1038,0,26
-16,-1,15,10,-15,7,4,17,39,1029,0,25
-17,-1,15,10,-16,8,5,17,40,1024,-1,26
-18,-1,16,10,-17,8,6,18,40,1021,-1,26
-18,-1,17,10,-18,9,7,18,41,1021,-1,26
-19,-1,19,10,-19,9,7,19,42,1023,0,27
-20,0,21,10,-20,10,8,21,44,1027,1,27
-19,0,21,10,-20,11,8,22,44,1028,0,28
-18,1,20,9,-19,11,8,22,43,1029,0,28
-20,2,22,9,-20,12,8,23,44,1032,0,30
-24,1,26,11,-25,14,9,24,45,1038,3,31
-26,1,28,12,-27,15,9,26,47,1045,5,30
-25,1,27,12,-26,14,8,26,48,1050,5,29
-23,1,26,10,-24,14,8,26,49,1054,5,29
-21,2,24,9,-22,13,8,26,49,1056,5,29
-20,1,23,10,-21,13,8,27,49,1057,5,30
-22,1,24,11,-23,13,8,29,50,1059,5,32
-23,1,25,11,-23,13,9,31,51,1061,6,35
-23,2,24,11,-23,14,10,33,52,1063,7,37
-23,1,24,11,-23,14,10,34,53,1064,8,39
-23,1,24,11,-23,13,10,34,52,1060,7,39
-21,1,22,9,-21,12,9,34,52,1053,6,39
-18,2,21,8,-20,12,8,34,52,1046,5,39
-18,3,22,7,-20,13,8,35,52,1041,5,39
-18,4,24,7,-20,14,7,37,53,1039,7,38
-19,5,25,7,-21,15,6,38,55,1037,9,38
-20,5,26,7,-22,16,6,40,56,1037,11,38
-23,5,28,8,-25,17,6,41,56,1038,12,39
-23,5,27,8,-25,16,5,41,57,1038,12,40
-21,5,26,7,-23,16,4,42,57,1037,12,40
-20,6,26,7,-23,16,5,44,58,1037,13,42
-18,7,26,6,-22,16,5,45,59,1037,14,45
-18,7,26,6,-22,17,5,45,58,1035,14,45
-19,7,26,6,-22,17,5,45,58,1033,13,44
-20,6,27,7,-23,17,6,45,57,1030,12,44
-20,5,26,7,-22,16,6,45,57,1027,12,43
-19,5,24,7,-22,15,7,45,57,1023,11,43
-19,5,24,7,-21,14,7,45,56,1018,11,43
-19,5,24,7,-21,15,7,45,56,1016,11,44
-18,6,25,6,-21,15,7,45,56,1017,12,44
-18,6,25,6,-21,16,8,44,56,1021,12,45
-17,6,25,5,-21,16,8,44,55,1029,12,46
-17,7,25,5,-21,17,8,43,54,1042,12,48
-16,8,25,4,-21,17,8,41,52,1055,11,49
-16,7,24,4,-21,16,7,39,50,1067,11,49
-16,7,24,5,-21,16,7,37,49,1077,10,50
-17,6,24,5,-21,15,8,35,47,1087,10,50
-17,6,24,6,-21,15,8,34,46,1096,10,51
-17,5,24,6,-20,15,8,32,44,1104,10,50
-16,5,23,6,-19,14,7,30,42,1113,10,49
-16,5,21,6,-18,13,7,27,40,1122,9,49
-15,5,20,5,-18,13,6,25,37,1130,8,48
-15,4,19,5,-17,12,6,22,35,1141,7,47
-14,4,18,5,-15,11,5,19,33,1159,6,46
-14,3,17,5,-15,10,5,17,31,1184,4,46
-13,3,17,5,-15,10,5,15,29,1207,3,45
-12,2,16,5,-14,10,5,13,27,1226,2,45
-12,2,15,5,-13,10,5,12,26,1242,1,44
-12,2,15,5,-13,9,5,11,24,1256,0,44
-12,1,14,6,-13,8,4,9,23,1270,-1,43
-12,1,13,6,-13,8,4,8,21,1288,-1,42
-13,2,15,5,-13,8,5,7,21,1314,-1,43
-15,2,17,6,-16,9,6,6,20,1346,-2,43
-19,0,19,9,-19,9,6,6,20,1377,-2,42
-20,-1,19,11,-19,8,4,5,19,1402,-3,42
-20,-1,19,11,-19,8,4,4,18,1422,-3,42
-21,-1,20,11,-20,9,4,5,18,1437,-2,42
-21,-1,20,11,-20,9,4,5,17,1448,-3,42
-21,-1,20,10,-20,9,4,4,16,1456,-3,41
-21,-1,21,11,-21,10,5,4,16,1465,-3,42
-20,0,21,10,-20,10,5,3,15,1473,-3,42
-16,0,18,8,-17,9,5,2,14,1480,-4,41
-16,1,18,8,-17,9,5,1,14,657,-4,42
-18,1,19,9,-18,9,6,0,14,-657,-4,42
-17,0,16,9,-16,8,4,-1,12,-1431,-5,41
-15,-1,13,8,-14,6,3,-3,10,-1888,-6,40
-17,-1,14,9,-15,7,4,-3,10,-2157,-6,41
-19,-1,17,10,-18,8,5,-2,10,-2314,-5,42
-20,-1,18,11,-20,8,5,-2,10,-2406,-5,42
-19,-2,18,11,-19,7,5,-3,9,-2459,-6,41
-17,-3,15,11,-16,5,4,-4,8,-2487,-7,40
-17,-3,13,11,-15,5,3,-4,8,-2500,-7,40
-17,-3,14,11,-15,5,4,-3,8,-2506,-6,41
-17,-3,14,11,-16,6,4,-3,8,-2507,-5,42
-18,-2,15,11,-17,6,5,-3,7,-2505,-4,43
-19,-2,17,11,-18,7,5,-2,7,-2505,-4,44
-21,-3,18,13,-20,7,4,-2,8,-2506,-3,45
-21,-4,17,13,-19,6,4,-3,7,-2509,-4,45
-20,-4,16,13,-18,5,5,-3,7,-2511,-4,45
-23,-4,19,14,-21,7,7,-1,8,-2511,-3,47
-26,-5,22,16,-24,8,8,0,9,-2510,-1,48
-24,-5,19,15,-21,7,7,0,8,-2512,-2,48
-23,-5,17,14,-20,6,6,0,7,-2513,-2,48
-22,-5,17,14,-19,6,7,0,7,-2514,-2,48
-19,-5,14,12,-16,4,7,0,6,-2515,-3,47
-15,-5,10,10,-12,2,6,-2,4,-2517,-5,46
-12,-5,7,9,-9,1,6,-2,3,-2518,-6,45
-11,-4,7,8,-9,1,6,-2,3,-2518,-6,45
-12,-4,9,9,-10,2,7,0,4,-2517,-5,46
-12,-3,9,8,-11,2,8,0,5,-2516,-4,47
-11,-3,9,7,-10,3,9,1,6,-2517,-4,48
-13,-4,10,9,-12,2,9,1,6,-2518,-4,48
-15,-6,10,10,-12,1,9,0,5,-2519,-5,48
-15,-6,10,10,-12,2,10,0,5,-2520,-5,48
-14,-5,10,10,-12,2,10,0,5,-2520,-5,49
-14,-5,10,10,-11,2,10,0,5,-2520,-5,49
-14,-5,10,10,-11,2,10,0,5,-2521,-5,50
-14,-5,10,10,-12,2,10,0,5,-2521,-5,50
-15,-5,10,10,-13,2,10,0,5,-2522,-5,51
-16,-5,11,10,-13,3,10,0,5,-2522,-5,51
-15,-4,11,9,-13,3,10,0,5,-2523,-5,52
-14,-4,11,9,-13,3,10,0,5,-2523,-4,52
-16,-5,12,10,-14,3,10,-1,5,-2524,-4,52
-16,-5,12,11,-14,3,9,-2,4,-2525,-4,52
-16,-5,11,11,-13,3,8,-2,4,-2525,-4,52
-16,-5,11,11,-13,3,8,-2,3,-2526,-4,53
-15,-5,11,10,-13,3,8,-2,3,-2527,-4,53
-14,-3,11,8,-12,4,9,-2,4,-2528,-4,53
-12,-2,10,7,-12,4,8,-1,4,-2529,-4,53
-14,-3,11,9,-13,3,7,-2,3,-2532,-5,51
-18,-5,14,12,-16,4,7,-2,4,-2534,-4,51
-20,-4,16,13,-18,6,7,-1,5,-2535,-3,52
-18,-4,15,12,-16,5,5,-1,5,-2539,-3,51
-15,-5,11,11,-13,3,2,-3,3,-2544,-5,49
-15,-6,9,11,-12,2,1,-4,3,-2549,-5,48
-16,-6,10,11,-13,2,1,-3,3,-2554,-5,48
-15,-5,10,10,-13,2,1,-3,4,-1723,-4,48
-12,-4,9,8,-11,2,1,-2,4,-397,-4,48
-10,-4,7,6,-9,1,0,-2,3,387,-4,46
-8,-3,6,6,-7,1,0,-2,3,851,-4,45
-8,-4,4,6,-6,0,0,-2,3,1124,-4,44
-7,-4,2,6,-4,0,0,-3,2,1281,-4,41
-6,-4,2,6,-4,-1,0,-3,2,1370,-4,40
-7,-3,3,6,-5,0,1,-2,3,1418,-3,39
-7,-3,4,5,-5,0,1,-2,3,1439,-3,37
-7,-3,4,5,-6,0,2,-2,3,1445,-3,36
-7,-3,5,5,-6,1,2,-2,4,1443,-2,35
-7,-2,6,5,-6,1,3,-1,4,1436,-2,33
-6,-2,5,4,-5,2,3,-1,4,1424,-2,31
-6,-1,6,5,-6,3,2,-1,5,1410,-2,29
-8,-1,7,6,-8,4,3,-1,5,1394,-1,26
-9,-1,8,6,-8,4,4,-1,5,1377,-2,24
-9,-1,7,5,-8,3,4,-1,4,1362,-2,22
-9,0,8,5,-8,3,4,-1,4,1349,-2,21
-7,0,7,4,-7,3,4,-1,4,1339,-2,19
-7,0,8,3,-7,4,4,-1,6,1332,-1,17
-8,0,9,4,-9,4,5,0,7,1328,0,14
-9,0,9,5,-10,4,4,0,7,1326,0,10
-10,-1,9,6,-10,4,4,0,7,1325,0,6
-13,-1,11,8,-12,4,5,0,7,1325,0,4
-17,-2,14,9,-16,6,6,1,8,1326,1,2
-16,-2,14,9,-15,5,5,0,8,1325,1,-1
-11,-2,9,7,-10,3,3,-1,7,1322,0,-6
-7,-1,6,5,-6,2,2,-2,6,1322,-1,-10
-6,-1,5,4,-5,2,2,-2,6,1324,-1,-12
-5,-1,5,4,-5,2,2,-2,6,1326,-1,-14
-5,-1,5,4,-5,2,2,-2,6,1327,-1,-16
-6,-1,6,4,-6,2,3,-2,6,1329,-1,-17
-9,-1,9,5,-9,4,4,-2,7,1330,0,-18
-11,0,12,6,-12,6,4,-1,8,1331,0,-19
-12,1,13,6,-14,7,4,-1,9,1332,1,-21
-12,2,15,6,-14,8,4,0,10,1335,2,-22
-10,4,15,5,-13,9,4,3,13,1342,6,-21
-7,5,14,2,-11,9,3,10,19,1354,13,-19
-5,6,12,0,-9,9,3,19,30,1372,23,-14
-5,6,12,0,-8,9,3,33,46,1394,36,-7
-6,7,12,0,-9,10,3,47,64,1416,51,1
-4,8,12,-1,-8,10,3,53,74,1434,65,10
2,9,6,-5,-2,7,1,46,71,1446,75,17
10,10,0,-9,5,5,-1,30,58,1451,82,23
12,11,0,-11,7,5,-1,11,42,1454,89,27
12,11,0,-11,6,5,-1,-9,25,1454,94,30
11,11,1,-10,5,6,-1,-32,5,1450,93,29
8,9,1,-8,3,4,0,-54,-18,1437,83,21
5,5,0,-4,3,2,2,-73,-42,1426,61,6
1,1,1,0,0,1,5,-89,-63,1430,34,-12
-4,-1,3,3,-3,0,6,-104,-80,1448,10,-29
-7,-4,4,6,-5,0,6,-119,-94,1466,-10,-43
-12,-8,5,10,-8,-1,5,-130,-105,1479,-27,-56
-16,-12,6,14,-11,-3,5,-135,-112,1488,-43,-69
-21,-16,5,19,-13,-5,5,-135,-116,1491,-58,-80
-25,-21,5,23,-15,-7,4,-135,-120,1491,-71,-90
-28,-25,3,27,-16,-11,2,-135,-122,1490,-79,-96
-26,-29,-3,28,-11,-16,-2,-134,-121,1491,-84,-101
-20,-32,-12,27,-4,-22,-6,-131,-118,1495,-86,-104
-16,-32,-16,25,0,-25,-8,-123,-109,1505,-83,-103
-15,-31,-15,24,0,-23,-8,-111,-95,1520,-75,-100
-15,-28,-11,23,-2,-19,-7,-97,-79,701,-65,-95
-15,-24,-7,21,-4,-15,-6,-82,-63,207,-55,-90
-15,-19,-3,18,-6,-10,-6,-68,-48,726,-44,-85
-14,-15,0,15,-7,-6,-4,-54,-34,1017,-34,-80
-14,-11,3,13,-8,-4,-2,-41,-23,1185,-27,-76
-13,-9,4,11,-8,-3,-1,-31,-14,1282,-21,-74
-13,-8,4,11,-8,-3,0,-22,-6,1339,-17,-73
-13,-8,4,11,-9,-2,1,-15,0,1372,-15,-71
-13,-7,5,11,-9,-1,3,-9,6,1392,-12,-70
-13,-7,6,11,-10,0,4,-4,10,1405,-9,-68
-13,-6,8,11,-11,1,6,0,15,1413,-6,-67
-14,-5,10,10,-12,3,7,3,19,1420,-3,-67
-13,-4,9,9,-11,3,7,4,21,1424,-2,-68
-12,-4,8,9,-11,2,8,5,21,1426,-2,-70
-14,-5,9,9,-11,2,8,6,22,1427,-3,-72
-14,-6,9,10,-12,1,7,6,22,1429,-4,-73
-14,-5,9,10,-12,2,7,7,23,1430,-4,-73
-13,-4,10,9,-11,3,7,7,24,1431,-3,-73
-15,-4,13,10,-14,5,8,9,26,1433,-2,-72
-26,-4,23,15,-24,9,11,12,29,1435,1,-69
-27,-4,23,16,-25,9,10,11,29,1436,1,-70
-14,-4,11,9,-12,3,5,7,24,1432,-3,-74
-11,-2,9,6,-10,3,6,7,25,1433,-3,-75
-19,-1,18,10,-18,8,10,10,28,1438,0,-72
-20,-2,18,11,-19,8,10,11,28,1440,0,-72
-19,-3,17,11,-18,7,10,10,28,1443,-1,-73
-27,-3,25,15,-26,11,12,13,31,1449,1,-71
-30,-3,29,17,-30,13,13,14,32,1454,3,-70
-20,-2,19,11,-19,8,9,11,29,1455,1,-74
-7,-3,5,5,-6,1,3,6,24,1455,-3,-78
-4,-3,1,3,-2,0,0,5,23,1457,-4,-79
-5,-2,3,3,-3,0,0,6,24,1462,-3,-79
-4,-2,2,3,-3,0,0,6,24,1467,-4,-79
-4,-3,1,3,-3,0,0,6,25,1471,-4,-79
-7,-3,4,5,-5,1,0,7,26,1477,-3,-79
-8,-3,5,6,-6,1,0,8,27,1482,-2,-78
-8,-3,5,6,-6,1,-1,9,28,1486,-1,-78
-12,-2,10,7,-11,4,0,10,30,1491,1,-75
-16,-1,15,9,-16,7,2,12,32,1495,3,-73
-12,-1,11,6,-12,5,1,12,31,1497,2,-74
-5,-1,4,3,-5,1,0,10,29,1498,0,-76
-5,-2,3,4,-4,0,0,10,29,1500,-1,-76
-6,-2,5,5,-6,1,1,11,30,1505,0,-75
-7,-2,5,5,-6,2,0,12,31,1509,0,-74
-7,-1,6,4,-6,3,0,12,32,1513,1,-73
-7,0,8,4,-7,4,1,13,33,1517,2,-71
-9,0,9,5,-9,4,2,14,33,1519,3,-70
-10,-1,9,6,-9,4,2,14,33,1520,3,-69
-8,-1,8,5,-8,3,2,14,33,1524,2,-69
-7,-1,7,5,-7,3,3,14,33,1530,2,-70
-7,-1,7,4,-7,3,3,15,33,1536,1,-71
-7,-1,7,4,-7,3,3,15,33,1542,1,-71
-7,-1,6,4,-7,3,3,15,33,1545,1,-71
-7,-1,6,4,-7,2,2,15,32,1548,0,-71
-8,-1,8,5,-8,3,3,16,33,1552,1,-71
-12,-1,12,7,-12,5,4,18,34,1555,2,-69
-14,0,15,7,-15,7,6,20,36,1556,4,-67
-14,0,15,6,-15,8,7,21,37,1556,4,-66
-13,0,12,6,-13,6,6,21,37,1558,4,-67
-7,-1,6,4,-7,2,3,19,35,1563,1,-69
-8,-1,6,5,-7,2,2,20,35,1570,1,-69
-21,-1,20,11,-21,9,7,25,40,1582,6,-64
-27,0,26,14,-27,12,10,28,42,1592,9,-61
-14,0,15,7,-15,6,6,26,39,1594,5,-65
-4,0,5,2,-4,1,3,23,36,1597,2,-68
-3,0,4,1,-3,1,3,24,37,1603,2,-67
-6,0,6,3,-5,3,4,26,38,1608,2,-66
-5,0,5,2,-4,3,4,27,38,1613,2,-66
1,1,0,-1,1,0,3,26,37,1616,0,-68
3,2,-1,-2,2,0,3,26,37,1621,0,-69
-3,2,5,0,-4,3,5,30,39,1628,2,-67
-10,2,12,4,-11,6,7,33,41,1636,4,-65
-16,2,18,7,-17,9,9,36,44,1644,5,-63
-24,2,26,11,-25,14,12,41,48,1653,9,-59
-29,2,31,14,-30,16,14,43,50,1660,10,-57
-20,2,21,9,-20,11,11,40,46,1661,6,-60
-3,1,4,1,-3,3,5,35,41,1661,0,-65
4,2,-3,-2,4,0,3,34,39,1664,-1,-67
4,2,-2,-2,3,0,4,35,40,1670,-1,-67
2,1,0,-1,1,1,4,36,40,1677,-1,-67
2,1,0,-1,1,0,4,36,39,1682,-1,-68
5,1,-2,-3,4,-1,3,37,39,1688,-2,-68
9,4,-4,-6,6,0,4,38,40,1694,-1,-67
9,4,-4,-6,6,0,4,38,40,1698,-1,-67
4,2,-3,-2,3,0,4,38,40,1702,-2,-68
1,0,-1,0,1,0,4,38,39,1706,-2,-68
1,1,0,0,1,0,5,39,39,1710,-2,-67
1,1,0,0,0,0,5,39,39,1714,-1,-67
0,0,1,0,-1,0,5,39,37,1716,-1,-67
0,0,1,0,-1,0,5,39,36,1718,-2,-67
1,1,0,-1,0,0,6,39,36,1721,-2,-67
0,0,0,0,0,0,6,38,36,1722,-2,-66
-1,-1,0,2,0,0,6,37,36,1724,-3,-65
0,0,-1,1,0,0,7,36,35,1726,-3,-64
4,2,-2,-2,3,0,7,35,34,1728,-3,-64
5,2,-3,-3,5,-1,6,34,33,1732,-3,-64
4,0,-4,-1,4,-2,5,32,31,1735,-4,-65
4,0,-5,-2,5,-3,6,31,30,1739,-5,-65
5,0,-5,-2,5,-3,7,30,29,1744,-4,-65
4,-1,-5,-1,5,-3,7,29,28,1749,-4,-64
3,-2,-5,0,5,-3,6,27,27,1754,-3,-64
2,-3,-5,1,4,-3,6,26,27,926,-3,-64
4,-3,-7,0,5,-4,6,25,26,-399,-3,-64
5,-3,-8,0,7,-6,6,23,25,-1182,-3,-64
5,-3,-8,0,6,-6,7,22,24,-1643,-2,-63
3,-3,-6,0,4,-6,8,21,24,-1913,-1,-62
1,-3,-5,1,3,-5,9,21,24,-2071,-1,-61
0,-4,-5,2,2,-5,9,19,24,-2162,-1,-62
-1,-5,-4,3,1,-5,10,18,24,-2214,-1,-62
-3,-5,-3,5,0,-4,10,18,24,-2243,-1,-63
-1,-5,-4,4,1,-5,10,16,22,-2258,-2,-64
0,-5,-5,4,2,-5,9,15,21,-2265,-3,-65
2,-5,-7,2,4,-6,8,13,20,-2268,-3,-66
6,-5,-10,0,7,-7,8,11,19,-2269,-4,-66
4,-3,-6,0,4,-5,9,11,20,-2266,-2,-64
0,-2,-1,1,0,-2,11,12,21,-2262,-1,-63
0,-3,-2,1,0,-3,10,10,20,-2261,-2,-64
0,-4,-5,2,2,-4,7,7,18,-2259,-5,-66
0,-6,-5,3,2,-5,5,6,17,-2257,-6,-67
3,-6,-8,1,5,-7,5,4,16,-2254,-7,-68
7,-5,-11,-1,9,-8,4,3,15,-2251,-7,-69
9,-4,-11,-2,10,-8,5,2,15,-2247,-7,-68
8,-4,-10,-2,9,-7,5,2,15,-2243,-6,-67
6,-4,-9,-1,8,-7,6,2,15,-2239,-5,-66
5,-4,-8,0,6,-6,6,2,15,-2236,-5,-65
2,-4,-6,1,5,-6,5,2,15,-2232,-5,-64
-1,-4,-3,3,1,-4,6,3,16,-2227,-3,-63
-3,-4,-1,4,-1,-3,6,4,17,-2222,-2,-61
-4,-4,0,5,-1,-2,5,4,18,-2218,-1,-60
-4,-4,1,5,-2,-1,5,4,19,-2214,-1,-60
-2,-3,0,3,0,-2,4,4,18,-2211,-1,-60
3,-3,-5,0,4,-4,2,3,17,-2210,-2,-61
5,-3,-7,-1,6,-5,1,2,16,-2208,-3,-61
1,-2,-4,0,3,-3,3,4,18,-2203,-2,-60
1,-2,-3,0,2,-3,3,4,18,-2199,-2,-59
8,-1,-10,-2,9,-6,2,2,16,-2198,-4,-61
10,-1,-12,-3,11,-7,1,2,16,-2195,-4,-60
4,-1,-6,0,5,-4,2,4,18,-2190,-2,-58
3,-1,-5,0,3,-4,2,4,18,-2187,-1,-58
9,-1,-11,-3,10,-7,1,2,16,-2187,-4,-61
13,-1,-14,-5,14,-8,0,1,15,-2185,-5,-62
12,0,-12,-5,12,-7,1,2,16,-2181,-3,-61
10,0,-10,-5,11,-6,2,3,17,-2178,-2,-60
8,0,-8,-4,8,-4,3,4,18,-2175,-1,-59
6,0,-6,-3,7,-3,4,5,18,-2171,0,-58
8,0,-8,-3,8,-4,3,4,17,-2169,-1,-58
9,-1,-11,-4,10,-6,2,3,16,-2168,-2,-59
9,0,-10,-4,9,-5,3,4,17,-2165,-1,-57
8,0,-8,-3,8,-4,4,5,18,-2162,-1,-55
10,0,-9,-5,9,-4,4,5,18,-2159,-1,-55
13,1,-11,-7,12,-4,4,5,17,-2157,-1,-56
11,1,-9,-6,10,-4,5,5,17,-2155,-1,-56
7,0,-6,-4,7,-3,6,6,17,-2153,-1,-56
8,0,-7,-4,8,-3,5,5,16,-2152,-1,-56
12,1,-11,-6,11,-5,3,4,15,-2152,-2,-57
12,1,-11,-6,12,-5,3,4,15,-2150,-2,-56
11,1,-10,-6,10,-4,3,4,16,-2147,-1,-55
9,0,-8,-4,8,-4,3,4,16,-2146,-1,-55
6,0,-6,-3,6,-4,3,5,16,-2144,-1,-54
8,0,-8,-4,8,-5,3,4,15,-2143,-1,-54
14,1,-13,-7,14,-7,2,3,14,-2142,-3,-56
15,1,-15,-7,15,-7,2,3,13,-2141,-3,-57
13,0,-13,-6,13,-7,3,3,14,-2138,-3,-56
11,0,-12,-4,11,-6,3,3,14,-2136,-2,-56
10,0,-10,-3,10,-6,2,3,15,-2134,-2,-55
10,0,-9,-4,9,-5,3,4,15,-2132,-1,-54
10,0,-10,-5,10,-4,4,4,14,-2130,-1,-54
10,0,-9,-5,10,-4,5,4,14,-2129,-1,-54
9,1,-8,-5,9,-3,5,5,15,-2126,-1,-54
12,1,-10,-6,11,-4,4,4,15,-2125,-1,-54
15,2,-13,-8,14,-5,3,3,14,-2125,-2,-55
17,2,-14,-9,16,-6,3,3,13,-2124,-2,-55
18,1,-15,-9,17,-7,3,2,13,-2123,-2,-55
16,0,-15,-8,16,-7,3,2,13,-2122,-3,-55
12,0,-11,-6,12,-5,4,3,14,-2120,-2,-54
9,0,-8,-5,9,-4,4,5,14,-2118,-1,-53
11,0,-11,-6,11,-6,3,4,13,-2117,-2,-54
13,0,-13,-6,13,-7,3,4,12,-2116,-3,-54
10,0,-10,-4,10,-6,4,5,13,-2114,-2,-52
9,0,-10,-4,10,-6,4,5,14,-2113,-1,-51
9,0,-9,-3,9,-5,4,5,14,-2111,-1,-50
6,0,-7,-2,7,-4,5,5,15,-2110,0,-49
8,0,-9,-3,9,-5,4,5,15,-2109,-1,-50
14,0,-14,-7,14,-7,3,4,13,-2109,-2,-52
14,0,-14,-7,14,-7,3,4,14,-2108,-2,-51
11,0,-10,-5,11,-6,4,6,15,-2106,-1,-49
12,0,-12,-5,12,-6,4,5,14,-2105,-1,-49
18,0,-18,-8,18,-9,2,4,12,-2106,-3,-51
21,1,-21,-10,21,-10,1,3,11,-2106,-4,-52
19,1,-19,-9,19,-9,2,4,12,-2105,-3,-52
17,0,-18,-8,18,-9,2,5,12,-2104,-3,-52
19,-1,-21,-9,20,-11,1,4,11,-2104,-4,-53
20,-1,-22,-9,21,-12,1,4,11,-2103,-4,-53
17,-1,-18,-8,18,-10,3,6,12,-2101,-2,-51
14,-1,-15,-6,15,-8,4,7,13,-2099,-1,-49
15,-1,-16,-7,16,-8,4,7,13,-2098,-1,-49
19,0,-19,-8,19,-9,4,7,12,-2099,-2,-50
19,-1,-20,-8,19,-9,4,6,12,-2099,-2,-50
18,-2,-19,-7,18,-10,4,6,12,-2099,-2,-50
17,-1,-19,-7,18,-9,4,7,12,-2098,-2,-50
18,0,-19,-9,19,-9,5,8,13,-2097,-1,-49
19,0,-19,-10,19,-10,6,9,12,-2097,-1,-49
15,0,-15,-7,15,-8,7,10,13,-2096,0,-47
11,0,-12,-5,12,-7,9,11,14,-2095,1,-44
16,0,-16,-8,16,-9,8,10,13,-2096,0,-44
23,0,-23,-11,23,-11,6,8,11,-2098,-1,-46
22,1,-22,-11,21,-10,6,8,11,-2098,-1,-46
16,0,-17,-8,16,-8,7,9,13,-2097,0,-45
15,0,-16,-7,16,-8,7,9,13,-2098,0,-47
18,0,-19,-9,18,-10,5,8,11,-2099,-1,-50
20,0,-21,-11,21,-11,4,6,10,-2100,-2,-51
22,0,-23,-11,23,-12,3,4,9,-2101,-3,-52
23,0,-24,-11,23,-12,3,4,9,-2102,-3,-52
23,0,-22,-11,22,-11,3,4,8,-2102,-2,-51
21,1,-20,-10,20,-9,3,5,8,-2102,-2,-49
19,1,-18,-10,19,-9,4,5,9,-2103,-2,-48
20,1,-19,-11,20,-9,3,4,10,-2104,-3,-48
21,2,-20,-12,20,-10,3,4,10,-2105,-3,-47
21,2,-19,-11,20,-10,3,5,10,-2106,-3,-47
20,2,-19,-10,19,-9,3,5,9,-2106,-2,-46
19,2,-18,-10,18,-9,3,5,9,-2107,-2,-45
18,2,-17,-10,17,-8,3,5,10,-2107,-1,-44
16,2,-15,-9,16,-7,3,5,12,-2108,0,-43
16,2,-15,-9,16,-7,2,5,13,-2109,1,-43
18,2,-17,-10,17,-8,0,5,12,-2110,1,-45
18,1,-17,-10,17,-8,-1,5,12,-2110,1,-46
17,0,-17,-9,17,-8,-2,5,12,-2111,1,-46
19,0,-19,-10,19,-10,-3,5,12,-2112,0,-46
21,1,-21,-11,21,-10,-2,5,11,-2113,0,-46
21,1,-20,-11,21,-10,-1,5,12,-2115,0,-46
21,1,-20,-11,21,-9,0,5,13,-2116,0,-46
22,2,-20,-11,21,-9,0,5,14,-2117,-1,-45
21,2,-20,-11,20,-9,0,6,15,-2118,-1,-44
22,1,-21,-11,21,-10,0,6,14,-2119,-1,-43
23,1,-22,-12,22,-11,0,6,14,-2120,-1,-43
20,2,-19,-11,19,-9,0,8,15,-2120,0,-42
19,3,-17,-10,18,-7,1,9,17,-2121,1,-41
20,2,-17,-10,18,-8,1,9,17,-2122,1,-41
18,2,-16,-9,17,-7,2,9,17,-2122,2,-41
15,2,-13,-8,14,-6,3,9,17,-2123,3,-39
15,2,-13,-8,14,-6,3,9,17,-2125,3,-39
17,2,-15,-10,15,-6,2,8,16,-2127,3,-39
20,3,-16,-12,18,-6,2,9,16,-2129,3,-40
23,4,-18,-14,20,-7,2,9,16,-2130,3,-41
25,5,-20,-15,22,-7,2,8,17,-2132,3,-42
24,4,-19,-14,22,-8,2,7,17,-2133,2,-42
21,2,-18,-12,20,-8,2,7,17,-2135,2,-43
21,2,-19,-11,20,-8,2,6,16,-2137,2,-43
23,2,-20,-12,21,-9,2,6,16,-2139,1,-43
23,2,-21,-12,22,-9,1,6,16,-2141,1,-42
22,1,-20,-12,21,-9,0,6,16,-2143,1,-40
21,1,-19,-11,20,-9,1,7,16,-2145,1,-39
21,1,-19,-11,20,-9,1,7,16,-2146,2,-39
22,3,-18,-12,20,-8,2,8,17,-2147,2,-38
21,4,-16,-12,19,-7,3,9,17,-2148,3,-37
19,3,-16,-11,18,-7,3,8,16,-2150,3,-38
18,1,-17,-10,17,-8,3,7,16,-2152,2,-38
18,1,-17,-10,17,-7,3,7,18,-2153,3,-38
21,3,-18,-13,19,-7,3,7,19,-2154,3,-37
23,4,-19,-14,21,-7,2,7,19,-2157,2,-37
22,3,-18,-12,20,-7,2,7,20,-2159,2,-37
18,2,-15,-10,17,-7,3,7,20,-2160,3,-36
16,2,-14,-9,15,-6,3,7,21,-2160,4,-36
17,2,-16,-10,17,-7,3,7,20,-2161,4,-36
20,3,-18,-11,19,-8,2,5,19,-2163,3,-37
22,3,-19,-12,20,-8,2,5,18,-2165,2,-37
19,3,-16,-11,17,-7,3,6,18,-2166,3,-35
16,3,-13,-9,15,-5,4,7,19,-2166,4,-34
18,3,-15,-10,16,-6,4,7,19,-2169,4,-34
22,3,-18,-12,20,-8,3,5,17,-2172,2,-35
23,3,-20,-13,22,-9,2,4,17,-2175,1,-36
22,3,-19,-13,21,-8,3,5,18,-2177,2,-36
19,3,-16,-11,18,-7,3,6,20,-2179,3,-35
18,1,-17,-10,18,-7,2,5,19,-2183,3,-36
20,1,-19,-10,19,-8,2,4,17,-2186,2,-36
20,1,-19,-10,19,-8,2,5,17,-2187,3,-35
20,1,-19,-10,19,-8,2,5,17,-2188,3,-35
20,1,-19,-10,19,-9,1,4,17,-2189,2,-35
21,1,-20,-11,21,-9,1,4,17,-2189,2,-36
23,2,-21,-12,22,-9,1,4,18,-2188,2,-36
22,2,-20,-12,21,-9,2,4,19,-2188,3,-35
20,2,-19,-11,20,-9,2,4,19,-2189,3,-34
19,2,-18,-11,19,-8,1,4,19,-2190,3,-34
19,3,-16,-11,17,-6,2,6,20,-2190,6,-31
20,6,-14,-13,17,-4,2,9,24,-2189,10,-28
23,7,-15,-15,19,-4,2,15,31,-2186,17,-24
24,8,-15,-16,20,-3,2,24,41,-2180,26,-19
24,9,-14,-16,19,-3,2,37,55,-2171,39,-11
25,9,-15,-17,20,-3,2,52,72,-2160,54,-2
28,10,-18,-19,23,-4,2,64,87,-2149,69,7
32,12,-20,-23,26,-4,3,65,94,-2140,84,18
36,14,-22,-26,29,-4,3,55,89,-2137,98,28
37,15,-21,-26,29,-3,3,38,75,-2139,108,37
34,15,-19,-24,27,-2,3,17,57,-2145,115,42
33,14,-19,-23,26,-2,3,-5,36,-2156,118,45
33,13,-21,-22,27,-4,3,-30,13,-2173,113,43
33,10,-23,-21,27,-6,5,-54,-11,-2198,95,33
31,6,-25,-19,27,-9,8,-73,-36,-2231,65,15
28,1,-26,-15,27,-12,9,-91,-60,-2264,33,-4
24,-2,-27,-11,26,-14,9,-108,-81,-2292,6,-21
21,-5,-27,-8,24,-16,8,-123,-96,-1482,-15,-35
18,-9,-27,-4,23,-18,6,-133,-107,-176,-35,-48
14,-13,-27,0,20,-20,6,-138,-115,590,-54,-61
11,-17,-28,4,19,-22,5,-138,-122,1036,-70,-72
9,-21,-31,6,20,-26,3,-139,-127,1294,-82,-80
8,-26,-34,9,20,-30,0,-139,-129,1444,-89,-85
7,-30,-38,11,22,-33,-3,-136,-125,1533,-90,-86
7,-32,-39,12,23,-35,-5,-129,-115,1590,-87,-85
7,-32,-39,12,23,-35,-6,-120,-103,1630,-81,-81
7,-29,-36,11,21,-32,-6,-107,-87,1659,-72,-75
7,-25,-32,10,19,-28,-5,-92,-71,847,-61,-68
8,-20,-28,7,18,-24,-5,-77,-58,-468,-50,-62
9,-16,-26,4,18,-20,-4,-63,-47,-1247,-41,-58
10,-11,-23,1,17,-17,-3,-50,-35,-1708,-33,-53
13,-7,-22,-3,17,-14,-1,-38,-22,-1979,-25,-48
17,-2,-21,-7,18,-11,0,-27,-9,-2139,-19,-43
17,-1,-19,-8,18,-10,0,-18,0,-2234,-15,-40
16,-3,-19,-7,17,-10,0,-12,4,-2291,-13,-39
15,-4,-19,-6,17,-11,1,-7,8,-2326,-11,-37
15,-3,-18,-6,16,-10,1,-3,11,-2346,-8,-35
14,-1,-15,-6,15,-8,2,0,15,-2357,-5,-33
13,0,-14,-6,14,-7,2,3,18,-2364,-3,-31
13,0,-14,-6,14,-7,1,3,18,-2370,-3,-31
14,-1,-15,-6,14,-8,1,4,19,-2375,-2,-30
14,-1,-16,-6,14,-8,2,6,22,-2378,-1,-30
15,-1,-17,-7,15,-9,3,8,24,-2381,-1,-29
18,0,-19,-9,18,-9,2,8,25,-2386,-1,-29
21,1,-20,-10,20,-9,1,8,25,-2390,-1,-29
22,2,-19,-11,20,-8,2,9,26,-2394,0,-28
19,2,-17,-10,18,-7,4,10,27,-2397,1,-27
17,2,-16,-9,17,-7,4,10,26,-2402,2,-27
17,2,-16,-9,16,-7,4,10,25,-2408,2,-26
15,0,-16,-8,15,-8,3,10,24,-2415,2,-26
14,0,-15,-7,14,-8,4,11,24,-2424,2,-26
14,1,-14,-7,13,-7,5,12,25,-2434,3,-26
14,2,-13,-7,13,-6,5,13,26,-2444,3,-26
15,2,-13,-8,14,-6,5,13,28,-2455,3,-27
16,3,-14,-9,16,-6,5,12,29,-2466,3,-26
18,3,-16,-10,17,-6,4,12,28,-1644,3,-26
19,4,-16,-11,18,-6,4,11,27,-326,2,-26
19,4,-15,-11,17,-5,4,11,27,450,2,-26
18,4,-14,-11,16,-5,5,11,27,908,2,-25
18,4,-15,-11,16,-6,5,12,26,1175,2,-25
19,3,-16,-11,17,-6,5,12,25,1328,2,-25
19,3,-17,-10,18,-6,6,12,25,1415,1,-25
16,2,-15,-9,16,-5,6,12,24,1464,2,-24
14,2,-12,-8,13,-4,7,13,24,1490,3,-24
14,3,-11,-8,12,-4,7,13,25,1503,4,-23
16,4,-12,-10,13,-4,6,13,24,1507,4,-23
19,4,-14,-12,15,-4,6,12,23,1504,3,-24
18,4,-13,-11,15,-4,6,13,23,1499,3,-24
16,4,-11,-10,13,-3,7,14,26,1494,3,-23
17,4,-13,-10,15,-4,7,13,27,1486,3,-24
20,4,-16,-11,18,-6,6,12,25,1477,2,-25
20,4,-16,-11,18,-6,5,12,25,1468,2,-25
19,4,-14,-11,17,-5,5,12,26,1457,2,-25
18,5,-13,-12,16,-3,6,13,26,1444,3,-24
18,5,-12,-12,15,-2,6,13,27,1431,4,-24
18,5,-12,-12,15,-3,5,13,26,1418,3,-23
19,4,-14,-12,16,-4,5,13,25,1406,3,-23
18,4,-14,-11,16,-4,6,13,25,1397,3,-23
17,6,-12,-11,15,-3,7,14,25,1389,4,-22
17,7,-10,-12,14,-1,8,15,25,1382,4,-21
19,8,-11,-13,15,-1,8,15,25,1374,4,-22
19,6,-12,-12,16,-3,8,15,24,1364,3,-23
15,3,-11,-9,13,-4,7,15,24,1354,2,-23
14,3,-11,-8,12,-4,7,15,24,1345,2,-23
17,4,-13,-10,15,-4,7,15,24,1335,1,-23
16,5,-12,-10,14,-4,7,16,25,1328,2,-22
15,5,-11,-10,14,-3,8,17,26,1321,2,-22
17,5,-12,-11,15,-3,8,18,27,1313,2,-22
18,6,-13,-12,16,-3,8,18,27,1305,2,-22
18,5,-13,-12,16,-3,8,18,26,1297,1,-22
18,4,-13,-11,15,-3,8,19,25,1288,1,-22
17,5,-11,-11,14,-3,8,20,25,1281,2,-21
17,6,-10,-11,13,-2,9,22,27,1273,3,-21
17,6,-10,-12,14,-2,9,23,28,1266,3,-21
17,7,-10,-12,14,-2,9,24,29,1258,3,-21
16,6,-10,-11,13,-2,9,25,29,1250,3,-20
13,4,-10,-9,12,-3,9,26,29,1242,3,-20
11,4,-7,-8,9,-1,10,28,31,1234,4,-19
12,5,-6,-9,9,0,11,30,33,1225,5,-18
16,5,-10,-11,13,-2,10,30,33,1214,3,-19
19,6,-12,-12,15,-3,10,31,33,1202,2,-20
20,7,-12,-13,15,-2,11,33,34,1192,3,-19
20,9,-11,-15,16,-1,12,35,35,1182,4,-18
19,9,-10,-14,14,-1,12,36,35,1170,4,-18
16,8,-9,-12,13,-1,12,37,33,1157,4,-18
16,9,-8,-12,12,0,12,38,32,1145,4,-18
17,11,-6,-13,11,2,14,41,34,1134,5,-16
18,11,-6,-14,12,2,15,43,36,1123,5,-16
15,10,-5,-13,10,2,16,44,36,1114,5,-16
11,10,-1,-11,6,4,18,45,37,1106,5,-15
14,10,-3,-12,8,3,17,45,38,1097,4,-16
19,10,-9,-14,14,0,14,43,37,1088,2,-18
19,8,-11,-13,15,-2,13,42,35,1079,0,-19
18,8,-11,-12,14,-1,13,42,33,1072,0,-19
18,8,-11,-13,14,-1,14,42,32,1065,0,-20
17,9,-8,-13,13,1,15,43,33,1059,0,-19
17,10,-6,-14,11,2,16,43,33,1053,0,-18
19,10,-9,-15,14,0,15,41,31,1045,-1,-19
22,11,-10,-16,16,0,13,40,28,1037,-3,-19
21,12,-9,-16,15,0,14,39,28,1031,-3,-19
19,12,-7,-15,13,1,14,38,28,1025,-3,-18
17,11,-6,-14,11,2,15,37,28,1019,-3,-18
16,12,-4,-14,10,3,16,36,28,1013,-3,-18
16,12,-4,-14,10,3,16,35,26,1006,-3,-18
14,10,-4,-12,9,3,15,33,24,998,-4,-18
13,9,-3,-11,8,2,15,31,22,992,-5,-18
16,9,-6,-12,11,1,14,29,20,985,-6,-18
20,10,-9,-14,15,0,13,27,18,978,-6,-19
18,10,-7,-13,13,1,13,25,16,973,-5,-17
15,10,-4,-12,10,3,13,24,15,968,-4,-16
18,10,-8,-14,12,2,11,22,12,962,-4,-17
21,10,-12,-16,16,0,8,19,10,956,-5,-18
22,9,-13,-16,17,-1,6,16,9,951,-5,-18
21,8,-12,-15,17,-2,4,14,8,947,-5,-17
20,8,-12,-14,16,-2,4,13,8,943,-4,-16
20,8,-12,-14,16,-2,3,13,8,940,-3,-15
19,7,-12,-13,16,-2,3,11,9,937,-2,-14
17,6,-10,-11,14,-2,3,10,9,934,-1,-14
16,6,-9,-11,13,-1,5,9,10,931,0,-13
18,8,-9,-13,13,0,5,8,10,927,0,-13
20,9,-11,-15,15,-1,4,7,8,923,0,-13
21,9,-13,-15,16,-2,4,6,8,919,0,-13
20,8,-12,-14,16,-2,4,6,8,916,0,-13
18,7,-10,-12,14,-2,5,6,9,913,0,-12
16,7,-9,-11,13,-1,5,5,9,911,0,-12
16,8,-8,-11,12,0,5,5,9,908,1,-12
17,9,-8,-13,12,0,5,4,9,906,1,-12
18,9,-8,-14,12,0,5,4,9,903,1,-12
17,10,-8,-14,12,0,5,3,9,900,1,-12
18,10,-8,-14,13,0,5,3,8,896,1,-13
18,9,-9,-13,13,0,4,3,7,893,1,-14
16,9,-7,-12,11,1,5,2,8,890,1,-13
14,8,-5,-11,10,1,5,2,10,889,1,-11
15,9,-6,-11,11,1,5,1,10,887,2,-10
16,9,-7,-12,11,1,6,1,10,886,3,-9
16,9,-7,-12,11,1,6,1,10,885,4,-9
17,10,-6,-13,11,2,6,1,12,884,4,-10
15,11,-5,-12,9,2,6,1,14,883,5,-11
13,10,-3,-11,8,3,7,1,14,883,5,-11
13,10,-4,-11,8,3,7,1,13,882,4,-11
15,9,-6,-12,10,2,6,0,12,880,3,-12
16,9,-6,-12,11,1,5,-1,11,879,2,-12
17,10,-6,-13,11,2,4,-2,11,879,1,-11
19,11,-7,-15,13,2,4,-2,10,878,0,-10
19,11,-8,-15,13,1,4,-3,9,878,0,-9
18,10,-8,-14,13,1,4,-3,10,878,0,-8
18,11,-7,-14,12,2,5,-3,11,879,0,-7
18,12,-5,-14,12,3,5,-3,11,881,0,-8
17,13,-4,-14,11,4,4,-3,11,883,0,-8
17,12,-4,-14,11,4,3,-3,11,884,0,-8
16,11,-4,-13,10,3,3,-4,10,885,0,-9
15,11,-4,-13,10,3,3,-4,9,886,-1,-11
17,12,-5,-14,10,4,3,-4,9,888,-1,-11
17,12,-5,-15,10,4,4,-4,9,890,0,-11
15,12,-3,-14,8,4,4,-4,10,892,0,-11
13,12,-1,-13,6,6,5,-4,10,895,0,-11
15,14,-1,-14,7,6,5,-4,11,896,-1,-9
18,15,-3,-16,10,6,4,-5,10,897,-2,-9
18,14,-3,-16,11,5,4,-5,10,897,-3,-10
14,13,-1,-13,8,6,5,-5,10,897,-3,-11
12,13,0,-12,6,7,6,-4,10,897,-4,-13
12,13,0,-13,6,7,5,-5,9,897,-5,-14
12,14,1,-13,5,7,5,-5,9,898,-5,-14
13,14,0,-14,6,7,5,-5,9,898,-5,-13
14,12,-2,-13,8,4,4,-6,8,898,-6,-13
13,10,-3,-11,8,3,4,-6,8,898,-6,-12
12,10,-2,-10,7,3,5,-5,10,898,-4,-11
9,9,-1,-9,5,3,6,-4,11,898,-2,-10
8,8,-1,-8,4,3,6,-3,11,898,-1,-8
12,7,-6,-9,8,0,4,-5,10,896,-2,-9
17,6,-12,-12,14,-3,2,-7,8,894,-4,-11
18,6,-12,-12,15,-3,2,-7,7,893,-5,-12
16,7,-9,-11,13,-1,2,-7,8,893,-6,-12
17,8,-8,-12,13,0,2,-7,8,892,-7,-13
16,8,-8,-11,12,0,2,-7,8,890,-7,-14
14,8,-5,-11,9,1,3,-6,9,890,-5,-12
14,9,-5,-12,10,1,4,-4,10,889,-4,-11
15,9,-6,-12,10,1,4,-4,10,887,-3,-10
14,7,-6,-11,9,0,5,-3,10,885,-2,-9
14,6,-7,-10,10,0,5,-3,10,883,-2,-9
15,6,-8,-11,11,0,5,-4,10,882,-3,-9
16,6,-9,-11,12,-1,5,-4,10,880,-4,-10
16,5,-10,-10,13,-2,5,-4,10,878,-4,-10
15,5,-9,-10,12,-2,6,-3,11,876,-4,-9
14,6,-8,-10,10,-1,7,-2,11,874,-3,-9
14,6,-8,-10,11,-1,7,-2,11,871,-4,-10
14,6,-8,-10,11,-1,6,-3,10,869,-5,-11
13,6,-7,-10,10,0,7,-3,10,868,-4,-11
14,7,-7,-10,10,0,8,-2,11,867,-3,-9
14,7,-6,-11,10,0,8,-2,11,866,-2,-8
13,7,-5,-10,9,1,9,-2,11,864,-1,-7
12,7,-4,-9,8,1,8,-2,11,861,-1,-7
13,6,-6,-10,10,0,7,-3,9,857,-2,-8
16,7,-9,-12,12,-1,6,-4,8,853,-2,-9
16,7,-9,-12,12,0,6,-4,8,849,-2,-9
12,7,-5,-10,8,1,6,-4,9,846,-2,-8
10,7,-3,-8,6,2,6,-4,9,842,-2,-8
12,7,-4,-9,7,2,5,-4,9,837,-3,-9
14,7,-6,-10,10,0,4,-5,8,830,-3,-9
13,5,-7,-9,10,0,4,-6,7,824,-3,-9
10,3,-6,-7,8,-1,4,-6,6,817,-3,-8
9,3,-6,-6,7,-1,4,-6,5,810,-4,-8
11,5,-6,-8,8,0,3,-7,4,804,-5,-9
11,6,-6,-9,8,0,3,-8,2,797,-6,-10
7,6,-1,-7,4,2,3,-7,2,792,-5,-10
4,6,2,-5,0,4,3,-6,3,788,-4,-9
6,6,0,-5,2,3,2,-7,2,781,-4,-9
9,6,-3,-6,6,1,0,-7,1,774,-3,-9
10,6,-4,-7,7,0,0,-8,1,767,-2,-8
10,6,-5,-7,8,0,-1,-8,0,761,-1,-8
11,7,-5,-8,8,1,-2,-8,-1,755,-1,-7
12,8,-4,-10,8,2,-3,-7,0,752,1,-5
12,10,-2,-11,6,4,-3,-3,3,753,6,-2
11,12,1,-11,4,6,-3,5,11,759,15,3
12,13,2,-13,4,8,-2,15,22,768,28,11
14,14,1,-14,7,7,-3,29,37,779,43,20
18,15,-3,-15,10,6,-4,42,52,791,60,30
20,16,-5,-17,12,5,-4,49,62,800,75,41
21,17,-5,-18,13,6,-4,46,61,803,87,50
22,18,-5,-20,13,7,-4,33,50,798,95,55
24,19,-6,-21,15,6,-5,15,33,789,100,60
25,19,-6,-22,15,6,-4,-5,13,777,104,64
23,18,-5,-21,14,6,-3,-27,-11,759,102,65
19,13,-5,-16,12,3,0,-50,-41,732,86,58
17,7,-10,-12,14,-1,2,-75,-74,695,56,41
16,2,-14,-9,15,-6,2,-101,-106,656,21,20
13,-1,-15,-5,14,-8,3,-123,-133,623,-8,1
10,-4,-15,-2,12,-10,2,-141,-153,596,-33,-15
7,-9,-17,1,11,-13,1,-154,-169,572,-55,-30
3,-15,-19,5,10,-18,0,-159,-179,549,-76,-45
0,-20,-20,9,10,-21,-1,-161,-185,529,-93,-58
-2,-24,-22,12,10,-23,-2,-162,-188,512,-104,-67
-3,-26,-23,14,10,-24,-3,-161,-186,500,-110,-72
-3,-27,-24,15,11,-25,-5,-155,-178,495,-109,-73
-3,-28,-25,15,11,-26,-6,-145,-165,496,-103,-71
-2,-27,-25,14,11,-25,-7,-131,-148,498,-94,-66
-1,-24,-23,12,10,-23,-7,-113,-129,499,-82,-58
-1,-20,-19,11,8,-19,-5,-95,-110,500,-69,-49
-2,-18,-16,10,6,-17,-6,-80,-95,502,-57,-41
-1,-17,-15,9,7,-16,-8,-67,-82,502,-48,-35
0,-14,-13,7,6,-13,-7,-54,-71,503,-39,-29
0,-10,-9,5,5,-9,-5,-43,-60,504,-32,-25
1,-5,-6,1,4,-5,-3,-34,-52,504,-27,-22
3,0,-4,-2,4,-2,-2,-26,-45,503,-23,-20
5,2,-4,-4,4,0,-2,-21,-40,502,-20,-18
5,2,-3,-4,3,0,-2,-16,-36,500,-18,-17
3,0,-3,-1,2,-2,-1,-14,-34,497,-16,-16
0,-3,-3,2,1,-3,-1,-12,-33,496,-14,-14
-1,-4,-2,3,0,-3,-1,-10,-31,494,-12,-11
0,-3,-3,2,2,-3,0,-9,-31,491,-11,-11
2,-3,-5,1,3,-3,0,-9,-31,486,-11,-12
2,-3,-6,0,4,-4,0,-9,-31,481,-11,-12
2,-4,-6,0,4,-5,0,-8,-31,476,-12,-12
2,-4,-6,1,4,-5,0,-7,-31,472,-13,-13
1,-4,-5,1,3,-5,0,-7,-30,469,-13,-13
0,-4,-3,2,2,-5,0,-7,-31,465,-13,-13
0,-4,-3,2,2,-4,-1,-8,-32,461,-13,-13
1,-3,-3,1,2,-4,0,-9,-32,456,-13,-12
2,-2,-4,0,3,-3,0,-8,-32,450,-12,-13
0,-4,-4,2,2,-4,0,-7,-32,445,-12,-13
-3,-6,-4,4,0,-4,0,-6,-32,442,-11,-13
-4,-6,-4,5,-1,-4,1,-6,-32,440,-10,-11
-2,-6,-5,4,0,-5,0,-5,-32,438,-10,-10
0,-6,-6,3,3,-6,0,-5,-32,436,-11,-10
0,-6,-6,3,3,-6,0,-5,-33,434,-12,-10
-2,-7,-4,4,2,-5,0,-5,-32,433,-11,-10
-2,-7,-4,4,2,-5,0,-5,-33,430,-12,-10
0,-7,-7,3,4,-7,-1,-6,-34,426,-12,-11
2,-7,-10,2,6,-8,-1,-5,-34,423,-11,-11
3,-7,-11,1,7,-8,-1,-5,-33,420,-11,-10
4,-8,-12,1,7,-9,-1,-5,-33,416,-11,-11
4,-9,-12,2,7,-10,0,-5,-33,412,-12,-11
2,-9,-9,3,5,-9,1,-4,-32,408,-12,-11
0,-8,-7,3,4,-8,2,-3,-31,405,-11,-11
0,-7,-6,3,4,-7,3,-2,-30,402,-10,-11
-1,-7,-6,4,3,-6,3,-1,-29,399,-8,-10
-1,-7,-6,4,2,-6,2,0,-29,395,-7,-9
0,-7,-8,4,3,-7,2,0,-29,391,-8,-9
0,-8,-9,4,3,-7,2,0,-29,388,-8,-8
0,-9,-9,4,4,-8,3,1,-28,386,-8,-8
3,-8,-10,2,7,-9,3,1,-28,386,-8,-8
5,-7,-10,0,8,-9,3,1,-28,385,-8,-9
4,-8,-10,1,7,-9,3,0,-29,382,-10,-11
2,-9,-9,4,6,-10,2,0,-30,378,-11,-12
-2,-10,-8,6,3,-9,3,0,-29,376,-11,-13
-3,-9,-7,7,1,-8,4,1,-28,376,-9,-13
-1,-7,-7,5,2,-7,5,3,-26,375,-7,-11
0,-7,-7,4,3,-7,5,4,-25,374,-6,-10
0,-8,-7,4,3,-8,4,4,-25,371,-6,-8
0,-7,-5,4,2,-7,3,4,-25,369,-6,-6
-1,-5,-2,3,0,-4,4,5,-24,369,-6,-7
-1,-4,-1,3,0,-3,4,5,-24,367,-6,-9
0,-4,-3,3,1,-3,3,5,-24,365,-7,-10
0,-3,-4,2,2,-3,3,4,-23,363,-6,-10
0,-2,-4,1,2,-3,3,4,-23,361,-5,-11
0,-3,-4,2,1,-4,2,4,-23,360,-4,-12
-1,-5,-5,3,1,-5,1,4,-23,358,-5,-12
0,-7,-7,4,2,-7,1,4,-23,356,-7,-12
0,-8,-7,4,3,-7,1,5,-23,354,-8,-12
-1,-8,-5,5,2,-6,1,7,-22,352,-8,-11
-3,-7,-4,5,1,-5,1,8,-21,351,-8,-10
-3,-6,-3,5,0,-4,0,9,-20,350,-8,-10
-3,-6,-3,5,0,-4,-1,10,-19,349,-7,-10
-2,-6,-4,4,0,-5,-1,11,-19,348,-6,-9
-2,-5,-3,4,0,-5,-2,13,-18,347,-5,-7
-2,-5,-2,3,0,-4,-3,14,-16,346,-3,-6
0,-4,-3,2,1,-4,-4,15,-15,344,-1,-4
0,-4,-3,2,2,-4,-5,17,-13,340,0,0
-1,-4,-2,3,0,-3,-5,18,-13,332,2,2
-3,-5,-1,4,0,-3,-4,20,-13,322,2,2
-4,-5,-1,4,-1,-3,-3,21,-12,315,3,0
-4,-5,-2,5,-1,-3,-2,22,-11,310,3,-4
-2,-5,-4,4,0,-5,-2,23,-10,305,2,-6
0,-5,-5,4,2,-6,-2,24,-10,299,1,-7
1,-5,-6,3,4,-6,-3,24,-10,294,0,-7
2,-4,-6,1,4,-6,-3,25,-10,290,-1,-7
1,-3,-4,1,3,-4,-2,27,-9,288,-1,-7
0,-2,-1,1,1,-2,-1,28,-7,286,0,-6
0,-1,0,1,0,-1,-1,30,-6,284,0,-5
0,-1,-1,0,0,0,-1,31,-6,281,1,-4
0,0,-2,0,1,-1,-1,31,-5,280,3,-2
0,0,-2,0,1,-1,0,31,-5,280,5,0
-1,-1,-1,1,0,-1,0,32,-4,278,7,2
-1,-2,-1,2,0,-1,0,32,-4,275,8,3
0,-2,-2,1,1,-1,-1,32,-5,272,8,3
1,-2,-3,1,2,-2,-2,31,-6,270,7,3
0,-2,-3,1,2,-2,-3,30,-7,268,6,3
-1,-2,-1,1,0,-1,-2,29,-8,265,4,2
-3,-1,1,2,-2,0,-1,29,-9,262,2,0
-4,0,4,2,-4,1,0,29,-9,260,1,-1
-3,0,3,2,-3,1,0,27,-10,259,1,-2
0,-1,-1,1,1,-1,0,26,-11,256,1,-2
2,-3,-5,1,4,-4,-1,24,-12,253,2,0
0,-6,-7,3,4,-6,-1,23,-13,252,4,2
-1,-7,-7,4,3,-7,-1,22,-14,252,5,4
-1,-8,-7,5,3,-7,-2,21,-15,250,5,5
-2,-8,-5,5,1,-6,-2,19,-17,249,5,6
-2,-7,-5,4,1,-6,-2,16,-19,247,3,4
-1,-7,-5,3,2,-6,-2,13,-21,245,0,1
-1,-7,-5,3,2,-6,-3,11,-22,241,-2,-2
-2,-7,-4,4,1,-5,-3,9,-23,239,-3,-3
-3,-7,-3,5,0,-4,-3,8,-23,239,-2,-3
-4,-8,-4,6,0,-5,-3,7,-24,238,-2,-3
-4,-9,-6,7,0,-7,-3,5,-26,235,-3,-3
-3,-10,-8,6,2,-9,-3,3,-28,233,-4,-3
-3,-10,-8,6,2,-9,-4,1,-29,232,-5,-4
-5,-11,-6,8,0,-8,-4,0,-29,232,-5,-3
-8,-12,-3,10,-2,-7,-2,0,-28,234,-4,-3
-6,-11,-3,9,-1,-7,-2,0,-28,234,-4,-3
-3,-10,-5,7,1,-8,-2,-1,-28,233,-4,-4
-2,-10,-7,7,2,-8,-2,-2,-29,233,-4,-4
-5,-11,-6,8,1,-9,-2,-3,-30,231,-5,-4
-8,-13,-5,10,-1,-9,-2,-4,-31,230,-7,-5
-9,-14,-6,11,-2,-9,-2,-5,-32,229,-9,-8
-7,-14,-7,10,0,-10,-3,-7,-33,227,-11,-10
-6,-15,-8,10,1,-11,-3,-8,-33,226,-12,-12
-7,-16,-8,11,0,-11,-3,-9,-33,226,-11,-11
-7,-16,-8,12,0,-12,-4,-9,-33,226,-11,-10
-6,-16,-9,12,1,-12,-4,-9,-33,225,-11,-10
-6,-16,-9,11,1,-12,-4,-9,-33,225,-11,-9
-8,-15,-7,11,0,-11,-4,-9,-32,226,-10,-9
-8,-14,-6,10,-1,-10,-4,-9,-32,226,-9,-9
-8,-13,-5,10,-1,-9,-4,-9,-31,225,-8,-8
-9,-15,-5,11,-2,-10,-3,-9,-30,224,-8,-8
-11,-17,-6,14,-2,-11,-3,-9,-29,223,-9,-8
-11,-18,-6,15,-2,-12,-3,-9,-29,221,-10,-9
-10,-17,-6,14,-2,-11,-3,-9,-30,220,-11,-11
-9,-16,-6,13,-1,-11,-3,-9,-30,219,-12,-14
-9,-15,-6,12,-1,-11,-3,-9,-30,218,-12,-14
-10,-15,-6,12,-2,-10,-3,-9,-29,217,-11,-12
-10,-15,-5,12,-3,-10,-2,-8,-29,216,-9,-10
-9,-15,-5,12,-2,-10,-2,-8,-28,216,-9,-8
-7,-15,-8,11,0,-11,-3,-8,-28,215,-8,-7
-5,-15,-9,10,2,-12,-3,-8,-28,215,-8,-6
-6,-15,-9,11,1,-12,-3,-8,-27,215,-7,-4
-8,-16,-8,12,0,-12,-2,-7,-26,216,-6,-4
-10,-17,-7,13,-1,-12,0,-7,-25,216,-6,-5
-10,-16,-7,12,-2,-11,1,-6,-25,215,-6,-7
-9,-15,-7,12,-1,-11,1,-6,-25,213,-6,-7
-12,-16,-5,13,-3,-11,1,-5,-24,213,-5,-6
-16,-17,0,16,-7,-9,2,-4,-23,212,-5,-5
-18,-16,2,17,-9,-7,4,-3,-22,211,-5,-5
-12,-15,-1,14,-5,-8,2,-5,-23,209,-8,-9
-6,-14,-7,11,1,-10,0,-7,-25,205,-12,-15
-5,-14,-8,10,1,-11,0,-8,-26,203,-13,-16
-8,-14,-6,11,-1,-10,0,-8,-25,203,-12,-14
-11,-14,-3,13,-4,-9,1,-7,-23,205,-10,-11
-10,-15,-5,12,-3,-10,1,-7,-22,205,-8,-9
-7,-15,-8,10,0,-12,0,-8,-23,204,-8,-8
-6,-15,-8,11,1,-12,0,-8,-23,203,-8,-8
-8,-16,-7,12,0,-11,1,-8,-23,203,-8,-8
-11,-15,-4,14,-3,-9,2,-8,-22,203,-7,-7
-13,-14,-1,14,-6,-8,2,-7,-22,203,-7,-6
-13,-13,0,13,-6,-7,2,-8,-22,202,-8,-6
-12,-13,-1,12,-6,-7,2,-8,-22,200,-9,-6
-10,-12,-3,10,-4,-8,0,-9,-22,199,-11,-7
-8,-11,-3,9,-3,-7,0,-10,-22,199,-11,-7
-8,-11,-2,9,-3,-6,-1,-10,-22,200,-10,-8
-8,-10,-2,9,-3,-6,-2,-9,-21,200,-9,-8
-7,-11,-3,10,-2,-7,-3,-8,-20,199,-8,-9
-6,-12,-5,10,-1,-8,-4,-8,-20,198,-7,-8
-6,-12,-6,10,-1,-9,-5,-8,-19,199,-6,-5
-7,-12,-5,10,-2,-8,-6,-8,-19,199,-5,-3
-9,-12,-3,10,-4,-7,-5,-7,-18,198,-4,-2
-11,-11,0,11,-6,-5,-4,-6,-16,198,-4,-2
-9,-11,-1,10,-4,-5,-4,-6,-16,198,-5,-5
-5,-10,-5,8,0,-7,-5,-7,-16,197,-7,-7
-4,-10,-5,7,0,-7,-5,-6,-15,196,-6,-8
-6,-9,-3,8,-1,-5,-4,-5,-14,196,-5,-7
-7,-9,-1,8,-3,-5,-4,-5,-14,196,-3,-6
-7,-8,-1,7,-3,-5,-4,-5,-13,196,-3,-5
-8,-7,0,7,-4,-4,-3,-4,-12,195,-2,-4
-7,-6,0,6,-4,-3,-3,-4,-12,195,-1,-2
-5,-5,0,5,-2,-3,-3,-4,-11,196,0,-1
-4,-4,0,4,-2,-2,-4,-4,-9,198,3,1
-3,-3,1,3,-2,0,-4,-3,-6,201,7,3
-3,-2,3,3,-3,1,-4,0,-1,206,13,7
-3,0,3,2,-3,1,-4,5,5,214,23,13
-2,1,3,1,-3,2,-5,12,16,226,37,22
0,2,1,-1,-2,1,-6,22,30,241,55,32
5,2,-3,-4,3,-1,-7,34,46,256,71,43
9,3,-6,-6,7,-2,-8,42,58,268,87,54
9,3,-5,-6,6,-1,-7,42,61,276,101,65
11,5,-5,-8,8,0,-8,32,52,277,110,72
14,6,-6,-10,10,0,-8,15,35,271,113,75
13,6,-6,-9,10,0,-8,-4,14,258,110,73
11,3,-8,-6,9,-2,-7,-26,-11,237,94,65
10,0,-10,-4,10,-5,-5,-49,-42,206,66,50
7,-2,-10,-2,8,-6,-1,-70,-73,173,33,31
2,-6,-9,1,5,-7,2,-88,-99,143,2,12
-1,-10,-8,5,3,-9,3,-105,-121,120,-22,-4
-3,-12,-9,7,3,-10,3,-120,-138,99,-43,-18
-4,-13,-8,9,2,-10,3,-132,-152,79,-61,-30
-8,-14,-6,11,0,-10,4,-139,-161,63,-76,-41
-14,-18,-5,16,-4,-11,4,-142,-165,50,-89,-51
-19,-23,-5,20,-7,-13,4,-143,-166,40,-97,-58
-21,-27,-8,24,-7,-17,4,-142,-164,34,-102,-62
-21,-31,-11,26,-5,-21,3,-138,-158,34,-102,-63
-21,-34,-13,27,-4,-24,1,-131,-146,41,-97,-61
-20,-35,-15,27,-2,-25,-1,-122,-131,52,-90,-57
-19,-34,-14,26,-2,-24,-3,-110,-114,67,-78,-50
-17,-30,-12,24,-2,-21,-4,-97,-95,84,-64,-41
-15,-26,-11,21,-1,-18,-5,-84,-77,102,-52,-34
-14,-22,-7,18,-3,-14,-6,-71,-62,117,-41,-27
-15,-18,-3,16,-6,-10,-6,-58,-49,128,-33,-22
-11,-15,-4,13,-4,-9,-7,-47,-40,135,-27,-20
-7,-13,-5,10,-1,-9,-7,-38,-31,142,-22,-18
-4,-11,-6,8,0,-8,-7,-29,-23,148,-18,-16
-4,-10,-5,7,0,-7,-6,-23,-17,152,-15,-13
-6,-10,-2,8,-2,-5,-5,-18,-11,155,-12,-9
-5,-9,-3,7,-2,-5,-4,-15,-7,159,-9,-5
-3,-8,-6,6,1,-7,-5,-14,-6,161,-8,-4
-3,-9,-7,6,1,-8,-6,-13,-5,162,-7,-5
-3,-10,-8,6,2,-8,-6,-11,-4,163,-5,-5
-3,-10,-7,6,1,-8,-6,-10,-2,165,-4,-4
-5,-10,-5,7,0,-8,-4,-9,0,167,-3,-5
-7,-11,-3,8,-2,-7,-3,-7,2,168,-3,-6
-7,-11,-3,8,-2,-6,-3,-7,4,167,-3,-8
-6,-11,-4,8,-2,-7,-3,-7,5,167,-4,-9
-9,-11,-2,9,-3,-6,-2,-6,6,167,-3,-8
-8,-10,-2,8,-3,-6,-2,-5,7,168,-2,-6
-3,-8,-6,5,1,-7,-3,-6,6,167,-2,-5
0,-7,-8,3,4,-8,-3,-7,5,165,-3,-6
0,-7,-8,3,4,-8,-3,-7,6,164,-4,-7
0,-7,-8,3,4,-8,-3,-6,7,164,-5,-7
0,-8,-7,3,3,-8,-2,-5,8,164,-5,-6
0,-9,-7,4,3,-8,-2,-4,9,164,-4,-5
-1,-9,-8,5,3,-9,-2,-3,10,164,-3,-5
-1,-10,-9,5,3,-9,-2,-3,10,164,-2,-5
0,-9,-9,4,3,-8,-2,-3,11,164,-2,-4
0,-8,-8,4,2,-7,-2,-3,11,165,-2,-4
-1,-9,-7,5,2,-7,-2,-3,12,165,-2,-4
-1,-9,-7,5,2,-8,-2,-3,12,165,-2,-5
-1,-9,-7,5,2,-8,-1,-2,13,164,-2,-5
-1,-8,-7,5,2,-7,-1,-2,14,164,-1,-5
-1,-8,-7,4,3,-7,0,-1,15,163,-1,-5
-1,-8,-7,5,2,-7,0,-1,15,163,0,-3
-2,-8,-6,5,2,-7,0,0,16,164,1,-2
-1,-7,-6,4,2,-7,0,0,16,163,0,-2
0,-7,-7,3,2,-7,0,-1,15,162,0,-3
0,-7,-7,3,3,-7,0,-1,15,162,-1,-4
1,-6,-6,2,3,-6,0,-1,16,162,-1,-4
0,-5,-4,2,2,-5,0,-1,17,162,-1,-4
0,-4,-3,2,0,-4,0,-1,17,163,0,-4
-1,-3,-2,2,0,-3,0,-1,18,164,0,-3
-1,-2,-1,1,0,-2,0,0,18,165,2,-2
-1,-1,-1,1,0,-1,0,0,19,165,2,-2
-2,-2,0,2,-1,-2,-1,0,19,165,2,-4
-3,-3,0,2,-2,-2,-1,0,19,164,1,-6
-2,-3,0,2,-1,-2,-1,0,19,164,1,-7
-1,-3,-1,2,-1,-2,-1,0,19,164,0,-6
-1,-3,-1,2,0,-2,-1,0,20,164,0,-6
-1,-3,-1,2,0,-2,-1,0,20,165,0,-6
-1,-3,-1,2,-1,-2,-2,0,21,167,1,-5
0,-1,-2,1,0,-2,-3,1,21,169,2,-4
0,-1,-2,0,0,-2,-4,2,22,171,2,-3
0,-2,-2,1,0,-2,-6,2,22,172,3,-3
-1,-4,-2,2,-1,-3,-7,2,23,173,3,-2
-1,-4,-2,2,0,-3,-8,3,24,174,3,-2
0,-3,-2,1,0,-3,-9,5,26,176,4,-1
1,-2,-3,1,1,-3,-9,6,27,178,5,0
0,-2,-3,1,1,-3,-10,6,27,179,5,0
0,-2,-2,0,1,-2,-9,7,28,180,5,0
0,0,-1,0,0,-1,-8,9,29,182,5,0
-2,1,2,0,-2,1,-6,11,31,185,6,1
-2,1,4,0,-3,2,-6,13,33,186,7,2
1,1,1,-1,0,1,-7,13,33,186,7,3
5,1,-3,-3,4,-1,-8,14,33,186,7,3
7,1,-4,-4,5,-1,-9,15,35,187,8,4
6,2,-3,-4,4,0,-9,17,36,189,9,5
5,3,-3,-4,4,0,-8,19,37,190,10,6
4,2,-3,-4,3,0,-8,20,38,191,10,6
4,2,-3,-3,4,0,-8,21,39,192,10,6
4,2,-3,-3,4,0,-8,22,40,193,11,7
4,2,-2,-3,3,0,-8,24,41,194,11,8
4,2,-1,-3,2,1,-7,25,42,196,12,9
4,3,0,-4,2,2,-6,27,43,197,12,10
4,4,0,-4,3,2,-6,28,43,198,11,9
5,4,-1,-5,3,1,-5,28,43,198,11,9
5,4,-1,-5,3,1,-5,29,43,199,11,10
4,3,-1,-4,3,0,-5,29,44,200,12,10
5,4,-1,-5,3,1,-5,30,44,201,12,10
6,5,-1,-6,3,1,-5,31,45,203,13,11
7,5,-1,-6,4,2,-5,32,45,204,13,11
7,5,-1,-6,4,2,-5,32,45,205,14,12
8,5,-1,-7,4,2,-5,33,45,206,14,13
7,6,0,-7,3,3,-5,33,45,208,14,15
6,7,1,-7,2,3,-5,33,45,209,14,16
7,6,0,-7,3,2,-5,33,44,211,14,17
8,6,-1,-7,5,1,-5,32,43,212,14,16
8,6,-2,-8,5,1,-5,32,42,214,14,15
9,6,-2,-7,6,1,-5,31,41,216,13,12
8,5,-2,-6,5,1,-6,30,40,218,11,10
7,5,-1,-6,4,2,-5,29,40,220,11,10
6,6,0,-6,4,3,-4,29,39,223,11,11
7,6,-2,-7,5,2,-5,27,37,224,10,12
9,5,-4,-7,7,0,-6,25,35,225,10,12
10,5,-6,-8,8,-1,-5,23,33,226,10,12
10,5,-6,-8,8,-1,-5,22,32,228,10,13
10,4,-7,-7,8,-2,-6,20,30,230,10,14
10,4,-7,-7,8,-2,-6,18,29,232,10,13
9,3,-6,-6,7,-1,-6,16,27,234,9,12
8,2,-6,-6,7,-1,-6,15,26,235,7,11
7,2,-6,-5,6,-2,-6,13,24,237,6,10
6,2,-5,-4,5,-2,-6,12,23,239,5,9
6,2,-4,-4,5,-2,-5,10,22,242,4,9
6,2,-5,-4,5,-2,-5,9,20,244,3,8
6,1,-6,-3,6,-3,-5,7,18,247,3,8
6,0,-6,-3,6,-3,-5,6,18,250,3,9
7,0,-7,-3,7,-3,-6,5,17,254,3,9
9,0,-8,-4,8,-4,-6,4,17,257,2,8
9,-1,-10,-4,10,-6,-7,2,15,261,0,7
8,-3,-11,-3,10,-7,-7,1,14,265,0,7
6,-4,-11,-1,8,-8,-6,0,14,270,-1,7
5,-4,-10,0,7,-7,-6,0,14,277,0,6
5,-4,-9,0,7,-7,-6,0,15,283,0,6
5,-4,-9,0,7,-7,-6,0,15,289,0,6
3,-5,-8,0,5,-7,-6,0,15,295,-1,6
3,-6,-9,1,6,-7,-6,0,15,300,-1,5
5,-6,-11,0,8,-8,-7,-1,14,305,-2,5
7,-5,-12,-1,9,-8,-6,-1,14,311,-2,6
6,-5,-11,-1,8,-8,-5,0,15,318,-1,7
5,-4,-10,0,7,-7,-4,0,16,325,0,9
5,-4,-9,0,7,-7,-4,0,16,331,0,9
6,-4,-10,-1,8,-8,-4,0,16,335,0,9
6,-5,-10,0,8,-8,-5,-1,15,339,-1,8
3,-6,-8,1,5,-7,-4,0,16,344,0,7
1,-6,-7,2,4,-6,-3,0,17,349,0,6
4,-5,-9,0,6,-7,-3,0,17,352,0,4
6,-4,-11,-1,8,-8,-3,0,17,355,-1,3
5,-4,-11,-1,7,-8,-3,0,17,359,-2,3
3,-4,-8,0,5,-7,-2,0,17,364,-2,4
1,-4,-6,1,3,-6,-1,1,17,368,-1,5
0,-4,-5,1,2,-5,0,1,17,372,-1,7
1,-5,-6,1,3,-5,0,1,18,376,-1,7
6,-5,-11,-1,8,-8,-2,0,16,377,-2,5
10,-5,-15,-3,12,-9,-3,-2,15,380,-3,3
9,-4,-13,-3,11,-8,-2,-1,16,385,-3,2
9,-3,-12,-3,10,-7,-2,-1,16,391,-3,2
10,-2,-12,-4,11,-7,-2,-1,15,396,-3,2
8,-3,-11,-3,10,-7,-2,-2,15,401,-1,1
7,-4,-10,-2,8,-7,-3,-2,15,405,0,1
6,-3,-9,-2,7,-6,-3,-2,15,409,2,2
6,-3,-8,-2,7,-5,-3,-2,16,413,4,2
5,-3,-7,-1,6,-5,-3,-2,16,415,5,2
4,-3,-7,-1,5,-4,-3,-2,16,417,5,2
4,-3,-7,-1,5,-5,-3,-2,16,417,5,2
5,-3,-8,-1,6,-6,-3,-3,15,416,4,1
4,-3,-7,0,5,-5,-4,-3,16,414,4,0
2,-2,-4,0,3,-4,-4,-2,17,413,4,0
2,-2,-3,0,3,-3,-5,-1,17,410,5,0
4,-2,-5,-1,4,-3,-6,-2,17,407,5,0
2,-2,-4,0,3,-3,-6,-1,17,405,5,1
-3,-2,1,2,-2,0,-5,0,19,407,8,4
-2,-2,0,2,-2,0,-6,0,19,408,7,4
4,-2,-6,-1,5,-4,-9,-2,17,408,5,2
7,-1,-8,-3,7,-5,-9,-3,17,413,4,2
6,-2,-7,-2,6,-5,-9,-2,18,419,5,3
5,-2,-6,-1,5,-4,-9,-2,18,425,4,4
6,-1,-6,-2,6,-4,-9,-2,18,431,4,4
7,0,-6,-3,7,-3,-9,-2,18,436,3,4
6,0,-6,-3,6,-3,-9,0,20,442,4,5
6,0,-5,-3,6,-2,-9,3,25,450,8,7
7,2,-5,-4,6,-2,-9,10,34,461,14,11
8,3,-5,-6,7,-1,-9,20,48,475,25,18
10,3,-6,-7,8,-1,-10,30,64,487,38,27
13,4,-8,-9,10,-2,-11,33,71,490,50,35
14,4,-8,-10,11,-1,-12,25,65,480,59,42
13,6,-6,-10,10,0,-12,11,50,462,66,48
12,8,-4,-11,8,2,-13,-7,31,439,73,54
11,9,-2,-11,7,3,-13,-29,9,413,78,58
11,9,-2,-10,6,3,-14,-53,-18,380,79,59
12,8,-4,-10,7,2,-15,-77,-47,337,69,54
12,6,-6,-9,8,0,-15,-100,-77,284,47,42
10,3,-6,-6,8,-2,-14,-122,-105,226,19,26
7,0,-7,-3,7,-4,-13,-140,-129,170,-7,10
5,-5,-9,0,7,-7,-12,-153,-148,117,-31,-4
1,-11,-13,5,7,-12,-11,-159,-160,68,-53,-19
-4,-18,-15,11,5,-17,-8,-160,-166,23,-74,-33
-8,-24,-16,16,4,-20,-4,-158,-168,-12,-92,-45
-9,-27,-18,18,4,-23,-2,-155,-166,-39,-103,-53
-8,-30,-22,19,6,-27,-3,-149,-158,-57,-108,-57
-7,-32,-25,20,8,-29,-5,-141,-146,-67,-105,-57
-6,-32,-26,20,10,-30,-7,-129,-130,-69,-98,-54
-4,-31,-26,18,11,-29,-10,-114,-111,-66,-87,-49
-2,-27,-25,15,11,-26,-12,-97,-90,-57,-74,-41
-2,-23,-21,12,9,-22,-13,-79,-69,-45,-60,-33
-1,-19,-17,10,7,-18,-13,-62,-51,-32,-47,-25
0,-15,-14,8,6,-15,-12,-47,-35,-18,-36,-19
1,-11,-12,5,6,-12,-11,-35,-22,-5,-27,-14
2,-7,-10,3,5,-9,-10,-24,-10,5,-20,-8
2,-5,-7,1,4,-6,-8,-15,-1,13,-14,-2
1,-4,-5,1,3,-4,-6,-9,4,17,-11,1
1,-4,-5,1,4,-4,-6,-5,8,19,-9,2
2,-4,-6,1,5,-5,-6,-3,11,21,-7,1
2,-5,-7,1,5,-5,-6,-1,13,24,-6,1
3,-4,-7,0,5,-5,-6,0,15,26,-5,0
3,-3,-7,0,5,-5,-6,0,16,28,-5,-2
3,-3,-7,0,5,-5,-5,1,16,30,-6,-3
3,-4,-7,0,5,-5,-5,1,16,31,-7,-3
3,-4,-7,0,6,-5,-5,2,16,31,-8,-4
4,-3,-8,-1,6,-5,-5,2,16,30,-8,-4
4,-4,-8,0,6,-6,-5,2,16,30,-9,-5
4,-5,-10,0,7,-7,-5,2,16,30,-9,-5
5,-5,-10,0,7,-8,-6,2,16,32,-9,-4
3,-4,-9,0,6,-7,-5,3,16,34,-8,-2
3,-4,-8,0,5,-6,-5,3,16,36,-8,-2
3,-3,-8,0,5,-6,-5,3,16,37,-8,-2
0,-3,-6,1,3,-5,-4,4,17,39,-8,-2
0,-3,-4,2,2,-4,-4,5,18,40,-8,-2
2,-3,-6,0,4,-5,-4,5,18,40,-9,-3
4,-4,-9,0,7,-7,-5,4,17,40,-10,-4
5,-4,-10,0,7,-8,-6,4,17,41,-10,-3
5,-5,-10,0,8,-8,-6,4,17,43,-10,-3
5,-5,-11,0,8,-8,-6,5,17,45,-10,-3
5,-6,-11,0,8,-8,-5,5,17,46,-10,-3
5,-6,-10,0,8,-8,-5,6,17,48,-10,-3
5,-5,-10,0,8,-8,-4,7,17,50,-10,-4
6,-5,-11,-1,9,-8,-4,8,18,52,-9,-4
7,-5,-11,-1,10,-8,-4,8,19,54,-9,-5
7,-5,-11,-1,9,-8,-4,9,20,56,-8,-5
6,-5,-11,-1,8,-8,-3,9,20,59,-8,-5
4,-5,-9,0,6,-7,-2,10,21,64,-7,-4
4,-5,-9,0,6,-6,-2,11,21,68,-7,-4
5,-4,-10,-1,7,-7,-2,11,21,71,-7,-3
6,-4,-10,-1,8,-7,-2,12,21,73,-7,-3
6,-4,-10,-1,8,-7,-2,12,22,74,-6,-3
7,-4,-10,-2,9,-7,-1,13,23,76,-6,-2
7,-4,-11,-2,9,-7,-1,13,23,78,-5,-1
6,-4,-11,-1,8,-7,-1,13,23,81,-5,-2
5,-5,-10,0,7,-7,-1,14,23,85,-5,-4
6,-4,-10,-1,8,-7,-1,14,23,89,-5,-5
6,-4,-10,-1,8,-7,0,15,23,93,-5,-5
6,-4,-10,-1,8,-7,0,15,22,96,-5,-6
6,-3,-9,-1,8,-6,-1,15,23,100,-5,-6
6,-3,-8,-1,7,-5,-1,16,25,104,-5,-6
6,-2,-7,-1,7,-5,-1,16,26,109,-5,-5
5,-3,-7,-1,6,-5,-1,16,26,114,-5,-5
3,-4,-6,0,4,-5,-1,17,25,119,-5,-5
2,-4,-5,0,3,-4,-1,17,26,125,-5,-5
3,-3,-5,0,4,-4,-1,17,26,129,-5,-4
4,-3,-6,-1,5,-5,-1,17,26,132,-5,-4
4,-2,-5,-1,5,-4,-1,18,26,135,-5,-4
3,-1,-3,-1,3,-3,-1,20,27,138,-4,-4
3,-1,-3,0,3,-3,-1,21,28,141,-3,-3
3,-1,-3,-1,3,-3,-1,21,28,144,-3,-3
4,-1,-3,-1,3,-2,-2,22,28,147,-3,-3
4,0,-3,-2,3,-2,-3,23,28,150,-2,-2
5,0,-4,-2,4,-2,-4,24,28,153,-2,-1
6,0,-5,-3,5,-2,-5,25,30,155,-2,-1
5,0,-5,-2,5,-2,-6,26,32,157,-2,-1
4,-1,-5,-1,4,-3,-6,26,33,158,-2,-2
4,-1,-5,-1,4,-3,-6,28,34,158,-1,-1
5,0,-4,-2,4,-2,-6,30,35,158,0,0
5,0,-4,-3,4,-2,-6,32,36,157,1,0
6,0,-5,-3,5,-2,-7,33,36,155,1,0
7,0,-6,-4,6,-3,-7,34,36,151,1,0
7,0,-6,-4,6,-2,-6,35,36,147,2,0
6,1,-4,-4,5,-1,-5,37,37,142,3,1
6,1,-3,-4,4,0,-4,39,38,137,4,2
5,1,-2,-3,3,0,-4,40,39,132,5,3
4,1,-2,-3,3,0,-4,41,39,128,5,4
5,2,-2,-4,3,0,-4,42,39,126,6,4
6,3,-3,-5,4,0,-4,43,39,124,6,4
6,4,-2,-5,4,1,-4,44,39,121,7,5
6,4,-2,-5,4,1,-3,44,39,117,6,5
7,4,-2,-5,4,1,-3,44,40,113,6,5
7,4,-2,-5,4,1,-3,44,40,109,5,6
7,4,-2,-5,4,1,-3,44,39,106,5,6
8,5,-3,-6,5,1,-3,44,39,104,5,6
7,5,-2,-6,5,1,-3,44,39,104,5,6
7,5,-1,-6,4,1,-3,44,39,107,5,6
7,5,-1,-6,4,1,-3,44,38,111,5,5
8,5,-2,-7,5,1,-3,43,37,115,4,5
8,5,-2,-6,5,1,-2,43,36,118,5,5
6,5,-1,-5,3,1,-2,42,36,120,5,6
6,5,-2,-5,4,1,-2,41,35,121,5,7
8,5,-4,-6,6,0,-2,40,34,120,5,6
9,4,-5,-7,7,0,-3,39,33,120,4,6
9,4,-5,-7,7,0,-3,37,32,121,4,6
9,4,-5,-7,7,-1,-3,36,30,123,4,6
9,3,-5,-6,7,-1,-3,34,29,124,4,6
9,2,-5,-6,7,-1,-3,32,27,125,4,6
9,3,-5,-6,6,-1,-3,31,26,126,4,7
7,2,-4,-5,5,-1,-3,29,25,127,4,7
6,0,-5,-3,5,-2,-4,27,23,127,3,6
6,0,-6,-3,6,-2,-5,25,21,127,2,5
7,0,-6,-3,6,-2,-5,23,20,129,2,5
6,0,-5,-3,5,-2,-5,22,18,132,1,5
6,-1,-6,-3,6,-3,-4,20,16,135,0,4
7,-1,-7,-3,7,-4,-4,18,15,138,0,4
7,-1,-7,-3,6,-4,-4,17,16,142,-1,3
5,-1,-5,-2,5,-3,-4,16,16,146,-1,3
3,-1,-4,-1,3,-3,-4,15,16,151,-1,3
2,-2,-4,0,3,-3,-4,14,14,155,-2,2
5,-1,-6,-1,5,-4,-5,12,13,160,-3,1
7,-1,-7,-2,7,-4,-5,11,13,166,-4,0
6,-1,-7,-2,6,-4,-5,10,14,173,-4,-1
5,-2,-6,-1,6,-4,-5,10,14,182,-5,-2
5,-2,-7,-1,6,-4,-5,9,13,191,-6,-2
4,-2,-7,-1,6,-5,-5,8,13,200,-7,-3
4,-3,-7,0,6,-5,-5,7,12,210,-8,-3
4,-3,-7,0,6,-6,-5,7,12,221,-8,-4
4,-3,-7,0,5,-6,-5,6,12,232,-8,-4
3,-3,-5,0,4,-5,-5,7,12,246,-8,-3
2,-3,-5,0,3,-4,-4,7,13,260,-7,-2
4,-3,-6,0,5,-5,-5,6,12,276,-8,-2
4,-4,-8,0,5,-6,-6,6,11,294,-8,-2
4,-3,-8,0,5,-6,-6,6,11,314,-7,-3
4,-3,-7,0,5,-5,-5,6,13,336,-6,-2
3,-3,-6,0,4,-5,-4,7,14,358,-6,-2
2,-5,-7,1,4,-6,-5,7,14,380,-7,-3
3,-5,-9,1,6,-7,-5,6,14,401,-8,-3
5,-4,-10,0,7,-7,-5,6,14,419,-7,-3
5,-3,-8,-1,7,-6,-4,7,15,436,-6,-1
4,-3,-6,-1,5,-5,-3,8,16,449,-5,0
1,-4,-5,0,3,-5,-3,9,17,460,-5,-1
2,-4,-6,1,4,-6,-3,9,17,470,-6,-2
4,-4,-8,0,6,-7,-3,9,16,480,-6,-4
5,-4,-9,0,7,-7,-2,9,16,490,-6,-4
4,-4,-8,0,6,-6,-1,10,17,502,-6,-3
4,-4,-8,0,5,-6,-1,10,17,513,-6,-2
4,-5,-9,0,6,-7,-1,10,17,522,-6,-3
5,-5,-9,0,6,-7,-1,10,16,528,-6,-3
5,-4,-8,0,6,-7,-1,10,16,533,-6,-3
4,-4,-7,0,6,-6,0,10,18,538,-5,-3
4,-4,-7,0,5,-6,0,10,19,543,-5,-3
3,-4,-7,0,5,-6,0,10,19,547,-5,-3
3,-4,-7,0,5,-5,1,10,18,550,-5,-3
3,-4,-7,0,5,-5,1,10,18,552,-5,-3
3,-4,-7,0,5,-5,0,10,18,553,-5,-3
3,-4,-7,0,5,-6,0,9,18,553,-5,-3
3,-4,-6,0,5,-5,-1,9,18,552,-5,-2
3,-2,-5,0,4,-4,0,9,17,550,-5,-2
2,-1,-3,0,3,-3,0,9,16,547,-4,-1
0,-1,-2,1,1,-2,0,9,16,543,-4,-1
0,-1,-2,1,1,-2,1,9,17,531,-4,-1
1,-1,-3,0,2,-2,0,9,18,512,-4,-1
2,-2,-4,0,3,-3,0,8,17,491,-4,-2
2,-2,-4,0,2,-3,1,8,16,473,-4,-2
2,-2,-3,0,2,-2,1,8,16,452,-4,-2
1,-1,-2,0,1,-2,0,8,16,424,-4,-2
1,-1,-2,0,1,-1,-1,8,16,391,-4,-2
1,-1,-3,0,2,-2,-3,8,14,353,-4,-3
1,-2,-4,0,2,-3,-4,8,13,312,-4,-3
0,-3,-3,1,2,-3,-4,8,13,271,-4,-3
0,-4,-4,1,2,-3,-5,8,12,230,-4,-2
2,-3,-4,0,2,-3,-5,8,12,192,-3,-2
2,-3,-4,0,2,-3,-5,8,14,154,-3,-1
1,-3,-3,0,1,-3,-5,9,15,114,-2,0
1,-2,-2,0,1,-2,-5,9,15,72,-2,0
3,-1,-3,-1,3,-2,-5,9,16,29,-1,0
4,0,-4,-2,4,-2,-4,10,15,-15,-1,0
3,-1,-4,-1,4,-2,-4,10,15,-58,0,0
2,-2,-4,0,3,-2,-4,11,15,-98,0,0
2,-1,-3,-1,3,-1,-4,11,15,-135,0,1
2,-1,-3,-1,3,-1,-4,12,15,-167,1,1
2,-1,-3,-1,2,-1,-4,12,15,-196,1,1
2,0,-2,-1,1,0,-3,12,15,-221,3,2
2,1,0,-1,1,1,-2,13,16,-241,5,3
3,4,1,-3,0,3,-2,13,18,-255,9,5
4,6,2,-5,0,5,-2,14,20,-264,15,8
5,9,3,-7,0,6,-2,18,24,-267,22,13
5,11,6,-8,-1,8,-2,24,32,-263,32,18
4,12,8,-8,-2,10,-2,32,43,-250,46,26
5,12,7,-9,-1,10,-3,43,58,-233,61,35
8,14,5,-11,1,10,-4,56,75,-214,78,45
12,16,4,-14,3,10,-5,65,89,-199,95,55
14,17,2,-15,6,10,-5,64,91,-193,108,63
15,17,2,-16,6,10,-5,53,82,-197,116,70
15,17,2,-16,7,10,-5,35,64,-209,120,75
16,17,0,-17,8,9,-5,13,40,-226,118,76
17,16,-1,-17,9,7,-5,-12,10,-250,107,72
16,13,-3,-15,9,4,-4,-36,-23,-283,85,61
12,8,-4,-10,8,1,-1,-60,-57,-323,52,41
9,3,-6,-6,8,-1,0,-84,-88,-363,16,18
8,0,-8,-3,8,-4,0,-106,-114,-398,-15,-2
6,-4,-9,0,8,-7,0,-123,-136,-427,-40,-18
2,-8,-11,4,7,-10,0,-135,-152,-451,-61,-32
-2,-14,-12,8,5,-13,0,-141,-163,-470,-79,-44
-6,-19,-13,12,4,-16,1,-143,-168,-484,-93,-55
-8,-23,-14,15,3,-19,0,-143,-170,-493,-102,-63
-9,-26,-16,17,4,-21,-2,-142,-167,-497,-106,-67
-9,-28,-18,19,4,-23,-5,-137,-157,-497,-104,-67
-10,-30,-20,20,5,-25,-6,-129,-143,-491,-99,-65
-9,-31,-22,20,6,-26,-8,-118,-127,-483,-91,-61
-7,-29,-22,18,7,-26,-9,-104,-109,-469,-81,-55
-6,-25,-19,16,6,-23,-10,-88,-91,-451,-68,-47
-6,-21,-14,13,4,-18,-10,-72,-73,-434,-55,-38
-5,-16,-10,11,2,-13,-9,-56,-57,-420,-42,-30
-4,-11,-7,8,1,-9,-8,-41,-42,-407,-31,-23
-3,-8,-5,5,1,-7,-6,-29,-31,-399,-23,-18
-2,-6,-4,4,0,-5,-5,-20,-22,-398,-17,-15
-2,-4,-2,3,0,-3,-4,-13,-14,-402,-13,-13
-2,-3,-1,3,0,-2,-3,-6,-8,-409,-10,-11
-1,-3,-1,2,0,-2,-3,-2,-4,-417,-7,-9
-1,-3,-1,2,0,-2,-2,1,-2,-423,-5,-8
-1,-3,-1,2,0,-2,-2,4,1,-430,-3,-7
0,-3,-2,1,0,-2,-2,6,3,-440,-1,-6
0,-3,-3,1,1,-3,-2,7,4,-453,-1,-5
0,-3,-3,1,1,-3,-2,8,4,-466,-1,-5
1,-3,-3,0,1,-3,-1,9,4,-479,-1,-5
1,-2,-3,0,1,-2,-1,10,5,-493,0,-4
1,-2,-2,0,1,-2,0,11,6,-504,0,-3
1,-2,-2,0,1,-2,0,11,7,-513,1,-3
1,-2,-2,1,1,-2,0,11,7,-522,1,-2
0,-2,-2,1,1,-3,0,12,7,-530,2,-2
1,-2,-3,1,2,-3,0,12,7,-540,3,-2
1,-2,-3,1,1,-3,0,12,7,-551,3,-2
0,-2,-2,1,0,-2,0,12,8,-562,3,-3
1,-1,-2,0,1,-2,0,13,9,-572,3,-3
3,-1,-4,-1,3,-2,1,13,9,-580,3,-3
4,-1,-4,-1,4,-2,1,14,10,-586,3,-3
3,-1,-4,-1,3,-2,1,14,8,-588,3,-2
2,-1,-3,0,3,-2,1,15,5,-589,3,-2
3,-1,-4,-1,3,-2,0,15,3,-589,3,-1
3,-1,-4,-1,3,-2,1,16,6,-588,1,-1
3,-1,-4,-1,3,-2,1,16,10,-587,-2,-1
3,-2,-4,-1,3,-2,2,16,11,-586,-3,-1
3,-2,-4,-1,3,-2,2,17,11,-583,-3,-1
2,-2,-3,-1,2,-2,3,17,12,-579,-3,-1
2,-1,-3,-1,2,-2,4,18,13,-573,-3,-1
2,0,-2,-1,2,-1,4,18,14,-566,-3,0
3,0,-2,-2,2,-1,4,18,14,-559,-3,0
2,0,-1,-1,1,0,4,18,12,-555,-3,0
1,0,-1,-1,0,0,4,19,12,-552,-2,0
0,0,0,0,0,1,4,19,13,-549,-1,0
1,0,0,-1,0,1,4,19,13,-546,-1,0
2,0,0,-1,1,0,3,19,13,-542,-1,0
0,0,1,0,-1,1,4,19,15,-536,-1,0
-1,1,3,0,-2,2,4,20,17,-530,-1,1
0,1,2,-1,-1,2,4,20,17,-525,-1,0
1,1,1,-1,0,2,3,20,17,-522,-2,-1
1,1,0,-1,0,2,3,20,16,-521,-2,-1
2,2,0,-2,0,2,3,20,14,-519,-2,-1
2,2,1,-2,0,2,3,20,13,-517,-2,-1
1,3,2,-2,-1,3,3,20,14,-513,-2,0
1,3,2,-2,-1,2,3,20,16,-508,-2,0
2,3,1,-2,0,2,2,20,17,-502,-2,-1
2,3,1,-2,0,2,1,20,18,-495,-2,0
1,2,1,-2,0,2,0,21,18,-489,-2,0
0,2,1,-1,-1,2,0,22,19,-483,-1,0
2,3,1,-2,0,2,0,23,20,-479,0,0
2,4,2,-3,0,3,-1,24,22,-474,0,1
2,4,2,-3,0,3,-2,24,23,-469,1,2
2,3,2,-3,0,2,-2,25,25,-463,1,2
1,3,3,-2,-1,3,-3,26,26,-457,1,2
-1,2,4,0,-3,4,-2,28,26,-450,2,2
-1,3,4,0,-3,4,-2,30,27,-443,2,3
0,3,3,-2,-2,4,-2,30,26,-438,2,3
1,3,2,-2,-1,3,-2,31,26,-434,2,3
1,3,2,-2,-2,3,-1,32,28,-429,3,4
1,4,4,-2,-2,4,0,34,31,-422,5,4
1,4,4,-2,-2,5,0,35,33,-413,5,5
1,5,4,-3,-2,5,0,37,35,-403,5,5
2,6,5,-3,-1,5,0,38,37,-393,5,5
2,7,5,-4,-1,6,0,39,38,-384,5,5
3,7,4,-5,0,6,0,40,38,-375,5,5
3,7,3,-5,0,6,1,41,38,-366,6,5
3,7,4,-5,-1,6,1,42,38,-355,6,6
3,7,4,-5,-1,6,1,43,39,-344,6,6
3,8,4,-6,-1,6,1,44,39,-331,6,5
4,8,5,-6,-1,7,2,45,40,-316,6,5
4,8,5,-6,-1,7,3,45,41,-299,6,6
3,8,5,-6,-1,7,3,46,42,-283,6,6
3,8,5,-5,-1,7,3,46,42,-270,5,6
2,8,6,-5,-2,7,3,47,42,-261,5,6
2,8,6,-5,-2,8,3,47,43,-256,5,6
4,9,5,-6,-1,7,3,48,43,-254,5,6
6,9,4,-7,0,7,3,48,43,-253,5,6
5,9,5,-6,0,7,3,48,43,-253,5,6
4,8,5,-6,-1,7,3,48,42,-252,4,6
3,8,6,-5,-1,7,3,47,41,-252,3,5
3,8,6,-5,-2,7,4,47,41,-253,3,5
3,9,5,-6,-1,7,4,46,41,-255,3,5
4,9,5,-6,-1,7,5,46,40,-256,3,6
3,9,6,-6,-2,7,6,46,38,-255,3,6
3,8,6,-6,-1,7,5,45,36,-256,2,6
6,8,3,-7,0,6,4,43,35,-257,1,5
7,8,2,-7,1,5,4,41,34,-256,1,5
6,7,2,-7,1,6,4,40,34,-253,1,6
5,7,2,-6,1,5,3,38,32,-253,1,6
6,7,1,-7,2,4,2,36,30,-257,0,6
6,7,0,-7,2,4,1,34,29,-265,0,6
6,6,0,-6,2,3,1,32,29,-273,0,5
6,6,0,-6,3,3,1,29,29,-277,-1,5
7,5,-1,-6,3,2,1,27,27,-274,-1,4
7,5,-2,-6,3,2,1,25,25,-262,-1,4
6,5,-1,-6,3,3,1,24,23,-225,-1,4
5,5,0,-5,2,3,1,23,22,-144,-1,3
4,4,0,-5,2,2,1,21,22,-31,-2,2
5,3,-1,-5,2,1,1,19,20,80,-2,1
5,3,-2,-5,3,1,1,17,18,170,-3,1
5,3,-2,-4,2,1,1,16,17,241,-3,1
4,2,-1,-3,2,1,1,14,16,298,-3,2
3,2,-1,-3,1,1,1,13,15,348,-3,2
3,1,-1,-2,1,1,1,13,14,394,-3,2
3,1,-1,-2,1,1,1,12,13,437,-3,2
3,1,-1,-2,2,0,0,11,12,476,-3,1
4,1,-2,-3,3,0,0,10,11,506,-3,0
5,2,-3,-3,3,0,0,9,10,526,-3,-1
5,2,-3,-3,3,0,0,8,9,540,-2,-1
5,1,-3,-3,3,0,0,8,9,552,-1,-2
4,1,-3,-2,3,0,0,8,10,565,-1,-2
4,1,-3,-2,3,-1,0,8,9,580,0,-2
5,1,-3,-3,3,-1,0,8,9,597,0,-2
5,2,-3,-3,3,0,0,8,9,614,0,-1
4,2,-2,-3,2,0,1,8,10,626,1,-1
4,1,-1,-3,2,0,2,8,9,631,1,-1
5,1,-3,-3,3,-1,1,7,8,629,1,-1
6,1,-4,-4,5,-1,0,7,8,625,1,-2
6,2,-3,-4,4,0,1,8,8,624,2,-1
5,2,-2,-3,3,0,1,8,8,627,2,-1
5,2,-2,-3,3,0,1,8,8,633,2,-2
5,2,-2,-4,4,0,2,8,11,640,2,-1
4,1,-2,-3,3,0,2,9,12,645,3,-1
3,1,-1,-2,2,0,3,8,12,645,4,-1
2,1,-1,-2,1,1,4,8,12,641,4,-1
3,1,-1,-2,2,1,4,8,11,635,4,-1
4,2,-2,-3,2,1,4,7,10,631,3,-1
4,2,-2,-3,2,1,4,7,9,633,3,-2
4,2,-2,-3,2,1,4,7,9,644,3,-2
4,2,-1,-3,2,1,5,7,10,661,2,-2
4,2,-1,-3,2,1,4,6,10,681,2,-2
4,2,0,-3,2,1,4,6,9,699,2,-2
3,2,0,-3,1,2,4,6,8,712,3,-2
3,2,1,-3,0,2,5,6,9,721,3,-2
2,3,2,-3,0,3,5,6,9,731,3,-2
2,3,3,-2,-1,3,5,6,8,745,4,-1
1,4,3,-2,-1,4,5,6,8,768,4,-1
1,4,3,-2,-1,4,4,5,9,807,3,-1
1,4,4,-2,-2,4,4,5,10,863,3,-1
1,4,4,-2,-2,4,4,4,9,922,3,-1
1,4,4,-2,-1,4,3,4,9,966,3,-2
1,4,4,-2,-2,4,3,4,10,994,3,-2
1,4,5,-2,-2,5,3,4,11,1011,3,-1
1,4,5,-2,-2,4,2,4,10,1024,3,-1
2,4,4,-3,-1,4,1,3,9,1037,3,-1
3,5,4,-3,-1,4,1,3,9,1050,3,-1
2,5,4,-2,-1,4,0,3,9,1062,4,0
1,5,4,-2,-1,4,-1,3,10,1067,4,0
1,4,4,-2,-1,4,-1,4,10,1063,5,-1
1,4,3,-2,0,3,0,4,10,1049,5,-1
2,4,2,-2,0,3,0,4,11,1029,5,-1
2,4,2,-2,0,3,0,4,11,1010,5,-1
3,4,2,-2,0,2,0,5,11,995,5,-1
3,4,1,-2,0,2,0,5,11,988,5,-1
3,4,1,-2,0,2,0,5,12,988,6,-1
3,4,1,-3,0,2,0,5,13,987,6,-1
3,4,2,-3,0,3,0,6,13,980,6,-1
3,5,2,-3,0,3,0,6,13,966,6,0
3,6,3,-4,0,4,0,6,13,949,6,0
3,6,4,-4,0,5,1,7,13,933,7,0
3,7,4,-5,0,6,1,7,15,922,7,1
3,7,5,-5,0,6,1,7,16,918,8,1
4,8,5,-5,0,6,2,7,15,918,8,1
4,8,5,-5,0,6,2,7,15,919,8,2
2,8,6,-5,-1,7,2,7,15,915,9,2
2,8,6,-5,-2,7,2,7,15,905,9,2
2,8,6,-5,-2,7,2,7,15,891,9,2
2,7,6,-4,-2,7,2,7,14,876,9,2
3,8,6,-4,-2,7,2,7,13,866,9,1
4,9,6,-5,-1,7,3,7,12,865,9,1
4,9,6,-6,-1,8,3,7,13,871,9,1
2,8,6,-5,-2,7,3,6,14,879,9,1
2,8,6,-4,-1,7,3,6,15,885,8,0
3,8,5,-5,-1,7,3,6,15,884,8,0
4,8,5,-5,-1,7,3,6,16,877,7,0
3,8,5,-4,-1,7,3,5,16,867,7,0
3,8,5,-4,-1,7,3,5,17,861,8,0
3,7,5,-4,-2,7,2,5,16,862,8,0
3,7,6,-4,-2,7,2,4,14,870,8,1
3,8,7,-5,-2,8,2,4,14,883,9,2
3,10,8,-6,-3,9,2,4,17,897,11,3
3,12,10,-7,-3,11,2,6,20,906,15,6
2,14,12,-8,-4,13,2,10,24,916,21,10
2,15,13,-9,-5,14,1,18,31,931,31,16
4,17,13,-10,-4,15,1,28,42,949,43,23
6,18,12,-12,-3,15,1,40,58,971,57,32
8,18,11,-13,-1,15,1,52,76,998,73,42
10,19,10,-14,0,15,1,56,84,1026,88,52
12,20,8,-16,2,14,0,50,79,1045,98,60
15,20,5,-17,5,13,-1,35,66,1052,104,66
16,20,3,-18,7,11,-1,15,49,1047,107,69
17,18,1,-17,8,10,-2,-7,28,1032,106,70
17,16,0,-16,8,8,-2,-30,2,1007,97,65
15,11,-2,-13,8,5,0,-52,-27,978,76,52
12,7,-3,-9,7,2,4,-73,-56,950,44,31
8,2,-4,-5,6,0,5,-94,-83,928,11,10
5,-1,-5,-2,5,-3,5,-113,-105,912,-16,-8
1,-4,-5,1,3,-4,5,-130,-122,896,-38,-24
-2,-7,-4,5,1,-6,4,-141,-135,874,-56,-37
-6,-11,-4,9,-1,-8,3,-146,-141,846,-70,-48
-9,-15,-6,12,-1,-10,2,-147,-145,816,-82,-57
-10,-18,-7,14,-1,-12,0,-148,-146,790,-90,-63
-11,-21,-8,16,-1,-14,-2,-147,-144,776,-94,-65
-11,-23,-10,17,-1,-16,-5,-142,-137,774,-93,-64
-10,-24,-12,17,1,-18,-7,-134,-127,780,-88,-62
-9,-23,-13,16,2,-18,-8,-122,-112,792,-80,-57
-9,-20,-10,15,1,-15,-8,-106,-93,802,-68,-49
-8,-16,-7,13,0,-12,-7,-89,-73,806,-56,-41
-6,-12,-6,10,0,-10,-6,-74,-55,805,-44,-34
-3,-7,-4,6,0,-6,-5,-60,-41,804,-34,-27
-2,-3,-1,3,-1,-2,-4,-46,-29,808,-25,-22
-1,-1,1,1,-2,0,-2,-35,-18,818,-18,-18
-1,0,3,0,-2,1,-1,-25,-10,833,-13,-16
-1,1,3,0,-2,2,0,-17,-4,846,-10,-14
0,2,3,-1,-2,2,1,-11,1,854,-7,-12
0,2,2,-1,-1,2,1,-7,7,853,-5,-10
0,2,2,0,-1,2,2,-4,10,845,-3,-9
0,2,2,-1,-1,2,3,-1,12,835,-2,-8
0,3,2,-1,-1,2,4,1,13,829,0,-7
0,3,3,-1,-1,3,5,2,15,827,1,-6
0,4,3,-1,-1,3,5,3,17,811,1,-5
0,4,3,-1,-1,3,6,4,17,776,2,-5
0,4,4,-1,-2,3,6,5,18,741,2,-5
0,4,4,-1,-2,3,6,5,19,714,2,-5
0,4,4,-1,-3,4,6,6,20,690,3,-5
0,4,4,-2,-3,4,6,6,20,669,3,-5
0,4,5,-2,-3,5,6,5,20,652,4,-5
0,5,6,-2,-3,5,6,5,20,643,4,-5
0,5,6,-2,-3,6,5,5,20,640,4,-5
0,5,7,-2,-3,6,6,5,20,640,4,-4
-1,5,8,-2,-4,7,6,6,21,637,5,-4
-2,6,8,-2,-5,7,6,6,22,627,5,-4
-3,6,10,-1,-6,8,6,6,22,614,5,-4
-5,6,12,0,-8,9,7,6,21,601,5,-4
-6,6,12,0,-9,9,7,6,20,590,5,-4
-4,6,10,0,-7,8,7,6,19,584,4,-4
-1,6,8,-2,-5,7,6,5,18,585,3,-5
0,6,7,-3,-4,7,5,5,19,591,3,-4
0,7,8,-3,-4,8,5,6,20,592,4,-4
1,7,7,-4,-3,8,5,6,21,582,4,-3
1,7,7,-4,-2,7,3,6,23,564,4,-3
0,6,8,-3,-4,7,2,6,24,546,5,-3
-2,6,8,-1,-5,7,2,5,25,528,5,-3
-1,6,8,-2,-4,7,1,5,25,516,5,-2
0,7,8,-3,-4,7,0,6,25,515,5,-2
0,7,8,-3,-4,7,0,7,25,525,6,-1
-1,6,8,-2,-4,7,0,7,25,535,7,-2
-1,5,7,-2,-4,7,0,7,25,535,7,-2
0,6,6,-3,-3,6,0,7,26,520,7,-2
1,8,6,-4,-2,7,0,8,26,487,7,-2
0,9,8,-4,-3,8,0,8,27,434,8,-2
0,9,9,-4,-4,8,0,9,27,378,8,-2
1,9,8,-4,-3,8,0,9,28,330,7,-2
2,9,8,-5,-2,8,0,9,28,297,7,-2
2,9,8,-5,-3,8,0,9,28,275,7,-1
1,9,9,-5,-3,9,0,10,28,253,7,-1
1,9,9,-5,-3,9,0,10,28,223,7,0
1,10,10,-6,-4,9,1,11,29,187,6,0
0,11,11,-6,-5,10,1,11,29,150,6,-1
0,12,12,-6,-6,11,1,11,30,117,5,-2
0,12,13,-6,-6,12,1,12,31,91,5,-4
0,12,14,-6,-7,13,2,13,32,73,6,-4
0,12,13,-5,-7,13,2,14,32,64,6,-3
0,11,13,-5,-7,13,2,15,33,59,6,-2
0,12,13,-5,-7,13,3,16,34,52,7,-2
0,12,13,-5,-7,13,3,16,34,37,7,-2
0,12,12,-5,-7,12,3,17,34,16,6,-3
0,12,12,-5,-6,12,3,17,34,-5,6,-3
1,12,11,-7,-5,12,3,19,35,-23,7,-2
1,11,11,-6,-4,11,4,20,36,-34,8,0
0,9,11,-4,-5,10,4,21,36,-40,7,0
0,9,11,-4,-5,10,4,22,37,-41,7,0
-1,9,11,-4,-6,10,4,23,38,-43,8,1
-2,9,11,-4,-6,10,4,24,39,-48,8,2
-1,9,10,-5,-6,10,4,25,39,-58,8,2
2,11,9,-7,-4,10,5,26,40,-69,8,2
3,12,10,-8,-3,10,5,27,40,-80,8,2
2,13,12,-8,-5,12,6,28,41,-85,8,3
0,13,13,-7,-6,13,7,30,42,-85,9,4
0,13,13,-6,-7,13,7,31,43,-82,10,5
0,13,12,-6,-6,12,7,31,43,-80,10,6
1,13,11,-6,-5,11,7,32,44,-81,11,6
0,12,11,-6,-6,11,7,32,44,-87,11,6
0,12,11,-6,-6,11,8,33,44,-97,11,6
1,13,11,-7,-5,11,8,34,44,-107,11,5
1,13,12,-7,-5,12,8,34,45,-115,10,5
0,13,14,-6,-7,13,8,35,45,-117,9,4
-2,13,16,-6,-8,14,9,35,45,-115,7,2
-2,13,16,-5,-9,14,9,35,45,-112,5,0
-2,13,16,-5,-9,14,7,35,45,-111,5,0
-2,13,15,-5,-9,14,7,35,44,-115,5,0
-1,12,13,-5,-7,12,7,34,43,-123,5,0
0,11,10,-5,-5,10,8,34,42,-133,5,0
1,10,8,-5,-3,9,7,33,41,-140,4,0
1,9,8,-5,-3,8,7,32,40,-142,3,0
1,8,8,-5,-3,8,7,31,39,-139,2,0
2,9,6,-6,-2,7,7,30,38,-134,1,0
3,9,5,-6,-1,7,7,29,37,-129,0,-1
3,8,4,-6,-1,6,8,28,37,-129,0,-1
3,9,5,-6,-1,7,8,27,36,-133,0,-1
3,9,6,-6,-1,7,8,26,36,-139,1,0
3,9,6,-6,-1,7,7,24,34,-144,1,0
4,8,5,-5,0,6,6,22,32,-143,0,0
4,7,5,-5,0,5,5,21,31,-135,0,0
5,7,4,-5,0,5,5,19,29,-123,-1,0
5,6,3,-5,1,4,5,17,27,-110,-2,-2
4,5,2,-5,0,3,5,15,26,-99,-2,-2
3,4,2,-4,0,3,5,14,25,-93,-1,-2
2,4,2,-3,0,3,5,13,24,-91,-1,-1
3,5,2,-4,0,3,5,12,24,-88,-1,0
3,5,2,-4,1,4,6,11,23,-83,-1,0
3,5,2,-4,1,3,6,10,22,-74,-2,-2
3,4,2,-3,1,3,6,9,22,-60,-2,-3
3,4,2,-4,1,3,7,9,21,-44,-2,-3
3,4,1,-4,1,2,8,8,21,-29,-1,-3
2,4,1,-3,0,2,9,8,20,-19,0,-3
0,3,2,-1,0,2,10,7,20,-12,0,-4
0,2,2,-1,0,2,10,6,20,-5,0,-3
1,2,0,-1,0,1,9,5,19,4,-1,-3
1,1,0,0,0,0,9,4,18,23,-1,-4
0,1,2,0,-1,1,11,3,18,51,-2,-5
-1,2,4,0,-3,3,12,2,18,79,-2,-6
-1,3,5,-1,-3,4,11,1,17,101,-3,-7
-1,4,5,-2,-3,5,10,0,16,116,-4,-8
-1,5,6,-3,-4,6,10,-1,15,127,-5,-8
-3,6,9,-2,-6,7,10,0,16,138,-4,-8
-4,6,10,-1,-7,8,10,0,16,150,-3,-7
-1,5,7,-1,-5,6,9,-1,15,166,-2,-6
1,5,5,-2,-3,5,9,-2,15,188,-1,-5
1,5,4,-2,-2,4,9,-2,14,215,0,-5
1,4,3,-2,-2,3,9,-3,13,241,-1,-4
1,3,2,-2,-2,3,8,-5,12,262,-2,-4
-1,3,4,-1,-4,4,9,-5,12,278,-3,-4
-2,4,6,0,-6,5,9,-5,11,290,-4,-4
-2,5,7,-1,-5,6,9,-5,11,304,-5,-6
-1,6,8,-2,-5,7,8,-5,11,328,-5,-9
-2,6,9,-1,-6,8,6,-6,11,356,-5,-11
-4,5,10,0,-7,8,5,-6,11,376,-5,-10
-4,5,9,0,-6,7,5,-6,12,384,-3,-9
-1,6,7,-2,-4,6,5,-6,12,389,-2,-7
0,5,6,-3,-3,5,4,-6,12,405,-2,-7
0,3,5,-2,-3,4,3,-6,12,445,-3,-7
-1,2,5,-1,-3,3,3,-6,12,522,-3,-7
0,3,5,-1,-3,3,3,-6,12,626,-2,-7
0,4,5,-2,-3,4,3,-5,13,725,-1,-7
-1,4,6,-1,-3,4,4,-5,13,692,-1,-7
-2,5,7,-1,-4,5,4,-5,13,492,-1,-6
-1,5,6,-1,-4,5,4,-5,13,273,-2,-6
0,5,6,-2,-3,5,4,-5,14,-105,-3,-7
0,6,6,-3,-3,6,3,-5,14,-191,-3,-7
0,7,7,-3,-4,7,3,-5,15,-295,-3,-7
-1,7,9,-2,-6,8,4,-4,15,-206,-2,-5
-2,8,10,-2,-7,9,5,-4,16,163,0,-3
-2,8,10,-2,-7,9,6,-3,17,-98,2,-1
-2,8,10,-2,-6,9,6,-2,17,-675,3,-2
-1,7,8,-2,-5,8,6,-2,17,-549,3,-4
0,7,7,-2,-4,7,6,-2,16,43,2,-6
0,6,7,-2,-4,7,7,-2,16,121,1,-5
-1,5,7,-2,-5,6,7,-2,16,-68,1,-5
-2,4,7,-1,-5,6,7,-2,16,-395,0,-5
-3,5,8,-1,-6,6,6,-2,15,-814,0,-6
-1,6,8,-2,-4,7,6,-2,15,-977,0,-6
0,7,7,-4,-3,7,6,-3,14,-473,0,-6
-1,8,9,-3,-5,8,6,-3,14,204,0,-5
-2,8,11,-3,-6,9,6,-4,14,405,0,-4
0,8,9,-3,-5,8,5,-4,14,225,0,-3
1,7,7,-3,-3,6,5,-4,14,-101,1,-3
2,6,5,-4,-2,5,6,-4,14,-491,2,-2
3,6,4,-4,-1,5,6,-4,15,-897,3,-1
3,6,4,-4,-1,5,6,-4,15,-1295,3,-1
1,6,6,-3,-3,6,6,-4,15,-1672,3,-2
-1,7,9,-2,-5,8,7,-3,15,-1183,2,-4
-1,7,9,-3,-5,8,7,-4,14,-161,0,-6
0,8,9,-4,-5,8,6,-4,14,358,0,-7
0,9,9,-4,-5,9,6,-4,13,593,0,-7
0,9,9,-4,-6,9,6,-4,13,670,-1,-9
0,9,9,-4,-6,9,6,-5,13,658,-2,-11
-1,9,10,-4,-6,9,6,-5,14,597,-2,-11
-1,8,10,-3,-6,9,6,-4,14,510,-1,-9
-1,7,9,-3,-5,8,6,-4,15,413,0,-7
-1,6,8,-2,-5,7,7,-4,15,317,2,-4
-2,6,8,-2,-6,7,7,-3,16,231,4,-1
-1,6,7,-2,-5,6,7,-4,16,158,4,-1
0,6,5,-3,-4,5,6,-4,15,98,3,-2
1,5,4,-3,-3,5,7,-5,15,46,3,-3
1,4,3,-3,-2,4,7,-5,15,-8,2,-3
2,4,3,-3,-1,3,7,-5,15,-6,2,-4
2,5,3,-3,-1,4,7,-5,14,-157,1,-4
1,5,3,-3,-1,4,7,-4,15,-174,0,-4
0,5,4,-2,-2,4,7,-4,16,-10,0,-4
0,3,4,-1,-3,4,6,-4,17,143,-1,-4
0,2,3,-1,-2,3,6,-4,18,463,-1,-4
1,3,2,-2,-1,3,6,-3,18,795,0,-4
3,4,2,-3,-1,3,7,-2,19,284,1,-2
3,5,2,-4,0,3,8,-2,20,-748,1,-1
2,4,2,-3,0,3,7,-3,20,-1271,1,-1
1,4,3,-3,-1,3,7,-3,20,-1502,0,-3
1,5,3,-3,-1,3,7,-3,20,-1567,-1,-5
1,5,4,-3,-1,4,8,-3,20,-1538,-2,-7
1,5,4,-3,-1,4,8,-2,21,-1458,-2,-8
1,4,3,-3,-1,4,8,-2,22,-1356,-2,-8
1,3,2,-2,-1,3,8,-2,22,-1249,-2,-6
0,2,3,-1,-2,3,9,-1,23,-1149,-1,-4
0,3,3,-1,-2,3,10,-1,23,-1061,0,-3
0,3,3,-1,-2,3,10,0,23,-1010,0,-2
0,3,3,-1,-1,3,10,0,24,-890,1,-2
0,3,3,-1,-1,3,10,0,24,-633,1,-2
0,3,2,-1,-1,3,11,0,24,-520,1,-2
0,3,2,-1,-1,3,12,0,24,-479,1,-2
0,3,2,-1,-2,3,12,0,24,-712,0,-3
0,3,3,-1,-2,3,11,-1,24,-769,-1,-5
0,4,3,-2,-2,3,10,-1,25,-107,-2,-5
0,4,3,-2,-2,3,10,0,25,-35,-1,-3
0,4,4,-2,-2,3,10,0,25,-354,0,-1
0,4,3,-2,-2,3,9,-1,24,-127,0,0
1,5,3,-3,-1,3,8,-2,24,375,1,0
1,5,4,-4,-1,4,7,-2,24,162,1,-1
1,5,4,-3,-2,5,7,-2,25,-517,1,-1
1,4,4,-3,-2,5,7,-2,26,-680,1,-1
0,4,5,-2,-3,5,7,-2,26,-581,1,-1
-2,5,7,-1,-5,6,8,-1,26,-370,1,0
-2,5,7,-1,-5,6,8,-2,25,-125,1,0
-1,5,6,-2,-3,5,7,-3,24,131,0,-1
0,6,5,-2,-3,5,7,-3,24,399,-1,-2
-1,6,6,-2,-4,6,7,-3,24,676,0,-2
-1,6,7,-2,-5,7,7,-3,24,964,0,-1
-2,5,7,-2,-5,7,7,-3,25,438,0,-1
-1,5,7,-2,-4,7,6,-3,26,-579,-2,-2
0,6,6,-3,-3,7,5,-4,24,-1081,-4,-3
0,7,7,-3,-4,7,3,-4,23,-1298,-5,-4
-1,7,8,-3,-4,8,2,-4,23,-1340,-4,-4
0,8,8,-3,-4,8,2,-3,24,-1264,-2,-1
0,7,8,-3,-4,8,2,-2,24,-1132,0,0
0,6,7,-3,-4,7,2,-2,23,-1007,1,1
0,6,6,-3,-3,6,2,-2,23,-941,1,2
0,5,5,-3,-3,5,2,-2,23,-966,2,3
0,4,3,-3,-1,4,2,-2,23,-1056,2,5
1,4,2,-2,-1,3,2,-2,23,-1144,2,6
1,3,2,-2,-1,2,2,-2,23,-1201,2,6
0,3,2,-2,-1,2,3,-1,23,-1235,1,4
0,3,3,-1,-2,3,3,-1,22,-1253,0,1
0,4,4,-1,-2,3,3,-1,22,-1256,-1,0
0,5,5,-2,-3,5,3,-1,22,-1254,0,0
0,6,5,-3,-3,6,2,-1,22,-1265,0,2
1,7,6,-4,-2,6,2,0,22,-1291,0,3
1,8,6,-4,-2,6,2,0,22,-1314,1,4
1,7,6,-4,-2,6,2,0,22,-1330,2,6
1,7,5,-4,-2,5,2,0,21,-1337,2,7
1,7,6,-4,-2,6,2,-1,20,-1329,1,7
1,8,8,-4,-3,7,3,-1,20,-1310,1,7
-1,9,10,-3,-6,9,4,0,20,-1286,1,6
-3,8,10,-2,-7,9,5,0,19,-1257,0,5
-2,8,9,-3,-6,8,5,0,18,-1227,0,4
0,7,7,-4,-4,7,5,0,18,-1199,0,4
1,7,5,-4,-2,6,5,0,17,-1171,0,3
2,6,3,-4,-1,5,6,0,17,-1134,0,3
2,5,2,-4,0,4,5,0,17,-1065,-1,3
2,4,2,-3,0,3,5,-1,16,-952,-3,4
1,4,3,-3,-1,4,4,-1,15,-824,-4,5
0,5,5,-3,-2,5,3,-2,13,-680,-5,6
0,7,6,-3,-3,6,3,-3,13,-510,-5,6
0,7,7,-3,-4,7,3,-3,14,-357,-4,9
-3,7,8,-2,-6,8,3,-2,15,-256,-2,12
-4,7,10,-1,-7,8,4,-1,16,-197,-1,12
-3,7,9,-1,-7,8,4,-2,15,-161,-2,8
-1,6,8,-2,-5,7,4,-2,14,-144,-3,3
0,6,7,-3,-4,7,4,-2,14,-147,-4,1
0,5,6,-2,-4,6,4,-2,14,-165,-3,1
-1,3,4,-1,-3,4,5,-2,14,-195,-3,3
-1,3,4,-1,-3,3,5,-2,14,-236,-1,6
-2,3,5,0,-3,4,5,-2,14,-286,-1,8
-1,4,5,-1,-3,4,5,-2,14,-336,-2,8
0,5,5,-2,-2,4,4,-3,13,-382,-2,8
0,6,5,-2,-3,5,4,-4,12,-414,-2,7
-1,5,6,-2,-3,6,4,-4,11,-433,-2,6
-2,4,6,-1,-4,5,4,-4,10,-446,-3,5
-2,3,5,0,-4,5,4,-4,9,-455,-3,5
-2,2,4,0,-3,3,3,-5,9,-460,-4,4
-1,1,3,0,-2,2,3,-6,8,-464,-5,2
-1,2,3,0,-2,2,3,-6,7,-467,-6,1
-3,2,4,0,-4,3,4,-6,7,-468,-6,1
-4,1,5,1,-5,3,3,-6,6,-466,-7,1
-4,0,4,2,-5,2,3,-6,5,-460,-7,1
-3,0,3,1,-4,1,2,-6,5,-451,-6,3
-3,0,3,1,-4,2,3,-5,6,-440,-3,6
-2,1,3,0,-3,2,3,-4,6,-434,-1,7
-2,1,3,1,-3,2,3,-4,6,-437,-3,6
-3,1,3,1,-4,2,3,-4,5,-445,-5,4
-4,0,3,2,-4,1,3,-5,4,-454,-7,2
-4,-1,2,3,-4,0,2,-5,3,-459,-6,3
-4,-1,1,3,-3,0,2,-5,4,-459,-5,4
-2,0,1,1,-2,0,2,-5,3,-456,-6,4
-1,0,0,1,-2,0,1,-5,2,-453,-8,3
-2,-1,1,1,-2,0,2,-5,1,-448,-7,3
-2,-1,1,2,-2,0,3,-5,1,-448,-5,5
-2,-1,0,2,-2,0,4,-4,1,-451,-4,5
-2,-1,0,2,-1,0,4,-4,1,-457,-3,5
-2,-1,0,2,-1,-1,4,-4,1,-462,-2,6
-2,-2,-1,2,-1,-1,5,-3,1,-464,-2,7
-2,-2,-1,2,-1,-1,6,-3,1,-460,-1,7
-1,-1,0,1,-1,-1,5,-3,1,-452,-1,6
-1,-1,0,1,-1,0,5,-3,1,-443,-1,6
-2,0,1,1,-2,0,5,-2,1,-436,-1,6
-2,0,1,1,-2,0,5,-2,1,-436,-1,6
-3,-1,1,2,-2,0,5,-3,0,-440,-2,4
-4,-2,1,3,-3,0,5,-3,0,-445,-2,4
-5,-1,3,3,-5,1,6,-2,0,-446,-2,4
-4,0,4,1,-4,2,6,-2,0,-443,-2,4
-2,1,3,0,-3,2,6,-3,-1,-437,-3,4
-3,0,3,1,-4,2,5,-4,-1,-430,-3,4
-5,-1,4,3,-5,2,4,-5,-2,-425,-3,4
-6,1,6,2,-6,3,4,-6,-2,-424,-2,4
-4,4,8,0,-6,6,5,-5,-2,-425,-2,5
-3,7,9,-2,-6,8,4,-4,0,-425,0,6
-2,8,10,-3,-6,9,4,-1,4,-421,6,8
-2,9,11,-4,-7,10,5,6,11,-410,16,13
-2,7,10,-3,-6,9,4,16,22,-393,30,23
0,6,7,-4,-3,7,4,30,38,-372,48,36
3,6,3,-6,0,5,3,43,54,-351,66,49
8,8,0,-8,4,4,2,46,63,-340,83,61
11,10,-2,-10,6,4,0,39,59,-342,95,71
12,12,-1,-12,6,5,-2,25,47,-353,105,79
13,13,0,-13,6,6,-4,7,30,-369,112,85
13,13,0,-13,6,6,-5,-12,10,-384,115,88
13,11,-1,-12,7,5,-6,-33,-14,-399,110,85
12,9,-2,-11,7,3,-6,-55,-42,-418,91,72
8,5,-2,-7,5,1,-3,-75,-69,-438,61,53
3,1,-2,-3,3,0,0,-91,-93,-456,30,32
0,-1,-2,0,1,-1,0,-107,-112,-470,3,15
-3,-2,0,2,-1,-1,0,-121,-128,-479,-17,1
-8,-5,3,6,-6,-1,2,-131,-140,-485,-36,-11
-12,-8,4,10,-8,-2,3,-137,-148,-488,-54,-24
-13,-11,2,12,-8,-5,4,-138,-153,-486,-71,-36
-16,-15,1,15,-8,-7,4,-137,-156,-477,-83,-44
-17,-20,-2,18,-7,-11,2,-138,-158,-465,-91,-50
-17,-24,-7,20,-5,-16,0,-136,-156,-450,-94,-52
-18,-28,-10,23,-4,-19,-1,-131,-148,-433,-92,-51
-17,-29,-13,23,-2,-21,-2,-123,-137,-415,-87,-49
-15,-28,-14,22,-1,-21,-3,-112,-123,-397,-79,-45
-13,-24,-12,19,-1,-18,-4,-100,-108,-379,-67,-38
-13,-20,-7,17,-4,-13,-4,-86,-92,-359,-54,-29
-14,-16,-1,16,-8,-8,-5,-74,-79,-339,-44,-23
-12,-11,2,12,-7,-5,-6,-63,-68,-322,-36,-20
-9,-7,3,8,-5,-2,-6,-52,-57,-308,-29,-17
-7,-4,4,5,-5,0,-4,-41,-48,-298,-22,-14
-7,-3,4,5,-5,0,-3,-32,-40,-295,-17,-10
-7,-4,2,5,-4,0,-2,-25,-34,-296,-13,-8
-5,-4,0,4,-3,-1,-2,-20,-30,-297,-11,-6
-4,-4,0,3,-2,-1,-2,-16,-27,-295,-10,-5
-3,-3,0,2,-2,-1,-2,-13,-25,-290,-8,-5
-3,-2,1,2,-2,0,-2,-11,-23,-285,-7,-6
-4,-2,2,2,-3,1,-1,-9,-22,-279,-6,-6
-4,-1,3,2,-4,1,0,-7,-20,-274,-3,-5
-4,-1,2,2,-3,1,0,-6,-19,-270,-2,-4
-4,-2,1,3,-3,0,1,-5,-18,-265,-1,-3
-6,-3,1,4,-4,-1,1,-4,-18,-260,-1,-3
-6,-4,1,5,-5,-1,2,-3,-18,-254,-1,-2
-4,-2,1,4,-4,0,2,-3,-18,-249,-1,-3
-2,0,2,2,-3,0,2,-4,-19,-244,-1,-4
-2,1,3,0,-3,2,2,-3,-19,-240,-1,-4
-2,2,4,0,-3,2,2,-3,-20,-238,0,-4
-1,2,4,0,-3,2,1,-3,-20,-239,0,-4
-2,1,3,0,-2,2,0,-3,-21,-243,-1,-4
-2,0,2,1,-2,1,0,-3,-22,-248,-2,-5
-2,-1,0,2,-2,0,0,-3,-22,-251,-2,-6
-2,-2,0,2,-2,0,0,-3,-22,-251,-1,-5
-4,-2,1,3,-3,0,1,-2,-22,-248,0,-5
-4,-3,1,3,-3,-1,1,-3,-24,-244,-1,-5
-3,-2,1,3,-2,-1,1,-3,-25,-240,-3,-5
-3,-2,1,3,-3,-1,1,-3,-26,-238,-4,-5
-4,-1,2,3,-4,0,1,-3,-26,-239,-4,-5
-5,-1,4,3,-5,1,1,-2,-25,-239,-4,-4
-4,0,4,2,-4,2,1,-2,-25,-240,-4,-4
-2,0,3,1,-3,2,1,-2,-25,-239,-3,-3
-1,0,2,0,-2,1,1,-2,-26,-235,-3,-2
-1,0,1,1,-2,0,1,-2,-26,-230,-2,-1
-3,0,2,2,-3,0,1,-1,-26,-223,0,0
-3,-1,2,2,-3,0,0,-1,-26,-219,0,0
-3,-1,1,2,-2,0,0,-1,-26,-218,-1,-1
-4,-1,2,3,-3,0,1,0,-26,-218,-2,-2
-3,-1,1,3,-2,0,1,0,-26,-219,-3,-3
-2,-2,0,3,-1,-1,1,-1,-26,-219,-4,-4
-2,-3,-1,3,0,-1,1,-1,-26,-215,-4,-4
-2,-2,-1,3,0,-1,1,-1,-25,-209,-3,-2
-2,-2,-1,2,0,-1,1,0,-24,-203,-2,-1
-2,-2,-1,2,0,-1,1,0,-23,-200,-2,0
-3,-2,0,3,-1,-1,2,1,-22,-199,-1,0
-2,-3,-2,3,0,-2,2,2,-22,-202,-1,0
0,-4,-4,2,1,-3,2,2,-21,-205,-1,1
0,-4,-4,2,1,-3,2,3,-20,-207,-1,2
0,-4,-4,2,1,-3,3,4,-19,-206,0,2
0,-4,-4,2,1,-4,2,4,-18,-203,-1,1
0,-4,-4,2,1,-4,2,4,-18,-199,-1,0
0,-4,-4,2,1,-4,1,4,-17,-196,-2,0
0,-4,-4,1,2,-4,0,4,-16,-195,-2,1
0,-4,-4,1,2,-4,0,5,-15,-196,-2,1
0,-4,-4,1,2,-4,1,6,-14,-198,-1,2
0,-4,-4,1,2,-4,2,7,-12,-199,-1,2
0,-4,-4,1,2,-3,2,9,-10,-199,-1,3
0,-4,-4,1,1,-3,2,10,-9,-197,0,4
0,-3,-3,1,1,-3,3,11,-7,-192,0,4
0,-2,-2,1,0,-2,4,12,-6,-188,0,4
-1,-1,-1,1,0,-1,5,13,-5,-185,0,4
0,0,-1,1,0,-1,5,14,-4,-184,0,4
0,-1,-1,1,1,-2,5,15,-3,-183,0,5
-1,-2,-1,2,0,-2,4,15,-2,-182,0,5
-1,-2,-1,2,0,-2,4,16,-1,-181,0,5
0,-2,-1,1,0,-2,3,16,-1,-178,0,5
0,-1,-1,0,0,-1,3,17,0,-174,-1,5
-1,-1,0,1,0,-1,2,17,0,-169,-1,4
-2,-1,0,1,-1,-1,2,18,0,-166,-2,4
-3,-1,1,1,-1,0,3,20,1,-164,-1,5
-4,0,2,2,-3,0,3,21,3,-163,-1,6
-4,0,3,2,-4,1,4,22,4,-162,-1,6
-4,0,4,2,-4,1,4,23,5,-160,-1,6
-3,0,3,1,-4,1,4,24,5,-157,-1,6
-2,0,2,0,-3,1,4,25,6,-151,-1,6
-3,0,2,1,-3,1,3,26,7,-145,-1,6
-4,0,3,2,-4,1,3,26,7,-140,-1,6
-4,0,3,2,-4,1,2,27,7,-136,-2,6
-3,1,3,1,-3,1,0,28,7,-135,-2,6
-2,1,2,0,-3,1,-1,29,8,-134,-3,6
-3,1,4,1,-4,2,-2,30,8,-133,-3,6
-2,1,4,0,-4,2,-3,31,9,-131,-3,7
0,2,3,-1,-2,2,-4,31,9,-128,-3,7
1,3,3,-2,-1,2,-4,32,10,-123,-2,7
0,3,3,-2,-1,2,-4,33,10,-118,-2,7
0,2,2,-1,-2,2,-4,33,9,-114,-2,7
-1,1,1,0,-1,1,-4,33,8,-112,-3,6
-1,1,1,0,-1,0,-4,33,8,-111,-4,6
-1,1,1,0,-1,0,-4,34,8,-109,-4,7
0,1,1,0,-1,0,-4,34,7,-106,-4,7
0,1,1,0,-1,0,-4,34,7,-102,-4,7
1,2,1,-1,-1,1,-3,34,7,-98,-3,8
1,2,1,-1,-1,1,-3,33,6,-94,-3,9
0,3,1,-1,-1,1,-3,33,6,-91,-2,9
0,3,2,-1,-1,2,-3,33,6,-89,-2,9
-1,3,3,-1,-2,3,-2,33,5,-89,-2,10
-2,3,5,0,-4,4,-2,32,5,-89,-2,11
0,4,3,-1,-2,3,-2,31,3,-89,-2,10
2,3,1,-2,0,2,-3,28,1,-88,-3,8
1,2,2,-1,-1,2,-3,27,0,-86,-3,7
-1,2,4,0,-3,2,-3,25,-1,-83,-2,7
0,2,3,-1,-2,2,-3,24,-2,-80,-2,7
2,2,0,-2,0,1,-4,22,-3,-80,-5,8
5,3,-2,-4,3,0,-4,20,-5,-83,-8,8
5,3,-2,-4,3,0,-4,18,-6,-88,-8,9
3,2,-1,-2,2,0,-4,17,-7,-93,-7,11
1,0,-1,-1,1,-1,-4,16,-7,-98,-6,12
1,0,-1,0,1,-1,-4,14,-8,-101,-6,12
0,0,0,0,0,-1,-3,14,-7,-103,-4,12
-2,0,2,1,-3,0,-2,14,-7,-104,-3,13
-3,0,3,2,-3,0,-2,13,-8,-108,-2,13
-1,0,0,1,-1,0,-3,11,-9,-112,-3,11
1,0,-2,0,0,-1,-4,10,-10,-116,-3,10
0,0,-2,0,0,-1,-4,9,-10,-119,-2,10
0,-2,-2,2,0,-2,-5,8,-11,-121,-3,9
0,-3,-2,2,0,-3,-6,7,-11,-123,-3,8
0,-2,-2,1,1,-3,-6,7,-11,-123,-4,8
0,-2,-2,1,0,-2,-5,6,-11,-123,-4,8
-1,-3,-1,1,0,-2,-5,5,-12,-123,-5,8
-2,-3,-2,2,0,-2,-5,4,-12,-124,-5,8
-2,-3,-2,2,0,-2,-5,4,-12,-125,-5,8
-2,-3,-1,2,0,-2,-4,4,-12,-126,-5,8
-1,-2,-1,2,0,-2,-4,4,-11,-126,-5,8
-1,-2,0,2,0,-2,-4,4,-11,-125,-5,8
0,-1,-1,1,0,-2,-5,3,-11,-125,-5,8
1,-1,-2,1,1,-2,-5,2,-11,-124,-6,7
1,-1,-3,0,1,-2,-5,2,-11,-124,-5,6
1,-1,-3,0,1,-2,-5,2,-11,-123,-5,6
1,-1,-3,0,1,-2,-5,2,-10,-122,-4,6
1,-2,-3,1,1,-2,-6,2,-11,-122,-5,6
0,-3,-2,2,0,-3,-6,2,-11,-122,-5,6
-1,-3,-2,3,0,-3,-6,3,-10,-122,-5,6
0,-2,-1,2,0,-3,-6,3,-9,-121,-5,6
0,-3,-2,2,0,-3,-5,4,-9,-120,-5,6
-1,-4,-2,3,0,-4,-5,3,-9,-120,-6,5
-1,-4,-3,3,1,-4,-5,3,-9,-121,-6,5
0,-4,-4,2,1,-4,-5,3,-9,-122,-6,5
0,-3,-4,1,1,-3,-4,4,-8,-122,-5,6
0,-3,-3,1,1,-3,-4,4,-8,-122,-5,6
0,-3,-3,2,1,-4,-4,4,-8,-122,-5,6
0,-4,-3,2,1,-4,-4,4,-8,-123,-6,6
0,-4,-3,2,0,-4,-4,4,-8,-123,-6,6
-1,-3,-3,2,0,-4,-3,5,-7,-123,-5,5
-2,-3,-2,2,-1,-3,-2,5,-7,-123,-5,5
-2,-4,-2,3,0,-3,-2,5,-7,-124,-5,4
-1,-4,-3,3,0,-3,-2,5,-7,-125,-5,3
-1,-3,-3,2,0,-3,-2,6,-6,-125,-5,3
-1,-3,-3,2,0,-2,-2,6,-6,-125,-4,4
-2,-3,-1,3,-1,-2,-2,6,-5,-125,-4,4
-3,-3,0,3,-2,-2,-2,6,-5,-125,-4,4
-2,-4,-2,3,0,-3,-2,5,-6,-125,-4,4
-1,-4,-4,2,0,-4,-3,5,-6,-125,-5,3
-1,-4,-3,3,0,-4,-3,5,-6,-125,-5,3
-2,-4,-3,3,0,-3,-3,5,-6,-125,-5,3
-2,-4,-2,3,0,-3,-3,4,-6,-125,-5,2
-2,-4,-2,3,0,-3,-4,4,-6,-125,-6,2
-2,-4,-2,3,0,-3,-4,4,-5,-124,-6,2
-2,-3,-1,3,0,-2,-4,4,-5,-122,-5,2
-2,-2,-1,2,-1,-2,-4,4,-4,-121,-5,2
-2,-2,0,2,-1,-1,-5,4,-4,-121,-5,2
-3,-2,0,3,-2,-1,-5,4,-4,-121,-5,2
-4,-3,0,3,-3,-1,-6,4,-4,-122,-5,2
-5,-3,2,4,-4,0,-5,5,-4,-121,-4,3
-6,-1,4,3,-6,1,-4,6,-2,-120,-2,4
-6,-1,5,3,-6,2,-4,7,-2,-120,-1,5
-5,-1,4,3,-5,1,-5,6,-3,-121,-1,4
-4,-2,2,3,-3,0,-7,5,-4,-122,-2,4
-2,-2,0,1,-1,0,-9,4,-4,-123,-2,4
-1,-2,-1,1,0,-1,-10,4,-4,-123,-2,4
-1,-2,-2,1,0,-1,-11,4,-5,-124,-2,5
-1,-1,-1,0,0,-1,-11,4,-6,-124,-1,7
0,0,0,0,0,0,-11,4,-6,-124,0,8
0,1,0,0,0,0,-12,6,-4,-122,3,9
0,1,0,-1,0,1,-13,10,0,-118,8,10
1,2,1,-2,0,1,-13,19,10,-109,16,13
2,3,1,-3,0,2,-12,32,25,-96,28,20
3,4,1,-4,1,3,-12,44,42,-83,42,29
6,5,-1,-6,3,2,-13,50,50,-77,55,37
8,6,-2,-7,5,2,-13,45,46,-82,63,44
8,7,-2,-7,5,2,-12,31,31,-94,69,49
8,7,-1,-7,4,3,-12,10,10,-108,73,53
8,8,0,-8,4,4,-12,-15,-14,-122,76,57
8,10,1,-8,3,5,-12,-41,-42,-138,77,59
8,10,1,-9,2,6,-11,-67,-72,-156,70,57
6,8,1,-7,2,5,-11,-93,-102,-178,52,48
3,3,0,-3,0,2,-11,-117,-132,-203,23,32
0,-1,-2,0,0,-1,-10,-137,-159,-223,-9,13
-1,-6,-5,4,1,-5,-10,-150,-179,-236,-37,-5
-4,-13,-9,8,2,-11,-9,-158,-192,-242,-61,-22
-8,-20,-13,13,2,-17,-7,-161,-200,-243,-82,-36
-11,-25,-15,17,1,-20,-6,-160,-201,-240,-98,-48
-12,-28,-16,19,1,-22,-6,-155,-197,-231,-107,-55
-12,-30,-18,20,2,-24,-8,-148,-187,-215,-110,-58
-11,-32,-20,21,4,-26,-12,-137,-173,-195,-108,-58
-10,-33,-23,21,6,-28,-15,-123,-156,-171,-101,-54
-9,-32,-23,20,7,-27,-17,-107,-137,-147,-92,-49
-7,-29,-22,18,7,-25,-17,-89,-117,-126,-81,-43
-6,-25,-19,15,6,-23,-17,-70,-97,-106,-68,-36
-6,-21,-16,13,5,-19,-16,-54,-79,-90,-55,-29
-5,-17,-13,10,4,-16,-15,-40,-64,-77,-43,-22
-4,-14,-11,9,3,-13,-13,-28,-50,-68,-33,-17
-3,-11,-8,7,2,-9,-10,-17,-39,-63,-25,-12
-3,-7,-4,5,0,-5,-8,-8,-29,-60,-18,-8
-3,-4,-1,4,-1,-3,-6,-1,-22,-60,-14,-5
-4,-3,0,4,-2,-2,-6,2,-17,-63,-12,-3
-2,-3,-1,3,-1,-2,-6,5,-15,-67,-10,-2
-2,-3,-2,2,-1,-3,-6,6,-13,-72,-9,-2
-3,-4,-2,3,-1,-3,-6,7,-12,-76,-7,-1
-5,-6,-2,5,-2,-3,-6,7,-11,-81,-6,-1
-6,-6,-1,6,-3,-3,-6,8,-11,-84,-6,-1
-5,-5,-1,5,-2,-2,-6,8,-10,-88,-6,-1
-3,-5,-2,5,-2,-3,-6,8,-10,-91,-6,-1
-5,-5,0,5,-3,-2,-6,9,-9,-94,-6,-1
-6,-5,0,6,-4,-2,-6,9,-9,-97,-6,-1
-5,-5,-1,5,-3,-3,-6,9,-9,-100,-6,-1
-6,-5,-1,5,-3,-3,-6,9,-9,-101,-6,-1
-8,-5,0,6,-5,-2,-5,10,-8,-102,-5,0
-8,-6,0,7,-5,-2,-4,10,-8,-103,-5,0
-6,-6,-1,6,-3,-3,-4,10,-8,-105,-6,-1
-5,-6,-1,6,-3,-4,-4,10,-8,-107,-6,-2
-5,-6,-1,5,-2,-4,-4,10,-8,-109,-7,-2
-4,-6,-2,5,-2,-4,-6,10,-9,-110,-7,-3
-4,-6,-2,5,-2,-4,-7,10,-9,-111,-7,-3
-4,-6,-2,5,-2,-4,-6,10,-9,-111,-6,-3
-4,-6,-3,5,-1,-5,-6,10,-9,-111,-6,-3
-4,-7,-3,5,-1,-5,-6,10,-8,-111,-6,-2
-5,-7,-2,6,-1,-4,-5,10,-7,-111,-6,-2
-5,-6,-2,6,-2,-4,-5,11,-7,-111,-5,-2
-5,-6,-2,5,-2,-4,-5,11,-7,-111,-6,-2
-5,-6,-2,5,-2,-4,-5,11,-7,-112,-6,-2
-5,-6,-2,5,-2,-4,-6,11,-6,-113,-6,-2
-5,-6,-2,6,-2,-4,-6,12,-6,-113,-6,-1
-5,-7,-3,6,-1,-4,-6,12,-6,-113,-6,-1
-4,-7,-3,5,-1,-5,-6,12,-6,-113,-6,-2
-3,-6,-4,4,0,-5,-5,13,-6,-113,-6,-2
-3,-6,-4,4,0,-5,-4,14,-5,-113,-6,-2
-4,-8,-4,6,-1,-5,-4,14,-4,-113,-6,-2
-5,-8,-4,6,-1,-6,-4,15,-3,-113,-6,-2
-4,-7,-3,5,-1,-5,-4,16,-2,-113,-6,-1
-4,-6,-3,5,-1,-5,-4,17,-2,-113,-5,-1
-5,-7,-3,5,-1,-5,-4,17,-2,-113,-5,-1
-5,-7,-3,5,-1,-5,-4,18,-2,-113,-5,-2
-4,-6,-4,4,0,-5,-4,18,-2,-113,-5,-2
-2,-5,-4,3,1,-4,-3,18,-1,-113,-4,-1
-2,-5,-3,3,0,-4,-2,19,0,-113,-4,-1
-4,-6,-3,5,-1,-4,-1,19,-1,-114,-4,-1
-4,-6,-3,6,-1,-5,-1,20,-1,-114,-4,-1
-4,-6,-3,5,-1,-5,-2,20,-1,-114,-4,-2
-3,-6,-3,5,0,-5,-3,20,0,-114,-4,-2
-4,-5,-2,4,-1,-4,-3,21,2,-113,-3,-2
-4,-5,-1,4,-1,-4,-2,21,3,-113,-3,-1
-5,-6,-1,5,-2,-3,-2,21,3,-113,-3,-1
-7,-6,0,5,-4,-2,-2,22,3,-113,-2,-1
-8,-5,2,6,-6,-1,-1,23,4,-112,-2,0
-10,-5,5,7,-8,0,0,24,5,-111,-1,1
-9,-4,5,6,-8,0,0,25,5,-112,0,1
-8,-4,4,6,-7,0,0,25,5,-113,0,0
-8,-4,3,5,-6,0,-1,25,5,-114,-1,0
-6,-4,2,5,-4,0,-2,25,5,-114,-1,0
-5,-4,1,4,-3,0,-2,26,5,-114,-1,0
-5,-4,1,4,-3,0,-2,26,6,-114,-1,0
-5,-3,1,4,-3,0,-2,27,6,-114,-1,0
-4,-3,1,3,-3,0,-3,28,7,-114,-1,0
-4,-2,1,3,-3,0,-5,29,7,-114,-1,0
-4,-2,1,3,-3,0,-6,31,7,-114,0,1
-4,-1,2,3,-4,0,-6,32,8,-113,1,1
-5,-1,3,3,-5,1,-6,34,10,-113,2,3
-5,0,3,3,-5,2,-7,35,11,-113,3,4
-4,-1,2,3,-4,1,-8,35,11,-113,4,4
-4,-1,2,3,-3,0,-9,36,11,-113,4,4
-4,-1,1,3,-3,0,-8,38,12,-113,5,4
-4,-1,1,2,-3,0,-7,39,13,-112,5,4
-4,-1,2,2,-3,1,-6,40,14,-112,6,4
-3,0,2,1,-3,1,-6,41,14,-112,6,5
-3,-1,2,2,-3,1,-7,42,14,-112,7,6
-4,-1,3,2,-4,2,-6,43,15,-111,8,7
-4,0,4,2,-5,3,-5,44,17,-110,9,9
-3,1,4,0,-4,3,-5,45,18,-110,10,10
-3,1,3,0,-4,3,-6,45,18,-111,11,10
-3,0,3,1,-4,2,-6,45,18,-112,11,9
-3,0,3,1,-4,2,-6,46,18,-112,11,9
-2,2,3,0,-3,2,-5,46,18,-112,12,9
-1,3,3,-1,-3,3,-5,46,18,-113,13,10
-1,3,3,-1,-3,3,-4,46,18,-113,13,11
-2,3,4,0,-4,4,-4,46,18,-114,13,12
-3,3,5,0,-5,4,-4,46,18,-114,13,12
-2,3,5,0,-4,4,-4,45,17,-114,13,12
0,4,4,-1,-3,3,-5,44,14,-115,13,12
-1,4,4,-1,-3,3,-5,43,11,-116,13,12
-2,3,5,0,-4,4,-4,43,10,-117,13,12
-2,3,4,0,-4,3,-4,41,11,-117,13,13
-1,2,3,0,-3,2,-5,39,11,-117,12,13
-1,2,2,0,-2,1,-6,37,9,-118,12,13
-1,2,2,0,-2,1,-6,35,8,-118,11,13
-1,2,2,-1,-2,2,-6,34,7,-118,11,13
-3,2,3,0,-3,2,-6,33,7,-116,11,13
-3,0,2,1,-3,1,-7,30,5,-115,10,12
-2,0,0,0,-1,0,-8,28,3,-116,9,11
0,0,-1,0,0,0,-8,26,1,-117,8,10
0,0,-1,0,0,-1,-9,24,-1,-118,6,8
-1,-1,-2,1,0,-2,-9,22,-4,-119,5,7
-1,-1,-1,1,0,-2,-9,20,-5,-119,5,7
-1,-1,-1,1,0,-2,-8,19,-5,-118,4,7
0,-1,-2,1,0,-2,-8,18,-5,-118,3,6
0,-2,-2,1,0,-2,-9,17,-5,-119,2,5
-1,-3,-2,2,0,-2,-9,15,-6,-119,1,4
-2,-3,-1,3,-1,-2,-9,14,-7,-119,0,4
-3,-4,-1,3,-2,-2,-9,13,-7,-119,0,4
-3,-4,-1,3,-1,-3,-10,12,-8,-118,0,3
-4,-5,-1,4,-2,-3,-10,11,-8,-118,-1,2
-6,-5,1,5,-3,-2,-9,11,-8,-117,-1,2
-8,-5,2,6,-5,-1,-9,11,-8,-117,-1,2
-8,-4,2,6,-5,-1,-8,11,-9,-117,-1,1
-6,-4,1,5,-4,-1,-8,10,-9,-117,-2,1
-5,-3,1,4,-3,-1,-8,10,-9,-117,-2,1
-5,-3,1,4,-3,-1,-8,9,-9,-117,-2,1
-6,-4,1,5,-4,-2,-9,8,-10,-118,-2,0
-7,-6,0,6,-4,-3,-10,7,-10,-118,-3,0
-6,-6,0,5,-3,-4,-10,7,-10,-119,-4,0
-5,-5,-1,4,-1,-4,-10,6,-10,-119,-4,0
-5,-5,-1,4,-1,-4,-10,6,-11,-118,-4,0
-5,-5,-1,4,-1,-4,-9,6,-11,-118,-4,0
-5,-6,-2,5,-1,-4,-9,6,-12,-118,-4,0
-5,-6,-2,5,-2,-4,-9,6,-12,-118,-4,0
-5,-6,-1,5,-2,-3,-9,6,-12,-118,-4,0
-6,-6,-1,5,-2,-3,-9,6,-12,-118,-4,0
-5,-6,-1,5,-2,-3,-8,6,-11,-118,-4,0
-5,-6,-1,5,-2,-3,-9,6,-10,-118,-4,-1
-5,-6,-1,5,-1,-3,-9,7,-10,-118,-4,-1
-5,-6,-1,6,-1,-4,-9,7,-10,-118,-4,-1
-6,-7,-1,6,-1,-4,-8,8,-10,-117,-4,0
-5,-7,-2,6,-1,-5,-8,8,-9,-117,-4,0
-4,-7,-3,6,0,-5,-7,8,-10,-117,-4,0
-4,-7,-3,5,0,-5,-7,8,-10,-117,-4,0
-3,-7,-4,5,0,-5,-8,9,-10,-117,-4,0
-3,-7,-3,5,0,-5,-7,9,-9,-116,-3,1
-4,-7,-3,5,0,-5,-6,9,-8,-117,-3,1
-5,-8,-3,6,-1,-5,-6,10,-9,-117,-3,0
-5,-7,-2,6,-2,-5,-5,10,-8,-116,-3,0
-6,-7,-1,6,-3,-4,-5,11,-7,-116,-2,0
-6,-7,-1,6,-3,-4,-4,12,-6,-116,-1,0
-6,-7,-1,6,-3,-3,-4,12,-6,-116,-1,1
-6,-6,-1,5,-3,-3,-3,12,-6,-115,-1,1
-6,-6,-1,5,-3,-3,-3,12,-7,-115,-2,0
-5,-6,-2,5,-2,-3,-3,11,-8,-116,-2,0
-4,-6,-2,5,-1,-3,-3,11,-8,-115,-2,-1
-5,-7,-1,6,-2,-4,-3,11,-7,-115,-2,-1
-5,-7,-2,6,-1,-4,-4,10,-8,-114,-3,-1
-5,-7,-2,6,-1,-5,-5,10,-9,-114,-3,-1
-6,-7,-2,6,-2,-4,-5,10,-10,-113,-3,-1
-7,-7,-1,7,-3,-3,-5,10,-10,-111,-3,-1
-7,-7,0,7,-3,-3,-4,10,-9,-110,-3,-1
-8,-6,1,7,-4,-3,-4,10,-7,-108,-3,-1
-9,-6,2,7,-6,-2,-3,10,-7,-107,-2,-1
-8,-5,3,6,-6,-1,-3,10,-7,-107,-2,-1
-8,-5,2,6,-5,-1,-3,10,-8,-106,-2,-1
-8,-5,2,6,-5,-1,-3,10,-8,-106,-2,-1
-8,-5,2,6,-5,-1,-3,10,-7,-105,-2,-1
-8,-5,2,6,-5,-1,-3,9,-7,-104,-2,-1
-7,-5,1,6,-4,-2,-3,8,-7,-104,-3,-1
-6,-6,0,5,-3,-3,-4,7,-8,-104,-3,-2
-5,-6,0,5,-2,-3,-5,7,-10,-104,-3,-2
-7,-6,1,6,-4,-2,-5,7,-11,-103,-2,-1
-8,-5,4,7,-6,0,-5,8,-10,-102,-1,0
-8,-4,4,6,-6,0,-5,8,-8,-101,0,1
-9,-4,4,6,-6,0,-7,8,-6,-100,0,1
-9,-4,4,6,-6,0,-7,8,-5,-99,0,1
-8,-4,3,5,-5,0,-8,9,-5,-97,0,0
-7,-3,3,5,-5,0,-8,9,-4,-96,1,0
-6,-3,3,4,-4,0,-8,10,-4,-95,1,1
-6,-3,2,4,-4,0,-8,10,-4,-95,1,1
-5,-3,1,4,-3,-1,-8,10,-5,-95,2,2
-5,-2,1,3,-3,0,-8,9,-5,-94,3,3
-4,-1,2,2,-3,0,-8,10,-5,-90,5,4
-3,1,4,0,-3,2,-8,12,-2,-85,10,8
-3,4,7,0,-5,5,-8,15,4,-77,17,12
-3,6,9,-2,-5,8,-8,22,13,-65,27,19
0,9,10,-4,-5,9,-8,30,25,-51,40,27
2,11,9,-7,-3,10,-8,41,39,-33,57,37
5,14,8,-10,-1,11,-8,54,56,-13,76,47
8,16,8,-12,0,12,-8,66,73,7,95,58
10,17,6,-14,1,11,-9,69,80,19,110,68
11,16,4,-14,3,10,-10,61,76,22,120,76
12,17,4,-14,3,10,-10,45,61,16,126,82
12,17,4,-14,3,11,-9,25,39,4,127,85
11,15,4,-13,3,10,-8,1,12,-15,120,83
10,11,1,-11,4,7,-7,-24,-19,-43,99,72
8,6,-2,-7,5,2,-5,-48,-51,-79,66,54
4,0,-3,-2,3,-1,-1,-71,-83,-116,29,32
1,-3,-4,1,2,-3,0,-91,-110,-148,-4,11
0,-6,-6,3,3,-6,0,-110,-132,-173,-31,-6
-2,-9,-8,6,2,-8,-1,-125,-151,-195,-54,-21
-6,-13,-8,9,1,-10,-1,-136,-164,-213,-73,-35
-9,-17,-9,13,0,-13,-2,-140,-171,-227,-88,-46
-10,-21,-10,16,0,-15,-3,-142,-172,-236,-98,-54
-12,-25,-12,18,0,-18,-6,-142,-171,-240,-103,-59
-15,-29,-14,22,0,-22,-9,-140,-166,-239,-105,-62
-16,-33,-17,24,0,-25,-11,-135,-158,-232,-103,-62
-16,-35,-19,24,1,-27,-13,-125,-146,-222,-97,-60
-17,-33,-17,25,0,-25,-14,-112,-131,-207,-87,-54
-17,-30,-14,23,-2,-22,-14,-97,-112,-188,-75,-47
-14,-25,-12,19,-1,-18,-15,-81,-93,-169,-63,-40
-9,-20,-11,15,0,-15,-15,-67,-76,-153,-51,-32
-8,-15,-8,12,0,-11,-14,-52,-61,-138,-40,-25
-9,-12,-3,10,-3,-7,-12,-38,-48,-125,-30,-19
-11,-9,2,10,-7,-2,-10,-26,-37,-115,-22,-13
-12,-7,5,9,-9,0,-8,-17,-29,-107,-17,-9
-9,-5,3,7,-7,0,-8,-10,-23,-102,-14,-7
-7,-4,2,6,-5,0,-8,-5,-17,-96,-12,-6
-7,-4,2,6,-5,0,-7,-1,-11,-91,-9,-4
-6,-4,1,6,-4,-1,-7,1,-8,-88,-8,-4
-5,-5,-1,6,-2,-2,-7,3,-7,-86,-7,-4
-6,-6,0,6,-3,-2,-6,4,-6,-84,-6,-4
-6,-5,1,5,-3,-1,-5,5,-5,-83,-5,-3
-4,-3,0,3,-2,-1,-5,7,-5,-83,-5,-3
-2,-3,-1,2,-1,-1,-5,7,-6,-83,-5,-4
-3,-4,0,3,-1,-1,-5,8,-5,-82,-5,-4
-5,-4,1,5,-3,0,-5,10,-4,-80,-4,-3
-5,-4,1,5,-3,0,-4,10,-2,-79,-3,-2
-5,-4,0,5,-3,-1,-5,10,-1,-77,-3,-1
-6,-4,1,5,-4,0,-5,10,0,-76,-2,-1
-6,-3,2,5,-4,0,-5,11,0,-75,-2,0
-5,-3,1,4,-4,0,-5,11,0,-75,-2,-1
-5,-4,0,4,-3,-1,-5,11,0,-75,-2,-1
-4,-4,0,4,-2,-1,-5,11,1,-75,-2,-2
-3,-4,-1,4,-1,-2,-4,11,1,-74,-2,-2
-2,-4,-2,3,0,-2,-4,12,1,-74,-2,-3
-2,-5,-3,4,0,-3,-4,12,1,-73,-2,-3
-2,-5,-2,4,0,-3,-5,12,2,-72,-2,-2
-2,-4,-2,3,-1,-3,-4,13,3,-71,-2,-2
-2,-4,-1,3,-1,-2,-3,14,2,-71,-2,-2
-2,-4,-1,3,-1,-2,-3,14,2,-71,-1,-2
-2,-4,-1,3,-1,-3,-3,15,2,-71,-1,-2
-3,-5,-1,4,-1,-3,-3,15,3,-70,-2,-2
-3,-6,-1,4,-1,-3,-3,16,5,-69,-1,-1
-4,-5,-1,4,-1,-3,-2,16,6,-67,0,0
-4,-5,0,5,-2,-2,-2,17,7,-66,0,0
-5,-5,0,5,-2,-3,-2,17,7,-66,0,0
-4,-5,-1,5,-1,-3,-2,18,6,-67,0,0
-3,-4,-1,3,0,-3,-1,18,7,-66,1,0
-2,-3,-1,2,0,-2,0,19,9,-64,2,1
-2,-2,0,2,0,-1,0,20,10,-63,2,1
-3,-3,0,3,-1,-1,0,19,11,-63,2,0
-4,-4,0,4,-2,-1,0,19,10,-63,2,0
-5,-3,1,4,-2,-1,-1,19,10,-62,2,0
-5,-3,2,4,-3,0,-1,19,9,-62,3,0
-5,-3,1,4,-3,-1,-1,18,9,-62,3,0
-4,-3,1,3,-2,-1,-1,17,10,-61,3,0
-4,-2,1,3,-3,0,-1,17,11,-60,3,-1
-5,-2,2,4,-4,0,-1,16,10,-60,2,-1
-5,-2,3,4,-4,0,-1,16,10,-60,2,0
-6,-2,3,5,-4,0,-1,16,10,-60,2,0
-6,-2,4,5,-4,0,-1,16,9,-59,2,0
-6,-3,3,5,-4,0,-1,16,8,-60,2,0
-6,-4,2,5,-4,0,-2,17,10,-59,2,-1
-6,-3,3,5,-5,0,-1,18,12,-58,2,0
-6,-2,3,4,-5,0,-1,19,13,-57,3,0
-6,-2,4,4,-5,0,-2,19,13,-56,3,0
-8,-2,5,5,-6,1,-3,20,14,-55,4,0
-8,-1,5,5,-6,1,-3,21,14,-55,4,0
-6,-1,4,4,-4,0,-4,22,14,-55,4,0
-5,-1,3,3,-4,0,-5,22,15,-55,4,1
-4,-1,2,2,-3,0,-6,23,17,-54,4,1
-2,0,1,1,-2,0,-6,24,17,-52,5,2
-2,0,1,0,-2,0,-6,25,16,-51,5,2
-3,0,2,1,-2,0,-5,27,17,-50,5,2
-4,-1,2,2,-3,0,-6,28,20,-49,6,2
-5,-1,2,3,-4,0,-7,30,23,-49,6,2
-5,-1,3,3,-4,0,-6,31,24,-48,7,3
-5,-1,3,3,-4,0,-5,32,23,-47,7,3
-4,-1,2,3,-3,0,-4,34,20,-47,7,4
-4,-1,2,2,-3,0,-4,35,20,-46,8,4
-6,0,5,3,-5,2,-3,38,24,-44,9,5
-6,1,7,3,-7,3,-2,39,27,-43,10,5
-5,1,5,2,-5,3,-2,40,29,-43,10,5
-3,1,4,1,-3,2,-2,40,30,-43,10,5
-2,2,3,0,-2,2,-2,41,30,-43,9,5
-2,2,3,0,-2,2,-2,41,30,-43,9,5
-1,2,3,0,-2,2,-2,42,29,-43,9,5
-2,2,3,0,-2,2,-1,43,29,-43,9,5
-3,2,4,0,-3,3,-1,43,29,-43,9,5
-3,2,5,1,-4,3,-1,44,29,-43,9,5
-3,2,4,1,-4,3,-1,44,28,-44,9,5
-2,2,4,0,-3,3,0,45,28,-44,8,5
-2,2,4,0,-3,4,0,45,28,-44,8,5
-2,3,4,0,-3,4,0,45,27,-45,8,6
-1,3,4,0,-2,4,-1,45,27,-45,7,5
-1,3,3,-1,-2,3,-1,44,26,-45,7,5
-1,3,3,-1,-2,3,-1,44,25,-46,6,5
-1,2,3,0,-2,3,-1,43,24,-47,5,5
-1,2,3,0,-1,3,-1,43,22,-48,4,4
-1,2,3,0,-1,3,0,42,20,-49,4,4
-1,3,3,-1,-1,4,0,42,17,-50,5,4
0,3,3,-1,-1,4,1,41,16,-50,5,5
-2,2,3,0,-2,3,1,39,17,-51,4,5
-3,1,3,0,-2,3,0,38,17,-51,4,5
-2,1,3,0,-2,3,0,36,16,-52,4,5
0,1,2,0,0,3,-1,35,15,-52,4,5
0,1,1,0,0,2,-1,33,12,-52,4,5
0,0,0,1,0,1,-1,31,10,-52,4,5
0,-1,0,1,0,0,-1,29,9,-53,4,5
0,-1,0,1,0,0,-1,26,8,-53,4,4
0,-1,-1,1,0,0,-1,24,6,-54,3,4
-1,-2,-2,2,0,-1,-2,22,5,-54,2,4
-1,-3,-3,2,0,-2,-2,21,4,-55,1,3
-1,-3,-3,3,0,-2,-2,19,3,-56,1,2
-1,-3,-2,3,0,-2,-2,18,1,-56,1,2
-1,-3,-2,3,0,-2,-3,17,0,-56,1,1
-2,-4,-2,3,0,-3,-3,16,-1,-56,0,0
-3,-5,-2,4,0,-3,-3,14,0,-55,-1,0
-3,-5,-2,4,-1,-3,-3,12,0,-54,-2,0
-3,-3,-1,3,-1,-1,-2,12,0,-53,-1,0
-3,-3,-1,3,-1,-1,-2,11,-1,-53,-1,1
-4,-5,-2,4,-1,-2,-2,10,-3,-53,-2,0
-4,-6,-3,5,0,-4,-2,10,-4,-53,-2,-1
-3,-6,-3,5,0,-4,-2,9,-4,-53,-3,-1
-3,-6,-3,5,0,-4,-3,8,-4,-52,-3,-2
-4,-6,-2,5,-1,-4,-3,8,-4,-51,-3,-2
-4,-5,-1,5,-1,-3,-3,7,-6,-49,-3,-2
-3,-5,-2,4,-1,-3,-2,7,-8,-47,-2,-2
-3,-5,-2,4,-1,-3,-3,7,-7,-45,-2,-2
-5,-6,-2,5,-1,-4,-3,7,-5,-43,-2,-2
-4,-6,-2,5,-1,-4,-3,7,-5,-41,-2,-2
-3,-5,-2,4,0,-3,-2,7,-6,-40,-2,-2
-3,-5,-2,4,0,-3,-2,6,-7,-40,-2,-3
-3,-6,-2,5,0,-4,-2,6,-6,-40,-2,-3
-4,-7,-2,5,-1,-4,-2,5,-5,-39,-2,-3
-4,-7,-3,5,-1,-4,-2,6,-4,-38,-2,-3
-2,-6,-4,3,0,-5,-2,6,-3,-37,-2,-4
-1,-6,-5,3,2,-5,-1,6,-3,-37,-2,-4
-2,-6,-5,3,1,-5,-1,6,-3,-36,-2,-4
-4,-6,-3,4,0,-4,-1,7,-2,-35,-2,-3
-4,-6,-2,5,0,-4,-1,7,-3,-35,-2,-3
-2,-6,-3,4,1,-5,-1,7,-4,-35,-2,-3
-2,-5,-3,4,1,-4,1,7,-5,-35,-2,-3
-4,-5,-2,5,0,-4,3,7,-6,-35,-2,-3
-4,-6,-1,5,-1,-3,4,7,-6,-36,-2,-3
-4,-6,-1,5,-1,-3,4,7,-3,-34,-2,-3
-6,-6,0,6,-2,-3,4,7,-1,-32,-2,-3
-8,-6,1,7,-4,-3,4,7,0,-30,-2,-3
-6,-6,0,6,-3,-3,4,7,0,-30,-2,-3
-3,-5,-1,4,-1,-3,4,7,-1,-31,-2,-3
-3,-5,-1,4,-1,-3,4,6,-3,-31,-2,-4
-4,-6,-1,5,-1,-3,4,6,-3,-31,-2,-4
-3,-5,-1,4,-1,-3,4,6,-2,-30,-2,-4
-3,-4,-1,3,-1,-2,3,6,-2,-30,-2,-3
-4,-4,0,4,-2,-2,3,5,-3,-29,-2,-3
-4,-4,0,4,-2,-1,3,5,-4,-29,-3,-4
-4,-3,0,3,-2,-1,3,4,-4,-29,-3,-4
-5,-4,1,4,-3,-1,2,4,-4,-29,-2,-3
-6,-5,1,5,-4,-1,2,4,-4,-28,-2,-3
-6,-5,1,5,-4,-1,3,4,-4,-27,-2,-3
-7,-4,2,5,-4,-1,2,4,-4,-26,-1,-3
-8,-4,3,5,-6,0,2,4,-3,-25,0,-3
-9,-4,4,5,-6,0,1,3,-3,-25,0,-3
-7,-3,3,5,-5,0,0,3,-4,-25,0,-3
-6,-3,2,5,-4,-1,-1,2,-5,-25,1,-4
-6,-3,2,5,-4,0,-1,3,-6,-25,2,-3
-6,-3,2,5,-3,0,-2,3,-7,-25,4,-3
-5,-3,1,4,-3,0,-2,2,-5,-24,5,-3
-5,-3,2,4,-4,0,-3,2,-4,-24,7,-2
-5,-2,3,4,-4,0,-3,3,-4,-23,7,-2
-4,-2,2,3,-3,0,-3,4,-5,-23,7,-1
-3,-1,2,2,-2,0,-2,4,-6,-22,6,-1
-4,-2,2,3,-3,0,-2,4,-6,-22,6,-1
-5,-3,2,4,-3,0,-2,4,-5,-22,5,-1
-4,-2,1,3,-2,0,-2,5,-4,-21,5,0
-3,-1,1,2,-2,0,-1,5,-3,-20,5,0
-5,-1,3,3,-4,1,-1,6,-3,-19,5,0
-7,-2,4,5,-6,1,0,6,-5,-19,5,0
-6,-2,3,4,-4,0,0,6,-5,-20,4,0
-3,-2,1,2,-2,0,0,6,-3,-20,3,0
-2,-1,1,1,-1,0,0,6,-2,-19,4,0
-2,0,1,1,-2,1,0,6,-2,-18,4,0
-3,0,2,2,-3,2,0,6,-3,-18,5,0
-4,0,4,2,-4,2,0,7,-3,-18,5,0
-6,0,5,3,-5,3,1,7,-2,-18,4,0
-5,0,4,2,-4,2,0,6,-2,-18,4,0
-3,0,2,1,-3,1,0,6,-1,-18,3,0
-2,0,2,1,-2,2,0,6,-1,-17,4,0
-2,0,2,1,-2,2,1,6,-2,-17,4,0
-4,-1,3,2,-4,2,1,6,-1,-16,4,0
-5,-1,4,3,-5,2,1,6,0,-15,4,0
-4,-1,3,2,-3,1,1,5,0,-15,3,0
-1,0,1,0,-1,1,0,5,0,-15,3,0
-1,1,2,0,-1,1,0,4,-1,-15,3,0
-3,1,3,0,-3,2,1,4,-3,-15,3,0
-4,1,4,1,-4,2,1,4,-4,-15,3,0
-3,1,4,0,-4,2,1,4,-4,-15,3,0
-3,2,4,0,-3,3,0,3,-5,-16,3,0
-2,2,3,0,-2,3,0,2,-6,-16,3,0
-1,2,3,-1,-2,3,0,2,-5,-16,3,0
-1,4,5,-1,-3,5,0,2,-3,-14,4,1
-2,5,7,-1,-4,6,0,3,-1,-10,7,3
-2,6,8,-2,-5,7,-1,8,2,-4,13,6
0,7,8,-3,-4,8,0,15,9,5,21,12
1,8,7,-5,-3,8,0,25,23,18,33,19
2,8,6,-5,-2,7,-1,38,39,34,47,28
2,8,6,-5,-2,7,-1,49,55,51,62,37
3,9,5,-6,-1,7,-1,52,63,63,76,47
6,10,3,-8,1,7,-2,45,57,65,87,55
7,10,2,-9,2,6,-3,29,41,60,94,61
8,10,1,-9,3,6,-4,8,21,51,98,65
9,8,-1,-9,5,4,-5,-14,-2,37,97,66
9,6,-4,-8,6,1,-5,-37,-27,18,89,62
8,3,-5,-6,7,0,-2,-58,-53,-6,70,50
5,0,-6,-2,6,-3,1,-79,-80,-35,39,30
1,-5,-7,2,4,-5,3,-100,-104,-64,8,9
-1,-8,-8,5,4,-7,4,-118,-125,-88,-18,-9
-1,-11,-11,6,5,-10,3,-134,-141,-106,-39,-24
-3,-15,-12,9,5,-13,2,-145,-154,-121,-57,-37
-7,-20,-13,14,2,-16,0,-150,-161,-135,-73,-49
-12,-24,-13,18,0,-19,-2,-152,-165,-147,-86,-58
-15,-28,-12,21,-2,-20,-3,-152,-165,-154,-95,-64
-17,-30,-13,23,-2,-22,-5,-150,-162,-156,-98,-66
-15,-31,-17,23,0,-24,-8,-145,-155,-153,-98,-66
-13,-32,-19,23,3,-25,-10,-136,-144,-144,-94,-64
-12,-31,-18,22,2,-24,-10,-122,-128,-129,-86,-60
-12,-28,-15,21,1,-21,-10,-106,-110,-112,-75,-54
-11,-24,-12,18,0,-18,-10,-90,-93,-94,-63,-46
-10,-19,-9,15,-1,-14,-8,-74,-76,-77,-52,-39
-8,-15,-7,12,-1,-11,-7,-59,-60,-63,-41,-31
-8,-12,-5,10,-2,-8,-6,-46,-47,-50,-33,-26
-7,-9,-2,8,-3,-6,-4,-34,-36,-39,-26,-22
-6,-6,0,6,-3,-3,-2,-24,-27,-31,-20,-18
-5,-4,0,5,-3,-2,0,-17,-20,-25,-16,-15
-5,-4,1,5,-3,-1,1,-12,-16,-21,-13,-14
-5,-4,1,5,-3,-1,2,-8,-12,-17,-11,-13
-5,-3,2,4,-4,0,3,-4,-9,-14,-9,-11
-8,-3,5,5,-7,1,4,-1,-7,-11,-6,-9
-9,-3,6,5,-7,1,4,0,-5,-9,-4,-9
-6,-3,3,4,-4,0,4,0,-5,-8,-5,-10
-5,-2,2,4,-3,0,4,1,-2,-6,-4,-10
-4,-2,2,3,-3,0,4,2,1,-4,-3,-9
-3,-1,2,3,-2,0,4,3,2,-3,-3,-9
-2,-1,2,2,-2,1,4,3,1,-3,-3,-9
-2,0,2,1,-2,1,4,3,1,-2,-3,-9
-5,0,4,2,-4,2,4,4,1,-1,-2,-8
-8,-1,6,4,-6,2,4,4,1,-1,-2,-7
-7,0,6,3,-6,3,4,3,0,-1,-2,-7
-6,0,5,3,-5,3,4,3,-1,-2,-2,-7
-7,0,6,4,-7,3,4,3,-1,-1,-2,-7
-7,0,6,4,-7,3,4,3,-1,-1,-3,-8
-6,0,5,3,-5,3,4,3,-1,-1,-3,-8
-5,0,4,3,-4,2,3,3,-1,-1,-4,-8
-5,0,5,2,-4,2,3,3,0,-1,-4,-8
-4,1,5,1,-4,2,2,3,1,0,-3,-8
-4,1,5,1,-5,3,2,3,1,1,-2,-7
-5,1,6,2,-6,4,2,3,2,1,-2,-6
-6,1,6,3,-6,4,1,3,2,2,-2,-6
-6,1,6,3,-6,4,0,3,1,2,-2,-5
-5,1,6,2,-6,4,0,4,0,3,-1,-5
-3,1,5,1,-4,3,-1,4,0,3,-1,-5
-3,0,5,1,-4,3,-1,4,0,3,-1,-5
-4,0,4,1,-3,2,-1,5,0,4,0,-5
-3,0,3,1,-3,2,-2,5,0,4,0,-4
-3,0,3,1,-3,2,-2,5,1,5,0,-3
-3,1,4,1,-3,3,-1,5,2,6,0,-2
-3,1,3,0,-3,3,0,5,2,6,0,-3
-3,0,3,1,-3,2,0,6,3,6,0,-4
-4,0,3,2,-4,2,-1,6,4,7,0,-5
-3,1,4,1,-4,3,0,7,5,9,1,-4
-2,2,4,0,-4,4,0,8,6,10,2,-3
-2,2,4,0,-3,4,1,8,6,11,2,-3
-2,2,4,0,-3,4,1,8,5,11,2,-2
-2,3,5,-1,-3,4,1,9,6,11,2,-2
-2,3,5,-1,-4,5,1,9,8,12,3,-2
-1,4,6,-1,-4,5,2,9,10,13,3,-2
-1,4,6,-1,-4,5,2,9,10,13,4,-2
-1,3,5,-1,-4,5,2,10,9,13,5,-2
-1,4,5,-1,-3,5,2,10,9,13,6,-2
0,5,5,-2,-2,5,2,11,10,14,8,-2
-1,5,5,-2,-3,5,2,11,10,14,10,-2
-3,4,6,0,-4,5,2,11,10,14,12,-2
-3,3,6,0,-4,4,2,12,9,14,13,-2
-3,2,5,0,-3,4,2,12,9,14,14,-1
-3,2,5,1,-4,4,3,12,10,14,14,-1
-3,2,6,1,-5,4,3,13,11,15,13,0
-2,3,6,0,-4,4,3,14,10,15,12,0
-1,3,5,-1,-3,4,3,14,9,15,11,0
-2,3,5,-1,-4,5,3,15,10,16,11,0
-2,3,5,-1,-4,5,4,16,11,17,10,0
-2,4,6,-1,-4,5,4,18,13,18,10,0
-4,5,8,-1,-6,7,5,20,15,19,10,0
-2,5,7,-1,-5,6,4,20,15,18,8,0
0,5,4,-2,-2,4,3,20,14,16,7,-1
1,5,3,-2,-1,4,2,21,15,16,6,-1
1,5,3,-3,-1,4,3,22,16,17,6,0
1,5,4,-3,-1,4,4,23,16,18,6,0
0,5,5,-2,-2,5,6,24,17,18,6,0
0,6,5,-3,-2,5,6,25,18,19,6,0
1,7,5,-4,-2,6,6,26,18,18,6,0
1,7,5,-4,-2,6,6,26,18,18,5,0
0,7,6,-4,-3,7,6,27,18,18,3,-1
0,7,7,-3,-4,7,6,27,18,18,3,-2
-1,8,9,-3,-5,9,6,29,18,18,3,-2
-2,8,10,-3,-6,10,7,30,18,18,2,-2
-1,8,9,-4,-5,10,7,30,17,17,1,-3
-1,8,9,-4,-5,10,7,30,16,17,1,-3
-1,9,9,-4,-5,10,7,30,16,17,0,-4
-1,9,9,-4,-5,9,7,29,16,16,0,-4
0,9,8,-4,-4,9,7,29,15,15,-1,-5
0,8,8,-4,-3,8,7,29,14,13,-2,-5
0,8,8,-4,-3,8,7,28,13,12,-3,-6
0,8,9,-3,-4,8,6,28,12,11,-4,-5
-1,7,9,-3,-5,8,5,28,12,11,-4,-5
-2,6,8,-2,-5,7,5,27,11,11,-4,-5
-2,4,6,-1,-4,5,6,26,10,11,-4,-4
0,4,4,-2,-1,4,6,25,9,10,-3,-4
1,4,2,-3,0,3,6,25,9,10,-3,-3
1,3,2,-2,0,3,6,24,8,10,-2,-2
2,2,1,-2,0,2,6,23,7,9,-2,-1
3,2,0,-2,1,2,6,22,6,9,-2,-1
2,2,0,-2,1,2,7,21,5,8,-3,-2
1,2,0,-2,0,1,7,19,4,8,-4,-2
2,1,-1,-2,1,0,6,17,2,7,-5,-3
3,2,-2,-3,3,0,6,16,0,6,-6,-3
3,2,-2,-3,3,0,7,15,0,5,-6,-3
3,1,-2,-3,3,0,7,13,-1,5,-6,-4
3,1,-2,-2,3,-1,7,12,-2,5,-6,-4
3,0,-3,-2,3,-1,7,11,-3,6,-5,-4
3,0,-3,-2,3,-1,8,10,-3,8,-4,-4
3,0,-3,-1,3,-2,8,9,-3,8,-3,-3
2,-2,-4,0,3,-3,8,8,-4,8,-3,-3
1,-2,-3,0,2,-3,8,7,-5,9,-3,-4
0,-2,-2,0,1,-2,8,6,-5,9,-3,-4
0,-3,-2,0,1,-3,8,4,-5,9,-4,-5
0,-3,-2,1,1,-3,9,3,-6,9,-4,-5
0,-3,-3,1,1,-3,10,2,-6,10,-4,-5
0,-3,-4,1,2,-3,10,0,-7,10,-5,-6
0,-3,-4,1,2,-3,10,-1,-8,10,-5,-7
0,-3,-3,1,1,-3,8,-2,-9,10,-5,-8
0,-2,-2,0,1,-1,8,-3,-9,10,-6,-8
0,-1,0,0,0,0,7,-4,-10,10,-7,-9
-1,0,1,0,-1,0,7,-5,-11,9,-9,-11
-2,0,2,1,-2,1,6,-6,-11,9,-10,-13
-3,0,3,0,-3,2,6,-6,-11,11,-9,-13
-3,0,4,1,-3,2,8,-6,-10,13,-8,-11
-5,0,4,2,-5,2,10,-6,-10,14,-6,-9
-6,-2,5,4,-6,1,11,-7,-10,15,-4,-7
-6,-3,4,4,-5,0,11,-8,-10,15,-4,-6
-5,-3,3,4,-4,0,11,-8,-11,15,-4,-7
-4,-2,2,3,-3,0,11,-9,-11,15,-5,-8
-3,-1,1,2,-2,0,10,-10,-12,14,-6,-9
-3,-1,1,2,-2,0,9,-10,-13,15,-7,-9
-4,-1,2,2,-3,0,7,-10,-13,16,-7,-10
-4,0,3,2,-4,1,6,-10,-13,16,-7,-9
-3,1,3,1,-3,2,5,-11,-13,16,-7,-8
-1,1,1,0,-1,1,4,-11,-13,16,-7,-8
-2,0,1,1,-1,1,4,-11,-13,17,-6,-8
-5,-1,3,4,-4,1,3,-11,-13,18,-5,-8
-5,-2,2,5,-4,0,3,-10,-13,18,-5,-8
-3,-3,0,4,-2,-1,3,-11,-13,18,-6,-8
-3,-3,0,3,-2,-1,2,-11,-13,18,-6,-9
-3,-2,0,3,-2,-1,2,-11,-14,18,-7,-10
-1,-1,0,1,0,0,2,-12,-15,17,-9,-13
0,0,0,0,0,0,2,-12,-15,18,-10,-14
0,1,0,-1,0,1,2,-12,-14,18,-10,-13
-1,1,2,0,-1,2,3,-11,-14,19,-9,-12
-2,2,4,0,-3,3,4,-10,-13,20,-9,-11
-2,3,5,0,-4,4,5,-10,-12,21,-8,-10
-2,3,5,0,-4,3,4,-9,-12,22,-7,-9
-3,2,5,0,-4,3,5,-9,-13,22,-6,-8
-3,2,5,0,-4,3,6,-9,-12,23,-4,-6
-3,3,5,0,-4,4,7,-8,-11,25,-2,-4
-3,3,5,0,-4,4,7,-8,-11,26,-1,-3
-2,2,4,0,-3,3,7,-8,-11,26,-1,-4
-2,1,3,1,-3,2,7,-9,-12,25,-3,-6
-3,1,3,1,-4,2,7,-9,-12,25,-4,-8
-3,1,4,1,-4,2,8,-8,-12,25,-4,-9
-2,2,4,0,-3,2,8,-8,-13,25,-4,-9
0,2,2,-1,-2,2,7,-9,-14,25,-5,-10
0,2,1,-1,-1,2,5,-10,-14,24,-6,-11
1,3,1,-1,0,2,5,-10,-14,25,-7,-11
1,3,1,-1,0,2,7,-9,-14,26,-6,-9
0,2,2,-1,-1,2,8,-9,-13,27,-5,-8
-2,1,3,0,-3,2,8,-8,-13,28,-4,-8
-4,1,5,1,-5,3,8,-8,-12,28,-3,-7
-4,1,6,1,-5,3,7,-8,-13,29,-4,-7
-3,2,5,0,-4,3,7,-8,-13,29,-5,-8
-3,2,6,0,-4,3,7,-9,-14,29,-5,-9
-3,2,6,1,-4,4,7,-9,-14,29,-6,-11
-2,3,6,0,-3,4,7,-9,-15,29,-7,-12
-1,4,5,-1,-3,5,7,-10,-15,30,-6,-12
0,5,5,-2,-3,5,7,-10,-15,30,-5,-11
-1,5,6,-1,-4,5,7,-10,-15,31,-4,-11
-2,5,6,-1,-5,5,8,-10,-15,31,-4,-10
-1,4,5,-1,-4,5,8,-10,-15,32,-4,-10
-2,3,5,0,-4,4,8,-10,-15,32,-4,-9
-2,3,4,0,-3,4,8,-10,-15,32,-4,-8
-1,3,3,0,-2,3,9,-9,-14,33,-3,-7
0,2,2,0,-2,2,10,-9,-14,33,-4,-6
-1,1,2,1,-3,2,9,-9,-15,33,-4,-6
-2,0,2,1,-3,1,8,-9,-15,32,-5,-6
-1,0,2,1,-3,1,8,-10,-16,32,-5,-7
-1,1,2,1,-2,1,7,-11,-18,31,-5,-8
-1,2,3,0,-3,2,7,-12,-18,31,-5,-10
-2,3,5,0,-3,4,7,-12,-17,32,-5,-11
-2,3,5,0,-3,4,7,-11,-17,33,-5,-12
-1,3,4,0,-3,4,7,-11,-16,34,-4,-11
0,2,3,0,-3,3,7,-10,-16,34,-4,-9
-1,1,3,1,-3,2,7,-10,-17,34,-3,-8
-1,0,2,1,-2,1,7,-11,-17,33,-4,-8
0,0,0,1,0,0,7,-11,-18,33,-5,-8
0,0,-1,0,0,0,7,-11,-18,33,-5,-7
0,-1,0,1,0,0,7,-11,-18,33,-5,-7
-1,-1,0,2,-1,0,7,-11,-18,33,-5,-7
0,0,0,1,0,0,7,-11,-18,33,-5,-7
2,1,0,-1,0,0,7,-11,-18,34,-4,-7
2,2,0,-1,0,0,7,-11,-17,36,-3,-7
1,2,1,-1,0,1,7,-10,-16,37,-2,-7
0,2,1,0,-1,1,8,-9,-15,38,-1,-7
0,2,2,0,-1,2,9,-8,-15,38,0,-7
-1,2,2,0,-1,2,8,-8,-15,38,0,-8
-1,0,2,1,-2,1,8,-9,-15,38,-1,-9
-3,0,3,2,-4,1,9,-8,-14,38,-1,-8
-4,-1,3,4,-5,1,10,-7,-14,37,0,-7
-1,-1,0,2,-2,-1,9,-7,-14,37,-1,-6
1,0,-1,0,0,-1,9,-6,-14,38,-1,-5
-1,0,1,1,-2,0,11,-5,-13,39,0,-4
-4,0,4,2,-5,2,12,-5,-13,39,0,-3
-3,1,4,1,-4,2,11,-7,-14,38,0,-5
0,2,1,0,-1,2,9,-9,-15,36,-2,-8
1,2,0,-1,0,1,9,-9,-15,36,-2,-9
1,1,0,-1,0,1,10,-9,-14,37,-1,-9
0,1,2,0,-1,1,10,-8,-14,38,0,-7
-3,1,5,1,-4,3,11,-7,-13,39,0,-6
-4,2,7,1,-6,4,11,-7,-13,40,0,-6
-2,1,4,0,-3,2,10,-8,-14,39,0,-7
1,1,0,0,0,0,9,-9,-15,38,-1,-7
1,1,0,0,0,1,9,-10,-14,38,0,-6
0,2,2,0,0,2,10,-9,-14,38,0,-6
1,3,3,-1,0,3,9,-10,-14,38,0,-7
2,3,2,-2,0,3,8,-10,-14,38,-1,-7
2,3,2,-2,0,3,7,-10,-15,37,-2,-7
2,3,3,-2,-1,3,6,-11,-16,36,-3,-6
1,3,3,-1,-1,3,6,-11,-16,36,-3,-5
0,3,3,0,-2,3,7,-11,-16,36,-2,-5
-1,3,4,0,-2,3,7,-11,-15,37,-1,-5
-1,3,5,0,-2,4,7,-10,-14,37,0,-4
0,4,5,-1,-2,4,7,-10,-13,38,1,-2
0,3,5,-1,-2,4,6,-10,-13,38,1,-1
-1,3,5,0,-3,3,4,-10,-13,39,1,-2
-1,3,5,0,-4,4,2,-11,-13,39,0,-5
-2,3,6,0,-4,5,2,-11,-14,38,-1,-7
-2,4,7,0,-4,6,2,-11,-14,38,-1,-7
-1,5,5,-1,-3,5,2,-10,-13,38,-1,-7
0,4,3,-1,-2,4,2,-10,-13,38,0,-6
0,3,2,-1,-1,3,3,-10,-13,37,0,-5
0,3,2,-1,-1,3,3,-10,-13,37,0,-4
0,3,3,-1,-2,3,3,-9,-13,36,-1,-3
0,4,3,-1,-2,4,2,-9,-13,36,-1,-3
1,5,3,-2,-1,5,2,-8,-12,37,0,-1
2,4,2,-2,-1,4,2,-9,-12,38,2,0
3,4,1,-2,0,3,2,-9,-11,39,3,0
4,4,0,-3,1,2,2,-8,-10,40,4,1
4,5,1,-4,0,3,2,-8,-10,40,4,1
2,5,2,-3,-1,4,1,-9,-11,39,3,0
2,5,4,-3,-2,4,0,-9,-11,38,1,-2
2,6,4,-4,-2,5,1,-9,-11,38,0,-4
2,6,5,-4,-2,5,2,-9,-11,38,0,-3
1,5,5,-3,-2,5,3,-9,-11,38,1,-2
1,5,5,-2,-2,5,4,-9,-11,38,2,0
0,5,5,-2,-2,5,4,-9,-11,38,1,0
0,5,5,-2,-3,5,4,-9,-11,37,0,-1
1,6,5,-3,-2,5,4,-9,-11,37,0,-1
1,6,4,-3,-1,4,3,-9,-10,38,2,0
1,5,3,-3,-1,4,3,-8,-10,39,3,0
1,5,3,-3,-1,4,2,-8,-10,38,2,0
2,6,4,-3,-2,5,2,-9,-11,35,0,-3
2,7,5,-4,-2,6,1,-10,-12,34,-1,-4
1,7,6,-3,-3,6,0,-11,-12,34,-1,-3
1,7,6,-3,-3,6,1,-11,-12,34,0,0
1,7,6,-4,-3,7,1,-10,-12,34,1,3
2,8,7,-5,-3,8,2,-9,-10,36,2,5
2,9,6,-5,-2,8,3,-8,-9,37,4,6
1,7,6,-4,-3,6,3,-8,-9,37,5,6
0,5,5,-2,-3,5,2,-9,-10,36,5,5
0,5,5,-2,-3,5,1,-9,-10,35,4,2
0,5,5,-2,-3,5,1,-9,-11,34,2,-2
1,5,5,-2,-2,5,1,-11,-11,33,0,-6
1,6,6,-3,-3,6,1,-11,-11,33,-1,-8
0,7,8,-3,-4,7,2,-11,-11,33,-1,-6
0,7,8,-3,-4,8,2,-11,-11,32,-1,-3
1,8,7,-4,-3,7,1,-12,-12,31,-1,-1
1,8,7,-5,-3,7,1,-12,-13,30,-1,0
1,8,7,-4,-3,7,1,-12,-13,30,0,0
2,8,6,-4,-2,6,1,-12,-12,30,0,-1
1,8,6,-4,-2,6,2,-10,-10,33,2,1
0,6,6,-2,-3,6,3,-10,-9,34,3,3
0,5,5,-2,-3,5,3,-10,-10,33,3,3
2,5,3,-3,-1,4,3,-11,-11,32,1,2
5,5,1,-4,1,3,2,-12,-11,31,0,0
3,5,3,-3,0,4,3,-11,-11,31,1,0
0,4,5,-1,-3,4,3,-11,-10,32,2,1
0,4,4,-1,-2,3,2,-12,-11,31,2,2
2,4,2,-3,0,3,1,-13,-12,30,1,1
3,5,3,-4,0,3,1,-13,-12,29,0,0
2,5,4,-4,-1,4,0,-13,-13,28,0,-1
0,4,4,-3,-2,4,0,-12,-12,28,0,-2
1,3,2,-2,-1,3,0,-12,-12,28,0,-1
2,3,1,-3,0,2,0,-12,-12,28,0,0
3,4,1,-4,0,3,0,-11,-11,29,1,1
1,4,3,-3,-1,4,1,-10,-10,30,2,0
0,3,3,-1,-2,3,2,-10,-9,30,2,0
1,2,1,-1,0,1,1,-11,-10,28,2,-1
4,2,-2,-3,2,0,0,-11,-10,28,2,-2
5,2,-3,-4,4,0,0,-11,-10,29,2,-1
6,3,-3,-5,5,0,1,-11,-9,30,2,-1
6,5,-1,-5,4,2,2,-10,-9,29,1,-1
4,5,0,-5,2,3,2,-9,-9,28,1,-1
3,4,1,-4,1,3,2,-9,-9,28,2,0
4,5,0,-4,1,3,1,-9,-9,29,4,2
4,5,0,-5,2,2,1,-9,-9,29,5,4
3,4,0,-3,1,2,1,-9,-8,29,6,5
2,4,0,-3,0,2,3,-8,-8,30,6,5
2,5,1,-3,0,3,4,-8,-8,30,6,4
3,5,1,-3,1,3,4,-9,-8,30,5,4
4,6,1,-4,1,4,4,-10,-7,30,6,3
4,8,3,-6,0,6,4,-9,-6,32,8,4
4,10,5,-7,0,8,4,-8,-4,34,11,5
4,11,6,-7,-1,8,3,-3,0,39,17,9
5,12,6,-8,0,9,3,4,7,48,27,15
7,12,6,-10,1,9,3,14,19,61,39,24
10,13,3,-11,3,8,2,28,36,78,54,33
14,13,1,-13,6,7,1,40,52,95,71,43
16,15,-1,-15,8,7,0,43,59,107,87,54
18,16,-2,-16,9,8,0,36,56,111,100,64
18,17,-1,-17,9,8,0,22,44,107,108,72
18,18,0,-17,8,9,0,3,27,98,114,78
18,18,0,-18,8,9,-1,-16,7,86,116,82
18,18,0,-18,9,8,-1,-38,-17,68,111,80
18,16,-1,-17,9,7,0,-61,-44,42,93,69
14,13,-1,-13,7,6,2,-80,-70,12,65,51
8,9,0,-9,4,5,5,-95,-92,-15,35,31
5,7,0,-6,2,4,5,-111,-112,-38,9,14
3,4,0,-3,1,3,4,-126,-127,-56,-11,1
-1,1,1,0,-1,1,4,-136,-138,-71,-29,-12
-5,-3,1,4,-3,-1,4,-141,-145,-85,-48,-25
-8,-8,0,8,-4,-4,3,-143,-150,-99,-65,-37
-9,-13,-4,11,-2,-9,1,-144,-155,-111,-79,-48
-8,-17,-9,13,0,-13,-2,-146,-156,-117,-88,-55
-9,-21,-12,15,1,-17,-4,-144,-152,-117,-91,-58
-10,-24,-14,17,2,-19,-5,-138,-143,-110,-88,-58
-11,-24,-14,18,2,-19,-6,-129,-130,-97,-81,-53
-9,-22,-13,16,2,-18,-7,-117,-115,-81,-70,-46
-6,-19,-13,13,3,-17,-8,-105,-100,-65,-59,-39
-4,-16,-11,10,3,-15,-8,-92,-85,-50,-48,-31
-3,-12,-8,8,2,-11,-9,-79,-71,-37,-39,-25
-2,-7,-5,4,1,-7,-9,-66,-57,-23,-29,-20
0,-2,-2,1,0,-2,-8,-53,-45,-10,-20,-14
0,1,0,0,0,1,-7,-42,-34,-1,-13,-9
1,3,1,-2,0,3,-6,-33,-27,4,-10,-7
2,3,0,-2,1,2,-5,-26,-22,8,-7,-6
3,2,-2,-3,3,0,-5,-22,-18,11,-5,-5
5,2,-3,-4,4,0,-5,-18,-14,14,-3,-4
5,2,-3,-4,4,-1,-5,-15,-11,18,-1,-2
5,1,-2,-3,3,-1,-5,-13,-8,21,0,-1
6,4,-1,-4,3,1,-4,-11,-6,23,3,0
8,8,0,-8,4,4,-3,-9,-5,24,3,0
7,10,1,-8,3,6,-3,-8,-4,24,2,-2
6,10,3,-7,1,6,-3,-7,-3,25,2,-2
6,9,2,-7,1,6,-3,-7,-2,26,4,0
5,7,2,-6,1,4,-3,-7,-1,27,5,3
4,5,1,-4,1,3,-3,-7,0,28,6,4
4,4,1,-4,1,2,-3,-7,1,29,7,5
4,4,1,-4,1,2,-3,-6,1,29,7,6
4,4,1,-4,1,2,-3,-6,1,28,7,6
3,3,0,-4,1,1,-2,-6,1,28,8,5
3,3,-1,-3,2,1,-2,-6,1,28,8,5
4,2,-2,-3,3,0,-3,-6,1,28,8,4
5,2,-3,-3,4,-1,-3,-5,1,28,8,4
6,2,-4,-4,4,-1,-3,-5,2,28,8,4
6,2,-3,-4,4,-1,-3,-5,2,27,6,2
6,3,-2,-4,3,0,-3,-5,2,25,4,-1
5,5,0,-5,2,3,-3,-5,2,24,1,-4
5,6,2,-6,1,4,-3,-5,2,24,0,-4
4,7,3,-5,0,5,-3,-5,2,25,3,-1
3,7,3,-5,0,6,-2,-4,3,27,6,3
3,6,3,-4,0,4,-2,-3,4,28,9,7
3,4,1,-4,1,2,-2,-3,4,27,10,9
4,3,0,-4,2,1,-2,-4,4,27,9,9
4,3,0,-4,1,1,-2,-4,4,27,9,7
5,3,0,-4,2,1,-3,-4,4,27,8,4
6,4,0,-5,3,1,-3,-3,4,26,8,3
6,5,0,-5,2,2,-3,-3,4,26,7,2
5,5,1,-5,2,3,-2,-4,4,27,6,0
5,6,1,-6,2,3,-2,-4,4,26,4,-1
5,6,1,-6,2,3,-2,-4,3,24,2,-2
5,5,0,-6,2,2,-2,-3,3,22,2,-1
4,4,0,-5,1,2,-1,-3,3,22,2,0
3,2,0,-3,1,0,-1,-2,4,22,3,0
3,0,-1,-2,1,0,-1,-2,4,23,5,2
4,0,-3,-1,2,-1,-1,-2,4,24,7,5
4,0,-4,-2,3,-2,-2,-2,4,25,8,7
5,0,-4,-2,4,-2,-2,-2,5,25,8,7
6,1,-4,-4,5,-1,-2,-2,6,26,7,6
6,2,-4,-5,5,0,-1,-1,7,26,7,5
6,3,-3,-5,5,0,-1,0,7,25,7,3
6,3,-3,-5,5,0,-1,0,8,25,7,3
7,3,-3,-4,5,0,-1,0,8,25,7,3
6,2,-4,-3,5,0,-2,1,8,25,7,3
6,2,-4,-3,5,-1,-1,2,9,25,7,3
7,2,-4,-4,5,0,0,3,10,26,7,4
7,2,-3,-4,5,0,0,4,11,27,7,3
6,2,-3,-4,4,-1,0,6,12,26,7,2
5,1,-3,-3,4,-1,0,7,13,27,7,2
5,1,-4,-3,4,-1,0,8,14,27,7,3
7,1,-5,-4,5,-2,1,9,15,28,8,3
8,1,-6,-4,6,-2,1,9,15,28,8,4
7,0,-5,-3,5,-2,2,10,15,28,7,3
5,0,-4,-3,4,-2,2,11,16,28,6,3
4,1,-3,-3,3,-1,1,12,17,28,6,3
4,1,-2,-3,2,-1,1,14,18,29,7,3
4,2,-2,-3,2,0,1,15,19,29,8,4
5,3,-2,-4,3,0,2,16,20,30,9,5
7,4,-2,-6,3,1,2,18,22,31,11,6
7,4,-2,-6,4,1,2,19,23,32,11,6
6,3,-3,-4,3,0,2,19,22,30,9,5
6,2,-3,-4,3,0,2,20,22,29,8,4
7,3,-3,-5,4,0,2,21,23,28,7,4
7,4,-3,-6,5,0,2,22,23,28,7,5
6,3,-2,-5,4,0,2,23,24,27,7,5
4,3,-1,-4,2,1,2,24,24,27,7,5
4,4,0,-4,1,2,2,25,25,26,6,5
4,4,1,-4,1,2,2,25,25,26,6,5
4,4,1,-4,1,2,2,25,25,25,5,5
5,4,1,-4,1,2,3,26,25,24,5,4
5,5,1,-4,1,3,3,27,25,23,5,4
5,5,2,-5,1,3,3,28,26,22,4,3
4,5,2,-5,0,3,2,28,25,22,4,3
4,5,2,-5,0,3,0,29,25,21,3,3
5,5,1,-6,2,3,-2,29,25,20,3,3
7,6,0,-7,3,3,-3,29,25,19,2,4
7,6,1,-7,3,3,-4,29,25,18,2,5
7,7,2,-7,2,4,-5,30,25,17,2,5
6,7,2,-7,2,4,-5,30,24,17,2,5
7,6,0,-7,3,3,-5,30,24,16,1,5
7,5,-1,-7,4,1,-6,30,23,16,1,5
8,5,-2,-7,5,1,-6,30,23,14,1,5
8,5,-2,-7,5,1,-6,30,22,13,1,6
8,5,-3,-6,5,1,-5,30,22,12,1,6
8,5,-3,-6,5,1,-4,29,22,12,1,6
8,5,-2,-6,5,1,-4,29,21,11,1,7
8,5,-2,-6,5,1,-5,28,21,11,1,7
8,5,-2,-7,5,1,-5,27,20,10,1,7
9,5,-3,-7,5,1,-5,26,19,10,1,7
10,6,-2,-8,5,2,-5,25,19,9,2,8
10,7,-2,-9,5,2,-4,24,18,9,2,8
10,7,-2,-9,5,2,-4,23,17,8,2,8
10,6,-2,-8,5,2,-5,21,16,7,2,8
10,5,-3,-7,6,1,-5,19,14,7,2,8
10,5,-4,-8,6,0,-5,17,13,8,3,9
10,5,-4,-8,6,0,-4,16,13,9,5,9
10,5,-5,-8,7,-1,-5,15,12,8,5,9
10,4,-6,-7,7,-1,-6,14,11,7,4,9
9,3,-5,-6,7,-1,-6,13,10,7,4,9
8,3,-5,-6,6,-1,-5,12,10,7,4,8
8,3,-4,-6,6,-1,-5,11,9,8,4,8
8,3,-4,-6,5,0,-4,10,9,9,5,8
9,3,-5,-6,7,-2,-5,9,8,9,5,8
11,2,-8,-7,9,-3,-6,7,7,9,4,7
11,2,-8,-7,9,-3,-6,5,6,9,4,7
10,3,-7,-7,8,-3,-6,5,6,10,4,7
10,2,-7,-7,8,-3,-6,4,6,10,4,7
10,1,-7,-6,8,-3,-6,4,6,9,3,6
9,1,-7,-6,8,-3,-6,3,6,9,2,6
9,1,-7,-6,8,-3,-6,2,6,9,2,6
9,1,-7,-6,8,-3,-6,2,5,9,1,6
9,1,-7,-5,7,-3,-6,1,5,9,1,7
8,1,-7,-5,7,-3,-7,0,4,9,1,6
8,1,-8,-5,8,-4,-7,0,3,9,1,5
7,1,-6,-5,7,-3,-7,0,4,10,1,5
6,1,-5,-5,6,-2,-7,0,4,11,1,5
6,1,-4,-4,5,-2,-6,0,4,11,1,5
6,1,-4,-4,5,-2,-6,0,4,11,1,5
7,0,-5,-4,5,-2,-6,0,4,11,1,5
7,0,-6,-4,6,-3,-6,0,4,11,1,5
6,0,-6,-3,5,-3,-6,0,4,11,1,5
5,0,-5,-2,5,-3,-6,0,4,11,1,5
5,0,-5,-2,5,-3,-6,0,4,11,1,6
5,0,-6,-3,6,-4,-6,-1,4,11,1,6
6,-1,-7,-3,7,-4,-6,-1,4,11,1,6
6,-1,-7,-3,6,-4,-6,-1,5,12,1,6
6,-1,-6,-3,6,-3,-6,0,5,12,1,7
6,0,-5,-3,6,-3,-5,0,6,12,1,7
7,0,-6,-4,6,-3,-5,0,6,12,1,7
6,0,-6,-3,6,-3,-6,0,6,12,1,6
6,-1,-6,-3,6,-4,-8,0,6,13,2,5
7,-2,-8,-3,7,-5,-7,0,6,13,1,4
7,-2,-10,-3,8,-6,-6,0,6,12,0,4
8,-2,-10,-3,8,-5,-6,0,6,12,0,5
8,-2,-10,-3,9,-5,-5,1,6,12,0,5
9,-2,-10,-4,9,-5,-5,1,6,12,-1,4
8,-2,-9,-3,8,-5,-5,1,7,12,-1,4
7,-2,-7,-3,7,-5,-5,2,7,12,0,4
6,-1,-7,-3,6,-5,-4,2,7,12,-1,4
7,-1,-8,-3,7,-5,-4,2,7,12,-1,5
8,0,-9,-4,8,-4,-4,3,7,12,-1,5
7,0,-8,-3,7,-4,-3,4,8,13,-1,6
6,0,-7,-3,6,-3,-2,4,9,14,0,6
6,0,-6,-2,6,-3,-2,4,10,15,0,6
6,0,-6,-3,6,-3,-1,5,10,15,0,6
6,0,-6,-3,6,-4,-1,5,10,14,0,6
5,-1,-6,-2,6,-5,-1,5,10,14,0,5
5,-2,-7,-2,6,-5,-1,5,9,14,0,4
5,-2,-7,-2,6,-5,-1,5,9,14,-1,4
5,-2,-7,-2,6,-4,0,5,9,15,-1,5
6,-2,-8,-2,7,-5,-1,5,9,15,-1,5
6,-2,-8,-2,8,-5,-2,4,9,14,-1,5
