leadI,leadII,leadIII,leadaVR,leadaVL,leadaVF,leadV1,leadV2,leadV3,leadV4,leadV5,leadV6
-1,1,2,0,-2,2,-1,-1,-3,-2,-1,-1
-3,3,6,0,-4,5,-4,-2,-7,-6,-4,-4
-4,5,9,-1,-6,7,-5,-3,-9,-8,-5,-5
-4,6,10,-1,-7,8,-5,-4,-10,-8,-6,-5
-5,6,11,-1,-7,9,-6,-4,-11,-9,-7,-5
-5,7,12,-1,-8,9,-6,-5,-12,-9,-7,-5
-5,8,12,-1,-8,10,-7,-5,-13,-10,-7,-5
-5,8,13,-2,-8,10,-7,-5,-13,-10,-7,-5
-4,9,13,-2,-8,11,-8,-5,-13,-10,-6,-5
-4,10,14,-3,-8,11,-8,-5,-13,-10,-6,-5
-4,11,14,-3,-9,12,-8,-5,-12,-9,-5,-5
-4,11,15,-4,-9,13,-8,-5,-12,-8,-5,-4
-4,12,15,-4,-9,13,-8,-5,-11,-8,-5,-4
-3,12,15,-5,-9,13,-8,-5,-11,-8,-5,-3
-3,12,15,-5,-8,13,-9,-5,-12,-8,-5,-3
-3,12,15,-5,-8,13,-9,-4,-12,-8,-4,-3
-2,12,15,-5,-8,13,-9,-4,-12,-8,-4,-3
-2,12,14,-6,-8,13,-9,-4,-11,-8,-3,-3
-1,12,14,-6,-7,13,-9,-4,-11,-8,-3,-3
-1,12,13,-6,-7,13,-8,-4,-11,-8,-4,-3
0,12,13,-6,-6,13,-8,-3,-11,-8,-4,-3
0,12,12,-6,-5,13,-8,-3,-11,-8,-4,-3
1,12,11,-6,-4,12,-7,-2,-10,-8,-4,-3
1,12,10,-7,-4,12,-7,-1,-10,-9,-5,-3
2,12,9,-7,-3,11,-7,-1,-10,-9,-5,-3
2,11,8,-7,-2,10,-6,0,-9,-8,-5,-3
3,11,7,-7,-2,9,-6,0,-9,-8,-5,-3
3,10,6,-6,-1,8,-6,0,-9,-8,-5,-3
3,8,5,-6,0,6,-5,1,-10,-8,-5,-4
3,7,3,-5,1,4,-5,1,-10,-8,-5,-4
3,4,0,-4,2,2,-4,2,-10,-8,-5,-4
3,3,-1,-3,3,1,-4,2,-10,-9,-6,-5
3,2,-1,-3,3,1,-4,2,-11,-11,-8,-6
4,2,-2,-3,3,0,-3,3,-11,-12,-9,-7
5,1,-4,-3,5,-1,-3,4,-11,-12,-10,-8
5,0,-5,-3,6,-2,-3,4,-11,-13,-10,-8
6,1,-5,-4,6,-2,-3,4,-11,-13,-11,-9
8,1,-6,-5,8,-2,-2,4,-10,-12,-12,-10
9,1,-8,-5,9,-4,-2,5,-10,-12,-12,-10
10,0,-10,-5,10,-5,-1,6,-10,-13,-12,-11
10,-1,-11,-4,10,-6,-1,6,-11,-13,-13,-12
9,-3,-11,-3,11,-7,-1,7,-11,-14,-14,-13
9,-4,-13,-3,12,-8,-1,7,-11,-15,-14,-13
9,-5,-14,-2,12,-9,0,7,-12,-15,-15,-14
9,-6,-16,-1,13,-11,0,7,-12,-15,-15,-14
7,-9,-17,0,13,-13,0,7,-12,-16,-16,-15
6,-12,-18,2,13,-15,1,7,-12,-16,-17,-17
6,-13,-19,3,14,-16,1,7,-12,-17,-18,-18
5,-15,-20,4,14,-18,2,7,-12,-17,-19,-19
5,-16,-21,5,14,-19,2,7,-13,-18,-20,-20
5,-17,-22,6,14,-20,2,7,-13,-19,-21,-20
4,-18,-22,7,14,-20,2,6,-14,-19,-21,-21
4,-19,-23,7,14,-21,2,6,-14,-19,-21,-21
4,-19,-23,7,14,-21,2,6,-14,-18,-21,-22
4,-19,-23,7,14,-21,2,6,-14,-18,-22,-22
3,-20,-23,8,14,-21,2,6,-14,-18,-22,-23
3,-20,-23,8,14,-21,2,6,-14,-18,-23,-23
3,-20,-23,8,14,-21,3,6,-14,-19,-23,-24
4,-20,-23,8,14,-21,3,6,-14,-19,-24,-24
3,-20,-23,8,13,-22,3,6,-14,-20,-25,-25
2,-21,-23,9,13,-22,3,5,-15,-21,-26,-25
2,-22,-23,10,13,-22,3,5,-15,-22,-26,-26
2,-22,-23,10,13,-22,3,5,-15,-23,-27,-26
1,-23,-23,10,13,-23,3,5,-15,-23,-27,-27
1,-23,-23,11,13,-23,3,5,-15,-23,-27,-27
1,-23,-24,11,13,-23,3,5,-15,-23,-27,-27
1,-23,-24,11,13,-23,3,5,-15,-23,-27,-27
0,-24,-24,11,13,-23,3,4,-15,-23,-27,-27
0,-25,-24,12,12,-24,3,4,-15,-24,-28,-27
-1,-25,-24,12,12,-24,3,4,-15,-24,-28,-27
-1,-25,-24,12,12,-24,3,4,-15,-24,-28,-27
-1,-25,-24,13,12,-24,3,4,-15,-24,-28,-28
-1,-25,-24,13,12,-24,3,3,-15,-23,-28,-28
-1,-25,-23,12,12,-24,3,3,-15,-23,-27,-28
0,-24,-23,12,12,-23,3,3,-15,-22,-27,-27
0,-23,-22,11,12,-23,3,3,-15,-21,-26,-27
0,-22,-22,11,11,-22,3,3,-14,-21,-26,-27
-1,-22,-21,11,11,-22,3,3,-14,-22,-26,-27
-1,-22,-21,11,11,-21,3,3,-14,-22,-27,-26
0,-21,-21,10,11,-21,3,3,-14,-22,-27,-26
0,-21,-21,10,11,-21,3,3,-14,-22,-27,-26
0,-21,-21,9,11,-21,4,3,-14,-22,-27,-26
1,-20,-20,9,11,-20,4,4,-13,-21,-26,-26
1,-19,-20,8,11,-20,5,4,-13,-21,-26,-26
1,-20,-21,8,12,-20,5,5,-13,-21,-26,-26
1,-21,-21,9,12,-21,5,5,-13,-21,-26,-26
0,-21,-21,10,11,-21,4,4,-13,-21,-26,-26
-1,-22,-20,11,10,-21,4,4,-13,-21,-26,-26
-3,-23,-20,12,10,-22,4,3,-14,-21,-26,-27
-3,-24,-20,13,10,-22,4,3,-14,-22,-26,-27
-4,-25,-20,14,9,-22,4,3,-14,-22,-26,-27
-4,-25,-20,14,9,-22,3,3,-14,-22,-27,-27
-4,-25,-20,14,8,-22,3,3,-14,-22,-27,-27
-4,-24,-20,14,8,-22,3,3,-13,-21,-26,-27
-4,-23,-20,13,8,-21,3,3,-13,-21,-26,-26
-4,-23,-20,13,8,-21,3,3,-13,-21,-26,-26
-4,-23,-19,13,8,-21,3,3,-13,-21,-26,-26
-5,-24,-19,13,8,-21,3,3,-13,-22,-26,-27
-4,-24,-19,13,9,-21,3,3,-13,-22,-26,-27
-4,-23,-19,13,9,-21,3,3,-13,-22,-26,-26
-3,-23,-19,13,9,-21,3,3,-13,-21,-26,-26
-3,-23,-19,12,9,-21,3,3,-13,-21,-26,-26
-3,-22,-18,11,9,-20,3,3,-13,-21,-25,-26
-2,-21,-18,11,9,-20,3,4,-12,-19,-24,-25
-2,-21,-19,11,9,-20,3,4,-12,-18,-23,-24
-3,-22,-19,12,9,-21,3,4,-12,-18,-23,-24
-3,-23,-19,12,9,-21,3,4,-12,-19,-24,-25
-3,-22,-18,12,8,-20,3,4,-12,-20,-25,-25
-3,-22,-19,12,9,-21,4,5,-12,-21,-26,-25
-2,-23,-20,12,9,-22,5,5,-11,-21,-26,-25
-2,-23,-21,12,10,-22,5,6,-11,-21,-26,-25
-2,-23,-21,12,10,-22,5,6,-11,-20,-25,-25
-1,-22,-21,11,10,-22,5,6,-11,-19,-24,-25
0,-22,-21,11,11,-21,6,6,-10,-18,-23,-25
0,-21,-20,10,11,-21,6,6,-10,-17,-22,-24
-1,-22,-20,11,10,-20,5,5,-11,-17,-22,-24
-3,-23,-20,12,9,-21,5,5,-12,-19,-23,-25
-4,-24,-20,13,9,-22,5,4,-12,-20,-24,-25
-3,-24,-20,13,9,-22,5,4,-12,-22,-25,-25
-3,-23,-20,12,10,-22,6,5,-12,-22,-26,-26
-4,-24,-20,13,9,-22,5,5,-12,-23,-27,-26
-4,-24,-20,13,9,-22,5,5,-13,-23,-27,-27
-4,-24,-20,13,9,-23,5,5,-12,-22,-27,-26
-3,-25,-22,13,10,-23,6,6,-12,-21,-26,-26
-3,-26,-23,14,10,-24,6,6,-11,-21,-26,-25
-3,-26,-23,14,10,-24,6,6,-11,-21,-25,-25
-3,-26,-23,14,10,-24,6,6,-11,-21,-25,-25
-3,-26,-23,14,10,-24,6,6,-11,-21,-25,-25
-3,-25,-22,14,10,-24,5,5,-11,-21,-25,-25
-3,-25,-22,14,10,-24,5,5,-11,-21,-25,-25
-2,-25,-22,13,10,-24,5,5,-11,-20,-25,-25
-2,-24,-22,13,11,-24,5,5,-11,-20,-25,-25
-1,-24,-22,12,11,-23,5,5,-11,-19,-24,-25
-1,-24,-22,12,11,-23,5,5,-11,-19,-24,-25
-1,-24,-22,12,11,-23,5,5,-11,-19,-24,-25
-1,-24,-22,12,11,-24,5,5,-11,-19,-24,-25
-1,-24,-21,12,11,-23,5,5,-11,-19,-24,-25
-2,-24,-21,12,10,-23,4,5,-12,-19,-24,-25
-3,-25,-21,13,9,-24,4,4,-12,-20,-24,-25
-3,-26,-21,14,9,-24,4,4,-13,-20,-25,-26
-3,-26,-21,14,9,-24,4,4,-13,-20,-25,-26
-3,-26,-21,14,9,-24,4,4,-13,-20,-25,-25
-3,-26,-21,14,9,-23,4,4,-12,-20,-25,-25
-3,-25,-21,14,9,-23,5,4,-12,-20,-25,-25
-2,-25,-21,13,9,-23,5,4,-12,-20,-25,-25
-2,-25,-22,13,10,-24,5,4,-12,-20,-24,-25
-3,-26,-22,14,10,-24,5,4,-12,-20,-24,-24
-3,-26,-22,14,10,-24,5,3,-12,-20,-23,-24
-2,-25,-22,14,10,-24,6,3,-12,-20,-23,-24
-2,-25,-22,14,10,-24,6,3,-12,-20,-23,-24
-2,-24,-22,13,10,-23,6,3,-12,-21,-23,-24
-2,-24,-22,13,9,-23,6,3,-13,-21,-23,-24
-3,-25,-22,14,9,-23,5,3,-13,-21,-23,-24
-3,-26,-22,15,9,-24,5,3,-13,-21,-23,-24
-3,-25,-21,15,9,-24,5,3,-13,-21,-23,-24
-3,-25,-21,14,9,-23,5,3,-13,-21,-23,-24
-3,-25,-21,14,9,-23,5,3,-12,-21,-24,-24
-3,-25,-21,14,9,-23,5,3,-12,-21,-24,-24
-3,-25,-21,14,9,-23,5,3,-12,-21,-24,-24
-3,-24,-21,13,9,-23,5,3,-12,-21,-24,-24
-2,-23,-21,13,9,-22,5,3,-12,-21,-24,-24
-3,-25,-22,14,10,-23,5,3,-11,-20,-24,-23
-4,-26,-22,15,9,-24,5,3,-11,-20,-23,-23
-4,-26,-21,15,9,-24,4,2,-12,-20,-23,-24
-4,-25,-21,14,9,-23,4,1,-12,-20,-23,-23
-4,-25,-21,14,9,-23,4,2,-11,-19,-22,-22
-4,-25,-21,14,9,-23,5,2,-11,-19,-22,-22
-4,-24,-20,14,9,-22,4,1,-12,-19,-22,-22
-3,-24,-20,14,9,-22,4,1,-12,-19,-22,-22
-3,-24,-21,14,9,-23,5,2,-11,-19,-21,-21
-2,-23,-21,13,9,-22,5,2,-11,-18,-21,-21
-2,-23,-21,12,9,-22,5,2,-10,-18,-21,-21
-2,-23,-20,13,8,-21,5,2,-11,-18,-21,-21
-4,-23,-20,14,7,-21,5,1,-11,-18,-21,-21
-6,-25,-20,15,7,-22,4,1,-11,-18,-21,-21
-7,-26,-20,16,6,-23,4,0,-11,-18,-21,-21
-7,-26,-20,16,6,-23,4,0,-11,-18,-20,-21
-7,-26,-20,16,6,-23,4,0,-11,-18,-20,-21
-7,-26,-20,16,6,-23,4,0,-11,-17,-19,-21
-7,-26,-20,16,6,-23,4,0,-11,-17,-19,-20
-6,-26,-20,16,7,-23,4,0,-11,-17,-18,-20
-6,-26,-20,16,7,-23,4,0,-11,-17,-18,-19
-5,-26,-20,16,8,-23,4,1,-11,-18,-19,-19
-5,-25,-19,15,8,-22,4,1,-11,-18,-20,-20
-5,-24,-18,15,7,-21,4,1,-11,-19,-20,-20
-5,-24,-18,14,7,-21,4,1,-10,-18,-20,-20
-5,-23,-18,14,7,-21,4,1,-10,-18,-20,-20
-5,-22,-18,14,6,-20,4,1,-9,-18,-20,-21
-5,-22,-18,14,6,-20,4,1,-9,-17,-20,-21
-5,-23,-18,14,6,-20,4,1,-9,-17,-20,-21
-5,-23,-18,14,6,-20,4,1,-9,-16,-18,-20
-5,-23,-18,14,7,-20,4,1,-9,-15,-17,-19
-4,-24,-19,14,7,-21,4,1,-9,-15,-17,-18
-4,-23,-19,14,7,-21,4,1,-9,-15,-17,-18
-4,-23,-18,14,7,-21,4,1,-9,-16,-17,-18
-5,-24,-18,15,7,-21,4,1,-9,-16,-17,-18
-5,-24,-19,15,7,-21,5,2,-9,-16,-17,-18
-4,-24,-19,15,8,-21,5,2,-9,-16,-18,-18
-4,-24,-19,14,8,-22,5,2,-8,-15,-17,-18
-4,-24,-19,14,8,-22,5,2,-8,-14,-16,-17
-3,-23,-19,13,8,-21,6,3,-7,-13,-15,-17
-2,-23,-19,12,8,-21,6,3,-7,-12,-14,-16
-2,-22,-19,12,8,-21,7,4,-6,-11,-13,-16
-2,-21,-18,12,7,-20,7,4,-5,-11,-13,-16
-2,-20,-18,11,7,-19,8,4,-4,-11,-13,-16
-2,-20,-17,11,7,-18,8,4,-4,-10,-13,-16
-2,-19,-16,10,7,-17,8,4,-3,-9,-12,-15
-2,-17,-15,9,7,-16,8,5,-2,-8,-11,-14
-1,-15,-14,8,7,-15,8,5,-2,-8,-10,-13
-1,-15,-14,8,6,-15,8,5,-2,-8,-10,-13
-1,-16,-14,9,6,-15,7,5,-2,-8,-9,-12
0,-15,-14,8,7,-15,7,5,-2,-7,-9,-12
2,-14,-15,6,9,-15,7,6,-1,-6,-8,-11
3,-14,-16,5,10,-15,6,6,-1,-6,-8,-11
3,-14,-17,6,10,-16,6,5,-1,-7,-9,-11
2,-16,-17,7,10,-17,5,4,-2,-8,-10,-12
1,-17,-18,9,10,-18,4,3,-3,-9,-11,-12
0,-19,-18,10,9,-19,3,2,-4,-10,-11,-12
-1,-19,-18,11,9,-19,2,2,-4,-10,-11,-12
-2,-19,-17,11,8,-18,1,1,-5,-9,-10,-12
-2,-18,-16,10,7,-18,1,1,-5,-8,-9,-12
-1,-17,-15,10,7,-17,1,0,-5,-8,-9,-12
-1,-17,-15,9,7,-16,1,0,-5,-8,-9,-12
-1,-16,-14,9,7,-15,1,0,-5,-8,-9,-12
0,-15,-14,8,7,-15,1,1,-5,-8,-9,-12
0,-15,-14,8,7,-15,2,1,-5,-8,-9,-11
0,-14,-14,7,7,-15,2,1,-4,-8,-9,-11
1,-14,-14,7,7,-15,3,2,-4,-8,-9,-11
1,-14,-14,6,8,-15,3,2,-4,-8,-9,-11
1,-14,-15,6,8,-15,4,2,-4,-8,-10,-11
0,-15,-15,7,8,-15,4,1,-4,-8,-10,-11
-1,-16,-15,8,7,-16,4,1,-5,-9,-10,-11
-2,-17,-15,10,7,-16,3,0,-5,-9,-9,-11
-4,-18,-14,12,6,-17,3,0,-5,-9,-9,-11
-5,-19,-14,13,5,-17,3,0,-5,-8,-9,-11
-6,-20,-14,14,5,-17,3,0,-5,-8,-9,-11
-6,-20,-14,14,4,-17,3,0,-5,-9,-9,-11
-6,-20,-14,13,5,-17,3,0,-5,-9,-10,-12
-6,-20,-14,13,4,-17,3,0,-5,-9,-10,-12
-6,-21,-14,14,4,-18,4,0,-5,-9,-11,-12
-7,-22,-15,15,5,-19,4,0,-4,-9,-11,-12
-8,-24,-16,16,5,-20,5,0,-5,-9,-11,-13
-8,-24,-16,17,4,-20,5,0,-6,-10,-12,-13
-8,-23,-15,16,4,-19,5,0,-6,-11,-12,-13
-7,-22,-15,16,4,-19,5,0,-6,-11,-12,-13
-8,-22,-14,16,3,-19,5,0,-6,-11,-12,-13
-8,-23,-14,16,3,-19,4,0,-6,-10,-11,-13
-9,-24,-14,17,3,-20,4,0,-6,-10,-11,-13
-9,-24,-13,17,2,-19,4,-1,-7,-10,-11,-14
-9,-22,-12,16,2,-18,4,-1,-7,-10,-11,-14
-8,-20,-12,14,2,-17,4,0,-6,-10,-10,-13
-8,-21,-13,15,3,-18,4,0,-6,-10,-10,-13
-9,-23,-14,16,2,-19,4,0,-6,-10,-10,-13
-10,-24,-14,17,2,-19,4,0,-6,-10,-10,-13
-10,-23,-14,17,2,-19,4,0,-6,-10,-10,-13
-9,-22,-13,15,2,-18,3,0,-6,-10,-10,-13
-8,-21,-14,15,3,-18,3,0,-6,-10,-10,-12
-8,-22,-14,15,3,-18,4,0,-5,-9,-9,-11
-8,-22,-14,15,3,-18,4,0,-5,-8,-9,-11
-8,-21,-14,15,3,-18,5,0,-4,-8,-9,-10
-8,-21,-14,15,3,-18,5,0,-4,-8,-9,-10
-8,-22,-14,15,3,-18,5,0,-4,-8,-9,-11
-9,-23,-13,15,2,-18,5,0,-4,-8,-9,-11
-9,-23,-13,15,2,-18,5,0,-4,-7,-9,-11
-8,-22,-13,15,3,-18,5,1,-4,-7,-9,-11
-8,-21,-13,14,3,-17,5,1,-4,-7,-9,-11
-8,-22,-13,15,2,-18,5,0,-5,-7,-9,-12
-9,-23,-14,16,2,-18,5,0,-5,-7,-9,-12
-9,-23,-14,16,2,-19,5,0,-4,-7,-9,-11
-9,-22,-14,16,2,-19,5,1,-4,-6,-8,-10
-8,-21,-14,15,3,-18,5,1,-4,-6,-7,-10
-8,-20,-13,14,2,-17,5,1,-4,-6,-7,-10
-9,-20,-12,14,1,-17,5,1,-4,-6,-7,-10
-9,-20,-11,15,1,-16,5,1,-4,-6,-7,-10
-8,-20,-12,15,1,-16,5,1,-4,-7,-7,-10
-8,-20,-12,14,2,-16,6,1,-4,-7,-7,-10
-7,-20,-12,14,2,-16,6,1,-3,-7,-7,-10
-7,-21,-12,14,3,-17,6,1,-3,-6,-7,-10
-7,-21,-12,14,3,-17,6,1,-2,-6,-7,-10
-7,-20,-12,14,3,-17,6,1,-2,-6,-7,-10
-7,-20,-12,14,3,-17,6,2,-2,-6,-8,-10
-7,-19,-12,14,3,-16,6,2,-2,-6,-8,-10
-7,-19,-12,13,3,-16,6,2,-2,-6,-8,-10
-6,-18,-11,12,3,-15,6,3,-2,-6,-7,-9
-6,-17,-11,12,3,-14,6,2,-2,-5,-7,-9
-8,-19,-11,13,2,-15,5,1,-2,-5,-7,-9
-9,-20,-11,14,1,-15,4,1,-2,-6,-7,-9
-9,-20,-11,15,1,-16,4,1,-2,-6,-8,-9
-9,-20,-11,15,1,-16,5,1,-2,-6,-8,-9
-9,-20,-11,15,1,-15,5,1,-2,-6,-7,-9
-9,-20,-11,15,1,-15,5,1,-1,-5,-7,-9
-9,-20,-11,15,1,-16,5,1,-1,-4,-6,-9
-9,-20,-11,15,1,-16,6,1,-1,-5,-6,-9
-9,-20,-11,15,1,-16,6,1,-1,-5,-6,-9
-9,-20,-10,15,1,-16,6,1,-1,-5,-6,-9
-10,-21,-11,15,1,-16,6,2,0,-5,-6,-8
-10,-22,-12,16,1,-17,6,3,0,-5,-6,-8
-9,-22,-13,16,2,-18,7,4,0,-5,-6,-8
-8,-21,-13,15,2,-17,7,4,0,-5,-6,-8
-6,-20,-14,13,3,-17,8,6,1,-4,-6,-8
-4,-20,-16,12,5,-18,11,10,3,-2,-5,-8
-2,-19,-17,11,7,-18,13,14,6,0,-3,-7
-1,-18,-17,10,8,-18,15,19,11,2,-1,-6
0,-18,-18,9,9,-18,16,26,16,7,1,-4
2,-18,-19,8,10,-19,18,33,22,14,6,-1
7,-15,-21,4,14,-18,18,40,29,22,13,4
15,-8,-23,-3,19,-16,16,45,37,34,25,12
24,0,-23,-12,23,-12,11,46,43,47,39,23
33,11,-21,-22,27,-5,3,41,49,61,56,37
40,25,-15,-32,28,4,-7,32,53,75,74,52
47,39,-8,-42,28,15,-18,22,57,89,92,67
52,52,-1,-51,27,25,-28,13,61,102,108,82
57,63,5,-59,26,33,-36,7,63,114,123,95
60,71,11,-66,25,40,-42,1,64,124,135,106
62,78,16,-70,24,46,-47,-4,62,131,146,115
63,84,21,-74,21,52,-53,-11,57,137,156,124
63,92,30,-77,16,61,-57,-18,54,145,167,133
59,101,43,-79,8,72,-62,-27,52,151,177,142
52,109,57,-80,-2,83,-66,-37,50,155,183,148
44,113,69,-78,-12,91,-68,-45,48,154,183,150
37,112,75,-74,-19,93,-69,-51,44,148,176,146
29,105,76,-67,-23,90,-66,-55,36,133,160,135
21,92,71,-57,-24,81,-59,-56,25,111,136,117
14,78,65,-46,-25,71,-51,-55,14,87,110,97
6,64,59,-35,-27,62,-43,-55,2,63,85,77
-1,51,53,-25,-27,51,-36,-53,-7,41,62,59
-5,38,45,-16,-25,41,-29,-47,-14,25,43,44
-8,29,37,-10,-23,33,-22,-40,-16,15,30,32
-9,22,31,-6,-20,26,-17,-34,-16,9,22,25
-9,16,25,-4,-17,20,-14,-28,-15,6,18,21
-9,12,21,-2,-15,16,-11,-24,-13,5,15,17
-9,9,18,-1,-14,13,-9,-21,-11,4,13,15
-9,6,16,1,-13,11,-9,-19,-9,3,12,13
-10,3,14,3,-12,9,-9,-17,-8,3,11,11
-10,1,13,5,-12,7,-8,-15,-7,3,10,10
-10,0,11,6,-11,5,-7,-13,-6,3,9,8
-10,0,10,6,-10,5,-6,-11,-5,4,9,7
-9,0,9,5,-9,4,-5,-9,-4,5,8,7
-9,0,8,4,-9,4,-5,-8,-3,5,7,7
-10,-1,8,5,-10,4,-4,-8,-2,4,6,6
-12,-2,9,7,-11,3,-3,-8,-2,3,5,6
-12,-3,9,7,-11,3,-2,-8,-1,2,5,6
-12,-3,8,8,-10,2,-2,-7,-1,2,4,5
-12,-4,8,9,-10,2,-2,-7,-1,1,3,4
-12,-5,7,9,-10,1,-1,-6,-1,1,3,4
-12,-4,7,9,-10,1,-1,-6,-1,1,3,4
-12,-4,8,8,-10,1,-1,-5,-1,1,3,3
-12,-3,8,8,-10,1,0,-5,0,2,4,3
-12,-3,8,7,-9,2,0,-5,0,3,4,3
-11,-2,8,7,-9,2,0,-5,0,3,5,3
-10,-2,8,7,-9,2,0,-5,0,3,5,3
-10,-3,8,7,-9,2,0,-5,0,3,5,3
-10,-3,7,7,-9,2,0,-5,0,2,4,3
-10,-2,7,7,-9,2,0,-4,0,1,4,3
-10,-2,8,7,-9,3,0,-4,0,1,4,3
-10,-2,8,6,-9,3,0,-4,0,1,4,3
-10,-2,8,6,-9,2,0,-4,0,2,4,3
-11,-2,8,7,-9,2,-1,-5,0,2,4,3
-12,-3,8,8,-10,2,-1,-5,0,2,3,3
-12,-4,8,8,-10,2,-1,-5,0,2,3,3
-12,-4,8,8,-10,2,-1,-5,0,2,4,3
-12,-2,9,8,-10,3,-1,-5,0,3,4,4
-12,-2,10,8,-10,3,-1,-5,0,3,5,4
-13,-3,9,9,-10,2,-1,-5,0,2,4,4
-13,-4,9,9,-10,2,-1,-5,0,1,4,4
-12,-3,9,8,-10,2,-1,-5,0,1,4,5
-12,-3,9,8,-11,2,0,-5,0,1,3,5
-12,-4,9,8,-11,2,0,-5,0,1,3,4
-12,-4,8,8,-11,2,0,-4,1,2,4,4
-12,-4,8,8,-11,2,0,-4,1,3,4,4
-12,-4,9,8,-11,2,0,-4,1,3,4,4
-12,-4,9,9,-11,2,0,-4,1,3,4,4
-13,-5,9,9,-11,1,0,-5,1,3,4,4
-13,-4,9,9,-11,1,0,-5,1,3,4,4
-12,-4,9,8,-11,2,0,-5,1,4,5,5
-11,-3,9,7,-10,2,-1,-5,2,5,6,6
-11,-2,10,7,-10,3,-1,-5,2,5,6,7
-11,-1,11,6,-10,4,-1,-5,2,4,6,7
-11,0,11,5,-10,5,-1,-4,2,4,6,7
-10,0,11,5,-10,6,-1,-4,2,4,5,7
-10,0,11,5,-10,6,0,-4,3,5,6,7
-10,1,11,4,-10,6,0,-4,3,6,7,7
-9,2,12,3,-10,7,0,-4,3,6,8,7
-9,3,12,3,-11,7,0,-4,3,6,8,7
-10,3,13,3,-11,7,-1,-4,3,6,8,7
-11,2,13,4,-12,7,-1,-5,3,5,7,7
-12,1,13,6,-13,6,-1,-5,3,4,6,6
-13,0,13,7,-13,6,-1,-5,3,4,6,6
-14,-1,13,7,-13,6,-1,-6,3,4,6,6
-14,-1,13,7,-13,6,-1,-6,3,4,6,7
-14,-1,13,7,-13,6,-1,-6,3,5,7,7
-14,0,14,6,-14,7,-2,-6,3,5,7,7
-14,2,15,6,-14,8,-3,-7,3,6,8,7
-13,2,16,6,-14,8,-3,-7,3,6,8,8
-13,3,16,5,-14,8,-3,-7,3,7,9,9
-13,4,17,5,-14,9,-3,-7,3,7,10,9
-13,4,17,5,-15,9,-3,-7,3,7,10,9
-14,3,17,5,-15,9,-3,-7,3,6,9,9
-14,2,16,6,-15,8,-2,-7,3,6,9,10
-13,2,15,5,-14,8,-1,-6,4,7,9,10
-12,2,14,4,-13,7,-1,-6,5,7,9,11
-11,3,14,4,-13,7,-1,-5,5,7,9,11
-11,3,14,4,-12,8,-1,-5,6,8,10,11
-10,4,14,3,-12,8,-1,-5,6,10,12,13
-9,5,15,3,-12,10,-1,-5,7,12,13,14
-9,6,16,2,-13,11,-1,-5,7,12,13,14
-10,6,17,3,-13,11,-1,-5,6,11,13,13
-11,5,17,3,-14,10,-2,-5,6,10,12,13
-11,5,17,3,-14,10,-2,-5,6,11,12,13
-11,5,17,3,-14,10,-2,-5,6,11,13,13
-11,6,18,3,-14,11,-2,-5,7,12,14,13
-11,7,19,3,-15,11,-2,-5,7,13,15,13
-11,8,19,2,-15,12,-3,-5,7,13,15,14
-11,8,20,2,-16,13,-3,-6,7,13,15,14
-12,8,20,2,-16,14,-3,-6,7,13,15,15
-12,9,21,1,-17,14,-3,-5,8,13,15,16
-11,10,22,0,-17,15,-3,-5,8,13,15,16
-10,10,22,0,-16,15,-2,-5,8,13,15,16
-9,11,21,0,-16,16,-2,-4,9,13,15,16
-9,11,21,0,-15,16,-1,-4,9,13,15,16
-10,10,21,0,-16,16,-2,-4,9,13,15,16
-11,10,21,0,-16,16,-2,-4,9,13,16,17
-10,12,22,0,-16,17,-2,-4,9,15,18,18
-10,14,23,-2,-17,19,-2,-4,10,17,20,20
-11,14,25,-2,-18,19,-3,-5,10,17,20,20
-12,14,26,-1,-19,19,-4,-5,10,17,20,21
-12,13,26,0,-20,19,-4,-5,10,17,20,21
-12,13,26,0,-20,19,-5,-5,10,17,20,21
-12,13,26,0,-19,19,-5,-5,10,17,21,21
-12,14,26,0,-19,20,-5,-5,11,18,21,21
-12,15,27,-1,-20,21,-5,-5,11,18,21,21
-12,15,27,-1,-20,21,-5,-5,11,18,21,22
-12,15,27,-1,-19,21,-5,-5,12,19,22,23
-11,16,27,-1,-19,21,-5,-4,13,21,24,24
-11,18,29,-2,-20,23,-6,-5,13,21,25,25
-11,19,31,-3,-21,24,-6,-5,13,22,25,25
-10,19,30,-4,-20,24,-6,-5,13,22,26,26
-10,21,31,-5,-20,25,-6,-4,14,23,26,27
-9,23,32,-6,-21,27,-6,-4,14,23,27,27
-9,24,33,-7,-21,28,-6,-4,14,23,28,28
-10,24,34,-7,-21,28,-6,-5,14,24,29,28
-10,25,35,-7,-22,29,-7,-5,15,25,29,29
-9,26,36,-7,-23,30,-7,-5,15,25,29,30
-9,27,37,-8,-23,31,-7,-5,16,25,29,31
-10,27,37,-8,-23,31,-7,-4,16,25,29,31
-10,27,37,-8,-23,31,-7,-4,16,24,29,31
-9,27,36,-8,-23,31,-7,-4,16,24,30,31
-9,27,36,-9,-22,31,-7,-4,16,25,31,32
-8,28,36,-9,-22,32,-7,-4,16,25,31,33
-8,29,37,-10,-22,32,-7,-4,16,26,32,34
-7,29,37,-10,-22,32,-7,-4,16,27,33,35
-8,29,38,-10,-22,33,-7,-4,17,28,34,35
-8,30,38,-10,-23,34,-8,-4,17,28,35,36
-8,31,39,-11,-23,35,-8,-4,17,28,36,36
-7,32,39,-12,-23,35,-8,-4,17,29,36,37
-7,32,38,-12,-22,35,-8,-4,17,30,37,37
-7,32,38,-12,-22,35,-8,-4,17,30,38,37
-7,31,39,-12,-23,35,-8,-4,17,30,38,37
-7,31,39,-12,-22,34,-8,-4,17,30,38,37
-6,32,38,-13,-21,34,-8,-3,18,31,38,37
-5,32,37,-13,-21,34,-7,-3,18,31,38,38
-4,32,37,-14,-20,34,-7,-2,19,31,38,38
-4,32,36,-14,-20,34,-7,-2,19,31,38,38
-3,32,36,-14,-19,33,-7,-2,19,31,37,38
-3,33,36,-14,-19,33,-7,-2,19,31,37,38
-2,33,35,-15,-18,33,-7,-1,19,30,37,38
-3,31,34,-14,-18,32,-7,-1,18,30,37,37
-3,30,34,-13,-18,30,-7,-1,18,30,37,37
-4,28,33,-11,-18,29,-7,-1,18,30,36,36
-4,26,32,-10,-18,28,-7,-1,18,29,35,36
-4,25,31,-9,-17,27,-7,-1,18,28,33,34
-4,24,29,-9,-17,26,-7,0,17,27,32,34
-3,24,28,-10,-16,25,-6,0,17,27,32,33
-3,23,26,-10,-15,24,-6,0,17,27,32,33
-3,22,25,-9,-14,23,-6,1,17,26,32,33
-3,20,24,-9,-13,21,-6,1,18,26,32,32
-2,19,22,-8,-11,20,-6,2,18,26,32,32
-1,18,21,-8,-10,18,-5,3,19,27,32,32
0,18,19,-8,-9,18,-4,4,19,27,32,32
0,17,18,-8,-8,17,-4,4,19,27,32,31
1,16,16,-8,-7,16,-3,5,19,27,32,31
1,16,15,-8,-6,15,-3,5,19,27,31,30
1,15,14,-8,-6,14,-3,5,18,26,31,29
1,13,13,-8,-6,13,-2,6,18,26,30,29
1,12,11,-7,-5,11,-1,6,18,26,30,28
1,11,10,-6,-4,10,-1,7,18,26,29,27
0,9,9,-5,-4,8,0,7,18,25,28,26
0,8,9,-3,-4,7,0,7,18,25,26,24
-1,6,8,-2,-4,6,0,7,18,24,25,23
-1,4,7,-1,-4,4,0,7,18,23,24,22
-1,2,5,0,-4,3,0,7,18,23,23,21
-1,1,4,0,-3,2,0,7,17,23,23,20
-1,0,4,0,-3,1,1,7,17,23,22,20
-1,0,3,1,-2,0,2,8,18,23,22,19
-1,0,3,1,-2,0,3,8,18,22,21,18
-1,0,2,1,-2,0,3,8,18,21,20,18
-1,-1,1,1,-1,0,3,8,18,22,20,17
-2,-2,0,2,-1,-2,3,8,18,22,19,17
-2,-3,0,3,-1,-2,4,8,18,23,19,17
-2,-3,0,3,-1,-3,4,8,18,23,19,16
-1,-3,0,2,-1,-3,5,8,18,23,19,16
-1,-2,0,2,-1,-2,5,8,18,23,19,16
-2,-3,0,3,-1,-3,5,8,18,23,19,15
-3,-5,0,5,-1,-4,5,7,18,22,19,14
-5,-6,0,6,-2,-4,5,7,18,21,18,14
-5,-6,0,6,-2,-4,5,6,18,21,17,13
-5,-6,0,6,-2,-4,5,6,18,20,16,13
-4,-6,-1,5,-2,-4,5,6,18,20,16,13
-4,-5,-1,5,-2,-4,5,6,18,20,16,13
-4,-5,0,5,-2,-4,5,6,18,20,16,13
-3,-5,0,5,-1,-3,6,7,18,21,16,13
-3,-4,0,4,-1,-3,6,7,19,21,16,13
-2,-3,0,3,0,-2,6,7,19,20,16,13
-2,-3,0,3,-1,-2,6,7,18,20,16,13
-3,-3,0,4,-2,-2,6,6,18,20,16,13
-4,-3,1,4,-3,-1,5,6,18,20,16,13
-5,-3,2,4,-4,-1,5,5,18,20,16,13
-7,-6,2,7,-5,-2,4,4,17,20,15,12
-9,-9,2,10,-5,-4,4,4,16,19,14,11
-11,-11,1,11,-6,-5,4,3,16,18,13,10
-11,-10,2,11,-6,-4,4,3,16,18,12,10
-11,-9,2,10,-6,-4,4,3,16,18,12,9
-11,-9,2,10,-6,-4,4,3,16,18,12,9
-11,-9,2,10,-6,-4,4,3,16,18,12,9
-10,-9,2,10,-6,-4,4,3,16,18,12,9
-10,-8,2,10,-6,-4,4,3,16,18,12,10
-9,-8,2,10,-6,-4,4,4,16,18,12,10
-9,-8,2,10,-6,-4,5,4,16,18,12,10
-9,-8,2,10,-6,-4,5,4,16,18,12,10
-9,-8,2,9,-6,-4,5,4,16,18,12,10
-8,-7,2,9,-5,-4,5,4,16,18,12,10
-8,-6,2,8,-5,-3,5,5,16,17,12,10
-7,-6,2,8,-5,-3,5,5,16,17,12,10
-7,-6,2,8,-5,-3,5,6,17,18,12,10
-7,-6,2,7,-5,-3,5,6,17,19,12,10
-7,-4,3,6,-5,-1,4,6,16,19,12,9
-7,-3,4,5,-6,0,4,6,16,18,12,9
-7,-4,3,5,-6,-1,5,6,16,18,12,9
-6,-4,2,5,-5,-1,5,6,16,18,12,9
-6,-5,2,5,-5,-2,5,6,16,17,12,9
-7,-5,2,6,-5,-2,5,6,16,17,12,9
-7,-4,3,6,-6,-1,5,6,16,17,12,9
-7,-5,2,6,-5,-2,5,6,16,17,12,9
-7,-6,1,7,-5,-3,5,6,16,17,12,9
-7,-7,1,8,-4,-3,5,6,16,18,13,9
-7,-7,1,7,-4,-3,5,6,16,18,13,9
-5,-6,1,6,-4,-3,5,6,16,18,13,10
-4,-5,0,6,-3,-3,6,7,17,19,14,10
-5,-6,0,6,-3,-3,6,7,17,19,14,10
-5,-6,0,7,-3,-3,6,7,17,18,13,10
-5,-6,0,6,-3,-3,6,7,17,18,13,10
-6,-5,0,6,-3,-3,6,6,16,18,13,10
-6,-6,1,6,-4,-3,6,6,16,18,12,9
-7,-6,1,7,-4,-3,5,6,15,17,11,8
-7,-7,0,7,-4,-4,5,6,15,16,10,8
-6,-8,0,7,-3,-4,5,6,15,15,10,8
-6,-8,0,7,-4,-4,5,6,15,15,10,8
-6,-8,-1,7,-4,-5,6,6,15,16,10,8
-6,-8,-1,7,-3,-5,6,6,15,16,10,8
-5,-8,-2,7,-3,-6,6,6,15,17,10,8
-6,-11,-3,8,-2,-8,6,6,15,17,11,8
-7,-13,-3,10,-2,-9,6,6,15,16,10,8
-7,-13,-3,10,-2,-9,6,6,15,16,10,7
-7,-12,-3,10,-2,-8,6,6,15,15,10,7
-7,-12,-3,10,-2,-8,6,6,15,15,10,7
-7,-12,-3,10,-2,-8,6,6,15,15,10,7
-7,-11,-3,9,-3,-7,6,6,15,15,9,7
-6,-9,-3,8,-3,-7,6,6,15,14,9,7
-6,-9,-3,7,-2,-7,6,6,15,14,9,7
-6,-10,-3,7,-2,-7,6,6,15,14,8,7
-5,-9,-3,7,-1,-7,6,6,15,14,9,7
-5,-9,-3,7,-1,-7,5,6,15,15,9,8
-5,-9,-3,7,-1,-7,5,6,15,15,10,8
-5,-9,-3,7,-1,-7,5,6,14,14,9,7
-6,-10,-3,8,-2,-8,5,6,13,13,8,7
-7,-11,-3,9,-2,-8,5,5,13,13,8,6
-7,-11,-3,9,-2,-8,5,5,13,12,7,6
-7,-11,-3,9,-2,-8,5,5,13,12,7,5
-7,-12,-3,9,-2,-8,5,5,13,12,7,5
-7,-12,-4,10,-2,-9,5,5,13,12,7,5
-7,-12,-4,10,-2,-9,5,5,13,11,7,4
-7,-13,-5,10,-2,-10,5,5,13,11,6,4
-7,-13,-5,10,-2,-10,5,5,12,11,6,4
-7,-13,-5,10,-1,-10,5,5,12,11,6,4
-6,-13,-5,9,-1,-10,5,5,12,12,6,5
-5,-12,-5,8,0,-9,5,5,12,13,7,5
-5,-12,-5,8,0,-9,5,5,12,13,7,5
-6,-12,-5,8,-1,-9,4,4,11,12,7,5
-6,-12,-5,9,-1,-10,4,4,11,11,6,5
-6,-12,-5,9,0,-10,4,4,11,11,6,5
-6,-12,-5,9,0,-10,5,4,11,10,6,5
-6,-12,-5,9,-1,-10,5,3,11,10,6,5
-6,-12,-5,9,-1,-10,5,3,11,10,6,5
-5,-11,-5,8,0,-9,5,3,11,10,6,5
-4,-11,-5,8,0,-9,4,3,11,10,6,5
-5,-11,-5,8,0,-9,4,3,10,9,5,4
-5,-10,-5,8,-1,-9,4,3,10,9,5,4
-5,-10,-4,8,-1,-8,4,3,10,9,6,5
-5,-11,-5,8,-1,-9,4,3,10,9,5,5
-6,-12,-5,9,-1,-9,4,3,10,8,5,4
-6,-12,-5,9,-1,-9,4,3,10,8,4,4
-6,-12,-5,9,-1,-9,4,3,9,8,4,4
-6,-12,-5,9,-1,-9,4,3,9,8,5,4
-6,-12,-5,8,0,-9,4,3,9,8,5,4
-6,-12,-5,8,0,-10,5,3,9,7,5,4
-6,-12,-5,9,-1,-10,5,3,9,7,5,4
-7,-12,-5,9,-1,-10,5,3,9,8,5,4
-6,-11,-5,9,0,-9,5,3,9,8,5,4
-6,-11,-5,8,0,-9,5,3,9,9,5,4
-6,-12,-5,9,-1,-10,4,2,9,9,5,4
-7,-13,-4,10,-1,-10,4,2,8,8,5,4
-7,-14,-4,10,-1,-10,3,2,8,7,5,4
-7,-13,-4,10,-1,-10,3,2,8,7,5,4
-7,-13,-5,10,-1,-9,3,2,8,6,5,3
-7,-13,-5,10,-1,-10,3,2,8,6,5,3
-7,-13,-6,10,-1,-10,3,2,8,6,4,3
-7,-13,-6,10,-1,-10,4,2,8,6,4,3
-7,-13,-5,9,-1,-10,4,2,7,6,4,3
-7,-13,-5,9,-1,-10,4,2,7,6,3,3
-7,-13,-5,9,-1,-9,4,2,7,6,3,3
-7,-12,-5,9,-1,-9,4,2,7,6,3,3
-6,-12,-5,8,0,-9,5,3,8,6,3,3
-5,-11,-5,8,0,-9,5,3,8,7,4,4
-5,-10,-5,8,0,-9,5,3,8,6,4,4
-5,-11,-5,8,0,-9,5,3,8,6,3,3
-6,-12,-5,9,0,-9,5,3,8,6,3,3
-6,-13,-5,9,0,-10,5,3,8,6,3,3
-6,-13,-5,9,0,-10,4,2,7,5,3,2
-6,-13,-6,9,0,-10,4,2,7,6,3,2
-6,-13,-6,9,0,-10,4,2,8,6,3,3
-5,-12,-6,9,0,-10,4,2,8,7,4,3
-5,-11,-6,8,0,-9,4,2,8,7,4,3
-4,-10,-6,7,0,-9,5,3,8,7,4,3
-4,-10,-6,7,1,-8,5,3,8,7,4,3
-4,-10,-6,6,1,-8,5,3,8,7,4,3
-3,-9,-6,6,1,-8,5,3,8,7,4,3
-2,-9,-5,6,1,-8,5,3,8,7,4,3
-3,-9,-5,6,0,-9,5,3,8,6,4,3
-4,-10,-5,7,0,-9,5,2,8,6,4,3
-5,-11,-5,8,0,-9,5,2,8,6,4,2
-5,-10,-5,8,0,-8,5,2,8,6,4,3
-5,-10,-5,8,0,-8,5,2,9,7,4,3
-5,-10,-4,8,0,-8,5,3,10,8,5,4
-5,-10,-4,8,-1,-8,6,3,10,9,5,5
-5,-9,-3,7,-1,-8,6,3,10,9,5,5
-4,-9,-3,7,-1,-8,6,4,10,8,5,5
-4,-9,-4,6,0,-8,6,4,10,8,5,5
-4,-9,-4,6,0,-8,6,5,10,9,5,5
-3,-9,-5,6,0,-8,6,5,11,9,5,5
-2,-8,-5,5,1,-7,5,5,10,9,5,5
-1,-7,-6,4,2,-7,5,5,10,9,5,5
-1,-7,-6,4,3,-7,4,4,10,8,5,5
0,-7,-6,4,3,-7,3,4,10,8,5,5
0,-7,-6,4,3,-8,2,3,9,8,5,5
0,-7,-6,4,3,-8,1,2,9,7,5,5
0,-7,-6,4,3,-7,1,1,8,6,5,5
0,-6,-5,3,3,-7,1,1,7,5,4,5
0,-6,-6,3,3,-7,1,1,7,5,3,5
0,-6,-6,3,3,-7,1,1,7,5,3,5
-1,-6,-6,3,2,-7,1,1,7,5,3,4
0,-6,-6,3,2,-7,2,1,7,5,3,4
0,-6,-5,3,2,-6,2,2,8,6,4,5
0,-6,-5,3,2,-6,2,2,8,7,4,5
0,-6,-5,4,2,-6,2,2,8,7,4,5
-1,-6,-5,4,2,-6,2,2,7,6,4,5
-1,-6,-5,4,1,-6,2,1,7,6,4,5
-1,-7,-5,4,1,-6,1,1,6,6,4,4
-3,-8,-5,6,1,-7,1,0,6,5,3,4
-4,-9,-5,6,0,-7,1,0,6,4,3,3
-4,-9,-4,6,0,-7,1,0,6,4,3,3
-4,-9,-4,6,0,-7,2,0,6,4,3,3
-4,-9,-4,6,0,-7,2,0,6,5,4,3
-4,-9,-4,6,0,-7,2,1,6,6,4,3
-4,-7,-4,5,0,-6,2,0,6,5,4,3
-4,-6,-3,5,-1,-5,2,0,5,4,2,2
-4,-7,-3,5,0,-6,3,1,5,3,1,2
-3,-8,-4,6,0,-7,4,2,5,2,1,2
-4,-10,-5,7,1,-8,4,2,5,2,0,1
-5,-12,-5,8,0,-9,4,1,5,1,0,0
-7,-13,-5,10,-1,-10,3,0,4,0,-1,0
-8,-15,-6,11,-1,-11,3,0,3,0,-1,-1
-8,-16,-7,12,-1,-12,3,0,3,0,-1,-1
-8,-15,-8,12,-1,-12,3,0,3,0,-1,-1
-8,-15,-7,11,-1,-12,3,0,3,0,-1,0
-8,-14,-7,11,-1,-12,3,0,3,0,-1,0
-7,-14,-6,10,-1,-11,3,0,3,0,-1,0
-6,-14,-6,10,-1,-11,4,0,3,0,-1,0
-6,-13,-6,9,0,-10,4,0,3,0,-1,0
-5,-12,-6,8,0,-10,4,0,3,0,-1,0
-6,-13,-6,9,0,-11,4,0,3,0,-1,-1
-7,-14,-7,10,0,-11,4,0,3,0,-1,-1
-7,-14,-7,10,0,-11,4,0,3,0,-1,-1
-7,-13,-6,10,-1,-10,4,0,2,0,-1,-1
-7,-14,-7,10,0,-10,4,0,2,0,-1,-1
-6,-14,-8,10,0,-11,4,0,3,0,-1,-1
-6,-13,-7,10,1,-11,4,0,3,0,-2,-1
-5,-12,-7,8,1,-10,4,0,2,-1,-2,-1
-4,-12,-7,8,1,-10,4,1,2,-1,-2,-1
-5,-12,-7,8,0,-10,4,1,2,-1,-2,-1
-5,-11,-6,8,0,-10,4,1,2,-1,-2,-1
-5,-11,-5,8,0,-9,5,1,2,0,-2,-1
-4,-11,-6,7,0,-9,5,1,2,0,-1,0
-4,-11,-6,7,1,-9,5,1,3,1,-1,0
-6,-12,-6,9,0,-10,5,1,3,0,-2,-1
-8,-14,-6,10,-1,-10,4,1,2,0,-2,-2
-8,-14,-6,10,-1,-11,3,0,2,-1,-3,-2
-7,-14,-6,10,-1,-11,3,1,2,-1,-4,-2
-7,-13,-6,9,0,-11,4,1,2,-1,-4,-2
-7,-13,-6,9,0,-10,4,1,2,-1,-4,-2
-7,-14,-6,10,0,-10,4,1,2,-1,-4,-2
-8,-14,-6,11,0,-11,4,1,1,-1,-4,-2
-8,-14,-6,11,-1,-11,4,1,1,-1,-3,-2
-7,-14,-6,10,-1,-11,4,1,1,-1,-3,-2
-6,-13,-7,9,0,-11,4,1,1,-1,-3,-2
-6,-13,-7,9,0,-11,4,0,1,-1,-3,-2
-6,-13,-6,9,-1,-11,4,0,1,0,-3,-2
-6,-13,-6,9,0,-11,4,1,2,0,-2,-2
-6,-13,-6,9,0,-11,4,1,2,-1,-2,-2
-5,-13,-6,9,1,-10,5,1,2,-1,-3,-2
-5,-12,-6,9,1,-10,5,1,2,-2,-3,-2
-5,-11,-6,8,1,-9,5,2,2,-2,-4,-2
-4,-11,-6,8,1,-9,5,2,2,-2,-4,-2
-4,-11,-7,7,1,-9,5,2,2,-2,-4,-2
-3,-11,-7,7,1,-9,5,2,2,-2,-4,-2
-4,-12,-8,8,1,-10,5,2,2,-2,-4,-2
-6,-13,-7,9,0,-10,5,2,1,-3,-5,-3
-7,-14,-7,10,0,-11,5,2,1,-3,-5,-3
-7,-14,-7,10,0,-11,5,2,1,-3,-5,-3
-6,-14,-7,9,0,-11,5,2,1,-3,-5,-3
-5,-14,-7,9,1,-11,5,2,1,-3,-5,-3
-6,-14,-7,9,0,-11,5,2,1,-3,-5,-3
-6,-14,-7,10,0,-11,5,2,1,-3,-6,-4
-6,-15,-7,10,0,-11,5,2,1,-3,-6,-4
-6,-15,-7,10,0,-11,5,2,1,-3,-6,-4
-6,-15,-8,10,0,-11,5,2,1,-3,-6,-4
-5,-15,-9,10,1,-12,6,3,1,-4,-6,-4
-4,-15,-10,10,2,-13,6,5,1,-4,-6,-4
-4,-15,-11,10,3,-13,7,7,2,-3,-6,-4
-2,-15,-12,8,4,-13,9,11,5,-1,-5,-4
0,-13,-12,6,5,-13,11,17,9,3,-3,-2
2,-12,-13,4,7,-12,14,23,15,8,1,0
6,-10,-15,1,10,-12,15,30,22,15,6,3
11,-7,-17,-3,13,-11,16,37,29,23,14,9
18,-1,-18,-8,18,-10,14,41,37,34,25,17
25,7,-18,-16,22,-6,9,42,43,45,38,27
33,17,-16,-25,24,0,0,37,48,57,53,40
39,28,-11,-34,25,9,-10,28,51,71,69,54
45,41,-4,-43,24,19,-20,18,54,85,87,69
50,54,3,-53,23,29,-30,9,57,100,105,84
56,66,9,-61,23,38,-38,2,60,114,123,98
60,75,15,-67,22,45,-43,-2,61,126,137,109
63,83,20,-73,22,51,-48,-8,59,133,149,119
66,90,25,-78,20,57,-53,-14,55,138,158,128
66,98,32,-82,17,65,-58,-20,51,143,168,137
63,106,43,-84,9,74,-63,-28,49,149,176,145
57,114,57,-85,0,85,-66,-37,48,154,183,152
50,119,70,-84,-10,94,-68,-45,46,156,185,155
43,121,77,-82,-17,99,-69,-51,43,152,180,152
36,116,80,-76,-22,98,-66,-55,37,140,166,143
28,104,76,-66,-24,90,-60,-56,27,120,144,126
20,89,69,-54,-25,78,-53,-56,16,95,118,105
11,73,62,-42,-25,67,-46,-54,4,69,91,85
4,59,55,-31,-26,56,-39,-52,-6,45,66,66
-2,46,48,-22,-25,46,-31,-47,-14,26,45,49
-6,35,41,-15,-23,37,-25,-42,-18,13,30,36
-7,27,34,-10,-21,30,-20,-36,-19,6,20,27
-7,22,29,-8,-18,25,-17,-30,-18,3,15,21
-7,18,25,-6,-16,21,-14,-26,-16,1,12,18
-7,15,21,-4,-14,17,-13,-22,-13,1,10,15
-7,13,19,-3,-12,15,-13,-20,-11,0,9,13
-7,10,17,-2,-11,13,-11,-17,-9,0,7,12
-6,8,14,-1,-10,11,-9,-15,-7,0,6,10
-4,7,12,-1,-8,9,-7,-12,-6,0,5,9
-4,5,10,0,-8,8,-6,-11,-6,0,4,8
-5,3,9,1,-8,6,-5,-10,-5,0,3,6
-6,2,9,2,-8,5,-4,-9,-5,0,3,5
-7,2,9,2,-8,5,-4,-8,-5,0,2,4
-7,2,9,2,-8,5,-3,-8,-4,0,2,4
-8,1,9,3,-8,5,-3,-8,-4,-1,1,3
-8,1,9,3,-8,5,-3,-7,-4,-1,0,3
-7,2,9,2,-8,6,-2,-6,-3,-1,0,2
-6,2,9,1,-8,6,-2,-5,-3,-1,0,2
-6,2,9,1,-8,5,-2,-5,-3,-2,0,1
-7,2,8,2,-8,5,-2,-5,-3,-2,0,1
-7,1,8,2,-8,4,-2,-5,-3,-3,-1,0
-8,0,8,3,-8,4,-2,-5,-3,-4,-2,0
-8,0,8,3,-8,4,-2,-5,-3,-5,-3,0
-8,0,8,3,-8,3,-2,-5,-3,-5,-3,0
-7,-1,7,3,-8,3,-2,-5,-3,-6,-4,0
-7,-1,7,3,-8,3,-2,-5,-4,-6,-4,0
-8,-2,6,4,-8,2,-2,-5,-4,-6,-4,0
-8,-2,6,4,-8,2,-2,-5,-4,-6,-3,0
-8,-1,6,4,-8,2,-2,-5,-4,-5,-3,0
-8,-1,6,5,-8,2,-2,-5,-4,-5,-3,0
-9,-2,6,5,-8,2,-2,-5,-4,-5,-3,0
-9,-2,7,5,-8,2,-2,-5,-4,-5,-3,0
-9,-1,7,5,-8,3,-2,-5,-4,-6,-3,0
-9,-1,8,5,-8,3,-2,-5,-4,-6,-3,0
-9,-2,8,5,-8,3,-2,-5,-4,-6,-4,0
-9,-1,8,5,-8,3,-2,-5,-4,-6,-4,0
-8,-1,8,4,-8,3,-2,-5,-3,-6,-4,-1
-8,-1,8,4,-8,3,-2,-4,-3,-6,-4,-1
-8,-1,7,4,-8,3,-2,-4,-3,-6,-4,-1
-8,-1,7,4,-8,3,-2,-4,-3,-6,-4,-1
-8,-1,7,4,-8,3,-2,-4,-3,-6,-4,-1
-8,-1,7,4,-8,3,-1,-4,-3,-6,-4,-1
-7,0,7,3,-8,3,-1,-4,-3,-6,-3,0
-6,0,7,2,-7,3,-1,-4,-2,-5,-3,0
-6,1,7,2,-7,4,-1,-4,-2,-5,-3,0
-6,1,7,2,-7,4,-1,-4,-2,-5,-3,0
-6,2,7,2,-7,4,-1,-4,-2,-5,-3,0
-6,2,8,1,-7,5,-2,-4,-3,-6,-3,0
-7,1,8,2,-8,4,-2,-5,-3,-6,-4,-1
-8,0,8,4,-9,3,-3,-5,-3,-6,-4,-1
-9,0,9,4,-9,3,-3,-5,-3,-6,-4,-1
-9,0,9,4,-9,4,-3,-5,-3,-6,-4,-1
-8,0,9,3,-9,4,-3,-5,-3,-6,-3,-1
-7,1,9,3,-8,4,-3,-5,-2,-5,-3,0
-7,1,8,2,-8,4,-3,-5,-2,-5,-2,0
-7,1,8,2,-8,4,-2,-4,-2,-5,-2,0
-6,2,8,1,-8,5,-2,-4,-2,-5,-1,1
-6,2,8,1,-8,5,-2,-4,-2,-5,-1,1
-6,2,8,1,-8,6,-2,-4,-2,-5,-1,1
-7,1,8,3,-8,5,-3,-5,-3,-5,-1,1
-8,0,8,4,-8,4,-3,-5,-3,-5,-1,1
-8,0,7,4,-8,4,-3,-5,-3,-5,-1,1
-8,0,8,3,-9,4,-3,-5,-3,-5,-1,0
-8,1,9,3,-9,5,-3,-6,-3,-5,-2,0
-8,1,9,3,-9,5,-3,-6,-3,-5,-2,0
-8,1,9,3,-9,5,-3,-6,-3,-5,-1,0
-8,1,9,3,-9,6,-3,-6,-3,-5,-1,0
-8,2,10,2,-9,6,-3,-6,-3,-5,-1,0
-8,2,10,2,-9,6,-3,-6,-3,-5,-1,0
-8,2,10,2,-9,6,-3,-6,-3,-5,-1,1
-8,3,10,2,-9,7,-3,-6,-2,-5,-1,1
-7,3,10,1,-9,7,-3,-6,-2,-5,-1,1
-7,4,10,1,-9,7,-3,-6,-2,-5,-1,1
-6,4,11,0,-9,8,-3,-6,-2,-5,-1,1
-6,5,12,0,-10,9,-3,-6,-2,-5,-1,1
-6,6,12,0,-10,10,-3,-6,-1,-4,0,1
-6,6,12,0,-10,10,-2,-6,-1,-4,0,2
-7,6,13,0,-10,10,-2,-6,-1,-4,0,2
-7,6,13,0,-10,10,-2,-6,-1,-3,0,2
-7,7,13,0,-10,10,-2,-6,0,-3,1,3
-7,7,14,0,-10,10,-2,-6,0,-2,1,3
-7,6,14,0,-11,10,-3,-6,0,-2,2,4
-7,6,14,0,-11,10,-3,-6,0,-2,2,4
-7,6,14,0,-10,10,-3,-6,0,-2,2,4
-7,7,14,0,-10,10,-3,-6,0,-2,2,4
-6,7,14,-1,-10,11,-3,-6,0,-1,3,5
-6,8,15,-1,-10,11,-3,-6,0,-1,3,5
-6,8,15,-1,-10,12,-3,-6,0,-1,3,5
-6,9,16,-1,-11,12,-3,-6,0,-2,3,5
-6,9,16,-1,-11,12,-3,-6,0,-2,3,5
-6,9,16,-2,-11,12,-3,-6,0,-1,3,6
-6,10,16,-2,-11,13,-3,-6,1,0,4,6
-6,10,17,-2,-11,13,-3,-5,1,0,4,6
-6,11,17,-2,-11,14,-4,-5,1,0,4,6
-6,11,18,-2,-12,14,-4,-5,1,0,4,6
-6,12,18,-2,-12,15,-4,-5,1,0,5,6
-6,12,19,-3,-12,16,-4,-5,2,0,5,7
-6,13,20,-4,-13,17,-4,-5,2,1,6,8
-5,14,20,-5,-13,18,-4,-5,3,2,7,9
-5,15,21,-5,-13,18,-4,-5,3,3,8,9
-6,16,22,-5,-14,19,-4,-5,3,4,9,10
-6,16,22,-5,-14,19,-5,-5,3,4,9,10
-7,16,23,-5,-15,20,-5,-5,3,4,9,10
-7,16,23,-5,-15,20,-5,-4,4,4,9,11
-6,17,23,-5,-14,20,-5,-4,4,4,10,12
-5,19,24,-7,-14,21,-5,-4,4,5,10,12
-4,20,25,-8,-14,23,-5,-4,5,6,11,13
-4,21,26,-9,-14,24,-5,-4,5,7,12,14
-3,22,26,-10,-14,25,-5,-4,6,8,13,14
-4,23,27,-10,-15,25,-5,-4,6,8,14,15
-5,22,27,-9,-16,25,-6,-4,6,8,14,15
-5,22,28,-9,-16,25,-6,-4,6,8,14,16
-5,23,29,-9,-17,26,-7,-4,6,8,14,16
-5,23,29,-10,-17,27,-7,-4,6,8,14,16
-5,24,30,-10,-17,27,-7,-4,6,8,14,16
-5,25,30,-11,-17,28,-7,-4,6,8,14,17
-4,26,30,-12,-17,28,-7,-4,7,8,15,17
-3,27,30,-12,-17,29,-7,-4,7,9,15,17
-3,28,31,-13,-17,29,-7,-4,8,10,16,18
-3,28,31,-13,-17,30,-7,-4,8,10,16,18
-3,28,32,-13,-18,30,-7,-4,8,11,17,19
-3,29,32,-13,-18,30,-8,-4,8,12,17,20
-3,29,33,-13,-18,31,-8,-4,8,12,17,20
-4,29,33,-13,-19,31,-8,-4,8,12,18,21
-4,29,33,-13,-19,31,-8,-4,9,12,18,21
-3,30,33,-14,-18,31,-8,-4,9,13,19,22
-1,31,33,-15,-17,32,-8,-4,9,14,20,23
0,32,32,-16,-16,32,-8,-4,9,14,20,23
0,32,32,-17,-15,32,-8,-3,9,14,21,24
1,33,32,-17,-15,32,-7,-3,9,14,21,24
1,33,32,-17,-15,32,-7,-2,10,14,22,25
1,32,31,-17,-15,32,-7,-2,10,14,22,25
1,31,31,-16,-15,31,-7,-2,10,14,22,25
1,31,30,-16,-15,31,-7,-2,10,14,22,25
1,31,30,-17,-15,31,-8,-2,10,14,22,25
1,32,30,-17,-15,31,-8,-2,10,14,22,25
1,32,30,-17,-14,31,-8,-2,10,15,22,25
1,32,30,-17,-13,30,-8,-2,10,15,22,25
2,32,30,-18,-13,31,-8,-2,9,14,22,24
2,32,29,-18,-13,31,-7,-1,9,14,21,24
3,32,28,-18,-13,30,-7,-1,9,14,21,24
4,32,27,-18,-12,30,-7,0,9,14,20,24
5,31,26,-18,-11,29,-6,0,9,14,20,24
5,30,25,-18,-10,27,-6,1,9,13,20,24
5,29,24,-17,-9,26,-6,1,9,13,20,23
5,28,23,-17,-8,25,-6,2,9,13,20,22
6,27,21,-17,-7,24,-5,2,9,13,19,22
6,26,20,-17,-6,23,-5,3,9,13,19,21
6,25,18,-16,-5,22,-4,3,9,13,18,21
6,23,17,-15,-5,20,-4,3,9,12,18,20
6,22,15,-14,-5,19,-4,3,9,12,17,19
6,20,14,-13,-4,17,-3,4,9,11,16,18
6,18,12,-13,-3,15,-3,4,8,10,15,17
6,17,11,-12,-2,14,-3,4,8,9,14,16
6,15,9,-11,-1,12,-2,5,8,8,13,14
6,14,8,-10,-1,11,-2,5,8,7,12,13
6,13,6,-10,0,10,-1,6,8,7,12,13
6,12,4,-9,1,8,0,6,8,7,11,12
6,10,2,-9,1,7,0,7,8,7,11,12
7,10,1,-9,2,6,1,8,8,7,10,11
9,9,0,-9,4,5,2,9,8,7,10,11
9,8,-1,-9,5,3,2,9,8,7,9,10
8,6,-2,-7,5,2,2,9,7,6,8,8
8,5,-3,-6,6,1,2,9,7,5,7,7
7,3,-4,-5,6,0,2,9,7,4,6,6
6,2,-4,-4,5,-1,2,9,7,4,6,5
6,2,-4,-4,5,-1,2,8,6,3,5,5
5,1,-5,-3,5,-2,3,8,6,3,4,4
5,0,-5,-3,5,-3,3,8,5,2,3,3
4,-1,-6,-2,5,-4,3,8,5,2,2,3
4,-2,-6,-2,5,-4,3,8,5,2,2,2
4,-2,-6,-1,5,-4,3,7,5,1,1,1
4,-3,-6,-1,5,-5,3,7,5,1,1,0
3,-4,-7,0,5,-5,3,7,5,1,0,0
3,-4,-7,0,4,-5,4,7,5,0,0,0
3,-4,-7,0,4,-5,4,7,5,0,0,0
3,-4,-7,0,4,-5,4,7,5,0,-1,-1
3,-5,-7,0,4,-5,4,7,4,0,-1,-1
2,-5,-7,0,4,-6,4,7,4,-1,-2,-2
2,-5,-7,1,4,-6,4,6,4,-1,-2,-2
2,-5,-7,1,4,-6,4,6,4,-1,-3,-3
2,-5,-7,1,4,-6,4,6,4,-1,-3,-3
2,-5,-7,1,4,-7,4,6,4,-1,-3,-3
1,-5,-7,1,4,-7,4,5,4,-1,-4,-3
1,-5,-6,1,3,-6,4,5,4,-2,-4,-4
1,-5,-6,1,3,-5,4,5,3,-3,-5,-4
2,-5,-6,1,4,-5,5,5,3,-2,-4,-4
2,-4,-6,0,4,-5,5,5,3,-2,-4,-4
3,-4,-6,0,4,-5,5,5,3,-2,-5,-4
3,-2,-6,0,4,-4,5,5,3,-2,-5,-4
3,-3,-6,-1,5,-4,5,5,4,-1,-4,-4
2,-5,-8,0,5,-7,6,6,4,0,-3,-3
1,-6,-8,1,4,-7,6,5,4,0,-3,-3
1,-6,-6,2,3,-6,5,5,3,-1,-4,-4
0,-7,-7,3,3,-7,5,5,3,-1,-4,-4
0,-8,-7,4,3,-7,5,5,3,-1,-4,-4
0,-7,-6,4,2,-6,5,4,3,-2,-5,-4
-1,-7,-6,4,2,-6,4,4,2,-3,-6,-5
-2,-7,-6,4,2,-6,4,4,2,-3,-6,-5
-2,-7,-6,4,2,-6,4,4,2,-3,-6,-5
-2,-7,-6,4,2,-6,4,4,2,-3,-6,-5
-1,-7,-6,3,2,-6,5,4,2,-3,-6,-5
0,-5,-6,2,3,-6,6,5,3,-2,-5,-5
1,-5,-6,2,3,-5,6,5,3,-2,-5,-4
1,-5,-6,2,2,-5,6,5,3,-2,-5,-4
0,-6,-6,3,2,-6,5,5,3,-2,-5,-4
-1,-6,-5,3,2,-6,5,5,3,-3,-5,-4
-1,-6,-5,2,2,-5,5,5,3,-3,-5,-5
-1,-5,-4,2,2,-5,5,5,3,-3,-5,-5
-1,-5,-4,2,2,-5,5,5,3,-3,-5,-5
-1,-6,-5,2,2,-5,5,5,3,-3,-6,-6
-1,-7,-5,3,2,-6,5,5,3,-4,-7,-6
-1,-7,-6,3,2,-7,5,5,3,-5,-7,-7
-1,-8,-7,4,2,-7,5,5,3,-5,-8,-7
-1,-8,-7,4,2,-7,5,5,3,-4,-8,-7
-1,-8,-7,4,2,-7,5,5,3,-4,-8,-7
-1,-8,-7,4,2,-7,5,5,3,-4,-8,-7
-1,-7,-7,3,2,-7,5,5,3,-4,-8,-7
-1,-7,-7,3,2,-7,5,5,3,-4,-7,-7
-1,-7,-7,4,2,-7,6,5,3,-4,-7,-7
-1,-7,-7,4,2,-7,6,6,3,-4,-6,-6
0,-7,-7,3,2,-6,6,6,3,-3,-6,-6
0,-6,-7,3,2,-6,6,6,3,-3,-5,-6
0,-7,-7,3,2,-6,6,6,3,-3,-5,-6
0,-7,-7,3,2,-7,6,6,3,-3,-6,-6
0,-7,-7,3,2,-7,6,6,3,-3,-6,-6
-1,-8,-7,3,2,-7,6,6,2,-4,-7,-7
-1,-8,-6,4,1,-7,6,6,2,-5,-8,-7
-1,-8,-6,4,1,-7,6,6,2,-5,-8,-8
-1,-8,-7,4,2,-7,6,6,2,-5,-8,-8
-1,-8,-7,4,2,-8,6,6,2,-5,-8,-8
-1,-8,-8,4,3,-8,6,6,2,-5,-8,-8
0,-8,-8,4,3,-8,6,6,2,-5,-8,-8
0,-8,-9,4,3,-9,6,6,2,-5,-8,-8
0,-8,-8,3,3,-8,6,6,2,-5,-8,-8
0,-8,-8,3,3,-8,6,6,2,-5,-8,-8
0,-8,-9,4,3,-9,6,7,2,-5,-7,-8
0,-9,-9,4,4,-9,6,7,2,-5,-7,-8
0,-8,-9,3,4,-9,6,7,2,-5,-7,-8
1,-8,-9,3,4,-9,6,6,2,-6,-7,-8
1,-8,-9,3,5,-9,6,6,1,-6,-8,-8
1,-8,-10,3,5,-9,6,6,1,-6,-8,-8
1,-9,-10,3,5,-10,6,6,1,-6,-8,-8
1,-9,-10,3,5,-10,6,7,1,-6,-8,-8
1,-9,-10,3,5,-9,6,7,1,-6,-8,-8
1,-9,-10,3,5,-9,6,7,1,-6,-9,-9
0,-9,-10,3,5,-10,6,7,0,-7,-9,-9
1,-9,-10,3,5,-10,6,6,0,-7,-9,-9
2,-8,-10,3,5,-9,6,6,0,-7,-9,-9
2,-8,-10,3,5,-9,6,6,0,-7,-9,-9
1,-9,-10,3,5,-10,6,6,0,-7,-9,-9
1,-10,-11,4,5,-10,6,5,0,-7,-9,-9
0,-10,-11,4,4,-11,6,5,0,-7,-9,-9
0,-10,-10,5,4,-11,6,4,-1,-7,-9,-10
0,-10,-10,5,4,-11,5,4,-1,-8,-10,-10
0,-10,-11,5,5,-11,5,5,-1,-8,-10,-10
1,-10,-11,5,5,-11,5,5,-1,-8,-10,-10
1,-10,-11,5,5,-11,5,4,-1,-8,-10,-10
0,-11,-11,5,5,-11,5,4,-1,-9,-11,-11
0,-11,-11,5,5,-11,5,4,-1,-9,-11,-11
0,-11,-11,5,5,-11,5,4,-1,-8,-11,-11
0,-10,-11,5,5,-10,5,4,-1,-9,-11,-11
0,-9,-10,4,5,-10,5,4,-2,-9,-12,-11
0,-10,-11,5,5,-10,5,4,-2,-9,-12,-11
-1,-11,-11,6,5,-11,5,4,-2,-9,-12,-11
-1,-12,-12,6,5,-12,4,4,-2,-9,-12,-11
-1,-12,-12,6,5,-12,4,4,-2,-9,-12,-11
-1,-13,-13,7,5,-13,5,4,-2,-9,-12,-11
-2,-14,-13,7,4,-13,5,3,-2,-10,-12,-11
-2,-13,-12,7,4,-12,5,3,-2,-10,-12,-11
-1,-13,-12,7,5,-12,5,4,-2,-10,-12,-11
-1,-13,-13,7,5,-12,5,4,-2,-10,-12,-11
-1,-13,-13,7,5,-12,5,4,-2,-10,-12,-11
-1,-13,-12,7,5,-12,5,3,-2,-10,-12,-11
-1,-12,-11,6,4,-11,5,3,-2,-10,-13,-11
-1,-11,-11,6,4,-11,5,3,-2,-10,-13,-11
0,-11,-11,5,4,-11,5,3,-2,-10,-13,-11
0,-10,-10,5,4,-10,5,3,-3,-10,-13,-11
0,-10,-10,5,4,-10,5,3,-3,-10,-13,-11
0,-10,-10,5,4,-10,5,3,-3,-10,-13,-11
0,-10,-10,5,4,-10,5,3,-3,-10,-13,-11
0,-10,-10,5,4,-10,5,3,-3,-10,-13,-11
0,-10,-10,4,4,-10,5,3,-3,-10,-13,-11
0,-10,-10,4,4,-10,5,3,-3,-10,-13,-11
0,-10,-10,4,4,-10,5,3,-3,-10,-13,-11
0,-10,-11,4,4,-10,5,3,-3,-10,-13,-11
0,-10,-11,4,5,-10,5,3,-3,-10,-13,-11
0,-10,-11,4,5,-10,5,2,-3,-10,-13,-11
0,-9,-11,4,5,-10,5,2,-3,-10,-13,-11
0,-9,-10,5,4,-10,4,2,-3,-10,-13,-11
0,-10,-10,5,4,-10,4,2,-3,-10,-13,-11
0,-10,-10,5,4,-10,4,2,-4,-10,-13,-11
-1,-10,-9,5,3,-10,4,1,-4,-10,-13,-11
-1,-10,-9,5,3,-10,4,1,-4,-10,-14,-11
-1,-10,-10,5,3,-10,4,1,-4,-10,-14,-11
-1,-10,-10,5,3,-10,4,1,-4,-10,-14,-11
-1,-10,-10,5,3,-10,4,1,-4,-10,-14,-11
0,-10,-10,5,4,-10,4,1,-4,-10,-14,-11
0,-10,-10,5,4,-10,5,1,-4,-10,-14,-11
0,-10,-10,5,4,-10,5,1,-4,-10,-14,-11
0,-10,-10,5,4,-10,5,1,-4,-10,-14,-11
-1,-10,-10,5,4,-10,5,1,-4,-10,-14,-11
0,-10,-10,5,4,-10,5,1,-4,-10,-14,-11
0,-10,-10,5,4,-10,5,1,-4,-11,-15,-12
0,-10,-10,6,4,-10,5,1,-4,-11,-15,-12
0,-10,-10,6,4,-10,5,1,-4,-11,-15,-12
0,-11,-10,6,4,-10,5,1,-4,-11,-15,-12
0,-10,-10,6,4,-10,5,1,-4,-11,-15,-12
1,-9,-10,4,5,-9,5,2,-4,-11,-14,-12
2,-8,-10,4,5,-9,6,3,-3,-10,-14,-11
2,-8,-10,4,5,-9,6,2,-3,-10,-14,-11
2,-8,-10,4,5,-9,6,2,-3,-10,-14,-11
2,-8,-10,4,5,-9,6,2,-3,-10,-14,-11
1,-9,-11,4,5,-9,6,2,-3,-10,-14,-11
1,-9,-11,5,5,-9,6,2,-3,-10,-14,-12
1,-9,-10,4,4,-9,6,2,-4,-11,-14,-12
1,-9,-10,4,4,-9,6,2,-4,-11,-14,-12
1,-9,-11,4,5,-9,6,2,-4,-11,-14,-12
0,-10,-11,5,5,-10,5,2,-4,-11,-14,-12
0,-11,-11,6,4,-10,5,1,-4,-11,-15,-13
-1,-12,-10,7,3,-11,4,1,-5,-12,-15,-13
-2,-12,-10,7,3,-11,4,0,-5,-12,-15,-13
-3,-13,-10,8,2,-11,4,0,-5,-11,-15,-13
-3,-13,-10,8,2,-12,4,0,-5,-11,-15,-13
-3,-13,-10,8,2,-12,4,0,-5,-11,-15,-13
-2,-13,-10,8,3,-12,5,1,-5,-12,-16,-13
-2,-12,-10,7,3,-11,5,1,-5,-12,-16,-13
-1,-11,-11,7,4,-11,5,1,-5,-12,-17,-13
-1,-12,-12,7,5,-12,5,2,-4,-11,-16,-13
0,-12,-13,7,5,-12,6,2,-4,-10,-15,-12
0,-11,-12,6,5,-11,6,3,-3,-10,-15,-12
0,-9,-11,5,5,-10,6,3,-2,-9,-14,-12
1,-8,-10,4,5,-9,7,4,-2,-9,-14,-12
2,-7,-10,3,5,-8,8,5,-1,-8,-13,-11
3,-7,-10,2,5,-8,9,5,0,-7,-12,-10
3,-6,-9,2,5,-8,9,6,0,-6,-11,-9
3,-6,-9,2,5,-8,10,6,1,-6,-11,-8
3,-7,-10,2,5,-9,10,7,1,-5,-10,-7
2,-8,-11,3,5,-10,9,7,1,-5,-10,-7
2,-9,-12,4,6,-10,9,7,1,-5,-10,-7
3,-9,-13,3,7,-11,8,7,2,-4,-9,-7
4,-9,-13,3,7,-11,7,6,2,-4,-9,-7
4,-10,-14,3,8,-12,6,6,1,-4,-9,-7
4,-11,-15,4,9,-13,5,5,1,-4,-9,-7
4,-11,-15,4,9,-13,4,5,0,-5,-9,-7
4,-11,-15,3,8,-13,3,4,0,-5,-10,-7
4,-10,-14,3,8,-12,3,3,0,-6,-10,-7
4,-9,-14,3,8,-11,2,2,-1,-6,-10,-7
4,-9,-13,3,8,-11,2,1,-1,-6,-10,-8
3,-10,-14,3,8,-12,2,1,-1,-7,-10,-8
3,-10,-13,3,8,-11,2,1,-2,-7,-10,-8
3,-10,-13,3,8,-11,3,1,-2,-7,-10,-8
3,-10,-13,3,8,-12,3,1,-2,-7,-10,-8
3,-10,-13,3,7,-12,3,1,-2,-7,-11,-8
3,-9,-13,3,7,-11,3,1,-2,-7,-11,-8
3,-9,-13,3,7,-11,3,1,-1,-7,-10,-8
4,-10,-14,3,7,-12,4,1,-1,-6,-10,-8
4,-11,-15,4,8,-13,4,1,-1,-6,-10,-8
4,-11,-15,4,8,-13,4,1,-1,-6,-10,-8
3,-11,-15,5,8,-13,4,1,-1,-6,-10,-8
3,-12,-15,5,8,-13,4,1,-1,-7,-11,-7
2,-12,-15,6,8,-14,4,1,-1,-7,-11,-7
2,-13,-16,6,8,-14,4,2,-1,-7,-11,-7
2,-13,-16,6,8,-14,4,2,-1,-7,-11,-7
2,-13,-16,6,7,-14,5,2,-1,-7,-11,-7
1,-14,-16,7,7,-14,5,2,-1,-7,-11,-7
0,-14,-16,8,7,-15,5,2,-1,-8,-11,-8
0,-15,-16,8,7,-15,5,2,-1,-8,-11,-8
0,-15,-16,9,6,-15,6,2,-1,-8,-11,-9
-1,-16,-16,9,6,-16,6,2,-2,-8,-12,-9
-1,-17,-16,10,6,-17,5,2,-2,-9,-13,-10
-1,-17,-16,10,5,-17,5,1,-3,-9,-14,-10
-1,-17,-16,10,5,-17,5,1,-3,-10,-14,-11
-1,-18,-17,11,6,-17,5,1,-3,-10,-14,-11
-1,-18,-17,11,6,-18,5,1,-4,-11,-14,-11
-1,-19,-17,11,6,-18,5,1,-4,-11,-14,-11
-1,-19,-17,11,7,-18,5,1,-4,-11,-14,-11
-1,-18,-17,11,7,-18,5,1,-4,-11,-14,-11
-1,-18,-18,11,7,-18,5,1,-4,-10,-14,-11
-1,-19,-18,11,7,-18,5,1,-4,-10,-14,-11
-2,-19,-18,11,7,-18,5,1,-4,-10,-15,-11
-2,-19,-18,11,7,-18,5,1,-4,-11,-15,-11
-2,-18,-17,10,7,-17,5,1,-3,-11,-15,-11
-2,-18,-17,10,6,-17,5,1,-3,-11,-15,-11
-2,-18,-16,10,6,-17,5,1,-3,-11,-15,-11
-2,-18,-16,10,6,-17,5,1,-3,-11,-15,-12
-2,-18,-16,10,6,-17,5,1,-3,-12,-15,-12
-1,-17,-16,10,6,-17,5,1,-3,-12,-15,-12
-1,-17,-17,9,7,-17,5,2,-3,-11,-15,-11
0,-17,-17,9,7,-17,6,2,-3,-11,-15,-11
0,-17,-17,8,8,-17,6,2,-2,-10,-14,-11
0,-16,-18,8,8,-17,7,3,-2,-10,-14,-10
0,-17,-18,9,8,-18,7,3,-2,-9,-13,-10
-1,-18,-18,10,7,-18,7,2,-2,-9,-13,-11
-3,-20,-18,12,6,-19,6,2,-2,-10,-14,-11
-3,-21,-18,12,6,-19,7,2,-2,-9,-14,-11
-2,-21,-19,12,7,-19,7,2,-2,-9,-14,-10
-2,-20,-19,12,7,-19,6,2,-2,-10,-14,-10
-2,-20,-18,12,7,-19,6,2,-3,-10,-15,-11
-2,-20,-18,12,7,-19,5,1,-3,-11,-15,-12
-2,-20,-18,12,7,-19,5,1,-3,-11,-15,-12
-1,-18,-17,11,7,-18,6,2,-3,-11,-15,-12
-1,-17,-17,10,7,-17,6,2,-3,-11,-15,-12
0,-18,-17,10,7,-17,6,3,-3,-11,-15,-12
-1,-19,-18,10,7,-18,6,3,-3,-11,-15,-12
-1,-19,-18,10,7,-18,6,3,-2,-10,-15,-12
0,-20,-20,10,8,-19,6,3,-2,-10,-15,-11
-1,-21,-20,11,8,-20,6,3,-2,-9,-14,-11
-2,-21,-19,12,7,-20,6,2,-2,-10,-15,-11
-3,-21,-18,12,6,-19,6,2,-3,-10,-15,-11
-3,-20,-18,12,6,-19,6,1,-3,-10,-15,-11
-3,-21,-18,12,6,-19,6,1,-3,-10,-15,-11
-3,-22,-19,13,6,-20,6,2,-3,-10,-15,-11
-3,-22,-18,13,6,-20,6,2,-3,-11,-15,-12
-3,-21,-18,12,6,-20,5,1,-3,-12,-16,-12
-3,-20,-17,12,6,-19,5,1,-3,-12,-16,-12
-3,-20,-17,11,6,-18,5,1,-3,-12,-16,-12
-3,-20,-18,11,6,-18,6,2,-2,-12,-16,-12
-3,-20,-18,11,6,-18,6,2,-2,-11,-15,-12
-2,-20,-18,11,6,-18,6,3,-2,-11,-15,-12
-2,-20,-18,11,6,-19,6,3,-2,-10,-15,-12
-2,-20,-18,11,6,-19,6,3,-2,-10,-15,-12
-2,-21,-18,11,7,-19,6,3,-2,-10,-15,-12
-2,-21,-18,11,7,-19,6,3,-1,-10,-15,-12
-2,-21,-19,12,7,-20,7,3,-1,-10,-15,-12
-1,-21,-20,12,8,-20,7,3,-1,-10,-15,-12
-1,-21,-21,11,9,-21,8,4,-1,-10,-15,-12
0,-21,-22,11,10,-21,9,6,0,-9,-15,-12
1,-21,-23,10,11,-22,10,10,1,-8,-15,-12
3,-21,-23,8,12,-22,12,15,5,-6,-13,-11
5,-19,-24,6,14,-22,14,21,10,-2,-10,-10
8,-17,-25,4,16,-22,16,28,16,3,-6,-7
12,-15,-26,1,18,-21,17,35,22,10,0,-3
19,-10,-28,-4,22,-20,16,41,29,19,8,3
26,-3,-30,-11,27,-17,12,43,35,29,19,11
34,4,-29,-19,30,-12,5,40,39,40,31,22
40,14,-26,-27,32,-5,-4,33,42,51,45,34
46,26,-20,-36,33,3,-16,22,45,64,61,47
53,39,-14,-45,33,12,-26,12,48,77,79,62
59,51,-8,-54,33,21,-35,4,51,91,96,76
64,62,-2,-62,32,29,-41,-1,54,103,111,89
68,71,2,-69,32,36,-46,-6,53,112,123,99
72,79,6,-74,31,42,-51,-12,49,118,133,108
73,85,11,-78,29,48,-57,-18,44,123,142,117
72,93,20,-81,25,56,-62,-25,41,129,152,126
67,100,32,-83,16,66,-66,-33,41,135,160,134
60,106,46,-82,5,77,-69,-42,41,140,166,140
53,111,58,-81,-4,85,-71,-50,39,140,166,141
45,109,65,-77,-11,87,-70,-55,35,133,158,136
37,101,65,-69,-15,82,-66,-58,28,118,142,124
28,88,60,-57,-17,73,-59,-58,18,97,118,107
20,73,53,-46,-17,62,-50,-56,7,73,93,87
13,59,45,-35,-17,52,-42,-53,-3,49,68,67
7,46,38,-25,-17,42,-35,-50,-12,29,46,50
2,34,32,-18,-16,34,-27,-44,-17,15,29,36
0,26,26,-12,-15,26,-21,-38,-18,6,18,26
-1,20,21,-9,-12,20,-17,-32,-18,1,12,19
-1,15,17,-7,-10,16,-15,-27,-17,-1,8,15
-1,12,13,-5,-8,12,-13,-24,-15,-3,5,12
-1,9,10,-4,-6,10,-11,-21,-13,-3,3,10
-1,7,8,-2,-5,8,-10,-18,-11,-4,1,8
0,5,5,-1,-4,6,-9,-16,-10,-4,0,6
0,3,4,0,-3,4,-7,-14,-9,-4,-1,4
0,1,2,0,-2,2,-6,-11,-8,-4,-3,2
0,-1,0,1,-1,0,-4,-9,-6,-4,-4,1
0,-3,-2,2,0,-2,-2,-7,-5,-4,-4,0
0,-3,-2,2,0,-3,-1,-6,-5,-5,-5,-1
-1,-3,-2,2,0,-3,-1,-6,-4,-6,-6,-1
0,-2,-2,2,0,-3,0,-5,-4,-6,-6,-1
0,-2,-3,2,0,-3,1,-4,-3,-6,-6,-1
0,-2,-2,1,0,-2,1,-4,-3,-7,-7,-2
0,-2,-2,1,0,-2,1,-4,-3,-7,-8,-3
0,-2,-1,1,0,-2,1,-4,-4,-7,-9,-4
0,-2,-1,1,0,-2,1,-4,-4,-7,-10,-5
0,-3,-2,2,0,-2,1,-4,-4,-8,-10,-5
-1,-3,-2,3,-1,-3,0,-4,-4,-8,-10,-5
-3,-4,-1,4,-2,-3,0,-5,-5,-8,-10,-5
-5,-6,-1,6,-3,-3,0,-5,-5,-9,-11,-6
-6,-8,-2,8,-3,-4,0,-5,-6,-9,-11,-6
-6,-9,-3,9,-3,-6,0,-5,-6,-9,-11,-7
-6,-10,-3,9,-2,-7,1,-4,-6,-9,-11,-7
-6,-11,-3,9,-2,-7,1,-4,-6,-9,-12,-7
-6,-10,-3,9,-2,-7,0,-4,-6,-10,-12,-7
-6,-10,-3,8,-2,-7,0,-4,-5,-10,-12,-7
-6,-9,-3,8,-2,-7,1,-4,-5,-10,-12,-7
-6,-9,-3,8,-2,-7,1,-4,-5,-10,-12,-7
-6,-9,-3,8,-2,-6,1,-4,-5,-10,-12,-7
-6,-9,-3,8,-2,-6,1,-4,-5,-10,-13,-8
-6,-9,-3,8,-1,-6,1,-3,-5,-10,-13,-8
-5,-9,-4,8,-1,-7,1,-3,-5,-9,-12,-7
-5,-9,-3,7,-2,-6,1,-3,-5,-9,-12,-7
-5,-8,-3,7,-2,-6,1,-3,-5,-9,-12,-7
-5,-8,-3,7,-2,-6,1,-4,-4,-9,-12,-6
-5,-8,-3,7,-2,-6,1,-4,-4,-9,-12,-6
-5,-8,-3,7,-2,-5,1,-3,-4,-8,-11,-6
-3,-7,-3,5,-1,-4,2,-3,-4,-8,-11,-6
-2,-6,-3,4,-1,-4,2,-3,-4,-7,-11,-6
-3,-6,-3,5,-1,-4,1,-3,-4,-8,-11,-6
-4,-7,-2,5,-2,-5,1,-3,-4,-8,-11,-6
-4,-7,-2,5,-1,-5,0,-3,-4,-8,-11,-6
-5,-7,-2,6,-1,-5,0,-3,-4,-8,-11,-6
-5,-7,-2,6,-2,-5,0,-4,-4,-8,-11,-6
-6,-7,-1,6,-2,-4,0,-4,-4,-8,-11,-6
-5,-6,0,6,-2,-4,0,-4,-4,-8,-11,-6
-5,-5,0,5,-2,-3,0,-4,-4,-8,-11,-6
-4,-5,0,5,-2,-3,0,-4,-4,-8,-11,-6
-4,-4,0,4,-2,-3,0,-4,-4,-8,-11,-6
-4,-4,0,4,-2,-3,0,-4,-4,-8,-11,-6
-4,-4,0,4,-2,-3,0,-4,-4,-8,-11,-6
-4,-4,0,4,-3,-2,0,-4,-4,-8,-11,-6
-4,-4,0,4,-3,-2,0,-4,-4,-8,-11,-6
-4,-4,0,4,-3,-2,0,-4,-4,-8,-11,-6
-4,-4,0,4,-3,-2,0,-3,-4,-8,-11,-5
-4,-3,1,4,-3,-2,0,-3,-4,-8,-11,-5
-4,-3,1,4,-3,-1,-1,-3,-4,-8,-11,-5
-4,-3,1,4,-3,-1,-1,-3,-4,-8,-11,-5
-4,-2,1,4,-3,-1,-1,-3,-4,-8,-11,-5
-4,-2,2,3,-3,0,-1,-3,-4,-8,-11,-5
-4,-2,2,3,-3,0,-2,-3,-4,-8,-11,-5
-4,-2,2,3,-3,0,-2,-3,-4,-8,-11,-5
-3,-2,2,3,-3,0,-2,-3,-4,-7,-11,-5
-3,-1,2,2,-3,0,-2,-3,-4,-7,-11,-4
-3,-1,3,2,-3,0,-2,-3,-4,-7,-10,-4
-4,-1,3,2,-3,0,-2,-3,-4,-6,-10,-3
-4,-1,3,2,-4,1,-2,-4,-4,-6,-9,-3
-4,-1,3,2,-4,1,-2,-4,-4,-6,-9,-3
-4,0,4,2,-5,1,-2,-4,-4,-6,-9,-3
-4,1,5,1,-5,2,-2,-4,-3,-6,-9,-3
-3,2,5,0,-5,3,-2,-4,-3,-6,-9,-3
-3,3,6,0,-5,4,-2,-4,-3,-6,-9,-3
-4,3,6,0,-6,4,-2,-4,-3,-6,-9,-3
-4,3,7,0,-6,5,-2,-4,-3,-5,-8,-3
-4,4,7,0,-6,5,-2,-4,-3,-5,-8,-2
-3,4,7,0,-5,5,-2,-4,-3,-5,-7,-2
-2,5,7,-1,-5,5,-2,-3,-2,-4,-7,-2
-1,7,7,-2,-5,7,-1,-3,-2,-4,-7,-1
-1,7,7,-3,-5,7,-1,-3,-1,-4,-7,-1
-2,6,8,-2,-6,7,-1,-3,-1,-4,-7,-1
-3,6,8,-1,-6,7,-2,-4,-1,-4,-7,-1
-3,6,9,-1,-6,7,-2,-4,-1,-4,-6,0
-2,6,9,-2,-6,8,-2,-4,-1,-3,-5,0
-2,7,9,-2,-7,8,-2,-4,-1,-3,-5,0
-3,6,10,-1,-7,8,-2,-4,-1,-3,-5,0
-3,6,10,-1,-8,8,-2,-4,0,-3,-5,0
-3,7,11,-2,-8,9,-2,-4,0,-2,-4,1
-3,9,11,-3,-8,10,-2,-3,0,-2,-4,1
-2,10,12,-4,-8,11,-2,-3,0,-1,-3,2
-2,10,12,-4,-8,11,-2,-3,0,-1,-3,2
-3,10,12,-3,-8,11,-2,-3,0,-1,-2,2
-2,10,13,-3,-8,11,-2,-3,0,0,-2,3
-2,11,14,-4,-8,12,-3,-3,1,0,-2,3
-3,11,15,-3,-9,12,-3,-3,1,0,-2,2
-4,11,16,-3,-11,13,-4,-3,1,0,-2,2
-5,11,16,-3,-11,13,-4,-3,1,0,-1,3
-5,12,16,-3,-11,14,-4,-3,2,1,-1,4
-4,13,16,-4,-11,14,-4,-3,2,2,0,4
-4,14,17,-4,-11,15,-4,-3,2,2,0,5
-3,16,19,-5,-11,17,-4,-3,3,2,0,5
-3,17,20,-6,-12,18,-4,-3,3,2,1,6
-3,17,21,-6,-12,19,-4,-3,3,3,1,6
-2,18,21,-7,-12,19,-4,-3,3,3,2,7
-2,20,22,-8,-13,21,-4,-3,4,4,2,8
-2,21,23,-9,-13,22,-4,-3,4,4,3,9
-2,21,23,-9,-13,22,-4,-3,5,5,4,9
-2,21,23,-9,-13,22,-4,-2,5,5,5,10
-1,22,23,-10,-13,22,-5,-2,6,6,6,10
0,23,24,-10,-13,23,-5,-1,6,6,6,11
0,24,24,-11,-13,23,-4,-1,7,7,7,11
1,24,24,-11,-13,24,-4,0,7,8,8,12
0,25,25,-11,-13,25,-5,0,7,9,9,12
0,26,26,-11,-14,26,-5,-1,7,9,9,13
-1,26,27,-12,-15,27,-5,-1,8,10,10,14
-1,27,28,-12,-15,27,-6,-1,8,10,10,14
-1,27,28,-12,-16,28,-6,-1,8,10,10,15
0,28,29,-13,-16,28,-6,-1,8,10,11,15
0,29,29,-13,-16,29,-6,-1,9,11,11,16
0,29,29,-14,-15,29,-6,-1,9,11,12,16
1,30,29,-14,-15,29,-6,-1,9,11,12,17
1,30,29,-15,-15,30,-6,-1,9,11,13,17
1,31,30,-15,-15,30,-6,-1,10,12,13,17
2,31,30,-16,-15,31,-6,-1,10,12,14,18
2,32,30,-17,-14,31,-6,-1,10,12,14,19
2,32,30,-17,-14,31,-6,-1,10,13,14,19
3,33,30,-17,-14,31,-6,0,10,13,15,20
3,33,30,-17,-14,31,-6,0,10,13,15,20
4,33,30,-17,-14,31,-6,0,10,14,16,20
4,33,29,-18,-13,31,-6,0,11,14,16,20
5,33,29,-18,-13,31,-6,0,11,15,16,20
5,33,29,-18,-13,31,-6,0,11,15,16,21
4,33,29,-18,-13,31,-6,0,11,15,16,21
4,32,28,-18,-13,30,-6,0,11,15,16,21
5,32,28,-18,-12,30,-6,0,11,15,16,21
5,32,27,-18,-12,29,-6,1,11,15,16,21
5,31,26,-18,-11,28,-6,1,11,15,16,20
6,32,25,-18,-10,28,-5,2,11,15,16,20
7,31,24,-18,-10,27,-5,2,11,15,16,20
7,29,23,-18,-9,26,-5,3,11,14,15,20
7,29,23,-18,-9,25,-5,3,11,13,14,19
7,28,22,-17,-9,25,-5,3,10,13,13,18
7,27,20,-17,-7,23,-4,4,10,13,13,18
8,26,18,-16,-6,22,-4,4,10,12,13,18
8,25,17,-16,-5,21,-4,4,10,12,13,18
8,25,17,-16,-5,21,-4,4,10,11,12,17
9,24,16,-16,-4,20,-4,5,10,11,12,16
9,23,14,-16,-3,18,-3,6,10,11,12,15
10,21,13,-15,-2,17,-3,6,10,11,11,14
10,20,11,-15,-1,16,-2,7,10,10,11,14
11,20,10,-15,0,15,-2,7,10,10,10,13
10,18,8,-14,0,13,-2,7,9,9,9,12
9,15,6,-12,0,11,-2,7,8,8,8,10
7,12,5,-9,0,8,-2,7,7,7,6,9
7,10,3,-8,1,6,-1,7,7,6,5,8
7,9,2,-7,1,5,-1,7,6,5,4,7
8,8,1,-7,2,5,0,7,6,5,4,6
8,8,0,-8,3,4,0,8,6,4,3,5
8,7,0,-8,4,3,0,8,6,4,3,5
9,6,-2,-7,4,2,0,9,6,4,2,4
9,5,-3,-7,5,1,0,9,6,3,1,4
9,5,-3,-7,5,1,1,9,6,2,0,3
9,5,-3,-7,6,0,1,9,6,2,-1,1
9,3,-5,-6,7,-1,2,9,6,2,-1,1
9,2,-6,-6,7,-2,3,10,6,1,-2,0
9,1,-7,-5,7,-3,3,10,6,1,-2,0
9,1,-7,-5,7,-3,3,10,6,1,-3,-1
9,1,-8,-5,7,-3,3,9,5,0,-3,-1
9,0,-9,-4,8,-5,4,9,5,0,-3,-2
9,-1,-11,-3,9,-6,4,9,5,0,-4,-2
9,-3,-12,-2,9,-7,5,9,5,0,-4,-3
7,-4,-11,-1,8,-8,4,9,4,-1,-5,-4
5,-6,-10,1,7,-8,4,8,4,-1,-6,-5
4,-6,-10,1,6,-9,4,8,3,-2,-7,-5
4,-7,-10,1,6,-9,4,8,3,-2,-7,-6
4,-7,-10,1,6,-9,4,8,3,-2,-7,-6
4,-7,-10,1,6,-8,3,7,3,-2,-7,-7
4,-7,-9,2,6,-8,3,7,3,-3,-8,-7
3,-7,-10,2,6,-8,3,7,3,-3,-8,-7
4,-6,-10,2,6,-8,4,7,3,-3,-8,-7
4,-6,-10,2,6,-8,4,7,3,-3,-8,-7
4,-7,-10,2,6,-9,4,7,2,-3,-8,-8
4,-7,-10,2,6,-9,5,7,2,-3,-9,-8
4,-7,-10,2,6,-9,5,7,2,-3,-9,-8
4,-6,-10,1,6,-8,5,6,2,-3,-9,-8
3,-7,-10,1,5,-8,5,6,2,-4,-9,-8
3,-7,-10,2,5,-9,5,6,2,-4,-9,-8
2,-8,-10,2,5,-9,5,6,2,-4,-9,-8
2,-8,-9,3,5,-8,5,6,2,-4,-9,-8
2,-8,-9,3,4,-8,5,6,2,-4,-9,-9
2,-8,-9,3,4,-8,5,5,1,-4,-9,-9
2,-8,-9,3,4,-8,5,5,1,-4,-9,-9
2,-8,-8,3,4,-8,5,5,1,-4,-9,-9
2,-8,-8,3,4,-8,5,5,1,-4,-9,-9
2,-8,-8,3,4,-8,5,5,2,-4,-9,-9
2,-8,-9,3,5,-8,5,6,2,-4,-9,-9
2,-8,-9,3,5,-8,6,6,2,-4,-8,-9
2,-7,-8,2,5,-8,6,6,2,-4,-8,-9
2,-7,-8,2,5,-7,6,6,2,-4,-8,-9
2,-6,-8,2,4,-7,6,6,2,-4,-9,-9
2,-6,-8,2,4,-7,6,6,2,-4,-9,-9
2,-6,-8,2,4,-7,6,6,2,-4,-9,-9
2,-6,-8,2,4,-7,6,6,2,-4,-9,-9
2,-6,-8,2,4,-7,5,6,2,-4,-9,-9
3,-6,-8,2,5,-7,5,6,2,-4,-9,-9
3,-6,-8,2,5,-7,6,6,3,-4,-9,-9
3,-6,-7,2,5,-7,6,6,3,-4,-9,-8
3,-5,-7,1,5,-7,6,6,3,-4,-8,-8
4,-4,-8,0,5,-6,6,7,3,-4,-8,-8
5,-3,-8,0,6,-6,7,7,3,-3,-8,-8
5,-3,-8,-1,6,-6,7,7,3,-3,-8,-8
5,-3,-8,0,6,-6,7,7,3,-3,-8,-8
5,-3,-8,0,6,-6,7,7,3,-3,-8,-8
4,-4,-8,0,6,-6,7,7,3,-3,-8,-8
2,-6,-8,2,5,-7,7,7,3,-4,-8,-8
0,-8,-8,4,3,-8,6,6,3,-4,-9,-9
-1,-9,-8,5,3,-9,6,6,2,-4,-9,-9
-1,-10,-8,5,3,-9,5,6,2,-4,-10,-10
-1,-10,-8,5,2,-9,5,6,1,-4,-10,-10
-1,-10,-8,5,2,-9,5,6,1,-5,-10,-10
-1,-9,-8,5,2,-9,5,6,1,-5,-10,-10
0,-9,-8,4,3,-9,6,6,1,-5,-10,-10
0,-8,-7,4,3,-8,6,6,1,-5,-10,-10
0,-8,-7,4,3,-8,6,6,2,-5,-10,-10
0,-8,-8,4,3,-8,6,7,2,-5,-9,-10
0,-8,-8,4,3,-8,6,7,2,-5,-9,-10
0,-8,-7,4,3,-8,6,7,2,-5,-10,-10
0,-8,-7,4,3,-8,6,7,2,-5,-10,-10
0,-9,-8,4,3,-9,6,7,2,-5,-10,-10
0,-9,-9,4,4,-10,7,7,2,-5,-10,-10
1,-9,-10,4,4,-10,7,7,2,-5,-10,-10
1,-9,-10,4,4,-10,7,7,2,-5,-10,-10
1,-9,-10,4,4,-10,7,7,2,-6,-10,-11
1,-9,-10,4,5,-10,7,7,2,-6,-10,-11
1,-10,-10,4,5,-11,7,7,2,-6,-10,-11
1,-10,-11,4,5,-11,7,7,1,-7,-11,-11
1,-10,-10,4,5,-10,7,7,1,-7,-11,-11
1,-10,-10,4,5,-10,7,6,0,-8,-12,-12
1,-9,-10,4,5,-9,7,6,0,-8,-12,-12
1,-9,-10,4,5,-9,7,6,0,-8,-12,-12
0,-9,-10,4,5,-10,7,6,0,-8,-12,-12
0,-9,-10,4,5,-10,7,6,0,-8,-12,-12
0,-9,-10,4,5,-10,6,6,0,-8,-12,-12
1,-9,-10,4,5,-10,6,6,0,-8,-12,-12
1,-9,-10,4,5,-10,6,6,0,-8,-12,-12
1,-10,-10,4,5,-10,6,6,0,-8,-12,-12
1,-10,-11,4,5,-11,6,6,0,-8,-12,-12
1,-11,-11,4,5,-11,6,6,0,-8,-12,-12
1,-11,-11,4,5,-11,7,6,0,-8,-12,-12
1,-11,-11,4,5,-11,7,6,0,-8,-12,-12
1,-11,-11,4,5,-12,7,6,0,-8,-12,-12
1,-11,-12,5,6,-12,7,6,0,-8,-12,-12
1,-11,-12,5,6,-12,7,6,-1,-9,-12,-12
1,-11,-11,5,6,-12,7,6,-1,-9,-13,-13
1,-12,-11,5,6,-12,7,6,-1,-9,-13,-13
1,-12,-11,5,6,-12,7,6,-1,-9,-13,-13
1,-11,-11,5,6,-11,7,6,-2,-10,-13,-13
1,-11,-11,5,6,-11,7,6,-2,-10,-13,-13
0,-11,-11,5,6,-12,7,6,-2,-10,-13,-13
0,-11,-11,5,6,-12,7,5,-2,-10,-13,-13
1,-11,-12,5,7,-12,7,5,-2,-10,-13,-13
1,-11,-12,5,7,-12,7,5,-2,-10,-13,-13
1,-11,-12,5,7,-12,7,5,-2,-10,-13,-13
1,-11,-12,5,7,-12,7,5,-2,-10,-13,-13
1,-11,-12,5,7,-12,7,5,-2,-10,-13,-13
1,-11,-13,5,7,-12,7,5,-2,-10,-14,-13
1,-12,-13,5,7,-12,7,5,-2,-11,-14,-13
0,-12,-12,6,6,-12,7,5,-3,-11,-15,-13
0,-13,-12,6,6,-13,7,5,-3,-12,-15,-13
0,-13,-13,6,7,-14,7,5,-3,-12,-15,-13
0,-13,-13,6,7,-14,7,4,-3,-12,-15,-14
0,-13,-12,6,7,-13,7,4,-3,-12,-16,-14
0,-13,-12,6,7,-13,6,4,-3,-11,-15,-14
0,-13,-13,6,7,-13,6,4,-3,-11,-15,-14
0,-13,-12,7,6,-13,6,4,-4,-12,-15,-14
0,-13,-11,6,5,-12,5,4,-4,-12,-15,-14
0,-12,-11,5,6,-12,5,4,-4,-12,-15,-14
1,-11,-11,4,6,-11,6,4,-4,-12,-15,-14
1,-11,-11,4,6,-11,6,4,-4,-12,-15,-14
2,-11,-11,4,7,-11,6,4,-4,-12,-15,-14
2,-11,-11,3,7,-11,6,5,-4,-11,-14,-13
3,-10,-12,3,8,-11,7,5,-3,-11,-14,-13
3,-10,-12,3,8,-11,7,6,-3,-11,-14,-13
2,-11,-12,3,7,-11,7,5,-3,-11,-14,-13
1,-12,-12,5,7,-12,6,5,-4,-12,-14,-13
0,-13,-12,6,6,-12,6,4,-4,-12,-15,-14
0,-13,-12,6,6,-13,6,4,-5,-13,-15,-14
-1,-14,-12,7,6,-13,5,3,-5,-13,-16,-15
-2,-15,-12,8,6,-14,5,3,-5,-13,-16,-15
-2,-16,-12,9,5,-15,4,2,-6,-13,-17,-15
-2,-16,-12,9,5,-15,4,2,-6,-13,-17,-15
-2,-15,-12,8,5,-14,4,2,-6,-14,-17,-15
-1,-15,-12,8,5,-14,4,2,-6,-14,-17,-16
-1,-14,-13,7,6,-14,5,2,-6,-14,-17,-16
0,-14,-13,7,6,-14,5,2,-6,-14,-16,-16
0,-13,-12,6,6,-13,5,2,-6,-14,-16,-16
0,-13,-12,6,6,-13,5,2,-6,-14,-16,-15
0,-13,-12,6,6,-13,5,2,-6,-14,-16,-15
0,-14,-12,6,6,-13,5,2,-6,-14,-16,-15
0,-14,-12,7,6,-13,5,2,-6,-14,-16,-15
0,-14,-13,7,6,-14,5,2,-6,-14,-16,-15
0,-14,-12,6,6,-13,5,2,-6,-14,-16,-15
0,-12,-11,6,5,-12,5,2,-6,-14,-16,-16
0,-12,-11,6,6,-12,5,2,-5,-13,-16,-15
0,-13,-12,6,7,-13,5,2,-5,-13,-15,-15
0,-13,-12,6,7,-13,5,2,-5,-13,-15,-15
0,-13,-12,6,7,-13,5,2,-5,-13,-15,-15
0,-13,-12,6,7,-13,5,2,-5,-13,-15,-14
1,-13,-13,5,7,-13,6,3,-5,-12,-15,-14
2,-12,-13,5,8,-13,6,3,-4,-12,-14,-13
2,-12,-13,5,8,-12,6,3,-4,-12,-14,-14
1,-12,-12,5,7,-12,6,3,-5,-12,-14,-14
1,-13,-12,5,7,-12,6,3,-5,-12,-14,-14
0,-14,-12,6,6,-13,6,3,-5,-12,-15,-14
-1,-14,-12,6,6,-13,6,2,-5,-13,-15,-14
-1,-14,-12,7,5,-13,6,2,-6,-13,-15,-14
-1,-14,-12,7,6,-13,6,2,-5,-12,-15,-14
0,-14,-12,6,6,-13,6,2,-5,-12,-15,-14
0,-13,-12,6,7,-13,6,2,-5,-12,-15,-14
1,-12,-12,5,7,-13,6,2,-5,-12,-15,-14
1,-12,-12,5,7,-13,7,2,-5,-12,-15,-14
1,-12,-12,5,8,-13,8,3,-5,-12,-15,-14
1,-12,-12,5,8,-13,8,3,-5,-12,-15,-14
1,-12,-12,5,8,-12,9,3,-5,-12,-15,-14
1,-12,-13,5,8,-12,9,3,-5,-12,-15,-14
1,-13,-13,6,7,-13,9,3,-5,-12,-15,-14
0,-14,-13,7,7,-14,9,3,-5,-12,-15,-14
0,-14,-13,7,7,-14,9,3,-4,-12,-14,-14
0,-14,-13,7,7,-14,10,4,-4,-11,-14,-13
0,-13,-13,6,7,-13,10,4,-3,-11,-14,-13
0,-12,-12,6,7,-13,10,5,-3,-10,-13,-13
1,-11,-12,5,7,-12,11,5,-2,-9,-13,-12
2,-10,-12,4,8,-11,11,6,-1,-9,-12,-12
3,-9,-11,3,8,-11,12,6,0,-8,-12,-12
3,-8,-11,2,8,-10,12,7,0,-8,-11,-11
3,-8,-11,2,8,-10,12,7,0,-8,-11,-11
4,-8,-11,1,8,-9,12,7,0,-7,-11,-10
5,-7,-11,1,9,-9,12,7,0,-7,-10,-10
5,-7,-12,1,9,-10,11,7,0,-7,-10,-10
6,-7,-12,1,10,-10,10,6,0,-7,-10,-10
6,-7,-13,1,10,-11,9,6,0,-7,-10,-10
6,-8,-13,1,10,-11,7,5,-1,-8,-10,-10
7,-8,-13,0,11,-11,6,4,-2,-8,-10,-10
7,-8,-13,0,11,-11,6,4,-2,-9,-10,-10
6,-8,-13,1,10,-11,5,3,-3,-9,-11,-10
5,-9,-13,2,9,-11,5,2,-4,-10,-12,-10
3,-9,-12,2,8,-11,4,1,-5,-11,-12,-11
3,-9,-12,3,8,-11,4,0,-5,-11,-13,-11
3,-9,-12,3,8,-11,4,0,-5,-11,-13,-11
4,-9,-12,2,8,-11,5,1,-5,-11,-12,-11
4,-9,-12,2,8,-11,5,1,-4,-11,-12,-11
4,-8,-11,2,8,-10,6,2,-4,-11,-12,-11
4,-8,-11,1,8,-10,6,2,-4,-11,-12,-11
4,-8,-12,1,9,-10,6,2,-4,-11,-13,-11
4,-8,-12,1,9,-11,6,2,-4,-11,-13,-11
4,-8,-13,1,9,-11,6,2,-4,-11,-13,-11
5,-8,-13,1,10,-11,6,2,-4,-11,-13,-11
5,-8,-13,2,9,-11,6,1,-5,-11,-13,-11
4,-9,-13,2,9,-11,6,1,-5,-11,-13,-11
4,-9,-12,2,8,-11,6,1,-5,-11,-13,-11
3,-9,-12,3,8,-11,6,1,-5,-11,-13,-11
2,-10,-12,4,7,-11,6,1,-5,-11,-13,-11
1,-11,-12,4,7,-12,6,1,-6,-11,-13,-12
0,-11,-12,5,7,-12,6,1,-6,-11,-13,-12
0,-12,-12,5,7,-12,7,1,-6,-12,-13,-12
0,-12,-11,6,6,-12,7,1,-6,-12,-14,-12
0,-12,-11,6,6,-12,7,1,-6,-12,-15,-13
0,-13,-12,7,6,-13,7,1,-6,-13,-15,-13
0,-14,-12,7,6,-13,7,1,-6,-13,-16,-14
0,-14,-13,7,6,-13,7,1,-6,-14,-16,-14
0,-14,-13,7,6,-13,7,1,-7,-14,-16,-14
0,-13,-13,6,7,-13,7,1,-7,-14,-16,-14
1,-12,-12,5,7,-13,7,0,-7,-14,-16,-14
1,-12,-12,5,7,-13,7,0,-7,-14,-16,-14
1,-12,-12,4,7,-13,7,0,-7,-14,-16,-14
1,-12,-13,4,7,-13,7,0,-7,-14,-16,-14
1,-12,-13,5,7,-13,7,0,-7,-14,-16,-14
1,-13,-13,6,7,-13,7,0,-8,-14,-16,-15
0,-14,-13,7,6,-14,7,0,-8,-14,-16,-15
0,-14,-12,7,6,-13,6,0,-8,-15,-16,-15
0,-13,-12,7,6,-13,7,0,-8,-15,-16,-15
0,-13,-12,6,6,-13,7,1,-8,-15,-16,-15
1,-12,-12,5,7,-12,7,1,-7,-15,-16,-15
2,-11,-12,4,7,-12,8,2,-7,-14,-16,-14
2,-11,-13,3,8,-12,8,2,-7,-14,-16,-14
2,-12,-13,4,8,-12,8,2,-7,-14,-16,-14
1,-13,-13,5,7,-13,8,2,-7,-14,-16,-15
0,-13,-13,6,7,-13,8,2,-7,-14,-16,-15
0,-13,-13,6,7,-13,9,3,-7,-14,-16,-14
0,-13,-13,6,7,-13,9,3,-7,-14,-16,-14
0,-13,-13,6,7,-13,8,2,-7,-14,-16,-15
0,-13,-12,7,6,-13,7,1,-8,-15,-17,-15
-1,-13,-11,7,5,-13,6,1,-9,-15,-17,-16
-2,-13,-11,7,4,-12,6,0,-9,-16,-18,-16
-3,-14,-11,8,4,-13,5,0,-9,-16,-18,-16
-3,-15,-12,9,4,-14,6,1,-9,-16,-18,-16
-3,-16,-12,10,5,-15,6,1,-8,-16,-18,-16
-4,-16,-12,10,4,-14,6,1,-9,-17,-19,-17
-4,-16,-12,10,4,-14,6,1,-9,-17,-19,-17
-3,-17,-13,10,4,-15,7,1,-9,-16,-19,-17
-3,-17,-13,9,5,-15,7,2,-9,-16,-18,-16
-2,-16,-13,8,5,-14,7,2,-9,-16,-18,-16
-2,-15,-12,7,5,-14,7,2,-8,-16,-18,-16
-1,-14,-12,7,5,-13,7,2,-8,-16,-18,-16
-1,-14,-12,7,6,-13,8,2,-8,-16,-18,-16
-1,-14,-12,7,6,-13,8,2,-8,-16,-18,-16
-1,-14,-12,7,6,-13,8,2,-8,-16,-18,-16
-1,-15,-12,7,6,-14,7,2,-8,-16,-18,-16
-1,-15,-13,8,6,-14,7,2,-8,-16,-18,-16
-1,-15,-13,8,6,-15,7,2,-8,-15,-18,-16
-1,-15,-13,7,6,-15,7,2,-8,-15,-18,-16
0,-14,-13,7,6,-14,7,2,-8,-15,-18,-16
0,-14,-13,6,6,-14,8,2,-8,-15,-18,-16
1,-13,-13,6,7,-13,8,3,-7,-15,-17,-16
2,-12,-13,5,8,-13,9,3,-7,-14,-17,-15
2,-11,-12,4,8,-12,9,3,-7,-14,-16,-15
2,-11,-12,4,8,-12,9,3,-7,-14,-16,-15
1,-13,-13,5,7,-13,8,3,-7,-14,-17,-15
0,-14,-13,6,7,-14,8,3,-7,-15,-17,-15
-1,-15,-13,7,6,-15,8,3,-7,-15,-17,-16
-1,-14,-12,7,6,-14,8,3,-7,-15,-17,-16
0,-14,-12,7,6,-14,8,3,-7,-15,-17,-16
0,-14,-13,7,6,-14,8,3,-8,-16,-18,-16
0,-15,-14,7,7,-15,8,3,-8,-16,-18,-16
1,-15,-15,6,8,-15,8,5,-7,-15,-18,-17
3,-14,-16,5,10,-16,10,8,-6,-15,-18,-17
5,-13,-18,4,12,-16,12,12,-3,-13,-17,-16
8,-11,-19,2,14,-16,15,19,1,-9,-14,-15
10,-10,-20,0,16,-16,17,26,7,-4,-10,-12
14,-8,-22,-2,18,-16,19,33,13,1,-5,-9
19,-5,-23,-7,22,-15,18,39,19,8,1,-4
27,1,-25,-13,26,-13,15,43,25,17,10,3
34,8,-26,-21,30,-10,9,43,31,28,21,12
42,17,-24,-29,33,-4,1,37,34,38,34,23
49,28,-19,-38,34,3,-9,28,37,50,49,35
56,41,-14,-48,35,13,-19,18,40,63,65,49
62,53,-8,-57,35,22,-28,9,43,76,82,63
66,64,-2,-65,35,30,-36,2,46,88,97,76
71,74,3,-72,34,38,-43,-3,47,98,111,87
74,81,7,-78,34,44,-48,-9,44,105,121,97
77,88,11,-82,33,49,-54,-16,39,109,130,105
78,95,18,-87,30,56,-60,-22,36,114,139,114
76,103,28,-90,24,65,-64,-30,35,121,148,123
70,111,42,-91,15,75,-67,-38,35,127,156,130
63,116,54,-90,5,85,-69,-46,35,130,159,134
56,118,64,-87,-3,90,-69,-53,32,126,155,133
47,114,68,-81,-10,90,-67,-58,26,115,143,124
38,102,65,-70,-13,83,-62,-59,17,96,123,109
30,88,58,-59,-14,72,-54,-58,6,74,98,90
22,73,51,-47,-14,61,-47,-56,-4,50,73,70
14,58,45,-36,-15,50,-39,-53,-14,29,50,52
8,45,39,-26,-15,41,-31,-48,-21,12,32,36
4,36,32,-20,-14,33,-24,-42,-24,1,19,25
3,29,26,-16,-11,27,-18,-36,-24,-4,11,17
2,24,21,-14,-9,22,-15,-30,-23,-6,6,12
2,20,18,-11,-7,18,-14,-26,-21,-8,3,9
1,16,15,-9,-6,14,-13,-23,-19,-9,1,6
1,14,12,-8,-5,12,-11,-20,-17,-9,-1,3
2,12,11,-7,-4,10,-10,-17,-16,-10,-3,1
2,11,9,-6,-3,9,-8,-15,-14,-10,-4,0
3,8,6,-5,-1,7,-5,-12,-13,-10,-5,-1
3,6,4,-5,0,5,-3,-9,-12,-10,-5,-2
2,4,2,-4,0,3,-2,-8,-11,-10,-6,-3
1,2,1,-3,0,1,-2,-7,-11,-10,-7,-4
1,2,1,-2,0,1,-1,-7,-11,-10,-7,-5
1,2,1,-2,0,1,-1,-6,-10,-10,-8,-5
1,2,1,-1,0,1,0,-6,-10,-10,-8,-5
0,2,1,-1,0,1,0,-5,-9,-11,-9,-6
0,1,1,-1,0,0,0,-5,-9,-11,-9,-6
0,1,1,-1,0,0,1,-4,-9,-11,-10,-7
0,0,1,-1,0,0,1,-4,-9,-11,-10,-7
0,0,1,-1,0,0,1,-4,-9,-12,-10,-7
0,0,1,0,0,0,1,-4,-9,-12,-11,-7
-1,0,1,0,-1,0,1,-4,-9,-13,-11,-8
-1,0,1,0,-1,0,1,-4,-9,-13,-12,-8
-1,0,1,1,-1,0,1,-4,-9,-13,-12,-9
-1,-1,1,2,-1,0,1,-4,-9,-14,-12,-9
-2,-2,1,2,-1,-1,1,-4,-9,-14,-12,-9
-2,-3,1,2,-1,-1,1,-4,-9,-14,-13,-9
-2,-3,0,2,-1,-2,1,-4,-9,-14,-13,-9
-2,-3,0,2,-1,-2,1,-4,-9,-14,-13,-9
-2,-2,0,2,-1,-1,1,-4,-9,-14,-13,-9
-2,-2,0,2,-1,-1,1,-4,-9,-14,-13,-9
-2,-1,0,1,-1,-1,1,-3,-9,-14,-13,-9
-1,0,1,1,-1,0,1,-3,-9,-14,-13,-9
-1,0,1,0,-1,0,1,-3,-9,-13,-13,-9
0,0,1,0,0,0,1,-3,-8,-13,-13,-9
0,0,1,0,0,0,1,-3,-8,-13,-13,-9
0,0,1,0,0,0,1,-3,-8,-13,-13,-9
0,0,1,0,0,0,1,-3,-8,-13,-13,-9
0,0,1,0,0,0,1,-3,-8,-13,-13,-9
0,0,1,0,0,0,1,-3,-8,-13,-13,-9
0,1,1,-1,0,1,1,-3,-8,-13,-12,-9
1,2,1,-2,0,1,1,-3,-8,-13,-12,-9
1,2,2,-2,0,1,1,-2,-8,-12,-12,-9
1,3,2,-3,0,2,1,-2,-8,-12,-12,-9
2,4,3,-4,0,3,1,-2,-7,-11,-12,-8
2,4,2,-4,0,3,1,-2,-7,-11,-12,-8
1,3,2,-3,0,2,1,-2,-7,-12,-12,-8
0,2,2,-2,0,2,1,-2,-7,-12,-12,-8
1,2,2,-2,0,2,1,-2,-7,-12,-11,-7
1,3,2,-2,0,2,1,-2,-7,-12,-11,-7
1,3,2,-2,0,2,1,-2,-7,-12,-11,-7
0,2,2,-2,-1,2,1,-2,-8,-12,-11,-7
0,2,2,-1,-1,2,0,-3,-8,-12,-12,-7
0,2,2,-1,-1,2,0,-3,-8,-12,-12,-7
0,2,2,-2,-1,2,0,-3,-8,-12,-11,-7
0,2,2,-1,-1,2,0,-3,-8,-12,-11,-8
0,1,2,-1,-1,2,0,-3,-8,-12,-11,-8
0,2,3,-2,-1,2,0,-3,-8,-12,-11,-8
0,2,3,-2,-1,3,0,-3,-8,-12,-11,-8
0,2,3,-1,-2,3,0,-3,-8,-12,-11,-8
0,2,3,-1,-2,3,0,-3,-8,-12,-11,-7
-1,2,3,-1,-2,3,0,-3,-8,-12,-11,-7
-1,2,3,-1,-2,3,0,-3,-8,-12,-11,-7
-1,2,4,-1,-2,3,0,-3,-8,-12,-11,-7
0,3,4,-1,-2,3,0,-3,-8,-11,-10,-7
0,3,5,-2,-2,4,0,-3,-8,-11,-10,-7
0,3,5,-2,-2,4,0,-3,-8,-11,-10,-7
0,4,5,-2,-2,4,0,-3,-8,-10,-10,-7
0,4,4,-2,-1,4,0,-3,-7,-10,-10,-6
0,5,5,-3,-1,5,0,-3,-7,-10,-9,-5
0,6,6,-3,-2,6,0,-3,-7,-10,-9,-5
0,6,6,-3,-2,6,0,-3,-7,-10,-9,-5
0,6,6,-3,-2,6,0,-3,-7,-10,-9,-5
0,5,6,-3,-2,5,0,-3,-7,-10,-8,-5
0,4,5,-2,-2,4,0,-3,-7,-10,-8,-5
-1,3,5,-2,-2,3,0,-2,-7,-9,-8,-5
-1,4,6,-2,-3,4,-1,-3,-7,-9,-8,-5
-1,6,7,-2,-4,6,-1,-3,-7,-10,-8,-5
-1,6,7,-2,-3,6,-1,-3,-7,-9,-8,-5
-1,5,7,-2,-3,5,0,-2,-6,-9,-7,-4
-1,5,7,-2,-3,6,-1,-2,-6,-9,-7,-4
-2,6,8,-2,-4,6,-2,-3,-6,-9,-7,-4
-2,6,9,-2,-5,7,-2,-3,-7,-9,-8,-4
-2,6,9,-2,-5,7,-2,-3,-7,-9,-8,-4
-2,6,9,-2,-6,7,-3,-3,-7,-9,-8,-4
-3,6,10,-1,-6,8,-3,-3,-7,-9,-8,-4
-3,7,10,-1,-6,8,-2,-3,-7,-9,-7,-4
-3,7,10,-1,-6,8,-2,-3,-6,-8,-6,-3
-3,6,10,-1,-5,7,-2,-2,-5,-8,-6,-2
-2,6,10,-2,-5,7,-2,-2,-5,-7,-5,-2
-2,7,10,-3,-6,8,-2,-2,-4,-7,-5,-1
-2,8,11,-3,-6,9,-2,-2,-4,-6,-4,-1
-1,9,11,-4,-6,9,-1,-2,-4,-6,-4,-1
-1,10,11,-5,-6,10,-1,-2,-3,-5,-3,0
0,11,11,-5,-6,10,-1,-1,-3,-5,-3,0
0,11,11,-5,-6,10,-1,-1,-2,-4,-2,1
0,12,12,-6,-6,11,-1,0,-2,-3,-1,2
1,14,13,-7,-6,13,0,0,-1,-2,0,2
1,15,14,-8,-5,14,0,0,-1,-2,0,3
1,16,14,-9,-5,14,0,0,0,-2,0,3
1,16,15,-9,-6,15,-1,0,0,-2,0,3
0,15,15,-8,-7,15,-2,-1,-1,-2,0,3
-2,14,16,-6,-9,15,-2,-1,-1,-1,1,4
-3,13,16,-5,-9,14,-3,-1,0,-1,1,4
-3,16,19,-6,-11,17,-3,-2,0,-1,1,4
-2,30,33,-13,-17,31,-5,-4,-2,-2,-1,3
-2,42,45,-19,-23,42,-7,-7,-4,-3,-4,3
-2,39,42,-18,-21,39,-6,-7,-4,-2,-5,4
-2,32,34,-15,-17,32,-5,-5,-3,0,-2,5
-1,29,30,-14,-15,29,-5,-3,-2,1,0,6
0,28,28,-13,-14,27,-4,-2,0,2,3,7
0,27,27,-13,-13,26,-4,-1,0,2,4,8
0,25,26,-12,-13,25,-4,0,1,3,5,8
-1,23,25,-11,-13,24,-4,0,1,3,6,9
-1,22,24,-10,-12,23,-4,0,2,4,7,9
-1,23,25,-11,-12,23,-4,0,3,4,8,10
0,24,25,-12,-12,24,-4,0,4,5,9,10
0,25,25,-13,-12,25,-4,1,4,5,10,11
0,26,25,-14,-12,25,-4,1,5,6,11,13
1,27,26,-14,-12,26,-5,1,5,6,12,13
1,27,26,-14,-13,26,-5,1,5,6,12,14
1,27,26,-14,-13,26,-5,1,5,7,12,14
2,27,26,-14,-12,26,-5,1,5,7,13,15
2,27,26,-14,-12,26,-5,1,6,8,13,15
2,28,26,-15,-12,26,-5,1,6,8,13,16
2,29,27,-16,-12,27,-5,1,6,9,14,16
2,30,27,-16,-12,28,-5,1,6,9,14,17
2,30,27,-16,-12,28,-5,1,6,9,14,17
3,30,27,-17,-12,29,-5,1,6,9,15,17
4,31,27,-17,-11,29,-5,1,6,10,15,18
5,31,27,-18,-11,29,-5,2,7,10,15,18
5,31,27,-18,-11,29,-6,2,7,10,15,18
4,30,27,-17,-11,28,-6,2,7,10,15,18
3,30,27,-17,-11,28,-6,1,7,10,15,18
4,31,27,-18,-11,29,-7,1,6,9,15,18
4,33,29,-19,-11,31,-7,1,6,9,14,17
5,33,28,-19,-11,30,-7,1,6,9,14,17
5,32,27,-19,-10,29,-6,2,6,9,15,17
6,31,26,-19,-10,28,-6,2,6,9,15,17
6,30,25,-18,-9,27,-6,2,6,9,14,17
6,29,24,-18,-9,27,-6,2,6,9,14,17
7,28,23,-17,-8,26,-6,3,6,9,14,17
7,27,21,-17,-6,24,-5,3,7,10,14,17
8,27,20,-17,-5,23,-4,4,7,10,14,17
9,28,19,-18,-5,23,-4,4,6,10,14,17
10,28,18,-19,-4,23,-3,5,6,10,14,16
11,28,17,-19,-2,22,-3,6,7,10,14,16
13,28,15,-20,-1,21,-2,7,7,9,14,16
14,27,14,-20,0,20,-2,7,7,9,13,15
14,25,12,-19,1,18,-1,8,7,8,12,14
14,23,10,-18,2,16,-1,8,7,7,11,13
15,23,8,-19,3,15,0,9,7,6,11,13
15,22,7,-19,4,14,0,9,6,6,10,12
13,19,6,-16,4,12,0,9,5,4,8,10
10,14,4,-12,3,8,-1,8,3,2,6,8
9,11,3,-9,3,6,-1,8,2,1,4,6
9,9,2,-8,4,5,-1,8,2,0,4,5
8,8,0,-8,5,4,-1,8,2,0,3,4
8,7,-1,-7,5,3,-1,8,2,0,2,3
8,6,-2,-7,6,2,0,8,1,-1,2,2
8,5,-3,-7,7,0,0,8,1,-1,1,1
8,4,-4,-6,7,0,1,9,1,-1,0,0
9,3,-5,-6,8,-1,1,9,1,-2,0,0
9,2,-6,-6,8,-2,2,9,1,-2,-1,0
9,1,-7,-5,8,-3,2,9,1,-3,-2,-1
9,0,-8,-4,9,-4,2,9,0,-3,-2,-2
9,0,-9,-4,9,-5,3,9,0,-3,-3,-2
10,0,-9,-4,10,-5,3,9,0,-3,-3,-3
11,0,-10,-5,11,-5,3,9,0,-4,-4,-3
11,-1,-11,-5,11,-6,4,9,0,-4,-5,-4
11,-1,-11,-5,12,-6,4,9,0,-5,-6,-5
10,-2,-11,-4,12,-7,4,9,0,-5,-6,-6
10,-3,-11,-3,11,-7,4,9,-1,-6,-7,-6
9,-4,-12,-2,11,-8,4,9,-1,-6,-7,-7
8,-5,-12,-1,11,-9,4,8,-2,-7,-8,-8
7,-7,-13,0,11,-10,4,8,-2,-7,-8,-8
6,-7,-13,0,10,-10,4,7,-2,-7,-9,-9
5,-7,-13,1,10,-10,4,7,-3,-7,-9,-9
4,-8,-13,2,9,-11,4,6,-3,-7,-10,-10
4,-9,-13,2,9,-11,4,6,-3,-8,-10,-10
3,-9,-13,2,8,-11,4,5,-4,-9,-11,-11
4,-9,-13,2,8,-11,4,5,-4,-9,-12,-11
4,-9,-13,2,9,-11,5,5,-4,-10,-12,-11
4,-9,-12,2,9,-11,5,5,-4,-10,-13,-12
4,-9,-12,2,8,-11,5,5,-4,-11,-13,-12
3,-9,-12,2,8,-11,5,5,-4,-11,-13,-12
3,-9,-12,2,8,-11,5,5,-4,-11,-13,-11
3,-9,-12,2,8,-11,5,5,-4,-11,-13,-11
3,-9,-12,2,8,-11,5,5,-4,-11,-13,-12
3,-9,-12,2,8,-11,5,5,-4,-11,-13,-12
3,-9,-12,2,8,-11,5,5,-4,-11,-13,-13
3,-9,-12,2,8,-11,5,5,-4,-11,-14,-13
3,-9,-12,3,8,-11,5,5,-4,-11,-14,-13
3,-10,-12,3,8,-11,5,5,-4,-11,-14,-13
2,-10,-12,3,7,-11,5,5,-4,-12,-14,-13
2,-10,-12,3,7,-11,5,5,-4,-12,-14,-13
2,-10,-11,3,7,-11,5,5,-4,-12,-14,-13
2,-10,-11,3,7,-11,5,5,-5,-12,-14,-13
2,-10,-11,3,7,-11,5,5,-5,-11,-14,-13
2,-10,-11,3,7,-11,5,5,-5,-11,-14,-13
2,-10,-11,3,7,-11,5,5,-4,-11,-14,-13
2,-10,-11,3,7,-11,5,5,-4,-11,-14,-13
2,-10,-11,3,7,-11,5,5,-4,-11,-14,-13
2,-10,-11,3,7,-11,5,5,-3,-10,-14,-13
2,-9,-11,3,7,-11,5,5,-3,-10,-14,-13
2,-9,-11,3,7,-11,5,5,-3,-10,-14,-13
2,-10,-11,4,7,-11,5,5,-3,-10,-14,-13
2,-10,-12,4,7,-11,5,5,-3,-10,-14,-13
2,-10,-11,4,7,-11,5,5,-3,-10,-14,-12
1,-10,-11,4,7,-10,4,5,-3,-10,-14,-12
1,-11,-11,5,7,-11,4,6,-3,-10,-14,-13
1,-12,-13,6,7,-12,5,6,-3,-10,-14,-13
1,-11,-13,5,7,-12,6,7,-3,-10,-14,-13
1,-10,-12,4,7,-11,5,7,-3,-11,-14,-13
1,-9,-11,3,7,-10,5,7,-3,-11,-15,-13
2,-8,-11,3,7,-10,5,7,-3,-11,-15,-13
2,-8,-11,2,7,-10,5,7,-3,-11,-15,-13
3,-8,-11,2,7,-10,5,7,-3,-11,-15,-13
3,-8,-11,2,7,-10,6,8,-3,-11,-15,-13
3,-8,-11,2,7,-10,6,8,-3,-11,-15,-13
2,-9,-11,3,7,-10,6,8,-3,-11,-15,-14
1,-10,-11,3,6,-10,5,7,-3,-11,-15,-14
1,-10,-11,3,6,-10,5,7,-3,-11,-15,-14
1,-10,-11,3,6,-10,5,7,-3,-11,-15,-14
1,-10,-11,3,6,-10,5,7,-3,-11,-15,-14
1,-10,-11,4,6,-10,5,7,-3,-11,-16,-15
1,-10,-11,4,6,-10,5,7,-3,-11,-16,-15
1,-10,-11,4,6,-10,6,8,-3,-11,-16,-15
2,-10,-11,4,7,-10,6,8,-3,-11,-16,-15
2,-10,-11,4,7,-10,6,8,-3,-11,-17,-15
2,-10,-11,4,7,-10,6,8,-3,-11,-17,-15
2,-10,-12,4,7,-11,6,8,-3,-11,-17,-15
1,-12,-13,5,7,-12,5,8,-3,-11,-17,-15
0,-13,-13,6,7,-12,5,7,-3,-12,-17,-15
0,-12,-12,6,7,-12,5,7,-4,-12,-18,-16
0,-12,-12,6,7,-12,5,7,-4,-13,-18,-16
0,-12,-12,6,7,-12,5,7,-4,-13,-17,-16
0,-12,-12,6,7,-11,5,7,-4,-13,-18,-16
0,-12,-13,6,7,-12,5,7,-4,-13,-18,-16
0,-12,-13,6,7,-12,5,7,-4,-12,-18,-16
1,-12,-14,5,7,-12,6,7,-4,-12,-18,-16
1,-12,-14,5,7,-12,6,7,-4,-12,-18,-16
1,-12,-14,5,7,-12,6,8,-4,-12,-18,-16
1,-12,-13,5,7,-12,6,8,-4,-12,-18,-16
1,-12,-13,5,7,-12,6,8,-4,-12,-18,-16
2,-11,-13,4,8,-11,6,8,-4,-12,-17,-16
3,-9,-13,3,8,-11,7,8,-4,-12,-17,-16
3,-9,-13,2,9,-11,7,8,-4,-12,-18,-16
3,-10,-14,3,9,-12,7,8,-4,-12,-18,-16
2,-11,-14,4,8,-13,6,8,-4,-13,-18,-16
1,-12,-14,5,8,-13,6,7,-4,-13,-19,-17
1,-13,-14,6,8,-13,5,6,-4,-14,-19,-17
0,-13,-14,6,8,-13,5,6,-4,-14,-19,-17
0,-14,-15,7,8,-14,5,6,-5,-15,-19,-17
0,-15,-15,7,7,-14,5,6,-5,-15,-20,-18
-1,-15,-14,8,7,-14,4,6,-6,-16,-20,-18
-1,-15,-14,8,7,-14,4,6,-6,-16,-21,-18
0,-15,-15,7,7,-14,4,6,-6,-16,-20,-18
0,-14,-14,7,7,-14,5,6,-6,-15,-20,-18
1,-13,-14,6,8,-13,5,6,-6,-15,-20,-18
1,-13,-14,6,8,-13,5,6,-6,-15,-19,-18
2,-12,-14,5,8,-13,5,6,-6,-15,-19,-18
2,-13,-15,5,8,-13,6,6,-6,-15,-19,-18
1,-13,-15,5,8,-13,6,6,-6,-15,-20,-18
1,-13,-15,6,8,-14,5,6,-7,-16,-20,-18
1,-14,-15,6,8,-14,5,6,-7,-16,-20,-18
1,-15,-15,6,8,-14,5,5,-7,-16,-20,-18
1,-14,-15,6,8,-14,5,5,-7,-16,-20,-18
1,-13,-15,6,8,-14,5,5,-7,-16,-20,-18
2,-12,-15,4,9,-13,5,5,-7,-16,-21,-18
3,-11,-15,4,9,-13,5,5,-7,-16,-21,-18
2,-12,-15,5,9,-13,5,5,-7,-17,-21,-18
1,-13,-15,6,8,-14,4,5,-8,-17,-22,-18
0,-14,-15,7,8,-14,4,5,-8,-17,-22,-18
0,-15,-15,7,7,-14,4,5,-8,-18,-22,-19
0,-15,-15,8,7,-14,4,5,-8,-18,-22,-19
0,-15,-15,8,7,-14,4,4,-8,-18,-22,-19
0,-15,-15,8,7,-14,4,4,-9,-18,-22,-19
-1,-15,-15,8,7,-14,4,3,-9,-18,-22,-19
-1,-15,-14,8,6,-14,4,3,-9,-18,-22,-19
-1,-14,-13,8,6,-13,4,3,-9,-19,-23,-20
-1,-14,-13,7,6,-13,4,3,-9,-19,-23,-20
-1,-14,-14,7,6,-14,4,3,-9,-18,-23,-20
-1,-15,-14,7,6,-14,4,3,-9,-19,-23,-20
-2,-15,-14,8,5,-14,4,2,-10,-19,-23,-20
-2,-16,-14,8,5,-14,4,2,-10,-19,-23,-20
-2,-16,-14,8,5,-15,4,2,-10,-19,-23,-21
-1,-16,-14,8,6,-15,4,2,-9,-19,-23,-21
-1,-15,-15,8,7,-15,4,3,-9,-18,-22,-20
0,-14,-15,8,8,-14,5,3,-9,-18,-22,-20
0,-14,-15,7,8,-14,5,3,-9,-18,-22,-20
0,-14,-15,7,8,-14,5,3,-9,-18,-22,-20
0,-15,-15,7,7,-14,5,3,-9,-18,-22,-20
0,-14,-15,7,7,-14,5,3,-9,-18,-22,-20
0,-14,-15,7,8,-14,5,3,-9,-17,-22,-20
0,-15,-15,7,8,-15,5,3,-9,-17,-22,-19
0,-15,-15,7,8,-15,5,3,-9,-18,-23,-20
0,-15,-15,8,8,-15,5,3,-9,-18,-23,-20
0,-15,-15,8,7,-15,5,3,-9,-19,-23,-20
0,-15,-15,8,7,-15,5,3,-9,-19,-23,-20
0,-15,-15,8,7,-15,5,3,-9,-19,-23,-20
0,-15,-15,8,7,-15,5,3,-9,-19,-23,-20
0,-15,-15,8,7,-15,5,3,-9,-19,-24,-20
0,-15,-15,8,7,-15,5,3,-9,-19,-24,-20
0,-15,-15,8,7,-15,5,3,-10,-19,-24,-20
-1,-15,-15,8,7,-15,5,2,-10,-19,-24,-20
-1,-15,-15,8,7,-15,5,2,-10,-19,-23,-20
-1,-15,-15,8,7,-15,5,2,-10,-19,-23,-20
-1,-15,-15,8,7,-15,5,2,-10,-19,-23,-20
-1,-16,-15,9,7,-15,5,2,-10,-19,-23,-21
-2,-16,-15,9,6,-15,5,2,-10,-19,-23,-21
-2,-15,-15,9,6,-14,5,2,-10,-19,-23,-21
-2,-15,-14,8,6,-14,5,2,-10,-19,-24,-21
-1,-14,-14,8,7,-14,5,2,-10,-19,-24,-21
-1,-14,-14,8,7,-14,5,2,-10,-19,-24,-21
0,-14,-14,7,7,-14,5,2,-10,-19,-24,-21
0,-13,-14,7,7,-13,5,2,-10,-19,-23,-20
0,-13,-14,6,8,-13,6,3,-9,-19,-23,-20
0,-14,-15,7,8,-14,6,3,-9,-19,-23,-20
0,-14,-15,7,8,-14,6,3,-9,-19,-23,-20
0,-14,-15,7,8,-14,6,3,-9,-19,-23,-20
1,-13,-15,6,8,-14,6,3,-9,-19,-23,-20
1,-13,-15,7,9,-14,5,3,-9,-19,-23,-20
0,-14,-16,7,9,-15,5,3,-9,-19,-23,-21
0,-15,-16,8,9,-15,5,3,-9,-19,-23,-21
0,-15,-16,8,9,-15,5,3,-9,-18,-23,-21
0,-15,-16,7,9,-15,6,3,-9,-18,-22,-21
0,-15,-16,7,9,-15,6,3,-8,-18,-22,-20
0,-14,-16,7,9,-14,6,3,-8,-17,-21,-20
1,-13,-15,6,9,-14,7,4,-7,-16,-21,-19
1,-12,-15,5,9,-13,8,5,-6,-15,-20,-18
2,-12,-15,4,9,-13,9,6,-5,-14,-20,-18
3,-12,-16,4,10,-13,10,7,-4,-13,-19,-17
4,-11,-16,3,11,-12,10,8,-3,-13,-18,-16
5,-8,-14,2,10,-10,10,8,-3,-13,-18,-16
5,-8,-14,2,10,-10,9,7,-3,-14,-18,-16
5,-11,-16,3,11,-12,8,7,-3,-14,-18,-16
5,-11,-16,3,11,-13,7,7,-4,-14,-18,-16
5,-10,-16,2,11,-12,6,6,-4,-14,-18,-17
6,-10,-15,2,11,-12,5,5,-5,-14,-18,-17
6,-9,-15,2,11,-12,4,4,-5,-14,-19,-17
6,-9,-15,2,11,-12,4,4,-6,-14,-19,-17
6,-9,-15,2,11,-12,3,3,-6,-15,-19,-17
6,-9,-15,2,11,-11,2,2,-7,-15,-20,-17
5,-9,-15,2,11,-11,2,2,-8,-16,-20,-18
5,-10,-15,2,11,-11,2,1,-9,-17,-20,-18
5,-10,-15,2,11,-11,2,1,-9,-17,-20,-18
5,-10,-15,2,11,-12,2,1,-9,-17,-20,-18
5,-10,-15,2,11,-12,3,1,-9,-17,-20,-18
6,-9,-15,1,11,-12,3,2,-9,-16,-20,-18
6,-9,-15,1,10,-11,4,2,-8,-16,-20,-17
6,-8,-14,1,10,-11,4,2,-8,-16,-20,-17
6,-9,-15,1,10,-11,4,2,-8,-16,-20,-17
5,-10,-15,2,10,-12,4,2,-9,-16,-20,-18
4,-11,-15,3,9,-12,3,1,-9,-17,-21,-18
3,-11,-14,4,8,-12,3,1,-10,-17,-21,-18
4,-10,-14,3,9,-12,3,1,-10,-17,-21,-18
4,-9,-14,3,9,-11,2,0,-10,-17,-21,-18
3,-10,-14,4,8,-11,2,0,-10,-18,-22,-18
2,-11,-14,5,7,-12,2,0,-10,-18,-22,-18
2,-11,-14,5,8,-12,3,0,-10,-18,-22,-18
2,-12,-14,5,8,-13,4,1,-9,-18,-22,-18
3,-12,-15,5,9,-13,5,2,-9,-17,-21,-18
3,-11,-15,4,9,-12,5,2,-9,-17,-21,-18
2,-12,-15,5,9,-13,5,2,-9,-17,-22,-19
1,-14,-15,6,8,-14,5,2,-10,-18,-23,-20
0,-15,-16,7,8,-15,5,2,-10,-19,-24,-20
0,-15,-16,7,8,-15,5,2,-11,-19,-25,-21
0,-15,-16,7,8,-15,5,2,-11,-20,-25,-21
0,-15,-15,7,7,-15,5,2,-11,-20,-25,-22
0,-15,-15,7,7,-14,4,1,-12,-21,-25,-22
0,-15,-15,7,7,-14,4,1,-12,-21,-25,-22
0,-15,-15,7,7,-14,4,1,-12,-21,-25,-22
-1,-16,-15,8,7,-15,3,0,-13,-21,-26,-23
-2,-17,-14,10,6,-15,3,0,-13,-22,-27,-23
-3,-17,-14,11,5,-16,3,0,-14,-22,-27,-24
-3,-18,-15,11,5,-16,3,0,-14,-22,-27,-24
-3,-18,-15,11,6,-16,4,0,-14,-22,-27,-24
-3,-18,-15,11,6,-16,4,0,-14,-22,-27,-24
-3,-19,-15,11,6,-17,4,0,-13,-22,-27,-24
-3,-19,-15,11,6,-17,4,0,-13,-22,-27,-23
-2,-18,-15,11,6,-17,4,0,-13,-22,-26,-23
-2,-18,-15,10,7,-17,4,0,-13,-22,-26,-23
-2,-17,-15,10,7,-16,4,0,-13,-22,-26,-22
-2,-17,-15,9,7,-16,4,0,-13,-22,-26,-22
-1,-16,-15,9,7,-16,4,0,-12,-21,-25,-22
-1,-16,-15,9,7,-15,4,0,-12,-21,-25,-22
-1,-16,-15,9,7,-15,4,0,-12,-21,-25,-22
-1,-16,-15,9,7,-15,4,0,-12,-21,-25,-22
-1,-15,-14,8,7,-14,5,1,-12,-21,-25,-22
0,-14,-14,8,7,-14,5,1,-12,-20,-25,-22
0,-14,-14,8,7,-14,5,1,-12,-20,-25,-22
0,-14,-14,8,7,-14,5,1,-12,-20,-25,-22
0,-14,-15,8,7,-14,5,1,-12,-21,-25,-22
0,-15,-15,8,7,-14,5,1,-12,-21,-25,-22
0,-15,-15,8,7,-15,5,1,-12,-21,-25,-22
0,-15,-15,8,7,-15,6,1,-12,-21,-25,-22
0,-15,-15,8,7,-15,6,1,-12,-21,-25,-22
0,-15,-15,8,7,-15,6,1,-13,-22,-26,-22
-2,-16,-15,10,6,-16,6,1,-13,-23,-26,-23
-2,-17,-15,10,6,-17,6,1,-13,-23,-27,-23
-3,-18,-16,11,6,-17,6,1,-13,-23,-27,-23
-3,-18,-16,11,6,-17,6,1,-13,-24,-27,-23
-3,-18,-16,11,6,-17,6,1,-13,-24,-27,-23
-2,-18,-16,11,6,-17,6,1,-13,-23,-27,-23
-2,-18,-16,10,7,-16,6,1,-13,-23,-27,-23
-2,-17,-16,10,7,-16,6,1,-13,-23,-27,-23
-2,-17,-16,10,7,-16,6,1,-13,-23,-27,-23
-1,-17,-16,9,8,-16,6,2,-13,-23,-27,-23
-1,-16,-16,8,8,-15,6,2,-13,-23,-27,-23
0,-15,-15,7,8,-14,6,2,-13,-23,-27,-23
0,-15,-15,7,8,-14,7,2,-12,-22,-26,-23
0,-15,-15,7,8,-15,7,2,-12,-22,-26,-23
0,-15,-16,7,8,-15,7,2,-12,-22,-26,-23
0,-15,-16,7,8,-15,7,2,-12,-22,-26,-23
0,-14,-15,7,8,-15,7,2,-12,-22,-26,-23
0,-15,-16,7,8,-15,8,2,-12,-22,-26,-23
0,-15,-17,7,9,-16,8,3,-12,-22,-26,-23
1,-16,-17,7,9,-16,8,3,-11,-22,-25,-23
0,-16,-17,7,9,-16,8,3,-11,-22,-25,-23
0,-15,-17,7,8,-16,8,3,-12,-22,-25,-23
0,-14,-16,7,8,-15,8,3,-12,-23,-26,-23
0,-15,-16,7,8,-16,8,4,-13,-23,-27,-24
0,-18,-18,9,9,-18,8,5,-12,-23,-27,-24
0,-19,-19,9,9,-19,9,7,-11,-22,-27,-24
1,-19,-20,9,10,-19,11,11,-9,-21,-26,-24
3,-17,-21,7,12,-19,13,17,-5,-18,-24,-23
7,-15,-23,4,14,-19,15,24,0,-13,-21,-21
11,-14,-26,1,18,-20,18,32,6,-7,-16,-18
17,-10,-28,-3,23,-19,19,39,13,0,-9,-13
25,-4,-30,-10,28,-17,17,44,19,8,0,-6
33,3,-31,-18,32,-14,11,45,24,18,11,3
41,12,-30,-26,35,-9,3,40,28,29,24,14
48,23,-25,-35,36,-1,-8,30,31,40,37,26
54,35,-19,-44,36,8,-19,19,33,52,53,39
60,48,-13,-54,36,18,-29,10,36,65,69,53
65,59,-7,-62,36,27,-37,3,39,77,84,65
70,69,-2,-69,36,34,-43,-2,41,87,98,76
74,77,2,-76,36,41,-48,-7,39,95,109,86
78,85,7,-81,36,46,-54,-14,34,100,118,95
78,92,13,-85,32,53,-59,-21,30,105,127,104
75,99,24,-87,25,62,-64,-30,29,110,136,113
69,107,38,-88,15,73,-68,-39,28,115,143,120
62,112,50,-86,5,81,-70,-47,28,117,146,124
54,113,59,-83,-2,86,-71,-53,25,114,142,122
45,108,63,-77,-8,86,-69,-57,19,104,131,114
37,98,61,-67,-12,80,-63,-58,11,86,112,99
28,85,56,-56,-13,71,-55,-57,1,65,88,80
21,71,49,-45,-14,60,-47,-55,-9,42,64,61
15,58,43,-36,-14,50,-39,-53,-19,21,41,43
9,46,36,-27,-14,41,-32,-48,-26,5,22,28
5,36,30,-20,-12,33,-25,-42,-29,-6,9,16
3,28,24,-15,-10,27,-20,-36,-30,-12,1,8
2,21,19,-11,-8,21,-16,-31,-29,-15,-4,3
1,16,15,-9,-6,16,-14,-26,-27,-17,-8,0
1,13,11,-7,-5,13,-12,-22,-25,-18,-10,-3
1,10,8,-5,-4,10,-11,-19,-23,-18,-11,-5
0,7,6,-3,-3,7,-9,-17,-21,-18,-13,-6
1,6,5,-3,-2,6,-7,-14,-20,-18,-14,-8
2,4,2,-3,0,4,-5,-11,-19,-18,-15,-9
3,2,0,-2,1,1,-3,-9,-18,-17,-16,-10
2,1,0,-1,1,0,-2,-7,-17,-17,-16,-11
1,0,-1,0,1,0,-1,-6,-17,-18,-17,-13
0,-1,-2,1,1,-1,-1,-6,-16,-18,-18,-14
-2,-3,-2,3,0,-3,0,-5,-16,-19,-19,-15
-3,-5,-2,5,0,-4,0,-5,-16,-20,-20,-15
-4,-6,-2,5,-1,-4,0,-6,-16,-21,-21,-16
-5,-6,-2,6,-1,-4,0,-6,-16,-22,-22,-17
-5,-7,-2,6,-1,-5,0,-5,-16,-22,-23,-18
-4,-7,-3,6,0,-5,0,-5,-16,-22,-23,-18
-4,-7,-3,5,0,-5,0,-4,-16,-22,-23,-18
-3,-6,-3,5,0,-5,0,-4,-16,-21,-22,-18
-3,-6,-3,5,0,-5,0,-4,-16,-21,-22,-18
-3,-6,-3,5,0,-5,0,-4,-16,-21,-22,-18
-3,-6,-3,4,-1,-4,1,-4,-16,-22,-22,-18
-3,-6,-3,4,-1,-4,1,-4,-16,-22,-22,-18
-3,-5,-2,4,-1,-3,1,-4,-16,-22,-23,-18
-3,-5,-2,4,-1,-3,1,-4,-16,-22,-23,-18
-3,-5,-2,4,-1,-3,1,-4,-16,-22,-23,-18
-3,-5,-2,4,-1,-3,1,-4,-16,-21,-22,-18
-3,-4,-2,4,-1,-3,1,-3,-15,-21,-22,-18
-2,-3,-1,3,0,-3,1,-3,-14,-20,-21,-18
-1,-1,-1,2,0,-1,2,-3,-14,-20,-21,-18
0,0,0,1,0,0,2,-3,-14,-20,-21,-18
0,-1,-1,1,0,-1,2,-2,-14,-20,-21,-18
0,-2,-1,1,0,-1,2,-2,-14,-21,-22,-18
-1,-3,-1,2,0,-1,2,-3,-14,-22,-23,-18
-2,-3,-1,3,0,-2,1,-3,-15,-22,-23,-19
-3,-4,-1,3,-1,-2,1,-3,-15,-22,-23,-19
-3,-4,-1,4,-1,-2,1,-3,-15,-22,-23,-19
-4,-4,-1,4,-1,-2,1,-3,-15,-22,-23,-19
-4,-5,-1,5,-1,-2,1,-3,-15,-22,-24,-19
-4,-5,-1,5,-1,-3,0,-3,-15,-22,-24,-19
-4,-5,-1,5,-1,-3,0,-3,-15,-22,-24,-19
-4,-5,-1,5,-1,-2,1,-3,-15,-21,-23,-18
-3,-4,0,4,-1,-2,1,-3,-15,-21,-23,-18
-3,-4,0,4,-1,-1,1,-3,-15,-22,-23,-18
-3,-3,0,3,-1,-1,1,-3,-15,-22,-23,-18
-2,-2,0,3,-1,-1,1,-3,-15,-21,-22,-18
-2,-2,0,2,-1,0,1,-3,-14,-21,-22,-18
-3,-2,0,3,-1,0,1,-3,-14,-20,-21,-18
-3,-3,0,3,-1,-1,1,-3,-14,-20,-21,-17
-4,-3,0,3,-1,-1,1,-3,-14,-20,-21,-17
-4,-4,0,4,-2,-1,1,-3,-14,-21,-21,-17
-5,-4,0,5,-2,-1,0,-3,-15,-21,-21,-17
-6,-4,1,5,-3,-1,0,-3,-14,-21,-21,-17
-5,-3,1,4,-3,-1,0,-3,-14,-20,-20,-17
-4,-2,2,3,-3,0,0,-3,-14,-20,-20,-16
-4,-1,2,3,-3,0,0,-3,-14,-20,-20,-16
-3,0,3,2,-3,1,0,-3,-13,-20,-20,-16
-3,1,3,1,-3,2,0,-3,-13,-19,-19,-15
-3,1,3,1,-3,2,0,-2,-13,-19,-19,-15
-3,1,4,1,-3,3,0,-2,-13,-19,-19,-15
-3,2,4,0,-3,3,0,-2,-12,-19,-19,-15
-3,2,4,0,-3,3,0,-2,-12,-18,-18,-15
-2,2,4,1,-2,3,0,-2,-12,-18,-18,-14
-2,2,4,1,-2,2,0,-1,-12,-18,-17,-14
-3,1,4,2,-3,2,0,-1,-12,-18,-17,-14
-5,0,4,3,-4,2,0,-2,-12,-18,-17,-14
-6,-1,5,4,-5,2,-1,-2,-12,-18,-17,-15
-6,-1,5,3,-5,2,-1,-2,-12,-18,-17,-15
-6,-1,5,3,-5,2,-1,-2,-12,-18,-17,-15
-6,-1,5,3,-5,2,-1,-2,-12,-18,-17,-15
-6,-1,5,3,-5,2,-1,-2,-12,-17,-17,-14
-5,0,5,3,-5,2,-1,-1,-11,-17,-17,-14
-5,0,5,3,-5,2,-1,-1,-11,-16,-16,-13
-4,0,5,2,-5,3,-1,-1,-10,-15,-15,-13
-4,1,6,2,-5,3,-1,-1,-10,-15,-14,-12
-4,1,6,1,-5,4,-1,-1,-9,-15,-14,-12
-4,2,6,1,-5,4,-1,-1,-9,-15,-13,-11
-4,2,7,1,-5,5,-1,-1,-9,-15,-13,-11
-4,2,7,1,-6,5,-1,-1,-9,-15,-13,-11
-5,2,8,1,-6,6,-1,-1,-9,-14,-13,-11
-5,3,9,1,-6,6,-1,-1,-9,-14,-13,-11
-4,4,10,0,-6,7,-1,-1,-9,-13,-12,-10
-4,5,10,0,-6,8,-1,-1,-8,-13,-12,-10
-4,6,10,0,-6,8,-1,-1,-8,-13,-11,-9
-4,6,10,-1,-7,8,-1,-1,-8,-13,-11,-9
-4,6,10,-1,-7,9,-1,-1,-7,-12,-11,-8
-4,6,10,-1,-7,9,-1,0,-7,-12,-11,-8
-4,6,10,-1,-7,9,-1,0,-7,-12,-11,-8
-3,7,11,-1,-7,10,-2,0,-7,-12,-10,-8
-3,8,11,-2,-7,10,-2,0,-6,-11,-10,-7
-4,8,12,-2,-8,11,-2,0,-6,-11,-9,-6
-4,9,13,-2,-9,11,-2,0,-5,-10,-8,-5
-4,10,14,-2,-9,12,-2,0,-5,-9,-7,-4
-4,11,15,-3,-9,13,-2,0,-5,-8,-6,-4
-3,13,15,-4,-8,14,-2,1,-4,-8,-6,-3
-2,14,15,-5,-8,15,-2,1,-4,-7,-5,-3
0,15,16,-7,-8,15,-2,1,-3,-6,-5,-2
0,17,16,-8,-7,16,-2,1,-3,-5,-4,-2
1,18,17,-9,-7,17,-2,1,-2,-4,-3,-1
0,18,18,-9,-8,18,-2,1,-2,-4,-3,-1
-1,16,18,-7,-9,17,-3,1,-2,-3,-2,0
-3,14,18,-5,-10,17,-3,1,-2,-3,-1,0
-4,14,19,-4,-11,17,-3,1,-2,-2,0,0
-4,15,20,-4,-12,17,-3,1,-2,-2,0,1
-4,16,20,-5,-12,18,-4,1,-1,-1,1,2
-5,16,20,-5,-13,18,-4,0,-1,-1,1,2
-5,16,21,-5,-13,18,-4,0,-1,-1,1,3
-4,17,22,-6,-12,19,-4,1,0,0,2,3
-4,18,23,-7,-12,20,-4,1,0,2,3,4
-4,20,24,-8,-13,22,-5,1,0,2,3,5
-3,21,25,-9,-13,23,-5,1,1,2,3,5
-2,22,25,-9,-13,23,-5,2,2,2,4,6
-2,23,25,-10,-13,23,-5,2,2,1,4,6
-2,22,25,-9,-13,23,-5,3,3,1,4,6
-3,22,25,-9,-13,24,-5,3,3,1,5,7
-3,23,25,-10,-13,25,-5,3,3,2,6,7
-3,23,25,-10,-13,25,-5,3,4,3,7,8
-3,24,26,-11,-13,25,-5,3,4,4,8,9
-2,25,27,-11,-13,26,-5,3,4,5,9,10
-2,25,27,-11,-14,26,-6,2,4,6,10,11
-2,25,27,-11,-14,26,-6,2,5,7,11,12
-2,26,27,-12,-14,26,-7,3,5,8,12,12
-1,27,27,-12,-14,27,-7,3,6,8,13,13
0,27,27,-13,-14,27,-6,4,6,8,14,14
0,27,27,-13,-13,27,-6,4,7,8,14,15
0,28,28,-14,-13,28,-6,4,7,8,13,15
1,29,28,-15,-13,28,-6,5,7,9,14,15
1,29,28,-16,-13,29,-6,5,7,9,14,15
1,29,28,-15,-13,29,-6,5,7,9,14,15
1,29,28,-15,-13,28,-6,5,8,10,14,15
2,30,28,-16,-12,29,-6,6,8,10,15,16
2,30,27,-16,-12,29,-6,6,9,11,16,16
2,29,27,-16,-12,28,-6,6,9,12,16,17
2,28,26,-16,-12,27,-6,6,9,12,17,17
2,28,26,-15,-11,27,-6,6,9,12,17,17
2,28,25,-15,-11,27,-6,6,9,11,17,17
3,28,25,-16,-10,27,-6,7,9,11,16,17
4,28,24,-15,-10,26,-5,7,9,11,16,17
3,26,23,-14,-9,24,-5,7,9,10,15,16
3,25,22,-14,-9,23,-5,8,9,10,14,16
4,23,20,-14,-8,22,-4,9,9,10,14,15
4,22,18,-13,-6,20,-3,10,9,11,15,15
4,21,16,-13,-6,19,-3,10,10,11,15,15
5,21,16,-13,-5,19,-3,10,9,10,14,14
5,22,16,-14,-5,19,-3,10,9,10,14,14
6,21,14,-13,-4,17,-2,11,9,11,15,14
6,20,13,-13,-3,16,-1,11,9,11,15,14
7,19,13,-13,-3,16,-1,11,9,11,14,14
7,18,12,-13,-2,15,-2,11,9,11,13,13
7,18,11,-13,-2,14,-2,12,9,10,12,12
8,17,10,-13,-1,13,-1,13,9,9,11,10
8,16,8,-13,0,12,0,14,9,8,10,9
9,16,6,-12,1,11,1,14,9,8,10,9
9,14,4,-11,2,9,1,15,9,8,11,8
10,13,3,-11,3,8,2,15,9,8,11,8
10,12,2,-11,4,7,2,15,8,8,10,8
9,10,1,-9,4,5,2,15,8,7,9,7
8,7,0,-7,4,3,2,15,7,6,8,6
7,5,-1,-6,4,2,2,15,7,5,6,4
7,4,-2,-6,5,1,2,15,7,4,4,3
7,4,-4,-5,5,0,3,15,7,3,4,3
7,3,-5,-5,6,0,3,15,7,3,3,2
7,3,-5,-5,6,-1,3,15,7,3,3,1
7,2,-5,-5,6,-1,3,15,7,2,2,0
7,1,-5,-5,6,-2,4,16,7,2,2,0
8,1,-6,-5,7,-2,4,16,8,3,2,0
8,0,-6,-4,7,-3,5,16,8,3,2,-1
7,-1,-7,-3,7,-4,5,15,7,3,2,-2
6,-3,-8,-1,7,-5,5,15,6,3,2,-2
5,-4,-9,0,7,-7,5,14,6,2,1,-3
3,-6,-9,1,6,-7,4,13,5,1,0,-3
2,-6,-9,2,6,-8,4,13,4,0,-1,-4
2,-7,-9,2,6,-8,5,13,4,0,-2,-4
1,-7,-9,2,5,-8,5,13,4,0,-2,-5
1,-8,-9,3,5,-8,5,12,4,0,-2,-5
1,-8,-9,3,5,-8,6,12,4,0,-2,-5
1,-8,-9,3,5,-8,6,12,4,0,-2,-6
1,-8,-9,4,5,-9,6,12,4,0,-3,-6
1,-8,-9,4,5,-9,6,12,4,-1,-3,-7
0,-8,-9,4,5,-8,6,12,4,-1,-3,-7
0,-8,-8,4,5,-8,6,11,4,-1,-3,-7
0,-8,-8,4,4,-8,6,11,4,-1,-3,-7
0,-9,-8,5,4,-8,6,11,4,-1,-3,-7
-1,-10,-7,5,3,-8,6,10,4,-1,-4,-7
-2,-10,-7,6,2,-8,5,10,3,-2,-4,-7
-2,-10,-7,6,2,-9,5,9,3,-2,-4,-7
-3,-11,-8,6,2,-9,5,9,3,-2,-3,-6
-3,-10,-8,6,2,-9,5,9,3,-2,-3,-6
-3,-10,-8,7,2,-9,5,9,3,-1,-2,-6
-3,-11,-8,7,2,-9,6,9,3,-1,-2,-6
-3,-11,-8,7,3,-9,6,9,3,0,-2,-6
-3,-11,-7,7,2,-9,6,9,4,0,-1,-6
-3,-11,-7,7,2,-9,6,8,4,1,-1,-6
-3,-10,-6,6,2,-8,6,9,4,1,0,-6
-3,-9,-6,6,2,-8,6,9,4,0,0,-6
-3,-8,-5,6,2,-7,6,9,4,0,-1,-6
-3,-8,-5,6,2,-7,6,9,4,0,-1,-6
-3,-8,-5,6,1,-6,6,9,4,0,-2,-6
-3,-8,-4,6,1,-6,6,9,4,0,-2,-6
-3,-8,-4,6,1,-6,7,9,5,0,-3,-6
-2,-7,-4,5,2,-6,7,10,5,0,-3,-6
-1,-7,-4,4,2,-6,7,10,6,0,-2,-6
-1,-7,-5,4,2,-6,8,10,6,0,-2,-6
-1,-7,-5,4,2,-6,8,10,7,1,-1,-5
-2,-7,-6,5,2,-6,8,10,7,2,0,-4
-3,-8,-6,6,2,-7,8,10,6,2,0,-4
-4,-10,-6,7,1,-8,7,9,6,1,0,-5
-5,-11,-6,8,1,-8,6,9,5,1,0,-5
-6,-11,-5,9,0,-8,6,8,5,1,0,-5
-6,-11,-5,9,0,-8,6,8,5,1,0,-5
-5,-11,-5,8,0,-8,6,8,5,1,0,-5
-5,-10,-5,8,0,-7,6,8,5,1,0,-4
-5,-9,-4,7,0,-7,6,8,5,1,0,-4
-5,-9,-4,7,0,-6,6,9,5,1,0,-3
-5,-9,-4,7,0,-6,7,9,6,2,0,-3
-3,-8,-4,6,1,-6,7,10,7,2,0,-3
-2,-8,-5,5,1,-6,8,10,7,3,0,-3
-3,-8,-5,6,1,-6,8,11,7,3,1,-3
-3,-8,-4,6,1,-6,8,11,7,4,2,-3
-4,-8,-4,6,0,-6,8,10,7,5,2,-3
-5,-9,-4,7,0,-6,8,10,7,4,2,-3
-6,-9,-3,7,-1,-6,8,10,6,4,2,-4
-6,-10,-3,8,-1,-6,8,10,6,4,2,-4
-6,-10,-3,8,-1,-6,8,10,7,4,2,-4
-6,-10,-3,7,0,-7,8,10,7,4,1,-4
-5,-10,-4,7,0,-7,8,10,7,3,0,-4
-5,-10,-4,7,0,-7,8,11,7,3,0,-4
-5,-10,-4,7,0,-7,8,11,7,2,0,-4
-5,-10,-4,7,0,-7,9,11,7,2,0,-4
-5,-10,-5,7,0,-7,9,11,7,3,1,-4
-4,-10,-5,7,0,-7,9,11,8,4,2,-4
-4,-10,-5,7,0,-7,9,11,8,4,2,-3
-4,-9,-5,7,0,-7,9,11,8,4,2,-3
-4,-8,-5,7,0,-6,9,11,8,4,2,-3
-3,-8,-5,6,0,-6,9,11,8,4,2,-2
-4,-8,-5,6,0,-7,9,11,8,4,2,-2
-4,-10,-6,7,1,-8,8,11,8,3,1,-2
-5,-11,-6,8,1,-9,8,11,8,2,1,-2
-5,-11,-6,8,1,-9,8,11,8,2,1,-2
-6,-12,-6,9,0,-9,8,11,8,2,1,-2
-6,-12,-6,9,0,-9,9,11,8,2,1,-2
-6,-12,-6,9,0,-10,9,11,8,3,1,-2
-6,-12,-6,9,0,-9,9,11,8,3,1,-2
-6,-11,-6,8,0,-9,8,11,8,3,2,-2
-5,-11,-6,8,0,-9,9,12,8,4,2,-2
-5,-11,-6,8,1,-8,9,12,8,3,2,-2
-5,-11,-6,8,1,-8,9,12,8,3,2,-2
-5,-10,-5,8,1,-8,9,11,8,3,2,-3
-5,-9,-5,7,1,-7,9,11,7,3,2,-3
-5,-9,-5,6,1,-7,8,10,7,3,2,-3
-5,-10,-6,7,1,-8,8,10,7,3,2,-3
-6,-11,-7,8,1,-8,8,10,7,4,2,-3
-6,-13,-8,9,1,-10,8,10,7,5,2,-3
-6,-14,-8,10,1,-10,8,10,7,6,3,-2
-6,-13,-7,9,1,-10,8,10,8,7,4,-2
-5,-12,-6,8,1,-9,8,10,8,7,4,-1
-4,-11,-6,8,2,-9,8,10,8,6,4,-1
-4,-11,-6,7,2,-9,8,10,8,6,4,0
-4,-10,-6,7,2,-9,8,10,8,5,4,0
-4,-10,-6,7,2,-8,8,10,8,4,3,0
-3,-9,-6,6,2,-8,8,10,8,4,3,0
-4,-10,-6,7,1,-8,8,10,8,5,4,0
-5,-11,-6,8,0,-8,8,10,8,5,4,0
-7,-12,-5,10,0,-9,7,9,7,5,3,0
-8,-13,-5,10,0,-9,7,9,7,6,4,0
-9,-14,-6,11,0,-10,8,9,7,6,4,0
-9,-15,-6,11,0,-10,8,9,7,5,3,0
-9,-15,-6,11,0,-10,8,9,7,4,3,0
-8,-15,-7,11,0,-11,8,9,7,4,4,0
-8,-15,-7,11,0,-11,8,10,7,4,4,0
-7,-13,-6,10,-1,-9,7,9,7,4,3,0
-7,-12,-5,10,-1,-8,7,9,7,4,3,-1
-7,-12,-5,10,0,-8,8,9,7,5,3,0
-7,-12,-6,9,0,-8,8,9,8,5,3,0
-7,-12,-6,9,0,-9,8,9,8,6,3,0
-8,-14,-6,11,0,-10,8,9,8,6,4,0
-9,-14,-6,11,0,-10,8,9,8,7,5,0
-8,-13,-6,11,0,-9,8,9,8,7,5,0
-8,-13,-5,11,0,-9,8,9,8,6,5,0
-8,-14,-6,11,0,-9,8,9,8,5,4,0
-7,-13,-6,11,0,-9,8,9,8,5,4,0
-6,-12,-6,9,0,-8,8,9,8,6,5,1
-6,-12,-6,9,0,-9,8,9,8,7,6,2
-7,-13,-6,10,0,-9,7,8,8,7,6,2
-8,-13,-5,10,0,-9,7,8,7,7,6,1
-8,-12,-5,10,0,-9,7,8,7,7,6,1
-8,-12,-5,10,0,-9,7,8,8,7,6,1
-7,-12,-5,10,0,-8,7,8,8,7,6,1
-7,-11,-4,9,0,-8,8,8,8,7,6,1
-6,-10,-4,9,0,-7,8,8,8,7,6,1
-6,-10,-4,8,0,-7,8,8,8,7,7,2
-6,-10,-4,8,0,-7,9,9,9,7,7,2
-6,-10,-4,8,0,-7,9,9,9,7,6,3
-7,-11,-5,9,0,-8,9,9,9,6,6,3
-7,-12,-5,10,0,-9,8,9,8,6,6,2
-8,-13,-5,10,0,-9,7,8,8,7,7,2
-8,-13,-5,10,0,-9,7,8,8,8,7,3
-8,-13,-5,11,-1,-9,7,8,8,8,7,3
-9,-14,-5,11,-1,-9,7,8,7,8,7,2
-8,-13,-5,11,-2,-8,7,8,7,8,7,2
-8,-12,-5,10,-2,-8,7,8,8,8,7,3
-7,-11,-5,9,-1,-7,8,8,8,8,7,3
-7,-11,-5,9,-1,-7,8,8,9,8,7,3
-7,-11,-5,9,-1,-8,8,8,9,9,7,3
-7,-11,-5,9,0,-8,8,8,9,9,7,3
-7,-11,-4,9,-1,-7,8,8,9,9,7,3
-7,-10,-4,9,-1,-7,8,8,9,9,6,3
-8,-12,-5,10,-1,-8,8,8,8,8,6,3
-10,-14,-5,12,-2,-9,8,7,8,8,6,3
-12,-15,-5,13,-3,-10,7,7,8,7,6,3
-12,-15,-4,13,-3,-9,7,6,8,7,6,3
-11,-15,-3,12,-3,-9,7,6,8,8,7,3
-10,-14,-4,12,-3,-9,7,6,8,8,8,3
-10,-14,-4,11,-2,-8,7,7,8,9,9,3
-9,-13,-4,11,-2,-8,7,7,9,10,9,4
-9,-12,-4,11,-2,-7,8,7,9,11,9,4
-9,-12,-4,11,-2,-7,8,7,9,10,9,4
-9,-12,-4,11,-2,-7,8,7,9,10,9,5
-9,-11,-4,10,-2,-7,8,8,10,11,9,5
-8,-11,-4,10,-1,-7,8,8,10,11,10,5
-8,-11,-4,9,-1,-7,8,8,10,11,10,5
-8,-11,-4,9,-1,-7,9,9,10,10,10,5
-8,-11,-4,9,-1,-7,9,9,11,10,10,6
-8,-10,-3,9,-1,-6,10,9,11,11,10,6
-8,-9,-3,9,-1,-6,10,10,12,12,10,7
-8,-8,-2,9,-2,-5,10,10,13,12,11,7
-7,-7,-1,8,-2,-4,11,10,14,13,11,8
-7,-6,-1,7,-2,-4,11,11,15,14,12,8
-6,-6,-1,6,-2,-3,11,11,15,15,13,9
-6,-5,-1,6,-2,-3,11,11,15,15,14,9
-6,-5,-1,6,-2,-2,11,11,15,16,14,9
-6,-5,-1,6,-1,-2,11,11,15,16,14,10
-5,-5,-1,5,-1,-2,11,11,15,17,15,10
-5,-4,-1,5,-1,-2,10,11,15,18,15,11
-4,-4,-2,4,0,-2,9,11,15,18,16,11
-3,-4,-2,3,0,-2,8,11,15,17,16,11
-3,-4,-2,3,0,-2,8,11,15,17,16,11
-3,-4,-2,3,0,-2,7,10,15,16,15,11
-3,-4,-2,3,0,-2,6,9,14,16,15,11
-2,-4,-2,3,0,-2,6,8,14,15,15,11
-2,-3,-2,2,0,-2,5,7,13,15,14,11
-2,-2,-2,2,0,-1,5,7,13,16,15,11
-2,-2,-2,2,0,-1,5,7,13,16,15,11
-2,-1,-1,2,0,-1,5,7,13,16,16,11
-2,-1,-1,2,0,0,6,8,14,16,16,12
-3,-2,0,2,0,0,6,8,13,16,16,12
-5,-4,0,5,-1,-1,6,7,13,16,16,12
-7,-6,0,6,-2,-2,6,7,12,16,16,11
-8,-6,0,7,-3,-2,6,6,12,16,16,11
-7,-6,0,7,-3,-2,6,6,12,15,15,11
-7,-6,0,6,-2,-2,6,6,12,14,14,10
-7,-6,0,6,-2,-3,6,6,11,13,14,10
-7,-7,0,7,-2,-3,6,6,11,13,14,10
-7,-7,0,7,-3,-3,6,6,12,14,14,10
-7,-6,0,7,-3,-2,7,6,12,15,14,11
-6,-5,0,7,-2,-2,7,7,13,16,15,11
-6,-5,0,6,-2,-2,8,7,13,16,15,12
-6,-6,-1,6,-2,-3,9,7,13,15,15,11
-7,-7,-1,7,-2,-3,9,7,13,15,15,11
-8,-8,-1,8,-2,-4,9,8,12,14,14,10
-9,-9,-1,9,-3,-4,9,8,12,14,14,9
-9,-10,-2,9,-2,-5,9,8,12,14,14,9
-10,-10,-2,10,-2,-5,9,8,12,14,14,9
-10,-10,-2,10,-3,-5,9,7,12,14,13,9
-10,-11,-1,10,-3,-6,8,7,11,13,13,8
-11,-12,-1,11,-4,-6,8,6,10,13,12,8
-12,-12,-1,12,-5,-6,7,5,10,12,12,7
-13,-13,-1,13,-5,-6,7,5,10,12,11,7
-13,-13,-1,13,-5,-6,7,5,10,12,11,7
-12,-12,-1,12,-5,-6,7,5,9,12,11,8
-11,-11,-1,11,-4,-5,7,5,9,12,11,8
-11,-11,-1,11,-4,-5,7,5,9,12,12,8
-11,-11,-1,11,-4,-6,8,6,10,13,12,9
-11,-11,-1,11,-4,-6,8,6,10,13,13,9
-10,-11,-1,10,-3,-6,9,6,10,14,13,9
-10,-11,-1,10,-3,-6,9,6,11,14,14,9
-10,-11,-1,10,-3,-5,9,7,11,14,14,9
-10,-11,-1,10,-3,-5,9,7,10,14,14,9
-11,-12,-1,11,-4,-6,8,7,10,13,13,8
-12,-12,-1,12,-4,-6,8,7,10,13,12,8
-12,-12,-1,12,-4,-6,8,7,10,12,12,8
-12,-12,0,11,-5,-6,8,6,10,12,12,8
-12,-11,0,11,-5,-5,8,6,10,12,12,8
-12,-10,1,11,-6,-4,8,6,9,11,11,8
-12,-10,0,11,-6,-4,8,6,9,12,11,9
-11,-10,0,10,-5,-4,8,6,10,12,12,9
-11,-9,0,9,-5,-4,8,6,10,12,12,9
-10,-8,1,8,-5,-3,8,6,10,12,12,9
-9,-7,1,8,-4,-3,8,7,10,12,12,9
-9,-7,0,8,-4,-3,9,7,10,13,12,9
-9,-8,0,9,-4,-4,9,7,10,13,12,9
-10,-10,0,10,-4,-5,9,7,10,13,12,9
-11,-10,0,11,-5,-5,9,7,10,13,12,9
-11,-10,0,11,-5,-4,9,7,10,13,13,9
-11,-11,-1,11,-4,-5,9,7,10,13,13,9
-11,-12,-2,11,-4,-6,9,7,10,13,13,9
-10,-11,-1,11,-3,-6,9,7,10,12,12,9
-10,-11,-1,10,-3,-5,9,7,10,12,12,9
-10,-11,0,10,-4,-5,9,7,10,12,11,9
-10,-10,0,10,-4,-5,9,7,10,12,11,9
-10,-9,0,9,-4,-4,9,7,10,12,11,9
-9,-9,0,9,-4,-4,9,7,10,12,11,9
-9,-9,0,9,-5,-4,8,7,10,12,11,9
-9,-9,0,9,-5,-4,8,7,9,12,11,9
-9,-9,0,9,-4,-5,8,7,9,12,11,9
-9,-10,-1,9,-4,-5,8,7,9,13,12,9
-9,-9,0,9,-4,-5,8,7,9,13,12,9
-9,-9,0,9,-4,-4,8,7,9,13,12,9
-8,-8,0,8,-4,-3,8,8,10,13,12,10
-8,-8,0,8,-4,-4,9,8,10,13,13,10
-8,-8,0,9,-4,-4,9,8,10,13,13,9
-8,-7,1,8,-4,-3,8,8,10,12,12,9
-7,-6,1,7,-3,-2,8,8,10,12,12,9
-7,-7,0,6,-2,-3,9,9,11,12,13,10
-7,-8,-1,7,-1,-4,9,9,11,12,13,10
-8,-9,-1,8,-2,-4,8,8,10,12,12,10
-9,-10,-2,9,-2,-5,8,8,9,11,12,9
-9,-10,-2,9,-2,-6,9,9,9,10,11,9
-7,-10,-4,8,0,-6,9,10,9,10,10,9
-6,-10,-5,8,0,-7,10,12,10,11,11,9
-5,-11,-6,9,1,-8,11,15,12,13,11,8
-4,-10,-7,7,2,-8,12,19,15,16,12,9
-2,-8,-7,5,3,-7,14,25,20,20,15,10
0,-7,-7,3,4,-6,16,32,26,25,19,13
4,-4,-9,0,7,-6,17,40,33,31,25,17
10,0,-10,-5,11,-5,18,46,40,40,34,24
17,5,-11,-11,15,-3,15,50,47,52,46,33
25,13,-11,-19,19,1,8,49,53,64,60,43
32,24,-8,-28,21,8,-1,42,58,77,75,56
39,37,-2,-38,21,18,-12,32,61,91,92,70
45,51,5,-49,20,29,-22,22,65,104,110,85
52,65,12,-59,21,39,-31,14,68,118,127,100
57,76,18,-67,21,47,-37,8,71,129,142,112
60,84,23,-72,20,54,-43,2,71,138,154,122
62,90,28,-76,18,59,-48,-3,67,144,164,131
63,97,34,-79,15,66,-53,-10,62,150,174,140
61,105,44,-83,9,75,-58,-17,59,157,184,150
56,113,57,-84,0,86,-62,-27,57,163,192,157
48,119,70,-83,-10,95,-65,-36,56,166,196,162
41,122,80,-82,-19,102,-67,-44,53,164,194,162
34,120,85,-77,-25,103,-66,-50,48,154,184,156
26,111,84,-69,-28,98,-61,-52,39,137,165,142
18,97,79,-57,-30,88,-54,-52,28,114,140,123
10,83,74,-46,-31,78,-47,-52,16,90,113,102
3,69,67,-35,-32,68,-40,-50,5,66,88,83
-3,55,60,-25,-31,58,-33,-47,-4,46,66,65
-8,43,51,-17,-29,48,-27,-42,-10,31,50,51
-10,34,44,-12,-26,40,-21,-35,-12,22,39,42
-11,28,38,-9,-23,34,-16,-29,-12,17,33,36
-11,23,33,-7,-20,29,-13,-24,-10,14,29,31
-10,20,29,-6,-19,25,-11,-20,-8,12,26,28
-10,18,27,-4,-17,22,-9,-17,-6,12,25,26
-9,16,24,-3,-16,20,-8,-14,-3,12,23,24
-8,14,22,-2,-15,18,-7,-12,-1,12,22,22
-8,12,21,-2,-14,17,-7,-10,0,12,20,20
-7,12,19,-2,-13,16,-6,-9,0,12,19,19
-7,11,18,-2,-12,14,-5,-7,0,12,18,18
-9,9,17,0,-12,13,-4,-6,0,11,17,17
-10,7,16,1,-12,12,-3,-5,1,11,17,16
-11,7,16,2,-12,11,-2,-5,2,11,17,15
-10,7,16,1,-12,12,-2,-4,3,11,17,15
-10,7,16,1,-12,12,-2,-4,3,11,16,14
-11,6,16,2,-12,11,-2,-4,3,10,15,14
-12,4,16,3,-13,11,-2,-4,2,9,14,13
-12,4,15,3,-13,10,-2,-3,2,8,13,13
-11,5,15,3,-12,10,-1,-3,2,8,13,12
-11,5,15,2,-12,10,-1,-3,2,8,13,12
-10,5,15,2,-12,10,-1,-3,2,8,13,12
-10,5,15,2,-12,10,-1,-3,2,8,12,12
-10,4,14,3,-12,9,0,-3,2,7,12,11
-10,3,14,3,-12,9,0,-2,2,7,11,11
-11,2,14,4,-12,8,-1,-2,2,6,10,10
-11,2,14,4,-12,8,-1,-3,1,6,10,10
-11,2,13,4,-12,8,-1,-3,1,5,10,9
-11,2,13,4,-12,8,-1,-3,1,5,10,9
-12,1,13,5,-12,7,-1,-3,1,5,10,9
-12,1,13,5,-12,7,-1,-3,1,5,10,9
-11,1,13,4,-12,7,-1,-3,1,5,10,9
-11,1,13,4,-12,7,-1,-3,1,5,10,9
-11,1,13,4,-11,7,-1,-3,1,5,10,9
-10,2,13,3,-11,8,-1,-2,1,5,10,9
-10,3,13,2,-10,8,-1,-2,1,5,10,9
-10,3,13,3,-11,8,-1,-3,1,5,10,9
-12,2,13,4,-12,8,-1,-3,0,6,10,9
-13,1,13,5,-13,8,-1,-4,0,6,10,9
-13,1,14,5,-13,7,-1,-4,0,6,10,9
-13,0,14,5,-13,7,-1,-4,0,5,10,9
-13,1,14,5,-13,7,-2,-4,0,5,10,9
-13,1,15,5,-13,7,-2,-4,0,4,10,9
-13,2,15,5,-12,8,-2,-4,0,4,9,8
-12,2,15,4,-12,8,-1,-4,0,4,9,8
-12,3,15,4,-12,9,-1,-4,0,4,9,8
-11,3,14,3,-12,9,-1,-4,0,4,9,8
-11,3,14,3,-12,9,-1,-4,1,5,9,8
-10,4,14,3,-12,10,-1,-4,1,5,9,8
-11,3,14,3,-12,9,-1,-4,1,5,9,8
-11,3,14,4,-12,9,-1,-4,1,5,10,9
-11,3,14,3,-12,9,-1,-4,1,5,10,9
-12,3,14,4,-12,8,-1,-4,1,5,10,9
-12,2,14,4,-12,8,-1,-4,1,5,10,9
-12,2,14,4,-12,8,-1,-4,1,5,10,9
-12,2,14,4,-13,8,-1,-4,1,5,10,9
-11,3,14,4,-13,8,-1,-4,1,5,10,9
-10,4,15,3,-12,9,-1,-4,1,5,10,9
-10,4,15,2,-12,9,-1,-4,1,6,10,9
-10,5,15,2,-12,9,-1,-4,1,6,10,9
-10,5,15,2,-12,10,-1,-4,1,6,10,9
-9,5,15,2,-12,10,-1,-4,1,6,10,9
-9,6,16,1,-12,11,-1,-4,1,6,11,10
-9,7,16,1,-12,11,-1,-4,1,7,11,10
-9,7,16,1,-12,12,-1,-4,1,7,12,10
-8,7,16,0,-11,12,-1,-4,1,6,12,10
-7,8,16,0,-11,12,-1,-4,1,6,12,10
-6,9,16,-1,-10,12,-1,-3,2,6,12,11
-6,9,16,-1,-10,12,-1,-3,2,6,11,11
-8,7,16,0,-11,11,-2,-3,1,5,11,10
-9,6,16,1,-11,11,-2,-3,1,5,10,10
-9,5,16,2,-12,11,-2,-3,1,6,11,10
-10,5,16,3,-13,11,-2,-4,1,6,11,10
-11,5,17,3,-13,11,-3,-4,1,6,11,10
-10,6,17,2,-13,11,-3,-4,1,6,11,10
-11,6,17,2,-13,11,-3,-4,1,6,11,10
-12,5,17,3,-14,11,-4,-5,0,6,11,10
-12,4,17,3,-14,11,-4,-5,0,7,12,10
-12,5,18,3,-14,12,-4,-5,0,8,12,10
-12,6,19,2,-14,13,-4,-5,0,8,13,10
-11,7,19,1,-14,13,-4,-5,1,8,13,10
-11,8,19,1,-14,13,-4,-4,1,8,14,11
-10,8,18,1,-13,13,-3,-3,2,9,15,12
-9,9,19,0,-13,14,-3,-3,3,9,15,12
-9,11,21,-1,-14,16,-3,-3,2,8,15,12
-9,12,22,-2,-15,17,-3,-3,2,8,15,13
-9,12,22,-2,-14,17,-2,-3,3,9,15,13
-9,12,22,-2,-15,17,-3,-4,3,9,15,13
-10,12,23,-1,-16,17,-3,-5,2,9,15,13
-11,11,22,-1,-16,17,-4,-5,2,9,15,13
-11,12,23,-1,-17,18,-4,-5,2,9,15,13
-10,13,23,-2,-16,18,-4,-4,3,10,16,13
-9,13,22,-2,-15,18,-3,-3,4,11,17,14
-8,13,22,-3,-15,18,-2,-3,4,11,17,15
-8,14,23,-3,-15,18,-2,-3,5,11,18,16
-8,15,23,-3,-15,19,-2,-3,5,11,18,16
-8,14,23,-3,-15,19,-3,-3,5,11,18,16
-9,14,24,-3,-16,19,-3,-3,5,11,18,16
-8,15,24,-4,-16,20,-4,-3,5,11,18,17
-8,16,24,-4,-16,21,-4,-3,5,12,18,17
-9,16,25,-4,-16,21,-4,-3,5,12,19,17
-9,16,26,-3,-17,21,-4,-3,5,12,19,17
-9,16,26,-3,-17,21,-4,-3,6,13,20,18
-9,17,26,-4,-17,21,-4,-3,6,14,21,18
-9,18,27,-4,-17,22,-4,-3,6,14,21,18
-9,20,29,-5,-18,24,-4,-3,7,15,22,19
-8,21,29,-6,-18,26,-4,-3,7,15,22,19
-8,22,29,-7,-18,26,-4,-3,7,16,23,20
-8,22,30,-7,-18,26,-4,-3,7,16,23,21
-8,23,31,-8,-18,27,-4,-3,8,16,23,21
-8,24,33,-8,-19,29,-5,-3,8,17,24,22
-8,25,34,-9,-20,30,-5,-3,8,17,24,22
-7,26,34,-9,-20,30,-5,-2,8,18,25,22
-7,26,34,-9,-20,30,-5,-2,8,18,25,23
-7,27,34,-10,-20,30,-6,-2,8,18,26,24
-7,28,34,-10,-20,31,-6,-2,9,19,26,24
-6,29,35,-11,-20,32,-6,-2,9,19,27,25
-5,30,35,-12,-20,33,-6,-2,10,20,28,25
-5,31,36,-13,-20,34,-6,-2,10,20,28,26
-4,32,37,-14,-20,34,-6,-2,10,20,28,26
-4,31,36,-14,-20,34,-6,-2,11,20,29,27
-5,31,35,-13,-19,33,-6,-2,11,21,29,27
-5,30,35,-13,-19,33,-6,-2,11,21,30,28
-5,31,36,-13,-19,34,-6,-2,11,22,30,29
-5,31,36,-13,-19,34,-7,-2,11,22,30,29
-5,31,36,-13,-19,34,-7,-2,11,22,31,29
-5,31,36,-13,-19,34,-7,-2,11,23,31,29
-4,32,36,-14,-19,35,-7,-2,11,23,31,30
-3,34,37,-16,-19,36,-8,-2,12,23,32,30
-2,35,37,-17,-19,36,-8,-1,12,23,32,30
-1,35,36,-17,-18,36,-8,-1,12,23,32,30
-1,36,36,-18,-18,37,-8,0,12,23,33,31
-1,36,37,-18,-18,37,-8,0,12,23,33,31
-1,36,36,-18,-18,36,-7,0,12,23,33,31
-1,35,35,-17,-17,35,-7,0,12,23,33,31
0,35,34,-18,-16,35,-6,0,12,23,33,31
1,35,33,-18,-15,34,-5,1,13,24,34,31
1,34,32,-18,-15,33,-5,1,13,24,33,31
0,32,32,-16,-15,32,-6,1,12,23,32,30
0,31,31,-15,-15,32,-6,1,12,22,31,29
-1,30,31,-14,-15,31,-7,1,11,21,30,29
-1,29,30,-14,-14,30,-7,1,11,21,30,28
0,29,29,-15,-14,29,-6,1,11,21,30,28
1,29,28,-15,-13,28,-6,2,11,21,30,28
1,28,26,-15,-12,27,-6,2,11,21,30,28
1,27,25,-14,-11,26,-5,3,11,20,29,27
1,25,24,-13,-11,25,-5,3,11,20,28,26
1,24,23,-13,-10,24,-5,4,11,20,28,26
2,24,21,-13,-9,23,-4,5,11,20,28,25
2,23,20,-13,-8,22,-4,5,11,20,28,25
2,22,19,-12,-7,21,-4,5,10,20,27,24
2,20,18,-12,-7,19,-4,5,10,19,26,23
3,19,16,-12,-6,18,-3,6,10,19,26,22
3,17,14,-11,-5,16,-3,6,10,18,25,21
3,16,13,-11,-4,15,-2,6,10,18,24,20
4,16,12,-11,-2,14,-2,7,10,17,23,19
4,15,11,-11,-1,13,-1,8,10,17,22,18
5,15,9,-10,-1,12,0,8,10,16,21,17
5,13,7,-10,0,10,0,9,10,15,20,16
5,12,6,-9,0,9,0,9,10,14,19,15
5,10,4,-8,1,7,1,9,10,14,18,14
5,8,3,-7,1,5,1,9,10,13,17,13
5,7,2,-6,2,4,2,9,10,13,16,12
5,6,1,-5,3,3,2,9,9,13,16,12
4,5,0,-4,3,3,3,9,9,12,15,11
4,4,0,-3,3,2,3,9,9,12,14,10
3,2,-1,-2,2,1,3,9,8,11,13,9
2,1,-2,-1,2,0,4,9,8,10,13,8
2,0,-2,-1,2,-1,4,9,8,10,12,7
2,0,-2,-1,2,-1,4,9,8,10,12,7
2,0,-2,-1,2,-1,5,8,8,10,12,6
2,0,-2,-1,3,-1,5,8,7,10,11,6
2,0,-2,-1,3,-1,5,8,7,9,10,5
2,0,-2,-1,3,-1,5,8,7,8,9,4
1,-1,-2,0,3,-2,5,8,7,7,8,3
1,-1,-3,0,3,-2,5,7,7,7,8,3
0,-2,-3,1,2,-3,6,7,7,6,7,2
0,-4,-4,2,2,-4,6,7,6,6,6,1
-1,-6,-4,3,2,-5,6,7,6,5,6,0
-1,-6,-5,4,2,-5,6,7,6,5,5,0
-1,-6,-5,4,2,-6,6,7,6,5,5,0
-1,-6,-5,4,2,-6,6,7,6,5,5,0
-1,-6,-4,4,2,-5,6,7,6,5,5,0
-1,-5,-4,3,2,-5,6,7,6,5,5,0
-1,-5,-4,3,2,-4,6,7,5,5,5,0
-2,-5,-4,3,1,-4,5,6,5,4,4,-1
-2,-6,-4,4,1,-4,5,6,5,4,4,-1
-2,-5,-3,3,1,-4,5,6,5,4,4,-1
-1,-4,-3,3,1,-3,5,6,5,5,4,-1
0,-3,-3,2,1,-3,5,6,5,5,4,-1
0,-3,-3,2,1,-3,5,6,5,4,4,-1
-1,-4,-3,3,1,-4,5,6,5,4,3,-1
-3,-5,-3,4,0,-4,5,6,4,3,3,-2
-3,-6,-3,4,0,-4,5,6,4,3,3,-2
-3,-6,-3,4,0,-4,5,6,4,3,3,-2
-3,-6,-4,5,0,-5,5,5,4,3,2,-2
-4,-7,-4,5,0,-5,5,5,4,3,2,-2
-4,-7,-4,6,0,-5,4,5,4,3,2,-2
-4,-7,-4,6,0,-5,4,5,4,3,2,-2
-3,-6,-4,5,0,-5,4,6,5,3,3,-1
-3,-5,-3,5,0,-5,4,6,5,3,3,-1
-3,-5,-3,5,0,-4,4,6,5,3,3,-1
-3,-5,-2,5,0,-4,4,6,5,3,3,-1
-4,-6,-2,6,0,-4,4,6,5,3,3,-1
-5,-7,-2,7,-1,-5,4,6,5,3,3,-1
-5,-8,-3,7,0,-6,4,6,5,3,3,-1
-5,-9,-4,7,0,-6,4,6,5,3,3,-2
-5,-8,-4,7,0,-6,4,6,5,3,2,-2
-5,-7,-3,6,0,-5,4,5,4,3,2,-3
-4,-7,-3,5,0,-5,4,6,5,3,2,-3
-4,-8,-4,5,1,-6,5,6,5,4,3,-2
-3,-7,-3,4,1,-5,5,7,6,4,3,-2
-3,-5,-2,3,0,-3,5,7,6,3,2,-2
-3,-5,-2,3,0,-3,5,7,6,3,2,-3
-3,-6,-3,4,0,-4,5,7,6,3,2,-3
-4,-7,-3,5,0,-4,4,7,6,3,2,-3
-4,-7,-3,5,0,-5,4,7,6,3,2,-3
-4,-7,-3,5,0,-5,4,7,6,2,2,-3
-3,-6,-3,5,0,-5,4,7,6,2,2,-3
-2,-6,-3,4,0,-5,5,7,6,2,2,-3
-2,-5,-3,3,1,-4,5,7,6,2,2,-2
-2,-5,-3,3,1,-4,5,8,5,2,1,-2
-4,-7,-3,5,0,-5,5,8,5,2,1,-3
-4,-7,-3,5,0,-6,5,7,5,2,0,-4
-3,-6,-3,4,1,-5,5,7,5,2,0,-4
-2,-6,-3,4,1,-5,5,7,5,2,0,-4
-3,-7,-4,5,0,-5,5,7,5,2,0,-4
-4,-7,-4,5,0,-6,4,7,4,1,0,-4
-4,-7,-4,5,0,-5,5,7,4,1,0,-4
-3,-7,-4,5,0,-5,5,7,4,1,0,-4
-3,-7,-4,5,0,-5,5,7,4,1,0,-4
-3,-6,-3,4,0,-4,5,7,4,0,0,-4
-2,-5,-3,3,0,-4,5,7,4,0,0,-5
-2,-5,-3,3,1,-4,5,7,5,0,0,-5
-2,-6,-4,4,1,-5,5,7,4,0,0,-5
-2,-6,-5,4,2,-6,5,7,4,0,0,-5
-2,-7,-5,4,2,-7,5,7,4,0,0,-4
-3,-7,-5,5,1,-7,5,7,4,0,0,-5
-5,-9,-5,7,1,-8,5,7,3,0,-1,-5
-5,-11,-6,8,1,-9,5,7,3,0,-1,-5
-5,-11,-7,8,2,-9,5,7,4,0,-1,-5
-4,-11,-7,8,2,-9,5,8,4,0,-1,-6
-4,-10,-7,8,2,-9,5,8,3,0,-1,-6
-4,-10,-7,7,2,-9,5,8,3,0,-1,-6
-4,-11,-8,7,2,-9,5,8,3,0,-1,-6
-4,-11,-8,7,2,-9,5,8,3,0,-1,-6
-3,-11,-8,7,2,-9,5,8,2,0,-2,-6
-3,-10,-7,6,2,-8,5,8,2,-1,-2,-6
-3,-9,-6,6,2,-8,5,7,2,-1,-2,-6
-3,-9,-7,6,3,-8,5,7,2,-1,-2,-6
-3,-9,-7,6,3,-8,5,7,1,-1,-2,-7
-3,-8,-6,5,2,-7,5,7,1,-1,-2,-7
-3,-7,-5,5,1,-6,5,6,1,-1,-2,-7
-3,-7,-5,5,1,-6,4,6,1,-1,-2,-7
-2,-7,-5,5,2,-7,4,6,1,-1,-2,-7
-2,-8,-6,5,2,-7,5,6,1,-1,-2,-7
-2,-9,-7,6,2,-8,5,6,1,-1,-2,-7
-2,-8,-7,6,2,-7,5,6,1,-1,-2,-7
-1,-7,-6,5,3,-7,5,6,1,-2,-3,-8
-1,-7,-6,4,3,-6,5,6,0,-2,-3,-8
-1,-7,-6,4,3,-6,5,6,0,-3,-4,-8
-1,-8,-7,5,3,-7,5,6,0,-3,-4,-8
-3,-10,-7,7,2,-9,4,6,0,-3,-4,-9
-5,-12,-7,9,1,-10,3,5,-1,-4,-5,-9
-5,-12,-7,9,1,-10,3,4,-1,-4,-5,-10
-5,-12,-7,9,1,-10,3,4,-1,-4,-4,-9
-5,-12,-8,9,1,-10,4,4,-1,-5,-4,-9
-5,-12,-8,9,1,-11,4,4,-1,-5,-5,-9
-5,-12,-8,9,1,-11,4,4,-1,-5,-5,-9
-4,-12,-8,9,1,-11,4,4,-1,-5,-5,-9
-3,-11,-8,8,2,-10,4,4,-1,-5,-5,-9
-3,-11,-8,7,2,-10,4,4,-1,-5,-5,-9
-3,-12,-9,8,3,-10,4,4,-1,-5,-6,-10
-3,-11,-9,8,3,-10,4,4,-1,-5,-6,-10
-2,-11,-9,7,4,-10,5,4,-1,-5,-6,-10
-2,-11,-9,7,4,-10,5,4,-1,-6,-7,-10
-2,-11,-9,7,4,-10,5,4,-1,-6,-7,-10
-2,-11,-9,7,4,-10,5,5,-1,-6,-7,-10
-1,-10,-9,6,4,-10,6,6,-1,-6,-6,-10
0,-9,-10,5,5,-10,6,6,0,-5,-6,-9
0,-9,-10,5,5,-10,6,6,0,-5,-6,-9
-1,-10,-9,6,4,-10,5,5,-1,-6,-6,-10
-3,-11,-9,7,3,-10,5,4,-1,-6,-6,-10
-4,-12,-8,8,2,-10,4,4,-2,-7,-6,-10
-5,-12,-8,9,2,-10,4,4,-2,-7,-6,-10
-5,-12,-8,9,2,-10,4,4,-2,-7,-6,-10
-5,-12,-8,9,2,-10,4,3,-2,-7,-7,-10
-5,-12,-8,9,2,-10,4,3,-2,-7,-7,-10
-5,-12,-8,9,2,-10,4,3,-2,-7,-7,-10
-5,-12,-8,9,2,-10,4,3,-2,-7,-7,-10
-5,-12,-8,9,2,-10,4,3,-2,-7,-7,-10
-4,-12,-8,8,2,-10,4,3,-2,-7,-7,-10
-4,-12,-8,8,2,-10,4,3,-2,-7,-7,-10
-5,-13,-8,10,2,-11,3,3,-3,-8,-8,-11
-6,-13,-8,10,2,-11,3,3,-3,-8,-8,-11
-5,-13,-8,10,2,-11,3,3,-3,-8,-8,-11
-5,-13,-7,9,1,-10,4,3,-3,-8,-8,-11
-5,-13,-7,9,1,-10,4,3,-3,-8,-8,-11
-5,-13,-7,9,1,-10,4,3,-3,-8,-8,-11
-5,-13,-8,9,1,-10,4,3,-3,-8,-8,-11
-5,-13,-7,9,1,-10,4,3,-3,-8,-8,-11
-5,-12,-7,9,1,-10,4,3,-3,-8,-8,-11
-5,-12,-7,9,1,-10,4,2,-3,-8,-8,-11
-5,-12,-6,9,1,-9,4,2,-3,-8,-8,-11
-6,-12,-6,9,0,-9,4,2,-3,-8,-8,-11
-5,-12,-7,8,1,-9,4,2,-3,-8,-8,-11
-5,-11,-7,8,1,-9,4,2,-3,-7,-8,-11
-5,-12,-7,8,1,-9,3,2,-2,-7,-8,-10
-5,-12,-7,8,1,-9,3,2,-2,-7,-7,-10
-4,-11,-7,7,2,-9,4,2,-2,-6,-7,-10
-4,-11,-7,7,2,-9,4,2,-2,-6,-7,-10
-4,-11,-7,7,2,-9,4,3,-2,-6,-7,-10
-4,-11,-7,7,2,-10,4,3,-2,-6,-7,-10
-4,-11,-7,8,2,-10,4,3,-2,-7,-7,-10
-4,-11,-7,8,2,-10,4,3,-2,-7,-7,-10
-4,-11,-7,7,2,-9,4,3,-2,-7,-7,-10
-3,-11,-7,7,2,-9,4,3,-2,-7,-7,-10
-5,-12,-7,9,1,-10,4,3,-2,-7,-8,-10
-6,-13,-7,10,1,-10,3,2,-2,-7,-8,-11
-5,-12,-8,9,1,-10,4,2,-2,-7,-8,-10
-5,-12,-8,9,2,-10,4,2,-2,-7,-8,-10
-4,-11,-8,8,2,-10,4,2,-2,-7,-8,-10
-4,-11,-7,8,2,-10,4,3,-2,-7,-8,-10
-4,-10,-7,8,1,-9,4,3,-1,-6,-7,-9
-4,-10,-6,8,1,-8,4,3,0,-6,-7,-9
-4,-9,-6,7,1,-8,5,4,0,-5,-7,-9
-4,-8,-5,6,1,-7,5,4,0,-5,-6,-8
-3,-6,-5,5,1,-6,6,5,1,-4,-6,-8
-3,-6,-4,4,1,-5,7,5,2,-4,-6,-7
-3,-6,-4,4,1,-5,7,5,2,-4,-5,-7
-2,-5,-4,3,1,-5,7,5,2,-4,-5,-7
0,-5,-4,2,2,-4,7,6,3,-3,-4,-7
0,-4,-5,2,3,-4,7,6,3,-3,-4,-7
0,-5,-5,2,3,-5,6,6,3,-3,-4,-7
0,-5,-6,2,4,-6,5,6,3,-3,-4,-6
1,-5,-7,2,4,-6,5,5,3,-3,-4,-6
1,-5,-8,2,5,-7,4,5,2,-3,-4,-6
1,-6,-8,2,5,-7,3,4,1,-3,-4,-6
0,-6,-7,3,4,-7,2,3,0,-4,-5,-7
0,-6,-7,3,3,-7,1,2,-1,-5,-6,-7
0,-5,-7,3,3,-6,1,1,-1,-5,-6,-7
0,-5,-7,3,3,-6,1,0,-2,-6,-6,-7
0,-6,-7,3,3,-6,0,0,-2,-6,-6,-7
-1,-6,-7,4,3,-6,0,0,-2,-6,-6,-8
-1,-8,-7,4,3,-7,1,0,-2,-6,-6,-7
-2,-9,-8,5,3,-8,2,1,-1,-5,-6,-7
-2,-8,-7,5,2,-7,1,0,-1,-5,-6,-8
-2,-8,-6,5,2,-7,1,0,-1,-5,-5,-8
-2,-8,-7,5,2,-7,1,1,-1,-4,-5,-7
-2,-7,-7,5,2,-7,2,1,-2,-4,-5,-7
-1,-6,-6,4,2,-7,2,0,-2,-5,-5,-8
-1,-6,-6,4,2,-6,2,0,-3,-6,-6,-8
-2,-6,-6,4,2,-6,2,0,-3,-6,-6,-8
-2,-6,-6,4,2,-6,2,0,-2,-6,-6,-8
-1,-5,-5,4,2,-6,2,0,-2,-6,-6,-8
-1,-5,-5,4,2,-6,2,1,-1,-7,-7,-8
-1,-6,-6,4,2,-6,2,1,-2,-7,-7,-9
-1,-6,-6,4,2,-7,2,0,-2,-8,-8,-9
-1,-7,-7,4,2,-7,2,0,-3,-8,-9,-9
-1,-8,-8,5,3,-8,3,1,-3,-8,-9,-10
-1,-9,-9,5,3,-9,3,1,-3,-8,-9,-10
-1,-10,-10,6,3,-10,3,0,-3,-9,-10,-11
-1,-11,-11,6,4,-11,3,0,-4,-10,-10,-12
-1,-12,-12,7,5,-12,3,0,-4,-10,-11,-12
-2,-13,-12,7,5,-12,2,0,-5,-11,-11,-13
-2,-13,-13,8,5,-13,2,-1,-5,-11,-11,-13
-2,-13,-13,8,5,-13,2,-1,-6,-11,-12,-13
-2,-13,-12,8,5,-13,2,-1,-6,-11,-12,-13
-2,-12,-12,7,5,-13,2,-2,-6,-11,-12,-13
-1,-12,-12,7,5,-12,2,-2,-6,-11,-12,-13
-1,-12,-11,6,5,-12,2,-2,-6,-11,-12,-13
-1,-10,-10,6,4,-11,1,-3,-7,-12,-12,-13
-1,-10,-10,6,4,-11,1,-3,-7,-12,-13,-13
-1,-11,-10,7,4,-11,1,-3,-7,-12,-13,-13
-2,-12,-11,8,4,-12,1,-2,-7,-12,-13,-13
-2,-13,-11,8,4,-12,1,-2,-7,-12,-13,-13
-2,-12,-11,8,4,-11,1,-2,-6,-12,-13,-13
-2,-13,-11,8,4,-12,2,-1,-6,-12,-13,-13
-2,-14,-13,9,4,-13,2,-1,-6,-12,-13,-13
-2,-15,-14,9,5,-14,2,-1,-6,-12,-13,-13
-2,-15,-14,9,5,-14,2,-1,-6,-12,-13,-13
-2,-14,-13,9,5,-14,2,-1,-6,-12,-13,-13
-1,-14,-13,9,5,-14,2,-1,-6,-12,-12,-13
-1,-14,-13,9,5,-14,2,-1,-6,-12,-12,-13
-1,-13,-12,8,4,-13,2,-1,-6,-12,-12,-13
-1,-12,-11,8,4,-12,2,-1,-6,-12,-12,-14
-1,-12,-11,7,4,-11,2,-1,-6,-12,-13,-14
-1,-12,-11,7,4,-12,2,-1,-6,-11,-13,-14
0,-12,-13,7,6,-12,3,0,-5,-11,-12,-13
0,-12,-13,6,6,-12,3,0,-5,-10,-12,-13
0,-11,-12,6,6,-12,2,0,-5,-10,-12,-13
0,-11,-11,6,5,-11,2,-1,-5,-11,-12,-13
-1,-11,-11,7,4,-11,2,-1,-5,-11,-13,-14
-2,-11,-10,7,3,-11,2,-1,-6,-12,-13,-14
-2,-12,-10,8,3,-11,2,-2,-6,-12,-14,-14
-3,-13,-10,9,3,-12,2,-2,-6,-13,-14,-15
-4,-14,-11,9,3,-13,2,-2,-6,-13,-14,-15
-3,-14,-11,9,3,-13,2,-2,-7,-13,-14,-15
-3,-14,-12,9,4,-13,2,-2,-7,-13,-14,-15
-2,-14,-12,9,4,-13,2,-2,-7,-13,-14,-15
-2,-14,-12,8,4,-13,2,-1,-7,-13,-14,-15
-1,-13,-12,8,5,-13,3,-1,-6,-12,-14,-14
0,-13,-12,7,5,-13,3,0,-6,-12,-14,-14
0,-12,-13,7,6,-13,4,0,-5,-12,-14,-14
0,-12,-13,6,6,-12,4,0,-5,-12,-13,-14
0,-11,-12,6,5,-11,4,0,-6,-12,-13,-14
-1,-11,-11,6,4,-11,3,-1,-6,-13,-14,-14
-2,-12,-10,7,4,-11,3,-1,-6,-13,-14,-14
-2,-12,-10,7,3,-11,3,-1,-6,-13,-14,-14
-2,-12,-10,7,3,-12,3,-1,-6,-13,-14,-14
-1,-11,-10,7,4,-11,3,0,-6,-12,-14,-14
-1,-11,-10,6,4,-11,3,0,-5,-12,-13,-14
-1,-12,-11,7,4,-12,3,0,-5,-12,-13,-14
-2,-13,-12,8,4,-13,3,0,-5,-12,-13,-14
-1,-13,-12,8,5,-12,3,0,-5,-12,-13,-14
-1,-13,-12,7,5,-12,3,0,-5,-12,-13,-14
-1,-13,-12,7,5,-12,3,0,-5,-12,-13,-14
-1,-14,-13,7,5,-13,3,0,-5,-12,-14,-14
0,-14,-13,7,6,-13,3,1,-5,-12,-14,-15
0,-14,-14,7,7,-14,4,3,-4,-11,-14,-15
2,-14,-16,6,8,-14,6,7,-2,-10,-13,-15
4,-13,-17,5,10,-14,9,12,1,-8,-11,-14
7,-11,-18,2,12,-14,11,19,6,-3,-8,-12
10,-9,-19,0,14,-13,14,27,13,2,-3,-9
15,-6,-21,-4,17,-13,15,33,20,9,2,-5
20,-2,-22,-9,21,-12,14,38,26,17,10,1
27,4,-23,-15,24,-10,9,40,31,28,21,10
34,13,-21,-23,27,-5,2,37,36,39,33,20
41,24,-17,-32,28,3,-8,29,39,51,48,32
48,37,-11,-41,29,13,-19,19,42,64,64,46
54,49,-5,-51,29,23,-29,9,45,77,81,60
59,61,1,-59,29,31,-38,1,48,90,97,74
64,71,6,-67,29,39,-45,-4,50,102,111,86
69,81,11,-74,28,46,-50,-9,49,110,123,96
73,89,15,-80,28,52,-55,-15,46,116,134,106
75,96,20,-85,27,58,-60,-21,42,122,144,115
73,103,29,-87,21,66,-65,-28,40,128,154,124
68,110,42,-88,12,77,-69,-37,39,135,162,132
61,116,55,-88,2,86,-72,-46,39,139,167,138
53,119,65,-86,-6,92,-74,-53,37,138,166,138
46,117,71,-81,-12,94,-73,-59,33,130,158,133
37,108,71,-72,-16,89,-68,-61,25,114,140,120
28,95,66,-61,-18,80,-61,-61,14,92,116,101
20,80,59,-49,-20,69,-53,-60,2,68,90,81
12,65,53,-38,-21,58,-45,-58,-8,44,65,62
6,52,46,-28,-21,49,-38,-54,-17,24,44,44
2,42,39,-21,-19,41,-30,-48,-22,10,28,31
1,35,33,-17,-16,35,-23,-41,-23,2,17,21
0,29,28,-14,-14,29,-19,-36,-23,-2,11,15
0,25,24,-12,-12,25,-17,-31,-22,-5,7,10
0,21,21,-10,-10,21,-15,-27,-20,-6,4,8
-1,18,18,-8,-10,18,-14,-24,-17,-6,2,5
-1,15,16,-7,-9,15,-13,-22,-16,-7,0,3
-1,13,13,-5,-8,13,-11,-19,-14,-7,-1,2
-1,9,11,-4,-7,10,-9,-17,-13,-7,-2,0
-1,7,8,-3,-5,8,-8,-15,-12,-7,-3,-1
-2,5,6,-2,-4,6,-6,-13,-11,-8,-4,-3
-2,3,5,-1,-4,4,-5,-12,-11,-8,-5,-4
-3,2,4,0,-4,3,-5,-11,-10,-9,-6,-5
-4,2,5,1,-4,3,-4,-11,-10,-9,-7,-5
-3,2,5,1,-4,3,-4,-10,-10,-9,-7,-6
-3,2,5,1,-5,3,-3,-10,-9,-9,-8,-6
-3,1,5,1,-5,3,-3,-10,-9,-9,-8,-6
-3,1,5,1,-4,3,-2,-9,-8,-8,-8,-7
-2,2,4,0,-3,4,-2,-9,-8,-8,-8,-7
-1,3,4,-1,-3,4,-2,-8,-8,-9,-8,-7
-2,2,4,0,-3,3,-2,-8,-8,-9,-8,-7
-3,0,3,1,-3,2,-2,-8,-8,-9,-8,-7
-4,-1,4,2,-4,1,-2,-8,-8,-10,-9,-8
-4,0,4,2,-4,2,-1,-8,-8,-10,-9,-8
-3,0,4,2,-4,2,-1,-8,-8,-11,-10,-9
-3,0,4,2,-4,2,-1,-8,-8,-11,-10,-9
-3,0,4,1,-4,2,-1,-8,-9,-12,-11,-9
-3,1,5,1,-4,3,-1,-8,-9,-12,-12,-10
-3,1,5,0,-4,4,-1,-8,-9,-12,-12,-10
-3,1,5,0,-5,4,-1,-8,-9,-12,-12,-10
-4,1,6,1,-5,4,-1,-8,-9,-12,-12,-10
-4,1,6,1,-5,4,-1,-8,-9,-12,-12,-10
-4,2,6,1,-5,4,-1,-8,-9,-12,-12,-10
-4,1,5,1,-5,3,-1,-8,-9,-12,-12,-10
-4,0,4,2,-5,2,-1,-8,-9,-12,-12,-10
-4,-1,4,2,-5,1,-1,-8,-8,-12,-12,-10
-4,-1,3,2,-4,1,-1,-7,-8,-12,-12,-10
-4,-1,3,2,-4,1,-1,-7,-8,-12,-12,-10
-4,0,4,2,-4,1,-1,-7,-8,-12,-12,-10
-4,0,4,2,-4,2,-1,-7,-8,-12,-12,-9
-4,0,5,2,-4,2,-1,-7,-8,-12,-12,-9
-4,0,5,2,-4,2,-1,-8,-8,-12,-11,-9
-4,0,5,2,-4,2,-1,-8,-8,-12,-11,-9
-4,0,5,2,-4,2,-1,-8,-8,-12,-11,-9
-4,0,5,2,-5,2,-1,-8,-8,-12,-11,-9
-4,0,5,1,-5,2,-1,-8,-8,-12,-11,-9
-4,1,5,1,-5,3,-1,-8,-8,-12,-11,-9
-4,1,6,0,-5,3,-1,-8,-8,-12,-11,-9
-4,1,6,0,-5,3,-1,-8,-8,-12,-11,-9
-4,1,6,0,-5,3,-1,-8,-8,-12,-11,-9
-4,1,6,0,-5,3,-1,-8,-8,-12,-11,-9
-4,2,6,0,-5,4,-1,-8,-8,-12,-11,-9
-4,2,6,0,-6,4,-2,-8,-8,-11,-11,-9
-4,1,6,0,-6,4,-2,-8,-8,-11,-11,-9
-4,1,6,0,-6,4,-2,-8,-8,-11,-11,-9
-3,1,6,0,-5,4,-2,-8,-8,-11,-11,-9
-3,1,6,0,-5,4,-2,-8,-8,-11,-11,-9
-3,1,6,0,-5,4,-2,-8,-8,-11,-11,-9
-4,1,6,1,-6,4,-2,-8,-8,-11,-11,-9
-6,0,7,2,-7,4,-2,-8,-8,-11,-11,-9
-6,0,7,2,-7,4,-2,-8,-8,-11,-11,-9
-6,1,7,1,-7,4,-2,-8,-8,-11,-10,-9
-5,3,8,0,-7,5,-2,-8,-8,-11,-10,-9
-4,4,10,-1,-8,7,-3,-9,-8,-12,-11,-9
-5,5,11,-1,-8,8,-3,-9,-9,-12,-11,-9
-5,5,10,0,-8,7,-3,-9,-9,-12,-10,-9
-4,4,9,0,-8,7,-2,-9,-8,-11,-10,-8
-4,3,8,0,-7,6,-2,-8,-8,-10,-9,-7
-5,3,8,0,-7,5,-2,-8,-7,-10,-9,-7
-4,4,8,0,-7,6,-2,-8,-7,-10,-8,-7
-3,5,8,-1,-6,6,-2,-7,-6,-9,-8,-6
-3,4,8,-1,-6,6,-2,-7,-6,-9,-8,-6
-4,4,8,0,-6,6,-2,-7,-6,-9,-8,-6
-5,4,9,0,-7,6,-3,-8,-6,-8,-8,-6
-5,4,10,0,-7,7,-3,-8,-6,-8,-7,-5
-5,5,10,0,-7,7,-3,-8,-6,-8,-7,-5
-5,5,10,0,-7,7,-3,-8,-6,-8,-7,-5
-5,4,9,0,-7,7,-3,-7,-6,-8,-7,-5
-5,4,10,0,-8,7,-3,-7,-6,-8,-7,-5
-5,5,10,-1,-8,8,-3,-7,-6,-8,-7,-5
-4,6,11,-1,-8,8,-3,-7,-6,-7,-6,-5
-4,7,12,-2,-8,9,-3,-7,-5,-7,-6,-4
-3,8,12,-2,-8,9,-3,-7,-5,-7,-6,-4
-2,10,12,-3,-8,10,-3,-7,-5,-7,-5,-4
-1,11,13,-4,-8,11,-3,-6,-4,-6,-4,-3
-1,12,13,-5,-8,12,-3,-6,-4,-5,-4,-3
-1,13,14,-6,-8,13,-3,-6,-4,-4,-3,-2
-2,12,14,-5,-9,13,-3,-6,-4,-4,-3,-2
-3,11,14,-4,-9,13,-3,-7,-5,-5,-3,-2
-3,11,15,-4,-9,13,-4,-7,-5,-5,-3,-2
-4,11,15,-4,-9,13,-4,-7,-4,-4,-3,-2
-4,11,16,-4,-10,13,-4,-7,-4,-4,-3,-1
-4,11,16,-4,-10,13,-4,-7,-4,-4,-2,-1
-4,12,17,-4,-11,14,-4,-7,-4,-4,-2,-1
-5,12,17,-4,-11,14,-4,-7,-4,-3,-2,-1
-5,12,17,-3,-11,15,-4,-7,-3,-3,-2,0
-5,12,18,-3,-11,15,-4,-7,-3,-2,-1,0
-5,13,18,-4,-11,15,-4,-6,-2,-1,0,0
-4,14,19,-5,-11,16,-4,-6,-2,0,0,1
-4,15,19,-5,-11,16,-4,-6,-2,0,1,2
-4,16,19,-6,-12,17,-4,-6,-1,0,1,2
-4,17,20,-6,-12,18,-4,-6,-1,0,2,3
-3,18,20,-7,-12,19,-4,-5,-1,1,2,3
-3,18,21,-8,-12,20,-4,-5,0,1,3,4
-3,19,22,-8,-13,21,-4,-5,0,2,4,5
-3,19,22,-8,-13,21,-4,-5,0,2,5,5
-3,20,23,-9,-13,22,-4,-5,0,3,5,6
-2,22,24,-9,-14,23,-4,-5,1,3,5,6
-2,23,25,-10,-14,24,-4,-5,1,3,6,7
-2,24,26,-10,-14,25,-5,-5,1,4,6,7
-2,25,27,-11,-14,25,-5,-5,2,4,7,8
-3,25,27,-11,-15,26,-6,-5,2,5,7,8
-3,25,28,-11,-15,27,-6,-5,2,5,8,8
-2,26,28,-12,-15,27,-6,-5,3,6,8,9
-1,27,29,-13,-15,28,-6,-5,4,7,9,10
0,29,30,-14,-15,29,-6,-4,5,8,10,11
-1,29,31,-14,-16,30,-6,-4,5,8,11,11
-2,28,31,-13,-16,29,-6,-4,5,8,11,12
-3,28,31,-13,-16,29,-7,-4,5,9,11,12
-2,29,31,-13,-16,30,-7,-4,6,9,12,13
-1,30,31,-14,-16,31,-7,-3,6,10,12,14
0,31,31,-15,-16,31,-7,-3,6,10,13,14
0,32,32,-16,-17,32,-7,-3,6,10,13,14
0,32,32,-16,-17,32,-7,-3,6,10,13,14
-1,32,33,-15,-18,32,-7,-3,6,10,13,15
0,32,33,-16,-17,32,-7,-3,6,11,14,15
0,33,33,-16,-17,33,-8,-3,6,11,14,16
0,33,33,-17,-16,33,-8,-3,7,11,15,16
1,33,32,-17,-16,33,-8,-3,7,12,15,17
2,34,32,-18,-15,33,-8,-2,7,12,16,17
3,34,32,-19,-15,32,-8,-2,7,13,17,18
3,34,31,-19,-14,32,-8,-1,8,13,17,18
4,34,31,-19,-13,32,-8,0,8,14,17,18
4,34,30,-19,-13,32,-8,0,9,14,17,19
4,33,30,-19,-13,31,-8,0,9,14,17,19
3,32,30,-18,-13,31,-8,0,9,13,17,18
3,32,29,-18,-13,31,-8,0,9,13,16,18
3,32,29,-18,-13,31,-8,0,9,13,16,17
4,32,29,-18,-13,31,-8,0,8,13,16,17
4,32,28,-18,-12,30,-7,0,8,13,16,17
5,32,27,-19,-11,29,-7,1,9,14,16,17
7,33,26,-20,-10,29,-7,2,9,14,16,18
7,32,25,-20,-9,28,-7,2,9,14,16,18
7,29,23,-18,-8,26,-6,3,9,14,15,17
6,28,22,-17,-8,25,-6,3,8,13,15,16
7,27,21,-17,-7,25,-6,3,8,13,14,16
7,27,21,-17,-7,24,-6,3,8,12,14,15
7,27,20,-17,-7,23,-6,4,8,11,13,14
7,26,19,-17,-6,22,-5,4,8,11,13,14
7,24,17,-16,-5,20,-5,5,8,10,12,13
7,22,15,-15,-4,18,-5,5,7,10,11,12
7,20,13,-14,-3,17,-5,5,7,9,10,11
7,19,12,-14,-2,16,-4,5,7,9,9,10
7,18,11,-13,-2,15,-4,5,7,8,8,9
7,16,9,-12,-1,13,-3,6,6,8,8,8
7,14,7,-11,0,10,-3,6,6,7,7,7
6,12,6,-9,0,8,-3,6,6,7,7,6
6,11,5,-9,0,7,-3,6,5,6,6,5
7,10,4,-9,1,6,-2,7,5,5,5,4
8,9,1,-8,2,5,-1,7,5,5,4,4
8,8,0,-8,4,4,0,8,5,4,3,3
8,8,0,-8,4,4,0,8,5,3,2,1
8,7,0,-8,4,3,0,8,4,2,1,0
8,6,-2,-7,5,1,0,8,4,2,0,0
8,5,-3,-7,5,0,0,8,4,2,0,0
8,4,-3,-7,5,0,0,8,4,1,0,-1
9,4,-4,-6,5,0,0,8,4,1,-1,-1
9,3,-5,-6,6,-1,0,8,4,1,-1,-2
9,3,-6,-6,7,-1,1,8,4,1,-2,-3
8,2,-6,-5,7,-2,1,8,4,0,-3,-4
7,0,-6,-4,6,-3,2,7,3,0,-4,-5
6,0,-6,-3,6,-3,2,7,3,-1,-4,-6
6,-1,-6,-2,5,-4,2,6,2,-2,-5,-6
5,-2,-7,-2,5,-4,2,6,2,-2,-5,-7
6,-3,-7,-2,6,-5,2,6,2,-3,-6,-7
5,-3,-7,-1,6,-5,2,5,1,-3,-7,-7
4,-4,-7,0,5,-6,2,5,1,-3,-8,-8
3,-5,-7,1,5,-6,2,5,0,-3,-9,-9
1,-6,-7,2,4,-7,2,4,0,-3,-9,-9
0,-7,-7,3,4,-8,2,4,0,-4,-9,-10
0,-8,-7,3,4,-8,2,3,0,-4,-9,-10
0,-7,-7,3,4,-8,1,3,0,-5,-10,-10
0,-7,-7,3,3,-8,1,2,-1,-6,-10,-11
0,-7,-7,3,3,-8,1,2,-1,-6,-11,-11
0,-6,-7,3,3,-7,1,2,-1,-7,-11,-11
1,-5,-7,2,3,-6,1,2,-1,-7,-12,-11
1,-5,-7,2,3,-5,1,2,-1,-7,-12,-11
1,-5,-7,1,4,-5,2,3,-1,-7,-12,-11
1,-5,-6,1,4,-5,2,3,-1,-7,-12,-11
1,-5,-6,1,3,-5,2,2,-1,-7,-12,-11
0,-6,-6,2,3,-6,2,2,-1,-7,-12,-11
0,-7,-6,2,3,-7,2,2,-1,-7,-12,-11
0,-7,-6,2,3,-7,2,1,-2,-7,-12,-11
0,-7,-6,2,2,-7,2,1,-2,-7,-12,-11
0,-6,-6,2,2,-6,2,1,-2,-7,-12,-11
0,-6,-6,2,3,-6,2,1,-2,-7,-12,-11
0,-5,-6,2,3,-5,2,1,-2,-7,-12,-11
0,-5,-6,2,2,-5,2,1,-2,-7,-12,-11
0,-5,-6,2,2,-5,2,1,-2,-7,-12,-11
0,-5,-6,2,2,-5,2,1,-2,-7,-12,-11
1,-3,-5,1,2,-4,2,1,-2,-7,-12,-11
1,-2,-3,0,1,-2,2,1,-2,-7,-12,-11
1,-2,-3,0,1,-2,2,1,-2,-7,-12,-11
1,-2,-3,0,1,-3,3,1,-1,-7,-12,-11
0,-4,-4,2,1,-4,2,1,-1,-7,-12,-11
-1,-6,-4,3,1,-5,2,1,-1,-7,-12,-11
0,-5,-4,3,1,-5,2,1,-1,-7,-12,-11
0,-6,-5,3,1,-5,2,1,-1,-7,-12,-11
-1,-7,-6,4,1,-7,2,1,-1,-7,-12,-11
-2,-9,-7,5,1,-8,3,1,0,-6,-12,-11
-2,-10,-7,6,1,-9,3,2,0,-6,-12,-11
-2,-10,-8,6,2,-9,3,2,0,-6,-11,-10
-2,-10,-8,5,2,-9,4,2,0,-6,-11,-10
-1,-9,-7,5,2,-9,4,2,0,-6,-11,-10
-1,-9,-7,4,2,-8,4,2,0,-6,-11,-10
-1,-9,-7,4,2,-8,4,2,0,-6,-11,-10
-2,-10,-8,5,2,-9,4,2,0,-6,-11,-10
-2,-11,-9,6,2,-10,4,2,0,-6,-11,-10
-2,-11,-9,6,2,-10,4,2,0,-6,-11,-10
-1,-11,-9,5,3,-10,4,3,0,-6,-11,-10
-1,-11,-10,5,4,-10,4,3,0,-6,-11,-10
0,-11,-10,5,4,-10,5,3,0,-6,-11,-10
0,-11,-10,5,4,-10,5,4,0,-6,-11,-10
0,-11,-10,5,4,-11,6,4,0,-6,-11,-10
0,-11,-10,5,4,-11,6,4,1,-6,-11,-10
0,-10,-10,5,4,-10,6,4,1,-6,-11,-10
0,-10,-10,5,4,-10,6,4,1,-6,-11,-10
-1,-11,-10,6,3,-10,5,4,0,-6,-11,-10
-2,-12,-10,7,3,-11,5,3,0,-7,-11,-10
-1,-12,-10,7,4,-11,6,3,0,-7,-11,-10
-1,-12,-11,6,4,-11,6,3,1,-7,-11,-10
-1,-12,-11,6,4,-11,6,3,1,-7,-12,-10
-1,-12,-11,7,3,-11,6,3,1,-7,-12,-10
-2,-13,-11,7,3,-12,6,3,1,-6,-12,-10
-2,-13,-11,7,3,-13,6,3,0,-6,-12,-10
-2,-13,-11,7,4,-13,6,3,0,-6,-12,-10
-2,-13,-11,7,4,-13,6,3,0,-7,-12,-11
-2,-14,-11,8,4,-13,5,3,0,-7,-12,-11
-3,-15,-12,8,4,-13,5,3,0,-7,-12,-11
-2,-15,-12,8,4,-14,6,3,0,-7,-12,-11
-2,-15,-12,8,4,-14,6,3,0,-7,-12,-11
-1,-15,-12,8,5,-14,6,4,0,-7,-12,-11
-2,-15,-13,8,5,-14,6,4,0,-7,-12,-11
-2,-16,-13,9,5,-15,6,4,0,-7,-12,-11
-2,-16,-13,8,5,-15,6,4,0,-7,-12,-11
-2,-15,-13,8,5,-14,6,4,0,-8,-12,-11
-2,-16,-13,9,4,-14,6,4,-1,-8,-13,-12
-2,-16,-13,9,4,-14,6,4,-1,-9,-13,-12
-2,-16,-12,8,4,-14,6,4,-2,-9,-14,-12
-2,-15,-12,8,4,-13,6,4,-2,-9,-14,-12
-1,-14,-12,7,5,-13,6,4,-2,-9,-14,-12
-1,-13,-13,7,5,-13,6,4,-2,-9,-14,-12
0,-13,-13,7,5,-13,6,4,-2,-8,-14,-11
0,-12,-13,6,6,-13,6,4,-2,-8,-14,-11
1,-12,-13,6,6,-13,6,4,-2,-8,-14,-12
1,-13,-13,6,6,-14,6,4,-2,-8,-14,-12
0,-14,-13,7,6,-14,6,4,-2,-9,-14,-12
0,-15,-14,8,6,-15,6,4,-2,-9,-14,-12
0,-16,-14,8,6,-16,6,3,-2,-9,-14,-12
-1,-16,-15,8,6,-16,6,3,-2,-10,-14,-12
-1,-16,-15,8,6,-16,6,3,-2,-10,-15,-12
-1,-16,-14,8,6,-15,6,3,-2,-10,-15,-12
-1,-15,-14,8,6,-15,6,2,-2,-10,-15,-13
0,-14,-14,7,6,-14,6,2,-2,-10,-15,-13
0,-15,-14,7,7,-15,6,2,-3,-10,-15,-13
-2,-17,-15,9,6,-16,5,1,-4,-11,-16,-13
-3,-18,-15,10,5,-17,5,1,-4,-11,-16,-14
-3,-18,-14,10,5,-16,5,1,-5,-11,-16,-14
-3,-17,-14,10,5,-16,5,1,-5,-11,-16,-14
-3,-17,-14,10,5,-16,5,1,-5,-12,-16,-14
-3,-18,-14,11,5,-17,5,1,-5,-12,-16,-14
-3,-18,-14,11,5,-17,5,1,-5,-12,-16,-14
-3,-18,-14,10,5,-17,6,1,-5,-11,-16,-14
-2,-17,-14,9,6,-16,6,1,-4,-11,-15,-13
0,-16,-14,8,7,-16,7,1,-4,-11,-15,-13
0,-15,-14,7,7,-15,8,1,-3,-11,-15,-13
0,-15,-14,7,7,-15,8,1,-3,-11,-15,-13
-1,-16,-15,8,7,-16,7,1,-4,-11,-16,-13
-3,-17,-15,10,6,-17,7,1,-4,-11,-16,-14
-3,-19,-15,10,6,-17,7,1,-4,-12,-16,-14
-3,-19,-15,10,6,-17,7,1,-4,-12,-17,-14
-3,-18,-15,10,6,-17,6,1,-4,-12,-17,-14
-3,-17,-15,10,6,-17,6,0,-4,-12,-17,-14
-2,-16,-15,9,6,-16,6,0,-5,-12,-17,-14
-2,-16,-15,9,6,-16,6,0,-5,-12,-17,-14
-2,-17,-15,10,6,-16,6,0,-5,-12,-17,-14
-3,-18,-15,10,6,-17,6,0,-6,-12,-17,-14
-4,-19,-15,11,6,-17,6,0,-6,-12,-17,-14
-4,-20,-15,12,6,-18,6,0,-6,-13,-17,-14
-4,-20,-16,12,6,-18,6,0,-6,-13,-17,-15
-4,-20,-16,12,6,-18,6,0,-6,-13,-17,-15
-4,-20,-16,12,6,-19,6,0,-6,-13,-18,-15
-4,-21,-16,12,6,-19,6,0,-6,-13,-18,-15
-4,-21,-16,12,6,-19,6,0,-6,-13,-18,-15
-3,-20,-16,12,6,-18,6,0,-6,-13,-18,-15
-3,-20,-16,12,6,-18,7,0,-5,-13,-18,-15
-3,-21,-17,12,7,-19,7,1,-5,-13,-17,-14
-3,-21,-18,12,7,-20,7,1,-5,-13,-17,-14
-3,-21,-17,12,7,-20,7,0,-6,-13,-17,-14
-3,-21,-17,12,7,-20,7,0,-6,-13,-17,-14
-2,-21,-17,12,7,-20,7,0,-6,-13,-17,-14
-3,-21,-17,13,6,-20,6,0,-6,-13,-17,-14
-4,-21,-16,13,5,-19,6,0,-7,-14,-18,-15
-4,-20,-15,13,5,-18,6,-1,-7,-14,-18,-15
-4,-19,-15,12,6,-18,6,-1,-6,-14,-17,-15
-3,-19,-15,11,6,-18,6,0,-6,-14,-17,-15
-3,-19,-15,11,6,-18,6,0,-6,-14,-17,-15
-3,-19,-15,11,6,-18,6,0,-6,-13,-17,-14
-3,-19,-15,11,6,-18,7,0,-6,-13,-17,-14
-3,-19,-16,11,7,-18,7,0,-6,-13,-16,-14
-3,-19,-16,11,7,-18,7,0,-6,-13,-17,-14
-3,-19,-15,11,6,-18,6,0,-6,-13,-17,-15
-3,-19,-15,11,6,-18,6,0,-6,-13,-17,-15
-2,-18,-15,10,7,-17,7,0,-5,-13,-17,-14
-1,-17,-15,9,7,-17,7,0,-5,-12,-16,-13
0,-15,-15,8,7,-16,7,1,-5,-12,-16,-13
1,-13,-15,6,8,-15,8,1,-5,-11,-16,-12
3,-12,-15,5,9,-15,8,2,-4,-11,-15,-12
2,-13,-15,6,8,-15,7,1,-5,-11,-15,-13
0,-15,-15,8,7,-16,7,0,-5,-12,-16,-14
-2,-17,-15,10,6,-16,7,0,-5,-12,-16,-14
-2,-18,-16,11,7,-16,7,0,-5,-12,-16,-14
-2,-18,-15,11,6,-16,7,0,-5,-12,-16,-14
-3,-18,-15,11,6,-16,7,0,-5,-12,-16,-14
-3,-18,-14,11,5,-16,7,0,-5,-12,-16,-13
-4,-18,-14,10,5,-16,8,1,-4,-11,-15,-13
-4,-17,-13,10,5,-16,8,1,-3,-11,-14,-13
-3,-16,-13,10,5,-15,9,2,-2,-10,-14,-12
-3,-15,-12,9,5,-14,9,2,-1,-9,-13,-12
-2,-14,-12,8,5,-13,9,3,-1,-8,-13,-11
-1,-14,-12,7,5,-13,9,3,-1,-8,-13,-11
0,-13,-13,7,6,-13,8,3,-1,-7,-12,-11
0,-13,-13,6,6,-13,8,3,-1,-7,-12,-11
1,-13,-13,6,7,-13,7,3,-1,-7,-12,-10
1,-12,-13,5,7,-13,6,2,-1,-7,-11,-10
1,-13,-14,5,8,-14,5,2,-1,-7,-11,-10
2,-13,-15,5,9,-14,4,2,-2,-8,-11,-10
2,-12,-15,5,9,-13,3,1,-3,-9,-12,-10
3,-10,-14,4,9,-12,2,0,-4,-10,-13,-11
2,-11,-14,4,8,-12,1,-1,-5,-11,-14,-11
2,-12,-14,5,8,-13,1,-2,-6,-11,-14,-12
2,-13,-14,5,8,-13,1,-2,-6,-11,-14,-12
2,-13,-15,5,8,-14,2,-2,-6,-11,-14,-12
2,-13,-14,5,8,-14,2,-2,-5,-11,-14,-12
2,-12,-14,5,8,-13,3,-1,-5,-10,-14,-12
2,-12,-14,5,9,-13,4,-1,-5,-10,-13,-11
2,-12,-14,4,9,-13,4,-1,-5,-9,-13,-10
2,-12,-14,4,9,-13,5,-1,-5,-9,-13,-10
2,-12,-15,5,9,-14,5,-1,-5,-9,-13,-10
2,-13,-14,5,8,-14,5,-1,-5,-10,-13,-11
2,-13,-14,5,8,-14,5,-1,-5,-10,-14,-11
1,-13,-14,6,8,-14,4,-1,-5,-11,-14,-12
0,-14,-14,7,8,-15,4,-2,-6,-12,-15,-12
0,-14,-14,7,7,-14,4,-2,-6,-12,-15,-12
-1,-14,-13,8,7,-14,4,-2,-6,-12,-15,-11
-1,-14,-13,8,6,-14,4,-2,-6,-11,-15,-11
-1,-14,-13,8,6,-14,4,-2,-6,-11,-15,-11
-1,-14,-13,8,6,-14,4,-2,-6,-11,-15,-11
-1,-15,-13,9,6,-14,4,-2,-6,-12,-15,-12
-2,-15,-13,10,5,-14,4,-2,-6,-13,-16,-13
-3,-16,-13,10,4,-15,5,-2,-6,-14,-17,-14
-3,-17,-13,10,5,-15,5,-1,-6,-14,-17,-14
-3,-17,-14,10,5,-16,6,-1,-7,-14,-18,-14
-3,-18,-14,10,5,-16,6,-2,-7,-14,-18,-14
-3,-17,-14,10,5,-16,6,-2,-8,-14,-18,-15
-2,-16,-13,9,5,-16,6,-2,-8,-14,-18,-15
-2,-16,-14,9,6,-16,6,-2,-8,-14,-17,-15
-3,-17,-14,10,6,-17,5,-2,-8,-14,-17,-15
-4,-19,-15,12,5,-17,4,-3,-8,-14,-18,-15
-5,-19,-15,12,5,-17,4,-3,-9,-14,-18,-16
-4,-18,-14,11,5,-16,4,-3,-9,-14,-18,-16
-3,-17,-14,10,6,-16,4,-2,-9,-14,-18,-15
-2,-17,-15,10,6,-16,5,-2,-9,-14,-18,-15
-2,-17,-14,10,6,-16,5,-2,-8,-15,-18,-15
-2,-17,-14,9,6,-16,5,-2,-8,-15,-18,-15
-2,-16,-14,9,6,-16,5,-2,-7,-15,-18,-15
-1,-16,-14,8,7,-16,5,-1,-7,-15,-18,-15
-1,-15,-14,8,7,-15,5,-1,-7,-14,-18,-15
-2,-16,-14,9,6,-15,5,-1,-7,-14,-19,-15
-3,-17,-14,11,5,-16,5,-2,-8,-15,-19,-15
-4,-18,-14,11,5,-17,5,-3,-9,-15,-19,-15
-4,-18,-14,11,5,-17,5,-3,-9,-15,-19,-16
-4,-18,-13,11,5,-17,5,-3,-9,-16,-20,-16
-4,-18,-13,11,4,-16,5,-3,-9,-16,-20,-17
-4,-18,-13,11,4,-16,5,-3,-9,-16,-20,-17
-4,-18,-13,11,4,-16,5,-3,-9,-16,-20,-17
-4,-18,-13,11,5,-16,6,-2,-9,-16,-20,-17
-4,-18,-13,11,5,-16,6,-2,-9,-16,-20,-16
-3,-18,-14,10,5,-16,6,-2,-8,-16,-20,-16
-4,-18,-14,11,5,-17,6,-2,-8,-16,-20,-16
-5,-20,-14,12,5,-18,6,-2,-8,-16,-20,-16
-5,-20,-14,13,5,-18,6,-2,-8,-15,-20,-16
-4,-19,-14,12,5,-17,6,-2,-8,-15,-19,-16
-4,-18,-14,11,5,-16,6,-2,-8,-14,-19,-16
-3,-17,-14,11,5,-15,6,-2,-8,-14,-19,-16
-3,-16,-14,10,5,-15,6,-2,-8,-14,-19,-16
-3,-16,-14,10,5,-15,6,-1,-8,-14,-19,-16
-3,-17,-14,10,5,-16,6,-1,-8,-15,-19,-16
-4,-18,-14,11,5,-16,6,-1,-8,-15,-19,-16
-5,-20,-14,12,4,-17,6,-2,-9,-16,-20,-16
-6,-21,-14,13,4,-18,6,-2,-9,-16,-20,-17
-5,-20,-15,12,5,-17,6,-1,-8,-16,-20,-17
-4,-18,-14,11,5,-17,7,-1,-8,-16,-20,-17
-3,-17,-14,10,5,-16,7,-1,-8,-16,-20,-17
-3,-17,-14,10,5,-16,7,-1,-8,-16,-20,-17
-2,-16,-14,9,6,-16,7,0,-7,-16,-20,-16
-2,-17,-14,9,6,-16,7,0,-7,-15,-20,-16
-2,-18,-14,10,6,-16,7,0,-7,-15,-19,-16
-2,-18,-14,10,6,-16,7,0,-7,-15,-19,-15
-2,-17,-14,9,6,-15,7,0,-7,-14,-19,-15
-2,-17,-14,9,6,-16,7,0,-7,-14,-19,-15
-2,-17,-14,9,6,-16,7,0,-7,-14,-19,-15
-2,-16,-14,9,6,-15,7,0,-7,-14,-19,-15
-2,-15,-14,8,6,-15,7,0,-7,-15,-19,-15
-2,-16,-14,9,6,-15,7,0,-7,-15,-20,-15
-3,-17,-14,9,6,-16,7,0,-7,-16,-20,-16
-3,-18,-14,10,6,-16,7,0,-7,-16,-20,-16
-3,-19,-15,11,6,-17,7,0,-7,-16,-21,-17
-3,-19,-16,11,6,-18,8,1,-7,-16,-21,-17
-3,-20,-17,11,7,-19,9,4,-6,-15,-21,-18
-1,-20,-18,11,8,-19,10,8,-4,-14,-21,-17
0,-19,-19,9,10,-20,12,14,0,-11,-19,-16
3,-17,-20,7,12,-19,15,21,6,-6,-15,-14
8,-14,-22,3,15,-18,17,29,12,0,-10,-10
