leadI,leadII,leadIII,leadaVR,leadaVL,leadaVF,leadV1,leadV2,leadV3,leadV4,leadV5,leadV6
0,1,1,0,0,1,2,0,-11,0,4,0
0,2,3,-1,-1,2,6,0,-30,0,11,0
0,3,4,-2,-2,3,9,0,-42,0,15,-1
-1,3,4,-2,-2,4,10,0,-49,-1,17,-1
-1,3,5,-1,-3,4,11,0,-53,-1,19,-1
-2,3,5,-1,-3,4,11,0,-55,-1,20,-1
-2,3,5,-1,-3,4,12,0,-57,-1,20,-1
-2,3,5,-1,-3,4,12,0,-58,-1,21,-1
-2,3,5,-1,-3,4,11,0,-59,-2,21,-1
-2,2,4,-1,-3,3,11,0,-59,-2,21,-1
-2,2,4,-1,-3,3,11,0,-59,-3,21,-1
-2,2,4,-1,-3,3,11,0,-60,-3,20,-1
-2,2,4,0,-3,3,11,0,-60,-3,20,-1
-2,1,3,0,-2,2,11,0,-60,-3,19,0
-2,0,2,1,-3,1,11,1,-60,-2,19,0
-3,0,2,1,-3,0,11,1,-59,-2,18,0
-3,-1,2,2,-3,0,11,2,-59,-1,18,-1
-4,-2,2,3,-3,0,11,2,-59,-1,17,-2
-4,-3,1,3,-3,0,11,3,-58,-1,17,-2
-4,-3,1,4,-3,-1,12,3,-58,-1,17,-2
-5,-3,1,4,-3,-1,12,4,-57,-1,17,-2
-5,-4,1,4,-3,-1,12,4,-57,-1,17,-3
-6,-4,1,5,-3,-2,12,4,-56,-1,17,-3
-6,-5,0,5,-3,-2,12,5,-56,-1,17,-3
-6,-5,0,5,-3,-2,12,5,-55,-1,16,-3
-6,-5,1,5,-3,-2,13,5,-55,-1,16,-3
-6,-5,1,5,-3,-2,13,5,-55,-1,15,-4
-6,-5,1,5,-3,-2,13,5,-55,-1,15,-4
-6,-4,1,4,-3,-2,13,5,-55,-2,15,-4
-5,-4,1,4,-3,-2,13,5,-56,-2,15,-3
-5,-5,0,5,-3,-2,13,5,-56,-2,15,-3
-5,-6,0,5,-2,-3,14,6,-56,-2,15,-2
-5,-6,0,5,-2,-4,15,6,-56,-2,15,-2
-5,-6,0,5,-2,-4,16,6,-56,-2,15,-2
-5,-6,0,5,-2,-4,16,6,-56,-2,15,-2
-5,-7,-1,6,-1,-4,16,7,-56,-2,15,-2
-5,-7,-1,6,-1,-4,16,7,-56,-2,15,-2
-6,-7,-1,6,-1,-4,16,7,-56,-3,14,-2
-6,-7,-1,6,-2,-3,17,7,-56,-3,14,-2
-6,-7,-1,6,-2,-3,17,7,-56,-3,14,-3
-6,-7,-1,6,-2,-3,18,7,-56,-3,14,-3
-6,-7,0,6,-2,-3,18,8,-56,-3,14,-3
-6,-7,0,6,-2,-3,17,8,-56,-3,13,-4
-6,-6,0,6,-2,-3,16,8,-56,-3,13,-4
-6,-6,0,6,-2,-3,16,8,-56,-3,13,-4
-5,-6,0,6,-2,-3,16,8,-55,-2,13,-4
-5,-6,0,6,-2,-3,16,8,-55,-2,13,-4
-5,-6,0,6,-2,-3,16,8,-55,-2,12,-4
-6,-6,0,6,-2,-3,16,8,-55,-3,12,-4
-6,-7,0,6,-2,-4,16,8,-55,-3,11,-4
-6,-7,0,6,-2,-4,16,8,-55,-4,11,-4
-6,-7,0,6,-2,-4,16,9,-55,-4,11,-4
-6,-7,0,6,-2,-3,17,9,-54,-4,11,-5
-6,-7,0,6,-2,-3,17,10,-54,-4,11,-5
-6,-7,0,7,-2,-3,18,10,-53,-4,11,-4
-6,-7,-1,7,-2,-4,18,10,-52,-4,11,-4
-5,-6,-1,6,-1,-4,18,11,-52,-4,11,-3
-4,-6,-1,5,0,-4,18,11,-51,-4,11,-2
-5,-6,-1,5,-1,-4,18,11,-51,-4,11,-1
-5,-6,-1,6,-1,-4,18,12,-51,-4,10,-1
-5,-6,-1,6,-1,-4,18,12,-50,-4,10,-2
-5,-6,-1,5,-1,-4,18,13,-50,-4,9,-3
-4,-6,-1,5,-1,-4,18,13,-49,-5,9,-4
-4,-6,-1,5,-1,-4,18,13,-49,-5,9,-4
-4,-6,0,5,-1,-4,18,13,-49,-4,9,-4
-4,-6,0,5,-2,-3,18,13,-49,-4,8,-4
-4,-6,0,5,-1,-3,18,13,-49,-3,8,-5
-4,-6,0,5,-1,-3,18,14,-49,-3,8,-5
-4,-6,0,5,-1,-3,18,14,-49,-2,8,-5
-4,-5,0,5,-1,-3,18,14,-49,-2,8,-5
-5,-5,0,5,-1,-3,17,14,-49,-1,8,-5
-5,-5,0,5,-1,-3,17,14,-48,-1,8,-5
-4,-5,0,5,-1,-3,17,14,-48,-1,8,-5
-4,-6,-1,5,0,-4,17,15,-48,-1,8,-5
-3,-6,-3,5,1,-5,17,16,-47,-1,7,-6
-1,-7,-5,4,3,-6,17,18,-46,-1,7,-7
0,-7,-7,3,5,-7,17,20,-43,0,6,-7
2,-7,-9,3,7,-9,17,23,-39,2,6,-8
4,-7,-11,2,9,-10,16,28,-33,7,6,-8
6,-7,-13,0,11,-10,16,34,-26,12,6,-8
9,-7,-15,-1,13,-11,15,40,-19,19,7,-8
13,-7,-18,-3,16,-12,15,43,-13,26,9,-7
16,-4,-19,-6,19,-11,13,40,-10,33,13,-4
19,0,-18,-9,20,-9,11,32,-9,41,19,0
22,5,-16,-13,20,-5,9,19,-11,50,27,6
24,12,-12,-18,19,0,5,4,-15,60,37,14
26,19,-6,-23,18,6,2,-12,-21,72,48,21
28,27,0,-27,15,13,-2,-28,-30,81,58,29
28,35,8,-32,12,21,-6,-44,-44,85,69,38
28,43,16,-36,7,29,-11,-62,-61,85,80,47
27,50,25,-39,2,37,-15,-82,-82,81,90,56
23,56,35,-40,-4,45,-19,-100,-105,70,98,63
17,60,45,-39,-12,52,-22,-113,-127,54,100,68
9,62,54,-35,-21,57,-22,-121,-144,35,96,69
-2,60,62,-29,-30,60,-21,-123,-156,15,86,65
-13,55,68,-21,-39,61,-19,-123,-165,-6,71,58
-23,48,72,-12,-46,60,-14,-121,-171,-27,54,49
-32,42,74,-5,-52,58,-10,-118,-175,-46,40,41
-37,35,74,1,-54,55,-6,-116,-177,-61,28,33
-39,29,70,5,-54,50,-3,-113,-177,-74,19,25
-40,22,64,8,-51,43,-1,-110,-175,-82,11,17
-39,17,57,11,-47,36,-1,-106,-170,-86,5,10
-37,11,49,12,-42,29,-1,-101,-164,-86,0,4
-35,6,41,13,-36,23,-2,-93,-156,-82,-2,0
-32,2,34,14,-31,18,-2,-85,-147,-76,-4,-3
-28,0,29,14,-27,15,-2,-77,-138,-70,-5,-5
-25,-1,24,13,-23,12,-1,-67,-129,-63,-5,-6
-23,-2,21,13,-20,10,0,-56,-120,-56,-5,-7
-21,-3,18,12,-18,8,1,-46,-110,-49,-5,-8
-19,-3,16,11,-16,6,3,-37,-100,-43,-4,-9
-17,-3,14,10,-14,5,4,-30,-90,-37,-3,-9
-15,-3,12,8,-11,4,6,-23,-82,-31,-2,-9
-13,-3,10,7,-10,3,7,-18,-74,-27,-1,-9
-12,-4,8,7,-8,2,9,-14,-68,-22,-1,-9
-10,-4,7,6,-7,2,10,-10,-62,-17,0,-9
-9,-4,5,6,-6,1,11,-6,-57,-12,0,-8
-7,-4,4,6,-5,1,12,-2,-53,-8,0,-8
-6,-4,3,5,-4,0,14,0,-49,-5,0,-8
-6,-3,3,4,-3,0,15,2,-46,-4,1,-7
-5,-3,2,4,-2,0,15,4,-44,-3,1,-7
-5,-3,2,3,-2,-1,16,4,-42,-2,2,-7
-4,-3,1,3,-1,-1,16,5,-41,-1,2,-7
-3,-2,1,2,-1,0,16,5,-41,0,2,-7
-3,-2,2,3,-1,0,16,6,-41,0,2,-7
-3,-2,2,3,-1,0,16,7,-41,1,3,-7
-3,-2,2,3,-1,0,16,8,-41,2,3,-7
-3,-2,2,3,-1,0,17,8,-41,2,3,-7
-3,-2,2,3,-1,0,18,8,-41,2,4,-7
-3,-2,2,3,-1,0,18,8,-41,1,4,-7
-3,-2,1,3,-1,0,19,8,-41,1,5,-7
-3,-2,1,3,-1,0,19,9,-41,1,5,-7
-3,-2,1,2,-1,0,19,9,-41,1,6,-7
-3,-2,1,2,-1,0,19,9,-41,1,6,-7
-2,-2,1,1,0,0,19,10,-41,1,6,-6
-2,-1,1,1,0,0,19,11,-40,1,6,-6
-1,-1,1,0,0,0,19,11,-40,1,6,-6
-1,0,2,0,0,1,19,11,-39,1,6,-6
-1,0,2,0,0,1,19,11,-39,1,6,-6
-1,0,2,0,0,1,19,11,-38,1,6,-5
-1,0,2,0,0,0,19,11,-38,1,6,-5
-1,0,2,0,0,0,19,12,-37,1,6,-5
-1,0,2,0,0,0,19,12,-36,2,6,-5
-1,0,1,0,0,0,20,12,-35,2,6,-5
-1,-1,1,0,0,0,20,12,-33,2,6,-5
-1,-1,1,0,0,0,20,13,-32,2,6,-5
-1,-1,1,0,0,0,20,14,-31,1,6,-6
-1,0,1,0,0,0,19,14,-30,1,6,-7
-1,0,2,0,0,1,17,14,-29,0,6,-7
-1,0,2,0,0,1,15,14,-28,0,6,-8
-1,0,2,0,0,1,13,14,-27,0,6,-8
-1,0,2,0,0,1,11,14,-26,0,6,-7
-1,0,2,0,0,1,9,14,-25,0,7,-7
-1,1,2,0,0,1,8,15,-24,0,7,-7
-1,1,2,0,0,1,7,15,-23,0,7,-7
-1,1,2,0,0,1,6,16,-22,0,7,-7
-1,0,1,0,0,1,6,16,-21,0,7,-7
-1,0,1,0,0,1,6,17,-20,0,8,-7
-1,0,1,0,0,1,5,17,-20,0,8,-7
0,0,1,0,0,1,5,17,-19,0,8,-7
0,0,1,0,0,1,5,17,-19,0,8,-7
0,0,2,0,0,1,5,17,-18,0,8,-6
0,0,2,0,0,1,4,18,-18,0,9,-6
0,0,1,0,0,1,4,19,-18,1,9,-6
0,0,1,0,0,1,3,19,-18,1,9,-6
0,0,2,0,0,1,3,19,-18,2,9,-6
0,1,2,0,0,1,3,20,-18,2,9,-6
0,1,2,0,0,1,2,20,-18,3,9,-6
0,1,2,0,0,1,2,20,-18,3,9,-6
0,1,2,0,0,1,1,20,-18,4,9,-6
0,1,2,0,0,1,1,20,-18,4,9,-6
0,1,2,0,0,1,0,20,-18,4,9,-6
0,1,2,0,0,1,0,21,-18,4,9,-6
0,1,2,0,0,1,0,21,-18,4,9,-6
0,1,2,-1,0,1,0,21,-18,5,9,-5
0,1,1,-1,1,1,0,21,-18,5,9,-5
1,2,2,-2,1,2,0,21,-18,5,8,-5
1,2,2,-2,1,2,0,22,-17,5,8,-5
1,2,2,-2,1,2,0,22,-17,5,8,-4
1,2,2,-2,1,2,0,22,-16,5,8,-4
2,3,2,-3,1,2,-1,22,-15,6,8,-3
2,3,2,-3,1,2,-1,22,-15,6,8,-3
3,4,2,-3,1,3,-2,22,-14,6,8,-3
3,4,2,-3,1,3,-2,22,-14,7,8,-3
3,4,2,-3,1,3,-2,22,-14,7,8,-2
3,4,2,-3,1,3,-2,22,-13,8,7,-2
3,4,2,-4,2,3,-1,22,-12,8,7,-1
3,4,2,-4,2,3,-1,22,-11,9,6,-1
4,5,2,-4,2,3,0,22,-10,9,6,-1
4,5,2,-5,2,3,0,23,-9,10,6,0
4,6,2,-5,2,4,1,23,-9,11,6,0
4,6,2,-6,2,4,2,23,-8,11,6,0
5,7,2,-6,2,4,3,23,-7,12,6,0
5,7,2,-6,2,4,3,24,-6,12,7,0
5,7,2,-7,2,5,3,24,-5,13,7,0
6,8,2,-7,3,5,3,24,-4,14,8,0
7,9,1,-8,3,5,3,24,-3,14,8,0
8,9,1,-8,4,5,3,24,-3,15,9,0
9,9,1,-9,4,5,3,24,-2,15,9,1
9,10,1,-9,5,5,3,24,-1,16,10,1
9,10,1,-10,5,6,3,24,-1,17,11,2
10,11,1,-11,5,6,2,24,0,17,11,2
10,11,1,-11,6,7,2,24,0,18,12,3
11,12,1,-12,6,7,1,24,1,19,13,3
11,13,2,-12,6,7,1,25,2,19,13,4
12,14,2,-13,7,8,0,25,2,20,14,4
13,14,1,-13,7,8,0,24,3,21,15,5
13,15,1,-14,7,8,0,22,4,22,16,6
14,16,2,-15,7,9,-1,20,5,23,17,7
15,17,2,-16,7,10,-2,18,6,24,18,8
16,18,2,-18,8,11,-2,17,7,25,19,10
17,19,2,-19,8,11,-3,16,8,26,20,11
18,20,2,-19,9,12,-3,15,9,27,21,11
19,20,2,-20,9,12,-3,15,9,28,22,12
19,21,2,-20,9,12,-4,14,10,30,23,13
19,21,2,-21,9,13,-5,14,10,31,24,13
20,22,3,-21,9,13,-6,14,11,33,25,14
20,23,3,-22,9,14,-7,14,12,34,25,14
20,24,4,-22,9,14,-8,14,12,34,26,15
20,24,4,-23,9,14,-8,14,13,35,26,16
20,24,4,-23,9,14,-8,14,13,35,27,17
20,24,4,-23,9,15,-8,14,13,36,27,17
20,25,5,-23,9,16,-8,13,13,36,28,18
20,26,6,-23,9,16,-8,13,13,36,28,19
20,26,6,-23,9,16,-7,13,13,36,29,20
20,26,6,-23,9,16,-7,13,13,36,29,20
20,26,6,-24,8,17,-7,13,13,36,29,20
20,26,7,-24,8,17,-6,13,13,36,29,21
20,26,7,-24,7,17,-6,13,13,36,29,21
19,26,8,-23,7,17,-5,13,13,35,29,22
19,26,8,-23,7,17,-5,13,12,35,29,22
19,26,8,-23,7,17,-4,13,12,34,28,21
18,26,8,-22,6,17,-4,13,12,33,26,20
17,25,8,-21,6,17,-3,13,11,32,25,20
16,24,8,-20,5,16,-3,14,11,31,24,19
15,23,8,-20,5,16,-2,14,10,30,22,19
15,22,8,-19,5,16,-2,14,10,29,21,18
14,21,8,-19,4,15,-2,13,9,28,19,17
14,20,7,-18,4,14,-1,13,8,27,18,16
13,20,7,-17,4,14,0,13,7,26,16,14
13,19,7,-16,4,13,0,13,6,24,15,13
12,18,7,-15,3,13,0,12,5,23,13,13
11,17,7,-14,3,12,0,12,4,22,11,12
10,15,6,-13,3,11,0,11,3,21,10,12
9,14,6,-12,3,10,1,11,3,20,9,11
8,13,6,-12,3,10,1,11,2,18,8,10
8,13,6,-11,2,9,1,10,1,17,7,9
7,12,6,-11,2,9,1,10,0,15,6,9
7,12,5,-10,2,9,2,10,0,14,5,8
7,11,4,-10,2,8,2,10,0,13,4,8
6,10,4,-9,2,7,2,9,0,12,3,8
6,9,4,-8,2,7,2,9,-1,10,2,6
5,9,4,-7,2,7,2,8,-1,9,1,5
5,8,3,-7,2,6,2,8,-1,8,0,5
5,7,3,-7,2,5,3,9,-1,7,0,4
5,7,2,-7,2,4,3,9,-1,6,-1,4
5,6,2,-6,2,4,3,8,-1,6,-1,3
5,6,2,-6,2,4,3,8,-2,5,-2,3
4,5,2,-5,2,4,4,8,-2,4,-2,3
4,5,2,-5,2,4,4,8,-2,3,-2,3
4,4,2,-5,2,4,4,8,-2,3,-3,3
4,4,1,-5,2,4,4,8,-2,3,-3,2
4,4,1,-5,2,3,4,8,-2,3,-4,1
4,4,1,-4,2,3,4,8,-2,3,-4,0
3,4,1,-4,2,3,4,8,-2,3,-4,0
3,3,1,-4,2,2,4,8,-1,4,-4,1
3,3,1,-4,2,2,5,8,-1,4,-4,1
3,4,1,-4,2,3,5,8,-1,4,-5,1
3,4,1,-4,2,3,6,8,-1,4,-5,1
3,4,1,-4,2,3,6,8,-1,4,-5,1
3,4,1,-4,2,3,7,8,0,4,-5,1
3,4,1,-4,2,2,7,8,0,3,-5,1
3,4,1,-4,2,2,7,8,0,3,-6,1
3,4,1,-4,1,3,7,8,0,2,-6,1
3,4,2,-4,1,3,7,8,0,1,-6,0
3,4,2,-4,1,3,6,8,0,1,-6,0
3,4,2,-4,1,3,5,8,0,1,-6,0
3,4,2,-4,1,3,4,8,0,1,-6,0
3,4,1,-4,1,3,4,8,0,1,-6,0
3,4,1,-4,1,3,4,8,0,1,-6,0
3,5,1,-4,1,3,4,9,0,1,-6,0
3,5,1,-4,1,3,3,9,0,1,-6,-1
3,4,1,-4,1,3,3,9,0,1,-6,-1
3,4,1,-4,1,3,3,9,0,1,-7,-1
3,4,1,-4,1,3,3,9,-1,1,-7,-2
3,4,1,-4,1,3,3,9,-1,1,-8,-2
3,4,1,-4,1,3,2,9,-1,0,-8,-2
3,4,1,-4,1,3,2,9,-2,0,-8,-2
3,4,2,-4,0,3,2,9,-2,0,-9,-3
3,4,2,-4,0,3,1,9,-2,0,-9,-3
3,4,2,-4,0,3,1,10,-2,0,-9,-3
2,4,2,-4,0,3,1,10,-2,0,-9,-3
2,4,2,-4,0,3,2,11,-2,0,-10,-3
2,4,2,-4,0,3,2,11,-2,0,-10,-3
2,5,2,-4,0,3,2,11,-2,0,-10,-3
2,4,1,-4,0,3,2,11,-3,0,-10,-3
2,4,1,-4,0,3,3,12,-3,0,-10,-3
2,4,1,-4,0,3,3,12,-3,0,-11,-4
2,4,1,-4,1,3,3,13,-3,0,-11,-4
2,4,1,-3,1,3,3,13,-3,0,-11,-4
2,4,1,-3,1,2,3,13,-2,0,-11,-4
2,4,1,-3,1,2,3,13,-2,0,-11,-4
2,4,0,-3,1,2,3,14,-1,0,-11,-4
2,3,0,-3,1,2,3,14,-1,0,-11,-3
2,3,0,-2,1,1,3,15,0,-1,-11,-3
2,3,0,-2,1,1,3,15,0,-1,-11,-3
2,3,1,-2,1,2,3,15,1,-1,-11,-3
2,3,1,-3,1,2,3,16,1,-2,-11,-4
2,3,1,-3,2,2,2,16,2,-2,-11,-4
2,3,1,-3,2,2,2,16,3,-2,-11,-4
2,3,1,-3,1,2,2,16,4,-2,-11,-4
2,3,1,-3,1,2,2,17,4,-1,-11,-4
2,3,0,-3,1,2,2,17,4,-1,-11,-4
2,3,0,-3,1,2,1,17,4,0,-11,-4
2,3,0,-3,1,2,0,17,4,0,-11,-4
2,3,0,-3,1,2,-1,17,4,1,-11,-4
2,3,0,-3,1,1,-1,17,5,1,-11,-4
3,3,0,-3,2,1,-1,17,5,2,-11,-4
3,3,0,-3,2,1,-1,17,5,2,-11,-4
3,3,0,-3,2,1,-2,17,5,2,-11,-5
3,3,0,-3,2,1,-2,17,5,2,-11,-5
3,3,0,-3,2,1,-2,17,5,2,-11,-5
3,3,0,-3,2,1,-2,17,5,2,-11,-5
3,3,0,-3,2,1,-3,17,5,2,-11,-5
3,3,0,-3,2,1,-3,17,6,2,-11,-4
3,3,0,-3,2,1,-3,17,6,2,-11,-4
3,3,0,-3,2,1,-3,17,7,2,-11,-4
3,3,0,-3,1,2,-3,17,7,2,-11,-3
3,4,0,-3,1,2,-2,17,7,2,-11,-3
4,4,0,-3,2,2,-1,17,8,2,-11,-2
4,4,-1,-3,2,1,0,17,8,2,-11,-2
4,4,-1,-4,2,1,0,17,8,2,-11,-2
4,4,0,-4,2,1,0,17,8,2,-11,-2
4,4,0,-4,2,1,0,17,8,2,-11,-2
4,4,0,-4,2,1,0,17,8,2,-11,-2
4,4,0,-4,2,1,-1,16,8,2,-11,-2
4,4,0,-4,2,1,-1,16,8,2,-11,-2
4,4,0,-4,2,1,-2,15,7,2,-11,-2
4,4,0,-4,2,2,-2,15,7,2,-11,-2
4,5,0,-5,2,2,-3,15,6,2,-11,-2
4,5,0,-5,2,2,-3,15,6,2,-11,-2
4,5,0,-5,2,2,-4,15,6,2,-11,-2
4,5,0,-5,2,2,-4,15,6,2,-11,-2
4,5,0,-5,1,2,-4,15,6,2,-11,-2
4,5,0,-5,1,2,-4,15,6,1,-11,-2
5,6,0,-5,1,2,-4,15,6,1,-11,-2
5,6,0,-5,1,3,-5,15,6,1,-11,-2
5,6,0,-5,1,3,-5,15,6,1,-11,-2
5,6,0,-5,1,3,-6,15,6,1,-11,-2
5,6,0,-5,1,3,-6,15,6,1,-11,-2
5,6,1,-5,1,3,-7,15,6,0,-11,-3
5,6,1,-5,1,3,-7,15,6,0,-11,-3
5,6,1,-5,1,3,-8,15,6,0,-11,-3
5,5,1,-5,1,2,-8,15,6,0,-11,-3
5,5,1,-5,1,3,-8,15,6,0,-11,-3
5,6,1,-5,1,3,-9,15,6,0,-11,-3
5,6,1,-6,1,4,-9,15,7,0,-10,-3
5,6,1,-6,1,4,-9,15,7,0,-10,-3
5,6,1,-6,1,4,-9,15,7,0,-10,-3
5,7,1,-6,1,4,-9,14,7,0,-10,-2
5,7,1,-6,1,3,-9,14,7,0,-10,-2
5,7,1,-6,1,3,-9,14,7,0,-10,-2
5,7,1,-6,1,3,-9,14,8,0,-10,-2
5,7,2,-6,0,4,-10,14,8,1,-10,-2
4,7,2,-6,0,4,-10,14,9,1,-10,-2
4,6,1,-5,0,3,-11,14,9,2,-10,-2
4,6,1,-5,1,3,-11,14,9,2,-10,-2
5,7,1,-5,1,3,-12,14,9,2,-10,-2
5,7,1,-5,1,3,-12,13,9,2,-10,-2
5,6,1,-5,1,3,-11,11,9,2,-10,-2
5,6,1,-5,1,3,-10,9,9,1,-10,-1
5,7,2,-5,1,3,-10,7,9,1,-10,-1
5,7,2,-6,1,4,-9,7,9,0,-10,0
5,7,1,-6,1,4,-8,6,10,0,-10,0
5,7,1,-6,1,4,-7,6,10,0,-10,0
5,7,1,-5,1,3,-7,5,10,0,-10,0
5,7,1,-5,1,3,-7,5,10,0,-10,0
5,7,1,-5,1,3,-7,4,10,0,-10,0
5,7,1,-5,1,3,-7,4,10,0,-10,0
5,7,1,-5,1,3,-8,4,10,0,-10,0
5,6,0,-5,1,3,-8,4,10,0,-10,0
5,6,0,-5,1,2,-8,4,10,1,-10,0
5,5,0,-4,1,2,-8,4,10,1,-10,0
5,5,0,-4,1,2,-8,3,10,1,-11,0
5,5,0,-4,1,2,-8,3,10,1,-11,0
5,5,0,-4,1,2,-8,3,10,1,-11,1
5,5,0,-4,1,2,-8,3,9,1,-11,1
5,5,0,-4,1,2,-8,3,9,1,-10,1
5,4,0,-4,1,1,-9,3,8,1,-10,1
5,4,0,-4,1,1,-9,2,8,1,-10,1
5,5,0,-4,1,1,-9,1,7,1,-10,1
5,5,0,-4,1,1,-9,1,7,0,-10,1
5,5,0,-4,1,1,-10,0,6,0,-10,1
5,5,0,-4,1,1,-10,0,6,0,-11,2
5,5,0,-4,1,1,-10,0,6,0,-11,2
5,5,0,-4,1,1,-10,-1,6,0,-11,3
5,5,0,-4,1,1,-10,-2,6,0,-11,3
5,5,0,-4,1,1,-10,-2,5,-1,-11,3
5,5,0,-4,1,1,-9,-2,5,-1,-11,3
5,5,0,-4,0,1,-9,-2,5,-2,-11,3
4,5,0,-4,0,1,-9,-2,5,-2,-11,3
4,4,0,-4,0,1,-8,-2,5,-2,-11,2
4,4,0,-4,0,1,-8,-2,5,-2,-11,2
4,5,0,-4,0,2,-8,-2,5,-2,-11,1
4,5,0,-4,0,2,-8,-3,6,-2,-11,1
4,4,0,-4,0,1,-8,-3,6,-2,-11,1
4,4,0,-3,0,1,-8,-3,6,-2,-11,1
4,4,0,-3,0,1,-8,-3,6,-2,-11,1
4,5,0,-3,0,1,-7,-3,6,-2,-11,1
4,5,0,-4,0,1,-7,-3,6,-1,-11,1
4,5,0,-4,0,1,-7,-3,7,0,-11,0
4,5,0,-4,0,1,-7,-3,8,0,-11,0
4,5,0,-4,0,1,-7,-2,9,0,-11,0
4,5,0,-4,0,1,-7,-2,9,1,-11,1
4,5,1,-4,0,1,-6,-2,9,1,-11,1
4,6,1,-5,0,2,-6,-2,9,1,-11,1
5,7,1,-5,0,2,-7,-2,9,1,-11,1
5,7,1,-5,0,3,-7,-1,10,1,-11,2
5,7,2,-6,0,3,-7,-1,10,1,-10,2
5,8,2,-6,0,4,-7,-1,10,1,-10,2
5,8,3,-6,0,4,-7,0,11,1,-10,2
5,8,3,-6,0,4,-6,0,11,1,-10,2
5,8,3,-6,0,5,-6,0,11,1,-10,1
5,9,3,-6,0,5,-6,0,12,1,-10,1
5,9,3,-7,0,5,-6,0,12,1,-10,1
5,10,4,-7,0,5,-5,0,12,1,-10,1
5,10,4,-7,0,5,-5,0,12,1,-10,1
5,10,4,-7,0,5,-5,0,13,2,-10,1
5,10,4,-7,0,5,-6,1,13,2,-10,0
6,10,4,-8,0,5,-6,2,14,2,-10,0
6,10,4,-8,0,5,-6,2,14,2,-10,0
7,10,4,-8,0,5,-6,2,14,2,-9,0
7,10,4,-8,0,6,-6,3,14,3,-9,0
7,11,4,-8,0,6,-6,3,14,3,-9,0
7,11,4,-8,0,6,-7,4,14,4,-9,0
7,11,3,-9,0,6,-7,4,15,4,-9,0
7,11,3,-9,0,6,-8,4,15,5,-9,0
7,11,3,-9,0,6,-8,4,15,5,-9,0
7,11,3,-9,0,6,-9,3,14,5,-9,1
8,12,3,-9,0,7,-9,2,14,4,-9,1
8,11,3,-9,1,7,-10,1,13,4,-9,1
8,11,3,-9,1,6,-10,0,13,3,-9,1
8,11,3,-9,1,6,-10,0,12,2,-9,1
8,11,3,-9,1,6,-11,-1,11,1,-9,1
8,11,3,-9,1,6,-11,-2,11,0,-9,1
8,12,3,-10,1,6,-11,-3,11,0,-9,0
9,12,3,-10,1,6,-11,-3,11,0,-9,0
9,12,3,-10,1,6,-11,-4,11,0,-9,0
8,11,3,-9,1,6,-10,-4,11,-1,-9,0
8,11,3,-9,1,6,-10,-5,10,-1,-10,0
8,11,3,-9,1,6,-10,-5,10,-2,-10,0
8,11,3,-9,1,6,-10,-6,10,-2,-10,-1
8,11,3,-9,1,6,-10,-6,9,-3,-10,-1
8,10,3,-9,1,5,-10,-7,9,-3,-10,-1
8,10,2,-9,1,5,-10,-7,9,-2,-10,-1
8,10,2,-8,1,5,-10,-7,9,-2,-11,-1
8,9,1,-8,1,5,-10,-8,9,-1,-11,-2
8,9,1,-8,1,5,-10,-8,9,-1,-11,-2
8,9,1,-7,1,4,-10,-8,9,-1,-11,-3
7,8,1,-7,1,4,-10,-7,9,-1,-11,-3
7,8,1,-7,1,4,-10,-6,10,-1,-11,-3
6,7,1,-6,1,3,-9,-5,10,-1,-12,-3
6,6,0,-6,1,3,-9,-4,11,-1,-12,-3
5,6,0,-5,0,2,-8,-3,11,-1,-13,-3
5,6,1,-5,0,2,-8,-3,11,-1,-13,-4
4,5,1,-5,0,2,-8,-2,11,-1,-13,-4
4,5,1,-4,0,2,-7,-2,11,-1,-13,-4
3,4,1,-4,0,2,-6,-1,11,-1,-13,-4
3,4,1,-4,0,2,-5,-1,10,-1,-14,-5
3,4,1,-3,0,2,-5,0,10,-2,-14,-5
3,4,0,-3,0,1,-5,0,10,-2,-15,-6
3,3,0,-2,0,1,-5,0,10,-2,-15,-6
3,3,0,-2,0,1,-6,0,10,-2,-15,-7
3,3,0,-2,0,1,-6,0,11,-2,-15,-7
3,3,0,-2,0,1,-7,0,11,-2,-15,-7
2,3,0,-2,0,1,-7,0,11,-2,-15,-7
2,3,0,-2,0,1,-7,1,11,-2,-15,-7
2,3,0,-2,0,1,-7,1,11,-2,-15,-8
2,3,0,-2,0,1,-7,1,11,-3,-15,-8
2,3,0,-2,0,1,-6,1,11,-3,-14,-8
2,3,0,-2,0,1,-6,1,11,-3,-14,-9
2,3,0,-2,0,1,-5,2,11,-3,-14,-9
2,3,0,-2,0,1,-5,2,11,-3,-13,-9
3,3,0,-2,0,1,-4,2,11,-3,-13,-9
3,3,0,-2,0,1,-4,2,11,-3,-13,-9
2,3,0,-2,0,1,-4,2,11,-3,-13,-9
2,2,0,-1,0,1,-4,2,11,-3,-13,-9
2,2,0,-1,0,1,-4,2,10,-4,-13,-9
2,3,0,-1,0,1,-4,3,10,-4,-13,-10
2,3,0,-2,-1,1,-4,3,10,-4,-14,-10
2,3,0,-2,0,1,-4,3,10,-5,-14,-11
2,3,0,-2,0,1,-3,3,9,-5,-14,-11
2,3,0,-2,0,1,-3,3,9,-6,-14,-11
2,3,0,-2,0,1,-2,3,8,-6,-14,-11
3,3,0,-2,0,1,-2,3,8,-6,-14,-12
3,3,-1,-2,0,1,-1,4,8,-6,-14,-12
2,2,-1,-1,0,0,0,4,8,-6,-14,-12
2,2,-1,-1,0,0,1,4,8,-6,-14,-12
2,2,-1,-1,0,0,1,4,7,-6,-14,-13
2,2,-1,-1,0,0,2,4,7,-6,-14,-13
2,2,-1,-1,0,0,2,4,7,-6,-14,-13
2,2,-1,-1,0,0,1,4,7,-6,-14,-13
2,2,-1,-1,0,0,1,4,6,-5,-14,-13
2,3,0,-1,0,0,0,4,6,-5,-14,-13
2,3,0,-2,0,0,0,4,6,-4,-15,-13
2,3,0,-2,0,0,0,4,6,-4,-15,-13
2,3,0,-2,0,0,0,4,6,-3,-15,-13
2,3,0,-2,0,1,0,4,6,-3,-15,-13
2,3,0,-2,0,1,0,4,6,-3,-15,-13
2,2,0,-2,0,1,0,4,7,-3,-15,-13
2,2,0,-2,0,1,0,4,7,-3,-15,-14
2,3,0,-2,0,1,0,4,7,-3,-15,-14
2,3,0,-1,0,1,0,4,8,-4,-15,-14
2,3,0,-1,0,0,0,5,9,-4,-15,-14
2,3,0,-1,0,0,0,5,9,-4,-15,-14
2,3,0,-1,0,1,0,5,9,-4,-15,-14
2,3,0,-1,0,0,-1,4,10,-4,-15,-15
2,2,-1,-1,0,0,-1,4,10,-4,-16,-15
3,2,-2,-1,1,-1,-2,5,11,-4,-16,-16
4,1,-4,-1,3,-2,-3,6,12,-4,-17,-18
5,1,-6,-1,4,-3,-3,7,15,-3,-18,-19
7,0,-8,-2,6,-4,-3,10,20,-1,-19,-20
9,0,-11,-3,8,-6,-3,15,25,2,-19,-21
12,0,-13,-4,11,-7,-3,22,32,7,-18,-21
14,0,-15,-6,14,-8,-2,28,40,14,-17,-21
18,1,-18,-9,17,-9,-3,31,47,20,-16,-21
22,3,-20,-12,20,-9,-4,28,51,27,-13,-19
25,7,-20,-16,21,-7,-5,20,52,34,-7,-14
28,12,-18,-20,22,-4,-7,6,52,43,0,-8
31,17,-15,-24,22,0,-10,-10,49,53,10,0
33,23,-11,-27,21,5,-13,-26,46,63,20,8
34,30,-6,-31,20,11,-18,-42,39,72,30,17
35,37,0,-35,17,18,-22,-60,27,77,40,25
36,45,7,-40,13,25,-27,-79,11,77,50,34
36,53,15,-44,9,33,-32,-101,-9,74,60,43
34,59,24,-46,3,41,-37,-120,-31,66,67,50
28,63,34,-45,-4,48,-40,-134,-52,51,70,55
19,64,43,-41,-13,52,-42,-141,-68,33,67,55
8,61,51,-34,-22,55,-41,-144,-80,14,59,53
-4,57,58,-25,-32,56,-38,-145,-89,-6,47,47
-16,51,64,-16,-40,56,-34,-143,-95,-26,32,40
-25,45,67,-9,-46,55,-29,-141,-98,-45,19,33
-31,39,68,-3,-50,53,-25,-138,-100,-60,8,26
-34,33,66,1,-51,49,-23,-136,-100,-73,-1,19
-35,27,62,5,-50,44,-21,-132,-98,-82,-8,12
-35,22,56,7,-47,38,-20,-128,-93,-86,-14,6
-34,16,49,9,-43,31,-20,-122,-86,-85,-18,1
-32,12,42,10,-38,26,-19,-114,-78,-81,-21,-3
-29,9,35,10,-33,21,-19,-105,-69,-75,-23,-6
-25,6,29,10,-28,17,-19,-94,-60,-68,-24,-8
-22,4,24,10,-24,14,-19,-83,-50,-61,-25,-10
-19,3,21,10,-21,12,-18,-72,-41,-53,-25,-11
-17,2,18,8,-19,10,-16,-60,-31,-46,-25,-11
-15,2,17,7,-18,9,-15,-50,-20,-40,-24,-10
-13,2,15,5,-16,8,-13,-40,-11,-34,-23,-9
-11,2,12,5,-13,6,-11,-31,-2,-30,-22,-7
-10,2,10,4,-11,5,-10,-23,5,-26,-21,-6
-8,2,8,4,-9,4,-8,-16,12,-22,-21,-5
-6,2,6,3,-7,3,-7,-10,19,-18,-21,-5
-4,2,5,2,-5,3,-6,-5,25,-14,-20,-4
-3,2,4,1,-4,2,-6,-1,30,-11,-20,-4
-2,2,3,1,-4,2,-5,2,34,-8,-19,-4
-1,1,2,0,-3,1,-4,4,38,-7,-19,-4
-1,1,1,0,-2,1,-4,5,41,-6,-19,-4
0,1,0,0,-1,0,-4,7,44,-6,-19,-3
0,1,0,0,0,0,-4,7,46,-5,-19,-3
0,1,0,0,0,0,-5,8,47,-4,-19,-2
0,2,0,0,-1,0,-5,8,48,-3,-19,-2
0,2,1,0,-1,1,-4,9,48,-2,-19,-2
0,2,1,0,-2,1,-3,9,48,-1,-19,-2
0,2,1,0,-1,0,-2,10,49,-1,-18,-2
0,1,0,0,-1,0,0,10,49,-1,-18,-2
0,2,1,0,-1,0,0,9,50,-1,-18,-2
0,2,1,0,-1,1,0,9,50,0,-18,-2
0,2,1,0,-1,1,0,9,50,0,-17,-2
0,2,1,0,-1,1,0,9,49,0,-17,-2
0,2,1,0,-1,1,0,9,49,0,-16,-2
0,2,0,0,-1,1,0,9,48,0,-16,-2
0,1,0,0,-1,1,0,8,48,0,-16,-2
0,1,0,0,-1,1,0,6,47,-1,-16,-2
0,2,0,0,-1,1,0,5,47,-1,-16,-2
0,2,0,0,-1,1,0,4,47,-2,-15,-1
0,1,0,0,-1,0,0,4,47,-2,-15,-1
0,1,0,0,-1,0,0,4,48,-2,-15,-1
0,1,0,0,-1,0,0,4,48,-2,-15,-1
0,1,0,0,-1,0,0,4,49,-2,-15,-1
0,1,0,0,-1,0,0,4,49,-2,-15,-2
0,2,0,-1,0,0,0,4,50,-2,-16,-3
0,2,1,-1,0,1,-1,4,51,-2,-16,-4
0,3,1,-1,0,1,-1,4,52,-2,-16,-4
0,3,1,-1,0,1,-1,4,54,-2,-16,-4
0,2,1,-1,0,1,-1,4,55,-1,-16,-4
0,2,0,-1,0,1,-1,5,56,-1,-16,-4
0,2,0,-1,0,1,-1,5,57,0,-16,-4
0,2,1,-1,0,1,-1,5,58,0,-16,-4
0,2,1,-1,0,1,-1,5,59,0,-16,-4
0,3,1,-1,0,1,-2,5,60,0,-16,-4
0,2,1,-1,0,1,-2,5,60,0,-16,-4
0,2,1,-1,0,1,-3,5,61,0,-16,-4
0,2,1,-1,0,1,-3,5,61,0,-16,-4
0,2,1,-1,0,1,-3,5,61,0,-16,-4
0,2,1,-1,0,1,-4,5,62,0,-15,-4
0,2,1,-1,0,1,-4,5,62,0,-14,-4
0,2,1,-1,0,1,-4,5,62,0,-14,-3
0,2,1,-1,0,1,-4,4,62,0,-13,-3
0,1,1,0,0,0,-4,3,62,0,-13,-2
0,1,1,0,0,0,-3,3,62,0,-12,-2
0,2,1,-1,0,0,-3,2,62,0,-12,-2
1,2,1,-1,0,0,-3,1,62,0,-11,-2
1,2,1,-1,0,0,-3,1,62,0,-11,-2
1,2,1,-1,0,1,-3,0,62,0,-10,-2
1,2,1,-1,0,1,-3,0,62,0,-10,-2
0,1,1,-1,0,1,-3,0,62,0,-9,-2
0,1,1,0,-1,1,-3,0,62,0,-9,-2
0,1,1,0,-1,1,-3,0,62,1,-9,-2
0,1,1,0,-1,1,-3,0,62,1,-8,-2
0,1,1,0,-1,0,-3,0,61,2,-8,-2
0,1,1,0,-1,0,-3,0,61,2,-7,-2
1,1,1,0,-1,0,-3,0,61,2,-7,-2
1,1,1,-1,-1,1,-3,0,61,3,-7,-2
1,2,2,-1,-1,1,-3,0,61,3,-7,-2
1,2,2,-1,-1,1,-3,0,61,3,-6,-2
1,2,1,-1,0,1,-3,0,61,3,-6,-2
1,2,1,-1,0,0,-3,0,62,4,-6,-2
1,2,1,-1,0,0,-3,1,62,4,-6,-2
1,2,1,-1,0,1,-3,1,63,4,-6,-1
1,2,1,-1,0,1,-3,2,64,4,-6,-1
1,2,1,-1,0,1,-3,2,64,4,-6,0
1,2,1,-1,0,1,-4,3,65,4,-5,0
1,2,1,-1,0,1,-4,4,65,4,-5,0
1,2,1,-2,0,1,-5,5,65,4,-5,0
2,2,1,-2,0,1,-5,6,66,4,-5,0
2,3,1,-2,0,1,-6,6,66,4,-5,0
3,3,1,-3,0,2,-6,7,67,5,-5,1
3,3,0,-3,1,2,-6,7,68,5,-4,1
3,3,0,-3,1,1,-6,8,69,6,-4,2
4,4,0,-4,2,2,-6,9,70,6,-3,2
5,5,1,-4,1,3,-6,9,70,7,-3,2
5,6,1,-4,1,3,-6,10,71,8,-3,2
5,6,1,-5,2,2,-6,10,71,10,-2,3
6,6,0,-5,2,2,-6,11,72,11,-2,3
6,7,1,-6,2,3,-6,11,73,13,-1,3
7,8,1,-7,2,3,-6,11,74,14,-1,4
7,8,0,-7,2,3,-7,11,74,15,0,4
8,8,0,-8,3,3,-8,11,75,15,0,5
8,8,0,-8,3,3,-9,11,75,16,0,6
8,9,0,-9,3,4,-9,11,76,17,1,6
9,9,0,-9,3,4,-10,11,76,18,2,7
9,10,0,-10,4,4,-10,11,77,19,3,7
10,10,0,-10,4,4,-11,11,78,20,4,8
11,11,0,-11,4,4,-11,11,79,21,5,9
11,11,0,-11,5,5,-11,10,80,22,6,10
12,12,0,-12,5,5,-12,10,80,23,7,11
12,13,0,-12,5,6,-12,10,81,24,8,12
13,13,0,-13,6,6,-13,10,81,25,9,13
14,14,0,-13,6,6,-14,9,81,26,10,13
14,14,0,-13,6,7,-15,9,82,26,11,13
15,15,1,-14,6,7,-16,9,82,27,11,14
15,16,1,-15,6,8,-16,9,82,28,12,14
16,16,1,-15,6,8,-17,8,82,28,12,14
16,17,1,-16,6,8,-17,7,82,29,13,15
16,18,2,-16,6,9,-17,7,82,30,14,16
16,18,2,-17,6,9,-18,6,82,30,15,17
16,19,3,-17,6,10,-18,6,82,31,15,17
16,19,3,-17,6,10,-19,5,82,31,16,18
16,19,3,-17,6,10,-19,5,82,32,16,18
16,20,4,-17,6,10,-18,4,81,32,17,19
16,20,4,-17,6,11,-18,4,81,32,17,20
16,20,4,-17,6,11,-17,3,81,32,17,20
16,20,4,-17,6,11,-17,3,80,32,18,21
16,20,4,-17,5,11,-16,2,80,32,18,21
16,20,5,-17,5,12,-16,2,79,32,18,21
15,20,5,-17,4,12,-16,1,79,31,18,22
14,20,6,-17,3,12,-16,1,78,30,17,22
14,19,6,-16,3,12,-16,0,77,29,17,22
13,19,6,-16,2,12,-15,0,76,28,16,22
12,18,6,-15,2,11,-14,0,76,27,16,22
11,17,6,-14,1,11,-13,-1,75,26,15,22
11,16,6,-13,1,10,-13,-1,74,25,14,22
10,16,6,-13,1,10,-12,-1,73,23,13,21
9,15,6,-12,0,10,-11,-1,72,22,13,20
8,14,6,-11,0,9,-10,-1,71,21,12,19
7,13,6,-10,0,9,-9,-2,70,19,11,18
6,12,6,-9,0,9,-8,-2,68,18,10,17
5,12,6,-9,-1,8,-7,-2,67,16,9,16
5,11,6,-8,-1,8,-7,-3,65,15,8,15
4,10,6,-7,-1,7,-7,-3,64,14,6,14
4,9,6,-6,-1,6,-6,-3,63,14,5,13
3,8,6,-5,-2,5,-5,-3,62,13,5,12
2,7,5,-4,-2,5,-4,-3,61,13,4,12
2,6,5,-4,-2,4,-4,-3,60,12,3,11
1,5,4,-3,-2,3,-4,-4,59,12,2,10
1,4,4,-2,-2,3,-3,-4,58,11,1,9
0,4,4,-1,-2,3,-3,-4,57,10,0,8
0,3,3,-1,-2,2,-2,-4,57,9,0,8
0,2,3,0,-2,2,-2,-5,56,8,0,7
-1,2,4,0,-2,2,-1,-5,55,7,-1,6
-1,1,4,0,-2,1,-1,-6,54,6,-2,6
-1,1,3,0,-2,0,0,-6,53,5,-2,6
-2,0,2,1,-2,0,0,-7,53,5,-3,6
-2,0,2,2,-2,0,0,-7,52,4,-3,6
-2,-1,2,2,-2,-1,0,-7,52,3,-4,5
-2,-1,2,2,-2,-1,0,-7,51,2,-4,5
-3,-1,2,2,-2,-1,-1,-6,51,1,-5,5
-3,-1,2,2,-3,-1,-2,-6,50,0,-5,5
-3,-1,2,2,-3,-1,-2,-6,50,0,-5,4
-3,-1,2,2,-3,-1,-1,-7,50,0,-5,3
-3,-1,2,2,-3,-1,-1,-7,49,0,-5,3
-3,-1,2,2,-3,-1,-1,-8,49,-1,-6,2
-3,-2,1,3,-3,-1,-1,-8,48,-1,-6,2
-3,-2,1,3,-3,-2,-1,-8,48,-1,-6,2
-3,-2,1,3,-3,-2,-1,-8,48,-2,-6,2
-3,-2,1,3,-3,-2,-1,-8,48,-2,-7,2
-4,-2,1,3,-3,-2,-1,-9,48,-3,-7,2
-4,-2,1,3,-3,-2,-1,-9,48,-3,-7,2
-4,-3,1,4,-3,-2,-2,-9,48,-3,-7,2
-4,-4,1,4,-3,-3,-3,-9,48,-3,-7,2
-4,-4,0,5,-3,-3,-4,-9,48,-3,-7,2
-4,-4,1,4,-3,-3,-4,-9,48,-3,-7,2
-4,-3,1,4,-3,-2,-4,-9,47,-4,-7,2
-5,-4,1,5,-3,-2,-4,-8,47,-4,-7,2
-5,-4,1,5,-3,-2,-3,-7,47,-4,-7,2
-5,-4,1,5,-3,-2,-3,-6,47,-5,-7,2
-5,-4,1,5,-3,-2,-3,-5,47,-5,-7,2
-5,-4,1,5,-3,-2,-3,-5,46,-6,-7,2
-5,-4,1,5,-3,-3,-3,-4,46,-6,-7,2
-5,-4,1,5,-4,-3,-3,-3,46,-7,-7,1
-6,-4,2,5,-4,-2,-3,-3,45,-7,-7,1
-6,-4,2,5,-4,-2,-3,-2,45,-8,-8,1
-6,-5,2,5,-4,-2,-3,-2,45,-8,-8,1
-6,-5,1,5,-3,-3,-3,-1,44,-8,-8,1
-6,-4,2,5,-3,-2,-2,0,44,-8,-8,1
-6,-4,2,5,-3,-2,-2,0,43,-8,-8,0
-6,-4,2,5,-3,-2,-1,0,43,-8,-8,0
-6,-4,2,5,-4,-2,0,1,42,-7,-8,0
-6,-4,2,5,-4,-2,0,1,42,-7,-8,0
-6,-4,2,5,-4,-2,0,1,41,-6,-8,0
-6,-4,2,5,-4,-2,0,2,41,-6,-8,0
-6,-4,2,5,-4,-2,0,2,40,-6,-8,0
-6,-4,2,5,-4,-2,0,2,40,-5,-8,0
-6,-4,2,5,-4,-2,0,3,40,-5,-8,0
-6,-4,2,5,-4,-2,0,4,41,-5,-8,-1
-6,-4,2,5,-4,-2,-1,4,41,-5,-8,-1
-6,-4,2,5,-4,-2,-1,4,42,-5,-9,-1
-6,-4,2,5,-4,-2,-2,3,42,-5,-9,-1
-6,-4,2,5,-4,-2,-2,1,43,-6,-9,-1
-6,-4,2,5,-4,-2,-1,0,44,-6,-9,-1
-6,-5,2,6,-4,-3,-1,-2,44,-6,-9,-1
-6,-5,1,6,-4,-3,0,-3,44,-6,-10,-1
-6,-5,1,6,-4,-3,0,-5,45,-6,-10,-1
-6,-5,1,6,-4,-3,0,-6,45,-6,-10,-1
-6,-5,1,6,-4,-3,1,-6,45,-6,-10,-1
-6,-5,1,6,-4,-3,1,-7,45,-6,-10,-1
-6,-5,1,6,-4,-3,2,-7,45,-6,-10,-1
-6,-5,1,6,-4,-3,2,-7,45,-6,-10,-1
-6,-5,1,6,-4,-3,2,-7,44,-6,-10,-1
-6,-5,1,6,-4,-3,3,-7,44,-5,-10,-1
-6,-5,1,6,-4,-3,4,-7,44,-5,-10,-1
-6,-5,0,6,-3,-3,5,-7,43,-5,-10,-2
-6,-6,0,6,-3,-3,6,-7,43,-4,-10,-2
-6,-6,0,6,-3,-4,6,-6,43,-4,-10,-2
-6,-6,0,6,-3,-4,6,-6,43,-4,-10,-2
-5,-6,0,6,-3,-4,7,-5,42,-3,-10,-2
-5,-6,0,6,-3,-4,7,-5,42,-3,-10,-2
-5,-6,0,6,-3,-4,7,-5,42,-3,-10,-2
-5,-5,0,6,-3,-3,7,-5,42,-3,-10,-2
-5,-5,0,6,-3,-3,8,-4,42,-3,-10,-2
-5,-5,0,6,-3,-3,8,-4,41,-3,-10,-2
-5,-5,0,6,-2,-3,10,-3,41,-3,-10,-2
-5,-5,0,6,-2,-3,11,-3,42,-3,-10,-2
-6,-5,0,6,-3,-3,11,-2,42,-4,-10,-2
-6,-5,1,6,-3,-3,11,-2,42,-4,-10,-2
-6,-5,0,6,-3,-3,11,-2,42,-4,-10,-2
-5,-5,0,6,-2,-3,12,-2,42,-4,-10,-2
-5,-5,0,6,-2,-3,12,-2,42,-4,-10,-3
-5,-5,0,6,-2,-3,13,-2,42,-4,-10,-3
-5,-5,0,5,-2,-3,13,-1,42,-4,-10,-3
-4,-4,0,4,-2,-2,13,-1,42,-4,-10,-3
-4,-4,0,4,-2,-3,13,0,42,-4,-10,-2
-4,-4,0,4,-2,-3,14,0,42,-4,-10,-2
-4,-4,0,4,-2,-3,14,0,41,-3,-10,-1
-4,-4,0,4,-2,-3,15,0,41,-3,-10,-1
-4,-4,0,4,-2,-3,15,0,41,-3,-10,0
-4,-4,0,5,-2,-3,15,0,41,-2,-10,0
-4,-4,0,5,-2,-3,15,0,41,-2,-10,0
-4,-4,0,5,-2,-3,16,0,40,-2,-10,0
-5,-4,0,5,-2,-2,16,0,40,-2,-10,0
-5,-4,1,4,-2,-2,16,0,40,-2,-10,0
-4,-3,1,4,-2,-2,16,0,40,-2,-10,0
-4,-3,1,4,-2,-2,16,0,40,-2,-10,0
-4,-3,1,4,-2,-1,16,0,40,-2,-10,1
-4,-3,2,4,-2,-1,15,0,40,-3,-10,1
-4,-3,1,4,-2,-1,15,0,40,-3,-10,1
-4,-3,1,4,-1,-1,14,0,40,-3,-10,1
-4,-4,0,4,-1,-2,13,1,40,-3,-10,1
-4,-4,0,4,-1,-2,13,1,40,-3,-10,1
-4,-4,0,4,-1,-2,12,1,40,-3,-10,1
-4,-3,1,4,-1,-1,12,1,40,-3,-10,0
-4,-3,1,3,-1,-1,11,1,40,-3,-10,0
-4,-3,1,3,-1,-1,10,1,41,-3,-10,0
-4,-3,1,4,-1,-1,9,1,41,-3,-10,0
-4,-4,1,4,-1,-2,8,1,41,-3,-10,0
-4,-4,1,4,-1,-2,8,1,41,-3,-10,0
-4,-3,1,4,-1,-1,7,1,41,-3,-10,0
-4,-3,1,4,-1,-1,7,2,41,-3,-10,0
-4,-2,1,4,-1,-1,6,2,41,-3,-9,0
-3,-2,0,4,-1,-1,5,2,41,-2,-9,0
-3,-2,0,4,-1,-1,4,2,41,-2,-9,0
-3,-2,0,4,-1,-1,4,2,41,-2,-9,-1
-3,-2,1,3,-1,-1,4,2,41,-2,-9,-1
-3,-2,1,3,-1,-1,4,2,41,-2,-9,-1
-4,-2,1,4,-1,-1,5,2,41,-3,-9,-1
-4,-3,1,4,-1,-1,6,3,41,-3,-9,-1
-4,-3,0,4,-1,-1,7,3,41,-4,-9,-1
-4,-3,0,4,-1,-1,7,3,41,-4,-9,-1
-3,-2,0,3,-1,-1,6,4,41,-5,-9,-1
-3,-2,0,3,0,-1,6,4,41,-5,-9,-1
-3,-2,0,3,0,-1,6,4,41,-5,-9,-1
-3,-2,0,3,0,-1,6,4,41,-5,-9,-1
-3,-2,0,3,0,-1,6,4,40,-5,-9,-1
-3,-2,0,3,0,-1,8,5,40,-5,-9,-1
-3,-2,0,3,0,-1,9,5,40,-5,-9,-1
-3,-2,0,3,0,-1,10,6,40,-6,-9,-1
-3,-2,0,3,-1,-2,11,7,39,-6,-9,-1
-3,-3,0,3,-1,-2,12,8,39,-6,-9,-1
-3,-3,0,4,-1,-2,13,9,39,-5,-9,-2
-3,-3,0,4,0,-2,14,9,39,-5,-9,-2
-3,-3,0,4,0,-2,15,9,39,-4,-9,-2
-3,-3,0,4,0,-2,15,10,39,-3,-9,-2
-3,-3,0,4,0,-2,16,10,39,-2,-9,-2
-3,-3,0,4,0,-2,16,11,40,-2,-9,-2
-3,-3,0,4,0,-2,17,11,40,-2,-9,-3
-3,-3,0,4,0,-2,18,11,40,-2,-9,-3
-3,-3,0,4,0,-2,19,11,40,-2,-9,-3
-3,-4,0,4,0,-2,20,11,40,-2,-8,-3
-3,-4,0,4,-1,-2,20,11,40,-3,-8,-3
-3,-4,0,4,-1,-2,21,12,40,-3,-8,-3
-3,-4,0,4,-1,-2,21,12,40,-4,-8,-3
-3,-4,0,4,-1,-2,21,12,40,-4,-8,-3
-3,-3,0,4,-1,-2,20,12,40,-4,-8,-3
-3,-3,0,4,-1,-1,20,12,40,-4,-8,-3
-3,-3,0,4,-1,-1,20,12,40,-5,-8,-3
-3,-4,0,4,-1,-2,19,12,40,-5,-8,-3
-3,-4,0,4,-1,-2,18,12,40,-5,-8,-3
-3,-3,0,4,-1,-2,17,12,40,-5,-8,-3
-3,-3,1,4,-1,-2,17,13,40,-5,-8,-2
-3,-3,1,4,-1,-2,17,13,40,-5,-8,-3
-3,-3,1,4,-1,-2,16,13,40,-5,-8,-3
-4,-3,1,4,-1,-2,15,13,40,-4,-8,-3
-4,-4,1,4,-1,-2,14,13,40,-4,-8,-3
-4,-4,1,4,-1,-2,14,13,40,-4,-8,-4
-4,-4,1,4,-1,-2,14,13,41,-4,-8,-4
-4,-3,1,4,-1,-2,13,14,41,-4,-8,-4
-4,-3,1,4,-1,-2,13,14,41,-4,-8,-4
-4,-3,0,4,-1,-2,12,15,41,-5,-8,-4
-3,-3,0,4,0,-2,12,15,41,-5,-8,-4
-3,-3,0,4,0,-1,12,15,41,-5,-8,-4
-3,-3,0,3,0,-1,12,15,41,-5,-8,-5
-3,-3,0,3,0,-1,12,14,41,-5,-8,-5
-3,-3,0,3,0,-1,13,13,41,-6,-8,-5
-4,-4,0,4,0,-2,13,13,41,-6,-8,-5
-4,-4,0,4,0,-2,14,13,41,-6,-8,-5
-4,-4,0,5,-1,-2,14,13,41,-6,-8,-5
-4,-4,0,5,-1,-2,15,12,41,-6,-8,-5
-4,-3,0,5,-1,-1,15,12,41,-6,-8,-5
-4,-3,0,4,0,-1,16,12,41,-7,-8,-5
-4,-3,0,4,0,-1,16,12,41,-7,-8,-4
-4,-3,0,4,0,-1,17,12,42,-7,-8,-4
-3,-2,1,4,0,-1,17,12,42,-7,-8,-4
-3,-2,1,4,0,-1,16,12,42,-6,-8,-4
-3,-2,1,4,0,-1,15,11,42,-6,-7,-4
-3,-2,1,4,0,-1,15,11,42,-5,-7,-5
-3,-2,1,4,0,-1,14,10,42,-4,-7,-5
-3,-2,1,3,0,-1,14,10,42,-4,-7,-5
-3,-2,1,3,0,0,14,10,42,-3,-7,-5
-3,-1,2,3,-1,0,14,9,42,-3,-6,-5
-3,0,3,3,-1,1,14,7,42,-3,-6,-5
-3,0,3,2,-1,1,14,5,42,-3,-6,-5
-3,0,3,2,-1,1,14,4,43,-3,-6,-4
-3,0,3,2,-1,1,14,2,43,-3,-6,-4
-3,0,3,2,-1,1,14,1,43,-3,-6,-4
-3,0,3,2,-1,1,14,0,43,-3,-6,-4
-3,0,3,2,-1,1,14,0,43,-3,-6,-4
-2,0,3,2,-1,1,14,-1,43,-3,-6,-4
-2,1,3,2,-1,1,15,-1,43,-2,-5,-3
-2,1,3,2,-1,1,15,-1,43,-2,-5,-3
-3,1,3,2,-1,2,15,-1,43,-2,-5,-3
-3,1,3,2,-1,2,14,-1,43,-2,-5,-3
-2,1,3,1,-1,2,14,-1,43,-1,-6,-3
-1,1,3,1,0,2,14,0,43,-1,-6,-3
-1,1,3,1,0,1,14,0,43,-1,-6,-3
-1,1,2,1,0,1,14,0,43,-1,-6,-3
-1,1,2,0,0,1,12,1,43,0,-6,-2
-1,1,2,0,0,1,11,2,44,0,-6,-2
0,2,2,0,0,2,10,3,44,0,-6,-1
0,3,2,0,0,2,9,3,44,1,-6,-1
0,3,3,-1,0,3,9,3,44,1,-6,-1
0,3,3,-1,0,3,9,3,44,1,-6,-1
0,3,3,-1,0,2,8,2,43,1,-6,0
0,4,3,-1,0,2,8,1,43,0,-6,0
0,4,3,-1,0,3,7,0,42,0,-6,0
0,4,3,-1,0,3,7,-1,41,-1,-6,0
1,3,2,-1,0,3,6,-1,41,-1,-6,0
1,3,2,-1,0,3,5,-2,40,-2,-6,0
1,3,2,-1,0,3,3,-2,39,-2,-7,0
1,3,2,-1,0,3,1,-3,39,-3,-7,1
1,3,2,-1,0,3,0,-3,38,-3,-7,1
1,3,2,0,0,2,0,-3,38,-4,-7,1
0,2,2,0,0,2,1,-3,37,-4,-8,1
0,2,2,0,0,2,1,-3,37,-5,-8,1
0,2,2,0,0,2,1,-3,36,-5,-8,1
0,2,1,0,1,1,1,-3,36,-6,-8,1
0,2,1,0,1,1,1,-3,35,-6,-8,1
1,2,1,-1,1,1,1,-3,35,-6,-8,0
1,2,0,-1,1,0,1,-3,35,-6,-9,0
2,1,0,-1,2,0,2,-3,35,-5,-9,0
2,1,-1,-1,2,0,2,-3,35,-5,-9,-1
2,0,-1,0,3,-1,3,-3,35,-5,-9,-1
2,0,-2,0,3,-1,3,-3,35,-5,-10,-1
1,0,-2,0,3,-1,4,-2,35,-5,-10,-1
1,0,-2,0,3,-1,5,-2,35,-5,-10,-2
0,-1,-2,1,2,-2,5,-1,35,-5,-11,-2
-1,-2,-2,2,2,-2,5,-1,36,-5,-11,-2
-1,-3,-2,3,2,-2,5,0,36,-5,-11,-2
-1,-3,-2,3,1,-2,5,0,37,-5,-11,-2
-1,-3,-2,3,1,-2,5,0,37,-6,-11,-2
-1,-4,-2,4,1,-3,5,1,37,-6,-11,-3
-1,-4,-2,4,1,-3,5,1,37,-7,-11,-3
-1,-4,-2,4,1,-3,5,1,37,-7,-11,-3
-1,-4,-2,4,1,-3,5,1,37,-7,-11,-3
-1,-4,-2,3,1,-3,5,1,37,-7,-12,-3
-1,-4,-2,3,1,-3,5,1,37,-7,-12,-3
-2,-4,-2,4,1,-3,5,1,37,-7,-12,-3
-2,-4,-2,4,1,-3,5,1,37,-7,-12,-3
-2,-4,-2,4,1,-3,4,1,37,-7,-12,-3
-2,-4,-2,4,1,-3,4,1,37,-7,-12,-3
-2,-4,-2,4,1,-3,4,1,37,-7,-12,-3
-2,-4,-3,4,2,-4,4,2,37,-7,-12,-3
-1,-5,-4,4,2,-5,4,2,37,-7,-12,-3
-1,-5,-4,4,3,-5,4,2,37,-7,-12,-2
-1,-5,-4,4,3,-5,4,2,37,-7,-12,-2
-1,-5,-3,4,2,-5,4,2,36,-7,-12,-2
-1,-5,-3,4,2,-4,3,2,36,-7,-12,-2
-1,-5,-3,4,2,-4,3,2,36,-7,-12,-2
-1,-5,-3,4,2,-4,3,3,36,-8,-12,-2
-1,-5,-3,4,2,-4,3,3,35,-8,-12,-2
0,-5,-3,4,2,-4,2,3,35,-8,-12,-2
0,-5,-3,4,2,-5,2,3,35,-8,-12,-2
0,-5,-4,4,2,-5,2,3,34,-8,-12,-3
0,-5,-4,3,3,-5,1,3,34,-8,-12,-3
0,-5,-4,3,3,-5,1,3,34,-9,-12,-3
0,-5,-4,3,3,-5,0,4,34,-9,-12,-3
0,-5,-4,3,3,-5,0,4,33,-9,-12,-3
0,-5,-5,3,3,-5,0,4,33,-9,-12,-3
0,-5,-5,3,3,-5,0,4,32,-9,-12,-3
0,-5,-5,3,3,-5,0,4,32,-9,-12,-4
0,-5,-5,3,3,-5,0,4,31,-8,-12,-4
0,-5,-5,3,3,-5,0,4,31,-8,-12,-3
0,-5,-5,3,3,-5,0,4,30,-7,-12,-3
0,-5,-5,3,3,-5,0,4,30,-7,-12,-3
0,-5,-4,3,2,-5,0,5,29,-7,-12,-3
0,-5,-4,3,2,-5,0,5,29,-7,-12,-3
0,-5,-5,3,2,-5,0,6,28,-7,-12,-3
0,-5,-5,3,2,-5,1,6,28,-6,-12,-3
0,-5,-4,3,2,-5,1,6,28,-6,-13,-3
0,-5,-4,3,2,-5,1,6,27,-7,-13,-3
0,-5,-4,3,2,-5,1,6,27,-7,-13,-3
0,-5,-4,4,2,-5,1,7,27,-7,-13,-2
0,-5,-4,4,2,-5,1,7,27,-7,-13,-2
0,-5,-4,3,2,-5,0,7,27,-7,-13,-2
0,-5,-4,3,2,-5,0,7,27,-7,-13,-2
0,-5,-4,3,2,-4,-1,7,27,-7,-13,-2
0,-5,-4,3,2,-4,-2,7,27,-7,-13,-2
0,-5,-4,3,2,-4,-2,7,27,-7,-13,-2
0,-5,-4,3,2,-4,-3,7,27,-7,-13,-2
0,-5,-4,3,2,-5,-3,7,27,-7,-13,-2
0,-6,-6,3,3,-6,-4,7,27,-7,-14,-3
1,-7,-8,3,5,-7,-4,9,28,-7,-14,-4
2,-8,-11,3,7,-9,-4,11,30,-6,-15,-5
4,-8,-13,2,9,-10,-4,13,33,-4,-15,-6
6,-8,-14,1,11,-11,-4,17,37,-2,-16,-7
9,-8,-16,0,13,-12,-4,23,43,2,-16,-7
11,-8,-18,-1,15,-13,-4,30,49,7,-15,-7
15,-7,-21,-3,18,-14,-4,35,56,12,-14,-7
19,-6,-24,-5,21,-15,-4,35,60,18,-12,-7
22,-3,-25,-9,24,-14,-6,29,62,24,-9,-4
26,1,-24,-13,25,-12,-8,17,62,31,-3,0
28,7,-22,-17,26,-8,-11,2,60,40,5,7
31,13,-19,-21,26,-3,-15,-14,58,51,14,14
34,20,-14,-26,25,2,-19,-30,54,61,23,20
35,27,-9,-31,23,9,-24,-47,45,68,32,27
36,33,-3,-35,21,15,-28,-67,32,71,41,35
37,40,4,-38,17,22,-33,-88,14,72,50,43
36,47,11,-40,12,29,-37,-110,-7,67,58,50
32,51,19,-41,6,36,-41,-128,-29,57,63,56
25,53,28,-38,-1,41,-44,-140,-49,42,63,59
15,52,37,-33,-10,44,-45,-146,-65,24,59,59
2,49,46,-25,-21,47,-43,-148,-77,5,50,55
-10,44,53,-16,-31,49,-40,-147,-86,-14,38,49
-21,38,59,-8,-39,49,-35,-145,-93,-33,26,43
-30,32,63,0,-45,48,-31,-143,-97,-48,16,37
-35,26,63,5,-48,45,-28,-139,-99,-61,7,30
-38,20,59,9,-48,40,-27,-135,-99,-71,0,23
-38,15,54,12,-46,34,-26,-130,-98,-77,-7,17
-37,10,48,14,-43,29,-27,-124,-94,-79,-12,11
-35,6,41,15,-38,23,-28,-116,-88,-77,-15,7
-32,3,36,15,-34,19,-28,-107,-81,-74,-18,3
-29,0,30,15,-29,15,-28,-96,-73,-69,-19,1
-26,-2,23,15,-24,10,-26,-84,-64,-62,-20,-1
-23,-4,18,15,-20,7,-24,-72,-55,-56,-21,-2
-21,-5,15,14,-17,5,-23,-60,-46,-50,-21,-3
-18,-6,13,12,-15,4,-21,-48,-38,-44,-20,-4
-16,-6,11,11,-13,3,-18,-37,-29,-39,-19,-4
-14,-6,9,9,-11,2,-16,-28,-21,-34,-18,-4
-12,-5,7,8,-9,1,-14,-20,-14,-31,-18,-4
-10,-5,5,8,-7,0,-12,-13,-8,-28,-17,-4
-9,-5,3,8,-5,-1,-11,-7,-2,-24,-17,-4
-7,-5,2,7,-4,-2,-10,-1,3,-21,-17,-4
-5,-5,0,7,-3,-2,-9,3,8,-18,-17,-4
-4,-6,-1,6,-1,-3,-8,7,12,-15,-17,-4
-3,-6,-2,6,0,-4,-7,11,16,-13,-16,-4
-2,-6,-3,5,0,-5,-6,13,19,-12,-16,-4
-2,-6,-4,5,1,-5,-5,15,21,-10,-16,-3
-1,-5,-4,4,2,-5,-4,16,23,-9,-16,-3
0,-5,-5,4,3,-5,-4,16,24,-8,-16,-3
0,-5,-5,4,3,-5,-4,16,25,-6,-15,-3
0,-5,-5,4,3,-5,-4,17,25,-5,-15,-3
0,-5,-5,3,2,-5,-4,17,25,-4,-15,-3
0,-5,-5,3,2,-5,-4,18,25,-4,-15,-2
0,-5,-5,3,2,-5,-4,18,25,-4,-14,-2
0,-5,-5,3,2,-5,-5,18,25,-4,-14,-2
0,-5,-5,3,2,-5,-5,18,24,-4,-14,-2
0,-6,-5,4,2,-5,-5,18,23,-4,-13,-2
0,-6,-5,4,3,-6,-6,18,23,-4,-13,-1
0,-6,-5,4,3,-6,-6,18,22,-4,-12,-1
1,-5,-5,4,3,-5,-7,18,22,-4,-12,-1
1,-5,-5,4,3,-5,-7,19,21,-4,-12,-2
1,-5,-5,4,3,-5,-7,19,21,-4,-12,-2
1,-5,-5,4,3,-5,-8,19,20,-4,-12,-2
1,-5,-5,3,3,-5,-7,19,20,-4,-12,-3
1,-5,-5,3,3,-5,-7,19,20,-4,-12,-3
1,-5,-5,3,3,-5,-6,20,20,-4,-12,-3
1,-5,-5,3,3,-5,-6,20,20,-4,-12,-3
1,-5,-5,2,3,-5,-5,20,21,-5,-12,-3
1,-5,-5,2,3,-5,-5,20,22,-5,-13,-3
1,-5,-5,2,3,-5,-4,20,23,-5,-13,-3
1,-5,-5,3,3,-5,-4,20,24,-5,-14,-3
1,-5,-5,3,3,-5,-4,20,25,-5,-14,-2
1,-5,-5,2,3,-5,-4,20,25,-6,-15,-2
1,-5,-5,2,3,-5,-4,19,26,-6,-15,-2
1,-5,-5,2,3,-5,-5,19,26,-6,-15,-2
1,-5,-5,2,3,-5,-5,19,27,-5,-15,-2
1,-5,-5,2,3,-6,-6,19,28,-4,-15,-2
1,-5,-5,2,4,-6,-7,18,29,-4,-15,-2
1,-4,-5,2,4,-5,-8,15,30,-3,-15,-2
1,-4,-5,2,4,-5,-9,14,30,-2,-15,-2
1,-4,-5,2,4,-5,-9,13,31,-2,-14,-2
1,-4,-5,2,4,-5,-9,11,31,-1,-14,-2
1,-4,-4,2,4,-4,-10,10,31,-1,-14,-2
1,-5,-4,2,3,-4,-10,8,31,-1,-14,-1
1,-5,-5,2,3,-5,-11,7,31,-1,-13,-1
1,-5,-5,2,3,-5,-11,7,31,-1,-12,0
1,-5,-5,2,3,-5,-12,6,31,-1,-12,0
1,-5,-5,2,3,-5,-12,6,31,-1,-11,0
1,-5,-5,2,3,-5,-12,5,31,-1,-11,0
1,-4,-5,1,3,-5,-12,5,31,-1,-10,0
2,-4,-5,1,4,-5,-12,5,31,-1,-9,0
2,-4,-5,1,4,-5,-12,5,31,-1,-9,0
2,-4,-5,1,4,-5,-12,5,31,-1,-8,0
2,-4,-5,0,4,-4,-11,5,30,-1,-8,0
2,-3,-5,0,4,-4,-10,5,30,-1,-7,0
2,-3,-5,0,4,-4,-9,5,29,-1,-6,0
2,-3,-5,0,4,-4,-9,5,29,-1,-6,0
1,-3,-4,0,3,-4,-8,5,28,-1,-5,0
1,-3,-4,0,3,-4,-8,6,28,-1,-5,0
1,-4,-5,0,3,-4,-8,6,27,-1,-4,0
2,-4,-5,0,4,-4,-8,7,27,-1,-4,0
2,-3,-5,0,4,-4,-8,7,27,0,-3,0
2,-3,-5,0,4,-4,-7,7,27,0,-3,0
1,-3,-5,1,4,-4,-7,8,27,0,-2,0
1,-3,-5,1,4,-4,-7,8,27,0,-2,0
2,-3,-5,0,4,-4,-7,8,27,0,-2,0
2,-3,-5,0,4,-4,-7,8,27,1,-2,0
3,-3,-5,0,4,-4,-7,8,27,1,-2,0
3,-2,-4,-1,4,-3,-7,8,27,1,-2,0
3,-2,-4,-1,4,-3,-7,8,27,1,-2,0
3,-2,-4,-1,4,-3,-7,8,28,1,-2,1
3,-2,-5,-1,4,-4,-8,8,28,2,-1,1
3,-2,-5,-1,4,-4,-9,8,28,2,-1,1
3,-2,-6,-1,4,-4,-9,8,28,3,-1,2
3,-3,-6,0,5,-4,-10,9,28,3,-1,2
3,-3,-6,0,5,-4,-10,9,28,4,-1,2
3,-3,-6,0,5,-4,-10,9,28,4,-1,2
3,-2,-5,-1,5,-4,-11,10,29,5,-1,2
3,-2,-5,-1,5,-4,-11,10,29,5,0,2
4,-1,-6,-2,5,-4,-11,11,30,6,0,3
4,-1,-6,-2,5,-3,-11,11,30,6,0,3
5,0,-6,-3,6,-3,-11,11,31,7,1,4
6,0,-6,-3,7,-3,-11,11,31,8,1,5
7,0,-6,-3,7,-3,-11,11,31,9,2,6
7,0,-6,-4,8,-3,-11,12,32,9,3,6
8,1,-6,-4,8,-3,-11,12,32,9,4,7
8,2,-6,-5,8,-3,-11,12,33,10,4,7
9,2,-6,-5,8,-3,-11,12,33,10,5,8
9,2,-7,-5,8,-3,-11,12,34,11,5,8
9,2,-7,-5,8,-2,-11,12,35,11,6,8
9,2,-7,-5,8,-2,-11,12,35,12,7,8
10,2,-7,-6,9,-2,-11,13,36,13,8,8
10,3,-7,-7,9,-2,-11,13,36,15,9,9
11,4,-7,-7,10,-2,-12,13,37,16,10,9
12,5,-7,-8,10,-1,-12,13,37,17,11,10
12,5,-7,-9,10,-1,-12,13,38,18,12,10
13,6,-7,-10,10,0,-12,13,38,20,13,11
14,7,-7,-10,11,0,-13,13,39,21,14,12
14,7,-7,-11,11,0,-14,13,39,22,15,13
15,8,-7,-11,11,0,-15,14,39,24,16,14
15,9,-6,-12,11,1,-16,14,39,25,16,14
16,9,-6,-12,11,1,-17,14,39,26,17,15
16,10,-6,-13,11,2,-18,14,39,26,18,16
17,10,-6,-13,11,2,-18,14,39,27,19,16
17,11,-6,-14,11,3,-18,14,40,27,20,17
17,11,-6,-14,11,3,-18,14,40,27,20,18
17,12,-6,-15,11,3,-18,14,40,27,21,18
17,12,-5,-15,11,3,-18,14,40,27,21,19
17,12,-5,-15,11,4,-18,14,40,27,22,19
17,13,-4,-15,11,4,-19,14,39,28,22,19
17,13,-4,-15,11,4,-19,14,39,28,23,20
17,12,-4,-15,11,4,-18,14,39,28,23,20
17,12,-4,-15,11,4,-18,14,39,28,24,21
17,13,-4,-15,10,4,-18,13,38,28,24,21
16,13,-3,-15,9,5,-18,13,38,28,24,21
16,13,-3,-14,9,5,-18,13,37,28,24,21
15,12,-3,-14,9,4,-18,13,37,27,24,21
14,11,-3,-13,8,4,-18,13,36,27,24,21
14,10,-3,-12,8,4,-18,13,36,26,24,20
13,10,-3,-12,8,4,-17,13,35,25,23,20
12,10,-2,-11,7,4,-17,13,34,24,23,19
11,9,-2,-10,6,4,-16,13,33,23,22,19
10,8,-2,-9,6,3,-15,13,32,22,22,18
9,7,-3,-8,6,2,-14,13,31,22,21,18
8,5,-3,-7,6,2,-14,13,31,21,21,18
7,4,-3,-7,5,1,-13,13,30,20,20,18
7,4,-3,-6,5,1,-13,12,29,19,19,17
6,3,-3,-5,5,0,-13,12,28,17,18,16
6,2,-3,-5,5,0,-12,12,27,16,17,15
5,2,-4,-4,5,0,-11,12,26,15,17,14
4,0,-4,-3,4,-1,-10,12,25,14,16,13
3,0,-5,-2,4,-2,-9,12,24,12,16,12
3,-1,-5,-2,4,-3,-8,12,23,11,15,11
2,-2,-5,-1,4,-3,-7,12,22,10,14,10
1,-3,-5,0,4,-4,-7,12,21,9,13,9
1,-4,-6,1,4,-4,-7,12,20,8,12,9
1,-5,-6,1,4,-5,-6,12,20,7,11,8
1,-6,-7,2,4,-6,-6,12,19,6,10,8
0,-7,-7,3,3,-7,-6,12,18,5,9,7
0,-7,-7,3,3,-7,-5,12,18,4,9,7
0,-8,-7,4,3,-8,-5,12,17,3,8,6
-1,-8,-8,4,3,-8,-4,12,17,3,8,6
-1,-9,-8,5,3,-9,-4,12,16,2,7,5
-2,-9,-8,5,3,-9,-4,12,16,1,7,5
-2,-10,-8,6,3,-9,-4,12,16,1,6,4
-2,-11,-9,6,3,-10,-4,12,16,1,6,4
-2,-12,-10,7,3,-11,-4,12,16,1,6,4
-2,-12,-10,7,3,-11,-4,13,16,1,6,4
-2,-12,-10,7,4,-11,-3,13,16,1,6,3
-2,-13,-10,7,4,-11,-3,14,16,1,5,3
-2,-13,-11,8,4,-11,-4,14,16,2,5,3
-2,-13,-11,8,4,-12,-4,15,16,2,5,3
-2,-13,-11,8,4,-12,-4,15,16,2,5,3
-2,-13,-11,8,4,-12,-4,16,16,2,5,3
-3,-13,-11,8,4,-12,-5,16,16,1,5,3
-3,-14,-11,8,4,-12,-6,16,17,1,5,3
-3,-14,-11,8,4,-12,-7,16,17,1,5,3
-3,-14,-11,8,4,-12,-7,16,17,0,5,3
-3,-14,-11,8,4,-12,-7,16,17,0,5,3
-3,-14,-11,8,4,-12,-7,16,17,0,5,3
-3,-14,-11,8,4,-12,-7,16,17,0,5,3
-3,-14,-11,8,4,-13,-7,16,17,0,5,3
-3,-15,-11,8,4,-13,-6,16,17,0,5,3
-3,-15,-12,8,4,-13,-5,16,17,0,5,3
-3,-15,-11,8,4,-13,-5,16,17,-1,5,3
-3,-14,-11,8,4,-12,-5,16,17,-1,5,3
-3,-14,-10,8,3,-12,-4,15,17,-1,5,3
-3,-14,-10,8,3,-12,-4,15,17,-1,5,3
-3,-14,-11,9,3,-12,-4,15,17,-1,5,3
-3,-15,-11,9,3,-13,-4,15,17,-1,5,4
-3,-15,-11,9,3,-13,-3,14,17,-1,5,4
-3,-15,-11,9,3,-13,-3,14,16,-1,5,4
-3,-15,-11,9,3,-13,-3,14,16,-1,6,4
-3,-15,-11,9,3,-13,-3,14,16,-1,6,4
-3,-15,-11,9,4,-13,-4,14,15,-1,6,4
-3,-15,-11,9,4,-13,-4,14,15,-1,6,3
-3,-15,-11,9,4,-13,-4,14,14,0,6,3
-3,-15,-11,9,4,-13,-5,14,14,0,6,3
-3,-14,-11,8,4,-13,-5,14,14,0,6,3
-3,-14,-11,8,4,-13,-5,15,14,0,6,3
-3,-15,-11,8,4,-13,-4,15,14,0,6,3
-3,-15,-11,8,3,-13,-4,15,15,0,6,3
-3,-15,-11,8,3,-13,-4,15,15,0,6,3
-3,-15,-11,8,3,-13,-4,15,17,0,6,3
-3,-15,-11,9,3,-13,-4,15,18,0,6,2
-3,-15,-12,9,4,-13,-3,15,18,0,6,2
-3,-15,-12,8,4,-13,-3,15,19,0,5,2
-3,-16,-12,8,4,-13,-2,15,19,0,5,2
-3,-16,-12,9,4,-14,-1,15,20,0,5,2
-3,-16,-12,9,4,-14,0,15,20,0,5,2
-3,-16,-12,9,4,-14,0,15,20,0,5,2
-3,-16,-12,9,4,-14,0,15,21,0,5,2
-4,-16,-12,9,4,-14,1,15,21,0,5,2
-4,-16,-12,9,4,-14,2,15,21,1,5,2
-4,-16,-12,9,4,-14,2,15,21,1,5,2
-4,-16,-12,9,4,-14,3,15,21,1,4,2
-4,-16,-13,9,4,-14,3,15,21,1,4,3
-3,-16,-13,9,4,-14,4,15,21,1,4,3
-3,-16,-13,9,4,-14,4,15,21,1,4,3
-3,-16,-13,9,4,-14,5,15,21,1,4,3
-3,-16,-13,9,4,-14,5,15,21,1,4,3
-3,-16,-13,9,4,-14,5,14,21,1,4,3
-3,-17,-13,9,4,-14,5,14,21,1,4,2
-3,-17,-13,9,4,-14,5,14,21,1,4,2
-3,-17,-13,9,4,-14,5,14,21,1,5,2
-3,-17,-13,9,4,-14,5,14,21,1,5,2
-3,-16,-13,8,4,-14,5,14,21,1,5,1
-3,-16,-12,8,4,-14,5,14,22,0,5,1
-3,-16,-13,8,4,-14,5,14,22,0,5,1
-3,-16,-13,8,5,-15,5,14,22,0,5,1
-3,-16,-14,8,5,-15,5,13,22,0,5,1
-3,-16,-14,8,5,-15,4,11,22,0,5,1
-3,-16,-13,8,5,-15,4,9,22,0,5,1
-3,-16,-13,8,5,-15,4,8,22,0,5,1
-3,-16,-13,8,5,-15,4,6,22,0,5,1
-3,-16,-13,8,5,-15,4,5,22,0,5,1
-2,-16,-13,8,5,-15,4,4,22,0,5,2
-2,-15,-13,8,5,-14,5,3,22,0,5,2
-2,-15,-12,7,4,-14,5,2,22,0,5,2
-2,-15,-12,7,4,-14,5,1,22,0,5,2
-2,-15,-13,7,4,-14,5,1,22,1,5,3
-1,-15,-13,7,4,-14,6,0,22,1,5,3
-1,-15,-13,7,4,-14,6,0,22,2,5,4
-1,-15,-13,8,4,-14,6,0,22,2,5,4
-1,-15,-13,8,4,-14,6,1,22,3,5,4
-1,-15,-13,8,4,-14,6,1,22,3,5,4
-1,-15,-13,7,5,-14,6,1,22,3,5,4
-1,-15,-13,7,5,-14,7,1,22,3,5,4
-1,-15,-13,7,5,-14,7,1,22,2,5,4
-1,-15,-13,7,5,-13,7,1,22,2,5,3
-1,-14,-12,7,5,-13,7,1,22,1,5,3
-2,-14,-12,7,5,-13,7,1,22,1,5,3
-2,-14,-12,7,4,-13,7,1,22,1,5,2
-2,-14,-12,7,4,-13,7,1,22,1,5,2
-1,-14,-12,6,4,-13,7,1,22,1,5,2
-1,-14,-12,6,4,-13,7,1,22,1,5,2
-1,-13,-12,6,4,-12,7,1,23,0,5,2
-1,-13,-11,6,4,-12,7,1,23,0,5,2
-1,-12,-11,6,4,-12,7,1,23,0,5,2
-1,-12,-11,6,4,-12,7,2,23,0,5,2
-1,-12,-11,6,4,-12,6,2,23,0,5,2
-1,-12,-11,6,4,-12,6,2,23,0,5,2
-1,-12,-11,6,4,-12,5,1,23,0,5,2
-1,-12,-11,6,4,-12,5,1,23,0,5,2
-1,-12,-11,6,4,-12,5,1,23,0,5,2
0,-12,-11,6,4,-12,5,1,23,0,5,2
0,-12,-11,6,4,-11,5,1,23,0,5,2
0,-11,-11,5,4,-11,5,1,23,0,5,2
0,-11,-10,5,3,-10,5,0,23,0,5,2
0,-11,-10,5,3,-10,4,0,23,0,5,3
0,-11,-10,4,4,-10,4,0,23,0,5,3
0,-11,-10,4,4,-10,4,-1,23,0,5,3
0,-11,-10,5,4,-10,4,-1,23,0,5,3
0,-11,-10,5,4,-11,4,-1,23,0,5,4
0,-11,-10,5,4,-11,3,-1,23,0,5,4
0,-11,-10,5,4,-11,3,-1,23,0,5,3
0,-11,-10,5,4,-11,3,-1,22,0,5,3
0,-11,-10,5,4,-11,3,-1,22,0,5,2
-1,-12,-10,6,4,-11,3,-1,22,0,5,2
-1,-12,-10,6,4,-11,3,-1,22,0,5,2
-1,-12,-10,6,4,-11,3,-1,22,0,5,2
-1,-12,-10,6,4,-11,3,-1,21,0,5,2
-1,-12,-10,6,3,-11,3,-1,21,0,5,2
-1,-12,-10,6,3,-10,3,-1,21,0,5,2
0,-11,-10,5,3,-10,4,-1,21,0,5,2
0,-11,-10,5,3,-10,4,-1,21,-1,6,2
0,-11,-10,5,3,-10,4,-1,21,-1,6,2
0,-11,-11,5,3,-10,4,-1,20,-1,6,1
0,-11,-11,6,3,-11,4,-1,20,-1,6,1
-1,-11,-10,6,3,-11,4,-1,20,-2,6,1
-1,-11,-10,6,3,-11,4,-1,20,-2,6,0
-1,-11,-10,6,3,-11,4,-1,20,-3,6,0
-1,-12,-10,6,3,-11,4,-1,20,-3,6,0
-1,-12,-10,6,4,-11,4,-1,19,-3,6,0
-1,-12,-10,6,4,-11,5,-1,19,-3,6,0
-1,-12,-10,6,4,-11,5,-1,19,-3,6,1
-1,-12,-10,6,4,-10,5,-1,19,-3,6,1
-1,-11,-10,6,4,-10,6,-1,19,-4,6,1
-1,-11,-10,6,4,-10,7,-1,19,-4,6,1
-1,-11,-10,6,4,-10,8,0,19,-3,6,1
-1,-12,-10,6,3,-10,9,0,19,-3,6,0
-1,-12,-10,6,3,-10,9,0,19,-2,6,0
-1,-12,-10,5,4,-10,9,0,19,-2,6,0
-1,-12,-11,5,4,-10,9,0,19,-1,6,0
-1,-12,-11,6,4,-10,9,0,19,-1,6,0
-1,-12,-10,6,4,-10,10,0,19,-1,6,0
-1,-12,-10,6,4,-10,10,0,19,-1,6,-1
-1,-11,-10,5,4,-10,11,0,19,-1,6,-1
-1,-11,-10,5,4,-10,11,0,19,-1,6,0
-1,-12,-10,5,4,-10,12,1,19,-1,6,0
-1,-12,-10,5,4,-10,12,1,18,-1,6,-1
-1,-12,-10,5,4,-10,12,1,18,-1,6,-1
-1,-12,-10,5,4,-10,12,1,18,-2,6,-1
0,-12,-11,5,4,-10,12,1,18,-2,6,-1
0,-12,-11,5,4,-10,12,1,17,-2,6,-1
0,-12,-10,5,4,-10,12,1,17,-2,5,0
0,-12,-10,5,4,-10,11,1,17,-2,5,0
0,-11,-10,5,3,-10,11,1,17,-2,5,0
0,-11,-10,5,3,-10,11,1,16,-2,5,-1
0,-11,-10,5,3,-10,11,1,16,-2,5,-1
0,-11,-11,5,4,-11,11,1,16,-2,5,-1
0,-11,-10,5,4,-10,11,1,17,-2,5,-1
0,-11,-10,5,4,-10,11,2,17,-2,5,-1
0,-11,-9,5,3,-10,11,2,17,-2,5,-1
0,-11,-9,5,3,-10,11,2,17,-2,5,-2
0,-10,-9,5,3,-10,11,2,17,-2,5,-2
0,-10,-9,4,3,-9,11,2,17,-2,5,-2
0,-10,-9,4,3,-9,11,3,17,-2,5,-1
0,-10,-9,4,3,-9,11,3,17,-2,5,-1
0,-10,-9,5,3,-9,11,4,17,-2,4,-1
0,-10,-9,5,3,-9,11,4,17,-2,4,-1
0,-9,-8,4,3,-9,11,4,17,-2,4,-1
0,-9,-8,4,3,-9,11,4,17,-2,4,-1
0,-9,-8,4,3,-9,11,4,17,-2,4,-1
0,-9,-8,4,3,-8,10,4,17,-2,4,-1
0,-8,-7,3,2,-8,10,5,16,-2,4,-1
0,-8,-7,3,2,-7,10,5,16,-3,4,-1
0,-7,-6,3,2,-7,10,6,16,-3,4,0
0,-7,-6,2,2,-6,10,7,16,-3,4,0
0,-6,-6,2,2,-6,10,8,16,-3,5,0
0,-6,-5,2,2,-5,11,9,16,-3,5,0
0,-5,-5,1,2,-5,11,9,16,-3,5,0
1,-5,-5,1,2,-4,12,10,17,-3,5,0
1,-4,-5,1,2,-4,12,10,17,-2,5,1
1,-4,-5,1,2,-4,12,11,17,-2,5,1
1,-4,-5,1,2,-4,12,11,17,-2,5,1
1,-4,-5,1,2,-4,12,12,17,-2,5,1
2,-4,-5,0,2,-4,12,12,18,-2,5,1
2,-4,-5,0,2,-4,12,13,18,-2,5,2
2,-4,-6,0,2,-4,12,14,19,-2,5,2
3,-4,-6,0,2,-4,11,15,19,-2,5,2
3,-3,-6,0,2,-4,10,15,19,-1,5,2
3,-3,-6,0,3,-4,9,16,19,-1,6,3
3,-3,-7,0,3,-5,9,16,20,0,6,3
3,-3,-7,0,4,-5,9,17,21,1,6,3
3,-3,-7,0,4,-5,9,18,22,3,6,4
3,-3,-6,0,4,-4,9,19,23,3,7,4
3,-3,-6,0,4,-4,9,18,23,4,7,4
4,-3,-6,-1,4,-4,9,17,23,3,7,4
4,-2,-7,-1,4,-4,9,16,22,3,7,4
5,-2,-7,-2,4,-4,8,14,22,2,7,4
5,-1,-7,-2,4,-3,8,12,21,2,7,3
5,-1,-7,-2,4,-3,7,11,21,1,6,3
5,-1,-7,-2,5,-3,7,10,20,1,6,3
5,-2,-7,-2,5,-3,7,9,19,0,6,3
5,-2,-7,-2,5,-4,7,9,18,0,6,3
5,-2,-7,-2,4,-4,6,8,18,0,6,4
5,-2,-7,-2,4,-4,6,8,18,0,6,4
5,-2,-7,-1,4,-4,6,8,18,-1,6,4
5,-2,-7,-1,4,-4,5,7,17,-1,5,4
5,-2,-7,-1,4,-4,5,6,17,-2,5,3
4,-2,-6,-1,4,-4,4,5,16,-2,4,3
4,-2,-7,-1,5,-4,4,5,16,-3,4,2
4,-3,-8,-1,5,-5,3,5,16,-3,4,2
4,-4,-8,0,5,-6,3,5,16,-3,4,1
4,-4,-9,0,5,-6,3,5,16,-3,4,1
5,-4,-9,-1,6,-6,3,5,16,-3,4,1
5,-4,-10,-1,6,-7,3,5,16,-3,4,0
5,-5,-10,0,6,-7,4,5,16,-3,4,0
4,-5,-9,0,6,-7,5,5,16,-3,4,0
3,-6,-9,0,5,-7,5,5,16,-3,4,0
2,-6,-9,1,5,-8,6,6,16,-3,4,0
2,-7,-9,1,5,-8,6,6,17,-3,3,0
2,-7,-9,2,5,-8,7,7,17,-3,3,0
1,-8,-9,2,4,-8,7,7,17,-3,3,-1
1,-8,-9,3,4,-8,8,8,17,-3,3,-1
1,-9,-9,3,4,-9,8,8,17,-3,3,-1
1,-9,-9,4,4,-9,9,8,17,-4,3,-1
1,-8,-9,4,4,-9,10,8,17,-4,2,-1
1,-8,-9,3,4,-9,11,8,17,-5,2,-1
1,-8,-9,3,4,-9,11,8,17,-5,1,-1
1,-9,-10,3,4,-10,12,8,17,-5,1,-1
1,-10,-10,4,5,-10,12,7,17,-6,1,0
1,-10,-10,4,5,-10,13,4,17,-6,1,0
1,-10,-10,4,5,-10,13,2,17,-6,1,0
1,-10,-10,4,5,-9,14,1,17,-6,1,0
1,-9,-10,4,5,-9,15,0,17,-6,1,0
1,-9,-10,4,5,-9,15,-1,18,-6,1,0
1,-9,-10,4,5,-9,16,-2,18,-6,2,0
1,-9,-10,4,5,-9,16,-2,18,-6,2,-1
1,-9,-9,3,5,-9,17,-3,18,-6,2,-2
1,-8,-9,3,5,-9,18,-3,18,-6,2,-2
1,-8,-9,3,5,-9,18,-3,18,-6,2,-2
1,-9,-9,3,5,-9,18,-3,18,-6,2,-2
1,-9,-10,3,5,-9,18,-3,18,-5,1,-2
1,-9,-10,3,5,-9,19,-3,18,-5,1,-2
1,-9,-10,3,5,-9,19,-3,18,-4,1,-2
1,-9,-9,3,5,-9,19,-3,18,-4,1,-2
1,-9,-9,3,5,-9,19,-3,17,-4,1,-2
1,-8,-9,3,5,-9,19,-3,17,-4,1,-2
1,-8,-9,3,5,-9,19,-3,16,-5,1,-3
1,-9,-9,4,4,-9,19,-3,16,-5,1,-3
1,-9,-9,4,4,-9,19,-2,16,-6,1,-3
1,-9,-9,4,4,-9,19,-2,16,-6,1,-3
1,-9,-9,4,4,-9,19,-1,15,-6,1,-3
1,-9,-9,3,4,-9,19,-1,15,-6,1,-3
1,-8,-9,3,4,-9,18,-1,15,-6,1,-3
1,-8,-9,3,4,-9,17,-1,15,-6,1,-2
1,-8,-9,3,4,-9,17,-1,14,-6,1,-2
1,-8,-9,3,4,-9,16,-1,14,-6,1,-2
1,-8,-9,3,4,-9,16,0,14,-6,1,-2
1,-8,-9,3,5,-8,15,0,14,-6,1,-1
1,-8,-9,3,5,-8,15,0,14,-6,0,-1
1,-8,-9,3,5,-8,14,0,14,-6,0,-1
1,-8,-9,3,5,-8,14,0,14,-6,0,-1
1,-8,-9,3,5,-8,13,1,14,-6,0,-1
1,-8,-9,3,5,-8,13,1,14,-6,0,-1
1,-8,-9,3,5,-8,12,1,14,-6,0,-1
1,-8,-9,3,5,-8,12,1,14,-6,-1,-1
1,-8,-8,3,5,-7,12,1,14,-6,-1,-1
1,-7,-8,3,5,-7,11,1,14,-6,-1,-1
1,-8,-9,3,5,-8,11,2,14,-6,-1,-1
0,-9,-9,4,5,-8,10,2,14,-6,-1,-1
0,-9,-9,4,4,-9,9,2,14,-6,-2,-1
0,-9,-8,3,4,-9,8,2,14,-6,-2,-1
0,-8,-8,3,4,-8,7,2,14,-6,-3,-1
1,-8,-9,2,5,-8,7,3,15,-7,-3,-2
3,-8,-11,2,7,-9,6,4,15,-7,-4,-3
4,-9,-13,2,8,-11,5,6,16,-7,-5,-4
6,-9,-15,2,10,-12,5,8,18,-6,-6,-6
7,-10,-17,1,12,-13,4,11,22,-4,-6,-7
9,-10,-19,0,14,-14,4,17,27,-1,-7,-8
11,-10,-21,-1,16,-14,4,24,33,2,-6,-9
14,-9,-23,-3,19,-15,3,30,40,7,-5,-9
18,-8,-26,-5,22,-16,2,31,45,12,-4,-9
23,-6,-27,-9,25,-16,0,27,47,18,0,-7
27,-1,-27,-13,27,-13,-1,18,48,25,5,-2
30,5,-25,-18,28,-9,-4,4,47,34,12,3
33,11,-22,-22,28,-5,-7,-12,46,44,20,10
36,17,-18,-27,27,0,-10,-27,44,55,29,16
37,24,-13,-31,26,5,-14,-43,38,63,38,23
38,30,-8,-35,23,11,-18,-61,28,69,47,31
39,37,-1,-39,20,18,-22,-83,12,71,56,39
38,44,6,-42,16,26,-26,-105,-7,68,64,47
35,49,14,-43,10,32,-30,-125,-29,60,69,53
29,52,23,-41,2,38,-33,-139,-50,45,70,56
20,51,32,-35,-7,42,-34,-147,-68,27,66,56
7,48,42,-28,-18,45,-32,-150,-81,8,58,53
-6,43,50,-19,-28,46,-28,-151,-91,-11,47,48
-18,37,56,-10,-37,47,-23,-149,-98,-30,36,42
-28,32,61,-3,-44,47,-18,-148,-102,-45,26,36
-34,27,62,3,-48,45,-15,-145,-105,-58,17,30
-36,21,59,7,-48,41,-12,-143,-106,-68,9,23
-37,16,55,10,-47,36,-11,-139,-106,-75,3,17
-36,11,49,12,-44,30,-11,-133,-103,-78,-2,11
-35,6,42,13,-39,24,-12,-126,-98,-77,-6,5
-32,2,35,14,-34,19,-12,-117,-91,-74,-9,1
-29,0,29,14,-29,14,-13,-107,-83,-70,-10,-1
-26,-3,23,14,-25,10,-13,-97,-75,-64,-11,-3
-23,-5,19,14,-21,8,-12,-85,-66,-58,-12,-6
-20,-6,15,13,-18,6,-12,-74,-58,-52,-12,-7
-17,-5,13,11,-15,4,-11,-62,-50,-46,-12,-8
-14,-5,11,9,-13,3,-9,-51,-42,-40,-11,-8
-12,-4,9,8,-11,2,-7,-41,-34,-35,-10,-8
-10,-4,7,7,-9,1,-5,-32,-27,-31,-10,-8
-9,-4,5,6,-7,1,-3,-25,-21,-27,-9,-8
-7,-4,3,5,-5,0,-2,-19,-15,-24,-9,-8
-5,-4,1,5,-3,-1,-1,-14,-9,-20,-9,-8
-3,-5,0,4,-2,-2,0,-8,-4,-16,-9,-8
-2,-5,-2,4,0,-3,1,-4,0,-13,-9,-8
-1,-5,-3,3,1,-3,2,-1,3,-10,-8,-8
0,-5,-3,2,1,-4,3,1,6,-8,-8,-8
0,-5,-4,2,2,-4,4,3,8,-7,-8,-8
0,-5,-4,1,2,-4,4,4,9,-6,-8,-8
1,-5,-5,1,3,-5,5,4,11,-6,-8,-8
1,-4,-5,1,3,-5,5,5,12,-5,-7,-8
1,-4,-4,1,3,-4,5,5,12,-4,-7,-8
1,-3,-4,1,3,-4,6,6,12,-4,-7,-8
2,-3,-4,1,3,-4,6,7,12,-3,-7,-7
2,-4,-5,1,3,-4,6,8,11,-3,-6,-7
2,-4,-5,1,3,-5,6,9,11,-3,-6,-7
2,-4,-5,1,3,-5,7,9,10,-3,-6,-7
2,-4,-5,1,3,-5,7,9,10,-3,-6,-7
2,-4,-5,1,3,-5,7,9,10,-3,-6,-7
1,-4,-5,1,3,-4,7,10,10,-3,-6,-7
1,-4,-5,1,3,-4,7,10,10,-3,-5,-7
2,-4,-5,1,3,-4,6,11,9,-3,-5,-8
2,-4,-5,0,3,-4,6,11,9,-3,-5,-8
2,-4,-5,0,3,-4,6,11,8,-3,-5,-8
2,-4,-5,0,3,-4,6,11,8,-3,-5,-8
2,-4,-5,0,3,-4,6,11,8,-3,-5,-8
2,-4,-5,0,3,-4,6,11,8,-3,-6,-8
2,-4,-5,0,3,-4,5,11,9,-3,-6,-7
2,-4,-5,0,3,-4,5,11,9,-3,-6,-7
2,-4,-5,0,3,-4,4,11,10,-3,-6,-7
2,-3,-5,0,3,-4,4,12,10,-3,-6,-7
2,-3,-5,0,3,-4,3,12,11,-3,-7,-6
2,-3,-4,0,3,-4,3,12,12,-3,-7,-6
2,-3,-4,0,3,-4,3,12,13,-3,-7,-6
2,-2,-4,0,3,-4,2,12,13,-3,-7,-6
2,-2,-4,0,3,-4,2,12,14,-3,-8,-7
2,-2,-4,0,3,-3,2,12,14,-3,-8,-7
2,-2,-4,0,3,-4,2,12,15,-3,-8,-7
2,-2,-5,0,3,-4,3,12,15,-3,-8,-7
2,-2,-5,0,3,-4,3,12,16,-3,-8,-7
2,-2,-5,0,3,-4,3,12,16,-4,-8,-7
2,-2,-4,0,3,-3,4,12,17,-4,-7,-7
3,-1,-4,0,3,-3,4,12,17,-4,-7,-7
3,-1,-4,0,3,-4,4,12,18,-4,-6,-7
3,-1,-4,0,3,-3,4,12,18,-4,-6,-7
3,-1,-4,-1,3,-3,4,12,18,-4,-5,-7
3,-1,-4,-1,3,-3,3,12,18,-5,-5,-7
3,-1,-4,-1,3,-3,3,12,18,-5,-5,-7
3,-1,-4,-1,3,-3,3,12,17,-5,-4,-7
3,-1,-4,-1,3,-2,3,12,17,-5,-4,-6
3,-1,-3,-1,3,-2,2,12,16,-4,-3,-6
3,-1,-3,-1,3,-2,2,12,16,-4,-3,-6
3,-1,-4,-1,3,-3,2,12,16,-3,-3,-5
3,-1,-4,-1,3,-3,2,12,16,-2,-2,-5
3,-1,-3,-1,3,-3,2,12,15,-1,-2,-5
3,0,-3,-1,3,-2,2,12,15,-1,-1,-5
3,-1,-3,-1,3,-2,2,12,14,-1,-1,-5
3,-1,-3,-1,2,-2,2,12,14,-1,-1,-5
3,-1,-3,-1,2,-2,1,12,13,-1,0,-5
3,0,-3,-1,2,-2,1,12,13,-1,0,-5
3,0,-2,-1,2,-1,1,12,12,-1,0,-5
3,0,-2,-1,2,-1,1,12,12,-1,0,-5
3,0,-2,-1,2,-1,1,13,11,-1,0,-5
3,0,-2,-1,2,-1,1,13,11,0,0,-5
3,0,-2,-2,2,-1,0,14,11,0,1,-4
3,0,-2,-2,2,-1,0,14,11,0,1,-4
3,0,-2,-2,2,-1,0,14,10,0,1,-3
3,0,-2,-2,2,-1,-1,14,10,0,1,-3
4,0,-2,-2,2,-1,-1,15,10,0,1,-3
4,1,-2,-2,2,-1,-2,15,10,0,1,-3
3,1,-2,-2,2,-1,-2,16,10,1,1,-3
3,1,-2,-2,2,-1,-2,16,10,1,1,-3
3,1,-2,-2,2,-1,-3,17,9,2,1,-3
3,1,-2,-2,2,-1,-3,17,9,2,1,-2
4,1,-2,-3,2,-1,-3,18,9,2,1,-2
4,2,-2,-3,2,0,-3,18,9,2,1,-1
4,2,-1,-3,2,0,-3,18,9,3,1,-1
4,2,-1,-3,2,0,-3,19,9,3,1,0
4,2,-2,-3,3,0,-2,19,10,4,1,0
5,2,-2,-3,3,0,-2,20,10,5,1,0
5,2,-2,-4,3,0,-2,20,10,5,1,0
5,3,-2,-4,3,1,-2,20,11,6,2,0
5,3,-2,-4,3,0,-2,21,11,6,2,0
6,3,-2,-4,3,0,-2,21,12,7,3,0
6,3,-2,-4,3,0,-2,21,12,7,4,1
7,3,-2,-5,4,0,-2,21,13,7,4,1
7,4,-2,-6,4,1,-2,21,13,7,5,1
8,4,-2,-6,5,1,-2,22,14,8,5,2
9,5,-2,-7,5,1,-2,22,14,9,6,2
9,5,-2,-7,5,1,-2,23,15,9,6,3
10,5,-2,-7,5,1,-2,23,15,10,7,3
10,6,-2,-8,6,1,-3,24,15,11,8,4
11,7,-2,-9,6,1,-3,24,16,12,9,5
12,8,-2,-9,6,2,-3,25,16,13,10,5
12,8,-2,-10,6,2,-3,25,17,14,11,5
12,9,-2,-10,6,2,-4,26,17,15,12,6
13,10,-2,-11,7,3,-4,26,18,17,13,7
13,11,-2,-12,7,3,-5,27,18,18,14,8
14,11,-1,-12,7,4,-5,27,18,20,15,9
14,12,-1,-13,7,4,-5,28,19,21,16,10
15,12,-1,-13,7,4,-5,28,19,21,17,11
15,13,-1,-13,8,5,-5,28,20,22,18,11
16,13,-1,-14,8,5,-5,28,20,22,18,11
16,14,-1,-15,8,5,-5,28,20,22,19,11
16,14,-1,-15,8,6,-5,28,20,23,19,12
17,15,0,-16,8,6,-5,28,19,24,20,12
17,15,0,-16,8,6,-5,28,19,25,21,12
18,15,0,-17,9,7,-5,27,19,26,22,13
18,16,0,-17,9,7,-5,27,19,26,23,13
18,17,0,-17,8,8,-5,26,18,26,23,14
18,18,1,-17,8,8,-6,26,18,26,24,14
18,18,1,-17,8,9,-6,26,18,27,24,15
18,19,1,-17,7,9,-6,26,18,27,25,16
18,19,2,-17,7,10,-6,25,18,27,25,16
17,19,3,-17,6,10,-6,25,17,27,25,16
17,19,3,-17,6,10,-7,24,17,27,26,16
16,18,3,-17,6,10,-7,24,16,27,26,16
16,18,3,-17,5,10,-8,24,16,27,26,16
15,18,3,-16,5,10,-8,22,15,26,26,15
15,18,3,-16,5,10,-8,20,15,26,25,15
14,17,4,-15,4,10,-7,18,14,25,25,14
13,16,4,-14,4,10,-7,16,14,24,24,14
12,15,5,-13,3,10,-7,15,13,23,24,13
11,15,5,-13,2,10,-7,14,12,21,23,12
10,14,6,-12,1,10,-6,14,12,20,22,12
9,13,5,-11,1,9,-5,13,11,19,22,11
8,12,5,-10,1,8,-4,13,10,18,21,11
8,11,5,-9,1,7,-3,13,10,17,20,10
7,10,5,-8,0,7,-2,12,9,15,19,9
6,9,5,-7,0,6,-1,12,8,14,18,8
5,8,4,-6,0,5,0,11,7,13,17,7
4,7,4,-5,0,4,1,11,6,12,16,6
3,6,4,-5,0,4,3,11,5,10,15,5
3,5,4,-4,-1,4,4,10,3,9,14,5
2,5,4,-4,-1,3,6,9,2,8,14,4
2,4,3,-3,-1,3,7,8,1,8,13,4
1,3,3,-3,-1,2,7,7,0,8,13,4
1,2,3,-2,-1,2,8,6,0,7,12,4
0,1,3,-1,-1,1,8,5,-1,7,11,3
0,1,3,0,-1,1,8,5,-1,6,11,3
-1,0,2,0,-1,0,8,4,-2,6,10,2
-1,0,2,0,-1,0,7,4,-2,5,10,2
-1,0,2,1,-1,0,7,4,-2,4,9,2
-1,-1,2,1,-1,0,6,4,-2,3,8,1
-1,-1,2,1,-1,0,6,4,-2,2,7,1
-1,-1,2,2,-1,0,6,4,-2,2,7,0
-1,-2,1,2,-1,-1,6,4,-2,1,6,0
-2,-2,1,2,-2,-1,6,4,-3,1,6,-1
-2,-2,1,2,-2,-1,6,4,-3,1,5,-1
-3,-3,1,2,-2,-1,6,4,-3,0,5,-2
-3,-3,2,2,-3,-1,6,4,-3,0,5,-2
-3,-3,2,3,-3,-1,6,4,-3,0,5,-2
-3,-4,1,3,-2,-2,6,4,-3,0,5,-2
-3,-4,1,4,-2,-2,6,4,-3,0,5,-2
-3,-4,1,4,-2,-2,6,4,-4,0,5,-2
-3,-4,1,4,-2,-2,5,4,-4,0,4,-2
-3,-4,1,4,-2,-2,5,4,-4,0,4,-2
-3,-4,1,4,-2,-2,5,4,-4,0,4,-2
-3,-4,1,4,-2,-2,5,4,-4,0,4,-2
-4,-4,1,4,-2,-2,5,4,-4,0,4,-2
-4,-4,1,4,-2,-2,4,4,-5,0,4,-2
-4,-3,2,4,-3,-2,4,4,-5,0,4,-2
-4,-3,2,4,-3,-1,3,4,-5,0,4,-2
-4,-3,2,4,-3,-1,3,4,-5,0,4,-2
-4,-3,2,4,-3,-1,3,4,-5,0,4,-2
-4,-4,2,4,-3,-1,3,3,-6,0,4,-2
-4,-4,2,4,-3,-1,3,3,-6,0,5,-2
-4,-4,2,4,-4,-1,3,3,-6,0,5,-2
-4,-4,2,4,-4,-1,3,3,-7,-1,5,-2
-4,-4,2,5,-4,-1,3,3,-7,-1,5,-2
-4,-4,2,5,-4,-2,3,3,-7,-1,5,-2
-4,-4,1,5,-4,-2,3,2,-7,-1,5,-2
-4,-4,2,5,-4,-2,4,2,-7,-1,5,-3
-4,-4,2,5,-4,-2,4,1,-8,-1,5,-3
-5,-5,2,5,-4,-2,5,1,-8,-2,5,-3
-5,-5,2,5,-4,-2,5,1,-9,-2,5,-3
-5,-4,2,5,-4,-2,5,1,-9,-2,5,-3
-5,-4,2,5,-4,-2,5,1,-9,-2,5,-3
-5,-4,2,5,-4,-2,5,1,-9,-2,5,-3
-5,-4,2,5,-4,-2,4,1,-10,-2,5,-3
-5,-4,2,5,-4,-2,4,1,-10,-2,5,-3
-5,-4,2,5,-4,-1,3,1,-10,-2,5,-3
-5,-4,2,5,-4,-1,3,1,-10,-3,5,-3
-5,-4,2,5,-4,-1,3,1,-10,-3,5,-3
-5,-4,2,5,-4,-1,3,1,-10,-3,5,-3
-5,-4,2,5,-3,-1,2,1,-10,-3,4,-3
-5,-4,2,5,-3,-1,2,1,-10,-3,4,-3
-5,-4,2,5,-4,-1,1,1,-10,-3,4,-3
-5,-4,2,5,-4,-1,1,1,-10,-3,4,-3
-5,-4,2,5,-4,-1,0,2,-9,-3,4,-3
-5,-4,2,5,-4,-1,0,2,-9,-3,3,-3
-5,-4,2,5,-4,-1,0,2,-9,-4,3,-2
-5,-4,2,5,-4,-1,0,2,-8,-4,2,-2
-5,-4,2,5,-4,-1,0,2,-8,-4,2,-2
-5,-4,2,5,-4,-1,-1,2,-8,-4,2,-2
-5,-4,2,5,-4,-2,-1,2,-7,-4,2,-2
-5,-4,2,5,-4,-2,-1,2,-7,-4,2,-2
-5,-4,2,5,-4,-2,-1,2,-7,-5,2,-2
-5,-5,1,5,-4,-2,-1,2,-7,-5,2,-2
-5,-5,1,5,-4,-2,-1,2,-7,-5,2,-2
-5,-5,1,5,-4,-2,-1,2,-7,-5,2,-2
-5,-5,1,5,-4,-2,-1,2,-7,-4,2,-2
-5,-5,1,5,-4,-2,-1,2,-7,-4,2,-2
-4,-5,1,5,-3,-2,-2,2,-7,-3,2,-2
-4,-4,1,5,-3,-2,-2,2,-7,-3,2,-2
-4,-4,1,4,-3,-1,-2,2,-7,-2,2,-2
-4,-4,1,4,-3,-1,-2,1,-7,-2,2,-2
-4,-4,1,4,-3,-1,-2,1,-7,-2,2,-2
-4,-5,1,4,-3,-2,-2,2,-6,-1,3,-2
-4,-5,1,4,-3,-2,-3,2,-6,-1,3,-2
-4,-4,1,4,-3,-1,-3,2,-6,-2,3,-2
-4,-4,1,5,-3,-1,-3,2,-6,-2,3,-2
-4,-5,1,5,-3,-1,-3,2,-6,-2,3,-2
-4,-5,1,5,-3,-2,-3,2,-6,-2,3,-2
-4,-5,0,5,-3,-2,-3,2,-6,-2,3,-2
-4,-5,1,5,-3,-2,-3,2,-6,-2,3,-2
-5,-5,1,5,-3,-2,-3,2,-6,-2,3,-2
-5,-4,2,5,-3,-1,-3,1,-6,-2,3,-2
-4,-4,1,5,-3,-1,-3,1,-6,-1,3,-2
-4,-4,1,4,-3,-1,-3,1,-6,-1,3,-2
-3,-4,1,4,-3,-1,-3,1,-7,-1,2,-2
-3,-3,1,4,-3,-1,-3,1,-7,-1,2,-2
-3,-3,1,4,-3,-1,-3,1,-7,-1,2,-2
-3,-4,1,5,-3,-1,-3,1,-7,-1,2,-2
-4,-4,1,5,-3,-1,-3,1,-7,-1,2,-2
-4,-3,2,4,-3,-1,-4,1,-7,-1,2,-1
-4,-3,2,4,-3,0,-4,1,-8,-1,2,-1
-4,-3,2,4,-3,0,-4,1,-8,-1,2,-1
-4,-3,2,4,-3,0,-4,1,-9,-1,2,-1
-4,-4,1,4,-3,-1,-3,1,-9,-1,2,-1
-4,-4,1,4,-3,-1,-3,1,-9,-1,1,-1
-4,-4,1,4,-3,-1,-3,1,-9,-2,1,-1
-4,-4,1,4,-3,-1,-3,1,-9,-2,1,-1
-4,-4,2,4,-3,-1,-3,1,-9,-2,1,-1
-4,-4,2,5,-3,-1,-4,2,-9,-2,1,-1
-4,-4,1,5,-3,-1,-4,2,-9,-2,1,-1
-4,-4,1,5,-3,-1,-4,3,-9,-2,1,-1
-4,-4,2,4,-3,-1,-4,3,-8,-2,1,-1
-4,-3,2,4,-3,0,-4,3,-8,-2,1,-1
-4,-3,2,4,-3,0,-4,3,-8,-2,1,-1
-4,-3,2,4,-3,0,-4,4,-8,-2,1,-1
-4,-3,2,4,-3,0,-4,4,-7,-2,1,-1
-4,-3,2,4,-3,0,-5,5,-7,-2,1,-1
-4,-2,3,4,-3,0,-5,5,-8,-2,0,-1
-4,-2,3,4,-3,0,-5,5,-8,-2,0,-1
-4,-2,3,4,-3,0,-4,5,-8,-2,0,-1
-4,-2,3,4,-4,0,-4,5,-8,-2,0,-1
-4,-2,3,4,-4,1,-3,5,-9,-2,0,-1
-4,-1,3,3,-4,1,-3,6,-9,-3,0,-1
-4,-1,3,3,-4,1,-2,6,-9,-3,0,-1
-4,-1,3,3,-4,1,-1,7,-9,-4,0,-1
-4,-1,3,3,-4,1,0,8,-9,-4,0,-1
-4,-1,3,3,-4,1,0,8,-10,-4,0,-1
-4,-1,4,4,-4,1,0,9,-10,-4,0,-1
-4,-2,4,4,-4,1,0,9,-11,-4,0,-1
-4,-2,4,4,-4,1,0,9,-11,-4,0,-1
-4,-2,4,4,-4,1,0,9,-11,-4,0,-1
-4,-2,3,4,-4,1,0,10,-11,-4,1,-1
-4,-1,3,3,-4,1,0,10,-11,-5,1,-1
-4,-1,4,3,-4,1,0,10,-12,-5,1,-1
-4,-1,4,3,-4,1,0,10,-12,-4,1,-1
-3,-1,3,3,-4,1,-1,10,-12,-4,1,-1
-3,-1,3,3,-4,1,-1,10,-12,-3,1,-1
-3,-1,3,3,-4,1,-1,10,-12,-3,1,0
-3,-1,4,3,-4,1,-1,10,-12,-3,1,0
-3,-1,4,3,-4,1,-2,10,-12,-3,1,0
-3,-1,4,3,-4,1,-3,11,-12,-3,1,0
-3,-2,3,3,-4,1,-3,11,-12,-3,1,0
-3,-2,3,3,-3,1,-3,11,-13,-3,1,0
-3,-2,3,3,-3,1,-3,11,-13,-3,1,0
-3,-2,3,3,-3,1,-4,11,-13,-3,0,-1
-3,-2,3,3,-3,1,-4,11,-13,-3,0,-1
-3,-2,3,3,-3,1,-4,11,-13,-3,0,-2
-3,-2,3,3,-3,1,-4,11,-13,-3,0,-2
-3,-2,3,3,-3,1,-4,11,-13,-3,0,-2
-4,-2,3,3,-4,1,-4,11,-14,-4,0,-2
-4,-2,3,4,-4,1,-4,11,-14,-4,0,-2
-4,-2,3,4,-4,0,-4,11,-14,-4,1,-2
-4,-2,3,4,-4,0,-4,11,-14,-4,1,-2
-4,-2,3,4,-4,0,-4,11,-14,-4,1,-2
-4,-2,3,4,-4,0,-4,11,-14,-4,1,-2
-4,-2,3,4,-4,0,-4,11,-14,-4,1,-1
-4,-2,3,4,-4,0,-4,11,-14,-4,1,-1
-4,-2,3,4,-4,0,-3,11,-14,-4,1,-1
-4,-1,3,4,-4,1,-3,11,-14,-4,1,-1
-4,-2,3,4,-4,1,-3,11,-14,-4,1,-1
-4,-2,3,4,-4,0,-3,11,-13,-4,1,-1
-4,-2,3,4,-4,0,-2,11,-13,-4,1,-1
-4,-2,3,4,-4,0,-2,11,-13,-4,1,-1
-4,-2,3,4,-4,0,-2,10,-13,-4,1,-1
-4,-2,3,4,-4,0,-2,10,-13,-4,1,-1
-4,-2,3,4,-4,0,-2,10,-13,-4,1,-1
-4,-2,3,4,-4,0,-2,10,-13,-4,1,-1
-4,-1,4,4,-5,1,-2,9,-13,-4,1,-1
-4,-1,4,4,-5,1,-2,9,-12,-4,0,-1
-5,-2,3,4,-5,0,-1,9,-12,-4,0,-1
-5,-3,3,5,-4,0,-1,9,-11,-4,1,-1
-5,-3,3,4,-4,0,0,9,-11,-4,1,-1
-4,-2,3,4,-4,0,0,8,-10,-4,1,-2
-4,-2,3,4,-4,0,0,8,-10,-4,1,-2
-4,-2,3,4,-4,0,0,8,-10,-4,1,-3
-4,-2,3,4,-4,0,0,8,-10,-5,1,-3
-5,-2,3,4,-4,0,0,8,-9,-5,0,-3
-5,-2,3,4,-4,0,0,8,-9,-6,0,-3
-5,-2,3,4,-4,0,0,8,-9,-6,0,-3
-5,-2,3,4,-4,0,0,7,-9,-6,0,-4
-5,-2,3,4,-4,0,-1,7,-9,-6,0,-4
-5,-2,3,3,-4,0,-1,7,-9,-6,0,-4
-5,-2,3,3,-4,0,-2,7,-9,-6,0,-4
-5,-2,3,3,-4,0,-2,6,-8,-7,0,-4
-5,-1,3,3,-4,1,-2,5,-8,-7,0,-4
-5,-1,3,3,-4,1,-2,3,-8,-7,0,-4
-5,-2,3,4,-4,1,-2,1,-7,-7,0,-4
-5,-2,3,4,-4,1,-2,0,-7,-7,0,-4
-5,-2,4,4,-4,1,-2,-2,-7,-7,0,-4
-5,-2,4,4,-4,1,-2,-3,-7,-7,0,-4
-5,-2,4,4,-4,1,-2,-4,-7,-7,0,-4
-5,-2,4,4,-5,1,-1,-5,-7,-7,0,-3
-5,-2,4,4,-5,1,-1,-6,-7,-7,0,-3
-5,-1,4,4,-5,2,-1,-6,-7,-6,0,-3
-5,-1,4,3,-5,2,-1,-6,-7,-5,0,-3
-4,0,5,3,-5,2,-1,-6,-6,-5,0,-3
-4,0,5,2,-5,3,-1,-6,-6,-4,0,-3
-4,1,6,2,-5,3,-1,-6,-6,-4,0,-3
-4,1,6,1,-5,4,-1,-6,-6,-4,0,-4
-4,2,6,1,-5,4,-1,-6,-6,-4,0,-5
-4,2,6,1,-5,4,-1,-5,-6,-4,0,-5
-4,2,6,1,-5,4,-1,-5,-5,-4,0,-5
-4,2,6,1,-5,4,-1,-4,-5,-4,0,-5
-4,2,6,1,-5,4,-2,-3,-4,-4,0,-6
-4,2,6,1,-5,4,-2,-2,-4,-4,0,-6
-3,2,6,1,-5,4,-3,-2,-4,-4,0,-6
-3,2,6,1,-5,4,-4,-2,-4,-4,0,-6
-3,2,6,1,-5,4,-4,-1,-4,-4,0,-6
-3,2,6,0,-5,4,-4,0,-3,-3,0,-6
-3,2,6,0,-5,4,-5,0,-3,-3,0,-6
-3,2,6,0,-5,4,-5,1,-2,-2,0,-6
-2,2,5,0,-4,3,-5,2,-2,-2,0,-6
-2,2,5,0,-4,3,-5,2,-1,-2,0,-6
-2,3,5,0,-4,3,-5,3,-1,-1,0,-6
-2,3,5,0,-4,3,-6,3,-1,-1,0,-6
-2,3,5,0,-4,3,-6,3,-1,-1,1,-5
-2,3,6,0,-5,4,-7,3,-1,-1,1,-5
-1,3,6,-1,-5,4,-8,2,-1,-1,1,-4
-1,4,6,-1,-4,4,-9,1,-1,-1,1,-4
-1,4,6,-1,-4,4,-9,0,-1,-1,1,-4
-1,4,6,-1,-4,4,-9,-1,-2,-1,0,-4
-1,4,6,-1,-4,4,-10,-2,-2,-2,0,-4
-1,3,6,-1,-4,4,-10,-4,-3,-2,0,-4
-1,3,6,-1,-4,4,-11,-5,-4,-2,0,-4
-1,3,6,0,-4,4,-11,-5,-4,-2,0,-5
-2,3,6,0,-4,4,-11,-5,-5,-2,0,-5
-2,3,6,0,-4,4,-11,-5,-5,-3,0,-5
-1,3,6,0,-4,4,-11,-5,-5,-3,0,-5
-1,4,6,-1,-4,4,-10,-5,-5,-3,0,-5
-1,3,6,-1,-4,4,-10,-6,-5,-4,0,-5
-1,3,6,0,-4,4,-10,-7,-6,-5,-1,-5
-1,2,5,0,-4,3,-10,-7,-6,-6,-1,-6
-1,2,5,0,-4,3,-10,-8,-6,-6,-1,-6
-1,2,5,0,-4,3,-10,-8,-6,-7,-1,-6
-1,2,5,0,-4,3,-11,-8,-6,-7,-1,-7
-1,2,5,0,-4,2,-11,-8,-6,-8,-1,-7
-1,1,4,0,-3,1,-11,-8,-6,-8,-1,-8
-2,0,3,1,-3,1,-11,-7,-6,-8,-2,-8
-2,-1,3,2,-4,1,-11,-7,-6,-8,-2,-8
-3,-1,3,2,-4,1,-10,-6,-5,-8,-2,-8
-4,-1,4,3,-4,1,-9,-6,-5,-8,-2,-8
-4,-1,4,3,-4,1,-8,-5,-5,-8,-3,-8
-4,-2,4,4,-5,1,-8,-5,-5,-8,-3,-9
-5,-2,4,4,-5,0,-7,-5,-5,-8,-3,-9
-5,-2,4,5,-6,0,-6,-5,-4,-8,-3,-9
-6,-3,4,5,-6,0,-6,-5,-4,-8,-4,-9
-6,-3,4,5,-6,0,-6,-5,-4,-8,-4,-9
-6,-4,3,5,-5,0,-5,-5,-3,-8,-4,-9
-6,-4,3,5,-5,-1,-5,-5,-3,-7,-4,-9
-6,-5,2,6,-5,-1,-4,-5,-3,-7,-4,-9
-6,-5,2,6,-5,-1,-4,-5,-3,-7,-4,-9
-6,-5,3,6,-5,-1,-4,-5,-3,-7,-5,-9
-7,-5,3,6,-5,-1,-4,-6,-3,-7,-5,-9
-7,-5,3,6,-5,-1,-4,-6,-3,-7,-5,-9
-7,-4,3,6,-5,-1,-4,-6,-3,-7,-5,-9
-7,-4,3,6,-5,0,-4,-6,-3,-8,-5,-9
-7,-4,3,6,-6,0,-4,-6,-2,-8,-5,-9
-7,-4,3,6,-6,0,-4,-6,-2,-8,-5,-9
-7,-4,3,6,-6,0,-4,-6,-2,-8,-5,-8
-7,-4,3,6,-6,0,-4,-6,-2,-8,-5,-8
-7,-4,3,6,-6,0,-4,-6,-2,-8,-5,-8
-7,-5,3,6,-6,-1,-3,-6,-2,-8,-6,-8
-7,-5,3,6,-6,-1,-3,-6,-2,-8,-6,-8
-7,-5,4,6,-6,-1,-2,-6,-2,-8,-6,-8
-7,-5,4,6,-6,-1,-2,-7,-3,-8,-6,-9
-7,-5,4,6,-6,-1,-3,-7,-3,-8,-6,-9
-7,-4,4,6,-6,-1,-3,-7,-3,-8,-6,-9
-7,-4,4,6,-6,-1,-3,-7,-3,-8,-6,-9
-7,-4,4,6,-6,-1,-3,-7,-3,-8,-6,-9
-7,-4,4,6,-6,-1,-3,-7,-4,-8,-6,-9
-7,-4,4,5,-6,-1,-3,-7,-4,-8,-6,-9
-7,-4,4,5,-6,-1,-3,-6,-4,-8,-6,-9
-7,-4,4,6,-6,-1,-2,-6,-4,-8,-6,-9
-7,-4,4,6,-6,-1,-2,-6,-4,-8,-6,-9
-7,-4,4,6,-6,-1,-3,-6,-4,-8,-6,-9
-7,-4,4,6,-6,0,-3,-6,-5,-8,-6,-9
-7,-4,4,6,-6,0,-3,-6,-5,-7,-6,-9
-7,-4,3,6,-6,-1,-3,-6,-6,-7,-7,-9
-7,-5,3,6,-6,-1,-4,-6,-6,-7,-7,-9
-7,-5,4,6,-6,0,-4,-6,-7,-8,-7,-9
-7,-4,4,6,-6,0,-4,-6,-7,-8,-8,-9
-7,-4,4,6,-6,0,-3,-5,-8,-8,-8,-9
-7,-4,3,6,-6,0,-3,-5,-8,-8,-7,-9
-7,-5,3,6,-6,-1,-3,-5,-8,-8,-7,-9
-7,-5,3,6,-6,-1,-3,-5,-8,-9,-7,-9
-7,-5,3,6,-6,0,-3,-5,-8,-9,-7,-8
-7,-5,3,6,-6,0,-3,-4,-7,-9,-7,-8
-7,-5,3,6,-6,-1,-2,-4,-7,-9,-7,-8
-7,-5,3,6,-6,-1,-2,-4,-7,-9,-7,-8
-7,-4,3,6,-6,-1,-2,-4,-7,-9,-8,-8
-7,-4,3,6,-6,0,-2,-4,-7,-9,-8,-8
-7,-4,3,6,-6,0,-2,-3,-7,-9,-9,-8
-7,-4,3,6,-6,0,-2,-3,-6,-9,-9,-8
-7,-4,3,6,-6,0,-2,-3,-6,-9,-10,-8
-7,-5,3,6,-6,-1,-2,-3,-6,-10,-10,-9
-6,-5,2,6,-5,-1,-2,-3,-6,-10,-10,-9
-4,-6,0,5,-3,-3,-2,-2,-5,-9,-11,-10
-3,-6,-3,5,-1,-5,-2,-1,-4,-8,-12,-11
-1,-7,-5,5,1,-7,-2,1,-1,-7,-12,-12
1,-8,-7,4,3,-8,-2,5,2,-4,-13,-13
3,-8,-9,3,5,-9,-2,11,8,0,-13,-13
6,-7,-11,1,7,-9,-2,18,14,5,-12,-13
10,-6,-13,-1,10,-10,-2,23,20,10,-11,-13
14,-4,-16,-4,13,-10,-3,21,24,15,-9,-12
17,-1,-17,-7,15,-9,-5,15,26,21,-5,-9
21,3,-16,-11,17,-7,-7,3,26,29,1,-4
24,9,-14,-16,18,-3,-10,-11,26,38,9,2
27,15,-12,-20,18,1,-13,-26,25,48,18,9
29,21,-8,-25,18,7,-16,-41,22,58,26,16
30,28,-2,-29,16,13,-19,-57,15,65,35,25
31,35,5,-33,12,20,-23,-76,2,68,44,33
31,42,12,-36,8,28,-27,-98,-14,67,53,41
29,48,21,-38,3,34,-32,-120,-35,62,60,48
25,52,29,-38,-3,40,-35,-137,-56,50,64,53
17,53,38,-35,-11,45,-37,-148,-76,34,63,56
6,52,47,-29,-22,49,-36,-155,-91,16,57,55
-7,48,56,-20,-33,52,-33,-158,-103,-3,48,51
-20,42,63,-11,-43,53,-29,-159,-112,-21,36,45
-32,36,68,-2,-51,52,-24,-159,-117,-37,26,39
-40,29,70,5,-56,50,-20,-158,-121,-50,17,33
-44,23,69,10,-58,47,-17,-157,-124,-61,8,26
-46,18,66,14,-57,42,-16,-155,-125,-70,1,19
-46,13,60,17,-55,37,-15,-151,-123,-75,-5,12
-44,7,52,18,-50,30,-15,-144,-119,-76,-9,7
-42,3,44,19,-45,23,-15,-136,-113,-73,-12,2
-39,0,38,20,-39,18,-16,-126,-106,-69,-14,0
-35,-3,32,20,-35,14,-17,-115,-99,-64,-16,-3
-32,-5,27,20,-31,11,-16,-103,-91,-58,-17,-5
-29,-7,23,20,-27,8,-16,-92,-83,-52,-18,-7
-26,-9,19,19,-24,5,-15,-80,-74,-46,-17,-8
-24,-9,15,17,-21,3,-13,-68,-65,-40,-16,-8
-21,-9,12,15,-19,2,-11,-57,-57,-34,-15,-8
-19,-9,10,14,-16,0,-8,-47,-49,-30,-14,-8
-17,-10,7,13,-13,-1,-6,-38,-42,-26,-13,-8
-15,-10,5,12,-11,-2,-5,-31,-36,-23,-13,-7
-13,-11,3,12,-9,-4,-4,-25,-30,-19,-12,-7
-12,-11,1,12,-8,-5,-3,-20,-25,-16,-12,-7
-10,-11,0,12,-7,-6,-2,-15,-21,-13,-12,-6
-9,-11,-1,11,-6,-7,0,-11,-17,-11,-12,-6
-8,-12,-2,11,-5,-7,0,-7,-14,-9,-12,-6
-8,-12,-3,10,-4,-8,1,-5,-11,-8,-12,-6
-7,-12,-3,10,-4,-8,2,-3,-10,-8,-12,-6
-7,-11,-3,9,-3,-8,2,-2,-9,-8,-12,-6
-7,-11,-3,9,-3,-8,3,-1,-8,-7,-12,-6
-7,-11,-3,9,-2,-8,4,-1,-8,-7,-11,-6
-7,-11,-3,9,-2,-8,5,0,-8,-6,-11,-6
-7,-11,-3,9,-3,-7,5,0,-8,-5,-11,-6
-6,-10,-3,9,-3,-7,6,0,-8,-4,-10,-6
-6,-10,-3,9,-3,-7,6,1,-8,-3,-10,-6
-6,-11,-3,9,-3,-7,6,2,-9,-3,-10,-6
-6,-11,-3,9,-3,-7,6,2,-9,-2,-9,-6
-6,-11,-4,9,-3,-8,6,2,-9,-2,-9,-6
-6,-11,-4,9,-3,-8,5,3,-9,-1,-9,-6
-6,-11,-4,9,-3,-8,5,3,-10,-1,-9,-6
-6,-11,-4,9,-3,-8,5,3,-10,-1,-8,-6
-6,-11,-4,9,-2,-8,5,4,-10,-1,-8,-6
-6,-11,-5,9,-2,-8,5,4,-10,-1,-8,-6
-6,-11,-5,9,-2,-8,4,4,-11,-1,-8,-6
-6,-11,-4,9,-2,-8,4,5,-11,-2,-9,-6
-6,-11,-4,9,-2,-8,4,5,-11,-2,-9,-5
-6,-11,-4,9,-2,-8,4,6,-11,-2,-9,-5
-6,-11,-4,9,-2,-8,4,6,-11,-2,-9,-5
-6,-11,-4,9,-2,-8,4,7,-11,-1,-10,-4
-6,-11,-4,9,-2,-8,4,7,-11,-1,-10,-4
-6,-11,-4,9,-2,-8,4,8,-10,-1,-10,-4
-6,-11,-4,9,-2,-8,4,8,-8,-1,-10,-4
-6,-11,-4,9,-2,-8,4,9,-7,-1,-11,-4
-6,-11,-4,9,-2,-8,4,9,-6,-1,-11,-4
-6,-11,-4,9,-2,-8,4,9,-5,-1,-11,-5
-6,-11,-4,9,-2,-9,3,9,-5,-1,-11,-5
-6,-11,-4,9,-2,-9,2,10,-4,-1,-11,-5
-6,-11,-4,9,-2,-9,1,10,-4,-1,-11,-5
-6,-11,-4,8,-2,-9,1,10,-3,-1,-11,-5
-6,-11,-4,8,-2,-8,1,10,-2,-1,-11,-5
-6,-10,-4,8,-2,-8,1,11,-2,-1,-11,-5
-6,-10,-4,8,-2,-7,1,11,-1,-1,-11,-5
-6,-10,-4,8,-2,-7,0,11,-1,-1,-10,-5
-6,-10,-4,8,-1,-7,0,12,-1,-1,-10,-5
-6,-10,-5,8,-1,-7,0,12,-1,-1,-9,-5
-5,-10,-5,8,-1,-7,0,12,-1,-1,-9,-5
-5,-10,-4,8,-1,-7,0,13,-1,-2,-8,-4
-5,-10,-4,8,-1,-7,0,13,-1,-2,-8,-4
-5,-10,-4,8,-1,-7,-1,14,-1,-2,-8,-3
-5,-10,-4,8,-1,-7,-1,14,-2,-2,-7,-3
-5,-10,-4,8,-1,-7,-1,14,-2,-2,-7,-3
-5,-10,-4,8,-1,-7,-1,14,-2,-2,-7,-3
-5,-10,-4,8,-1,-7,-1,14,-2,-2,-7,-3
-5,-10,-4,8,-1,-8,-1,14,-3,-2,-6,-3
-5,-10,-4,8,-1,-8,-1,15,-3,-2,-6,-3
-5,-9,-4,7,-1,-7,-2,15,-3,-2,-5,-3
-5,-9,-3,7,-1,-7,-2,15,-3,-2,-5,-3
-5,-8,-3,7,-1,-6,-2,15,-4,-1,-5,-4
-5,-8,-3,6,-1,-6,-2,15,-5,0,-5,-4
-4,-8,-4,6,-1,-6,-2,16,-5,0,-5,-4
-4,-8,-4,6,0,-6,-3,16,-5,0,-4,-4
-4,-8,-4,6,0,-6,-3,17,-5,1,-4,-4
-4,-8,-4,6,0,-6,-3,17,-5,1,-4,-4
-4,-8,-3,6,0,-6,-3,17,-5,2,-4,-4
-4,-8,-4,6,0,-6,-3,18,-5,2,-3,-4
-3,-8,-4,6,0,-6,-4,18,-5,2,-3,-4
-3,-8,-4,6,0,-7,-4,18,-5,2,-3,-4
-4,-8,-4,6,0,-7,-4,18,-5,2,-3,-4
-4,-8,-4,6,0,-7,-4,19,-5,2,-3,-4
-3,-8,-5,6,0,-7,-4,19,-5,3,-3,-4
-3,-8,-5,5,0,-7,-4,19,-5,3,-3,-4
-3,-7,-5,5,0,-6,-5,19,-5,3,-3,-4
-2,-7,-5,5,0,-6,-5,20,-5,3,-3,-4
-2,-7,-5,5,0,-7,-5,20,-5,4,-3,-3
-2,-7,-6,5,1,-7,-6,20,-5,4,-3,-3
-2,-6,-5,5,1,-6,-6,20,-4,5,-3,-3
-2,-6,-5,5,0,-6,-6,20,-4,5,-2,-2
-2,-6,-5,5,0,-6,-7,20,-3,6,-2,-2
-1,-6,-5,5,1,-6,-7,20,-3,6,-2,-2
-1,-6,-6,5,1,-6,-7,21,-2,7,-2,-1
0,-6,-6,4,1,-6,-7,21,-2,7,-2,-1
0,-6,-6,4,1,-6,-7,22,-1,8,-1,-1
0,-6,-6,3,2,-6,-7,22,-1,9,-1,-1
0,-6,-6,3,2,-6,-8,21,-1,9,0,-1
1,-5,-6,2,3,-6,-8,19,-1,10,0,-1
1,-5,-6,2,3,-6,-8,17,0,11,1,-1
1,-5,-6,2,3,-6,-8,16,0,12,1,-1
1,-4,-6,2,3,-6,-9,14,0,13,2,-1
2,-4,-6,1,3,-6,-9,13,1,13,2,0
3,-3,-7,1,3,-6,-9,13,1,14,3,0
4,-3,-7,0,4,-6,-9,13,2,15,4,0
4,-3,-7,0,4,-5,-9,13,2,16,5,1
5,-2,-7,-1,5,-5,-10,13,3,16,6,1
6,-1,-7,-2,5,-4,-10,13,4,17,7,2
7,0,-7,-3,6,-4,-10,13,5,18,8,2
8,0,-7,-4,6,-3,-10,13,5,19,9,3
9,1,-7,-4,6,-3,-10,13,6,20,9,3
9,1,-7,-5,6,-3,-10,14,6,21,10,4
9,2,-6,-5,6,-2,-10,14,7,22,11,4
10,3,-6,-6,6,-1,-11,14,7,22,12,5
10,3,-6,-6,7,-1,-11,14,7,23,13,6
11,4,-6,-7,7,0,-11,14,7,24,14,7
11,5,-5,-8,7,0,-11,14,7,24,15,8
12,6,-5,-8,7,0,-11,14,7,25,16,9
12,6,-5,-9,7,0,-11,14,8,25,16,10
13,7,-5,-9,7,0,-11,13,8,26,17,10
13,8,-5,-10,7,1,-12,13,8,26,17,11
13,8,-4,-10,7,1,-13,13,9,26,18,11
13,9,-4,-10,7,1,-13,14,9,26,19,12
13,9,-4,-10,7,2,-13,14,10,26,19,12
13,10,-4,-10,7,2,-13,14,10,26,20,12
13,10,-3,-10,6,3,-13,14,10,26,20,12
13,10,-3,-10,6,3,-13,14,10,26,21,12
13,10,-3,-10,6,3,-13,14,10,26,21,12
13,10,-2,-10,6,3,-13,13,10,26,21,13
13,10,-2,-10,6,3,-13,13,10,26,22,13
12,10,-2,-10,5,3,-12,12,10,26,22,13
12,10,-1,-10,5,3,-12,12,10,25,22,14
11,9,-1,-9,4,3,-11,12,9,24,22,14
10,9,0,-9,4,3,-10,12,9,24,22,14
9,9,0,-8,3,3,-9,11,8,23,22,13
8,8,0,-7,3,3,-8,11,8,22,21,13
7,7,0,-6,2,3,-8,10,7,21,21,12
6,6,0,-5,2,3,-8,10,6,20,20,12
6,5,0,-4,2,2,-8,9,5,19,19,11
5,4,0,-3,2,1,-8,9,4,19,18,11
4,3,0,-3,1,1,-8,9,3,18,18,10
3,3,0,-2,0,0,-8,8,2,17,17,10
2,2,0,-1,0,0,-7,8,2,16,16,10
1,1,-1,0,0,0,-6,8,1,16,16,10
1,0,-1,0,0,-1,-6,8,0,16,15,10
0,0,-1,1,-1,-1,-5,7,0,15,14,9
0,-1,-1,2,-1,-2,-4,7,-1,14,13,8
0,-2,-1,2,-1,-2,-4,7,-1,12,12,7
-1,-3,-1,3,-1,-3,-4,6,-2,10,11,6
-1,-4,-2,3,-1,-3,-3,6,-2,9,10,6
-2,-4,-2,4,-1,-4,-3,5,-3,7,9,5
-2,-5,-2,4,-2,-4,-2,5,-4,6,8,4
-3,-6,-2,5,-2,-4,-2,4,-4,6,8,3
-4,-6,-2,6,-3,-5,-1,4,-5,5,7,2
-4,-7,-2,6,-3,-5,-1,4,-5,5,6,1
-5,-8,-3,7,-2,-6,0,4,-6,4,5,1
-5,-9,-4,8,-2,-7,0,4,-6,4,5,1
-5,-9,-4,8,-2,-7,0,3,-6,3,5,1
-5,-9,-4,9,-2,-8,0,3,-6,2,5,0
-6,-10,-4,9,-2,-8,1,3,-6,1,5,0
-6,-10,-4,9,-2,-8,1,3,-6,1,5,0
-6,-10,-4,9,-2,-8,1,2,-6,1,4,0
-6,-11,-4,9,-2,-8,1,2,-6,1,4,-1
-6,-11,-4,9,-2,-8,1,1,-6,1,3,-1
-6,-12,-4,9,-2,-9,1,1,-6,0,3,-1
-6,-12,-4,9,-2,-9,1,0,-5,0,3,-1
-6,-11,-4,9,-2,-9,1,0,-5,0,3,-1
-6,-11,-4,9,-3,-8,1,0,-5,-1,3,-1
-6,-11,-4,9,-3,-8,1,0,-4,-1,3,-1
-7,-11,-4,10,-3,-8,2,0,-4,-1,2,-1
-7,-12,-4,10,-3,-8,2,0,-3,-1,2,0
-7,-12,-4,11,-3,-8,2,0,-3,-1,2,0
-7,-12,-4,11,-3,-8,2,0,-2,-1,2,0
-7,-12,-4,11,-3,-8,2,0,-2,-2,2,0
-7,-12,-4,11,-3,-9,2,0,-2,-2,2,0
-7,-12,-4,11,-3,-9,3,0,-1,-2,2,-1
-7,-12,-4,11,-3,-9,3,0,-1,-2,2,-1
-7,-12,-4,11,-3,-9,3,0,-2,-2,2,-2
-8,-12,-4,11,-3,-9,2,0,-2,-2,2,-2
-8,-12,-4,11,-4,-9,2,0,-2,-2,2,-3
-8,-12,-4,11,-4,-9,2,0,-2,-3,2,-3
-9,-12,-3,11,-4,-8,2,0,-2,-3,2,-3
-9,-13,-3,11,-4,-8,2,0,-2,-3,2,-3
-8,-13,-4,11,-4,-8,2,0,-2,-3,2,-3
-8,-12,-4,11,-3,-8,3,0,-2,-3,3,-3
-8,-12,-4,11,-3,-8,3,0,-2,-3,3,-3
-8,-12,-4,11,-3,-8,3,0,-2,-3,3,-3
-8,-12,-4,11,-3,-8,3,0,-2,-3,3,-3
-8,-12,-4,11,-3,-8,3,0,-2,-3,3,-3
-8,-12,-4,11,-3,-8,3,0,-2,-3,3,-3
-8,-12,-4,11,-3,-8,3,0,-3,-3,2,-4
-8,-12,-4,11,-3,-8,3,0,-3,-3,2,-4
-9,-12,-4,11,-4,-8,3,0,-3,-3,1,-4
-9,-12,-3,11,-4,-8,3,0,-3,-3,1,-4
-9,-12,-3,11,-4,-8,3,0,-4,-3,1,-3
-9,-12,-3,11,-4,-8,3,0,-4,-3,1,-3
-8,-12,-4,11,-4,-8,4,0,-4,-3,1,-2
-8,-13,-4,11,-4,-9,4,0,-4,-4,0,-2
-8,-13,-4,11,-4,-9,5,0,-4,-4,0,-2
-8,-13,-4,11,-4,-9,5,1,-3,-5,0,-2
-8,-13,-4,11,-4,-9,5,1,-3,-5,0,-2
-8,-13,-4,11,-4,-9,5,1,-2,-5,0,-2
-8,-13,-4,11,-4,-8,5,1,-2,-5,0,-2
-8,-13,-4,11,-4,-8,5,2,-1,-5,0,-3
-8,-13,-4,11,-4,-8,5,2,0,-6,-1,-3
-8,-13,-4,11,-4,-8,5,3,0,-6,-1,-3
-8,-13,-4,11,-4,-9,5,3,1,-6,-1,-3
-8,-13,-5,11,-4,-9,6,4,1,-6,-1,-4
-8,-13,-5,11,-4,-9,6,4,1,-6,-1,-4
-8,-13,-5,11,-4,-9,7,4,1,-6,-1,-4
-8,-13,-5,11,-4,-9,7,5,1,-5,-1,-4
-8,-13,-5,11,-4,-9,8,6,1,-5,-1,-4
-8,-13,-5,11,-4,-9,8,6,1,-4,-1,-4
-8,-13,-4,11,-4,-9,9,7,1,-4,-1,-3
-8,-13,-4,10,-4,-8,10,7,1,-4,-1,-3
-8,-13,-4,10,-4,-8,10,7,1,-3,-1,-3
-8,-13,-5,10,-3,-8,11,7,1,-3,-1,-3
-8,-14,-6,11,-3,-9,11,8,1,-3,-1,-2
-8,-14,-6,11,-3,-9,11,8,0,-3,-1,-2
-8,-14,-6,11,-3,-9,11,8,0,-3,-1,-2
-8,-14,-6,11,-3,-9,11,9,0,-3,-1,-2
-8,-14,-6,11,-3,-9,12,9,0,-3,0,-2
-8,-14,-7,11,-3,-10,12,9,0,-3,0,-2
-7,-13,-7,10,-3,-9,12,10,1,-3,0,-2
-7,-13,-6,10,-3,-9,12,10,1,-3,0,-1
-7,-12,-6,9,-3,-9,11,10,1,-3,0,-1
-7,-12,-6,9,-3,-8,11,11,1,-3,0,-1
-7,-12,-6,9,-3,-8,11,11,1,-3,0,-1
-7,-12,-6,9,-3,-8,10,11,1,-3,0,-1
-7,-12,-6,9,-3,-8,10,11,1,-3,0,-2
-7,-12,-6,9,-3,-8,10,11,1,-3,0,-2
-7,-12,-6,9,-3,-8,10,11,2,-3,-1,-2
-7,-12,-6,10,-3,-8,10,11,2,-3,-1,-2
-7,-12,-6,10,-3,-8,10,11,2,-3,-1,-2
-7,-13,-6,10,-3,-8,10,11,2,-3,-1,-2
-7,-13,-6,10,-3,-8,10,10,2,-2,-1,-2
-7,-13,-6,10,-3,-8,10,8,2,-2,-1,-2
-7,-13,-6,10,-3,-8,10,6,2,-2,-1,-2
-7,-13,-6,10,-3,-8,11,5,2,-2,-1,-2
-7,-13,-6,10,-3,-8,11,3,2,-2,-2,-2
-7,-12,-5,9,-3,-8,11,2,2,-2,-2,-2
-7,-12,-5,9,-3,-8,11,1,2,-2,-2,-2
-7,-12,-6,9,-2,-8,11,1,2,-2,-2,-2
-7,-12,-6,9,-2,-8,11,1,2,-2,-2,-2
-7,-12,-6,9,-2,-8,11,0,2,-2,-2,-2
-7,-12,-6,9,-2,-8,11,0,2,-2,-2,-2
-7,-12,-6,9,-2,-8,11,1,2,-2,-2,-1
-7,-12,-6,9,-2,-8,11,1,2,-2,-2,0
-7,-12,-6,9,-2,-8,11,2,2,-2,-2,0
-7,-12,-6,9,-2,-8,11,2,2,-2,-2,0
-7,-12,-6,9,-2,-7,11,2,2,-2,-2,0
-7,-12,-5,8,-2,-7,10,2,2,-2,-2,0
-7,-11,-5,8,-2,-7,10,2,2,-2,-3,0
-7,-11,-5,8,-3,-7,9,2,2,-2,-3,0
-7,-11,-5,8,-3,-7,8,2,2,-2,-3,0
-7,-11,-5,8,-3,-7,7,2,2,-2,-3,0
-7,-11,-5,8,-3,-7,7,2,2,-2,-3,0
-7,-11,-5,8,-3,-7,6,2,2,-3,-2,0
-7,-11,-4,8,-3,-7,6,2,2,-3,-2,-1
-7,-10,-4,8,-3,-6,5,3,2,-3,-2,-1
-7,-10,-4,8,-3,-6,5,3,2,-4,-3,-2
-7,-10,-4,8,-3,-6,4,3,2,-4,-3,-2
-7,-10,-4,8,-3,-6,4,3,2,-4,-3,-2
-7,-10,-4,8,-3,-5,4,3,2,-5,-3,-2
-7,-10,-4,8,-3,-5,3,4,1,-5,-3,-2
-7,-10,-4,8,-3,-5,3,4,1,-5,-3,-2
-7,-10,-4,8,-3,-5,3,4,1,-5,-3,-2
-7,-10,-4,8,-3,-5,3,4,1,-5,-3,-2
-7,-10,-4,8,-3,-5,3,4,0,-6,-4,-2
-7,-10,-4,8,-3,-5,3,5,0,-6,-4,-2
-7,-10,-4,8,-3,-5,3,5,0,-6,-4,-2
-7,-9,-4,8,-3,-5,3,5,-1,-6,-4,-2
-7,-9,-3,8,-3,-5,3,5,-1,-6,-4,-2
-6,-8,-3,7,-3,-4,4,5,-1,-5,-4,-2
-6,-8,-3,7,-3,-4,4,5,-1,-5,-4,-2
-6,-8,-3,7,-3,-5,4,5,-1,-4,-4,-2
-6,-8,-3,7,-3,-5,5,5,-1,-4,-4,-2
-6,-8,-3,7,-3,-5,5,5,-1,-4,-4,-2
-6,-8,-3,7,-3,-5,5,4,-1,-4,-4,-2
-6,-9,-3,7,-3,-6,5,4,-1,-4,-4,-2
-6,-9,-3,8,-3,-6,5,4,-1,-5,-4,-2
-6,-10,-3,8,-3,-6,5,5,-1,-5,-4,-2
-6,-10,-4,8,-3,-6,5,5,-1,-5,-4,-3
-6,-10,-4,8,-3,-6,5,5,-1,-5,-4,-3
-6,-9,-3,8,-3,-6,5,5,-1,-5,-4,-4
-6,-9,-3,8,-3,-5,5,5,-1,-5,-4,-4
-6,-9,-4,8,-3,-5,5,5,-1,-5,-4,-4
-6,-9,-4,8,-3,-5,5,5,-1,-5,-4,-4
-6,-9,-3,8,-3,-5,6,5,-1,-5,-4,-4
-6,-9,-3,8,-3,-5,6,5,-1,-5,-4,-4
-6,-9,-3,8,-3,-6,6,5,-1,-5,-4,-4
-6,-9,-3,8,-3,-6,7,5,-1,-5,-4,-4
-6,-9,-3,8,-3,-6,7,5,-1,-6,-4,-4
-6,-9,-3,8,-3,-6,7,5,-1,-6,-4,-4
-6,-9,-3,8,-3,-6,7,4,-1,-6,-4,-4
-6,-10,-3,8,-3,-6,7,4,-1,-6,-4,-4
-6,-10,-3,8,-3,-6,7,4,-1,-6,-4,-4
-6,-9,-3,8,-3,-6,7,4,-1,-6,-4,-4
-6,-9,-3,8,-3,-5,6,4,-1,-6,-4,-3
-6,-9,-3,8,-3,-5,6,4,-1,-6,-4,-3
-6,-9,-3,8,-3,-5,6,4,-1,-6,-4,-2
-6,-9,-3,8,-3,-5,6,4,-1,-6,-4,-2
-6,-9,-3,8,-3,-5,6,3,-1,-6,-4,-2
-6,-9,-2,8,-4,-5,6,3,-2,-6,-4,-2
-6,-9,-2,8,-4,-5,6,3,-2,-6,-4,-2
-6,-9,-2,8,-4,-5,5,3,-2,-6,-4,-3
-6,-9,-2,8,-3,-5,5,3,-2,-6,-4,-3
-6,-9,-2,7,-3,-5,5,3,-2,-6,-4,-4
-6,-9,-2,7,-3,-6,5,3,-2,-6,-4,-4
-6,-9,-2,7,-3,-6,4,3,-2,-6,-4,-4
-6,-9,-2,7,-3,-5,4,3,-2,-7,-4,-4
-6,-8,-2,7,-3,-5,4,3,-1,-7,-5,-4
-6,-8,-2,7,-3,-5,4,3,-1,-7,-5,-4
-6,-9,-2,8,-3,-5,4,3,-1,-7,-5,-4
-6,-9,-2,8,-4,-5,3,3,-1,-7,-5,-4
-6,-9,-2,8,-4,-5,3,3,-1,-8,-5,-5
-6,-9,-2,8,-4,-5,2,3,-1,-8,-5,-5
-6,-9,-2,8,-4,-5,2,4,-1,-9,-5,-6
-6,-9,-2,8,-4,-5,2,4,-1,-9,-5,-6
-6,-8,-2,8,-4,-5,2,4,-1,-9,-5,-6
-6,-8,-2,7,-4,-5,2,4,-1,-9,-6,-6
-6,-8,-2,7,-3,-5,2,4,-1,-9,-6,-6
-6,-8,-2,7,-3,-5,2,4,-1,-9,-6,-6
-6,-7,-2,7,-4,-5,2,4,-1,-10,-6,-6
-6,-7,-1,6,-4,-4,2,4,-1,-10,-6,-6
-6,-7,0,6,-4,-4,2,4,0,-10,-6,-6
-6,-6,0,6,-4,-3,3,5,0,-10,-6,-6
-6,-5,0,6,-4,-3,3,5,0,-10,-6,-6
-6,-5,1,5,-4,-2,4,6,0,-9,-6,-6
-6,-4,2,5,-5,-2,4,6,0,-8,-6,-6
-5,-3,2,4,-5,-1,4,6,1,-8,-6,-6
-5,-3,2,4,-5,0,4,7,1,-8,-5,-6
-5,-3,2,4,-5,-1,4,7,2,-7,-5,-6
-5,-4,1,5,-4,-1,4,8,2,-7,-4,-6
-5,-4,1,5,-4,-1,4,8,2,-7,-4,-6
-5,-4,1,4,-4,-1,4,9,3,-7,-4,-5
-5,-4,0,4,-3,-1,5,10,3,-6,-3,-5
-5,-4,0,4,-3,-1,5,10,3,-6,-3,-5
-4,-3,0,4,-3,-1,5,11,4,-5,-3,-5
-4,-3,0,4,-3,-1,4,11,4,-4,-3,-5
-3,-3,0,4,-3,-1,4,12,5,-4,-3,-5
-3,-3,0,3,-3,-1,3,12,5,-3,-3,-5
-3,-3,0,3,-3,-1,3,13,6,-3,-3,-5
-3,-3,0,3,-3,-1,3,13,6,-3,-3,-5
-3,-3,0,3,-3,-1,2,13,7,-3,-3,-5
-3,-3,0,3,-3,-1,2,14,7,-2,-3,-4
-3,-3,0,3,-3,-1,1,14,8,-1,-2,-4
-3,-2,0,2,-3,-1,1,15,8,0,-2,-3
-3,-2,0,2,-3,0,0,15,8,0,-2,-3
-2,-1,1,1,-3,0,0,14,8,0,-2,-3
-2,-1,1,1,-3,0,0,13,8,0,-2,-3
-2,-1,1,1,-2,0,-1,12,7,0,-2,-3
-2,-1,1,1,-2,0,-2,11,7,0,-2,-3
-2,0,1,1,-2,0,-3,10,6,0,-2,-3
-2,0,1,1,-2,0,-3,8,5,-1,-2,-4
-2,-1,0,1,-2,0,-3,7,5,-1,-2,-4
-2,-1,0,1,-2,-1,-3,7,5,-2,-2,-4
-2,-1,0,1,-2,0,-4,6,5,-2,-2,-4
-2,-1,0,1,-2,0,-4,6,5,-3,-2,-4
-2,-1,0,1,-2,0,-4,5,5,-3,-2,-4
-2,-1,0,1,-2,0,-4,5,4,-4,-2,-4
-1,-1,0,1,-2,0,-4,4,4,-4,-2,-4
-1,-1,0,1,-2,-1,-5,3,4,-5,-2,-4
-1,-2,0,1,-2,-1,-5,2,4,-5,-2,-4
-1,-2,0,1,-2,-1,-6,2,3,-6,-2,-4
-1,-2,-1,1,-2,-1,-7,1,3,-6,-2,-4
-1,-3,-1,2,-2,-2,-7,1,3,-6,-2,-4
-1,-3,-1,2,-2,-2,-7,1,3,-6,-2,-4
-1,-4,-1,2,-1,-2,-8,0,3,-6,-2,-4
-2,-4,-2,2,-1,-3,-8,0,3,-7,-2,-5
-2,-5,-2,3,-1,-3,-8,0,3,-7,-2,-5
-3,-5,-2,3,-1,-3,-8,0,3,-7,-3,-5
-3,-5,-2,4,-1,-3,-7,1,4,-7,-3,-5
-3,-5,-2,4,-1,-3,-7,1,4,-8,-3,-5
-3,-5,-2,5,-1,-4,-6,2,5,-8,-3,-6
-4,-6,-2,5,-2,-4,-6,2,5,-8,-3,-6
-4,-6,-2,6,-2,-4,-5,2,6,-8,-3,-6
-5,-7,-2,6,-3,-4,-5,2,6,-8,-3,-6
-5,-7,-2,7,-3,-4,-5,2,6,-9,-3,-6
-6,-7,-2,7,-3,-4,-5,2,6,-9,-4,-6
-6,-8,-2,7,-3,-4,-5,2,6,-9,-4,-6
-6,-8,-2,7,-3,-5,-5,2,6,-9,-4,-6
-6,-8,-2,7,-3,-5,-5,2,6,-9,-4,-6
-6,-8,-2,7,-3,-5,-5,2,6,-9,-4,-6
-6,-8,-2,7,-3,-5,-6,2,6,-9,-4,-6
-6,-8,-2,7,-3,-5,-6,2,6,-9,-4,-6
-6,-8,-2,7,-3,-5,-6,2,6,-9,-4,-5
-6,-8,-2,7,-3,-5,-6,2,6,-9,-4,-5
-6,-8,-1,7,-3,-5,-6,2,6,-9,-4,-5
-6,-8,-1,7,-3,-5,-6,2,6,-8,-4,-5
-6,-8,-2,7,-3,-5,-6,2,6,-8,-4,-5
-6,-8,-2,7,-3,-6,-6,2,6,-7,-4,-5
-6,-8,-2,7,-3,-6,-6,2,6,-7,-4,-5
-6,-8,-2,7,-3,-6,-6,2,6,-6,-4,-6
-7,-9,-2,8,-3,-6,-6,2,6,-6,-4,-6
-7,-9,-2,8,-3,-6,-6,2,6,-6,-4,-6
-7,-9,-2,8,-2,-6,-6,2,6,-6,-3,-6
-7,-8,-2,7,-2,-6,-6,2,6,-6,-3,-6
-7,-8,-2,7,-2,-5,-7,2,6,-7,-3,-6
-7,-9,-2,7,-2,-5,-7,2,6,-7,-3,-6
-7,-9,-2,7,-2,-5,-7,2,6,-7,-3,-6
-6,-8,-2,7,-2,-5,-8,2,5,-7,-3,-6
-6,-8,-2,7,-2,-5,-8,1,5,-7,-3,-6
-6,-8,-2,7,-2,-5,-8,1,4,-7,-4,-6
-6,-8,-2,7,-2,-5,-8,1,4,-7,-4,-6
-7,-8,-2,7,-3,-5,-8,1,4,-7,-4,-6
-7,-8,-2,7,-3,-5,-8,1,4,-7,-4,-6
-7,-8,-2,7,-3,-5,-8,1,4,-7,-4,-6
-7,-8,-2,7,-3,-5,-8,1,4,-7,-4,-6
-7,-8,-2,7,-3,-5,-8,1,3,-7,-4,-6
-7,-8,-2,7,-3,-5,-8,1,3,-8,-4,-6
-7,-8,-2,7,-3,-5,-8,0,3,-8,-5,-6
-7,-8,-2,7,-3,-5,-8,0,3,-8,-5,-6
-7,-8,-2,7,-3,-5,-8,0,3,-8,-5,-6
-7,-8,-2,7,-3,-5,-8,0,3,-8,-5,-6
-7,-8,-1,7,-3,-5,-9,0,3,-8,-5,-6
-7,-8,-1,7,-3,-5,-9,0,3,-8,-5,-6
-7,-8,-1,7,-3,-5,-10,0,3,-8,-5,-6
-7,-8,-1,7,-3,-5,-11,0,3,-7,-5,-5
-7,-8,-1,7,-3,-5,-11,0,3,-7,-5,-5
-6,-8,-1,7,-2,-5,-11,0,3,-7,-5,-5
-6,-8,-1,7,-2,-5,-11,0,3,-7,-5,-6
-6,-8,-1,7,-2,-6,-11,-2,3,-7,-5,-6
-6,-8,-1,7,-2,-6,-11,-4,3,-7,-5,-7
-6,-7,-1,6,-2,-5,-11,-5,3,-7,-6,-7
-6,-7,-1,6,-2,-4,-11,-7,4,-8,-6,-7
-6,-7,-1,6,-2,-5,-11,-8,4,-8,-6,-7
-6,-8,-2,6,-1,-5,-11,-9,4,-8,-6,-8
-6,-8,-3,6,-1,-6,-11,-10,4,-8,-6,-8
-5,-8,-4,6,0,-7,-12,-10,4,-8,-7,-9
-3,-9,-6,6,1,-8,-12,-9,5,-8,-8,-11
-2,-10,-8,5,3,-9,-12,-7,7,-7,-9,-12
0,-11,-11,4,6,-11,-12,-3,11,-6,-9,-12
2,-11,-14,3,8,-12,-12,1,16,-3,-9,-13
4,-10,-16,2,10,-13,-12,8,21,1,-9,-13
8,-9,-18,0,13,-14,-13,14,27,6,-9,-14
12,-8,-20,-2,16,-14,-13,17,31,11,-7,-14
16,-6,-22,-5,19,-14,-15,14,34,16,-4,-12
20,-2,-22,-9,20,-12,-17,7,36,23,1,-8
24,3,-20,-14,21,-8,-19,-5,36,31,8,-2
27,10,-17,-19,21,-3,-22,-19,35,41,16,4
29,17,-13,-24,21,1,-25,-34,33,51,24,11
31,23,-9,-28,20,6,-28,-49,29,59,33,18
33,30,-4,-32,18,12,-32,-66,19,64,41,26
33,36,3,-36,15,19,-36,-87,5,66,49,34
32,43,11,-38,10,26,-40,-109,-14,64,58,42
29,48,19,-39,4,33,-43,-128,-36,56,64,48
22,50,28,-36,-4,39,-46,-142,-56,42,65,51
11,49,37,-31,-14,43,-46,-150,-74,24,62,52
-1,46,46,-23,-24,46,-44,-153,-87,6,54,50
-15,42,54,-14,-35,47,-41,-153,-97,-12,43,45
-27,37,61,-5,-44,48,-36,-152,-104,-30,31,39
-36,32,66,1,-51,48,-31,-150,-109,-45,20,33
-42,26,67,7,-55,46,-27,-148,-113,-57,12,26
-44,19,64,12,-55,42,-24,-145,-114,-67,4,19
-45,13,59,15,-53,36,-23,-141,-113,-73,-1,13
-44,7,52,18,-50,30,-22,-136,-110,-76,-6,7
-42,3,45,19,-45,24,-23,-129,-105,-75,-10,2
-39,0,38,19,-39,19,-23,-120,-98,-72,-13,-2
-36,-2,32,19,-34,14,-24,-110,-90,-68,-14,-5
-33,-4,27,18,-30,11,-24,-100,-82,-63,-16,-7
-30,-6,22,18,-26,8,-24,-88,-74,-57,-17,-9
-27,-7,20,17,-24,6,-23,-77,-66,-51,-17,-11
-24,-7,17,15,-22,5,-22,-65,-57,-45,-17,-12
-21,-7,15,14,-20,4,-21,-54,-49,-39,-16,-12
-19,-7,13,12,-17,2,-19,-44,-41,-34,-15,-12
-17,-7,10,11,-13,1,-18,-36,-33,-29,-15,-12
-15,-7,7,10,-11,0,-16,-29,-27,-25,-14,-12
-14,-7,5,10,-9,-1,-14,-23,-21,-22,-14,-11
-12,-7,4,9,-7,-1,-12,-17,-15,-19,-14,-11
-10,-7,3,8,-6,-2,-11,-12,-10,-16,-14,-11
-9,-7,2,7,-5,-3,-10,-7,-6,-13,-13,-11
-7,-7,1,6,-5,-3,-9,-4,-3,-11,-13,-11
-7,-7,0,6,-4,-4,-8,-1,0,-10,-13,-11
-6,-6,0,5,-3,-4,-7,0,1,-9,-13,-11
-6,-6,-1,4,-2,-4,-6,1,3,-8,-13,-10
-5,-6,-2,4,-1,-4,-5,1,4,-8,-13,-10
-5,-6,-2,4,-1,-4,-5,2,4,-7,-13,-10
-5,-5,-1,5,-2,-4,-5,2,5,-7,-13,-10
-5,-5,-1,5,-2,-4,-5,3,5,-6,-13,-10
-5,-5,-1,5,-3,-4,-4,4,5,-6,-13,-10
-5,-5,0,5,-3,-4,-4,5,5,-5,-13,-10
-5,-5,-1,5,-3,-4,-4,5,4,-5,-12,-10
-5,-5,-1,5,-2,-4,-4,5,4,-5,-12,-10
-5,-6,-2,5,-2,-4,-4,5,4,-5,-11,-10
-5,-6,-2,5,-2,-4,-4,6,3,-5,-11,-10
-5,-6,-1,5,-2,-4,-4,6,3,-5,-11,-10
-5,-6,-1,5,-2,-4,-4,7,2,-5,-11,-10
-5,-6,-1,5,-2,-4,-4,7,2,-5,-11,-10
-6,-7,-1,5,-2,-4,-4,8,2,-5,-11,-10
-6,-7,-1,5,-2,-4,-4,8,2,-5,-11,-9
-5,-6,-1,5,-2,-4,-4,8,2,-5,-11,-9
-5,-6,-1,4,-2,-4,-4,8,2,-5,-11,-9
-5,-5,-1,4,-2,-4,-4,8,2,-5,-11,-9
-4,-5,-1,4,-2,-4,-4,8,2,-5,-11,-9
-4,-5,-1,4,-2,-4,-4,9,2,-5,-11,-9
-4,-5,-1,4,-2,-3,-4,9,3,-5,-11,-9
-4,-5,-1,4,-2,-3,-4,10,3,-5,-11,-9
-4,-5,0,4,-2,-3,-4,10,4,-6,-11,-9
-4,-5,0,4,-2,-3,-4,10,5,-6,-11,-9
-4,-5,-1,5,-2,-3,-4,10,5,-6,-12,-9
-4,-5,-1,5,-2,-4,-4,10,6,-6,-12,-9
-4,-5,-1,5,-2,-4,-4,11,7,-6,-12,-9
-5,-5,-1,5,-2,-4,-4,11,8,-6,-12,-9
-5,-5,-1,5,-2,-4,-3,11,9,-6,-12,-9
-5,-5,-1,5,-2,-3,-3,12,9,-5,-12,-9
-4,-5,-1,4,-2,-3,-3,12,10,-5,-12,-9
-4,-5,-1,4,-2,-3,-3,12,10,-4,-11,-9
-4,-5,-1,4,-2,-3,-3,12,11,-4,-11,-9
-4,-5,-1,4,-2,-3,-3,12,12,-4,-10,-9
-4,-5,-1,4,-2,-2,-3,12,12,-4,-10,-9
-4,-5,-1,4,-2,-2,-3,12,12,-4,-10,-9
-4,-5,-1,4,-2,-3,-3,12,12,-4,-10,-8
-4,-5,-1,4,-2,-3,-3,12,12,-4,-10,-8
-4,-4,-1,4,-2,-3,-3,12,12,-4,-10,-7
-4,-4,-1,4,-2,-3,-3,12,12,-4,-9,-7
-4,-4,-1,4,-2,-2,-3,12,12,-4,-9,-6
-4,-4,0,4,-2,-2,-3,12,12,-4,-9,-6
-4,-4,0,4,-2,-2,-3,12,12,-4,-9,-5
-4,-4,0,4,-2,-2,-3,12,12,-4,-8,-5
-4,-4,0,4,-2,-2,-3,12,12,-3,-8,-5
-4,-4,0,4,-2,-2,-3,12,11,-3,-7,-5
-4,-4,0,3,-2,-1,-2,12,11,-3,-7,-6
-4,-3,0,3,-2,-1,-2,13,11,-3,-7,-6
-4,-3,0,3,-2,-1,-3,13,11,-3,-7,-6
-3,-3,0,3,-2,-1,-3,14,11,-2,-6,-6
-3,-3,0,3,-2,-1,-4,14,10,-2,-6,-7
-3,-3,0,3,-2,-1,-4,14,10,-2,-6,-7
-3,-3,0,3,-2,-1,-5,14,10,-2,-6,-7
-3,-3,0,3,-2,-2,-5,15,10,-1,-6,-7
-3,-4,0,3,-2,-2,-5,15,11,-1,-6,-6
-3,-4,-1,3,-2,-2,-5,16,11,-1,-6,-6
-3,-3,-1,3,-1,-2,-5,16,11,-1,-6,-6
-2,-3,-1,2,-1,-2,-5,16,11,-1,-6,-6
-2,-3,-1,2,-1,-2,-5,16,11,0,-6,-6
-2,-3,0,2,-1,-2,-6,16,11,0,-5,-5
-2,-3,0,2,-1,-2,-6,17,11,0,-5,-5
-2,-3,0,2,-1,-2,-6,17,11,0,-5,-4
-2,-3,0,2,-1,-2,-6,17,11,0,-5,-4
-2,-3,0,2,-1,-2,-6,17,12,1,-5,-3
-2,-3,0,2,-1,-2,-6,17,12,1,-5,-3
-1,-2,0,1,-1,-2,-6,17,13,1,-5,-3
-1,-2,0,1,-1,-2,-6,17,13,1,-5,-3
-1,-2,0,1,0,-2,-6,17,13,1,-5,-2
0,-2,-1,0,0,-2,-6,18,14,2,-5,-2
0,-1,-1,0,0,-1,-6,18,14,2,-5,-1
0,-1,-1,0,0,-1,-6,19,15,2,-5,-1
0,-1,-1,0,0,0,-6,19,15,2,-5,-1
0,-1,-1,0,0,0,-6,19,16,3,-5,-1
0,-1,-1,0,0,-1,-6,19,16,3,-4,-1
0,-1,-1,0,0,-1,-6,19,17,4,-4,0
1,0,-1,-1,0,-1,-6,19,17,4,-3,0
1,0,-1,-1,1,-1,-7,20,18,5,-3,0
2,0,-1,-1,1,-1,-7,20,18,5,-2,0
2,0,-2,-1,2,-1,-7,20,19,6,-2,0
3,1,-2,-2,2,-1,-7,18,19,6,-1,1
4,1,-2,-2,3,-1,-7,16,20,7,0,1
5,1,-2,-3,3,-1,-7,14,21,9,1,2
5,2,-2,-4,3,-1,-7,13,21,10,1,2
6,2,-2,-4,4,0,-7,11,22,12,2,3
6,3,-2,-5,4,0,-7,10,22,13,2,3
7,4,-2,-6,4,0,-8,10,23,14,3,3
8,5,-3,-7,4,1,-8,9,23,15,4,3
9,5,-3,-7,5,0,-9,9,24,16,5,4
9,5,-3,-8,5,0,-9,9,25,16,6,5
10,6,-3,-8,5,1,-10,9,25,17,7,6
10,7,-2,-9,5,1,-10,9,26,18,8,7
10,7,-2,-9,6,1,-10,9,27,19,9,8
11,9,-2,-10,6,2,-10,9,27,20,10,9
12,10,-2,-11,6,3,-10,8,28,20,11,10
13,11,-1,-12,6,4,-10,8,28,21,11,10
13,11,-1,-12,7,4,-10,8,29,21,12,11
13,12,-1,-13,7,4,-11,8,29,22,12,12
14,12,-1,-13,7,5,-12,8,29,22,13,12
14,13,-1,-14,7,5,-13,8,30,23,13,13
14,14,0,-14,7,6,-13,7,30,23,14,13
14,14,0,-14,7,6,-14,7,30,24,14,13
14,14,0,-14,7,6,-14,7,30,24,15,13
14,14,0,-14,6,7,-14,7,30,24,15,13
13,15,1,-14,5,7,-15,7,30,25,15,13
13,15,2,-15,5,8,-15,7,30,25,16,14
13,15,2,-15,4,8,-15,6,30,25,16,14
13,15,2,-15,4,8,-15,6,30,25,17,15
13,15,2,-14,4,7,-15,6,30,25,17,15
12,15,3,-14,4,8,-15,5,30,25,17,15
12,15,3,-14,3,8,-15,5,29,24,17,14
11,14,3,-13,3,8,-15,4,29,24,16,14
10,13,3,-12,3,8,-15,4,29,23,16,14
9,13,3,-11,2,8,-14,3,29,22,15,14
8,12,3,-11,1,8,-14,3,28,21,15,14
8,12,3,-10,1,7,-14,2,28,20,14,13
7,11,3,-9,0,7,-13,2,27,19,13,13
6,10,3,-8,0,6,-12,1,26,17,12,12
5,9,3,-7,0,6,-11,1,25,16,11,11
5,8,3,-6,0,5,-10,0,25,15,11,10
4,7,3,-5,0,5,-9,0,24,14,10,9
3,6,3,-5,-1,4,-8,0,24,13,9,8
3,5,2,-4,-1,4,-8,0,23,12,8,7
2,4,2,-4,-1,3,-7,-1,22,10,7,6
1,4,2,-3,-1,3,-7,-1,21,9,6,5
1,3,2,-3,-2,2,-6,-2,20,8,5,4
0,2,2,-2,-2,2,-5,-3,19,7,4,3
0,1,2,-1,-2,1,-5,-3,19,6,4,2
0,0,1,0,-2,1,-4,-4,18,6,3,2
-1,0,1,0,-2,0,-4,-4,17,5,3,1
-1,-1,1,1,-2,0,-4,-4,17,5,2,1
-2,-2,1,1,-2,-1,-4,-5,16,5,1,0
-2,-2,1,1,-2,-1,-3,-5,16,4,1,0
-2,-2,0,2,-2,-2,-3,-5,15,4,0,0
-2,-2,0,2,-2,-2,-3,-5,15,4,0,-1
-3,-2,0,2,-2,-2,-3,-6,14,3,-1,-1
-3,-3,0,2,-3,-2,-2,-6,14,3,-1,-1
-3,-3,0,3,-3,-2,-2,-7,13,2,-2,-1
-3,-4,0,3,-3,-2,-2,-7,13,1,-2,-1
-4,-4,0,3,-3,-3,-2,-7,13,0,-2,0
-4,-5,0,4,-2,-3,-2,-7,13,0,-2,0
-5,-6,-1,4,-2,-4,-2,-7,13,0,-3,0
-5,-6,-1,5,-3,-4,-1,-7,13,0,-3,0
-5,-5,-1,5,-3,-4,-1,-7,13,0,-3,-1
-5,-5,-1,5,-3,-4,-1,-7,13,-1,-4,-1
-5,-5,-1,5,-3,-4,-1,-7,13,-1,-4,-1
-5,-5,-1,5,-3,-4,-1,-7,13,-1,-4,-1
-5,-5,-1,5,-3,-4,-1,-8,13,-2,-4,-1
-5,-6,-1,5,-3,-4,-1,-8,12,-2,-4,-2
-5,-6,0,5,-3,-4,-1,-9,12,-2,-4,-2
-5,-6,0,5,-3,-3,-1,-9,12,-2,-4,-3
-5,-6,0,5,-3,-3,-1,-9,12,-2,-4,-3
-5,-6,0,5,-3,-4,0,-9,12,-2,-4,-3
-5,-6,0,5,-3,-4,0,-9,12,-2,-4,-2
-5,-6,0,5,-3,-4,0,-9,12,-2,-4,-2
-6,-6,0,5,-3,-4,0,-8,12,-2,-4,-2
-6,-5,0,5,-3,-4,-1,-8,12,-2,-4,-2
-6,-5,0,5,-3,-4,-1,-7,12,-2,-4,-2
-6,-6,0,6,-3,-4,-1,-6,12,-2,-4,-2
-6,-6,0,6,-3,-4,-1,-5,12,-2,-4,-2
-6,-7,0,7,-3,-4,-1,-4,12,-2,-4,-2
-6,-7,0,7,-4,-4,-1,-3,11,-2,-4,-2
-6,-6,0,7,-4,-4,0,-2,11,-2,-4,-2
-6,-6,1,6,-4,-4,0,-2,11,-2,-4,-2
-6,-6,1,6,-4,-4,0,-2,11,-2,-4,-2
-6,-6,1,6,-4,-3,0,-1,11,-2,-4,-1
-6,-6,1,6,-4,-3,0,-1,11,-2,-5,-1
-6,-6,0,6,-4,-3,1,-1,11,-2,-5,-1
-6,-6,0,6,-4,-3,1,0,11,-2,-5,-1
-6,-6,0,6,-4,-3,1,0,11,-2,-5,-1
-6,-6,0,6,-4,-3,1,0,11,-2,-5,-1
-7,-6,0,6,-4,-3,1,0,11,-2,-5,-2
-7,-6,1,6,-4,-3,1,0,12,-2,-5,-2
-6,-6,1,6,-4,-3,1,0,12,-2,-6,-2
-6,-6,0,6,-4,-3,1,1,12,-2,-6,-3
-6,-6,0,6,-4,-4,1,1,12,-2,-6,-3
-6,-6,0,6,-4,-4,1,2,12,-2,-6,-3
-6,-6,0,6,-4,-4,1,2,12,-3,-7,-3
-6,-6,0,6,-4,-4,1,2,12,-3,-7,-3
-6,-6,0,6,-4,-4,1,3,13,-3,-7,-3
-6,-6,0,6,-4,-4,1,3,14,-3,-7,-3
-6,-6,-1,6,-3,-4,1,4,14,-3,-7,-3
-6,-6,-1,6,-3,-4,1,4,15,-3,-7,-3
-6,-6,0,6,-3,-3,1,4,15,-3,-8,-3
-6,-5,0,6,-3,-3,1,4,15,-3,-8,-3
-6,-5,1,6,-4,-3,2,5,16,-3,-8,-3
-6,-6,0,6,-3,-3,2,6,16,-3,-8,-3
-5,-7,-1,6,-3,-4,3,6,17,-3,-8,-3
-5,-7,-1,6,-2,-5,3,7,17,-3,-8,-3
-5,-7,-1,6,-2,-5,3,7,17,-3,-8,-3
-5,-7,-1,6,-2,-5,3,7,17,-3,-8,-3
-6,-7,-1,7,-2,-5,4,8,17,-3,-7,-3
-6,-7,-1,7,-2,-5,4,8,16,-3,-7,-3
-5,-6,-1,6,-2,-4,5,9,16,-3,-7,-3
-4,-5,-1,6,-2,-4,5,9,16,-3,-7,-3
-4,-5,-1,5,-2,-4,5,9,15,-3,-7,-3
-4,-5,-1,5,-2,-4,5,9,15,-3,-7,-2
-4,-5,-2,5,-1,-4,5,10,15,-3,-6,-2
-4,-5,-1,5,-1,-4,6,10,15,-3,-6,-2
-4,-5,-1,5,-1,-3,6,11,15,-3,-6,-2
-4,-5,-1,5,-1,-3,6,11,15,-3,-6,-2
-4,-5,-1,5,-2,-3,6,12,15,-4,-6,-2
-4,-6,-1,6,-2,-4,6,13,15,-4,-6,-2
-4,-6,-1,6,-2,-4,6,14,15,-4,-6,-2
-4,-6,-1,5,-2,-4,6,14,15,-4,-6,-2
-4,-6,-1,5,-2,-4,5,15,15,-4,-6,-1
-4,-6,-1,5,-2,-4,5,15,15,-4,-6,-1
-4,-6,-1,5,-2,-4,5,15,15,-4,-6,-1
-4,-6,-1,5,-2,-4,4,15,15,-4,-6,0
-4,-5,-1,5,-2,-4,4,16,15,-4,-6,0
-4,-5,-1,5,-1,-3,4,16,15,-4,-7,0
-4,-6,-1,5,-1,-4,4,16,15,-4,-7,0
-4,-6,-2,5,-1,-4,4,17,15,-3,-7,0
-4,-6,-2,5,-1,-4,3,17,15,-3,-7,-1
-4,-6,-1,5,-1,-4,3,17,15,-2,-8,-1
-4,-6,-1,6,-2,-4,3,17,15,-1,-8,-1
-4,-6,-1,6,-2,-4,3,16,15,0,-8,-1
-4,-6,-2,6,-2,-4,3,14,15,0,-8,-1
-4,-6,-2,6,-2,-4,3,12,15,0,-8,-1
-4,-6,-2,6,-2,-4,3,10,15,0,-8,-1
-4,-6,-1,5,-2,-4,3,9,15,0,-8,-1
-4,-5,-1,5,-2,-3,3,7,15,0,-8,-1
-3,-4,0,5,-2,-3,3,6,15,0,-9,-1
-3,-4,0,5,-2,-3,3,5,15,0,-9,-1
-3,-5,0,5,-2,-3,4,5,15,0,-9,-1
-3,-5,-1,5,-1,-3,4,5,15,-1,-9,-1
-3,-5,-1,5,-1,-3,5,5,15,-1,-9,-1
-3,-5,0,5,-2,-2,5,5,15,-1,-9,-1
-3,-4,0,5,-2,-2,5,4,15,-1,-9,-1
-3,-4,0,5,-2,-2,5,4,16,-1,-9,-1
-3,-4,0,5,-2,-2,6,4,16,-1,-9,-1
-3,-4,0,5,-2,-2,6,4,16,-1,-9,-1
-3,-4,0,5,-2,-2,7,4,16,-1,-9,-1
-3,-4,0,5,-2,-2,7,4,16,-1,-9,-1
-3,-4,0,4,-2,-2,7,4,16,-1,-10,-1
-3,-4,0,4,-2,-2,7,4,16,-1,-10,-1
-3,-4,0,4,-2,-2,8,4,16,-1,-10,-1
-3,-4,0,4,-2,-2,8,4,16,-1,-10,-1
-3,-3,0,4,-2,-2,8,3,16,-2,-10,-1
-3,-3,0,4,-2,-2,8,3,16,-2,-10,-1
-3,-3,0,4,-2,-2,8,2,16,-2,-10,-1
-3,-3,0,4,-2,-2,8,2,16,-2,-10,-2
-3,-3,0,4,-2,-2,8,2,16,-2,-10,-2
-3,-3,0,4,-2,-2,7,2,16,-2,-10,-2
-3,-3,0,4,-2,-2,7,2,16,-2,-10,-2
-3,-3,0,4,-2,-1,7,1,16,-2,-10,-2
-3,-3,0,4,-2,-1,7,1,16,-3,-10,-2
-3,-3,0,4,-2,-1,7,1,15,-3,-10,-2
-3,-2,1,4,-2,-1,7,1,15,-3,-10,-2
-3,-2,1,4,-2,-1,7,1,15,-3,-10,-2
-3,-2,1,4,-2,-1,7,1,15,-3,-10,-2
-3,-2,1,4,-3,-1,7,1,15,-3,-10,-2
-3,-2,1,4,-3,-1,7,1,15,-3,-9,-3
-3,-2,1,4,-3,-1,7,1,15,-3,-9,-3
-3,-2,1,4,-3,-1,8,1,15,-3,-9,-3
-3,-2,1,4,-3,-1,8,2,15,-3,-9,-3
-3,-2,1,4,-3,-1,8,2,15,-3,-9,-3
-3,-2,1,4,-3,-1,8,2,15,-3,-9,-3
-3,-2,1,3,-3,-1,8,2,15,-3,-9,-3
-3,-2,1,3,-3,-1,8,2,15,-3,-9,-3
-3,-3,1,3,-2,-1,9,2,15,-3,-8,-3
-3,-3,0,3,-2,-2,9,2,15,-3,-8,-3
-3,-3,0,3,-2,-1,9,2,14,-3,-8,-3
-3,-2,1,3,-2,-1,9,2,14,-4,-8,-2
-3,-2,1,3,-2,-1,8,2,14,-4,-7,-2
-3,-3,0,3,-2,-1,8,2,14,-4,-7,-2
-3,-3,0,3,-2,-2,7,2,14,-4,-7,-1
-3,-3,0,3,-2,-2,7,2,14,-5,-7,-1
-3,-3,0,3,-2,-2,7,2,14,-5,-6,-1
-3,-3,0,3,-2,-2,7,1,14,-5,-6,-1
-3,-3,0,3,-2,-2,7,1,14,-5,-6,-1
-3,-3,0,3,-2,-2,7,1,14,-5,-5,-2
-3,-3,0,3,-2,-2,7,1,14,-5,-5,-3
-3,-3,0,3,-2,-2,7,1,14,-5,-5,-4
-4,-3,1,4,-3,-2,6,0,14,-6,-5,-4
-4,-3,1,4,-3,-2,6,0,14,-6,-5,-5
-4,-3,1,4,-3,-2,5,0,14,-5,-5,-5
-4,-3,1,4,-3,-2,5,0,14,-5,-5,-4
-4,-3,1,4,-3,-2,4,0,14,-4,-5,-4
-4,-3,1,4,-3,-2,4,-1,14,-4,-5,-4
-4,-3,1,4,-2,-2,4,-1,14,-3,-5,-3
-4,-3,0,4,-2,-2,4,-1,14,-3,-5,-3
-4,-3,1,3,-3,-1,4,-1,14,-3,-5,-3
-4,-3,1,3,-3,-1,4,-1,13,-3,-5,-3
-4,-3,1,3,-3,-1,4,-1,13,-3,-5,-3
-3,-3,1,3,-3,-1,4,-1,13,-3,-5,-3
-3,-3,1,3,-3,-1,4,-2,13,-3,-5,-3
-4,-3,1,3,-3,-1,4,-2,13,-3,-5,-3
-4,-3,1,3,-3,-1,5,-2,13,-3,-5,-3
-4,-3,1,3,-3,-1,5,-1,13,-3,-5,-3
-4,-3,1,3,-3,-1,6,-1,13,-3,-5,-3
-4,-3,1,3,-3,-1,6,-1,13,-3,-5,-3
-4,-3,1,3,-3,-1,7,-1,13,-3,-5,-3
-4,-3,1,3,-3,-1,7,-1,13,-3,-5,-3
-4,-3,1,3,-3,-1,7,-1,13,-3,-5,-3
-4,-3,1,3,-3,-1,7,-1,13,-3,-5,-4
-4,-3,1,3,-3,-1,8,-1,13,-3,-5,-4
-4,-3,1,3,-3,-1,8,-1,13,-3,-5,-4
-4,-2,1,3,-3,-1,9,0,13,-3,-5,-4
-4,-1,2,3,-3,0,9,0,13,-3,-5,-4
-4,-1,2,2,-3,0,9,0,13,-3,-5,-5
-3,-1,2,2,-3,0,9,0,13,-3,-5,-5
-3,-1,2,2,-3,0,9,0,14,-3,-5,-5
-3,0,2,2,-3,0,9,1,14,-3,-5,-4
-3,0,2,2,-3,0,9,1,14,-3,-5,-4
-3,0,2,2,-3,0,10,2,14,-3,-5,-4
-3,0,2,1,-3,0,10,2,14,-3,-5,-3
-3,0,3,1,-3,1,10,3,14,-3,-5,-3
-3,0,3,1,-3,2,11,4,15,-2,-5,-3
-3,1,3,1,-3,2,11,5,15,-2,-5,-3
-3,1,3,0,-3,2,12,5,16,-2,-5,-3
-3,1,3,0,-4,2,13,6,16,-2,-5,-2
-3,1,3,1,-4,2,14,6,16,-2,-5,-2
-2,1,3,1,-4,2,15,7,16,-2,-5,-1
-2,2,3,0,-4,2,16,8,16,-2,-5,-1
-2,2,4,0,-4,2,16,8,16,-2,-5,-1
-2,3,4,0,-4,3,16,9,16,-2,-5,-1
-1,3,4,0,-3,3,16,9,17,-2,-5,-2
-1,3,4,-1,-3,3,17,10,17,-2,-5,-2
-1,2,3,-1,-2,2,17,12,18,-2,-5,-2
0,2,2,-1,-2,2,18,13,18,-1,-4,-2
0,2,2,-1,-1,1,18,13,18,-1,-4,-2
0,2,1,-1,-1,1,18,14,18,-1,-4,-2
0,2,1,-1,-1,1,18,14,19,-1,-4,-2
0,2,2,-1,-1,1,18,15,19,-1,-4,-1
0,2,2,-1,-1,1,18,15,19,-1,-4,-1
0,3,2,-1,-1,2,17,16,19,-1,-4,0
0,3,2,-2,-1,2,16,16,19,-1,-4,0
0,4,2,-2,-1,2,15,15,18,-1,-4,0
0,4,2,-2,-1,2,14,14,18,-1,-4,0
0,4,2,-2,-1,2,14,13,17,-1,-4,0
0,4,2,-2,-1,2,13,11,17,-1,-4,0
0,3,2,-2,-1,2,13,10,16,-1,-4,0
0,3,1,-1,-1,1,13,9,16,-1,-4,0
0,2,1,-1,0,1,13,8,15,-1,-4,0
0,2,1,-1,0,2,13,8,15,-1,-4,1
0,3,2,-2,-1,2,13,7,14,-1,-4,1
0,4,2,-2,-1,3,13,7,14,-1,-4,2
1,4,2,-2,-1,3,13,7,14,-1,-4,2
1,4,2,-2,-1,2,13,7,14,-1,-4,2
1,3,1,-2,-1,2,13,6,13,-2,-5,2
1,3,1,-2,-1,2,13,6,12,-3,-5,1
1,3,1,-2,-1,2,13,5,11,-3,-5,1
1,3,1,-2,0,2,13,5,11,-3,-5,0
1,2,0,-1,0,1,13,5,10,-3,-5,0
0,2,0,-1,0,1,13,5,10,-4,-5,0
0,2,0,-1,0,0,13,5,10,-4,-5,-1
0,1,0,0,0,0,13,5,10,-4,-6,-1
0,0,0,0,0,0,13,6,10,-4,-6,-2
0,0,0,0,0,0,13,6,10,-4,-6,-2
0,0,0,1,0,-1,13,7,10,-4,-6,-2
-1,-1,0,1,0,-1,13,8,11,-4,-7,-2
-1,-1,0,2,-1,-1,14,8,11,-4,-7,-2
-2,-2,0,2,-1,-1,14,9,11,-4,-7,-3
-3,-2,0,3,-2,-1,15,9,11,-4,-7,-3
-3,-2,0,3,-2,-1,16,9,11,-4,-7,-4
-3,-3,0,3,-2,-2,16,9,11,-4,-8,-4
-3,-3,0,3,-2,-2,16,9,11,-4,-8,-4
-3,-3,0,3,-2,-2,16,9,11,-4,-8,-4
-3,-3,0,3,-2,-2,16,9,11,-4,-8,-3
-3,-3,0,3,-2,-2,16,9,11,-4,-8,-3
-4,-3,0,3,-2,-2,16,9,11,-4,-8,-3
-4,-4,0,3,-2,-3,16,9,11,-4,-8,-3
-4,-4,0,3,-2,-3,16,9,11,-4,-8,-3
-4,-4,0,3,-2,-3,16,9,11,-4,-8,-3
-4,-4,0,4,-2,-3,16,9,11,-5,-8,-4
-4,-4,0,4,-2,-3,16,9,11,-6,-8,-4
-4,-4,0,5,-2,-3,16,9,11,-6,-8,-4
-4,-4,0,4,-2,-2,16,8,11,-6,-8,-5
-4,-3,0,4,-2,-2,16,8,11,-6,-9,-5
-4,-3,0,4,-3,-2,16,7,11,-7,-9,-5
-4,-3,0,4,-3,-2,16,7,11,-7,-9,-5
-4,-4,0,4,-2,-2,16,7,11,-7,-9,-5
-3,-4,0,4,-2,-2,16,7,11,-7,-8,-4
-3,-3,0,4,-2,-2,16,6,11,-7,-8,-4
-4,-3,0,4,-2,-2,16,6,11,-7,-8,-4
-4,-3,0,4,-2,-2,15,6,10,-7,-8,-4
-4,-4,0,4,-2,-2,15,6,10,-7,-8,-4
-4,-4,-1,4,-2,-2,15,6,10,-7,-8,-3
-4,-4,-1,4,-2,-2,14,5,10,-7,-8,-3
-4,-4,0,4,-2,-2,14,3,9,-7,-9,-3
-4,-4,0,4,-2,-2,13,1,8,-7,-9,-3
-4,-3,0,4,-3,-2,13,-1,7,-7,-9,-4
-4,-3,0,4,-3,-2,13,-2,7,-6,-9,-4
-4,-4,0,4,-2,-2,12,-3,6,-6,-9,-4
-4,-5,0,4,-2,-3,12,-4,6,-5,-9,-4
-4,-5,-1,4,-2,-3,11,-4,6,-5,-9,-4
-4,-5,-1,4,-2,-3,11,-5,6,-5,-9,-4
-4,-4,-1,4,-2,-3,11,-5,5,-5,-9,-4
-4,-4,0,4,-2,-2,11,-6,5,-5,-9,-4
-4,-4,0,4,-2,-2,11,-6,4,-5,-9,-4
-4,-4,0,4,-2,-2,10,-6,4,-5,-9,-4
-4,-4,0,4,-2,-2,10,-6,3,-5,-9,-4
-4,-4,0,4,-2,-2,9,-6,3,-5,-9,-4
-4,-4,0,4,-2,-3,9,-6,3,-5,-9,-4
-4,-4,0,4,-2,-3,9,-6,3,-5,-9,-5
-4,-4,0,4,-2,-2,9,-6,3,-5,-10,-5
-4,-4,0,4,-2,-2,8,-6,3,-5,-10,-6
-4,-4,0,4,-2,-2,8,-5,3,-5,-10,-6
-4,-4,0,4,-2,-3,8,-5,3,-5,-11,-6
-4,-5,0,4,-2,-3,8,-5,3,-5,-11,-6
-4,-5,0,4,-2,-3,8,-4,3,-5,-11,-6
-4,-5,0,4,-2,-3,8,-4,3,-5,-11,-6
-5,-5,0,4,-2,-3,7,-4,3,-5,-11,-6
-5,-5,0,4,-2,-3,7,-4,2,-5,-11,-6
-5,-5,0,4,-2,-3,7,-3,2,-5,-11,-7
-5,-5,0,4,-2,-3,6,-3,2,-5,-11,-8
-4,-5,-1,4,-1,-3,6,-3,2,-5,-12,-9
-3,-5,-2,3,0,-4,6,-2,2,-5,-13,-10
-1,-5,-4,3,1,-5,6,-1,3,-5,-14,-12
0,-5,-6,2,3,-6,6,1,4,-4,-15,-13
2,-5,-8,1,5,-7,5,4,7,-2,-15,-14
4,-5,-10,0,7,-8,5,9,12,0,-15,-15
6,-6,-12,-1,10,-9,5,15,18,4,-15,-15
9,-6,-16,-2,13,-11,5,22,24,9,-14,-15
13,-6,-19,-4,16,-13,5,25,29,14,-13,-15
17,-4,-21,-7,19,-13,4,23,32,19,-10,-13
21,0,-22,-11,21,-11,3,16,33,26,-5,-10
24,4,-20,-15,22,-8,1,4,34,34,1,-4
27,10,-18,-19,23,-4,-1,-10,33,43,9,2
30,16,-14,-24,23,0,-4,-25,32,53,17,9
32,23,-9,-28,22,6,-8,-40,29,61,26,16
33,30,-4,-33,20,13,-12,-57,21,67,35,24
34,37,2,-37,16,20,-15,-77,8,69,44,31
34,44,10,-40,12,27,-20,-99,-10,68,52,39
32,50,18,-42,6,34,-24,-120,-32,61,58,45
26,53,27,-41,0,40,-26,-136,-53,47,60,49
17,54,37,-36,-9,45,-28,-146,-71,30,58,50
4,51,46,-29,-20,49,-27,-150,-85,11,51,48
-9,47,55,-19,-32,51,-24,-151,-96,-7,41,44
-22,41,62,-10,-42,51,-20,-150,-103,-25,30,38
-33,35,67,-1,-50,51,-15,-149,-109,-41,20,32
-40,30,69,4,-55,50,-11,-147,-113,-53,11,26
-43,24,67,9,-56,46,-8,-145,-115,-63,3,19
-44,18,62,12,-54,40,-7,-142,-116,-70,-3,13
-44,13,56,14,-51,34,-7,-137,-114,-72,-9,7
-42,8,49,15,-46,28,-8,-130,-109,-72,-13,2
-39,4,42,16,-41,23,-9,-122,-103,-69,-16,-2
-36,1,36,16,-36,18,-10,-112,-95,-66,-18,-5
-33,-1,30,16,-31,14,-11,-102,-87,-61,-19,-7
-30,-3,25,16,-27,11,-10,-91,-79,-56,-20,-8
-27,-4,21,15,-24,9,-9,-79,-71,-50,-20,-9
-23,-5,18,14,-21,7,-8,-67,-62,-43,-20,-9
-20,-4,16,12,-18,6,-6,-56,-54,-37,-19,-9
-18,-4,14,10,-16,5,-5,-46,-47,-32,-18,-9
-16,-4,12,9,-14,4,-3,-37,-39,-28,-18,-9
-14,-4,10,8,-12,3,-2,-30,-33,-25,-17,-8
-13,-4,8,7,-10,2,-2,-23,-27,-22,-17,-9
-11,-4,6,7,-9,2,-1,-18,-21,-19,-17,-9
-9,-5,4,7,-7,1,0,-12,-16,-16,-17,-9
-8,-6,2,6,-6,0,0,-7,-12,-12,-17,-9
-6,-6,1,6,-5,-1,1,-4,-8,-9,-16,-10
-6,-6,1,5,-4,-2,2,-1,-5,-8,-16,-10
-5,-6,0,4,-3,-2,3,0,-3,-7,-15,-10
-5,-5,0,4,-3,-2,3,1,-2,-6,-15,-9
-5,-5,0,4,-2,-2,4,2,0,-6,-15,-9
-5,-4,0,4,-2,-2,4,2,0,-5,-15,-8
-5,-4,0,4,-2,-1,4,3,1,-5,-15,-8
-5,-4,0,4,-2,-1,4,4,1,-4,-15,-8
-4,-4,0,4,-2,-1,4,5,1,-4,-14,-7
-4,-4,0,3,-2,-1,4,5,1,-3,-14,-7
-3,-3,0,2,-2,-1,4,6,1,-3,-13,-7
-3,-3,0,2,-2,-1,4,6,1,-3,-13,-7
-4,-2,0,2,-2,-1,4,6,0,-3,-12,-7
-4,-2,0,2,-2,-1,4,6,-1,-2,-12,-7
-4,-3,0,2,-2,-1,4,6,-1,-2,-12,-7
-4,-3,0,2,-2,-1,4,7,-2,-2,-12,-6
-4,-2,0,2,-2,-1,3,7,-3,-2,-12,-6
-4,-2,1,2,-2,0,3,7,-4,-2,-12,-6
-4,-2,1,2,-2,0,3,7,-4,-2,-12,-6
-4,-2,0,2,-2,-1,2,8,-5,-2,-12,-6
-4,-2,0,2,-2,-1,2,8,-5,-2,-13,-5
-4,-2,0,2,-2,-1,2,8,-5,-2,-13,-5
-4,-2,0,2,-2,-1,2,9,-5,-2,-13,-5
-4,-3,0,2,-1,-2,2,9,-4,-2,-13,-5
-4,-4,0,2,-1,-2,1,10,-4,-2,-13,-6
-4,-3,0,2,-2,-1,1,10,-4,-3,-14,-6
-4,-3,0,2,-2,-1,1,10,-3,-3,-14,-7
-4,-3,0,2,-2,-1,1,10,-3,-4,-14,-7
-4,-3,0,2,-2,-1,1,10,-3,-4,-14,-7
-4,-3,0,2,-2,-1,1,10,-2,-4,-14,-7
-4,-2,0,2,-2,-1,1,10,-1,-4,-14,-7
-3,-2,0,1,-2,0,2,10,-1,-4,-14,-7
-3,-1,0,1,-2,0,2,10,0,-4,-14,-7
-3,-1,1,1,-2,0,2,10,0,-3,-14,-7
-3,-1,1,1,-1,0,2,10,0,-3,-13,-7
-3,-2,0,1,-1,0,2,11,1,-2,-13,-7
-3,-2,1,1,-1,0,2,11,2,-2,-12,-7
-3,-1,1,1,-1,0,2,11,2,-2,-12,-7
-3,-1,1,1,-1,0,2,11,2,-2,-11,-6
-3,-1,1,1,-2,0,2,11,2,-2,-11,-6
-3,-1,1,1,-2,0,2,11,2,-2,-10,-6
-3,-1,1,1,-2,0,2,11,2,-2,-10,-6
-3,-1,0,1,-2,0,2,11,2,-2,-9,-5
-3,-1,0,1,-2,0,2,11,2,-2,-9,-5
-3,-1,1,1,-2,0,2,11,2,-2,-8,-5
-2,0,1,0,-2,0,1,11,2,-2,-8,-5
-2,0,1,0,-2,1,1,11,2,-2,-7,-5
-2,0,1,0,-1,1,1,11,2,-1,-7,-5
-1,0,1,0,-1,1,1,11,2,-1,-6,-6
-1,0,1,0,-1,1,1,11,2,-1,-6,-6
-1,0,1,0,-1,1,1,11,2,-1,-5,-6
-1,0,1,0,-1,1,0,11,1,0,-5,-6
-2,0,1,0,-1,1,0,11,1,0,-4,-5
-2,0,1,0,-1,1,0,11,1,0,-4,-5
-2,0,1,0,-1,1,0,11,1,0,-4,-5
-2,0,1,0,-1,1,-1,11,1,0,-4,-5
-2,0,2,0,-1,1,-1,11,0,0,-3,-5
-2,0,2,0,-2,1,-2,11,0,0,-3,-5
-2,0,2,1,-2,1,-2,11,0,0,-3,-5
-2,0,1,1,-2,0,-2,12,0,0,-3,-5
-2,0,1,1,-2,0,-2,11,0,0,-3,-5
-2,0,1,1,-2,0,-3,11,0,0,-3,-5
-2,0,1,1,-2,0,-3,11,0,0,-3,-5
-2,0,1,1,-1,0,-3,11,0,1,-3,-5
-2,0,1,0,-1,0,-4,10,0,1,-3,-4
-2,0,1,0,-1,1,-4,10,0,2,-3,-3
-2,0,1,0,-1,1,-5,10,0,2,-3,-2
-2,0,1,0,-1,0,-5,10,0,3,-3,-2
-2,0,1,0,-1,0,-5,10,0,3,-3,-1
-2,0,1,0,-1,0,-5,10,1,3,-3,-1
-2,0,0,0,-1,0,-5,10,1,3,-3,-1
-1,0,0,0,-1,0,-5,10,2,4,-2,-1
-1,0,0,0,-1,0,-5,10,2,4,-2,-1
-1,0,0,0,0,0,-5,10,2,5,-2,-2
0,0,0,0,0,0,-5,10,3,5,-1,-2
0,0,0,-1,0,0,-5,10,3,6,-1,-2
1,1,0,-1,0,0,-5,11,4,6,0,-2
1,2,0,-2,0,1,-5,11,4,6,0,-2
1,2,0,-2,0,1,-5,12,5,6,0,-2
2,2,0,-2,1,1,-5,13,5,7,0,-2
2,2,-1,-2,2,1,-5,14,6,7,1,-1
2,3,-1,-3,2,1,-5,14,7,8,2,-1
3,3,-1,-4,3,1,-5,15,7,8,2,0
4,4,-1,-5,3,1,-6,15,8,8,3,0
5,4,-1,-6,3,1,-6,16,9,8,4,0
6,5,0,-7,3,2,-7,16,9,9,4,1
6,6,0,-7,3,2,-8,17,10,9,5,1
7,6,-1,-8,4,2,-8,17,10,10,6,2
7,7,-1,-8,4,2,-9,18,11,11,7,2
8,7,-1,-8,5,3,-9,18,12,12,8,3
9,8,-1,-9,5,3,-10,18,13,13,9,4
10,9,-2,-10,6,3,-10,18,14,14,10,5
11,9,-2,-11,6,3,-10,18,14,15,11,6
12,10,-2,-12,7,4,-11,19,15,17,12,7
13,11,-2,-13,7,4,-11,19,15,19,13,8
13,12,-2,-14,7,5,-11,19,16,20,14,9
14,13,-1,-14,7,6,-11,19,17,21,14,10
14,14,-1,-15,7,7,-12,19,17,22,15,10
15,15,0,-16,8,7,-12,19,18,22,16,11
15,15,0,-16,8,7,-12,19,18,23,17,11
16,15,0,-16,8,7,-12,19,19,23,18,12
16,15,0,-16,8,7,-12,19,19,23,18,12
16,16,0,-16,8,7,-12,18,18,23,19,12
16,16,0,-17,8,8,-12,18,18,24,20,13
16,17,0,-17,8,8,-12,18,18,24,20,13
16,17,0,-17,8,8,-13,18,18,24,21,14
16,18,1,-17,8,9,-13,18,18,24,21,14
16,18,1,-17,8,9,-14,18,17,25,22,15
16,18,1,-17,8,10,-14,18,17,25,22,15
16,18,1,-17,8,10,-14,19,16,25,22,15
16,18,2,-17,7,10,-14,19,16,25,23,16
15,18,2,-17,7,10,-14,19,16,25,23,16
15,18,2,-17,6,10,-14,19,16,25,23,16
14,18,2,-17,6,10,-14,20,16,25,23,16
14,18,3,-17,6,10,-13,20,16,24,23,16
13,17,3,-16,5,10,-13,20,16,24,23,16
12,17,4,-16,4,10,-13,20,15,23,22,16
11,17,4,-15,3,10,-13,19,15,22,22,15
10,16,4,-14,3,9,-13,19,14,21,21,15
10,14,3,-13,3,8,-12,19,14,21,21,14
9,13,3,-12,3,7,-11,19,13,20,20,14
8,13,3,-11,2,7,-10,19,13,19,19,13
8,12,3,-11,2,7,-9,19,12,18,19,12
7,12,3,-10,2,7,-9,19,12,17,18,11
6,11,3,-9,2,6,-9,18,11,16,17,9
5,9,3,-8,1,5,-9,17,10,15,16,8
4,8,2,-6,1,5,-8,14,9,14,15,7
3,6,2,-5,1,4,-8,12,8,13,14,6
3,6,2,-5,0,4,-8,10,7,12,13,5
3,5,1,-4,0,3,-8,8,7,11,12,5
2,4,1,-4,0,2,-8,6,6,10,11,4
1,3,1,-3,0,2,-7,5,6,9,11,4
1,2,1,-3,0,1,-6,4,5,8,10,3
0,2,0,-2,0,1,-5,3,4,7,10,3
0,1,0,-2,0,1,-5,2,3,6,9,3
0,1,0,-1,0,0,-5,1,2,5,8,2
0,0,0,0,0,0,-5,0,2,4,8,2
-1,-1,0,0,0,-1,-5,0,1,3,7,2
-1,-2,-1,1,0,-2,-4,0,1,3,7,2
-2,-3,-1,1,0,-2,-4,-1,1,2,7,2
-2,-3,-1,2,0,-2,-4,-1,0,2,6,2
-2,-3,-2,2,0,-3,-3,-1,0,1,6,2
-2,-4,-3,3,1,-4,-3,-1,0,1,5,2
-2,-4,-3,3,1,-4,-2,-1,0,0,4,2
-2,-5,-3,3,1,-4,-2,-1,0,0,4,2
-2,-5,-3,3,1,-4,-2,-1,0,0,3,2
-2,-6,-3,3,1,-5,-2,-1,0,-1,3,2
-3,-6,-4,4,1,-5,-3,-1,0,-1,3,2
-3,-7,-4,4,1,-6,-3,-1,0,0,3,1
-3,-7,-4,4,1,-6,-3,0,0,0,3,1
-3,-7,-4,4,1,-6,-3,0,0,0,2,1
-3,-7,-4,5,1,-6,-3,0,0,1,2,1
-4,-8,-4,5,1,-6,-3,0,0,1,2,0
-4,-8,-4,5,1,-6,-3,0,0,0,2,0
-4,-8,-4,5,1,-6,-3,0,0,0,2,0
-4,-8,-5,6,1,-7,-3,1,1,0,3,0
-4,-9,-5,6,1,-8,-2,1,1,0,3,0
-4,-9,-5,6,1,-8,-2,1,0,0,3,0
-4,-9,-5,6,1,-8,-2,1,0,0,3,0
-4,-9,-5,6,1,-8,-2,1,0,0,3,0
-4,-9,-5,6,1,-8,-2,1,0,0,3,0
-4,-9,-5,6,1,-8,-2,1,0,0,3,0
-4,-9,-5,6,1,-8,-2,1,0,0,3,0
-4,-9,-5,6,1,-8,-2,2,0,0,4,1
-4,-9,-5,6,1,-8,-2,2,0,0,4,1
-4,-9,-5,6,1,-8,-2,2,0,0,4,1
-5,-10,-5,7,0,-8,-2,2,0,0,3,2
-5,-10,-5,7,0,-8,-2,2,0,0,3,2
-5,-10,-5,7,0,-8,-2,2,0,0,3,2
-5,-10,-5,7,0,-8,-2,2,-1,0,3,2
-5,-9,-5,7,0,-8,-1,2,-1,0,3,1
-5,-9,-5,7,1,-8,-1,2,-1,0,3,1
-4,-9,-5,6,1,-8,-1,2,-1,0,3,1
-3,-9,-6,6,2,-8,-1,2,-1,0,3,1
-3,-9,-6,6,2,-8,-1,3,-1,0,3,1
-3,-9,-6,6,2,-9,-1,3,-1,0,3,1
-3,-10,-7,6,2,-9,-1,3,-1,0,3,1
-3,-10,-7,6,2,-9,-1,3,-1,0,3,1
-4,-10,-7,7,2,-9,-1,3,-1,0,3,1
-4,-10,-7,7,2,-9,-1,3,-1,0,3,1
-4,-10,-8,7,2,-9,-1,3,-1,0,3,1
-4,-10,-8,7,2,-9,-1,3,0,0,2,1
-4,-10,-8,7,2,-9,-1,3,0,0,2,1
-4,-10,-8,7,2,-9,0,3,0,0,2,1
-4,-10,-8,7,2,-9,0,4,0,0,2,1
-4,-11,-8,7,2,-9,1,4,0,0,2,1
-4,-11,-8,7,2,-9,1,4,1,0,1,1
-4,-10,-8,6,2,-9,1,4,2,0,1,1
-3,-10,-7,6,2,-9,1,4,2,0,0,1
-3,-10,-8,6,3,-9,1,4,3,0,0,2
-3,-11,-8,7,3,-10,2,5,3,0,0,2
-3,-11,-8,7,3,-11,2,5,3,0,0,2
-3,-11,-8,7,3,-11,2,5,3,0,0,2
-3,-12,-9,7,3,-11,2,5,3,0,0,3
-3,-12,-10,8,4,-12,2,6,3,0,0,3
-3,-12,-10,8,4,-12,2,6,3,0,0,3
-3,-12,-10,8,4,-12,2,6,3,0,0,3
-3,-12,-10,8,4,-12,2,6,3,1,0,3
-3,-12,-10,8,4,-12,2,6,3,1,0,2
-2,-12,-10,8,4,-12,2,6,3,1,0,2
-2,-12,-10,8,4,-12,2,6,2,2,0,2
-2,-12,-10,8,4,-11,2,7,2,2,0,2
-2,-12,-10,8,4,-11,2,7,2,2,0,2
-2,-12,-10,7,5,-11,2,7,2,2,0,2
-2,-12,-10,7,5,-11,1,7,2,2,0,2
-3,-12,-9,7,4,-11,1,7,2,2,0,2
-3,-12,-9,7,4,-12,1,7,3,2,0,2
-3,-12,-9,7,4,-12,1,7,3,2,0,2
-3,-12,-9,7,4,-11,1,8,3,2,0,2
-3,-12,-9,7,4,-11,1,8,3,2,0,2
-3,-12,-9,7,4,-11,1,8,3,2,0,2
-2,-12,-9,7,4,-11,1,8,3,2,0,3
-2,-12,-9,7,4,-11,1,8,3,2,0,3
-1,-12,-10,6,4,-11,1,9,3,3,0,4
-1,-12,-10,6,4,-11,1,9,3,3,0,4
-1,-12,-10,7,4,-11,1,9,3,3,0,4
-2,-12,-10,7,4,-11,1,9,2,3,0,4
-2,-12,-9,7,4,-11,1,9,2,3,0,4
-2,-12,-9,7,5,-11,1,9,2,4,0,4
-2,-12,-10,7,5,-11,2,9,2,4,0,3
-2,-12,-10,7,5,-11,2,9,1,4,0,3
-2,-12,-10,7,5,-11,3,9,1,4,0,2
-2,-12,-10,7,5,-11,3,9,1,4,0,2
-2,-12,-9,7,4,-11,3,9,1,4,0,1
-2,-11,-9,7,4,-11,2,9,1,4,0,1
-2,-11,-9,7,4,-11,2,10,1,4,0,1
-2,-11,-9,7,4,-11,2,10,1,4,0,1
-2,-11,-9,7,4,-11,2,10,1,4,0,1
-2,-11,-9,6,4,-10,2,10,1,4,0,2
-2,-10,-9,6,4,-10,2,10,1,5,0,2
-2,-10,-9,6,4,-9,2,10,1,5,-1,2
-2,-10,-9,6,4,-9,2,10,1,5,-1,2
-2,-10,-9,6,4,-9,2,10,1,5,-1,2
-2,-10,-8,6,4,-9,2,10,1,5,-1,2
-1,-9,-8,5,4,-8,1,9,1,5,-1,2
-1,-9,-8,5,4,-8,1,9,1,5,-1,2
-1,-9,-8,5,4,-8,1,9,1,5,-1,2
-1,-9,-7,5,3,-8,0,9,1,5,-1,2
-2,-9,-7,5,3,-8,0,9,1,4,-1,2
-2,-9,-7,5,3,-8,-1,9,1,4,-1,2
-2,-8,-6,5,3,-7,-1,9,0,3,-1,2
-2,-8,-6,5,3,-7,-2,9,0,3,-1,2
-2,-8,-6,5,3,-7,-2,9,0,3,-1,2
-2,-8,-6,5,3,-7,-3,9,0,2,-1,2
-2,-8,-6,5,3,-7,-3,9,0,2,-1,2
-1,-8,-6,5,3,-7,-4,9,0,2,-1,1
-1,-8,-7,5,3,-7,-4,9,0,2,-1,1
-1,-8,-7,5,3,-7,-4,10,0,1,-1,1
-1,-8,-7,5,3,-7,-4,10,0,1,-1,1
-1,-8,-6,5,3,-7,-4,10,0,1,-1,1
-1,-8,-6,5,3,-7,-4,10,0,1,-1,1
-1,-8,-6,5,3,-7,-4,10,0,1,-1,1
-1,-8,-6,5,3,-7,-4,10,0,0,-1,1
-1,-8,-6,5,3,-7,-4,10,0,0,-2,1
-1,-8,-6,5,3,-7,-4,10,0,0,-2,1
-1,-8,-6,5,3,-7,-4,10,-1,0,-2,1
-1,-8,-6,5,3,-8,-4,11,-1,0,-2,1
-1,-8,-6,5,3,-8,-4,11,-1,0,-2,1
-1,-8,-6,5,3,-8,-3,11,-1,-1,-2,0
-1,-8,-6,5,3,-8,-3,12,-1,-1,-2,0
-1,-8,-6,5,3,-7,-3,12,-1,-1,-2,0
-1,-8,-6,5,3,-7,-3,13,-1,-1,-2,0
-1,-7,-6,4,3,-7,-3,13,-1,-1,-2,1
-1,-7,-6,4,3,-6,-3,13,-2,-2,-2,1
-1,-7,-5,4,3,-6,-3,13,-2,-2,-2,1
-1,-7,-6,5,3,-6,-3,13,-2,-2,-2,1
-1,-8,-6,5,3,-6,-2,13,-2,-2,-1,1
-1,-8,-6,5,3,-6,-2,13,-2,-2,-1,2
-1,-7,-6,4,3,-6,-2,13,-2,-2,-1,2
-1,-7,-6,4,3,-6,-2,13,-2,-3,-1,1
-1,-7,-6,4,3,-6,-2,13,-2,-3,-1,1
-1,-7,-6,5,3,-6,-2,13,-2,-3,-1,1
-1,-7,-6,5,3,-6,-2,14,-2,-3,-1,1
0,-7,-6,4,3,-6,-2,14,-2,-4,-1,0
0,-7,-6,4,3,-6,-2,14,-2,-4,-1,0
0,-7,-6,4,3,-6,-2,14,-2,-4,-1,0
0,-7,-6,4,3,-6,-2,14,-2,-4,-1,0
0,-7,-6,4,3,-6,-2,15,-3,-5,-1,0
-1,-8,-6,5,3,-7,-2,15,-3,-5,-1,0
-1,-8,-7,5,3,-7,-2,15,-3,-5,-1,0
-1,-8,-7,5,3,-7,-2,15,-3,-5,-1,0
-1,-8,-7,5,4,-7,-1,15,-3,-5,-1,0
-1,-8,-7,5,4,-7,-1,15,-3,-4,-1,0
-1,-8,-7,5,4,-7,-1,15,-3,-4,-1,0
-1,-9,-7,5,4,-7,-1,15,-3,-3,-1,0
-1,-9,-7,5,4,-7,-1,15,-3,-3,-1,0
-1,-8,-7,5,4,-7,-1,15,-4,-2,-1,0
-1,-8,-6,5,4,-7,-1,14,-4,-2,-1,0
-1,-7,-6,5,4,-7,-1,14,-4,-2,-1,0
-1,-7,-6,5,4,-7,-1,13,-4,-2,-2,0
-1,-7,-6,4,4,-7,-1,12,-5,-2,-2,0
0,-7,-6,4,4,-6,-1,11,-5,-2,-2,0
0,-6,-6,4,4,-6,-1,11,-5,-3,-2,0
0,-7,-6,4,4,-6,-1,10,-5,-3,-2,0
0,-7,-6,4,4,-6,-1,10,-5,-3,-2,0
0,-7,-6,4,3,-6,-1,9,-5,-3,-2,0
0,-7,-6,4,3,-6,-2,9,-5,-3,-2,0
0,-6,-5,4,3,-5,-2,8,-5,-3,-2,0
0,-6,-5,4,3,-6,-2,6,-5,-3,-2,-1
-1,-7,-6,4,3,-6,-1,4,-5,-3,-2,-1
-1,-7,-6,4,3,-6,-1,2,-6,-3,-2,-1
0,-6,-5,4,3,-6,-1,0,-6,-4,-2,-1
0,-6,-5,4,3,-5,-1,-2,-6,-4,-2,-1
0,-6,-5,4,3,-5,-1,-3,-6,-4,-2,-1
0,-6,-5,4,3,-5,-1,-4,-6,-4,-1,-1
0,-6,-5,4,3,-5,-1,-4,-6,-5,-1,-1
0,-5,-5,3,3,-5,-2,-5,-6,-5,-1,-1
0,-5,-5,3,3,-4,-2,-5,-6,-5,-1,-1
0,-5,-5,3,3,-4,-2,-5,-6,-5,-1,-1
0,-5,-5,3,3,-4,-2,-5,-6,-5,-1,0
0,-4,-5,3,3,-4,-2,-4,-6,-5,-1,0
0,-3,-4,2,2,-3,-1,-4,-6,-5,-1,1
0,-3,-3,2,2,-3,0,-3,-6,-5,0,1
0,-2,-3,2,2,-2,0,-2,-5,-5,0,1
0,-2,-3,2,2,-2,1,-1,-5,-5,0,1
0,-2,-2,2,1,-2,3,0,-5,-5,0,1
0,-2,-2,1,1,-2,4,0,-5,-5,0,1
0,-2,-2,1,1,-2,4,0,-5,-4,0,1
0,-2,-2,1,1,-2,5,1,-5,-4,0,1
0,-2,-2,1,1,-2,6,2,-5,-4,0,0
1,-2,-2,1,2,-2,7,3,-5,-4,0,0
1,-2,-3,1,2,-2,8,4,-5,-3,0,0
1,-1,-3,1,3,-2,8,5,-4,-2,0,0
2,-1,-3,0,3,-2,9,6,-4,-1,1,0
3,0,-3,0,4,-2,9,7,-4,-1,1,0
3,0,-4,0,4,-2,10,8,-3,0,1,1
3,0,-4,0,4,-2,10,8,-3,0,1,1
3,0,-4,-1,4,-2,10,9,-3,0,1,1
4,0,-4,-1,4,-1,10,9,-3,0,1,2
4,1,-3,-2,4,-1,10,10,-2,1,2,2
4,1,-3,-2,4,-1,10,11,-2,1,2,2
4,1,-2,-2,4,-1,9,11,-2,1,2,2
4,1,-2,-2,4,-1,9,10,-3,2,2,2
4,1,-3,-2,4,-1,8,9,-3,2,2,2
4,1,-3,-2,4,-1,7,8,-3,2,2,2
4,1,-3,-2,4,-1,6,7,-4,1,2,2
5,1,-3,-2,4,-1,6,6,-5,1,2,2
5,1,-3,-2,4,-1,5,5,-6,0,2,2
5,1,-3,-2,4,-1,5,4,-7,0,2,2
5,1,-3,-2,5,-1,5,4,-8,0,2,2
5,1,-3,-2,5,-1,5,3,-9,-1,2,2
5,1,-3,-2,5,-1,5,3,-9,-1,2,2
4,1,-2,-2,4,0,6,3,-10,-2,2,2
4,2,-2,-2,4,0,6,3,-11,-2,2,1
4,2,-2,-2,4,0,5,2,-12,-3,2,0
4,1,-3,-1,4,-1,5,2,-13,-3,2,0
4,0,-4,-1,4,-2,4,2,-13,-4,2,0
4,0,-4,-1,4,-1,4,2,-14,-4,1,0
4,0,-4,-1,4,-1,3,1,-14,-4,1,0
4,0,-4,-1,5,-2,3,1,-14,-3,1,0
4,-1,-5,-1,5,-3,3,1,-15,-3,1,0
4,-2,-6,0,6,-4,2,1,-15,-2,1,0
4,-3,-6,0,6,-4,2,1,-16,-2,1,-1
3,-3,-6,0,6,-5,2,2,-16,-2,1,-1
3,-4,-6,1,5,-5,3,3,-16,-2,0,-1
2,-4,-6,1,4,-4,3,3,-16,-2,0,-2
2,-5,-6,2,4,-4,3,4,-16,-2,0,-2
2,-5,-6,2,4,-4,3,5,-16,-2,0,-2
2,-5,-6,2,4,-4,4,6,-16,-2,0,-2
1,-5,-6,2,4,-5,5,6,-16,-2,0,-2
1,-6,-6,3,4,-5,6,7,-16,-2,0,-2
1,-6,-5,3,4,-5,7,7,-17,-3,0,-2
1,-6,-5,3,4,-5,7,7,-17,-3,0,-2
1,-6,-5,3,4,-6,7,7,-17,-3,0,-1
0,-6,-5,3,4,-6,7,7,-17,-3,0,-1
0,-6,-5,3,4,-6,8,7,-18,-3,0,-1
0,-6,-5,3,4,-6,8,7,-18,-3,0,-1
0,-6,-5,3,4,-6,8,7,-18,-4,0,-1
0,-6,-6,3,4,-6,8,7,-18,-4,0,-1
0,-5,-6,3,4,-5,8,7,-18,-4,0,-1
0,-5,-5,3,4,-5,8,7,-18,-4,0,-1
0,-5,-5,3,4,-5,8,7,-18,-4,0,-1
0,-6,-6,4,4,-6,8,7,-18,-4,0,-1
0,-7,-6,4,4,-6,8,7,-18,-4,0,-1
0,-7,-6,4,4,-6,8,7,-18,-4,0,-1
0,-7,-6,4,4,-6,8,6,-19,-4,0,-1
0,-7,-6,4,3,-6,8,6,-19,-4,0,-1
0,-6,-5,4,3,-5,9,5,-19,-4,0,-1
0,-6,-5,3,3,-5,10,5,-19,-4,0,-1
0,-5,-5,3,4,-5,10,5,-19,-4,0,-1
0,-5,-5,3,4,-5,10,4,-20,-4,0,-1
0,-5,-5,3,3,-5,10,4,-20,-4,0,-1
0,-6,-5,3,3,-5,10,4,-21,-4,0,-1
0,-6,-6,3,3,-5,10,4,-21,-4,0,0
0,-6,-6,3,3,-5,10,4,-22,-4,1,0
0,-6,-6,3,4,-5,10,4,-22,-4,1,0
0,-6,-6,3,4,-5,10,4,-22,-4,1,0
0,-6,-5,3,3,-5,10,4,-23,-4,1,0
0,-6,-5,4,3,-5,11,4,-23,-4,1,0
0,-6,-5,4,3,-5,11,4,-24,-5,1,0
0,-6,-5,4,3,-5,11,4,-24,-5,1,0
0,-6,-5,4,3,-5,11,4,-25,-5,1,0
0,-6,-5,4,3,-5,10,4,-25,-5,1,-1
0,-6,-5,4,3,-5,10,4,-25,-5,1,-2
0,-6,-5,4,3,-6,10,4,-25,-5,1,-2
0,-6,-5,4,3,-6,10,5,-25,-5,0,-3
0,-6,-5,3,3,-5,10,5,-25,-6,0,-3
1,-5,-5,3,3,-5,10,5,-25,-6,0,-3
1,-5,-5,3,3,-5,10,5,-25,-6,0,-3
1,-5,-5,3,3,-5,10,5,-25,-6,1,-3
1,-5,-5,3,3,-5,10,5,-25,-6,1,-3
1,-4,-5,2,3,-4,10,5,-25,-6,1,-3
1,-4,-4,2,3,-4,10,5,-25,-6,0,-3
1,-4,-4,3,3,-4,10,5,-25,-6,0,-3
1,-5,-5,3,3,-5,10,5,-25,-6,1,-3
1,-5,-5,3,3,-5,10,5,-25,-6,1,-3
1,-5,-5,3,3,-5,9,5,-25,-6,0,-3
1,-5,-5,3,3,-5,9,5,-24,-6,0,-3
0,-5,-5,3,3,-5,9,5,-24,-6,0,-3
0,-5,-5,3,3,-5,9,5,-24,-5,0,-3
1,-5,-5,3,3,-5,9,5,-24,-5,0,-3
1,-6,-6,3,4,-6,9,6,-24,-4,0,-4
3,-6,-8,2,6,-7,9,7,-23,-4,-1,-5
5,-6,-11,1,8,-8,9,8,-22,-4,-2,-6
7,-6,-13,1,10,-10,9,11,-19,-2,-2,-7
9,-6,-15,0,12,-11,10,15,-15,0,-2,-8
11,-7,-17,-1,14,-12,10,21,-9,3,-2,-9
13,-7,-20,-2,17,-14,10,28,-3,7,-2,-9
17,-7,-22,-4,20,-15,10,32,3,12,-1,-10
21,-5,-25,-7,23,-15,10,32,7,17,1,-9
25,-2,-26,-10,25,-14,8,25,9,23,5,-6
28,2,-25,-15,27,-11,6,12,10,31,12,-1
32,9,-22,-19,27,-6,4,-4,9,40,20,4
35,16,-19,-24,27,-1,1,-21,9,50,28,11
38,22,-15,-29,27,3,-2,-37,7,59,36,18
39,29,-10,-33,25,9,-5,-54,0,66,44,25
40,36,-3,-37,23,16,-8,-73,-11,69,52,33
40,42,3,-40,19,22,-12,-95,-28,69,61,41
38,47,11,-41,14,29,-16,-117,-48,65,68,48
34,51,19,-41,7,35,-19,-135,-70,54,72,54
26,52,28,-38,-1,40,-21,-146,-89,38,72,56
14,52,38,-32,-12,45,-21,-152,-105,20,66,56
0,48,48,-23,-23,48,-19,-153,-117,1,57,52
-13,43,56,-14,-34,49,-15,-153,-126,-17,45,47
-24,38,62,-6,-42,50,-11,-151,-131,-33,34,41
-31,33,65,0,-48,49,-6,-149,-135,-46,25,36
-36,27,65,5,-50,46,-3,-147,-138,-58,17,30
-38,21,61,9,-49,41,-1,-145,-139,-66,10,24
-38,15,55,12,-47,35,0,-140,-138,-71,3,18
-37,10,48,14,-42,29,0,-134,-134,-72,-1,12
-34,6,40,15,-37,23,-1,-126,-129,-70,-5,8
-31,3,34,15,-32,18,-1,-116,-122,-66,-7,4
-28,1,28,15,-28,14,-2,-106,-115,-61,-9,1
-25,-1,23,15,-23,11,-2,-95,-108,-56,-11,-1
-22,-3,19,14,-20,9,-1,-84,-100,-51,-12,-3
-18,-4,16,13,-17,6,0,-72,-92,-45,-12,-4
-16,-5,13,11,-14,5,2,-61,-83,-39,-11,-4
-13,-4,10,10,-12,3,4,-50,-75,-33,-10,-4
-11,-4,8,8,-10,2,5,-40,-68,-29,-10,-4
-9,-4,5,7,-7,0,6,-32,-61,-25,-10,-4
-8,-4,3,7,-5,0,7,-25,-55,-22,-10,-4
-6,-4,2,6,-3,-1,8,-19,-49,-19,-10,-4
-4,-4,1,6,-2,-1,8,-14,-44,-17,-10,-4
-3,-4,0,5,-1,-2,9,-9,-39,-14,-10,-5
-1,-4,-1,4,0,-2,9,-5,-35,-12,-9,-5
0,-4,-2,3,1,-3,10,-2,-32,-10,-9,-5
0,-4,-3,3,1,-3,10,0,-30,-8,-9,-5
0,-3,-3,2,2,-3,10,1,-29,-7,-9,-5
1,-3,-4,2,2,-3,10,2,-28,-6,-9,-4
1,-2,-4,2,3,-3,10,3,-27,-5,-9,-4
2,-2,-4,2,3,-3,9,3,-26,-4,-9,-3
2,-2,-4,2,3,-3,9,4,-26,-4,-9,-3
1,-3,-4,2,3,-3,9,5,-26,-3,-9,-3
1,-3,-4,2,3,-3,9,5,-26,-2,-8,-3
1,-3,-4,2,3,-4,10,6,-26,-2,-8,-2
1,-3,-4,2,3,-4,10,6,-26,-2,-8,-2
1,-3,-4,2,3,-4,10,6,-26,-2,-8,-3
1,-3,-4,2,3,-4,10,6,-26,-2,-8,-3
1,-3,-4,2,3,-4,10,7,-26,-2,-8,-3
2,-3,-4,2,3,-4,10,7,-26,-2,-8,-3
2,-3,-4,1,3,-4,10,8,-26,-2,-7,-3
2,-3,-4,1,3,-4,10,8,-27,-2,-7,-4
2,-2,-4,1,4,-4,10,9,-27,-1,-7,-4
2,-2,-5,1,4,-4,10,9,-27,-1,-7,-4
2,-3,-5,1,4,-4,10,9,-27,-1,-7,-4
2,-3,-5,1,4,-4,10,9,-27,-1,-7,-4
2,-3,-5,1,4,-4,10,9,-27,-1,-7,-4
2,-3,-5,2,4,-4,10,9,-26,-1,-7,-4
2,-3,-5,2,4,-4,11,10,-25,-1,-8,-4
2,-3,-5,2,4,-4,11,10,-24,-1,-8,-4
2,-3,-5,2,4,-4,11,10,-23,-1,-9,-4
2,-2,-5,2,4,-4,11,10,-22,-1,-9,-4
2,-2,-5,2,4,-4,11,10,-22,-1,-9,-4
2,-2,-4,1,4,-3,10,10,-21,-1,-9,-4
2,-1,-4,1,4,-3,10,10,-21,-1,-9,-4
3,-1,-4,0,4,-3,10,10,-20,-1,-9,-4
3,-1,-4,0,4,-3,10,11,-19,-1,-9,-4
3,-1,-4,1,3,-3,10,11,-18,-1,-9,-4
2,-1,-3,1,3,-2,10,12,-17,-1,-9,-4
2,-1,-3,1,3,-2,10,12,-17,-1,-9,-4
2,0,-3,0,3,-2,10,12,-17,-1,-9,-4
2,0,-3,0,3,-2,10,12,-16,-1,-9,-4
2,0,-2,0,3,-1,10,12,-16,-1,-8,-5
2,-1,-3,0,3,-2,9,12,-16,0,-8,-5
2,-2,-4,1,3,-3,9,13,-15,0,-7,-5
2,-2,-4,1,3,-3,8,13,-15,0,-7,-5
2,-1,-4,1,3,-3,8,13,-15,0,-7,-5
2,-1,-4,1,3,-3,8,14,-15,0,-7,-5
2,-1,-3,1,3,-3,8,14,-15,0,-6,-5
2,0,-3,0,3,-2,7,14,-15,0,-6,-5
2,0,-3,0,3,-2,7,14,-16,0,-6,-5
2,0,-3,0,3,-2,8,14,-16,0,-5,-5
2,0,-3,0,3,-2,8,14,-16,0,-5,-5
2,0,-3,0,3,-2,9,14,-16,0,-5,-5
2,0,-3,0,3,-2,9,14,-16,0,-4,-5
3,0,-3,0,3,-1,9,14,-16,0,-4,-4
3,0,-3,0,3,-1,9,14,-17,0,-4,-4
3,0,-3,0,3,-1,9,14,-17,0,-4,-3
3,0,-3,0,3,-1,8,14,-17,0,-4,-3
3,0,-3,0,3,-1,8,14,-17,0,-3,-2
3,0,-3,0,3,-1,7,15,-17,0,-3,-2
3,1,-2,0,3,-1,6,15,-17,0,-3,-3
4,1,-2,-1,3,-1,5,15,-17,0,-3,-3
4,1,-3,-1,4,-1,5,15,-17,0,-3,-3
5,1,-3,-1,4,-1,4,15,-17,0,-3,-3
5,2,-2,-2,4,0,4,14,-17,0,-3,-3
5,2,-2,-2,4,0,3,13,-17,0,-3,-3
5,1,-3,-2,4,-1,3,13,-17,0,-3,-2
5,1,-3,-2,4,-1,3,13,-17,0,-3,-2
5,1,-3,-2,4,-1,3,13,-17,0,-3,-2
5,1,-3,-2,4,-1,2,13,-17,1,-3,-2
5,1,-3,-2,5,-1,1,13,-17,1,-3,-1
5,1,-4,-2,5,-1,1,13,-16,1,-3,-1
5,1,-4,-1,5,-2,1,13,-16,1,-3,0
5,1,-5,-1,5,-2,2,13,-15,2,-3,0
5,1,-4,-1,5,-1,2,13,-14,2,-3,0
6,2,-4,-2,5,-1,3,13,-14,2,-3,0
6,2,-4,-2,5,0,3,13,-13,2,-3,0
6,2,-4,-3,5,0,3,13,-12,2,-3,0
7,2,-4,-3,5,0,4,13,-11,2,-3,0
7,2,-4,-4,6,0,4,13,-11,2,-2,0
7,3,-4,-4,6,0,5,13,-10,2,-2,0
8,4,-4,-5,6,0,6,14,-10,3,-1,0
8,4,-4,-5,7,0,6,14,-10,4,-1,1
9,4,-4,-5,7,0,7,15,-9,5,0,1
9,4,-5,-5,8,0,8,16,-8,7,0,1
10,5,-5,-6,8,0,8,14,-7,8,0,1
10,6,-4,-7,8,1,9,12,-6,9,1,1
11,6,-4,-7,8,1,9,10,-5,10,1,2
12,6,-5,-8,9,1,10,8,-4,11,2,2
13,7,-5,-8,10,1,10,8,-4,12,3,3
13,7,-5,-9,10,1,10,8,-3,13,4,3
14,8,-5,-9,10,1,9,8,-2,14,5,4
14,9,-5,-10,10,1,9,8,-1,15,5,4
15,9,-5,-11,10,2,9,8,-1,15,6,5
16,10,-6,-11,11,2,9,9,0,16,6,5
16,10,-6,-12,11,2,9,9,0,16,7,6
17,11,-6,-13,12,3,9,10,1,17,8,7
18,12,-6,-13,12,3,9,10,2,18,9,7
18,13,-5,-14,12,4,9,10,2,19,9,8
19,13,-5,-14,13,4,8,10,3,19,10,9
20,14,-5,-15,13,4,8,10,3,20,11,10
21,14,-5,-16,13,4,7,10,4,21,12,11
21,15,-5,-17,14,4,7,11,5,22,13,12
22,16,-4,-18,14,5,6,11,5,22,14,13
22,17,-4,-19,14,6,5,11,5,22,14,13
22,18,-3,-19,14,7,4,11,5,22,15,14
22,19,-3,-19,14,8,3,11,6,23,15,15
22,19,-3,-19,14,8,1,11,6,23,16,16
22,19,-3,-19,14,8,0,11,6,23,16,17
22,19,-3,-19,13,9,0,11,6,24,17,18
22,19,-2,-19,13,9,0,11,6,24,17,19
22,19,-2,-19,13,9,-1,11,6,24,18,19
22,19,-2,-19,12,9,-1,11,6,24,18,19
22,19,-1,-19,12,9,-2,11,6,24,18,19
21,20,-1,-19,12,9,-3,10,6,23,18,19
21,19,0,-19,11,9,-3,10,6,23,19,18
20,19,0,-18,11,9,-3,10,6,22,19,18
19,18,0,-18,10,9,-3,10,6,22,19,18
19,18,0,-18,10,9,-3,9,5,22,19,17
18,18,0,-17,9,9,-3,9,5,21,18,17
18,18,1,-17,9,9,-3,9,4,20,18,18
17,17,1,-16,8,9,-3,9,4,18,17,18
16,17,1,-15,8,9,-3,8,3,17,16,17
15,16,1,-14,7,8,-3,8,3,16,16,16
14,15,0,-13,7,8,-3,8,2,15,15,15
13,14,1,-12,7,8,-3,7,1,14,14,13
12,13,1,-12,6,8,-2,7,0,13,13,12
11,12,1,-11,6,7,-2,7,0,12,12,10
11,11,1,-10,5,6,-2,7,0,12,11,9
10,10,1,-9,5,5,-1,7,-1,11,10,8
9,10,1,-8,5,5,-1,7,-1,11,9,8
9,9,1,-7,4,5,0,7,-2,10,8,7
8,8,0,-6,4,4,0,7,-3,9,7,6
7,6,0,-5,4,3,0,6,-3,8,6,6
6,5,0,-4,4,2,1,6,-4,7,6,5
6,4,-1,-4,4,2,2,6,-5,6,5,4
5,4,-1,-3,4,2,2,5,-5,5,5,3
5,3,-2,-3,4,1,2,5,-6,4,4,2
5,3,-2,-2,4,0,2,5,-6,3,3,2
5,2,-2,-2,4,0,2,4,-7,3,2,1
5,2,-2,-1,4,0,3,4,-7,2,2,1
4,1,-2,-1,4,0,3,4,-8,2,1,1
4,1,-2,0,4,0,3,4,-8,1,1,1
3,0,-2,0,3,0,3,4,-9,1,0,1
2,0,-2,0,3,-1,2,4,-9,1,0,1
2,-1,-3,1,4,-2,2,4,-10,1,0,1
2,-1,-3,1,4,-2,2,4,-10,1,0,1
2,0,-3,1,4,-2,2,4,-11,0,0,0
3,0,-3,0,4,-2,2,5,-11,0,0,0
3,-1,-3,1,4,-3,2,5,-11,1,0,0
3,-2,-4,1,4,-3,2,5,-10,1,0,0
2,-2,-4,1,4,-3,3,5,-10,0,0,-1
2,-2,-4,1,4,-3,3,5,-10,0,0,-1
2,-2,-4,1,4,-3,4,5,-10,0,0,-1
2,-2,-4,1,4,-3,4,5,-9,0,0,-1
1,-2,-4,1,3,-3,4,5,-9,0,0,-1
1,-2,-4,2,3,-3,4,5,-9,0,0,-1
1,-2,-4,2,3,-3,4,5,-9,-1,0,-1
1,-2,-4,2,3,-3,4,5,-9,-1,0,-1
1,-2,-3,2,3,-3,4,5,-9,-1,0,-1
1,-2,-3,2,3,-3,3,5,-10,-2,0,-1
1,-2,-3,2,3,-3,3,5,-10,-2,0,-1
1,-3,-4,3,3,-4,3,5,-10,-2,0,-1
0,-3,-4,3,2,-3,3,5,-10,-2,0,-1
0,-3,-3,3,2,-3,4,6,-10,-2,0,-1
0,-3,-3,3,2,-3,4,6,-10,-2,0,0
0,-3,-3,3,2,-3,4,7,-10,-2,0,1
0,-3,-3,3,2,-3,4,7,-10,-3,0,2
0,-3,-3,3,2,-3,4,7,-10,-3,0,2
0,-2,-3,3,2,-3,4,7,-10,-3,0,3
0,-2,-3,2,2,-2,4,7,-11,-3,0,2
0,-2,-3,2,2,-2,4,7,-11,-3,0,2
0,-2,-2,2,1,-2,4,8,-11,-3,0,1
0,-2,-2,2,1,-2,4,8,-11,-3,0,1
0,-2,-2,3,1,-2,4,8,-11,-3,0,1
0,-2,-3,3,1,-2,4,8,-11,-3,0,1
0,-2,-3,3,2,-2,4,9,-11,-3,0,0
0,-2,-3,3,2,-2,5,9,-11,-3,0,0
0,-2,-3,3,2,-2,6,10,-11,-3,0,0
0,-2,-3,3,2,-2,7,10,-11,-3,0,0
0,-2,-3,3,2,-2,8,11,-11,-3,0,0
0,-2,-3,2,2,-2,8,11,-10,-3,-1,0
0,-2,-3,2,2,-3,7,11,-10,-4,-1,0
0,-3,-3,3,1,-3,7,11,-10,-4,-1,0
0,-3,-3,3,1,-3,7,11,-10,-5,-1,-1
0,-3,-3,3,1,-3,7,11,-9,-5,-1,-1
0,-3,-4,3,2,-3,7,11,-9,-5,-1,-1
0,-4,-4,3,2,-3,7,11,-8,-5,-1,0
0,-4,-3,3,1,-3,7,11,-8,-5,-2,0
0,-4,-3,3,1,-3,7,11,-7,-5,-2,0
0,-4,-3,3,1,-3,6,12,-7,-5,-2,1
0,-4,-3,3,1,-3,6,12,-6,-5,-2,1
0,-4,-3,2,2,-3,6,12,-6,-5,-2,2
0,-4,-4,2,2,-3,6,12,-5,-5,-2,2
0,-4,-4,3,2,-3,6,12,-5,-5,-2,1
0,-4,-4,3,2,-3,6,12,-5,-4,-2,1
0,-4,-4,3,2,-3,6,12,-5,-4,-2,1
0,-4,-4,3,2,-4,5,12,-5,-3,-2,1
0,-5,-4,3,2,-4,5,12,-5,-3,-1,1
0,-5,-4,3,2,-5,5,12,-5,-2,-1,1
0,-5,-4,3,2,-5,5,12,-5,-2,-1,1
0,-4,-4,3,2,-4,5,12,-5,-2,-1,0
0,-4,-4,3,2,-4,5,11,-5,-2,-1,0
0,-4,-4,3,2,-4,5,11,-4,-2,-1,0
0,-4,-4,3,2,-3,4,11,-4,-2,-1,0
0,-4,-4,3,2,-3,4,11,-3,-2,-1,0
0,-4,-4,3,2,-4,3,11,-3,-2,0,0
0,-4,-4,3,2,-4,3,12,-3,-2,0,0
0,-4,-4,3,2,-4,3,12,-3,-1,0,0
0,-3,-4,3,2,-4,3,12,-3,-1,0,1
0,-3,-4,3,2,-4,3,12,-3,-1,0,1
0,-4,-4,3,2,-4,2,12,-3,-1,0,2
0,-4,-4,3,2,-4,2,13,-3,-1,0,2
0,-4,-4,3,2,-4,1,13,-3,-1,0,3
0,-4,-4,3,2,-4,1,13,-3,-1,0,3
0,-4,-4,3,2,-4,1,13,-2,-1,0,3
0,-4,-4,2,2,-4,1,13,-2,-1,-1,3
0,-4,-4,2,2,-4,1,13,-2,-1,-1,2
0,-5,-4,2,2,-5,1,13,-2,-1,-1,2
0,-5,-5,3,2,-5,1,13,-2,0,-1,2
0,-5,-5,3,2,-5,1,13,-1,-1,-1,1
0,-5,-5,3,2,-5,1,13,-1,-1,-1,1
0,-5,-5,3,2,-5,1,13,-1,-1,-1,1
0,-5,-5,3,2,-5,1,13,-1,-1,-1,1
0,-4,-5,2,2,-4,0,13,-1,-1,-1,1
0,-4,-5,2,2,-4,0,13,-1,-1,-1,1
0,-4,-5,2,2,-4,0,12,-1,-1,-1,1
0,-4,-5,2,2,-4,-1,12,0,-1,-1,1
0,-4,-5,2,2,-4,-1,12,0,-1,-1,1
0,-4,-4,2,2,-4,-1,11,0,-1,-1,1
0,-4,-4,2,2,-4,-1,11,0,-1,-1,1
0,-4,-4,2,2,-4,-1,11,0,-1,-1,1
0,-4,-4,2,1,-4,-1,11,0,-1,-1,1
0,-4,-4,2,1,-4,-1,10,0,-1,-1,1
0,-4,-4,2,1,-4,-1,10,0,-1,-1,1
0,-4,-4,2,1,-4,-1,10,0,-1,-1,2
0,-4,-3,2,1,-4,-1,10,0,-1,-1,2
0,-4,-3,2,1,-4,-1,10,0,-1,-1,3
0,-3,-3,2,1,-4,-1,10,0,-1,-1,3
0,-3,-2,2,1,-4,-1,9,0,-1,-1,4
0,-3,-3,1,1,-4,-1,8,0,-1,-1,4
0,-3,-3,1,1,-4,-1,6,0,-1,-1,4
0,-3,-3,1,1,-4,-1,4,0,-2,-1,3
0,-3,-2,1,1,-3,-1,3,0,-2,-1,3
0,-2,-2,1,1,-3,-1,1,0,-2,-1,2
0,-2,-2,1,1,-3,0,0,0,-2,-1,1
0,-2,-2,1,1,-3,0,-1,0,-2,-1,1
0,-2,-2,1,1,-3,0,-1,0,-2,-1,1
0,-2,-2,1,1,-3,1,-1,0,-3,-1,1
0,-2,-2,1,1,-2,1,-1,-1,-3,-1,0
0,-2,-2,1,1,-2,2,-1,-1,-4,-1,0
0,-2,-2,1,1,-2,2,-1,-1,-4,-1,0
0,-2,-2,1,1,-2,2,-2,-1,-3,-1,0
0,-2,-2,1,1,-2,2,-2,-1,-3,-1,0
0,-2,-2,1,1,-2,2,-3,-1,-3,-1,0
0,-1,-2,1,0,-2,2,-3,-1,-3,-1,0
0,-1,-1,1,0,-2,2,-4,-1,-2,-1,0
0,-1,-1,1,0,-2,1,-4,-1,-2,-1,0
0,-1,-1,1,0,-2,1,-4,-1,-2,-1,0
0,-1,-1,1,0,-2,1,-4,-1,-2,-1,0
0,-1,-1,1,0,-2,0,-4,-1,-2,-1,-1
0,0,0,0,0,-1,0,-4,-1,-3,-1,-1
0,0,0,0,0,-1,0,-4,-1,-3,-1,-2
0,-1,-1,0,0,-2,0,-4,-1,-3,-1,-2
0,-2,-2,1,1,-3,0,-4,-1,-3,-1,-2
0,-2,-2,1,1,-3,0,-4,-1,-3,-1,-2
0,-2,-2,1,1,-3,0,-4,-1,-3,-1,-2
0,-2,-2,1,1,-3,0,-4,-1,-3,-1,-3
0,-2,-2,1,1,-3,0,-4,-1,-3,-1,-3
0,-2,-2,1,1,-3,0,-4,-1,-3,-1,-3
0,-2,-2,1,1,-3,0,-4,-1,-3,-1,-3
0,-2,-2,1,1,-3,0,-4,-1,-3,-1,-3
0,-2,-2,1,0,-2,0,-4,-1,-3,-1,-3
0,-2,-2,1,0,-2,0,-4,-2,-3,-1,-4
0,-2,-1,1,0,-2,0,-5,-2,-3,-1,-4
0,-2,-1,1,0,-2,0,-5,-2,-3,-1,-4
0,-2,-1,1,0,-2,0,-5,-2,-3,-1,-4
0,-2,-1,1,0,-2,0,-5,-2,-3,-1,-4
0,-2,-1,1,0,-2,0,-5,-2,-3,-1,-3
0,-2,-1,1,0,-2,0,-5,-2,-3,-1,-3
0,-2,-1,1,1,-2,0,-5,-2,-3,-1,-2
0,-2,-1,1,1,-2,0,-5,-2,-3,-1,-1
0,-2,-1,1,1,-2,0,-5,-2,-3,-1,-2
0,-3,-2,1,1,-2,0,-5,-2,-3,-1,-3
0,-3,-2,2,1,-3,0,-5,-2,-3,-1,-3
-1,-4,-2,2,0,-3,0,-5,-2,-3,-1,-4
-1,-4,-2,2,0,-3,0,-5,-2,-3,-1,-4
0,-3,-2,2,0,-3,0,-5,-2,-3,-1,-5
0,-3,-2,2,0,-3,0,-5,-2,-3,-1,-5
0,-3,-2,2,0,-3,0,-4,-1,-2,-1,-5
0,-3,-2,2,0,-3,0,-4,-1,-2,-1,-5
0,-3,-3,2,1,-3,0,-4,0,-2,-1,-5
0,-3,-3,1,1,-3,0,-4,0,-2,-1,-5
0,-2,-2,1,1,-3,0,-4,0,-2,-1,-5
0,-2,-2,1,1,-3,0,-4,1,-2,-1,-5
0,-2,-2,1,1,-3,0,-4,1,-2,0,-5
0,-2,-2,1,0,-2,0,-4,2,-2,0,-5
0,-2,-2,1,0,-2,0,-4,2,-2,0,-5
0,-1,-1,1,0,-1,0,-3,3,-1,0,-4
0,0,-1,0,0,-1,0,-3,3,-1,0,-4
0,0,0,0,0,0,0,-2,3,-1,0,-3
0,0,0,0,0,0,0,-2,4,-1,1,-2
0,1,0,0,0,0,0,-2,4,-1,1,-2
0,1,0,-1,0,0,0,-2,4,-1,1,-1
0,1,0,-1,0,0,0,-1,4,-1,1,-1
0,2,0,-1,0,1,0,-1,4,-1,2,-1
1,2,0,-2,0,1,0,0,5,-1,2,-1
1,2,0,-2,0,1,0,0,5,-1,2,-1
2,2,0,-2,1,1,0,0,6,-1,2,-1
2,3,0,-2,1,1,-1,1,6,-1,2,-2
2,3,0,-2,1,1,-1,1,7,0,2,-2
2,3,0,-2,1,1,-1,2,7,0,3,-2
3,3,0,-2,1,1,-1,2,8,1,3,-2
3,3,0,-2,1,1,-1,3,8,1,3,-2
3,3,0,-2,1,1,-1,4,8,2,3,-2
3,3,0,-2,1,1,-1,4,9,2,3,-2
3,3,0,-2,2,1,-1,5,9,2,4,-2
3,3,0,-2,2,1,-1,5,9,2,4,-2
3,3,0,-3,2,1,-1,5,9,2,5,-2
3,3,0,-3,2,1,-1,4,9,2,5,-2
3,4,0,-4,2,2,-2,3,9,2,5,-1
4,4,0,-4,2,2,-3,2,9,2,5,-1
4,5,0,-5,2,3,-3,0,8,2,5,-1
4,5,0,-5,2,3,-3,0,8,1,5,0
4,4,0,-5,2,2,-3,-1,7,1,5,0
4,4,0,-4,1,2,-3,-2,7,0,5,0
4,5,1,-4,1,2,-3,-3,7,0,5,0
4,5,1,-4,1,2,-4,-3,6,0,5,0
4,5,1,-4,1,2,-4,-4,6,0,5,0
3,4,0,-4,1,2,-5,-4,5,0,5,0
3,4,0,-3,1,2,-5,-5,5,-1,5,0
3,4,0,-3,1,2,-6,-6,4,-1,5,-1
3,3,0,-3,1,1,-6,-6,4,-2,5,-1
3,3,0,-3,1,1,-6,-7,3,-2,5,-1
3,4,0,-3,1,1,-6,-7,3,-2,5,-1
3,4,0,-4,1,1,-6,-8,3,-2,5,-1
3,4,0,-4,1,1,-6,-8,3,-3,5,-2
3,4,0,-4,1,1,-6,-8,3,-3,5,-2
3,3,-1,-4,2,0,-6,-9,3,-3,5,-2
3,3,-2,-3,2,0,-6,-10,3,-3,5,-1
3,2,-2,-2,2,0,-6,-12,4,-3,4,-1
2,1,-2,-1,1,0,-6,-12,4,-3,4,0
1,0,-2,0,1,-1,-6,-12,5,-3,4,0
1,0,-2,0,1,-1,-5,-13,5,-3,4,0
0,0,-2,0,1,-2,-4,-13,6,-3,3,0
0,-1,-2,1,1,-2,-4,-14,6,-3,3,-1
0,-1,-2,1,1,-2,-4,-14,6,-3,3,-2
0,-2,-2,2,0,-2,-4,-14,6,-3,3,-3
-1,-2,-2,2,0,-2,-4,-14,7,-3,3,-3
-1,-2,-2,2,0,-2,-5,-13,7,-3,3,-4
-1,-2,-2,2,0,-3,-5,-13,8,-3,3,-4
-1,-2,-2,2,0,-3,-5,-13,8,-3,3,-5
-1,-2,-2,2,0,-3,-6,-13,9,-3,3,-5
-2,-3,-2,2,0,-3,-6,-13,9,-3,3,-5
-2,-3,-2,2,0,-3,-6,-13,10,-3,3,-5
-2,-3,-2,2,0,-3,-6,-12,10,-3,3,-5
-2,-3,-2,2,0,-3,-6,-12,10,-3,3,-5
-2,-3,-2,2,0,-3,-6,-12,10,-3,3,-5
-2,-3,-2,2,0,-3,-6,-11,10,-4,3,-5
-2,-3,-2,3,0,-3,-6,-11,10,-4,3,-5
-2,-3,-2,3,0,-3,-6,-10,10,-4,3,-5
-2,-3,-3,3,0,-3,-6,-10,10,-4,3,-4
-1,-3,-3,2,0,-3,-6,-9,11,-5,3,-4
-1,-3,-3,2,0,-3,-6,-9,11,-5,3,-4
-1,-2,-3,2,0,-3,-6,-9,11,-5,3,-3
-1,-2,-3,2,0,-3,-6,-8,10,-5,3,-3
0,-2,-3,1,1,-3,-6,-8,10,-5,3,-3
0,-2,-3,1,1,-3,-6,-7,10,-5,3,-3
0,-2,-3,1,1,-3,-6,-7,10,-5,3,-3
0,-3,-3,2,1,-3,-6,-7,9,-5,3,-3
0,-3,-3,2,1,-3,-6,-7,9,-5,3,-3
-1,-2,-3,2,0,-3,-5,-6,8,-5,3,-3
-1,-2,-3,2,0,-3,-5,-6,7,-4,3,-3
-1,-2,-3,2,0,-3,-5,-6,6,-4,3,-4
-1,-3,-3,3,0,-3,-5,-6,5,-4,4,-4
-1,-3,-3,3,1,-3,-4,-5,5,-4,4,-4
0,-3,-3,2,1,-3,-3,-5,4,-4,3,-4
0,-3,-3,2,0,-3,-3,-5,4,-4,3,-4
-1,-3,-3,2,0,-3,-3,-4,3,-4,3,-4
-1,-3,-3,3,1,-3,-2,-4,3,-4,3,-4
-1,-4,-4,3,1,-4,-2,-3,3,-5,3,-3
-1,-4,-4,3,1,-4,-1,-3,2,-5,2,-3
-1,-4,-4,3,1,-4,-1,-3,2,-5,2,-2
-1,-4,-4,3,1,-4,-1,-3,2,-5,2,-2
-1,-3,-4,2,1,-4,-2,-3,2,-5,2,-1
0,-3,-3,2,1,-4,-2,-3,2,-5,2,-1
0,-2,-3,2,1,-3,-2,-3,2,-5,2,0
0,-2,-3,2,1,-3,-1,-2,2,-5,1,0
0,-2,-3,1,1,-3,-1,-1,2,-5,1,-1
