leadI,leadII,leadIII,leadaVR,leadaVL,leadaVF,leadV1,leadV2,leadV3,leadV4,leadV5,leadV6
1,1,0,-1,0,0,-1,-4,0,0,-1,-5
2,2,0,-2,1,1,-2,-11,1,1,-4,-13
4,3,0,-4,2,1,-4,-15,1,2,-5,-17
4,4,0,-4,2,2,-5,-17,1,2,-5,-19
5,4,0,-5,2,2,-6,-18,1,2,-5,-20
5,5,0,-5,2,3,-7,-19,1,1,-5,-20
5,5,0,-5,2,3,-8,-20,1,1,-5,-20
5,4,-1,-4,3,2,-9,-20,1,1,-5,-20
5,4,-1,-4,3,1,-9,-20,1,1,-5,-19
5,4,-1,-4,3,1,-10,-20,1,0,-5,-19
5,4,-1,-4,3,1,-10,-20,1,0,-5,-18
5,4,-1,-4,3,1,-11,-19,1,0,-5,-18
6,5,-1,-5,3,2,-11,-18,1,0,-5,-17
6,5,-1,-6,3,2,-11,-18,1,0,-6,-16
6,5,-1,-5,3,2,-12,-18,1,-1,-6,-17
7,6,-1,-6,4,3,-12,-17,1,-1,-7,-17
9,9,0,-8,4,4,-12,-16,1,-1,-7,-16
10,10,0,-9,5,5,-12,-15,1,-1,-7,-16
9,9,-1,-9,5,4,-12,-15,1,-1,-7,-15
8,7,-1,-7,4,3,-13,-14,1,-2,-7,-15
8,7,-1,-7,4,3,-13,-14,1,-2,-7,-14
9,7,-1,-8,5,3,-13,-13,1,-2,-7,-13
9,7,-1,-8,5,3,-13,-13,1,-2,-7,-13
9,7,-2,-8,5,3,-13,-12,1,-2,-7,-13
8,7,-2,-8,5,3,-13,-12,1,-2,-7,-13
8,7,-2,-7,4,3,-13,-11,1,-2,-7,-12
8,6,-2,-6,4,2,-13,-11,1,-2,-7,-12
8,5,-3,-6,5,1,-13,-10,1,-1,-6,-11
8,4,-4,-5,5,0,-13,-10,57,-1,-6,-11
8,4,-4,-5,5,0,-13,-9,-55,0,-6,-10
7,4,-3,-5,5,0,-13,-9,-475,0,-6,-10
7,4,-3,-5,5,0,-12,-8,-292,0,-6,-10
7,4,-3,-5,5,0,-11,-8,489,1,-6,-10
7,4,-3,-5,5,0,-11,-7,829,1,-5,-10
6,4,-3,-5,5,0,-10,-6,704,2,-5,-9
5,3,-3,-4,4,0,-10,-4,777,3,-4,-9
4,2,-3,-3,4,-1,-10,-3,519,3,-4,-9
4,2,-3,-3,4,-1,-10,-3,149,3,-4,-9
4,2,-3,-3,4,-1,-10,-2,-154,4,-4,-10
4,1,-3,-3,4,-1,-9,-1,-304,4,-4,-10
4,0,-4,-2,3,-2,-9,0,-262,5,-4,-11
3,0,-4,-1,3,-2,-9,0,-18,6,-4,-11
3,-1,-4,-1,3,-3,-8,2,422,7,-3,-11
3,-1,-5,-1,4,-3,-7,3,212,8,-3,-11
3,-1,-5,-1,4,-3,-6,4,-325,8,-3,-11
3,-1,-5,0,3,-3,-6,4,-169,8,-3,-12
2,-1,-5,0,3,-3,-5,5,442,9,-3,-12
2,-2,-5,0,3,-3,-5,6,529,9,-4,-12
2,-2,-5,0,3,-3,-4,7,338,9,-4,-13
2,-1,-4,0,3,-3,-4,8,12,10,-4,-13
2,-1,-4,0,3,-3,-3,9,-366,10,-5,-14
0,-2,-4,1,2,-3,-3,10,-753,10,-6,-14
0,-3,-4,2,2,-4,-2,11,-1124,10,-6,-15
0,-3,-4,2,2,-4,-1,12,-633,11,-7,-15
-1,-4,-4,2,1,-4,0,12,385,11,-7,-16
-1,-4,-4,2,1,-4,0,12,895,12,-7,-16
-1,-4,-4,2,0,-3,0,12,1114,12,-8,-16
-1,-4,-4,2,0,-3,1,12,1171,12,-8,-16
-1,-3,-4,2,0,-3,1,12,1141,13,-9,-17
-1,-3,-3,2,0,-3,1,12,1068,13,-9,-17
-1,-3,-3,2,0,-3,1,12,977,13,-10,-18
-1,-3,-3,2,0,-3,1,12,880,13,-11,-18
-1,-3,-3,2,0,-3,2,12,785,13,-11,-18
-1,-3,-3,2,0,-3,2,12,696,12,-12,-19
-2,-4,-3,2,0,-3,2,12,615,12,-12,-19
-2,-5,-3,3,0,-4,2,12,541,12,-12,-19
-3,-6,-3,4,0,-4,2,11,475,12,-12,-18
-3,-6,-3,4,0,-4,2,11,417,12,-13,-18
-3,-6,-3,4,0,-4,2,10,366,12,-13,-18
-3,-6,-3,4,0,-4,2,9,322,12,-13,-17
-3,-6,-3,4,0,-5,2,9,283,12,-13,-17
-3,-6,-3,4,0,-4,2,9,248,12,-13,-16
-4,-6,-3,4,-1,-4,2,8,218,12,-13,-16
-4,-6,-3,5,-1,-4,2,8,191,12,-13,-15
-5,-7,-3,5,-1,-4,2,7,167,12,-13,-14
-5,-7,-3,6,-1,-4,1,7,144,12,-13,-14
-5,-7,-3,6,-1,-5,1,6,126,12,-13,-13
-5,-7,-4,6,-1,-5,1,6,162,12,-13,-12
-5,-8,-4,7,-1,-6,1,5,-61,12,-12,-10
-6,-9,-4,8,-2,-6,1,5,-154,12,-12,-9
-7,-9,-4,8,-2,-6,2,4,100,12,-12,-8
-6,-9,-3,7,-1,-6,2,5,374,12,-11,-7
-6,-9,-4,7,-1,-6,3,5,752,12,-11,-6
-6,-9,-4,8,-1,-7,4,6,1114,12,-11,-5
-6,-10,-4,9,-1,-7,4,7,618,12,-11,-5
-7,-10,-4,9,-2,-7,4,7,-400,12,-11,-4
-7,-10,-4,9,-2,-7,4,8,-909,12,-10,-3
-7,-10,-4,9,-2,-7,4,9,-1127,12,-10,-2
-8,-11,-3,9,-3,-7,4,10,-1231,11,-9,-1
-9,-11,-3,10,-4,-7,4,10,-1100,11,-9,0
-9,-11,-3,10,-3,-7,4,11,-658,11,-9,0
-9,-10,-2,10,-3,-6,4,11,-308,11,-8,2
-9,-11,-2,10,-3,-6,4,12,195,11,-8,3
-9,-11,-2,10,-4,-6,4,12,134,11,-7,4
-9,-11,-2,10,-4,-6,4,13,-608,11,-6,5
-9,-11,-2,10,-4,-7,4,14,-505,11,-6,7
-9,-11,-2,10,-4,-7,4,15,-243,11,-5,8
-9,-11,-2,10,-3,-6,4,16,29,11,-5,10
-8,-9,-2,9,-3,-5,4,16,180,11,-4,12
-7,-8,-2,8,-3,-4,5,17,150,12,-3,14
-7,-7,-1,8,-3,-4,5,17,-82,12,-3,15
-8,-8,-1,8,-4,-4,5,17,-515,12,-3,16
-10,-9,0,10,-5,-4,5,18,-301,12,-2,18
-11,-10,0,10,-5,-4,5,19,239,12,-2,19
-11,-10,0,10,-6,-4,5,21,89,13,-1,21
-11,-10,0,11,-6,-4,5,23,-516,14,-1,23
-12,-11,0,11,-7,-4,5,24,-598,15,0,25
-11,-10,0,11,-7,-4,5,25,-405,16,0,27
-11,-9,1,10,-7,-4,5,25,-78,17,1,29
-11,-8,2,10,-7,-3,5,26,302,17,2,30
-12,-8,2,10,-8,-3,4,27,691,17,2,31
-13,-9,2,11,-8,-4,4,28,1067,17,3,33
-13,-10,2,11,-8,-4,5,30,582,17,4,34
-13,-10,2,11,-8,-3,5,31,-429,17,5,36
-14,-10,3,12,-8,-3,5,32,-933,17,6,37
-14,-10,3,12,-9,-3,5,33,-1146,16,7,39
-15,-10,4,12,-9,-3,6,34,-1195,16,8,41
-14,-9,4,12,-10,-2,6,35,-1156,16,9,43
-14,-9,4,12,-9,-3,7,36,-1075,16,10,45
-15,-9,3,12,-9,-3,8,38,-978,16,11,47
-15,-9,4,12,-10,-3,8,39,-879,16,12,49
-15,-9,5,12,-10,-2,9,41,-783,16,14,51
-15,-9,5,12,-10,-2,9,42,-694,16,15,53
-15,-9,6,12,-11,-1,10,43,-613,16,16,55
-15,-9,6,12,-11,-1,10,44,-540,17,18,57
-15,-8,6,11,-11,-1,11,45,-474,18,19,59
-14,-7,6,11,-11,0,11,46,-415,18,21,61
-15,-7,6,11,-11,-1,12,48,-360,19,23,62
-15,-7,7,11,-11,0,12,50,-311,19,24,64
-15,-6,8,10,-11,0,12,51,-267,19,26,65
-14,-5,8,10,-11,1,12,51,-228,19,27,67
-15,-6,8,10,-11,1,12,52,-194,19,28,68
-15,-7,7,11,-11,0,12,53,-163,20,30,69
-15,-7,6,12,-11,-1,12,54,-135,20,32,70
-15,-6,7,11,-12,0,11,56,-111,20,33,71
-15,-5,8,11,-12,0,11,58,-89,20,35,72
-15,-6,8,11,-12,0,11,60,-70,21,36,73
-15,-6,8,11,-12,0,11,63,-54,21,38,74
-15,-7,7,11,-12,0,11,65,-40,22,39,75
-15,-7,7,11,-12,0,11,67,-30,23,40,75
-16,-7,7,11,-12,0,11,68,-21,24,41,75
-16,-8,7,12,-12,0,11,70,-13,24,42,76
-17,-8,7,12,-12,0,10,71,-6,24,43,76
-17,-7,7,12,-12,0,10,73,1,25,44,76
-16,-7,7,12,-12,0,10,76,8,26,45,77
-15,-6,7,11,-11,0,10,79,13,28,46,77
-14,-5,7,10,-11,0,11,81,18,29,47,78
-12,-4,7,9,-10,0,12,84,22,30,48,79
-11,-3,7,8,-9,1,12,85,24,32,49,79
-11,-3,7,7,-9,1,13,86,26,33,50,80
-11,-3,7,7,-9,1,13,87,27,33,50,80
-12,-3,7,8,-10,1,13,87,29,34,51,80
-13,-4,7,9,-10,1,12,88,30,35,51,79
-14,-6,7,10,-10,0,12,88,31,35,51,79
-15,-6,7,11,-11,0,12,88,31,36,51,79
-14,-6,7,10,-11,0,12,88,32,36,52,78
-13,-6,7,10,-10,0,13,88,32,37,52,78
-13,-6,6,9,-10,0,13,87,31,37,52,77
-12,-5,6,9,-9,0,13,86,31,37,52,77
-11,-5,6,8,-9,0,14,84,32,38,52,76
-11,-5,6,8,-9,0,14,83,33,38,53,75
-11,-5,6,8,-9,0,14,82,33,38,53,74
-11,-5,6,8,-9,0,14,81,34,38,54,74
-11,-4,6,8,-9,0,14,80,34,37,55,74
-11,-4,6,7,-9,1,14,79,34,37,55,73
-11,-4,6,7,-9,1,14,78,35,37,56,72
-11,-4,6,7,-8,0,14,76,35,36,56,73
-11,-4,5,7,-8,0,14,75,35,34,56,73
-11,-4,5,7,-7,0,14,74,35,32,56,74
-10,-4,5,7,-7,0,14,74,35,30,56,75
-10,-4,5,7,-7,0,15,74,35,28,56,76
-10,-4,5,7,-7,0,15,73,35,26,56,77
-10,-4,5,8,-8,0,15,71,35,24,56,78
-11,-5,5,8,-8,0,15,69,35,22,55,79
-11,-4,5,8,-8,0,15,68,35,20,55,80
-11,-4,5,7,-8,0,15,67,35,17,54,81
-10,-4,5,7,-8,0,16,66,35,15,54,82
-10,-4,4,7,-7,0,16,66,35,12,55,84
-10,-4,4,7,-7,0,16,65,35,8,55,85
-9,-4,4,7,-7,0,16,63,35,4,54,87
-9,-4,4,7,-7,0,17,61,36,0,54,88
-9,-5,3,7,-6,-1,18,59,37,-4,54,89
-9,-5,3,7,-6,-1,18,57,37,-8,54,90
-9,-5,3,7,-6,-1,19,55,38,-13,54,91
-9,-5,3,7,-6,-1,19,53,38,-16,53,92
-9,-5,3,7,-6,-1,19,51,39,-19,53,93
-9,-5,3,7,-6,-1,19,48,39,-20,53,94
-10,-6,3,8,-6,-1,19,46,40,-19,52,94
-10,-6,3,8,-6,-1,19,43,41,-18,52,95
-9,-6,2,8,-6,-2,19,41,42,-17,52,96
-9,-6,3,8,-6,-1,19,38,43,-17,51,96
-9,-5,3,7,-6,-1,19,35,43,-16,50,97
-8,-4,3,7,-6,-1,19,33,44,-16,49,97
-8,-4,3,6,-6,-1,18,31,44,-17,49,98
-9,-4,3,7,-6,-1,18,29,43,-17,48,98
-9,-4,3,7,-6,-1,18,27,43,-17,48,98
-8,-4,2,6,-5,-1,18,25,44,-17,47,99
-7,-3,2,6,-5,-1,18,23,44,-17,46,99
-7,-4,2,6,-5,-1,18,20,44,-17,45,99
-7,-5,2,7,-5,-2,18,18,44,-16,43,99
-8,-6,2,7,-5,-3,18,15,41,-15,41,100
-8,-6,2,8,-5,-2,18,13,39,-13,40,100
-8,-6,2,8,-5,-2,18,12,39,-10,39,100
-8,-6,1,7,-5,-2,18,11,35,-7,39,100
-8,-6,1,7,-5,-3,18,9,28,-5,39,100
-8,-7,1,8,-5,-3,18,8,22,-4,38,100
-8,-7,1,8,-5,-3,18,7,20,-3,36,99
-8,-6,1,7,-5,-3,17,6,19,-1,34,98
-7,-6,1,7,-4,-3,17,6,18,0,32,97
-7,-6,1,7,-4,-3,16,6,16,1,30,95
-8,-6,1,7,-4,-3,14,5,15,2,28,93
-8,-6,1,7,-4,-3,13,3,14,4,27,92
-8,-5,1,7,-4,-2,12,0,12,5,26,92
-8,-5,2,7,-5,-1,10,-3,9,5,24,91
-9,-5,3,7,-6,-1,9,-7,6,4,23,91
-9,-4,3,7,-7,0,8,-10,5,4,23,91
-9,-3,4,6,-7,0,7,-12,7,4,22,90
-9,-1,6,5,-7,2,6,-14,9,5,22,88
-9,0,8,5,-9,4,5,-14,13,5,22,85
-10,0,10,5,-10,5,4,-14,17,6,22,81
-11,1,11,5,-11,6,3,-12,21,7,22,77
-10,2,12,4,-11,7,2,-9,24,8,22,74
-9,3,12,3,-11,7,2,-6,26,9,22,71
-10,3,12,3,-11,7,1,-4,25,10,22,69
-10,2,12,4,-11,7,0,-2,22,11,22,67
-11,2,12,4,-11,7,-1,0,19,12,22,65
-10,3,13,4,-11,8,-2,2,16,14,23,62
-10,3,13,4,-11,8,-2,4,13,15,23,58
-10,3,12,4,-11,7,-3,6,12,16,24,55
-9,3,11,3,-10,7,-3,7,11,16,25,52
-9,3,11,3,-10,7,-4,8,10,16,25,49
-9,3,11,3,-10,7,-5,9,10,15,25,47
-9,3,12,3,-10,7,-6,9,9,14,25,44
-9,3,12,3,-10,7,-7,8,9,12,24,41
-8,3,11,3,-10,7,-7,8,8,9,24,37
-7,3,9,3,-8,6,-6,8,8,8,24,34
-6,2,8,3,-7,5,-5,8,9,7,24,32
-5,2,7,3,-6,4,-4,8,9,7,25,29
-4,2,6,2,-6,4,-3,8,9,6,24,27
-4,2,6,2,-5,4,-2,8,9,5,23,25
-4,1,6,2,-5,3,-1,7,9,4,22,23
-5,0,5,3,-5,2,0,7,8,2,20,21
-5,-1,4,4,-5,1,0,7,8,1,19,19
-5,-2,3,5,-4,0,0,7,8,0,17,17
-6,-3,2,5,-4,0,1,7,8,-2,15,16
-6,-3,2,5,-4,-1,2,7,8,-3,12,14
-6,-4,2,5,-4,-1,2,7,8,-3,10,13
-6,-5,1,6,-3,-2,2,7,8,-4,8,13
-6,-6,0,6,-3,-3,3,7,8,-4,6,12
-6,-6,0,6,-2,-4,4,9,9,-5,6,12
-5,-5,-1,6,-2,-4,4,10,8,-5,6,12
-5,-5,0,5,-2,-3,4,11,5,-7,5,12
-6,-4,1,5,-3,-2,4,11,1,-13,4,11
-6,-4,2,6,-4,-2,5,12,0,-20,4,11
-7,-5,2,6,-4,-1,6,12,3,-23,3,11
-8,-5,3,7,-5,-1,7,12,7,-20,3,11
-9,-5,3,7,-6,-1,8,13,10,-17,3,11
-9,-5,4,8,-7,-1,8,14,12,-16,2,11
-10,-5,3,8,-7,-2,9,14,14,-15,2,11
-10,-6,2,8,-7,-2,9,15,15,-13,2,11
-10,-6,2,9,-7,-2,10,15,17,-12,2,11
-10,-6,3,9,-7,-2,10,14,17,-11,1,11
-11,-7,3,10,-7,-2,10,13,17,-11,1,11
-11,-9,2,10,-7,-3,10,12,17,-10,1,10
-11,-9,2,10,-7,-3,10,11,17,-10,1,10
-11,-9,2,10,-7,-3,9,10,17,-10,1,10
-11,-9,2,10,-7,-4,8,8,17,-10,0,10
-11,-9,2,10,-7,-4,7,7,18,-11,0,10
-11,-9,2,10,-7,-4,7,5,19,-10,0,11
-11,-9,1,10,-6,-4,7,4,22,-9,0,12
-11,-9,1,11,-6,-4,7,3,24,-9,0,12
-11,-9,1,11,-6,-4,7,2,26,-9,-1,12
-11,-9,1,10,-6,-4,7,1,28,-8,-1,12
-10,-9,1,10,-5,-4,7,0,30,-8,-1,12
-9,-8,0,9,-5,-4,7,-1,32,-7,-1,12
-10,-9,0,10,-5,-4,6,-2,34,-7,-1,12
-10,-9,0,10,-5,-5,6,-3,37,-7,-1,11
-9,-8,0,9,-5,-4,6,-4,39,-7,-1,11
-8,-7,0,8,-4,-4,6,-4,42,-7,-1,11
-8,-8,0,8,-4,-4,5,-4,44,-7,-2,10
-9,-9,0,9,-4,-4,5,-4,45,-7,-3,10
-9,-9,-1,9,-4,-5,5,-3,47,-7,-4,10
-9,-9,-1,9,-4,-5,5,-3,49,-7,-4,10
-9,-9,-1,9,-4,-5,5,-2,51,-7,-5,9
-9,-10,-1,9,-4,-6,5,-1,53,-7,-5,9
-8,-10,-2,9,-3,-6,5,0,56,-7,-4,9
-8,-10,-3,9,-3,-7,5,0,58,-6,-4,9
-8,-10,-3,9,-3,-7,5,0,60,-6,-4,9
-7,-9,-3,9,-2,-7,5,0,61,-6,-5,8
-7,-9,-3,8,-2,-7,5,0,62,-6,-5,8
-6,-9,-3,8,-1,-6,5,0,63,-6,-6,7
-6,-9,-3,8,-1,-6,5,0,64,-7,-6,7
-7,-10,-3,9,-2,-7,5,0,66,-7,-7,6
-8,-11,-3,9,-2,-7,5,-1,68,-8,-7,6
-8,-12,-3,10,-2,-7,5,-1,70,-8,-8,5
-9,-13,-4,11,-2,-8,5,-2,73,-8,-8,5
-9,-13,-3,11,-3,-8,5,-3,76,-8,-9,4
-10,-11,-1,11,-4,-7,5,-3,80,-6,-9,3
-10,-9,1,10,-5,-5,6,-3,86,-3,-8,3
-11,-6,4,9,-7,-1,6,-3,94,1,-5,4
-12,-3,9,8,-10,2,6,-2,103,8,-1,5
-12,0,13,6,-12,6,5,-1,112,15,4,7
-12,5,16,4,-14,11,3,0,120,24,13,13
-8,11,19,-1,-14,15,0,0,125,34,25,21
0,17,17,-8,-9,17,-4,0,126,43,39,31
10,22,10,-16,0,16,-9,2,124,52,54,43
21,24,1,-22,9,13,-14,5,121,59,69,54
33,24,-10,-28,21,7,-18,10,118,67,82,64
46,24,-22,-34,34,1,-22,18,115,74,94,73
58,24,-35,-39,47,-5,-26,26,113,78,101,79
68,20,-49,-43,59,-14,-28,34,112,75,99,79
75,12,-64,-43,70,-26,-28,42,109,64,85,71
78,-1,-80,-38,80,-40,-26,47,104,45,63,58
76,-14,-91,-31,84,-52,-24,46,98,23,39,43
69,-23,-93,-23,82,-58,-21,38,91,3,17,30
60,-28,-89,-15,74,-58,-17,25,86,-14,-1,18
46,-33,-79,-6,62,-56,-12,11,84,-31,-19,6
30,-36,-67,4,48,-52,-6,-2,83,-48,-35,-5
15,-40,-56,14,35,-49,0,-12,84,-63,-50,-17
1,-45,-47,22,24,-46,6,-18,89,-75,-61,-26
-9,-47,-39,28,14,-43,11,-21,97,-80,-66,-32
-16,-47,-32,31,8,-40,13,-20,111,-78,-66,-34
-19,-45,-27,32,4,-36,15,-16,126,-71,-63,-32
-19,-42,-22,30,2,-32,18,-10,141,-63,-58,-30
-19,-39,-19,29,0,-29,20,-5,154,-56,-53,-28
-21,-36,-15,29,-3,-25,21,-1,165,-50,-49,-27
-23,-32,-10,28,-6,-20,22,0,174,-45,-46,-25
-24,-27,-4,27,-10,-16,22,2,182,-40,-42,-23
-26,-23,1,25,-14,-11,23,3,185,-35,-37,-20
-27,-19,7,23,-17,-6,24,5,181,-30,-33,-18
-29,-17,12,23,-20,-2,25,5,173,-27,-30,-17
-31,-16,16,23,-23,0,26,5,161,-25,-28,-15
-33,-16,18,24,-25,1,27,4,147,-23,-26,-14
-34,-15,19,25,-27,2,28,4,135,-22,-24,-14
-35,-15,20,25,-27,2,31,5,125,-21,-22,-13
-36,-15,20,26,-28,3,33,5,115,-20,-21,-13
-36,-15,20,26,-28,3,35,6,107,-19,-20,-13
-36,-15,19,25,-28,2,37,7,101,-17,-19,-13
-35,-15,19,25,-27,2,38,8,96,-16,-18,-12
-35,-15,19,25,-27,2,39,9,90,-15,-18,-11
-35,-15,19,24,-27,2,39,10,83,-14,-17,-11
-34,-15,19,24,-27,2,40,11,77,-13,-17,-10
-33,-14,19,24,-26,2,41,12,72,-12,-16,-9
-32,-13,19,23,-26,3,41,11,67,-12,-15,-8
-32,-11,19,22,-26,4,40,7,58,-12,-14,-8
-31,-10,20,21,-26,5,38,3,46,-13,-14,-7
-31,-10,20,21,-25,5,35,-1,32,-14,-13,-7
-29,-10,18,20,-24,3,32,-3,19,-16,-13,-6
-28,-11,16,20,-22,1,29,-5,9,-17,-13,-6
-25,-12,13,19,-19,0,25,-7,2,-18,-12,-5
-22,-10,11,16,-17,0,22,-7,0,-17,-12,-3
-18,-9,9,14,-14,0,20,-7,0,-16,-10,-1
-16,-7,7,12,-11,0,19,-6,1,-15,-9,0
-14,-6,6,10,-10,0,18,-5,4,-14,-7,1
-12,-5,6,9,-9,0,16,-4,7,-13,-6,1
-11,-4,6,8,-8,0,15,-4,11,-12,-5,2
-11,-4,5,7,-8,0,13,-3,13,-11,-5,2
-10,-4,5,7,-8,0,12,-3,15,-10,-4,2
-7,-2,4,5,-6,0,11,-2,17,-10,-4,2
-5,0,4,3,-5,1,11,-1,19,-9,-3,3
-4,0,4,3,-5,1,11,0,20,-9,-2,3
-4,0,4,3,-5,1,10,0,22,-9,-2,3
-5,-1,4,4,-5,1,9,0,23,-9,-2,3
-5,-1,4,4,-5,1,9,1,25,-9,-2,3
-5,0,4,3,-4,1,8,2,27,-9,-2,3
-4,0,4,3,-4,2,8,3,29,-9,-2,3
-4,0,4,2,-4,2,8,3,31,-9,-2,2
-3,0,4,2,-4,2,8,4,31,-9,-2,2
-3,1,5,1,-4,3,8,4,32,-8,-2,2
-2,2,5,1,-4,3,8,5,33,-8,-2,2
-2,1,4,1,-4,2,8,5,33,-8,-2,2
-3,0,3,2,-3,1,8,6,34,-8,-2,2
-3,-1,2,2,-3,0,8,6,35,-7,-2,2
-3,-1,2,2,-3,0,8,6,36,-7,-2,3
-3,0,2,2,-3,1,8,6,37,-7,-2,3
-3,0,2,2,-3,1,8,6,37,-7,-2,3
-3,0,2,2,-3,1,8,6,38,-7,-2,3
-4,-1,2,3,-3,0,8,5,38,-8,-2,3
-4,-1,3,3,-4,0,8,5,38,-8,-3,3
-4,-1,3,3,-4,1,8,5,38,-8,-3,3
-4,0,4,2,-4,2,8,5,38,-8,-3,3
-3,0,3,1,-4,2,8,5,39,-8,-3,2
-3,0,3,2,-3,1,7,5,39,-8,-3,2
-3,-1,3,2,-3,0,7,5,40,-8,-3,2
-3,-1,3,2,-3,1,7,5,40,-8,-3,1
-3,0,3,2,-3,2,7,6,41,-8,-2,1
-2,1,4,1,-3,2,7,6,41,-8,-2,1
-1,2,4,0,-3,3,8,7,42,-8,-2,1
-1,2,4,0,-3,3,8,7,43,-8,-1,1
-1,3,4,-1,-3,3,8,7,44,-7,-1,1
0,5,5,-2,-3,4,8,8,45,-7,-1,1
0,6,5,-2,-3,5,8,8,46,-7,0,1
0,5,5,-2,-3,5,9,9,47,-7,0,1
0,5,5,-2,-3,5,9,9,47,-7,0,0
0,6,6,-3,-3,6,8,10,47,-8,0,0
0,7,6,-3,-3,6,8,10,47,-8,0,0
0,7,5,-3,-2,6,8,11,48,-7,0,0
1,7,5,-3,-2,6,8,11,48,-7,0,-1
1,7,5,-3,-1,6,8,12,48,-7,0,-1
2,7,5,-4,-1,6,8,12,49,-7,0,-1
2,7,4,-4,-1,5,8,13,49,-7,0,-1
3,7,4,-4,0,5,8,13,50,-7,1,-1
3,8,5,-5,0,6,8,13,50,-7,1,-1
4,9,5,-6,0,6,8,13,50,-6,1,-1
4,10,5,-7,0,7,8,14,50,-6,2,-1
5,10,5,-7,0,7,7,14,50,-6,2,-1
5,9,5,-7,0,7,7,14,49,-6,2,-1
5,9,5,-7,0,7,6,14,48,-6,2,-2
5,10,6,-7,0,7,6,14,48,-6,2,-2
5,11,6,-8,0,8,5,14,49,-6,2,-2
6,13,7,-9,0,9,5,14,50,-5,3,-2
7,14,7,-10,0,10,4,13,51,-4,4,-2
6,14,7,-10,0,10,3,12,50,-4,4,-2
6,15,8,-10,-1,11,2,11,49,-3,4,-2
7,16,9,-11,-1,12,2,11,49,-3,4,-2
9,18,9,-13,0,13,1,11,50,-2,5,-1
11,21,10,-16,1,15,1,11,51,-1,6,-1
12,23,10,-17,1,16,0,11,50,-1,7,0
13,22,10,-17,1,16,-1,10,49,0,7,0
13,23,10,-17,2,16,-2,10,48,0,8,1
15,25,10,-19,2,17,-3,9,48,1,9,2
16,26,10,-21,3,18,-4,8,49,1,10,2
16,27,10,-21,3,18,-5,8,51,2,11,3
17,28,10,-22,3,18,-6,7,53,2,11,3
17,28,10,-22,4,18,-6,7,55,2,12,3
18,28,10,-22,4,18,-7,6,56,2,12,3
18,27,9,-22,5,18,-7,5,57,2,12,3
18,26,8,-22,5,17,-8,4,57,2,12,3
18,24,6,-21,6,15,-8,3,57,1,12,3
19,24,5,-21,7,14,-9,3,56,1,12,4
20,24,4,-21,8,13,-9,2,55,0,12,4
20,24,3,-21,8,13,-10,0,53,0,12,4
21,24,3,-22,9,13,-10,-1,51,0,12,4
21,23,2,-22,9,12,-11,-3,47,-1,11,4
21,23,2,-22,10,12,-12,-4,43,-2,11,4
21,23,1,-22,10,12,-12,-6,40,-3,11,4
21,23,1,-22,11,12,-13,-7,38,-3,11,4
22,23,1,-23,11,12,-13,-8,36,-4,11,4
22,23,1,-22,10,11,-13,-9,35,-4,11,4
21,22,1,-21,10,11,-13,-9,33,-4,11,3
20,22,1,-21,9,11,-13,-10,30,-5,10,2
20,22,2,-21,9,11,-13,-11,25,-5,10,1
19,22,2,-21,8,11,-12,-11,21,-5,10,1
19,22,2,-20,8,12,-12,-12,19,-5,10,1
18,21,3,-19,7,12,-12,-13,18,-5,10,1
17,20,2,-18,7,11,-12,-13,19,-6,10,1
17,19,1,-17,7,10,-12,-13,21,-7,9,1
17,18,1,-17,7,9,-12,-13,23,-8,9,0
17,19,0,-18,7,9,-12,-14,25,-8,9,0
18,19,0,-19,8,10,-12,-14,26,-9,9,-1
18,20,0,-19,8,10,-12,-14,28,-9,8,-2
18,19,0,-18,9,9,-13,-14,31,-9,8,-2
18,18,0,-18,9,9,-13,-14,36,-10,8,-3
18,18,0,-18,9,9,-13,-15,42,-10,8,-3
19,19,-1,-18,10,9,-13,-15,47,-11,8,-4
20,19,-2,-19,10,8,-13,-15,48,-11,9,-4
20,18,-3,-19,11,7,-13,-15,44,-11,9,-5
20,18,-3,-19,11,7,-13,-15,39,-11,9,-7
20,18,-3,-19,11,7,-13,-15,35,-12,8,-8
20,18,-3,-19,11,6,-13,-14,35,-12,8,-10
21,17,-4,-19,12,6,-12,-13,38,-12,8,-11
21,17,-5,-18,12,5,-12,-12,42,-12,7,-12
21,16,-5,-18,13,5,-12,-12,45,-12,7,-13
20,14,-6,-17,13,3,-12,-12,45,-12,6,-15
20,13,-7,-16,13,2,-11,-12,43,-12,6,-16
20,12,-8,-16,14,1,-11,-13,41,-12,5,-17
19,11,-9,-15,14,0,-10,-14,36,-12,4,-18
18,10,-9,-13,13,0,-10,-15,24,-13,3,-20
17,9,-9,-12,13,0,-10,-15,8,-13,2,-21
17,8,-9,-12,13,0,-10,-16,-9,-13,1,-22
16,8,-9,-12,12,0,-10,-16,-24,-13,0,-23
16,8,-9,-11,12,0,-10,-16,-30,-13,-2,-23
16,7,-9,-11,12,-1,-9,-16,-29,-13,-3,-24
16,8,-9,-12,12,-1,-8,-16,-21,-13,-3,-24
16,8,-9,-12,12,-1,-7,-15,-10,-12,-3,-24
16,7,-9,-11,12,-2,-6,-15,1,-12,-4,-25
15,7,-9,-11,12,-2,-6,-15,13,-12,-5,-26
15,6,-9,-10,12,-2,-5,-14,25,-12,-6,-26
15,6,-10,-10,12,-2,-3,-12,38,-12,-6,-27
15,5,-10,-10,12,-3,-2,-10,49,-11,-7,-27
14,4,-10,-9,11,-3,-2,-9,59,-11,-7,-27
13,3,-10,-8,11,-4,-1,-9,67,-11,-8,-28
12,2,-10,-7,11,-4,0,-9,73,-11,-8,-28
11,2,-10,-6,10,-4,0,-9,78,-11,-9,-29
9,0,-10,-4,10,-5,0,-9,80,-11,-10,-29
8,-1,-10,-2,9,-6,0,-9,82,-11,-11,-30
6,-3,-10,-1,8,-7,0,-8,83,-12,-12,-30
4,-4,-9,0,6,-7,0,-8,83,-12,-12,-30
2,-5,-8,1,5,-8,0,-8,84,-13,-12,-31
1,-6,-8,2,4,-8,0,-8,83,-14,-13,-32
-1,-7,-7,4,2,-8,-1,-8,82,-15,-13,-33
-3,-10,-7,6,1,-9,-2,-9,81,-16,-14,-34
-4,-12,-8,8,1,-10,-2,-9,80,-16,-14,-34
-5,-14,-8,10,1,-11,-2,-9,79,-16,-14,-35
-6,-14,-8,10,0,-11,-1,-9,77,-16,-14,-35
-6,-13,-7,10,0,-11,-1,-10,75,-17,-15,-35
-7,-14,-7,11,-1,-11,-1,-10,74,-17,-15,-35
-9,-14,-6,12,-2,-11,-1,-10,72,-17,-15,-34
-10,-15,-6,12,-2,-11,-1,-10,71,-17,-15,-34
-10,-15,-6,13,-3,-11,-2,-10,69,-17,-14,-33
-10,-16,-6,14,-3,-11,-2,-10,68,-17,-14,-33
-11,-18,-7,15,-3,-12,-2,-10,67,-18,-14,-32
-11,-19,-7,15,-3,-13,-2,-10,65,-19,-14,-32
-12,-19,-6,16,-3,-13,-2,-10,64,-19,-14,-32
-13,-19,-6,16,-4,-13,-2,-10,63,-19,-14,-31
-14,-20,-6,17,-4,-13,-2,-11,62,-19,-14,-31
-14,-21,-6,17,-4,-14,-2,-11,61,-20,-14,-30
-14,-22,-7,18,-4,-15,-2,-12,60,-20,-14,-30
-15,-22,-8,18,-4,-15,-2,-12,60,-20,-14,-29
-14,-21,-8,18,-3,-15,-2,-13,59,-20,-13,-28
-13,-20,-7,16,-3,-14,-2,-12,59,-19,-12,-26
-12,-19,-7,15,-3,-13,-2,-12,58,-18,-11,-25
-11,-18,-7,14,-2,-13,-2,-12,57,-18,-10,-25
-11,-17,-7,14,-2,-13,-2,-11,57,-18,-10,-25
-11,-18,-7,14,-2,-13,-2,-11,56,-18,-11,-24
-11,-18,-7,15,-2,-13,-2,-11,56,-18,-11,-24
-12,-19,-7,16,-2,-14,-2,-11,56,-18,-12,-24
-12,-19,-7,16,-3,-13,-2,-11,56,-18,-12,-23
-12,-19,-6,16,-3,-13,-2,-11,56,-18,-12,-23
-12,-20,-7,16,-3,-14,-2,-11,56,-17,-12,-22
-12,-20,-7,16,-2,-14,-2,-10,56,-17,-12,-22
-12,-20,-8,16,-2,-15,-1,-10,56,-17,-12,-21
-12,-20,-8,16,-2,-15,-1,-10,56,-17,-12,-21
-11,-19,-8,15,-2,-14,-1,-10,56,-17,-12,-21
-11,-19,-8,15,-2,-14,-1,-10,55,-17,-12,-21
-11,-19,-7,15,-2,-13,-1,-9,55,-16,-12,-21
-11,-19,-7,15,-2,-13,-1,-9,56,-15,-12,-21
-12,-19,-7,16,-2,-14,-1,-7,57,-14,-12,-21
-12,-19,-7,16,-2,-14,-1,-5,60,-11,-12,-21
-13,-18,-6,16,-3,-13,-1,-3,64,-7,-10,-20
-12,-16,-5,14,-3,-11,-1,-2,68,-1,-7,-18
-10,-13,-4,12,-3,-8,-3,-1,69,5,-1,-14
-4,-10,-6,8,0,-8,-6,-1,67,12,8,-7
4,-8,-13,2,8,-10,-8,0,64,18,18,1
14,-6,-20,-3,16,-13,-11,4,60,24,28,8
23,-5,-28,-9,25,-17,-15,8,57,30,37,15
33,-5,-37,-14,34,-21,-19,15,55,37,45,22
43,-3,-45,-19,43,-24,-23,22,55,44,53,29
52,-1,-53,-25,52,-27,-27,29,57,48,58,34
60,0,-60,-29,60,-30,-29,35,58,45,56,35
63,-2,-65,-30,64,-33,-29,38,60,35,44,31
60,-6,-66,-27,63,-36,-27,35,60,20,26,22
50,-11,-61,-19,55,-35,-23,24,58,-1,3,9
32,-15,-48,-8,40,-32,-17,5,51,-28,-23,-4
14,-19,-34,2,24,-28,-11,-15,42,-58,-48,-18
-1,-22,-22,11,10,-23,-6,-30,34,-82,-67,-31
-12,-24,-13,18,0,-20,-1,-39,31,-98,-80,-40
-20,-26,-6,23,-7,-17,3,-41,33,-104,-86,-46
-24,-25,-1,25,-12,-14,5,-40,41,-101,-85,-48
-26,-21,4,24,-15,-9,5,-36,55,-90,-78,-46
-26,-18,8,22,-17,-5,5,-29,72,-75,-69,-42
-25,-15,10,20,-18,-3,5,-21,90,-60,-60,-38
-24,-12,12,18,-18,0,5,-13,105,-46,-52,-34
-23,-7,15,15,-19,3,5,-6,119,-32,-43,-31
-22,-1,20,12,-21,8,6,1,129,-19,-36,-28
-22,2,23,10,-23,12,8,7,134,-9,-30,-27
-22,3,25,10,-24,14,11,12,136,-2,-27,-26
-23,2,25,11,-24,14,13,15,132,0,-25,-26
-23,1,24,11,-24,13,14,17,126,1,-24,-26
-24,0,24,12,-24,12,15,18,119,1,-23,-27
-25,0,25,12,-25,13,15,16,114,2,-21,-27
-25,0,25,13,-26,12,16,14,111,3,-20,-27
-25,0,24,13,-25,11,17,13,107,4,-18,-27
-25,-2,22,14,-24,9,18,13,102,4,-17,-26
-24,-4,19,14,-22,7,19,12,98,4,-17,-25
-24,-5,18,15,-21,5,20,13,96,5,-16,-24
-25,-7,17,16,-21,4,21,13,95,6,-15,-24
-25,-7,17,16,-21,4,21,14,93,7,-15,-23
-25,-8,17,16,-21,4,20,13,89,7,-14,-23
-25,-9,16,17,-21,3,20,11,82,7,-13,-22
-25,-10,15,17,-20,1,19,8,70,5,-13,-21
-24,-10,13,17,-19,0,18,5,55,2,-13,-21
-23,-11,11,17,-18,-1,17,1,36,-1,-13,-20
-21,-12,8,17,-15,-3,15,-2,15,-4,-13,-20
-19,-14,4,17,-12,-6,12,-4,-3,-6,-12,-18
-17,-15,1,16,-9,-8,10,-5,-16,-7,-11,-16
-15,-16,-1,16,-7,-9,8,-5,-25,-7,-11,-15
-14,-16,-2,15,-6,-9,6,-5,-32,-7,-10,-14
-13,-15,-2,14,-6,-9,5,-5,-37,-7,-10,-14
-12,-14,-3,13,-5,-9,4,-4,-41,-8,-9,-14
-11,-14,-3,13,-4,-9,2,-4,-45,-8,-9,-14
-10,-14,-4,12,-3,-10,1,-4,-48,-7,-8,-13
-10,-14,-4,12,-3,-10,1,-5,-51,-7,-8,-12
-9,-13,-5,11,-2,-9,0,-5,-52,-7,-8,-12
-9,-14,-5,11,-2,-9,0,-5,-53,-7,-8,-11
-9,-15,-6,12,-2,-10,0,-5,-54,-8,-8,-11
-9,-16,-6,12,-1,-11,0,-5,-54,-8,-8,-10
-9,-16,-6,12,-1,-11,0,-5,-55,-8,-8,-10
-9,-15,-6,12,-1,-11,0,-5,-56,-8,-8,-10
-9,-15,-6,12,-1,-11,0,-5,-57,-8,-8,-10
-8,-15,-6,12,-1,-12,0,-5,-57,-9,-8,-10
-8,-15,-7,12,0,-12,0,-5,-57,-9,-8,-10
-8,-15,-7,12,0,-11,0,-5,-57,-10,-8,-10
-8,-15,-7,11,0,-11,0,-6,-57,-10,-8,-10
-8,-15,-7,12,-1,-11,0,-6,-57,-10,-9,-11
-9,-16,-6,12,-1,-11,0,-6,-57,-11,-9,-12
-9,-16,-6,12,-1,-11,0,-6,-57,-11,-10,-12
-9,-15,-6,12,-1,-11,-1,-6,-57,-11,-10,-12
-9,-15,-5,12,-1,-11,-1,-6,-58,-11,-10,-12
-8,-14,-5,12,-1,-10,-1,-6,-57,-11,-10,-12
-7,-13,-5,11,-1,-10,-1,-5,-56,-11,-9,-11
-6,-13,-6,10,0,-10,-1,-4,-55,-11,-9,-11
-6,-14,-7,10,0,-11,0,-4,-54,-10,-9,-10
-6,-14,-7,10,1,-11,0,-4,-53,-10,-9,-11
-6,-14,-7,10,1,-11,0,-4,-53,-11,-9,-11
-6,-13,-6,10,0,-10,0,-4,-53,-11,-9,-12
-6,-12,-6,10,0,-9,0,-4,-53,-11,-9,-12
-6,-13,-6,10,0,-10,0,-4,-53,-11,-9,-13
-6,-13,-6,10,0,-10,0,-3,-52,-11,-10,-13
-6,-13,-7,10,0,-11,0,-3,-51,-11,-10,-14
-5,-13,-7,9,0,-11,0,-3,-51,-11,-11,-14
-5,-13,-7,9,0,-10,0,-3,-50,-11,-11,-14
-4,-12,-7,8,1,-10,0,-3,-50,-11,-11,-14
-4,-12,-7,8,1,-10,0,-3,-49,-11,-11,-14
-4,-12,-6,8,1,-9,0,-3,-49,-11,-11,-13
-5,-12,-6,8,1,-9,0,-3,-48,-11,-11,-13
-5,-12,-6,9,1,-10,0,-3,-48,-12,-11,-13
-6,-13,-6,9,0,-10,0,-3,-49,-12,-11,-13
-7,-13,-5,9,-1,-9,0,-4,-49,-12,-11,-13
-8,-13,-4,10,-2,-9,0,-4,-50,-12,-11,-13
-8,-14,-5,10,-1,-10,0,-3,-50,-12,-11,-13
-7,-13,-6,10,0,-10,0,-3,-50,-12,-11,-13
-5,-10,-5,8,0,-8,0,-2,-50,-12,-11,-13
-3,-9,-6,7,1,-8,0,-2,-50,-12,-10,-13
-3,-9,-6,7,1,-8,0,-2,-50,-12,-10,-13
-4,-9,-5,7,1,-8,0,-2,-50,-12,-10,-13
-4,-9,-4,7,0,-7,0,-2,-51,-12,-10,-12
-4,-9,-4,7,0,-7,0,-2,-51,-12,-10,-12
-5,-9,-4,7,0,-8,0,-2,-52,-12,-10,-13
-5,-10,-5,8,0,-8,0,-2,-52,-12,-11,-14
-5,-10,-5,8,0,-8,0,-2,-53,-13,-11,-15
-4,-8,-4,7,0,-7,0,-2,-53,-12,-10,-15
-4,-7,-3,6,0,-5,0,-2,-54,-12,-10,-15
-4,-6,-2,5,-1,-4,0,-2,-54,-11,-9,-14
-3,-6,-2,5,0,-4,0,-2,-54,-11,-9,-14
-3,-6,-2,4,0,-4,-1,-2,-54,-11,-8,-13
-3,-6,-2,4,0,-4,-1,-2,-54,-11,-8,-13
-2,-6,-2,4,0,-5,-1,-2,-54,-11,-7,-12
-2,-6,-3,4,0,-5,-1,-2,-54,-10,-6,-12
-2,-6,-4,4,1,-5,-1,-2,-54,-10,-5,-12
-2,-6,-4,4,0,-5,-2,-3,-54,-10,-5,-12
-2,-5,-3,4,0,-5,-2,-3,-54,-10,-5,-13
-1,-4,-3,3,0,-4,-2,-3,-55,-10,-5,-13
0,-3,-3,2,1,-4,-3,-3,-55,-10,-4,-12
0,-3,-2,2,1,-3,-3,-3,-55,-9,-4,-12
0,-2,-2,1,1,-3,-4,-3,-55,-9,-3,-12
0,-1,-2,1,1,-2,-4,-3,-55,-10,-3,-12
1,-1,-2,0,1,-2,-4,-3,-55,-10,-3,-12
1,-1,-2,0,2,-2,-5,-3,-55,-9,-2,-12
2,0,-3,0,2,-2,-5,-3,-55,-9,-2,-12
2,0,-3,0,2,-2,-6,-3,-55,-9,-2,-11
3,0,-3,-1,2,-2,-6,-3,-55,-9,-2,-11
4,1,-3,-2,3,-2,-7,-3,-55,-9,-2,-11
5,2,-4,-3,4,-2,-7,-3,-55,-8,-1,-10
5,2,-4,-3,5,-2,-7,-3,-55,-8,0,-9
5,1,-5,-3,5,-3,-8,-3,-56,-8,1,-8
6,0,-6,-3,6,-3,-8,-3,-56,-9,1,-8
8,1,-7,-4,7,-3,-9,-3,-56,-9,1,-8
9,1,-7,-5,8,-3,-9,-3,-56,-9,1,-9
10,2,-8,-6,9,-3,-9,-3,-56,-8,1,-9
10,2,-8,-6,9,-3,-9,-4,-56,-8,1,-10
10,3,-7,-6,8,-3,-9,-4,-56,-9,1,-10
10,3,-7,-6,8,-3,-10,-4,-56,-9,1,-11
11,4,-6,-7,8,-2,-11,-3,-56,-9,1,-11
11,5,-6,-7,8,-1,-12,-4,-56,-9,1,-11
11,5,-6,-8,8,0,-12,-4,-56,-10,1,-11
12,5,-6,-8,9,0,-12,-3,-56,-9,1,-11
12,5,-7,-8,9,0,-12,-3,-56,-9,2,-11
13,5,-7,-8,10,0,-12,-3,-56,-9,1,-12
13,6,-7,-9,10,0,-12,-3,-56,-10,1,-12
13,6,-7,-9,10,-1,-12,-3,-55,-11,0,-13
13,6,-7,-9,10,-1,-12,-3,-55,-11,0,-13
14,6,-7,-10,11,-1,-13,-3,-55,-11,1,-13
15,7,-7,-11,11,-1,-13,-3,-55,-11,1,-13
15,7,-7,-11,11,-1,-13,-3,-54,-12,1,-14
15,7,-7,-10,11,-1,-13,-2,-54,-12,0,-14
15,7,-7,-10,11,-1,-13,-2,-53,-12,0,-15
15,7,-8,-11,12,0,-13,-2,-53,-12,-1,-15
16,7,-8,-11,12,0,-13,-2,-52,-13,-2,-16
16,7,-9,-11,12,-1,-13,-2,-52,-13,-3,-17
16,6,-9,-11,12,-2,-13,-2,-52,-13,-3,-18
16,6,-9,-10,12,-2,-13,-2,-52,-13,-3,-18
15,6,-9,-10,11,-2,-13,-2,-52,-12,-3,-19
15,6,-8,-10,11,-1,-12,-1,-50,-12,-3,-20
15,7,-8,-11,11,-1,-12,-1,-49,-12,-2,-20
15,6,-8,-10,11,-2,-12,-1,-47,-12,-2,-20
14,5,-8,-9,11,-2,-12,-1,-46,-11,-2,-21
14,5,-8,-9,11,-2,-11,0,-45,-10,-2,-20
14,5,-7,-9,11,-2,-11,0,-44,-9,-1,-20
13,5,-6,-9,10,-1,-11,-1,-43,-9,-1,-21
12,5,-5,-9,9,-1,-11,-2,-42,-9,-1,-21
11,5,-5,-8,9,-1,-11,-2,-41,-8,-1,-21
10,4,-5,-7,8,-1,-10,-2,-39,-7,-1,-20
10,4,-5,-7,8,-1,-10,-2,-37,-6,-1,-20
9,4,-4,-6,7,-1,-9,-2,-35,-5,-1,-20
9,5,-3,-6,6,0,-9,-2,-33,-4,-1,-21
9,6,-2,-6,5,1,-9,-2,-32,-3,-1,-21
9,7,-1,-7,5,2,-9,-2,-31,-2,-1,-22
9,8,-1,-8,6,2,-9,-2,-29,-1,-1,-23
10,9,-1,-9,6,2,-8,-2,-27,0,0,-23
10,10,0,-10,5,4,-8,-2,-26,1,0,-23
11,11,0,-10,5,5,-9,-3,-25,2,0,-22
11,11,0,-10,6,5,-9,-3,-24,2,0,-22
11,10,0,-10,5,5,-9,-3,-23,3,0,-21
11,10,1,-10,5,5,-9,-3,-23,4,0,-21
11,10,1,-10,5,5,-9,-3,-22,4,1,-21
11,11,1,-10,5,5,-9,-3,-22,5,1,-20
11,11,1,-11,6,5,-9,-3,-21,5,1,-20
12,12,0,-11,6,5,-8,-3,-21,5,1,-20
12,11,0,-11,7,5,-8,-2,-20,5,1,-20
12,10,-2,-10,7,3,-7,-2,-19,5,1,-20
12,8,-3,-10,8,2,-6,-2,-19,5,0,-21
13,8,-4,-10,8,1,-6,-1,-19,4,0,-21
13,7,-5,-10,8,1,-6,-1,-20,4,0,-21
12,7,-5,-9,8,0,-6,-1,-20,4,-1,-21
11,6,-4,-8,8,0,-6,-1,-21,3,-2,-22
9,5,-4,-7,7,0,-6,-1,-21,2,-2,-22
9,5,-4,-6,7,0,-5,-1,-21,2,-3,-22
9,5,-4,-6,7,0,-4,0,-20,2,-3,-21
8,4,-4,-6,7,0,-3,0,-21,2,-3,-20
8,4,-4,-5,6,0,-3,1,-21,2,-4,-20
7,3,-4,-4,5,-1,-2,2,-22,1,-5,-20
6,1,-4,-3,5,-1,-1,2,-23,1,-5,-21
5,0,-4,-2,4,-2,0,3,-23,0,-6,-21
4,-1,-4,-1,4,-3,0,3,-24,0,-6,-20
3,-2,-4,0,4,-4,0,3,-24,0,-6,-20
2,-3,-4,1,4,-4,1,3,-25,0,-6,-19
1,-4,-4,1,3,-4,1,3,-26,-1,-7,-19
1,-4,-5,2,3,-5,1,3,-27,-2,-7,-19
1,-4,-5,2,3,-5,2,3,-28,-3,-8,-18
1,-4,-5,2,3,-5,2,3,-29,-3,-8,-18
0,-5,-5,2,3,-6,3,3,-29,-3,-8,-17
0,-5,-5,3,3,-6,3,3,-30,-4,-8,-17
0,-5,-4,3,2,-5,3,3,-30,-4,-8,-16
0,-5,-4,3,2,-5,3,3,-31,-4,-8,-16
0,-5,-4,3,2,-5,3,3,-31,-4,-7,-15
0,-5,-4,3,2,-5,3,3,-31,-4,-7,-14
-1,-5,-4,4,1,-5,3,3,-31,-4,-6,-13
-1,-6,-4,4,1,-6,3,3,-31,-4,-6,-12
0,-6,-5,4,2,-6,3,4,-31,-4,-5,-11
0,-6,-5,4,2,-6,3,4,-31,-4,-5,-11
0,-6,-5,4,2,-5,3,5,-31,-4,-5,-10
0,-6,-5,4,2,-5,4,5,-31,-4,-5,-10
-1,-6,-4,4,1,-5,4,5,-31,-4,-5,-9
-1,-5,-3,3,1,-4,3,4,-31,-4,-5,-9
-1,-4,-3,3,1,-4,3,4,-31,-4,-5,-8
-1,-4,-3,3,1,-4,3,4,-30,-4,-5,-7
-1,-5,-3,3,1,-4,3,4,-30,-4,-5,-6
-1,-5,-3,3,1,-4,3,4,-30,-4,-5,-6
-1,-5,-3,3,1,-4,3,4,-30,-4,-5,-5
-1,-5,-3,3,1,-5,3,4,-30,-4,-4,-5
-1,-5,-3,3,1,-5,3,5,-30,-3,-4,-4
0,-5,-3,3,1,-5,3,5,-30,-3,-3,-4
0,-4,-3,2,1,-4,3,5,-30,-3,-3,-3
-1,-4,-3,2,0,-4,3,5,-30,-3,-3,-2
-1,-4,-3,2,0,-4,2,5,-31,-3,-3,-2
-1,-4,-2,3,0,-4,2,5,-31,-3,-3,-1
-2,-4,-2,3,0,-4,1,4,-32,-4,-4,-1
-2,-5,-2,4,0,-4,1,4,-32,-4,-4,0
-2,-5,-3,4,0,-4,2,5,-32,-4,-3,0
-1,-5,-2,4,0,-4,2,5,-32,-4,-3,1
-1,-4,-2,3,0,-3,2,4,-32,-4,-3,1
-1,-3,-1,2,0,-2,2,4,-33,-4,-3,2
-1,-3,-1,2,0,-2,2,4,-33,-3,-2,3
0,-3,-1,2,0,-2,2,4,-33,-3,-2,4
0,-3,-1,2,0,-2,2,4,-34,-3,-3,4
-1,-3,-1,2,0,-2,2,4,-35,-3,-3,4
-1,-3,-1,3,0,-2,2,3,-36,-4,-4,4
-1,-3,0,3,-1,-2,2,3,-38,-4,-4,5
-1,-3,0,3,-1,-2,2,3,-38,-4,-4,5
-2,-3,0,3,-1,-3,2,3,-38,-4,-3,6
-2,-3,0,3,-1,-2,2,3,-39,-4,-3,6
-2,-2,0,3,-1,-2,2,3,-39,-4,-2,6
-2,-2,0,3,-1,-2,2,3,-39,-4,-2,6
-1,-2,0,3,-1,-2,2,3,-40,-4,-2,6
-1,-2,0,2,-1,-1,2,3,-41,-4,-2,7
-1,-2,0,2,-1,-1,2,3,-41,-4,-1,7
-2,-2,0,3,-1,-2,2,3,-41,-4,-1,8
-2,-3,0,3,-1,-2,1,2,-42,-4,-1,8
-2,-3,0,3,-1,-2,1,2,-42,-4,-1,8
-2,-3,0,3,-1,-2,1,2,-41,-4,-1,9
-2,-3,0,3,-1,-2,1,2,-41,-3,-1,9
-2,-3,0,3,-1,-2,1,2,-41,-3,-1,10
-2,-2,0,3,-1,-2,1,2,-41,-3,0,10
-1,-2,0,2,-1,-1,1,2,-41,-3,0,10
-1,-1,0,1,-1,0,1,2,-40,-3,0,10
-1,0,1,1,-1,0,1,2,-40,-2,0,10
-2,-1,2,2,-2,0,0,1,-40,-2,0,10
-4,-3,1,4,-3,-1,0,1,-40,-2,0,9
-5,-5,0,5,-3,-2,0,0,-40,-2,0,9
-5,-5,0,5,-3,-2,0,0,-40,-2,0,10
-4,-3,0,4,-2,-2,0,0,-39,-2,0,10
-3,-2,1,4,-2,-1,0,0,-39,-2,0,10
-3,-2,1,3,-2,-1,0,0,-38,-2,0,9
-4,-1,2,3,-3,0,0,0,-36,-1,0,9
-4,-1,2,3,-3,0,0,1,-34,0,0,8
-5,-1,3,3,-4,1,1,2,-30,4,1,8
-5,0,6,3,-6,3,1,4,-24,8,2,8
-5,3,9,1,-7,6,1,5,-19,14,6,10
-4,7,12,-1,-8,10,1,6,-13,22,12,14
-2,12,14,-4,-8,13,-1,7,-9,32,22,21
3,16,13,-9,-5,14,-4,7,-8,41,36,30
11,19,8,-15,1,14,-9,8,-11,49,50,41
22,23,1,-22,10,12,-14,9,-15,57,65,53
34,26,-8,-30,21,9,-19,12,-20,64,79,64
46,27,-18,-36,32,4,-24,17,-24,71,92,74
57,27,-29,-41,43,0,-28,21,-28,76,101,82
65,27,-39,-45,52,-6,-31,25,-31,77,104,87
71,24,-48,-47,60,-12,-32,28,-35,70,96,85
72,17,-56,-44,64,-20,-32,29,-40,56,78,76
68,9,-59,-38,64,-25,-29,26,-45,38,55,63
61,4,-56,-33,58,-26,-27,19,-51,20,33,51
50,1,-48,-26,49,-23,-23,9,-56,2,12,38
37,-1,-37,-18,37,-19,-18,-2,-59,-15,-8,24
22,-4,-27,-8,24,-16,-12,-12,-61,-32,-27,10
8,-9,-18,1,13,-14,-6,-17,-62,-47,-44,-3
-3,-15,-12,10,4,-14,0,-19,-61,-58,-55,-14
-10,-18,-8,15,-2,-13,4,-19,-56,-62,-61,-20
-14,-19,-4,17,-6,-11,6,-16,-46,-60,-60,-22
-16,-17,-2,16,-8,-9,7,-12,-34,-53,-56,-22
-16,-16,0,15,-8,-8,9,-7,-21,-46,-52,-22
-15,-14,1,14,-9,-6,10,-2,-9,-39,-49,-21
-15,-11,4,13,-10,-3,10,1,3,-32,-45,-20
-15,-7,8,11,-12,0,10,4,13,-25,-40,-18
-16,-3,13,10,-15,4,10,6,23,-19,-35,-16
-18,0,17,10,-18,8,11,8,31,-14,-32,-16
-20,1,21,10,-20,10,12,10,40,-9,-29,-15
-21,2,23,9,-22,12,14,13,48,-6,-26,-15
-22,3,25,9,-23,13,15,15,53,-4,-24,-15
-22,3,25,9,-24,14,17,16,57,-3,-23,-15
-22,3,26,10,-24,14,19,17,61,-2,-22,-15
-23,3,27,10,-25,14,21,17,64,-2,-21,-16
-24,3,28,11,-26,15,22,18,67,-2,-21,-16
-25,2,27,12,-26,14,23,18,68,-2,-20,-16
-25,1,26,12,-26,13,23,19,71,-1,-19,-16
-24,2,26,11,-25,14,23,19,74,0,-18,-15
-22,4,26,9,-25,15,23,19,78,1,-16,-13
-21,5,27,8,-24,16,24,20,80,3,-14,-12
-21,6,27,7,-24,16,25,21,82,4,-13,-11
-20,6,27,7,-24,16,25,21,85,5,-13,-10
-20,7,27,7,-24,17,24,19,86,6,-12,-8
-20,7,27,7,-24,17,22,15,83,7,-11,-7
-19,7,27,7,-23,17,19,9,75,6,-9,-5
-17,8,25,5,-22,16,16,3,63,5,-8,-3
-15,8,23,4,-19,15,13,-1,47,4,-7,-1
-12,8,20,2,-16,13,10,-4,29,2,-6,0
-8,9,17,0,-13,12,7,-6,14,0,-6,2
-5,9,15,-2,-10,11,5,-7,2,0,-5,4
-3,9,12,-3,-8,10,3,-7,-5,0,-3,6
-1,9,10,-3,-6,9,2,-7,-11,0,-2,8
0,9,9,-4,-5,8,1,-7,-16,0,0,9
0,9,8,-4,-4,8,0,-7,-19,0,0,10
1,9,7,-5,-3,7,-1,-6,-22,1,1,11
2,9,6,-5,-2,7,-1,-5,-23,1,2,12
2,8,6,-5,-1,6,-2,-5,-24,2,2,13
3,8,6,-5,-1,6,-2,-5,-25,2,2,14
2,8,6,-5,-2,6,-2,-5,-26,2,2,15
1,7,6,-4,-2,6,-2,-5,-28,2,2,15
0,5,5,-3,-2,5,-2,-5,-29,1,2,15
-1,4,5,-2,-3,4,-1,-5,-30,1,2,15
-2,4,6,-1,-3,5,-1,-5,-31,1,2,15
-2,4,6,-1,-4,5,-1,-5,-32,0,2,14
-3,3,6,0,-5,5,0,-6,-32,0,2,14
-3,2,6,0,-4,4,0,-6,-32,0,2,14
-3,2,5,1,-4,3,1,-6,-32,-1,1,13
-3,1,5,1,-4,3,1,-6,-33,-1,1,13
-3,1,5,1,-4,2,1,-5,-33,-1,1,13
-3,0,5,1,-4,2,1,-5,-33,-1,1,13
-4,0,5,1,-4,2,1,-4,-33,-1,1,12
-4,0,5,2,-4,1,1,-4,-33,-1,1,12
-5,-1,5,3,-5,1,1,-3,-33,-1,1,11
-6,0,6,3,-5,2,1,-3,-33,-1,1,11
-6,0,6,3,-6,2,1,-3,-33,-1,1,10
-6,0,6,3,-6,2,1,-3,-34,-1,1,10
-6,0,6,3,-6,2,1,-3,-34,-1,0,10
-6,0,6,3,-6,2,1,-4,-35,-2,0,10
-6,0,6,3,-6,2,0,-4,-35,-2,0,9
-5,0,6,3,-6,2,0,-4,-36,-2,0,8
-4,0,5,2,-5,2,1,-3,-35,-2,0,8
-3,1,5,1,-4,2,1,-3,-35,-2,0,8
-3,1,5,1,-4,2,1,-3,-35,-2,0,7
-3,1,5,1,-4,2,1,-3,-35,-2,0,7
-3,1,4,1,-4,2,1,-3,-34,-2,0,6
-4,0,4,2,-4,1,1,-3,-34,-2,-1,6
-4,0,3,2,-4,1,1,-3,-34,-2,-1,5
-3,0,3,2,-4,1,1,-3,-34,-2,-1,5
-3,0,3,2,-3,1,1,-3,-34,-2,-1,4
-3,-1,3,2,-3,0,1,-3,-33,-2,-1,4
-3,-2,2,2,-2,0,1,-3,-32,-2,-1,3
-3,-3,1,3,-2,-1,1,-3,-32,-2,-1,3
-3,-3,1,3,-2,-1,1,-3,-32,-2,-2,2
-2,-2,1,2,-2,0,1,-3,-32,-2,-2,2
-2,-1,2,2,-2,0,1,-3,-31,-2,-2,1
-3,-1,2,2,-2,0,1,-4,-31,-2,-3,1
-3,-2,2,2,-2,0,1,-4,-31,-2,-3,0
-4,-3,1,3,-2,-1,1,-4,-30,-2,-3,0
-4,-3,1,3,-2,-1,1,-4,-30,-2,-3,0
-3,-3,1,3,-2,-1,1,-4,-30,-2,-3,-1
-2,-2,1,2,-2,0,1,-4,-30,-2,-3,-1
-2,-1,1,1,-2,0,1,-4,-30,-2,-3,-2
-3,-2,1,2,-2,0,1,-4,-30,-2,-3,-2
-4,-3,1,3,-2,-1,1,-4,-30,-2,-3,-2
-3,-3,0,3,-2,-1,1,-4,-30,-2,-3,-2
-3,-2,0,2,-1,-1,1,-4,-29,-2,-3,-2
-3,-3,0,2,-2,-1,1,-4,-29,-2,-3,-2
-3,-3,1,2,-2,-1,1,-4,-29,-2,-3,-3
-3,-2,1,2,-2,-1,1,-4,-29,-2,-3,-3
-3,-2,1,2,-2,-1,1,-4,-29,-2,-3,-3
-2,-2,1,2,-1,-1,0,-4,-29,-2,-2,-3
-1,-1,1,1,-1,0,0,-4,-29,-2,-2,-2
0,0,0,0,-1,0,0,-4,-29,-1,-1,-2
0,0,0,0,0,0,0,-4,-29,-1,-1,-1
-1,-1,0,0,0,0,0,-4,-30,-1,0,-1
-1,-1,0,1,0,0,0,-4,-31,-1,0,-1
-1,-1,0,0,0,0,-1,-5,-31,-1,0,0
0,0,0,0,0,0,-1,-5,-32,-1,0,0
0,0,0,0,0,0,-1,-6,-32,-1,1,0
0,0,0,0,0,0,-2,-6,-33,-1,1,1
0,1,1,0,0,0,-2,-6,-34,-1,1,1
0,1,1,-1,0,1,-2,-6,-35,-1,2,2
1,2,1,-1,0,1,-2,-6,-35,-1,3,3
1,2,1,-2,0,1,-3,-7,-36,-1,4,4
2,2,1,-2,0,1,-3,-7,-37,-2,5,5
2,3,1,-3,0,2,-4,-7,-38,-2,6,6
2,3,1,-3,0,2,-4,-7,-39,-2,6,7
2,3,1,-3,0,2,-4,-8,-40,-2,7,8
3,3,0,-3,1,1,-4,-8,-41,-2,7,9
4,3,0,-4,1,1,-5,-8,-42,-3,8,10
4,4,0,-4,2,1,-6,-9,-43,-3,8,10
5,4,0,-5,3,1,-6,-9,-44,-4,9,11
6,4,-1,-5,3,1,-7,-9,-45,-4,9,12
5,3,-1,-4,3,1,-7,-10,-46,-5,9,13
5,3,-1,-4,3,1,-7,-10,-46,-5,9,13
5,4,-1,-5,3,1,-7,-11,-47,-5,9,14
6,5,-1,-5,4,1,-8,-11,-47,-6,9,14
7,5,-1,-6,4,1,-8,-12,-48,-6,9,15
8,6,-1,-7,5,1,-8,-12,-48,-7,9,15
8,7,-1,-7,5,2,-8,-12,-48,-7,10,16
9,7,-1,-7,5,2,-9,-12,-48,-7,10,16
9,7,-1,-8,5,1,-9,-12,-49,-7,10,17
9,7,-2,-8,6,1,-9,-12,-49,-7,10,17
10,7,-3,-8,6,0,-9,-12,-49,-7,10,18
10,6,-3,-8,6,0,-9,-12,-49,-7,10,18
9,5,-3,-7,6,0,-10,-12,-50,-8,9,18
9,5,-3,-7,6,0,-10,-13,-50,-9,8,17
10,5,-3,-7,7,0,-10,-12,-49,-9,8,17
11,6,-3,-8,8,0,-10,-12,-49,-9,8,17
11,6,-4,-9,8,0,-10,-12,-48,-9,8,17
10,5,-4,-8,8,-1,-9,-11,-48,-9,8,16
10,4,-5,-8,8,-1,-9,-11,-47,-9,7,16
10,4,-5,-8,8,-1,-9,-10,-47,-9,7,16
10,4,-5,-8,8,-1,-9,-10,-46,-9,7,16
11,5,-6,-8,8,-1,-8,-9,-45,-8,7,16
11,5,-6,-8,8,-1,-8,-9,-44,-8,7,15
11,5,-6,-8,8,-1,-7,-8,-43,-7,7,14
11,5,-6,-8,8,-1,-7,-8,-42,-7,6,13
11,4,-6,-7,8,-1,-7,-8,-41,-7,6,12
11,5,-5,-8,8,-1,-6,-7,-40,-7,5,11
11,6,-4,-8,7,0,-6,-7,-39,-6,5,10
10,6,-4,-8,7,0,-5,-7,-38,-6,4,9
9,4,-5,-6,8,-1,-5,-6,-36,-5,4,9
9,2,-5,-5,8,-2,-4,-5,-35,-5,3,8
8,2,-5,-5,7,-2,-4,-4,-34,-5,2,7
8,2,-5,-5,6,-2,-3,-3,-33,-5,2,6
7,1,-4,-4,5,-2,-3,-3,-32,-5,1,5
6,1,-4,-4,5,-2,-2,-3,-30,-4,1,4
5,0,-4,-3,5,-2,-2,-2,-29,-4,1,3
4,0,-4,-2,4,-3,-1,-2,-28,-4,0,2
3,0,-3,-2,3,-2,-1,-2,-27,-4,0,1
3,0,-2,-1,2,-2,-1,-2,-26,-4,-1,0
2,0,-2,-1,2,-2,0,-1,-25,-3,-1,0
2,0,-2,-1,2,-2,0,-1,-23,-3,-1,0
2,0,-2,-1,2,-2,0,0,-22,-3,-2,-1
2,0,-2,-1,2,-2,1,0,-21,-3,-2,-1
3,0,-2,-2,2,-1,1,0,-20,-3,-2,-2
3,1,-1,-3,2,-1,2,0,-19,-2,-2,-2
2,1,-1,-2,1,0,1,0,-19,-2,-2,-2
1,1,0,-1,0,0,1,0,-19,-2,-3,-3
0,0,0,0,0,0,1,0,-18,-2,-3,-3
-1,0,1,1,-1,0,1,0,-17,-3,-3,-4
-2,-1,1,2,-1,0,1,0,-17,-3,-4,-5
-3,-1,2,2,-2,0,1,-1,-16,-3,-4,-5
-2,0,2,1,-2,1,1,-2,-15,-3,-4,-5
-1,1,3,0,-2,2,1,-2,-14,-2,-4,-5
-1,3,4,-1,-2,3,1,-3,-13,-2,-3,-4
-1,4,5,-1,-3,3,1,-3,-12,-1,-2,-4
-1,4,6,-1,-3,4,1,-4,-12,-1,-2,-3
-2,4,6,-1,-4,4,0,-4,-11,-1,-2,-3
-2,4,7,-1,-4,5,0,-5,-11,-1,-2,-2
-1,5,8,-2,-4,6,0,-5,-10,0,-1,-1
0,7,8,-3,-4,7,0,-5,-9,0,-1,0
0,8,8,-4,-4,7,-1,-5,-8,1,0,0
0,9,8,-5,-4,8,-1,-6,-6,1,0,0
0,9,8,-5,-4,8,-2,-6,-5,2,0,1
0,9,8,-5,-4,8,-2,-6,-4,2,0,1
1,9,8,-5,-4,8,-3,-6,-3,3,0,2
2,10,8,-6,-3,8,-3,-6,-3,3,1,2
3,10,8,-7,-2,8,-4,-6,-3,4,1,3
3,10,7,-7,-1,8,-4,-5,-2,5,2,3
4,10,7,-7,-1,8,-4,-5,-2,6,3,4
4,11,7,-7,-1,8,-4,-4,-1,7,4,4
4,11,7,-7,-1,8,-4,-4,-1,7,4,4
5,11,6,-8,0,7,-4,-3,-1,7,4,5
5,10,5,-8,0,7,-4,-2,-1,7,4,5
5,9,5,-8,1,6,-4,-2,-1,7,4,5
5,8,4,-7,1,5,-4,-2,-1,7,4,5
6,7,3,-7,1,4,-4,-2,-1,6,4,5
6,7,3,-7,1,4,-3,-2,-2,6,3,5
5,6,2,-6,1,3,-3,-2,-2,5,3,4
5,5,0,-5,1,1,-3,-2,-2,5,2,4
5,4,0,-4,2,0,-3,-2,-3,5,2,4
5,3,0,-3,2,0,-3,-2,-3,4,2,4
5,3,0,-4,2,1,-3,-2,-4,4,2,4
4,3,0,-4,2,1,-2,-1,-4,4,2,4
3,3,0,-3,1,0,-2,-1,-4,4,1,4
2,2,0,-2,1,0,-1,-1,-5,3,1,3
1,1,0,-1,0,0,-1,-1,-6,3,0,3
0,0,0,-1,0,-1,0,-1,-6,2,0,2
0,0,0,0,0,-1,0,0,-6,2,0,1
-1,0,1,0,-1,0,1,0,-6,2,0,0
-2,-1,2,2,-2,0,1,0,-6,2,-1,0
-3,-1,2,2,-3,-1,2,0,-6,2,-1,0
-4,-2,2,3,-3,-1,2,0,-6,2,-1,-1
-4,-2,3,3,-3,0,2,0,-6,1,-1,-1
-5,-2,3,3,-3,0,2,0,-6,1,-2,-1
-5,-2,3,3,-4,-1,2,0,-7,0,-2,-1
-5,-3,3,4,-4,-1,2,0,-7,0,-2,-1
-5,-3,3,4,-4,-1,2,0,-8,0,-2,-1
-4,-3,3,3,-4,-1,2,0,-8,0,-2,-1
-4,-3,3,3,-4,-1,2,0,-8,0,-1,-1
-4,-3,3,3,-4,-1,2,0,-8,0,0,-1
-3,-2,3,2,-3,0,2,1,-8,1,0,0
-3,-1,3,2,-3,0,2,1,-8,1,0,0
-4,-2,3,2,-3,0,2,1,-8,0,0,0
-4,-2,3,2,-3,0,2,1,-8,0,0,0
-4,-2,3,2,-3,0,2,1,-8,0,0,0
-4,-3,3,3,-4,0,2,1,-8,0,0,-1
-5,-3,3,4,-4,-1,2,1,-8,0,0,-1
-5,-3,3,4,-4,0,2,2,-7,0,0,-2
-5,-2,3,4,-4,0,2,2,-7,0,-1,-2
-5,-2,3,4,-4,0,2,2,-7,0,-1,-2
-5,-3,2,5,-4,-1,2,1,-7,0,-1,-2
-5,-3,2,5,-4,-1,2,1,-7,0,-1,-2
-5,-3,1,4,-3,-1,2,1,-6,0,-1,-2
-4,-3,1,4,-3,-1,2,1,-6,-1,-1,-2
-5,-4,1,5,-3,-2,2,1,-6,-1,-1,-2
-6,-5,2,6,-4,-2,2,1,-6,-1,-2,-2
-7,-5,2,6,-5,-2,1,1,-7,-1,-2,-2
-7,-5,2,6,-5,-2,1,1,-7,-1,-3,-3
-7,-5,2,6,-5,-2,2,1,-7,-1,-3,-3
-6,-5,2,6,-4,-2,2,1,-7,-1,-3,-3
-6,-4,2,5,-4,-2,3,2,-7,-1,-3,-3
-5,-4,2,5,-3,-2,3,2,-7,-1,-3,-3
-6,-5,2,5,-3,-2,3,2,-7,-2,-3,-3
-6,-5,2,6,-4,-2,3,1,-8,-2,-3,-3
-6,-5,2,6,-4,-2,3,1,-8,-2,-3,-3
-7,-5,2,6,-4,-2,3,1,-8,-2,-3,-4
-7,-5,2,6,-4,-2,3,1,-8,-2,-3,-4
-6,-4,2,5,-4,-1,3,1,-8,-2,-3,-4
-4,-3,2,4,-3,0,4,1,-8,-2,-3,-4
-4,-2,2,4,-3,0,4,1,-8,-2,-3,-4
-5,-3,2,4,-4,0,3,0,-9,-3,-3,-5
-6,-5,2,5,-4,-1,3,0,-10,-3,-4,-5
-6,-5,1,5,-4,-1,3,0,-11,-3,-3,-5
-5,-4,2,4,-4,-1,3,1,-11,-2,-3,-5
-5,-3,2,4,-4,0,3,1,-11,-2,-3,-5
-5,-3,2,4,-4,-1,4,1,-11,-3,-4,-5
-5,-4,2,4,-4,-1,4,1,-11,-3,-4,-5
-5,-4,2,4,-4,-1,4,1,-11,-3,-4,-5
-6,-4,3,5,-5,0,4,1,-11,-3,-4,-5
-6,-4,2,5,-4,-1,4,1,-11,-3,-4,-5
-6,-5,1,6,-4,-2,5,2,-11,-3,-4,-5
-6,-5,1,6,-4,-2,5,2,-11,-3,-4,-5
-7,-6,1,6,-4,-2,5,2,-11,-3,-4,-5
-7,-6,1,7,-4,-2,5,2,-12,-3,-4,-5
-7,-6,1,7,-4,-2,5,1,-12,-3,-4,-5
-7,-6,1,7,-4,-2,5,1,-12,-3,-3,-5
-7,-6,2,6,-4,-2,5,1,-12,-3,-3,-5
-6,-5,2,6,-4,-2,5,1,-12,-3,-4,-5
-6,-5,2,6,-4,-2,5,1,-12,-3,-4,-5
-6,-5,2,6,-4,-2,5,1,-12,-3,-4,-5
-7,-5,1,6,-4,-2,5,1,-12,-3,-4,-5
-7,-6,1,7,-4,-2,5,1,-11,-3,-3,-5
-7,-6,1,7,-5,-2,5,1,-11,-3,-3,-5
-7,-6,2,7,-5,-1,5,0,-12,-3,-3,-5
-8,-6,2,7,-5,-1,5,0,-12,-3,-3,-5
-8,-6,3,7,-5,-1,5,0,-11,-2,-3,-5
-9,-5,4,6,-6,0,5,0,-8,0,-1,-5
-9,-2,6,5,-7,2,5,1,-3,5,1,-4
-9,1,10,3,-9,5,5,3,3,11,4,-2
-10,4,14,2,-11,9,5,4,9,18,9,0
-9,9,18,0,-13,13,3,4,14,26,16,4
-5,14,20,-4,-13,18,0,4,17,36,27,11
1,20,20,-10,-10,20,-4,4,17,46,40,21
10,23,14,-16,-2,19,-9,6,13,54,55,33
21,25,5,-23,7,15,-14,9,7,63,70,44
33,27,-5,-30,19,11,-19,13,3,71,84,55
46,29,-16,-38,31,7,-23,19,0,78,95,63
57,29,-28,-43,43,1,-27,25,-3,83,102,68
67,24,-41,-45,54,-8,-29,33,-4,81,102,69
74,17,-56,-45,65,-19,-29,40,-6,72,90,64
78,7,-70,-43,74,-31,-27,45,-11,54,68,52
77,-3,-80,-37,78,-41,-23,44,-18,33,43,38
71,-11,-81,-30,76,-46,-20,37,-26,13,20,26
61,-18,-77,-21,68,-47,-15,24,-33,-5,0,14
47,-26,-72,-10,59,-49,-9,9,-38,-21,-18,4
31,-33,-64,1,47,-48,-2,-4,-41,-37,-34,-6
17,-38,-54,11,35,-46,5,-14,-42,-52,-48,-17
4,-40,-45,18,25,-42,11,-19,-41,-63,-58,-26
-4,-40,-36,23,15,-38,15,-21,-35,-68,-63,-32
-10,-37,-26,24,7,-31,17,-19,-26,-66,-63,-34
-14,-33,-18,23,1,-25,17,-14,-13,-60,-60,-35
-16,-28,-11,22,-3,-19,18,-7,1,-53,-56,-35
-17,-24,-6,21,-6,-15,19,0,15,-46,-53,-36
-18,-20,0,19,-9,-10,19,4,27,-39,-49,-36
-19,-14,5,17,-12,-4,19,7,38,-34,-45,-36
-20,-9,12,15,-16,2,18,9,46,-28,-40,-34
-22,-4,18,14,-20,7,18,10,54,-23,-36,-32
-24,-1,23,13,-24,11,19,12,61,-18,-33,-31
-26,0,27,12,-27,14,19,13,66,-15,-30,-29
-27,1,30,12,-29,16,20,13,68,-14,-28,-28
-28,3,32,12,-30,18,20,13,70,-12,-27,-27
-28,4,33,12,-31,19,22,12,73,-10,-24,-26
-28,5,34,12,-32,20,24,12,75,-8,-22,-26
-29,6,35,12,-32,21,26,12,78,-7,-21,-27
-29,6,34,12,-32,21,27,12,80,-5,-19,-27
-28,6,34,12,-31,20,28,12,82,-4,-18,-26
-28,6,34,11,-31,21,28,12,84,-2,-16,-25
-28,6,35,11,-31,21,28,12,85,-1,-15,-24
-27,6,35,10,-31,21,28,13,87,-1,-15,-24
-27,6,34,10,-30,21,27,14,89,0,-13,-23
-26,7,33,9,-29,21,26,13,92,2,-12,-22
-24,9,33,7,-29,22,24,10,91,3,-10,-20
-22,11,34,5,-28,23,22,5,84,3,-8,-18
-20,13,33,3,-27,24,19,0,72,2,-7,-16
-17,14,32,1,-25,23,15,-4,57,1,-7,-14
-14,14,29,0,-21,22,12,-7,40,0,-6,-13
-11,13,25,-1,-18,19,9,-8,26,-1,-6,-13
-8,12,21,-2,-14,18,6,-8,15,-2,-5,-12
-5,12,18,-3,-11,16,3,-8,8,-2,-4,-10
-3,11,15,-3,-9,15,1,-8,4,-1,-2,-9
-2,11,13,-4,-7,13,0,-8,1,0,-1,-7
0,11,12,-4,-6,12,-1,-8,-1,0,0,-6
0,11,11,-5,-5,11,-2,-7,-3,1,1,-6
1,11,10,-6,-4,11,-3,-7,-5,2,2,-5
2,10,8,-6,-3,10,-4,-6,-7,2,3,-5
3,9,7,-6,-1,8,-4,-5,-8,2,3,-4
4,9,5,-6,0,8,-5,-5,-9,2,3,-4
4,8,4,-6,0,7,-5,-6,-11,1,3,-4
5,8,3,-6,1,6,-5,-6,-12,1,3,-4
5,7,2,-6,1,5,-5,-6,-12,1,4,-4
4,7,2,-6,0,5,-4,-6,-12,1,4,-4
3,7,3,-5,0,5,-4,-6,-12,1,3,-5
3,6,3,-5,0,5,-3,-5,-12,1,3,-6
2,6,4,-4,-1,5,-3,-5,-12,1,2,-7
0,5,4,-3,-1,5,-2,-5,-12,1,2,-7
0,4,5,-2,-2,5,-1,-4,-12,1,1,-7
0,4,5,-2,-2,6,-1,-4,-12,1,1,-7
-1,5,6,-2,-3,6,0,-4,-13,1,1,-7
-2,4,7,-1,-5,6,0,-4,-14,1,1,-8
-3,3,7,0,-5,5,0,-3,-15,1,1,-8
-3,2,6,0,-5,4,0,-3,-16,0,1,-8
-3,2,5,0,-4,4,0,-2,-16,0,1,-8
-3,1,4,0,-4,3,1,-2,-16,0,1,-8
-3,1,4,0,-4,3,1,-2,-16,0,1,-8
-3,0,4,1,-4,3,1,-3,-17,0,0,-8
-3,0,4,2,-4,2,1,-4,-18,-1,0,-8
-3,-1,4,2,-4,2,2,-4,-18,-1,0,-9
-4,-1,4,3,-4,1,2,-4,-19,-2,0,-9
-4,-2,4,3,-4,1,2,-4,-20,-3,0,-10
-4,-1,4,3,-4,2,2,-4,-20,-2,-1,-11
-4,-1,4,3,-4,2,2,-4,-20,-2,-1,-11
-5,-1,4,3,-5,2,2,-3,-19,-3,-2,-12
-5,-1,5,4,-5,2,2,-3,-19,-3,-2,-13
-6,-1,5,4,-6,2,2,-3,-19,-3,-3,-13
-6,-1,6,4,-6,2,2,-3,-19,-3,-3,-13
-5,-1,6,3,-6,2,2,-3,-19,-3,-2,-13
-5,-1,6,3,-6,2,2,-2,-18,-2,-2,-12
-5,-1,5,3,-5,2,2,-2,-17,-2,-1,-12
-5,-1,5,3,-5,2,2,-2,-16,-2,-1,-11
-5,-1,4,3,-5,2,2,-2,-16,-2,-1,-11
-5,-1,4,3,-5,2,2,-2,-16,-2,-1,-10
-5,-1,3,4,-5,1,2,-2,-16,-2,0,-10
-5,-2,3,4,-5,0,2,-2,-15,-2,0,-10
-5,-2,2,3,-4,0,2,-1,-15,-2,0,-10
-4,-2,2,3,-4,0,2,0,-15,-2,0,-10
-5,-2,2,3,-4,0,2,0,-15,-3,-1,-10
-5,-2,3,4,-4,0,2,-1,-14,-3,-2,-11
-5,-2,3,4,-4,1,2,-1,-14,-3,-2,-11
-5,-1,3,3,-4,1,2,-1,-14,-2,-2,-11
-5,0,4,3,-5,2,2,-1,-14,-2,-3,-11
-5,-1,4,3,-5,2,2,-1,-14,-2,-3,-12
-5,-1,4,3,-5,2,2,-1,-14,-3,-3,-12
-5,-2,4,3,-5,2,2,-1,-14,-3,-3,-12
-5,-2,4,3,-5,1,2,-1,-14,-3,-3,-12
-5,-2,3,3,-5,1,2,-2,-14,-3,-3,-11
-5,-2,3,4,-5,1,2,-2,-14,-2,-2,-11
-6,-2,3,4,-5,1,1,-2,-14,-3,-3,-12
-6,-2,3,4,-5,2,1,-2,-15,-3,-4,-12
-6,0,4,3,-6,3,1,-3,-15,-3,-4,-12
-6,0,5,2,-6,3,1,-3,-15,-3,-4,-11
-5,0,6,2,-6,4,1,-3,-15,-3,-4,-11
-5,1,6,2,-6,4,0,-3,-16,-3,-4,-10
-5,1,6,2,-6,4,0,-3,-16,-3,-4,-10
-5,2,6,1,-6,5,0,-4,-17,-3,-4,-10
-5,2,6,1,-6,5,0,-4,-18,-3,-4,-10
-4,2,6,1,-6,4,0,-4,-18,-3,-3,-9
-4,2,6,1,-5,4,0,-4,-19,-3,-3,-7
-4,3,6,0,-5,5,0,-4,-19,-3,-2,-6
-3,3,6,0,-5,5,0,-4,-20,-3,-1,-6
-3,3,6,-1,-4,5,-1,-4,-20,-3,-1,-5
-3,3,6,-1,-4,5,-2,-5,-21,-3,0,-5
-3,4,7,-1,-5,6,-2,-5,-22,-3,0,-4
-3,5,7,-1,-6,7,-2,-5,-23,-2,1,-3
-2,6,7,-1,-5,7,-2,-5,-23,-2,2,-2
-1,7,7,-2,-5,8,-2,-5,-24,-2,4,0
0,8,7,-3,-4,8,-2,-5,-25,-2,5,0
0,7,7,-4,-4,8,-2,-5,-26,-3,5,1
0,7,7,-4,-4,7,-3,-6,-27,-3,6,1
0,7,7,-4,-4,8,-4,-6,-28,-3,6,1
0,8,8,-4,-4,8,-5,-7,-30,-4,6,2
1,8,7,-4,-3,8,-6,-7,-31,-4,7,3
2,8,6,-5,-2,7,-6,-7,-32,-3,7,4
2,9,6,-5,-2,8,-7,-8,-32,-3,8,4
2,9,7,-5,-2,8,-7,-8,-33,-4,8,5
2,9,7,-6,-2,8,-7,-8,-33,-4,8,5
3,9,6,-6,-2,8,-8,-8,-34,-4,8,5
4,10,5,-7,-1,8,-8,-8,-34,-4,8,5
5,10,4,-8,0,8,-8,-7,-34,-3,9,6
6,11,4,-8,0,8,-8,-7,-34,-3,9,7
6,11,4,-8,0,8,-9,-8,-35,-4,9,7
5,10,4,-8,0,8,-9,-8,-35,-5,9,7
5,10,5,-7,0,8,-10,-9,-35,-6,9,7
5,11,5,-8,0,9,-10,-10,-36,-6,9,8
6,13,6,-10,0,10,-11,-10,-36,-6,9,8
7,14,6,-11,0,10,-11,-11,-37,-6,9,8
7,14,7,-11,0,11,-12,-11,-37,-7,8,8
6,13,7,-11,0,11,-13,-11,-36,-7,7,8
6,13,6,-10,0,10,-13,-12,-36,-6,7,8
6,12,6,-9,0,10,-13,-12,-36,-6,7,8
7,12,5,-9,1,10,-13,-12,-35,-5,7,8
8,12,5,-9,1,10,-13,-12,-34,-4,8,7
8,13,5,-10,1,10,-13,-12,-33,-4,8,7
8,13,5,-11,1,10,-13,-12,-31,-3,9,7
9,14,5,-12,2,10,-13,-11,-30,-3,10,7
9,14,5,-12,2,10,-14,-11,-29,-2,10,6
9,16,6,-13,2,11,-14,-11,-28,-1,11,6
10,18,6,-14,2,12,-15,-11,-27,0,11,5
11,19,6,-15,2,13,-15,-11,-25,1,11,5
11,18,6,-14,2,12,-16,-11,-24,1,11,4
11,18,6,-14,2,12,-16,-10,-22,2,12,4
12,18,6,-15,2,13,-16,-9,-20,4,12,4
12,19,7,-15,2,13,-16,-9,-18,5,12,3
13,19,7,-16,3,13,-16,-8,-17,6,12,2
14,19,6,-17,4,13,-16,-7,-15,7,11,2
15,20,6,-18,4,13,-15,-6,-14,7,11,1
15,20,5,-18,5,13,-15,-5,-14,8,10,0
15,19,4,-17,5,12,-15,-4,-13,8,10,-1
15,18,3,-16,6,11,-14,-3,-12,8,10,-2
14,17,2,-15,6,10,-13,-2,-11,8,9,-2
14,15,2,-15,6,9,-12,-1,-9,9,9,-2
15,15,1,-15,7,9,-11,0,-8,10,9,-2
15,15,1,-15,7,9,-10,1,-7,11,10,-2
13,14,0,-14,7,8,-10,1,-6,11,10,-2
12,12,0,-12,6,7,-9,1,-6,11,10,-3
11,11,0,-11,5,6,-8,1,-5,11,10,-3
10,10,0,-10,5,6,-7,2,-5,12,11,-4
9,9,0,-9,4,5,-6,2,-4,12,10,-5
7,8,0,-7,4,5,-6,2,-4,10,8,-7
5,6,0,-5,2,4,-5,2,-5,8,6,-9
3,4,1,-3,1,3,-4,2,-5,7,4,-11
2,2,0,-2,0,2,-2,2,-4,7,3,-12
1,1,0,-1,0,1,-1,3,-4,6,2,-13
2,1,0,-2,1,1,0,3,-4,6,2,-13
2,1,0,-1,1,1,1,4,-4,6,2,-13
1,0,0,0,0,0,1,4,-4,6,2,-13
0,-1,0,0,0,0,1,4,-4,5,1,-14
0,-2,-1,1,0,-1,1,4,-5,4,0,-14
-1,-3,-1,2,0,-1,1,4,-6,3,-1,-15
-2,-4,-1,3,0,-2,2,4,-7,2,-1,-15
-2,-5,-2,3,0,-3,2,4,-7,2,-1,-15
-2,-5,-2,4,0,-3,3,4,-7,2,-1,-15
-3,-5,-2,4,0,-3,3,4,-7,2,-2,-16
-3,-5,-2,4,0,-3,3,3,-7,1,-2,-16
-2,-5,-2,4,0,-3,4,3,-7,1,-3,-17
-2,-5,-3,4,0,-4,4,3,-7,1,-4,-18
-2,-6,-3,4,0,-4,4,3,-7,0,-5,-19
-3,-7,-3,5,0,-5,4,2,-8,-1,-6,-19
-4,-7,-3,6,0,-5,4,2,-8,-1,-6,-19
-5,-7,-3,6,-1,-5,4,3,-9,-1,-6,-19
-5,-8,-3,6,-1,-5,3,3,-9,-1,-6,-19
-5,-8,-3,6,-1,-5,3,3,-8,-1,-6,-19
-4,-8,-3,6,0,-5,4,4,-8,-1,-6,-18
-4,-9,-3,7,0,-6,4,4,-7,-1,-6,-18
-5,-9,-3,7,0,-6,4,4,-7,-1,-6,-18
-4,-8,-3,6,0,-5,5,4,-6,-1,-6,-18
-4,-8,-3,6,0,-5,5,4,-6,-2,-7,-18
-4,-8,-3,6,0,-5,5,4,-6,-2,-8,-19
-4,-8,-3,6,0,-5,5,4,-6,-2,-8,-19
-4,-8,-3,6,0,-5,5,4,-6,-2,-9,-18
-5,-8,-4,6,0,-6,5,4,-5,-2,-9,-18
-5,-8,-4,6,0,-6,5,4,-5,-2,-9,-18
-5,-8,-4,6,0,-6,5,4,-4,-2,-9,-18
-5,-8,-4,6,0,-6,6,4,-4,-2,-9,-17
-5,-9,-5,7,0,-7,6,4,-3,-1,-8,-17
-5,-10,-5,7,0,-7,6,4,-3,-1,-8,-18
-5,-9,-4,7,0,-6,6,3,-2,-1,-8,-18
-5,-9,-4,7,0,-6,6,3,-2,-1,-9,-17
-5,-9,-3,7,0,-5,6,4,-2,-2,-9,-17
-5,-8,-3,7,0,-5,6,4,-2,-2,-9,-16
-5,-8,-3,7,0,-5,6,5,-2,-2,-9,-16
-5,-9,-4,7,0,-6,7,5,-2,-2,-10,-15
-5,-9,-4,7,0,-6,7,5,-2,-2,-10,-15
-5,-9,-4,7,0,-6,7,5,-2,-2,-10,-15
-5,-9,-4,7,0,-6,8,5,-2,-1,-9,-15
-5,-9,-3,7,0,-6,8,5,-2,-1,-9,-14
-5,-8,-3,7,0,-5,8,5,-2,-1,-8,-14
-6,-8,-2,7,-1,-5,8,5,-2,-1,-8,-13
-6,-8,-2,7,-1,-4,8,5,-3,-1,-8,-13
-6,-8,-1,7,-2,-4,8,5,-3,-1,-8,-12
-6,-8,-1,7,-2,-4,8,5,-4,-1,-8,-12
-6,-7,-1,6,-2,-4,8,5,-4,-1,-8,-11
-6,-7,-1,6,-3,-3,7,5,-5,-2,-8,-11
-6,-7,-1,6,-3,-3,7,4,-5,-2,-7,-10
-6,-7,-1,6,-3,-3,7,4,-5,-2,-7,-10
-6,-7,0,6,-3,-3,7,4,-6,-2,-7,-10
-6,-7,0,7,-3,-3,7,4,-6,-2,-7,-10
-7,-8,0,8,-3,-4,7,4,-6,-1,-7,-9
-7,-8,0,8,-3,-3,7,4,-6,-1,-6,-9
-6,-7,0,7,-3,-3,7,4,-7,-1,-6,-8
-6,-7,0,6,-3,-3,7,4,-7,-1,-5,-7
-6,-7,0,6,-3,-3,7,4,-8,-1,-5,-6
-6,-6,0,6,-3,-3,7,4,-8,-1,-4,-5
-5,-5,0,5,-3,-2,7,4,-8,-1,-4,-4
-4,-4,0,4,-3,-1,6,4,-8,-1,-3,-3
-4,-3,1,3,-3,-1,6,4,-8,-1,-3,-2
-4,-3,1,3,-3,0,6,4,-8,-1,-2,-2
-4,-2,2,3,-3,0,6,4,-7,-1,-2,-1
-4,-2,2,3,-3,0,6,5,-7,0,-2,0
-4,-2,2,3,-3,0,6,5,-7,0,-2,0
-4,-2,2,3,-3,0,5,4,-7,0,-2,0
-5,-2,2,4,-3,0,5,4,-7,0,-1,1
-5,-2,2,4,-4,0,4,4,-7,0,-1,2
-5,-2,3,4,-4,1,4,3,-7,0,-1,3
-5,-1,4,3,-5,2,3,3,-7,0,-1,3
-4,1,5,2,-4,3,3,3,-6,1,0,4
-3,3,6,0,-4,5,3,3,-5,1,0,6
-4,3,6,0,-5,5,3,2,-5,1,0,6
-4,3,6,0,-5,5,2,1,-5,1,0,7
-3,4,7,0,-5,6,2,1,-5,1,1,8
-2,6,7,-2,-5,7,2,1,-4,1,1,9
-1,7,8,-3,-5,8,2,1,-4,2,2,9
-1,7,8,-3,-5,8,1,0,-4,2,2,10
-2,6,9,-2,-5,8,0,0,-4,2,2,11
-3,6,9,-2,-6,8,-1,0,-5,3,2,11
-2,8,10,-3,-6,10,-1,-1,-4,4,3,12
-1,10,10,-4,-6,10,-2,-1,-4,4,4,13
-1,10,10,-4,-6,11,-4,-2,-4,4,4,13
0,11,11,-5,-6,12,-5,-2,-5,4,4,14
0,12,11,-6,-5,12,-5,-3,-5,4,4,14
1,12,11,-6,-5,12,-5,-3,-5,5,5,14
1,12,11,-7,-4,12,-5,-3,-5,5,5,15
2,13,11,-8,-4,12,-5,-2,-5,6,6,16
3,14,11,-9,-3,13,-6,-2,-5,6,6,16
5,15,10,-10,-2,13,-6,-1,-5,7,7,17
6,15,8,-10,-1,12,-7,-1,-6,7,7,17
7,14,6,-10,0,11,-7,-1,-6,7,7,17
7,13,5,-10,0,10,-7,0,-7,7,8,18
7,12,4,-9,1,9,-7,0,-7,7,8,18
7,12,4,-10,2,8,-7,0,-7,8,9,19
8,12,3,-10,3,7,-6,1,-7,8,9,20
8,11,2,-10,3,7,-6,2,-8,8,9,20
8,11,1,-9,3,6,-6,2,-8,8,9,20
9,11,1,-9,3,6,-6,1,-9,7,9,20
9,11,1,-10,3,6,-6,1,-9,7,9,20
8,11,2,-10,3,6,-6,1,-9,7,9,20
7,10,2,-9,2,6,-6,1,-9,7,9,20
7,10,2,-9,2,6,-5,2,-9,7,9,20
6,9,2,-8,2,6,-5,2,-10,7,9,20
4,8,3,-6,1,5,-4,2,-10,6,8,19
3,7,2,-5,0,5,-4,2,-10,6,8,18
3,5,2,-4,0,4,-3,3,-10,5,7,18
3,5,1,-3,0,3,-2,4,-10,5,7,18
3,4,1,-3,0,3,-2,4,-10,5,7,18
2,4,1,-3,0,2,-1,4,-11,4,6,17
2,3,1,-3,0,2,-1,4,-11,4,6,17
2,3,1,-3,0,2,-1,3,-11,4,5,16
1,3,1,-2,0,2,-1,3,-11,4,5,16
1,2,1,-1,0,1,-1,3,-11,3,5,16
0,1,1,-1,0,1,-1,3,-11,3,4,15
0,1,2,0,-1,1,-1,3,-12,2,4,15
0,0,1,0,-1,1,-1,3,-12,2,4,15
0,0,0,0,-1,0,-1,3,-12,2,4,15
0,0,0,0,-1,0,-1,3,-12,2,4,15
0,0,0,0,-1,0,-1,3,-12,2,4,14
0,0,0,0,-1,0,-1,2,-12,2,4,14
-1,0,0,0,-1,0,-1,2,-12,2,4,14
-1,0,0,1,-1,0,0,2,-12,2,4,14
-1,0,0,1,-1,0,0,2,-11,2,4,13
0,0,0,1,-1,0,0,2,-11,1,4,13
0,0,0,0,-1,0,0,2,-11,1,3,12
0,0,0,0,-1,0,-1,2,-11,1,3,12
0,0,0,0,-1,0,-1,2,-11,1,2,11
-1,0,1,1,-2,0,-2,2,-11,0,2,11
-2,0,1,1,-2,1,-2,2,-11,0,2,11
-2,0,1,1,-1,0,-2,2,-10,0,2,11
-2,-1,0,1,-1,0,-2,2,-10,0,2,11
-1,-1,0,1,-1,0,-2,2,-10,0,1,10
-1,-1,0,1,-1,0,-2,2,-9,0,1,10
-2,-1,1,1,-2,0,-2,2,-9,0,1,9
-3,-1,2,2,-3,0,-2,2,-8,1,1,9
-3,0,3,2,-3,1,-1,2,-6,2,1,8
-4,0,4,2,-4,2,-1,3,-2,5,1,8
-4,1,6,2,-5,4,0,4,3,9,3,8
-5,4,8,1,-7,6,0,6,9,14,5,8
-5,6,12,0,-8,9,0,7,14,21,10,10
-5,9,15,-1,-10,13,-2,7,17,29,18,14
-3,13,16,-5,-9,15,-5,7,18,39,30,22
3,17,13,-10,-4,15,-9,7,16,48,45,32
12,20,7,-16,3,13,-14,8,11,57,61,44
24,23,-2,-23,13,11,-19,11,6,67,78,57
38,26,-12,-32,25,7,-23,15,3,76,93,69
51,28,-23,-39,37,3,-27,21,0,84,106,79
61,29,-32,-45,47,-1,-30,25,-3,89,113,86
69,27,-41,-47,55,-7,-33,28,-7,86,111,86
73,22,-51,-47,62,-14,-33,30,-12,76,98,81
72,14,-58,-43,65,-22,-31,28,-18,60,79,72
67,8,-59,-37,63,-26,-28,22,-25,41,57,61
58,4,-54,-31,56,-25,-25,12,-32,22,35,49
45,0,-45,-22,45,-22,-21,0,-38,2,12,36
30,-4,-35,-13,32,-19,-16,-10,-42,-18,-10,21
15,-9,-25,-3,20,-17,-9,-18,-45,-39,-31,5
3,-15,-18,6,10,-16,-2,-21,-45,-56,-46,-8
-6,-20,-13,13,3,-16,3,-21,-42,-65,-56,-18
-12,-21,-9,17,-1,-15,7,-19,-35,-67,-60,-23
-15,-21,-6,18,-4,-13,9,-15,-25,-62,-58,-23
-16,-19,-3,17,-7,-11,10,-10,-13,-56,-55,-23
-17,-17,0,17,-8,-9,11,-5,0,-50,-53,-24
-17,-16,1,17,-10,-7,12,-1,10,-44,-50,-24
-18,-15,3,17,-11,-6,12,2,19,-38,-46,-23
-18,-13,5,16,-13,-4,13,4,27,-32,-41,-21
-19,-10,9,14,-15,0,14,6,35,-27,-37,-19
-20,-8,13,14,-17,2,15,9,41,-22,-34,-19
-22,-7,15,14,-19,4,17,11,48,-18,-31,-18
-23,-6,17,14,-20,6,18,13,52,-16,-28,-18
-24,-6,18,15,-21,6,20,15,55,-14,-26,-17
-25,-6,19,15,-22,6,21,16,58,-13,-25,-17
-26,-6,19,16,-23,6,22,17,62,-12,-24,-18
-26,-6,19,16,-23,6,23,18,66,-10,-23,-18
-26,-7,18,16,-23,6,25,19,69,-9,-22,-18
-26,-8,18,17,-23,5,27,20,72,-8,-21,-18
-26,-8,18,17,-23,4,28,21,75,-6,-20,-18
-26,-9,18,17,-23,4,28,21,79,-5,-19,-18
-26,-9,18,17,-23,4,29,22,81,-4,-18,-18
-26,-9,17,17,-22,4,30,23,83,-3,-18,-17
-26,-8,17,17,-22,4,30,24,86,-2,-17,-17
-25,-7,17,16,-22,5,30,23,88,-1,-17,-16
-24,-5,18,15,-22,6,29,19,88,-1,-16,-16
-24,-4,20,14,-22,8,28,13,82,-1,-15,-15
-24,-2,21,13,-22,9,25,7,72,-2,-14,-14
-23,-1,21,12,-22,10,22,1,57,-3,-13,-13
-21,0,20,10,-20,10,18,-3,41,-5,-13,-12
-18,1,18,9,-18,10,14,-7,27,-6,-12,-11
-16,1,16,8,-16,9,10,-9,15,-6,-12,-11
-14,1,15,7,-15,8,7,-11,7,-6,-11,-10
-11,3,14,4,-13,9,5,-11,2,-6,-9,-9
-9,5,14,2,-12,10,3,-11,-1,-5,-8,-8
-7,6,14,0,-11,10,1,-11,-2,-4,-6,-7
-6,7,13,0,-10,10,0,-11,-3,-2,-5,-6
-5,8,13,-1,-9,10,0,-10,-4,-1,-4,-5
-3,8,12,-2,-8,10,-2,-10,-4,0,-3,-4
-2,9,11,-3,-7,11,-3,-10,-5,1,-2,-3
-1,10,11,-4,-6,11,-5,-10,-5,2,-1,-2
0,11,12,-5,-6,12,-6,-10,-5,2,0,-2
0,12,11,-5,-5,12,-6,-10,-6,3,0,-2
1,11,10,-6,-4,10,-6,-10,-6,3,0,-1
1,10,8,-6,-3,9,-6,-9,-7,4,1,-1
2,10,6,-6,-2,8,-6,-8,-7,4,1,-1
3,9,5,-6,-1,7,-6,-8,-7,5,1,-1
4,9,5,-6,0,7,-6,-7,-7,5,1,0
5,8,4,-6,0,7,-6,-6,-7,5,2,0
6,9,4,-7,1,6,-6,-5,-7,5,2,0
7,9,3,-8,1,6,-6,-5,-7,5,2,0
7,9,3,-8,2,6,-6,-5,-7,5,2,0
7,8,2,-8,2,5,-6,-5,-8,5,3,0
6,7,1,-8,2,4,-6,-5,-8,5,3,1
7,7,0,-8,3,4,-6,-5,-8,5,3,1
8,8,0,-9,3,4,-6,-5,-8,5,3,2
8,8,0,-9,3,4,-6,-5,-9,5,3,2
7,7,0,-7,3,4,-6,-6,-10,4,3,2
6,6,0,-5,2,3,-6,-6,-10,3,2,2
6,6,0,-5,2,3,-5,-5,-11,3,3,3
5,6,1,-5,2,3,-5,-5,-11,3,3,3
4,5,1,-5,1,3,-4,-5,-12,3,2,3
3,4,1,-4,0,3,-3,-5,-13,2,2,2
2,4,2,-3,0,3,-3,-5,-13,2,1,2
1,3,3,-2,-2,3,-2,-5,-14,1,0,1
0,3,3,-1,-3,3,-2,-5,-15,0,0,1
-1,1,3,0,-3,2,-1,-4,-16,0,0,0
-2,1,2,0,-3,2,-1,-4,-17,-1,-1,0
-2,1,3,0,-3,2,-1,-4,-17,-1,-1,0
-1,2,3,-1,-3,3,-1,-4,-18,-1,-1,0
-2,1,3,0,-3,2,0,-4,-18,-1,-1,0
-3,0,2,1,-3,1,0,-4,-19,-2,-2,0
-3,0,3,2,-4,1,0,-5,-19,-2,-2,-1
-3,0,3,2,-4,2,0,-5,-20,-3,-3,-1
-3,0,3,2,-4,1,0,-5,-20,-3,-3,-1
-3,-1,2,3,-4,1,0,-6,-20,-3,-3,-1
-3,-1,1,2,-3,0,0,-6,-20,-3,-3,-1
-2,-1,1,2,-2,0,0,-6,-20,-3,-3,-1
-2,0,1,1,-2,0,0,-6,-20,-3,-3,0
-1,0,1,1,-2,0,0,-5,-20,-3,-3,0
-2,-1,1,1,-2,0,0,-5,-20,-3,-3,0
-2,0,1,1,-3,1,0,-5,-20,-4,-4,-1
-3,0,2,2,-3,1,0,-5,-20,-4,-4,-1
-3,-1,2,2,-3,0,0,-5,-20,-4,-4,-2
-3,-1,1,3,-3,0,0,-5,-20,-4,-4,-2
-3,-1,1,3,-3,0,0,-5,-20,-5,-4,-2
-4,-2,1,3,-3,0,-1,-5,-20,-5,-4,-2
-4,-2,2,3,-3,0,-1,-5,-20,-5,-5,-2
-4,-2,1,3,-3,0,-1,-5,-20,-5,-5,-2
-4,-4,0,3,-2,-2,-1,-4,-19,-4,-5,-2
-4,-4,0,4,-2,-2,0,-4,-19,-4,-5,-2
-4,-3,0,3,-3,-1,0,-5,-19,-5,-5,-2
-4,-2,1,3,-3,0,-1,-5,-19,-5,-5,-3
-4,-1,1,3,-3,0,-1,-5,-18,-5,-5,-3
-4,-2,1,3,-3,0,-1,-5,-18,-6,-5,-3
-4,-2,2,3,-3,0,-1,-5,-18,-6,-5,-3
-4,-1,2,3,-3,0,-1,-4,-18,-6,-5,-3
-3,-1,2,2,-3,0,-1,-4,-18,-6,-5,-3
-2,-1,1,2,-2,0,-1,-4,-19,-6,-5,-4
-3,-1,1,2,-3,0,-2,-5,-19,-6,-5,-4
-3,-1,1,2,-3,0,-2,-5,-19,-6,-5,-4
-3,0,1,2,-3,1,-2,-6,-19,-6,-5,-4
-2,0,1,1,-2,1,-2,-6,-20,-6,-4,-3
-1,0,1,1,-2,1,-2,-6,-20,-6,-4,-2
-1,0,0,1,-1,0,-2,-6,-21,-6,-3,-2
-1,0,0,0,-1,0,-2,-7,-21,-6,-3,-1
0,0,0,0,0,0,-2,-7,-22,-6,-2,-1
1,1,0,-1,0,1,-2,-7,-23,-6,-1,0
1,2,0,-1,0,1,-3,-7,-24,-6,-1,1
0,1,0,-1,0,1,-3,-8,-25,-6,0,1
1,2,0,-1,0,1,-4,-8,-26,-7,0,2
1,2,0,-2,0,2,-4,-8,-27,-7,0,2
2,3,0,-2,0,2,-5,-8,-29,-7,1,3
2,3,0,-3,0,2,-5,-9,-30,-7,1,4
2,3,0,-3,0,2,-6,-9,-31,-7,2,4
3,4,0,-3,1,2,-6,-10,-32,-8,2,5
3,4,0,-3,1,2,-7,-10,-33,-8,3,5
4,5,0,-4,2,2,-7,-10,-34,-9,3,6
4,5,0,-4,2,2,-8,-10,-35,-9,3,7
4,5,0,-5,2,2,-8,-10,-35,-9,4,8
5,6,0,-6,3,2,-9,-10,-36,-9,4,8
6,6,0,-6,3,2,-9,-11,-37,-10,4,9
7,7,0,-7,3,2,-10,-11,-38,-10,5,9
8,7,-1,-8,3,3,-10,-11,-39,-10,5,10
9,8,-1,-8,4,3,-10,-11,-39,-10,6,11
9,8,-1,-8,4,3,-10,-11,-40,-10,6,12
9,8,-1,-8,4,3,-11,-11,-40,-11,6,12
9,7,-2,-8,4,3,-11,-11,-40,-11,6,12
9,7,-2,-8,5,2,-11,-12,-40,-11,6,12
9,8,-2,-9,5,2,-11,-12,-40,-11,6,12
10,8,-2,-9,5,3,-11,-12,-40,-11,6,11
10,8,-2,-9,5,3,-11,-12,-40,-11,6,11
10,8,-2,-9,5,3,-12,-12,-40,-11,6,11
11,9,-2,-10,6,3,-12,-12,-39,-11,6,11
12,10,-2,-11,6,4,-12,-12,-39,-11,6,11
12,11,-2,-11,6,4,-12,-12,-38,-11,6,10
12,11,-2,-11,7,4,-12,-12,-38,-10,6,10
12,11,-2,-11,7,5,-12,-12,-37,-10,6,9
11,10,-2,-10,6,4,-12,-12,-36,-9,6,9
11,9,-2,-9,6,3,-12,-12,-34,-8,6,8
10,8,-2,-9,6,3,-12,-11,-32,-7,6,8
10,9,-1,-10,6,4,-12,-11,-31,-7,6,8
10,10,-1,-10,5,5,-12,-11,-29,-6,6,7
10,10,-1,-10,5,5,-12,-11,-28,-6,5,7
10,11,0,-11,5,5,-12,-11,-26,-5,5,6
11,12,0,-12,5,6,-13,-11,-25,-4,5,6
11,12,0,-12,5,6,-13,-11,-24,-3,5,5
11,12,0,-12,5,6,-14,-10,-23,-3,5,5
13,12,0,-12,6,6,-14,-10,-22,-2,5,4
14,13,-1,-13,7,6,-14,-9,-21,-1,5,4
14,13,-1,-13,8,5,-14,-8,-19,0,5,3
14,12,-2,-13,8,5,-14,-7,-17,1,5,3
13,13,-2,-13,8,5,-14,-6,-16,2,5,2
13,13,-2,-13,8,5,-13,-5,-14,3,6,2
13,12,-2,-13,8,5,-12,-4,-12,4,6,2
14,12,-3,-13,8,4,-11,-3,-11,4,6,2
14,11,-3,-12,8,4,-11,-3,-10,5,5,1
13,11,-3,-12,7,4,-10,-2,-9,5,5,0
13,11,-2,-12,7,4,-10,-2,-8,5,4,0
13,11,-2,-12,8,4,-9,-1,-6,5,4,-1
13,10,-4,-11,9,3,-8,0,-5,5,4,-1
13,8,-5,-10,9,1,-7,0,-5,5,4,-2
12,7,-5,-9,8,1,-7,0,-4,5,3,-2
10,6,-4,-8,7,1,-6,0,-4,5,3,-3
9,6,-3,-8,6,1,-6,0,-4,6,3,-3
8,6,-3,-7,5,1,-5,0,-3,6,2,-4
8,6,-2,-7,5,1,-5,0,-2,6,2,-4
8,7,-2,-7,5,2,-4,1,-2,6,2,-5
7,6,-2,-6,4,2,-3,1,-1,5,2,-5
6,5,-2,-5,4,1,-2,2,-1,5,1,-6
5,4,-1,-5,3,1,-1,2,-1,5,1,-7
4,4,-1,-4,2,1,-1,2,-1,4,0,-8
4,4,0,-4,2,1,0,2,-1,4,0,-8
3,3,0,-3,1,1,0,2,-2,3,0,-9
2,2,0,-2,1,0,0,2,-2,3,0,-10
1,1,0,-2,1,0,0,2,-3,2,0,-10
1,1,-1,-1,1,0,0,2,-3,2,0,-10
1,0,-1,-1,1,0,1,2,-4,2,0,-10
0,0,-1,-1,1,0,1,2,-4,2,0,-11
0,0,-1,0,1,0,1,1,-4,2,0,-11
0,-1,-1,0,1,-1,1,1,-4,2,0,-11
0,-1,-1,0,1,-1,1,1,-4,2,-1,-11
0,-1,-1,0,1,-1,1,1,-4,1,-1,-11
0,-1,-1,0,1,-1,2,1,-4,1,-2,-10
0,-1,-1,0,1,-1,2,1,-4,1,-2,-10
0,-1,-1,0,0,-1,2,1,-4,0,-3,-10
0,-1,-1,0,0,-1,2,1,-4,-1,-3,-11
0,-1,-1,0,0,-1,2,1,-4,-1,-3,-11
0,-1,-1,0,0,-1,2,1,-4,-1,-3,-11
0,-1,-2,0,0,-1,3,1,-4,-1,-3,-10
0,-2,-2,1,0,-2,3,1,-4,-1,-3,-10
-1,-3,-3,1,0,-3,3,1,-4,-1,-4,-10
-1,-3,-3,2,0,-4,3,0,-4,-1,-4,-10
-2,-4,-3,3,0,-4,3,0,-4,-2,-5,-10
-2,-5,-3,3,0,-4,3,0,-3,-2,-5,-10
-2,-5,-3,3,0,-4,3,1,-3,-2,-6,-10
-2,-4,-3,3,0,-4,3,1,-2,-1,-5,-9
-1,-4,-3,2,0,-3,3,1,-1,-1,-5,-9
-2,-4,-2,3,0,-4,3,1,-1,-1,-5,-9
-3,-5,-2,4,-1,-4,3,1,-1,-1,-6,-9
-4,-6,-2,4,-1,-4,3,1,0,-1,-6,-9
-3,-5,-2,4,-1,-4,3,1,0,-1,-6,-9
-3,-5,-1,4,-1,-3,3,1,0,-1,-6,-9
-3,-5,-1,4,-1,-4,3,1,1,-1,-6,-9
-3,-5,-1,4,-1,-4,3,2,1,-1,-6,-9
-2,-4,-2,3,-1,-3,3,2,1,-1,-6,-8
-2,-5,-2,4,-1,-4,4,2,2,-1,-6,-8
-3,-5,-2,4,-1,-4,4,2,2,-1,-6,-8
-3,-6,-2,5,-1,-4,4,2,3,-1,-6,-8
-3,-6,-2,4,0,-4,4,2,3,-1,-6,-8
-2,-5,-2,4,0,-4,4,2,3,-1,-7,-8
-2,-4,-2,3,0,-3,4,2,3,-1,-7,-7
-2,-5,-2,4,0,-4,4,2,3,-1,-7,-7
-3,-5,-2,4,0,-4,4,2,3,-1,-7,-6
-3,-5,-1,4,-1,-3,4,2,3,-1,-7,-6
-3,-5,-1,4,-1,-3,4,3,3,-1,-7,-6
-3,-5,-2,4,-1,-3,4,3,3,-1,-6,-5
-3,-6,-2,4,-1,-4,4,3,3,-1,-6,-4
-3,-6,-2,4,-1,-5,4,3,2,-1,-5,-3
-3,-7,-2,5,-1,-5,4,4,2,-1,-5,-2
-4,-7,-2,5,-1,-5,4,4,1,-1,-4,-1
-4,-7,-2,5,-1,-5,4,4,1,-1,-4,-1
-4,-6,-2,5,-1,-5,4,4,1,-1,-4,0
-3,-6,-2,4,-1,-4,4,4,1,0,-4,0
-3,-5,-1,4,-1,-4,4,4,0,0,-3,1
-3,-5,-1,4,-1,-4,4,4,0,0,-3,1
-4,-5,-1,4,-1,-4,4,4,0,0,-3,2
-3,-4,0,4,-1,-3,4,4,0,0,-3,3
-3,-3,0,3,-1,-2,3,4,0,0,-3,3
-3,-3,0,3,-1,-2,3,4,0,0,-2,4
-3,-4,-1,3,-1,-3,3,4,0,0,-2,5
-3,-4,-1,3,-1,-3,4,4,0,0,-1,6
-3,-4,0,3,-1,-3,3,4,0,0,-1,6
-4,-4,0,3,-2,-2,3,4,0,0,-1,7
-4,-4,0,4,-2,-2,3,4,0,0,0,7
-4,-5,0,4,-2,-3,3,4,0,0,0,8
-4,-5,0,4,-2,-3,3,4,0,1,0,9
-4,-4,0,3,-2,-2,3,3,1,1,1,9
-3,-3,0,3,-2,-2,3,3,1,1,1,10
-3,-3,1,3,-2,-1,3,2,1,1,1,10
-3,-2,2,3,-2,0,2,2,1,1,1,11
-3,-2,2,2,-2,0,2,1,1,1,1,11
-3,-1,3,2,-3,1,1,1,1,1,1,11
-3,0,4,1,-3,1,1,0,1,1,1,11
-3,0,4,1,-4,2,0,0,1,1,1,12
-3,1,4,0,-4,2,0,-1,1,2,2,12
-2,2,4,0,-4,3,-1,-2,1,2,2,13
-1,2,4,0,-3,3,-2,-3,1,3,3,13
0,4,4,-2,-2,3,-3,-3,1,3,3,14
2,6,4,-4,-1,4,-4,-3,1,3,4,14
3,7,4,-5,0,5,-5,-3,0,3,4,14
4,7,4,-5,0,5,-5,-3,0,3,4,14
4,7,3,-6,0,5,-6,-3,0,4,5,15
4,7,3,-6,0,5,-6,-3,0,4,5,15
4,7,3,-6,1,5,-6,-3,0,5,6,15
5,8,2,-7,1,5,-6,-3,0,5,6,15
6,8,2,-7,2,4,-6,-3,0,5,6,15
7,8,1,-7,3,4,-6,-3,0,5,6,15
7,8,1,-7,3,4,-6,-3,0,5,6,15
7,7,0,-7,4,3,-6,-3,0,5,5,15
7,7,0,-7,4,3,-6,-3,-1,4,5,15
7,6,-1,-6,4,2,-6,-3,-2,4,4,14
7,5,-1,-6,4,2,-6,-3,-3,3,3,13
6,5,0,-6,3,2,-6,-4,-4,2,3,12
5,4,0,-5,3,1,-6,-4,-4,2,3,11
5,4,0,-4,3,1,-4,-3,-3,2,3,11
4,3,0,-3,2,1,-3,-2,-3,3,3,10
3,3,0,-3,1,1,-2,-2,-3,3,3,9
2,3,1,-2,0,1,-2,-2,-3,3,2,9
1,3,1,-2,0,1,-1,-2,-4,3,2,8
0,3,2,-1,-1,1,-1,-2,-4,2,2,8
0,2,2,-1,-1,1,0,-2,-4,2,2,7
0,2,2,-1,-1,1,0,-2,-4,2,2,7
-1,1,2,0,-1,1,0,-2,-4,2,1,7
-2,0,1,1,-1,0,1,-2,-5,1,1,6
-3,-1,1,2,-2,0,1,-2,-5,1,1,6
-3,-2,1,2,-2,-1,1,-2,-6,1,1,6
-2,-2,0,2,-1,-1,2,-2,-6,1,1,6
-2,-2,0,1,-1,-1,2,-2,-6,0,1,6
-2,-2,0,2,-1,-1,2,-3,-7,0,0,5
-3,-2,1,3,-2,-1,2,-3,-7,0,0,5
-4,-2,1,3,-2,-1,2,-3,-8,0,0,4
-4,-2,1,3,-2,-1,2,-4,-8,0,0,4
-4,-3,0,3,-2,-1,2,-4,-8,-1,0,4
-4,-3,0,3,-2,-1,2,-4,-8,-1,0,4
-4,-3,0,3,-2,-1,3,-4,-9,-1,0,4
-3,-3,0,3,-2,-2,3,-3,-9,-1,0,4
-2,-3,0,3,-1,-2,3,-3,-9,-1,0,4
-3,-3,0,3,-1,-2,3,-3,-9,-1,0,4
-3,-4,0,4,-1,-2,3,-4,-9,-2,-1,4
-4,-5,0,4,-1,-3,3,-4,-9,-2,-1,4
-4,-5,0,4,-1,-3,3,-4,-9,-2,-1,4
-5,-5,0,5,-2,-3,3,-4,-9,-2,-1,3
-6,-6,0,5,-3,-3,3,-4,-9,-2,-1,3
-6,-6,0,6,-3,-3,3,-4,-9,-2,-1,3
-5,-5,0,5,-2,-3,3,-4,-9,-2,-1,3
-5,-5,0,5,-2,-3,4,-3,-8,-2,-1,4
-5,-5,0,5,-2,-4,4,-3,-8,-2,-1,4
-5,-5,0,5,-2,-4,4,-3,-8,-2,-1,4
-5,-5,0,5,-2,-4,4,-3,-8,-2,-2,3
-5,-5,0,5,-2,-3,4,-3,-8,-2,-2,3
-5,-5,0,5,-2,-3,4,-3,-8,-2,-2,2
-5,-5,0,5,-2,-3,4,-3,-8,-2,-2,2
-4,-6,0,5,-2,-3,4,-3,-8,-2,-2,2
-5,-6,0,5,-2,-4,4,-3,-8,-3,-2,2
-5,-7,0,6,-3,-4,4,-3,-8,-3,-3,2
-5,-7,0,6,-3,-4,4,-3,-8,-3,-3,2
-5,-6,0,6,-3,-3,4,-3,-8,-3,-3,1
-6,-6,0,6,-3,-3,3,-4,-8,-3,-4,1
-6,-6,0,6,-3,-3,3,-4,-8,-3,-4,1
-6,-6,-1,6,-2,-3,3,-3,-8,-3,-3,1
-6,-7,-1,6,-2,-4,3,-3,-8,-2,-3,1
-7,-7,-1,6,-3,-4,3,-3,-9,-3,-3,0
-7,-7,0,7,-3,-4,3,-3,-9,-3,-3,0
-7,-7,0,7,-3,-3,3,-3,-10,-3,-3,0
-6,-6,0,7,-3,-3,3,-3,-10,-3,-3,0
-6,-6,0,7,-3,-3,3,-3,-10,-3,-3,0
-6,-6,0,7,-3,-3,3,-3,-10,-3,-3,0
-6,-6,0,7,-3,-3,3,-3,-10,-3,-3,0
-6,-6,1,6,-4,-2,3,-3,-9,-2,-3,0
-7,-5,2,6,-5,-1,3,-3,-7,-1,-3,0
-8,-3,5,5,-7,1,3,-3,-3,2,-2,0
-9,-2,8,5,-9,3,4,-2,2,8,0,0
-10,0,11,5,-11,5,4,0,9,14,5,2
-11,3,14,3,-12,8,3,1,14,23,12,5
-9,8,18,0,-13,13,0,2,19,33,22,12
-5,15,19,-5,-12,17,-3,2,20,44,36,21
3,20,17,-12,-7,19,-8,2,18,55,51,32
14,25,11,-20,1,18,-13,4,14,66,68,45
26,29,3,-28,12,16,-17,7,10,77,84,56
38,31,-7,-35,23,12,-22,12,7,87,98,66
49,31,-18,-40,34,6,-26,19,4,94,108,74
59,28,-30,-43,45,-1,-28,27,3,97,112,77
68,23,-45,-45,56,-11,-28,35,3,92,105,75
74,14,-60,-43,66,-23,-26,43,2,78,88,67
74,3,-71,-39,73,-34,-23,45,-2,58,65,54
70,-6,-77,-33,74,-41,-20,40,-9,37,41,41
63,-12,-75,-26,69,-43,-16,29,-17,15,19,29
51,-16,-67,-18,59,-41,-12,14,-26,-6,-2,17
36,-20,-56,-9,46,-38,-7,0,-32,-28,-22,5
21,-25,-46,1,33,-36,-2,-11,-37,-47,-40,-7
8,-30,-38,11,23,-34,4,-18,-39,-63,-54,-18
-2,-33,-32,18,15,-33,9,-20,-36,-72,-63,-26
-8,-34,-26,21,8,-30,14,-19,-28,-74,-65,-29
-12,-33,-21,22,4,-27,16,-15,-15,-69,-63,-30
-15,-32,-17,22,1,-24,18,-10,0,-62,-60,-30
-16,-31,-13,23,-1,-22,20,-4,15,-55,-56,-30
-17,-28,-9,22,-4,-19,20,0,29,-47,-53,-29
-18,-24,-5,21,-6,-15,20,3,40,-40,-48,-28
-19,-19,0,19,-9,-10,20,6,50,-34,-43,-26
-20,-13,5,17,-12,-5,19,8,57,-27,-38,-23
-20,-8,10,15,-15,0,19,10,64,-21,-33,-20
-20,-4,14,12,-17,4,19,12,70,-16,-29,-18
-20,-2,17,10,-18,7,19,12,73,-13,-26,-16
-19,-1,18,9,-19,8,20,13,76,-11,-23,-15
-18,-1,18,9,-19,9,20,13,80,-8,-21,-15
-18,0,19,9,-19,9,22,14,83,-6,-19,-15
-19,0,19,9,-19,9,23,15,87,-3,-17,-15
-20,-1,19,10,-20,8,25,15,89,-1,-15,-15
-20,-1,18,11,-20,8,26,16,92,0,-14,-15
-20,-1,18,11,-19,8,27,16,93,1,-13,-15
-20,-2,18,11,-19,8,28,17,94,1,-12,-15
-21,-3,17,12,-19,7,29,18,96,2,-12,-16
-21,-5,15,12,-18,6,29,20,99,2,-13,-16
-20,-6,14,13,-17,4,30,20,100,3,-13,-15
-19,-6,13,13,-16,3,29,17,98,4,-12,-15
-17,-5,12,12,-14,3,28,13,90,3,-10,-14
-16,-5,11,11,-13,2,25,7,76,2,-9,-13
-15,-5,10,10,-12,2,22,2,59,0,-9,-13
-13,-5,8,9,-11,1,18,-2,41,-1,-8,-12
-11,-5,6,8,-8,1,15,-3,28,-2,-8,-11
-8,-5,3,6,-6,0,12,-4,18,-3,-7,-10
-5,-5,1,5,-3,-1,10,-3,13,-3,-6,-9
-3,-4,0,4,-2,-2,8,-3,9,-2,-5,-8
-2,-4,0,4,-1,-2,7,-3,7,0,-3,-7
-2,-3,0,3,-1,-1,6,-2,5,1,-2,-6
-1,-1,1,2,-1,0,5,-2,3,2,0,-6
-1,0,1,1,-1,0,5,-1,2,3,0,-6
-1,0,1,0,-1,1,4,-1,1,4,0,-6
-1,0,2,0,-1,1,3,-1,0,3,0,-7
-1,0,2,0,-2,1,2,-1,0,3,-1,-8
-1,-1,2,1,-2,1,2,-1,0,2,-1,-9
-1,-1,2,1,-2,1,2,-2,-1,2,-1,-9
-2,-1,2,2,-2,1,2,-2,-2,2,-1,-9
-3,-1,3,2,-2,1,1,-2,-3,2,-1,-10
-3,-1,2,3,-2,1,1,-2,-3,2,-1,-11
-3,-2,2,3,-2,0,1,-2,-3,3,0,-10
-2,-2,1,2,-2,0,1,-1,-3,3,0,-9
-2,-1,1,2,-2,0,1,-1,-3,3,1,-9
-2,-2,1,2,-2,0,0,-1,-3,2,0,-10
-3,-3,1,3,-2,0,0,0,-3,2,0,-10
-3,-3,1,3,-2,-1,1,0,-2,2,0,-10
-3,-3,0,3,-1,-1,1,0,-2,2,0,-9
-3,-4,0,3,-2,-2,1,0,-2,2,0,-9
-4,-4,0,3,-2,-2,1,0,-2,2,0,-9
-3,-3,0,3,-2,-1,1,0,-1,2,0,-8
-3,-3,0,3,-2,-1,1,0,-1,2,0,-8
-4,-4,1,3,-2,-2,0,0,-1,1,0,-8
-4,-4,1,4,-2,-2,0,0,-1,1,0,-9
-4,-4,1,3,-2,-1,1,0,-1,2,0,-9
-3,-2,1,2,-2,-1,1,0,-1,2,0,-9
-3,-1,1,2,-2,0,2,0,-1,2,0,-9
-3,-2,1,2,-2,0,2,0,-1,1,-1,-9
-3,-2,1,3,-2,-1,2,0,-1,0,-1,-10
-4,-3,2,3,-3,0,1,0,-1,0,-2,-10
-4,-3,3,3,-3,0,1,-1,-1,0,-2,-10
-5,-4,3,4,-4,0,0,-1,-1,0,-2,-10
-5,-4,2,5,-4,-1,1,-1,0,0,-2,-10
-5,-4,2,4,-4,-1,1,-1,0,0,-3,-10
-6,-4,2,5,-4,-1,2,-1,0,-1,-3,-10
-7,-4,2,6,-4,-1,2,-1,-1,-1,-3,-10
-7,-4,2,6,-4,-1,2,-1,-1,0,-3,-10
-6,-3,3,5,-4,0,2,0,-1,0,-3,-10
-5,-2,3,3,-4,0,2,0,-1,0,-3,-10
-4,-2,3,3,-3,0,2,0,-1,0,-3,-10
-4,-2,3,3,-3,0,2,0,-1,0,-3,-10
-5,-2,3,3,-3,0,2,0,-1,0,-3,-10
-5,-2,3,3,-3,0,2,0,-1,0,-4,-10
-5,-2,3,3,-3,0,2,0,-2,0,-4,-11
-5,-2,3,3,-3,0,2,0,-2,0,-4,-11
-5,-3,2,4,-3,0,2,0,-2,-1,-4,-11
-5,-3,2,4,-3,0,2,0,-2,-1,-4,-11
-4,-2,3,3,-4,0,2,0,-2,-1,-4,-11
-4,-1,3,3,-4,1,1,0,-3,-1,-4,-11
-4,-2,2,3,-4,0,1,0,-3,-1,-4,-11
-4,-3,2,4,-4,0,1,0,-3,0,-4,-11
-5,-4,2,4,-4,-1,1,0,-4,0,-4,-12
-5,-4,2,5,-4,-1,1,0,-4,0,-4,-12
-5,-4,2,5,-4,-1,1,0,-4,0,-3,-12
-5,-4,2,5,-4,-1,1,0,-4,0,-3,-12
-4,-4,1,4,-3,-1,1,0,-5,0,-3,-12
-4,-3,1,4,-3,-1,1,0,-5,0,-3,-11
-4,-3,2,3,-4,0,1,0,-6,0,-3,-11
-4,-2,2,3,-4,0,1,0,-6,-1,-3,-10
-4,0,3,2,-4,1,1,0,-6,-1,-2,-10
-3,1,4,1,-3,2,1,-1,-7,-1,-2,-9
-3,0,4,1,-3,2,1,-1,-7,-1,-1,-9
-4,0,4,2,-4,2,0,-2,-9,-1,-1,-9
-5,-1,4,2,-4,2,0,-2,-10,-1,-1,-9
-5,-1,4,3,-5,2,0,-2,-10,-2,-1,-9
-5,-2,4,3,-5,1,0,-2,-11,-1,0,-8
-5,-1,4,3,-4,2,0,-3,-11,-1,0,-7
-4,0,4,2,-4,3,-1,-3,-12,-1,0,-7
-3,1,4,0,-3,3,-1,-4,-12,-1,1,-7
-2,2,3,0,-2,3,-1,-4,-12,-1,1,-6
-1,3,4,-1,-2,3,-1,-4,-12,-1,2,-6
-1,3,5,-2,-3,4,-2,-4,-13,-1,3,-6
0,4,6,-2,-3,5,-3,-5,-14,-1,3,-6
0,5,6,-3,-3,5,-4,-6,-14,-1,3,-6
0,5,6,-3,-3,6,-5,-7,-14,-1,3,-6
0,6,7,-3,-3,6,-5,-8,-15,-1,3,-6
-1,6,8,-3,-4,7,-5,-8,-16,-1,4,-6
0,8,8,-4,-4,8,-6,-8,-16,-1,4,-6
1,10,9,-5,-4,9,-6,-8,-16,-1,5,-5
2,11,8,-6,-3,9,-7,-9,-17,0,5,-3
4,10,6,-7,-1,8,-7,-9,-17,0,6,-1
5,10,5,-7,0,7,-8,-10,-18,1,7,0
5,10,5,-8,0,7,-9,-10,-20,1,7,1
6,10,5,-8,1,8,-11,-11,-22,0,8,2
7,11,4,-9,2,8,-12,-12,-23,0,8,3
8,11,3,-10,3,7,-13,-12,-24,1,10,4
9,11,2,-10,3,7,-14,-12,-24,1,11,5
10,11,2,-11,4,7,-15,-12,-25,0,11,5
11,13,2,-12,4,7,-16,-12,-26,0,11,4
12,14,2,-13,5,8,-17,-12,-26,0,11,4
14,15,1,-15,6,9,-17,-11,-25,1,12,4
15,16,1,-16,7,9,-17,-10,-25,2,12,4
16,16,0,-16,8,9,-17,-10,-24,2,12,4
16,16,0,-16,8,8,-17,-10,-24,2,12,3
17,16,0,-16,9,8,-17,-11,-25,1,12,3
18,16,-2,-17,10,7,-17,-11,-25,0,12,3
18,15,-3,-16,10,6,-18,-11,-25,0,12,2
18,14,-4,-16,11,5,-18,-11,-25,0,12,2
18,13,-5,-15,11,4,-18,-11,-25,0,11,1
18,12,-5,-15,12,3,-17,-10,-25,-1,11,0
18,12,-6,-15,12,3,-17,-10,-25,-1,10,-1
19,12,-6,-16,12,3,-17,-9,-25,-1,10,-2
20,13,-6,-17,13,3,-17,-9,-25,-1,10,-4
19,13,-6,-17,13,3,-16,-8,-24,0,10,-5
18,13,-5,-16,12,3,-16,-8,-23,0,9,-6
17,13,-4,-15,10,4,-15,-7,-22,0,9,-7
16,13,-3,-14,9,5,-14,-7,-21,1,9,-8
15,12,-2,-13,8,5,-14,-6,-21,2,9,-8
14,10,-2,-12,8,4,-13,-5,-20,2,9,-9
13,8,-3,-11,8,3,-13,-4,-19,2,9,-10
12,7,-4,-10,8,2,-12,-4,-18,2,9,-11
12,7,-4,-9,8,1,-12,-3,-17,3,9,-12
12,6,-4,-9,8,1,-11,-2,-15,3,9,-13
11,6,-5,-9,8,0,-10,-1,-14,4,9,-14
11,6,-5,-9,8,0,-9,-1,-13,4,8,-16
10,5,-4,-8,7,1,-9,0,-12,3,7,-18
9,4,-4,-8,7,0,-8,0,-11,3,6,-19
9,4,-5,-7,7,0,-8,0,-10,4,5,-20
9,4,-4,-7,7,0,-7,1,-9,4,4,-21
9,4,-4,-7,7,0,-6,2,-8,3,4,-22
8,4,-4,-6,6,0,-5,2,-6,4,3,-23
8,4,-4,-6,6,0,-4,2,-5,4,3,-24
7,3,-4,-5,5,0,-4,2,-3,3,2,-25
6,2,-4,-3,4,-1,-3,2,-2,3,0,-26
5,0,-4,-2,4,-2,-3,2,-1,3,0,-26
4,-2,-4,-1,4,-3,-2,2,0,3,-1,-27
3,-3,-4,0,4,-3,-2,2,0,3,-1,-26
3,-3,-5,0,4,-4,-1,2,1,3,-1,-26
3,-4,-5,0,4,-5,-1,2,1,3,-1,-26
3,-4,-6,1,4,-5,0,2,2,3,-2,-26
3,-3,-6,0,4,-5,0,3,3,2,-2,-26
4,-2,-5,0,4,-5,1,3,4,2,-2,-25
3,-3,-5,0,4,-4,1,3,4,2,-2,-25
2,-4,-5,1,3,-4,1,3,3,2,-3,-26
1,-4,-5,1,3,-4,1,3,3,2,-3,-26
1,-4,-4,1,3,-4,2,3,3,2,-3,-27
1,-4,-4,1,3,-4,2,3,3,0,-4,-27
0,-5,-4,2,2,-5,2,2,2,-1,-6,-28
0,-5,-4,3,1,-5,2,2,1,-1,-7,-28
0,-5,-4,3,1,-5,2,2,2,-1,-7,-29
0,-6,-5,3,2,-6,3,2,3,-1,-7,-29
0,-7,-6,3,2,-6,3,2,3,-1,-7,-28
0,-8,-6,4,3,-7,3,2,3,-1,-7,-28
-1,-8,-6,5,3,-7,3,2,2,0,-7,-28
-1,-9,-6,5,3,-8,3,2,2,-1,-7,-27
-1,-9,-6,6,3,-8,3,2,1,-1,-7,-27
-1,-9,-7,6,3,-9,3,2,1,-2,-7,-27
-1,-10,-7,6,3,-9,4,2,1,-2,-7,-26
-1,-10,-7,6,3,-10,4,2,1,-3,-7,-26
-1,-10,-7,6,3,-10,4,2,1,-3,-7,-25
-1,-10,-7,6,3,-10,4,2,0,-3,-7,-25
-1,-10,-7,6,3,-9,5,2,1,-3,-7,-25
0,-9,-7,5,3,-8,5,3,1,-3,-7,-24
0,-9,-6,5,3,-8,5,3,1,-3,-7,-24
-1,-9,-6,5,2,-8,5,2,1,-4,-7,-24
-1,-9,-7,6,2,-8,5,2,0,-4,-7,-24
-1,-9,-7,6,2,-9,5,2,0,-3,-7,-23
-1,-9,-7,6,2,-9,5,2,0,-3,-7,-23
-1,-10,-8,6,2,-9,5,3,0,-3,-7,-22
-1,-11,-8,6,2,-9,5,3,0,-4,-7,-22
-2,-11,-8,6,2,-9,4,3,0,-4,-7,-22
-1,-10,-8,6,3,-9,4,3,0,-4,-7,-22
-1,-10,-8,5,3,-9,4,3,0,-4,-7,-21
-1,-10,-7,5,3,-9,4,3,0,-3,-7,-20
-1,-10,-7,5,3,-9,5,3,0,-3,-7,-20
-1,-10,-7,5,3,-9,5,4,0,-3,-7,-19
0,-9,-7,5,2,-8,5,4,0,-3,-7,-19
0,-9,-6,5,2,-7,5,4,-1,-3,-7,-18
-1,-9,-6,5,2,-8,5,4,-1,-3,-7,-18
-1,-10,-6,6,2,-8,5,4,-1,-3,-7,-17
-2,-9,-6,6,1,-8,4,3,-1,-3,-7,-16
-2,-9,-5,6,0,-7,4,3,-1,-3,-7,-15
-3,-8,-5,6,0,-7,3,2,-1,-3,-7,-14
-2,-8,-5,6,0,-6,3,2,0,-3,-6,-13
-2,-7,-4,5,0,-5,3,1,0,-2,-6,-12
-1,-5,-3,4,0,-4,3,1,0,-2,-5,-10
-1,-4,-2,3,0,-3,3,1,0,-2,-5,-9
0,-3,-2,3,0,-2,3,1,0,-1,-4,-8
0,-2,-1,2,0,-2,3,1,1,-1,-4,-6
0,-2,0,2,0,-1,3,1,1,0,-3,-5
-1,-1,0,1,-1,0,3,1,1,0,-3,-4
0,-1,1,1,-1,0,3,1,1,1,-3,-2
0,0,1,0,-1,0,2,0,1,1,-2,-1
0,1,2,0,-2,1,1,0,0,2,-2,0
0,2,3,0,-2,2,0,0,0,2,-1,0
0,2,2,0,-2,2,-1,0,0,2,-1,1
0,2,2,-1,-1,2,-2,0,0,2,0,3
1,2,1,-1,0,2,-2,0,0,3,1,4
2,3,1,-2,0,2,-2,0,-1,3,2,5
3,4,1,-3,0,2,-2,0,-1,4,3,7
3,4,1,-3,0,2,-3,0,-1,4,3,8
3,4,1,-3,0,2,-3,1,-1,4,3,8
3,4,1,-3,1,3,-3,1,-1,5,4,9
4,5,1,-4,1,3,-2,2,-1,6,5,9
5,6,0,-5,2,3,-2,2,-1,7,5,10
5,5,0,-5,3,2,-1,2,-1,7,5,10
6,4,-2,-5,3,1,-1,3,-1,7,5,11
6,4,-3,-5,4,0,-1,3,-1,7,5,12
7,4,-3,-6,4,0,-1,4,-1,7,6,13
7,4,-4,-6,5,0,-1,4,-2,7,6,13
7,3,-4,-6,6,0,-1,4,-2,7,6,14
7,3,-4,-5,6,-1,-1,4,-2,6,6,14
7,2,-4,-5,6,-1,-1,4,-2,6,6,15
6,2,-3,-4,5,0,-1,4,-2,6,6,15
5,1,-3,-4,4,0,-1,4,-3,6,6,16
4,1,-2,-3,3,0,-1,4,-3,6,6,16
3,1,-1,-3,2,0,0,5,-3,6,6,16
2,1,0,-2,1,1,0,5,-3,6,6,16
1,1,0,-2,1,1,0,5,-4,6,5,16
1,1,0,-1,0,1,0,5,-4,6,5,16
0,1,1,-1,0,1,0,5,-5,6,4,16
0,1,2,0,0,1,0,5,-5,6,4,16
0,1,2,0,-1,2,0,5,-6,5,4,16
0,1,2,0,-1,2,0,6,-6,5,4,16
0,1,2,-1,-1,2,0,5,-6,5,4,16
0,1,2,-1,-1,2,0,5,-6,5,4,16
0,2,2,-1,-1,2,0,4,-7,5,4,16
0,2,2,-2,0,2,0,4,-7,5,4,16
0,3,2,-2,0,2,0,4,-8,5,4,16
0,3,1,-2,0,2,0,4,-9,5,4,16
0,3,1,-2,0,2,1,4,-9,5,5,16
0,3,2,-2,0,3,1,4,-9,5,5,15
0,3,2,-2,0,3,0,4,-9,4,4,15
0,2,2,-1,0,2,0,4,-10,4,4,15
-1,0,1,0,-1,1,0,4,-10,4,4,14
-1,0,1,0,-1,0,0,4,-10,4,4,14
-1,0,1,0,-1,0,0,4,-10,4,4,14
-1,0,1,0,-1,0,0,4,-10,4,4,13
0,1,1,0,-1,1,0,4,-10,4,4,13
0,2,1,-1,-1,1,-1,4,-10,4,4,13
0,2,1,0,-1,1,-1,3,-11,3,3,13
0,1,1,0,-1,1,-2,3,-11,3,3,12
0,1,1,0,-1,1,-2,3,-11,3,3,12
0,1,1,0,-1,1,-2,3,-11,3,2,11
0,1,1,0,-1,1,-2,2,-11,3,2,11
-1,0,1,0,-1,0,-2,2,-11,2,2,10
-1,0,1,0,0,0,-2,2,-11,2,1,10
-1,0,1,0,0,0,-3,2,-11,2,1,9
-1,1,1,0,0,1,-3,2,-11,1,1,8
-1,1,1,0,0,1,-3,2,-11,1,1,8
-1,1,1,0,0,1,-3,2,-11,1,1,7
-1,1,2,0,0,1,-3,2,-11,1,0,7
-1,0,1,0,-1,0,-3,2,-11,1,0,7
-2,-1,0,1,0,-1,-3,2,-11,2,0,7
-1,-1,0,0,0,0,-3,2,-10,2,0,7
0,0,0,0,0,0,-3,2,-10,2,0,6
0,0,0,0,0,0,-3,2,-10,2,0,5
-1,-1,0,0,0,-1,-3,2,-10,2,0,5
0,-1,0,0,0,-1,-3,2,-9,2,0,4
0,-1,-1,0,1,-1,-3,2,-9,2,0,4
0,-1,0,0,0,-1,-3,2,-9,1,-1,3
0,-1,0,0,0,-1,-3,2,-9,1,-1,3
-1,-1,0,1,0,-1,-2,2,-9,1,-1,3
-1,-1,0,1,0,-1,-2,2,-9,1,-1,2
-1,0,1,0,-1,0,-1,2,-7,2,-1,2
-2,1,3,0,-2,1,-1,3,-5,3,0,2
-3,1,4,1,-3,2,0,5,-1,6,0,1
-4,0,5,2,-4,3,0,6,3,10,1,1
-5,1,7,2,-6,4,1,7,8,15,4,1
-4,5,9,0,-6,7,1,9,14,22,9,4
-2,10,13,-4,-7,11,0,9,18,31,19,10
2,16,13,-9,-5,14,-4,9,18,40,32,19
10,20,10,-15,0,15,-8,8,15,49,47,30
20,24,4,-22,7,14,-13,9,10,58,65,43
33,28,-4,-30,19,12,-18,13,5,69,82,57
46,31,-14,-38,31,8,-22,18,2,79,98,69
56,31,-24,-44,41,4,-27,22,-2,87,110,79
64,30,-33,-47,49,-1,-31,25,-5,91,115,85
70,28,-42,-49,57,-7,-34,27,-9,87,111,85
73,23,-50,-48,62,-14,-34,27,-14,74,97,80
71,17,-55,-44,63,-19,-32,24,-20,58,77,70
65,12,-54,-38,59,-21,-29,17,-27,40,56,60
55,7,-47,-31,50,-20,-26,6,-33,21,34,49
41,2,-38,-22,39,-17,-21,-4,-38,0,11,35
26,-3,-29,-11,28,-16,-14,-13,-41,-23,-12,20
12,-10,-21,-1,17,-15,-8,-19,-43,-44,-33,4
0,-15,-15,7,8,-15,-2,-22,-41,-59,-49,-8
-8,-17,-10,12,1,-14,2,-22,-36,-66,-57,-16
-12,-17,-5,15,-3,-12,5,-20,-26,-65,-58,-19
-15,-16,-1,15,-6,-9,6,-16,-14,-59,-55,-19
-15,-14,1,14,-8,-7,7,-10,-1,-52,-51,-18
-14,-12,2,13,-8,-5,8,-5,12,-45,-47,-17
-14,-10,4,12,-9,-3,8,-1,23,-38,-43,-16
-14,-7,7,10,-10,0,8,1,32,-32,-39,-15
-14,-4,10,9,-11,2,9,3,41,-25,-34,-13
-15,-2,13,8,-13,5,9,6,50,-19,-30,-12
-16,0,16,8,-16,7,10,8,57,-14,-27,-11
-18,0,18,8,-18,9,12,11,64,-11,-25,-11
-18,0,19,8,-19,9,13,13,67,-9,-23,-10
-19,0,20,9,-19,10,14,15,70,-7,-21,-10
-19,0,20,9,-19,10,16,17,73,-5,-20,-10
-20,0,21,9,-20,10,18,18,77,-3,-18,-11
-20,-1,20,11,-20,9,20,19,79,-2,-17,-12
-20,-2,18,11,-19,7,22,21,81,-1,-17,-12
-20,-3,17,11,-18,6,23,21,83,0,-16,-12
-19,-3,16,11,-18,6,23,22,86,0,-15,-12
-18,-2,15,10,-17,6,24,22,88,1,-14,-12
-17,-2,15,9,-17,6,25,24,89,2,-14,-12
-17,-2,15,9,-16,5,26,25,91,2,-13,-12
-17,-3,14,10,-16,5,27,25,93,2,-13,-13
-18,-3,14,11,-16,5,26,21,91,2,-13,-13
-18,-3,14,11,-16,5,24,15,85,2,-12,-13
-18,-3,14,11,-16,5,22,8,74,0,-12,-13
-17,-4,13,11,-15,4,19,2,59,-1,-12,-13
-15,-4,11,10,-13,3,15,-2,42,-3,-12,-12
-12,-4,9,8,-11,2,12,-4,27,-5,-11,-12
-9,-3,7,6,-8,2,9,-6,16,-5,-10,-11
-5,-1,5,3,-5,1,7,-6,8,-5,-9,-9
-3,-1,3,2,-3,0,6,-6,2,-5,-8,-8
-3,-1,2,2,-2,0,5,-6,-2,-4,-7,-7
-2,-1,2,1,-1,0,4,-6,-5,-4,-6,-7
-2,-1,1,1,-1,0,3,-5,-7,-2,-5,-6
-2,-1,1,1,-1,-1,3,-4,-8,-1,-4,-6
-2,-2,1,2,-1,-1,2,-3,-9,-1,-4,-6
-2,-1,2,1,-2,0,1,-3,-10,-1,-4,-6
-2,0,3,1,-2,1,0,-3,-11,-1,-4,-6
-1,1,3,0,-2,1,0,-4,-11,0,-3,-6
-1,1,2,0,-1,1,1,-4,-12,0,-3,-6
-1,1,2,0,-1,1,1,-5,-12,0,-3,-7
-2,0,2,1,-2,0,0,-6,-13,-1,-4,-8
-2,-1,1,1,-2,0,0,-6,-14,-1,-4,-9
-1,-1,1,1,-1,0,0,-5,-14,-1,-4,-9
-1,0,2,0,-1,0,1,-5,-14,0,-4,-9
-1,-1,2,1,-2,0,1,-5,-13,0,-4,-8
-2,-2,2,2,-2,0,1,-5,-12,0,-4,-8
-3,-2,2,2,-2,-1,1,-6,-12,0,-3,-8
-3,-2,2,2,-2,-1,1,-6,-12,0,-3,-8
-3,-2,2,2,-2,0,1,-5,-12,-1,-3,-8
-4,-2,2,3,-3,0,1,-5,-12,-1,-3,-9
-4,-2,2,3,-3,0,1,-5,-12,-1,-3,-9
-4,-2,2,3,-3,0,1,-4,-11,-1,-3,-9
-4,-2,2,3,-3,0,0,-4,-10,-1,-3,-9
-4,-2,2,3,-3,0,0,-4,-10,-1,-3,-9
-3,-2,3,2,-3,0,0,-4,-10,-1,-3,-8
-3,-1,3,2,-3,0,0,-4,-10,-1,-3,-8
-2,-1,2,1,-2,0,0,-4,-9,-1,-3,-7
-2,-1,2,1,-2,0,0,-3,-9,-1,-3,-6
-2,-1,2,1,-2,0,0,-3,-9,-1,-3,-6
-3,-1,2,2,-2,0,0,-3,-9,-1,-3,-6
-4,-3,2,3,-3,-1,0,-3,-9,-1,-4,-6
-5,-4,3,4,-4,-1,0,-3,-9,-2,-4,-6
-6,-4,3,4,-4,-1,0,-3,-9,-2,-5,-6
-6,-4,3,4,-4,-1,0,-3,-9,-2,-4,-6
-5,-3,3,3,-4,0,0,-3,-9,-2,-4,-5
-3,-1,3,2,-3,0,0,-3,-9,-2,-4,-4
-3,0,4,1,-3,1,0,-3,-9,-3,-4,-4
-3,0,4,1,-4,2,0,-3,-10,-3,-4,-4
-4,0,4,2,-4,1,0,-3,-10,-2,-4,-3
-5,-2,4,3,-4,1,0,-3,-10,-2,-3,-3
-5,-2,4,3,-4,0,0,-2,-10,-2,-3,-2
-5,-2,4,3,-4,0,0,-2,-10,-2,-3,-2
-5,-1,4,3,-4,0,0,-2,-11,-2,-4,-2
-5,-1,4,3,-4,0,0,-3,-11,-3,-4,-2
-5,-1,4,3,-5,0,0,-3,-12,-3,-4,-2
-4,-1,4,2,-5,1,0,-2,-12,-3,-3,-1
-3,0,4,1,-4,2,0,-2,-12,-2,-3,-1
-3,1,4,1,-4,2,0,-2,-12,-2,-3,0
-3,0,4,1,-4,2,0,-2,-13,-2,-3,0
-4,0,5,1,-4,2,0,-2,-13,-2,-3,0
-4,0,5,1,-4,2,0,-2,-13,-2,-3,0
-4,0,5,2,-4,2,0,-2,-13,-2,-3,0
-5,0,5,3,-5,1,0,-3,-13,-3,-3,0
-5,0,5,3,-5,2,0,-3,-14,-3,-3,0
-4,0,5,2,-4,2,0,-3,-14,-2,-2,1
-4,0,5,2,-4,2,0,-3,-14,-2,-2,1
-4,0,5,1,-4,2,-1,-3,-14,-3,-2,2
-3,1,5,1,-4,3,-1,-3,-15,-3,-1,2
-3,2,5,0,-4,3,-1,-3,-15,-3,-1,3
-3,2,5,0,-4,3,-1,-4,-15,-3,-1,3
-3,2,6,1,-4,3,-1,-4,-15,-3,-1,4
-3,2,6,1,-4,3,-2,-5,-15,-3,-1,4
-3,1,5,1,-4,3,-2,-5,-15,-2,0,5
-2,1,5,0,-3,3,-2,-5,-15,-2,0,5
-2,2,5,0,-3,3,-2,-5,-15,-2,0,5
-2,2,6,0,-4,3,-2,-5,-15,-2,0,6
-2,3,6,-1,-4,4,-2,-5,-15,-2,0,6
-1,4,7,-1,-4,5,-3,-5,-15,-2,0,6
-1,5,7,-2,-4,5,-3,-5,-15,-2,1,6
-1,6,7,-3,-4,6,-3,-5,-15,-2,1,7
0,6,8,-3,-4,6,-4,-6,-15,-1,2,7
0,7,8,-4,-4,7,-4,-6,-15,-1,2,8
0,7,8,-4,-3,8,-4,-7,-15,0,3,8
1,8,8,-4,-3,8,-4,-7,-14,0,3,9
0,8,9,-4,-4,8,-4,-8,-14,0,3,9
0,9,10,-5,-4,9,-5,-9,-14,0,4,10
2,11,10,-7,-4,10,-5,-10,-14,1,5,11
3,13,11,-9,-3,12,-6,-10,-14,2,6,12
4,14,11,-9,-3,12,-7,-11,-14,2,7,13
4,14,11,-9,-3,12,-8,-11,-15,1,7,13
4,14,11,-8,-3,11,-10,-12,-16,1,7,14
4,14,10,-9,-3,11,-11,-12,-17,1,8,14
5,14,10,-10,-2,12,-12,-12,-18,1,8,15
6,15,10,-11,-1,12,-13,-12,-18,1,9,16
8,16,9,-12,0,12,-13,-11,-18,1,9,18
10,17,8,-14,1,12,-13,-11,-18,1,10,19
11,18,8,-15,2,12,-13,-11,-19,1,11,20
12,19,8,-15,2,12,-14,-11,-19,1,11,21
12,20,8,-16,2,13,-15,-11,-20,2,12,21
12,20,8,-16,2,13,-15,-11,-20,2,12,22
12,18,6,-15,3,12,-16,-10,-21,2,13,23
13,17,5,-15,3,11,-16,-10,-21,1,13,23
14,18,4,-15,4,11,-15,-9,-22,1,13,24
15,18,3,-16,5,10,-15,-8,-22,1,14,25
16,18,2,-17,6,10,-14,-7,-22,1,14,26
16,18,2,-17,7,9,-14,-6,-22,1,14,27
16,18,1,-17,7,9,-14,-6,-22,1,14,27
16,17,1,-16,8,8,-14,-6,-22,1,14,27
16,17,1,-16,8,8,-14,-6,-22,1,14,28
16,17,1,-16,8,8,-14,-6,-23,1,14,28
16,17,1,-16,8,8,-14,-6,-23,1,14,29
16,16,1,-16,7,8,-14,-7,-24,1,14,29
15,15,0,-15,7,7,-14,-7,-24,1,14,29
15,15,0,-15,7,6,-14,-6,-24,1,14,29
15,14,0,-14,7,6,-13,-6,-23,2,14,29
14,14,0,-14,7,6,-12,-5,-23,3,14,29
14,14,0,-14,7,6,-11,-4,-22,4,15,29
13,13,0,-13,6,6,-10,-3,-21,4,15,29
11,11,1,-11,5,5,-9,-2,-21,4,14,28
9,10,1,-9,4,5,-9,-2,-21,4,14,27
7,9,2,-8,3,5,-8,-2,-21,4,13,26
6,9,2,-8,2,5,-8,-1,-21,4,13,25
6,9,3,-8,2,6,-7,-1,-21,4,12,24
6,9,3,-8,2,6,-6,-1,-20,4,12,23
6,9,3,-8,2,5,-5,0,-19,5,11,23
6,8,3,-8,2,5,-4,0,-18,5,11,22
6,7,2,-7,2,4,-3,0,-17,6,11,21
5,7,2,-6,2,4,-2,1,-16,6,11,20
4,6,2,-5,1,3,-2,1,-15,6,10,19
3,5,2,-4,0,3,-2,1,-14,6,10,17
3,5,2,-4,0,3,-2,2,-13,6,9,16
3,5,2,-4,0,3,-1,2,-12,6,8,15
3,4,2,-3,0,2,0,2,-11,6,8,14
2,3,2,-2,0,1,0,2,-10,6,7,14
1,3,3,-1,0,1,0,2,-10,6,6,13
1,3,3,-1,-1,2,0,2,-9,6,5,12
1,3,4,-1,-1,3,1,3,-8,6,5,11
0,3,3,-1,-1,2,1,3,-7,6,4,10
-2,1,3,0,-2,1,1,3,-7,5,3,9
-3,0,3,1,-3,1,1,3,-6,4,2,8
-4,0,3,2,-3,0,1,3,-6,4,1,7
-4,-1,3,3,-4,0,1,2,-6,3,0,6
-5,-2,3,3,-4,0,2,2,-5,3,0,5
-4,-2,3,3,-4,0,2,2,-5,3,0,4
-3,-1,3,2,-3,0,3,3,-4,3,0,4
-3,-1,2,2,-2,0,3,3,-3,3,0,3
-2,-1,1,1,-1,-1,4,4,-3,3,0,3
-1,-1,0,1,-1,-1,4,4,-2,3,-1,3
-3,-2,0,2,-2,-1,4,3,-2,2,-2,2
-4,-3,1,3,-2,-1,3,3,-2,1,-3,1
-4,-3,2,3,-3,-1,3,2,-2,1,-4,0
-5,-3,2,4,-3,-1,3,2,-2,1,-4,0
-5,-4,1,4,-3,-2,3,2,-2,1,-4,0
-5,-4,1,4,-3,-2,3,1,-2,0,-4,-1
-5,-4,1,5,-3,-3,3,1,-3,0,-4,-1
-6,-5,1,5,-3,-3,3,1,-3,0,-4,-1
-5,-5,1,5,-3,-3,4,1,-3,0,-5,-2
-5,-4,1,5,-3,-2,4,2,-3,0,-5,-2
-5,-4,2,5,-4,-2,4,2,-3,0,-6,-2
-6,-5,2,5,-4,-2,4,2,-3,-1,-6,-3
-6,-6,1,6,-4,-3,4,2,-3,-1,-6,-3
-6,-6,1,6,-4,-4,4,2,-3,-1,-7,-3
-6,-6,1,6,-4,-4,5,2,-3,-1,-7,-4
-7,-7,1,6,-4,-4,5,1,-3,-2,-7,-4
-7,-7,1,6,-4,-4,5,1,-3,-2,-8,-4
-7,-7,0,6,-3,-4,5,1,-4,-2,-8,-4
-7,-7,0,6,-3,-4,5,1,-4,-2,-8,-4
-7,-7,0,6,-3,-3,5,1,-4,-2,-8,-4
-6,-6,0,6,-3,-3,6,1,-4,-2,-8,-4
-6,-6,0,6,-3,-3,6,1,-4,-2,-8,-4
-6,-6,0,6,-3,-3,6,1,-4,-2,-7,-4
-6,-6,1,6,-3,-3,6,1,-4,-2,-7,-4
-7,-6,1,6,-4,-3,6,1,-5,-3,-7,-4
-8,-7,1,7,-5,-3,5,0,-5,-3,-8,-4
-7,-7,1,7,-5,-3,5,0,-4,-3,-8,-3
-7,-7,1,7,-4,-3,5,0,-4,-3,-7,-3
-7,-7,1,7,-4,-2,5,0,-4,-3,-7,-2
-7,-7,2,7,-5,-2,5,0,-4,-3,-7,-2
-7,-6,2,7,-5,-2,5,0,-3,-3,-7,-2
-7,-6,2,7,-4,-2,5,0,-2,-2,-6,-1
-7,-5,2,6,-4,-2,5,0,-1,-2,-5,-1
-7,-5,2,6,-4,-2,5,0,-1,-2,-5,-1
-7,-5,3,6,-5,-1,5,0,-1,-2,-5,-1
-7,-4,4,5,-5,0,4,-1,-1,-1,-5,0
-6,-2,5,4,-5,1,4,-1,-1,-1,-5,0
-6,-1,6,4,-6,2,4,-1,0,-1,-5,1
-8,-1,6,5,-7,2,3,-2,0,-1,-5,2
-9,-1,7,5,-8,2,2,-3,0,-1,-5,2
-8,0,8,4,-8,3,1,-4,0,-1,-5,3
-7,1,8,3,-8,4,1,-5,0,-1,-5,3
-6,2,9,1,-7,5,0,-5,0,0,-4,4
-5,3,9,0,-7,6,0,-4,0,0,-4,4
-4,4,9,0,-6,6,0,-4,0,0,-3,5
-4,4,8,0,-5,5,0,-3,0,1,-3,6
-3,4,7,0,-5,5,-1,-3,0,1,-2,7
-2,5,7,-1,-4,5,-1,-3,0,2,-2,7
-1,6,7,-2,-4,6,-2,-3,0,2,-1,7
-1,6,7,-2,-4,6,-2,-3,1,3,-1,7
-1,5,6,-2,-3,5,-2,-2,1,3,0,7
-1,4,6,-2,-3,5,-2,-2,1,3,0,8
0,4,5,-2,-3,5,-2,-2,1,4,0,8
0,5,5,-2,-3,5,-2,-2,1,4,0,8
0,6,5,-3,-3,6,-2,-2,2,4,0,8
0,6,5,-3,-2,6,-2,-2,2,5,1,8
0,6,5,-2,-2,5,-2,-1,2,5,1,8
0,4,4,-1,-2,4,-2,-1,1,5,1,8
0,3,4,-1,-2,3,-2,-1,1,5,1,8
0,3,3,-2,-2,3,-2,-1,1,5,1,8
1,3,3,-2,-1,3,-2,-1,1,5,1,9
2,3,2,-3,0,3,-2,-1,1,5,1,9
3,4,2,-3,0,3,-2,-1,1,5,1,8
2,3,1,-3,0,3,-2,-1,1,4,1,8
2,3,1,-2,0,2,-2,-1,1,4,1,7
2,4,1,-3,0,3,-2,-1,1,4,1,7
2,4,2,-3,0,3,-2,-1,1,4,1,7
1,3,2,-2,0,3,-1,0,2,4,1,7
0,3,3,-2,-1,3,-1,0,2,4,1,6
0,2,4,-1,-2,3,-1,0,2,5,0,6
-2,2,4,0,-3,3,-1,0,2,5,0,5
-3,1,5,0,-4,3,-1,0,2,5,0,5
-4,2,5,0,-5,4,-1,0,3,5,0,4
-4,2,5,0,-5,4,0,0,3,5,0,4
-4,2,6,0,-5,4,0,0,3,5,0,4
-4,2,6,0,-5,4,0,0,3,5,0,4
-3,3,7,0,-4,5,1,0,3,5,0,3
-2,4,7,-1,-4,5,1,0,3,5,0,3
-2,4,7,-1,-4,5,1,0,3,5,0,3
-2,3,7,-1,-4,5,1,0,3,5,0,3
-2,3,7,0,-4,5,1,0,2,5,0,3
-3,3,7,0,-5,5,1,0,2,5,0,2
-3,3,7,0,-5,5,1,0,2,5,0,2
-4,2,7,0,-5,5,1,0,2,5,0,2
-4,2,7,1,-5,5,1,0,1,4,0,1
-4,1,7,1,-5,4,1,0,0,4,-1,1
-4,1,7,1,-5,4,1,0,0,3,-1,0
-4,1,7,1,-5,4,1,0,0,3,-2,0
-4,1,6,1,-5,4,1,0,0,3,-2,0
-3,1,5,1,-5,4,1,0,0,3,-2,0
-3,1,5,1,-4,3,1,0,0,3,-2,0
-4,0,4,2,-4,2,1,0,0,3,-2,0
-4,-1,4,2,-4,2,1,0,0,3,-2,0
-5,-1,4,3,-4,1,2,0,0,3,-2,0
-5,-1,4,3,-4,1,2,0,0,3,-2,0
-5,-1,4,3,-5,1,2,0,0,3,-2,-1
-5,-1,4,3,-5,1,2,0,0,3,-2,-1
-6,-1,5,4,-5,2,2,-1,0,2,-2,-1
-6,-1,5,4,-5,2,2,-1,-1,2,-2,-1
-6,-1,5,4,-6,1,2,-1,-1,1,-3,-1
-6,-1,5,4,-6,1,2,-1,-1,1,-3,-2
-6,-1,5,4,-6,1,2,-1,-1,1,-3,-2
-6,-2,4,4,-5,1,2,-1,0,1,-3,-2
-6,-2,4,4,-5,0,2,-1,0,1,-3,-2
-6,-2,3,4,-4,0,2,-1,0,1,-4,-2
-5,-2,3,4,-4,0,3,-1,0,1,-4,-2
-5,-2,3,4,-4,0,3,-1,0,1,-4,-2
-5,-2,3,4,-4,0,3,-1,0,1,-4,-2
-5,-2,3,4,-4,0,3,-1,0,1,-4,-2
-5,-2,3,4,-3,0,3,-1,0,1,-4,-2
-4,-2,3,4,-3,0,3,-1,0,1,-4,-1
-4,-2,2,4,-3,0,3,-1,-1,1,-4,-1
-4,-2,2,4,-3,0,4,-1,-1,1,-4,-2
-4,-2,2,4,-3,0,4,-1,-1,1,-4,-2
-4,-2,2,4,-3,0,4,0,-1,1,-4,-2
-5,-3,2,4,-3,0,4,0,-1,0,-4,-2
-5,-4,2,4,-3,-1,4,-1,-2,0,-5,-2
-6,-4,2,5,-3,-1,3,-1,-2,0,-5,-2
-6,-4,2,5,-3,-1,3,-1,-3,0,-5,-2
-6,-4,2,5,-3,-1,3,-1,-3,0,-5,-3
-6,-5,1,6,-3,-2,2,-1,-4,-1,-5,-3
-6,-5,1,6,-3,-2,2,-1,-4,-1,-6,-3
-6,-5,1,5,-3,-2,2,-1,-4,-1,-6,-3
-5,-5,1,5,-3,-2,2,-1,-4,0,-6,-3
-5,-4,1,5,-3,-2,2,-2,-4,0,-6,-3
-5,-4,1,5,-3,-2,2,-2,-5,-1,-6,-3
-5,-4,0,4,-2,-2,3,-2,-5,0,-5,-2
-4,-3,0,4,-2,-1,3,-2,-5,0,-5,-2
-3,-3,0,3,-2,-1,3,-2,-5,0,-5,-2
-3,-3,1,3,-2,-1,3,-2,-5,0,-4,-2
-4,-3,1,4,-2,-1,3,-2,-6,0,-4,-2
-5,-4,0,5,-2,-2,3,-2,-6,0,-4,-2
-5,-5,0,5,-2,-2,3,-1,-6,0,-4,-1
-5,-5,0,4,-2,-2,3,-1,-6,0,-4,-1
-4,-4,0,3,-1,-2,3,0,-6,0,-4,-1
-3,-3,0,3,-1,-1,3,0,-6,0,-3,-1
-3,-3,0,3,-1,-1,3,0,-5,0,-3,0
-3,-3,0,3,-1,-1,3,0,-5,0,-3,0
-3,-2,1,2,-1,0,3,-1,-5,0,-3,0
-2,-1,1,1,-1,1,3,-1,-5,0,-2,0
-3,-1,1,2,-2,0,3,-2,-5,0,-2,1
-4,-3,1,3,-2,0,3,-2,-5,0,-2,1
-4,-4,1,4,-3,-1,2,-2,-5,1,-2,1
-5,-4,1,5,-3,-1,2,-2,-5,1,-2,1
-5,-4,1,5,-3,-1,2,-3,-5,1,-2,1
-5,-3,1,4,-3,-1,2,-3,-4,1,-2,1
-4,-2,1,3,-3,0,1,-3,-4,1,-2,2
-2,-1,1,2,-2,0,1,-3,-4,2,-1,3
-1,0,1,0,-2,1,0,-4,-4,2,-1,3
-1,1,1,0,-1,1,-1,-4,-4,2,-1,4
0,1,1,0,-1,1,-2,-4,-4,3,0,4
0,2,1,-1,0,1,-3,-4,-4,3,0,5
1,2,1,-1,0,1,-4,-4,-4,3,0,5
1,2,1,-1,0,2,-4,-5,-4,3,0,5
1,3,1,-1,0,2,-5,-5,-4,3,0,5
1,3,1,-2,0,3,-5,-5,-4,3,0,5
1,3,1,-2,0,3,-5,-4,-4,4,0,6
3,3,0,-3,1,2,-5,-3,-4,4,1,6
4,4,0,-3,2,2,-5,-3,-4,5,1,7
4,3,-1,-3,2,1,-5,-3,-4,5,1,7
4,3,-1,-3,3,0,-5,-2,-4,5,1,7
5,2,-2,-3,4,0,-4,-1,-4,5,1,6
5,1,-3,-3,4,-1,-4,0,-4,5,1,6
5,0,-4,-2,4,-2,-3,0,-4,4,1,6
5,0,-5,-2,4,-2,-3,0,-4,4,1,5
5,0,-5,-2,5,-3,-3,0,-3,4,1,5
6,0,-6,-3,5,-3,-3,0,-3,4,1,5
7,1,-6,-4,6,-3,-3,0,-3,4,1,5
8,1,-6,-4,7,-3,-3,0,-4,4,1,5
8,1,-6,-4,7,-3,-3,-1,-4,4,1,4
8,1,-7,-4,7,-3,-3,-1,-5,4,0,4
8,1,-7,-4,7,-3,-3,-2,-6,3,0,4
8,1,-7,-4,7,-2,-3,-2,-7,3,0,4
8,1,-7,-4,7,-2,-3,-2,-7,3,0,4
8,1,-7,-4,7,-2,-3,-2,-6,3,0,4
7,1,-6,-4,6,-2,-3,-2,-6,3,0,4
6,1,-5,-3,6,-2,-3,-2,-6,3,0,3
5,1,-5,-3,5,-2,-2,-2,-5,3,0,3
5,1,-4,-2,5,-2,-2,-2,-5,4,0,3
4,0,-4,-1,4,-2,-2,-2,-5,4,0,3
2,0,-3,0,3,-1,-2,-3,-5,3,0,3
1,0,-2,0,2,-1,-2,-3,-6,3,0,2
1,-1,-2,0,1,-1,-2,-3,-6,3,0,2
0,-1,-1,0,1,-1,-1,-3,-6,3,0,1
0,-1,-1,0,1,-1,-1,-3,-5,3,0,1
0,-1,-1,1,0,-1,-1,-3,-5,3,0,0
0,-1,-1,1,0,-1,-1,-2,-5,3,-1,0
0,-1,0,1,0,0,0,-2,-5,3,-1,0
0,-1,-1,1,1,-1,0,-2,-5,4,0,0
0,-1,-2,1,1,-1,0,-2,-5,4,0,0
0,-2,-2,1,1,-2,0,-2,-5,3,0,0
0,-2,-2,1,1,-2,0,-2,-5,3,-1,-1
0,-1,-2,1,1,-2,0,-2,-5,3,-1,-1
0,-1,-2,1,1,-2,0,-2,-5,3,-1,-1
0,-2,-2,1,0,-2,0,-2,-5,3,-1,-2
0,-2,-2,1,0,-2,0,-2,-5,3,-1,-2
0,-2,-2,1,0,-1,1,-2,-5,3,-1,-2
-1,-2,-2,2,0,-1,1,-2,-5,2,-1,-2
-2,-3,-2,3,0,-2,1,-2,-5,2,-2,-3
-3,-3,-1,3,0,-2,1,-2,-5,1,-2,-3
-3,-3,0,3,-1,-1,1,-2,-5,1,-3,-4
-3,-2,1,3,-2,0,1,-2,-4,2,-3,-4
-3,0,3,2,-3,1,1,-2,-2,4,-2,-4
-4,1,5,2,-5,3,1,-2,2,7,-1,-4
-7,1,9,3,-8,5,1,-2,7,12,1,-4
-10,2,12,4,-11,8,1,-1,14,18,4,-3
-10,6,16,3,-13,11,0,0,20,25,10,0
-8,12,19,-1,-14,15,-1,1,26,36,20,7
-3,18,21,-7,-12,20,-4,3,28,48,33,17
5,24,19,-15,-7,22,-8,4,27,59,50,28
16,29,13,-22,1,21,-13,6,23,71,67,41
28,33,5,-30,12,20,-18,10,19,82,83,52
40,35,-4,-37,23,16,-23,15,16,94,98,63
52,35,-15,-43,34,10,-27,22,14,104,109,71
62,34,-27,-47,44,4,-30,30,13,109,115,76
70,30,-40,-49,55,-5,-31,39,12,105,110,75
76,21,-55,-48,65,-17,-30,46,10,91,94,67
78,10,-70,-44,74,-30,-27,50,4,71,72,55
76,0,-77,-37,76,-39,-25,46,-3,49,48,42
69,-8,-77,-30,73,-42,-22,35,-13,26,25,29
57,-14,-70,-21,64,-41,-18,19,-22,3,3,16
43,-19,-61,-11,52,-39,-13,4,-29,-19,-17,4
27,-24,-50,-1,39,-37,-6,-9,-35,-40,-36,-8
13,-28,-42,8,28,-36,1,-17,-38,-59,-52,-20
2,-32,-36,15,19,-35,7,-21,-37,-71,-63,-29
-5,-34,-30,19,12,-33,12,-20,-31,-75,-68,-34
-9,-34,-25,21,7,-30,15,-16,-20,-73,-68,-36
-12,-33,-20,22,4,-26,17,-11,-7,-66,-65,-35
-14,-32,-16,23,1,-23,18,-5,6,-59,-61,-35
-15,-30,-13,23,-1,-21,19,0,17,-53,-58,-34
-17,-29,-10,24,-3,-19,21,5,27,-47,-54,-34
-18,-26,-7,23,-5,-17,22,8,36,-41,-50,-32
-19,-22,-3,21,-8,-13,23,10,43,-35,-45,-29
-20,-19,1,20,-11,-10,23,12,48,-30,-41,-27
-23,-17,6,20,-14,-6,23,12,52,-26,-37,-25
-24,-15,10,19,-17,-2,23,11,54,-24,-35,-24
-25,-14,12,19,-19,0,25,11,55,-22,-32,-23
-26,-14,14,20,-20,0,26,10,57,-20,-30,-22
-28,-14,15,21,-21,0,27,10,60,-18,-29,-22
-30,-13,16,22,-23,1,29,10,63,-16,-28,-22
-30,-13,16,21,-23,1,31,11,67,-14,-26,-22
-30,-13,16,21,-23,1,32,11,72,-11,-24,-21
-30,-14,16,22,-24,1,33,12,75,-9,-23,-21
-31,-14,17,22,-24,1,33,12,77,-8,-23,-21
-30,-13,18,22,-24,2,34,13,78,-8,-22,-21
-30,-13,18,22,-24,3,35,15,80,-7,-22,-20
-30,-12,19,21,-24,3,35,15,82,-6,-21,-20
-29,-10,19,20,-24,4,34,14,82,-6,-21,-19
-29,-9,19,19,-24,4,33,9,78,-6,-20,-18
-28,-8,20,18,-24,5,31,3,70,-6,-19,-17
-27,-8,19,18,-24,5,28,-2,56,-7,-18,-16
-26,-8,18,17,-22,4,25,-5,41,-9,-18,-15
-23,-8,16,15,-20,4,22,-7,27,-10,-17,-14
-20,-7,14,13,-17,4,18,-9,17,-10,-16,-13
-17,-5,13,11,-15,4,15,-9,9,-10,-15,-12
-14,-3,12,9,-14,5,12,-10,5,-10,-14,-11
-12,-1,11,7,-12,5,9,-9,2,-8,-12,-10
-10,0,10,5,-10,5,7,-9,0,-6,-11,-9
-8,1,9,3,-9,5,5,-8,-1,-5,-9,-8
-6,2,8,2,-7,5,3,-8,-2,-3,-8,-7
-4,2,7,0,-5,5,1,-7,-3,-2,-7,-7
-2,2,6,0,-4,5,-1,-7,-3,-1,-6,-6
0,3,5,-1,-3,5,-2,-7,-4,-1,-6,-6
0,4,5,-2,-2,5,-4,-7,-4,-1,-6,-6
0,5,4,-2,-2,5,-4,-6,-4,-1,-5,-5
1,5,3,-3,-1,4,-5,-6,-5,0,-5,-4
2,5,2,-4,0,4,-5,-6,-5,0,-4,-4
2,5,2,-3,0,4,-6,-6,-5,0,-4,-3
2,4,2,-3,0,3,-6,-6,-5,0,-4,-3
3,4,1,-3,0,3,-6,-5,-5,0,-4,-3
3,4,1,-3,1,3,-6,-4,-5,0,-4,-3
4,4,0,-3,2,2,-6,-4,-6,0,-4,-3
5,4,0,-4,2,2,-5,-3,-6,0,-4,-3
5,4,-1,-4,3,2,-5,-3,-6,0,-3,-3
5,3,-2,-4,3,1,-5,-3,-6,0,-3,-3
5,3,-2,-4,4,0,-5,-3,-6,0,-3,-3
6,3,-2,-4,4,0,-5,-3,-7,0,-3,-3
6,3,-2,-4,3,0,-5,-3,-8,0,-3,-3
5,3,-2,-4,3,0,-5,-4,-9,0,-3,-4
6,3,-2,-4,3,1,-5,-4,-10,0,-3,-4
6,4,-2,-5,4,1,-5,-4,-10,0,-2,-4
6,4,-2,-5,4,1,-5,-5,-11,0,-2,-4
5,4,-1,-4,3,1,-5,-6,-11,0,-2,-4
4,4,-1,-4,2,2,-5,-6,-11,0,-2,-4
4,4,0,-4,1,3,-5,-7,-11,0,-1,-4
3,5,1,-4,0,4,-4,-7,-11,1,-1,-4
2,5,3,-3,-1,4,-4,-7,-11,0,-1,-4
0,4,4,-1,-2,4,-4,-7,-11,0,-1,-5
-2,2,4,0,-3,4,-4,-7,-12,0,-1,-5
-3,1,4,1,-3,3,-4,-6,-12,0,-1,-5
-3,1,3,1,-3,3,-3,-6,-12,0,-1,-5
-2,1,4,1,-3,3,-3,-6,-12,0,-1,-6
-2,2,4,0,-3,4,-3,-6,-12,0,-1,-6
-2,1,4,0,-3,3,-3,-5,-11,0,-1,-7
-2,1,4,0,-3,3,-2,-5,-10,0,-1,-7
-2,1,4,0,-3,3,-2,-5,-10,0,-1,-7
-2,1,4,0,-4,4,-1,-5,-9,0,-1,-7
-2,2,5,0,-4,4,-1,-5,-9,0,-1,-7
-2,2,5,0,-4,4,-1,-5,-8,0,-1,-7
-2,2,4,0,-3,4,-1,-5,-8,1,-1,-7
-2,2,4,0,-3,3,-1,-5,-8,1,-1,-7
-2,1,4,0,-3,3,-1,-5,-8,1,-1,-7
-2,1,4,0,-3,3,-1,-5,-8,0,-1,-7
-2,1,4,0,-3,3,-1,-5,-8,0,-1,-7
-2,1,4,0,-3,3,-1,-5,-8,0,-1,-7
-2,1,4,0,-3,4,-2,-5,-8,0,-1,-8
-3,1,5,1,-4,4,-2,-5,-8,0,-2,-9
-3,0,4,1,-4,3,-2,-6,-7,0,-2,-9
-4,0,4,2,-4,2,-2,-5,-7,0,-3,-9
-3,0,3,2,-4,2,-2,-5,-6,0,-3,-9
-2,1,3,1,-3,2,-1,-4,-6,0,-3,-9
-2,2,4,0,-3,3,-1,-4,-5,0,-3,-8
-2,1,4,1,-3,3,-1,-5,-5,0,-3,-8
-3,0,3,2,-3,2,-1,-5,-6,0,-3,-8
-4,-2,3,3,-3,1,-1,-5,-6,0,-3,-8
-4,-2,3,4,-3,1,-1,-5,-6,0,-3,-8
-5,-2,3,4,-4,1,-1,-5,-6,0,-3,-8
-5,-2,3,4,-4,1,-1,-4,-6,-1,-4,-8
-4,-2,3,4,-4,1,-1,-4,-6,-1,-4,-8
-3,-1,2,3,-4,1,-1,-4,-6,-1,-4,-8
-2,-1,2,2,-3,1,-1,-5,-7,-1,-4,-7
-2,0,2,2,-3,1,0,-5,-7,-1,-4,-6
-2,0,2,2,-3,1,0,-5,-7,-1,-4,-6
-2,0,2,2,-3,1,-1,-5,-8,-1,-4,-5
-3,0,3,2,-3,1,-1,-6,-9,-2,-4,-5
-3,0,3,2,-3,2,-1,-6,-10,-2,-4,-5
-3,0,3,2,-3,2,-1,-7,-11,-2,-3,-4
-2,0,3,1,-3,2,-1,-7,-12,-2,-3,-4
-2,0,3,1,-3,2,-2,-7,-13,-2,-2,-3
-2,0,3,1,-3,2,-2,-7,-14,-3,-2,-3
-2,0,3,1,-3,2,-2,-7,-15,-3,-2,-3
-1,1,3,0,-2,2,-2,-7,-15,-3,-1,-1
-1,1,3,0,-2,3,-2,-8,-16,-3,0,0
0,2,4,-1,-2,3,-3,-8,-17,-3,0,0
0,4,4,-2,-2,4,-3,-8,-18,-3,1,0
1,4,4,-2,-2,4,-4,-8,-19,-3,1,1
1,4,4,-2,-2,4,-4,-9,-20,-4,1,1
1,4,4,-1,-2,4,-5,-9,-22,-4,1,2
1,4,4,-2,-1,4,-5,-10,-23,-4,2,3
2,4,3,-2,-1,4,-6,-10,-23,-4,2,4
2,5,3,-3,0,5,-6,-10,-24,-4,3,5
3,6,3,-4,0,5,-6,-10,-25,-5,3,6
4,6,2,-4,0,5,-7,-11,-26,-5,4,7
4,6,2,-4,0,5,-7,-11,-27,-5,4,7
5,6,2,-5,1,5,-7,-11,-28,-5,5,8
6,7,2,-6,1,5,-8,-11,-28,-6,6,8
7,8,2,-7,2,5,-8,-11,-29,-6,7,9
8,9,2,-8,3,5,-8,-11,-29,-6,7,10
8,10,2,-9,4,6,-9,-11,-29,-6,8,10
9,11,2,-10,4,7,-10,-12,-30,-6,8,11
10,13,3,-11,4,8,-11,-12,-30,-6,8,11
10,13,2,-12,4,8,-12,-13,-31,-6,8,11
10,12,2,-11,4,7,-12,-13,-31,-6,8,11
10,11,2,-10,3,7,-12,-13,-30,-6,8,11
9,10,2,-9,3,7,-12,-13,-30,-6,7,11
9,10,2,-9,3,7,-12,-13,-30,-7,7,11
10,11,2,-10,4,7,-12,-14,-30,-7,8,11
11,13,2,-12,5,7,-12,-14,-30,-6,8,12
13,14,2,-13,6,8,-13,-14,-29,-6,9,12
13,14,1,-14,6,8,-14,-14,-29,-5,9,12
14,14,1,-14,6,8,-15,-14,-28,-5,9,12
14,14,0,-14,6,7,-15,-14,-28,-5,9,12
15,13,-1,-14,8,7,-16,-13,-28,-4,9,11
16,13,-2,-14,9,6,-16,-13,-27,-4,8,11
16,12,-3,-13,10,5,-16,-12,-27,-3,8,10
16,12,-4,-13,10,4,-16,-12,-26,-3,8,10
15,11,-4,-13,10,3,-16,-11,-25,-3,8,9
16,10,-5,-13,10,3,-16,-11,-24,-2,8,8
17,11,-6,-14,11,3,-16,-9,-23,-1,8,8
18,11,-7,-14,12,2,-16,-8,-22,0,8,7
17,10,-7,-13,12,2,-16,-7,-21,0,7,6
16,9,-7,-13,11,2,-15,-6,-21,0,7,5
16,10,-7,-13,11,2,-15,-6,-20,1,7,4
17,10,-7,-13,12,2,-14,-6,-19,2,7,4
17,10,-7,-14,12,1,-13,-5,-17,2,7,3
18,10,-8,-14,13,1,-12,-5,-16,2,6,2
18,8,-9,-13,13,0,-11,-4,-15,2,6,1
17,6,-10,-12,13,-1,-10,-3,-15,2,5,0
16,4,-10,-10,13,-2,-10,-2,-15,2,4,-2
15,3,-11,-8,12,-3,-10,-1,-14,2,4,-3
14,2,-12,-7,12,-4,-9,-1,-13,2,3,-4
14,1,-12,-7,12,-5,-8,0,-12,2,3,-5
13,1,-12,-7,12,-5,-7,0,-11,2,2,-5
13,1,-12,-7,12,-5,-6,0,-10,2,2,-6
13,0,-12,-6,12,-6,-5,0,-9,2,1,-6
13,0,-12,-6,12,-6,-5,0,-8,2,1,-7
12,0,-12,-6,12,-5,-5,0,-8,2,1,-7
12,0,-11,-5,11,-5,-4,0,-8,2,1,-8
12,0,-12,-6,12,-5,-4,0,-8,2,1,-8
13,0,-12,-7,12,-5,-4,0,-7,2,1,-9
13,0,-12,-6,12,-5,-4,0,-7,2,0,-11
11,0,-11,-5,10,-5,-4,-1,-7,1,-1,-12
10,0,-10,-5,9,-5,-3,-1,-7,1,-1,-13
9,-1,-10,-4,9,-6,-3,-1,-6,1,-2,-14
7,-2,-9,-3,8,-5,-2,-1,-5,1,-2,-14
6,-1,-8,-2,7,-4,-1,0,-5,1,-3,-14
6,-1,-7,-2,6,-4,-1,0,-4,0,-3,-14
5,-2,-7,-1,6,-4,0,0,-4,0,-3,-14
4,-3,-6,0,5,-4,0,0,-4,0,-3,-14
3,-3,-6,0,4,-4,0,0,-4,0,-2,-13
2,-4,-6,1,4,-5,0,0,-4,0,-2,-13
2,-3,-6,0,4,-4,0,0,-4,0,-1,-13
3,-2,-6,0,4,-3,0,0,-4,0,-1,-13
2,-2,-6,0,4,-4,0,0,-4,0,-1,-12
2,-4,-6,1,4,-5,1,0,-3,0,-1,-12
1,-5,-6,2,4,-5,1,0,-3,-1,-2,-13
1,-5,-5,2,3,-5,1,0,-3,-1,-3,-14
0,-6,-6,2,3,-5,1,0,-3,-1,-3,-14
0,-7,-7,3,3,-6,2,0,-3,-1,-3,-14
0,-6,-7,3,3,-6,2,0,-3,-1,-4,-14
0,-6,-7,2,3,-6,2,0,-3,-1,-5,-15
0,-6,-7,3,3,-6,2,0,-3,-2,-5,-15
0,-6,-7,3,3,-6,2,0,-3,-2,-6,-15
0,-7,-7,4,3,-6,3,0,-3,-2,-6,-14
0,-7,-7,4,3,-7,3,0,-3,-2,-6,-14
-1,-8,-7,4,3,-7,3,0,-3,-3,-6,-14
-1,-8,-6,4,2,-7,3,0,-2,-3,-6,-14
-2,-8,-6,4,2,-7,3,0,-2,-4,-7,-15
-2,-8,-6,4,2,-7,3,0,-2,-4,-7,-16
-2,-7,-6,4,2,-7,3,0,-2,-3,-8,-16
-1,-7,-6,4,2,-6,3,0,-2,-3,-8,-17
-1,-8,-6,5,2,-6,3,0,-2,-4,-8,-18
-2,-9,-6,5,2,-6,3,0,-2,-4,-9,-18
-2,-9,-7,6,2,-7,3,0,-2,-4,-9,-18
-2,-10,-7,6,2,-8,3,1,-1,-4,-9,-17
-2,-10,-7,6,2,-8,4,1,-1,-4,-9,-17
-2,-9,-7,6,2,-8,4,1,-1,-4,-9,-16
-1,-8,-7,5,3,-8,4,1,-1,-4,-8,-15
0,-7,-7,4,3,-7,5,2,-1,-2,-7,-15
1,-6,-7,3,4,-7,5,2,-1,-1,-7,-15
1,-7,-8,3,4,-7,5,2,-1,-2,-7,-15
0,-8,-8,4,4,-8,5,2,-2,-2,-8,-15
-1,-9,-8,5,4,-8,5,2,-3,-3,-9,-16
-1,-10,-8,6,4,-8,5,2,-3,-4,-9,-16
-1,-10,-8,6,4,-8,5,2,-4,-5,-9,-17
-1,-9,-8,5,3,-8,4,2,-4,-5,-9,-17
-1,-8,-7,5,3,-7,4,2,-4,-5,-9,-17
0,-7,-8,4,3,-7,5,3,-4,-4,-8,-17
0,-8,-8,4,4,-8,5,3,-3,-4,-7,-17
0,-7,-8,4,4,-7,5,2,-3,-3,-7,-17
0,-7,-7,3,4,-6,5,2,-3,-3,-7,-17
0,-7,-7,3,4,-6,5,2,-3,-2,-7,-16
0,-7,-7,4,3,-7,5,2,-2,-2,-7,-17
-1,-8,-7,4,3,-7,5,2,-2,-3,-8,-17
0,-7,-7,4,3,-7,5,2,-1,-3,-8,-17
0,-7,-7,4,3,-7,5,2,-1,-2,-8,-18
0,-7,-7,4,3,-7,5,2,-1,-2,-8,-18
0,-7,-7,4,3,-7,5,2,-1,-2,-8,-18
0,-7,-7,4,3,-7,5,2,-1,-1,-8,-18
0,-7,-6,4,3,-6,5,1,-1,-1,-7,-17
0,-7,-6,4,2,-6,4,1,0,-1,-7,-17
0,-7,-6,4,2,-6,4,1,0,0,-6,-17
0,-7,-6,3,2,-6,4,1,0,0,-6,-17
0,-7,-5,3,2,-5,4,1,2,1,-6,-17
-1,-6,-4,3,1,-4,5,3,5,3,-6,-17
-1,-4,-2,3,0,-2,5,4,10,7,-5,-17
-1,-2,0,1,0,0,4,6,15,13,-2,-16
0,2,2,-1,-1,3,3,7,20,20,3,-13
3,6,3,-5,0,6,0,7,22,28,12,-7
10,10,1,-10,4,6,-4,7,22,36,24,1
19,13,-5,-16,12,4,-9,9,19,45,37,11
28,14,-13,-21,21,1,-13,12,17,54,50,20
39,16,-22,-27,31,-3,-18,17,16,65,63,30
51,19,-31,-34,41,-5,-23,23,16,77,77,41
61,22,-39,-41,50,-7,-27,29,17,87,89,50
70,24,-46,-46,58,-10,-31,35,19,91,95,56
75,24,-51,-49,63,-13,-33,38,21,86,89,56
75,22,-52,-48,63,-14,-32,35,23,72,73,50
66,20,-46,-43,56,-12,-29,25,21,51,50,39
51,17,-33,-34,42,-8,-24,9,16,23,22,24
33,13,-20,-23,26,-4,-17,-8,6,-8,-5,9
17,8,-8,-13,12,0,-12,-23,-5,-37,-29,-5
4,4,1,-4,1,3,-7,-32,-15,-58,-46,-18
-6,1,8,3,-7,5,-3,-36,-20,-70,-56,-27
-12,0,13,6,-12,6,0,-36,-20,-73,-60,-32
-13,1,15,5,-14,8,0,-33,-15,-68,-57,-32
-11,5,17,3,-14,11,1,-28,-4,-58,-52,-31
-9,6,17,1,-13,12,1,-22,9,-47,-47,-29
-8,7,16,1,-13,11,2,-15,25,-37,-42,-27
-7,8,15,0,-12,11,3,-9,41,-26,-36,-25
-6,9,15,0,-11,12,4,-2,56,-16,-31,-23
-7,8,16,0,-12,13,7,3,69,-8,-26,-23
-8,8,17,1,-13,13,10,9,79,-2,-22,-24
-10,7,17,1,-14,13,13,14,89,2,-20,-26
-12,5,17,3,-15,12,16,17,95,4,-19,-28
-15,2,17,7,-16,10,18,19,97,5,-19,-30
-17,0,17,9,-17,9,19,19,98,4,-19,-32
-18,0,17,9,-18,8,21,18,98,4,-18,-33
-18,-1,17,9,-18,8,22,18,99,3,-18,-35
-18,-2,16,10,-17,8,23,17,101,3,-19,-36
-18,-3,14,10,-16,6,24,17,101,2,-19,-37
-18,-5,12,11,-15,4,26,17,101,0,-19,-37
-17,-5,12,11,-15,4,28,17,102,0,-19,-38
-17,-5,12,11,-14,3,29,17,102,0,-19,-39
-16,-5,11,11,-14,3,30,18,103,1,-19,-39
-15,-6,10,11,-13,2,30,19,104,1,-19,-40
-16,-6,10,11,-14,2,29,17,103,1,-19,-40
-16,-6,10,12,-14,3,28,13,98,1,-17,-39
-16,-6,10,11,-13,3,26,8,87,0,-16,-39
-15,-6,10,10,-12,3,24,3,73,-1,-16,-38
-13,-5,9,9,-11,3,21,-2,56,-3,-15,-36
-11,-5,7,8,-9,2,18,-5,38,-4,-15,-34
-8,-5,4,7,-6,0,16,-6,24,-5,-14,-32
-7,-6,1,7,-4,-2,13,-6,14,-5,-12,-31
-6,-8,-1,7,-2,-4,10,-7,7,-4,-11,-30
-4,-8,-3,6,-1,-5,8,-7,2,-4,-9,-30
-2,-8,-5,5,0,-6,6,-6,-1,-4,-8,-29
-1,-8,-6,5,1,-6,5,-5,-3,-3,-8,-29
0,-7,-6,4,2,-6,5,-5,-5,-3,-7,-29
1,-6,-6,3,3,-6,4,-5,-7,-2,-7,-29
0,-7,-6,3,3,-6,3,-5,-8,-2,-7,-29
0,-7,-6,3,3,-6,2,-5,-9,-2,-7,-28
2,-6,-6,2,4,-6,1,-5,-10,-2,-6,-26
4,-4,-6,0,4,-5,1,-5,-10,-1,-5,-24
4,-4,-7,0,4,-5,0,-4,-11,-2,-5,-23
2,-6,-7,2,4,-6,0,-4,-11,-2,-5,-22
2,-6,-8,2,5,-6,0,-4,-12,-2,-5,-22
3,-5,-8,1,6,-6,1,-3,-12,-2,-5,-21
4,-4,-8,0,6,-5,1,-3,-11,-1,-5,-20
4,-4,-7,0,6,-5,1,-3,-11,-1,-5,-20
4,-3,-7,0,6,-4,1,-3,-10,-1,-5,-19
5,-2,-7,-1,6,-4,0,-3,-10,-1,-4,-19
5,-2,-7,-1,5,-4,0,-3,-11,-1,-4,-18
4,-3,-7,0,5,-4,0,-3,-11,-1,-4,-18
4,-4,-7,0,5,-5,0,-2,-11,-1,-4,-17
4,-5,-8,1,5,-6,1,-2,-11,-1,-4,-16
4,-5,-8,1,6,-6,1,-2,-11,-1,-5,-16
3,-6,-8,1,6,-6,1,-2,-11,-1,-5,-16
3,-6,-8,2,6,-7,1,-2,-11,-1,-5,-16
2,-7,-8,2,6,-7,1,-2,-11,-1,-5,-16
2,-6,-9,2,6,-7,1,-2,-11,-2,-6,-16
2,-6,-9,2,6,-7,2,-2,-12,-2,-7,-16
2,-6,-9,2,5,-7,2,-2,-12,-3,-7,-15
2,-6,-8,2,5,-7,2,-2,-12,-3,-7,-15
2,-7,-8,2,5,-7,2,-2,-12,-3,-7,-15
2,-6,-7,2,4,-6,2,-2,-13,-3,-7,-15
3,-5,-7,1,5,-5,2,-2,-13,-3,-7,-14
4,-4,-7,0,5,-5,2,-1,-13,-2,-6,-14
4,-4,-7,0,5,-4,1,-1,-13,-2,-6,-14
4,-4,-7,0,5,-4,1,-1,-14,-2,-6,-13
4,-3,-7,0,5,-4,1,-1,-15,-2,-6,-13
4,-3,-7,0,5,-4,1,-1,-15,-2,-6,-12
4,-3,-7,0,5,-5,1,-1,-15,-2,-6,-11
4,-4,-7,0,6,-5,1,-1,-15,-2,-5,-11
4,-4,-7,0,6,-6,1,-1,-16,-2,-5,-10
4,-5,-8,0,7,-6,1,-1,-16,-2,-4,-9
4,-5,-8,1,6,-7,1,-2,-17,-2,-4,-8
3,-5,-7,1,6,-6,1,-2,-17,-3,-4,-8
4,-4,-7,0,6,-5,2,-1,-17,-3,-4,-7
5,-3,-8,0,7,-5,2,-1,-17,-2,-3,-6
5,-4,-8,0,7,-5,2,-1,-17,-2,-3,-6
5,-4,-8,0,6,-5,2,-1,-18,-2,-3,-6
4,-4,-7,0,6,-5,1,-2,-18,-2,-3,-5
4,-4,-7,0,6,-5,0,-1,-18,-1,-2,-5
5,-3,-7,-1,6,-5,0,-1,-18,-1,-2,-4
5,-3,-7,-1,6,-5,0,-1,-18,-1,-1,-3
5,-3,-7,0,6,-4,0,-1,-18,-1,-1,-3
5,-3,-7,0,6,-4,0,-1,-18,0,-1,-2
5,-2,-7,0,6,-4,0,-1,-17,0,-1,-2
5,-1,-6,-1,6,-3,0,-1,-17,0,0,-1
5,0,-5,-2,6,-2,0,-1,-17,0,0,0
5,0,-5,-3,6,-2,0,-1,-16,0,0,0
6,0,-5,-3,6,-2,-1,-1,-16,0,1,1
7,1,-5,-4,6,-2,-1,-1,-16,1,1,2
8,1,-5,-5,7,-1,-2,-2,-16,1,2,4
8,1,-6,-5,7,-1,-2,-2,-16,1,3,5
9,1,-6,-4,8,-1,-3,-2,-16,1,3,5
9,1,-7,-4,8,-2,-4,-2,-17,1,4,6
9,1,-7,-5,8,-2,-5,-2,-17,1,4,7
10,2,-7,-6,9,-2,-6,-2,-17,1,5,8
11,4,-7,-8,9,-1,-6,-2,-17,2,6,10
12,5,-7,-9,10,0,-7,-2,-18,2,6,11
13,4,-8,-9,10,-1,-7,-2,-18,2,6,11
13,4,-8,-9,11,-1,-7,-2,-19,2,6,12
14,5,-8,-9,11,-1,-7,-1,-19,2,7,13
15,5,-8,-9,12,-1,-7,-1,-19,3,7,14
16,5,-9,-10,13,-1,-7,0,-19,3,8,15
16,5,-9,-11,13,-1,-8,0,-20,2,8,15
16,5,-10,-11,13,-2,-8,-1,-22,2,7,16
16,4,-11,-11,14,-2,-8,-1,-23,2,7,17
17,4,-12,-11,15,-3,-8,0,-23,2,8,18
17,4,-13,-10,15,-4,-8,0,-24,1,8,19
18,3,-13,-10,16,-5,-8,0,-25,1,8,19
19,3,-14,-10,16,-5,-8,0,-26,1,8,20
19,3,-15,-11,17,-6,-8,0,-27,1,9,21
20,3,-15,-11,18,-6,-9,1,-28,1,9,21
21,3,-16,-11,19,-7,-9,1,-29,0,10,22
21,3,-17,-11,19,-7,-9,1,-31,0,10,22
21,3,-17,-11,19,-6,-9,2,-32,0,10,23
21,3,-17,-12,19,-6,-9,2,-33,-1,10,23
21,4,-16,-13,19,-5,-9,1,-34,-1,10,24
22,5,-16,-13,19,-5,-9,1,-35,-2,10,24
22,5,-17,-13,19,-6,-9,1,-36,-2,10,24
22,4,-17,-13,19,-6,-9,1,-37,-3,10,25
22,4,-17,-13,20,-6,-10,1,-38,-3,10,25
21,3,-17,-12,19,-6,-11,0,-39,-4,10,25
20,2,-17,-11,19,-7,-11,0,-41,-6,10,24
19,2,-16,-10,18,-7,-11,0,-42,-7,9,24
20,3,-16,-11,18,-7,-11,0,-42,-7,9,25
20,3,-16,-11,18,-7,-11,0,-42,-7,10,25
20,3,-15,-11,17,-6,-11,0,-42,-7,10,25
20,3,-14,-11,17,-6,-11,0,-42,-7,10,25
20,4,-14,-12,17,-5,-11,0,-42,-7,10,25
20,5,-14,-13,17,-5,-11,0,-42,-7,10,26
20,6,-14,-13,17,-4,-10,1,-42,-8,10,26
20,6,-14,-13,18,-4,-10,1,-42,-8,10,26
20,5,-14,-13,18,-4,-9,1,-41,-8,10,26
19,5,-14,-12,17,-4,-9,1,-41,-9,9,26
19,4,-13,-11,16,-4,-9,1,-41,-9,9,25
18,4,-12,-11,15,-4,-9,1,-40,-9,8,25
17,3,-12,-10,15,-4,-9,1,-40,-9,8,24
16,2,-12,-9,14,-5,-9,1,-40,-9,7,24
15,1,-12,-9,14,-5,-9,1,-39,-9,7,23
15,1,-12,-8,14,-5,-8,1,-38,-9,6,22
14,1,-12,-8,13,-5,-8,1,-37,-8,6,22
14,1,-12,-7,13,-5,-8,1,-36,-8,6,22
13,0,-11,-6,12,-5,-8,2,-35,-7,6,21
12,0,-11,-6,11,-5,-8,2,-34,-7,6,20
11,0,-10,-5,10,-5,-8,2,-34,-7,5,19
11,0,-9,-5,10,-4,-8,2,-33,-7,5,18
11,0,-9,-5,10,-4,-7,3,-32,-7,4,17
11,1,-9,-5,10,-3,-6,3,-30,-6,4,17
10,0,-9,-5,10,-3,-5,2,-28,-5,3,16
9,0,-9,-4,9,-4,-5,2,-27,-5,2,14
9,-1,-8,-3,9,-4,-4,2,-25,-5,1,13
8,-1,-8,-3,8,-3,-4,2,-24,-5,1,12
7,-2,-8,-2,8,-4,-3,2,-22,-4,0,11
6,-4,-9,-1,8,-5,-3,2,-21,-4,0,11
5,-4,-9,0,7,-5,-2,2,-19,-4,0,10
5,-3,-8,-1,7,-4,-2,2,-18,-4,0,9
4,-3,-7,-1,6,-4,-1,2,-17,-4,-1,8
3,-3,-6,0,5,-3,-1,2,-16,-4,-2,6
3,-3,-5,0,4,-3,0,2,-15,-3,-3,5
3,-3,-6,0,4,-4,0,3,-14,-3,-3,5
2,-4,-6,1,4,-4,0,3,-14,-3,-3,4
1,-6,-6,2,3,-5,0,2,-13,-3,-4,3
0,-6,-5,3,2,-6,0,2,-13,-4,-4,3
0,-5,-5,3,2,-5,0,2,-12,-4,-4,2
0,-4,-5,2,2,-4,1,2,-12,-4,-4,1
0,-4,-5,2,3,-4,1,2,-11,-4,-5,0
1,-4,-6,2,3,-5,1,3,-10,-4,-5,0
1,-4,-7,1,3,-5,2,3,-10,-3,-5,-1
2,-4,-6,1,3,-4,2,3,-9,-3,-5,-1
2,-3,-5,0,3,-4,2,3,-9,-3,-5,-1
2,-4,-5,1,3,-4,2,3,-8,-3,-5,-1
2,-5,-6,2,3,-5,2,3,-8,-3,-5,-1
1,-5,-6,2,3,-5,2,3,-8,-3,-5,-1
0,-5,-5,2,2,-5,2,2,-8,-3,-5,-1
0,-5,-5,2,2,-5,2,2,-8,-3,-5,-1
0,-6,-5,2,2,-6,2,2,-8,-3,-5,0
0,-5,-5,2,2,-5,2,2,-8,-3,-5,0
0,-5,-4,2,2,-4,2,1,-8,-4,-5,-1
0,-5,-4,2,2,-4,2,1,-8,-4,-5,-1
0,-5,-4,2,2,-4,2,1,-7,-4,-5,0
1,-4,-4,1,2,-4,2,1,-7,-3,-5,0
1,-3,-4,0,2,-3,2,1,-6,-2,-4,0
1,-2,-3,0,2,-2,2,1,-6,-1,-3,1
0,-2,-3,1,1,-2,2,1,-6,-1,-2,1
0,-2,-3,1,1,-2,2,1,-5,-1,-2,2
0,-2,-2,1,1,-2,2,1,-5,-1,-1,2
0,-2,-1,1,1,-1,1,1,-4,-1,-1,2
0,-2,0,1,0,-1,1,0,-4,0,-1,2
0,-1,1,1,0,0,0,0,-3,0,-1,3
-1,0,2,0,-1,1,0,-1,-3,0,0,3
0,1,2,0,-2,2,-1,-2,-3,0,0,4
1,3,3,-2,-1,3,-1,-3,-2,1,0,4
2,4,3,-3,-1,4,-2,-3,-1,2,1,5
2,5,3,-4,0,4,-3,-3,-1,2,2,5
2,4,2,-4,0,3,-3,-4,-2,2,2,5
2,4,2,-4,0,3,-4,-4,-2,2,2,5
3,5,2,-5,0,4,-4,-4,-2,2,2,5
5,6,1,-6,1,4,-4,-4,-2,3,2,6
7,7,1,-7,3,4,-4,-4,-2,3,3,6
7,7,0,-7,3,4,-5,-4,-2,4,3,7
7,7,0,-7,3,4,-5,-4,-2,4,3,7
7,7,0,-7,3,4,-6,-4,-2,4,3,7
7,7,0,-7,4,4,-6,-4,-2,4,4,7
7,6,-1,-7,4,3,-6,-4,-2,4,4,7
7,5,-1,-6,4,2,-6,-4,-3,4,4,7
7,5,-1,-6,4,2,-6,-4,-3,4,4,7
7,5,-1,-6,4,2,-6,-3,-3,4,4,7
8,6,-1,-7,5,2,-6,-3,-3,4,4,7
8,5,-2,-7,5,2,-6,-3,-4,4,4,7
9,5,-2,-8,6,2,-6,-3,-4,4,5,7
10,6,-3,-8,7,2,-5,-2,-3,5,5,7
10,5,-3,-8,7,1,-5,-2,-3,5,4,7
9,4,-4,-7,7,0,-5,-2,-3,5,4,7
9,4,-4,-6,7,0,-5,-1,-2,5,5,7
9,3,-5,-6,7,0,-5,-1,-2,6,5,7
8,3,-5,-6,6,-1,-5,-1,-3,5,5,7
7,3,-4,-5,6,-1,-5,-1,-3,5,4,6
7,3,-4,-6,6,0,-5,-1,-3,5,4,6
7,4,-4,-6,6,0,-4,-1,-3,5,4,6
7,3,-4,-6,6,0,-4,-1,-3,5,5,6
7,3,-4,-5,6,0,-4,-1,-3,5,5,6
7,3,-3,-5,6,0,-4,-1,-3,5,5,6
7,3,-3,-5,6,0,-4,-1,-3,5,5,6
6,2,-3,-5,5,0,-4,-2,-3,5,5,6
6,2,-3,-4,5,0,-4,-2,-3,5,5,6
6,3,-3,-4,5,0,-4,-2,-3,5,5,6
6,3,-3,-4,5,0,-4,-3,-3,4,5,6
5,2,-2,-4,4,0,-3,-3,-3,4,4,5
5,3,-1,-4,3,1,-3,-3,-3,4,4,5
4,3,0,-4,3,2,-2,-3,-3,4,4,5
4,4,0,-4,2,2,-2,-3,-3,4,3,5
5,4,0,-4,2,3,-2,-3,-3,4,3,5
6,5,0,-5,3,3,-1,-3,-3,4,3,5
6,5,-1,-5,3,2,-1,-4,-2,4,3,5
5,4,-1,-4,2,2,-1,-4,-2,4,3,4
4,3,-1,-3,2,1,-1,-5,-2,4,2,4
4,3,-1,-4,2,2,0,-5,-2,4,3,4
4,3,0,-4,2,2,0,-5,-1,4,3,4
3,3,0,-4,1,2,0,-5,-1,4,2,4
2,2,0,-3,1,2,0,-4,-1,4,2,4
2,2,1,-2,0,2,0,-4,-1,4,2,4
1,2,1,-2,0,2,0,-3,-1,4,2,4
1,2,1,-2,0,2,0,-3,-1,3,1,4
0,1,2,-1,-1,2,0,-3,-1,3,1,4
-1,0,2,0,-2,2,0,-4,-2,3,1,4
-1,0,2,0,-2,2,0,-4,-2,3,1,4
0,2,2,-1,-1,3,0,-4,-1,3,1,4
2,3,2,-2,0,3,0,-3,0,3,1,4
1,2,2,-2,0,2,0,-3,0,3,1,4
1,2,2,-1,0,2,0,-3,0,3,0,4
1,2,2,-1,0,3,0,-3,0,3,0,4
1,3,2,-2,0,3,0,-3,0,3,0,4
1,3,2,-2,0,3,1,-3,0,3,0,4
1,3,2,-2,0,3,1,-3,0,3,0,4
1,3,2,-2,0,3,1,-3,0,3,0,3
1,3,1,-2,0,2,1,-2,0,3,0,3
1,2,1,-2,0,2,1,-2,1,3,0,3
0,1,1,-1,0,1,1,-2,1,2,0,3
0,0,1,0,-1,1,1,-3,0,2,0,3
0,0,1,0,-1,1,2,-3,0,2,0,3
0,0,1,-1,0,1,2,-2,0,2,0,3
0,0,1,-1,0,1,2,-2,0,2,-1,3
0,0,1,-1,-1,1,2,-2,0,1,-1,3
0,1,2,-1,-1,2,2,-2,0,1,-1,3
0,1,2,-1,-1,2,2,-2,0,1,-1,3
0,2,2,-1,-1,2,2,-1,0,1,-1,3
0,2,2,-1,-1,2,2,-1,0,1,-1,3
-1,1,2,0,-2,2,2,-1,0,1,-1,3
-1,0,2,0,-2,2,1,-1,-1,1,-1,3
-1,0,1,0,-1,1,1,-1,-1,1,-1,3
-2,-1,1,1,-1,1,1,-1,-1,1,-1,3
-2,-2,1,2,-2,0,1,-1,-2,1,-1,3
-2,-2,0,2,-2,0,1,-1,-2,1,-1,3
-2,-2,0,2,-2,0,1,-1,-3,1,-1,3
-2,-1,1,2,-2,0,1,-1,-3,0,-1,3
-1,0,2,0,-2,1,1,-1,-3,0,-1,3
-1,0,2,0,-2,1,1,-1,-3,0,-1,3
-1,0,2,0,-2,1,1,-1,-3,0,-1,3
-1,-1,1,0,-2,1,2,-1,-2,1,0,3
-1,0,1,0,-2,1,2,-1,-1,2,0,3
-1,1,3,0,-3,3,3,0,1,4,1,3
-2,3,5,-1,-4,5,3,2,5,9,2,4
-3,5,8,-1,-6,7,3,4,11,15,5,6
-4,7,12,-2,-7,10,3,5,17,23,10,8
-3,12,16,-4,-9,14,1,6,23,32,19,13
0,18,19,-9,-9,19,-1,6,27,44,32,22
6,25,19,-16,-6,22,-5,6,27,57,48,34
15,30,16,-24,0,23,-10,6,24,69,67,47
26,35,10,-31,8,22,-15,8,20,83,86,60
37,37,1,-37,17,20,-20,11,17,97,104,73
46,37,-8,-42,27,15,-24,16,15,109,119,83
55,37,-17,-46,36,10,-28,22,13,118,129,91
63,36,-26,-49,45,5,-30,28,12,119,130,94
69,31,-37,-50,53,-2,-31,33,11,111,120,91
71,23,-47,-48,59,-11,-30,35,7,96,102,83
68,15,-52,-43,60,-18,-28,31,0,76,80,72
61,9,-51,-36,56,-20,-26,21,-9,54,56,60
50,5,-43,-29,46,-18,-23,7,-18,29,32,47
36,2,-33,-20,35,-15,-19,-6,-26,4,7,32
23,-2,-25,-10,24,-13,-13,-17,-31,-21,-16,17
10,-8,-18,-1,14,-13,-7,-23,-34,-45,-36,2
0,-13,-13,6,6,-13,-1,-25,-34,-63,-52,-10
-8,-17,-9,12,0,-13,4,-24,-29,-72,-60,-18
-12,-17,-5,13,-3,-11,7,-21,-19,-72,-62,-20
-13,-16,-2,13,-5,-8,9,-16,-5,-67,-59,-21
-14,-15,0,13,-6,-7,10,-11,9,-60,-57,-21
-15,-16,0,15,-7,-7,11,-6,22,-53,-54,-21
-16,-16,2,16,-9,-7,12,-1,34,-46,-50,-21
-17,-13,4,15,-10,-4,13,2,44,-39,-47,-21
-17,-10,8,14,-12,-1,13,5,52,-33,-42,-19
-18,-6,12,12,-14,3,14,8,59,-28,-38,-18
-18,-3,15,11,-16,6,15,10,63,-24,-34,-17
-18,-1,18,9,-18,9,16,11,66,-21,-31,-16
-18,0,19,8,-19,10,17,12,69,-18,-29,-15
-18,1,20,8,-19,11,19,13,72,-15,-26,-14
-18,0,19,8,-19,10,21,14,76,-12,-24,-14
-20,-1,19,10,-19,9,23,16,79,-10,-23,-15
-21,-3,18,11,-19,7,24,18,83,-9,-22,-15
-21,-6,16,13,-18,5,26,19,86,-7,-21,-15
-22,-7,15,14,-18,4,27,20,88,-6,-20,-15
-22,-7,16,13,-18,5,28,20,89,-5,-19,-15
-22,-7,16,13,-19,5,29,21,91,-5,-19,-15
-22,-8,15,14,-19,4,30,22,94,-4,-18,-16
-22,-9,14,15,-18,3,30,21,95,-4,-18,-16
-22,-9,14,15,-18,2,30,18,92,-4,-18,-16
-21,-8,14,14,-17,3,28,12,83,-4,-17,-15
-20,-7,13,13,-16,4,26,7,69,-5,-16,-15
-18,-7,12,12,-15,3,22,3,51,-7,-15,-14
-16,-7,9,11,-13,2,19,1,33,-9,-15,-13
-15,-7,7,10,-11,0,15,-1,19,-10,-14,-12
-13,-7,6,10,-9,0,12,-2,9,-10,-13,-11
-11,-7,5,9,-8,0,10,-3,3,-10,-12,-9
-9,-6,5,7,-6,0,9,-3,0,-9,-10,-8
-7,-5,4,6,-5,0,8,-3,-3,-8,-9,-7
-6,-3,4,4,-4,1,7,-3,-5,-6,-7,-6
-4,-2,3,3,-3,1,5,-3,-7,-5,-6,-5
-3,-2,2,2,-2,0,4,-3,-9,-4,-5,-4
-2,-2,1,1,-1,0,3,-3,-11,-4,-5,-4
-2,-2,0,1,-1,0,2,-4,-13,-4,-5,-3
-1,-2,0,1,0,0,1,-4,-14,-4,-5,-3
-1,-1,1,1,0,1,1,-5,-15,-4,-5,-3
-1,-1,1,0,0,1,1,-6,-15,-4,-5,-3
-1,-1,2,0,-1,1,1,-7,-15,-4,-5,-3
-2,-1,2,1,-2,1,1,-7,-15,-4,-5,-3
-3,-1,2,1,-3,1,1,-7,-15,-4,-5,-4
-3,-1,3,1,-3,2,1,-7,-15,-4,-5,-4
-4,-2,3,2,-4,2,1,-6,-16,-4,-5,-4
-5,-3,3,3,-4,1,1,-5,-16,-4,-5,-4
-5,-3,3,4,-4,1,1,-4,-16,-4,-5,-4
-5,-4,3,4,-4,1,1,-4,-16,-4,-5,-4
-5,-4,3,4,-4,1,1,-3,-16,-4,-5,-4
-6,-4,3,4,-4,1,1,-3,-16,-4,-5,-4
-6,-3,3,4,-4,1,1,-3,-16,-4,-4,-4
-5,-2,4,3,-4,2,1,-3,-15,-4,-4,-3
-5,-2,4,2,-4,2,2,-3,-15,-4,-4,-3
-5,-2,4,3,-5,2,2,-3,-15,-4,-4,-2
-6,-3,5,4,-6,2,2,-4,-15,-4,-4,-2
-7,-3,6,4,-6,2,2,-4,-14,-4,-4,-2
-7,-2,6,4,-6,3,2,-3,-14,-3,-4,-2
-8,-3,6,4,-6,2,2,-3,-14,-3,-4,-2
-8,-3,6,5,-6,2,2,-3,-14,-3,-4,-2
-8,-3,6,5,-7,2,1,-4,-15,-4,-4,-2
-9,-2,7,5,-8,3,1,-4,-15,-4,-5,-3
-9,-2,7,5,-8,3,1,-4,-15,-4,-5,-3
-9,-3,7,5,-8,3,1,-4,-15,-4,-4,-2
-9,-3,7,6,-8,3,1,-3,-14,-3,-4,-1
-9,-3,7,6,-8,3,1,-3,-14,-4,-5,-1
-10,-4,8,7,-9,2,1,-3,-14,-4,-5,-1
-10,-4,7,7,-8,2,2,-3,-14,-4,-4,-1
-9,-4,7,6,-7,2,2,-2,-14,-3,-4,-1
-8,-2,6,5,-7,2,3,-2,-14,-3,-4,0
-8,-1,7,4,-7,3,3,-2,-14,-3,-4,0
-8,-1,8,4,-7,4,2,-2,-15,-3,-4,0
-8,-1,8,4,-8,4,2,-1,-15,-3,-3,0
-9,-1,8,4,-8,3,2,-1,-15,-3,-3,0
-9,-2,8,5,-8,3,2,-1,-15,-3,-3,0
-9,-2,8,5,-8,3,2,-1,-15,-3,-4,0
-9,-3,8,5,-8,3,2,-1,-15,-3,-4,-1
-9,-2,8,5,-8,3,2,0,-15,-3,-3,-1
-9,-2,8,4,-8,4,2,0,-15,-3,-3,-1
-8,-1,8,4,-8,4,2,0,-15,-3,-3,-1
-8,-1,7,4,-8,3,2,0,-15,-3,-3,-1
-9,-2,8,5,-8,3,2,0,-15,-3,-3,-1
-9,-2,8,5,-8,3,1,0,-15,-3,-3,-1
-9,-1,9,5,-8,3,1,-1,-15,-3,-3,-1
-9,-1,9,5,-8,4,1,-1,-15,-3,-3,-1
-9,-1,8,5,-8,4,1,-1,-15,-3,-3,-1
-9,-1,8,5,-8,4,1,-1,-15,-3,-2,0
-8,0,7,4,-8,4,1,-1,-15,-2,-2,0
-8,0,7,4,-8,4,1,-1,-15,-2,-2,0
-8,0,8,4,-8,4,1,-2,-16,-3,-2,0
-8,0,8,4,-8,4,1,-2,-16,-3,-2,0
-8,0,9,3,-8,5,1,-2,-16,-2,-1,0
-8,0,9,4,-8,5,0,-3,-16,-2,-1,0
-8,0,8,4,-8,4,0,-3,-16,-2,-1,0
-7,1,8,3,-8,5,0,-3,-16,-2,0,0
-6,2,9,2,-8,6,0,-3,-16,-1,0,1
-6,2,10,1,-8,6,0,-3,-16,0,0,1
-6,4,11,0,-8,7,0,-4,-15,0,1,1
-5,5,11,0,-8,8,0,-4,-15,0,1,1
-5,5,12,0,-8,9,0,-5,-14,0,2,2
-5,5,12,0,-8,9,0,-5,-14,1,3,3
-6,6,13,0,-9,10,-1,-6,-14,1,4,3
-6,7,14,0,-10,11,-2,-7,-14,1,4,4
-7,8,16,0,-11,12,-3,-9,-15,1,4,4
-6,10,17,-2,-11,13,-4,-10,-15,2,4,5
-6,11,18,-3,-11,15,-5,-11,-15,2,5,6
-5,13,18,-4,-11,16,-6,-11,-15,3,7,7
-5,13,18,-5,-11,16,-7,-11,-16,3,8,8
-4,14,17,-5,-10,16,-8,-11,-17,3,8,9
-3,14,17,-5,-10,16,-9,-11,-18,3,9,10
-3,13,17,-5,-9,15,-10,-11,-19,3,9,10
-2,13,16,-6,-8,15,-10,-11,-20,3,10,11
0,14,15,-7,-7,15,-10,-11,-20,4,11,12
2,15,14,-9,-5,15,-11,-10,-21,4,12,13
3,16,13,-10,-4,14,-11,-10,-22,4,12,14
4,16,12,-10,-3,14,-11,-9,-23,4,13,15
5,15,10,-10,-2,12,-11,-9,-23,4,13,15
5,14,9,-10,-1,11,-10,-9,-24,4,14,16
5,13,8,-10,-1,11,-10,-9,-25,3,14,16
5,13,8,-10,0,11,-11,-9,-26,3,14,16
5,12,7,-10,0,10,-11,-10,-26,3,14,17
6,12,7,-9,0,10,-12,-10,-27,3,14,17
6,12,7,-9,0,9,-12,-10,-27,2,14,18
7,12,6,-9,1,9,-12,-10,-27,2,14,19
7,12,6,-10,1,9,-12,-10,-27,2,15,19
8,13,6,-11,1,10,-12,-10,-27,2,15,20
9,14,6,-12,1,10,-12,-9,-26,3,16,20
9,15,5,-12,2,10,-12,-8,-26,3,17,21
10,15,5,-13,2,10,-12,-8,-26,4,17,22
10,15,4,-13,3,9,-12,-7,-26,4,17,22
10,14,4,-13,3,9,-12,-7,-26,5,18,22
10,14,4,-13,3,9,-12,-7,-26,5,18,22
10,14,4,-12,3,9,-12,-7,-26,4,17,21
10,13,4,-11,2,9,-12,-7,-26,4,17,21
9,12,3,-11,2,8,-12,-7,-26,4,16,20
11,13,2,-12,4,8,-11,-6,-25,5,17,20
12,13,2,-13,5,8,-10,-5,-24,5,17,20
10,12,1,-11,4,7,-9,-4,-24,5,16,19
9,10,1,-10,4,5,-9,-4,-24,5,16,18
9,10,1,-10,4,5,-9,-3,-23,6,16,18
10,10,1,-10,4,5,-8,-2,-21,6,16,18
10,10,1,-10,4,5,-8,-2,-20,6,15,17
9,10,1,-10,4,5,-7,-2,-19,6,15,16
9,10,1,-10,3,5,-7,-2,-18,7,14,15
9,9,1,-10,3,5,-7,-2,-17,7,14,14
8,8,1,-9,3,5,-6,-2,-17,7,13,13
7,7,1,-8,3,4,-6,-2,-16,7,13,13
6,7,2,-7,2,4,-6,-1,-15,7,12,12
6,7,2,-7,2,4,-6,-1,-14,7,12,11
6,6,1,-7,2,4,-5,0,-13,7,11,10
5,5,0,-6,2,3,-5,0,-11,7,10,10
5,5,0,-5,2,3,-4,0,-10,7,9,9
4,5,0,-5,1,3,-4,0,-8,7,9,8
2,4,2,-3,0,3,-4,0,-7,7,8,7
1,3,3,-3,-1,3,-3,0,-6,7,8,6
2,4,3,-3,-1,4,-2,1,-5,8,7,6
1,5,4,-3,-1,5,-1,1,-4,8,7,5
0,5,5,-3,-2,5,-1,1,-3,8,6,5
0,5,6,-3,-3,5,0,2,-3,8,6,4
-1,5,6,-2,-3,5,0,2,-2,8,6,4
-2,4,6,-1,-3,5,0,2,-2,7,5,3
-3,2,6,0,-4,4,0,1,-2,7,5,3
-4,1,6,1,-4,3,0,1,-2,6,4,2
-4,0,5,1,-4,3,1,1,-2,6,3,2
-4,0,5,2,-4,2,1,1,-2,5,2,1
-5,-1,4,3,-5,2,2,1,-2,5,2,1
-6,-2,4,4,-5,1,2,1,-2,4,1,0
-7,-2,5,4,-5,1,2,1,-2,3,0,0
-6,-1,5,3,-5,2,2,1,-2,3,0,0
-6,0,5,3,-5,2,3,1,-2,2,0,0
-7,-2,5,4,-6,2,3,1,-2,2,0,-1
-8,-3,5,5,-6,1,3,1,-3,1,-1,-2
-8,-4,5,6,-7,0,3,1,-3,1,-2,-2
-9,-5,5,6,-7,0,3,1,-3,1,-3,-2
-8,-4,5,5,-6,0,4,1,-2,1,-3,-2
-7,-2,5,4,-6,1,4,2,-2,1,-3,-2
-7,-2,5,4,-6,1,4,2,-3,0,-3,-2
-8,-3,5,5,-6,1,4,2,-4,-1,-4,-3
-8,-3,5,5,-6,1,4,2,-4,-1,-5,-4
-7,-4,5,5,-6,0,5,3,-3,-1,-5,-4
-7,-5,4,5,-5,0,5,3,-3,-1,-5,-4
-7,-5,3,6,-5,-1,5,2,-3,-1,-5,-4
-7,-5,3,6,-5,-1,5,2,-3,-2,-5,-4
-7,-5,3,5,-5,-1,5,1,-4,-2,-6,-4
-7,-6,2,6,-5,-1,5,1,-4,-2,-6,-4
-8,-6,2,6,-5,-2,5,1,-4,-3,-6,-4
-9,-7,2,7,-5,-2,6,2,-4,-3,-6,-4
-8,-7,2,7,-5,-2,6,2,-4,-3,-6,-4
-8,-7,2,7,-5,-2,6,3,-4,-3,-6,-5
-8,-7,2,7,-5,-2,6,3,-4,-3,-6,-5
-8,-7,2,7,-5,-2,6,3,-4,-3,-6,-5
-9,-8,2,8,-6,-2,6,3,-4,-3,-7,-6
-9,-8,2,8,-6,-2,6,3,-4,-3,-7,-6
-9,-7,2,7,-6,-2,7,3,-3,-3,-7,-5
-9,-7,2,7,-6,-2,7,3,-3,-3,-7,-5
-9,-7,3,7,-6,-2,7,3,-3,-3,-7,-5
-8,-6,3,7,-6,-1,7,2,-3,-3,-7,-5
-8,-6,3,6,-6,-1,7,2,-2,-3,-7,-5
-8,-5,3,6,-6,0,7,2,-1,-2,-7,-5
-8,-4,3,5,-6,0,7,3,0,-2,-6,-5
-8,-3,4,5,-6,1,7,3,0,-1,-6,-4
-9,-3,6,5,-7,1,6,2,0,-1,-6,-4
-10,-4,7,6,-9,1,5,0,0,-2,-6,-4
-11,-4,7,7,-9,2,5,0,0,-2,-5,-3
-11,-3,8,6,-10,3,4,-1,0,-1,-5,-3
-11,-2,8,6,-10,4,4,-2,0,-1,-5,-3
-10,-1,9,5,-10,4,3,-2,0,-1,-5,-3
-10,0,10,4,-10,5,3,-2,0,-1,-4,-2
-10,0,11,4,-11,6,2,-2,0,-1,-4,-2
-9,1,11,3,-11,6,2,-2,0,-1,-4,-1
-9,2,12,2,-10,7,1,-2,0,0,-4,-1
-8,4,13,1,-10,8,1,-2,0,0,-4,0
-7,4,13,0,-10,9,1,-1,1,0,-4,0
-6,4,11,0,-9,8,2,0,2,1,-3,0
-7,2,9,1,-8,6,2,0,2,1,-3,0
-7,1,9,2,-8,5,2,0,2,1,-3,0
-7,0,8,3,-8,4,2,1,2,1,-3,0
-7,-1,7,3,-7,3,2,2,2,1,-3,1
-8,-1,7,4,-7,3,1,2,1,0,-3,1
-8,-2,7,4,-7,2,1,2,1,0,-3,1
-8,-3,6,5,-7,2,1,2,1,0,-3,1
-8,-3,5,5,-7,1,2,3,1,0,-3,1
-7,-2,5,4,-6,1,2,3,1,0,-3,2
-6,-2,4,3,-5,1,3,4,1,0,-3,2
-5,-2,3,3,-5,1,3,5,2,0,-2,3
-4,-2,3,3,-4,0,3,5,2,0,-2,3
-5,-3,2,3,-4,0,3,5,2,0,-2,3
-5,-3,2,4,-4,0,3,5,2,0,-2,3
-5,-3,2,4,-4,0,3,5,2,0,-2,4
-5,-3,2,4,-4,0,3,5,2,0,-2,4
-5,-4,1,4,-4,-1,3,5,1,0,-2,4
-6,-5,1,5,-4,-1,2,4,1,0,-2,4
-5,-4,1,4,-4,-1,2,4,0,0,-2,4
-5,-4,1,4,-4,-1,2,4,0,0,-2,4
-5,-5,1,4,-4,-1,2,4,0,0,-2,4
-5,-5,0,4,-3,-2,2,5,0,0,-2,5
-3,-4,0,3,-2,-1,2,5,1,1,-1,6
-2,-3,0,2,-2,0,2,6,1,1,0,6
-2,-2,1,2,-2,0,3,6,1,2,0,7
-2,-1,1,1,-2,0,3,7,1,2,0,7
-2,-1,2,2,-3,0,3,7,1,2,0,7
-3,-2,2,2,-3,0,3,6,1,2,0,7
-3,-2,2,2,-3,0,3,6,1,2,0,7
-3,-1,2,2,-3,0,3,5,1,2,1,7
-3,0,2,1,-3,1,3,5,1,3,1,7
-3,0,3,1,-3,2,3,5,1,3,1,7
-3,0,3,1,-3,2,3,5,0,2,1,7
-3,-1,2,1,-3,1,2,4,0,2,1,7
-3,-1,2,1,-2,0,2,4,0,2,1,6
-2,-1,2,1,-2,0,2,4,-1,2,1,6
-3,-2,2,2,-3,0,2,4,-1,1,0,5
-3,-2,2,2,-3,0,2,4,-2,1,0,4
-3,-1,3,2,-3,1,2,4,-2,0,-1,4
-4,-1,3,2,-3,1,2,3,-3,0,-1,3
-4,-2,3,3,-3,0,2,3,-3,0,-1,2
-4,-2,3,2,-3,0,3,3,-3,0,-1,2
-4,-2,3,2,-3,0,3,3,-3,0,-1,2
-5,-2,3,3,-4,0,3,2,-3,0,-1,1
-6,-2,4,3,-5,0,3,2,-3,0,-1,1
-7,-2,4,4,-6,1,3,2,-3,0,-1,0
-7,-2,4,4,-6,1,3,2,-3,0,-1,0
-7,-3,4,5,-7,0,3,2,-3,0,-2,0
-9,-3,5,6,-8,1,2,1,-3,0,-2,-1
-10,-4,6,7,-9,2,2,1,-4,0,-3,-1
-9,-4,6,6,-8,2,3,1,-3,0,-2,-1
-8,-3,6,5,-7,2,4,2,-3,1,-2,-1
-7,-3,6,4,-7,2,4,2,-3,1,-2,-2
-8,-3,6,4,-7,2,4,1,-3,0,-2,-3
-8,-3,6,4,-7,1,4,1,-3,0,-2,-3
-8,-3,6,5,-7,1,4,1,-3,0,-2,-3
-8,-3,6,5,-7,1,4,1,-3,0,-2,-3
-8,-2,6,5,-7,2,4,1,-3,0,-2,-4
-8,-2,7,5,-7,2,4,1,-3,0,-2,-4
-8,-2,7,5,-8,3,4,0,-3,0,-3,-5
-9,-3,7,6,-8,2,4,0,-3,0,-3,-5
-9,-3,6,6,-8,1,4,0,-3,0,-3,-5
-7,-2,6,4,-7,2,4,1,-2,0,-2,-5
-6,-1,6,3,-7,3,5,1,-2,0,-2,-4
-7,-1,6,3,-8,3,5,1,-2,0,-2,-5
-8,-2,7,5,-9,3,4,1,-2,0,-2,-5
-9,-2,7,6,-9,3,4,0,-3,0,-2,-5
-10,-2,7,6,-9,3,4,0,-3,0,-2,-5
-10,-2,7,6,-9,3,4,0,-3,0,-2,-5
-10,-2,7,6,-9,3,4,0,-3,0,-3,-6
-10,-3,7,6,-9,3,4,0,-3,0,-3,-6
-10,-3,7,6,-9,3,3,0,-3,-1,-4,-7
-9,-3,7,6,-9,3,3,0,-3,-1,-4,-7
-9,-2,8,5,-8,3,3,0,-3,-1,-4,-6
-9,-1,8,5,-8,3,3,0,-3,-1,-4,-6
-10,-2,8,5,-9,3,3,0,-3,-1,-4,-6
-11,-2,9,6,-10,3,3,0,-3,-1,-4,-6
-11,-2,9,6,-10,3,4,0,-3,-1,-4,-6
-11,-2,9,6,-10,4,4,0,-3,-1,-3,-6
-11,-2,10,6,-11,4,4,0,-3,-1,-3,-6
-11,-1,10,6,-11,4,4,0,-3,-1,-3,-5
-11,0,11,5,-12,5,3,-1,-3,-1,-3,-5
-11,1,12,4,-12,6,2,-2,-3,-1,-3,-5
-11,1,13,5,-12,7,1,-3,-3,-1,-3,-5
-12,0,13,5,-12,6,0,-3,-3,0,-3,-4
-12,0,13,5,-12,6,0,-3,-3,0,-2,-4
-11,1,13,4,-12,7,0,-3,-3,0,-2,-3
-9,3,13,2,-12,8,-1,-3,-3,1,-1,-2
-8,5,14,1,-12,9,-1,-3,-3,1,-1,-2
-8,6,14,1,-12,10,-1,-3,-3,1,0,-1
-8,6,14,1,-12,10,-1,-2,-3,2,0,-1
-8,6,14,1,-11,10,-1,-2,-3,2,0,0
-8,6,14,0,-11,10,-1,-2,-2,3,1,0
-7,7,15,0,-10,11,-2,-2,-2,3,1,0
-6,8,15,0,-10,11,-2,-2,-3,3,1,1
-7,7,15,0,-11,11,-3,-2,-4,3,1,1
-7,7,14,0,-11,10,-3,-2,-4,3,1,1
-6,6,13,0,-10,10,-2,-1,-4,3,2,1
-6,5,12,0,-9,9,-2,0,-4,3,2,1
-6,4,11,1,-9,8,-1,0,-5,2,2,1
-5,4,10,1,-8,7,-1,0,-5,2,2,1
-5,4,10,1,-8,7,-1,0,-6,2,1,1
-5,4,10,1,-8,7,-1,0,-6,2,1,1
-5,3,10,1,-8,6,-1,0,-6,1,1,1
-6,1,9,2,-7,5,0,0,-6,1,0,1
-6,0,7,3,-7,3,0,0,-7,1,0,1
-6,-1,6,4,-6,2,0,0,-7,0,0,0
-6,-2,6,4,-6,1,0,0,-8,0,0,0
-6,-2,5,4,-5,1,0,0,-8,0,0,0
-5,-2,4,3,-4,1,1,1,-7,0,0,0
-3,-1,3,2,-3,1,1,2,-7,0,0,0
-2,-1,2,1,-2,0,2,3,-7,0,0,0
-3,-1,2,2,-2,0,2,3,-8,0,0,0
-3,-2,2,2,-3,0,2,4,-8,0,0,0
-3,-2,2,3,-3,0,2,4,-8,0,0,0
-3,-2,1,3,-3,0,2,4,-8,0,0,0
-3,-2,1,3,-3,0,2,4,-8,0,0,0
-4,-3,1,3,-3,-1,2,4,-8,0,0,0
-4,-4,0,4,-3,-2,2,4,-8,0,-1,0
-4,-5,0,4,-2,-2,2,4,-8,0,-1,0
-4,-5,0,4,-2,-3,2,4,-8,0,-1,-1
-5,-6,0,5,-2,-3,2,4,-8,0,-1,-1
-5,-6,0,5,-2,-3,2,4,-8,0,-1,-1
-5,-5,0,4,-2,-2,2,4,-8,0,-1,-1
-4,-3,0,3,-2,-1,2,4,-8,0,-1,-1
-4,-3,0,3,-2,-1,2,4,-8,0,-1,-1
-4,-3,0,3,-2,-1,2,4,-8,1,0,-1
-3,-4,0,3,-1,-1,2,4,-8,1,0,-1
-3,-4,0,3,-1,-1,2,4,-8,1,-1,-2
-3,-3,0,2,-1,-1,2,4,-8,1,-1,-2
-3,-3,0,2,-1,-1,2,4,-7,1,-1,-2
-2,-2,0,2,-1,-1,3,4,-7,1,-1,-2
-2,-2,0,2,0,-1,3,4,-6,1,0,-2
-3,-3,-1,3,0,-1,3,4,-6,1,0,-2
-4,-4,-1,4,-1,-2,3,4,-6,1,0,-2
-4,-5,-1,4,-1,-2,3,4,-6,1,0,-2
-4,-5,-1,4,-1,-2,3,3,-6,1,0,-2
-4,-4,-1,3,-1,-2,3,3,-6,1,0,-2
-3,-4,-1,3,-1,-2,4,4,-6,1,0,-2
-3,-3,0,3,-1,-2,4,4,-6,1,0,-2
-3,-3,0,3,-2,-1,3,3,-6,0,-1,-3
-3,-3,0,3,-2,-1,3,3,-6,0,-1,-3
-4,-3,1,3,-2,0,3,3,-6,0,-1,-3
-4,-3,1,3,-3,0,3,3,-6,0,-1,-4
-4,-2,2,3,-3,0,3,3,-5,1,-1,-4
-4,-2,2,3,-3,0,3,3,-5,1,0,-3
-4,-2,2,3,-3,0,3,3,-5,2,0,-3
-3,-1,2,3,-3,0,3,3,-5,2,0,-3
-3,0,3,2,-3,1,3,3,-5,2,0,-3
-4,0,3,3,-3,1,2,3,-5,2,0,-3
-4,-1,3,3,-4,1,2,2,-5,2,0,-2
-4,-2,3,3,-4,1,2,2,-5,2,0,-2
-4,-1,4,3,-4,1,2,1,-5,2,0,-2
-5,-1,5,3,-4,2,2,1,-4,2,0,-2
-6,0,6,3,-5,3,1,0,-3,3,0,-1
-7,1,8,3,-7,5,1,1,0,5,0,-1
-8,4,13,2,-10,8,1,1,5,10,2,0
-10,7,17,2,-13,12,1,2,11,16,5,0
-10,10,21,1,-16,15,1,4,18,24,11,4
-9,15,25,-2,-17,20,0,5,23,35,21,10
-6,21,27,-8,-17,25,-2,5,26,47,34,20
0,27,27,-14,-14,27,-6,5,25,60,51,32
7,31,23,-20,-8,27,-11,6,22,73,69,45
16,33,17,-25,0,25,-16,8,17,87,87,57
26,35,9,-31,8,22,-20,12,14,100,104,69
36,37,1,-36,18,19,-25,18,12,113,119,79
46,37,-8,-41,27,15,-28,25,11,121,128,87
55,36,-18,-45,37,9,-30,32,11,123,129,90
61,31,-30,-46,45,1,-30,38,10,114,119,87
62,21,-42,-42,52,-10,-27,40,6,98,99,77
59,10,-49,-35,54,-19,-23,36,0,77,76,66
53,4,-49,-29,51,-23,-19,26,-7,53,52,54
43,0,-43,-22,43,-22,-15,12,-16,27,27,41
29,-6,-35,-12,32,-20,-11,-1,-24,-1,1,26
15,-13,-27,-1,21,-20,-5,-11,-31,-29,-22,11
2,-19,-21,9,11,-20,1,-17,-35,-53,-41,-2
-8,-24,-16,16,4,-20,8,-20,-34,-69,-55,-13
-16,-27,-12,21,-1,-19,13,-19,-29,-77,-62,-19
-20,-27,-7,23,-6,-17,15,-16,-18,-75,-63,-22
-23,-27,-4,24,-10,-15,17,-12,-4,-69,-60,-22
-25,-27,-1,25,-12,-14,18,-6,10,-61,-57,-22
-27,-26,1,26,-14,-13,19,-2,22,-55,-54,-22
-28,-24,4,26,-16,-10,20,1,33,-49,-51,-22
-28,-20,8,24,-18,-6,20,3,41,-43,-47,-21
-28,-14,13,21,-20,0,20,4,48,-37,-42,-19
-29,-10,18,19,-23,4,21,5,52,-32,-38,-17
-31,-7,23,18,-27,8,21,5,54,-28,-35,-16
-32,-6,26,18,-29,10,22,5,55,-25,-32,-16
-32,-4,28,17,-30,12,22,4,55,-23,-29,-15
-32,-2,30,16,-31,13,22,4,56,-20,-27,-14
-32,-2,31,17,-31,13,22,4,58,-18,-25,-14
-34,-3,31,18,-32,13,22,4,61,-16,-24,-15
-34,-3,31,19,-32,13,23,5,65,-14,-23,-16
-34,-3,31,18,-32,14,24,7,69,-11,-22,-16
-34,-2,31,18,-32,14,24,8,73,-9,-20,-16
-34,-2,31,18,-32,14,25,9,76,-7,-19,-16
-34,-2,31,17,-32,14,25,10,80,-6,-18,-16
-33,-3,30,17,-32,14,26,12,84,-4,-17,-15
-32,-3,30,17,-31,13,26,12,87,-3,-16,-15
-32,-2,30,17,-31,14,25,10,85,-2,-16,-14
-31,0,30,16,-30,15,23,5,78,-2,-15,-14
-29,1,30,14,-29,15,21,1,64,-3,-14,-13
-28,1,28,13,-27,15,19,-2,48,-4,-13,-12
-26,0,25,12,-25,13,16,-4,32,-5,-13,-11
-23,0,22,11,-22,11,14,-5,20,-6,-12,-10
-19,-1,18,10,-19,9,12,-4,12,-7,-10,-9
-16,-1,15,8,-16,7,10,-3,7,-6,-9,-8
-14,-1,13,7,-13,6,9,-2,5,-6,-8,-7
-13,-1,11,7,-12,5,7,-1,3,-5,-7,-7
-12,-2,9,7,-10,4,6,-1,1,-3,-6,-6
-10,-1,8,5,-9,4,6,0,0,-2,-5,-5
-9,-1,7,4,-8,3,5,0,-2,-1,-4,-4
-8,-1,6,4,-7,2,4,1,-3,0,-3,-4
-6,-2,5,4,-6,1,4,1,-4,0,-3,-3
-4,-1,4,2,-5,1,3,2,-5,0,-3,-3
-3,0,3,1,-3,1,3,3,-6,0,-3,-3
-2,0,1,1,-2,1,2,3,-7,0,-3,-3
-2,-1,1,1,-1,0,2,2,-8,0,-3,-3
-3,-3,0,3,-2,-1,2,2,-9,-1,-3,-3
-5,-5,0,4,-2,-2,2,2,-10,-1,-3,-3
-5,-5,-1,4,-2,-3,2,2,-10,-1,-3,-3
-5,-6,-1,5,-2,-4,2,2,-10,-1,-3,-3
-5,-8,-3,6,-2,-6,2,2,-10,-1,-3,-3
-5,-9,-4,7,-1,-7,2,3,-10,-1,-3,-4
-5,-9,-5,7,0,-7,2,4,-10,-1,-3,-4
-4,-8,-5,6,0,-6,2,4,-11,-1,-2,-3
-3,-7,-5,5,0,-6,2,5,-11,-1,-2,-2
-2,-7,-5,5,1,-5,2,5,-11,-1,-1,-1
-2,-7,-5,4,1,-6,3,5,-11,-1,-1,-1
-2,-7,-5,4,1,-6,3,5,-11,-1,-1,-1
-1,-6,-5,3,1,-6,3,5,-11,-1,-1,-1
-1,-5,-5,3,2,-6,3,4,-11,0,-1,0
-1,-5,-5,3,2,-5,3,4,-10,0,0,0
-1,-5,-5,3,1,-5,3,4,-10,0,0,1
-2,-6,-4,4,1,-5,2,3,-10,0,0,1
-2,-6,-4,4,1,-5,2,3,-10,0,0,1
-2,-6,-4,3,1,-5,2,3,-10,0,1,1
-2,-6,-4,3,0,-5,2,3,-10,0,1,1
-2,-6,-4,3,0,-5,2,3,-10,0,1,2
-1,-5,-4,2,0,-4,3,4,-9,0,2,2
0,-4,-4,2,1,-4,3,5,-9,0,2,3
-1,-5,-3,2,0,-4,3,5,-9,0,2,2
-2,-4,-3,2,0,-3,3,5,-9,0,2,2
-2,-4,-2,2,0,-2,3,5,-9,0,2,2
-2,-5,-3,3,0,-3,3,5,-8,0,2,3
-3,-6,-3,3,0,-4,3,5,-8,0,2,3
-3,-6,-3,4,0,-4,3,5,-7,0,2,3
-3,-6,-2,4,-1,-4,2,5,-7,0,1,2
-3,-5,-1,4,-1,-3,2,5,-7,0,1,2
-3,-4,-1,3,-1,-3,2,5,-7,0,1,2
-3,-4,-1,3,-1,-3,2,5,-6,0,1,3
-3,-5,-2,3,0,-3,2,5,-6,1,1,3
-4,-5,-1,3,0,-3,2,4,-6,1,1,3
-4,-4,-1,3,-1,-2,2,3,-6,0,0,2
-4,-4,0,3,-1,-2,2,3,-6,0,0,2
-4,-5,0,4,-2,-2,2,3,-5,1,0,2
-3,-4,0,3,-2,-2,2,3,-5,1,0,2
-3,-3,0,3,-2,-1,1,2,-5,1,0,2
-3,-3,0,3,-2,-1,1,2,-5,1,0,2
-3,-3,0,3,-2,0,1,2,-5,1,0,2
-3,-2,1,2,-2,0,1,2,-5,1,1,2
-2,-1,1,1,-1,1,1,2,-5,2,1,2
-1,0,1,1,-2,1,1,2,-5,2,1,2
-2,0,2,1,-2,1,1,2,-5,2,1,2
-3,-2,2,3,-3,0,1,1,-6,1,0,2
-4,-2,3,4,-4,0,0,1,-6,1,0,2
-5,-2,3,3,-4,1,0,1,-6,1,0,2
-4,-1,3,3,-4,1,0,1,-6,1,1,2
-5,-1,3,2,-4,2,0,0,-6,1,1,2
-5,0,4,2,-4,2,0,0,-6,0,1,2
-4,1,5,0,-5,3,1,-1,-6,0,1,2
-4,2,5,0,-5,4,1,-1,-6,1,2,3
-4,1,5,1,-5,4,1,-1,-6,1,3,3
-5,1,6,2,-6,3,1,-1,-6,1,3,3
-6,0,6,2,-6,3,1,-1,-7,1,3,3
-6,0,6,3,-6,3,1,-1,-7,0,3,3
-6,0,6,3,-6,3,0,-1,-8,0,3,3
-7,-1,6,3,-6,3,0,-1,-9,0,3,3
-8,-1,6,4,-7,3,0,-2,-9,0,3,3
-8,-1,6,4,-7,3,0,-2,-10,-1,3,4
-8,0,7,3,-7,3,0,-2,-10,-1,4,4
-7,1,7,2,-7,4,0,-2,-11,-1,4,5
-6,1,8,2,-7,5,0,-3,-11,-1,4,5
-6,2,8,2,-7,5,-1,-4,-12,-1,4,5
-6,3,9,1,-7,6,-2,-5,-13,-1,5,6
-5,4,9,0,-7,7,-2,-5,-14,-1,6,7
-4,4,9,-1,-7,7,-2,-5,-14,-1,6,8
-4,5,9,-1,-7,8,-3,-5,-15,-1,7,8
-3,6,9,-2,-7,8,-3,-5,-16,-2,7,9
-3,6,9,-2,-6,8,-3,-5,-17,-2,8,9
-3,7,10,-2,-6,8,-3,-5,-18,-2,8,10
-3,7,10,-2,-6,9,-4,-6,-19,-3,8,10
-3,8,11,-2,-6,9,-5,-6,-20,-3,8,11
-3,7,10,-2,-6,9,-5,-7,-21,-4,8,11
-3,7,10,-2,-5,8,-5,-8,-22,-4,8,12
-3,7,10,-2,-6,8,-6,-9,-23,-5,8,12
-4,7,11,-2,-7,8,-6,-10,-24,-5,7,12
-3,8,11,-2,-7,9,-7,-11,-26,-6,7,12
-2,9,11,-3,-7,10,-7,-12,-26,-6,7,13
-2,10,11,-4,-6,10,-8,-12,-27,-6,8,13
-1,11,11,-5,-6,11,-9,-13,-27,-6,8,14
-1,12,12,-6,-6,12,-10,-14,-27,-6,8,14
0,14,13,-7,-6,13,-11,-13,-28,-6,8,15
1,14,13,-8,-6,14,-12,-13,-28,-6,9,16
1,15,13,-9,-6,14,-13,-13,-27,-6,10,17
2,16,13,-10,-6,14,-14,-13,-27,-6,10,17
4,16,12,-10,-5,14,-14,-13,-27,-5,10,18
5,16,11,-11,-3,13,-14,-13,-26,-4,11,18
6,16,9,-11,-2,12,-14,-12,-26,-4,12,19
7,16,8,-12,-1,12,-15,-12,-26,-3,12,19
7,16,8,-12,0,12,-15,-12,-26,-3,12,19
8,16,7,-13,0,12,-15,-11,-25,-3,12,19
8,15,7,-13,0,11,-15,-11,-25,-3,12,19
7,14,7,-12,0,11,-15,-10,-25,-3,12,19
7,13,6,-11,0,9,-14,-10,-25,-3,12,18
8,12,4,-10,1,8,-13,-9,-24,-3,12,18
8,11,2,-10,3,6,-12,-8,-23,-2,12,18
9,9,0,-9,4,5,-12,-7,-23,-1,12,17
9,9,-1,-9,5,4,-11,-6,-23,-1,11,17
9,8,-1,-9,5,4,-11,-5,-22,-1,11,16
8,6,-2,-8,5,2,-11,-5,-21,0,11,16
8,5,-3,-7,5,1,-10,-4,-20,0,11,15
8,4,-4,-7,5,0,-10,-3,-19,0,11,15
8,4,-4,-7,6,0,-9,-3,-19,0,10,14
7,3,-4,-6,6,0,-9,-2,-18,0,10,13
6,1,-5,-4,6,-2,-8,-1,-17,0,9,12
6,0,-6,-3,6,-3,-8,-1,-16,0,8,11
6,0,-6,-3,6,-3,-7,0,-15,0,8,10
6,0,-6,-4,6,-3,-6,0,-14,1,7,9
7,1,-6,-4,6,-3,-5,0,-12,1,7,9
7,1,-6,-4,6,-2,-5,1,-11,2,7,8
6,1,-5,-4,5,-2,-4,1,-10,2,6,7
5,0,-5,-3,5,-3,-4,1,-9,2,5,6
5,-1,-6,-2,5,-3,-3,1,-8,2,4,5
4,-2,-6,-2,5,-4,-3,2,-7,2,4,5
4,-2,-7,-2,6,-4,-2,3,-6,2,4,5
4,-3,-8,-1,6,-5,-1,3,-5,3,4,5
4,-3,-8,-1,6,-5,-1,3,-4,3,3,4
4,-4,-8,0,6,-6,0,3,-4,3,3,4
4,-5,-8,0,6,-6,0,3,-4,2,2,3
3,-5,-8,1,6,-7,0,3,-4,2,2,3
2,-5,-8,1,5,-7,0,3,-3,3,2,3
2,-5,-7,1,5,-7,0,4,-3,3,2,3
1,-5,-7,2,5,-6,0,4,-2,2,2,2
0,-6,-7,2,4,-6,0,4,-2,2,1,2
0,-7,-7,4,4,-7,0,4,-2,1,0,1
-1,-8,-8,5,4,-8,1,4,-2,1,0,1
0,-8,-8,4,4,-8,1,5,-2,1,0,0
0,-7,-8,3,4,-7,2,5,-2,1,0,0
0,-7,-8,3,4,-7,2,5,-1,0,-1,0
0,-7,-8,3,4,-8,3,5,-1,0,-1,-1
0,-7,-8,3,4,-8,3,6,-1,0,-2,-2
0,-7,-7,3,4,-7,3,6,-1,0,-2,-3
0,-8,-7,3,4,-7,3,6,-1,0,-2,-3
0,-8,-7,3,4,-8,3,6,-1,0,-2,-3
0,-8,-7,3,3,-8,3,6,0,0,-2,-3
-1,-8,-6,4,3,-7,4,5,0,0,-3,-3
-2,-8,-6,4,2,-7,4,5,0,-1,-3,-3
-2,-8,-6,5,2,-7,4,5,0,-1,-3,-4
-3,-8,-6,5,1,-7,4,4,0,-1,-3,-4
-3,-8,-5,5,1,-7,4,4,0,-1,-4,-4
-3,-8,-6,5,1,-7,4,4,0,-1,-4,-4
-3,-9,-6,6,1,-8,4,4,0,-1,-4,-4
-3,-10,-7,6,2,-9,4,3,-1,-2,-4,-4
-4,-10,-7,7,1,-9,4,3,-1,-2,-4,-4
-4,-10,-6,7,1,-8,4,3,-2,-2,-5,-5
-4,-10,-6,7,1,-8,4,3,-2,-2,-5,-5
-3,-9,-6,6,1,-7,5,3,-2,-2,-4,-5
-2,-8,-6,5,1,-7,5,3,-2,-2,-4,-5
-2,-8,-5,5,1,-7,5,3,-2,-2,-4,-5
-3,-8,-5,5,1,-7,4,3,-2,-2,-4,-5
