leadI,leadII,leadIII,leadaVR,leadaVL,leadaVF,leadV1,leadV2,leadV3,leadV4,leadV5,leadV6
0,-14,-15,7,8,-15,2,2,2,1,1,2
1,-37,-39,18,20,-38,7,5,6,3,4,5
2,-52,-54,25,28,-53,11,9,10,5,6,8
2,-67,-69,32,35,-68,16,13,15,9,10,12
1,-82,-82,40,41,-82,21,18,20,14,15,16
0,-93,-92,46,45,-92,25,22,24,17,18,20
-1,-97,-94,49,46,-95,26,23,25,19,20,21
-2,-94,-91,48,45,-92,25,22,24,17,18,20
-2,-86,-84,44,41,-85,22,19,21,14,15,17
-1,-78,-76,39,38,-77,19,16,17,11,12,13
-1,-72,-71,37,36,-72,17,14,15,9,10,11
-2,-73,-72,37,36,-73,17,15,16,9,10,12
-2,-79,-77,41,37,-78,20,17,18,12,13,14
-3,-86,-83,44,40,-84,23,20,21,15,16,17
-3,-89,-85,46,41,-87,24,21,23,16,17,18
-3,-86,-83,44,40,-84,23,21,22,15,16,17
-2,-79,-77,40,37,-78,20,18,20,13,13,15
-2,-70,-68,36,34,-69,17,15,16,10,10,11
-2,-63,-62,32,31,-62,15,12,14,8,7,9
-2,-62,-60,32,30,-61,15,13,14,8,7,8
-3,-68,-65,35,31,-66,18,17,19,11,8,9
-4,-75,-71,40,33,-73,22,23,26,15,8,10
-4,-80,-75,43,34,-78,26,29,33,19,6,9
-5,-80,-74,43,34,-78,27,33,40,24,4,7
-5,-75,-70,40,32,-73,26,34,46,30,2,5
-5,-67,-63,36,29,-65,24,34,48,36,1,2
-4,-60,-57,32,27,-58,21,33,49,43,3,1
-2,-55,-54,29,27,-55,19,34,47,54,11,4
1,-56,-58,27,30,-57,18,36,42,68,25,11
5,-60,-65,27,35,-62,17,37,30,85,46,21
11,-60,-70,24,40,-65,13,36,9,103,73,32
19,-55,-73,17,45,-64,6,31,-19,121,106,47
30,-43,-71,6,50,-57,-5,22,-55,138,145,63
41,-26,-67,-8,54,-47,-20,8,-96,151,186,81
52,-7,-60,-23,57,-34,-36,-9,-138,159,227,99
62,9,-53,-36,59,-22,-52,-30,-177,161,266,119
69,20,-50,-44,60,-15,-65,-50,-207,155,298,139
72,23,-49,-48,61,-13,-73,-69,-231,134,316,156
73,23,-48,-48,60,-12,-78,-89,-250,98,316,168
71,23,-46,-47,58,-11,-82,-106,-264,55,301,172
67,20,-45,-44,56,-12,-83,-117,-272,10,274,166
62,16,-45,-39,54,-14,-82,-122,-274,-36,236,153
56,13,-43,-34,50,-15,-79,-122,-270,-80,197,138
47,7,-40,-27,45,-16,-73,-118,-257,-111,163,124
37,-3,-42,-17,40,-22,-62,-107,-235,-124,131,109
27,-21,-49,-3,38,-34,-48,-93,-208,-123,101,94
19,-39,-57,9,38,-47,-35,-78,-181,-114,74,79
13,-52,-64,19,37,-58,-24,-64,-155,-103,50,64
8,-60,-66,25,36,-63,-16,-51,-132,-91,32,52
5,-61,-65,27,35,-63,-10,-40,-112,-80,20,42
3,-58,-60,27,32,-60,-7,-32,-95,-70,11,33
0,-54,-55,27,29,-56,-4,-24,-78,-59,4,26
-1,-54,-53,28,27,-55,0,-15,-61,-48,1,22
-3,-59,-57,31,28,-59,6,-6,-43,-35,2,20
-5,-68,-63,36,29,-66,12,3,-26,-22,5,21
-6,-74,-66,39,29,-71,17,10,-12,-11,9,21
-7,-75,-67,40,29,-71,20,15,-2,-3,11,21
-7,-73,-65,39,28,-69,22,18,4,2,13,21
-7,-68,-60,37,27,-64,21,19,8,4,12,19
-8,-63,-55,35,25,-60,20,18,10,5,9,17
-9,-60,-53,34,23,-57,20,19,13,7,8,15
-9,-63,-55,36,24,-59,22,21,17,10,8,16
-10,-70,-60,40,25,-65,24,24,23,14,9,17
-11,-76,-64,43,26,-70,27,26,27,17,11,18
-11,-79,-66,45,26,-72,28,27,29,18,12,19
-12,-78,-65,44,25,-72,28,28,30,18,12,18
-12,-73,-61,42,24,-68,27,27,30,17,11,17
-12,-67,-56,40,23,-62,26,26,28,16,8,16
-12,-63,-53,38,22,-58,25,26,28,16,7,15
-12,-64,-54,38,22,-59,25,26,29,17,6,14
-12,-70,-59,41,23,-64,26,28,32,20,8,16
-12,-76,-64,44,25,-70,29,30,35,23,10,17
-11,-80,-67,45,26,-74,30,31,37,24,11,18
-11,-81,-68,45,26,-74,30,31,37,24,12,18
-12,-77,-65,43,26,-71,29,31,36,23,12,17
-12,-71,-60,41,24,-66,28,30,35,21,10,16
-12,-67,-56,40,23,-61,27,29,34,20,9,15
-12,-66,-55,39,23,-61,27,30,34,21,9,15
-12,-70,-59,41,25,-65,28,31,37,23,10,16
-11,-76,-64,43,26,-70,29,32,39,25,11,17
-11,-80,-68,44,27,-73,30,33,40,26,12,18
-11,-87,-74,47,30,-80,33,36,44,29,15,21
-12,-92,-79,51,33,-86,36,39,46,32,18,24
-11,-89,-77,50,33,-83,35,38,44,31,16,23
-11,-82,-72,47,32,-77,33,36,42,29,12,22
-11,-79,-69,45,32,-74,32,36,41,28,11,21
-11,-80,-70,46,32,-75,33,37,42,29,13,21
-11,-86,-74,48,32,-80,34,38,45,31,17,22
-11,-90,-77,49,33,-83,35,38,46,32,20,23
-11,-91,-78,49,33,-84,35,38,46,32,22,23
-10,-89,-77,48,32,-83,34,38,46,32,22,23
-10,-84,-74,46,32,-79,33,37,44,30,21,22
-10,-79,-70,45,32,-75,32,37,43,29,20,21
-9,-76,-68,44,31,-72,32,36,42,29,19,21
-9,-77,-69,44,31,-73,32,37,43,30,18,21
-10,-83,-73,46,32,-78,34,38,46,32,19,23
-10,-88,-76,48,32,-82,35,39,47,33,20,23
-11,-90,-78,49,32,-84,35,39,47,33,20,23
-11,-90,-78,49,32,-84,34,39,47,33,20,23
-10,-86,-75,47,32,-81,34,38,46,32,20,23
-10,-81,-72,45,32,-77,33,38,45,31,20,23
-10,-77,-68,44,31,-73,32,37,44,30,19,22
-10,-75,-66,44,30,-71,32,37,43,30,18,22
-10,-78,-68,45,31,-73,32,38,45,31,19,22
-9,-82,-72,45,32,-77,33,39,46,33,20,23
-8,-84,-75,45,32,-80,33,39,47,33,20,23
-8,-85,-75,46,32,-81,34,40,47,33,20,23
-9,-84,-74,46,31,-80,34,40,48,33,20,24
-10,-81,-71,45,31,-77,34,41,48,33,19,24
-10,-78,-69,45,31,-74,34,41,48,34,19,24
-10,-78,-69,45,31,-74,34,41,48,34,19,24
-10,-80,-72,46,32,-77,35,41,49,35,18,25
-9,-85,-75,46,33,-80,35,42,50,36,18,25
-9,-86,-76,46,32,-81,34,41,50,35,18,25
-9,-81,-71,43,30,-76,31,39,47,32,16,22
-9,-73,-64,39,27,-69,29,37,45,30,14,20
-9,-68,-58,38,25,-63,28,37,44,29,13,19
-9,-64,-55,37,24,-60,28,38,44,29,10,19
-9,-62,-54,37,24,-59,28,38,44,29,7,19
-9,-64,-55,38,24,-60,29,38,44,29,5,20
-9,-70,-61,40,26,-66,30,39,46,31,4,21
-9,-76,-66,41,27,-71,32,39,48,33,3,22
-8,-78,-67,41,28,-72,32,38,48,34,0,22
-8,-77,-67,41,28,-72,32,37,47,35,-2,21
-8,-74,-65,40,28,-69,31,36,47,35,-4,21
-8,-70,-62,40,28,-66,31,36,47,36,-4,21
-7,-67,-60,39,28,-64,31,36,46,36,-4,20
-7,-65,-59,38,28,-63,30,36,46,36,-3,20
-6,-68,-62,38,28,-65,30,37,46,37,-1,19
-6,-72,-66,39,29,-69,31,38,47,38,1,19
-7,-75,-68,39,29,-71,32,40,47,38,4,19
-7,-76,-68,39,28,-71,32,41,48,39,8,19
-8,-74,-66,40,28,-70,32,42,49,39,12,19
-8,-71,-63,40,28,-67,33,43,49,39,15,20
-8,-68,-60,39,27,-64,32,43,49,38,16,19
-9,-65,-57,38,26,-61,32,43,49,37,17,18
-9,-65,-56,38,25,-61,31,43,50,37,17,18
-9,-68,-58,38,25,-63,31,43,51,37,17,17
-9,-69,-59,38,24,-64,30,43,51,37,16,17
-8,-69,-59,37,24,-64,30,42,52,37,15,16
-8,-67,-58,36,24,-62,29,41,52,37,13,16
-7,-62,-55,35,24,-59,29,40,53,37,12,15
-8,-57,-50,33,23,-54,28,39,53,37,10,15
-8,-53,-46,32,21,-50,28,38,52,36,8,14
-9,-51,-43,31,19,-48,27,37,52,36,7,14
-9,-53,-44,31,19,-49,27,37,52,35,6,14
-9,-54,-45,31,18,-50,26,37,51,35,4,13
-9,-55,-44,30,17,-50,26,36,51,34,3,13
-9,-54,-43,29,16,-49,25,36,50,34,2,12
-9,-51,-41,29,16,-46,25,36,50,34,1,12
-9,-47,-39,28,16,-43,24,36,49,34,1,12
-9,-45,-37,28,15,-41,24,35,49,34,0,11
-9,-43,-35,27,15,-39,23,35,49,33,0,11
-9,-44,-35,27,14,-40,23,35,49,33,0,10
-9,-46,-36,27,14,-41,22,35,50,34,0,10
-9,-46,-35,26,13,-41,22,35,50,34,0,9
-8,-45,-35,25,12,-40,21,35,50,34,0,9
-8,-42,-34,24,12,-38,21,36,50,35,1,9
-7,-38,-32,22,13,-35,21,36,50,35,1,9
-6,-35,-29,21,13,-33,20,36,50,35,1,9
-6,-32,-27,21,12,-30,20,36,50,35,1,8
-6,-32,-26,20,11,-30,19,36,50,35,2,8
-6,-34,-27,20,11,-31,19,36,51,36,2,8
-6,-36,-28,20,11,-32,19,36,51,36,2,8
-6,-37,-28,20,11,-32,18,36,51,36,2,8
-6,-37,-29,20,11,-32,18,36,52,37,2,8
-6,-35,-28,20,11,-31,19,37,52,38,2,9
-6,-33,-27,20,11,-30,19,37,53,39,2,9
-6,-30,-25,19,10,-28,19,38,54,40,2,9
-6,-29,-24,19,10,-27,19,39,55,42,3,9
-6,-32,-26,20,10,-29,20,40,56,43,4,10
-6,-35,-27,20,10,-31,20,41,57,45,5,10
-6,-35,-27,20,10,-31,20,42,58,46,5,11
-6,-35,-27,20,9,-31,21,43,60,47,6,13
-7,-34,-26,20,9,-30,21,44,61,48,6,14
-8,-33,-25,20,9,-29,21,45,62,49,6,14
-9,-31,-23,20,8,-27,21,45,62,49,6,13
-9,-29,-22,20,8,-26,20,45,62,49,6,13
-9,-30,-22,20,7,-26,20,45,64,51,7,13
-9,-32,-22,20,7,-27,20,46,65,53,8,14
-9,-32,-22,19,7,-26,20,47,66,54,8,15
-8,-31,-21,18,6,-26,20,47,66,55,8,15
-8,-29,-20,18,6,-25,19,47,67,56,8,15
-7,-27,-19,17,7,-24,20,49,68,58,9,16
-7,-26,-19,17,7,-23,20,50,69,59,10,16
-6,-24,-18,16,7,-22,19,50,70,60,11,16
-6,-24,-18,16,7,-21,19,51,70,61,11,17
-5,-25,-19,15,7,-22,19,51,71,62,12,17
-5,-25,-19,15,7,-22,19,51,72,63,13,17
-4,-24,-18,14,7,-21,18,51,72,64,13,18
-4,-24,-18,14,7,-21,18,52,73,65,13,18
-4,-23,-18,14,7,-21,18,52,73,67,14,19
-4,-21,-18,13,8,-20,18,53,74,68,14,20
-3,-19,-17,12,8,-19,18,53,75,70,15,20
-2,-18,-17,11,8,-18,18,53,76,71,16,21
-2,-19,-18,11,8,-19,18,54,76,73,17,22
-1,-20,-19,11,9,-19,18,54,76,74,17,23
-1,-20,-18,10,9,-19,17,54,76,74,18,23
0,-19,-18,9,9,-18,16,54,75,75,18,23
0,-18,-18,8,10,-18,15,54,75,76,19,24
1,-16,-18,8,10,-18,15,54,75,77,20,24
2,-14,-17,7,10,-16,14,54,75,77,20,25
2,-13,-16,6,9,-15,14,54,75,78,21,25
2,-13,-15,6,9,-14,14,54,75,78,22,26
2,-13,-15,5,9,-14,14,54,75,79,23,27
3,-12,-15,4,10,-14,13,54,74,79,23,28
4,-11,-15,2,10,-13,12,53,73,79,24,28
5,-11,-15,2,11,-13,11,53,72,80,25,29
5,-10,-15,2,11,-13,11,53,72,80,26,30
6,-8,-15,1,11,-12,11,52,71,79,26,30
7,-7,-15,0,11,-11,10,51,69,79,27,31
8,-7,-15,0,11,-11,10,50,68,79,28,31
8,-7,-15,0,11,-11,10,49,67,79,29,32
8,-7,-14,0,11,-10,9,48,66,79,30,33
8,-7,-13,-1,11,-10,8,47,64,78,30,33
7,-6,-13,-1,10,-9,8,45,62,78,31,33
7,-6,-13,0,10,-9,7,44,61,78,31,33
7,-6,-13,0,10,-9,7,43,59,78,32,34
7,-6,-13,0,10,-9,7,41,58,77,32,34
7,-5,-13,-1,10,-9,6,40,56,77,33,34
7,-6,-14,-1,11,-10,6,38,54,76,34,35
8,-6,-15,-1,12,-11,6,37,52,75,34,35
9,-7,-15,-1,13,-11,6,35,50,73,34,35
9,-7,-16,-1,13,-11,5,34,48,72,35,35
9,-8,-17,0,13,-12,5,33,46,70,35,35
9,-8,-17,0,13,-13,4,31,44,69,35,34
9,-8,-17,0,13,-13,4,29,41,67,35,33
8,-8,-17,0,13,-13,3,27,39,65,35,33
7,-10,-18,1,13,-14,3,26,37,63,35,32
7,-11,-18,1,13,-15,4,24,35,61,35,32
8,-11,-19,1,14,-15,4,23,33,58,35,31
8,-11,-19,1,14,-15,3,21,31,55,34,30
8,-12,-19,2,14,-15,3,20,30,52,33,29
7,-13,-20,3,14,-16,4,19,28,50,33,28
7,-13,-20,3,13,-16,4,18,26,47,31,27
6,-13,-19,3,13,-16,4,17,24,45,30,25
6,-14,-20,4,13,-17,4,16,23,43,29,24
5,-16,-22,5,14,-19,5,15,23,41,28,23
5,-17,-22,6,14,-19,5,14,22,38,27,22
5,-17,-22,6,14,-19,5,13,20,36,26,21
5,-17,-22,6,15,-20,5,13,19,33,24,21
5,-18,-24,7,15,-21,5,12,19,31,23,20
5,-19,-25,7,16,-22,6,11,18,28,22,18
5,-19,-25,7,16,-23,6,10,16,26,20,17
5,-20,-26,7,16,-24,6,10,15,24,18,16
5,-22,-27,8,17,-25,6,10,15,22,17,15
5,-24,-28,9,17,-26,7,10,14,20,16,15
5,-24,-28,9,16,-26,7,9,13,18,15,14
4,-24,-28,9,16,-26,6,8,12,15,14,13
4,-25,-29,10,17,-28,6,8,12,14,13,13
4,-27,-31,11,18,-29,7,7,12,12,12,12
4,-27,-31,11,18,-29,7,7,11,11,11,11
3,-26,-30,11,17,-28,7,7,11,9,10,11
3,-26,-29,11,17,-28,8,7,11,8,10,11
4,-26,-29,11,17,-28,8,6,10,7,8,10
4,-25,-29,10,17,-27,7,5,9,5,7,8
4,-26,-29,11,17,-27,7,5,8,3,6,8
4,-27,-30,11,17,-28,8,5,8,2,5,7
3,-27,-30,12,17,-28,8,5,8,1,5,7
3,-27,-29,12,17,-28,8,4,8,0,5,7
3,-26,-29,11,17,-28,8,4,7,0,4,6
3,-27,-29,12,17,-29,8,4,7,0,4,6
3,-28,-30,13,17,-30,8,4,7,0,4,6
3,-28,-31,13,17,-30,8,3,7,0,3,6
3,-28,-30,12,17,-29,8,3,7,-1,3,6
4,-28,-31,12,17,-29,8,3,7,-2,2,6
4,-28,-32,13,18,-30,8,3,7,-2,2,6
4,-28,-32,13,18,-30,8,3,6,-3,2,6
4,-28,-32,12,18,-30,8,3,6,-3,2,5
3,-29,-32,13,18,-31,8,3,6,-3,2,5
2,-31,-33,15,18,-32,8,4,6,-3,2,5
2,-32,-34,16,18,-33,8,4,6,-4,2,5
2,-31,-33,15,18,-32,8,3,6,-5,1,5
2,-30,-32,14,17,-31,7,3,6,-5,1,5
2,-30,-32,14,17,-31,8,3,6,-5,1,5
3,-29,-33,13,18,-31,8,2,6,-5,1,4
4,-28,-32,12,18,-31,7,2,5,-5,0,4
4,-28,-32,12,18,-31,7,2,5,-5,0,3
4,-29,-32,13,18,-31,7,2,6,-5,0,3
3,-29,-32,13,18,-31,8,2,6,-5,0,4
4,-28,-32,13,18,-30,7,1,5,-5,0,3
4,-27,-31,12,18,-29,6,1,5,-5,-1,3
3,-27,-31,12,17,-29,6,0,4,-6,-1,3
3,-28,-31,13,17,-29,6,1,4,-6,-1,3
3,-27,-30,12,17,-29,6,1,4,-7,-1,3
3,-26,-29,12,17,-28,6,1,4,-7,-1,3
3,-27,-29,12,16,-28,6,1,4,-7,-1,3
2,-28,-30,13,16,-29,6,2,5,-7,-1,3
2,-28,-30,13,16,-29,6,2,5,-8,-1,2
2,-27,-29,13,16,-28,6,2,5,-8,-1,2
2,-26,-28,13,15,-27,6,2,5,-8,-1,2
1,-26,-28,13,15,-27,6,2,5,-8,-1,2
1,-25,-27,12,15,-26,6,1,5,-8,-2,1
2,-24,-26,11,15,-25,5,0,4,-8,-3,0
3,-23,-26,10,15,-25,4,0,4,-9,-3,0
4,-23,-26,9,15,-25,4,0,4,-9,-3,0
4,-22,-26,9,15,-25,4,0,4,-9,-4,0
4,-21,-26,9,15,-24,4,-1,3,-10,-5,-1
3,-22,-25,9,14,-23,4,-1,3,-10,-5,-1
3,-23,-26,10,15,-24,4,-1,3,-10,-5,-2
3,-23,-26,10,15,-24,3,-1,3,-10,-6,-2
3,-22,-25,9,15,-23,3,-2,2,-10,-7,-3
3,-21,-24,9,14,-23,2,-2,2,-10,-7,-3
2,-21,-24,9,14,-23,3,-1,2,-10,-7,-3
2,-21,-24,9,14,-23,3,-1,3,-9,-6,-3
3,-20,-23,9,13,-22,3,-1,2,-10,-7,-3
3,-19,-22,8,13,-20,2,-1,2,-10,-7,-3
3,-19,-21,8,13,-20,2,0,2,-10,-7,-3
2,-19,-21,9,12,-19,2,0,2,-10,-7,-3
1,-18,-19,8,11,-18,2,-1,2,-11,-7,-4
1,-17,-18,8,11,-18,2,-2,1,-11,-8,-4
1,-17,-18,7,11,-18,1,-2,1,-11,-8,-4
2,-17,-18,7,11,-18,1,-2,1,-12,-8,-4
2,-16,-18,6,10,-17,1,-2,1,-12,-9,-5
2,-14,-16,6,9,-16,0,-2,0,-12,-10,-5
2,-14,-16,6,9,-15,0,-3,0,-12,-10,-5
2,-13,-16,6,9,-14,1,-3,0,-11,-10,-5
2,-12,-15,5,9,-14,1,-3,0,-11,-10,-5
2,-11,-14,5,8,-13,0,-4,0,-11,-11,-6
2,-11,-13,5,8,-13,0,-4,0,-12,-11,-6
1,-12,-13,5,8,-13,0,-4,0,-12,-11,-6
1,-12,-13,5,8,-13,0,-4,0,-12,-11,-7
2,-10,-13,4,8,-12,0,-4,-1,-12,-12,-8
2,-9,-12,4,7,-10,-1,-5,-1,-12,-13,-8
2,-9,-12,4,7,-10,-1,-4,-1,-12,-13,-8
2,-10,-12,4,8,-11,-1,-4,-1,-12,-13,-8
3,-10,-13,3,9,-11,-1,-4,-1,-12,-13,-9
3,-10,-13,3,9,-11,-1,-4,-1,-13,-13,-9
3,-10,-13,3,9,-11,-1,-4,-1,-12,-13,-8
3,-10,-13,3,9,-12,0,-4,0,-12,-13,-8
3,-9,-12,3,9,-11,-1,-4,-1,-12,-13,-9
3,-8,-12,3,8,-10,-1,-5,-1,-13,-14,-9
3,-8,-12,3,8,-10,-1,-4,-1,-12,-14,-9
3,-8,-12,3,8,-10,-1,-4,-1,-12,-14,-9
3,-7,-10,2,8,-9,-2,-5,-1,-12,-14,-10
3,-6,-9,2,7,-8,-2,-5,-1,-12,-14,-10
2,-6,-9,2,7,-7,-2,-5,-1,-11,-14,-9
1,-7,-8,2,5,-7,-1,-4,-1,-11,-14,-9
0,-6,-7,2,4,-6,-1,-4,-1,-11,-14,-10
0,-5,-6,2,4,-5,-2,-5,-1,-11,-15,-10
1,-4,-5,1,4,-4,-2,-5,-1,-10,-15,-10
2,-4,-5,1,5,-4,-2,-5,-1,-10,-15,-10
2,-3,-5,0,4,-4,-2,-5,-2,-10,-15,-10
1,-3,-4,0,3,-3,-2,-5,-2,-10,-15,-10
1,-3,-3,1,3,-3,-2,-5,-2,-10,-14,-10
1,-3,-4,1,3,-3,-2,-5,-1,-10,-14,-10
1,-3,-4,0,4,-3,-2,-5,-1,-10,-14,-10
2,-1,-4,0,4,-2,-2,-5,-2,-11,-14,-10
2,-1,-3,0,3,-2,-2,-5,-3,-11,-15,-10
2,-1,-4,0,3,-2,-2,-5,-3,-10,-15,-10
2,-1,-4,-1,4,-2,-3,-6,-3,-10,-15,-10
3,0,-3,-1,4,-1,-4,-7,-4,-11,-15,-11
3,0,-2,-1,3,0,-4,-7,-4,-11,-15,-11
2,1,-1,-1,2,0,-4,-7,-4,-10,-15,-11
2,1,-1,-1,2,0,-3,-6,-3,-9,-14,-10
1,1,-1,-1,2,0,-3,-6,-4,-9,-14,-10
1,2,-1,-1,2,0,-4,-7,-4,-11,-14,-10
2,2,0,-2,2,1,-4,-7,-5,-12,-15,-10
2,2,0,-2,2,1,-4,-7,-5,-12,-14,-10
2,3,0,-2,1,2,-4,-7,-5,-12,-14,-10
2,3,0,-2,1,2,-4,-7,-6,-12,-14,-11
2,3,0,-2,1,2,-4,-7,-6,-12,-14,-11
3,3,0,-3,2,1,-4,-7,-6,-12,-14,-10
3,4,0,-3,2,1,-4,-7,-6,-12,-14,-10
3,4,0,-4,2,2,-5,-7,-7,-13,-15,-11
3,4,0,-4,2,3,-5,-8,-7,-13,-16,-12
4,4,0,-4,2,3,-5,-8,-7,-13,-16,-12
4,5,1,-4,2,3,-5,-8,-7,-13,-16,-12
4,6,2,-5,2,4,-6,-9,-7,-13,-16,-12
4,6,2,-5,1,4,-6,-9,-8,-13,-16,-12
4,6,2,-5,1,4,-6,-9,-8,-13,-16,-12
4,7,2,-5,1,4,-6,-9,-8,-13,-16,-12
4,8,3,-6,1,5,-6,-10,-8,-14,-16,-12
4,8,3,-6,1,5,-6,-10,-8,-14,-16,-12
4,7,2,-5,1,5,-6,-10,-8,-14,-16,-12
3,7,2,-4,0,4,-6,-9,-8,-14,-16,-12
3,7,4,-5,0,5,-6,-9,-9,-14,-16,-12
3,8,5,-5,0,6,-6,-9,-9,-14,-16,-12
3,7,5,-5,0,5,-6,-9,-9,-14,-15,-12
3,7,4,-5,0,5,-6,-9,-10,-14,-15,-12
3,8,5,-6,0,6,-7,-10,-10,-15,-16,-12
3,9,5,-6,0,7,-7,-10,-10,-15,-16,-12
3,10,5,-6,0,8,-7,-10,-10,-15,-16,-12
3,10,5,-6,0,8,-7,-10,-11,-16,-16,-13
4,11,6,-7,0,9,-8,-11,-11,-17,-17,-14
4,12,7,-7,0,10,-9,-12,-12,-17,-17,-14
5,13,8,-8,0,10,-9,-12,-12,-17,-17,-14
5,14,9,-9,-1,11,-10,-13,-12,-17,-17,-14
4,14,10,-9,-2,12,-10,-13,-13,-18,-18,-15
3,14,10,-9,-3,12,-10,-13,-13,-18,-18,-15
2,14,11,-8,-4,13,-10,-13,-13,-18,-18,-15
2,14,12,-8,-4,13,-10,-13,-13,-18,-18,-15
2,15,12,-8,-5,13,-10,-13,-13,-18,-18,-15
2,16,13,-9,-5,14,-10,-14,-13,-18,-18,-15
3,16,13,-9,-5,14,-10,-14,-13,-18,-18,-15
3,15,12,-9,-4,13,-9,-13,-13,-18,-18,-15
3,15,11,-9,-4,13,-9,-13,-14,-18,-18,-15
3,15,11,-9,-4,13,-9,-14,-14,-19,-18,-15
4,15,11,-9,-3,13,-9,-14,-14,-19,-18,-15
4,14,10,-8,-3,12,-9,-14,-14,-19,-18,-15
3,13,9,-8,-3,11,-9,-14,-13,-18,-18,-15
3,12,9,-7,-3,11,-9,-15,-13,-18,-18,-15
2,12,9,-6,-3,10,-9,-14,-13,-18,-17,-14
2,11,8,-6,-3,9,-8,-13,-13,-18,-17,-14
2,10,7,-6,-2,9,-8,-13,-13,-19,-16,-14
2,11,8,-7,-2,9,-8,-13,-13,-19,-17,-14
2,11,9,-7,-3,10,-8,-13,-14,-19,-17,-14
2,11,9,-6,-3,9,-8,-13,-13,-19,-17,-14
2,10,9,-6,-3,9,-7,-13,-13,-18,-17,-13
1,10,9,-5,-3,9,-7,-13,-12,-18,-16,-13
0,10,10,-5,-4,10,-7,-13,-12,-18,-16,-13
0,10,10,-4,-5,10,-6,-12,-12,-17,-16,-13
0,9,9,-4,-4,9,-6,-12,-12,-17,-16,-13
0,10,10,-4,-4,10,-6,-13,-12,-17,-16,-13
0,11,11,-5,-5,11,-7,-13,-13,-17,-16,-13
0,11,11,-5,-5,10,-6,-12,-12,-17,-16,-13
0,10,10,-5,-4,10,-6,-12,-11,-17,-15,-12
0,10,9,-5,-4,10,-7,-12,-11,-17,-15,-12
0,10,10,-5,-4,10,-7,-13,-11,-18,-16,-12
0,9,9,-4,-4,9,-7,-13,-11,-18,-15,-12
0,8,8,-3,-4,8,-6,-12,-11,-17,-14,-12
-1,7,8,-3,-4,7,-6,-11,-11,-17,-14,-11
-1,8,9,-3,-4,8,-6,-11,-12,-18,-14,-12
-1,8,9,-4,-4,9,-6,-11,-12,-18,-14,-12
-1,8,9,-4,-4,8,-5,-11,-11,-18,-14,-12
-1,8,8,-4,-3,8,-5,-11,-11,-17,-14,-12
-1,9,9,-4,-4,9,-6,-11,-11,-17,-15,-13
-1,9,10,-4,-5,9,-7,-12,-12,-18,-16,-13
-1,9,10,-4,-5,9,-7,-13,-12,-18,-16,-13
-1,9,10,-4,-5,9,-7,-13,-12,-18,-16,-13
-1,9,10,-4,-5,9,-7,-13,-12,-18,-16,-13
-1,10,10,-4,-5,10,-7,-13,-12,-18,-16,-13
-2,9,10,-3,-5,9,-6,-12,-11,-17,-15,-13
-3,7,9,-2,-5,8,-6,-12,-11,-17,-15,-12
-3,7,9,-2,-5,7,-6,-12,-11,-17,-14,-12
-2,6,8,-2,-4,6,-5,-12,-10,-17,-14,-11
-1,5,6,-2,-3,5,-5,-11,-10,-16,-14,-11
-1,3,4,-1,-2,3,-4,-11,-9,-16,-13,-10
-1,2,3,-1,-2,3,-4,-10,-9,-15,-13,-10
-1,2,2,-1,-1,3,-4,-10,-9,-15,-12,-10
-1,2,2,0,-1,2,-4,-10,-8,-14,-12,-9
-1,1,1,0,-1,1,-3,-9,-8,-14,-12,-9
-1,1,2,0,-1,1,-3,-9,-8,-14,-12,-9
-1,2,3,0,-1,2,-3,-9,-8,-14,-12,-9
-1,2,3,0,-1,2,-3,-9,-8,-14,-12,-9
-2,1,2,0,-1,1,-3,-8,-8,-13,-11,-9
-2,0,2,0,-1,1,-3,-8,-8,-13,-11,-9
-2,1,3,0,-2,2,-4,-9,-8,-14,-12,-9
-2,2,4,0,-2,2,-4,-9,-8,-15,-12,-10
-2,1,3,0,-2,1,-3,-9,-8,-14,-12,-10
-2,0,2,0,-1,1,-3,-9,-7,-14,-12,-9
-2,0,2,0,-1,1,-4,-9,-7,-14,-12,-9
-2,0,2,0,-1,1,-4,-9,-7,-14,-12,-9
-2,0,2,0,-1,1,-3,-9,-7,-13,-11,-8
-3,-1,2,1,-2,1,-3,-9,-6,-13,-11,-8
-3,0,2,1,-2,1,-3,-9,-6,-13,-11,-7
-3,0,3,1,-2,2,-2,-9,-6,-13,-11,-7
-3,0,3,1,-2,1,-2,-8,-6,-13,-10,-7
-4,0,2,2,-2,1,-2,-7,-6,-12,-10,-7
-4,-1,2,2,-3,1,-2,-7,-6,-12,-10,-7
-4,-1,3,2,-3,1,-2,-7,-6,-12,-10,-7
-4,-1,2,2,-2,0,-2,-7,-5,-12,-10,-7
-4,-1,2,2,-2,0,-2,-6,-5,-13,-10,-7
-4,0,3,2,-3,1,-2,-7,-6,-14,-10,-8
-4,1,4,1,-3,2,-3,-8,-7,-15,-11,-8
-3,2,5,1,-4,3,-3,-9,-7,-15,-11,-8
-3,2,5,1,-4,4,-3,-9,-7,-15,-11,-8
-4,3,6,1,-5,4,-3,-9,-7,-15,-11,-9
-4,4,8,0,-6,5,-4,-10,-8,-15,-12,-9
-4,5,8,0,-6,6,-4,-10,-8,-15,-12,-9
-5,4,8,0,-6,6,-4,-9,-7,-14,-12,-9
-5,4,8,0,-6,6,-4,-9,-7,-14,-12,-9
-6,4,9,1,-7,6,-4,-10,-8,-14,-12,-9
-6,4,9,1,-8,6,-4,-10,-8,-14,-12,-9
-6,4,10,1,-8,6,-4,-10,-7,-14,-12,-9
-5,6,10,0,-8,8,-4,-10,-7,-14,-12,-9
-4,7,11,-1,-8,9,-4,-10,-7,-14,-12,-9
-5,7,11,-1,-8,9,-4,-9,-7,-14,-12,-9
-6,7,12,0,-9,9,-3,-9,-7,-14,-12,-9
-6,7,12,0,-9,9,-3,-9,-7,-13,-11,-8
-6,7,13,0,-9,10,-4,-9,-7,-13,-11,-8
-6,8,14,-1,-9,10,-4,-9,-7,-13,-12,-9
-6,8,14,-1,-9,10,-3,-9,-7,-13,-12,-9
-6,8,14,-1,-10,10,-3,-10,-7,-13,-12,-9
-7,8,15,0,-11,11,-4,-10,-7,-13,-12,-9
-8,8,16,0,-12,12,-4,-10,-7,-13,-12,-10
-9,8,17,0,-12,12,-3,-9,-7,-12,-12,-9
-9,8,17,0,-12,12,-3,-9,-7,-12,-11,-8
-9,8,17,0,-12,12,-3,-9,-7,-12,-10,-8
-9,9,18,0,-13,13,-3,-8,-7,-12,-10,-8
-10,9,19,0,-13,14,-3,-8,-6,-13,-10,-7
-10,9,18,0,-13,14,-2,-7,-6,-13,-10,-7
-10,9,18,0,-13,14,-3,-8,-7,-13,-10,-7
-10,10,19,0,-14,14,-3,-8,-7,-14,-10,-8
-10,10,19,0,-14,14,-3,-8,-7,-13,-10,-8
-11,9,19,0,-14,14,-2,-8,-7,-13,-10,-8
-10,10,19,0,-14,14,-2,-8,-7,-13,-10,-8
-10,11,20,0,-15,16,-2,-8,-7,-13,-10,-8
-10,11,21,0,-15,16,-2,-8,-7,-14,-10,-8
-11,11,22,0,-16,16,-2,-8,-6,-14,-10,-7
-11,11,22,0,-16,16,-2,-8,-6,-14,-10,-7
-11,11,22,0,-16,16,-3,-8,-6,-14,-11,-7
-10,11,22,0,-16,16,-3,-8,-6,-13,-11,-7
-11,10,21,0,-16,15,-3,-8,-6,-13,-10,-7
-11,10,21,0,-16,15,-2,-8,-6,-12,-10,-7
-11,10,22,0,-16,16,-2,-8,-6,-12,-10,-7
-11,10,22,0,-16,16,-2,-8,-6,-13,-10,-7
-11,10,22,0,-16,16,-2,-7,-5,-13,-10,-7
-12,10,22,1,-16,15,-1,-7,-5,-12,-9,-6
-12,9,21,1,-16,14,-1,-7,-5,-12,-9,-6
-12,9,21,1,-16,14,-1,-7,-5,-12,-9,-6
-12,9,20,1,-16,14,-1,-6,-5,-12,-9,-6
-11,8,18,2,-14,12,-1,-6,-4,-11,-8,-6
-11,7,17,2,-14,12,-1,-5,-4,-11,-8,-6
-11,6,17,2,-14,12,-1,-5,-5,-11,-8,-6
-11,5,17,2,-13,11,0,-5,-4,-11,-8,-5
-11,3,16,3,-13,9,0,-5,-3,-11,-8,-5
-11,3,15,3,-13,9,0,-5,-3,-10,-8,-4
-11,3,15,3,-13,9,0,-5,-3,-10,-8,-4
-12,2,14,4,-13,8,0,-5,-3,-10,-7,-4
-12,1,13,5,-12,7,0,-4,-2,-9,-7,-4
-11,0,12,5,-12,6,1,-4,-2,-9,-7,-4
-11,0,11,5,-11,6,1,-4,-2,-8,-7,-4
-11,-1,10,5,-11,4,2,-3,-1,-8,-6,-3
-12,-4,9,7,-10,2,3,-2,0,-7,-5,-2
-12,-6,7,9,-9,0,4,-1,0,-6,-4,-1
-12,-6,6,9,-9,0,4,0,1,-5,-3,-1
-13,-8,5,11,-9,-1,5,0,1,-4,-2,0
-13,-10,3,12,-8,-3,6,1,2,-3,-1,1
-13,-11,1,12,-7,-5,7,2,3,-2,0,2
-13,-12,0,13,-6,-6,7,3,3,-2,0,2
-13,-14,-1,14,-6,-7,8,3,3,-1,0,3
-14,-16,-2,15,-6,-9,9,4,4,0,1,4
-15,-18,-3,16,-6,-10,10,5,6,0,2,5
-16,-19,-3,17,-6,-11,11,6,7,0,3,5
-16,-19,-4,17,-6,-12,11,6,7,0,3,6
-17,-21,-5,19,-6,-13,12,7,8,1,4,7
-17,-23,-7,20,-5,-15,13,7,9,1,5,7
-17,-23,-7,20,-5,-15,12,7,9,1,5,7
-17,-23,-6,20,-5,-15,12,7,8,1,5,6
-17,-25,-8,21,-5,-17,12,8,9,1,5,6
-16,-26,-10,21,-3,-18,13,9,9,2,5,7
-15,-26,-11,21,-2,-19,14,9,10,3,6,8
-15,-26,-11,20,-2,-19,14,9,10,3,6,7
-15,-27,-12,21,-1,-19,14,9,10,3,6,8
-16,-28,-13,22,-1,-21,14,9,10,4,6,8
-15,-29,-14,22,0,-21,14,9,10,4,7,9
-15,-29,-14,22,0,-21,14,8,10,3,7,9
-16,-30,-14,22,0,-22,14,8,11,3,7,9
-16,-30,-14,23,0,-23,14,9,11,4,7,9
-16,-30,-14,23,-1,-22,15,9,12,4,7,9
-16,-29,-13,22,-1,-21,15,10,12,5,7,9
-16,-29,-13,23,-1,-21,15,10,12,6,8,10
-16,-30,-14,23,0,-22,15,10,13,6,8,10
-16,-31,-15,23,0,-23,15,10,12,6,8,10
-15,-30,-15,23,0,-23,15,10,12,5,7,9
-15,-30,-15,23,0,-23,15,10,11,4,7,9
-16,-31,-15,23,0,-23,16,10,11,4,7,9
-16,-32,-16,23,0,-24,16,10,12,4,7,9
-16,-31,-16,23,0,-24,16,10,12,4,7,8
-16,-31,-15,23,0,-24,15,9,11,3,6,8
-15,-31,-16,23,1,-24,15,10,11,4,7,8
-15,-31,-16,23,1,-24,15,10,12,5,7,9
-15,-30,-15,23,0,-23,15,9,12,5,7,9
-15,-29,-14,22,0,-22,15,9,12,5,6,8
-14,-28,-15,21,0,-22,15,9,12,4,6,8
-13,-28,-15,20,1,-22,15,9,12,4,6,8
-13,-28,-15,20,1,-21,14,8,12,3,6,7
-13,-26,-13,19,0,-19,14,8,11,3,5,7
-14,-26,-11,20,-1,-19,14,8,11,3,5,7
-15,-27,-12,20,-1,-20,14,8,11,3,5,7
-15,-27,-12,20,-1,-20,14,8,11,2,6,7
-15,-25,-10,20,-2,-18,13,8,10,2,6,7
-15,-25,-10,19,-2,-18,13,8,10,2,6,7
-15,-25,-10,19,-2,-18,14,9,11,3,6,8
-15,-25,-10,19,-2,-17,14,9,11,3,6,8
-15,-25,-10,19,-2,-17,14,9,11,3,5,7
-15,-25,-9,19,-2,-17,14,8,11,3,5,7
-15,-25,-10,20,-2,-17,14,8,11,3,5,7
-15,-25,-10,20,-2,-18,14,8,10,3,5,7
-15,-24,-9,19,-3,-17,13,8,10,2,5,7
-16,-23,-7,19,-4,-16,13,8,10,1,5,7
-16,-23,-7,19,-4,-16,14,9,10,1,5,7
-16,-24,-7,20,-4,-15,14,9,10,2,5,7
-16,-23,-6,20,-5,-14,14,8,10,2,5,7
-16,-22,-5,19,-5,-13,13,7,10,1,4,7
-17,-22,-5,19,-6,-13,13,7,10,1,4,7
-17,-23,-5,20,-6,-14,14,7,10,2,5,7
-17,-22,-5,19,-6,-14,13,7,10,1,5,7
-16,-21,-5,19,-6,-13,13,7,9,0,4,6
-16,-21,-5,18,-6,-13,13,7,9,0,4,6
-16,-22,-6,19,-5,-14,13,8,10,0,5,6
-16,-21,-5,19,-5,-13,13,8,10,0,5,6
-16,-20,-4,18,-6,-12,13,7,9,0,5,7
-16,-20,-4,18,-6,-12,13,7,9,0,5,7
-17,-21,-5,19,-6,-13,14,8,9,1,5,7
-17,-22,-5,20,-6,-13,14,8,9,1,5,7
-17,-21,-4,19,-6,-13,13,8,9,1,5,7
-18,-21,-3,19,-6,-13,13,8,9,1,4,6
-18,-21,-4,20,-6,-13,14,8,9,1,4,6
-17,-21,-4,19,-6,-13,14,8,9,1,4,6
-16,-20,-4,18,-6,-13,13,8,9,1,4,6
-15,-20,-4,18,-6,-12,13,8,9,1,4,6
-15,-20,-4,18,-6,-12,13,8,9,1,4,6
-15,-20,-4,18,-6,-12,13,8,9,1,4,6
-15,-19,-4,17,-6,-12,13,8,9,0,4,5
-15,-19,-4,17,-5,-12,12,7,9,0,3,5
-15,-20,-4,17,-5,-12,13,7,9,0,4,5
-15,-19,-4,17,-5,-12,13,7,9,1,4,5
-15,-18,-3,16,-6,-10,13,7,8,0,4,5
-15,-17,-2,16,-6,-9,12,6,8,0,4,5
-15,-17,-1,16,-6,-9,12,6,8,0,4,5
-15,-17,-1,16,-6,-9,12,6,8,0,4,5
-14,-15,0,15,-6,-8,11,6,7,0,4,4
-14,-13,1,13,-7,-6,10,5,7,-1,3,4
-14,-12,1,13,-7,-5,10,5,7,-1,2,4
-14,-12,1,12,-7,-4,10,5,7,-1,2,4
-13,-10,2,12,-8,-3,10,5,6,-1,2,3
-12,-9,3,11,-8,-2,9,4,6,-2,2,3
-12,-8,3,10,-8,-2,9,4,7,-2,2,3
-11,-8,4,9,-8,-1,9,4,7,-1,2,3
-11,-6,5,9,-8,0,8,4,7,-1,1,2
-11,-4,7,8,-9,2,7,3,6,-2,1,2
-11,-3,8,7,-10,3,7,3,6,-2,0,2
-11,-3,8,7,-10,3,7,3,6,-1,0,2
-10,-1,9,6,-9,4,6,3,6,-1,0,2
-10,0,10,5,-10,5,6,2,6,-1,0,1
-10,1,11,5,-10,6,6,2,7,-1,0,1
-11,1,12,5,-11,6,6,2,7,-1,1,2
-11,2,13,4,-11,7,6,2,8,-1,1,1
-10,4,14,3,-12,9,5,2,8,-2,0,0
-10,6,15,2,-12,10,5,1,7,-3,0,0
-10,5,15,2,-12,10,5,1,8,-3,0,0
-10,5,15,3,-13,10,5,2,8,-2,0,0
-10,6,16,2,-13,11,4,1,7,-2,0,0
-9,7,16,1,-13,12,4,1,7,-2,0,0
-9,7,16,1,-13,12,3,0,6,-2,-1,0
-8,7,16,1,-13,11,3,0,5,-2,-1,0
-8,8,16,0,-13,12,2,-2,4,-3,-1,0
-9,8,17,0,-14,13,1,-3,2,-4,-1,-1
-9,8,17,0,-14,13,0,-4,1,-4,-1,0
-8,8,17,0,-13,12,0,-4,1,-4,0,1
-7,9,17,-1,-13,13,-1,-5,0,-4,0,1
-7,10,17,-1,-13,13,-2,-5,0,-4,0,1
-6,10,17,-1,-12,13,-2,-5,0,-5,0,1
-6,10,16,-1,-12,12,-2,-5,0,-5,0,1
-6,10,16,-2,-11,13,-2,-5,-1,-5,0,1
-5,12,16,-3,-11,14,-2,-5,-1,-5,0,1
-4,12,16,-4,-10,14,-2,-5,-1,-5,0,1
-3,12,16,-4,-10,13,-1,-5,-1,-5,0,1
-3,11,15,-3,-10,13,-1,-5,-1,-5,0,1
-3,11,15,-4,-10,13,-1,-5,-1,-5,0,1
-2,11,14,-4,-9,13,-1,-4,-1,-5,0,1
-2,11,13,-4,-8,12,-1,-4,0,-4,0,1
-2,10,12,-4,-8,11,-1,-3,0,-4,0,1
-2,10,12,-4,-7,11,-1,-3,0,-4,0,1
-2,9,12,-3,-7,10,0,-3,0,-4,0,1
-2,8,11,-3,-6,9,0,-2,0,-4,0,1
-2,7,10,-3,-5,8,0,-1,0,-4,1,2
-2,7,9,-3,-5,8,0,-1,0,-4,1,1
-2,6,9,-2,-6,8,0,-1,0,-5,1,1
-3,5,8,-1,-6,6,1,-1,0,-6,1,1
-3,4,7,-1,-5,5,2,0,0,-6,1,1
-3,4,6,-1,-5,5,2,-1,0,-6,0,0
-3,4,6,-1,-5,5,2,-2,-1,-7,-1,-1
-3,3,6,0,-4,4,2,-2,-1,-8,-2,-2
-3,2,5,0,-4,4,2,-2,-1,-8,-3,-2
-2,2,5,0,-4,4,1,-3,-2,-8,-5,-3
-2,3,5,0,-4,4,1,-3,-3,-9,-6,-4
-1,3,5,-1,-3,3,1,-3,-3,-10,-6,-5
-1,3,4,-1,-3,3,1,-3,-3,-10,-6,-5
-1,3,3,-1,-3,3,0,-3,-3,-11,-7,-6
0,3,4,-1,-3,3,0,-3,-4,-12,-8,-7
0,3,4,-1,-2,3,0,-4,-5,-13,-8,-8
0,2,3,-1,-1,3,0,-4,-5,-14,-8,-8
1,2,2,-2,0,2,0,-4,-5,-14,-9,-8
1,3,2,-3,0,2,0,-4,-5,-14,-9,-8
1,3,2,-3,0,3,0,-4,-5,-14,-9,-8
1,3,2,-3,-1,2,0,-4,-5,-14,-9,-8
1,3,2,-2,-1,2,0,-4,-5,-13,-9,-8
1,3,2,-2,-1,2,0,-4,-5,-13,-9,-8
0,4,4,-2,-2,3,0,-4,-5,-13,-9,-8
0,4,5,-2,-2,4,0,-4,-5,-13,-9,-8
0,4,5,-2,-2,4,0,-3,-5,-13,-9,-8
0,5,5,-2,-3,5,0,-3,-5,-13,-10,-8
0,5,5,-3,-3,5,0,-4,-5,-14,-10,-8
0,5,5,-2,-3,4,0,-3,-5,-13,-10,-8
0,5,5,-2,-3,4,0,-3,-4,-13,-10,-8
0,6,6,-3,-3,6,0,-4,-5,-13,-10,-9
0,7,7,-3,-4,7,0,-4,-5,-14,-11,-10
-1,7,8,-3,-4,8,0,-4,-5,-14,-11,-10
-1,7,8,-3,-4,8,0,-4,-5,-13,-10,-10
-1,7,9,-4,-5,8,0,-4,-5,-13,-10,-10
-1,8,10,-4,-5,9,0,-5,-6,-13,-11,-10
-1,8,10,-4,-6,8,0,-5,-5,-13,-10,-9
-2,7,10,-2,-7,8,0,-4,-5,-13,-9,-9
-3,7,11,-2,-8,8,1,-4,-4,-13,-9,-9
-3,8,12,-2,-8,10,1,-2,-3,-12,-11,-10
-3,9,13,-2,-8,10,2,0,1,-11,-13,-12
-4,9,13,-1,-9,11,3,4,6,-9,-16,-14
-5,9,14,-1,-9,11,5,8,13,-3,-18,-16
-5,9,14,-1,-10,11,6,12,20,5,-18,-17
-5,8,13,-1,-9,10,7,15,26,14,-16,-17
-3,8,12,-2,-8,10,7,18,31,24,-12,-15
-1,10,11,-4,-7,10,7,19,32,35,-3,-12
2,14,12,-8,-5,12,5,19,29,47,9,-7
6,19,12,-13,-3,15,1,18,17,60,26,0
11,23,12,-18,0,17,-3,15,-1,73,50,9
19,29,10,-24,4,19,-10,10,-27,88,80,23
29,38,9,-34,10,23,-20,2,-59,103,117,39
39,48,9,-44,15,28,-33,-10,-96,116,157,58
49,58,9,-54,20,33,-46,-26,-135,123,199,78
58,69,11,-64,23,40,-59,-44,-173,125,238,98
65,82,16,-74,24,49,-72,-65,-207,117,269,117
69,94,24,-82,22,59,-83,-86,-235,95,285,131
70,102,31,-86,19,67,-92,-107,-258,60,284,141
69,105,36,-87,16,71,-97,-123,-275,19,268,144
65,102,37,-83,14,70,-99,-133,-285,-23,238,138
60,93,34,-77,13,64,-98,-136,-287,-66,199,126
54,83,29,-69,12,56,-93,-135,-282,-105,162,113
46,72,26,-60,9,50,-85,-130,-270,-133,129,100
37,63,25,-50,5,44,-76,-122,-251,-149,97,83
28,52,23,-40,1,38,-65,-111,-229,-152,66,65
20,42,21,-31,0,32,-55,-99,-206,-147,38,48
15,32,17,-24,-1,25,-46,-87,-184,-138,14,33
12,25,13,-18,0,19,-39,-75,-162,-127,-2,21
10,20,10,-15,0,15,-33,-64,-142,-114,-12,12
8,16,8,-13,0,12,-28,-54,-123,-102,-18,6
6,13,7,-10,-1,10,-23,-45,-105,-89,-21,2
3,12,8,-8,-3,9,-19,-37,-87,-76,-23,-1
1,12,9,-7,-4,10,-15,-30,-72,-65,-24,-4
0,12,11,-6,-5,11,-11,-23,-58,-55,-23,-6
0,12,12,-5,-6,12,-7,-17,-45,-45,-20,-7
-1,11,13,-4,-7,12,-5,-12,-34,-37,-17,-7
-1,12,14,-4,-8,13,-3,-9,-26,-30,-15,-6
-2,12,15,-4,-9,14,-2,-7,-19,-24,-13,-6
-2,11,14,-4,-9,13,-1,-5,-14,-20,-13,-7
-2,10,13,-3,-8,11,0,-4,-11,-17,-13,-7
-2,9,12,-3,-8,10,0,-3,-8,-15,-14,-8
-2,9,11,-2,-7,10,1,-2,-6,-14,-14,-9
-3,8,10,-2,-7,9,2,0,-3,-13,-14,-9
-3,6,9,-1,-7,8,3,2,-1,-12,-13,-8
-3,5,10,0,-7,7,4,3,1,-11,-13,-8
-4,5,10,0,-7,7,5,4,2,-10,-12,-8
-4,4,9,0,-7,6,5,5,4,-8,-12,-8
-4,2,8,1,-6,4,6,5,5,-7,-11,-7
-4,2,7,1,-6,4,6,5,6,-6,-12,-7
-4,3,6,0,-5,4,6,5,6,-5,-12,-7
-4,3,6,0,-5,4,7,5,7,-5,-12,-7
-4,2,5,1,-5,3,7,6,8,-4,-12,-7
-4,1,4,1,-4,3,7,6,9,-4,-12,-7
-3,0,4,1,-4,2,7,7,10,-4,-11,-7
-3,0,3,2,-3,1,7,7,10,-3,-11,-7
-3,-1,3,2,-3,0,8,8,10,-3,-11,-7
-3,-1,2,2,-3,0,8,8,10,-2,-11,-7
-3,0,2,2,-3,0,8,8,11,-2,-11,-7
-3,0,2,2,-3,0,8,8,11,-1,-11,-7
-3,-1,1,2,-2,0,8,9,12,-1,-10,-6
-3,-1,1,3,-2,0,8,9,12,0,-10,-6
-3,-1,1,2,-2,0,7,8,12,0,-11,-7
-2,-1,1,2,-2,0,7,8,12,0,-11,-7
-2,-1,1,2,-2,-1,8,8,12,0,-11,-7
-3,-2,0,3,-2,-1,8,8,13,0,-10,-7
-3,-1,0,2,-2,-1,8,8,13,1,-10,-7
-2,0,0,1,-1,0,8,8,13,1,-10,-7
-2,-1,0,1,-1,-1,8,8,13,1,-10,-7
-2,-2,0,2,-1,-1,8,8,14,1,-10,-6
-1,-2,0,2,-1,-1,8,8,14,1,-10,-7
-1,-1,0,1,-1,-1,8,8,14,1,-10,-7
-1,-1,0,1,0,-1,8,9,14,1,-9,-7
-1,-3,-2,2,1,-3,8,9,15,2,-9,-7
0,-3,-3,2,2,-4,8,9,15,2,-9,-6
0,-3,-3,1,2,-4,8,9,15,2,-9,-6
0,-3,-4,2,2,-4,8,10,16,3,-8,-6
0,-5,-5,3,2,-5,9,10,16,4,-8,-5
0,-5,-4,3,1,-5,9,10,16,4,-7,-5
0,-5,-4,3,1,-4,9,10,16,4,-8,-5
0,-5,-4,3,1,-5,9,10,17,4,-7,-5
0,-6,-4,3,2,-6,10,11,17,4,-7,-5
0,-6,-5,3,2,-7,10,11,17,4,-7,-5
0,-6,-6,3,2,-7,9,10,17,4,-7,-5
0,-6,-7,3,3,-7,9,10,17,4,-8,-6
0,-7,-8,3,3,-8,9,10,17,4,-8,-5
0,-8,-9,4,4,-9,9,11,18,5,-7,-5
0,-8,-8,4,3,-8,9,11,18,5,-7,-5
0,-8,-8,4,3,-8,9,11,18,5,-7,-5
0,-9,-8,4,4,-8,10,12,19,6,-6,-4
0,-9,-9,4,4,-9,10,12,19,6,-6,-4
0,-8,-9,4,4,-9,9,12,18,5,-7,-5
0,-7,-8,3,4,-8,9,12,18,5,-7,-5
0,-8,-9,3,4,-9,9,12,19,6,-7,-5
1,-8,-9,3,5,-9,10,12,20,6,-7,-4
1,-8,-9,3,5,-9,10,12,19,6,-7,-5
1,-7,-8,3,5,-8,10,12,19,6,-7,-5
1,-8,-9,3,5,-9,10,12,20,7,-7,-4
1,-8,-9,3,5,-9,10,13,20,7,-7,-4
1,-8,-9,3,5,-9,10,13,21,7,-7,-4
1,-7,-8,3,4,-8,10,13,21,7,-7,-4
0,-7,-7,3,3,-8,10,13,21,8,-7,-4
0,-8,-8,3,4,-8,10,13,21,8,-6,-4
0,-8,-9,3,4,-8,10,13,21,8,-6,-4
0,-7,-8,3,4,-7,10,13,21,7,-7,-4
0,-7,-7,4,3,-7,10,14,22,8,-7,-4
0,-9,-8,5,4,-9,11,15,23,9,-6,-4
0,-10,-9,5,4,-10,11,15,23,10,-6,-3
0,-9,-9,5,4,-9,10,15,23,10,-6,-4
0,-9,-8,4,3,-9,10,15,24,10,-6,-4
0,-9,-9,5,4,-9,11,16,25,11,-6,-4
0,-10,-10,5,5,-10,11,16,25,12,-6,-4
1,-10,-10,5,5,-11,11,16,25,12,-6,-4
1,-10,-10,5,5,-11,11,16,25,12,-6,-4
1,-10,-10,5,5,-11,12,17,26,13,-6,-3
1,-11,-11,5,5,-12,12,17,26,13,-6,-3
1,-10,-10,4,5,-11,11,16,26,13,-6,-3
1,-8,-9,3,5,-9,11,16,27,13,-6,-3
1,-8,-9,3,5,-9,11,17,27,14,-5,-3
0,-9,-9,4,5,-9,11,17,28,15,-5,-3
0,-8,-9,4,5,-9,11,17,27,15,-5,-3
1,-8,-9,4,5,-9,11,17,27,15,-6,-4
1,-9,-10,4,5,-9,11,17,28,15,-6,-4
1,-9,-10,4,5,-10,11,17,28,16,-5,-4
2,-9,-11,3,6,-10,11,18,29,16,-5,-4
2,-8,-10,2,6,-9,11,18,29,16,-5,-4
2,-7,-9,2,6,-9,11,18,29,16,-5,-3
2,-8,-10,3,6,-10,11,18,30,17,-5,-3
2,-9,-11,4,7,-10,11,18,30,17,-5,-3
2,-8,-11,3,7,-10,10,18,29,17,-5,-3
3,-8,-11,3,7,-10,10,19,30,18,-5,-3
3,-10,-13,4,7,-12,11,20,31,19,-4,-3
2,-10,-13,4,7,-12,11,20,32,21,-4,-2
1,-9,-11,4,6,-11,11,20,33,21,-3,-2
1,-9,-10,4,5,-10,12,20,34,22,-3,-2
1,-9,-10,5,6,-10,12,21,34,22,-3,-1
1,-9,-10,5,6,-10,12,21,34,23,-3,-1
1,-8,-10,4,6,-9,11,21,34,23,-3,-1
2,-7,-10,3,6,-9,11,21,34,24,-3,-1
2,-7,-10,2,6,-9,11,22,35,25,-3,-1
2,-6,-9,2,6,-8,11,23,36,25,-3,-1
2,-4,-7,1,5,-7,10,22,36,25,-3,-2
2,-3,-5,0,4,-5,9,22,36,26,-4,-3
2,-3,-5,0,4,-5,9,22,36,27,-3,-2
3,-3,-6,0,5,-5,9,23,37,28,-3,-2
4,-2,-6,0,5,-4,9,22,37,28,-4,-2
4,-1,-6,-1,5,-3,8,22,38,28,-4,-2
4,-1,-5,-1,4,-2,8,23,38,29,-3,-2
3,-1,-5,-1,4,-3,9,23,39,31,-3,-2
4,0,-5,-1,3,-3,8,24,40,31,-3,-2
5,1,-4,-2,3,-2,8,24,40,32,-3,-3
6,1,-4,-3,4,-2,7,24,41,33,-3,-2
6,1,-4,-3,4,-2,7,25,41,34,-2,-2
6,1,-4,-3,4,-2,7,25,42,35,-2,-1
6,1,-3,-3,5,-1,7,26,43,36,-2,-1
6,2,-4,-4,5,-1,7,26,43,37,-1,-1
7,2,-5,-4,6,-2,7,27,44,39,-1,-1
8,2,-6,-5,7,-2,7,28,45,40,0,-1
8,3,-5,-6,6,-1,7,28,45,41,0,0
8,4,-4,-6,6,0,7,29,46,42,0,0
8,3,-5,-6,7,-1,7,30,48,43,0,0
9,3,-5,-6,7,-1,6,31,49,44,1,1
10,3,-5,-7,8,-1,6,31,49,45,1,1
10,3,-5,-7,8,-1,6,32,50,46,2,2
10,2,-6,-7,8,-1,6,32,51,47,3,2
9,2,-7,-6,8,-2,6,33,52,48,3,3
10,3,-6,-7,8,-1,6,33,53,49,3,3
11,4,-6,-8,8,-1,5,33,53,50,4,3
11,4,-7,-8,9,-1,6,34,54,51,5,4
12,4,-8,-8,10,-2,6,35,55,53,6,5
12,5,-8,-8,10,-1,6,35,56,55,7,6
12,5,-8,-9,10,-1,6,36,57,57,8,6
13,4,-9,-8,11,-2,6,37,58,59,9,7
13,3,-11,-8,12,-4,6,38,59,61,10,8
14,3,-12,-8,13,-5,6,38,60,62,11,9
14,3,-12,-9,13,-5,6,38,60,62,12,9
14,3,-12,-9,13,-5,7,39,61,63,13,10
14,3,-11,-8,13,-4,7,40,62,65,15,12
13,4,-10,-9,12,-3,6,40,62,66,16,13
13,5,-8,-9,11,-1,6,40,62,68,16,13
13,5,-8,-9,11,-1,6,40,62,69,17,14
13,5,-8,-9,11,-1,6,40,63,70,18,15
13,5,-9,-9,11,-2,5,40,63,71,19,16
14,6,-8,-10,11,-1,5,40,62,71,20,17
14,7,-8,-10,11,0,4,39,61,71,21,17
15,8,-8,-11,11,0,4,40,61,71,22,18
16,8,-7,-12,11,0,3,40,60,72,23,19
17,9,-6,-13,11,1,2,39,58,71,23,18
17,10,-6,-13,11,2,1,38,57,71,23,19
17,10,-6,-13,11,2,1,38,57,71,24,20
17,11,-6,-14,11,2,1,37,56,71,25,21
17,12,-5,-15,11,3,0,35,55,70,26,21
18,14,-4,-16,11,5,0,34,53,70,26,22
18,15,-4,-16,11,5,0,34,52,70,27,22
19,15,-4,-17,12,4,0,33,50,70,27,22
19,15,-4,-17,12,5,-1,32,49,69,28,22
19,15,-4,-17,12,5,-2,30,47,68,28,23
19,14,-4,-17,12,5,-2,29,46,68,29,23
19,14,-4,-17,12,5,-2,28,45,67,30,24
19,14,-4,-17,11,5,-2,27,43,66,30,24
19,16,-3,-17,11,6,-3,25,40,65,31,24
19,16,-3,-17,12,6,-3,24,38,64,31,24
19,15,-4,-17,12,5,-3,22,36,62,31,24
19,15,-4,-17,12,5,-4,20,33,60,31,23
19,16,-3,-18,12,6,-5,18,31,58,31,22
19,16,-3,-18,11,6,-6,16,29,56,30,21
19,15,-3,-17,11,6,-6,15,27,55,30,21
19,15,-3,-17,11,5,-6,14,24,53,30,20
19,15,-4,-17,12,5,-6,12,22,51,30,20
19,14,-5,-16,12,4,-6,11,20,49,30,19
19,13,-6,-16,13,3,-6,10,19,47,30,19
19,12,-6,-15,13,2,-6,9,18,45,30,18
18,11,-6,-15,12,2,-6,8,16,43,29,17
17,10,-6,-14,12,2,-5,7,15,41,28,17
16,8,-7,-12,12,1,-4,7,14,39,28,16
15,7,-8,-11,12,0,-4,6,13,38,27,16
15,7,-8,-11,11,0,-4,6,12,35,25,15
14,7,-7,-11,11,0,-3,5,10,33,24,14
14,7,-7,-10,11,0,-2,4,10,30,23,13
13,5,-7,-9,11,-1,-2,4,9,28,23,13
11,4,-7,-7,10,-1,-1,4,9,25,22,12
10,3,-7,-6,9,-2,-1,4,8,24,20,11
9,1,-8,-5,9,-3,0,4,8,23,20,10
9,0,-9,-4,9,-4,0,5,8,21,19,10
9,0,-9,-3,9,-5,1,4,8,19,18,9
8,0,-8,-3,8,-5,1,4,6,16,16,8
7,-2,-8,-2,8,-5,1,3,6,14,15,7
6,-3,-9,-1,8,-6,2,3,6,13,14,7
6,-4,-10,-1,8,-7,2,3,5,11,12,6
6,-4,-9,-1,8,-7,2,2,4,9,11,5
6,-4,-10,0,8,-7,2,2,4,8,10,4
6,-5,-11,0,8,-8,3,3,4,7,9,4
6,-5,-11,0,9,-8,3,2,4,5,8,3
6,-4,-11,0,8,-7,2,1,3,2,7,1
5,-4,-10,0,8,-7,2,0,2,0,5,0
5,-5,-10,1,8,-8,2,0,2,-1,5,0
4,-6,-11,1,8,-9,3,0,2,-1,4,0
5,-5,-10,0,8,-8,3,0,2,-2,4,0
5,-5,-10,0,8,-8,3,0,2,-3,4,0
4,-6,-11,1,8,-9,4,1,2,-3,4,1
3,-7,-11,2,8,-9,4,1,3,-3,4,1
3,-7,-10,2,7,-9,4,1,3,-3,4,1
2,-7,-9,3,6,-8,4,1,2,-4,3,0
2,-8,-10,3,7,-9,5,1,2,-5,3,0
2,-8,-11,3,7,-9,5,2,2,-5,2,1
2,-8,-11,3,7,-9,4,2,2,-6,2,0
2,-8,-10,3,7,-9,4,1,1,-6,1,0
2,-8,-10,3,7,-9,4,1,1,-6,1,0
3,-8,-11,3,7,-9,4,1,2,-6,1,0
3,-7,-10,3,7,-9,4,1,2,-6,1,0
2,-7,-9,3,6,-8,4,1,2,-7,1,0
1,-7,-9,3,6,-8,5,1,2,-7,1,0
1,-8,-9,4,5,-9,5,1,2,-7,1,0
1,-7,-9,3,5,-9,5,1,1,-7,0,0
0,-7,-8,3,5,-8,4,1,1,-8,0,-1
0,-6,-7,4,4,-7,4,1,0,-8,0,-1
-1,-7,-7,4,3,-7,4,1,0,-8,0,-1
-1,-6,-6,4,3,-6,3,0,0,-8,0,-1
0,-5,-5,3,2,-5,3,0,0,-9,0,-2
0,-4,-5,2,2,-4,4,0,0,-9,0,-2
0,-5,-5,3,2,-5,4,1,1,-9,0,-1
0,-5,-4,3,2,-4,4,1,1,-9,0,-1
-1,-4,-3,3,1,-3,4,0,1,-10,-1,-1
-1,-3,-2,3,0,-2,3,0,1,-10,-1,-2
-1,-4,-3,3,0,-3,3,0,1,-9,-1,-2
-1,-5,-4,4,1,-4,3,0,1,-9,-1,-2
-2,-5,-4,4,1,-4,4,1,1,-9,-1,-2
-2,-5,-4,3,1,-4,4,1,1,-9,-2,-3
-1,-5,-4,3,1,-4,4,1,2,-8,-2,-2
-1,-5,-4,3,2,-4,4,2,2,-8,-2,-2
-1,-6,-5,4,2,-5,4,2,2,-8,-2,-2
-1,-6,-5,4,2,-5,4,2,2,-8,-2,-2
-1,-7,-6,5,2,-6,5,2,3,-7,-1,-2
-1,-8,-6,5,2,-7,5,3,3,-7,-1,-1
-1,-7,-6,5,2,-7,5,3,3,-7,-1,-1
-2,-7,-5,5,1,-6,5,3,3,-8,-1,-2
-3,-7,-4,6,0,-6,5,3,4,-7,-1,-2
-4,-8,-4,7,0,-6,6,4,5,-6,-1,-1
-5,-7,-3,7,0,-5,6,4,6,-6,-1,0
-5,-6,-2,6,-1,-4,6,4,5,-6,-1,-1
-5,-7,-3,6,0,-5,6,4,5,-6,0,-1
-4,-8,-4,7,0,-6,6,4,5,-6,0,-1
-4,-8,-5,6,0,-7,5,4,5,-6,-1,-1
-3,-7,-4,5,0,-6,5,4,5,-7,-2,-2
-3,-6,-3,5,0,-5,5,4,5,-7,-2,-2
-2,-6,-3,4,0,-4,5,4,5,-7,-2,-2
-1,-5,-3,3,1,-4,5,4,5,-7,-2,-2
-1,-3,-2,3,0,-2,5,3,5,-7,-2,-2
-2,-2,-1,3,0,-1,5,3,5,-7,-2,-2
-2,-3,-1,3,0,-2,5,3,5,-7,-2,-2
-2,-3,-1,2,0,-2,4,3,5,-8,-3,-2
-2,-1,0,1,-1,0,4,3,4,-8,-3,-3
-2,0,1,1,-2,1,3,3,4,-8,-4,-4
-2,0,2,1,-2,2,3,3,4,-8,-4,-4
-1,0,2,1,-2,2,3,3,4,-8,-4,-4
-1,1,3,0,-2,3,3,2,3,-9,-5,-5
-1,3,4,0,-2,4,2,1,2,-9,-6,-5
-1,4,5,-1,-2,4,2,1,2,-9,-7,-5
-1,4,5,-1,-3,4,2,1,2,-9,-7,-5
-1,5,6,-1,-3,5,2,0,2,-9,-7,-6
-1,6,7,-2,-4,6,2,0,2,-9,-7,-6
-1,6,8,-2,-4,7,2,1,2,-9,-7,-6
-1,6,7,-2,-4,6,2,1,2,-8,-7,-6
-1,6,8,-2,-4,7,1,1,2,-8,-7,-6
-1,8,9,-3,-4,8,0,0,1,-9,-8,-7
0,9,9,-4,-4,9,0,0,1,-9,-8,-7
0,10,9,-5,-4,9,0,0,1,-8,-8,-7
0,10,9,-5,-4,10,0,0,1,-8,-8,-7
0,11,10,-6,-5,11,0,0,0,-9,-9,-8
0,11,11,-6,-5,11,0,0,0,-9,-9,-8
0,10,11,-5,-5,10,0,0,0,-9,-9,-8
0,10,11,-4,-5,10,0,0,0,-9,-9,-8
0,11,11,-5,-5,11,-1,0,0,-9,-9,-8
0,11,11,-5,-5,11,-1,0,0,-8,-9,-7
0,10,10,-5,-4,10,0,0,0,-8,-9,-7
0,10,9,-5,-4,9,-1,0,-1,-7,-9,-8
1,10,9,-5,-3,9,-2,-1,-1,-8,-10,-9
2,11,9,-6,-3,10,-2,-1,-2,-8,-11,-10
3,11,8,-7,-2,10,-2,-2,-2,-8,-11,-10
3,11,8,-7,-2,10,-2,-2,-2,-8,-10,-9
3,12,9,-7,-3,11,-2,-2,-1,-8,-10,-9
3,13,10,-8,-3,12,-2,-2,-1,-8,-9,-8
3,13,10,-8,-3,12,-2,-2,-1,-7,-9,-8
3,13,10,-8,-3,11,-2,-2,-1,-7,-9,-8
3,14,11,-8,-3,12,-2,-2,-2,-8,-10,-8
3,16,12,-9,-4,14,-3,-2,-2,-9,-10,-8
2,16,13,-9,-4,14,-2,-1,-2,-9,-9,-8
2,15,13,-8,-5,14,-2,-1,-2,-9,-9,-7
2,15,13,-8,-5,14,-2,-1,-2,-8,-9,-7
2,15,13,-8,-5,15,-2,-2,-3,-8,-9,-7
2,15,13,-8,-5,14,-2,-2,-3,-8,-9,-7
2,15,12,-8,-4,14,-2,-1,-3,-8,-8,-7
2,15,12,-8,-4,14,-2,-1,-3,-8,-8,-7
2,16,13,-9,-5,14,-3,-2,-3,-8,-8,-7
2,16,14,-9,-5,14,-2,-2,-3,-8,-8,-7
2,15,13,-8,-5,13,-2,-1,-2,-7,-8,-7
2,14,12,-8,-4,13,-2,-2,-3,-7,-8,-7
2,15,12,-9,-4,13,-3,-3,-3,-8,-8,-7
2,15,12,-9,-4,13,-3,-3,-4,-8,-9,-8
2,14,12,-8,-4,13,-3,-3,-4,-8,-9,-8
2,15,12,-8,-4,13,-3,-3,-4,-8,-9,-7
2,16,13,-9,-4,14,-3,-3,-4,-8,-8,-7
2,17,14,-9,-5,15,-3,-3,-4,-8,-8,-7
2,17,14,-9,-5,16,-3,-3,-4,-8,-8,-7
3,17,14,-9,-5,16,-3,-3,-4,-8,-8,-7
3,18,14,-10,-5,16,-3,-4,-4,-9,-8,-7
3,18,14,-11,-5,16,-4,-4,-5,-9,-8,-8
3,18,14,-10,-5,16,-4,-4,-6,-10,-9,-8
3,18,14,-10,-5,16,-4,-4,-6,-10,-9,-8
4,19,14,-11,-5,16,-4,-5,-6,-11,-9,-9
5,20,15,-12,-5,17,-5,-6,-7,-11,-10,-9
4,20,15,-12,-5,17,-5,-6,-7,-11,-9,-9
4,18,14,-11,-5,16,-4,-5,-7,-11,-9,-9
4,18,14,-11,-5,16,-4,-5,-7,-11,-9,-9
4,19,14,-12,-5,17,-5,-6,-8,-12,-10,-9
3,18,14,-11,-5,16,-5,-6,-7,-11,-9,-8
3,17,13,-10,-4,15,-4,-5,-7,-11,-9,-8
3,17,13,-10,-4,15,-4,-5,-7,-11,-9,-8
3,18,14,-10,-4,16,-5,-6,-7,-11,-9,-8
3,18,14,-10,-5,16,-5,-6,-7,-11,-9,-8
3,17,14,-10,-5,16,-4,-6,-7,-11,-9,-8
3,17,14,-10,-5,16,-5,-6,-7,-11,-9,-8
3,18,14,-11,-5,16,-5,-7,-8,-12,-10,-8
3,19,15,-11,-5,17,-5,-7,-9,-12,-10,-9
3,19,16,-11,-6,17,-5,-7,-9,-13,-10,-9
3,20,16,-12,-6,18,-6,-7,-9,-13,-10,-9
4,21,18,-13,-6,19,-6,-8,-9,-14,-10,-10
4,23,19,-13,-7,21,-7,-8,-10,-14,-11,-10
4,23,19,-13,-7,21,-7,-8,-10,-14,-11,-10
4,23,19,-13,-7,20,-7,-8,-10,-14,-11,-10
4,23,19,-14,-7,21,-7,-9,-10,-15,-12,-11
4,24,20,-14,-7,22,-7,-9,-11,-15,-12,-11
4,23,20,-14,-7,22,-7,-9,-11,-15,-12,-10
4,23,20,-13,-7,21,-7,-9,-11,-15,-11,-10
4,23,20,-13,-8,22,-8,-10,-11,-15,-11,-10
4,25,21,-13,-8,23,-8,-10,-11,-16,-12,-11
3,25,22,-14,-9,23,-8,-10,-11,-16,-12,-11
3,25,22,-14,-9,23,-8,-10,-11,-16,-12,-11
3,26,22,-14,-9,24,-8,-10,-12,-16,-12,-11
4,27,22,-15,-9,25,-8,-11,-12,-17,-13,-12
5,27,22,-16,-9,25,-9,-11,-13,-17,-13,-12
5,26,22,-15,-8,24,-9,-11,-13,-17,-13,-11
5,27,23,-15,-9,25,-9,-11,-13,-17,-13,-12
4,29,25,-16,-10,27,-9,-12,-14,-18,-14,-12
3,29,26,-15,-11,27,-9,-12,-14,-18,-14,-12
2,27,25,-14,-11,26,-8,-11,-13,-18,-13,-11
2,27,24,-14,-11,26,-8,-11,-12,-17,-13,-11
3,27,24,-15,-10,26,-8,-11,-12,-17,-13,-11
3,26,23,-14,-10,25,-8,-11,-12,-17,-13,-11
3,25,22,-14,-10,24,-7,-11,-12,-17,-13,-11
3,24,21,-14,-9,23,-7,-10,-12,-16,-12,-11
4,24,21,-14,-8,23,-7,-10,-12,-17,-12,-11
4,25,21,-14,-8,23,-7,-10,-12,-17,-12,-11
4,24,21,-14,-8,22,-7,-10,-11,-17,-12,-10
4,23,20,-14,-8,21,-6,-10,-11,-17,-12,-10
4,23,19,-13,-8,21,-6,-10,-11,-17,-12,-10
4,22,18,-13,-8,20,-6,-10,-11,-17,-12,-9
4,21,17,-12,-7,19,-6,-9,-10,-16,-11,-9
4,19,16,-11,-6,17,-6,-9,-10,-16,-11,-8
4,19,16,-11,-6,17,-6,-9,-10,-16,-11,-8
4,19,17,-11,-6,18,-6,-9,-10,-16,-11,-9
4,19,17,-11,-6,18,-6,-9,-10,-15,-11,-9
4,19,16,-11,-6,17,-6,-9,-10,-15,-11,-9
4,20,16,-11,-6,18,-6,-9,-10,-16,-11,-9
4,21,17,-11,-6,18,-7,-10,-11,-17,-12,-10
4,21,17,-12,-7,19,-7,-11,-11,-18,-12,-10
4,21,17,-12,-7,19,-7,-11,-11,-17,-12,-10
4,21,17,-13,-6,19,-8,-11,-12,-17,-12,-11
5,23,18,-14,-7,21,-8,-11,-12,-18,-13,-11
5,24,20,-15,-7,22,-9,-12,-13,-18,-14,-12
4,25,20,-15,-8,23,-9,-12,-13,-18,-14,-12
4,25,20,-15,-8,23,-9,-12,-13,-18,-14,-12
4,26,21,-15,-8,24,-9,-13,-13,-19,-14,-12
5,26,21,-16,-8,24,-10,-13,-14,-20,-14,-12
5,27,21,-16,-8,24,-10,-13,-14,-20,-14,-12
6,28,22,-17,-8,25,-10,-13,-14,-20,-14,-12
6,30,24,-18,-8,26,-10,-14,-14,-20,-15,-13
6,31,25,-18,-9,27,-11,-14,-14,-20,-15,-13
5,31,26,-17,-10,27,-10,-14,-14,-20,-15,-12
5,31,26,-17,-10,27,-10,-14,-13,-19,-14,-12
5,31,27,-18,-10,28,-10,-14,-14,-19,-14,-12
5,32,28,-18,-11,30,-10,-14,-14,-19,-15,-12
4,31,28,-17,-12,29,-10,-14,-14,-20,-15,-13
4,30,27,-16,-12,28,-10,-14,-14,-20,-15,-13
4,29,26,-16,-12,27,-10,-14,-14,-20,-16,-13
4,30,27,-16,-12,28,-10,-15,-14,-20,-16,-13
4,31,27,-17,-11,28,-10,-15,-14,-20,-15,-12
4,30,26,-16,-11,28,-9,-14,-13,-20,-14,-12
4,30,26,-16,-11,28,-9,-14,-14,-20,-14,-12
4,30,26,-16,-11,28,-10,-15,-14,-20,-15,-12
4,29,25,-16,-11,27,-10,-14,-14,-20,-15,-12
4,27,24,-15,-11,26,-10,-14,-14,-19,-15,-11
4,27,24,-14,-11,25,-10,-14,-14,-19,-15,-12
4,28,25,-15,-11,26,-10,-14,-14,-20,-16,-12
4,29,25,-16,-10,27,-10,-14,-14,-19,-16,-13
4,28,24,-16,-10,26,-10,-14,-14,-19,-15,-12
4,27,23,-15,-9,25,-9,-13,-14,-19,-14,-12
4,27,23,-15,-10,25,-9,-13,-14,-19,-14,-12
4,27,24,-15,-10,25,-9,-13,-14,-19,-14,-12
4,27,23,-14,-10,25,-9,-13,-14,-19,-14,-11
4,27,23,-14,-10,25,-9,-13,-14,-20,-14,-11
4,28,24,-15,-10,25,-10,-14,-14,-20,-15,-12
4,28,25,-15,-10,26,-10,-14,-14,-20,-15,-12
4,28,24,-15,-10,26,-10,-14,-14,-20,-15,-12
4,28,24,-16,-10,26,-10,-14,-14,-20,-14,-12
4,29,25,-16,-10,26,-10,-15,-14,-20,-14,-12
4,29,25,-16,-10,27,-10,-15,-14,-20,-14,-12
4,28,25,-16,-11,27,-10,-14,-14,-20,-14,-12
4,28,25,-16,-11,26,-10,-14,-14,-20,-14,-12
4,29,26,-16,-11,27,-10,-14,-14,-20,-15,-12
4,30,27,-16,-12,28,-11,-15,-15,-21,-15,-13
3,30,27,-16,-12,28,-11,-15,-15,-21,-15,-13
4,30,26,-16,-11,28,-11,-15,-15,-21,-15,-13
4,29,26,-16,-11,28,-11,-15,-15,-21,-16,-13
4,29,27,-16,-11,28,-11,-15,-15,-22,-16,-13
4,29,26,-16,-11,27,-10,-15,-15,-22,-15,-13
4,28,25,-15,-11,26,-9,-14,-14,-21,-15,-12
3,28,25,-15,-11,26,-9,-15,-14,-21,-14,-12
3,29,26,-15,-11,27,-10,-15,-14,-21,-15,-12
3,29,26,-16,-11,28,-10,-15,-14,-21,-15,-12
3,29,26,-16,-11,28,-9,-15,-14,-20,-14,-12
3,28,26,-16,-11,28,-9,-14,-14,-20,-14,-12
3,28,26,-16,-12,28,-10,-14,-14,-20,-15,-12
3,28,26,-16,-12,27,-10,-14,-13,-20,-15,-12
3,27,25,-15,-11,26,-9,-14,-13,-19,-14,-12
3,26,25,-14,-11,26,-8,-14,-12,-19,-14,-11
3,27,25,-15,-11,26,-9,-14,-13,-19,-14,-11
3,28,25,-15,-11,26,-9,-14,-13,-19,-14,-12
3,28,24,-15,-11,26,-9,-14,-13,-19,-14,-12
3,27,24,-15,-11,26,-9,-13,-13,-19,-14,-12
2,27,25,-14,-12,26,-9,-13,-13,-19,-14,-12
2,27,25,-14,-12,26,-9,-13,-13,-19,-14,-12
3,26,24,-14,-12,26,-9,-13,-13,-19,-14,-12
3,26,24,-14,-11,25,-9,-14,-13,-19,-14,-12
3,28,25,-15,-11,27,-9,-15,-14,-20,-15,-13
3,30,27,-16,-12,28,-10,-16,-15,-21,-16,-13
3,31,27,-16,-12,29,-10,-16,-15,-21,-16,-13
3,31,28,-17,-12,29,-10,-16,-15,-21,-16,-13
3,32,29,-17,-13,30,-11,-16,-15,-21,-16,-14
3,33,31,-18,-14,32,-12,-17,-16,-22,-17,-15
3,34,32,-18,-14,33,-12,-17,-16,-23,-18,-15
3,35,33,-18,-15,34,-13,-18,-17,-23,-18,-15
2,37,35,-19,-16,36,-13,-18,-17,-23,-18,-16
2,39,38,-20,-18,38,-14,-19,-18,-24,-19,-16
1,40,39,-20,-19,39,-14,-19,-18,-24,-19,-16
1,40,40,-19,-19,40,-13,-18,-17,-23,-19,-16
1,41,40,-20,-20,41,-14,-18,-17,-24,-19,-16
2,43,41,-21,-20,42,-14,-18,-18,-25,-19,-17
2,44,41,-23,-20,42,-15,-18,-18,-25,-19,-17
2,43,41,-23,-20,42,-15,-18,-17,-25,-19,-16
2,43,41,-23,-20,42,-15,-18,-18,-25,-19,-16
2,44,42,-23,-20,43,-15,-19,-18,-25,-19,-17
2,44,42,-23,-20,43,-15,-19,-18,-25,-20,-17
3,44,42,-23,-19,43,-15,-19,-18,-25,-20,-17
2,44,42,-22,-20,43,-15,-18,-18,-25,-19,-17
0,44,43,-22,-21,43,-15,-18,-18,-26,-19,-17
0,44,44,-22,-22,44,-15,-18,-18,-26,-20,-18
0,45,44,-22,-22,44,-15,-18,-18,-26,-20,-17
0,45,44,-22,-22,44,-15,-18,-18,-26,-20,-17
0,45,45,-22,-22,45,-15,-18,-18,-26,-20,-17
0,46,46,-23,-23,46,-15,-18,-18,-26,-20,-17
0,46,46,-23,-23,46,-14,-18,-18,-25,-19,-17
0,45,45,-22,-22,45,-14,-17,-17,-24,-19,-16
0,44,44,-22,-22,44,-14,-17,-17,-24,-19,-16
0,43,43,-22,-22,43,-14,-17,-17,-24,-19,-16
0,42,42,-21,-22,42,-13,-17,-16,-24,-19,-16
0,41,41,-21,-21,41,-13,-17,-16,-23,-19,-15
0,41,41,-21,-20,41,-13,-17,-16,-24,-19,-15
0,42,41,-21,-20,42,-13,-17,-17,-24,-19,-16
0,42,42,-20,-21,42,-13,-16,-17,-24,-19,-16
0,41,41,-20,-21,41,-13,-16,-17,-23,-19,-16
0,41,41,-20,-21,41,-13,-16,-17,-23,-19,-16
0,42,42,-20,-21,42,-13,-16,-17,-23,-19,-16
0,42,42,-20,-22,42,-13,-16,-16,-22,-18,-16
0,41,42,-20,-22,41,-13,-16,-16,-22,-18,-15
0,41,42,-20,-22,41,-13,-16,-16,-23,-17,-15
-1,42,43,-20,-22,42,-13,-16,-16,-23,-18,-15
-1,42,44,-20,-23,43,-13,-16,-16,-24,-18,-15
-2,42,45,-20,-23,43,-13,-16,-16,-23,-18,-15
-3,42,45,-19,-24,43,-13,-16,-15,-23,-18,-15
-4,42,46,-19,-25,44,-13,-15,-15,-23,-18,-15
-4,43,46,-20,-25,45,-13,-15,-15,-23,-18,-15
-4,43,46,-20,-25,45,-12,-15,-15,-22,-18,-15
-4,42,46,-19,-25,44,-12,-15,-15,-22,-17,-14
-4,43,47,-19,-26,45,-12,-15,-15,-22,-17,-14
-4,44,48,-20,-26,46,-12,-15,-15,-23,-17,-14
-4,44,48,-19,-26,46,-12,-15,-15,-23,-17,-14
-4,43,47,-19,-25,45,-12,-15,-15,-23,-17,-14
-3,43,47,-19,-25,45,-13,-15,-15,-23,-18,-15
-3,43,47,-20,-25,45,-13,-16,-15,-23,-18,-15
-4,42,45,-19,-25,44,-12,-15,-15,-22,-17,-14
-4,39,43,-17,-24,42,-12,-15,-14,-21,-17,-14
-4,39,42,-17,-24,41,-12,-14,-14,-21,-17,-14
-3,39,43,-17,-23,41,-12,-14,-15,-22,-17,-14
-3,40,43,-18,-23,41,-12,-14,-15,-22,-17,-14
-3,39,42,-18,-22,40,-11,-13,-14,-21,-17,-14
-3,38,41,-17,-22,39,-11,-13,-14,-21,-16,-13
-3,38,41,-17,-23,39,-11,-13,-13,-21,-16,-13
-3,37,41,-17,-23,39,-10,-13,-13,-21,-15,-13
-3,36,40,-16,-22,38,-10,-13,-13,-21,-15,-12
-3,35,39,-16,-22,37,-10,-13,-13,-21,-15,-13
-3,35,39,-15,-22,38,-10,-13,-13,-21,-15,-13
-4,36,40,-15,-23,38,-10,-13,-13,-20,-15,-12
-4,36,40,-15,-23,38,-9,-12,-12,-19,-14,-12
-3,36,39,-15,-22,37,-9,-12,-12,-20,-14,-12
-3,36,40,-16,-22,38,-10,-13,-12,-21,-15,-12
-3,36,40,-16,-22,38,-10,-13,-13,-21,-15,-13
-3,34,39,-15,-22,37,-9,-12,-13,-21,-15,-12
-4,32,38,-14,-22,36,-9,-12,-12,-20,-14,-12
-4,33,38,-14,-22,36,-9,-12,-12,-20,-15,-12
-4,33,38,-14,-22,36,-9,-12,-12,-20,-15,-12
-4,33,37,-14,-21,35,-9,-12,-12,-19,-15,-12
-3,33,36,-14,-21,35,-9,-12,-11,-19,-14,-11
-3,33,37,-14,-21,35,-9,-12,-11,-19,-15,-12
-3,34,38,-14,-21,36,-10,-12,-12,-19,-15,-12
-3,34,38,-14,-21,36,-10,-12,-12,-20,-15,-12
-3,33,37,-14,-21,36,-9,-12,-12,-20,-15,-12
-4,33,37,-14,-21,35,-9,-12,-13,-20,-15,-12
-4,33,37,-14,-21,35,-9,-12,-13,-19,-15,-12
-3,33,36,-14,-20,35,-9,-12,-12,-19,-15,-12
-3,33,35,-14,-20,34,-8,-12,-12,-18,-15,-12
-3,33,35,-14,-20,35,-8,-12,-12,-18,-15,-12
-3,33,36,-14,-20,35,-9,-12,-12,-19,-15,-12
-4,33,37,-14,-21,35,-9,-12,-12,-20,-14,-12
-5,32,37,-13,-21,35,-8,-11,-11,-19,-14,-11
-5,32,37,-13,-22,35,-8,-11,-10,-19,-13,-10
-5,33,38,-13,-22,36,-8,-11,-11,-19,-14,-10
-6,33,39,-13,-23,37,-8,-11,-11,-18,-14,-10
-7,33,39,-13,-24,36,-8,-10,-11,-18,-13,-10
-7,33,40,-13,-24,36,-8,-10,-11,-17,-13,-10
-7,34,41,-13,-25,37,-8,-11,-11,-18,-13,-10
-7,34,41,-13,-25,38,-8,-11,-11,-18,-14,-11
-6,34,40,-13,-24,38,-8,-11,-11,-17,-13,-11
-6,33,40,-13,-24,37,-8,-11,-11,-17,-13,-11
-6,33,40,-13,-24,37,-8,-12,-11,-18,-14,-11
-6,34,41,-13,-24,38,-8,-12,-11,-18,-14,-11
-6,34,41,-13,-24,37,-8,-12,-11,-17,-14,-11
-7,33,40,-13,-24,36,-8,-11,-11,-17,-14,-11
-7,33,40,-12,-24,36,-8,-11,-11,-18,-14,-11
-7,33,40,-12,-24,37,-8,-11,-11,-18,-14,-11
-7,33,40,-12,-24,37,-8,-11,-11,-18,-14,-11
-7,32,39,-12,-23,36,-8,-10,-11,-17,-13,-10
-7,32,39,-12,-23,36,-8,-11,-11,-18,-13,-10
-7,32,39,-12,-24,36,-8,-11,-11,-18,-14,-11
-7,32,39,-12,-23,36,-8,-12,-11,-18,-14,-11
-6,31,38,-12,-23,35,-8,-12,-11,-18,-14,-11
-6,31,37,-12,-22,35,-8,-12,-11,-18,-14,-11
-6,31,37,-13,-22,35,-8,-12,-11,-19,-14,-11
-6,31,37,-13,-22,35,-8,-12,-11,-19,-14,-11
-6,31,37,-12,-22,34,-7,-12,-10,-18,-13,-11
-6,30,37,-12,-22,34,-7,-11,-10,-18,-13,-11
-6,31,37,-12,-22,34,-8,-12,-11,-19,-14,-11
-6,31,37,-12,-22,34,-8,-12,-11,-19,-14,-11
-6,30,36,-12,-22,34,-8,-11,-10,-18,-13,-10
-6,30,36,-12,-22,33,-7,-11,-10,-18,-13,-10
-6,30,36,-12,-22,33,-7,-11,-10,-18,-13,-10
-6,30,36,-12,-22,33,-7,-11,-10,-18,-13,-11
-6,29,36,-11,-22,32,-7,-10,-10,-17,-13,-10
-6,28,35,-11,-22,32,-7,-10,-9,-16,-12,-10
-6,29,35,-11,-22,32,-7,-10,-9,-16,-12,-10
-6,29,36,-11,-22,33,-7,-10,-9,-16,-12,-10
-6,29,36,-11,-22,33,-7,-10,-8,-16,-12,-9
-6,29,35,-11,-21,32,-6,-9,-7,-15,-11,-8
-5,28,34,-11,-20,32,-6,-8,-6,-14,-10,-8
-5,28,33,-11,-20,31,-6,-8,-6,-13,-10,-7
-5,27,33,-10,-20,30,-6,-8,-5,-12,-9,-7
-6,26,32,-10,-20,30,-5,-8,-5,-12,-9,-6
-6,26,32,-10,-20,30,-5,-8,-4,-11,-9,-6
-6,27,33,-11,-20,31,-5,-8,-4,-11,-9,-6
-6,28,33,-11,-20,31,-5,-7,-3,-10,-8,-5
-6,28,33,-11,-19,30,-5,-7,-3,-9,-8,-5
-6,28,33,-11,-20,30,-5,-7,-2,-9,-8,-5
-6,28,33,-11,-20,31,-5,-7,-2,-9,-8,-5
-6,28,34,-11,-21,31,-5,-7,-2,-10,-8,-5
-6,28,33,-11,-20,31,-5,-6,-1,-9,-7,-5
-6,27,32,-10,-20,30,-4,-5,0,-9,-7,-4
-6,27,33,-10,-20,31,-4,-5,0,-9,-7,-4
-6,28,34,-10,-21,31,-4,-5,0,-9,-7,-4
-6,27,33,-10,-20,31,-4,-5,0,-8,-6,-4
-6,26,31,-10,-19,30,-4,-5,0,-8,-6,-4
-5,26,31,-10,-19,29,-4,-6,0,-8,-6,-4
-5,27,31,-10,-19,29,-5,-7,0,-8,-6,-4
-5,26,30,-10,-19,28,-5,-7,0,-7,-5,-3
-5,25,29,-9,-18,27,-5,-8,-1,-7,-5,-2
-5,25,29,-9,-18,27,-5,-9,-2,-7,-5,-2
-5,25,29,-9,-18,28,-6,-9,-3,-7,-4,-1
-5,24,29,-9,-17,27,-6,-9,-3,-6,-3,-1
-5,24,28,-9,-17,26,-7,-10,-4,-6,-3,0
-4,24,27,-10,-16,26,-8,-10,-5,-7,-3,0
-3,25,27,-10,-16,26,-9,-11,-6,-8,-4,-1
-3,25,27,-10,-16,26,-8,-10,-6,-8,-4,-1
-3,24,26,-10,-16,25,-8,-10,-6,-8,-3,-1
-3,24,26,-10,-16,25,-8,-9,-6,-8,-3,-1
-3,25,27,-11,-16,26,-8,-9,-6,-8,-4,-1
-2,25,28,-12,-15,27,-7,-9,-6,-8,-3,-1
-2,25,27,-11,-15,26,-7,-8,-5,-7,-3,0
-2,24,26,-11,-15,26,-7,-8,-5,-8,-3,0
-2,25,26,-11,-15,26,-7,-8,-5,-8,-4,0
-2,25,26,-11,-15,26,-7,-8,-5,-8,-4,0
-2,25,26,-11,-15,26,-7,-7,-5,-8,-4,0
-2,25,26,-11,-15,26,-6,-7,-6,-8,-4,0
-3,25,27,-11,-15,26,-6,-7,-6,-9,-4,-1
-3,25,27,-10,-16,26,-6,-7,-6,-9,-3,-1
-4,24,27,-9,-16,26,-6,-7,-6,-9,-3,0
-4,23,27,-9,-16,25,-5,-7,-6,-9,-3,0
-5,23,27,-8,-16,25,-5,-7,-6,-9,-3,-1
-5,22,27,-8,-17,25,-5,-7,-6,-10,-4,-1
-5,21,27,-7,-17,24,-4,-6,-5,-9,-4,-1
-6,20,26,-6,-17,23,-3,-6,-5,-9,-4,-1
-6,20,26,-6,-17,23,-3,-6,-5,-10,-5,-2
-6,21,27,-7,-17,24,-3,-7,-6,-10,-6,-2
-6,20,26,-7,-17,23,-2,-6,-6,-10,-7,-3
-6,19,26,-6,-17,22,-2,-6,-7,-11,-7,-3
-7,19,26,-5,-17,22,-3,-7,-7,-12,-8,-5
-7,19,26,-5,-18,23,-3,-7,-7,-12,-9,-5
-8,18,26,-4,-18,22,-2,-7,-7,-12,-9,-5
-9,17,26,-4,-18,22,-2,-6,-6,-12,-9,-5
-9,18,26,-4,-18,22,-2,-7,-7,-12,-9,-5
-9,18,27,-4,-18,23,-2,-7,-7,-12,-10,-6
-10,18,27,-4,-19,23,-2,-7,-8,-12,-10,-6
-11,17,27,-3,-19,23,-2,-7,-8,-12,-10,-6
-11,17,28,-3,-20,23,-2,-7,-8,-13,-10,-6
-10,18,28,-4,-20,24,-2,-7,-8,-14,-10,-7
-9,19,28,-5,-20,24,-2,-6,-8,-14,-10,-7
-9,19,28,-5,-19,24,-2,-6,-8,-14,-10,-7
-8,19,27,-5,-19,23,-2,-6,-8,-14,-10,-7
-8,20,28,-5,-19,24,-2,-6,-8,-14,-11,-7
-8,21,29,-5,-19,25,-2,-6,-8,-14,-11,-8
-9,20,29,-5,-19,25,-2,-6,-8,-14,-11,-8
-9,20,28,-5,-19,25,-2,-6,-7,-13,-11,-7
-8,20,28,-5,-19,25,-2,-6,-7,-14,-11,-8
-8,20,27,-5,-19,24,-2,-7,-7,-14,-12,-8
-8,19,27,-5,-18,23,-2,-6,-7,-14,-11,-8
-8,19,26,-5,-18,23,-2,-6,-7,-13,-11,-8
-8,20,27,-6,-18,23,-2,-7,-7,-14,-11,-8
-8,20,28,-6,-18,24,-3,-7,-8,-14,-12,-8
-8,20,27,-6,-18,24,-3,-6,-8,-14,-11,-8
-8,19,27,-5,-18,24,-3,-6,-8,-15,-11,-8
-8,20,27,-6,-18,24,-3,-6,-8,-15,-11,-8
-8,21,28,-6,-19,25,-3,-6,-8,-15,-12,-8
-8,19,26,-5,-18,23,-2,-6,-7,-15,-11,-8
-7,17,24,-4,-16,21,-1,-4,-6,-14,-11,-8
-7,16,23,-4,-16,20,0,-2,-3,-13,-13,-10
-7,15,23,-4,-16,20,1,1,1,-11,-16,-12
-8,14,22,-3,-16,19,2,6,7,-7,-19,-14
-9,13,22,-2,-15,18,4,10,15,0,-20,-16
-9,13,22,-2,-15,18,5,13,23,8,-20,-17
-8,14,22,-3,-15,18,5,15,27,16,-18,-17
-7,15,22,-4,-15,19,4,16,30,26,-13,-15
-5,17,22,-6,-14,19,3,17,29,37,-3,-11
-1,20,21,-10,-12,21,0,17,21,48,11,-5
4,26,21,-15,-9,23,-4,15,4,61,31,2
12,32,20,-22,-5,26,-11,10,-19,75,57,13
21,40,18,-31,1,30,-19,4,-48,93,91,28
32,50,17,-41,7,34,-31,-6,-83,110,131,46
43,61,18,-52,12,40,-44,-20,-122,122,173,65
53,74,20,-64,16,47,-58,-37,-162,129,215,85
62,86,24,-74,18,56,-72,-57,-199,128,253,106
68,99,30,-84,18,65,-84,-79,-230,116,280,124
72,110,38,-91,16,75,-95,-101,-257,87,289,136
72,118,45,-96,13,83,-103,-122,-279,47,281,143
70,120,49,-95,10,85,-107,-137,-292,5,260,144
66,114,48,-90,9,82,-107,-144,-298,-37,229,137
60,104,44,-82,7,75,-103,-146,-297,-80,190,125
52,94,42,-74,5,69,-98,-143,-289,-118,154,112
43,84,40,-63,1,63,-89,-137,-273,-142,122,99
33,72,39,-52,-3,56,-78,-127,-251,-151,91,82
24,62,37,-43,-7,50,-67,-115,-227,-150,60,64
16,53,36,-35,-10,45,-58,-103,-203,-143,32,46
10,44,33,-28,-11,40,-49,-90,-180,-134,10,31
6,37,30,-22,-12,34,-42,-78,-157,-122,-4,20
4,32,28,-18,-13,30,-36,-66,-136,-110,-13,12
2,30,28,-16,-14,29,-30,-56,-117,-97,-19,6
0,29,29,-14,-15,29,-25,-46,-98,-84,-22,1
-2,27,29,-13,-16,28,-20,-37,-81,-72,-23,-2
-4,26,29,-11,-16,28,-16,-29,-66,-61,-24,-5
-5,25,29,-11,-17,28,-13,-23,-53,-52,-24,-7
-5,25,30,-11,-17,28,-11,-18,-42,-43,-22,-9
-6,25,30,-10,-18,28,-9,-14,-33,-36,-20,-9
-6,25,31,-10,-18,28,-7,-11,-25,-29,-18,-9
-6,25,31,-9,-19,28,-6,-9,-19,-25,-17,-9
-7,24,31,-8,-19,28,-5,-7,-15,-22,-17,-9
-8,22,30,-7,-19,26,-3,-6,-12,-20,-17,-9
-8,22,29,-7,-19,25,-2,-5,-10,-19,-18,-10
-8,23,30,-7,-19,26,-2,-5,-8,-18,-19,-10
-8,24,31,-8,-19,28,-2,-4,-6,-18,-19,-11
-8,24,31,-8,-19,28,-2,-3,-5,-17,-19,-11
-8,24,32,-7,-20,28,-2,-3,-3,-16,-19,-12
-8,24,33,-8,-20,28,-2,-3,-2,-16,-20,-12
-8,25,34,-8,-21,29,-2,-2,-1,-15,-20,-13
-8,25,33,-8,-21,29,-1,-1,0,-14,-20,-13
-9,24,33,-8,-21,29,0,-1,0,-13,-20,-12
-10,24,34,-8,-22,29,0,0,1,-13,-20,-12
-10,25,35,-8,-22,30,0,0,1,-12,-20,-13
-10,25,35,-8,-23,31,0,0,2,-11,-20,-13
-10,25,36,-8,-23,31,0,0,3,-10,-20,-13
-10,25,36,-8,-23,31,0,1,3,-10,-19,-13
-10,25,35,-8,-23,31,0,1,4,-10,-19,-13
-10,24,34,-7,-23,30,0,1,4,-10,-19,-13
-11,23,33,-6,-23,29,0,1,5,-9,-19,-13
-12,22,33,-5,-23,28,0,1,5,-9,-19,-13
-12,23,34,-6,-23,29,0,1,5,-9,-19,-13
-11,24,35,-6,-23,30,0,1,5,-9,-19,-13
-11,25,34,-7,-22,30,0,2,6,-9,-19,-13
-10,25,34,-7,-22,30,0,2,6,-8,-19,-13
-10,26,35,-8,-23,31,0,1,5,-8,-19,-13
-10,27,36,-8,-24,32,0,1,5,-8,-20,-14
-10,27,35,-8,-23,32,0,1,5,-8,-20,-13
-10,26,35,-8,-23,31,0,1,5,-8,-19,-13
-9,26,35,-8,-22,31,0,1,5,-8,-19,-14
-9,26,35,-8,-22,31,0,1,5,-7,-19,-14
-9,25,35,-8,-22,31,0,1,6,-7,-19,-14
-9,25,35,-8,-22,31,0,1,6,-6,-19,-14
-9,26,36,-8,-23,31,0,1,7,-6,-19,-14
-9,27,37,-9,-23,32,0,1,7,-5,-19,-14
-10,28,37,-9,-24,33,0,1,7,-5,-19,-13
-10,27,37,-8,-24,32,0,2,8,-5,-18,-13
-10,28,38,-8,-24,33,0,1,8,-5,-18,-13
-10,29,38,-9,-24,34,-1,1,7,-6,-19,-14
-9,29,38,-9,-24,34,-1,1,7,-7,-19,-14
-9,28,37,-9,-23,33,0,1,8,-7,-19,-14
-9,27,36,-9,-22,32,0,2,8,-6,-19,-14
-9,27,36,-9,-22,32,0,2,8,-6,-19,-14
-9,26,35,-9,-22,31,0,2,8,-5,-19,-13
-9,25,33,-8,-21,29,1,2,9,-4,-18,-12
-8,24,32,-7,-21,28,1,3,10,-3,-17,-12
-8,24,32,-7,-20,28,1,3,11,-3,-17,-11
-8,23,32,-7,-20,28,2,4,11,-2,-17,-10
-8,22,31,-7,-20,27,2,5,12,-2,-16,-10
-8,22,30,-6,-19,26,3,6,12,-1,-16,-10
-8,22,30,-6,-19,26,2,6,12,-2,-16,-10
-8,22,30,-6,-19,26,2,6,12,-2,-16,-10
-8,21,29,-6,-19,25,2,6,12,-2,-16,-10
-8,20,28,-5,-18,24,2,6,12,-2,-16,-10
-8,20,28,-6,-18,24,2,5,12,-2,-16,-11
-7,20,28,-6,-18,24,2,5,12,-2,-17,-11
-7,20,27,-6,-17,24,2,5,13,-2,-17,-11
-7,20,27,-6,-17,24,2,6,13,-1,-16,-11
-7,20,27,-7,-17,24,2,6,13,-1,-16,-11
-6,21,27,-8,-17,24,2,6,13,-1,-16,-11
-6,20,26,-7,-17,24,2,6,14,0,-16,-11
-6,20,26,-7,-17,23,2,6,14,0,-16,-11
-5,20,26,-7,-17,23,2,6,14,0,-16,-11
-5,21,26,-7,-17,24,2,6,15,0,-16,-11
-6,20,26,-7,-17,24,2,7,16,0,-16,-10
-6,19,26,-6,-16,23,3,8,16,1,-16,-10
-6,19,25,-6,-16,23,3,8,16,1,-16,-10
-5,19,25,-7,-15,22,2,8,16,1,-16,-11
-5,19,24,-8,-14,22,2,8,16,1,-17,-12
-5,19,23,-7,-14,21,2,8,16,1,-17,-12
-5,19,24,-7,-15,22,2,8,16,1,-17,-11
-5,20,25,-7,-16,23,2,8,16,1,-17,-11
-6,21,26,-7,-17,24,2,8,17,2,-17,-10
-6,20,26,-7,-17,24,2,8,17,2,-16,-10
-6,20,26,-7,-17,24,3,8,18,3,-16,-10
-6,21,27,-7,-17,24,3,8,18,3,-16,-11
-6,21,27,-7,-17,24,3,9,19,3,-16,-10
-6,20,26,-7,-17,24,3,9,19,4,-16,-10
-6,20,26,-6,-17,23,3,9,20,5,-16,-10
-6,21,27,-7,-17,24,2,9,19,5,-17,-11
-6,22,28,-7,-17,25,2,9,19,5,-18,-12
-6,22,28,-7,-17,25,2,10,20,5,-17,-11
-6,22,28,-7,-17,25,3,10,21,6,-16,-11
-6,22,28,-8,-17,25,2,10,21,5,-16,-11
-6,23,29,-8,-18,26,2,10,21,5,-16,-12
-7,23,30,-8,-18,26,2,10,22,5,-16,-11
-7,22,29,-7,-18,26,3,11,22,6,-16,-11
-7,23,29,-8,-18,26,2,11,22,7,-16,-11
-7,23,29,-8,-18,27,2,11,22,7,-16,-11
-7,22,27,-7,-17,25,2,11,23,8,-16,-10
-6,20,25,-7,-16,23,3,12,24,10,-16,-10
-6,19,24,-7,-15,22,3,12,25,10,-15,-10
-6,19,24,-7,-16,22,3,13,26,11,-15,-10
-6,17,23,-6,-15,20,4,14,27,12,-14,-9
-6,15,22,-5,-15,19,4,15,27,12,-13,-8
-6,15,21,-4,-14,18,4,16,28,13,-13,-8
-5,15,20,-4,-14,18,4,16,28,14,-13,-8
-5,14,19,-4,-13,18,5,16,29,15,-13,-7
-5,13,18,-4,-12,16,5,17,30,16,-12,-7
-6,12,17,-3,-12,15,5,17,31,16,-11,-6
-6,11,18,-3,-12,15,5,17,32,17,-11,-6
-7,11,18,-2,-13,15,6,18,33,18,-10,-5
-6,11,17,-2,-12,14,6,20,34,20,-9,-4
-6,10,17,-2,-12,14,7,21,35,22,-9,-4
-6,10,17,-2,-12,14,7,21,35,23,-9,-4
-7,10,17,-2,-12,14,7,22,36,23,-9,-3
-7,9,16,-1,-11,14,7,23,37,24,-8,-3
-7,9,15,-1,-11,13,7,23,38,25,-8,-2
-6,9,14,-1,-10,12,7,24,39,26,-8,-2
-5,9,14,-2,-10,12,7,24,40,27,-8,-2
-5,8,13,-2,-10,12,8,24,41,28,-7,-2
-5,7,13,-1,-10,11,8,25,42,30,-7,-2
-5,7,13,-1,-10,11,8,25,42,31,-7,-1
-5,8,14,-1,-10,12,8,26,43,32,-6,-1
-5,9,14,-2,-9,12,8,26,44,32,-5,0
-5,9,13,-2,-9,11,8,27,45,33,-5,0
-5,9,13,-2,-9,11,7,28,45,34,-5,0
-5,10,14,-3,-10,12,7,28,46,35,-5,0
-4,10,14,-3,-10,12,7,28,47,37,-4,0
-4,10,14,-3,-9,12,8,30,49,39,-3,1
-4,11,14,-3,-9,13,8,30,49,40,-3,1
-3,13,15,-5,-9,14,7,30,49,41,-3,1
-3,14,16,-5,-9,15,7,30,50,41,-3,1
-3,13,15,-5,-9,15,7,31,51,42,-3,1
-3,13,15,-5,-9,15,7,32,52,43,-2,1
-2,14,16,-5,-9,15,6,32,52,44,-2,1
-2,15,16,-6,-9,16,6,32,53,45,-2,2
-1,15,16,-6,-9,16,6,33,54,47,-1,3
0,16,16,-7,-8,17,6,34,54,49,0,3
0,18,17,-9,-8,18,5,34,54,50,0,3
2,20,17,-11,-7,19,4,34,54,50,0,3
3,21,17,-12,-7,20,4,34,55,51,0,3
3,22,18,-12,-7,21,3,33,55,52,0,3
3,23,19,-13,-8,22,3,33,56,52,0,3
3,23,20,-13,-9,23,3,34,56,53,1,4
2,23,21,-12,-9,23,3,35,57,55,3,6
3,23,21,-12,-9,22,3,36,57,57,4,7
3,23,21,-13,-9,23,3,37,58,58,5,7
3,24,21,-13,-9,24,3,37,58,60,5,8
2,24,21,-13,-9,23,3,38,59,61,6,9
3,24,20,-13,-8,22,3,39,60,62,7,10
4,24,20,-14,-8,23,3,39,60,62,8,10
5,26,21,-15,-8,24,2,38,59,62,9,11
5,26,21,-16,-8,24,2,38,59,63,9,11
5,27,22,-16,-8,25,1,38,59,64,11,12
6,28,23,-17,-8,26,1,38,59,65,12,13
6,31,24,-18,-8,28,0,37,58,65,12,13
7,32,25,-19,-9,29,0,37,57,65,13,13
7,32,24,-19,-8,29,0,37,57,66,14,14
8,32,23,-20,-8,28,-1,36,57,66,14,15
9,32,23,-20,-7,28,-2,35,56,66,15,16
9,32,23,-21,-7,28,-2,35,54,67,15,16
9,32,22,-21,-6,28,-2,34,54,67,17,17
9,32,22,-21,-6,28,-3,33,53,67,18,18
9,33,23,-21,-7,28,-3,32,52,66,18,18
9,33,23,-21,-7,29,-3,32,50,66,19,18
9,32,23,-21,-7,28,-3,31,49,66,20,19
9,32,22,-20,-6,27,-4,30,48,66,21,20
10,31,22,-20,-6,27,-4,29,46,65,21,21
11,31,21,-20,-5,26,-5,27,44,65,22,21
11,30,20,-20,-5,26,-4,26,43,65,24,22
10,30,20,-19,-5,25,-4,25,42,64,25,22
10,30,20,-20,-5,26,-5,24,40,63,25,22
10,31,21,-21,-5,27,-5,22,38,61,25,22
10,30,20,-20,-5,26,-5,20,36,60,26,22
9,28,19,-19,-5,24,-5,19,35,60,26,22
8,28,19,-18,-5,24,-5,18,32,58,26,22
9,28,19,-19,-5,24,-6,16,29,56,26,21
9,28,18,-19,-5,23,-7,15,27,54,26,20
10,28,17,-19,-4,22,-7,14,25,52,26,20
10,27,17,-18,-4,22,-7,12,23,50,26,19
9,28,18,-18,-5,23,-7,11,21,47,25,18
8,28,19,-18,-5,24,-7,10,19,45,25,17
8,27,19,-17,-5,24,-7,9,17,43,24,17
7,27,19,-17,-5,24,-8,7,15,40,23,16
7,27,20,-17,-6,24,-8,5,13,37,22,14
6,28,21,-17,-7,25,-8,3,12,35,20,13
6,27,21,-17,-8,25,-8,2,11,33,19,12
5,27,21,-16,-8,25,-8,1,9,30,18,10
5,27,23,-16,-9,26,-8,0,8,28,16,9
4,27,23,-16,-10,26,-7,-1,7,25,15,8
4,26,23,-15,-9,25,-7,-1,6,23,14,7
3,25,22,-14,-9,24,-6,-2,5,20,13,6
3,25,22,-14,-10,24,-6,-2,4,17,11,5
2,24,22,-14,-10,24,-6,-3,3,15,10,4
1,23,22,-13,-11,23,-6,-3,2,13,9,3
0,22,21,-11,-11,22,-6,-3,1,11,8,2
0,21,21,-11,-11,22,-6,-3,1,8,6,1
0,22,22,-11,-11,22,-6,-4,0,6,5,0
0,21,21,-10,-11,22,-5,-4,0,4,4,0
-1,20,21,-10,-11,21,-5,-4,0,2,3,0
-1,20,22,-9,-11,22,-5,-4,-1,1,2,-1
-2,21,23,-9,-12,22,-5,-5,-2,-1,1,-2
-2,19,22,-8,-12,21,-4,-6,-2,-2,0,-3
-2,17,20,-7,-11,19,-4,-6,-2,-2,0,-3
-2,17,19,-7,-11,19,-4,-6,-2,-3,-1,-4
-3,18,20,-7,-11,19,-4,-6,-3,-5,-2,-5
-3,17,20,-7,-11,19,-3,-6,-3,-6,-3,-5
-4,16,19,-6,-11,18,-2,-5,-3,-7,-3,-4
-3,16,19,-6,-10,18,-2,-5,-3,-7,-4,-4
-3,15,19,-6,-10,18,-3,-6,-3,-8,-4,-4
-4,14,18,-6,-11,17,-3,-6,-4,-9,-5,-4
-4,13,18,-5,-11,16,-2,-6,-3,-9,-5,-4
-4,13,17,-4,-11,16,-2,-6,-3,-10,-5,-5
-4,13,17,-4,-11,16,-2,-6,-4,-10,-6,-5
-4,13,17,-4,-11,16,-2,-6,-3,-11,-6,-5
-4,13,16,-4,-10,15,-1,-6,-3,-11,-5,-5
-4,12,15,-3,-9,14,-1,-5,-3,-11,-5,-5
-4,11,15,-3,-9,14,-1,-5,-3,-12,-5,-5
-4,10,15,-3,-9,13,-1,-5,-3,-12,-5,-5
-4,9,14,-2,-9,12,-1,-5,-3,-11,-5,-4
-4,8,12,-2,-9,11,0,-5,-2,-10,-5,-4
-4,8,12,-2,-9,11,0,-4,-2,-11,-4,-4
-5,8,12,-2,-9,11,0,-4,-2,-12,-4,-4
-5,8,12,-1,-9,11,0,-4,-2,-12,-4,-4
-6,6,12,0,-9,10,0,-4,-1,-12,-4,-4
-6,6,13,0,-10,10,0,-4,-1,-12,-4,-3
-7,6,14,0,-10,11,0,-5,-1,-12,-4,-3
-7,6,13,0,-10,10,0,-4,-1,-12,-4,-3
-7,5,12,1,-9,9,1,-4,-1,-11,-4,-3
-7,5,12,0,-9,9,1,-4,-1,-11,-4,-3
-7,6,12,0,-9,10,1,-4,-1,-11,-4,-3
-7,6,12,0,-9,10,1,-4,-1,-11,-5,-3
-7,4,12,1,-9,9,1,-4,-1,-11,-5,-3
-7,4,12,2,-10,9,1,-4,-1,-11,-5,-3
-7,4,13,1,-10,9,0,-5,-1,-12,-5,-3
-7,5,13,1,-10,10,0,-5,-1,-12,-5,-3
-7,5,13,1,-10,10,1,-4,-1,-11,-5,-3
-8,5,13,1,-10,10,1,-4,-1,-11,-5,-3
-8,6,14,0,-11,11,0,-4,-1,-12,-6,-4
-8,7,14,0,-11,11,0,-4,-1,-12,-6,-4
-8,6,14,0,-11,11,0,-4,-1,-12,-6,-4
-8,6,13,0,-10,11,0,-4,-1,-12,-5,-4
-7,7,14,0,-10,11,0,-4,-1,-13,-6,-4
-7,7,14,0,-10,11,0,-4,-1,-13,-7,-5
-7,6,13,0,-10,11,0,-4,-1,-13,-7,-5
-7,6,13,0,-10,10,0,-3,-1,-13,-7,-5
-6,6,12,0,-9,10,0,-3,-1,-13,-7,-6
-6,7,12,0,-9,10,0,-3,-2,-14,-7,-6
-5,7,12,0,-9,10,0,-3,-2,-14,-7,-6
-5,6,12,0,-9,10,0,-3,-1,-14,-7,-6
-5,6,12,0,-9,10,0,-4,-1,-14,-7,-6
-5,6,13,0,-9,10,0,-4,-1,-14,-7,-6
-6,6,13,0,-9,10,0,-4,-1,-14,-7,-6
-7,5,13,0,-9,10,0,-4,-1,-14,-7,-6
-7,5,13,0,-10,10,0,-4,-1,-14,-8,-6
-8,6,14,0,-10,10,0,-4,-1,-14,-8,-6
-8,7,14,0,-11,10,0,-4,-1,-14,-8,-6
-8,6,14,1,-11,10,0,-3,0,-13,-7,-6
-8,6,14,1,-11,10,1,-3,0,-12,-7,-6
-9,5,14,2,-12,10,1,-3,0,-12,-8,-6
-9,5,14,2,-11,10,1,-3,0,-12,-8,-6
-9,4,13,3,-11,9,1,-3,1,-11,-7,-5
-9,4,12,3,-10,8,2,-2,1,-11,-7,-5
-8,4,12,3,-10,8,2,-2,1,-11,-7,-5
-8,4,12,2,-10,8,2,-2,1,-11,-8,-6
-7,4,11,2,-10,8,2,-2,1,-11,-7,-5
-7,3,10,2,-9,7,2,-1,2,-10,-7,-5
-6,3,9,1,-8,7,2,-1,2,-10,-8,-5
-6,3,9,1,-8,7,2,-1,2,-10,-8,-5
-7,2,9,2,-8,6,2,-1,2,-10,-7,-4
-8,1,9,3,-8,5,3,-1,2,-9,-7,-4
-8,1,9,3,-8,5,2,0,2,-9,-7,-4
-8,1,9,3,-8,5,2,-1,2,-10,-7,-4
-7,0,8,3,-7,4,2,-1,3,-10,-7,-4
-7,0,7,3,-6,3,2,-1,3,-9,-6,-4
-8,0,7,4,-7,3,3,-1,3,-8,-6,-4
-8,0,7,4,-7,3,3,-1,3,-8,-6,-4
-7,0,6,4,-6,3,3,0,3,-8,-6,-4
-6,-1,4,4,-5,2,4,0,4,-7,-6,-3
-6,-1,4,4,-5,1,4,0,4,-7,-6,-3
-7,-1,6,4,-6,2,4,0,3,-7,-6,-3
-8,-1,7,5,-7,3,4,1,3,-7,-6,-4
-8,-1,7,5,-7,2,4,1,4,-7,-6,-3
-8,-1,6,5,-7,2,4,1,4,-7,-6,-3
-8,-1,6,5,-7,2,4,1,3,-7,-7,-4
-8,-1,5,5,-7,2,3,1,3,-7,-7,-4
-8,-2,4,5,-6,1,3,1,3,-6,-6,-4
-8,-3,4,5,-6,1,4,1,3,-6,-6,-3
-8,-3,4,5,-6,1,4,1,3,-6,-6,-3
-8,-3,4,5,-6,1,4,1,4,-5,-5,-3
-8,-3,4,6,-5,0,4,2,4,-4,-5,-3
-8,-3,4,6,-5,0,5,2,5,-3,-4,-2
-8,-3,4,5,-5,1,5,2,4,-4,-4,-2
-8,-2,5,5,-6,2,5,2,4,-4,-4,-2
-8,-2,5,5,-6,2,5,2,4,-4,-4,-2
-8,-2,5,5,-6,2,5,2,4,-4,-5,-3
-8,-1,6,5,-7,2,4,1,3,-4,-5,-3
-8,0,8,5,-8,3,3,1,3,-5,-6,-4
-9,0,8,5,-8,3,3,1,3,-5,-5,-3
-8,0,8,5,-8,3,4,2,3,-4,-5,-3
-7,0,7,4,-7,3,4,2,4,-4,-5,-3
-7,0,7,4,-7,3,4,2,4,-4,-5,-3
-7,-1,6,5,-6,2,4,2,4,-4,-4,-2
-8,-2,5,5,-6,1,4,2,4,-4,-4,-2
-8,-2,5,5,-6,1,4,1,4,-4,-4,-1
-7,-1,6,4,-6,2,3,1,3,-4,-4,-2
-7,0,6,3,-6,2,3,0,3,-4,-5,-3
-6,0,5,3,-5,1,3,1,3,-3,-4,-2
-5,-1,4,3,-4,0,3,1,3,-3,-4,-2
-5,-1,4,3,-5,1,3,1,2,-3,-4,-2
-6,-1,5,4,-5,1,3,1,2,-3,-4,-2
-6,-2,4,4,-5,0,3,1,2,-4,-4,-2
-6,-2,4,4,-5,0,3,1,2,-4,-3,-2
-6,-1,4,4,-5,0,3,1,2,-4,-3,-2
-6,0,5,3,-5,1,3,0,1,-4,-4,-2
-6,0,5,3,-5,2,3,0,1,-4,-4,-2
-6,0,5,3,-5,2,2,0,1,-4,-4,-2
-5,1,6,2,-5,3,2,0,1,-4,-4,-2
-5,1,6,2,-6,4,1,0,0,-4,-4,-2
-5,1,6,2,-6,4,1,0,0,-4,-4,-3
-5,1,6,2,-6,4,1,0,0,-4,-4,-3
-5,2,7,1,-6,5,1,-1,0,-5,-5,-3
-5,3,7,1,-6,6,0,-1,-1,-5,-5,-4
-6,3,7,1,-6,5,1,-1,-1,-5,-5,-3
-6,2,7,2,-6,5,1,-1,0,-5,-5,-3
-6,2,7,2,-6,5,1,-2,0,-5,-5,-3
-5,2,7,2,-6,5,1,-2,-1,-5,-5,-3
-5,2,7,2,-6,4,1,-2,-1,-5,-5,-3
-5,0,6,3,-5,3,1,-2,-1,-5,-5,-3
-5,0,5,3,-6,3,1,-2,-1,-6,-5,-3
-6,1,6,3,-6,3,0,-2,-2,-6,-5,-3
-5,1,6,2,-6,4,0,-2,-2,-7,-5,-4
-5,1,5,2,-5,3,1,-2,-2,-7,-5,-3
-4,1,4,1,-4,3,0,-2,-2,-7,-5,-3
-3,1,4,1,-4,3,0,-3,-2,-8,-6,-3
-4,1,4,1,-4,3,0,-3,-2,-8,-6,-3
-4,0,4,2,-4,2,0,-2,-2,-7,-5,-3
-4,0,3,2,-4,1,0,-3,-3,-7,-5,-3
-4,0,3,1,-3,2,0,-3,-3,-7,-6,-4
-3,1,3,0,-3,2,0,-3,-3,-7,-6,-3
-3,0,2,0,-2,1,0,-2,-3,-7,-6,-3
-3,0,2,1,-2,1,0,-3,-3,-8,-6,-3
-3,0,2,1,-2,1,0,-3,-3,-8,-6,-3
-2,0,2,1,-1,1,0,-3,-3,-8,-5,-3
-2,0,1,1,-1,0,0,-3,-3,-8,-5,-2
-2,-1,0,1,0,0,0,-3,-3,-8,-5,-2
-1,0,0,1,0,0,0,-3,-3,-8,-5,-3
-1,0,0,0,0,0,0,-3,-3,-8,-5,-3
-2,-1,0,1,0,-1,1,-3,-3,-8,-5,-3
-2,-3,-2,2,0,-2,1,-2,-2,-8,-5,-2
-2,-3,-2,3,0,-3,1,-2,-2,-8,-5,-2
-2,-3,-2,3,0,-3,1,-3,-2,-8,-5,-2
-2,-3,-2,3,1,-3,1,-3,-2,-8,-6,-2
-1,-4,-3,3,1,-4,1,-3,-2,-8,-6,-2
-1,-4,-3,3,1,-4,1,-3,-2,-8,-6,-3
-2,-4,-3,3,1,-4,1,-3,-2,-8,-5,-3
-2,-6,-4,4,0,-5,2,-2,-2,-7,-5,-2
-2,-7,-5,5,1,-6,2,-2,-1,-7,-4,-1
-2,-8,-6,5,2,-7,2,-2,-1,-8,-4,-1
-1,-9,-7,5,3,-8,2,-2,-1,-8,-3,-1
-1,-9,-8,5,3,-8,3,-1,-1,-7,-3,0
-1,-10,-9,6,4,-9,3,-1,0,-7,-3,0
-1,-10,-10,6,4,-10,4,0,0,-7,-3,0
-1,-10,-10,6,4,-10,3,0,0,-7,-3,0
0,-10,-10,6,4,-10,3,-1,0,-7,-3,0
-1,-10,-10,6,4,-10,3,-1,0,-7,-3,0
-1,-11,-11,6,5,-11,3,-1,0,-7,-3,0
-1,-12,-11,7,5,-11,3,-1,0,-7,-3,0
-1,-13,-11,7,5,-12,3,-1,0,-6,-3,0
-1,-13,-12,7,5,-12,4,-1,0,-6,-2,0
-1,-13,-12,7,6,-13,4,-1,0,-6,-2,0
0,-12,-12,6,6,-13,4,-1,0,-6,-3,0
0,-12,-12,6,6,-12,4,-1,0,-6,-3,0
0,-12,-13,7,6,-13,4,-1,0,-6,-2,0
0,-13,-13,7,6,-13,4,0,1,-5,-2,0
-1,-12,-12,7,5,-12,4,0,0,-6,-2,0
-1,-12,-10,7,4,-10,4,-1,0,-7,-2,0
-2,-11,-9,7,3,-10,4,-1,0,-7,-3,0
-2,-12,-9,8,3,-11,5,0,0,-7,-2,0
-2,-13,-10,8,4,-12,5,0,0,-6,-2,0
-2,-12,-11,8,4,-12,5,0,0,-6,-2,1
-3,-12,-10,8,4,-12,5,0,0,-5,-1,1
-3,-13,-11,8,4,-12,5,0,1,-5,-1,1
-3,-13,-11,8,4,-12,5,0,1,-5,-1,1
-3,-14,-11,8,4,-12,5,0,1,-5,-1,1
-3,-14,-11,8,4,-12,5,0,1,-5,-1,1
-3,-14,-11,8,4,-13,6,0,1,-4,0,1
-2,-14,-12,8,5,-13,6,0,1,-4,0,1
-2,-14,-12,8,5,-13,5,0,0,-5,-1,1
-2,-14,-11,8,5,-13,5,0,0,-6,-1,1
-2,-14,-12,9,5,-13,6,0,0,-6,-1,2
-2,-15,-13,9,6,-14,6,0,1,-5,-1,2
-1,-15,-14,8,7,-15,6,0,1,-5,-1,1
-1,-16,-14,9,7,-15,6,0,1,-5,-1,1
-2,-17,-15,9,7,-15,6,1,1,-5,-1,2
-3,-18,-15,10,6,-16,7,2,2,-5,0,3
-3,-17,-14,10,6,-16,7,2,2,-5,0,3
-3,-17,-14,10,6,-16,6,1,2,-5,0,3
-2,-17,-15,10,6,-16,6,1,2,-5,0,3
-2,-18,-15,10,7,-17,7,1,2,-4,0,3
-2,-17,-15,10,6,-16,7,1,1,-4,0,2
-2,-16,-14,9,6,-15,7,0,1,-5,0,2
-2,-16,-14,9,6,-15,7,0,1,-6,0,2
-2,-16,-14,10,6,-15,7,1,1,-6,0,2
-2,-16,-14,9,6,-15,6,1,0,-6,-1,1
-1,-14,-13,8,6,-14,6,0,0,-6,-1,1
-1,-14,-13,8,6,-14,6,0,0,-5,-1,2
-1,-14,-13,8,6,-14,6,0,0,-5,-1,2
-1,-14,-12,8,6,-13,6,0,0,-5,-1,1
-2,-13,-11,8,5,-12,5,0,0,-5,-2,1
-2,-13,-11,8,5,-12,5,0,0,-6,-2,1
-2,-14,-11,8,5,-12,6,0,0,-5,-2,1
-2,-13,-11,8,5,-12,6,0,0,-5,-1,1
-2,-11,-9,7,4,-10,5,0,0,-6,-1,1
-2,-10,-9,7,4,-10,5,0,0,-6,-1,0
-2,-11,-9,7,4,-10,6,0,0,-5,-1,0
-3,-12,-9,8,4,-11,6,0,0,-5,-1,0
-3,-11,-8,7,3,-9,6,0,0,-5,-2,0
-3,-10,-6,7,1,-8,5,0,0,-6,-2,0
-4,-9,-4,7,0,-7,5,0,0,-7,-3,0
-4,-8,-4,6,0,-6,5,-1,-1,-7,-3,0
-4,-7,-3,6,0,-5,4,-1,-1,-7,-3,-1
-4,-5,-1,5,0,-3,4,-2,-2,-7,-3,-1
-4,-4,0,5,-1,-2,3,-2,-2,-7,-3,-1
-4,-3,1,4,-2,-1,3,-2,-3,-7,-3,-1
-5,-1,4,4,-4,1,3,-2,-3,-8,-4,-1
-5,0,5,3,-5,2,2,-3,-4,-9,-5,-2
-4,0,6,2,-5,3,2,-4,-5,-9,-5,-3
-4,0,5,2,-5,3,2,-4,-5,-9,-6,-3
-5,1,5,2,-5,3,2,-4,-5,-9,-6,-3
-5,1,6,2,-5,4,2,-4,-5,-9,-6,-3
-5,1,6,2,-5,4,2,-4,-5,-9,-6,-3
-5,1,6,2,-5,4,2,-4,-4,-9,-5,-2
-4,2,6,1,-5,4,2,-4,-4,-9,-5,-2
-3,3,7,0,-5,5,2,-4,-4,-10,-5,-2
-4,2,7,1,-5,5,2,-4,-4,-10,-5,-2
-5,1,7,2,-5,4,3,-3,-4,-9,-5,-2
-7,0,7,4,-7,4,3,-3,-3,-9,-5,-2
-8,0,8,4,-7,4,3,-3,-3,-9,-5,-2
-7,1,8,3,-7,5,3,-3,-3,-8,-4,-1
-6,1,7,3,-7,4,4,-2,-2,-8,-4,-1
-6,0,7,3,-6,3,4,-2,-2,-8,-4,0
-6,-1,7,3,-6,3,4,-2,-2,-8,-4,-1
-6,-1,7,3,-6,3,3,-2,-3,-9,-5,-2
-6,-1,6,3,-6,3,4,-1,-2,-8,-4,-1
-6,-1,6,3,-5,3,4,-1,-2,-8,-4,-1
-6,0,6,3,-6,3,3,-2,-2,-8,-4,-1
-6,1,7,2,-6,4,3,-2,-2,-9,-5,-2
-6,0,6,3,-6,3,3,-2,-2,-9,-5,-2
-6,0,6,3,-6,3,3,-2,-2,-9,-5,-1
-6,0,7,3,-7,4,3,-3,-3,-9,-5,-2
-6,1,8,3,-6,4,2,-3,-3,-9,-6,-3
-5,0,6,2,-5,4,2,-3,-3,-9,-6,-3
-4,0,5,2,-4,3,2,-3,-3,-9,-6,-3
-4,0,5,2,-4,3,1,-4,-3,-10,-6,-4
-4,2,5,1,-4,4,1,-4,-4,-10,-6,-4
-3,3,6,0,-4,4,1,-4,-4,-10,-6,-4
-3,3,6,0,-4,4,1,-4,-4,-10,-6,-4
-2,4,6,0,-4,5,1,-4,-4,-10,-7,-4
-2,4,6,0,-4,5,1,-4,-4,-10,-7,-4
-2,3,6,0,-4,4,1,-4,-4,-10,-7,-4
-2,3,5,0,-3,4,1,-4,-4,-10,-7,-4
-3,3,5,0,-3,4,0,-4,-4,-11,-7,-5
-3,3,6,0,-3,4,0,-5,-4,-11,-8,-5
-3,3,6,0,-3,4,0,-5,-4,-11,-8,-5
-3,2,5,0,-3,3,0,-5,-4,-11,-8,-5
-3,1,4,1,-3,2,0,-5,-4,-11,-8,-5
-2,1,3,0,-2,2,0,-5,-4,-11,-8,-5
-1,1,3,0,-2,2,0,-5,-4,-11,-8,-5
0,1,1,0,-1,1,1,-5,-4,-10,-8,-5
0,1,0,0,0,1,1,-5,-4,-10,-8,-5
1,1,1,0,0,1,0,-5,-4,-10,-8,-5
1,2,2,-1,0,2,0,-5,-5,-10,-8,-5
1,2,2,-1,0,2,0,-5,-5,-10,-7,-5
0,1,1,0,0,2,0,-4,-4,-10,-7,-5
0,1,1,0,0,1,1,-4,-4,-11,-6,-5
0,0,1,0,-1,1,1,-4,-4,-11,-6,-5
0,0,1,0,-1,0,1,-3,-3,-11,-6,-4
-1,-1,0,1,-1,0,1,-3,-3,-10,-6,-4
-1,0,1,1,-1,0,1,-3,-3,-11,-7,-4
-1,0,1,1,-1,1,1,-3,-4,-11,-7,-5
-1,0,1,1,0,0,1,-3,-3,-11,-7,-4
-1,-1,1,1,0,0,1,-2,-3,-10,-6,-4
-1,0,1,1,-1,0,1,-3,-3,-10,-7,-4
0,0,1,0,-1,1,1,-3,-4,-11,-7,-4
0,0,0,0,-1,0,1,-3,-4,-11,-8,-5
0,-1,0,1,0,0,1,-3,-4,-11,-7,-5
0,-1,0,0,0,0,1,-3,-4,-11,-7,-4
1,0,0,0,0,0,0,-4,-4,-11,-7,-4
1,1,0,-1,0,0,0,-4,-4,-11,-8,-4
1,0,-1,-1,1,0,0,-4,-4,-11,-8,-4
1,0,0,-1,1,0,0,-4,-4,-11,-8,-4
1,1,0,-1,0,0,0,-4,-4,-11,-8,-5
1,1,0,-1,0,0,0,-5,-5,-11,-9,-5
1,0,0,0,0,0,0,-4,-4,-11,-8,-5
1,0,-1,0,1,0,1,-4,-4,-11,-8,-5
1,0,-1,-1,1,0,0,-4,-4,-11,-9,-5
1,1,0,-1,1,0,0,-4,-4,-12,-9,-5
1,1,0,-1,1,0,0,-4,-4,-12,-8,-5
2,1,-1,-1,1,0,0,-4,-4,-12,-8,-5
2,0,-1,-1,1,0,0,-4,-4,-12,-8,-6
3,0,-1,-1,2,-1,0,-5,-4,-12,-8,-6
2,0,-1,-1,2,-1,0,-4,-4,-11,-8,-5
2,0,-2,0,2,-1,0,-4,-4,-11,-8,-5
2,0,-2,-1,2,-1,0,-5,-4,-11,-9,-6
3,1,-2,-2,3,0,-1,-5,-5,-12,-10,-6
3,1,-2,-2,3,0,-1,-6,-5,-13,-10,-6
3,1,-2,-2,3,0,-1,-5,-5,-13,-9,-6
4,1,-2,-2,3,0,-1,-5,-5,-12,-9,-6
4,2,-1,-3,3,0,-1,-6,-5,-12,-9,-6
3,2,-1,-2,2,0,-1,-6,-5,-12,-9,-6
2,1,0,-2,2,0,0,-5,-4,-11,-9,-6
2,1,0,-1,2,0,0,-4,-4,-11,-9,-6
2,2,0,-1,2,1,0,-4,-4,-11,-9,-6
2,2,0,-2,1,1,0,-4,-4,-11,-9,-6
2,1,0,-1,1,0,0,-3,-4,-10,-9,-5
2,1,0,-1,1,0,0,-3,-4,-10,-8,-5
2,1,0,-1,1,0,0,-3,-4,-11,-8,-6
3,1,0,-2,1,0,0,-4,-4,-12,-8,-6
3,1,-1,-2,2,0,0,-4,-4,-13,-8,-6
3,1,-1,-2,2,-1,0,-4,-4,-13,-8,-6
3,2,-1,-2,2,0,0,-4,-5,-14,-9,-6
3,3,0,-2,1,1,-1,-5,-5,-14,-10,-7
3,3,0,-2,1,2,-1,-5,-5,-14,-10,-6
3,3,0,-2,1,2,0,-5,-5,-14,-10,-6
3,4,1,-3,1,3,0,-5,-5,-14,-10,-6
3,4,1,-3,1,3,0,-5,-5,-14,-10,-7
3,3,0,-3,1,2,0,-4,-5,-13,-10,-7
2,2,0,-3,2,0,0,-4,-5,-13,-10,-7
2,1,0,-2,2,0,0,-4,-5,-13,-10,-7
2,1,0,-2,2,0,0,-4,-5,-13,-10,-7
2,0,-1,-1,2,0,0,-4,-5,-12,-10,-7
2,0,-2,0,2,-1,0,-4,-4,-12,-9,-6
2,0,-2,0,2,-1,1,-4,-4,-11,-9,-6
3,0,-2,-1,2,-1,1,-4,-4,-11,-9,-6
3,1,-1,-1,2,0,1,-4,-4,-11,-9,-6
3,0,-2,-1,3,-1,1,-3,-3,-11,-8,-6
3,0,-3,-1,3,-2,1,-3,-3,-11,-8,-5
4,0,-3,-1,4,-2,1,-4,-4,-12,-8,-5
4,0,-2,-2,4,-1,0,-4,-4,-12,-8,-6
4,1,-2,-2,3,-1,1,-3,-3,-12,-8,-5
4,1,-2,-2,3,0,1,-3,-3,-12,-8,-5
4,3,0,-3,2,1,0,-4,-4,-12,-9,-6
4,4,1,-4,1,2,0,-4,-4,-13,-10,-7
3,4,1,-4,1,2,0,-4,-4,-13,-10,-7
3,4,1,-4,1,2,0,-5,-5,-13,-10,-7
3,5,2,-4,1,3,0,-6,-5,-14,-11,-8
3,6,2,-4,1,4,-1,-6,-5,-14,-11,-8
3,5,2,-4,1,4,-1,-6,-5,-14,-11,-8
3,5,2,-4,1,4,-1,-6,-5,-14,-11,-8
4,6,2,-5,1,4,-1,-6,-5,-14,-11,-8
4,6,2,-5,1,4,-1,-6,-5,-14,-11,-8
4,5,1,-5,2,3,0,-5,-4,-13,-10,-7
5,4,0,-5,3,1,0,-5,-4,-12,-9,-7
6,4,-1,-5,3,1,0,-5,-4,-13,-9,-6
6,5,-1,-6,4,2,0,-5,-4,-13,-9,-6
6,5,-1,-5,3,2,0,-5,-4,-13,-9,-6
5,4,-1,-4,3,1,0,-4,-3,-12,-8,-5
5,3,-1,-3,3,1,0,-4,-2,-11,-7,-4
5,4,0,-4,2,2,0,-4,-2,-11,-7,-5
5,4,0,-4,3,2,0,-4,-1,-10,-7,-5
5,3,0,-4,3,1,0,-4,-1,-9,-7,-4
4,3,0,-4,2,1,0,-5,0,-9,-6,-4
4,4,0,-4,2,2,0,-5,0,-8,-6,-4
5,5,0,-4,2,3,0,-5,0,-8,-6,-4
5,5,0,-4,2,3,0,-4,0,-7,-6,-4
6,5,0,-4,3,2,0,-3,1,-7,-5,-4
6,5,0,-5,3,2,0,-3,1,-7,-5,-4
7,5,-1,-5,4,2,0,-3,1,-7,-5,-4
7,4,-2,-5,5,1,0,-2,2,-7,-5,-4
7,2,-4,-4,5,0,0,-2,2,-6,-5,-4
7,3,-4,-4,5,0,0,-2,2,-6,-5,-4
7,4,-3,-5,5,0,0,-2,2,-6,-5,-3
8,4,-3,-5,6,0,0,-2,2,-6,-4,-3
8,3,-4,-5,6,-1,-1,-2,2,-6,-4,-2
8,3,-5,-5,7,-1,-2,-2,1,-6,-4,-2
9,3,-5,-6,8,-1,-3,-2,1,-6,-3,-2
10,3,-6,-7,9,-2,-3,-2,1,-6,-3,-1
11,3,-7,-7,9,-2,-4,-2,1,-5,-2,-1
12,4,-7,-7,9,-1,-4,-2,0,-6,-3,-1
12,4,-7,-7,10,-1,-5,-3,-1,-6,-3,-1
12,4,-8,-7,10,-2,-5,-4,-1,-6,-3,-1
12,3,-9,-7,10,-2,-4,-4,-2,-7,-3,-1
11,2,-9,-6,10,-3,-4,-4,-2,-8,-3,-1
11,2,-9,-6,10,-3,-3,-5,-3,-9,-4,-1
11,2,-9,-6,10,-3,-3,-5,-3,-9,-4,-1
11,1,-9,-6,10,-4,-2,-5,-3,-9,-4,-1
11,1,-9,-6,10,-4,-2,-5,-4,-9,-4,-1
10,2,-8,-6,9,-3,-3,-5,-4,-9,-4,-1
9,2,-7,-5,8,-2,-3,-5,-5,-9,-4,-1
9,2,-7,-5,8,-3,-2,-5,-4,-9,-4,-1
10,2,-8,-5,9,-3,-2,-4,-4,-10,-4,-2
10,3,-7,-7,9,-2,-3,-5,-5,-11,-5,-2
10,4,-7,-7,8,-1,-3,-5,-4,-10,-4,-2
10,4,-6,-7,8,-1,-2,-4,-3,-9,-3,-2
10,4,-6,-7,8,-1,-2,-4,-3,-9,-3,-2
11,5,-5,-7,7,0,-2,-5,-4,-10,-4,-2
11,6,-4,-7,7,1,-2,-5,-4,-10,-5,-3
10,5,-5,-7,7,0,-2,-5,-4,-10,-5,-3
9,4,-5,-6,7,0,-1,-5,-4,-10,-5,-3
8,4,-4,-6,6,0,-1,-5,-4,-11,-6,-4
8,4,-3,-6,5,0,-1,-5,-5,-12,-7,-5
7,3,-3,-5,5,0,-1,-5,-5,-12,-8,-6
6,2,-4,-4,5,-1,0,-5,-5,-12,-8,-6
6,1,-5,-3,5,-1,0,-6,-5,-13,-9,-6
7,2,-5,-3,5,-1,0,-6,-6,-13,-9,-7
7,2,-5,-3,6,-1,0,-6,-6,-13,-9,-8
7,1,-6,-3,6,-2,0,-5,-5,-13,-10,-8
7,0,-6,-3,6,-3,0,-6,-6,-14,-10,-8
6,0,-5,-3,6,-2,0,-6,-6,-15,-11,-9
6,0,-4,-3,5,-2,0,-6,-6,-15,-11,-9
5,0,-4,-2,5,-2,0,-6,-6,-15,-10,-8
5,0,-4,-2,5,-2,1,-6,-6,-15,-10,-8
6,1,-3,-2,5,-1,0,-6,-6,-15,-11,-9
6,2,-2,-3,4,0,0,-6,-6,-15,-11,-9
5,2,-2,-3,4,0,0,-6,-6,-15,-11,-9
5,1,-2,-3,4,0,0,-5,-6,-14,-11,-8
5,2,-2,-3,3,0,0,-5,-6,-14,-11,-9
4,2,-1,-3,3,0,0,-6,-6,-14,-11,-9
4,1,-2,-2,3,-1,1,-6,-6,-14,-11,-9
4,0,-2,-2,4,-1,1,-6,-6,-14,-11,-9
4,1,-2,-2,4,0,0,-6,-6,-15,-11,-9
4,2,-1,-2,3,0,0,-7,-6,-15,-12,-10
4,2,-1,-2,2,1,0,-6,-6,-15,-11,-10
4,3,-1,-3,2,1,0,-6,-6,-15,-11,-10
5,4,0,-4,3,2,0,-7,-7,-16,-12,-10
5,5,0,-5,3,2,-1,-7,-7,-16,-12,-11
5,5,0,-5,3,2,-1,-7,-7,-16,-13,-11
5,4,0,-4,3,2,0,-7,-7,-16,-13,-11
4,3,-1,-4,3,1,0,-6,-7,-15,-13,-11
4,4,-1,-4,3,2,0,-6,-7,-15,-13,-11
4,4,-1,-4,3,2,0,-6,-7,-15,-13,-11
5,3,-2,-4,3,1,0,-6,-7,-15,-13,-11
5,3,-2,-4,4,0,0,-6,-7,-15,-13,-11
6,3,-2,-4,4,0,0,-6,-7,-15,-13,-12
6,3,-2,-4,4,0,0,-4,-5,-15,-15,-14
6,2,-3,-3,5,-1,2,-1,0,-13,-17,-16
6,1,-3,-3,5,-1,3,2,6,-9,-21,-18
6,2,-3,-3,4,0,4,6,13,-3,-23,-20
5,2,-2,-3,4,0,5,9,20,5,-23,-21
6,3,-2,-4,4,0,5,11,25,13,-21,-21
7,4,-2,-5,5,1,5,13,28,22,-16,-19
10,7,-1,-8,5,3,4,14,28,33,-7,-16
13,11,-1,-12,6,5,1,14,22,45,7,-10
18,14,-2,-16,9,6,-2,13,8,59,26,-2
24,19,-3,-21,13,7,-8,10,-13,74,53,8
33,26,-4,-29,18,11,-16,4,-41,89,86,23
43,36,-6,-39,24,15,-27,-4,-75,105,126,41
54,46,-7,-49,30,19,-39,-17,-113,118,170,61
64,57,-6,-60,35,25,-53,-34,-152,125,213,82
73,70,-2,-71,38,34,-67,-55,-190,125,251,102
79,83,4,-81,37,44,-80,-77,-221,114,279,120
81,93,13,-87,34,53,-90,-99,-247,88,290,134
79,99,20,-89,29,59,-97,-119,-268,50,283,142
77,100,24,-88,26,62,-101,-134,-283,7,262,143
73,94,23,-83,25,59,-101,-141,-291,-37,230,135
68,84,18,-76,25,51,-98,-142,-291,-80,191,123
61,72,13,-67,24,43,-92,-140,-283,-116,155,111
53,62,10,-57,20,36,-84,-134,-268,-141,123,97
43,52,10,-48,16,31,-73,-124,-247,-151,91,80
34,41,8,-37,12,25,-62,-111,-223,-150,60,63
26,29,4,-27,10,17,-51,-98,-199,-143,32,46
20,19,1,-20,9,10,-43,-86,-177,-133,10,32
16,13,-1,-14,8,6,-36,-74,-155,-122,-4,20
13,8,-3,-11,8,2,-30,-62,-135,-109,-13,12
11,4,-4,-8,8,0,-24,-51,-115,-96,-17,7
9,2,-5,-5,7,-2,-19,-42,-96,-83,-19,3
6,0,-5,-3,5,-3,-15,-33,-79,-71,-21,0
4,-1,-5,-1,4,-3,-10,-26,-64,-59,-22,-4
3,-3,-6,0,4,-4,-6,-20,-50,-49,-21,-5
2,-3,-6,0,4,-5,-4,-15,-38,-40,-19,-6
3,-2,-5,0,4,-4,-2,-11,-29,-33,-17,-7
4,-1,-4,-1,4,-3,-1,-8,-22,-28,-15,-7
4,-1,-4,-1,4,-3,0,-5,-16,-23,-14,-7
4,-1,-5,-1,4,-4,1,-4,-12,-20,-14,-7
4,-2,-6,0,5,-4,1,-3,-9,-18,-14,-8
4,-3,-7,0,5,-5,2,-3,-6,-16,-15,-9
4,-4,-8,0,6,-6,3,-2,-4,-14,-15,-9
4,-5,-9,0,6,-7,4,0,-1,-12,-15,-8
4,-4,-8,0,6,-6,4,0,0,-11,-15,-8
4,-3,-7,0,6,-5,4,0,1,-11,-15,-9
3,-3,-6,0,5,-4,4,0,2,-11,-15,-10
3,-4,-5,1,4,-4,4,1,3,-10,-15,-10
2,-4,-5,1,4,-4,4,1,4,-9,-16,-10
3,-3,-5,0,4,-3,4,2,4,-9,-16,-11
3,-3,-5,0,4,-3,5,2,5,-8,-16,-11
2,-3,-5,0,4,-3,5,2,6,-8,-16,-11
2,-2,-4,0,3,-3,5,2,6,-8,-16,-11
2,-1,-2,0,3,-1,4,1,6,-8,-17,-12
3,1,-1,-1,3,0,4,1,6,-9,-17,-12
3,1,-1,-2,3,0,4,1,6,-8,-17,-13
4,2,-2,-3,3,0,4,1,6,-8,-17,-13
4,2,-2,-3,2,0,3,1,6,-7,-18,-13
4,3,-1,-3,2,1,3,1,6,-7,-18,-13
4,2,-1,-3,2,0,4,2,7,-7,-17,-13
4,2,-1,-3,2,0,4,2,8,-7,-17,-12
4,2,0,-3,2,1,3,2,8,-7,-17,-13
3,3,1,-2,1,2,3,3,8,-6,-17,-13
2,3,1,-2,1,2,4,3,8,-6,-16,-12
1,2,2,-1,0,2,4,4,9,-5,-16,-11
1,2,2,-1,-1,2,4,4,9,-4,-16,-12
1,2,2,-1,-1,3,4,3,9,-4,-16,-12
1,2,1,-1,0,2,4,3,9,-4,-16,-12
1,1,1,-1,0,2,4,3,10,-4,-16,-12
1,2,2,-1,0,2,4,3,10,-4,-16,-12
1,3,2,-1,0,3,4,4,10,-3,-16,-12
1,2,2,-1,0,2,4,4,10,-3,-16,-12
1,2,1,-1,0,2,5,5,11,-2,-15,-11
2,2,0,-1,1,1,4,5,11,-2,-15,-11
2,2,1,-2,0,2,4,4,10,-3,-15,-12
2,3,1,-2,0,2,3,4,10,-3,-16,-12
2,2,0,-2,0,1,3,4,10,-2,-16,-12
2,2,0,-2,1,1,4,4,11,-2,-15,-12
2,2,0,-2,1,1,3,4,11,-2,-15,-12
2,2,1,-2,1,2,3,4,11,-2,-15,-12
2,2,0,-1,1,1,4,5,12,-2,-15,-11
3,1,-1,-1,2,1,4,5,12,-2,-14,-11
3,2,-1,-2,2,1,4,5,12,-2,-15,-11
3,2,-1,-2,2,1,4,5,12,-1,-15,-11
3,2,-1,-2,2,1,4,5,12,-1,-15,-11
3,2,-1,-2,2,1,4,6,12,-1,-15,-11
3,3,0,-2,1,2,4,6,12,-1,-15,-11
3,4,2,-3,0,3,3,5,12,-2,-16,-11
3,5,3,-3,0,4,3,5,12,-2,-16,-11
2,4,3,-2,0,3,3,6,12,-2,-15,-11
2,4,3,-2,0,3,3,6,12,-1,-15,-11
1,3,3,-2,0,3,3,6,12,-1,-15,-11
1,3,2,-2,0,2,3,6,12,0,-15,-11
2,3,1,-2,1,2,4,6,13,0,-15,-10
3,4,1,-3,1,2,3,6,13,0,-15,-11
3,5,3,-4,1,4,3,5,13,0,-16,-11
3,6,3,-4,0,5,3,5,13,0,-16,-12
3,6,4,-4,0,5,3,5,13,0,-16,-12
3,7,4,-5,0,6,2,5,13,0,-16,-12
3,8,5,-5,0,7,2,5,13,0,-17,-12
3,8,6,-6,-1,7,2,5,13,0,-17,-13
3,8,6,-5,-1,7,2,6,14,0,-16,-12
3,8,6,-5,-1,7,2,6,14,0,-16,-12
3,9,7,-5,-2,8,2,6,14,0,-17,-13
2,9,8,-5,-2,9,2,6,14,0,-17,-13
1,9,8,-5,-3,9,2,7,15,0,-16,-13
1,9,8,-5,-3,9,2,7,15,1,-16,-13
1,10,9,-5,-4,10,2,7,15,1,-16,-13
1,10,9,-6,-4,10,2,7,15,1,-16,-13
2,10,8,-6,-3,9,2,7,15,1,-16,-13
3,10,8,-6,-2,9,2,7,16,2,-16,-13
3,11,8,-7,-2,10,2,7,16,2,-16,-13
3,12,9,-7,-3,11,2,7,16,2,-16,-14
2,11,9,-7,-3,10,2,7,16,3,-16,-13
2,11,10,-6,-3,10,2,7,17,3,-16,-13
2,11,10,-6,-3,11,2,7,17,4,-17,-14
2,12,11,-6,-4,11,2,7,17,4,-17,-14
2,11,10,-6,-4,11,2,8,18,5,-17,-14
2,11,10,-6,-4,11,2,8,18,5,-17,-13
2,11,10,-6,-4,11,1,8,19,5,-17,-14
1,12,10,-7,-4,12,1,8,19,6,-16,-14
1,12,11,-7,-4,12,1,9,19,6,-16,-14
1,12,10,-6,-4,11,2,9,19,7,-15,-13
1,12,10,-6,-4,11,2,9,19,6,-15,-13
1,12,11,-6,-5,11,2,9,20,6,-15,-13
1,11,11,-6,-5,11,2,10,20,7,-14,-13
0,10,10,-5,-5,10,3,10,21,7,-14,-12
0,10,9,-5,-4,10,3,10,22,8,-14,-12
0,11,10,-5,-4,11,2,10,22,8,-15,-13
0,11,11,-6,-5,11,2,10,22,8,-15,-13
0,11,11,-5,-5,11,2,10,23,9,-15,-13
0,11,11,-5,-5,11,1,11,23,10,-15,-13
0,11,11,-6,-5,11,1,11,23,11,-15,-13
0,12,12,-6,-5,12,2,12,23,12,-14,-12
0,11,12,-6,-5,12,2,13,24,12,-14,-12
0,11,11,-6,-5,11,2,13,25,13,-14,-11
1,12,11,-6,-5,12,2,13,26,13,-13,-11
1,13,11,-7,-5,12,2,13,26,14,-13,-11
1,13,11,-7,-5,12,2,14,27,15,-13,-11
1,13,12,-7,-5,12,2,15,28,16,-13,-11
1,13,12,-7,-5,13,2,15,28,16,-13,-11
1,14,12,-8,-5,13,2,16,28,17,-13,-11
1,14,12,-8,-5,13,2,16,29,18,-12,-10
1,13,11,-8,-4,12,2,17,30,19,-12,-10
1,14,11,-8,-4,12,1,17,30,19,-12,-10
1,15,12,-8,-5,13,0,17,31,20,-12,-11
1,16,13,-9,-5,14,0,17,31,21,-12,-11
2,16,13,-9,-5,14,0,17,32,22,-12,-10
2,15,13,-9,-5,14,0,18,33,23,-12,-10
1,15,14,-9,-5,15,0,18,33,24,-12,-10
1,16,14,-9,-6,15,0,18,34,25,-11,-10
2,15,13,-9,-5,15,1,19,36,26,-10,-9
2,15,12,-9,-5,14,1,20,37,27,-10,-8
3,17,13,-10,-5,15,0,20,37,28,-10,-9
3,18,14,-11,-5,16,0,20,38,29,-9,-9
3,18,14,-11,-4,16,0,22,39,31,-9,-8
3,17,13,-10,-4,15,1,23,41,33,-8,-7
3,16,13,-10,-4,14,1,23,42,34,-7,-7
3,16,13,-10,-4,14,1,24,42,35,-7,-6
3,15,12,-10,-4,14,1,25,43,36,-6,-6
4,16,12,-11,-4,14,1,26,44,37,-6,-5
4,18,13,-12,-4,15,0,26,44,37,-6,-5
5,20,14,-14,-4,17,0,26,44,38,-6,-6
6,21,14,-14,-3,18,0,26,45,40,-6,-6
7,22,14,-15,-3,18,0,26,45,41,-6,-5
8,23,14,-15,-3,19,-1,26,46,42,-6,-5
8,24,16,-16,-3,20,-1,26,46,43,-6,-5
8,24,17,-16,-4,21,-2,26,47,44,-5,-5
7,25,18,-16,-5,21,-2,27,48,46,-4,-4
8,26,18,-16,-5,22,-3,27,48,47,-3,-3
8,27,19,-17,-5,23,-3,28,49,47,-2,-3
9,27,17,-18,-4,22,-3,29,50,49,-1,-2
9,26,16,-18,-3,22,-3,30,51,50,0,-1
10,27,17,-18,-3,22,-3,30,51,51,0,0
10,28,17,-19,-3,23,-3,31,51,52,1,0
11,27,16,-20,-2,22,-3,31,52,53,2,1
11,26,15,-20,-1,21,-3,32,52,54,3,2
12,26,14,-20,-1,20,-4,32,52,55,4,2
12,27,14,-20,-1,21,-4,32,52,56,4,3
13,28,14,-21,0,21,-4,32,52,58,5,4
14,28,14,-21,0,21,-4,33,53,60,7,5
15,29,14,-22,1,22,-5,33,53,61,8,5
15,30,15,-22,0,23,-6,32,52,61,8,6
15,31,16,-22,0,23,-6,32,52,61,9,7
15,30,16,-22,0,23,-6,32,52,62,11,8
15,30,16,-22,0,23,-6,32,52,62,12,8
15,31,16,-23,0,24,-6,32,51,62,12,9
15,32,17,-24,0,25,-6,32,50,62,13,10
14,32,17,-23,0,25,-6,31,50,63,14,11
14,32,17,-23,0,25,-7,31,49,64,15,12
14,33,18,-23,-1,26,-8,30,48,63,15,12
15,34,18,-24,-1,27,-9,28,46,63,16,13
16,35,18,-25,0,27,-9,27,45,62,17,13
17,35,18,-26,0,27,-9,26,44,62,18,14
17,36,19,-26,-1,28,-10,25,42,61,18,14
17,38,20,-27,-1,29,-10,24,40,60,18,14
17,39,21,-28,-1,30,-11,22,39,60,19,14
17,39,22,-28,-1,31,-12,21,37,59,19,14
17,40,23,-28,-2,32,-13,19,34,58,19,14
17,42,24,-29,-3,33,-14,16,32,56,19,14
18,43,25,-30,-3,34,-14,15,30,55,19,14
18,44,25,-31,-3,35,-14,14,28,54,20,14
18,44,25,-31,-3,35,-15,12,26,53,20,14
18,44,26,-31,-4,35,-15,10,23,51,20,13
17,43,26,-30,-4,35,-16,8,21,49,20,12
17,42,26,-30,-4,34,-16,7,19,48,20,12
17,42,25,-29,-3,34,-16,6,17,46,20,12
17,42,26,-29,-4,34,-17,4,15,43,19,11
16,42,26,-29,-4,34,-17,3,13,41,19,11
16,41,25,-28,-5,33,-16,3,11,40,19,11
15,40,25,-28,-5,33,-16,1,10,38,19,10
15,40,26,-28,-6,33,-16,0,8,36,18,9
14,40,26,-28,-6,33,-16,-1,6,34,17,7
14,40,25,-27,-5,33,-15,-2,4,32,16,6
14,40,25,-27,-5,32,-15,-3,3,29,15,5
15,40,24,-27,-4,32,-15,-4,2,26,14,4
15,38,23,-27,-4,31,-15,-4,1,23,13,3
14,35,21,-25,-3,28,-14,-4,1,21,12,3
13,33,19,-23,-3,27,-14,-5,0,19,12,3
12,31,19,-22,-4,26,-13,-6,0,16,10,2
11,30,19,-21,-4,25,-13,-6,-1,14,9,1
10,30,19,-20,-4,25,-12,-6,-1,12,9,0
9,29,18,-19,-4,24,-11,-6,-1,10,8,0
9,27,18,-18,-4,23,-11,-7,-2,8,7,0
8,26,17,-18,-4,22,-10,-7,-2,6,5,-1
8,25,17,-16,-5,21,-10,-7,-3,5,4,-2
7,23,16,-15,-5,20,-9,-7,-3,4,3,-2
7,22,15,-14,-5,19,-8,-7,-3,2,2,-3
6,22,16,-14,-5,20,-8,-8,-4,0,0,-4
6,21,16,-13,-5,19,-8,-8,-4,-1,0,-4
5,20,15,-13,-5,18,-7,-7,-4,-2,0,-4
4,19,15,-12,-6,17,-6,-7,-4,-3,-1,-4
3,19,16,-11,-7,17,-6,-7,-4,-4,-2,-5
2,18,16,-11,-8,17,-6,-7,-4,-5,-2,-5
1,17,16,-10,-8,17,-6,-7,-4,-6,-2,-5
1,17,15,-9,-8,16,-6,-8,-4,-7,-3,-5
0,17,15,-9,-8,16,-6,-8,-5,-9,-4,-6
0,16,15,-8,-8,16,-5,-8,-5,-10,-5,-7
0,16,15,-8,-7,15,-5,-8,-5,-10,-5,-7
0,15,14,-8,-7,14,-4,-7,-5,-10,-5,-6
0,15,14,-8,-7,14,-5,-7,-5,-11,-5,-7
0,15,14,-8,-7,14,-5,-7,-6,-12,-6,-7
0,14,14,-7,-7,14,-5,-8,-6,-13,-7,-8
-1,14,14,-7,-7,14,-5,-8,-6,-13,-7,-8
-1,14,15,-7,-7,15,-5,-8,-6,-13,-7,-8
-1,15,16,-7,-8,16,-5,-8,-6,-13,-7,-8
-1,15,15,-7,-8,15,-4,-7,-6,-13,-7,-7
-1,13,14,-6,-7,14,-4,-7,-5,-13,-7,-7
-1,12,13,-6,-7,13,-4,-7,-5,-14,-7,-7
0,12,12,-6,-6,12,-4,-7,-5,-14,-7,-7
0,11,11,-6,-5,11,-3,-7,-5,-13,-6,-7
0,10,10,-6,-5,10,-3,-6,-4,-13,-6,-7
0,10,9,-5,-5,10,-2,-6,-4,-13,-6,-7
0,10,10,-5,-5,10,-2,-6,-4,-13,-6,-7
-1,10,10,-4,-6,10,-2,-6,-4,-13,-6,-7
-2,9,10,-3,-6,9,-2,-6,-4,-13,-6,-6
-3,8,10,-3,-6,9,-2,-6,-4,-13,-6,-6
-3,8,11,-3,-7,9,-2,-6,-4,-14,-6,-6
-3,8,11,-3,-7,9,-2,-5,-3,-13,-6,-6
-3,7,10,-2,-7,8,-1,-5,-3,-13,-5,-5
-3,6,9,-2,-6,7,-1,-5,-2,-12,-5,-6
-3,6,8,-2,-6,7,-2,-5,-3,-12,-6,-6
-2,7,8,-2,-6,7,-2,-5,-3,-12,-7,-7
-2,6,7,-2,-5,7,-1,-5,-2,-12,-6,-7
-2,6,7,-2,-4,6,-1,-4,-2,-12,-6,-6
-2,6,7,-2,-5,6,-1,-4,-1,-12,-6,-6
-2,5,7,-2,-5,6,0,-4,-1,-12,-6,-6
-3,4,6,-1,-5,5,0,-4,0,-12,-6,-6
-3,3,5,0,-4,4,0,-4,0,-11,-5,-6
-3,4,5,0,-4,4,0,-4,0,-11,-5,-6
-3,4,5,0,-4,4,0,-4,0,-11,-5,-6
-3,2,5,0,-4,3,1,-4,0,-11,-4,-5
-4,1,4,1,-4,2,1,-3,1,-11,-4,-5
-4,0,4,1,-4,2,1,-2,1,-11,-4,-5
-4,1,4,1,-4,2,1,-2,1,-11,-4,-5
-3,1,4,1,-4,2,2,-1,1,-11,-4,-5
-3,0,3,1,-4,2,2,-1,2,-10,-4,-4
-4,0,3,2,-4,2,2,-1,2,-10,-4,-4
-4,-1,2,2,-4,1,2,-1,2,-10,-5,-5
-4,-1,2,3,-4,0,2,-1,2,-10,-4,-5
-4,-1,1,3,-3,0,2,0,3,-10,-4,-4
-4,-1,1,3,-3,0,2,0,3,-10,-4,-4
-4,-1,2,3,-3,0,2,-1,3,-10,-4,-4
-4,-1,2,3,-4,0,2,-1,3,-10,-5,-4
-4,-2,2,3,-3,0,2,0,3,-9,-5,-4
-4,-3,0,3,-3,-1,2,0,4,-9,-4,-3
-4,-3,0,3,-3,-2,3,0,4,-9,-4,-3
-4,-3,0,3,-3,-2,3,1,4,-8,-3,-3
-4,-4,0,4,-2,-2,3,1,5,-7,-3,-3
-4,-5,-1,5,-2,-3,4,1,5,-7,-2,-2
-5,-6,-1,5,-2,-4,4,1,5,-7,-3,-2
-5,-6,-1,5,-2,-4,3,1,5,-7,-3,-3
-5,-7,-2,6,-2,-4,4,2,5,-6,-3,-3
-5,-8,-3,6,-2,-5,4,3,6,-6,-3,-2
-5,-7,-3,6,-2,-5,4,3,6,-6,-3,-2
-5,-6,-2,5,-2,-4,4,3,6,-6,-3,-2
-6,-7,-2,6,-2,-4,4,4,6,-5,-3,-2
-6,-8,-2,7,-2,-5,5,4,7,-5,-2,-1
-5,-8,-2,7,-1,-5,5,4,7,-4,-2,-1
-5,-7,-2,6,-1,-4,5,4,7,-4,-2,-1
-5,-8,-2,7,-2,-4,5,4,7,-4,-2,-1
-6,-8,-2,7,-2,-5,5,4,7,-3,-2,-1
-6,-8,-2,7,-2,-5,5,4,7,-4,-2,-1
-5,-6,-2,5,-2,-4,5,4,7,-4,-2,-1
-4,-5,-1,4,-1,-3,5,4,7,-4,-2,-1
-3,-5,-1,4,-1,-3,5,4,7,-3,-2,-1
-3,-5,-1,4,-1,-3,4,4,7,-3,-3,-2
-3,-4,0,4,-1,-2,4,3,7,-4,-3,-2
-3,-5,0,4,-1,-2,4,3,7,-4,-3,-2
-3,-5,-1,4,-1,-3,4,3,7,-3,-3,-2
-3,-5,-1,3,-1,-3,4,3,7,-3,-3,-2
-4,-3,0,3,-2,-1,4,3,6,-3,-4,-3
-4,-2,2,2,-3,0,3,3,6,-4,-4,-3
-5,-2,2,3,-3,0,3,3,6,-4,-4,-3
-5,-2,2,3,-3,0,3,3,6,-4,-3,-3
-4,-1,2,2,-3,0,3,3,6,-4,-3,-3
-4,-1,3,2,-3,1,3,3,6,-4,-3,-3
-3,-1,2,2,-3,0,3,3,6,-4,-3,-3
-3,-1,1,1,-3,0,3,3,6,-3,-3,-3
-3,0,2,0,-3,1,3,2,5,-4,-3,-3
-3,1,3,0,-3,2,2,2,5,-4,-4,-4
-3,1,3,0,-2,2,1,1,5,-4,-5,-4
-3,0,3,1,-2,2,1,1,5,-4,-5,-4
-2,0,3,0,-2,2,1,1,4,-4,-5,-4
-2,1,3,0,-2,2,1,2,4,-4,-4,-4
-2,1,3,0,-2,2,2,2,4,-3,-3,-3
-2,1,2,0,-2,2,2,3,5,-3,-3,-3
-2,1,2,0,-2,2,2,2,4,-3,-3,-3
-1,3,3,-1,-2,3,1,1,3,-4,-4,-4
0,3,3,-2,-1,3,1,1,3,-5,-5,-5
0,3,2,-1,-1,2,1,1,3,-5,-4,-4
0,2,3,-1,-1,3,1,1,3,-4,-4,-4
0,3,4,-1,-2,4,0,1,3,-4,-4,-4
0,3,4,-1,-2,4,0,0,2,-4,-4,-4
0,3,4,-1,-2,4,0,0,2,-4,-4,-4
0,4,4,-2,-2,4,0,0,2,-4,-4,-4
0,5,5,-2,-3,5,0,0,2,-5,-4,-4
0,7,6,-3,-3,6,0,0,2,-5,-4,-5
0,7,6,-4,-2,6,0,0,2,-5,-4,-5
0,7,6,-4,-2,6,0,0,1,-5,-4,-5
0,7,6,-4,-3,6,0,0,1,-5,-5,-5
0,7,7,-4,-3,7,-1,-1,1,-6,-5,-5
0,7,7,-4,-3,7,-1,-1,1,-6,-4,-5
0,7,7,-3,-3,7,-1,-1,0,-6,-4,-5
0,8,8,-4,-4,8,-1,-1,0,-6,-5,-5
0,10,9,-5,-4,9,-1,-1,0,-6,-5,-5
0,10,10,-5,-4,10,-1,-1,-1,-6,-5,-5
0,10,10,-5,-4,10,-1,-1,-1,-6,-5,-6
0,11,11,-5,-5,11,-2,-2,-2,-7,-6,-6
0,13,12,-6,-5,12,-2,-3,-2,-7,-6,-7
0,13,12,-6,-5,12,-2,-3,-2,-7,-6,-7
1,13,11,-7,-5,12,-2,-3,-2,-7,-6,-6
1,14,12,-8,-5,13,-3,-4,-3,-8,-6,-7
1,15,13,-9,-5,14,-4,-4,-4,-9,-7,-8
1,16,14,-9,-6,15,-4,-4,-4,-9,-8,-8
1,17,15,-9,-6,16,-5,-4,-5,-9,-8,-8
1,18,16,-10,-7,17,-5,-5,-5,-10,-8,-9
2,19,16,-11,-7,17,-6,-5,-5,-10,-9,-9
2,19,15,-11,-6,16,-6,-5,-5,-10,-9,-9
3,18,14,-10,-5,15,-5,-5,-5,-10,-9,-9
3,17,13,-10,-5,15,-5,-6,-5,-11,-9,-9
3,18,14,-11,-5,16,-6,-6,-6,-11,-9,-10
3,19,15,-12,-5,17,-6,-7,-6,-12,-9,-10
4,18,13,-11,-4,15,-6,-6,-6,-11,-9,-9
4,15,11,-10,-3,13,-5,-6,-5,-10,-8,-8
3,15,11,-9,-3,12,-5,-6,-5,-11,-8,-8
3,15,11,-9,-4,13,-5,-6,-5,-11,-7,-8
3,14,11,-9,-4,12,-4,-5,-5,-11,-7,-7
2,12,9,-8,-3,11,-3,-4,-4,-11,-6,-7
2,12,8,-8,-3,10,-3,-4,-4,-10,-6,-7
3,11,8,-8,-2,9,-3,-3,-4,-10,-6,-7
3,10,7,-7,-2,8,-2,-3,-3,-9,-6,-6
3,8,6,-6,-1,7,-2,-3,-3,-9,-5,-6
3,8,5,-6,0,6,-2,-3,-3,-10,-5,-6
3,8,5,-6,0,6,-2,-3,-3,-10,-5,-6
3,7,4,-5,0,5,-2,-3,-3,-9,-5,-5
3,6,2,-5,0,4,-1,-3,-3,-9,-5,-5
3,5,2,-5,1,4,-1,-2,-3,-9,-5,-5
4,6,2,-5,1,4,-1,-2,-3,-9,-5,-5
3,6,2,-5,1,4,-1,-2,-3,-9,-5,-5
3,5,2,-4,1,3,-1,-2,-3,-8,-4,-4
3,5,2,-4,1,3,-1,-1,-3,-8,-4,-4
3,5,2,-4,0,3,-1,-2,-3,-8,-4,-4
2,5,2,-3,0,3,-1,-2,-3,-8,-4,-4
1,4,2,-3,0,3,-1,-2,-3,-8,-4,-4
1,3,2,-2,0,2,0,-2,-3,-8,-3,-4
1,4,3,-3,0,3,0,-2,-3,-8,-3,-4
1,5,4,-4,-1,4,0,-2,-3,-8,-3,-4
1,5,4,-4,-1,4,0,-2,-3,-8,-3,-3
1,5,4,-4,-1,4,-1,-2,-3,-8,-3,-3
1,6,4,-4,-1,5,-1,-2,-4,-9,-4,-4
1,7,5,-5,-1,5,-1,-3,-4,-9,-4,-4
1,7,5,-5,-1,5,-1,-3,-4,-10,-5,-4
1,6,5,-4,-1,5,-1,-3,-4,-10,-5,-4
0,7,5,-4,-2,6,-1,-3,-4,-11,-5,-5
0,8,7,-4,-3,7,-1,-3,-4,-11,-5,-5
0,8,7,-4,-3,8,-1,-3,-4,-11,-5,-5
1,9,7,-4,-3,8,-1,-3,-4,-10,-5,-4
1,9,7,-5,-3,8,-1,-3,-4,-10,-5,-4
1,9,7,-5,-3,8,-2,-3,-4,-10,-6,-5
1,10,7,-6,-3,8,-2,-4,-4,-10,-6,-5
2,9,6,-5,-3,7,-2,-4,-4,-10,-6,-5
2,9,5,-6,-2,7,-2,-4,-4,-10,-6,-5
3,10,6,-7,-2,8,-2,-4,-5,-10,-6,-5
3,10,6,-7,-2,8,-2,-4,-5,-10,-6,-5
3,9,6,-6,-1,7,-2,-4,-5,-10,-5,-5
3,9,6,-6,-1,7,-2,-4,-5,-10,-5,-5
3,10,6,-6,-1,8,-2,-5,-5,-11,-6,-6
3,10,7,-6,-1,8,-2,-5,-5,-11,-6,-6
2,10,7,-6,-1,8,-2,-5,-5,-11,-6,-5
2,10,7,-6,-2,8,-2,-5,-5,-11,-6,-5
2,11,8,-7,-3,10,-2,-5,-6,-11,-6,-6
2,12,9,-7,-3,11,-2,-5,-6,-11,-6,-6
1,12,10,-6,-4,11,-2,-4,-6,-11,-6,-5
1,12,10,-6,-5,11,-2,-5,-6,-11,-6,-5
1,12,10,-6,-5,11,-2,-5,-6,-11,-6,-6
1,12,11,-7,-5,11,-2,-6,-6,-11,-6,-6
2,13,11,-7,-4,11,-2,-6,-6,-11,-6,-6
2,13,11,-8,-4,11,-2,-6,-6,-11,-6,-6
2,14,11,-8,-4,12,-3,-6,-6,-11,-7,-6
2,15,12,-9,-4,14,-3,-6,-7,-12,-7,-6
2,15,12,-9,-4,14,-3,-6,-7,-12,-7,-6
2,15,12,-9,-4,14,-3,-6,-7,-12,-7,-6
3,16,12,-9,-4,14,-4,-6,-7,-13,-7,-7
3,16,12,-10,-4,14,-4,-7,-7,-13,-8,-7
3,16,13,-10,-4,14,-4,-8,-7,-13,-8,-7
2,16,13,-10,-4,14,-4,-8,-7,-13,-8,-7
2,17,13,-10,-5,15,-4,-8,-8,-13,-8,-8
2,17,13,-10,-5,15,-4,-8,-8,-13,-8,-8
2,16,13,-9,-5,15,-4,-7,-8,-13,-8,-7
2,15,13,-9,-5,14,-4,-7,-7,-13,-7,-7
2,15,13,-8,-5,14,-4,-7,-7,-13,-7,-7
2,15,13,-9,-5,14,-4,-7,-7,-13,-7,-7
2,16,14,-9,-5,15,-4,-7,-7,-13,-7,-7
2,16,13,-9,-5,14,-3,-7,-7,-13,-7,-7
3,16,13,-10,-4,14,-3,-7,-7,-13,-7,-7
3,17,13,-10,-4,15,-4,-7,-8,-13,-7,-7
3,18,14,-11,-5,16,-4,-8,-8,-14,-8,-8
3,18,15,-11,-5,16,-4,-8,-8,-14,-8,-8
3,18,15,-11,-5,16,-4,-8,-8,-14,-8,-8
3,18,15,-11,-5,16,-4,-8,-8,-14,-8,-8
3,18,15,-11,-5,16,-4,-8,-8,-14,-8,-7
2,17,14,-10,-5,15,-4,-7,-7,-13,-7,-7
2,16,13,-9,-5,14,-3,-7,-7,-12,-7,-6
3,16,13,-10,-4,15,-3,-7,-7,-12,-7,-6
3,16,13,-10,-4,15,-3,-7,-7,-12,-7,-6
3,16,13,-10,-4,15,-3,-7,-6,-12,-7,-5
3,15,12,-10,-4,14,-3,-6,-6,-11,-6,-5
4,15,11,-10,-3,13,-3,-6,-6,-11,-6,-6
4,15,10,-10,-2,13,-3,-7,-7,-12,-7,-6
4,15,10,-10,-2,13,-4,-7,-7,-12,-7,-6
4,15,9,-10,-2,12,-4,-7,-7,-12,-7,-6
4,15,9,-10,-2,12,-4,-7,-8,-13,-7,-7
4,15,9,-10,-2,13,-5,-8,-8,-13,-7,-7
4,16,10,-11,-2,13,-5,-8,-7,-13,-7,-7
4,16,10,-11,-2,13,-4,-8,-7,-13,-7,-7
5,17,10,-11,-2,14,-4,-8,-7,-14,-7,-7
5,18,11,-12,-2,14,-4,-8,-8,-14,-7,-7
5,17,10,-11,-2,13,-4,-7,-8,-14,-7,-7
5,15,9,-10,-1,12,-4,-7,-8,-14,-7,-7
5,15,8,-10,-1,11,-4,-7,-8,-13,-7,-7
5,15,8,-10,-1,12,-4,-7,-8,-13,-8,-8
5,15,8,-10,-1,12,-5,-7,-8,-13,-8,-7
5,14,8,-10,-1,11,-4,-7,-7,-13,-7,-7
5,14,7,-10,0,11,-4,-7,-7,-12,-7,-6
6,14,7,-11,0,11,-4,-7,-7,-13,-7,-6
6,15,7,-11,0,11,-4,-7,-7,-13,-7,-6
7,14,6,-11,0,10,-3,-6,-6,-12,-6,-6
6,13,5,-10,0,9,-3,-6,-6,-12,-6,-5
6,12,6,-10,0,9,-3,-6,-6,-12,-6,-5
6,13,6,-10,0,10,-4,-7,-6,-12,-6,-5
6,12,6,-10,0,10,-4,-7,-6,-11,-6,-5
6,12,5,-10,0,9,-3,-6,-5,-11,-5,-4
6,12,5,-10,1,8,-3,-6,-5,-11,-5,-4
6,13,5,-10,1,9,-3,-7,-6,-11,-6,-5
6,13,6,-10,0,9,-3,-7,-6,-11,-6,-5
6,11,5,-8,0,8,-3,-6,-6,-11,-5,-5
6,10,4,-8,1,7,-2,-6,-6,-11,-5,-4
6,9,3,-8,1,7,-2,-6,-6,-11,-5,-4
6,9,3,-8,2,6,-2,-5,-6,-11,-5,-4
6,8,2,-8,2,5,-2,-5,-5,-10,-5,-4
5,7,1,-7,2,5,-1,-4,-5,-10,-4,-4
5,7,1,-7,2,4,-1,-4,-5,-10,-4,-4
5,7,0,-7,3,4,-1,-4,-5,-10,-4,-4
5,6,0,-6,3,3,-1,-4,-5,-10,-4,-4
6,6,0,-6,3,3,-1,-5,-5,-10,-4,-4
6,6,-1,-6,4,3,-1,-5,-5,-10,-5,-4
6,6,-1,-6,4,3,-1,-5,-5,-10,-5,-4
6,6,-1,-6,4,3,0,-5,-4,-9,-4,-3
6,6,-1,-6,4,2,0,-4,-4,-9,-4,-3
6,6,0,-6,3,3,0,-4,-4,-9,-4,-4
5,7,0,-6,3,3,-1,-4,-5,-10,-4,-4
5,7,0,-6,2,3,-1,-4,-5,-9,-4,-3
5,6,0,-6,2,3,-1,-4,-4,-9,-4,-3
5,7,1,-6,2,4,-1,-4,-4,-10,-4,-4
5,8,3,-7,1,6,-1,-5,-5,-10,-5,-4
5,9,3,-7,1,6,-1,-5,-5,-10,-5,-4
5,9,3,-7,1,6,-1,-5,-5,-10,-5,-4
5,9,4,-7,0,7,-1,-5,-5,-10,-5,-4
5,10,5,-8,0,8,-2,-6,-6,-11,-6,-5
5,11,5,-8,1,8,-2,-5,-5,-11,-5,-4
5,10,4,-8,1,7,-1,-5,-4,-10,-5,-4
5,10,4,-8,1,7,-1,-5,-4,-10,-5,-4
5,11,4,-8,0,8,-1,-5,-4,-10,-5,-4
5,11,5,-8,0,8,-1,-5,-4,-10,-5,-4
4,10,5,-8,0,8,-1,-5,-4,-10,-5,-4
4,11,5,-7,0,8,-1,-5,-4,-10,-5,-5
4,12,6,-8,0,9,-2,-5,-5,-10,-6,-5
4,11,6,-8,0,9,-2,-5,-5,-10,-6,-5
5,9,4,-7,1,7,-1,-5,-4,-9,-5,-4
5,9,2,-7,2,6,0,-4,-4,-9,-4,-4
5,9,3,-8,1,6,-1,-4,-5,-10,-5,-4
5,10,4,-8,0,7,-1,-4,-5,-10,-5,-5
5,9,4,-8,0,7,-1,-4,-5,-10,-5,-4
5,9,4,-8,0,7,-1,-4,-5,-10,-5,-4
4,10,5,-8,0,7,-1,-5,-5,-10,-5,-4
4,10,5,-8,0,8,-1,-5,-5,-10,-5,-4
4,10,5,-7,0,7,0,-4,-4,-9,-4,-3
4,9,4,-7,0,6,0,-4,-4,-9,-4,-3
3,9,4,-6,0,6,0,-4,-4,-9,-4,-3
3,9,5,-6,-1,7,0,-4,-4,-9,-5,-4
3,9,5,-6,0,7,0,-4,-4,-10,-5,-4
4,9,5,-6,0,7,0,-3,-4,-10,-5,-4
4,9,5,-7,0,7,0,-4,-4,-10,-5,-4
4,10,5,-7,0,8,0,-4,-4,-10,-5,-4
4,11,5,-8,0,8,0,-4,-4,-10,-5,-4
4,11,5,-8,0,8,0,-4,-3,-10,-5,-4
4,11,6,-8,0,9,-1,-5,-4,-10,-5,-5
5,12,7,-9,-1,10,-1,-5,-4,-10,-6,-5
5,13,8,-10,-1,11,-2,-6,-5,-10,-7,-6
5,14,9,-10,-1,12,-2,-6,-5,-10,-7,-6
5,15,9,-11,-2,12,-2,-6,-5,-11,-7,-6
5,16,10,-11,-2,13,-2,-6,-5,-11,-7,-6
5,16,11,-11,-2,14,-2,-6,-6,-11,-7,-7
5,16,10,-10,-2,13,-2,-6,-6,-11,-7,-7
5,15,10,-10,-2,13,-2,-6,-6,-11,-7,-7
5,16,10,-11,-2,14,-2,-6,-6,-12,-7,-7
5,16,10,-11,-2,14,-2,-6,-6,-12,-7,-7
4,15,10,-10,-2,13,-2,-6,-6,-12,-7,-7
4,15,9,-10,-1,12,-2,-6,-6,-12,-7,-6
4,15,9,-10,-1,12,-3,-7,-6,-12,-7,-7
5,15,9,-10,-1,12,-3,-7,-6,-12,-7,-7
6,15,9,-11,-1,12,-2,-7,-6,-12,-7,-7
6,14,8,-11,0,11,-2,-7,-5,-11,-7,-7
6,15,8,-11,0,12,-2,-7,-5,-11,-7,-7
6,15,9,-11,-1,12,-2,-7,-5,-10,-7,-7
6,15,9,-11,-1,12,-1,-6,-5,-10,-7,-6
6,15,9,-11,-1,12,-1,-5,-4,-9,-6,-5
6,15,9,-11,-1,13,-1,-5,-4,-10,-6,-5
5,15,10,-11,-2,13,-1,-5,-5,-10,-6,-6
4,15,10,-10,-3,12,-1,-5,-5,-11,-6,-6
4,14,10,-9,-3,12,-1,-4,-5,-11,-6,-5
4,14,10,-9,-3,12,-1,-4,-4,-11,-6,-5
4,15,10,-9,-3,13,-1,-5,-4,-11,-6,-5
4,15,10,-9,-3,13,-1,-5,-4,-11,-6,-5
4,14,10,-9,-2,12,0,-4,-4,-11,-5,-4
4,14,9,-8,-2,12,0,-4,-4,-11,-5,-4
4,14,9,-9,-2,12,-1,-4,-4,-11,-6,-5
4,14,9,-9,-2,11,-1,-4,-4,-11,-6,-5
3,13,9,-8,-2,11,-1,-4,-4,-10,-6,-5
3,13,9,-8,-2,11,-1,-4,-4,-10,-6,-5
3,13,9,-8,-2,11,-1,-4,-4,-10,-6,-5
3,13,9,-8,-2,11,-1,-4,-4,-10,-5,-4
3,11,8,-7,-2,10,0,-3,-3,-9,-5,-4
3,11,8,-6,-2,10,0,-3,-3,-9,-5,-4
3,12,8,-7,-2,10,0,-4,-3,-9,-5,-4
3,12,9,-7,-2,10,0,-4,-3,-10,-5,-4
3,12,8,-7,-1,10,0,-3,-3,-9,-5,-3
4,12,7,-8,-1,9,1,-3,-3,-9,-5,-3
4,12,7,-8,-1,9,0,-3,-3,-9,-5,-4
4,12,7,-8,0,9,0,-3,-3,-9,-5,-4
4,11,6,-7,0,8,1,-3,-3,-9,-5,-3
4,10,5,-7,0,8,1,-3,-2,-9,-4,-3
4,10,6,-7,0,8,1,-3,-2,-9,-4,-3
4,10,6,-7,-1,7,1,-3,-2,-9,-4,-3
4,8,4,-6,0,6,2,-3,-2,-8,-4,-3
4,7,3,-5,1,4,2,-2,-1,-7,-3,-2
4,7,3,-5,1,4,2,-2,-1,-7,-3,-3
4,7,3,-5,1,5,2,-2,-1,-7,-4,-3
3,7,3,-5,0,5,2,-2,-1,-7,-4,-3
3,7,3,-5,0,5,2,-1,-1,-6,-3,-3
4,6,2,-5,1,4,2,-1,0,-6,-3,-2
4,6,3,-5,1,5,2,-2,0,-6,-3,-2
4,6,3,-5,1,5,2,-2,0,-6,-2,-2
4,5,2,-4,1,3,3,-1,0,-6,-2,-1
3,4,1,-3,1,2,3,-1,0,-6,-2,-1
3,4,1,-3,1,3,3,-1,0,-6,-2,-1
3,5,1,-4,1,3,3,-1,0,-6,-2,-1
3,5,1,-4,1,3,3,0,0,-6,-1,-1
4,5,0,-4,2,2,4,0,0,-6,-1,0
4,5,0,-4,2,2,4,0,0,-6,-1,0
4,5,0,-4,2,2,4,0,0,-6,-2,0
4,4,0,-3,2,1,4,0,0,-6,-2,0
4,3,-1,-3,3,0,4,0,0,-6,-2,0
4,3,-2,-3,3,0,4,0,0,-6,-2,0
4,3,-2,-3,3,0,4,0,0,-6,-2,-1
4,2,-2,-3,3,0,4,0,0,-6,-2,-1
3,2,-2,-2,3,0,4,0,0,-5,-2,-1
3,2,-2,-2,3,0,4,0,0,-6,-2,-1
4,2,-2,-3,3,0,4,0,0,-7,-2,-1
4,2,-2,-3,4,-1,4,0,0,-7,-2,-1
5,2,-3,-3,4,-1,4,0,0,-7,-2,-1
5,2,-3,-3,4,-1,4,0,0,-6,-2,-1
5,3,-2,-4,4,0,4,0,0,-6,-2,-1
5,3,-2,-4,4,0,4,0,0,-6,-2,-1
5,2,-2,-3,4,0,4,0,0,-6,-2,-1
5,3,-2,-3,4,0,4,0,0,-6,-2,-1
5,4,-1,-4,4,0,4,0,0,-6,-2,-1
6,4,-1,-4,4,1,4,0,0,-6,-2,-1
6,3,-2,-4,4,0,4,0,0,-6,-2,-1
6,3,-3,-4,4,0,4,0,0,-6,-2,-1
6,3,-3,-4,4,0,4,-1,0,-6,-2,-1
6,2,-3,-4,4,0,4,-1,0,-6,-2,-1
6,0,-5,-3,5,-2,4,0,1,-5,-1,0
6,-1,-6,-2,6,-3,5,0,2,-4,-1,0
6,-1,-7,-2,6,-4,5,0,2,-4,-1,0
6,-1,-7,-2,6,-4,5,1,3,-4,0,0
6,-1,-8,-2,7,-4,5,1,3,-4,0,1
6,-2,-8,-2,7,-5,5,1,4,-3,0,2
6,-1,-8,-2,7,-5,5,1,4,-3,0,2
6,-1,-7,-3,7,-4,5,1,4,-4,0,2
6,-1,-7,-3,7,-4,5,1,4,-3,1,2
6,-1,-7,-2,7,-4,6,2,5,-2,2,3
6,0,-7,-3,7,-3,6,2,6,-1,2,4
6,0,-6,-3,6,-2,6,2,6,-1,3,4
6,0,-6,-3,6,-3,6,3,6,-1,3,4
6,0,-6,-2,6,-3,6,3,7,-1,3,5
7,0,-6,-3,6,-3,6,3,8,-1,3,5
7,0,-6,-3,6,-3,6,3,8,-1,3,4
7,0,-7,-3,7,-4,6,3,8,0,3,4
8,0,-8,-3,8,-4,6,3,9,0,3,4
8,0,-8,-3,8,-4,6,3,9,1,3,4
8,0,-8,-3,8,-3,5,3,9,1,3,4
8,0,-8,-3,8,-4,5,4,9,1,3,4
8,-1,-8,-2,8,-5,5,4,10,1,3,4
8,-1,-9,-2,9,-5,5,5,10,2,4,5
9,0,-9,-3,9,-5,4,5,9,2,4,5
10,0,-8,-4,9,-4,4,5,8,2,4,5
10,1,-8,-4,9,-4,3,5,8,2,5,5
10,1,-8,-5,9,-4,2,5,7,2,5,5
10,2,-8,-5,9,-3,1,4,6,1,5,5
10,3,-7,-6,9,-2,1,3,5,1,5,5
11,3,-7,-6,9,-2,0,3,4,0,5,5
11,3,-7,-6,9,-2,0,2,3,-1,4,5
11,4,-6,-7,9,-1,0,0,1,-2,3,4
11,6,-5,-8,8,0,-1,0,0,-4,2,3
11,6,-5,-8,8,0,0,-1,0,-4,1,3
12,5,-6,-8,9,0,0,-1,0,-4,1,3
12,5,-7,-8,9,-1,0,0,0,-4,1,3
12,5,-6,-8,9,0,0,0,0,-5,1,3
12,5,-6,-7,9,0,0,0,0,-5,1,3
12,4,-6,-7,9,-1,1,0,0,-4,2,4
12,4,-6,-7,9,-1,1,0,0,-4,2,4
11,5,-5,-7,8,0,1,0,0,-4,2,4
11,5,-5,-7,7,0,2,0,0,-4,2,4
10,4,-5,-7,7,0,2,1,1,-3,2,5
10,5,-4,-7,6,0,2,1,1,-3,3,5
9,6,-3,-7,5,2,2,1,1,-3,3,5
9,6,-2,-6,5,2,3,2,2,-2,3,5
8,4,-2,-5,5,1,4,3,3,-2,3,5
7,4,-2,-4,4,1,4,3,3,-2,3,5
7,5,-1,-5,4,2,4,2,1,-4,1,4
7,5,0,-5,3,2,4,1,1,-5,0,3
6,5,-1,-5,3,2,4,1,1,-5,0,2
6,4,-1,-4,3,1,5,1,1,-5,0,2
5,3,-1,-4,3,1,5,1,1,-5,0,2
4,3,0,-3,2,1,5,1,1,-5,0,1
4,2,-1,-2,2,0,6,2,2,-5,0,1
3,1,-1,-1,2,0,6,2,2,-5,0,1
3,1,-1,0,2,0,6,2,2,-5,-1,1
2,1,-1,0,1,0,6,2,1,-5,-1,1
2,0,-1,0,1,-1,7,2,2,-4,-1,1
1,-1,-2,0,1,-2,7,2,2,-4,-1,2
1,-1,-2,0,1,-2,7,2,2,-3,-1,2
1,-1,-2,0,1,-2,7,2,2,-4,-1,1
1,-2,-2,1,1,-2,7,2,2,-4,-1,1
1,-2,-3,1,1,-2,8,3,2,-5,-1,1
0,-2,-2,1,1,-2,8,3,2,-6,-1,0
0,0,0,0,0,0,7,2,1,-7,-2,0
0,0,0,0,0,0,7,2,1,-7,-2,0
0,-1,-1,0,0,0,8,2,1,-6,-1,0
0,-1,-1,1,0,-1,8,2,2,-6,-1,1
0,-1,-1,1,0,-1,8,2,2,-6,-1,1
0,-1,-1,1,0,-1,8,2,2,-6,-2,0
0,-2,-2,1,1,-2,8,2,2,-5,-1,0
0,-2,-2,2,1,-2,9,3,2,-4,-1,0
0,-2,-2,2,1,-2,9,3,2,-4,-2,0
1,-2,-3,2,2,-2,9,3,2,-4,-2,0
1,-2,-4,2,2,-3,9,3,2,-4,-1,1
1,-3,-4,2,2,-4,9,3,2,-4,-1,1
1,-3,-4,2,2,-3,8,3,2,-5,-2,0
1,-3,-4,2,2,-4,8,2,2,-5,-2,0
1,-4,-5,2,3,-5,9,3,3,-4,-1,1
1,-5,-7,2,4,-6,9,3,3,-4,-1,1
2,-5,-7,2,4,-6,10,3,3,-4,-1,1
2,-6,-8,2,4,-7,10,3,3,-3,-1,1
2,-7,-9,3,5,-8,10,5,5,-2,-1,0
2,-9,-10,4,6,-9,11,8,8,-1,-3,-1
1,-9,-11,4,6,-10,13,11,13,0,-6,-3
1,-10,-11,4,6,-11,14,15,20,4,-9,-5
1,-11,-12,5,7,-12,16,20,29,12,-9,-6
1,-12,-13,6,7,-13,18,24,36,22,-8,-6
2,-12,-14,5,8,-13,18,26,41,31,-5,-5
4,-10,-15,4,9,-13,17,27,42,41,1,-3
8,-8,-16,1,12,-13,16,28,40,52,12,1
12,-6,-18,-2,15,-13,13,28,29,65,28,8
18,-3,-20,-6,18,-12,8,26,10,79,49,16
25,2,-22,-13,23,-10,1,21,-16,94,77,28
34,10,-23,-21,28,-7,-8,15,-47,112,113,43
45,19,-25,-31,34,-3,-19,5,-83,130,154,62
56,31,-25,-42,40,2,-32,-8,-121,144,197,82
67,44,-22,-54,44,11,-47,-25,-160,151,238,102
75,58,-17,-65,46,20,-61,-46,-195,149,274,122
80,69,-11,-73,45,29,-73,-68,-224,134,297,139
81,78,-3,-78,42,37,-82,-90,-249,102,303,151
79,83,3,-80,38,43,-88,-110,-268,61,292,157
76,81,5,-78,35,43,-91,-123,-279,17,268,156
72,74,2,-72,35,38,-90,-128,-283,-26,234,147
67,63,-3,-64,34,30,-86,-128,-280,-70,196,135
59,53,-5,-55,31,24,-80,-126,-270,-107,161,122
50,43,-6,-45,27,18,-71,-119,-253,-129,129,107
40,32,-8,-36,24,12,-59,-108,-229,-135,99,91
32,22,-10,-26,21,6,-48,-95,-205,-133,69,74
25,13,-12,-18,18,1,-39,-84,-182,-126,42,57
20,6,-14,-12,17,-4,-31,-71,-159,-116,21,43
17,0,-16,-7,16,-8,-25,-59,-137,-104,8,32
14,-4,-18,-4,16,-11,-19,-48,-117,-91,0,24
12,-6,-17,-2,14,-12,-14,-38,-97,-78,-5,19
10,-6,-16,-1,12,-11,-9,-30,-80,-66,-8,14
8,-7,-15,0,11,-11,-5,-22,-64,-54,-9,11
6,-7,-14,1,10,-11,-1,-15,-49,-44,-9,8
5,-7,-12,2,9,-10,2,-10,-36,-35,-9,6
4,-6,-10,1,8,-8,3,-6,-26,-28,-8,5
4,-5,-8,1,7,-7,5,-2,-18,-21,-7,4
4,-4,-7,1,6,-6,6,1,-11,-16,-5,4
4,-3,-7,1,5,-6,6,3,-6,-12,-5,3
4,-2,-6,0,4,-5,7,4,-2,-9,-5,2
4,-2,-7,0,4,-4,8,4,0,-7,-6,1
4,-3,-8,0,5,-5,9,5,3,-5,-6,1
4,-4,-9,1,6,-6,10,6,5,-5,-6,0
4,-4,-8,1,6,-6,10,7,6,-5,-7,0
4,-3,-7,1,5,-6,10,8,8,-5,-7,0
4,-4,-7,1,5,-6,11,9,9,-4,-7,0
3,-4,-7,1,5,-7,11,9,10,-3,-8,0
3,-4,-7,1,5,-6,11,9,11,-2,-8,-1
3,-4,-7,1,4,-5,11,9,12,-1,-9,-1
3,-4,-7,1,4,-5,11,10,13,0,-8,-1
3,-5,-9,1,5,-6,12,10,15,1,-7,-1
3,-6,-10,1,6,-7,12,11,15,2,-7,0
3,-6,-10,1,7,-8,12,11,16,2,-7,0
3,-7,-11,2,7,-9,12,12,16,2,-6,0
3,-8,-11,2,7,-10,13,13,17,3,-6,0
3,-8,-11,3,7,-10,13,13,17,2,-6,0
3,-7,-11,3,7,-9,12,13,17,2,-6,-1
3,-7,-11,3,7,-9,12,13,17,2,-6,-1
3,-7,-12,2,8,-9,13,13,18,3,-6,0
3,-7,-12,2,7,-9,13,13,18,3,-6,0
3,-7,-11,2,6,-8,13,13,18,3,-6,0
3,-7,-10,2,6,-9,13,13,18,4,-6,0
3,-7,-11,2,7,-9,13,14,18,4,-6,0
3,-7,-11,2,7,-9,14,14,19,5,-5,0
3,-7,-11,2,7,-9,14,14,20,5,-5,0
3,-7,-11,2,6,-8,14,15,20,6,-5,1
2,-8,-11,3,6,-9,14,15,21,6,-5,1
1,-9,-11,4,6,-10,14,15,21,6,-4,1
2,-8,-10,3,6,-9,14,14,21,6,-5,1
2,-7,-10,2,6,-9,14,14,21,6,-5,1
3,-7,-10,2,6,-9,14,15,22,7,-4,1
3,-7,-10,2,6,-9,15,15,22,7,-4,1
3,-7,-9,2,6,-8,15,15,21,7,-4,1
2,-6,-9,2,5,-8,15,15,21,8,-4,1
2,-7,-9,2,5,-8,15,15,22,8,-4,1
1,-7,-10,3,5,-8,15,16,22,8,-4,1
1,-7,-10,3,5,-8,15,16,23,8,-4,1
2,-7,-9,2,5,-8,15,16,23,8,-4,1
2,-7,-9,2,5,-8,15,16,23,9,-4,2
1,-8,-9,3,5,-9,15,16,24,10,-4,2
1,-8,-9,3,5,-9,15,16,23,9,-4,2
2,-7,-9,2,5,-8,15,16,23,9,-4,2
3,-6,-10,1,6,-8,15,16,24,9,-4,2
4,-6,-10,1,6,-8,15,16,24,9,-4,2
4,-6,-10,1,6,-8,15,16,24,9,-4,1
3,-6,-10,1,6,-8,15,16,24,9,-4,1
3,-7,-10,1,6,-8,15,16,24,9,-4,2
3,-7,-11,2,6,-9,15,16,24,9,-4,2
3,-7,-10,2,7,-9,15,16,24,9,-4,2
4,-6,-9,1,7,-8,14,16,24,9,-4,1
4,-5,-9,0,7,-7,14,16,25,9,-4,1
4,-6,-10,1,7,-8,14,16,25,10,-4,1
4,-6,-10,1,7,-8,14,16,25,10,-4,1
4,-5,-9,0,6,-7,14,16,25,10,-5,1
4,-4,-8,0,6,-6,14,16,25,9,-5,1
4,-4,-8,0,5,-6,14,16,26,10,-5,1
4,-4,-8,0,5,-6,14,16,26,10,-5,1
4,-4,-8,0,5,-6,14,16,26,10,-5,1
3,-4,-7,0,5,-6,14,16,26,10,-5,1
3,-5,-8,1,5,-7,14,17,26,10,-5,1
3,-6,-8,2,5,-7,15,17,27,11,-4,2
3,-5,-8,1,5,-7,15,18,27,11,-4,2
3,-5,-8,1,6,-7,15,18,27,11,-4,2
3,-6,-9,2,6,-8,15,18,28,12,-4,2
3,-7,-10,2,6,-9,16,19,28,13,-4,2
3,-8,-10,2,6,-9,16,19,29,13,-4,2
3,-8,-11,2,6,-9,16,19,29,13,-4,2
3,-8,-12,2,7,-10,16,20,29,14,-4,3
4,-9,-13,3,8,-11,17,20,30,15,-3,3
4,-9,-14,3,9,-11,17,21,31,15,-3,3
4,-9,-14,2,9,-11,17,21,31,15,-4,3
4,-9,-14,2,9,-11,17,21,31,15,-4,3
4,-9,-14,3,9,-11,17,22,32,16,-3,3
4,-9,-14,3,9,-11,17,22,32,16,-3,3
4,-8,-13,2,8,-11,16,22,32,16,-4,2
4,-8,-12,2,7,-10,16,21,32,16,-4,2
4,-8,-12,2,8,-10,17,21,33,17,-4,3
4,-8,-12,2,8,-10,17,22,33,17,-3,3
4,-7,-11,1,7,-9,17,22,33,17,-3,3
4,-6,-10,1,7,-8,16,22,33,18,-4,2
4,-6,-10,1,6,-7,16,22,33,18,-4,2
4,-6,-9,1,6,-7,16,22,33,18,-5,2
4,-5,-8,1,5,-6,15,21,33,18,-5,1
4,-4,-8,1,5,-6,15,21,33,18,-6,1
4,-4,-8,0,6,-7,15,21,34,19,-6,1
4,-5,-8,1,5,-7,15,21,34,19,-6,1
3,-4,-7,0,4,-6,15,21,34,19,-6,1
3,-4,-6,0,4,-5,15,21,34,19,-6,1
2,-5,-7,1,4,-6,15,22,35,20,-5,1
3,-5,-8,1,5,-6,15,22,35,21,-5,1
4,-5,-8,1,5,-6,15,23,36,21,-5,1
4,-4,-8,0,5,-6,14,23,36,22,-5,1
4,-3,-7,0,5,-5,14,23,37,23,-4,2
3,-4,-8,0,6,-6,15,23,38,24,-4,2
3,-4,-8,0,6,-6,15,24,38,25,-4,3
4,-3,-7,-1,6,-5,15,24,39,25,-4,3
4,-3,-8,-1,6,-5,15,25,40,26,-4,3
5,-3,-8,-1,7,-6,15,25,41,27,-3,3
5,-3,-9,0,7,-6,15,25,41,27,-3,3
5,-3,-8,0,6,-6,14,25,41,27,-3,3
5,-4,-8,0,6,-6,14,25,42,28,-3,3
4,-5,-9,1,6,-7,15,26,43,30,-2,4
4,-6,-9,1,6,-8,15,27,44,31,-2,4
5,-5,-9,0,7,-7,15,27,44,31,-2,4
5,-5,-10,0,7,-7,15,28,45,32,-1,4
5,-6,-11,0,8,-8,15,29,46,33,-1,5
6,-6,-13,0,9,-9,15,29,47,34,0,5
6,-6,-13,0,9,-9,15,30,47,35,0,5
6,-5,-12,0,9,-9,15,30,48,36,0,6
6,-6,-13,0,9,-9,15,31,49,37,0,6
7,-7,-14,0,10,-10,16,32,50,38,0,7
7,-7,-14,0,11,-10,16,33,51,39,1,8
7,-6,-14,0,11,-10,16,34,52,40,1,8
7,-7,-13,0,10,-10,17,35,53,41,2,8
6,-7,-13,0,10,-10,17,35,54,42,2,8
7,-6,-13,0,10,-9,16,35,55,43,2,8
8,-5,-13,-1,10,-9,16,35,55,44,2,8
8,-4,-12,-2,10,-8,16,36,56,45,3,9
8,-3,-12,-2,10,-8,16,37,57,46,3,9
8,-2,-11,-2,9,-7,16,37,58,48,4,10
8,-1,-9,-3,8,-6,15,38,58,49,4,10
8,-1,-8,-3,7,-5,15,38,59,50,4,9
9,0,-8,-4,7,-4,15,39,60,51,4,9
9,1,-7,-5,8,-3,14,39,60,52,4,9
10,3,-6,-6,8,-1,14,40,61,53,5,10
10,3,-6,-6,8,-2,14,40,62,54,5,10
10,2,-8,-6,9,-3,14,41,63,56,6,11
11,2,-8,-7,9,-3,14,41,64,57,7,12
11,3,-8,-8,9,-2,13,41,64,58,7,12
11,4,-7,-8,9,-1,13,41,64,59,7,12
12,5,-7,-9,10,-1,13,42,65,61,8,13
12,6,-7,-9,10,-1,13,43,66,62,9,14
13,7,-6,-10,9,0,13,43,66,64,9,14
13,8,-5,-10,8,1,12,43,66,64,10,15
13,8,-5,-9,8,1,12,43,66,65,11,15
13,7,-5,-9,8,0,12,44,67,66,12,16
13,7,-6,-10,8,0,12,44,67,67,13,17
14,8,-6,-10,9,1,11,44,68,68,14,18
14,8,-6,-11,9,1,11,44,68,69,15,19
14,7,-6,-11,10,1,11,45,69,70,16,20
15,8,-6,-11,10,1,11,45,69,71,17,21
16,9,-6,-12,11,1,11,45,69,72,18,21
16,9,-7,-12,11,0,11,45,69,73,19,22
16,8,-8,-12,11,0,11,45,69,74,20,23
16,8,-8,-12,11,0,11,45,69,75,21,24
16,9,-7,-13,11,0,10,45,68,76,22,25
16,9,-6,-13,11,1,10,45,68,76,23,26
16,9,-7,-13,11,1,10,45,68,77,24,27
16,9,-7,-13,11,1,9,45,67,77,25,28
16,10,-6,-14,11,2,9,43,66,77,26,28
17,11,-5,-15,11,3,8,42,65,77,27,29
18,12,-5,-15,11,3,8,42,64,77,28,29
18,12,-5,-15,11,3,7,41,62,76,28,29
18,12,-6,-15,11,2,6,40,60,76,28,29
18,11,-7,-14,12,1,6,39,59,76,29,30
18,9,-9,-14,14,0,6,39,58,76,31,32
19,8,-10,-14,15,-1,6,38,57,76,32,33
19,8,-11,-14,15,-1,6,36,56,76,33,33
19,7,-11,-13,15,-2,5,35,54,75,33,34
19,6,-13,-13,15,-3,5,34,53,75,34,34
19,5,-14,-12,16,-5,5,33,51,74,35,35
20,5,-14,-12,17,-5,5,31,48,72,35,34
20,5,-14,-12,17,-5,5,30,46,71,35,34
19,4,-15,-12,17,-5,5,28,44,70,36,34
19,3,-15,-11,17,-6,5,27,42,68,36,34
19,4,-15,-12,17,-5,4,25,40,66,36,33
19,5,-14,-12,16,-4,3,23,37,64,36,32
18,5,-13,-12,16,-4,3,21,35,62,35,31
18,5,-13,-12,15,-4,3,20,33,61,35,31
18,5,-12,-11,15,-3,2,18,30,58,34,30
17,6,-11,-11,14,-2,2,17,28,55,33,28
17,5,-11,-11,13,-2,2,15,26,53,32,27
16,4,-11,-10,13,-3,2,14,24,50,32,26
16,4,-11,-9,13,-3,2,13,23,48,31,26
15,4,-11,-9,12,-3,2,12,22,45,30,25
14,3,-10,-9,11,-3,2,11,20,42,29,24
13,2,-11,-8,11,-4,2,11,19,40,28,23
13,2,-12,-7,12,-5,3,10,18,38,27,22
13,2,-11,-7,12,-5,3,8,17,35,25,20
13,2,-11,-7,11,-4,3,7,15,32,23,18
12,1,-11,-7,11,-4,3,6,14,30,21,17
12,1,-10,-6,10,-4,3,6,13,27,20,16
11,1,-9,-6,9,-4,2,5,12,24,18,15
9,1,-8,-5,8,-3,2,4,10,22,16,13
8,1,-7,-4,8,-4,2,3,10,20,14,12
7,0,-7,-4,7,-4,3,3,9,18,13,12
6,1,-5,-4,6,-3,3,2,8,16,12,11
6,2,-4,-4,5,-1,3,1,8,14,11,10
5,1,-4,-3,4,-1,4,0,7,12,10,9
5,0,-4,-2,4,-2,4,0,7,10,9,8
4,0,-4,-2,4,-2,4,0,7,8,7,7
4,0,-4,-2,4,-2,3,0,6,6,6,6
4,0,-3,-2,3,-1,3,0,5,5,5,6
3,0,-3,-2,3,-2,4,0,5,4,5,6
2,0,-3,-1,3,-2,4,0,4,2,4,5
2,0,-2,-1,2,-1,4,0,4,0,3,5
1,0,-1,-1,1,-1,4,0,4,0,2,4
0,0,-1,0,0,-1,5,0,4,-1,2,4
0,0,0,0,0,0,4,-1,3,-3,1,3
0,0,1,0,-1,0,4,-1,3,-4,0,3
0,0,1,0,-1,0,4,-1,3,-4,0,3
0,0,0,0,0,0,4,-1,3,-4,0,3
0,0,0,0,0,0,4,-1,2,-5,-1,2
0,1,0,0,0,0,4,-2,1,-6,-2,1
0,1,1,0,0,0,4,-2,1,-7,-2,1
0,0,0,0,0,0,4,-2,1,-7,-2,1
0,0,0,0,-1,0,4,-2,1,-7,-2,1
-1,0,1,0,-2,0,4,-2,0,-7,-2,1
-2,0,2,1,-2,0,3,-3,0,-8,-3,1
-3,-1,1,2,-2,0,3,-3,0,-9,-3,1
-3,-2,1,2,-2,0,3,-2,0,-9,-3,1
-3,-1,1,2,-2,0,3,-3,0,-9,-3,0
-3,-1,1,2,-2,0,3,-3,0,-10,-4,0
-4,-2,1,3,-2,-1,3,-3,0,-10,-4,0
-4,-3,1,3,-2,-1,3,-3,0,-10,-4,0
-4,-2,1,3,-3,-1,2,-4,-1,-10,-4,-1
-4,-2,2,2,-3,0,1,-4,-1,-10,-5,-1
-4,-2,3,3,-4,0,1,-4,-2,-11,-6,-2
-5,-2,3,3,-4,0,0,-4,-2,-12,-6,-3
-5,-2,4,3,-5,1,0,-5,-2,-12,-6,-3
-6,0,5,2,-5,2,0,-5,-2,-13,-6,-3
-6,0,6,2,-6,3,0,-5,-2,-13,-6,-3
-6,0,6,3,-6,2,0,-5,-2,-13,-6,-2
-6,-1,6,3,-6,2,0,-5,-2,-13,-6,-2
-6,0,7,3,-7,3,0,-6,-2,-13,-6,-3
-6,0,7,3,-8,4,0,-6,-2,-14,-7,-4
-7,-1,7,4,-8,3,0,-6,-2,-13,-7,-4
-8,-1,7,4,-9,3,0,-6,-2,-13,-7,-4
-8,0,8,4,-9,4,0,-6,-3,-13,-8,-4
-9,0,9,4,-10,5,0,-6,-3,-13,-8,-4
-10,0,9,5,-10,4,0,-6,-3,-13,-8,-4
-10,0,9,5,-10,4,0,-6,-3,-13,-8,-5
-10,1,10,4,-10,5,-1,-7,-3,-14,-9,-5
-9,1,11,3,-10,6,-1,-7,-3,-15,-9,-5
-9,1,10,4,-10,5,-1,-7,-2,-15,-9,-5
-9,0,9,4,-9,4,-1,-6,-2,-15,-9,-5
-9,0,9,4,-9,5,-1,-7,-3,-16,-9,-5
-9,1,10,4,-10,6,-1,-7,-3,-16,-10,-6
-9,0,10,4,-10,6,-1,-7,-3,-16,-10,-6
-9,0,10,5,-10,5,-1,-7,-3,-16,-10,-6
-9,1,10,4,-10,6,-2,-7,-4,-16,-10,-7
-10,2,12,4,-11,7,-2,-8,-4,-17,-11,-7
-10,2,13,4,-12,8,-2,-8,-4,-17,-12,-8
-11,3,14,4,-13,8,-2,-9,-4,-17,-12,-8
-11,3,14,4,-13,8,-3,-9,-5,-17,-12,-8
-11,4,15,3,-13,9,-4,-10,-5,-18,-13,-9
-11,4,16,3,-14,10,-4,-10,-5,-18,-13,-9
-11,4,16,3,-14,11,-4,-10,-5,-18,-13,-9
-11,5,16,3,-14,11,-4,-10,-5,-18,-14,-9
-11,6,17,2,-14,12,-5,-11,-6,-18,-14,-10
-11,6,18,2,-15,13,-5,-11,-6,-19,-15,-10
-12,6,18,3,-15,13,-5,-11,-6,-19,-15,-10
-12,6,19,3,-15,13,-6,-11,-7,-19,-16,-11
-12,7,19,2,-15,13,-7,-12,-7,-20,-17,-12
-12,7,18,2,-15,12,-7,-12,-7,-20,-17,-12
-12,6,17,2,-15,11,-6,-11,-7,-20,-17,-12
-12,5,17,3,-15,11,-6,-11,-6,-20,-17,-12
-12,6,18,3,-15,12,-6,-11,-6,-20,-17,-12
-13,5,18,4,-16,12,-6,-11,-6,-20,-17,-12
-14,4,18,5,-16,11,-5,-11,-6,-19,-17,-11
-14,3,17,5,-16,10,-5,-10,-5,-19,-16,-11
-14,3,17,5,-16,10,-5,-10,-5,-19,-16,-12
-14,4,17,4,-16,10,-6,-10,-6,-19,-17,-12
-14,4,17,4,-15,10,-6,-10,-6,-19,-17,-12
-14,3,16,5,-15,10,-6,-10,-6,-18,-17,-12
-14,3,17,5,-16,10,-6,-11,-6,-18,-17,-12
-15,3,17,5,-16,11,-6,-11,-6,-18,-17,-12
-15,3,17,5,-16,10,-5,-10,-6,-18,-17,-12
-15,2,17,5,-16,9,-5,-10,-5,-18,-17,-11
-15,1,17,6,-16,9,-5,-10,-5,-18,-17,-11
-15,2,17,6,-17,10,-5,-10,-6,-18,-17,-12
-16,2,18,6,-17,10,-6,-10,-6,-18,-18,-12
-16,2,18,7,-17,10,-6,-10,-6,-18,-18,-12
-16,3,18,7,-17,11,-5,-10,-6,-18,-18,-12
-16,4,19,6,-18,12,-5,-10,-6,-18,-18,-13
-16,4,20,6,-18,12,-5,-10,-6,-17,-18,-13
-16,4,20,6,-18,12,-5,-10,-6,-17,-18,-12
-17,4,21,6,-19,13,-5,-9,-7,-16,-18,-12
-17,5,22,6,-20,14,-5,-10,-7,-16,-18,-13
-17,5,22,6,-20,14,-6,-10,-7,-16,-18,-13
-17,4,21,7,-20,13,-6,-10,-7,-16,-18,-13
-17,3,20,7,-19,12,-6,-10,-7,-16,-18,-13
-17,4,21,6,-19,13,-7,-10,-7,-16,-18,-13
-17,5,22,6,-19,14,-7,-10,-8,-17,-19,-14
-17,5,23,6,-20,14,-8,-10,-8,-17,-19,-14
-17,6,23,5,-20,15,-8,-11,-8,-17,-19,-14
-16,7,24,4,-20,16,-8,-11,-9,-17,-19,-14
-16,8,24,4,-20,16,-9,-12,-9,-17,-20,-15
-16,7,23,4,-20,15,-8,-12,-9,-17,-19,-14
-16,6,23,4,-20,15,-8,-12,-9,-16,-19,-14
-17,7,24,4,-20,16,-8,-12,-9,-16,-19,-14
-17,7,25,5,-21,16,-8,-12,-9,-16,-19,-14
-18,7,25,5,-22,16,-8,-11,-9,-16,-19,-14
-18,6,25,6,-22,16,-8,-11,-9,-15,-18,-13
-18,7,26,6,-22,16,-8,-11,-9,-16,-19,-13
-18,8,27,5,-23,18,-8,-12,-10,-16,-19,-14
-18,9,28,5,-23,19,-9,-12,-10,-17,-19,-14
-18,9,27,5,-23,18,-9,-12,-10,-17,-19,-14
-18,9,27,5,-23,18,-9,-12,-11,-17,-19,-14
-18,9,27,5,-23,19,-10,-13,-11,-17,-20,-15
-18,9,27,5,-23,18,-10,-13,-12,-17,-20,-15
-18,8,26,6,-22,17,-10,-13,-11,-17,-19,-14
-18,7,25,6,-22,16,-10,-12,-11,-17,-19,-13
-18,7,25,6,-22,16,-10,-13,-11,-17,-19,-13
-17,7,25,6,-22,16,-9,-13,-11,-16,-19,-13
-17,6,24,6,-21,15,-9,-12,-11,-16,-18,-13
-17,5,23,6,-21,15,-8,-12,-11,-15,-18,-13
-18,5,23,7,-21,14,-8,-12,-11,-16,-18,-13
-18,5,23,7,-21,14,-8,-12,-12,-16,-18,-13
-19,4,23,7,-21,14,-8,-12,-11,-16,-17,-13
-19,3,22,8,-21,13,-8,-12,-11,-15,-17,-13
-19,4,23,8,-21,13,-9,-13,-12,-16,-18,-13
-19,5,24,8,-22,14,-9,-14,-12,-17,-18,-14
-20,4,24,8,-22,14,-9,-14,-12,-17,-18,-14
-20,2,22,9,-21,12,-8,-14,-12,-16,-17,-13
-20,2,22,9,-21,12,-9,-14,-12,-16,-17,-13
-19,3,22,8,-21,12,-9,-14,-13,-17,-17,-14
-19,3,22,8,-21,12,-9,-14,-13,-17,-17,-14
-19,2,22,8,-21,12,-9,-13,-13,-17,-17,-13
-19,2,22,8,-20,12,-9,-13,-13,-17,-17,-13
-19,3,22,8,-20,12,-10,-14,-13,-17,-18,-14
-19,3,22,8,-20,12,-10,-14,-13,-18,-18,-14
-19,2,22,9,-20,12,-9,-14,-13,-18,-18,-14
-19,2,22,9,-21,12,-9,-14,-14,-18,-18,-14
-19,2,22,8,-21,13,-10,-15,-14,-18,-18,-14
-19,3,23,8,-21,13,-10,-15,-15,-19,-19,-14
-19,2,22,8,-21,12,-10,-15,-15,-19,-18,-14
-19,3,22,8,-21,12,-11,-15,-15,-19,-18,-14
-19,4,22,8,-21,13,-11,-16,-15,-19,-19,-14
-19,4,23,8,-21,13,-11,-16,-15,-20,-19,-15
-19,3,23,8,-21,13,-11,-16,-15,-20,-19,-15
-19,3,22,8,-21,13,-11,-16,-15,-20,-19,-15
-19,3,23,8,-21,13,-11,-16,-16,-20,-20,-15
-19,4,23,8,-22,14,-11,-16,-16,-20,-20,-15
-20,3,23,9,-22,13,-11,-16,-16,-20,-20,-15
-20,2,22,9,-22,12,-11,-16,-16,-20,-20,-15
-20,2,22,9,-22,12,-11,-16,-16,-20,-20,-15
-20,2,23,9,-22,12,-11,-16,-16,-20,-20,-15
-21,1,22,10,-22,12,-10,-16,-16,-20,-20,-14
-22,0,22,12,-23,11,-10,-16,-16,-21,-19,-14
-23,0,22,12,-23,11,-10,-16,-16,-22,-19,-14
-22,0,23,11,-23,11,-10,-16,-16,-22,-19,-14
-22,0,22,11,-22,11,-10,-16,-16,-22,-19,-14
-22,0,21,11,-22,11,-10,-15,-15,-21,-19,-14
-22,-1,21,11,-22,10,-10,-15,-15,-21,-18,-14
-23,-1,22,11,-23,10,-10,-15,-15,-21,-18,-14
-23,-1,22,12,-23,10,-10,-15,-15,-21,-18,-14
-23,-2,21,12,-22,9,-10,-15,-15,-21,-18,-14
-23,-3,20,13,-21,8,-10,-15,-15,-21,-18,-14
-23,-4,19,13,-21,7,-10,-16,-15,-21,-19,-14
-22,-4,18,13,-20,7,-10,-16,-15,-21,-19,-14
-22,-4,17,13,-20,7,-10,-15,-15,-20,-19,-14
-22,-5,17,14,-20,6,-10,-15,-15,-20,-18,-14
-22,-6,17,14,-20,5,-10,-15,-15,-21,-18,-14
-22,-6,16,14,-20,5,-10,-15,-16,-21,-18,-14
-22,-7,15,14,-19,4,-9,-15,-15,-20,-18,-14
-22,-7,15,14,-19,4,-9,-14,-15,-20,-18,-13
-22,-7,16,14,-19,5,-9,-14,-15,-20,-18,-13
-22,-7,16,14,-19,5,-9,-14,-15,-20,-18,-13
-22,-8,15,15,-19,4,-9,-14,-14,-20,-18,-13
-23,-9,14,16,-18,3,-9,-15,-15,-20,-18,-13
-22,-9,14,16,-18,3,-10,-15,-15,-21,-18,-13
-22,-8,14,15,-18,3,-10,-15,-15,-21,-19,-14
-22,-9,14,15,-18,3,-10,-15,-15,-21,-18,-14
-22,-9,13,16,-18,2,-9,-15,-15,-21,-18,-13
-23,-9,14,16,-19,3,-10,-15,-15,-21,-18,-14
-23,-8,15,16,-19,4,-10,-16,-16,-21,-18,-14
-24,-9,15,17,-20,3,-9,-15,-15,-21,-18,-13
-24,-10,14,18,-20,2,-9,-14,-14,-20,-18,-12
-24,-11,14,17,-19,2,-8,-14,-14,-20,-17,-12
-24,-10,14,17,-19,2,-8,-14,-15,-20,-17,-13
-24,-10,14,16,-19,2,-8,-14,-15,-20,-17,-13
-24,-12,12,17,-18,0,-8,-14,-14,-20,-17,-12
-24,-13,11,18,-18,0,-7,-14,-13,-19,-16,-12
-24,-12,11,18,-18,0,-7,-14,-13,-19,-16,-12
-24,-12,11,19,-18,0,-7,-14,-13,-19,-16,-12
-24,-13,11,20,-18,-1,-7,-13,-13,-18,-16,-11
-24,-14,10,20,-18,-2,-7,-13,-13,-17,-15,-11
-24,-14,10,20,-18,-2,-7,-12,-13,-17,-15,-11
-24,-15,10,20,-17,-2,-7,-12,-13,-17,-15,-11
-24,-16,9,21,-17,-4,-6,-12,-12,-17,-15,-10
-24,-17,8,21,-16,-5,-6,-12,-12,-17,-14,-10
-24,-17,8,21,-16,-4,-7,-12,-12,-18,-14,-10
-23,-17,8,21,-16,-4,-7,-12,-12,-18,-14,-10
-24,-18,7,22,-16,-5,-6,-12,-12,-17,-14,-9
-24,-19,6,22,-15,-6,-6,-11,-11,-16,-13,-9
-24,-20,5,22,-15,-7,-5,-11,-11,-16,-13,-9
-24,-20,5,22,-15,-7,-5,-11,-11,-16,-14,-9
-24,-21,4,22,-15,-8,-4,-11,-11,-16,-14,-9
-24,-21,4,23,-15,-8,-4,-11,-11,-16,-14,-8
-24,-21,4,23,-15,-8,-4,-11,-11,-16,-13,-8
-24,-21,3,23,-14,-8,-4,-11,-11,-16,-13,-8
-24,-22,2,23,-14,-9,-4,-10,-10,-15,-12,-7
-24,-23,1,24,-13,-10,-3,-10,-10,-15,-12,-7
-24,-24,0,24,-13,-11,-3,-9,-10,-16,-12,-7
-24,-24,0,24,-13,-12,-3,-9,-10,-16,-12,-7
-24,-25,0,25,-12,-12,-3,-9,-9,-15,-12,-7
-23,-26,-2,25,-11,-13,-2,-8,-8,-15,-11,-7
-23,-26,-3,24,-10,-14,-2,-8,-8,-14,-11,-6
-22,-25,-2,24,-10,-13,-2,-8,-9,-14,-11,-7
-22,-25,-2,24,-10,-13,-3,-8,-9,-14,-11,-7
-22,-25,-2,24,-10,-14,-3,-8,-9,-14,-11,-7
-22,-25,-2,24,-10,-14,-3,-8,-9,-14,-11,-7
-22,-25,-2,23,-10,-13,-3,-8,-9,-14,-11,-7
-21,-24,-2,23,-10,-13,-2,-8,-9,-14,-11,-6
-21,-25,-3,23,-9,-14,-2,-7,-8,-13,-11,-6
-21,-25,-3,23,-9,-14,-2,-7,-8,-13,-11,-6
-21,-25,-4,23,-9,-14,-2,-8,-9,-14,-11,-6
-21,-27,-5,24,-8,-16,-2,-7,-8,-14,-10,-6
-21,-29,-7,26,-7,-18,-1,-6,-7,-13,-10,-5
-21,-30,-8,26,-7,-19,-1,-6,-7,-13,-9,-4
-21,-31,-9,26,-6,-20,-1,-5,-7,-13,-9,-4
-20,-31,-10,26,-5,-21,0,-5,-6,-12,-9,-4
-21,-33,-11,27,-5,-22,0,-4,-6,-12,-8,-3
-21,-34,-12,28,-4,-23,0,-4,-6,-11,-8,-3
-21,-34,-12,28,-4,-23,0,-5,-5,-11,-8,-3
-21,-33,-12,28,-4,-22,0,-5,-5,-11,-8,-3
-20,-33,-12,27,-4,-22,0,-5,-5,-11,-8,-3
-20,-33,-12,27,-4,-22,0,-5,-5,-11,-8,-3
-20,-32,-11,27,-5,-21,0,-5,-5,-11,-8,-3
-20,-31,-10,26,-5,-20,0,-5,-6,-11,-8,-3
-20,-31,-9,26,-6,-20,0,-5,-6,-11,-8,-3
-21,-32,-9,27,-6,-20,0,-4,-6,-11,-8,-3
-21,-32,-10,26,-6,-20,0,-4,-6,-11,-8,-3
-20,-30,-9,25,-6,-19,0,-5,-7,-12,-8,-4
-20,-29,-9,25,-6,-19,0,-5,-7,-12,-9,-4
-20,-30,-9,25,-6,-19,0,-5,-6,-12,-8,-4
-20,-30,-9,25,-6,-19,0,-5,-6,-12,-8,-4
-20,-30,-9,25,-6,-19,0,-5,-7,-12,-9,-4
-21,-30,-8,26,-7,-19,0,-6,-7,-12,-9,-5
-21,-31,-8,27,-7,-19,0,-6,-6,-11,-9,-5
-21,-31,-8,27,-7,-19,0,-6,-6,-11,-9,-5
-21,-29,-8,26,-7,-18,-1,-6,-7,-12,-10,-5
-21,-29,-7,25,-7,-18,-1,-5,-7,-13,-10,-5
-21,-29,-8,25,-6,-18,-1,-5,-6,-12,-9,-4
-21,-29,-8,25,-6,-18,-1,-5,-6,-12,-9,-4
-21,-28,-7,25,-7,-17,-1,-5,-7,-13,-9,-5
-21,-28,-6,25,-8,-17,-1,-6,-7,-13,-10,-5
-21,-28,-5,25,-8,-17,-1,-6,-7,-13,-10,-5
-21,-28,-5,25,-8,-17,-1,-6,-7,-12,-10,-5
-21,-27,-5,25,-8,-16,-1,-6,-7,-12,-10,-5
-21,-26,-5,24,-9,-15,-1,-6,-7,-12,-10,-5
-21,-26,-5,23,-9,-15,-1,-5,-7,-12,-10,-5
-21,-26,-5,23,-9,-15,0,-5,-6,-11,-9,-5
-21,-26,-5,23,-9,-15,0,-5,-6,-12,-9,-5
-21,-26,-4,24,-9,-15,-1,-5,-7,-13,-10,-5
-21,-26,-5,24,-9,-16,-1,-5,-7,-13,-10,-5
-21,-27,-5,25,-8,-16,0,-4,-6,-12,-9,-5
-21,-27,-5,24,-8,-16,0,-4,-6,-12,-9,-4
-21,-26,-4,24,-8,-15,0,-5,-6,-13,-10,-5
-21,-26,-4,24,-9,-15,0,-5,-7,-13,-10,-5
-21,-26,-5,24,-8,-15,0,-5,-6,-12,-9,-5
-21,-27,-5,24,-8,-16,0,-5,-6,-12,-9,-5
-21,-27,-5,23,-8,-16,0,-5,-6,-12,-9,-5
-20,-27,-6,23,-8,-16,0,-5,-6,-12,-9,-5
-20,-28,-7,24,-7,-17,0,-4,-6,-12,-9,-5
-20,-29,-7,25,-7,-18,-1,-4,-6,-12,-9,-5
-20,-28,-6,24,-7,-17,-1,-5,-7,-13,-10,-5
-21,-27,-5,24,-8,-16,-2,-6,-8,-14,-10,-6
-21,-27,-4,24,-8,-15,-1,-5,-7,-13,-10,-6
-21,-26,-5,24,-8,-15,-1,-5,-7,-13,-10,-5
-20,-25,-4,23,-8,-15,-1,-5,-7,-13,-10,-6
-19,-24,-4,22,-8,-14,-1,-6,-7,-13,-10,-6
-19,-24,-4,22,-8,-14,-1,-6,-8,-13,-10,-6
-19,-24,-4,22,-8,-14,-2,-6,-8,-13,-10,-6
-19,-23,-3,21,-8,-13,-2,-6,-8,-13,-11,-7
-19,-21,-1,20,-9,-11,-2,-7,-8,-13,-11,-7
-19,-21,-1,20,-9,-11,-3,-8,-9,-13,-12,-8
-19,-21,-2,20,-9,-11,-3,-8,-8,-13,-12,-8
-18,-20,-1,20,-9,-11,-3,-8,-8,-14,-12,-8
-18,-19,0,19,-9,-9,-4,-8,-9,-14,-12,-8
-19,-19,1,19,-10,-9,-4,-8,-9,-15,-12,-8
-20,-20,0,20,-10,-10,-3,-8,-8,-15,-12,-7
-19,-21,-1,20,-9,-11,-3,-7,-8,-15,-11,-7
-19,-19,0,19,-10,-10,-3,-7,-8,-15,-11,-7
-19,-19,1,18,-10,-9,-3,-7,-8,-14,-11,-7
-19,-19,1,19,-10,-9,-2,-6,-8,-14,-11,-7
-20,-18,2,19,-11,-8,-2,-6,-8,-14,-11,-7
-20,-18,2,19,-11,-8,-3,-6,-8,-14,-11,-7
-20,-17,2,19,-11,-7,-3,-6,-8,-13,-12,-8
-20,-18,1,19,-11,-8,-2,-6,-8,-13,-12,-7
-20,-19,1,19,-11,-8,-2,-6,-7,-13,-12,-7
-20,-18,1,19,-11,-8,-2,-6,-7,-14,-12,-7
-20,-18,2,19,-11,-7,-2,-7,-7,-14,-12,-7
-20,-19,2,19,-11,-8,-2,-7,-7,-14,-11,-7
-20,-19,1,19,-10,-8,-2,-7,-7,-14,-11,-7
-19,-19,0,19,-10,-9,-2,-7,-7,-14,-11,-7
-19,-18,0,19,-9,-9,-2,-7,-7,-14,-11,-6
-19,-19,-1,19,-9,-10,-2,-6,-7,-14,-11,-6
-19,-20,-2,20,-9,-11,-2,-6,-7,-13,-11,-6
-18,-20,-1,20,-9,-11,-2,-6,-7,-13,-11,-6
-19,-20,-1,20,-9,-10,-1,-6,-7,-12,-11,-6
-19,-21,-1,20,-8,-11,0,-5,-6,-11,-10,-5
-19,-21,-2,20,-8,-11,0,-4,-6,-11,-9,-5
-18,-21,-2,19,-8,-11,-1,-4,-6,-12,-9,-5
-18,-20,-1,19,-9,-10,-1,-4,-6,-12,-9,-5
-19,-20,0,20,-9,-9,0,-4,-6,-12,-9,-5
-20,-21,-1,21,-10,-10,0,-4,-5,-11,-8,-4
-20,-21,-1,21,-10,-11,0,-4,-5,-11,-8,-4
-20,-21,-1,21,-10,-10,0,-5,-5,-12,-9,-5
-19,-20,-1,20,-9,-11,0,-5,-5,-12,-9,-5
-19,-21,-1,20,-9,-11,0,-4,-5,-11,-9,-4
-19,-21,-2,20,-9,-12,0,-4,-5,-11,-9,-4
-20,-21,-2,20,-9,-12,0,-4,-5,-11,-9,-5
-20,-21,-2,20,-8,-11,0,-4,-5,-11,-9,-5
-19,-21,-2,20,-8,-11,0,-3,-5,-11,-9,-5
-19,-22,-3,20,-8,-12,0,-4,-5,-11,-9,-5
-19,-22,-3,20,-7,-13,0,-5,-5,-11,-9,-5
-18,-21,-3,20,-7,-13,0,-5,-5,-12,-9,-5
-18,-22,-3,20,-7,-13,0,-4,-5,-12,-9,-5
-18,-22,-4,20,-7,-13,0,-4,-5,-12,-9,-5
-18,-22,-4,20,-7,-14,0,-4,-5,-11,-9,-5
-17,-23,-5,20,-6,-14,0,-4,-4,-11,-9,-5
-17,-24,-7,21,-4,-16,0,-4,-4,-10,-8,-4
-16,-25,-9,21,-3,-17,1,-3,-3,-9,-8,-4
-16,-25,-9,21,-3,-16,1,-3,-3,-9,-8,-4
-15,-24,-8,20,-3,-16,1,-3,-3,-10,-8,-4
-15,-24,-9,20,-3,-16,1,-3,-3,-10,-7,-4
-15,-25,-9,21,-3,-17,2,-3,-2,-10,-7,-3
-15,-25,-9,21,-3,-17,2,-3,-2,-10,-7,-3
-15,-24,-8,20,-3,-16,2,-3,-2,-10,-7,-3
-16,-24,-8,20,-3,-16,2,-3,-2,-10,-7,-3
-16,-25,-8,21,-3,-16,2,-2,-2,-9,-7,-3
-16,-25,-8,21,-3,-17,2,-2,-1,-9,-7,-3
-15,-24,-8,20,-3,-16,2,-2,-2,-9,-7,-3
-14,-23,-8,19,-3,-16,1,-2,-2,-8,-7,-3
-14,-24,-9,20,-3,-16,2,-2,-1,-7,-6,-3
-15,-24,-9,20,-3,-16,2,-2,-1,-7,-6,-2
-15,-23,-7,19,-4,-15,2,-2,0,-7,-5,-2
-15,-22,-6,19,-4,-14,2,-2,0,-7,-5,-2
-15,-22,-6,19,-4,-14,2,-3,0,-7,-5,-2
-15,-21,-5,19,-5,-13,1,-3,0,-7,-4,-2
-15,-20,-4,18,-5,-12,1,-3,0,-7,-4,-2
-15,-19,-3,17,-6,-12,1,-3,0,-6,-4,-1
-14,-18,-3,17,-6,-11,1,-3,1,-6,-3,-1
-14,-17,-2,16,-6,-10,1,-2,1,-6,-3,-1
-14,-15,0,15,-7,-8,0,-2,1,-6,-4,-2
-14,-14,0,14,-7,-8,0,-2,1,-6,-5,-2
-14,-16,-1,15,-6,-9,0,-2,2,-6,-5,-2
-14,-16,-2,15,-5,-9,1,-1,2,-5,-5,-2
-14,-16,-2,15,-5,-9,1,-1,2,-5,-5,-2
-13,-15,-2,14,-5,-8,0,-2,2,-5,-5,-2
-12,-14,-2,13,-5,-8,0,-2,2,-5,-5,-2
-11,-15,-3,13,-4,-9,0,-1,2,-5,-5,-1
-11,-15,-3,13,-4,-9,-1,-2,2,-5,-5,-1
-11,-13,-3,12,-4,-8,-2,-2,1,-5,-4,-1
-10,-13,-3,11,-3,-7,-3,-2,1,-4,-3,0
-9,-13,-4,11,-3,-8,-3,-2,1,-3,-2,0
-9,-12,-4,11,-3,-8,-4,-2,0,-4,-2,0
-8,-11,-3,10,-3,-7,-5,-3,-1,-5,-2,0
-8,-11,-2,9,-3,-7,-5,-4,-2,-6,-3,0
-8,-11,-3,10,-3,-7,-5,-5,-3,-7,-3,0
-7,-11,-3,9,-3,-7,-5,-5,-4,-8,-4,0
-7,-9,-2,9,-3,-6,-6,-6,-6,-9,-5,-1
-7,-9,-1,9,-3,-5,-5,-7,-6,-10,-5,-2
-7,-10,-2,10,-2,-6,-4,-6,-6,-9,-5,-1
-8,-11,-2,10,-3,-6,-4,-5,-5,-9,-5,-1
-8,-10,-1,10,-4,-5,-4,-6,-6,-9,-5,-1
-9,-10,0,10,-5,-5,-4,-6,-6,-9,-5,-1
-9,-10,0,10,-5,-5,-3,-5,-6,-9,-5,-1
-9,-11,0,10,-5,-6,-3,-5,-5,-9,-5,-1
-9,-10,0,10,-5,-5,-3,-5,-5,-10,-5,-1
-9,-9,0,9,-5,-4,-3,-5,-5,-10,-5,-1
-9,-9,0,9,-5,-4,-3,-4,-4,-8,-5,-1
-9,-8,0,9,-5,-4,-2,-4,-4,-7,-4,0
-9,-7,1,9,-5,-3,-2,-4,-4,-7,-4,0
-9,-6,3,8,-5,-2,-2,-4,-4,-8,-5,-1
-9,-6,3,8,-6,-2,-1,-4,-4,-8,-5,-1
-9,-7,3,9,-6,-2,-1,-3,-3,-9,-5,-1
-10,-7,3,9,-7,-2,-1,-4,-4,-9,-5,-1
-11,-6,5,9,-8,0,-1,-5,-4,-10,-6,-2
-11,-6,6,9,-9,0,-1,-5,-5,-11,-7,-3
-12,-6,6,10,-9,0,0,-5,-5,-11,-8,-4
-13,-6,6,10,-10,0,0,-5,-5,-12,-9,-4
-13,-6,7,10,-10,1,-1,-5,-6,-13,-10,-5
-14,-6,8,10,-11,1,-1,-5,-6,-13,-10,-6
-14,-7,7,10,-11,0,0,-4,-6,-12,-10,-5
-14,-7,7,10,-11,0,0,-4,-6,-12,-9,-5
-14,-6,7,10,-11,0,0,-4,-6,-13,-10,-6
-14,-6,8,10,-11,1,0,-4,-6,-13,-10,-5
-15,-7,8,11,-11,0,1,-4,-6,-12,-9,-5
-15,-8,8,12,-11,0,1,-4,-6,-12,-9,-5
-15,-8,8,12,-11,0,1,-4,-6,-13,-9,-5
-15,-8,8,12,-11,0,1,-4,-5,-13,-10,-5
-16,-8,8,12,-11,0,1,-4,-5,-13,-10,-5
-16,-9,8,12,-12,0,1,-4,-5,-12,-10,-5
-16,-9,8,12,-12,0,1,-4,-5,-12,-10,-6
-16,-8,9,12,-12,1,1,-4,-5,-12,-10,-6
-16,-8,9,12,-12,1,1,-4,-5,-12,-10,-6
-16,-8,8,12,-12,0,1,-4,-5,-12,-10,-6
-16,-8,8,12,-12,0,1,-4,-5,-13,-10,-6
-16,-7,9,12,-12,1,1,-4,-6,-13,-11,-7
-16,-7,9,12,-12,1,1,-4,-6,-13,-11,-7
-15,-8,8,12,-12,0,1,-4,-6,-13,-11,-7
-15,-8,8,12,-12,0,1,-4,-6,-13,-11,-7
-15,-8,8,12,-12,0,0,-4,-6,-13,-11,-7
-15,-8,8,12,-12,0,1,-4,-6,-13,-11,-7
-15,-8,8,12,-11,0,1,-4,-5,-12,-10,-7
-15,-8,7,12,-10,0,2,-3,-5,-12,-10,-6
-14,-8,6,12,-10,0,2,-3,-5,-12,-10,-6
-14,-8,6,12,-10,0,2,-3,-5,-12,-10,-6
