leadI,leadII,leadIII,leadaVR,leadaVL,leadaVF,leadV1,leadV2,leadV3,leadV4,leadV5,leadV6
-1,-1,0,1,0,-1,1,-4,4,0,1,3
-2,-3,-1,2,0,-2,2,-11,11,0,4,7
-3,-4,-1,3,-1,-3,2,-15,15,0,5,10
-3,-5,-1,4,-1,-3,3,-18,17,0,6,12
-4,-6,-1,4,-1,-4,5,-20,19,0,6,13
-4,-6,-1,5,-1,-4,6,-21,20,0,7,14
-4,-7,-1,6,-1,-4,7,-22,21,0,7,15
-5,-7,-1,6,-1,-4,8,-22,21,0,8,16
-5,-6,-1,5,-1,-4,8,-23,22,0,8,16
-5,-5,0,5,-2,-3,7,-23,22,0,9,17
-5,-4,0,4,-2,-2,7,-23,22,0,9,17
-4,-3,1,4,-2,-1,7,-23,22,0,9,17
-4,-2,2,3,-2,0,7,-23,22,1,9,18
-3,-1,3,2,-3,0,7,-23,21,2,10,19
-4,0,3,2,-3,1,8,-24,20,2,10,20
-4,0,4,2,-4,2,8,-24,19,2,10,20
-4,0,5,2,-5,2,8,-25,17,2,10,21
-4,1,5,2,-5,3,7,-25,15,2,11,20
-4,1,6,1,-6,4,7,-26,12,2,11,19
-5,2,7,1,-6,5,6,-27,10,2,11,19
-5,3,8,1,-7,6,6,-28,8,2,11,19
-5,4,9,0,-7,7,6,-29,6,2,11,19
-5,5,10,0,-8,8,6,-30,5,2,12,19
-5,6,11,-1,-8,9,6,-30,3,2,12,19
-5,8,13,-2,-9,10,6,-30,2,2,12,19
-5,10,14,-2,-9,12,5,-30,0,1,13,19
-5,11,16,-3,-10,13,5,-31,-3,1,13,20
-4,12,17,-3,-10,14,4,-31,-5,1,14,21
-4,13,18,-4,-11,15,4,-30,-6,0,15,22
-4,14,19,-5,-11,16,3,-30,-6,0,15,22
-4,15,20,-5,-12,17,3,-30,-7,0,16,23
-4,16,20,-6,-12,18,3,-30,-7,0,16,24
-4,17,21,-6,-12,19,3,-31,-8,0,16,25
-4,18,22,-7,-13,20,2,-31,-9,0,16,27
-4,20,24,-8,-14,22,1,-32,-10,0,16,28
-4,22,26,-9,-15,24,0,-33,-11,0,16,29
-4,24,28,-10,-16,26,0,-34,-12,-1,17,31
-4,25,30,-11,-16,27,-1,-36,-13,-2,17,32
-4,27,32,-11,-17,29,-1,-39,-13,-2,18,33
-3,28,33,-12,-18,30,-1,-41,-13,-2,18,34
-3,30,34,-13,-18,32,-1,-44,-13,-2,19,35
-3,32,36,-14,-19,33,-1,-46,-14,-2,19,36
-3,35,38,-16,-20,36,-2,-47,-14,-2,20,37
-2,37,40,-17,-22,38,-2,-48,-15,-3,20,38
-3,39,43,-18,-23,40,-3,-49,-15,-3,21,39
-3,41,45,-18,-24,42,-3,-50,-16,-3,21,39
-3,41,46,-19,-24,43,-4,-51,-16,-3,22,40
-3,42,46,-19,-25,43,-4,-52,-15,-2,23,42
-3,43,47,-20,-25,45,-4,-53,-15,-2,23,43
-3,45,48,-21,-26,46,-5,-54,-15,-2,23,44
-3,46,50,-22,-26,48,-5,-54,-15,-2,23,45
-3,48,51,-22,-27,49,-6,-55,-14,-2,24,46
-2,49,52,-23,-27,50,-6,-55,-14,-2,24,47
-2,50,53,-23,-27,51,-6,-56,-14,-2,25,48
-1,51,53,-24,-27,51,-6,-56,-14,-2,25,49
-1,52,54,-24,-27,52,-6,-56,-14,-2,26,49
0,53,54,-25,-28,53,-7,-56,-13,-2,27,50
0,54,55,-26,-28,54,-7,-56,-12,-1,28,50
0,55,56,-27,-28,55,-8,-55,-12,-1,28,51
0,56,57,-27,-28,56,-8,-53,-11,0,28,51
0,57,58,-28,-28,57,-8,-51,-11,0,29,52
0,57,58,-28,-29,57,-8,-49,-11,1,29,53
0,58,59,-29,-29,58,-9,-47,-10,1,29,53
1,59,59,-30,-29,58,-9,-46,-10,2,29,54
1,59,59,-30,-29,59,-9,-44,-10,2,29,54
2,59,58,-31,-29,58,-9,-43,-9,3,30,55
2,59,58,-31,-28,58,-9,-41,-8,3,31,55
2,60,58,-31,-28,58,-8,-40,-7,4,31,55
2,60,58,-31,-28,58,-8,-38,-7,5,32,55
3,60,57,-31,-27,58,-7,-35,-6,6,32,55
3,59,56,-31,-27,57,-7,-32,-5,7,33,55
4,59,55,-32,-26,57,-7,-30,-4,7,33,55
5,59,54,-32,-25,57,-7,-27,-3,8,34,55
6,58,53,-32,-24,56,-7,-25,-2,10,35,55
6,57,51,-31,-23,54,-7,-23,0,11,35,54
6,55,50,-30,-23,53,-7,-21,1,12,36,53
6,54,48,-30,-22,51,-7,-19,2,13,36,53
6,52,47,-29,-21,49,-7,-17,3,14,36,52
6,51,45,-29,-20,48,-7,-15,4,15,36,52
6,50,44,-28,-19,46,-7,-13,5,16,36,51
6,48,42,-28,-18,45,-6,-11,6,17,36,50
6,47,40,-27,-17,43,-6,-9,7,18,36,49
7,45,38,-26,-16,42,-5,-8,8,18,36,49
7,44,36,-26,-15,40,-5,-7,10,19,35,49
8,42,34,-25,-14,38,-4,-6,11,20,34,48
8,40,32,-25,-12,36,-4,-5,12,21,33,47
8,38,30,-24,-11,34,-3,-4,13,21,33,46
8,36,28,-23,-10,32,-3,-3,13,21,32,45
9,34,26,-22,-9,30,-2,-2,14,21,32,44
9,33,24,-21,-7,28,-2,-1,15,21,32,43
9,31,21,-20,-6,26,-2,0,15,21,31,42
9,29,19,-20,-5,24,-1,1,16,21,31,40
9,27,17,-19,-4,22,-1,2,17,21,30,39
9,24,15,-18,-3,20,0,3,18,21,30,37
9,21,12,-16,-1,17,0,4,19,21,29,36
9,19,10,-15,0,14,1,5,19,21,28,34
9,16,7,-13,1,11,2,6,19,22,27,33
9,14,5,-12,2,9,2,7,19,22,26,31
9,12,2,-11,3,7,3,8,19,22,25,29
9,10,0,-10,4,5,3,9,19,22,24,28
9,8,-1,-9,5,3,4,9,19,22,23,26
9,6,-3,-8,6,1,5,10,17,21,22,25
10,5,-4,-7,6,0,6,10,16,21,21,23
10,3,-6,-7,7,-2,6,11,15,21,20,22
10,2,-7,-6,8,-3,7,11,14,20,19,20
9,0,-9,-4,8,-5,8,12,13,20,18,19
8,-3,-11,-3,9,-7,8,12,13,19,17,17
7,-4,-12,-2,9,-8,8,13,13,18,16,15
7,-5,-12,-1,9,-9,9,13,13,18,15,13
7,-6,-13,-1,9,-10,9,13,12,17,14,12
7,-7,-14,0,10,-11,9,13,12,15,13,11
7,-8,-15,0,10,-12,10,13,11,14,12,10
7,-9,-16,0,11,-13,10,13,11,13,12,9
7,-9,-16,1,11,-14,10,13,11,13,11,9
7,-10,-17,1,12,-14,10,13,11,12,10,8
8,-11,-18,1,12,-15,10,13,11,12,10,7
8,-12,-18,2,13,-15,10,14,11,12,9,6
7,-12,-18,2,12,-16,11,14,11,11,9,5
6,-13,-18,3,12,-16,11,14,11,11,8,4
6,-13,-18,3,12,-16,11,14,11,10,7,4
6,-13,-19,3,12,-17,11,14,12,10,6,3
6,-15,-21,4,13,-18,11,14,12,10,6,3
6,-16,-22,5,13,-19,11,14,13,10,6,3
6,-17,-22,5,13,-20,11,14,13,10,6,2
5,-17,-22,5,13,-20,11,14,12,10,5,2
5,-17,-22,5,13,-20,11,15,10,10,4,1
5,-17,-22,5,13,-20,11,15,9,10,4,1
5,-17,-21,5,13,-20,11,15,8,9,3,1
5,-17,-21,5,13,-20,11,15,7,9,3,1
5,-17,-21,5,13,-20,11,15,7,8,2,0
5,-17,-21,5,13,-19,11,15,6,8,2,0
5,-17,-21,5,12,-19,11,15,6,7,2,0
5,-17,-21,5,12,-19,11,15,6,7,2,0
5,-16,-21,5,13,-19,12,15,6,7,2,0
5,-16,-20,5,13,-19,12,15,5,7,2,-1
4,-16,-20,5,12,-19,11,15,5,7,1,-1
4,-16,-20,6,12,-19,11,15,5,7,1,-1
4,-16,-20,6,12,-19,11,15,5,7,1,-1
4,-16,-20,6,12,-19,11,15,5,7,1,-2
4,-16,-19,6,11,-19,10,15,5,7,1,-2
4,-16,-19,6,11,-18,10,15,5,7,0,-3
4,-16,-19,6,11,-18,10,15,5,7,0,-3
4,-16,-19,6,11,-18,10,15,5,7,0,-4
4,-16,-19,6,11,-19,10,16,5,7,1,-3
4,-16,-19,6,11,-19,10,17,6,8,1,-3
4,-16,-19,6,11,-19,11,17,6,8,1,-3
4,-16,-20,6,11,-19,11,17,5,8,1,-3
4,-16,-20,6,11,-19,11,17,5,8,1,-3
4,-16,-20,6,11,-19,11,17,4,8,1,-3
4,-16,-19,6,11,-18,11,17,4,7,1,-3
4,-15,-19,5,11,-18,11,17,4,7,0,-4
3,-15,-19,5,11,-17,11,17,4,7,0,-4
3,-15,-19,5,11,-17,11,17,4,7,0,-5
4,-15,-19,5,11,-17,11,17,4,7,0,-5
4,-15,-19,5,11,-17,11,17,4,7,0,-5
4,-15,-19,5,11,-17,11,17,4,7,0,-5
4,-15,-19,5,11,-17,11,18,4,7,0,-6
4,-15,-19,5,12,-18,11,18,5,7,0,-6
4,-15,-20,5,12,-18,11,19,5,7,0,-6
4,-15,-19,5,12,-18,11,19,5,7,0,-6
5,-14,-19,5,12,-17,11,19,4,8,0,-6
5,-14,-19,4,12,-17,10,20,4,8,0,-6
5,-14,-19,4,12,-17,10,20,4,8,0,-6
5,-14,-19,5,11,-17,10,21,4,8,-1,-6
5,-15,-19,5,11,-17,10,21,4,8,-1,-6
5,-15,-20,5,12,-17,9,21,4,8,-2,-6
5,-16,-20,5,12,-18,9,21,5,9,-2,-6
5,-16,-20,5,12,-18,9,21,5,10,-2,-6
4,-16,-20,5,12,-18,9,21,5,10,-2,-6
4,-16,-20,5,12,-18,10,21,5,10,-2,-6
4,-16,-20,5,12,-18,10,21,5,10,-2,-6
4,-16,-20,5,12,-18,10,21,6,10,-3,-6
4,-16,-20,5,12,-18,10,21,6,10,-3,-7
4,-16,-20,5,12,-18,10,21,6,10,-3,-7
4,-16,-20,5,11,-18,10,21,6,10,-3,-8
4,-16,-20,5,11,-18,10,21,5,9,-3,-9
4,-16,-19,5,11,-17,10,21,5,9,-3,-10
4,-16,-19,5,11,-17,10,21,5,9,-3,-11
4,-16,-19,5,11,-17,9,20,5,9,-3,-11
4,-15,-19,5,11,-17,9,20,5,8,-3,-11
4,-15,-18,5,11,-16,9,19,4,8,-3,-11
4,-14,-18,5,11,-16,9,19,4,8,-3,-11
4,-14,-18,5,11,-16,9,19,4,8,-3,-11
5,-14,-18,5,11,-16,8,18,5,8,-3,-12
5,-14,-18,5,11,-16,8,18,5,7,-3,-12
4,-15,-18,5,11,-16,8,18,5,7,-3,-12
4,-15,-18,5,11,-16,8,18,5,8,-3,-11
4,-15,-18,5,10,-16,8,17,5,8,-3,-11
4,-15,-18,5,10,-16,8,17,5,8,-3,-11
4,-15,-19,5,11,-17,8,17,5,8,-3,-11
4,-15,-18,5,11,-17,8,18,6,8,-3,-12
4,-15,-18,5,11,-17,8,18,6,8,-3,-12
4,-16,-19,6,11,-18,8,19,6,8,-3,-12
4,-17,-20,6,12,-19,8,20,6,8,-3,-12
4,-17,-20,6,12,-19,8,20,6,8,-3,-13
4,-17,-20,6,12,-19,7,20,6,8,-3,-13
4,-17,-20,6,11,-19,7,20,6,8,-3,-13
4,-17,-20,6,11,-19,7,20,6,8,-4,-13
3,-17,-20,6,11,-19,7,20,6,7,-4,-13
3,-17,-20,6,11,-19,7,20,6,7,-5,-14
3,-17,-20,6,11,-18,7,19,6,8,-5,-14
3,-16,-19,6,11,-18,7,19,6,8,-5,-15
3,-16,-19,6,11,-17,7,18,5,8,-6,-15
3,-16,-18,6,11,-17,7,18,5,8,-6,-16
3,-16,-18,6,10,-17,7,17,5,8,-7,-17
3,-16,-18,6,10,-17,7,17,5,8,-7,-18
3,-16,-18,6,10,-17,7,18,5,8,-7,-18
3,-16,-18,6,10,-17,7,18,4,8,-7,-18
2,-16,-18,6,10,-17,7,18,4,7,-7,-18
2,-17,-18,7,10,-17,7,18,4,7,-7,-18
2,-17,-18,7,10,-17,7,18,4,7,-7,-19
2,-16,-18,7,10,-17,7,18,4,7,-7,-19
2,-16,-18,7,10,-17,7,19,4,7,-7,-20
2,-17,-18,7,10,-17,7,19,4,7,-7,-20
2,-17,-18,7,9,-17,7,20,4,7,-7,-21
2,-17,-18,7,9,-17,7,20,4,7,-7,-21
2,-17,-18,7,9,-17,7,20,4,6,-7,-21
2,-17,-18,7,10,-17,7,20,4,6,-7,-21
2,-17,-18,7,10,-17,7,20,4,5,-7,-21
2,-17,-18,7,10,-17,7,19,4,5,-7,-21
2,-17,-18,7,10,-17,7,19,4,5,-7,-21
2,-17,-19,7,10,-18,7,19,4,5,-7,-21
2,-17,-19,7,11,-18,7,19,4,5,-7,-21
2,-17,-20,7,11,-19,7,19,4,5,-7,-21
2,-17,-20,7,11,-19,7,19,4,5,-7,-21
2,-17,-20,7,11,-19,7,19,4,5,-8,-22
2,-17,-20,6,11,-19,7,19,4,4,-8,-22
2,-17,-19,6,11,-18,7,20,4,4,-8,-22
2,-17,-19,6,10,-18,7,20,4,4,-8,-22
2,-17,-18,6,10,-18,6,20,5,4,-8,-22
2,-17,-18,6,10,-18,6,20,5,4,-8,-22
2,-16,-18,6,10,-17,6,20,5,3,-8,-22
2,-16,-18,6,10,-17,6,20,6,3,-8,-22
2,-15,-17,6,9,-16,6,20,6,3,-8,-22
2,-15,-17,6,9,-16,6,20,6,3,-8,-22
3,-14,-16,5,9,-15,6,20,6,3,-8,-22
3,-14,-16,5,9,-15,6,19,6,3,-8,-22
3,-13,-16,4,8,-14,6,19,6,3,-8,-22
3,-12,-14,4,7,-13,5,19,6,3,-8,-22
3,-11,-13,3,7,-12,5,19,6,3,-8,-22
3,-10,-12,3,7,-11,4,19,6,3,-8,-22
3,-9,-12,3,7,-11,4,19,6,4,-7,-22
3,-9,-12,3,7,-10,4,19,7,4,-7,-22
3,-9,-11,3,6,-10,4,19,7,4,-6,-22
3,-9,-11,3,6,-10,4,19,7,4,-6,-22
3,-9,-11,3,6,-10,4,19,7,4,-6,-22
3,-9,-11,3,6,-10,5,19,7,4,-6,-22
2,-9,-11,3,6,-10,5,19,8,4,-6,-22
2,-9,-11,3,6,-10,5,19,8,4,-6,-23
2,-9,-11,3,6,-10,6,19,8,4,-6,-23
2,-9,-11,3,6,-10,6,19,8,4,-6,-23
2,-9,-11,2,6,-10,6,19,8,4,-6,-23
3,-8,-11,2,7,-10,5,19,8,4,-6,-23
4,-8,-12,1,8,-10,5,19,8,4,-6,-23
5,-8,-13,1,9,-10,4,18,7,4,-6,-23
6,-7,-13,0,9,-10,2,17,7,4,-6,-22
7,-6,-14,-1,10,-10,1,16,6,4,-5,-22
7,-7,-15,-1,11,-11,0,15,6,4,-5,-21
7,-7,-16,-1,11,-11,-1,14,5,4,-5,-21
7,-7,-16,-1,11,-11,-2,13,4,4,-5,-21
8,-7,-15,-1,11,-11,-3,12,3,3,-5,-21
8,-6,-15,-1,11,-10,-3,11,2,3,-5,-21
8,-6,-15,-1,11,-10,-4,11,0,3,-6,-21
8,-6,-15,-1,11,-10,-4,10,-1,3,-6,-21
8,-6,-15,-1,11,-10,-5,10,-2,2,-6,-21
8,-6,-15,-2,11,-10,-6,10,-4,2,-6,-21
8,-6,-15,-2,11,-10,-6,9,-6,1,-7,-21
8,-5,-15,-2,11,-10,-6,9,-8,1,-7,-21
8,-6,-15,-2,11,-10,-6,9,-10,1,-8,-21
8,-6,-15,-2,11,-11,-6,9,-11,1,-8,-21
8,-7,-15,-1,11,-11,-6,9,-11,2,-8,-21
8,-7,-15,-1,11,-11,-6,8,-12,2,-8,-21
8,-7,-15,-1,11,-11,-6,7,-12,2,-8,-21
8,-7,-15,-1,11,-11,-6,5,-12,2,-8,-20
8,-7,-15,-2,11,-11,-6,3,-12,3,-8,-19
8,-7,-16,-2,11,-11,-6,2,-13,3,-8,-19
8,-7,-16,-1,12,-11,-5,1,-13,3,-8,-19
8,-8,-17,-1,12,-12,-5,0,-13,3,-8,-19
8,-9,-17,0,12,-13,-5,0,-13,3,-8,-19
7,-11,-17,1,12,-14,-4,0,-14,3,-8,-20
6,-13,-18,2,12,-15,-4,-1,-16,2,-9,-21
5,-14,-18,3,12,-16,-4,-1,-17,2,-9,-21
4,-14,-18,4,11,-16,-4,-2,-18,1,-10,-22
3,-15,-18,5,11,-16,-4,-2,-18,1,-11,-22
3,-15,-18,5,11,-16,-4,-3,-19,0,-11,-22
3,-15,-18,5,11,-16,-4,-3,-19,0,-12,-22
3,-15,-18,5,11,-16,-4,-4,-19,0,-12,-23
3,-15,-18,5,10,-16,-4,-4,-19,0,-12,-23
3,-15,-18,5,10,-16,-4,-5,-19,0,-13,-23
2,-16,-18,6,9,-17,-4,-5,-19,0,-13,-23
2,-16,-18,7,9,-17,-4,-5,-19,0,-13,-23
2,-16,-18,7,9,-17,-4,-5,-19,0,-14,-23
2,-17,-18,7,9,-17,-4,-5,-19,-1,-14,-23
1,-17,-19,7,9,-18,-3,-5,-19,-1,-13,-23
1,-17,-18,7,9,-18,-3,-5,-19,-1,-13,-24
1,-17,-18,7,9,-18,-3,-5,-19,-1,-12,-25
1,-17,-18,7,9,-18,-3,-5,-18,-1,-12,-25
1,-17,-18,7,9,-18,-3,-5,-18,-1,-12,-25
1,-17,-18,7,10,-18,-3,-5,-17,-1,-12,-25
1,-17,-19,7,10,-18,-3,-5,-17,-1,-12,-25
1,-17,-19,7,10,-18,-3,-5,-17,-1,-12,-25
1,-17,-19,7,10,-18,-3,-5,-17,0,-12,-25
1,-18,-19,7,10,-18,-3,-6,-17,0,-12,-25
2,-18,-20,8,10,-19,-3,-6,-17,0,-12,-25
2,-18,-19,8,10,-19,-2,-6,-17,1,-12,-25
2,-18,-19,8,10,-19,-2,-6,-17,1,-12,-25
2,-18,-19,8,9,-18,-2,-6,-16,1,-12,-25
2,-18,-19,8,9,-18,-2,-6,-16,1,-12,-25
1,-17,-18,8,9,-18,-2,-6,-16,1,-12,-25
1,-17,-18,7,9,-18,-2,-6,-16,1,-12,-25
1,-17,-18,7,9,-17,-2,-6,-16,1,-12,-25
1,-16,-17,7,9,-17,-3,-6,-16,2,-12,-25
2,-16,-17,6,9,-17,-3,-6,-15,2,-12,-25
2,-15,-17,6,9,-16,-3,-6,-15,2,-12,-25
2,-14,-16,6,9,-15,-4,-6,-15,2,-12,-26
2,-13,-15,5,9,-14,-4,-6,-16,2,-12,-26
2,-13,-16,5,9,-15,-4,-6,-15,2,-12,-25
3,-14,-16,5,9,-15,-4,-6,-15,3,-12,-25
3,-14,-16,5,9,-15,-4,-7,-15,3,-12,-25
2,-14,-16,5,8,-15,-5,-7,-15,3,-12,-26
2,-14,-16,6,8,-15,-5,-7,-16,3,-12,-27
2,-14,-17,6,8,-16,-5,-7,-15,3,-12,-27
2,-15,-17,7,8,-16,-5,-6,-15,3,-12,-27
1,-15,-17,7,8,-16,-5,-5,-14,3,-12,-27
1,-16,-16,8,8,-16,-5,-4,-12,4,-12,-27
0,-16,-16,8,7,-16,-4,-3,-10,5,-11,-26
0,-15,-15,7,7,-15,-3,-1,-7,8,-10,-26
0,-15,-15,7,7,-15,-2,1,-3,12,-8,-25
1,-15,-16,7,8,-16,-1,5,1,16,-5,-24
1,-16,-17,7,9,-17,0,10,6,21,-2,-23
2,-18,-20,7,10,-19,0,15,12,26,0,-22
3,-19,-22,7,11,-20,2,21,19,33,4,-21
4,-19,-23,6,13,-21,3,28,28,43,12,-17
7,-19,-25,5,16,-22,3,36,39,57,23,-12
11,-17,-27,3,18,-22,4,45,51,71,36,-4
15,-14,-29,0,21,-22,4,54,62,86,50,5
20,-10,-30,-4,24,-20,2,60,72,101,67,16
26,-4,-31,-10,28,-18,0,66,81,116,84,29
33,1,-31,-17,31,-15,-3,69,88,131,102,44
38,8,-30,-23,33,-10,-8,64,87,139,117,57
40,15,-25,-27,32,-4,-12,49,75,134,122,65
37,17,-20,-27,28,-1,-15,27,51,114,113,64
30,12,-17,-21,24,-2,-14,5,21,81,87,49
20,4,-16,-12,18,-6,-12,-17,-14,36,45,23
11,-3,-14,-3,12,-9,-10,-40,-54,-16,-3,-6
3,-9,-12,3,7,-11,-10,-62,-90,-62,-46,-32
-1,-15,-14,8,5,-15,-11,-77,-118,-96,-78,-52
-3,-22,-19,12,6,-20,-11,-86,-136,-116,-99,-66
-6,-28,-22,17,6,-25,-12,-89,-145,-126,-110,-76
-8,-32,-23,20,6,-28,-13,-87,-145,-126,-113,-80
-9,-31,-21,20,5,-27,-14,-82,-139,-118,-109,-79
-9,-29,-19,19,4,-24,-16,-74,-129,-107,-100,-75
-9,-26,-16,17,3,-21,-17,-66,-118,-94,-91,-70
-8,-22,-13,15,2,-18,-18,-58,-107,-82,-81,-64
-8,-18,-10,13,1,-14,-19,-50,-95,-71,-71,-58
-7,-14,-8,10,0,-11,-19,-43,-84,-61,-62,-52
-6,-11,-5,8,-1,-8,-20,-37,-74,-51,-54,-47
-5,-9,-4,6,-1,-6,-19,-30,-65,-42,-46,-43
-4,-8,-4,5,-1,-6,-18,-23,-55,-32,-40,-40
-3,-8,-4,5,0,-6,-16,-16,-46,-24,-34,-37
-3,-8,-5,5,0,-6,-15,-11,-38,-17,-29,-34
-2,-8,-5,5,1,-7,-14,-6,-32,-11,-25,-31
-2,-8,-6,5,1,-7,-13,-3,-28,-8,-22,-29
-2,-8,-6,5,1,-7,-12,-1,-25,-5,-20,-27
-2,-7,-5,4,1,-6,-12,-1,-23,-4,-18,-25
-2,-7,-4,4,0,-5,-11,-1,-22,-3,-17,-24
-2,-6,-3,4,0,-5,-11,-2,-21,-2,-17,-24
-2,-6,-3,4,0,-4,-12,-3,-21,-2,-16,-24
-2,-5,-2,4,0,-4,-12,-4,-20,-1,-16,-24
-2,-5,-2,3,0,-3,-12,-4,-20,-1,-15,-24
-3,-4,-1,3,0,-3,-12,-4,-19,0,-14,-23
-3,-4,-1,3,-1,-2,-12,-4,-19,0,-14,-23
-3,-3,-1,2,-1,-2,-12,-4,-19,0,-13,-23
-3,-2,0,2,-2,-1,-12,-4,-18,0,-13,-22
-3,-2,0,2,-2,-1,-12,-3,-18,0,-13,-21
-3,-2,0,2,-2,-1,-12,-3,-17,0,-12,-21
-3,-2,0,2,-2,-1,-12,-4,-17,0,-12,-21
-3,-2,0,2,-2,-1,-12,-4,-17,0,-12,-21
-3,-2,1,2,-2,-1,-12,-5,-17,0,-12,-20
-3,-1,2,2,-3,0,-12,-5,-17,0,-12,-20
-3,-1,2,2,-3,0,-13,-6,-17,0,-11,-20
-3,-1,2,2,-4,0,-13,-6,-17,0,-11,-20
-3,-1,3,2,-4,1,-14,-7,-17,0,-11,-20
-3,0,3,2,-4,1,-14,-7,-17,-1,-11,-20
-3,0,4,1,-4,2,-14,-8,-17,-1,-12,-19
-3,1,5,1,-4,3,-14,-8,-18,-1,-12,-19
-3,2,6,0,-5,4,-15,-8,-18,-1,-12,-19
-3,2,6,0,-5,4,-15,-8,-18,-1,-12,-18
-3,3,6,0,-5,4,-15,-8,-18,-1,-11,-18
-4,4,7,0,-6,5,-15,-9,-18,-2,-11,-18
-4,5,9,0,-7,7,-15,-9,-18,-2,-11,-18
-4,5,9,0,-7,7,-15,-10,-17,-2,-11,-18
-4,4,8,0,-7,6,-15,-10,-16,-2,-10,-17
-4,5,9,0,-7,7,-15,-11,-16,-3,-9,-16
-4,6,10,-1,-8,8,-15,-11,-16,-3,-10,-15
-4,8,12,-2,-9,10,-15,-11,-16,-4,-10,-14
-4,9,13,-2,-9,11,-15,-11,-17,-5,-10,-13
-4,10,14,-3,-10,12,-16,-12,-17,-5,-10,-13
-4,11,15,-3,-10,13,-16,-12,-18,-5,-9,-12
-4,12,16,-4,-11,14,-17,-13,-19,-6,-9,-12
-4,13,17,-4,-11,15,-17,-14,-20,-6,-9,-11
-4,14,18,-5,-12,16,-17,-14,-21,-7,-9,-10
-4,15,19,-6,-12,17,-17,-15,-22,-7,-8,-10
-4,17,21,-7,-12,19,-17,-16,-23,-7,-8,-9
-4,18,22,-8,-13,20,-18,-16,-23,-7,-7,-8
-4,19,23,-8,-13,21,-18,-16,-24,-7,-6,-7
-3,21,24,-9,-14,22,-18,-17,-24,-8,-5,-6
-3,22,25,-9,-14,23,-18,-17,-24,-8,-5,-5
-4,22,26,-9,-15,24,-19,-18,-24,-9,-4,-5
-4,22,27,-10,-15,25,-19,-18,-24,-9,-4,-5
-4,23,28,-10,-16,26,-19,-18,-24,-9,-3,-4
-4,24,29,-10,-16,27,-19,-18,-25,-9,-2,-3
-4,25,30,-11,-17,28,-20,-19,-25,-9,-2,-2
-4,27,31,-11,-17,29,-20,-19,-26,-10,-1,-1
-4,28,32,-12,-18,30,-21,-20,-27,-10,-1,0
-4,29,33,-12,-19,31,-21,-20,-28,-11,0,0
-4,30,35,-13,-19,33,-21,-21,-28,-11,0,1
-4,32,36,-14,-20,34,-22,-22,-28,-12,0,3
-4,33,37,-15,-20,35,-22,-23,-28,-12,1,4
-4,35,39,-16,-21,37,-23,-24,-29,-13,1,6
-4,37,41,-17,-22,39,-23,-25,-30,-13,2,7
-4,39,43,-17,-23,41,-24,-26,-31,-13,2,8
-4,40,44,-18,-24,43,-24,-27,-32,-13,3,9
-4,42,46,-19,-25,44,-24,-27,-32,-14,3,11
-4,43,47,-20,-26,45,-24,-28,-33,-14,4,12
-4,44,48,-21,-26,47,-24,-29,-33,-14,5,14
-4,46,50,-22,-27,48,-25,-30,-33,-15,5,15
-4,48,51,-23,-27,50,-25,-30,-34,-15,6,17
-3,50,53,-24,-28,51,-25,-31,-34,-15,6,18
-3,51,54,-24,-28,53,-25,-31,-34,-15,7,19
-3,52,55,-24,-29,54,-25,-31,-34,-15,8,20
-3,53,56,-25,-29,55,-25,-31,-35,-15,9,21
-2,54,57,-26,-30,56,-25,-32,-35,-15,11,22
-2,56,58,-27,-30,57,-26,-32,-34,-15,12,23
-2,58,60,-29,-31,59,-26,-33,-34,-15,13,24
-1,60,61,-30,-31,60,-26,-33,-33,-15,14,25
0,62,62,-31,-31,61,-26,-33,-33,-15,15,26
0,62,63,-32,-31,63,-27,-34,-32,-15,16,27
0,63,64,-32,-32,64,-27,-34,-32,-15,16,27
0,64,64,-32,-33,64,-28,-34,-31,-14,17,27
0,64,65,-32,-33,65,-28,-34,-31,-14,18,28
0,65,65,-33,-33,65,-28,-33,-30,-13,18,29
0,65,66,-33,-33,65,-28,-33,-29,-12,19,29
0,66,66,-33,-33,66,-28,-32,-29,-11,20,30
0,66,66,-33,-33,66,-28,-32,-28,-10,20,30
0,67,66,-34,-33,67,-27,-31,-27,-10,21,31
0,67,66,-34,-33,67,-27,-30,-26,-9,22,31
1,67,66,-34,-33,67,-27,-29,-26,-9,22,31
1,67,66,-34,-32,66,-27,-28,-25,-8,23,32
1,67,65,-34,-32,66,-27,-27,-24,-7,23,32
2,67,65,-34,-31,66,-27,-27,-24,-6,23,32
2,67,64,-34,-31,66,-27,-26,-23,-5,23,32
2,67,64,-35,-31,66,-27,-25,-22,-4,23,32
3,67,64,-35,-31,66,-26,-24,-21,-4,23,32
3,66,63,-35,-30,65,-26,-23,-19,-3,24,32
4,65,62,-35,-29,64,-25,-22,-18,-2,24,32
4,64,60,-34,-28,62,-25,-20,-17,-2,24,31
5,63,58,-34,-27,61,-24,-19,-16,-1,24,30
5,62,56,-34,-26,59,-24,-17,-15,-1,24,30
5,60,54,-33,-24,57,-23,-16,-14,0,24,29
5,58,51,-32,-23,55,-23,-14,-13,0,24,29
6,57,49,-32,-22,53,-22,-13,-12,0,24,28
6,56,48,-31,-21,52,-22,-12,-11,0,24,27
6,54,46,-31,-20,51,-21,-11,-10,1,24,25
6,52,44,-29,-20,49,-21,-10,-9,2,23,24
6,49,42,-28,-19,46,-20,-9,-8,3,22,22
6,47,40,-27,-18,44,-19,-8,-7,3,21,21
6,45,38,-26,-16,42,-19,-7,-6,4,20,19
6,43,36,-26,-15,40,-18,-6,-5,4,19,17
6,41,33,-25,-13,38,-18,-5,-4,4,19,15
6,39,31,-24,-12,36,-17,-4,-3,5,18,13
6,37,29,-23,-11,34,-17,-3,-2,5,17,12
7,35,27,-21,-10,31,-16,-2,-2,6,16,10
7,33,25,-20,-9,29,-15,-1,-1,6,15,8
7,31,23,-19,-8,27,-14,0,-1,7,14,6
7,28,20,-18,-7,25,-13,1,0,7,13,5
7,26,18,-17,-6,22,-13,1,0,8,12,3
7,24,16,-16,-5,20,-12,1,0,8,11,2
7,22,15,-15,-4,18,-12,1,1,8,9,0
7,20,13,-14,-3,17,-12,1,1,8,8,-1
7,18,11,-13,-2,15,-11,2,1,8,7,-3
7,16,9,-12,-1,13,-11,2,2,7,6,-5
7,14,6,-11,0,10,-10,2,2,7,5,-7
7,11,3,-9,1,7,-9,2,2,7,5,-8
7,8,1,-8,2,5,-8,3,2,6,4,-10
7,6,-1,-7,3,2,-7,3,2,6,2,-11
6,4,-2,-6,3,0,-7,3,1,5,1,-12
6,2,-3,-4,4,-1,-6,3,1,5,0,-13
5,1,-5,-3,4,-2,-6,3,1,5,0,-14
5,0,-6,-2,5,-3,-6,3,0,4,-1,-15
4,-2,-7,-2,5,-4,-6,3,0,4,-2,-16
4,-3,-8,-1,5,-5,-5,3,0,4,-3,-17
4,-3,-8,-1,6,-6,-5,3,0,3,-4,-18
4,-4,-9,-1,6,-6,-4,3,-1,3,-5,-18
4,-4,-9,0,6,-7,-4,3,-1,3,-6,-18
3,-6,-10,0,6,-8,-4,3,-2,2,-7,-19
2,-7,-10,2,6,-9,-4,3,-2,2,-8,-20
2,-8,-11,3,6,-9,-4,3,-3,1,-9,-21
1,-9,-11,3,6,-10,-4,3,-3,1,-9,-22
1,-9,-11,4,6,-10,-4,4,-4,0,-10,-23
0,-10,-11,4,6,-10,-4,4,-5,0,-10,-24
0,-10,-11,4,6,-10,-4,5,-6,0,-11,-25
0,-10,-11,5,6,-10,-4,5,-6,-1,-11,-26
0,-11,-11,5,6,-11,-4,6,-6,-1,-11,-26
0,-11,-11,5,6,-11,-4,6,-7,-1,-11,-26
0,-12,-11,5,6,-12,-4,6,-7,-2,-12,-26
0,-12,-11,5,6,-12,-4,6,-7,-2,-12,-26
0,-12,-12,5,6,-12,-4,5,-7,-3,-13,-26
0,-12,-12,5,6,-12,-4,5,-7,-3,-13,-26
0,-12,-13,6,6,-12,-3,5,-8,-4,-13,-26
0,-12,-13,6,6,-12,-3,5,-8,-4,-13,-26
0,-12,-13,6,6,-12,-3,4,-8,-5,-13,-26
0,-13,-13,6,6,-12,-3,4,-8,-5,-13,-26
0,-13,-13,6,6,-13,-3,4,-9,-5,-13,-26
0,-13,-13,6,6,-13,-3,3,-9,-5,-13,-26
0,-13,-13,6,6,-13,-3,3,-9,-5,-14,-26
0,-13,-13,6,6,-13,-3,3,-9,-5,-14,-26
0,-12,-13,6,6,-13,-3,3,-9,-5,-15,-26
0,-12,-13,5,6,-12,-3,3,-9,-5,-15,-26
0,-11,-12,5,6,-12,-3,3,-9,-5,-15,-26
0,-11,-12,5,6,-12,-3,3,-9,-5,-15,-25
0,-11,-12,5,6,-12,-3,3,-8,-4,-15,-25
0,-11,-12,5,6,-12,-3,3,-8,-4,-15,-25
0,-12,-12,5,6,-12,-3,3,-8,-4,-15,-25
0,-12,-12,6,6,-12,-3,4,-8,-4,-15,-24
-1,-12,-12,6,6,-12,-3,4,-8,-3,-15,-24
-1,-13,-12,7,6,-12,-3,4,-8,-2,-15,-24
-1,-13,-13,7,6,-13,-3,4,-8,-2,-15,-24
-1,-13,-13,7,6,-13,-3,4,-8,-2,-14,-24
-1,-14,-13,7,6,-14,-3,4,-8,-2,-14,-24
-1,-14,-13,7,6,-14,-3,4,-7,-2,-14,-23
-1,-14,-13,7,6,-14,-3,5,-7,-1,-14,-23
-1,-14,-13,7,6,-13,-3,5,-6,-1,-14,-23
-1,-14,-13,7,6,-13,-3,6,-6,0,-14,-23
-1,-14,-14,7,7,-14,-3,7,-6,0,-14,-23
-1,-14,-14,7,7,-14,-3,8,-6,0,-13,-23
0,-14,-14,7,7,-14,-3,8,-5,1,-13,-23
0,-13,-14,6,7,-14,-3,8,-5,1,-13,-23
0,-13,-14,6,7,-14,-3,8,-5,1,-13,-23
0,-13,-14,6,7,-13,-3,8,-5,1,-13,-23
0,-12,-14,5,7,-13,-3,7,-5,1,-13,-24
0,-12,-13,5,7,-12,-3,7,-5,1,-13,-24
0,-12,-13,5,7,-12,-3,8,-5,1,-13,-24
0,-12,-13,5,7,-12,-3,8,-4,1,-13,-24
0,-11,-13,5,6,-12,-3,8,-4,0,-13,-24
0,-11,-13,5,6,-12,-3,8,-4,0,-13,-24
0,-12,-13,5,6,-13,-2,9,-4,-1,-13,-23
0,-12,-14,6,6,-13,-2,9,-4,-1,-13,-22
0,-12,-14,6,6,-13,-2,9,-3,-1,-12,-22
0,-12,-13,5,6,-12,-2,9,-3,-1,-12,-21
0,-11,-13,5,6,-12,-2,9,-3,-1,-11,-21
0,-10,-12,4,6,-11,-2,9,-3,-1,-11,-21
0,-11,-12,5,6,-12,-3,9,-3,-1,-11,-21
0,-13,-13,6,6,-13,-3,10,-2,-1,-11,-20
0,-14,-14,6,6,-14,-3,10,-2,-1,-11,-20
0,-14,-14,6,6,-14,-3,10,-2,-1,-11,-21
0,-14,-14,6,6,-14,-3,10,-2,-1,-12,-21
-1,-14,-14,7,6,-14,-3,10,-2,0,-12,-21
-1,-14,-14,7,6,-14,-3,10,-2,0,-12,-21
-1,-14,-14,7,6,-14,-3,10,-2,0,-12,-21
-1,-14,-14,7,6,-14,-3,10,-2,0,-12,-21
-1,-14,-14,6,6,-14,-3,10,-2,0,-12,-21
-1,-14,-14,6,6,-14,-3,10,-2,0,-12,-21
-1,-14,-14,7,6,-14,-3,9,-2,0,-12,-21
-1,-14,-14,7,6,-14,-3,9,-2,-1,-12,-21
-1,-14,-14,7,6,-14,-3,9,-2,-1,-12,-21
-1,-14,-14,7,6,-14,-3,9,-2,-1,-12,-20
-1,-14,-14,7,6,-14,-3,9,-2,-1,-12,-20
-1,-14,-14,7,6,-14,-3,9,-2,-1,-12,-20
-1,-14,-13,7,6,-13,-3,9,-2,-1,-12,-19
-1,-13,-13,7,6,-13,-3,10,-2,-2,-12,-19
-1,-13,-13,7,6,-13,-4,10,-2,-2,-12,-18
-1,-13,-13,6,6,-13,-4,10,-2,-2,-12,-18
0,-13,-13,6,6,-13,-4,10,-3,-3,-12,-17
0,-13,-13,6,6,-13,-4,10,-3,-3,-12,-17
0,-13,-13,6,6,-13,-4,10,-3,-4,-12,-17
0,-13,-13,6,6,-13,-4,10,-3,-4,-12,-17
0,-13,-12,6,6,-12,-4,10,-4,-5,-12,-17
0,-13,-12,6,6,-12,-4,10,-4,-5,-12,-16
0,-13,-13,6,6,-13,-3,10,-4,-6,-12,-16
-1,-14,-13,7,6,-14,-3,10,-4,-6,-12,-16
-2,-14,-13,8,6,-14,-3,10,-4,-6,-13,-17
-2,-15,-13,8,6,-14,-3,10,-5,-6,-13,-17
-2,-15,-13,8,6,-14,-3,10,-5,-6,-13,-17
-2,-16,-14,8,6,-14,-3,10,-5,-6,-13,-17
-2,-16,-14,8,6,-15,-3,10,-5,-7,-13,-18
-2,-16,-14,8,6,-15,-3,10,-5,-7,-13,-18
-2,-16,-14,8,6,-15,-3,10,-5,-8,-13,-19
-2,-16,-14,8,6,-14,-3,10,-6,-8,-13,-19
-2,-15,-14,8,6,-14,-3,10,-6,-8,-14,-20
-2,-15,-14,8,6,-14,-3,10,-6,-9,-14,-20
-2,-15,-13,8,6,-14,-3,9,-6,-9,-14,-20
-2,-15,-13,8,6,-14,-3,9,-6,-9,-14,-20
-2,-14,-13,7,5,-13,-3,9,-7,-10,-14,-20
-2,-14,-13,7,5,-13,-3,9,-7,-10,-14,-20
-2,-14,-13,7,5,-14,-3,9,-7,-11,-14,-20
-2,-15,-14,8,5,-14,-3,9,-7,-11,-15,-20
-2,-15,-14,8,5,-14,-3,9,-7,-11,-15,-20
-2,-15,-13,9,5,-14,-3,9,-7,-11,-15,-19
-2,-15,-13,9,5,-14,-4,9,-7,-11,-15,-19
-2,-15,-13,9,5,-14,-4,9,-7,-11,-15,-18
-2,-15,-13,9,5,-14,-4,9,-7,-11,-15,-18
-2,-15,-13,9,5,-14,-4,9,-7,-11,-15,-17
-2,-14,-12,8,5,-13,-4,9,-7,-11,-15,-17
-2,-13,-12,8,5,-13,-4,9,-7,-10,-15,-16
-2,-13,-12,8,5,-13,-4,9,-7,-10,-15,-16
-2,-13,-12,8,5,-13,-4,9,-8,-10,-15,-16
-2,-13,-11,8,4,-12,-5,8,-8,-10,-16,-16
-3,-14,-11,8,4,-12,-5,8,-9,-10,-16,-17
-3,-14,-11,8,4,-12,-5,8,-9,-10,-16,-17
-3,-14,-11,8,3,-12,-5,8,-9,-10,-16,-17
-3,-14,-11,8,3,-12,-5,8,-9,-10,-16,-17
-3,-14,-11,8,3,-12,-5,8,-9,-10,-16,-17
-3,-14,-11,8,3,-12,-5,8,-9,-10,-17,-17
-3,-14,-11,8,3,-12,-5,8,-9,-10,-17,-17
-3,-13,-11,7,3,-12,-5,8,-9,-11,-17,-17
-3,-13,-11,7,3,-12,-5,8,-9,-11,-17,-16
-3,-12,-11,7,3,-12,-4,8,-9,-11,-17,-16
-3,-12,-11,7,3,-12,-4,8,-8,-11,-16,-16
-3,-12,-11,7,3,-12,-3,9,-8,-11,-16,-15
-3,-13,-11,7,3,-12,-3,9,-7,-10,-15,-14
-3,-13,-11,7,3,-11,-2,9,-7,-10,-15,-14
-3,-13,-10,7,4,-11,-2,9,-7,-9,-15,-14
-2,-12,-10,7,4,-11,-1,9,-7,-9,-15,-14
-2,-12,-10,6,4,-11,-1,9,-7,-9,-15,-14
-1,-11,-9,5,4,-10,-1,9,-7,-9,-15,-13
-1,-9,-8,4,3,-9,-1,9,-6,-9,-14,-13
-1,-7,-7,3,3,-7,-1,9,-6,-9,-14,-13
-1,-7,-6,3,2,-6,-1,9,-6,-9,-14,-12
-1,-7,-7,3,3,-7,-1,10,-5,-8,-14,-12
-1,-8,-7,3,3,-7,-1,10,-5,-8,-13,-12
-1,-8,-7,3,3,-7,-1,11,-5,-8,-13,-12
-1,-8,-7,3,3,-7,-1,11,-5,-8,-13,-12
-1,-8,-8,3,3,-7,-1,11,-4,-8,-13,-11
-1,-8,-8,3,3,-8,-1,12,-4,-8,-13,-11
0,-8,-9,3,4,-8,-1,12,-4,-8,-12,-10
0,-8,-9,3,4,-8,-1,13,-4,-8,-12,-9
0,-8,-9,3,4,-8,-2,13,-4,-7,-12,-9
0,-8,-9,3,4,-8,-3,13,-4,-7,-11,-8
0,-8,-9,3,4,-8,-4,13,-4,-7,-11,-8
0,-8,-9,3,4,-8,-5,13,-4,-7,-11,-8
0,-7,-9,3,4,-8,-5,12,-4,-7,-11,-8
0,-7,-8,2,4,-7,-6,12,-5,-8,-11,-7
1,-6,-8,2,4,-7,-6,11,-5,-8,-11,-7
1,-6,-8,1,4,-7,-7,11,-6,-9,-11,-7
2,-5,-8,1,4,-6,-8,10,-6,-9,-11,-7
2,-5,-8,0,4,-6,-8,10,-6,-10,-11,-7
2,-4,-7,0,4,-5,-9,9,-7,-10,-12,-7
2,-4,-7,0,4,-5,-9,9,-7,-11,-12,-7
2,-4,-7,0,5,-5,-10,9,-7,-12,-13,-7
2,-4,-8,0,5,-5,-10,9,-7,-12,-13,-7
2,-4,-8,0,5,-6,-10,9,-7,-12,-13,-7
3,-5,-9,0,5,-6,-10,9,-7,-12,-13,-7
3,-6,-9,0,5,-7,-9,9,-7,-12,-13,-6
3,-6,-9,0,5,-8,-9,9,-7,-12,-13,-6
3,-6,-9,0,5,-8,-8,9,-7,-12,-13,-6
3,-6,-9,0,5,-8,-8,9,-7,-12,-13,-6
3,-7,-10,1,5,-8,-7,9,-7,-12,-13,-6
3,-7,-10,1,5,-9,-7,9,-7,-11,-13,-5
3,-7,-10,1,6,-9,-7,9,-7,-11,-13,-5
3,-7,-11,1,6,-9,-7,9,-7,-11,-13,-5
3,-7,-11,1,7,-9,-7,9,-8,-11,-13,-5
2,-8,-11,2,6,-9,-6,9,-8,-11,-13,-6
1,-9,-11,3,6,-9,-6,9,-8,-12,-13,-6
1,-10,-12,4,6,-10,-5,9,-8,-12,-14,-6
0,-12,-12,5,6,-11,-5,9,-8,-13,-15,-7
0,-13,-12,6,6,-12,-4,9,-8,-13,-15,-8
-1,-13,-12,7,5,-13,-4,9,-8,-14,-16,-8
-2,-14,-12,7,5,-13,-4,10,-8,-14,-16,-8
-2,-14,-12,7,4,-13,-3,10,-8,-15,-17,-9
-3,-14,-12,7,4,-13,-3,10,-8,-15,-17,-10
-3,-14,-12,8,4,-13,-2,10,-8,-15,-17,-10
-3,-15,-12,8,4,-13,-2,10,-8,-15,-17,-11
-3,-15,-13,8,5,-14,-2,10,-8,-15,-17,-11
-3,-16,-14,9,5,-15,-2,11,-8,-15,-17,-12
-3,-17,-14,9,5,-15,-1,11,-8,-15,-17,-12
-3,-17,-14,9,5,-15,-1,11,-8,-15,-17,-12
-3,-16,-14,9,5,-15,-1,11,-8,-15,-17,-12
-3,-16,-14,9,5,-15,-1,13,-8,-15,-17,-12
-3,-16,-14,9,5,-15,-1,17,-8,-15,-17,-12
-3,-16,-14,9,5,-14,-1,20,-8,-15,-17,-12
-3,-16,-13,9,4,-14,-1,22,-8,-15,-17,-12
-3,-16,-13,9,4,-14,-1,24,-8,-15,-17,-12
-4,-17,-13,10,4,-14,0,26,-8,-15,-17,-12
-4,-18,-13,10,4,-15,0,28,-8,-15,-17,-12
-5,-17,-12,11,4,-15,0,29,-8,-15,-17,-12
-5,-17,-12,11,4,-15,0,29,-8,-15,-17,-12
-4,-17,-13,11,4,-15,0,30,-8,-15,-17,-12
-4,-17,-13,11,4,-15,0,30,-7,-16,-17,-12
-4,-17,-13,10,4,-14,0,30,-7,-16,-17,-13
-4,-17,-13,10,4,-14,0,30,-7,-16,-17,-13
-4,-17,-13,10,4,-15,1,31,-6,-16,-17,-14
-4,-18,-13,11,4,-15,1,32,-6,-15,-17,-14
-4,-18,-13,11,4,-15,1,33,-6,-15,-17,-14
-4,-18,-13,11,4,-15,1,33,-6,-15,-17,-15
-4,-18,-13,11,4,-15,1,34,-6,-15,-17,-15
-5,-18,-13,11,4,-15,2,34,-5,-15,-17,-16
-5,-18,-13,11,4,-15,2,34,-5,-15,-17,-16
-5,-18,-13,11,4,-15,2,34,-5,-15,-16,-16
-5,-17,-13,11,4,-15,2,35,-5,-15,-16,-16
-5,-17,-13,11,4,-15,2,36,-5,-15,-16,-17
-5,-17,-13,10,4,-15,2,37,-5,-14,-16,-17
-5,-17,-13,10,5,-15,2,38,-5,-14,-15,-17
-4,-17,-14,10,5,-15,2,37,-5,-14,-15,-17
-4,-17,-14,10,5,-16,2,37,-5,-14,-15,-17
-4,-18,-15,11,5,-16,2,36,-5,-14,-15,-17
-4,-19,-15,11,5,-17,3,36,-5,-14,-15,-17
-5,-19,-15,11,5,-17,3,36,-5,-14,-15,-17
-5,-19,-14,11,5,-16,3,37,-4,-13,-15,-17
-6,-19,-14,12,4,-16,3,38,-2,-12,-14,-17
-6,-19,-14,12,4,-16,4,39,0,-11,-13,-17
-6,-18,-13,12,3,-15,5,41,2,-8,-11,-16
-6,-17,-12,11,3,-14,6,44,6,-4,-9,-14
-5,-16,-13,11,3,-14,7,48,10,0,-6,-13
-4,-18,-15,11,5,-16,8,53,15,6,-3,-13
-3,-21,-19,12,7,-20,9,60,21,11,0,-12
-2,-23,-22,12,9,-23,11,67,28,18,4,-11
0,-23,-24,11,11,-24,12,75,37,28,12,-7
2,-22,-25,9,13,-23,13,83,47,41,23,-1
6,-19,-26,6,15,-22,13,91,58,54,35,6
10,-15,-27,2,18,-21,13,98,68,68,49,16
16,-12,-29,-2,22,-21,11,104,77,83,65,27
23,-7,-31,-8,27,-19,9,108,85,98,82,40
30,-1,-32,-15,31,-17,5,110,91,111,99,54
35,6,-30,-20,32,-12,0,103,89,117,111,65
35,11,-25,-23,30,-7,-4,87,75,109,114,72
31,12,-20,-22,26,-4,-6,66,51,88,102,68
23,7,-17,-15,20,-5,-5,44,20,54,74,51
12,0,-14,-6,13,-7,-2,22,-17,7,31,23
2,-7,-10,2,6,-8,0,-1,-58,-44,-14,-6
-6,-12,-7,9,0,-9,0,-23,-94,-87,-53,-31
-11,-18,-9,14,-1,-13,-1,-37,-121,-117,-80,-50
-13,-25,-13,19,0,-20,-2,-44,-138,-135,-99,-64
-15,-31,-18,23,1,-25,-3,-45,-146,-143,-108,-73
-16,-34,-19,24,1,-26,-4,-42,-145,-141,-109,-75
-17,-33,-17,24,0,-25,-5,-35,-137,-132,-103,-72
-17,-30,-15,23,0,-22,-7,-27,-127,-121,-94,-68
-16,-27,-12,22,-1,-20,-8,-18,-115,-109,-84,-63
-16,-24,-10,20,-2,-17,-9,-10,-104,-96,-74,-57
-15,-20,-7,17,-4,-13,-9,-3,-92,-84,-64,-51
-14,-16,-4,14,-5,-10,-9,4,-80,-73,-55,-44
-13,-13,-2,12,-5,-8,-8,10,-70,-63,-47,-39
-12,-11,-1,11,-6,-6,-7,17,-59,-54,-39,-34
-11,-10,0,10,-6,-5,-6,25,-49,-45,-33,-29
-10,-10,-1,10,-5,-5,-4,32,-41,-37,-27,-26
-9,-9,-1,9,-4,-5,-2,38,-34,-31,-22,-23
-9,-8,-1,9,-4,-5,0,42,-29,-25,-18,-21
-8,-7,0,8,-4,-4,0,44,-25,-21,-15,-19
-8,-6,0,7,-4,-3,1,45,-23,-19,-13,-18
-8,-6,0,7,-5,-3,2,45,-21,-17,-11,-17
-8,-5,1,7,-5,-2,2,44,-20,-16,-10,-16
-8,-5,2,6,-6,-1,2,43,-19,-16,-10,-15
-8,-4,3,6,-6,0,2,42,-19,-15,-9,-15
-9,-3,4,6,-6,0,3,40,-18,-15,-9,-15
-9,-2,5,6,-7,1,3,38,-18,-14,-9,-15
-9,-2,5,6,-7,1,3,36,-18,-13,-8,-15
-9,-1,6,6,-7,2,3,34,-18,-13,-8,-14
-9,-1,6,5,-8,2,3,33,-18,-12,-8,-14
-9,0,7,5,-8,3,3,31,-18,-12,-8,-14
-9,0,7,5,-9,3,3,30,-18,-12,-7,-13
-9,0,8,5,-9,3,3,28,-18,-12,-7,-13
-9,0,8,5,-9,4,3,26,-18,-13,-7,-12
-9,0,8,4,-9,4,3,24,-18,-13,-7,-12
-9,1,9,4,-9,5,3,23,-18,-13,-6,-11
-8,2,9,3,-9,6,3,22,-18,-13,-6,-11
-9,3,9,3,-9,6,2,20,-18,-13,-6,-11
-9,3,10,3,-10,7,2,17,-18,-13,-6,-11
-9,3,10,3,-10,7,1,14,-18,-13,-6,-10
-9,3,11,3,-11,7,1,11,-18,-13,-6,-10
-9,3,11,3,-11,8,1,9,-18,-13,-5,-9
-10,4,12,3,-11,8,1,7,-19,-13,-5,-9
-10,4,12,3,-12,9,1,5,-19,-13,-5,-8
-10,5,13,3,-12,9,1,4,-19,-13,-5,-8
-10,5,13,2,-12,9,0,4,-19,-13,-5,-7
-10,6,14,2,-12,10,0,3,-19,-13,-5,-7
-10,6,14,1,-12,10,0,2,-19,-13,-4,-6
-10,7,15,1,-13,11,-1,0,-19,-13,-4,-5
-10,7,15,1,-13,11,-1,-1,-19,-13,-4,-5
-10,8,16,1,-13,12,-2,-2,-19,-13,-3,-5
-10,8,17,1,-14,12,-2,-4,-19,-13,-3,-5
-10,9,18,0,-14,13,-2,-5,-19,-13,-2,-5
-10,9,19,0,-14,14,-2,-5,-19,-13,-2,-4
-10,10,19,0,-15,15,-3,-6,-20,-13,-2,-4
-10,11,20,0,-15,15,-3,-7,-20,-13,-2,-3
-10,12,21,-1,-16,16,-4,-8,-21,-13,-2,-2
-10,13,22,-1,-16,18,-4,-9,-21,-14,-2,-1
-10,14,22,-1,-16,18,-4,-9,-21,-14,-1,0
-10,14,22,-2,-16,18,-4,-10,-21,-14,-1,1
-10,15,24,-2,-17,19,-5,-10,-22,-14,0,2
-10,16,25,-3,-17,21,-5,-11,-22,-14,0,3
-9,17,26,-4,-18,22,-5,-11,-22,-14,0,3
-9,19,27,-5,-18,23,-5,-12,-22,-14,0,4
-9,20,28,-6,-19,24,-6,-12,-23,-14,0,4
-9,21,29,-6,-19,25,-6,-13,-24,-14,1,4
-9,22,30,-6,-20,26,-7,-14,-24,-15,1,4
-9,22,31,-6,-20,26,-7,-15,-25,-15,2,5
-9,24,32,-7,-21,28,-7,-15,-25,-15,2,5
-9,26,34,-8,-21,30,-8,-16,-26,-15,2,5
-9,27,36,-9,-22,31,-8,-17,-26,-16,3,5
-9,28,36,-9,-22,32,-8,-18,-26,-16,4,6
-9,29,37,-10,-23,33,-9,-19,-26,-16,4,7
-9,30,38,-10,-23,34,-9,-20,-25,-16,5,9
-9,31,38,-11,-24,35,-10,-21,-25,-16,6,11
-9,33,39,-12,-24,36,-10,-22,-25,-16,7,13
-9,34,41,-13,-24,38,-11,-23,-25,-16,7,15
-8,36,43,-14,-25,40,-12,-24,-25,-16,8,16
-8,38,45,-15,-26,42,-12,-25,-25,-16,8,16
-8,39,47,-15,-27,43,-13,-25,-25,-16,9,17
-8,41,48,-16,-28,45,-13,-26,-25,-16,10,18
-8,42,50,-17,-29,46,-13,-27,-25,-17,11,19
-8,44,51,-18,-29,47,-14,-28,-25,-17,11,21
-8,45,52,-19,-30,49,-14,-30,-25,-18,12,22
-8,47,54,-20,-30,50,-15,-31,-25,-18,12,24
-7,48,55,-21,-31,52,-15,-31,-25,-18,13,26
-7,50,56,-21,-31,53,-16,-32,-25,-17,14,28
-7,51,57,-22,-32,54,-16,-32,-24,-17,15,29
-7,52,58,-22,-32,55,-16,-32,-24,-17,16,31
-6,54,58,-23,-32,56,-17,-32,-23,-17,18,33
-5,55,59,-25,-32,57,-17,-33,-23,-16,19,35
-5,56,59,-25,-32,58,-17,-33,-22,-16,20,37
-5,56,60,-26,-33,59,-18,-33,-22,-15,20,39
-5,57,62,-26,-33,60,-19,-33,-21,-15,21,40
-5,59,63,-27,-34,61,-19,-34,-21,-14,22,41
-5,60,64,-28,-34,62,-20,-34,-21,-14,22,42
-5,61,65,-28,-35,63,-20,-34,-21,-13,23,42
-5,62,65,-29,-35,64,-21,-34,-20,-12,23,43
-4,63,66,-29,-35,64,-21,-34,-20,-11,24,43
-4,64,66,-30,-35,65,-22,-34,-19,-10,24,43
-3,65,67,-31,-35,66,-22,-33,-19,-9,24,44
-3,66,67,-32,-35,67,-22,-33,-18,-8,25,44
-3,66,68,-32,-35,67,-22,-32,-18,-7,26,44
-3,66,68,-32,-35,67,-22,-32,-17,-7,27,44
-2,66,67,-32,-35,67,-22,-31,-16,-6,28,44
-2,66,67,-32,-34,67,-21,-30,-16,-5,28,44
-1,66,67,-32,-34,67,-21,-29,-15,-5,29,44
-1,66,67,-32,-34,67,-21,-29,-15,-4,29,44
-1,66,66,-32,-34,66,-21,-28,-15,-3,30,43
-1,65,65,-32,-33,65,-21,-26,-14,-2,30,43
0,64,64,-32,-32,63,-21,-25,-14,-1,31,42
0,64,62,-32,-31,63,-21,-23,-13,0,31,40
0,63,61,-32,-30,62,-20,-22,-13,1,32,38
1,62,59,-31,-29,60,-20,-21,-12,2,32,37
1,61,58,-31,-28,59,-20,-19,-12,3,32,36
2,59,56,-30,-27,58,-19,-18,-11,4,32,35
2,58,55,-30,-26,56,-19,-16,-11,5,32,35
3,57,53,-30,-25,54,-18,-15,-10,5,32,34
3,55,51,-30,-23,52,-18,-13,-9,6,31,34
4,54,49,-30,-22,51,-17,-12,-8,6,31,33
4,53,47,-29,-21,50,-17,-10,-7,7,30,32
4,51,45,-28,-20,48,-16,-8,-7,7,29,32
5,49,42,-27,-18,46,-15,-6,-6,7,29,31
5,45,39,-26,-17,43,-14,-5,-5,8,28,31
4,43,37,-24,-16,40,-14,-4,-5,8,27,30
4,41,36,-23,-16,39,-14,-3,-5,9,26,29
4,39,34,-22,-15,37,-14,-1,-4,9,25,28
4,36,31,-21,-13,34,-13,0,-4,9,25,27
4,33,28,-19,-12,31,-13,1,-3,10,24,26
4,31,25,-18,-11,28,-12,3,-3,10,23,25
4,29,22,-17,-10,26,-12,4,-3,10,22,23
4,26,20,-15,-9,23,-11,4,-3,10,21,22
4,23,18,-14,-7,20,-11,5,-2,11,20,20
5,21,16,-13,-6,18,-10,5,-2,11,19,18
5,19,14,-12,-4,16,-10,6,-2,11,18,16
5,17,12,-12,-3,14,-10,8,-2,11,16,14
5,15,10,-11,-2,12,-9,10,-2,11,15,12
4,14,8,-9,-2,11,-9,12,-2,11,13,10
4,12,7,-8,-1,9,-8,13,-3,11,12,8
4,9,5,-6,-1,7,-8,14,-3,11,11,7
4,6,2,-5,0,5,-7,16,-4,12,10,6
3,4,0,-3,1,2,-6,17,-4,12,10,5
3,1,-1,-2,1,0,-6,19,-4,13,9,5
2,0,-3,-1,2,-2,-5,20,-4,14,8,4
2,-1,-4,-1,3,-3,-5,21,-4,15,7,2
2,-2,-4,0,3,-3,-4,22,-4,16,6,0
2,-3,-5,0,4,-4,-4,22,-4,17,5,-1
2,-4,-6,0,4,-5,-4,22,-4,17,4,-2
2,-5,-7,1,5,-6,-4,22,-5,17,3,-3
2,-6,-8,1,5,-7,-4,22,-5,17,3,-4
2,-7,-9,2,5,-8,-4,22,-6,17,2,-5
1,-8,-10,3,6,-9,-3,22,-7,16,1,-6
1,-9,-11,4,6,-10,-3,22,-8,16,0,-7
0,-10,-11,4,6,-11,-2,22,-9,15,-1,-8
0,-10,-11,5,6,-11,-2,22,-9,15,-2,-9
0,-11,-11,6,6,-11,-2,22,-10,14,-3,-10
-1,-13,-12,7,6,-12,-1,22,-10,14,-3,-10
-1,-14,-13,7,6,-13,-1,22,-10,13,-3,-11
-2,-14,-13,7,5,-13,-1,22,-10,13,-4,-11
-2,-14,-13,7,5,-13,0,23,-11,12,-4,-12
-2,-14,-13,7,5,-13,0,25,-11,12,-5,-12
-2,-14,-13,7,5,-13,0,27,-12,12,-5,-13
-2,-14,-14,7,6,-14,0,29,-12,12,-6,-13
-2,-14,-14,7,6,-14,0,31,-12,12,-6,-14
-2,-15,-14,7,6,-14,0,32,-12,12,-6,-14
-2,-15,-14,7,6,-15,0,33,-12,12,-6,-14
-2,-15,-14,7,6,-15,0,34,-12,12,-6,-14
-2,-16,-15,8,6,-15,0,35,-12,12,-6,-14
-2,-16,-15,8,7,-16,0,36,-12,12,-6,-14
-2,-16,-15,8,7,-16,0,37,-12,12,-6,-14
-1,-16,-15,8,7,-16,0,39,-12,13,-6,-15
-1,-16,-15,8,7,-16,0,41,-12,13,-6,-15
-1,-16,-16,8,7,-16,0,43,-12,13,-6,-14
-1,-16,-16,8,7,-16,0,44,-12,13,-6,-14
-1,-16,-16,8,7,-16,0,45,-11,13,-6,-13
-1,-16,-16,8,7,-16,0,46,-11,13,-7,-13
-1,-16,-16,8,7,-16,0,48,-10,13,-7,-13
-1,-16,-17,8,7,-17,1,50,-9,14,-7,-12
-1,-17,-17,8,7,-17,1,52,-8,14,-6,-12
-1,-17,-17,8,7,-17,1,54,-7,14,-6,-12
-1,-17,-17,8,7,-17,1,55,-7,15,-6,-12
0,-16,-17,8,7,-16,1,56,-6,15,-6,-12
0,-16,-17,8,7,-16,1,56,-6,14,-6,-12
-1,-17,-17,9,7,-16,1,57,-6,14,-6,-12
-1,-17,-17,9,7,-17,1,57,-5,14,-6,-12
-1,-17,-17,9,7,-17,1,58,-5,14,-6,-12
-1,-16,-16,9,7,-16,1,58,-5,14,-6,-12
-1,-16,-16,9,6,-16,1,59,-5,14,-6,-13
-1,-17,-16,10,6,-16,1,59,-5,14,-6,-13
-1,-18,-17,10,7,-17,1,60,-5,14,-6,-13
-1,-18,-17,10,7,-18,1,60,-5,14,-6,-13
-1,-18,-17,10,7,-17,1,61,-5,13,-6,-13
-1,-17,-16,9,7,-17,1,62,-5,13,-5,-13
-1,-17,-16,9,7,-16,1,62,-5,13,-5,-13
-1,-17,-16,9,7,-16,0,63,-6,13,-5,-13
-1,-17,-15,9,7,-16,0,64,-6,13,-5,-14
-1,-16,-15,9,6,-16,0,64,-7,13,-5,-15
-1,-16,-15,8,6,-15,0,64,-7,13,-5,-16
-1,-15,-15,8,6,-15,0,64,-7,12,-5,-17
-1,-15,-15,8,6,-15,0,64,-7,12,-5,-18
-1,-15,-15,8,6,-15,0,65,-7,12,-5,-17
-1,-14,-15,8,6,-15,-1,65,-6,12,-5,-16
-1,-14,-14,8,6,-15,-1,66,-6,12,-5,-16
-1,-14,-14,8,6,-14,-1,66,-6,12,-5,-16
-1,-14,-14,8,6,-14,-1,67,-6,12,-5,-15
-1,-14,-14,8,6,-13,-1,67,-6,11,-5,-15
0,-13,-14,7,6,-13,-1,67,-6,11,-5,-15
0,-13,-13,7,6,-13,-2,68,-5,11,-5,-14
-1,-13,-13,7,5,-13,-2,68,-5,11,-5,-14
-1,-13,-13,7,5,-13,-2,68,-5,11,-5,-14
-1,-13,-13,7,5,-13,-2,68,-5,11,-5,-14
-1,-14,-13,7,5,-14,-2,68,-5,12,-5,-13
-1,-14,-14,7,6,-14,-1,68,-5,12,-5,-13
-1,-14,-14,7,6,-14,-1,68,-5,13,-4,-13
-1,-14,-14,7,6,-14,-1,68,-5,13,-4,-13
-1,-14,-13,7,6,-14,-1,68,-5,13,-4,-12
-1,-14,-13,7,6,-14,-1,68,-5,13,-4,-12
-1,-14,-14,7,6,-14,-1,68,-5,13,-4,-12
-1,-14,-14,7,6,-14,-1,66,-5,13,-5,-12
-1,-14,-14,7,6,-14,-1,63,-5,13,-5,-12
-1,-14,-14,7,6,-14,-1,62,-5,13,-5,-12
-1,-14,-14,7,6,-14,-1,61,-5,13,-5,-12
-1,-14,-14,7,6,-14,-1,60,-5,13,-5,-12
-1,-14,-14,7,6,-14,-1,60,-5,12,-6,-12
0,-14,-14,7,6,-14,-1,59,-5,12,-6,-12
0,-13,-14,7,6,-14,-1,59,-5,11,-7,-12
0,-13,-14,7,6,-13,-1,58,-6,11,-7,-12
0,-14,-14,7,6,-14,-1,58,-6,11,-7,-12
0,-14,-15,7,6,-14,-1,58,-6,11,-7,-13
0,-14,-15,7,6,-14,-1,58,-6,11,-7,-13
0,-15,-15,8,6,-15,-1,58,-6,11,-7,-14
0,-15,-16,8,7,-15,-1,58,-6,10,-7,-14
0,-15,-16,8,7,-15,-1,58,-6,10,-7,-14
0,-15,-16,8,7,-15,-1,58,-6,10,-7,-14
0,-15,-16,8,7,-15,-1,58,-6,10,-6,-14
0,-15,-16,8,7,-15,-1,57,-6,10,-6,-15
0,-15,-16,8,7,-15,-1,57,-7,9,-6,-15
0,-15,-15,7,7,-15,-1,56,-7,9,-6,-15
0,-15,-15,7,7,-15,-2,55,-7,8,-7,-15
0,-14,-15,7,7,-15,-2,55,-7,8,-7,-15
0,-14,-14,7,6,-15,-2,55,-8,8,-7,-15
0,-14,-14,7,6,-15,-2,55,-8,8,-7,-14
0,-14,-14,7,7,-15,-2,55,-8,7,-8,-14
0,-14,-14,7,7,-14,-3,55,-8,7,-8,-14
0,-13,-13,7,7,-13,-3,54,-8,6,-8,-13
0,-13,-13,7,7,-13,-3,54,-8,6,-8,-13
0,-13,-13,7,7,-13,-3,54,-8,6,-8,-13
0,-13,-14,7,7,-13,-3,55,-8,6,-8,-14
0,-13,-14,7,7,-14,-2,55,-8,6,-8,-15
0,-13,-14,7,6,-14,-2,56,-8,6,-8,-15
0,-13,-13,7,6,-14,-2,57,-8,6,-8,-16
0,-13,-13,7,6,-14,-2,58,-8,6,-8,-17
0,-13,-13,7,6,-14,-2,58,-8,6,-8,-18
0,-13,-13,7,6,-13,-2,59,-8,6,-9,-19
0,-13,-13,7,6,-13,-2,59,-8,6,-9,-19
0,-14,-14,7,6,-14,-2,59,-8,6,-10,-19
0,-14,-14,7,6,-14,-2,59,-9,6,-10,-18
0,-14,-13,7,6,-14,-2,59,-9,6,-10,-18
0,-14,-13,7,6,-14,-2,59,-9,6,-10,-18
0,-14,-13,7,6,-14,-2,59,-9,6,-10,-18
0,-14,-13,7,6,-14,-2,58,-9,6,-10,-18
0,-14,-13,7,6,-14,-2,58,-9,6,-10,-18
0,-14,-13,7,6,-14,-2,58,-9,6,-10,-19
0,-14,-13,7,6,-14,-2,58,-9,6,-11,-19
0,-14,-13,7,6,-14,-2,58,-9,5,-11,-20
0,-13,-13,7,6,-13,-2,58,-8,5,-11,-21
0,-14,-13,7,6,-13,-1,58,-7,5,-11,-20
0,-15,-14,7,6,-14,-1,58,-7,5,-11,-19
0,-15,-15,7,7,-15,0,58,-7,4,-11,-18
0,-15,-15,7,7,-15,0,58,-7,4,-12,-17
0,-15,-14,7,6,-14,0,58,-7,3,-12,-17
0,-14,-14,7,6,-14,-1,58,-8,3,-12,-17
0,-14,-13,7,6,-13,-1,58,-8,3,-12,-17
0,-13,-12,7,6,-13,-1,58,-8,3,-12,-17
0,-12,-12,6,6,-12,-1,58,-9,2,-12,-17
0,-12,-11,6,5,-11,-2,59,-9,2,-12,-17
0,-11,-11,5,5,-11,-2,60,-9,2,-13,-17
0,-10,-11,5,5,-10,-2,60,-8,2,-13,-16
0,-10,-10,5,5,-10,-2,61,-8,2,-13,-15
0,-10,-10,5,4,-10,-2,61,-8,3,-12,-15
0,-10,-9,5,4,-9,-2,61,-7,3,-12,-14
1,-9,-9,5,4,-9,-2,61,-7,3,-12,-15
1,-9,-9,5,4,-9,-2,61,-7,4,-11,-15
1,-9,-9,5,4,-9,-2,59,-7,4,-11,-16
1,-9,-9,4,4,-9,-2,58,-7,4,-11,-16
1,-8,-8,4,4,-8,-2,56,-7,4,-11,-16
1,-7,-8,3,4,-8,-2,54,-7,4,-11,-16
1,-6,-7,3,4,-8,-2,53,-6,4,-11,-16
1,-6,-7,3,4,-8,-1,52,-6,4,-11,-16
1,-7,-8,3,4,-8,-1,52,-6,4,-11,-16
1,-7,-8,3,4,-8,-1,51,-5,3,-11,-15
1,-7,-8,3,4,-8,-1,51,-5,3,-11,-15
1,-7,-8,3,4,-8,-1,50,-4,3,-11,-14
1,-7,-8,3,4,-8,-2,49,-4,3,-10,-14
1,-7,-8,3,4,-8,-2,48,-3,3,-10,-13
2,-7,-8,3,5,-8,-3,47,-3,3,-10,-13
2,-7,-9,3,5,-8,-4,46,-2,3,-10,-13
2,-6,-9,2,5,-8,-5,45,-2,3,-10,-13
3,-6,-9,2,6,-8,-6,44,-2,3,-9,-13
3,-5,-9,1,6,-7,-6,43,-3,3,-9,-12
4,-5,-9,1,6,-7,-6,42,-3,3,-9,-12
4,-4,-9,0,7,-7,-6,42,-4,3,-9,-13
5,-4,-9,0,7,-7,-7,41,-4,2,-9,-13
5,-4,-10,0,7,-7,-8,40,-5,2,-9,-13
5,-4,-10,0,7,-7,-8,39,-5,1,-9,-13
5,-4,-10,0,7,-7,-9,38,-6,1,-9,-12
5,-5,-10,1,7,-7,-9,37,-6,0,-9,-12
4,-5,-10,1,7,-8,-9,36,-7,0,-10,-12
4,-5,-10,1,7,-8,-9,34,-8,-1,-10,-12
4,-5,-9,1,7,-8,-9,33,-9,-1,-11,-12
4,-5,-9,1,7,-8,-9,32,-9,-2,-11,-12
4,-5,-10,1,7,-8,-9,32,-9,-2,-11,-12
4,-5,-10,1,7,-8,-9,32,-9,-2,-11,-12
4,-5,-10,1,7,-8,-9,32,-10,-3,-11,-13
4,-5,-10,1,7,-8,-8,31,-10,-3,-11,-13
4,-5,-10,1,7,-8,-8,31,-10,-4,-11,-13
4,-5,-10,1,7,-8,-7,31,-11,-4,-11,-13
4,-6,-11,1,7,-9,-7,30,-11,-5,-11,-13
4,-7,-11,2,7,-9,-7,29,-12,-6,-12,-14
3,-7,-10,2,7,-9,-7,28,-13,-7,-12,-15
2,-7,-10,2,6,-9,-6,27,-13,-8,-12,-16
1,-8,-10,3,6,-10,-6,27,-14,-9,-12,-17
1,-9,-10,4,5,-10,-5,27,-14,-8,-12,-17
0,-10,-11,5,5,-10,-5,28,-14,-6,-13,-18
0,-10,-11,5,5,-10,-5,28,-14,-3,-13,-18
0,-11,-11,5,5,-11,-5,28,-14,-1,-13,-19
0,-11,-11,5,5,-11,-5,28,-14,0,-13,-19
0,-12,-12,5,6,-11,-5,28,-14,1,-13,-21
0,-12,-12,5,6,-12,-5,28,-14,1,-13,-21
0,-12,-12,6,6,-12,-5,27,-15,2,-13,-22
0,-13,-12,6,6,-13,-5,27,-15,3,-13,-22
0,-13,-13,7,6,-13,-5,27,-15,4,-12,-23
0,-13,-13,7,6,-13,-5,27,-15,4,-12,-23
-1,-13,-13,7,6,-13,-5,27,-15,5,-13,-24
-1,-13,-12,7,5,-12,-5,27,-14,5,-13,-24
-1,-14,-12,8,5,-12,-5,28,-14,5,-14,-24
-1,-14,-12,8,5,-13,-5,28,-13,5,-14,-24
-1,-14,-12,8,5,-13,-5,27,-13,5,-14,-23
-1,-14,-12,7,5,-13,-5,27,-13,5,-14,-23
-1,-13,-12,7,5,-13,-5,26,-13,5,-14,-23
-1,-13,-12,7,5,-13,-5,26,-13,6,-14,-23
-1,-14,-13,8,5,-14,-4,27,-13,6,-14,-22
-1,-14,-13,8,6,-14,-4,27,-13,6,-14,-22
-1,-15,-13,8,6,-14,-3,27,-13,6,-14,-21
-1,-15,-14,8,6,-14,-3,27,-13,6,-14,-21
-1,-15,-14,8,6,-15,-3,26,-13,6,-14,-20
-1,-15,-14,8,6,-15,-3,26,-13,6,-14,-20
-1,-15,-14,8,6,-15,-3,25,-13,6,-14,-19
-1,-15,-14,8,6,-15,-3,25,-13,6,-15,-19
-1,-15,-14,8,6,-15,-3,24,-13,6,-15,-19
-1,-15,-14,8,6,-15,-3,24,-13,6,-15,-19
-1,-14,-13,8,6,-14,-3,24,-13,6,-15,-19
-1,-14,-13,8,5,-13,-3,24,-13,6,-15,-19
-1,-13,-12,7,5,-12,-3,23,-13,6,-15,-19
-1,-12,-12,7,5,-12,-3,23,-12,7,-15,-19
-1,-13,-13,7,5,-13,-3,23,-12,7,-14,-18
-1,-15,-13,8,5,-14,-3,23,-11,8,-14,-18
-1,-15,-14,8,5,-14,-3,23,-11,7,-15,-18
-1,-16,-14,9,5,-15,-3,22,-11,7,-15,-18
-2,-16,-14,9,5,-15,-3,22,-11,7,-15,-19
-2,-16,-14,9,5,-15,-3,22,-11,7,-15,-20
-2,-16,-14,9,5,-15,-4,22,-11,7,-15,-20
-2,-16,-14,9,5,-15,-4,22,-11,7,-15,-20
-2,-16,-13,9,5,-14,-4,21,-11,7,-15,-20
-2,-15,-12,8,5,-13,-4,21,-11,7,-15,-20
-2,-15,-12,8,4,-13,-4,22,-10,7,-14,-20
-2,-14,-12,8,4,-13,-3,24,-8,8,-14,-20
-3,-14,-11,8,4,-12,-3,26,-6,9,-13,-20
-3,-14,-11,8,3,-12,-2,28,-4,12,-12,-19
-3,-14,-11,8,4,-12,-2,30,-2,15,-9,-18
-2,-15,-13,9,5,-14,-1,34,2,21,-6,-16
-2,-16,-15,9,6,-16,0,39,7,26,-3,-15
-1,-18,-17,10,8,-18,1,45,13,32,-1,-15
0,-20,-20,10,9,-20,3,52,20,39,4,-14
1,-20,-22,9,11,-22,4,60,29,50,12,-11
5,-20,-25,7,14,-22,5,69,39,62,22,-6
9,-18,-27,5,17,-23,5,78,50,75,35,0
14,-15,-28,0,21,-22,4,84,59,87,48,9
20,-10,-30,-5,25,-20,2,89,67,100,63,20
28,-5,-32,-11,30,-19,-1,93,75,113,79,33
35,2,-33,-18,34,-16,-6,95,81,126,96,47
40,9,-31,-25,36,-12,-11,88,79,131,107,59
41,15,-26,-28,34,-6,-15,71,66,124,109,66
37,16,-21,-27,29,-3,-17,49,43,102,96,61
28,9,-18,-19,23,-4,-16,27,13,67,66,42
16,1,-15,-9,15,-7,-12,3,-23,21,23,14
5,-5,-10,0,7,-7,-10,-22,-62,-28,-22,-13
-3,-10,-6,6,1,-8,-10,-44,-96,-69,-59,-36
-8,-15,-7,11,-1,-12,-10,-59,-120,-98,-85,-53
-12,-22,-11,17,0,-17,-11,-67,-136,-115,-103,-65
-14,-28,-14,21,0,-22,-11,-69,-144,-122,-112,-72
-15,-30,-15,23,0,-23,-11,-66,-143,-120,-113,-74
-16,-30,-14,23,-1,-22,-13,-59,-137,-112,-107,-73
-15,-28,-12,21,-1,-20,-14,-51,-127,-101,-99,-69
-15,-25,-10,20,-2,-18,-15,-43,-117,-89,-90,-64
-14,-22,-7,18,-3,-15,-16,-35,-106,-77,-80,-59
-14,-18,-4,16,-4,-12,-16,-28,-95,-65,-71,-52
-13,-14,-2,14,-5,-9,-16,-22,-84,-53,-62,-46
-12,-12,0,12,-5,-7,-16,-15,-73,-43,-54,-40
-10,-10,0,10,-5,-6,-15,-8,-62,-33,-47,-35
-9,-10,0,9,-5,-5,-13,0,-51,-25,-40,-31
-8,-9,-1,9,-4,-5,-12,7,-42,-17,-35,-28
-7,-9,-1,8,-4,-5,-10,13,-35,-11,-30,-26
-7,-8,-1,7,-3,-4,-9,17,-30,-6,-27,-25
-6,-7,-1,6,-3,-4,-9,18,-26,-2,-25,-24
-6,-6,0,6,-4,-4,-8,19,-23,0,-23,-23
-6,-5,1,5,-4,-3,-8,20,-21,2,-22,-23
-6,-4,1,4,-4,-2,-8,20,-20,3,-21,-23
-6,-4,2,4,-4,-1,-8,20,-19,3,-20,-23
-6,-3,2,4,-4,0,-8,20,-19,4,-19,-22
-6,-3,3,4,-5,0,-8,20,-19,4,-19,-22
-7,-2,4,4,-6,1,-8,19,-19,4,-19,-22
-7,-2,4,4,-6,0,-8,19,-18,4,-19,-21
-7,-2,5,4,-6,0,-8,19,-17,4,-18,-20
-7,-2,5,4,-6,1,-8,19,-17,4,-18,-19
-7,-2,6,4,-6,1,-8,19,-16,4,-18,-18
-7,-2,6,5,-7,2,-8,19,-16,4,-18,-17
-7,-2,6,5,-7,2,-8,19,-15,5,-17,-17
-7,-2,5,5,-7,2,-8,20,-15,5,-17,-16
-7,-1,6,4,-7,2,-9,20,-15,5,-16,-16
-7,0,7,3,-8,3,-9,20,-15,5,-16,-16
-7,0,7,3,-8,3,-8,20,-15,6,-16,-15
-7,-1,6,3,-7,3,-8,21,-15,6,-16,-15
-7,-1,6,3,-7,2,-9,21,-15,6,-16,-15
-7,-1,6,3,-7,3,-9,21,-15,7,-16,-15
-7,0,7,3,-7,3,-9,21,-15,7,-16,-14
-7,0,7,3,-8,4,-9,21,-15,8,-16,-14
-7,0,8,3,-8,4,-9,21,-15,8,-16,-14
-7,0,9,3,-8,4,-9,21,-15,8,-16,-14
-7,0,9,3,-8,4,-9,20,-16,8,-15,-14
-7,1,10,2,-9,5,-9,20,-16,8,-15,-14
-7,2,11,2,-9,6,-10,19,-16,8,-15,-13
-7,3,11,1,-9,7,-10,19,-16,8,-15,-13
-7,4,11,1,-9,8,-10,19,-16,8,-15,-12
-7,4,11,1,-9,8,-10,19,-16,8,-15,-11
-7,5,12,1,-10,8,-10,19,-16,8,-15,-10
-7,5,13,0,-10,9,-10,18,-16,8,-14,-9
-7,6,13,0,-11,9,-10,18,-17,8,-14,-8
-7,7,14,0,-11,10,-10,18,-17,9,-14,-7
-7,8,15,-1,-11,11,-10,18,-17,9,-13,-5
-7,10,16,-2,-11,13,-10,17,-17,9,-13,-4
-7,11,17,-2,-12,14,-10,16,-17,9,-13,-3
-7,11,18,-2,-12,14,-10,16,-17,10,-13,-3
-7,10,18,-1,-12,14,-11,15,-18,10,-13,-2
-7,10,18,-1,-13,14,-11,15,-18,10,-13,-1
-7,10,18,-1,-13,15,-12,15,-19,10,-13,0
-7,11,19,-1,-13,15,-12,15,-20,10,-13,1
-7,12,20,-2,-14,16,-13,14,-20,9,-13,2
-7,13,21,-2,-15,17,-14,14,-21,9,-12,3
-7,15,23,-3,-16,19,-14,13,-22,9,-12,4
-7,17,24,-4,-16,21,-15,12,-22,9,-12,5
-7,18,26,-5,-17,23,-15,11,-23,9,-11,6
-7,20,27,-6,-17,24,-16,10,-23,9,-11,7
-7,21,29,-7,-18,26,-16,10,-23,9,-10,9
-7,22,30,-7,-19,27,-17,9,-24,9,-10,10
-7,23,31,-8,-19,27,-18,9,-24,9,-9,12
-7,25,33,-8,-20,29,-18,9,-24,9,-9,13
-7,27,34,-10,-20,31,-19,8,-24,9,-9,13
-7,29,36,-11,-21,32,-19,7,-25,9,-8,14
-7,31,37,-12,-22,34,-19,6,-25,9,-7,15
-6,32,38,-13,-22,36,-19,6,-26,9,-6,16
-6,34,40,-14,-23,37,-20,5,-26,9,-6,18
-6,35,41,-14,-23,38,-20,5,-27,9,-5,19
-6,36,42,-15,-24,38,-21,4,-27,9,-5,21
-5,37,43,-15,-24,40,-21,4,-27,9,-4,22
-5,39,45,-16,-25,42,-22,3,-27,9,-3,23
-5,42,47,-18,-26,44,-22,3,-27,8,-2,24
-5,44,49,-19,-27,46,-23,2,-28,7,-1,25
-5,45,50,-20,-27,48,-23,1,-28,7,0,27
-4,47,50,-21,-27,49,-23,1,-27,6,0,28
-4,48,51,-22,-27,49,-23,0,-27,5,1,30
-4,48,52,-22,-28,50,-23,0,-27,4,2,31
-5,48,53,-22,-29,51,-23,0,-28,3,2,33
-4,50,55,-23,-30,52,-24,0,-28,3,3,34
-4,52,56,-24,-30,54,-24,0,-28,3,4,35
-4,54,58,-25,-31,56,-24,-1,-28,3,5,36
-4,55,59,-25,-31,57,-24,-1,-28,3,7,38
-4,56,60,-26,-32,58,-24,-1,-27,3,8,39
-4,56,60,-26,-32,59,-25,-1,-26,3,9,41
-4,57,61,-26,-32,59,-25,-1,-26,4,10,42
-3,58,61,-27,-32,60,-25,-1,-25,4,10,43
-3,59,62,-28,-33,61,-26,-1,-25,5,11,43
-3,60,63,-29,-33,62,-26,0,-24,6,11,44
-3,61,64,-29,-33,63,-26,0,-23,6,12,44
-2,61,64,-30,-33,63,-26,0,-23,6,13,45
-2,62,64,-30,-33,63,-26,0,-23,6,14,45
-2,62,64,-30,-33,63,-26,0,-23,7,15,46
-1,61,63,-30,-33,62,-26,1,-22,7,15,46
-1,61,62,-30,-32,61,-25,2,-21,8,16,47
-1,61,61,-30,-32,61,-25,3,-20,9,16,47
-1,61,61,-30,-32,61,-24,4,-19,10,16,47
0,61,61,-30,-31,61,-24,6,-18,11,16,47
0,61,61,-30,-31,61,-24,7,-17,11,16,47
0,61,61,-31,-30,61,-24,7,-16,12,16,47
1,60,60,-31,-29,60,-23,8,-15,13,16,47
1,59,58,-31,-28,59,-23,9,-14,14,15,47
2,59,57,-31,-28,58,-22,10,-13,15,15,46
3,58,56,-31,-27,57,-22,12,-12,15,17,46
4,58,54,-31,-25,56,-21,14,-10,16,20,45
4,57,52,-31,-24,54,-21,16,-9,17,23,44
4,55,51,-30,-23,53,-20,17,-8,18,25,43
3,54,50,-29,-23,52,-20,18,-7,19,26,43
3,53,49,-28,-22,51,-20,19,-6,20,26,42
4,52,48,-28,-22,50,-20,20,-6,21,27,41
4,50,46,-27,-21,48,-19,21,-5,22,27,40
4,49,44,-27,-20,47,-19,23,-5,23,27,39
5,47,42,-26,-19,45,-18,24,-4,23,26,38
5,45,39,-26,-17,42,-17,26,-3,24,26,37
6,43,36,-25,-15,40,-17,27,-1,24,25,36
6,40,34,-24,-14,37,-16,28,0,25,25,35
6,38,32,-23,-13,35,-15,29,1,25,24,33
6,36,30,-22,-12,33,-15,29,2,25,23,32
6,34,28,-21,-11,31,-14,30,3,25,22,30
6,32,25,-20,-9,28,-14,32,4,25,22,28
6,29,23,-18,-8,26,-13,33,6,25,21,26
5,27,20,-17,-7,23,-13,34,7,26,21,24
5,24,18,-15,-6,21,-12,35,7,26,20,22
5,22,15,-14,-5,18,-11,35,8,26,19,20
5,19,13,-13,-3,16,-10,36,8,26,18,18
5,17,11,-12,-2,15,-9,36,8,26,17,15
5,15,9,-11,-1,13,-8,37,8,26,16,13
5,13,7,-10,0,11,-7,37,7,26,15,10
6,11,5,-9,0,9,-6,37,7,26,14,7
6,9,3,-8,1,6,-6,38,6,25,13,6
6,7,1,-7,2,4,-5,38,6,25,11,4
6,6,0,-6,3,3,-5,38,6,25,11,3
6,4,-2,-5,4,1,-4,38,6,25,10,2
6,2,-3,-5,4,0,-4,38,6,25,10,0
6,1,-4,-4,5,-1,-3,38,6,24,9,0
6,0,-6,-3,5,-3,-2,38,6,24,9,-1
6,-3,-8,-1,6,-5,-1,38,6,24,9,-3
4,-5,-10,0,6,-8,-1,38,5,24,9,-5
3,-7,-11,1,7,-9,-1,37,5,23,7,-7
3,-8,-12,2,7,-10,-1,37,5,22,6,-8
2,-9,-12,3,7,-11,0,37,5,21,5,-9
2,-10,-12,3,7,-11,0,37,4,20,4,-10
1,-11,-12,4,6,-11,0,37,4,20,3,-10
1,-11,-12,4,6,-11,0,37,4,19,2,-10
1,-12,-13,5,6,-12,0,37,3,19,2,-10
1,-12,-13,5,6,-13,0,37,3,18,1,-11
0,-13,-13,6,6,-13,0,37,3,17,0,-11
0,-13,-14,6,7,-14,1,37,3,17,-1,-11
0,-14,-15,7,7,-15,1,37,3,16,-1,-11
0,-15,-16,7,8,-15,2,37,3,15,-2,-11
0,-16,-16,8,8,-16,2,36,3,15,-2,-11
0,-17,-17,8,8,-17,3,36,3,14,-2,-11
0,-17,-17,8,8,-17,3,36,3,14,-2,-11
0,-17,-17,8,8,-17,3,36,3,14,-2,-11
0,-17,-17,8,8,-17,3,36,3,14,-2,-11
0,-17,-17,8,8,-17,3,37,3,13,-2,-11
0,-17,-17,8,7,-17,3,37,3,13,-2,-11
0,-17,-17,8,7,-17,3,37,3,13,-2,-11
0,-17,-17,8,7,-17,3,37,3,12,-2,-11
0,-17,-16,8,7,-17,3,37,4,12,-3,-11
0,-16,-16,8,7,-16,4,37,4,13,-3,-11
0,-17,-16,8,7,-17,4,38,5,13,-3,-10
0,-17,-17,8,8,-17,5,38,6,14,-2,-10
1,-16,-17,7,8,-17,5,38,7,14,-2,-10
0,-16,-16,7,8,-16,6,38,7,14,-2,-10
0,-17,-16,8,7,-17,6,38,7,14,-2,-10
-1,-19,-17,9,7,-18,7,38,7,14,-2,-9
-1,-20,-18,10,7,-19,7,38,7,14,-2,-9
-1,-20,-18,10,7,-19,7,38,7,13,-2,-9
-1,-20,-18,10,7,-19,7,38,6,13,-2,-9
-1,-20,-18,10,8,-19,7,38,6,13,-2,-9
-1,-20,-18,10,8,-19,7,37,6,13,-2,-9
-1,-20,-18,10,8,-19,7,37,6,12,-3,-10
-1,-19,-18,9,8,-19,6,36,6,11,-3,-10
-1,-19,-18,9,8,-18,6,35,6,11,-3,-10
-1,-18,-17,9,8,-18,6,35,5,10,-3,-10
-1,-18,-17,9,8,-18,7,34,5,9,-3,-10
-1,-18,-17,9,7,-17,7,34,6,7,-3,-10
-1,-18,-17,9,7,-17,7,34,6,6,-2,-10
-1,-18,-17,9,7,-17,7,34,6,6,-2,-10
-1,-18,-17,9,7,-18,7,33,7,5,-2,-10
-1,-18,-17,9,7,-18,7,33,7,5,-2,-10
-1,-18,-17,9,7,-18,7,33,8,4,-2,-9
-1,-19,-17,10,7,-18,7,33,8,4,-1,-9
-1,-19,-17,10,7,-18,7,33,8,4,-1,-9
-1,-18,-17,10,7,-17,7,32,7,3,-1,-9
-1,-18,-16,10,7,-17,7,32,7,3,-1,-9
-1,-18,-16,10,7,-16,7,33,7,3,-1,-9
-1,-17,-16,10,6,-16,7,33,7,3,-1,-9
-1,-17,-16,10,6,-17,7,33,8,3,-1,-9
-1,-18,-16,10,6,-17,7,33,8,3,0,-9
-1,-18,-17,10,7,-18,8,34,9,3,0,-9
-1,-19,-17,10,7,-18,8,34,9,3,0,-9
-1,-18,-17,9,7,-18,8,35,10,3,0,-9
-1,-18,-17,9,7,-18,8,35,10,3,0,-9
-1,-18,-17,9,7,-17,8,35,11,3,1,-8
-1,-18,-17,9,7,-18,9,35,11,3,1,-8
-1,-18,-17,9,7,-18,9,35,11,3,1,-8
-1,-18,-17,9,7,-18,9,35,11,3,1,-8
-1,-18,-17,9,7,-18,9,34,12,3,1,-8
-1,-18,-17,10,7,-18,9,34,12,3,1,-8
-1,-18,-17,10,6,-18,9,33,12,3,1,-7
-1,-18,-17,10,6,-17,8,33,12,3,1,-7
-1,-18,-17,10,6,-17,8,33,12,3,1,-7
-1,-18,-17,10,6,-17,8,33,13,4,1,-7
-1,-18,-16,10,6,-17,8,33,13,4,1,-7
-1,-17,-16,10,6,-17,8,33,13,4,1,-7
-1,-17,-15,10,6,-17,7,33,13,4,1,-7
-1,-17,-15,10,6,-16,7,33,13,4,1,-7
-1,-17,-14,9,6,-16,7,34,13,4,1,-7
-1,-17,-15,9,6,-16,7,36,13,4,1,-6
-1,-17,-15,9,6,-16,7,39,13,4,1,-6
-1,-18,-15,10,6,-17,7,41,13,4,0,-7
-1,-18,-15,10,6,-17,7,43,12,4,0,-7
-1,-18,-16,10,6,-17,7,44,12,5,0,-7
-1,-18,-16,10,6,-17,7,45,12,5,0,-6
-1,-18,-16,10,6,-17,6,46,12,4,0,-6
-1,-18,-16,10,7,-17,6,46,12,4,0,-6
0,-18,-17,9,7,-17,5,46,11,3,0,-7
0,-17,-17,9,7,-17,5,46,11,3,-1,-8
0,-17,-17,9,7,-17,5,46,10,3,-1,-9
0,-17,-17,9,7,-17,5,46,10,3,-1,-11
0,-17,-16,9,7,-17,6,46,10,3,-1,-12
0,-17,-16,9,7,-17,6,46,10,3,-1,-12
-1,-17,-15,9,6,-16,7,46,10,3,-1,-13
-1,-17,-15,9,6,-16,7,46,10,3,-1,-13
-2,-16,-14,9,6,-15,7,46,9,3,-1,-13
-2,-16,-14,9,6,-15,7,46,9,3,0,-13
-1,-17,-16,9,7,-16,8,46,10,4,0,-11
-1,-18,-17,10,7,-17,8,47,11,4,1,-11
-1,-18,-17,9,7,-17,7,47,10,3,1,-11
-1,-17,-16,9,6,-17,7,47,10,1,0,-11
-1,-17,-16,10,6,-16,7,47,10,0,0,-11
-1,-18,-16,10,6,-17,7,47,10,0,0,-11
-1,-18,-16,11,6,-17,8,47,10,-1,0,-11
-1,-18,-16,11,6,-17,8,47,10,-1,0,-11
-1,-18,-16,10,7,-17,8,47,10,-1,0,-11
-1,-18,-16,10,7,-17,8,47,10,-1,0,-11
-1,-18,-16,10,7,-17,8,47,10,-1,0,-11
-1,-18,-16,10,6,-17,9,47,10,-1,0,-11
-1,-18,-15,10,6,-17,9,47,10,-2,0,-11
-1,-18,-15,10,6,-17,9,47,10,-2,0,-11
-2,-18,-16,10,6,-17,9,46,10,-3,0,-11
-2,-18,-16,10,7,-17,9,46,10,-4,0,-11
-1,-18,-17,10,7,-18,9,45,9,-4,0,-11
-1,-18,-17,10,7,-18,9,45,9,-4,0,-11
-1,-18,-17,10,7,-17,9,45,9,-4,-1,-12
-1,-18,-16,10,7,-17,10,45,9,-4,-1,-12
0,-18,-16,10,7,-17,10,45,9,-4,-1,-12
0,-18,-17,10,8,-17,10,45,9,-4,-1,-12
0,-18,-17,10,8,-17,10,45,9,-4,-1,-12
0,-18,-17,9,8,-17,10,45,10,-4,-1,-11
0,-17,-17,9,8,-17,10,45,10,-4,-1,-11
0,-17,-16,8,8,-16,10,45,10,-4,-1,-11
0,-17,-16,8,8,-16,10,45,10,-4,-1,-11
0,-17,-16,9,8,-16,10,45,10,-4,-1,-11
0,-17,-16,9,7,-16,11,45,9,-4,-1,-11
0,-17,-16,9,7,-16,11,44,9,-5,-1,-11
0,-17,-16,9,7,-17,11,44,9,-5,-1,-11
0,-17,-16,9,7,-17,11,43,9,-5,-1,-11
-1,-17,-16,10,7,-17,11,43,9,-5,-1,-11
-1,-18,-15,10,6,-17,12,43,9,-5,-1,-10
-1,-18,-16,10,6,-17,12,43,10,-5,0,-10
-1,-19,-16,10,6,-18,12,43,10,-5,0,-9
-1,-18,-16,10,6,-17,12,43,11,-5,0,-9
-1,-18,-16,10,6,-17,12,43,11,-5,0,-8
-1,-18,-17,10,7,-17,12,43,11,-5,0,-8
-1,-18,-17,10,7,-17,12,43,11,-5,0,-8
-1,-17,-16,10,7,-17,12,43,12,-5,0,-8
-1,-17,-15,9,7,-16,12,42,12,-5,0,-8
-1,-16,-14,9,7,-15,12,42,13,-4,0,-8
-1,-15,-14,8,6,-15,12,42,13,-4,0,-8
-1,-15,-13,8,6,-14,12,42,13,-4,0,-8
0,-14,-13,8,6,-14,13,42,14,-4,0,-8
0,-14,-13,7,6,-13,13,42,14,-4,0,-7
0,-13,-12,7,6,-12,13,42,14,-4,0,-7
0,-12,-11,6,5,-11,13,42,14,-4,0,-6
0,-12,-11,6,5,-11,14,43,15,-4,1,-6
0,-12,-11,6,5,-12,14,44,16,-3,1,-5
0,-12,-11,6,5,-11,14,45,16,-3,2,-5
1,-10,-10,5,5,-10,14,45,17,-3,2,-4
1,-9,-10,5,5,-10,15,46,17,-3,2,-4
2,-9,-10,4,5,-9,15,46,17,-3,2,-3
2,-9,-9,4,5,-9,15,46,17,-3,2,-3
1,-9,-9,4,4,-8,14,46,17,-3,2,-3
1,-8,-8,4,4,-8,13,46,17,-3,2,-3
2,-8,-9,4,4,-8,13,47,17,-3,2,-3
2,-8,-9,3,5,-9,12,47,17,-2,2,-3
2,-8,-10,3,5,-9,12,46,16,-2,2,-3
2,-8,-10,3,6,-9,11,46,15,-1,2,-3
2,-7,-9,3,6,-8,11,45,15,-1,2,-3
2,-6,-9,2,6,-8,10,44,14,-1,3,-3
2,-6,-9,2,6,-8,10,44,14,-1,3,-2
3,-6,-9,2,6,-7,9,43,13,-1,3,-2
3,-6,-9,1,6,-7,8,42,12,-1,3,-2
3,-5,-8,1,6,-7,8,40,11,0,3,-2
3,-5,-8,1,5,-6,7,39,10,0,3,-2
3,-5,-8,1,5,-6,7,38,9,0,3,-1
3,-5,-8,1,5,-6,7,38,8,0,2,-1
3,-6,-8,2,6,-7,7,38,7,0,2,-1
3,-7,-9,2,6,-8,7,38,7,0,2,-1
3,-7,-10,2,7,-9,7,38,6,0,2,-1
3,-8,-11,2,7,-9,7,39,6,0,2,-1
3,-8,-11,2,7,-9,8,39,5,-1,2,-1
3,-8,-10,2,7,-9,8,39,4,-2,2,-1
3,-8,-11,2,7,-9,9,39,4,-2,2,0
3,-9,-12,2,8,-10,9,40,4,-2,3,0
3,-9,-12,2,8,-11,10,40,4,-2,3,1
3,-9,-12,2,8,-10,10,40,4,-3,3,1
3,-8,-11,2,7,-10,10,40,4,-3,2,0
3,-8,-12,2,7,-10,10,40,4,-4,2,0
3,-9,-12,3,7,-10,11,40,4,-4,2,0
1,-11,-12,5,6,-11,11,40,4,-5,1,-1
0,-13,-12,6,6,-12,11,39,3,-5,1,-2
-1,-13,-12,7,5,-13,11,39,2,-6,0,-3
-1,-14,-12,7,5,-13,12,39,1,-6,-1,-4
-1,-14,-12,8,5,-13,12,39,1,-6,-1,-4
-2,-15,-12,8,5,-13,13,39,0,-5,-2,-4
-3,-16,-13,9,5,-14,13,39,0,-5,-2,-4
-3,-16,-13,10,5,-14,14,39,0,-5,-2,-5
-3,-17,-14,10,5,-15,14,39,0,-5,-2,-5
-3,-16,-14,9,5,-15,14,39,0,-5,-2,-6
-2,-16,-14,9,5,-15,14,39,0,-5,-2,-6
-2,-16,-14,9,5,-15,14,39,0,-4,-2,-7
-2,-16,-14,9,5,-15,14,40,0,-4,-2,-7
-2,-16,-14,9,5,-15,14,40,0,-4,-3,-8
-2,-17,-14,10,5,-15,14,40,0,-4,-3,-8
-2,-17,-14,10,5,-15,14,40,0,-4,-3,-7
-3,-17,-14,10,5,-15,14,40,-1,-4,-3,-7
-3,-17,-14,10,5,-15,14,39,-1,-4,-3,-7
-3,-17,-14,10,5,-15,14,39,-1,-3,-3,-7
-3,-18,-14,11,5,-16,15,40,-1,-3,-2,-7
-3,-18,-14,11,4,-16,15,40,-1,-3,-2,-8
-3,-18,-13,11,4,-15,16,41,-1,-3,-2,-8
-3,-18,-13,11,4,-15,16,41,0,-3,-2,-9
-3,-18,-14,11,4,-15,16,42,0,-3,-2,-9
-3,-18,-14,11,5,-16,16,42,0,-3,-2,-9
-3,-18,-14,11,5,-16,16,42,0,-4,-2,-8
-3,-18,-14,11,5,-15,16,42,0,-4,-2,-8
-3,-17,-14,10,5,-15,17,43,0,-4,-2,-7
-3,-17,-13,10,5,-15,17,44,0,-4,-1,-7
-3,-17,-13,10,5,-15,17,45,0,-4,-1,-6
-3,-17,-13,10,5,-15,17,45,0,-4,-1,-6
-4,-18,-14,11,5,-16,17,46,0,-4,-1,-6
-4,-18,-14,11,5,-16,17,46,0,-4,-1,-5
-4,-18,-14,11,5,-16,17,46,0,-4,-1,-5
-4,-18,-14,11,5,-16,17,46,0,-4,0,-5
-4,-18,-14,11,4,-16,17,46,-1,-4,0,-5
-5,-18,-14,12,4,-16,17,46,0,-5,0,-5
-5,-18,-14,12,4,-16,17,46,0,-5,0,-5
-5,-18,-14,12,4,-16,17,45,2,-6,0,-5
-5,-18,-13,11,4,-15,17,45,3,-6,0,-5
-5,-17,-13,11,4,-15,17,45,5,-6,0,-5
-5,-17,-13,11,4,-15,17,46,6,-6,0,-5
-5,-17,-13,11,4,-15,17,46,7,-7,0,-6
-5,-17,-13,11,4,-15,17,47,8,-7,0,-6
-5,-17,-13,11,4,-15,17,47,9,-6,0,-6
-6,-17,-12,11,3,-15,18,48,10,-4,0,-6
-6,-16,-11,11,2,-14,18,49,12,-3,0,-6
-6,-16,-10,11,2,-13,18,50,15,0,2,-5
-6,-16,-9,11,2,-12,18,51,18,3,4,-4
-6,-15,-10,10,2,-12,19,55,22,8,7,-4
-5,-15,-11,10,3,-13,20,59,27,13,9,-4
-5,-17,-13,11,4,-15,21,60,32,18,11,-4
-4,-18,-15,11,5,-17,23,56,39,24,15,-4
-3,-19,-18,11,7,-18,24,51,47,33,22,0
0,-19,-20,9,10,-19,24,49,57,45,32,5
4,-18,-22,7,13,-20,24,50,68,58,45,13
8,-16,-23,4,16,-19,24,52,79,72,59,23
13,-12,-25,0,19,-18,23,53,87,86,75,35
19,-7,-26,-6,23,-17,20,54,95,100,93,48
26,0,-26,-13,26,-14,16,55,103,115,111,62
32,8,-25,-20,28,-9,11,50,105,125,127,76
34,14,-21,-24,28,-4,6,37,96,124,135,86
32,16,-17,-24,25,0,4,17,77,108,128,87
26,12,-14,-19,21,-1,4,-4,50,78,105,74
17,4,-13,-10,16,-4,7,-24,18,37,65,48
6,-4,-10,-1,9,-7,10,-46,-18,-11,18,18
-2,-9,-7,6,3,-9,12,-68,-53,-57,-26,-9
-8,-14,-6,11,0,-11,11,-86,-82,-91,-58,-30
-12,-18,-8,15,-1,-14,11,-96,-101,-113,-79,-44
-14,-23,-11,18,-1,-17,11,-100,-112,-123,-91,-53
-15,-26,-12,20,-2,-19,11,-99,-114,-125,-96,-58
-16,-27,-12,21,-2,-19,10,-96,-111,-120,-94,-58
-17,-26,-10,21,-3,-18,8,-90,-103,-111,-87,-55
-17,-25,-8,21,-4,-16,7,-84,-94,-101,-79,-50
-17,-22,-5,20,-5,-14,6,-78,-84,-90,-70,-46
-16,-18,-3,18,-6,-11,5,-72,-74,-80,-62,-41
-15,-15,-1,15,-7,-8,4,-67,-63,-71,-54,-35
-15,-12,0,13,-8,-6,3,-62,-54,-62,-46,-30
-14,-10,2,12,-9,-4,3,-57,-44,-52,-39,-26
-14,-9,2,11,-8,-3,4,-51,-35,-43,-32,-22
-13,-9,2,10,-7,-3,5,-45,-26,-35,-26,-19
-11,-9,2,10,-6,-3,6,-39,-18,-27,-20,-16
-10,-9,1,9,-5,-3,7,-34,-11,-20,-16,-13
-10,-8,1,9,-5,-3,9,-31,-5,-15,-12,-12
-10,-8,1,8,-5,-3,10,-28,0,-12,-10,-10
-9,-7,1,7,-5,-2,11,-27,2,-10,-8,-9
-9,-6,1,7,-5,-2,11,-26,3,-8,-7,-8
-9,-5,2,7,-5,-1,11,-26,4,-8,-6,-7
-9,-6,2,7,-5,-1,10,-27,4,-7,-6,-7
-9,-6,2,7,-6,-1,10,-28,4,-7,-6,-7
-9,-5,3,7,-6,0,10,-28,4,-6,-6,-7
-9,-5,4,7,-7,0,10,-29,4,-6,-6,-7
-9,-5,4,7,-7,0,10,-30,5,-5,-6,-7
-9,-5,4,7,-7,0,11,-30,5,-4,-6,-6
-9,-5,4,7,-7,-1,11,-30,6,-3,-6,-6
-9,-5,4,7,-7,-1,11,-31,7,-2,-6,-6
-9,-5,4,7,-7,0,10,-32,6,-1,-6,-6
-9,-5,4,7,-7,0,10,-34,6,-1,-6,-5
-9,-4,4,7,-7,0,10,-37,6,-1,-5,-5
-9,-3,6,6,-7,1,10,-40,6,-1,-5,-5
-10,-2,7,6,-8,2,9,-41,6,-1,-5,-5
-10,-3,7,7,-8,2,9,-42,6,0,-5,-4
-11,-4,6,7,-8,1,10,-43,7,0,-4,-4
-11,-4,6,8,-9,1,10,-44,7,0,-4,-3
-11,-3,6,7,-9,2,10,-45,7,1,-4,-3
-11,-2,7,7,-10,3,10,-46,7,1,-3,-2
-12,-3,7,7,-10,3,10,-46,7,2,-3,-2
-12,-3,7,7,-10,3,10,-47,7,2,-3,-1
-12,-3,7,7,-10,3,10,-47,7,2,-3,-1
-11,-2,8,7,-10,3,10,-47,7,2,-3,-1
-11,-1,9,6,-10,3,10,-48,6,1,-3,0
-11,-1,9,6,-10,4,10,-49,6,1,-2,0
-11,0,10,5,-10,4,10,-50,6,1,-2,1
-11,0,10,5,-10,5,10,-51,5,1,-1,2
-11,0,11,5,-11,6,9,-52,5,1,-1,2
-11,2,12,5,-11,7,9,-52,4,1,-1,2
-10,3,13,4,-12,8,9,-53,4,1,-1,3
-10,4,14,4,-12,9,9,-53,3,1,-1,3
-10,5,15,3,-13,10,9,-54,3,1,-1,4
-10,5,16,3,-14,11,8,-55,2,1,-1,4
-10,6,16,2,-14,12,8,-56,1,1,-1,5
-10,6,17,2,-14,12,7,-57,0,1,-1,5
-10,7,17,1,-14,13,7,-57,0,2,0,6
-10,8,18,1,-14,13,6,-58,-1,2,0,6
-10,9,19,1,-14,14,6,-59,-2,2,0,7
-10,10,20,0,-15,15,6,-59,-2,2,0,8
-10,11,21,0,-15,17,6,-59,-3,2,0,9
-10,13,23,0,-16,18,5,-59,-3,2,0,9
-10,14,24,-1,-17,19,5,-59,-4,2,1,10
-11,15,25,-1,-18,20,5,-60,-4,2,1,10
-11,16,26,-2,-19,22,4,-61,-4,1,1,11
-11,17,27,-2,-19,23,4,-61,-5,1,1,11
-11,17,28,-2,-19,23,4,-61,-5,2,1,13
-11,17,28,-2,-20,23,4,-61,-5,2,2,15
-11,19,30,-3,-20,24,4,-62,-5,1,2,16
-11,21,32,-4,-21,26,3,-63,-6,1,2,17
-11,22,33,-5,-22,28,2,-64,-7,1,2,18
-11,24,35,-6,-23,30,2,-64,-7,2,3,19
-11,26,36,-7,-24,32,1,-65,-7,3,3,20
-11,27,38,-7,-25,33,1,-66,-8,3,4,21
-11,28,39,-8,-25,34,1,-67,-8,3,4,22
-11,30,41,-9,-26,36,0,-68,-9,4,5,23
-11,32,43,-10,-27,38,0,-70,-9,4,6,24
-11,34,45,-11,-28,40,-1,-71,-10,4,7,26
-11,36,46,-11,-29,42,-1,-72,-10,4,8,27
-11,37,48,-12,-29,43,-1,-72,-10,5,9,28
-11,39,49,-13,-30,45,-1,-73,-10,5,10,29
-11,40,50,-14,-30,45,-1,-74,-10,5,11,30
-11,41,51,-14,-31,46,-2,-75,-10,5,12,31
-11,42,53,-15,-32,48,-2,-76,-11,6,12,32
-10,44,55,-17,-33,50,-3,-76,-11,6,12,33
-10,46,56,-18,-33,51,-3,-76,-11,7,13,34
-10,47,57,-18,-33,52,-3,-77,-11,7,13,35
-10,49,58,-19,-33,53,-4,-77,-11,8,14,37
-9,50,59,-20,-33,54,-4,-77,-11,8,15,38
-9,51,59,-21,-34,55,-4,-77,-11,8,16,39
-8,52,60,-22,-34,56,-5,-77,-12,8,16,39
-8,54,61,-23,-34,58,-5,-78,-12,8,16,40
-7,55,62,-24,-34,59,-6,-78,-11,8,16,41
-7,56,62,-24,-34,60,-6,-77,-11,8,17,42
-7,57,63,-25,-34,61,-7,-77,-11,8,17,43
-7,58,63,-25,-35,61,-7,-77,-11,8,18,43
-6,58,64,-25,-35,62,-8,-76,-11,8,18,44
-6,59,64,-25,-35,62,-8,-75,-10,9,19,44
-6,59,64,-26,-35,62,-9,-75,-10,9,20,45
-6,60,65,-26,-35,62,-9,-74,-9,10,20,46
-6,60,65,-27,-35,62,-9,-74,-8,10,21,47
-5,60,65,-27,-35,62,-9,-73,-7,11,22,48
-5,61,65,-28,-35,63,-9,-73,-5,12,23,49
-4,61,65,-28,-35,63,-9,-73,-4,12,24,49
-4,61,64,-28,-34,63,-8,-72,-2,13,25,49
-3,61,63,-28,-33,62,-8,-72,0,13,25,49
-2,60,62,-28,-32,61,-7,-71,1,14,25,50
-2,60,60,-28,-31,60,-7,-70,3,15,26,50
-1,60,59,-28,-31,59,-6,-68,4,16,26,50
-1,59,59,-28,-30,59,-6,-67,6,17,27,50
-1,58,58,-28,-30,58,-6,-66,7,17,27,50
0,58,57,-28,-29,58,-5,-66,7,18,27,50
0,57,57,-28,-29,57,-4,-65,8,18,27,50
0,56,56,-27,-28,56,-4,-65,9,19,27,50
0,55,54,-27,-27,54,-3,-64,11,19,27,49
0,53,52,-27,-26,53,-3,-63,12,20,27,48
1,52,50,-26,-25,51,-2,-62,13,20,27,47
1,50,48,-26,-24,49,-2,-61,14,21,27,47
1,49,47,-25,-23,48,-1,-60,15,22,26,46
1,47,45,-24,-22,46,0,-59,16,23,26,46
1,44,42,-23,-20,44,0,-59,17,24,25,45
1,42,39,-22,-19,41,0,-58,17,24,25,44
1,39,36,-20,-17,38,1,-58,18,24,24,43
2,38,34,-19,-16,36,1,-57,19,25,23,42
2,37,33,-19,-15,35,1,-57,20,25,22,40
2,35,32,-18,-15,34,1,-56,21,26,22,39
3,33,30,-18,-13,32,2,-56,22,27,21,38
3,31,27,-17,-12,30,3,-55,23,28,21,37
3,28,24,-16,-10,27,4,-54,24,28,20,35
3,25,21,-14,-9,24,5,-53,25,29,20,34
3,23,18,-13,-8,21,6,-53,25,29,19,33
3,20,16,-12,-7,18,6,-52,26,30,18,31
2,18,15,-10,-6,16,7,-51,26,30,17,30
2,16,13,-9,-6,15,8,-51,26,30,15,28
1,15,13,-8,-5,14,8,-51,26,30,14,26
1,14,12,-8,-5,13,9,-51,26,30,13,24
1,12,9,-6,-4,11,10,-50,26,30,13,23
1,8,5,-4,-2,7,11,-50,27,30,12,22
1,6,2,-3,-1,4,12,-50,27,30,12,21
1,4,0,-2,0,3,13,-50,27,30,11,20
0,2,-1,-1,0,1,14,-50,26,30,10,18
0,0,-2,0,0,0,14,-50,26,29,9,17
0,-1,-3,1,1,-2,14,-51,26,29,8,15
0,-2,-3,2,1,-3,15,-52,25,28,7,14
0,-4,-4,2,2,-4,15,-53,24,27,6,13
0,-5,-5,3,2,-5,15,-54,23,27,5,12
0,-6,-7,4,3,-6,15,-54,22,26,4,12
0,-8,-8,4,3,-7,15,-54,21,26,3,11
-1,-9,-9,5,3,-8,15,-54,21,25,2,10
-1,-9,-9,5,3,-9,15,-54,21,25,1,9
-1,-10,-10,5,3,-9,15,-54,21,25,1,8
-2,-10,-10,6,3,-10,15,-54,21,25,0,7
-2,-10,-10,6,3,-10,15,-54,20,24,0,7
-2,-11,-10,6,3,-10,15,-56,20,24,0,7
-2,-11,-10,6,3,-10,15,-59,19,22,-1,6
-2,-11,-10,7,3,-11,16,-62,18,20,-2,5
-2,-12,-11,7,3,-11,16,-64,18,17,-4,4
-2,-12,-11,7,4,-11,17,-65,18,15,-4,3
-2,-12,-11,7,4,-11,17,-66,17,13,-5,2
-2,-12,-11,7,4,-11,17,-67,17,12,-5,2
-2,-12,-10,7,4,-11,17,-67,16,11,-5,2
-2,-12,-10,7,4,-11,17,-67,16,11,-5,2
-2,-12,-11,7,5,-12,17,-68,16,12,-6,1
-2,-12,-11,7,5,-12,17,-69,16,13,-6,1
-2,-12,-11,8,4,-12,17,-69,16,14,-6,1
-2,-12,-11,8,4,-11,17,-70,16,16,-6,1
-2,-12,-11,7,4,-11,18,-71,16,17,-6,1
-2,-12,-11,7,4,-11,18,-72,16,18,-6,1
-2,-13,-11,7,4,-11,18,-73,16,19,-6,1
-3,-13,-11,8,4,-11,18,-74,16,19,-6,1
-3,-13,-11,8,4,-12,17,-75,16,19,-6,1
-3,-13,-11,8,4,-12,17,-76,16,19,-6,1
-3,-13,-11,8,4,-12,17,-77,16,19,-6,0
-3,-13,-11,8,4,-12,17,-77,16,19,-5,0
-3,-14,-11,8,4,-13,17,-78,16,19,-5,0
-3,-14,-12,8,4,-13,17,-78,16,20,-5,0
-3,-14,-11,8,4,-12,17,-78,16,20,-5,0
-3,-14,-11,8,3,-12,17,-79,16,21,-5,0
-3,-13,-10,8,3,-11,18,-79,16,21,-5,0
-3,-13,-10,8,3,-11,18,-80,16,21,-6,0
-3,-12,-9,8,3,-11,18,-81,16,21,-6,0
-3,-12,-9,7,3,-11,18,-82,16,20,-6,0
-3,-12,-9,7,2,-10,17,-83,16,20,-6,0
-3,-12,-9,7,2,-10,17,-83,16,20,-6,0
-3,-12,-9,7,2,-10,17,-84,16,20,-6,0
-3,-11,-9,7,2,-10,17,-84,17,20,-6,1
-3,-11,-9,7,2,-10,17,-85,17,20,-6,1
-3,-12,-9,7,2,-10,17,-85,17,20,-6,1
-3,-12,-9,7,3,-10,17,-85,17,21,-6,2
-2,-12,-9,7,3,-10,17,-86,17,21,-5,2
-2,-12,-10,7,4,-11,17,-86,17,21,-5,2
-2,-12,-11,7,4,-11,17,-86,18,21,-4,3
-2,-13,-11,7,4,-12,17,-86,18,21,-4,3
-2,-13,-11,7,4,-12,17,-85,18,20,-3,3
-1,-12,-11,7,5,-12,18,-85,18,20,-3,3
-1,-12,-12,6,5,-12,18,-84,18,20,-3,3
0,-12,-12,6,6,-12,18,-84,18,20,-3,3
-1,-13,-12,7,5,-13,19,-85,17,19,-3,3
-1,-14,-12,7,5,-13,19,-85,14,18,-2,3
-1,-14,-12,7,5,-13,19,-86,11,18,-2,3
-1,-14,-12,7,5,-13,19,-86,10,18,-1,4
-1,-14,-12,7,5,-13,19,-86,8,17,-1,4
-2,-14,-11,7,4,-13,20,-87,7,17,-2,3
-2,-13,-10,7,3,-12,19,-87,6,17,-2,3
-2,-12,-9,7,3,-11,19,-88,5,18,-2,4
-2,-13,-10,8,4,-12,20,-88,5,19,-2,4
-2,-13,-11,8,4,-13,20,-88,5,19,-2,4
-2,-13,-11,8,4,-13,20,-88,5,19,-2,4
-2,-13,-11,8,4,-12,20,-88,4,18,-2,3
-2,-13,-11,8,4,-12,20,-88,4,17,-1,3
-2,-14,-11,8,4,-13,20,-87,3,15,-1,4
-2,-14,-11,8,4,-13,20,-87,3,13,0,4
-2,-13,-11,7,4,-13,21,-87,3,12,0,4
-2,-13,-11,7,4,-12,21,-88,3,11,0,4
-1,-12,-11,7,4,-12,21,-88,3,10,0,4
-1,-11,-10,6,4,-11,21,-88,3,9,1,5
-1,-11,-10,5,4,-11,20,-88,3,9,1,5
-1,-11,-10,5,4,-11,20,-88,3,9,1,4
-1,-11,-10,5,4,-11,20,-88,3,9,1,4
-1,-11,-10,5,4,-10,20,-88,3,9,0,3
-1,-11,-10,5,4,-10,20,-89,2,8,0,2
-1,-11,-10,6,4,-11,19,-89,2,8,0,2
-1,-12,-10,6,4,-11,19,-90,2,8,0,3
-1,-12,-10,6,4,-11,19,-90,2,8,0,3
-1,-12,-10,6,4,-11,19,-90,1,7,0,3
-1,-12,-10,6,4,-11,19,-90,1,6,0,3
-1,-12,-10,6,4,-11,19,-91,1,6,0,3
-1,-12,-10,6,4,-12,19,-91,1,5,0,4
-1,-12,-11,6,4,-12,19,-91,1,5,0,4
-1,-12,-11,6,4,-12,19,-91,1,5,0,4
-1,-13,-11,6,4,-12,19,-92,1,5,0,4
-1,-13,-11,6,4,-12,19,-93,1,5,0,4
-1,-13,-11,6,4,-12,19,-93,1,5,0,4
-2,-13,-11,7,4,-12,19,-93,1,5,0,5
-2,-13,-11,7,4,-12,19,-92,1,6,0,5
-2,-14,-11,8,4,-13,19,-90,1,6,0,4
-2,-14,-11,8,4,-13,19,-90,1,6,0,4
-2,-14,-12,8,4,-13,19,-89,2,7,0,4
-2,-14,-12,8,4,-13,19,-88,2,7,0,4
-2,-14,-11,8,4,-12,18,-87,2,7,0,4
-2,-14,-11,8,5,-12,18,-87,2,7,-1,3
-2,-14,-12,8,5,-13,19,-86,2,7,-1,3
-2,-13,-12,7,5,-13,19,-86,2,7,-1,3
-1,-12,-12,6,5,-12,19,-86,2,7,0,3
0,-12,-12,6,5,-12,19,-86,2,6,0,3
-1,-13,-12,7,5,-13,19,-86,2,6,0,2
-1,-14,-12,8,5,-13,19,-86,2,5,0,2
-2,-14,-12,8,5,-13,19,-86,2,5,0,1
-2,-14,-11,8,5,-13,19,-87,2,5,0,1
-3,-14,-11,8,5,-13,19,-87,2,4,0,0
-3,-14,-11,8,4,-13,19,-88,2,4,0,0
-3,-14,-11,8,4,-13,19,-88,2,4,0,0
-3,-14,-11,8,5,-13,19,-87,2,4,0,0
-3,-15,-12,8,5,-13,20,-87,2,4,0,0
-3,-15,-11,8,4,-13,21,-87,2,4,0,0
-3,-14,-11,8,4,-12,21,-87,2,3,0,0
-3,-14,-10,8,4,-12,21,-86,2,3,0,0
-3,-13,-11,8,4,-13,21,-85,3,3,0,0
-3,-13,-11,8,5,-13,21,-85,3,3,1,0
-3,-13,-11,8,5,-13,21,-85,3,3,1,-1
-3,-13,-12,8,5,-13,21,-87,2,3,0,-1
-2,-13,-12,7,5,-13,21,-88,2,3,0,-1
-1,-13,-12,7,5,-12,20,-90,2,3,0,0
0,-13,-12,6,6,-12,20,-91,3,3,0,0
0,-13,-12,6,6,-12,20,-93,3,3,0,0
0,-12,-12,5,6,-12,20,-95,3,3,0,0
0,-12,-12,6,7,-12,20,-97,3,3,0,0
0,-12,-12,6,7,-13,19,-101,3,3,0,-1
0,-12,-12,6,7,-13,19,-106,3,3,0,-1
0,-12,-13,6,7,-13,20,-108,4,3,1,0
0,-12,-13,6,7,-13,20,-110,4,3,1,0
0,-12,-12,5,6,-12,21,-111,5,3,1,0
0,-11,-12,5,6,-11,21,-111,5,3,1,0
0,-11,-12,5,6,-11,21,-111,5,3,2,0
0,-11,-12,5,6,-11,22,-110,6,4,2,1
0,-11,-12,5,6,-11,22,-110,6,5,2,1
0,-11,-12,5,6,-12,23,-109,7,5,2,1
0,-11,-12,5,6,-12,23,-109,7,6,2,1
0,-11,-12,5,6,-11,23,-108,7,6,2,2
1,-10,-11,4,6,-11,24,-107,7,7,2,2
1,-9,-11,4,6,-10,24,-107,7,7,2,3
1,-8,-10,4,5,-9,24,-106,7,7,3,3
1,-7,-10,3,5,-8,24,-106,7,7,3,4
1,-7,-9,2,5,-7,24,-106,7,7,3,4
1,-6,-8,2,5,-6,24,-106,7,7,3,4
1,-6,-7,1,4,-6,25,-106,7,7,3,4
1,-5,-7,1,4,-5,25,-106,7,8,3,4
1,-5,-6,1,4,-5,24,-105,6,8,3,4
1,-4,-6,0,4,-4,23,-105,5,8,3,4
2,-3,-6,0,4,-4,23,-104,5,8,3,4
2,-2,-6,0,5,-4,22,-103,5,8,3,4
3,-3,-6,0,5,-4,21,-101,5,8,4,4
3,-4,-7,0,5,-5,20,-98,5,8,4,4
3,-4,-8,0,6,-6,19,-95,5,7,4,5
4,-4,-8,0,6,-6,18,-91,5,6,4,5
4,-4,-9,-1,7,-6,18,-88,5,6,4,6
5,-4,-9,-1,7,-6,17,-85,5,6,4,6
5,-4,-10,-1,7,-7,17,-82,5,5,4,6
5,-4,-10,-1,7,-7,17,-80,5,5,4,6
5,-3,-10,-1,7,-7,17,-79,5,4,4,6
6,-3,-10,-1,8,-6,16,-78,4,4,4,6
6,-2,-9,-2,8,-6,16,-78,4,3,4,6
6,-2,-9,-2,9,-6,15,-78,3,3,4,6
7,-2,-10,-2,9,-6,15,-78,3,3,4,6
7,-3,-11,-2,10,-7,16,-78,3,3,4,6
7,-4,-12,-2,10,-8,16,-78,3,3,4,6
7,-5,-12,-1,10,-9,17,-78,3,3,4,6
7,-6,-13,-1,11,-9,17,-78,2,3,4,6
7,-6,-14,-1,11,-9,18,-78,2,3,5,7
7,-6,-14,-1,11,-9,18,-77,2,3,5,7
7,-6,-13,-1,11,-9,18,-77,2,3,6,8
7,-5,-13,-2,11,-8,18,-77,1,3,6,8
8,-5,-13,-2,11,-8,19,-77,1,3,6,8
9,-4,-13,-3,11,-8,19,-78,1,2,5,8
9,-4,-13,-3,11,-8,19,-78,1,2,5,8
8,-5,-13,-3,11,-8,19,-79,0,1,4,7
8,-5,-13,-2,11,-9,20,-79,0,0,3,6
7,-5,-13,-1,11,-9,20,-80,-1,-1,2,5
7,-5,-13,-1,11,-9,20,-80,-2,-1,2,5
6,-6,-13,0,10,-10,20,-80,-2,-1,1,5
4,-8,-13,2,9,-11,20,-81,-3,-1,0,5
2,-10,-13,3,8,-11,20,-82,-4,-2,0,4
1,-11,-13,4,7,-12,21,-83,-4,-2,0,4
0,-11,-12,5,6,-11,21,-84,-4,-2,0,4
0,-10,-11,5,6,-10,21,-85,-4,-2,0,4
0,-11,-12,5,6,-11,21,-85,-3,-2,0,5
0,-13,-14,6,8,-13,21,-85,-2,-1,0,5
0,-14,-16,7,8,-14,21,-85,-1,-1,0,5
0,-15,-16,7,8,-15,21,-85,0,-1,0,5
0,-15,-16,7,8,-15,21,-86,0,-1,1,6
0,-15,-16,7,8,-15,21,-86,0,-1,1,6
0,-15,-16,7,9,-15,21,-87,0,-1,1,6
0,-14,-16,6,9,-15,21,-87,0,-1,1,6
0,-14,-15,6,9,-14,21,-87,0,-1,1,7
0,-14,-15,6,8,-14,21,-88,0,-1,0,7
0,-13,-15,6,8,-13,21,-88,0,-2,0,7
0,-13,-15,6,8,-14,21,-88,0,-2,0,7
1,-13,-15,6,9,-14,21,-87,0,-2,0,7
2,-12,-15,5,9,-13,21,-86,0,-2,0,8
2,-12,-15,4,9,-13,22,-85,0,-2,0,8
2,-12,-15,4,9,-13,22,-85,0,-2,0,8
2,-12,-15,4,9,-13,22,-84,-1,-2,0,8
2,-12,-15,5,9,-13,22,-83,-1,-2,0,8
2,-12,-15,5,8,-13,22,-82,-1,-3,0,8
1,-13,-15,6,8,-13,22,-81,-1,-3,-1,8
0,-13,-14,6,8,-13,23,-79,0,-3,-1,8
0,-13,-14,6,8,-13,23,-78,0,-3,-1,8
0,-13,-14,6,7,-13,23,-76,0,-2,0,8
0,-13,-13,6,7,-13,23,-75,1,-2,0,8
0,-13,-13,6,7,-13,24,-74,1,-1,0,8
0,-13,-13,6,7,-13,24,-73,2,-1,0,8
0,-13,-13,6,7,-13,24,-73,2,-1,0,8
0,-13,-13,6,7,-13,24,-72,3,-1,0,9
0,-12,-13,6,7,-12,24,-72,3,-1,0,9
0,-12,-13,5,7,-12,24,-71,3,-1,0,9
1,-12,-13,5,7,-12,24,-71,2,-1,0,9
1,-12,-13,5,7,-12,25,-71,2,-1,0,9
0,-12,-13,5,7,-12,25,-71,2,-1,0,9
0,-12,-13,5,7,-12,25,-70,3,-1,1,9
0,-12,-13,5,7,-12,25,-69,4,0,1,9
0,-12,-13,6,6,-12,25,-68,6,0,1,9
-1,-12,-12,7,6,-12,26,-67,8,1,1,8
-2,-12,-12,7,5,-12,27,-65,11,2,1,8
-1,-12,-12,7,6,-12,28,-64,14,4,3,9
0,-12,-12,6,7,-12,28,-62,18,8,6,10
0,-13,-14,6,8,-13,28,-59,23,13,9,11
1,-14,-16,6,9,-15,30,-54,28,18,13,13
1,-16,-18,7,10,-17,31,-49,33,23,16,14
2,-17,-20,7,12,-18,33,-44,39,31,23,17
4,-16,-21,6,13,-19,34,-38,47,41,32,22
6,-15,-22,4,15,-19,35,-32,56,53,44,29
10,-12,-23,1,17,-18,35,-27,67,66,58,38
14,-7,-23,-3,19,-16,34,-23,76,79,72,48
20,-2,-23,-8,21,-13,32,-21,83,92,89,61
26,4,-23,-15,25,-10,29,-18,91,106,107,76
31,10,-22,-21,27,-6,25,-18,96,118,125,91
34,17,-18,-26,27,-1,21,-23,92,120,136,103
34,22,-12,-28,24,4,17,-36,78,110,136,107
30,21,-9,-26,21,5,16,-51,55,86,121,100
23,13,-11,-18,18,0,18,-67,28,52,90,79
15,2,-12,-9,15,-5,22,-83,-3,10,45,49
6,-5,-11,-1,10,-9,24,-102,-37,-34,-1,19
0,-9,-9,4,6,-10,24,-120,-67,-71,-39,-4
-4,-13,-9,8,3,-11,23,-132,-89,-97,-65,-21
-6,-16,-10,11,2,-13,23,-139,-103,-111,-81,-32
-9,-19,-11,14,1,-15,23,-141,-109,-118,-89,-39
-11,-21,-11,15,0,-16,22,-141,-109,-118,-91,-43
-12,-21,-10,16,0,-15,21,-138,-105,-112,-88,-42
-12,-20,-8,16,-1,-13,19,-134,-97,-102,-81,-38
-12,-18,-6,15,-2,-11,18,-129,-88,-92,-73,-34
-11,-15,-4,13,-2,-9,18,-123,-79,-82,-64,-30
-10,-12,-2,11,-3,-7,17,-116,-71,-73,-56,-25
-9,-9,0,9,-4,-4,16,-110,-63,-65,-49,-20
-8,-6,1,7,-4,-2,15,-103,-54,-56,-41,-15
-7,-5,1,6,-4,-2,15,-96,-44,-47,-34,-10
-6,-5,0,5,-3,-2,16,-89,-34,-38,-27,-7
-5,-4,0,5,-2,-2,17,-82,-25,-30,-21,-4
-5,-4,0,4,-1,-2,18,-76,-17,-24,-16,-1
-4,-4,-1,4,-1,-2,19,-72,-11,-19,-12,0
-4,-4,-1,4,-1,-2,21,-70,-6,-15,-9,2
-4,-3,-1,4,-1,-1,22,-69,-3,-13,-7,3
-4,-2,0,3,-1,-1,23,-68,-1,-12,-5,4
-4,-2,0,3,-1,0,23,-67,0,-10,-3,5
-3,-2,0,3,-1,0,23,-67,1,-9,-2,6
-3,-2,0,3,-1,0,23,-68,2,-8,-1,7
-2,-2,0,2,-1,0,22,-69,3,-8,0,7
-2,-1,0,2,-1,0,22,-69,4,-7,0,7
-2,-1,1,2,-1,0,23,-70,5,-7,0,7
-3,-1,1,2,-2,0,24,-70,5,-7,0,7
-3,-1,2,2,-2,0,24,-70,6,-7,0,7
-3,-1,2,2,-2,0,24,-70,7,-6,0,7
-3,-1,2,2,-2,0,24,-71,8,-6,1,7
-3,-1,2,2,-2,0,25,-71,9,-5,1,7
-3,-1,2,2,-2,0,25,-72,10,-4,1,7
-3,-1,2,2,-2,0,25,-72,10,-4,2,8
-3,-1,1,2,-1,0,25,-73,10,-3,2,8
-3,-1,1,2,-1,0,26,-74,10,-3,3,9
-3,-1,2,2,-1,0,26,-75,10,-3,3,9
-3,0,2,2,-2,1,27,-76,10,-3,3,10
-3,0,3,2,-2,1,27,-75,11,-2,4,10
-3,0,3,2,-2,2,27,-74,12,-2,4,10
-3,0,4,2,-2,2,27,-74,12,-2,4,10
-3,0,4,1,-2,2,26,-73,12,-3,4,10
-3,1,4,1,-3,3,26,-73,12,-3,4,10
-3,2,5,0,-3,4,26,-73,12,-3,4,10
-3,3,6,0,-3,4,26,-72,12,-3,4,11
-3,3,6,0,-3,4,26,-72,12,-3,4,11
-3,3,6,0,-3,4,26,-71,12,-3,4,11
-3,4,7,0,-4,5,26,-71,12,-3,4,11
-3,5,8,0,-4,6,26,-71,12,-3,5,12
-3,5,8,-1,-5,7,26,-70,12,-3,6,12
-3,6,9,-1,-5,8,26,-70,12,-3,6,13
-3,7,10,-1,-6,8,26,-69,12,-4,6,13
-3,7,10,-1,-6,9,26,-69,12,-4,6,13
-3,7,11,-1,-6,9,26,-69,11,-4,6,13
-3,7,11,-1,-6,9,26,-69,11,-5,6,14
-3,8,12,-1,-7,10,27,-69,10,-5,6,14
-3,8,12,-1,-7,10,27,-69,9,-6,5,14
-3,9,13,-1,-8,11,27,-70,9,-6,5,14
-3,9,13,-2,-8,11,27,-70,8,-6,5,15
-3,10,13,-2,-8,11,28,-72,8,-6,5,15
-3,11,14,-2,-8,12,28,-73,7,-6,6,16
-3,12,15,-3,-8,13,28,-74,6,-6,6,16
-3,13,17,-4,-9,15,28,-75,6,-6,6,17
-3,15,18,-5,-9,16,27,-76,5,-6,6,17
-3,16,19,-6,-10,18,27,-76,4,-6,6,18
-2,17,20,-7,-10,18,27,-75,3,-6,7,19
-2,18,20,-7,-10,19,27,-74,2,-6,7,20
-2,20,22,-8,-11,21,28,-73,1,-7,8,21
-2,21,24,-9,-12,22,28,-72,0,-7,8,22
-2,22,25,-9,-13,24,27,-71,-1,-7,8,22
-2,24,27,-10,-14,25,27,-70,-1,-7,8,23
-3,25,29,-10,-15,27,26,-70,-2,-8,8,23
-3,26,31,-11,-16,28,26,-70,-2,-8,9,24
-4,27,32,-11,-17,29,25,-70,-3,-9,9,25
-4,28,34,-11,-18,31,25,-71,-3,-10,9,25
-4,30,36,-12,-19,33,24,-73,-4,-10,9,26
-4,32,38,-13,-20,35,24,-74,-5,-11,9,26
-4,34,39,-14,-21,36,23,-75,-5,-12,9,27
-4,36,41,-15,-22,38,23,-75,-6,-12,10,28
-3,38,42,-16,-22,40,23,-75,-6,-12,10,29
-3,39,43,-16,-23,41,23,-74,-7,-12,11,30
-3,40,44,-17,-23,42,23,-74,-7,-12,11,30
-3,41,45,-18,-24,43,23,-73,-7,-13,11,31
-2,42,46,-19,-24,45,23,-72,-7,-13,12,33
-2,44,48,-20,-24,46,23,-71,-7,-14,12,34
-2,46,49,-21,-25,48,22,-69,-7,-14,13,36
-2,48,51,-22,-26,50,22,-66,-7,-14,14,36
-1,50,53,-23,-27,52,21,-63,-7,-14,15,37
-1,52,55,-25,-27,54,21,-61,-7,-14,16,37
-1,54,56,-26,-28,55,21,-59,-6,-13,16,38
-1,55,58,-26,-29,56,21,-58,-6,-13,16,38
-2,56,59,-27,-30,57,20,-57,-6,-13,16,38
-2,56,60,-27,-30,58,19,-57,-6,-13,17,39
-2,57,60,-27,-30,58,19,-57,-6,-13,18,40
-2,57,60,-27,-30,58,19,-57,-5,-12,19,41
-2,57,60,-27,-30,58,19,-57,-5,-11,20,41
-2,58,61,-27,-30,59,19,-57,-5,-11,21,42
-1,58,61,-28,-30,60,19,-57,-4,-10,21,42
0,59,61,-28,-30,60,19,-57,-4,-10,22,43
0,59,61,-29,-30,60,19,-56,-3,-9,23,44
0,60,61,-30,-29,60,19,-55,-3,-8,24,45
1,60,60,-30,-29,60,19,-54,-3,-7,24,46
1,60,60,-31,-29,60,19,-53,-3,-7,25,46
2,61,60,-31,-29,61,19,-53,-3,-6,25,47
2,62,61,-32,-29,61,19,-54,-2,-6,26,47
2,62,61,-32,-28,62,19,-54,-2,-5,26,47
3,62,60,-32,-28,62,20,-55,-1,-5,26,47
3,62,60,-33,-27,62,20,-55,-1,-4,26,48
3,62,60,-33,-27,61,19,-55,0,-3,27,48
4,62,59,-33,-27,61,19,-55,0,-2,27,48
4,62,59,-32,-27,61,19,-54,1,-1,28,48
4,61,58,-32,-26,60,20,-53,1,0,28,48
4,60,56,-32,-25,58,20,-52,2,1,29,48
5,59,54,-32,-23,57,20,-51,3,2,29,48
6,58,52,-32,-21,55,21,-49,5,3,30,48
7,56,50,-31,-20,53,22,-46,6,4,30,47
7,53,48,-30,-20,51,22,-44,7,5,31,47
7,52,46,-29,-19,50,23,-41,8,6,31,46
7,51,45,-29,-19,48,23,-38,9,6,31,46
8,49,43,-28,-18,47,24,-35,9,7,31,45
7,47,41,-27,-17,45,24,-33,9,8,31,44
7,45,39,-26,-16,42,24,-31,10,8,31,43
7,42,37,-25,-14,40,24,-29,10,8,30,42
7,41,35,-24,-13,38,24,-28,11,9,30,41
8,39,33,-24,-11,37,25,-26,12,10,30,40
8,38,31,-23,-11,35,25,-24,14,11,30,39
8,36,30,-22,-10,34,26,-22,16,11,29,38
9,35,28,-22,-9,32,26,-20,18,11,29,36
9,33,25,-21,-7,30,27,-18,19,11,28,35
9,31,23,-20,-6,28,27,-17,20,11,28,33
10,29,20,-19,-4,25,28,-17,21,11,27,32
10,27,18,-18,-3,23,28,-16,23,12,27,30
10,25,16,-17,-2,21,29,-15,24,12,26,28
10,23,14,-16,-1,19,29,-14,25,12,25,27
10,21,12,-15,-1,17,30,-13,25,12,24,25
10,19,10,-14,0,15,30,-12,26,12,23,24
10,17,8,-13,1,13,30,-11,26,12,23,23
10,14,5,-12,2,10,31,-10,27,12,22,22
10,12,3,-11,3,8,31,-10,27,11,22,20
10,10,1,-10,5,6,32,-10,27,11,21,19
10,8,0,-8,6,4,32,-10,27,10,20,17
9,6,-1,-7,6,3,32,-10,27,10,20,16
8,5,-2,-6,6,2,33,-10,27,9,19,14
8,3,-3,-5,6,1,33,-10,26,9,18,13
7,2,-4,-5,7,0,34,-9,26,9,17,12
7,1,-5,-4,7,-1,34,-8,26,9,16,11
6,0,-6,-3,7,-2,34,-8,25,8,15,9
6,-2,-7,-2,7,-4,35,-8,25,7,14,8
6,-3,-8,-1,8,-5,35,-8,24,6,13,6
6,-4,-9,-1,8,-6,35,-8,23,5,12,5
6,-5,-10,0,8,-7,36,-7,23,5,12,3
6,-5,-10,0,8,-7,36,-6,23,5,11,3
6,-6,-10,0,8,-8,37,-6,23,5,10,2
6,-6,-11,0,8,-8,37,-5,22,5,9,1
6,-7,-11,1,8,-9,37,-5,22,5,8,0
5,-7,-11,1,8,-9,37,-5,22,5,8,0
5,-8,-11,1,8,-9,37,-5,22,4,7,0
5,-8,-12,1,9,-9,37,-5,22,4,7,-1
5,-8,-12,1,9,-9,37,-4,22,3,6,-1
5,-8,-12,1,9,-9,37,-4,21,3,6,-1
5,-8,-12,1,9,-9,37,-4,21,3,6,-1
5,-9,-13,1,9,-10,37,-3,21,3,6,-1
5,-9,-13,1,10,-10,38,-3,21,2,6,-1
5,-8,-13,1,10,-10,38,-3,21,2,6,-1
6,-8,-13,1,10,-10,38,-3,21,1,6,-1
6,-7,-13,1,10,-10,38,-3,21,1,6,-2
6,-8,-13,1,10,-10,38,-3,21,1,6,-2
6,-9,-14,2,10,-12,38,-3,21,1,5,-2
6,-11,-14,3,10,-12,37,-3,20,0,5,-3
5,-11,-14,4,9,-12,37,-3,20,0,4,-3
5,-11,-14,4,9,-12,36,-3,19,0,4,-4
4,-11,-14,4,9,-12,36,-3,19,0,4,-4
4,-12,-15,4,10,-13,36,-4,19,0,4,-5
4,-12,-15,4,10,-13,36,-4,19,0,4,-5
4,-11,-14,4,9,-12,35,-4,19,0,3,-6
4,-11,-13,3,9,-11,35,-4,18,0,3,-7
4,-10,-13,3,9,-11,34,-4,18,0,3,-8
4,-10,-12,3,9,-11,34,-3,18,0,3,-9
4,-10,-12,3,9,-11,34,-2,18,0,3,-9
4,-10,-13,3,9,-11,34,-2,19,0,3,-10
4,-10,-13,4,9,-11,34,-1,19,0,3,-10
4,-11,-13,4,9,-11,33,-1,20,0,2,-10
4,-11,-13,4,9,-12,33,-1,20,0,2,-10
4,-12,-13,4,9,-12,33,-1,20,0,2,-10
4,-12,-13,4,9,-12,32,-1,20,0,2,-9
4,-12,-13,4,9,-12,32,-1,20,0,2,-8
3,-12,-13,4,9,-12,32,-1,20,0,2,-8
3,-11,-13,4,9,-11,32,-1,20,0,2,-8
3,-11,-12,4,9,-11,31,-1,20,0,2,-8
3,-11,-13,4,9,-11,31,-1,20,1,2,-8
4,-11,-13,4,9,-11,31,-1,20,1,2,-8
4,-10,-13,3,9,-11,31,0,20,1,3,-8
5,-9,-13,2,9,-10,31,0,20,1,3,-8
5,-9,-12,2,9,-9,30,0,20,1,3,-8
4,-9,-12,2,8,-9,30,0,20,2,3,-8
4,-9,-12,2,8,-9,29,-1,20,2,3,-9
3,-9,-11,3,8,-9,29,-1,20,2,3,-9
3,-9,-11,3,7,-9,29,-2,20,2,3,-9
3,-10,-11,4,7,-9,28,-2,21,2,3,-9
3,-10,-11,4,7,-10,28,-2,21,3,3,-9
3,-11,-11,4,7,-10,28,-2,22,3,3,-9
3,-11,-12,4,7,-11,28,-2,22,3,3,-9
2,-11,-12,4,7,-11,28,-1,23,3,3,-9
2,-11,-12,4,7,-11,28,0,23,4,3,-8
2,-11,-13,4,8,-11,27,0,24,4,4,-8
2,-12,-13,5,8,-12,27,1,24,4,4,-7
2,-12,-13,5,8,-12,27,1,24,4,5,-7
2,-12,-13,5,8,-12,27,1,24,4,5,-7
2,-12,-13,5,8,-12,27,1,24,4,5,-7
2,-12,-13,5,8,-12,26,1,24,4,5,-7
2,-12,-13,5,8,-12,26,1,25,4,6,-7
2,-12,-13,5,9,-12,25,1,25,5,6,-7
2,-12,-13,5,9,-12,25,1,25,5,6,-7
2,-11,-13,4,9,-11,25,1,25,5,6,-7
2,-11,-13,4,9,-11,24,0,25,5,6,-7
3,-11,-13,4,9,-11,24,0,25,6,6,-7
3,-11,-13,4,9,-11,24,0,25,6,6,-7
3,-11,-13,4,9,-11,24,0,25,6,6,-7
4,-11,-13,3,9,-11,24,0,25,6,6,-7
4,-10,-13,3,9,-11,23,0,25,6,6,-7
3,-11,-13,4,9,-12,23,-1,25,6,6,-8
3,-11,-14,4,9,-12,23,-2,25,6,6,-8
3,-11,-14,4,9,-12,23,-2,25,6,6,-8
3,-11,-14,4,9,-12,23,-3,25,6,6,-8
3,-11,-14,4,9,-12,23,-5,25,6,6,-8
3,-11,-14,4,9,-12,23,-6,24,6,6,-8
3,-11,-14,4,9,-12,22,-8,24,6,6,-8
4,-11,-14,4,9,-12,22,-9,24,6,6,-8
4,-11,-14,3,10,-12,22,-10,24,5,7,-8
4,-11,-14,3,10,-12,22,-11,24,5,7,-8
4,-11,-14,3,10,-12,22,-11,24,4,7,-8
4,-11,-14,3,9,-12,22,-12,23,3,6,-8
4,-10,-13,3,9,-11,21,-13,23,3,6,-8
4,-10,-13,3,8,-11,21,-14,23,2,6,-8
3,-10,-12,3,8,-10,21,-16,23,2,6,-9
3,-10,-12,3,8,-10,21,-17,23,3,6,-9
3,-10,-13,3,9,-11,21,-17,24,3,5,-10
3,-10,-14,3,9,-12,21,-18,24,3,5,-10
3,-10,-14,3,9,-12,21,-18,24,3,5,-11
3,-10,-14,3,9,-12,21,-19,25,3,4,-11
3,-11,-14,4,9,-13,21,-20,25,3,5,-12
3,-11,-14,4,9,-13,21,-21,25,3,5,-12
3,-11,-14,4,9,-12,21,-22,25,2,5,-12
3,-11,-14,4,9,-12,21,-23,24,2,4,-13
3,-10,-13,4,8,-11,20,-24,24,2,4,-13
3,-10,-13,4,8,-11,20,-25,24,2,4,-13
3,-10,-12,4,8,-11,19,-26,24,2,4,-13
3,-10,-12,4,8,-11,18,-27,24,2,4,-13
3,-10,-12,4,8,-11,18,-28,23,1,3,-13
3,-10,-13,4,8,-11,18,-29,23,1,3,-13
3,-10,-13,4,9,-11,17,-29,23,0,3,-13
3,-10,-14,4,9,-12,17,-30,23,0,3,-13
3,-11,-15,4,10,-12,18,-31,23,0,3,-13
3,-11,-15,4,10,-13,18,-31,23,0,3,-13
4,-11,-15,4,10,-13,18,-32,23,0,3,-13
4,-11,-15,3,10,-13,18,-33,23,0,3,-14
5,-11,-15,3,10,-13,18,-33,23,-1,2,-14
5,-10,-15,2,10,-13,18,-34,23,-1,2,-14
6,-10,-15,2,11,-13,18,-34,23,-1,2,-14
6,-9,-16,1,11,-13,18,-34,23,-1,2,-14
7,-9,-16,1,11,-12,18,-34,23,-1,2,-14
7,-9,-16,1,11,-12,18,-34,22,-1,2,-14
7,-9,-16,1,11,-12,18,-35,22,-1,2,-14
7,-9,-16,1,11,-12,18,-35,21,-1,2,-14
7,-9,-16,1,11,-12,18,-36,21,-2,2,-14
7,-9,-16,2,11,-12,18,-36,21,-2,2,-14
7,-10,-16,2,11,-12,18,-36,21,-3,2,-14
6,-10,-16,2,11,-12,18,-36,21,-3,2,-14
6,-9,-15,2,11,-12,17,-36,21,-3,2,-14
6,-9,-15,2,11,-12,17,-36,21,-3,1,-14
6,-9,-15,2,11,-12,17,-37,20,-3,1,-14
6,-9,-15,2,11,-12,17,-37,20,-3,1,-14
6,-9,-15,2,10,-12,17,-38,20,-3,1,-14
6,-9,-14,1,10,-12,17,-38,20,-3,1,-14
6,-8,-14,1,10,-11,17,-38,20,-4,1,-14
6,-8,-13,1,9,-11,17,-39,20,-4,1,-14
6,-8,-13,1,9,-10,17,-38,21,-3,1,-14
6,-8,-13,1,9,-10,17,-38,21,-3,1,-14
6,-8,-13,1,9,-10,17,-38,22,-2,2,-14
6,-7,-13,1,9,-10,17,-38,22,-2,3,-13
6,-7,-13,1,9,-10,17,-38,22,-2,3,-13
6,-6,-13,0,9,-9,17,-37,23,-2,4,-13
6,-6,-12,0,9,-9,17,-35,23,-1,4,-13
6,-5,-12,0,9,-8,18,-31,23,-1,4,-13
6,-5,-11,0,9,-8,18,-28,23,-1,4,-12
6,-4,-11,-1,9,-7,18,-25,23,-1,4,-12
7,-4,-10,-1,9,-7,18,-22,23,-1,4,-12
7,-4,-11,-1,9,-7,18,-19,24,0,4,-12
7,-4,-11,-1,9,-7,18,-17,24,0,4,-12
7,-4,-10,-1,9,-7,18,-15,24,0,4,-12
7,-3,-10,-2,8,-6,18,-14,24,0,4,-12
8,-3,-9,-2,8,-6,17,-14,24,0,4,-13
8,-2,-9,-3,8,-6,17,-14,24,0,4,-13
9,-1,-9,-3,8,-6,16,-13,24,0,4,-13
9,0,-9,-4,8,-5,15,-12,24,0,4,-13
10,0,-8,-4,8,-4,14,-11,23,0,4,-13
10,0,-8,-5,8,-4,13,-9,23,0,4,-13
10,0,-9,-5,9,-4,12,-9,22,0,4,-13
10,0,-9,-4,9,-5,12,-8,22,0,4,-13
10,0,-9,-4,9,-5,11,-8,22,0,4,-12
10,0,-9,-4,9,-5,11,-8,22,0,4,-12
10,0,-9,-4,9,-5,10,-8,22,0,4,-12
10,0,-9,-4,9,-5,9,-8,21,0,4,-12
10,0,-9,-4,9,-5,8,-8,21,0,4,-11
10,0,-9,-4,9,-5,8,-8,21,-1,4,-11
10,0,-9,-4,9,-5,8,-7,21,-1,4,-10
10,0,-9,-5,9,-5,7,-7,20,-2,3,-10
10,0,-9,-5,9,-5,6,-6,20,-2,3,-10
10,0,-9,-5,9,-5,6,-6,19,-3,2,-10
10,-1,-10,-5,9,-6,5,-6,19,-3,2,-10
10,-1,-10,-4,10,-6,5,-5,19,-3,1,-10
10,-1,-10,-4,10,-6,5,-5,19,-3,1,-10
10,-2,-11,-3,10,-7,5,-4,19,-3,1,-11
10,-2,-11,-3,10,-7,5,-3,18,-3,0,-11
10,-2,-11,-3,10,-7,5,-2,18,-3,0,-11
10,-2,-11,-4,10,-6,5,-2,18,-3,0,-11
10,-1,-11,-4,10,-6,5,-2,18,-3,0,-11
10,-2,-11,-4,10,-7,5,-2,18,-3,1,-11
10,-3,-13,-3,11,-8,5,-1,18,-3,1,-10
10,-5,-15,-2,12,-10,6,0,19,-3,1,-10
9,-7,-16,-1,12,-12,6,1,19,-3,0,-11
9,-8,-16,0,12,-13,6,2,18,-3,0,-12
8,-10,-17,1,12,-14,7,3,18,-4,0,-13
7,-11,-17,2,12,-14,7,4,17,-4,-1,-14
7,-11,-18,2,12,-14,7,5,17,-4,-2,-15
6,-12,-18,3,12,-15,7,6,17,-4,-3,-16
6,-12,-18,3,11,-15,8,7,17,-5,-3,-17
6,-12,-17,3,11,-15,8,8,16,-5,-4,-17
5,-12,-17,3,11,-15,8,8,16,-4,-4,-17
5,-12,-16,3,11,-15,7,9,16,-4,-4,-17
5,-12,-16,3,11,-15,7,10,16,-3,-4,-17
5,-12,-16,3,11,-15,7,11,16,-3,-4,-17
5,-12,-17,3,11,-15,7,11,16,-3,-4,-17
5,-12,-17,3,11,-15,6,11,16,-2,-4,-17
5,-12,-17,3,11,-15,6,11,16,-2,-4,-16
5,-12,-17,4,11,-15,6,11,16,-2,-4,-16
5,-13,-17,4,11,-15,5,11,16,-1,-3,-16
6,-13,-17,4,12,-16,5,11,16,-1,-3,-16
6,-13,-18,3,12,-16,5,11,16,0,-3,-16
6,-13,-18,3,12,-16,5,11,16,0,-3,-16
6,-13,-18,4,12,-16,5,11,16,0,-3,-16
5,-14,-18,4,11,-16,4,11,16,0,-3,-16
5,-14,-18,4,11,-16,4,11,17,0,-3,-16
5,-14,-18,4,11,-17,4,12,17,1,-3,-16
5,-15,-18,5,12,-17,3,12,17,1,-3,-16
4,-15,-18,5,12,-17,3,12,17,1,-4,-16
4,-15,-18,5,12,-17,2,13,17,1,-4,-15
3,-16,-18,6,11,-17,2,14,17,2,-4,-15
3,-16,-19,6,11,-18,2,15,17,3,-3,-15
3,-16,-19,6,11,-18,2,15,18,3,-3,-15
3,-16,-19,6,11,-18,2,15,18,4,-3,-15
3,-17,-19,7,11,-18,2,16,18,4,-3,-15
3,-17,-19,7,11,-19,2,17,18,4,-3,-15
3,-17,-19,7,11,-19,1,18,17,4,-3,-15
3,-17,-19,7,11,-18,1,18,17,4,-3,-15
3,-17,-19,7,11,-18,1,18,17,4,-3,-16
3,-17,-19,7,10,-18,0,19,16,4,-3,-16
3,-16,-18,7,10,-18,0,20,16,3,-4,-16
3,-16,-18,6,10,-17,0,21,16,2,-4,-16
3,-16,-17,6,10,-17,0,23,16,1,-4,-15
3,-16,-17,6,10,-17,0,24,16,1,-4,-14
3,-15,-17,6,10,-17,-1,26,16,1,-4,-14
3,-15,-17,6,10,-16,-1,27,16,0,-4,-15
3,-15,-17,6,10,-16,-1,29,16,0,-4,-15
3,-15,-17,6,10,-16,-1,30,17,1,-4,-16
3,-14,-17,6,10,-16,-1,32,18,1,-4,-16
3,-14,-16,6,9,-16,0,34,20,2,-4,-17
2,-13,-15,6,9,-15,0,36,21,4,-4,-17
1,-13,-15,6,8,-15,0,37,23,5,-3,-16
1,-14,-15,6,8,-15,0,39,26,8,0,-16
2,-15,-16,6,9,-16,1,44,31,12,3,-15
2,-16,-18,7,10,-18,2,55,36,16,6,-15
3,-19,-21,8,12,-21,3,69,42,22,10,-14
4,-21,-24,8,14,-23,4,82,50,30,17,-11
6,-21,-26,7,16,-25,5,93,59,42,26,-6
8,-20,-27,5,18,-25,6,103,70,55,38,0
12,-17,-28,2,20,-24,6,114,81,69,51,8
16,-13,-28,-1,22,-21,4,123,91,83,66,18
22,-7,-28,-7,24,-18,2,130,100,98,83,30
28,-1,-28,-13,28,-15,-1,136,109,113,103,44
33,5,-27,-19,30,-11,-5,138,114,126,121,58
37,12,-23,-25,30,-6,-10,131,109,129,133,70
36,18,-17,-27,27,0,-14,114,91,117,133,75
32,17,-13,-24,23,1,-15,94,65,91,117,68
25,10,-13,-17,20,-2,-14,74,34,54,83,48
16,1,-13,-8,15,-7,-12,54,-2,7,37,19
8,-5,-12,-1,10,-9,-11,32,-40,-42,-11,-11
2,-10,-11,4,7,-12,-12,12,-73,-83,-51,-35
-2,-16,-14,9,6,-16,-14,0,-96,-111,-79,-52
-4,-23,-19,13,7,-22,-15,-7,-110,-127,-96,-64
-5,-28,-22,17,8,-26,-15,-9,-115,-132,-104,-70
-6,-29,-22,18,7,-26,-16,-7,-113,-129,-104,-71
-7,-28,-20,17,6,-25,-17,-2,-104,-121,-98,-69
-6,-26,-18,16,6,-23,-18,4,-93,-109,-90,-65
-6,-24,-16,15,5,-21,-19,11,-81,-97,-80,-59
-6,-21,-14,13,4,-18,-19,18,-70,-86,-70,-53
-5,-17,-11,11,3,-15,-20,23,-61,-76,-61,-48
-5,-14,-9,9,2,-12,-21,28,-52,-66,-53,-43
-4,-12,-7,8,1,-10,-22,34,-43,-57,-45,-38
-4,-10,-6,7,1,-8,-21,40,-33,-49,-38,-34
-3,-10,-5,6,1,-8,-20,46,-24,-40,-32,-30
-2,-9,-5,6,1,-8,-19,52,-15,-33,-27,-27
-2,-9,-5,5,2,-8,-17,56,-8,-26,-22,-25
-1,-8,-5,5,2,-8,-16,58,-2,-21,-18,-23
-1,-8,-5,4,2,-7,-15,60,1,-18,-16,-21
-1,-7,-4,4,1,-6,-14,60,4,-16,-14,-20
-1,-6,-3,3,1,-5,-13,60,5,-14,-13,-19
-1,-5,-3,3,0,-5,-13,60,6,-13,-12,-18
-1,-5,-3,3,0,-4,-13,59,7,-12,-11,-17
-1,-4,-2,3,0,-4,-13,57,7,-12,-11,-17
-1,-3,-1,2,0,-3,-14,56,7,-12,-11,-17
-1,-2,0,2,0,-1,-14,56,7,-12,-11,-17
-1,-1,0,1,-1,0,-15,58,7,-12,-10,-17
-1,-2,0,2,-1,-1,-14,62,8,-12,-10,-17
-1,-2,0,2,-1,-2,-14,64,8,-11,-9,-16
-1,-2,0,2,-1,-2,-14,66,8,-11,-9,-16
-1,-2,0,2,-1,-2,-14,67,8,-11,-9,-16
-1,-2,0,2,-1,-2,-14,68,8,-10,-9,-16
-1,-3,0,2,-1,-2,-14,69,8,-10,-9,-15
-1,-3,0,2,-1,-2,-14,69,8,-10,-9,-15
-1,-2,0,2,-1,-2,-14,69,8,-10,-9,-15
-2,-2,0,2,-1,-1,-14,69,8,-9,-9,-15
-2,-1,1,2,-1,-1,-15,69,8,-9,-9,-15
-2,-1,1,2,-2,0,-15,69,8,-10,-9,-15
-2,-1,1,2,-2,0,-15,68,8,-10,-9,-15
-2,-1,2,2,-3,0,-16,68,8,-10,-9,-15
-3,0,2,2,-3,0,-16,67,8,-10,-9,-15
-3,0,3,2,-3,0,-16,67,8,-10,-9,-15
-3,0,4,1,-4,1,-16,66,7,-10,-8,-14
-3,0,5,1,-4,2,-16,66,7,-11,-8,-14
-3,1,6,1,-4,3,-17,65,6,-11,-8,-13
-3,1,6,1,-4,3,-17,65,6,-11,-7,-13
-3,2,6,1,-5,3,-17,64,6,-11,-7,-12
-3,2,7,1,-5,4,-17,63,5,-11,-6,-12
-3,3,7,0,-6,4,-17,61,5,-11,-6,-12
-4,3,8,0,-6,5,-18,59,5,-11,-6,-11
-4,4,9,0,-6,6,-18,57,5,-11,-6,-11
-4,4,9,0,-6,6,-19,55,5,-11,-6,-10
-4,5,10,0,-7,7,-19,54,4,-12,-6,-10
-4,6,11,-1,-7,8,-20,53,4,-12,-6,-9
-4,7,11,-1,-8,9,-20,52,3,-13,-5,-9
-4,7,12,-1,-8,9,-21,52,3,-13,-5,-8
-4,8,12,-2,-8,10,-21,51,3,-13,-4,-8
-4,9,13,-2,-9,11,-21,50,2,-14,-4,-7
-4,10,14,-3,-9,12,-22,49,2,-14,-4,-7
-4,11,16,-3,-10,13,-22,47,1,-14,-4,-6
-4,12,17,-4,-10,14,-22,46,1,-14,-4,-6
-4,14,19,-5,-11,16,-23,46,1,-15,-4,-6
-4,16,20,-5,-12,17,-23,45,0,-15,-4,-5
-4,17,21,-6,-12,19,-23,45,0,-15,-4,-5
-4,18,23,-6,-13,20,-24,44,0,-15,-3,-4
-4,19,24,-7,-13,21,-24,44,0,-16,-3,-4
-4,20,26,-8,-14,23,-25,43,-1,-16,-3,-3
-4,22,27,-9,-15,24,-25,43,-1,-16,-2,-2
-4,23,28,-9,-15,25,-26,43,-2,-16,-2,-1
-4,24,28,-10,-15,26,-26,43,-2,-16,-1,0
-4,24,29,-10,-16,27,-27,43,-3,-17,-1,1
-4,25,30,-11,-16,28,-27,43,-3,-17,0,2
-4,27,32,-11,-17,29,-28,42,-3,-18,0,3
-4,29,34,-12,-18,31,-28,42,-3,-18,0,4
-4,31,36,-13,-19,33,-29,41,-4,-18,0,5
-4,32,37,-14,-20,35,-30,40,-4,-18,0,6
-4,34,38,-15,-20,36,-31,38,-4,-18,1,7
-4,36,40,-16,-21,38,-31,36,-4,-18,1,8
-3,38,41,-17,-22,39,-32,34,-5,-18,1,9
-3,40,43,-18,-23,42,-32,32,-5,-18,2,10
-3,42,45,-19,-24,44,-33,31,-6,-18,2,11
-3,44,47,-20,-24,45,-33,30,-6,-18,3,12
-3,46,49,-21,-25,47,-34,29,-6,-18,4,13
-3,47,50,-22,-26,48,-35,28,-6,-18,5,14
-3,49,52,-23,-27,50,-35,27,-6,-18,5,15
-3,50,53,-24,-27,51,-35,28,-6,-18,6,16
-3,51,54,-24,-28,52,-35,29,-6,-18,6,17
-3,52,55,-25,-28,53,-35,30,-6,-18,7,18
-2,54,57,-26,-29,55,-36,31,-6,-18,7,20
-2,56,58,-27,-29,56,-36,32,-6,-18,8,21
-2,57,59,-27,-30,57,-37,33,-6,-18,9,23
-2,58,60,-28,-30,58,-37,35,-6,-17,10,24
-2,59,61,-28,-31,59,-37,36,-6,-17,10,25
-2,60,61,-29,-31,60,-37,38,-7,-17,11,26
-2,61,62,-29,-31,61,-38,39,-7,-17,11,27
-1,62,63,-30,-32,62,-38,39,-7,-16,12,28
-1,63,64,-31,-32,63,-38,40,-7,-16,13,29
-1,64,65,-32,-32,64,-38,42,-6,-15,14,29
0,65,66,-33,-33,65,-39,43,-6,-15,15,29
0,66,67,-33,-33,66,-39,45,-5,-14,15,30
0,67,68,-34,-33,67,-39,46,-5,-13,16,30
0,67,67,-34,-33,66,-39,47,-4,-12,16,30
0,66,65,-33,-32,65,-39,47,-2,-11,17,31
1,66,65,-33,-31,65,-38,48,-1,-11,18,31
1,66,64,-34,-31,65,-38,48,0,-10,18,32
2,66,64,-34,-30,64,-38,49,1,-10,19,32
3,66,63,-34,-29,64,-38,51,2,-9,20,32
3,65,62,-34,-29,63,-38,52,3,-8,20,32
3,65,62,-34,-28,63,-38,53,3,-7,21,32
3,64,61,-34,-28,62,-38,54,4,-7,21,32
3,63,60,-33,-27,61,-38,55,4,-6,21,32
3,62,59,-33,-27,61,-38,56,5,-5,22,32
3,62,58,-33,-26,60,-38,57,5,-5,22,32
3,61,57,-33,-26,59,-37,58,6,-4,21,31
4,60,56,-32,-25,58,-37,60,7,-3,21,31
4,59,55,-32,-24,56,-37,62,7,-2,21,30
4,57,53,-31,-23,55,-36,64,8,-1,21,30
4,55,51,-30,-22,53,-35,66,9,0,21,29
5,54,49,-30,-21,51,-35,68,10,0,21,28
5,52,47,-29,-20,49,-34,68,11,1,21,27
5,50,45,-28,-19,47,-34,69,12,1,21,26
5,48,43,-27,-18,45,-34,69,13,2,21,25
5,46,41,-26,-17,43,-33,70,13,2,21,24
6,44,38,-25,-15,41,-33,71,14,3,20,23
6,42,36,-25,-14,39,-33,72,14,4,20,22
7,40,33,-24,-12,37,-32,74,15,5,19,20
7,38,31,-23,-11,35,-32,75,16,5,19,19
7,36,29,-22,-10,33,-31,75,17,6,18,17
7,34,26,-21,-9,30,-30,76,17,6,17,16
7,31,24,-20,-7,27,-30,76,18,7,16,15
7,29,21,-19,-6,24,-29,76,18,7,16,14
8,26,18,-17,-4,21,-29,77,18,7,15,13
8,23,15,-16,-3,18,-28,78,19,7,14,11
8,21,13,-15,-1,16,-28,79,19,7,13,10
8,18,10,-14,0,14,-27,79,19,7,12,8
8,16,8,-13,0,12,-27,79,19,7,11,6
8,14,5,-12,2,9,-26,79,18,7,10,5
8,12,3,-11,3,7,-26,79,18,7,9,4
9,10,1,-10,4,5,-25,79,18,7,9,3
9,9,0,-9,5,3,-25,79,17,7,8,1
8,7,-1,-8,6,1,-25,79,16,7,7,0
8,4,-3,-6,6,0,-25,79,15,7,6,-1
7,2,-4,-5,7,-1,-24,79,13,6,5,-3
7,0,-6,-4,7,-3,-24,79,12,6,4,-4
7,-1,-7,-4,8,-4,-24,79,12,5,3,-5
7,-2,-8,-3,8,-5,-23,79,11,5,2,-6
7,-4,-10,-2,9,-7,-23,79,11,5,2,-6
6,-6,-12,-1,9,-9,-23,80,10,5,1,-7
6,-7,-13,0,9,-10,-22,80,10,4,1,-8
6,-8,-13,0,9,-10,-22,79,9,4,0,-10
6,-8,-13,0,9,-10,-22,79,9,3,-1,-11
5,-8,-13,1,10,-11,-22,78,8,3,-2,-12
5,-9,-14,1,10,-11,-22,78,8,2,-3,-13
5,-9,-14,1,9,-12,-21,77,7,2,-4,-13
4,-9,-13,2,9,-12,-21,76,7,1,-5,-14
4,-9,-13,2,8,-12,-21,75,6,1,-5,-14
3,-10,-13,3,8,-12,-21,74,6,1,-6,-14
3,-10,-13,3,8,-12,-21,73,5,1,-6,-14
3,-11,-14,4,8,-12,-21,72,5,1,-6,-15
3,-11,-14,4,8,-13,-21,72,5,1,-7,-15
3,-12,-14,4,9,-13,-21,71,4,1,-7,-16
3,-12,-14,4,9,-14,-21,70,4,1,-8,-16
3,-13,-15,4,9,-15,-21,69,4,0,-8,-16
3,-13,-16,5,9,-15,-21,68,4,0,-8,-16
3,-14,-17,5,10,-16,-21,67,3,0,-8,-16
3,-14,-17,5,10,-17,-21,66,3,0,-8,-16
3,-14,-17,5,10,-16,-21,66,2,0,-8,-17
3,-14,-17,5,10,-16,-21,65,2,0,-8,-17
3,-13,-17,5,10,-16,-21,65,2,0,-8,-17
3,-13,-16,5,10,-16,-21,64,1,0,-9,-17
3,-13,-16,5,9,-16,-21,62,1,0,-9,-17
2,-13,-15,5,9,-15,-22,60,0,0,-10,-18
2,-13,-15,5,9,-15,-22,57,0,0,-10,-18
2,-13,-16,5,9,-15,-22,56,0,0,-10,-18
2,-14,-16,6,9,-16,-22,54,0,0,-10,-18
2,-14,-16,6,9,-15,-22,53,0,0,-10,-19
2,-14,-15,6,9,-15,-22,52,0,0,-10,-19
2,-15,-16,6,9,-16,-22,52,0,0,-10,-19
2,-16,-17,7,10,-17,-22,51,0,1,-10,-19
2,-16,-18,6,10,-17,-22,50,1,1,-10,-18
2,-15,-18,6,10,-17,-22,49,1,1,-9,-18
2,-15,-18,6,10,-17,-22,49,1,2,-9,-18
2,-15,-18,6,10,-17,-22,49,1,2,-9,-18
2,-15,-18,6,10,-17,-22,49,1,2,-9,-18
2,-15,-17,6,10,-17,-22,49,1,2,-9,-18
2,-15,-17,6,9,-17,-22,49,1,2,-9,-19
2,-15,-17,6,9,-17,-22,49,2,2,-10,-19
2,-16,-18,6,10,-18,-22,48,2,3,-10,-19
2,-16,-18,7,10,-18,-22,48,2,3,-9,-19
2,-16,-19,7,11,-18,-22,48,3,2,-9,-19
2,-16,-19,7,11,-18,-22,47,3,2,-9,-18
2,-17,-19,7,11,-18,-22,47,3,1,-9,-18
2,-17,-19,7,11,-18,-22,47,3,1,-9,-18
2,-17,-19,7,11,-19,-23,46,3,1,-9,-17
2,-17,-19,7,11,-19,-23,46,3,1,-9,-17
2,-17,-19,7,11,-19,-23,47,3,1,-8,-17
2,-17,-19,7,11,-19,-23,48,3,2,-8,-17
2,-17,-19,7,11,-19,-23,49,4,3,-8,-17
2,-17,-19,7,11,-19,-24,50,4,4,-8,-17
2,-17,-19,7,11,-19,-24,51,4,4,-8,-17
2,-17,-19,7,11,-18,-24,51,4,5,-8,-17
2,-17,-18,6,10,-18,-24,51,5,5,-8,-17
2,-16,-18,6,10,-17,-25,51,5,5,-9,-16
2,-16,-18,6,10,-17,-25,51,6,5,-9,-16
2,-16,-18,6,10,-17,-25,51,6,4,-9,-16
2,-16,-18,6,10,-17,-25,51,7,4,-9,-15
2,-16,-18,6,10,-17,-25,51,7,4,-8,-15
2,-16,-18,6,10,-17,-25,51,7,4,-8,-15
2,-16,-18,6,10,-17,-25,51,7,4,-8,-15
2,-16,-17,6,10,-17,-25,50,7,4,-7,-15
2,-15,-17,6,9,-17,-25,50,8,4,-7,-15
2,-15,-17,6,9,-17,-25,49,8,4,-7,-15
2,-15,-17,6,9,-17,-25,48,8,3,-6,-16
2,-15,-17,6,9,-17,-25,48,8,3,-6,-16
2,-15,-17,6,9,-17,-25,48,8,3,-6,-17
2,-16,-17,6,9,-18,-25,48,8,3,-6,-17
2,-16,-18,6,9,-18,-25,48,8,3,-7,-17
2,-16,-18,6,9,-18,-25,48,8,3,-7,-17
2,-16,-18,6,9,-18,-25,48,8,3,-7,-17
2,-16,-18,6,9,-18,-25,49,8,2,-8,-17
2,-16,-17,6,9,-17,-25,49,8,2,-8,-17
2,-16,-17,6,9,-17,-25,49,8,2,-8,-17
2,-16,-16,6,9,-17,-25,49,8,2,-8,-17
2,-16,-16,7,9,-17,-25,49,8,2,-8,-17
2,-15,-16,7,9,-17,-25,48,8,1,-8,-18
2,-15,-16,6,9,-16,-25,48,8,1,-8,-18
2,-15,-16,6,9,-16,-25,47,8,0,-8,-18
2,-15,-17,7,9,-16,-25,47,8,0,-8,-18
2,-16,-17,7,9,-17,-24,47,8,0,-8,-18
2,-16,-17,7,9,-17,-24,47,8,0,-8,-18
2,-16,-17,7,9,-18,-24,47,8,0,-8,-18
2,-16,-17,7,9,-18,-24,47,8,0,-8,-17
2,-16,-18,7,9,-18,-24,47,8,0,-8,-17
2,-16,-18,7,9,-18,-24,47,8,-1,-8,-17
2,-16,-18,7,9,-18,-24,47,8,-1,-8,-17
2,-16,-18,7,9,-18,-25,46,8,-2,-9,-17
2,-16,-17,7,9,-17,-25,46,8,-2,-9,-17
2,-16,-17,7,8,-17,-26,45,8,-3,-9,-17
2,-16,-16,7,8,-17,-26,45,8,-3,-10,-17
1,-16,-16,8,8,-17,-25,44,8,-3,-10,-17
1,-17,-17,8,8,-17,-25,44,7,-3,-10,-17
1,-16,-17,8,8,-17,-25,44,7,-4,-10,-17
1,-16,-17,7,8,-17,-25,44,6,-4,-10,-18
1,-16,-17,7,8,-17,-25,44,6,-4,-10,-18
1,-16,-17,8,9,-17,-25,44,6,-4,-9,-17
1,-17,-18,8,9,-18,-24,45,7,-4,-9,-17
1,-17,-18,7,9,-18,-24,46,7,-3,-9,-16
1,-16,-17,7,9,-17,-25,47,6,-3,-9,-16
1,-15,-16,6,8,-16,-25,48,6,-3,-9,-16
1,-15,-16,6,8,-16,-25,48,5,-3,-9,-16
1,-15,-16,7,8,-16,-25,49,5,-3,-9,-16
2,-16,-17,7,9,-17,-25,50,5,-4,-9,-16
2,-16,-17,7,9,-17,-25,50,5,-5,-9,-16
2,-16,-17,7,9,-17,-25,50,5,-5,-9,-16
2,-16,-17,7,9,-17,-25,50,4,-6,-9,-16
2,-16,-17,7,9,-17,-25,50,4,-6,-9,-16
2,-17,-18,7,9,-17,-26,50,4,-6,-9,-16
2,-17,-18,7,9,-17,-26,51,4,-7,-9,-16
2,-16,-18,7,9,-17,-26,51,3,-7,-9,-16
2,-16,-18,7,9,-17,-26,51,3,-7,-9,-16
2,-16,-18,7,9,-17,-26,51,3,-7,-9,-16
2,-16,-17,7,9,-17,-26,51,3,-8,-9,-16
2,-16,-17,7,9,-17,-26,51,3,-8,-9,-16
2,-16,-16,7,9,-17,-26,51,3,-8,-10,-16
2,-15,-16,7,9,-16,-26,51,2,-8,-10,-16
2,-15,-15,7,8,-16,-26,51,2,-8,-10,-17
1,-14,-14,7,7,-15,-27,51,1,-8,-10,-17
1,-14,-14,7,7,-15,-27,51,1,-8,-10,-17
1,-15,-15,8,8,-16,-27,51,1,-8,-10,-16
1,-16,-17,8,9,-17,-26,51,1,-8,-10,-16
1,-16,-17,8,9,-18,-26,51,1,-8,-10,-16
1,-16,-17,8,9,-17,-26,51,1,-7,-10,-15
1,-17,-17,8,9,-17,-26,51,1,-7,-10,-15
1,-17,-17,8,9,-17,-26,51,1,-7,-10,-15
1,-16,-17,8,9,-17,-26,51,1,-7,-10,-15
1,-16,-17,8,8,-17,-26,51,1,-7,-10,-15
1,-15,-16,8,8,-16,-27,51,1,-7,-10,-15
1,-14,-16,7,8,-16,-27,51,1,-7,-10,-15
1,-14,-15,7,8,-15,-27,51,1,-7,-10,-15
1,-13,-14,6,8,-14,-27,50,1,-7,-9,-15
2,-13,-14,6,8,-14,-27,50,1,-7,-9,-15
2,-12,-14,5,8,-13,-27,50,1,-7,-8,-14
2,-12,-14,5,8,-13,-27,50,1,-6,-8,-14
2,-11,-13,4,8,-12,-27,50,1,-6,-7,-13
2,-10,-13,4,8,-12,-26,50,2,-6,-7,-13
2,-9,-12,4,8,-11,-26,50,2,-6,-7,-13
2,-8,-11,3,7,-11,-26,50,2,-5,-7,-13
2,-8,-10,3,7,-10,-26,50,2,-5,-7,-12
2,-8,-10,3,6,-9,-26,50,3,-4,-7,-12
2,-8,-9,3,6,-9,-25,50,3,-4,-7,-12
2,-7,-9,2,6,-8,-25,50,4,-4,-7,-12
2,-7,-9,2,6,-8,-25,49,4,-4,-7,-12
2,-7,-9,2,6,-8,-25,49,4,-4,-7,-12
3,-7,-10,2,6,-9,-25,49,4,-4,-6,-12
3,-7,-10,2,6,-9,-25,49,4,-4,-6,-11
4,-7,-10,2,7,-10,-25,49,4,-4,-6,-11
4,-7,-11,2,7,-10,-26,49,5,-4,-5,-11
5,-7,-11,2,8,-10,-27,49,5,-3,-5,-11
5,-7,-11,1,8,-10,-27,48,5,-3,-5,-11
5,-7,-11,1,8,-10,-28,48,6,-3,-5,-11
5,-7,-11,1,9,-10,-28,47,6,-3,-5,-11
6,-7,-12,1,9,-10,-28,47,6,-3,-5,-11
6,-7,-12,1,9,-10,-28,46,6,-3,-4,-11
6,-7,-13,1,10,-11,-28,45,6,-2,-4,-10
7,-8,-14,1,10,-11,-29,44,6,-2,-4,-10
7,-8,-14,1,10,-11,-29,43,6,-2,-4,-10
7,-7,-13,0,10,-11,-30,42,6,-2,-4,-10
7,-7,-13,0,10,-11,-30,42,6,-2,-5,-10
7,-8,-13,0,10,-11,-31,41,5,-2,-5,-10
7,-8,-13,0,10,-11,-31,41,5,-3,-5,-10
7,-8,-13,0,10,-11,-31,40,5,-3,-5,-10
7,-8,-14,0,10,-11,-31,40,5,-3,-5,-10
7,-8,-14,0,10,-11,-31,40,5,-3,-5,-10
7,-8,-14,0,10,-12,-31,40,5,-3,-6,-10
6,-8,-14,0,9,-12,-31,39,5,-4,-6,-10
6,-8,-14,1,9,-11,-30,38,5,-4,-6,-10
6,-8,-14,1,10,-12,-30,38,5,-4,-6,-10
6,-9,-15,1,10,-12,-30,38,5,-4,-5,-10
6,-10,-16,2,11,-13,-29,37,5,-4,-5,-10
6,-11,-16,3,11,-14,-29,37,5,-4,-5,-10
5,-12,-16,3,10,-14,-29,37,5,-5,-6,-11
5,-12,-16,4,10,-14,-29,35,5,-5,-6,-11
5,-12,-16,4,10,-14,-29,34,4,-6,-7,-12
5,-13,-16,5,10,-15,-29,32,4,-7,-8,-13
4,-14,-17,5,10,-16,-28,31,3,-7,-8,-13
4,-15,-17,5,10,-16,-28,30,3,-8,-9,-14
4,-14,-17,5,10,-16,-27,29,3,-8,-9,-15
4,-14,-16,6,9,-15,-27,29,3,-8,-9,-15
3,-15,-16,6,9,-15,-27,28,3,-9,-9,-16
2,-16,-16,7,8,-16,-27,28,3,-9,-10,-16
1,-16,-16,8,8,-16,-26,28,3,-9,-10,-16
1,-16,-16,8,8,-16,-26,28,3,-9,-10,-16
1,-16,-16,8,8,-17,-25,28,3,-9,-10,-16
1,-16,-16,8,8,-17,-25,28,3,-9,-11,-16
1,-16,-17,8,8,-17,-25,28,3,-9,-11,-17
1,-16,-17,8,8,-17,-25,28,2,-9,-11,-17
1,-16,-17,8,8,-17,-25,28,2,-9,-11,-17
1,-17,-17,8,9,-17,-25,29,2,-10,-11,-17
1,-17,-17,8,9,-17,-25,29,2,-10,-11,-17
1,-16,-17,8,9,-17,-25,29,1,-10,-11,-17
1,-16,-17,8,9,-17,-25,29,1,-11,-11,-16
1,-16,-17,8,9,-17,-24,29,1,-11,-11,-16
1,-16,-16,8,9,-16,-24,30,1,-11,-10,-16
1,-16,-16,8,8,-16,-24,30,1,-11,-10,-16
1,-16,-15,8,8,-15,-24,30,1,-11,-10,-16
1,-15,-14,8,7,-15,-24,29,1,-11,-10,-16
1,-15,-14,8,7,-15,-24,29,1,-11,-10,-16
1,-15,-14,8,7,-15,-24,28,1,-10,-10,-16
1,-15,-14,8,7,-14,-23,28,1,-10,-10,-16
1,-14,-13,8,7,-14,-23,27,1,-10,-10,-16
1,-14,-13,8,7,-14,-23,27,1,-9,-10,-16
0,-15,-14,8,7,-14,-23,27,1,-9,-10,-16
0,-15,-14,8,6,-14,-23,27,1,-8,-10,-16
0,-15,-13,8,6,-14,-23,27,2,-8,-10,-16
0,-15,-13,8,6,-14,-23,27,2,-8,-10,-16
0,-15,-14,8,6,-15,-23,27,3,-8,-10,-16
0,-16,-14,8,7,-15,-22,27,3,-7,-10,-15
0,-16,-15,8,7,-16,-22,27,4,-7,-10,-15
0,-16,-15,8,7,-16,-21,27,4,-7,-10,-15
0,-16,-15,8,7,-16,-21,26,4,-7,-10,-15
0,-16,-15,8,7,-16,-21,25,4,-7,-10,-15
0,-16,-15,9,7,-16,-21,25,4,-6,-10,-16
0,-16,-15,9,7,-16,-21,25,4,-6,-10,-16
0,-17,-15,9,7,-16,-21,25,4,-6,-10,-16
0,-17,-15,9,7,-16,-21,25,3,-6,-10,-16
-1,-17,-15,9,7,-16,-21,25,3,-6,-10,-16
-1,-18,-16,10,7,-17,-20,26,5,-6,-10,-16
-1,-19,-16,10,7,-17,-19,27,7,-5,-9,-16
-1,-19,-16,10,7,-17,-19,28,9,-3,-9,-15
-1,-18,-15,10,6,-16,-18,29,12,-1,-7,-15
-1,-17,-15,9,6,-16,-18,31,15,1,-5,-14
0,-17,-16,9,7,-17,-17,34,19,6,-2,-13
0,-19,-18,9,9,-18,-16,39,24,11,1,-12
1,-21,-20,10,10,-21,-14,45,29,16,3,-12
2,-22,-23,10,12,-23,-13,51,36,23,8,-11
3,-23,-25,10,14,-24,-12,58,45,34,16,-7
6,-22,-26,8,16,-24,-11,66,56,47,27,-1
9,-20,-28,6,18,-24,-10,75,68,62,40,5
13,-17,-29,2,21,-23,-10,82,79,76,54,14
18,-12,-29,-2,24,-21,-12,87,88,91,70,26
25,-6,-30,-9,28,-18,-14,92,97,106,87,39
32,1,-30,-16,31,-15,-17,94,104,120,105,53
37,8,-28,-22,33,-10,-22,88,103,128,118,65
39,15,-23,-27,31,-4,-26,71,89,122,123,73
36,17,-17,-26,27,0,-29,48,64,102,113,71
28,12,-15,-19,22,-1,-28,24,33,68,86,56
18,3,-14,-10,16,-5,-26,1,-4,22,44,29
7,-4,-11,-1,9,-8,-24,-23,-45,-30,-4,0
0,-10,-9,5,4,-10,-25,-46,-83,-76,-46,-25
-5,-17,-11,11,2,-14,-25,-61,-112,-110,-77,-44
-8,-25,-16,17,3,-21,-26,-69,-130,-130,-98,-58
-10,-31,-21,21,5,-26,-26,-71,-139,-138,-109,-67
-11,-35,-22,23,4,-29,-27,-68,-139,-137,-111,-70
-12,-34,-21,24,3,-28,-28,-62,-132,-129,-106,-69
-12,-32,-19,23,3,-26,-29,-53,-120,-117,-97,-65
-11,-30,-16,21,2,-23,-30,-44,-108,-104,-87,-60
-11,-26,-13,19,1,-20,-31,-37,-96,-92,-77,-54
-10,-22,-11,16,0,-16,-31,-30,-84,-80,-67,-48
-9,-18,-8,13,0,-13,-31,-24,-72,-68,-58,-42
-8,-14,-6,11,-1,-10,-31,-18,-62,-58,-50,-36
-7,-11,-4,9,-2,-8,-30,-12,-51,-49,-43,-32
-6,-10,-3,9,-2,-7,-29,-6,-41,-40,-36,-28
-5,-9,-3,8,-1,-7,-27,0,-31,-32,-30,-26
-5,-9,-3,8,-1,-6,-26,5,-23,-25,-25,-24
-4,-9,-3,7,0,-6,-25,8,-17,-20,-21,-22
-4,-9,-3,7,0,-6,-24,10,-12,-16,-19,-20
-4,-8,-3,6,0,-6,-23,12,-9,-14,-17,-18
-4,-7,-2,6,-1,-5,-23,12,-7,-12,-16,-17
-4,-7,-2,6,-1,-4,-22,12,-6,-11,-15,-16
-4,-7,-1,6,-1,-4,-22,12,-5,-11,-14,-16
-4,-6,-1,6,-1,-4,-22,12,-4,-10,-14,-16
-5,-6,0,6,-1,-3,-22,12,-3,-10,-13,-16
-5,-5,0,6,-2,-3,-22,12,-2,-10,-12,-15
-5,-5,0,5,-2,-2,-21,11,-1,-10,-12,-15
-5,-5,1,5,-2,-2,-21,11,-1,-10,-11,-15
-5,-5,1,5,-3,-2,-21,10,-1,-9,-11,-15
-5,-4,2,5,-3,-1,-21,10,-1,-9,-11,-15
-5,-4,2,5,-4,-1,-21,9,0,-9,-11,-15
-6,-4,2,5,-4,-1,-21,9,0,-9,-11,-14
-6,-5,2,6,-4,-1,-21,8,0,-9,-10,-14
-6,-5,2,6,-4,-2,-21,8,0,-9,-10,-13
-6,-5,2,6,-4,-1,-21,8,0,-10,-10,-13
-6,-5,2,6,-4,-1,-21,8,0,-10,-10,-13
-6,-4,2,5,-4,0,-21,8,0,-10,-10,-12
-6,-4,2,5,-4,0,-21,8,0,-9,-10,-12
-6,-4,2,5,-4,0,-21,9,0,-9,-9,-11
-6,-4,3,5,-5,0,-21,9,0,-9,-9,-11
-6,-3,4,5,-5,0,-21,10,0,-9,-8,-10
-6,-3,4,5,-5,1,-21,10,0,-9,-8,-10
-6,-2,5,5,-6,1,-21,11,0,-9,-8,-9
-6,-1,6,4,-6,2,-21,12,-1,-9,-8,-9
-6,0,7,4,-6,3,-21,13,-2,-9,-8,-8
-6,1,8,3,-7,4,-21,14,-3,-9,-7,-8
-6,2,9,2,-7,5,-21,15,-3,-10,-7,-7
-6,3,10,2,-8,6,-21,15,-4,-10,-6,-7
-6,4,10,1,-8,6,-21,15,-4,-10,-6,-6
-6,4,11,1,-8,7,-21,15,-4,-10,-6,-6
-6,5,11,1,-8,7,-22,15,-5,-10,-6,-6
-5,6,12,0,-8,9,-22,15,-5,-10,-6,-6
-5,8,14,0,-9,10,-22,15,-6,-10,-7,-6
-5,9,15,-1,-10,11,-22,15,-7,-10,-7,-5
-5,9,14,-1,-10,11,-22,15,-7,-10,-6,-4
-5,9,14,-1,-9,11,-22,15,-7,-9,-6,-3
-4,9,14,-2,-9,12,-22,15,-7,-9,-5,-2
-4,10,15,-2,-9,12,-22,15,-7,-9,-5,-1
-5,10,15,-2,-10,12,-22,15,-7,-9,-5,-1
-5,10,16,-2,-10,13,-22,15,-8,-9,-4,-1
-5,11,17,-2,-11,14,-22,15,-8,-9,-4,0
-5,12,18,-3,-11,15,-23,14,-9,-9,-3,0
-5,14,19,-4,-12,16,-23,13,-10,-9,-3,1
-5,15,21,-5,-13,18,-24,11,-11,-9,-3,2
-5,16,22,-5,-14,19,-24,10,-12,-10,-2,3
-5,17,23,-6,-14,20,-24,8,-12,-10,-2,4
-5,18,24,-6,-14,21,-24,7,-12,-10,-2,5
-5,19,25,-6,-14,21,-24,6,-12,-9,-1,6
-5,20,26,-7,-14,22,-25,5,-13,-9,-1,7
-5,21,27,-7,-15,24,-25,4,-13,-9,0,8
-5,23,28,-8,-16,25,-25,3,-13,-9,0,10
-5,24,30,-9,-17,27,-26,1,-14,-9,0,11
-5,26,32,-9,-18,29,-26,0,-14,-9,1,12
-5,27,33,-10,-19,31,-26,-2,-15,-9,1,13
-5,28,35,-11,-20,32,-27,-4,-15,-9,2,14
-5,30,36,-12,-20,33,-27,-6,-16,-9,2,15
-5,31,37,-13,-21,34,-27,-7,-17,-9,3,16
-5,33,38,-14,-21,36,-28,-8,-17,-9,4,18
-5,35,40,-15,-22,38,-28,-9,-18,-9,5,19
-4,37,42,-16,-23,40,-29,-11,-18,-9,6,20
-4,39,44,-17,-24,42,-29,-13,-19,-9,6,21
-4,41,46,-18,-25,43,-30,-15,-19,-9,7,22
-4,42,47,-19,-25,44,-30,-16,-19,-9,8,24
-3,44,49,-20,-26,46,-30,-17,-19,-8,9,25
-3,46,50,-21,-26,48,-30,-18,-19,-8,10,26
-3,48,51,-22,-27,49,-30,-19,-19,-7,11,27
-2,49,52,-23,-27,50,-30,-19,-19,-6,12,29
-2,51,54,-24,-27,52,-31,-19,-19,-6,13,30
-2,52,55,-24,-28,54,-31,-20,-19,-6,13,31
-2,52,56,-25,-29,55,-32,-21,-19,-6,13,32
-2,53,57,-25,-29,55,-32,-21,-19,-6,14,33
-2,53,57,-25,-29,55,-31,-21,-18,-5,15,34
-2,53,57,-25,-29,55,-31,-21,-18,-5,16,36
-2,54,57,-26,-29,56,-31,-22,-17,-4,17,37
-2,55,58,-26,-29,56,-31,-22,-17,-4,18,38
-1,56,58,-27,-29,57,-31,-22,-16,-3,19,39
-1,56,58,-27,-29,57,-31,-22,-15,-3,20,40
0,57,58,-27,-29,57,-31,-22,-14,-2,21,41
0,58,58,-28,-29,58,-31,-22,-13,-2,21,41
0,59,59,-29,-29,59,-31,-22,-13,-1,22,42
0,60,60,-30,-29,60,-31,-21,-12,-1,22,42
0,61,60,-30,-29,60,-31,-20,-11,0,23,43
0,61,60,-30,-29,60,-31,-19,-11,0,23,43
1,61,60,-30,-29,60,-31,-18,-10,0,24,44
1,61,59,-31,-28,60,-31,-16,-9,1,25,44
2,61,59,-31,-28,60,-31,-15,-8,2,25,44
2,61,59,-31,-28,60,-30,-14,-7,2,26,44
3,60,58,-31,-27,59,-30,-13,-6,3,26,44
3,59,57,-31,-26,58,-29,-13,-5,5,26,44
3,58,56,-30,-25,57,-29,-12,-4,6,26,44
3,57,54,-30,-24,55,-29,-10,-3,8,26,44
3,56,53,-29,-24,54,-29,-8,-3,9,26,44
3,55,52,-29,-24,54,-29,-6,-2,10,26,43
4,54,51,-28,-23,53,-28,-5,-1,10,27,43
4,53,49,-28,-22,51,-28,-3,0,10,27,42
5,52,48,-28,-21,50,-27,-2,1,11,27,42
5,51,47,-28,-20,49,-27,0,2,11,26,41
6,49,45,-28,-19,47,-26,0,2,11,26,41
6,48,43,-27,-18,45,-26,1,3,11,26,40
6,45,40,-25,-17,43,-25,3,4,11,25,39
6,43,38,-24,-16,40,-25,5,4,11,25,38
6,41,36,-23,-15,38,-24,7,5,11,24,36
6,39,34,-22,-14,36,-24,8,6,12,24,35
6,37,32,-22,-12,34,-23,10,7,12,23,34
6,34,29,-21,-11,32,-23,11,9,13,23,33
6,32,26,-20,-9,29,-22,13,10,13,22,32
6,29,23,-18,-7,26,-22,14,11,13,22,31
7,27,21,-17,-6,24,-21,15,12,13,21,29
7,25,18,-16,-5,21,-20,16,13,13,20,27
7,23,16,-15,-4,19,-19,16,13,13,19,25
7,20,14,-14,-3,17,-18,17,14,14,18,24
7,18,11,-12,-2,15,-17,18,14,14,17,22
7,15,9,-11,0,12,-17,19,14,14,16,21
7,13,7,-10,0,10,-16,19,14,14,15,20
7,10,5,-9,1,7,-16,20,14,14,14,18
7,8,3,-8,2,5,-16,20,14,14,13,16
6,6,0,-6,3,3,-15,20,13,14,12,14
6,4,-1,-5,4,1,-15,20,13,14,10,12
6,2,-3,-4,5,0,-14,21,12,13,9,10
6,0,-6,-3,6,-3,-13,21,12,13,9,9
6,-3,-8,-2,7,-5,-11,21,11,12,8,8
6,-5,-10,-1,8,-7,-10,21,11,11,7,7
6,-6,-12,0,9,-9,-10,21,11,11,6,6
7,-8,-14,0,10,-11,-9,21,11,10,5,5
6,-9,-15,1,11,-12,-9,21,10,10,4,3
6,-10,-15,2,11,-13,-9,20,10,9,2,2
5,-11,-16,3,11,-13,-9,20,9,8,1,0
5,-12,-16,4,11,-14,-9,19,9,7,0,0
4,-13,-16,4,11,-14,-9,19,9,6,0,-1
4,-13,-16,4,11,-15,-9,18,8,6,-1,-2
4,-14,-17,5,11,-16,-9,18,8,5,-1,-3
3,-15,-18,5,11,-17,-8,18,7,5,-2,-4
3,-16,-18,6,11,-18,-8,18,7,4,-2,-5
3,-16,-19,7,11,-18,-8,18,6,4,-3,-6
3,-17,-19,7,11,-19,-8,18,6,3,-4,-7
3,-18,-20,8,11,-19,-7,18,5,3,-5,-7
3,-18,-20,8,11,-19,-7,18,5,2,-5,-8
3,-19,-20,8,11,-20,-7,18,5,2,-6,-8
3,-19,-21,8,11,-20,-7,18,4,1,-6,-9
2,-20,-21,9,11,-21,-7,18,4,1,-7,-9
2,-20,-21,9,11,-21,-7,18,3,1,-7,-10
2,-21,-21,9,11,-21,-7,18,3,1,-7,-10
1,-21,-21,9,11,-21,-7,17,2,1,-7,-10
1,-20,-21,9,11,-21,-6,17,2,0,-8,-11
1,-19,-20,9,11,-20,-6,16,2,0,-8,-11
1,-19,-19,8,10,-19,-6,16,2,-1,-8,-12
1,-19,-19,8,10,-19,-6,15,2,-1,-8,-12
1,-19,-19,8,10,-19,-6,14,2,-2,-8,-12
2,-18,-19,8,10,-19,-6,14,2,-2,-8,-13
2,-18,-19,8,10,-19,-6,14,1,-2,-8,-13
2,-18,-19,8,10,-19,-6,14,1,-2,-8,-13
2,-17,-19,8,10,-19,-6,13,1,-2,-8,-13
3,-17,-19,7,10,-18,-6,12,1,-1,-9,-13
3,-16,-18,7,10,-18,-6,11,1,-1,-9,-13
2,-16,-18,7,10,-17,-6,10,1,-1,-10,-13
2,-16,-18,7,9,-17,-6,10,1,-1,-10,-13
2,-17,-18,7,10,-18,-6,10,1,-1,-10,-13
2,-17,-19,7,10,-18,-6,11,1,-1,-10,-13
2,-17,-19,7,10,-18,-6,11,1,-1,-10,-13
2,-17,-19,7,10,-18,-6,11,1,-1,-9,-14
2,-17,-19,7,10,-18,-6,11,1,-1,-9,-14
2,-17,-19,7,9,-18,-5,12,1,-1,-9,-15
2,-17,-18,7,9,-18,-5,12,2,-1,-9,-15
2,-17,-18,7,9,-18,-5,12,2,-1,-9,-15
2,-17,-18,7,9,-18,-5,12,2,-1,-9,-15
2,-17,-17,7,9,-17,-5,12,2,-1,-9,-15
2,-17,-17,7,9,-17,-5,12,2,-1,-9,-15
2,-16,-17,7,9,-17,-5,12,3,-1,-9,-15
2,-16,-17,7,9,-17,-5,12,3,-1,-9,-15
2,-16,-18,7,9,-17,-5,12,3,-1,-9,-15
2,-16,-18,7,10,-17,-5,12,3,-1,-9,-15
2,-16,-18,7,10,-17,-5,12,3,-1,-9,-15
2,-16,-18,7,10,-17,-5,12,3,-1,-8,-15
2,-16,-18,7,10,-17,-5,13,3,-1,-8,-15
2,-16,-18,7,10,-17,-5,13,3,-1,-8,-15
2,-16,-18,7,10,-17,-5,13,3,-1,-8,-15
2,-16,-18,7,10,-17,-5,13,2,0,-8,-15
2,-17,-19,7,10,-18,-5,13,2,0,-8,-15
2,-17,-19,7,10,-18,-5,13,2,0,-8,-15
2,-16,-19,7,10,-18,-5,13,2,0,-8,-15
2,-15,-18,6,10,-17,-5,14,2,1,-7,-15
2,-15,-17,6,10,-16,-5,14,1,1,-7,-14
2,-15,-17,7,9,-16,-5,13,1,1,-7,-14
2,-16,-17,7,9,-17,-5,13,0,2,-7,-14
2,-16,-17,7,9,-17,-5,13,0,2,-7,-14
2,-16,-17,7,9,-16,-5,12,0,2,-7,-14
2,-15,-16,7,8,-15,-5,12,0,1,-8,-15
1,-15,-15,7,8,-15,-5,12,-1,1,-8,-16
1,-15,-16,7,8,-15,-5,13,0,2,-7,-16
1,-16,-17,7,9,-16,-4,13,0,3,-7,-15
1,-16,-17,7,9,-16,-4,14,0,3,-7,-15
2,-15,-16,7,9,-16,-4,14,0,3,-7,-15
2,-15,-16,6,9,-16,-4,14,0,3,-7,-15
2,-15,-17,6,9,-16,-4,14,1,3,-6,-15
2,-16,-17,7,9,-17,-3,14,1,4,-6,-15
2,-17,-18,7,9,-17,-3,13,1,4,-6,-14
2,-17,-18,7,9,-18,-4,13,0,4,-6,-14
2,-17,-18,7,9,-18,-4,13,0,4,-6,-14
2,-16,-18,7,9,-17,-4,13,0,4,-6,-14
2,-16,-18,7,9,-17,-4,13,0,4,-6,-14
2,-16,-18,7,10,-17,-4,12,0,4,-7,-13
2,-16,-18,7,10,-17,-4,12,-1,4,-7,-13
2,-16,-18,7,10,-16,-4,11,-1,4,-7,-13
2,-16,-18,7,10,-16,-4,11,-1,4,-7,-13
2,-16,-18,7,10,-16,-3,10,-1,4,-7,-13
2,-16,-18,7,10,-16,-3,9,-1,4,-7,-13
1,-16,-17,7,9,-16,-3,8,-2,4,-7,-13
1,-16,-17,7,9,-16,-3,8,-2,4,-7,-13
1,-16,-17,7,9,-16,-3,7,-2,4,-7,-13
1,-16,-17,7,9,-16,-3,7,-2,4,-6,-14
1,-16,-17,7,9,-16,-4,7,-2,4,-6,-14
1,-16,-16,7,9,-16,-4,7,-2,4,-6,-14
1,-15,-16,7,9,-16,-4,6,-3,4,-6,-14
1,-16,-16,7,9,-16,-4,6,-3,4,-6,-14
1,-17,-17,8,9,-18,-4,5,-3,4,-6,-14
1,-18,-18,8,10,-19,-3,5,-3,4,-6,-14
1,-18,-18,8,10,-19,-3,4,-3,4,-6,-14
1,-18,-18,8,10,-18,-3,3,-3,3,-6,-14
1,-18,-18,8,10,-18,-3,2,-3,3,-6,-14
1,-18,-18,8,10,-18,-3,2,-3,3,-6,-14
1,-18,-18,8,10,-18,-3,1,-3,2,-6,-14
1,-17,-18,8,10,-18,-3,0,-3,2,-6,-14
1,-17,-17,8,9,-17,-4,-1,-3,1,-6,-14
1,-16,-17,8,9,-17,-4,-2,-3,1,-6,-14
1,-16,-17,8,9,-16,-4,-3,-3,1,-6,-14
1,-16,-17,8,9,-16,-4,-4,-3,0,-6,-14
1,-17,-17,8,9,-16,-4,-4,-3,0,-6,-14
1,-17,-17,8,9,-16,-4,-5,-3,0,-6,-14
1,-17,-17,8,9,-16,-4,-5,-2,0,-6,-14
1,-17,-17,8,9,-16,-4,-6,-2,0,-6,-14
1,-17,-17,8,9,-17,-4,-6,-2,0,-5,-13
1,-16,-17,8,9,-17,-4,-7,-1,0,-5,-13
2,-16,-17,7,9,-16,-4,-7,-1,0,-5,-13
2,-15,-17,7,9,-16,-3,-7,0,0,-5,-13
2,-15,-17,7,9,-16,-3,-7,0,0,-5,-13
1,-16,-16,7,9,-16,-3,-7,0,0,-5,-13
1,-16,-16,7,9,-16,-3,-7,0,0,-5,-13
1,-16,-16,7,9,-16,-3,-7,0,0,-5,-13
1,-16,-16,7,9,-16,-3,-7,0,0,-5,-13
1,-16,-16,7,9,-16,-3,-8,-1,-1,-5,-13
1,-15,-15,7,8,-15,-3,-7,-1,-1,-5,-14
1,-15,-15,7,8,-15,-3,-6,-1,-2,-5,-14
1,-15,-15,7,8,-15,-2,-4,-1,-2,-5,-14
0,-15,-14,7,8,-14,-2,-4,-1,-2,-6,-14
0,-14,-14,7,7,-14,-2,-3,-1,-2,-6,-15
0,-14,-14,7,7,-14,-2,-3,-1,-2,-7,-15
0,-14,-14,7,7,-14,-2,-2,-1,-2,-7,-14
0,-15,-15,7,7,-15,-2,-2,0,-2,-7,-14
0,-15,-15,7,7,-15,-2,-2,0,-2,-8,-14
0,-15,-15,7,7,-15,-2,-3,0,-3,-8,-14
1,-15,-15,7,8,-15,-2,-3,0,-3,-8,-14
1,-15,-15,7,8,-15,-1,-3,0,-3,-8,-14
1,-14,-15,7,8,-14,-1,-3,0,-4,-8,-14
1,-14,-15,6,8,-14,-1,-3,0,-4,-8,-13
2,-14,-16,6,9,-15,-1,-3,0,-4,-8,-13
2,-14,-16,6,9,-14,0,-3,0,-4,-7,-13
2,-13,-15,6,8,-14,0,-3,0,-4,-7,-13
2,-13,-15,6,9,-14,0,-3,0,-4,-6,-13
3,-14,-16,6,10,-15,1,-2,1,-3,-5,-12
3,-15,-17,6,10,-16,2,-1,2,-2,-5,-12
3,-15,-17,6,10,-16,2,-1,2,-2,-4,-11
2,-15,-17,7,10,-16,2,0,3,-1,-4,-11
2,-15,-17,7,10,-16,2,0,3,-1,-4,-11
2,-15,-17,7,10,-16,2,0,4,-1,-4,-10
2,-15,-16,6,9,-15,2,0,4,-1,-4,-10
2,-14,-16,6,9,-15,2,0,4,-1,-4,-10
2,-14,-15,6,9,-14,2,1,5,-1,-4,-10
2,-14,-15,6,9,-14,2,1,5,-1,-4,-10
2,-13,-14,5,9,-13,2,2,6,-1,-4,-10
2,-12,-14,5,9,-13,2,3,6,-1,-4,-10
2,-12,-13,4,9,-12,1,3,7,0,-4,-10
2,-11,-14,4,9,-12,1,4,7,0,-4,-9
3,-11,-14,4,9,-13,1,4,7,0,-4,-9
3,-12,-15,4,10,-13,0,5,8,0,-3,-9
4,-12,-16,4,10,-14,0,6,8,1,-3,-9
5,-13,-17,4,11,-15,-1,6,8,1,-2,-8
5,-13,-17,4,11,-16,-1,6,8,1,-2,-8
5,-13,-17,4,11,-16,-2,6,8,1,-2,-8
5,-13,-17,4,11,-15,-2,6,8,1,-2,-8
5,-13,-17,4,11,-15,-3,6,7,1,-2,-8
6,-12,-17,4,11,-15,-3,6,7,1,-2,-8
6,-12,-17,3,12,-14,-4,5,6,2,-3,-8
7,-11,-17,3,12,-14,-4,5,6,2,-3,-8
7,-11,-17,2,12,-14,-4,4,5,2,-3,-8
7,-10,-16,2,12,-14,-5,4,5,2,-4,-8
7,-10,-16,2,12,-14,-5,3,4,2,-4,-8
7,-10,-17,2,12,-14,-5,3,4,2,-4,-8
7,-10,-17,2,13,-14,-5,3,3,2,-4,-9
7,-10,-16,3,12,-14,-5,3,3,2,-4,-9
6,-11,-16,3,12,-14,-5,3,2,2,-4,-9
5,-11,-16,3,12,-14,-5,3,2,1,-4,-9
5,-12,-17,3,12,-14,-5,3,2,1,-4,-9
6,-12,-17,3,12,-15,-5,3,2,0,-4,-9
6,-12,-17,3,12,-15,-4,3,2,0,-4,-9
6,-12,-17,4,12,-15,-4,4,2,0,-4,-9
6,-13,-17,4,12,-15,-4,4,2,0,-4,-9
6,-13,-18,5,12,-16,-3,4,1,0,-4,-9
6,-14,-18,5,12,-16,-3,4,1,0,-4,-9
5,-14,-18,5,12,-16,-2,4,0,0,-4,-9
4,-15,-18,5,12,-16,-1,4,0,0,-4,-9
3,-17,-19,6,12,-17,-1,5,0,-1,-5,-10
3,-18,-19,8,12,-18,0,5,0,-1,-5,-10
2,-19,-20,9,12,-19,0,5,0,-2,-6,-11
2,-20,-20,9,12,-20,0,5,0,-2,-6,-11
2,-20,-20,9,12,-20,0,5,-1,-3,-7,-11
2,-20,-20,10,12,-20,0,5,-1,-3,-7,-11
2,-19,-20,10,12,-20,0,5,-2,-3,-7,-11
2,-19,-20,9,12,-20,1,5,-2,-3,-7,-12
2,-18,-19,9,11,-19,1,5,-2,-4,-8,-12
2,-18,-19,9,11,-19,1,5,-3,-4,-8,-12
2,-19,-19,9,11,-19,1,5,-3,-4,-7,-12
2,-20,-20,9,11,-20,1,6,-3,-4,-7,-12
2,-20,-21,9,12,-21,1,6,-3,-4,-6,-12
2,-20,-21,9,12,-21,1,7,-3,-3,-6,-12
2,-21,-21,10,12,-21,1,7,-3,-3,-6,-12
2,-21,-22,10,12,-21,1,7,-3,-3,-6,-12
2,-22,-22,10,12,-22,1,7,-3,-2,-6,-12
2,-22,-21,10,12,-22,1,7,-3,-2,-6,-12
1,-22,-21,10,12,-22,1,7,-3,-2,-6,-12
1,-22,-21,10,12,-22,1,7,-3,-2,-7,-12
1,-22,-21,10,12,-21,1,7,-3,-2,-7,-12
1,-22,-21,10,12,-21,1,7,-2,-1,-7,-12
1,-22,-21,11,12,-21,1,8,-2,-1,-7,-12
0,-22,-22,11,12,-22,1,8,-1,-1,-7,-12
0,-22,-21,11,12,-22,1,8,-1,-1,-7,-11
0,-22,-21,10,11,-21,1,8,-1,-1,-7,-11
0,-22,-20,10,11,-21,1,9,-1,-1,-6,-11
0,-22,-20,11,11,-21,1,9,-1,-1,-6,-11
0,-22,-21,11,11,-21,1,10,-1,-1,-5,-11
0,-22,-21,11,11,-21,1,10,-1,-1,-5,-11
0,-22,-21,11,11,-21,1,10,-1,-2,-5,-11
0,-21,-20,11,10,-20,1,10,-1,-2,-6,-11
0,-21,-20,11,10,-20,1,10,-1,-2,-6,-11
0,-23,-21,11,11,-22,1,11,-1,-2,-5,-11
0,-23,-21,12,11,-23,1,12,-1,-2,-5,-11
-1,-23,-21,12,10,-22,1,13,-1,-2,-5,-11
-1,-23,-20,12,10,-22,1,13,-2,-2,-5,-11
-1,-23,-20,12,10,-22,1,13,-2,-2,-6,-11
-1,-23,-20,12,10,-22,1,14,-2,-2,-6,-11
-1,-23,-20,12,10,-22,1,14,-2,-2,-6,-11
-1,-23,-20,12,10,-22,1,15,-2,-3,-6,-11
0,-22,-20,12,10,-21,1,16,-2,-3,-6,-11
0,-22,-20,12,10,-21,0,17,-2,-3,-6,-12
0,-21,-19,11,9,-20,0,18,-1,-3,-6,-13
0,-21,-19,11,9,-20,0,20,0,-3,-6,-13
-1,-21,-18,11,8,-19,1,22,1,-2,-6,-14
-1,-21,-18,11,8,-19,1,23,3,0,-5,-13
-1,-20,-17,11,7,-19,2,25,6,3,-3,-12
-1,-20,-18,11,8,-19,2,28,9,7,0,-11
0,-21,-19,11,9,-20,3,32,14,12,2,-11
0,-22,-21,11,10,-21,4,38,19,17,4,-11
0,-23,-23,12,11,-23,6,44,24,22,8,-10
1,-24,-25,11,13,-25,7,51,32,30,14,-8
4,-24,-27,10,16,-26,8,59,42,41,23,-3
8,-22,-29,8,18,-26,8,67,53,54,34,3
12,-20,-30,5,21,-25,8,75,64,68,47,11
17,-16,-30,0,24,-24,7,81,73,81,62,21
23,-11,-32,-5,27,-22,5,86,82,95,77,33
30,-5,-34,-12,32,-20,2,90,90,110,94,46
37,1,-34,-19,36,-17,-2,89,94,121,110,59
41,8,-31,-24,36,-12,-7,77,88,122,119,70
40,12,-26,-26,34,-7,-10,57,70,109,116,73
35,10,-23,-22,29,-6,-11,33,44,83,98,64
26,3,-21,-14,24,-9,-8,9,11,43,63,43
15,-5,-18,-4,17,-11,-5,-16,-28,-6,17,14
5,-11,-13,3,9,-12,-3,-42,-67,-56,-28,-12
-3,-16,-11,10,5,-14,-4,-63,-99,-95,-62,-34
-7,-24,-15,15,4,-20,-5,-76,-122,-120,-86,-50
-10,-32,-21,20,6,-26,-5,-81,-135,-134,-101,-60
-11,-37,-24,23,7,-31,-6,-81,-140,-138,-106,-66
-11,-37,-24,24,6,-30,-7,-77,-136,-134,-105,-66
-11,-34,-22,22,6,-28,-8,-70,-127,-125,-98,-62
-10,-32,-20,21,5,-26,-10,-62,-116,-113,-89,-55
-10,-29,-17,20,4,-23,-11,-54,-104,-101,-79,-47
-10,-26,-14,18,2,-20,-11,-46,-92,-89,-70,-39
-9,-22,-11,16,1,-17,-11,-39,-81,-77,-60,-33
-8,-19,-9,14,0,-14,-11,-32,-70,-67,-51,-29
-7,-16,-7,12,0,-11,-11,-25,-60,-57,-43,-25
-6,-14,-6,10,0,-10,-11,-18,-50,-48,-36,-22
-6,-13,-5,9,0,-9,-9,-10,-40,-40,-30,-20
-5,-12,-5,8,0,-9,-8,-3,-32,-33,-25,-19
-4,-11,-5,8,0,-8,-6,1,-25,-28,-21,-17
-4,-11,-5,8,0,-8,-5,5,-20,-23,-18,-16
-4,-11,-5,8,0,-8,-3,7,-16,-20,-15,-15
-4,-10,-4,7,0,-7,-3,9,-14,-18,-13,-14
-4,-8,-3,6,0,-6,-3,9,-12,-16,-12,-14
-4,-7,-2,6,0,-5,-3,9,-11,-15,-11,-13
-4,-7,-2,6,0,-5,-3,9,-11,-15,-11,-13
-4,-7,-2,6,0,-5,-3,8,-10,-14,-10,-13
-4,-7,-2,6,-1,-5,-3,8,-10,-14,-10,-13
-4,-7,-1,6,-1,-4,-2,7,-9,-13,-10,-13
-4,-6,-1,6,-1,-4,-2,7,-9,-13,-10,-12
-4,-6,0,6,-1,-3,-2,7,-8,-12,-9,-12
-4,-6,0,6,-1,-3,-2,8,-8,-12,-8,-11
-4,-6,0,6,-1,-3,-2,8,-8,-12,-7,-11
-4,-6,0,5,-1,-3,-1,8,-7,-12,-6,-10
-4,-5,0,5,-1,-2,-1,8,-7,-12,-5,-10
-5,-5,0,5,-2,-2,-1,7,-7,-12,-5,-9
-5,-5,0,6,-2,-2,-1,5,-7,-12,-5,-9
-6,-5,1,6,-3,-2,-1,3,-7,-12,-5,-9
-6,-5,1,5,-3,-1,-1,1,-7,-12,-5,-8
-6,-4,2,5,-3,-1,-2,-1,-8,-12,-4,-8
-6,-4,2,5,-4,0,-2,-2,-8,-12,-4,-7
-6,-3,3,5,-4,0,-2,-4,-9,-13,-4,-7
-6,-3,4,5,-5,1,-2,-5,-9,-13,-3,-7
-6,-2,5,5,-5,2,-2,-6,-9,-14,-3,-7
-6,-1,6,4,-5,2,-2,-6,-9,-14,-2,-7
-6,0,6,4,-5,3,-2,-7,-9,-14,-2,-7
-6,0,7,3,-6,3,-2,-8,-9,-14,-2,-7
-6,1,7,3,-6,4,-3,-8,-9,-14,-2,-7
-6,1,8,2,-7,5,-3,-9,-9,-14,-2,-7
-6,2,9,2,-8,6,-4,-9,-10,-14,-2,-7
-6,2,10,2,-8,6,-4,-9,-10,-14,-1,-6
-6,2,10,2,-8,6,-4,-9,-10,-14,0,-5
-6,3,10,1,-8,7,-4,-10,-10,-14,0,-5
-6,4,11,1,-8,7,-4,-10,-10,-14,0,-4
-6,4,11,0,-8,8,-4,-10,-10,-13,1,-4
-6,5,12,0,-9,9,-4,-10,-10,-13,1,-3
-6,6,13,0,-9,10,-4,-11,-11,-13,2,-3
-6,7,14,0,-10,11,-4,-12,-11,-13,2,-2
-6,7,15,0,-10,12,-4,-12,-11,-14,2,-1
-6,8,16,-1,-10,13,-5,-12,-11,-14,2,0
-6,9,17,-1,-11,14,-5,-13,-12,-15,2,1
-6,10,18,-2,-11,15,-6,-13,-12,-15,2,2
-6,11,19,-2,-12,15,-7,-14,-13,-15,2,2
-6,12,19,-3,-12,16,-7,-14,-13,-15,3,3
-6,13,20,-3,-12,16,-8,-14,-14,-15,3,4
-6,14,20,-3,-12,17,-8,-15,-14,-15,4,5
-5,15,21,-4,-12,18,-8,-15,-14,-15,4,6
-5,16,23,-4,-13,19,-8,-15,-14,-15,5,7
-6,17,24,-4,-14,21,-9,-15,-14,-16,5,8
-6,18,25,-5,-15,22,-9,-16,-15,-16,6,9
-6,19,27,-6,-15,23,-10,-17,-15,-16,6,11
-6,20,27,-7,-16,24,-10,-18,-16,-16,7,15
-6,21,28,-7,-16,25,-10,-19,-16,-16,7,17
-5,23,29,-8,-17,26,-10,-19,-16,-16,8,18
-5,25,31,-9,-17,28,-10,-20,-16,-17,8,18
-5,27,33,-10,-18,30,-11,-20,-17,-17,8,19
-5,29,35,-11,-19,32,-11,-21,-17,-17,9,20
-5,30,36,-12,-20,33,-12,-22,-17,-17,9,21
-4,30,37,-12,-20,34,-12,-22,-17,-17,10,22
-4,31,38,-13,-21,35,-13,-23,-18,-17,10,23
-4,33,39,-14,-21,36,-13,-23,-18,-17,11,24
-4,34,40,-15,-22,37,-13,-24,-19,-17,12,25
-4,36,41,-15,-22,39,-14,-24,-19,-17,13,26
-4,37,43,-16,-23,40,-14,-25,-19,-17,14,28
-4,39,45,-17,-23,42,-14,-25,-19,-17,15,30
-4,41,47,-18,-24,44,-15,-26,-20,-16,16,31
-4,44,49,-20,-25,47,-16,-26,-20,-16,16,32
-4,46,51,-21,-26,49,-17,-27,-20,-15,17,32
-4,47,52,-22,-27,50,-17,-27,-20,-14,18,33
-4,48,53,-23,-28,51,-17,-27,-20,-14,19,34
-3,49,54,-23,-28,52,-17,-27,-20,-13,20,35
-3,51,55,-24,-28,53,-17,-27,-19,-13,21,37
-2,52,56,-24,-28,54,-17,-26,-19,-12,22,39
-2,53,57,-25,-28,55,-17,-26,-18,-12,23,41
-1,55,57,-27,-28,56,-18,-25,-17,-11,24,43
-1,56,58,-28,-29,57,-18,-25,-16,-11,24,43
-1,57,59,-28,-29,58,-18,-25,-16,-10,25,43
-1,58,59,-29,-30,59,-18,-25,-16,-10,25,44
-1,58,60,-29,-30,59,-18,-24,-16,-10,26,44
-1,59,61,-29,-30,60,-18,-24,-16,-10,26,45
0,59,61,-29,-30,60,-18,-23,-16,-10,26,45
0,60,62,-30,-30,61,-19,-23,-15,-10,27,46
0,61,62,-30,-30,61,-19,-22,-15,-10,27,46
0,61,62,-31,-30,62,-19,-21,-14,-10,28,46
1,61,62,-31,-30,62,-19,-20,-13,-9,29,46
1,61,62,-31,-30,62,-19,-19,-12,-9,30,46
1,61,61,-31,-29,61,-18,-18,-11,-8,30,46
1,60,60,-31,-29,61,-18,-17,-11,-8,31,47
1,60,60,-31,-28,61,-17,-16,-10,-7,31,47
1,60,60,-31,-28,61,-17,-15,-10,-6,31,47
2,59,58,-30,-27,59,-16,-14,-8,-5,32,47
2,58,56,-30,-26,57,-15,-12,-7,-4,32,47
3,57,55,-30,-26,56,-14,-11,-6,-3,33,47
4,56,54,-30,-25,55,-14,-10,-5,-3,33,47
4,56,53,-30,-24,54,-14,-9,-4,-2,33,46
4,55,52,-30,-23,53,-14,-8,-3,-2,33,46
5,54,51,-29,-22,52,-14,-7,-2,-1,33,46
5,53,49,-29,-22,51,-13,-6,-1,-1,33,45
5,52,48,-29,-21,50,-13,-5,-1,0,33,45
5,52,47,-28,-20,49,-12,-3,0,0,33,44
6,51,46,-28,-19,48,-12,-2,0,0,32,43
6,50,45,-28,-18,47,-11,-1,1,1,32,41
7,49,43,-28,-17,46,-11,0,1,2,31,40
8,47,41,-28,-16,44,-10,0,2,3,31,39
8,46,39,-27,-15,43,-10,1,3,4,31,38
8,43,36,-26,-14,40,-10,2,3,5,30,37
8,41,34,-25,-13,38,-9,3,4,6,29,36
8,39,32,-24,-12,35,-9,4,4,6,28,35
8,37,30,-23,-11,33,-8,4,5,6,27,33
8,35,28,-22,-10,31,-8,5,5,7,26,32
8,32,26,-20,-9,29,-7,6,6,8,26,30
8,30,23,-19,-7,27,-6,7,6,9,25,29
8,28,21,-18,-6,25,-6,8,7,10,24,27
8,26,19,-18,-4,23,-5,8,7,10,22,26
9,24,17,-17,-3,21,-4,9,8,11,21,24
9,22,14,-16,-1,18,-3,10,8,11,20,22
9,20,12,-15,0,16,-3,11,9,11,19,20
9,17,9,-13,0,13,-2,12,9,11,18,18
9,15,7,-12,1,11,-2,12,9,11,17,17
9,12,5,-10,2,8,-1,12,9,11,16,15
9,10,2,-9,3,6,-1,12,9,11,15,14
9,7,0,-8,4,4,0,12,9,10,14,12
8,5,-1,-7,5,2,0,12,9,10,13,11
8,3,-3,-6,5,0,1,12,9,10,12,10
8,2,-5,-5,6,-1,1,12,8,9,11,8
8,1,-6,-4,7,-2,2,12,8,8,10,6
8,0,-6,-4,7,-2,2,12,8,7,9,4
8,0,-7,-3,7,-3,3,12,8,6,8,3
8,0,-7,-3,7,-3,3,12,8,5,7,1
8,-1,-8,-3,8,-4,3,12,8,5,6,0
8,-1,-8,-3,8,-4,3,11,7,4,5,0
7,-2,-8,-3,8,-5,3,11,6,4,4,-1
7,-3,-8,-2,8,-5,3,10,5,3,3,-2
6,-3,-8,-1,8,-5,3,10,4,2,1,-3
6,-4,-9,-1,8,-6,3,10,4,1,0,-4
6,-5,-9,0,8,-7,3,10,4,0,0,-5
5,-6,-10,0,8,-8,3,9,4,0,0,-6
5,-7,-10,1,8,-9,3,9,4,0,-1,-7
5,-8,-10,1,8,-9,3,8,3,-1,-1,-7
5,-8,-10,2,8,-9,3,8,3,-1,-2,-8
4,-8,-11,2,8,-10,3,7,2,-1,-3,-8
4,-8,-11,2,8,-10,4,7,2,-1,-3,-9
4,-9,-12,2,8,-10,4,7,2,-1,-3,-10
4,-9,-12,2,8,-10,5,7,2,-1,-4,-10
4,-9,-12,2,8,-10,5,7,2,-1,-4,-11
4,-9,-12,2,8,-10,5,7,2,-1,-4,-11
4,-9,-12,2,8,-10,5,7,2,-1,-5,-11
4,-9,-12,3,8,-10,5,7,2,-1,-5,-11
4,-10,-13,3,8,-11,5,7,2,-1,-5,-11
4,-10,-13,3,8,-11,5,7,2,-1,-6,-11
4,-10,-12,3,8,-11,5,8,2,-1,-6,-11
4,-10,-12,3,8,-11,4,8,2,-2,-6,-11
4,-10,-13,4,9,-12,4,8,2,-2,-6,-12
4,-11,-13,4,9,-12,4,8,3,-2,-6,-12
3,-11,-14,4,9,-13,4,8,3,-2,-6,-12
3,-11,-14,4,9,-13,4,8,3,-2,-6,-12
3,-12,-14,4,9,-13,4,8,3,-2,-6,-12
3,-12,-14,4,9,-13,4,8,3,-1,-6,-12
3,-12,-14,4,9,-13,4,8,3,-1,-6,-12
3,-12,-14,5,9,-13,4,8,3,0,-6,-12
3,-12,-14,5,9,-13,4,8,4,0,-6,-13
3,-12,-14,5,9,-13,4,8,4,0,-6,-13
3,-12,-14,5,9,-13,4,9,4,1,-6,-13
3,-13,-14,5,9,-13,4,9,4,1,-6,-13
3,-13,-15,5,9,-14,5,10,4,1,-6,-13
3,-13,-15,5,9,-14,5,10,4,1,-6,-14
3,-13,-15,5,9,-14,5,10,4,1,-6,-14
3,-13,-15,5,9,-14,5,10,5,1,-6,-14
3,-13,-15,5,10,-14,6,10,5,2,-5,-14
3,-13,-15,5,10,-14,6,10,5,2,-5,-14
3,-12,-14,5,9,-13,6,9,6,2,-5,-14
3,-12,-14,5,9,-13,6,8,6,2,-5,-14
3,-12,-14,4,9,-13,6,8,6,2,-5,-14
3,-12,-14,4,9,-13,6,7,7,2,-5,-14
3,-12,-14,4,9,-13,6,7,7,1,-5,-14
3,-12,-14,4,9,-13,6,7,8,1,-5,-14
3,-12,-14,4,9,-12,6,7,8,1,-5,-14
3,-12,-14,4,9,-12,6,7,8,1,-5,-14
3,-11,-14,4,9,-12,6,7,8,1,-5,-14
3,-11,-13,4,9,-12,6,7,9,1,-5,-14
3,-11,-13,4,9,-12,6,7,9,1,-5,-14
3,-11,-13,4,9,-12,6,7,9,1,-5,-14
3,-11,-14,4,9,-13,7,7,10,1,-5,-14
3,-12,-14,4,9,-13,7,7,10,2,-5,-14
3,-12,-14,4,9,-13,7,7,11,2,-5,-14
3,-12,-13,4,8,-12,7,7,11,3,-5,-14
3,-12,-13,4,8,-12,7,7,11,3,-5,-14
3,-12,-13,4,8,-12,7,7,11,3,-5,-14
3,-11,-12,4,7,-11,7,7,11,3,-5,-14
3,-11,-12,4,7,-11,7,7,11,4,-5,-14
3,-11,-13,4,7,-12,7,7,11,5,-4,-14
2,-12,-14,5,7,-13,7,7,11,6,-4,-13
2,-13,-14,5,7,-13,7,7,11,6,-4,-13
2,-13,-14,5,7,-13,7,7,11,7,-4,-13
2,-13,-14,5,8,-14,7,7,11,7,-4,-13
2,-13,-14,6,8,-14,7,8,11,8,-4,-13
2,-14,-15,6,8,-14,8,8,12,8,-4,-13
2,-14,-15,6,8,-14,8,9,12,8,-4,-13
2,-13,-14,6,8,-14,8,9,12,8,-4,-13
2,-13,-14,6,8,-13,8,9,12,8,-5,-13
2,-12,-13,6,8,-13,8,9,12,8,-5,-13
2,-12,-13,6,8,-13,8,10,12,8,-5,-13
2,-12,-13,5,8,-13,8,10,12,8,-5,-13
2,-12,-13,5,8,-13,8,10,11,8,-5,-12
2,-12,-13,4,8,-13,8,10,11,8,-5,-12
2,-12,-13,4,8,-13,8,10,10,8,-5,-12
2,-12,-12,5,8,-12,8,10,10,8,-5,-12
2,-11,-12,5,8,-12,8,10,10,8,-5,-12
2,-11,-12,5,7,-11,7,10,10,8,-5,-12
2,-10,-11,4,7,-11,7,10,10,7,-5,-12
2,-10,-10,4,6,-10,7,10,10,7,-6,-12
2,-10,-11,4,7,-10,8,11,10,7,-6,-12
2,-11,-11,4,7,-11,8,11,10,7,-6,-12
2,-10,-11,4,7,-11,8,11,10,6,-6,-12
2,-10,-11,4,7,-10,8,11,10,6,-6,-12
2,-9,-11,4,7,-10,8,11,10,5,-6,-12
2,-10,-12,4,7,-11,8,11,10,5,-6,-11
2,-10,-12,4,7,-11,8,11,10,5,-6,-11
2,-10,-12,4,7,-11,8,10,10,5,-7,-11
2,-10,-12,4,7,-11,8,10,10,5,-7,-11
2,-11,-12,4,7,-12,8,9,10,5,-7,-11
2,-11,-12,4,7,-12,8,9,9,5,-7,-11
2,-12,-13,5,7,-13,8,9,9,5,-7,-11
2,-12,-13,5,7,-13,8,9,9,5,-6,-11
2,-13,-13,6,7,-13,8,9,9,5,-6,-11
2,-13,-14,6,7,-13,8,9,9,5,-6,-10
2,-13,-14,6,7,-13,8,9,9,5,-6,-10
2,-13,-14,6,7,-13,8,9,9,5,-6,-10
