leadI,leadII,leadIII,leadaVR,leadaVL,leadaVF,leadV1,leadV2,leadV3,leadV4,leadV5,leadV6
-2,-1,0,2,-1,0,0,0,0,-1,-2,0
-4,-3,1,4,-3,0,2,2,0,-3,-6,0
-3,0,3,1,-3,1,4,5,3,-2,-7,2
0,3,3,-2,-1,3,7,8,6,0,-6,3
5,8,4,-6,0,6,10,13,12,5,-4,5
9,15,5,-12,2,10,13,18,18,10,-1,8
10,17,7,-13,1,12,14,22,22,15,1,9
7,16,9,-11,-1,12,14,24,26,19,4,10
3,16,11,-9,-4,13,14,26,29,22,7,12
3,17,13,-10,-5,15,14,28,33,25,10,15
7,22,14,-14,-3,18,15,33,37,29,14,19
9,23,15,-16,-3,19,15,38,42,33,18,23
4,18,14,-11,-5,16,13,41,44,36,21,27
5,17,12,-11,-3,14,10,46,47,40,26,34
18,26,8,-22,5,16,10,54,53,48,35,46
32,37,4,-34,14,20,10,60,59,56,46,60
39,40,0,-39,19,20,5,63,61,62,54,73
44,41,-3,-42,23,19,-1,62,58,64,61,85
52,43,-9,-48,30,17,-7,58,53,64,67,99
63,47,-15,-55,39,16,-14,52,45,63,75,114
76,54,-22,-65,49,16,-22,44,37,62,83,131
86,59,-26,-72,56,16,-29,31,26,60,89,146
90,60,-28,-75,59,16,-37,12,12,53,90,155
92,60,-31,-76,61,14,-42,-8,-6,39,83,153
96,60,-36,-78,66,12,-45,-31,-29,18,66,140
91,55,-36,-73,64,10,-45,-59,-55,-10,40,115
75,45,-31,-60,53,7,-42,-91,-84,-43,9,80
58,31,-27,-45,42,3,-38,-121,-112,-77,-24,41
42,14,-28,-28,35,-6,-37,-144,-138,-109,-57,3
28,-5,-32,-12,30,-18,-38,-159,-160,-136,-85,-30
20,-18,-38,-1,29,-28,-39,-165,-173,-154,-105,-53
17,-24,-41,3,29,-33,-39,-163,-175,-159,-113,-65
17,-22,-39,2,28,-31,-37,-157,-170,-156,-113,-68
18,-18,-36,0,27,-27,-35,-146,-160,-149,-110,-67
15,-15,-31,0,23,-23,-32,-133,-147,-140,-106,-65
9,-15,-26,3,17,-20,-28,-118,-133,-130,-101,-62
5,-16,-22,5,13,-18,-24,-103,-119,-120,-96,-58
4,-15,-19,6,11,-17,-19,-88,-105,-109,-90,-53
3,-15,-18,6,10,-16,-15,-75,-92,-99,-84,-49
2,-14,-16,6,9,-15,-12,-64,-81,-89,-78,-45
-1,-15,-14,8,6,-15,-9,-55,-72,-81,-72,-41
-5,-17,-12,11,3,-14,-8,-47,-64,-73,-66,-38
-7,-15,-9,11,1,-12,-5,-39,-54,-63,-59,-33
-5,-9,-6,7,0,-7,-2,-30,-44,-53,-50,-27
-3,-5,-3,4,0,-4,0,-22,-34,-44,-43,-21
-4,-5,-2,5,-1,-3,1,-16,-28,-37,-38,-18
-6,-6,0,6,-3,-3,2,-11,-23,-33,-34,-15
-4,-5,0,5,-2,-2,2,-7,-19,-28,-30,-12
-3,-3,0,3,-2,-1,3,-3,-15,-24,-25,-9
-4,-3,1,3,-3,-1,3,0,-12,-21,-22,-6
-3,-1,0,2,-2,-1,4,3,-9,-18,-20,-4
1,3,0,-2,0,1,5,7,-5,-15,-17,-1
4,8,1,-6,1,5,6,11,-1,-10,-13,1
6,10,3,-7,1,6,6,13,1,-7,-11,3
6,10,3,-8,2,6,7,13,2,-7,-10,4
8,9,1,-9,4,5,7,12,2,-8,-11,3
9,8,0,-8,5,4,7,10,2,-9,-12,3
6,6,0,-6,3,3,6,7,2,-9,-11,3
4,6,1,-5,2,3,6,6,2,-9,-10,4
5,8,2,-7,2,5,7,7,3,-8,-8,5
8,11,1,-9,4,6,8,9,5,-5,-7,6
8,10,1,-8,4,5,8,9,5,-5,-7,6
5,7,1,-6,2,4,9,8,4,-6,-7,6
5,6,1,-5,2,3,9,8,3,-7,-8,5
5,4,0,-5,2,2,9,8,3,-8,-8,5
4,4,0,-5,2,2,9,7,2,-8,-8,5
4,4,0,-5,2,2,8,7,2,-9,-8,5
5,5,1,-6,2,3,7,7,2,-8,-8,5
8,8,0,-8,4,4,7,8,4,-7,-7,6
8,8,-1,-8,5,3,7,9,4,-6,-6,6
8,7,-2,-7,5,2,6,9,5,-5,-5,7
9,8,-2,-8,6,3,7,9,5,-4,-4,8
8,7,-2,-8,5,3,7,9,5,-4,-4,8
5,4,-3,-5,4,1,7,9,4,-5,-7,6
4,0,-4,-2,4,-1,6,8,3,-5,-9,4
6,1,-6,-4,6,-1,6,10,4,-4,-9,5
10,5,-5,-7,8,0,7,12,4,-3,-8,6
10,5,-5,-7,8,0,7,13,3,-4,-9,5
6,1,-5,-3,6,-2,6,12,0,-7,-12,3
2,-2,-5,0,4,-3,5,12,0,-8,-14,2
4,0,-4,-2,4,-2,6,14,0,-5,-13,3
8,5,-3,-7,6,1,8,16,2,-2,-11,5
7,5,-2,-7,4,2,8,17,2,0,-9,6
1,0,-2,-1,1,0,7,17,1,-1,-10,5
-3,-4,-2,3,0,-3,6,17,0,-3,-12,3
-6,-8,-2,7,-2,-5,6,17,-1,-4,-13,2
-7,-10,-2,9,-2,-6,5,16,-2,-4,-13,1
-6,-8,-2,7,-2,-5,5,17,-1,-3,-12,1
0,-2,-2,1,0,-2,7,19,2,0,-9,4
5,4,-2,-5,3,1,9,22,4,3,-6,6
7,6,-2,-7,4,2,10,24,4,5,-5,7
6,5,-2,-6,3,2,10,24,4,5,-5,7
6,5,-2,-6,4,2,10,24,4,5,-7,6
7,7,-2,-7,5,2,11,25,4,5,-8,6
8,7,-2,-7,5,3,11,27,4,5,-9,6
9,7,-2,-8,6,2,11,27,5,5,-9,7
9,6,-2,-8,6,1,11,27,4,5,-9,7
8,4,-3,-6,6,0,10,26,3,4,-10,6
6,1,-4,-4,5,-1,10,26,3,4,-11,5
4,0,-4,-2,4,-2,9,25,3,5,-11,5
4,0,-4,-2,4,-2,9,25,4,6,-10,6
5,1,-4,-3,5,-1,9,24,4,7,-9,6
4,1,-4,-2,4,-1,8,23,4,6,-9,6
1,-1,-3,1,2,-2,7,22,4,6,-10,5
-3,-4,-1,4,-1,-2,6,21,4,6,-11,4
-2,-2,0,2,-1,-1,6,23,4,6,-11,4
1,1,0,-1,0,0,8,25,5,7,-11,5
2,1,-1,-2,1,0,8,26,5,7,-11,6
3,2,-2,-3,2,0,9,27,7,9,-10,7
4,2,-2,-3,3,0,9,28,7,10,-10,7
3,0,-4,-1,3,-2,8,27,6,9,-11,6
1,-4,-5,2,3,-5,7,25,5,8,-13,4
1,-3,-4,1,3,-4,8,26,6,10,-12,4
5,2,-3,-3,4,0,10,28,9,13,-10,7
6,5,-1,-6,4,1,10,31,11,15,-8,8
6,5,-1,-6,3,1,10,32,10,14,-8,8
6,5,-2,-6,4,1,10,34,10,14,-8,8
5,4,-3,-5,4,0,10,35,10,14,-7,8
5,3,-3,-4,4,0,10,35,9,13,-8,8
5,3,-3,-4,5,0,10,36,9,12,-8,8
6,3,-2,-5,5,1,11,37,10,13,-8,9
6,4,-2,-5,5,1,11,38,10,14,-7,9
5,3,-3,-4,4,0,10,38,10,13,-8,9
5,2,-3,-4,4,0,10,38,9,13,-8,8
4,1,-3,-3,3,0,9,37,9,12,-9,8
2,0,-3,-1,3,-1,8,35,9,12,-9,7
0,-2,-2,1,1,-2,8,33,8,12,-9,7
0,-1,-1,1,1,-1,9,32,9,13,-8,8
5,4,-1,-4,3,1,11,32,11,15,-6,9
13,11,-2,-12,8,4,12,33,13,17,-3,11
18,15,-3,-17,10,5,12,32,13,18,-2,12
19,14,-4,-17,11,5,10,31,13,18,-2,12
16,12,-4,-14,9,4,8,29,12,17,-2,11
9,7,-3,-8,5,2,4,26,10,16,-3,10
3,2,-2,-2,2,1,1,24,8,15,-5,8
3,3,-1,-3,2,1,0,23,8,15,-4,9
10,10,-1,-10,6,5,1,25,11,17,-2,11
15,16,0,-15,7,8,1,26,12,19,0,13
12,15,2,-13,5,7,0,25,12,19,0,13
10,12,2,-11,3,6,-1,25,11,18,0,12
9,10,0,-10,4,4,-3,25,9,18,0,12
10,10,0,-10,4,4,-3,25,9,17,0,12
10,10,0,-11,5,5,-4,26,10,17,1,13
10,11,0,-10,5,6,-4,27,10,17,0,13
10,11,0,-10,5,6,-5,27,9,16,0,12
11,13,0,-12,5,7,-5,27,9,16,0,13
13,16,1,-14,6,9,-5,27,9,17,1,14
14,17,1,-16,6,9,-5,27,9,17,2,15
13,16,1,-15,5,9,-4,27,9,17,2,15
12,14,2,-13,4,8,-4,28,9,16,2,15
11,13,1,-12,5,8,-4,30,9,16,2,15
11,12,1,-11,5,7,-4,30,9,16,2,15
10,12,1,-11,4,8,-4,31,8,16,2,15
8,12,3,-10,3,8,-4,31,8,16,3,15
7,12,4,-10,1,8,-5,31,7,17,4,15
9,15,5,-12,1,9,-4,32,8,18,5,16
11,17,6,-14,2,11,-4,32,8,19,6,17
11,17,6,-14,1,11,-5,31,8,19,6,17
12,18,6,-15,2,12,-5,29,8,20,6,17
13,19,6,-16,4,13,-5,28,9,21,6,17
11,17,6,-14,3,12,-5,26,9,21,5,17
8,15,6,-12,2,10,-6,23,7,20,4,17
7,13,5,-10,1,9,-6,21,5,18,2,16
7,12,5,-9,0,8,-7,19,4,17,1,15
4,9,5,-7,-1,7,-7,17,2,16,0,14
3,10,5,-7,-1,7,-7,16,2,16,1,14
8,14,6,-11,0,10,-4,17,4,19,3,17
12,19,6,-15,3,13,-2,19,7,23,6,19
17,23,6,-20,5,15,0,22,9,26,8,21
20,26,6,-23,7,16,1,23,10,27,9,22
18,23,5,-20,6,14,1,22,7,24,7,21
11,15,5,-13,2,10,-1,19,4,19,4,18
5,10,5,-8,0,8,-2,17,1,16,2,16
0,6,6,-3,-3,6,-3,16,0,15,0,15
-1,4,5,-2,-4,5,-4,15,0,14,0,14
1,6,4,-4,-2,6,-3,16,0,15,0,14
4,7,3,-6,0,6,-3,16,0,16,0,14
4,7,3,-6,0,5,-3,16,0,16,0,14
6,9,3,-7,1,6,-3,17,0,16,0,14
9,12,3,-10,2,7,-1,19,1,16,1,15
9,13,3,-11,2,8,0,20,1,16,1,15
8,12,4,-10,2,8,0,20,1,16,1,15
7,12,4,-10,1,8,0,20,1,16,1,15
7,11,3,-9,1,8,0,20,0,16,1,14
6,10,3,-8,1,7,-1,21,0,16,0,14
6,9,4,-8,1,7,-1,21,0,15,0,13
5,9,5,-7,0,7,-1,22,0,15,0,13
5,10,5,-7,0,7,-1,22,-1,15,0,12
6,12,5,-9,0,8,0,24,0,15,0,13
7,13,6,-11,0,9,1,25,0,15,1,13
5,13,6,-9,-1,9,1,25,0,14,1,13
3,11,6,-8,-1,9,0,25,-1,13,0,12
3,8,4,-6,0,7,0,25,-3,12,0,11
4,7,2,-6,1,5,0,25,-4,12,-1,11
6,8,1,-7,2,5,1,24,-4,12,-1,11
3,5,1,-5,1,3,0,22,-4,11,-3,10
-1,0,1,0,-1,1,-1,19,-6,9,-5,8
-3,-1,1,1,-2,0,-1,16,-7,8,-6,7
0,3,1,-2,-1,2,0,16,-6,9,-5,8
5,7,1,-6,1,4,1,17,-5,10,-3,10
6,8,1,-7,2,5,2,17,-5,11,-2,10
8,9,1,-8,3,5,2,16,-4,12,-1,11
8,9,1,-8,3,5,2,15,-4,12,-1,11
4,5,1,-5,1,3,2,13,-4,12,-2,10
0,2,2,-1,-1,2,1,11,-4,12,-3,9
0,3,2,-1,-1,2,0,11,-4,12,-4,9
3,6,1,-5,0,4,1,11,-4,13,-4,10
4,7,1,-5,1,4,1,10,-4,13,-4,9
5,6,0,-5,1,3,1,9,-4,12,-5,9
5,6,0,-5,2,3,1,9,-4,13,-4,10
2,3,1,-3,0,2,1,9,-3,13,-3,10
-2,-1,2,1,-2,1,0,9,-4,12,-4,10
-1,-1,1,1,-1,0,0,9,-4,12,-4,10
3,1,0,-2,2,1,1,10,-2,13,-3,10
3,2,-1,-3,2,1,1,11,-1,14,-3,10
1,1,0,-1,1,0,1,11,0,14,-3,10
0,1,1,-1,0,1,2,13,2,16,-2,11
-3,0,3,1,-3,1,3,15,4,19,0,11
-3,1,5,0,-4,3,4,18,9,23,2,13
3,8,6,-6,-2,7,7,23,16,30,6,16
3,11,7,-7,-2,9,9,27,21,35,10,18
2,10,8,-6,-3,9,9,31,26,40,14,20
5,13,8,-9,-1,11,9,35,31,45,19,24
8,16,7,-12,0,12,9,39,37,51,24,29
9,17,8,-13,0,12,8,43,43,57,30,35
9,18,8,-14,0,13,6,47,47,63,36,43
9,18,8,-14,0,13,3,49,50,68,44,53
13,20,7,-17,2,14,0,50,52,74,54,64
19,25,6,-23,6,16,-3,48,52,79,64,77
27,31,3,-29,11,17,-7,43,48,81,71,90
35,35,0,-35,17,18,-14,34,38,79,78,102
44,41,-3,-43,24,19,-21,23,25,76,85,117
55,48,-7,-52,31,21,-27,9,10,72,92,133
66,56,-9,-61,37,23,-32,-7,-6,66,98,147
71,58,-12,-65,42,23,-37,-28,-28,53,97,155
69,52,-17,-61,43,18,-44,-52,-55,33,87,153
66,45,-21,-56,44,12,-49,-76,-83,7,69,142
62,38,-24,-50,43,7,-53,-100,-111,-22,45,123
51,28,-24,-40,38,3,-55,-127,-139,-56,14,94
38,16,-22,-27,31,-2,-54,-152,-164,-90,-20,58
28,3,-25,-16,27,-10,-52,-167,-183,-120,-53,21
23,-9,-32,-7,28,-20,-50,-171,-195,-141,-80,-10
22,-20,-43,-1,32,-31,-49,-165,-200,-154,-100,-34
21,-31,-53,4,36,-41,-48,-155,-199,-160,-113,-51
19,-41,-61,10,39,-50,-47,-143,-193,-160,-120,-61
16,-46,-63,14,39,-54,-43,-128,-182,-154,-120,-64
15,-45,-60,14,37,-52,-36,-112,-166,-142,-116,-63
12,-42,-55,15,34,-48,-30,-96,-148,-128,-109,-59
10,-39,-49,15,30,-44,-24,-83,-130,-113,-101,-54
9,-35,-44,13,26,-39,-19,-70,-114,-98,-92,-48
8,-29,-36,11,21,-32,-14,-59,-97,-83,-82,-41
3,-25,-29,11,15,-26,-10,-48,-83,-69,-72,-35
-2,-23,-22,12,9,-22,-7,-39,-70,-57,-63,-30
-7,-22,-16,14,4,-19,-4,-31,-59,-46,-55,-25
-13,-24,-11,18,-1,-17,-2,-24,-50,-38,-49,-22
-17,-25,-8,21,-4,-16,-1,-18,-43,-32,-44,-20
-16,-22,-7,19,-4,-14,0,-13,-36,-26,-40,-17
-14,-19,-5,17,-4,-12,2,-8,-30,-19,-35,-14
-12,-15,-3,14,-5,-9,3,-3,-23,-13,-29,-10
-11,-12,-2,12,-5,-8,5,1,-18,-7,-24,-6
-13,-14,-1,13,-7,-8,5,5,-15,-4,-21,-4
-14,-15,-1,14,-7,-8,6,8,-12,-1,-19,-2
-10,-11,-1,10,-5,-5,8,13,-8,3,-15,1
-5,-6,-1,4,-2,-2,11,18,-4,6,-13,4
0,-1,-1,0,0,-1,12,21,-2,9,-11,6
2,0,-2,0,2,-1,12,22,-1,10,-10,7
-1,-5,-3,3,1,-4,10,21,-2,9,-11,6
-5,-9,-3,7,-1,-6,9,20,-3,8,-11,5
-6,-9,-3,8,-1,-6,9,21,-3,9,-10,6
-6,-8,-3,7,-1,-5,10,22,-2,10,-8,6
-6,-8,-3,7,-1,-4,11,23,-1,11,-8,6
-6,-8,-3,7,-1,-4,11,23,-2,10,-8,6
-4,-7,-4,6,0,-4,10,23,-2,9,-8,6
-2,-6,-4,4,1,-4,10,23,-2,10,-8,6
-3,-6,-3,5,0,-4,10,23,-2,11,-8,6
-5,-7,-2,6,-1,-4,10,22,-2,12,-7,7
-7,-9,-1,8,-2,-5,10,21,-3,11,-7,7
-9,-11,-1,10,-3,-6,10,20,-4,10,-7,6
-9,-11,-2,10,-3,-6,10,21,-5,9,-8,6
-7,-9,-2,7,-2,-5,10,22,-5,9,-8,6
-4,-8,-3,6,0,-5,10,23,-5,9,-8,6
-2,-7,-4,4,1,-5,9,24,-5,9,-8,6
-1,-6,-4,3,2,-5,9,24,-5,9,-7,7
-1,-6,-4,4,1,-5,7,24,-5,10,-7,7
-3,-7,-4,4,0,-5,6,25,-4,10,-6,7
-3,-5,-3,3,0,-3,6,26,-3,11,-5,8
-2,-4,-2,2,0,-2,6,27,-2,12,-4,9
-1,-3,-2,2,0,-2,5,28,-1,12,-4,9
-2,-3,-1,2,0,-2,4,28,-1,13,-4,9
-1,-3,-2,2,0,-2,3,27,-1,13,-4,9
3,0,-2,-1,2,-2,3,27,0,14,-3,9
6,2,-3,-4,4,-1,4,28,1,15,-2,10
2,-2,-3,0,2,-3,3,27,0,13,-3,9
-5,-8,-3,6,-1,-5,1,25,-2,11,-5,7
-8,-10,-3,8,-3,-6,1,24,-2,11,-5,6
-9,-10,-2,9,-3,-6,1,24,-1,11,-4,6
-7,-9,-2,8,-3,-5,1,25,-1,11,-4,7
-4,-6,-2,5,-1,-4,1,26,0,12,-3,8
-1,-3,-2,2,0,-3,2,28,1,13,-2,9
-3,-4,-1,4,-2,-3,2,28,1,14,-2,8
-7,-8,0,8,-4,-4,1,26,1,13,-3,7
-7,-8,0,7,-4,-3,2,25,1,14,-3,7
-5,-6,0,5,-3,-2,3,25,3,15,-2,8
-6,-6,0,6,-4,-1,3,24,4,16,-2,9
-7,-6,1,6,-4,-1,3,23,4,16,-2,9
-5,-4,2,4,-4,0,4,23,5,17,-1,10
-2,0,3,1,-3,1,5,23,6,18,0,11
0,3,4,-1,-3,3,7,24,7,20,0,12
0,4,4,-1,-3,4,7,23,8,21,0,13
-3,2,4,1,-4,3,7,22,9,21,0,13
-4,1,4,1,-4,3,7,21,9,21,0,13
-3,1,4,1,-3,3,7,20,9,21,0,13
-4,0,4,2,-4,3,7,19,9,21,-1,12
-8,-3,4,5,-6,1,6,18,9,20,-2,11
-12,-6,5,9,-9,0,5,17,8,19,-4,10
-12,-6,5,9,-9,0,5,16,8,20,-4,10
-6,0,6,4,-7,3,6,18,10,23,-2,12
-1,5,6,-1,-4,6,8,20,12,26,0,14
1,7,6,-4,-3,7,9,21,14,27,1,15
0,6,6,-2,-3,6,9,21,14,27,0,15
-2,3,6,0,-4,5,8,21,14,27,0,15
-3,1,6,0,-4,4,7,21,14,26,-1,14
-2,2,5,0,-3,4,7,21,15,26,-1,14
-2,2,5,0,-4,4,6,21,16,27,-1,14
-6,-1,6,4,-7,2,5,20,15,27,-2,14
-9,-2,7,6,-8,2,4,19,16,27,-3,14
-9,-1,8,5,-9,3,4,20,17,28,-2,15
-10,-1,9,5,-9,4,4,20,18,29,-2,16
-8,0,9,3,-8,5,4,21,20,30,-1,16
-3,6,10,-2,-6,8,6,22,22,32,1,18
2,13,10,-8,-4,11,7,24,25,34,3,21
4,15,11,-9,-4,12,7,25,26,35,4,22
3,14,11,-8,-4,12,7,24,26,36,4,23
1,13,11,-7,-5,12,6,22,26,36,4,23
0,12,11,-6,-5,11,5,21,25,36,3,23
0,11,11,-5,-5,11,4,21,25,36,3,23
-1,10,11,-5,-6,11,4,20,25,35,3,23
-1,9,12,-4,-6,11,3,20,24,35,3,24
-2,10,12,-4,-7,11,3,20,24,35,3,24
-1,11,12,-4,-7,11,3,19,24,35,3,24
0,12,12,-5,-6,11,3,18,23,35,4,24
0,13,12,-6,-6,12,4,18,23,35,4,25
0,13,12,-7,-6,12,4,17,23,35,4,26
0,14,12,-8,-6,13,4,17,23,35,4,27
2,15,12,-10,-5,14,4,17,23,35,4,28
4,15,11,-11,-4,14,4,17,22,35,4,29
4,15,11,-10,-4,13,4,16,21,34,4,29
3,14,11,-9,-4,12,4,14,20,33,4,28
0,11,12,-6,-6,11,3,13,18,32,3,28
-6,7,12,0,-9,10,2,11,17,31,2,27
-9,3,11,3,-11,7,0,9,15,29,1,26
-8,2,9,3,-9,6,0,8,13,27,0,26
-4,4,8,0,-7,6,0,8,13,27,0,26
1,9,8,-6,-4,8,2,9,14,28,1,28
6,13,8,-11,-2,11,4,11,15,29,2,29
3,11,8,-8,-3,10,3,9,13,28,1,29
-2,6,8,-2,-5,7,1,6,11,26,0,28
-2,6,7,-2,-4,7,1,5,10,26,0,29
2,11,7,-6,-2,9,2,6,11,28,2,31
8,16,7,-11,0,12,4,8,12,29,4,33
10,18,7,-14,1,13,4,8,12,29,5,34
7,15,7,-11,0,11,3,7,11,28,4,33
5,12,7,-9,-2,9,3,6,9,27,3,33
4,11,7,-8,-2,9,3,6,9,26,3,33
3,9,7,-6,-2,8,2,6,8,26,2,33
1,8,7,-4,-3,7,1,6,6,25,2,33
0,7,7,-3,-3,7,1,6,5,24,2,33
-2,5,7,-1,-4,6,0,6,5,24,1,33
-3,4,6,0,-4,6,0,5,4,23,1,33
1,8,6,-5,-2,7,1,6,5,24,2,34
9,14,5,-12,1,10,3,7,7,26,4,36
13,17,5,-16,4,10,4,7,8,26,4,37
12,15,4,-14,4,9,3,7,8,25,4,37
10,13,3,-12,4,7,2,6,6,24,4,36
9,11,2,-10,4,6,2,5,5,23,3,36
9,11,2,-10,4,6,2,5,5,23,3,36
9,11,1,-10,4,5,1,5,4,23,3,36
9,10,0,-10,4,5,1,3,4,22,2,36
9,10,0,-10,4,4,1,2,3,21,2,35
9,8,0,-9,4,3,1,1,2,19,1,34
8,6,-1,-7,4,2,1,0,1,18,0,33
7,5,-2,-6,4,1,1,-1,0,17,-1,33
7,5,-2,-6,4,2,2,0,0,17,-1,33
5,5,-1,-5,3,2,3,0,0,17,-1,33
3,4,0,-3,1,2,3,0,0,17,-2,33
2,4,1,-3,0,2,4,0,0,17,-2,34
3,6,2,-4,0,4,5,0,0,17,-1,34
2,6,4,-4,-1,5,6,-1,0,17,-1,34
0,4,5,-2,-3,4,6,-2,-1,16,-2,34
0,2,3,-1,-2,2,5,-3,-2,15,-2,33
4,4,1,-3,1,2,5,-2,-2,14,-1,33
8,6,-1,-6,4,2,6,-1,-2,14,-1,33
9,6,-2,-7,5,2,6,-1,-3,14,-1,33
8,5,-2,-6,5,2,5,-1,-3,14,-2,32
7,4,-3,-6,4,1,5,-1,-3,14,-3,32
6,4,-3,-6,4,1,5,-1,-4,13,-4,31
6,3,-3,-5,4,0,5,-1,-5,12,-5,31
4,1,-3,-2,3,-1,5,-2,-6,11,-5,30
2,-1,-3,0,2,-2,5,-2,-6,10,-6,30
1,-2,-3,1,2,-2,5,-3,-7,9,-7,29
-1,-4,-3,3,1,-4,4,-4,-8,8,-8,27
-3,-7,-4,5,0,-5,3,-5,-8,7,-10,26
-3,-7,-4,4,0,-5,3,-5,-8,7,-11,26
-1,-4,-4,2,1,-4,4,-5,-7,7,-11,26
0,-3,-4,0,2,-3,4,-5,-7,7,-11,27
0,-4,-4,1,1,-4,4,-5,-7,7,-12,27
-3,-6,-4,4,0,-5,3,-6,-8,6,-13,26
-4,-7,-3,6,0,-5,3,-5,-9,5,-13,25
-4,-6,-3,5,0,-5,4,-5,-9,5,-13,25
-3,-5,-3,4,0,-4,5,-4,-8,6,-13,26
0,-2,-3,1,1,-3,6,-2,-7,6,-13,26
1,0,-2,-1,1,-2,7,-1,-7,6,-12,27
0,-2,-2,0,0,-2,6,-2,-7,6,-13,27
-1,-3,-2,2,0,-3,6,-2,-8,5,-13,26
0,-3,-3,2,1,-3,6,-2,-8,5,-12,27
0,-2,-3,2,2,-3,6,-2,-7,5,-12,27
0,-2,-3,2,2,-3,7,-2,-7,5,-12,27
1,-2,-3,1,2,-3,7,-2,-7,5,-12,28
2,-2,-4,0,3,-3,7,-2,-7,5,-12,28
0,-4,-4,2,1,-4,6,-3,-8,5,-13,27
-4,-7,-3,5,-1,-5,6,-3,-9,4,-13,26
-4,-7,-3,5,-1,-4,6,-3,-9,4,-13,26
-3,-7,-3,5,0,-5,6,-2,-9,4,-13,26
-7,-11,-3,9,-2,-7,5,-3,-11,2,-14,25
-9,-12,-3,11,-3,-7,4,-4,-12,2,-14,25
-5,-8,-2,7,-1,-5,5,-3,-11,3,-13,27
-5,-8,-3,6,-1,-5,5,-4,-12,2,-13,27
-9,-13,-3,11,-3,-8,3,-7,-14,0,-15,25
-8,-13,-4,10,-2,-9,2,-8,-15,0,-15,24
-2,-8,-5,5,1,-7,3,-7,-14,1,-14,25
4,-3,-6,0,5,-5,4,-6,-13,2,-13,27
10,2,-7,-6,9,-3,5,-5,-11,4,-11,28
12,3,-8,-7,10,-3,4,-4,-11,4,-11,29
8,0,-8,-4,9,-4,1,-5,-12,2,-12,28
5,-3,-8,-1,6,-5,0,-6,-12,1,-13,27
0,-7,-7,3,3,-6,-2,-7,-12,0,-14,26
-6,-12,-6,8,0,-8,-5,-8,-13,-1,-15,25
-10,-15,-6,12,-2,-9,-7,-9,-14,-2,-16,24
-10,-15,-5,12,-2,-10,-8,-8,-13,-2,-16,24
-7,-12,-5,10,-1,-9,-7,-7,-12,-1,-16,25
-4,-9,-4,7,0,-7,-6,-5,-10,0,-14,26
-3,-8,-4,5,0,-6,-6,-5,-9,0,-14,27
-1,-6,-4,4,1,-5,-5,-5,-9,1,-13,27
3,-2,-5,0,4,-3,-4,-3,-7,3,-12,29
6,1,-5,-4,6,-2,-3,-2,-5,4,-11,30
5,0,-5,-3,5,-2,-3,-2,-5,4,-11,30
1,-3,-4,1,2,-3,-4,-3,-6,3,-12,29
-3,-7,-3,5,0,-5,-5,-4,-6,2,-12,28
-5,-7,-3,6,-1,-5,-5,-4,-6,2,-12,28
-3,-5,-2,4,0,-4,-4,-3,-5,3,-11,30
-1,-3,-2,1,0,-2,-3,-3,-4,3,-10,31
0,-1,-2,0,0,-1,-3,-3,-3,4,-10,31
0,-1,-1,0,0,-1,-3,-3,-3,4,-9,32
-3,-3,0,2,-2,-2,-3,-4,-3,4,-10,31
-2,-1,0,2,-2,0,-2,-3,-1,5,-9,32
0,2,1,0,-1,1,-1,-1,0,6,-7,34
-3,0,1,2,-2,0,-2,-3,0,5,-8,33
-4,-3,1,4,-3,-1,-3,-5,-1,4,-9,32
-2,0,1,1,-2,0,-2,-5,0,4,-8,33
-2,0,2,1,-3,1,-3,-6,0,4,-8,33
-6,-3,3,4,-4,0,-4,-8,-1,3,-9,32
-5,-2,3,4,-4,0,-4,-8,0,3,-9,33
-5,-1,3,3,-4,1,-3,-7,0,4,-8,33
-5,-1,4,3,-4,1,-2,-7,0,5,-8,34
-1,2,3,0,-2,2,-1,-6,1,6,-7,35
2,5,3,-4,0,4,0,-5,1,7,-7,36
2,5,3,-4,0,4,0,-5,1,6,-7,36
0,3,3,-2,-2,3,-1,-5,0,6,-8,35
-1,1,3,0,-3,2,0,-5,0,6,-9,35
0,2,3,-1,-2,3,0,-5,0,6,-8,36
0,2,3,-1,-2,3,1,-4,0,7,-8,36
-1,3,3,-1,-2,4,2,-4,0,7,-7,37
-2,2,4,0,-4,3,2,-4,-1,7,-7,37
-3,1,5,1,-5,3,2,-4,-1,7,-7,37
1,4,4,-2,-2,4,2,-2,0,7,-6,38
6,8,3,-7,0,6,3,-1,0,8,-5,40
6,7,2,-6,1,5,2,-1,0,7,-5,39
2,3,1,-2,-1,3,0,-3,-1,6,-6,38
-1,0,1,0,-2,1,0,-4,-2,5,-7,37
-2,0,1,1,-2,1,1,-4,-1,5,-7,37
-2,0,2,1,-2,2,2,-5,-1,5,-7,37
-2,1,2,1,-3,2,3,-5,0,5,-6,38
-2,1,2,1,-3,2,3,-6,0,5,-6,38
0,3,2,-1,-2,3,3,-5,0,5,-6,38
3,6,3,-4,-1,5,4,-4,1,6,-5,40
3,7,4,-5,-1,5,5,-3,2,6,-4,41
0,5,4,-3,-3,5,4,-2,2,6,-5,41
0,4,4,-2,-3,4,4,-2,2,5,-5,40
1,6,4,-3,-1,5,4,0,2,5,-4,41
2,7,4,-5,-1,6,5,1,3,6,-4,42
1,7,5,-3,-2,6,5,1,2,6,-4,42
0,5,5,-2,-3,5,5,1,2,5,-4,42
-1,4,5,-1,-4,4,4,1,1,4,-5,42
-3,0,4,1,-4,2,3,0,0,3,-6,40
-7,-3,3,5,-6,0,2,-1,-1,1,-8,39
-8,-5,2,7,-6,-1,1,-1,-2,0,-9,38
-5,-3,2,4,-3,0,1,-1,-1,1,-8,39
0,1,1,0,-1,1,2,0,0,2,-7,40
1,3,1,-2,0,2,2,-1,0,2,-7,41
2,4,1,-3,0,2,3,-2,0,3,-6,41
3,5,1,-4,0,3,3,-2,0,3,-6,42
4,7,1,-5,1,4,4,-1,0,4,-5,43
5,7,1,-6,2,5,5,-1,0,5,-4,44
5,6,1,-5,2,4,4,-1,0,5,-4,44
6,7,1,-6,2,5,5,0,1,5,-3,45
7,9,1,-8,3,5,6,1,2,6,-2,46
6,8,1,-7,2,5,5,1,1,5,-2,46
5,6,1,-6,2,4,4,0,1,4,-3,45
3,4,0,-3,1,2,3,0,0,3,-4,44
1,1,0,0,0,0,2,-1,-1,2,-4,43
0,0,0,0,0,0,1,-2,-1,2,-4,43
0,0,0,0,-1,0,1,-2,-1,2,-3,44
1,3,2,-2,0,3,3,-1,0,4,-1,46
6,9,3,-7,1,6,5,1,2,6,2,48
8,12,4,-10,1,8,6,4,4,7,4,49
5,10,4,-7,0,7,6,5,3,7,4,49
1,6,4,-3,-2,5,4,6,2,5,2,48
-1,2,2,-1,-2,2,3,6,0,3,1,47
0,0,0,0,0,0,2,5,0,2,0,46
0,-2,-2,1,0,-1,1,4,-1,1,-1,46
-1,-4,-4,2,1,-3,0,3,-2,0,-2,45
0,-4,-5,2,2,-4,0,2,-3,0,-2,45
1,-4,-6,2,2,-5,0,2,-4,0,-2,45
2,-3,-6,1,3,-5,0,3,-4,0,-2,45
4,-1,-6,-1,4,-4,0,5,-3,0,-2,45
8,2,-6,-5,6,-2,1,7,-2,1,-1,47
10,5,-6,-7,8,0,2,8,-2,1,-1,48
10,4,-6,-7,8,0,2,7,-2,1,-1,48
7,1,-5,-4,6,-1,2,5,-2,0,-1,47
2,-1,-4,-1,3,-2,2,3,-2,0,-2,47
-2,-4,-3,3,0,-3,1,0,-2,-1,-3,46
-3,-5,-2,4,-1,-3,1,-1,-1,-1,-3,46
-1,-3,-2,3,0,-2,1,-2,0,0,-3,47
2,1,-2,-1,1,0,3,-2,1,0,-3,48
5,4,-1,-5,3,1,4,-1,2,2,-2,50
3,3,0,-3,1,1,4,-2,2,2,-2,49
-1,0,0,1,0,0,3,-3,1,1,-2,49
0,0,0,1,0,0,3,-3,1,0,-2,49
1,0,-1,0,1,0,4,-3,1,0,-2,49
-1,-2,-1,2,0,-1,3,-4,0,-1,-3,49
-4,-5,-1,5,-2,-3,1,-5,-1,-3,-5,48
-5,-5,-1,5,-2,-3,1,-5,-1,-4,-5,49
-5,-5,-1,5,-2,-3,1,-5,-1,-5,-5,49
-3,-3,-1,4,-1,-2,1,-6,-1,-5,-5,50
2,0,-2,-1,2,0,2,-6,0,-4,-4,51
4,3,-2,-3,3,1,3,-6,0,-4,-3,51
2,2,-1,-2,1,1,4,-6,0,-4,-3,52
2,3,0,-2,1,2,4,-6,0,-3,-2,52
5,5,-1,-5,3,2,4,-5,0,-3,-2,53
8,6,-3,-7,5,1,4,-6,0,-4,-3,53
7,4,-4,-5,5,0,2,-7,-1,-5,-4,52
6,2,-4,-4,4,0,1,-8,-2,-5,-4,51
5,2,-3,-3,4,0,1,-9,-2,-5,-4,52
4,2,-3,-3,3,0,1,-9,-3,-4,-4,52
4,1,-3,-3,3,0,1,-8,-3,-4,-4,51
4,1,-2,-3,3,0,1,-8,-2,-3,-4,51
1,0,-1,0,1,0,1,-7,-2,-2,-4,51
-4,-4,0,4,-2,-1,1,-6,0,0,-4,50
-5,-3,1,4,-3,0,3,-4,3,3,-2,51
-3,0,3,2,-3,2,6,0,8,7,0,52
-7,-1,4,4,-6,2,7,1,10,10,1,51
-14,-7,6,11,-11,0,6,2,12,11,1,50
-15,-5,8,10,-12,1,8,6,17,15,3,51
-11,-1,10,6,-11,4,10,10,23,20,7,54
-11,0,11,5,-11,5,10,13,27,24,10,57
-12,0,11,6,-12,5,10,16,31,29,13,60
-9,2,11,4,-10,6,9,20,36,34,18,65
0,9,8,-4,-4,8,10,27,42,40,25,74
13,19,4,-16,4,11,10,34,47,47,34,85
22,24,1,-23,10,12,8,38,50,53,42,96
26,24,-2,-25,14,10,3,40,51,57,50,107
31,25,-6,-28,18,9,-3,39,50,61,57,118
41,30,-11,-35,26,9,-8,37,47,63,65,132
52,36,-17,-44,34,9,-14,32,42,65,74,148
62,40,-22,-51,42,9,-22,25,34,66,83,166
69,43,-26,-55,47,9,-31,14,24,66,93,184
73,45,-28,-58,50,9,-39,-2,11,63,100,199
75,46,-30,-60,52,8,-46,-22,-6,54,101,207
79,46,-34,-62,56,6,-52,-43,-27,39,93,206
80,43,-37,-61,58,3,-56,-66,-52,16,77,195
74,37,-37,-55,55,0,-57,-94,-79,-12,52,172
62,27,-34,-44,47,-3,-55,-127,-108,-46,19,138
48,16,-31,-31,39,-7,-53,-155,-135,-81,-15,100
35,3,-33,-19,34,-15,-51,-174,-158,-111,-47,64
28,-11,-39,-8,33,-25,-51,-185,-175,-135,-75,33
22,-24,-47,1,34,-35,-51,-187,-185,-151,-94,9
15,-34,-50,9,32,-42,-51,-185,-188,-158,-106,-5
10,-39,-49,14,29,-44,-50,-178,-184,-158,-109,-11
8,-36,-44,14,26,-40,-45,-166,-172,-150,-106,-11
8,-30,-39,11,23,-34,-40,-152,-157,-139,-101,-8
8,-26,-35,9,21,-30,-35,-137,-140,-127,-94,-4
6,-23,-31,9,18,-27,-31,-123,-124,-114,-87,1
4,-21,-26,9,14,-23,-25,-110,-108,-100,-79,7
1,-19,-20,10,10,-20,-20,-99,-94,-87,-70,12
-3,-20,-16,12,5,-18,-15,-90,-82,-77,-63,16
-9,-23,-14,16,1,-18,-13,-82,-73,-69,-58,18
-14,-26,-12,20,-2,-18,-12,-76,-65,-62,-53,20
-15,-24,-9,20,-4,-16,-9,-69,-55,-54,-46,24
-13,-19,-6,17,-4,-12,-7,-62,-46,-45,-39,29
-14,-18,-4,17,-5,-10,-6,-57,-39,-38,-35,32
-16,-18,-2,17,-7,-10,-6,-53,-33,-32,-31,35
-16,-16,-1,16,-8,-8,-4,-49,-27,-26,-26,39
-16,-15,0,15,-8,-7,-3,-46,-22,-21,-22,42
-14,-14,0,13,-7,-6,-3,-43,-19,-17,-19,44
-10,-10,0,10,-6,-5,-2,-40,-16,-13,-16,47
-7,-7,1,7,-4,-3,-1,-38,-12,-10,-13,50
-6,-5,1,6,-4,-1,-1,-36,-9,-8,-11,52
-6,-4,1,5,-4,-1,-1,-34,-7,-5,-9,54
-5,-2,1,4,-4,0,-1,-33,-5,-3,-8,56
-4,0,2,2,-4,1,0,-31,-3,-1,-6,57
-3,1,4,1,-4,3,1,-30,-2,1,-4,59
-4,1,5,1,-5,3,1,-29,-2,2,-3,60
-4,1,5,1,-6,4,2,-27,-2,2,-3,61
-3,3,5,0,-5,5,2,-26,-2,3,-2,62
-1,5,5,-2,-3,6,2,-24,-1,3,-1,63
-1,5,5,-1,-3,6,2,-23,-1,3,-2,63
-4,1,5,2,-5,4,1,-23,-2,2,-3,62
-9,-3,5,6,-7,2,0,-23,-2,1,-4,61
-10,-5,5,7,-8,1,-1,-23,-2,1,-4,61
-13,-7,5,9,-9,0,-1,-23,-3,1,-4,60
-17,-11,5,14,-11,-2,-2,-23,-4,0,-5,59
-16,-10,5,13,-11,-2,-2,-22,-3,0,-5,60
-9,-3,5,6,-7,1,0,-19,-1,1,-3,62
-5,0,5,3,-5,2,1,-17,0,2,-3,63
-3,1,4,1,-4,2,1,-16,0,2,-3,64
0,5,4,-2,-2,4,2,-14,2,4,-2,65
2,7,4,-5,-1,5,3,-12,4,5,0,67
1,6,5,-4,-2,6,3,-11,3,5,0,67
-1,5,5,-2,-3,5,2,-11,2,4,-1,67
-2,4,6,-1,-5,5,2,-10,2,4,-1,67
-3,5,7,-1,-5,6,2,-9,2,4,0,68
-3,5,8,-1,-5,6,2,-9,3,4,-1,69
-4,3,7,1,-6,5,1,-10,2,3,-2,68
-4,2,7,2,-6,4,0,-11,2,2,-3,67
-3,3,6,0,-5,4,0,-11,2,3,-2,67
-1,4,6,-1,-4,5,0,-11,2,4,-2,68
-1,5,6,-2,-4,6,1,-11,2,4,-1,69
-3,3,6,0,-5,6,1,-11,1,4,-2,69
-6,0,6,3,-6,4,0,-13,0,2,-3,68
-7,-1,6,4,-6,3,0,-13,-1,1,-4,67
-6,0,5,3,-6,3,1,-13,0,2,-4,68
-3,1,5,1,-4,4,2,-12,0,2,-4,69
-2,3,5,0,-3,4,3,-12,1,3,-4,70
-2,3,6,0,-4,4,3,-11,1,4,-4,70
-4,2,6,1,-5,4,3,-11,0,4,-4,70
-3,3,5,0,-4,4,3,-10,0,4,-3,70
-4,2,5,1,-5,4,3,-10,0,4,-3,70
-5,1,6,2,-6,3,3,-10,0,3,-4,70
-4,2,6,1,-5,4,3,-10,0,4,-4,71
0,5,6,-1,-3,5,4,-9,1,5,-3,71
0,5,5,-2,-2,4,4,-9,1,5,-3,71
-3,1,5,1,-4,2,3,-10,0,5,-4,70
-9,-4,5,7,-7,0,2,-11,-2,3,-5,69
-13,-8,5,10,-9,-1,1,-11,-3,2,-6,68
-14,-9,5,11,-10,-1,2,-11,-3,2,-6,69
-14,-8,6,11,-10,-1,3,-10,-2,3,-6,69
-13,-7,5,10,-9,0,3,-9,-2,3,-6,70
-8,-4,4,6,-6,0,3,-9,-1,4,-5,71
-1,3,4,-1,-3,3,5,-7,2,7,-3,73
3,7,5,-5,-1,6,6,-5,4,9,-1,75
1,6,6,-4,-2,5,6,-6,5,10,-1,75
-1,4,5,-2,-3,4,5,-7,5,9,-1,75
-2,2,5,-1,-3,4,4,-7,5,8,-2,74
-2,1,4,0,-3,4,5,-6,5,7,-2,74
-2,2,5,0,-3,4,5,-5,5,8,-2,74
-4,1,6,1,-4,4,5,-4,6,8,-2,74
-6,0,6,3,-6,3,4,-3,6,8,-2,74
-9,-2,7,5,-8,2,4,-3,6,8,-2,74
-10,-4,7,7,-9,1,4,-2,6,9,-2,74
-10,-4,6,7,-8,1,4,-1,6,10,-2,75
-6,-1,5,4,-6,2,5,0,7,11,-1,76
-2,1,5,0,-3,3,6,1,8,13,0,76
-1,2,4,0,-2,3,6,2,8,13,0,76
-2,2,4,0,-2,3,5,2,8,13,0,76
-1,1,3,0,-2,2,5,1,8,12,0,76
0,2,3,-1,-1,3,5,2,9,12,0,77
1,4,3,-2,-1,4,6,2,10,12,0,78
1,4,3,-2,-1,4,7,3,11,13,0,78
0,4,3,-2,-1,4,8,3,12,13,0,78
1,5,3,-3,0,4,8,4,13,13,0,78
1,5,3,-3,0,4,8,5,13,14,0,79
0,3,4,-1,-1,3,7,5,13,13,0,79
-3,1,4,1,-3,2,6,4,13,12,-1,79
-6,0,6,4,-6,2,5,4,13,12,-2,79
-7,0,7,4,-7,3,6,4,13,12,-1,80
-5,1,7,2,-6,4,6,4,14,13,0,82
-6,1,7,2,-6,4,5,3,14,13,0,82
-8,0,7,4,-8,4,4,3,14,13,0,83
-5,3,9,1,-7,6,5,4,15,15,1,85
2,12,10,-7,-4,11,7,7,17,17,4,88
4,14,9,-8,-2,12,7,7,17,17,5,88
0,8,8,-4,-4,8,4,4,15,15,2,86
-2,4,7,-1,-5,6,2,2,14,13,1,85
-3,3,7,0,-5,5,1,1,13,13,0,85
-4,3,8,0,-5,5,1,1,13,13,0,86
-4,3,8,0,-5,5,0,1,12,13,0,86
-5,1,7,2,-6,4,-1,0,11,12,-1,85
-5,1,6,2,-5,3,-2,0,9,11,-2,85
-1,5,6,-2,-3,6,0,1,10,11,-1,87
3,10,7,-6,-2,8,1,2,10,12,0,89
0,8,7,-4,-3,7,0,2,9,11,0,89
-1,5,6,-2,-4,6,-1,1,7,9,-1,88
0,6,6,-3,-3,6,-2,0,6,9,-1,89
0,6,5,-4,-2,6,-2,0,5,8,-1,89
0,5,5,-3,-2,5,-3,-1,3,8,-2,89
-2,4,5,-1,-3,4,-4,-2,1,7,-3,88
-3,3,5,0,-3,4,-4,-2,0,6,-4,88
-3,2,5,0,-4,3,-5,-3,0,5,-4,89
-2,3,5,0,-4,4,-5,-3,0,6,-3,90
-1,4,5,-1,-3,4,-5,-3,0,6,-3,91
0,4,5,-1,-2,4,-6,-4,-1,6,-4,91
1,6,5,-3,-1,5,-6,-4,-1,6,-4,92
6,11,6,-8,0,8,-4,-3,0,8,-2,94
7,12,6,-9,1,9,-3,-2,0,8,-1,95
2,7,4,-4,0,6,-5,-4,-2,5,-4,93
0,3,3,0,-2,3,-7,-6,-3,3,-6,91
0,3,2,-1,-1,3,-6,-7,-3,2,-7,91
3,5,1,-4,1,3,-5,-6,-1,3,-6,92
5,6,1,-6,2,4,-4,-6,0,5,-5,93
5,6,2,-6,2,4,-4,-7,0,6,-4,94
2,4,2,-3,0,3,-6,-8,0,6,-4,94
-2,0,2,1,-1,0,-8,-10,-2,5,-5,93
-4,-2,1,3,-2,0,-10,-11,-2,4,-5,92
-1,1,1,0,-1,2,-9,-10,-2,4,-5,93
4,5,1,-5,1,4,-7,-9,-1,4,-4,94
5,6,1,-6,2,4,-7,-9,-2,3,-4,94
4,4,1,-5,2,3,-7,-9,-3,2,-4,93
4,2,0,-4,3,1,-7,-10,-4,1,-5,92
3,0,-2,-2,3,0,-8,-11,-5,0,-6,92
1,-1,-2,0,2,-1,-9,-11,-6,0,-6,91
0,-2,-1,1,1,-1,-10,-11,-6,-1,-7,91
-3,-3,0,3,0,-1,-11,-11,-7,-1,-7,91
-4,-5,0,5,-2,-2,-12,-12,-7,-2,-7,90
-1,-3,-1,2,0,-1,-12,-13,-7,-2,-7,91
2,0,-1,0,1,0,-13,-13,-7,-2,-6,91
0,-2,-1,1,1,-1,-14,-14,-8,-3,-7,91
2,0,-1,-1,2,0,-13,-14,-8,-3,-6,91
6,5,0,-6,3,3,-10,-11,-5,-1,-4,93
3,4,1,-3,1,3,-10,-11,-5,0,-4,94
-1,0,1,1,-1,1,-11,-11,-5,0,-5,93
-1,0,1,1,-1,1,-10,-10,-4,1,-4,93
1,1,0,-1,0,1,-10,-10,-3,1,-4,93
3,1,-1,-2,2,0,-10,-11,-4,0,-6,91
4,0,-2,-2,3,-1,-10,-12,-5,-2,-7,90
2,-2,-2,0,2,-2,-10,-13,-6,-3,-8,90
1,-2,-3,0,2,-3,-10,-13,-6,-4,-9,90
2,-1,-3,0,2,-2,-9,-12,-5,-4,-8,90
1,0,-2,0,2,-1,-8,-11,-4,-4,-8,91
-2,-4,-2,3,0,-3,-8,-11,-5,-5,-10,90
-6,-8,-2,8,-2,-5,-8,-11,-6,-7,-11,89
-7,-9,-2,9,-2,-6,-8,-12,-6,-7,-11,88
-4,-6,-1,6,0,-4,-8,-11,-5,-5,-10,89
-1,-3,-1,2,0,-2,-7,-11,-5,-4,-8,91
1,0,0,0,1,0,-7,-11,-4,-3,-7,91
2,3,0,-2,1,1,-6,-11,-4,-2,-6,92
3,6,1,-3,1,3,-6,-10,-3,0,-4,92
5,8,2,-5,1,5,-5,-9,-1,1,-3,93
5,8,2,-5,1,5,-4,-9,0,1,-2,94
2,5,3,-3,0,4,-4,-9,-2,0,-3,93
1,3,3,-1,-1,3,-4,-10,-3,-2,-4,93
1,3,3,-2,0,3,-3,-9,-3,-2,-5,93
0,3,3,-1,-1,2,-3,-9,-3,-3,-5,92
-5,-1,3,3,-4,1,-2,-10,-3,-4,-7,91
-7,-3,3,6,-5,0,-1,-10,-3,-4,-7,90
-5,-1,2,4,-4,1,0,-10,-2,-3,-7,90
-4,-1,2,4,-4,1,1,-10,-1,-3,-6,90
-4,0,3,2,-4,2,3,-9,0,-1,-4,91
0,4,4,-1,-2,4,5,-8,2,0,-3,92
0,5,5,-2,-2,4,6,-8,2,0,-3,92
-3,1,5,1,-4,3,6,-8,1,-3,-5,91
-4,0,4,2,-4,1,6,-9,0,-4,-6,90
-2,0,2,1,-2,1,7,-8,0,-4,-7,90
-3,0,1,2,-2,1,7,-8,0,-4,-8,89
-7,-4,1,6,-4,0,6,-10,0,-4,-9,88
-9,-6,2,8,-6,-1,6,-10,0,-5,-10,88
-7,-4,3,5,-5,0,7,-9,1,-3,-8,89
0,3,4,-2,-2,4,9,-7,5,0,-5,92
5,9,4,-7,0,7,11,-5,7,2,-3,94
4,9,5,-7,-1,7,12,-5,7,3,-2,95
1,8,6,-5,-3,7,12,-6,7,3,-2,95
2,8,6,-5,-2,7,12,-7,7,2,-2,95
3,8,4,-5,-1,6,11,-9,6,1,-3,93
3,6,3,-4,0,4,10,-11,5,0,-5,92
1,4,3,-3,-1,3,9,-12,4,-1,-5,91
-1,2,4,0,-3,3,8,-12,4,-1,-6,90
-5,-1,5,3,-5,1,7,-13,3,-2,-7,89
-10,-5,5,8,-7,-1,6,-14,3,-3,-8,88
-10,-5,5,8,-7,-1,7,-12,5,-2,-7,89
-6,-1,4,4,-5,1,9,-9,11,0,-5,90
-3,2,4,1,-4,3,10,-7,17,1,-4,90
0,5,5,-2,-3,5,13,-3,25,3,-3,91
2,9,7,-5,-2,8,15,1,33,7,-1,93
1,10,8,-5,-4,9,17,4,38,9,0,93
-3,7,10,-1,-7,8,17,6,42,11,0,93
-6,5,12,0,-9,8,18,8,47,15,3,93
-4,8,13,-2,-9,11,19,11,54,21,7,96
0,13,14,-6,-7,14,20,16,62,28,14,100
0,15,15,-7,-8,15,20,20,68,34,20,105
-2,14,16,-5,-10,15,19,24,74,39,25,110
0,16,16,-7,-9,16,18,29,80,44,32,117
4,20,15,-12,-6,17,17,34,86,50,40,127
12,27,14,-20,-1,20,16,40,91,58,51,139
21,34,13,-27,3,23,14,44,95,65,61,152
25,35,10,-30,7,22,9,43,94,68,69,163
29,35,6,-32,11,20,2,39,89,68,74,173
39,38,-1,-38,20,18,-5,33,82,67,80,185
50,42,-8,-46,29,17,-12,26,72,66,86,199
59,45,-14,-52,36,16,-19,15,60,62,91,211
67,48,-18,-57,42,15,-25,-1,43,53,93,220
71,48,-22,-60,46,13,-30,-23,21,37,87,222
71,44,-26,-58,49,8,-35,-47,-6,12,71,214
67,36,-30,-52,49,2,-39,-75,-36,-17,48,196
55,25,-30,-40,43,-2,-40,-107,-67,-51,17,167
40,12,-28,-26,34,-7,-39,-139,-95,-87,-16,130
31,3,-29,-17,30,-12,-36,-163,-117,-117,-47,95
29,-5,-35,-12,31,-19,-34,-174,-132,-138,-73,65
26,-16,-43,-5,34,-29,-34,-176,-141,-153,-92,41
24,-26,-50,1,36,-38,-33,-171,-144,-161,-105,24
24,-32,-56,4,39,-45,-32,-161,-142,-164,-112,15
26,-36,-60,4,43,-49,-31,-149,-135,-161,-113,11
28,-36,-63,4,45,-50,-28,-135,-124,-152,-111,11
26,-37,-63,6,44,-50,-25,-121,-110,-142,-107,12
19,-41,-60,11,40,-50,-23,-108,-95,-130,-102,15
13,-41,-56,14,34,-48,-19,-95,-80,-117,-95,20
6,-42,-49,17,28,-45,-14,-84,-65,-105,-87,25
0,-42,-42,20,20,-41,-9,-74,-52,-94,-80,30
-5,-40,-34,22,14,-37,-4,-65,-39,-83,-72,37
-9,-39,-28,24,9,-34,-1,-57,-27,-71,-63,43
-9,-34,-23,22,6,-28,3,-48,-15,-59,-54,51
-5,-23,-17,15,5,-20,7,-38,-2,-47,-43,59
-3,-14,-11,9,4,-12,10,-29,8,-36,-33,66
-2,-8,-7,5,2,-7,12,-21,17,-27,-26,72
-3,-6,-5,5,1,-5,13,-16,23,-21,-21,76
-5,-7,-2,5,-1,-4,14,-13,27,-17,-17,79
-4,-4,0,3,-2,-2,17,-9,33,-11,-12,83
-3,-2,2,2,-2,0,19,-5,37,-6,-7,87
-5,-3,4,4,-5,0,19,-3,40,-3,-4,90
-8,-4,5,6,-7,0,19,0,41,-1,-2,91
-8,-4,4,7,-6,0,18,2,43,0,-1,92
-8,-4,3,7,-5,0,18,4,44,1,0,93
-8,-4,2,7,-5,-1,18,6,45,2,0,93
-7,-4,1,6,-4,-1,18,7,46,3,0,94
-6,-4,1,5,-4,-1,19,7,46,4,0,95
-5,-4,1,4,-4,-1,20,6,47,4,1,96
-4,-3,1,3,-3,-1,21,5,48,5,1,96
-3,-2,1,2,-3,0,22,5,48,5,1,97
-4,-3,1,4,-4,0,22,5,48,5,1,97
-8,-7,1,7,-5,-2,21,4,47,4,0,96
-12,-11,1,12,-7,-4,19,2,45,3,-1,95
-15,-13,1,14,-8,-5,18,1,44,2,-2,95
-12,-12,0,12,-6,-5,18,1,44,2,-1,96
-8,-9,0,8,-4,-4,19,2,45,4,0,97
-6,-8,0,7,-4,-4,19,2,45,4,0,98
-7,-9,0,8,-4,-5,18,2,44,3,0,98
-8,-9,-1,9,-4,-5,17,1,43,2,0,98
-8,-9,-1,8,-3,-5,16,1,44,3,0,99
-7,-7,0,7,-3,-4,16,2,46,6,0,100
-8,-7,0,7,-4,-3,16,2,46,7,0,100
-11,-10,1,10,-6,-4,16,2,44,5,0,99
-12,-10,2,10,-7,-4,16,2,43,4,-1,99
-11,-8,3,9,-8,-3,17,2,42,4,0,100
-11,-9,3,10,-8,-3,17,2,41,4,0,101
-13,-11,3,12,-8,-4,16,0,40,3,-1,100
-13,-12,1,13,-7,-5,16,0,39,2,-2,100
-9,-9,0,9,-4,-4,17,1,40,3,-1,101
-3,-4,-1,3,0,-2,18,4,43,6,0,103
2,-1,-2,0,2,-1,20,6,44,7,1,105
3,0,-3,-1,3,-2,20,6,44,7,1,106
-1,-4,-3,2,0,-4,20,5,43,6,0,108
-6,-9,-2,7,-2,-6,19,3,42,4,0,109
-7,-10,-3,8,-2,-6,18,2,41,4,-1,110
-5,-8,-3,7,-1,-5,18,2,42,5,0,112
-5,-6,-1,5,-1,-3,18,1,44,6,0,114
-7,-8,0,7,-3,-4,17,0,44,6,0,115
-11,-12,0,11,-5,-6,15,-1,42,4,-2,114
-11,-12,0,11,-6,-6,14,-2,41,3,-3,114
-9,-11,-1,10,-5,-6,15,-1,41,3,-3,114
-8,-10,-1,9,-4,-6,15,-1,41,3,-4,114
-7,-9,-1,8,-3,-5,16,-1,42,3,-4,115
-8,-10,-1,9,-4,-6,15,-1,42,3,-4,116
-9,-11,-1,10,-4,-6,14,-1,43,4,-4,117
-7,-9,-1,8,-2,-5,14,0,45,6,-2,120
-3,-6,-2,5,0,-4,14,1,46,8,-1,122
-3,-6,-2,4,0,-4,13,-1,46,6,-2,122
-5,-7,-2,6,-1,-5,11,-2,44,4,-3,121
-6,-8,-1,6,-3,-5,11,-3,44,4,-3,122
-6,-7,-1,5,-3,-4,10,-2,45,5,-2,123
-6,-6,0,5,-3,-3,9,-2,45,6,-1,123
-7,-8,0,7,-3,-3,7,-2,44,6,-2,123
-8,-9,0,8,-3,-4,5,-2,43,5,-2,123
-7,-7,0,7,-3,-3,5,-2,44,6,-2,124
-4,-4,0,3,-2,-2,7,0,45,7,-1,126
-4,-3,0,3,-2,-1,8,0,45,8,0,127
-7,-7,0,6,-4,-3,7,-1,44,7,0,126
-9,-10,0,9,-5,-5,7,-2,43,7,0,126
-10,-11,0,10,-5,-6,7,-1,44,7,1,126
-9,-9,0,9,-5,-4,7,0,45,8,2,128
-3,-3,1,3,-2,0,9,2,48,11,4,130
-1,0,2,1,-1,1,9,4,50,12,5,132
-5,-3,3,5,-4,0,8,4,50,12,4,131
-10,-8,3,10,-7,-2,6,4,50,11,3,130
-14,-10,4,12,-9,-3,5,4,50,12,3,130
-12,-7,5,9,-9,0,7,6,53,14,6,132
-6,0,7,3,-7,4,10,9,56,17,9,136
-4,4,8,0,-6,6,11,10,58,18,10,138
-6,4,10,1,-8,7,10,11,59,18,11,139
-6,5,10,1,-8,8,9,11,60,19,12,140
-6,5,10,1,-8,8,8,11,61,20,12,141
-7,4,11,1,-9,7,8,11,60,20,12,141
-8,4,11,2,-9,7,7,11,58,19,11,142
-8,3,12,2,-10,7,7,11,57,17,10,142
-7,4,12,1,-9,8,7,12,57,17,10,143
-6,6,12,0,-9,8,8,13,58,18,11,145
-5,6,11,0,-8,8,8,14,59,20,13,147
-5,5,11,0,-8,8,7,14,60,21,14,149
-3,7,11,-1,-7,9,7,15,60,22,15,150
0,11,12,-5,-6,12,9,16,61,23,17,152
2,13,12,-7,-5,12,9,16,61,22,17,153
0,10,11,-5,-6,10,8,14,59,20,16,153
-3,7,11,-2,-7,9,7,12,58,19,15,153
-3,7,11,-2,-7,9,6,11,59,19,16,154
-4,8,12,-2,-7,10,5,11,59,21,18,155
-4,9,13,-2,-8,12,5,10,59,22,20,157
-2,11,13,-4,-7,13,5,10,59,21,21,158
-1,13,14,-5,-7,14,5,10,57,20,22,159
-1,13,14,-5,-8,14,4,10,56,19,21,159
-1,12,14,-5,-8,13,3,9,54,18,20,159
0,13,14,-7,-7,14,3,9,54,18,19,160
2,15,13,-8,-6,14,4,9,54,19,20,162
4,17,13,-10,-5,15,5,9,54,20,21,165
5,19,13,-11,-4,16,5,9,53,20,21,165
5,18,13,-11,-4,15,5,7,51,18,19,159
3,15,12,-9,-4,14,4,5,49,17,18,150
0,11,12,-5,-6,12,2,3,47,17,17,141
-6,6,13,0,-10,10,0,1,45,16,16,133
-11,2,13,4,-12,8,-1,-1,43,16,15,126
-10,2,13,4,-11,8,-2,-3,42,16,15,120
-4,7,12,-2,-8,10,-1,-3,42,16,15,116
0,12,12,-6,-6,12,0,-3,42,17,16,112
2,14,12,-8,-5,13,1,-3,42,16,16,107
-1,10,12,-4,-7,12,0,-5,40,15,15,101
-9,3,13,3,-11,9,-1,-7,39,14,14,95
-8,4,13,1,-10,9,0,-6,40,16,16,91
0,12,12,-6,-5,12,1,-5,43,19,19,87
4,15,12,-10,-3,14,1,-5,44,21,21,82
4,16,11,-11,-3,13,0,-6,42,19,19,75
5,16,11,-11,-2,13,0,-7,40,17,18,68
4,15,11,-10,-3,13,0,-8,38,14,16,59
1,11,10,-6,-5,11,0,-8,36,13,14,51
-1,9,10,-4,-6,10,0,-8,37,14,14,44
0,11,10,-6,-4,11,1,-6,38,16,16,40
3,11,9,-7,-2,10,2,-5,38,16,16,35
3,10,7,-7,-1,8,2,-5,37,15,15,29
3,8,5,-5,-1,7,2,-5,36,15,14,22
0,5,5,-3,-3,5,1,-6,35,14,14,15
-1,4,5,-1,-4,5,0,-6,33,14,14,9
-1,4,5,-1,-4,5,0,-6,33,13,14,4
-2,3,6,-1,-4,5,0,-6,32,13,15,-1
-3,2,6,0,-5,5,0,-6,31,12,15,-7
-3,2,5,0,-4,4,0,-6,30,11,15,-12
-4,1,5,0,-4,3,0,-7,29,10,15,-17
-5,0,4,2,-4,2,-1,-8,29,10,15,-23
-3,0,3,1,-3,1,0,-8,28,10,15,-28
-1,0,2,0,-2,1,0,-7,28,9,14,-33
-1,0,2,0,-2,1,1,-7,27,9,13,-38
0,1,2,-1,-1,2,2,-7,28,10,13,-41
2,4,2,-3,-1,4,4,-6,29,12,14,-44
0,3,4,-2,-2,4,4,-6,29,11,13,-49
-5,-1,4,2,-4,2,3,-8,27,9,11,-55
-7,-4,3,5,-4,0,3,-8,26,9,9,-60
-5,-4,2,4,-3,-1,4,-7,26,8,9,-64
-1,-2,0,1,0,-1,6,-6,25,8,9,-67
3,1,-2,-2,3,0,6,-6,25,9,9,-70
4,1,-3,-2,4,-1,6,-6,26,10,10,-73
3,-1,-4,-1,4,-2,5,-7,26,11,10,-76
2,-2,-4,0,3,-3,4,-7,25,10,9,-79
0,-2,-3,0,2,-2,4,-7,25,9,9,-81
0,-3,-2,1,1,-2,5,-6,24,8,8,-84
-1,-5,-3,2,1,-3,6,-6,22,6,7,-87
-1,-6,-4,3,1,-4,6,-5,22,6,6,-91
0,-3,-3,1,1,-3,7,-4,22,7,7,-92
2,-1,-2,0,2,-2,8,-2,23,8,8,-93
0,-2,-2,0,1,-1,9,-1,22,9,8,-94
0,-1,-1,0,0,-1,10,0,22,9,8,-95
1,0,-1,-1,1,0,11,0,23,10,9,-95
1,2,-1,-2,2,1,12,1,23,11,10,-96
0,2,0,-1,0,2,12,1,22,11,10,-97
-2,0,2,0,-1,1,12,0,20,10,9,-100
-3,-2,1,2,-2,0,11,0,19,8,7,-102
-3,-4,0,3,-2,-1,10,0,18,6,5,-104
-3,-5,-1,4,-1,-2,10,0,18,6,5,-104
-3,-5,-2,4,0,-3,10,0,19,7,4,-104
-3,-5,-3,3,0,-4,10,0,19,7,4,-104
-3,-6,-3,4,1,-4,9,0,20,7,5,-104
-4,-7,-2,5,0,-5,9,0,21,8,6,-104
-5,-7,-1,6,-1,-4,9,-1,22,9,7,-103
-3,-4,0,4,-1,-2,9,0,23,10,8,-103
-4,-4,0,4,-2,-2,9,-1,22,9,7,-104
-8,-8,0,7,-4,-3,8,-2,20,6,4,-107
-11,-13,-1,12,-5,-6,6,-4,18,3,0,-110
-12,-16,-3,13,-4,-9,5,-5,17,2,-2,-112
-12,-16,-3,13,-4,-9,4,-4,19,4,-2,-113
-11,-12,-1,11,-4,-6,6,-1,24,9,1,-111
-4,-3,1,3,-2,0,10,3,31,17,7,-107
0,1,3,0,-1,2,12,7,36,22,11,-106
-1,1,4,0,-2,3,12,9,38,24,13,-106
-4,0,5,2,-5,3,13,12,42,26,15,-106
-8,-2,7,5,-8,3,12,15,45,29,17,-105
-9,-1,8,4,-9,4,13,20,51,34,21,-101
-3,6,9,-2,-5,8,14,26,59,42,28,-94
3,13,10,-8,-2,12,15,33,67,51,36,-86
5,16,11,-11,-2,14,14,39,72,58,44,-77
8,19,11,-13,-1,15,11,42,75,64,54,-66
12,23,11,-17,1,17,7,43,76,69,63,-54
16,24,8,-20,3,16,0,41,74,71,69,-44
22,25,4,-23,9,14,-6,35,67,70,74,-33
32,30,-1,-31,16,15,-11,29,57,68,80,-20
41,35,-5,-39,24,15,-18,20,45,66,87,-5
49,39,-10,-45,31,15,-26,6,31,62,93,9
57,41,-15,-49,37,14,-33,-11,14,54,97,21
60,39,-20,-50,40,10,-40,-33,-7,41,94,26
59,33,-25,-46,42,4,-47,-56,-33,21,82,22
58,29,-29,-44,43,1,-51,-78,-59,-3,64,10
55,28,-28,-42,41,1,-51,-100,-84,-29,41,-10
44,21,-23,-33,33,0,-49,-124,-109,-60,11,-40
30,9,-21,-20,25,-5,-47,-145,-134,-92,-22,-76
21,-5,-26,-8,24,-15,-45,-156,-154,-120,-53,-111
18,-17,-36,0,27,-26,-44,-157,-167,-140,-78,-140
20,-25,-46,3,33,-36,-43,-151,-173,-152,-94,-160
23,-29,-52,3,37,-41,-42,-141,-170,-154,-102,-172
22,-32,-54,5,37,-43,-40,-130,-161,-149,-103,-177
15,-36,-51,11,32,-44,-38,-117,-149,-141,-101,-178
7,-38,-46,15,26,-42,-35,-103,-133,-129,-97,-177
2,-38,-41,17,21,-39,-31,-88,-117,-116,-90,-173
0,-37,-37,18,18,-37,-27,-75,-101,-103,-83,-168
-2,-34,-32,18,15,-32,-22,-63,-86,-89,-74,-162
-4,-30,-26,17,11,-27,-18,-53,-73,-77,-65,-157
-7,-27,-20,17,7,-23,-14,-45,-61,-66,-57,-152
-8,-24,-15,16,3,-19,-11,-37,-50,-55,-49,-147
-12,-22,-11,17,-1,-16,-9,-31,-40,-46,-42,-143
-14,-21,-7,17,-4,-15,-8,-25,-32,-38,-36,-140
-13,-17,-5,14,-4,-11,-6,-18,-23,-29,-30,-136
-12,-13,-2,12,-5,-8,-4,-12,-14,-21,-23,-132
-13,-13,0,12,-6,-7,-3,-8,-8,-16,-18,-129
-13,-11,1,12,-6,-5,-2,-4,-2,-11,-13,-126
-11,-9,2,10,-6,-3,-1,-2,1,-6,-9,-124
-11,-9,1,10,-6,-4,-2,-1,4,-4,-6,-122
-11,-10,1,11,-6,-5,-2,0,6,-2,-4,-122
-13,-11,1,12,-7,-5,-2,1,7,0,-3,-121
-13,-11,2,12,-8,-4,-2,4,8,2,-1,-120
-12,-9,2,10,-7,-3,-1,6,9,6,1,-118
-11,-9,2,9,-6,-3,0,7,8,7,1,-118
-13,-10,2,11,-7,-3,0,6,7,8,2,-118
-14,-9,4,12,-8,-2,1,6,6,8,3,-117
-13,-8,5,11,-9,-1,1,5,5,8,3,-117
-10,-4,5,8,-8,0,2,6,5,9,4,-116
-6,0,5,4,-6,2,3,6,6,10,4,-115
-5,0,6,3,-6,3,3,6,6,10,3,-115
-5,0,6,3,-5,2,3,7,6,11,3,-115
-5,0,5,2,-4,2,3,7,5,12,3,-115
-4,0,4,2,-3,2,4,7,5,13,3,-115
-2,2,4,0,-2,3,5,7,6,14,5,-114
-3,2,5,0,-3,4,5,7,6,13,5,-114
-10,-4,5,7,-8,1,3,4,3,11,3,-117
-16,-10,6,13,-11,-2,1,2,0,9,0,-120
-14,-8,6,11,-10,-1,2,3,1,10,0,-120
-9,-3,6,6,-7,1,4,5,3,12,2,-118
-9,-3,6,5,-7,1,4,6,3,12,2,-118
-8,-2,5,5,-6,1,4,6,3,13,3,-117
-11,-4,6,8,-8,1,3,5,2,12,3,-118
-18,-11,7,15,-13,-1,1,3,0,9,1,-120
-16,-9,7,13,-12,0,2,4,0,10,2,-120
-6,0,6,3,-6,3,5,7,3,12,5,-118
-1,4,6,-1,-4,5,5,8,4,13,6,-117
-4,2,6,1,-5,4,4,8,4,13,6,-118
-6,1,7,2,-6,3,4,8,4,14,6,-118
-8,0,7,4,-7,3,3,8,4,14,6,-118
-10,-1,8,5,-8,3,3,7,3,14,6,-119
-9,0,8,5,-8,4,3,7,2,14,7,-119
-7,2,9,3,-7,6,4,8,2,14,8,-119
-4,5,8,0,-6,7,4,8,2,15,9,-118
-3,5,7,-1,-5,6,4,8,2,14,9,-119
-4,2,6,1,-5,4,3,7,1,13,8,-120
-6,0,6,3,-6,3,2,7,1,13,8,-120
-7,0,7,3,-6,3,3,8,2,13,8,-120
-8,-1,7,4,-7,3,3,8,2,13,8,-120
-10,-2,7,6,-8,2,2,7,2,12,7,-121
-9,-2,6,6,-7,2,2,7,2,11,7,-121
-6,0,6,3,-6,4,2,8,3,12,8,-121
-4,2,7,2,-6,4,2,8,3,12,8,-121
-7,-1,7,4,-7,2,1,8,3,11,7,-122
-9,-2,7,5,-8,2,1,9,4,11,6,-123
-9,-1,8,5,-8,3,1,10,5,12,7,-122
-12,-3,9,7,-10,3,2,11,5,11,7,-123
-15,-6,9,11,-11,2,1,10,4,10,6,-124
-16,-8,7,13,-11,0,0,9,3,9,5,-126
-15,-10,5,13,-9,-2,0,8,2,8,4,-127
-13,-8,5,11,-9,-1,1,9,3,8,5,-127
-10,-5,5,8,-8,0,2,11,5,9,6,-127
-8,-4,5,6,-7,0,3,13,6,10,6,-126
-6,-2,4,4,-5,1,3,14,7,11,7,-126
-5,0,4,2,-4,2,4,14,8,13,8,-126
-6,-2,4,4,-5,2,3,13,7,13,7,-126
-11,-6,4,9,-7,0,2,12,6,11,6,-128
-12,-8,4,10,-8,-1,1,11,6,11,5,-128
-11,-7,5,9,-8,0,2,12,7,12,6,-127
-9,-5,5,7,-7,0,3,13,8,13,6,-126
-7,-3,4,5,-6,0,4,14,9,14,7,-125
-6,-3,4,4,-5,1,4,15,10,14,7,-125
-5,-1,4,3,-5,2,4,16,11,15,7,-124
-2,2,4,0,-3,4,5,17,12,17,9,-122
0,5,5,-1,-2,5,6,18,13,18,10,-121
-4,2,6,2,-4,5,6,18,13,18,10,-121
-8,-1,7,6,-7,3,5,17,13,17,10,-122
-9,-1,7,5,-8,3,5,17,13,18,11,-122
-6,0,7,2,-6,3,6,18,14,19,11,-121
-2,3,6,-1,-4,4,6,19,15,20,12,-120
1,4,4,-3,-1,4,6,19,15,20,12,-120
1,4,3,-3,0,4,5,18,15,19,11,-120
0,4,3,-2,0,4,5,19,14,19,11,-120
1,5,3,-2,0,4,5,20,14,19,12,-120
1,4,2,-2,0,4,5,20,14,19,12,-120
1,3,1,-2,1,2,4,20,14,19,12,-120
2,3,1,-3,1,2,3,20,13,18,12,-121
2,3,1,-3,1,1,2,19,13,18,12,-121
2,3,1,-3,1,1,2,18,13,18,11,-120
3,3,0,-4,2,1,1,18,12,17,11,-120
2,2,0,-2,2,1,1,17,11,16,11,-120
-1,0,1,1,0,0,1,15,10,15,10,-121
-3,-1,1,3,-1,0,1,15,10,15,10,-121
-2,1,2,1,-2,2,1,15,10,16,12,-119
-1,3,4,-1,-2,3,2,15,11,16,13,-118
-1,4,6,-1,-3,4,3,14,12,17,13,-117
-1,5,7,-2,-4,5,3,13,12,17,13,-116
-2,4,7,-1,-4,5,2,12,10,16,12,-116
-2,4,7,-1,-4,6,2,12,10,16,13,-115
-1,6,7,-2,-3,7,3,13,10,16,14,-114
-1,6,6,-2,-3,6,2,12,9,15,13,-114
0,4,4,-2,-1,4,1,11,7,13,12,-115
0,2,3,-1,-1,3,0,10,6,12,11,-115
-2,0,3,0,-2,2,0,9,5,11,11,-115
-2,0,3,0,-2,2,0,8,5,11,11,-115
0,1,2,-1,-1,2,0,8,4,11,11,-114
-2,-1,2,1,-1,0,-1,7,3,10,10,-114
-5,-4,1,4,-2,-1,-2,5,2,8,10,-115
-5,-4,1,5,-3,-1,-2,5,1,8,9,-114
-4,-2,1,4,-3,0,-1,5,1,8,10,-113
-3,-1,1,2,-2,0,-1,5,1,8,10,-112
-1,0,1,0,-1,1,0,5,1,8,10,-111
1,1,1,-1,0,1,0,4,1,8,10,-109
2,1,1,-2,1,1,-1,3,0,8,10,-109
4,3,0,-3,2,1,-1,3,0,8,11,-108
5,4,0,-5,3,2,0,2,0,9,11,-106
3,2,0,-2,2,1,-1,0,-2,8,11,-106
0,-1,-1,1,0,0,-3,-1,-4,6,10,-107
-1,-2,-1,1,0,-1,-4,-3,-6,5,9,-107
0,-1,-1,0,0,-1,-4,-3,-6,5,9,-106
0,0,-1,-1,1,0,-4,-3,-7,5,10,-105
-2,-2,0,1,0,-1,-4,-3,-8,4,9,-105
-6,-5,1,4,-3,-2,-5,-4,-9,3,8,-105
-3,-2,2,2,-2,0,-4,-3,-9,4,9,-103
3,2,0,-2,2,1,-3,-3,-8,4,10,-102
5,2,-2,-3,4,0,-3,-4,-10,3,9,-102
4,1,-3,-3,5,0,-4,-6,-12,2,8,-102
5,3,-2,-4,4,0,-4,-7,-12,3,8,-101
4,3,-1,-3,3,0,-4,-7,-12,3,8,-101
1,0,-1,-1,2,-1,-5,-9,-13,2,6,-101
3,1,-2,-3,3,-1,-5,-9,-12,2,6,-100
8,4,-3,-7,6,0,-4,-9,-11,2,6,-99
8,4,-3,-7,6,0,-3,-10,-11,2,6,-98
4,1,-3,-3,4,0,-4,-11,-12,0,5,-99
1,-1,-2,0,3,-1,-4,-12,-13,0,4,-99
0,-2,-3,0,3,-2,-5,-12,-15,-1,2,-100
0,-3,-3,1,2,-3,-5,-13,-16,-2,1,-100
-1,-5,-4,2,2,-4,-6,-13,-17,-3,0,-100
-2,-6,-4,4,2,-6,-6,-14,-19,-4,-1,-101
-3,-8,-5,5,1,-7,-7,-14,-20,-5,-2,-101
-3,-8,-5,6,1,-7,-7,-15,-21,-6,-3,-101
-2,-8,-5,5,2,-7,-7,-15,-22,-7,-3,-101
0,-6,-6,3,3,-6,-7,-15,-22,-7,-3,-100
2,-3,-6,1,4,-4,-6,-15,-22,-6,-3,-99
3,-2,-6,0,5,-4,-7,-15,-22,-6,-3,-99
3,-2,-5,0,5,-3,-8,-16,-22,-6,-3,-98
3,-2,-4,-1,4,-3,-9,-15,-22,-6,-3,-97
3,-1,-4,-1,4,-2,-10,-15,-22,-5,-3,-96
2,-2,-4,0,4,-3,-10,-15,-22,-6,-4,-96
0,-5,-5,2,3,-4,-12,-15,-23,-7,-5,-97
-2,-7,-5,5,2,-6,-13,-14,-24,-9,-6,-97
-1,-7,-5,4,2,-5,-13,-13,-24,-9,-6,-96
-2,-7,-5,5,1,-5,-14,-12,-24,-9,-6,-95
-7,-12,-5,9,-1,-7,-16,-13,-25,-11,-7,-96
-9,-14,-5,11,-1,-9,-16,-13,-25,-11,-8,-97
-5,-10,-5,7,0,-7,-15,-11,-23,-10,-7,-95
0,-4,-5,1,3,-4,-12,-8,-21,-9,-5,-92
2,-2,-4,0,4,-3,-10,-7,-20,-8,-4,-91
-1,-6,-4,3,1,-4,-11,-7,-21,-9,-5,-91
-5,-9,-3,7,-1,-5,-12,-7,-22,-10,-6,-91
-7,-10,-3,8,-2,-5,-12,-6,-22,-10,-6,-91
-9,-12,-3,10,-3,-6,-13,-7,-22,-11,-7,-91
-8,-10,-3,9,-2,-6,-13,-7,-22,-10,-7,-91
-1,-4,-2,2,1,-3,-11,-4,-20,-8,-6,-88
4,2,-2,-3,4,0,-9,-2,-18,-6,-5,-86
6,4,-1,-5,4,0,-8,-1,-17,-6,-4,-84
5,3,-1,-4,3,0,-7,0,-17,-6,-5,-84
2,0,-1,-1,2,0,-7,-1,-18,-6,-5,-84
1,0,-1,0,1,0,-7,-1,-18,-6,-5,-83
2,1,-1,-2,2,0,-7,0,-17,-6,-5,-82
4,4,0,-4,2,2,-7,1,-16,-5,-4,-81
7,7,0,-7,3,3,-7,3,-15,-4,-3,-80
9,9,0,-9,4,4,-7,4,-15,-4,-3,-79
4,5,1,-5,1,2,-8,4,-15,-5,-3,-79
-4,-2,2,2,-3,0,-10,3,-17,-6,-5,-80
-8,-5,3,6,-6,-1,-10,2,-17,-7,-5,-79
-6,-3,3,4,-4,0,-9,3,-16,-6,-4,-78
-3,-1,2,1,-2,1,-9,4,-16,-6,-3,-77
-3,-1,2,1,-2,1,-9,5,-16,-6,-4,-77
-3,-2,2,2,-2,0,-9,5,-16,-7,-4,-77
-2,-1,2,1,-2,0,-9,5,-16,-6,-4,-76
1,1,1,-1,0,1,-8,6,-15,-5,-3,-75
3,3,0,-3,1,1,-8,6,-14,-5,-3,-74
2,3,1,-3,1,2,-8,6,-14,-5,-2,-73
0,2,2,-1,0,2,-8,6,-14,-5,-2,-72
-1,0,2,0,-1,1,-8,6,-14,-5,-2,-72
-2,-1,1,1,-2,0,-9,6,-14,-5,-3,-72
-3,-3,1,3,-2,0,-10,5,-14,-6,-3,-73
-4,-3,1,3,-2,-1,-11,5,-14,-6,-3,-72
-3,-2,1,2,-2,0,-11,6,-14,-6,-3,-71
-1,0,1,1,-1,0,-11,6,-14,-6,-2,-71
-1,0,1,0,-1,0,-11,6,-14,-6,-2,-70
-3,-1,2,2,-2,0,-11,6,-13,-6,-2,-69
-2,0,2,1,-2,2,-10,6,-12,-5,-1,-68
1,4,2,-3,0,4,-8,7,-10,-3,0,-67
3,6,2,-5,1,4,-8,7,-10,-3,0,-66
0,3,2,-2,-1,3,-8,6,-10,-3,0,-66
-4,0,3,1,-3,2,-9,5,-10,-4,0,-66
-6,-1,4,3,-5,2,-9,5,-10,-4,-1,-66
-5,-1,5,3,-5,2,-8,6,-8,-3,0,-65
-2,3,6,0,-4,4,-7,9,-5,0,1,-64
-3,4,7,-1,-4,6,-5,11,-1,2,2,-63
-7,1,9,3,-7,5,-5,12,1,5,3,-63
-9,0,10,4,-9,6,-4,14,4,8,5,-62
-6,4,11,1,-8,8,-2,17,10,13,9,-59
-3,8,11,-3,-7,10,0,22,16,18,13,-55
-1,10,12,-5,-6,11,0,26,22,23,18,-52
-4,9,14,-3,-9,11,0,31,28,28,22,-48
-3,12,15,-5,-9,13,1,37,35,34,27,-42
4,19,15,-12,-5,17,2,45,42,41,34,-34
11,23,12,-18,0,18,0,51,46,46,41,-26
15,24,9,-20,3,17,-3,55,48,50,47,-17
17,24,8,-21,5,16,-7,57,50,55,55,-6
22,26,5,-24,9,15,-12,57,50,59,63,5
32,31,0,-32,16,15,-17,55,46,61,70,18
40,34,-5,-38,23,14,-23,50,38,60,75,30
49,37,-11,-43,30,13,-30,42,27,58,82,44
60,43,-17,-52,39,13,-37,31,15,56,89,59
68,47,-20,-58,45,14,-43,16,0,51,94,72
71,48,-23,-60,48,13,-50,-3,-18,39,92,79
73,46,-27,-60,50,10,-56,-25,-41,20,82,77
74,42,-31,-58,52,6,-60,-48,-67,-3,65,66
68,36,-32,-52,50,2,-61,-73,-95,-33,40,45
57,27,-30,-42,43,-1,-60,-102,-124,-67,9,15
44,16,-29,-30,37,-6,-59,-129,-151,-100,-23,-18
36,5,-32,-21,34,-12,-59,-148,-172,-128,-52,-49
31,-6,-38,-12,35,-22,-58,-156,-187,-149,-76,-76
28,-18,-46,-5,37,-31,-58,-156,-194,-162,-94,-96
28,-25,-52,-2,40,-38,-57,-149,-194,-166,-104,-109
24,-31,-55,2,40,-43,-56,-141,-188,-166,-108,-116
16,-38,-53,10,35,-46,-55,-131,-179,-161,-108,-118
8,-40,-48,15,28,-44,-52,-119,-165,-151,-104,-117
3,-39,-42,18,23,-40,-47,-105,-149,-139,-98,-112
2,-35,-37,16,20,-35,-41,-91,-132,-124,-90,-106
2,-31,-33,14,18,-31,-35,-79,-116,-110,-81,-100
-4,-32,-27,18,11,-29,-31,-70,-103,-98,-74,-96
-11,-33,-21,22,5,-27,-27,-62,-91,-88,-67,-91
-11,-29,-17,19,3,-22,-21,-53,-79,-76,-59,-86
-6,-21,-14,13,4,-17,-15,-43,-67,-65,-51,-80
-1,-13,-11,7,5,-12,-11,-34,-55,-55,-43,-74
0,-11,-10,5,5,-10,-8,-27,-47,-48,-37,-71
-2,-12,-9,7,3,-10,-7,-21,-41,-42,-34,-69
-6,-13,-7,9,0,-9,-7,-16,-36,-37,-30,-66
-9,-13,-4,10,-2,-8,-5,-11,-30,-31,-26,-63
-10,-11,-1,10,-4,-6,-4,-7,-25,-26,-22,-60
-8,-8,0,8,-4,-4,-2,-3,-20,-21,-17,-57
-7,-6,1,6,-4,-3,-1,0,-16,-18,-14,-54
-8,-7,1,7,-5,-3,-1,3,-14,-15,-12,-52
-9,-7,1,8,-5,-3,-1,6,-12,-13,-10,-50
-9,-8,1,8,-5,-3,-1,8,-10,-11,-8,-49
-10,-10,0,10,-5,-5,-2,10,-9,-10,-8,-48
-11,-12,0,12,-5,-5,-2,11,-9,-10,-7,-48
-10,-10,1,10,-5,-4,-1,13,-7,-8,-6,-47
-9,-9,1,8,-5,-3,-1,15,-6,-7,-5,-45
-9,-8,1,8,-5,-3,-1,16,-7,-7,-4,-45
-8,-8,1,7,-5,-3,0,18,-7,-7,-4,-44
-7,-8,0,7,-4,-4,0,19,-7,-8,-4,-44
-5,-6,0,5,-3,-3,0,21,-7,-7,-4,-44
-2,-2,0,2,-1,-1,1,23,-6,-6,-3,-43
-1,-2,0,1,0,-1,1,24,-6,-6,-3,-42
-1,-3,0,2,0,-1,1,23,-7,-6,-4,-42
-1,-2,-1,2,0,-1,1,22,-7,-7,-4,-42
-1,-2,-1,1,0,-2,1,21,-7,-7,-3,-41
-2,-3,-1,2,-1,-2,1,20,-8,-7,-3,-41
-4,-5,-1,4,-2,-3,1,20,-8,-8,-3,-41
-6,-6,0,6,-4,-3,0,20,-8,-8,-3,-42
-8,-7,0,8,-4,-3,0,20,-8,-8,-4,-42
-7,-6,0,7,-3,-3,0,20,-8,-8,-4,-41
-5,-5,0,5,-2,-3,0,21,-8,-8,-4,-41
-5,-6,0,6,-2,-3,0,20,-9,-8,-4,-41
-8,-9,0,8,-3,-5,-2,19,-10,-9,-4,-42
-10,-11,0,10,-5,-5,-2,19,-10,-10,-5,-42
-12,-11,1,11,-6,-5,-1,19,-10,-9,-5,-42
-14,-13,1,13,-7,-6,-1,19,-10,-10,-6,-42
-18,-18,0,18,-9,-8,-2,17,-12,-12,-8,-43
-19,-19,0,19,-10,-8,-2,17,-12,-13,-8,-43
-17,-16,0,17,-8,-7,-1,18,-12,-12,-8,-42
-13,-13,0,13,-6,-7,-1,18,-11,-11,-7,-41
-7,-9,-1,8,-3,-6,0,19,-9,-10,-6,-40
-3,-4,-1,4,-1,-3,1,20,-7,-9,-3,-39
-3,-4,-1,3,-1,-2,1,21,-6,-8,-2,-38
-6,-6,-1,6,-2,-3,1,20,-6,-9,-2,-39
-6,-7,-1,6,-2,-3,2,20,-5,-8,-2,-39
-1,-2,-2,1,0,-1,4,22,-3,-7,-1,-37
2,0,-2,-1,2,0,4,22,-2,-6,0,-37
0,-2,-2,1,1,-2,3,20,-3,-8,-2,-38
-5,-7,-1,6,-2,-4,2,18,-4,-10,-3,-40
-12,-13,0,13,-7,-7,0,16,-5,-11,-4,-42
-17,-17,0,17,-9,-8,0,15,-6,-12,-5,-43
-13,-14,-1,14,-7,-7,0,15,-5,-12,-5,-43
-8,-11,-3,9,-3,-6,1,16,-4,-11,-5,-43
-7,-10,-3,8,-2,-6,2,16,-3,-11,-5,-43
-4,-6,-2,5,-1,-4,3,18,-1,-9,-4,-43
-1,-3,-1,3,0,-2,3,19,0,-8,-3,-43
-4,-7,-2,6,-1,-4,1,17,-1,-10,-4,-45
-8,-11,-2,10,-3,-7,-1,15,-2,-11,-6,-49
-8,-11,-2,10,-4,-6,-1,16,-1,-10,-6,-52
-5,-7,-2,6,-2,-4,-1,17,1,-9,-6,-57
-4,-7,-2,5,-1,-3,-1,18,1,-8,-6,-62
-6,-8,-2,7,-2,-4,-2,18,1,-9,-7,-67
-6,-8,-1,7,-2,-4,-2,18,1,-9,-6,-71
-5,-6,0,5,-2,-3,-2,19,1,-8,-5,-74
-2,-4,0,3,-1,-2,-2,20,1,-8,-3,-76
0,-1,0,1,0,-1,-1,21,2,-7,-2,-76
-1,-2,0,2,-1,-1,0,22,2,-7,-2,-77
-4,-5,0,5,-2,-2,0,22,1,-7,-3,-79
-5,-5,0,5,-3,-2,0,24,2,-7,-2,-79
-5,-4,0,4,-3,-1,1,26,3,-6,-2,-78
-6,-6,0,6,-3,-2,1,27,3,-6,-2,-79
-8,-7,0,7,-4,-3,1,27,3,-6,-3,-80
-6,-5,1,6,-4,-2,1,27,4,-5,-2,-79
-3,-1,2,2,-3,0,3,29,6,-3,0,-77
-2,1,4,0,-3,2,4,31,7,-1,2,-76
-4,0,4,1,-4,3,4,31,8,-1,3,-75
-5,0,5,2,-5,3,3,31,9,0,3,-76
-5,0,5,2,-5,3,3,31,9,0,4,-76
-6,0,6,3,-5,3,3,30,9,0,4,-76
-7,-1,7,4,-6,3,3,30,9,0,4,-76
-8,0,8,4,-7,4,3,30,9,1,5,-76
-7,0,9,3,-8,5,3,31,10,1,6,-75
-8,0,9,4,-9,5,3,31,10,1,6,-75
-10,-1,9,6,-10,4,3,30,9,1,6,-76
-11,-2,10,6,-10,4,2,29,9,0,6,-75
-8,2,10,3,-9,6,3,29,10,2,8,-73
-3,7,11,-1,-7,9,5,30,12,3,9,-71
-1,9,11,-4,-6,10,6,31,12,4,10,-70
0,11,11,-6,-5,11,6,31,12,4,10,-70
2,14,11,-8,-4,13,7,31,13,5,11,-69
2,14,12,-8,-5,13,6,31,13,5,12,-69
0,11,12,-6,-6,12,5,31,12,4,12,-69
0,11,12,-6,-6,12,5,30,11,3,12,-69
0,11,11,-6,-5,11,5,30,11,3,12,-68
-3,7,10,-2,-6,9,4,28,8,0,11,-69
-6,4,10,0,-8,7,3,26,6,-1,10,-69
-5,4,10,0,-8,8,3,25,6,-2,10,-69
-6,3,9,1,-8,7,2,24,4,-3,9,-69
-5,3,8,1,-7,6,0,22,4,-4,9,-69
-2,6,8,-3,-6,8,0,23,5,-3,10,-67
0,10,9,-6,-4,10,1,24,6,-3,12,-65
2,12,10,-8,-3,11,1,24,7,-2,13,-63
4,13,10,-9,-3,12,1,24,7,-2,13,-62
3,13,10,-8,-4,12,1,24,6,-2,13,-62
3,15,12,-9,-4,13,2,24,6,-2,14,-60
2,14,12,-8,-5,13,1,23,5,-2,13,-60
-1,10,11,-5,-6,10,0,21,3,-4,12,-61
-1,8,10,-4,-6,9,-2,19,2,-5,11,-61
2,11,9,-7,-3,10,-2,18,3,-5,11,-60
6,14,9,-10,-1,12,-1,18,4,-4,13,-59
7,16,10,-12,-2,13,0,18,5,-4,14,-58
5,15,10,-10,-3,12,-1,17,4,-4,13,-58
2,12,10,-7,-5,11,-2,16,3,-6,12,-59
0,10,10,-5,-5,10,-3,16,2,-7,11,-60
-1,9,10,-4,-5,10,-3,15,1,-8,11,-60
-1,9,9,-4,-5,9,-3,15,0,-8,11,-60
-1,8,9,-4,-4,9,-3,14,0,-9,11,-60
1,10,8,-5,-3,9,-2,13,0,-9,11,-60
4,12,8,-8,-2,10,-2,13,0,-9,11,-59
6,14,7,-10,-1,11,-1,13,0,-9,11,-58
3,10,7,-7,-2,9,-2,12,-1,-10,9,-59
-2,4,7,-1,-4,6,-3,10,-4,-13,6,-61
-3,4,7,0,-4,6,-2,9,-4,-13,6,-60
1,8,7,-4,-3,8,1,9,-3,-12,8,-58
5,12,7,-8,-1,10,3,9,-2,-11,9,-56
7,13,7,-10,0,10,3,9,-1,-12,10,-56
6,12,6,-9,0,9,3,8,-2,-13,9,-56
6,10,5,-8,0,8,2,7,-3,-14,8,-56
5,9,4,-7,0,6,2,6,-4,-15,7,-57
6,9,4,-7,0,6,2,6,-4,-15,7,-57
6,10,4,-8,0,7,2,6,-3,-14,8,-56
4,7,4,-6,0,6,2,4,-4,-15,7,-57
0,3,3,-2,-2,3,0,2,-6,-18,6,-59
0,2,2,-1,-2,2,0,1,-7,-19,5,-60
1,3,2,-2,-1,3,1,1,-7,-19,5,-60
-1,0,2,0,-3,1,1,0,-8,-19,4,-62
-5,-3,2,4,-5,0,0,0,-10,-20,2,-63
-6,-4,2,4,-5,0,0,0,-10,-19,1,-64
-3,-1,2,1,-3,0,1,0,-9,-17,2,-63
-2,0,2,1,-2,1,2,0,-8,-15,2,-63
-2,-1,1,2,-2,0,2,-1,-8,-15,1,-64
0,0,0,0,-1,1,3,-1,-8,-14,2,-64
2,2,0,-2,0,2,4,0,-7,-13,3,-63
6,6,1,-6,1,4,6,2,-6,-11,4,-62
10,10,1,-10,3,5,7,4,-5,-9,5,-61
10,9,0,-9,4,4,6,5,-5,-8,4,-61
7,5,-1,-6,4,2,5,4,-6,-9,2,-62
6,2,-2,-4,4,0,4,4,-7,-10,2,-63
3,-1,-3,-1,3,-1,4,2,-7,-10,1,-65
0,-5,-3,3,2,-4,3,0,-8,-12,0,-67
0,-6,-4,3,2,-5,2,-1,-8,-12,-1,-68
1,-5,-5,2,3,-5,2,-1,-8,-12,-1,-69
1,-5,-5,1,3,-5,3,-1,-8,-12,-2,-70
3,-2,-5,-1,4,-4,4,0,-7,-11,-1,-69
5,1,-3,-4,4,-1,7,3,-4,-8,0,-68
5,3,-1,-4,3,1,8,4,-3,-6,1,-67
3,2,0,-3,2,1,9,5,-2,-6,1,-67
4,4,0,-4,3,2,10,6,-1,-5,1,-67
5,5,1,-5,3,3,11,6,0,-5,2,-67
0,1,2,-1,0,2,10,6,0,-5,1,-68
-6,-4,3,4,-4,0,9,6,0,-4,0,-70
-8,-5,3,6,-6,-1,9,9,1,-2,0,-71
-8,-3,5,5,-7,1,11,13,5,2,2,-69
-7,0,6,3,-8,3,12,18,10,7,5,-67
-8,0,7,3,-8,4,13,22,14,12,8,-65
-8,0,8,3,-9,5,13,26,19,17,11,-63
-7,2,9,2,-8,6,13,30,24,22,16,-60
-6,4,10,1,-8,7,13,34,30,27,21,-55
-5,5,11,0,-8,8,13,37,36,33,27,-48
-2,9,12,-4,-6,10,11,40,40,40,34,-39
6,17,11,-12,-2,14,11,43,44,48,43,-27
13,23,10,-18,1,16,8,43,46,54,52,-15
17,25,8,-21,4,16,2,39,44,57,60,-5
26,30,5,-28,10,18,-3,32,40,59,67,7
38,38,1,-39,18,20,-9,25,32,59,75,21
46,42,-3,-44,24,20,-16,15,19,56,81,35
50,42,-7,-46,29,18,-24,3,3,51,86,48
55,43,-11,-49,33,16,-31,-13,-14,44,89,59
57,42,-15,-50,36,13,-39,-33,-36,32,87,67
59,39,-20,-49,38,10,-45,-56,-61,14,79,67
60,37,-24,-48,41,6,-50,-79,-88,-9,64,59
55,31,-25,-43,40,3,-54,-105,-116,-38,43,42
41,19,-22,-31,32,-1,-57,-136,-145,-72,13,15
27,6,-21,-17,24,-7,-57,-166,-173,-109,-22,-20
19,-5,-24,-7,21,-14,-55,-183,-194,-140,-55,-55
13,-17,-31,1,22,-24,-54,-189,-207,-162,-83,-85
10,-30,-40,10,24,-35,-54,-187,-214,-177,-104,-110
13,-36,-49,11,30,-42,-53,-177,-212,-181,-116,-126
19,-36,-55,8,36,-45,-49,-164,-204,-178,-120,-133
22,-35,-57,7,39,-46,-44,-149,-191,-170,-119,-135
19,-36,-54,8,36,-45,-39,-134,-176,-159,-114,-133
13,-36,-49,11,31,-42,-33,-119,-159,-145,-107,-129
9,-33,-42,12,25,-37,-27,-104,-140,-129,-98,-122
7,-28,-35,10,21,-31,-20,-90,-122,-113,-87,-113
2,-26,-28,11,15,-27,-15,-79,-106,-98,-77,-107
-3,-25,-22,14,8,-23,-11,-70,-93,-85,-69,-101
-7,-23,-17,15,4,-20,-8,-61,-80,-73,-61,-96
-11,-24,-13,18,0,-19,-5,-54,-70,-64,-54,-93
-17,-27,-10,22,-4,-18,-3,-47,-61,-56,-48,-91
-20,-27,-7,23,-6,-17,-1,-41,-53,-49,-43,-88
-19,-24,-5,20,-7,-14,1,-34,-45,-42,-37,-85
-13,-17,-4,14,-4,-10,4,-26,-37,-34,-30,-79
-6,-9,-3,7,-2,-6,7,-20,-29,-26,-24,-74
-6,-7,-2,6,-3,-4,8,-16,-25,-21,-19,-70
-8,-8,-1,8,-4,-4,7,-13,-21,-17,-16,-68
-9,-9,0,9,-5,-4,6,-11,-19,-15,-14,-66
-8,-9,0,9,-4,-4,6,-9,-17,-12,-12,-65
-6,-8,-1,7,-2,-4,5,-8,-14,-11,-11,-64
-5,-9,-2,7,-1,-4,4,-7,-13,-10,-10,-63
-6,-10,-2,8,-2,-5,3,-7,-12,-9,-9,-62
-8,-10,-1,9,-3,-5,3,-6,-11,-8,-8,-60
-8,-9,0,9,-4,-4,2,-6,-10,-7,-7,-59
-6,-6,0,6,-3,-3,2,-5,-9,-5,-6,-57
-4,-6,-1,5,-2,-4,1,-6,-9,-5,-6,-57
-4,-7,-2,5,-1,-5,0,-6,-10,-6,-6,-57
-5,-8,-2,6,-1,-5,0,-5,-9,-6,-6,-57
-7,-11,-2,9,-2,-7,-1,-5,-10,-7,-7,-57
-8,-11,-2,9,-2,-7,-1,-4,-10,-7,-7,-57
-6,-9,-2,7,-2,-5,0,-2,-8,-6,-6,-56
-6,-8,-1,7,-3,-5,0,-1,-8,-6,-6,-56
-6,-7,-1,7,-3,-5,0,-1,-8,-6,-6,-56
-7,-7,-1,7,-3,-5,0,-2,-7,-6,-6,-55
-10,-10,0,10,-5,-5,-1,-2,-7,-7,-6,-55
-13,-12,1,12,-7,-5,-1,-3,-7,-7,-7,-55
-14,-12,1,13,-7,-5,0,-3,-7,-7,-7,-55
-14,-13,2,13,-7,-5,0,-4,-7,-7,-7,-55
-14,-12,2,13,-8,-5,0,-4,-7,-7,-7,-54
-12,-11,1,12,-7,-4,0,-5,-7,-7,-7,-53
-10,-9,1,10,-6,-3,0,-5,-6,-6,-6,-52
-8,-5,2,7,-5,-1,1,-4,-5,-4,-5,-50
-5,-1,2,3,-4,0,2,-4,-3,-2,-3,-49
-4,0,3,2,-4,1,3,-4,-2,-1,-3,-48
-3,1,3,0,-3,2,4,-3,-2,-1,-2,-47
0,3,3,-2,-1,3,5,-2,0,0,-1,-46
4,6,4,-5,0,5,6,-1,1,1,0,-44
3,6,4,-4,-1,5,5,-1,1,1,0,-44
-2,2,4,0,-4,3,4,-2,1,0,-1,-44
-7,-2,4,4,-6,1,3,-3,1,-1,-3,-44
-11,-5,4,8,-8,0,2,-3,0,-2,-4,-45
-12,-6,5,9,-9,0,2,-2,0,-2,-4,-44
-9,-2,5,5,-7,1,4,0,2,0,-4,-43
-5,0,5,1,-4,2,4,1,2,1,-3,-42
-4,0,4,1,-4,2,4,2,2,0,-3,-42
-4,0,5,1,-4,2,4,3,2,0,-3,-41
-3,1,5,1,-4,2,4,4,2,1,-3,-40
-1,3,5,-1,-3,3,4,5,3,2,-2,-39
0,4,4,-1,-3,3,5,6,4,3,-2,-39
-2,3,4,0,-3,3,4,5,4,3,-2,-39
-6,-1,5,3,-5,1,3,4,3,2,-3,-39
-9,-4,5,7,-7,0,2,3,3,2,-4,-39
-11,-6,6,9,-8,0,2,3,3,2,-4,-39
-13,-6,7,10,-9,0,1,2,3,2,-5,-39
-10,-3,7,6,-8,1,2,3,5,4,-4,-37
-4,2,7,1,-5,4,4,4,7,7,-2,-36
-3,4,7,0,-5,5,4,4,8,8,-1,-36
-7,2,8,3,-8,4,4,3,7,8,-2,-37
-12,-2,8,7,-10,3,3,1,6,8,-3,-39
-13,-3,9,8,-11,3,3,1,7,8,-3,-40
-9,1,9,4,-9,6,4,3,9,10,-1,-38
-4,4,9,0,-7,7,5,4,10,11,0,-37
-5,3,9,1,-7,6,4,4,10,11,-1,-38
-7,1,9,3,-9,5,3,3,9,11,-1,-38
-8,1,9,4,-9,5,3,2,10,12,-1,-38
-8,1,9,4,-9,5,3,2,10,12,0,-38
-10,0,9,5,-10,5,2,2,10,13,0,-38
-9,1,9,4,-9,5,3,2,11,13,0,-37
-5,4,9,0,-7,7,4,4,13,14,2,-35
-1,7,8,-3,-4,8,5,5,14,15,3,-34
-1,6,8,-3,-4,7,5,5,14,15,3,-34
-4,3,9,0,-7,6,4,4,14,15,3,-34
-7,1,10,2,-9,5,4,4,14,15,3,-34
-4,5,10,0,-7,7,5,4,15,17,5,-33
0,10,9,-5,-5,10,6,5,16,19,6,-31
2,12,9,-7,-4,11,6,6,17,20,7,-29
0,11,10,-6,-4,11,5,6,17,20,8,-29
-4,6,10,-1,-7,9,3,4,15,19,7,-31
-7,3,10,2,-8,7,2,3,14,18,6,-31
-6,3,10,1,-8,6,2,3,13,18,7,-31
-5,3,9,1,-7,6,2,2,12,17,7,-30
-4,4,9,0,-6,6,2,1,12,17,7,-29
-3,6,9,-1,-6,6,2,1,11,18,7,-28
-4,5,8,0,-6,6,1,0,10,17,6,-28
-4,4,8,0,-6,6,1,0,9,17,6,-28
-2,5,7,-1,-5,7,1,1,9,17,7,-28
-3,5,8,-1,-5,7,1,2,9,17,7,-28
-6,3,10,1,-8,7,1,2,9,17,7,-28
-8,2,11,3,-10,6,1,2,9,16,7,-28
-7,3,10,2,-9,6,1,2,8,16,7,-29
-2,6,8,-2,-5,7,1,2,9,16,8,-29
0,8,7,-4,-3,7,1,2,9,16,8,-29
-2,6,7,-2,-4,7,0,1,8,15,8,-30
-3,4,7,0,-5,6,0,1,8,15,7,-31
-3,3,6,0,-5,6,0,1,8,15,7,-32
-3,3,6,0,-4,5,0,2,7,15,7,-32
-4,0,6,2,-5,3,-1,1,5,13,6,-34
-9,-5,5,7,-7,0,-3,-1,1,10,3,-37
-9,-6,3,8,-6,-2,-4,-2,0,9,2,-38
-1,1,2,0,-1,1,-1,0,2,11,4,-37
7,8,1,-8,3,4,1,2,5,14,7,-35
10,10,0,-10,5,5,1,3,6,16,8,-34
10,9,0,-9,5,4,1,3,5,15,8,-35
9,8,0,-8,4,4,1,2,4,14,7,-35
6,6,0,-6,3,3,1,1,3,13,5,-35
3,4,1,-3,1,3,1,0,1,12,4,-36
1,3,2,-2,0,2,1,-1,0,11,3,-36
0,3,3,-1,-1,3,1,-2,0,10,2,-37
1,5,4,-3,-2,4,2,-2,0,10,3,-37
2,7,5,-4,-2,5,3,-3,0,10,3,-37
1,6,4,-3,-2,4,2,-5,0,9,2,-38
0,2,3,0,-2,2,0,-9,-2,8,1,-39
-2,0,3,1,-3,1,0,-11,-3,7,0,-39
0,1,2,0,-1,2,0,-11,-3,7,0,-39
4,5,1,-4,0,3,1,-10,-3,8,0,-38
6,6,0,-6,2,3,1,-9,-3,8,1,-39
6,6,0,-6,2,2,1,-10,-4,8,1,-40
4,4,0,-4,1,1,0,-10,-4,7,1,-42
2,2,0,-2,0,1,0,-11,-5,6,0,-43
2,2,0,-2,0,1,0,-12,-5,5,0,-43
2,1,0,-2,0,1,0,-12,-6,4,0,-43
1,0,0,-1,0,1,0,-12,-7,4,0,-43
1,0,0,-1,0,0,0,-13,-8,3,0,-43
1,0,-1,-1,0,0,0,-14,-9,3,-1,-44
0,0,-1,0,0,-1,0,-14,-10,2,-2,-46
0,-1,-2,0,1,-2,0,-12,-11,1,-2,-47
3,1,-2,-2,3,-1,0,-7,-10,2,-2,-47
7,5,-2,-6,5,0,3,-2,-9,4,-1,-46
7,4,-2,-6,5,0,4,1,-8,4,-1,-46
3,0,-2,-2,3,-1,3,2,-10,2,-2,-48
-1,-4,-2,3,0,-3,1,2,-12,1,-4,-50
-5,-7,-2,6,-1,-5,0,1,-13,0,-5,-51
-5,-6,-2,6,-1,-4,0,1,-14,0,-5,-52
-3,-4,-2,4,-1,-3,1,2,-14,0,-4,-52
-2,-3,-2,2,-1,-2,2,3,-14,0,-4,-52
-2,-4,-2,3,-1,-3,2,3,-15,-1,-4,-52
-4,-7,-2,6,-1,-4,1,3,-16,-3,-4,-53
-4,-8,-3,6,0,-5,1,3,-17,-4,-5,-53
-2,-7,-3,5,1,-5,1,4,-17,-4,-5,-52
-2,-7,-4,4,2,-5,1,5,-17,-4,-5,-51
-3,-8,-4,5,1,-6,1,5,-17,-4,-5,-52
-2,-7,-5,4,2,-6,2,5,-17,-4,-5,-52
0,-5,-5,2,2,-5,3,6,-16,-3,-5,-51
0,-5,-5,2,2,-5,3,6,-15,-3,-5,-51
-1,-7,-5,4,2,-6,3,5,-15,-3,-5,-51
0,-5,-5,2,2,-5,4,5,-14,-1,-4,-49
3,0,-3,-1,4,-2,5,6,-12,1,-2,-47
2,-1,-3,-1,3,-1,5,6,-13,0,-3,-46
0,-4,-3,2,1,-3,4,5,-15,-1,-5,-47
-3,-6,-3,4,0,-5,3,3,-18,-3,-7,-49
-7,-11,-4,8,-1,-7,2,1,-20,-5,-8,-50
-11,-14,-3,12,-4,-9,2,0,-21,-6,-9,-52
-11,-14,-3,12,-4,-8,3,1,-20,-5,-9,-52
-7,-11,-4,9,-2,-7,4,1,-19,-4,-9,-51
0,-5,-5,3,2,-5,5,2,-18,-3,-8,-49
2,-3,-6,1,4,-4,5,3,-18,-3,-8,-49
-1,-6,-5,4,2,-5,3,1,-19,-4,-9,-50
-2,-8,-5,5,1,-6,2,0,-19,-4,-9,-51
-1,-7,-6,4,2,-6,1,-1,-19,-3,-9,-51
0,-7,-7,4,3,-6,0,-1,-19,-3,-10,-52
0,-7,-6,4,3,-6,0,-1,-19,-4,-11,-52
0,-7,-6,4,2,-6,-1,-2,-19,-4,-12,-52
-2,-8,-5,5,1,-6,-2,-3,-19,-4,-12,-51
0,-5,-4,3,2,-4,-2,-2,-18,-3,-11,-50
3,-1,-4,-1,3,-2,-2,0,-17,-1,-9,-48
6,1,-4,-3,5,-1,-2,1,-16,0,-8,-47
5,1,-4,-3,5,-2,-3,2,-16,0,-8,-47
1,-3,-4,1,2,-4,-3,2,-16,0,-8,-48
-4,-8,-3,6,0,-5,-4,2,-16,1,-8,-49
-6,-9,-2,8,-1,-6,-4,3,-15,1,-7,-49
-4,-7,-2,6,-1,-5,-4,3,-14,1,-7,-50
0,-2,-2,2,1,-3,-3,4,-14,1,-7,-49
1,0,-1,0,1,-1,-3,4,-13,1,-6,-49
-3,-2,0,3,-2,-2,-3,4,-12,1,-7,-50
-6,-5,1,6,-4,-2,-3,4,-12,0,-8,-51
-5,-3,1,5,-3,-1,-2,5,-11,0,-8,-51
-2,0,1,2,-1,0,0,6,-9,1,-7,-50
0,0,1,0,0,0,1,7,-8,1,-6,-50
-1,-1,0,1,0,-1,0,7,-8,0,-7,-51
-4,-5,0,4,-1,-3,0,6,-9,0,-8,-52
-6,-7,0,6,-2,-4,-2,4,-9,0,-8,-53
-7,-6,0,7,-3,-4,-3,3,-7,2,-6,-52
-3,-1,1,2,-2,-1,-1,3,-4,5,-3,-51
1,4,2,-2,0,2,0,4,-2,7,0,-49
0,4,2,-1,-1,3,1,3,-2,6,0,-50
-2,2,3,0,-2,2,1,2,-3,4,-1,-52
0,3,3,-1,-2,3,1,2,-2,4,-1,-52
-1,2,4,0,-2,3,1,2,-2,5,-2,-53
-5,-1,4,4,-4,1,0,1,-3,4,-4,-55
-5,-1,4,3,-5,1,0,1,-3,4,-4,-56
-1,4,4,-1,-3,3,2,3,-1,6,-2,-55
0,5,4,-2,-3,5,3,3,0,7,-1,-54
-2,4,5,-1,-4,5,3,4,0,8,0,-54
-1,5,5,-1,-4,6,4,5,2,10,1,-52
0,6,6,-2,-4,7,5,6,3,11,2,-52
-1,5,7,-2,-4,7,5,7,3,10,2,-52
-1,5,7,-1,-4,7,4,7,3,10,2,-53
0,6,7,-2,-3,7,4,7,3,11,2,-53
2,8,7,-4,-2,8,4,9,4,12,3,-53
2,9,6,-5,-2,8,4,10,4,12,4,-54
1,8,6,-4,-2,7,3,11,3,12,3,-56
0,6,5,-3,-2,6,2,12,2,10,2,-58
2,6,4,-3,-1,5,2,13,2,10,2,-58
5,8,4,-6,1,6,2,15,3,11,3,-58
6,9,4,-7,1,6,2,16,4,11,3,-57
4,7,4,-5,0,5,1,16,2,10,2,-58
0,4,4,-2,-2,4,0,15,1,9,2,-59
-2,2,4,0,-3,3,0,15,1,9,2,-60
-2,2,4,0,-3,3,0,15,1,10,3,-61
-1,3,4,-1,-3,4,0,15,2,10,3,-61
1,5,4,-3,-2,5,1,14,5,10,4,-61
3,7,5,-5,-1,6,2,14,10,10,5,-62
1,6,6,-3,-2,6,1,14,15,9,4,-63
0,5,6,-2,-3,5,0,12,19,8,4,-65
0,5,6,-2,-3,5,0,12,24,9,5,-65
1,7,5,-3,-2,6,1,11,28,10,6,-66
0,5,5,-2,-3,5,2,10,30,10,7,-67
-2,4,5,0,-4,4,2,10,32,10,7,-69
0,6,6,-3,-3,6,4,11,35,11,9,-69
2,8,6,-5,-2,7,5,12,38,14,10,-69
0,7,7,-3,-3,7,6,13,42,15,10,-69
-3,6,10,-2,-6,8,7,15,45,17,10,-70
-5,7,13,-1,-8,10,8,17,50,20,11,-70
-7,7,15,0,-10,11,8,19,54,24,13,-70
-8,7,16,0,-12,11,9,21,58,27,15,-70
-4,11,16,-3,-10,14,11,24,63,33,19,-68
0,17,17,-9,-9,18,13,29,69,39,25,-64
-1,17,19,-8,-11,19,13,32,73,43,28,-62
-3,16,20,-6,-12,18,13,35,76,45,30,-60
-3,16,19,-6,-11,18,13,40,80,47,32,-58
-2,15,17,-6,-9,17,12,45,84,49,35,-55
3,18,15,-11,-5,17,12,51,88,54,41,-48
11,23,12,-17,0,17,11,58,92,59,47,-39
15,23,8,-19,4,16,8,61,93,62,53,-30
21,24,3,-22,9,14,3,63,93,65,59,-21
30,28,-2,-29,16,13,-1,64,93,69,66,-10
40,32,-7,-36,23,12,-6,63,91,72,73,2
50,37,-12,-43,31,12,-12,59,88,74,82,16
62,43,-19,-52,40,12,-18,54,82,76,90,32
73,49,-24,-60,48,12,-26,44,74,76,97,46
81,53,-28,-66,54,12,-32,29,62,72,100,56
86,54,-32,-70,59,11,-38,9,45,60,95,57
87,51,-37,-69,62,7,-42,-14,21,41,81,47
82,44,-38,-63,59,3,-44,-40,-4,15,60,27
68,33,-35,-51,51,-1,-41,-71,-32,-15,32,-3
51,19,-32,-35,41,-6,-37,-103,-60,-48,0,-39
38,5,-33,-22,35,-13,-36,-131,-87,-81,-32,-76
32,-5,-38,-14,35,-21,-35,-150,-110,-109,-60,-109
31,-14,-45,-8,38,-30,-33,-158,-125,-129,-82,-135
26,-25,-52,0,39,-39,-33,-160,-135,-142,-96,-154
19,-36,-54,8,36,-45,-34,-158,-137,-146,-104,-165
15,-37,-52,11,33,-45,-32,-151,-131,-142,-103,-167
14,-33,-47,9,30,-40,-28,-139,-120,-134,-98,-165
12,-28,-39,8,25,-34,-23,-125,-106,-123,-92,-161
6,-27,-33,10,19,-29,-19,-111,-91,-112,-86,-157
0,-28,-27,15,13,-27,-15,-96,-76,-99,-79,-153
-5,-28,-22,17,8,-25,-10,-82,-62,-87,-71,-148
-7,-26,-18,17,5,-22,-5,-69,-50,-76,-64,-145
-12,-27,-14,20,1,-21,-1,-59,-40,-68,-59,-142
-17,-30,-12,24,-3,-21,1,-50,-32,-60,-53,-140
-21,-31,-10,26,-6,-20,3,-43,-23,-52,-48,-137
-23,-31,-8,27,-7,-19,5,-36,-14,-44,-43,-135
-20,-27,-7,24,-7,-16,7,-29,-5,-36,-37,-131
-15,-20,-5,18,-5,-12,11,-22,3,-28,-31,-127
-11,-15,-5,14,-3,-10,13,-15,9,-22,-26,-124
-8,-12,-4,11,-2,-8,15,-10,15,-16,-20,-121
-6,-9,-2,8,-2,-6,17,-6,20,-9,-15,-118
-6,-8,-1,8,-2,-5,17,-4,24,-4,-10,-116
-7,-7,0,8,-4,-4,16,-2,27,-1,-7,-115
-7,-5,1,6,-4,-2,17,2,30,1,-5,-114
-5,-3,1,4,-3,-1,18,6,33,4,-2,-113
-4,-3,0,3,-2,-1,18,10,35,5,-2,-114
-4,-3,0,4,-2,-2,18,12,35,5,-2,-115
-4,-4,0,4,-2,-2,18,15,35,6,-2,-116
-7,-6,1,7,-4,-2,19,16,35,6,-1,-117
-10,-8,2,9,-6,-3,19,17,34,6,-1,-118
-9,-8,1,9,-5,-3,19,18,34,6,-1,-119
-6,-7,0,6,-3,-3,20,19,35,7,0,-119
-5,-8,-2,6,-1,-4,19,20,35,8,0,-121
-9,-11,-2,9,-3,-6,17,20,33,6,-2,-123
-11,-12,-1,12,-5,-7,17,20,32,5,-3,-125
-11,-11,0,11,-6,-5,17,22,33,6,-2,-126
-11,-9,2,11,-6,-3,17,23,34,7,-1,-126
-10,-9,2,11,-6,-3,16,23,33,6,-1,-128
-9,-7,2,9,-5,-3,17,24,32,5,-1,-128
-5,-4,2,5,-3,-1,19,26,33,6,0,-127
-4,-3,2,4,-2,-1,19,26,34,7,0,-128
-6,-5,1,6,-3,-2,19,25,34,7,0,-130
-6,-7,0,7,-3,-3,19,24,33,6,-2,-131
-5,-7,-2,6,-1,-4,18,22,32,5,-3,-132
-6,-9,-3,8,-1,-5,17,21,32,5,-3,-133
-7,-9,-2,8,-2,-5,17,19,32,6,-2,-132
-7,-8,-1,8,-2,-4,16,17,32,6,-1,-132
-8,-9,-1,9,-3,-5,16,16,32,6,-1,-132
-6,-8,-1,8,-2,-5,16,15,33,7,0,-131
-4,-7,-3,6,0,-5,16,15,33,8,0,-131
-2,-6,-3,4,0,-5,17,15,32,6,0,-130
-2,-5,-3,4,1,-5,18,15,31,5,0,-129
-4,-7,-2,6,0,-5,17,14,31,5,-1,-129
-11,-14,-2,13,-4,-8,14,11,29,3,-2,-130
-18,-19,-1,19,-8,-10,12,9,27,2,-4,-130
-16,-17,0,17,-8,-8,13,11,27,2,-3,-127
-11,-12,-1,11,-5,-6,15,13,28,3,-2,-125
-9,-11,-1,10,-4,-6,16,13,28,3,-2,-124
-11,-13,-1,12,-4,-7,16,12,27,2,-3,-123
-13,-16,-2,14,-5,-9,14,10,26,2,-4,-123
-14,-18,-3,16,-5,-10,12,10,26,2,-5,-121
-14,-17,-2,16,-6,-9,11,10,27,3,-4,-119
-11,-14,-2,13,-5,-7,10,10,28,5,-2,-116
-5,-8,-2,7,-2,-4,10,10,29,6,0,-113
0,-2,-2,1,1,-1,10,11,30,7,1,-111
2,0,-2,-1,2,-1,10,11,30,6,0,-110
3,0,-2,-1,2,-1,10,11,30,6,0,-109
3,-1,-3,-1,3,-2,10,12,30,7,0,-107
3,-1,-2,-1,3,-2,10,13,32,9,1,-104
2,0,-1,0,2,-1,10,14,33,11,3,-100
1,0,-1,0,2,-1,10,15,33,11,3,-98
0,-3,-2,2,1,-2,10,15,32,9,2,-97
-2,-5,-3,4,0,-4,9,15,31,8,2,-96
-4,-6,-2,5,-1,-4,8,15,30,8,2,-94
-8,-9,0,9,-4,-4,7,14,30,8,2,-93
-11,-10,1,11,-7,-4,7,14,31,8,3,-91
-8,-9,0,9,-5,-4,8,16,32,8,3,-88
-5,-7,-1,7,-2,-4,10,17,32,8,3,-86
-4,-7,-1,6,-1,-4,10,17,33,9,2,-85
-5,-6,-1,6,-2,-4,11,18,34,11,2,-83
-1,-1,0,2,0,-1,12,20,37,14,5,-79
4,4,0,-3,1,2,13,22,39,15,7,-75
0,1,1,0,-1,1,11,22,38,13,6,-74
-8,-5,2,7,-6,-1,8,22,37,12,5,-73
-9,-5,3,7,-7,-1,8,22,39,14,6,-71
-5,-1,4,3,-5,1,10,24,43,18,9,-66
-4,1,5,1,-4,3,10,25,45,20,11,-63
-5,0,5,3,-5,2,10,25,44,19,10,-62
-5,0,5,3,-5,2,9,25,43,17,10,-60
-4,2,6,1,-4,4,9,26,44,17,11,-58
-2,4,6,-1,-4,5,9,27,44,18,11,-54
-3,4,7,-1,-5,6,9,28,45,19,12,-50
-3,5,8,-1,-5,6,9,29,45,19,12,-46
-4,4,9,0,-6,6,9,30,44,19,12,-41
-4,2,8,1,-6,5,9,30,44,19,11,-36
-3,2,7,0,-5,5,8,30,44,20,12,-29
-2,4,7,-1,-5,5,8,31,45,22,13,-21
-2,4,7,-1,-5,5,8,31,44,22,14,-13
-1,4,6,-1,-4,5,7,32,43,22,14,-5
1,8,6,-5,-3,7,8,35,44,23,16,3
5,13,7,-9,-1,10,8,37,46,24,18,12
7,15,7,-10,0,11,8,38,46,25,19,20
7,15,7,-10,0,11,8,38,46,26,20,25
4,12,8,-7,-2,10,7,37,45,25,20,29
-2,6,9,-1,-6,8,6,35,42,22,19,30
-6,2,10,2,-8,6,4,34,39,19,17,31
-8,2,11,3,-9,6,4,33,38,18,17,33
-5,6,12,0,-9,9,4,34,39,19,17,37
0,11,11,-5,-6,11,5,35,40,20,18,40
2,12,9,-6,-4,10,3,35,40,21,17,42
4,14,9,-8,-3,11,3,35,41,22,18,44
6,17,11,-11,-2,14,4,35,43,24,19,45
5,16,11,-10,-2,14,5,35,42,23,19,44
5,14,10,-10,-2,12,5,34,40,21,18,42
6,14,8,-11,0,11,5,33,39,20,17,42
7,14,7,-11,0,11,5,32,38,19,16,43
8,15,6,-12,1,11,5,31,38,19,16,45
10,17,7,-14,1,13,5,31,38,19,16,47
9,18,8,-13,0,13,6,31,38,19,17,49
5,14,9,-9,-2,12,5,30,37,19,17,49
0,9,10,-4,-4,9,4,27,36,19,17,49
-2,7,9,-1,-5,8,3,26,35,18,17,49
-3,7,10,-1,-6,8,3,25,34,17,17,50
-4,7,11,-1,-7,9,2,24,33,16,16,49
-5,6,10,0,-8,8,2,23,32,16,16,49
-2,8,9,-3,-6,8,2,23,33,16,15,50
1,10,8,-6,-4,9,2,25,34,17,16,50
1,10,9,-5,-4,9,3,25,34,18,16,49
0,9,9,-5,-4,9,3,25,33,17,15,47
4,11,8,-7,-2,10,3,25,33,17,16,45
8,14,7,-11,0,11,4,26,34,17,17,45
8,13,6,-11,1,10,4,26,32,16,16,45
6,10,5,-9,1,8,4,26,31,15,15,45
5,9,4,-7,0,6,3,25,30,15,14,46
4,8,4,-6,0,5,3,24,30,15,14,47
3,7,4,-4,-1,5,2,23,29,15,15,47
3,7,4,-4,-1,5,2,22,29,14,14,48
4,8,4,-5,0,6,1,22,29,13,14,49
3,7,4,-5,0,5,1,21,29,13,13,49
3,6,3,-4,0,4,1,20,28,12,13,49
4,6,2,-5,1,4,1,19,28,12,13,49
7,9,3,-8,1,6,2,19,28,13,14,50
6,9,3,-8,1,6,3,18,27,12,13,49
4,7,3,-5,0,5,3,17,25,9,12,47
4,7,3,-6,1,5,4,17,26,9,12,45
5,7,3,-6,2,5,5,17,27,11,12,43
5,6,2,-5,2,4,5,17,27,12,13,42
7,7,1,-7,3,4,6,17,27,13,14,43
7,7,1,-7,3,3,6,18,27,13,14,43
5,4,0,-5,2,2,5,19,25,11,12,42
3,2,0,-3,1,1,5,19,24,10,11,41
3,3,0,-4,2,1,4,20,23,10,11,41
6,5,-1,-6,4,2,5,22,23,9,10,41
7,5,-1,-6,5,2,6,23,23,8,9,41
5,2,-2,-3,4,0,5,24,21,7,7,40
4,0,-3,-2,4,-2,5,23,20,7,6,40
7,1,-4,-4,6,-2,6,23,21,8,5,40
5,-1,-5,-2,5,-3,6,21,20,7,4,39
1,-5,-5,1,3,-5,5,18,17,4,1,37
2,-4,-5,0,3,-4,5,18,17,3,1,36
2,-3,-4,0,3,-3,5,18,18,4,3,36
0,-3,-2,1,1,-2,5,18,18,5,3,34
0,-2,0,1,0,-1,5,18,18,4,3,32
-3,-3,1,3,-1,-1,5,17,17,3,3,30
-6,-5,2,5,-3,-2,6,17,16,2,2,30
-5,-5,1,5,-3,-2,7,18,17,3,3,30
-4,-5,0,4,-2,-2,7,19,17,3,4,31
-6,-7,0,6,-3,-3,7,19,17,4,4,31
-6,-5,1,5,-3,-2,7,19,17,5,5,32
-1,0,2,1,-1,1,8,21,18,6,7,34
1,3,2,-2,0,3,9,22,19,6,6,35
2,2,1,-1,0,2,9,22,19,6,6,35
1,1,0,0,0,1,9,21,19,6,5,35
1,-1,-1,0,1,-1,9,21,18,6,5,35
1,-3,-3,1,2,-3,9,21,17,5,4,33
0,-5,-4,2,2,-4,8,21,16,4,3,32
0,-5,-4,2,2,-4,8,21,14,2,2,30
1,-4,-5,1,2,-4,8,21,13,1,0,29
0,-5,-5,2,2,-5,7,21,13,0,0,28
-2,-6,-4,4,1,-5,7,20,13,1,0,27
-2,-5,-3,4,1,-4,7,21,13,1,1,25
0,-3,-3,1,2,-3,8,22,12,1,1,25
3,-1,-4,0,4,-3,8,23,12,1,1,25
5,0,-4,-3,5,-2,9,23,12,1,2,25
5,0,-4,-2,4,-2,10,23,12,1,2,26
0,-4,-4,2,2,-4,8,21,11,1,2,25
-4,-9,-5,6,0,-6,7,20,10,0,0,24
-4,-10,-5,7,0,-7,6,19,10,0,-1,24
-3,-8,-5,6,1,-6,7,20,10,1,0,26
-2,-6,-4,4,1,-5,7,21,10,1,0,27
-3,-6,-3,4,1,-5,7,21,10,1,1,28
-4,-6,-2,5,0,-4,8,20,10,1,2,28
-5,-6,0,5,-2,-4,8,19,10,2,2,28
-6,-6,0,6,-3,-3,8,18,10,2,3,28
-6,-6,0,6,-3,-3,8,16,10,2,3,27
-4,-6,-2,5,0,-4,8,14,10,2,3,27
0,-5,-4,3,2,-4,8,13,9,2,2,26
0,-6,-5,4,3,-5,7,12,8,1,1,23
-2,-9,-5,6,2,-7,7,10,6,-1,0,19
-4,-10,-6,7,1,-8,6,8,5,-2,-2,17
-4,-11,-6,8,1,-8,7,8,4,-3,-3,16
-3,-10,-6,7,1,-8,8,8,4,-2,-2,16
0,-6,-6,3,3,-6,9,10,6,0,0,18
3,-3,-6,0,4,-5,11,11,7,1,1,21
5,-1,-6,-2,5,-3,11,12,8,2,2,23
5,0,-5,-3,5,-2,12,12,8,2,3,25
4,0,-4,-2,4,-2,11,11,7,2,3,25
3,-1,-3,-1,3,-2,11,10,7,2,4,25
3,0,-3,-1,3,-2,10,10,8,2,4,25
4,0,-4,-2,4,-2,9,10,8,1,4,24
2,-2,-4,0,3,-3,8,10,7,0,3,23
-1,-4,-3,2,1,-4,7,11,5,-1,2,22
-2,-5,-3,3,0,-4,6,12,5,-1,2,22
-2,-7,-5,5,1,-6,5,12,4,-1,1,21
-5,-10,-5,8,0,-7,3,11,3,-2,0,19
-9,-14,-5,12,-2,-9,1,9,1,-3,0,16
-12,-17,-4,15,-4,-10,0,8,0,-5,-1,13
-12,-17,-4,15,-4,-10,-1,8,-1,-5,-1,11
-7,-12,-4,10,-1,-8,0,10,1,-3,0,13
-3,-7,-3,5,0,-5,2,12,2,-1,2,14
-3,-6,-3,5,0,-4,2,13,3,-1,3,15
-2,-5,-3,4,0,-4,2,14,3,0,3,17
3,0,-3,-1,3,-2,3,16,5,1,5,19
6,2,-3,-4,5,0,4,18,6,2,6,20
5,0,-3,-2,5,-1,4,19,5,2,5,19
2,-2,-3,0,4,-3,2,18,4,1,4,18
2,-2,-4,0,4,-3,2,18,4,0,4,17
2,-3,-4,0,3,-4,2,17,3,0,3,16
1,-4,-4,1,3,-4,2,17,3,0,3,16
0,-4,-4,2,2,-4,3,17,4,0,4,17
0,-4,-3,2,2,-3,3,18,4,1,4,17
-1,-4,-3,2,1,-3,3,18,4,1,4,17
-2,-4,-2,3,0,-2,3,19,4,1,5,17
-2,-3,0,2,0,-1,4,19,4,1,5,16
0,-1,0,1,0,0,4,19,4,1,6,14
0,1,1,0,0,1,5,20,5,2,6,14
0,2,2,-1,-1,2,5,20,5,3,7,15
-4,-1,3,3,-3,0,4,19,4,3,6,15
-10,-7,3,9,-7,-2,3,17,3,3,4,15
-13,-9,3,11,-8,-3,2,16,3,4,4,16
-8,-6,3,7,-5,-2,3,16,5,6,6,18
-2,0,3,1,-2,0,4,16,7,9,8,22
2,4,3,-4,0,3,6,17,8,11,9,25
5,6,3,-6,1,4,6,17,9,12,10,26
1,3,3,-2,-1,3,6,16,8,11,9,25
-5,-1,4,3,-5,1,4,15,6,10,7,25
-6,-2,4,4,-6,1,4,16,6,11,7,26
-2,2,4,0,-3,3,4,18,8,13,9,28
1,5,4,-3,0,4,5,20,9,14,10,30
1,5,4,-3,0,4,4,21,9,15,9,30
-1,2,4,-1,-2,3,3,20,7,13,8,28
-4,-1,4,2,-4,1,1,19,6,12,6,26
-5,-2,4,3,-4,1,1,19,5,12,5,25
-3,0,3,1,-3,2,2,20,5,13,6,24
1,4,3,-2,-1,4,3,21,7,14,8,25
1,4,3,-3,-1,4,3,21,8,15,8,26
-3,0,3,1,-2,1,2,19,7,14,7,25
-3,-1,2,2,-2,0,1,19,6,14,7,24
0,2,2,-1,0,2,2,20,7,15,8,26
2,4,3,-3,0,3,2,21,8,16,9,27
0,3,4,-1,-2,3,2,20,7,15,8,27
-2,2,4,0,-4,3,1,20,6,14,8,27
-2,2,5,0,-4,4,1,21,7,15,9,27
-1,4,5,-1,-3,5,2,22,8,16,10,27
0,5,5,-2,-2,5,2,23,8,16,10,28
-2,4,6,0,-3,5,1,24,8,16,10,27
-6,1,8,2,-6,4,1,23,7,16,9,27
-5,2,8,2,-7,5,1,23,6,15,8,26
0,5,6,-3,-3,6,2,23,6,15,9,25
4,7,4,-6,0,6,3,22,6,15,9,25
2,6,3,-4,0,5,3,21,6,15,9,23
2,6,3,-4,0,5,3,20,7,16,10,22
3,6,3,-4,0,5,3,21,8,16,11,21
0,3,3,-1,-1,3,2,20,7,15,10,18
-3,0,3,2,-2,1,1,19,6,14,9,17
-4,-1,3,3,-3,1,0,19,6,13,8,16
-5,-2,3,4,-4,0,0,18,6,13,7,15
-5,-2,3,4,-4,0,0,18,6,12,7,15
-2,0,3,1,-3,2,1,19,6,13,8,16
1,4,3,-2,-1,3,2,21,8,15,9,18
1,5,3,-3,0,4,3,22,8,15,9,19
0,3,4,-1,-1,3,4,22,8,15,9,19
-3,0,4,1,-2,2,4,23,7,14,8,19
-2,1,4,1,-2,2,4,24,7,14,8,19
0,3,4,-1,-1,3,5,25,8,15,9,19
1,3,3,-1,-1,2,5,26,7,15,10,19
0,0,1,0,-1,0,4,25,5,14,8,17
-1,-1,1,2,-2,-1,3,25,4,13,7,16
0,1,1,0,-1,0,3,27,5,13,8,16
2,3,1,-2,0,2,4,28,6,14,9,17
3,4,1,-3,1,2,4,29,6,15,10,17
3,4,1,-3,1,2,4,30,6,15,10,16
4,5,1,-4,1,3,4,30,6,15,11,15
1,2,1,-1,0,1,3,29,5,14,10,14
-4,-3,1,4,-3,-1,1,27,3,12,8,11
-8,-7,1,8,-5,-3,0,26,1,11,7,9
-8,-8,0,8,-4,-3,1,25,1,11,7,9
-3,-4,0,4,-1,-2,2,26,2,13,9,10
1,0,-1,0,1,-1,3,26,3,14,11,11
2,0,-1,0,2,-1,4,26,4,15,12,11
3,0,-2,-2,3,0,4,26,4,15,12,11
6,2,-3,-4,5,0,4,27,5,15,13,12
6,1,-4,-3,5,-1,4,27,4,14,12,11
4,-1,-5,-1,5,-3,3,27,2,13,10,9
3,-3,-6,0,5,-4,3,27,1,12,10,8
1,-4,-6,2,4,-5,3,27,1,12,9,7
-1,-6,-5,4,2,-5,3,27,0,11,9,6
-2,-7,-5,5,2,-6,3,26,0,11,8,4
-3,-7,-5,5,1,-6,3,26,0,10,8,3
-2,-5,-3,3,1,-4,4,26,1,11,10,3
0,-2,-2,1,1,-2,5,27,2,13,11,4
0,-2,-1,1,1,-2,5,27,2,13,11,3
0,-2,-1,1,1,-2,5,27,2,13,11,1
1,-1,-1,0,1,-2,6,26,2,14,11,1
0,0,-1,0,1,-1,7,26,3,14,11,1
-1,-1,0,1,0,-1,7,25,3,14,11,2
-3,-3,0,3,-1,-2,7,24,2,13,11,2
-2,-3,0,2,-1,-2,7,23,2,13,11,2
0,0,0,0,0,0,8,24,2,13,11,3
4,2,-1,-3,2,0,8,24,3,13,12,3
4,1,-3,-2,3,-1,7,23,2,13,11,2
0,-3,-2,2,0,-3,6,23,0,12,10,0
-3,-5,-2,5,-1,-3,5,23,0,11,9,0
-2,-4,-2,3,0,-3,5,23,1,12,10,0
0,-1,-2,1,1,-2,5,23,1,12,10,0
1,-2,-3,1,1,-3,4,22,0,12,10,0
0,-4,-3,2,1,-4,4,21,0,11,9,0
-1,-4,-3,2,1,-4,4,21,-1,10,9,0
0,-3,-3,1,1,-3,5,21,-1,10,9,0
0,-3,-4,1,2,-3,5,21,-1,10,9,0
0,-5,-4,3,1,-4,4,20,-1,10,8,0
-1,-6,-4,4,1,-5,4,19,-2,10,8,0
-1,-6,-5,4,2,-6,3,18,-2,10,8,0
-1,-7,-6,5,3,-7,3,17,-3,9,7,0
-2,-8,-6,5,3,-7,2,16,-4,9,7,0
0,-6,-5,3,3,-6,2,17,-3,9,7,1
0,-5,-5,2,3,-4,3,18,-3,10,7,3
2,-2,-4,0,3,-3,4,19,-2,11,8,4
3,0,-4,-1,3,-1,5,20,-1,12,10,6
1,-2,-3,0,2,-2,4,21,-1,12,10,6
-3,-6,-3,4,0,-4,3,20,-3,10,10,4
-4,-8,-4,6,0,-5,2,20,-4,9,10,3
-4,-10,-5,7,0,-7,1,19,-5,8,9,2
-5,-12,-6,8,0,-8,0,19,-7,6,8,1
-6,-13,-6,10,0,-9,0,19,-7,6,7,1
-4,-11,-6,8,0,-8,0,20,-7,6,8,2
0,-7,-6,4,2,-6,1,22,-6,8,10,3
2,-4,-7,1,4,-5,2,23,-5,9,11,4
3,-3,-8,0,5,-5,3,24,-4,9,11,3
3,-3,-8,0,5,-5,4,24,-4,9,12,3
4,-3,-8,0,6,-5,5,24,-4,9,12,3
4,-4,-8,0,6,-5,5,24,-4,9,11,3
1,-7,-8,3,4,-6,4,23,-6,7,10,2
-2,-10,-8,6,3,-8,3,21,-8,6,10,1
-3,-10,-7,6,2,-8,3,21,-8,6,10,1
-3,-10,-6,7,1,-8,3,22,-8,5,10,1
-3,-9,-6,6,1,-8,2,22,-8,5,10,2
-2,-9,-6,6,1,-8,2,23,-7,5,10,2
-1,-8,-6,5,2,-8,1,25,-7,5,10,2
0,-6,-6,3,3,-6,2,26,-5,7,11,3
2,-3,-4,1,3,-4,2,27,-4,8,12,5
0,-3,-3,2,2,-4,1,26,-4,8,12,5
0,-5,-4,3,2,-5,0,23,-4,8,11,5
0,-4,-4,2,2,-5,-1,21,-4,8,11,5
1,-2,-4,1,2,-4,-1,21,-2,9,12,5
3,0,-3,-1,3,-2,0,23,0,12,13,5
7,4,-2,-5,4,0,1,26,5,15,15,5
6,6,0,-6,3,2,3,29,9,19,18,6
1,3,2,-2,0,3,3,31,12,21,19,6
-7,-2,5,4,-6,1,3,32,14,23,19,4
-12,-5,7,9,-9,1,3,33,16,25,19,4
-11,-2,8,7,-9,3,4,38,21,29,22,6
-7,2,8,2,-7,5,5,43,25,33,26,10
-4,3,8,0,-6,5,5,48,29,37,29,12
-3,4,8,0,-6,6,4,53,33,41,33,16
-1,5,7,-2,-4,6,4,59,38,46,38,22
3,8,6,-6,-1,7,3,65,42,51,45,30
10,13,3,-11,3,8,1,70,46,57,53,41
20,21,0,-20,9,10,0,75,50,64,62,54
33,29,-4,-31,19,12,-4,77,52,70,71,66
44,35,-10,-39,27,12,-10,75,51,74,79,77
50,37,-13,-43,31,11,-17,70,46,75,87,89
56,40,-16,-48,36,11,-25,64,39,76,95,104
65,44,-20,-55,42,12,-33,56,31,77,105,121
76,51,-24,-63,49,13,-40,43,21,76,113,137
83,56,-26,-69,54,14,-47,26,7,70,117,148
87,57,-29,-72,58,14,-53,5,-12,57,112,150
87,55,-32,-70,59,11,-57,-17,-36,36,98,140
77,47,-31,-62,53,8,-58,-44,-63,9,75,118
62,36,-26,-49,44,5,-56,-75,-91,-23,44,85
47,24,-22,-36,35,1,-53,-104,-119,-57,9,45
35,10,-24,-22,29,-6,-51,-126,-145,-90,-25,5
26,-5,-31,-10,28,-18,-50,-139,-165,-117,-55,-30
20,-18,-38,-1,29,-28,-48,-143,-177,-134,-76,-55
16,-25,-41,5,29,-33,-47,-141,-179,-142,-88,-70
10,-31,-40,11,25,-36,-46,-135,-177,-143,-93,-77
0,-36,-37,18,18,-37,-45,-128,-170,-141,-94,-80
-7,-38,-32,23,12,-35,-44,-117,-159,-134,-91,-79
-7,-34,-27,21,9,-30,-39,-103,-143,-122,-85,-75
-5,-27,-22,16,8,-24,-32,-87,-126,-108,-77,-68
-4,-22,-17,13,5,-19,-26,-73,-109,-94,-69,-62
-6,-19,-12,13,2,-15,-19,-61,-94,-81,-62,-56
-9,-18,-9,14,0,-14,-15,-51,-82,-71,-55,-51
-11,-19,-7,15,-2,-14,-12,-44,-72,-63,-50,-46
-13,-19,-6,16,-3,-13,-10,-37,-64,-55,-45,-41
-14,-19,-5,17,-4,-12,-9,-31,-55,-48,-40,-36
-14,-17,-2,16,-5,-10,-7,-25,-47,-40,-34,-32
-12,-13,-1,13,-5,-6,-5,-19,-38,-32,-29,-28
-12,-12,0,12,-6,-5,-4,-14,-31,-25,-24,-25
-14,-13,2,14,-9,-4,-4,-11,-26,-20,-21,-23
-14,-10,4,13,-10,-2,-2,-8,-21,-14,-16,-19
-10,-5,5,8,-8,0,0,-4,-16,-9,-11,-15
-8,-2,5,5,-7,1,0,-2,-13,-5,-8,-12
-10,-5,5,8,-8,0,-1,-1,-11,-4,-6,-11
-11,-7,4,9,-8,-1,-3,0,-10,-2,-5,-10
-9,-5,4,7,-7,-1,-4,2,-7,0,-3,-8
-6,-3,4,5,-5,0,-3,5,-5,2,-1,-7
-6,-2,4,4,-5,1,-2,6,-3,3,0,-6
-6,-1,4,4,-6,1,-1,7,-2,4,0,-6
-4,0,4,2,-5,2,0,9,-1,5,1,-4
-3,1,4,1,-4,2,2,9,-1,5,2,-3
-4,0,4,2,-4,1,2,8,-2,5,2,-3
-1,2,3,0,-2,2,2,9,-1,5,2,-2
3,6,3,-5,0,5,3,11,0,7,3,-1
3,7,4,-6,0,6,4,12,1,8,4,0
1,5,5,-4,-1,5,4,13,1,7,3,-1
-2,2,4,-1,-3,4,4,13,0,6,2,-3
-4,0,3,2,-3,1,3,12,-1,5,2,-4
-4,-1,2,2,-3,0,3,13,-1,4,2,-4
-5,-2,2,3,-4,0,3,13,-2,4,2,-4
-7,-3,3,5,-5,0,3,14,-2,4,2,-4
-6,-2,3,4,-5,0,3,14,-2,4,2,-4
-8,-5,3,6,-6,-1,2,14,-3,4,1,-5
-12,-10,3,11,-7,-3,0,12,-4,2,0,-7
-11,-10,2,11,-7,-3,0,12,-4,2,0,-7
-6,-4,2,5,-4,0,2,13,-2,3,1,-5
-3,-1,2,1,-3,1,4,14,-1,4,3,-3
-3,0,3,1,-3,1,4,14,0,4,4,-3
-5,0,3,2,-4,1,4,14,0,4,4,-2
-7,-2,3,4,-5,0,2,15,-1,4,4,-2
-8,-4,3,6,-6,0,1,15,-1,3,3,-3
-7,-4,2,6,-5,0,1,15,-1,4,3,-4
-5,-3,2,5,-4,0,1,14,0,4,3,-3
-6,-4,2,5,-5,0,1,13,0,4,3,-3
-7,-5,2,7,-5,-1,1,11,-1,3,3,-3
-8,-5,2,7,-5,-2,1,10,-1,3,3,-2
-8,-5,2,7,-5,-2,2,10,-1,3,3,-2
-9,-6,2,8,-6,-2,2,10,-1,3,3,-2
-9,-6,2,7,-6,-2,2,10,-1,3,3,-2
-6,-6,1,6,-4,-2,2,10,-1,3,3,-2
-4,-6,-1,5,-2,-2,2,10,-1,3,3,-2
-1,-4,-2,3,0,-3,2,10,-1,3,3,-2
0,-4,-3,2,1,-3,3,11,-1,3,3,-2
1,-3,-3,1,2,-4,3,11,-1,2,3,-2
2,-2,-4,0,3,-4,3,12,-1,2,3,-2
2,-2,-4,0,3,-4,3,12,-1,2,2,-2
0,-4,-3,2,2,-4,2,13,-1,2,2,-3
-2,-6,-3,4,0,-4,2,13,-1,2,1,-4
-5,-8,-2,7,-1,-5,2,12,-1,2,1,-4
-7,-10,-2,9,-2,-5,2,12,-1,2,0,-5
-8,-9,-1,9,-3,-5,3,12,0,2,1,-4
-8,-7,0,8,-4,-4,4,13,0,3,2,-2
-8,-6,1,7,-5,-3,5,13,1,3,2,-2
-8,-5,2,7,-5,-2,5,14,1,3,2,-1
-8,-5,3,7,-5,-1,5,14,1,4,3,-1
-9,-6,3,7,-5,-2,5,15,1,4,3,-2
-8,-6,2,7,-4,-2,5,15,1,4,3,-2
-5,-4,1,5,-3,-1,5,16,2,5,3,-2
-4,-3,1,4,-2,0,6,16,3,5,3,-2
-4,-3,1,3,-2,0,6,15,3,5,3,-2
-5,-3,2,4,-3,0,6,14,3,5,3,-3
-9,-6,2,7,-5,-2,5,13,2,4,2,-4
-9,-7,2,8,-5,-2,5,13,2,4,2,-4
-6,-5,1,5,-3,-2,5,14,2,5,2,-4
-6,-6,0,6,-3,-2,5,14,3,5,2,-3
-9,-10,0,9,-5,-4,4,13,2,4,1,-4
-12,-12,1,12,-7,-5,3,13,1,4,0,-5
-12,-11,1,12,-7,-4,3,13,2,4,0,-4
-9,-8,1,8,-6,-3,4,14,3,5,0,-4
-7,-5,1,6,-4,-2,4,15,3,5,0,-3
-6,-4,1,5,-4,-2,4,15,3,5,0,-3
-7,-5,1,6,-4,-2,4,15,3,4,-1,-4
-9,-8,1,9,-5,-3,3,15,3,4,-2,-4
-9,-9,1,10,-5,-3,2,15,3,4,-2,-5
-9,-8,2,9,-5,-2,2,16,3,4,-2,-4
-8,-6,3,7,-5,-1,3,16,4,5,-1,-4
-6,-3,3,5,-4,0,4,16,5,6,0,-4
-6,-3,2,5,-4,-1,3,15,4,5,-1,-5
-10,-6,3,8,-6,-2,3,13,4,4,-2,-6
-9,-5,4,7,-6,0,3,12,4,5,-1,-6
-6,-2,4,5,-5,1,4,10,5,6,0,-5
-7,-3,4,5,-6,1,4,7,5,6,0,-5
-6,-2,5,4,-6,2,4,5,5,6,0,-5
-4,0,5,2,-5,3,5,3,5,7,1,-5
-2,3,5,0,-4,4,5,1,5,7,1,-4
-1,4,5,-1,-4,4,5,-1,5,7,1,-5
-4,2,6,1,-5,3,5,-4,4,6,0,-6
-5,0,5,3,-5,2,4,-6,2,4,-1,-6
-6,-3,3,4,-5,0,2,-8,1,3,-1,-6
-9,-6,3,7,-7,0,1,-10,0,2,-2,-6
-12,-8,4,10,-9,0,1,-10,0,1,-2,-6
-14,-10,5,12,-10,-1,0,-12,-1,0,-3,-7
-17,-12,5,15,-11,-3,-1,-14,-3,-1,-4,-8
-18,-13,5,16,-12,-4,-2,-16,-5,-2,-5,-8
-16,-11,5,13,-10,-3,-2,-17,-5,-2,-5,-8
-8,-5,4,6,-6,0,0,-16,-3,-1,-3,-6
0,1,3,0,-1,2,1,-15,-2,0,0,-4
2,3,3,-2,0,3,1,-15,-2,1,0,-3
1,4,3,-2,-1,4,1,-14,-2,1,1,-2
2,5,4,-3,-1,6,0,-14,-1,2,2,-1
2,6,5,-4,-2,7,0,-14,-1,2,3,0
2,8,6,-4,-2,7,-1,-14,-1,2,3,0
1,8,7,-4,-3,7,-2,-14,-2,2,3,0
-1,5,6,-1,-3,5,-5,-16,-4,0,3,0
-1,3,5,0,-3,4,-7,-18,-5,0,2,0
0,4,5,-1,-2,4,-7,-21,-6,-1,2,0
-1,2,5,0,-2,4,-8,-23,-6,-1,1,0
-3,1,5,1,-4,3,-8,-25,-7,-2,1,0
-3,2,6,0,-5,4,-7,-25,-6,-2,1,0
-3,4,6,0,-5,5,-7,-25,-6,-2,2,1
-4,2,5,1,-5,4,-7,-26,-7,-3,1,1
-4,1,5,2,-5,3,-8,-26,-8,-4,0,1
-3,2,5,1,-4,3,-8,-26,-8,-3,1,2
-2,2,5,0,-3,4,-8,-25,-8,-3,1,3
-2,1,5,0,-3,4,-8,-25,-9,-3,1,4
-4,0,5,2,-5,3,-9,-24,-9,-4,1,3
-6,-1,5,4,-6,3,-9,-24,-10,-4,0,3
-4,0,5,1,-5,4,-8,-23,-9,-4,1,3
-1,4,5,-2,-3,5,-6,-22,-9,-3,2,5
0,6,6,-3,-3,6,-6,-21,-8,-2,3,6
-2,5,7,-1,-5,6,-6,-21,-8,-2,3,6
-6,3,9,1,-7,6,-6,-21,-9,-2,3,7
-6,4,10,0,-8,7,-5,-20,-8,-1,4,8
-3,5,9,-1,-6,8,-5,-20,-8,-1,5,9
-2,5,7,-2,-5,7,-5,-20,-9,-1,5,8
-1,5,6,-2,-4,7,-5,-20,-10,-2,4,8
-2,5,6,-2,-5,7,-5,-20,-10,-2,4,8
-3,5,8,-1,-6,7,-5,-19,-9,-2,4,8
-6,4,9,0,-7,6,-6,-19,-9,-2,4,8
-8,1,10,3,-9,5,-7,-19,-10,-2,3,8
-6,1,9,3,-7,5,-7,-19,-11,-2,3,7
-4,2,8,1,-6,5,-6,-19,-11,-2,3,8
-8,-1,8,5,-8,3,-7,-19,-12,-3,2,7
-14,-6,8,10,-11,1,-9,-21,-14,-5,0,5
-15,-7,7,11,-12,0,-9,-21,-14,-6,0,5
-9,-1,7,5,-9,3,-7,-19,-12,-4,2,7
1,8,7,-5,-3,7,-4,-16,-9,-1,4,10
7,14,7,-11,0,10,-2,-14,-7,1,6,12
6,13,7,-10,0,10,-2,-14,-7,1,5,12
5,11,7,-8,-1,9,-2,-15,-8,0,5,12
5,11,6,-8,-1,9,-2,-14,-8,0,6,12
4,10,6,-7,-1,9,-2,-14,-8,0,6,12
4,9,6,-6,-1,9,-2,-14,-8,0,6,12
4,11,6,-7,-2,9,-2,-14,-8,0,6,12
3,11,7,-7,-2,9,-2,-13,-8,0,6,12
-1,6,7,-3,-4,6,-3,-14,-9,-2,5,10
-6,3,8,1,-7,5,-4,-15,-10,-3,3,9
-6,3,9,2,-7,6,-4,-15,-10,-3,3,9
-1,6,8,-2,-5,7,-3,-14,-10,-2,4,10
1,8,7,-4,-3,7,-2,-14,-10,-2,4,9
-3,4,7,0,-5,6,-3,-14,-11,-4,2,8
-7,0,8,3,-7,4,-4,-15,-13,-5,1,6
-4,3,6,0,-5,5,-4,-16,-13,-5,1,6
1,6,5,-4,-2,6,-3,-17,-12,-4,1,6
1,6,5,-4,-2,5,-3,-19,-11,-4,1,6
0,5,5,-3,-2,5,-3,-21,-11,-4,1,6
1,6,5,-3,-2,6,-2,-22,-11,-3,2,6
1,7,6,-4,-3,7,-2,-23,-11,-3,2,6
0,5,5,-2,-4,6,-2,-25,-11,-4,2,5
-1,4,5,-1,-4,5,-3,-27,-12,-4,1,4
0,4,4,-2,-3,5,-3,-28,-12,-4,1,4
-2,2,4,0,-3,3,-3,-29,-13,-5,0,3
-4,0,4,2,-4,2,-4,-30,-14,-6,0,1
-3,2,5,1,-4,3,-3,-30,-13,-6,0,2
-2,3,6,0,-4,4,-2,-30,-13,-5,1,3
-4,1,6,1,-5,4,-1,-31,-13,-5,1,2
-4,1,5,1,-5,4,-1,-32,-14,-6,0,2
-5,-1,4,3,-5,2,-2,-32,-15,-7,0,0
-8,-4,3,6,-6,0,-3,-34,-16,-8,-2,-1
-10,-6,4,8,-7,-1,-3,-35,-17,-9,-3,-2
-9,-6,4,8,-7,0,-3,-35,-17,-9,-3,-2
-7,-4,4,6,-6,0,-2,-34,-16,-9,-3,-2
-8,-4,4,6,-6,0,-2,-34,-17,-9,-3,-3
-10,-6,4,8,-7,0,-2,-33,-17,-9,-3,-3
-9,-4,5,6,-7,1,0,-30,-15,-8,-1,-2
-5,0,5,3,-6,3,2,-27,-13,-6,0,-1
0,4,4,-2,-3,5,3,-24,-12,-4,2,0
7,9,3,-8,1,6,3,-22,-11,-4,2,1
9,9,1,-9,3,5,3,-21,-12,-4,2,0
6,6,1,-6,2,3,1,-22,-15,-5,1,0
2,3,1,-3,0,2,1,-22,-18,-6,0,-1
1,2,2,-2,0,2,1,-22,-19,-5,1,0
0,2,2,-1,-1,3,1,-21,-20,-4,1,0
-1,1,2,0,-2,2,1,-21,-21,-4,1,0
-3,0,2,2,-3,2,1,-20,-22,-4,1,0
-3,-1,3,2,-4,1,2,-19,-23,-4,1,0
-3,-2,2,3,-3,0,2,-18,-24,-5,0,0
-4,-4,1,4,-3,-1,2,-18,-25,-5,0,-1
-3,-4,0,3,-1,-2,3,-17,-25,-5,0,-1
-1,-3,-1,2,0,-2,4,-15,-21,-4,0,-1
-1,-3,-1,2,0,-2,5,-13,-15,-2,1,-1
-1,-1,0,1,-1,0,6,-9,-7,0,2,0
0,1,1,0,-1,1,8,-5,1,4,4,1
0,1,1,0,-1,2,8,-2,7,7,6,2
0,3,2,-2,0,3,10,0,14,11,9,3
2,5,4,-4,0,5,11,2,21,16,12,5
3,7,5,-5,0,6,12,5,28,21,15,7
5,9,4,-7,0,7,12,9,36,27,20,11
7,12,5,-10,1,9,12,14,45,35,27,18
10,18,7,-14,1,13,13,20,55,44,36,27
14,25,9,-19,2,18,13,27,63,53,46,38
17,28,10,-22,3,20,10,31,67,60,56,50
17,27,10,-22,3,19,5,31,69,66,64,61
18,27,9,-23,4,18,0,28,67,69,72,72
24,28,5,-27,10,17,-7,21,59,68,78,83
29,28,0,-29,15,14,-15,11,47,64,82,94
35,28,-6,-32,21,12,-23,-1,32,59,87,106
47,35,-11,-41,29,12,-30,-16,16,54,93,120
57,40,-17,-48,37,12,-36,-35,-3,44,95,130
63,42,-21,-52,42,11,-43,-57,-27,29,91,135
66,40,-26,-52,46,7,-48,-78,-53,7,79,132
65,35,-30,-50,47,3,-53,-100,-81,-20,60,119
60,29,-30,-44,45,0,-55,-125,-108,-52,33,95
50,21,-28,-35,39,-3,-54,-150,-134,-86,0,62
42,10,-31,-26,37,-10,-53,-169,-156,-117,-32,27
37,-1,-39,-18,38,-19,-52,-177,-170,-142,-61,-5
33,-14,-47,-9,40,-30,-52,-176,-178,-158,-83,-31
30,-23,-55,-3,42,-39,-51,-169,-178,-165,-97,-48
32,-27,-60,-2,45,-44,-48,-158,-171,-165,-103,-57
32,-29,-61,-1,46,-45,-44,-144,-160,-159,-103,-61
27,-31,-57,2,42,-44,-38,-130,-146,-149,-100,-61
18,-32,-50,7,34,-41,-32,-116,-129,-136,-94,-59
11,-32,-42,11,27,-37,-27,-103,-111,-122,-86,-54
2,-32,-35,15,19,-33,-23,-92,-96,-108,-78,-50
-6,-33,-27,19,10,-29,-18,-82,-81,-95,-70,-46
-13,-32,-20,23,3,-26,-14,-74,-68,-84,-63,-42
-19,-32,-14,26,-3,-23,-11,-66,-57,-74,-56,-38
-18,-28,-10,23,-4,-20,-6,-58,-46,-64,-49,-34
-11,-19,-7,15,-2,-14,0,-48,-35,-54,-40,-29
-7,-13,-5,10,-1,-9,3,-40,-25,-45,-34,-25
-8,-13,-4,10,-2,-8,5,-34,-19,-38,-29,-23
-11,-14,-3,12,-4,-8,6,-30,-14,-33,-26,-21
-10,-13,-2,11,-3,-7,7,-25,-9,-28,-22,-18
-8,-10,-2,10,-3,-6,8,-22,-4,-23,-18,-16
-8,-9,0,9,-4,-5,9,-18,0,-19,-14,-13
-8,-7,1,7,-4,-4,10,-15,4,-16,-10,-10
-5,-4,0,5,-3,-3,11,-13,7,-13,-7,-8
-3,-3,0,3,-2,-2,12,-11,9,-10,-5,-7
-5,-4,1,5,-2,-2,13,-10,10,-9,-5,-7
-5,-4,0,5,-2,-2,13,-9,11,-8,-4,-6
-2,-2,-1,3,0,-1,14,-7,12,-6,-3,-5
-4,-4,-1,4,-1,-2,13,-7,11,-6,-3,-6
-10,-9,0,10,-5,-4,11,-8,9,-8,-4,-7
-15,-14,0,15,-8,-7,10,-9,7,-10,-6,-9
-18,-17,0,18,-9,-9,9,-8,6,-12,-6,-10
-16,-16,0,16,-8,-9,9,-6,7,-11,-6,-10
-9,-12,-2,11,-4,-7,10,-4,8,-10,-5,-9
-5,-9,-3,7,-2,-6,11,-3,10,-9,-4,-8
-4,-8,-3,6,-1,-5,11,-2,10,-8,-4,-8
-5,-9,-3,7,-1,-5,10,-2,9,-8,-4,-9
-7,-10,-3,9,-2,-6,9,-3,9,-9,-4,-9
-8,-11,-3,9,-3,-6,8,-3,8,-9,-4,-9
-8,-10,-3,9,-2,-7,7,-3,8,-9,-4,-9
-7,-10,-3,9,-2,-7,6,-2,9,-9,-4,-9
-6,-8,-2,7,-2,-6,5,-1,9,-9,-3,-9
-4,-6,-2,5,-1,-4,5,-1,10,-8,-3,-8
-2,-4,-2,3,0,-3,5,0,11,-7,-2,-8
0,-2,-2,1,0,-2,5,1,12,-6,-1,-7
-2,-3,-2,3,0,-2,4,1,12,-6,-1,-8
-8,-9,-1,9,-3,-5,1,0,10,-8,-3,-10
-11,-11,0,11,-5,-6,1,0,10,-9,-3,-10
-11,-10,0,10,-5,-5,1,1,11,-8,-2,-10
-8,-8,1,8,-5,-3,1,1,12,-7,-1,-9
-5,-5,1,5,-3,-2,1,1,13,-6,-1,-9
-5,-5,1,4,-3,-2,1,0,13,-6,-1,-10
-5,-5,1,5,-3,-2,1,0,13,-6,-1,-11
-4,-4,1,4,-2,-1,2,0,14,-5,0,-11
-3,-3,0,3,-2,-1,3,1,14,-5,1,-11
-3,-2,0,2,-1,-1,3,1,15,-4,1,-11
-3,-2,0,2,-1,-1,4,0,15,-4,1,-12
-4,-3,0,4,-2,-1,4,0,15,-4,0,-13
-7,-6,1,6,-4,-2,3,0,14,-5,0,-16
-8,-6,1,7,-5,-2,3,0,13,-6,-1,-17
-6,-3,2,5,-4,0,4,1,15,-4,-1,-17
-3,1,3,1,-3,2,6,3,17,-2,0,-17
-1,3,4,-1,-2,3,7,4,18,-1,1,-16
-2,3,5,0,-3,3,7,5,19,0,1,-16
-10,-3,6,6,-7,1,6,4,17,-1,0,-18
-17,-9,6,13,-11,-1,4,3,16,-3,-2,-19
-17,-10,6,14,-12,-1,4,4,16,-2,-2,-19
-13,-6,7,9,-10,1,6,6,18,0,0,-18
-11,-3,8,6,-10,3,8,8,20,2,1,-17
-10,-2,9,5,-10,4,8,9,21,3,2,-17
-8,1,9,3,-9,5,8,10,23,5,4,-16
-7,2,9,2,-8,6,9,11,24,6,5,-16
-9,0,9,4,-8,4,8,12,23,5,4,-17
-9,-1,8,5,-8,3,7,13,23,5,3,-18
-9,-1,7,4,-7,3,8,14,24,6,3,-18
-8,-2,7,5,-7,2,7,15,24,7,3,-19
-7,-1,6,4,-7,3,7,15,24,7,3,-19
-6,0,6,2,-6,4,8,16,24,7,3,-19
-6,0,6,2,-6,4,7,17,25,7,3,-19
-7,0,7,3,-7,4,7,18,25,7,3,-19
-7,0,7,3,-7,4,7,18,26,8,3,-19
-7,0,8,3,-7,5,7,19,27,9,3,-19
-7,1,8,3,-7,5,7,20,28,10,4,-18
-5,2,8,1,-6,6,7,21,29,11,5,-18
-2,5,8,-1,-4,6,7,21,30,12,6,-18
0,7,8,-4,-3,7,8,21,31,13,7,-17
-1,6,8,-2,-4,7,8,21,31,14,8,-17
-5,4,8,1,-6,6,7,20,32,14,8,-17
-6,3,9,1,-7,6,8,20,33,16,9,-17
-3,7,9,-2,-6,9,9,22,36,19,11,-15
0,11,10,-6,-4,11,11,23,39,21,14,-13
0,11,11,-5,-5,11,10,23,38,22,13,-13
-2,8,11,-3,-6,10,8,21,37,20,12,-14
-2,8,11,-3,-6,10,8,20,36,19,11,-15
-4,7,12,-2,-7,10,7,19,36,20,11,-15
-7,5,12,0,-9,9,7,18,36,20,11,-16
-7,4,11,1,-9,8,6,17,35,19,11,-16
-5,5,10,0,-7,8,6,17,35,20,12,-15
-4,6,10,-1,-6,9,7,17,36,20,12,-15
-5,4,9,0,-7,7,6,16,35,20,11,-16
-6,2,9,1,-7,5,4,15,34,19,11,-17
-3,4,8,-1,-6,6,4,15,34,20,11,-17
0,9,8,-5,-4,8,5,16,35,22,13,-15
-2,7,9,-3,-5,8,5,13,34,21,12,-15
-7,3,9,2,-8,6,4,10,32,19,11,-16
-7,3,8,2,-8,6,4,8,31,18,11,-17
-2,6,7,-2,-5,7,4,7,32,19,12,-16
2,9,7,-6,-3,8,4,7,32,20,13,-16
3,10,7,-7,-2,8,3,5,31,19,12,-17
2,8,7,-6,-2,7,2,4,30,18,11,-18
1,7,7,-5,-2,7,2,3,29,17,11,-19
0,6,6,-3,-3,6,1,1,27,16,10,-20
-2,3,6,-1,-3,5,0,0,26,14,9,-20
-4,2,7,0,-5,5,0,1,26,14,9,-20
-3,6,8,-1,-5,8,2,2,27,16,10,-18
1,9,8,-5,-3,10,3,4,28,17,12,-17
3,9,6,-6,-1,8,2,4,27,17,11,-17
3,8,6,-5,-1,7,2,4,26,17,11,-18
2,8,6,-5,-2,7,2,4,27,17,11,-18
2,8,7,-5,-3,7,2,4,27,18,12,-18
-1,5,6,-2,-3,5,0,2,26,17,11,-19
-3,3,6,0,-4,4,-1,1,24,16,9,-20
-4,3,6,1,-4,4,-1,1,23,14,9,-21
-5,1,5,2,-4,3,-2,1,21,12,8,-22
-4,0,4,2,-4,2,-2,2,20,11,7,-24
2,5,3,-3,0,3,-1,3,21,12,8,-23
8,9,1,-8,3,4,0,4,23,13,9,-22
9,9,0,-9,5,3,0,4,22,14,9,-23
10,8,-2,-9,7,2,0,3,22,14,9,-23
11,9,-3,-10,8,3,1,4,21,14,10,-22
12,9,-3,-11,9,3,1,4,21,14,10,-21
11,8,-3,-10,8,3,1,3,20,14,10,-21
10,7,-3,-9,7,3,0,3,20,14,10,-22
10,7,-3,-9,7,3,0,3,20,14,10,-22
5,3,-2,-5,4,1,0,2,18,12,9,-24
-1,-1,0,0,0,-1,-1,1,16,10,7,-25
-3,-2,1,2,-2,-1,-1,1,15,10,7,-26
-5,-2,2,3,-3,0,0,2,15,10,8,-26
-4,-1,2,2,-3,0,0,3,15,10,8,-26
-2,0,2,0,-2,1,1,3,16,10,8,-26
1,2,1,-2,0,1,2,3,16,10,7,-27
8,8,0,-8,4,3,3,4,17,11,8,-26
12,10,-1,-12,6,4,3,4,17,11,8,-26
8,5,-2,-7,5,1,1,3,15,10,6,-28
1,-2,-3,0,2,-2,-1,1,12,7,3,-31
0,-3,-3,1,2,-3,-2,0,12,7,3,-32
3,0,-3,-2,4,-1,-1,0,12,8,4,-31
4,2,-3,-3,5,0,-1,0,12,8,5,-31
2,0,-3,-1,3,-2,-1,-2,11,6,4,-33
2,-1,-3,-1,3,-2,-1,-2,11,6,3,-33
2,-2,-3,0,3,-3,0,-2,11,5,2,-34
-1,-6,-4,3,2,-5,-1,-4,9,3,0,-36
-2,-7,-4,4,2,-6,-1,-5,8,2,-1,-37
0,-5,-4,3,3,-5,-1,-4,7,2,-2,-38
0,-5,-4,3,3,-5,0,-4,7,2,-2,-38
2,-1,-4,0,4,-3,1,-2,8,3,-2,-37
5,2,-3,-3,4,0,2,-1,10,5,-1,-36
0,-2,-2,1,1,-2,2,-3,8,4,-2,-38
-4,-7,-2,5,-1,-4,0,-5,7,2,-3,-40
-3,-7,-3,4,0,-5,0,-5,6,2,-3,-41
-2,-6,-3,3,1,-4,1,-5,7,3,-3,-40
-3,-7,-3,4,1,-5,1,-6,7,3,-3,-41
-2,-7,-4,4,2,-5,2,-6,6,2,-4,-41
-1,-6,-5,3,3,-5,2,-6,6,2,-4,-42
0,-5,-5,2,2,-5,2,-6,6,2,-4,-42
0,-5,-5,2,2,-5,2,-6,5,1,-4,-42
0,-5,-5,2,3,-5,3,-6,5,0,-5,-43
1,-4,-4,1,3,-5,4,-5,5,1,-4,-43
1,-3,-3,0,3,-4,5,-4,7,2,-3,-42
0,-4,-2,2,2,-4,6,-3,8,3,-3,-42
-3,-7,-2,5,1,-5,5,-3,7,3,-3,-42
-7,-10,-3,8,0,-7,4,-4,5,1,-5,-44
-8,-12,-4,10,-1,-9,4,-4,3,-1,-7,-45
-5,-10,-6,7,1,-8,4,-3,3,-1,-7,-46
-2,-8,-6,4,2,-7,4,-2,4,0,-6,-45
-3,-9,-6,5,1,-7,4,-1,5,1,-6,-45
-2,-8,-5,4,2,-7,4,0,6,2,-5,-45
1,-6,-6,2,4,-6,5,2,6,2,-4,-45
0,-6,-6,2,4,-6,6,2,4,0,-5,-45
0,-6,-6,3,4,-7,6,2,3,0,-6,-46
2,-3,-6,0,5,-5,8,3,5,2,-4,-45
3,-1,-5,-1,4,-4,8,4,6,3,-3,-45
-1,-5,-5,3,2,-5,7,3,5,2,-4,-46
-6,-10,-4,8,-1,-8,5,1,3,0,-6,-48
-7,-11,-4,8,-1,-8,4,2,2,-1,-7,-48
-4,-8,-4,5,0,-7,4,2,3,-1,-7,-47
-1,-6,-4,2,1,-5,4,3,3,-1,-6,-46
0,-4,-4,1,2,-4,4,3,4,0,-6,-46
1,-3,-3,1,2,-4,4,4,4,0,-6,-46
-1,-4,-3,2,1,-3,3,4,5,1,-5,-46
-5,-8,-3,6,-1,-5,1,3,5,1,-6,-47
-8,-12,-4,9,-2,-8,-1,2,5,0,-7,-49
-8,-12,-4,9,-2,-8,-2,2,5,0,-7,-49
-6,-11,-4,8,-1,-7,-2,2,5,0,-7,-49
-2,-6,-4,4,1,-5,-1,3,7,2,-6,-48
0,-4,-5,2,3,-4,-1,3,8,3,-5,-48
-1,-8,-6,4,2,-7,-2,1,7,2,-6,-50
-5,-10,-6,8,1,-8,-3,0,6,1,-7,-51
-5,-9,-5,7,0,-7,-2,1,8,2,-6,-51
-1,-4,-4,3,1,-3,-1,3,11,6,-4,-49
2,0,-3,-1,2,0,0,5,13,8,-2,-47
2,1,-2,-2,2,0,0,6,13,8,-1,-47
1,1,0,-1,1,0,0,5,13,8,-1,-48
1,3,0,-2,1,1,1,6,14,8,-1,-48
5,6,1,-6,2,3,3,8,16,9,0,-47
5,8,2,-7,2,4,4,9,16,9,0,-46
-1,1,2,0,-1,1,2,8,14,7,-2,-48
-9,-7,2,7,-5,-2,0,6,12,5,-4,-50
-10,-8,1,9,-6,-3,0,7,13,6,-4,-50
-5,-3,1,4,-4,-1,1,9,15,8,-3,-48
-2,0,1,1,-2,0,2,10,16,9,-1,-47
-1,1,2,0,-2,1,3,11,16,9,-1,-47
0,4,2,-2,-1,2,4,12,17,10,-1,-46
3,7,2,-5,0,4,5,13,18,11,0,-45
2,7,4,-4,-1,5,6,15,18,11,1,-45
-4,3,6,0,-5,5,6,15,17,10,0,-45
-7,1,8,3,-7,5,6,15,17,10,0,-45
-8,0,8,3,-8,5,6,15,18,10,0,-45
-8,0,8,4,-8,4,6,15,18,10,0,-46
-6,2,9,1,-7,5,6,16,20,11,1,-45
-2,7,9,-2,-6,7,8,17,21,13,2,-44
-3,6,9,-1,-6,7,8,17,21,13,2,-44
-7,2,9,2,-7,5,7,16,19,12,1,-45
-7,1,8,3,-7,4,6,17,19,12,1,-45
-7,1,8,3,-7,4,6,18,19,12,1,-44
-6,1,7,2,-6,4,6,18,19,12,1,-44
-3,2,6,0,-5,4,6,18,19,12,0,-44
-1,4,6,-1,-4,4,6,17,19,12,1,-43
0,5,6,-2,-3,4,7,16,19,12,1,-43
-1,5,6,-2,-4,4,7,15,18,11,1,-43
-1,6,6,-2,-3,5,7,15,18,11,1,-42
1,9,6,-5,-2,7,8,14,19,12,3,-41
3,10,6,-7,-1,8,8,15,20,14,5,-40
1,8,6,-4,-2,7,8,15,19,14,6,-40
-4,2,5,0,-4,4,6,13,17,11,4,-42
-8,-3,5,5,-6,1,5,12,15,9,3,-44
-8,-3,6,5,-7,1,5,12,14,9,3,-44
-6,1,7,2,-6,3,6,12,15,10,4,-43
-2,6,8,-2,-4,6,8,13,17,11,5,-42
3,10,7,-7,-1,8,8,13,18,13,6,-41
5,11,6,-9,0,8,8,12,19,14,7,-40
2,8,6,-6,-1,7,6,10,19,14,7,-41
-1,4,6,-2,-3,6,5,8,19,14,7,-42
-3,3,6,0,-4,5,4,6,18,14,6,-42
-4,2,6,0,-5,4,4,4,16,12,5,-43
-6,0,6,2,-6,3,3,1,15,11,4,-44
-7,-1,6,4,-6,2,2,0,14,11,4,-45
-6,0,5,3,-5,2,3,0,15,12,4,-44
-4,1,5,1,-4,2,3,0,16,12,5,-44
-3,1,5,1,-4,3,4,0,16,11,5,-44
-2,3,6,0,-4,4,6,1,17,12,6,-43
-2,4,7,-1,-4,5,7,2,19,14,7,-43
-2,5,8,-2,-5,6,8,3,22,16,9,-42
0,9,9,-5,-4,9,10,6,26,20,11,-41
0,11,10,-6,-5,10,12,10,30,24,13,-40
-3,9,12,-3,-7,11,14,12,33,26,15,-40
-7,8,14,0,-10,11,14,14,36,29,17,-40
-9,7,17,1,-13,12,15,17,39,33,19,-39
-10,8,19,1,-14,13,16,20,43,37,22,-38
-7,12,20,-2,-13,16,18,25,47,41,26,-35
-2,18,21,-8,-11,19,19,31,52,46,31,-30
0,19,20,-9,-10,19,20,36,56,49,35,-27
-3,16,19,-6,-11,17,18,39,58,50,37,-24
-5,11,16,-3,-11,14,15,43,59,52,39,-19
0,13,13,-7,-6,13,13,48,61,56,45,-10
13,22,9,-18,2,15,11,53,66,64,53,1
24,28,4,-26,10,16,7,56,69,71,61,14
29,29,0,-30,15,14,1,56,69,75,68,27
36,31,-4,-34,20,13,-4,55,67,77,75,40
44,34,-9,-39,27,12,-10,51,62,79,83,55
54,37,-17,-46,36,10,-18,45,55,79,90,71
68,43,-24,-56,47,9,-26,36,45,78,97,86
79,49,-30,-64,55,9,-33,21,31,72,99,96
83,48,-35,-65,60,6,-40,1,12,58,93,97
84,45,-38,-64,62,3,-45,-20,-9,39,79,87
80,40,-40,-59,60,0,-46,-45,-35,14,59,68
67,29,-38,-48,53,-4,-45,-75,-63,-17,30,36
50,15,-35,-33,43,-9,-41,-106,-91,-51,-3,-1
37,3,-34,-21,36,-14,-37,-131,-116,-82,-34,-37
29,-8,-38,-11,33,-22,-35,-149,-137,-107,-61,-69
26,-18,-44,-4,35,-31,-34,-158,-151,-125,-82,-95
25,-23,-49,-1,37,-36,-33,-159,-157,-134,-95,-111
22,-27,-49,2,35,-39,-32,-157,-157,-136,-100,-119
15,-31,-45,8,30,-39,-31,-152,-152,-134,-101,-122
4,-35,-39,14,21,-37,-30,-145,-144,-129,-99,-123
-5,-37,-32,20,13,-35,-28,-135,-132,-122,-95,-121
-10,-37,-27,23,8,-32,-23,-122,-119,-112,-89,-118
-12,-34,-23,23,5,-29,-18,-107,-104,-100,-83,-114
-14,-33,-19,23,3,-26,-12,-94,-90,-89,-77,-110
-16,-32,-17,24,1,-25,-7,-82,-77,-78,-70,-105
-16,-31,-15,23,0,-24,-2,-72,-65,-67,-63,-100
-15,-30,-14,22,0,-22,1,-62,-55,-57,-56,-95
-15,-27,-12,21,-1,-20,3,-54,-44,-47,-49,-90
-12,-21,-9,16,-1,-15,7,-45,-34,-37,-41,-84
-11,-16,-6,13,-2,-11,9,-38,-25,-29,-34,-79
-13,-15,-4,14,-4,-9,9,-34,-19,-22,-30,-76
-13,-13,-2,13,-5,-7,9,-29,-12,-16,-25,-72
-14,-12,1,14,-8,-5,11,-25,-7,-9,-19,-68
-18,-14,4,16,-11,-5,11,-23,-3,-5,-16,-65
-17,-14,3,16,-10,-5,11,-20,-1,-3,-14,-63
-12,-11,2,12,-7,-5,12,-17,1,0,-11,-60
-8,-8,0,8,-4,-4,12,-13,5,3,-9,-58
-9,-9,0,9,-4,-4,12,-10,7,5,-7,-56
-10,-8,1,9,-5,-3,13,-7,10,7,-5,-55
-12,-9,2,11,-7,-4,13,-6,11,8,-4,-54
-14,-11,2,13,-8,-5,12,-6,10,8,-3,-53
-9,-7,1,8,-5,-3,13,-6,11,10,-1,-52
-2,-2,1,2,-1,-1,14,-4,13,12,0,-50
-2,-2,1,2,-1,-1,14,-2,13,13,1,-50
-6,-6,1,6,-3,-3,13,-1,12,13,1,-51
-9,-8,1,8,-4,-4,12,0,11,11,1,-51
-10,-8,1,9,-5,-4,11,0,10,9,0,-52
-13,-10,1,11,-7,-4,10,0,9,8,-1,-53
-16,-13,2,14,-9,-5,10,0,8,7,-2,-54
-16,-13,2,15,-9,-5,10,0,7,6,-3,-55
-13,-11,2,12,-8,-5,10,0,7,5,-3,-54
-10,-9,2,9,-6,-4,11,0,7,6,-2,-53
-8,-7,2,7,-5,-3,11,-1,8,7,-1,-52
-9,-7,2,8,-5,-3,10,-1,8,6,-1,-52
-11,-9,1,10,-5,-4,9,-2,7,6,-1,-52
-11,-9,1,10,-5,-4,9,-3,8,8,0,-51
-11,-8,2,10,-6,-3,10,-2,9,10,1,-49
-12,-8,3,10,-7,-2,11,-2,10,11,1,-48
-12,-8,4,10,-8,-2,11,-3,9,10,1,-48
-8,-6,2,7,-5,-2,12,-4,9,9,0,-48
-6,-6,0,5,-3,-3,11,-6,8,8,-1,-49
-6,-7,0,7,-3,-4,11,-7,7,7,-2,-50
-7,-7,0,7,-3,-4,11,-6,8,8,-1,-49
-7,-7,-1,7,-2,-4,11,-6,7,6,-1,-49
-6,-7,-2,6,0,-4,11,-6,5,4,-3,-50
-2,-4,-3,3,2,-3,11,-6,4,4,-4,-50
1,-1,-3,0,3,-2,12,-5,5,5,-3,-49
2,1,-1,-2,3,0,12,-4,6,6,-2,-48
0,0,0,0,1,0,11,-5,7,7,-2,-48
-6,-6,1,5,-3,-3,9,-6,5,5,-3,-49
-11,-11,1,11,-6,-5,7,-6,4,4,-4,-50
-13,-12,1,12,-6,-5,5,-7,4,4,-4,-49
-14,-12,1,13,-7,-4,4,-7,5,5,-3,-49
-16,-14,2,15,-8,-5,3,-7,5,6,-2,-48
-18,-17,1,18,-9,-7,0,-9,5,6,-3,-49
-19,-19,1,19,-10,-9,-1,-11,4,6,-3,-50
-17,-17,1,17,-9,-8,-1,-11,3,5,-4,-50
-14,-14,1,14,-8,-7,-1,-10,2,3,-4,-50
-10,-11,0,10,-5,-6,0,-9,3,3,-4,-49
-5,-6,-1,5,-2,-4,0,-8,4,4,-4,-48
-3,-4,-1,3,0,-3,1,-7,6,6,-3,-47
-6,-6,0,6,-2,-3,1,-7,6,7,-3,-47
-7,-5,0,6,-3,-2,1,-8,7,7,-3,-47
-3,-1,1,2,-2,0,2,-8,7,7,-2,-46
-1,1,1,0,-1,1,2,-7,6,7,-2,-46
-2,0,1,1,-1,0,1,-7,6,6,-2,-46
-6,-4,2,5,-4,-1,0,-8,6,6,-1,-47
-11,-8,3,9,-6,-2,0,-8,6,6,-1,-48
-11,-8,3,10,-6,-2,0,-7,7,7,-1,-48
-8,-5,3,7,-5,-1,1,-6,9,9,0,-47
-7,-4,3,6,-5,0,1,-5,10,10,0,-46
-11,-7,4,10,-7,-1,0,-5,10,9,-1,-47
-15,-10,5,12,-10,-2,-1,-5,9,9,-1,-48
-13,-8,6,10,-10,-1,0,-3,11,11,1,-46
-11,-3,7,7,-9,2,0,-1,13,14,4,-44
-8,0,8,4,-8,4,1,1,15,15,6,-42
-6,2,8,1,-7,6,2,3,14,15,6,-42
-4,4,8,0,-5,6,3,4,14,14,5,-42
-2,6,8,-1,-4,7,4,6,14,14,6,-41
-1,8,9,-4,-4,8,5,7,17,16,7,-40
-1,10,10,-5,-5,10,5,8,19,18,8,-40
-3,9,12,-4,-7,10,5,8,20,18,8,-40
-6,5,12,0,-8,8,4,8,21,18,7,-40
-6,3,9,0,-7,6,3,8,21,18,7,-41
-2,5,6,-2,-4,6,3,9,21,18,8,-40
0,7,6,-4,-2,6,3,10,22,18,8,-40
-1,8,8,-3,-4,8,4,10,22,19,9,-39
-2,8,10,-3,-5,9,4,11,23,19,10,-39
-1,9,11,-4,-5,9,4,11,25,20,11,-38
-1,9,10,-4,-5,9,3,11,26,21,11,-38
-3,7,11,-2,-6,9,2,10,26,22,12,-38
-3,8,11,-3,-6,10,2,11,27,23,14,-37
-3,8,11,-3,-7,10,2,11,28,24,15,-36
-4,8,12,-2,-7,10,1,11,28,24,15,-36
-2,10,11,-4,-6,10,0,11,27,23,15,-36
1,12,11,-6,-4,11,0,11,26,23,15,-35
-1,10,11,-4,-5,10,0,11,25,22,14,-36
-5,6,12,-1,-8,9,-2,10,24,21,13,-37
-9,3,12,2,-10,8,-3,9,22,19,12,-37
-11,2,13,4,-11,8,-3,9,22,19,12,-37
-8,5,12,0,-10,10,-2,10,23,19,13,-35
-6,7,12,-1,-9,10,-2,11,24,19,13,-34
-6,7,12,0,-9,10,-2,10,24,20,13,-34
-2,10,12,-4,-7,11,-2,10,25,21,14,-33
1,15,13,-8,-5,14,-1,11,26,22,15,-32
3,17,14,-10,-5,15,-1,11,26,23,16,-32
3,17,14,-10,-5,16,-2,10,25,23,17,-32
2,16,14,-9,-5,15,-2,10,25,23,17,-32
2,16,14,-9,-5,16,-2,10,25,24,18,-31
1,17,15,-9,-6,16,-3,9,25,24,19,-30
1,15,14,-8,-6,15,-4,8,24,22,18,-31
1,14,13,-8,-6,14,-6,6,22,20,17,-31
2,14,12,-8,-5,13,-6,5,21,20,16,-31
3,15,11,-9,-4,12,-5,5,20,19,16,-31
4,15,11,-10,-3,13,-4,5,20,19,15,-31
4,15,11,-10,-3,13,-3,5,20,19,15,-30
1,12,11,-7,-4,12,-4,5,20,18,15,-31
-2,6,9,-2,-6,8,-5,4,18,16,14,-32
-5,3,9,0,-6,6,-6,3,17,16,13,-32
-3,5,9,-1,-6,7,-6,4,17,16,13,-31
2,12,10,-7,-4,11,-3,6,18,18,15,-29
7,18,11,-13,-2,15,-2,7,20,20,17,-27
6,17,11,-12,-3,14,-2,7,19,19,16,-28
3,13,11,-8,-4,12,-3,7,17,17,13,-29
1,11,10,-6,-4,11,-3,6,16,15,12,-30
0,9,10,-4,-4,10,-3,6,16,15,13,-30
-1,8,10,-3,-4,9,-4,5,15,15,13,-31
0,9,9,-4,-3,9,-4,5,15,15,14,-31
1,9,8,-5,-2,8,-5,4,15,15,14,-31
2,9,7,-5,-2,8,-5,3,15,16,14,-32
5,11,7,-8,-1,9,-4,4,16,17,15,-31
7,14,7,-11,0,10,-3,6,17,18,16,-30
8,14,6,-11,0,10,-3,6,16,17,16,-30
6,11,5,-8,0,8,-3,5,14,14,14,-31
2,7,5,-4,-1,6,-3,4,13,13,13,-32
-2,3,6,0,-3,4,-4,2,12,12,12,-33
-4,2,7,0,-5,4,-4,1,11,12,12,-34
-1,5,7,-2,-4,5,-3,2,11,13,13,-33
0,7,6,-3,-3,5,-3,2,12,14,13,-33
2,7,4,-4,-2,5,-3,2,12,14,13,-33
4,8,3,-6,0,5,-2,2,12,15,14,-33
6,9,3,-7,1,5,-1,2,13,15,15,-32
5,8,4,-7,1,5,-1,3,13,15,15,-32
4,7,3,-6,1,5,0,3,12,14,14,-34
8,9,1,-9,4,5,0,4,12,14,13,-35
11,9,-1,-11,6,4,0,5,10,13,12,-36
5,3,-2,-4,4,0,-1,3,7,10,9,-38
-2,-3,-2,2,0,-3,-2,2,5,8,7,-40
-6,-7,-1,6,-3,-4,-2,2,4,7,6,-40
-6,-6,0,6,-3,-3,-1,3,3,6,6,-40
0,0,0,0,1,0,1,6,4,7,8,-38
4,4,0,-5,3,2,3,8,6,9,9,-36
4,5,1,-5,2,3,4,9,7,10,11,-35
3,5,2,-4,1,3,4,10,7,11,12,-35
2,6,4,-4,-1,4,5,10,7,12,12,-35
0,6,4,-3,-2,5,6,11,6,11,12,-35
-1,3,4,-1,-3,4,5,11,5,9,10,-37
-6,-2,2,4,-4,0,4,9,2,6,7,-39
-8,-6,1,7,-5,-1,3,8,0,5,6,-40
-5,-3,2,4,-3,0,4,10,1,6,7,-39
-1,1,2,0,-1,2,5,11,2,8,9,-37
-2,0,2,1,-1,1,4,10,2,8,8,-37
-4,-3,1,4,-3,-1,3,9,1,7,7,-38
-4,-3,0,4,-3,-2,2,9,1,7,7,-37
-3,-2,1,3,-3,-1,2,10,1,8,8,-36
-4,-1,2,3,-3,0,2,10,1,9,9,-35
-4,-1,2,3,-3,0,2,10,1,8,9,-35
-3,0,2,2,-2,1,3,10,1,8,9,-34
-2,0,3,1,-2,2,4,10,0,7,9,-34
-6,-2,4,4,-5,1,4,8,0,7,8,-34
-8,-4,4,6,-7,0,4,5,0,6,7,-34
-8,-5,3,7,-7,-1,3,3,-1,6,7,-34
-7,-5,2,6,-5,-2,2,0,-1,6,6,-34
-4,-4,0,4,-3,-2,2,-2,-1,6,6,-34
-2,-3,0,3,-1,-2,2,-4,-1,6,5,-35
1,0,-1,0,1,-1,2,-4,-1,6,5,-34
5,3,-1,-4,3,0,3,-3,0,6,6,-32
4,1,-2,-3,3,-1,2,-4,-1,6,5,-32
1,-2,-3,0,2,-3,1,-5,-2,4,4,-32
1,-2,-3,0,1,-3,2,-5,-3,4,4,-31
1,-1,-2,0,0,-2,3,-3,-2,5,4,-30
-1,-2,-1,1,-1,-1,3,-3,-2,5,4,-29
-2,-3,-1,2,-1,-2,3,-3,-3,4,4,-30
-3,-4,-1,3,-1,-2,2,-3,-4,4,3,-30
-4,-5,-1,4,-2,-3,2,-4,-5,3,2,-31
-5,-6,-1,5,-2,-3,2,-4,-6,2,1,-30
-6,-6,-1,6,-3,-4,1,-4,-6,1,1,-30
-6,-6,-1,6,-3,-4,1,-4,-6,1,1,-30
-5,-5,0,5,-3,-4,1,-3,-5,2,1,-29
-6,-6,0,7,-3,-4,1,-3,-5,1,1,-30
-8,-8,0,9,-4,-5,1,-2,-5,0,0,-30
-7,-6,0,7,-3,-4,2,-1,-4,1,1,-29
-4,-4,0,4,-1,-2,3,0,-3,2,3,-28
-5,-5,-1,5,-1,-3,2,-1,-4,1,2,-28
-7,-8,-1,7,-2,-5,2,-2,-5,0,0,-29
-6,-8,-2,6,-2,-5,2,-1,-4,0,0,-29
-7,-8,-1,7,-3,-5,3,-1,-4,0,0,-28
-11,-11,0,10,-5,-6,3,-1,-4,0,0,-28
-12,-12,0,11,-6,-6,3,-1,-4,0,0,-29
-7,-10,-2,8,-2,-6,2,0,-3,0,0,-29
-2,-6,-3,5,0,-4,2,1,-2,1,1,-28
0,-3,-2,2,1,-2,1,3,-1,3,3,-27
-1,-3,0,2,0,-2,0,4,-1,2,2,-27
-6,-6,0,6,-3,-3,-1,4,-3,0,0,-28
-8,-8,0,8,-3,-4,-3,4,-4,-2,-1,-29
-6,-7,-1,6,-2,-4,-4,5,-4,-1,-1,-29
-3,-4,-1,3,-1,-2,-4,7,-3,0,0,-28
-1,-2,-1,1,0,-1,-4,7,-3,0,1,-28
-2,-4,-2,3,0,-3,-5,7,-3,0,1,-29
-4,-8,-3,6,0,-5,-6,5,-4,-1,0,-30
-5,-9,-4,7,0,-6,-6,4,-5,-1,0,-30
-4,-7,-4,5,0,-5,-6,4,-4,0,0,-29
-4,-7,-3,5,0,-5,-5,3,-4,0,0,-29
-6,-8,-2,7,-2,-5,-5,2,-5,-1,-1,-29
-5,-6,-1,5,-2,-3,-3,2,-5,-1,-1,-28
-3,-3,0,3,-1,-1,-1,2,-3,0,0,-27
-3,-3,0,3,-1,-2,-1,1,-3,0,0,-28
-4,-5,-1,5,-1,-3,-1,0,-3,0,-1,-28
-3,-5,-1,4,0,-3,0,-1,-3,0,-1,-28
-3,-5,-1,4,0,-4,0,-2,-3,0,-1,-28
-5,-7,-1,6,-2,-4,0,-4,-3,0,-1,-29
-4,-5,-1,5,-2,-3,1,-5,-3,0,-1,-28
0,0,0,0,-1,0,3,-4,0,2,1,-26
2,5,2,-3,0,4,5,-3,1,4,4,-24
0,4,3,-2,-1,4,5,-4,1,4,4,-25
-5,-1,3,3,-4,1,3,-6,0,3,2,-27
-8,-3,4,5,-5,0,2,-7,0,2,1,-28
-5,-1,5,3,-4,1,3,-7,1,4,2,-28
-1,2,5,0,-2,3,3,-6,2,5,3,-26
2,6,5,-4,0,5,4,-5,3,7,4,-25
1,7,5,-4,-1,5,4,-5,3,7,4,-25
-2,4,6,-1,-4,4,4,-6,2,6,4,-25
-4,2,6,1,-5,4,4,-7,2,5,4,-26
-7,-1,6,4,-6,2,4,-7,1,4,3,-28
-11,-5,7,8,-8,1,3,-8,0,3,2,-29
-11,-4,7,7,-8,1,4,-8,0,4,2,-29
-10,-3,8,6,-8,2,4,-8,0,4,2,-29
-9,-2,8,6,-8,2,4,-9,0,5,3,-29
-3,4,8,0,-6,5,6,-7,1,7,5,-28
2,10,8,-6,-3,9,7,-5,3,9,7,-26
0,9,8,-5,-3,9,7,-5,3,9,7,-26
-3,6,9,-1,-6,8,7,-5,3,9,7,-27
-4,6,10,-1,-6,9,8,-4,4,10,9,-26
-2,7,10,-2,-5,9,9,-4,4,11,10,-25
-1,7,9,-3,-5,8,8,-5,3,11,10,-26
-3,5,9,-1,-6,6,6,-6,3,10,10,-27
-8,0,9,3,-9,4,4,-8,2,10,9,-28
-12,-2,10,7,-11,3,2,-9,1,9,9,-29
-12,0,11,6,-11,4,3,-10,1,9,10,-29
-8,2,9,3,-9,5,3,-9,1,9,10,-29
-6,1,7,2,-6,4,3,-9,1,8,9,-30
-5,1,5,2,-5,3,2,-9,0,8,9,-31
-1,5,6,-2,-3,5,3,-6,2,9,10,-30
3,9,6,-6,-1,7,4,-4,3,11,11,-29
2,8,6,-5,-2,7,3,-3,3,11,11,-30
-1,6,6,-3,-4,6,2,-2,4,11,11,-31
-2,6,7,-3,-5,8,3,0,5,12,12,-31
0,10,9,-6,-4,10,5,2,8,14,14,-30
1,12,11,-7,-5,12,7,4,12,17,16,-30
-2,12,14,-5,-7,13,8,6,15,21,17,-30
-5,11,17,-3,-11,14,9,8,20,25,19,-30
-7,12,19,-3,-12,15,11,9,23,28,21,-30
-8,11,20,-2,-13,15,11,10,26,30,23,-30
-10,10,21,0,-15,15,12,11,28,33,25,-29
-12,10,22,0,-17,16,12,13,32,36,28,-27
-11,12,23,0,-17,18,13,16,36,40,32,-24
-7,15,22,-4,-15,19,14,21,40,45,36,-20
-3,18,22,-7,-13,20,14,27,46,50,42,-15
1,21,20,-11,-9,20,14,33,51,55,47,-8
7,23,17,-16,-4,20,12,39,54,60,53,0
13,25,12,-20,0,19,9,43,56,64,59,10
20,27,8,-24,6,18,5,46,57,69,67,22
27,30,3,-29,12,17,0,47,57,73,74,34
33,31,-1,-32,17,16,-6,44,53,75,81,47
39,32,-7,-35,23,13,-14,39,47,75,87,60
44,31,-13,-37,28,9,-23,31,38,74,94,75
51,32,-18,-42,35,7,-32,21,27,72,100,91
62,39,-22,-51,42,8,-39,7,14,69,105,104
74,47,-26,-61,50,10,-44,-10,0,60,104,111
81,51,-29,-67,55,11,-46,-30,-20,45,95,109
78,48,-30,-63,54,10,-48,-54,-44,21,77,94
65,39,-26,-52,46,7,-47,-84,-71,-8,51,68
49,28,-21,-38,35,4,-43,-115,-99,-40,19,32
35,17,-19,-26,28,0,-39,-141,-125,-72,-14,-5
25,4,-21,-14,24,-8,-38,-159,-147,-101,-45,-40
17,-11,-27,-3,22,-19,-38,-169,-165,-123,-70,-70
11,-25,-34,6,22,-30,-38,-171,-175,-137,-87,-90
5,-35,-38,14,22,-37,-39,-168,-178,-144,-96,-102
0,-41,-39,20,20,-40,-40,-163,-175,-144,-100,-107
0,-39,-38,20,19,-38,-38,-152,-165,-138,-97,-107
-1,-34,-33,18,17,-33,-34,-138,-150,-128,-91,-103
-4,-32,-29,18,12,-30,-30,-122,-135,-117,-85,-98
-8,-31,-25,20,9,-28,-26,-106,-119,-105,-79,-93
-9,-29,-20,19,6,-25,-21,-91,-103,-92,-72,-88
-8,-25,-16,16,4,-21,-15,-77,-88,-79,-64,-82
-5,-21,-15,13,4,-18,-10,-66,-76,-68,-57,-76
-5,-21,-15,13,4,-18,-6,-58,-67,-60,-52,-73
-7,-22,-14,14,3,-18,-4,-50,-58,-53,-46,-69
-9,-20,-11,14,1,-15,-2,-42,-48,-45,-40,-64
-10,-18,-8,14,0,-13,-1,-35,-40,-37,-34,-60
-12,-17,-5,14,-2,-11,0,-28,-32,-29,-28,-56
-13,-16,-3,15,-4,-10,0,-22,-26,-23,-24,-53
-14,-16,-1,15,-5,-9,1,-17,-21,-18,-20,-50
-11,-11,0,11,-5,-6,3,-12,-15,-12,-15,-46
-9,-7,3,8,-6,-2,5,-8,-9,-7,-10,-41
-11,-6,5,9,-8,-1,6,-7,-6,-3,-6,-38
-12,-6,5,9,-9,0,6,-5,-4,-1,-3,-35
-12,-7,5,10,-8,0,6,-4,-1,1,-2,-33
-12,-7,5,10,-8,0,6,-3,0,3,0,-32
-12,-7,5,10,-8,-1,6,-2,2,4,0,-31
-13,-9,5,11,-8,-2,5,-1,2,5,0,-31
-13,-9,4,11,-8,-3,5,-1,3,5,0,-31
-12,-9,4,11,-8,-3,5,0,3,6,0,-30
-11,-9,3,10,-7,-3,5,0,3,6,0,-29
-8,-6,2,7,-5,-2,6,0,3,6,1,-28
-2,0,2,2,-2,0,8,3,5,8,3,-25
0,2,1,-1,0,2,9,5,6,9,4,-24
-3,-1,2,3,-2,0,7,4,5,8,4,-25
-11,-8,2,10,-6,-2,6,2,4,6,3,-27
-14,-12,2,13,-8,-4,5,0,3,6,2,-28
-12,-10,2,11,-7,-3,5,0,3,6,3,-27
-9,-7,2,8,-6,-2,6,-1,4,7,3,-25
-10,-7,2,9,-6,-2,6,-1,3,6,3,-25
-9,-7,2,8,-6,-2,5,-1,3,5,3,-25
-5,-2,2,4,-4,0,7,0,5,6,4,-23
-3,0,3,2,-3,1,7,1,6,7,4,-23
-5,-2,3,4,-4,1,7,1,6,7,4,-23
-8,-5,3,7,-5,0,6,1,5,7,3,-23
-11,-9,2,10,-6,-2,5,1,4,5,2,-24
-14,-12,2,13,-8,-4,4,0,2,4,0,-25
-12,-11,2,11,-7,-4,4,0,2,4,0,-24
-9,-8,2,8,-5,-3,4,0,3,4,1,-23
-9,-7,2,8,-5,-3,4,0,3,4,0,-22
-9,-7,2,8,-5,-3,4,1,3,4,0,-22
-6,-4,1,5,-3,-1,5,2,4,5,2,-21
-2,-1,1,2,-1,0,6,4,5,6,3,-20
-2,-2,1,2,-2,0,6,4,4,6,4,-19
-6,-5,1,5,-4,0,6,4,4,6,3,-19
-10,-8,2,9,-7,-1,6,4,3,5,3,-19
-14,-11,3,13,-9,-3,5,4,2,4,2,-19
-13,-10,3,12,-9,-2,5,5,2,4,2,-19
-12,-9,2,11,-7,-3,5,5,1,3,1,-19
-11,-10,0,11,-5,-5,3,3,0,1,0,-20
-5,-6,-2,5,-1,-4,4,4,0,2,0,-18
0,-2,-2,0,1,-2,6,6,2,4,2,-16
-2,-4,-2,3,0,-3,6,5,1,3,2,-16
-6,-9,-2,7,-2,-5,6,3,0,2,0,-18
-7,-10,-3,8,-2,-6,5,3,0,1,0,-18
-7,-9,-2,8,-2,-6,5,3,0,1,0,-18
-8,-10,-2,9,-3,-6,4,3,0,1,-1,-18
-12,-13,-1,13,-5,-7,2,3,-1,0,-2,-18
-10,-12,-1,12,-4,-7,1,3,-1,0,-2,-17
-5,-7,-1,7,-1,-4,2,4,1,2,0,-15
-3,-4,0,4,-1,-2,2,6,3,4,2,-13
-4,-5,0,5,-2,-2,2,6,3,4,2,-12
-6,-6,1,7,-3,-2,1,6,3,4,2,-12
-7,-7,1,8,-4,-3,0,5,3,4,2,-13
-7,-7,0,7,-3,-3,-1,5,3,4,2,-13
-5,-6,0,6,-1,-3,-2,5,3,4,2,-12
-3,-4,0,4,0,-2,-2,5,4,5,2,-12
-2,-2,0,2,0,-1,-2,6,5,6,2,-11
-4,-4,0,4,-2,-1,-3,5,5,6,2,-11
-7,-7,0,7,-4,-3,-4,4,5,5,1,-11
-10,-10,0,10,-5,-4,-5,4,5,5,0,-11
-11,-10,0,11,-6,-4,-5,4,5,5,0,-11
-11,-9,1,10,-6,-3,-5,6,7,6,1,-11
-8,-5,2,6,-4,-1,-4,7,8,8,2,-9
-5,-2,2,4,-3,0,-3,8,10,9,3,-8
-3,0,3,2,-3,1,-2,9,11,10,3,-7
-1,2,3,0,-2,2,-2,9,13,11,4,-6
-3,0,3,1,-3,2,-2,9,13,11,5,-6
-7,-3,4,5,-5,1,-3,8,13,11,4,-6
-6,-1,5,4,-5,2,-2,9,15,13,5,-5
-3,3,6,0,-4,5,-1,11,17,15,7,-3
-3,4,7,0,-5,6,-1,11,18,16,8,-3
-5,4,8,0,-6,6,-2,11,18,16,8,-3
-4,4,8,0,-6,6,-2,11,18,16,9,-3
-4,4,9,0,-6,6,-2,11,19,16,9,-2
-7,2,9,2,-8,5,-3,10,18,16,9,-2
-9,0,10,4,-9,5,-3,10,18,16,9,-2
-8,2,10,3,-9,6,-3,10,19,17,10,-1
-10,2,11,4,-10,7,-4,10,20,17,11,-1
-12,1,12,5,-12,7,-4,10,20,17,11,-1
-8,6,13,1,-11,10,-3,11,21,19,13,0
-4,11,14,-3,-9,12,-2,12,23,20,14,2
-4,10,14,-3,-10,12,-3,11,23,20,14,2
-4,10,14,-3,-9,11,-3,10,23,19,13,3
0,12,13,-6,-6,12,-3,10,23,20,14,4
5,17,12,-11,-2,14,-2,11,24,21,15,6
5,17,11,-11,-2,14,-2,11,23,21,15,6
1,14,12,-8,-4,13,-2,11,21,20,15,6
0,14,13,-7,-6,14,-2,11,21,20,15,7
-4,11,14,-4,-8,13,-4,10,19,19,14,6
-8,5,13,1,-10,9,-6,7,16,16,11,4
-5,7,12,-1,-9,10,-6,7,16,16,12,5
1,14,13,-8,-6,14,-4,9,18,19,14,8
4,17,14,-11,-5,16,-3,10,19,20,15,10
3,16,13,-10,-5,15,-4,9,18,19,15,9
2,15,12,-8,-5,14,-4,8,17,18,14,9
0,14,12,-7,-5,13,-5,7,16,18,14,8
-2,11,12,-4,-7,11,-6,5,14,17,13,7
-2,11,12,-4,-7,11,-6,5,14,16,14,7
2,16,13,-9,-5,14,-5,6,15,18,16,9
5,20,14,-13,-4,17,-4,6,16,19,18,11
3,18,14,-11,-5,16,-5,5,15,18,18,11
-1,13,14,-6,-7,14,-7,4,14,16,16,9
-2,13,14,-5,-8,14,-7,4,13,15,15,9
1,17,14,-9,-6,16,-6,5,15,16,16,10
2,18,14,-10,-6,16,-5,5,16,16,16,11
1,15,14,-8,-6,15,-6,5,15,16,14,11
0,13,13,-6,-6,14,-6,4,15,15,13,11
-1,12,13,-5,-6,13,-7,4,15,15,11,10
-1,11,13,-5,-7,12,-6,4,15,15,10,10
-1,11,13,-5,-7,12,-6,5,15,15,10,10
-1,11,13,-5,-6,12,-6,5,15,14,10,10
-2,10,12,-3,-7,11,-6,4,14,13,9,10
-3,9,12,-2,-7,10,-6,3,14,13,9,9
-2,11,12,-4,-7,11,-4,3,14,13,10,10
0,13,13,-7,-6,12,-3,4,15,14,10,11
0,13,12,-7,-5,12,-3,3,14,13,10,11
0,11,11,-5,-5,10,-4,2,13,11,9,9
-1,8,9,-3,-5,8,-5,1,12,9,8,8
-2,7,9,-2,-5,8,-5,1,12,9,8,8
-1,8,9,-3,-4,8,-5,2,13,9,8,9
2,11,8,-7,-3,10,-3,3,14,10,8,10
3,12,8,-7,-3,10,-3,4,14,10,8,11
-2,7,9,-3,-5,8,-4,4,12,9,7,10
-7,2,9,1,-7,5,-5,3,10,7,6,9
-6,2,9,1,-7,5,-5,3,10,7,6,9
-4,4,9,0,-6,6,-4,4,11,7,7,10
-1,6,9,-3,-4,7,-3,5,11,8,8,10
3,9,7,-7,-1,8,-2,6,12,8,8,11
6,11,6,-9,0,8,-2,7,12,9,8,12
4,11,7,-8,-1,9,-2,7,12,9,8,13
2,9,7,-6,-2,8,-2,6,12,8,8,13
1,7,6,-4,-2,7,-2,5,11,7,8,12
1,6,5,-3,-2,5,-2,5,10,6,7,12
1,5,4,-3,-2,5,-2,5,10,5,7,12
0,4,4,-2,-3,4,-2,4,9,4,7,12
-2,1,4,0,-3,3,-2,4,8,3,6,11
-2,0,2,0,-2,1,-2,4,7,3,5,10
0,1,0,0,0,1,-2,5,6,2,4,10
2,2,-1,-2,2,1,-1,6,6,2,5,10
7,4,-2,-6,4,1,-1,7,7,2,5,10
8,5,-3,-7,5,2,0,7,7,2,6,11
3,1,-1,-2,2,0,-1,6,6,1,5,10
-4,-4,0,4,-1,-2,-2,5,5,0,3,9
-7,-6,0,6,-3,-3,-2,5,4,0,3,8
-6,-5,1,6,-3,-2,-1,6,4,0,3,9
-2,-1,0,1,-1,0,0,7,5,0,3,10
3,3,0,-3,1,2,2,8,6,1,4,11
3,4,0,-3,1,2,3,9,6,1,4,11
0,1,1,0,-1,1,3,8,6,0,3,10
-3,-1,2,2,-2,0,2,8,5,-1,2,9
-4,-2,2,3,-3,0,2,9,4,-1,2,9
-4,-1,3,3,-3,1,3,10,5,0,2,10
-7,-2,4,5,-5,1,3,10,5,0,2,11
-7,-3,4,5,-6,1,3,10,4,-1,1,11
-5,-2,3,4,-4,1,3,10,4,-1,1,10
-4,-2,3,3,-4,1,3,10,4,-1,1,10
-4,-2,3,3,-4,0,3,10,4,-1,0,10
-7,-5,2,6,-5,-1,2,9,3,-2,0,9
-8,-6,2,7,-5,-2,2,8,3,-2,-1,9
-5,-2,2,3,-4,0,3,10,4,0,0,11
-2,0,2,0,-2,2,4,11,5,0,0,12
-2,0,1,1,-2,1,3,10,5,0,-1,12
-2,0,0,1,-1,0,3,10,4,-1,-1,11
0,0,0,0,0,0,3,11,4,-1,-2,11
1,0,0,-1,0,0,3,11,4,-1,-2,11
-1,-2,0,1,0,-1,2,10,3,-2,-2,10
-7,-7,0,7,-4,-3,0,9,2,-3,-4,9
-11,-10,0,10,-6,-4,0,8,1,-4,-4,9
-12,-11,0,11,-7,-4,0,7,1,-4,-5,9
-13,-11,0,12,-7,-5,-1,5,0,-4,-5,9
-11,-10,0,11,-6,-4,0,5,0,-4,-5,9
-8,-7,1,8,-4,-3,1,6,1,-3,-4,10
-6,-5,1,5,-3,-2,2,7,2,-2,-3,10
-5,-4,1,4,-2,-2,2,7,3,-1,-3,10
-4,-3,1,3,-2,-1,3,8,5,0,-2,10
-5,-2,1,3,-3,0,4,9,8,2,-1,10
-7,-3,3,5,-5,0,5,10,11,4,0,11
-10,-3,5,7,-7,1,5,12,14,8,1,12
-12,-4,7,8,-9,1,6,14,18,11,3,12
-13,-5,8,9,-11,1,6,15,21,15,5,13
-14,-4,9,9,-12,2,6,18,26,19,8,15
-13,-2,11,7,-12,3,6,23,32,25,13,19
-10,2,12,4,-12,6,7,30,39,32,20,25
-6,7,13,0,-10,9,8,36,47,39,27,33
1,13,11,-7,-5,12,8,43,53,46,34,42
9,20,10,-14,0,15,7,48,58,54,44,54
16,25,9,-20,3,17,4,52,62,61,54,66
21,28,7,-25,7,18,0,52,62,66,63,77
24,28,5,-26,9,17,-6,48,57,67,70,87
26,27,1,-27,13,14,-14,41,46,63,75,97
34,30,-3,-32,19,13,-20,33,35,61,81,111
45,37,-8,-41,26,14,-26,24,22,58,90,126
54,41,-13,-48,33,14,-32,8,5,52,95,140
60,42,-18,-52,39,12,-40,-13,-17,39,93,147
65,41,-24,-53,44,8,-47,-36,-44,20,84,147
67,38,-28,-52,47,5,-52,-60,-73,-5,68,138
63,33,-29,-48,46,2,-56,-86,-102,-35,44,120
52,25,-26,-39,39,0,-59,-116,-131,-70,14,92
36,10,-25,-24,31,-7,-61,-145,-159,-107,-21,57
23,-5,-29,-9,26,-17,-62,-164,-180,-137,-54,22
18,-17,-36,-1,27,-26,-62,-169,-192,-158,-80,-6
18,-26,-45,4,31,-35,-62,-166,-197,-170,-99,-28
21,-32,-53,5,37,-42,-61,-157,-194,-174,-110,-42
25,-33,-57,4,40,-45,-58,-146,-186,-170,-113,-48
22,-34,-56,6,38,-45,-54,-134,-173,-162,-112,-50
12,-38,-50,13,31,-45,-49,-121,-158,-151,-108,-50
5,-39,-44,16,25,-42,-43,-108,-140,-138,-101,-48
3,-36,-38,16,20,-37,-37,-95,-121,-122,-92,-43
-2,-35,-32,18,14,-34,-33,-83,-105,-108,-84,-38
-7,-32,-25,19,9,-28,-28,-73,-89,-94,-74,-32
-8,-28,-19,18,5,-23,-23,-64,-75,-81,-65,-26
-13,-28,-14,21,0,-20,-20,-57,-64,-71,-58,-23
-17,-27,-10,22,-3,-18,-17,-50,-54,-62,-52,-20
-17,-23,-6,20,-5,-14,-13,-42,-43,-52,-45,-16
-17,-20,-3,18,-7,-11,-9,-35,-34,-44,-38,-13
-16,-16,0,16,-8,-8,-7,-29,-26,-36,-33,-10
-14,-13,1,13,-8,-6,-5,-23,-19,-29,-28,-6
-14,-12,2,13,-8,-5,-4,-20,-14,-24,-24,-3
-15,-13,2,14,-9,-5,-5,-18,-11,-21,-22,-1
-14,-11,3,13,-8,-4,-4,-15,-8,-17,-19,1
-10,-7,4,9,-7,-1,-2,-12,-4,-13,-15,4
-8,-4,5,7,-6,0,-1,-9,0,-9,-11,7
-12,-6,6,9,-9,0,-1,-8,2,-7,-10,8
-15,-8,6,11,-11,-1,-1,-7,3,-6,-9,8
-16,-9,6,12,-11,-2,-2,-7,4,-5,-8,8
-15,-9,5,12,-10,-2,-1,-6,5,-4,-7,9
-9,-3,5,6,-7,1,0,-3,7,-2,-4,12
-3,3,6,0,-4,5,2,-1,9,0,-2,14
-3,4,7,0,-4,6,2,0,9,1,-1,15
-7,0,7,3,-6,4,1,0,8,0,-2,14
-10,-2,7,5,-8,3,1,0,8,-1,-3,13
-8,-2,6,4,-7,2,1,1,8,0,-3,13
-7,-1,6,4,-6,2,2,2,8,0,-2,14
-8,0,7,3,-7,3,3,3,9,1,-2,15
-7,0,7,3,-7,4,4,4,8,1,-1,16
-8,-1,7,4,-7,4,3,4,7,0,-2,16
-10,-3,7,6,-8,3,3,4,6,0,-2,16
-8,-1,7,4,-7,4,3,4,6,0,-2,16
-6,1,8,2,-7,5,4,6,7,1,-1,17
-5,2,8,0,-6,6,5,7,8,2,0,18
-4,3,7,0,-5,6,5,7,8,2,0,18
-5,2,7,0,-6,5,4,7,8,2,0,17
-8,-1,7,4,-7,3,3,6,7,1,-1,16
-10,-2,8,7,-8,3,2,6,6,0,-2,16
-9,-1,8,5,-8,4,2,6,7,0,-1,17
-10,-3,7,6,-8,2,1,5,6,0,-2,17
-13,-6,7,9,-9,0,0,4,4,-1,-3,15
-13,-6,7,9,-10,0,0,4,5,-1,-3,15
-14,-8,7,10,-10,0,0,4,5,-2,-3,14
-14,-7,6,10,-10,0,0,5,6,-1,-3,14
-7,-1,6,4,-6,2,2,8,9,0,-1,16
-3,3,6,0,-5,5,4,10,11,2,0,18
-4,2,7,1,-6,5,4,10,11,2,0,18
-5,1,8,2,-7,5,3,10,11,1,-1,18
-8,-1,8,4,-7,4,2,10,11,0,-2,17
-12,-5,8,8,-10,1,1,9,11,0,-3,16
-15,-8,8,11,-11,0,1,9,11,-1,-4,15
-13,-6,8,9,-10,1,2,11,12,0,-3,15
-9,-2,7,5,-8,2,3,12,13,1,-2,16
-7,-2,6,5,-7,1,3,13,13,0,-2,16
-8,-3,6,6,-7,1,3,13,12,0,-3,15
-7,-3,5,5,-6,1,2,14,12,0,-3,15
-7,-3,4,5,-6,1,2,14,12,0,-4,15
-7,-3,4,5,-6,1,2,15,12,0,-4,15
-6,0,5,3,-5,2,4,16,14,1,-3,15
-4,1,5,1,-4,3,5,16,15,3,-2,16
-6,0,5,2,-5,3,5,15,16,3,-2,16
-8,-2,5,5,-7,1,5,15,15,2,-3,15
-8,-3,5,6,-7,1,5,15,15,2,-3,14
-8,-3,6,6,-7,1,5,15,16,3,-2,15
-8,-2,6,6,-7,2,6,14,17,4,-1,15
-7,-1,7,4,-6,3,6,14,18,5,0,16
-9,-3,7,5,-7,1,5,13,18,5,-1,15
-12,-6,6,9,-8,-1,4,12,17,4,-2,13
-11,-6,5,8,-7,-1,4,11,18,4,-2,13
-8,-3,5,5,-6,0,5,12,19,6,0,15
-6,-1,5,4,-5,1,5,12,20,7,1,16
-6,-1,5,3,-6,2,5,13,21,7,2,17
-8,-1,7,4,-8,3,6,13,23,8,3,18
-10,-2,8,5,-10,3,6,13,24,9,4,19
-10,-2,7,6,-9,2,6,13,24,9,3,18
-9,-2,6,5,-8,1,6,13,24,9,3,18
-7,-2,6,4,-7,1,6,15,25,10,3,18
-6,-1,5,4,-6,1,6,17,25,10,3,18
-5,-2,4,4,-5,0,6,19,25,9,3,17
-7,-5,3,7,-6,-1,5,20,25,9,2,16
-5,-3,3,5,-5,0,5,22,25,10,2,17
3,4,2,-3,0,3,7,26,28,12,5,19
6,6,1,-6,2,4,8,28,29,13,6,20
3,4,1,-3,1,2,8,28,29,13,6,20
2,3,2,-3,0,2,8,29,29,13,6,19
1,3,2,-2,0,2,8,29,29,13,7,19
-1,1,3,0,-2,2,8,29,29,13,7,19
-2,1,4,1,-4,3,8,29,29,13,7,19
-5,0,6,3,-6,3,8,28,29,13,7,19
-6,0,7,3,-7,4,8,28,29,13,7,19
-7,0,8,3,-8,4,8,27,29,13,7,20
-7,1,8,2,-8,5,8,27,29,14,7,21
-5,2,9,1,-7,5,9,26,29,14,7,21
-5,3,9,0,-7,5,9,25,28,13,6,22
-6,2,9,2,-7,5,8,24,27,13,6,21
-9,-1,9,6,-9,4,7,23,26,12,5,20
-13,-4,8,9,-11,2,6,22,24,11,4,20
-11,-3,7,7,-10,2,5,21,23,10,4,20
-7,-1,6,4,-7,3,5,21,23,10,4,21
-6,-1,6,3,-6,2,4,20,22,9,3,21
-5,0,6,1,-5,3,4,19,22,9,4,21
-3,3,6,0,-4,4,5,19,23,10,5,22
-3,4,7,0,-5,5,5,18,23,10,5,23
-2,4,6,0,-4,5,5,16,22,9,5,23
1,6,5,-3,-2,6,6,15,22,10,6,24
4,9,4,-6,0,7,6,14,22,10,6,25
3,6,3,-5,0,5,4,12,20,8,5,25
-1,2,4,-1,-2,3,2,9,17,6,3,23
-4,-1,4,2,-3,1,1,6,16,5,2,23
-6,-3,4,4,-5,0,0,4,15,4,2,22
-9,-6,4,8,-6,-1,-1,1,13,2,1,21
-8,-6,3,7,-6,-1,-2,1,12,2,1,21
-3,0,3,2,-3,1,0,2,13,3,3,22
2,5,3,-3,0,4,0,3,14,4,5,24
5,7,2,-6,1,4,0,3,13,4,6,24
2,4,2,-4,0,3,-1,1,11,3,5,23
-1,1,3,-1,-1,2,-2,0,10,2,4,22
1,3,3,-2,0,2,-1,1,11,2,5,23
2,4,2,-4,0,3,-1,1,11,2,5,24
1,3,2,-2,0,3,-1,1,10,1,5,23
0,3,2,-1,-1,2,-1,0,9,1,5,23
2,3,2,-2,0,2,-1,0,9,1,5,23
1,2,1,-1,0,1,-2,0,7,0,5,23
-1,0,2,0,-2,1,-2,0,7,0,4,23
-1,1,3,0,-2,2,-2,0,7,0,5,24
0,2,2,-1,-1,1,-2,0,6,0,4,24
0,0,0,0,0,0,-3,0,5,-2,3,23
-1,0,0,0,0,-1,-3,0,4,-2,2,23
0,0,0,1,0,0,-2,0,4,-2,2,23
-1,-2,0,2,-1,-1,-2,0,3,-3,1,22
-2,-2,0,2,-1,-1,-2,0,2,-4,1,22
0,-2,0,1,0,-1,-2,0,2,-4,0,22
2,0,-1,-2,2,-1,-2,-1,1,-4,0,23
5,1,-2,-4,4,-1,-2,-2,1,-4,0,23
5,1,-3,-4,4,-1,-2,-3,0,-5,0,23
2,-1,-3,-1,3,-2,-3,-5,-1,-6,-1,22
0,-4,-4,2,2,-4,-4,-7,-3,-8,-3,21
1,-5,-5,2,3,-4,-4,-7,-4,-8,-4,21
2,-3,-5,1,3,-4,-4,-7,-4,-8,-4,21
2,-2,-4,0,3,-3,-5,-7,-4,-8,-4,21
0,-4,-3,2,1,-4,-7,-8,-4,-9,-5,21
-3,-7,-3,4,0,-6,-8,-9,-5,-10,-6,19
-5,-8,-2,6,-1,-6,-9,-10,-5,-10,-7,18
-6,-9,-2,7,-1,-6,-10,-11,-5,-11,-7,18
-4,-6,-2,5,0,-5,-9,-11,-4,-10,-7,18
2,-1,-3,0,3,-3,-9,-11,-4,-9,-6,18
6,1,-4,-3,5,-2,-9,-12,-4,-9,-6,18
5,0,-4,-2,5,-3,-10,-13,-5,-10,-7,18
2,-2,-4,0,3,-4,-11,-14,-5,-10,-7,18
0,-3,-4,1,1,-4,-11,-14,-5,-10,-7,18
0,-3,-3,1,1,-3,-11,-13,-4,-10,-7,19
1,-1,-3,0,2,-2,-10,-13,-3,-9,-7,20
1,-1,-3,0,2,-2,-9,-13,-3,-9,-7,20
-1,-3,-2,2,1,-2,-10,-14,-4,-10,-8,20
-3,-5,-2,4,0,-3,-10,-15,-5,-11,-8,19
-2,-5,-2,4,0,-3,-10,-15,-6,-11,-8,19
-1,-5,-3,3,0,-3,-10,-16,-6,-11,-8,19
0,-2,-3,1,1,-3,-9,-15,-5,-11,-8,20
4,1,-3,-3,3,-1,-8,-14,-3,-9,-7,21
2,1,-2,-2,2,0,-7,-14,-2,-9,-7,21
-3,-3,-1,3,-1,-2,-8,-16,-3,-10,-8,21
-4,-4,0,4,-2,-2,-8,-17,-4,-10,-8,21
-3,-4,0,4,-2,-2,-8,-17,-4,-10,-8,21
-8,-7,1,8,-4,-3,-9,-19,-5,-11,-9,20
-11,-9,1,11,-6,-4,-9,-20,-6,-11,-10,19
-8,-6,2,7,-5,-2,-8,-19,-5,-10,-9,20
-2,0,2,1,-2,0,-7,-17,-3,-8,-8,22
1,4,2,-3,0,2,-6,-16,-1,-7,-6,23
2,6,3,-5,0,4,-5,-16,0,-6,-5,24
3,7,4,-5,0,5,-5,-15,0,-5,-5,24
4,7,3,-5,0,5,-5,-14,0,-5,-4,25
3,7,3,-5,0,5,-5,-13,0,-5,-4,25
2,6,4,-4,-1,5,-5,-12,1,-5,-4,25
4,7,4,-5,0,6,-4,-10,1,-5,-4,25
8,11,3,-9,2,7,-4,-8,2,-4,-4,26
9,11,2,-10,3,6,-4,-7,2,-4,-4,25
5,7,2,-6,2,4,-5,-7,1,-5,-5,24
0,2,3,-1,0,2,-6,-8,0,-6,-6,23
-3,-1,3,2,-2,1,-6,-8,0,-6,-6,23
-5,-2,4,4,-3,1,-5,-9,0,-6,-6,23
-5,-2,4,4,-4,1,-5,-9,0,-6,-6,23
-5,-2,3,3,-4,1,-5,-9,0,-7,-6,23
-5,-2,3,3,-4,0,-6,-9,0,-7,-7,22
-4,-1,2,2,-3,0,-6,-8,0,-7,-6,22
-2,0,3,0,-3,2,-5,-7,2,-6,-5,24
-2,2,5,0,-3,3,-5,-6,3,-5,-4,25
-2,3,6,0,-4,4,-5,-5,4,-4,-3,26
-2,4,7,-1,-4,6,-4,-4,6,-3,-2,27
-4,4,8,0,-6,6,-3,-5,6,-3,-2,27
-6,2,8,1,-7,6,-4,-6,6,-3,-3,26
-5,2,6,1,-6,4,-4,-6,6,-3,-3,25
-4,1,5,1,-5,3,-5,-7,5,-4,-3,25
-3,0,5,1,-4,2,-5,-8,5,-4,-3,24
-1,3,5,-1,-3,3,-4,-7,7,-2,-2,25
2,8,5,-5,-2,7,-2,-5,10,1,0,26
2,9,6,-6,-2,8,-1,-4,12,4,0,26
0,8,8,-4,-4,8,-1,-3,14,6,1,26
-2,8,9,-3,-6,9,0,-1,17,10,2,26
-2,9,11,-4,-7,10,1,2,21,13,4,27
-5,8,13,-2,-9,10,2,6,26,17,7,28
-11,4,14,3,-12,9,1,10,30,21,10,29
-16,0,15,8,-15,7,0,13,34,25,12,31
-14,1,16,7,-15,8,0,19,41,32,18,37
-3,12,16,-4,-10,14,2,27,51,42,27,46
8,22,14,-15,-3,19,4,35,59,50,37,57
13,26,13,-19,0,20,2,41,63,57,45,67
15,27,12,-21,1,20,0,45,66,63,53,77
21,32,10,-26,5,21,-3,47,68,69,62,90
31,39,7,-35,12,22,-7,47,67,73,70,104
39,42,3,-41,18,22,-13,42,60,72,76,116
48,46,-2,-47,25,21,-20,35,51,70,82,130
57,50,-8,-53,32,20,-28,25,40,67,88,144
63,51,-12,-57,37,19,-36,8,24,61,92,155
68,52,-16,-59,41,18,-42,-11,6,50,92,163
70,50,-20,-60,44,15,-47,-33,-16,34,85,163
67,43,-23,-55,45,10,-52,-57,-43,9,68,152
60,36,-23,-49,42,6,-54,-84,-71,-20,45,133
53,32,-19,-43,36,6,-52,-114,-99,-53,16,106
41,24,-17,-32,29,3,-51,-143,-127,-88,-17,73
29,9,-20,-19,24,-5,-52,-164,-151,-119,-49,38
25,-3,-28,-11,26,-15,-53,-174,-168,-143,-76,8
24,-13,-37,-6,30,-24,-53,-174,-177,-157,-94,-15
21,-22,-43,0,32,-32,-53,-168,-177,-163,-106,-30
19,-25,-44,2,31,-35,-50,-158,-171,-161,-109,-37
17,-24,-41,3,29,-33,-46,-145,-158,-153,-106,-37
14,-22,-35,4,25,-29,-41,-131,-143,-142,-101,-35
8,-22,-29,8,19,-26,-36,-117,-126,-129,-95,-32
0,-23,-23,12,12,-24,-31,-104,-110,-115,-88,-28
-3,-21,-18,13,8,-20,-26,-92,-94,-101,-80,-24
-1,-15,-15,8,7,-15,-20,-80,-79,-87,-71,-19
1,-11,-12,5,6,-11,-14,-70,-65,-75,-63,-14
-4,-14,-10,8,3,-11,-11,-62,-56,-66,-57,-11
-10,-17,-7,13,-1,-12,-9,-56,-47,-59,-52,-10
-10,-17,-6,13,-2,-11,-7,-49,-39,-52,-47,-8
-11,-17,-4,14,-3,-11,-6,-43,-32,-45,-43,-6
-13,-17,-3,15,-5,-10,-5,-37,-25,-39,-39,-4
-14,-17,-2,16,-6,-10,-5,-32,-19,-33,-35,-2
-15,-17,-2,16,-6,-10,-4,-28,-14,-28,-32,0
-14,-15,-2,14,-7,-9,-2,-23,-9,-23,-27,3
-12,-12,0,11,-7,-6,0,-18,-4,-17,-22,6
-9,-7,2,7,-6,-3,2,-14,0,-12,-17,10
-7,-4,3,5,-5,-1,4,-10,4,-9,-14,12
-8,-5,4,6,-6,-1,4,-7,6,-7,-13,13
-11,-8,4,9,-7,-2,4,-6,7,-6,-12,13
-11,-7,4,9,-7,-2,4,-4,9,-5,-11,14
-8,-5,4,6,-6,0,4,-3,11,-2,-9,15
-8,-4,5,6,-6,0,5,-2,12,-1,-7,16
-11,-5,5,8,-8,0,5,-1,12,0,-6,16
-12,-6,6,8,-9,0,6,-1,12,0,-6,16
-10,-3,7,6,-9,1,7,1,13,1,-4,18
-8,-2,7,5,-8,2,8,2,14,2,-3,18
-7,-2,5,4,-6,1,8,3,14,2,-4,17
-5,-1,4,3,-4,0,8,2,14,2,-4,16
-5,-1,3,3,-4,0,8,1,14,2,-5,16
-4,-1,3,2,-3,0,8,0,13,2,-5,15
-2,0,2,1,-2,0,9,0,13,1,-5,15
-2,-1,1,1,-2,0,9,-1,12,0,-6,14
-3,-1,2,2,-3,0,9,-1,12,0,-6,14
-3,-2,2,3,-3,0,9,-2,12,0,-6,14
-4,-3,2,4,-3,-1,9,-2,11,0,-6,13
-5,-5,1,5,-3,-2,8,-3,10,-1,-7,12
-7,-7,1,7,-3,-4,7,-4,10,-1,-7,11
-11,-11,1,11,-6,-5,6,-5,9,-2,-7,10
-15,-13,2,14,-8,-6,6,-6,8,-3,-7,9
-13,-11,2,11,-7,-5,7,-5,9,-2,-7,10
-8,-7,1,7,-5,-3,8,-4,10,-1,-6,11
-5,-4,1,4,-3,-2,9,-3,10,-1,-5,11
-3,-3,0,3,-2,-1,10,-3,11,0,-5,12
-7,-6,0,7,-4,-3,9,-3,10,-1,-6,11
-11,-10,1,11,-6,-4,8,-4,10,-2,-6,9
-7,-6,1,7,-4,-2,10,-2,11,0,-5,10
-4,-2,1,3,-2,0,12,0,13,2,-3,11
-7,-6,1,7,-4,-1,11,-1,13,1,-4,10
-11,-10,0,10,-6,-4,9,-1,12,0,-5,8
-11,-11,0,11,-6,-5,8,-1,11,0,-5,7
-12,-12,0,12,-7,-6,7,-1,10,-1,-5,6
-13,-13,0,13,-7,-6,7,-1,9,-2,-6,5
-13,-13,0,13,-6,-6,7,-1,9,-2,-6,5
-12,-12,0,12,-6,-5,8,0,10,-2,-6,5
-11,-10,0,10,-6,-4,9,0,11,-1,-5,6
-8,-8,0,8,-4,-3,10,1,12,0,-4,6
-6,-7,0,6,-3,-3,10,1,13,1,-4,6
-6,-7,-1,7,-3,-4,10,1,12,0,-4,6
-5,-8,-2,7,-2,-5,10,1,11,0,-5,5
-4,-8,-3,6,-1,-5,10,2,11,-1,-6,5
-4,-7,-3,6,0,-5,10,3,12,0,-5,5
-5,-9,-3,7,-1,-6,10,4,12,0,-5,5
-9,-12,-3,10,-3,-7,9,4,12,0,-6,3
-13,-14,-1,13,-6,-7,8,3,12,0,-5,2
-16,-15,0,15,-8,-7,6,3,12,0,-5,2
-15,-15,0,15,-8,-7,5,2,12,0,-4,2
-5,-6,0,5,-3,-3,6,5,15,3,-1,4
4,3,0,-3,2,1,8,8,18,7,2,7
2,1,0,-1,1,0,6,8,18,7,2,6
-4,-5,0,5,-2,-3,2,7,17,5,0,4
-8,-8,0,8,-4,-4,1,7,17,4,0,2
-8,-8,0,8,-4,-3,1,9,17,4,0,2
-8,-6,1,7,-4,-3,2,10,18,5,0,2
-6,-5,1,6,-4,-2,4,12,20,7,0,2
-6,-5,1,6,-4,-2,4,13,20,8,0,2
-6,-4,2,5,-4,-2,5,14,21,9,1,3
-3,-1,1,2,-2,-1,6,17,23,10,2,4
-2,-2,0,2,-1,-1,6,18,24,10,1,4
-6,-6,0,6,-2,-3,4,18,24,10,0,3
-11,-10,0,10,-5,-4,3,18,23,9,-1,2
-14,-12,1,13,-7,-5,2,18,23,9,-1,1
-13,-11,2,12,-7,-4,2,18,23,10,-1,1
-13,-9,3,11,-8,-3,3,19,24,11,0,2
-15,-11,4,13,-10,-3,2,18,25,12,0,2
-16,-10,6,13,-11,-2,2,18,25,13,1,3
-10,-4,7,7,-9,2,4,21,27,15,3,5
-3,3,7,0,-6,6,6,23,28,16,6,8
0,8,8,-4,-4,8,8,25,29,17,7,10
0,8,9,-4,-4,9,9,26,30,18,8,11
-3,6,9,-1,-6,8,8,26,29,18,7,11
-3,5,8,-1,-5,7,8,26,29,18,7,10
0,7,7,-3,-3,7,8,26,29,18,7,10
1,7,6,-4,-2,7,7,24,28,17,7,10
0,6,7,-3,-3,6,6,22,28,17,7,9
-3,4,8,0,-5,6,5,19,27,16,7,9
-4,4,8,0,-5,6,5,17,28,17,8,9
-1,6,8,-2,-4,7,5,16,29,19,9,10
-1,8,9,-3,-5,8,5,16,29,20,10,10
-4,8,11,-2,-7,9,5,15,28,20,11,10
-4,9,13,-2,-9,10,5,14,28,20,11,10
-1,12,14,-6,-7,12,6,13,29,21,12,11
2,15,14,-9,-6,14,6,13,29,21,13,12
-1,11,13,-5,-7,12,4,11,27,19,11,11
-7,4,12,1,-9,8,2,8,24,15,9,9
-4,5,9,-1,-6,7,1,6,23,15,8,9
1,10,8,-5,-3,9,2,6,24,16,9,10
2,12,10,-7,-3,10,2,6,24,16,10,10
2,13,11,-7,-4,11,3,6,24,16,10,10
2,13,10,-7,-4,10,3,6,24,16,10,10
2,12,10,-7,-4,10,2,5,24,16,10,10
2,11,9,-7,-4,10,2,4,23,16,10,9
2,11,9,-7,-3,11,2,4,23,16,10,9
2,11,10,-6,-4,11,2,3,22,15,10,9
2,11,10,-6,-4,11,2,2,22,16,11,9
2,12,10,-7,-4,11,2,1,22,16,11,10
0,11,11,-5,-5,11,1,0,22,16,11,10
-1,10,12,-4,-6,10,1,-2,21,15,11,9
-1,11,12,-5,-7,11,0,-3,20,14,10,9
-1,11,12,-5,-7,11,0,-4,19,13,10,9
-3,8,11,-3,-7,10,0,-6,18,11,8,8
-5,2,8,1,-7,6,-2,-8,15,8,6,5
-7,-1,7,3,-7,3,-4,-10,13,6,4,4
-3,3,7,0,-5,5,-3,-9,14,8,5,6
2,9,7,-5,-3,8,-1,-8,16,10,6,7
0,9,8,-4,-4,8,-1,-9,15,11,7,7
-4,6,10,-1,-7,7,-2,-10,15,10,7,6
-3,7,10,-2,-7,8,-1,-10,15,10,7,6
0,9,9,-5,-4,9,0,-9,14,9,8,6
4,12,8,-8,-2,10,1,-8,14,9,8,6
8,14,7,-11,0,11,2,-8,14,8,8,6
7,12,7,-10,0,9,2,-8,13,8,7,5
0,5,6,-3,-2,5,0,-11,11,6,5,3
-4,0,5,2,-4,2,-2,-13,9,4,4,1
-3,0,4,1,-3,2,-1,-13,8,4,4,1
-1,2,3,-1,-2,3,0,-13,8,4,4,1
0,3,3,-2,-1,3,0,-13,8,4,5,1
0,3,3,-2,-1,4,0,-13,9,4,5,1
0,3,4,-2,-2,4,0,-14,9,4,5,1
0,4,4,-2,-2,4,0,-14,9,5,5,1
1,5,4,-3,-1,5,0,-14,10,7,6,2
1,6,4,-4,-1,5,0,-14,10,8,6,2
2,7,4,-5,0,5,1,-14,10,7,7,2
2,6,3,-5,0,4,1,-15,9,5,6,0
-2,1,2,0,-2,2,0,-17,6,2,3,-2
-6,-3,3,4,-4,0,0,-18,5,0,1,-4
-1,2,3,-1,-2,3,1,-16,7,2,2,-2
7,11,3,-9,2,7,4,-14,9,5,4,0
11,14,2,-12,4,8,5,-13,9,5,5,0
9,12,2,-10,3,6,4,-13,8,3,3,-1
5,8,2,-6,1,4,4,-14,7,2,2,-2
2,5,2,-3,0,3,3,-15,7,2,2,-3
3,4,2,-4,0,3,3,-14,8,3,2,-3
5,5,0,-5,2,3,3,-13,8,3,2,-4
5,3,-1,-4,3,1,3,-13,6,1,1,-6
4,1,-2,-2,3,0,2,-13,5,0,0,-7
4,0,-3,-1,3,-2,2,-13,4,0,-1,-8
2,-3,-4,1,3,-4,1,-13,2,-2,-2,-10
0,-6,-5,3,2,-6,0,-14,1,-4,-4,-11
0,-6,-5,3,3,-6,0,-13,1,-4,-4,-11
0,-5,-5,2,3,-5,1,-13,1,-3,-3,-10
0,-4,-4,2,3,-4,2,-12,2,-2,-2,-8
0,-3,-3,2,2,-3,3,-11,3,-1,-1,-5
-1,-5,-3,4,1,-4,2,-11,3,-1,-2,-3
-8,-10,-2,9,-3,-6,1,-11,1,-3,-4,-2
-12,-13,0,13,-6,-7,1,-12,0,-5,-5,-1
-10,-9,0,9,-6,-4,2,-10,1,-4,-5,2
-4,-2,0,3,-3,-1,5,-8,4,-1,-3,7
0,1,0,-1,0,0,7,-6,5,0,-1,10
1,2,0,-2,1,1,8,-5,6,1,0,11
3,3,0,-3,1,2,9,-4,8,2,1,13
4,4,0,-4,2,2,10,-4,8,3,2,14
2,2,0,-2,1,1,10,-4,7,2,1,14
0,0,0,0,0,0,11,-5,6,0,1,13
-2,-2,0,2,0,-1,11,-5,5,0,0,13
-5,-4,0,5,-2,-3,11,-5,5,0,0,13
-7,-5,1,6,-4,-3,12,-4,5,0,0,14
-5,-4,1,4,-3,-2,13,-3,6,0,1,15
-3,-3,0,3,-2,-2,13,-3,6,0,1,15
-3,-5,-2,4,-1,-3,13,-3,6,0,0,14
-5,-8,-2,7,-2,-5,12,-3,6,0,0,13
-8,-10,-2,9,-3,-6,12,-2,6,0,0,13
-7,-9,-2,8,-2,-5,13,-1,7,1,1,13
-5,-6,-1,6,-2,-4,14,1,10,4,2,14
-5,-6,-1,5,-2,-3,15,4,13,6,3,14
-6,-6,0,6,-4,-3,16,6,17,9,4,14
-7,-4,2,6,-5,-1,18,10,22,14,7,16
-6,0,6,3,-6,2,20,14,28,20,12,19
-3,6,9,-1,-6,7,22,20,36,28,18,23
-1,9,11,-4,-7,10,23,26,43,35,24,28
-4,7,12,-1,-8,10,21,29,48,40,28,32
-5,6,12,0,-9,9,19,34,52,44,32,36
0,10,11,-5,-6,11,19,41,58,50,38,44
8,19,11,-13,-1,14,19,47,63,57,47,55
15,25,10,-20,2,17,17,52,66,63,56,67
21,28,8,-24,7,17,13,54,68,69,65,79
27,30,3,-28,12,16,8,52,67,71,73,90
31,30,-1,-30,16,14,1,46,60,71,79,101
39,32,-7,-35,23,12,-5,39,52,70,85,113
51,38,-13,-44,32,12,-12,30,42,69,93,128
60,41,-19,-50,39,11,-19,17,29,64,98,141
67,44,-23,-55,45,11,-27,0,11,54,99,149
73,45,-27,-59,50,9,-33,-21,-11,38,92,150
71,39,-31,-55,51,4,-38,-45,-37,14,76,140
63,29,-33,-46,49,-2,-41,-70,-66,-14,53,121
52,20,-32,-36,43,-6,-41,-99,-94,-45,25,94
40,11,-29,-26,35,-8,-38,-128,-120,-77,-6,61
28,0,-29,-14,29,-14,-37,-152,-144,-107,-37,27
22,-11,-35,-5,29,-23,-36,-166,-162,-131,-63,-3
25,-18,-44,-3,35,-31,-35,-168,-173,-146,-83,-25
27,-25,-52,-1,39,-38,-34,-165,-177,-154,-95,-41
25,-31,-56,3,40,-44,-34,-158,-175,-156,-101,-51
21,-35,-55,7,38,-45,-33,-149,-167,-151,-101,-54
15,-37,-52,11,33,-45,-30,-137,-156,-143,-98,-54
8,-39,-47,15,27,-43,-27,-124,-142,-132,-94,-52
2,-39,-42,18,22,-41,-24,-110,-126,-119,-87,-47
-2,-38,-37,20,17,-38,-20,-97,-109,-104,-78,-41
-7,-37,-31,22,11,-34,-17,-86,-94,-90,-69,-35
-11,-36,-24,23,6,-30,-14,-78,-82,-79,-61,-31
-14,-33,-19,24,1,-26,-11,-69,-71,-69,-54,-26
-15,-30,-14,23,-1,-22,-8,-60,-61,-60,-47,-22
-16,-27,-11,22,-3,-19,-4,-52,-51,-51,-41,-18
-17,-24,-8,21,-5,-16,-1,-43,-40,-42,-35,-14
-16,-20,-5,18,-6,-12,1,-36,-31,-34,-29,-9
-14,-16,-4,15,-6,-10,2,-30,-23,-27,-24,-6
-12,-14,-3,14,-5,-9,3,-25,-17,-21,-20,-3
-12,-15,-3,14,-5,-9,3,-22,-12,-17,-17,-1
