leadI,leadII,leadIII,leadaVR,leadaVL,leadaVF,leadV1,leadV2,leadV3,leadV4,leadV5,leadV6
-1,0,1,0,-1,0,1,1,3,-2,-4,0
-2,0,2,1,-2,0,2,4,7,-6,-10,0
-2,0,2,1,-2,0,2,6,10,-9,-14,0
-2,-1,2,2,-2,0,2,7,11,-10,-16,0
-2,-1,2,1,-2,0,2,8,12,-11,-17,1
-2,0,2,1,-2,1,2,9,14,-11,-17,1
-2,0,3,0,-3,2,2,10,15,-10,-17,2
-3,1,4,0,-3,2,1,11,15,-10,-17,3
-2,2,5,0,-3,3,1,11,16,-9,-17,3
-1,3,5,0,-3,3,1,11,16,-8,-16,4
-1,3,5,0,-3,3,1,12,17,-8,-16,4
-1,2,4,0,-3,2,0,12,17,-8,-16,4
0,1,3,0,-2,2,0,12,17,-7,-16,3
0,1,3,0,-2,2,0,12,17,-7,-16,3
0,2,3,-1,-2,2,0,12,17,-6,-16,3
-1,1,3,0,-2,2,-1,12,17,-6,-16,3
-1,1,3,0,-2,2,-1,12,17,-6,-16,3
-1,1,3,0,-1,2,-1,11,17,-6,-16,3
0,1,3,-1,-1,2,-1,10,17,-6,-16,3
0,1,3,-1,-1,2,-1,10,17,-7,-16,3
1,2,2,-1,0,2,-1,9,17,-7,-16,3
1,2,2,-1,0,2,-1,9,17,-7,-17,3
0,2,2,-1,-1,2,-1,9,17,-7,-17,3
0,2,3,0,-1,2,-1,9,17,-7,-17,3
0,2,2,-1,-1,2,-1,9,17,-6,-17,3
2,3,1,-2,1,1,-1,8,17,-6,-17,3
3,3,1,-3,1,1,-1,8,17,-5,-17,3
2,3,2,-3,0,2,-1,9,17,-5,-17,4
1,3,3,-2,0,2,-1,9,17,-5,-17,4
0,3,3,-2,-1,2,-1,9,17,-5,-17,4
0,3,4,-2,-1,2,-1,9,17,-4,-17,5
0,3,3,-1,-1,2,-1,9,17,-4,-17,5
0,2,3,-1,-1,2,-1,8,16,-4,-18,4
-1,2,3,0,-2,2,-1,8,16,-5,-18,4
-2,1,4,0,-2,2,-1,8,16,-5,-19,4
-2,1,4,0,-2,2,-2,8,16,-5,-19,3
-2,1,4,0,-2,2,-2,7,16,-6,-20,3
-1,1,4,0,-2,2,-2,7,15,-6,-20,3
-1,2,4,-1,-2,3,-2,8,15,-6,-20,4
0,3,4,-2,-1,3,-2,8,15,-6,-19,4
1,4,3,-3,-1,3,-3,8,15,-6,-19,4
1,4,2,-3,0,3,-3,7,15,-6,-20,4
1,4,2,-2,-1,3,-3,8,14,-6,-20,4
0,4,3,-2,-1,3,-3,9,14,-6,-20,4
0,4,4,-1,-2,3,-3,9,14,-5,-21,4
0,3,4,-1,-2,3,-4,8,13,-5,-21,4
0,4,4,-2,-2,3,-4,8,13,-5,-22,4
1,4,4,-2,-1,3,-4,8,12,-5,-22,4
1,4,3,-3,-1,3,-6,8,11,-6,-23,3
2,4,2,-3,0,2,-7,7,10,-7,-25,3
3,4,1,-3,1,2,-7,5,9,-8,-26,3
3,4,1,-4,1,2,-8,4,9,-9,-26,3
3,5,2,-4,1,2,-8,3,8,-9,-27,3
2,4,3,-3,1,3,-8,2,7,-10,-27,3
1,4,3,-3,0,2,-9,1,5,-11,-28,2
1,3,2,-2,0,2,-10,0,4,-12,-29,2
2,4,1,-3,1,2,-11,0,2,-12,-30,2
3,4,1,-4,1,2,-12,-1,1,-13,-31,2
3,5,1,-4,1,3,-13,-2,0,-13,-31,2
3,5,1,-4,1,3,-14,-3,-1,-14,-32,2
4,5,1,-4,1,3,-15,-4,-2,-16,-32,2
4,5,2,-4,1,3,-16,-5,-4,-17,-33,2
3,5,2,-4,1,4,-17,-7,-6,-18,-33,2
3,5,2,-4,1,3,-19,-8,-8,-20,-34,2
4,6,1,-4,1,3,-20,-10,-10,-21,-35,2
4,6,2,-5,1,4,-21,-12,-11,-23,-36,2
3,6,3,-5,0,5,-22,-13,-13,-24,-36,2
3,7,4,-5,-1,5,-23,-15,-15,-25,-37,3
4,7,3,-6,0,5,-24,-18,-17,-26,-38,2
5,7,3,-6,1,5,-26,-21,-20,-28,-39,1
4,7,3,-6,0,5,-27,-24,-22,-29,-40,1
4,8,3,-6,0,5,-29,-26,-24,-31,-40,1
6,9,3,-8,1,6,-30,-27,-26,-33,-41,2
7,10,2,-8,2,6,-31,-29,-28,-34,-42,2
7,10,2,-8,3,5,-32,-30,-30,-36,-43,1
8,9,1,-9,3,5,-34,-32,-32,-37,-44,1
8,9,0,-8,4,4,-35,-34,-34,-39,-45,1
8,9,1,-8,3,4,-36,-35,-36,-40,-46,1
8,9,1,-8,3,5,-37,-36,-37,-41,-46,1
8,10,1,-9,4,5,-38,-37,-39,-42,-46,1
8,10,1,-9,4,5,-39,-38,-40,-43,-47,1
7,9,1,-8,3,5,-40,-39,-42,-44,-48,0
6,8,1,-7,3,4,-41,-40,-43,-45,-49,0
6,8,1,-7,3,4,-41,-40,-44,-46,-49,0
7,9,1,-8,3,5,-41,-40,-45,-46,-49,0
8,10,1,-9,3,5,-41,-40,-45,-46,-49,0
8,9,1,-9,3,5,-42,-40,-45,-47,-50,0
9,8,0,-8,4,4,-42,-41,-46,-48,-51,-1
9,7,-1,-8,5,3,-43,-42,-47,-49,-52,-2
8,6,-1,-7,4,3,-42,-42,-47,-49,-53,-2
7,5,-1,-6,4,2,-42,-41,-48,-50,-53,-3
8,5,-2,-6,5,1,-42,-41,-48,-51,-54,-3
7,4,-3,-6,6,1,-41,-40,-48,-51,-54,-4
7,4,-3,-5,6,0,-40,-39,-47,-51,-54,-4
7,3,-3,-5,6,0,-40,-39,-47,-51,-54,-4
7,3,-4,-5,6,0,-40,-39,-47,-51,-55,-4
7,3,-4,-5,6,0,-40,-38,-47,-51,-56,-5
8,4,-4,-6,6,0,-39,-38,-46,-51,-56,-5
8,4,-4,-7,6,0,-38,-37,-45,-50,-57,-6
7,4,-3,-6,5,1,-37,-35,-44,-50,-57,-6
5,4,-2,-5,4,1,-35,-34,-43,-50,-57,-6
5,3,-3,-5,4,0,-34,-33,-43,-50,-58,-7
6,2,-5,-5,6,-1,-34,-31,-42,-51,-60,-8
6,1,-5,-4,6,-2,-32,-30,-41,-51,-61,-9
3,0,-5,-2,4,-2,-30,-29,-40,-51,-61,-10
2,-2,-4,0,3,-3,-28,-27,-39,-51,-62,-10
1,-3,-4,0,3,-3,-27,-25,-38,-51,-62,-10
1,-3,-5,0,3,-4,-25,-23,-37,-51,-62,-10
1,-4,-5,1,4,-5,-25,-22,-37,-51,-63,-10
2,-5,-7,1,4,-6,-24,-21,-36,-52,-64,-11
2,-5,-7,1,5,-7,-24,-22,-36,-52,-64,-12
2,-4,-7,1,4,-6,-24,-22,-35,-52,-64,-13
3,-4,-7,0,4,-6,-23,-22,-34,-52,-64,-13
3,-3,-7,0,5,-6,-22,-21,-33,-51,-64,-12
3,-3,-6,0,5,-6,-21,-20,-32,-51,-63,-12
3,-2,-5,-1,5,-5,-20,-19,-30,-50,-62,-11
4,-2,-6,-2,6,-4,-19,-18,-28,-49,-62,-10
6,-2,-8,-2,8,-5,-18,-17,-27,-49,-62,-11
6,-3,-10,-2,9,-7,-18,-17,-27,-49,-62,-11
6,-4,-11,-1,9,-8,-18,-17,-27,-49,-63,-12
7,-5,-14,-1,11,-9,-18,-16,-27,-50,-64,-12
9,-6,-15,-1,12,-10,-17,-15,-27,-51,-65,-13
9,-6,-16,-2,13,-11,-15,-14,-26,-51,-65,-13
9,-6,-16,-1,13,-12,-14,-13,-26,-51,-65,-14
8,-7,-16,-1,12,-12,-12,-13,-25,-51,-64,-13
7,-7,-15,-1,12,-12,-11,-13,-24,-51,-64,-13
7,-7,-15,-1,12,-12,-10,-13,-23,-51,-63,-12
7,-7,-15,-1,11,-11,-10,-12,-22,-51,-63,-12
7,-6,-14,-1,11,-11,-9,-12,-22,-52,-63,-11
7,-6,-14,-1,11,-10,-9,-11,-21,-52,-63,-11
7,-5,-13,-1,10,-9,-9,-11,-21,-52,-63,-11
5,-4,-10,-1,8,-7,-7,-10,-20,-51,-62,-10
4,-3,-8,-1,7,-6,-6,-9,-19,-51,-62,-9
3,-3,-6,-1,6,-5,-4,-8,-18,-50,-62,-9
2,-4,-6,0,5,-5,-3,-8,-17,-50,-62,-9
0,-5,-6,1,4,-5,-2,-7,-16,-49,-62,-10
0,-5,-6,2,3,-5,-1,-7,-16,-48,-62,-10
0,-5,-6,3,3,-6,-1,-7,-16,-48,-63,-11
0,-5,-6,2,3,-6,-1,-7,-16,-47,-63,-11
0,-5,-6,2,3,-5,-1,-6,-16,-47,-63,-12
0,-5,-5,2,2,-5,-1,-5,-16,-47,-64,-12
0,-5,-5,2,3,-5,0,-5,-16,-47,-65,-13
0,-5,-5,2,3,-5,0,-5,-15,-46,-65,-13
-1,-5,-4,4,2,-5,0,-5,-15,-45,-64,-13
-3,-6,-3,5,1,-5,0,-4,-14,-44,-64,-12
-4,-7,-3,6,0,-5,0,-3,-14,-43,-64,-12
-3,-8,-4,6,1,-6,0,-4,-14,-43,-64,-12
-2,-7,-5,5,1,-7,0,-4,-14,-42,-64,-12
-2,-6,-4,4,1,-6,1,-5,-13,-42,-63,-10
-1,-5,-4,3,1,-5,1,-5,-12,-41,-62,-9
0,-4,-4,1,2,-5,1,-4,-12,-41,-62,-9
1,-4,-5,1,3,-5,1,-3,-11,-41,-62,-9
2,-4,-6,1,4,-5,2,-1,-10,-40,-63,-10
3,-4,-8,0,6,-6,2,0,-9,-39,-63,-10
5,-4,-10,-1,8,-7,2,1,-8,-38,-63,-10
6,-4,-10,-1,8,-7,2,1,-7,-38,-63,-10
6,-3,-9,-1,8,-6,1,0,-8,-39,-63,-10
6,-1,-7,-2,6,-4,-1,-4,-12,-40,-63,-9
6,1,-4,-3,5,-1,-5,-12,-18,-43,-63,-7
5,5,0,-5,3,2,-10,-22,-26,-47,-62,-4
4,10,5,-6,0,7,-16,-31,-35,-50,-60,1
7,15,7,-10,0,11,-21,-38,-42,-51,-56,8
11,20,8,-15,2,14,-26,-43,-46,-49,-48,18
14,25,9,-20,3,17,-28,-46,-48,-44,-38,29
17,29,10,-24,3,19,-30,-47,-48,-38,-28,39
21,32,10,-27,5,21,-33,-49,-49,-33,-18,49
26,35,9,-31,8,22,-35,-51,-49,-28,-11,57
30,39,9,-35,11,23,-37,-52,-49,-24,-7,62
33,42,9,-38,12,25,-37,-51,-47,-21,-4,67
36,46,10,-41,13,28,-37,-50,-45,-17,0,71
38,50,11,-44,14,30,-36,-47,-43,-13,3,76
39,53,13,-46,14,33,-36,-44,-40,-10,8,81
39,54,15,-47,12,34,-34,-41,-38,-8,11,84
37,55,18,-46,10,36,-32,-38,-37,-8,11,85
33,56,22,-45,5,39,-31,-36,-36,-11,8,83
29,56,27,-43,1,41,-28,-34,-35,-16,3,80
24,54,30,-39,-2,42,-24,-31,-34,-21,-3,75
19,49,29,-34,-4,39,-20,-26,-33,-26,-12,67
15,42,26,-29,-4,33,-13,-20,-31,-31,-25,54
9,32,22,-21,-6,27,-4,-9,-25,-37,-40,38
2,21,19,-12,-8,20,7,4,-16,-41,-57,19
-3,13,16,-5,-10,15,19,19,-5,-42,-70,3
-8,6,14,0,-11,10,29,34,6,-40,-78,-8
-11,1,13,4,-12,7,39,49,20,-36,-82,-15
-15,-1,14,8,-14,6,50,65,35,-30,-82,-19
-18,-3,16,10,-16,6,61,81,50,-23,-81,-21
-20,-4,16,11,-18,6,71,96,65,-16,-79,-21
-21,-4,17,12,-19,6,81,108,79,-10,-76,-21
-23,-4,18,13,-21,7,89,118,90,-5,-73,-20
-25,-4,20,14,-23,8,96,124,98,-2,-71,-19
-26,-3,23,14,-25,9,102,126,104,0,-68,-18
-26,-2,25,14,-26,11,106,124,107,2,-66,-17
-26,0,26,13,-26,12,109,118,106,2,-65,-16
-25,1,27,12,-26,13,111,109,102,2,-65,-16
-26,2,28,12,-27,15,114,100,97,1,-65,-15
-28,2,30,13,-29,16,115,88,87,-1,-65,-16
-31,1,31,15,-31,16,115,74,74,-5,-67,-17
-33,-1,31,17,-32,15,114,59,60,-11,-69,-18
-34,-4,29,18,-31,12,113,46,47,-16,-71,-19
-33,-6,26,19,-29,9,112,36,37,-19,-72,-20
-32,-8,23,20,-27,7,111,28,29,-20,-73,-20
-31,-10,22,20,-26,5,109,22,22,-20,-73,-19
-31,-10,20,21,-25,4,105,17,17,-20,-73,-19
-30,-11,19,20,-24,4,101,14,14,-19,-74,-19
-30,-10,19,20,-24,4,98,13,13,-19,-74,-19
-29,-9,19,19,-24,4,95,14,13,-18,-74,-18
-28,-9,19,18,-23,4,90,15,14,-17,-73,-18
-27,-8,18,17,-23,4,84,14,14,-16,-72,-17
-26,-7,18,16,-22,5,76,14,16,-14,-70,-15
-23,-4,18,13,-20,6,64,12,17,-12,-68,-13
-18,-2,16,10,-18,6,51,10,17,-10,-67,-12
-14,0,14,7,-15,7,40,8,18,-8,-65,-10
-11,2,12,4,-12,7,31,8,18,-7,-62,-8
-7,2,10,2,-9,6,24,8,18,-6,-60,-6
-5,2,7,1,-6,5,19,8,19,-5,-57,-4
-4,1,5,1,-5,3,15,8,20,-3,-55,-2
-4,0,4,1,-4,2,12,9,22,-1,-52,-1
-3,1,4,0,-4,2,10,11,24,0,-50,1
-1,1,3,0,-2,2,8,13,25,1,-49,2
0,1,1,-1,0,1,5,13,26,1,-49,2
1,1,0,-2,1,0,3,14,26,1,-48,3
2,1,-1,-2,1,0,2,14,26,0,-48,3
3,1,-2,-2,2,0,1,15,26,0,-48,3
3,1,-3,-2,3,0,1,15,25,0,-48,3
3,0,-3,-2,3,-1,0,16,25,-1,-48,4
4,0,-4,-2,4,-2,0,16,25,-1,-48,4
3,0,-4,-2,3,-2,0,16,25,-1,-48,4
3,-1,-4,-1,3,-2,0,15,26,0,-48,4
3,-1,-4,-1,3,-2,-1,15,26,0,-48,4
4,0,-5,-2,4,-2,-1,14,26,1,-48,4
5,0,-5,-3,5,-2,-1,13,26,2,-48,4
4,0,-4,-3,4,-2,-1,12,26,3,-48,4
5,1,-4,-3,4,-1,0,12,27,4,-48,5
5,2,-3,-4,4,0,0,13,27,5,-47,5
5,3,-3,-4,4,0,1,14,28,6,-47,6
5,2,-2,-4,3,0,1,14,28,6,-47,6
4,2,-2,-3,3,0,0,14,28,7,-47,6
3,1,-2,-2,3,0,0,14,28,8,-47,6
3,1,-2,-2,3,0,0,14,28,9,-48,6
3,1,-2,-2,3,0,0,14,28,10,-49,5
4,1,-3,-2,4,-1,0,14,27,11,-49,5
4,0,-4,-3,5,-2,-1,14,27,11,-50,4
5,0,-5,-3,6,-3,-1,13,26,12,-50,4
6,0,-6,-3,7,-4,-2,14,26,12,-51,4
6,-1,-7,-3,7,-4,-2,14,26,12,-51,4
6,0,-6,-3,6,-4,-2,15,26,13,-50,5
6,0,-5,-3,6,-3,-1,16,26,14,-50,5
7,1,-6,-4,7,-3,-1,17,27,14,-50,5
9,1,-7,-5,8,-3,-1,17,26,14,-51,5
9,0,-9,-5,9,-4,-1,16,26,14,-51,4
8,-1,-9,-4,9,-5,-1,16,26,14,-52,4
8,-1,-9,-4,9,-5,-1,16,25,14,-52,4
8,0,-9,-4,9,-4,-1,16,25,14,-53,4
6,-1,-8,-3,6,-4,-2,15,24,14,-53,3
3,-3,-6,0,4,-4,-2,15,24,14,-54,3
3,-3,-6,0,4,-4,-3,14,23,14,-55,2
4,-3,-8,-1,6,-5,-3,13,22,14,-55,2
5,-3,-8,-2,7,-5,-3,13,22,14,-55,2
5,-3,-8,-2,7,-5,-3,13,22,14,-55,2
4,-2,-8,-2,6,-5,-3,12,22,14,-56,2
6,-1,-8,-3,7,-5,-3,11,21,14,-56,2
7,0,-9,-4,8,-6,-4,10,21,14,-57,2
8,0,-9,-4,9,-6,-4,9,20,13,-58,1
8,-1,-9,-4,9,-6,-5,8,19,13,-58,1
6,-2,-9,-2,8,-6,-5,7,19,12,-58,1
5,-4,-9,-1,7,-6,-5,6,18,12,-58,1
5,-5,-10,0,7,-7,-6,5,17,11,-59,0
5,-5,-10,-1,7,-7,-6,5,16,10,-59,0
5,-4,-9,-1,7,-7,-7,4,15,10,-59,0
6,-3,-9,-2,8,-7,-7,4,14,9,-59,0
7,-3,-10,-2,9,-7,-8,3,13,9,-60,0
7,-3,-10,-2,9,-8,-8,1,12,8,-60,-1
7,-4,-11,-1,9,-8,-9,0,10,7,-61,-1
7,-5,-12,-1,9,-9,-10,-2,9,7,-61,-1
7,-5,-12,-1,9,-9,-10,-2,8,6,-62,-1
6,-5,-12,-1,9,-9,-11,-1,7,6,-62,-1
6,-6,-12,0,9,-9,-12,-2,5,5,-63,-1
5,-6,-12,0,9,-10,-13,-5,3,3,-64,-2
5,-7,-13,0,9,-11,-15,-7,1,2,-65,-3
7,-7,-14,0,10,-11,-16,-9,-1,0,-66,-3
9,-6,-15,-2,11,-11,-18,-10,-3,0,-66,-4
9,-5,-14,-2,11,-10,-19,-10,-5,-1,-67,-4
9,-5,-14,-2,11,-9,-20,-12,-7,-3,-67,-4
9,-5,-14,-2,12,-10,-21,-14,-9,-4,-68,-4
10,-5,-15,-3,12,-10,-22,-15,-11,-6,-69,-4
10,-5,-15,-3,12,-10,-22,-17,-12,-8,-68,-4
8,-4,-13,-2,10,-9,-23,-18,-14,-9,-67,-3
7,-5,-12,-1,9,-9,-24,-20,-16,-10,-67,-3
8,-5,-13,-1,10,-9,-25,-22,-18,-11,-67,-4
8,-5,-13,-1,11,-10,-27,-24,-21,-12,-66,-4
9,-5,-14,-1,11,-10,-28,-25,-23,-13,-65,-4
9,-5,-14,-2,11,-10,-29,-27,-25,-15,-63,-4
9,-5,-14,-3,12,-10,-30,-29,-27,-16,-61,-5
10,-4,-15,-4,12,-9,-32,-31,-30,-18,-58,-5
11,-3,-15,-4,13,-9,-34,-33,-32,-20,-55,-5
11,-3,-15,-4,13,-10,-35,-34,-34,-22,-52,-6
10,-3,-14,-3,12,-10,-36,-36,-36,-24,-49,-6
8,-3,-12,-2,10,-8,-36,-37,-37,-24,-45,-6
7,-4,-11,-1,9,-7,-36,-37,-38,-25,-40,-5
6,-4,-11,-1,8,-7,-37,-38,-40,-26,-36,-5
6,-4,-11,-1,8,-8,-37,-39,-41,-27,-30,-5
7,-5,-12,-2,9,-9,-38,-39,-42,-28,-24,-5
8,-5,-13,-2,10,-9,-38,-38,-42,-29,-18,-5
8,-5,-13,-2,10,-9,-38,-39,-43,-30,-11,-6
9,-5,-14,-2,12,-10,-39,-40,-44,-31,-5,-6
10,-5,-15,-3,13,-10,-39,-41,-45,-32,0,-7
10,-5,-15,-3,13,-9,-39,-41,-46,-33,6,-8
9,-5,-14,-2,12,-9,-39,-41,-46,-33,13,-8
8,-5,-13,-2,11,-9,-38,-41,-45,-33,21,-9
8,-4,-13,-2,10,-9,-38,-40,-45,-33,28,-9
8,-4,-13,-3,10,-8,-37,-39,-44,-33,36,-9
7,-4,-12,-2,9,-8,-36,-37,-43,-33,43,-8
6,-4,-11,-1,8,-8,-35,-36,-42,-33,49,-8
5,-4,-10,0,8,-8,-34,-34,-42,-33,53,-8
6,-5,-11,0,8,-8,-33,-33,-41,-33,56,-9
6,-5,-12,0,9,-8,-32,-32,-41,-33,59,-9
6,-5,-12,0,9,-8,-31,-31,-39,-32,63,-9
5,-6,-12,0,8,-9,-30,-29,-38,-31,66,-9
4,-7,-12,1,8,-9,-29,-28,-37,-30,68,-9
4,-8,-12,2,8,-10,-27,-26,-35,-30,71,-9
4,-8,-11,2,8,-9,-25,-23,-33,-29,74,-9
3,-7,-10,2,7,-8,-23,-20,-31,-27,77,-9
3,-6,-9,1,7,-8,-21,-19,-29,-26,79,-9
4,-7,-11,1,8,-9,-21,-18,-28,-26,80,-9
5,-8,-13,1,9,-10,-20,-19,-28,-26,81,-10
5,-8,-14,1,9,-11,-19,-19,-27,-26,82,-11
4,-9,-13,2,8,-11,-18,-19,-26,-25,83,-12
1,-9,-10,4,5,-10,-17,-18,-24,-24,85,-11
0,-9,-8,4,4,-9,-15,-18,-22,-23,87,-11
1,-8,-9,3,5,-9,-14,-17,-21,-23,89,-11
3,-7,-10,2,7,-9,-12,-16,-20,-22,90,-11
3,-7,-9,2,7,-9,-10,-14,-18,-21,91,-10
2,-8,-10,3,6,-9,-9,-11,-18,-20,92,-10
2,-8,-11,3,6,-10,-8,-10,-17,-19,92,-10
3,-7,-12,2,7,-10,-7,-8,-16,-18,92,-10
4,-6,-11,0,7,-9,-6,-7,-15,-17,93,-9
4,-5,-10,0,7,-8,-6,-7,-14,-17,93,-9
3,-6,-9,1,6,-8,-5,-6,-14,-17,93,-10
2,-7,-9,2,6,-8,-5,-5,-14,-17,92,-11
2,-8,-10,3,6,-10,-5,-3,-14,-16,92,-11
1,-9,-10,3,6,-10,-4,-2,-13,-16,92,-11
0,-10,-9,4,4,-10,-3,-2,-12,-15,92,-11
-1,-10,-8,5,3,-9,-2,-1,-12,-14,92,-11
0,-10,-9,4,4,-9,-2,-1,-12,-14,92,-11
0,-9,-9,4,4,-9,-1,-1,-12,-14,92,-11
1,-9,-10,3,5,-10,-2,-2,-12,-14,92,-11
2,-9,-11,3,6,-10,-2,-2,-11,-14,93,-11
2,-8,-10,2,6,-9,-1,-2,-11,-13,93,-11
1,-7,-8,2,5,-8,-1,-2,-10,-12,94,-10
1,-6,-7,2,4,-7,-1,-3,-10,-11,94,-10
1,-6,-7,2,4,-7,-1,-3,-10,-11,93,-10
1,-7,-8,2,4,-7,-1,-4,-10,-11,93,-11
0,-7,-8,3,3,-7,0,-4,-9,-11,93,-11
0,-8,-8,3,3,-8,0,-4,-9,-11,93,-11
0,-8,-9,3,4,-8,0,-3,-9,-11,92,-11
1,-9,-10,3,5,-9,0,-3,-9,-11,92,-11
1,-9,-10,3,5,-9,0,-4,-9,-11,91,-11
1,-10,-11,3,5,-10,0,-5,-9,-11,90,-12
2,-10,-11,3,6,-10,0,-6,-10,-11,89,-13
2,-9,-11,2,6,-10,-1,-6,-10,-10,88,-13
2,-8,-9,2,5,-8,0,-6,-10,-9,88,-13
1,-6,-7,2,4,-7,0,-5,-9,-8,88,-12
1,-6,-6,2,4,-6,0,-4,-8,-7,88,-11
0,-7,-6,3,3,-7,0,-4,-8,-7,88,-11
0,-8,-6,4,3,-7,0,-4,-8,-7,87,-11
0,-7,-7,4,4,-7,0,-5,-8,-6,87,-11
1,-6,-7,3,4,-7,0,-5,-8,-5,87,-11
2,-6,-8,2,5,-7,0,-5,-8,-4,87,-11
2,-7,-9,2,5,-8,0,-5,-9,-4,86,-12
1,-8,-10,3,5,-9,0,-5,-9,-4,85,-12
1,-8,-10,3,5,-9,-1,-5,-10,-4,85,-13
2,-8,-10,2,5,-9,-1,-5,-10,-3,85,-12
3,-6,-9,1,6,-8,0,-5,-10,-2,85,-12
4,-5,-9,0,6,-7,0,-5,-9,-2,86,-11
3,-5,-8,0,5,-7,0,-4,-9,-1,86,-11
2,-6,-7,1,4,-7,0,-3,-9,-1,86,-11
2,-6,-7,1,4,-7,0,-3,-9,-1,86,-11
2,-6,-7,1,4,-7,0,-3,-9,-1,86,-11
1,-6,-6,2,3,-6,0,-3,-9,-1,86,-10
0,-6,-6,2,2,-6,0,-4,-9,-1,86,-10
0,-6,-6,3,3,-6,0,-5,-9,-1,86,-11
-1,-6,-6,3,2,-6,0,-6,-9,-1,86,-11
-1,-6,-5,4,1,-6,0,-6,-9,-1,85,-11
0,-6,-7,3,3,-7,-1,-7,-10,-2,84,-12
0,-7,-8,3,4,-8,-2,-7,-11,-4,83,-12
0,-8,-8,4,4,-8,-2,-7,-11,-4,83,-13
0,-8,-8,3,4,-8,-1,-7,-11,-4,83,-13
0,-7,-7,3,4,-8,-1,-7,-11,-4,83,-13
0,-8,-7,4,3,-8,-1,-6,-11,-4,83,-13
0,-8,-8,4,4,-8,-1,-6,-11,-4,83,-12
1,-7,-9,2,5,-8,-1,-6,-11,-4,83,-12
2,-7,-9,2,6,-8,-1,-6,-11,-4,83,-12
2,-7,-9,2,6,-8,-1,-6,-11,-3,84,-12
2,-6,-9,1,6,-8,-1,-5,-10,-3,84,-11
3,-6,-9,1,6,-8,-1,-6,-10,-3,84,-11
2,-7,-10,1,6,-9,-2,-7,-11,-3,84,-12
2,-7,-10,2,6,-9,-2,-7,-11,-3,84,-12
1,-7,-9,2,5,-8,-2,-7,-11,-3,84,-12
2,-7,-10,2,6,-9,-2,-7,-11,-4,84,-12
2,-7,-11,2,6,-9,-2,-7,-11,-4,84,-13
2,-8,-11,3,6,-10,-2,-6,-11,-4,83,-12
1,-8,-10,3,5,-10,-2,-6,-11,-4,83,-12
1,-9,-10,3,5,-10,-2,-5,-11,-4,83,-12
1,-9,-10,3,5,-10,-2,-5,-11,-3,83,-11
1,-9,-9,3,5,-9,-2,-4,-11,-3,84,-11
0,-8,-8,3,4,-8,-1,-4,-10,-2,84,-10
0,-8,-8,3,4,-8,-1,-3,-10,-2,84,-10
1,-8,-8,3,4,-8,0,-3,-10,-2,84,-10
2,-7,-8,2,5,-8,0,-3,-9,-2,85,-9
2,-7,-9,2,5,-8,0,-2,-9,-2,84,-9
3,-7,-9,2,5,-8,0,-2,-10,-2,84,-10
3,-7,-10,2,6,-9,-1,-3,-10,-2,83,-10
2,-8,-10,3,6,-9,-1,-3,-10,-3,83,-11
2,-9,-10,3,6,-9,-1,-4,-10,-3,83,-11
1,-9,-9,4,5,-9,-1,-4,-10,-2,84,-10
0,-9,-9,4,4,-9,-1,-4,-9,-2,84,-10
1,-9,-10,4,5,-9,-1,-5,-10,-3,83,-11
1,-9,-11,4,6,-10,-2,-5,-10,-3,83,-11
1,-9,-10,4,6,-10,-2,-6,-10,-3,82,-11
2,-9,-11,3,6,-10,-2,-6,-11,-3,82,-11
5,-8,-12,1,8,-10,-2,-6,-11,-3,82,-11
4,-8,-12,1,8,-10,-2,-5,-10,-3,82,-10
2,-8,-10,3,6,-9,-1,-4,-9,-3,83,-10
0,-9,-9,4,5,-9,-1,-4,-10,-3,85,-10
0,-9,-9,4,4,-9,-2,-4,-10,-4,85,-10
0,-9,-9,5,3,-9,-1,-3,-10,-3,86,-10
-1,-9,-8,5,2,-8,-1,-3,-10,-3,87,-10
-2,-10,-7,6,2,-8,0,-4,-9,-2,88,-9
-2,-10,-7,6,2,-8,0,-4,-9,-2,89,-9
-1,-10,-8,6,3,-9,-1,-4,-9,-3,89,-10
0,-10,-9,5,5,-10,-2,-5,-10,-4,88,-10
0,-9,-10,4,6,-10,-2,-5,-10,-5,89,-10
1,-8,-10,3,6,-9,-2,-4,-10,-5,89,-10
2,-8,-11,3,6,-10,-2,-4,-10,-5,89,-10
2,-9,-11,3,6,-10,-2,-4,-10,-6,89,-10
2,-9,-11,3,6,-10,-2,-4,-10,-6,90,-10
1,-10,-10,4,5,-10,-2,-4,-9,-6,90,-9
1,-10,-10,4,5,-10,-2,-4,-9,-6,90,-9
1,-10,-11,4,6,-11,-2,-4,-9,-7,90,-10
1,-10,-11,4,6,-11,-2,-5,-9,-7,90,-10
0,-11,-11,5,5,-11,-2,-6,-10,-8,90,-11
0,-11,-11,6,4,-11,-2,-6,-10,-8,90,-11
-1,-11,-10,6,3,-11,-2,-6,-9,-8,90,-10
-1,-11,-9,6,2,-10,-2,-6,-9,-8,90,-10
0,-10,-9,5,3,-10,-2,-6,-9,-8,90,-9
2,-9,-10,3,5,-10,-2,-6,-9,-8,90,-9
4,-7,-10,2,7,-9,-2,-5,-8,-8,90,-8
4,-6,-10,1,7,-8,-1,-5,-7,-8,91,-8
4,-5,-9,1,6,-7,-1,-4,-6,-7,92,-7
1,-6,-8,3,5,-7,-1,-4,-6,-8,92,-7
0,-7,-7,4,4,-8,-1,-3,-6,-8,91,-7
0,-7,-8,4,4,-8,-1,-3,-6,-9,91,-7
3,-5,-8,2,6,-7,-1,-2,-6,-9,91,-7
4,-4,-8,0,7,-6,-1,-2,-6,-9,91,-7
4,-4,-8,0,7,-6,-1,-2,-6,-9,91,-7
4,-5,-9,0,7,-7,-1,-2,-6,-9,91,-8
4,-5,-9,0,7,-7,-1,-3,-6,-10,91,-8
3,-4,-8,0,5,-6,0,-2,-6,-9,91,-8
2,-2,-6,0,4,-4,1,-1,-4,-8,93,-7
2,-1,-4,0,3,-3,1,-1,-3,-7,94,-6
3,-1,-4,-1,3,-2,1,-1,-3,-7,94,-5
4,0,-4,-2,4,-2,0,-2,-3,-7,94,-5
5,0,-3,-3,5,-1,0,-3,-3,-7,94,-5
5,1,-3,-3,4,-1,0,-3,-3,-7,94,-5
5,1,-3,-3,4,-1,0,-3,-3,-7,94,-5
4,1,-4,-2,3,-1,-1,-2,-3,-7,94,-5
4,1,-4,-2,3,-1,-1,-1,-3,-7,94,-4
4,1,-4,-2,3,-1,-2,-1,-3,-7,94,-4
4,0,-4,-2,3,-1,-2,-1,-3,-7,94,-4
4,0,-4,-1,3,-2,-3,-1,-3,-7,94,-4
4,-1,-4,-1,4,-2,-4,-2,-3,-7,94,-4
5,0,-5,-2,5,-3,-5,-3,-3,-7,94,-4
6,0,-6,-3,6,-3,-6,-4,-3,-6,95,-3
7,0,-7,-4,6,-3,-7,-5,-4,-6,95,-3
7,0,-8,-4,7,-4,-8,-6,-4,-7,94,-3
8,0,-9,-4,8,-5,-9,-6,-5,-7,94,-3
8,0,-10,-4,9,-5,-10,-6,-5,-7,93,-3
9,0,-10,-5,10,-5,-9,-5,-5,-7,93,-3
9,0,-10,-5,10,-5,-9,-5,-5,-7,93,-3
9,0,-10,-5,10,-5,-9,-5,-5,-7,93,-3
9,0,-9,-5,10,-5,-8,-5,-5,-7,93,-3
8,0,-8,-4,8,-5,-8,-5,-4,-7,93,-3
6,-1,-7,-3,7,-5,-7,-5,-4,-7,93,-3
6,-1,-8,-3,8,-5,-7,-6,-5,-8,93,-4
8,-1,-10,-3,9,-6,-8,-7,-6,-8,92,-4
8,-2,-11,-3,10,-6,-8,-7,-7,-9,92,-4
7,-3,-11,-1,9,-7,-9,-7,-7,-9,91,-4
6,-4,-11,0,8,-7,-9,-7,-8,-10,90,-5
6,-5,-12,0,9,-8,-10,-8,-9,-11,89,-5
7,-5,-12,-1,9,-9,-10,-8,-9,-11,89,-5
7,-4,-11,-1,9,-9,-10,-8,-9,-11,89,-5
7,-4,-12,-2,9,-9,-10,-7,-9,-12,89,-5
7,-4,-12,-1,9,-9,-9,-7,-9,-12,88,-5
5,-4,-10,-1,8,-8,-8,-7,-9,-12,88,-5
5,-4,-10,0,7,-7,-7,-6,-8,-12,88,-5
4,-6,-10,0,7,-8,-7,-5,-8,-12,88,-5
3,-7,-10,1,7,-9,-7,-5,-8,-13,87,-6
3,-8,-11,2,7,-9,-7,-5,-8,-13,87,-7
3,-7,-11,1,7,-9,-6,-6,-8,-13,87,-7
4,-6,-10,1,7,-8,-5,-6,-7,-13,87,-7
3,-6,-9,1,6,-8,-4,-6,-7,-13,87,-7
1,-6,-8,3,4,-7,-3,-7,-7,-13,86,-7
-1,-7,-7,4,3,-7,-2,-7,-7,-13,86,-7
-1,-8,-7,5,3,-7,-2,-6,-7,-13,86,-7
-1,-9,-8,6,3,-8,-2,-6,-7,-13,85,-8
-2,-10,-8,6,3,-9,-2,-6,-7,-13,85,-8
-2,-11,-8,7,3,-10,-2,-6,-7,-13,84,-9
-2,-12,-9,7,4,-11,-2,-8,-8,-14,83,-9
-1,-12,-9,7,4,-11,-3,-9,-9,-14,83,-10
-1,-11,-10,6,5,-11,-3,-10,-9,-15,82,-10
0,-11,-11,6,6,-12,-3,-11,-10,-15,81,-11
0,-12,-11,6,6,-12,-4,-11,-10,-16,80,-11
-1,-12,-10,6,5,-11,-3,-11,-9,-16,80,-11
-1,-11,-10,6,5,-11,-3,-12,-9,-16,80,-11
0,-11,-10,5,6,-11,-3,-13,-9,-16,80,-11
0,-11,-11,4,6,-11,-3,-13,-9,-16,80,-11
0,-11,-11,5,6,-11,-3,-13,-9,-17,80,-11
0,-12,-11,6,5,-12,-3,-13,-9,-17,80,-11
-1,-12,-10,6,5,-12,-2,-12,-9,-17,80,-11
-1,-11,-10,6,5,-11,-2,-11,-9,-17,80,-10
0,-11,-10,6,6,-11,-2,-11,-9,-18,79,-10
0,-11,-10,6,5,-11,-2,-11,-9,-18,79,-10
0,-11,-10,6,5,-11,-2,-10,-9,-18,79,-10
0,-12,-11,6,5,-12,-2,-9,-9,-19,78,-11
-1,-14,-12,7,6,-13,-2,-8,-9,-20,77,-12
-1,-15,-13,8,6,-14,-1,-6,-8,-21,76,-13
-1,-16,-15,8,7,-16,0,-5,-8,-21,75,-14
0,-17,-16,8,8,-17,0,-3,-7,-21,74,-15
-1,-17,-16,9,8,-17,1,-3,-7,-22,73,-15
-1,-16,-15,8,7,-16,0,-4,-8,-24,72,-16
0,-14,-14,7,7,-14,-2,-9,-12,-27,70,-16
0,-11,-12,6,6,-12,-6,-17,-18,-31,68,-15
0,-9,-10,4,5,-9,-11,-25,-25,-35,68,-14
1,-6,-8,2,5,-7,-15,-32,-32,-38,69,-11
2,-4,-8,1,5,-6,-20,-37,-38,-40,71,-6
5,-2,-8,-1,6,-5,-23,-41,-42,-39,77,0
9,0,-9,-4,9,-4,-27,-43,-45,-36,85,8
14,3,-10,-8,12,-4,-30,-45,-47,-32,93,18
20,7,-13,-13,17,-4,-33,-47,-48,-27,102,27
27,10,-16,-18,22,-4,-37,-50,-49,-22,112,37
33,13,-19,-23,27,-3,-39,-52,-50,-19,119,44
36,15,-21,-26,29,-3,-41,-53,-52,-17,123,49
38,15,-23,-27,30,-3,-41,-53,-53,-18,124,51
39,15,-24,-27,31,-3,-41,-52,-53,-18,124,53
42,16,-26,-29,34,-4,-42,-52,-54,-18,126,56
46,17,-28,-32,36,-4,-42,-52,-55,-18,128,60
48,19,-28,-34,38,-4,-42,-51,-55,-17,130,63
48,21,-27,-35,37,-3,-41,-50,-57,-19,130,64
47,23,-23,-36,35,0,-42,-52,-60,-23,127,64
44,25,-19,-36,32,3,-43,-54,-64,-29,122,61
43,25,-18,-35,31,3,-43,-57,-68,-36,116,58
41,22,-19,-32,30,1,-42,-60,-71,-42,110,53
36,17,-18,-27,27,0,-39,-61,-71,-46,102,46
28,11,-16,-19,22,-2,-32,-57,-68,-51,92,37
19,5,-14,-11,16,-4,-23,-49,-60,-55,80,24
8,-1,-10,-3,9,-6,-12,-37,-51,-57,67,9
0,-8,-7,4,3,-7,-3,-25,-40,-58,55,-4
-7,-13,-5,10,-1,-9,6,-12,-28,-57,47,-15
-11,-16,-4,14,-4,-9,14,0,-16,-54,43,-23
-14,-17,-2,16,-6,-9,23,13,-3,-49,41,-28
-17,-17,1,18,-10,-8,32,26,10,-44,41,-31
-21,-17,5,20,-14,-6,42,41,25,-37,43,-31
-24,-17,8,21,-17,-5,52,56,39,-30,45,-30
-26,-17,10,22,-18,-4,61,72,53,-23,48,-29
-26,-16,12,21,-19,-2,70,85,66,-16,52,-28
-27,-14,13,21,-20,-1,77,95,76,-10,55,-26
-27,-13,15,20,-21,1,83,100,82,-5,59,-24
-27,-11,17,19,-22,3,87,100,86,-2,62,-21
-28,-9,20,19,-25,5,90,97,86,0,65,-19
-29,-8,21,19,-26,6,93,90,82,1,66,-17
-30,-9,21,19,-26,6,95,82,74,0,65,-17
-30,-10,21,20,-26,5,96,72,63,-3,63,-18
-31,-11,20,20,-26,5,97,62,52,-6,61,-19
-31,-12,19,21,-25,4,99,54,44,-9,60,-20
-30,-13,16,21,-23,2,99,47,36,-11,59,-21
-28,-15,13,21,-21,0,99,40,29,-13,58,-21
-27,-16,11,22,-19,-2,98,33,23,-15,57,-21
-28,-17,10,23,-19,-3,97,26,19,-16,57,-21
-28,-17,11,23,-20,-3,95,21,16,-16,58,-20
-28,-17,11,23,-20,-3,93,17,14,-15,58,-19
-28,-17,12,23,-20,-3,90,13,12,-14,59,-19
-28,-17,11,22,-19,-3,86,11,12,-12,60,-18
-27,-17,11,22,-19,-3,82,10,12,-11,61,-17
-27,-17,11,22,-19,-3,78,10,12,-9,61,-17
-26,-16,11,21,-19,-3,76,9,12,-9,62,-16
-25,-14,11,20,-19,-2,73,8,13,-8,62,-16
-25,-12,13,19,-19,0,71,7,14,-8,63,-15
-26,-12,14,19,-20,0,67,6,15,-7,64,-14
-26,-11,15,19,-21,1,62,5,15,-5,65,-13
-24,-11,14,18,-19,0,56,5,15,-2,66,-11
-22,-11,11,17,-16,0,50,5,15,0,67,-10
-19,-11,8,15,-13,-1,44,5,16,2,69,-9
-15,-9,5,13,-10,-2,38,7,17,5,72,-7
-10,-7,3,9,-7,-2,32,8,19,8,74,-5
-7,-6,1,7,-5,-2,26,9,21,11,76,-3
-6,-5,1,6,-4,-3,20,10,23,13,78,-1
-5,-5,1,5,-3,-2,15,11,25,15,79,0
-3,-3,1,4,-3,-1,12,12,27,18,81,2
-3,-2,1,3,-3,0,9,14,29,20,83,3
-3,-1,2,2,-3,0,7,15,30,22,84,4
-1,0,1,1,-1,0,5,15,30,23,85,5
1,1,0,-1,0,0,4,14,30,23,85,5
2,1,-1,-1,1,0,3,13,30,23,85,5
1,0,0,-1,1,0,2,14,30,23,85,5
1,1,0,-1,1,0,2,15,31,24,85,6
1,2,0,-2,0,0,2,16,31,26,85,6
1,2,0,-1,0,0,1,16,31,26,85,6
0,0,0,0,0,0,0,16,31,27,84,6
0,0,0,0,0,0,0,16,31,27,84,6
0,1,1,-1,0,0,0,17,32,28,85,8
2,3,1,-2,0,1,0,17,33,29,86,9
3,3,0,-3,1,1,0,17,33,29,86,9
4,3,0,-4,2,0,0,16,33,29,86,9
4,2,-2,-4,3,0,0,15,33,29,85,8
5,2,-4,-4,4,-1,-1,15,32,29,84,7
5,2,-5,-4,5,-2,-1,15,32,29,84,7
4,1,-4,-3,4,-2,-1,15,32,30,84,7
4,1,-3,-3,4,-1,-1,15,32,31,84,7
3,1,-2,-2,3,-1,-1,15,32,31,84,7
2,1,-1,-2,1,0,-1,15,32,32,84,7
2,1,0,-1,1,0,-1,16,32,33,84,8
2,1,0,-2,1,0,0,17,33,34,84,8
3,2,-1,-3,2,0,0,18,33,34,84,8
4,2,-2,-3,3,0,0,17,33,35,84,8
3,2,-2,-3,2,0,0,17,33,36,84,9
3,2,-1,-3,2,1,0,18,33,37,84,9
3,2,-1,-3,2,1,0,17,33,37,84,9
3,2,-1,-3,2,0,-1,17,32,37,83,9
3,2,0,-3,1,0,-2,17,32,37,83,9
2,2,0,-3,0,1,-2,19,32,38,83,9
1,2,1,-2,0,1,-2,20,33,38,83,9
1,2,1,-2,0,2,-1,20,33,39,84,10
0,2,2,-2,0,2,-1,20,33,39,84,10
1,2,1,-2,0,1,-2,19,32,39,83,10
1,2,0,-2,0,1,-2,19,32,39,83,10
2,3,1,-2,0,1,-2,18,32,39,83,10
2,4,1,-3,0,1,-2,16,32,39,82,10
2,3,1,-3,0,1,-2,15,32,38,82,10
1,3,2,-2,0,2,-2,14,32,38,81,10
0,3,3,-2,-2,3,-2,14,32,38,81,10
0,3,3,-1,-2,3,-2,13,31,38,81,10
0,3,2,-1,-1,2,-3,12,30,37,80,10
0,3,2,-1,-1,2,-3,11,29,37,79,10
0,3,2,-1,-1,2,-3,10,28,36,79,10
0,3,3,-1,-1,2,-4,9,28,36,79,10
1,2,2,-1,-1,2,-5,7,27,35,78,9
1,2,2,-2,0,1,-6,6,26,34,77,8
2,3,1,-2,0,2,-6,6,25,34,76,8
2,4,2,-3,0,3,-6,7,25,34,76,8
2,4,2,-3,0,3,-7,8,24,34,75,9
1,4,3,-2,0,3,-7,7,23,34,75,9
1,4,3,-2,0,3,-8,7,22,33,74,9
1,4,4,-2,-1,3,-8,7,21,32,73,9
1,4,4,-2,-1,3,-9,7,20,32,73,9
1,4,3,-3,0,3,-9,7,19,31,72,9
1,4,3,-3,0,3,-10,7,18,31,71,9
1,4,4,-3,-1,3,-11,6,17,30,70,9
0,5,4,-2,-1,4,-12,4,15,30,69,9
2,5,3,-3,0,4,-13,3,13,29,68,9
3,6,2,-4,0,4,-14,2,11,28,67,9
4,6,3,-4,0,4,-15,0,10,28,67,9
3,7,4,-4,0,5,-16,-1,8,28,66,9
1,7,6,-4,-2,5,-17,-1,7,27,66,9
1,7,6,-4,-2,6,-18,-2,6,26,65,9
2,7,5,-5,-1,6,-20,-4,4,23,64,8
3,8,4,-6,0,6,-21,-6,2,21,63,8
4,8,4,-6,0,6,-23,-8,0,19,62,8
4,8,4,-6,0,6,-24,-9,-1,17,61,8
3,8,4,-5,0,6,-25,-10,-3,16,61,8
4,9,4,-6,0,6,-26,-12,-5,14,60,8
6,9,3,-7,1,5,-28,-15,-7,12,59,8
6,9,3,-8,1,6,-29,-17,-9,10,59,9
5,9,4,-7,0,6,-30,-18,-10,8,58,9
5,10,4,-7,0,6,-32,-19,-12,6,57,9
7,11,3,-9,2,6,-33,-20,-14,4,57,9
8,12,3,-10,3,7,-35,-22,-16,3,56,9
9,12,3,-10,3,7,-36,-22,-17,2,56,9
9,12,3,-10,3,7,-36,-24,-19,1,55,9
9,12,3,-10,3,7,-37,-26,-20,0,55,9
9,12,3,-10,3,7,-37,-27,-21,0,54,9
8,12,4,-10,2,7,-37,-28,-21,-1,54,8
8,11,3,-9,2,7,-38,-29,-22,-2,53,8
8,11,2,-9,3,6,-39,-31,-24,-4,52,8
8,11,2,-9,2,6,-39,-32,-25,-5,51,8
7,10,2,-8,2,6,-39,-32,-25,-6,50,8
7,10,2,-8,2,6,-39,-31,-26,-6,50,7
8,10,1,-9,3,5,-39,-31,-26,-7,49,7
8,10,1,-9,3,5,-39,-32,-26,-7,48,6
8,9,1,-8,3,5,-39,-32,-27,-8,47,6
8,8,0,-8,3,4,-39,-33,-27,-9,46,5
8,8,0,-8,3,4,-39,-34,-28,-10,46,5
8,8,0,-8,4,4,-39,-33,-28,-10,45,4
8,8,0,-8,4,4,-38,-33,-28,-11,45,4
7,8,0,-7,3,4,-38,-33,-27,-11,44,4
7,8,0,-7,3,4,-37,-31,-27,-11,44,3
7,8,0,-7,3,4,-36,-30,-26,-11,44,3
7,8,0,-7,3,4,-35,-30,-26,-12,43,2
7,7,0,-7,3,3,-33,-28,-25,-13,43,2
7,7,0,-6,3,3,-32,-27,-24,-12,42,2
5,7,1,-6,2,4,-30,-24,-23,-12,42,2
5,6,0,-5,2,3,-29,-22,-22,-12,42,2
6,6,-1,-5,3,2,-29,-21,-22,-12,41,1
7,5,-3,-5,4,1,-28,-20,-22,-13,40,0
6,3,-3,-4,4,0,-27,-19,-21,-13,40,0
4,3,-1,-3,2,1,-25,-17,-19,-13,40,0
2,2,0,-2,1,1,-24,-16,-18,-13,40,0
1,0,0,0,0,0,-23,-16,-18,-13,39,-1
0,0,0,0,-1,0,-22,-15,-17,-13,38,-1
0,0,1,0,-1,0,-20,-13,-15,-12,38,-1
2,1,0,-1,1,0,-19,-11,-14,-12,38,-1
3,2,-1,-2,2,1,-18,-9,-13,-11,38,-1
2,2,0,-1,0,1,-16,-8,-12,-11,39,-1
1,1,0,0,0,1,-15,-7,-11,-11,39,-1
1,0,-1,0,0,0,-14,-6,-10,-11,38,-1
1,0,-1,0,0,0,-13,-6,-10,-10,38,-1
0,0,0,0,0,0,-12,-6,-9,-10,38,-1
-1,0,0,1,-1,0,-11,-5,-8,-10,38,-2
-2,-1,0,2,-1,-1,-10,-4,-8,-10,37,-2
-2,-2,0,3,-2,-1,-9,-4,-7,-10,37,-2
-2,-2,0,3,-2,-1,-8,-3,-7,-10,37,-2
-2,-2,0,3,-1,-1,-8,-3,-6,-10,37,-2
-1,-2,-1,2,-1,-2,-7,-2,-6,-10,37,-3
-1,-2,-1,2,-1,-1,-6,-2,-6,-10,37,-2
-1,-1,0,1,-1,0,-5,-2,-5,-9,37,-2
-1,-1,0,1,-1,0,-4,-2,-4,-8,37,-2
-1,-1,0,1,-1,0,-4,-2,-4,-8,37,-2
-1,-1,0,2,-1,0,-3,-2,-4,-8,37,-2
-2,-2,0,2,-2,-1,-3,-2,-4,-8,37,-2
-4,-2,1,3,-3,-1,-2,-2,-4,-7,37,-2
-5,-3,1,4,-4,0,-1,-2,-3,-6,37,-2
-5,-3,1,4,-4,-1,0,-1,-3,-6,37,-2
-4,-3,0,4,-3,-1,0,-1,-3,-6,36,-2
-4,-3,0,4,-2,-1,0,0,-3,-6,35,-2
-4,-3,0,4,-2,-1,1,1,-2,-6,34,-2
-3,-3,0,4,-2,0,1,1,-2,-5,34,-2
-3,-2,0,3,-2,0,1,0,-2,-5,34,-2
-4,-2,1,4,-3,0,1,0,-2,-5,34,-2
-5,-2,1,4,-3,0,1,0,-2,-5,33,-3
-4,-3,0,4,-2,-1,1,0,-2,-5,32,-3
-4,-3,0,4,-2,-2,1,0,-2,-4,31,-4
-4,-3,0,4,-2,-1,1,0,-2,-4,31,-4
-3,-2,0,3,-2,-1,2,1,-1,-3,30,-3
-3,-2,0,3,-2,-1,1,1,-1,-3,30,-3
-3,-3,-1,4,-2,-2,1,0,-2,-3,29,-4
-3,-4,-1,4,-1,-2,0,0,-2,-3,28,-5
-3,-4,-1,4,-1,-2,1,0,-2,-2,28,-5
-4,-4,0,4,-2,-1,1,1,-1,-2,29,-5
-5,-3,1,4,-3,0,2,1,-1,0,29,-4
-4,-2,1,3,-3,0,3,2,0,1,29,-4
-4,-2,1,3,-3,0,3,1,0,1,28,-4
-4,-2,1,3,-3,0,3,1,0,2,28,-5
-4,-2,2,3,-3,1,3,2,0,2,28,-4
-4,-2,2,3,-4,1,3,2,0,3,28,-4
-4,-2,2,3,-3,0,3,2,0,3,28,-4
-3,-2,1,3,-3,0,3,2,0,3,27,-5
-3,-2,0,3,-2,0,3,1,0,3,26,-5
-2,0,0,2,-2,0,3,1,0,3,26,-5
-1,1,1,1,-2,1,3,1,0,4,27,-4
-1,2,2,1,-2,2,4,2,1,5,27,-4
-1,3,3,0,-3,3,4,3,1,6,28,-3
0,4,4,-1,-3,4,5,4,2,7,28,-3
0,4,4,-1,-3,4,5,5,2,9,29,-3
-1,4,5,-1,-4,5,6,5,3,10,29,-3
-1,5,6,-1,-4,5,6,5,3,11,29,-3
-1,6,6,-2,-4,6,7,6,4,12,29,-3
0,6,6,-2,-4,6,7,7,4,12,28,-3
0,7,7,-3,-4,7,6,7,4,12,28,-3
0,8,8,-4,-4,8,6,7,4,13,29,-2
0,9,9,-4,-4,9,6,7,4,13,29,-2
0,8,9,-3,-5,9,5,7,4,13,29,-2
0,8,9,-3,-5,9,4,7,4,13,29,-2
0,8,9,-3,-5,9,4,6,4,13,29,-2
0,8,8,-3,-4,8,4,6,4,13,29,-2
1,8,7,-4,-3,8,4,5,4,14,29,-2
2,8,6,-4,-2,7,3,5,4,15,28,-2
2,8,5,-4,-1,7,3,4,4,15,28,-2
2,8,5,-4,-1,6,2,4,4,16,28,-1
3,8,4,-4,-1,6,1,3,3,17,28,-1
3,8,4,-5,-1,6,0,1,3,19,28,-1
4,8,3,-5,0,6,-1,0,2,20,28,-1
4,8,3,-5,0,6,-2,0,2,21,28,-1
5,8,2,-5,1,5,-2,0,1,22,28,-1
5,8,0,-5,2,5,-3,0,0,22,27,-1
5,8,0,-5,2,4,-3,0,0,23,27,-1
5,7,0,-6,2,4,-3,0,1,24,27,0
6,7,0,-6,2,4,-3,0,1,25,27,0
6,8,0,-7,3,4,-2,0,1,26,27,0
6,8,0,-7,2,5,-2,1,1,26,28,1
5,7,1,-6,1,5,-1,1,1,26,28,1
4,6,1,-5,1,4,-1,1,1,26,28,0
4,6,0,-4,1,4,-1,1,0,26,27,0
5,6,-1,-4,2,3,-1,0,0,26,26,0
6,5,-1,-4,2,2,-2,-1,-1,25,25,0
6,5,-2,-4,3,2,-3,-2,-2,25,24,0
7,5,-2,-5,3,2,-3,-2,-2,24,23,0
6,5,-2,-5,3,2,-4,-2,-3,24,23,-1
6,5,-2,-5,3,1,-4,-2,-3,23,22,-1
6,5,-3,-5,4,1,-5,-2,-4,23,22,-1
4,4,-2,-4,3,1,-4,-2,-4,23,22,-1
2,4,0,-2,0,2,-3,-1,-3,24,22,-1
0,4,2,-1,-1,3,-1,0,-2,25,22,0
1,5,2,-2,-1,3,0,1,-1,26,23,0
2,5,1,-3,0,3,0,2,-1,27,23,0
3,4,0,-3,0,2,0,2,-1,27,22,-1
2,3,0,-2,0,2,0,2,-1,27,22,-1
1,2,1,-1,0,2,0,2,-1,27,22,-1
0,1,1,0,-1,1,0,3,-1,27,21,-2
0,1,1,0,-2,1,0,3,-1,26,20,-2
-1,0,1,1,-2,1,1,3,-1,26,19,-3
-2,0,1,2,-2,0,1,3,-2,26,18,-3
-2,-2,0,3,-2,-1,1,3,-2,25,17,-4
-3,-3,-1,3,-2,-2,1,3,-2,25,16,-4
-3,-4,-2,4,-2,-2,1,3,-3,24,16,-5
-3,-5,-2,4,-1,-3,1,3,-3,24,15,-5
-3,-4,-2,4,-1,-3,1,3,-3,24,15,-5
-3,-4,-1,4,-2,-2,2,3,-3,24,15,-5
-4,-4,0,5,-2,-2,2,2,-3,24,15,-6
-5,-5,0,5,-3,-2,1,0,-3,23,14,-6
-5,-6,-1,6,-2,-3,1,0,-4,23,13,-7
-4,-6,-2,6,-1,-4,1,-1,-5,23,12,-7
-4,-6,-2,6,-1,-4,1,-2,-5,23,13,-6
-5,-6,0,6,-3,-3,2,-2,-4,23,13,-5
-6,-6,1,7,-4,-2,2,-2,-4,24,14,-5
-6,-6,1,7,-4,-2,2,-2,-4,24,13,-5
-7,-7,0,7,-4,-3,2,-1,-4,24,12,-5
-7,-7,0,8,-4,-3,2,-1,-4,23,12,-5
-7,-6,0,8,-4,-3,2,0,-4,23,11,-5
-6,-6,-1,7,-3,-3,2,0,-4,23,11,-5
-4,-6,-2,6,-1,-4,1,0,-4,23,11,-5
-4,-6,-2,6,-1,-4,1,0,-4,25,12,-5
-4,-6,-2,6,-1,-4,1,-1,-4,26,12,-5
-4,-6,-2,6,-1,-4,1,-1,-4,27,11,-5
-5,-6,-2,6,-1,-4,1,-1,-4,28,10,-6
-5,-7,-3,7,-1,-5,2,0,-4,28,10,-6
-5,-9,-5,8,0,-7,2,1,-3,29,9,-7
-5,-11,-7,8,0,-8,3,2,-3,29,8,-8
-4,-12,-8,8,1,-9,3,2,-3,29,7,-9
-4,-13,-9,9,2,-10,3,2,-3,28,6,-11
-5,-14,-9,11,1,-11,2,1,-5,26,4,-12
-7,-15,-8,12,0,-11,0,-2,-9,23,2,-13
-7,-12,-6,11,0,-9,-3,-10,-15,19,0,-13
-6,-9,-4,8,-1,-6,-8,-18,-22,16,0,-11
-4,-5,-1,6,-1,-3,-12,-25,-30,13,0,-8
-3,-1,0,3,-1,-1,-17,-32,-36,12,3,-3
0,1,0,1,0,0,-21,-36,-41,13,8,2
4,3,-2,-2,3,0,-25,-39,-44,15,16,9
10,6,-4,-7,7,0,-28,-43,-46,19,24,18
15,9,-6,-11,11,1,-32,-45,-47,24,34,27
20,12,-8,-15,14,1,-34,-47,-47,30,44,36
26,15,-11,-20,18,2,-37,-48,-48,35,51,44
30,17,-14,-23,22,1,-39,-48,-50,37,55,49
33,18,-15,-25,24,1,-39,-47,-51,37,57,52
35,20,-16,-27,26,1,-39,-45,-51,38,59,55
39,22,-17,-30,28,2,-39,-43,-51,39,63,59
42,24,-18,-33,30,3,-39,-42,-51,41,67,63
44,25,-18,-34,31,3,-39,-41,-52,42,69,66
44,26,-18,-35,31,4,-38,-42,-53,40,69,66
43,28,-15,-35,29,6,-39,-44,-56,35,67,66
40,29,-11,-34,26,9,-39,-48,-60,29,62,64
37,29,-9,-33,23,10,-39,-52,-65,23,56,60
35,26,-9,-30,22,8,-39,-55,-69,16,49,55
32,21,-11,-26,21,5,-37,-57,-70,9,40,48
25,15,-10,-19,18,2,-31,-54,-68,3,30,38
15,7,-8,-10,11,0,-22,-47,-62,-3,17,25
5,1,-4,-2,4,-1,-11,-37,-53,-7,3,11
-3,-3,-1,4,-1,-2,0,-24,-42,-9,-9,-2
-9,-7,1,9,-5,-3,9,-11,-30,-9,-17,-12
-15,-10,3,13,-9,-3,19,1,-17,-6,-22,-19
-21,-12,7,17,-14,-2,28,15,-3,-2,-24,-24
-26,-14,12,21,-20,0,38,28,10,3,-24,-26
-31,-14,17,23,-25,1,48,42,24,8,-22,-27
-34,-14,20,24,-27,3,59,57,38,14,-20,-28
-34,-13,21,24,-28,4,69,72,52,21,-18,-27
-33,-11,23,23,-28,5,78,85,63,27,-15,-26
-34,-8,25,22,-29,7,86,94,72,33,-11,-24
-34,-6,27,21,-30,9,92,97,77,38,-8,-22
-35,-5,29,21,-32,11,96,97,79,42,-5,-20
-36,-3,31,21,-34,13,100,94,79,44,-3,-18
-36,-3,33,21,-35,15,103,88,76,45,-1,-16
-36,-3,33,21,-36,15,105,80,68,44,-2,-17
-37,-4,33,22,-36,14,106,69,58,41,-3,-18
-38,-6,32,23,-36,12,107,60,48,39,-4,-19
-39,-8,30,24,-35,11,108,52,40,37,-5,-19
-38,-9,28,25,-33,9,108,45,33,36,-5,-19
-36,-10,25,24,-31,7,108,39,27,36,-4,-19
-34,-10,24,23,-29,7,106,34,23,35,-4,-18
-33,-11,22,23,-28,6,103,29,19,35,-4,-18
-32,-12,20,23,-27,4,98,23,14,34,-4,-18
-31,-11,19,22,-26,3,93,17,11,34,-5,-18
-30,-10,19,21,-25,4,88,13,11,35,-3,-17
-30,-9,20,20,-25,5,85,12,11,36,-1,-16
-30,-8,20,20,-25,5,82,11,12,36,0,-14
-29,-8,20,19,-25,6,79,11,13,36,1,-13
-30,-7,22,19,-26,7,76,10,14,36,1,-12
-30,-6,23,19,-27,8,73,10,15,36,2,-11
-29,-6,23,18,-26,8,68,10,15,36,2,-10
-28,-6,22,18,-26,8,63,9,16,35,3,-9
-26,-5,20,17,-24,7,57,9,17,36,4,-8
-23,-5,17,15,-20,6,51,9,18,36,5,-7
-21,-5,15,14,-18,4,44,10,19,37,7,-5
-18,-5,13,12,-15,4,38,12,20,39,9,-3
-14,-4,10,10,-12,3,32,14,22,41,11,-1
-10,-2,8,7,-10,3,26,15,24,43,13,0
-8,-1,8,5,-8,3,20,16,27,45,15,2
-6,1,8,3,-7,4,15,16,29,46,18,4
-4,3,8,0,-6,5,12,16,31,48,20,6
-3,5,8,-1,-5,6,10,17,33,49,22,7
-2,7,9,-2,-5,8,8,17,35,50,24,8
-1,8,8,-3,-4,8,7,18,35,50,25,9
1,9,6,-4,-2,7,6,18,36,50,25,9
3,9,6,-5,-2,7,5,18,37,50,25,10
2,10,7,-5,-3,8,5,20,38,51,26,12
2,10,8,-6,-4,9,4,20,39,51,27,12
2,10,8,-6,-4,9,3,20,38,50,26,12
2,11,8,-6,-3,9,2,20,38,49,26,12
3,11,7,-7,-2,9,2,21,38,49,26,12
3,11,7,-6,-2,9,2,22,38,48,26,12
3,11,7,-6,-2,9,2,22,38,47,26,12
3,11,7,-6,-2,9,2,23,38,47,26,12
4,11,6,-6,-1,9,1,23,38,46,25,12
4,10,6,-7,-1,8,1,23,38,45,25,11
3,9,6,-6,-2,7,0,22,37,44,24,11
1,8,7,-4,-3,7,0,21,37,43,24,11
0,8,7,-4,-4,7,0,21,37,42,24,11
0,8,6,-4,-3,7,0,21,37,41,24,11
1,8,6,-4,-2,7,0,22,37,40,25,11
0,8,7,-4,-3,7,1,23,37,40,25,11
0,8,7,-4,-3,7,1,23,37,40,26,12
1,9,6,-4,-3,7,0,22,37,39,26,12
2,10,6,-5,-2,7,0,21,37,39,26,12
2,10,6,-6,-2,7,0,20,37,38,26,12
2,10,6,-6,-2,7,0,19,37,38,26,12
2,10,6,-5,-2,7,0,19,36,37,26,11
2,9,6,-5,-2,8,0,20,36,36,26,11
3,10,6,-6,-1,8,0,21,36,36,26,11
5,10,4,-7,0,8,0,21,36,35,26,11
6,10,4,-8,0,8,0,21,36,35,26,11
5,10,5,-7,0,8,0,20,36,35,26,11
4,10,6,-7,-1,8,0,19,36,35,26,11
3,10,7,-6,-2,8,0,19,35,35,26,11
2,10,7,-6,-3,8,0,20,35,35,26,12
3,11,7,-7,-2,9,0,21,35,35,26,12
3,10,7,-7,-2,9,0,21,35,35,26,12
2,9,7,-6,-2,8,-1,20,34,34,25,12
2,9,7,-6,-2,8,-1,20,34,34,25,12
2,9,6,-6,-1,8,-1,21,33,33,25,12
2,9,6,-6,-1,8,-1,21,33,33,25,11
2,9,6,-5,-1,7,-2,20,33,32,25,11
2,9,5,-5,-1,7,-2,20,32,31,24,10
2,9,4,-5,0,6,-3,19,31,30,23,10
2,9,5,-5,-1,7,-4,19,31,29,24,10
3,10,6,-6,-1,8,-4,18,30,29,24,11
3,11,6,-6,-1,9,-4,17,30,29,24,12
4,11,6,-7,-1,9,-4,17,29,28,23,11
4,11,6,-7,-1,9,-5,16,28,28,22,11
4,11,7,-7,-1,9,-5,16,28,27,22,11
4,11,7,-8,-1,9,-5,15,27,26,22,11
4,11,6,-8,-1,9,-6,15,26,24,21,11
5,11,5,-8,-1,9,-7,14,26,23,21,11
5,11,6,-8,-1,9,-7,13,25,22,21,11
4,11,6,-8,-1,9,-8,12,24,20,20,11
4,11,7,-7,-2,9,-9,10,22,18,19,10
4,11,6,-7,-1,9,-11,8,20,16,18,9
5,11,5,-7,0,8,-12,7,18,15,17,9
5,11,5,-7,0,9,-13,7,17,14,16,9
5,12,6,-8,0,9,-13,6,15,13,16,9
5,12,6,-8,0,9,-14,4,14,12,15,9
5,11,6,-8,0,9,-15,2,12,11,14,9
4,11,6,-7,-1,9,-16,0,11,10,13,9
4,11,6,-7,-1,9,-17,-2,9,9,13,9
4,11,6,-7,-1,9,-18,-4,7,7,12,9
5,11,6,-8,0,8,-20,-5,4,5,11,9
6,11,5,-9,1,8,-21,-7,2,4,10,8
8,12,5,-10,1,9,-23,-9,0,2,9,8
7,13,5,-10,1,9,-24,-12,-2,1,8,8
6,12,6,-9,0,9,-26,-14,-4,-1,7,8
7,12,5,-9,0,9,-27,-15,-6,-2,6,7
8,13,4,-10,1,9,-29,-18,-9,-4,5,7
10,14,4,-12,2,9,-30,-20,-11,-5,4,7
10,15,4,-13,3,10,-32,-22,-14,-6,3,6
10,15,4,-13,3,10,-33,-23,-16,-8,2,6
10,15,5,-12,2,10,-35,-26,-18,-9,1,6
9,15,5,-12,1,11,-36,-29,-19,-11,0,6
8,16,6,-12,0,12,-36,-30,-20,-12,0,7
8,17,7,-12,0,13,-37,-29,-22,-12,0,7
8,17,8,-12,0,13,-37,-28,-23,-13,0,8
8,17,8,-12,0,13,-38,-28,-24,-14,0,8
8,17,9,-12,0,13,-38,-29,-26,-15,0,8
7,17,9,-12,-1,13,-39,-29,-27,-15,0,8
8,17,8,-12,0,12,-40,-29,-28,-16,-1,7
9,16,7,-12,1,11,-41,-30,-29,-18,-2,6
9,15,6,-12,2,10,-42,-32,-31,-19,-3,5
9,15,5,-12,2,10,-42,-33,-32,-21,-4,4
10,15,4,-13,3,10,-42,-33,-32,-21,-4,3
11,15,3,-13,4,10,-42,-33,-32,-22,-4,3
11,15,4,-13,3,10,-41,-33,-33,-22,-4,3
9,14,4,-11,2,10,-41,-33,-33,-23,-4,3
9,13,4,-11,2,9,-40,-31,-33,-23,-5,3
8,13,4,-10,2,8,-40,-29,-33,-24,-5,2
7,12,4,-9,1,8,-39,-28,-32,-24,-6,2
6,12,4,-9,1,8,-39,-27,-32,-24,-6,2
8,11,2,-9,3,7,-38,-25,-32,-25,-7,1
9,11,0,-10,4,6,-38,-24,-32,-25,-8,0
10,11,0,-10,5,5,-37,-22,-31,-25,-8,0
11,10,-1,-10,6,5,-36,-22,-31,-25,-8,-1
10,9,-2,-10,6,4,-36,-22,-30,-25,-9,-1
10,8,-1,-9,6,4,-35,-21,-29,-25,-9,-1
9,8,0,-9,5,4,-33,-19,-28,-25,-8,-1
7,8,1,-8,3,5,-32,-18,-27,-24,-8,-1
5,7,2,-6,2,5,-30,-16,-25,-24,-8,-2
3,6,3,-4,0,5,-29,-14,-24,-24,-9,-2
2,5,2,-3,0,5,-27,-13,-23,-24,-9,-2
3,5,1,-4,1,4,-26,-11,-22,-24,-9,-3
4,5,0,-4,2,4,-24,-11,-21,-23,-9,-3
5,5,0,-4,3,4,-23,-11,-20,-22,-9,-3
5,4,0,-4,3,3,-22,-10,-18,-22,-9,-3
4,3,0,-4,3,2,-20,-9,-17,-21,-9,-3
4,3,-1,-4,3,1,-19,-9,-16,-21,-9,-4
4,3,-1,-4,3,1,-18,-8,-15,-21,-9,-4
3,3,0,-3,1,2,-16,-7,-14,-20,-8,-3
1,3,1,-2,0,2,-15,-5,-13,-20,-8,-3
0,2,2,0,-1,2,-14,-3,-13,-20,-9,-3
0,1,1,0,-1,2,-13,-2,-13,-20,-9,-4
1,2,0,-1,0,2,-12,-2,-12,-20,-9,-4
2,2,0,-2,0,2,-11,-2,-11,-19,-9,-4
2,2,0,-2,0,2,-10,-2,-11,-19,-10,-4
2,2,0,-2,1,1,-10,-3,-10,-19,-10,-5
1,2,0,-1,0,1,-9,-3,-10,-19,-10,-5
-1,1,2,0,-2,1,-8,-1,-9,-19,-10,-5
-2,1,2,1,-2,1,-7,0,-9,-19,-10,-5
0,1,0,0,-1,1,-6,1,-8,-19,-10,-5
0,1,0,0,0,0,-5,2,-8,-19,-10,-5
0,0,0,0,0,0,-4,3,-8,-19,-10,-5
-1,-1,0,1,-1,0,-4,3,-7,-19,-10,-5
0,-1,-1,1,0,0,-4,4,-7,-19,-10,-5
0,-1,-1,1,0,-1,-3,4,-7,-19,-11,-6
-1,-1,0,1,0,0,-2,5,-7,-19,-11,-6
0,0,0,1,0,0,-2,6,-7,-19,-11,-6
0,0,0,0,0,0,-2,6,-7,-18,-11,-6
0,0,0,0,0,0,-2,6,-7,-18,-11,-6
0,0,0,0,0,0,-1,5,-6,-17,-11,-6
0,0,0,0,0,0,-1,4,-6,-17,-11,-5
0,0,0,0,0,0,0,3,-5,-16,-10,-5
0,0,-1,0,0,-1,0,2,-5,-16,-11,-6
0,-1,-1,0,1,-1,0,2,-5,-16,-11,-6
-1,-1,0,1,0,0,0,3,-5,-14,-10,-6
-2,-1,1,2,-2,0,0,3,-5,-13,-10,-6
-3,-1,1,3,-2,0,0,3,-5,-12,-9,-6
-3,-1,1,2,-2,0,0,4,-5,-12,-8,-6
-1,-1,1,1,-1,0,0,5,-5,-11,-8,-6
0,0,0,0,0,0,0,6,-5,-11,-7,-6
0,0,-1,0,1,0,0,6,-5,-11,-7,-7
1,0,-1,0,2,-1,0,6,-5,-11,-7,-8
2,0,-2,0,2,-1,0,5,-5,-10,-7,-8
2,0,-2,0,2,-1,0,4,-5,-10,-7,-8
0,0,0,0,1,0,0,3,-5,-10,-8,-7
0,0,1,1,0,0,1,4,-4,-9,-8,-6
0,1,1,0,0,1,1,4,-4,-9,-8,-5
1,2,1,-1,1,1,2,4,-3,-8,-9,-5
1,2,1,-1,1,2,2,5,-3,-8,-10,-5
1,1,1,-1,1,1,2,5,-3,-9,-11,-5
1,1,0,0,1,0,2,6,-3,-9,-11,-6
1,1,0,0,1,0,2,6,-3,-9,-12,-6
1,1,0,-1,0,1,3,7,-3,-9,-12,-6
1,2,1,-1,0,1,3,7,-2,-9,-12,-6
2,3,1,-2,1,2,3,7,-2,-9,-13,-7
2,3,1,-3,1,3,3,7,-2,-8,-14,-7
1,4,3,-3,0,4,3,8,-2,-7,-14,-6
0,4,4,-2,-2,4,3,8,-1,-6,-14,-6
0,4,5,-2,-3,5,4,8,-1,-5,-14,-5
-1,5,6,-2,-3,6,4,8,0,-4,-13,-5
0,7,6,-4,-2,6,4,7,0,-4,-13,-5
2,9,6,-5,-1,7,3,6,0,-4,-13,-5
2,9,6,-5,-2,7,3,5,0,-3,-13,-5
1,9,7,-5,-2,8,2,4,0,-3,-12,-5
1,9,8,-4,-3,8,2,3,0,-2,-12,-5
1,8,7,-4,-2,7,1,2,0,-2,-12,-5
2,8,5,-5,0,6,0,2,-1,-2,-12,-5
3,7,3,-5,0,5,0,3,-1,-1,-12,-5
4,7,1,-5,1,4,0,3,-1,-1,-12,-5
4,5,0,-4,2,2,-1,2,-1,-1,-12,-5
3,3,0,-3,2,1,-3,1,-2,-1,-13,-5
3,2,-1,-3,3,0,-4,1,-3,-1,-13,-5
4,3,-1,-4,3,1,-4,1,-3,-1,-13,-5
6,5,-1,-6,4,2,-5,1,-3,0,-13,-4
7,7,-1,-7,4,3,-5,2,-3,1,-12,-3
7,8,0,-7,4,4,-5,2,-3,2,-11,-2
8,9,-1,-8,4,4,-5,2,-3,2,-11,-2
10,9,-2,-9,5,4,-5,2,-3,3,-11,-2
10,8,-2,-8,6,3,-5,1,-4,3,-11,-2
9,7,-2,-7,6,2,-5,0,-4,3,-11,-3
7,5,-2,-6,5,2,-5,-1,-5,3,-11,-3
6,4,-2,-5,4,1,-5,-1,-5,3,-11,-4
7,4,-3,-5,5,1,-5,0,-6,3,-11,-4
8,5,-3,-6,5,2,-4,0,-6,4,-11,-4
8,6,-3,-7,5,2,-4,1,-6,4,-11,-4
8,6,-3,-7,5,1,-5,0,-7,4,-11,-4
9,5,-5,-7,7,0,-6,0,-8,3,-12,-4
11,5,-6,-8,9,0,-6,0,-9,2,-13,-5
11,4,-7,-8,10,-1,-7,-1,-9,1,-14,-5
9,2,-6,-6,8,-1,-7,-2,-10,1,-14,-5
6,1,-5,-4,6,-1,-8,-4,-11,0,-15,-6
5,0,-4,-3,5,-2,-8,-6,-12,0,-15,-7
6,1,-4,-4,5,-1,-8,-7,-12,0,-15,-7
7,2,-4,-4,5,-1,-7,-7,-11,0,-15,-7
7,2,-4,-4,5,-1,-6,-7,-11,0,-15,-7
6,1,-5,-4,6,-2,-6,-7,-11,0,-16,-8
5,0,-5,-3,6,-3,-5,-7,-10,1,-15,-7
4,0,-5,-2,5,-2,-4,-6,-9,1,-15,-7
3,-1,-4,-1,4,-2,-3,-5,-9,2,-14,-6
2,-1,-4,-1,3,-2,-2,-5,-9,2,-14,-6
2,-1,-4,0,3,-3,-2,-5,-9,2,-15,-7
2,-2,-5,0,3,-3,-2,-5,-10,1,-15,-7
0,-3,-4,1,2,-3,-2,-4,-10,1,-15,-8
-2,-4,-2,3,0,-3,-1,-3,-9,1,-15,-8
-3,-5,-2,4,-1,-3,0,-2,-9,1,-15,-8
-3,-6,-2,4,0,-4,0,-2,-9,0,-16,-8
-2,-6,-4,4,1,-5,0,-2,-10,0,-16,-9
-1,-7,-5,4,2,-6,-1,-2,-10,0,-16,-9
-1,-7,-5,4,2,-6,-1,-2,-11,0,-16,-10
0,-7,-6,4,2,-6,-1,-3,-11,-1,-16,-10
-1,-7,-6,4,2,-6,-1,-4,-11,-1,-17,-11
-2,-7,-5,5,1,-6,-1,-5,-12,-2,-17,-11
-3,-7,-4,6,0,-5,-1,-5,-12,-2,-17,-11
-3,-7,-3,6,0,-5,-1,-5,-12,-2,-18,-11
-3,-7,-3,6,0,-5,-1,-5,-12,-2,-18,-11
-3,-7,-4,6,0,-5,0,-5,-11,-2,-18,-11
-2,-8,-5,6,1,-6,0,-5,-11,-2,-18,-11
-2,-9,-7,6,2,-8,-1,-6,-12,-2,-19,-11
-3,-10,-7,7,1,-8,-1,-6,-12,-2,-19,-10
-4,-10,-6,7,1,-8,-1,-5,-12,-2,-18,-10
-3,-9,-6,6,1,-7,-1,-4,-12,-3,-18,-9
-3,-8,-6,6,1,-7,-2,-4,-12,-3,-18,-10
-3,-8,-6,6,1,-7,-2,-4,-12,-3,-18,-10
-2,-8,-6,6,1,-7,-2,-4,-12,-3,-18,-10
-2,-9,-6,6,1,-7,-2,-4,-12,-3,-18,-10
-3,-9,-6,7,1,-8,-2,-5,-12,-3,-19,-10
-3,-10,-7,7,1,-8,0,-4,-11,-3,-19,-11
-3,-11,-8,7,2,-10,0,-2,-11,-3,-20,-12
-2,-12,-11,7,4,-12,1,-1,-10,-3,-21,-13
-1,-13,-13,8,6,-13,2,0,-10,-3,-22,-15
-1,-14,-14,8,6,-14,2,1,-10,-4,-23,-16
-2,-15,-13,9,6,-15,2,0,-11,-5,-24,-17
-3,-15,-12,10,5,-14,0,-2,-13,-8,-26,-17
-4,-13,-10,9,3,-12,-3,-9,-19,-12,-27,-17
-4,-11,-6,8,1,-9,-8,-18,-26,-17,-28,-16
-3,-8,-4,6,0,-6,-13,-27,-33,-20,-28,-14
0,-5,-4,2,2,-4,-18,-34,-40,-23,-27,-11
4,-2,-6,-1,5,-3,-22,-39,-45,-24,-23,-6
10,2,-8,-6,9,-3,-25,-42,-48,-22,-16,2
14,5,-9,-10,12,-2,-27,-44,-49,-18,-6,11
18,8,-10,-13,14,-1,-30,-45,-51,-13,4,22
22,11,-11,-17,17,0,-33,-47,-52,-8,14,32
28,14,-13,-21,21,0,-37,-49,-53,-4,23,41
33,16,-16,-24,25,0,-40,-50,-55,-2,29,47
37,18,-20,-27,29,0,-42,-51,-56,-2,31,50
40,19,-22,-29,31,-1,-43,-51,-57,-2,32,52
43,20,-23,-31,33,-1,-43,-50,-58,-2,33,54
47,22,-25,-34,36,-1,-43,-50,-59,-2,36,58
50,23,-27,-36,38,-2,-43,-50,-60,-1,39,61
51,24,-27,-37,39,-2,-43,-50,-61,-2,40,63
50,24,-25,-36,37,0,-43,-50,-62,-6,39,63
47,26,-21,-36,34,3,-43,-51,-65,-11,36,63
44,27,-17,-35,31,5,-43,-54,-68,-16,32,60
42,25,-17,-33,30,4,-42,-57,-71,-22,26,55
39,20,-19,-29,29,0,-41,-59,-74,-28,18,48
34,15,-20,-24,27,-3,-37,-58,-73,-34,9,38
25,8,-18,-16,22,-5,-29,-52,-69,-39,-1,25
15,1,-14,-7,15,-7,-18,-41,-61,-43,-14,11
6,-4,-11,0,9,-8,-8,-29,-51,-46,-25,-2
-2,-10,-7,7,3,-8,1,-15,-39,-46,-34,-13
-10,-14,-3,12,-3,-8,11,-1,-25,-43,-39,-21
-16,-16,0,16,-7,-7,21,12,-11,-38,-41,-27
-19,-17,3,18,-11,-7,31,26,2,-33,-41,-30
-22,-17,5,20,-13,-6,40,40,16,-27,-40,-32
-24,-17,8,21,-16,-5,50,55,30,-21,-37,-33
-26,-17,10,22,-18,-3,60,70,45,-14,-33,-31
-28,-16,13,22,-20,-1,69,84,58,-8,-28,-29
-28,-14,15,22,-21,1,78,95,69,-2,-24,-27
-28,-12,16,20,-22,2,85,101,78,3,-20,-25
-27,-9,18,19,-22,4,89,101,83,8,-17,-23
-28,-8,20,18,-24,6,93,99,85,12,-15,-22
-29,-7,21,18,-25,7,95,94,83,14,-13,-20
-29,-7,22,18,-26,7,98,88,77,14,-12,-20
-29,-7,22,18,-26,7,100,80,67,11,-12,-20
-27,-7,20,18,-24,6,101,71,57,7,-12,-20
-28,-8,19,19,-23,5,102,62,48,3,-12,-20
-30,-11,19,21,-24,4,103,55,40,0,-12,-20
-31,-13,17,22,-23,2,103,48,33,-2,-13,-20
-30,-14,16,22,-22,1,103,42,27,-4,-13,-20
-30,-14,16,22,-22,1,102,36,22,-6,-13,-20
-30,-14,16,22,-22,0,99,29,18,-8,-14,-20
-29,-15,15,22,-22,0,96,24,14,-9,-14,-19
-28,-14,15,22,-21,0,92,20,12,-10,-13,-18
-27,-14,14,21,-20,0,89,17,11,-9,-11,-17
-26,-13,14,21,-19,0,86,16,11,-8,-10,-16
-24,-12,13,19,-18,0,84,15,12,-7,-9,-15
-22,-10,13,16,-17,1,82,15,13,-5,-8,-14
-21,-8,13,15,-17,3,79,15,14,-4,-7,-13
-21,-7,14,14,-17,4,75,13,14,-4,-7,-13
-20,-6,14,13,-17,4,70,10,13,-3,-6,-13
-19,-5,14,12,-16,4,64,9,13,-3,-5,-12
-18,-5,13,13,-15,4,59,9,14,-2,-3,-11
-19,-7,12,14,-15,3,53,11,14,-2,-1,-9
-18,-8,10,14,-14,1,47,12,15,-1,0,-8
-15,-8,7,12,-11,0,40,13,16,1,2,-6
-14,-8,6,11,-10,-1,34,15,18,4,5,-4
-11,-6,4,8,-8,-1,27,16,20,7,9,-1
-6,-4,2,5,-5,-1,21,17,22,11,12,0
-3,-2,1,3,-2,0,15,18,24,13,14,2
-2,-1,1,2,-1,0,11,18,25,15,16,4
-1,0,1,1,-1,0,7,18,26,17,18,5
0,1,1,0,0,1,4,16,26,18,19,5
1,2,1,-1,0,1,3,16,26,19,20,6
1,3,2,-1,0,2,2,16,27,21,21,7
2,4,2,-2,0,2,2,17,28,22,22,8
4,5,1,-4,2,2,1,18,29,24,23,8
5,5,0,-5,3,2,0,19,29,25,24,9
5,4,0,-4,3,1,0,19,29,25,25,9
5,3,-1,-3,3,1,0,18,29,25,25,9
4,2,-1,-3,3,0,0,18,29,25,27,9
3,1,-1,-2,3,0,-1,18,30,26,28,10
3,1,-1,-2,3,0,-2,18,30,27,29,10
4,1,-2,-3,3,0,-2,17,29,27,30,9
5,2,-2,-4,4,0,-2,16,29,27,30,9
5,3,-1,-4,3,1,-3,15,29,27,30,8
5,4,0,-4,3,2,-3,14,29,27,31,8
5,5,0,-4,3,2,-3,13,29,28,31,8
5,5,0,-4,3,2,-3,13,30,28,32,9
5,4,0,-4,3,2,-3,13,29,29,32,8
5,4,0,-4,3,1,-3,13,29,29,33,8
4,4,0,-4,2,1,-3,14,30,30,33,9
5,4,-1,-4,3,1,-3,14,30,30,33,9
6,4,-3,-5,5,0,-3,14,29,30,33,8
7,3,-4,-5,6,-1,-3,13,29,30,33,8
9,4,-5,-5,7,-1,-4,13,29,29,33,8
9,5,-4,-6,7,0,-4,13,29,29,34,9
8,6,-2,-6,6,1,-4,13,29,30,35,9
6,6,-1,-6,4,2,-4,13,29,30,35,9
5,4,-1,-5,4,1,-4,12,28,30,34,8
5,3,-2,-4,4,0,-4,12,27,29,34,7
5,3,-3,-4,4,0,-4,13,27,29,34,8
5,3,-4,-4,5,0,-4,13,27,30,35,8
6,3,-4,-4,5,0,-4,14,28,30,35,8
5,3,-2,-4,4,0,-4,14,28,30,36,8
3,3,0,-3,2,1,-4,13,28,31,38,9
3,4,1,-3,1,2,-4,12,29,31,38,9
4,4,0,-4,2,2,-4,11,28,32,38,9
6,5,-1,-5,3,2,-5,10,28,32,38,9
7,5,-2,-6,4,2,-5,9,28,32,38,10
6,5,-2,-5,4,2,-5,10,28,32,39,10
5,5,-1,-4,3,2,-5,10,28,32,39,10
5,5,-1,-4,3,1,-6,10,27,32,38,10
6,5,-1,-5,4,1,-6,9,26,31,38,9
8,6,-1,-7,4,2,-6,10,26,31,38,9
9,7,-1,-8,5,3,-7,10,25,30,38,9
9,8,-1,-8,5,3,-7,10,25,30,38,9
9,8,-2,-8,5,3,-8,9,24,29,38,8
8,7,-2,-7,5,2,-8,8,23,28,38,8
7,6,-1,-6,5,2,-8,7,22,28,39,8
6,5,-1,-5,4,2,-9,7,21,27,39,8
5,4,-1,-3,4,1,-9,7,20,26,38,8
5,3,-1,-3,3,1,-10,7,20,26,37,8
5,3,-1,-4,3,1,-10,5,19,25,36,8
5,3,-1,-4,3,1,-11,4,18,25,36,9
4,3,-1,-4,3,1,-12,3,16,24,35,8
4,3,-1,-4,3,1,-13,1,14,23,33,7
5,4,-1,-4,3,2,-14,0,13,21,32,7
4,5,0,-4,2,3,-14,0,12,20,31,7
4,6,1,-4,1,4,-15,0,10,20,31,7
5,7,1,-5,2,4,-16,0,9,19,30,7
7,9,1,-8,4,5,-17,-2,7,17,29,6
9,9,0,-9,5,5,-19,-5,4,15,27,6
10,9,0,-10,6,4,-20,-7,2,13,25,5
11,9,-2,-11,7,3,-22,-8,0,12,24,5
10,8,-2,-9,7,3,-23,-9,-1,11,24,5
7,7,-1,-7,5,3,-24,-10,-3,10,23,5
7,7,-1,-7,4,3,-25,-11,-4,8,23,5
9,8,-2,-8,5,3,-26,-12,-6,7,22,5
9,7,-2,-8,5,2,-27,-15,-8,5,21,5
7,5,-2,-6,4,1,-29,-17,-10,3,20,5
6,5,-1,-5,3,2,-30,-19,-13,1,19,5
7,6,-1,-6,3,3,-30,-20,-15,0,18,6
8,8,-1,-8,4,4,-32,-21,-17,-1,17,6
10,10,-1,-9,4,5,-34,-22,-19,-3,16,5
11,11,-1,-10,5,5,-36,-24,-21,-5,14,4
12,12,-1,-11,6,5,-37,-26,-23,-6,13,3
12,11,-1,-11,6,4,-38,-28,-25,-8,11,3
11,9,-1,-10,6,4,-40,-29,-28,-10,10,3
10,8,-1,-9,6,3,-41,-30,-30,-12,9,3
11,9,-2,-10,7,3,-42,-31,-32,-13,8,3
12,10,-2,-11,7,4,-42,-31,-33,-14,7,3
11,10,-1,-10,6,4,-42,-32,-34,-15,6,3
10,10,0,-9,5,4,-42,-33,-35,-16,5,2
9,9,0,-8,5,4,-42,-34,-36,-17,4,2
9,8,-1,-8,5,3,-43,-35,-37,-18,2,1
10,7,-2,-8,6,3,-43,-36,-38,-20,1,1
10,7,-3,-8,7,2,-43,-36,-38,-21,1,0
11,6,-4,-8,7,1,-43,-37,-39,-22,1,0
10,5,-5,-7,7,0,-43,-39,-40,-23,0,-1
9,4,-5,-5,7,0,-43,-39,-41,-24,0,-2
9,4,-5,-4,7,0,-43,-39,-42,-25,-1,-3
9,3,-5,-4,7,-1,-43,-39,-43,-26,-2,-4
9,3,-6,-5,7,-1,-43,-40,-43,-26,-3,-4
10,4,-7,-6,8,-1,-44,-40,-43,-27,-3,-5
10,4,-7,-7,9,-1,-44,-40,-43,-27,-3,-5
10,4,-6,-7,8,0,-44,-38,-42,-27,-2,-5
12,6,-6,-9,9,0,-43,-36,-40,-26,-1,-4
15,7,-8,-10,11,0,-42,-35,-39,-26,-1,-4
17,6,-10,-11,13,-1,-42,-34,-39,-25,-1,-5
15,5,-11,-9,12,-2,-41,-33,-37,-25,0,-5
12,3,-10,-7,11,-3,-40,-32,-36,-24,0,-5
11,0,-11,-5,10,-4,-39,-30,-35,-24,-1,-5
10,-1,-12,-4,11,-6,-38,-28,-34,-24,-1,-6
10,-2,-13,-4,12,-7,-36,-27,-33,-24,-1,-6
11,-3,-14,-4,13,-9,-35,-26,-32,-23,-1,-7
13,-4,-16,-4,15,-10,-34,-25,-31,-23,0,-7
13,-4,-17,-4,15,-10,-33,-23,-29,-22,0,-7
14,-3,-17,-4,16,-11,-32,-22,-28,-21,0,-7
15,-3,-18,-5,16,-11,-31,-21,-26,-21,1,-7
15,-3,-19,-5,17,-11,-29,-20,-25,-20,2,-7
15,-3,-18,-6,16,-10,-28,-18,-24,-20,2,-7
13,-3,-16,-5,15,-9,-26,-16,-22,-19,3,-7
11,-3,-13,-4,12,-8,-23,-13,-20,-18,3,-7
8,-3,-11,-3,10,-6,-20,-11,-18,-17,4,-7
7,-2,-10,-2,9,-6,-18,-10,-17,-16,4,-7
9,-2,-10,-3,9,-6,-17,-9,-16,-16,3,-7
10,-1,-11,-4,10,-6,-16,-9,-15,-16,2,-8
10,-1,-11,-4,10,-6,-15,-8,-14,-16,2,-8
8,-1,-10,-3,8,-5,-14,-7,-14,-16,2,-8
5,-3,-9,-1,7,-6,-13,-6,-14,-16,1,-9
2,-6,-9,1,6,-7,-12,-6,-14,-16,1,-10
1,-7,-9,3,5,-8,-10,-5,-14,-15,1,-10
0,-7,-8,4,5,-8,-9,-4,-13,-15,1,-10
0,-7,-8,4,4,-8,-8,-3,-13,-14,1,-9
1,-7,-8,4,4,-7,-7,-2,-12,-14,0,-9
1,-6,-8,3,5,-7,-7,-1,-12,-14,-3,-9
1,-6,-8,3,5,-7,-7,-1,-12,-14,-5,-9
0,-6,-7,3,4,-7,-6,-1,-11,-14,-7,-9
0,-6,-6,3,3,-6,-5,-1,-10,-14,-8,-9
-1,-6,-5,4,2,-5,-4,-1,-10,-13,-9,-9
-2,-6,-4,5,1,-5,-4,-1,-9,-13,-9,-9
-1,-6,-4,5,1,-5,-3,-2,-9,-12,-9,-9
-1,-6,-5,5,2,-6,-3,-3,-9,-12,-9,-9
-1,-7,-5,5,2,-6,-2,-1,-9,-12,-9,-8
-1,-7,-5,5,2,-6,0,1,-7,-11,-9,-8
-1,-8,-7,5,3,-7,1,3,-6,-11,-9,-8
0,-9,-10,4,5,-9,1,3,-6,-11,-9,-9
1,-10,-12,4,7,-11,1,3,-6,-10,-10,-10
1,-11,-12,5,7,-11,0,2,-7,-11,-12,-12
1,-10,-12,4,7,-11,-2,-1,-9,-13,-14,-13
1,-8,-10,4,5,-9,-4,-7,-14,-16,-16,-13
-1,-7,-7,4,3,-7,-8,-16,-23,-22,-19,-13
-2,-5,-3,3,1,-4,-13,-26,-33,-28,-20,-12
-1,-2,-1,2,1,-1,-18,-35,-44,-33,-20,-9
3,0,-2,-1,3,0,-23,-42,-52,-36,-16,-3
8,2,-5,-5,7,0,-28,-46,-57,-34,-9,5
13,5,-7,-9,10,0,-31,-50,-60,-31,-1,14
18,8,-10,-13,14,0,-34,-52,-62,-27,7,23
23,10,-12,-16,17,0,-37,-54,-64,-23,15,32
26,11,-14,-18,20,-1,-40,-55,-65,-19,20,38
29,12,-16,-20,23,-1,-41,-55,-64,-16,24,42
33,15,-18,-24,26,-1,-42,-53,-63,-13,27,46
38,19,-19,-28,29,0,-42,-52,-61,-10,30,50
43,22,-20,-32,31,1,-42,-51,-60,-6,34,55
45,25,-19,-35,32,3,-41,-49,-58,-2,39,59
46,27,-18,-36,32,4,-41,-48,-56,0,43,63
46,29,-17,-37,31,6,-41,-47,-55,-1,43,65
45,31,-14,-38,29,9,-41,-48,-55,-3,40,64
43,32,-11,-37,27,11,-40,-47,-56,-8,35,61
40,30,-9,-35,25,11,-37,-46,-56,-13,28,56
36,26,-9,-30,23,8,-34,-45,-55,-18,18,47
29,19,-10,-24,20,4,-28,-42,-53,-23,5,34
19,11,-7,-15,13,2,-17,-34,-46,-27,-9,17
7,4,-2,-5,4,1,-4,-21,-35,-29,-24,1
-3,-1,1,3,-2,0,8,-6,-22,-29,-36,-12
-9,-5,3,8,-6,0,19,8,-8,-26,-44,-21
-14,-8,5,12,-10,-1,29,22,5,-21,-47,-27
-20,-11,8,17,-14,-1,39,36,19,-15,-48,-30
-23,-13,10,19,-17,-2,47,49,33,-7,-46,-31
-23,-14,10,19,-17,-2,54,62,46,-1,-44,-31
-23,-13,10,19,-17,-2,61,75,59,5,-41,-30
-24,-12,13,19,-19,0,69,89,73,12,-37,-28
-25,-10,15,19,-21,2,77,102,86,18,-33,-25
-26,-10,17,19,-22,3,83,111,97,24,-29,-22
-27,-9,18,18,-23,5,88,116,105,27,-26,-20
-27,-8,20,18,-24,6,92,117,108,29,-24,-18
-28,-6,21,18,-24,8,96,116,108,30,-24,-18
-29,-5,24,18,-26,9,98,112,105,31,-24,-17
-30,-4,26,17,-27,11,100,107,99,30,-24,-16
-28,-3,25,16,-26,11,101,98,89,27,-25,-16
-27,-4,22,16,-24,9,101,87,77,22,-27,-16
-27,-7,20,17,-23,7,100,76,65,17,-28,-16
-26,-9,16,18,-21,4,99,65,53,12,-30,-17
-26,-11,14,18,-20,2,98,54,43,9,-31,-17
-25,-10,14,18,-19,2,97,45,35,6,-31,-17
-24,-9,14,18,-18,2,96,37,28,4,-30,-17
-24,-9,14,17,-18,2,95,30,22,2,-30,-18
-24,-10,14,18,-18,2,96,26,19,0,-31,-19
-24,-11,14,18,-19,1,96,24,17,-1,-31,-19
-25,-12,13,19,-19,1,97,23,16,-1,-30,-18
-26,-14,13,20,-20,0,96,23,16,-1,-29,-16
-27,-14,13,21,-20,0,94,21,16,0,-28,-15
-26,-13,13,20,-19,0,90,20,16,2,-26,-14
-24,-12,12,19,-18,0,84,19,16,5,-24,-12
-21,-10,11,16,-16,0,77,19,17,8,-22,-10
-18,-8,10,14,-14,1,68,19,18,11,-19,-8
-14,-6,8,11,-11,1,58,18,18,13,-17,-6
-11,-5,6,9,-9,1,48,17,19,15,-15,-4
-6,-2,4,5,-6,1,39,16,21,18,-11,-1
-2,0,3,1,-3,2,30,15,23,21,-8,2
-1,1,3,0,-3,2,23,14,26,23,-5,5
-1,2,2,0,-2,2,16,14,27,24,-3,6
1,1,0,0,0,0,10,13,27,24,-3,6
3,1,-1,-1,2,0,5,12,27,22,-3,6
4,3,-1,-3,3,0,2,12,27,21,-3,7
4,3,-1,-3,3,1,0,11,27,21,-2,8
5,3,-2,-4,3,1,-1,11,27,20,-2,8
7,3,-3,-5,5,0,-1,10,27,19,-2,9
6,3,-3,-4,4,0,-1,11,28,19,-1,9
5,3,-2,-3,3,1,-1,12,28,19,-1,10
4,4,-1,-3,2,1,-1,12,29,20,-2,10
3,4,0,-4,2,2,-2,12,29,20,-3,11
3,5,1,-4,2,3,-3,12,29,20,-5,11
4,5,0,-4,2,3,-4,12,29,20,-7,11
4,5,0,-4,2,3,-4,13,29,20,-9,11
4,5,0,-4,2,3,-3,13,29,21,-10,11
4,5,0,-4,1,3,-3,13,29,21,-11,11
3,5,0,-4,1,3,-3,13,29,22,-11,11
4,6,1,-4,1,4,-3,13,29,23,-12,11
4,6,0,-5,2,4,-3,13,29,24,-13,11
5,6,0,-5,2,3,-4,12,29,24,-13,11
5,5,0,-5,2,3,-4,12,29,25,-14,11
6,5,0,-5,3,3,-5,12,29,25,-15,11
6,5,-1,-5,4,3,-5,12,29,26,-16,11
5,5,0,-5,3,3,-5,13,29,27,-17,11
4,5,0,-4,1,3,-5,13,29,27,-17,11
3,5,1,-4,1,3,-5,13,29,28,-17,12
3,5,1,-4,1,3,-5,13,29,29,-17,12
4,5,0,-4,1,2,-5,13,29,29,-18,11
4,5,0,-4,2,3,-6,12,29,29,-18,11
4,6,1,-4,1,4,-5,13,29,29,-18,12
4,6,2,-4,1,4,-5,14,30,29,-18,12
5,6,1,-5,1,4,-5,14,30,29,-18,12
5,6,0,-5,2,3,-5,13,29,29,-19,12
7,6,-2,-6,4,2,-6,13,28,29,-19,11
9,7,-3,-7,5,1,-6,13,28,29,-19,11
9,8,-2,-7,5,2,-7,13,27,29,-20,11
8,7,-1,-7,5,2,-7,12,27,29,-20,11
8,7,-1,-7,5,3,-7,12,27,28,-20,11
8,8,-1,-8,5,3,-7,12,27,28,-20,11
8,7,-1,-8,5,3,-7,11,27,28,-20,11
8,7,-1,-8,5,3,-8,11,26,28,-20,11
8,7,-1,-8,5,3,-9,10,26,28,-20,11
7,7,0,-7,4,3,-9,9,25,28,-20,11
7,7,0,-7,4,3,-9,9,25,28,-20,11
7,7,0,-7,4,3,-10,9,24,27,-21,10
6,7,0,-6,3,3,-10,10,24,27,-21,10
5,6,1,-5,2,3,-10,10,23,27,-22,10
5,6,1,-5,3,3,-10,10,22,26,-22,10
6,7,0,-6,3,3,-10,10,22,26,-22,10
6,7,0,-6,3,3,-11,9,21,26,-23,10
6,6,-1,-5,3,2,-12,7,20,24,-23,10
6,6,0,-5,3,3,-12,7,19,24,-24,10
6,7,1,-6,3,4,-12,6,18,24,-24,10
6,8,1,-6,3,4,-13,5,17,23,-24,10
6,8,1,-6,3,4,-14,3,15,22,-25,10
7,8,0,-7,3,4,-14,1,14,21,-26,9
7,8,0,-8,3,5,-15,0,13,21,-26,9
7,8,0,-7,3,5,-16,0,12,20,-27,9
8,8,0,-7,3,4,-17,0,10,18,-28,9
8,8,0,-7,4,4,-18,-2,9,17,-29,9
8,8,-1,-7,5,3,-19,-3,7,15,-30,9
8,7,-1,-7,5,3,-20,-5,5,14,-31,9
8,8,-1,-7,5,3,-21,-6,3,12,-31,9
8,9,0,-8,4,4,-21,-8,2,11,-31,9
8,9,0,-8,4,5,-22,-9,0,10,-32,9
8,9,0,-8,5,4,-23,-11,-1,9,-33,8
9,9,-1,-8,6,4,-25,-12,-3,7,-34,8
10,9,-1,-8,6,4,-26,-12,-5,5,-35,9
9,8,0,-8,5,4,-27,-13,-7,3,-36,9
8,8,0,-8,5,4,-28,-15,-9,1,-37,8
9,8,0,-8,5,4,-29,-18,-12,0,-39,8
9,8,0,-8,5,4,-30,-20,-14,0,-42,7
9,8,0,-8,5,4,-31,-21,-16,-1,-45,7
9,8,-1,-7,5,3,-33,-23,-18,-3,-48,6
9,8,-2,-8,6,3,-34,-25,-20,-5,-50,5
10,8,-3,-8,7,3,-36,-27,-22,-7,-53,5
11,7,-3,-8,7,3,-37,-28,-25,-9,-55,4
11,7,-3,-8,7,3,-38,-28,-26,-10,-57,4
11,8,-2,-8,7,3,-39,-29,-28,-11,-58,4
11,8,-3,-8,8,2,-39,-31,-29,-13,-60,3
12,8,-4,-9,9,1,-40,-33,-31,-15,-61,3
12,8,-5,-9,9,1,-40,-33,-32,-16,-62,2
11,8,-4,-9,7,2,-40,-33,-32,-17,-63,2
9,7,-2,-7,6,2,-40,-32,-33,-18,-64,2
8,6,-2,-6,5,2,-40,-33,-34,-20,-65,2
9,5,-3,-6,6,1,-41,-34,-35,-21,-67,1
10,6,-3,-7,6,1,-41,-34,-35,-22,-67,1
10,6,-3,-7,6,1,-40,-35,-35,-22,-67,1
10,6,-4,-7,6,1,-40,-36,-35,-23,-68,0
9,6,-3,-7,6,1,-40,-36,-35,-23,-69,0
8,5,-3,-6,5,1,-40,-36,-35,-24,-70,0
8,5,-2,-6,5,1,-39,-35,-34,-24,-71,-1
7,5,-2,-5,5,1,-39,-33,-34,-24,-71,-1
7,5,-3,-5,6,1,-38,-32,-34,-25,-72,-1
8,4,-4,-5,7,0,-38,-31,-34,-26,-73,-2
8,3,-5,-5,7,-1,-37,-30,-33,-26,-74,-3
7,2,-6,-4,7,-1,-36,-28,-32,-26,-74,-3
8,2,-6,-4,7,-2,-35,-26,-31,-26,-75,-4
8,2,-7,-4,8,-2,-35,-24,-31,-27,-75,-4
8,2,-7,-4,8,-2,-33,-22,-30,-27,-75,-5
8,2,-6,-4,7,-2,-32,-21,-29,-26,-75,-5
7,2,-5,-4,6,-1,-30,-21,-27,-26,-75,-5
5,1,-5,-3,5,-2,-29,-21,-26,-26,-75,-5
5,0,-5,-2,5,-2,-28,-20,-24,-26,-75,-6
5,0,-5,-2,5,-3,-27,-19,-23,-26,-74,-6
5,0,-6,-2,5,-3,-25,-17,-21,-26,-74,-6
5,0,-6,-1,5,-3,-23,-16,-20,-25,-73,-6
4,-1,-6,0,5,-4,-22,-16,-19,-24,-73,-6
3,-3,-6,1,4,-4,-21,-15,-18,-24,-73,-7
2,-3,-6,1,4,-4,-20,-15,-18,-22,-73,-7
3,-3,-6,1,5,-4,-19,-14,-17,-21,-73,-8
3,-2,-6,0,5,-4,-17,-13,-15,-19,-72,-8
2,-3,-5,1,5,-4,-16,-11,-14,-18,-72,-8
0,-4,-5,2,3,-4,-14,-8,-13,-17,-73,-8
0,-4,-4,3,2,-4,-13,-6,-12,-16,-73,-9
0,-4,-5,3,3,-4,-12,-5,-12,-15,-73,-9
0,-4,-5,3,3,-4,-11,-4,-12,-15,-73,-10
0,-4,-5,3,3,-4,-10,-4,-12,-15,-73,-10
0,-5,-5,3,3,-5,-9,-4,-12,-15,-74,-11
0,-5,-6,3,3,-5,-8,-4,-11,-15,-74,-11
0,-5,-6,3,3,-5,-7,-3,-11,-14,-74,-11
0,-5,-6,3,3,-5,-6,-2,-10,-14,-73,-10
0,-6,-6,3,3,-6,-6,-1,-10,-14,-73,-10
0,-6,-6,3,3,-6,-5,-1,-10,-14,-72,-10
0,-5,-5,3,3,-5,-4,0,-9,-13,-71,-10
1,-5,-6,2,4,-5,-3,-1,-9,-13,-71,-10
2,-5,-7,2,5,-6,-3,-1,-9,-13,-70,-10
1,-5,-6,3,4,-6,-2,-1,-9,-13,-70,-10
0,-6,-5,3,3,-5,-2,0,-8,-13,-70,-10
0,-6,-5,4,2,-5,-1,0,-8,-13,-70,-10
-2,-7,-4,5,1,-5,-1,0,-8,-13,-70,-10
-4,-7,-3,7,0,-5,-1,0,-8,-13,-69,-10
-4,-7,-3,7,0,-5,-1,0,-8,-13,-69,-10
-3,-7,-4,6,0,-5,-1,-1,-8,-13,-69,-10
-1,-6,-4,4,1,-5,0,0,-8,-12,-68,-10
0,-4,-4,3,2,-4,0,0,-7,-12,-68,-9
0,-3,-5,2,2,-4,1,0,-7,-12,-67,-9
1,-3,-5,1,2,-4,1,0,-7,-12,-67,-8
0,-3,-5,2,2,-4,1,-1,-7,-12,-66,-8
0,-4,-5,2,2,-4,0,-2,-7,-12,-66,-9
2,-4,-6,2,4,-5,0,-2,-8,-13,-67,-9
3,-4,-7,1,5,-5,0,-2,-8,-13,-67,-9
3,-4,-7,1,5,-5,0,-3,-8,-13,-67,-9
3,-4,-7,1,5,-5,0,-4,-8,-13,-66,-9
3,-4,-6,1,4,-5,0,-4,-7,-12,-66,-8
1,-4,-5,2,2,-4,0,-4,-7,-12,-65,-8
0,-5,-5,2,2,-4,0,-2,-7,-12,-65,-8
1,-5,-5,2,3,-4,0,-2,-7,-12,-65,-8
1,-4,-5,2,3,-4,0,-1,-7,-12,-65,-8
0,-4,-5,2,3,-4,0,-1,-7,-12,-64,-8
0,-5,-5,3,3,-4,0,-1,-7,-12,-64,-8
-1,-5,-5,3,2,-4,0,-1,-7,-12,-64,-9
-2,-6,-5,4,1,-4,0,0,-8,-12,-64,-9
-1,-6,-5,3,2,-5,0,0,-8,-12,-64,-9
-1,-6,-5,3,2,-5,0,1,-9,-12,-64,-9
-1,-6,-5,4,2,-5,0,2,-9,-12,-64,-9
-1,-5,-4,3,2,-4,0,2,-8,-12,-63,-9
0,-4,-5,2,3,-4,0,2,-8,-12,-62,-8
0,-4,-5,2,3,-4,0,2,-8,-12,-62,-8
0,-4,-5,2,3,-4,0,2,-8,-13,-61,-8
0,-5,-5,3,3,-5,0,1,-8,-13,-61,-8
0,-5,-6,3,3,-5,0,0,-8,-14,-61,-8
1,-5,-6,2,3,-5,0,-1,-8,-14,-61,-8
1,-5,-6,2,3,-5,0,-2,-8,-14,-61,-8
0,-6,-6,3,3,-5,0,-2,-8,-15,-61,-8
0,-6,-6,3,3,-5,0,-2,-8,-15,-61,-8
0,-6,-6,3,3,-5,0,-2,-9,-15,-61,-8
0,-5,-6,2,4,-5,0,-2,-9,-15,-61,-8
0,-5,-6,2,4,-5,0,-2,-9,-15,-61,-8
0,-6,-6,3,3,-5,0,-2,-9,-15,-60,-8
0,-6,-7,3,3,-6,0,-3,-9,-15,-59,-8
0,-7,-7,4,3,-6,0,-4,-9,-15,-58,-8
0,-7,-7,4,3,-6,0,-5,-9,-15,-56,-8
0,-7,-6,4,3,-6,0,-5,-9,-14,-55,-8
1,-6,-7,3,3,-6,0,-4,-9,-14,-53,-8
2,-5,-7,2,4,-6,0,-4,-9,-14,-52,-8
2,-5,-7,2,4,-6,0,-3,-9,-14,-51,-8
2,-5,-7,2,4,-6,0,-3,-9,-14,-51,-8
2,-5,-7,2,4,-5,0,-3,-8,-14,-50,-8
1,-5,-6,3,3,-5,0,-3,-8,-14,-49,-8
0,-5,-5,3,2,-4,1,-4,-8,-14,-48,-8
0,-6,-5,4,1,-4,0,-4,-8,-14,-48,-8
0,-6,-6,4,2,-5,0,-4,-8,-14,-47,-8
0,-7,-6,4,2,-6,0,-4,-8,-14,-47,-8
0,-7,-6,4,1,-5,0,-4,-8,-13,-46,-7
0,-6,-5,4,1,-5,0,-4,-8,-13,-46,-7
0,-6,-6,3,2,-5,0,-5,-8,-13,-46,-7
0,-6,-7,3,3,-5,0,-5,-8,-13,-46,-8
0,-6,-6,3,3,-5,0,-4,-8,-13,-45,-8
-2,-7,-5,5,1,-5,0,-4,-8,-13,-45,-8
-4,-7,-4,6,0,-5,0,-4,-8,-12,-44,-8
-2,-7,-5,5,1,-6,0,-4,-9,-12,-44,-8
0,-7,-8,4,3,-7,0,-5,-9,-12,-44,-9
1,-7,-8,3,4,-7,0,-5,-9,-12,-44,-8
1,-7,-8,3,5,-7,0,-6,-9,-12,-43,-8
2,-7,-9,2,6,-7,0,-6,-9,-12,-43,-8
4,-6,-9,1,7,-7,0,-7,-9,-12,-42,-8
4,-5,-9,1,6,-6,0,-7,-9,-12,-42,-8
2,-5,-7,2,4,-6,0,-6,-8,-12,-41,-7
1,-6,-6,2,3,-6,0,-6,-8,-11,-41,-7
0,-6,-6,3,3,-6,0,-6,-8,-11,-40,-7
0,-6,-6,3,3,-5,0,-6,-8,-11,-40,-6
0,-6,-6,3,3,-5,0,-6,-8,-10,-40,-6
0,-7,-7,3,4,-6,0,-6,-8,-10,-40,-6
0,-7,-6,3,3,-5,0,-5,-7,-9,-40,-6
0,-6,-6,3,3,-5,0,-5,-7,-8,-40,-6
1,-6,-7,2,3,-6,0,-6,-8,-8,-40,-7
1,-6,-8,2,4,-7,-1,-7,-8,-8,-40,-7
0,-6,-8,3,3,-7,-1,-7,-8,-8,-40,-7
-1,-7,-7,4,2,-7,0,-7,-8,-8,-39,-7
-1,-8,-7,4,3,-7,0,-9,-8,-9,-39,-8
0,-8,-8,3,4,-7,0,-10,-8,-9,-39,-8
1,-8,-9,3,5,-7,0,-10,-8,-9,-39,-8
1,-8,-8,3,5,-7,0,-9,-8,-9,-39,-8
0,-8,-7,4,4,-7,0,-8,-8,-9,-38,-7
0,-8,-7,4,3,-7,0,-7,-8,-9,-38,-7
0,-7,-7,4,2,-7,0,-6,-8,-9,-38,-7
0,-7,-7,4,3,-7,0,-6,-8,-9,-38,-7
0,-7,-6,3,3,-6,0,-5,-8,-9,-38,-7
0,-6,-6,3,3,-5,1,-4,-7,-9,-37,-7
0,-6,-6,3,3,-5,1,-4,-7,-9,-37,-7
0,-7,-7,3,4,-6,0,-5,-7,-9,-38,-7
2,-6,-8,2,5,-6,0,-5,-7,-9,-38,-7
3,-5,-9,1,6,-7,0,-5,-7,-9,-38,-7
2,-6,-9,2,5,-7,0,-4,-7,-9,-38,-7
1,-6,-8,3,4,-7,0,-4,-7,-9,-38,-7
0,-6,-7,3,3,-6,0,-3,-7,-8,-37,-7
1,-6,-7,3,4,-6,0,-2,-7,-8,-37,-7
2,-6,-8,3,5,-7,0,-2,-7,-8,-38,-7
2,-6,-8,2,5,-7,0,-1,-7,-8,-38,-7
2,-6,-8,2,5,-6,0,-1,-7,-7,-38,-7
2,-6,-8,2,5,-6,0,0,-7,-7,-38,-7
2,-5,-8,1,5,-6,0,0,-6,-6,-37,-7
2,-4,-7,1,4,-5,0,0,-6,-6,-36,-6
2,-3,-6,0,4,-4,0,1,-5,-5,-36,-6
2,-3,-5,0,4,-3,1,1,-5,-5,-35,-6
1,-3,-5,1,3,-3,1,1,-5,-4,-35,-5
0,-3,-4,1,2,-2,1,1,-5,-3,-34,-5
0,-2,-3,1,1,-2,2,2,-4,-2,-34,-4
1,-1,-3,0,1,-1,2,2,-4,-2,-33,-4
3,0,-3,-1,2,-1,2,2,-3,-2,-33,-3
4,0,-3,-2,2,-1,2,2,-3,-2,-33,-3
4,0,-3,-2,3,-1,2,2,-4,-2,-33,-4
5,0,-3,-2,3,0,1,1,-4,-2,-33,-4
5,1,-2,-3,3,0,1,1,-3,-1,-33,-3
4,2,-2,-3,3,1,1,1,-3,0,-32,-3
4,2,-1,-3,2,1,1,0,-2,0,-32,-2
5,3,-1,-4,2,2,1,0,-2,1,-31,-2
6,4,-1,-4,3,1,0,0,-2,1,-31,-1
6,3,-2,-4,3,1,0,0,-2,1,-31,-1
6,3,-2,-4,3,1,0,-2,-1,2,-31,-1
6,3,-2,-4,3,1,0,-3,-1,2,-31,0
6,3,-2,-5,4,1,-1,-4,-1,2,-31,0
7,3,-3,-5,5,0,-2,-6,-2,2,-31,0
8,3,-5,-5,6,0,-3,-7,-3,2,-31,-1
9,3,-6,-5,7,-1,-5,-7,-3,1,-32,-1
10,3,-7,-6,8,-2,-6,-7,-4,1,-32,-2
11,2,-8,-7,9,-2,-7,-7,-5,1,-33,-2
10,2,-7,-7,8,-2,-7,-7,-5,1,-32,-1
10,3,-6,-7,7,-1,-7,-7,-4,1,-31,0
10,3,-6,-7,8,-1,-6,-6,-4,2,-31,0
10,3,-6,-6,8,-1,-6,-5,-4,2,-30,0
10,3,-6,-6,8,-1,-6,-5,-4,2,-30,0
10,2,-7,-6,8,-1,-6,-5,-4,2,-30,0
10,2,-7,-6,9,-2,-5,-4,-4,2,-30,0
10,2,-8,-6,9,-2,-5,-4,-4,2,-31,0
10,1,-8,-5,9,-3,-5,-4,-5,1,-32,0
10,0,-9,-5,9,-3,-6,-5,-6,1,-32,-1
10,0,-10,-5,10,-4,-6,-6,-7,0,-33,-1
10,-1,-11,-5,10,-5,-7,-7,-8,0,-34,-2
10,-1,-12,-5,10,-6,-8,-9,-9,-1,-35,-2
9,-2,-11,-4,10,-6,-8,-10,-10,-1,-35,-2
9,-2,-11,-4,10,-6,-8,-11,-10,-2,-36,-2
10,-1,-11,-5,10,-6,-8,-11,-10,-2,-36,-2
10,-1,-11,-5,10,-6,-8,-10,-10,-2,-37,-2
9,-2,-11,-3,10,-6,-8,-9,-10,-2,-37,-3
7,-4,-10,-2,9,-6,-8,-9,-10,-2,-38,-3
6,-4,-10,-1,8,-6,-7,-8,-9,-2,-38,-3
7,-4,-10,-2,9,-6,-6,-7,-9,-2,-38,-3
8,-3,-11,-3,9,-6,-5,-6,-8,-1,-38,-3
8,-3,-10,-2,8,-6,-4,-6,-8,-1,-38,-3
6,-4,-9,-1,6,-6,-4,-5,-8,-1,-38,-3
4,-5,-7,0,5,-6,-3,-5,-8,-1,-38,-3
2,-5,-6,2,3,-6,-3,-5,-7,-1,-38,-3
1,-6,-6,2,3,-6,-3,-4,-7,-1,-38,-3
0,-6,-7,3,3,-6,-2,-5,-7,-2,-38,-4
0,-7,-7,4,3,-7,-2,-5,-7,-2,-39,-4
-1,-8,-8,5,3,-8,-2,-5,-7,-3,-39,-5
-1,-9,-8,5,3,-8,-2,-5,-7,-3,-39,-5
-1,-10,-8,6,3,-9,-2,-5,-8,-4,-39,-6
-2,-10,-9,6,3,-9,-2,-5,-8,-4,-40,-7
-2,-11,-9,6,3,-9,-2,-5,-9,-5,-40,-7
-1,-11,-9,6,3,-9,-2,-5,-9,-5,-41,-7
-1,-11,-9,6,3,-9,-2,-5,-9,-6,-41,-7
0,-11,-10,5,4,-10,-2,-4,-9,-6,-42,-7
0,-11,-10,5,4,-10,-2,-4,-9,-6,-42,-8
0,-10,-10,4,4,-10,-2,-4,-9,-6,-42,-8
1,-10,-11,4,5,-10,-2,-4,-9,-6,-42,-8
1,-10,-11,4,5,-10,-2,-4,-9,-6,-42,-8
1,-10,-11,4,5,-10,-2,-4,-9,-6,-41,-7
1,-9,-10,4,5,-10,-2,-3,-8,-6,-41,-7
1,-9,-10,4,5,-10,-2,-4,-8,-7,-41,-7
0,-10,-9,5,5,-9,-2,-4,-8,-7,-41,-7
-1,-10,-8,6,4,-9,-1,-4,-8,-7,-40,-7
0,-10,-9,6,4,-10,-1,-4,-8,-7,-40,-7
0,-11,-9,5,5,-10,-1,-5,-8,-8,-41,-8
-1,-12,-9,6,4,-10,-1,-4,-8,-8,-41,-8
-2,-13,-10,7,4,-11,0,-4,-8,-9,-42,-8
-1,-14,-13,7,5,-12,0,-3,-8,-9,-43,-9
0,-15,-15,7,7,-14,0,-2,-8,-10,-44,-11
0,-15,-15,7,7,-14,0,-1,-8,-10,-45,-12
0,-15,-14,7,7,-14,1,-1,-8,-11,-46,-13
0,-14,-14,7,7,-14,0,-3,-10,-13,-48,-14
0,-14,-13,7,6,-13,-3,-7,-14,-16,-49,-14
-1,-12,-10,7,4,-10,-7,-14,-20,-19,-50,-13
0,-9,-8,5,3,-8,-11,-22,-27,-23,-51,-11
3,-6,-8,2,5,-6,-17,-31,-34,-25,-50,-9
7,-4,-9,0,7,-5,-22,-38,-40,-27,-47,-5
11,-1,-10,-4,10,-5,-25,-43,-44,-25,-42,1
14,2,-11,-8,12,-4,-28,-46,-46,-21,-34,9
17,4,-12,-11,15,-3,-30,-47,-48,-16,-25,19
22,7,-14,-15,18,-2,-33,-49,-49,-11,-15,28
28,10,-17,-19,22,-2,-37,-50,-50,-5,-5,37
34,14,-21,-24,27,-2,-40,-52,-51,-1,3,44
40,16,-24,-28,32,-3,-42,-52,-52,0,7,49
45,17,-28,-30,36,-4,-43,-52,-54,0,9,51
48,18,-30,-32,39,-5,-43,-52,-55,0,10,53
51,19,-32,-34,41,-5,-44,-52,-56,0,12,56
53,20,-33,-36,42,-6,-44,-51,-56,1,15,60
53,20,-32,-36,42,-6,-43,-51,-57,1,17,62
52,21,-30,-36,41,-4,-43,-52,-58,0,18,63
51,23,-27,-37,39,-2,-43,-54,-61,-4,16,63
50,25,-25,-37,38,0,-44,-57,-66,-10,11,61
49,24,-25,-36,37,0,-44,-61,-70,-17,6,57
46,21,-25,-33,36,-1,-42,-65,-73,-23,0,52
40,16,-24,-28,32,-3,-39,-66,-73,-28,-6,46
31,10,-21,-21,26,-4,-32,-62,-70,-33,-16,37
21,4,-18,-13,20,-6,-23,-54,-64,-38,-28,24
11,-2,-14,-5,13,-7,-13,-43,-55,-42,-41,10
4,-6,-11,1,7,-8,-2,-30,-45,-45,-52,-3
-2,-10,-8,6,2,-9,7,-17,-33,-44,-60,-13
-8,-13,-4,11,-2,-8,16,-3,-20,-41,-64,-20
-13,-14,0,14,-7,-7,26,11,-7,-37,-65,-24
-18,-15,4,17,-11,-5,35,24,6,-31,-65,-26
-23,-15,9,19,-16,-3,45,38,20,-25,-64,-27
-27,-16,13,21,-20,-1,56,52,35,-19,-61,-27
-28,-15,14,21,-21,0,66,67,48,-12,-58,-27
-27,-13,15,19,-21,1,75,79,59,-6,-55,-26
-26,-10,17,18,-22,4,83,87,68,-1,-50,-23
-27,-8,19,17,-23,6,90,91,74,4,-46,-20
-27,-6,21,16,-24,8,94,90,76,7,-43,-18
-27,-6,22,16,-24,8,96,85,75,9,-42,-17
-27,-6,22,16,-25,9,98,79,71,10,-41,-16
-28,-7,23,17,-26,9,101,72,64,8,-42,-16
-30,-7,23,18,-26,8,102,62,54,6,-43,-17
-31,-9,22,19,-26,7,103,52,43,3,-44,-18
-31,-10,20,20,-26,6,105,44,35,1,-44,-19
-32,-12,19,22,-26,4,106,38,29,0,-44,-19
-32,-13,18,23,-26,3,106,33,24,-1,-44,-18
-30,-15,16,23,-24,1,105,27,20,-3,-44,-18
-29,-16,14,23,-21,0,102,21,16,-4,-44,-19
-28,-16,12,22,-20,-1,98,16,13,-4,-44,-19
-27,-17,11,22,-19,-2,93,12,11,-5,-44,-18
-27,-16,11,21,-19,-2,88,9,9,-4,-43,-18
-26,-16,11,21,-19,-2,83,7,9,-3,-41,-17
-25,-15,11,21,-18,-1,78,5,10,-2,-39,-16
-24,-13,11,19,-17,-1,74,5,10,-1,-38,-15
-22,-11,11,17,-17,0,71,4,12,0,-37,-14
-21,-9,12,16,-17,1,68,4,13,1,-36,-13
-22,-8,15,15,-19,4,64,3,14,2,-34,-11
-24,-7,17,16,-21,6,61,2,15,4,-33,-10
-23,-7,17,15,-21,6,56,3,15,5,-32,-9
-21,-7,14,14,-18,4,51,3,16,7,-32,-8
-18,-7,10,13,-15,2,45,3,16,8,-31,-7
-16,-7,8,12,-12,1,39,4,17,10,-29,-6
-13,-7,6,11,-9,0,33,5,18,12,-28,-4
-9,-6,3,8,-6,-1,28,6,19,14,-27,-3
-6,-5,1,6,-4,-1,22,6,21,16,-26,-1
-4,-4,0,4,-2,0,16,6,23,18,-25,0
-2,-2,0,2,-1,0,12,7,25,20,-24,2
0,-1,-1,0,0,0,9,9,27,23,-24,3
2,0,-2,-1,1,0,7,10,28,24,-23,3
3,1,-3,-1,2,0,5,12,29,26,-22,4
4,2,-2,-2,3,1,4,14,31,27,-21,5
5,4,-2,-3,3,2,4,15,32,29,-21,6
5,4,-1,-4,3,2,3,16,32,30,-20,7
5,4,0,-4,2,3,3,16,33,31,-20,8
5,4,0,-5,2,3,2,17,33,32,-20,9
5,4,0,-5,2,3,2,17,34,32,-20,9
6,5,-1,-6,3,3,1,18,34,32,-20,9
7,5,-2,-6,4,2,1,18,33,32,-20,8
8,5,-2,-6,5,2,0,18,33,32,-20,8
7,5,-1,-5,4,3,0,19,33,32,-20,8
5,5,0,-4,2,3,0,19,34,33,-20,9
4,5,1,-4,2,3,0,19,34,33,-20,9
4,5,0,-5,2,3,0,19,34,32,-21,9
5,4,-1,-5,3,2,0,19,33,32,-21,9
4,3,-1,-4,2,2,0,19,33,32,-21,8
3,2,-1,-3,2,1,0,18,33,32,-21,8
4,2,-2,-3,3,1,0,18,33,32,-22,8
7,3,-3,-5,4,1,-1,17,33,32,-22,8
8,5,-2,-6,5,2,-1,18,33,33,-22,9
7,5,-1,-6,4,3,-1,19,33,33,-22,9
6,5,0,-6,3,3,-1,20,33,33,-22,9
5,4,0,-5,3,3,-1,20,33,33,-22,9
5,4,0,-5,2,3,-1,20,33,33,-22,9
5,5,0,-5,2,3,0,20,34,33,-22,9
6,5,0,-5,3,3,0,20,34,33,-22,9
6,5,-1,-5,3,2,-1,20,33,33,-23,9
7,5,-1,-5,4,2,-1,20,33,32,-23,8
7,5,-1,-6,4,2,-1,20,33,32,-24,8
6,5,-1,-6,4,2,-1,21,33,33,-24,9
6,5,-1,-6,4,2,-1,21,33,33,-25,9
7,5,-1,-7,5,2,-2,21,32,33,-25,9
7,5,-1,-7,4,3,-2,21,32,33,-25,9
6,5,0,-6,3,3,-2,21,32,34,-24,9
5,5,0,-5,2,3,-2,21,32,34,-24,9
6,5,-1,-6,3,3,-3,20,31,33,-25,9
7,5,-2,-7,5,2,-3,19,30,33,-26,9
9,5,-3,-8,6,2,-4,18,30,33,-26,9
10,5,-4,-8,7,1,-4,18,29,32,-27,8
9,5,-3,-7,6,2,-4,17,29,32,-27,8
7,5,-1,-6,4,3,-4,18,30,33,-26,9
6,5,0,-6,2,3,-4,18,29,33,-26,9
5,5,0,-5,2,3,-5,18,28,32,-27,9
5,5,0,-5,2,3,-5,18,27,31,-28,9
5,5,0,-5,2,2,-6,18,26,30,-28,8
6,5,0,-5,3,2,-6,17,26,30,-29,8
7,5,-1,-6,3,2,-6,16,25,29,-29,8
8,6,-1,-7,4,2,-6,15,25,29,-30,8
8,6,-1,-7,4,2,-7,14,24,28,-30,8
6,6,0,-7,3,3,-7,12,24,28,-30,8
5,6,1,-6,1,3,-8,11,23,27,-30,8
4,6,2,-5,0,3,-8,10,22,27,-31,8
3,6,2,-5,0,4,-9,10,21,27,-31,9
3,6,3,-5,0,5,-9,9,21,27,-31,9
3,7,4,-5,0,6,-9,8,20,27,-31,10
3,8,5,-6,-1,7,-10,7,20,27,-31,10
2,8,5,-6,-1,7,-11,6,18,26,-31,10
2,7,6,-6,-2,6,-12,5,17,26,-32,10
2,7,6,-6,-2,6,-13,5,15,25,-33,10
1,7,7,-5,-3,7,-13,4,14,25,-33,10
0,8,8,-4,-4,8,-14,2,13,24,-34,11
0,9,9,-5,-5,9,-14,1,12,23,-34,11
0,10,10,-5,-6,10,-15,0,11,22,-34,11
-1,10,12,-5,-7,11,-16,-1,10,21,-35,11
0,11,12,-6,-6,12,-17,-3,9,19,-35,11
1,11,11,-7,-4,11,-19,-5,6,18,-36,11
3,12,10,-8,-3,11,-20,-7,4,16,-37,11
3,12,9,-8,-3,11,-22,-9,1,15,-38,11
2,12,10,-8,-4,11,-23,-11,0,14,-39,11
1,12,10,-7,-4,11,-24,-12,-2,13,-40,11
1,12,10,-7,-4,11,-25,-14,-3,12,-41,11
1,12,10,-7,-4,11,-26,-15,-5,10,-41,10
1,11,10,-7,-4,11,-28,-16,-7,9,-42,10
0,11,11,-6,-5,11,-29,-18,-9,8,-42,10
1,11,11,-7,-5,12,-30,-19,-10,8,-43,11
2,12,11,-7,-4,12,-31,-21,-12,7,-43,11
3,13,11,-8,-3,12,-33,-22,-14,6,-44,11
4,14,10,-9,-2,12,-34,-23,-16,5,-45,11
5,14,10,-9,-2,13,-34,-25,-17,5,-45,11
4,14,11,-9,-3,13,-35,-26,-18,4,-45,11
3,14,11,-9,-3,13,-35,-27,-19,3,-46,11
4,14,11,-9,-3,13,-36,-27,-20,2,-46,11
4,14,11,-9,-4,13,-37,-28,-21,1,-47,11
3,14,11,-9,-4,13,-37,-28,-22,0,-47,11
4,14,11,-9,-3,12,-38,-29,-23,-1,-47,11
3,13,10,-9,-3,12,-38,-29,-24,-1,-48,11
2,13,11,-8,-4,12,-38,-29,-24,-2,-48,10
1,12,11,-7,-4,12,-38,-29,-25,-2,-48,10
2,12,11,-8,-4,12,-37,-29,-25,-3,-48,10
3,13,10,-9,-3,12,-37,-29,-25,-3,-48,10
4,13,9,-9,-2,11,-37,-29,-25,-4,-49,9
4,12,9,-9,-2,10,-37,-28,-26,-5,-49,9
3,12,9,-8,-3,11,-35,-27,-25,-5,-49,9
3,13,9,-8,-3,11,-34,-25,-25,-5,-48,9
3,12,9,-7,-3,11,-33,-24,-24,-5,-48,8
3,12,9,-7,-3,11,-33,-23,-24,-5,-49,8
2,11,9,-7,-3,10,-32,-22,-24,-5,-49,7
3,11,8,-7,-2,10,-32,-21,-24,-5,-49,6
4,11,7,-7,-1,9,-31,-20,-23,-5,-49,6
3,11,8,-7,-2,9,-30,-19,-22,-5,-49,6
1,10,9,-6,-4,9,-28,-17,-21,-5,-49,6
0,10,9,-5,-5,9,-27,-16,-20,-5,-49,5
0,10,9,-4,-5,9,-25,-15,-19,-5,-49,5
1,10,9,-5,-4,9,-24,-13,-18,-5,-49,5
1,9,8,-5,-3,9,-23,-12,-17,-5,-49,5
0,8,8,-5,-3,9,-22,-10,-16,-5,-49,4
0,7,9,-4,-4,9,-21,-8,-15,-4,-48,4
-1,7,9,-3,-5,9,-19,-6,-14,-4,-48,4
-2,7,9,-3,-6,9,-17,-4,-13,-3,-48,4
-3,7,10,-2,-6,9,-15,-1,-12,-3,-48,4
-1,7,9,-3,-5,8,-14,0,-11,-2,-48,4
0,7,8,-3,-4,8,-13,1,-10,-2,-48,3
0,7,8,-3,-4,8,-13,2,-9,-2,-48,3
-2,6,8,-2,-5,8,-12,1,-9,-2,-48,3
-3,5,8,-1,-5,8,-11,1,-8,-2,-48,3
-3,5,9,-1,-6,8,-10,1,-7,-1,-48,3
-4,5,9,0,-7,8,-9,2,-6,-1,-48,3
-4,5,10,0,-7,7,-7,4,-5,-1,-48,2
-4,5,9,0,-7,7,-6,5,-5,-1,-48,2
-4,4,9,0,-7,7,-5,5,-4,-1,-47,1
-5,3,10,1,-8,7,-5,5,-4,0,-46,1
-7,2,11,3,-9,7,-4,6,-3,0,-44,1
-8,2,10,3,-9,7,-4,6,-3,0,-43,1
-8,1,10,3,-9,6,-3,6,-3,0,-42,0
-8,1,9,3,-9,5,-2,6,-3,0,-42,0
-7,1,8,3,-8,4,-1,6,-3,0,-41,0
-6,1,8,2,-7,4,-1,6,-2,0,-41,0
-6,1,9,2,-8,5,0,6,-2,0,-41,0
-7,1,10,2,-9,6,1,6,-1,0,-40,0
-7,2,10,2,-9,6,1,6,-1,1,-39,0
-7,2,11,2,-9,7,1,5,0,1,-38,0
-8,2,11,2,-10,7,2,5,0,1,-38,0
-8,1,10,3,-10,6,2,5,0,0,-38,0
-8,0,9,3,-9,5,2,5,0,0,-39,-1
-9,0,9,4,-9,5,2,4,0,1,-39,-1
-9,0,10,4,-10,6,3,4,0,1,-38,-1
-10,0,10,5,-10,6,3,3,0,1,-38,-1
-10,-1,10,5,-10,5,3,2,0,0,-39,-2
-9,0,9,5,-9,5,2,2,0,0,-39,-2
-8,1,9,3,-8,6,2,2,0,1,-38,-1
-6,2,8,2,-7,6,2,2,0,1,-38,-2
-5,3,7,1,-6,5,2,2,0,1,-38,-2
-6,2,8,2,-7,5,3,3,0,1,-38,-2
-7,2,9,3,-8,5,3,3,0,1,-38,-2
-8,1,10,3,-9,5,3,3,0,1,-38,-3
-9,0,10,4,-9,5,3,3,0,0,-38,-3
-10,0,11,5,-11,6,4,3,0,0,-36,-3
-11,0,12,5,-11,7,4,4,0,0,-35,-3
-10,1,12,4,-11,7,5,4,0,0,-34,-3
-10,1,11,4,-11,7,5,3,0,0,-34,-3
-11,1,11,5,-11,6,5,3,0,0,-34,-3
-11,0,12,6,-12,6,5,2,0,0,-34,-4
-11,0,12,6,-12,6,5,2,0,0,-34,-4
-11,0,12,5,-12,7,5,2,0,0,-34,-4
-11,1,13,5,-12,8,5,3,0,0,-34,-4
-11,1,13,4,-12,8,5,4,0,0,-34,-4
-9,2,12,3,-11,8,5,4,0,0,-34,-4
-7,3,11,2,-9,8,5,4,1,0,-33,-4
-6,4,11,1,-9,8,6,5,1,1,-33,-4
-7,4,12,1,-10,9,7,6,2,1,-32,-3
-7,4,13,1,-11,9,7,7,2,2,-32,-3
-6,5,12,0,-9,8,6,7,2,1,-32,-4
-5,5,12,0,-8,8,6,7,2,1,-32,-4
-7,5,14,1,-10,9,7,8,2,1,-31,-4
-9,5,15,1,-11,10,8,8,3,2,-31,-3
-9,6,15,1,-11,11,8,7,3,2,-30,-3
-8,7,15,1,-11,11,8,7,3,2,-30,-3
-7,8,15,0,-11,12,8,7,3,2,-29,-3
-7,8,16,0,-12,13,8,7,4,3,-28,-2
-9,9,18,0,-14,14,8,7,4,3,-27,-1
-9,9,19,0,-14,14,8,8,4,3,-26,-1
-9,9,19,0,-14,14,7,7,4,3,-26,-1
-9,9,19,0,-14,14,7,6,4,3,-26,-1
-9,9,19,0,-14,14,7,6,4,3,-25,-1
-9,9,19,0,-14,14,7,6,5,4,-25,0
-8,9,18,0,-13,14,7,6,5,4,-25,0
-7,9,17,-1,-12,13,6,6,5,4,-25,0
-7,8,16,0,-12,12,5,5,4,4,-25,0
-8,7,16,0,-12,11,4,4,4,4,-26,0
-7,6,15,0,-11,10,2,2,3,4,-26,0
-5,6,13,-1,-9,10,1,1,2,4,-26,0
-2,7,11,-2,-7,9,0,1,1,4,-27,0
-3,7,11,-2,-8,9,0,0,1,4,-27,0
-5,7,13,0,-10,10,0,0,0,4,-27,0
-6,7,13,0,-10,10,0,1,0,5,-26,0
-4,8,12,-1,-8,10,-1,2,0,5,-26,0
-1,8,9,-3,-5,9,-1,1,0,5,-26,0
0,8,8,-4,-3,9,-1,1,0,5,-26,0
0,8,7,-4,-3,8,-1,1,0,6,-26,0
-1,7,8,-3,-4,8,0,1,0,6,-26,0
-2,6,9,-2,-5,8,0,2,0,6,-26,0
-2,6,9,-1,-6,8,0,2,0,6,-26,0
-3,5,8,-1,-6,7,0,1,-1,6,-27,0
-3,4,8,0,-6,6,0,0,-2,5,-27,0
-4,3,8,0,-6,5,-1,-1,-3,5,-27,0
-4,3,8,0,-5,5,-1,-1,-4,5,-27,-1
-3,3,7,0,-5,5,-2,-3,-5,4,-28,-1
-3,2,6,0,-4,4,-3,-4,-6,3,-28,-2
-3,2,6,0,-5,4,-3,-5,-6,3,-28,-2
-4,3,8,0,-6,5,-2,-5,-6,4,-27,-1
-4,4,9,0,-7,6,-1,-4,-5,5,-27,-1
-4,4,9,0,-7,7,0,-3,-5,5,-26,0
-4,4,9,0,-6,6,0,-3,-4,5,-26,0
-5,3,9,0,-7,6,0,-3,-4,6,-25,0
-6,2,9,2,-8,6,1,-2,-4,6,-25,0
-7,1,9,3,-8,6,1,-2,-3,6,-25,-1
-8,0,9,4,-9,5,2,-2,-3,6,-25,-1
-9,0,10,5,-10,5,2,-2,-3,6,-25,-2
-10,0,10,6,-11,5,2,-3,-4,5,-25,-2
-12,-2,9,7,-11,4,2,-3,-5,5,-26,-3
-13,-4,9,9,-11,3,2,-3,-5,4,-27,-4
-14,-5,10,10,-12,3,2,-2,-5,4,-27,-4
-14,-5,9,10,-12,3,3,-1,-5,5,-27,-4
-14,-6,8,10,-11,2,3,-1,-6,5,-27,-4
-13,-6,7,10,-10,1,3,-1,-6,5,-27,-5
-14,-7,7,10,-10,1,3,-1,-6,5,-27,-5
-15,-7,7,11,-11,0,3,-2,-7,5,-27,-5
-14,-7,7,11,-11,0,3,-2,-7,4,-27,-5
-13,-6,7,9,-10,0,3,-3,-7,4,-27,-5
-12,-5,7,8,-9,0,3,-3,-7,4,-27,-5
-11,-5,6,8,-9,0,3,-3,-8,4,-27,-6
-11,-5,6,8,-8,0,3,-4,-8,4,-27,-6
-12,-6,6,9,-9,0,3,-4,-8,4,-27,-7
-13,-7,6,10,-10,0,2,-4,-8,4,-27,-7
-14,-7,7,10,-10,0,2,-4,-8,4,-27,-7
-13,-6,6,10,-10,0,2,-4,-8,4,-26,-6
-13,-6,6,9,-10,0,2,-4,-8,4,-26,-6
-14,-7,7,10,-10,0,2,-4,-8,4,-26,-6
-14,-8,7,10,-10,0,1,-4,-8,4,-26,-6
-13,-8,7,10,-10,0,1,-4,-8,4,-26,-6
-12,-7,7,9,-9,0,2,-3,-7,5,-25,-5
-12,-6,7,9,-9,1,2,-3,-7,5,-24,-5
-12,-6,6,9,-9,0,2,-3,-7,5,-24,-6
-11,-7,4,9,-8,0,1,-3,-8,4,-25,-6
-11,-8,4,9,-8,-1,2,-3,-8,3,-26,-7
-12,-9,3,10,-8,-2,3,-2,-8,3,-26,-7
-13,-10,2,11,-7,-3,4,-1,-7,3,-27,-8
-12,-11,1,11,-6,-4,5,0,-6,3,-27,-9
-11,-11,0,11,-5,-5,5,1,-6,3,-27,-10
-9,-10,0,10,-4,-5,5,1,-6,2,-28,-11
-9,-10,0,10,-4,-5,5,1,-8,0,-30,-12
-10,-10,2,10,-6,-4,3,-3,-11,-2,-31,-12
-11,-8,4,9,-8,-2,0,-9,-17,-5,-32,-12
-11,-6,6,8,-8,0,-5,-18,-25,-9,-32,-10
-10,-4,7,6,-8,1,-10,-26,-32,-12,-31,-8
-8,-1,8,4,-8,3,-15,-33,-38,-14,-28,-3
-6,1,8,2,-7,5,-19,-38,-42,-13,-22,3
-2,4,7,-1,-4,6,-22,-42,-45,-10,-15,11
4,7,4,-6,0,6,-26,-46,-47,-6,-6,19
10,10,1,-10,4,6,-29,-49,-48,-1,2,28
15,13,0,-14,8,6,-32,-50,-49,5,12,37
20,16,-3,-18,12,6,-35,-51,-51,8,19,44
25,17,-7,-22,17,4,-37,-51,-53,9,22,48
29,18,-11,-24,21,3,-39,-51,-54,8,24,51
33,20,-13,-26,24,3,-39,-51,-55,8,25,53
36,21,-14,-29,25,4,-39,-50,-55,8,28,56
39,23,-15,-31,27,4,-39,-49,-56,9,32,60
41,25,-15,-33,28,5,-39,-48,-56,10,34,62
41,26,-13,-34,28,6,-38,-47,-57,9,34,63
39,27,-11,-34,26,8,-39,-49,-60,4,32,62
37,28,-8,-34,23,10,-39,-51,-63,-2,27,60
35,28,-7,-32,22,10,-38,-55,-67,-8,22,57
32,24,-7,-28,20,9,-37,-58,-69,-14,16,53
27,18,-8,-22,18,6,-34,-59,-70,-20,8,46
20,11,-8,-15,15,2,-29,-56,-68,-26,-2,35
12,4,-6,-8,10,0,-20,-48,-62,-32,-15,21
2,-2,-2,0,3,-2,-9,-36,-54,-36,-29,6
-6,-6,1,6,-3,-2,1,-23,-43,-38,-40,-7
-13,-10,4,11,-8,-3,11,-10,-30,-37,-48,-17
-19,-12,7,14,-12,-3,21,3,-17,-33,-51,-23
-23,-12,10,17,-16,-1,31,17,-3,-28,-51,-26
-28,-13,15,20,-21,1,41,31,11,-22,-50,-27
-35,-14,22,24,-28,4,52,46,25,-16,-48,-28
-41,-14,28,27,-34,7,63,62,40,-9,-44,-27
-44,-14,31,28,-37,9,73,78,53,-1,-41,-26
-45,-13,33,28,-39,10,83,90,65,5,-37,-25
-44,-12,33,27,-38,10,90,99,73,10,-34,-23
-42,-10,33,25,-38,11,96,103,79,14,-30,-21
-42,-8,34,24,-38,13,100,103,83,18,-26,-18
-43,-7,36,24,-40,15,104,100,83,21,-24,-16
-45,-7,38,25,-41,15,108,95,80,22,-23,-15
-45,-8,38,26,-42,15,110,87,72,21,-24,-15
-44,-8,37,26,-40,14,111,77,61,17,-27,-17
-43,-9,35,25,-39,13,112,67,51,15,-30,-18
-42,-9,34,25,-38,12,114,59,43,13,-31,-18
-42,-10,32,25,-37,11,115,52,36,11,-31,-18
-41,-10,30,25,-35,10,114,45,30,10,-31,-17
-39,-11,28,25,-34,8,112,38,25,8,-31,-17
-39,-12,27,26,-33,7,109,32,21,7,-31,-17
-40,-13,28,26,-34,7,106,26,18,6,-31,-16
-40,-13,27,26,-33,7,102,21,16,5,-31,-16
-38,-13,26,25,-32,6,97,17,14,5,-31,-16
-37,-13,25,25,-31,5,93,15,13,5,-30,-15
-38,-13,25,25,-31,5,90,14,14,6,-29,-14
-39,-13,25,26,-32,5,88,14,15,7,-28,-13
-40,-13,26,26,-33,6,84,13,15,8,-28,-12
-40,-12,27,25,-33,7,80,12,15,8,-27,-11
-38,-10,28,23,-33,8,75,12,16,9,-26,-10
-35,-8,28,21,-31,10,70,13,17,11,-24,-9
-32,-6,26,18,-29,10,64,14,17,13,-22,-7
-29,-6,23,17,-26,9,58,15,17,14,-21,-6
-25,-6,20,15,-22,7,50,15,17,15,-19,-6
-22,-6,17,14,-19,6,44,15,19,17,-17,-4
-19,-4,16,12,-17,6,38,17,21,20,-14,-2
-16,-3,14,9,-15,6,31,19,24,23,-11,0
-14,-2,13,7,-13,5,25,20,26,27,-9,2
-12,-1,12,6,-12,5,19,20,28,29,-7,4
-11,0,12,5,-11,6,15,21,29,31,-5,6
-10,1,12,4,-11,7,12,22,30,33,-2,7
-9,2,13,3,-11,8,10,23,31,35,0,9
-8,4,13,1,-11,9,9,25,33,36,1,10
-7,6,13,0,-10,10,8,26,34,38,2,11
-6,7,13,0,-10,10,6,26,35,39,2,12
-6,7,13,-1,-9,10,5,26,35,40,3,12
-5,7,12,-1,-9,10,4,25,35,40,3,12
-5,6,11,-1,-8,9,3,24,35,40,3,12
-4,6,10,-1,-7,8,3,24,34,40,3,11
-4,5,10,-1,-6,7,2,24,34,40,3,11
-3,5,9,-1,-6,7,2,24,34,41,4,11
-2,6,9,-2,-6,8,2,24,34,41,4,12
-2,7,8,-2,-5,8,1,25,34,41,4,11
-3,6,9,-1,-6,7,1,25,34,41,4,11
-4,5,10,0,-7,7,0,25,34,40,4,11
-4,5,10,0,-7,8,0,26,34,40,5,11
-3,6,10,-2,-6,8,0,26,34,40,5,11
-3,6,11,-2,-6,8,0,26,34,40,6,12
-3,6,11,-2,-6,8,0,26,34,40,6,12
-4,5,11,-1,-7,8,0,25,34,40,7,12
-6,5,11,0,-8,8,0,25,34,40,7,12
-6,5,11,0,-8,9,0,25,34,40,7,12
-5,5,11,0,-8,9,0,25,34,40,8,12
-5,5,12,0,-8,9,0,25,34,40,8,12
-5,5,12,-1,-8,9,0,25,34,39,9,12
-4,6,11,-1,-7,9,0,24,33,39,9,12
-3,6,10,-1,-6,8,-1,23,33,38,8,11
-4,5,10,0,-6,7,-1,22,32,37,8,11
-5,4,10,0,-7,7,-1,21,32,37,8,11
-6,4,10,1,-7,7,-1,21,32,37,8,11
-6,5,10,0,-8,8,-1,21,32,37,9,11
-4,6,10,-1,-7,8,-1,21,32,37,9,11
-3,6,10,-2,-6,8,-1,20,32,37,9,11
-3,6,10,-1,-6,8,-1,20,32,37,10,11
-4,5,11,-1,-7,9,0,21,32,38,10,12
-5,5,12,0,-8,9,0,21,32,38,10,12
-5,5,10,0,-7,8,-1,20,31,38,10,12
-4,5,10,-1,-6,8,-1,19,31,38,10,12
-5,6,11,-1,-7,9,-1,19,31,39,10,12
-5,6,12,-1,-8,10,-1,19,31,40,11,13
-5,7,13,-1,-9,10,-1,19,31,40,11,13
-4,7,13,-2,-8,10,-2,18,30,40,10,12
-2,7,11,-2,-6,9,-2,16,29,39,10,12
-2,7,11,-2,-6,9,-2,15,29,39,10,12
-3,7,11,-2,-6,9,-2,15,28,38,10,12
-4,7,11,-1,-7,9,-2,16,28,38,10,12
-4,7,11,-1,-7,9,-3,16,27,38,9,11
-3,7,10,-1,-7,9,-4,16,27,38,8,11
-3,6,10,-1,-6,8,-4,16,26,37,6,10
-3,6,10,-1,-6,8,-5,16,24,35,2,10
-2,6,9,-1,-6,8,-5,16,23,34,-1,9
-3,6,10,-1,-6,8,-5,16,23,34,-4,9
-3,7,11,-1,-6,9,-6,15,22,33,-6,9
-3,7,11,-1,-7,9,-7,14,21,32,-8,9
-3,8,11,-2,-7,10,-8,13,20,31,-9,9
-2,8,11,-3,-6,10,-9,11,19,30,-10,9
0,9,11,-4,-5,10,-9,10,18,30,-11,10
1,10,11,-6,-5,10,-10,9,16,29,-11,10
1,11,11,-6,-5,11,-10,7,15,29,-12,10
0,11,11,-6,-6,11,-11,6,13,28,-12,10
0,12,11,-6,-5,11,-12,5,12,27,-13,10
1,12,11,-6,-5,11,-13,3,10,25,-13,10
1,12,10,-6,-4,11,-15,1,8,23,-14,10
0,11,9,-6,-4,10,-17,-1,5,21,-16,9
0,10,9,-5,-4,10,-19,-3,3,19,-17,9
0,10,9,-5,-4,10,-20,-6,1,18,-18,8
0,10,10,-5,-5,10,-21,-8,-1,16,-19,8
0,9,10,-4,-5,10,-22,-10,-3,15,-19,8
-1,9,10,-4,-6,10,-23,-12,-5,13,-19,8
-1,10,10,-4,-6,10,-24,-14,-7,11,-20,8
0,11,11,-5,-6,11,-25,-16,-8,10,-20,8
0,12,11,-5,-6,11,-26,-18,-10,8,-21,8
0,12,12,-5,-6,12,-28,-19,-12,7,-22,8
0,12,13,-5,-7,12,-29,-20,-14,5,-23,8
0,12,13,-5,-7,12,-30,-22,-17,4,-23,8
0,12,13,-5,-7,11,-32,-24,-19,2,-24,8
-1,11,13,-5,-7,11,-33,-27,-22,0,-25,7
-1,11,13,-5,-8,12,-34,-30,-23,-1,-26,7
0,12,13,-6,-7,12,-35,-32,-25,-2,-26,7
2,14,12,-8,-5,13,-36,-33,-26,-3,-27,7
3,14,10,-8,-3,12,-37,-34,-28,-5,-28,6
3,12,9,-7,-3,10,-39,-36,-30,-7,-30,5
2,11,9,-6,-3,10,-40,-38,-32,-9,-31,5
3,11,8,-7,-3,10,-41,-39,-33,-10,-31,4
3,12,8,-8,-2,10,-41,-40,-34,-11,-31,4
4,13,8,-8,-2,10,-41,-40,-34,-11,-31,4
5,13,7,-9,-1,10,-41,-40,-34,-12,-31,4
5,13,6,-9,-1,9,-40,-40,-34,-12,-30,4
5,12,6,-9,-1,9,-40,-39,-34,-12,-30,3
4,11,6,-7,-1,8,-40,-39,-35,-13,-30,3
3,10,7,-6,-1,8,-39,-38,-35,-13,-29,3
2,9,7,-6,-2,8,-39,-36,-34,-13,-28,3
2,9,7,-5,-2,8,-38,-35,-34,-13,-28,4
1,9,8,-5,-3,8,-37,-34,-34,-13,-28,4
1,10,8,-5,-3,8,-37,-33,-34,-13,-28,3
2,9,7,-5,-2,8,-37,-31,-34,-14,-29,2
2,8,6,-5,-1,7,-37,-30,-34,-15,-30,1
2,8,6,-5,-1,6,-36,-30,-34,-15,-31,0
2,8,6,-5,-1,6,-35,-29,-33,-15,-31,0
3,8,5,-5,0,6,-34,-27,-31,-15,-31,0
3,8,5,-6,0,6,-32,-24,-30,-15,-31,-1
3,8,5,-5,0,6,-31,-22,-29,-15,-31,-1
1,7,5,-4,-1,5,-30,-21,-29,-15,-31,-1
0,6,5,-3,-2,5,-29,-20,-28,-15,-31,-1
0,6,5,-2,-3,6,-28,-19,-26,-15,-31,-1
-1,6,6,-1,-4,6,-27,-18,-25,-14,-31,-1
-1,6,7,-2,-4,7,-25,-16,-23,-13,-30,-1
-1,7,8,-2,-4,7,-23,-15,-22,-13,-30,-2
0,7,7,-3,-3,6,-22,-13,-21,-13,-30,-2
1,7,5,-3,-1,5,-21,-11,-20,-13,-30,-3
1,6,5,-3,-1,5,-20,-9,-19,-13,-30,-3
0,5,4,-2,-1,4,-19,-8,-19,-13,-31,-4
-1,4,4,-1,-2,4,-18,-7,-18,-13,-31,-4
-3,3,5,0,-3,3,-16,-6,-17,-12,-31,-4
-4,2,5,1,-4,3,-15,-5,-16,-12,-31,-4
-4,0,4,2,-4,2,-14,-4,-15,-12,-32,-5
-4,-1,3,3,-4,1,-13,-3,-14,-12,-32,-5
-5,-2,2,3,-3,0,-12,-3,-14,-12,-32,-6
-5,-3,2,4,-3,0,-11,-2,-13,-12,-31,-6
-7,-3,3,5,-4,0,-10,-1,-13,-11,-31,-5
-7,-3,4,5,-5,0,-9,0,-12,-10,-30,-4
-7,-2,3,4,-5,0,-7,1,-11,-9,-30,-4
-7,-3,3,4,-5,0,-6,1,-10,-8,-29,-4
-8,-4,4,5,-6,0,-5,2,-9,-8,-29,-4
-9,-4,4,6,-6,0,-4,2,-9,-8,-29,-4
-8,-4,4,6,-6,0,-4,2,-9,-8,-29,-4
-7,-3,4,5,-5,0,-3,2,-9,-7,-28,-4
-6,-1,4,3,-4,0,-3,3,-8,-7,-28,-4
-5,-1,3,3,-3,0,-2,3,-8,-7,-27,-4
-5,-2,2,3,-3,0,-2,3,-8,-7,-27,-5
-5,-4,1,4,-3,-1,-2,3,-8,-7,-26,-6
-5,-4,1,4,-3,-1,-1,4,-8,-6,-26,-6
-6,-4,2,5,-4,-1,0,4,-7,-6,-25,-5
-8,-4,3,6,-5,0,0,4,-7,-6,-25,-5
-8,-5,4,6,-5,-1,0,4,-7,-6,-24,-4
-8,-5,3,7,-5,-2,0,3,-7,-6,-24,-4
-8,-6,3,7,-4,-2,0,3,-8,-6,-23,-5
-9,-6,2,7,-5,-2,0,2,-8,-6,-23,-5
-9,-7,2,8,-5,-2,0,2,-7,-6,-22,-5
-9,-7,2,8,-5,-2,1,3,-7,-6,-21,-5
-7,-6,2,7,-4,-2,1,4,-6,-5,-21,-5
-5,-5,1,5,-3,-2,2,5,-6,-5,-20,-5
-5,-5,0,5,-2,-2,2,5,-6,-5,-20,-5
-6,-5,1,5,-3,-2,2,6,-6,-5,-19,-5
-7,-5,1,6,-3,-2,3,7,-5,-5,-18,-5
-7,-5,2,6,-4,-1,3,8,-5,-5,-18,-5
-8,-5,1,7,-4,-2,3,9,-5,-5,-18,-5
-9,-7,1,8,-5,-3,3,9,-5,-5,-18,-5
-10,-8,1,9,-5,-4,2,7,-6,-5,-18,-6
-10,-8,2,9,-5,-3,2,6,-6,-5,-17,-6
-10,-7,3,8,-6,-2,3,6,-5,-5,-16,-5
-10,-7,4,8,-6,-1,3,5,-5,-5,-16,-5
-9,-6,4,8,-6,-1,3,5,-5,-4,-16,-5
-8,-5,4,7,-6,0,4,6,-4,-3,-15,-5
-7,-3,3,5,-5,0,4,6,-4,-3,-15,-4
-6,-2,3,4,-4,0,4,6,-4,-2,-16,-4
-6,-2,3,4,-5,0,4,6,-3,-2,-16,-4
-6,-2,4,4,-5,1,5,6,-3,-2,-15,-4
-6,-2,4,4,-5,1,5,6,-2,-2,-15,-4
-5,-1,4,3,-4,1,5,6,-2,-2,-14,-4
-6,-1,5,3,-5,2,6,6,-2,-2,-14,-4
-6,-1,6,4,-6,2,6,6,-2,-1,-13,-4
-7,-1,6,4,-6,2,6,6,-2,-1,-12,-4
-7,0,6,4,-6,2,5,6,-2,0,-12,-4
-6,0,6,3,-6,2,5,6,-2,0,-11,-4
-5,0,6,3,-5,2,4,6,-2,1,-10,-4
-5,0,6,2,-5,3,4,6,-2,2,-9,-3
-4,1,6,1,-5,3,3,6,-2,3,-9,-3
-3,2,5,1,-4,3,3,6,-2,3,-9,-3
-3,1,4,1,-4,3,2,6,-2,3,-9,-3
-4,1,4,2,-4,2,2,6,-2,4,-8,-3
-4,0,4,2,-4,2,2,6,-2,4,-8,-3
-3,0,3,2,-3,1,1,6,-2,5,-7,-3
-3,0,2,2,-3,1,0,5,-3,5,-7,-3
-3,-1,2,2,-3,1,-1,3,-4,5,-6,-3
-3,-1,2,2,-3,1,-2,2,-4,5,-6,-3
-3,-1,2,2,-3,0,-3,2,-5,5,-5,-3
-2,-1,1,2,-2,0,-3,1,-5,5,-5,-3
-1,0,0,1,-1,1,-3,1,-5,5,-5,-2
0,1,0,0,0,1,-3,2,-5,6,-4,-2
2,1,0,-1,1,0,-3,3,-5,6,-4,-2
2,1,-1,-1,2,0,-3,4,-5,6,-4,-2
2,0,-2,0,2,-2,-3,4,-5,6,-4,-2
1,-2,-2,0,2,-2,-2,4,-5,7,-3,-2
0,-3,-2,1,1,-3,-2,2,-6,7,-3,-2
0,-4,-3,2,1,-3,-2,0,-6,7,-3,-3
0,-4,-4,2,1,-4,-3,0,-7,7,-3,-3
1,-3,-4,1,2,-4,-4,0,-7,7,-3,-3
2,-2,-4,0,3,-3,-4,0,-8,7,-3,-3
1,-1,-3,0,2,-3,-4,0,-9,7,-3,-4
1,-1,-2,0,1,-2,-4,0,-10,7,-3,-4
1,-1,-2,0,1,-2,-4,0,-10,7,-3,-4
0,-2,-2,1,1,-3,-4,-1,-11,6,-4,-4
0,-4,-3,2,1,-4,-4,-2,-11,6,-4,-4
-1,-5,-3,3,1,-4,-4,-3,-11,6,-4,-5
-1,-6,-4,3,1,-5,-4,-4,-11,5,-4,-5
-1,-5,-3,3,1,-4,-3,-3,-11,6,-3,-4
-2,-4,-2,3,0,-4,-2,-2,-10,6,-2,-4
-3,-5,-2,4,0,-4,-1,-2,-9,6,-2,-4
-4,-7,-2,6,-1,-5,-1,-2,-9,6,-2,-4
-5,-8,-3,6,-1,-6,-1,-2,-9,5,-2,-5
-4,-8,-3,6,0,-6,-1,-3,-9,5,-2,-5
-4,-8,-3,6,0,-6,-1,-2,-10,5,-2,-6
-5,-8,-3,6,-1,-5,-1,-2,-10,4,-3,-6
-6,-8,-2,7,-2,-5,-1,-2,-11,4,-3,-7
-8,-9,-1,8,-3,-5,0,-1,-11,4,-3,-8
-9,-10,-1,9,-4,-6,0,-1,-11,5,-3,-8
-10,-11,-1,10,-3,-6,1,-1,-10,5,-3,-8
-10,-11,-2,11,-3,-7,2,0,-10,5,-2,-8
-11,-12,-1,12,-4,-7,3,0,-10,6,-2,-7
-13,-14,-1,13,-5,-8,3,0,-10,6,-2,-7
-12,-15,-3,13,-4,-10,2,-2,-11,5,-2,-8
-10,-15,-5,12,-2,-11,0,-4,-12,4,-3,-8
-10,-15,-5,12,-2,-11,0,-6,-13,3,-3,-9
-9,-15,-6,12,-1,-11,-1,-6,-13,2,-4,-9
-8,-14,-6,11,-1,-10,0,-5,-13,2,-5,-10
-8,-13,-6,10,0,-10,0,-5,-13,1,-5,-10
-9,-14,-4,11,-2,-10,0,-4,-13,1,-5,-10
-11,-14,-2,12,-4,-9,0,-4,-13,1,-4,-10
-11,-14,-2,12,-4,-9,0,-4,-12,2,-4,-9
-11,-14,-3,12,-4,-9,0,-4,-12,1,-4,-10
-10,-15,-4,12,-3,-10,0,-5,-13,1,-4,-10
-10,-15,-4,12,-3,-10,0,-4,-13,1,-4,-10
-10,-14,-5,12,-2,-10,0,-4,-12,2,-3,-9
-10,-14,-5,12,-2,-10,0,-4,-12,2,-2,-9
-10,-15,-5,13,-2,-11,0,-4,-13,1,-2,-9
-9,-15,-6,13,-2,-11,0,-3,-13,1,-2,-10
-8,-15,-7,12,-1,-11,0,-3,-13,0,-3,-10
-7,-16,-8,12,0,-12,1,-2,-12,0,-3,-10
-7,-17,-9,12,1,-13,2,0,-11,0,-3,-10
-6,-18,-11,12,2,-15,3,0,-10,0,-3,-11
-6,-18,-12,12,2,-16,3,1,-10,0,-4,-12
-6,-19,-12,12,3,-16,3,1,-11,-1,-5,-14
-6,-18,-12,12,3,-16,2,0,-12,-3,-7,-15
-7,-17,-11,12,2,-15,0,-3,-16,-6,-9,-16
-7,-16,-8,11,1,-13,-2,-9,-21,-9,-10,-16
-7,-13,-6,10,0,-10,-6,-17,-28,-13,-10,-15
-6,-9,-3,8,-1,-7,-11,-26,-35,-17,-10,-12
-5,-7,-2,6,-2,-4,-15,-33,-41,-19,-8,-7
-3,-5,-2,4,0,-4,-20,-38,-46,-19,-3,-2
0,-4,-4,1,1,-4,-23,-42,-49,-17,3,5
2,-1,-5,-1,3,-3,-26,-45,-51,-13,12,15
6,1,-5,-4,6,-2,-29,-47,-52,-8,22,25
11,4,-7,-8,10,-2,-32,-48,-53,-3,32,34
18,7,-10,-13,15,-2,-35,-50,-54,0,40,42
23,10,-13,-17,19,-2,-38,-51,-56,2,45,48
28,12,-15,-20,22,-2,-39,-52,-58,2,47,51
32,14,-18,-24,25,-1,-40,-51,-58,2,48,54
36,17,-19,-27,27,-1,-40,-51,-58,3,51,57
38,18,-21,-29,30,-1,-40,-50,-59,4,54,60
40,19,-23,-30,32,-2,-40,-50,-60,4,57,63
41,19,-23,-31,32,-3,-40,-50,-61,2,58,64
41,20,-21,-31,32,-2,-40,-51,-63,-2,56,63
39,21,-18,-31,30,0,-41,-54,-67,-8,51,61
37,21,-15,-30,27,2,-41,-58,-70,-15,46,58
34,19,-15,-27,25,2,-39,-60,-73,-20,40,54
31,15,-16,-23,23,0,-37,-62,-74,-26,32,47
24,9,-15,-17,20,-3,-33,-60,-73,-31,23,37
15,3,-13,-9,14,-6,-25,-54,-68,-35,11,24
6,-4,-10,-1,8,-8,-16,-44,-60,-40,-2,8
-3,-10,-7,6,2,-9,-5,-33,-50,-42,-14,-6
-9,-14,-5,12,-2,-9,5,-19,-37,-41,-22,-17
-14,-17,-3,15,-5,-10,14,-5,-24,-37,-26,-24
-18,-19,0,18,-8,-9,23,9,-10,-31,-27,-28
-23,-20,3,20,-12,-8,32,23,4,-25,-26,-31
-26,-20,6,22,-16,-8,41,38,17,-18,-25,-32
-28,-20,7,23,-17,-7,50,54,31,-12,-22,-32
-28,-20,8,24,-18,-7,60,70,46,-5,-18,-32
-29,-20,9,24,-18,-6,69,84,59,1,-13,-30
-28,-18,10,23,-18,-4,77,94,69,7,-9,-29
-26,-16,11,21,-18,-2,83,100,77,12,-5,-26
-27,-14,14,20,-20,0,88,101,82,17,-1,-23
-29,-13,17,20,-23,2,91,100,83,20,1,-21
-30,-11,19,20,-25,3,94,96,81,21,2,-20
-30,-10,20,19,-25,4,97,90,75,21,3,-19
-30,-10,20,19,-25,4,99,82,66,19,3,-19
-31,-10,20,20,-25,4,100,73,56,17,3,-19
-30,-11,19,21,-25,4,102,64,47,15,3,-19
-29,-12,17,21,-23,2,102,55,39,13,3,-19
-28,-15,14,21,-21,0,102,46,31,11,2,-19
-28,-16,12,21,-20,-2,101,39,25,9,2,-20
-27,-17,10,21,-18,-3,98,31,19,8,1,-20
-26,-17,8,21,-17,-5,95,24,14,6,1,-20
-26,-18,8,21,-16,-6,92,19,10,5,1,-20
-26,-18,8,22,-16,-6,89,15,8,5,1,-20
-25,-18,8,21,-16,-5,87,12,7,6,2,-19
-25,-17,8,21,-16,-5,84,10,7,7,4,-18
-24,-16,8,20,-16,-4,82,9,8,7,5,-17
-23,-15,8,19,-16,-4,79,8,8,8,5,-16
-23,-14,9,18,-16,-3,76,7,9,8,6,-15
-22,-12,10,17,-16,-2,72,6,9,9,8,-14
-22,-11,10,16,-15,-1,68,5,9,9,9,-14
-21,-10,10,15,-14,-1,64,4,9,10,10,-13
-19,-9,10,14,-13,-1,59,5,10,11,12,-12
-16,-9,7,13,-11,-2,53,5,10,12,14,-11
-13,-10,3,12,-8,-4,47,6,10,13,13,-10
-12,-11,1,12,-6,-5,40,6,11,15,8,-8
-11,-11,1,11,-5,-5,34,7,13,18,3,-5
-8,-9,0,9,-3,-5,26,7,15,21,0,-2
-5,-8,-1,6,-1,-5,19,7,17,23,-1,-1
-3,-6,-2,4,0,-5,13,8,18,25,-3,0
0,-4,-3,2,2,-4,8,9,19,27,-4,1
1,-2,-4,0,3,-3,6,10,21,28,-4,2
2,-1,-4,0,3,-3,4,12,22,30,-3,3
3,-1,-4,-1,3,-2,3,12,23,32,-3,5
3,0,-4,-1,3,-2,1,12,24,33,-3,5
3,-1,-5,-1,4,-3,0,13,24,33,-3,5
3,-2,-5,-1,4,-4,-1,13,25,34,-3,5
3,-2,-5,0,4,-4,-1,13,25,35,-4,5
4,-1,-5,-1,4,-3,-2,13,24,36,-4,5
4,0,-5,-2,5,-3,-2,12,24,36,-4,5
4,-1,-6,-2,5,-3,-2,12,24,37,-4,5
5,-1,-7,-2,6,-3,-3,11,23,37,-5,5
7,-1,-8,-3,7,-4,-3,11,23,38,-5,5
8,0,-8,-4,8,-3,-3,11,23,39,-4,6
8,2,-5,-6,7,-1,-3,13,24,40,-2,8
9,5,-3,-7,7,0,-2,15,25,42,-1,9
10,6,-4,-8,7,0,-3,16,26,42,0,9
11,5,-6,-8,9,0,-3,16,26,42,0,8
10,4,-6,-7,8,-1,-3,16,26,42,0,8
8,3,-5,-6,6,0,-3,16,26,42,0,8
7,3,-4,-5,5,0,-2,16,26,42,0,8
7,2,-5,-4,6,-1,-3,16,26,42,0,8
8,1,-6,-4,7,-3,-3,16,25,42,0,7
8,1,-7,-4,8,-3,-3,16,25,42,0,7
8,1,-8,-5,9,-4,-4,15,24,42,0,7
9,2,-8,-5,9,-4,-4,15,24,42,0,7
9,2,-7,-6,9,-3,-4,14,24,42,0,7
10,2,-7,-6,9,-3,-4,14,24,42,-1,6
10,2,-7,-6,9,-3,-5,13,23,42,-1,6
10,2,-7,-6,8,-2,-5,13,23,43,-1,6
11,4,-6,-7,8,-1,-5,13,23,44,0,6
12,5,-6,-8,9,-1,-5,13,23,44,0,6
12,6,-6,-9,9,-1,-5,13,23,44,0,6
11,5,-6,-8,9,-1,-6,12,23,44,0,6
11,4,-6,-8,9,-2,-6,12,22,44,0,6
10,4,-6,-7,9,-2,-5,12,22,44,1,7
10,3,-7,-7,9,-2,-5,12,22,44,3,7
9,2,-7,-6,8,-3,-6,12,22,44,4,7
8,2,-6,-5,7,-3,-6,12,22,44,4,7
8,1,-6,-4,7,-3,-6,13,22,44,5,7
7,1,-7,-4,8,-3,-6,13,22,44,5,7
6,0,-7,-3,7,-3,-6,14,22,44,5,7
6,0,-6,-3,7,-3,-6,14,21,44,5,7
8,1,-7,-4,7,-3,-7,13,20,44,5,7
10,3,-7,-6,8,-2,-7,13,20,43,5,7
11,4,-7,-7,9,-2,-8,12,19,43,4,7
13,4,-8,-8,10,-2,-8,10,18,41,3,6
13,4,-9,-8,10,-3,-9,9,17,40,2,5
11,3,-9,-7,10,-3,-9,10,16,39,2,5
10,2,-8,-6,9,-3,-10,10,16,39,3,5
9,2,-7,-6,8,-2,-10,9,16,38,4,5
9,2,-7,-6,8,-2,-10,9,15,38,4,5
9,2,-7,-6,8,-2,-10,8,14,37,4,5
9,2,-7,-6,8,-2,-11,7,13,36,4,6
9,3,-7,-6,8,-2,-12,6,12,36,4,6
10,2,-7,-6,9,-3,-13,4,10,34,3,5
10,2,-8,-6,9,-3,-14,2,9,33,3,5
9,2,-7,-6,8,-3,-15,1,8,32,2,5
8,2,-7,-6,8,-2,-16,0,7,31,2,5
9,1,-7,-6,8,-3,-17,-3,5,30,1,5
10,2,-8,-6,9,-3,-18,-6,4,28,1,4
12,3,-8,-7,10,-2,-19,-8,2,27,0,4
12,3,-8,-7,10,-2,-20,-10,0,25,0,4
10,4,-6,-7,8,-1,-20,-11,-1,24,0,4
9,5,-3,-7,7,0,-21,-12,-2,23,0,5
8,5,-2,-7,6,1,-22,-13,-3,22,0,5
10,5,-3,-8,7,1,-23,-16,-5,21,-1,4
12,6,-5,-9,9,0,-25,-18,-7,20,-2,4
14,6,-6,-10,10,0,-26,-19,-9,18,-3,4
14,6,-7,-10,11,0,-27,-21,-11,16,-4,4
15,6,-8,-10,11,0,-29,-22,-14,14,-5,4
15,6,-8,-10,11,0,-30,-23,-16,12,-6,3
15,6,-7,-10,11,-1,-31,-23,-18,10,-7,3
15,6,-8,-11,11,-1,-33,-24,-20,9,-8,3
16,7,-9,-11,12,-1,-34,-25,-23,7,-9,2
17,7,-9,-12,13,-1,-36,-26,-25,5,-10,2
17,8,-9,-12,13,0,-38,-27,-27,3,-11,2
17,8,-8,-13,12,0,-38,-28,-28,2,-11,2
18,9,-8,-14,13,0,-39,-28,-29,1,-11,2
19,10,-8,-14,13,0,-39,-28,-31,0,-11,2
18,9,-8,-14,13,0,-40,-30,-32,-1,-12,2
16,8,-8,-12,12,0,-40,-31,-33,-2,-12,1
15,8,-8,-12,12,0,-41,-31,-35,-3,-13,1
15,7,-9,-11,12,0,-42,-32,-36,-4,-14,0
14,6,-8,-10,11,0,-42,-32,-36,-5,-14,0
13,6,-8,-10,11,0,-43,-31,-37,-6,-15,0
15,5,-9,-10,12,-1,-43,-30,-38,-7,-16,0
16,5,-10,-11,13,-2,-44,-31,-39,-8,-17,-1
17,5,-11,-12,14,-2,-44,-31,-40,-10,-18,-2
18,5,-11,-12,15,-2,-44,-31,-40,-10,-18,-2
16,5,-10,-11,13,-2,-44,-30,-39,-11,-18,-2
14,4,-10,-10,12,-2,-43,-30,-39,-11,-18,-2
15,4,-11,-10,13,-3,-43,-30,-39,-12,-18,-3
15,4,-11,-10,14,-3,-42,-29,-39,-12,-19,-3
15,4,-11,-9,13,-3,-41,-28,-38,-11,-19,-3
14,4,-10,-9,12,-3,-40,-27,-37,-11,-19,-4
14,3,-10,-8,12,-4,-40,-26,-37,-12,-19,-4
13,2,-10,-8,12,-4,-39,-25,-37,-12,-19,-5
13,2,-10,-7,12,-4,-38,-23,-36,-12,-19,-5
13,2,-10,-7,12,-4,-37,-21,-35,-12,-19,-5
14,2,-11,-8,13,-4,-36,-20,-34,-12,-19,-5
14,2,-12,-8,14,-5,-35,-20,-33,-12,-20,-6
13,1,-12,-7,13,-5,-34,-19,-32,-12,-20,-6
12,0,-11,-6,12,-5,-33,-17,-31,-12,-20,-6
12,0,-11,-6,12,-5,-31,-16,-29,-12,-20,-6
13,0,-12,-6,13,-6,-30,-14,-28,-12,-21,-7
14,0,-14,-6,14,-8,-29,-13,-27,-12,-21,-8
14,0,-14,-6,14,-8,-28,-12,-26,-12,-21,-8
13,0,-13,-6,13,-7,-27,-11,-25,-12,-21,-8
11,0,-12,-5,12,-6,-25,-10,-23,-11,-21,-8
10,-1,-11,-5,11,-6,-24,-9,-22,-11,-21,-9
10,-2,-11,-4,11,-7,-23,-8,-22,-11,-22,-9
10,-3,-12,-4,11,-8,-22,-8,-21,-11,-22,-9
10,-3,-13,-4,11,-8,-21,-7,-20,-11,-23,-9
10,-3,-13,-3,11,-8,-20,-6,-19,-10,-23,-9
9,-3,-12,-2,10,-8,-18,-5,-17,-9,-22,-9
8,-4,-12,-2,10,-8,-17,-5,-17,-9,-22,-10
9,-4,-13,-2,11,-8,-16,-6,-17,-10,-22,-11
9,-3,-12,-2,11,-8,-14,-6,-16,-9,-22,-11
9,-3,-12,-2,10,-8,-13,-4,-15,-9,-22,-11
9,-4,-12,-2,10,-8,-13,-3,-14,-9,-21,-11
9,-4,-12,-2,10,-9,-13,-3,-14,-9,-21,-11
9,-5,-13,-2,11,-9,-12,-3,-14,-9,-21,-11
9,-5,-13,-2,11,-9,-11,-3,-14,-10,-21,-11
7,-6,-13,-1,10,-9,-10,-3,-13,-10,-21,-11
6,-7,-13,0,9,-9,-9,-3,-13,-10,-21,-11
7,-7,-13,0,10,-10,-9,-3,-13,-11,-21,-12
9,-7,-14,-1,11,-11,-8,-4,-13,-11,-21,-12
9,-6,-14,-1,11,-10,-8,-4,-12,-11,-21,-12
8,-6,-12,-1,10,-9,-7,-3,-12,-11,-21,-11
7,-6,-12,-1,9,-9,-6,-2,-11,-10,-21,-11
7,-6,-12,-1,10,-9,-6,-2,-11,-11,-21,-11
6,-6,-13,0,10,-9,-6,-3,-11,-11,-21,-12
5,-7,-13,0,10,-9,-5,-3,-11,-11,-21,-12
5,-7,-13,1,10,-10,-5,-4,-11,-11,-21,-12
5,-8,-13,1,10,-10,-5,-4,-11,-11,-21,-12
4,-8,-13,2,9,-11,-5,-4,-11,-11,-21,-12
4,-8,-12,2,8,-11,-5,-3,-11,-11,-20,-12
4,-9,-12,2,8,-11,-4,-3,-10,-11,-20,-12
4,-9,-12,2,8,-11,-4,-3,-10,-11,-20,-12
3,-9,-12,2,8,-10,-4,-3,-10,-11,-20,-12
3,-9,-12,3,8,-10,-4,-3,-10,-10,-20,-12
4,-8,-13,2,9,-10,-4,-3,-10,-10,-19,-13
5,-8,-13,1,10,-10,-4,-2,-10,-10,-19,-13
6,-8,-14,1,10,-11,-4,-2,-10,-10,-19,-13
7,-7,-13,0,10,-10,-3,-2,-9,-10,-19,-13
6,-7,-13,0,10,-10,-3,-2,-9,-10,-19,-13
6,-7,-13,0,10,-10,-3,-1,-9,-10,-19,-13
7,-6,-14,0,11,-9,-3,-1,-9,-10,-19,-13
8,-5,-13,-1,11,-8,-3,-1,-8,-9,-19,-13
7,-5,-12,-1,10,-7,-2,0,-7,-8,-18,-12
7,-4,-11,-1,9,-7,-2,0,-7,-7,-18,-12
7,-4,-10,-1,9,-6,-1,0,-6,-7,-17,-12
8,-3,-10,-2,9,-6,-1,1,-6,-6,-17,-12
8,-2,-10,-3,9,-6,0,1,-5,-6,-17,-12
8,-3,-10,-2,9,-6,0,1,-5,-6,-17,-12
7,-3,-9,-1,8,-6,0,1,-5,-5,-17,-12
6,-2,-8,-1,7,-5,0,2,-4,-5,-17,-11
6,-1,-8,-2,7,-4,0,2,-3,-4,-17,-11
7,0,-8,-3,8,-4,0,2,-3,-4,-17,-11
7,0,-7,-3,8,-3,0,1,-3,-4,-18,-11
5,0,-5,-2,5,-2,0,0,-3,-4,-17,-10
3,0,-3,-1,3,-1,0,0,-3,-3,-17,-10
3,0,-3,-1,3,-1,-1,0,-3,-2,-17,-10
3,1,-3,-2,3,0,-1,-1,-3,-2,-16,-10
4,2,-2,-3,3,0,-1,-1,-2,-1,-15,-10
4,2,-2,-3,4,1,-1,-1,-2,-1,-15,-9
6,2,-4,-4,5,0,-2,-1,-2,-1,-14,-10
8,1,-6,-4,7,-1,-3,-2,-2,-1,-14,-10
9,1,-7,-5,9,-2,-4,-2,-3,-2,-14,-10
10,1,-8,-5,10,-3,-5,-2,-3,-2,-14,-10
11,1,-9,-6,11,-4,-6,-2,-4,-2,-14,-10
13,1,-11,-7,12,-4,-7,-3,-4,-2,-14,-10
14,1,-12,-8,13,-5,-9,-5,-6,-3,-13,-10
15,0,-13,-8,14,-5,-10,-6,-7,-4,-13,-11
13,0,-12,-7,13,-5,-10,-6,-7,-3,-12,-10
11,0,-10,-5,11,-4,-10,-5,-7,-2,-11,-10
10,0,-9,-5,10,-4,-10,-3,-6,-1,-10,-9
11,0,-10,-6,11,-5,-9,-2,-6,-1,-10,-9
12,0,-12,-6,12,-5,-9,-2,-6,-1,-10,-9
12,0,-12,-6,12,-5,-9,-2,-6,-1,-10,-9
11,-1,-11,-5,11,-5,-9,-3,-6,-1,-10,-9
12,-1,-12,-5,12,-5,-9,-4,-6,-1,-10,-10
13,0,-13,-6,14,-6,-9,-4,-6,-1,-11,-10
14,0,-14,-6,15,-7,-9,-5,-7,-1,-11,-10
14,-1,-15,-6,15,-8,-9,-6,-8,-2,-12,-10
13,-2,-15,-5,14,-8,-10,-6,-9,-2,-12,-10
13,-2,-15,-5,14,-8,-10,-7,-10,-2,-11,-10
14,-1,-15,-6,14,-8,-10,-7,-10,-2,-11,-10
15,-1,-15,-7,15,-8,-10,-8,-10,-2,-11,-10
15,-1,-15,-7,15,-8,-10,-8,-11,-3,-11,-10
13,-3,-15,-5,15,-8,-11,-8,-11,-3,-12,-10
11,-4,-15,-4,14,-9,-11,-8,-11,-4,-12,-10
11,-3,-14,-4,13,-9,-10,-7,-11,-4,-11,-10
12,-2,-14,-5,13,-9,-9,-5,-10,-3,-10,-10
12,-2,-14,-5,13,-9,-8,-4,-10,-3,-9,-10
10,-3,-13,-4,11,-9,-8,-4,-9,-3,-8,-10
8,-4,-12,-2,10,-9,-7,-3,-8,-3,-8,-10
8,-5,-13,-2,10,-9,-6,-3,-8,-3,-8,-10
8,-6,-14,-2,11,-9,-6,-3,-9,-3,-9,-11
8,-7,-14,-1,12,-10,-5,-4,-9,-4,-9,-11
7,-8,-14,0,11,-10,-5,-5,-9,-4,-9,-12
5,-9,-14,2,10,-11,-5,-6,-10,-5,-10,-13
4,-10,-14,2,10,-12,-5,-7,-10,-6,-11,-14
4,-10,-14,3,9,-12,-5,-6,-10,-7,-11,-14
4,-10,-14,3,8,-12,-5,-5,-10,-7,-12,-14
4,-11,-14,3,8,-12,-5,-4,-10,-8,-12,-14
4,-11,-14,3,9,-12,-5,-4,-10,-8,-13,-15
5,-11,-15,3,10,-12,-4,-4,-10,-8,-13,-15
6,-11,-15,2,11,-12,-4,-4,-10,-9,-13,-15
5,-11,-15,3,10,-13,-4,-4,-10,-9,-13,-15
3,-12,-14,4,9,-13,-4,-5,-11,-9,-13,-15
1,-13,-14,6,7,-13,-4,-5,-11,-9,-13,-15
1,-13,-15,5,8,-13,-5,-6,-11,-10,-14,-16
4,-13,-17,4,11,-14,-5,-8,-12,-11,-14,-16
4,-13,-17,4,11,-15,-5,-8,-12,-11,-15,-16
3,-13,-16,4,10,-14,-5,-8,-12,-11,-15,-16
3,-13,-14,4,9,-13,-4,-8,-12,-11,-14,-15
3,-11,-14,3,9,-13,-4,-9,-11,-11,-14,-15
4,-10,-15,3,10,-12,-4,-9,-10,-11,-13,-15
4,-11,-15,3,10,-12,-4,-9,-10,-11,-13,-15
2,-12,-15,5,9,-12,-4,-8,-10,-11,-13,-15
0,-13,-14,6,7,-12,-4,-8,-10,-11,-13,-15
1,-13,-13,5,7,-12,-4,-8,-10,-11,-13,-15
3,-12,-14,4,9,-13,-4,-8,-10,-12,-13,-15
5,-11,-15,3,10,-13,-5,-8,-10,-12,-13,-15
5,-12,-16,3,10,-14,-5,-7,-11,-13,-13,-16
5,-13,-17,3,11,-15,-4,-6,-11,-13,-14,-16
5,-14,-19,4,12,-16,-3,-4,-10,-14,-14,-17
5,-16,-21,4,13,-18,-3,-3,-9,-14,-15,-18
5,-18,-22,6,13,-19,-2,-2,-9,-14,-15,-19
4,-19,-23,6,13,-20,-2,-3,-10,-16,-17,-21
5,-18,-23,6,14,-20,-3,-4,-11,-18,-18,-22
5,-17,-21,6,13,-18,-5,-8,-15,-21,-20,-22
4,-15,-18,5,11,-16,-8,-14,-21,-25,-21,-21
4,-12,-15,4,9,-13,-12,-21,-28,-29,-21,-20
4,-9,-14,2,9,-11,-17,-29,-36,-33,-21,-18
6,-7,-13,0,10,-10,-22,-36,-42,-35,-18,-14
9,-4,-13,-3,11,-8,-26,-41,-46,-34,-13,-7
13,-1,-13,-6,13,-7,-29,-43,-48,-31,-5,2
17,2,-14,-10,16,-6,-32,-45,-50,-26,5,12
22,5,-16,-14,19,-5,-35,-47,-51,-21,15,23
28,7,-20,-17,24,-6,-38,-48,-52,-16,24,31
33,9,-23,-21,28,-6,-41,-49,-53,-13,30,38
37,11,-25,-24,32,-6,-43,-50,-54,-11,34,43
41,13,-27,-27,34,-6,-43,-50,-55,-11,36,45
45,15,-29,-31,37,-6,-43,-50,-56,-11,38,48
49,18,-31,-34,40,-6,-43,-50,-56,-10,41,52
52,19,-32,-36,42,-6,-44,-51,-57,-9,44,55
53,19,-33,-37,43,-7,-44,-51,-58,-10,46,57
51,19,-31,-36,41,-5,-43,-51,-59,-12,46,58
48,21,-27,-36,38,-2,-43,-53,-61,-16,44,58
46,22,-23,-35,35,0,-44,-55,-64,-22,40,56
45,22,-22,-34,34,0,-44,-58,-68,-28,34,52
43,18,-24,-31,34,-2,-43,-61,-71,-34,28,46
38,13,-25,-26,32,-5,-40,-61,-72,-40,20,39
32,7,-24,-20,28,-7,-34,-58,-69,-45,9,28
25,3,-21,-14,23,-8,-24,-49,-62,-49,-3,15
16,-1,-17,-8,17,-8,-13,-37,-52,-51,-15,1
8,-5,-13,-2,11,-9,-2,-24,-40,-52,-25,-11
1,-10,-11,4,6,-10,6,-11,-28,-50,-31,-21
-4,-13,-10,8,3,-11,15,1,-15,-46,-35,-28
-8,-15,-7,11,0,-10,23,15,-2,-41,-36,-32
-12,-16,-4,13,-4,-9,32,29,11,-35,-36,-35
-16,-17,-1,16,-7,-9,42,43,24,-30,-34,-36
-19,-18,1,18,-11,-8,51,57,38,-24,-32,-36
-22,-19,4,20,-13,-8,61,72,52,-17,-28,-35
-24,-19,6,21,-15,-6,71,84,64,-10,-24,-33
-26,-17,9,21,-17,-4,79,94,75,-4,-19,-30
-26,-15,11,20,-18,-1,85,98,82,1,-15,-28
-25,-13,12,19,-19,0,89,98,85,5,-12,-26
-24,-12,13,17,-19,1,91,95,83,7,-11,-24
-24,-11,14,16,-19,2,94,88,78,7,-10,-24
-23,-10,13,15,-19,1,95,79,70,5,-11,-24
-22,-10,12,15,-17,1,96,68,60,2,-12,-25
-23,-10,12,16,-17,1,98,59,51,0,-13,-25
-24,-12,12,17,-18,0,99,50,43,-2,-12,-24
-24,-14,9,18,-17,-2,100,42,36,-3,-12,-24
-23,-16,7,19,-15,-4,99,36,29,-5,-12,-24
-21,-17,4,19,-13,-5,97,30,23,-6,-13,-24
-20,-18,3,19,-12,-6,94,24,18,-8,-13,-24
-21,-18,4,19,-13,-6,92,19,14,-9,-13,-23
-22,-18,5,20,-14,-6,89,14,12,-9,-12,-22
-21,-17,5,19,-13,-6,85,9,11,-8,-11,-21
-19,-16,4,17,-11,-6,81,6,12,-8,-10,-21
-17,-14,3,15,-10,-6,78,5,12,-7,-9,-20
-16,-13,3,15,-10,-5,75,5,13,-6,-8,-20
-18,-13,5,15,-12,-4,72,6,14,-6,-7,-19
-19,-12,8,15,-14,-2,69,5,15,-5,-6,-18
-19,-10,9,14,-14,-1,66,5,15,-5,-5,-17
-18,-9,8,13,-14,0,62,4,16,-4,-4,-16
-17,-9,8,13,-13,-1,57,5,16,-2,-2,-15
-16,-10,6,12,-11,-2,51,6,17,-1,-1,-14
-14,-10,3,12,-9,-3,45,7,18,1,1,-12
-12,-10,1,11,-6,-4,39,7,19,3,3,-11
-9,-9,-1,9,-4,-5,33,8,20,5,5,-9
-4,-8,-3,6,0,-5,26,8,22,6,7,-7
0,-6,-6,2,3,-6,20,8,23,8,9,-5
3,-5,-7,0,5,-5,14,8,25,10,11,-4
4,-4,-7,0,5,-5,10,8,27,12,13,-2
5,-3,-7,-1,6,-5,7,9,28,14,15,-1
7,-1,-8,-3,8,-4,4,11,30,16,16,0
9,1,-8,-5,8,-3,3,13,31,18,18,1
9,2,-7,-5,8,-2,2,14,32,20,20,2
9,2,-7,-6,8,-2,1,15,33,21,20,3
10,3,-7,-6,8,-2,0,15,33,21,21,3
11,3,-7,-7,8,-2,-1,16,33,21,21,3
11,3,-8,-7,9,-2,-2,16,33,21,21,3
11,2,-8,-7,9,-2,-2,16,33,22,21,4
11,2,-7,-6,8,-2,-2,17,34,23,21,4
11,3,-7,-6,9,-2,-2,18,34,23,22,4
11,3,-8,-6,9,-2,-2,19,34,24,22,4
11,2,-8,-6,9,-2,-3,19,34,24,22,4
10,2,-8,-5,9,-2,-3,19,34,24,22,4
9,2,-7,-5,8,-2,-3,20,34,25,22,5
10,3,-6,-6,8,-1,-3,20,34,25,23,5
10,3,-7,-7,8,-1,-3,20,35,25,23,5
10,3,-8,-7,9,-1,-3,20,34,25,23,5
10,2,-8,-6,9,-2,-3,19,34,25,23,4
9,1,-8,-6,9,-2,-3,18,34,25,23,4
10,1,-8,-6,9,-2,-3,17,34,25,23,4
11,2,-8,-7,10,-2,-3,16,34,25,23,5
11,3,-8,-8,9,-2,-3,15,34,25,23,5
11,3,-7,-8,9,-1,-3,15,34,25,24,6
12,4,-8,-8,9,-1,-3,15,34,25,23,6
12,4,-8,-8,10,-1,-3,15,34,25,23,6
12,5,-7,-8,9,0,-3,16,35,25,23,6
10,4,-6,-7,8,0,-3,17,35,26,23,6
10,3,-7,-6,9,0,-3,16,34,26,23,6
11,3,-9,-7,10,-1,-4,15,34,26,22,5
11,2,-10,-7,11,-2,-4,15,33,25,21,5
11,1,-9,-6,10,-3,-5,15,33,25,21,4
10,1,-9,-6,10,-3,-5,14,33,25,20,4
12,2,-10,-7,11,-3,-5,14,33,26,20,4
13,3,-10,-9,11,-2,-5,15,33,27,20,5
12,3,-9,-8,10,-2,-5,15,33,27,20,5
11,3,-8,-7,9,-2,-5,16,33,27,20,5
11,3,-8,-8,9,-1,-5,16,33,27,20,5
11,4,-7,-8,9,0,-5,16,33,28,21,6
12,5,-7,-9,9,0,-5,17,33,28,21,6
14,6,-7,-10,10,0,-5,17,33,28,21,6
15,7,-8,-11,11,0,-5,16,32,27,21,6
15,6,-8,-10,11,0,-6,15,32,27,21,6
14,5,-8,-9,10,0,-6,14,31,27,20,6
13,5,-8,-9,10,0,-7,12,30,26,20,6
13,5,-8,-10,10,0,-7,12,30,25,20,6
13,6,-8,-10,10,0,-7,13,30,25,20,6
12,6,-7,-9,9,0,-7,13,29,25,19,6
11,5,-6,-9,8,0,-8,12,28,24,19,5
11,5,-6,-8,8,0,-9,12,27,23,18,5
12,5,-6,-8,8,0,-10,11,26,22,18,5
12,5,-6,-8,9,0,-10,10,25,21,18,5
12,6,-5,-9,8,1,-11,9,25,21,18,6
12,6,-5,-9,8,2,-11,8,24,20,18,6
12,6,-5,-9,8,1,-12,7,22,19,17,5
13,6,-6,-9,9,1,-13,6,21,18,16,5
13,6,-6,-9,10,0,-14,4,19,17,15,4
14,6,-7,-9,10,0,-15,3,18,16,15,4
15,6,-8,-10,11,0,-16,2,16,15,15,4
14,6,-7,-10,11,0,-17,1,14,14,14,4
13,6,-6,-9,10,0,-18,0,13,13,14,4
12,5,-6,-8,9,0,-20,-2,11,11,13,4
11,4,-6,-8,8,0,-21,-3,10,10,12,3
11,5,-6,-8,8,0,-21,-4,8,9,11,4
13,6,-6,-9,9,0,-22,-5,7,8,11,4
14,6,-6,-10,10,0,-23,-6,5,7,10,4
14,7,-6,-11,10,1,-24,-7,3,6,10,4
14,7,-5,-11,10,1,-25,-8,1,5,10,4
15,8,-5,-11,10,2,-27,-9,-1,3,9,4
17,9,-7,-13,12,2,-28,-11,-3,1,8,4
19,10,-8,-14,13,2,-30,-13,-6,0,7,4
20,10,-9,-15,14,1,-32,-15,-8,-2,6,4
20,10,-9,-14,14,1,-33,-18,-10,-3,6,4
19,10,-9,-14,13,1,-34,-20,-12,-4,5,4
17,9,-8,-13,12,1,-36,-23,-14,-5,5,3
16,9,-7,-12,11,1,-37,-25,-16,-6,5,3
15,8,-6,-12,10,1,-38,-27,-18,-7,4,3
16,8,-7,-12,11,1,-40,-30,-20,-9,3,3
17,8,-8,-12,12,0,-41,-32,-22,-11,2,2
18,8,-8,-13,12,1,-42,-33,-23,-11,2,2
19,10,-8,-15,13,2,-42,-33,-24,-12,2,3
20,12,-8,-16,13,3,-42,-33,-25,-12,2,3
19,11,-7,-15,13,3,-42,-33,-26,-13,2,3
18,10,-7,-14,12,3,-43,-33,-27,-13,2,3
16,10,-5,-13,10,3,-42,-32,-27,-14,2,3
14,10,-4,-12,9,3,-42,-32,-27,-14,3,4
12,9,-3,-11,7,4,-42,-32,-27,-15,3,4
10,7,-2,-9,6,3,-42,-32,-28,-16,2,3
9,6,-3,-8,6,2,-42,-31,-28,-17,2,3
9,6,-3,-7,5,2,-42,-30,-29,-17,1,2
8,5,-3,-6,5,1,-41,-28,-29,-18,1,1
8,5,-3,-6,5,1,-41,-27,-29,-18,1,1
8,6,-2,-6,5,2,-40,-26,-28,-18,1,1
9,6,-2,-7,5,2,-39,-25,-28,-18,1,1
10,6,-3,-7,6,2,-39,-25,-28,-18,1,1
10,6,-3,-7,6,1,-38,-23,-27,-18,1,0
10,5,-4,-7,6,1,-38,-20,-27,-18,1,0
8,4,-4,-6,6,0,-37,-19,-26,-17,1,0
6,3,-3,-4,4,0,-35,-17,-25,-17,1,0
5,2,-3,-3,3,0,-34,-16,-24,-16,1,-1
3,1,-2,-2,2,0,-32,-14,-23,-16,0,-1
2,0,-2,-1,2,-1,-31,-12,-22,-16,0,-2
1,-1,-2,0,1,-1,-30,-10,-21,-16,0,-2
1,-1,-1,0,1,0,-28,-8,-20,-15,1,-1
0,-1,-1,0,0,0,-26,-6,-18,-14,1,-1
0,-1,-1,0,0,0,-25,-6,-16,-14,1,-1
0,-2,-2,1,1,-1,-24,-5,-15,-14,1,-2
0,-3,-2,1,0,-2,-22,-4,-14,-13,1,-2
-1,-3,-1,1,0,-2,-21,-3,-13,-13,1,-2
0,-2,-3,0,1,-2,-19,-1,-12,-12,1,-2
2,-2,-5,0,3,-3,-18,0,-11,-12,1,-3
2,-3,-5,0,3,-3,-17,0,-10,-12,1,-3
1,-4,-5,1,3,-3,-15,1,-9,-11,2,-3
0,-5,-5,2,2,-3,-13,1,-8,-11,2,-3
0,-6,-6,2,2,-4,-12,1,-8,-11,1,-3
-1,-6,-5,3,0,-4,-11,1,-7,-10,1,-3
-3,-7,-3,4,-1,-4,-10,2,-6,-10,1,-3
-4,-8,-3,5,-1,-5,-9,3,-5,-10,1,-3
-4,-8,-4,6,0,-5,-8,3,-5,-9,1,-4
-5,-8,-3,7,-1,-5,-7,4,-4,-8,1,-3
-6,-9,-2,8,-2,-4,-5,5,-3,-7,2,-3
-7,-9,-2,8,-3,-5,-5,5,-3,-7,2,-3
-6,-9,-3,8,-2,-5,-4,5,-3,-7,1,-3
-5,-9,-3,7,-1,-6,-4,5,-3,-7,1,-4
-6,-8,-3,7,-2,-5,-3,5,-2,-7,1,-4
-6,-8,-2,7,-2,-5,-3,5,-2,-6,1,-3
-5,-8,-3,6,-1,-5,-2,5,-1,-6,1,-3
-5,-8,-3,6,-1,-5,-2,5,-1,-6,1,-3
-5,-8,-3,7,-1,-5,-1,5,-1,-6,1,-3
-7,-9,-2,8,-2,-4,0,4,0,-5,1,-3
-8,-9,-1,8,-3,-4,0,4,0,-5,1,-2
-8,-9,-1,8,-4,-4,1,4,0,-5,1,-2
-7,-10,-1,8,-3,-5,1,4,0,-5,1,-3
-7,-9,-1,8,-3,-5,1,5,0,-5,1,-3
-7,-9,-1,8,-3,-4,2,6,0,-5,1,-3
-7,-10,-1,8,-3,-5,2,6,1,-5,1,-3
-7,-10,-2,9,-2,-5,2,5,1,-5,0,-3
-8,-10,-2,9,-2,-6,2,4,0,-5,0,-4
-8,-11,-2,9,-3,-6,2,4,0,-5,0,-4
-9,-11,-1,10,-4,-6,3,3,0,-4,0,-4
-10,-11,-1,10,-5,-6,3,3,1,-4,0,-4
-10,-11,-1,10,-4,-6,3,3,1,-4,0,-4
-9,-11,-2,9,-3,-6,3,3,1,-5,0,-4
-8,-11,-2,9,-3,-6,3,2,1,-5,0,-4
-10,-11,-1,10,-4,-6,3,1,1,-6,0,-4
-11,-12,0,11,-5,-6,3,1,1,-6,0,-4
-12,-11,0,11,-6,-5,3,1,1,-6,0,-4
-11,-10,0,10,-5,-5,3,1,1,-5,0,-4
-10,-9,0,9,-5,-5,3,1,1,-5,0,-4
-9,-9,0,9,-5,-4,4,1,2,-4,0,-4
-9,-9,0,9,-4,-4,4,1,2,-4,0,-4
-8,-9,-1,9,-4,-5,4,1,2,-4,0,-4
-8,-10,-1,9,-4,-5,4,1,1,-4,0,-4
-8,-9,-1,8,-4,-4,4,1,2,-3,0,-4
-8,-8,0,8,-4,-4,4,2,2,-3,0,-3
-8,-7,0,8,-4,-3,4,2,2,-2,0,-3
-8,-7,0,7,-4,-3,4,2,2,-2,0,-4
-7,-6,0,6,-3,-3,4,2,2,-1,0,-4
-7,-6,0,6,-4,-2,5,3,2,-1,0,-4
-8,-6,2,6,-5,-1,6,4,3,0,1,-3
-8,-5,3,6,-6,0,6,5,4,0,1,-3
-8,-4,4,5,-6,1,7,5,4,0,1,-2
-8,-4,5,5,-7,1,7,4,5,1,1,-2
-8,-3,5,6,-7,1,6,4,4,1,1,-2
-7,-2,5,5,-6,2,6,3,4,1,1,-2
-7,-1,5,5,-6,2,6,3,5,1,1,-2
-8,-1,6,5,-7,3,5,2,5,1,1,-2
-8,-1,7,5,-8,3,5,1,5,1,1,-2
-8,-1,7,5,-8,3,4,1,5,1,1,-2
-8,-1,6,4,-7,3,4,0,5,1,1,-2
-7,-1,6,4,-7,3,4,0,5,1,1,-2
-7,-1,6,4,-7,3,4,0,6,1,2,-1
-8,-1,6,4,-7,3,4,2,6,1,2,-1
-8,-1,6,4,-7,3,4,3,6,1,3,0
-9,-2,6,5,-8,2,3,3,6,1,3,0
-8,-3,5,5,-7,1,1,1,5,0,2,-1
-6,-3,3,4,-5,0,0,-1,4,0,2,-2
-4,-3,2,3,-3,0,-1,-2,3,0,1,-2
-4,-3,1,3,-2,-1,-2,-3,2,0,1,-2
-3,-4,0,3,-1,-1,-3,-3,1,-1,1,-2
-2,-3,-1,3,0,-2,-4,-3,0,-1,1,-2
-1,-2,-1,2,0,-1,-4,-2,1,0,2,-2
-1,-1,0,1,-1,-1,-3,-1,2,0,3,-1
-1,-1,0,1,-1,0,-2,-1,3,1,3,0
-1,-2,0,1,-1,0,-2,-1,3,2,3,0
-2,-2,0,1,-1,-1,-2,-3,2,2,3,0
-3,-3,0,2,-2,-1,-1,-4,2,2,3,0
-4,-3,0,3,-2,-1,-1,-4,2,2,3,0
-4,-3,0,3,-2,-1,-1,-5,1,1,2,0
-4,-4,0,3,-2,-2,-1,-5,1,1,2,-1
-4,-4,-1,4,-2,-3,-2,-5,0,0,1,-1
-3,-5,-2,4,-1,-4,-3,-6,-1,-1,0,-2
-3,-6,-2,5,-1,-5,-4,-6,-3,-1,0,-3
-3,-6,-2,5,-1,-5,-4,-7,-4,-1,-1,-3
-3,-6,-3,5,-1,-4,-4,-7,-4,-2,-1,-3
-2,-6,-3,4,0,-4,-4,-7,-5,-2,-1,-3
-2,-6,-4,5,0,-4,-4,-7,-4,-2,-1,-3
-3,-6,-3,5,0,-4,-4,-7,-4,-2,-1,-3
-4,-6,-3,5,-1,-4,-3,-7,-4,-2,-1,-3
-5,-7,-2,6,-2,-4,-3,-7,-3,-2,-1,-3
-6,-7,-1,6,-3,-4,-2,-6,-3,-2,0,-3
-5,-7,-1,6,-2,-4,-1,-5,-2,-1,0,-2
-6,-7,-1,6,-2,-4,0,-4,-2,0,0,-2
-8,-8,-1,7,-3,-4,0,-3,-2,0,0,-2
-9,-9,0,8,-4,-4,0,-3,-1,0,0,-2
-10,-9,0,9,-5,-4,0,-3,-1,0,-1,-2
-10,-10,0,10,-5,-4,1,-4,-2,-1,-1,-3
-10,-10,0,10,-5,-4,1,-5,-2,-1,-2,-4
-11,-11,0,11,-6,-5,2,-5,-2,-1,-3,-4
-13,-12,1,12,-7,-5,2,-4,-2,-1,-3,-4
-13,-13,1,13,-8,-5,2,-4,-2,-1,-3,-4
-13,-13,1,13,-7,-6,2,-4,-2,-1,-3,-4
-13,-12,1,12,-7,-6,2,-4,-2,-1,-3,-4
-12,-12,0,12,-6,-6,2,-4,-2,-2,-3,-5
-11,-13,-1,12,-5,-7,2,-5,-3,-3,-4,-6
-10,-14,-3,12,-4,-8,1,-7,-4,-4,-5,-7
-9,-14,-4,11,-3,-9,0,-7,-5,-4,-6,-7
-9,-14,-4,11,-3,-9,0,-7,-5,-4,-5,-7
-11,-14,-2,12,-5,-8,1,-7,-4,-3,-5,-7
-12,-14,-1,12,-5,-7,2,-6,-4,-3,-5,-6
-10,-13,-2,11,-4,-7,1,-5,-4,-3,-5,-6
-9,-12,-3,11,-3,-7,1,-5,-4,-2,-5,-6
-9,-12,-3,11,-3,-7,1,-4,-4,-2,-5,-6
-10,-13,-3,11,-4,-8,1,-4,-4,-2,-5,-6
-11,-14,-3,12,-4,-8,1,-4,-4,-3,-5,-7
-11,-14,-3,12,-5,-8,1,-4,-4,-3,-5,-7
-11,-13,-2,11,-5,-8,2,-3,-3,-2,-5,-6
-10,-13,-2,11,-5,-8,2,-2,-3,-2,-5,-6
-9,-13,-3,10,-4,-8,2,-2,-3,-3,-5,-6
-9,-13,-3,11,-3,-8,2,-2,-3,-3,-6,-6
-11,-13,-2,12,-4,-8,2,-1,-3,-3,-6,-6
-12,-14,-2,13,-5,-8,3,0,-2,-3,-6,-6
-12,-14,-3,13,-5,-9,4,1,-2,-3,-7,-6
-10,-15,-5,12,-3,-10,5,3,-1,-3,-8,-7
-8,-15,-7,11,-1,-11,5,4,-1,-3,-9,-8
-7,-16,-8,11,0,-12,5,4,-1,-4,-10,-9
-7,-16,-9,11,0,-12,5,4,-1,-6,-12,-10
-6,-16,-9,10,1,-12,4,1,-4,-8,-13,-11
-7,-14,-7,10,0,-10,1,-4,-9,-12,-14,-11
-9,-12,-3,10,-3,-8,-3,-12,-16,-15,-15,-10
-10,-10,0,9,-4,-5,-8,-21,-24,-19,-15,-8
-8,-8,0,8,-4,-4,-13,-29,-31,-22,-14,-5
-6,-6,0,6,-3,-3,-17,-35,-37,-23,-11,0
-2,-3,0,3,-1,-2,-21,-39,-40,-20,-4,6
3,0,-2,-1,2,-1,-24,-42,-41,-16,4,15
8,3,-4,-5,6,0,-27,-44,-42,-11,14,24
14,7,-6,-10,10,0,-29,-46,-43,-5,24,34
21,11,-8,-16,15,0,-32,-48,-43,0,33,43
27,15,-12,-21,20,0,-34,-50,-44,3,39,49
33,17,-16,-25,24,0,-36,-50,-46,3,42,52
37,18,-19,-27,28,0,-36,-49,-47,3,43,54
39,19,-21,-29,30,0,-37,-49,-48,3,44,56
41,19,-21,-30,31,0,-37,-48,-48,3,48,60
42,20,-21,-31,32,0,-37,-47,-48,4,52,63
43,21,-21,-32,32,0,-36,-46,-49,4,54,66
42,23,-19,-33,31,1,-36,-47,-51,2,53,66
39,24,-15,-32,27,4,-36,-49,-54,-3,50,65
35,25,-11,-31,23,7,-36,-51,-58,-10,45,63
33,24,-9,-29,21,7,-35,-54,-62,-16,39,59
31,21,-11,-26,21,5,-33,-57,-64,-22,32,53
28,16,-12,-22,20,3,-29,-56,-63,-27,24,45
20,10,-10,-15,15,0,-21,-51,-58,-32,13,34
8,3,-6,-5,7,-1,-11,-41,-50,-37,0,20
-3,-3,-1,3,0,-2,0,-29,-41,-40,-11,6
-11,-9,1,10,-6,-4,10,-16,-30,-42,-21,-5
-17,-13,3,14,-10,-4,20,-1,-17,-40,-28,-14
-22,-15,7,18,-15,-3,29,13,-4,-37,-31,-20
-27,-15,11,20,-20,-1,39,27,10,-32,-32,-23
-31,-15,16,22,-24,0,49,41,24,-27,-31,-25
-34,-16,18,25,-27,1,60,54,37,-21,-30,-26
-38,-17,20,27,-29,2,70,68,51,-15,-28,-26
-40,-17,22,28,-31,3,80,80,63,-9,-24,-24
-41,-16,24,27,-32,4,88,88,72,-4,-20,-23
-40,-13,25,26,-32,6,95,92,79,0,-16,-21
-40,-11,28,25,-34,8,100,92,83,5,-12,-18
-39,-8,30,23,-34,10,104,89,84,8,-10,-16
-38,-7,31,22,-35,12,107,84,82,10,-9,-15
-39,-7,32,23,-36,12,110,77,76,10,-8,-15
-41,-8,33,24,-37,12,112,68,67,8,-9,-15
-42,-9,32,25,-37,11,113,60,57,6,-9,-15
-43,-11,32,26,-37,10,115,53,49,4,-10,-15
-43,-13,29,27,-36,8,115,46,41,2,-10,-16
-43,-16,27,28,-35,5,114,40,35,0,-11,-16
-42,-17,25,29,-34,4,113,35,30,-1,-11,-16
-41,-17,23,28,-33,3,110,30,26,-2,-11,-16
-40,-18,22,28,-31,2,106,24,22,-3,-11,-16
-39,-18,21,28,-31,2,100,19,19,-4,-11,-16
-40,-18,21,29,-31,2,95,15,17,-4,-10,-15
-41,-18,22,29,-32,2,90,13,17,-3,-9,-14
-40,-17,23,28,-32,3,86,12,17,-1,-7,-12
-38,-15,23,26,-30,3,83,12,18,0,-6,-12
-35,-13,22,23,-29,4,80,11,19,0,-5,-11
-35,-12,23,23,-29,5,76,11,20,1,-5,-10
-36,-11,25,23,-31,6,72,11,21,2,-4,-9
-35,-11,25,22,-30,7,68,12,21,3,-3,-8
-32,-10,22,21,-27,6,62,13,22,4,-1,-8
-29,-10,19,19,-24,5,56,14,22,6,0,-7
-26,-10,17,18,-21,3,50,14,23,8,2,-5
-24,-10,14,17,-19,2,44,14,24,10,4,-4
-22,-9,13,15,-18,2,38,15,26,12,7,-2
-20,-7,13,13,-17,2,33,17,29,15,10,1
-17,-5,12,11,-15,3,27,18,32,18,12,3
-13,-3,11,8,-13,4,21,19,34,21,14,5
-11,-1,10,6,-11,5,17,20,36,23,16,7
-9,1,11,4,-10,6,15,22,38,25,19,9
-9,2,11,4,-10,6,13,23,40,27,21,10
-9,1,11,4,-10,6,12,22,41,28,22,11
-10,1,11,5,-10,6,10,22,41,29,22,11
-9,1,11,4,-10,6,9,21,42,29,23,12
-8,2,11,3,-10,6,8,21,42,30,23,12
-8,2,11,3,-10,6,7,22,42,31,23,13
-8,2,11,3,-10,6,6,22,42,31,23,12
-8,2,11,3,-10,7,6,22,42,31,23,12
-7,4,11,2,-9,8,6,24,43,32,24,13
-6,5,11,1,-8,8,6,25,43,32,24,13
-4,6,10,0,-6,8,6,26,43,33,25,13
-3,6,10,-1,-6,8,6,27,43,33,25,13
-4,5,9,0,-6,7,5,27,43,33,24,13
-5,4,9,0,-7,6,5,26,43,33,24,13
-6,3,9,1,-8,6,5,26,43,33,23,13
-6,3,9,2,-8,6,5,25,43,33,23,13
-5,4,8,1,-7,6,5,23,43,33,24,13
-4,4,7,1,-6,6,5,22,43,32,24,13
-5,4,8,1,-7,6,5,22,43,32,24,13
-6,4,10,2,-8,6,5,22,43,32,25,14
-7,3,11,2,-9,6,5,23,43,32,25,14
-8,3,11,3,-9,6,5,23,43,32,25,14
-7,3,10,2,-9,6,5,23,43,32,25,15
-5,3,9,1,-8,6,5,23,43,32,25,15
-4,4,8,0,-6,6,5,23,43,32,25,15
-3,5,7,-1,-5,6,5,24,43,32,25,15
-2,5,6,-1,-4,6,5,23,43,31,25,14
-2,5,6,-1,-4,5,4,22,42,31,24,14
-2,5,6,-1,-4,5,4,22,42,31,24,14
-4,4,8,0,-6,6,4,23,42,31,24,14
-5,4,9,0,-7,6,4,23,42,31,24,15
-5,4,9,0,-7,7,5,23,43,31,25,15
-4,5,9,0,-6,7,5,23,43,31,25,15
-3,5,9,0,-6,7,5,23,43,31,25,15
-3,5,9,0,-6,7,4,23,43,31,25,15
-3,5,9,0,-6,7,4,23,42,31,24,15
-3,5,9,0,-6,7,4,23,42,31,25,15
-3,6,9,-1,-6,8,4,24,42,31,25,15
-2,7,8,-2,-5,8,4,24,42,30,24,15
-1,7,8,-3,-4,7,3,24,41,30,24,14
-2,6,8,-2,-5,7,3,24,40,29,23,14
-3,5,8,0,-6,7,3,24,40,29,23,14
-4,5,9,0,-6,7,3,25,40,29,23,15
-4,5,9,0,-7,7,3,25,40,28,23,15
-4,5,9,0,-7,7,3,24,39,28,23,15
-4,5,9,0,-6,7,2,24,39,27,23,15
-1,7,8,-2,-5,8,2,23,38,27,23,15
1,9,7,-5,-3,8,1,22,37,26,23,15
3,9,7,-6,-2,8,1,21,36,25,22,15
2,9,7,-5,-2,8,0,20,35,24,22,15
2,10,8,-5,-3,8,0,20,34,23,22,15
1,10,8,-5,-4,9,0,19,33,22,21,15
0,9,8,-5,-4,9,0,18,32,22,21,15
0,8,8,-4,-4,8,-1,17,31,21,21,15
0,8,8,-4,-4,8,-1,17,30,21,20,15
0,8,8,-4,-4,8,-2,16,29,20,20,15
0,8,8,-4,-4,8,-3,15,27,18,19,15
0,8,8,-4,-4,8,-5,13,26,17,19,15
0,9,8,-5,-4,9,-6,11,24,16,19,15
0,10,8,-5,-4,9,-7,9,22,15,18,15
2,12,8,-6,-3,10,-8,8,21,14,18,15
4,13,8,-8,-2,11,-9,7,19,13,17,15
5,13,8,-8,-2,11,-10,5,17,12,17,15
4,13,8,-8,-2,11,-11,3,15,11,16,15
4,13,8,-8,-2,10,-12,1,13,9,15,15
4,12,7,-8,-1,10,-13,-1,11,7,14,15
4,11,7,-7,-1,9,-15,-3,9,5,13,14
3,11,6,-7,-1,8,-17,-4,6,4,12,14
4,11,7,-7,-1,9,-18,-6,4,3,12,14
5,13,7,-9,-1,10,-19,-7,3,2,11,14
7,14,6,-10,0,10,-20,-9,0,1,11,14
9,14,5,-12,1,10,-22,-11,-2,0,10,14
10,15,5,-12,2,10,-23,-13,-4,-2,10,14
9,15,5,-12,2,10,-25,-15,-7,-3,9,14
8,15,5,-12,1,10,-26,-16,-9,-5,8,13
9,15,5,-12,2,10,-28,-18,-11,-6,8,13
10,16,5,-13,2,11,-29,-19,-12,-7,7,13
11,17,5,-14,3,11,-30,-21,-14,-7,7,13
11,17,6,-14,2,11,-30,-22,-15,-8,7,13
9,16,7,-13,1,11,-31,-23,-16,-8,7,13
9,16,8,-13,0,11,-31,-24,-17,-8,7,14
9,16,7,-13,1,11,-32,-24,-19,-10,6,14
10,16,6,-13,2,11,-33,-25,-20,-11,6,13
11,16,4,-13,3,10,-34,-26,-22,-12,5,13
11,15,3,-13,3,10,-34,-26,-23,-13,4,12
10,15,3,-12,3,9,-35,-26,-24,-14,4,11
10,15,3,-12,3,9,-35,-26,-24,-14,4,11
11,15,3,-13,3,9,-34,-25,-24,-14,3,11
11,14,2,-13,4,8,-34,-24,-24,-14,3,10
10,14,3,-12,3,9,-34,-23,-24,-14,3,10
9,14,5,-12,2,10,-33,-22,-24,-14,3,11
9,14,4,-12,2,9,-32,-22,-23,-14,3,11
10,13,3,-12,3,8,-32,-22,-24,-15,3,10
8,11,3,-10,3,7,-32,-21,-24,-15,3,10
6,10,3,-8,2,6,-31,-21,-24,-15,3,9
7,10,2,-9,2,6,-30,-20,-23,-15,2,9
9,10,1,-10,4,6,-30,-19,-23,-15,2,8
10,11,0,-10,4,6,-29,-19,-22,-15,2,7
11,11,0,-11,5,6,-28,-18,-21,-15,2,7
11,11,1,-11,5,6,-27,-17,-20,-14,2,7
11,10,1,-10,4,5,-25,-15,-19,-14,2,7
10,9,0,-9,4,5,-24,-13,-18,-14,1,6
9,9,0,-8,4,4,-23,-11,-17,-14,1,6
8,8,0,-8,4,4,-21,-10,-16,-14,1,6
8,8,0,-8,4,3,-20,-9,-15,-14,1,5
9,7,-1,-8,5,3,-19,-8,-14,-14,0,5
8,7,0,-8,4,3,-18,-7,-13,-13,1,5
7,7,1,-7,3,4,-17,-6,-12,-13,1,5
5,7,2,-6,2,4,-15,-3,-10,-12,1,5
5,7,2,-6,2,4,-13,-1,-9,-12,1,4
4,6,1,-6,2,3,-12,0,-9,-12,1,3
3,5,1,-5,2,2,-11,0,-8,-12,0,3
3,4,1,-4,1,2,-10,1,-7,-11,0,3
3,4,1,-4,1,2,-9,1,-6,-11,0,3
2,4,1,-4,1,2,-8,1,-5,-10,1,3
2,4,1,-3,1,2,-6,1,-4,-10,1,3
3,3,0,-4,2,1,-5,0,-3,-10,2,3
4,3,-2,-4,4,0,-4,0,-3,-10,1,3
3,2,-2,-4,3,0,-4,0,-3,-10,1,2
2,1,-1,-3,2,0,-3,1,-2,-9,1,2
2,1,-1,-2,2,0,-2,2,-2,-9,0,2
2,2,-1,-2,2,0,-1,3,-2,-9,0,1
2,3,0,-3,1,0,0,4,-1,-9,0,1
1,3,1,-3,0,1,0,5,-1,-9,0,1
1,3,2,-3,0,2,0,5,-1,-9,0,1
0,3,2,-3,-1,2,1,6,0,-8,1,1
0,3,3,-2,-1,3,2,7,0,-8,1,2
0,3,3,-2,-2,3,3,7,0,-7,2,2
0,2,2,-1,-1,2,3,7,0,-7,2,1
0,2,2,-1,-1,1,3,6,0,-7,1,1
0,2,2,-1,-1,2,3,6,0,-7,1,1
0,3,2,-2,-1,3,4,5,1,-6,2,2
1,4,2,-3,0,3,5,6,1,-5,2,2
2,6,2,-4,0,4,5,7,1,-5,2,2
3,7,3,-5,0,5,5,8,2,-4,3,2
2,7,4,-5,-1,5,6,9,3,-3,3,2
0,6,4,-3,-1,5,6,9,2,-3,2,1
0,5,5,-2,-2,5,6,8,2,-4,2,1
0,4,5,-2,-2,5,6,8,2,-4,2,1
0,4,4,-1,-2,4,7,7,2,-4,1,1
-1,3,4,-1,-2,4,7,7,2,-4,1,1
-1,2,3,-1,-1,3,7,7,1,-4,0,0
0,1,1,-1,0,1,7,7,1,-4,-1,0
2,2,0,-2,1,1,7,7,1,-4,-1,0
3,3,0,-3,1,1,7,7,2,-3,-2,0
4,4,0,-4,1,2,7,7,2,-3,-2,0
5,5,0,-5,2,3,6,7,2,-3,-2,0
5,6,1,-5,1,4,6,7,3,-2,-2,1
3,6,2,-4,0,4,7,7,3,-2,-2,1
2,6,3,-3,-1,4,7,7,3,-1,-2,1
3,6,2,-4,0,4,7,7,4,-1,-2,1
4,7,1,-5,1,4,8,6,4,0,-2,1
5,7,1,-6,1,4,8,7,4,0,-2,2
4,8,2,-6,0,5,8,7,4,0,-2,2
3,8,4,-5,0,6,9,8,4,1,-2,2
2,8,5,-4,-2,6,10,8,4,1,-2,2
1,8,6,-4,-2,7,10,8,4,1,-3,2
3,8,5,-5,-1,6,9,8,4,1,-4,1
4,9,4,-6,0,6,9,8,4,0,-5,1
3,10,6,-7,-1,8,9,9,5,1,-5,1
3,11,8,-7,-2,9,10,9,5,1,-4,2
3,11,8,-7,-2,10,9,9,5,2,-4,2
4,12,8,-8,-2,10,8,9,5,2,-4,2
4,12,9,-8,-3,10,8,9,6,3,-4,2
3,12,9,-7,-3,10,7,9,6,3,-4,2
4,12,8,-8,-2,10,7,8,6,4,-4,2
6,12,5,-9,0,9,7,8,6,4,-4,2
9,13,3,-11,3,8,6,8,6,5,-4,2
9,12,2,-10,4,7,5,8,5,5,-4,2
8,11,2,-9,3,7,4,7,5,5,-4,2
7,10,3,-8,2,6,3,6,4,5,-4,2
6,10,4,-8,1,6,2,6,4,5,-4,2
6,11,4,-8,1,7,1,5,3,5,-4,2
7,11,4,-9,1,7,1,5,3,5,-4,2
8,11,2,-9,2,6,0,4,2,5,-4,1
9,10,0,-10,4,6,-1,3,1,5,-4,1
10,11,0,-10,5,6,-1,3,0,6,-4,2
11,11,0,-10,5,6,-1,2,1,7,-3,2
9,10,0,-9,4,6,0,2,1,8,-2,3
7,8,1,-8,2,5,0,1,1,8,-2,3
6,7,1,-7,3,4,-1,1,0,7,-3,2
7,7,0,-7,4,3,-1,0,0,7,-4,1
7,7,-1,-7,4,3,0,0,0,7,-4,1
7,6,-2,-7,5,2,0,-1,0,7,-4,1
8,6,-3,-7,6,1,-1,0,-1,7,-5,1
8,5,-3,-7,6,1,-1,0,-2,6,-5,0
8,5,-3,-6,6,0,-2,0,-3,6,-6,0
9,4,-4,-6,7,0,-3,-1,-4,5,-6,0
10,4,-5,-7,8,-1,-4,-2,-6,4,-7,-1
9,3,-5,-6,7,-1,-5,-2,-7,4,-8,-2
7,2,-4,-4,6,-1,-4,-3,-7,4,-8,-2
6,3,-3,-4,5,0,-3,-3,-7,4,-8,-1
5,3,-2,-4,4,0,-2,-3,-6,5,-7,0
4,3,-1,-4,3,1,-1,-3,-5,6,-6,0
3,2,-1,-3,2,1,0,-3,-5,7,-6,0
3,2,0,-3,1,1,0,-2,-5,7,-6,0
3,2,-1,-3,2,0,0,-1,-5,7,-6,0
3,1,-2,-2,2,-1,0,-1,-5,7,-7,-1
1,-1,-2,0,1,-2,0,-1,-5,6,-8,-2
-1,-2,-1,2,0,-2,0,-1,-5,6,-8,-2
-2,-2,-1,2,0,-2,1,0,-5,6,-8,-2
-1,-1,-1,1,0,-1,1,0,-5,6,-8,-2
0,-1,-1,0,1,-1,1,0,-5,6,-8,-3
1,-1,-2,0,2,-2,1,0,-6,5,-9,-4
0,-2,-2,1,1,-3,1,1,-6,5,-10,-4
-2,-4,-1,3,0,-3,2,2,-5,5,-10,-5
-3,-4,-1,4,0,-3,3,2,-5,5,-10,-5
-2,-3,-2,3,0,-3,4,3,-5,5,-9,-4
0,-2,-2,1,1,-3,4,3,-5,6,-9,-4
0,-3,-3,2,1,-3,4,2,-6,5,-10,-5
0,-5,-4,3,2,-5,3,1,-7,4,-10,-5
0,-5,-5,3,2,-5,2,0,-7,4,-10,-5
0,-5,-4,3,2,-5,2,0,-7,4,-10,-5
-1,-5,-4,3,1,-4,2,0,-7,4,-10,-5
-1,-5,-4,3,1,-4,2,1,-7,4,-10,-5
-1,-4,-4,3,1,-4,2,1,-7,4,-10,-5
-1,-5,-5,3,2,-4,2,1,-7,3,-11,-6
-1,-6,-6,3,3,-6,1,0,-8,3,-11,-6
-1,-7,-6,4,3,-7,1,0,-8,2,-12,-7
-2,-7,-5,4,1,-7,1,0,-8,2,-11,-6
-3,-7,-4,5,0,-6,2,1,-7,3,-10,-6
-4,-7,-3,5,0,-5,3,2,-7,3,-10,-5
-3,-6,-4,4,0,-5,3,3,-7,3,-9,-5
-2,-6,-4,4,1,-5,3,2,-7,3,-9,-5
-3,-6,-4,5,0,-5,3,2,-7,3,-9,-5
-5,-6,-3,6,0,-5,3,2,-7,3,-9,-5
-4,-7,-4,6,0,-6,3,3,-7,3,-10,-5
-2,-8,-7,5,2,-8,3,4,-7,2,-11,-6
0,-10,-9,5,4,-10,4,5,-6,1,-12,-8
1,-11,-12,5,6,-12,4,5,-6,1,-13,-9
2,-12,-15,4,8,-14,4,6,-6,0,-14,-10
3,-13,-16,4,9,-14,5,6,-6,-1,-15,-11
1,-13,-15,5,8,-14,4,4,-8,-3,-16,-12
-2,-12,-11,6,5,-12,2,-2,-12,-6,-17,-12
-3,-10,-7,6,2,-9,-2,-10,-18,-10,-18,-12
-2,-6,-4,4,1,-6,-6,-18,-26,-14,-19,-11
1,-2,-4,1,2,-4,-11,-25,-33,-17,-18,-9
4,0,-5,-2,4,-3,-17,-31,-40,-19,-16,-5
7,1,-6,-4,6,-3,-21,-35,-44,-19,-11,1
10,3,-6,-7,8,-1,-23,-38,-46,-15,-3,10
14,7,-7,-11,11,0,-26,-40,-47,-11,6,20
19,11,-8,-15,14,1,-28,-42,-48,-5,16,30
24,13,-11,-19,18,1,-32,-45,-49,0,26,39
30,16,-13,-23,22,1,-36,-47,-51,2,32,46
35,18,-16,-27,26,1,-38,-48,-53,3,36,51
39,20,-19,-29,29,0,-39,-48,-54,3,38,53
43,21,-22,-32,32,0,-40,-47,-55,3,39,56
45,22,-24,-34,35,0,-40,-47,-55,3,42,59
47,22,-26,-35,37,-1,-40,-48,-56,4,45,63
48,23,-26,-35,38,-1,-40,-48,-56,4,48,65
47,24,-25,-36,37,0,-40,-47,-57,2,48,66
45,25,-21,-35,34,2,-40,-48,-60,-2,46,65
42,26,-16,-34,30,4,-40,-50,-63,-8,42,63
41,26,-15,-34,28,5,-39,-53,-67,-14,36,59
41,23,-18,-32,29,2,-39,-56,-70,-21,29,53
37,17,-20,-27,28,-1,-36,-57,-72,-27,19,45
29,11,-20,-20,24,-4,-30,-53,-69,-33,8,34
18,4,-15,-11,16,-5,-21,-44,-62,-38,-3,21
5,-1,-8,-2,7,-5,-9,-32,-52,-41,-15,7
-5,-7,-3,5,0,-5,1,-18,-40,-42,-25,-5
-11,-12,-1,11,-5,-7,12,-4,-27,-40,-32,-15
-15,-15,0,14,-8,-8,21,9,-14,-37,-36,-22
-19,-16,2,17,-11,-7,30,22,-1,-32,-38,-26
-22,-17,5,19,-14,-6,39,36,11,-26,-38,-29
-26,-17,9,21,-18,-4,48,50,25,-20,-37,-30
-29,-16,12,22,-20,-2,59,66,40,-13,-33,-29
-31,-15,14,23,-22,0,69,82,54,-6,-29,-28
-32,-15,16,23,-23,0,78,95,67,0,-25,-26
-32,-14,17,23,-24,1,86,104,77,5,-20,-24
-32,-13,17,22,-24,1,92,108,83,10,-16,-22
-31,-11,19,21,-25,4,96,108,86,14,-13,-19
-31,-8,22,19,-27,7,100,105,87,16,-11,-17
-31,-6,24,18,-27,9,103,100,83,17,-10,-16
-31,-5,24,18,-28,10,104,92,76,14,-12,-16
-33,-7,25,20,-28,9,105,82,65,10,-13,-18
-34,-9,24,21,-29,7,106,72,55,7,-14,-18
-34,-11,22,22,-28,5,107,62,46,5,-14,-19
-34,-12,21,22,-27,3,108,54,38,3,-14,-19
-33,-13,20,22,-26,2,108,47,33,3,-13,-18
-32,-13,18,22,-25,2,107,41,28,2,-13,-18
-32,-14,17,22,-25,2,104,34,23,1,-14,-17
-31,-15,16,22,-24,1,100,26,19,0,-14,-17
-30,-16,14,22,-22,0,96,20,15,-2,-14,-17
-29,-16,12,22,-21,-1,91,16,13,-2,-13,-17
-30,-16,13,23,-22,-1,88,14,13,-2,-12,-16
-31,-16,15,23,-23,0,86,13,14,0,-10,-15
-31,-16,15,22,-23,0,84,13,15,0,-9,-14
-29,-14,15,21,-22,0,81,12,15,0,-9,-13
-28,-13,15,20,-22,1,78,12,15,1,-8,-13
-27,-11,16,18,-22,2,73,11,16,2,-7,-11
-27,-9,17,17,-22,4,69,11,17,4,-5,-9
-25,-8,16,17,-20,4,63,12,17,6,-3,-8
-23,-8,14,16,-18,3,57,13,18,8,-1,-7
-21,-9,11,15,-16,1,51,14,18,11,1,-5
-18,-9,8,13,-13,0,44,14,18,13,3,-4
-14,-9,4,11,-10,-2,36,14,20,15,6,-3
-10,-8,2,9,-7,-3,29,15,21,17,8,-1
-7,-7,1,7,-5,-3,22,16,23,20,10,0
-6,-6,1,5,-4,-2,16,17,25,22,13,3
-6,-4,2,5,-4,-1,12,18,27,25,15,5
-6,-3,2,4,-4,0,9,18,28,27,17,7
-4,-2,1,3,-3,0,7,19,29,28,18,7
-1,0,0,1,0,0,5,19,29,29,19,7
0,0,-1,0,0,0,3,20,30,30,19,7
0,0,0,0,0,0,2,20,31,31,20,8
-1,0,0,0,-1,0,1,20,31,32,20,8
-1,-1,0,1,-1,0,0,20,31,32,20,9
-1,0,0,1,0,0,0,20,31,33,21,9
-1,0,0,0,0,0,-1,20,31,34,21,9
0,0,-1,0,1,0,-2,19,31,35,21,9
1,0,-1,0,1,-1,-2,19,31,35,21,9
0,-1,-1,0,0,-1,-2,19,32,36,22,9
0,-1,0,0,0,-1,-1,20,32,36,22,9
1,-1,-1,0,1,-1,-2,20,31,36,22,9
0,-1,-1,0,1,-1,-2,20,31,36,22,9
-1,-1,0,1,0,0,-2,20,31,37,23,10
-2,0,1,1,-1,1,-1,20,32,38,24,10
-2,0,1,1,-1,1,-1,19,32,38,24,10
-1,0,0,1,0,0,-2,19,32,37,24,9
0,-1,-1,0,1,-1,-3,19,31,37,23,9
1,-1,-3,0,2,-2,-3,19,31,36,23,9
2,-1,-3,0,3,-2,-4,19,30,36,23,9
2,0,-2,-1,2,-1,-4,20,31,37,23,9
1,0,-1,-1,1,0,-3,21,31,37,24,10
0,-1,-1,0,0,-1,-3,21,31,37,23,10
0,-1,-1,0,0,-1,-3,21,31,38,23,10
0,-1,-2,0,1,-2,-3,21,31,38,23,10
0,-1,-1,0,0,-1,-3,21,31,39,24,11
-1,-1,0,1,-1,0,-2,20,32,40,24,11
-1,-1,0,1,-1,0,-3,19,31,40,24,11
0,-1,0,0,0,0,-3,18,31,39,23,10
1,-1,-1,0,1,-1,-4,17,30,38,23,9
2,-1,-2,0,2,-1,-4,17,29,38,22,8
3,0,-2,-1,2,-1,-4,17,29,38,22,8
2,0,-1,-1,1,-1,-4,18,30,38,22,9
0,0,0,0,0,0,-4,18,30,39,22,9
-1,-1,1,1,-1,0,-4,18,30,39,22,9
-2,-1,1,1,-1,0,-4,17,30,39,22,9
-2,-2,0,2,-1,-1,-4,17,30,39,22,9
-1,-2,0,2,-1,-1,-4,17,29,39,22,9
0,-2,0,1,0,-1,-4,17,29,39,22,10
1,-1,-1,0,1,-1,-4,16,28,39,22,10
2,-1,-2,0,1,-1,-5,15,27,38,21,9
2,-1,-2,0,1,-1,-6,14,27,37,21,9
2,0,-2,-1,1,-1,-7,14,26,37,20,8
2,0,-2,-1,2,-1,-7,14,25,36,20,8
2,0,-2,-1,2,-1,-7,14,25,36,20,8
2,0,-1,0,1,-1,-7,14,24,36,19,7
1,-1,-1,0,1,-1,-8,14,24,35,19,7
1,0,-1,0,1,-1,-8,14,23,35,19,7
2,1,0,-2,1,0,-9,14,23,35,19,8
2,2,0,-3,1,0,-9,15,22,34,19,8
2,2,0,-2,1,0,-9,14,21,33,18,8
1,1,0,-1,0,0,-10,12,19,33,18,8
1,1,0,-1,0,1,-11,11,18,32,18,9
1,2,1,-1,0,1,-11,10,17,32,17,9
1,2,1,-1,0,1,-12,9,16,31,17,8
1,1,1,-1,0,1,-13,7,14,29,16,7
1,1,0,-1,0,1,-14,5,12,27,15,7
1,1,0,-1,0,1,-15,3,11,26,14,7
1,2,1,-2,0,1,-16,1,9,26,14,7
1,3,1,-2,0,2,-16,0,8,25,14,8
2,3,1,-2,0,2,-18,-3,6,23,13,7
3,3,0,-3,2,1,-19,-5,4,22,12,7
5,4,-1,-4,3,1,-21,-8,2,20,11,7
5,4,-1,-4,3,1,-22,-9,0,18,11,7
4,4,0,-4,2,2,-23,-11,-2,16,10,7
4,4,0,-5,2,2,-24,-14,-4,14,10,7
4,5,0,-5,1,3,-26,-17,-6,12,9,7
3,5,1,-4,0,3,-27,-21,-8,10,9,7
4,5,0,-4,1,3,-29,-23,-11,8,8,6
5,5,-1,-5,3,2,-30,-24,-13,6,6,6
6,5,-1,-5,4,2,-31,-25,-15,5,6,6
6,5,-1,-5,4,2,-32,-26,-17,3,5,6
6,5,0,-6,3,2,-33,-26,-18,2,5,6
7,6,0,-7,3,2,-34,-27,-20,0,5,6
7,6,-1,-8,4,2,-35,-29,-22,-1,4,5
8,7,-1,-8,4,2,-37,-31,-24,-3,3,5
7,7,0,-7,4,2,-38,-33,-26,-5,2,5
7,7,0,-7,3,3,-39,-34,-28,-6,1,5
7,7,0,-7,3,4,-39,-35,-29,-7,1,5
8,7,0,-8,4,3,-40,-36,-31,-8,1,4
9,6,-1,-8,5,2,-41,-37,-32,-9,0,4
9,6,-2,-7,5,1,-42,-38,-34,-11,0,3
9,6,-2,-7,5,1,-43,-38,-35,-12,-1,3
9,6,-3,-7,5,1,-43,-38,-35,-13,-1,3
9,6,-3,-7,6,1,-43,-39,-35,-14,-2,3
8,5,-3,-7,6,1,-43,-39,-35,-14,-2,3
8,5,-2,-6,5,1,-43,-39,-35,-14,-2,3
7,4,-2,-5,5,1,-42,-38,-35,-14,-3,2
6,3,-2,-5,4,0,-42,-38,-36,-15,-4,1
5,2,-3,-4,4,0,-42,-37,-36,-16,-4,0
5,2,-3,-4,4,0,-41,-37,-36,-17,-5,0
5,1,-3,-3,4,-1,-41,-36,-36,-17,-5,0
5,0,-4,-2,5,-2,-41,-34,-36,-18,-6,0
5,0,-4,-2,5,-2,-41,-33,-36,-18,-6,0
5,-1,-5,-2,5,-3,-40,-31,-35,-18,-6,-1
5,-1,-6,-2,6,-3,-39,-29,-34,-18,-6,-1
6,-1,-6,-2,6,-3,-38,-27,-33,-18,-7,-2
6,-1,-7,-2,7,-4,-37,-25,-32,-19,-8,-3
7,-1,-8,-2,8,-5,-36,-24,-31,-19,-8,-3
6,-1,-7,-2,7,-4,-34,-22,-30,-18,-8,-3
4,-1,-5,-1,5,-3,-33,-21,-28,-16,-7,-3
2,-2,-4,1,3,-3,-31,-18,-27,-15,-6,-2
0,-3,-3,2,1,-3,-30,-16,-25,-15,-6,-3
-1,-4,-3,3,1,-4,-29,-15,-24,-15,-7,-4
-1,-5,-4,3,2,-5,-28,-14,-24,-16,-7,-5
0,-6,-5,3,3,-6,-27,-13,-23,-16,-8,-5
0,-6,-6,2,3,-6,-26,-11,-22,-16,-8,-5
0,-5,-6,2,3,-6,-24,-10,-21,-15,-8,-5
0,-5,-5,3,2,-6,-23,-8,-19,-14,-8,-5
1,-6,-7,3,3,-7,-22,-8,-18,-14,-8,-6
3,-6,-9,2,5,-8,-21,-7,-18,-14,-9,-6
3,-6,-9,1,6,-8,-20,-7,-17,-14,-9,-6
2,-6,-9,2,6,-8,-18,-6,-16,-14,-9,-6
1,-7,-9,3,5,-8,-17,-7,-15,-13,-9,-6
0,-8,-7,3,3,-7,-16,-6,-14,-13,-9,-6
-1,-8,-6,3,2,-7,-15,-4,-14,-13,-9,-6
0,-8,-7,3,3,-7,-14,-3,-13,-13,-9,-7
0,-8,-7,3,3,-7,-13,-3,-13,-13,-10,-7
0,-8,-8,3,4,-8,-12,-2,-12,-12,-10,-8
0,-8,-8,3,4,-8,-11,-1,-12,-12,-9,-8
0,-8,-7,4,4,-8,-10,-1,-11,-12,-9,-8
-2,-9,-6,5,3,-8,-9,-1,-11,-12,-8,-7
-3,-9,-6,5,2,-8,-8,-1,-10,-11,-8,-7
-3,-10,-6,6,2,-8,-7,-1,-10,-11,-8,-7
-3,-10,-6,6,2,-8,-7,-2,-10,-11,-8,-7
-3,-9,-6,6,2,-8,-6,-2,-9,-11,-8,-7
-2,-9,-6,5,2,-8,-5,-2,-9,-11,-8,-7
-2,-9,-6,5,2,-8,-5,-2,-9,-11,-8,-7
-2,-9,-7,5,3,-8,-4,-2,-9,-11,-9,-7
-2,-9,-6,5,3,-8,-4,-2,-9,-11,-9,-8
-2,-9,-6,5,2,-7,-4,-2,-9,-10,-9,-8
-2,-9,-5,5,2,-7,-4,-1,-8,-10,-9,-8
-3,-10,-6,6,1,-8,-3,0,-8,-10,-10,-9
